0.0000	-4.44319	5.26095	1
0.0007	-1.39394	1.28316	0	
0.0013	0.435607	-0.534649	0	
0.0020	3.17993	2.50216	0	
0.0027	8.97349	0.983755	0	
0.0033	16.0085	-2.37384	0	
0.0040	24.8514	-0.534649	0	
0.0047	34.9139	0.384948	0	
0.0053	36.4385	-1.15484	0	
0.0060	29.4252	-1.15484	0	
0.0067	24.5464	-1.45425	0	
0.0073	23.6317	-3.29344	0	
0.0080	23.0218	-1.15484	0	
0.0087	22.107	0.983755	0	
0.0093	22.107	-1.15484	0	
0.0100	19.0578	-1.75365	0	
0.0107	4.70455	1.28316	0	
0.0113	-20.321	3.74255	0	
0.0120	-34.3476	2.50216	0	
0.0127	-25.8097	0.684351	0	
0.0133	-13.6127	2.50216	0	
0.0140	-11.7614	3.42176	0	
0.0147	-12.6979	0.983755	0	
0.0153	-14.2226	1.60395	0	
0.0160	-16.0521	4.34135	0	
0.0167	-12.0663	0.684351	0	
0.0173	-6.88258	-2.97265	0	
0.0180	-8.10228	-2.67325	0	
0.0187	-8.71213	-5.11125	0	
0.0193	-4.74811	-8.46885	0	
0.0200	-5.66289	-5.73144	0	
0.0207	-13.9176	-2.97265	0	
0.0213	-20.0161	-4.19165	0	
0.0220	-15.7472	-4.51244	0	
0.0227	-9.01706	-2.67325	0	
0.0233	-8.71213	0.384948	0	
0.0240	-11.4565	3.74255	0	
0.0247	-11.7614	4.34135	0	
0.0253	-10.2368	2.20276	0	
0.0260	-7.79736	2.20276	0	
0.0267	-6.57766	3.12235	0	
0.0273	-9.32198	2.20276	0	
0.0280	-10.5417	1.90335	0	
0.0287	-3.52841	2.50216	0	
0.0293	4.39963	1.28316	0	
0.0300	7.7538	1.90335	0	
0.0307	12.6326	5.56035	0	
0.0313	17.5332	8.31915	0	
0.0320	14.7888	8.91795	0	
0.0327	11.7178	7.99836	0	
0.0333	10.803	6.18055	0	
0.0340	7.7538	4.64076	0	
0.0347	6.22917	4.64076	0	
0.0353	10.1932	2.20276	0	
0.0360	15.0938	-2.97265	0	
0.0367	16.6184	-7.54925	0	
0.0373	10.1932	-9.08904	0	
0.0380	-2.61364	-6.65104	0	
0.0387	-7.49243	-5.11125	0	
0.0393	0.130682	-7.54925	0	
0.0400	5.61932	-7.54925	0	
0.0407	3.48485	-2.97265	0	
0.0413	1.35038	-1.15484	0	
0.0420	0.435607	-0.235246	0	
0.0427	-2.30871	2.50216	0	
0.0433	-7.49243	2.82295	0	
0.0440	-13.0029	2.82295	0	
0.0447	-16.9669	6.18055	0	
0.0453	-18.1866	7.39955	0	
0.0460	-16.357	4.04195	0	
0.0467	-12.0663	1.60395	0	
0.0473	-7.18751	0.983755	0	
0.0480	-5.66289	0.684351	0	
0.0487	-9.01706	3.42176	0	
0.0493	-11.4565	6.18055	0	
0.0500	-6.57766	4.96155	0	
0.0507	-1.08902	1.90335	0	
0.0513	-2.00379	1.60395	0	
0.0520	-1.08902	2.50216	0	
0.0527	5.3144	3.12235	0	
0.0533	9.58334	1.28316	0	
0.0540	12.0227	-3.89225	0	
0.0547	16.3135	-9.08904	0	
0.0553	18.143	-11.527	0	
0.0560	18.7529	-13.965	0	
0.0567	21.8021	-16.1036	0	
0.0573	23.9366	-14.8846	0	
0.0580	20.8873	-11.2276	0	
0.0587	12.9375	-8.16944	0	
0.0593	3.17993	-4.81185	0	
0.0600	-5.96781	-3.29344	0	
0.0607	-9.93183	-4.19165	0	
0.0613	-8.40721	-1.75365	0	
0.0620	-9.6269	4.34135	0	
0.0627	-13.0029	4.34135	0	
0.0633	-7.18751	0.0641579	0	
0.0640	2.57008	-2.67325	0	
0.0647	2.57008	-3.89225	0	
0.0653	0.435607	-2.97265	0	
0.0660	4.70455	-0.235246	0	
0.0667	6.22917	-1.15484	0	
0.0673	7.7538	-4.81185	0	
0.0680	15.3987	-4.81185	0	
0.0687	15.3987	-1.45425	0	
0.0693	2.875	0.684351	0	
0.0700	-1.08902	1.90335	0	
0.0707	7.14395	2.50216	0	
0.0713	12.9375	2.82295	0	
0.0720	13.5474	2.50216	0	
0.0727	12.9375	1.28316	0	
0.0733	13.2424	-0.534649	0	
0.0740	13.5474	-1.45425	0	
0.0747	5.00948	-0.834053	0	
0.0753	-12.6979	0.983755	0	
0.0760	-21.2358	0.684351	0	
0.0767	-19.4063	-0.834053	0	
0.0773	-18.1866	0.384948	0	
0.0780	-14.5275	-0.534649	0	
0.0787	-12.6979	-3.59284	0	
0.0793	-20.626	-3.89225	0	
0.0800	-26.4195	-3.89225	0	
0.0807	-19.4063	-3.89225	0	
0.0813	-11.1515	-0.834053	0	
0.0820	-8.10228	0.983755	0	
0.0827	-5.96781	0.0641579	0	
0.0833	-3.22349	0.384948	0	
0.0840	1.35038	-1.15484	0	
0.0847	5.3144	-4.51244	0	
0.0853	5.92425	-2.07444	0	
0.0860	7.14395	2.50216	0	
0.0867	10.803	3.74255	0	
0.0873	11.7178	3.42176	0	
0.0880	9.58334	1.60395	0	
0.0887	9.88827	-1.45425	0	
0.0893	10.1932	-2.37384	0	
0.0900	8.05872	0.684351	0	
0.0907	7.14395	2.82295	0	
0.0913	8.05872	0.0641579	0	
0.0920	6.22917	-3.29344	0	
0.0927	-1.39394	-0.834053	0	
0.0933	-6.57766	3.42176	0	
0.0940	-2.91856	3.42176	0	
0.0947	-0.174243	3.74255	0	
0.0953	-5.66289	4.96155	0	
0.0960	-12.0663	3.12235	0	
0.0967	-12.6979	2.20276	0	
0.0973	-11.7614	3.42176	0	
0.0980	-8.71213	1.28316	0	
0.0987	-3.52841	-1.75365	0	
0.0993	-2.91856	-1.15484	0	
0.1000	-5.05304	-0.235246	0	
0.1007	-4.74811	0.0641579	0	
0.1013	-2.00379	-0.235246	0	
0.1020	2.26515	-2.67325	0	
0.1027	7.7538	-4.81185	0	
0.1033	7.14395	-2.97265	0	
0.1040	2.57008	0.684351	0	
0.1047	0.740531	4.64076	0	
0.1053	-1.39394	7.10014	0	
0.1060	-4.44319	3.74255	0	
0.1067	-4.44319	0.684351	0	
0.1073	-5.66289	3.12235	0	
0.1080	-7.18751	4.96155	0	
0.1087	-2.30871	3.42176	0	
0.1093	4.39963	4.34135	0	
0.1100	7.14395	5.56035	0	
0.1107	8.66857	2.50216	0	
0.1113	9.58334	0.684351	0	
0.1120	10.803	2.50216	0	
0.1127	13.5474	3.42176	0	
0.1133	13.2424	3.12235	0	
0.1140	8.97349	2.50216	0	
0.1147	7.44887	0.384948	0	
0.1153	5.61932	-2.07444	0	
0.1160	-1.39394	0.384948	0	
0.1167	-10.2368	5.26095	0	
0.1173	-15.1373	5.26095	0	
0.1180	-16.357	2.20276	0	
0.1187	-14.8324	2.20276	0	
0.1193	-11.1515	3.42176	0	
0.1200	-5.96781	-1.15484	0	
0.1207	-1.08902	-7.24985	0	
0.1213	1.96023	-5.73144	0	
0.1220	3.48485	-1.45425	0	
0.1227	3.48485	-2.67325	0	
0.1233	2.875	-4.81185	0	
0.1240	4.0947	-3.89225	0	
0.1247	4.70455	-3.29344	0	
0.1253	2.26515	-1.75365	0	
0.1260	-0.479167	2.50216	0	
0.1267	-0.174243	2.82295	0	
0.1273	1.96023	-0.235246	0	
0.1280	3.48485	-1.45425	0	
0.1287	3.48485	-1.15484	0	
0.1293	3.17993	-2.07444	0	
0.1300	4.39963	-1.75365	0	
0.1307	4.0947	-0.834053	0	
0.1313	5.00948	-1.45425	0	
0.1320	14.4839	-0.235246	0	
0.1327	24.8514	3.12235	0	
0.1333	22.7169	5.56035	0	
0.1340	15.7036	5.85976	0	
0.1347	13.8523	4.34135	0	
0.1353	10.4981	2.82295	0	
0.1360	3.48485	2.50216	0	
0.1367	1.04546	1.60395	0	
0.1373	0.740531	1.60395	0	
0.1380	-1.69887	3.12235	0	
0.1387	-5.05304	2.50216	0	
0.1393	-9.32198	0.983755	0	
0.1400	-15.7472	1.60395	0	
0.1407	-22.1506	1.90335	0	
0.1413	-24.8949	0.0641579	0	
0.1420	-23.9801	-0.235246	0	
0.1427	-17.5767	2.20276	0	
0.1433	-9.32198	3.12235	0	
0.1440	-5.96781	0.684351	0	
0.1447	-4.74811	-1.45425	0	
0.1453	-2.00379	-0.834053	0	
0.1460	-1.39394	-0.235246	0	
0.1467	-2.91856	-0.235246	0	
0.1473	-2.00379	1.60395	0	
0.1480	-1.39394	3.12235	0	
0.1487	-5.66289	3.12235	0	
0.1493	-4.74811	4.96155	0	
0.1500	1.04546	6.18055	0	
0.1507	1.04546	3.74255	0	
0.1513	-0.479167	1.90335	0	
0.1520	0.740531	2.20276	0	
0.1527	-0.479167	-0.235246	0	
0.1533	0.130682	-3.89225	0	
0.1540	8.97349	-4.81185	0	
0.1547	16.6184	-5.73144	0	
0.1553	17.5332	-6.65104	0	
0.1560	17.2282	-6.33025	0	
0.1567	17.2282	-7.87004	0	
0.1573	17.8381	-12.1259	0	
0.1580	20.8873	-14.8846	0	
0.1587	20.8873	-13.965	0	
0.1593	15.0938	-11.2276	0	
0.1600	9.27842	-6.95044	0	
0.1607	5.00948	-3.89225	0	
0.1613	-0.784092	-4.19165	0	
0.1620	-5.05304	-2.67325	0	
0.1627	-6.57766	0.684351	0	
0.1633	-5.66289	-0.235246	0	
0.1640	-2.91856	-2.97265	0	
0.1647	-1.69887	-1.75365	0	
0.1653	-2.30871	-0.534649	0	
0.1660	-0.174243	0.983755	0	
0.1667	3.48485	3.74255	0	
0.1673	3.48485	2.82295	0	
0.1680	7.14395	0.684351	0	
0.1687	17.5332	1.60395	0	
0.1693	25.1563	0.983755	0	
0.1700	23.6317	-1.45425	0	
0.1707	17.5332	-1.75365	0	
0.1713	12.0227	-1.15484	0	
0.1720	9.88827	-0.235246	0	
0.1727	6.5341	0.384948	0	
0.1733	-1.69887	-1.15484	0	
0.1740	-8.71213	-2.97265	0	
0.1747	-10.2368	-2.07444	0	
0.1753	-8.40721	-1.75365	0	
0.1760	-5.05304	-2.07444	0	
0.1767	-3.52841	-1.45425	0	
0.1773	-2.61364	-1.45425	0	
0.1780	0.740531	-0.235246	0	
0.1787	2.26515	0.684351	0	
0.1793	-2.00379	-0.235246	0	
0.1800	-5.96781	-0.834053	0	
0.1807	-8.71213	0.983755	0	
0.1813	-14.2226	2.50216	0	
0.1820	-20.9309	3.42176	0	
0.1827	-26.7245	4.34135	0	
0.1833	-30.0786	4.34135	0	
0.1840	-28.554	4.34135	0	
0.1847	-23.3703	6.18055	0	
0.1853	-17.5767	6.18055	0	
0.1860	-12.6979	4.34135	0	
0.1867	-7.49243	2.82295	0	
0.1873	-3.83334	3.12235	0	
0.1880	-3.52841	3.74255	0	
0.1887	-1.08902	2.20276	0	
0.1893	4.0947	-0.834053	0	
0.1900	1.35038	-2.97265	0	
0.1907	-5.96781	-3.89225	0	
0.1913	-4.13826	-1.75365	0	
0.1920	0.130682	1.90335	0	
0.1927	-5.05304	2.50216	0	
0.1933	-8.71213	1.90335	0	
0.1940	-1.69887	5.26095	0	
0.1947	6.22917	5.26095	0	
0.1953	8.36365	0.0641579	0	
0.1960	9.88827	-0.534649	0	
0.1967	12.3277	2.50216	0	
0.1973	14.4839	0.0641579	0	
0.1980	17.2282	-2.07444	0	
0.1987	21.8021	-0.235246	0	
0.1993	26.376	-1.45425	0	
0.2000	29.7301	-6.65104	0	
0.2007	34.6089	-8.16944	0	
0.2013	33.6942	-4.81185	0	
0.2020	16.0085	-1.75365	0	
0.2027	-6.57766	-1.15484	0	
0.2033	-16.9669	-2.07444	0	
0.2040	-18.7964	-1.15484	0	
0.2047	-15.7472	0.983755	0	
0.2053	-3.83334	0.684351	0	
0.2060	10.803	-2.07444	0	
0.2067	16.3135	-3.89225	0	
0.2073	13.2424	-2.37384	0	
0.2080	8.66857	0.384948	0	
0.2087	7.14395	-0.235246	0	
0.2093	7.44887	-3.59284	0	
0.2100	6.22917	-4.19165	0	
0.2107	2.57008	-2.67325	0	
0.2113	0.130682	-2.37384	0	
0.2120	2.26515	-2.37384	0	
0.2127	5.3144	-2.07444	0	
0.2133	5.3144	-3.59284	0	
0.2140	4.39963	-2.97265	0	
0.2147	2.875	0.384948	0	
0.2153	-1.08902	1.60395	0	
0.2160	-3.22349	0.0641579	0	
0.2167	0.740531	-0.834053	0	
0.2173	1.96023	0.384948	0	
0.2180	-0.479167	0.983755	0	
0.2187	0.130682	-0.235246	0	
0.2193	2.57008	-1.15484	0	
0.2200	0.740531	-1.15484	0	
0.2207	-2.61364	-1.15484	0	
0.2213	-6.57766	-2.07444	0	
0.2220	-11.1515	-2.97265	0	
0.2227	-11.7614	-2.97265	0	
0.2233	-6.57766	-1.15484	0	
0.2240	-0.174243	0.684351	0	
0.2247	5.00948	1.28316	0	
0.2253	8.05872	0.684351	0	
0.2260	8.97349	1.28316	0	
0.2267	9.27842	2.82295	0	
0.2273	9.88827	4.34135	0	
0.2280	10.803	4.34135	0	
0.2287	13.5474	3.42176	0	
0.2293	16.6184	1.90335	0	
0.2300	19.9726	1.60395	0	
0.2307	23.3267	0.384948	0	
0.2313	20.8873	-0.235246	0	
0.2320	8.97349	-0.235246	0	
0.2327	-5.96781	-1.15484	0	
0.2333	-19.1013	-0.534649	0	
0.2340	-31.2983	3.42176	0	
0.2347	-35.5673	5.85976	0	
0.2353	-29.4688	4.34135	0	
0.2360	-23.9801	2.50216	0	
0.2367	-23.3703	1.60395	0	
0.2373	-20.321	0.983755	0	
0.2380	-14.8324	-0.235246	0	
0.2387	-8.71213	-2.07444	0	
0.2393	-3.22349	-2.07444	0	
0.2400	-3.83334	0.384948	0	
0.2407	-10.2368	3.42176	0	
0.2413	-12.3712	3.42176	0	
0.2420	-10.8466	2.20276	0	
0.2427	-12.6979	2.82295	0	
0.2433	-13.9176	4.04195	0	
0.2440	-8.10228	1.90335	0	
0.2447	-0.479167	-0.235246	0	
0.2453	3.78978	-0.235246	0	
0.2460	6.22917	-0.834053	0	
0.2467	8.05872	-1.45425	0	
0.2473	6.83902	-0.235246	0	
0.2480	4.70455	0.384948	0	
0.2487	5.3144	-0.834053	0	
0.2493	8.66857	0.384948	0	
0.2500	7.14395	3.42176	0	
0.2507	1.35038	5.56035	0	
0.2513	3.78978	5.26095	0	
0.2520	7.14395	6.18055	0	
0.2527	-5.66289	8.31915	0	
0.2533	-18.4915	7.39955	0	
0.2540	-10.2368	2.50216	0	
0.2547	1.6553	1.28316	0	
0.2553	3.48485	2.50216	0	
0.2560	3.17993	0.983755	0	
0.2567	1.04546	-1.75365	0	
0.2573	-4.74811	-2.37384	0	
0.2580	-7.49243	-2.67325	0	
0.2587	-6.57766	-2.67325	0	
0.2593	-5.66289	-1.15484	0	
0.2600	-7.18751	0.0641579	0	
0.2607	-12.6979	0.0641579	0	
0.2613	-18.4915	0.983755	0	
0.2620	-16.662	2.20276	0	
0.2627	-6.57766	1.60395	0	
0.2633	1.6553	0.684351	0	
0.2640	3.17993	1.90335	0	
0.2647	2.57008	1.60395	0	
0.2653	6.83902	-3.29344	0	
0.2660	9.88827	-7.87004	0	
0.2667	8.05872	-9.38844	0	
0.2673	5.00948	-9.38844	0	
0.2680	4.0947	-6.95044	0	
0.2687	-0.174243	-5.43204	0	
0.2693	-7.49243	-6.65104	0	
0.2700	-14.5275	-5.73144	0	
0.2707	-16.9669	-2.97265	0	
0.2713	-13.0029	-4.19165	0	
0.2720	-10.8466	-6.65104	0	
0.2727	-13.6127	-4.51244	0	
0.2733	-11.7614	-1.15484	0	
0.2740	-6.88258	0.684351	0	
0.2747	-9.32198	3.42176	0	
0.2753	-10.8466	2.82295	0	
0.2760	-3.22349	-2.97265	0	
0.2767	2.875	-5.73144	0	
0.2773	3.78978	-2.97265	0	
0.2780	2.26515	-0.235246	0	
0.2787	-2.30871	1.28316	0	
0.2793	-2.00379	3.12235	0	
0.2800	6.83902	1.28316	0	
0.2807	12.6326	-1.45425	0	
0.2813	15.3987	0.0641579	0	
0.2820	19.0578	1.60395	0	
0.2827	15.0938	-2.07444	0	
0.2833	9.27842	-4.19165	0	
0.2840	13.5474	-1.45425	0	
0.2847	13.8523	-0.235246	0	
0.2853	0.435607	-1.75365	0	
0.2860	-12.0663	-0.235246	0	
0.2867	-16.662	3.42176	0	
0.2873	-20.9309	2.82295	0	
0.2880	-23.9801	2.50216	0	
0.2887	-21.2358	6.77936	0	
0.2893	-18.1866	7.69895	0	
0.2900	-14.5275	3.12235	0	
0.2907	-7.18751	2.50216	0	
0.2913	-2.30871	5.26095	0	
0.2920	-3.52841	3.42176	0	
0.2927	-3.83334	1.60395	0	
0.2933	-3.22349	3.42176	0	
0.2940	-4.44319	4.34135	0	
0.2947	-5.05304	2.50216	0	
0.2953	-7.49243	0.983755	0	
0.2960	-12.0663	-0.534649	0	
0.2967	-13.9176	-3.59284	0	
0.2973	-13.0029	-5.11125	0	
0.2980	-13.0029	-4.81185	0	
0.2987	-11.4565	-6.33025	0	
0.2993	-8.10228	-9.38844	0	
0.3000	-3.52841	-9.38844	0	
0.3007	3.17993	-7.54925	0	
0.3013	7.7538	-5.73144	0	
0.3020	6.22917	-2.97265	0	
0.3027	3.78978	-2.67325	0	
0.3033	2.57008	-4.81185	0	
0.3040	0.740531	-3.59284	0	
0.3047	-0.479167	0.684351	0	
0.3053	-2.91856	3.42176	0	
0.3060	-8.40721	4.34135	0	
0.3067	-12.0663	4.34135	0	
0.3073	-11.1515	4.34135	0	
0.3080	-8.40721	4.04195	0	
0.3087	-5.35796	2.50216	0	
0.3093	-4.13826	1.28316	0	
0.3100	-7.49243	1.28316	0	
0.3107	-9.93183	1.28316	0	
0.3113	-7.18751	0.983755	0	
0.3120	-2.91856	1.60395	0	
0.3127	0.740531	2.20276	0	
0.3133	5.61932	1.28316	0	
0.3140	9.88827	-1.15484	0	
0.3147	13.2424	-4.19165	0	
0.3153	15.7036	-5.11125	0	
0.3160	14.179	-3.89225	0	
0.3167	8.05872	-3.89225	0	
0.3173	4.0947	-4.51244	0	
0.3180	4.0947	-3.59284	0	
0.3187	3.48485	-4.51244	0	
0.3193	2.26515	-6.33025	0	
0.3200	1.35038	-4.19165	0	
0.3207	0.130682	-0.235246	0	
0.3213	-2.61364	1.28316	0	
0.3220	-7.49243	2.82295	0	
0.3227	-12.3712	4.96155	0	
0.3233	-9.6269	2.82295	0	
0.3240	-2.30871	-2.07444	0	
0.3247	0.435607	-2.97265	0	
0.3253	-0.174243	0.684351	0	
0.3260	3.48485	2.82295	0	
0.3267	8.36365	1.90335	0	
0.3273	12.0227	2.20276	0	
0.3280	15.3987	5.56035	0	
0.3287	15.7036	5.56035	0	
0.3293	15.7036	1.60395	0	
0.3300	18.143	1.28316	0	
0.3307	16.6184	4.96155	0	
0.3313	11.7178	5.26095	0	
0.3320	10.803	2.50216	0	
0.3327	12.6326	2.50216	0	
0.3333	12.0227	5.56035	0	
0.3340	8.05872	6.47995	0	
0.3347	-0.479167	4.04195	0	
0.3353	-8.40721	0.684351	0	
0.3360	-14.5275	-0.834053	0	
0.3367	-24.8949	-0.235246	0	
0.3373	-31.6033	2.20276	0	
0.3380	-21.5407	4.34135	0	
0.3387	-4.74811	4.96155	0	
0.3393	4.39963	3.42176	0	
0.3400	5.61932	1.28316	0	
0.3407	-1.69887	-0.235246	0	
0.3413	-16.662	0.0641579	0	
0.3420	-29.4688	3.42176	0	
0.3427	-31.9082	5.56035	0	
0.3433	-25.5048	6.77936	0	
0.3440	-16.662	7.99836	0	
0.3447	-9.6269	6.18055	0	
0.3453	-5.35796	-0.235246	0	
0.3460	-8.40721	-2.67325	0	
0.3467	-17.8816	0.684351	0	
0.3473	-18.7964	0.684351	0	
0.3480	-2.91856	-3.59284	0	
0.3487	13.5474	-4.19165	0	
0.3493	19.6676	-2.07444	0	
0.3500	18.7529	-4.51244	0	
0.3507	12.9375	-6.95044	0	
0.3513	4.39963	-4.81185	0	
0.3520	-0.479167	-2.67325	0	
0.3527	-1.69887	-2.97265	0	
0.3533	-3.52841	-1.15484	0	
0.3540	-6.88258	1.60395	0	
0.3547	-8.40721	1.90335	0	
0.3553	-6.57766	0.0641579	0	
0.3560	-2.91856	-1.15484	0	
0.3567	1.35038	-2.67325	0	
0.3573	6.83902	-3.59284	0	
0.3580	8.97349	-3.59284	0	
0.3587	5.3144	-2.97265	0	
0.3593	-0.174243	-2.67325	0	
0.3600	-4.13826	-2.97265	0	
0.3607	-3.83334	-2.97265	0	
0.3613	1.6553	-2.97265	0	
0.3620	6.83902	-1.75365	0	
0.3627	8.97349	-0.235246	0	
0.3633	12.6326	-1.75365	0	
0.3640	17.2282	-6.65104	0	
0.3647	18.4479	-9.08904	0	
0.3653	16.9233	-8.46885	0	
0.3660	14.4839	-6.65104	0	
0.3667	10.803	-1.45425	0	
0.3673	3.48485	2.50216	0	
0.3680	-9.93183	0.684351	0	
0.3687	-18.7964	-2.07444	0	
0.3693	-15.1373	-0.235246	0	
0.3700	-6.57766	-0.534649	0	
0.3707	-4.13826	-2.97265	0	
0.3713	-2.91856	-1.15484	0	
0.3720	2.57008	1.28316	0	
0.3727	7.7538	0.684351	0	
0.3733	8.05872	1.60395	0	
0.3740	6.22917	2.82295	0	
0.3747	4.70455	1.60395	0	
0.3753	-0.479167	0.384948	0	
0.3760	-4.13826	-0.235246	0	
0.3767	-0.784092	-0.534649	0	
0.3773	3.48485	2.82295	0	
0.3780	2.57008	5.26095	0	
0.3787	1.35038	1.60395	0	
0.3793	0.130682	0.684351	0	
0.3800	-3.83334	4.34135	0	
0.3807	-5.05304	5.56035	0	
0.3813	4.0947	1.90335	0	
0.3820	15.7036	-1.15484	0	
0.3827	17.2282	-2.07444	0	
0.3833	9.88827	-2.07444	0	
0.3840	5.3144	-1.45425	0	
0.3847	2.57008	-2.97265	0	
0.3853	0.435607	-4.81185	0	
0.3860	5.3144	-7.24985	0	
0.3867	10.1932	-10.308	0	
0.3873	7.14395	-10.6074	0	
0.3880	5.61932	-8.16944	0	
0.3887	5.61932	-4.81185	0	
0.3893	-6.57766	-2.07444	0	
0.3900	-24.2851	-0.235246	0	
0.3907	-30.9934	-2.07444	0	
0.3913	-24.8949	-5.43204	0	
0.3920	-11.1515	-7.54925	0	
0.3927	1.35038	-8.16944	0	
0.3933	2.57008	-6.65104	0	
0.3940	-1.08902	-3.89225	0	
0.3947	-0.174243	-1.45425	0	
0.3953	1.6553	-0.534649	0	
0.3960	1.35038	-1.45425	0	
0.3967	1.04546	-2.07444	0	
0.3973	-2.61364	0.0641579	0	
0.3980	-9.01706	1.60395	0	
0.3987	-9.93183	1.60395	0	
0.3993	-6.57766	2.50216	0	
0.4000	-6.27273	4.34135	0	
0.4007	-6.88258	3.42176	0	
0.4013	-7.79736	1.60395	0	
0.4020	-10.2368	1.90335	0	
0.4027	-10.2368	3.74255	0	
0.4033	-6.88258	4.34135	0	
0.4040	-4.74811	5.56035	0	
0.4047	-4.44319	7.69895	0	
0.4053	-5.66289	6.18055	0	
0.4060	-9.6269	4.64076	0	
0.4067	-11.1515	8.61855	0	
0.4073	-6.88258	9.83755	0	
0.4080	-1.39394	4.64076	0	
0.4087	0.130682	4.96155	0	
0.4093	-1.08902	8.91795	0	
0.4100	0.130682	6.18055	0	
0.4107	4.70455	0.684351	0	
0.4113	7.44887	-0.235246	0	
0.4120	6.22917	-0.235246	0	
0.4127	5.3144	-2.07444	0	
0.4133	4.39963	-2.97265	0	
0.4140	3.48485	-4.19165	0	
0.4147	6.5341	-7.24985	0	
0.4153	11.4129	-6.65104	0	
0.4160	12.0227	-2.07444	0	
0.4167	9.88827	-1.15484	0	
0.4173	8.36365	-4.51244	0	
0.4180	7.44887	-4.81185	0	
0.4187	8.66857	-3.29344	0	
0.4193	12.3277	-3.89225	0	
0.4200	14.179	-3.89225	0	
0.4207	13.5474	-2.07444	0	
0.4213	12.9375	-1.45425	0	
0.4220	11.7178	-0.235246	0	
0.4227	8.97349	0.684351	0	
0.4233	7.7538	-1.45425	0	
0.4240	7.7538	-3.89225	0	
0.4247	6.5341	-4.51244	0	
0.4253	2.875	-4.81185	0	
0.4260	-0.174243	-4.19165	0	
0.4267	1.6553	-2.97265	0	
0.4273	6.5341	-1.15484	0	
0.4280	6.22917	0.0641579	0	
0.4287	5.3144	-1.45425	0	
0.4293	6.5341	-1.75365	0	
0.4300	4.70455	2.82295	0	
0.4307	1.35038	4.64076	0	
0.4313	0.740531	1.28316	0	
0.4320	-2.30871	-0.235246	0	
0.4327	-9.93183	1.60395	0	
0.4333	-16.357	3.42176	0	
0.4340	-22.1506	4.34135	0	
0.4347	-27.6392	4.64076	0	
0.4353	-25.8097	5.26095	0	
0.4360	-18.1866	6.47995	0	
0.4367	-9.93183	4.34135	0	
0.4373	-0.174243	0.0641579	0	
0.4380	8.05872	0.684351	0	
0.4387	13.8523	2.82295	0	
0.4393	18.4479	0.684351	0	
0.4400	18.7529	-2.07444	0	
0.4407	17.2282	-2.37384	0	
0.4413	20.8873	-3.29344	0	
0.4420	26.376	-5.43204	0	
0.4427	28.8154	-6.95044	0	
0.4433	30.0351	-7.24985	0	
0.4440	28.5104	-5.73144	0	
0.4447	24.2415	-3.59284	0	
0.4453	20.5824	-4.19165	0	
0.4460	14.4839	-5.11125	0	
0.4467	7.44887	-3.59284	0	
0.4473	5.61932	-2.07444	0	
0.4480	-0.784092	-2.07444	0	
0.4487	-18.4915	-1.45425	0	
0.4493	-27.6392	-0.235246	0	
0.4500	-20.626	-0.834053	0	
0.4507	-16.662	-2.07444	0	
0.4513	-22.1506	-0.235246	0	
0.4520	-24.8949	3.42176	0	
0.4527	-22.1506	4.04195	0	
0.4533	-20.321	3.12235	0	
0.4540	-22.4555	4.04195	0	
0.4547	-27.3343	3.42176	0	
0.4553	-27.3343	0.384948	0	
0.4560	-22.4555	-0.534649	0	
0.4567	-23.0654	1.60395	0	
0.4573	-25.5048	0.983755	0	
0.4580	-22.4555	-1.45425	0	
0.4587	-19.7112	-0.235246	0	
0.4593	-19.7112	3.42176	0	
0.4600	-15.7472	2.50216	0	
0.4607	-10.8466	0.384948	0	
0.4613	-7.49243	0.684351	0	
0.4620	0.130682	-0.235246	0	
0.4627	8.36365	-0.834053	0	
0.4633	7.14395	2.20276	0	
0.4640	4.39963	4.34135	0	
0.4647	7.7538	3.74255	0	
0.4653	7.7538	4.64076	0	
0.4660	-0.479167	5.26095	0	
0.4667	-4.74811	3.12235	0	
0.4673	-0.479167	3.42176	0	
0.4680	0.130682	5.56035	0	
0.4687	-6.27273	5.26095	0	
0.4693	-9.6269	4.64076	0	
0.4700	-7.79736	5.56035	0	
0.4707	-6.27273	3.12235	0	
0.4713	-5.96781	0.684351	0	
0.4720	-7.49243	2.82295	0	
0.4727	-9.6269	4.64076	0	
0.4733	-7.49243	2.50216	0	
0.4740	-3.83334	2.20276	0	
0.4747	-2.91856	4.96155	0	
0.4753	-2.30871	7.10014	0	
0.4760	1.6553	6.18055	0	
0.4767	6.83902	4.34135	0	
0.4773	12.9375	2.20276	0	
0.4780	19.9726	0.0641579	0	
0.4787	24.5464	-3.29344	0	
0.4793	27.5957	-8.46885	0	
0.4800	31.8646	-12.1259	0	
0.4807	34.9139	-10.308	0	
0.4813	31.8646	-5.73144	0	
0.4820	22.7169	-2.07444	0	
0.4827	14.179	1.28316	0	
0.4833	9.27842	2.50216	0	
0.4840	7.14395	0.0641579	0	
0.4847	5.3144	-2.97265	0	
0.4853	5.3144	-3.89225	0	
0.4860	5.00948	-3.59284	0	
0.4867	3.17993	-2.07444	0	
0.4873	3.17993	0.0641579	0	
0.4880	2.875	-0.235246	0	
0.4887	-2.30871	1.60395	0	
0.4893	-5.66289	5.26095	0	
0.4900	-1.08902	2.50216	0	
0.4907	4.39963	-3.59284	0	
0.4913	1.04546	-2.97265	0	
0.4920	-6.27273	-1.15484	0	
0.4927	-11.1515	-3.59284	0	
0.4933	-14.2226	-5.11125	0	
0.4940	-15.1373	-3.89225	0	
0.4947	-12.0663	-2.07444	0	
0.4953	-6.57766	-0.534649	0	
0.4960	-4.13826	-1.15484	0	
0.4967	-6.27273	-3.89225	0	
0.4973	-5.66289	-4.81185	0	
0.4980	-1.39394	-4.81185	0	
0.4987	2.57008	-5.43204	0	
0.4993	2.57008	-5.11125	0	
0.5000	-1.39394	-2.67325	0	
0.5007	-6.57766	0.684351	0	
0.5013	-6.88258	0.983755	0	
0.5020	-2.91856	-2.07444	0	
0.5027	-0.784092	-3.89225	0	
0.5033	0.435607	-2.07444	0	
0.5040	0.130682	-1.75365	0	
0.5047	-2.91856	-2.07444	0	
0.5053	-3.52841	0.384948	0	
0.5060	-1.08902	1.28316	0	
0.5067	-1.39394	0.684351	0	
0.5073	-0.784092	2.50216	0	
0.5080	2.875	2.82295	0	
0.5087	3.78978	-0.235246	0	
0.5093	2.875	-0.834053	0	
0.5100	4.0947	0.384948	0	
0.5107	2.57008	-1.15484	0	
0.5113	-2.00379	-1.45425	0	
0.5120	-5.35796	2.50216	0	
0.5127	-7.18751	2.82295	0	
0.5133	-6.27273	-1.45425	0	
0.5140	-2.00379	-4.81185	0	
0.5147	0.435607	-5.73144	0	
0.5153	-1.08902	-6.95044	0	
0.5160	-0.479167	-6.95044	0	
0.5167	0.740531	-4.19165	0	
0.5173	1.35038	-0.834053	0	
0.5180	2.57008	-1.15484	0	
0.5187	3.17993	-2.07444	0	
0.5193	-0.174243	-0.534649	0	
0.5200	0.130682	-0.235246	0	
0.5207	9.58334	-2.97265	0	
0.5213	18.7529	-4.19165	0	
0.5220	17.2282	-1.75365	0	
0.5227	8.97349	-0.834053	0	
0.5233	1.35038	-1.15484	0	
0.5240	-4.74811	0.684351	0	
0.5247	-6.57766	2.20276	0	
0.5253	-5.35796	2.50216	0	
0.5260	-6.57766	2.20276	0	
0.5267	-9.32198	2.50216	0	
0.5273	-5.66289	3.12235	0	
0.5280	2.26515	2.20276	0	
0.5287	4.0947	0.384948	0	
0.5293	-2.30871	-0.834053	0	
0.5300	-9.32198	-3.59284	0	
0.5307	-7.79736	-8.46885	0	
0.5313	0.740531	-9.38844	0	
0.5320	6.83902	-5.43204	0	
0.5327	8.97349	-2.97265	0	
0.5333	12.0227	-3.59284	0	
0.5340	13.5474	-3.29344	0	
0.5347	8.97349	-1.75365	0	
0.5353	3.78978	-0.834053	0	
0.5360	-0.784092	0.384948	0	
0.5367	-4.13826	2.50216	0	
0.5373	-4.44319	4.64076	0	
0.5380	-3.22349	5.56035	0	
0.5387	-5.66289	5.26095	0	
0.5393	-8.71213	5.26095	0	
0.5400	-7.79736	4.96155	0	
0.5407	-5.66289	4.34135	0	
0.5413	-3.83334	0.384948	0	
0.5420	0.435607	-6.65104	0	
0.5427	4.39963	-11.527	0	
0.5433	5.92425	-10.6074	0	
0.5440	7.14395	-8.46885	0	
0.5447	7.7538	-8.46885	0	
0.5453	6.83902	-9.38844	0	
0.5460	6.22917	-8.16944	0	
0.5467	2.875	-5.73144	0	
0.5473	-3.52841	-3.29344	0	
0.5480	-6.88258	0.983755	0	
0.5487	-9.01706	6.47995	0	
0.5493	-16.662	7.99836	0	
0.5500	-18.4915	5.85976	0	
0.5507	-12.0663	4.96155	0	
0.5513	-13.0029	3.42176	0	
0.5520	-17.5767	0.0641579	0	
0.5527	-11.1515	-0.235246	0	
0.5533	-2.30871	-1.15484	0	
0.5540	1.96023	-5.11125	0	
0.5547	8.97349	-6.03085	0	
0.5553	10.4981	-3.59284	0	
0.5560	2.875	-2.97265	0	
0.5567	1.6553	-2.37384	0	
0.5573	3.48485	0.0641579	0	
0.5580	-4.74811	0.684351	0	
0.5587	-13.0029	-0.235246	0	
0.5593	-12.3712	0.983755	0	
0.5600	-13.9176	2.50216	0	
0.5607	-16.662	1.28316	0	
0.5613	-12.6979	-1.45425	0	
0.5620	-6.88258	-1.45425	0	
0.5627	-7.18751	0.684351	0	
0.5633	-8.40721	1.28316	0	
0.5640	-5.35796	0.384948	0	
0.5647	-0.784092	-0.235246	0	
0.5653	0.740531	-1.15484	0	
0.5660	0.740531	-2.37384	0	
0.5667	3.48485	-2.97265	0	
0.5673	9.58334	-2.97265	0	
0.5680	12.3277	-1.45425	0	
0.5687	8.36365	0.384948	0	
0.5693	6.22917	1.60395	0	
0.5700	8.05872	2.20276	0	
0.5707	7.44887	0.983755	0	
0.5713	4.70455	-1.75365	0	
0.5720	5.3144	-1.45425	0	
0.5727	6.5341	1.60395	0	
0.5733	5.3144	1.90335	0	
0.5740	2.57008	0.384948	0	
0.5747	1.04546	1.28316	0	
0.5753	1.35038	2.50216	0	
0.5760	1.04546	1.60395	0	
0.5767	-1.08902	0.983755	0	
0.5773	-1.39394	1.60395	0	
0.5780	1.04546	0.0641579	0	
0.5787	2.57008	-1.45425	0	
0.5793	1.6553	0.0641579	0	
0.5800	0.740531	1.90335	0	
0.5807	2.57008	0.684351	0	
0.5813	4.39963	2.50216	0	
0.5820	2.57008	6.47995	0	
0.5827	0.740531	5.85976	0	
0.5833	3.48485	3.12235	0	
0.5840	4.39963	3.12235	0	
0.5847	0.740531	3.42176	0	
0.5853	0.740531	4.64076	0	
0.5860	3.78978	8.31915	0	
0.5867	0.435607	10.137	0	
0.5873	-5.66289	9.83755	0	
0.5880	-5.96781	10.137	0	
0.5887	-2.61364	8.31915	0	
0.5893	0.740531	4.64076	0	
0.5900	4.0947	2.50216	0	
0.5907	5.61932	-0.235246	0	
0.5913	7.14395	-2.97265	0	
0.5920	9.58334	-2.97265	0	
0.5927	10.1932	-2.07444	0	
0.5933	7.7538	-1.15484	0	
0.5940	7.7538	1.28316	0	
0.5947	10.803	3.12235	0	
0.5953	12.3277	4.34135	0	
0.5960	11.4129	6.47995	0	
0.5967	10.803	7.69895	0	
0.5973	12.3277	6.47995	0	
0.5980	17.2282	2.50216	0	
0.5987	23.3267	-1.15484	0	
0.5993	24.8514	0.684351	0	
0.6000	18.7529	5.26095	0	
0.6007	8.97349	6.18055	0	
0.6013	2.26515	4.96155	0	
0.6020	-3.83334	5.85976	0	
0.6027	-12.0663	5.85976	0	
0.6033	-20.321	3.12235	0	
0.6040	-23.0654	0.684351	0	
0.6047	-22.1506	0.684351	0	
0.6053	-22.1506	2.20276	0	
0.6060	-27.6392	1.60395	0	
0.6067	-36.482	-1.15484	0	
0.6073	-37.7017	-2.97265	0	
0.6080	-25.1998	-5.43204	0	
0.6087	-6.57766	-7.24985	0	
0.6093	7.14395	-7.54925	0	
0.6100	13.5474	-8.46885	0	
0.6107	16.3135	-10.308	0	
0.6113	18.4479	-8.46885	0	
0.6120	18.7529	-4.81185	0	
0.6127	15.7036	-2.67325	0	
0.6133	11.4129	-2.07444	0	
0.6140	7.7538	-2.97265	0	
0.6147	5.00948	-3.89225	0	
0.6153	-1.69887	-2.67325	0	
0.6160	-13.9176	-4.19165	0	
0.6167	-19.7112	-10.0086	0	
0.6173	-14.8324	-12.4466	0	
0.6180	-11.1515	-9.08904	0	
0.6187	-11.1515	-6.65104	0	
0.6193	-10.5417	-9.38844	0	
0.6200	-13.0029	-12.1259	0	
0.6207	-15.4423	-10.0086	0	
0.6213	-11.1515	-8.46885	0	
0.6220	-6.57766	-10.0086	0	
0.6227	-5.66289	-6.95044	0	
0.6233	-3.52841	-0.235246	0	
0.6240	-2.30871	1.60395	0	
0.6247	-4.13826	-1.15484	0	
0.6253	-3.52841	0.0641579	0	
0.6260	-3.22349	2.50216	0	
0.6267	-7.49243	0.983755	0	
0.6273	-11.1515	-2.37384	0	
0.6280	-11.7614	-2.67325	0	
0.6287	-9.32198	-2.37384	0	
0.6293	-3.83334	-3.29344	0	
0.6300	-0.174243	-1.75365	0	
0.6307	-0.479167	0.684351	0	
0.6313	-0.174243	-0.235246	0	
0.6320	1.6553	-0.235246	0	
0.6327	2.875	1.90335	0	
0.6333	5.3144	0.684351	0	
0.6340	7.14395	-0.235246	0	
0.6347	7.7538	3.12235	0	
0.6353	7.44887	5.26095	0	
0.6360	5.61932	5.26095	0	
0.6367	3.17993	4.96155	0	
0.6373	1.96023	5.56035	0	
0.6380	1.6553	7.69895	0	
0.6387	3.17993	7.39955	0	
0.6393	4.70455	3.42176	0	
0.6400	3.48485	1.60395	0	
0.6407	4.39963	2.20276	0	
0.6413	8.97349	-0.235246	0	
0.6420	8.97349	-1.15484	0	
0.6427	6.5341	2.20276	0	
0.6433	8.66857	1.60395	0	
0.6440	9.58334	-1.75365	0	
0.6447	4.39963	-1.15484	0	
0.6453	1.04546	-1.15484	0	
0.6460	-0.174243	-1.75365	0	
0.6467	-5.05304	2.50216	0	
0.6473	-6.57766	6.18055	0	
0.6480	-1.39394	4.04195	0	
0.6487	0.740531	1.60395	0	
0.6493	0.130682	1.90335	0	
0.6500	-0.174243	3.74255	0	
0.6507	-5.66289	5.26095	0	
0.6513	-13.9176	5.26095	0	
0.6520	-16.662	4.34135	0	
0.6527	-16.662	4.96155	0	
0.6533	-14.5275	4.04195	0	
0.6540	-6.88258	-1.15484	0	
0.6547	-2.61364	-3.89225	0	
0.6553	-2.00379	-2.37384	0	
0.6560	1.6553	-1.75365	0	
0.6567	0.740531	0.684351	0	
0.6573	-7.18751	2.82295	0	
0.6580	-7.79736	-0.235246	0	
0.6587	0.740531	-2.07444	0	
0.6593	7.44887	-0.534649	0	
0.6600	11.108	-2.97265	0	
0.6607	12.3277	-7.54925	0	
0.6613	9.58334	-6.95044	0	
0.6620	7.7538	-4.81185	0	
0.6627	3.78978	-3.59284	0	
0.6633	-2.91856	-2.97265	0	
0.6640	-2.61364	-2.97265	0	
0.6647	7.7538	-1.45425	0	
0.6653	17.8381	0.983755	0	
0.6660	23.6317	-0.834053	0	
0.6667	25.7661	-6.03085	0	
0.6673	22.7169	-8.46885	0	
0.6680	16.3135	-7.24985	0	
0.6687	12.6326	-4.19165	0	
0.6693	11.108	-2.97265	0	
0.6700	8.66857	-2.07444	0	
0.6707	4.39963	-0.235246	0	
0.6713	2.875	0.983755	0	
0.6720	1.35038	1.60395	0	
0.6727	-4.13826	2.50216	0	
0.6733	-11.4565	1.60395	0	
0.6740	-20.626	1.60395	0	
0.6747	-29.4688	4.04195	0	
0.6753	-23.9801	3.42176	0	
0.6760	-8.40721	-0.834053	0	
0.6767	-4.74811	-0.235246	0	
0.6773	-11.4565	3.12235	0	
0.6780	-15.4423	2.50216	0	
0.6787	-18.7964	1.90335	0	
0.6793	-24.59	1.28316	0	
0.6800	-26.1146	-1.15484	0	
0.6807	-24.8949	-0.534649	0	
0.6813	-22.4555	2.50216	0	
0.6820	-17.8816	3.42176	0	
0.6827	-15.7472	3.74255	0	
0.6833	-12.3712	4.04195	0	
0.6840	-1.69887	2.82295	0	
0.6847	9.27842	1.60395	0	
0.6853	11.108	1.28316	0	
0.6860	8.36365	0.684351	0	
0.6867	7.14395	2.50216	0	
0.6873	7.14395	3.42176	0	
0.6880	6.5341	-0.834053	0	
0.6887	6.22917	-5.73144	0	
0.6893	5.92425	-5.73144	0	
0.6900	4.70455	-4.19165	0	
0.6907	5.00948	-4.51244	0	
0.6913	9.88827	-6.33025	0	
0.6920	15.3987	-7.54925	0	
0.6927	16.3135	-8.16944	0	
0.6933	16.3135	-8.78964	0	
0.6940	17.2282	-7.54925	0	
0.6947	19.0578	-3.29344	0	
0.6953	19.9726	-1.75365	0	
0.6960	19.6676	-3.59284	0	
0.6967	19.0578	-3.29344	0	
0.6973	19.0578	-0.534649	0	
0.6980	12.6326	0.983755	0	
0.6987	1.6553	1.28316	0	
0.6993	-2.91856	0.983755	0	
0.7000	0.740531	-0.834053	0	
0.7007	1.6553	-0.235246	0	
0.7013	-0.174243	3.42176	0	
0.7020	-2.61364	4.64076	0	
0.7027	-6.88258	1.60395	0	
0.7033	-8.40721	1.28316	0	
0.7040	-5.66289	3.12235	0	
0.7047	-5.05304	2.50216	0	
0.7053	-8.40721	3.42176	0	
0.7060	-9.32198	6.18055	0	
0.7067	-9.6269	4.96155	0	
0.7073	-10.2368	1.90335	0	
0.7080	-9.32198	2.50216	0	
0.7087	-11.4565	1.60395	0	
0.7093	-15.1373	-1.15484	0	
0.7100	-12.3712	0.684351	0	
0.7107	-4.74811	2.50216	0	
0.7113	-1.39394	0.0641579	0	
0.7120	-1.39394	-1.15484	0	
0.7127	-1.39394	1.60395	0	
0.7133	-1.08902	2.50216	0	
0.7140	0.740531	0.384948	0	
0.7147	1.6553	-1.75365	0	
0.7153	1.96023	-2.07444	0	
0.7160	5.3144	-1.15484	0	
0.7167	8.97349	-0.235246	0	
0.7173	8.97349	-1.15484	0	
0.7180	8.97349	-0.235246	0	
0.7187	8.97349	2.50216	0	
0.7193	3.78978	3.12235	0	
0.7200	-0.479167	2.20276	0	
0.7207	-1.69887	2.50216	0	
0.7213	-4.74811	1.90335	0	
0.7220	-7.18751	1.60395	0	
0.7227	-7.49243	5.56035	0	
0.7233	-8.71213	7.69895	0	
0.7240	-7.18751	0.684351	0	
0.7247	1.04546	-4.81185	0	
0.7253	5.92425	-2.37384	0	
0.7260	2.26515	-1.75365	0	
0.7267	-3.22349	-2.07444	0	
0.7273	-7.18751	1.60395	0	
0.7280	-9.32198	4.04195	0	
0.7287	-8.10228	2.50216	0	
0.7293	-3.83334	1.90335	0	
0.7300	0.130682	-0.235246	0	
0.7307	1.96023	-2.37384	0	
0.7313	1.35038	0.384948	0	
0.7320	-0.479167	1.90335	0	
0.7327	-0.174243	-1.15484	0	
0.7333	-0.174243	-2.07444	0	
0.7340	-3.22349	-0.235246	0	
0.7347	-5.05304	-0.235246	0	
0.7353	-3.22349	0.684351	0	
0.7360	-4.13826	3.42176	0	
0.7367	-7.79736	4.64076	0	
0.7373	-7.79736	4.34135	0	
0.7380	-7.18751	5.56035	0	
0.7387	-8.40721	7.69895	0	
0.7393	-7.18751	6.18055	0	
0.7400	-6.57766	3.12235	0	
0.7407	-9.93183	2.50216	0	
0.7413	-10.8466	3.74255	0	
0.7420	-8.10228	3.42176	0	
0.7427	-8.10228	2.82295	0	
0.7433	-10.5417	2.50216	0	
0.7440	-7.49243	-0.534649	0	
0.7447	2.875	-5.73144	0	
0.7453	14.7888	-8.46885	0	
0.7460	24.5464	-8.16944	0	
0.7467	33.3892	-8.46885	0	
0.7473	38.268	-10.308	0	
0.7480	34.6089	-10.9068	0	
0.7487	30.9498	-10.9068	0	
0.7493	32.7794	-11.527	0	
0.7500	30.6449	-10.0086	0	
0.7507	21.4972	-5.43204	0	
0.7513	10.803	-2.67325	0	
0.7520	1.35038	-0.834053	0	
0.7527	-2.00379	-0.834053	0	
0.7533	1.35038	-3.59284	0	
0.7540	-1.69887	-2.97265	0	
0.7547	-8.10228	0.684351	0	
0.7553	-4.44319	-2.07444	0	
0.7560	3.48485	-7.54925	0	
0.7567	4.70455	-6.95044	0	
0.7573	5.3144	-4.51244	0	
0.7580	8.36365	-2.67325	0	
0.7587	6.83902	0.0641579	0	
0.7593	1.04546	-0.834053	0	
0.7600	-5.66289	-3.59284	0	
0.7607	-15.7472	-1.45425	0	
0.7613	-25.5048	0.0641579	0	
0.7620	-25.1998	-1.45425	0	
0.7627	-22.1506	-0.834053	0	
0.7633	-24.59	0.983755	0	
0.7640	-24.2851	0.983755	0	
0.7647	-18.7964	1.90335	0	
0.7653	-15.7472	4.34135	0	
0.7660	-15.7472	6.77936	0	
0.7667	-17.5767	7.69895	0	
0.7673	-22.4555	4.96155	0	
0.7680	-22.1506	2.50216	0	
0.7687	-16.662	5.26095	0	
0.7693	-13.3078	5.85976	0	
0.7700	-6.27273	1.90335	0	
0.7707	2.57008	1.28316	0	
0.7713	1.6553	1.60395	0	
0.7720	-0.174243	-2.07444	0	
0.7727	6.5341	-4.19165	0	
0.7733	7.7538	-0.834053	0	
0.7740	-1.08902	2.50216	0	
0.7747	-5.66289	3.42176	0	
0.7753	-4.74811	5.26095	0	
0.7760	-2.30871	6.18055	0	
0.7767	2.875	4.34135	0	
0.7773	7.44887	1.60395	0	
0.7780	8.05872	-1.15484	0	
0.7787	9.88827	-2.37384	0	
0.7793	10.4981	-1.15484	0	
0.7800	5.92425	0.384948	0	
0.7807	1.35038	-0.534649	0	
0.7813	1.96023	-1.75365	0	
0.7820	2.57008	0.384948	0	
0.7827	0.435607	0.684351	0	
0.7833	1.35038	-3.59284	0	
0.7840	3.48485	-4.81185	0	
0.7847	3.78978	-2.07444	0	
0.7853	3.17993	-2.67325	0	
0.7860	-0.479167	-5.11125	0	
0.7867	-5.96781	-3.89225	0	
0.7873	-5.66289	-2.97265	0	
0.7880	-2.30871	-4.19165	0	
0.7887	-2.00379	-2.97265	0	
0.7893	-0.784092	-2.67325	0	
0.7900	2.875	-3.29344	0	
0.7907	4.0947	-1.15484	0	
0.7913	5.61932	2.50216	0	
0.7920	10.1932	2.20276	0	
0.7927	11.7178	-1.15484	0	
0.7933	8.66857	-1.45425	0	
0.7940	4.70455	2.82295	0	
0.7947	-1.08902	5.85976	0	
0.7953	-9.32198	4.64076	0	
0.7960	-14.8324	5.26095	0	
0.7967	-13.0029	5.85976	0	
0.7973	-6.88258	0.684351	0	
0.7980	-2.00379	-2.67325	0	
0.7987	0.435607	1.60395	0	
0.7993	2.57008	4.04195	0	
0.8000	3.78978	1.60395	0	
0.8007	2.26515	1.60395	0	
0.8013	2.57008	2.50216	0	
0.8020	10.803	-0.834053	0	
0.8027	19.3627	-3.89225	0	
0.8033	16.3135	-4.19165	0	
0.8040	11.7178	-4.51244	0	
0.8047	13.5474	-6.95044	0	
0.8053	11.108	-8.46885	0	
0.8060	3.78978	-6.65104	0	
0.8067	1.6553	-5.43204	0	
0.8073	-1.08902	-6.65104	0	
0.8080	-6.57766	-6.03085	0	
0.8087	-5.96781	-3.89225	0	
0.8093	-2.00379	-4.19165	0	
0.8100	-3.83334	-4.81185	0	
0.8107	-5.66289	-3.59284	0	
0.8113	-2.61364	-3.59284	0	
0.8120	-0.174243	-5.73144	0	
0.8127	-0.174243	-5.73144	0	
0.8133	1.6553	-3.89225	0	
0.8140	5.61932	-3.29344	0	
0.8147	9.58334	-6.33025	0	
0.8153	13.5474	-9.38844	0	
0.8160	19.0578	-8.16944	0	
0.8167	23.6317	-5.43204	0	
0.8173	23.0218	-5.43204	0	
0.8180	20.5824	-5.73144	0	
0.8187	20.8873	-3.29344	0	
0.8193	17.2282	-1.45425	0	
0.8200	5.92425	-0.235246	0	
0.8207	-6.57766	3.12235	0	
0.8213	-16.662	7.10014	0	
0.8220	-26.7245	9.53815	0	
0.8227	-30.3836	11.9761	0	
0.8233	-25.8097	12.8957	0	
0.8240	-24.8949	10.137	0	
0.8247	-27.9442	7.10014	0	
0.8253	-24.2851	4.34135	0	
0.8260	-16.357	1.60395	0	
0.8267	-11.7614	0.384948	0	
0.8273	-9.93183	2.20276	0	
0.8280	-9.32198	3.12235	0	
0.8287	-8.71213	1.90335	0	
0.8293	-6.57766	1.60395	0	
0.8300	-5.35796	2.50216	0	
0.8307	-2.91856	0.684351	0	
0.8313	1.35038	-4.19165	0	
0.8320	0.740531	-9.68785	0	
0.8327	-2.91856	-10.0086	0	
0.8333	-3.83334	-6.03085	0	
0.8340	-4.13826	-2.07444	0	
0.8347	-4.74811	0.384948	0	
0.8353	-0.479167	0.983755	0	
0.8360	5.00948	0.384948	0	
0.8367	8.97349	-1.15484	0	
0.8373	12.6326	-3.59284	0	
0.8380	13.5474	-4.81185	0	
0.8387	12.9375	-2.67325	0	
0.8393	14.179	-0.534649	0	
0.8400	14.179	-1.45425	0	
0.8407	12.3277	-1.45425	0	
0.8413	9.27842	-0.235246	0	
0.8420	3.17993	-1.15484	0	
0.8427	-3.22349	-0.235246	0	
0.8433	-3.22349	0.983755	0	
0.8440	-1.39394	-1.15484	0	
0.8447	-3.52841	-2.97265	0	
0.8453	-5.66289	-1.15484	0	
0.8460	-3.83334	1.28316	0	
0.8467	-0.784092	0.684351	0	
0.8473	0.130682	-2.37384	0	
0.8480	2.57008	-4.81185	0	
0.8487	6.5341	-2.07444	0	
0.8493	4.39963	1.60395	0	
0.8500	-1.08902	1.90335	0	
0.8507	-1.08902	2.20276	0	
0.8513	-1.08902	3.12235	0	
0.8520	-6.27273	0.983755	0	
0.8527	-7.79736	0.684351	0	
0.8533	-6.88258	4.04195	0	
0.8540	-9.32198	4.96155	0	
0.8547	-7.49243	3.74255	0	
0.8553	-0.174243	5.26095	0	
0.8560	1.96023	6.47995	0	
0.8567	2.57008	3.42176	0	
0.8573	6.83902	1.28316	0	
0.8580	8.97349	1.28316	0	
0.8587	8.66857	0.384948	0	
0.8593	7.14395	1.60395	0	
0.8600	2.26515	4.34135	0	
0.8607	-4.44319	3.12235	0	
0.8613	-7.79736	0.684351	0	
0.8620	-9.6269	2.50216	0	
0.8627	-8.40721	2.50216	0	
0.8633	-5.66289	-0.534649	0	
0.8640	-5.96781	-2.07444	0	
0.8647	-5.05304	-3.29344	0	
0.8653	-2.61364	-2.97265	0	
0.8660	-7.49243	1.28316	0	
0.8667	-13.9176	3.12235	0	
0.8673	-11.1515	-0.834053	0	
0.8680	-7.18751	-5.11125	0	
0.8687	-7.49243	-7.24985	0	
0.8693	-3.83334	-6.65104	0	
0.8700	0.435607	-3.29344	0	
0.8707	-0.174243	-1.75365	0	
0.8713	1.04546	-3.59284	0	
0.8720	3.17993	-3.89225	0	
0.8727	3.17993	-1.75365	0	
0.8733	6.5341	-1.45425	0	
0.8740	9.88827	-2.97265	0	
0.8747	7.7538	-2.37384	0	
0.8753	4.39963	-1.15484	0	
0.8760	0.130682	-1.45425	0	
0.8767	-7.79736	-3.59284	0	
0.8773	-11.1515	-4.81185	0	
0.8780	-6.57766	-5.73144	0	
0.8787	-3.22349	-5.11125	0	
0.8793	-2.91856	-1.45425	0	
0.8800	-3.22349	2.50216	0	
0.8807	-5.05304	5.26095	0	
0.8813	-5.35796	6.18055	0	
0.8820	-1.69887	3.42176	0	
0.8827	-0.174243	2.20276	0	
0.8833	-0.174243	4.04195	0	
0.8840	5.3144	3.74255	0	
0.8847	9.88827	3.42176	0	
0.8853	6.83902	5.85976	0	
0.8860	3.17993	5.56035	0	
0.8867	2.57008	1.90335	0	
0.8873	-1.08902	1.28316	0	
0.8880	-4.74811	1.90335	0	
0.8887	-3.22349	1.60395	0	
0.8893	-1.08902	2.82295	0	
0.8900	1.6553	4.34135	0	
0.8907	4.70455	4.04195	0	
0.8913	4.39963	4.34135	0	
0.8920	4.39963	4.04195	0	
0.8927	10.803	2.20276	0	
0.8933	20.8873	1.60395	0	
0.8940	26.9858	1.28316	0	
0.8947	25.4612	-0.235246	0	
0.8953	24.2415	-0.235246	0	
0.8960	29.4252	-1.45425	0	
0.8967	29.4252	-1.45425	0	
0.8973	19.3627	1.28316	0	
0.8980	12.6326	0.384948	0	
0.8987	8.36365	-3.89225	0	
0.8993	-1.69887	-2.97265	0	
0.9000	-8.71213	1.60395	0	
0.9007	-12.6979	0.0641579	0	
0.9013	-22.4555	-3.89225	0	
0.9020	-28.554	-4.51244	0	
0.9027	-23.9801	-3.89225	0	
0.9033	-22.7604	-3.29344	0	
0.9040	-26.7245	-1.15484	0	
0.9047	-30.0786	0.0641579	0	
0.9053	-34.0427	-0.235246	0	
0.9060	-36.787	2.20276	0	
0.9067	-32.518	6.47995	0	
0.9073	-26.4195	4.64076	0	
0.9080	-19.7112	0.384948	0	
0.9087	-10.8466	1.90335	0	
0.9093	-4.74811	3.12235	0	
0.9100	-1.69887	-1.75365	0	
0.9107	0.740531	-3.29344	0	
0.9113	0.740531	-2.07444	0	
0.9120	1.04546	-6.33025	0	
0.9127	5.92425	-11.2276	0	
0.9133	9.27842	-10.0086	0	
0.9140	9.88827	-10.308	0	
0.9147	12.6326	-12.1259	0	
0.9153	14.4839	-9.38844	0	
0.9160	13.2424	-6.33025	0	
0.9167	14.179	-5.73144	0	
0.9173	14.7888	-3.89225	0	
0.9180	11.7178	-1.15484	0	
0.9187	7.7538	-0.235246	0	
0.9193	3.48485	-0.834053	0	
0.9200	-1.08902	-2.97265	0	
0.9207	-1.69887	-2.97265	0	
0.9213	-0.174243	0.684351	0	
0.9220	-1.08902	3.12235	0	
0.9227	-4.13826	4.04195	0	
0.9233	-7.18751	5.85976	0	
0.9240	-9.93183	5.85976	0	
0.9247	-10.5417	4.34135	0	
0.9253	-8.40721	4.64076	0	
0.9260	-5.66289	5.85976	0	
0.9267	-4.74811	5.26095	0	
0.9273	-2.30871	6.18055	0	
0.9280	-2.61364	7.99836	0	
0.9287	-5.35796	8.61855	0	
0.9293	-1.69887	7.69895	0	
0.9300	6.22917	6.18055	0	
0.9307	8.36365	3.12235	0	
0.9313	8.97349	-2.37384	0	
0.9320	13.5474	-6.33025	0	
0.9327	12.6326	-6.03085	0	
0.9333	8.05872	-5.73144	0	
0.9340	8.97349	-5.73144	0	
0.9347	9.58334	-3.59284	0	
0.9353	6.22917	-3.89225	0	
0.9360	1.96023	-5.73144	0	
0.9367	-3.83334	-3.89225	0	
0.9373	-8.40721	-1.45425	0	
0.9380	-6.57766	-1.75365	0	
0.9387	-4.44319	-0.235246	0	
0.9393	-4.13826	1.60395	0	
0.9400	-1.08902	1.60395	0	
0.9407	2.875	3.42176	0	
0.9413	5.3144	6.18055	0	
0.9420	10.1932	5.26095	0	
0.9427	16.0085	3.42176	0	
0.9433	18.7529	4.34135	0	
0.9440	20.2775	4.04195	0	
0.9447	21.8021	-0.235246	0	
0.9453	19.9726	-3.29344	0	
0.9460	12.3277	-1.15484	0	
0.9467	5.00948	0.983755	0	
0.9473	2.57008	-2.97265	0	
0.9480	0.740531	-6.65104	0	
0.9487	-4.74811	-5.11125	0	
0.9493	-8.71213	-2.37384	0	
0.9500	-13.3078	-0.834053	0	
0.9507	-19.4063	0.983755	0	
0.9513	-18.4915	2.50216	0	
0.9520	-13.0029	3.42176	0	
0.9527	-13.9176	3.42176	0	
0.9533	-16.9669	2.82295	0	
0.9540	-12.0663	2.50216	0	
0.9547	-4.74811	2.50216	0	
0.9553	-2.91856	1.90335	0	
0.9560	-4.13826	-0.235246	0	
0.9567	-1.69887	-2.97265	0	
0.9573	3.48485	-4.51244	0	
0.9580	4.39963	-3.29344	0	
0.9587	5.00948	-2.67325	0	
0.9593	10.803	-2.07444	0	
0.9600	12.3277	0.684351	0	
0.9607	2.57008	2.50216	0	
0.9613	-9.01706	0.384948	0	
0.9620	-12.6979	-1.75365	0	
0.9627	-10.5417	-1.45425	0	
0.9633	-7.79736	-0.834053	0	
0.9640	-10.2368	-0.235246	0	
0.9647	-19.4063	2.50216	0	
0.9653	-25.5048	4.96155	0	
0.9660	-21.5407	4.34135	0	
0.9667	-19.1013	1.28316	0	
0.9673	-23.9801	-2.37384	0	
0.9680	-27.6392	-3.59284	0	
0.9687	-23.3703	0.384948	0	
0.9693	-14.2226	4.04195	0	
0.9700	-2.61364	3.12235	0	
0.9707	7.44887	1.60395	0	
0.9713	12.6326	1.28316	0	
0.9720	17.2282	-2.07444	0	
0.9727	21.4972	-8.46885	0	
0.9733	23.6317	-12.746	0	
0.9740	22.412	-12.4466	0	
0.9747	17.8381	-9.68785	0	
0.9753	12.6326	-9.08904	0	
0.9760	12.9375	-11.8264	0	
0.9767	14.7888	-11.8264	0	
0.9773	9.58334	-6.95044	0	
0.9780	2.57008	-2.97265	0	
0.9787	1.6553	-1.15484	0	
0.9793	-0.174243	-0.235246	0	
0.9800	-6.88258	-0.235246	0	
0.9807	-10.5417	-1.45425	0	
0.9813	-9.6269	-1.15484	0	
0.9820	-9.6269	0.684351	0	
0.9827	-9.6269	2.50216	0	
0.9833	-5.66289	3.42176	0	
0.9840	0.435607	1.28316	0	
0.9847	3.48485	-1.15484	0	
0.9853	4.39963	-0.534649	0	
0.9860	8.97349	0.0641579	0	
0.9867	17.5332	-2.67325	0	
0.9873	24.2415	-6.03085	0	
0.9880	25.4612	-4.81185	0	
0.9887	21.8021	-2.07444	0	
0.9893	16.3135	-3.29344	0	
0.9900	15.0938	-5.11125	0	
0.9907	17.8381	-3.89225	0	
0.9913	17.2282	-2.07444	0	
0.9920	12.0227	-2.67325	0	
0.9927	5.92425	-3.59284	0	
0.9933	-0.174243	-2.97265	0	
0.9940	-3.83334	-0.834053	0	
0.9947	-4.13826	-0.534649	0	
0.9953	-6.27273	-1.15484	0	
0.9960	-11.1515	-0.534649	0	
0.9967	-11.1515	-0.534649	0	
0.9973	-9.93183	-2.07444	0	
0.9980	-10.8466	-0.834053	0	
0.9987	-8.71213	1.60395	0	
0.9993	-6.27273	0.684351	0	
1.0000	-10.2368	1.60395	0	
1.0007	-13.9176	5.85976	0	
1.0013	-12.6979	6.18055	0	
1.0020	-12.0663	3.12235	0	
1.0027	-11.4565	4.34135	0	
1.0033	-9.6269	6.77936	0	
1.0040	-10.8466	3.74255	0	
1.0047	-13.9176	0.384948	0	
1.0053	-13.0029	2.20276	0	
1.0060	-8.10228	4.34135	0	
1.0067	-0.784092	0.983755	0	
1.0073	5.61932	-0.534649	0	
1.0080	4.39963	2.82295	0	
1.0087	2.26515	4.96155	0	
1.0093	12.3277	1.90335	0	
1.0100	26.376	0.0641579	0	
1.0107	29.7301	0.384948	0	
1.0113	29.1203	-0.534649	0	
1.0120	30.0351	-0.534649	0	
1.0127	24.8514	1.60395	0	
1.0133	15.7036	1.60395	0	
1.0140	9.88827	-1.15484	0	
1.0147	5.00948	-2.07444	0	
1.0153	-1.08902	-2.07444	0	
1.0160	-2.91856	-3.89225	0	
1.0167	-5.66289	-4.19165	0	
1.0173	-11.7614	-2.97265	0	
1.0180	-17.2718	-2.97265	0	
1.0187	-21.5407	-1.75365	0	
1.0193	-22.4555	-0.534649	0	
1.0200	-17.5767	-0.534649	0	
1.0207	-13.9176	1.90335	0	
1.0213	-15.4423	5.85976	0	
1.0220	-13.0029	5.56035	0	
1.0227	-7.79736	1.90335	0	
1.0233	-6.88258	0.684351	0	
1.0240	-5.66289	3.12235	0	
1.0247	-2.00379	4.96155	0	
1.0253	-1.08902	3.74255	0	
1.0260	2.875	1.90335	0	
1.0267	6.5341	3.42176	0	
1.0273	0.130682	5.26095	0	
1.0280	-10.2368	4.34135	0	
1.0287	-14.5275	4.34135	0	
1.0293	-15.7472	6.18055	0	
1.0300	-15.7472	7.10014	0	
1.0307	-16.0521	7.39955	0	
1.0313	-18.4915	7.69895	0	
1.0320	-17.8816	7.99836	0	
1.0327	-10.8466	6.77936	0	
1.0333	-5.66289	2.20276	0	
1.0340	-2.91856	-1.75365	0	
1.0347	2.57008	-2.07444	0	
1.0353	6.22917	-2.67325	0	
1.0360	5.61932	-4.19165	0	
1.0367	5.00948	-3.59284	0	
1.0373	5.3144	-2.37384	0	
1.0380	1.96023	-2.97265	0	
1.0387	-2.61364	-2.97265	0	
1.0393	-2.91856	-3.89225	0	
1.0400	-1.69887	-4.51244	0	
1.0407	-1.69887	-3.29344	0	
1.0413	-0.479167	-3.29344	0	
1.0420	-0.174243	-3.59284	0	
1.0427	-2.61364	0.384948	0	
1.0433	-2.91856	4.04195	0	
1.0440	-1.39394	2.50216	0	
1.0447	-2.00379	0.0641579	0	
1.0453	3.48485	-0.235246	0	
1.0460	12.6326	0.684351	0	
1.0467	12.9375	1.28316	0	
1.0473	8.05872	-1.45425	0	
1.0480	7.7538	-4.81185	0	
1.0487	6.22917	-1.75365	0	
1.0493	2.57008	2.50216	0	
1.0500	2.26515	2.50216	0	
1.0507	2.26515	2.50216	0	
1.0513	2.57008	4.34135	0	
1.0520	4.0947	4.96155	0	
1.0527	1.6553	7.10014	0	
1.0533	-1.08902	7.39955	0	
1.0540	4.0947	3.42176	0	
1.0547	6.5341	3.74255	0	
1.0553	3.48485	8.61855	0	
1.0560	4.39963	7.99836	0	
1.0567	6.83902	5.26095	0	
1.0573	6.22917	4.34135	0	
1.0580	8.97349	0.983755	0	
1.0587	12.6326	-4.19165	0	
1.0593	9.88827	-8.16944	0	
1.0600	7.44887	-9.08904	0	
1.0607	8.36365	-5.73144	0	
1.0613	7.7538	-2.37384	0	
1.0620	5.3144	-3.89225	0	
1.0627	1.96023	-3.89225	0	
1.0633	-3.52841	-2.07444	0	
1.0640	-9.01706	-2.37384	0	
1.0647	-10.5417	-1.15484	0	
1.0653	-7.49243	1.60395	0	
1.0660	-3.83334	-1.15484	0	
1.0667	-5.66289	-4.81185	0	
1.0673	-8.71213	-2.97265	0	
1.0680	-5.96781	-1.15484	0	
1.0687	-2.30871	-2.07444	0	
1.0693	-2.30871	-2.07444	0	
1.0700	-1.39394	-2.37384	0	
1.0707	-1.08902	-1.75365	0	
1.0713	-5.35796	0.684351	0	
1.0720	-6.88258	0.0641579	0	
1.0727	-2.91856	-2.07444	0	
1.0733	1.6553	-2.07444	0	
1.0740	6.22917	-3.59284	0	
1.0747	12.6326	-5.73144	0	
1.0753	17.2282	-3.59284	0	
1.0760	16.6184	-1.15484	0	
1.0767	12.3277	-0.235246	0	
1.0773	8.97349	-0.235246	0	
1.0780	10.1932	-2.67325	0	
1.0787	15.0938	-5.73144	0	
1.0793	16.9233	-5.11125	0	
1.0800	11.7178	-4.81185	0	
1.0807	2.57008	-3.59284	0	
1.0813	-5.66289	0.983755	0	
1.0820	-10.2368	2.50216	0	
1.0827	-12.0663	-0.235246	0	
1.0833	-12.3712	-0.235246	0	
1.0840	-14.2226	1.28316	0	
1.0847	-16.662	0.384948	0	
1.0853	-16.662	0.983755	0	
1.0860	-16.357	3.12235	0	
1.0867	-14.8324	2.50216	0	
1.0873	-5.05304	0.684351	0	
1.0880	10.803	-2.07444	0	
1.0887	20.2775	-4.19165	0	
1.0893	17.2282	-3.29344	0	
1.0900	5.92425	0.983755	0	
1.0907	-5.35796	3.12235	0	
1.0913	-10.2368	3.74255	0	
1.0920	-11.1515	7.10014	0	
1.0927	-7.79736	7.10014	0	
1.0933	-0.784092	-0.235246	0	
1.0940	2.26515	-4.51244	0	
1.0947	-2.91856	-2.67325	0	
1.0953	-9.32198	-2.97265	0	
1.0960	-14.8324	-5.73144	0	
1.0967	-21.2358	-3.89225	0	
1.0973	-25.5048	-1.75365	0	
1.0980	-23.3703	-0.834053	0	
1.0987	-17.5767	0.0641579	0	
1.0993	-12.6979	-0.235246	0	
1.1000	-11.1515	-0.834053	0	
1.1007	-11.1515	1.28316	0	
1.1013	-10.2368	2.82295	0	
1.1020	-10.8466	1.60395	0	
1.1027	-13.6127	0.684351	0	
1.1033	-14.5275	0.684351	0	
1.1040	-12.0663	3.12235	0	
1.1047	-10.2368	6.18055	0	
1.1053	-12.3712	4.96155	0	
1.1060	-13.3078	2.82295	0	
1.1067	-12.0663	5.26095	0	
1.1073	-12.3712	7.10014	0	
1.1080	-11.1515	5.26095	0	
1.1087	-2.30871	3.12235	0	
1.1093	8.05872	0.384948	0	
1.1100	13.2424	-4.81185	0	
1.1107	17.5332	-8.46885	0	
1.1113	23.6317	-10.6074	0	
1.1120	25.7661	-11.2276	0	
1.1127	24.5464	-8.46885	0	
1.1133	20.5824	-7.54925	0	
1.1140	15.7036	-10.0086	0	
1.1147	13.5474	-8.78964	0	
1.1153	13.5474	-5.43204	0	
1.1160	12.0227	-6.03085	0	
1.1167	12.0227	-7.24985	0	
1.1173	17.2282	-4.19165	0	
1.1180	20.5824	-4.81185	0	
1.1187	18.143	-8.78964	0	
1.1193	13.8523	-7.54925	0	
1.1200	10.803	-3.29344	0	
1.1207	6.5341	-2.07444	0	
1.1213	1.35038	-1.75365	0	
1.1220	-1.08902	-0.235246	0	
1.1227	0.435607	0.684351	0	
1.1233	1.96023	1.60395	0	
1.1240	0.130682	2.82295	0	
1.1247	-2.00379	4.34135	0	
1.1253	1.35038	6.18055	0	
1.1260	8.05872	6.18055	0	
1.1267	11.108	4.34135	0	
1.1273	8.36365	4.34135	0	
1.1280	1.96023	3.42176	0	
1.1287	0.740531	-2.97265	0	
1.1293	8.05872	-6.33025	0	
1.1300	12.6326	-3.89225	0	
1.1307	9.27842	-3.89225	0	
1.1313	8.05872	-5.73144	0	
1.1320	10.1932	-2.07444	0	
1.1327	5.61932	2.50216	0	
1.1333	-8.10228	3.42176	0	
1.1340	-17.5767	3.74255	0	
1.1347	-18.7964	4.34135	0	
1.1353	-16.662	4.96155	0	
1.1360	-13.9176	4.34135	0	
1.1367	-11.4565	1.28316	0	
1.1373	-12.3712	0.684351	0	
1.1380	-13.0029	3.12235	0	
1.1387	-9.01706	0.684351	0	
1.1393	-5.05304	-2.97265	0	
1.1400	-6.57766	-1.15484	0	
1.1407	-8.40721	1.90335	0	
1.1413	-7.49243	2.82295	0	
1.1420	-8.40721	3.42176	0	
1.1427	-10.2368	0.684351	0	
1.1433	-5.05304	-5.43204	0	
1.1440	3.48485	-7.54925	0	
1.1447	3.78978	-7.54925	0	
1.1453	-0.174243	-8.46885	0	
1.1460	-2.61364	-8.16944	0	
1.1467	-5.35796	-5.73144	0	
1.1473	-5.66289	-2.97265	0	
1.1480	-2.00379	-1.15484	0	
1.1487	-4.13826	-1.15484	0	
1.1493	-9.01706	-1.75365	0	
1.1500	-6.57766	-0.834053	0	
1.1507	-3.22349	-0.235246	0	
1.1513	-1.08902	0.0641579	0	
1.1520	6.83902	0.0641579	0	
1.1527	13.2424	-1.45425	0	
1.1533	12.3277	-2.67325	0	
1.1540	11.108	-1.15484	0	
1.1547	9.88827	0.983755	0	
1.1553	4.0947	2.50216	0	
1.1560	-0.174243	5.56035	0	
1.1567	-1.08902	7.10014	0	
1.1573	-1.08902	4.96155	0	
1.1580	-0.174243	2.82295	0	
1.1587	-0.174243	3.74255	0	
1.1593	-4.13826	3.42176	0	
1.1600	-8.10228	0.983755	0	
1.1607	-9.6269	1.28316	0	
1.1613	-14.5275	4.34135	0	
1.1620	-16.0521	4.34135	0	
1.1627	-8.40721	2.50216	0	
1.1633	-0.784092	3.12235	0	
1.1640	0.740531	0.983755	0	
1.1647	3.48485	-3.89225	0	
1.1653	8.05872	-4.81185	0	
1.1660	9.58334	-3.89225	0	
1.1667	10.1932	-6.33025	0	
1.1673	11.7178	-7.54925	0	
1.1680	8.97349	-6.33025	0	
1.1687	4.0947	-5.43204	0	
1.1693	3.17993	-3.89225	0	
1.1700	5.92425	-1.75365	0	
1.1707	7.14395	-1.45425	0	
1.1713	6.83902	-1.15484	0	
1.1720	7.14395	0.684351	0	
1.1727	4.70455	1.60395	0	
1.1733	-1.69887	0.384948	0	
1.1740	-4.13826	0.384948	0	
1.1747	-2.30871	1.28316	0	
1.1753	-5.05304	0.684351	0	
1.1760	-13.3078	0.684351	0	
1.1767	-18.4915	1.90335	0	
1.1773	-17.5767	0.384948	0	
1.1780	-14.5275	-3.29344	0	
1.1787	-12.3712	-2.67325	0	
1.1793	-11.1515	0.0641579	0	
1.1800	-7.49243	0.684351	0	
1.1807	-4.74811	0.684351	0	
1.1813	-7.49243	3.42176	0	
1.1820	-13.3078	6.47995	0	
1.1827	-15.7472	7.10014	0	
1.1833	-14.8324	4.34135	0	
1.1840	-12.6979	4.04195	0	
1.1847	-10.8466	7.10014	0	
1.1853	-9.01706	7.10014	0	
1.1860	-5.96781	4.34135	0	
1.1867	-0.784092	3.12235	0	
1.1873	6.5341	0.983755	0	
1.1880	12.3277	-0.834053	0	
1.1887	13.5474	-0.834053	0	
1.1893	12.0227	-2.37384	0	
1.1900	12.0227	-1.15484	0	
1.1907	9.88827	2.82295	0	
1.1913	1.6553	1.60395	0	
1.1920	-2.91856	1.60395	0	
1.1927	0.740531	5.26095	0	
1.1933	4.39963	4.04195	0	
1.1940	4.39963	1.60395	0	
1.1947	6.22917	3.42176	0	
1.1953	8.36365	0.384948	0	
1.1960	8.05872	-5.73144	0	
1.1967	7.14395	-5.73144	0	
1.1973	4.70455	-3.89225	0	
1.1980	0.435607	-4.51244	0	
1.1987	-0.479167	-2.97265	0	
1.1993	1.6553	-1.45425	0	
1.2000	-0.174243	-1.75365	0	
1.2007	-2.91856	-0.834053	0	
1.2013	-0.479167	-2.07444	0	
1.2020	2.26515	-4.81185	0	
1.2027	0.130682	-5.11125	0	
1.2033	0.740531	-6.03085	0	
1.2040	6.22917	-6.03085	0	
1.2047	6.5341	-1.75365	0	
1.2053	0.740531	1.90335	0	
1.2060	-3.22349	0.384948	0	
1.2067	-2.91856	-1.15484	0	
1.2073	-2.00379	-0.235246	0	
1.2080	-2.00379	2.50216	0	
1.2087	-2.00379	5.26095	0	
1.2093	-0.174243	7.10014	0	
1.2100	0.740531	5.56035	0	
1.2107	-1.08902	3.74255	0	
1.2113	-2.30871	1.90335	0	
1.2120	1.96023	0.684351	0	
1.2127	6.22917	-0.235246	0	
1.2133	6.22917	-1.15484	0	
1.2140	4.70455	-0.534649	0	
1.2147	4.39963	-0.534649	0	
1.2153	8.36365	-5.73144	0	
1.2160	12.9375	-10.6074	0	
1.2167	13.2424	-9.38844	0	
1.2173	11.7178	-7.24985	0	
1.2180	12.0227	-7.54925	0	
1.2187	9.88827	-5.73144	0	
1.2193	3.17993	-1.45425	0	
1.2200	-5.05304	0.983755	0	
1.2207	-10.2368	3.12235	0	
1.2213	-9.01706	6.18055	0	
1.2220	-5.66289	7.10014	0	
1.2227	-5.96781	6.18055	0	
1.2233	-6.57766	6.18055	0	
1.2240	-3.22349	6.77936	0	
1.2247	1.6553	6.18055	0	
1.2253	6.83902	6.18055	0	
1.2260	8.97349	5.56035	0	
1.2267	8.97349	3.12235	0	
1.2273	10.803	0.384948	0	
1.2280	10.803	-1.15484	0	
1.2287	5.92425	-2.97265	0	
1.2293	1.35038	-1.75365	0	
1.2300	0.130682	2.50216	0	
1.2307	0.435607	3.12235	0	
1.2313	4.0947	-1.15484	0	
1.2320	4.39963	-2.97265	0	
1.2327	-7.49243	-1.45425	0	
1.2333	-18.4915	-1.45425	0	
1.2340	-17.5767	-1.75365	0	
1.2347	-15.7472	-1.15484	0	
1.2353	-13.3078	-1.15484	0	
1.2360	-7.49243	0.384948	0	
1.2367	-3.52841	0.983755	0	
1.2373	-2.00379	-1.15484	0	
1.2380	1.6553	-3.29344	0	
1.2387	-0.174243	-1.15484	0	
1.2393	-6.57766	1.60395	0	
1.2400	-7.49243	3.42176	0	
1.2407	-3.83334	4.34135	0	
1.2413	-1.69887	3.42176	0	
1.2420	1.35038	-1.15484	0	
1.2427	4.39963	-4.51244	0	
1.2433	3.48485	-2.97265	0	
1.2440	-1.08902	-2.97265	0	
1.2447	-5.66289	-4.81185	0	
1.2453	-7.49243	-2.07444	0	
1.2460	-6.88258	1.60395	0	
1.2467	-6.57766	1.90335	0	
1.2473	-8.40721	0.384948	0	
1.2480	-7.49243	-1.15484	0	
1.2487	-1.39394	-1.75365	0	
1.2493	3.48485	0.684351	0	
1.2500	2.875	2.50216	0	
1.2507	1.96023	0.384948	0	
1.2513	3.78978	-0.235246	0	
1.2520	5.92425	1.90335	0	
1.2527	5.61932	3.12235	0	
1.2533	1.96023	2.82295	0	
1.2540	-1.08902	0.684351	0	
1.2547	-1.39394	-1.75365	0	
1.2553	-4.74811	-0.235246	0	
1.2560	-12.6979	1.60395	0	
1.2567	-16.357	1.28316	0	
1.2573	-13.9176	4.34135	0	
1.2580	-13.0029	5.26095	0	
1.2587	-10.5417	-1.45425	0	
1.2593	-7.49243	-7.54925	0	
1.2600	-7.79736	-9.08904	0	
1.2607	-7.18751	-12.4466	0	
1.2613	-4.74811	-13.3662	0	
1.2620	-6.88258	-7.54925	0	
1.2627	-9.32198	-3.59284	0	
1.2633	-6.88258	-2.97265	0	
1.2640	-5.66289	-0.235246	0	
1.2647	-6.88258	2.50216	0	
1.2653	-4.44319	3.42176	0	
1.2660	0.740531	3.74255	0	
1.2667	2.875	5.26095	0	
1.2673	2.57008	5.26095	0	
1.2680	2.57008	4.04195	0	
1.2687	5.92425	4.34135	0	
1.2693	10.1932	4.34135	0	
1.2700	12.9375	0.0641579	0	
1.2707	12.0227	-2.67325	0	
1.2713	9.58334	-2.37384	0	
1.2720	11.4129	-6.65104	0	
1.2727	17.2282	-12.1259	0	
1.2733	19.9726	-11.527	0	
1.2740	19.0578	-11.2276	0	
1.2747	20.8873	-12.746	0	
1.2753	22.412	-10.308	0	
1.2760	15.3987	-7.24985	0	
1.2767	6.5341	-4.51244	0	
1.2773	2.26515	0.983755	0	
1.2780	-0.784092	2.50216	0	
1.2787	-3.83334	-0.235246	0	
1.2793	-3.83334	2.50216	0	
1.2800	-2.30871	6.47995	0	
1.2807	-2.30871	6.18055	0	
1.2813	-3.83334	7.69895	0	
1.2820	-7.49243	9.83755	0	
1.2827	-11.1515	6.18055	0	
1.2833	-10.8466	2.50216	0	
1.2840	-8.71213	2.50216	0	
1.2847	-6.57766	0.684351	0	
1.2853	-2.91856	-1.15484	0	
1.2860	-2.00379	-0.235246	0	
1.2867	-1.69887	-0.534649	0	
1.2873	3.48485	-3.29344	0	
1.2880	8.36365	-3.89225	0	
1.2887	8.05872	-2.97265	0	
1.2893	8.97349	-2.37384	0	
1.2900	11.4129	-2.07444	0	
1.2907	10.803	-2.07444	0	
1.2913	10.803	-3.29344	0	
1.2920	12.3277	-2.07444	0	
1.2927	10.803	0.0641579	0	
1.2933	8.05872	-1.15484	0	
1.2940	3.48485	-1.15484	0	
1.2947	-5.05304	0.0641579	0	
1.2953	-9.6269	-1.15484	0	
1.2960	-8.10228	-1.45425	0	
1.2967	-6.27273	-0.534649	0	
1.2973	-3.83334	-2.07444	0	
1.2980	-2.61364	-2.07444	0	
1.2987	-5.96781	0.684351	0	
1.2993	-6.27273	0.0641579	0	
1.3000	-3.83334	-0.834053	0	
1.3007	-6.57766	2.50216	0	
1.3013	-7.49243	4.34135	0	
1.3020	0.435607	3.42176	0	
1.3027	4.39963	3.42176	0	
1.3033	3.17993	1.60395	0	
1.3040	4.39963	0.384948	0	
1.3047	5.00948	0.684351	0	
1.3053	2.26515	-0.534649	0	
1.3060	-0.784092	-0.834053	0	
1.3067	-6.27273	0.684351	0	
1.3073	-10.8466	0.684351	0	
1.3080	-8.10228	0.0641579	0	
1.3087	-4.74811	0.0641579	0	
1.3093	-7.49243	-0.235246	0	
1.3100	-12.6979	1.60395	0	
1.3107	-16.662	3.42176	0	
1.3113	-16.357	0.684351	0	
1.3120	-9.32198	-1.75365	0	
1.3127	1.35038	-1.15484	0	
1.3133	8.97349	-2.97265	0	
1.3140	11.108	-5.11125	0	
1.3147	10.4981	-4.81185	0	
1.3153	9.27842	-3.89225	0	
1.3160	8.97349	-2.67325	0	
1.3167	8.05872	-1.45425	0	
1.3173	6.5341	-2.97265	0	
1.3180	5.3144	-3.89225	0	
1.3187	1.35038	-1.45425	0	
1.3193	-3.83334	0.684351	0	
1.3200	-6.57766	0.684351	0	
1.3207	-5.66289	1.90335	0	
1.3213	-5.35796	3.42176	0	
1.3220	-6.88258	3.42176	0	
1.3227	-7.18751	3.12235	0	
1.3233	-6.27273	2.20276	0	
1.3240	-5.66289	3.42176	0	
1.3247	-7.49243	7.39955	0	
1.3253	-10.2368	9.83755	0	
1.3260	-11.4565	9.21736	0	
1.3267	-10.2368	8.91795	0	
1.3273	-10.2368	7.39955	0	
1.3280	-10.5417	6.18055	0	
1.3287	-8.10228	4.96155	0	
1.3293	-3.83334	0.983755	0	
1.3300	-0.479167	-4.19165	0	
1.3307	1.96023	-5.73144	0	
1.3313	2.57008	-3.89225	0	
1.3320	4.39963	-1.75365	0	
1.3327	8.97349	-0.235246	0	
1.3333	9.88827	-0.235246	0	
1.3340	9.27842	-0.534649	0	
1.3347	12.0227	-0.235246	0	
1.3353	10.803	-2.67325	0	
1.3360	3.17993	-4.81185	0	
1.3367	-0.174243	-3.89225	0	
1.3373	1.96023	-2.07444	0	
1.3380	2.57008	-3.29344	0	
1.3387	3.17993	-6.03085	0	
1.3393	2.26515	-6.65104	0	
1.3400	0.130682	-2.97265	0	
1.3407	1.6553	0.384948	0	
1.3413	3.48485	-0.834053	0	
1.3420	1.96023	-0.534649	0	
1.3427	4.0947	1.28316	0	
1.3433	7.14395	-0.834053	0	
1.3440	2.57008	-0.834053	0	
1.3447	-2.61364	4.34135	0	
1.3453	-4.44319	5.26095	0	
1.3460	-8.10228	4.04195	0	
1.3467	-11.7614	5.85976	0	
1.3473	-12.3712	3.42176	0	
1.3480	-13.6127	-2.07444	0	
1.3487	-13.6127	-1.15484	0	
1.3493	-9.32198	1.60395	0	
1.3500	-3.83334	0.684351	0	
1.3507	4.39963	0.983755	0	
1.3513	13.5474	2.20276	0	
1.3520	19.3627	1.90335	0	
1.3527	20.8873	3.42176	0	
1.3533	21.4972	4.34135	0	
1.3540	19.3627	2.82295	0	
1.3547	18.143	1.28316	0	
1.3553	21.4972	0.684351	0	
1.3560	21.8021	0.384948	0	
1.3567	15.3987	0.384948	0	
1.3573	9.88827	-0.834053	0	
1.3580	9.27842	-1.15484	0	
1.3587	7.14395	1.28316	0	
1.3593	-1.08902	1.90335	0	
1.3600	-8.40721	-0.235246	0	
1.3607	-9.93183	-0.534649	0	
1.3613	-6.57766	1.28316	0	
1.3620	-8.10228	1.60395	0	
1.3627	-18.4915	2.20276	0	
1.3633	-27.9442	4.04195	0	
1.3640	-27.6392	4.04195	0	
1.3647	-24.2851	2.50216	0	
1.3653	-23.9801	1.60395	0	
1.3660	-22.4555	2.20276	0	
1.3667	-18.4915	3.12235	0	
1.3673	-14.2226	1.60395	0	
1.3680	-10.8466	-0.534649	0	
1.3687	-10.2368	-1.15484	0	
1.3693	-13.9176	-0.534649	0	
1.3700	-14.8324	-1.15484	0	
1.3707	-9.01706	-4.19165	0	
1.3713	-0.479167	-7.24985	0	
1.3720	6.22917	-7.87004	0	
1.3727	10.803	-8.46885	0	
1.3733	14.179	-9.38844	0	
1.3740	11.4129	-8.46885	0	
1.3747	4.39963	-8.16944	0	
1.3753	6.22917	-11.2276	0	
1.3760	17.2282	-11.527	0	
1.3767	23.6317	-7.87004	0	
1.3773	21.4972	-6.65104	0	
1.3780	16.9233	-7.54925	0	
1.3787	11.7178	-6.95044	0	
1.3793	11.4129	-6.33025	0	
1.3800	14.179	-5.73144	0	
1.3807	10.4981	-2.97265	0	
1.3813	3.78978	-1.15484	0	
1.3820	-0.784092	-2.37384	0	
1.3827	-6.27273	-1.45425	0	
1.3833	-12.0663	1.60395	0	
1.3840	-19.4063	3.12235	0	
1.3847	-31.9082	3.74255	0	
1.3853	-36.1771	5.26095	0	
1.3860	-26.7245	6.18055	0	
1.3867	-21.2358	7.39955	0	
1.3873	-23.9801	8.91795	0	
1.3880	-20.0161	7.39955	0	
1.3887	-13.9176	5.56035	0	
1.3893	-10.5417	6.47995	0	
1.3900	-1.39394	4.34135	0	
1.3907	10.4981	-0.235246	0	
1.3913	15.7036	-2.07444	0	
1.3920	18.143	-3.59284	0	
1.3927	23.6317	-6.03085	0	
1.3933	24.8514	-6.65104	0	
1.3940	19.6676	-7.54925	0	
1.3947	17.2282	-8.16944	0	
1.3953	18.143	-5.43204	0	
1.3960	14.4839	-3.89225	0	
1.3967	8.66857	-5.73144	0	
1.3973	7.7538	-5.73144	0	
1.3980	6.83902	-4.81185	0	
1.3987	2.57008	-4.51244	0	
1.3993	1.6553	-1.75365	0	
1.4000	3.78978	0.684351	0	
1.4007	1.35038	-0.235246	0	
1.4013	-2.61364	0.384948	0	
1.4020	-2.30871	2.50216	0	
1.4027	-2.30871	3.12235	0	
1.4033	-4.74811	2.50216	0	
1.4040	-5.05304	1.60395	0	
1.4047	-4.13826	-0.235246	0	
1.4053	-5.05304	-0.534649	0	
1.4060	-5.05304	1.60395	0	
1.4067	-2.91856	3.74255	0	
1.4073	-2.61364	4.04195	0	
1.4080	-2.91856	1.90335	0	
1.4087	-1.39394	0.0641579	0	
1.4093	-0.174243	2.50216	0	
1.4100	-2.30871	4.96155	0	
1.4107	-4.74811	3.74255	0	
1.4113	-4.44319	2.50216	0	
1.4120	-4.13826	4.34135	0	
1.4127	-4.13826	4.96155	0	
1.4133	-0.784092	3.42176	0	
1.4140	2.57008	3.42176	0	
1.4147	2.57008	3.74255	0	
1.4153	2.57008	3.42176	0	
1.4160	4.0947	2.20276	0	
1.4167	3.17993	-0.235246	0	
1.4173	2.57008	-1.45425	0	
1.4180	6.5341	-1.15484	0	
1.4187	8.97349	-2.67325	0	
1.4193	6.22917	-5.11125	0	
1.4200	0.740531	-5.43204	0	
1.4207	-2.00379	-4.51244	0	
1.4213	-3.83334	-2.97265	0	
1.4220	-9.93183	-0.235246	0	
1.4227	-16.9669	0.684351	0	
1.4233	-15.7472	1.60395	0	
1.4240	-11.1515	3.42176	0	
1.4247	-9.6269	3.12235	0	
1.4253	-6.57766	2.50216	0	
1.4260	-2.91856	4.34135	0	
1.4267	-3.83334	6.77936	0	
1.4273	-4.74811	7.69895	0	
1.4280	-0.174243	6.18055	0	
1.4287	4.39963	2.50216	0	
1.4293	5.3144	1.28316	0	
1.4300	4.70455	1.90335	0	
1.4307	5.61932	1.28316	0	
1.4313	8.05872	2.20276	0	
1.4320	9.27842	3.74255	0	
1.4327	6.22917	1.60395	0	
1.4333	2.26515	-2.67325	0	
1.4340	2.26515	-5.43204	0	
1.4347	5.00948	-5.11125	0	
1.4353	7.14395	-3.29344	0	
1.4360	8.66857	-3.89225	0	
1.4367	8.97349	-4.51244	0	
1.4373	7.14395	-0.235246	0	
1.4380	2.57008	3.12235	0	
1.4387	-1.69887	1.28316	0	
1.4393	-6.88258	1.90335	0	
1.4400	-16.357	5.26095	0	
1.4407	-23.9801	5.85976	0	
1.4413	-26.4195	6.77936	0	
1.4420	-27.9442	7.69895	0	
1.4427	-29.7737	5.56035	0	
1.4433	-26.7245	3.74255	0	
1.4440	-21.2358	4.96155	0	
1.4447	-19.1013	4.96155	0	
1.4453	-12.0663	1.90335	0	
1.4460	5.61932	0.384948	0	
1.4467	22.7169	0.983755	0	
1.4473	28.8154	2.82295	0	
1.4480	28.2055	4.04195	0	
1.4487	27.9006	1.90335	0	
1.4493	28.2055	-2.97265	0	
1.4500	27.2907	-6.95044	0	
1.4507	26.376	-9.38844	0	
1.4513	24.8514	-12.1259	0	
1.4520	19.3627	-13.965	0	
1.4527	8.97349	-13.3662	0	
1.4533	-3.22349	-10.9068	0	
1.4540	-16.0521	-6.95044	0	
1.4547	-25.5048	-2.67325	0	
1.4553	-25.8097	-1.75365	0	
1.4560	-19.4063	-2.67325	0	
1.4567	-13.9176	-2.97265	0	
1.4573	-7.79736	-4.81185	0	
1.4580	-1.69887	-6.03085	0	
1.4587	-2.00379	-4.81185	0	
1.4593	-4.44319	-5.43204	0	
1.4600	-1.08902	-5.73144	0	
1.4607	0.740531	-4.51244	0	
1.4613	-1.39394	-4.81185	0	
1.4620	-4.44319	-5.43204	0	
1.4627	-7.18751	-3.59284	0	
1.4633	-7.79736	-4.81185	0	
1.4640	-5.66289	-8.16944	0	
1.4647	-4.74811	-6.33025	0	
1.4653	-2.91856	-4.81185	0	
1.4660	2.57008	-6.65104	0	
1.4667	4.39963	-4.19165	0	
1.4673	0.740531	0.384948	0	
1.4680	-1.69887	-0.834053	0	
1.4687	0.130682	-3.59284	0	
1.4693	1.35038	-2.37384	0	
1.4700	-0.174243	0.684351	0	
1.4707	-3.52841	2.50216	0	
1.4713	-3.83334	3.42176	0	
1.4720	-1.39394	3.42176	0	
1.4727	0.130682	2.82295	0	
1.4733	0.435607	2.50216	0	
1.4740	1.6553	3.42176	0	
1.4747	2.57008	2.82295	0	
1.4753	1.35038	1.28316	0	
1.4760	-0.479167	3.42176	0	
1.4767	-2.30871	4.96155	0	
1.4773	-3.83334	4.34135	0	
1.4780	-2.61364	5.26095	0	
1.4787	1.35038	5.26095	0	
1.4793	3.48485	2.50216	0	
1.4800	5.3144	4.34135	0	
1.4807	9.27842	6.18055	0	
1.4813	9.58334	1.28316	0	
1.4820	4.39963	-1.45425	0	
1.4827	-0.174243	1.60395	0	
1.4833	-3.83334	1.60395	0	
1.4840	-8.40721	1.60395	0	
1.4847	-8.71213	5.26095	0	
1.4853	-7.49243	6.18055	0	
1.4860	-9.6269	4.34135	0	
1.4867	-11.1515	5.26095	0	
1.4873	-9.6269	5.85976	0	
1.4880	-8.40721	5.26095	0	
1.4887	-4.74811	5.26095	0	
1.4893	0.435607	3.12235	0	
1.4900	1.6553	-0.534649	0	
1.4907	3.48485	-0.834053	0	
1.4913	8.05872	0.684351	0	
1.4920	10.803	-0.834053	0	
1.4927	12.0227	-3.89225	0	
1.4933	13.5474	-5.73144	0	
1.4940	13.5474	-4.81185	0	
1.4947	12.9375	-4.81185	0	
1.4953	12.6326	-7.54925	0	
1.4960	10.4981	-8.78964	0	
1.4967	10.803	-6.65104	0	
1.4973	12.0227	-5.11125	0	
1.4980	3.48485	-2.37384	0	
1.4987	-9.93183	2.20276	0	
1.4993	-15.1373	3.42176	0	
1.5000	-11.7614	0.983755	0	
1.5007	-2.00379	0.684351	0	
1.5013	11.108	3.12235	0	
1.5020	19.0578	4.34135	0	
1.5027	19.0578	2.82295	0	
1.5033	17.8381	0.684351	0	
1.5040	15.0938	0.0641579	0	
1.5047	11.4129	0.983755	0	
1.5053	8.97349	0.684351	0	
1.5060	4.39963	-0.235246	0	
1.5067	0.740531	1.28316	0	
1.5073	-0.174243	1.28316	0	
1.5080	-6.27273	0.684351	0	
1.5087	-17.2718	5.26095	0	
1.5093	-23.9801	8.91795	0	
1.5100	-24.8949	5.26095	0	
1.5107	-21.8457	2.50216	0	
1.5113	-16.357	4.64076	0	
1.5120	-14.5275	2.50216	0	
1.5127	-14.5275	-2.97265	0	
1.5133	-10.5417	-3.59284	0	
1.5140	-7.79736	-2.07444	0	
1.5147	-10.8466	-2.07444	0	
1.5153	-13.0029	-1.45425	0	
1.5160	-9.93183	-0.834053	0	
1.5167	-5.66289	-1.15484	0	
1.5173	-2.91856	-0.534649	0	
1.5180	-1.08902	-0.834053	0	
1.5187	1.6553	-3.29344	0	
1.5193	5.61932	-5.11125	0	
1.5200	8.66857	-6.65104	0	
1.5207	8.66857	-6.65104	0	
1.5213	6.83902	-5.73144	0	
1.5220	3.78978	-5.11125	0	
1.5227	1.35038	-5.43204	0	
1.5233	1.96023	-3.59284	0	
1.5240	5.00948	-2.07444	0	
1.5247	5.92425	-2.07444	0	
1.5253	5.92425	-0.534649	0	
1.5260	6.83902	0.684351	0	
1.5267	7.14395	-1.15484	0	
1.5273	5.3144	-1.75365	0	
1.5280	4.39963	-0.235246	0	
1.5287	5.61932	0.0641579	0	
1.5293	6.83902	0.983755	0	
1.5300	7.44887	1.90335	0	
1.5307	6.22917	0.983755	0	
1.5313	4.0947	-0.834053	0	
1.5320	2.57008	-1.45425	0	
1.5327	-0.174243	-0.534649	0	
1.5333	-4.74811	0.684351	0	
1.5340	-8.40721	-1.15484	0	
1.5347	-9.32198	-5.11125	0	
1.5353	-10.2368	-5.73144	0	
1.5360	-10.2368	-3.89225	0	
1.5367	-8.10228	-5.73144	0	
1.5373	-2.30871	-9.38844	0	
1.5380	1.96023	-11.2276	0	
1.5387	-0.784092	-9.08904	0	
1.5393	-6.57766	-5.11125	0	
1.5400	-7.18751	-3.89225	0	
1.5407	-5.35796	-4.81185	0	
1.5413	-5.35796	-3.89225	0	
1.5420	-4.13826	-3.29344	0	
1.5427	-3.83334	-2.37384	0	
1.5433	-7.49243	0.983755	0	
1.5440	-8.71213	1.60395	0	
1.5447	-10.8466	-0.235246	0	
1.5453	-18.1866	2.50216	0	
1.5460	-19.4063	7.10014	0	
1.5467	-14.2226	7.69895	0	
1.5473	-16.662	7.10014	0	
1.5480	-20.626	7.99836	0	
1.5487	-16.357	7.69895	0	
1.5493	-14.8324	7.99836	0	
1.5500	-17.5767	8.91795	0	
1.5507	-14.2226	6.18055	0	
1.5513	-7.79736	1.28316	0	
1.5520	-5.66289	0.684351	0	
1.5527	-2.91856	2.50216	0	
1.5533	2.57008	0.384948	0	
1.5540	10.803	-3.59284	0	
1.5547	19.0578	-5.43204	0	
1.5553	24.5464	-9.68785	0	
1.5560	29.7301	-13.6656	0	
1.5567	32.4745	-9.08904	0	
1.5573	27.2907	-2.97265	0	
1.5580	21.8021	-2.97265	0	
1.5587	22.7169	-1.75365	0	
1.5593	22.412	1.90335	0	
1.5600	18.4479	1.60395	0	
1.5607	14.7888	0.684351	0	
1.5613	11.108	1.28316	0	
1.5620	10.803	-1.15484	0	
1.5627	16.3135	-3.29344	0	
1.5633	19.6676	-1.75365	0	
1.5640	16.3135	-0.235246	0	
1.5647	13.5474	-2.07444	0	
1.5653	12.3277	-3.89225	0	
1.5660	7.44887	-1.15484	0	
1.5667	2.57008	3.42176	0	
1.5673	3.48485	3.42176	0	
1.5680	4.39963	0.684351	0	
1.5687	-2.00379	1.90335	0	
1.5693	-8.40721	7.10014	0	
1.5700	-9.93183	10.7571	0	
1.5707	-14.2226	9.83755	0	
1.5713	-20.321	4.34135	0	
1.5720	-16.357	2.50216	0	
1.5727	-5.96781	5.26095	0	
1.5733	-3.83334	5.85976	0	
1.5740	-8.40721	2.50216	0	
1.5747	-10.8466	0.684351	0	
1.5753	-8.40721	1.28316	0	
1.5760	-2.00379	-0.235246	0	
1.5767	3.48485	-3.29344	0	
1.5773	2.26515	-2.67325	0	
1.5780	-2.61364	-0.534649	0	
1.5787	-5.96781	-2.97265	0	
1.5793	-8.40721	-5.73144	0	
1.5800	-8.71213	-3.59284	0	
1.5807	-5.96781	-2.07444	0	
1.5813	-2.91856	-5.43204	0	
1.5820	1.04546	-6.03085	0	
1.5827	5.00948	-2.07444	0	
1.5833	5.3144	-1.15484	0	
1.5840	4.0947	-2.97265	0	
1.5847	3.17993	-0.534649	0	
1.5853	-1.08902	1.60395	0	
1.5860	-7.79736	-1.15484	0	
1.5867	-11.1515	-1.45425	0	
1.5873	-10.8466	2.50216	0	
1.5880	-10.2368	2.20276	0	
1.5887	-8.40721	-1.15484	0	
1.5893	-8.71213	1.60395	0	
1.5900	-13.0029	5.26095	0	
1.5907	-14.8324	2.82295	0	
1.5913	-10.2368	0.684351	0	
1.5920	-4.13826	2.20276	0	
1.5927	-3.22349	2.50216	0	
1.5933	-6.57766	1.60395	0	
1.5940	-8.10228	3.74255	0	
1.5947	-6.57766	7.99836	0	
1.5953	-9.01706	7.99836	0	
1.5960	-14.8324	4.96155	0	
1.5967	-15.4423	5.56035	0	
1.5973	-8.71213	7.69895	0	
1.5980	-3.22349	6.18055	0	
1.5987	-0.479167	5.26095	0	
1.5993	0.740531	6.47995	0	
1.6000	-1.39394	9.21736	0	
1.6007	-2.91856	10.137	0	
1.6013	2.26515	5.85976	0	
1.6020	9.27842	-1.15484	0	
1.6027	10.803	-2.37384	0	
1.6033	7.44887	-2.37384	0	
1.6040	4.0947	-5.11125	0	
1.6047	4.70455	-5.43204	0	
1.6053	9.27842	-3.89225	0	
1.6060	15.0938	-6.95044	0	
1.6067	14.4839	-8.16944	0	
1.6073	6.5341	-4.81185	0	
1.6080	1.35038	-3.59284	0	
1.6087	2.875	-3.89225	0	
1.6093	3.48485	-1.45425	0	
1.6100	1.35038	-0.534649	0	
1.6107	2.57008	-3.89225	0	
1.6113	4.0947	-5.11125	0	
1.6120	4.0947	-2.67325	0	
1.6127	7.44887	-4.19165	0	
1.6133	11.108	-8.46885	0	
1.6140	11.7178	-8.46885	0	
1.6147	11.108	-7.24985	0	
1.6153	8.97349	-8.46885	0	
1.6160	5.61932	-7.24985	0	
1.6167	6.22917	-4.81185	0	
1.6173	5.61932	-6.33025	0	
1.6180	-0.174243	-6.95044	0	
1.6187	-3.83334	-2.97265	0	
1.6193	-4.74811	-0.534649	0	
1.6200	-7.18751	-1.45425	0	
1.6207	-4.44319	-1.75365	0	
1.6213	0.740531	0.384948	0	
1.6220	-1.08902	3.42176	0	
1.6227	-5.96781	5.26095	0	
1.6233	-7.79736	5.26095	0	
1.6240	-9.32198	4.64076	0	
1.6247	-7.18751	3.42176	0	
1.6253	2.57008	3.74255	0	
1.6260	8.05872	4.04195	0	
1.6267	3.48485	1.90335	0	
1.6273	-2.91856	-0.534649	0	
1.6280	-8.10228	-0.834053	0	
1.6287	-13.0029	-1.45425	0	
1.6293	-12.3712	-2.07444	0	
1.6300	-6.57766	-0.834053	0	
1.6307	-2.91856	-1.15484	0	
1.6313	-0.784092	-4.19165	0	
1.6320	4.0947	-6.95044	0	
1.6327	5.61932	-10.6074	0	
1.6333	1.04546	-13.3662	0	
1.6340	-5.05304	-10.6074	0	
1.6347	-5.66289	-7.54925	0	
1.6353	0.740531	-10.9068	0	
1.6360	6.22917	-13.6656	0	
1.6367	8.05872	-11.2276	0	
1.6373	11.4129	-9.38844	0	
1.6380	11.108	-9.38844	0	
1.6387	1.35038	-7.54925	0	
1.6393	-7.18751	-3.89225	0	
1.6400	-5.35796	-0.834053	0	
1.6407	-0.174243	0.0641579	0	
1.6413	-0.174243	-2.37384	0	
1.6420	-4.74811	-4.19165	0	
1.6427	-6.88258	-0.534649	0	
1.6433	-5.66289	1.90335	0	
1.6440	-5.05304	-0.534649	0	
1.6447	-3.52841	-2.37384	0	
1.6453	-1.08902	-1.45425	0	
1.6460	-2.91856	-1.15484	0	
1.6467	-4.13826	1.28316	0	
1.6473	-2.00379	4.34135	0	
1.6480	-3.52841	3.12235	0	
1.6487	-4.74811	1.90335	0	
1.6493	-0.784092	3.74255	0	
1.6500	0.740531	3.42176	0	
1.6507	-1.08902	0.0641579	0	
1.6513	-0.174243	0.983755	0	
1.6520	0.740531	4.04195	0	
1.6527	0.740531	2.50216	0	
1.6533	1.35038	0.684351	0	
1.6540	0.130682	2.50216	0	
1.6547	-0.479167	5.26095	0	
1.6553	1.96023	6.77936	0	
1.6560	4.39963	7.10014	0	
1.6567	5.3144	5.85976	0	
1.6573	4.39963	5.56035	0	
1.6580	1.96023	4.34135	0	
1.6587	3.17993	-1.15484	0	
1.6593	5.61932	-4.19165	0	
1.6600	5.3144	0.0641579	0	
1.6607	3.48485	5.26095	0	
1.6613	1.04546	6.47995	0	
1.6620	-2.61364	8.61855	0	
1.6627	-2.30871	9.83755	0	
1.6633	0.435607	7.99836	0	
1.6640	0.740531	4.64076	0	
1.6647	0.435607	2.82295	0	
1.6653	-1.08902	4.96155	0	
1.6660	-7.18751	8.61855	0	
1.6667	-9.93183	8.31915	0	
1.6673	-4.74811	5.26095	0	
1.6680	-3.52841	4.96155	0	
1.6687	-10.2368	5.85976	0	
1.6693	-14.8324	4.96155	0	
1.6700	-9.6269	4.34135	0	
1.6707	-3.52841	3.42176	0	
1.6713	-2.91856	1.60395	0	
1.6720	-2.30871	1.28316	0	
1.6727	1.6553	3.42176	0	
1.6733	5.92425	1.60395	0	
1.6740	9.27842	-3.29344	0	
1.6747	12.3277	-5.73144	0	
1.6753	11.7178	-5.73144	0	
1.6760	8.97349	-6.65104	0	
1.6767	8.97349	-6.03085	0	
1.6773	10.803	-4.81185	0	
1.6780	9.58334	-7.87004	0	
1.6787	6.22917	-9.08904	0	
1.6793	0.740531	-5.43204	0	
1.6800	-4.13826	-3.29344	0	
1.6807	-6.57766	-3.29344	0	
1.6813	-7.18751	-0.235246	0	
1.6820	-8.40721	1.60395	0	
1.6827	-7.79736	-1.45425	0	
1.6833	-8.10228	-1.15484	0	
1.6840	-11.4565	4.34135	0	
1.6847	-11.1515	7.69895	0	
1.6853	-2.00379	6.77936	0	
1.6860	7.44887	4.34135	0	
1.6867	9.88827	3.42176	0	
1.6873	8.97349	4.64076	0	
1.6880	8.05872	4.64076	0	
1.6887	3.78978	3.42176	0	
1.6893	-3.83334	4.04195	0	
1.6900	-6.57766	4.34135	0	
1.6907	-3.22349	0.384948	0	
1.6913	-2.00379	-4.81185	0	
1.6920	-2.91856	-9.38844	0	
1.6927	1.35038	-12.746	0	
1.6933	3.17993	-13.965	0	
1.6940	-5.66289	-13.965	0	
1.6947	-12.6979	-12.746	0	
1.6953	-8.71213	-9.38844	0	
1.6960	-0.479167	-7.24985	0	
1.6967	7.14395	-3.59284	0	
1.6973	12.3277	1.28316	0	
1.6980	12.6326	0.0641579	0	
1.6987	8.97349	-4.81185	0	
1.6993	5.61932	-2.37384	0	
1.7000	1.96023	2.20276	0	
1.7007	-3.83334	1.28316	0	
1.7013	-7.18751	0.684351	0	
1.7020	-6.57766	3.74255	0	
1.7027	-5.66289	7.10014	0	
1.7033	-9.6269	9.83755	0	
1.7040	-14.8324	9.83755	0	
1.7047	-13.3078	4.96155	0	
1.7053	-6.57766	1.60395	0	
1.7060	-2.00379	1.90335	0	
1.7067	0.130682	0.684351	0	
1.7073	3.17993	-0.235246	0	
1.7080	4.70455	0.684351	0	
1.7087	5.3144	0.983755	0	
1.7093	5.3144	1.60395	0	
1.7100	6.5341	4.04195	0	
1.7107	7.7538	5.26095	0	
1.7113	2.57008	3.42176	0	
1.7120	-5.66289	0.684351	0	
1.7127	-6.57766	-0.235246	0	
1.7133	0.740531	-0.534649	0	
1.7140	6.83902	-3.29344	0	
1.7147	9.88827	-8.78964	0	
1.7153	10.4981	-11.527	0	
1.7160	8.97349	-9.38844	0	
1.7167	10.4981	-7.54925	0	
1.7173	9.58334	-6.65104	0	
1.7180	1.6553	-3.29344	0	
1.7187	-7.18751	-2.07444	0	
1.7193	-11.1515	-4.81185	0	
1.7200	-15.7472	-3.29344	0	
1.7207	-18.4915	1.90335	0	
1.7213	-15.4423	1.90335	0	
1.7220	-13.0029	0.684351	0	
1.7227	-13.3078	3.42176	0	
1.7233	-11.1515	4.96155	0	
1.7240	-6.57766	3.42176	0	
1.7247	-3.52841	4.96155	0	
1.7253	-0.784092	7.10014	0	
1.7260	1.6553	6.47995	0	
1.7267	1.6553	6.47995	0	
1.7273	-0.784092	9.21736	0	
1.7280	-3.83334	10.4364	0	
1.7287	-4.44319	7.69895	0	
1.7293	-2.30871	4.64076	0	
1.7300	-0.784092	4.34135	0	
1.7307	-0.479167	4.34135	0	
1.7313	3.17993	0.684351	0	
1.7320	5.61932	-1.75365	0	
1.7327	0.740531	-0.235246	0	
1.7333	-3.52841	2.50216	0	
1.7340	-0.174243	2.50216	0	
1.7347	3.17993	0.0641579	0	
1.7353	3.48485	-3.59284	0	
1.7360	7.14395	-4.81185	0	
1.7367	8.97349	-2.07444	0	
1.7373	5.92425	0.684351	0	
1.7380	2.875	0.0641579	0	
1.7387	1.6553	0.384948	0	
1.7393	-1.69887	4.34135	0	
1.7400	-4.13826	7.10014	0	
1.7407	-5.05304	5.56035	0	
1.7413	-7.49243	2.82295	0	
1.7420	-8.40721	2.20276	0	
1.7427	-7.49243	3.74255	0	
1.7433	-8.40721	6.18055	0	
1.7440	-8.40721	5.85976	0	
1.7447	-5.96781	3.42176	0	
1.7453	-4.74811	3.12235	0	
1.7460	0.130682	4.34135	0	
1.7467	10.803	2.50216	0	
1.7473	18.143	-1.45425	0	
1.7480	19.0578	-3.29344	0	
1.7487	20.5824	-2.97265	0	
1.7493	19.6676	-1.75365	0	
1.7500	11.7178	1.28316	0	
1.7507	3.78978	3.12235	0	
1.7513	0.740531	0.983755	0	
1.7520	-2.00379	-0.834053	0	
1.7527	-6.57766	0.384948	0	
1.7533	-9.6269	2.50216	0	
1.7540	-13.9176	2.50216	0	
1.7547	-22.7604	-0.235246	0	
1.7553	-26.7245	-4.81185	0	
1.7560	-20.0161	-5.11125	0	
1.7567	-14.2226	-3.59284	0	
1.7573	-13.0029	-3.89225	0	
1.7580	-6.57766	-2.37384	0	
1.7587	0.740531	0.684351	0	
1.7593	3.48485	-1.75365	0	
1.7600	11.7178	-6.95044	0	
1.7607	19.6676	-7.54925	0	
1.7613	16.9233	-7.54925	0	
1.7620	15.3987	-9.08904	0	
1.7627	19.0578	-8.46885	0	
1.7633	14.179	-6.95044	0	
1.7640	8.05872	-7.54925	0	
1.7647	8.97349	-6.95044	0	
1.7653	8.97349	-4.51244	0	
1.7660	4.39963	-3.89225	0	
1.7667	0.130682	-3.89225	0	
1.7673	-2.91856	-2.07444	0	
1.7680	-1.69887	-1.45425	0	
1.7687	3.17993	-1.15484	0	
1.7693	2.57008	-0.235246	0	
1.7700	-2.00379	0.684351	0	
1.7707	-4.13826	0.384948	0	
1.7713	-5.96781	0.684351	0	
1.7720	-3.83334	0.684351	0	
1.7727	1.6553	1.90335	0	
1.7733	-1.08902	3.74255	0	
1.7740	-6.57766	2.50216	0	
1.7747	-4.74811	0.384948	0	
1.7753	-1.69887	1.60395	0	
1.7760	-3.83334	2.82295	0	
1.7767	-3.83334	0.0641579	0	
1.7773	-1.69887	-2.97265	0	
1.7780	-2.00379	-3.29344	0	
1.7787	-1.39394	-2.07444	0	
1.7793	3.48485	-1.15484	0	
1.7800	7.14395	-1.75365	0	
1.7807	6.22917	-2.97265	0	
1.7813	4.39963	-1.15484	0	
1.7820	5.00948	2.20276	0	
1.7827	4.39963	2.50216	0	
1.7833	1.35038	-0.235246	0	
1.7840	-2.30871	0.684351	0	
1.7847	-5.05304	3.74255	0	
1.7853	-8.10228	4.34135	0	
1.7860	-10.8466	4.04195	0	
1.7867	-13.6127	5.56035	0	
1.7873	-15.7472	5.85976	0	
1.7880	-12.6979	4.34135	0	
1.7887	-6.57766	4.34135	0	
1.7893	-4.44319	2.82295	0	
1.7900	-3.52841	-1.15484	0	
1.7907	0.740531	-3.89225	0	
1.7913	3.78978	-3.89225	0	
1.7920	5.61932	-5.43204	0	
1.7927	10.803	-6.95044	0	
1.7933	15.0938	-7.54925	0	
1.7940	15.3987	-6.65104	0	
1.7947	16.3135	-6.65104	0	
1.7953	16.3135	-8.78964	0	
1.7960	12.6326	-10.308	0	
1.7967	11.108	-8.46885	0	
1.7973	10.803	-5.43204	0	
1.7980	3.48485	-2.67325	0	
1.7987	-5.66289	-1.15484	0	
1.7993	-5.66289	-0.834053	0	
1.8000	-1.69887	-2.07444	0	
1.8007	-1.39394	-2.67325	0	
1.8013	-3.83334	-1.15484	0	
1.8020	-7.49243	0.983755	0	
1.8027	-10.5417	4.04195	0	
1.8033	-9.93183	7.10014	0	
1.8040	-9.01706	8.91795	0	
1.8047	-10.5417	7.10014	0	
1.8053	-10.2368	4.96155	0	
1.8060	-8.40721	6.47995	0	
1.8067	-7.18751	6.77936	0	
1.8073	-4.13826	4.34135	0	
1.8080	-1.39394	5.85976	0	
1.8087	0.740531	7.10014	0	
1.8093	4.0947	0.684351	0	
1.8100	4.0947	-2.37384	0	
1.8107	0.740531	1.60395	0	
1.8113	0.435607	1.90335	0	
1.8120	0.435607	-0.235246	0	
1.8127	-3.83334	1.60395	0	
1.8133	-8.71213	1.60395	0	
1.8140	-10.8466	-1.45425	0	
1.8147	-3.22349	-1.15484	0	
1.8153	15.3987	-0.834053	0	
1.8160	28.8154	-3.89225	0	
1.8167	28.2055	-6.03085	0	
1.8173	25.7661	-6.03085	0	
1.8180	21.8021	-6.03085	0	
1.8187	10.4981	-7.54925	0	
1.8193	1.35038	-8.46885	0	
1.8200	-1.08902	-6.65104	0	
1.8207	-2.00379	-5.43204	0	
1.8213	-3.83334	-6.65104	0	
1.8220	-2.91856	-6.03085	0	
1.8227	-3.52841	-3.89225	0	
1.8233	-12.0663	-5.11125	0	
1.8240	-19.7112	-4.81185	0	
1.8247	-16.662	-1.45425	0	
1.8253	-11.1515	-1.15484	0	
1.8260	-10.8466	-1.15484	0	
1.8267	-8.10228	0.0641579	0	
1.8273	-3.22349	-1.15484	0	
1.8280	-4.74811	-1.15484	0	
1.8287	-8.71213	2.50216	0	
1.8293	-7.79736	4.64076	0	
1.8300	-3.83334	4.04195	0	
1.8307	-2.00379	5.56035	0	
1.8313	-2.91856	8.31915	0	
1.8320	-2.30871	8.91795	0	
1.8327	1.6553	6.47995	0	
1.8333	1.96023	4.96155	0	
1.8340	-0.174243	5.26095	0	
1.8347	0.130682	5.26095	0	
1.8353	-0.479167	4.64076	0	
1.8360	-3.83334	3.42176	0	
1.8367	-4.13826	-0.235246	0	
1.8373	0.740531	-2.97265	0	
1.8380	6.22917	-2.07444	0	
1.8387	8.66857	-0.534649	0	
1.8393	6.83902	-1.75365	0	
1.8400	3.78978	-1.15484	0	
1.8407	3.78978	0.983755	0	
1.8413	5.61932	2.50216	0	
1.8420	6.22917	1.90335	0	
1.8427	5.3144	0.684351	0	
1.8433	4.70455	1.60395	0	
1.8440	2.26515	3.42176	0	
1.8447	-0.174243	2.50216	0	
1.8453	1.96023	-1.15484	0	
1.8460	4.39963	-2.07444	0	
1.8467	0.740531	-1.15484	0	
1.8473	-3.22349	-0.834053	0	
1.8480	-3.52841	-0.235246	0	
1.8487	-4.74811	-2.37384	0	
1.8493	-1.39394	-5.11125	0	
1.8500	3.48485	-3.89225	0	
1.8507	-0.784092	-2.37384	0	
1.8513	-6.57766	-4.81185	0	
1.8520	-3.83334	-6.33025	0	
1.8527	-2.61364	-5.73144	0	
1.8533	-3.83334	-5.43204	0	
1.8540	-2.91856	-3.59284	0	
1.8547	-3.22349	-1.15484	0	
1.8553	-2.91856	-0.235246	0	
1.8560	0.740531	-0.534649	0	
1.8567	0.740531	-2.37384	0	
1.8573	-1.39394	-4.81185	0	
1.8580	-1.39394	-5.11125	0	
1.8587	-6.57766	-1.45425	0	
1.8593	-13.0029	3.12235	0	
1.8600	-9.93183	3.42176	0	
1.8607	-5.66289	-0.235246	0	
1.8613	-5.66289	-2.07444	0	
1.8620	-2.00379	-0.534649	0	
1.8627	1.6553	-1.15484	0	
1.8633	-0.174243	-2.97265	0	
1.8640	-1.39394	-3.89225	0	
1.8647	-1.39394	-4.81185	0	
1.8653	-2.61364	-3.89225	0	
1.8660	-0.174243	-1.75365	0	
1.8667	3.78978	-1.45425	0	
1.8673	2.875	0.684351	0	
1.8680	-0.174243	2.82295	0	
1.8687	-0.479167	-0.834053	0	
1.8693	1.96023	-2.97265	0	
1.8700	0.740531	3.12235	0	
1.8707	-7.18751	5.26095	0	
1.8713	-11.1515	0.384948	0	
1.8720	-3.83334	-0.534649	0	
1.8727	1.6553	0.0641579	0	
1.8733	-0.479167	-3.59284	0	
1.8740	2.875	-4.51244	0	
1.8747	8.05872	-1.75365	0	
1.8753	5.92425	-2.07444	0	
1.8760	6.5341	-1.15484	0	
1.8767	11.7178	3.42176	0	
1.8773	10.4981	4.64076	0	
1.8780	11.108	3.42176	0	
1.8787	17.2282	4.96155	0	
1.8793	14.4839	5.26095	0	
1.8800	7.14395	3.42176	0	
1.8807	6.22917	2.50216	0	
1.8813	4.70455	4.04195	0	
1.8820	0.130682	4.64076	0	
1.8827	-4.74811	4.64076	0	
1.8833	-15.7472	4.34135	0	
1.8840	-26.4195	4.34135	0	
1.8847	-26.4195	3.74255	0	
1.8853	-24.2851	3.12235	0	
1.8860	-25.5048	4.04195	0	
1.8867	-21.2358	5.85976	0	
1.8873	-14.8324	4.34135	0	
1.8880	-13.0029	1.28316	0	
1.8887	-11.1515	-0.534649	0	
1.8893	-5.66289	-2.07444	0	
1.8900	-0.174243	-5.11125	0	
1.8907	3.48485	-6.95044	0	
1.8913	7.14395	-5.11125	0	
1.8920	11.4129	-3.59284	0	
1.8927	15.3987	-6.33025	0	
1.8933	18.7529	-9.08904	0	
1.8940	21.8021	-6.65104	0	
1.8947	19.9726	-2.97265	0	
1.8953	14.4839	-1.15484	0	
1.8960	12.0227	1.90335	0	
1.8967	9.27842	4.64076	0	
1.8973	3.78978	3.42176	0	
1.8980	2.57008	-0.235246	0	
1.8987	5.92425	-3.89225	0	
1.8993	6.5341	-6.33025	0	
1.9000	4.39963	-6.33025	0	
1.9007	1.6553	-5.73144	0	
1.9013	-4.74811	-5.73144	0	
1.9020	-10.8466	-3.29344	0	
1.9027	-9.93183	1.60395	0	
1.9033	-8.40721	4.04195	0	
1.9040	-11.1515	2.82295	0	
1.9047	-12.3712	3.74255	0	
1.9053	-10.8466	5.26095	0	
1.9060	-12.0663	4.04195	0	
1.9067	-10.5417	5.56035	0	
1.9073	-1.69887	8.31915	0	
1.9080	4.39963	5.56035	0	
1.9087	2.57008	2.20276	0	
1.9093	1.6553	4.64076	0	
1.9100	0.740531	6.77936	0	
1.9107	-2.30871	4.04195	0	
1.9113	-1.08902	1.60395	0	
1.9120	3.48485	0.384948	0	
1.9127	4.0947	-3.29344	0	
1.9133	2.875	-7.24985	0	
1.9140	3.48485	-7.87004	0	
1.9147	4.39963	-7.87004	0	
1.9153	7.14395	-10.308	0	
1.9160	10.803	-10.0086	0	
1.9167	8.05872	-5.43204	0	
1.9173	3.48485	-4.81185	0	
1.9180	3.17993	-8.46885	0	
1.9187	2.57008	-7.24985	0	
1.9193	1.04546	-2.67325	0	
1.9200	4.39963	-1.75365	0	
1.9207	7.7538	-1.75365	0	
1.9213	5.3144	0.384948	0	
1.9220	-1.39394	3.12235	0	
1.9227	-12.3712	6.18055	0	
1.9233	-23.0654	8.91795	0	
1.9240	-24.2851	8.61855	0	
1.9247	-18.4915	7.99836	0	
1.9253	-15.1373	8.91795	0	
1.9260	-14.5275	7.99836	0	
1.9267	-14.8324	4.34135	0	
1.9273	-16.0521	2.50216	0	
1.9280	-15.7472	4.04195	0	
1.9287	-13.3078	4.04195	0	
1.9293	-10.2368	1.60395	0	
1.9300	-3.83334	-0.534649	0	
1.9307	4.39963	-2.97265	0	
1.9313	8.97349	-7.54925	0	
1.9320	11.7178	-9.38844	0	
1.9327	19.0578	-9.08904	0	
1.9333	25.7661	-11.2276	0	
1.9340	26.376	-12.4466	0	
1.9347	21.4972	-8.16944	0	
1.9353	17.2282	-2.67325	0	
1.9360	14.179	-1.15484	0	
1.9367	9.58334	-1.15484	0	
1.9373	6.83902	-2.07444	0	
1.9380	8.97349	-1.45425	0	
1.9387	8.97349	0.684351	0	
1.9393	4.39963	0.384948	0	
1.9400	1.6553	-0.834053	0	
1.9407	-1.69887	0.384948	0	
1.9413	-9.93183	0.0641579	0	
1.9420	-13.0029	-1.45425	0	
1.9427	-9.32198	0.384948	0	
1.9433	-8.71213	1.90335	0	
1.9440	-6.57766	0.983755	0	
1.9447	1.6553	1.90335	0	
1.9453	4.39963	2.82295	0	
1.9460	2.57008	1.60395	0	
1.9467	6.83902	2.20276	0	
1.9473	6.22917	4.34135	0	
1.9480	-5.96781	7.10014	0	
1.9487	-13.0029	10.137	0	
1.9493	-8.71213	9.83755	0	
1.9500	-5.05304	6.47995	0	
1.9507	-5.05304	7.10014	0	
1.9513	-4.44319	9.53815	0	
1.9520	-3.83334	9.21736	0	
1.9527	-2.61364	9.21736	0	
1.9533	-1.69887	11.6767	0	
1.9540	-5.05304	10.7571	0	
1.9547	-6.57766	6.77936	0	
1.9553	-0.479167	7.10014	0	
1.9560	5.61932	10.137	0	
1.9567	9.88827	8.31915	0	
1.9573	15.3987	4.34135	0	
1.9580	16.3135	2.50216	0	
1.9587	14.179	-1.15484	0	
1.9593	15.7036	-6.03085	0	
1.9600	15.7036	-7.54925	0	
1.9607	10.1932	-7.24985	0	
1.9613	5.92425	-6.65104	0	
1.9620	3.48485	-2.97265	0	
1.9627	-0.784092	0.0641579	0	
1.9633	-8.40721	-0.534649	0	
1.9640	-16.9669	-1.75365	0	
1.9647	-19.4063	-3.89225	0	
1.9653	-14.2226	-5.73144	0	
1.9660	-9.93183	-5.73144	0	
1.9667	-9.01706	-5.73144	0	
1.9673	-7.18751	-6.65104	0	
1.9680	-5.66289	-2.97265	0	
1.9687	-7.49243	-1.15484	0	
1.9693	-6.57766	-5.43204	0	
1.9700	-0.784092	-7.54925	0	
1.9707	4.39963	-5.43204	0	
1.9713	5.92425	-4.81185	0	
1.9720	6.22917	-4.51244	0	
1.9727	6.5341	-1.15484	0	
1.9733	5.61932	-1.75365	0	
1.9740	3.48485	-5.11125	0	
1.9747	1.35038	-3.59284	0	
1.9753	0.740531	0.0641579	0	
1.9760	1.96023	0.684351	0	
1.9767	-0.784092	0.983755	0	
1.9773	-8.10228	2.82295	0	
1.9780	-11.7614	1.28316	0	
1.9787	-8.40721	-0.834053	0	
1.9793	-6.57766	0.684351	0	
1.9800	-7.79736	2.50216	0	
1.9807	-8.10228	0.983755	0	
1.9813	-5.66289	-1.45425	0	
1.9820	-2.91856	-0.235246	0	
1.9827	-4.44319	1.90335	0	
1.9833	-12.0663	-0.235246	0	
1.9840	-14.8324	-3.89225	0	
1.9847	-5.66289	-2.37384	0	
1.9853	0.740531	-0.834053	0	
1.9860	-0.174243	-2.37384	0	
1.9867	2.57008	-2.97265	0	
1.9873	8.36365	-3.89225	0	
1.9880	8.97349	-7.24985	0	
1.9887	9.27842	-9.08904	0	
1.9893	14.179	-8.46885	0	
1.9900	14.4839	-6.65104	0	
1.9907	13.5474	-4.51244	0	
1.9913	16.3135	-3.89225	0	
1.9920	18.143	-3.29344	0	
1.9927	18.143	-1.75365	0	
1.9933	19.0578	-2.07444	0	
1.9940	15.3987	-2.97265	0	
1.9947	12.6326	-2.07444	0	
1.9953	17.2282	-1.45425	0	
1.9960	16.0085	-0.834053	0	
1.9967	5.61932	1.60395	0	
1.9973	2.57008	1.28316	0	
1.9980	5.61932	-1.75365	0	
1.9987	1.6553	-1.45425	0	
1.9993	-4.13826	-0.235246	0	
2.0000	-8.10228	-0.235246	0	
2.0007	-16.0521	1.60395	0	
2.0013	-24.59	4.64076	0	
2.0020	-27.6392	6.77936	0	
2.0027	-28.554	7.10014	0	
2.0033	-26.7245	4.96155	0	
2.0040	-20.321	2.20276	0	
2.0047	-16.0521	1.28316	0	
2.0053	-16.0521	-0.534649	0	
2.0060	-13.6127	-3.89225	0	
2.0067	-10.2368	-5.11125	0	
2.0073	-9.32198	-5.73144	0	
2.0080	-7.18751	-6.65104	0	
2.0087	-3.83334	-8.16944	0	
2.0093	-1.39394	-10.308	0	
2.0100	1.6553	-11.2276	0	
2.0107	4.0947	-8.46885	0	
2.0113	3.48485	-3.89225	0	
2.0120	3.48485	-1.45425	0	
2.0127	4.39963	-1.15484	0	
2.0133	6.22917	-1.15484	0	
2.0140	11.108	-1.15484	0	
2.0147	15.3987	-1.15484	0	
2.0153	16.6184	-2.07444	0	
2.0160	15.3987	-2.07444	0	
2.0167	11.108	-0.834053	0	
2.0173	8.36365	0.684351	0	
2.0180	9.27842	1.60395	0	
2.0187	9.88827	1.90335	0	
2.0193	8.97349	2.50216	0	
2.0200	6.5341	3.42176	0	
2.0207	-0.479167	3.74255	0	
2.0213	-6.57766	2.50216	0	
2.0220	-8.10228	1.28316	0	
2.0227	-13.9176	1.60395	0	
2.0233	-20.321	3.42176	0	
2.0240	-18.1866	4.34135	0	
2.0247	-14.8324	4.04195	0	
2.0253	-16.0521	4.04195	0	
2.0260	-18.4915	3.12235	0	
2.0267	-23.9801	2.50216	0	
2.0273	-26.7245	3.42176	0	
2.0280	-19.7112	2.50216	0	
2.0287	-12.0663	-0.235246	0	
2.0293	-10.2368	1.28316	0	
2.0300	-6.57766	3.12235	0	
2.0307	-3.52841	0.384948	0	
2.0313	-4.74811	0.0641579	0	
2.0320	-4.44319	3.12235	0	
2.0327	-0.479167	0.684351	0	
2.0333	0.740531	-2.07444	0	
2.0340	1.35038	-1.45425	0	
2.0347	3.48485	-3.59284	0	
2.0353	5.61932	-6.03085	0	
2.0360	6.22917	-3.89225	0	
2.0367	5.3144	-0.834053	0	
2.0373	5.00948	0.0641579	0	
2.0380	6.22917	1.28316	0	
2.0387	5.3144	-0.235246	0	
2.0393	1.6553	-3.29344	0	
2.0400	2.26515	-2.37384	0	
2.0407	4.39963	0.983755	0	
2.0413	4.39963	3.42176	0	
2.0420	4.70455	2.50216	0	
2.0427	4.39963	0.684351	0	
2.0433	1.04546	0.684351	0	
2.0440	-1.69887	1.60395	0	
2.0447	-3.22349	2.50216	0	
2.0453	-3.83334	4.04195	0	
2.0460	-2.00379	7.10014	0	
2.0467	-0.479167	7.99836	0	
2.0473	-2.91856	7.99836	0	
2.0480	-2.61364	6.18055	0	
2.0487	-1.08902	4.04195	0	
2.0493	-4.74811	5.26095	0	
2.0500	-5.96781	7.39955	0	
2.0507	1.35038	5.56035	0	
2.0513	8.97349	1.60395	0	
2.0520	11.7178	-1.15484	0	
2.0527	11.7178	-1.45425	0	
2.0533	8.66857	0.684351	0	
2.0540	4.39963	1.60395	0	
2.0547	6.5341	-0.235246	0	
2.0553	11.7178	-2.07444	0	
2.0560	15.3987	-1.45425	0	
2.0567	19.0578	-0.235246	0	
2.0573	20.5824	-0.834053	0	
2.0580	19.0578	-2.97265	0	
2.0587	15.3987	-4.81185	0	
2.0593	8.97349	-4.19165	0	
2.0600	-1.39394	-2.97265	0	
2.0607	-6.88258	-1.45425	0	
2.0613	-4.74811	0.0641579	0	
2.0620	-5.35796	0.384948	0	
2.0627	-8.10228	-1.75365	0	
2.0633	-3.83334	-2.37384	0	
2.0640	0.740531	0.684351	0	
2.0647	-4.13826	5.26095	0	
2.0653	-9.32198	6.47995	0	
2.0660	-6.57766	3.12235	0	
2.0667	-4.74811	-1.75365	0	
2.0673	-8.40721	-4.19165	0	
2.0680	-10.5417	-3.89225	0	
2.0687	-9.32198	-2.97265	0	
2.0693	-7.49243	-2.97265	0	
2.0700	-4.13826	-2.97265	0	
2.0707	0.740531	-1.45425	0	
2.0713	5.61932	-1.75365	0	
2.0720	9.88827	-3.89225	0	
2.0727	12.6326	-5.11125	0	
2.0733	11.4129	-5.73144	0	
2.0740	8.97349	-6.33025	0	
2.0747	5.92425	-4.81185	0	
2.0753	1.04546	-2.97265	0	
2.0760	-2.00379	-2.97265	0	
2.0767	-2.00379	-2.07444	0	
2.0773	-2.91856	-1.15484	0	
2.0780	-3.83334	-1.15484	0	
2.0787	1.6553	-0.235246	0	
2.0793	8.97349	-0.235246	0	
2.0800	10.4981	-1.45425	0	
2.0807	10.4981	1.60395	0	
2.0813	10.1932	5.26095	0	
2.0820	2.57008	4.34135	0	
2.0827	-10.5417	4.04195	0	
2.0833	-18.1866	3.74255	0	
2.0840	-20.321	0.684351	0	
2.0847	-23.3703	0.684351	0	
2.0853	-22.7604	1.90335	0	
2.0860	-18.4915	-0.534649	0	
2.0867	-20.9309	-0.834053	0	
2.0873	-28.554	2.50216	0	
2.0880	-29.1639	1.60395	0	
2.0887	-23.0654	-0.235246	0	
2.0893	-16.357	-0.235246	0	
2.0900	-3.83334	-3.29344	0	
2.0907	10.4981	-4.81185	0	
2.0913	14.4839	-2.67325	0	
2.0920	9.58334	-2.97265	0	
2.0927	7.14395	-3.59284	0	
2.0933	7.7538	-2.07444	0	
2.0940	8.66857	-3.29344	0	
2.0947	10.803	-2.67325	0	
2.0953	11.7178	0.983755	0	
2.0960	10.1932	-0.235246	0	
2.0967	10.4981	-2.07444	0	
2.0973	10.4981	2.50216	0	
2.0980	8.97349	4.96155	0	
2.0987	8.97349	1.60395	0	
2.0993	9.58334	2.50216	0	
2.1000	7.14395	5.56035	0	
2.1007	5.3144	4.04195	0	
2.1013	5.3144	1.90335	0	
2.1020	5.3144	4.34135	0	
2.1027	6.22917	4.64076	0	
2.1033	5.61932	-0.235246	0	
2.1040	4.70455	-3.59284	0	
2.1047	10.803	-3.29344	0	
2.1053	13.8523	-1.15484	0	
2.1060	4.0947	0.983755	0	
2.1067	-2.91856	0.983755	0	
2.1073	0.740531	-0.534649	0	
2.1080	-0.784092	-0.235246	0	
2.1087	-5.96781	0.384948	0	
2.1093	-3.83334	-0.235246	0	
2.1100	-2.30871	1.28316	0	
2.1107	-4.74811	2.20276	0	
2.1113	-2.91856	-0.235246	0	
2.1120	-2.00379	-2.07444	0	
2.1127	-4.74811	-2.07444	0	
2.1133	-1.39394	-3.89225	0	
2.1140	4.0947	-5.73144	0	
2.1147	4.70455	-8.16944	0	
2.1153	5.92425	-9.38844	0	
2.1160	6.5341	-7.87004	0	
2.1167	4.70455	-5.73144	0	
2.1173	4.39963	-6.33025	0	
2.1180	2.57008	-4.81185	0	
2.1187	-0.479167	-0.235246	0	
2.1193	0.130682	-0.834053	0	
2.1200	1.35038	-3.29344	0	
2.1207	-0.784092	-0.235246	0	
2.1213	-0.784092	4.34135	0	
2.1220	-0.174243	3.42176	0	
2.1227	-2.91856	2.82295	0	
2.1233	-4.44319	5.85976	0	
2.1240	-5.66289	6.18055	0	
2.1247	-10.2368	4.64076	0	
2.1253	-13.6127	4.96155	0	
2.1260	-16.357	5.26095	0	
2.1267	-20.321	4.96155	0	
2.1273	-18.4915	3.74255	0	
2.1280	-7.49243	0.684351	0	
2.1287	0.740531	-1.45425	0	
2.1293	1.6553	-0.534649	0	
2.1300	-2.00379	-2.07444	0	
2.1307	-6.27273	-6.65104	0	
2.1313	-7.79736	-6.65104	0	
2.1320	-5.05304	-2.97265	0	
2.1327	-2.30871	-3.29344	0	
2.1333	-0.479167	-5.73144	0	
2.1340	5.61932	-6.33025	0	
2.1347	10.803	-5.43204	0	
2.1353	6.5341	-3.89225	0	
2.1360	1.96023	-2.07444	0	
2.1367	4.0947	-1.75365	0	
2.1373	3.48485	-2.67325	0	
2.1380	0.740531	-2.67325	0	
2.1387	5.61932	-3.29344	0	
2.1393	11.4129	-4.19165	0	
2.1400	9.58334	-3.89225	0	
2.1407	3.48485	-1.15484	0	
2.1413	-4.44319	0.684351	0	
2.1420	-9.01706	-1.15484	0	
2.1427	-5.66289	-2.07444	0	
2.1433	-2.61364	2.82295	0	
2.1440	-5.66289	7.10014	0	
2.1447	-4.74811	5.26095	0	
2.1453	0.740531	3.12235	0	
2.1460	-0.174243	3.12235	0	
2.1467	-2.00379	2.50216	0	
2.1473	1.6553	3.42176	0	
2.1480	5.61932	6.18055	0	
2.1487	4.0947	7.10014	0	
2.1493	0.435607	4.96155	0	
2.1500	-1.69887	2.50216	0	
2.1507	-1.08902	-0.235246	0	
2.1513	2.26515	-2.37384	0	
2.1520	4.0947	-2.97265	0	
2.1527	1.6553	-3.59284	0	
2.1533	-4.74811	-3.29344	0	
2.1540	-10.8466	-2.67325	0	
2.1547	-10.5417	-4.19165	0	
2.1553	-6.57766	-4.81185	0	
2.1560	-5.66289	-2.07444	0	
2.1567	-5.35796	-0.534649	0	
2.1573	-1.69887	-2.97265	0	
2.1580	0.740531	-3.89225	0	
2.1587	0.130682	-2.97265	0	
2.1593	1.04546	-4.81185	0	
2.1600	-0.784092	-4.81185	0	
2.1607	-5.96781	0.684351	0	
2.1613	-6.27273	2.50216	0	
2.1620	-1.08902	1.60395	0	
2.1627	0.435607	4.34135	0	
2.1633	-1.08902	5.56035	0	
2.1640	0.740531	2.20276	0	
2.1647	3.78978	0.0641579	0	
2.1653	3.17993	0.0641579	0	
2.1660	1.35038	-1.15484	0	
2.1667	0.130682	-1.15484	0	
2.1673	-1.08902	-0.235246	0	
2.1680	-0.784092	-1.75365	0	
2.1687	1.35038	-0.534649	0	
2.1693	1.35038	2.20276	0	
2.1700	-1.08902	1.60395	0	
2.1707	-2.91856	1.28316	0	
2.1713	-5.05304	4.96155	0	
2.1720	-7.49243	7.39955	0	
2.1727	-5.35796	5.56035	0	
2.1733	-2.00379	3.42176	0	
2.1740	-2.61364	2.50216	0	
2.1747	-3.22349	0.684351	0	
2.1753	-0.784092	-0.534649	0	
2.1760	2.875	0.684351	0	
2.1767	5.61932	3.42176	0	
2.1773	2.57008	4.64076	0	
2.1780	-7.49243	5.56035	0	
2.1787	-13.0029	4.34135	0	
2.1793	-10.5417	1.60395	0	
2.1800	-10.2368	0.384948	0	
2.1807	-11.7614	-0.534649	0	
2.1813	-5.96781	-0.834053	0	
2.1820	2.57008	1.28316	0	
2.1827	6.22917	0.684351	0	
2.1833	5.61932	-0.534649	0	
2.1840	4.70455	1.60395	0	
2.1847	6.83902	0.384948	0	
2.1853	10.803	-4.81185	0	
2.1860	11.7178	-3.89225	0	
2.1867	7.44887	-2.67325	0	
2.1873	5.3144	-7.24985	0	
2.1880	5.00948	-7.54925	0	
2.1887	0.740531	-4.19165	0	
2.1893	-4.44319	-4.19165	0	
2.1900	-5.05304	-2.07444	0	
2.1907	-1.69887	0.0641579	0	
2.1913	2.57008	-1.15484	0	
2.1920	4.39963	-0.235246	0	
2.1927	4.39963	1.90335	0	
2.1933	5.00948	-0.235246	0	
2.1940	7.14395	-2.07444	0	
2.1947	8.97349	-2.97265	0	
2.1953	11.108	-4.81185	0	
2.1960	12.6326	-6.03085	0	
2.1967	10.803	-4.81185	0	
2.1973	7.14395	-3.89225	0	
2.1980	3.17993	-3.59284	0	
2.1987	0.740531	-5.11125	0	
2.1993	2.57008	-6.65104	0	
2.2000	7.14395	-5.43204	0	
2.2007	5.3144	-3.89225	0	
2.2013	-2.91856	-3.89225	0	
2.2020	-7.49243	-2.37384	0	
2.2027	-7.18751	0.0641579	0	
2.2033	-6.27273	1.90335	0	
2.2040	-4.44319	2.50216	0	
2.2047	-1.69887	2.50216	0	
2.2053	-2.00379	2.50216	0	
2.2060	-8.10228	4.96155	0	
2.2067	-14.5275	8.91795	0	
2.2073	-17.2718	12.575	0	
2.2080	-19.4063	11.9761	0	
2.2087	-21.8457	9.21736	0	
2.2093	-20.321	9.21736	0	
2.2100	-18.4915	10.137	0	
2.2107	-17.2718	7.10014	0	
2.2113	-11.1515	1.60395	0	
2.2120	-2.00379	-0.534649	0	
2.2127	3.48485	-1.45425	0	
2.2133	8.36365	-2.97265	0	
2.2140	12.6326	-4.81185	0	
2.2147	12.0227	-4.81185	0	
2.2153	8.97349	-4.81185	0	
2.2160	8.05872	-4.19165	0	
2.2167	8.97349	-3.89225	0	
2.2173	11.4129	-5.11125	0	
2.2180	15.3987	-6.65104	0	
2.2187	14.4839	-6.03085	0	
2.2193	11.108	-5.73144	0	
2.2200	15.0938	-6.03085	0	
2.2207	22.7169	-3.59284	0	
2.2213	24.2415	0.384948	0	
2.2220	21.8021	-0.834053	0	
2.2227	21.1923	-5.11125	0	
2.2233	19.0578	-4.81185	0	
2.2240	15.0938	-1.15484	0	
2.2247	8.97349	0.0641579	0	
2.2253	0.435607	2.20276	0	
2.2260	-3.83334	5.26095	0	
2.2267	-2.91856	4.04195	0	
2.2273	-8.10228	0.983755	0	
2.2280	-19.1013	0.983755	0	
2.2287	-23.3703	0.384948	0	
2.2293	-20.9309	-1.45425	0	
2.2300	-16.357	-1.15484	0	
2.2307	-9.6269	0.384948	0	
2.2313	-2.91856	-0.235246	0	
2.2320	-0.174243	-1.45425	0	
2.2327	-0.479167	-1.45425	0	
2.2333	-1.08902	-1.75365	0	
2.2340	-0.784092	-2.67325	0	
2.2347	-2.61364	-2.07444	0	
2.2353	-6.88258	2.50216	0	
2.2360	-10.2368	7.10014	0	
2.2367	-10.2368	6.47995	0	
2.2373	-9.01706	3.74255	0	
2.2380	-8.71213	3.74255	0	
2.2387	-6.88258	4.34135	0	
2.2393	-2.00379	2.82295	0	
2.2400	4.39963	0.983755	0	
2.2407	7.7538	-1.15484	0	
2.2413	4.39963	-1.45425	0	
2.2420	-1.08902	1.28316	0	
2.2427	-2.61364	3.12235	0	
2.2433	-3.22349	3.12235	0	
2.2440	-7.49243	2.50216	0	
2.2447	-9.32198	0.384948	0	
2.2453	-5.35796	-0.534649	0	
2.2460	-2.91856	2.50216	0	
2.2467	-1.08902	3.42176	0	
2.2473	1.6553	2.50216	0	
2.2480	1.6553	2.20276	0	
2.2487	-0.784092	1.60395	0	
2.2493	1.35038	0.684351	0	
2.2500	5.92425	-0.235246	0	
2.2507	9.58334	-2.97265	0	
2.2513	12.0227	-5.11125	0	
2.2520	10.4981	-3.89225	0	
2.2527	6.83902	-3.89225	0	
2.2533	5.3144	-4.51244	0	
2.2540	5.3144	-2.97265	0	
2.2547	5.92425	-1.15484	0	
2.2553	8.05872	-0.235246	0	
2.2560	8.97349	-0.235246	0	
2.2567	8.97349	-2.67325	0	
2.2573	5.61932	-4.81185	0	
2.2580	-3.22349	-4.19165	0	
2.2587	-12.6979	-2.07444	0	
2.2593	-15.4423	-0.534649	0	
2.2600	-15.4423	0.384948	0	
2.2607	-19.1013	1.28316	0	
2.2613	-20.321	2.82295	0	
2.2620	-15.7472	4.04195	0	
2.2627	-14.8324	5.56035	0	
2.2633	-19.4063	6.47995	0	
2.2640	-20.321	3.42176	0	
2.2647	-14.8324	0.384948	0	
2.2653	-8.10228	0.983755	0	
2.2660	-1.69887	-0.235246	0	
2.2667	1.96023	-4.19165	0	
2.2673	1.35038	-4.81185	0	
2.2680	1.6553	-4.81185	0	
2.2687	6.5341	-6.65104	0	
2.2693	10.803	-6.95044	0	
2.2700	13.8523	-7.24985	0	
2.2707	16.0085	-8.16944	0	
2.2713	15.0938	-4.81185	0	
2.2720	12.6326	-1.15484	0	
2.2727	11.4129	-2.97265	0	
2.2733	10.4981	-3.59284	0	
2.2740	9.88827	-2.07444	0	
2.2747	12.6326	-5.43204	0	
2.2753	15.7036	-9.38844	0	
2.2760	14.7888	-6.33025	0	
2.2767	8.97349	-2.07444	0	
2.2773	0.740531	-2.37384	0	
2.2780	-5.96781	-1.15484	0	
2.2787	-7.18751	2.50216	0	
2.2793	-5.35796	3.74255	0	
2.2800	-3.52841	4.96155	0	
2.2807	-2.91856	6.18055	0	
2.2813	-4.74811	5.26095	0	
2.2820	-8.40721	4.34135	0	
2.2827	-10.2368	4.34135	0	
2.2833	-10.5417	2.82295	0	
2.2840	-6.57766	2.50216	0	
2.2847	1.35038	4.04195	0	
2.2853	5.00948	2.50216	0	
2.2860	2.57008	0.684351	0	
2.2867	4.39963	1.90335	0	
2.2873	8.97349	3.42176	0	
2.2880	8.05872	4.04195	0	
2.2887	5.00948	5.85976	0	
2.2893	4.39963	6.77936	0	
2.2900	2.57008	5.85976	0	
2.2907	0.435607	4.34135	0	
2.2913	4.0947	2.50216	0	
2.2920	8.05872	-2.97265	0	
2.2927	3.48485	-11.2276	0	
2.2933	-0.174243	-15.8042	0	
2.2940	6.22917	-15.4834	0	
2.2947	14.179	-14.2644	0	
2.2953	13.2424	-13.3662	0	
2.2960	5.00948	-11.2276	0	
2.2967	-4.74811	-8.78964	0	
2.2973	-10.5417	-5.73144	0	
2.2980	-11.1515	-2.07444	0	
2.2987	-9.93183	-2.07444	0	
2.2993	-8.40721	-5.11125	0	
2.3000	-2.91856	-6.03085	0	
2.3007	2.57008	-2.97265	0	
2.3013	-0.174243	0.384948	0	
2.3020	-7.18751	1.60395	0	
2.3027	-9.32198	0.684351	0	
2.3033	-8.40721	1.28316	0	
2.3040	-12.0663	1.60395	0	
2.3047	-17.5767	1.60395	0	
2.3053	-17.2718	3.74255	0	
2.3060	-14.5275	6.18055	0	
2.3067	-13.0029	6.77936	0	
2.3073	-10.8466	8.31915	0	
2.3080	-9.6269	9.83755	0	
2.3087	-12.6979	9.53815	0	
2.3093	-13.0029	9.21736	0	
2.3100	-11.1515	8.91795	0	
2.3107	-12.6979	6.18055	0	
2.3113	-11.1515	3.74255	0	
2.3120	-3.83334	1.60395	0	
2.3127	-0.479167	-1.45425	0	
2.3133	1.04546	-2.37384	0	
2.3140	6.22917	-0.534649	0	
2.3147	8.05872	0.983755	0	
2.3153	6.22917	1.28316	0	
2.3160	8.97349	-1.15484	0	
2.3167	9.88827	-4.51244	0	
2.3173	8.36365	-5.43204	0	
2.3180	8.66857	-5.11125	0	
2.3187	9.88827	-4.81185	0	
2.3193	11.7178	-3.89225	0	
2.3200	12.9375	-4.19165	0	
2.3207	5.61932	-4.51244	0	
2.3213	-7.49243	-3.29344	0	
2.3220	-13.0029	-3.89225	0	
2.3227	-12.6979	-3.89225	0	
2.3233	-12.6979	-2.07444	0	
2.3240	-11.1515	-1.75365	0	
2.3247	-8.40721	-2.37384	0	
2.3253	-6.57766	-1.75365	0	
2.3260	-4.74811	-3.29344	0	
2.3267	-4.13826	-6.03085	0	
2.3273	-4.74811	-4.81185	0	
2.3280	-3.83334	-2.97265	0	
2.3287	-2.00379	-4.81185	0	
2.3293	0.435607	-3.89225	0	
2.3300	5.3144	-1.15484	0	
2.3307	9.88827	-1.15484	0	
2.3313	10.803	-2.07444	0	
2.3320	11.4129	-0.534649	0	
2.3327	14.179	-1.15484	0	
2.3333	13.5474	-2.67325	0	
2.3340	7.7538	-2.07444	0	
2.3347	3.78978	-0.534649	0	
2.3353	3.78978	-0.235246	0	
2.3360	1.96023	-0.235246	0	
2.3367	0.740531	1.60395	0	
2.3373	3.48485	3.42176	0	
2.3380	5.61932	2.50216	0	
2.3387	4.70455	2.50216	0	
2.3393	4.39963	5.26095	0	
2.3400	3.48485	7.10014	0	
2.3407	0.740531	6.18055	0	
2.3413	-1.69887	4.96155	0	
2.3420	-2.00379	3.42176	0	
2.3427	-1.08902	4.04195	0	
2.3433	-0.174243	6.47995	0	
2.3440	-4.74811	8.61855	0	
2.3447	-12.3712	9.53815	0	
2.3453	-18.1866	8.61855	0	
2.3460	-20.9309	4.34135	0	
2.3467	-22.1506	2.20276	0	
2.3473	-20.626	5.26095	0	
2.3480	-14.8324	5.56035	0	
2.3487	-5.05304	3.42176	0	
2.3493	0.435607	4.34135	0	
2.3500	0.740531	5.26095	0	
2.3507	3.17993	3.42176	0	
2.3513	7.44887	0.384948	0	
2.3520	9.88827	-2.37384	0	
2.3527	10.803	-2.97265	0	
2.3533	9.58334	-2.67325	0	
2.3540	5.3144	-4.81185	0	
2.3547	3.17993	-6.65104	0	
2.3553	4.70455	-4.19165	0	
2.3560	4.39963	-1.15484	0	
2.3567	-1.69887	-0.235246	0	
2.3573	-7.79736	-0.235246	0	
2.3580	-4.74811	-2.07444	0	
2.3587	3.48485	-3.29344	0	
2.3593	5.92425	-2.67325	0	
2.3600	2.57008	-1.75365	0	
2.3607	0.435607	-2.67325	0	
2.3613	-1.39394	-4.19165	0	
2.3620	-3.83334	-2.97265	0	
2.3627	-6.88258	1.60395	0	
2.3633	-11.1515	3.12235	0	
2.3640	-10.2368	2.50216	0	
2.3647	-5.66289	2.82295	0	
2.3653	-6.27273	0.384948	0	
2.3660	-11.7614	-2.97265	0	
2.3667	-15.1373	1.28316	0	
2.3673	-17.2718	6.47995	0	
2.3680	-16.662	5.26095	0	
2.3687	-9.32198	3.12235	0	
2.3693	-2.30871	4.34135	0	
2.3700	-0.174243	3.74255	0	
2.3707	0.740531	0.684351	0	
2.3713	-0.174243	-0.235246	0	
2.3720	-2.61364	3.42176	0	
2.3727	-2.91856	5.26095	0	
2.3733	-1.08902	4.96155	0	
2.3740	3.17993	4.64076	0	
2.3747	9.88827	-0.235246	0	
2.3753	16.0085	-7.24985	0	
2.3760	18.143	-4.81185	0	
2.3767	17.8381	-0.534649	0	
2.3773	16.9233	-2.97265	0	
2.3780	18.4479	-2.67325	0	
2.3787	19.9726	0.384948	0	
2.3793	17.5332	-2.97265	0	
2.3800	15.0938	-7.24985	0	
2.3807	15.7036	-5.43204	0	
2.3813	13.8523	-4.19165	0	
2.3820	7.14395	-2.97265	0	
2.3827	-0.784092	0.0641579	0	
2.3833	-8.71213	0.684351	0	
2.3840	-16.662	-0.834053	0	
2.3847	-21.5407	-1.15484	0	
2.3853	-22.4555	-0.834053	0	
2.3860	-22.7604	1.60395	0	
2.3867	-21.2358	3.42176	0	
2.3873	-15.1373	3.12235	0	
2.3880	-9.6269	3.42176	0	
2.3887	-8.40721	4.34135	0	
2.3893	-6.27273	3.12235	0	
2.3900	-1.69887	-0.235246	0	
2.3907	-0.174243	-3.89225	0	
2.3913	-0.784092	-6.03085	0	
2.3920	-0.174243	-5.43204	0	
2.3927	1.96023	-4.81185	0	
2.3933	7.7538	-6.03085	0	
2.3940	12.9375	-6.65104	0	
2.3947	10.803	-4.81185	0	
2.3953	3.78978	-2.37384	0	
2.3960	0.740531	-0.834053	0	
2.3967	1.04546	0.0641579	0	
2.3973	2.57008	0.0641579	0	
2.3980	7.44887	-0.235246	0	
2.3987	11.108	0.684351	0	
2.3993	9.88827	1.90335	0	
2.4000	6.83902	1.28316	0	
2.4007	6.22917	-1.45425	0	
2.4013	7.14395	-3.59284	0	
2.4020	9.27842	-5.11125	0	
2.4027	11.4129	-7.87004	0	
2.4033	8.66857	-9.08904	0	
2.4040	3.48485	-6.65104	0	
2.4047	1.04546	-4.19165	0	
2.4053	-2.00379	-2.97265	0	
2.4060	-2.30871	-0.834053	0	
2.4067	5.00948	-0.235246	0	
2.4073	8.97349	-2.07444	0	
2.4080	5.61932	-3.59284	0	
2.4087	6.5341	-3.29344	0	
2.4093	10.1932	-2.37384	0	
2.4100	8.05872	0.0641579	0	
2.4107	5.00948	1.90335	0	
2.4113	8.36365	-0.834053	0	
2.4120	12.0227	-5.73144	0	
2.4127	11.7178	-6.33025	0	
2.4133	8.97349	-4.81185	0	
2.4140	6.22917	-3.89225	0	
2.4147	2.57008	-2.97265	0	
2.4153	-2.91856	-0.235246	0	
2.4160	-5.66289	0.0641579	0	
2.4167	-8.40721	-2.07444	0	
2.4173	-18.4915	-3.29344	0	
2.4180	-24.59	-1.75365	0	
2.4187	-16.0521	-0.235246	0	
2.4193	-7.49243	0.0641579	0	
2.4200	-6.57766	0.684351	0	
2.4207	-4.74811	0.684351	0	
2.4213	-1.69887	-0.834053	0	
2.4220	-3.52841	-1.45425	0	
2.4227	-7.49243	-0.235246	0	
2.4233	-9.01706	-0.834053	0	
2.4240	-7.79736	-2.97265	0	
2.4247	-5.05304	-2.97265	0	
2.4253	-6.27273	-2.97265	0	
2.4260	-10.8466	-5.11125	0	
2.4267	-10.2368	-2.97265	0	
2.4273	-6.27273	1.60395	0	
2.4280	-5.66289	1.28316	0	
2.4287	-6.57766	0.384948	0	
2.4293	-2.30871	2.50216	0	
2.4300	6.22917	0.384948	0	
2.4307	14.179	-2.97265	0	
2.4313	16.6184	-0.235246	0	
2.4320	13.8523	3.12235	0	
2.4327	9.88827	2.20276	0	
2.4333	7.14395	3.42176	0	
2.4340	5.3144	4.34135	0	
2.4347	5.61932	3.12235	0	
2.4353	5.00948	5.85976	0	
2.4360	-2.30871	10.137	0	
2.4367	-11.4565	9.83755	0	
2.4373	-13.9176	7.69895	0	
2.4380	-13.9176	6.77936	0	
2.4387	-15.1373	3.42176	0	
2.4393	-13.9176	-0.534649	0	
2.4400	-9.32198	-2.37384	0	
2.4407	-5.05304	-4.81185	0	
2.4413	0.435607	-6.65104	0	
2.4420	5.3144	-5.73144	0	
2.4427	5.61932	-5.43204	0	
2.4433	4.0947	-6.33025	0	
2.4440	3.78978	-7.24985	0	
2.4447	4.39963	-11.2276	0	
2.4453	6.5341	-13.0454	0	
2.4460	8.97349	-8.16944	0	
2.4467	7.7538	-4.19165	0	
2.4473	1.96023	-4.51244	0	
2.4480	-2.00379	-1.75365	0	
2.4487	-2.61364	1.90335	0	
2.4493	-3.22349	1.60395	0	
2.4500	-4.44319	0.384948	0	
2.4507	-3.83334	1.60395	0	
2.4513	-2.30871	3.12235	0	
2.4520	-2.61364	5.26095	0	
2.4527	-5.35796	6.18055	0	
2.4533	-4.74811	4.04195	0	
2.4540	0.435607	1.60395	0	
2.4547	0.740531	0.384948	0	
2.4553	-3.52841	-0.834053	0	
2.4560	-1.08902	-1.15484	0	
2.4567	5.3144	-2.07444	0	
2.4573	12.6326	-5.43204	0	
2.4580	22.107	-5.73144	0	
2.4587	25.7661	0.0641579	0	
2.4593	18.7529	2.82295	0	
2.4600	13.5474	0.684351	0	
2.4607	14.4839	1.60395	0	
2.4613	14.7888	2.50216	0	
2.4620	12.9375	-1.15484	0	
2.4627	8.97349	-0.834053	0	
2.4633	4.70455	2.50216	0	
2.4640	3.48485	0.384948	0	
2.4647	2.57008	-1.45425	0	
2.4653	-2.00379	0.983755	0	
2.4660	-4.13826	0.0641579	0	
2.4667	-1.08902	-3.59284	0	
2.4673	1.6553	-2.67325	0	
2.4680	4.0947	0.684351	0	
2.4687	6.22917	2.20276	0	
2.4693	5.3144	1.90335	0	
2.4700	2.57008	2.20276	0	
2.4707	1.96023	3.42176	0	
2.4713	1.6553	4.04195	0	
2.4720	-1.08902	3.42176	0	
2.4727	-5.66289	2.50216	0	
2.4733	-11.4565	0.983755	0	
2.4740	-16.662	0.0641579	0	
2.4747	-19.4063	0.983755	0	
2.4753	-22.7604	2.50216	0	
2.4760	-29.7737	3.42176	0	
2.4767	-31.2983	3.74255	0	
2.4773	-23.0654	4.34135	0	
2.4780	-15.1373	2.50216	0	
2.4787	-10.8466	0.684351	0	
2.4793	-6.88258	1.28316	0	
2.4800	-5.96781	2.50216	0	
2.4807	-6.88258	1.90335	0	
2.4813	-3.22349	3.42176	0	
2.4820	-0.174243	5.26095	0	
2.4827	-3.22349	4.34135	0	
2.4833	-5.66289	2.50216	0	
2.4840	-4.44319	4.04195	0	
2.4847	-2.91856	4.34135	0	
2.4853	-1.69887	0.684351	0	
2.4860	1.96023	-2.07444	0	
2.4867	7.14395	-1.15484	0	
2.4873	8.05872	0.384948	0	
2.4880	2.26515	0.0641579	0	
2.4887	-1.08902	-2.97265	0	
2.4893	-0.479167	-6.65104	0	
2.4900	-1.69887	-7.24985	0	
2.4907	-0.784092	-6.65104	0	
2.4913	5.92425	-7.54925	0	
2.4920	10.803	-6.65104	0	
2.4927	10.4981	-4.19165	0	
2.4933	8.97349	-2.07444	0	
2.4940	8.97349	-1.15484	0	
2.4947	10.803	-1.15484	0	
2.4953	10.803	-1.45425	0	
2.4960	3.78978	-0.534649	0	
2.4967	-4.13826	-0.534649	0	
2.4973	-5.66289	-3.89225	0	
2.4980	-2.91856	-7.54925	0	
2.4987	-2.00379	-8.46885	0	
2.4993	-2.91856	-8.46885	0	
2.5000	-4.74811	-7.54925	0	
2.5007	-4.74811	-3.59284	0	
2.5013	-4.74811	-0.235246	0	
2.5020	-7.49243	-1.15484	0	
2.5027	-8.10228	0.384948	0	
2.5033	-7.49243	4.34135	0	
2.5040	-7.79736	4.34135	0	
2.5047	-7.49243	1.60395	0	
2.5053	-7.18751	2.20276	0	
2.5060	-10.2368	3.12235	0	
2.5067	-11.1515	2.20276	0	
2.5073	-9.32198	3.12235	0	
2.5080	-7.79736	2.82295	0	
2.5087	-3.83334	-0.235246	0	
2.5093	2.26515	-0.235246	0	
2.5100	3.17993	1.60395	0	
2.5107	4.0947	-0.235246	0	
2.5113	9.88827	-0.235246	0	
2.5120	12.6326	1.60395	0	
2.5127	8.66857	-0.235246	0	
2.5133	3.48485	-0.235246	0	
2.5140	-2.30871	4.04195	0	
2.5147	-8.71213	2.82295	0	
2.5153	-10.5417	-0.235246	0	
2.5160	-9.6269	3.42176	0	
2.5167	-10.2368	5.26095	0	
2.5173	-10.8466	4.34135	0	
2.5180	-8.40721	7.10014	0	
2.5187	-5.66289	8.91795	0	
2.5193	-5.96781	7.39955	0	
2.5200	-8.40721	8.61855	0	
2.5207	-6.27273	8.61855	0	
2.5213	-2.91856	4.34135	0	
2.5220	-2.00379	4.04195	0	
2.5227	0.435607	3.42176	0	
2.5233	5.3144	-0.834053	0	
2.5240	5.3144	-1.15484	0	
2.5247	3.17993	-0.235246	0	
2.5253	6.83902	-3.29344	0	
2.5260	10.4981	-2.97265	0	
2.5267	8.36365	-0.534649	0	
2.5273	2.875	-2.67325	0	
2.5280	-1.69887	-2.07444	0	
2.5287	-5.05304	1.60395	0	
2.5293	-3.83334	0.684351	0	
2.5300	0.740531	-0.534649	0	
2.5307	1.04546	-0.235246	0	
2.5313	-2.00379	-1.15484	0	
2.5320	-3.22349	0.384948	0	
2.5327	-2.61364	1.28316	0	
2.5333	-2.00379	-1.15484	0	
2.5340	4.39963	-0.235246	0	
2.5347	16.0085	4.34135	0	
2.5353	20.2775	4.34135	0	
2.5360	13.5474	2.20276	0	
2.5367	8.66857	1.60395	0	
2.5373	10.1932	0.983755	0	
2.5380	12.0227	0.684351	0	
2.5387	14.179	-0.235246	0	
2.5393	19.9726	-4.81185	0	
2.5400	19.9726	-8.46885	0	
2.5407	12.3277	-7.24985	0	
2.5413	8.97349	-6.33025	0	
2.5420	6.22917	-6.33025	0	
2.5427	-5.66289	-5.11125	0	
2.5433	-13.3078	-3.59284	0	
2.5440	-9.32198	-1.75365	0	
2.5447	-7.79736	-1.45425	0	
2.5453	-13.6127	-3.59284	0	
2.5460	-16.662	-2.97265	0	
2.5467	-14.8324	-2.37384	0	
2.5473	-13.6127	-4.51244	0	
2.5480	-16.357	-4.19165	0	
2.5487	-18.4915	-0.235246	0	
2.5493	-13.9176	-0.235246	0	
2.5500	-7.79736	-1.75365	0	
2.5507	-9.32198	-0.534649	0	
2.5513	-10.2368	-0.235246	0	
2.5520	-3.52841	-1.75365	0	
2.5527	1.04546	-0.834053	0	
2.5533	1.04546	-0.235246	0	
2.5540	5.92425	-2.37384	0	
2.5547	9.27842	-3.59284	0	
2.5553	5.3144	-2.67325	0	
2.5560	4.0947	-0.834053	0	
2.5567	6.83902	-1.45425	0	
2.5573	5.61932	-4.81185	0	
2.5580	7.14395	-5.43204	0	
2.5587	14.4839	-5.73144	0	
2.5593	15.3987	-9.38844	0	
2.5600	8.97349	-10.9068	0	
2.5607	2.57008	-8.46885	0	
2.5613	-4.74811	-7.87004	0	
2.5620	-9.93183	-5.11125	0	
2.5627	-6.57766	-0.235246	0	
2.5633	0.740531	-2.07444	0	
2.5640	4.0947	-6.33025	0	
2.5647	4.39963	-4.51244	0	
2.5653	3.17993	-2.07444	0	
2.5660	-2.00379	-1.45425	0	
2.5667	-12.0663	1.60395	0	
2.5673	-19.4063	4.04195	0	
2.5680	-16.9669	4.34135	0	
2.5687	-8.10228	4.34135	0	
2.5693	-1.08902	2.82295	0	
2.5700	4.0947	0.983755	0	
2.5707	9.88827	1.28316	0	
2.5713	13.2424	1.28316	0	
2.5720	12.9375	1.90335	0	
2.5727	13.5474	2.50216	0	
2.5733	14.7888	-0.235246	0	
2.5740	14.4839	-1.15484	0	
2.5747	12.9375	-0.235246	0	
2.5753	10.803	-2.67325	0	
2.5760	6.5341	-3.89225	0	
2.5767	-0.174243	-1.15484	0	
2.5773	-5.66289	-2.97265	0	
2.5780	-6.57766	-7.54925	0	
2.5787	-2.91856	-6.65104	0	
2.5793	-0.174243	-2.37384	0	
2.5800	-2.91856	0.0641579	0	
2.5807	-7.49243	2.50216	0	
2.5813	-13.0029	4.64076	0	
2.5820	-18.1866	5.85976	0	
2.5827	-19.7112	7.39955	0	
2.5833	-18.4915	8.91795	0	
2.5840	-18.7964	6.77936	0	
2.5847	-18.1866	3.74255	0	
2.5853	-14.8324	4.34135	0	
2.5860	-15.1373	6.47995	0	
2.5867	-16.662	6.18055	0	
2.5873	-14.8324	4.96155	0	
2.5880	-12.0663	5.56035	0	
2.5887	-8.71213	5.26095	0	
2.5893	-2.61364	1.60395	0	
2.5900	4.39963	-4.51244	0	
2.5907	8.97349	-8.46885	0	
2.5913	12.0227	-7.54925	0	
2.5920	15.3987	-6.33025	0	
2.5927	18.143	-8.16944	0	
2.5933	16.3135	-5.73144	0	
2.5940	17.2282	-1.15484	0	
2.5947	28.5104	-2.37384	0	
2.5953	36.1336	-3.89225	0	
2.5960	26.376	-0.235246	0	
2.5967	14.4839	0.384948	0	
2.5973	12.3277	-0.834053	0	
2.5980	11.4129	1.60395	0	
2.5987	5.61932	2.20276	0	
2.5993	-2.91856	1.28316	0	
2.6000	-11.1515	3.12235	0	
2.6007	-18.4915	4.04195	0	
2.6013	-25.8097	4.34135	0	
2.6020	-29.4688	7.10014	0	
2.6027	-29.4688	6.18055	0	
2.6033	-33.4328	2.50216	0	
2.6040	-36.787	3.74255	0	
2.6047	-28.8589	6.18055	0	
2.6053	-16.662	5.26095	0	
2.6060	-13.0029	6.18055	0	
2.6067	-13.0029	7.99836	0	
2.6073	-9.32198	5.85976	0	
2.6080	-3.52841	3.42176	0	
2.6087	0.130682	3.74255	0	
2.6093	-0.784092	3.42176	0	
2.6100	-2.30871	0.384948	0	
2.6107	-0.174243	-1.75365	0	
2.6113	3.48485	-2.07444	0	
2.6120	6.22917	-1.45425	0	
2.6127	7.7538	-0.235246	0	
2.6133	7.14395	-0.534649	0	
2.6140	7.7538	-2.07444	0	
2.6147	8.97349	-2.67325	0	
2.6153	8.97349	-2.07444	0	
2.6160	9.58334	-2.37384	0	
2.6167	12.6326	-4.19165	0	
2.6173	12.6326	-4.81185	0	
2.6180	11.7178	-3.89225	0	
2.6187	12.6326	-5.11125	0	
2.6193	15.0938	-6.03085	0	
2.6200	17.5332	-2.07444	0	
2.6207	18.4479	0.0641579	0	
2.6213	15.0938	-4.19165	0	
2.6220	8.66857	-4.81185	0	
2.6227	1.96023	0.384948	0	
2.6233	-1.39394	0.684351	0	
2.6240	-1.08902	-2.37384	0	
2.6247	-2.91856	-1.45425	0	
2.6253	-10.2368	0.384948	0	
2.6260	-12.0663	1.90335	0	
2.6267	-5.35796	3.12235	0	
2.6273	0.740531	0.0641579	0	
2.6280	2.26515	-2.07444	0	
2.6287	-0.174243	-0.235246	0	
2.6293	-4.74811	-0.834053	0	
2.6300	-6.57766	-3.29344	0	
2.6307	-3.52841	-2.97265	0	
2.6313	-2.61364	-3.29344	0	
2.6320	-2.00379	-4.81185	0	
2.6327	2.57008	-2.07444	0	
2.6333	3.48485	0.684351	0	
2.6340	1.04546	-0.834053	0	
2.6347	1.96023	-1.45425	0	
2.6353	2.26515	-0.534649	0	
2.6360	-0.479167	-1.75365	0	
2.6367	0.740531	-4.51244	0	
2.6373	4.39963	-5.73144	0	
2.6380	4.39963	-4.19165	0	
2.6387	3.48485	-0.534649	0	
2.6393	1.04546	-0.235246	0	
2.6400	-1.69887	-3.89225	0	
2.6407	-2.00379	-4.51244	0	
2.6413	-3.22349	-2.07444	0	
2.6420	-6.57766	-2.07444	0	
2.6427	-6.57766	-2.07444	0	
2.6433	-5.66289	-1.45425	0	
2.6440	-6.57766	-1.45425	0	
2.6447	-3.83334	1.60395	0	
2.6453	0.740531	4.96155	0	
2.6460	0.740531	1.28316	0	
2.6467	2.57008	-1.75365	0	
2.6473	8.97349	0.684351	0	
2.6480	11.108	-0.235246	0	
2.6487	8.97349	-2.07444	0	
2.6493	6.22917	2.20276	0	
2.6500	4.39963	2.82295	0	
2.6507	3.48485	-2.07444	0	
2.6513	2.875	-0.534649	0	
2.6520	0.130682	3.74255	0	
2.6527	-3.83334	1.28316	0	
2.6533	-3.83334	-1.45425	0	
2.6540	-1.08902	1.90335	0	
2.6547	-2.00379	4.34135	0	
2.6553	-4.13826	1.90335	0	
2.6560	-2.00379	-0.534649	0	
2.6567	-0.174243	-1.15484	0	
2.6573	-0.479167	-2.07444	0	
2.6580	2.57008	-5.73144	0	
2.6587	6.22917	-6.65104	0	
2.6593	4.70455	-4.81185	0	
2.6600	4.39963	-5.11125	0	
2.6607	6.83902	-5.73144	0	
2.6613	5.00948	-3.89225	0	
2.6620	1.35038	-3.29344	0	
2.6627	1.6553	-2.97265	0	
2.6633	1.96023	-2.37384	0	
2.6640	1.35038	-3.29344	0	
2.6647	-0.174243	-2.97265	0	
2.6653	-4.13826	0.0641579	0	
2.6660	-7.49243	2.20276	0	
2.6667	-9.01706	1.90335	0	
2.6673	-9.32198	2.50216	0	
2.6680	-6.57766	1.90335	0	
2.6687	-2.91856	1.60395	0	
2.6693	-4.74811	2.82295	0	
2.6700	-7.18751	4.04195	0	
2.6707	-5.66289	3.42176	0	
2.6713	-4.44319	3.42176	0	
2.6720	-4.74811	4.64076	0	
2.6727	-2.91856	4.64076	0	
2.6733	5.00948	4.34135	0	
2.6740	16.3135	5.26095	0	
2.6747	19.0578	6.18055	0	
2.6753	12.9375	7.39955	0	
2.6760	10.803	8.91795	0	
2.6767	12.3277	6.47995	0	
2.6773	10.4981	0.983755	0	
2.6780	8.05872	0.384948	0	
2.6787	5.61932	0.983755	0	
2.6793	2.57008	-3.59284	0	
2.6800	0.740531	-8.46885	0	
2.6807	-3.83334	-7.24985	0	
2.6813	-14.8324	-3.59284	0	
2.6820	-24.59	-1.15484	0	
2.6827	-29.7737	-1.75365	0	
2.6833	-30.9934	-5.11125	0	
2.6840	-25.1998	-5.43204	0	
2.6847	-17.2718	-1.75365	0	
2.6853	-11.1515	-0.235246	0	
2.6860	-5.35796	-1.45425	0	
2.6867	-3.52841	0.384948	0	
2.6873	-6.57766	3.42176	0	
2.6880	-4.74811	1.90335	0	
2.6887	0.740531	0.384948	0	
2.6893	0.435607	2.50216	0	
2.6900	-3.83334	2.82295	0	
2.6907	-7.49243	0.384948	0	
2.6913	-9.32198	1.90335	0	
2.6920	-5.66289	5.26095	0	
2.6927	-0.174243	3.42176	0	
2.6933	-2.91856	0.684351	0	
2.6940	-7.49243	-0.235246	0	
2.6947	-5.66289	-2.07444	0	
2.6953	-0.479167	-1.15484	0	
2.6960	1.6553	2.20276	0	
2.6967	4.0947	3.42176	0	
2.6973	7.7538	1.90335	0	
2.6980	10.803	-2.07444	0	
2.6987	12.3277	-5.43204	0	
2.6993	11.108	-4.51244	0	
2.7000	9.88827	-5.11125	0	
2.7007	9.88827	-11.2276	0	
2.7013	8.97349	-11.2276	0	
2.7020	8.05872	-3.59284	0	
2.7027	5.00948	0.384948	0	
2.7033	-0.174243	-0.534649	0	
2.7040	-0.174243	0.983755	0	
2.7047	6.22917	2.20276	0	
2.7053	8.97349	0.983755	0	
2.7060	7.14395	2.20276	0	
2.7067	5.00948	4.96155	0	
2.7073	2.57008	5.56035	0	
2.7080	1.04546	5.26095	0	
2.7087	3.48485	4.04195	0	
2.7093	5.92425	0.983755	0	
2.7100	5.92425	0.0641579	0	
2.7107	5.3144	2.50216	0	
2.7113	1.6553	3.12235	0	
2.7120	-6.57766	-0.235246	0	
2.7127	-12.3712	-0.235246	0	
2.7133	-12.6979	3.42176	0	
2.7140	-8.71213	3.42176	0	
2.7147	-2.00379	0.684351	0	
2.7153	2.57008	1.60395	0	
2.7160	2.26515	2.50216	0	
2.7167	0.130682	1.90335	0	
2.7173	-0.174243	1.60395	0	
2.7180	-0.784092	0.684351	0	
2.7187	-3.83334	-1.15484	0	
2.7193	-5.05304	-2.07444	0	
2.7200	-2.00379	-2.37384	0	
2.7207	-0.784092	-2.97265	0	
2.7213	-8.40721	-1.75365	0	
2.7220	-15.7472	-1.15484	0	
2.7227	-13.3078	-4.81185	0	
2.7233	-7.79736	-8.78964	0	
2.7240	-5.66289	-11.2276	0	
2.7247	-3.83334	-10.6074	0	
2.7253	-4.13826	-6.95044	0	
2.7260	-7.49243	-3.29344	0	
2.7267	-8.10228	-1.45425	0	
2.7273	-5.35796	-0.534649	0	
2.7280	-2.61364	0.384948	0	
2.7287	1.35038	0.684351	0	
2.7293	5.3144	-0.235246	0	
2.7300	5.3144	-3.59284	0	
2.7307	5.3144	-6.03085	0	
2.7313	6.5341	-5.73144	0	
2.7320	5.3144	-6.65104	0	
2.7327	4.39963	-7.24985	0	
2.7333	7.14395	-6.03085	0	
2.7340	6.83902	-5.73144	0	
2.7347	-1.69887	-3.29344	0	
2.7353	-10.2368	2.82295	0	
2.7360	-10.2368	4.34135	0	
2.7367	-4.74811	1.60395	0	
2.7373	-0.174243	0.983755	0	
2.7380	1.6553	-0.235246	0	
2.7387	2.57008	-3.89225	0	
2.7393	0.740531	-3.89225	0	
2.7400	-2.00379	-2.07444	0	
2.7407	0.740531	-3.89225	0	
2.7413	5.3144	-5.73144	0	
2.7420	5.61932	-2.37384	0	
2.7427	5.92425	0.684351	0	
2.7433	8.97349	-2.97265	0	
2.7440	11.7178	-7.54925	0	
2.7447	13.2424	-6.03085	0	
2.7453	10.803	-2.07444	0	
2.7460	6.83902	-2.07444	0	
2.7467	7.7538	-2.97265	0	
2.7473	10.803	-2.37384	0	
2.7480	8.05872	-1.75365	0	
2.7487	4.70455	-1.15484	0	
2.7493	8.36365	-0.534649	0	
2.7500	14.4839	0.384948	0	
2.7507	20.8873	0.684351	0	
2.7513	25.4612	0.384948	0	
2.7520	22.412	1.90335	0	
2.7527	13.5474	4.96155	0	
2.7533	7.14395	5.56035	0	
2.7540	3.48485	4.96155	0	
2.7547	1.04546	6.47995	0	
2.7553	-2.00379	7.39955	0	
2.7560	-7.49243	6.18055	0	
2.7567	-12.0663	5.56035	0	
2.7573	-16.662	5.85976	0	
2.7580	-23.6752	4.34135	0	
2.7587	-23.9801	2.20276	0	
2.7593	-13.0029	-0.534649	0	
2.7600	-5.96781	-3.59284	0	
2.7607	-6.57766	-1.15484	0	
2.7613	-5.66289	5.85976	0	
2.7620	-5.96781	8.91795	0	
2.7627	-11.4565	6.18055	0	
2.7633	-13.9176	4.04195	0	
2.7640	-12.0663	3.42176	0	
2.7647	-12.0663	2.20276	0	
2.7653	-10.8466	1.28316	0	
2.7660	-9.32198	0.983755	0	
2.7667	-12.0663	-0.235246	0	
2.7673	-13.9176	-2.07444	0	
2.7680	-9.93183	-1.15484	0	
2.7687	-6.27273	1.60395	0	
2.7693	-3.22349	2.50216	0	
2.7700	0.740531	1.60395	0	
2.7707	1.04546	0.684351	0	
2.7713	0.740531	-0.834053	0	
2.7720	5.3144	-1.45425	0	
2.7727	8.66857	-1.15484	0	
2.7733	8.05872	-2.07444	0	
2.7740	8.66857	-3.59284	0	
2.7747	8.05872	-1.15484	0	
2.7753	4.39963	1.90335	0	
2.7760	3.78978	0.983755	0	
2.7767	3.48485	2.50216	0	
2.7773	0.740531	5.56035	0	
2.7780	-0.174243	2.50216	0	
2.7787	0.740531	-1.75365	0	
2.7793	0.740531	-0.235246	0	
2.7800	3.48485	2.50216	0	
2.7807	8.97349	1.60395	0	
2.7813	9.88827	0.384948	0	
2.7820	8.36365	-1.15484	0	
2.7827	9.58334	-2.07444	0	
2.7833	10.803	-1.15484	0	
2.7840	8.36365	-0.235246	0	
2.7847	5.00948	-1.15484	0	
2.7853	5.3144	-2.37384	0	
2.7860	7.14395	-5.11125	0	
2.7867	4.0947	-4.81185	0	
2.7873	-5.05304	-0.534649	0	
2.7880	-14.8324	1.90335	0	
2.7887	-19.4063	1.90335	0	
2.7893	-17.5767	2.50216	0	
2.7900	-15.1373	3.12235	0	
2.7907	-17.2718	3.42176	0	
2.7913	-18.4915	4.96155	0	
2.7920	-13.9176	5.26095	0	
2.7927	-7.18751	4.34135	0	
2.7933	-3.83334	2.20276	0	
2.7940	-1.39394	-0.534649	0	
2.7947	-1.69887	0.684351	0	
2.7953	-5.66289	4.34135	0	
2.7960	-9.6269	4.34135	0	
2.7967	-7.79736	2.82295	0	
2.7973	-0.174243	0.684351	0	
2.7980	8.05872	-2.37384	0	
2.7987	9.88827	-2.37384	0	
2.7993	6.5341	-1.15484	0	
2.8000	4.39963	-3.29344	0	
2.8007	4.39963	-2.97265	0	
2.8013	3.48485	0.983755	0	
2.8020	2.875	-0.235246	0	
2.8027	5.00948	-1.15484	0	
2.8033	6.22917	2.20276	0	
2.8040	4.39963	-0.834053	0	
2.8047	2.26515	-5.73144	0	
2.8053	1.04546	-2.97265	0	
2.8060	0.740531	-0.534649	0	
2.8067	1.6553	-1.15484	0	
2.8073	1.6553	1.28316	0	
2.8080	-3.83334	3.12235	0	
2.8087	-8.10228	-0.235246	0	
2.8093	-5.05304	-3.29344	0	
2.8100	0.740531	-2.97265	0	
2.8107	8.05872	-2.67325	0	
2.8113	17.5332	-5.11125	0	
2.8120	22.107	-8.16944	0	
2.8127	17.2282	-6.65104	0	
2.8133	15.3987	-2.37384	0	
2.8140	19.6676	-1.15484	0	
2.8147	20.8873	0.0641579	0	
2.8153	17.2282	1.60395	0	
2.8160	13.5474	-2.67325	0	
2.8167	8.97349	-5.11125	0	
2.8173	3.78978	-1.15484	0	
2.8180	-0.479167	-0.235246	0	
2.8187	-8.71213	-3.89225	0	
2.8193	-20.0161	-2.07444	0	
2.8200	-27.6392	1.60395	0	
2.8207	-27.3343	-0.534649	0	
2.8213	-18.4915	-3.59284	0	
2.8220	-7.79736	-3.29344	0	
2.8227	-2.61364	-1.15484	0	
2.8233	-2.00379	0.684351	0	
2.8240	-3.22349	-1.75365	0	
2.8247	-5.66289	-5.43204	0	
2.8253	-7.49243	-2.07444	0	
2.8260	-9.6269	4.64076	0	
2.8267	-11.1515	4.96155	0	
2.8273	-9.6269	2.82295	0	
2.8280	-8.71213	4.34135	0	
2.8287	-13.9176	5.85976	0	
2.8293	-17.5767	4.96155	0	
2.8300	-13.6127	5.26095	0	
2.8307	-7.49243	7.10014	0	
2.8313	-5.66289	7.69895	0	
2.8320	-6.57766	6.77936	0	
2.8327	-5.05304	5.26095	0	
2.8333	-3.22349	5.56035	0	
2.8340	-2.91856	6.47995	0	
2.8347	-1.69887	4.04195	0	
2.8353	3.17993	0.0641579	0	
2.8360	6.5341	-0.834053	0	
2.8367	5.3144	-1.15484	0	
2.8373	2.57008	-3.29344	0	
2.8380	4.0947	-3.89225	0	
2.8387	6.22917	-5.73144	0	
2.8393	3.48485	-8.78964	0	
2.8400	-1.39394	-8.16944	0	
2.8407	-4.74811	-4.19165	0	
2.8413	-4.74811	-0.834053	0	
2.8420	-2.00379	0.684351	0	
2.8427	-1.69887	-0.235246	0	
2.8433	-3.83334	-1.75365	0	
2.8440	-3.83334	-1.15484	0	
2.8447	-2.61364	-1.15484	0	
2.8453	-2.30871	-1.15484	0	
2.8460	0.435607	1.60395	0	
2.8467	3.78978	2.50216	0	
2.8473	3.17993	0.684351	0	
2.8480	4.0947	1.90335	0	
2.8487	9.58334	2.50216	0	
2.8493	12.3277	-1.15484	0	
2.8500	9.88827	-2.67325	0	
2.8507	7.7538	-0.834053	0	
2.8513	5.3144	-1.45425	0	
2.8520	2.57008	-2.37384	0	
2.8527	-0.479167	-1.15484	0	
2.8533	-3.83334	-0.235246	0	
2.8540	-3.22349	0.0641579	0	
2.8547	-0.479167	1.60395	0	
2.8553	-1.39394	0.384948	0	
2.8560	-1.08902	-2.37384	0	
2.8567	2.875	-2.97265	0	
2.8573	3.48485	-2.37384	0	
2.8580	1.6553	-4.81185	0	
2.8587	2.57008	-6.65104	0	
2.8593	4.39963	-5.11125	0	
2.8600	7.14395	-4.51244	0	
2.8607	9.88827	-6.33025	0	
2.8613	8.97349	-6.65104	0	
2.8620	5.92425	-5.73144	0	
2.8627	3.17993	-4.51244	0	
2.8633	-1.08902	-2.67325	0	
2.8640	-3.83334	-1.75365	0	
2.8647	-1.08902	-2.37384	0	
2.8653	1.04546	-1.75365	0	
2.8660	-0.479167	0.0641579	0	
2.8667	-3.22349	1.60395	0	
2.8673	-5.96781	4.34135	0	
2.8680	-3.22349	5.85976	0	
2.8687	5.3144	3.74255	0	
2.8693	9.88827	2.50216	0	
2.8700	9.27842	4.04195	0	
2.8707	9.58334	3.74255	0	
2.8713	9.88827	3.42176	0	
2.8720	10.1932	5.26095	0	
2.8727	12.3277	6.18055	0	
2.8733	14.179	4.34135	0	
2.8740	15.7036	1.90335	0	
2.8747	17.2282	-0.834053	0	
2.8753	13.2424	-2.37384	0	
2.8760	1.6553	-1.75365	0	
2.8767	-9.6269	-0.834053	0	
2.8773	-13.9176	-0.235246	0	
2.8780	-12.0663	1.60395	0	
2.8787	-11.1515	-0.235246	0	
2.8793	-12.0663	-4.19165	0	
2.8800	-11.1515	-2.37384	0	
2.8807	-7.79736	1.28316	0	
2.8813	-6.57766	-1.45425	0	
2.8820	-5.66289	-4.81185	0	
2.8827	-2.91856	-2.67325	0	
2.8833	-5.96781	-1.45425	0	
2.8840	-13.6127	-1.45425	0	
2.8847	-12.6979	1.28316	0	
2.8853	-4.74811	2.82295	0	
2.8860	0.435607	1.28316	0	
2.8867	5.3144	-0.235246	0	
2.8873	8.97349	-1.15484	0	
2.8880	1.6553	-0.534649	0	
2.8887	-8.10228	-0.834053	0	
2.8893	-8.40721	-2.97265	0	
2.8900	-6.57766	-3.89225	0	
2.8907	-8.71213	-3.29344	0	
2.8913	-9.01706	-5.11125	0	
2.8920	-5.66289	-3.89225	0	
2.8927	-2.30871	-0.235246	0	
2.8933	-3.52841	-0.534649	0	
2.8940	-8.10228	-2.37384	0	
2.8947	-6.57766	-2.07444	0	
2.8953	1.04546	-2.37384	0	
2.8960	3.17993	-0.235246	0	
2.8967	-1.08902	3.42176	0	
2.8973	-2.30871	1.90335	0	
2.8980	0.130682	-1.75365	0	
2.8987	3.48485	-2.07444	0	
2.8993	5.3144	-2.37384	0	
2.9000	4.70455	-2.67325	0	
2.9007	6.22917	0.0641579	0	
2.9013	7.7538	0.684351	0	
2.9020	3.78978	-2.97265	0	
2.9027	4.0947	-6.03085	0	
2.9033	12.0227	-9.38844	0	
2.9040	15.3987	-12.1259	0	
2.9047	11.7178	-11.2276	0	
2.9053	6.22917	-7.87004	0	
2.9060	-4.13826	-4.81185	0	
2.9067	-13.6127	0.684351	0	
2.9073	-11.4565	6.18055	0	
2.9080	-6.57766	6.18055	0	
2.9087	-6.88258	2.20276	0	
2.9093	-4.44319	1.60395	0	
2.9100	0.740531	3.42176	0	
2.9107	0.740531	2.50216	0	
2.9113	-1.08902	0.684351	0	
2.9120	0.740531	0.983755	0	
2.9127	0.740531	0.983755	0	
2.9133	-2.91856	0.0641579	0	
2.9140	-3.22349	1.60395	0	
2.9147	1.35038	5.26095	0	
2.9153	6.22917	6.18055	0	
2.9160	6.22917	4.04195	0	
2.9167	-0.174243	1.28316	0	
2.9173	-4.74811	-0.235246	0	
2.9180	-2.61364	-0.235246	0	
2.9187	-2.91856	-0.235246	0	
2.9193	-10.5417	-0.834053	0	
2.9200	-16.357	0.0641579	0	
2.9207	-16.9669	2.50216	0	
2.9213	-16.357	1.90335	0	
2.9220	-13.6127	-0.834053	0	
2.9227	-8.40721	-1.15484	0	
2.9233	-4.74811	0.0641579	0	
2.9240	-2.00379	-0.235246	0	
2.9247	1.35038	-1.15484	0	
2.9253	4.0947	-2.97265	0	
2.9260	6.83902	-5.11125	0	
2.9267	8.97349	-3.89225	0	
2.9273	7.14395	-0.834053	0	
2.9280	5.61932	-1.15484	0	
2.9287	5.3144	-3.89225	0	
2.9293	3.17993	-3.89225	0	
2.9300	2.57008	-2.97265	0	
2.9307	6.22917	-2.97265	0	
2.9313	8.05872	-1.75365	0	
2.9320	3.48485	-0.235246	0	
2.9327	1.6553	-2.07444	0	
2.9333	7.14395	-3.59284	0	
2.9340	12.6326	-0.834053	0	
2.9347	10.803	0.983755	0	
2.9353	5.3144	0.384948	0	
2.9360	1.6553	0.684351	0	
2.9367	-1.08902	1.28316	0	
2.9373	-5.66289	0.983755	0	
2.9380	-9.6269	2.20276	0	
2.9387	-9.6269	3.12235	0	
2.9393	-7.79736	2.20276	0	
2.9400	-9.01706	2.50216	0	
2.9407	-11.7614	2.50216	0	
