0.0000	-7.32204	7.22322	1
0.0007	-4.57086	4.47609	0	
0.0013	-1.5164	4.78346	0	
0.0020	1.84134	2.03633	0	
0.0027	2.75118	0.806849	0	
0.0033	0.931502	3.2466	0	
0.0040	1.84134	0.806849	0	
0.0047	4.8958	-2.22844	0	
0.0053	3.3794	0.499478	0	
0.0060	-2.12296	2.95844	0	
0.0067	-2.72952	0.806849	0	
0.0073	1.84134	-1.94028	0	
0.0080	4.28924	-5.59031	0	
0.0087	4.8958	-8.95218	0	
0.0093	10.3982	-10.4698	0	
0.0100	18.0235	-12.314	0	
0.0107	20.1464	-13.2169	0	
0.0113	16.1821	-11.0846	0	
0.0120	14.6657	-8.03006	0	
0.0127	19.5399	-4.68741	0	
0.0133	22.2911	-1.63291	0	
0.0140	17.4169	-1.94028	0	
0.0147	12.2178	-2.22844	0	
0.0153	11.6113	-0.0960534	0	
0.0160	8.25354	0.499478	0	
0.0167	2.75118	-1.01817	0	
0.0173	0.931502	-0.710795	0	
0.0180	1.23478	-0.0960534	0	
0.0187	-0.606559	-0.0960534	0	
0.0193	-3.0328	0.211317	0	
0.0200	-5.4807	0.499478	0	
0.0207	-6.39054	0.499478	0	
0.0213	-5.17742	-0.403424	0	
0.0220	-3.33608	-0.0960534	0	
0.0227	-2.72952	3.2466	0	
0.0233	-2.72952	4.47609	0	
0.0240	-1.5164	1.72896	0	
0.0247	-0.909839	0.806849	0	
0.0253	-1.5164	3.86135	0	
0.0260	-1.81968	3.55398	0	
0.0267	-1.5164	-1.01817	0	
0.0273	-1.81968	-1.63291	0	
0.0280	-4.87414	0.806849	0	
0.0287	-10.6581	0.211317	0	
0.0293	-12.1962	-3.15055	0	
0.0300	-6.08726	-5.28294	0	
0.0307	-3.63936	-5.28294	0	
0.0313	-10.9831	-4.68741	0	
0.0320	-16.4638	-3.76529	0	
0.0327	-17.3736	-2.84318	0	
0.0333	-18.9117	-2.22844	0	
0.0340	-15.2506	-3.45792	0	
0.0347	-6.39054	-4.97557	0	
0.0353	-4.26758	-4.38003	0	
0.0360	-5.78398	-2.84318	0	
0.0367	-4.57086	-2.53581	0	
0.0373	-4.57086	-1.01817	0	
0.0380	-5.17742	0.806849	0	
0.0387	-3.63936	0.211317	0	
0.0393	-3.9643	-0.0960534	0	
0.0400	-4.57086	0.499478	0	
0.0407	-0.606559	-0.0960534	0	
0.0413	2.75118	-0.403424	0	
0.0420	3.05446	0.806849	0	
0.0427	2.75118	1.72896	0	
0.0433	0.931502	3.2466	0	
0.0440	-1.5164	5.09083	0	
0.0447	-1.5164	5.3982	0	
0.0453	-1.21312	5.3982	0	
0.0460	-3.0328	2.03633	0	
0.0467	-3.63936	-4.68741	0	
0.0473	-0.606559	-5.28294	0	
0.0480	1.23478	-1.63291	0	
0.0487	0.628222	-3.76529	0	
0.0493	1.84134	-7.72269	0	
0.0500	7.04042	-4.68741	0	
0.0507	9.16338	-1.32554	0	
0.0513	8.25354	-2.53581	0	
0.0520	9.46666	-4.38003	0	
0.0527	11.6113	-3.76529	0	
0.0533	9.76994	-2.84318	0	
0.0540	9.16338	-1.63291	0	
0.0547	11.308	-0.710795	0	
0.0553	9.46666	-1.01817	0	
0.0560	0.931502	0.211317	0	
0.0567	-8.23188	4.47609	0	
0.0573	-10.6581	6.60847	0	
0.0580	-9.14172	4.47609	0	
0.0587	-10.0516	4.78346	0	
0.0593	-11.5896	8.14533	0	
0.0600	-6.39054	5.99373	0	
0.0607	1.84134	1.11422	0	
0.0613	3.3794	2.65107	0	
0.0620	0.324943	6.3011	0	
0.0627	-4.57086	5.99373	0	
0.0633	-9.74828	5.3982	0	
0.0640	-10.3548	7.53059	0	
0.0647	-7.32204	8.14533	0	
0.0653	-4.57086	5.3982	0	
0.0660	1.84134	1.72896	0	
0.0667	9.16338	-4.07266	0	
0.0673	9.76994	-8.95218	0	
0.0680	11.9146	-9.87429	0	
0.0687	13.7559	-8.33743	0	
0.0693	3.05446	-8.03006	0	
0.0700	-10.6581	-6.81979	0	
0.0707	-14.0159	-4.38003	0	
0.0713	-15.2506	-4.68741	0	
0.0720	-16.1605	-6.81979	0	
0.0727	-10.9831	-6.20505	0	
0.0733	-6.69382	-4.38003	0	
0.0740	-6.9971	-3.76529	0	
0.0747	-5.4807	-2.22844	0	
0.0753	-5.4807	0.806849	0	
0.0760	-10.0516	2.03633	0	
0.0767	-10.0516	2.03633	0	
0.0773	-5.78398	1.72896	0	
0.0780	-3.63936	2.65107	0	
0.0787	-4.26758	2.65107	0	
0.0793	-3.63936	0.806849	0	
0.0800	-0.909839	-0.403424	0	
0.0807	3.68268	1.72896	0	
0.0813	6.4122	1.72896	0	
0.0820	3.68268	-0.0960534	0	
0.0827	-1.21312	2.65107	0	
0.0833	-2.42624	4.16872	0	
0.0840	0.628222	0.806849	0	
0.0847	1.23478	-0.403424	0	
0.0853	-1.81968	1.42159	0	
0.0860	-2.42624	0.806849	0	
0.0867	0.628222	-0.0960534	0	
0.0873	2.75118	-0.0960534	0	
0.0880	3.05446	-2.84318	0	
0.0887	1.84134	-2.84318	0	
0.0893	-2.72952	1.72896	0	
0.0900	-5.17742	2.65107	0	
0.0907	-2.12296	-1.01817	0	
0.0913	0.628222	-1.01817	0	
0.0920	-0.909839	1.72896	0	
0.0927	-2.12296	0.806849	0	
0.0933	-0.909839	-0.710795	0	
0.0940	0.0216628	1.72896	0	
0.0947	-2.12296	4.47609	0	
0.0953	-4.87414	3.55398	0	
0.0960	-4.57086	2.3437	0	
0.0967	-0.30328	0.806849	0	
0.0973	4.28924	-2.22844	0	
0.0980	5.19908	-3.76529	0	
0.0987	3.98596	-2.22844	0	
0.0993	3.68268	-1.63291	0	
0.1000	1.53806	-2.84318	0	
0.1007	-0.909839	-4.38003	0	
0.1013	-0.909839	-4.07266	0	
0.1020	-0.909839	-1.32554	0	
0.1027	-2.72952	1.42159	0	
0.1033	-3.63936	2.3437	0	
0.1040	-2.12296	1.72896	0	
0.1047	-1.21312	0.806849	0	
0.1053	-1.5164	-1.32554	0	
0.1060	-0.606559	-2.22844	0	
0.1067	0.931502	-1.01817	0	
0.1073	-1.21312	-0.710795	0	
0.1080	-4.57086	-1.01817	0	
0.1087	-4.57086	-1.01817	0	
0.1093	-3.9643	-0.710795	0	
0.1100	-8.23188	0.499478	0	
0.1107	-11.5896	0.211317	0	
0.1113	-8.83844	-1.01817	0	
0.1120	-6.08726	-0.710795	0	
0.1127	-7.9286	0.211317	0	
0.1133	-9.14172	0.806849	0	
0.1140	-6.69382	1.42159	0	
0.1147	-4.57086	-0.0960534	0	
0.1153	-5.4807	-1.01817	0	
0.1160	-4.87414	1.72896	0	
0.1167	-0.606559	1.72896	0	
0.1173	0.0216628	-0.403424	0	
0.1180	0.0216628	0.806849	0	
0.1187	4.28924	0.806849	0	
0.1193	7.95026	-2.53581	0	
0.1200	7.3437	-1.01817	0	
0.1207	8.8601	1.72896	0	
0.1213	12.2178	-0.0960534	0	
0.1220	13.431	-1.94028	0	
0.1227	12.8244	-1.32554	0	
0.1233	11.308	-3.15055	0	
0.1240	8.55682	-5.89768	0	
0.1247	7.64698	-6.51242	0	
0.1253	8.25354	-3.76529	0	
0.1260	6.10892	1.11422	0	
0.1267	2.75118	2.65107	0	
0.1273	0.628222	1.72896	0	
0.1280	-4.26758	3.2466	0	
0.1287	-10.3548	4.47609	0	
0.1293	-11.2863	1.72896	0	
0.1300	-10.0516	0.211317	0	
0.1307	-13.7126	1.11422	0	
0.1313	-16.1605	1.42159	0	
0.1320	-12.8027	2.95844	0	
0.1327	-10.3548	5.99373	0	
0.1333	-11.5896	5.3982	0	
0.1340	-10.9831	2.65107	0	
0.1347	-9.445	2.3437	0	
0.1353	-6.9971	2.3437	0	
0.1360	-2.42624	1.11422	0	
0.1367	0.0216628	2.3437	0	
0.1373	-1.81968	4.47609	0	
0.1380	-2.72952	2.95844	0	
0.1387	-1.5164	2.03633	0	
0.1393	-2.72952	3.55398	0	
0.1400	-2.72952	2.65107	0	
0.1407	2.4479	0.806849	0	
0.1413	6.10892	-0.0960534	0	
0.1420	2.75118	-2.53581	0	
0.1427	-0.606559	-4.97557	0	
0.1433	2.14462	-5.59031	0	
0.1440	8.25354	-6.20505	0	
0.1447	15.5756	-7.72269	0	
0.1453	20.1464	-9.87429	0	
0.1460	18.0235	-12.6214	0	
0.1467	14.0592	-13.8317	0	
0.1473	14.0592	-13.8317	0	
0.1480	13.431	-12.6214	0	
0.1487	9.46666	-10.1817	0	
0.1493	4.59252	-7.43453	0	
0.1500	-0.909839	-4.68741	0	
0.1507	-5.17742	-2.84318	0	
0.1513	-5.4807	-3.45792	0	
0.1520	-3.9643	-2.22844	0	
0.1527	-0.909839	2.03633	0	
0.1533	0.324943	2.65107	0	
0.1540	-3.33608	-0.0960534	0	
0.1547	-7.32204	1.42159	0	
0.1553	-6.39054	4.16872	0	
0.1560	-6.39054	5.3982	0	
0.1567	-9.14172	9.04823	0	
0.1573	-9.14172	11.1806	0	
0.1580	-6.08726	9.04823	0	
0.1587	-6.39054	7.22322	0	
0.1593	-7.32204	6.3011	0	
0.1600	-4.57086	4.78346	0	
0.1607	-1.81968	3.55398	0	
0.1613	0.324943	0.806849	0	
0.1620	2.75118	-1.01817	0	
0.1627	0.324943	-0.0960534	0	
0.1633	-4.87414	1.72896	0	
0.1640	-5.4807	0.211317	0	
0.1647	-3.33608	1.42159	0	
0.1653	-3.63936	5.09083	0	
0.1660	1.23478	2.95844	0	
0.1667	12.8244	-3.45792	0	
0.1673	16.7887	-6.51242	0	
0.1680	8.25354	-6.51242	0	
0.1687	2.75118	-6.51242	0	
0.1693	5.80564	-4.07266	0	
0.1700	7.95026	-0.0960534	0	
0.1707	7.64698	-0.403424	0	
0.1713	10.3982	-2.84318	0	
0.1720	12.8244	-1.32554	0	
0.1727	12.8244	-0.0960534	0	
0.1733	13.7559	-2.53581	0	
0.1740	14.3625	-4.07266	0	
0.1747	9.46666	-3.45792	0	
0.1753	0.0216628	-2.84318	0	
0.1760	-7.32204	-2.22844	0	
0.1767	-10.6581	-1.63291	0	
0.1773	-16.4638	-2.22844	0	
0.1780	-25.3239	-1.94028	0	
0.1787	-25.6271	-0.403424	0	
0.1793	-17.3736	0.499478	0	
0.1800	-11.8929	1.11422	0	
0.1807	-10.3548	2.95844	0	
0.1813	-9.14172	5.3982	0	
0.1820	-10.0516	6.3011	0	
0.1827	-11.8929	7.22322	0	
0.1833	-10.6581	9.04823	0	
0.1840	-7.9286	8.14533	0	
0.1847	-7.32204	4.47609	0	
0.1853	-7.32204	2.65107	0	
0.1860	-2.72952	3.55398	0	
0.1867	2.4479	3.55398	0	
0.1873	2.14462	2.3437	0	
0.1880	0.931502	3.55398	0	
0.1887	2.14462	4.47609	0	
0.1893	1.84134	1.42159	0	
0.1900	0.0216628	-1.01817	0	
0.1907	4.28924	-0.403424	0	
0.1913	11.9146	0.211317	0	
0.1920	13.431	-1.01817	0	
0.1927	6.73714	-1.94028	0	
0.1933	2.75118	-1.63291	0	
0.1940	5.50236	-1.01817	0	
0.1947	6.4122	-0.403424	0	
0.1953	2.75118	-0.0960534	0	
0.1960	2.14462	0.211317	0	
0.1967	2.14462	1.72896	0	
0.1973	-2.72952	2.03633	0	
0.1980	-6.39054	0.806849	0	
0.1987	-6.39054	1.11422	0	
0.1993	-10.6581	1.72896	0	
0.2000	-14.9474	1.42159	0	
0.2007	-14.0159	2.65107	0	
0.2013	-12.8027	3.55398	0	
0.2020	-12.8027	2.03633	0	
0.2027	-9.445	1.42159	0	
0.2033	-5.78398	2.65107	0	
0.2040	-5.78398	1.72896	0	
0.2047	-5.78398	0.806849	0	
0.2053	-4.57086	1.72896	0	
0.2060	-2.72952	0.806849	0	
0.2067	1.84134	-3.15055	0	
0.2073	5.19908	-5.59031	0	
0.2080	3.68268	-4.68741	0	
0.2087	2.14462	-2.53581	0	
0.2093	3.3794	-3.76529	0	
0.2100	3.3794	-5.59031	0	
0.2107	3.05446	-3.76529	0	
0.2113	3.3794	-1.63291	0	
0.2120	1.84134	-1.01817	0	
0.2127	2.75118	0.806849	0	
0.2133	3.68268	1.42159	0	
0.2140	2.75118	-1.01817	0	
0.2147	6.4122	-2.84318	0	
0.2153	11.9146	-4.38003	0	
0.2160	8.25354	-4.97557	0	
0.2167	2.75118	-3.45792	0	
0.2173	4.59252	-1.32554	0	
0.2180	4.59252	-1.01817	0	
0.2187	1.53806	-1.32554	0	
0.2193	1.84134	-1.94028	0	
0.2200	-0.909839	-1.01817	0	
0.2207	-7.32204	2.3437	0	
0.2213	-9.74828	3.2466	0	
0.2220	-10.6581	-0.0960534	0	
0.2227	-11.8929	0.499478	0	
0.2233	-7.9286	2.3437	0	
0.2240	0.0216628	-0.710795	0	
0.2247	6.4122	-3.45792	0	
0.2253	9.46666	-2.84318	0	
0.2260	9.16338	-3.76529	0	
0.2267	7.95026	-2.22844	0	
0.2273	8.25354	0.499478	0	
0.2280	9.16338	-2.84318	0	
0.2287	11.308	-7.43453	0	
0.2293	14.6657	-7.72269	0	
0.2300	16.1821	-8.95218	0	
0.2307	14.969	-11.0846	0	
0.2313	13.431	-8.33743	0	
0.2320	8.8601	-4.38003	0	
0.2327	1.84134	-4.07266	0	
0.2333	-1.81968	-4.68741	0	
0.2340	-3.63936	-4.97557	0	
0.2347	-5.78398	-5.59031	0	
0.2353	-7.32204	-4.07266	0	
0.2360	-8.23188	-3.76529	0	
0.2367	-8.83844	-3.76529	0	
0.2373	-7.32204	-1.63291	0	
0.2380	-5.17742	-1.01817	0	
0.2387	-5.4807	-2.84318	0	
0.2393	-7.62532	-1.63291	0	
0.2400	-10.0516	0.806849	0	
0.2407	-12.4995	0.211317	0	
0.2413	-11.2863	-0.710795	0	
0.2420	-7.32204	1.42159	0	
0.2427	-8.23188	4.47609	0	
0.2433	-12.1962	5.09083	0	
0.2440	-10.3548	2.03633	0	
0.2447	-3.63936	-0.0960534	0	
0.2453	-2.12296	0.806849	0	
0.2460	-4.57086	1.72896	0	
0.2467	-2.12296	-0.0960534	0	
0.2473	4.28924	-2.22844	0	
0.2480	6.4122	-3.76529	0	
0.2487	1.53806	-2.84318	0	
0.2493	-3.9643	-1.01817	0	
0.2500	-4.57086	-0.403424	0	
0.2507	-1.21312	-1.01817	0	
0.2513	0.628222	-1.94028	0	
0.2520	-0.909839	-1.01817	0	
0.2527	-4.26758	2.65107	0	
0.2533	-4.57086	4.78346	0	
0.2540	-3.63936	2.65107	0	
0.2547	-5.4807	0.806849	0	
0.2553	-9.14172	2.65107	0	
0.2560	-10.9831	5.3982	0	
0.2567	-12.4995	5.3982	0	
0.2573	-11.8929	3.55398	0	
0.2580	-6.39054	4.47609	0	
0.2587	-1.81968	5.3982	0	
0.2593	-1.81968	4.16872	0	
0.2600	-0.30328	4.47609	0	
0.2607	5.50236	5.3982	0	
0.2613	8.8601	2.65107	0	
0.2620	11.0047	-0.0960534	0	
0.2627	17.7202	0.211317	0	
0.2633	23.2009	0.806849	0	
0.2640	18.63	-0.403424	0	
0.2647	7.95026	-2.84318	0	
0.2653	0.931502	-5.28294	0	
0.2660	-0.909839	-5.59031	0	
0.2667	-1.21312	-5.59031	0	
0.2673	2.4479	-4.68741	0	
0.2680	8.55682	-3.15055	0	
0.2687	9.46666	-1.94028	0	
0.2693	7.95026	-1.94028	0	
0.2700	7.04042	-1.94028	0	
0.2707	3.05446	-2.22844	0	
0.2713	-1.81968	-0.0960534	0	
0.2720	-1.81968	1.42159	0	
0.2727	-0.606559	-1.94028	0	
0.2733	-1.5164	-2.22844	0	
0.2740	-0.909839	0.806849	0	
0.2747	-0.30328	-0.0960534	0	
0.2753	-2.72952	0.806849	0	
0.2760	-3.9643	5.09083	0	
0.2767	-0.30328	3.2466	0	
0.2773	2.75118	-0.403424	0	
0.2780	1.84134	2.03633	0	
0.2787	-1.81968	2.65107	0	
0.2793	-6.9971	-0.710795	0	
0.2800	-12.8027	0.211317	0	
0.2807	-17.0703	2.65107	0	
0.2813	-21.9661	3.2466	0	
0.2820	-25.6271	4.47609	0	
0.2827	-22.876	6.60847	0	
0.2833	-16.4638	7.83796	0	
0.2840	-12.8027	7.22322	0	
0.2847	-10.9831	5.3982	0	
0.2853	-5.4807	5.3982	0	
0.2860	0.931502	4.47609	0	
0.2867	2.75118	-0.403424	0	
0.2873	2.75118	-4.38003	0	
0.2880	5.50236	-4.07266	0	
0.2887	7.3437	-4.07266	0	
0.2893	9.16338	-4.68741	0	
0.2900	16.1821	-4.68741	0	
0.2907	24.4357	-4.97557	0	
0.2913	28.4	-5.89768	0	
0.2920	29.0065	-7.43453	0	
0.2927	27.7934	-8.64481	0	
0.2933	24.739	-7.12716	0	
0.2940	19.2366	-3.76529	0	
0.2947	11.0047	-1.32554	0	
0.2953	3.98596	0.211317	0	
0.2960	0.0216628	1.11422	0	
0.2967	-5.4807	0.211317	0	
0.2973	-8.83844	-0.0960534	0	
0.2980	-7.9286	1.42159	0	
0.2987	-11.2863	2.03633	0	
0.2993	-20.1248	1.42159	0	
0.3000	-22.876	0.211317	0	
0.3007	-18.9117	1.72896	0	
0.3013	-14.6441	3.55398	0	
0.3020	-10.6581	2.65107	0	
0.3027	-6.69382	1.11422	0	
0.3033	-7.32204	0.499478	0	
0.3040	-7.62532	-1.94028	0	
0.3047	-2.72952	-3.15055	0	
0.3053	1.84134	-1.01817	0	
0.3060	1.84134	0.806849	0	
0.3067	1.84134	-1.32554	0	
0.3073	4.28924	-1.94028	0	
0.3080	5.50236	-0.710795	0	
0.3087	1.84134	-1.01817	0	
0.3093	-6.69382	0.211317	0	
0.3100	-13.106	2.95844	0	
0.3107	-12.1962	2.65107	0	
0.3113	-8.83844	1.42159	0	
0.3120	-8.53516	2.95844	0	
0.3127	-6.69382	4.78346	0	
0.3133	0.628222	2.65107	0	
0.3140	7.64698	-1.32554	0	
0.3147	10.3982	-2.84318	0	
0.3153	11.6113	-0.710795	0	
0.3160	9.76994	1.72896	0	
0.3167	4.59252	0.806849	0	
0.3173	2.4479	-0.0960534	0	
0.3180	4.8958	0.806849	0	
0.3187	7.64698	1.72896	0	
0.3193	9.16338	2.65107	0	
0.3200	11.0047	4.47609	0	
0.3207	11.308	4.78346	0	
0.3213	8.8601	1.72896	0	
0.3220	3.68268	0.806849	0	
0.3227	-1.21312	0.211317	0	
0.3233	-5.17742	-2.84318	0	
0.3240	-4.87414	-3.76529	0	
0.3247	-1.5164	-0.0960534	0	
0.3253	-1.81968	0.806849	0	
0.3260	-6.39054	-2.84318	0	
0.3267	-4.87414	-5.89768	0	
0.3273	0.931502	-8.33743	0	
0.3280	-0.909839	-8.33743	0	
0.3287	-5.78398	-6.51242	0	
0.3293	-5.17742	-4.38003	0	
0.3300	-5.17742	-1.94028	0	
0.3307	-7.32204	1.11422	0	
0.3313	-3.63936	0.499478	0	
0.3320	1.23478	-2.22844	0	
0.3327	-3.0328	-1.01817	0	
0.3333	-9.445	0.806849	0	
0.3340	-7.32204	-1.32554	0	
0.3347	-2.12296	-2.84318	0	
0.3353	-0.606559	-3.45792	0	
0.3360	0.0216628	-4.07266	0	
0.3367	-0.606559	-1.01817	0	
0.3373	-2.72952	4.16872	0	
0.3380	-2.72952	4.47609	0	
0.3387	-2.42624	2.95844	0	
0.3393	-6.39054	4.16872	0	
0.3400	-9.74828	4.78346	0	
0.3407	-7.9286	4.47609	0	
0.3413	-6.69382	6.3011	0	
0.3420	-9.14172	7.83796	0	
0.3427	-10.0516	8.14533	0	
0.3433	-9.14172	8.4527	0	
0.3440	-9.14172	7.83796	0	
0.3447	-9.74828	6.91584	0	
0.3453	-6.69382	6.60847	0	
0.3460	-0.30328	5.3982	0	
0.3467	2.75118	3.55398	0	
0.3473	0.0216628	1.72896	0	
0.3480	1.53806	-1.32554	0	
0.3487	9.16338	-5.59031	0	
0.3493	11.9146	-9.25955	0	
0.3500	10.3982	-9.56692	0	
0.3507	9.76994	-6.51242	0	
0.3513	9.16338	-4.68741	0	
0.3520	9.76994	-5.89768	0	
0.3527	15.2723	-6.81979	0	
0.3533	17.092	-6.51242	0	
0.3540	15.5756	-8.03006	0	
0.3547	19.2366	-8.64481	0	
0.3553	24.1107	-5.28294	0	
0.3560	22.2911	-2.22844	0	
0.3567	17.4169	-2.53581	0	
0.3573	13.7559	-2.53581	0	
0.3580	11.0047	0.806849	0	
0.3587	7.64698	3.86135	0	
0.3593	3.3794	4.16872	0	
0.3600	-0.606559	1.72896	0	
0.3607	-2.72952	0.806849	0	
0.3613	-3.0328	2.65107	0	
0.3620	0.0216628	5.3982	0	
0.3627	2.75118	6.60847	0	
0.3633	2.14462	4.47609	0	
0.3640	1.84134	-0.403424	0	
0.3647	2.14462	-3.76529	0	
0.3653	0.0216628	-3.15055	0	
0.3660	-1.21312	-1.94028	0	
0.3667	-1.21312	-2.84318	0	
0.3673	-4.87414	-3.76529	0	
0.3680	-10.6581	-3.76529	0	
0.3687	-11.5896	-3.15055	0	
0.3693	-9.445	-2.84318	0	
0.3700	-11.8929	-1.63291	0	
0.3707	-20.1248	1.11422	0	
0.3713	-23.1792	2.3437	0	
0.3720	-17.6769	0.211317	0	
0.3727	-15.5539	-1.01817	0	
0.3733	-19.2149	-0.0960534	0	
0.3740	-17.3736	-1.94028	0	
0.3747	-8.23188	-3.15055	0	
0.3753	-1.81968	-2.53581	0	
0.3760	1.84134	-4.68741	0	
0.3767	5.19908	-9.25955	0	
0.3773	7.3437	-8.03006	0	
0.3780	8.25354	-4.68741	0	
0.3787	10.3982	-4.68741	0	
0.3793	12.8244	-4.68741	0	
0.3800	13.7559	-2.84318	0	
0.3807	10.7014	-1.94028	0	
0.3813	4.59252	-0.0960534	0	
0.3820	1.84134	3.55398	0	
0.3827	1.84134	4.47609	0	
0.3833	-2.42624	1.72896	0	
0.3840	-9.74828	0.806849	0	
0.3847	-13.7126	0.806849	0	
0.3853	-15.5539	-0.710795	0	
0.3860	-17.3736	-2.84318	0	
0.3867	-13.7126	-2.53581	0	
0.3873	-5.4807	-1.32554	0	
0.3880	0.931502	-0.403424	0	
0.3887	0.931502	2.3437	0	
0.3893	0.931502	4.16872	0	
0.3900	7.3437	1.42159	0	
0.3907	16.4854	-1.63291	0	
0.3913	21.0779	-0.403424	0	
0.3920	22.8976	-0.403424	0	
0.3927	25.0422	-2.84318	0	
0.3933	22.5943	-2.53581	0	
0.3940	15.2723	-1.94028	0	
0.3947	8.25354	-4.68741	0	
0.3953	0.931502	-4.68741	0	
0.3960	-8.23188	0.499478	0	
0.3967	-13.106	2.65107	0	
0.3973	-12.8027	-0.0960534	0	
0.3980	-13.106	2.65107	0	
0.3987	-14.9474	9.04823	0	
0.3993	-13.7126	9.3556	0	
0.4000	-10.0516	4.47609	0	
0.4007	-7.32204	3.2466	0	
0.4013	-5.4807	4.78346	0	
0.4020	-2.72952	4.16872	0	
0.4027	-1.81968	2.3437	0	
0.4033	0.0216628	0.211317	0	
0.4040	5.50236	-1.01817	0	
0.4047	7.95026	1.42159	0	
0.4053	9.16338	4.47609	0	
0.4060	14.6657	2.65107	0	
0.4067	16.1821	-0.710795	0	
0.4073	11.6113	0.211317	0	
0.4080	7.95026	-0.0960534	0	
0.4087	6.10892	-2.84318	0	
0.4093	3.3794	-1.94028	0	
0.4100	0.931502	1.11422	0	
0.4107	-0.909839	0.499478	0	
0.4113	0.0216628	-1.32554	0	
0.4120	0.628222	-0.0960534	0	
0.4127	-4.87414	1.42159	0	
0.4133	-13.7126	0.499478	0	
0.4140	-15.8572	-1.94028	0	
0.4147	-10.0516	-2.22844	0	
0.4153	-4.26758	-0.403424	0	
0.4160	-1.81968	1.11422	0	
0.4167	-2.42624	0.499478	0	
0.4173	-3.9643	-0.710795	0	
0.4180	-6.39054	-0.710795	0	
0.4187	-8.23188	-1.01817	0	
0.4193	-7.62532	-2.84318	0	
0.4200	-7.32204	-0.710795	0	
0.4207	-9.14172	3.55398	0	
0.4213	-11.2863	1.42159	0	
0.4220	-10.0516	-3.76529	0	
0.4227	-5.17742	-2.84318	0	
0.4233	-0.909839	-0.710795	0	
0.4240	0.931502	-2.84318	0	
0.4247	1.53806	-2.84318	0	
0.4253	2.14462	-0.0960534	0	
0.4260	1.23478	-2.84318	0	
0.4267	-0.30328	-4.68741	0	
0.4273	-1.21312	-1.32554	0	
0.4280	-0.909839	-0.403424	0	
0.4287	2.75118	-3.45792	0	
0.4293	5.50236	-5.59031	0	
0.4300	5.50236	-6.20505	0	
0.4307	6.4122	-5.89768	0	
0.4313	7.3437	-3.76529	0	
0.4320	2.75118	-2.84318	0	
0.4327	-0.30328	-3.76529	0	
0.4333	-0.30328	-2.53581	0	
0.4340	-1.5164	-0.403424	0	
0.4347	-0.606559	1.42159	0	
0.4353	1.84134	3.2466	0	
0.4360	1.23478	2.65107	0	
0.4367	1.53806	-0.403424	0	
0.4373	1.23478	-1.01817	0	
0.4380	-4.26758	1.42159	0	
0.4387	-7.9286	2.65107	0	
0.4393	-6.08726	1.72896	0	
0.4400	-6.9971	2.65107	0	
0.4407	-9.14172	3.86135	0	
0.4413	-6.69382	3.55398	0	
0.4420	-1.81968	1.72896	0	
0.4427	3.3794	-0.710795	0	
0.4433	7.04042	-1.63291	0	
0.4440	6.4122	0.806849	0	
0.4447	3.68268	3.55398	0	
0.4453	3.3794	1.72896	0	
0.4460	7.3437	0.499478	0	
0.4467	12.8244	2.95844	0	
0.4473	16.7887	3.2466	0	
0.4480	16.4854	-1.32554	0	
0.4487	14.3625	-3.76529	0	
0.4493	12.8244	-2.22844	0	
0.4500	14.0592	-2.84318	0	
0.4507	15.5756	-6.51242	0	
0.4513	12.8244	-7.43453	0	
0.4520	7.64698	-5.59031	0	
0.4527	2.4479	-3.45792	0	
0.4533	-1.5164	-1.01817	0	
0.4540	-3.63936	0.806849	0	
0.4547	-7.9286	1.72896	0	
0.4553	-17.3736	4.47609	0	
0.4560	-23.4825	8.14533	0	
0.4567	-17.3736	8.14533	0	
0.4573	-7.32204	2.95844	0	
0.4580	-5.4807	-0.403424	0	
0.4587	-6.9971	0.806849	0	
0.4593	-4.57086	2.03633	0	
0.4600	-0.30328	0.211317	0	
0.4607	1.53806	0.211317	0	
0.4613	1.53806	1.72896	0	
0.4620	-0.30328	-0.0960534	0	
0.4627	-1.81968	-1.32554	0	
0.4633	0.628222	0.211317	0	
0.4640	4.59252	0.211317	0	
0.4647	4.59252	-0.0960534	0	
0.4653	1.84134	1.72896	0	
0.4660	2.14462	1.72896	0	
0.4667	4.28924	1.42159	0	
0.4673	3.68268	2.03633	0	
0.4680	1.23478	-0.0960534	0	
0.4687	0.931502	-1.94028	0	
0.4693	1.84134	-0.0960534	0	
0.4700	1.84134	0.499478	0	
0.4707	0.628222	-0.403424	0	
0.4713	1.53806	0.499478	0	
0.4720	3.68268	0.806849	0	
0.4727	3.98596	-0.403424	0	
0.4733	3.68268	-0.710795	0	
0.4740	4.28924	-1.01817	0	
0.4747	3.68268	-2.53581	0	
0.4753	2.75118	-3.76529	0	
0.4760	7.3437	-3.76529	0	
0.4767	15.5756	-4.68741	0	
0.4773	15.8789	-4.68741	0	
0.4780	8.25354	-1.94028	0	
0.4787	2.75118	1.42159	0	
0.4793	-0.909839	2.3437	0	
0.4800	-7.32204	2.03633	0	
0.4807	-10.9831	2.3437	0	
0.4813	-10.9831	2.03633	0	
0.4820	-13.7126	2.65107	0	
0.4827	-13.7126	3.55398	0	
0.4833	-10.0516	3.2466	0	
0.4840	-10.6581	1.72896	0	
0.4847	-14.9474	0.806849	0	
0.4853	-14.0159	-0.0960534	0	
0.4860	-9.74828	-2.84318	0	
0.4867	-6.08726	-5.59031	0	
0.4873	-3.0328	-6.20505	0	
0.4880	-1.81968	-5.28294	0	
0.4887	-1.81968	-3.76529	0	
0.4893	-2.72952	-3.45792	0	
0.4900	-6.39054	-4.38003	0	
0.4907	-10.9831	-2.53581	0	
0.4913	-14.6441	1.72896	0	
0.4920	-17.3736	3.55398	0	
0.4927	-15.5539	3.86135	0	
0.4933	-10.9831	2.95844	0	
0.4940	-8.23188	-0.710795	0	
0.4947	-6.39054	-2.84318	0	
0.4953	-3.63936	-1.32554	0	
0.4960	-0.909839	-0.0960534	0	
0.4967	3.98596	-0.0960534	0	
0.4973	7.64698	-0.0960534	0	
0.4980	7.64698	-1.01817	0	
0.4987	10.0732	-2.22844	0	
0.4993	14.969	-2.22844	0	
0.5000	11.308	-1.94028	0	
0.5007	2.4479	-0.403424	0	
0.5013	-2.42624	1.42159	0	
0.5020	-2.72952	-0.403424	0	
0.5027	-1.5164	-4.68741	0	
0.5033	0.931502	-4.38003	0	
0.5040	1.84134	-1.32554	0	
0.5047	0.0216628	-1.01817	0	
0.5053	-0.30328	-2.22844	0	
0.5060	0.0216628	-1.94028	0	
0.5067	-3.33608	-1.01817	0	
0.5073	-4.57086	-0.0960534	0	
0.5080	1.53806	0.806849	0	
0.5087	6.10892	-0.0960534	0	
0.5093	3.68268	-2.22844	0	
0.5100	2.4479	-2.84318	0	
0.5107	4.59252	-1.32554	0	
0.5113	5.50236	0.211317	0	
0.5120	6.4122	0.806849	0	
0.5127	5.80564	0.499478	0	
0.5133	0.324943	0.806849	0	
0.5140	-5.4807	1.72896	0	
0.5147	-8.23188	2.03633	0	
0.5153	-9.74828	2.65107	0	
0.5160	-9.74828	5.09083	0	
0.5167	-13.106	5.3982	0	
0.5173	-22.876	4.16872	0	
0.5180	-28.3783	5.70557	0	
0.5187	-23.1792	9.04823	0	
0.5193	-16.1605	9.3556	0	
0.5200	-12.4995	7.83796	0	
0.5207	-10.9831	7.22322	0	
0.5213	-12.1962	7.22322	0	
0.5220	-13.7126	3.55398	0	
0.5227	-9.74828	-1.01817	0	
0.5233	0.0216628	-2.22844	0	
0.5240	7.3437	-2.84318	0	
0.5247	9.46666	-4.97557	0	
0.5253	10.3982	-5.59031	0	
0.5260	13.1277	-4.68741	0	
0.5267	15.2723	-5.28294	0	
0.5273	12.8244	-6.20505	0	
0.5280	9.16338	-5.59031	0	
0.5287	9.76994	-5.28294	0	
0.5293	13.431	-5.59031	0	
0.5300	14.3625	-4.68741	0	
0.5307	11.9146	-1.94028	0	
0.5313	9.46666	-1.32554	0	
0.5320	5.50236	-3.15055	0	
0.5327	1.23478	-2.84318	0	
0.5333	1.84134	0.211317	0	
0.5340	3.68268	0.806849	0	
0.5347	3.3794	0.499478	0	
0.5353	3.68268	1.42159	0	
0.5360	5.80564	0.806849	0	
0.5367	4.59252	0.806849	0	
0.5373	0.628222	2.95844	0	
0.5380	-1.5164	5.3982	0	
0.5387	-0.909839	6.3011	0	
0.5393	0.628222	5.70557	0	
0.5400	2.75118	1.72896	0	
0.5407	4.28924	-2.22844	0	
0.5413	4.28924	-3.45792	0	
0.5420	6.4122	-2.53581	0	
0.5427	7.95026	-1.63291	0	
0.5433	4.59252	-2.84318	0	
0.5440	2.75118	-5.28294	0	
0.5447	5.80564	-3.45792	0	
0.5453	5.19908	0.806849	0	
0.5460	1.53806	0.211317	0	
0.5467	5.50236	-3.76529	0	
0.5473	11.308	-6.20505	0	
0.5480	11.308	-8.33743	0	
0.5487	11.308	-8.64481	0	
0.5493	13.7559	-7.12716	0	
0.5500	12.2178	-7.72269	0	
0.5507	7.3437	-8.95218	0	
0.5513	1.23478	-6.51242	0	
0.5520	-6.39054	-3.15055	0	
0.5527	-12.8027	-1.94028	0	
0.5533	-14.6441	-0.710795	0	
0.5540	-16.1605	0.499478	0	
0.5547	-20.1248	2.3437	0	
0.5553	-20.4281	4.16872	0	
0.5560	-16.4638	5.09083	0	
0.5567	-16.767	5.70557	0	
0.5573	-21.0346	6.3011	0	
0.5580	-20.4281	5.70557	0	
0.5587	-15.5539	2.95844	0	
0.5593	-11.8929	-0.0960534	0	
0.5600	-9.14172	-1.01817	0	
0.5607	-6.9971	-0.0960534	0	
0.5613	-2.42624	0.211317	0	
0.5620	2.75118	-0.0960534	0	
0.5627	4.59252	0.499478	0	
0.5633	4.28924	2.03633	0	
0.5640	7.3437	1.11422	0	
0.5647	10.0732	-2.84318	0	
0.5653	6.73714	-5.28294	0	
0.5660	2.75118	-5.28294	0	
0.5667	3.68268	-6.81979	0	
0.5673	5.80564	-8.33743	0	
0.5680	5.80564	-6.20505	0	
0.5687	6.10892	-3.76529	0	
0.5693	7.95026	-2.84318	0	
0.5700	6.73714	-0.403424	0	
0.5707	3.68268	1.11422	0	
0.5713	4.28924	-0.0960534	0	
0.5720	9.16338	-1.63291	0	
0.5727	12.5211	-2.53581	0	
0.5733	14.0592	-1.94028	0	
0.5740	15.5756	-0.0960534	0	
0.5747	13.431	0.211317	0	
0.5753	8.25354	-0.0960534	0	
0.5760	4.28924	0.211317	0	
0.5767	0.931502	1.72896	0	
0.5773	-4.87414	4.16872	0	
0.5780	-8.53516	4.78346	0	
0.5787	-5.4807	2.95844	0	
0.5793	-1.81968	4.47609	0	
0.5800	-3.0328	7.22322	0	
0.5807	-4.57086	3.86135	0	
0.5813	-2.12296	0.211317	0	
0.5820	0.0216628	2.3437	0	
0.5827	-2.42624	4.16872	0	
0.5833	-6.9971	2.3437	0	
0.5840	-10.3548	1.72896	0	
0.5847	-10.0516	2.65107	0	
0.5853	-6.9971	3.86135	0	
0.5860	-4.57086	4.47609	0	
0.5867	-4.57086	4.78346	0	
0.5873	-3.63936	5.09083	0	
0.5880	-2.72952	3.55398	0	
0.5887	-1.21312	1.11422	0	
0.5893	2.4479	-1.01817	0	
0.5900	4.59252	-2.53581	0	
0.5907	3.68268	-3.45792	0	
0.5913	6.4122	-3.76529	0	
0.5920	11.308	-4.38003	0	
0.5927	9.76994	-2.84318	0	
0.5933	5.50236	-0.403424	0	
0.5940	2.14462	-1.94028	0	
0.5947	-2.72952	-1.63291	0	
0.5953	-6.39054	4.78346	0	
0.5960	-5.4807	7.22322	0	
0.5967	-6.39054	5.3982	0	
0.5973	-8.53516	7.22322	0	
0.5980	-7.32204	8.14533	0	
0.5987	-7.32204	3.55398	0	
0.5993	-10.9831	2.3437	0	
0.6000	-10.9831	2.95844	0	
0.6007	-10.3548	1.42159	0	
0.6013	-14.3408	3.55398	0	
0.6020	-17.3736	7.53059	0	
0.6027	-14.6441	7.83796	0	
0.6033	-10.0516	5.70557	0	
0.6040	-3.33608	3.2466	0	
0.6047	4.59252	0.806849	0	
0.6053	6.73714	-1.01817	0	
0.6060	6.73714	-1.94028	0	
0.6067	11.308	-2.84318	0	
0.6073	15.8789	-4.97557	0	
0.6080	16.4854	-8.03006	0	
0.6087	16.1821	-8.64481	0	
0.6093	14.6657	-5.89768	0	
0.6100	8.55682	-4.68741	0	
0.6107	1.84134	-5.59031	0	
0.6113	-0.909839	-6.20505	0	
0.6120	-0.30328	-5.59031	0	
0.6127	-2.72952	-2.53581	0	
0.6133	-9.445	0.499478	0	
0.6140	-14.6441	-0.0960534	0	
0.6147	-14.3408	0.211317	0	
0.6153	-14.3408	2.65107	0	
0.6160	-15.8572	2.65107	0	
0.6167	-13.106	3.55398	0	
0.6173	-9.14172	7.22322	0	
0.6180	-10.9831	9.04823	0	
0.6187	-15.5539	8.14533	0	
0.6193	-15.8572	7.53059	0	
0.6200	-12.8027	7.22322	0	
0.6207	-8.53516	5.09083	0	
0.6213	-7.32204	2.3437	0	
0.6220	-8.53516	2.03633	0	
0.6227	-7.32204	1.72896	0	
0.6233	-3.9643	-2.22844	0	
0.6240	-2.72952	-5.89768	0	
0.6247	0.628222	-6.51242	0	
0.6253	9.16338	-8.64481	0	
0.6260	15.5756	-11.6993	0	
0.6267	21.3812	-10.1817	0	
0.6273	30.5229	-8.33743	0	
0.6280	34.8122	-8.33743	0	
0.6287	31.4544	-6.20505	0	
0.6293	29.9164	-4.07266	0	
0.6300	30.8262	-4.07266	0	
0.6307	34.4872	-3.76529	0	
0.6313	36.6319	-4.38003	0	
0.6320	29.3098	-4.97557	0	
0.6327	19.2366	-1.94028	0	
0.6333	14.6657	1.11422	0	
0.6340	7.04042	0.211317	0	
0.6347	-2.42624	0.499478	0	
0.6353	-3.63936	3.55398	0	
0.6360	-6.9971	5.99373	0	
0.6367	-11.8929	5.99373	0	
0.6373	-5.78398	5.3982	0	
0.6380	-0.909839	5.70557	0	
0.6387	-7.32204	7.22322	0	
0.6393	-11.2863	7.53059	0	
0.6400	-11.8929	5.99373	0	
0.6407	-13.106	3.86135	0	
0.6413	-9.445	2.3437	0	
0.6420	-8.83844	2.95844	0	
0.6427	-18.0018	3.86135	0	
0.6433	-20.7313	1.42159	0	
0.6440	-16.767	-0.403424	0	
0.6447	-23.7858	0.806849	0	
0.6453	-32.3426	-1.01817	0	
0.6460	-28.3783	-3.15055	0	
0.6467	-22.876	-0.403424	0	
0.6473	-23.4825	1.11422	0	
0.6480	-19.2149	0.499478	0	
0.6487	-10.9831	1.72896	0	
0.6493	-10.0516	-0.0960534	0	
0.6500	-16.1605	-4.68741	0	
0.6507	-17.6769	-5.59031	0	
0.6513	-8.53516	-5.89768	0	
0.6520	0.324943	-8.33743	0	
0.6527	2.4479	-8.33743	0	
0.6533	7.3437	-5.59031	0	
0.6540	12.5211	-4.97557	0	
0.6547	5.19908	-4.68741	0	
0.6553	-4.57086	-4.68741	0	
0.6560	-0.30328	-5.89768	0	
0.6567	7.3437	-6.51242	0	
0.6573	8.8601	-5.28294	0	
0.6580	11.9146	-4.68741	0	
0.6587	12.8244	-4.07266	0	
0.6593	5.50236	-1.94028	0	
0.6600	-0.909839	0.499478	0	
0.6607	0.0216628	0.806849	0	
0.6613	0.931502	0.211317	0	
0.6620	-4.26758	0.806849	0	
0.6627	-15.2506	0.806849	0	
0.6633	-23.7858	1.72896	0	
0.6640	-18.9117	4.16872	0	
0.6647	-1.81968	2.95844	0	
0.6653	14.6657	-1.01817	0	
0.6660	20.4497	-1.01817	0	
0.6667	15.5756	1.42159	0	
0.6673	11.0047	1.11422	0	
0.6680	13.7559	1.72896	0	
0.6687	15.5756	3.86135	0	
0.6693	13.7559	3.55398	0	
0.6700	14.3625	-0.0960534	0	
0.6707	13.7559	-3.76529	0	
0.6713	6.73714	-6.51242	0	
0.6720	-1.81968	-7.43453	0	
0.6727	-11.8929	-6.20505	0	
0.6733	-25.6271	-4.68741	0	
0.6740	-32.9492	-2.53581	0	
0.6747	-31.1078	-1.63291	0	
0.6753	-31.1078	-1.63291	0	
0.6760	-32.6459	-1.63291	0	
0.6767	-27.4468	-0.403424	0	
0.6773	-20.4281	1.72896	0	
0.6780	-14.6441	3.55398	0	
0.6787	-7.32204	2.65107	0	
0.6793	-2.42624	1.42159	0	
0.6800	-3.0328	3.2466	0	
0.6807	-3.63936	3.86135	0	
0.6813	-0.606559	2.65107	0	
0.6820	6.10892	3.55398	0	
0.6827	13.7559	3.86135	0	
0.6833	19.2366	2.95844	0	
0.6840	21.9878	2.65107	0	
0.6847	24.739	2.65107	0	
0.6853	28.0967	0.806849	0	
0.6860	32.061	-0.710795	0	
0.6867	34.184	-1.01817	0	
0.6873	30.5229	-0.710795	0	
0.6880	27.4685	-2.84318	0	
0.6887	27.4685	-5.59031	0	
0.6893	23.8075	-4.68741	0	
0.6900	17.4169	-4.07266	0	
0.6907	12.8244	-9.25955	0	
0.6913	2.75118	-10.1817	0	
0.6920	-14.0159	-2.84318	0	
0.6927	-22.5727	-0.0960534	0	
0.6933	-24.7173	-3.45792	0	
0.6940	-31.7361	-3.15055	0	
0.6947	-32.9492	-1.94028	0	
0.6953	-20.1248	-3.45792	0	
0.6960	-7.9286	-2.53581	0	
0.6967	-9.74828	0.499478	0	
0.6973	-21.0346	-0.0960534	0	
0.6980	-25.3239	-1.01817	0	
0.6987	-20.1248	0.806849	0	
0.6993	-18.0018	3.55398	0	
0.7000	-18.6084	5.3982	0	
0.7007	-13.7126	4.78346	0	
0.7013	-6.69382	3.2466	0	
0.7020	-5.17742	4.47609	0	
0.7027	-6.69382	7.22322	0	
0.7033	-7.62532	7.22322	0	
0.7040	-5.4807	4.16872	0	
0.7047	0.628222	-0.0960534	0	
0.7053	7.04042	-4.07266	0	
0.7060	12.8244	-5.28294	0	
0.7067	18.0235	-4.68741	0	
0.7073	18.3268	-6.51242	0	
0.7080	16.4854	-7.72269	0	
0.7087	16.4854	-6.51242	0	
0.7093	15.5756	-5.59031	0	
0.7100	12.8244	-5.28294	0	
0.7107	13.1277	-2.84318	0	
0.7113	13.1277	-1.01817	0	
0.7120	11.9146	-1.94028	0	
0.7127	17.092	-1.94028	0	
0.7133	21.9878	-1.01817	0	
0.7140	12.8244	-0.0960534	0	
0.7147	0.0216628	1.42159	0	
0.7153	-3.63936	2.65107	0	
0.7160	-6.9971	0.806849	0	
0.7167	-10.0516	-2.22844	0	
0.7173	-2.72952	-2.84318	0	
0.7180	3.98596	-0.710795	0	
0.7187	-0.909839	2.03633	0	
0.7193	-3.0328	1.42159	0	
0.7200	5.50236	-1.01817	0	
0.7207	11.6113	0.211317	0	
0.7213	9.16338	3.55398	0	
0.7220	3.05446	3.86135	0	
0.7227	2.4479	2.65107	0	
0.7233	7.95026	2.65107	0	
0.7240	10.0732	3.55398	0	
0.7247	9.76994	4.16872	0	
0.7253	11.6113	2.95844	0	
0.7260	13.7559	0.806849	0	
0.7267	16.7887	-0.0960534	0	
0.7273	14.0592	0.499478	0	
0.7280	-11.8929	3.2466	0	
0.7287	-48.1998	6.60847	0	
0.7293	-64.0787	6.3011	0	
0.7300	-62.2373	5.70557	0	
0.7307	-57.3632	9.97034	0	
0.7313	-46.6834	13.6396	0	
0.7320	-38.1266	12.4101	0	
0.7327	-37.52	10.8925	0	
0.7333	-35.7004	9.3556	0	
0.7340	-28.9849	6.3011	0	
0.7347	-18.9117	4.16872	0	
0.7353	-4.57086	1.42159	0	
0.7360	4.59252	-2.84318	0	
0.7367	7.3437	-4.07266	0	
0.7373	14.0592	-5.28294	0	
0.7380	21.0779	-8.33743	0	
0.7387	20.1464	-8.95218	0	
0.7393	21.0779	-6.51242	0	
0.7400	26.2554	-6.51242	0	
0.7407	27.4685	-5.89768	0	
0.7413	25.6488	-3.76529	0	
0.7420	22.8976	-2.84318	0	
0.7427	19.8432	-2.84318	0	
0.7433	19.2366	-2.84318	0	
0.7440	21.3812	-4.38003	0	
0.7447	23.5042	-5.89768	0	
0.7453	25.0422	-6.51242	0	
0.7460	22.2911	-5.59031	0	
0.7467	14.6657	-4.07266	0	
0.7473	8.8601	-2.53581	0	
0.7480	7.3437	-1.94028	0	
0.7487	7.3437	-1.63291	0	
0.7493	1.84134	-1.01817	0	
0.7500	-11.8929	-1.01817	0	
0.7507	-22.5727	0.499478	0	
0.7513	-20.1248	2.65107	0	
0.7520	-10.9831	3.2466	0	
0.7527	-5.78398	2.3437	0	
0.7533	-3.63936	2.65107	0	
0.7540	-3.33608	4.16872	0	
0.7547	-4.26758	3.55398	0	
0.7553	-3.9643	2.65107	0	
0.7560	1.84134	2.95844	0	
0.7567	11.9146	2.65107	0	
0.7573	16.4854	2.03633	0	
0.7580	14.969	0.806849	0	
0.7587	18.3268	-1.01817	0	
0.7593	23.8075	-1.01817	0	
0.7600	25.3455	0.806849	0	
0.7607	31.7577	0.806849	0	
0.7613	39.383	-1.94028	0	
0.7620	35.1155	-4.38003	0	
0.7627	26.8619	-4.68741	0	
0.7633	13.7559	-2.84318	0	
0.7640	-12.1962	-0.403424	0	
0.7647	-28.9849	-0.710795	0	
0.7653	-19.2149	-0.403424	0	
0.7660	-10.0516	-0.0960534	0	
0.7667	-14.6441	-2.84318	0	
0.7673	-15.5539	-5.59031	0	
0.7680	-12.8027	-4.97557	0	
0.7687	-12.8027	-6.20505	0	
0.7693	-7.62532	-8.33743	0	
0.7700	1.84134	-7.72269	0	
0.7707	4.8958	-7.12716	0	
0.7713	2.75118	-7.43453	0	
0.7720	3.05446	-6.51242	0	
0.7727	5.50236	-5.59031	0	
0.7733	3.68268	-6.51242	0	
0.7740	-6.08726	-4.68741	0	
0.7747	-16.1605	-0.710795	0	
0.7753	-19.5182	0.499478	0	
0.7760	-16.767	-2.53581	0	
0.7767	-14.0159	-1.94028	0	
0.7773	-15.2506	1.72896	0	
0.7780	-14.3408	2.3437	0	
0.7787	-4.87414	-0.0960534	0	
0.7793	5.50236	-0.403424	0	
0.7800	6.73714	-1.32554	0	
0.7807	3.68268	-2.84318	0	
0.7813	4.28924	-2.84318	0	
0.7820	5.50236	-1.32554	0	
0.7827	2.75118	-0.0960534	0	
0.7833	-0.30328	1.72896	0	
0.7840	-0.30328	2.03633	0	
0.7847	0.324943	1.11422	0	
0.7853	0.0216628	1.42159	0	
0.7860	-1.81968	2.65107	0	
0.7867	-3.9643	2.3437	0	
0.7873	-6.39054	0.211317	0	
0.7880	-10.9831	-0.403424	0	
0.7887	-17.3736	1.42159	0	
0.7893	-17.3736	2.65107	0	
0.7900	-8.23188	2.3437	0	
0.7907	-3.33608	3.2466	0	
0.7913	-6.39054	5.3982	0	
0.7920	-6.9971	5.3982	0	
0.7927	-3.9643	4.47609	0	
0.7933	0.931502	4.78346	0	
0.7940	8.8601	4.47609	0	
0.7947	14.6657	2.03633	0	
0.7953	19.5399	-0.0960534	0	
0.7960	27.7934	-3.45792	0	
0.7967	30.2197	-7.12716	0	
0.7973	18.0235	-8.03006	0	
0.7980	5.80564	-7.12716	0	
0.7987	6.4122	-7.43453	0	
0.7993	12.8244	-7.43453	0	
0.8000	11.6113	-5.59031	0	
0.8007	1.53806	-4.38003	0	
0.8013	-3.33608	-2.22844	0	
0.8020	2.75118	-0.0960534	0	
0.8027	4.8958	-1.94028	0	
0.8033	-4.57086	-2.53581	0	
0.8040	-14.6441	0.211317	0	
0.8047	-19.2149	1.72896	0	
0.8053	-18.9117	2.65107	0	
0.8060	-13.106	3.86135	0	
0.8067	-7.32204	2.95844	0	
0.8073	-2.72952	2.3437	0	
0.8080	3.05446	4.47609	0	
0.8087	5.50236	4.16872	0	
0.8093	4.59252	2.65107	0	
0.8100	6.73714	4.16872	0	
0.8107	8.25354	5.09083	0	
0.8113	5.80564	2.65107	0	
0.8120	4.59252	-0.710795	0	
0.8127	1.84134	-1.94028	0	
0.8133	-6.08726	1.72896	0	
0.8140	-10.6581	5.99373	0	
0.8147	-8.53516	4.47609	0	
0.8153	-9.14172	2.3437	0	
0.8160	-13.7126	3.2466	0	
0.8167	-12.4995	3.55398	0	
0.8173	-7.62532	1.72896	0	
0.8180	-10.9831	0.806849	0	
0.8187	-18.0018	0.806849	0	
0.8193	-19.2149	0.806849	0	
0.8200	-21.3596	-0.0960534	0	
0.8207	-26.2337	0.211317	0	
0.8213	-22.876	1.72896	0	
0.8220	-13.7126	1.42159	0	
0.8227	-9.14172	-0.0960534	0	
0.8233	-9.14172	2.95844	0	
0.8240	-9.14172	4.78346	0	
0.8247	-6.39054	-0.0960534	0	
0.8253	0.0216628	-2.84318	0	
0.8260	1.23478	-1.01817	0	
0.8267	-3.0328	-0.403424	0	
0.8273	-4.57086	-1.01817	0	
0.8280	-3.0328	1.11422	0	
0.8287	-2.72952	3.55398	0	
0.8293	-1.21312	2.65107	0	
0.8300	1.53806	-2.22844	0	
0.8307	2.4479	-4.97557	0	
0.8313	3.68268	-3.45792	0	
0.8320	7.3437	-1.63291	0	
0.8327	9.16338	-2.84318	0	
0.8333	10.7014	-4.68741	0	
0.8340	11.9146	-3.76529	0	
0.8347	12.8244	-2.22844	0	
0.8353	13.7559	-2.53581	0	
0.8360	13.7559	-2.22844	0	
0.8367	8.25354	0.211317	0	
0.8373	-0.606559	1.11422	0	
0.8380	-3.63936	1.11422	0	
0.8387	-0.909839	3.55398	0	
0.8393	0.628222	2.03633	0	
0.8400	1.53806	-4.38003	0	
0.8407	5.50236	-4.68741	0	
0.8413	11.308	-0.0960534	0	
0.8420	17.092	-1.32554	0	
0.8427	18.9333	-2.84318	0	
0.8433	15.5756	-1.01817	0	
0.8440	11.0047	-0.710795	0	
0.8447	8.8601	0.806849	0	
0.8453	9.16338	4.16872	0	
0.8460	10.0732	4.16872	0	
0.8467	7.3437	3.55398	0	
0.8473	0.628222	4.16872	0	
0.8480	-5.17742	2.65107	0	
0.8487	-7.32204	0.499478	0	
0.8493	-9.14172	-0.403424	0	
0.8500	-12.8027	-2.84318	0	
0.8507	-19.2149	-3.76529	0	
0.8513	-23.1792	-2.53581	0	
0.8520	-17.6769	-4.68741	0	
0.8527	-7.9286	-7.43453	0	
0.8533	-4.87414	-5.59031	0	
0.8540	-3.0328	-6.20505	0	
0.8547	7.3437	-10.7772	0	
0.8553	15.5756	-10.1817	0	
0.8560	10.3982	-5.59031	0	
0.8567	4.59252	-3.76529	0	
0.8573	6.73714	-2.84318	0	
0.8580	6.4122	-1.01817	0	
0.8587	-0.606559	-1.01817	0	
0.8593	-5.4807	0.499478	0	
0.8600	-4.57086	3.55398	0	
0.8607	0.931502	4.16872	0	
0.8613	6.4122	4.47609	0	
0.8620	6.73714	6.3011	0	
0.8627	1.84134	5.09083	0	
0.8633	-2.42624	3.55398	0	
0.8640	-0.909839	7.22322	0	
0.8647	3.3794	8.4527	0	
0.8653	3.98596	3.86135	0	
0.8660	1.84134	1.11422	0	
0.8667	3.05446	3.55398	0	
0.8673	4.8958	3.86135	0	
0.8680	1.84134	1.42159	0	
0.8687	-3.0328	0.806849	0	
0.8693	-6.39054	0.211317	0	
0.8700	-7.62532	-2.22844	0	
0.8707	-9.74828	-1.01817	0	
0.8713	-15.2506	3.55398	0	
0.8720	-18.3051	2.95844	0	
0.8727	-11.5896	-0.403424	0	
0.8733	-1.81968	-1.32554	0	
0.8740	-1.21312	-2.22844	0	
0.8747	-2.42624	-2.84318	0	
0.8753	3.3794	-1.63291	0	
0.8760	9.16338	-3.45792	0	
0.8767	12.2178	-5.59031	0	
0.8773	15.8789	-3.76529	0	
0.8780	15.2723	-2.22844	0	
0.8787	8.8601	-2.84318	0	
0.8793	5.19908	-1.01817	0	
0.8800	6.73714	0.806849	0	
0.8807	4.8958	1.11422	0	
0.8813	-1.81968	2.3437	0	
0.8820	-8.23188	1.42159	0	
0.8827	-10.6581	-1.01817	0	
0.8833	-9.14172	0.499478	0	
0.8840	-9.14172	3.55398	0	
0.8847	-12.8027	5.09083	0	
0.8853	-15.8572	6.3011	0	
0.8860	-12.8027	5.70557	0	
0.8867	-7.62532	3.2466	0	
0.8873	-6.9971	3.55398	0	
0.8880	-11.5896	4.78346	0	
0.8887	-13.106	2.65107	0	
0.8893	-10.0516	-0.0960534	0	
0.8900	-8.53516	-1.01817	0	
0.8907	-8.23188	-2.22844	0	
0.8913	-4.57086	-1.01817	0	
0.8920	-3.9643	2.95844	0	
0.8927	-3.9643	3.55398	0	
0.8933	8.25354	1.72896	0	
0.8940	21.6845	1.72896	0	
0.8947	20.1464	2.3437	0	
0.8953	13.7559	1.72896	0	
0.8960	9.76994	2.65107	0	
0.8967	-0.30328	4.78346	0	
0.8973	-10.9831	6.60847	0	
0.8980	-12.8027	8.74086	0	
0.8987	-12.8027	9.04823	0	
0.8993	-10.6581	3.86135	0	
0.9000	-2.12296	-1.94028	0	
0.9007	-0.30328	-1.94028	0	
0.9013	-7.32204	-3.15055	0	
0.9020	-6.08726	-7.72269	0	
0.9027	2.75118	-9.25955	0	
0.9033	6.10892	-9.25955	0	
0.9040	7.3437	-11.3919	0	
0.9047	11.9146	-10.7772	0	
0.9053	11.9146	-7.72269	0	
0.9060	6.4122	-7.43453	0	
0.9067	5.50236	-6.81979	0	
0.9073	7.3437	-4.97557	0	
0.9080	6.4122	-5.59031	0	
0.9087	2.75118	-4.07266	0	
0.9093	-0.606559	0.211317	0	
0.9100	-0.30328	0.499478	0	
0.9107	3.68268	-1.01817	0	
0.9113	3.68268	0.211317	0	
0.9120	1.84134	1.11422	0	
0.9127	6.10892	0.806849	0	
0.9133	7.3437	0.499478	0	
0.9140	2.75118	0.211317	0	
0.9147	5.19908	0.499478	0	
0.9153	11.308	0.806849	0	
0.9160	9.46666	-1.32554	0	
0.9167	6.73714	-3.15055	0	
0.9173	7.95026	-1.32554	0	
0.9180	7.3437	-0.403424	0	
0.9187	5.50236	-1.94028	0	
0.9193	6.10892	-2.53581	0	
0.9200	3.3794	-1.63291	0	
0.9207	-1.21312	-0.0960534	0	
0.9213	-0.30328	1.42159	0	
0.9220	4.59252	-0.403424	0	
0.9227	6.10892	-2.53581	0	
0.9233	1.84134	1.11422	0	
0.9240	-7.32204	4.47609	0	
0.9247	-14.9474	1.42159	0	
0.9253	-10.6581	-0.0960534	0	
0.9260	0.931502	3.2466	0	
0.9267	2.14462	5.09083	0	
0.9273	-6.9971	3.55398	0	
0.9280	-13.7126	2.65107	0	
0.9287	-16.4638	2.65107	0	
0.9293	-12.8027	-0.0960534	0	
0.9300	-0.909839	-2.22844	0	
0.9307	4.59252	-1.32554	0	
0.9313	0.931502	-1.01817	0	
0.9320	-0.30328	-4.68741	0	
0.9327	0.0216628	-7.12716	0	
0.9333	-4.26758	-4.07266	0	
0.9340	-8.23188	-2.53581	0	
0.9347	-10.9831	-3.45792	0	
0.9353	-11.8929	-1.94028	0	
0.9360	-5.4807	0.211317	0	
0.9367	2.14462	-1.01817	0	
0.9373	0.628222	-1.32554	0	
0.9380	-6.9971	2.03633	0	
0.9387	-9.74828	5.99373	0	
0.9393	-6.69382	7.22322	0	
0.9400	-2.72952	6.3011	0	
0.9407	1.84134	4.47609	0	
0.9413	4.28924	3.2466	0	
0.9420	-2.72952	1.11422	0	
0.9427	-10.9831	-1.63291	0	
0.9433	-8.23188	-2.84318	0	
0.9440	-7.32204	-2.84318	0	
0.9447	-17.3736	-3.15055	0	
0.9453	-18.9117	-1.94028	0	
0.9460	-7.62532	0.806849	0	
0.9467	-0.909839	0.806849	0	
0.9473	0.931502	-2.53581	0	
0.9480	8.25354	-3.15055	0	
0.9487	14.969	-1.01817	0	
0.9493	18.0235	-1.01817	0	
0.9500	19.2366	-1.94028	0	
0.9507	16.4854	-1.01817	0	
0.9513	12.2178	-0.0960534	0	
0.9520	7.95026	-1.94028	0	
0.9527	0.324943	-3.45792	0	
0.9533	-8.83844	-1.63291	0	
0.9540	-13.106	-0.0960534	0	
0.9547	-13.7126	0.211317	0	
0.9553	-13.106	2.03633	0	
0.9560	-12.4995	5.3982	0	
0.9567	-10.6581	4.47609	0	
0.9573	-6.08726	-1.63291	0	
0.9580	0.0216628	-4.07266	0	
0.9587	2.14462	-2.53581	0	
0.9593	-1.81968	-4.68741	0	
0.9600	-8.23188	-7.43453	0	
0.9607	-11.8929	-3.15055	0	
0.9613	-11.5896	1.72896	0	
0.9620	-7.9286	0.806849	0	
0.9627	-1.5164	-1.01817	0	
0.9633	3.68268	-0.0960534	0	
0.9640	5.50236	0.211317	0	
0.9647	8.25354	-0.710795	0	
0.9653	11.6113	-1.94028	0	
0.9660	11.0047	-1.63291	0	
0.9667	9.16338	-0.0960534	0	
0.9673	8.55682	0.806849	0	
0.9680	8.25354	1.11422	0	
0.9687	11.308	0.806849	0	
0.9693	15.2723	-1.94028	0	
0.9700	14.3625	-2.22844	0	
0.9707	12.2178	0.499478	0	
0.9713	12.8244	0.499478	0	
0.9720	10.7014	-0.710795	0	
0.9727	6.10892	0.499478	0	
0.9733	3.68268	0.806849	0	
0.9740	2.75118	0.499478	0	
0.9747	2.75118	1.72896	0	
0.9753	3.68268	0.806849	0	
0.9760	3.3794	-0.403424	0	
0.9767	0.324943	1.72896	0	
0.9773	-1.81968	2.65107	0	
0.9780	-2.12296	0.499478	0	
0.9787	-1.21312	-1.63291	0	
0.9793	0.931502	-1.63291	0	
0.9800	0.324943	-0.403424	0	
0.9807	-6.39054	2.65107	0	
0.9813	-10.9831	4.47609	0	
0.9820	-9.14172	3.55398	0	
0.9827	-7.62532	2.65107	0	
0.9833	-8.53516	3.86135	0	
0.9840	-6.39054	3.55398	0	
0.9847	-3.33608	-0.403424	0	
0.9853	-3.63936	-2.53581	0	
0.9860	-2.42624	-1.01817	0	
0.9867	2.75118	-0.0960534	0	
0.9873	6.73714	0.499478	0	
0.9880	7.64698	-0.0960534	0	
0.9887	8.8601	-1.94028	0	
0.9893	11.9146	-1.01817	0	
0.9900	19.2366	-0.710795	0	
0.9907	25.0422	-7.43453	0	
0.9913	24.739	-10.7772	0	
0.9920	23.8075	-5.28294	0	
0.9927	24.739	-3.15055	0	
0.9933	14.969	-5.59031	0	
0.9940	-1.21312	-3.45792	0	
0.9947	-10.9831	0.211317	0	
0.9953	-15.8572	-1.32554	0	
0.9960	-17.6769	-2.84318	0	
0.9967	-10.0516	-0.710795	0	
0.9973	-3.0328	1.42159	0	
0.9980	-4.57086	0.806849	0	
0.9987	-6.39054	-0.403424	0	
0.9993	-9.74828	0.806849	0	
1.0000	-18.3051	2.65107	0	
1.0007	-23.7858	1.11422	0	
1.0013	-22.876	-0.403424	0	
1.0020	-19.8215	0.499478	0	
1.0027	-14.6441	1.42159	0	
1.0033	-8.53516	1.11422	0	
1.0040	-7.32204	-0.0960534	0	
1.0047	-8.83844	-0.710795	0	
1.0053	-9.445	0.806849	0	
1.0060	-8.23188	2.65107	0	
1.0067	-7.32204	2.65107	0	
1.0073	-7.32204	0.499478	0	
1.0080	-5.17742	-0.0960534	0	
1.0087	-1.5164	1.11422	0	
1.0093	-1.21312	1.72896	0	
1.0100	0.324943	0.806849	0	
1.0107	5.50236	1.11422	0	
1.0113	6.73714	1.11422	0	
1.0120	3.98596	-1.94028	0	
1.0127	6.4122	-3.45792	0	
1.0133	11.0047	-1.94028	0	
1.0140	12.8244	-3.15055	0	
1.0147	15.5756	-6.51242	0	
1.0153	19.2366	-6.51242	0	
1.0160	21.0779	-5.59031	0	
1.0167	22.2911	-5.59031	0	
1.0173	23.5042	-2.84318	0	
1.0180	22.2911	0.499478	0	
1.0187	20.4497	1.11422	0	
1.0193	19.2366	1.72896	0	
1.0200	15.5756	2.65107	0	
1.0207	11.9146	2.65107	0	
1.0213	9.46666	2.65107	0	
1.0220	4.59252	1.72896	0	
1.0227	-4.57086	0.806849	0	
1.0233	-14.9474	1.72896	0	
1.0240	-26.8403	2.03633	0	
1.0247	-32.9492	2.65107	0	
1.0253	-26.537	3.55398	0	
1.0260	-18.0018	1.42159	0	
1.0267	-13.106	-1.32554	0	
1.0273	-6.08726	-1.94028	0	
1.0280	-3.63936	-4.07266	0	
1.0287	-11.8929	-7.12716	0	
1.0293	-15.5539	-7.43453	0	
1.0300	-9.74828	-8.03006	0	
1.0307	-8.53516	-6.81979	0	
1.0313	-13.7126	-3.76529	0	
1.0320	-17.3736	-4.38003	0	
1.0327	-14.9474	-4.68741	0	
1.0333	-7.32204	-1.94028	0	
1.0340	-2.72952	-3.76529	0	
1.0347	-3.0328	-7.12716	0	
1.0353	0.0216628	-4.38003	0	
1.0360	3.68268	-1.94028	0	
1.0367	0.931502	-0.403424	0	
1.0373	-2.42624	2.03633	0	
1.0380	-6.08726	1.42159	0	
1.0387	-12.8027	-0.0960534	0	
1.0393	-14.3408	2.65107	0	
1.0400	-8.83844	3.2466	0	
1.0407	-3.33608	0.806849	0	
1.0413	1.84134	2.03633	0	
1.0420	6.4122	3.86135	0	
1.0427	8.8601	3.86135	0	
1.0433	11.308	5.99373	0	
1.0440	13.1277	7.22322	0	
1.0447	13.7559	5.3982	0	
1.0453	14.6657	5.3982	0	
1.0460	13.1277	5.3982	0	
1.0467	12.8244	3.86135	0	
1.0473	19.2366	3.55398	0	
1.0480	27.4685	2.03633	0	
1.0487	29.3098	-0.710795	0	
1.0493	21.6845	1.72896	0	
1.0500	7.3437	5.09083	0	
1.0507	0.324943	1.72896	0	
1.0513	10.0732	-1.94028	0	
1.0520	20.7747	-1.01817	0	
1.0527	22.2911	1.72896	0	
1.0533	24.4357	3.55398	0	
1.0540	28.4	3.86135	0	
1.0547	28.0967	2.3437	0	
1.0553	18.63	1.42159	0	
1.0560	-11.5896	2.65107	0	
1.0567	-53.7022	4.47609	0	
1.0573	-71.4007	5.99373	0	
1.0580	-59.1829	5.09083	0	
1.0587	-48.5031	4.16872	0	
1.0593	-50.3444	4.16872	0	
1.0600	-51.2543	2.65107	0	
1.0607	-47.5933	1.11422	0	
1.0613	-43.629	2.65107	0	
1.0620	-36.0036	2.65107	0	
1.0627	-27.4468	-1.32554	0	
1.0633	-25.0206	-4.97557	0	
1.0640	-21.9661	-5.59031	0	
1.0647	-9.14172	-5.89768	0	
1.0653	2.14462	-6.20505	0	
1.0660	0.0216628	-5.28294	0	
1.0667	-7.9286	-3.45792	0	
1.0673	-12.8027	-2.84318	0	
1.0680	-14.6441	-2.84318	0	
1.0687	-13.4093	-1.01817	0	
1.0693	-7.9286	-0.0960534	0	
1.0700	-1.5164	-0.710795	0	
1.0707	3.68268	-0.0960534	0	
1.0713	3.68268	0.806849	0	
1.0720	2.14462	0.806849	0	
1.0727	3.68268	-1.01817	0	
1.0733	5.19908	-2.53581	0	
1.0740	5.50236	-1.32554	0	
1.0747	8.8601	0.499478	0	
1.0753	11.0047	-0.0960534	0	
1.0760	7.95026	-0.403424	0	
1.0767	7.04042	-0.710795	0	
1.0773	12.8244	-1.63291	0	
1.0780	19.2366	-1.94028	0	
1.0787	20.1464	-2.53581	0	
1.0793	18.3268	-4.68741	0	
1.0800	17.4169	-4.68741	0	
1.0807	14.969	-1.32554	0	
1.0813	9.16338	-0.0960534	0	
1.0820	6.10892	0.806849	0	
1.0827	7.95026	0.499478	0	
1.0833	9.46666	-1.94028	0	
1.0840	12.5211	-1.01817	0	
1.0847	13.7559	2.65107	0	
1.0853	7.3437	1.11422	0	
1.0860	1.84134	-2.84318	0	
1.0867	6.4122	-2.84318	0	
1.0873	8.25354	-1.94028	0	
1.0880	3.98596	-1.94028	0	
1.0887	4.59252	-0.403424	0	
1.0893	7.3437	-0.0960534	0	
1.0900	7.64698	-2.84318	0	
1.0907	9.16338	-6.51242	0	
1.0913	9.16338	-7.72269	0	
1.0920	6.10892	-7.12716	0	
1.0927	7.04042	-6.51242	0	
1.0933	10.3982	-6.20505	0	
1.0940	11.308	-5.28294	0	
1.0947	10.7014	-4.07266	0	
1.0953	10.3982	-3.76529	0	
1.0960	10.3982	-2.84318	0	
1.0967	12.8244	-1.01817	0	
1.0973	17.092	-1.63291	0	
1.0980	17.4169	-4.68741	0	
1.0987	13.431	-5.59031	0	
1.0993	13.7559	-3.45792	0	
1.1000	18.63	-1.94028	0	
1.1007	18.9333	-1.94028	0	
1.1013	16.1821	-0.710795	0	
1.1020	12.5211	1.11422	0	
1.1027	2.75118	4.47609	0	
1.1033	-7.32204	7.53059	0	
1.1040	-8.53516	5.3982	0	
1.1047	-9.14172	1.11422	0	
1.1053	-13.106	1.42159	0	
1.1060	-17.0703	2.65107	0	
1.1067	-25.3239	0.806849	0	
1.1073	-32.9492	-0.403424	0	
1.1080	-25.6271	-0.403424	0	
1.1087	-11.8929	-0.710795	0	
1.1093	-4.57086	-1.94028	0	
1.1100	4.8958	-4.97557	0	
1.1107	13.431	-7.43453	0	
1.1113	9.16338	-6.81979	0	
1.1120	5.80564	-5.89768	0	
1.1127	13.7559	-6.51242	0	
1.1133	23.2009	-8.95218	0	
1.1140	25.9521	-11.0846	0	
1.1147	17.4169	-5.89768	0	
1.1153	2.75118	0.499478	0	
1.1160	0.0216628	-1.94028	0	
1.1167	7.3437	-6.20505	0	
1.1173	2.4479	-4.07266	0	
1.1180	-4.57086	-4.07266	0	
1.1187	-2.72952	-6.51242	0	
1.1193	-8.83844	-4.07266	0	
1.1200	-24.0891	0.499478	0	
1.1207	-32.6459	2.3437	0	
1.1213	-38.4299	2.95844	0	
1.1220	-47.5933	3.86135	0	
1.1227	-51.2543	4.78346	0	
1.1233	-46.0769	4.47609	0	
1.1240	-40.2712	4.16872	0	
1.1247	-35.3971	5.3982	0	
1.1253	-27.4468	3.86135	0	
1.1260	-17.3736	-0.0960534	0	
1.1267	-10.9831	-0.403424	0	
1.1273	-9.74828	1.42159	0	
1.1280	-8.23188	0.806849	0	
1.1287	-8.23188	2.3437	0	
1.1293	-9.74828	5.3982	0	
1.1300	-3.63936	5.3982	0	
1.1307	7.04042	3.2466	0	
1.1313	10.0732	-0.0960534	0	
1.1320	9.16338	-2.22844	0	
1.1327	12.8244	-2.84318	0	
1.1333	15.2723	-2.84318	0	
1.1340	14.3625	-2.84318	0	
1.1347	16.7887	-1.63291	0	
1.1353	19.5399	-1.94028	0	
1.1360	17.7202	-4.07266	0	
1.1367	14.6657	-2.84318	0	
1.1373	8.55682	-0.403424	0	
1.1380	-0.909839	1.72896	0	
1.1387	-4.57086	3.55398	0	
1.1393	-2.72952	3.55398	0	
1.1400	-1.81968	2.95844	0	
1.1407	2.75118	2.65107	0	
1.1413	9.46666	1.11422	0	
1.1420	10.0732	1.11422	0	
1.1427	8.8601	2.65107	0	
1.1433	11.9146	0.806849	0	
1.1440	15.2723	-1.01817	0	
1.1447	15.8789	3.55398	0	
1.1453	13.7559	8.74086	0	
1.1460	6.4122	9.97034	0	
1.1467	-2.72952	8.74086	0	
1.1473	-6.69382	4.47609	0	
1.1480	-4.57086	0.211317	0	
1.1487	0.0216628	1.72896	0	
1.1493	1.84134	5.3982	0	
1.1500	-0.606559	5.3982	0	
1.1507	-6.69382	3.86135	0	
1.1513	-13.7126	3.55398	0	
1.1520	-14.6441	1.11422	0	
1.1527	-9.14172	-0.0960534	0	
1.1533	-3.9643	2.3437	0	
1.1540	0.931502	5.3982	0	
1.1547	8.8601	3.86135	0	
1.1553	8.8601	0.806849	0	
1.1560	-4.26758	0.806849	0	
1.1567	-13.4093	5.09083	0	
1.1573	-13.7126	8.14533	0	
1.1580	-16.1605	5.70557	0	
1.1587	-20.1248	3.2466	0	
1.1593	-22.876	4.47609	0	
1.1600	-25.3239	3.55398	0	
1.1607	-21.6628	-0.403424	0	
1.1613	-12.4995	-2.84318	0	
1.1620	-8.23188	-0.403424	0	
1.1627	-6.39054	1.72896	0	
1.1633	0.324943	0.499478	0	
1.1640	7.3437	-1.32554	0	
1.1647	11.0047	-1.94028	0	
1.1653	17.092	-3.45792	0	
1.1660	23.5042	-5.28294	0	
1.1667	25.3455	-4.68741	0	
1.1673	26.5586	-5.28294	0	
1.1680	30.2197	-8.95218	0	
1.1687	33.5774	-9.25955	0	
1.1693	37.5417	-5.28294	0	
1.1700	40.2929	-3.76529	0	
1.1707	36.9351	-4.38003	0	
1.1713	32.061	-2.84318	0	
1.1720	28.7033	-1.01817	0	
1.1727	15.8789	-0.710795	0	
1.1733	-1.21312	-0.0960534	0	
1.1740	-5.4807	0.211317	0	
1.1747	-5.4807	-0.0960534	0	
1.1753	-17.3736	2.65107	0	
1.1760	-31.1078	6.3011	0	
1.1767	-36.6102	5.70557	0	
1.1773	-38.1266	5.70557	0	
1.1780	-37.8233	9.04823	0	
1.1787	-37.52	9.3556	0	
1.1793	-37.2168	8.14533	0	
1.1800	-29.8947	10.2777	0	
1.1807	-18.6084	10.2777	0	
1.1813	-15.5539	7.83796	0	
1.1820	-14.6441	9.66297	0	
1.1827	-5.17742	9.97034	0	
1.1833	7.3437	3.86135	0	
1.1840	14.969	-0.0960534	0	
1.1847	18.0235	-1.01817	0	
1.1853	15.5756	-4.38003	0	
1.1860	9.76994	-6.20505	0	
1.1867	6.4122	-5.28294	0	
1.1873	9.16338	-6.81979	0	
1.1880	15.8789	-8.95218	0	
1.1887	21.0779	-8.95218	0	
1.1893	22.8976	-8.95218	0	
1.1900	25.6488	-8.33743	0	
1.1907	28.7033	-4.38003	0	
1.1913	25.3455	-0.0960534	0	
1.1920	15.5756	0.806849	0	
1.1927	9.16338	0.806849	0	
1.1933	9.16338	0.806849	0	
1.1940	10.7014	0.211317	0	
1.1947	9.76994	-1.63291	0	
1.1953	3.68268	-1.94028	0	
1.1960	-6.69382	0.211317	0	
1.1967	-13.7126	2.65107	0	
1.1973	-14.6441	3.2466	0	
1.1980	-14.3408	2.95844	0	
1.1987	-13.4093	2.65107	0	
1.1993	-13.7126	1.42159	0	
1.2000	-17.0703	0.806849	0	
1.2007	-18.3051	-0.0960534	0	
1.2013	-15.2506	-1.94028	0	
1.2020	-12.8027	-3.76529	0	
1.2027	-11.8929	-3.45792	0	
1.2033	-7.62532	-0.403424	0	
1.2040	-0.606559	0.211317	0	
1.2047	4.28924	-1.63291	0	
1.2053	4.59252	-0.0960534	0	
1.2060	1.53806	3.2466	0	
1.2067	-1.81968	2.65107	0	
1.2073	-0.909839	0.211317	0	
1.2080	0.931502	-1.32554	0	
1.2087	1.23478	-3.76529	0	
1.2093	2.14462	-6.51242	0	
1.2100	1.23478	-5.89768	0	
1.2107	-3.63936	-2.53581	0	
1.2113	-7.32204	0.806849	0	
1.2120	-6.9971	2.03633	0	
1.2127	-7.32204	1.42159	0	
1.2133	-7.9286	0.806849	0	
1.2140	-4.87414	2.03633	0	
1.2147	-0.909839	2.65107	0	
1.2153	1.84134	0.806849	0	
1.2160	2.75118	-0.403424	0	
1.2167	1.23478	0.806849	0	
1.2173	3.05446	4.47609	0	
1.2180	11.6113	5.70557	0	
1.2187	19.2366	3.2466	0	
1.2193	21.0779	1.42159	0	
1.2200	25.6488	-0.0960534	0	
1.2207	34.8122	-5.28294	0	
1.2213	39.383	-9.25955	0	
1.2220	36.6319	-8.95218	0	
1.2227	30.8262	-9.25955	0	
1.2233	21.9878	-10.1817	0	
1.2240	9.76994	-7.72269	0	
1.2247	-3.63936	-4.07266	0	
1.2253	-17.3736	-3.45792	0	
1.2260	-27.4468	-3.76529	0	
1.2267	-26.2337	-2.22844	0	
1.2273	-15.8572	-1.01817	0	
1.2280	-6.08726	-1.63291	0	
1.2287	-2.42624	-3.15055	0	
1.2293	-4.57086	-3.76529	0	
1.2300	-10.0516	-1.01817	0	
1.2307	-14.6441	2.3437	0	
1.2313	-13.106	1.42159	0	
1.2320	-6.9971	-1.01817	0	
1.2327	-6.39054	-1.01817	0	
1.2333	-14.0159	-1.63291	0	
1.2340	-19.2149	-0.403424	0	
1.2347	-17.3736	5.09083	0	
1.2353	-17.0703	7.22322	0	
1.2360	-15.2506	3.2466	0	
1.2367	-7.62532	2.03633	0	
1.2373	-3.33608	2.95844	0	
1.2380	-5.4807	-0.0960534	0	
1.2387	-5.17742	-1.94028	0	
1.2393	-2.42624	0.211317	0	
1.2400	-5.17742	0.499478	0	
1.2407	-10.0516	-0.0960534	0	
1.2413	-7.32204	-0.403424	0	
1.2420	2.75118	-1.94028	0	
1.2427	5.50236	-1.94028	0	
1.2433	0.324943	-0.710795	0	
1.2440	1.53806	-2.53581	0	
1.2447	8.25354	-3.15055	0	
1.2453	6.4122	-1.32554	0	
1.2460	0.0216628	-1.94028	0	
1.2467	0.931502	-1.01817	0	
1.2473	1.84134	3.55398	0	
1.2480	0.931502	4.47609	0	
1.2487	4.59252	1.11422	0	
1.2493	6.4122	1.72896	0	
1.2500	3.05446	3.86135	0	
1.2507	5.19908	3.55398	0	
1.2513	8.25354	2.3437	0	
1.2520	3.68268	1.72896	0	
1.2527	-1.5164	2.65107	0	
1.2533	-1.81968	4.16872	0	
1.2540	-1.5164	3.55398	0	
1.2547	-0.30328	0.211317	0	
1.2553	0.0216628	-2.53581	0	
1.2560	-1.81968	-1.94028	0	
1.2567	-1.81968	0.806849	0	
1.2573	-2.42624	1.42159	0	
1.2580	-9.14172	1.72896	0	
1.2587	-15.5539	5.09083	0	
1.2593	-17.6769	5.99373	0	
1.2600	-13.7126	1.72896	0	
1.2607	-3.0328	-1.63291	0	
1.2613	7.3437	-1.63291	0	
1.2620	11.6113	-2.84318	0	
1.2627	15.5756	-7.72269	0	
1.2633	16.4854	-9.87429	0	
1.2640	12.8244	-7.43453	0	
1.2647	11.0047	-5.89768	0	
1.2653	10.3982	-6.51242	0	
1.2660	5.80564	-4.97557	0	
1.2667	2.75118	-4.07266	0	
1.2673	3.68268	-6.51242	0	
1.2680	2.4479	-6.81979	0	
1.2687	0.931502	-5.28294	0	
1.2693	1.84134	-4.38003	0	
1.2700	1.53806	-1.94028	0	
1.2707	0.324943	-0.710795	0	
1.2713	-0.909839	-1.94028	0	
1.2720	-1.21312	-0.403424	0	
1.2727	2.4479	1.72896	0	
1.2733	5.50236	-0.403424	0	
1.2740	3.68268	-1.01817	0	
1.2747	0.324943	1.72896	0	
1.2753	-3.33608	2.3437	0	
1.2760	-6.39054	4.47609	0	
1.2767	-6.39054	7.53059	0	
1.2773	-5.78398	7.22322	0	
1.2780	-7.32204	5.09083	0	
1.2787	-4.26758	4.16872	0	
1.2793	2.75118	2.95844	0	
1.2800	5.50236	-0.0960534	0	
1.2807	3.05446	-4.38003	0	
1.2813	-0.909839	-4.68741	0	
1.2820	-8.83844	-1.32554	0	
1.2827	-17.3736	-1.32554	0	
1.2833	-16.767	-2.22844	0	
1.2840	-10.0516	-1.01817	0	
1.2847	-8.83844	-1.94028	0	
1.2853	-10.9831	-2.84318	0	
1.2860	-10.0516	0.499478	0	
1.2867	-7.32204	0.499478	0	
1.2873	-6.39054	-1.01817	0	
1.2880	-4.87414	1.42159	0	
1.2887	0.0216628	0.806849	0	
1.2893	6.10892	-4.07266	0	
1.2900	9.16338	-4.38003	0	
1.2907	9.46666	-2.84318	0	
1.2913	11.9146	-2.84318	0	
1.2920	14.3625	-0.710795	0	
1.2927	12.8244	1.11422	0	
1.2933	10.0732	-2.22844	0	
1.2940	6.4122	-4.68741	0	
1.2947	-2.72952	-3.15055	0	
1.2953	-11.2863	-2.22844	0	
1.2960	-8.83844	-1.94028	0	
1.2967	-0.909839	-1.01817	0	
1.2973	1.23478	-1.01817	0	
1.2980	-1.21312	-1.01817	0	
1.2987	-2.72952	0.499478	0	
1.2993	-2.12296	1.72896	0	
1.3000	0.628222	0.806849	0	
1.3007	3.3794	-1.01817	0	
1.3013	4.8958	-1.63291	0	
1.3020	6.4122	-1.63291	0	
1.3027	6.4122	-2.22844	0	
1.3033	4.28924	-2.22844	0	
1.3040	1.23478	-0.403424	0	
1.3047	-2.72952	0.806849	0	
1.3053	-6.9971	0.499478	0	
1.3060	-9.74828	1.42159	0	
1.3067	-10.6581	2.65107	0	
1.3073	-10.3548	2.65107	0	
1.3080	-9.14172	2.3437	0	
1.3087	-7.62532	2.03633	0	
1.3093	-8.83844	2.3437	0	
1.3100	-12.4995	2.65107	0	
1.3107	-14.6441	1.72896	0	
1.3113	-13.106	0.499478	0	
1.3120	-10.0516	0.806849	0	
1.3127	-9.445	0.499478	0	
1.3133	-9.74828	-0.0960534	0	
1.3140	-6.69382	1.42159	0	
1.3147	-0.909839	2.65107	0	
1.3153	2.4479	2.03633	0	
1.3160	2.75118	2.03633	0	
1.3167	3.68268	0.806849	0	
1.3173	7.64698	-1.63291	0	
1.3180	11.6113	-3.15055	0	
1.3187	15.2723	-4.38003	0	
1.3193	17.4169	-5.59031	0	
1.3200	15.5756	-5.59031	0	
1.3207	13.7559	-3.76529	0	
1.3213	13.431	-1.01817	0	
1.3220	9.46666	0.806849	0	
1.3227	6.10892	0.806849	0	
1.3233	9.76994	1.72896	0	
1.3240	14.969	2.3437	0	
1.3247	16.4854	3.55398	0	
1.3253	17.7202	6.3011	0	
1.3260	15.5756	7.83796	0	
1.3267	9.16338	3.55398	0	
1.3273	2.75118	0.806849	0	
1.3280	-2.42624	3.86135	0	
1.3287	1.84134	4.47609	0	
1.3293	18.0235	-1.01817	0	
1.3300	25.3455	-4.97557	0	
1.3307	9.16338	-4.38003	0	
1.3313	-11.8929	-3.76529	0	
1.3320	-22.5727	-4.97557	0	
1.3327	-22.5727	-6.51242	0	
1.3333	-15.2506	-7.43453	0	
1.3340	-8.53516	-7.43453	0	
1.3347	-4.87414	-6.81979	0	
1.3353	-0.909839	-6.51242	0	
1.3360	-4.57086	-4.68741	0	
1.3367	-15.8572	-0.710795	0	
1.3373	-15.5539	2.65107	0	
1.3380	-6.39054	4.16872	0	
1.3387	-5.78398	4.78346	0	
1.3393	-10.0516	6.3011	0	
1.3400	-6.9971	6.3011	0	
1.3407	-2.42624	4.16872	0	
1.3413	-0.909839	1.42159	0	
1.3420	0.628222	-0.403424	0	
1.3427	1.84134	0.499478	0	
1.3433	1.84134	3.2466	0	
1.3440	4.59252	3.2466	0	
1.3447	9.16338	2.3437	0	
1.3453	5.50236	3.55398	0	
1.3460	-4.57086	1.11422	0	
1.3467	-9.14172	-2.22844	0	
1.3473	-14.6441	-1.94028	0	
1.3480	-29.8947	-3.76529	0	
1.3487	-33.5557	-7.12716	0	
1.3493	-15.2506	-5.28294	0	
1.3500	-2.72952	-4.07266	0	
1.3507	-9.14172	-6.81979	0	
1.3513	-16.1605	-6.51242	0	
1.3520	-12.4995	-5.59031	0	
1.3527	-5.4807	-6.81979	0	
1.3533	-1.5164	-4.38003	0	
1.3540	-2.72952	-3.76529	0	
1.3547	-6.08726	-6.51242	0	
1.3553	-6.69382	-3.15055	0	
1.3560	-5.17742	0.806849	0	
1.3567	-3.9643	-2.22844	0	
1.3573	-1.21312	-1.32554	0	
1.3580	3.98596	2.65107	0	
1.3587	7.3437	0.806849	0	
1.3593	8.25354	1.11422	0	
1.3600	11.0047	6.60847	0	
1.3607	14.3625	3.55398	0	
1.3613	16.1821	-2.22844	0	
1.3620	20.4497	1.11422	0	
1.3627	24.739	5.09083	0	
1.3633	25.0422	2.3437	0	
1.3640	27.4685	2.65107	0	
1.3647	25.6488	5.3982	0	
1.3653	8.55682	2.03633	0	
1.3660	-7.32204	0.211317	0	
1.3667	-9.445	3.2466	0	
1.3673	-15.8572	2.65107	0	
1.3680	-25.3239	0.806849	0	
1.3687	-22.876	0.806849	0	
1.3693	-21.0346	-1.32554	0	
1.3700	-28.9849	-3.76529	0	
1.3707	-28.6816	-0.710795	0	
1.3713	-20.1248	2.95844	0	
1.3720	-18.3051	2.95844	0	
1.3727	-19.2149	1.42159	0	
1.3733	-14.9474	-0.0960534	0	
1.3740	-9.14172	-0.0960534	0	
1.3747	-3.63936	0.211317	0	
1.3753	-0.909839	-0.403424	0	
1.3760	-0.30328	-0.403424	0	
1.3767	1.53806	-0.0960534	0	
1.3773	4.59252	-1.01817	0	
1.3780	4.28924	-0.710795	0	
1.3787	2.4479	-0.0960534	0	
1.3793	4.8958	-1.63291	0	
1.3800	8.55682	-2.53581	0	
1.3807	8.25354	-2.53581	0	
1.3813	6.4122	-2.84318	0	
1.3820	5.50236	-2.22844	0	
1.3827	4.59252	-1.63291	0	
1.3833	3.68268	-1.01817	0	
1.3840	4.59252	-1.32554	0	
1.3847	6.4122	-2.53581	0	
1.3853	7.3437	-1.63291	0	
1.3860	7.3437	0.806849	0	
1.3867	9.46666	-1.01817	0	
1.3873	14.0592	-3.76529	0	
1.3880	15.2723	-1.94028	0	
1.3887	12.8244	0.499478	0	
1.3893	13.7559	0.211317	0	
1.3900	17.4169	-0.403424	0	
1.3907	18.3268	-1.63291	0	
1.3913	16.4854	-2.53581	0	
1.3920	10.3982	-1.63291	0	
1.3927	0.628222	-1.94028	0	
1.3933	-3.9643	-4.38003	0	
1.3940	-0.606559	-4.68741	0	
1.3947	0.931502	-4.97557	0	
1.3953	-2.72952	-4.07266	0	
1.3960	-6.08726	-1.32554	0	
1.3967	-7.32204	0.211317	0	
1.3973	-8.23188	1.42159	0	
1.3980	-10.9831	4.47609	0	
1.3987	-12.8027	5.3982	0	
1.3993	-12.4995	3.55398	0	
1.4000	-13.106	4.47609	0	
1.4007	-12.1962	4.47609	0	
1.4013	-4.57086	1.72896	0	
1.4020	4.59252	0.806849	0	
1.4027	9.16338	2.3437	0	
1.4033	12.8244	3.86135	0	
1.4040	15.2723	4.16872	0	
1.4047	11.9146	2.03633	0	
1.4053	10.3982	1.11422	0	
1.4060	12.8244	0.806849	0	
1.4067	9.16338	-1.94028	0	
1.4073	2.75118	-2.84318	0	
1.4080	4.59252	0.499478	0	
1.4087	5.19908	0.806849	0	
1.4093	-3.63936	-1.63291	0	
1.4100	-10.3548	-1.01817	0	
1.4107	-6.08726	1.11422	0	
1.4113	1.23478	-0.0960534	0	
1.4120	4.28924	-3.45792	0	
1.4127	4.28924	-4.07266	0	
1.4133	3.68268	-1.94028	0	
1.4140	3.3794	-2.53581	0	
1.4147	1.23478	-3.45792	0	
1.4153	2.4479	-0.0960534	0	
1.4160	8.25354	1.72896	0	
1.4167	10.7014	-1.01817	0	
1.4173	8.55682	-1.32554	0	
1.4180	9.46666	0.806849	0	
1.4187	12.5211	-0.710795	0	
1.4193	9.16338	-1.94028	0	
1.4200	4.28924	0.499478	0	
1.4207	0.628222	1.72896	0	
1.4213	-5.4807	-0.710795	0	
1.4220	-10.0516	-0.0960534	0	
1.4227	-10.0516	1.42159	0	
1.4233	-14.9474	-0.0960534	0	
1.4240	-25.0206	-0.0960534	0	
1.4247	-29.2882	2.03633	0	
1.4253	-27.7501	2.65107	0	
1.4260	-24.0891	5.99373	0	
1.4267	-17.3736	9.66297	0	
1.4273	-13.7126	6.3011	0	
1.4280	-14.9474	2.65107	0	
1.4287	-14.3408	3.55398	0	
1.4293	-11.2863	4.16872	0	
1.4300	-10.0516	4.47609	0	
1.4307	-6.39054	6.60847	0	
1.4313	-2.42624	6.3011	0	
1.4320	-2.72952	4.78346	0	
1.4327	0.324943	3.55398	0	
1.4333	7.95026	0.211317	0	
1.4340	12.5211	-4.68741	0	
1.4347	14.0592	-8.03006	0	
1.4353	11.9146	-10.1817	0	
1.4360	4.59252	-9.25955	0	
1.4367	2.14462	-6.51242	0	
1.4373	7.3437	-7.72269	0	
1.4380	13.431	-10.7772	0	
1.4387	18.3268	-10.1817	0	
1.4393	19.2366	-10.1817	0	
1.4400	14.969	-11.0846	0	
1.4407	11.0047	-8.64481	0	
1.4413	7.3437	-4.97557	0	
1.4420	1.84134	-3.76529	0	
1.4427	1.53806	-4.07266	0	
1.4433	1.53806	-3.15055	0	
1.4440	-2.72952	-1.63291	0	
1.4447	-1.81968	-0.403424	0	
1.4453	4.59252	-1.94028	0	
1.4460	6.10892	-4.38003	0	
1.4467	5.50236	-3.76529	0	
1.4473	6.73714	-3.45792	0	
1.4480	2.75118	-3.15055	0	
1.4487	-6.69382	0.211317	0	
1.4493	-17.3736	2.3437	0	
1.4500	-19.8215	0.499478	0	
1.4507	-10.0516	-0.403424	0	
1.4513	-2.12296	-0.710795	0	
1.4520	-5.17742	-2.84318	0	
1.4527	-7.32204	-1.32554	0	
1.4533	-7.62532	1.42159	0	
1.4540	-9.445	-0.710795	0	
1.4547	-2.72952	-2.22844	0	
1.4553	8.25354	-2.53581	0	
1.4560	9.76994	-4.97557	0	
1.4567	9.16338	-4.97557	0	
1.4573	11.0047	-1.94028	0	
1.4580	8.8601	-1.94028	0	
1.4587	7.64698	0.806849	0	
1.4593	9.16338	5.3982	0	
1.4600	7.95026	4.47609	0	
1.4607	8.25354	3.2466	0	
1.4613	7.64698	5.99373	0	
1.4620	-1.5164	4.78346	0	
1.4627	-7.9286	3.2466	0	
1.4633	-3.9643	6.91584	0	
1.4640	-3.63936	7.22322	0	
1.4647	-7.32204	1.72896	0	
1.4653	-6.9971	0.211317	0	
1.4660	-6.39054	0.806849	0	
1.4667	-6.9971	-1.01817	0	
1.4673	-6.69382	-1.94028	0	
1.4680	-7.32204	0.499478	0	
1.4687	-5.78398	3.55398	0	
1.4693	-1.21312	3.55398	0	
1.4700	-1.21312	2.03633	0	
1.4707	-2.12296	4.47609	0	
1.4713	5.19908	5.70557	0	
1.4720	12.5211	1.72896	0	
1.4727	14.0592	-0.0960534	0	
1.4733	14.6657	1.72896	0	
1.4740	12.8244	1.72896	0	
1.4747	6.10892	0.806849	0	
1.4753	3.68268	-2.84318	0	
1.4760	3.98596	-6.81979	0	
1.4767	0.628222	-1.94028	0	
1.4773	-0.909839	3.2466	0	
1.4780	-1.81968	-0.0960534	0	
1.4787	-13.4093	-1.01817	0	
1.4793	-29.2882	3.55398	0	
1.4800	-33.859	1.11422	0	
1.4807	-30.5013	-1.01817	0	
1.4813	-26.537	2.65107	0	
1.4820	-20.1248	2.65107	0	
1.4827	-11.5896	0.211317	0	
1.4833	-4.26758	0.806849	0	
1.4840	0.931502	-0.0960534	0	
1.4847	2.75118	-3.45792	0	
1.4853	0.0216628	-3.15055	0	
1.4860	0.931502	-1.32554	0	
1.4867	9.16338	-0.0960534	0	
1.4873	11.6113	-0.0960534	0	
1.4880	5.50236	-1.94028	0	
1.4887	3.98596	-3.76529	0	
1.4893	9.16338	-5.28294	0	
1.4900	12.8244	-5.28294	0	
1.4907	15.8789	-3.76529	0	
1.4913	19.8432	-3.15055	0	
1.4920	24.739	-3.76529	0	
1.4927	32.3643	-3.76529	0	
1.4933	31.7577	-3.15055	0	
1.4940	19.2366	-1.94028	0	
1.4947	9.16338	0.499478	0	
1.4953	1.84134	1.72896	0	
1.4960	-15.5539	2.65107	0	
1.4967	-28.3783	3.55398	0	
1.4973	-24.7173	2.65107	0	
1.4980	-21.0346	2.3437	0	
1.4987	-24.3924	3.55398	0	
1.4993	-23.7858	5.09083	0	
1.5000	-21.9661	7.53059	0	
1.5007	-24.3924	9.04823	0	
1.5013	-22.876	6.3011	0	
1.5020	-13.4093	1.72896	0	
1.5027	-5.17742	2.65107	0	
1.5033	-7.32204	4.47609	0	
1.5040	-13.7126	3.55398	0	
1.5047	-15.5539	2.95844	0	
1.5053	-16.4638	2.65107	0	
1.5060	-16.4638	1.42159	0	
1.5067	-10.0516	0.806849	0	
1.5073	-3.9643	-0.0960534	0	
1.5080	-5.4807	-1.94028	0	
1.5087	-4.87414	-1.94028	0	
1.5093	3.05446	-0.0960534	0	
1.5100	7.95026	-1.32554	0	
1.5107	9.16338	-3.76529	0	
1.5113	11.308	-4.38003	0	
1.5120	12.5211	-5.59031	0	
1.5127	13.7559	-10.1817	0	
1.5133	18.9333	-11.0846	0	
1.5140	18.3268	-6.51242	0	
1.5147	9.16338	-3.15055	0	
1.5153	6.10892	-2.84318	0	
1.5160	11.0047	-1.94028	0	
1.5167	13.7559	-1.01817	0	
1.5173	11.9146	-1.94028	0	
1.5180	10.0732	-2.22844	0	
1.5187	9.46666	-1.01817	0	
1.5193	7.64698	0.806849	0	
1.5200	5.19908	2.03633	0	
1.5207	1.53806	2.03633	0	
1.5213	-5.78398	1.72896	0	
1.5220	-10.0516	1.72896	0	
1.5227	-3.9643	3.2466	0	
1.5233	1.53806	2.65107	0	
1.5240	-4.26758	-0.403424	0	
1.5247	-9.445	-3.45792	0	
1.5253	-6.08726	-3.76529	0	
1.5260	-5.78398	-2.53581	0	
1.5267	-10.0516	-0.710795	0	
1.5273	-7.32204	-0.403424	0	
1.5280	-0.909839	-1.01817	0	
1.5287	0.324943	0.499478	0	
1.5293	-0.30328	1.72896	0	
1.5300	2.14462	-1.01817	0	
1.5307	2.14462	-1.94028	0	
1.5313	-0.30328	0.806849	0	
1.5320	1.23478	-0.0960534	0	
1.5327	4.59252	-3.15055	0	
1.5333	3.3794	-3.45792	0	
1.5340	2.75118	-0.403424	0	
1.5347	5.50236	2.03633	0	
1.5353	5.50236	1.72896	0	
1.5360	1.84134	1.72896	0	
1.5367	-1.81968	3.86135	0	
1.5373	-6.69382	5.09083	0	
1.5380	-11.5896	4.16872	0	
1.5387	-13.7126	4.16872	0	
1.5393	-13.4093	3.86135	0	
1.5400	-13.106	3.55398	0	
1.5407	-15.8572	4.78346	0	
1.5413	-20.1248	3.55398	0	
1.5420	-15.2506	-0.710795	0	
1.5427	-0.909839	-3.76529	0	
1.5433	9.46666	-6.20505	0	
1.5440	14.969	-7.43453	0	
1.5447	22.2911	-6.20505	0	
1.5453	28.0967	-6.51242	0	
1.5460	29.3098	-9.25955	0	
1.5467	29.6131	-8.33743	0	
1.5473	30.2197	-5.59031	0	
1.5480	28.4	-4.68741	0	
1.5487	21.9878	-3.76529	0	
1.5493	11.0047	-1.32554	0	
1.5500	-2.12296	0.211317	0	
1.5507	-10.9831	2.65107	0	
1.5513	-12.1962	5.3982	0	
1.5520	-10.0516	5.70557	0	
1.5527	-10.9831	3.55398	0	
1.5533	-13.4093	2.95844	0	
1.5540	-13.4093	5.09083	0	
1.5547	-11.8929	7.83796	0	
1.5553	-12.4995	8.14533	0	
1.5560	-15.2506	6.60847	0	
1.5567	-16.1605	5.09083	0	
1.5573	-12.8027	4.78346	0	
1.5580	-5.17742	5.99373	0	
1.5587	3.3794	4.78346	0	
1.5593	9.16338	-0.710795	0	
1.5600	11.0047	-4.68741	0	
1.5607	11.308	-4.38003	0	
1.5613	12.8244	-5.59031	0	
1.5620	17.4169	-8.33743	0	
1.5627	23.5042	-7.72269	0	
1.5633	25.3455	-5.89768	0	
1.5640	22.2911	-4.97557	0	
1.5647	19.2366	-2.53581	0	
1.5653	11.0047	-0.0960534	0	
1.5660	-2.12296	-1.63291	0	
1.5667	-7.62532	-4.07266	0	
1.5673	-3.63936	-4.68741	0	
1.5680	-2.42624	-3.15055	0	
1.5687	-1.81968	-1.94028	0	
1.5693	4.28924	-1.94028	0	
1.5700	10.0732	-1.94028	0	
1.5707	9.76994	-1.01817	0	
1.5713	7.64698	0.806849	0	
1.5720	6.73714	2.03633	0	
1.5727	6.4122	2.03633	0	
1.5733	5.50236	0.211317	0	
1.5740	4.59252	-1.94028	0	
1.5747	2.75118	-2.53581	0	
1.5753	-0.909839	-1.94028	0	
1.5760	-5.4807	-1.94028	0	
1.5767	-10.0516	-0.710795	0	
1.5773	-13.7126	0.499478	0	
1.5780	-14.6441	-0.0960534	0	
1.5787	-12.8027	-1.32554	0	
1.5793	-14.6441	-1.94028	0	
1.5800	-16.4638	-1.63291	0	
1.5807	-14.0159	-0.0960534	0	
1.5813	-12.1962	0.211317	0	
1.5820	-15.5539	-0.0960534	0	
1.5827	-20.1248	0.806849	0	
1.5833	-19.8215	0.806849	0	
1.5840	-14.3408	-0.710795	0	
1.5847	-8.53516	-1.32554	0	
1.5853	-3.63936	-2.84318	0	
1.5860	0.931502	-3.15055	0	
1.5867	2.14462	0.211317	0	
1.5873	-0.909839	2.65107	0	
1.5880	-2.72952	0.806849	0	
1.5887	-4.87414	-0.403424	0	
1.5893	-9.74828	1.72896	0	
1.5900	-14.6441	6.3011	0	
1.5907	-17.6769	6.60847	0	
1.5913	-19.8215	1.11422	0	
1.5920	-18.9117	-0.0960534	0	
1.5927	-15.5539	5.99373	0	
1.5933	-13.7126	8.14533	0	
1.5940	-10.6581	5.70557	0	
1.5947	-6.39054	6.3011	0	
1.5953	-4.87414	7.22322	0	
1.5960	-3.63936	4.47609	0	
1.5967	3.68268	1.72896	0	
1.5973	10.7014	-1.63291	0	
1.5980	14.3625	-4.68741	0	
1.5987	15.5756	-5.28294	0	
1.5993	11.9146	-5.89768	0	
1.6000	8.8601	-7.12716	0	
1.6007	14.6657	-8.03006	0	
1.6013	25.0422	-9.87429	0	
1.6020	29.9164	-10.1817	0	
1.6027	33.2741	-8.64481	0	
1.6033	43.0441	-8.95218	0	
1.6040	48.8497	-8.03006	0	
1.6047	35.722	-3.45792	0	
1.6053	11.9146	0.211317	0	
1.6060	-3.9643	1.11422	0	
1.6067	-14.3408	1.11422	0	
1.6073	-27.4468	0.499478	0	
1.6080	-36.0036	1.72896	0	
1.6087	-31.4111	4.16872	0	
1.6093	-21.0346	3.86135	0	
1.6100	-19.8215	3.55398	0	
1.6107	-29.8947	6.3011	0	
1.6113	-33.2525	6.3011	0	
1.6120	-22.876	2.03633	0	
1.6127	-14.9474	-0.0960534	0	
1.6133	-12.8027	-0.0960534	0	
1.6140	-7.32204	-1.01817	0	
1.6147	-2.72952	-0.403424	0	
1.6153	-4.26758	2.03633	0	
1.6160	-5.78398	2.03633	0	
1.6167	-5.4807	-0.710795	0	
1.6173	-4.57086	-1.94028	0	
1.6180	-3.63936	-1.94028	0	
1.6187	-3.33608	-1.01817	0	
1.6193	-1.81968	-0.0960534	0	
1.6200	1.84134	0.211317	0	
1.6207	1.53806	-0.0960534	0	
1.6213	-3.9643	1.11422	0	
1.6220	-8.23188	1.72896	0	
1.6227	-9.14172	-0.0960534	0	
1.6233	-6.39054	-1.94028	0	
1.6240	-3.63936	-1.63291	0	
1.6247	-3.63936	1.11422	0	
1.6253	0.324943	2.65107	0	
1.6260	6.73714	0.211317	0	
1.6267	6.4122	-1.94028	0	
1.6273	4.8958	-1.94028	0	
1.6280	8.25354	-2.84318	0	
1.6287	10.7014	-3.76529	0	
1.6293	11.6113	-4.68741	0	
1.6300	14.6657	-5.89768	0	
1.6307	15.2723	-5.59031	0	
1.6313	13.7559	-3.45792	0	
1.6320	15.8789	-2.84318	0	
1.6327	19.2366	-3.45792	0	
1.6333	19.8432	-2.53581	0	
1.6340	16.7887	-1.94028	0	
1.6347	10.0732	-1.32554	0	
1.6353	1.84134	0.806849	0	
1.6360	-5.17742	4.16872	0	
1.6367	-8.23188	7.22322	0	
1.6373	-3.0328	8.4527	0	
1.6380	6.4122	5.70557	0	
1.6387	8.25354	2.65107	0	
1.6393	6.4122	2.95844	0	
1.6400	7.64698	3.55398	0	
1.6407	3.05446	2.65107	0	
1.6413	-7.32204	5.09083	0	
1.6420	-14.3408	9.04823	0	
1.6427	-21.6628	8.74086	0	
1.6433	-31.1078	5.3982	0	
1.6440	-28.0534	3.55398	0	
1.6447	-12.4995	2.03633	0	
1.6453	-3.0328	-0.0960534	0	
1.6460	-3.0328	0.211317	0	
1.6467	0.931502	0.806849	0	
1.6473	10.0732	-1.94028	0	
1.6480	14.969	-4.38003	0	
1.6487	15.2723	-4.07266	0	
1.6493	16.4854	-5.59031	0	
1.6500	16.4854	-4.68741	0	
1.6507	10.7014	0.806849	0	
1.6513	3.68268	2.03633	0	
1.6520	-1.81968	-1.32554	0	
1.6527	-4.57086	-0.0960534	0	
1.6533	-3.0328	2.65107	0	
1.6540	1.23478	-0.0960534	0	
1.6547	1.23478	-2.84318	0	
1.6553	-2.42624	-0.0960534	0	
1.6560	-6.9971	2.95844	0	
1.6567	-11.8929	2.95844	0	
1.6573	-10.0516	1.11422	0	
1.6580	1.23478	0.806849	0	
1.6587	8.25354	1.72896	0	
1.6593	7.3437	2.65107	0	
1.6600	6.73714	2.65107	0	
1.6607	5.50236	3.55398	0	
1.6613	4.59252	3.86135	0	
1.6620	7.64698	0.806849	0	
1.6627	8.8601	-3.76529	0	
1.6633	10.3982	-7.43453	0	
1.6640	15.8789	-6.51242	0	
1.6647	12.5211	-3.76529	0	
1.6653	1.23478	-3.76529	0	
1.6660	0.628222	-5.59031	0	
1.6667	5.19908	-5.59031	0	
1.6673	1.84134	-5.89768	0	
1.6680	-2.42624	-5.89768	0	
1.6687	-3.0328	-3.45792	0	
1.6693	-1.5164	-2.53581	0	
1.6700	4.8958	-4.97557	0	
1.6707	7.3437	-4.38003	0	
1.6713	0.0216628	-0.0960534	0	
1.6720	-5.17742	-0.0960534	0	
1.6727	-3.9643	-2.84318	0	
1.6733	-4.57086	-2.22844	0	
1.6740	-6.69382	0.806849	0	
1.6747	-9.14172	1.72896	0	
1.6753	-12.8027	0.499478	0	
1.6760	-12.1962	0.806849	0	
1.6767	-9.74828	-0.0960534	0	
1.6773	-13.106	-2.84318	0	
1.6780	-19.5182	-3.15055	0	
1.6787	-22.5727	-0.710795	0	
1.6793	-24.0891	1.72896	0	
1.6800	-23.7858	4.16872	0	
1.6807	-18.9117	5.3982	0	
1.6813	-10.0516	3.2466	0	
1.6820	-1.21312	2.3437	0	
1.6827	5.19908	3.55398	0	
1.6833	9.76994	1.72896	0	
1.6840	16.7887	-1.94028	0	
1.6847	23.8075	-4.07266	0	
1.6853	21.6845	-4.38003	0	
1.6860	12.5211	-2.53581	0	
1.6867	7.04042	-1.01817	0	
1.6873	5.50236	-1.94028	0	
1.6880	4.59252	-2.84318	0	
1.6887	4.59252	-3.76529	0	
1.6893	6.10892	-4.68741	0	
1.6900	5.50236	-1.32554	0	
1.6907	6.4122	2.03633	0	
1.6913	7.64698	-0.0960534	0	
1.6920	3.98596	-1.32554	0	
1.6927	-0.606559	2.65107	0	
1.6933	0.628222	4.16872	0	
1.6940	2.75118	1.42159	0	
1.6947	-0.30328	1.72896	0	
1.6953	-3.9643	3.55398	0	
1.6960	-6.39054	2.65107	0	
1.6967	-12.4995	1.11422	0	
1.6973	-17.3736	0.211317	0	
1.6980	-14.6441	-0.403424	0	
1.6987	-10.6581	0.806849	0	
1.6993	-10.9831	1.42159	0	
1.7000	-10.3548	0.499478	0	
1.7007	-7.32204	0.499478	0	
1.7013	-6.69382	0.806849	0	
1.7020	-5.17742	0.806849	0	
1.7027	-2.72952	1.72896	0	
1.7033	-4.26758	3.2466	0	
1.7040	-3.63936	2.03633	0	
1.7047	1.84134	2.03633	0	
1.7053	5.80564	2.95844	0	
1.7060	5.19908	2.65107	0	
1.7067	-0.606559	2.65107	0	
1.7073	-5.78398	3.86135	0	
1.7080	0.931502	2.65107	0	
1.7087	11.9146	0.806849	0	
1.7093	8.55682	-1.01817	0	
1.7100	0.0216628	-2.53581	0	
1.7107	1.23478	-2.84318	0	
1.7113	6.4122	-4.07266	0	
1.7120	9.46666	-6.81979	0	
1.7127	13.1277	-6.51242	0	
1.7133	11.0047	-4.68741	0	
1.7140	4.59252	-3.76529	0	
1.7147	2.75118	0.211317	0	
1.7153	4.28924	3.55398	0	
1.7160	3.3794	-0.0960534	0	
1.7167	0.628222	-1.63291	0	
1.7173	-3.33608	1.72896	0	
1.7180	-9.445	1.72896	0	
1.7187	-16.4638	1.72896	0	
1.7193	-20.1248	5.09083	0	
1.7200	-16.1605	5.09083	0	
1.7207	-9.74828	1.72896	0	
1.7213	-7.32204	1.42159	0	
1.7220	-5.78398	3.55398	0	
1.7227	0.0216628	2.65107	0	
1.7233	7.04042	-2.84318	0	
1.7240	11.9146	-7.72269	0	
1.7247	16.4854	-6.81979	0	
1.7253	19.5399	-4.38003	0	
1.7260	20.4497	-6.20505	0	
1.7267	20.4497	-6.51242	0	
1.7273	16.1821	-3.15055	0	
1.7280	6.73714	-2.84318	0	
1.7287	-3.33608	-3.45792	0	
1.7293	-10.9831	-1.63291	0	
1.7300	-14.0159	-0.710795	0	
1.7307	-6.39054	-2.53581	0	
1.7313	3.05446	-2.84318	0	
1.7320	-0.909839	0.211317	0	
1.7327	-10.0516	4.47609	0	
1.7333	-7.32204	2.95844	0	
1.7340	0.628222	-1.32554	0	
1.7347	5.50236	-1.32554	0	
1.7353	9.16338	-1.94028	0	
1.7360	9.16338	-6.51242	0	
1.7367	6.4122	-7.43453	0	
1.7373	1.53806	-3.15055	0	
1.7380	-7.32204	0.499478	0	
1.7387	-14.3408	4.47609	0	
1.7393	-13.4093	6.3011	0	
1.7400	-13.7126	1.72896	0	
1.7407	-18.3051	-0.0960534	0	
1.7413	-19.2149	2.65107	0	
1.7420	-16.4638	1.11422	0	
1.7427	-13.106	-3.76529	0	
1.7433	-10.9831	-6.20505	0	
1.7440	-11.2863	-5.28294	0	
1.7447	-11.2863	-4.38003	0	
1.7453	-5.78398	-5.59031	0	
1.7460	0.324943	-6.81979	0	
1.7467	1.23478	-3.76529	0	
1.7473	0.324943	-1.01817	0	
1.7480	0.931502	-3.76529	0	
1.7487	2.75118	-4.68741	0	
1.7493	5.50236	-3.76529	0	
1.7500	9.16338	-4.07266	0	
1.7507	12.2178	-2.53581	0	
1.7513	11.9146	0.499478	0	
1.7520	10.0732	-0.0960534	0	
1.7527	9.16338	-1.01817	0	
1.7533	6.73714	1.72896	0	
1.7540	2.4479	3.55398	0	
1.7547	-2.12296	3.86135	0	
1.7553	-9.14172	4.47609	0	
1.7560	-16.767	4.47609	0	
1.7567	-18.3051	4.16872	0	
1.7573	-18.0018	3.86135	0	
1.7580	-19.2149	3.2466	0	
1.7587	-16.1605	3.55398	0	
1.7593	-5.4807	3.86135	0	
1.7600	2.75118	3.86135	0	
1.7607	3.68268	4.47609	0	
1.7613	4.28924	4.47609	0	
1.7620	8.25354	2.3437	0	
1.7627	11.9146	-0.710795	0	
1.7633	14.0592	-3.15055	0	
1.7640	14.969	-3.76529	0	
1.7647	15.2723	-2.84318	0	
1.7653	15.5756	-1.94028	0	
1.7660	16.4854	-1.01817	0	
1.7667	16.1821	0.499478	0	
1.7673	11.9146	0.499478	0	
1.7680	2.75118	0.211317	0	
1.7687	-3.33608	0.806849	0	
1.7693	0.324943	0.806849	0	
1.7700	3.68268	1.72896	0	
1.7707	-1.21312	2.65107	0	
1.7713	-6.39054	0.806849	0	
1.7720	-6.39054	-1.63291	0	
1.7727	-6.9971	0.806849	0	
1.7733	-9.14172	3.55398	0	
1.7740	-8.53516	2.3437	0	
1.7747	-5.17742	1.11422	0	
1.7753	-3.33608	1.72896	0	
1.7760	-4.57086	1.72896	0	
1.7767	-2.72952	1.11422	0	
1.7773	3.3794	0.806849	0	
1.7780	6.10892	-0.710795	0	
1.7787	5.19908	-1.32554	0	
1.7793	6.73714	-0.710795	0	
1.7800	6.10892	-1.01817	0	
1.7807	1.84134	-2.53581	0	
1.7813	2.14462	-3.76529	0	
1.7820	5.19908	-4.38003	0	
1.7827	7.3437	-3.15055	0	
1.7833	11.308	-2.22844	0	
1.7840	12.2178	-2.84318	0	
1.7847	4.59252	-1.94028	0	
1.7853	-3.33608	1.42159	0	
1.7860	-6.08726	2.95844	0	
1.7867	-7.9286	2.03633	0	
1.7873	-9.14172	1.72896	0	
1.7880	-9.445	2.3437	0	
1.7887	-7.9286	0.806849	0	
1.7893	-3.63936	-1.01817	0	
1.7900	-1.21312	1.72896	0	
1.7907	-0.30328	5.3982	0	
1.7913	4.28924	2.95844	0	
1.7920	9.16338	-0.710795	0	
1.7927	9.46666	-0.0960534	0	
1.7933	6.10892	0.211317	0	
1.7940	-4.26758	-0.710795	0	
1.7947	-14.6441	1.72896	0	
1.7953	-15.5539	5.70557	0	
1.7960	-12.1962	5.70557	0	
1.7967	-11.5896	2.3437	0	
1.7973	-10.9831	1.42159	0	
1.7980	-10.0516	3.2466	0	
1.7987	-8.53516	0.806849	0	
1.7993	-2.42624	-5.28294	0	
1.8000	4.59252	-8.33743	0	
1.8007	8.25354	-8.33743	0	
1.8013	9.76994	-8.33743	0	
1.8020	10.3982	-7.12716	0	
1.8027	11.0047	-5.59031	0	
1.8033	11.9146	-7.12716	0	
1.8040	11.0047	-8.03006	0	
1.8047	9.16338	-5.59031	0	
1.8053	9.16338	-2.84318	0	
1.8060	11.0047	-1.01817	0	
1.8067	16.4854	-0.0960534	0	
1.8073	22.2911	-0.403424	0	
1.8080	19.2366	-1.32554	0	
1.8087	11.0047	-0.710795	0	
1.8093	7.64698	-0.403424	0	
1.8100	8.25354	-3.45792	0	
1.8107	5.80564	-4.68741	0	
1.8113	0.628222	-2.22844	0	
1.8120	-7.32204	-1.01817	0	
1.8127	-16.1605	-1.94028	0	
1.8133	-19.2149	-1.01817	0	
1.8140	-16.4638	0.499478	0	
1.8147	-13.7126	1.42159	0	
1.8153	-12.8027	2.95844	0	
1.8160	-10.9831	4.16872	0	
1.8167	-8.23188	5.99373	0	
1.8173	-4.57086	9.3556	0	
1.8180	-3.33608	9.66297	0	
1.8187	-4.87414	6.3011	0	
1.8193	-3.9643	5.3982	0	
1.8200	-0.30328	6.3011	0	
1.8207	-3.33608	6.3011	0	
1.8213	-10.0516	5.3982	0	
1.8220	-10.6581	5.09083	0	
1.8227	-8.53516	3.55398	0	
1.8233	-6.39054	-0.0960534	0	
1.8240	2.75118	-4.68741	0	
1.8247	11.308	-6.81979	0	
1.8253	7.64698	-6.20505	0	
1.8260	0.0216628	-5.59031	0	
1.8267	-3.0328	-4.07266	0	
1.8273	-6.39054	-1.01817	0	
1.8280	-9.74828	0.211317	0	
1.8287	-7.9286	-0.0960534	0	
1.8293	-3.63936	-2.22844	0	
1.8300	1.53806	-5.28294	0	
1.8307	5.50236	-5.59031	0	
1.8313	3.05446	-2.84318	0	
1.8320	0.0216628	-2.84318	0	
1.8327	4.59252	-4.68741	0	
1.8333	7.04042	-5.59031	0	
1.8340	3.05446	-8.03006	0	
1.8347	1.53806	-8.33743	0	
1.8353	1.84134	-3.76529	0	
1.8360	-1.5164	-0.403424	0	
1.8367	-3.33608	-2.53581	0	
1.8373	-2.72952	-2.22844	0	
1.8380	-2.42624	-0.0960534	0	
1.8387	2.75118	-2.53581	0	
1.8393	12.5211	-4.07266	0	
1.8400	21.3812	-1.63291	0	
1.8407	30.2197	-0.403424	0	
1.8413	37.5417	-1.01817	0	
1.8420	38.4732	0.806849	0	
1.8427	30.2197	2.95844	0	
1.8433	14.3625	3.55398	0	
1.8440	-1.21312	3.55398	0	
1.8447	-8.83844	4.78346	0	
1.8453	-10.6581	5.09083	0	
1.8460	-10.9831	3.2466	0	
1.8467	-10.9831	2.3437	0	
1.8473	-13.7126	6.3011	0	
1.8480	-16.767	9.97034	0	
1.8487	-17.3736	7.22322	0	
1.8493	-17.3736	0.499478	0	
1.8500	-18.3051	-1.94028	0	
1.8507	-17.6769	-0.403424	0	
1.8513	-17.3736	-0.0960534	0	
1.8520	-18.9117	-2.22844	0	
1.8527	-18.9117	-3.15055	0	
1.8533	-16.4638	-2.84318	0	
1.8540	-16.1605	-3.76529	0	
1.8547	-19.2149	-5.28294	0	
1.8553	-21.0346	-3.76529	0	
1.8560	-17.3736	-2.84318	0	
1.8567	-13.106	-4.68741	0	
1.8573	-14.6441	-4.38003	0	
1.8580	-15.5539	-1.32554	0	
1.8587	-10.6581	0.806849	0	
1.8593	-3.9643	1.11422	0	
1.8600	2.14462	0.211317	0	
1.8607	6.73714	-1.32554	0	
1.8613	8.55682	-2.22844	0	
1.8620	9.76994	-1.94028	0	
1.8627	12.2178	-2.84318	0	
1.8633	12.8244	-4.68741	0	
1.8640	12.5211	-4.68741	0	
1.8647	13.7559	-3.15055	0	
1.8653	14.0592	-2.84318	0	
1.8660	13.1277	-3.76529	0	
1.8667	14.3625	-4.07266	0	
1.8673	14.6657	-3.76529	0	
1.8680	9.16338	-3.15055	0	
1.8687	4.8958	-2.22844	0	
1.8693	7.3437	-1.32554	0	
1.8700	7.95026	-1.32554	0	
1.8707	0.628222	-0.0960534	0	
1.8713	-9.74828	3.55398	0	
1.8720	-16.767	7.83796	0	
1.8727	-19.5182	9.97034	0	
1.8733	-16.4638	9.97034	0	
1.8740	-11.8929	8.14533	0	
1.8747	-8.23188	6.60847	0	
1.8753	-1.81968	5.70557	0	
1.8760	5.19908	4.47609	0	
1.8767	5.50236	2.65107	0	
1.8773	4.59252	-0.0960534	0	
1.8780	10.3982	-4.97557	0	
1.8787	14.3625	-8.33743	0	
1.8793	12.8244	-8.33743	0	
1.8800	13.7559	-6.81979	0	
1.8807	16.1821	-4.97557	0	
1.8813	16.4854	-5.59031	0	
1.8820	18.3268	-8.64481	0	
1.8827	17.4169	-7.72269	0	
1.8833	12.8244	-3.76529	0	
1.8840	11.6113	-3.76529	0	
1.8847	12.2178	-4.97557	0	
1.8853	8.55682	-2.53581	0	
1.8860	4.59252	-1.01817	0	
1.8867	2.14462	-1.63291	0	
1.8873	-3.63936	-0.710795	0	
1.8880	-11.2863	-0.403424	0	
1.8887	-14.0159	-1.94028	0	
1.8893	-7.32204	-2.84318	0	
1.8900	1.84134	-3.15055	0	
1.8907	2.14462	-2.84318	0	
1.8913	-1.5164	-1.32554	0	
1.8920	-1.5164	-1.01817	0	
1.8927	-1.81968	-1.01817	0	
1.8933	-4.57086	0.806849	0	
1.8940	-6.39054	1.42159	0	
1.8947	-10.0516	1.72896	0	
1.8953	-12.8027	2.95844	0	
1.8960	-10.0516	2.3437	0	
1.8967	-7.62532	0.211317	0	
1.8973	-7.32204	0.499478	0	
1.8980	-5.78398	1.42159	0	
1.8987	-8.83844	1.42159	0	
1.8993	-11.2863	0.806849	0	
1.9000	-1.81968	-0.710795	0	
1.9007	8.55682	-3.45792	0	
1.9013	8.8601	-3.45792	0	
1.9020	7.95026	-1.94028	0	
1.9027	6.10892	-1.94028	0	
1.9033	-3.33608	-0.710795	0	
1.9040	-10.6581	1.72896	0	
1.9047	-8.83844	0.211317	0	
1.9053	-2.12296	-2.53581	0	
1.9060	8.25354	-2.84318	0	
1.9067	11.0047	-1.94028	0	
1.9073	-0.909839	0.806849	0	
1.9080	-11.5896	2.3437	0	
1.9087	-10.0516	0.499478	0	
1.9093	-7.9286	-0.0960534	0	
1.9100	-6.39054	1.72896	0	
1.9107	-4.57086	-0.403424	0	
1.9113	-9.74828	-2.84318	0	
1.9120	-15.5539	1.72896	0	
1.9127	-11.8929	2.65107	0	
1.9133	-7.62532	-0.710795	0	
1.9140	-7.32204	2.03633	0	
1.9147	-3.63936	5.3982	0	
1.9153	-1.81968	3.2466	0	
1.9160	-3.33608	2.65107	0	
1.9167	-1.21312	3.2466	0	
1.9173	-1.21312	3.55398	0	
1.9180	-8.83844	5.99373	0	
1.9187	-11.5896	8.14533	0	
1.9193	-5.4807	6.91584	0	
1.9200	-4.26758	6.3011	0	
1.9207	-7.32204	6.3011	0	
1.9213	-3.33608	5.99373	0	
1.9220	0.931502	6.91584	0	
1.9227	-2.72952	6.91584	0	
1.9233	-6.69382	5.3982	0	
1.9240	-3.9643	4.47609	0	
1.9247	3.3794	2.65107	0	
1.9253	9.46666	1.72896	0	
1.9260	6.4122	4.78346	0	
1.9267	-3.0328	5.09083	0	
1.9273	-3.63936	1.72896	0	
1.9280	2.14462	0.499478	0	
1.9287	1.84134	-1.01817	0	
1.9293	0.931502	-1.94028	0	
1.9300	4.8958	-1.32554	0	
1.9307	4.8958	-4.68741	0	
1.9313	2.4479	-9.87429	0	
1.9320	5.50236	-8.33743	0	
1.9327	5.80564	-7.43453	0	
1.9333	-3.9643	-10.7772	0	
1.9340	-12.8027	-10.1817	0	
1.9347	-12.4995	-6.51242	0	
1.9353	-10.9831	-6.51242	0	
1.9360	-13.7126	-3.76529	0	
1.9367	-13.106	0.806849	0	
1.9373	-8.23188	0.806849	0	
1.9380	-7.62532	0.806849	0	
1.9387	-10.0516	2.65107	0	
1.9393	-6.39054	2.3437	0	
1.9400	-0.909839	1.11422	0	
1.9407	-1.81968	2.95844	0	
1.9413	-4.26758	5.3982	0	
1.9420	-3.63936	7.22322	0	
1.9427	-7.32204	8.14533	0	
1.9433	-13.106	6.3011	0	
1.9440	-10.0516	5.3982	0	
1.9447	-0.909839	6.3011	0	
1.9453	3.3794	4.47609	0	
1.9460	2.75118	4.47609	0	
1.9467	4.59252	5.70557	0	
1.9473	10.7014	-0.0960534	0	
1.9480	20.1464	-5.28294	0	
1.9487	28.0967	-2.84318	0	
1.9493	31.4544	-5.59031	0	
1.9500	28.4	-13.5243	0	
1.9507	18.9333	-12.0067	0	
1.9513	7.64698	-5.89768	0	
1.9520	4.59252	-7.43453	0	
1.9527	10.0732	-8.03006	0	
1.9533	12.2178	-3.76529	0	
1.9540	9.16338	-5.28294	0	
1.9547	8.25354	-8.33743	0	
1.9553	9.46666	-4.68741	0	
1.9560	11.0047	-2.53581	0	
1.9567	13.1277	-5.28294	0	
1.9573	8.55682	-3.76529	0	
1.9580	-1.81968	-0.0960534	0	
1.9587	-3.63936	-2.22844	0	
1.9593	0.0216628	-4.97557	0	
1.9600	-4.26758	-2.22844	0	
1.9607	-9.445	-1.01817	0	
1.9613	-6.9971	-4.68741	0	
1.9620	-3.0328	-5.59031	0	
1.9627	-1.81968	-4.68741	0	
1.9633	-1.81968	-2.84318	0	
1.9640	-6.39054	-0.0960534	0	
1.9647	-12.8027	0.806849	0	
1.9653	-13.7126	-1.01817	0	
1.9660	-10.9831	0.499478	0	
1.9667	-9.14172	2.03633	0	
1.9673	-6.69382	-1.01817	0	
1.9680	-3.0328	-2.84318	0	
1.9687	2.75118	-3.45792	0	
1.9693	8.25354	-6.51242	0	
1.9700	9.16338	-7.12716	0	
1.9707	6.4122	-2.53581	0	
1.9713	4.59252	-0.0960534	0	
1.9720	1.84134	-1.01817	0	
1.9727	-0.606559	-0.0960534	0	
1.9733	0.324943	-0.403424	0	
1.9740	0.324943	-1.01817	0	
1.9747	-3.63936	1.42159	0	
1.9753	-8.23188	4.16872	0	
1.9760	-9.14172	3.55398	0	
1.9767	-5.78398	2.65107	0	
1.9773	-2.12296	3.86135	0	
1.9780	-3.63936	5.70557	0	
1.9787	-7.32204	6.60847	0	
1.9793	-6.9971	5.99373	0	
1.9800	-6.39054	4.16872	0	
1.9807	-10.9831	4.47609	0	
1.9813	-14.6441	6.3011	0	
1.9820	-13.106	6.60847	0	
1.9827	-10.9831	5.70557	0	
1.9833	-9.74828	4.47609	0	
1.9840	-3.63936	2.95844	0	
1.9847	6.73714	3.2466	0	
1.9853	11.9146	2.65107	0	
1.9860	11.6113	-1.94028	0	
1.9867	12.5211	-5.89768	0	
1.9873	13.7559	-5.59031	0	
1.9880	13.431	-4.68741	0	
1.9887	13.7559	-2.84318	0	
1.9893	13.7559	-1.01817	0	
1.9900	14.6657	-2.53581	0	
1.9907	17.4169	-3.76529	0	
1.9913	16.4854	-1.63291	0	
1.9920	11.308	-1.32554	0	
1.9927	9.16338	-3.76529	0	
1.9933	10.0732	-3.76529	0	
1.9940	8.25354	-4.38003	0	
1.9947	6.10892	-6.20505	0	
1.9953	3.3794	-4.07266	0	
1.9960	-1.21312	0.806849	0	
1.9967	-3.33608	4.16872	0	
1.9973	-3.63936	2.95844	0	
1.9980	-8.83844	0.499478	0	
1.9987	-13.4093	1.42159	0	
1.9993	-14.0159	4.78346	0	
2.0000	-14.3408	5.09083	0	
2.0007	-12.1962	4.16872	0	
2.0013	-6.39054	5.3982	0	
2.0020	-3.0328	5.99373	0	
2.0027	-1.5164	6.3011	0	
2.0033	1.53806	7.83796	0	
2.0040	1.84134	8.14533	0	
2.0047	1.84134	6.3011	0	
2.0053	2.75118	6.60847	0	
2.0060	0.931502	7.22322	0	
2.0067	-0.30328	4.47609	0	
2.0073	5.50236	-0.0960534	0	
2.0080	8.55682	-2.84318	0	
2.0087	3.3794	-2.22844	0	
2.0093	0.0216628	-0.403424	0	
2.0100	1.23478	-1.32554	0	
2.0107	3.68268	-5.89768	0	
2.0113	7.64698	-9.87429	0	
2.0120	6.10892	-8.95218	0	
2.0127	-4.57086	-6.81979	0	
2.0133	-11.2863	-7.43453	0	
2.0140	-11.8929	-7.43453	0	
2.0147	-16.767	-3.76529	0	
2.0153	-21.0346	2.03633	0	
2.0160	-19.2149	5.99373	0	
2.0167	-19.8215	5.3982	0	
2.0173	-21.9661	3.2466	0	
2.0180	-19.2149	3.55398	0	
2.0187	-14.3408	4.47609	0	
2.0193	-12.1962	2.3437	0	
2.0200	-11.2863	-0.0960534	0	
2.0207	-8.53516	1.72896	0	
2.0213	-3.33608	2.95844	0	
2.0220	1.53806	0.806849	0	
2.0227	4.28924	-1.01817	0	
2.0233	9.16338	-1.94028	0	
2.0240	16.1821	-4.07266	0	
2.0247	18.63	-7.12716	0	
2.0253	18.3268	-7.43453	0	
2.0260	14.3625	-5.59031	0	
2.0267	3.68268	-4.38003	0	
2.0273	-6.69382	-1.94028	0	
2.0280	-6.39054	-0.0960534	0	
2.0287	-2.72952	-1.94028	0	
2.0293	-2.72952	-4.68741	0	
2.0300	-3.9643	-3.76529	0	
2.0307	-3.63936	-2.84318	0	
2.0313	-3.63936	-5.28294	0	
2.0320	-1.81968	-5.28294	0	
2.0327	0.931502	-3.15055	0	
2.0333	0.0216628	-4.68741	0	
2.0340	-1.5164	-5.59031	0	
2.0347	0.324943	-2.22844	0	
2.0353	2.4479	-1.63291	0	
2.0360	2.4479	-4.68741	0	
2.0367	1.23478	-2.53581	0	
2.0373	-0.30328	2.65107	0	
2.0380	0.0216628	3.55398	0	
2.0387	2.14462	2.65107	0	
2.0393	2.4479	1.42159	0	
2.0400	2.4479	-2.22844	0	
2.0407	3.3794	-3.45792	0	
2.0413	-1.21312	-0.0960534	0	
2.0420	-10.0516	0.806849	0	
2.0427	-11.8929	-0.0960534	0	
2.0433	-10.0516	2.65107	0	
2.0440	-10.0516	4.47609	0	
2.0447	-7.32204	3.2466	0	
2.0453	-2.72952	1.72896	0	
2.0460	-2.42624	-0.0960534	0	
2.0467	-0.30328	-0.710795	0	
2.0473	7.3437	-0.403424	0	
2.0480	11.9146	-2.84318	0	
2.0487	11.9146	-5.28294	0	
2.0493	12.8244	-3.15055	0	
2.0500	12.8244	-1.63291	0	
2.0507	9.46666	-1.63291	0	
2.0513	7.95026	0.211317	0	
2.0520	6.73714	-0.403424	0	
2.0527	4.59252	-2.84318	0	
2.0533	4.59252	-1.63291	0	
2.0540	5.19908	0.211317	0	
2.0547	0.628222	-0.0960534	0	
2.0553	-8.83844	2.3437	0	
2.0560	-17.0703	6.3011	0	
2.0567	-18.3051	6.60847	0	
2.0573	-11.8929	5.99373	0	
2.0580	-3.63936	6.3011	0	
2.0587	0.931502	5.3982	0	
2.0593	4.59252	4.78346	0	
2.0600	10.3982	5.09083	0	
2.0607	12.2178	4.16872	0	
2.0613	6.4122	3.86135	0	
2.0620	-1.81968	3.2466	0	
2.0627	-6.69382	1.72896	0	
2.0633	-12.8027	0.806849	0	
2.0640	-21.9661	-0.0960534	0	
2.0647	-26.8403	-1.32554	0	
2.0653	-22.2694	-0.403424	0	
2.0660	-13.7126	0.499478	0	
2.0667	-8.23188	-0.403424	0	
2.0673	-5.4807	-0.0960534	0	
2.0680	-4.26758	0.806849	0	
2.0687	-3.9643	0.806849	0	
2.0693	-2.72952	1.72896	0	
2.0700	0.0216628	1.72896	0	
2.0707	2.14462	0.806849	0	
2.0713	3.68268	2.65107	0	
2.0720	6.73714	4.47609	0	
2.0727	9.46666	4.47609	0	
2.0733	12.8244	4.47609	0	
2.0740	16.1821	2.65107	0	
2.0747	17.4169	-0.403424	0	
2.0753	16.4854	-0.0960534	0	
2.0760	15.5756	-0.0960534	0	
2.0767	13.7559	-2.53581	0	
2.0773	12.5211	-4.07266	0	
2.0780	13.7559	-7.72269	0	
2.0787	9.76994	-9.25955	0	
2.0793	-2.72952	-2.84318	0	
2.0800	-12.4995	2.03633	0	
2.0807	-9.14172	-0.0960534	0	
2.0813	-2.72952	-0.0960534	0	
2.0820	-5.17742	2.95844	0	
2.0827	-11.8929	2.03633	0	
2.0833	-11.8929	1.72896	0	
2.0840	-6.08726	1.72896	0	
2.0847	-2.72952	-0.0960534	0	
2.0853	-2.42624	-1.01817	0	
2.0860	-2.72952	-0.0960534	0	
2.0867	-5.4807	-0.0960534	0	
2.0873	-8.23188	-0.403424	0	
2.0880	-3.9643	-1.63291	0	
2.0887	3.68268	-2.53581	0	
2.0893	6.73714	-1.94028	0	
2.0900	6.73714	-3.76529	0	
2.0907	7.64698	-6.20505	0	
2.0913	5.50236	-4.68741	0	
2.0920	-2.72952	-1.01817	0	
2.0927	-9.445	-2.53581	0	
2.0933	-10.3548	-4.97557	0	
2.0940	-9.14172	-4.38003	0	
2.0947	-6.08726	-3.45792	0	
2.0953	-0.909839	-3.76529	0	
2.0960	2.75118	-4.38003	0	
2.0967	4.8958	-4.07266	0	
2.0973	7.95026	-1.94028	0	
2.0980	9.46666	0.806849	0	
2.0987	7.3437	0.211317	0	
2.0993	2.75118	-0.710795	0	
2.1000	-3.9643	1.72896	0	
2.1007	-12.8027	4.78346	0	
2.1013	-18.3051	5.99373	0	
2.1020	-16.767	5.70557	0	
2.1027	-10.9831	3.55398	0	
2.1033	-3.63936	2.3437	0	
2.1040	4.28924	3.2466	0	
2.1047	11.0047	1.11422	0	
2.1053	12.8244	-4.38003	0	
2.1060	11.0047	-6.51242	0	
2.1067	10.0732	-5.28294	0	
2.1073	11.9146	-5.28294	0	
2.1080	14.6657	-7.43453	0	
2.1087	17.4169	-8.95218	0	
2.1093	17.092	-9.25955	0	
2.1100	12.8244	-8.03006	0	
2.1107	9.16338	-5.89768	0	
2.1113	5.80564	-4.38003	0	
2.1120	-1.5164	-4.68741	0	
2.1127	-7.9286	-5.59031	0	
2.1133	-7.32204	-4.07266	0	
2.1140	-6.08726	-2.53581	0	
2.1147	-7.32204	-2.84318	0	
2.1153	-6.9971	-1.94028	0	
2.1160	-7.62532	2.03633	0	
2.1167	-10.0516	5.09083	0	
2.1173	-7.9286	5.70557	0	
2.1180	-3.9643	3.55398	0	
2.1187	-4.57086	0.211317	0	
2.1193	-9.14172	1.42159	0	
2.1200	-14.6441	5.99373	0	
2.1207	-15.5539	6.3011	0	
2.1213	-8.83844	2.95844	0	
2.1220	0.0216628	1.72896	0	
2.1227	6.4122	0.806849	0	
2.1233	8.25354	-1.01817	0	
2.1240	6.4122	-1.32554	0	
2.1247	7.04042	-1.32554	0	
2.1253	11.308	-4.07266	0	
2.1260	12.8244	-5.59031	0	
2.1267	11.6113	-2.84318	0	
2.1273	10.0732	-0.0960534	0	
2.1280	9.16338	-0.710795	0	
2.1287	8.55682	-0.710795	0	
2.1293	7.3437	0.499478	0	
2.1300	5.80564	0.211317	0	
2.1307	7.04042	-0.0960534	0	
2.1313	7.3437	-0.0960534	0	
2.1320	5.19908	-1.63291	0	
2.1327	8.25354	-2.53581	0	
2.1333	12.8244	-1.01817	0	
2.1340	11.308	1.42159	0	
2.1347	10.7014	3.2466	0	
2.1353	12.2178	3.55398	0	
2.1360	10.7014	3.2466	0	
2.1367	9.16338	2.03633	0	
2.1373	7.64698	-1.01817	0	
2.1380	3.68268	-0.403424	0	
2.1387	1.23478	4.47609	0	
2.1393	-4.26758	7.83796	0	
2.1400	-15.5539	8.14533	0	
2.1407	-20.1248	6.91584	0	
2.1413	-19.5182	3.2466	0	
2.1420	-25.6271	1.42159	0	
2.1427	-30.8046	2.65107	0	
2.1433	-23.7858	1.72896	0	
2.1440	-10.9831	-1.32554	0	
2.1447	-3.63936	-1.94028	0	
2.1453	0.0216628	-2.22844	0	
2.1460	5.50236	-4.97557	0	
2.1467	10.0732	-5.59031	0	
2.1473	9.16338	-4.38003	0	
2.1480	7.3437	-4.38003	0	
2.1487	7.04042	-2.53581	0	
2.1493	5.50236	0.806849	0	
2.1500	4.28924	-0.403424	0	
2.1507	3.68268	-4.38003	0	
2.1513	1.53806	-4.07266	0	
2.1520	0.0216628	-1.94028	0	
2.1527	0.0216628	-2.84318	0	
2.1533	-3.9643	-3.76529	0	
2.1540	-10.0516	-1.94028	0	
2.1547	-13.106	-0.0960534	0	
2.1553	-11.8929	2.65107	0	
2.1560	-8.23188	4.78346	0	
2.1567	-6.39054	3.55398	0	
2.1573	-7.9286	1.72896	0	
2.1580	-8.23188	0.806849	0	
2.1587	-7.32204	-2.84318	0	
2.1593	-10.3548	-4.68741	0	
2.1600	-10.9831	-0.403424	0	
2.1607	-5.4807	0.499478	0	
2.1613	-1.5164	-1.94028	0	
2.1620	0.931502	0.806849	0	
2.1627	5.80564	4.78346	0	
2.1633	9.16338	2.65107	0	
2.1640	7.64698	-1.01817	0	
2.1647	3.05446	0.211317	0	
2.1653	-3.9643	3.55398	0	
2.1660	-12.1962	4.78346	0	
2.1667	-16.4638	3.86135	0	
2.1673	-14.0159	4.16872	0	
2.1680	-9.74828	4.47609	0	
2.1687	-7.9286	2.95844	0	
2.1693	-5.4807	0.806849	0	
2.1700	0.931502	-3.15055	0	
2.1707	4.8958	-7.12716	0	
2.1713	6.10892	-5.89768	0	
2.1720	10.3982	-4.07266	0	
2.1727	11.9146	-8.03006	0	
2.1733	5.80564	-10.7772	0	
2.1740	4.59252	-6.81979	0	
2.1747	7.3437	-1.63291	0	
2.1753	1.84134	0.806849	0	
2.1760	-5.4807	1.11422	0	
2.1767	-6.69382	0.499478	0	
2.1773	-10.0516	-0.0960534	0	
2.1780	-11.5896	-0.0960534	0	
2.1787	-4.57086	1.11422	0	
2.1793	0.628222	3.55398	0	
2.1800	-2.42624	4.78346	0	
2.1807	-7.32204	5.3982	0	
2.1813	-9.14172	5.3982	0	
2.1820	-5.4807	2.3437	0	
2.1827	1.84134	0.806849	0	
2.1833	4.28924	2.65107	0	
2.1840	6.4122	0.211317	0	
2.1847	9.46666	-4.68741	0	
2.1853	6.73714	-3.45792	0	
2.1860	2.75118	-1.01817	0	
2.1867	7.3437	-2.84318	0	
2.1873	9.46666	-2.84318	0	
2.1880	4.59252	1.11422	0	
2.1887	0.324943	3.55398	0	
2.1893	-4.57086	3.55398	0	
2.1900	-9.14172	2.65107	0	
2.1907	-5.17742	2.95844	0	
2.1913	0.0216628	3.2466	0	
2.1920	-3.63936	-0.0960534	0	
2.1927	-4.57086	-4.97557	0	
2.1933	2.14462	-6.51242	0	
2.1940	4.28924	-4.68741	0	
2.1947	-0.909839	-1.94028	0	
2.1953	-5.4807	0.806849	0	
2.1960	-8.53516	1.11422	0	
2.1967	-11.2863	-1.32554	0	
2.1973	-10.3548	-2.84318	0	
2.1980	-6.69382	-1.01817	0	
2.1987	-4.57086	-0.0960534	0	
2.1993	-4.26758	-1.63291	0	
2.2000	-2.12296	-5.28294	0	
2.2007	2.75118	-7.43453	0	
2.2013	6.4122	-6.20505	0	
2.2020	6.4122	-4.38003	0	
2.2027	5.50236	-4.07266	0	
2.2033	5.80564	-3.15055	0	
2.2040	7.3437	-1.63291	0	
2.2047	7.3437	-1.94028	0	
2.2053	6.4122	-2.53581	0	
2.2060	9.16338	-1.63291	0	
2.2067	9.76994	-1.32554	0	
2.2073	1.23478	-0.0960534	0	
2.2080	-8.23188	1.72896	0	
2.2087	-6.39054	1.11422	0	
2.2093	-1.5164	1.42159	0	
2.2100	-1.81968	2.65107	0	
2.2107	0.931502	-0.0960534	0	
2.2113	8.55682	-1.94028	0	
2.2120	11.9146	0.211317	0	
2.2127	9.16338	-0.0960534	0	
2.2133	3.68268	-2.84318	0	
2.2140	-2.72952	-1.94028	0	
2.2147	-7.62532	0.499478	0	
2.2153	-7.32204	-0.0960534	0	
2.2160	-1.81968	-0.710795	0	
2.2167	0.931502	-0.0960534	0	
2.2173	0.0216628	0.499478	0	
2.2180	1.84134	-1.01817	0	
2.2187	6.73714	-4.07266	0	
2.2193	6.73714	-4.07266	0	
2.2200	3.98596	-0.403424	0	
2.2207	4.28924	-0.403424	0	
2.2213	3.68268	-1.94028	0	
2.2220	-1.21312	0.806849	0	
2.2227	-5.78398	2.95844	0	
2.2233	-6.9971	0.806849	0	
2.2240	-5.4807	-0.710795	0	
2.2247	-4.57086	-0.403424	0	
2.2253	-4.26758	0.499478	0	
2.2260	-3.0328	2.65107	0	
2.2267	-0.606559	3.2466	0	
2.2273	1.53806	1.72896	0	
2.2280	3.05446	0.806849	0	
2.2287	3.98596	2.3437	0	
2.2293	2.75118	4.16872	0	
2.2300	1.84134	3.2466	0	
2.2307	2.75118	-0.0960534	0	
2.2313	0.324943	0.806849	0	
2.2320	-7.32204	4.78346	0	
2.2327	-12.1962	6.3011	0	
2.2333	-12.8027	6.3011	0	
2.2340	-14.3408	5.09083	0	
2.2347	-14.6441	1.72896	0	
2.2353	-14.0159	1.72896	0	
2.2360	-15.8572	7.22322	0	
2.2367	-16.1605	9.04823	0	
2.2373	-11.8929	7.22322	0	
2.2380	-10.0516	6.60847	0	
2.2387	-10.6581	5.70557	0	
2.2393	-8.83844	6.3011	0	
2.2400	-4.57086	8.4527	0	
2.2407	-2.12296	7.22322	0	
2.2413	-2.42624	4.47609	0	
2.2420	0.0216628	5.70557	0	
2.2427	5.50236	6.3011	0	
2.2433	7.04042	2.3437	0	
2.2440	3.68268	-1.01817	0	
2.2447	5.50236	-2.84318	0	
2.2453	12.5211	-1.94028	0	
2.2460	16.1821	1.72896	0	
2.2467	16.7887	3.86135	0	
2.2473	17.7202	0.806849	0	
2.2480	16.7887	-1.63291	0	
2.2487	14.3625	-1.63291	0	
2.2493	13.7559	-2.53581	0	
2.2500	14.6657	-2.84318	0	
2.2507	12.5211	-0.710795	0	
2.2513	5.80564	0.806849	0	
2.2520	-3.33608	-1.01817	0	
2.2527	-12.8027	-2.84318	0	
2.2533	-21.3596	-2.22844	0	
2.2540	-21.0346	-0.0960534	0	
2.2547	-9.445	1.72896	0	
2.2553	-0.30328	0.806849	0	
2.2560	-2.72952	-1.01817	0	
2.2567	-8.23188	-0.0960534	0	
2.2573	-9.14172	1.72896	0	
2.2580	-8.23188	-0.0960534	0	
2.2587	-6.69382	-1.32554	0	
2.2593	-0.909839	-1.32554	0	
2.2600	7.04042	-2.84318	0	
2.2607	8.8601	-3.15055	0	
2.2613	-0.909839	-1.63291	0	
2.2620	-15.5539	-1.63291	0	
2.2627	-22.5727	-1.94028	0	
2.2633	-20.7313	-0.0960534	0	
2.2640	-16.1605	-1.63291	0	
2.2647	-10.0516	-3.45792	0	
2.2653	-2.12296	-0.710795	0	
2.2660	0.931502	0.806849	0	
2.2667	0.324943	-1.94028	0	
2.2673	2.75118	-4.38003	0	
2.2680	8.8601	-4.68741	0	
2.2687	12.8244	-7.43453	0	
2.2693	12.8244	-10.1817	0	
2.2700	11.9146	-8.64481	0	
2.2707	11.0047	-8.03006	0	
2.2713	11.9146	-9.56692	0	
2.2720	15.2723	-9.87429	0	
2.2727	18.3268	-8.33743	0	
2.2733	17.092	-7.43453	0	
2.2740	13.7559	-6.51242	0	
2.2747	12.8244	-6.20505	0	
2.2753	14.0592	-6.81979	0	
2.2760	14.0592	-6.81979	0	
2.2767	14.969	-5.28294	0	
2.2773	19.2366	-3.76529	0	
2.2780	22.8976	-3.15055	0	
2.2787	20.4497	-3.76529	0	
2.2793	14.3625	-4.97557	0	
2.2800	12.2178	-3.76529	0	
2.2807	12.5211	-1.01817	0	
2.2813	7.64698	0.211317	0	
2.2820	4.59252	0.806849	0	
2.2827	9.76994	2.03633	0	
2.2833	13.7559	2.65107	0	
2.2840	9.16338	4.16872	0	
2.2847	1.84134	4.78346	0	
2.2853	-3.0328	1.72896	0	
2.2860	-4.57086	0.211317	0	
2.2867	-1.81968	2.3437	0	
2.2873	2.75118	0.211317	0	
2.2880	6.4122	-2.84318	0	
2.2887	6.10892	-1.01817	0	
2.2893	1.23478	0.499478	0	
2.2900	-6.08726	-0.0960534	0	
2.2907	-13.106	2.65107	0	
2.2913	-15.8572	4.47609	0	
2.2920	-19.2149	3.55398	0	
2.2927	-37.2168	3.86135	0	
2.2933	-63.4721	4.47609	0	
2.2940	-68.6495	3.55398	0	
2.2947	-49.1313	3.86135	0	
2.2953	-30.5013	3.2466	0	
2.2960	-22.2694	0.499478	0	
2.2967	-15.5539	-0.0960534	0	
2.2973	-10.6581	1.72896	0	
2.2980	-10.9831	3.55398	0	
2.2987	-11.8929	2.3437	0	
2.2993	-10.0516	-0.403424	0	
2.3000	-6.69382	0.499478	0	
2.3007	-2.12296	2.3437	0	
2.3013	6.73714	-1.01817	0	
2.3020	16.4854	-5.28294	0	
2.3027	18.63	-3.76529	0	
2.3033	10.3982	-1.32554	0	
2.3040	1.84134	-0.710795	0	
2.3047	-0.909839	0.499478	0	
2.3053	0.0216628	0.806849	0	
2.3060	-0.909839	0.806849	0	
2.3067	-4.57086	-0.0960534	0	
2.3073	-5.78398	-2.22844	0	
2.3080	-1.81968	-4.07266	0	
2.3087	-0.909839	-3.15055	0	
2.3093	-5.17742	-1.01817	0	
2.3100	-2.42624	-0.710795	0	
2.3107	7.3437	-2.53581	0	
2.3113	11.308	-4.38003	0	
2.3120	11.0047	-3.76529	0	
2.3127	11.308	-2.84318	0	
2.3133	9.16338	-4.07266	0	
2.3140	4.8958	-4.68741	0	
2.3147	-1.21312	-3.76529	0	
2.3153	-9.14172	-2.22844	0	
2.3160	-12.1962	-1.01817	0	
2.3167	-6.39054	0.806849	0	
2.3173	-0.909839	0.211317	0	
2.3180	0.0216628	-1.94028	0	
2.3187	0.0216628	-1.94028	0	
2.3193	0.628222	1.42159	0	
2.3200	3.68268	4.16872	0	
2.3207	8.25354	2.95844	0	
2.3213	11.0047	1.72896	0	
2.3220	11.0047	5.09083	0	
2.3227	6.73714	6.3011	0	
2.3233	-3.63936	2.3437	0	
2.3240	-12.8027	1.11422	0	
2.3247	-12.8027	5.09083	0	
2.3253	-9.14172	5.99373	0	
2.3260	-6.39054	4.47609	0	
2.3267	-3.9643	5.09083	0	
2.3273	-2.72952	4.47609	0	
2.3280	-3.9643	3.86135	0	
2.3287	-5.17742	5.3982	0	
2.3293	-2.12296	5.3982	0	
2.3300	5.19908	1.72896	0	
2.3307	9.76994	-2.22844	0	
2.3313	5.50236	-4.97557	0	
2.3320	2.14462	-5.59031	0	
2.3327	7.95026	-6.20505	0	
2.3333	11.0047	-7.43453	0	
2.3340	4.8958	-6.51242	0	
2.3347	0.324943	-4.68741	0	
2.3353	4.59252	-5.59031	0	
2.3360	11.0047	-7.12716	0	
2.3367	14.3625	-5.89768	0	
2.3373	15.8789	-3.15055	0	
2.3380	15.5756	-0.710795	0	
2.3387	13.1277	0.211317	0	
2.3393	12.8244	-0.710795	0	
2.3400	14.6657	-0.710795	0	
2.3407	11.0047	1.72896	0	
2.3413	1.84134	3.55398	0	
2.3420	-3.63936	2.3437	0	
2.3427	-1.81968	-1.01817	0	
2.3433	-1.21312	-1.63291	0	
2.3440	-1.5164	1.72896	0	
2.3447	-1.21312	3.2466	0	
2.3453	-8.23188	1.72896	0	
2.3460	-18.6084	1.72896	0	
2.3467	-16.767	3.55398	0	
2.3473	-5.78398	2.95844	0	
2.3480	-3.0328	0.499478	0	
2.3487	-7.32204	-0.710795	0	
2.3493	-7.62532	0.211317	0	
2.3500	-7.32204	1.72896	0	
2.3507	-7.9286	2.3437	0	
2.3513	-3.63936	4.16872	0	
2.3520	2.75118	4.78346	0	
2.3527	2.75118	3.2466	0	
2.3533	-1.81968	2.3437	0	
2.3540	-4.87414	2.65107	0	
2.3547	-9.14172	2.95844	0	
2.3553	-10.6581	1.72896	0	
2.3560	-1.81968	-3.76529	0	
2.3567	9.46666	-10.4698	0	
2.3573	15.2723	-11.3919	0	
2.3580	16.1821	-8.03006	0	
2.3587	13.1277	-6.51242	0	
2.3593	7.04042	-4.07266	0	
2.3600	3.68268	-2.22844	0	
2.3607	5.50236	-3.76529	0	
2.3613	4.59252	-2.53581	0	
2.3620	0.628222	2.65107	0	
2.3627	-4.26758	5.09083	0	
2.3633	-5.78398	4.78346	0	
2.3640	-4.26758	4.47609	0	
2.3647	-3.0328	2.03633	0	
2.3653	-1.81968	-0.0960534	0	
2.3660	4.59252	-0.0960534	0	
2.3667	8.8601	1.42159	0	
2.3673	6.73714	3.55398	0	
2.3680	5.50236	3.86135	0	
2.3687	5.50236	4.16872	0	
2.3693	0.324943	5.99373	0	
2.3700	-4.26758	5.3982	0	
2.3707	-3.33608	4.16872	0	
2.3713	-3.0328	3.2466	0	
2.3720	-5.4807	1.42159	0	
2.3727	-7.32204	0.211317	0	
2.3733	-8.83844	1.72896	0	
2.3740	-8.83844	2.65107	0	
2.3747	-5.78398	3.86135	0	
2.3753	-2.72952	5.3982	0	
2.3760	-2.12296	3.55398	0	
2.3767	-3.0328	2.65107	0	
2.3773	-3.33608	4.47609	0	
2.3780	-0.30328	2.3437	0	
2.3787	3.68268	-0.710795	0	
2.3793	3.3794	0.806849	0	
2.3800	0.628222	1.11422	0	
2.3807	0.628222	-0.710795	0	
2.3813	1.84134	-0.403424	0	
2.3820	1.53806	1.72896	0	
2.3827	0.0216628	3.2466	0	
2.3833	-2.42624	3.55398	0	
2.3840	-4.57086	2.65107	0	
2.3847	-6.9971	1.42159	0	
2.3853	-10.3548	1.72896	0	
2.3860	-11.8929	3.2466	0	
2.3867	-9.14172	4.47609	0	
2.3873	-6.08726	4.78346	0	
2.3880	-4.87414	4.16872	0	
2.3887	-2.42624	3.2466	0	
2.3893	-0.909839	1.72896	0	
2.3900	-2.72952	0.806849	0	
2.3907	-3.33608	2.03633	0	
2.3913	-0.30328	2.95844	0	
2.3920	1.84134	2.3437	0	
2.3927	1.84134	-0.403424	0	
2.3933	3.05446	-3.45792	0	
2.3940	6.10892	-3.15055	0	
2.3947	8.25354	-1.63291	0	
2.3953	9.16338	-1.94028	0	
2.3960	11.308	-1.63291	0	
2.3967	11.9146	-1.01817	0	
2.3973	5.50236	-1.94028	0	
2.3980	-1.5164	-0.710795	0	
2.3987	0.324943	2.65107	0	
2.3993	0.628222	4.16872	0	
2.4000	-7.62532	4.47609	0	
2.4007	-6.69382	2.95844	0	
2.4013	8.25354	-1.94028	0	
2.4020	17.4169	-4.07266	0	
2.4027	20.4497	-5.28294	0	
2.4033	25.6488	-9.87429	0	
2.4040	23.5042	-11.6993	0	
2.4047	10.7014	-8.03006	0	
2.4053	-0.30328	-7.43453	0	
2.4060	-8.53516	-8.64481	0	
2.4067	-16.1605	-5.59031	0	
2.4073	-16.767	-2.84318	0	
2.4080	-15.5539	-1.94028	0	
2.4087	-18.6084	0.806849	0	
2.4093	-17.0703	0.499478	0	
2.4100	-8.83844	-1.94028	0	
2.4107	-6.39054	0.806849	0	
2.4113	-10.9831	3.55398	0	
2.4120	-13.4093	1.42159	0	
2.4127	-11.8929	0.499478	0	
2.4133	-10.0516	1.42159	0	
2.4140	-9.74828	-0.403424	0	
2.4147	-12.1962	-1.01817	0	
2.4153	-14.6441	1.42159	0	
2.4160	-11.8929	0.806849	0	
2.4167	-8.53516	-1.32554	0	
2.4173	-9.14172	-1.94028	0	
2.4180	-8.53516	-2.84318	0	
2.4187	-3.33608	-4.68741	0	
2.4193	3.3794	-5.89768	0	
2.4200	7.95026	-6.81979	0	
2.4207	8.25354	-4.38003	0	
2.4213	3.3794	-0.0960534	0	
2.4220	-2.72952	1.42159	0	
2.4227	-5.4807	2.03633	0	
2.4233	-4.87414	2.65107	0	
2.4240	-2.42624	1.11422	0	
2.4247	1.23478	0.211317	0	
2.4253	7.3437	-0.0960534	0	
2.4260	12.8244	-3.76529	0	
2.4267	12.8244	-7.72269	0	
2.4273	10.0732	-7.43453	0	
2.4280	10.0732	-4.97557	0	
2.4287	8.55682	-1.94028	0	
2.4293	4.28924	-0.403424	0	
2.4300	7.3437	-1.94028	0	
2.4307	13.1277	-1.94028	0	
2.4313	11.9146	-0.0960534	0	
2.4320	9.16338	-1.63291	0	
2.4327	9.76994	-3.76529	0	
2.4333	6.73714	-3.76529	0	
2.4340	0.931502	-5.59031	0	
2.4347	1.84134	-6.51242	0	
2.4353	4.28924	-3.76529	0	
2.4360	3.05446	-0.0960534	0	
2.4367	2.75118	-0.710795	0	
2.4373	2.75118	-2.53581	0	
2.4380	0.931502	-4.38003	0	
2.4387	0.0216628	-4.68741	0	
2.4393	-3.63936	-1.63291	0	
2.4400	-9.14172	1.72896	0	
2.4407	-6.39054	1.72896	0	
2.4413	2.14462	0.806849	0	
2.4420	9.16338	1.11422	0	
2.4427	14.0592	1.42159	0	
2.4433	13.7559	1.11422	0	
2.4440	5.50236	0.806849	0	
2.4447	-1.21312	0.806849	0	
2.4453	-1.21312	3.2466	0	
2.4460	-1.5164	5.99373	0	
2.4467	1.84134	5.3982	0	
2.4473	9.46666	2.03633	0	
2.4480	3.05446	1.11422	0	
2.4487	-25.6271	3.55398	0	
2.4493	-46.6834	6.60847	0	
2.4500	-40.2712	6.60847	0	
2.4507	-26.8403	4.16872	0	
2.4513	-21.9661	2.03633	0	
2.4520	-13.7126	0.499478	0	
2.4527	-3.63936	-1.01817	0	
2.4533	-2.72952	-1.01817	0	
2.4540	-3.0328	1.11422	0	
2.4547	-0.606559	4.47609	0	
2.4553	-2.72952	6.60847	0	
2.4560	-7.9286	3.86135	0	
2.4567	-12.8027	0.499478	0	
2.4573	-18.3051	1.72896	0	
2.4580	-15.5539	4.47609	0	
2.4587	-4.87414	2.95844	0	
2.4593	3.3794	0.211317	0	
2.4600	8.25354	-2.22844	0	
2.4607	13.7559	-5.89768	0	
2.4613	16.4854	-7.72269	0	
2.4620	15.8789	-5.28294	0	
2.4627	14.6657	-4.07266	0	
2.4633	13.7559	-6.20505	0	
2.4640	13.7559	-5.59031	0	
2.4647	14.0592	-2.84318	0	
2.4653	11.9146	-3.15055	0	
2.4660	10.0732	-3.76529	0	
2.4667	8.55682	-2.22844	0	
2.4673	3.68268	-1.01817	0	
2.4680	-0.909839	-0.0960534	0	
2.4687	0.324943	0.806849	0	
2.4693	1.23478	-0.710795	0	
2.4700	-1.81968	-1.94028	0	
2.4707	-5.4807	0.499478	0	
2.4713	-6.9971	1.72896	0	
2.4720	-7.32204	0.499478	0	
2.4727	-6.08726	2.65107	0	
2.4733	-3.63936	5.70557	0	
2.4740	-1.5164	5.3982	0	
2.4747	-0.30328	3.86135	0	
2.4753	-2.72952	3.55398	0	
2.4760	-2.72952	2.65107	0	
2.4767	0.931502	2.65107	0	
2.4773	0.628222	4.78346	0	
2.4780	-0.909839	6.91584	0	
2.4787	4.28924	5.09083	0	
2.4793	7.04042	0.806849	0	
2.4800	3.68268	-1.01817	0	
2.4807	4.8958	-1.32554	0	
2.4813	8.25354	-2.84318	0	
2.4820	6.4122	-3.76529	0	
2.4827	5.19908	-3.76529	0	
2.4833	4.28924	-4.68741	0	
2.4840	-1.81968	-3.15055	0	
2.4847	-4.57086	0.806849	0	
2.4853	-2.42624	1.72896	0	
2.4860	-2.72952	-0.0960534	0	
2.4867	-3.63936	-1.01817	0	
2.4873	-2.42624	-0.710795	0	
2.4880	-5.4807	1.42159	0	
2.4887	-9.445	4.47609	0	
2.4893	-7.9286	5.3982	0	
2.4900	-8.83844	4.78346	0	
2.4907	-15.2506	5.70557	0	
2.4913	-16.1605	5.3982	0	
2.4920	-10.0516	3.2466	0	
2.4927	-6.9971	3.55398	0	
2.4933	-5.78398	3.86135	0	
2.4940	1.53806	1.11422	0	
2.4947	12.5211	-1.63291	0	
2.4953	23.5042	-3.76529	0	
2.4960	31.1512	-8.03006	0	
2.4967	32.9708	-10.4698	0	
2.4973	30.2197	-8.03006	0	
2.4980	20.7747	-5.28294	0	
2.4987	2.75118	-3.76529	0	
2.4993	-11.5896	-0.0960534	0	
2.5000	-12.1962	2.03633	0	
2.5007	-9.14172	-0.710795	0	
2.5013	-7.62532	-3.45792	0	
2.5020	-3.0328	-3.76529	0	
2.5027	0.0216628	-3.15055	0	
2.5033	-3.63936	-1.32554	0	
2.5040	-6.08726	0.499478	0	
2.5047	-2.42624	-2.22844	0	
2.5053	0.628222	-5.59031	0	
2.5060	0.324943	-3.45792	0	
2.5067	2.14462	-1.94028	0	
2.5073	6.4122	-5.89768	0	
2.5080	9.76994	-8.03006	0	
2.5087	12.8244	-6.20505	0	
2.5093	14.969	-6.51242	0	
2.5100	11.9146	-7.43453	0	
2.5107	6.4122	-4.68741	0	
2.5113	7.3437	-0.403424	0	
2.5120	11.0047	1.72896	0	
2.5127	10.0732	0.806849	0	
2.5133	5.80564	0.499478	0	
2.5140	-1.5164	2.65107	0	
2.5147	-11.2863	4.47609	0	
2.5153	-19.2149	3.55398	0	
2.5160	-19.8215	2.65107	0	
2.5167	-18.0018	1.72896	0	
2.5173	-21.0346	1.42159	0	
2.5180	-27.1435	2.65107	0	
2.5187	-28.3783	3.2466	0	
2.5193	-28.9849	1.72896	0	
2.5200	-32.3426	1.11422	0	
2.5207	-26.2337	2.95844	0	
2.5213	-10.9831	3.2466	0	
2.5220	-2.12296	-0.0960534	0	
2.5227	3.3794	-5.59031	0	
2.5233	10.3982	-8.33743	0	
2.5240	9.46666	-5.59031	0	
2.5247	3.98596	-3.15055	0	
2.5253	5.19908	-2.84318	0	
2.5260	6.10892	-1.94028	0	
2.5267	5.19908	-1.01817	0	
2.5273	9.46666	1.11422	0	
2.5280	12.8244	1.72896	0	
2.5287	11.0047	-2.53581	0	
2.5293	13.7559	-5.28294	0	
2.5300	20.1464	-3.15055	0	
2.5307	21.0779	-3.45792	0	
2.5313	20.4497	-4.97557	0	
2.5320	20.7747	-2.53581	0	
2.5327	18.0235	-1.94028	0	
2.5333	12.8244	-3.76529	0	
2.5340	7.3437	-1.01817	0	
2.5347	5.19908	1.72896	0	
2.5353	9.16338	-0.0960534	0	
2.5360	9.16338	1.42159	0	
2.5367	-6.39054	4.47609	0	
2.5373	-21.9661	3.55398	0	
2.5380	-24.0891	5.3982	0	
2.5387	-22.5727	9.3556	0	
2.5393	-22.5727	9.04823	0	
2.5400	-16.1605	5.3982	0	
2.5407	-9.445	3.55398	0	
2.5413	-11.5896	2.65107	0	
2.5420	-15.2506	1.72896	0	
2.5427	-16.4638	1.11422	0	
2.5433	-19.2149	0.499478	0	
2.5440	-19.2149	0.806849	0	
2.5447	-16.4638	0.806849	0	
2.5453	-14.9474	-1.63291	0	
2.5460	-8.23188	-2.84318	0	
2.5467	1.84134	-2.53581	0	
2.5473	5.50236	-1.63291	0	
2.5480	9.76994	0.499478	0	
2.5487	18.9333	0.806849	0	
2.5493	24.4357	-0.0960534	0	
2.5500	24.739	-0.0960534	0	
2.5507	23.5042	-1.32554	0	
2.5513	21.0779	-4.68741	0	
2.5520	15.5756	-5.28294	0	
2.5527	3.68268	-2.84318	0	
2.5533	-9.14172	0.211317	0	
2.5540	-8.53516	1.72896	0	
2.5547	-2.12296	1.42159	0	
2.5553	-4.57086	1.72896	0	
2.5560	-6.08726	2.65107	0	
2.5567	-3.0328	1.72896	0	
2.5573	-6.69382	0.806849	0	
2.5580	-11.8929	2.03633	0	
2.5587	-11.5896	2.03633	0	
2.5593	-10.9831	1.42159	0	
2.5600	-11.2863	2.3437	0	
2.5607	-10.0516	2.95844	0	
2.5613	-11.8929	2.65107	0	
2.5620	-14.0159	2.65107	0	
2.5627	-12.8027	1.72896	0	
2.5633	-13.7126	0.806849	0	
2.5640	-13.7126	1.72896	0	
2.5647	-8.83844	2.65107	0	
2.5653	-5.4807	1.11422	0	
2.5660	-3.9643	-0.0960534	0	
2.5667	-0.909839	-1.94028	0	
2.5673	-1.81968	-3.76529	0	
2.5680	-2.72952	-3.76529	0	
2.5687	5.19908	-4.07266	0	
2.5693	12.8244	-6.51242	0	
2.5700	15.2723	-7.12716	0	
2.5707	19.5399	-6.81979	0	
2.5713	23.8075	-7.72269	0	
2.5720	22.5943	-8.33743	0	
2.5727	22.5943	-6.81979	0	
2.5733	23.8075	-4.97557	0	
2.5740	20.4497	-4.07266	0	
2.5747	16.7887	-4.38003	0	
2.5753	12.5211	-3.15055	0	
2.5760	-1.81968	-0.710795	0	
2.5767	-18.6084	0.499478	0	
2.5773	-22.5727	0.211317	0	
2.5780	-18.3051	0.806849	0	
2.5787	-20.1248	2.3437	0	
2.5793	-23.7858	4.47609	0	
2.5800	-21.6628	5.99373	0	
2.5807	-14.6441	5.09083	0	
2.5813	-8.53516	3.55398	0	
2.5820	-2.72952	2.3437	0	
2.5827	1.84134	-0.710795	0	
2.5833	1.53806	-1.94028	0	
2.5840	-0.909839	1.42159	0	
2.5847	-1.5164	3.55398	0	
2.5853	-2.72952	2.95844	0	
2.5860	-1.81968	2.65107	0	
2.5867	2.14462	0.806849	0	
2.5873	5.19908	-3.15055	0	
2.5880	4.59252	-3.45792	0	
2.5887	1.84134	-1.94028	0	
2.5893	-0.606559	-1.01817	0	
2.5900	-0.30328	0.806849	0	
2.5907	-0.606559	2.03633	0	
2.5913	-4.57086	-0.710795	0	
2.5920	-5.4807	-1.32554	0	
2.5927	-0.909839	1.72896	0	
2.5933	1.84134	2.03633	0	
2.5940	1.23478	-1.01817	0	
2.5947	2.14462	-2.84318	0	
2.5953	3.68268	-2.53581	0	
2.5960	3.68268	-2.53581	0	
2.5967	3.68268	-3.15055	0	
2.5973	3.98596	-3.15055	0	
2.5980	4.59252	-4.07266	0	
2.5987	3.05446	-6.51242	0	
2.5993	1.23478	-5.89768	0	
2.6000	3.05446	-2.53581	0	
2.6007	6.10892	-0.710795	0	
2.6013	3.3794	0.499478	0	
2.6020	-2.12296	2.3437	0	
2.6027	-0.909839	2.3437	0	
2.6033	7.3437	0.211317	0	
2.6040	14.0592	-1.01817	0	
2.6047	16.4854	-2.84318	0	
2.6053	20.4497	-3.15055	0	
2.6060	24.739	-1.94028	0	
2.6067	27.4685	-2.84318	0	
2.6073	30.2197	-3.76529	0	
2.6080	26.8619	-2.53581	0	
2.6087	9.76994	-0.710795	0	
2.6093	-7.32204	-0.0960534	0	
2.6100	-17.6769	0.806849	0	
2.6107	-26.537	1.42159	0	
2.6113	-28.3783	2.03633	0	
2.6120	-23.7858	3.55398	0	
2.6127	-26.2337	3.55398	0	
2.6133	-27.4468	1.72896	0	
2.6140	-18.3051	1.42159	0	
2.6147	-13.106	0.806849	0	
2.6153	-14.6441	-0.403424	0	
2.6160	-10.6581	0.211317	0	
2.6167	-7.32204	0.806849	0	
2.6173	-7.32204	-0.0960534	0	
2.6180	-3.9643	1.11422	0	
2.6187	-3.63936	3.2466	0	
2.6193	-7.9286	3.2466	0	
2.6200	-6.08726	2.95844	0	
2.6207	-3.9643	3.2466	0	
2.6213	-7.32204	2.3437	0	
2.6220	-5.4807	2.3437	0	
2.6227	-0.606559	3.55398	0	
2.6233	-2.72952	3.55398	0	
2.6240	-5.17742	2.3437	0	
2.6247	-4.26758	0.806849	0	
2.6253	-6.08726	0.211317	0	
2.6260	-6.39054	1.42159	0	
2.6267	-2.72952	3.2466	0	
2.6273	-3.0328	4.16872	0	
2.6280	-3.33608	3.55398	0	
2.6287	1.84134	2.65107	0	
2.6293	5.19908	2.03633	0	
2.6300	5.80564	2.65107	0	
2.6307	11.0047	2.65107	0	
2.6313	17.4169	1.42159	0	
2.6320	17.7202	0.806849	0	
2.6327	15.2723	0.499478	0	
2.6333	11.9146	-1.63291	0	
2.6340	6.73714	-3.76529	0	
2.6347	0.0216628	-4.38003	0	
2.6353	-4.57086	-3.76529	0	
2.6360	-3.0328	-3.15055	0	
2.6367	4.8958	-3.76529	0	
2.6373	12.8244	-5.59031	0	
2.6380	16.4854	-4.97557	0	
2.6387	16.4854	-2.53581	0	
2.6393	11.308	-1.94028	0	
2.6400	3.68268	-1.63291	0	
2.6407	-1.81968	-0.710795	0	
2.6413	-3.63936	-0.403424	0	
2.6420	-3.63936	0.806849	0	
2.6427	-3.0328	2.65107	0	
2.6433	-3.63936	3.2466	0	
2.6440	-5.17742	3.55398	0	
2.6447	-8.53516	3.86135	0	
2.6453	-16.767	4.78346	0	
2.6460	-21.9661	5.70557	0	
2.6467	-18.0018	4.16872	0	
2.6473	-11.8929	1.42159	0	
2.6480	-6.39054	0.499478	0	
2.6487	1.53806	-1.63291	0	
2.6493	6.10892	-6.20505	0	
2.6500	7.3437	-6.51242	0	
2.6507	8.25354	-3.45792	0	
2.6513	6.10892	-2.84318	0	
2.6520	6.4122	-2.84318	0	
2.6527	9.76994	-0.710795	0	
2.6533	9.16338	0.806849	0	
2.6540	9.16338	-1.32554	0	
2.6547	11.6113	-2.84318	0	
2.6553	4.59252	-0.710795	0	
2.6560	-5.17742	1.72896	0	
2.6567	-2.72952	1.72896	0	
2.6573	-0.606559	0.806849	0	
2.6580	-7.32204	-1.01817	0	
2.6587	-10.0516	-2.22844	0	
2.6593	-6.39054	-1.01817	0	
2.6600	-3.0328	-0.403424	0	
2.6607	1.53806	-2.84318	0	
2.6613	5.80564	-4.97557	0	
2.6620	3.68268	-6.51242	0	
2.6627	-3.0328	-8.33743	0	
2.6633	-10.9831	-6.20505	0	
2.6640	-15.8572	-3.45792	0	
2.6647	-13.7126	-4.38003	0	
2.6653	-9.14172	-6.20505	0	
2.6660	-6.9971	-6.20505	0	
2.6667	-5.4807	-4.68741	0	
2.6673	-4.87414	-1.94028	0	
2.6680	-5.4807	0.499478	0	
2.6687	-0.909839	0.211317	0	
2.6693	7.64698	-0.403424	0	
2.6700	10.0732	-1.94028	0	
2.6707	5.80564	-4.68741	0	
2.6713	1.53806	-5.59031	0	
2.6720	0.931502	-4.68741	0	
2.6727	3.05446	-6.51242	0	
2.6733	3.68268	-8.03006	0	
2.6740	-0.909839	-5.28294	0	
2.6747	-3.33608	-1.94028	0	
2.6753	-2.12296	-2.22844	0	
2.6760	-3.63936	-2.84318	0	
2.6767	-6.69382	-1.01817	0	
2.6773	-5.4807	0.211317	0	
2.6780	-3.0328	-1.32554	0	
2.6787	-2.42624	-3.76529	0	
2.6793	-1.81968	-3.45792	0	
2.6800	-0.909839	-2.53581	0	
2.6807	0.931502	-2.84318	0	
2.6813	1.84134	-3.76529	0	
2.6820	3.05446	-4.68741	0	
2.6827	4.8958	-4.97557	0	
2.6833	5.50236	-4.68741	0	
2.6840	4.59252	-3.45792	0	
2.6847	5.19908	-0.710795	0	
2.6853	7.3437	2.65107	0	
2.6860	11.6113	3.55398	0	
2.6867	17.7202	1.72896	0	
2.6873	19.2366	-0.710795	0	
2.6880	16.4854	-4.07266	0	
2.6887	17.092	-4.38003	0	
2.6893	18.3268	-1.32554	0	
2.6900	16.1821	-1.01817	0	
2.6907	15.8789	-3.45792	0	
2.6913	15.5756	-3.76529	0	
2.6920	11.9146	-4.07266	0	
2.6927	9.16338	-5.59031	0	
2.6933	8.25354	-3.76529	0	
2.6940	2.75118	-1.32554	0	
2.6947	-12.4995	-0.710795	0	
2.6953	-30.5013	-0.0960534	0	
2.6960	-37.8233	1.42159	0	
2.6967	-34.7689	2.65107	0	
2.6973	-32.9492	5.09083	0	
2.6980	-30.198	5.70557	0	
2.6987	-19.8215	3.2466	0	
2.6993	-9.445	1.11422	0	
2.7000	-4.57086	1.72896	0	
2.7007	-2.72952	3.2466	0	
2.7013	-3.9643	5.3982	0	
2.7020	-5.17742	6.60847	0	
2.7027	-2.72952	4.78346	0	
2.7033	-0.909839	3.86135	0	
2.7040	1.23478	5.3982	0	
2.7047	3.68268	4.78346	0	
2.7053	1.84134	2.3437	0	
2.7060	-0.909839	4.16872	0	
2.7067	0.0216628	9.04823	0	
2.7073	0.628222	8.74086	0	
2.7080	-1.5164	4.78346	0	
2.7087	0.0216628	5.3982	0	
2.7093	5.80564	6.3011	0	
2.7100	10.0732	1.72896	0	
2.7107	12.5211	-1.63291	0	
2.7113	14.969	-1.01817	0	
2.7120	12.2178	-2.53581	0	
2.7127	0.0216628	-4.38003	0	
2.7133	-12.4995	-2.22844	0	
2.7140	-12.8027	-1.94028	0	
2.7147	-5.4807	-4.68741	0	
2.7153	2.14462	-5.59031	0	
2.7160	5.19908	-4.38003	0	
2.7167	3.68268	-1.94028	0	
2.7173	1.84134	1.72896	0	
2.7180	0.324943	2.65107	0	
2.7187	-2.72952	-1.01817	0	
2.7193	-3.0328	-2.84318	0	
2.7200	-2.72952	0.211317	0	
2.7207	-4.57086	0.499478	0	
2.7213	-2.72952	-2.22844	0	
2.7220	1.84134	-1.01817	0	
2.7227	4.59252	0.806849	0	
2.7233	8.25354	-1.01817	0	
2.7240	11.0047	-1.32554	0	
2.7247	9.16338	1.72896	0	
2.7253	10.0732	2.65107	0	
2.7260	14.0592	2.03633	0	
2.7267	15.8789	1.72896	0	
2.7273	17.4169	0.499478	0	
2.7280	16.1821	0.806849	0	
2.7287	8.25354	1.72896	0	
2.7293	-3.0328	-0.0960534	0	
2.7300	-11.2863	-0.0960534	0	
2.7307	-11.8929	1.11422	0	
2.7313	-6.39054	0.806849	0	
2.7320	-5.78398	2.03633	0	
2.7327	-9.14172	3.55398	0	
2.7333	-9.445	-0.0960534	0	
2.7340	-10.9831	-1.94028	0	
2.7347	-13.106	2.03633	0	
2.7353	-6.39054	4.47609	0	
2.7360	-0.30328	7.83796	0	
2.7367	-5.78398	11.488	0	
2.7373	-6.39054	7.53059	0	
2.7380	5.50236	1.72896	0	
2.7387	12.8244	-0.0960534	0	
2.7393	15.8789	-3.45792	0	
2.7400	22.8976	-5.89768	0	
2.7407	25.9521	-4.38003	0	
2.7413	22.8976	-5.59031	0	
2.7420	21.0779	-6.20505	0	
2.7427	15.8789	-0.403424	0	
2.7433	9.16338	1.72896	0	
2.7440	7.3437	0.211317	0	
2.7447	5.50236	2.65107	0	
2.7453	2.75118	4.47609	0	
2.7460	5.50236	3.55398	0	
2.7467	7.3437	4.47609	0	
2.7473	1.53806	4.78346	0	
2.7480	-3.63936	4.78346	0	
2.7487	-8.83844	6.3011	0	
2.7493	-13.106	3.55398	0	
2.7500	-7.62532	-1.01817	0	
2.7507	2.75118	-1.01817	0	
2.7513	6.10892	-1.01817	0	
2.7520	6.73714	-2.22844	0	
2.7527	6.4122	-1.32554	0	
2.7533	0.931502	-0.710795	0	
2.7540	-6.69382	0.499478	0	
2.7547	-14.6441	3.2466	0	
2.7553	-19.8215	2.65107	0	
2.7560	-16.4638	0.806849	0	
2.7567	-10.9831	0.806849	0	
2.7573	-10.0516	-0.0960534	0	
2.7580	-5.4807	-1.94028	0	
2.7587	0.931502	-0.710795	0	
2.7593	-1.21312	2.65107	0	
2.7600	-6.08726	4.16872	0	
2.7607	-6.69382	4.47609	0	
2.7613	-7.9286	4.16872	0	
2.7620	-6.39054	3.86135	0	
2.7627	0.931502	3.55398	0	
2.7633	6.73714	3.2466	0	
2.7640	9.76994	2.65107	0	
2.7647	16.7887	-0.710795	0	
2.7653	22.2911	-4.38003	0	
2.7660	20.4497	-2.22844	0	
2.7667	15.5756	1.72896	0	
2.7673	10.0732	0.211317	0	
2.7680	7.04042	-1.01817	0	
2.7687	8.25354	1.72896	0	
2.7693	8.55682	1.11422	0	
2.7700	6.4122	-1.94028	0	
2.7707	9.16338	-1.01817	0	
2.7713	12.8244	0.499478	0	
2.7720	8.25354	-1.01817	0	
2.7727	4.28924	-1.94028	0	
2.7733	5.50236	-0.710795	0	
2.7740	6.4122	0.806849	0	
2.7747	8.8601	0.806849	0	
2.7753	11.308	-0.710795	0	
2.7760	7.3437	-3.15055	0	
2.7767	-0.909839	-2.84318	0	
2.7773	-5.17742	-1.32554	0	
2.7780	-11.2863	0.806849	0	
2.7787	-24.7173	2.65107	0	
2.7793	-32.0393	1.72896	0	
2.7800	-25.6271	0.806849	0	
2.7807	-17.3736	1.42159	0	
2.7813	-16.1605	3.55398	0	
2.7820	-17.0703	6.60847	0	
2.7827	-21.0346	8.74086	0	
2.7833	-28.3783	6.60847	0	
2.7840	-30.8046	4.16872	0	
2.7847	-26.8403	6.91584	0	
2.7853	-23.4825	7.53059	0	
2.7860	-20.1248	1.42159	0	
2.7867	-15.5539	-1.01817	0	
2.7873	-11.5896	0.806849	0	
2.7880	-5.4807	-2.22844	0	
2.7887	1.53806	-6.20505	0	
2.7893	6.73714	-4.68741	0	
2.7900	14.0592	-4.07266	0	
2.7907	20.4497	-7.12716	0	
2.7913	19.2366	-8.95218	0	
2.7920	17.4169	-10.1817	0	
2.7927	16.4854	-10.7772	0	
2.7933	9.16338	-10.1817	0	
2.7940	-0.606559	-9.56692	0	
2.7947	-3.63936	-8.33743	0	
2.7953	-3.63936	-6.51242	0	
2.7960	-6.69382	-5.89768	0	
2.7967	-9.74828	-4.97557	0	
2.7973	-10.9831	-4.68741	0	
2.7980	-11.8929	-5.59031	0	
2.7987	-12.8027	-4.07266	0	
2.7993	-10.0516	-1.94028	0	
2.8000	-4.26758	-2.84318	0	
2.8007	-0.30328	-4.68741	0	
2.8013	0.628222	-6.51242	0	
2.8020	3.98596	-8.33743	0	
2.8027	6.4122	-6.81979	0	
2.8033	3.3794	-2.84318	0	
2.8040	1.53806	-2.22844	0	
2.8047	3.68268	-2.84318	0	
2.8053	1.84134	-2.84318	0	
2.8060	-2.72952	-5.59031	0	
2.8067	-0.606559	-8.03006	0	
2.8073	4.59252	-7.43453	0	
2.8080	4.8958	-6.81979	0	
2.8087	3.3794	-7.43453	0	
2.8093	3.68268	-4.68741	0	
2.8100	-0.30328	-0.0960534	0	
2.8107	-7.32204	-0.403424	0	
2.8113	-8.83844	-2.53581	0	
2.8120	-5.17742	0.211317	0	
2.8127	-1.81968	2.3437	0	
2.8133	2.75118	-1.94028	0	
2.8140	9.16338	-5.89768	0	
2.8147	12.5211	-4.97557	0	
2.8153	11.0047	-4.38003	0	
2.8160	8.25354	-2.84318	0	
2.8167	6.4122	-0.0960534	0	
2.8173	9.16338	-1.01817	0	
2.8180	13.7559	-2.53581	0	
2.8187	16.4854	0.499478	0	
2.8193	20.4497	3.55398	0	
2.8200	27.1652	1.42159	0	
2.8207	31.1512	-1.01817	0	
2.8213	31.4544	-0.0960534	0	
2.8220	24.739	1.11422	0	
2.8227	5.80564	-0.710795	0	
2.8233	-14.9474	-0.710795	0	
2.8240	-21.6628	2.65107	0	
2.8247	-17.3736	3.55398	0	
2.8253	-10.6581	1.42159	0	
2.8260	-5.4807	1.11422	0	
2.8267	-14.6441	1.72896	0	
2.8273	-34.7689	1.72896	0	
2.8280	-43.0224	2.95844	0	
2.8287	-36.0036	4.78346	0	
2.8293	-33.859	4.16872	0	
2.8300	-39.6647	4.47609	0	
2.8307	-42.7191	5.3982	0	
2.8313	-38.4299	2.95844	0	
2.8320	-29.8947	0.499478	0	
2.8327	-21.3596	3.55398	0	
2.8333	-15.8572	6.60847	0	
2.8340	-10.3548	5.70557	0	
2.8347	-6.9971	6.60847	0	
2.8353	-8.83844	8.14533	0	
2.8360	-8.23188	5.3982	0	
2.8367	-2.72952	2.03633	0	
2.8373	0.0216628	1.72896	0	
2.8380	0.931502	0.211317	0	
2.8387	3.98596	-1.01817	0	
2.8393	7.64698	-0.403424	0	
2.8400	6.73714	-1.63291	0	
2.8407	1.23478	-1.94028	0	
2.8413	-7.32204	2.65107	0	
2.8420	-13.4093	6.3011	0	
2.8427	-10.9831	5.3982	0	
2.8433	-0.30328	5.09083	0	
2.8440	9.76994	5.3982	0	
2.8447	11.0047	3.55398	0	
2.8453	8.55682	2.65107	0	
2.8460	13.7559	1.72896	0	
2.8467	20.1464	-1.01817	0	
2.8473	18.9333	-4.07266	0	
2.8480	17.7202	-4.38003	0	
2.8487	19.5399	-4.68741	0	
2.8493	16.1821	-5.59031	0	
2.8500	11.0047	-3.45792	0	
2.8507	9.16338	0.499478	0	
2.8513	5.19908	2.65107	0	
2.8520	-0.606559	2.03633	0	
2.8527	-4.57086	0.806849	0	
2.8533	-8.53516	0.499478	0	
2.8540	-12.4995	2.65107	0	
2.8547	-12.4995	5.3982	0	
2.8553	-10.0516	5.99373	0	
2.8560	-8.53516	5.3982	0	
2.8567	-6.39054	2.95844	0	
2.8573	-2.72952	-1.63291	0	
2.8580	-1.21312	-3.76529	0	
2.8587	-1.81968	-1.94028	0	
2.8593	-1.81968	-1.01817	0	
2.8600	-1.81968	-1.32554	0	
2.8607	0.0216628	-1.01817	0	
2.8613	5.50236	-2.84318	0	
2.8620	8.25354	-3.76529	0	
2.8627	5.19908	-1.32554	0	
2.8633	3.3794	0.499478	0	
2.8640	1.84134	-0.0960534	0	
2.8647	-2.72952	1.11422	0	
2.8653	-2.12296	2.65107	0	
2.8660	4.28924	1.11422	0	
2.8667	6.73714	-1.01817	0	
2.8673	4.59252	-1.94028	0	
2.8680	3.3794	-3.76529	0	
2.8687	5.50236	-4.68741	0	
2.8693	10.3982	-1.94028	0	
2.8700	14.0592	-1.94028	0	
2.8707	16.4854	-6.20505	0	
2.8713	21.0779	-6.51242	0	
2.8720	24.739	-4.68741	0	
2.8727	26.2554	-4.68741	0	
2.8733	23.5042	-3.76529	0	
2.8740	11.9146	-1.01817	0	
2.8747	-0.606559	0.806849	0	
2.8753	-7.32204	3.2466	0	
2.8760	-13.4093	5.70557	0	
2.8767	-20.1248	6.3011	0	
2.8773	-26.537	5.70557	0	
2.8780	-34.4656	5.3982	0	
2.8787	-38.4299	8.14533	0	
2.8793	-35.0721	15.1572	0	
2.8800	-30.198	16.0793	0	
2.8807	-22.876	9.04823	0	
2.8813	-14.9474	4.16872	0	
2.8820	-13.4093	4.47609	0	
2.8827	-10.9831	5.09083	0	
2.8833	-3.63936	5.09083	0	
2.8840	0.628222	2.95844	0	
2.8847	1.53806	-0.0960534	0	
2.8853	2.75118	-0.0960534	0	
2.8860	4.8958	-1.01817	0	
2.8867	11.9146	-4.68741	0	
2.8873	19.5399	-5.59031	0	
2.8880	19.2366	-5.59031	0	
2.8887	14.969	-7.43453	0	
2.8893	12.2178	-7.43453	0	
2.8900	9.46666	-5.59031	0	
2.8907	8.8601	-5.89768	0	
2.8913	10.0732	-4.07266	0	
2.8920	11.308	-1.01817	0	
2.8927	13.1277	-3.76529	0	
2.8933	15.8789	-7.72269	0	
2.8940	14.6657	-6.51242	0	
2.8947	11.0047	-5.89768	0	
2.8953	6.73714	-5.28294	0	
2.8960	2.4479	-1.94028	0	
2.8967	2.4479	-2.84318	0	
2.8973	7.04042	-8.33743	0	
2.8980	7.3437	-7.12716	0	
2.8987	3.05446	-0.403424	0	
2.8993	2.14462	1.72896	0	
2.9000	6.10892	-0.0960534	0	
2.9007	10.7014	-1.01817	0	
2.9013	16.1821	-1.01817	0	
2.9020	17.7202	-0.0960534	0	
2.9027	13.431	-0.0960534	0	
2.9033	11.308	-1.94028	0	
2.9040	12.5211	-2.22844	0	
2.9047	10.0732	-1.94028	0	
2.9053	8.25354	-1.32554	0	
2.9060	7.3437	0.806849	0	
2.9067	0.0216628	2.65107	0	
2.9073	-11.2863	2.65107	0	
2.9080	-21.9661	3.86135	0	
2.9087	-37.8233	6.60847	0	
2.9093	-49.4346	6.3011	0	
2.9100	-41.1811	2.65107	0	
2.9107	-24.3924	-1.32554	0	
2.9113	-13.106	-4.68741	0	
2.9120	-0.909839	-5.89768	0	
2.9127	6.73714	-4.97557	0	
2.9133	-1.21312	-4.38003	0	
2.9140	-12.8027	-2.53581	0	
2.9147	-14.6441	0.806849	0	
2.9153	-12.8027	2.03633	0	
2.9160	-15.2506	0.806849	0	
2.9167	-18.3051	-0.0960534	0	
2.9173	-18.3051	1.42159	0	
2.9180	-17.3736	3.55398	0	
2.9187	-16.4638	3.55398	0	
2.9193	-12.4995	0.211317	0	
2.9200	-6.9971	-0.403424	0	
2.9207	-4.57086	3.55398	0	
2.9213	-1.81968	5.70557	0	
2.9220	3.68268	3.55398	0	
2.9227	2.75118	1.72896	0	
2.9233	-6.39054	0.806849	0	
2.9240	-17.0703	-0.0960534	0	
2.9247	-20.1248	-0.403424	0	
2.9253	-10.9831	-0.0960534	0	
2.9260	0.931502	-3.76529	0	
2.9267	7.04042	-6.81979	0	
2.9273	11.9146	-6.51242	0	
2.9280	17.7202	-7.43453	0	
2.9287	21.0779	-10.7772	0	
2.9293	22.5943	-10.7772	0	
2.9300	21.9878	-8.95218	0	
2.9307	20.1464	-9.87429	0	
2.9313	17.4169	-10.1817	0	
2.9320	11.0047	-6.81979	0	
2.9327	4.28924	-4.68741	0	
2.9333	4.8958	-5.89768	0	
2.9340	6.4122	-5.59031	0	
2.9347	2.4479	-2.22844	0	
2.9353	1.84134	-2.22844	0	
2.9360	4.28924	-4.68741	0	
2.9367	3.05446	-1.94028	0	
2.9373	3.68268	2.03633	0	
2.9380	4.59252	0.499478	0	
2.9387	0.324943	-1.32554	0	
2.9393	-2.12296	0.806849	0	
2.9400	0.628222	0.499478	0	
2.9407	1.23478	-1.01817	0	
2.9413	1.23478	0.499478	0	
2.9420	2.75118	0.211317	0	
2.9427	-0.30328	-0.403424	0	
2.9433	-6.39054	2.95844	0	
2.9440	-7.62532	5.70557	0	
2.9447	-4.26758	4.47609	0	
2.9453	1.53806	1.11422	0	
