0.0000	11.9721	2.93595	1
0.0007	16.5582	2.01706	0	
0.0013	16.5582	2.01706	0	
0.0020	17.7811	-0.112059	0	
0.0027	15.0295	1.72571	0	
0.0033	10.7491	4.77371	0	
0.0040	10.4434	2.01706	0	
0.0047	12.8893	1.72571	0	
0.0053	12.5836	3.85483	0	
0.0060	9.23652	2.01706	0	
0.0067	4.03897	1.09818	0	
0.0073	-0.836758	4.77371	0	
0.0080	1.8988	3.85483	0	
0.0087	11.3606	1.09818	0	
0.0093	13.195	1.09818	0	
0.0100	6.17914	1.09818	0	
0.0107	0.386196	1.09818	0	
0.0113	-6.34005	2.62218	0	
0.0120	-15.4961	2.62218	0	
0.0127	-15.8019	3.24971	0	
0.0133	-9.38135	5.37883	0	
0.0140	-5.72858	3.24971	0	
0.0147	-1.75397	-0.425824	0	
0.0153	-0.53102	0.806825	0	
0.0160	-6.34005	2.33083	0	
0.0167	-6.34005	2.33083	0	
0.0173	0.386196	1.41194	0	
0.0180	1.8988	-1.03094	0	
0.0187	0.0804575	-1.63606	0	
0.0193	-4.50562	1.72571	0	
0.0200	-16.1076	5.37883	0	
0.0207	-24.0407	7.82172	0	
0.0213	-18.2317	9.34572	0	
0.0220	-8.15839	8.42684	0	
0.0227	-1.44824	7.50795	0	
0.0233	-0.836758	6.58907	0	
0.0240	-2.67119	3.85483	0	
0.0247	0.675843	0.201706	0	
0.0253	4.65044	-1.94983	0	
0.0260	1.59306	-1.63606	0	
0.0267	-3.58841	1.09818	0	
0.0273	-2.05971	0.201706	0	
0.0280	5.26192	-4.39271	0	
0.0287	14.7237	-5.3116	0	
0.0293	17.4754	-3.47383	0	
0.0300	11.9721	-7.44072	0	
0.0307	12.5836	-12.3265	0	
0.0313	20.2109	-10.8025	0	
0.0320	19.5995	-9.27849	0	
0.0327	12.5836	-9.8836	0	
0.0333	10.1376	-8.04584	0	
0.0340	10.4434	-4.39271	0	
0.0347	6.48488	-2.55495	0	
0.0353	0.0804575	-1.34471	0	
0.0360	-4.81136	1.09818	0	
0.0367	-9.07561	2.62218	0	
0.0373	-13.3559	2.01706	0	
0.0380	-13.6617	1.09818	0	
0.0387	-11.8273	2.01706	0	
0.0393	-13.6617	2.62218	0	
0.0400	-16.4133	2.33083	0	
0.0407	-15.1904	4.45995	0	
0.0413	-13.3559	6.29772	0	
0.0420	-12.4387	3.24971	0	
0.0427	-7.25727	2.62218	0	
0.0433	-0.836758	6.58907	0	
0.0440	0.0804575	5.6926	0	
0.0447	0.0804575	1.09818	0	
0.0453	0.0804575	1.72571	0	
0.0460	-0.225281	4.77371	0	
0.0467	2.81601	4.45995	0	
0.0473	3.12175	3.54106	0	
0.0480	-1.1425	3.85483	0	
0.0487	0.981582	4.77371	0	
0.0493	6.17914	4.77371	0	
0.0500	5.56766	2.62218	0	
0.0507	5.56766	0.49306	0	
0.0513	7.70783	0.201706	0	
0.0520	4.03897	0.49306	0	
0.0527	-1.44824	3.85483	0	
0.0533	-5.42284	9.65949	0	
0.0540	-9.99282	9.95084	0	
0.0547	-11.8273	6.90283	0	
0.0553	-13.0502	9.65949	0	
0.0560	-22.8178	12.9988	0	
0.0567	-30.7509	10.2646	0	
0.0573	-24.9579	7.50795	0	
0.0580	-13.0502	5.98395	0	
0.0587	-0.53102	2.62218	0	
0.0593	12.2778	-0.112059	0	
0.0600	19.9052	-1.63606	0	
0.0607	22.0454	-4.99783	0	
0.0613	24.1855	-8.3596	0	
0.0620	22.9626	-8.96472	0	
0.0627	18.3765	-7.44072	0	
0.0633	20.8224	-7.12695	0	
0.0640	26.3257	-8.3596	0	
0.0647	24.797	-9.8836	0	
0.0653	22.0454	-9.8836	0	
0.0660	23.8798	-8.96472	0	
0.0667	22.9626	-8.3596	0	
0.0673	22.6568	-9.56984	0	
0.0680	22.6568	-9.8836	0	
0.0687	10.1376	-4.39271	0	
0.0693	-7.25727	0.806825	0	
0.0700	-16.4133	0.201706	0	
0.0707	-26.4705	1.09818	0	
0.0713	-36.2381	5.6926	0	
0.0720	-31.6681	2.93595	0	
0.0727	-26.4705	-2.24118	0	
0.0733	-31.0566	0.201706	0	
0.0740	-28.305	3.54106	0	
0.0747	-17.3145	1.09818	0	
0.0753	-14.8846	0.806825	0	
0.0760	-20.0661	5.06507	0	
0.0767	-22.512	6.58907	0	
0.0773	-19.7604	5.06507	0	
0.0780	-11.8273	4.16859	0	
0.0787	-3.58841	4.77371	0	
0.0793	1.8988	3.85483	0	
0.0800	3.73323	1.09818	0	
0.0807	1.8988	0.201706	0	
0.0813	-1.44824	2.01706	0	
0.0820	-3.89414	2.01706	0	
0.0827	-4.50562	0.49306	0	
0.0833	-1.75397	1.72571	0	
0.0840	4.65044	2.01706	0	
0.0847	11.9721	0.201706	0	
0.0853	14.1122	-1.03094	0	
0.0860	7.70783	-0.717178	0	
0.0867	-0.836758	-0.112059	0	
0.0873	-5.42284	0.201706	0	
0.0880	-9.07561	-0.717178	0	
0.0887	-15.1904	-0.717178	0	
0.0893	-23.1235	1.72571	0	
0.0900	-33.8082	2.62218	0	
0.0907	-42.0471	1.72571	0	
0.0913	-40.2127	3.54106	0	
0.0920	-26.4705	5.06507	0	
0.0927	-6.03431	4.45995	0	
0.0933	8.62505	5.06507	0	
0.0940	11.9721	5.6926	0	
0.0947	12.2778	2.93595	0	
0.0953	10.1376	-0.717178	0	
0.0960	0.981582	-3.47383	0	
0.0967	-3.58841	-4.07895	0	
0.0973	2.51027	0.201706	0	
0.0980	3.73323	4.77371	0	
0.0987	-3.89414	5.6926	0	
0.0993	-9.68708	7.2166	0	
0.1000	-11.5215	9.65949	0	
0.1007	-9.99282	8.42684	0	
0.1013	-4.19988	5.06507	0	
0.1020	-1.1425	2.93595	0	
0.1027	-0.53102	2.93595	0	
0.1033	5.56766	3.85483	0	
0.1040	10.4434	2.93595	0	
0.1047	8.31931	0.201706	0	
0.1053	8.31931	-0.425824	0	
0.1060	12.8893	-0.717178	0	
0.1067	16.5582	-1.94983	0	
0.1073	14.7237	-1.34471	0	
0.1080	9.23652	0.806825	0	
0.1087	8.31931	1.41194	0	
0.1093	16.2524	-0.717178	0	
0.1100	22.3511	-1.63606	0	
0.1107	19.9052	0.201706	0	
0.1113	13.8065	0.201706	0	
0.1120	9.83191	-2.24118	0	
0.1127	8.01357	-1.03094	0	
0.1133	2.20454	2.01706	0	
0.1140	-8.76987	0.806825	0	
0.1147	-12.7445	0.806825	0	
0.1153	-5.72858	3.54106	0	
0.1160	-3.58841	2.93595	0	
0.1167	-10.91	2.62218	0	
0.1173	-14.8846	5.06507	0	
0.1180	-15.4961	3.85483	0	
0.1187	-12.7445	2.62218	0	
0.1193	-4.81136	4.77371	0	
0.1200	1.8988	2.93595	0	
0.1207	3.73323	-1.34471	0	
0.1213	7.40209	-0.425824	0	
0.1220	9.83191	1.09818	0	
0.1227	6.79061	0.201706	0	
0.1233	4.95618	1.09818	0	
0.1240	5.56766	3.24971	0	
0.1247	2.20454	2.93595	0	
0.1253	-1.1425	2.01706	0	
0.1260	-1.75397	1.41194	0	
0.1267	-3.28267	1.09818	0	
0.1273	-1.44824	1.41194	0	
0.1280	7.09635	-0.425824	0	
0.1287	11.0549	-2.55495	0	
0.1293	5.26192	0.201706	0	
0.1300	-0.53102	3.85483	0	
0.1307	0.386196	4.45995	0	
0.1313	0.981582	2.93595	0	
0.1320	0.0804575	1.09818	0	
0.1327	0.0804575	1.41194	0	
0.1333	-1.75397	4.16859	0	
0.1340	-3.89414	5.06507	0	
0.1347	0.0804575	2.33083	0	
0.1353	6.17914	0.201706	0	
0.1360	6.17914	0.806825	0	
0.1367	1.59306	1.09818	0	
0.1373	-1.44824	0.201706	0	
0.1380	-1.75397	0.806825	0	
0.1387	-1.1425	2.93595	0	
0.1393	-2.05971	2.93595	0	
0.1400	-7.25727	1.72571	0	
0.1407	-16.1076	2.01706	0	
0.1413	-24.3464	2.33083	0	
0.1420	-24.6522	2.33083	0	
0.1427	-14.5789	2.62218	0	
0.1433	-4.81136	0.201706	0	
0.1440	-2.67119	-2.55495	0	
0.1447	0.0804575	-1.63606	0	
0.1453	9.52617	-1.63606	0	
0.1460	16.8639	-4.39271	0	
0.1467	18.6822	-6.20807	0	
0.1473	16.5582	-6.20807	0	
0.1480	7.70783	-4.07895	0	
0.1487	-3.89414	-0.425824	0	
0.1493	-7.56301	0.49306	0	
0.1500	-4.50562	-1.03094	0	
0.1507	-2.36545	-2.55495	0	
0.1513	-2.05971	-4.39271	0	
0.1520	-0.225281	-3.78759	0	
0.1527	2.81601	-1.34471	0	
0.1533	3.42749	-0.425824	0	
0.1540	-0.225281	-0.717178	0	
0.1547	-3.28267	0.201706	0	
0.1553	-2.67119	-1.03094	0	
0.1560	-1.75397	-2.86871	0	
0.1567	-1.1425	-2.86871	0	
0.1573	-1.44824	-3.47383	0	
0.1580	-4.19988	-2.24118	0	
0.1587	-7.25727	1.72571	0	
0.1593	-6.95153	1.09818	0	
0.1600	-3.89414	-1.03094	0	
0.1607	-2.67119	2.01706	0	
0.1613	-0.836758	4.77371	0	
0.1620	2.81601	3.54106	0	
0.1627	4.03897	3.85483	0	
0.1633	3.12175	3.85483	0	
0.1640	3.73323	2.01706	0	
0.1647	1.8988	2.01706	0	
0.1653	-4.81136	2.62218	0	
0.1660	-6.03431	0.201706	0	
0.1667	1.28732	0.201706	0	
0.1673	3.42749	1.41194	0	
0.1680	-2.67119	-1.63606	0	
0.1687	-3.58841	-4.99783	0	
0.1693	6.48488	-6.20807	0	
0.1700	16.8639	-9.8836	0	
0.1707	20.2109	-12.6178	0	
0.1713	15.6409	-10.8025	0	
0.1720	10.1376	-6.20807	0	
0.1727	9.23652	-5.3116	0	
0.1733	10.1376	-8.65096	0	
0.1740	12.8893	-10.8025	0	
0.1747	17.4754	-7.12695	0	
0.1753	19.9052	-2.86871	0	
0.1760	15.6409	-1.63606	0	
0.1767	8.62505	0.49306	0	
0.1773	6.17914	1.09818	0	
0.1780	7.40209	-1.03094	0	
0.1787	1.8988	-0.112059	0	
0.1793	-13.0502	3.85483	0	
0.1800	-22.8178	5.06507	0	
0.1807	-20.6776	5.6926	0	
0.1813	-18.2317	5.98395	0	
0.1820	-19.4546	5.6926	0	
0.1827	-16.7191	5.98395	0	
0.1833	-13.0502	6.58907	0	
0.1840	-12.7445	5.98395	0	
0.1847	-13.6617	5.6926	0	
0.1853	-14.2732	4.45995	0	
0.1860	-11.5215	1.09818	0	
0.1867	-6.03431	0.201706	0	
0.1873	-3.58841	1.72571	0	
0.1880	-5.42284	0.806825	0	
0.1887	-6.34005	0.806825	0	
0.1893	-8.15839	3.54106	0	
0.1900	-9.38135	3.85483	0	
0.1907	-5.72858	2.33083	0	
0.1913	-0.836758	2.62218	0	
0.1920	1.28732	3.85483	0	
0.1927	0.0804575	3.85483	0	
0.1933	-3.58841	3.54106	0	
0.1940	-6.03431	3.85483	0	
0.1947	-4.19988	5.6926	0	
0.1953	-2.36545	5.98395	0	
0.1960	-2.67119	4.77371	0	
0.1967	-4.19988	5.6926	0	
0.1973	-9.99282	8.7406	0	
0.1980	-18.2317	8.13548	0	
0.1987	-22.8178	6.90283	0	
0.1993	-21.9005	7.2166	0	
0.2000	-18.5374	5.98395	0	
0.2007	-14.8846	5.98395	0	
0.2013	-12.133	7.82172	0	
0.2020	-8.76987	6.29772	0	
0.2027	-4.81136	3.85483	0	
0.2033	-1.1425	5.6926	0	
0.2040	5.8734	5.6926	0	
0.2047	14.7237	0.201706	0	
0.2053	18.3765	-4.07895	0	
0.2060	20.8224	-4.68407	0	
0.2067	25.4085	-6.20807	0	
0.2073	27.8383	-8.96472	0	
0.2080	26.9211	-9.27849	0	
0.2087	23.8798	-7.44072	0	
0.2093	17.4754	-4.99783	0	
0.2100	9.83191	-2.55495	0	
0.2107	4.95618	-1.34471	0	
0.2113	3.73323	-1.34471	0	
0.2120	5.8734	-1.03094	0	
0.2127	3.42749	0.49306	0	
0.2133	-7.25727	2.93595	0	
0.2140	-14.5789	5.06507	0	
0.2147	-10.6043	6.58907	0	
0.2153	-5.72858	5.37883	0	
0.2160	-2.67119	1.72571	0	
0.2167	2.81601	-0.112059	0	
0.2173	3.42749	2.93595	0	
0.2180	-6.34005	8.42684	0	
0.2187	-12.7445	9.03196	0	
0.2193	-8.15839	4.77371	0	
0.2200	-4.50562	2.01706	0	
0.2207	-2.36545	0.201706	0	
0.2213	6.17914	-5.3116	0	
0.2220	11.9721	-8.3596	0	
0.2227	4.95618	-5.3116	0	
0.2233	-5.42284	-0.717178	0	
0.2240	-9.68708	2.33083	0	
0.2247	-13.0502	4.45995	0	
0.2253	-13.6617	3.54106	0	
0.2260	-8.46413	1.41194	0	
0.2267	-4.81136	1.09818	0	
0.2273	-6.34005	1.09818	0	
0.2280	-6.34005	2.93595	0	
0.2287	-2.05971	5.6926	0	
0.2293	-0.836758	4.45995	0	
0.2300	-3.89414	1.41194	0	
0.2307	-6.34005	1.09818	0	
0.2313	-5.72858	0.201706	0	
0.2320	-5.72858	-0.425824	0	
0.2327	-7.25727	0.806825	0	
0.2333	-9.07561	0.49306	0	
0.2340	-14.2732	1.72571	0	
0.2347	-20.6776	7.50795	0	
0.2353	-21.2891	8.13548	0	
0.2360	-15.4961	2.33083	0	
0.2367	-8.15839	-0.112059	0	
0.2373	-3.28267	-1.34471	0	
0.2380	0.981582	-3.47383	0	
0.2387	6.79061	-4.68407	0	
0.2393	12.2778	-7.44072	0	
0.2400	15.6409	-10.4887	0	
0.2407	18.0868	-7.12695	0	
0.2413	20.8224	-3.78759	0	
0.2420	22.0454	-4.68407	0	
0.2427	17.4754	-3.78759	0	
0.2433	7.70783	-1.63606	0	
0.2440	3.42749	-2.86871	0	
0.2447	8.01357	-2.55495	0	
0.2453	10.1376	-0.717178	0	
0.2460	5.56766	-2.55495	0	
0.2467	0.386196	-4.99783	0	
0.2473	0.0804575	-4.99783	0	
0.2480	1.59306	-5.3116	0	
0.2487	2.81601	-6.20807	0	
0.2493	2.81601	-6.20807	0	
0.2500	2.81601	-6.8356	0	
0.2507	4.65044	-5.60295	0	
0.2513	2.81601	-4.39271	0	
0.2520	-4.81136	-3.47383	0	
0.2527	-10.91	-0.425824	0	
0.2533	-13.6617	3.85483	0	
0.2540	-13.9674	5.6926	0	
0.2547	-9.99282	7.2166	0	
0.2553	-4.50562	6.90283	0	
0.2560	-1.75397	3.85483	0	
0.2567	0.0804575	2.33083	0	
0.2573	4.65044	3.85483	0	
0.2580	8.62505	3.85483	0	
0.2587	11.9721	4.16859	0	
0.2593	12.2778	3.85483	0	
0.2600	9.23652	0.201706	0	
0.2607	9.23652	-1.94983	0	
0.2613	9.23652	1.09818	0	
0.2620	-0.836758	2.62218	0	
0.2627	-15.4961	-0.425824	0	
0.2633	-20.3718	-0.112059	0	
0.2640	-20.0661	3.85483	0	
0.2647	-20.6776	5.6926	0	
0.2653	-17.6202	5.6926	0	
0.2660	-10.91	7.50795	0	
0.2667	-4.81136	5.6926	0	
0.2673	1.28732	0.49306	0	
0.2680	4.34471	-1.03094	0	
0.2687	3.73323	1.72571	0	
0.2693	3.12175	4.45995	0	
0.2700	-2.05971	5.6926	0	
0.2707	-10.91	6.29772	0	
0.2713	-9.99282	5.6926	0	
0.2720	0.0804575	6.90283	0	
0.2727	7.40209	7.2166	0	
0.2733	8.93078	4.16859	0	
0.2740	6.48488	2.33083	0	
0.2747	-1.1425	3.85483	0	
0.2753	-5.72858	5.37883	0	
0.2760	-3.58841	6.29772	0	
0.2767	-3.28267	8.42684	0	
0.2773	-6.03431	10.556	0	
0.2780	-9.99282	11.1835	0	
0.2787	-19.4546	10.556	0	
0.2793	-28.305	10.8697	0	
0.2800	-25.2637	11.4748	0	
0.2807	-16.4133	12.1024	0	
0.2813	-13.0502	12.9988	0	
0.2820	-12.133	12.7075	0	
0.2827	-7.86875	9.34572	0	
0.2833	-1.44824	5.98395	0	
0.2840	5.56766	4.77371	0	
0.2847	11.6663	1.09818	0	
0.2853	15.6409	-4.39271	0	
0.2860	17.4754	-6.8356	0	
0.2867	17.1696	-4.39271	0	
0.2873	17.1696	-2.86871	0	
0.2880	18.6822	-4.07895	0	
0.2887	14.1122	-2.55495	0	
0.2893	-0.53102	2.33083	0	
0.2900	-12.7445	5.06507	0	
0.2907	-12.133	2.93595	0	
0.2913	-9.07561	2.01706	0	
0.2920	-14.5789	1.72571	0	
0.2927	-17.6202	-2.24118	0	
0.2933	-11.8273	-4.99783	0	
0.2940	-7.86875	-4.99783	0	
0.2947	-6.34005	-7.12695	0	
0.2953	-1.1425	-6.8356	0	
0.2960	1.28732	-2.55495	0	
0.2967	-1.75397	-2.55495	0	
0.2973	-2.05971	-4.68407	0	
0.2980	-2.05971	-1.63606	0	
0.2987	-3.58841	1.41194	0	
0.2993	-0.836758	-0.425824	0	
0.3000	3.73323	-1.63606	0	
0.3007	5.26192	-1.63606	0	
0.3013	6.17914	-1.34471	0	
0.3020	6.79061	-1.03094	0	
0.3027	4.95618	-1.63606	0	
0.3033	3.12175	-1.94983	0	
0.3040	3.73323	-1.63606	0	
0.3047	4.95618	-3.16006	0	
0.3053	5.8734	-3.16006	0	
0.3060	5.8734	-0.717178	0	
0.3067	6.48488	0.201706	0	
0.3073	8.31931	0.201706	0	
0.3080	11.9721	0.49306	0	
0.3087	16.5582	-1.34471	0	
0.3093	18.0868	-2.24118	0	
0.3100	14.7237	-0.717178	0	
0.3107	13.195	-1.63606	0	
0.3113	17.1696	-3.47383	0	
0.3120	18.988	-2.86871	0	
0.3127	17.1696	-1.34471	0	
0.3133	15.6409	1.09818	0	
0.3140	8.93078	4.45995	0	
0.3147	-6.34005	4.77371	0	
0.3153	-20.9833	6.58907	0	
0.3160	-29.2222	10.2646	0	
0.3167	-34.4036	9.65949	0	
0.3173	-33.8082	7.50795	0	
0.3180	-24.6522	6.58907	0	
0.3187	-13.3559	3.54106	0	
0.3193	-6.03431	1.09818	0	
0.3200	-5.72858	2.93595	0	
0.3207	-5.42284	2.93595	0	
0.3213	4.65044	0.201706	0	
0.3220	10.4434	0.201706	0	
0.3227	-1.75397	2.01706	0	
0.3233	-17.0087	2.93595	0	
0.3240	-17.0087	2.33083	0	
0.3247	-11.8273	-0.112059	0	
0.3253	-8.76987	-0.717178	0	
0.3260	-2.97693	0.201706	0	
0.3267	-1.1425	-1.63606	0	
0.3273	-7.25727	-2.86871	0	
0.3280	-7.25727	-2.55495	0	
0.3287	2.51027	-5.3116	0	
0.3293	8.31931	-7.44072	0	
0.3300	8.01357	-2.55495	0	
0.3307	7.09635	2.62218	0	
0.3313	6.79061	2.62218	0	
0.3320	1.28732	2.01706	0	
0.3327	-9.07561	2.93595	0	
0.3333	-15.4961	3.85483	0	
0.3340	-15.1904	4.45995	0	
0.3347	-17.9259	5.06507	0	
0.3353	-20.6776	5.6926	0	
0.3360	-13.0502	5.6926	0	
0.3367	-5.42284	4.16859	0	
0.3373	-8.15839	2.62218	0	
0.3380	-8.46413	2.01706	0	
0.3387	-1.1425	2.01706	0	
0.3393	1.8988	2.33083	0	
0.3400	-0.225281	4.16859	0	
0.3407	-0.225281	5.6926	0	
0.3413	0.675843	5.37883	0	
0.3420	5.8734	1.09818	0	
0.3427	17.4754	-5.3116	0	
0.3433	26.02	-7.75448	0	
0.3440	26.3257	-5.3116	0	
0.3447	25.1027	-4.99783	0	
0.3453	24.797	-4.68407	0	
0.3460	24.797	-1.94983	0	
0.3467	26.02	-2.86871	0	
0.3473	24.4913	-5.3116	0	
0.3480	19.5995	-3.47383	0	
0.3487	17.4754	-0.717178	0	
0.3493	14.7237	-1.63606	0	
0.3500	4.65044	-1.63606	0	
0.3507	-6.34005	1.41194	0	
0.3513	-11.5215	2.93595	0	
0.3520	-12.133	1.72571	0	
0.3527	-11.5215	2.93595	0	
0.3533	-13.6617	5.98395	0	
0.3540	-20.3718	6.90283	0	
0.3547	-23.4292	4.16859	0	
0.3553	-21.9005	2.01706	0	
0.3560	-24.6522	2.33083	0	
0.3567	-26.7763	3.85483	0	
0.3573	-24.0407	5.6926	0	
0.3580	-20.0661	6.58907	0	
0.3587	-13.9674	5.98395	0	
0.3593	-7.25727	5.06507	0	
0.3600	-5.1171	4.45995	0	
0.3607	-1.44824	3.54106	0	
0.3613	4.65044	2.33083	0	
0.3620	3.42749	2.01706	0	
0.3627	0.675843	2.01706	0	
0.3633	4.95618	1.09818	0	
0.3640	7.09635	-1.03094	0	
0.3647	4.34471	-2.55495	0	
0.3653	2.81601	-4.68407	0	
0.3660	-0.836758	-6.52183	0	
0.3667	-3.89414	-4.07895	0	
0.3673	-0.225281	-1.03094	0	
0.3680	4.65044	-1.63606	0	
0.3687	5.26192	-1.94983	0	
0.3693	5.26192	-1.34471	0	
0.3700	5.8734	-3.47383	0	
0.3707	7.09635	-4.07895	0	
0.3713	7.09635	-3.47383	0	
0.3720	0.386196	-4.68407	0	
0.3727	-10.2986	-3.47383	0	
0.3733	-17.3145	-0.112059	0	
0.3740	-17.6202	-3.47383	0	
0.3747	-12.7445	-7.12695	0	
0.3753	-8.76987	-2.86871	0	
0.3760	-9.38135	0.806825	0	
0.3767	-11.5215	-0.425824	0	
0.3773	-12.4387	2.62218	0	
0.3780	-10.91	4.45995	0	
0.3787	-3.89414	-1.34471	0	
0.3793	3.73323	-4.07895	0	
0.3800	4.34471	-1.03094	0	
0.3807	3.12175	-1.63606	0	
0.3813	6.48488	-4.99783	0	
0.3820	10.1376	-5.60295	0	
0.3827	9.23652	-6.20807	0	
0.3833	6.48488	-4.39271	0	
0.3840	6.48488	0.201706	0	
0.3847	10.1376	0.49306	0	
0.3853	13.195	-3.78759	0	
0.3860	14.418	-4.07895	0	
0.3867	15.3352	-2.24118	0	
0.3873	10.7491	-3.78759	0	
0.3880	-1.1425	-3.78759	0	
0.3887	-9.99282	-0.717178	0	
0.3893	-7.25727	0.201706	0	
0.3900	0.386196	0.201706	0	
0.3907	6.17914	0.201706	0	
0.3913	8.93078	-1.03094	0	
0.3920	7.09635	-0.717178	0	
0.3927	2.51027	2.33083	0	
0.3933	0.981582	4.77371	0	
0.3940	-0.225281	5.6926	0	
0.3947	-4.50562	6.90283	0	
0.3953	-6.64579	8.7406	0	
0.3960	-4.19988	8.42684	0	
0.3967	-6.34005	6.58907	0	
0.3973	-15.4961	6.58907	0	
0.3980	-17.6202	6.90283	0	
0.3987	-7.25727	2.93595	0	
0.3993	1.28732	0.201706	0	
0.4000	-1.75397	3.54106	0	
0.4007	-6.03431	6.58907	0	
0.4013	-2.36545	5.6926	0	
0.4020	5.26192	5.06507	0	
0.4027	11.6663	6.29772	0	
0.4033	16.2524	6.29772	0	
0.4040	17.7811	5.06507	0	
0.4047	19.9052	4.77371	0	
0.4053	24.1855	5.06507	0	
0.4060	26.6314	3.85483	0	
0.4067	30.2842	1.09818	0	
0.4073	34.5645	2.33083	0	
0.4080	26.6314	5.37883	0	
0.4087	6.48488	4.77371	0	
0.4093	-7.86875	3.85483	0	
0.4100	-15.1904	6.58907	0	
0.4107	-27.082	6.58907	0	
0.4113	-33.5025	3.24971	0	
0.4120	-26.4705	2.01706	0	
0.4127	-20.3718	4.16859	0	
0.4133	-20.0661	5.06507	0	
0.4140	-17.3145	5.37883	0	
0.4147	-17.0087	5.6926	0	
0.4153	-22.2063	5.98395	0	
0.4160	-22.2063	8.13548	0	
0.4167	-19.1489	10.2646	0	
0.4173	-20.6776	8.42684	0	
0.4180	-21.2891	6.58907	0	
0.4187	-18.2317	6.58907	0	
0.4193	-13.9674	4.77371	0	
0.4200	-6.95153	3.24971	0	
0.4207	0.981582	2.33083	0	
0.4213	3.42749	1.09818	0	
0.4220	2.81601	-0.112059	0	
0.4227	2.81601	-0.425824	0	
0.4233	2.81601	-1.03094	0	
0.4240	2.20454	0.201706	0	
0.4247	-2.97693	1.72571	0	
0.4253	-7.86875	1.41194	0	
0.4260	-4.50562	1.09818	0	
0.4267	0.981582	0.201706	0	
0.4273	0.675843	-2.86871	0	
0.4280	0.675843	-5.60295	0	
0.4287	7.09635	-4.99783	0	
0.4293	11.0549	-3.47383	0	
0.4300	8.62505	-3.16006	0	
0.4307	4.65044	-4.39271	0	
0.4313	3.42749	-4.07895	0	
0.4320	2.51027	-1.03094	0	
0.4327	2.51027	1.09818	0	
0.4333	5.26192	1.09818	0	
0.4340	4.95618	2.01706	0	
0.4347	-1.1425	2.93595	0	
0.4353	-4.50562	2.93595	0	
0.4360	-2.67119	3.24971	0	
0.4367	-4.50562	3.24971	0	
0.4373	-9.68708	2.01706	0	
0.4380	-9.07561	0.806825	0	
0.4387	-4.50562	0.201706	0	
0.4393	-2.67119	1.09818	0	
0.4400	-2.97693	1.72571	0	
0.4407	0.0804575	1.09818	0	
0.4413	2.81601	1.72571	0	
0.4420	2.81601	2.01706	0	
0.4427	5.26192	-0.717178	0	
0.4433	5.8734	-2.55495	0	
0.4440	-2.67119	-1.03094	0	
0.4447	-7.86875	-0.112059	0	
0.4453	-1.1425	1.09818	0	
0.4460	1.59306	4.77371	0	
0.4467	-3.58841	5.6926	0	
0.4473	-3.89414	3.54106	0	
0.4480	-1.1425	2.93595	0	
0.4487	0.0804575	0.201706	0	
0.4493	3.42749	-4.99783	0	
0.4500	4.95618	-5.60295	0	
0.4507	3.73323	-3.78759	0	
0.4513	5.8734	-5.3116	0	
0.4520	8.62505	-7.44072	0	
0.4527	8.01357	-7.12695	0	
0.4533	7.09635	-6.20807	0	
0.4540	5.56766	-5.60295	0	
0.4547	1.8988	-1.63606	0	
0.4553	1.59306	1.72571	0	
0.4560	5.56766	-1.63606	0	
0.4567	11.0549	-4.99783	0	
0.4573	14.1122	-3.47383	0	
0.4580	15.0295	-2.86871	0	
0.4587	16.2524	-4.39271	0	
0.4593	14.1122	-3.47383	0	
0.4600	2.81601	-3.47383	0	
0.4607	-8.46413	-5.60295	0	
0.4613	-5.42284	-4.07895	0	
0.4620	8.01357	-2.24118	0	
0.4627	17.4754	-3.78759	0	
0.4633	13.8065	-4.07895	0	
0.4640	1.59306	-0.717178	0	
0.4647	-7.86875	2.01706	0	
0.4653	-9.07561	2.01706	0	
0.4660	-4.50562	0.201706	0	
0.4667	0.0804575	-1.34471	0	
0.4673	-1.75397	1.72571	0	
0.4680	-9.07561	5.6926	0	
0.4687	-15.1904	6.58907	0	
0.4693	-21.9005	7.2166	0	
0.4700	-27.6935	10.556	0	
0.4707	-26.7763	12.1024	0	
0.4713	-25.859	9.65949	0	
0.4720	-27.3877	9.65949	0	
0.4727	-24.3464	12.1024	0	
0.4733	-20.3718	12.1024	0	
0.4740	-20.9833	10.8697	0	
0.4747	-21.2891	13.6264	0	
0.4753	-21.2891	15.7555	0	
0.4760	-20.9833	10.8697	0	
0.4767	-14.5789	4.77371	0	
0.4773	-4.81136	2.93595	0	
0.4780	5.56766	2.01706	0	
0.4787	19.5995	-2.24118	0	
0.4793	27.8383	-7.44072	0	
0.4800	22.9626	-9.27849	0	
0.4807	15.6409	-6.52183	0	
0.4813	12.8893	-3.78759	0	
0.4820	12.2778	-4.68407	0	
0.4827	15.6409	-5.60295	0	
0.4833	18.3765	-4.68407	0	
0.4840	14.418	-5.3116	0	
0.4847	9.23652	-4.99783	0	
0.4853	6.17914	-3.47383	0	
0.4860	0.981582	-3.16006	0	
0.4867	-8.15839	-3.47383	0	
0.4873	-12.7445	-2.86871	0	
0.4880	-9.68708	-3.78759	0	
0.4887	-6.95153	-3.78759	0	
0.4893	-7.25727	-2.55495	0	
0.4900	-3.58841	-2.86871	0	
0.4907	0.675843	-1.63606	0	
0.4913	-1.75397	2.93595	0	
0.4920	-3.58841	3.54106	0	
0.4927	-2.05971	0.49306	0	
0.4933	-2.97693	1.09818	0	
0.4940	-7.25727	3.54106	0	
0.4947	-9.68708	3.24971	0	
0.4953	-6.34005	1.41194	0	
0.4960	0.981582	1.09818	0	
0.4967	4.03897	0.201706	0	
0.4973	2.81601	-1.03094	0	
0.4980	5.26192	1.09818	0	
0.4987	8.31931	3.85483	0	
0.4993	5.56766	0.806825	0	
0.5000	0.981582	-1.34471	0	
0.5007	0.0804575	2.93595	0	
0.5013	0.386196	4.45995	0	
0.5020	3.73323	1.09818	0	
0.5027	8.01357	0.201706	0	
0.5033	6.48488	1.09818	0	
0.5040	2.20454	-0.717178	0	
0.5047	0.386196	-1.03094	0	
0.5053	-0.53102	-0.112059	0	
0.5060	0.981582	0.201706	0	
0.5067	3.42749	-0.425824	0	
0.5073	0.981582	-1.34471	0	
0.5080	-3.28267	-1.03094	0	
0.5087	-5.42284	2.01706	0	
0.5093	-6.64579	2.93595	0	
0.5100	-8.76987	3.24971	0	
0.5107	-10.91	5.37883	0	
0.5113	-11.5215	6.90283	0	
0.5120	-9.38135	7.2166	0	
0.5127	-8.46413	7.2166	0	
0.5133	-10.6043	4.45995	0	
0.5140	-11.2158	0.806825	0	
0.5147	-10.2986	0.806825	0	
0.5153	-11.8273	2.01706	0	
0.5160	-13.6617	2.93595	0	
0.5167	-12.4387	3.54106	0	
0.5173	-7.56301	1.09818	0	
0.5180	0.0804575	-1.34471	0	
0.5187	4.95618	0.201706	0	
0.5193	5.26192	1.09818	0	
0.5200	4.65044	0.49306	0	
0.5207	4.95618	2.01706	0	
0.5213	8.93078	2.93595	0	
0.5220	14.7237	0.201706	0	
0.5227	14.418	1.41194	0	
0.5233	11.6663	5.06507	0	
0.5240	16.5582	1.72571	0	
0.5247	23.5741	-3.47383	0	
0.5253	20.2109	-1.03094	0	
0.5260	7.70783	3.54106	0	
0.5267	-5.42284	1.72571	0	
0.5273	-9.68708	-0.717178	0	
0.5280	-6.03431	1.09818	0	
0.5287	-4.81136	1.72571	0	
0.5293	-4.50562	-1.03094	0	
0.5300	2.20454	-2.24118	0	
0.5307	8.31931	-0.112059	0	
0.5313	4.65044	1.72571	0	
0.5320	-1.44824	2.62218	0	
0.5327	-2.36545	3.85483	0	
0.5333	0.0804575	2.33083	0	
0.5340	1.59306	0.49306	0	
0.5347	1.8988	2.01706	0	
0.5353	-0.225281	2.01706	0	
0.5360	-4.50562	-1.03094	0	
0.5367	-8.76987	-1.63606	0	
0.5373	-16.1076	0.201706	0	
0.5380	-27.3877	0.201706	0	
0.5387	-33.1968	0.201706	0	
0.5393	-28.6107	2.33083	0	
0.5400	-20.0661	4.45995	0	
0.5407	-8.46413	4.16859	0	
0.5413	3.42749	2.01706	0	
0.5420	12.2778	0.201706	0	
0.5427	24.797	0.201706	0	
0.5433	36.6886	0.806825	0	
0.5440	34.8703	-0.425824	0	
0.5447	23.8798	-1.63606	0	
0.5453	12.5836	-1.03094	0	
0.5460	-1.1425	1.41194	0	
0.5467	-9.07561	2.01706	0	
0.5473	-3.58841	0.201706	0	
0.5480	2.51027	0.201706	0	
0.5487	0.981582	0.49306	0	
0.5493	-3.89414	-3.78759	0	
0.5500	-6.34005	-7.12695	0	
0.5507	-3.58841	-4.07895	0	
0.5513	0.981582	-2.24118	0	
0.5520	0.0804575	-4.39271	0	
0.5527	-1.75397	-3.78759	0	
0.5533	1.8988	-1.34471	0	
0.5540	1.8988	-2.24118	0	
0.5547	-7.25727	-1.94983	0	
0.5553	-17.6202	1.09818	0	
0.5560	-19.1489	2.62218	0	
0.5567	-13.3559	1.41194	0	
0.5573	-8.15839	1.09818	0	
0.5580	-6.34005	0.201706	0	
0.5587	-5.1171	-1.63606	0	
0.5593	-6.34005	-3.16006	0	
0.5600	-7.86875	-4.07895	0	
0.5607	-3.58841	-3.78759	0	
0.5613	2.81601	-2.55495	0	
0.5620	2.51027	-1.63606	0	
0.5627	-0.836758	-1.63606	0	
0.5633	0.386196	-2.55495	0	
0.5640	2.81601	-4.39271	0	
0.5647	3.42749	-3.47383	0	
0.5653	2.81601	-1.94983	0	
0.5660	2.81601	-3.16006	0	
0.5667	5.56766	-4.68407	0	
0.5673	10.4434	-4.39271	0	
0.5680	10.4434	-5.3116	0	
0.5687	3.73323	-5.91672	0	
0.5693	-2.36545	-4.39271	0	
0.5700	-4.50562	-2.55495	0	
0.5707	-5.42284	0.49306	0	
0.5713	-5.72858	3.54106	0	
0.5720	-4.19988	3.24971	0	
0.5727	-0.836758	2.62218	0	
0.5733	1.28732	3.54106	0	
0.5740	0.386196	2.62218	0	
0.5747	-1.44824	0.49306	0	
0.5753	-3.58841	1.09818	0	
0.5760	-3.58841	2.33083	0	
0.5767	2.20454	2.62218	0	
0.5773	7.09635	1.72571	0	
0.5780	1.28732	0.806825	0	
0.5787	-5.1171	0.806825	0	
0.5793	-4.50562	1.09818	0	
0.5800	-2.67119	0.806825	0	
0.5807	-0.836758	2.01706	0	
0.5813	6.48488	2.33083	0	
0.5820	11.3606	1.72571	0	
0.5827	10.4434	2.62218	0	
0.5833	10.1376	2.93595	0	
0.5840	15.6409	1.09818	0	
0.5847	23.8798	0.49306	0	
0.5853	28.7555	2.01706	0	
0.5860	28.4498	1.72571	0	
0.5867	26.3257	0.201706	0	
0.5873	23.5741	2.01706	0	
0.5880	20.8224	3.54106	0	
0.5887	18.3765	1.09818	0	
0.5893	8.93078	-1.63606	0	
0.5900	-6.95153	-0.425824	0	
0.5907	-15.1904	3.24971	0	
0.5913	-17.6202	6.58907	0	
0.5920	-29.8336	9.95084	0	
0.5927	-44.7827	11.1835	0	
0.5933	-46.9228	9.03196	0	
0.5940	-40.2127	8.7406	0	
0.5947	-35.3208	11.1835	0	
0.5953	-28.6107	11.1835	0	
0.5960	-16.1076	7.50795	0	
0.5967	-5.72858	5.6926	0	
0.5973	-8.46413	4.16859	0	
0.5980	-19.1489	2.33083	0	
0.5987	-24.6522	2.93595	0	
0.5993	-23.4292	5.6926	0	
0.6000	-18.2317	4.77371	0	
0.6007	-7.56301	1.09818	0	
0.6013	2.51027	2.01706	0	
0.6020	3.42749	4.77371	0	
0.6027	-1.75397	2.93595	0	
0.6033	-4.50562	-0.717178	0	
0.6040	-3.58841	-1.94983	0	
0.6047	-1.1425	-0.717178	0	
0.6053	-0.225281	1.41194	0	
0.6060	0.981582	0.49306	0	
0.6067	2.81601	-3.47383	0	
0.6073	2.81601	-5.91672	0	
0.6080	3.73323	-4.99783	0	
0.6087	7.09635	-4.39271	0	
0.6093	6.48488	-3.78759	0	
0.6100	1.28732	-1.34471	0	
0.6107	-1.75397	1.09818	0	
0.6113	-2.97693	2.33083	0	
0.6120	-4.19988	3.24971	0	
0.6127	-5.42284	3.24971	0	
0.6133	-7.25727	3.54106	0	
0.6140	-9.68708	4.77371	0	
0.6147	-11.2158	5.98395	0	
0.6153	-12.7445	7.2166	0	
0.6160	-12.4387	7.50795	0	
0.6167	-9.99282	4.77371	0	
0.6173	-7.25727	2.62218	0	
0.6180	-3.58841	4.77371	0	
0.6187	-0.225281	6.29772	0	
0.6193	2.81601	3.24971	0	
0.6200	9.52617	-1.63606	0	
0.6207	17.4754	-3.47383	0	
0.6213	23.8798	-4.68407	0	
0.6220	33.0359	-7.75448	0	
0.6227	40.3575	-8.3596	0	
0.6233	34.2588	-5.60295	0	
0.6240	23.8798	-4.07895	0	
0.6247	22.3511	-4.99783	0	
0.6253	18.988	-3.16006	0	
0.6260	5.56766	0.49306	0	
0.6267	-4.81136	-0.112059	0	
0.6273	-6.34005	-2.55495	0	
0.6280	-9.99282	-1.03094	0	
0.6287	-16.4133	1.09818	0	
0.6293	-19.1489	0.201706	0	
0.6300	-20.9833	-0.717178	0	
0.6307	-21.9005	0.49306	0	
0.6313	-15.4961	0.201706	0	
0.6320	-2.97693	-0.717178	0	
0.6327	10.4434	-1.03094	0	
0.6333	22.3511	-3.78759	0	
0.6340	24.4913	-5.91672	0	
0.6347	15.6409	-4.39271	0	
0.6353	2.51027	-0.717178	0	
0.6360	-13.9674	2.01706	0	
0.6367	-25.859	2.01706	0	
0.6373	-21.5948	0.806825	0	
0.6380	-9.99282	2.01706	0	
0.6387	-9.07561	4.16859	0	
0.6393	-14.8846	4.16859	0	
0.6400	-18.2317	3.85483	0	
0.6407	-16.4133	3.85483	0	
0.6413	-9.99282	2.62218	0	
0.6420	-5.72858	2.93595	0	
0.6427	-4.19988	4.77371	0	
0.6433	4.95618	3.24971	0	
0.6440	16.8639	2.01706	0	
0.6447	19.9052	3.54106	0	
0.6453	19.2937	3.24971	0	
0.6460	19.5995	2.01706	0	
0.6467	14.418	2.93595	0	
0.6473	8.01357	4.16859	0	
0.6480	4.95618	3.54106	0	
0.6487	-1.44824	3.54106	0	
0.6493	-11.5215	2.93595	0	
0.6500	-18.2317	2.01706	0	
0.6507	-21.9005	3.54106	0	
0.6513	-20.3718	5.6926	0	
0.6520	-10.6043	4.77371	0	
0.6527	-1.75397	1.72571	0	
0.6533	1.8988	1.09818	0	
0.6540	5.8734	1.09818	0	
0.6547	10.7491	-1.34471	0	
0.6553	12.8893	-3.47383	0	
0.6560	13.195	-2.24118	0	
0.6567	10.1376	-0.112059	0	
0.6573	2.81601	-0.112059	0	
0.6580	-1.75397	-0.717178	0	
0.6587	-1.1425	1.09818	0	
0.6593	-2.36545	3.85483	0	
0.6600	-4.50562	3.85483	0	
0.6607	-4.81136	4.16859	0	
0.6613	-6.64579	6.29772	0	
0.6620	-11.2158	6.90283	0	
0.6627	-10.91	6.58907	0	
0.6633	-5.72858	5.37883	0	
0.6640	-0.836758	2.62218	0	
0.6647	2.20454	2.93595	0	
0.6653	3.42749	5.6926	0	
0.6660	1.8988	4.77371	0	
0.6667	0.0804575	2.93595	0	
0.6673	2.20454	4.16859	0	
0.6680	9.52617	3.85483	0	
0.6687	16.5582	1.72571	0	
0.6693	18.6822	2.01706	0	
0.6700	16.5582	1.41194	0	
0.6707	12.8893	-2.55495	0	
0.6713	9.83191	-4.07895	0	
0.6720	5.56766	-3.47383	0	
0.6727	-5.72858	-2.86871	0	
0.6733	-13.0502	-1.63606	0	
0.6740	-8.15839	-0.717178	0	
0.6747	-7.25727	-0.425824	0	
0.6753	-16.4133	0.201706	0	
0.6760	-18.8432	1.72571	0	
0.6767	-11.2158	1.72571	0	
0.6773	-4.50562	-1.03094	0	
0.6780	-0.836758	-0.717178	0	
0.6787	-2.05971	4.45995	0	
0.6793	-8.76987	6.29772	0	
0.6800	-11.8273	3.85483	0	
0.6807	-12.7445	2.93595	0	
0.6813	-17.3145	4.45995	0	
0.6820	-17.3145	3.85483	0	
0.6827	-9.68708	1.09818	0	
0.6833	-3.28267	-0.717178	0	
0.6840	-0.225281	0.201706	0	
0.6847	2.51027	2.01706	0	
0.6853	3.73323	0.806825	0	
0.6860	3.73323	-0.717178	0	
0.6867	4.65044	-0.717178	0	
0.6873	5.26192	-0.112059	0	
0.6880	4.65044	1.09818	0	
0.6887	1.8988	1.72571	0	
0.6893	-0.225281	0.201706	0	
0.6900	4.65044	1.09818	0	
0.6907	11.3606	2.93595	0	
0.6913	12.2778	0.49306	0	
0.6920	12.8893	-1.63606	0	
0.6927	15.9467	0.201706	0	
0.6933	14.1122	0.201706	0	
0.6940	10.4434	-1.03094	0	
0.6947	11.9721	-0.717178	0	
0.6953	15.3352	-0.717178	0	
0.6960	18.3765	-0.425824	0	
0.6967	17.7811	-1.63606	0	
0.6973	6.48488	-5.3116	0	
0.6980	-7.86875	-2.55495	0	
0.6987	-11.5215	3.24971	0	
0.6993	-11.8273	2.01706	0	
0.7000	-19.7604	-0.717178	0	
0.7007	-29.2222	2.62218	0	
0.7013	-31.9738	3.54106	0	
0.7020	-27.6935	0.806825	0	
0.7027	-19.1489	1.09818	0	
0.7033	-12.7445	2.01706	0	
0.7040	-11.2158	0.806825	0	
0.7047	-10.2986	0.201706	0	
0.7053	-4.50562	0.49306	0	
0.7060	1.8988	0.201706	0	
0.7067	0.386196	0.49306	0	
0.7073	-2.97693	0.806825	0	
0.7080	-1.1425	-0.717178	0	
0.7087	-1.1425	-1.63606	0	
0.7093	-8.15839	-0.425824	0	
0.7100	-14.2732	2.01706	0	
0.7107	-14.5789	2.93595	0	
0.7113	-12.133	2.01706	0	
0.7120	-8.46413	2.01706	0	
0.7127	-6.95153	3.24971	0	
0.7133	-8.15839	2.01706	0	
0.7140	-7.56301	-0.717178	0	
0.7147	-4.50562	-0.717178	0	
0.7153	-4.19988	-0.112059	0	
0.7160	-4.19988	1.09818	0	
0.7167	-0.836758	2.33083	0	
0.7173	2.51027	-0.112059	0	
0.7180	1.8988	-2.24118	0	
0.7187	1.59306	-0.717178	0	
0.7193	4.65044	-2.24118	0	
0.7200	8.31931	-6.20807	0	
0.7207	11.9721	-5.60295	0	
0.7213	13.195	-4.07895	0	
0.7220	13.8065	-4.39271	0	
0.7227	18.3765	-1.94983	0	
0.7233	23.2683	-0.425824	0	
0.7240	18.988	-2.24118	0	
0.7247	9.52617	-2.55495	0	
0.7253	7.40209	-3.47383	0	
0.7260	10.4434	-6.52183	0	
0.7267	10.1376	-5.91672	0	
0.7273	2.81601	-3.47383	0	
0.7280	-6.64579	-4.39271	0	
0.7287	-8.76987	-4.39271	0	
0.7293	-3.89414	-3.47383	0	
0.7300	-1.44824	-2.86871	0	
0.7307	0.386196	-2.55495	0	
0.7313	7.40209	-1.94983	0	
0.7320	9.23652	-0.717178	0	
0.7327	1.59306	2.01706	0	
0.7333	-2.05971	2.33083	0	
0.7340	3.12175	1.72571	0	
0.7347	2.20454	1.72571	0	
0.7353	-9.38135	1.72571	0	
0.7360	-18.2317	3.24971	0	
0.7367	-17.6202	6.29772	0	
0.7373	-14.5789	7.2166	0	
0.7380	-12.133	6.29772	0	
0.7387	-8.15839	6.58907	0	
0.7393	-5.1171	9.34572	0	
0.7400	-6.64579	10.2646	0	
0.7407	-13.3559	8.7406	0	
0.7413	-20.3718	7.50795	0	
0.7420	-20.6776	9.34572	0	
0.7427	-11.8273	8.7406	0	
0.7433	-0.53102	6.58907	0	
0.7440	8.01357	7.50795	0	
0.7447	14.1122	7.2166	0	
0.7453	17.7811	3.54106	0	
0.7460	17.7811	2.62218	0	
0.7467	20.2109	2.93595	0	
0.7473	24.1855	0.201706	0	
0.7480	26.02	-1.34471	0	
0.7487	27.5326	-1.63606	0	
0.7493	24.4913	-3.47383	0	
0.7500	10.7491	-4.68407	0	
0.7507	-2.36545	-3.47383	0	
0.7513	-5.72858	-3.47383	0	
0.7520	-9.99282	-2.24118	0	
0.7527	-17.3145	-0.425824	0	
0.7533	-16.4133	-1.03094	0	
0.7540	-8.46413	-1.94983	0	
0.7547	-7.25727	-0.717178	0	
0.7553	-13.6617	0.806825	0	
0.7560	-20.9833	3.85483	0	
0.7567	-26.1648	8.13548	0	
0.7573	-28.6107	7.50795	0	
0.7580	-27.3877	3.54106	0	
0.7587	-23.4292	3.85483	0	
0.7593	-19.1489	6.58907	0	
0.7600	-15.1904	7.2166	0	
0.7607	-10.91	8.13548	0	
0.7613	-9.07561	10.2646	0	
0.7620	-7.25727	11.1835	0	
0.7627	-1.44824	10.2646	0	
0.7633	2.81601	8.7406	0	
0.7640	0.675843	5.6926	0	
0.7647	-0.53102	3.24971	0	
0.7653	4.34471	2.62218	0	
0.7660	6.17914	2.93595	0	
0.7667	4.34471	3.85483	0	
0.7673	5.56766	4.16859	0	
0.7680	8.62505	3.85483	0	
0.7687	10.1376	5.37883	0	
0.7693	12.8893	5.06507	0	
0.7700	17.1696	1.09818	0	
0.7707	19.5995	-1.63606	0	
0.7713	21.1281	-2.86871	0	
0.7720	17.4754	-5.3116	0	
0.7727	8.93078	-6.52183	0	
0.7733	8.31931	-8.04584	0	
0.7740	13.195	-8.3596	0	
0.7747	4.95618	-1.63606	0	
0.7753	-12.7445	4.45995	0	
0.7760	-21.9005	1.72571	0	
0.7767	-27.082	0.201706	0	
0.7773	-32.5853	1.72571	0	
0.7780	-27.3877	-3.47383	0	
0.7787	-14.2732	-7.12695	0	
0.7793	-9.07561	-3.47383	0	
0.7800	-9.07561	-1.03094	0	
0.7807	-5.42284	-1.03094	0	
0.7813	-2.67119	1.09818	0	
0.7820	-1.75397	2.33083	0	
0.7827	0.981582	1.72571	0	
0.7833	2.51027	2.01706	0	
0.7840	1.8988	1.09818	0	
0.7847	2.51027	0.201706	0	
0.7853	2.81601	2.01706	0	
0.7860	3.73323	2.93595	0	
0.7867	4.95618	2.01706	0	
0.7873	1.28732	0.201706	0	
0.7880	-3.28267	-0.717178	0	
0.7887	-2.67119	-0.112059	0	
0.7893	-4.50562	-2.86871	0	
0.7900	-11.2158	-6.52183	0	
0.7907	-10.2986	-3.47383	0	
0.7913	-2.97693	1.72571	0	
0.7920	-0.53102	2.01706	0	
0.7927	0.0804575	0.201706	0	
0.7933	2.81601	-0.717178	0	
0.7940	1.28732	0.49306	0	
0.7947	-1.44824	1.09818	0	
0.7953	-0.836758	-2.55495	0	
0.7960	0.386196	-6.20807	0	
0.7967	4.03897	-6.52183	0	
0.7973	14.418	-5.60295	0	
0.7980	26.6314	-4.39271	0	
0.7987	33.9531	-4.07895	0	
0.7993	37.6058	-6.52183	0	
0.8000	38.5231	-7.12695	0	
0.8007	33.3416	-3.47383	0	
0.8013	25.4085	-0.717178	0	
0.8020	21.1281	-1.03094	0	
0.8027	23.5741	-2.55495	0	
0.8033	20.5167	-1.94983	0	
0.8040	0.675843	2.01706	0	
0.8047	-23.4292	2.01706	0	
0.8053	-29.2222	-2.55495	0	
0.8060	-22.512	-0.717178	0	
0.8067	-17.9259	3.24971	0	
0.8073	-11.8273	-0.717178	0	
0.8080	-6.95153	-3.47383	0	
0.8087	-8.46413	-0.717178	0	
0.8093	-9.07561	-0.717178	0	
0.8100	-7.56301	-1.63606	0	
0.8107	-9.68708	1.09818	0	
0.8113	-12.4387	1.09818	0	
0.8120	-14.2732	-0.717178	0	
0.8127	-17.3145	0.49306	0	
0.8133	-17.3145	0.806825	0	
0.8140	-13.0502	-0.112059	0	
0.8147	-10.91	1.09818	0	
0.8153	-10.2986	2.01706	0	
0.8160	-10.2986	1.72571	0	
0.8167	-11.8273	2.01706	0	
0.8173	-12.7445	2.33083	0	
0.8180	-10.91	1.09818	0	
0.8187	-5.42284	-0.717178	0	
0.8193	3.12175	-2.24118	0	
0.8200	6.48488	0.806825	0	
0.8207	1.28732	5.98395	0	
0.8213	-1.75397	6.58907	0	
0.8220	1.8988	4.77371	0	
0.8227	4.03897	4.16859	0	
0.8233	2.20454	3.85483	0	
0.8240	2.51027	1.72571	0	
0.8247	2.81601	1.09818	0	
0.8253	-5.42284	3.85483	0	
0.8260	-17.9259	7.50795	0	
0.8267	-22.8178	8.13548	0	
0.8273	-19.1489	5.06507	0	
0.8280	-14.5789	2.93595	0	
0.8287	-8.15839	-0.425824	0	
0.8293	-2.36545	-4.99783	0	
0.8300	-5.42284	-3.47383	0	
0.8307	-10.6043	0.49306	0	
0.8313	-6.64579	-1.94983	0	
0.8320	-2.67119	-7.12695	0	
0.8327	-3.89414	-5.91672	0	
0.8333	-5.1171	-2.55495	0	
0.8340	-2.67119	-0.717178	0	
0.8347	2.81601	-0.112059	0	
0.8353	7.70783	-0.717178	0	
0.8360	5.8734	-1.34471	0	
0.8367	1.8988	-2.24118	0	
0.8373	0.0804575	-2.86871	0	
0.8380	-4.81136	0.201706	0	
0.8387	-8.76987	3.54106	0	
0.8393	-3.89414	2.01706	0	
0.8400	3.12175	-0.717178	0	
0.8407	8.93078	-1.63606	0	
0.8413	13.5008	-1.94983	0	
0.8420	9.83191	0.201706	0	
0.8427	2.81601	3.24971	0	
0.8433	2.81601	1.72571	0	
0.8440	3.73323	1.09818	0	
0.8447	0.981582	3.85483	0	
0.8453	1.28732	3.24971	0	
0.8460	4.03897	1.09818	0	
0.8467	3.73323	2.62218	0	
0.8473	3.12175	3.54106	0	
0.8480	6.48488	2.62218	0	
0.8487	8.31931	1.72571	0	
0.8493	5.8734	0.201706	0	
0.8500	4.95618	0.201706	0	
0.8507	8.93078	2.01706	0	
0.8513	8.93078	-0.112059	0	
0.8520	5.26192	-2.55495	0	
0.8527	9.23652	-1.03094	0	
0.8533	16.8639	0.49306	0	
0.8540	16.2524	0.806825	0	
0.8547	14.1122	1.09818	0	
0.8553	14.418	1.41194	0	
0.8560	10.4434	2.33083	0	
0.8567	3.73323	3.54106	0	
0.8573	-0.53102	2.93595	0	
0.8580	0.0804575	2.93595	0	
0.8587	2.81601	4.16859	0	
0.8593	-0.225281	2.01706	0	
0.8600	-9.99282	0.201706	0	
0.8607	-15.4961	2.62218	0	
0.8613	-13.6617	6.58907	0	
0.8620	-13.9674	8.42684	0	
0.8627	-16.4133	7.2166	0	
0.8633	-14.5789	4.77371	0	
0.8640	-8.46413	4.16859	0	
0.8647	-4.81136	5.6926	0	
0.8653	-6.95153	4.77371	0	
0.8660	-7.86875	1.09818	0	
0.8667	-3.89414	0.201706	0	
0.8673	-2.67119	2.01706	0	
0.8680	-5.42284	1.41194	0	
0.8687	-2.05971	-1.63606	0	
0.8693	6.79061	-1.34471	0	
0.8700	11.0549	2.33083	0	
0.8707	11.3606	4.16859	0	
0.8713	11.0549	3.85483	0	
0.8720	8.01357	3.85483	0	
0.8727	1.8988	3.85483	0	
0.8733	-2.36545	5.37883	0	
0.8740	-6.03431	6.58907	0	
0.8747	-9.99282	4.77371	0	
0.8753	-8.46413	3.24971	0	
0.8760	-3.58841	3.85483	0	
0.8767	-3.28267	3.24971	0	
0.8773	-4.81136	3.54106	0	
0.8780	-4.50562	5.37883	0	
0.8787	-7.25727	5.06507	0	
0.8793	-13.6617	3.54106	0	
0.8800	-16.7191	2.93595	0	
0.8807	-14.5789	0.201706	0	
0.8813	-11.8273	-0.717178	0	
0.8820	-9.38135	1.09818	0	
0.8827	-4.81136	-1.03094	0	
0.8833	3.73323	-6.20807	0	
0.8840	9.83191	-6.52183	0	
0.8847	10.4434	-5.60295	0	
0.8853	9.83191	-7.75448	0	
0.8860	10.1376	-7.12695	0	
0.8867	9.23652	-4.39271	0	
0.8873	11.0549	-5.3116	0	
0.8880	14.7237	-7.75448	0	
0.8887	9.23652	-5.91672	0	
0.8893	1.8988	-2.55495	0	
0.8900	6.48488	-2.55495	0	
0.8907	11.0549	-2.55495	0	
0.8913	2.20454	0.806825	0	
0.8920	-6.64579	4.77371	0	
0.8927	-5.1171	5.98395	0	
0.8933	-1.1425	5.06507	0	
0.8940	1.8988	4.77371	0	
0.8947	7.09635	6.58907	0	
0.8953	9.52617	7.50795	0	
0.8960	6.79061	4.77371	0	
0.8967	4.65044	2.93595	0	
0.8973	3.73323	3.85483	0	
0.8980	-0.836758	4.77371	0	
0.8987	-11.8273	4.45995	0	
0.8993	-22.2063	2.33083	0	
0.9000	-23.735	0.201706	0	
0.9007	-14.2732	2.93595	0	
0.9013	-5.42284	5.6926	0	
0.9020	-4.50562	3.85483	0	
0.9027	-4.50562	1.41194	0	
0.9033	-1.1425	1.09818	0	
0.9040	0.675843	-0.717178	0	
0.9047	2.81601	-1.03094	0	
0.9053	4.03897	-0.112059	0	
0.9060	-2.97693	-1.03094	0	
0.9067	-10.91	-1.03094	0	
0.9073	-7.56301	-0.112059	0	
0.9080	-0.53102	-3.78759	0	
0.9087	4.34471	-7.12695	0	
0.9093	8.31931	-3.47383	0	
0.9100	6.48488	0.49306	0	
0.9107	1.59306	-0.717178	0	
0.9113	2.81601	-0.425824	0	
0.9120	4.03897	2.62218	0	
0.9127	0.675843	2.62218	0	
0.9133	-1.44824	2.01706	0	
0.9140	-2.67119	2.01706	0	
0.9147	-6.64579	1.09818	0	
0.9153	-7.86875	1.41194	0	
0.9160	-6.34005	2.93595	0	
0.9167	-6.95153	2.33083	0	
0.9173	-6.34005	1.09818	0	
0.9180	-3.89414	2.33083	0	
0.9187	-3.58841	2.93595	0	
0.9193	-3.28267	2.93595	0	
0.9200	-1.44824	3.85483	0	
0.9207	-3.28267	2.93595	0	
0.9213	-4.50562	1.09818	0	
0.9220	0.981582	2.33083	0	
0.9227	5.26192	3.54106	0	
0.9233	5.26192	1.72571	0	
0.9240	5.8734	0.201706	0	
0.9247	4.65044	-0.112059	0	
0.9253	3.12175	-1.63606	0	
0.9260	8.31931	-1.94983	0	
0.9267	11.0549	-2.24118	0	
0.9273	6.79061	-3.78759	0	
0.9280	7.40209	-4.39271	0	
0.9287	13.8065	-2.24118	0	
0.9293	14.418	-1.34471	0	
0.9300	7.70783	-0.112059	0	
0.9307	-0.836758	2.93595	0	
0.9313	-6.34005	2.93595	0	
0.9320	-2.67119	-0.112059	0	
0.9327	6.48488	0.201706	0	
0.9333	11.9721	4.77371	0	
0.9340	11.9721	7.50795	0	
0.9347	3.73323	8.13548	0	
0.9353	-12.7445	8.13548	0	
0.9360	-25.5533	8.13548	0	
0.9367	-30.4451	7.50795	0	
0.9373	-27.6935	5.6926	0	
0.9380	-14.8846	3.85483	0	
0.9387	-1.1425	2.01706	0	
0.9393	-0.836758	0.201706	0	
0.9400	-9.07561	0.201706	0	
0.9407	-10.6043	1.72571	0	
0.9413	-6.34005	2.01706	0	
0.9420	-7.25727	2.01706	0	
0.9427	-13.9674	5.06507	0	
0.9433	-18.8432	7.82172	0	
0.9440	-16.4133	7.2166	0	
0.9447	-11.8273	6.90283	0	
0.9453	-9.38135	7.2166	0	
0.9460	-5.42284	3.54106	0	
0.9467	-2.97693	0.806825	0	
0.9473	-4.81136	3.85483	0	
0.9480	-4.19988	5.6926	0	
0.9487	-0.225281	2.93595	0	
0.9493	-4.50562	2.01706	0	
0.9500	-15.4961	2.93595	0	
0.9507	-20.0661	2.93595	0	
0.9513	-15.4961	1.41194	0	
0.9520	-8.15839	-0.112059	0	
0.9527	-3.58841	0.201706	0	
0.9533	-3.89414	1.72571	0	
0.9540	-2.67119	0.201706	0	
0.9547	0.981582	-0.717178	0	
0.9553	3.12175	2.01706	0	
0.9560	4.03897	2.93595	0	
0.9567	4.34471	0.806825	0	
0.9573	1.59306	0.806825	0	
0.9580	0.981582	2.01706	0	
0.9587	5.26192	2.62218	0	
0.9593	8.93078	4.77371	0	
0.9600	13.195	5.6926	0	
0.9607	16.5582	3.85483	0	
0.9613	14.1122	2.93595	0	
0.9620	12.8893	2.93595	0	
0.9627	16.2524	1.09818	0	
0.9633	13.195	-1.34471	0	
0.9640	10.1376	-1.03094	0	
0.9647	12.8893	0.49306	0	
0.9653	8.01357	0.49306	0	
0.9660	-6.64579	1.09818	0	
0.9667	-9.07561	5.06507	0	
0.9673	0.981582	5.06507	0	
0.9680	7.40209	-1.63606	0	
0.9687	8.31931	-2.86871	0	
0.9693	10.4434	1.72571	0	
0.9700	16.5582	1.09818	0	
0.9707	18.6822	-1.63606	0	
0.9713	8.62505	-2.86871	0	
0.9720	-2.67119	-4.99783	0	
0.9727	-0.836758	-4.99783	0	
0.9733	1.28732	-2.55495	0	
0.9740	-6.64579	-3.47383	0	
0.9747	-11.5215	-5.3116	0	
0.9753	-5.42284	-2.24118	0	
0.9760	0.675843	-0.717178	0	
0.9767	3.42749	-4.07895	0	
0.9773	10.4434	-6.8356	0	
0.9780	14.1122	-6.20807	0	
0.9787	1.8988	-1.63606	0	
0.9793	-12.7445	1.09818	0	
0.9800	-10.6043	-1.63606	0	
0.9807	-3.89414	-3.16006	0	
0.9813	-8.15839	1.09818	0	
0.9820	-13.9674	2.93595	0	
0.9827	-16.4133	0.201706	0	
0.9833	-23.735	1.09818	0	
0.9840	-29.2222	3.24971	0	
0.9847	-24.3464	1.09818	0	
0.9853	-17.3145	-2.55495	0	
0.9860	-14.5789	-2.55495	0	
0.9867	-14.5789	-1.94983	0	
0.9873	-16.4133	-1.94983	0	
0.9880	-15.4961	0.806825	0	
0.9887	-9.99282	2.01706	0	
0.9893	-7.56301	-1.34471	0	
0.9900	-10.91	-2.24118	0	
0.9907	-11.8273	1.72571	0	
0.9913	-8.76987	2.01706	0	
0.9920	-6.64579	-0.425824	0	
0.9927	-7.25727	0.806825	0	
0.9933	-10.91	4.77371	0	
0.9940	-11.8273	8.42684	0	
0.9947	-8.46413	9.03196	0	
0.9953	-6.95153	6.29772	0	
0.9960	-6.64579	5.06507	0	
0.9967	-2.97693	5.6926	0	
0.9973	1.28732	2.62218	0	
0.9980	3.73323	-0.717178	0	
0.9987	8.31931	0.201706	0	
0.9993	11.3606	2.01706	0	
1.0000	8.62505	1.72571	0	
1.0007	3.12175	2.01706	0	
1.0013	2.81601	2.01706	0	
1.0020	10.1376	1.09818	0	
1.0027	17.7811	0.806825	0	
1.0033	21.7396	-0.717178	0	
1.0040	23.5741	-1.94983	0	
1.0047	22.0454	-1.63606	0	
1.0053	18.3765	-2.86871	0	
1.0060	21.4339	-4.39271	0	
1.0067	29.367	-5.60295	0	
1.0073	33.0359	-7.12695	0	
1.0080	36.3829	-8.65096	0	
1.0087	35.4818	-8.65096	0	
1.0093	22.9626	-5.91672	0	
1.0100	9.23652	-2.24118	0	
1.0107	0.981582	-1.03094	0	
1.0113	-11.2158	-1.34471	0	
1.0120	-23.735	1.09818	0	
1.0127	-26.4705	2.62218	0	
1.0133	-23.1235	2.33083	0	
1.0140	-20.3718	2.93595	0	
1.0147	-17.0087	5.06507	0	
1.0153	-13.3559	5.6926	0	
1.0160	-11.8273	6.29772	0	
1.0167	-12.4387	5.98395	0	
1.0173	-11.8273	5.6926	0	
1.0180	-7.86875	6.90283	0	
1.0187	-5.1171	7.50795	0	
1.0193	-6.95153	5.98395	0	
1.0200	-7.56301	6.29772	0	
1.0207	-6.34005	7.82172	0	
1.0213	-6.34005	5.98395	0	
1.0220	-5.42284	2.93595	0	
1.0227	0.0804575	2.33083	0	
1.0233	5.56766	2.62218	0	
1.0240	4.95618	2.01706	0	
1.0247	1.8988	2.01706	0	
1.0253	5.8734	2.62218	0	
1.0260	15.9467	1.09818	0	
1.0267	19.2937	2.01706	0	
1.0273	11.0549	3.54106	0	
1.0280	4.03897	1.41194	0	
1.0287	1.8988	-0.112059	0	
1.0293	-0.836758	1.09818	0	
1.0300	0.0804575	-1.63606	0	
1.0307	4.03897	-5.3116	0	
1.0313	0.0804575	-3.78759	0	
1.0320	-8.46413	-1.03094	0	
1.0327	-6.34005	-1.94983	0	
1.0333	-0.225281	-3.78759	0	
1.0340	-3.28267	-4.07895	0	
1.0347	-9.99282	-1.63606	0	
1.0353	-11.2158	1.72571	0	
1.0360	-11.2158	2.93595	0	
1.0367	-14.2732	2.33083	0	
1.0373	-16.1076	1.09818	0	
1.0380	-14.2732	-0.425824	0	
1.0387	-10.91	-0.425824	0	
1.0393	-6.64579	0.806825	0	
1.0400	-2.67119	0.201706	0	
1.0407	-0.836758	-1.94983	0	
1.0413	0.0804575	-4.39271	0	
1.0420	2.81601	-3.78759	0	
1.0427	4.65044	-1.63606	0	
1.0433	5.56766	-2.55495	0	
1.0440	6.48488	-3.47383	0	
1.0447	9.83191	-1.03094	0	
1.0453	13.195	-1.03094	0	
1.0460	15.6409	-4.07895	0	
1.0467	15.9467	-1.63606	0	
1.0473	14.7237	4.45995	0	
1.0480	16.2524	4.16859	0	
1.0487	21.4339	-1.03094	0	
1.0493	23.8798	-3.47383	0	
1.0500	17.4754	-1.63606	0	
1.0507	12.2778	-1.94983	0	
1.0513	18.3765	-4.99783	0	
1.0520	25.7142	-6.20807	0	
1.0527	19.2937	-6.20807	0	
1.0533	5.26192	-7.44072	0	
1.0540	-3.58841	-6.8356	0	
1.0547	-7.86875	-2.86871	0	
1.0553	-14.5789	0.201706	0	
1.0560	-19.1489	1.41194	0	
1.0567	-14.2732	2.01706	0	
1.0573	-13.0502	2.01706	0	
1.0580	-32.5853	4.77371	0	
1.0587	-51.5089	9.34572	0	
1.0593	-43.254	8.42684	0	
1.0600	-20.9833	5.37883	0	
1.0607	-12.7445	6.58907	0	
1.0613	-18.5374	8.42684	0	
1.0620	-22.512	6.90283	0	
1.0627	-19.4546	5.98395	0	
1.0633	-17.3145	7.2166	0	
1.0640	-16.4133	6.58907	0	
1.0647	-10.6043	4.16859	0	
1.0653	-6.34005	1.41194	0	
1.0660	-12.7445	-1.34471	0	
1.0667	-17.9259	-3.16006	0	
1.0673	-11.2158	-2.86871	0	
1.0680	-1.44824	-4.39271	0	
1.0687	8.01357	-8.04584	0	
1.0693	17.1696	-8.04584	0	
1.0700	18.3765	-5.60295	0	
1.0707	11.0549	-4.39271	0	
1.0713	6.79061	-1.03094	0	
1.0720	6.17914	0.201706	0	
1.0727	3.12175	-4.68407	0	
1.0733	-1.75397	-5.91672	0	
1.0740	-7.56301	1.09818	0	
1.0747	-12.133	4.77371	0	
1.0753	-10.91	3.24971	0	
1.0760	-6.03431	2.33083	0	
1.0767	-4.50562	2.93595	0	
1.0773	-5.42284	5.6926	0	
1.0780	-4.50562	9.34572	0	
1.0787	-2.67119	7.82172	0	
1.0793	-1.1425	6.29772	0	
1.0800	2.81601	8.7406	0	
1.0807	6.48488	7.2166	0	
1.0813	1.8988	2.01706	0	
1.0820	-6.34005	2.62218	0	
1.0827	-8.15839	4.77371	0	
1.0833	-4.50562	2.93595	0	
1.0840	-0.836758	1.09818	0	
1.0847	3.42749	2.01706	0	
1.0853	9.23652	1.72571	0	
1.0860	14.1122	-2.55495	0	
1.0867	12.8893	-6.8356	0	
1.0873	8.31931	-5.91672	0	
1.0880	7.40209	-3.16006	0	
1.0887	9.52617	-3.16006	0	
1.0893	9.23652	-3.16006	0	
1.0900	5.8734	-0.717178	0	
1.0907	2.51027	2.33083	0	
1.0913	-0.836758	3.85483	0	
1.0920	-5.72858	4.77371	0	
1.0927	-10.91	6.29772	0	
1.0933	-13.3559	7.50795	0	
1.0940	-14.5789	6.58907	0	
1.0947	-14.5789	4.16859	0	
1.0953	-12.7445	3.85483	0	
1.0960	-8.46413	4.77371	0	
1.0967	-1.44824	3.24971	0	
1.0973	8.31931	-0.112059	0	
1.0980	21.1281	-1.63606	0	
1.0987	30.8957	-1.63606	0	
1.0993	33.9531	-2.24118	0	
1.1000	35.7714	-4.39271	0	
1.1007	35.4818	-5.91672	0	
1.1013	26.9211	-4.07895	0	
1.1020	12.2778	-1.03094	0	
1.1027	-1.75397	-0.717178	0	
1.1033	-14.8846	-0.717178	0	
1.1040	-23.4292	-0.112059	0	
1.1047	-24.0407	0.201706	0	
1.1053	-22.8178	0.201706	0	
1.1060	-21.2891	-1.34471	0	
1.1067	-15.1904	-4.39271	0	
1.1073	-8.46413	-4.68407	0	
1.1080	-7.25727	-2.55495	0	
1.1087	-12.133	-2.86871	0	
1.1093	-22.2063	-4.07895	0	
1.1100	-25.5533	-2.55495	0	
1.1107	-14.5789	-2.24118	0	
1.1113	-6.64579	-4.39271	0	
1.1120	-15.1904	-4.68407	0	
1.1127	-21.9005	-1.63606	0	
1.1133	-15.8019	-0.717178	0	
1.1140	-8.46413	-4.39271	0	
1.1147	-7.56301	-7.12695	0	
1.1153	-9.07561	-3.47383	0	
1.1160	-8.15839	0.201706	0	
1.1167	-6.34005	-1.94983	0	
1.1173	-6.64579	-2.55495	0	
1.1180	-7.25727	-0.717178	0	
1.1187	0.0804575	-1.03094	0	
1.1193	7.09635	0.49306	0	
1.1200	4.65044	5.37883	0	
1.1207	1.59306	6.29772	0	
1.1213	5.8734	5.06507	0	
1.1220	10.7491	5.6926	0	
1.1227	11.6663	4.45995	0	
1.1233	11.9721	2.62218	0	
1.1240	13.8065	4.16859	0	
1.1247	14.7237	5.37883	0	
1.1253	10.7491	2.62218	0	
1.1260	2.81601	0.201706	0	
1.1267	-4.50562	1.09818	0	
1.1273	-7.56301	2.93595	0	
1.1280	-6.03431	2.93595	0	
1.1287	-2.05971	3.24971	0	
1.1293	0.0804575	5.37883	0	
1.1300	0.981582	5.37883	0	
1.1307	2.51027	2.93595	0	
1.1313	3.73323	1.72571	0	
1.1320	1.8988	2.93595	0	
1.1327	-0.836758	5.6926	0	
1.1333	0.981582	5.6926	0	
1.1340	3.12175	3.85483	0	
1.1347	2.20454	5.06507	0	
1.1353	-2.97693	8.42684	0	
1.1360	-8.76987	8.42684	0	
1.1367	-9.07561	7.2166	0	
1.1373	-5.1171	5.6926	0	
1.1380	-2.67119	3.85483	0	
1.1387	-0.836758	2.93595	0	
1.1393	3.73323	4.16859	0	
1.1400	8.01357	5.6926	0	
1.1407	11.0549	5.98395	0	
1.1413	16.2524	5.6926	0	
1.1420	18.0868	5.37883	0	
1.1427	13.5008	4.45995	0	
1.1433	7.09635	3.24971	0	
1.1440	0.981582	2.93595	0	
1.1447	-2.36545	2.01706	0	
1.1453	2.51027	-0.717178	0	
1.1460	6.79061	-0.112059	0	
1.1467	3.73323	2.33083	0	
1.1473	5.56766	0.49306	0	
1.1480	17.4754	-3.47383	0	
1.1487	24.4913	-4.07895	0	
1.1493	18.988	-3.47383	0	
1.1500	7.40209	-2.55495	0	
1.1507	-4.50562	1.09818	0	
1.1513	-9.68708	4.16859	0	
1.1520	-7.25727	3.24971	0	
1.1527	-7.25727	2.01706	0	
1.1533	-14.2732	2.33083	0	
1.1540	-24.6522	4.16859	0	
1.1547	-32.891	6.58907	0	
1.1553	-33.8082	6.58907	0	
1.1560	-29.2222	4.77371	0	
1.1567	-25.5533	4.77371	0	
1.1573	-22.8178	6.58907	0	
1.1580	-20.3718	7.50795	0	
1.1587	-18.2317	8.42684	0	
1.1593	-12.4387	8.13548	0	
1.1600	-6.34005	4.16859	0	
1.1607	-4.19988	1.41194	0	
1.1613	0.0804575	2.93595	0	
1.1620	7.40209	3.24971	0	
1.1627	10.1376	1.09818	0	
1.1633	11.6663	1.41194	0	
1.1640	14.418	1.09818	0	
1.1647	15.0295	-1.63606	0	
1.1653	17.1696	-2.55495	0	
1.1660	20.2109	-2.55495	0	
1.1667	18.3765	-3.47383	0	
1.1673	18.3765	-4.39271	0	
1.1680	24.797	-6.20807	0	
1.1687	26.3257	-8.04584	0	
1.1693	25.4085	-6.20807	0	
1.1700	22.3511	-3.47383	0	
1.1707	5.56766	-1.94983	0	
1.1713	-9.38135	-1.03094	0	
1.1720	-2.05971	-0.717178	0	
1.1727	1.8988	1.41194	0	
1.1733	-12.4387	5.6926	0	
1.1740	-18.2317	6.90283	0	
1.1747	-6.03431	4.16859	0	
1.1753	3.73323	1.41194	0	
1.1760	3.73323	-0.425824	0	
1.1767	-0.225281	-3.16006	0	
1.1773	-2.67119	-5.60295	0	
1.1780	0.0804575	-4.39271	0	
1.1787	1.8988	-1.63606	0	
1.1793	-1.75397	-3.47383	0	
1.1800	-2.67119	-6.20807	0	
1.1807	-0.836758	-3.47383	0	
1.1813	-0.836758	-0.717178	0	
1.1820	-2.97693	-1.03094	0	
1.1827	-4.50562	0.49306	0	
1.1833	-5.1171	2.62218	0	
1.1840	-2.67119	2.01706	0	
1.1847	-1.75397	2.62218	0	
1.1853	-6.34005	2.62218	0	
1.1860	-9.68708	-0.717178	0	
1.1867	-3.89414	-1.94983	0	
1.1873	0.675843	0.201706	0	
1.1880	0.0804575	0.201706	0	
1.1887	2.51027	-1.03094	0	
1.1893	6.48488	0.201706	0	
1.1900	3.42749	2.33083	0	
1.1907	-2.67119	2.93595	0	
1.1913	-2.67119	2.01706	0	
1.1920	0.0804575	2.01706	0	
1.1927	0.675843	5.06507	0	
1.1933	-3.89414	7.2166	0	
1.1940	-9.07561	6.58907	0	
1.1947	-9.99282	6.58907	0	
1.1953	-9.38135	5.98395	0	
1.1960	-12.4387	2.93595	0	
1.1967	-13.9674	2.01706	0	
1.1973	-9.99282	4.77371	0	
1.1980	-6.34005	4.77371	0	
1.1987	-7.25727	4.45995	0	
1.1993	-8.15839	5.06507	0	
1.2000	-4.19988	4.16859	0	
1.2007	-0.836758	2.62218	0	
1.2013	-2.05971	2.33083	0	
1.2020	-0.836758	1.72571	0	
1.2027	4.65044	1.41194	0	
1.2033	7.09635	1.09818	0	
1.2040	6.79061	-2.24118	0	
1.2047	5.26192	-4.39271	0	
1.2053	-0.836758	-2.55495	0	
1.2060	-4.50562	-2.24118	0	
1.2067	-1.75397	-5.60295	0	
1.2073	-0.53102	-7.12695	0	
1.2080	-2.36545	-6.20807	0	
1.2087	-2.36545	-4.68407	0	
1.2093	-1.75397	-1.94983	0	
1.2100	-0.836758	0.201706	0	
1.2107	0.0804575	1.72571	0	
1.2113	-2.05971	2.62218	0	
1.2120	-1.75397	0.49306	0	
1.2127	5.56766	-0.717178	0	
1.2133	9.83191	2.93595	0	
1.2140	9.23652	5.06507	0	
1.2147	6.79061	2.62218	0	
1.2153	-2.36545	3.24971	0	
1.2160	-14.2732	7.50795	0	
1.2167	-20.6776	7.50795	0	
1.2173	-23.735	6.29772	0	
1.2180	-24.3464	7.50795	0	
1.2187	-22.8178	7.50795	0	
1.2193	-27.3877	7.82172	0	
1.2200	-31.9738	9.34572	0	
1.2207	-18.8432	6.29772	0	
1.2213	1.8988	2.93595	0	
1.2220	6.48488	6.58907	0	
1.2227	-2.05971	7.2166	0	
1.2233	-6.95153	2.62218	0	
1.2240	-6.95153	0.806825	0	
1.2247	-5.72858	-0.425824	0	
1.2253	-2.67119	-4.07895	0	
1.2260	1.28732	-4.39271	0	
1.2267	1.59306	-2.86871	0	
1.2273	-3.28267	-2.55495	0	
1.2280	-7.86875	-1.63606	0	
1.2287	-4.50562	-1.34471	0	
1.2293	3.73323	-4.39271	0	
1.2300	6.17914	-6.20807	0	
1.2307	1.8988	-4.39271	0	
1.2313	-1.75397	-3.16006	0	
1.2320	-3.89414	-3.16006	0	
1.2327	-3.89414	-2.55495	0	
1.2333	-2.05971	-1.03094	0	
1.2340	-2.36545	-0.717178	0	
1.2347	-3.89414	0.201706	0	
1.2353	-1.75397	2.01706	0	
1.2360	2.20454	2.01706	0	
1.2367	3.73323	1.09818	0	
1.2373	2.81601	2.33083	0	
1.2380	5.26192	3.85483	0	
1.2387	11.0549	4.77371	0	
1.2393	11.6663	4.16859	0	
1.2400	5.26192	2.33083	0	
1.2407	3.12175	2.93595	0	
1.2413	9.52617	6.58907	0	
1.2420	13.8065	5.06507	0	
1.2427	12.8893	0.201706	0	
1.2433	12.8893	0.201706	0	
1.2440	13.8065	1.72571	0	
1.2447	14.418	-0.112059	0	
1.2453	15.9467	-1.94983	0	
1.2460	13.8065	-4.07895	0	
1.2467	8.01357	-8.04584	0	
1.2473	8.31931	-9.56984	0	
1.2480	9.23652	-7.44072	0	
1.2487	-0.225281	-5.60295	0	
1.2493	-12.7445	-5.91672	0	
1.2500	-13.6617	-8.04584	0	
1.2507	-11.8273	-7.44072	0	
1.2513	-14.2732	-4.39271	0	
1.2520	-13.3559	-4.07895	0	
1.2527	-8.15839	-5.60295	0	
1.2533	-6.34005	-4.99783	0	
1.2540	-7.25727	-3.78759	0	
1.2547	-5.42284	-3.47383	0	
1.2553	-4.19988	-1.94983	0	
1.2560	-5.1171	-1.63606	0	
1.2567	-5.72858	-2.55495	0	
1.2573	-5.1171	-0.112059	0	
1.2580	-6.34005	3.54106	0	
1.2587	-9.68708	5.6926	0	
1.2593	-10.91	6.29772	0	
1.2600	-6.34005	6.90283	0	
1.2607	2.51027	7.2166	0	
1.2613	8.62505	7.2166	0	
1.2620	10.1376	6.90283	0	
1.2627	12.5836	3.54106	0	
1.2633	16.5582	-1.03094	0	
1.2640	16.2524	-1.63606	0	
1.2647	12.8893	0.201706	0	
1.2653	10.1376	-0.717178	0	
1.2660	7.09635	-2.24118	0	
1.2667	4.95618	-1.34471	0	
1.2673	6.79061	-0.717178	0	
1.2680	2.20454	-0.717178	0	
1.2687	-9.07561	0.201706	0	
1.2693	-12.133	1.72571	0	
1.2700	-8.15839	2.62218	0	
1.2707	-6.95153	2.62218	0	
1.2713	-6.95153	2.01706	0	
1.2720	-8.15839	3.24971	0	
1.2727	-10.91	3.85483	0	
1.2733	-4.50562	1.72571	0	
1.2740	8.31931	-0.112059	0	
1.2747	14.7237	0.201706	0	
1.2753	14.7237	0.201706	0	
1.2760	15.6409	0.806825	0	
1.2767	16.2524	2.01706	0	
1.2773	17.4754	3.24971	0	
1.2780	16.8639	3.85483	0	
1.2787	11.0549	4.77371	0	
1.2793	5.56766	5.06507	0	
1.2800	-2.67119	4.77371	0	
1.2807	-20.0661	7.50795	0	
1.2813	-33.5025	9.65949	0	
1.2820	-34.7094	7.50795	0	
1.2827	-38.3782	7.50795	0	
1.2833	-41.7414	10.556	0	
1.2840	-28.305	7.50795	0	
1.2847	-9.68708	1.72571	0	
1.2853	-2.67119	-0.717178	0	
1.2860	-1.1425	-1.34471	0	
1.2867	0.981582	1.09818	0	
1.2873	-0.225281	4.77371	0	
1.2880	1.59306	2.01706	0	
1.2887	11.3606	-2.55495	0	
1.2893	16.5582	0.201706	0	
1.2900	9.23652	4.16859	0	
1.2907	4.34471	4.45995	0	
1.2913	8.62505	2.62218	0	
1.2920	8.93078	1.09818	0	
1.2927	-1.75397	1.09818	0	
1.2933	-13.6617	1.09818	0	
1.2940	-20.3718	-2.55495	0	
1.2947	-22.8178	-4.39271	0	
1.2953	-19.7604	-0.717178	0	
1.2960	-16.4133	1.09818	0	
1.2967	-16.1076	-0.425824	0	
1.2973	-14.2732	-1.03094	0	
1.2980	-9.99282	-0.717178	0	
1.2987	-7.86875	-0.425824	0	
1.2993	-7.25727	-1.03094	0	
1.3000	-5.72858	-3.47383	0	
1.3007	-3.58841	-4.99783	0	
1.3013	-1.75397	-2.55495	0	
1.3020	-0.53102	0.49306	0	
1.3027	-0.53102	0.201706	0	
1.3033	0.0804575	-2.86871	0	
1.3040	2.20454	-2.55495	0	
1.3047	2.51027	1.41194	0	
1.3053	0.0804575	2.01706	0	
1.3060	1.28732	1.09818	0	
1.3067	5.26192	3.54106	0	
1.3073	5.56766	2.62218	0	
1.3080	4.95618	-1.63606	0	
1.3087	7.70783	-2.55495	0	
1.3093	10.1376	-3.47383	0	
1.3100	11.6663	-4.39271	0	
1.3107	12.8893	-2.55495	0	
1.3113	11.0549	-1.63606	0	
1.3120	7.09635	-4.99783	0	
1.3127	5.8734	-4.39271	0	
1.3133	6.48488	-0.717178	0	
1.3140	3.73323	0.201706	0	
1.3147	-1.1425	2.01706	0	
1.3153	-2.67119	5.98395	0	
1.3160	-0.225281	5.6926	0	
1.3167	-1.75397	2.93595	0	
1.3173	-7.56301	4.45995	0	
1.3180	-8.46413	5.6926	0	
1.3187	-4.19988	2.62218	0	
1.3193	1.28732	1.09818	0	
1.3200	5.26192	2.01706	0	
1.3207	4.65044	2.62218	0	
1.3213	2.81601	2.33083	0	
1.3220	5.26192	2.33083	0	
1.3227	8.31931	2.33083	0	
1.3233	12.5836	2.93595	0	
1.3240	18.0868	3.85483	0	
1.3247	16.2524	3.85483	0	
1.3253	8.31931	2.93595	0	
1.3260	2.81601	2.01706	0	
1.3267	-1.75397	1.09818	0	
1.3273	-4.81136	0.49306	0	
1.3280	0.675843	-0.425824	0	
1.3287	6.48488	-1.94983	0	
1.3293	6.17914	-4.39271	0	
1.3300	5.56766	-5.60295	0	
1.3307	7.40209	-1.94983	0	
1.3313	6.79061	0.49306	0	
1.3320	0.0804575	-1.94983	0	
1.3327	-11.8273	-1.63606	0	
1.3333	-23.735	2.01706	0	
1.3340	-30.1394	1.09818	0	
1.3347	-30.7509	0.201706	0	
1.3353	-23.4292	4.45995	0	
1.3360	-11.2158	6.58907	0	
1.3367	-4.50562	3.85483	0	
1.3373	-3.58841	2.93595	0	
1.3380	-1.44824	3.85483	0	
1.3387	2.20454	3.85483	0	
1.3393	5.56766	2.93595	0	
1.3400	9.52617	1.09818	0	
1.3407	11.6663	1.09818	0	
1.3413	13.195	0.201706	0	
1.3420	16.5582	-1.63606	0	
1.3427	14.418	-1.63606	0	
1.3433	4.65044	-0.112059	0	
1.3440	-1.44824	-0.717178	0	
1.3447	-1.1425	-0.717178	0	
1.3453	-3.28267	-1.63606	0	
1.3460	-5.72858	-4.39271	0	
1.3467	-6.03431	-3.47383	0	
1.3473	-6.64579	0.201706	0	
1.3480	-6.34005	2.01706	0	
1.3487	-2.67119	0.201706	0	
1.3493	-0.53102	-3.16006	0	
1.3500	-1.1425	-4.07895	0	
1.3507	-3.58841	-1.63606	0	
1.3513	-8.76987	-0.112059	0	
1.3520	-11.2158	-1.34471	0	
1.3527	-6.95153	-1.94983	0	
1.3533	-0.836758	-2.24118	0	
1.3540	1.59306	-1.63606	0	
1.3547	0.981582	1.09818	0	
1.3553	-0.836758	2.93595	0	
1.3560	-2.05971	1.41194	0	
1.3567	-2.67119	0.201706	0	
1.3573	-1.75397	1.41194	0	
1.3580	-0.53102	2.62218	0	
1.3587	-2.67119	4.16859	0	
1.3593	-4.81136	4.45995	0	
1.3600	-2.67119	2.93595	0	
1.3607	-1.1425	2.01706	0	
1.3613	-0.836758	1.72571	0	
1.3620	3.73323	-0.425824	0	
1.3627	7.70783	-2.55495	0	
1.3633	7.09635	-3.47383	0	
1.3640	10.1376	-3.78759	0	
1.3647	14.7237	-4.39271	0	
1.3653	8.93078	-3.78759	0	
1.3660	-2.67119	-2.55495	0	
1.3667	-8.15839	-0.717178	0	
1.3673	-8.46413	0.49306	0	
1.3680	-9.68708	0.806825	0	
1.3687	-9.99282	1.41194	0	
1.3693	-6.64579	3.54106	0	
1.3700	-2.36545	4.77371	0	
1.3707	2.81601	2.33083	0	
1.3713	8.31931	-0.112059	0	
1.3720	9.52617	0.201706	0	
1.3727	6.79061	1.09818	0	
1.3733	7.70783	0.806825	0	
1.3740	11.9721	0.49306	0	
1.3747	15.3352	1.09818	0	
1.3753	19.2937	2.93595	0	
1.3760	22.9626	4.77371	0	
1.3767	22.0454	4.77371	0	
1.3773	17.4754	4.16859	0	
1.3780	16.8639	5.98395	0	
1.3787	18.6822	7.2166	0	
1.3793	8.62505	6.58907	0	
1.3800	-17.3145	9.03196	0	
1.3807	-38.0725	11.1835	0	
1.3813	-38.684	8.42684	0	
1.3820	-38.3782	6.29772	0	
1.3827	-47.2286	6.29772	0	
1.3833	-47.84	5.98395	0	
1.3840	-36.5438	6.29772	0	
1.3847	-24.9579	3.85483	0	
1.3853	-12.7445	0.201706	0	
1.3860	-0.225281	2.01706	0	
1.3867	6.48488	3.24971	0	
1.3873	9.52617	-2.55495	0	
1.3880	12.2778	-4.39271	0	
1.3887	11.0549	-2.24118	0	
1.3893	6.79061	-6.8356	0	
1.3900	5.56766	-10.175	0	
1.3907	9.23652	-8.3596	0	
1.3913	12.5836	-8.3596	0	
1.3920	8.31931	-8.96472	0	
1.3927	-0.53102	-8.96472	0	
1.3933	-5.42284	-9.27849	0	
1.3940	-7.56301	-4.39271	0	
1.3947	-11.2158	1.41194	0	
1.3953	-14.8846	-0.717178	0	
1.3960	-17.0087	-1.94983	0	
1.3967	-18.2317	1.41194	0	
1.3973	-18.8432	1.09818	0	
1.3980	-20.0661	0.49306	0	
1.3987	-19.1489	3.54106	0	
1.3993	-13.9674	4.77371	0	
1.4000	-12.133	4.45995	0	
1.4007	-13.6617	5.6926	0	
1.4013	-7.25727	5.37883	0	
1.4020	3.73323	5.6926	0	
1.4027	6.48488	7.2166	0	
1.4033	4.34471	5.06507	0	
1.4040	5.26192	1.41194	0	
1.4047	5.8734	1.41194	0	
1.4053	3.73323	2.01706	0	
1.4060	4.34471	-0.112059	0	
1.4067	6.48488	-1.94983	0	
1.4073	7.40209	-1.03094	0	
1.4080	9.23652	-0.425824	0	
1.4087	12.5836	-3.47383	0	
1.4093	15.6409	-6.20807	0	
1.4100	20.2109	-6.20807	0	
1.4107	22.6568	-7.75448	0	
1.4113	18.6822	-9.8836	0	
1.4120	12.8893	-6.8356	0	
1.4127	9.52617	-2.86871	0	
1.4133	6.79061	-3.47383	0	
1.4140	4.03897	-2.55495	0	
1.4147	0.675843	1.41194	0	
1.4153	-3.58841	3.85483	0	
1.4160	-5.72858	3.85483	0	
1.4167	-5.1171	4.45995	0	
1.4173	-4.50562	3.85483	0	
1.4180	-3.28267	4.16859	0	
1.4187	-2.36545	5.06507	0	
1.4193	-2.05971	1.41194	0	
1.4200	-1.75397	-1.94983	0	
1.4207	-2.05971	1.72571	0	
1.4213	-2.05971	3.54106	0	
1.4220	0.981582	-2.24118	0	
1.4227	2.20454	-4.39271	0	
1.4233	-1.75397	1.09818	0	
1.4240	-3.58841	4.77371	0	
1.4247	-0.836758	4.45995	0	
1.4253	1.8988	2.93595	0	
1.4260	6.79061	1.41194	0	
1.4267	14.418	0.201706	0	
1.4273	19.9052	-2.55495	0	
1.4280	19.9052	-4.99783	0	
1.4287	12.8893	-2.55495	0	
1.4293	0.981582	2.93595	0	
1.4300	-6.64579	4.16859	0	
1.4307	-4.81136	2.93595	0	
1.4313	-4.50562	2.93595	0	
1.4320	-15.4961	4.77371	0	
1.4327	-27.082	6.58907	0	
1.4333	-24.9579	5.98395	0	
1.4340	-12.133	2.01706	0	
1.4347	-3.28267	-0.717178	0	
1.4353	-2.05971	0.201706	0	
1.4360	-0.836758	1.41194	0	
1.4367	-2.05971	3.24971	0	
1.4373	-7.56301	5.06507	0	
1.4380	-8.76987	5.37883	0	
1.4387	-3.58841	4.77371	0	
1.4393	-0.836758	3.54106	0	
1.4400	-0.836758	2.01706	0	
1.4407	-2.36545	2.93595	0	
1.4413	-6.34005	4.16859	0	
1.4420	-8.15839	0.201706	0	
1.4427	-2.97693	-3.16006	0	
1.4433	2.20454	-0.717178	0	
1.4440	1.8988	1.41194	0	
1.4447	-1.44824	-1.34471	0	
1.4453	-3.58841	-1.63606	0	
1.4460	-1.44824	2.01706	0	
1.4467	1.8988	3.24971	0	
1.4473	1.59306	2.62218	0	
1.4480	0.981582	4.77371	0	
1.4487	0.675843	6.90283	0	
1.4493	-3.28267	5.98395	0	
1.4500	-8.15839	4.45995	0	
1.4507	-10.2986	4.77371	0	
1.4513	-9.99282	5.06507	0	
1.4520	-7.25727	3.54106	0	
1.4527	-4.81136	2.01706	0	
1.4533	-5.72858	2.62218	0	
1.4540	-5.72858	4.16859	0	
1.4547	-4.50562	5.6926	0	
1.4553	-5.72858	6.90283	0	
1.4560	-3.89414	7.82172	0	
1.4567	1.59306	8.42684	0	
1.4573	3.73323	7.50795	0	
1.4580	5.26192	6.58907	0	
1.4587	7.09635	4.77371	0	
1.4593	5.56766	2.33083	0	
1.4600	8.93078	1.09818	0	
1.4607	15.0295	0.201706	0	
1.4613	8.01357	-0.717178	0	
1.4620	-2.97693	0.201706	0	
1.4627	-2.05971	2.01706	0	
1.4633	-0.225281	2.93595	0	
1.4640	-1.75397	3.85483	0	
1.4647	-0.53102	3.54106	0	
1.4653	-3.58841	-0.425824	0	
1.4660	-9.99282	-0.717178	0	
1.4667	-7.25727	2.01706	0	
1.4673	-1.75397	0.201706	0	
1.4680	0.981582	-2.86871	0	
1.4687	5.26192	-2.24118	0	
1.4693	3.73323	-1.63606	0	
1.4700	-5.42284	-1.63606	0	
1.4707	-10.91	1.09818	0	
1.4713	-13.6617	2.93595	0	
1.4720	-19.4546	3.54106	0	
1.4727	-19.7604	4.77371	0	
1.4733	-12.4387	5.06507	0	
1.4740	-7.25727	3.85483	0	
1.4747	-4.81136	3.85483	0	
1.4753	-1.1425	4.77371	0	
1.4760	0.0804575	2.93595	0	
1.4767	-0.53102	0.201706	0	
1.4773	-0.225281	1.09818	0	
1.4780	-1.75397	5.37883	0	
1.4787	-1.75397	6.58907	0	
1.4793	4.03897	3.85483	0	
1.4800	11.3606	3.24971	0	
1.4807	12.8893	5.37883	0	
1.4813	8.31931	4.16859	0	
1.4820	7.70783	0.806825	0	
1.4827	14.7237	-0.717178	0	
1.4833	18.0868	-3.16006	0	
1.4840	13.195	-6.8356	0	
1.4847	11.9721	-8.04584	0	
1.4853	15.0295	-6.20807	0	
1.4860	11.0549	-3.47383	0	
1.4867	6.17914	-0.717178	0	
1.4873	9.52617	0.201706	0	
1.4880	13.8065	-1.94983	0	
1.4887	13.5008	-4.39271	0	
1.4893	12.8893	-4.07895	0	
1.4900	11.0549	-1.94983	0	
1.4907	8.31931	-1.03094	0	
1.4913	8.93078	-0.425824	0	
1.4920	12.8893	0.806825	0	
1.4927	12.8893	1.41194	0	
1.4933	3.73323	2.01706	0	
1.4940	-9.68708	2.93595	0	
1.4947	-16.4133	2.93595	0	
1.4953	-16.1076	2.93595	0	
1.4960	-18.2317	3.85483	0	
1.4967	-19.1489	4.45995	0	
1.4973	-15.4961	3.54106	0	
1.4980	-18.5374	2.93595	0	
1.4987	-28.6107	4.45995	0	
1.4993	-30.7509	4.77371	0	
1.5000	-20.9833	1.09818	0	
1.5007	-9.99282	-1.03094	0	
1.5013	-3.28267	1.41194	0	
1.5020	0.0804575	2.33083	0	
1.5027	2.81601	0.806825	0	
1.5033	2.20454	1.41194	0	
1.5040	-2.36545	1.09818	0	
1.5047	-5.1171	-1.03094	0	
1.5053	-2.97693	0.49306	0	
1.5060	-2.05971	2.62218	0	
1.5067	-3.28267	0.201706	0	
1.5073	-3.28267	0.201706	0	
1.5080	-1.75397	2.33083	0	
1.5087	-1.75397	1.09818	0	
1.5093	-1.44824	0.201706	0	
1.5100	0.981582	2.93595	0	
1.5107	5.26192	2.01706	0	
1.5113	7.09635	-1.94983	0	
1.5120	5.56766	-3.16006	0	
1.5127	2.51027	-2.24118	0	
1.5133	-2.67119	-1.03094	0	
1.5140	-8.15839	0.201706	0	
1.5147	-9.07561	1.41194	0	
1.5153	-8.15839	2.93595	0	
1.5160	-9.68708	3.24971	0	
1.5167	-12.4387	2.01706	0	
1.5173	-11.5215	1.72571	0	
1.5180	-9.68708	2.93595	0	
1.5187	-9.99282	3.54106	0	
1.5193	-9.99282	2.62218	0	
1.5200	-10.6043	4.77371	0	
1.5207	-11.8273	9.03196	0	
1.5213	-11.2158	7.50795	0	
1.5220	-12.133	2.93595	0	
1.5227	-15.4961	3.54106	0	
1.5233	-10.2986	5.06507	0	
1.5240	-2.36545	3.24971	0	
1.5247	-5.72858	1.72571	0	
1.5253	-7.25727	1.09818	0	
1.5260	3.12175	-0.717178	0	
1.5267	6.48488	-2.55495	0	
1.5273	2.81601	-3.78759	0	
1.5280	7.40209	-4.68407	0	
1.5287	8.31931	-5.3116	0	
1.5293	0.386196	-5.60295	0	
1.5300	1.8988	-5.3116	0	
1.5307	8.31931	-4.99783	0	
1.5313	6.17914	-7.12695	0	
1.5320	0.675843	-7.12695	0	
1.5327	-0.836758	-2.24118	0	
1.5333	-2.67119	1.09818	0	
1.5340	-5.42284	1.09818	0	
1.5347	-6.03431	1.09818	0	
1.5353	-4.81136	0.49306	0	
1.5360	-3.28267	2.01706	0	
1.5367	-1.75397	4.45995	0	
1.5373	0.386196	3.24971	0	
1.5380	2.81601	2.93595	0	
1.5387	2.81601	5.06507	0	
1.5393	3.12175	3.24971	0	
1.5400	4.95618	-0.717178	0	
1.5407	6.48488	-1.63606	0	
1.5413	8.62505	-2.86871	0	
1.5420	14.7237	-4.68407	0	
1.5427	22.6568	-3.47383	0	
1.5433	27.5326	-2.55495	0	
1.5440	28.144	-3.16006	0	
1.5447	29.0613	-4.39271	0	
1.5453	29.9785	-7.12695	0	
1.5460	25.1027	-7.12695	0	
1.5467	20.2109	-3.47383	0	
1.5473	18.0868	-3.16006	0	
1.5480	6.48488	-2.55495	0	
1.5487	-13.6617	3.85483	0	
1.5493	-24.6522	7.82172	0	
1.5500	-24.9579	5.06507	0	
1.5507	-25.5533	3.85483	0	
1.5513	-23.4292	3.54106	0	
1.5520	-18.2317	3.54106	0	
1.5527	-17.3145	5.6926	0	
1.5533	-17.3145	5.98395	0	
1.5540	-11.2158	2.93595	0	
1.5547	-5.42284	2.93595	0	
1.5553	-6.03431	5.06507	0	
1.5560	-5.42284	3.85483	0	
1.5567	-2.97693	1.72571	0	
1.5573	-7.25727	-1.34471	0	
1.5580	-9.99282	-4.99783	0	
1.5587	-2.97693	-4.39271	0	
1.5593	2.81601	-2.24118	0	
1.5600	0.0804575	-2.86871	0	
1.5607	0.386196	-3.78759	0	
1.5613	6.17914	-2.86871	0	
1.5620	9.23652	-2.24118	0	
1.5627	10.1376	-1.03094	0	
1.5633	11.9721	0.201706	0	
1.5640	10.4434	1.41194	0	
1.5647	6.48488	3.85483	0	
1.5653	7.09635	4.16859	0	
1.5660	10.1376	2.93595	0	
1.5667	6.48488	2.93595	0	
1.5673	-1.1425	2.01706	0	
1.5680	-4.50562	0.201706	0	
1.5687	-4.50562	1.09818	0	
1.5693	-2.67119	0.201706	0	
1.5700	0.0804575	-3.16006	0	
1.5707	-4.50562	-4.07895	0	
1.5713	-11.5215	-2.24118	0	
1.5720	-9.07561	-1.94983	0	
1.5727	-5.42284	-3.47383	0	
1.5733	-9.07561	-4.99783	0	
1.5740	-11.8273	-4.68407	0	
1.5747	-10.91	-0.717178	0	
1.5753	-11.8273	3.85483	0	
1.5760	-10.91	5.6926	0	
1.5767	-8.15839	5.37883	0	
1.5773	-7.56301	6.29772	0	
1.5780	-5.42284	8.7406	0	
1.5787	-2.67119	9.03196	0	
1.5793	-3.58841	6.58907	0	
1.5800	-0.836758	7.82172	0	
1.5807	4.65044	9.95084	0	
1.5813	5.56766	7.50795	0	
1.5820	4.65044	6.29772	0	
1.5827	5.26192	6.58907	0	
1.5833	1.59306	3.24971	0	
1.5840	0.981582	0.49306	0	
1.5847	8.31931	-1.63606	0	
1.5853	12.2778	-7.12695	0	
1.5860	8.31931	-9.27849	0	
1.5867	10.4434	-6.20807	0	
1.5873	21.1281	-7.12695	0	
1.5880	23.2683	-8.04584	0	
1.5887	17.4754	-4.39271	0	
1.5893	14.418	-3.78759	0	
1.5900	16.5582	-5.3116	0	
1.5907	17.4754	-4.39271	0	
1.5913	15.6409	-5.60295	0	
1.5920	12.8893	-6.8356	0	
1.5927	8.01357	-2.86871	0	
1.5933	-2.67119	-0.425824	0	
1.5940	-15.4961	0.806825	0	
1.5947	-24.0407	5.6926	0	
1.5953	-27.3877	9.03196	0	
1.5960	-31.0566	7.50795	0	
1.5967	-32.2796	7.50795	0	
1.5973	-26.4705	7.82172	0	
1.5980	-19.4546	5.37883	0	
1.5987	-17.3145	6.29772	0	
1.5993	-17.3145	10.2646	0	
1.6000	-16.7191	10.556	0	
1.6007	-15.4961	8.42684	0	
1.6013	-9.99282	5.98395	0	
1.6020	0.386196	4.77371	0	
1.6027	9.83191	4.45995	0	
1.6033	13.8065	1.72571	0	
1.6040	13.8065	-1.34471	0	
1.6047	15.6409	-2.55495	0	
1.6053	18.0868	-4.39271	0	
1.6060	18.3765	-6.20807	0	
1.6067	18.6822	-2.55495	0	
1.6073	19.2937	1.41194	0	
1.6080	13.8065	1.72571	0	
1.6087	1.8988	0.806825	0	
1.6093	-4.50562	-0.425824	0	
1.6100	-0.836758	-3.47383	0	
1.6107	4.65044	-6.20807	0	
1.6113	0.0804575	-4.39271	0	
1.6120	-10.6043	-1.34471	0	
1.6127	-17.3145	-0.112059	0	
1.6133	-20.0661	1.72571	0	
1.6140	-24.0407	5.6926	0	
1.6147	-24.9579	7.82172	0	
1.6153	-20.0661	6.58907	0	
1.6160	-15.4961	5.06507	0	
1.6167	-13.0502	5.06507	0	
1.6173	-13.3559	6.58907	0	
1.6180	-16.7191	6.29772	0	
1.6187	-20.6776	4.77371	0	
1.6193	-20.9833	7.50795	0	
1.6200	-16.7191	10.2646	0	
1.6207	-9.99282	5.6926	0	
1.6213	-4.50562	1.72571	0	
1.6220	-1.1425	2.93595	0	
1.6227	3.73323	0.806825	0	
1.6233	9.23652	-3.16006	0	
1.6240	11.0549	-0.112059	0	
1.6247	10.1376	2.93595	0	
1.6253	8.93078	1.09818	0	
1.6260	7.40209	0.806825	0	
1.6267	7.09635	2.33083	0	
1.6273	8.31931	1.72571	0	
1.6280	8.62505	0.201706	0	
1.6287	9.23652	0.201706	0	
1.6293	9.83191	-1.34471	0	
1.6300	11.9721	-4.39271	0	
1.6307	14.418	-4.68407	0	
1.6313	13.8065	-3.78759	0	
1.6320	8.01357	-4.99783	0	
1.6327	-2.67119	-5.3116	0	
1.6333	-10.91	-4.39271	0	
1.6340	-12.133	-4.39271	0	
1.6347	-13.3559	-1.94983	0	
1.6353	-16.4133	2.33083	0	
1.6360	-15.4961	1.09818	0	
1.6367	-11.8273	-1.03094	0	
1.6373	-9.07561	1.72571	0	
1.6380	-4.19988	2.93595	0	
1.6387	0.0804575	2.93595	0	
1.6393	0.0804575	5.37883	0	
1.6400	1.8988	5.6926	0	
1.6407	7.09635	2.01706	0	
1.6413	8.01357	1.09818	0	
1.6420	3.73323	2.62218	0	
1.6427	2.81601	2.93595	0	
1.6433	4.03897	2.93595	0	
1.6440	0.981582	1.72571	0	
1.6447	-4.19988	1.09818	0	
1.6453	-3.58841	0.806825	0	
1.6460	0.0804575	-0.717178	0	
1.6467	-1.75397	-0.717178	0	
1.6473	-7.25727	2.93595	0	
1.6480	-9.07561	5.37883	0	
1.6487	-5.42284	4.77371	0	
1.6493	-0.836758	3.24971	0	
1.6500	2.20454	2.93595	0	
1.6507	5.56766	3.24971	0	
1.6513	12.2778	3.54106	0	
1.6520	15.6409	2.93595	0	
1.6527	11.0549	2.93595	0	
1.6533	8.62505	2.93595	0	
1.6540	14.1122	2.01706	0	
1.6547	17.7811	2.01706	0	
1.6553	11.0549	1.72571	0	
1.6560	-0.53102	-1.63606	0	
1.6567	-9.07561	-4.99783	0	
1.6573	-14.5789	-5.91672	0	
1.6580	-21.5948	-5.91672	0	
1.6587	-25.5533	-5.3116	0	
1.6593	-21.5948	-3.47383	0	
1.6600	-12.7445	-3.78759	0	
1.6607	-4.81136	-5.91672	0	
1.6613	-0.53102	-5.60295	0	
1.6620	1.8988	-3.16006	0	
1.6627	3.73323	-1.63606	0	
1.6633	5.26192	-1.63606	0	
1.6640	6.48488	-1.63606	0	
1.6647	8.31931	-1.94983	0	
1.6653	8.31931	-2.86871	0	
1.6660	2.81601	-3.78759	0	
1.6667	-1.1425	-3.78759	0	
1.6673	0.675843	-2.24118	0	
1.6680	3.73323	-1.03094	0	
1.6687	2.81601	-2.24118	0	
1.6693	0.981582	-3.47383	0	
1.6700	0.386196	-1.63606	0	
1.6707	0.386196	0.49306	0	
1.6713	-5.42284	2.01706	0	
1.6720	-14.5789	2.93595	0	
1.6727	-14.2732	3.24971	0	
1.6733	-7.25727	2.33083	0	
1.6740	-7.56301	1.41194	0	
1.6747	-11.5215	-0.717178	0	
1.6753	-7.25727	-3.16006	0	
1.6760	-1.75397	-1.63606	0	
1.6767	-2.67119	2.01706	0	
1.6773	-5.1171	2.01706	0	
1.6780	-5.42284	1.41194	0	
1.6787	-3.58841	4.45995	0	
1.6793	0.0804575	3.54106	0	
1.6800	2.51027	0.806825	0	
1.6807	4.03897	3.85483	0	
1.6813	7.40209	5.6926	0	
1.6820	8.93078	1.41194	0	
1.6827	7.70783	-1.03094	0	
1.6833	10.1376	-1.63606	0	
1.6840	15.0295	-3.47383	0	
1.6847	15.3352	-1.34471	0	
1.6853	12.8893	0.201706	0	
1.6860	11.0549	-2.55495	0	
1.6867	8.31931	-1.63606	0	
1.6873	5.26192	0.49306	0	
1.6880	-0.53102	-1.34471	0	
1.6887	-8.15839	0.201706	0	
1.6893	-8.46413	2.93595	0	
1.6900	1.8988	-0.717178	0	
1.6907	10.1376	-4.39271	0	
1.6913	7.09635	-1.34471	0	
1.6920	-4.50562	1.72571	0	
1.6927	-9.07561	2.01706	0	
1.6933	-2.97693	0.201706	0	
1.6940	1.28732	-1.63606	0	
1.6947	-3.89414	0.201706	0	
1.6953	-10.91	4.16859	0	
1.6960	-14.5789	3.85483	0	
1.6967	-15.1904	2.62218	0	
1.6973	-14.2732	4.77371	0	
1.6980	-13.3559	7.2166	0	
1.6987	-13.3559	6.90283	0	
1.6993	-11.8273	5.06507	0	
1.7000	-9.68708	4.77371	0	
1.7007	-8.15839	4.77371	0	
1.7013	-3.58841	2.62218	0	
1.7020	0.981582	1.41194	0	
1.7027	-2.67119	6.90283	0	
1.7033	-7.86875	11.1835	0	
1.7040	-4.50562	7.50795	0	
1.7047	-0.836758	5.6926	0	
1.7053	-3.89414	8.13548	0	
1.7060	-5.72858	7.82172	0	
1.7067	-2.05971	5.6926	0	
1.7073	3.73323	2.33083	0	
1.7080	8.31931	-4.99783	0	
1.7087	7.70783	-9.27849	0	
1.7093	5.56766	-6.20807	0	
1.7100	8.31931	-4.99783	0	
1.7107	11.3606	-8.3596	0	
1.7113	11.6663	-8.3596	0	
1.7120	10.7491	-5.3116	0	
1.7127	4.65044	-2.55495	0	
1.7133	-3.28267	0.201706	0	
1.7140	-2.67119	-0.717178	0	
1.7147	1.8988	-2.55495	0	
1.7153	3.73323	0.201706	0	
1.7160	2.81601	1.72571	0	
1.7167	-1.44824	-0.717178	0	
1.7173	-6.03431	0.49306	0	
1.7180	-6.03431	3.24971	0	
1.7187	-8.15839	2.93595	0	
1.7193	-13.3559	3.85483	0	
1.7200	-14.8846	5.37883	0	
1.7207	-17.6202	5.37883	0	
1.7213	-24.3464	6.58907	0	
1.7220	-22.8178	7.50795	0	
1.7227	-13.9674	4.77371	0	
1.7233	-8.15839	3.85483	0	
1.7240	-5.42284	5.06507	0	
1.7247	-2.97693	4.77371	0	
1.7253	-2.67119	4.45995	0	
1.7260	-2.36545	4.16859	0	
1.7267	0.386196	2.01706	0	
1.7273	3.42749	0.201706	0	
1.7280	8.01357	-2.24118	0	
1.7287	13.5008	-6.8356	0	
1.7293	15.3352	-8.65096	0	
1.7300	15.9467	-7.75448	0	
1.7307	20.5167	-6.8356	0	
1.7313	23.2683	-5.3116	0	
1.7320	20.5167	-4.68407	0	
1.7327	16.5582	-4.99783	0	
1.7333	13.195	-2.55495	0	
1.7340	8.31931	-0.717178	0	
1.7347	3.73323	-0.425824	0	
1.7353	0.0804575	2.93595	0	
1.7360	-1.75397	6.29772	0	
1.7367	-5.1171	5.06507	0	
1.7373	-15.4961	2.93595	0	
1.7380	-25.5533	2.01706	0	
1.7387	-20.9833	2.01706	0	
1.7393	-8.15839	6.90283	0	
1.7400	-3.28267	10.2646	0	
1.7407	-4.50562	8.42684	0	
1.7413	-7.86875	6.29772	0	
1.7420	-15.4961	6.29772	0	
1.7427	-16.4133	4.77371	0	
1.7433	-4.50562	2.93595	0	
1.7440	1.8988	2.93595	0	
1.7447	-3.28267	2.93595	0	
1.7453	-3.89414	2.93595	0	
1.7460	0.675843	2.93595	0	
1.7467	3.12175	1.09818	0	
1.7473	5.56766	-1.34471	0	
1.7480	4.95618	-1.34471	0	
1.7487	1.28732	0.806825	0	
1.7493	0.0804575	2.93595	0	
1.7500	-1.1425	2.93595	0	
1.7507	-6.03431	1.41194	0	
1.7513	-8.15839	1.72571	0	
1.7520	-7.56301	3.54106	0	
1.7527	-6.95153	3.85483	0	
1.7533	-3.58841	1.41194	0	
1.7540	-2.05971	1.09818	0	
1.7547	-5.42284	3.24971	0	
1.7553	-7.25727	5.06507	0	
1.7560	-4.81136	4.45995	0	
1.7567	-1.1425	1.41194	0	
1.7573	1.8988	0.201706	0	
1.7580	0.981582	2.62218	0	
1.7587	-0.836758	4.77371	0	
1.7593	4.95618	2.01706	0	
1.7600	11.0549	-1.34471	0	
1.7607	6.48488	-1.94983	0	
1.7613	-0.836758	-1.34471	0	
1.7620	-1.75397	0.806825	0	
1.7627	1.28732	2.93595	0	
1.7633	8.31931	2.01706	0	
1.7640	19.9052	-1.34471	0	
1.7647	26.6314	-3.78759	0	
1.7653	26.02	-4.39271	0	
1.7660	21.1281	-3.78759	0	
1.7667	17.1696	-4.68407	0	
1.7673	17.4754	-5.91672	0	
1.7680	14.7237	-4.07895	0	
1.7687	1.59306	-1.63606	0	
1.7693	-11.8273	-2.55495	0	
1.7700	-17.3145	-3.16006	0	
1.7707	-20.9833	-1.34471	0	
1.7713	-21.9005	-0.425824	0	
1.7720	-18.2317	0.49306	0	
1.7727	-14.5789	2.01706	0	
1.7733	-11.2158	2.01706	0	
1.7740	-9.07561	3.54106	0	
1.7747	-13.0502	6.90283	0	
1.7753	-17.3145	9.34572	0	
1.7760	-14.2732	11.7886	0	
1.7767	-11.8273	11.4748	0	
1.7773	-16.7191	7.50795	0	
1.7780	-18.2317	5.37883	0	
1.7787	-13.0502	7.50795	0	
1.7793	-13.3559	8.13548	0	
1.7800	-20.9833	8.7406	0	
1.7807	-23.1235	10.8697	0	
1.7813	-16.7191	9.34572	0	
1.7820	-9.99282	6.90283	0	
1.7827	-2.05971	5.98395	0	
1.7833	9.23652	1.72571	0	
1.7840	17.7811	-2.86871	0	
1.7847	19.5995	-3.78759	0	
1.7853	18.3765	-4.39271	0	
1.7860	15.3352	-3.47383	0	
1.7867	12.8893	-2.55495	0	
1.7873	9.23652	-4.68407	0	
1.7880	1.59306	-6.52183	0	
1.7887	-2.36545	-4.99783	0	
1.7893	1.8988	-5.3116	0	
1.7900	1.8988	-5.60295	0	
1.7907	-3.58841	-2.55495	0	
1.7913	-4.50562	-0.112059	0	
1.7920	-2.67119	0.49306	0	
1.7927	-3.28267	1.72571	0	
1.7933	-4.50562	2.93595	0	
1.7940	-6.64579	4.77371	0	
1.7947	-8.46413	5.06507	0	
1.7953	-5.1171	3.54106	0	
1.7960	0.675843	2.93595	0	
1.7967	4.34471	4.16859	0	
1.7973	10.1376	3.85483	0	
1.7980	18.3765	0.49306	0	
1.7987	25.7142	-2.24118	0	
1.7993	32.4244	-3.47383	0	
1.8000	36.0772	-4.39271	0	
1.8007	32.7301	-4.39271	0	
1.8013	25.4085	-1.63606	0	
1.8020	19.2937	1.41194	0	
1.8027	19.2937	0.201706	0	
1.8033	19.5995	-0.717178	0	
1.8040	5.56766	2.62218	0	
1.8047	-18.2317	3.85483	0	
1.8053	-25.859	0.201706	0	
1.8060	-16.4133	-1.63606	0	
1.8067	-10.91	-0.425824	0	
1.8073	-14.5789	1.09818	0	
1.8080	-23.735	2.33083	0	
1.8087	-35.6266	4.16859	0	
1.8093	-38.3782	7.82172	0	
1.8100	-30.4451	9.34572	0	
1.8107	-26.4705	6.29772	0	
1.8113	-29.8336	5.6926	0	
1.8120	-30.1394	9.03196	0	
1.8127	-27.3877	8.7406	0	
1.8133	-23.735	7.2166	0	
1.8140	-17.0087	9.65949	0	
1.8147	-9.07561	12.1024	0	
1.8153	-3.89414	12.1024	0	
1.8160	-0.836758	9.34572	0	
1.8167	0.0804575	5.06507	0	
1.8173	-2.05971	3.85483	0	
1.8180	-5.1171	5.98395	0	
1.8187	-5.1171	2.33083	0	
1.8193	-1.75397	-2.55495	0	
1.8200	2.81601	-1.94983	0	
1.8207	6.48488	-1.63606	0	
1.8213	8.62505	-4.07895	0	
1.8220	9.52617	-2.55495	0	
1.8227	8.62505	0.201706	0	
1.8233	8.93078	0.806825	0	
1.8240	13.8065	0.806825	0	
1.8247	19.9052	-2.86871	0	
1.8253	23.8798	-7.44072	0	
1.8260	25.7142	-7.12695	0	
1.8267	22.6568	-5.3116	0	
1.8273	18.6822	-5.60295	0	
1.8280	17.4754	-6.20807	0	
1.8287	14.1122	-4.68407	0	
1.8293	8.31931	-3.47383	0	
1.8300	7.09635	-3.47383	0	
1.8307	8.93078	-4.07895	0	
1.8313	7.40209	-3.47383	0	
1.8320	3.12175	-3.47383	0	
1.8327	-0.53102	-3.47383	0	
1.8333	-2.67119	-0.717178	0	
1.8340	-3.58841	2.01706	0	
1.8347	-3.58841	2.01706	0	
1.8353	-2.67119	2.01706	0	
1.8360	-0.836758	3.54106	0	
1.8367	0.675843	3.85483	0	
1.8373	-0.836758	2.62218	0	
1.8380	-7.56301	2.62218	0	
1.8387	-17.6202	4.77371	0	
1.8393	-23.735	5.6926	0	
1.8400	-22.8178	4.45995	0	
1.8407	-18.2317	3.54106	0	
1.8413	-7.86875	2.93595	0	
1.8420	6.17914	0.201706	0	
1.8427	17.4754	-2.24118	0	
1.8433	22.0454	-2.24118	0	
1.8440	20.8224	-0.112059	0	
1.8447	15.9467	3.24971	0	
1.8453	12.8893	6.58907	0	
1.8460	12.8893	6.90283	0	
1.8467	12.8893	3.85483	0	
1.8473	12.8893	1.72571	0	
1.8480	10.7491	3.24971	0	
1.8487	2.81601	5.37883	0	
1.8493	-8.76987	4.16859	0	
1.8500	-14.2732	3.54106	0	
1.8507	-11.8273	5.06507	0	
1.8513	-12.133	5.06507	0	
1.8520	-16.4133	2.62218	0	
1.8527	-11.2158	-0.717178	0	
1.8533	2.20454	-5.3116	0	
1.8540	11.0549	-9.27849	0	
1.8547	18.988	-12.3265	0	
1.8553	26.02	-12.9316	0	
1.8560	22.3511	-11.4076	0	
1.8567	15.6409	-9.27849	0	
1.8573	10.7491	-9.27849	0	
1.8580	-4.50562	-9.8836	0	
1.8587	-18.2317	-8.65096	0	
1.8593	-13.0502	-6.52183	0	
1.8600	-9.07561	-6.20807	0	
1.8607	-15.4961	-5.3116	0	
1.8613	-14.5789	-2.55495	0	
1.8620	-9.38135	-0.717178	0	
1.8627	-13.6617	0.806825	0	
1.8633	-13.0502	1.41194	0	
1.8640	-1.75397	-1.34471	0	
1.8647	3.12175	-3.78759	0	
1.8653	-1.75397	-1.34471	0	
1.8660	-5.1171	-0.112059	0	
1.8667	-6.03431	-4.39271	0	
1.8673	-9.07561	-6.8356	0	
1.8680	-9.38135	-4.39271	0	
1.8687	-4.81136	-2.55495	0	
1.8693	-2.36545	-1.03094	0	
1.8700	-1.44824	2.01706	0	
1.8707	0.0804575	4.16859	0	
1.8713	-4.81136	4.16859	0	
1.8720	-15.4961	3.85483	0	
1.8727	-21.5948	6.58907	0	
1.8733	-21.9005	9.95084	0	
1.8740	-23.735	10.8697	0	
1.8747	-24.3464	9.34572	0	
1.8753	-22.8178	9.34572	0	
1.8760	-21.9005	9.95084	0	
1.8767	-19.7604	10.2646	0	
1.8773	-13.6617	7.50795	0	
1.8780	-7.56301	5.37883	0	
1.8787	-6.95153	8.13548	0	
1.8793	-9.99282	9.95084	0	
1.8800	-8.46413	5.6926	0	
1.8807	1.59306	4.77371	0	
1.8813	12.5836	7.2166	0	
1.8820	18.0868	2.33083	0	
1.8827	22.9626	-3.47383	0	
1.8833	29.6727	-3.16006	0	
1.8840	33.9531	-5.91672	0	
1.8847	35.4818	-12.0127	0	
1.8853	33.9531	-9.8836	0	
1.8860	28.4498	-5.3116	0	
1.8867	22.0454	-4.99783	0	
1.8873	17.4754	-4.68407	0	
1.8880	11.9721	-2.55495	0	
1.8887	8.01357	-2.24118	0	
1.8893	10.4434	-1.63606	0	
1.8900	13.8065	0.201706	0	
1.8907	13.8065	1.09818	0	
1.8913	15.9467	0.201706	0	
1.8920	15.9467	-0.425824	0	
1.8927	5.56766	1.41194	0	
1.8933	-8.46413	3.24971	0	
1.8940	-15.4961	2.01706	0	
1.8947	-16.4133	1.41194	0	
1.8953	-14.8846	3.85483	0	
1.8960	-12.4387	5.06507	0	
1.8967	-6.95153	2.93595	0	
1.8973	2.20454	1.09818	0	
1.8980	7.40209	0.49306	0	
1.8987	3.73323	0.201706	0	
1.8993	2.81601	0.806825	0	
1.9000	8.93078	-0.425824	0	
1.9007	14.1122	-2.55495	0	
1.9013	15.6409	-1.94983	0	
1.9020	17.4754	-1.94983	0	
1.9027	20.2109	-4.07895	0	
1.9033	27.2268	-3.47383	0	
1.9040	32.1186	-2.24118	0	
1.9047	12.5836	-2.55495	0	
1.9053	-26.4705	1.41194	0	
1.9060	-47.84	8.42684	0	
1.9067	-45.0884	8.7406	0	
1.9073	-43.8654	4.16859	0	
1.9080	-44.4769	2.93595	0	
1.9087	-33.8082	3.85483	0	
1.9093	-20.3718	2.93595	0	
1.9100	-16.4133	1.72571	0	
1.9107	-17.3145	1.41194	0	
1.9113	-17.9259	2.62218	0	
1.9120	-18.2317	3.54106	0	
1.9127	-20.3718	3.24971	0	
1.9133	-22.8178	3.85483	0	
1.9140	-22.8178	4.45995	0	
1.9147	-20.9833	3.85483	0	
1.9153	-25.5533	3.24971	0	
1.9160	-34.7094	4.77371	0	
1.9167	-39.2955	5.37883	0	
1.9173	-37.1553	4.77371	0	
1.9180	-32.5853	5.37883	0	
1.9187	-26.4705	8.7406	0	
1.9193	-17.0087	9.95084	0	
1.9200	-8.46413	5.98395	0	
1.9207	-2.67119	3.85483	0	
1.9213	1.8988	5.98395	0	
1.9220	5.8734	3.85483	0	
1.9227	6.48488	-2.24118	0	
1.9233	6.48488	-4.39271	0	
1.9240	9.23652	-3.78759	0	
1.9247	12.2778	-5.91672	0	
1.9253	12.2778	-7.75448	0	
1.9260	12.2778	-8.04584	0	
1.9267	13.8065	-9.27849	0	
1.9273	13.195	-9.27849	0	
1.9280	11.9721	-8.04584	0	
1.9287	12.2778	-5.60295	0	
1.9293	11.9721	-2.24118	0	
1.9300	9.23652	0.201706	0	
1.9307	5.8734	0.201706	0	
1.9313	2.20454	1.72571	0	
1.9320	-0.225281	3.24971	0	
1.9327	-1.44824	2.93595	0	
1.9333	-3.58841	3.54106	0	
1.9340	-6.03431	5.06507	0	
1.9347	-4.50562	4.77371	0	
1.9353	-3.28267	4.77371	0	
1.9360	-3.58841	6.29772	0	
1.9367	-0.53102	7.2166	0	
1.9373	5.8734	6.58907	0	
1.9380	12.2778	6.58907	0	
1.9387	18.3765	6.29772	0	
1.9393	21.1281	3.24971	0	
1.9400	19.5995	1.72571	0	
1.9407	19.5995	2.93595	0	
1.9413	17.7811	1.09818	0	
1.9420	6.48488	-4.07895	0	
1.9427	-9.07561	-3.78759	0	
1.9433	-18.2317	0.201706	0	
1.9440	-20.0661	1.09818	0	
1.9447	-20.3718	0.201706	0	
1.9453	-18.5374	-1.34471	0	
1.9460	-10.2986	-3.47383	0	
1.9467	-2.97693	-3.47383	0	
1.9473	-7.86875	0.49306	0	
1.9480	-12.4387	5.37883	0	
1.9487	-2.97693	6.58907	0	
1.9493	7.40209	3.24971	0	
1.9500	11.9721	0.806825	0	
1.9507	17.4754	1.41194	0	
1.9513	18.988	2.62218	0	
1.9520	11.3606	2.62218	0	
1.9527	6.17914	2.62218	0	
1.9533	5.8734	1.09818	0	
1.9540	4.95618	-0.717178	0	
1.9547	3.42749	-0.112059	0	
1.9553	3.42749	-0.425824	0	
1.9560	4.95618	-2.55495	0	
1.9567	2.81601	-4.07895	0	
1.9573	-7.86875	-3.47383	0	
1.9580	-15.4961	-2.55495	0	
1.9587	-9.07561	-2.55495	0	
1.9593	-2.05971	-3.16006	0	
1.9600	-3.58841	-1.63606	0	
1.9607	-3.58841	0.806825	0	
1.9613	-0.836758	2.01706	0	
1.9620	-2.05971	2.33083	0	
1.9627	-1.75397	0.806825	0	
1.9633	2.81601	-2.55495	0	
1.9640	6.79061	-3.47383	0	
1.9647	11.3606	-2.55495	0	
1.9653	17.1696	-4.68407	0	
1.9660	18.3765	-7.44072	0	
1.9667	14.418	-6.20807	0	
1.9673	10.1376	-3.16006	0	
1.9680	10.7491	-0.112059	0	
1.9687	15.6409	0.201706	0	
1.9693	19.2937	-3.47383	0	
1.9700	20.2109	-4.39271	0	
1.9707	16.5582	-1.03094	0	
1.9713	5.8734	-0.717178	0	
1.9720	-5.1171	-1.63606	0	
1.9727	-7.25727	1.09818	0	
1.9733	-5.42284	4.77371	0	
1.9740	-6.95153	6.58907	0	
1.9747	-9.99282	6.58907	0	
1.9753	-9.68708	4.45995	0	
1.9760	-8.15839	3.54106	0	
1.9767	-12.7445	5.37883	0	
1.9773	-22.512	6.29772	0	
1.9780	-22.8178	5.6926	0	
1.9787	-17.0087	4.77371	0	
1.9793	-20.9833	4.45995	0	
1.9800	-29.2222	7.2166	0	
1.9807	-26.7763	10.556	0	
1.9813	-20.6776	10.2646	0	
1.9820	-19.7604	9.34572	0	
1.9827	-17.3145	10.556	0	
1.9833	-12.7445	8.13548	0	
1.9840	-9.99282	4.16859	0	
1.9847	-6.34005	3.85483	0	
1.9853	-1.1425	3.85483	0	
1.9860	2.20454	2.62218	0	
1.9867	7.09635	0.201706	0	
1.9873	11.9721	-3.16006	0	
1.9880	13.5008	-4.99783	0	
1.9887	12.5836	-3.16006	0	
1.9893	11.6663	-1.34471	0	
1.9900	10.1376	-2.55495	0	
1.9907	8.31931	-4.07895	0	
1.9913	6.79061	-1.63606	0	
1.9920	7.40209	0.201706	0	
1.9927	8.01357	-2.24118	0	
1.9933	5.26192	-2.86871	0	
1.9940	1.28732	0.806825	0	
1.9947	-0.836758	2.62218	0	
1.9953	-4.19988	2.62218	0	
1.9960	-9.07561	3.85483	0	
1.9967	-7.56301	2.93595	0	
1.9973	-2.67119	2.33083	0	
1.9980	-1.75397	3.85483	0	
1.9987	-2.36545	2.62218	0	
1.9993	-0.836758	1.09818	0	
2.0000	0.981582	5.37883	0	
2.0007	3.42749	8.42684	0	
2.0013	4.34471	8.13548	0	
2.0020	5.56766	8.7406	0	
2.0027	11.6663	6.90283	0	
2.0033	17.4754	2.93595	0	
2.0040	13.8065	2.93595	0	
2.0047	8.01357	4.77371	0	
2.0053	4.65044	3.85483	0	
2.0060	0.981582	1.09818	0	
2.0067	0.0804575	-0.717178	0	
2.0073	4.34471	-1.63606	0	
2.0080	4.65044	-1.34471	0	
2.0087	-0.53102	-1.63606	0	
2.0093	-4.50562	-2.24118	0	
2.0100	-3.89414	-1.63606	0	
2.0107	0.0804575	-2.55495	0	
2.0113	3.42749	-4.39271	0	
2.0120	1.8988	-3.16006	0	
2.0127	-0.836758	-0.717178	0	
2.0133	-2.97693	-1.63606	0	
2.0140	-5.42284	-1.03094	0	
2.0147	-3.28267	2.01706	0	
2.0153	3.42749	1.09818	0	
2.0160	7.09635	-1.63606	0	
2.0167	11.3606	1.09818	0	
2.0173	16.5582	5.6926	0	
2.0180	13.8065	6.58907	0	
2.0187	11.3606	4.77371	0	
2.0193	11.6663	2.93595	0	
2.0200	5.56766	3.85483	0	
2.0207	1.59306	5.6926	0	
2.0213	-2.05971	4.16859	0	
2.0220	-24.0407	2.93595	0	
2.0227	-45.3941	6.29772	0	
2.0233	-38.684	8.13548	0	
2.0240	-26.1648	3.85483	0	
2.0247	-24.9579	2.01706	0	
2.0253	-19.1489	5.37883	0	
2.0260	-8.46413	6.29772	0	
2.0267	-4.50562	4.77371	0	
2.0273	-2.36545	3.85483	0	
2.0280	-0.836758	1.09818	0	
2.0287	-4.19988	-3.78759	0	
2.0293	-7.25727	-4.99783	0	
2.0300	-6.34005	-2.55495	0	
2.0307	-4.50562	-2.55495	0	
2.0313	-2.36545	-4.39271	0	
2.0320	2.51027	-6.20807	0	
2.0327	8.31931	-8.04584	0	
2.0333	8.93078	-8.65096	0	
2.0340	5.8734	-7.12695	0	
2.0347	6.17914	-4.99783	0	
2.0353	5.56766	-3.47383	0	
2.0360	-3.28267	-1.94983	0	
2.0367	-17.3145	0.49306	0	
2.0373	-28.6107	4.16859	0	
2.0380	-30.4451	9.03196	0	
2.0387	-20.9833	11.1835	0	
2.0393	-10.91	9.65949	0	
2.0400	-6.95153	8.7406	0	
2.0407	-2.36545	8.7406	0	
2.0413	5.8734	5.98395	0	
2.0420	13.8065	2.62218	0	
2.0427	18.6822	2.62218	0	
2.0433	20.8224	2.01706	0	
2.0440	23.2683	-2.24118	0	
2.0447	26.02	-4.68407	0	
2.0453	22.9626	-6.20807	0	
2.0460	18.3765	-8.96472	0	
2.0467	12.8893	-9.27849	0	
2.0473	-1.1425	-6.20807	0	
2.0480	-13.6617	-5.3116	0	
2.0487	-8.15839	-5.3116	0	
2.0493	0.386196	-4.99783	0	
2.0500	-0.225281	-5.91672	0	
2.0507	0.675843	-5.3116	0	
2.0513	2.81601	-0.717178	0	
2.0520	-2.36545	2.62218	0	
2.0527	-4.19988	1.09818	0	
2.0533	-2.36545	-1.63606	0	
2.0540	-7.25727	-0.112059	0	
2.0547	-10.91	4.77371	0	
2.0553	-5.1171	6.58907	0	
2.0560	0.675843	3.54106	0	
2.0567	1.28732	2.01706	0	
2.0573	0.386196	2.93595	0	
2.0580	-0.53102	2.93595	0	
2.0587	-0.836758	2.62218	0	
2.0593	-0.225281	4.16859	0	
2.0600	2.51027	3.85483	0	
2.0607	9.83191	2.01706	0	
2.0613	13.8065	0.201706	0	
2.0620	9.23652	-1.03094	0	
2.0627	6.79061	1.09818	0	
2.0633	8.31931	4.45995	0	
2.0640	3.42749	4.77371	0	
2.0647	-1.44824	4.77371	0	
2.0653	2.51027	6.29772	0	
2.0660	1.59306	6.58907	0	
2.0667	-2.67119	5.98395	0	
2.0673	3.12175	5.6926	0	
2.0680	8.01357	3.85483	0	
2.0687	0.0804575	3.54106	0	
2.0693	-7.25727	4.77371	0	
2.0700	-7.25727	3.54106	0	
2.0707	-7.56301	2.33083	0	
2.0713	-8.15839	4.45995	0	
2.0720	-7.25727	5.06507	0	
2.0727	-7.25727	4.77371	0	
2.0733	-9.07561	6.29772	0	
2.0740	-15.1904	6.58907	0	
2.0747	-25.859	6.90283	0	
2.0753	-29.8336	8.42684	0	
2.0760	-23.735	5.6926	0	
2.0767	-17.9259	0.201706	0	
2.0773	-14.5789	-0.425824	0	
2.0780	-6.95153	0.806825	0	
2.0787	0.0804575	-0.425824	0	
2.0793	2.51027	-2.24118	0	
2.0800	2.51027	-3.78759	0	
2.0807	0.981582	-4.68407	0	
2.0813	-3.58841	-3.47383	0	
2.0820	-5.1171	-3.47383	0	
2.0827	-2.67119	-5.60295	0	
2.0833	-0.836758	-6.52183	0	
2.0840	0.675843	-3.78759	0	
2.0847	4.95618	-2.24118	0	
2.0853	8.31931	-4.99783	0	
2.0860	8.62505	-7.12695	0	
2.0867	9.23652	-2.86871	0	
2.0873	9.83191	-0.425824	0	
2.0880	7.40209	-3.16006	0	
2.0887	4.34471	-2.55495	0	
2.0893	2.81601	0.806825	0	
2.0900	0.981582	0.201706	0	
2.0907	0.386196	0.201706	0	
2.0913	1.8988	2.01706	0	
2.0920	2.81601	1.09818	0	
2.0927	3.73323	0.806825	0	
2.0933	7.40209	2.33083	0	
2.0940	11.0549	2.93595	0	
2.0947	9.52617	3.54106	0	
2.0953	4.95618	5.6926	0	
2.0960	3.42749	7.82172	0	
2.0967	7.40209	8.42684	0	
2.0973	14.1122	6.58907	0	
2.0980	17.4754	2.93595	0	
2.0987	11.3606	2.33083	0	
2.0993	-0.53102	1.09818	0	
2.1000	-8.46413	-3.16006	0	
2.1007	-9.68708	-4.68407	0	
2.1013	-5.42284	-3.78759	0	
2.1020	1.28732	-6.20807	0	
2.1027	3.73323	-7.75448	0	
2.1033	-2.97693	-3.78759	0	
2.1040	-12.7445	2.01706	0	
2.1047	-16.7191	3.85483	0	
2.1053	-15.4961	-0.112059	0	
2.1060	-15.4961	-3.47383	0	
2.1067	-20.6776	0.201706	0	
2.1073	-20.3718	2.93595	0	
2.1080	-10.2986	-0.717178	0	
2.1087	-2.36545	-1.94983	0	
2.1093	-1.44824	-1.03094	0	
2.1100	0.981582	-3.78759	0	
2.1107	6.48488	-7.12695	0	
2.1113	10.1376	-8.96472	0	
2.1120	14.418	-10.4887	0	
2.1127	19.2937	-10.8025	0	
2.1133	23.8798	-14.1418	0	
2.1140	26.6314	-17.8174	0	
2.1147	27.2268	-15.6883	0	
2.1153	27.5326	-14.4556	0	
2.1160	27.5326	-15.9796	0	
2.1167	26.9211	-11.0938	0	
2.1173	26.6314	-5.91672	0	
2.1180	24.1855	-6.8356	0	
2.1187	15.3352	-3.16006	0	
2.1193	8.31931	4.45995	0	
2.1200	3.73323	5.37883	0	
2.1207	-9.99282	5.06507	0	
2.1213	-21.2891	8.42684	0	
2.1220	-19.1489	8.42684	0	
2.1227	-20.0661	7.2166	0	
2.1233	-31.0566	9.34572	0	
2.1240	-32.2796	10.2646	0	
2.1247	-24.6522	7.82172	0	
2.1253	-21.9005	4.77371	0	
2.1260	-22.8178	5.06507	0	
2.1267	-22.2063	6.58907	0	
2.1273	-17.3145	4.45995	0	
2.1280	-8.15839	3.54106	0	
2.1287	-3.58841	7.2166	0	
2.1293	-3.58841	6.90283	0	
2.1300	-2.05971	3.85483	0	
2.1307	0.0804575	6.58907	0	
2.1313	2.81601	7.82172	0	
2.1320	5.26192	3.54106	0	
2.1327	1.59306	2.93595	0	
2.1333	-2.67119	5.37883	0	
2.1340	-3.28267	4.16859	0	
2.1347	-13.3559	4.16859	0	
2.1353	-27.3877	4.16859	0	
2.1360	-23.4292	2.62218	0	
2.1367	-9.68708	4.77371	0	
2.1373	-4.50562	6.58907	0	
2.1380	-0.53102	3.85483	0	
2.1387	5.56766	2.93595	0	
2.1393	5.8734	5.06507	0	
2.1400	6.79061	5.6926	0	
2.1407	7.40209	5.37883	0	
2.1413	1.8988	5.98395	0	
2.1420	1.8988	5.6926	0	
2.1427	8.62505	6.58907	0	
2.1433	6.48488	8.7406	0	
2.1440	-0.836758	9.34572	0	
2.1447	-0.836758	7.50795	0	
2.1453	-1.1425	4.77371	0	
2.1460	-4.50562	4.77371	0	
2.1467	-3.28267	5.6926	0	
2.1473	-2.36545	4.77371	0	
2.1480	-3.58841	2.33083	0	
2.1487	-0.53102	0.201706	0	
2.1493	0.675843	-1.03094	0	
2.1500	-5.1171	-2.55495	0	
2.1507	-7.25727	-4.07895	0	
2.1513	-4.81136	-3.47383	0	
2.1520	-5.42284	-1.34471	0	
2.1527	-5.42284	-1.94983	0	
2.1533	-3.28267	-4.39271	0	
2.1540	-8.15839	-5.91672	0	
2.1547	-17.6202	-6.20807	0	
2.1553	-20.0661	-3.47383	0	
2.1560	-17.6202	-1.34471	0	
2.1567	-14.5789	-2.24118	0	
2.1573	-10.2986	0.201706	0	
2.1580	-8.76987	5.6926	0	
2.1587	-11.2158	5.06507	0	
2.1593	-13.9674	2.93595	0	
2.1600	-14.5789	4.77371	0	
2.1607	-11.8273	4.45995	0	
2.1613	-8.76987	1.09818	0	
2.1620	-13.9674	-0.425824	0	
2.1627	-20.0661	-1.63606	0	
2.1633	-12.7445	-0.717178	0	
2.1640	-2.67119	3.85483	0	
2.1647	2.51027	5.6926	0	
2.1653	11.0549	5.98395	0	
2.1660	17.1696	8.42684	0	
2.1667	14.1122	7.50795	0	
2.1673	13.8065	2.93595	0	
2.1680	19.2937	-2.86871	0	
2.1687	23.8798	-7.75448	0	
2.1693	29.6727	-9.8836	0	
2.1700	34.8703	-9.56984	0	
2.1707	33.3416	-8.96472	0	
2.1713	29.367	-7.44072	0	
2.1720	25.4085	-6.52183	0	
2.1727	20.2109	-7.12695	0	
2.1733	14.7237	-5.60295	0	
2.1740	5.8734	-0.717178	0	
2.1747	-7.86875	1.09818	0	
2.1753	-15.4961	0.806825	0	
2.1760	-15.8019	1.72571	0	
2.1767	-15.1904	2.62218	0	
2.1773	-11.8273	3.85483	0	
2.1780	-5.42284	5.6926	0	
2.1787	-3.28267	5.37883	0	
2.1793	-3.89414	3.85483	0	
2.1800	-0.836758	4.77371	0	
2.1807	0.386196	5.6926	0	
2.1813	-3.58841	6.29772	0	
2.1820	-4.19988	8.42684	0	
2.1827	4.03897	7.82172	0	
2.1833	12.2778	2.01706	0	
2.1840	15.3352	-0.717178	0	
2.1847	17.7811	0.806825	0	
2.1853	22.3511	-1.94983	0	
2.1860	20.5167	-6.52183	0	
2.1867	9.83191	-4.99783	0	
2.1873	0.981582	-0.717178	0	
2.1880	-5.42284	-0.425824	0	
2.1887	-17.0087	-2.55495	0	
2.1893	-27.3877	-1.63606	0	
2.1900	-24.9579	0.806825	0	
2.1907	-17.3145	-0.112059	0	
2.1913	-12.4387	-4.39271	0	
2.1920	-8.76987	-2.55495	0	
2.1927	-7.56301	3.85483	0	
2.1933	-9.07561	4.45995	0	
2.1940	-9.99282	2.33083	0	
2.1947	-14.2732	6.29772	0	
2.1953	-19.1489	8.42684	0	
2.1960	-18.5374	5.37883	0	
2.1967	-14.5789	4.45995	0	
2.1973	-11.8273	4.16859	0	
2.1980	-5.42284	2.01706	0	
2.1987	2.81601	3.54106	0	
2.1993	2.81601	4.16859	0	
2.2000	-2.97693	1.09818	0	
2.2007	-5.72858	1.41194	0	
2.2013	-3.89414	3.85483	0	
2.2020	-2.97693	2.33083	0	
2.2027	-4.81136	1.72571	0	
2.2033	-5.42284	2.62218	0	
2.2040	0.0804575	0.201706	0	
2.2047	6.48488	-2.24118	0	
2.2053	8.01357	-0.717178	0	
2.2060	7.09635	-0.112059	0	
2.2067	8.31931	-1.63606	0	
2.2073	9.23652	-1.03094	0	
2.2080	8.31931	1.72571	0	
2.2087	7.40209	2.62218	0	
2.2093	5.56766	1.41194	0	
2.2100	2.51027	0.201706	0	
2.2107	2.20454	-1.94983	0	
2.2113	6.17914	-5.60295	0	
2.2120	8.62505	-6.20807	0	
2.2127	9.23652	-3.16006	0	
2.2133	8.93078	-1.94983	0	
2.2140	4.65044	-1.63606	0	
2.2147	-6.95153	2.01706	0	
2.2153	-12.7445	2.01706	0	
2.2160	-5.72858	-3.47383	0	
2.2167	-0.836758	-4.68407	0	
2.2173	-5.72858	0.201706	0	
2.2180	-9.68708	3.24971	0	
2.2187	-10.6043	4.77371	0	
2.2193	-17.0087	7.82172	0	
2.2200	-19.1489	6.90283	0	
2.2207	-9.68708	3.24971	0	
2.2213	-3.58841	3.85483	0	
2.2220	-7.25727	4.77371	0	
2.2227	-8.15839	1.09818	0	
2.2233	-6.95153	0.49306	0	
2.2240	-7.86875	3.24971	0	
2.2247	-5.72858	2.62218	0	
2.2253	-2.67119	0.49306	0	
2.2260	0.0804575	2.01706	0	
2.2267	9.23652	2.01706	0	
2.2273	14.1122	-0.717178	0	
2.2280	4.03897	0.201706	0	
2.2287	-3.89414	3.85483	0	
2.2293	0.386196	3.54106	0	
2.2300	3.42749	2.01706	0	
2.2307	0.0804575	2.01706	0	
2.2313	-2.97693	0.49306	0	
2.2320	-8.15839	-1.63606	0	
2.2327	-12.7445	-2.55495	0	
2.2333	-11.2158	-3.78759	0	
2.2340	-9.07561	-5.3116	0	
2.2347	-8.76987	-5.3116	0	
2.2353	-4.50562	-4.68407	0	
2.2360	1.8988	-3.78759	0	
2.2367	6.17914	-0.717178	0	
2.2373	11.6663	1.09818	0	
2.2380	18.6822	1.09818	0	
2.2387	17.4754	1.09818	0	
2.2393	7.40209	2.01706	0	
2.2400	-3.58841	0.806825	0	
2.2407	-9.07561	-2.55495	0	
2.2413	-11.2158	-3.16006	0	
2.2420	-8.76987	-0.112059	0	
2.2427	-3.58841	2.01706	0	
2.2433	-2.05971	0.201706	0	
2.2440	-0.836758	-1.34471	0	
2.2447	5.56766	-1.03094	0	
2.2453	7.70783	-1.94983	0	
2.2460	3.73323	-1.94983	0	
2.2467	5.26192	-1.03094	0	
2.2473	11.6663	-5.60295	0	
2.2480	15.0295	-9.8836	0	
2.2487	12.2778	-6.8356	0	
2.2493	5.56766	-3.16006	0	
2.2500	1.59306	-2.86871	0	
2.2507	0.675843	-1.03094	0	
2.2513	-9.99282	1.09818	0	
2.2520	-26.4705	2.01706	0	
2.2527	-27.3877	4.77371	0	
2.2533	-16.4133	4.77371	0	
2.2540	-11.8273	2.01706	0	
2.2547	-13.0502	3.85483	0	
2.2553	-12.7445	5.37883	0	
2.2560	-9.99282	1.09818	0	
2.2567	-6.34005	0.201706	0	
2.2573	-5.72858	3.54106	0	
2.2580	-3.58841	2.33083	0	
2.2587	7.70783	-2.24118	0	
2.2593	14.1122	-2.55495	0	
2.2600	5.56766	-0.425824	0	
2.2607	-1.75397	0.201706	0	
2.2613	0.981582	1.09818	0	
2.2620	2.20454	2.93595	0	
2.2627	2.81601	1.09818	0	
2.2633	8.62505	-1.94983	0	
2.2640	11.9721	-1.34471	0	
2.2647	10.1376	0.49306	0	
2.2653	11.0549	-0.112059	0	
2.2660	12.8893	-0.425824	0	
2.2667	10.1376	2.01706	0	
2.2673	5.56766	2.62218	0	
2.2680	5.26192	0.201706	0	
2.2687	8.31931	-2.24118	0	
2.2693	9.23652	-2.55495	0	
2.2700	6.17914	-1.94983	0	
2.2707	2.81601	-0.717178	0	
2.2713	0.386196	1.72571	0	
2.2720	-3.89414	4.77371	0	
2.2727	-8.46413	6.58907	0	
2.2733	-9.68708	6.58907	0	
2.2740	-8.76987	5.6926	0	
2.2747	-10.6043	5.6926	0	
2.2753	-12.7445	7.50795	0	
2.2760	-12.133	8.42684	0	
2.2767	-11.8273	7.50795	0	
2.2773	-11.2158	8.42684	0	
2.2780	-8.15839	10.8697	0	
2.2787	-8.15839	10.2646	0	
2.2793	-9.07561	8.13548	0	
2.2800	-5.42284	8.42684	0	
2.2807	-3.28267	8.42684	0	
2.2813	-5.1171	6.90283	0	
2.2820	-4.81136	7.2166	0	
2.2827	-3.58841	6.90283	0	
2.2833	-2.36545	2.93595	0	
2.2840	3.73323	-0.425824	0	
2.2847	8.62505	-1.03094	0	
2.2853	11.3606	-2.55495	0	
2.2860	17.1696	-2.55495	0	
2.2867	19.2937	-1.63606	0	
2.2873	13.5008	-3.47383	0	
2.2880	9.83191	-5.3116	0	
2.2887	8.62505	-5.3116	0	
2.2893	6.48488	-7.12695	0	
2.2900	7.70783	-9.8836	0	
2.2907	11.3606	-8.3596	0	
2.2913	15.0295	-5.60295	0	
2.2920	15.9467	-4.99783	0	
2.2927	10.1376	-4.07895	0	
2.2933	5.56766	-3.47383	0	
2.2940	11.0549	-3.78759	0	
2.2947	13.8065	-1.03094	0	
2.2953	9.52617	2.33083	0	
2.2960	10.1376	2.01706	0	
2.2967	5.26192	2.33083	0	
2.2973	-10.2986	4.77371	0	
2.2980	-15.8019	4.16859	0	
2.2987	-10.2986	2.01706	0	
2.2993	-9.99282	2.01706	0	
2.3000	-10.2986	2.01706	0	
2.3007	-7.25727	2.62218	0	
2.3013	-11.2158	5.98395	0	
2.3020	-18.2317	4.16859	0	
2.3027	-15.8019	0.201706	0	
2.3033	-9.99282	2.01706	0	
2.3040	-16.1076	3.85483	0	
2.3047	-25.5533	0.201706	0	
2.3053	-20.9833	-0.112059	0	
2.3060	-9.07561	2.01706	0	
2.3067	-7.25727	1.41194	0	
2.3073	-10.2986	1.09818	0	
2.3080	-8.15839	1.41194	0	
2.3087	-6.34005	0.201706	0	
2.3093	-6.95153	0.201706	0	
2.3100	-4.19988	0.201706	0	
2.3107	-4.19988	-0.112059	0	
2.3113	-9.99282	1.72571	0	
2.3120	-12.133	3.24971	0	
2.3127	-9.07561	3.85483	0	
2.3133	-9.68708	6.58907	0	
2.3140	-9.99282	7.2166	0	
2.3147	-4.81136	3.85483	0	
2.3153	-3.28267	3.85483	0	
2.3160	-8.46413	7.2166	0	
2.3167	-14.2732	8.42684	0	
2.3173	-17.3145	7.50795	0	
2.3180	-17.3145	9.03196	0	
2.3187	-10.2986	9.95084	0	
2.3193	-2.67119	7.50795	0	
2.3200	-2.36545	5.6926	0	
2.3207	-4.50562	6.58907	0	
2.3213	-3.89414	6.29772	0	
2.3220	-2.97693	4.77371	0	
2.3227	2.20454	6.90283	0	
2.3233	13.195	9.34572	0	
2.3240	22.6568	6.29772	0	
2.3247	22.0454	1.72571	0	
2.3253	10.1376	-0.112059	0	
2.3260	-0.836758	0.201706	0	
2.3267	0.0804575	-0.112059	0	
2.3273	5.56766	-3.16006	0	
2.3280	1.8988	-5.3116	0	
2.3287	-2.67119	-3.78759	0	
2.3293	2.81601	-2.55495	0	
2.3300	7.70783	-4.39271	0	
2.3307	0.981582	-4.99783	0	
2.3313	-5.72858	-1.63606	0	
2.3320	-0.836758	2.01706	0	
2.3327	7.70783	2.01706	0	
2.3333	9.83191	-0.112059	0	
2.3340	7.09635	-0.717178	0	
2.3347	0.981582	2.01706	0	
2.3353	-5.1171	4.77371	0	
2.3360	-6.34005	4.77371	0	
2.3367	-5.72858	4.45995	0	
2.3373	-6.34005	4.77371	0	
2.3380	-5.42284	3.24971	0	
2.3387	-3.58841	0.806825	0	
2.3393	-2.05971	-0.425824	0	
2.3400	-0.836758	-1.63606	0	
2.3407	-1.44824	-2.55495	0	
2.3413	-2.97693	-0.425824	0	
2.3420	-0.53102	2.33083	0	
2.3427	2.51027	3.54106	0	
2.3433	0.0804575	3.85483	0	
2.3440	-0.836758	2.93595	0	
2.3447	4.03897	0.806825	0	
2.3453	9.23652	1.09818	0	
2.3460	8.31931	1.72571	0	
2.3467	1.59306	1.09818	0	
2.3473	-4.19988	1.41194	0	
2.3480	-3.28267	2.33083	0	
2.3487	-1.1425	2.01706	0	
2.3493	-3.89414	2.93595	0	
2.3500	-8.15839	2.93595	0	
2.3507	-9.07561	0.201706	0	
2.3513	-10.2986	-2.55495	0	
2.3520	-12.4387	-2.55495	0	
2.3527	-9.99282	-2.55495	0	
2.3533	-2.67119	-3.47383	0	
2.3540	4.95618	-4.39271	0	
2.3547	11.9721	-5.60295	0	
2.3553	16.5582	-5.3116	0	
2.3560	16.2524	-5.91672	0	
2.3567	18.3765	-8.96472	0	
2.3573	22.9626	-13.2454	0	
2.3580	20.2109	-15.3745	0	
2.3587	14.7237	-13.5367	0	
2.3593	15.0295	-11.7214	0	
2.3600	10.1376	-12.0127	0	
2.3607	-3.28267	-11.4076	0	
2.3613	-7.86875	-7.44072	0	
2.3620	-1.75397	-4.07895	0	
2.3627	0.0804575	-2.55495	0	
2.3633	0.0804575	-3.47383	0	
2.3640	3.73323	-4.99783	0	
2.3647	7.40209	-3.47383	0	
2.3653	6.79061	-0.425824	0	
2.3660	5.56766	-1.34471	0	
2.3667	5.26192	-4.07895	0	
2.3673	2.81601	-2.55495	0	
2.3680	-0.53102	-1.63606	0	
2.3687	-0.53102	-4.07895	0	
2.3693	2.81601	-3.78759	0	
2.3700	4.65044	-1.94983	0	
2.3707	0.675843	-3.47383	0	
2.3713	-6.64579	-2.55495	0	
2.3720	-11.5215	3.24971	0	
2.3727	-12.133	5.06507	0	
2.3733	-11.8273	3.24971	0	
2.3740	-11.8273	3.85483	0	
2.3747	-12.4387	4.77371	0	
2.3753	-13.6617	5.06507	0	
2.3760	-14.8846	6.58907	0	
2.3767	-15.4961	6.58907	0	
2.3773	-12.7445	5.6926	0	
2.3780	-7.25727	7.50795	0	
2.3787	-1.75397	6.58907	0	
2.3793	-0.836758	2.62218	0	
2.3800	0.386196	2.93595	0	
2.3807	5.8734	5.6926	0	
2.3813	9.52617	5.6926	0	
2.3820	8.93078	5.6926	0	
2.3827	8.31931	5.6926	0	
2.3833	8.01357	2.33083	0	
2.3840	7.40209	-0.717178	0	
2.3847	7.09635	0.49306	0	
2.3853	4.34471	3.24971	0	
2.3860	0.386196	2.93595	0	
2.3867	0.981582	1.09818	0	
2.3873	1.59306	2.01706	0	
2.3880	-3.28267	5.06507	0	
2.3887	-4.81136	5.6926	0	
2.3893	-2.67119	3.54106	0	
2.3900	-7.86875	1.41194	0	
2.3907	-14.5789	2.01706	0	
2.3913	-11.5215	3.54106	0	
2.3920	-6.34005	4.16859	0	
2.3927	-6.34005	3.85483	0	
2.3933	-6.95153	2.62218	0	
2.3940	-5.42284	0.49306	0	
2.3947	-3.58841	0.201706	0	
2.3953	-0.836758	2.33083	0	
2.3960	-0.225281	4.77371	0	
2.3967	-1.1425	4.16859	0	
2.3973	0.386196	4.16859	0	
2.3980	2.81601	5.98395	0	
2.3987	1.28732	5.37883	0	
2.3993	-0.225281	2.01706	0	
2.4000	5.56766	2.01706	0	
2.4007	13.8065	3.54106	0	
2.4013	13.8065	2.93595	0	
2.4020	8.31931	2.93595	0	
2.4027	3.73323	4.45995	0	
2.4033	-1.75397	3.24971	0	
2.4040	-7.25727	1.41194	0	
2.4047	-6.95153	1.72571	0	
2.4053	-2.36545	2.01706	0	
2.4060	-2.97693	3.85483	0	
2.4067	-7.25727	5.98395	0	
2.4073	-4.81136	3.85483	0	
2.4080	2.81601	1.41194	0	
2.4087	3.73323	3.24971	0	
2.4093	-2.67119	5.6926	0	
2.4100	-5.42284	5.06507	0	
2.4107	-3.58841	2.93595	0	
2.4113	-2.67119	-1.03094	0	
2.4120	-4.50562	-3.47383	0	
2.4127	-10.91	-2.55495	0	
2.4133	-18.8432	-0.112059	0	
2.4140	-18.2317	-0.425824	0	
2.4147	-12.133	-1.34471	0	
2.4153	-8.46413	-0.425824	0	
2.4160	-5.42284	0.201706	0	
2.4167	-3.58841	-0.717178	0	
2.4173	-6.95153	1.09818	0	
2.4180	-9.99282	2.62218	0	
2.4187	-8.76987	0.201706	0	
2.4193	-7.86875	-0.717178	0	
2.4200	-7.25727	2.01706	0	
2.4207	-2.97693	1.72571	0	
2.4213	3.12175	-0.717178	0	
2.4220	6.79061	0.201706	0	
2.4227	9.23652	2.33083	0	
2.4233	14.7237	3.24971	0	
2.4240	21.1281	4.45995	0	
2.4247	22.3511	2.01706	0	
2.4253	22.3511	-2.55495	0	
2.4260	27.8383	-2.86871	0	
2.4267	33.9531	-1.34471	0	
2.4273	34.8703	-2.55495	0	
2.4280	31.8129	-2.55495	0	
2.4287	28.4498	-0.717178	0	
2.4293	25.4085	-2.24118	0	
2.4300	20.8224	-4.39271	0	
2.4307	14.1122	-3.47383	0	
2.4313	5.8734	-0.717178	0	
2.4320	-6.64579	3.24971	0	
2.4327	-24.9579	7.2166	0	
2.4333	-39.2955	6.58907	0	
2.4340	-41.7414	2.93595	0	
2.4347	-37.461	2.33083	0	
2.4353	-34.4036	2.62218	0	
2.4360	-32.2796	1.09818	0	
2.4367	-30.4451	0.201706	0	
2.4373	-27.9992	0.49306	0	
2.4380	-22.8178	-1.34471	0	
2.4387	-18.2317	-3.16006	0	
2.4393	-18.2317	0.201706	0	
2.4400	-18.2317	5.37883	0	
2.4407	-11.5215	5.6926	0	
2.4413	-2.67119	2.93595	0	
2.4420	0.675843	0.806825	0	
2.4427	0.981582	-0.425824	0	
2.4433	2.20454	-1.03094	0	
2.4440	1.8988	0.201706	0	
2.4447	1.28732	2.93595	0	
2.4453	4.03897	3.85483	0	
2.4460	5.8734	2.62218	0	
2.4467	5.56766	0.201706	0	
2.4473	8.01357	0.201706	0	
2.4480	10.7491	0.201706	0	
2.4487	10.1376	-1.94983	0	
2.4493	10.1376	-3.47383	0	
2.4500	11.0549	-2.55495	0	
2.4507	8.01357	-0.717178	0	
2.4513	0.0804575	2.01706	0	
2.4520	-5.42284	3.24971	0	
2.4527	-4.50562	-0.717178	0	
2.4533	-2.67119	-4.07895	0	
2.4540	-4.81136	-1.03094	0	
2.4547	-3.58841	1.41194	0	
2.4553	0.675843	0.806825	0	
2.4560	-1.75397	1.41194	0	
2.4567	-4.19988	-0.425824	0	
2.4573	1.28732	-5.60295	0	
2.4580	3.73323	-5.3116	0	
2.4587	-1.44824	-1.94983	0	
2.4593	-3.58841	-2.86871	0	
2.4600	-2.97693	-0.112059	0	
2.4607	-2.97693	6.58907	0	
2.4613	0.981582	5.37883	0	
2.4620	3.73323	0.49306	0	
2.4627	-2.36545	2.93595	0	
2.4633	-9.99282	5.37883	0	
2.4640	-12.4387	3.85483	0	
2.4647	-12.7445	2.93595	0	
2.4653	-10.2986	1.09818	0	
2.4660	-6.34005	-0.717178	0	
2.4667	-6.95153	1.72571	0	
2.4673	-9.07561	3.54106	0	
2.4680	-4.50562	0.806825	0	
2.4687	1.8988	-1.63606	0	
2.4693	3.42749	-2.55495	0	
2.4700	7.70783	-4.07895	0	
2.4707	14.7237	-4.39271	0	
2.4713	16.2524	-2.24118	0	
2.4720	15.0295	0.201706	0	
2.4727	14.7237	2.01706	0	
2.4733	4.65044	2.62218	0	
2.4740	-12.133	2.93595	0	
2.4747	-22.8178	4.16859	0	
2.4753	-28.6107	5.6926	0	
2.4760	-30.7509	6.29772	0	
2.4767	-29.2222	7.50795	0	
2.4773	-31.0566	8.13548	0	
2.4780	-30.7509	7.2166	0	
2.4787	-17.9259	6.58907	0	
2.4793	-6.64579	6.90283	0	
2.4800	-7.56301	5.98395	0	
2.4807	-7.25727	5.6926	0	
2.4813	-3.28267	5.37883	0	
2.4820	-6.64579	4.77371	0	
2.4827	-13.0502	6.29772	0	
2.4833	-11.8273	9.03196	0	
2.4840	-6.34005	7.50795	0	
2.4847	-1.75397	4.77371	0	
2.4853	2.81601	5.6926	0	
2.4860	3.12175	6.58907	0	
2.4867	0.981582	6.29772	0	
2.4873	2.51027	5.37883	0	
2.4880	5.56766	3.24971	0	
2.4887	6.48488	2.93595	0	
2.4893	8.31931	3.85483	0	
2.4900	10.1376	0.49306	0	
2.4907	11.0549	-3.47383	0	
2.4913	12.2778	-4.07895	0	
2.4920	15.0295	-3.78759	0	
2.4927	15.6409	-3.47383	0	
2.4933	15.3352	-2.24118	0	
2.4940	17.4754	-3.47383	0	
2.4947	20.2109	-6.20807	0	
2.4953	19.9052	-7.12695	0	
2.4960	19.2937	-8.3596	0	
2.4967	19.9052	-9.27849	0	
2.4973	17.7811	-7.12695	0	
2.4980	11.9721	-5.60295	0	
2.4987	7.40209	-3.47383	0	
2.4993	2.20454	2.01706	0	
2.5000	-6.95153	6.29772	0	
2.5007	-15.4961	4.77371	0	
2.5013	-17.3145	4.16859	0	
2.5020	-12.7445	4.77371	0	
2.5027	-5.42284	0.201706	0	
2.5033	-0.836758	-3.78759	0	
2.5040	-4.81136	0.201706	0	
2.5047	-13.6617	5.06507	0	
2.5053	-14.5789	2.01706	0	
2.5060	-4.81136	-2.86871	0	
2.5067	3.73323	-5.3116	0	
2.5073	5.56766	-7.12695	0	
2.5080	5.8734	-7.44072	0	
2.5087	7.40209	-5.3116	0	
2.5093	7.70783	-2.55495	0	
2.5100	5.56766	-0.717178	0	
2.5107	0.675843	0.201706	0	
2.5113	-5.42284	0.806825	0	
2.5120	-8.15839	0.201706	0	
2.5127	-4.50562	1.09818	0	
2.5133	0.981582	0.201706	0	
2.5140	5.56766	-5.3116	0	
2.5147	7.40209	-8.65096	0	
2.5153	3.73323	-6.20807	0	
2.5160	-0.225281	-4.39271	0	
2.5167	1.8988	-3.47383	0	
2.5173	4.95618	-2.24118	0	
2.5180	3.12175	-2.86871	0	
2.5187	-1.1425	-1.63606	0	
2.5193	-5.42284	2.93595	0	
2.5200	-8.15839	4.77371	0	
2.5207	-5.42284	4.16859	0	
2.5213	1.8988	4.77371	0	
2.5220	7.70783	1.72571	0	
2.5227	11.0549	-2.86871	0	
2.5233	14.1122	-1.94983	0	
2.5240	17.1696	-1.34471	0	
2.5247	15.9467	-2.86871	0	
2.5253	13.195	-1.63606	0	
2.5260	14.7237	-1.63606	0	
2.5267	17.4754	-0.717178	0	
2.5273	15.6409	2.93595	0	
2.5280	10.1376	1.09818	0	
2.5287	-2.36545	-4.39271	0	
2.5293	-15.4961	-0.717178	0	
2.5300	-18.2317	5.06507	0	
2.5307	-16.1076	3.85483	0	
2.5313	-20.0661	4.16859	0	
2.5320	-23.735	6.58907	0	
2.5327	-29.2222	4.77371	0	
2.5333	-41.1299	2.93595	0	
2.5340	-46.6171	2.93595	0	
2.5347	-36.5438	1.72571	0	
2.5353	-24.3464	0.201706	0	
2.5360	-17.3145	-0.717178	0	
2.5367	-14.5789	-0.717178	0	
2.5373	-13.6617	0.201706	0	
2.5380	-10.6043	2.01706	0	
2.5387	-4.50562	2.93595	0	
2.5393	0.386196	2.93595	0	
2.5400	2.20454	2.62218	0	
2.5407	1.8988	3.24971	0	
2.5413	3.73323	5.37883	0	
2.5420	8.31931	4.45995	0	
2.5427	13.8065	2.33083	0	
2.5433	11.3606	2.93595	0	
2.5440	-2.36545	3.54106	0	
2.5447	-14.8846	1.72571	0	
2.5453	-12.7445	1.09818	0	
2.5460	-5.1171	2.01706	0	
2.5467	-4.81136	3.85483	0	
2.5473	-5.1171	6.58907	0	
2.5480	-0.836758	4.77371	0	
2.5487	1.59306	-0.425824	0	
2.5493	3.42749	-4.39271	0	
2.5500	8.31931	-7.12695	0	
2.5507	13.5008	-10.175	0	
2.5513	15.3352	-9.27849	0	
2.5520	14.1122	-5.3116	0	
2.5527	11.0549	-1.63606	0	
2.5533	7.40209	2.01706	0	
2.5540	3.42749	5.6926	0	
2.5547	-1.75397	7.50795	0	
2.5553	-6.03431	8.13548	0	
2.5560	-6.64579	7.50795	0	
2.5567	-4.81136	6.90283	0	
2.5573	-4.50562	9.03196	0	
2.5580	-5.42284	9.34572	0	
2.5587	-4.50562	3.85483	0	
2.5593	-1.75397	-0.717178	0	
2.5600	2.20454	0.49306	0	
2.5607	6.48488	1.09818	0	
2.5613	11.0549	-0.717178	0	
2.5620	14.418	-0.112059	0	
2.5627	13.8065	2.62218	0	
2.5633	12.8893	3.85483	0	
2.5640	18.988	2.93595	0	
2.5647	27.8383	0.201706	0	
2.5653	28.144	-2.24118	0	
2.5660	22.0454	-4.39271	0	
2.5667	17.1696	-5.60295	0	
2.5673	11.9721	-5.3116	0	
2.5680	6.48488	-4.99783	0	
2.5687	4.65044	-4.39271	0	
2.5693	5.26192	-1.03094	0	
2.5700	2.81601	0.49306	0	
2.5707	2.20454	-4.99783	0	
2.5713	5.8734	-8.3596	0	
2.5720	7.70783	-3.78759	0	
2.5727	7.40209	-0.425824	0	
2.5733	6.48488	-1.34471	0	
2.5740	-3.89414	2.33083	0	
2.5747	-21.9005	8.42684	0	
2.5753	-29.5279	8.42684	0	
2.5760	-21.9005	5.37883	0	
2.5767	-12.4387	5.98395	0	
2.5773	-9.07561	6.90283	0	
2.5780	-9.07561	6.29772	0	
2.5787	-9.07561	7.50795	0	
2.5793	-8.15839	8.42684	0	
2.5800	-6.03431	4.77371	0	
2.5807	-1.75397	2.01706	0	
2.5813	0.0804575	2.01706	0	
2.5820	-4.19988	2.01706	0	
2.5827	-6.34005	0.201706	0	
2.5833	-6.95153	-1.63606	0	
2.5840	-17.3145	-2.55495	0	
2.5847	-30.1394	1.09818	0	
2.5853	-29.2222	5.98395	0	
2.5860	-21.5948	5.06507	0	
2.5867	-17.0087	2.62218	0	
2.5873	-14.2732	2.62218	0	
2.5880	-15.4961	1.09818	0	
2.5887	-19.7604	-0.717178	0	
2.5893	-18.2317	2.01706	0	
2.5900	-12.133	4.45995	0	
2.5907	-7.56301	2.01706	0	
2.5913	-6.03431	1.09818	0	
2.5920	-8.15839	4.77371	0	
2.5927	-9.99282	7.50795	0	
2.5933	-5.72858	5.6926	0	
2.5940	1.8988	2.62218	0	
2.5947	5.8734	1.09818	0	
2.5953	7.40209	-0.112059	0	
2.5960	4.03897	1.09818	0	
2.5967	-5.42284	5.37883	0	
2.5973	-13.6617	6.58907	0	
2.5980	-13.3559	5.06507	0	
2.5987	-8.46413	5.6926	0	
2.5993	-4.81136	5.98395	0	
2.6000	-1.75397	4.45995	0	
2.6007	1.8988	2.01706	0	
2.6013	5.26192	-0.717178	0	
2.6020	8.31931	-1.03094	0	
2.6027	8.31931	1.09818	0	
2.6033	7.09635	-1.34471	0	
2.6040	10.1376	-5.91672	0	
2.6047	10.1376	-4.39271	0	
2.6053	1.59306	-0.112059	0	
2.6060	-1.75397	-0.112059	0	
2.6067	4.65044	-0.717178	0	
2.6073	8.01357	-1.34471	0	
2.6080	8.01357	-1.34471	0	
2.6087	11.0549	-0.425824	0	
2.6093	12.8893	-2.55495	0	
2.6100	11.3606	-5.60295	0	
2.6107	11.0549	-4.99783	0	
2.6113	9.52617	-4.07895	0	
2.6120	9.83191	-4.68407	0	
2.6127	12.5836	-2.55495	0	
2.6133	10.4434	0.201706	0	
2.6140	6.17914	0.806825	0	
2.6147	6.48488	1.41194	0	
2.6153	4.95618	2.01706	0	
2.6160	-2.36545	3.54106	0	
2.6167	-8.15839	5.98395	0	
2.6173	-10.91	4.77371	0	
2.6180	-9.68708	1.09818	0	
2.6187	-0.53102	0.806825	0	
2.6193	8.01357	-1.03094	0	
2.6200	13.8065	-8.04584	0	
2.6207	19.9052	-12.6178	0	
2.6213	13.8065	-11.4076	0	
2.6220	-2.36545	-9.27849	0	
2.6227	-8.46413	-8.65096	0	
2.6233	-7.25727	-8.04584	0	
2.6240	-9.38135	-7.44072	0	
2.6247	-7.86875	-6.20807	0	
2.6253	0.981582	-4.39271	0	
2.6260	9.23652	-3.47383	0	
2.6267	14.7237	-4.68407	0	
2.6273	15.0295	-8.3596	0	
2.6280	13.195	-11.4076	0	
2.6287	11.0549	-12.3265	0	
2.6293	2.81601	-11.0938	0	
2.6300	-3.28267	-8.3596	0	
2.6307	5.56766	-6.8356	0	
2.6313	13.5008	-6.20807	0	
2.6320	10.7491	-5.3116	0	
2.6327	8.31931	-4.07895	0	
2.6333	7.40209	-2.24118	0	
2.6340	3.73323	2.01706	0	
2.6347	3.42749	3.54106	0	
2.6353	4.03897	0.49306	0	
2.6360	-2.05971	0.806825	0	
2.6367	-14.5789	5.6926	0	
2.6373	-27.9992	7.50795	0	
2.6380	-32.2796	7.50795	0	
2.6387	-25.859	9.34572	0	
2.6393	-21.5948	10.556	0	
2.6400	-24.0407	11.1835	0	
2.6407	-24.6522	10.556	0	
2.6413	-22.8178	9.34572	0	
2.6420	-23.735	10.2646	0	
2.6427	-21.5948	11.7886	0	
2.6433	-15.1904	10.2646	0	
2.6440	-13.6617	8.7406	0	
2.6447	-18.8432	10.8697	0	
2.6453	-21.9005	12.1024	0	
2.6460	-17.3145	11.1835	0	
2.6467	-9.99282	9.03196	0	
2.6473	-3.89414	6.58907	0	
2.6480	0.981582	6.90283	0	
2.6487	5.8734	9.34572	0	
2.6493	8.62505	8.13548	0	
2.6500	7.70783	5.37883	0	
2.6507	6.79061	5.06507	0	
2.6513	8.62505	6.90283	0	
2.6520	8.01357	7.50795	0	
2.6527	3.42749	6.29772	0	
2.6533	2.81601	6.29772	0	
2.6540	6.48488	7.82172	0	
2.6547	11.0549	5.98395	0	
2.6553	15.6409	1.09818	0	
2.6560	15.6409	0.201706	0	
2.6567	9.23652	1.09818	0	
2.6573	3.73323	0.201706	0	
2.6580	0.981582	0.201706	0	
2.6587	-0.836758	2.01706	0	
2.6593	-0.53102	2.33083	0	
2.6600	0.0804575	1.09818	0	
2.6607	-0.53102	-0.717178	0	
2.6613	0.386196	0.201706	0	
2.6620	-0.836758	2.01706	0	
2.6627	-6.95153	2.93595	0	
2.6633	-10.2986	3.24971	0	
2.6640	-8.15839	3.24971	0	
2.6647	-6.64579	1.41194	0	
2.6653	-6.34005	0.201706	0	
2.6660	-3.58841	0.806825	0	
2.6667	-2.97693	2.01706	0	
2.6673	-6.03431	2.33083	0	
2.6680	-6.64579	0.806825	0	
2.6687	-3.58841	-2.24118	0	
2.6693	-1.75397	-2.55495	0	
2.6700	-2.05971	-0.717178	0	
2.6707	2.81601	-0.717178	0	
2.6713	11.3606	-2.55495	0	
2.6720	15.0295	-4.07895	0	
2.6727	13.8065	-3.47383	0	
2.6733	14.418	-1.03094	0	
2.6740	14.7237	-1.03094	0	
2.6747	12.8893	-1.03094	0	
2.6753	12.8893	1.72571	0	
2.6760	9.23652	2.93595	0	
2.6767	0.675843	2.33083	0	
2.6773	-2.36545	4.77371	0	
2.6780	-0.836758	5.06507	0	
2.6787	-3.89414	0.201706	0	
2.6793	-5.72858	-0.717178	0	
2.6800	-2.97693	2.33083	0	
2.6807	-6.64579	2.33083	0	
2.6813	-18.8432	2.01706	0	
2.6820	-26.4705	3.85483	0	
2.6827	-22.512	2.01706	0	
2.6833	-10.91	-1.94983	0	
2.6840	1.59306	-2.55495	0	
2.6847	12.8893	-4.99783	0	
2.6853	18.3765	-9.56984	0	
2.6860	10.4434	-8.96472	0	
2.6867	1.59306	-6.52183	0	
2.6873	6.48488	-7.12695	0	
2.6880	12.8893	-5.3116	0	
2.6887	7.70783	-2.55495	0	
2.6893	-0.225281	-4.07895	0	
2.6900	-1.75397	-4.07895	0	
2.6907	1.8988	-2.55495	0	
2.6913	6.48488	-6.20807	0	
2.6920	7.09635	-9.8836	0	
2.6927	4.95618	-7.12695	0	
2.6933	1.8988	-3.16006	0	
2.6940	-12.4387	-0.717178	0	
2.6947	-30.4451	2.93595	0	
2.6953	-30.1394	6.90283	0	
2.6960	-16.1076	7.2166	0	
2.6967	-9.38135	5.6926	0	
2.6973	-9.07561	4.77371	0	
2.6980	-6.95153	3.54106	0	
2.6987	-6.95153	1.41194	0	
2.6993	-6.64579	1.09818	0	
2.7000	-0.836758	1.41194	0	
2.7007	5.56766	-0.112059	0	
2.7013	6.48488	0.201706	0	
2.7020	2.51027	3.85483	0	
2.7027	-0.836758	4.16859	0	
2.7033	-2.67119	1.72571	0	
2.7040	-4.19988	3.54106	0	
2.7047	-4.50562	5.6926	0	
2.7053	-2.67119	3.54106	0	
2.7060	0.0804575	3.54106	0	
2.7067	1.8988	6.29772	0	
2.7073	2.51027	3.85483	0	
2.7080	2.51027	0.201706	0	
2.7087	1.28732	0.806825	0	
2.7093	-0.225281	2.01706	0	
2.7100	0.981582	1.41194	0	
2.7107	3.42749	1.41194	0	
2.7113	1.59306	1.09818	0	
2.7120	-0.53102	1.09818	0	
2.7127	2.81601	2.93595	0	
2.7133	4.34471	2.93595	0	
2.7140	-1.1425	1.41194	0	
2.7147	-5.1171	2.93595	0	
2.7153	-7.56301	5.98395	0	
2.7160	-10.91	5.6926	0	
2.7167	-12.7445	3.85483	0	
2.7173	-15.8019	3.85483	0	
2.7180	-18.2317	5.6926	0	
2.7187	-11.8273	6.58907	0	
2.7193	-1.75397	6.58907	0	
2.7200	1.59306	5.37883	0	
2.7207	2.51027	5.6926	0	
2.7213	1.8988	7.82172	0	
2.7220	0.386196	7.2166	0	
2.7227	4.65044	4.77371	0	
2.7233	10.4434	6.29772	0	
2.7240	11.9721	8.13548	0	
2.7247	15.3352	5.06507	0	
2.7253	20.5167	2.33083	0	
2.7260	19.5995	1.09818	0	
2.7267	14.7237	-1.63606	0	
2.7273	14.418	-2.55495	0	
2.7280	18.0868	-2.24118	0	
2.7287	19.2937	-4.39271	0	
2.7293	16.8639	-5.3116	0	
2.7300	12.5836	-2.86871	0	
2.7307	3.42749	-4.99783	0	
2.7313	-10.2986	-7.75448	0	
2.7320	-13.3559	-5.91672	0	
2.7327	-4.81136	-6.20807	0	
2.7333	-3.28267	-8.96472	0	
2.7340	-9.99282	-4.99783	0	
2.7347	-11.8273	0.806825	0	
2.7353	-11.2158	1.72571	0	
2.7360	-14.8846	2.93595	0	
2.7367	-20.0661	4.16859	0	
2.7373	-24.3464	2.93595	0	
2.7380	-26.4705	4.77371	0	
2.7387	-24.6522	9.65949	0	
2.7393	-20.3718	9.03196	0	
2.7400	-16.4133	5.6926	0	
2.7407	-10.91	5.6926	0	
2.7413	-2.67119	6.58907	0	
2.7420	0.981582	6.29772	0	
2.7427	-1.1425	4.45995	0	
2.7433	-0.836758	2.62218	0	
2.7440	4.65044	1.72571	0	
2.7447	8.62505	0.201706	0	
2.7453	10.7491	-1.34471	0	
2.7460	12.8893	-0.425824	0	
2.7467	11.3606	-0.425824	0	
2.7473	6.48488	-1.63606	0	
2.7480	8.01357	-1.34471	0	
2.7487	15.3352	-0.717178	0	
2.7493	19.9052	-2.86871	0	
2.7500	20.2109	-4.39271	0	
2.7507	19.5995	-3.78759	0	
2.7513	15.9467	-3.78759	0	
2.7520	11.9721	-4.39271	0	
2.7527	11.6663	-4.99783	0	
2.7533	8.31931	-5.91672	0	
2.7540	0.981582	-5.91672	0	
2.7547	-3.58841	-3.47383	0	
2.7553	-8.15839	-0.717178	0	
2.7560	-15.1904	0.49306	0	
2.7567	-16.1076	2.33083	0	
2.7573	-10.91	3.85483	0	
2.7580	-8.46413	2.62218	0	
2.7587	-9.07561	0.806825	0	
2.7593	-13.0502	0.201706	0	
2.7600	-19.1489	-2.24118	0	
2.7607	-18.2317	-4.39271	0	
2.7613	-11.5215	-1.94983	0	
2.7620	-5.72858	-0.112059	0	
2.7627	-0.53102	-3.78759	0	
2.7633	5.26192	-5.3116	0	
2.7640	8.31931	-2.55495	0	
2.7647	11.0549	-1.03094	0	
2.7653	13.8065	-0.717178	0	
2.7660	9.83191	1.09818	0	
2.7667	5.56766	2.01706	0	
2.7673	5.26192	1.41194	0	
2.7680	-0.53102	0.49306	0	
2.7687	-10.2986	1.72571	0	
2.7693	-8.76987	2.62218	0	
2.7700	0.981582	-0.112059	0	
2.7707	4.34471	-2.24118	0	
2.7713	2.20454	1.09818	0	
2.7720	2.20454	2.93595	0	
2.7727	0.675843	0.806825	0	
2.7733	-5.42284	1.09818	0	
2.7740	-9.99282	5.06507	0	
2.7747	-10.91	8.7406	0	
2.7753	-10.2986	11.1835	0	
2.7760	-10.2986	10.8697	0	
2.7767	-11.5215	7.50795	0	
2.7773	-11.8273	6.90283	0	
2.7780	-9.07561	8.7406	0	
2.7787	-8.15839	7.82172	0	
2.7793	-13.3559	6.58907	0	
2.7800	-14.2732	6.90283	0	
2.7807	-6.64579	5.06507	0	
2.7813	-3.58841	3.24971	0	
2.7820	-7.25727	5.37883	0	
2.7827	-6.95153	5.37883	0	
2.7833	-5.42284	1.41194	0	
2.7840	-8.46413	1.09818	0	
2.7847	-9.38135	4.16859	0	
2.7853	-4.50562	2.01706	0	
2.7860	0.0804575	-0.717178	0	
2.7867	2.81601	-0.112059	0	
2.7873	7.40209	-0.717178	0	
2.7880	9.83191	-4.99783	0	
2.7887	10.7491	-7.12695	0	
2.7893	16.2524	-6.8356	0	
2.7900	23.2683	-7.12695	0	
2.7907	24.4913	-8.3596	0	
2.7913	20.8224	-8.96472	0	
2.7920	16.5582	-8.96472	0	
2.7927	9.52617	-7.44072	0	
2.7933	1.8988	-4.99783	0	
2.7940	-3.58841	-3.16006	0	
2.7947	-9.07561	-3.16006	0	
2.7953	-13.6617	-2.55495	0	
2.7960	-12.7445	1.09818	0	
2.7967	-8.15839	2.62218	0	
2.7973	-3.28267	-0.112059	0	
2.7980	0.981582	-3.16006	0	
2.7987	3.42749	-3.16006	0	
2.7993	3.73323	-1.34471	0	
2.8000	2.20454	-0.717178	0	
2.8007	-1.75397	-0.112059	0	
2.8013	-7.56301	2.33083	0	
2.8020	-9.99282	4.45995	0	
2.8027	-6.95153	2.93595	0	
2.8033	-0.836758	1.72571	0	
2.8040	0.0804575	3.85483	0	
2.8047	-4.19988	5.98395	0	
2.8053	-5.42284	5.98395	0	
2.8060	-4.81136	5.6926	0	
2.8067	-8.15839	5.37883	0	
2.8073	-13.3559	4.45995	0	
2.8080	-15.8019	2.62218	0	
2.8087	-14.5789	1.09818	0	
2.8093	-9.07561	2.62218	0	
2.8100	-5.1171	4.16859	0	
2.8107	-7.25727	1.09818	0	
2.8113	-12.4387	-2.24118	0	
2.8120	-11.2158	-1.63606	0	
2.8127	-2.67119	-2.24118	0	
2.8133	0.981582	-4.39271	0	
2.8140	-2.67119	-4.07895	0	
2.8147	0.981582	-2.24118	0	
2.8153	13.5008	-2.55495	0	
2.8160	17.4754	-4.39271	0	
2.8167	13.8065	-3.78759	0	
2.8173	12.8893	-0.112059	0	
2.8180	11.0549	1.09818	0	
2.8187	8.62505	-1.34471	0	
2.8193	7.09635	-1.34471	0	
2.8200	1.8988	2.01706	0	
2.8207	-3.58841	2.62218	0	
2.8213	-4.50562	0.806825	0	
2.8220	-10.91	-0.425824	0	
2.8227	-19.1489	-1.63606	0	
2.8233	-13.6617	-2.24118	0	
2.8240	-2.67119	-1.94983	0	
2.8247	0.386196	-3.78759	0	
2.8253	0.0804575	-4.39271	0	
2.8260	-1.1425	-4.07895	0	
2.8267	-4.50562	-6.52183	0	
2.8273	-6.03431	-7.12695	0	
2.8280	-6.95153	-2.55495	0	
2.8287	-10.91	-1.03094	0	
2.8293	-10.91	-2.55495	0	
2.8300	-6.95153	0.201706	0	
2.8307	-9.38135	4.16859	0	
2.8313	-14.2732	5.37883	0	
2.8320	-12.133	7.2166	0	
2.8327	-7.25727	6.90283	0	
2.8333	-4.50562	3.85483	0	
2.8340	-4.50562	4.77371	0	
2.8347	-5.42284	6.58907	0	
2.8353	-3.58841	5.06507	0	
2.8360	2.20454	5.6926	0	
2.8367	5.56766	6.58907	0	
2.8373	3.73323	2.62218	0	
2.8380	0.386196	0.201706	0	
2.8387	1.8988	2.93595	0	
2.8393	6.79061	2.93595	0	
2.8400	10.4434	0.806825	0	
2.8407	12.2778	-0.112059	0	
2.8413	11.0549	-0.717178	0	
2.8420	4.65044	-1.34471	0	
2.8427	-6.64579	-0.112059	0	
2.8433	-17.6202	1.09818	0	
2.8440	-23.1235	1.41194	0	
2.8447	-18.8432	-1.03094	0	
2.8453	-7.25727	-4.39271	0	
2.8460	0.981582	-3.16006	0	
2.8467	3.73323	0.806825	0	
2.8473	3.12175	1.72571	0	
2.8480	2.20454	0.201706	0	
2.8487	1.8988	-2.55495	0	
2.8493	2.81601	-6.20807	0	
2.8500	4.65044	-5.3116	0	
2.8507	7.70783	-2.55495	0	
2.8513	11.3606	-3.47383	0	
2.8520	14.7237	-3.78759	0	
2.8527	14.7237	-0.717178	0	
2.8533	12.2778	2.01706	0	
2.8540	15.6409	3.24971	0	
2.8547	19.5995	4.77371	0	
2.8553	12.5836	7.82172	0	
2.8560	2.20454	10.556	0	
2.8567	-1.75397	8.42684	0	
2.8573	-2.67119	3.85483	0	
2.8580	-1.1425	2.33083	0	
2.8587	-0.225281	3.54106	0	
2.8593	-10.91	5.98395	0	
2.8600	-24.3464	9.34572	0	
2.8607	-24.6522	9.95084	0	
2.8613	-18.5374	9.03196	0	
2.8620	-13.6617	9.34572	0	
2.8627	-9.07561	9.34572	0	
2.8633	-5.72858	6.29772	0	
2.8640	-1.1425	3.85483	0	
2.8647	1.59306	2.93595	0	
2.8653	-4.19988	2.62218	0	
2.8660	-4.50562	0.806825	0	
2.8667	7.40209	-1.63606	0	
2.8673	12.5836	-0.717178	0	
2.8680	10.1376	1.09818	0	
2.8687	11.0549	1.09818	0	
2.8693	8.31931	2.93595	0	
2.8700	3.42749	5.37883	0	
2.8707	4.65044	3.85483	0	
2.8713	2.81601	1.09818	0	
2.8720	-0.225281	3.54106	0	
2.8727	2.20454	4.77371	0	
2.8733	-3.28267	3.54106	0	
2.8740	-17.9259	4.16859	0	
2.8747	-21.9005	5.06507	0	
2.8753	-17.3145	2.93595	0	
2.8760	-15.1904	1.41194	0	
2.8767	-9.99282	1.41194	0	
2.8773	-3.58841	1.41194	0	
2.8780	-2.36545	2.01706	0	
2.8787	-2.67119	2.93595	0	
2.8793	0.675843	2.93595	0	
2.8800	4.34471	1.72571	0	
2.8807	5.8734	-1.03094	0	
2.8813	4.34471	-2.55495	0	
2.8820	1.28732	1.09818	0	
2.8827	0.981582	3.24971	0	
2.8833	2.20454	-0.112059	0	
2.8840	1.8988	-2.24118	0	
2.8847	-0.836758	0.201706	0	
2.8853	-3.58841	1.09818	0	
2.8860	0.0804575	-1.63606	0	
2.8867	7.40209	-4.68407	0	
2.8873	8.31931	-5.60295	0	
2.8880	6.17914	-6.20807	0	
2.8887	11.3606	-7.44072	0	
2.8893	18.3765	-7.12695	0	
2.8900	18.3765	-4.39271	0	
2.8907	18.3765	-4.99783	0	
2.8913	21.7396	-6.20807	0	
2.8920	19.2937	-4.39271	0	
2.8927	13.8065	-3.78759	0	
2.8933	15.6409	-5.91672	0	
2.8940	18.0868	-4.68407	0	
2.8947	13.5008	-3.47383	0	
2.8953	7.40209	-3.78759	0	
2.8960	-0.836758	0.201706	0	
2.8967	-11.5215	5.6926	0	
2.8973	-12.7445	5.98395	0	
2.8980	-5.72858	5.06507	0	
2.8987	-3.58841	6.29772	0	
2.8993	-5.42284	7.50795	0	
2.9000	-4.50562	6.58907	0	
2.9007	-5.42284	2.93595	0	
2.9013	-1.75397	-1.63606	0	
2.9020	7.70783	-1.94983	0	
2.9027	11.0549	1.41194	0	
2.9033	6.79061	4.16859	0	
2.9040	0.981582	4.77371	0	
2.9047	-10.6043	4.77371	0	
2.9053	-21.9005	4.77371	0	
2.9060	-22.512	4.77371	0	
2.9067	-19.4546	2.93595	0	
2.9073	-21.2891	1.72571	0	
2.9080	-18.5374	3.85483	0	
2.9087	-9.38135	5.6926	0	
2.9093	-3.28267	2.93595	0	
2.9100	1.59306	-1.34471	0	
2.9107	6.79061	-1.94983	0	
2.9113	4.65044	-0.717178	0	
2.9120	-1.75397	-0.717178	0	
2.9127	2.51027	-1.63606	0	
2.9133	11.9721	-1.34471	0	
2.9140	10.4434	0.49306	0	
2.9147	2.81601	1.41194	0	
2.9153	-3.58841	0.806825	0	
2.9160	-9.99282	2.33083	0	
2.9167	-13.6617	5.06507	0	
2.9173	-14.5789	5.37883	0	
2.9180	-14.2732	4.77371	0	
2.9187	-12.7445	7.50795	0	
2.9193	-11.8273	10.2646	0	
2.9200	-13.0502	11.7886	0	
2.9207	-11.2158	11.7886	0	
2.9213	-8.15839	9.34572	0	
2.9220	-5.42284	4.77371	0	
2.9227	1.59306	0.49306	0	
2.9233	6.79061	-2.55495	0	
2.9240	4.34471	-2.86871	0	
2.9247	6.79061	-2.24118	0	
2.9253	14.7237	-1.34471	0	
2.9260	14.7237	1.41194	0	
2.9267	8.31931	2.93595	0	
2.9273	5.56766	0.201706	0	
2.9280	5.56766	-2.55495	0	
2.9287	8.93078	-5.3116	0	
2.9293	13.5008	-9.56984	0	
2.9300	12.2778	-8.3596	0	
2.9307	6.48488	-2.24118	0	
2.9313	2.51027	-1.03094	0	
2.9320	0.981582	-2.55495	0	
2.9327	0.0804575	-1.34471	0	
2.9333	-0.836758	-1.34471	0	
2.9340	-3.58841	-1.94983	0	
2.9347	-10.2986	-0.717178	0	
2.9353	-17.3145	-2.24118	0	
2.9360	-15.4961	-4.07895	0	
2.9367	-9.07561	-1.94983	0	
2.9373	-9.99282	-4.39271	0	
2.9380	-14.5789	-9.56984	0	
2.9387	-14.2732	-7.12695	0	
2.9393	-15.4961	-2.86871	0	
2.9400	-19.1489	-5.3116	0	
2.9407	-18.2317	-7.12695	0	
2.9413	-13.6617	-3.47383	0	
2.9420	-11.2158	-2.55495	0	
2.9427	-10.2986	-5.60295	0	
2.9433	-8.46413	-6.8356	0	
2.9440	-5.42284	-5.91672	0	
2.9447	-2.05971	-4.99783	0	
2.9453	-2.05971	-4.68407	0	
2.9460	-4.81136	-3.47383	0	
2.9467	-5.42284	-0.717178	0	
2.9473	-1.44824	1.09818	0	
2.9480	2.81601	-0.717178	0	
2.9487	0.0804575	-3.78759	0	
2.9493	-5.72858	-1.63606	0	
2.9500	-2.67119	2.33083	0	
2.9507	4.95618	1.72571	0	
2.9513	4.03897	1.09818	0	
2.9520	1.59306	3.54106	0	
2.9527	4.65044	2.01706	0	
2.9533	6.48488	-2.55495	0	
2.9540	3.73323	-0.717178	0	
2.9547	-0.53102	3.85483	0	
2.9553	-2.67119	4.16859	0	
2.9560	5.56766	3.85483	0	
2.9567	16.2524	4.77371	0	
2.9573	15.6409	5.37883	0	
2.9580	11.0549	6.29772	0	
2.9587	8.01357	7.50795	0	
2.9593	-2.05971	6.58907	0	
2.9600	-8.76987	5.6926	0	
2.9607	-6.03431	6.90283	0	
2.9613	-8.46413	9.65949	0	
2.9620	-12.133	11.1835	0	
2.9627	-6.03431	9.34572	0	
2.9633	-2.36545	6.58907	0	
