0.0000	8.1373	0.0151341	1
0.0007	9.35321	0.0151341	0	
0.0013	10.2752	-0.908046	0	
0.0020	10.2752	0.620498	0	
0.0027	7.52266	-0.908046	0	
0.0033	5.6921	-2.43659	0	
0.0040	5.99942	1.54368	0	
0.0047	3.55422	3.67758	0	
0.0053	-0.106894	2.14904	0	
0.0060	-1.01549	3.05709	0	
0.0067	-1.93745	5.20613	0	
0.0073	-1.93745	3.98027	0	
0.0080	2.95294	3.67758	0	
0.0087	9.66053	5.50881	0	
0.0093	9.66053	4.88831	0	
0.0100	5.99942	2.45172	0	
0.0107	7.21534	2.14904	0	
0.0113	11.1838	3.05709	0	
0.0120	10.8765	3.05709	0	
0.0127	9.35321	2.7544	0	
0.0133	9.66053	2.7544	0	
0.0140	8.1373	2.7544	0	
0.0147	5.99942	1.22586	0	
0.0153	7.82998	0.92318	0	
0.0160	8.1373	1.22586	0	
0.0167	5.6921	0.620498	0	
0.0173	5.38478	-1.21073	0	
0.0180	6.61406	-1.81609	0	
0.0187	7.21534	0.0151341	0	
0.0193	7.21534	0.92318	0	
0.0200	5.09082	-0.605364	0	
0.0207	4.47618	-3.04195	0	
0.0213	6.92138	-1.81609	0	
0.0220	6.30674	1.54368	0	
0.0227	3.2469	1.84636	0	
0.0233	2.64562	0.620498	0	
0.0240	0.200426	0.92318	0	
0.0247	-4.67661	-0.908046	0	
0.0253	-4.67661	-4.5705	0	
0.0260	-3.15337	-4.5705	0	
0.0267	-5.59857	-3.04195	0	
0.0273	-11.0902	-5.78122	0	
0.0280	-17.1965	-9.44367	0	
0.0287	-19.3344	-8.83831	0	
0.0293	-13.2281	-7.30977	0	
0.0300	-6.21321	-6.7044	0	
0.0307	-3.15337	-4.5705	0	
0.0313	0.815066	-1.81609	0	
0.0320	8.44461	0.0151341	0	
0.0327	13.9363	1.54368	0	
0.0333	14.8449	4.58563	0	
0.0340	13.0143	7.03735	0	
0.0347	10.8765	7.03735	0	
0.0353	8.1373	7.34004	0	
0.0360	1.72366	6.41686	0	
0.0367	-4.36929	1.22586	0	
0.0373	-5.90589	-3.64732	0	
0.0380	-9.25968	-4.5705	0	
0.0387	-16.2746	-4.26781	0	
0.0393	-19.0271	-3.64732	0	
0.0400	-20.5503	-4.5705	0	
0.0407	-27.5653	-10.0642	0	
0.0413	-31.5337	-13.7266	0	
0.0420	-25.7347	-9.14099	0	
0.0427	-19.3344	-3.95	0	
0.0433	-14.7514	-4.26781	0	
0.0440	-8.64504	-3.34463	0	
0.0447	-4.67661	0.0151341	0	
0.0453	-5.59857	0.92318	0	
0.0460	-6.81448	0.620498	0	
0.0467	-5.59857	0.317816	0	
0.0473	-2.24477	0.620498	0	
0.0480	2.64562	0.0151341	0	
0.0487	6.30674	0.0151341	0	
0.0493	8.1373	0.92318	0	
0.0500	9.96785	3.3749	0	
0.0507	9.96785	4.88831	0	
0.0513	9.04589	4.88831	0	
0.0520	7.21534	3.05709	0	
0.0527	6.30674	0.317816	0	
0.0533	6.61406	0.317816	0	
0.0540	9.04589	3.3749	0	
0.0547	10.8765	6.41686	0	
0.0553	10.5825	7.03735	0	
0.0560	9.66053	5.81149	0	
0.0567	8.44461	4.88831	0	
0.0573	8.75193	5.20613	0	
0.0580	9.04589	5.50881	0	
0.0587	5.6921	6.11417	0	
0.0593	-1.32281	7.03735	0	
0.0600	-4.67661	7.34004	0	
0.0607	-1.32281	8.24808	0	
0.0613	1.72366	7.64272	0	
0.0620	2.64562	4.58563	0	
0.0627	6.92138	4.58563	0	
0.0633	14.2436	8.24808	0	
0.0640	17.2901	7.64272	0	
0.0647	14.8449	2.7544	0	
0.0653	7.82998	0.620498	0	
0.0660	-1.32281	-0.908046	0	
0.0667	-5.90589	-3.64732	0	
0.0673	-3.76801	-4.87318	0	
0.0680	-2.84605	-5.17586	0	
0.0687	-4.67661	-5.17586	0	
0.0693	-5.29125	-6.40172	0	
0.0700	-6.21321	-10.0642	0	
0.0707	-8.33772	-11.5776	0	
0.0713	-4.67661	-7.00709	0	
0.0720	-1.32281	-2.43659	0	
0.0727	-6.50716	-3.34463	0	
0.0733	-9.25968	-4.87318	0	
0.0740	-0.414214	-2.73927	0	
0.0747	7.21534	0.0151341	0	
0.0753	4.47618	1.84636	0	
0.0760	-4.07533	2.7544	0	
0.0767	-11.0902	2.14904	0	
0.0773	-12.9208	2.45172	0	
0.0780	-12.9208	2.7544	0	
0.0787	-15.0587	0.0151341	0	
0.0793	-15.0587	-1.81609	0	
0.0800	-10.7829	0.0151341	0	
0.0807	-8.33772	1.84636	0	
0.0813	-8.95236	2.7544	0	
0.0820	-4.36929	3.3749	0	
0.0827	5.38478	2.45172	0	
0.0833	12.413	1.22586	0	
0.0840	18.212	2.7544	0	
0.0847	26.7502	3.05709	0	
0.0853	27.6721	2.7544	0	
0.0860	18.506	4.58563	0	
0.0867	12.1057	4.58563	0	
0.0873	12.1057	3.67758	0	
0.0880	12.1057	5.20613	0	
0.0887	12.413	7.34004	0	
0.0893	13.0143	7.34004	0	
0.0900	12.7204	7.03735	0	
0.0907	16.0742	6.71954	0	
0.0913	21.2585	7.64272	0	
0.0920	21.5658	8.86858	0	
0.0927	17.5974	5.81149	0	
0.0933	15.4595	2.45172	0	
0.0940	13.3216	4.28295	0	
0.0947	9.96785	5.50881	0	
0.0953	6.92138	2.45172	0	
0.0960	3.55422	2.45172	0	
0.0967	-1.63013	2.7544	0	
0.0973	-4.67661	-2.11877	0	
0.0980	-2.84605	-4.26781	0	
0.0987	1.41634	-0.908046	0	
0.0993	3.55422	0.0151341	0	
0.1000	3.86154	1.22586	0	
0.1007	3.55422	3.67758	0	
0.1013	2.95294	2.14904	0	
0.1020	4.47618	0.92318	0	
0.1027	5.99942	3.67758	0	
0.1033	5.38478	3.3749	0	
0.1040	7.52266	0.92318	0	
0.1047	11.7984	1.22586	0	
0.1053	11.7984	0.92318	0	
0.1060	5.99942	0.0151341	0	
0.1067	-2.84605	0.92318	0	
0.1073	-11.3976	-1.21073	0	
0.1080	-19.3344	-8.53563	0	
0.1087	-25.1334	-14.9374	0	
0.1093	-28.4872	-17.3891	0	
0.1100	-29.7031	-16.4659	0	
0.1107	-30.0105	-14.0293	0	
0.1113	-26.3493	-12.5008	0	
0.1120	-20.5503	-10.6695	0	
0.1127	-16.5819	-7.61245	0	
0.1133	-11.3976	-5.47854	0	
0.1140	-4.98393	-4.26781	0	
0.1147	-1.32281	-3.95	0	
0.1153	2.64562	-3.04195	0	
0.1160	8.1373	0.0151341	0	
0.1167	8.1373	1.54368	0	
0.1173	4.7835	-0.908046	0	
0.1180	4.16886	-0.908046	0	
0.1187	4.47618	1.84636	0	
0.1193	4.7835	1.84636	0	
0.1200	5.38478	0.92318	0	
0.1207	1.72366	0.92318	0	
0.1213	-1.01549	0.0151341	0	
0.1220	-1.93745	-1.21073	0	
0.1227	-6.50716	-0.908046	0	
0.1233	-13.8428	-2.73927	0	
0.1240	-21.165	-5.47854	0	
0.1247	-23.9041	-5.78122	0	
0.1253	-16.2746	-3.95	0	
0.1260	-2.84605	-2.43659	0	
0.1267	4.16886	-1.51341	0	
0.1273	8.1373	0.0151341	0	
0.1280	13.0143	1.84636	0	
0.1287	10.8765	2.14904	0	
0.1293	5.09082	0.0151341	0	
0.1300	5.99942	-3.34463	0	
0.1307	9.35321	-5.78122	0	
0.1313	8.75193	-4.5705	0	
0.1320	9.04589	-2.43659	0	
0.1327	12.7204	-2.11877	0	
0.1333	14.5509	-0.287548	0	
0.1340	12.7204	1.84636	0	
0.1347	13.629	1.54368	0	
0.1353	14.5509	1.84636	0	
0.1360	12.7204	1.54368	0	
0.1367	10.5825	-1.81609	0	
0.1373	9.96785	-1.81609	0	
0.1380	9.96785	0.317816	0	
0.1387	11.4911	0.317816	0	
0.1393	12.1057	0.92318	0	
0.1400	12.413	1.84636	0	
0.1407	13.629	-0.605364	0	
0.1413	10.8765	0.0151341	0	
0.1420	5.38478	4.28295	0	
0.1427	2.03098	2.7544	0	
0.1433	-0.106894	-0.908046	0	
0.1440	-4.07533	0.0151341	0	
0.1447	-6.50716	-1.81609	0	
0.1453	-9.567	-6.09904	0	
0.1460	-13.5354	-4.5705	0	
0.1467	-11.9988	-0.605364	0	
0.1473	-8.64504	-0.908046	0	
0.1480	-6.50716	-1.21073	0	
0.1487	-1.01549	0.92318	0	
0.1493	4.47618	1.54368	0	
0.1500	5.6921	0.620498	0	
0.1507	7.52266	0.317816	0	
0.1513	8.44461	-0.287548	0	
0.1520	4.47618	-2.73927	0	
0.1527	5.09082	-2.73927	0	
0.1533	13.3216	0.92318	0	
0.1540	18.506	3.67758	0	
0.1547	18.212	4.58563	0	
0.1553	18.212	5.81149	0	
0.1560	17.5974	7.03735	0	
0.1567	16.0742	6.41686	0	
0.1573	13.9363	5.50881	0	
0.1580	9.35321	5.20613	0	
0.1587	1.12239	4.88831	0	
0.1593	-5.90589	3.05709	0	
0.1600	-9.25968	1.22586	0	
0.1607	-10.7829	0.0151341	0	
0.1613	-12.9208	-2.11877	0	
0.1620	-15.6733	-6.09904	0	
0.1627	-18.4125	-8.23295	0	
0.1633	-17.1965	-8.83831	0	
0.1640	-14.444	-9.14099	0	
0.1647	-15.0587	-7.30977	0	
0.1653	-15.6733	-4.87318	0	
0.1660	-8.95236	-3.95	0	
0.1667	-2.53873	-0.908046	0	
0.1673	-2.24477	1.54368	0	
0.1680	-2.24477	-1.21073	0	
0.1687	-1.01549	-3.95	0	
0.1693	-1.93745	-3.95	0	
0.1700	-1.63013	-4.26781	0	
0.1707	1.72366	-3.04195	0	
0.1713	4.47618	0.92318	0	
0.1720	7.21534	1.54368	0	
0.1727	10.5825	-0.908046	0	
0.1733	12.1057	0.0151341	0	
0.1740	10.2752	1.84636	0	
0.1747	7.52266	-1.51341	0	
0.1753	9.66053	-2.11877	0	
0.1760	16.3815	2.7544	0	
0.1767	18.506	4.58563	0	
0.1773	13.629	3.67758	0	
0.1780	8.44461	5.81149	0	
0.1787	2.03098	7.34004	0	
0.1793	1.12239	4.28295	0	
0.1800	9.35321	1.84636	0	
0.1807	13.9363	1.84636	0	
0.1813	12.7204	0.0151341	0	
0.1820	13.3216	-1.51341	0	
0.1827	9.35321	-0.605364	0	
0.1833	-0.106894	-0.908046	0	
0.1840	-3.15337	-3.64732	0	
0.1847	-2.24477	-3.64732	0	
0.1853	-2.84605	0.620498	0	
0.1860	-2.24477	0.92318	0	
0.1867	-5.90589	-5.17586	0	
0.1873	-11.7049	-6.40172	0	
0.1880	-6.21321	-0.908046	0	
0.1887	3.55422	0.317816	0	
0.1893	4.47618	-1.51341	0	
0.1900	2.64562	0.620498	0	
0.1907	1.12239	2.7544	0	
0.1913	-2.84605	2.7544	0	
0.1920	-2.84605	4.58563	0	
0.1927	0.815066	5.20613	0	
0.1933	2.03098	3.67758	0	
0.1940	5.6921	5.20613	0	
0.1947	8.75193	7.64272	0	
0.1953	6.61406	6.41686	0	
0.1960	10.8765	4.58563	0	
0.1967	17.2901	3.67758	0	
0.1973	8.75193	0.317816	0	
0.1980	1.72366	-2.43659	0	
0.1987	13.629	0.620498	0	
0.1993	22.7818	5.50881	0	
0.2000	13.9363	6.11417	0	
0.2007	3.55422	3.67758	0	
0.2013	-3.76801	0.0151341	0	
0.2020	-11.9988	-4.5705	0	
0.2027	-17.5039	-7.61245	0	
0.2033	-19.3344	-6.7044	0	
0.2040	-22.9955	-5.47854	0	
0.2047	-25.7347	-6.40172	0	
0.2053	-23.5968	-5.47854	0	
0.2060	-19.0271	-3.34463	0	
0.2067	-13.8428	-2.73927	0	
0.2073	-9.25968	-2.11877	0	
0.2080	-7.42912	0.620498	0	
0.2087	-7.1218	1.84636	0	
0.2093	-5.59857	0.0151341	0	
0.2100	-5.90589	-1.81609	0	
0.2107	-6.81448	0.317816	0	
0.2113	-3.46069	3.05709	0	
0.2120	0.815066	2.7544	0	
0.2127	3.86154	1.22586	0	
0.2133	9.04589	-0.605364	0	
0.2140	10.5825	-1.51341	0	
0.2147	4.47618	-0.605364	0	
0.2153	2.03098	0.92318	0	
0.2160	8.1373	0.92318	0	
0.2167	13.9363	-0.605364	0	
0.2173	20.3499	-0.908046	0	
0.2180	25.5343	0.317816	0	
0.2187	18.8133	2.14904	0	
0.2193	8.75193	1.84636	0	
0.2200	7.21534	1.22586	0	
0.2207	5.38478	2.7544	0	
0.2213	0.507746	3.67758	0	
0.2220	2.95294	1.84636	0	
0.2227	7.52266	0.92318	0	
0.2233	4.16886	2.45172	0	
0.2240	-1.32281	2.45172	0	
0.2247	-4.98393	-0.605364	0	
0.2253	-10.7829	-3.64732	0	
0.2260	-16.5819	-3.64732	0	
0.2267	-19.0271	-2.11877	0	
0.2273	-16.8892	-2.11877	0	
0.2280	-11.9988	-3.34463	0	
0.2287	-5.59857	-0.605364	0	
0.2293	-1.63013	3.3749	0	
0.2300	-5.90589	1.54368	0	
0.2307	-14.7514	-2.73927	0	
0.2313	-16.8892	-3.95	0	
0.2320	-11.7049	-2.73927	0	
0.2327	-5.90589	-0.908046	0	
0.2333	-1.01549	2.14904	0	
0.2340	3.86154	3.67758	0	
0.2347	6.61406	3.05709	0	
0.2353	8.1373	0.92318	0	
0.2360	5.6921	0.0151341	0	
0.2367	-0.106894	1.84636	0	
0.2373	-1.01549	0.620498	0	
0.2380	4.7835	-4.5705	0	
0.2387	8.75193	-3.95	0	
0.2393	6.92138	0.92318	0	
0.2400	3.2469	0.317816	0	
0.2407	0.815066	-1.81609	0	
0.2413	-1.01549	-0.287548	0	
0.2420	-5.59857	-0.908046	0	
0.2427	-9.87432	-2.73927	0	
0.2433	-9.25968	-2.73927	0	
0.2440	-9.567	-3.64732	0	
0.2447	-14.1367	-3.64732	0	
0.2453	-14.7514	-0.908046	0	
0.2460	-8.95236	-0.605364	0	
0.2467	-7.73644	-2.43659	0	
0.2473	-10.1683	-3.64732	0	
0.2480	-9.567	-4.5705	0	
0.2487	-8.95236	-2.11877	0	
0.2493	-12.9208	0.317816	0	
0.2500	-16.5819	-1.81609	0	
0.2507	-15.6733	-2.73927	0	
0.2513	-12.9208	0.92318	0	
0.2520	-9.567	0.620498	0	
0.2527	-7.42912	-1.81609	0	
0.2533	-6.21321	1.22586	0	
0.2540	-4.98393	3.67758	0	
0.2547	-4.07533	2.14904	0	
0.2553	-4.67661	2.45172	0	
0.2560	-6.50716	4.58563	0	
0.2567	-8.33772	2.7544	0	
0.2573	-6.50716	0.0151341	0	
0.2580	-5.59857	0.620498	0	
0.2587	-9.87432	1.22586	0	
0.2593	-11.9988	0.0151341	0	
0.2600	-4.36929	1.22586	0	
0.2607	2.95294	3.67758	0	
0.2613	4.16886	2.45172	0	
0.2620	2.03098	1.54368	0	
0.2627	-1.93745	1.84636	0	
0.2633	-3.46069	0.92318	0	
0.2640	0.815066	0.620498	0	
0.2647	3.86154	0.92318	0	
0.2653	3.55422	-1.81609	0	
0.2660	5.38478	-5.17586	0	
0.2667	8.1373	-6.40172	0	
0.2673	10.8765	-7.30977	0	
0.2680	12.7204	-5.47854	0	
0.2687	11.4911	-0.908046	0	
0.2693	10.5825	0.92318	0	
0.2700	11.7984	0.92318	0	
0.2707	9.96785	4.58563	0	
0.2713	4.47618	6.71954	0	
0.2720	-1.01549	4.58563	0	
0.2727	-7.42912	4.58563	0	
0.2733	-7.42912	6.11417	0	
0.2740	1.12239	5.50881	0	
0.2747	9.04589	3.98027	0	
0.2753	13.0143	1.54368	0	
0.2760	11.7984	-4.5705	0	
0.2767	-1.93745	-9.74636	0	
0.2773	-14.1367	-11.2749	0	
0.2780	-10.1683	-11.8954	0	
0.2787	-6.81448	-11.8954	0	
0.2793	-10.1683	-10.6695	0	
0.2800	-4.67661	-9.44367	0	
0.2807	2.64562	-6.40172	0	
0.2813	-1.32281	-1.21073	0	
0.2820	-6.21321	-0.908046	0	
0.2827	-5.59857	-4.5705	0	
0.2833	-8.95236	-3.04195	0	
0.2840	-14.444	0.0151341	0	
0.2847	-14.1367	-1.81609	0	
0.2853	-10.1683	-2.73927	0	
0.2860	-4.67661	1.22586	0	
0.2867	0.815066	3.05709	0	
0.2873	2.64562	1.54368	0	
0.2880	0.507746	1.22586	0	
0.2887	-1.01549	1.22586	0	
0.2893	0.815066	0.620498	0	
0.2900	5.38478	2.7544	0	
0.2907	6.30674	3.67758	0	
0.2913	5.09082	1.22586	0	
0.2920	7.52266	1.22586	0	
0.2927	11.7984	4.58563	0	
0.2933	11.7984	4.88831	0	
0.2940	10.5825	4.88831	0	
0.2947	11.1838	7.64272	0	
0.2953	13.3216	7.9454	0	
0.2960	13.629	5.81149	0	
0.2967	8.44461	4.58563	0	
0.2973	4.47618	3.67758	0	
0.2980	8.44461	1.84636	0	
0.2987	9.96785	1.22586	0	
0.2993	4.47618	2.7544	0	
0.3000	1.72366	5.81149	0	
0.3007	0.815066	4.58563	0	
0.3013	-6.21321	-0.605364	0	
0.3020	-11.7049	-2.11877	0	
0.3027	-15.9673	-2.11877	0	
0.3033	-24.2115	-7.00709	0	
0.3040	-26.6567	-11.5776	0	
0.3047	-19.3344	-8.83831	0	
0.3053	-12.3062	-3.64732	0	
0.3060	-11.3976	-3.64732	0	
0.3067	-15.366	-8.23295	0	
0.3073	-17.5039	-12.1981	0	
0.3080	-8.04376	-11.2749	0	
0.3087	7.82998	-7.00709	0	
0.3093	15.7668	-5.47854	0	
0.3100	18.212	-4.5705	0	
0.3107	19.428	-1.81609	0	
0.3113	15.1522	-1.81609	0	
0.3120	10.8765	-4.26781	0	
0.3127	12.7204	-2.73927	0	
0.3133	14.5509	0.620498	0	
0.3140	14.5509	0.317816	0	
0.3147	13.629	-1.51341	0	
0.3153	13.0143	-0.908046	0	
0.3160	14.8449	2.45172	0	
0.3167	18.212	3.67758	0	
0.3173	17.9047	2.7544	0	
0.3180	16.3815	4.58563	0	
0.3187	17.2901	7.34004	0	
0.3193	15.4595	5.50881	0	
0.3200	9.96785	3.3749	0	
0.3207	4.47618	4.28295	0	
0.3213	-1.32281	3.3749	0	
0.3220	-4.98393	0.92318	0	
0.3227	-7.1218	-0.287548	0	
0.3233	-13.2281	-2.73927	0	
0.3240	-17.1965	-4.26781	0	
0.3247	-11.3976	-1.81609	0	
0.3253	-7.42912	0.620498	0	
0.3260	-9.25968	0.92318	0	
0.3267	-7.1218	0.0151341	0	
0.3273	-6.50716	-1.51341	0	
0.3280	-12.3062	-3.34463	0	
0.3287	-14.444	-4.5705	0	
0.3293	-10.4756	-4.5705	0	
0.3300	-9.25968	-2.73927	0	
0.3307	-11.0902	-1.81609	0	
0.3313	-9.25968	-2.43659	0	
0.3320	-3.76801	-1.81609	0	
0.3327	4.47618	0.0151341	0	
0.3333	11.7984	0.92318	0	
0.3340	18.212	3.3749	0	
0.3347	19.428	4.58563	0	
0.3353	17.2901	4.58563	0	
0.3360	15.7668	7.03735	0	
0.3367	15.4595	8.55076	0	
0.3373	11.7984	4.88831	0	
0.3380	8.1373	2.14904	0	
0.3387	8.1373	2.7544	0	
0.3393	7.52266	3.3749	0	
0.3400	2.95294	3.3749	0	
0.3407	-1.32281	2.14904	0	
0.3413	-1.93745	0.92318	0	
0.3420	-1.01549	0.92318	0	
0.3427	-4.07533	-0.908046	0	
0.3433	-7.42912	-4.5705	0	
0.3440	-5.59857	-4.5705	0	
0.3447	-5.59857	-3.34463	0	
0.3453	-8.64504	-4.5705	0	
0.3460	-4.67661	-3.95	0	
0.3467	2.64562	-3.04195	0	
0.3473	5.09082	-5.17586	0	
0.3480	9.04589	-3.64732	0	
0.3487	16.0742	0.0151341	0	
0.3493	14.5509	-0.287548	0	
0.3500	7.82998	-1.51341	0	
0.3507	6.30674	-0.287548	0	
0.3513	6.92138	0.620498	0	
0.3520	5.99942	1.54368	0	
0.3527	6.61406	1.84636	0	
0.3533	8.75193	-1.51341	0	
0.3540	9.66053	-2.73927	0	
0.3547	9.96785	-0.605364	0	
0.3553	9.96785	-0.605364	0	
0.3560	10.8765	-0.908046	0	
0.3567	11.7984	1.54368	0	
0.3573	9.96785	2.7544	0	
0.3580	2.95294	0.92318	0	
0.3587	-2.24477	-0.908046	0	
0.3593	-4.67661	-1.81609	0	
0.3600	-5.59857	-2.43659	0	
0.3607	-3.76801	-2.43659	0	
0.3613	-1.93745	-3.04195	0	
0.3620	-6.21321	-3.64732	0	
0.3627	-9.25968	-2.11877	0	
0.3633	-6.21321	0.0151341	0	
0.3640	-5.59857	1.84636	0	
0.3647	-9.25968	1.84636	0	
0.3653	-6.21321	3.98027	0	
0.3660	3.86154	6.71954	0	
0.3667	10.8765	6.41686	0	
0.3673	12.413	3.67758	0	
0.3680	11.7984	6.11417	0	
0.3687	12.7204	9.77662	0	
0.3693	14.2436	7.34004	0	
0.3700	13.0143	3.98027	0	
0.3707	9.96785	4.58563	0	
0.3713	9.66053	4.58563	0	
0.3720	9.96785	2.45172	0	
0.3727	8.44461	1.84636	0	
0.3733	6.61406	2.45172	0	
0.3740	3.2469	0.92318	0	
0.3747	-2.53873	-0.908046	0	
0.3753	-4.67661	-2.11877	0	
0.3760	-2.84605	-0.908046	0	
0.3767	-3.15337	0.92318	0	
0.3773	-7.1218	-0.605364	0	
0.3780	-11.0902	-3.95	0	
0.3787	-12.9208	-5.47854	0	
0.3793	-9.25968	-4.5705	0	
0.3800	-4.36929	-2.43659	0	
0.3807	-3.15337	0.92318	0	
0.3813	-2.84605	1.84636	0	
0.3820	-1.93745	0.92318	0	
0.3827	-2.53873	1.84636	0	
0.3833	-1.93745	2.7544	0	
0.3840	3.2469	1.84636	0	
0.3847	4.7835	3.05709	0	
0.3853	-1.01549	2.7544	0	
0.3860	-3.76801	0.0151341	0	
0.3867	-2.84605	0.0151341	0	
0.3873	-6.50716	2.14904	0	
0.3880	-12.3062	-1.51341	0	
0.3887	-13.8428	-6.40172	0	
0.3893	-15.6733	-5.47854	0	
0.3900	-17.5039	-2.11877	0	
0.3907	-11.9988	0.0151341	0	
0.3913	-6.21321	1.54368	0	
0.3920	-3.76801	1.54368	0	
0.3927	4.7835	2.45172	0	
0.3933	18.212	5.50881	0	
0.3940	25.5343	8.24808	0	
0.3947	25.5343	8.24808	0	
0.3953	23.7037	7.34004	0	
0.3960	24.9196	10.382	0	
0.3967	29.1954	12.2132	0	
0.3973	25.5343	9.77662	0	
0.3980	15.7668	7.64272	0	
0.3987	12.413	7.03735	0	
0.3993	9.96785	3.05709	0	
0.4000	1.41634	-1.51341	0	
0.4007	-4.67661	-7.30977	0	
0.4013	-10.1683	-16.4659	0	
0.4020	-20.243	-19.2203	0	
0.4027	-26.042	-14.6347	0	
0.4033	-24.8261	-12.8034	0	
0.4040	-24.8261	-11.8954	0	
0.4047	-23.5968	-8.83831	0	
0.4053	-20.243	-9.14099	0	
0.4060	-19.6284	-10.0642	0	
0.4067	-18.4125	-6.40172	0	
0.4073	-15.6733	-4.87318	0	
0.4080	-14.7514	-7.00709	0	
0.4087	-11.0902	-5.17586	0	
0.4093	-4.36929	-1.51341	0	
0.4100	-3.15337	-0.605364	0	
0.4107	-3.46069	0.0151341	0	
0.4113	2.03098	1.22586	0	
0.4120	7.21534	0.92318	0	
0.4127	6.30674	0.620498	0	
0.4133	4.7835	0.317816	0	
0.4140	6.30674	-0.605364	0	
0.4147	7.21534	-0.287548	0	
0.4153	9.04589	2.7544	0	
0.4160	11.7984	3.67758	0	
0.4167	12.1057	0.92318	0	
0.4173	9.35321	0.92318	0	
0.4180	5.99942	3.3749	0	
0.4187	2.03098	3.67758	0	
0.4193	-1.01549	3.05709	0	
0.4200	-1.32281	4.28295	0	
0.4207	-1.01549	3.67758	0	
0.4213	-1.93745	0.92318	0	
0.4220	-3.76801	0.0151341	0	
0.4227	-7.42912	0.620498	0	
0.4233	-14.444	0.317816	0	
0.4240	-19.6284	-1.81609	0	
0.4247	-18.4125	-3.95	0	
0.4253	-14.1367	-3.34463	0	
0.4260	-9.87432	-2.11877	0	
0.4267	-4.67661	-4.5705	0	
0.4273	-2.24477	-5.47854	0	
0.4280	-5.29125	-2.73927	0	
0.4287	-4.07533	-1.21073	0	
0.4293	5.09082	-0.605364	0	
0.4300	12.1057	1.22586	0	
0.4307	13.0143	1.54368	0	
0.4313	9.96785	0.92318	0	
0.4320	5.38478	2.7544	0	
0.4327	7.21534	5.50881	0	
0.4333	13.629	5.50881	0	
0.4340	17.9047	3.3749	0	
0.4347	22.7818	2.45172	0	
0.4353	29.5027	3.98027	0	
0.4360	31.9345	5.20613	0	
0.4367	29.5027	5.81149	0	
0.4373	25.227	6.11417	0	
0.4380	18.212	3.98027	0	
0.4387	13.9363	0.620498	0	
0.4393	10.5825	-1.21073	0	
0.4400	3.55422	-2.73927	0	
0.4407	-1.01549	-4.26781	0	
0.4413	-1.93745	-3.95	0	
0.4420	-2.53873	-2.43659	0	
0.4427	-1.01549	0.92318	0	
0.4433	-1.01549	4.58563	0	
0.4440	-5.59857	4.58563	0	
0.4447	-5.90589	3.05709	0	
0.4453	0.200426	3.67758	0	
0.4460	5.6921	5.50881	0	
0.4467	10.8765	6.11417	0	
0.4473	12.413	4.28295	0	
0.4480	6.30674	1.84636	0	
0.4487	1.72366	0.0151341	0	
0.4493	1.41634	-1.21073	0	
0.4500	-1.63013	-1.81609	0	
0.4507	-5.59857	-0.908046	0	
0.4513	-7.1218	-2.11877	0	
0.4520	-9.87432	-6.40172	0	
0.4527	-11.0902	-8.53563	0	
0.4533	-6.81448	-6.09904	0	
0.4540	-0.414214	-2.43659	0	
0.4547	7.52266	0.620498	0	
0.4553	13.3216	0.92318	0	
0.4560	11.4911	-0.908046	0	
0.4567	4.7835	-1.81609	0	
0.4573	3.55422	-2.11877	0	
0.4580	7.21534	-3.64732	0	
0.4587	3.55422	-4.87318	0	
0.4593	-5.90589	-6.40172	0	
0.4600	-7.1218	-7.93026	0	
0.4607	-1.01549	-5.78122	0	
0.4613	-1.01549	-4.5705	0	
0.4620	-5.59857	-6.7044	0	
0.4627	-10.1683	-8.23295	0	
0.4633	-16.8892	-6.40172	0	
0.4640	-23.9041	-4.87318	0	
0.4647	-23.9041	-2.43659	0	
0.4653	-18.7198	0.0151341	0	
0.4660	-14.1367	0.0151341	0	
0.4667	-10.1683	-1.51341	0	
0.4673	-8.04376	-1.51341	0	
0.4680	-7.42912	0.92318	0	
0.4687	-4.98393	3.67758	0	
0.4693	-3.15337	3.05709	0	
0.4700	-2.84605	0.92318	0	
0.4707	-0.106894	0.92318	0	
0.4713	5.09082	1.22586	0	
0.4720	8.1373	0.92318	0	
0.4727	9.66053	2.14904	0	
0.4733	12.1057	2.7544	0	
0.4740	14.8449	2.45172	0	
0.4747	13.629	4.28295	0	
0.4753	10.8765	5.50881	0	
0.4760	10.8765	4.58563	0	
0.4767	9.96785	6.11417	0	
0.4773	5.99942	7.64272	0	
0.4780	3.55422	5.81149	0	
0.4787	1.41634	3.3749	0	
0.4793	-2.53873	2.7544	0	
0.4800	-6.50716	3.05709	0	
0.4807	-10.4756	2.7544	0	
0.4813	-12.9208	2.14904	0	
0.4820	-8.95236	2.45172	0	
0.4827	-3.15337	1.84636	0	
0.4833	-2.84605	0.317816	0	
0.4840	-4.67661	1.22586	0	
0.4847	-5.59857	0.317816	0	
0.4853	-4.67661	-3.64732	0	
0.4860	-3.76801	-3.04195	0	
0.4867	-5.59857	1.54368	0	
0.4873	-9.87432	0.317816	0	
0.4880	-12.6135	-3.04195	0	
0.4887	-14.444	0.317816	0	
0.4893	-11.9988	3.67758	0	
0.4900	-6.21321	0.92318	0	
0.4907	-6.50716	-1.81609	0	
0.4913	-9.567	-0.908046	0	
0.4920	-6.21321	0.620498	0	
0.4927	-1.93745	1.22586	0	
0.4933	2.64562	0.92318	0	
0.4940	9.35321	0.92318	0	
0.4947	7.82998	1.84636	0	
0.4953	5.09082	1.84636	0	
0.4960	18.506	3.3749	0	
0.4967	33.7651	6.41686	0	
0.4973	31.3333	4.58563	0	
0.4980	22.7818	0.0151341	0	
0.4987	16.3815	-0.908046	0	
0.4993	9.66053	-0.908046	0	
0.5000	4.47618	-1.81609	0	
0.5007	0.815066	-3.04195	0	
0.5013	-2.53873	-7.30977	0	
0.5020	-4.07533	-9.74636	0	
0.5027	-8.33772	-6.40172	0	
0.5033	-12.3062	-3.64732	0	
0.5040	-8.04376	-4.26781	0	
0.5047	-1.93745	-1.81609	0	
0.5053	-1.32281	1.84636	0	
0.5060	-0.708172	1.84636	0	
0.5067	-1.01549	-0.287548	0	
0.5073	-3.46069	-0.605364	0	
0.5080	-2.24477	2.14904	0	
0.5087	-1.63013	2.7544	0	
0.5093	-4.36929	0.92318	0	
0.5100	-1.93745	3.67758	0	
0.5107	5.38478	7.34004	0	
0.5113	8.1373	5.20613	0	
0.5120	7.21534	2.7544	0	
0.5127	6.30674	3.67758	0	
0.5133	7.21534	3.05709	0	
0.5140	7.52266	0.92318	0	
0.5147	2.64562	0.92318	0	
0.5153	-2.24477	2.45172	0	
0.5160	1.12239	3.67758	0	
0.5167	5.6921	2.7544	0	
0.5173	6.30674	0.92318	0	
0.5180	10.8765	0.92318	0	
0.5187	17.2901	2.7544	0	
0.5193	18.8133	4.58563	0	
0.5200	20.6439	7.9454	0	
0.5207	20.0426	7.03735	0	
0.5213	9.66053	1.84636	0	
0.5220	-1.63013	0.317816	0	
0.5227	-4.36929	0.0151341	0	
0.5233	-8.33772	-3.95	0	
0.5240	-18.4125	-6.40172	0	
0.5247	-22.9955	-7.00709	0	
0.5253	-17.7978	-8.23295	0	
0.5260	-14.444	-8.23295	0	
0.5267	-14.444	-7.93026	0	
0.5273	-9.25968	-7.93026	0	
0.5280	-1.01549	-5.47854	0	
0.5287	1.72366	-3.04195	0	
0.5293	-1.01549	-2.73927	0	
0.5300	-3.46069	-1.81609	0	
0.5307	-2.53873	-3.04195	0	
0.5313	0.815066	-5.47854	0	
0.5320	1.41634	-3.95	0	
0.5327	-1.93745	-3.64732	0	
0.5333	-4.07533	-7.00709	0	
0.5340	-4.36929	-6.40172	0	
0.5347	-4.07533	-2.43659	0	
0.5353	-2.84605	-1.21073	0	
0.5360	-3.46069	-1.81609	0	
0.5367	-3.46069	0.0151341	0	
0.5373	0.200426	1.84636	0	
0.5380	2.03098	1.84636	0	
0.5387	-1.01549	1.22586	0	
0.5393	-3.15337	0.317816	0	
0.5400	-3.15337	0.0151341	0	
0.5407	-3.15337	1.84636	0	
0.5413	-0.414214	2.14904	0	
0.5420	3.2469	0.92318	0	
0.5427	3.55422	3.3749	0	
0.5433	4.16886	6.41686	0	
0.5440	7.21534	4.88831	0	
0.5447	9.04589	2.45172	0	
0.5453	7.82998	1.84636	0	
0.5460	9.66053	3.05709	0	
0.5467	13.629	4.58563	0	
0.5473	12.7204	3.67758	0	
0.5480	8.1373	0.92318	0	
0.5487	5.6921	1.54368	0	
0.5493	4.7835	2.7544	0	
0.5500	1.12239	-0.287548	0	
0.5507	-1.01549	-2.43659	0	
0.5513	-1.63013	-0.908046	0	
0.5520	-4.36929	-0.287548	0	
0.5527	-7.73644	-0.908046	0	
0.5533	-8.33772	-0.287548	0	
0.5540	-5.90589	-0.287548	0	
0.5547	-1.32281	-3.64732	0	
0.5553	2.03098	-7.30977	0	
0.5560	-1.01549	-7.93026	0	
0.5567	-4.07533	-5.47854	0	
0.5573	-2.84605	-2.11877	0	
0.5580	-1.01549	0.92318	0	
0.5587	-1.01549	1.54368	0	
0.5593	-1.93745	0.317816	0	
0.5600	-1.01549	1.84636	0	
0.5607	0.200426	4.58563	0	
0.5613	-1.01549	2.7544	0	
0.5620	-2.84605	0.620498	0	
0.5627	0.200426	2.45172	0	
0.5633	1.41634	4.28295	0	
0.5640	-5.29125	5.20613	0	
0.5647	-10.7829	6.41686	0	
0.5653	-8.64504	5.50881	0	
0.5660	-5.90589	4.58563	0	
0.5667	-6.50716	2.7544	0	
0.5673	-8.04376	-1.81609	0	
0.5680	-6.21321	-3.64732	0	
0.5687	-0.106894	0.317816	0	
0.5693	4.47618	1.84636	0	
0.5700	2.3383	0.0151341	0	
0.5707	0.200426	1.22586	0	
0.5713	3.2469	3.05709	0	
0.5720	4.16886	0.92318	0	
0.5727	-1.01549	-0.908046	0	
0.5733	-4.67661	-0.287548	0	
0.5740	-3.76801	-0.908046	0	
0.5747	-1.63013	-1.81609	0	
0.5753	1.12239	-3.64732	0	
0.5760	6.30674	-6.09904	0	
0.5767	11.1838	-5.47854	0	
0.5773	12.7204	-1.81609	0	
0.5780	11.7984	0.317816	0	
0.5787	9.96785	-0.605364	0	
0.5793	6.92138	0.0151341	0	
0.5800	4.16886	0.92318	0	
0.5807	3.55422	-1.21073	0	
0.5813	5.38478	-2.73927	0	
0.5820	8.1373	0.0151341	0	
0.5827	9.96785	0.92318	0	
0.5833	11.7984	0.0151341	0	
0.5840	12.7204	1.84636	0	
0.5847	7.82998	2.14904	0	
0.5853	-0.106894	-1.81609	0	
0.5860	-6.21321	-3.64732	0	
0.5867	-13.5354	-2.73927	0	
0.5873	-22.0736	-4.5705	0	
0.5880	-25.1334	-9.44367	0	
0.5887	-25.7347	-12.8034	0	
0.5893	-29.7031	-13.7266	0	
0.5900	-28.4872	-13.7266	0	
0.5907	-17.7978	-13.7266	0	
0.5913	-11.0902	-14.332	0	
0.5920	-12.9208	-12.8034	0	
0.5927	-11.9988	-9.14099	0	
0.5933	-5.59857	-5.47854	0	
0.5940	0.200426	-2.73927	0	
0.5947	5.09082	-1.21073	0	
0.5953	10.8765	-1.51341	0	
0.5960	16.6754	-0.908046	0	
0.5967	20.6439	2.45172	0	
0.5973	24.011	4.58563	0	
0.5980	30.7186	2.7544	0	
0.5987	36.5176	3.3749	0	
0.5993	33.7651	5.20613	0	
0.6000	25.5343	3.67758	0	
0.6007	18.212	1.84636	0	
0.6013	12.7204	1.22586	0	
0.6020	6.61406	-1.81609	0	
0.6027	0.507746	-4.5705	0	
0.6033	-6.50716	-5.47854	0	
0.6040	-11.0902	-6.09904	0	
0.6047	-12.9208	-5.47854	0	
0.6053	-15.6733	-4.5705	0	
0.6060	-15.6733	-4.5705	0	
0.6067	-9.25968	-3.34463	0	
0.6073	-6.50716	-0.605364	0	
0.6080	-9.25968	-0.287548	0	
0.6087	-9.25968	-1.21073	0	
0.6093	-8.33772	-0.287548	0	
0.6100	-9.25968	0.0151341	0	
0.6107	-5.90589	-0.605364	0	
0.6113	-0.106894	-0.908046	0	
0.6120	-0.708172	-0.605364	0	
0.6127	-1.93745	-0.287548	0	
0.6133	3.55422	-0.908046	0	
0.6140	5.38478	-1.51341	0	
0.6147	0.815066	0.620498	0	
0.6153	5.38478	2.7544	0	
0.6160	17.2901	1.84636	0	
0.6167	15.7668	0.620498	0	
0.6173	2.95294	2.14904	0	
0.6180	-1.01549	3.3749	0	
0.6187	-0.106894	3.05709	0	
0.6193	-3.46069	2.7544	0	
0.6200	-2.84605	2.7544	0	
0.6207	2.3383	4.88831	0	
0.6213	1.12239	6.41686	0	
0.6220	-2.84605	2.14904	0	
0.6227	-2.53873	-1.21073	0	
0.6233	-0.708172	0.92318	0	
0.6240	2.3383	2.7544	0	
0.6247	6.30674	3.3749	0	
0.6253	6.30674	4.58563	0	
0.6260	4.16886	2.7544	0	
0.6267	2.3383	0.317816	0	
0.6273	-0.106894	1.84636	0	
0.6280	-0.414214	2.7544	0	
0.6287	2.03098	2.45172	0	
0.6293	2.03098	3.67758	0	
0.6300	0.815066	1.54368	0	
0.6307	-1.01549	-1.21073	0	
0.6313	-3.76801	0.620498	0	
0.6320	-5.59857	0.92318	0	
0.6327	-4.67661	-0.908046	0	
0.6333	-3.46069	0.92318	0	
0.6340	-1.93745	1.84636	0	
0.6347	0.200426	-1.51341	0	
0.6353	1.72366	-0.605364	0	
0.6360	5.09082	2.7544	0	
0.6367	8.44461	2.7544	0	
0.6373	7.52266	3.3749	0	
0.6380	6.30674	5.81149	0	
0.6387	9.35321	6.41686	0	
0.6393	11.1838	4.58563	0	
0.6400	9.96785	3.98027	0	
0.6407	7.52266	3.67758	0	
0.6413	7.21534	2.7544	0	
0.6420	6.30674	2.14904	0	
0.6427	1.72366	3.05709	0	
0.6433	-2.24477	2.7544	0	
0.6440	-2.84605	-1.21073	0	
0.6447	-3.76801	-3.64732	0	
0.6453	-7.1218	-2.73927	0	
0.6460	-10.1683	-3.04195	0	
0.6467	-14.1367	-3.64732	0	
0.6473	-17.1965	-2.11877	0	
0.6480	-14.7514	-0.287548	0	
0.6487	-10.1683	-0.605364	0	
0.6493	-4.67661	-1.21073	0	
0.6500	3.86154	-2.73927	0	
0.6507	12.1057	-3.95	0	
0.6513	15.1522	-3.64732	0	
0.6520	13.629	-2.43659	0	
0.6527	9.96785	-0.605364	0	
0.6533	5.6921	0.0151341	0	
0.6540	2.03098	-0.908046	0	
0.6547	-1.01549	-0.287548	0	
0.6553	-2.53873	1.54368	0	
0.6560	-5.59857	1.54368	0	
0.6567	-12.9208	-0.287548	0	
0.6573	-20.243	-0.605364	0	
0.6580	-25.7347	-0.908046	0	
0.6587	-31.2264	-2.73927	0	
0.6593	-31.5337	-3.04195	0	
0.6600	-28.4872	-0.908046	0	
0.6607	-29.0885	-0.908046	0	
0.6613	-26.6567	-3.04195	0	
0.6620	-16.5819	-3.34463	0	
0.6627	-8.33772	-1.51341	0	
0.6633	-2.84605	-0.287548	0	
0.6640	11.7984	2.14904	0	
0.6647	33.4711	5.20613	0	
0.6653	43.8398	5.50881	0	
0.6660	34.0724	4.58563	0	
0.6667	20.0426	3.67758	0	
0.6673	17.9047	2.45172	0	
0.6680	21.2585	1.22586	0	
0.6687	17.2901	-1.51341	0	
0.6693	11.4911	-3.64732	0	
0.6700	11.7984	-0.605364	0	
0.6707	12.1057	0.92318	0	
0.6713	9.04589	-2.73927	0	
0.6720	7.21534	-1.81609	0	
0.6727	7.52266	0.620498	0	
0.6733	7.21534	-2.73927	0	
0.6740	7.52266	-3.64732	0	
0.6747	7.82998	-0.908046	0	
0.6753	8.1373	-0.908046	0	
0.6760	8.1373	-1.81609	0	
0.6767	4.47618	-0.908046	0	
0.6773	1.12239	-3.04195	0	
0.6780	4.16886	-3.95	0	
0.6787	7.52266	-0.908046	0	
0.6793	5.09082	-1.81609	0	
0.6800	2.03098	-5.47854	0	
0.6807	1.41634	-5.47854	0	
0.6813	-3.15337	-4.87318	0	
0.6820	-8.95236	-4.5705	0	
0.6827	-9.25968	-1.51341	0	
0.6833	-8.95236	-1.81609	0	
0.6840	-13.5354	-4.87318	0	
0.6847	-16.5819	-4.26781	0	
0.6853	-14.1367	-2.11877	0	
0.6860	-12.9208	-3.64732	0	
0.6867	-13.8428	-5.78122	0	
0.6873	-11.7049	-4.5705	0	
0.6880	-7.42912	-1.51341	0	
0.6887	-3.46069	-1.21073	0	
0.6893	0.815066	-3.04195	0	
0.6900	4.47618	-0.287548	0	
0.6907	6.61406	4.88831	0	
0.6913	9.35321	5.81149	0	
0.6920	11.1838	3.3749	0	
0.6927	10.5825	2.7544	0	
0.6933	10.2752	4.28295	0	
0.6940	11.7984	5.20613	0	
0.6947	10.8765	3.67758	0	
0.6953	9.35321	0.92318	0	
0.6960	6.61406	-2.73927	0	
0.6967	-2.53873	-5.78122	0	
0.6973	-13.8428	-7.30977	0	
0.6980	-16.2746	-7.30977	0	
0.6987	-13.5354	-6.40172	0	
0.6993	-15.366	-2.43659	0	
0.7000	-17.5039	0.92318	0	
0.7007	-14.7514	0.92318	0	
0.7013	-11.7049	0.620498	0	
0.7020	-9.87432	0.92318	0	
0.7027	-7.1218	-1.81609	0	
0.7033	-4.67661	-3.04195	0	
0.7040	-2.53873	-1.51341	0	
0.7047	2.3383	-0.908046	0	
0.7053	7.21534	0.0151341	0	
0.7060	8.44461	1.54368	0	
0.7067	7.52266	2.7544	0	
0.7073	6.92138	5.20613	0	
0.7080	5.38478	6.11417	0	
0.7087	2.64562	3.3749	0	
0.7093	1.72366	2.7544	0	
0.7100	1.41634	3.98027	0	
0.7107	0.815066	2.7544	0	
0.7113	0.507746	1.84636	0	
0.7120	-0.106894	1.84636	0	
0.7127	-3.76801	2.45172	0	
0.7133	-5.29125	3.67758	0	
0.7140	-1.63013	1.84636	0	
0.7147	-0.414214	-2.73927	0	
0.7153	-2.84605	-0.908046	0	
0.7160	2.3383	4.58563	0	
0.7167	13.629	4.28295	0	
0.7173	18.212	2.45172	0	
0.7180	16.6754	3.98027	0	
0.7187	17.9047	3.98027	0	
0.7193	16.3815	2.45172	0	
0.7200	9.35321	2.14904	0	
0.7207	3.86154	-0.287548	0	
0.7213	0.507746	-3.95	0	
0.7220	-4.07533	-5.47854	0	
0.7227	-8.95236	-7.00709	0	
0.7233	-11.9988	-7.30977	0	
0.7240	-12.6135	-5.47854	0	
0.7247	-11.0902	-4.5705	0	
0.7253	-9.567	-5.17586	0	
0.7260	-5.29125	-4.5705	0	
0.7267	1.72366	-3.34463	0	
0.7273	3.86154	-2.73927	0	
0.7280	3.55422	0.317816	0	
0.7287	8.75193	2.7544	0	
0.7293	11.4911	1.22586	0	
0.7300	7.52266	0.92318	0	
0.7307	4.47618	2.45172	0	
0.7313	4.47618	3.67758	0	
0.7320	4.47618	4.58563	0	
0.7327	6.30674	2.7544	0	
0.7333	8.1373	-1.51341	0	
0.7340	7.21534	-0.605364	0	
0.7347	6.61406	3.3749	0	
0.7353	5.09082	1.84636	0	
0.7360	0.507746	-0.908046	0	
0.7367	-4.67661	0.0151341	0	
0.7373	-8.04376	0.620498	0	
0.7380	-5.90589	-0.287548	0	
0.7387	0.200426	-0.605364	0	
0.7393	0.815066	0.317816	0	
0.7400	-1.32281	2.7544	0	
0.7407	3.86154	4.28295	0	
0.7413	9.66053	2.7544	0	
0.7420	9.04589	3.67758	0	
0.7427	9.04589	5.20613	0	
0.7433	7.82998	3.05709	0	
0.7440	1.72366	2.14904	0	
0.7447	-2.24477	2.14904	0	
0.7453	-2.53873	1.22586	0	
0.7460	-3.76801	2.7544	0	
0.7467	-6.50716	4.28295	0	
0.7473	-9.25968	1.22586	0	
0.7480	-11.0902	0.92318	0	
0.7487	-9.25968	3.67758	0	
0.7493	-5.90589	2.7544	0	
0.7500	-6.81448	0.92318	0	
0.7507	-11.0902	-0.908046	0	
0.7513	-14.444	-3.64732	0	
0.7520	-13.5354	-5.17586	0	
0.7527	-9.25968	-3.64732	0	
0.7533	-4.07533	-3.04195	0	
0.7540	-1.63013	-1.81609	0	
0.7547	-1.93745	0.620498	0	
0.7553	-1.63013	2.14904	0	
0.7560	-1.32281	0.317816	0	
0.7567	-8.64504	-0.908046	0	
0.7573	-16.8892	1.84636	0	
0.7580	-8.33772	5.50881	0	
0.7587	13.3216	3.98027	0	
0.7593	24.6123	2.7544	0	
0.7600	21.5658	3.98027	0	
0.7607	17.9047	3.98027	0	
0.7613	14.2436	2.45172	0	
0.7620	4.47618	2.7544	0	
0.7627	-1.93745	4.58563	0	
0.7633	2.64562	7.03735	0	
0.7640	5.99942	7.34004	0	
0.7647	5.09082	7.64272	0	
0.7653	8.1373	9.17126	0	
0.7660	9.96785	8.86858	0	
0.7667	1.41634	6.11417	0	
0.7673	-8.95236	3.67758	0	
0.7680	-12.3062	1.54368	0	
0.7687	-10.1683	0.317816	0	
0.7693	-6.81448	0.0151341	0	
0.7700	-7.1218	-2.73927	0	
0.7707	-10.4756	-5.78122	0	
0.7713	-12.3062	-5.17586	0	
0.7720	-9.567	-2.73927	0	
0.7727	-4.36929	-2.43659	0	
0.7733	-0.414214	-2.11877	0	
0.7740	0.200426	-1.21073	0	
0.7747	0.815066	0.0151341	0	
0.7753	1.72366	0.92318	0	
0.7760	-1.01549	0.0151341	0	
0.7767	-4.07533	-0.605364	0	
0.7773	-7.42912	0.0151341	0	
0.7780	-12.9208	-1.21073	0	
0.7787	-16.5819	-3.64732	0	
0.7793	-17.1965	-3.34463	0	
0.7800	-22.9955	-2.73927	0	
0.7807	-30.0105	-4.26781	0	
0.7813	-25.4274	-3.04195	0	
0.7820	-13.5354	0.0151341	0	
0.7827	-3.76801	0.317816	0	
0.7833	7.52266	1.22586	0	
0.7840	22.7818	3.98027	0	
0.7847	33.1638	4.58563	0	
0.7853	33.4711	4.58563	0	
0.7860	29.5027	5.50881	0	
0.7867	28.8881	4.58563	0	
0.7873	30.104	4.58563	0	
0.7880	27.9795	5.81149	0	
0.7887	24.9196	3.3749	0	
0.7893	23.0891	2.45172	0	
0.7900	18.212	5.50881	0	
0.7907	11.1838	3.67758	0	
0.7913	8.44461	-3.04195	0	
0.7920	7.82998	-5.17586	0	
0.7927	5.6921	-3.95	0	
0.7933	4.47618	-2.43659	0	
0.7940	2.64562	-1.51341	0	
0.7947	0.815066	-2.73927	0	
0.7953	1.72366	-1.21073	0	
0.7960	2.64562	3.67758	0	
0.7967	-1.01549	3.98027	0	
0.7973	-4.67661	0.0151341	0	
0.7980	-6.21321	-1.81609	0	
0.7987	-9.25968	-2.73927	0	
0.7993	-13.8428	-4.5705	0	
0.8000	-16.5819	-6.40172	0	
0.8007	-15.6733	-6.40172	0	
0.8013	-12.9208	-2.43659	0	
0.8020	-13.5354	0.0151341	0	
0.8027	-15.366	-3.64732	0	
0.8033	-14.7514	-5.47854	0	
0.8040	-12.9208	-3.34463	0	
0.8047	-9.567	-3.64732	0	
0.8053	-0.106894	-2.73927	0	
0.8060	11.7984	1.54368	0	
0.8067	18.212	1.84636	0	
0.8073	17.5974	0.620498	0	
0.8080	12.1057	2.14904	0	
0.8087	7.82998	1.84636	0	
0.8093	6.30674	-1.21073	0	
0.8100	2.3383	-1.81609	0	
0.8107	-4.36929	-2.43659	0	
0.8113	-7.1218	-5.17586	0	
0.8120	-6.81448	-7.30977	0	
0.8127	-8.33772	-6.7044	0	
0.8133	-8.64504	-5.47854	0	
0.8140	-6.50716	-4.5705	0	
0.8147	-4.98393	-3.64732	0	
0.8153	-3.15337	-2.11877	0	
0.8160	-1.63013	-1.81609	0	
0.8167	-3.15337	-2.73927	0	
0.8173	-4.67661	-0.908046	0	
0.8180	-1.01549	3.67758	0	
0.8187	2.03098	5.50881	0	
0.8193	2.03098	4.28295	0	
0.8200	8.75193	2.7544	0	
0.8207	16.0742	3.05709	0	
0.8213	11.1838	4.28295	0	
0.8220	4.47618	4.58563	0	
0.8227	6.92138	3.3749	0	
0.8233	8.75193	2.14904	0	
0.8240	5.38478	-0.605364	0	
0.8247	4.47618	-4.87318	0	
0.8253	3.55422	-7.30977	0	
0.8260	-0.106894	-7.93026	0	
0.8267	-1.32281	-7.30977	0	
0.8273	0.507746	-6.40172	0	
0.8280	2.64562	-7.30977	0	
0.8287	2.95294	-6.7044	0	
0.8293	0.200426	-3.04195	0	
0.8300	-1.01549	-1.21073	0	
0.8307	-0.106894	-2.11877	0	
0.8313	-1.01549	-1.81609	0	
0.8320	-3.76801	-1.81609	0	
0.8327	-4.67661	-3.04195	0	
0.8333	-4.67661	-2.73927	0	
0.8340	-2.24477	-2.11877	0	
0.8347	5.09082	-2.73927	0	
0.8353	14.2436	-1.21073	0	
0.8360	19.1206	1.84636	0	
0.8367	13.3216	2.7544	0	
0.8373	-0.106894	0.92318	0	
0.8380	-6.21321	-0.908046	0	
0.8387	-3.76801	1.54368	0	
0.8393	-4.67661	7.03735	0	
0.8400	-8.04376	7.34004	0	
0.8407	-6.50716	2.7544	0	
0.8413	-2.24477	1.84636	0	
0.8420	-1.01549	1.84636	0	
0.8427	-5.29125	-2.11877	0	
0.8433	-9.567	-5.17586	0	
0.8440	-11.3976	-5.47854	0	
0.8447	-15.9673	-7.00709	0	
0.8453	-18.7198	-7.30977	0	
0.8460	-9.87432	-2.73927	0	
0.8467	2.64562	1.22586	0	
0.8473	6.30674	0.0151341	0	
0.8480	8.1373	-0.605364	0	
0.8487	13.9363	1.54368	0	
0.8493	18.8133	1.84636	0	
0.8500	21.8732	0.317816	0	
0.8507	22.7818	1.22586	0	
0.8513	17.5974	2.7544	0	
0.8520	11.1838	0.92318	0	
0.8527	5.99942	-1.51341	0	
0.8533	2.64562	-1.81609	0	
0.8540	5.99942	0.317816	0	
0.8547	9.96785	1.22586	0	
0.8553	6.61406	-0.605364	0	
0.8560	1.41634	-1.51341	0	
0.8567	-0.106894	-0.605364	0	
0.8573	-0.708172	-0.605364	0	
0.8580	0.815066	0.0151341	0	
0.8587	6.30674	3.05709	0	
0.8593	10.2752	6.41686	0	
0.8600	13.629	8.24808	0	
0.8607	16.9828	7.9454	0	
0.8613	13.9363	4.88831	0	
0.8620	8.44461	3.67758	0	
0.8627	9.04589	3.98027	0	
0.8633	11.7984	2.14904	0	
0.8640	9.04589	0.620498	0	
0.8647	2.64562	1.22586	0	
0.8653	-0.106894	-0.908046	0	
0.8660	-0.708172	-4.87318	0	
0.8667	-4.67661	-5.78122	0	
0.8673	-12.9208	-5.17586	0	
0.8680	-19.0271	-6.09904	0	
0.8687	-22.0736	-7.30977	0	
0.8693	-24.8261	-9.74636	0	
0.8700	-26.6567	-11.5776	0	
0.8707	-26.6567	-9.74636	0	
0.8713	-24.8261	-7.61245	0	
0.8720	-18.4125	-7.61245	0	
0.8727	-9.87432	-5.78122	0	
0.8733	-6.50716	-2.73927	0	
0.8740	-3.15337	-1.51341	0	
0.8747	5.09082	0.0151341	0	
0.8753	8.1373	1.84636	0	
0.8760	4.47618	1.84636	0	
0.8767	3.86154	3.05709	0	
0.8773	6.30674	7.03735	0	
0.8780	6.61406	7.03735	0	
0.8787	8.1373	3.67758	0	
0.8793	8.1373	3.67758	0	
0.8800	4.47618	4.58563	0	
0.8807	5.09082	3.67758	0	
0.8813	7.21534	5.20613	0	
0.8820	2.64562	7.34004	0	
0.8827	-1.32281	5.50881	0	
0.8833	3.2469	5.81149	0	
0.8840	13.3216	9.17126	0	
0.8847	21.8732	7.9454	0	
0.8853	23.3964	4.58563	0	
0.8860	19.7353	7.03735	0	
0.8867	18.8133	8.24808	0	
0.8873	19.1206	5.50881	0	
0.8880	15.4595	3.98027	0	
0.8887	10.2752	3.3749	0	
0.8893	5.09082	1.84636	0	
0.8900	-1.63013	2.7544	0	
0.8907	-5.59857	2.14904	0	
0.8913	-7.42912	-1.81609	0	
0.8920	-10.4756	-1.51341	0	
0.8927	-12.6135	-0.287548	0	
0.8933	-13.8428	-5.47854	0	
0.8940	-15.9673	-7.00709	0	
0.8947	-14.444	0.0151341	0	
0.8953	-7.42912	2.45172	0	
0.8960	-3.76801	0.0151341	0	
0.8967	-7.42912	1.84636	0	
0.8973	-11.0902	6.41686	0	
0.8980	-11.9988	7.03735	0	
0.8987	-13.2281	6.41686	0	
0.8993	-20.243	5.81149	0	
0.9000	-30.0105	6.11417	0	
0.9007	-35.8094	6.41686	0	
0.9013	-35.8094	4.58563	0	
0.9020	-32.4556	3.67758	0	
0.9027	-25.1334	7.03735	0	
0.9033	-13.2281	7.03735	0	
0.9040	-1.32281	3.67758	0	
0.9047	7.52266	6.41686	0	
0.9053	13.0143	10.6998	0	
0.9060	13.3216	8.24808	0	
0.9067	10.5825	7.03735	0	
0.9073	11.1838	10.0793	0	
0.9080	17.2901	8.86858	0	
0.9087	21.8732	4.28295	0	
0.9093	18.506	4.28295	0	
0.9100	11.7984	6.41686	0	
0.9107	9.96785	5.20613	0	
0.9113	11.1838	0.92318	0	
0.9120	12.1057	-3.34463	0	
0.9127	12.7204	-3.64732	0	
0.9133	11.1838	-3.04195	0	
0.9140	6.92138	-4.87318	0	
0.9147	5.38478	-4.5705	0	
0.9153	9.04589	-1.81609	0	
0.9160	12.7204	-0.287548	0	
0.9167	13.9363	1.22586	0	
0.9173	13.629	2.14904	0	
0.9180	9.96785	-0.605364	0	
0.9187	4.47618	-2.73927	0	
0.9193	2.64562	-2.11877	0	
0.9200	7.21534	-3.04195	0	
0.9207	11.4911	-4.5705	0	
0.9213	11.7984	-4.87318	0	
0.9220	7.52266	-5.47854	0	
0.9227	2.3383	-6.40172	0	
0.9233	-0.414214	-7.30977	0	
0.9240	-0.106894	-7.61245	0	
0.9247	0.507746	-5.78122	0	
0.9253	1.12239	-6.09904	0	
0.9260	0.507746	-7.61245	0	
0.9267	-1.63013	-5.47854	0	
0.9273	-0.106894	-3.95	0	
0.9280	3.55422	-4.87318	0	
0.9287	0.815066	-2.73927	0	
0.9293	-5.59857	-1.21073	0	
0.9300	-6.21321	-4.5705	0	
0.9307	-5.90589	-6.40172	0	
0.9313	-9.25968	-5.17586	0	
0.9320	-10.7829	-5.17586	0	
0.9327	-8.64504	-3.34463	0	
0.9333	-8.33772	-1.81609	0	
0.9340	-9.87432	-6.09904	0	
0.9347	-12.3062	-10.0642	0	
0.9353	-13.8428	-8.23295	0	
0.9360	-6.50716	-5.47854	0	
0.9367	6.61406	-3.64732	0	
0.9373	12.7204	-3.95	0	
0.9380	13.629	-3.64732	0	
0.9387	15.1522	-1.81609	0	
0.9393	12.413	-3.34463	0	
0.9400	4.16886	-8.53563	0	
0.9407	-2.84605	-11.2749	0	
0.9413	-3.76801	-12.8034	0	
0.9420	-2.53873	-15.5578	0	
0.9427	-1.01549	-14.0293	0	
0.9433	-0.106894	-9.14099	0	
0.9440	0.200426	-5.17586	0	
0.9447	0.815066	-3.04195	0	
0.9453	0.815066	-3.64732	0	
0.9460	-2.24477	-4.87318	0	
0.9467	-6.21321	-2.11877	0	
0.9473	-7.1218	-1.21073	0	
0.9480	-6.50716	-3.64732	0	
0.9487	-9.25968	-2.73927	0	
0.9493	-13.8428	-0.908046	0	
0.9500	-14.7514	-4.5705	0	
0.9507	-14.1367	-4.5705	0	
0.9513	-15.0587	0.0151341	0	
0.9520	-16.8892	-1.81609	0	
0.9527	-23.3029	-9.14099	0	
0.9533	-33.0569	-10.3669	0	
0.9540	-33.3642	-5.47854	0	
0.9547	-27.2579	-5.17586	0	
0.9553	-26.6567	-8.83831	0	
0.9560	-21.165	-6.40172	0	
0.9567	0.507746	-1.81609	0	
0.9573	20.6439	-5.47854	0	
0.9580	28.2734	-7.30977	0	
0.9587	29.1954	-2.73927	0	
0.9593	23.7037	-3.34463	0	
0.9600	18.212	-5.78122	0	
0.9607	24.9196	-1.51341	0	
0.9613	31.0259	1.22586	0	
0.9620	19.1206	-0.287548	0	
0.9627	7.21534	1.84636	0	
0.9633	11.7984	3.3749	0	
0.9640	17.9047	-0.605364	0	
0.9647	11.7984	-2.73927	0	
0.9653	5.38478	-1.81609	0	
0.9660	6.92138	0.317816	0	
0.9667	9.96785	2.7544	0	
0.9673	9.66053	0.92318	0	
0.9680	4.7835	-2.73927	0	
0.9687	-1.63013	-3.34463	0	
0.9693	-1.32281	-2.11877	0	
0.9700	5.6921	-2.43659	0	
0.9707	9.35321	-2.73927	0	
0.9713	7.52266	-3.04195	0	
0.9720	7.21534	-1.81609	0	
0.9727	8.44461	1.22586	0	
0.9733	7.52266	3.05709	0	
0.9740	7.21534	2.45172	0	
0.9747	9.66053	2.14904	0	
0.9753	9.96785	2.7544	0	
0.9760	9.04589	1.84636	0	
0.9767	10.8765	2.14904	0	
0.9773	11.7984	6.41686	0	
0.9780	9.96785	9.17126	0	
0.9787	9.66053	7.34004	0	
0.9793	9.96785	5.50881	0	
0.9800	5.38478	6.41686	0	
0.9807	1.12239	5.20613	0	
0.9813	0.815066	3.05709	0	
0.9820	-1.01549	3.3749	0	
0.9827	-4.36929	5.20613	0	
0.9833	-3.46069	6.11417	0	
0.9840	-5.29125	3.98027	0	
0.9847	-13.8428	-0.908046	0	
0.9853	-18.7198	-3.34463	0	
0.9860	-19.3344	-2.73927	0	
0.9867	-18.4125	-2.73927	0	
0.9873	-11.3976	-4.5705	0	
0.9880	-5.29125	-6.40172	0	
0.9887	-11.7049	-8.23295	0	
0.9893	-19.3344	-7.30977	0	
0.9900	-16.2746	-5.17586	0	
0.9907	-13.8428	-5.78122	0	
0.9913	-16.5819	-5.47854	0	
0.9920	-13.8428	-3.04195	0	
0.9927	-7.1218	-1.51341	0	
0.9933	-3.15337	1.84636	0	
0.9940	-1.63013	5.20613	0	
0.9947	-1.01549	3.3749	0	
0.9953	-3.15337	2.14904	0	
0.9960	-1.93745	5.81149	0	
0.9967	9.04589	7.9454	0	
0.9973	18.506	6.11417	0	
0.9980	16.9828	5.20613	0	
0.9987	13.3216	5.20613	0	
0.9993	13.0143	3.67758	0	
1.0000	9.35321	2.7544	0	
1.0007	1.72366	3.3749	0	
1.0013	-4.36929	3.05709	0	
1.0020	-8.33772	0.620498	0	
1.0027	-8.33772	-2.43659	0	
1.0033	-5.90589	-2.73927	0	
1.0040	-6.81448	-1.81609	0	
1.0047	-8.95236	-1.21073	0	
1.0053	-11.0902	-1.21073	0	
1.0060	-13.2281	-0.908046	0	
1.0067	-8.04376	1.84636	0	
1.0073	2.03098	4.58563	0	
1.0080	5.6921	5.50881	0	
1.0087	10.5825	6.71954	0	
1.0093	23.7037	10.0793	0	
1.0100	29.5027	11.9105	0	
1.0107	24.6123	11.9105	0	
1.0113	22.1805	12.2132	0	
1.0120	23.0891	11.3052	0	
1.0127	22.1805	7.9454	0	
1.0133	16.6754	3.98027	0	
1.0140	2.64562	0.92318	0	
1.0147	-10.1683	-0.287548	0	
1.0153	-11.0902	-1.51341	0	
1.0160	-10.1683	-3.64732	0	
1.0167	-16.8892	-3.64732	0	
1.0173	-22.0736	-1.81609	0	
1.0180	-23.9041	-2.43659	0	
1.0187	-25.7347	-3.64732	0	
1.0193	-24.8261	-3.34463	0	
1.0200	-22.9955	-4.5705	0	
1.0207	-19.0271	-5.47854	0	
1.0213	-1.32281	-4.87318	0	
1.0220	21.8732	-4.5705	0	
1.0227	27.6721	-3.04195	0	
1.0233	17.5974	-0.908046	0	
1.0240	11.1838	-1.21073	0	
1.0247	9.96785	-1.21073	0	
1.0253	5.99942	0.0151341	0	
1.0260	0.815066	0.92318	0	
1.0267	-0.708172	3.67758	0	
1.0273	0.507746	6.41686	0	
1.0280	1.72366	4.28295	0	
1.0287	-1.32281	1.22586	0	
1.0293	-4.98393	0.620498	0	
1.0300	-3.76801	-0.605364	0	
1.0307	-0.106894	0.317816	0	
1.0313	2.95294	2.7544	0	
1.0320	6.92138	1.84636	0	
1.0327	6.61406	-0.605364	0	
1.0333	2.64562	-0.908046	0	
1.0340	3.55422	-1.81609	0	
1.0347	5.99942	-4.26781	0	
1.0353	2.64562	-7.30977	0	
1.0360	1.72366	-8.23295	0	
1.0367	5.09082	-4.87318	0	
1.0373	4.16886	-1.51341	0	
1.0380	2.95294	-0.908046	0	
1.0387	5.38478	0.92318	0	
1.0393	4.7835	3.67758	0	
1.0400	3.2469	2.7544	0	
1.0407	5.99942	1.54368	0	
1.0413	6.30674	2.7544	0	
1.0420	1.72366	2.7544	0	
1.0427	-1.32281	1.54368	0	
1.0433	-1.93745	2.45172	0	
1.0440	-1.93745	4.58563	0	
1.0447	-2.24477	4.58563	0	
1.0453	-2.84605	4.28295	0	
1.0460	-1.93745	4.28295	0	
1.0467	1.41634	1.84636	0	
1.0473	5.38478	0.0151341	0	
1.0480	7.52266	1.84636	0	
1.0487	4.47618	1.84636	0	
1.0493	-1.93745	0.92318	0	
1.0500	-4.67661	2.7544	0	
1.0507	-5.59857	4.58563	0	
1.0513	-8.04376	2.45172	0	
1.0520	-6.81448	2.7544	0	
1.0527	-4.98393	2.7544	0	
1.0533	-10.4756	-0.908046	0	
1.0540	-12.6135	-2.73927	0	
1.0547	-4.36929	-2.43659	0	
1.0553	0.200426	-4.5705	0	
1.0560	-1.63013	-7.30977	0	
1.0567	1.72366	-6.09904	0	
1.0573	7.21534	-3.95	0	
1.0580	8.1373	-2.73927	0	
1.0587	10.5825	-0.908046	0	
1.0593	15.7668	0.620498	0	
1.0600	16.0742	-0.908046	0	
1.0607	9.96785	-2.73927	0	
1.0613	3.2469	-1.81609	0	
1.0620	-1.01549	-0.287548	0	
1.0627	-1.93745	-0.908046	0	
1.0633	-1.93745	-2.43659	0	
1.0640	-1.63013	-3.34463	0	
1.0647	-0.106894	-3.64732	0	
1.0653	-0.414214	-2.73927	0	
1.0660	-3.76801	-2.43659	0	
1.0667	-5.29125	-3.64732	0	
1.0673	-7.1218	-2.11877	0	
1.0680	-11.3976	0.92318	0	
1.0687	-14.1367	0.0151341	0	
1.0693	-14.444	-2.11877	0	
1.0700	-12.3062	-1.81609	0	
1.0707	-8.04376	-1.81609	0	
1.0713	-2.84605	-3.95	0	
1.0720	2.64562	-3.64732	0	
1.0727	9.04589	-0.908046	0	
1.0733	11.7984	0.92318	0	
1.0740	9.96785	-0.287548	0	
1.0747	7.21534	-0.605364	0	
1.0753	5.38478	2.45172	0	
1.0760	1.72366	3.67758	0	
1.0767	-2.24477	3.3749	0	
1.0773	-0.414214	5.50881	0	
1.0780	5.38478	8.24808	0	
1.0787	6.61406	8.24808	0	
1.0793	5.6921	8.55076	0	
1.0800	11.1838	9.47394	0	
1.0807	20.0426	9.77662	0	
1.0813	21.8732	10.382	0	
1.0820	17.5974	10.0793	0	
1.0827	14.8449	7.9454	0	
1.0833	15.4595	5.50881	0	
1.0840	15.4595	3.98027	0	
1.0847	12.7204	3.05709	0	
1.0853	11.4911	3.67758	0	
1.0860	9.66053	2.7544	0	
1.0867	-1.32281	-2.43659	0	
1.0873	-16.5819	-7.30977	0	
1.0880	-22.6882	-8.23295	0	
1.0887	-18.7198	-9.14099	0	
1.0893	-14.444	-12.8034	0	
1.0900	-15.6733	-13.4088	0	
1.0907	-18.4125	-10.3669	0	
1.0913	-17.5039	-9.14099	0	
1.0920	-15.6733	-9.14099	0	
1.0927	-15.366	-8.53563	0	
1.0933	-11.7049	-8.23295	0	
1.0940	-7.42912	-7.30977	0	
1.0947	-6.81448	-4.26781	0	
1.0953	-4.67661	-1.51341	0	
1.0960	-1.01549	-0.287548	0	
1.0967	-1.01549	-0.908046	0	
1.0973	-0.106894	-2.43659	0	
1.0980	2.03098	-0.908046	0	
1.0987	-4.36929	0.317816	0	
1.0993	-15.6733	-0.287548	0	
1.1000	-16.2746	1.84636	0	
1.1007	-9.25968	5.20613	0	
1.1013	-8.33772	3.98027	0	
1.1020	-12.3062	1.84636	0	
1.1027	-13.8428	1.84636	0	
1.1033	-16.5819	0.0151341	0	
1.1040	-18.7198	-1.81609	0	
1.1047	-20.8577	-1.21073	0	
1.1053	-26.6567	-3.64732	0	
1.1060	-21.165	-6.40172	0	
1.1067	6.61406	-3.64732	0	
1.1073	29.5027	-0.287548	0	
1.1080	25.5343	-1.21073	0	
1.1087	19.7353	-1.81609	0	
1.1093	31.0259	0.620498	0	
1.1100	40.1787	3.67758	0	
1.1107	34.9944	6.41686	0	
1.1113	27.3648	7.34004	0	
1.1120	25.5343	6.41686	0	
1.1127	25.227	6.41686	0	
1.1133	22.4744	6.41686	0	
1.1140	18.506	4.88831	0	
1.1147	19.428	4.28295	0	
1.1153	21.5658	5.50881	0	
1.1160	18.8133	5.50881	0	
1.1167	19.428	2.7544	0	
1.1173	30.104	1.22586	0	
1.1180	35.903	2.14904	0	
1.1187	28.2734	2.7544	0	
1.1193	21.2585	3.3749	0	
1.1200	19.7353	2.45172	0	
1.1207	12.413	-0.908046	0	
1.1213	1.72366	-5.17586	0	
1.1220	-4.07533	-7.30977	0	
1.1227	-9.25968	-7.93026	0	
1.1233	-13.5354	-7.30977	0	
1.1240	-12.3062	-5.47854	0	
1.1247	-13.5354	-3.95	0	
1.1253	-16.5819	-2.73927	0	
1.1260	-13.8428	-0.908046	0	
1.1267	-10.1683	-1.81609	0	
1.1273	-11.0902	-3.64732	0	
1.1280	-11.9988	-3.64732	0	
1.1287	-12.6135	-3.64732	0	
1.1293	-13.2281	-4.87318	0	
1.1300	-10.7829	-5.17586	0	
1.1307	-6.50716	-3.34463	0	
1.1313	-4.36929	-1.21073	0	
1.1320	-2.84605	0.620498	0	
1.1327	-1.01549	3.05709	0	
1.1333	1.12239	6.41686	0	
1.1340	1.41634	7.03735	0	
1.1347	-1.63013	4.58563	0	
1.1353	-1.63013	2.45172	0	
1.1360	1.41634	1.84636	0	
1.1367	1.41634	1.54368	0	
1.1373	1.72366	3.05709	0	
1.1380	3.2469	3.05709	0	
1.1387	-1.93745	0.0151341	0	
1.1393	-8.33772	-0.605364	0	
1.1400	-10.1683	1.54368	0	
1.1407	-12.9208	-0.908046	0	
1.1413	-16.2746	-4.26781	0	
1.1420	-16.2746	-1.21073	0	
1.1427	-13.2281	0.92318	0	
1.1433	-6.50716	-0.287548	0	
1.1440	-1.93745	0.317816	0	
1.1447	-2.53873	3.3749	0	
1.1453	0.507746	4.58563	0	
1.1460	7.52266	3.98027	0	
1.1467	5.6921	3.3749	0	
1.1473	-1.01549	2.7544	0	
1.1480	-1.01549	3.3749	0	
1.1487	3.2469	4.28295	0	
1.1493	4.16886	5.50881	0	
1.1500	2.64562	4.58563	0	
1.1507	0.815066	2.14904	0	
1.1513	-1.01549	0.317816	0	
1.1520	-2.84605	1.54368	0	
1.1527	-3.15337	3.67758	0	
1.1533	-1.01549	4.88831	0	
1.1540	-1.01549	5.50881	0	
1.1547	-2.53873	5.20613	0	
1.1553	-2.24477	3.05709	0	
1.1560	-2.84605	2.14904	0	
1.1567	-3.76801	2.14904	0	
1.1573	-1.01549	1.84636	0	
1.1580	3.2469	2.14904	0	
1.1587	4.7835	2.7544	0	
1.1593	4.47618	2.7544	0	
1.1600	2.95294	2.7544	0	
1.1607	0.815066	1.84636	0	
1.1613	-1.93745	1.22586	0	
1.1620	-6.50716	0.0151341	0	
1.1627	-9.25968	-2.43659	0	
1.1633	-5.90589	-2.11877	0	
1.1640	-3.15337	-0.287548	0	
1.1647	-5.90589	-3.04195	0	
1.1653	-9.567	-8.23295	0	
1.1660	-11.9988	-9.14099	0	
1.1667	-12.6135	-8.53563	0	
1.1673	-10.1683	-9.14099	0	
1.1680	-7.1218	-6.40172	0	
1.1687	-3.46069	-2.73927	0	
1.1693	1.72366	-1.51341	0	
1.1700	5.99942	0.0151341	0	
1.1707	8.1373	1.22586	0	
1.1713	12.1057	0.620498	0	
1.1720	17.2901	1.84636	0	
1.1727	17.2901	4.28295	0	
1.1733	13.3216	4.58563	0	
1.1740	10.8765	3.98027	0	
1.1747	12.413	5.50881	0	
1.1753	13.9363	6.41686	0	
1.1760	13.629	5.50881	0	
1.1767	12.7204	4.28295	0	
1.1773	12.7204	3.3749	0	
1.1780	9.35321	1.84636	0	
1.1787	3.86154	-0.287548	0	
1.1793	0.200426	-4.26781	0	
1.1800	-1.63013	-7.30977	0	
1.1807	-1.93745	-5.17586	0	
1.1813	-3.15337	-2.73927	0	
1.1820	-6.50716	-4.5705	0	
1.1827	-6.50716	-4.26781	0	
1.1833	-2.84605	1.54368	0	
1.1840	-2.84605	6.11417	0	
1.1847	-6.50716	6.41686	0	
1.1853	-9.25968	5.81149	0	
1.1860	-8.33772	2.7544	0	
1.1867	-5.90589	-2.43659	0	
1.1873	-6.50716	-3.34463	0	
1.1880	-12.3062	-0.908046	0	
1.1887	-15.9673	0.0151341	0	
1.1893	-12.9208	0.0151341	0	
1.1900	-8.04376	0.0151341	0	
1.1907	-4.67661	0.0151341	0	
1.1913	1.72366	-0.908046	0	
1.1920	9.04589	-2.73927	0	
1.1927	13.3216	-3.04195	0	
1.1933	15.1522	0.620498	0	
1.1940	18.212	3.67758	0	
1.1947	20.0426	3.3749	0	
1.1953	17.5974	4.58563	0	
1.1960	13.0143	6.11417	0	
1.1967	11.1838	4.58563	0	
1.1973	11.1838	3.05709	0	
1.1980	9.04589	1.22586	0	
1.1987	5.38478	-1.81609	0	
1.1993	3.86154	-2.73927	0	
1.2000	2.03098	-1.81609	0	
1.2007	-4.98393	-1.81609	0	
1.2013	-13.2281	-1.81609	0	
1.2020	-16.8892	-4.26781	0	
1.2027	-19.3344	-9.14099	0	
1.2033	-19.6284	-10.0642	0	
1.2040	-16.2746	-7.30977	0	
1.2047	-15.6733	-7.93026	0	
1.2053	-17.7978	-8.23295	0	
1.2060	-15.6733	-4.5705	0	
1.2067	-11.9988	-2.73927	0	
1.2073	-10.1683	-1.81609	0	
1.2080	-4.67661	0.0151341	0	
1.2087	0.815066	-0.908046	0	
1.2093	0.815066	-2.73927	0	
1.2100	1.41634	-0.287548	0	
1.2107	5.99942	1.84636	0	
1.2113	9.04589	2.14904	0	
1.2120	11.1838	2.45172	0	
1.2127	16.0742	3.05709	0	
1.2133	17.5974	5.50881	0	
1.2140	14.2436	8.24808	0	
1.2147	11.1838	6.41686	0	
1.2153	12.1057	3.67758	0	
1.2160	14.5509	3.98027	0	
1.2167	14.8449	3.3749	0	
1.2173	11.7984	0.92318	0	
1.2180	9.35321	0.92318	0	
1.2187	7.21534	-0.287548	0	
1.2193	2.03098	-2.11877	0	
1.2200	2.64562	0.620498	0	
1.2207	13.9363	2.7544	0	
1.2213	21.5658	-0.605364	0	
1.2220	15.1522	-2.73927	0	
1.2227	5.99942	-1.81609	0	
1.2233	1.12239	-2.43659	0	
1.2240	-4.67661	-2.73927	0	
1.2247	-12.9208	-3.64732	0	
1.2253	-17.7978	-5.78122	0	
1.2260	-17.1965	-7.93026	0	
1.2267	-12.3062	-7.30977	0	
1.2273	-6.21321	-5.78122	0	
1.2280	-2.84605	-3.95	0	
1.2287	-2.84605	-3.34463	0	
1.2293	-4.36929	-2.73927	0	
1.2300	-5.29125	-2.73927	0	
1.2307	-5.59857	-3.64732	0	
1.2313	-5.59857	-4.5705	0	
1.2320	-6.21321	-3.64732	0	
1.2327	-7.42912	-3.04195	0	
1.2333	-5.29125	-4.5705	0	
1.2340	-1.01549	-6.40172	0	
1.2347	-2.24477	-5.17586	0	
1.2353	-4.98393	-0.908046	0	
1.2360	-1.93745	-0.287548	0	
1.2367	0.815066	-3.64732	0	
1.2373	-0.414214	-2.73927	0	
1.2380	2.95294	1.84636	0	
1.2387	10.8765	1.84636	0	
1.2393	16.3815	1.22586	0	
1.2400	16.3815	3.67758	0	
1.2407	13.629	2.45172	0	
1.2413	12.1057	0.620498	0	
1.2420	12.7204	2.7544	0	
1.2427	10.8765	3.3749	0	
1.2433	8.75193	0.92318	0	
1.2440	6.92138	1.22586	0	
1.2447	1.72366	1.54368	0	
1.2453	-2.24477	0.0151341	0	
1.2460	-2.53873	0.317816	0	
1.2467	-4.36929	-0.287548	0	
1.2473	-7.42912	-1.81609	0	
1.2480	-8.64504	-0.605364	0	
1.2487	-8.64504	-0.287548	0	
1.2493	-6.21321	-2.73927	0	
1.2500	-2.24477	-2.73927	0	
1.2507	-2.84605	0.0151341	0	
1.2513	-4.67661	0.92318	0	
1.2520	-2.84605	-0.908046	0	
1.2527	0.815066	-3.34463	0	
1.2533	5.38478	-2.11877	0	
1.2540	9.96785	1.84636	0	
1.2547	10.2752	2.7544	0	
1.2553	9.04589	0.620498	0	
1.2560	10.8765	0.92318	0	
1.2567	12.7204	2.45172	0	
1.2573	11.7984	2.45172	0	
1.2580	9.96785	0.317816	0	
1.2587	7.21534	-2.73927	0	
1.2593	3.2469	-3.64732	0	
1.2600	-1.93745	-1.81609	0	
1.2607	-7.42912	-1.21073	0	
1.2613	-11.9988	-3.64732	0	
1.2620	-15.0587	-5.78122	0	
1.2627	-18.7198	-7.00709	0	
1.2633	-23.3029	-9.14099	0	
1.2640	-26.042	-11.8954	0	
1.2647	-24.5188	-12.5008	0	
1.2653	-19.6284	-9.74636	0	
1.2660	-15.366	-7.00709	0	
1.2667	-11.0902	-5.17586	0	
1.2673	-6.50716	-3.64732	0	
1.2680	-2.84605	-2.73927	0	
1.2687	2.03098	-0.908046	0	
1.2693	6.92138	1.54368	0	
1.2700	9.96785	0.92318	0	
1.2707	11.4911	0.0151341	0	
1.2713	10.5825	0.0151341	0	
1.2720	9.04589	-0.287548	0	
1.2727	9.66053	0.317816	0	
1.2733	7.21534	3.3749	0	
1.2740	3.55422	4.58563	0	
1.2747	7.21534	4.28295	0	
1.2753	11.7984	4.88831	0	
1.2760	10.8765	5.20613	0	
1.2767	11.1838	5.20613	0	
1.2773	11.7984	8.24808	0	
1.2780	5.09082	10.0793	0	
1.2787	-1.01549	6.41686	0	
1.2793	1.41634	3.67758	0	
1.2800	5.38478	7.34004	0	
1.2807	4.47618	10.6998	0	
1.2813	1.12239	9.17126	0	
1.2820	-1.01549	7.34004	0	
1.2827	-5.29125	4.58563	0	
1.2833	-15.0587	-1.51341	0	
1.2840	-19.3344	-5.47854	0	
1.2847	-9.87432	-7.00709	0	
1.2853	-3.76801	-9.74636	0	
1.2860	-10.1683	-9.44367	0	
1.2867	-14.1367	-4.26781	0	
1.2873	-11.9988	-0.605364	0	
1.2880	-11.0902	0.0151341	0	
1.2887	-8.33772	0.92318	0	
1.2893	0.815066	0.92318	0	
1.2900	9.35321	0.0151341	0	
1.2907	11.7984	1.84636	0	
1.2913	8.44461	3.05709	0	
1.2920	5.38478	1.54368	0	
1.2927	5.6921	2.14904	0	
1.2933	4.47618	3.98027	0	
1.2940	3.55422	0.317816	0	
1.2947	5.99942	-1.81609	0	
1.2953	5.38478	3.67758	0	
1.2960	2.3383	6.11417	0	
1.2967	5.38478	2.14904	0	
1.2973	9.96785	3.05709	0	
1.2980	9.66053	8.24808	0	
1.2987	10.5825	7.03735	0	
1.2993	13.629	2.7544	0	
1.3000	12.7204	3.3749	0	
1.3007	9.96785	5.50881	0	
1.3013	7.52266	5.20613	0	
1.3020	5.38478	3.98027	0	
1.3027	5.38478	2.7544	0	
1.3033	5.09082	0.620498	0	
1.3040	1.72366	0.0151341	0	
1.3047	-1.01549	0.92318	0	
1.3053	-1.01549	0.92318	0	
1.3060	-1.93745	-1.81609	0	
1.3067	-5.59857	-4.5705	0	
1.3073	-6.81448	-3.04195	0	
1.3080	-3.46069	-1.51341	0	
1.3087	-0.106894	-3.95	0	
1.3093	-2.84605	-6.40172	0	
1.3100	-4.98393	-5.47854	0	
1.3107	2.64562	-3.64732	0	
1.3113	9.04589	-2.43659	0	
1.3120	5.6921	-1.21073	0	
1.3127	3.86154	1.22586	0	
1.3133	8.1373	1.54368	0	
1.3140	9.96785	-0.908046	0	
1.3147	9.96785	-0.908046	0	
1.3153	11.1838	2.45172	0	
1.3160	7.82998	2.7544	0	
1.3167	-0.708172	1.22586	0	
1.3173	-4.67661	1.84636	0	
1.3180	-4.67661	0.0151341	0	
1.3187	-6.21321	-4.5705	0	
1.3193	-8.64504	-5.47854	0	
1.3200	-13.8428	-5.47854	0	
1.3207	-22.0736	-8.23295	0	
1.3213	-25.7347	-9.44367	0	
1.3220	-24.8261	-7.30977	0	
1.3227	-27.2579	-6.40172	0	
1.3233	-26.042	-5.47854	0	
1.3240	-13.8428	-1.21073	0	
1.3247	-2.24477	3.3749	0	
1.3253	-0.414214	4.28295	0	
1.3260	1.12239	3.3749	0	
1.3267	6.92138	3.3749	0	
1.3273	9.66053	3.67758	0	
1.3280	9.96785	4.58563	0	
1.3287	12.1057	6.41686	0	
1.3293	12.7204	7.34004	0	
1.3300	9.04589	7.9454	0	
1.3307	5.6921	9.17126	0	
1.3313	7.21534	7.03735	0	
1.3320	10.8765	-0.908046	0	
1.3327	10.8765	-6.7044	0	
1.3333	10.2752	-5.78122	0	
1.3340	12.7204	-3.95	0	
1.3347	10.5825	-4.26781	0	
1.3353	2.95294	-5.17586	0	
1.3360	-0.106894	-4.87318	0	
1.3367	1.72366	-3.04195	0	
1.3373	-0.708172	-0.287548	0	
1.3380	-4.67661	0.0151341	0	
1.3387	-4.36929	0.0151341	0	
1.3393	-3.76801	0.0151341	0	
1.3400	-4.36929	-0.908046	0	
1.3407	-2.84605	-2.43659	0	
1.3413	-0.106894	-1.81609	0	
1.3420	0.507746	-0.287548	0	
1.3427	2.03098	0.92318	0	
1.3433	4.47618	0.92318	0	
1.3440	2.64562	-0.287548	0	
1.3447	-1.32281	0.620498	0	
1.3453	-2.24477	2.45172	0	
1.3460	-1.01549	2.7544	0	
1.3467	-1.32281	3.3749	0	
1.3473	-1.63013	3.67758	0	
1.3480	-1.01549	1.84636	0	
1.3487	-0.106894	0.0151341	0	
1.3493	-0.708172	-1.81609	0	
1.3500	-3.76801	-4.5705	0	
1.3507	-7.73644	-4.87318	0	
1.3513	-8.95236	-4.5705	0	
1.3520	-6.21321	-6.40172	0	
1.3527	-3.76801	-4.5705	0	
1.3533	-4.67661	1.22586	0	
1.3540	-5.90589	1.84636	0	
1.3547	-2.53873	0.317816	0	
1.3553	2.95294	2.7544	0	
1.3560	2.64562	3.3749	0	
1.3567	-2.24477	1.54368	0	
1.3573	-1.93745	0.317816	0	
1.3580	5.09082	-0.908046	0	
1.3587	9.66053	-0.908046	0	
1.3593	8.1373	1.22586	0	
1.3600	6.92138	1.54368	0	
1.3607	8.1373	0.620498	0	
1.3613	7.21534	1.84636	0	
1.3620	4.7835	1.22586	0	
1.3627	5.09082	-1.51341	0	
1.3633	6.61406	0.620498	0	
1.3640	6.92138	3.67758	0	
1.3647	2.64562	0.92318	0	
1.3653	-4.67661	-2.73927	0	
1.3660	-6.81448	-2.43659	0	
1.3667	1.72366	0.0151341	0	
1.3673	6.92138	1.84636	0	
1.3680	0.200426	1.54368	0	
1.3687	-7.1218	-2.43659	0	
1.3693	-6.81448	-3.34463	0	
1.3700	-2.24477	1.84636	0	
1.3707	2.64562	5.50881	0	
1.3713	8.1373	3.98027	0	
1.3720	11.7984	4.58563	0	
1.3727	12.7204	6.41686	0	
1.3733	10.8765	4.88831	0	
1.3740	9.66053	3.05709	0	
1.3747	9.04589	2.7544	0	
1.3753	7.21534	0.92318	0	
1.3760	6.61406	1.22586	0	
1.3767	8.44461	3.67758	0	
1.3773	9.35321	3.67758	0	
1.3780	9.66053	3.05709	0	
1.3787	9.04589	2.14904	0	
1.3793	2.95294	-3.34463	0	
1.3800	-8.33772	-9.44367	0	
1.3807	-15.9673	-10.0642	0	
1.3813	-18.7198	-9.14099	0	
1.3820	-20.243	-10.6695	0	
1.3827	-21.165	-10.0642	0	
1.3833	-18.4125	-6.40172	0	
1.3840	-11.7049	-4.5705	0	
1.3847	-7.42912	-4.5705	0	
1.3853	-5.90589	-3.34463	0	
1.3860	-2.84605	-2.43659	0	
1.3867	-1.01549	-2.43659	0	
1.3873	-2.84605	-0.605364	0	
1.3880	-3.76801	0.92318	0	
1.3887	-1.63013	-0.908046	0	
1.3893	-0.708172	0.0151341	0	
1.3900	1.72366	4.58563	0	
1.3907	4.47618	6.11417	0	
1.3913	4.47618	4.88831	0	
1.3920	4.47618	5.20613	0	
1.3927	7.21534	5.50881	0	
1.3933	7.52266	4.58563	0	
1.3940	6.61406	1.84636	0	
1.3947	6.30674	-1.81609	0	
1.3953	5.38478	-2.43659	0	
1.3960	6.30674	-0.908046	0	
1.3967	8.75193	-2.73927	0	
1.3973	8.1373	-3.04195	0	
1.3980	5.99942	-0.605364	0	
1.3987	4.7835	0.92318	0	
1.3993	2.3383	3.05709	0	
1.4000	-0.708172	4.28295	0	
1.4007	-4.98393	1.84636	0	
1.4013	-8.95236	1.22586	0	
1.4020	-8.04376	3.05709	0	
1.4027	-8.33772	0.92318	0	
1.4033	-10.7829	-1.81609	0	
1.4040	-5.29125	0.0151341	0	
1.4047	4.16886	0.0151341	0	
1.4053	5.09082	-2.43659	0	
1.4060	0.200426	-3.64732	0	
1.4067	-6.50716	-3.34463	0	
1.4073	-12.6135	-2.43659	0	
1.4080	-11.9988	-3.64732	0	
1.4087	-11.9988	-6.7044	0	
1.4093	-19.0271	-6.09904	0	
1.4100	-20.8577	-3.64732	0	
1.4107	-16.5819	-3.34463	0	
1.4113	-13.8428	-0.908046	0	
1.4120	-5.59857	2.14904	0	
1.4127	5.99942	2.7544	0	
1.4133	10.8765	3.05709	0	
1.4140	12.7204	4.58563	0	
1.4147	16.6754	4.58563	0	
1.4153	18.8133	6.41686	0	
1.4160	20.6439	9.17126	0	
1.4167	23.0891	8.24808	0	
1.4173	24.305	7.34004	0	
1.4180	25.5343	9.17126	0	
1.4187	28.2734	9.47394	0	
1.4193	30.104	6.41686	0	
1.4200	27.6721	3.3749	0	
1.4207	15.1522	0.0151341	0	
1.4213	-2.24477	-4.26781	0	
1.4220	-13.8428	-4.5705	0	
1.4227	-19.3344	-1.51341	0	
1.4233	-23.9041	-3.64732	0	
1.4240	-25.7347	-10.0642	0	
1.4247	-23.9041	-10.0642	0	
1.4253	-20.243	-5.47854	0	
1.4260	-16.8892	-3.04195	0	
1.4267	-12.9208	-0.605364	0	
1.4273	-6.50716	3.98027	0	
1.4280	-1.93745	5.20613	0	
1.4287	-1.01549	3.67758	0	
1.4293	1.41634	5.50881	0	
1.4300	7.82998	9.17126	0	
1.4307	13.629	8.86858	0	
1.4313	20.0426	5.50881	0	
1.4320	25.227	3.05709	0	
1.4327	23.7037	2.7544	0	
1.4333	19.1206	4.88831	0	
1.4340	16.3815	5.20613	0	
1.4347	13.629	3.67758	0	
1.4353	8.44461	3.98027	0	
1.4360	1.41634	0.92318	0	
1.4367	-3.76801	-8.23295	0	
1.4373	-2.24477	-14.0293	0	
1.4380	2.95294	-14.9374	0	
1.4387	7.52266	-16.4659	0	
1.4393	9.96785	-13.4088	0	
1.4400	7.52266	-7.61245	0	
1.4407	1.12239	-6.40172	0	
1.4413	0.815066	-5.17586	0	
1.4420	5.09082	-1.51341	0	
1.4427	5.99942	-0.908046	0	
1.4433	3.55422	-0.605364	0	
1.4440	2.95294	0.92318	0	
1.4447	4.47618	0.317816	0	
1.4453	4.16886	0.92318	0	
1.4460	0.200426	3.3749	0	
1.4467	-4.67661	3.3749	0	
1.4473	-8.33772	0.92318	0	
1.4480	-11.3976	-2.11877	0	
1.4487	-12.6135	-3.95	0	
1.4493	-9.25968	-1.21073	0	
1.4500	-6.50716	0.92318	0	
1.4507	-5.59857	-2.43659	0	
1.4513	-2.84605	-4.26781	0	
1.4520	-1.93745	-0.908046	0	
1.4527	-1.63013	0.620498	0	
1.4533	0.507746	-1.21073	0	
1.4540	3.86154	0.0151341	0	
1.4547	6.30674	1.22586	0	
1.4553	5.38478	0.620498	0	
1.4560	1.72366	2.45172	0	
1.4567	-0.106894	5.50881	0	
1.4573	-0.414214	4.28295	0	
1.4580	-3.76801	0.92318	0	
1.4587	-6.50716	-1.51341	0	
1.4593	-6.21321	-3.64732	0	
1.4600	-9.87432	-4.5705	0	
1.4607	-16.2746	-4.5705	0	
1.4613	-17.7978	-7.61245	0	
1.4620	-14.7514	-11.2749	0	
1.4627	-12.9208	-11.8954	0	
1.4633	-13.8428	-10.9722	0	
1.4640	-13.5354	-10.0642	0	
1.4647	-10.1683	-7.30977	0	
1.4653	-7.42912	-1.21073	0	
1.4660	-7.73644	2.14904	0	
1.4667	-6.50716	-0.605364	0	
1.4673	-1.63013	-2.11877	0	
1.4680	3.55422	3.67758	0	
1.4687	5.38478	8.24808	0	
1.4693	5.09082	5.50881	0	
1.4700	5.6921	3.05709	0	
1.4707	5.38478	5.81149	0	
1.4713	3.55422	7.03735	0	
1.4720	4.7835	5.50881	0	
1.4727	7.21534	5.20613	0	
1.4733	5.99942	4.28295	0	
1.4740	5.99942	3.3749	0	
1.4747	8.75193	3.3749	0	
1.4753	9.66053	2.7544	0	
1.4760	11.7984	2.7544	0	
1.4767	13.3216	2.7544	0	
1.4773	7.82998	0.317816	0	
1.4780	4.16886	0.620498	0	
1.4787	9.35321	5.50881	0	
1.4793	10.5825	5.20613	0	
1.4800	4.7835	-1.21073	0	
1.4807	-0.106894	-3.34463	0	
1.4813	-5.59857	-1.81609	0	
1.4820	-12.6135	-2.73927	0	
1.4827	-15.6733	-2.43659	0	
1.4833	-18.1051	-2.43659	0	
1.4840	-21.7663	-5.17586	0	
1.4847	-22.0736	-4.26781	0	
1.4853	-16.8892	-1.21073	0	
1.4860	-11.3976	-2.11877	0	
1.4867	-10.1683	-2.73927	0	
1.4873	-11.7049	-0.605364	0	
1.4880	-9.25968	-1.51341	0	
1.4887	-4.98393	-3.34463	0	
1.4893	-3.76801	-1.51341	0	
1.4900	0.507746	0.0151341	0	
1.4907	7.52266	-0.908046	0	
1.4913	10.8765	-0.605364	0	
1.4920	15.4595	-0.287548	0	
1.4927	23.3964	-0.908046	0	
1.4933	24.6123	1.54368	0	
1.4940	20.6439	3.98027	0	
1.4947	16.6754	2.14904	0	
1.4953	13.0143	0.620498	0	
1.4960	10.5825	1.84636	0	
1.4967	10.5825	1.84636	0	
1.4973	8.75193	0.317816	0	
1.4980	5.99942	-0.287548	0	
1.4987	6.30674	0.92318	0	
1.4993	8.1373	4.28295	0	
1.5000	9.96785	5.50881	0	
1.5007	11.7984	2.7544	0	
1.5013	8.75193	1.84636	0	
1.5020	3.86154	3.67758	0	
1.5027	4.16886	3.3749	0	
1.5033	5.09082	2.7544	0	
1.5040	2.3383	3.98027	0	
1.5047	-0.106894	3.67758	0	
1.5053	0.507746	3.98027	0	
1.5060	0.200426	6.11417	0	
1.5067	-3.76801	2.7544	0	
1.5073	-10.7829	-1.81609	0	
1.5080	-15.6733	-0.908046	0	
1.5087	-13.8428	-0.908046	0	
1.5093	-9.567	-4.87318	0	
1.5100	-6.50716	-5.47854	0	
1.5107	-3.15337	-1.51341	0	
1.5113	-0.708172	0.92318	0	
1.5120	1.72366	0.92318	0	
1.5127	5.99942	0.620498	0	
1.5133	9.96785	2.45172	0	
1.5140	11.4911	3.3749	0	
1.5147	9.96785	-0.287548	0	
1.5153	3.55422	-3.64732	0	
1.5160	-1.93745	-3.34463	0	
1.5167	-0.106894	-4.5705	0	
1.5173	-0.106894	-7.30977	0	
1.5180	-5.59857	-4.5705	0	
1.5187	-6.50716	-1.81609	0	
1.5193	-6.21321	-5.17586	0	
1.5200	-11.0902	-9.14099	0	
1.5207	-12.6135	-7.61245	0	
1.5213	-7.42912	-3.95	0	
1.5220	-5.90589	-0.908046	0	
1.5227	-9.567	0.317816	0	
1.5233	-11.9988	-2.43659	0	
1.5240	-14.7514	-5.47854	0	
1.5247	-17.5039	-3.64732	0	
1.5253	-15.0587	-2.11877	0	
1.5260	-12.9208	-3.95	0	
1.5267	-17.5039	-3.95	0	
1.5273	-21.165	-2.11877	0	
1.5280	-15.6733	-3.64732	0	
1.5287	-5.59857	-3.04195	0	
1.5293	-1.01549	1.54368	0	
1.5300	1.41634	3.3749	0	
1.5307	9.96785	0.92318	0	
1.5313	19.1206	1.22586	0	
1.5320	18.8133	3.67758	0	
1.5327	12.7204	3.98027	0	
1.5333	12.7204	3.98027	0	
1.5340	15.4595	4.28295	0	
1.5347	15.7668	3.67758	0	
1.5353	17.2901	4.58563	0	
1.5360	22.1805	6.11417	0	
1.5367	24.011	5.50881	0	
1.5373	21.5658	2.7544	0	
1.5380	20.0426	2.14904	0	
1.5387	20.0426	3.98027	0	
1.5393	16.0742	3.98027	0	
1.5400	10.8765	0.92318	0	
1.5407	7.82998	1.54368	0	
1.5413	4.16886	5.50881	0	
1.5420	0.815066	5.20613	0	
1.5427	0.815066	1.22586	0	
1.5433	-0.708172	1.84636	0	
1.5440	-5.90589	5.20613	0	
1.5447	-9.25968	4.58563	0	
1.5453	-13.2281	0.317816	0	
1.5460	-20.243	-3.04195	0	
1.5467	-20.8577	-3.95	0	
1.5473	-13.8428	-2.73927	0	
1.5480	-10.1683	-1.51341	0	
1.5487	-10.7829	-0.908046	0	
1.5493	-7.42912	-2.11877	0	
1.5500	-6.21321	-3.64732	0	
1.5507	-11.0902	-4.5705	0	
1.5513	-13.8428	-6.40172	0	
1.5520	-11.0902	-8.23295	0	
1.5527	-7.42912	-7.30977	0	
1.5533	-4.67661	-5.78122	0	
1.5540	-4.67661	-4.26781	0	
1.5547	-4.36929	0.317816	0	
1.5553	0.815066	2.7544	0	
1.5560	5.6921	-0.287548	0	
1.5567	2.3383	0.317816	0	
1.5573	-1.93745	4.58563	0	
1.5580	-0.106894	4.58563	0	
1.5587	-1.93745	2.14904	0	
1.5593	-7.42912	2.14904	0	
1.5600	-4.98393	3.98027	0	
1.5607	0.507746	6.41686	0	
1.5613	1.41634	5.81149	0	
1.5620	4.16886	2.14904	0	
1.5627	8.44461	1.84636	0	
1.5633	8.44461	3.05709	0	
1.5640	7.52266	-0.287548	0	
1.5647	9.96785	-3.95	0	
1.5653	11.7984	-3.34463	0	
1.5660	12.413	-1.81609	0	
1.5667	11.7984	-1.21073	0	
1.5673	7.21534	0.317816	0	
1.5680	3.55422	0.0151341	0	
1.5687	5.99942	-0.908046	0	
1.5693	8.1373	-0.908046	0	
1.5700	3.55422	-2.73927	0	
1.5707	-4.07533	-7.30977	0	
1.5713	-7.1218	-8.23295	0	
1.5720	-2.53873	-3.64732	0	
1.5727	6.30674	-1.21073	0	
1.5733	12.7204	-1.51341	0	
1.5740	15.1522	-0.287548	0	
1.5747	16.3815	0.92318	0	
1.5753	16.0742	1.22586	0	
1.5760	12.7204	1.84636	0	
1.5767	8.44461	2.14904	0	
1.5773	2.64562	3.05709	0	
1.5780	-0.708172	1.84636	0	
1.5787	1.41634	-2.73927	0	
1.5793	2.3383	-3.95	0	
1.5800	0.507746	-0.605364	0	
1.5807	1.72366	-1.81609	0	
1.5813	4.47618	-4.26781	0	
1.5820	4.16886	-0.908046	0	
1.5827	-0.708172	1.22586	0	
1.5833	-5.90589	0.92318	0	
1.5840	-4.98393	2.7544	0	
1.5847	2.64562	2.45172	0	
1.5853	4.47618	-0.908046	0	
1.5860	-3.46069	-1.81609	0	
1.5867	-11.0902	-4.87318	0	
1.5873	-13.2281	-10.9722	0	
1.5880	-13.8428	-12.8034	0	
1.5887	-14.444	-11.2749	0	
1.5893	-13.5354	-10.0642	0	
1.5900	-12.9208	-6.7044	0	
1.5907	-12.9208	-3.64732	0	
1.5913	-9.567	-3.04195	0	
1.5920	-2.84605	-2.73927	0	
1.5927	-0.708172	0.620498	0	
1.5933	-1.32281	1.84636	0	
1.5940	0.815066	-0.908046	0	
1.5947	0.815066	-1.21073	0	
1.5953	-1.93745	2.7544	0	
1.5960	-0.106894	4.88831	0	
1.5967	2.64562	4.58563	0	
1.5973	3.55422	4.58563	0	
1.5980	5.6921	3.67758	0	
1.5987	8.1373	1.84636	0	
1.5993	8.1373	3.3749	0	
1.6000	9.96785	4.58563	0	
1.6007	14.2436	2.45172	0	
1.6013	15.7668	0.92318	0	
1.6020	14.5509	0.0151341	0	
1.6027	8.75193	-2.73927	0	
1.6033	0.815066	-4.5705	0	
1.6040	0.815066	-5.17586	0	
1.6047	6.92138	-6.09904	0	
1.6053	8.1373	-4.26781	0	
1.6060	4.16886	0.92318	0	
1.6067	0.200426	2.45172	0	
1.6073	-1.93745	0.0151341	0	
1.6080	-3.76801	1.54368	0	
1.6087	-4.07533	5.50881	0	
1.6093	-3.15337	5.50881	0	
1.6100	-2.53873	6.11417	0	
1.6107	-2.84605	8.24808	0	
1.6113	-0.106894	7.34004	0	
1.6120	1.72366	4.58563	0	
1.6127	-2.53873	2.7544	0	
1.6133	-1.01549	1.84636	0	
1.6140	8.75193	0.0151341	0	
1.6147	9.96785	0.0151341	0	
1.6153	2.03098	0.0151341	0	
1.6160	-0.708172	-0.908046	0	
1.6167	-1.63013	-2.11877	0	
1.6173	-4.67661	-2.73927	0	
1.6180	-1.01549	-2.73927	0	
1.6187	5.38478	-3.34463	0	
1.6193	2.95294	-4.87318	0	
1.6200	0.507746	-4.5705	0	
1.6207	8.1373	-3.64732	0	
1.6213	15.4595	-4.26781	0	
1.6220	13.3216	-4.26781	0	
1.6227	5.09082	-3.64732	0	
1.6233	-2.24477	-3.64732	0	
1.6240	-6.81448	-3.64732	0	
1.6247	-8.64504	-3.04195	0	
1.6253	-9.87432	-3.64732	0	
1.6260	-11.0902	-4.5705	0	
1.6267	-9.567	-3.95	0	
1.6273	-6.21321	-2.43659	0	
1.6280	-7.1218	-1.81609	0	
1.6287	-9.25968	-1.81609	0	
1.6293	-6.21321	-2.43659	0	
1.6300	-1.93745	-2.43659	0	
1.6307	-2.84605	-0.908046	0	
1.6313	-2.84605	1.22586	0	
1.6320	2.95294	2.14904	0	
1.6327	6.30674	3.3749	0	
1.6333	4.47618	5.20613	0	
1.6340	2.64562	3.67758	0	
1.6347	2.03098	-0.908046	0	
1.6353	1.41634	-3.34463	0	
1.6360	1.72366	-3.04195	0	
1.6367	2.03098	-3.64732	0	
1.6373	1.72366	-4.5705	0	
1.6380	6.30674	-1.81609	0	
1.6387	15.4595	0.0151341	0	
1.6393	17.2901	0.0151341	0	
1.6400	10.2752	0.620498	0	
1.6407	6.30674	1.84636	0	
1.6413	4.47618	1.22586	0	
1.6420	-1.01549	-0.605364	0	
1.6427	-6.81448	-1.81609	0	
1.6433	-8.95236	-2.11877	0	
1.6440	-11.9988	-2.43659	0	
1.6447	-19.9357	-4.5705	0	
1.6453	-26.6567	-7.30977	0	
1.6460	-26.964	-4.26781	0	
1.6467	-23.9041	1.84636	0	
1.6473	-20.5503	3.3749	0	
1.6480	-16.2746	2.14904	0	
1.6487	-12.6135	3.67758	0	
1.6493	-11.9988	3.3749	0	
1.6500	-12.9208	0.620498	0	
1.6507	-11.0902	0.92318	0	
1.6513	-6.81448	2.7544	0	
1.6520	0.815066	4.28295	0	
1.6527	10.5825	5.20613	0	
1.6533	20.6439	3.05709	0	
1.6540	29.1954	-0.908046	0	
1.6547	33.4711	-2.43659	0	
1.6553	33.7651	-2.73927	0	
1.6560	32.8565	-4.26781	0	
1.6567	27.3648	-3.64732	0	
1.6573	15.7668	-1.81609	0	
1.6580	5.38478	-1.81609	0	
1.6587	0.507746	-3.04195	0	
1.6593	-3.15337	-3.64732	0	
1.6600	-6.50716	-0.605364	0	
1.6607	-5.59857	3.05709	0	
1.6613	-2.53873	1.84636	0	
1.6620	-1.01549	-1.21073	0	
1.6627	2.3383	0.0151341	0	
1.6633	7.21534	2.7544	0	
1.6640	6.30674	2.7544	0	
1.6647	0.200426	2.7544	0	
1.6653	-1.01549	3.98027	0	
1.6660	2.95294	4.58563	0	
1.6667	6.92138	5.50881	0	
1.6673	10.8765	6.41686	0	
1.6680	13.0143	5.20613	0	
1.6687	9.35321	3.67758	0	
1.6693	4.47618	2.14904	0	
1.6700	0.507746	-2.43659	0	
1.6707	-4.67661	-5.17586	0	
1.6713	-5.29125	-3.34463	0	
1.6720	-0.708172	-3.34463	0	
1.6727	-2.53873	-5.47854	0	
1.6733	-8.04376	-3.95	0	
1.6740	-8.33772	-2.43659	0	
1.6747	-8.95236	-2.73927	0	
1.6753	-11.7049	-2.73927	0	
1.6760	-10.7829	-3.64732	0	
1.6767	-9.25968	-3.64732	0	
1.6773	-7.42912	-0.908046	0	
1.6780	1.41634	0.92318	0	
1.6787	9.04589	0.317816	0	
1.6793	8.1373	2.14904	0	
1.6800	5.6921	5.50881	0	
1.6807	3.2469	6.41686	0	
1.6813	-6.81448	4.58563	0	
1.6820	-19.3344	3.05709	0	
1.6827	-24.2115	3.67758	0	
1.6833	-25.7347	3.3749	0	
1.6840	-29.7031	0.0151341	0	
1.6847	-30.3178	-1.81609	0	
1.6853	-28.4872	-3.34463	0	
1.6860	-32.4556	-7.00709	0	
1.6867	-37.0254	-9.44367	0	
1.6873	-34.5935	-9.14099	0	
1.6880	-24.2115	-8.53563	0	
1.6887	-2.84605	-3.95	0	
1.6893	25.227	2.7544	0	
1.6900	41.1007	3.67758	0	
1.6907	42.6239	1.84636	0	
1.6913	43.2252	4.28295	0	
1.6920	43.5325	5.50881	0	
1.6927	36.5176	3.05709	0	
1.6933	26.4429	2.7544	0	
1.6940	18.212	3.67758	0	
1.6947	11.7984	0.92318	0	
1.6953	7.82998	0.0151341	0	
1.6960	5.38478	0.317816	0	
1.6967	2.3383	-2.11877	0	
1.6973	-3.76801	-3.34463	0	
1.6980	-8.64504	-0.908046	0	
1.6987	-10.4756	-0.605364	0	
1.6993	-11.0902	-1.81609	0	
1.7000	-8.33772	0.620498	0	
1.7007	1.72366	2.7544	0	
1.7013	11.1838	3.05709	0	
1.7020	18.212	3.3749	0	
1.7027	25.227	1.84636	0	
1.7033	25.227	0.92318	0	
1.7040	15.7668	2.45172	0	
1.7047	9.66053	2.14904	0	
1.7053	9.96785	-0.287548	0	
1.7060	9.66053	-1.81609	0	
1.7067	5.6921	-2.73927	0	
1.7073	1.12239	-2.73927	0	
1.7080	-0.106894	0.92318	0	
1.7087	3.55422	2.45172	0	
1.7093	6.61406	1.22586	0	
1.7100	6.30674	1.84636	0	
1.7107	9.96785	3.05709	0	
1.7113	13.9363	3.67758	0	
1.7120	12.7204	5.20613	0	
1.7127	11.7984	5.81149	0	
1.7133	14.2436	5.20613	0	
1.7140	12.7204	6.41686	0	
1.7147	9.96785	9.17126	0	
1.7153	11.1838	10.6998	0	
1.7160	9.96785	9.47394	0	
1.7167	5.38478	6.41686	0	
1.7173	2.95294	3.05709	0	
1.7180	1.12239	0.92318	0	
1.7187	-4.07533	-1.21073	0	
1.7193	-9.25968	-3.34463	0	
1.7200	-12.6135	-4.5705	0	
1.7207	-15.6733	-5.17586	0	
1.7213	-15.9673	-4.87318	0	
1.7220	-13.8428	-3.64732	0	
1.7227	-11.9988	-2.43659	0	
1.7233	-11.3976	-1.81609	0	
1.7240	-15.6733	-3.04195	0	
1.7247	-22.0736	-4.5705	0	
1.7253	-26.042	-4.87318	0	
1.7260	-30.3178	-6.7044	0	
1.7267	-33.0569	-7.93026	0	
1.7273	-26.3493	-3.64732	0	
1.7280	-12.6135	0.317816	0	
1.7287	-6.50716	-1.81609	0	
1.7293	-7.1218	-4.5705	0	
1.7300	-3.46069	-3.64732	0	
1.7307	4.47618	-1.81609	0	
1.7313	9.04589	1.22586	0	
1.7320	9.66053	2.45172	0	
1.7327	10.2752	0.92318	0	
1.7333	10.8765	3.3749	0	
1.7340	9.04589	7.03735	0	
1.7347	8.1373	4.58563	0	
1.7353	9.96785	1.54368	0	
1.7360	10.2752	4.58563	0	
1.7367	9.66053	6.41686	0	
1.7373	6.30674	2.14904	0	
1.7380	-0.106894	-1.81609	0	
1.7387	-4.67661	-3.34463	0	
1.7393	-7.42912	-4.5705	0	
1.7400	-11.0902	-3.64732	0	
1.7407	-10.4756	-2.11877	0	
1.7413	-8.95236	-2.73927	0	
1.7420	-11.9988	-4.5705	0	
1.7427	-16.5819	-5.47854	0	
1.7433	-20.243	-4.5705	0	
1.7440	-25.1334	-4.5705	0	
1.7447	-27.5653	-6.40172	0	
1.7453	-24.8261	-7.30977	0	
1.7460	-23.3029	-6.40172	0	
1.7467	-20.243	-5.17586	0	
1.7473	-13.8428	-3.64732	0	
1.7480	-8.95236	-1.81609	0	
1.7487	-6.81448	0.620498	0	
1.7493	-5.29125	0.92318	0	
1.7500	-3.46069	0.620498	0	
1.7507	5.38478	2.7544	0	
1.7513	22.4744	8.24808	0	
1.7520	36.5176	9.47394	0	
1.7527	40.486	8.55076	0	
1.7533	37.4396	9.77662	0	
1.7540	32.5492	9.17126	0	
1.7547	30.104	7.03735	0	
1.7553	29.5027	9.47394	0	
1.7560	26.7502	11.6078	0	
1.7567	21.5658	6.41686	0	
1.7573	14.5509	0.92318	0	
1.7580	7.52266	-0.287548	0	
1.7587	2.95294	-1.51341	0	
1.7593	3.55422	-1.81609	0	
1.7600	5.38478	-0.605364	0	
1.7607	3.86154	-1.51341	0	
1.7613	-0.106894	-3.64732	0	
1.7620	-4.07533	-3.95	0	
1.7627	-10.7829	-4.5705	0	
1.7633	-17.5039	-7.00709	0	
1.7640	-17.1965	-8.23295	0	
1.7647	-11.9988	-7.30977	0	
1.7653	-9.567	-6.40172	0	
1.7660	-5.29125	-5.78122	0	
1.7667	-0.106894	-3.95	0	
1.7673	-5.59857	-2.11877	0	
1.7680	-14.444	-1.21073	0	
1.7687	-11.9988	0.0151341	0	
1.7693	-9.87432	-0.287548	0	
1.7700	-19.6284	-3.95	0	
1.7707	-24.8261	-6.7044	0	
1.7713	-16.8892	-5.47854	0	
1.7720	-9.25968	-1.81609	0	
1.7727	-9.25968	0.620498	0	
1.7733	-12.3062	-0.287548	0	
1.7740	-11.3976	-2.11877	0	
1.7747	-0.106894	-0.605364	0	
1.7753	15.1522	2.14904	0	
1.7760	20.9512	2.45172	0	
1.7767	22.1805	2.7544	0	
1.7773	25.8416	2.7544	0	
1.7780	21.2585	-0.908046	0	
1.7787	9.66053	-4.5705	0	
1.7793	5.38478	-4.5705	0	
1.7800	7.21534	-3.04195	0	
1.7807	8.1373	-0.908046	0	
1.7813	14.2436	1.84636	0	
1.7820	22.1805	2.7544	0	
1.7827	20.9512	1.84636	0	
1.7833	15.4595	1.54368	0	
1.7840	14.5509	3.67758	0	
1.7847	16.6754	6.11417	0	
1.7853	19.1206	6.41686	0	
1.7860	20.9512	5.20613	0	
1.7867	18.506	5.81149	0	
1.7873	13.629	7.9454	0	
1.7880	12.7204	7.03735	0	
1.7887	12.413	3.67758	0	
1.7893	5.99942	1.22586	0	
1.7900	-0.106894	0.0151341	0	
1.7907	-1.01549	0.317816	0	
1.7913	-3.46069	0.317816	0	
1.7920	-9.25968	-3.34463	0	
1.7927	-13.8428	-8.23295	0	
1.7933	-19.6284	-11.2749	0	
1.7940	-20.243	-11.5776	0	
1.7947	-11.0902	-9.74636	0	
1.7953	-7.73644	-9.14099	0	
1.7960	-15.9673	-9.14099	0	
1.7967	-18.4125	-7.30977	0	
1.7973	-14.444	-5.17586	0	
1.7980	-15.6733	-5.47854	0	
1.7987	-14.444	-2.43659	0	
1.7993	-2.84605	3.98027	0	
1.8000	6.61406	4.28295	0	
1.8007	7.21534	2.7544	0	
1.8013	5.99942	6.11417	0	
1.8020	5.09082	6.71954	0	
1.8027	-0.106894	5.50881	0	
1.8033	-5.29125	8.86858	0	
1.8040	-5.59857	8.24808	0	
1.8047	-3.76801	2.7544	0	
1.8053	-3.76801	3.3749	0	
1.8060	-3.76801	6.41686	0	
1.8067	-2.53873	3.67758	0	
1.8073	-5.29125	1.22586	0	
1.8080	-11.3976	1.54368	0	
1.8087	-14.7514	-1.21073	0	
1.8093	-15.366	-2.73927	0	
1.8100	-19.0271	-2.11877	0	
1.8107	-24.5188	-3.34463	0	
1.8113	-22.9955	-3.64732	0	
1.8120	-15.9673	-3.34463	0	
1.8127	-12.9208	-3.34463	0	
1.8133	-6.21321	-0.287548	0	
1.8140	9.35321	2.45172	0	
1.8147	14.2436	-1.21073	0	
1.8153	12.413	-3.64732	0	
1.8160	31.0259	0.0151341	0	
1.8167	55.1305	1.84636	0	
1.8173	50.2535	1.22586	0	
1.8180	31.3333	2.14904	0	
1.8187	23.0891	2.7544	0	
1.8193	20.0426	0.92318	0	
1.8200	20.0426	0.0151341	0	
1.8207	24.305	1.54368	0	
1.8213	21.5658	1.54368	0	
1.8220	12.1057	-2.73927	0	
1.8227	6.30674	-4.5705	0	
1.8233	1.12239	-3.34463	0	
1.8240	-6.21321	-5.47854	0	
1.8247	-8.64504	-7.93026	0	
1.8253	-7.1218	-4.87318	0	
1.8260	-6.50716	-3.95	0	
1.8267	-5.59857	-6.40172	0	
1.8273	-2.84605	-4.26781	0	
1.8280	-1.93745	-2.73927	0	
1.8287	-4.07533	-3.34463	0	
1.8293	-5.90589	-2.73927	0	
1.8300	-7.1218	-4.87318	0	
1.8307	-8.04376	-7.61245	0	
1.8313	-9.25968	-2.11877	0	
1.8320	-12.9208	2.7544	0	
1.8327	-15.6733	0.0151341	0	
1.8333	-12.6135	0.0151341	0	
1.8340	-11.9988	1.54368	0	
1.8347	-17.5039	-1.21073	0	
1.8353	-18.4125	-1.21073	0	
1.8360	-15.0587	-0.287548	0	
1.8367	-14.444	-2.73927	0	
1.8373	-12.3062	-2.43659	0	
1.8380	-5.90589	-0.287548	0	
1.8387	-0.106894	-2.73927	0	
1.8393	2.03098	-2.73927	0	
1.8400	2.03098	1.22586	0	
1.8407	4.47618	2.7544	0	
1.8413	11.7984	3.67758	0	
1.8420	14.2436	4.88831	0	
1.8427	9.04589	2.7544	0	
1.8433	8.1373	3.05709	0	
1.8440	11.7984	6.11417	0	
1.8447	10.8765	4.28295	0	
1.8453	9.96785	0.92318	0	
1.8460	9.96785	0.92318	0	
1.8467	3.86154	0.620498	0	
1.8473	-0.106894	0.317816	0	
1.8480	5.38478	1.22586	0	
1.8487	7.82998	-1.21073	0	
1.8493	4.47618	-4.5705	0	
1.8500	4.16886	-3.34463	0	
1.8507	4.47618	-2.73927	0	
1.8513	2.3383	-3.34463	0	
1.8520	1.72366	-1.21073	0	
1.8527	2.3383	1.54368	0	
1.8533	2.95294	1.84636	0	
1.8540	3.86154	1.84636	0	
1.8547	1.41634	1.84636	0	
1.8553	-3.76801	0.92318	0	
1.8560	-5.90589	1.84636	0	
1.8567	-6.50716	2.45172	0	
1.8573	-9.25968	0.0151341	0	
1.8580	-10.7829	0.620498	0	
1.8587	-10.7829	2.7544	0	
1.8593	-12.6135	0.0151341	0	
1.8600	-15.6733	-3.34463	0	
1.8607	-18.4125	-1.81609	0	
1.8613	-20.5503	-1.51341	0	
1.8620	-18.4125	-4.5705	0	
1.8627	-11.9988	-5.17586	0	
1.8633	-6.50716	-1.21073	0	
1.8640	-4.67661	1.54368	0	
1.8647	-8.64504	0.92318	0	
1.8653	-16.2746	-1.81609	0	
1.8660	-13.8428	-1.51341	0	
1.8667	2.03098	2.45172	0	
1.8673	13.0143	3.98027	0	
1.8680	10.5825	3.05709	0	
1.8687	6.30674	3.98027	0	
1.8693	6.92138	3.67758	0	
1.8700	4.16886	1.84636	0	
1.8707	-1.32281	2.45172	0	
1.8713	0.815066	3.3749	0	
1.8720	10.8765	2.7544	0	
1.8727	19.428	4.28295	0	
1.8733	26.4429	5.20613	0	
1.8740	31.0259	2.7544	0	
1.8747	28.8881	1.54368	0	
1.8753	25.8416	0.92318	0	
1.8760	28.2734	-1.81609	0	
1.8767	25.227	-2.73927	0	
1.8773	13.3216	0.0151341	0	
1.8780	3.55422	0.0151341	0	
1.8787	-1.93745	-1.81609	0	
1.8793	-3.76801	1.22586	0	
1.8800	2.03098	4.28295	0	
1.8807	9.35321	2.45172	0	
1.8813	8.44461	1.84636	0	
1.8820	1.72366	2.7544	0	
1.8827	-3.76801	0.92318	0	
1.8833	-4.67661	0.317816	0	
1.8840	-3.76801	2.7544	0	
1.8847	-5.29125	1.22586	0	
1.8853	-7.42912	-2.73927	0	
1.8860	-8.33772	-2.11877	0	
1.8867	-10.1683	-1.21073	0	
1.8873	-9.567	-1.81609	0	
1.8880	-7.42912	-1.81609	0	
1.8887	-8.64504	-3.34463	0	
1.8893	-9.567	-6.09904	0	
1.8900	-5.90589	-5.17586	0	
1.8907	-5.59857	-2.11877	0	
1.8913	-6.50716	-0.908046	0	
1.8920	0.200426	-0.908046	0	
1.8927	6.30674	-1.21073	0	
1.8933	3.86154	-0.908046	0	
1.8940	2.03098	0.317816	0	
1.8947	5.6921	1.22586	0	
1.8953	9.35321	2.7544	0	
1.8960	9.66053	4.58563	0	
1.8967	6.92138	1.84636	0	
1.8973	4.7835	-0.908046	0	
1.8980	5.38478	1.22586	0	
1.8987	2.64562	3.3749	0	
1.8993	-5.59857	2.7544	0	
1.9000	-10.7829	3.05709	0	
1.9007	-12.9208	1.22586	0	
1.9013	-15.0587	-2.73927	0	
1.9020	-17.1965	-2.73927	0	
1.9027	-19.3344	-0.908046	0	
1.9033	-19.3344	-1.51341	0	
1.9040	-19.0271	-5.47854	0	
1.9047	-23.9041	-9.14099	0	
1.9053	-21.7663	-7.61245	0	
1.9060	-1.63013	-3.04195	0	
1.9067	13.0143	-0.287548	0	
1.9073	8.75193	0.0151341	0	
1.9080	4.47618	-1.51341	0	
1.9087	8.44461	-4.26781	0	
1.9093	9.04589	-2.73927	0	
1.9100	6.61406	0.92318	0	
1.9107	5.09082	2.45172	0	
1.9113	0.815066	3.05709	0	
1.9120	-1.01549	4.58563	0	
1.9127	2.95294	1.84636	0	
1.9133	6.61406	-0.908046	0	
1.9140	5.09082	0.620498	0	
1.9147	2.95294	0.620498	0	
1.9153	3.55422	-1.81609	0	
1.9160	4.47618	-1.51341	0	
1.9167	0.507746	0.92318	0	
1.9173	-10.1683	0.620498	0	
1.9180	-19.0271	-2.73927	0	
1.9187	-18.1051	-3.64732	0	
1.9193	-18.4125	-1.81609	0	
1.9200	-25.4274	-0.287548	0	
1.9207	-25.4274	1.22586	0	
1.9213	-14.7514	5.50881	0	
1.9220	-4.67661	6.41686	0	
1.9227	1.72366	0.92318	0	
1.9233	7.21534	-1.81609	0	
1.9240	13.9363	0.92318	0	
1.9247	26.1355	3.05709	0	
1.9253	37.1323	3.3749	0	
1.9260	33.7651	2.14904	0	
1.9267	24.305	-0.605364	0	
1.9273	21.8732	-2.11877	0	
1.9280	18.8133	-0.908046	0	
1.9287	9.96785	1.22586	0	
1.9293	7.52266	1.22586	0	
1.9300	10.8765	-0.908046	0	
1.9307	9.66053	-0.908046	0	
1.9313	6.92138	0.0151341	0	
1.9320	8.75193	-1.81609	0	
1.9327	7.21534	-2.73927	0	
1.9333	1.72366	-1.81609	0	
1.9340	2.3383	-1.81609	0	
1.9347	6.30674	-1.51341	0	
1.9353	5.38478	1.84636	0	
1.9360	4.16886	2.14904	0	
1.9367	5.6921	0.92318	0	
1.9373	5.09082	2.7544	0	
1.9380	1.72366	4.58563	0	
1.9387	0.815066	2.7544	0	
1.9393	1.72366	0.92318	0	
1.9400	-1.01549	0.317816	0	
1.9407	-9.87432	0.92318	0	
1.9413	-16.2746	0.92318	0	
1.9420	-14.7514	0.92318	0	
1.9427	-12.6135	1.84636	0	
1.9433	-14.444	1.84636	0	
1.9440	-16.2746	-1.81609	0	
1.9447	-17.5039	-5.17586	0	
1.9453	-19.3344	-4.26781	0	
1.9460	-21.165	-3.34463	0	
1.9467	-18.1051	-2.11877	0	
1.9473	-6.81448	0.620498	0	
1.9480	5.09082	0.0151341	0	
1.9487	8.75193	-3.04195	0	
1.9493	11.7984	-1.81609	0	
1.9500	17.9047	1.22586	0	
1.9507	17.2901	0.620498	0	
1.9513	10.2752	0.0151341	0	
1.9520	8.75193	1.84636	0	
1.9527	9.04589	0.0151341	0	
1.9533	6.30674	-3.64732	0	
1.9540	2.64562	-2.73927	0	
1.9547	-1.01549	-2.11877	0	
1.9553	-3.76801	-2.43659	0	
1.9560	-5.29125	-0.605364	0	
1.9567	-3.76801	0.317816	0	
1.9573	3.55422	0.317816	0	
1.9580	13.0143	4.58563	0	
1.9587	16.3815	8.55076	0	
1.9593	15.1522	7.34004	0	
1.9600	15.1522	5.81149	0	
1.9607	16.3815	6.11417	0	
1.9613	16.0742	3.67758	0	
1.9620	11.7984	0.92318	0	
1.9627	4.7835	0.0151341	0	
1.9633	-1.93745	-1.81609	0	
1.9640	-7.42912	-3.04195	0	
1.9647	-12.9208	-3.64732	0	
1.9653	-16.2746	-7.00709	0	
1.9660	-11.7049	-9.44367	0	
1.9667	-2.84605	-8.23295	0	
1.9673	-0.708172	-6.09904	0	
1.9680	-6.50716	-5.47854	0	
1.9687	-8.64504	-4.87318	0	
1.9693	-3.76801	-4.87318	0	
1.9700	-1.63013	-4.5705	0	
1.9707	-3.76801	-2.43659	0	
1.9713	-7.1218	-0.287548	0	
1.9720	-10.1683	-0.287548	0	
1.9727	-8.64504	-1.81609	0	
1.9733	-2.84605	-2.73927	0	
1.9740	1.41634	-1.81609	0	
1.9747	3.2469	-0.287548	0	
1.9753	6.30674	-0.908046	0	
1.9760	5.38478	-1.21073	0	
1.9767	-3.46069	1.22586	0	
1.9773	-8.64504	0.92318	0	
1.9780	1.72366	-0.908046	0	
1.9787	14.8449	0.0151341	0	
1.9793	15.4595	0.92318	0	
1.9800	12.7204	0.317816	0	
1.9807	15.4595	0.92318	0	
1.9813	13.9363	-0.605364	0	
1.9820	7.21534	-3.64732	0	
1.9827	2.3383	-3.04195	0	
1.9833	-1.01549	-2.73927	0	
1.9840	-4.67661	-4.26781	0	
1.9847	-9.87432	-3.34463	0	
1.9853	-15.0587	-3.34463	0	
1.9860	-12.6135	-5.47854	0	
1.9867	-5.90589	-5.78122	0	
1.9873	-7.1218	-6.40172	0	
1.9880	-9.87432	-7.61245	0	
1.9887	-1.93745	-3.95	0	
1.9893	9.66053	0.620498	0	
1.9900	14.2436	0.92318	0	
1.9907	13.9363	0.620498	0	
1.9913	11.1838	0.92318	0	
1.9920	7.21534	0.317816	0	
1.9927	2.95294	-0.287548	0	
1.9933	-0.414214	-1.21073	0	
1.9940	0.200426	-1.51341	0	
1.9947	5.99942	0.92318	0	
1.9953	11.7984	1.84636	0	
1.9960	13.9363	0.0151341	0	
1.9967	14.2436	0.317816	0	
1.9973	16.9828	1.22586	0	
1.9980	20.0426	-0.287548	0	
1.9987	17.5974	0.0151341	0	
1.9993	9.96785	3.05709	0	
2.0000	5.09082	2.7544	0	
2.0007	2.64562	-0.908046	0	
2.0013	0.815066	-0.605364	0	
2.0020	-1.01549	1.54368	0	
2.0027	-3.46069	0.317816	0	
2.0033	-8.33772	-1.51341	0	
2.0040	-13.5354	-0.908046	0	
2.0047	-17.5039	-2.11877	0	
2.0053	-19.9357	-3.64732	0	
2.0060	-20.8577	-3.64732	0	
2.0067	-22.0736	-2.43659	0	
2.0073	-27.5653	-0.908046	0	
2.0080	-31.5337	0.0151341	0	
2.0087	-30.9324	-3.34463	0	
2.0093	-32.4556	-5.47854	0	
2.0100	-34.5935	-3.64732	0	
2.0107	-33.0569	-2.73927	0	
2.0113	-34.2862	-2.73927	0	
2.0120	-32.763	0.92318	0	
2.0127	-18.4125	3.67758	0	
2.0133	-6.21321	2.45172	0	
2.0140	3.86154	2.14904	0	
2.0147	31.9345	3.67758	0	
2.0153	61.2368	6.41686	0	
2.0160	64.8979	10.6998	0	
2.0167	56.3598	11.3052	0	
2.0173	48.4229	4.58563	0	
2.0180	34.3797	-0.908046	0	
2.0187	27.9795	0.317816	0	
2.0193	34.9944	1.84636	0	
2.0200	30.104	0.92318	0	
2.0207	13.3216	-0.908046	0	
2.0213	6.30674	-1.81609	0	
2.0220	6.30674	-1.51341	0	
2.0227	3.86154	-0.908046	0	
2.0233	4.7835	-1.81609	0	
2.0240	7.82998	-0.908046	0	
2.0247	5.09082	2.7544	0	
2.0253	0.507746	3.05709	0	
2.0260	-1.63013	0.92318	0	
2.0267	-3.15337	1.84636	0	
2.0273	-3.76801	3.67758	0	
2.0280	-4.67661	3.3749	0	
2.0287	-11.0902	2.45172	0	
2.0293	-21.4723	0.620498	0	
2.0300	-26.042	-3.04195	0	
2.0307	-22.9955	-4.5705	0	
2.0313	-18.4125	-3.64732	0	
2.0320	-18.4125	-4.5705	0	
2.0327	-22.9955	-5.78122	0	
2.0333	-23.5968	-3.04195	0	
2.0340	-13.8428	0.317816	0	
2.0347	-3.15337	0.92318	0	
2.0353	0.815066	2.7544	0	
2.0360	4.16886	5.50881	0	
2.0367	7.82998	6.41686	0	
2.0373	8.44461	7.64272	0	
2.0380	9.96785	8.24808	0	
2.0387	12.1057	6.71954	0	
2.0393	10.8765	8.55076	0	
2.0400	8.1373	12.531	0	
2.0407	8.44461	11.0025	0	
2.0413	8.1373	8.24808	0	
2.0420	3.86154	6.71954	0	
2.0427	-1.93745	3.05709	0	
2.0433	-1.01549	0.92318	0	
2.0440	7.21534	4.58563	0	
2.0447	12.7204	6.41686	0	
2.0453	12.7204	5.20613	0	
2.0460	9.96785	7.64272	0	
2.0467	5.38478	10.0793	0	
2.0473	2.3383	8.24808	0	
2.0480	4.47618	8.24808	0	
2.0487	6.30674	8.86858	0	
2.0493	0.815066	5.81149	0	
2.0500	-5.29125	4.58563	0	
2.0507	-8.04376	6.71954	0	
2.0513	-10.4756	6.41686	0	
2.0520	-13.8428	3.3749	0	
2.0527	-16.5819	-1.21073	0	
2.0533	-19.3344	-8.83831	0	
2.0540	-22.3809	-12.8034	0	
2.0547	-21.7663	-9.44367	0	
2.0553	-18.1051	-7.61245	0	
2.0560	-15.6733	-8.83831	0	
2.0567	-14.7514	-4.5705	0	
2.0573	-11.9988	0.0151341	0	
2.0580	-10.7829	-3.04195	0	
2.0587	-14.444	-5.47854	0	
2.0593	-15.366	-2.11877	0	
2.0600	-11.9988	-1.81609	0	
2.0607	-11.0902	-3.64732	0	
2.0613	-10.7829	-0.908046	0	
2.0620	-9.25968	-0.287548	0	
2.0627	-13.8428	-2.73927	0	
2.0633	-22.6882	-1.51341	0	
2.0640	-22.9955	-0.287548	0	
2.0647	-7.1218	-2.73927	0	
2.0653	17.2901	-1.81609	0	
2.0660	33.7651	1.84636	0	
2.0667	33.1638	0.620498	0	
2.0673	22.4744	-3.04195	0	
2.0680	12.7204	-3.64732	0	
2.0687	13.9363	-0.908046	0	
2.0693	23.3964	1.84636	0	
2.0700	24.6123	2.45172	0	
2.0707	17.5974	1.84636	0	
2.0713	16.3815	2.14904	0	
2.0720	20.0426	1.84636	0	
2.0727	20.0426	0.620498	0	
2.0733	21.5658	0.0151341	0	
2.0740	22.7818	-1.51341	0	
2.0747	19.1206	-3.04195	0	
2.0753	15.4595	-2.11877	0	
2.0760	11.7984	-2.73927	0	
2.0767	5.38478	-4.26781	0	
2.0773	2.95294	-2.11877	0	
2.0780	5.38478	1.54368	0	
2.0787	4.47618	1.54368	0	
2.0793	0.200426	0.0151341	0	
2.0800	-2.84605	0.0151341	0	
2.0807	-8.04376	-1.51341	0	
2.0813	-15.366	-4.5705	0	
2.0820	-20.243	-7.30977	0	
2.0827	-22.6882	-8.23295	0	
2.0833	-27.8726	-6.40172	0	
2.0840	-33.3642	-5.47854	0	
2.0847	-32.1483	-7.00709	0	
2.0853	-24.5188	-7.00709	0	
2.0860	-15.0587	-5.17586	0	
2.0867	-5.59857	-3.64732	0	
2.0873	0.507746	-1.81609	0	
2.0880	0.200426	-0.605364	0	
2.0887	-2.84605	-2.43659	0	
2.0893	-2.84605	-3.95	0	
2.0900	-0.414214	-3.64732	0	
2.0907	2.64562	-1.81609	0	
2.0913	7.21534	1.22586	0	
2.0920	10.2752	0.92318	0	
2.0927	11.1838	-4.5705	0	
2.0933	12.1057	-6.09904	0	
2.0940	16.3815	-2.73927	0	
2.0947	20.3499	-1.81609	0	
2.0953	17.9047	-2.11877	0	
2.0960	11.7984	0.0151341	0	
2.0967	9.96785	0.92318	0	
2.0973	11.4911	0.317816	0	
2.0980	9.96785	0.92318	0	
2.0987	9.96785	0.317816	0	
2.0993	13.0143	0.620498	0	
2.1000	14.5509	1.54368	0	
2.1007	14.5509	0.0151341	0	
2.1013	11.4911	-2.11877	0	
2.1020	6.30674	-1.81609	0	
2.1027	6.30674	-1.81609	0	
2.1033	9.96785	-2.73927	0	
2.1040	9.04589	-0.908046	0	
2.1047	6.92138	2.14904	0	
2.1053	6.30674	3.3749	0	
2.1060	2.95294	2.7544	0	
2.1067	-2.84605	1.84636	0	
2.1073	-7.42912	0.317816	0	
2.1080	-11.9988	0.92318	0	
2.1087	-14.444	1.84636	0	
2.1093	-13.2281	0.620498	0	
2.1100	-14.7514	-1.21073	0	
2.1107	-17.7978	-4.26781	0	
2.1113	-23.5968	-8.83831	0	
2.1120	-32.1483	-12.1981	0	
2.1127	-33.0569	-13.7266	0	
2.1133	-23.9041	-14.0293	0	
2.1140	-16.5819	-14.9374	0	
2.1147	-7.1218	-13.7266	0	
2.1153	7.82998	-8.53563	0	
2.1160	10.8765	-5.47854	0	
2.1167	3.86154	-8.83831	0	
2.1173	7.21534	-7.61245	0	
2.1180	14.5509	0.92318	0	
2.1187	10.5825	0.92318	0	
2.1193	3.86154	-7.30977	0	
2.1200	0.815066	-7.30977	0	
2.1207	-2.84605	-1.81609	0	
2.1213	-5.90589	-1.81609	0	
2.1220	-3.76801	-1.81609	0	
2.1227	-1.01549	0.92318	0	
2.1233	1.72366	0.620498	0	
2.1240	7.21534	-0.287548	0	
2.1247	11.7984	2.14904	0	
2.1253	9.66053	1.54368	0	
2.1260	3.2469	-0.287548	0	
2.1267	-0.106894	3.3749	0	
2.1273	-0.414214	6.41686	0	
2.1280	-1.93745	3.67758	0	
2.1287	-3.76801	1.84636	0	
2.1293	-2.84605	3.98027	0	
2.1300	2.03098	4.58563	0	
2.1307	9.04589	2.7544	0	
2.1313	12.7204	0.92318	0	
2.1320	11.7984	0.0151341	0	
2.1327	10.8765	-0.908046	0	
2.1333	10.5825	-0.908046	0	
2.1340	7.21534	0.0151341	0	
2.1347	4.47618	1.54368	0	
2.1353	5.38478	3.67758	0	
2.1360	6.61406	5.50881	0	
2.1367	8.75193	5.81149	0	
2.1373	9.04589	3.3749	0	
2.1380	4.7835	2.45172	0	
2.1387	-0.414214	2.14904	0	
2.1393	-3.15337	-1.21073	0	
2.1400	-5.59857	-3.95	0	
2.1407	-6.81448	-3.95	0	
2.1413	-8.64504	-4.26781	0	
2.1420	-12.9208	-3.64732	0	
2.1427	-13.8428	-2.73927	0	
2.1433	-10.4756	-3.95	0	
2.1440	-12.3062	-3.95	0	
2.1447	-14.444	-3.34463	0	
2.1453	-10.1683	-3.64732	0	
2.1460	-6.50716	-2.73927	0	
2.1467	-2.84605	-3.04195	0	
2.1473	5.38478	-5.47854	0	
2.1480	9.04589	-1.81609	0	
2.1487	5.99942	2.7544	0	
2.1493	7.52266	0.620498	0	
2.1500	10.8765	0.0151341	0	
2.1507	8.44461	3.67758	0	
2.1513	4.16886	4.88831	0	
2.1520	3.55422	3.3749	0	
2.1527	6.61406	2.45172	0	
2.1533	13.0143	0.317816	0	
2.1540	15.4595	-0.908046	0	
2.1547	8.44461	-0.908046	0	
2.1553	-0.708172	-0.287548	0	
2.1560	-7.73644	0.317816	0	
2.1567	-14.1367	0.317816	0	
2.1573	-15.6733	-0.908046	0	
2.1580	-13.5354	-1.81609	0	
2.1587	-11.3976	-2.73927	0	
2.1593	-6.21321	-2.43659	0	
2.1600	-4.07533	-1.81609	0	
2.1607	-8.33772	-4.5705	0	
2.1613	-3.15337	-5.78122	0	
2.1620	10.5825	-1.81609	0	
2.1627	14.5509	0.317816	0	
2.1633	13.9363	0.0151341	0	
2.1640	18.212	1.22586	0	
2.1647	15.4595	1.84636	0	
2.1653	2.03098	-0.287548	0	
2.1660	-6.21321	-1.81609	0	
2.1667	-5.59857	-2.43659	0	
2.1673	-4.36929	-2.73927	0	
2.1680	-4.07533	-2.73927	0	
2.1687	-3.46069	-2.73927	0	
2.1693	-1.63013	-0.908046	0	
2.1700	-1.01549	1.84636	0	
2.1707	-0.708172	2.7544	0	
2.1713	4.47618	2.14904	0	
2.1720	9.35321	2.45172	0	
2.1727	9.96785	3.3749	0	
2.1733	9.66053	4.58563	0	
2.1740	9.35321	5.50881	0	
2.1747	10.8765	3.3749	0	
2.1753	13.9363	0.620498	0	
2.1760	11.7984	0.92318	0	
2.1767	5.6921	1.22586	0	
2.1773	2.3383	0.0151341	0	
2.1780	-1.63013	0.0151341	0	
2.1787	-8.04376	-0.908046	0	
2.1793	-13.2281	-4.5705	0	
2.1800	-16.5819	-4.26781	0	
2.1807	-15.6733	0.317816	0	
2.1813	-11.7049	2.45172	0	
2.1820	-12.9208	1.54368	0	
2.1827	-9.25968	3.3749	0	
2.1833	5.99942	5.50881	0	
2.1840	14.5509	3.98027	0	
2.1847	12.413	3.67758	0	
2.1853	11.4911	6.11417	0	
2.1860	8.75193	5.81149	0	
2.1867	3.55422	4.58563	0	
2.1873	6.92138	6.71954	0	
2.1880	11.7984	7.64272	0	
2.1887	9.66053	5.50881	0	
2.1893	7.21534	4.58563	0	
2.1900	2.64562	2.14904	0	
2.1907	-6.81448	-2.43659	0	
2.1913	-10.1683	-3.34463	0	
2.1920	-7.73644	-3.64732	0	
2.1927	-11.0902	-5.47854	0	
2.1933	-15.0587	-4.5705	0	
2.1940	-12.9208	-2.73927	0	
2.1947	-11.3976	-3.04195	0	
2.1953	-11.9988	-0.908046	0	
2.1960	-6.50716	0.620498	0	
2.1967	0.815066	-0.287548	0	
2.1973	2.03098	0.317816	0	
2.1980	2.64562	1.84636	0	
2.1987	8.1373	0.620498	0	
2.1993	11.1838	-0.287548	0	
2.2000	9.04589	0.0151341	0	
2.2007	6.30674	-1.51341	0	
2.2013	2.64562	-3.34463	0	
2.2020	-3.76801	-3.34463	0	
2.2027	-6.81448	-1.21073	0	
2.2033	-8.33772	0.620498	0	
2.2040	-9.25968	0.620498	0	
2.2047	-2.84605	2.7544	0	
2.2053	6.92138	7.34004	0	
2.2060	5.09082	6.41686	0	
2.2067	-0.106894	1.84636	0	
2.2073	9.96785	3.67758	0	
2.2080	28.2734	7.9454	0	
2.2087	35.5957	8.55076	0	
2.2093	24.011	6.41686	0	
2.2100	5.6921	2.7544	0	
2.2107	-1.32281	-0.287548	0	
2.2113	-0.414214	-0.605364	0	
2.2120	-5.59857	0.317816	0	
2.2127	-12.9208	0.317816	0	
2.2133	-18.1051	-1.81609	0	
2.2140	-24.2115	-5.78122	0	
2.2147	-26.6567	-9.14099	0	
2.2153	-24.8261	-9.44367	0	
2.2160	-23.9041	-9.74636	0	
2.2167	-13.8428	-9.14099	0	
2.2173	6.61406	-4.87318	0	
2.2180	19.1206	0.0151341	0	
2.2187	20.9512	0.92318	0	
2.2193	17.2901	-0.908046	0	
2.2200	8.75193	-2.73927	0	
2.2207	-0.708172	-4.87318	0	
2.2213	-2.53873	-5.47854	0	
2.2220	-0.708172	-1.81609	0	
2.2227	-0.708172	1.54368	0	
2.2233	-1.93745	0.0151341	0	
2.2240	-1.63013	0.0151341	0	
2.2247	2.3383	3.3749	0	
2.2253	4.16886	1.54368	0	
2.2260	2.95294	-2.73927	0	
2.2267	5.38478	0.317816	0	
2.2273	5.09082	3.67758	0	
2.2280	-3.15337	0.0151341	0	
2.2287	-5.59857	0.92318	0	
2.2293	2.03098	6.11417	0	
2.2300	7.21534	4.58563	0	
2.2307	9.04589	2.7544	0	
2.2313	9.66053	6.41686	0	
2.2320	5.38478	9.47394	0	
2.2327	2.3383	8.24808	0	
2.2333	3.55422	6.41686	0	
2.2340	0.815066	5.50881	0	
2.2347	-1.01549	4.88831	0	
2.2353	2.03098	5.20613	0	
2.2360	1.12239	6.41686	0	
2.2367	-2.24477	7.03735	0	
2.2373	3.55422	4.28295	0	
2.2380	12.1057	1.54368	0	
2.2387	12.1057	1.54368	0	
2.2393	6.30674	0.92318	0	
2.2400	1.41634	-0.908046	0	
2.2407	1.72366	-1.51341	0	
2.2413	6.61406	-3.34463	0	
2.2420	8.75193	-3.04195	0	
2.2427	4.47618	0.0151341	0	
2.2433	-1.93745	-1.21073	0	
2.2440	-4.36929	-3.64732	0	
2.2447	-3.76801	-0.605364	0	
2.2453	-3.76801	1.54368	0	
2.2460	-4.67661	0.317816	0	
2.2467	-4.98393	0.92318	0	
2.2473	-3.76801	0.92318	0	
2.2480	-3.76801	0.317816	0	
2.2487	-4.07533	1.84636	0	
2.2493	-1.63013	1.84636	0	
2.2500	4.47618	0.317816	0	
2.2507	13.0143	0.92318	0	
2.2513	18.8133	1.84636	0	
2.2520	14.5509	0.0151341	0	
2.2527	2.64562	-0.287548	0	
2.2533	-7.42912	-0.908046	0	
2.2540	-8.33772	-1.81609	0	
2.2547	-3.46069	-0.908046	0	
2.2553	-0.414214	2.14904	0	
2.2560	-0.106894	4.58563	0	
2.2567	2.95294	3.67758	0	
2.2573	8.1373	0.92318	0	
2.2580	11.7984	0.92318	0	
2.2587	15.4595	2.14904	0	
2.2593	18.212	3.3749	0	
2.2600	15.1522	5.20613	0	
2.2607	9.04589	5.20613	0	
2.2613	4.7835	2.7544	0	
2.2620	1.41634	1.84636	0	
2.2627	-1.32281	1.54368	0	
2.2633	-1.93745	-1.81609	0	
2.2640	-2.84605	-2.11877	0	
2.2647	-7.42912	-0.287548	0	
2.2653	-11.9988	-2.73927	0	
2.2660	-14.7514	-6.7044	0	
2.2667	-16.5819	-6.40172	0	
2.2673	-19.6284	-5.17586	0	
2.2680	-20.243	-8.83831	0	
2.2687	-16.8892	-10.9722	0	
2.2693	-15.6733	-6.7044	0	
2.2700	-20.243	-2.73927	0	
2.2707	-25.1334	-4.5705	0	
2.2713	-25.7347	-5.78122	0	
2.2720	-22.3809	-2.73927	0	
2.2727	-11.7049	0.317816	0	
2.2733	3.55422	3.3749	0	
2.2740	15.1522	5.50881	0	
2.2747	20.9512	6.41686	0	
2.2753	19.1206	7.64272	0	
2.2760	12.7204	8.55076	0	
2.2767	10.8765	4.58563	0	
2.2773	16.0742	1.84636	0	
2.2780	23.7037	3.67758	0	
2.2787	28.8881	2.45172	0	
2.2793	24.6123	-1.81609	0	
2.2800	10.5825	-3.34463	0	
2.2807	-2.24477	-4.87318	0	
2.2813	-8.33772	-8.23295	0	
2.2820	-10.7829	-9.74636	0	
2.2827	-11.7049	-10.0642	0	
2.2833	-12.9208	-10.3669	0	
2.2840	-13.8428	-9.44367	0	
2.2847	-11.0902	-7.93026	0	
2.2853	-8.33772	-7.30977	0	
2.2860	-10.1683	-6.09904	0	
2.2867	-11.7049	-4.87318	0	
2.2873	-8.95236	-4.5705	0	
2.2880	-7.42912	-3.64732	0	
2.2887	-7.42912	-1.81609	0	
2.2893	-5.90589	0.0151341	0	
2.2900	-6.81448	-0.908046	0	
2.2907	-8.95236	0.0151341	0	
2.2913	-5.59857	3.67758	0	
2.2920	1.72366	4.58563	0	
2.2927	7.21534	2.7544	0	
2.2933	11.1838	3.98027	0	
2.2940	15.4595	5.50881	0	
2.2947	18.212	4.58563	0	
2.2953	19.1206	4.88831	0	
2.2960	15.4595	3.67758	0	
2.2967	7.21534	0.0151341	0	
2.2973	2.3383	0.0151341	0	
2.2980	5.38478	3.67758	0	
2.2987	11.7984	5.50881	0	
2.2993	15.1522	5.50881	0	
2.3000	9.66053	4.28295	0	
2.3007	-1.93745	0.92318	0	
2.3013	-9.567	-2.11877	0	
2.3020	-14.1367	-2.73927	0	
2.3027	-15.6733	0.0151341	0	
2.3033	-8.95236	1.84636	0	
2.3040	0.815066	0.92318	0	
2.3047	3.55422	3.98027	0	
2.3053	1.72366	7.64272	0	
2.3060	0.200426	2.7544	0	
2.3067	1.41634	-2.11877	0	
2.3073	3.55422	0.92318	0	
2.3080	5.38478	2.7544	0	
2.3087	9.96785	0.92318	0	
2.3093	12.1057	0.317816	0	
2.3100	6.61406	0.0151341	0	
2.3107	-1.01549	-0.908046	0	
2.3113	-1.93745	0.620498	0	
2.3120	-1.01549	3.05709	0	
2.3127	-1.63013	4.58563	0	
2.3133	0.507746	4.58563	0	
2.3140	5.38478	3.67758	0	
2.3147	11.7984	4.58563	0	
2.3153	13.0143	7.34004	0	
2.3160	7.21534	8.55076	0	
2.3167	6.30674	6.71954	0	
2.3173	11.1838	3.98027	0	
2.3180	9.04589	0.92318	0	
2.3187	-0.106894	-2.43659	0	
2.3193	-2.84605	-6.7044	0	
2.3200	-0.414214	-8.23295	0	
2.3207	2.64562	-5.47854	0	
2.3213	6.30674	-3.64732	0	
2.3220	8.44461	-2.73927	0	
2.3227	6.30674	-2.11877	0	
2.3233	2.03098	-2.11877	0	
2.3240	0.507746	-1.21073	0	
2.3247	1.72366	0.0151341	0	
2.3253	0.815066	-0.605364	0	
2.3260	-3.46069	0.0151341	0	
2.3267	-6.50716	0.0151341	0	
2.3273	-7.1218	-3.64732	0	
2.3280	-5.59857	-4.5705	0	
2.3287	-1.93745	-3.34463	0	
2.3293	-1.32281	-6.09904	0	
2.3300	-5.59857	-5.78122	0	
2.3307	-9.25968	0.92318	0	
2.3313	-10.7829	1.54368	0	
2.3320	-11.0902	-2.43659	0	
2.3327	-11.9988	-2.11877	0	
2.3333	-17.1965	-1.81609	0	
2.3340	-20.8577	-2.73927	0	
2.3347	-10.1683	-0.908046	0	
2.3353	2.64562	-0.605364	0	
2.3360	3.2469	-3.34463	0	
2.3367	4.47618	-2.43659	0	
2.3373	15.4595	0.317816	0	
2.3380	20.0426	1.84636	0	
2.3387	10.2752	1.84636	0	
2.3393	0.507746	-0.605364	0	
2.3400	-4.67661	-3.34463	0	
2.3407	-8.04376	-2.11877	0	
2.3413	-8.04376	-1.51341	0	
2.3420	-2.84605	-2.43659	0	
2.3427	0.507746	-0.287548	0	
2.3433	-3.76801	0.0151341	0	
2.3440	-10.1683	-3.64732	0	
2.3447	-11.7049	-3.64732	0	
2.3453	-10.1683	-1.21073	0	
2.3460	-8.04376	-2.73927	0	
2.3467	-8.64504	-3.64732	0	
2.3473	-11.0902	-1.21073	0	
2.3480	-8.64504	-0.908046	0	
2.3487	-1.63013	0.0151341	0	
2.3493	3.2469	3.3749	0	
2.3500	9.96785	5.20613	0	
2.3507	21.5658	4.58563	0	
2.3513	25.5343	2.7544	0	
2.3520	19.1206	0.92318	0	
2.3527	18.212	3.67758	0	
2.3533	23.0891	5.81149	0	
2.3540	23.3964	2.45172	0	
2.3547	17.9047	-0.908046	0	
2.3553	13.3216	-2.11877	0	
2.3560	11.1838	-3.34463	0	
2.3567	9.35321	-1.51341	0	
2.3573	6.30674	0.620498	0	
2.3580	1.72366	-2.73927	0	
2.3587	-1.63013	-4.5705	0	
2.3593	1.41634	-2.73927	0	
2.3600	8.44461	-3.95	0	
2.3607	8.75193	-4.5705	0	
2.3613	-0.708172	-1.51341	0	
2.3620	-8.33772	-0.287548	0	
2.3627	-9.567	-1.81609	0	
2.3633	-11.9988	-1.81609	0	
2.3640	-17.7978	-2.11877	0	
2.3647	-22.0736	-3.64732	0	
2.3653	-25.1334	-3.64732	0	
2.3660	-24.8261	-4.26781	0	
2.3667	-16.5819	-3.95	0	
2.3673	-5.29125	-1.81609	0	
2.3680	1.12239	0.317816	0	
2.3687	2.03098	1.22586	0	
2.3693	-0.708172	0.620498	0	
2.3700	-4.98393	-3.64732	0	
2.3707	-8.04376	-6.09904	0	
2.3713	-7.73644	-2.73927	0	
2.3720	-1.93745	-1.81609	0	
2.3727	5.99942	-3.04195	0	
2.3733	6.30674	0.92318	0	
2.3740	3.55422	3.98027	0	
2.3747	8.1373	0.620498	0	
2.3753	12.7204	-2.11877	0	
2.3760	13.629	-1.51341	0	
2.3767	14.5509	0.0151341	0	
2.3773	13.0143	1.84636	0	
2.3780	6.30674	1.54368	0	
2.3787	-0.106894	0.0151341	0	
2.3793	-5.59857	2.14904	0	
2.3800	-6.50716	4.28295	0	
2.3807	-0.106894	2.7544	0	
2.3813	1.12239	2.7544	0	
2.3820	-1.32281	3.3749	0	
2.3827	7.21534	1.22586	0	
2.3833	18.212	2.45172	0	
2.3840	16.6754	4.88831	0	
2.3847	10.5825	3.67758	0	
2.3853	5.38478	2.7544	0	
2.3860	-1.01549	2.7544	0	
2.3867	-4.67661	0.620498	0	
2.3873	-7.73644	0.92318	0	
2.3880	-14.1367	3.98027	0	
2.3887	-17.1965	2.7544	0	
2.3893	-15.6733	-1.51341	0	
2.3900	-17.7978	-2.73927	0	
2.3907	-18.4125	-2.73927	0	
2.3913	-14.444	-3.64732	0	
2.3920	-8.64504	-3.64732	0	
2.3927	2.64562	-1.81609	0	
2.3933	19.1206	1.84636	0	
2.3940	27.3648	4.28295	0	
2.3947	26.1355	3.67758	0	
2.3953	24.9196	4.58563	0	
2.3960	22.7818	7.64272	0	
2.3967	15.7668	6.41686	0	
2.3973	8.1373	2.7544	0	
2.3980	0.815066	3.05709	0	
2.3987	-6.81448	3.98027	0	
2.3993	-11.9988	2.7544	0	
2.4000	-12.9208	1.84636	0	
2.4007	-11.9988	0.317816	0	
2.4013	-8.33772	-2.73927	0	
2.4020	-1.01549	-4.26781	0	
2.4027	2.95294	-3.34463	0	
2.4033	-1.32281	-4.87318	0	
2.4040	-9.567	-6.40172	0	
2.4047	-12.9208	-5.17586	0	
2.4053	-10.7829	-4.87318	0	
2.4060	-11.7049	-5.47854	0	
2.4067	-14.7514	-2.73927	0	
2.4073	-11.7049	-1.81609	0	
2.4080	-3.46069	-2.73927	0	
2.4087	-0.106894	-0.908046	0	
2.4093	-0.708172	1.22586	0	
2.4100	-0.414214	0.92318	0	
2.4107	0.815066	2.7544	0	
2.4113	2.64562	3.98027	0	
2.4120	5.38478	1.54368	0	
2.4127	8.1373	1.84636	0	
2.4133	9.04589	4.58563	0	
2.4140	9.96785	4.58563	0	
2.4147	9.66053	3.67758	0	
2.4153	6.30674	2.45172	0	
2.4160	3.55422	0.317816	0	
2.4167	5.38478	1.84636	0	
2.4173	7.52266	3.67758	0	
2.4180	5.6921	1.84636	0	
2.4187	4.47618	1.84636	0	
2.4193	6.30674	3.05709	0	
2.4200	4.47618	-0.605364	0	
2.4207	1.41634	-4.5705	0	
2.4213	2.3383	-3.34463	0	
2.4220	2.03098	-1.81609	0	
2.4227	-3.76801	-3.34463	0	
2.4233	-11.0902	-3.64732	0	
2.4240	-17.7978	-4.26781	0	
2.4247	-22.3809	-5.47854	0	
2.4253	-22.0736	-4.5705	0	
2.4260	-19.3344	-1.51341	0	
2.4267	-13.5354	-0.605364	0	
2.4273	-1.01549	-0.908046	0	
2.4280	9.04589	1.22586	0	
2.4287	9.66053	1.84636	0	
2.4293	5.38478	-0.605364	0	
2.4300	3.55422	-0.908046	0	
2.4307	5.09082	2.7544	0	
2.4313	8.44461	4.88831	0	
2.4320	9.04589	3.67758	0	
2.4327	7.21534	2.7544	0	
2.4333	6.92138	2.45172	0	
2.4340	5.09082	1.84636	0	
2.4347	0.815066	0.620498	0	
2.4353	1.72366	-1.81609	0	
2.4360	8.1373	-3.34463	0	
2.4367	9.96785	-0.908046	0	
2.4373	9.04589	1.84636	0	
2.4380	9.96785	1.22586	0	
2.4387	10.8765	0.317816	0	
2.4393	8.44461	3.3749	0	
2.4400	8.1373	6.11417	0	
2.4407	9.04589	5.50881	0	
2.4413	7.21534	4.58563	0	
2.4420	5.38478	3.67758	0	
2.4427	5.09082	0.92318	0	
2.4433	3.55422	0.0151341	0	
2.4440	0.507746	0.620498	0	
2.4447	-2.84605	-0.287548	0	
2.4453	-5.29125	-1.51341	0	
2.4460	-4.67661	-0.908046	0	
2.4467	-5.59857	0.0151341	0	
2.4473	-8.33772	0.0151341	0	
2.4480	-7.73644	-0.287548	0	
2.4487	-3.15337	-0.908046	0	
2.4493	-1.01549	-2.11877	0	
2.4500	0.815066	-1.51341	0	
2.4507	2.95294	0.317816	0	
2.4513	0.815066	-0.908046	0	
2.4520	-2.84605	-2.73927	0	
2.4527	-1.63013	-2.73927	0	
2.4533	2.03098	-3.64732	0	
2.4540	2.64562	-3.64732	0	
2.4547	1.12239	0.92318	0	
2.4553	2.95294	3.98027	0	
2.4560	7.52266	1.84636	0	
2.4567	9.96785	2.14904	0	
2.4573	9.96785	4.88831	0	
2.4580	9.04589	3.98027	0	
2.4587	4.47618	2.45172	0	
2.4593	-3.15337	1.84636	0	
2.4600	-3.46069	0.0151341	0	
2.4607	0.815066	-0.908046	0	
2.4613	-0.414214	1.22586	0	
2.4620	-3.46069	1.84636	0	
2.4627	-3.76801	0.92318	0	
2.4633	-6.50716	1.22586	0	
2.4640	-7.42912	2.45172	0	
2.4647	-4.36929	2.7544	0	
2.4653	-6.21321	1.22586	0	
2.4660	-12.9208	1.22586	0	
2.4667	-14.7514	1.84636	0	
2.4673	-13.8428	-1.51341	0	
2.4680	-11.9988	-5.47854	0	
2.4687	-3.15337	-6.40172	0	
2.4693	5.38478	-7.30977	0	
2.4700	3.55422	-8.83831	0	
2.4707	-0.708172	-7.30977	0	
2.4713	-1.32281	-6.40172	0	
2.4720	-2.53873	-6.7044	0	
2.4727	1.12239	-4.26781	0	
2.4733	9.96785	-2.43659	0	
2.4740	11.4911	-3.34463	0	
2.4747	6.61406	-2.43659	0	
2.4753	4.16886	-0.908046	0	
2.4760	2.95294	-0.605364	0	
2.4767	-0.708172	0.92318	0	
2.4773	-1.32281	2.14904	0	
2.4780	3.2469	1.22586	0	
2.4787	7.21534	1.54368	0	
2.4793	6.30674	3.3749	0	
2.4800	2.64562	3.67758	0	
2.4807	-0.106894	4.58563	0	
2.4813	-1.93745	4.58563	0	
2.4820	-0.708172	2.7544	0	
2.4827	2.95294	3.67758	0	
2.4833	3.55422	7.34004	0	
2.4840	-3.46069	6.41686	0	
2.4847	-9.87432	0.620498	0	
2.4853	-4.07533	-3.64732	0	
2.4860	9.66053	-3.64732	0	
2.4867	17.2901	-2.73927	0	
2.4873	15.4595	-1.81609	0	
2.4880	8.1373	-1.21073	0	
2.4887	-1.32281	-2.43659	0	
2.4893	-4.98393	-5.17586	0	
2.4900	2.03098	-4.5705	0	
2.4907	9.96785	-0.287548	0	
2.4913	12.413	2.7544	0	
2.4920	16.3815	3.67758	0	
2.4927	17.2901	3.67758	0	
2.4933	7.82998	0.317816	0	
2.4940	-4.36929	-1.81609	0	
2.4947	-8.33772	-1.81609	0	
2.4953	-8.33772	-4.5705	0	
2.4960	-8.33772	-8.83831	0	
2.4967	-9.87432	-10.6695	0	
2.4973	-16.5819	-12.8034	0	
2.4980	-25.1334	-15.8605	0	
2.4987	-28.4872	-14.332	0	
2.4993	-26.6567	-9.74636	0	
2.5000	-25.7347	-8.23295	0	
2.5007	-22.9955	-8.53563	0	
2.5013	-15.0587	-7.30977	0	
2.5020	-6.81448	-5.17586	0	
2.5027	-2.84605	-2.73927	0	
2.5033	0.200426	-0.908046	0	
2.5040	5.38478	0.317816	0	
2.5047	12.7204	2.7544	0	
2.5053	22.4744	6.41686	0	
2.5060	29.81	7.9454	0	
2.5067	31.3333	5.81149	0	
2.5073	29.81	4.58563	0	
2.5080	28.5807	5.20613	0	
2.5087	28.5807	4.58563	0	
2.5093	29.1954	4.58563	0	
2.5100	24.9196	6.11417	0	
2.5107	17.9047	4.88831	0	
2.5113	13.0143	2.14904	0	
2.5120	11.4911	1.84636	0	
2.5127	11.7984	2.45172	0	
2.5133	12.7204	3.67758	0	
2.5140	9.96785	6.11417	0	
2.5147	8.1373	5.50881	0	
2.5153	10.8765	1.22586	0	
2.5160	11.1838	-2.11877	0	
2.5167	4.47618	-3.64732	0	
2.5173	-0.106894	-4.87318	0	
2.5180	-1.01549	-2.43659	0	
2.5187	-0.414214	2.45172	0	
2.5193	0.815066	2.7544	0	
2.5200	-1.93745	-0.908046	0	
2.5207	-10.4756	-2.73927	0	
2.5213	-14.1367	-1.81609	0	
2.5220	-10.7829	-3.34463	0	
2.5227	-11.9988	-3.64732	0	
2.5233	-16.2746	-0.908046	0	
2.5240	-13.8428	0.92318	0	
2.5247	-7.73644	0.317816	0	
2.5253	-4.98393	-0.605364	0	
2.5260	-6.21321	-0.287548	0	
2.5267	-7.42912	0.620498	0	
2.5273	-7.42912	1.22586	0	
2.5280	-6.50716	0.0151341	0	
2.5287	-5.90589	-1.81609	0	
2.5293	-7.1218	-1.81609	0	
2.5300	-6.81448	-1.21073	0	
2.5307	-2.84605	-1.51341	0	
2.5313	-1.63013	-1.51341	0	
2.5320	-4.67661	-1.21073	0	
2.5327	-3.76801	-2.11877	0	
2.5333	2.95294	-3.64732	0	
2.5340	5.09082	-4.5705	0	
2.5347	2.95294	-4.26781	0	
2.5353	1.41634	-4.5705	0	
2.5360	0.815066	-4.5705	0	
2.5367	3.86154	-0.908046	0	
2.5373	9.96785	1.84636	0	
2.5380	8.44461	1.84636	0	
2.5387	0.200426	2.7544	0	
2.5393	-6.21321	3.05709	0	
2.5400	-10.1683	1.22586	0	
2.5407	-9.567	1.54368	0	
2.5413	-1.93745	3.98027	0	
2.5420	3.55422	2.14904	0	
2.5427	1.12239	-1.51341	0	
2.5433	-0.708172	-1.21073	0	
2.5440	-0.106894	-0.605364	0	
2.5447	-1.93745	-2.73927	0	
2.5453	-4.98393	-3.04195	0	
2.5460	-6.21321	-0.605364	0	
2.5467	-4.67661	1.54368	0	
2.5473	-3.76801	0.92318	0	
2.5480	-4.67661	-1.51341	0	
2.5487	-1.32281	-1.21073	0	
2.5493	8.1373	2.7544	0	
2.5500	11.1838	4.88831	0	
2.5507	4.47618	2.14904	0	
2.5513	0.815066	0.92318	0	
2.5520	5.09082	1.84636	0	
2.5527	8.75193	2.14904	0	
2.5533	6.92138	1.84636	0	
2.5540	1.41634	0.317816	0	
2.5547	-2.84605	-2.11877	0	
2.5553	-1.93745	-3.64732	0	
2.5560	-0.106894	-3.64732	0	
2.5567	-1.63013	-3.04195	0	
2.5573	-1.01549	-2.73927	0	
2.5580	1.12239	-2.73927	0	
2.5587	-1.63013	-3.95	0	
2.5593	-4.36929	-2.73927	0	
2.5600	-3.15337	0.92318	0	
2.5607	-2.84605	1.22586	0	
2.5613	-3.15337	-2.43659	0	
2.5620	-1.01549	-3.64732	0	
2.5627	-2.24477	-1.81609	0	
2.5633	-7.42912	-0.908046	0	
2.5640	-9.567	-3.34463	0	
2.5647	-9.25968	-4.87318	0	
2.5653	-10.4756	-3.64732	0	
2.5660	-9.567	-2.73927	0	
2.5667	-5.59857	-2.43659	0	
2.5673	-3.76801	-1.81609	0	
2.5680	-4.98393	0.0151341	0	
2.5687	-6.50716	0.620498	0	
2.5693	-4.67661	0.92318	0	
2.5700	2.95294	5.20613	0	
2.5707	13.629	9.17126	0	
2.5713	19.428	9.77662	0	
2.5720	17.5974	11.0025	0	
2.5727	13.629	12.2132	0	
2.5733	10.8765	9.17126	0	
2.5740	8.44461	6.41686	0	
2.5747	3.2469	6.41686	0	
2.5753	-1.32281	1.54368	0	
2.5760	2.03098	-3.04195	0	
2.5767	6.61406	0.92318	0	
2.5773	3.2469	4.88831	0	
2.5780	-2.24477	2.45172	0	
2.5787	-4.36929	0.620498	0	
2.5793	-6.81448	0.317816	0	
2.5800	-7.42912	-1.21073	0	
2.5807	-5.59857	-1.51341	0	
2.5813	-8.95236	-2.73927	0	
2.5820	-12.9208	-5.47854	0	
2.5827	-12.3062	-3.64732	0	
2.5833	-14.7514	-0.908046	0	
2.5840	-17.1965	-3.64732	0	
2.5847	-14.7514	-5.17586	0	
2.5853	-16.2746	-3.04195	0	
2.5860	-20.5503	-2.73927	0	
2.5867	-14.7514	-3.64732	0	
2.5873	-7.1218	-2.43659	0	
2.5880	-5.90589	-1.21073	0	
2.5887	-2.84605	-0.908046	0	
2.5893	1.72366	-2.73927	0	
2.5900	4.16886	-3.64732	0	
2.5907	10.5825	0.0151341	0	
2.5913	18.506	5.20613	0	
2.5920	20.9512	5.20613	0	
2.5927	21.8732	3.98027	0	
2.5933	20.9512	5.20613	0	
2.5940	15.1522	4.58563	0	
2.5947	13.3216	3.98027	0	
2.5953	17.9047	7.03735	0	
2.5960	19.7353	9.17126	0	
2.5967	16.3815	7.03735	0	
2.5973	13.0143	6.11417	0	
2.5980	12.413	6.71954	0	
2.5987	10.8765	3.3749	0	
2.5993	8.1373	-1.21073	0	
2.6000	9.66053	-0.908046	0	
2.6007	11.7984	0.317816	0	
2.6013	5.38478	-1.21073	0	
2.6020	-5.59857	-3.64732	0	
2.6027	-10.4756	-4.5705	0	
2.6033	-14.1367	-5.47854	0	
2.6040	-19.3344	-5.47854	0	
2.6047	-16.2746	-4.5705	0	
2.6053	-8.04376	-3.34463	0	
2.6060	-4.36929	-1.81609	0	
2.6067	-3.15337	0.0151341	0	
2.6073	-2.84605	0.317816	0	
2.6080	-4.07533	0.92318	0	
2.6087	-3.76801	1.54368	0	
2.6093	0.507746	2.14904	0	
2.6100	5.99942	3.05709	0	
2.6107	13.0143	3.67758	0	
2.6113	19.1206	3.3749	0	
2.6120	18.212	2.7544	0	
2.6127	9.66053	1.84636	0	
2.6133	2.03098	0.620498	0	
2.6140	3.2469	0.0151341	0	
2.6147	6.30674	-0.908046	0	
2.6153	2.03098	-4.26781	0	
2.6160	-3.46069	-5.78122	0	
2.6167	-1.93745	-5.47854	0	
2.6173	-1.01549	-7.00709	0	
2.6180	-4.98393	-7.61245	0	
2.6187	-8.33772	-6.09904	0	
2.6193	-10.1683	-5.47854	0	
2.6200	-14.1367	-4.5705	0	
2.6207	-15.6733	-1.51341	0	
2.6213	-11.3976	0.620498	0	
2.6220	-5.59857	0.620498	0	
2.6227	-3.15337	-1.21073	0	
2.6233	-4.67661	-4.87318	0	
2.6240	-4.98393	-4.5705	0	
2.6247	0.200426	0.317816	0	
2.6253	5.38478	1.84636	0	
2.6260	3.55422	0.317816	0	
2.6267	-1.93745	1.54368	0	
2.6273	-4.67661	1.84636	0	
2.6280	-5.59857	-1.21073	0	
2.6287	-4.67661	-2.11877	0	
2.6293	-1.01549	-3.04195	0	
2.6300	2.03098	-6.09904	0	
2.6307	4.16886	-4.5705	0	
2.6313	5.09082	1.54368	0	
2.6320	0.815066	1.84636	0	
2.6327	-0.106894	-1.51341	0	
2.6333	12.7204	-1.21073	0	
2.6340	29.1954	0.0151341	0	
2.6347	32.5492	-1.21073	0	
2.6353	23.7037	-1.51341	0	
2.6360	16.6754	1.54368	0	
2.6367	17.2901	4.28295	0	
2.6373	20.0426	4.88831	0	
2.6380	20.0426	4.28295	0	
2.6387	16.9828	4.58563	0	
2.6393	14.5509	6.71954	0	
2.6400	11.4911	6.41686	0	
2.6407	7.52266	2.14904	0	
2.6413	1.41634	-0.605364	0	
2.6420	-9.25968	-1.81609	0	
2.6427	-18.1051	-2.73927	0	
2.6433	-18.4125	-1.81609	0	
2.6440	-13.8428	-0.605364	0	
2.6447	-11.3976	-1.51341	0	
2.6453	-12.9208	-3.04195	0	
2.6460	-15.6733	-3.64732	0	
2.6467	-16.5819	-4.26781	0	
2.6473	-15.0587	-4.5705	0	
2.6480	-8.33772	-4.5705	0	
2.6487	1.72366	-5.47854	0	
2.6493	5.38478	-6.09904	0	
2.6500	-0.106894	-4.5705	0	
2.6507	-5.29125	-1.81609	0	
2.6513	-6.81448	-0.908046	0	
2.6520	-7.42912	-2.11877	0	
2.6527	-9.25968	-1.81609	0	
2.6533	-12.9208	1.54368	0	
2.6540	-13.2281	3.3749	0	
2.6547	-10.1683	1.84636	0	
2.6553	-9.567	0.317816	0	
2.6560	-5.59857	0.0151341	0	
2.6567	1.72366	-0.908046	0	
2.6573	3.2469	-1.21073	0	
2.6580	5.99942	1.84636	0	
2.6587	17.5974	6.41686	0	
2.6593	20.0426	7.03735	0	
2.6600	8.1373	2.7544	0	
2.6607	0.815066	-1.21073	0	
2.6613	-0.106894	0.0151341	0	
2.6620	-3.46069	1.54368	0	
2.6627	-5.59857	-0.605364	0	
2.6633	-5.59857	-3.34463	0	
2.6640	-4.67661	-3.64732	0	
2.6647	0.815066	-1.81609	0	
2.6653	4.47618	-1.81609	0	
2.6660	-2.84605	-2.11877	0	
2.6667	-7.42912	-0.908046	0	
2.6673	-1.32281	1.22586	0	
2.6680	2.95294	1.22586	0	
2.6687	-1.01549	1.54368	0	
2.6693	-5.59857	2.45172	0	
2.6700	-9.25968	0.92318	0	
2.6707	-12.6135	-0.287548	0	
2.6713	-10.4756	0.620498	0	
2.6720	-2.84605	0.92318	0	
2.6727	6.30674	-0.287548	0	
2.6733	13.3216	-1.21073	0	
2.6740	11.7984	-1.81609	0	
2.6747	7.82998	-0.908046	0	
2.6753	11.1838	1.54368	0	
2.6760	12.413	2.45172	0	
2.6767	2.95294	2.14904	0	
2.6773	-7.1218	2.7544	0	
2.6780	-11.7049	1.22586	0	
2.6787	-13.5354	-1.51341	0	
2.6793	-10.7829	-1.81609	0	
2.6800	-4.07533	-1.51341	0	
2.6807	1.72366	-0.908046	0	
2.6813	4.47618	0.92318	0	
2.6820	3.55422	0.92318	0	
2.6827	1.72366	-0.908046	0	
2.6833	1.72366	-0.908046	0	
2.6840	2.03098	-0.287548	0	
2.6847	1.12239	0.317816	0	
2.6853	-0.414214	1.54368	0	
2.6860	-3.46069	1.54368	0	
2.6867	-4.07533	0.0151341	0	
2.6873	-2.84605	-0.605364	0	
2.6880	-4.67661	1.54368	0	
2.6887	-6.50716	3.98027	0	
2.6893	-3.76801	2.7544	0	
2.6900	-4.07533	-1.81609	0	
2.6907	-7.1218	-4.5705	0	
2.6913	-6.21321	-3.64732	0	
2.6920	-4.67661	-3.04195	0	
2.6927	-3.76801	-3.34463	0	
2.6933	-1.01549	-3.34463	0	
2.6940	2.03098	-2.73927	0	
2.6947	3.55422	-1.81609	0	
2.6953	5.38478	-1.81609	0	
2.6960	7.21534	-1.21073	0	
2.6967	7.21534	0.0151341	0	
2.6973	4.7835	0.620498	0	
2.6980	2.3383	0.92318	0	
2.6987	3.2469	1.22586	0	
2.6993	5.38478	-0.605364	0	
2.7000	5.38478	-1.81609	0	
2.7007	5.99942	0.0151341	0	
2.7013	10.8765	1.54368	0	
2.7020	15.4595	0.92318	0	
2.7027	16.0742	1.84636	0	
2.7033	12.7204	3.67758	0	
2.7040	7.21534	3.05709	0	
2.7047	2.64562	0.0151341	0	
2.7053	-1.32281	-3.04195	0	
2.7060	-4.67661	-4.5705	0	
2.7067	-2.53873	-5.47854	0	
2.7073	0.815066	-6.40172	0	
2.7080	-2.53873	-7.30977	0	
2.7087	-6.50716	-7.93026	0	
2.7093	-4.67661	-7.30977	0	
2.7100	-5.90589	-3.95	0	
2.7107	-12.3062	-2.43659	0	
2.7113	-14.1367	-4.26781	0	
2.7120	-10.7829	-4.87318	0	
2.7127	-3.46069	-1.81609	0	
2.7133	7.21534	0.92318	0	
2.7140	12.413	0.317816	0	
2.7147	9.96785	-1.21073	0	
2.7153	8.1373	1.84636	0	
2.7160	7.21534	6.71954	0	
2.7167	6.92138	5.50881	0	
2.7173	9.04589	3.98027	0	
2.7180	12.1057	6.41686	0	
2.7187	14.2436	5.50881	0	
2.7193	14.8449	2.7544	0	
2.7200	11.4911	4.88831	0	
2.7207	7.21534	6.71954	0	
2.7213	9.35321	6.11417	0	
2.7220	11.4911	5.81149	0	
2.7227	5.99942	3.05709	0	
2.7233	-1.01549	-1.81609	0	
2.7240	-1.32281	-2.73927	0	
2.7247	-0.106894	0.317816	0	
2.7253	-1.01549	2.45172	0	
2.7260	-3.76801	0.0151341	0	
2.7267	-7.1218	-3.64732	0	
2.7273	-10.1683	-3.95	0	
2.7280	-10.1683	-1.81609	0	
2.7287	-8.33772	0.0151341	0	
2.7293	-5.59857	2.14904	0	
2.7300	-0.414214	5.20613	0	
2.7307	4.16886	3.98027	0	
2.7313	2.64562	0.620498	0	
2.7320	-1.01549	-0.605364	0	
2.7327	-0.708172	0.317816	0	
2.7333	4.47618	-0.287548	0	
2.7340	15.4595	-3.04195	0	
2.7347	25.5343	-3.64732	0	
2.7353	21.5658	-0.605364	0	
2.7360	7.52266	0.92318	0	
2.7367	-1.93745	-2.43659	0	
2.7373	-6.81448	-3.64732	0	
2.7380	-9.87432	-1.81609	0	
2.7387	-11.9988	-3.34463	0	
2.7393	-13.2281	-5.47854	0	
2.7400	-9.87432	-4.26781	0	
2.7407	-3.76801	-0.908046	0	
2.7413	-0.708172	1.22586	0	
2.7420	2.95294	1.22586	0	
2.7427	5.6921	0.0151341	0	
2.7433	1.41634	1.22586	0	
2.7440	-3.76801	4.28295	0	
2.7447	-6.50716	3.98027	0	
2.7453	-9.25968	2.45172	0	
2.7460	-4.36929	3.3749	0	
2.7467	7.21534	5.81149	0	
2.7473	10.5825	7.03735	0	
2.7480	6.92138	7.34004	0	
2.7487	4.7835	8.24808	0	
2.7493	2.95294	7.64272	0	
2.7500	0.815066	6.41686	0	
2.7507	1.12239	7.03735	0	
2.7513	1.12239	5.50881	0	
2.7520	1.12239	1.84636	0	
2.7527	-0.414214	0.0151341	0	
2.7533	-6.50716	-1.51341	0	
2.7540	-11.3976	-5.17586	0	
2.7547	-8.04376	-6.09904	0	
2.7553	-3.15337	-5.47854	0	
2.7560	-5.29125	-6.40172	0	
2.7567	-10.4756	-5.78122	0	
2.7573	-15.9673	-3.34463	0	
2.7580	-22.0736	-2.43659	0	
2.7587	-19.3344	-0.908046	0	
2.7593	-4.98393	-0.908046	0	
2.7600	5.38478	-2.43659	0	
2.7607	4.16886	0.0151341	0	
2.7613	1.12239	3.67758	0	
2.7620	-0.106894	2.14904	0	
2.7627	-2.53873	1.54368	0	
2.7633	-1.93745	3.05709	0	
2.7640	2.64562	0.92318	0	
2.7647	3.86154	-3.04195	0	
2.7653	-0.414214	-5.17586	0	
2.7660	-5.90589	-5.47854	0	
2.7667	-8.04376	-5.47854	0	
2.7673	-6.50716	-3.95	0	
2.7680	-4.36929	-2.73927	0	
2.7687	0.815066	-3.34463	0	
2.7693	9.35321	-2.73927	0	
2.7700	15.4595	1.22586	0	
2.7707	18.212	4.58563	0	
2.7713	19.1206	5.20613	0	
2.7720	20.3499	4.58563	0	
2.7727	23.7037	2.7544	0	
2.7733	28.2734	2.7544	0	
2.7740	29.81	4.88831	0	
2.7747	25.8416	5.20613	0	
2.7753	18.506	3.67758	0	
2.7760	11.7984	1.84636	0	
2.7767	9.96785	-1.81609	0	
2.7773	10.8765	-3.64732	0	
2.7780	6.92138	-1.81609	0	
2.7787	1.41634	-1.81609	0	
2.7793	-0.106894	-4.5705	0	
2.7800	-1.63013	-5.47854	0	
2.7807	-4.67661	-4.87318	0	
2.7813	-5.59857	-3.04195	0	
2.7820	-5.59857	0.92318	0	
2.7827	-8.33772	2.7544	0	
2.7833	-12.3062	1.54368	0	
2.7840	-16.2746	0.620498	0	
2.7847	-18.7198	0.620498	0	
2.7853	-17.5039	0.620498	0	
2.7860	-14.7514	-0.908046	0	
2.7867	-11.9988	-2.73927	0	
2.7873	-11.9988	-1.51341	0	
2.7880	-11.9988	0.0151341	0	
2.7887	-8.95236	-2.73927	0	
2.7893	-2.53873	-5.78122	0	
2.7900	1.72366	-4.5705	0	
2.7907	2.3383	-0.908046	0	
2.7913	2.95294	1.54368	0	
2.7920	3.86154	3.67758	0	
2.7927	6.30674	4.28295	0	
2.7933	11.4911	3.67758	0	
2.7940	14.5509	3.67758	0	
2.7947	11.7984	4.88831	0	
2.7953	8.1373	5.50881	0	
2.7960	8.1373	5.81149	0	
2.7967	9.96785	6.11417	0	
2.7973	9.66053	5.50881	0	
2.7980	5.99942	5.50881	0	
2.7987	-1.01549	5.50881	0	
2.7993	-7.42912	3.3749	0	
2.8000	-9.567	0.0151341	0	
2.8007	-10.1683	-2.11877	0	
2.8013	-12.3062	-4.5705	0	
2.8020	-14.444	-5.47854	0	
2.8027	-18.4125	-3.64732	0	
2.8033	-25.7347	-5.17586	0	
2.8040	-28.4872	-8.83831	0	
2.8047	-26.042	-7.30977	0	
2.8053	-27.5653	-6.09904	0	
2.8060	-30.6251	-8.23295	0	
2.8067	-24.5188	-4.26781	0	
2.8073	-14.7514	1.84636	0	
2.8080	-15.366	-0.605364	0	
2.8087	-26.6567	-4.87318	0	
2.8093	-34.2862	-5.47854	0	
2.8100	-30.3178	-3.95	0	
2.8107	-19.6284	-1.81609	0	
2.8113	-7.73644	-0.908046	0	
2.8120	8.44461	-2.73927	0	
2.8127	30.4113	-0.605364	0	
2.8133	50.5608	6.11417	0	
2.8140	58.4843	10.0793	0	
2.8147	54.8232	9.17126	0	
2.8153	49.9462	4.88831	0	
2.8160	45.0691	2.7544	0	
2.8167	36.5176	4.58563	0	
2.8173	26.1355	2.14904	0	
2.8180	17.5974	-3.04195	0	
2.8187	12.1057	-1.81609	0	
2.8193	7.52266	0.0151341	0	
2.8200	-0.414214	-4.5705	0	
2.8207	-7.42912	-6.40172	0	
2.8213	-7.73644	-4.26781	0	
2.8220	-7.42912	-6.40172	0	
2.8227	-9.25968	-7.93026	0	
2.8233	-8.04376	-5.47854	0	
2.8240	-7.42912	-5.17586	0	
2.8247	-12.3062	-3.04195	0	
2.8253	-14.444	1.22586	0	
2.8260	-12.3062	0.92318	0	
2.8267	-11.0902	-2.11877	0	
2.8273	-8.33772	-2.11877	0	
2.8280	-6.50716	-3.34463	0	
2.8287	-8.04376	-5.17586	0	
2.8293	-6.50716	-4.5705	0	
2.8300	0.815066	-3.04195	0	
2.8307	6.61406	0.0151341	0	
2.8313	10.8765	3.3749	0	
2.8320	14.5509	5.50881	0	
2.8327	16.0742	7.64272	0	
2.8333	20.0426	8.24808	0	
2.8340	27.3648	4.58563	0	
2.8347	28.8881	4.58563	0	
2.8353	27.6721	7.64272	0	
2.8360	28.2734	6.41686	0	
2.8367	24.305	4.88831	0	
2.8373	16.6754	8.24808	0	
2.8380	13.629	7.34004	0	
2.8387	11.4911	2.7544	0	
2.8393	4.16886	0.92318	0	
2.8400	-4.07533	-1.81609	0	
2.8407	-8.04376	-6.7044	0	
2.8413	-9.25968	-7.61245	0	
2.8420	-10.4756	-6.7044	0	
2.8427	-13.2281	-7.30977	0	
2.8433	-19.0271	-8.23295	0	
2.8440	-24.5188	-10.0642	0	
2.8447	-26.042	-11.2749	0	
2.8453	-24.8261	-9.74636	0	
2.8460	-22.9955	-8.53563	0	
2.8467	-24.2115	-9.14099	0	
2.8473	-26.042	-9.74636	0	
2.8480	-23.5968	-10.0642	0	
2.8487	-19.0271	-9.14099	0	
2.8493	-18.1051	-7.30977	0	
2.8500	-17.5039	-6.40172	0	
2.8507	-15.6733	-5.78122	0	
2.8513	-16.2746	-5.47854	0	
2.8520	-18.4125	-5.47854	0	
2.8527	-20.8577	-5.47854	0	
2.8533	-25.7347	-4.5705	0	
2.8540	-25.7347	-2.11877	0	
2.8547	-15.366	0.92318	0	
2.8553	-8.04376	0.92318	0	
2.8560	-3.76801	1.54368	0	
2.8567	14.5509	6.41686	0	
2.8573	39.2701	10.6998	0	
2.8580	48.7302	9.17126	0	
2.8587	43.8398	6.71954	0	
2.8593	33.7651	5.81149	0	
2.8600	22.7818	4.58563	0	
2.8607	18.212	4.28295	0	
2.8613	23.0891	6.11417	0	
2.8620	27.0575	8.24808	0	
2.8627	24.011	8.24808	0	
2.8633	18.212	7.03735	0	
2.8640	11.7984	5.50881	0	
2.8647	5.6921	4.58563	0	
2.8653	1.41634	2.14904	0	
2.8660	-0.414214	0.92318	0	
2.8667	-2.84605	1.84636	0	
2.8673	-4.36929	1.84636	0	
2.8680	-1.01549	0.92318	0	
2.8687	4.16886	0.92318	0	
2.8693	5.99942	1.54368	0	
2.8700	5.38478	0.92318	0	
2.8707	3.55422	-0.908046	0	
2.8713	1.12239	-1.51341	0	
2.8720	-1.01549	-2.11877	0	
2.8727	-3.15337	-1.81609	0	
2.8733	-1.93745	0.92318	0	
2.8740	5.38478	1.84636	0	
2.8747	9.96785	-0.287548	0	
2.8753	5.99942	-0.908046	0	
2.8760	1.12239	0.620498	0	
2.8767	0.200426	-0.287548	0	
2.8773	-0.106894	-2.11877	0	
2.8780	-1.01549	-0.908046	0	
2.8787	-1.32281	0.92318	0	
2.8793	-1.32281	0.92318	0	
2.8800	-2.84605	0.0151341	0	
2.8807	-7.1218	0.0151341	0	
2.8813	-9.25968	0.317816	0	
2.8820	-6.50716	-0.605364	0	
2.8827	-4.98393	-1.81609	0	
2.8833	-5.59857	0.92318	0	
2.8840	-3.46069	5.50881	0	
2.8847	-0.106894	6.41686	0	
2.8853	0.200426	5.81149	0	
2.8860	-1.93745	4.28295	0	
2.8867	-3.76801	2.7544	0	
2.8873	-1.93745	5.50881	0	
2.8880	2.3383	7.9454	0	
2.8887	3.55422	4.58563	0	
2.8893	2.64562	2.14904	0	
2.8900	5.09082	3.98027	0	
2.8907	6.61406	3.67758	0	
2.8913	3.86154	1.84636	0	
2.8920	0.815066	2.7544	0	
2.8927	0.815066	2.7544	0	
2.8933	1.72366	0.92318	0	
2.8940	1.72366	-1.81609	0	
2.8947	-0.106894	-6.40172	0	
2.8953	-4.36929	-7.30977	0	
2.8960	-9.87432	-4.26781	0	
2.8967	-12.9208	-4.26781	0	
2.8973	-14.7514	-7.30977	0	
2.8980	-18.1051	-6.7044	0	
2.8987	-22.6882	-4.87318	0	
2.8993	-26.3493	-6.7044	0	
2.9000	-26.6567	-8.53563	0	
2.9007	-24.8261	-8.23295	0	
2.9013	-27.2579	-8.83831	0	
2.9020	-29.3958	-10.3669	0	
2.9027	-20.5503	-8.23295	0	
2.9033	-5.59857	-3.04195	0	
2.9040	3.55422	0.0151341	0	
2.9047	6.30674	-0.287548	0	
2.9053	5.38478	0.0151341	0	
2.9060	3.86154	0.0151341	0	
2.9067	8.75193	0.0151341	0	
2.9073	12.7204	1.84636	0	
2.9080	7.21534	1.84636	0	
2.9087	1.41634	0.620498	0	
2.9093	3.2469	1.84636	0	
2.9100	2.95294	3.05709	0	
2.9107	1.12239	0.0151341	0	
2.9113	5.09082	0.0151341	0	
2.9120	6.30674	3.67758	0	
2.9127	1.12239	4.28295	0	
2.9133	-1.93745	2.7544	0	
2.9140	-2.84605	3.67758	0	
2.9147	0.200426	4.88831	0	
2.9153	12.1057	4.88831	0	
2.9160	27.0575	6.41686	0	
2.9167	34.3797	9.17126	0	
2.9173	34.3797	10.0793	0	
2.9180	27.3648	6.41686	0	
2.9187	13.9363	2.45172	0	
2.9193	5.09082	0.620498	0	
2.9200	3.55422	-0.287548	0	
2.9207	0.200426	-1.21073	0	
2.9213	-5.29125	-1.81609	0	
2.9220	-4.07533	-3.04195	0	
2.9227	2.3383	-3.95	0	
2.9233	8.1373	-3.95	0	
2.9240	13.629	-3.64732	0	
2.9247	18.506	-2.11877	0	
2.9253	16.9828	-2.43659	0	
2.9260	6.61406	-7.93026	0	
2.9267	-2.24477	-12.1981	0	
2.9273	-0.106894	-10.0642	0	
2.9280	6.30674	-5.47854	0	
2.9287	5.6921	-2.73927	0	
2.9293	1.41634	-1.51341	0	
2.9300	0.200426	-2.43659	0	
2.9307	-0.708172	-3.04195	0	
2.9313	-1.63013	-1.21073	0	
2.9320	0.815066	0.92318	0	
2.9327	5.38478	0.92318	0	
2.9333	8.1373	-0.908046	0	
2.9340	8.75193	-1.81609	0	
2.9347	6.92138	-0.908046	0	
2.9353	5.99942	1.54368	0	
2.9360	6.92138	1.84636	0	
2.9367	6.30674	1.84636	0	
2.9373	5.38478	2.7544	0	
2.9380	6.30674	3.3749	0	
2.9387	6.30674	3.67758	0	
2.9393	3.55422	3.3749	0	
2.9400	-1.01549	0.92318	0	
2.9407	-6.50716	-1.21073	0	
2.9413	-10.1683	-0.908046	0	
2.9420	-11.3976	0.620498	0	
2.9427	-12.6135	0.0151341	0	
2.9433	-14.7514	-0.287548	0	
2.9440	-15.366	1.54368	0	
2.9447	-15.6733	1.84636	0	
2.9453	-18.4125	-1.81609	0	
2.9460	-18.4125	-5.17586	0	
2.9467	-12.9208	-6.09904	0	
2.9473	-7.73644	-6.09904	0	
2.9480	-4.98393	-5.78122	0	
2.9487	-0.106894	-3.95	0	
2.9493	3.55422	0.620498	0	
2.9500	2.64562	4.58563	0	
2.9507	3.86154	4.58563	0	
2.9513	9.96785	3.05709	0	
2.9520	12.1057	3.05709	0	
2.9527	9.04589	4.58563	0	
2.9533	5.38478	6.11417	0	
2.9540	4.7835	7.34004	0	
2.9547	6.92138	7.34004	0	
2.9553	7.52266	7.64272	0	
2.9560	5.09082	7.64272	0	
2.9567	3.55422	4.28295	0	
2.9573	2.64562	1.54368	0	
2.9580	-4.36929	1.84636	0	
2.9587	-13.2281	-1.21073	0	
2.9593	-15.366	-7.61245	0	
2.9600	-13.8428	-7.93026	0	
2.9607	-13.2281	-5.17586	0	
2.9613	-9.567	-5.47854	0	
