0.0000	17.3047	7.28659	1
0.0007	12.104	7.28659	0	
0.0013	15.4714	7.89381	0	
0.0020	21.2708	6.36598	0	
0.0027	20.3541	5.15154	0	
0.0033	16.388	4.54433	0	
0.0040	19.1194	5.44536	0	
0.0047	23.7028	7.89381	0	
0.0053	20.0361	8.18762	0	
0.0060	14.2366	6.05257	0	
0.0067	11.8046	4.23092	0	
0.0073	6.62257	0.254639	0	
0.0080	-0.0935391	-4.91649	0	
0.0087	-1.9269	-8.57938	0	
0.0093	-6.51032	-11.0278	0	
0.0100	-12.9084	-11.635	0	
0.0107	-12.9084	-8.89278	0	
0.0113	-9.26037	-5.5433	0	
0.0120	-7.12768	-4.30928	0	
0.0127	-6.21099	-3.70206	0	
0.0133	-10.177	-3.09484	0	
0.0140	-17.4918	-3.09484	0	
0.0147	-19.6245	-4.62268	0	
0.0153	-19.6245	-5.22989	0	
0.0160	-20.5412	-4.01546	0	
0.0167	-19.6245	-4.30928	0	
0.0173	-16.5751	-4.91649	0	
0.0180	-12.0104	-2.17423	0	
0.0187	-9.55969	0.881443	0	
0.0193	-14.7418	-0.352577	0	
0.0200	-16.8932	-2.17423	0	
0.0207	-6.51032	-2.17423	0	
0.0213	2.95583	-0.646391	0	
0.0220	3.55448	0.568041	0	
0.0227	2.95583	1.17526	0	
0.0233	1.73983	0.568041	0	
0.0240	-2.84359	-1.2732	0	
0.0247	-6.21099	-4.62268	0	
0.0253	-7.12768	-5.5433	0	
0.0260	-4.97628	-3.09484	0	
0.0267	2.03915	-3.09484	0	
0.0273	4.17184	-4.91649	0	
0.0280	-1.9269	-3.09484	0	
0.0287	-3.14291	-1.56701	0	
0.0293	0.823144	-3.09484	0	
0.0300	1.12247	-2.78144	0	
0.0307	0.205786	-3.09484	0	
0.0313	1.73983	-4.91649	0	
0.0320	4.7892	-3.40825	0	
0.0327	16.388	-0.646391	0	
0.0333	30.4189	-0.352577	0	
0.0340	29.5022	0.881443	0	
0.0347	16.9867	3.62371	0	
0.0353	9.97126	3.62371	0	
0.0360	9.05458	1.48866	0	
0.0367	8.1379	1.17526	0	
0.0373	9.05458	1.48866	0	
0.0380	8.43722	-0.352577	0	
0.0387	4.47117	-1.56701	0	
0.0393	0.505111	0.568041	0	
0.0400	-2.84359	3.31031	0	
0.0407	-5.89296	2.38969	0	
0.0413	-2.84359	-0.352577	0	
0.0420	4.47117	-0.959793	0	
0.0427	6.92189	0.254639	0	
0.0433	1.73983	0.568041	0	
0.0440	-1.32825	-0.352577	0	
0.0447	0.505111	-0.0391752	0	
0.0453	4.17184	2.70309	0	
0.0460	9.35391	4.23092	0	
0.0467	13.638	4.83814	0	
0.0473	13.638	5.75876	0	
0.0480	14.854	5.75876	0	
0.0487	18.2027	3.91752	0	
0.0493	16.388	1.78247	0	
0.0500	12.422	1.48866	0	
0.0507	11.5053	2.38969	0	
0.0513	9.05458	3.01649	0	
0.0520	0.823144	2.09587	0	
0.0527	-7.427	-0.0391752	0	
0.0533	-11.3931	-1.88041	0	
0.0540	-12.0104	-2.78144	0	
0.0547	-12.9084	-3.09484	0	
0.0553	-16.2758	-4.01546	0	
0.0560	-18.7078	-4.91649	0	
0.0567	-19.6245	-7.07113	0	
0.0573	-20.5412	-9.20618	0	
0.0580	-17.4918	-6.75773	0	
0.0587	-8.64301	-1.56701	0	
0.0593	-4.67695	-0.646391	0	
0.0600	-10.177	-2.48763	0	
0.0607	-15.3591	-1.2732	0	
0.0613	-14.7418	1.48866	0	
0.0620	-14.4424	1.48866	0	
0.0627	-15.6584	2.09587	0	
0.0633	-13.8251	4.54433	0	
0.0640	-10.177	6.36598	0	
0.0647	-9.26037	5.44536	0	
0.0653	-8.34368	2.38969	0	
0.0660	-3.14291	0.568041	0	
0.0667	3.25516	1.48866	0	
0.0673	9.05458	3.31031	0	
0.0680	12.422	3.31031	0	
0.0687	9.97126	1.78247	0	
0.0693	6.62257	1.48866	0	
0.0700	7.22122	3.62371	0	
0.0707	9.67194	6.36598	0	
0.0713	11.1873	6.67938	0	
0.0720	10.5886	6.05257	0	
0.0727	9.05458	6.05257	0	
0.0733	9.35391	5.15154	0	
0.0740	9.05458	5.44536	0	
0.0747	4.7892	6.97319	0	
0.0753	-0.0935391	3.91752	0	
0.0760	-2.84359	-0.352577	0	
0.0767	-2.22623	2.09587	0	
0.0773	1.42179	4.23092	0	
0.0780	3.55448	1.17526	0	
0.0787	4.17184	-0.0391752	0	
0.0793	5.70588	2.38969	0	
0.0800	7.22122	1.78247	0	
0.0807	6.62257	1.78247	0	
0.0813	8.1379	4.23092	0	
0.0820	11.1873	5.44536	0	
0.0827	13.0206	6.05257	0	
0.0833	14.5547	6.05257	0	
0.0840	14.2366	3.31031	0	
0.0847	12.422	2.09587	0	
0.0853	13.32	5.44536	0	
0.0860	17.3047	8.18762	0	
0.0867	16.6874	6.97319	0	
0.0873	9.97126	4.83814	0	
0.0880	4.47117	1.48866	0	
0.0887	2.03915	-1.88041	0	
0.0893	-3.46095	-2.48763	0	
0.0900	-13.2264	-4.62268	0	
0.0907	-19.6245	-9.49999	0	
0.0913	-23.9086	-13.1629	0	
0.0920	-32.14	-15.6113	0	
0.0927	-36.7234	-18.667	0	
0.0933	-33.9734	-17.7464	0	
0.0940	-33.356	-14.6907	0	
0.0947	-35.5074	-15.0041	0	
0.0953	-29.708	-12.5557	0	
0.0960	-16.8932	-5.22989	0	
0.0967	-5.29431	-2.17423	0	
0.0973	-1.01022	-4.62268	0	
0.0980	-6.21099	-4.91649	0	
0.0987	-11.6924	-2.48763	0	
0.0993	-6.51032	-2.17423	0	
0.1000	0.823144	-4.30928	0	
0.1007	-3.14291	-5.83711	0	
0.1013	-10.177	-4.30928	0	
0.1020	-7.427	-2.17423	0	
0.1027	1.42179	-0.959793	0	
0.1033	6.92189	2.09587	0	
0.1040	9.97126	4.54433	0	
0.1047	12.7213	3.31031	0	
0.1053	12.7213	2.38969	0	
0.1060	12.104	3.62371	0	
0.1067	12.7213	5.15154	0	
0.1073	11.8046	7.58041	0	
0.1080	11.8046	8.50103	0	
0.1087	11.8046	5.15154	0	
0.1093	8.1379	1.48866	0	
0.1100	4.47117	1.48866	0	
0.1107	8.1379	2.09587	0	
0.1113	10.8879	0.568041	0	
0.1120	5.38785	-1.2732	0	
0.1127	-1.01022	-3.70206	0	
0.1133	-1.9269	-5.22989	0	
0.1140	-2.84359	-5.5433	0	
0.1147	-4.97628	-4.01546	0	
0.1153	-4.0596	-2.17423	0	
0.1160	-4.97628	-3.09484	0	
0.1167	-10.177	-3.09484	0	
0.1173	-11.0937	-1.2732	0	
0.1180	-7.72633	-1.2732	0	
0.1187	-10.177	-2.78144	0	
0.1193	-16.8932	-1.2732	0	
0.1200	-19.3252	-0.352577	0	
0.1207	-17.1925	-1.56701	0	
0.1213	-10.177	-0.352577	0	
0.1220	-1.01022	0.881443	0	
0.1227	-0.411572	0.254639	0	
0.1233	-1.62758	-0.0391752	0	
0.1240	13.32	0.881443	0	
0.1247	34.0856	1.48866	0	
0.1253	38.351	2.09587	0	
0.1260	31.9529	-0.0391752	0	
0.1267	26.7522	-1.56701	0	
0.1273	22.7861	0.568041	0	
0.1280	19.1194	-0.646391	0	
0.1287	14.5547	-6.75773	0	
0.1293	7.53925	-6.75773	0	
0.1300	4.17184	-2.17423	0	
0.1307	5.38785	-2.78144	0	
0.1313	6.30453	-3.09484	0	
0.1320	6.30453	-0.352577	0	
0.1327	4.47117	0.254639	0	
0.1333	-0.411572	0.254639	0	
0.1340	-1.9269	0.881443	0	
0.1347	0.823144	0.568041	0	
0.1353	-0.0935391	3.01649	0	
0.1360	-2.84359	4.23092	0	
0.1367	-6.51032	0.568041	0	
0.1373	-11.3931	-0.352577	0	
0.1380	-11.6924	1.48866	0	
0.1387	-5.29431	0.568041	0	
0.1393	2.03915	-0.352577	0	
0.1400	7.22122	0.568041	0	
0.1407	6.92189	-0.646391	0	
0.1413	-0.0935391	-0.646391	0	
0.1420	-7.12768	1.48866	0	
0.1427	-11.0937	1.17526	0	
0.1433	-12.6091	-0.646391	0	
0.1440	-9.85902	-2.17423	0	
0.1447	-6.80964	-3.40825	0	
0.1453	-9.26037	-3.09484	0	
0.1460	-14.1431	-1.2732	0	
0.1467	-15.6584	-3.09484	0	
0.1473	-12.3097	-5.83711	0	
0.1480	-8.94233	-4.30928	0	
0.1487	-4.67695	-0.646391	0	
0.1493	2.95583	1.48866	0	
0.1500	6.30453	-1.2732	0	
0.1507	-0.0935391	-4.30928	0	
0.1513	-2.22623	-1.88041	0	
0.1520	2.65651	1.17526	0	
0.1527	2.65651	0.881443	0	
0.1533	-0.0935391	1.78247	0	
0.1540	3.55448	4.23092	0	
0.1547	6.62257	4.23092	0	
0.1553	1.73983	3.01649	0	
0.1560	-6.80964	1.17526	0	
0.1567	-13.8251	-2.78144	0	
0.1573	-14.4424	-6.15051	0	
0.1580	-7.72633	-6.15051	0	
0.1587	-0.0935391	-4.01546	0	
0.1593	2.95583	-3.09484	0	
0.1600	0.823144	-4.01546	0	
0.1607	-3.76027	-4.62268	0	
0.1613	-5.29431	-3.09484	0	
0.1620	-3.76027	-2.17423	0	
0.1627	-2.54426	-3.09484	0	
0.1633	-0.710897	-1.88041	0	
0.1640	1.73983	2.09587	0	
0.1647	1.73983	4.23092	0	
0.1653	2.95583	3.01649	0	
0.1660	7.53925	1.78247	0	
0.1667	11.8046	3.31031	0	
0.1673	12.104	5.75876	0	
0.1680	9.35391	5.44536	0	
0.1687	8.1379	5.15154	0	
0.1693	8.75526	5.75876	0	
0.1700	6.30453	1.78247	0	
0.1707	-1.01022	-4.91649	0	
0.1713	-4.97628	-7.67835	0	
0.1720	-3.14291	-7.07113	0	
0.1727	-3.76027	-6.75773	0	
0.1733	-8.34368	-3.70206	0	
0.1740	-11.0937	-1.2732	0	
0.1747	-11.0937	-3.70206	0	
0.1753	-9.55969	-4.01546	0	
0.1760	-10.7757	0.254639	0	
0.1767	-15.9765	0.881443	0	
0.1773	-18.1092	-0.959793	0	
0.1780	-12.6091	0.568041	0	
0.1787	-6.51032	2.38969	0	
0.1793	-5.29431	2.70309	0	
0.1800	-7.12768	2.70309	0	
0.1807	-6.21099	2.38969	0	
0.1813	1.12247	2.70309	0	
0.1820	6.92189	3.62371	0	
0.1827	5.70588	0.881443	0	
0.1833	6.30453	-1.88041	0	
0.1840	10.2706	-0.352577	0	
0.1847	8.43722	0.254639	0	
0.1853	2.95583	-3.40825	0	
0.1860	4.47117	-5.5433	0	
0.1867	8.1379	-3.09484	0	
0.1873	7.22122	-0.646391	0	
0.1880	3.55448	-2.48763	0	
0.1887	-2.84359	-6.75773	0	
0.1893	-9.85902	-8.28556	0	
0.1900	-10.177	-5.5433	0	
0.1907	-5.59364	-1.56701	0	
0.1913	-3.76027	1.17526	0	
0.1920	-1.9269	2.09587	0	
0.1927	2.33848	0.568041	0	
0.1933	3.55448	-1.2732	0	
0.1940	2.03915	-2.17423	0	
0.1947	0.823144	-2.48763	0	
0.1953	0.505111	-1.56701	0	
0.1960	6.00521	1.78247	0	
0.1967	15.1533	3.31031	0	
0.1973	14.5547	-0.0391752	0	
0.1980	6.30453	-1.2732	0	
0.1987	5.38785	2.70309	0	
0.1993	5.38785	4.83814	0	
0.2000	-1.01022	1.48866	0	
0.2007	-4.67695	-0.646391	0	
0.2013	-5.59364	-1.88041	0	
0.2020	-7.427	-3.70206	0	
0.2027	-6.21099	-4.01546	0	
0.2033	-2.84359	-2.17423	0	
0.2040	-2.54426	0.881443	0	
0.2047	0.205786	3.31031	0	
0.2053	5.38785	2.38969	0	
0.2060	5.38785	1.48866	0	
0.2067	3.55448	3.62371	0	
0.2073	2.03915	5.75876	0	
0.2080	-0.710897	6.36598	0	
0.2087	-0.0935391	7.28659	0	
0.2093	5.08852	5.15154	0	
0.2100	7.22122	0.568041	0	
0.2107	6.30453	1.48866	0	
0.2113	6.00521	3.31031	0	
0.2120	3.55448	-0.0391752	0	
0.2127	-2.84359	-2.48763	0	
0.2133	-7.12768	-0.959793	0	
0.2140	-7.12768	-1.2732	0	
0.2147	-5.89296	-4.30928	0	
0.2153	-9.55969	-6.15051	0	
0.2160	-15.9765	-5.83711	0	
0.2167	-17.1925	-5.83711	0	
0.2173	-15.0598	-7.67835	0	
0.2180	-16.2758	-9.49999	0	
0.2187	-17.4918	-7.67835	0	
0.2193	-14.1431	-4.91649	0	
0.2200	-8.02565	-5.22989	0	
0.2207	-1.01022	-5.5433	0	
0.2213	0.505111	-3.40825	0	
0.2220	-4.97628	-3.40825	0	
0.2227	-7.427	-5.5433	0	
0.2233	-0.411572	-4.30928	0	
0.2240	8.43722	-0.352577	0	
0.2247	15.1533	2.38969	0	
0.2253	18.2027	3.31031	0	
0.2260	13.638	5.44536	0	
0.2267	6.00521	4.54433	0	
0.2273	2.65651	1.17526	0	
0.2280	2.33848	2.09587	0	
0.2287	1.42179	6.05257	0	
0.2293	1.73983	6.05257	0	
0.2300	2.95583	3.01649	0	
0.2307	5.38785	1.48866	0	
0.2313	10.2706	1.48866	0	
0.2320	14.5547	0.568041	0	
0.2327	14.5547	-0.646391	0	
0.2333	16.388	-0.352577	0	
0.2340	20.9527	2.09587	0	
0.2347	19.4374	0.881443	0	
0.2353	13.638	-3.40825	0	
0.2360	13.638	-4.01546	0	
0.2367	13.9373	-3.09484	0	
0.2373	6.00521	-4.01546	0	
0.2380	-0.411572	-2.17423	0	
0.2387	0.823144	-0.352577	0	
0.2393	-1.62758	-4.01546	0	
0.2400	-9.26037	-8.57938	0	
0.2407	-12.6091	-8.57938	0	
0.2413	-12.9084	-3.40825	0	
0.2420	-14.1431	-0.0391752	0	
0.2427	-12.9084	-0.959793	0	
0.2433	-9.26037	-3.09484	0	
0.2440	-9.55969	-4.62268	0	
0.2447	-10.177	-5.22989	0	
0.2453	-6.51032	-3.70206	0	
0.2460	-2.84359	-0.352577	0	
0.2467	-3.14291	1.48866	0	
0.2473	-2.84359	1.48866	0	
0.2480	3.25516	0.568041	0	
0.2487	11.8046	0.568041	0	
0.2493	14.5547	1.48866	0	
0.2500	9.67194	-0.352577	0	
0.2507	2.65651	-2.17423	0	
0.2513	-1.9269	3.01649	0	
0.2520	-5.59364	6.05257	0	
0.2527	-8.34368	3.31031	0	
0.2533	-8.34368	3.31031	0	
0.2540	-7.427	5.15154	0	
0.2547	-8.94233	3.31031	0	
0.2553	-10.4764	3.01649	0	
0.2560	-9.85902	4.83814	0	
0.2567	-8.34368	4.23092	0	
0.2573	-7.72633	4.83814	0	
0.2580	-4.37763	7.28659	0	
0.2587	1.73983	5.15154	0	
0.2593	4.47117	2.70309	0	
0.2600	2.65651	5.15154	0	
0.2607	0.505111	7.89381	0	
0.2613	-1.62758	7.89381	0	
0.2620	-3.76027	4.83814	0	
0.2627	-4.37763	0.568041	0	
0.2633	-6.21099	-0.352577	0	
0.2640	-9.26037	-0.352577	0	
0.2647	-8.34368	0.568041	0	
0.2653	-2.84359	4.23092	0	
0.2660	-0.0935391	6.36598	0	
0.2667	-1.01022	4.23092	0	
0.2673	-1.01022	4.23092	0	
0.2680	-0.0935391	5.44536	0	
0.2687	-0.411572	2.38969	0	
0.2693	-1.62758	2.38969	0	
0.2700	0.505111	5.44536	0	
0.2707	3.55448	2.38969	0	
0.2713	3.25516	1.48866	0	
0.2720	0.823144	5.15154	0	
0.2727	-1.32825	3.91752	0	
0.2733	-2.84359	-0.646391	0	
0.2740	-4.67695	-0.0391752	0	
0.2747	-4.97628	1.48866	0	
0.2753	-7.12768	1.48866	0	
0.2760	-9.55969	3.01649	0	
0.2767	-9.55969	3.31031	0	
0.2773	-8.34368	0.568041	0	
0.2780	-4.97628	-1.2732	0	
0.2787	-0.0935391	-1.2732	0	
0.2793	-3.46095	-3.09484	0	
0.2800	-12.9084	-5.83711	0	
0.2807	-13.8251	-5.83711	0	
0.2813	-6.80964	-3.70206	0	
0.2820	-4.67695	-2.17423	0	
0.2827	-5.89296	0.568041	0	
0.2833	-5.59364	2.09587	0	
0.2840	-6.21099	-0.646391	0	
0.2847	-7.427	-3.09484	0	
0.2853	-5.29431	-2.48763	0	
0.2860	-0.710897	-3.40825	0	
0.2867	1.12247	-4.91649	0	
0.2873	0.205786	-3.09484	0	
0.2880	2.65651	-1.2732	0	
0.2887	9.05458	-0.0391752	0	
0.2893	14.2366	1.48866	0	
0.2900	15.1533	1.78247	0	
0.2907	15.7707	1.48866	0	
0.2913	13.9373	1.48866	0	
0.2920	9.35391	3.31031	0	
0.2927	7.53925	4.83814	0	
0.2933	9.97126	3.31031	0	
0.2940	15.1533	3.01649	0	
0.2947	20.0361	7.28659	0	
0.2953	20.0361	10.9495	0	
0.2960	15.4714	9.10824	0	
0.2967	12.104	6.05257	0	
0.2973	9.97126	5.15154	0	
0.2980	7.83857	4.23092	0	
0.2987	6.00521	4.54433	0	
0.2993	3.55448	3.91752	0	
0.3000	0.823144	-0.352577	0	
0.3007	-0.0935391	-5.83711	0	
0.3013	-2.22623	-6.15051	0	
0.3020	-6.80964	-4.62268	0	
0.3027	-7.427	-5.83711	0	
0.3033	-3.76027	-7.67835	0	
0.3040	-1.9269	-8.57938	0	
0.3047	-1.01022	-6.15051	0	
0.3053	-0.0935391	-2.17423	0	
0.3060	-3.76027	-1.2732	0	
0.3067	-10.7757	-4.30928	0	
0.3073	-11.0937	-4.91649	0	
0.3080	-6.80964	-3.09484	0	
0.3087	-4.67695	-4.01546	0	
0.3093	-2.22623	-4.62268	0	
0.3100	1.12247	-2.48763	0	
0.3107	1.73983	0.568041	0	
0.3113	1.73983	3.62371	0	
0.3120	2.65651	4.23092	0	
0.3127	0.823144	3.31031	0	
0.3133	0.823144	5.44536	0	
0.3140	1.73983	8.18762	0	
0.3147	-0.411572	7.28659	0	
0.3153	-1.32825	6.67938	0	
0.3160	-0.710897	8.18762	0	
0.3167	-4.37763	7.89381	0	
0.3173	-4.97628	5.75876	0	
0.3180	-1.01022	5.15154	0	
0.3187	-2.84359	6.97319	0	
0.3193	-4.0596	7.89381	0	
0.3200	0.505111	5.44536	0	
0.3207	-1.62758	2.38969	0	
0.3213	-7.427	1.48866	0	
0.3220	-5.59364	1.48866	0	
0.3227	-4.0596	0.254639	0	
0.3233	-7.427	-1.2732	0	
0.3240	-6.51032	0.568041	0	
0.3247	-3.14291	3.91752	0	
0.3253	-1.9269	4.23092	0	
0.3260	-1.9269	1.78247	0	
0.3267	-4.67695	0.254639	0	
0.3273	-9.26037	-0.959793	0	
0.3280	-10.4764	-3.09484	0	
0.3287	-10.177	-4.01546	0	
0.3293	-8.94233	-4.30928	0	
0.3300	-6.80964	-4.91649	0	
0.3307	-7.72633	-3.40825	0	
0.3313	-8.02565	-2.48763	0	
0.3320	-2.84359	-3.70206	0	
0.3327	-0.0935391	-3.09484	0	
0.3333	-0.710897	-0.646391	0	
0.3340	1.12247	-1.2732	0	
0.3347	1.73983	-3.09484	0	
0.3353	-4.67695	-2.78144	0	
0.3360	-12.0104	-3.40825	0	
0.3367	-14.7418	-4.91649	0	
0.3373	-12.6091	-4.01546	0	
0.3380	-4.0596	-0.646391	0	
0.3387	2.95583	1.48866	0	
0.3393	2.65651	1.17526	0	
0.3400	0.205786	1.78247	0	
0.3407	-0.411572	3.31031	0	
0.3413	0.823144	2.70309	0	
0.3420	7.53925	1.48866	0	
0.3427	18.5207	2.70309	0	
0.3433	21.8694	5.44536	0	
0.3440	15.1533	6.36598	0	
0.3447	9.97126	6.36598	0	
0.3453	10.5886	7.89381	0	
0.3460	10.5886	6.97319	0	
0.3467	8.1379	2.70309	0	
0.3473	4.7892	1.17526	0	
0.3480	1.73983	2.38969	0	
0.3487	-2.84359	-0.646391	0	
0.3493	-8.94233	-4.91649	0	
0.3500	-12.9084	-3.09484	0	
0.3507	-15.6584	-1.2732	0	
0.3513	-22.0752	-2.17423	0	
0.3520	-28.7913	-1.88041	0	
0.3527	-23.9086	-1.2732	0	
0.3533	-9.85902	-2.78144	0	
0.3540	1.73983	-2.17423	0	
0.3547	9.67194	0.568041	0	
0.3553	15.1533	1.48866	0	
0.3560	11.8046	0.254639	0	
0.3567	2.65651	0.568041	0	
0.3573	-0.710897	3.01649	0	
0.3580	5.08852	3.01649	0	
0.3587	11.8046	2.38969	0	
0.3593	14.854	6.36598	0	
0.3600	11.5053	7.89381	0	
0.3607	4.47117	4.23092	0	
0.3613	1.73983	2.38969	0	
0.3620	4.7892	2.70309	0	
0.3627	3.87252	0.568041	0	
0.3633	0.823144	-0.352577	0	
0.3640	6.30453	1.48866	0	
0.3647	13.0206	2.09587	0	
0.3653	12.7213	2.70309	0	
0.3660	11.1873	2.09587	0	
0.3667	10.5886	-0.0391752	0	
0.3673	7.22122	1.78247	0	
0.3680	6.30453	3.62371	0	
0.3687	9.05458	2.38969	0	
0.3693	9.05458	0.568041	0	
0.3700	9.35391	-2.17423	0	
0.3707	9.35391	-2.17423	0	
0.3713	8.1379	2.38969	0	
0.3720	11.8046	4.83814	0	
0.3727	20.6534	3.91752	0	
0.3733	22.7861	6.67938	0	
0.3740	19.1194	8.50103	0	
0.3747	15.1533	5.75876	0	
0.3753	8.1379	5.15154	0	
0.3760	0.823144	5.15154	0	
0.3767	-0.710897	0.568041	0	
0.3773	-2.22623	-2.78144	0	
0.3780	-6.51032	-4.01546	0	
0.3787	-10.177	-6.44433	0	
0.3793	-15.0598	-8.57938	0	
0.3800	-19.6245	-8.57938	0	
0.3807	-17.4918	-8.57938	0	
0.3813	-11.3931	-8.28556	0	
0.3820	-9.26037	-7.07113	0	
0.3827	-8.34368	-6.75773	0	
0.3833	-5.89296	-8.28556	0	
0.3840	-4.37763	-11.3412	0	
0.3847	-3.76027	-11.0278	0	
0.3853	-4.67695	-6.75773	0	
0.3860	-7.12768	-7.97216	0	
0.3867	-7.72633	-14.0835	0	
0.3873	-3.14291	-15.6113	0	
0.3880	-0.411572	-14.3773	0	
0.3887	-3.14291	-16.2185	0	
0.3893	-5.59364	-17.1392	0	
0.3900	-5.89296	-13.1629	0	
0.3907	-5.59364	-10.4206	0	
0.3913	-5.29431	-12.2423	0	
0.3920	-6.21099	-14.3773	0	
0.3927	-7.427	-15.0041	0	
0.3933	-5.59364	-15.6113	0	
0.3940	-3.76027	-15.9051	0	
0.3947	-7.427	-15.6113	0	
0.3953	-9.26037	-15.2979	0	
0.3960	-7.12768	-15.2979	0	
0.3967	-4.97628	-13.7701	0	
0.3973	-3.76027	-12.2423	0	
0.3980	-1.32825	-12.2423	0	
0.3987	-0.710897	-13.1629	0	
0.3993	-1.9269	-14.6907	0	
0.4000	-2.84359	-15.0041	0	
0.4007	-2.54426	-13.1629	0	
0.4013	-1.01022	-10.1072	0	
0.4020	-1.01022	-6.44433	0	
0.4027	-1.01022	-4.91649	0	
0.4033	-0.710897	-8.57938	0	
0.4040	-0.710897	-10.4206	0	
0.4047	-0.0935391	-8.89278	0	
0.4053	2.33848	-10.4206	0	
0.4060	2.03915	-12.2423	0	
0.4067	0.505111	-7.36494	0	
0.4073	-1.01022	-4.91649	0	
0.4080	-4.37763	-8.57938	0	
0.4087	-4.67695	-10.4206	0	
0.4093	-1.32825	-9.8134	0	
0.4100	-2.54426	-11.9484	0	
0.4107	-4.67695	-12.2423	0	
0.4113	-0.710897	-9.20618	0	
0.4120	2.03915	-5.83711	0	
0.4127	1.73983	-2.48763	0	
0.4133	3.55448	0.568041	0	
0.4140	2.33848	-0.646391	0	
0.4147	-4.67695	-5.22989	0	
0.4153	-11.6924	-6.75773	0	
0.4160	-17.1925	-5.5433	0	
0.4167	-20.8592	-5.5433	0	
0.4173	-20.2419	-6.15051	0	
0.4180	-14.1431	-4.91649	0	
0.4187	-7.427	-4.01546	0	
0.4193	-5.59364	-3.40825	0	
0.4200	-5.59364	-0.0391752	0	
0.4207	2.33848	1.17526	0	
0.4213	10.2706	-0.646391	0	
0.4220	10.5886	-0.646391	0	
0.4227	10.8879	-0.959793	0	
0.4233	11.8046	-2.48763	0	
0.4240	9.05458	-1.2732	0	
0.4247	9.67194	0.568041	0	
0.4253	16.6874	-0.0391752	0	
0.4260	16.388	-0.0391752	0	
0.4267	9.05458	-1.2732	0	
0.4273	7.22122	-4.30928	0	
0.4280	9.67194	-4.91649	0	
0.4287	9.97126	-3.40825	0	
0.4293	9.05458	-1.2732	0	
0.4300	11.8046	2.38969	0	
0.4307	14.5547	2.09587	0	
0.4313	11.8046	-3.40825	0	
0.4320	7.22122	-6.75773	0	
0.4327	4.47117	-8.57938	0	
0.4333	3.55448	-10.4206	0	
0.4340	1.12247	-10.1072	0	
0.4347	-5.29431	-9.49999	0	
0.4353	-10.4764	-9.8134	0	
0.4360	-10.177	-7.67835	0	
0.4367	-11.0937	-3.70206	0	
0.4373	-16.5751	-3.09484	0	
0.4380	-20.5412	-4.30928	0	
0.4387	-22.3745	-3.70206	0	
0.4393	-22.9919	-2.17423	0	
0.4400	-18.1092	-2.78144	0	
0.4407	-11.3931	-3.09484	0	
0.4413	-8.94233	-0.352577	0	
0.4420	-5.29431	0.568041	0	
0.4427	-1.9269	-1.56701	0	
0.4433	-2.84359	-0.959793	0	
0.4440	-1.01022	2.38969	0	
0.4447	4.47117	3.91752	0	
0.4453	5.08852	3.31031	0	
0.4460	2.65651	2.38969	0	
0.4467	2.33848	2.09587	0	
0.4473	3.25516	4.83814	0	
0.4480	5.38785	7.58041	0	
0.4487	7.22122	8.18762	0	
0.4493	6.92189	9.42164	0	
0.4500	6.30453	9.42164	0	
0.4507	10.8879	8.81443	0	
0.4513	19.1194	11.2433	0	
0.4520	24.9188	12.4773	0	
0.4527	24.0021	10.6361	0	
0.4533	18.2027	8.18762	0	
0.4540	13.9373	6.97319	0	
0.4547	11.5053	5.44536	0	
0.4553	9.05458	4.83814	0	
0.4560	10.5886	3.91752	0	
0.4567	13.638	3.31031	0	
0.4573	8.1379	3.01649	0	
0.4580	-8.64301	1.48866	0	
0.4587	-21.4579	0.568041	0	
0.4593	-23.9086	1.17526	0	
0.4600	-26.6586	-0.352577	0	
0.4607	-30.3067	-1.2732	0	
0.4613	-27.5566	-0.0391752	0	
0.4620	-22.3745	-0.352577	0	
0.4627	-21.7759	-0.646391	0	
0.4633	-17.1925	0.881443	0	
0.4640	-8.02565	0.254639	0	
0.4647	-4.97628	0.254639	0	
0.4653	-6.80964	3.31031	0	
0.4660	-5.89296	3.91752	0	
0.4667	-3.14291	5.44536	0	
0.4673	2.33848	10.9495	0	
0.4680	10.2706	11.2433	0	
0.4687	12.7213	6.67938	0	
0.4693	9.67194	8.18762	0	
0.4700	10.8879	11.8505	0	
0.4707	17.6041	11.5567	0	
0.4713	22.7861	10.6361	0	
0.4720	23.4035	8.81443	0	
0.4727	20.9527	5.75876	0	
0.4733	18.2027	6.67938	0	
0.4740	15.1533	8.50103	0	
0.4747	9.05458	6.36598	0	
0.4753	2.65651	3.91752	0	
0.4760	-6.21099	2.38969	0	
0.4767	-14.4424	0.254639	0	
0.4773	-11.6924	-0.352577	0	
0.4780	-2.22623	0.881443	0	
0.4787	-1.62758	-0.646391	0	
0.4793	-7.12768	-4.91649	0	
0.4800	-6.51032	-7.07113	0	
0.4807	-2.22623	-7.07113	0	
0.4813	1.73983	-4.91649	0	
0.4820	4.17184	-0.352577	0	
0.4827	3.55448	4.23092	0	
0.4833	2.95583	4.83814	0	
0.4840	4.17184	1.48866	0	
0.4847	2.65651	-0.0391752	0	
0.4853	-0.411572	1.78247	0	
0.4860	-0.411572	2.38969	0	
0.4867	0.205786	0.254639	0	
0.4873	-1.01022	0.881443	0	
0.4880	-1.9269	2.38969	0	
0.4887	-1.32825	0.568041	0	
0.4893	-0.710897	1.17526	0	
0.4900	-1.9269	3.91752	0	
0.4907	-0.411572	2.38969	0	
0.4913	5.08852	1.78247	0	
0.4920	7.83857	5.15154	0	
0.4927	7.53925	6.67938	0	
0.4933	10.2706	4.83814	0	
0.4940	10.8879	3.31031	0	
0.4947	5.08852	0.881443	0	
0.4953	2.33848	0.254639	0	
0.4960	4.47117	2.70309	0	
0.4967	4.47117	1.78247	0	
0.4973	2.03915	-0.352577	0	
0.4980	-0.0935391	1.48866	0	
0.4987	-4.67695	0.568041	0	
0.4993	-9.26037	-1.2732	0	
0.5000	-12.3097	0.568041	0	
0.5007	-14.4424	0.254639	0	
0.5013	-14.7418	-4.62268	0	
0.5020	-14.7418	-4.01546	0	
0.5027	-14.7418	-0.0391752	0	
0.5033	-12.9084	-0.959793	0	
0.5040	-8.34368	-2.17423	0	
0.5047	-2.84359	1.17526	0	
0.5053	2.65651	2.70309	0	
0.5060	4.7892	1.78247	0	
0.5067	2.33848	3.31031	0	
0.5073	-1.01022	4.23092	0	
0.5080	-3.14291	1.78247	0	
0.5087	-3.76027	-0.0391752	0	
0.5093	1.12247	1.48866	0	
0.5100	7.83857	1.48866	0	
0.5107	7.53925	-0.959793	0	
0.5113	3.25516	-1.2732	0	
0.5120	1.73983	-1.2732	0	
0.5127	3.55448	-2.48763	0	
0.5133	5.08852	-1.56701	0	
0.5140	6.92189	0.881443	0	
0.5147	9.05458	0.881443	0	
0.5153	7.22122	2.38969	0	
0.5160	1.73983	5.15154	0	
0.5167	2.03915	2.38969	0	
0.5173	5.38785	-0.352577	0	
0.5180	2.33848	2.09587	0	
0.5187	-1.01022	1.48866	0	
0.5193	2.03915	-2.17423	0	
0.5200	0.505111	-0.646391	0	
0.5207	-6.51032	1.78247	0	
0.5213	-7.427	-0.352577	0	
0.5220	-3.76027	-0.959793	0	
0.5227	-3.76027	0.568041	0	
0.5233	-3.76027	-1.88041	0	
0.5240	-3.46095	-4.01546	0	
0.5247	-2.84359	-1.56701	0	
0.5253	-0.0935391	0.881443	0	
0.5260	1.73983	0.568041	0	
0.5267	1.42179	-0.352577	0	
0.5273	3.55448	-0.0391752	0	
0.5280	5.70588	-0.959793	0	
0.5287	3.87252	-1.56701	0	
0.5293	4.47117	0.568041	0	
0.5300	8.1379	1.78247	0	
0.5307	7.22122	-0.0391752	0	
0.5313	3.55448	-0.352577	0	
0.5320	4.17184	1.48866	0	
0.5327	2.65651	2.09587	0	
0.5333	-2.84359	0.881443	0	
0.5340	-5.89296	-1.56701	0	
0.5347	-6.51032	-3.40825	0	
0.5353	-6.80964	-2.17423	0	
0.5360	-2.22623	-1.2732	0	
0.5367	2.03915	-3.09484	0	
0.5373	-4.37763	-2.48763	0	
0.5380	-13.8251	-0.352577	0	
0.5387	-14.4424	-0.352577	0	
0.5393	-9.85902	-1.88041	0	
0.5400	-10.4764	-1.88041	0	
0.5407	-18.1092	-2.17423	0	
0.5413	-24.5072	-5.22989	0	
0.5420	-23.9086	-7.36494	0	
0.5427	-22.3745	-6.15051	0	
0.5433	-22.9919	-4.01546	0	
0.5440	-18.4085	-4.30928	0	
0.5447	-12.0104	-6.75773	0	
0.5453	-11.0937	-8.57938	0	
0.5460	-7.427	-6.44433	0	
0.5467	-0.0935391	-1.88041	0	
0.5473	-0.0935391	-0.352577	0	
0.5480	-1.9269	-1.56701	0	
0.5487	4.47117	-1.56701	0	
0.5493	12.422	1.17526	0	
0.5500	16.07	4.23092	0	
0.5507	15.1533	4.54433	0	
0.5513	9.97126	3.31031	0	
0.5520	7.22122	1.78247	0	
0.5527	7.83857	0.881443	0	
0.5533	4.47117	2.09587	0	
0.5540	-0.411572	5.15154	0	
0.5547	-0.411572	3.91752	0	
0.5553	-1.01022	-0.352577	0	
0.5560	-2.22623	-0.0391752	0	
0.5567	-1.9269	2.38969	0	
0.5573	-4.67695	1.78247	0	
0.5580	-7.427	1.78247	0	
0.5587	-7.427	2.38969	0	
0.5593	-8.34368	0.881443	0	
0.5600	-7.12768	-0.0391752	0	
0.5607	-1.01022	-0.959793	0	
0.5613	-0.710897	-2.17423	0	
0.5620	-5.29431	-0.352577	0	
0.5627	-2.54426	2.09587	0	
0.5633	2.95583	-0.0391752	0	
0.5640	5.08852	-0.352577	0	
0.5647	8.75526	4.54433	0	
0.5653	12.7213	6.05257	0	
0.5660	13.638	4.23092	0	
0.5667	13.638	3.31031	0	
0.5673	12.422	2.38969	0	
0.5680	9.97126	2.70309	0	
0.5687	8.43722	4.83814	0	
0.5693	8.1379	4.23092	0	
0.5700	11.8046	2.09587	0	
0.5707	12.104	3.31031	0	
0.5713	1.73983	5.15154	0	
0.5720	-7.72633	2.70309	0	
0.5727	-6.51032	0.881443	0	
0.5733	-8.34368	0.254639	0	
0.5740	-14.4424	-2.17423	0	
0.5747	-10.4764	-4.91649	0	
0.5753	1.12247	-6.15051	0	
0.5760	9.05458	-4.91649	0	
0.5767	12.7213	-1.88041	0	
0.5773	12.7213	0.568041	0	
0.5780	9.35391	-0.0391752	0	
0.5787	8.75526	-2.17423	0	
0.5793	9.35391	-3.40825	0	
0.5800	7.22122	-3.40825	0	
0.5807	3.25516	-3.40825	0	
0.5813	1.73983	-4.01546	0	
0.5820	2.65651	-3.09484	0	
0.5827	2.65651	0.881443	0	
0.5833	1.73983	4.23092	0	
0.5840	2.65651	3.01649	0	
0.5847	4.47117	1.78247	0	
0.5853	4.7892	3.91752	0	
0.5860	5.38785	5.15154	0	
0.5867	6.30453	3.01649	0	
0.5873	6.30453	0.568041	0	
0.5880	7.22122	1.17526	0	
0.5887	7.22122	2.38969	0	
0.5893	3.55448	1.48866	0	
0.5900	1.73983	0.254639	0	
0.5907	3.55448	1.48866	0	
0.5913	4.47117	2.38969	0	
0.5920	4.47117	0.568041	0	
0.5927	2.95583	-2.17423	0	
0.5933	-1.9269	-4.91649	0	
0.5940	-8.94233	-7.67835	0	
0.5947	-12.3097	-7.36494	0	
0.5953	-11.0937	-4.91649	0	
0.5960	-7.12768	-4.01546	0	
0.5967	-0.710897	-2.78144	0	
0.5973	4.47117	-0.0391752	0	
0.5980	5.08852	-0.352577	0	
0.5987	3.55448	-1.56701	0	
0.5993	4.47117	0.568041	0	
0.6000	4.47117	0.881443	0	
0.6007	-2.22623	-4.01546	0	
0.6013	-11.0937	-6.75773	0	
0.6020	-16.2758	-6.75773	0	
0.6027	-18.4085	-9.8134	0	
0.6033	-19.6245	-13.1629	0	
0.6040	-19.3252	-12.2423	0	
0.6047	-14.4424	-9.8134	0	
0.6053	-9.26037	-8.57938	0	
0.6060	-8.64301	-6.15051	0	
0.6067	-6.51032	-5.5433	0	
0.6073	-2.22623	-4.91649	0	
0.6080	-2.84359	-1.2732	0	
0.6087	-4.97628	1.17526	0	
0.6093	-1.01022	1.48866	0	
0.6100	3.55448	3.31031	0	
0.6107	7.83857	6.36598	0	
0.6113	14.854	6.05257	0	
0.6120	15.1533	3.62371	0	
0.6127	6.92189	0.568041	0	
0.6133	1.73983	-1.88041	0	
0.6140	2.03915	-0.0391752	0	
0.6147	1.42179	2.70309	0	
0.6153	-0.411572	1.78247	0	
0.6160	-3.76027	0.254639	0	
0.6167	-4.67695	1.48866	0	
0.6173	-0.0935391	2.38969	0	
0.6180	-0.0935391	0.568041	0	
0.6187	-8.34368	-0.352577	0	
0.6193	-11.0937	1.48866	0	
0.6200	-2.84359	2.09587	0	
0.6207	4.17184	-0.646391	0	
0.6213	5.08852	-1.2732	0	
0.6220	2.95583	-0.959793	0	
0.6227	-1.01022	-2.17423	0	
0.6233	-2.22623	-3.09484	0	
0.6240	2.33848	-2.48763	0	
0.6247	5.38785	-3.09484	0	
0.6253	2.03915	-3.09484	0	
0.6260	-0.0935391	0.568041	0	
0.6267	3.55448	2.70309	0	
0.6273	4.7892	1.48866	0	
0.6280	3.55448	2.38969	0	
0.6287	6.00521	6.05257	0	
0.6293	9.05458	6.67938	0	
0.6300	6.00521	3.31031	0	
0.6307	1.12247	0.254639	0	
0.6313	-0.0935391	-1.2732	0	
0.6320	-0.411572	-2.17423	0	
0.6327	-0.710897	-3.09484	0	
0.6333	0.823144	-3.70206	0	
0.6340	2.65651	-2.17423	0	
0.6347	2.03915	0.568041	0	
0.6353	-1.32825	0.568041	0	
0.6360	-5.59364	-0.646391	0	
0.6367	-6.21099	0.881443	0	
0.6373	-4.67695	1.78247	0	
0.6380	-6.80964	-0.0391752	0	
0.6387	-9.55969	-0.646391	0	
0.6393	-7.427	-0.0391752	0	
0.6400	-5.89296	-0.959793	0	
0.6407	-9.55969	-1.88041	0	
0.6413	-10.4764	-1.2732	0	
0.6420	-6.51032	-0.352577	0	
0.6427	-1.9269	1.78247	0	
0.6433	0.823144	3.31031	0	
0.6440	2.33848	2.70309	0	
0.6447	5.08852	3.62371	0	
0.6453	9.05458	6.36598	0	
0.6460	8.75526	5.15154	0	
0.6467	5.38785	1.48866	0	
0.6473	7.22122	2.09587	0	
0.6480	9.97126	2.70309	0	
0.6487	9.05458	-0.646391	0	
0.6493	8.75526	-1.2732	0	
0.6500	8.1379	1.48866	0	
0.6507	3.87252	-0.352577	0	
0.6513	-1.62758	-4.30928	0	
0.6520	-5.59364	-4.62268	0	
0.6527	-7.12768	-3.40825	0	
0.6533	-4.67695	-4.01546	0	
0.6540	-2.22623	-3.40825	0	
0.6547	-3.76027	-1.56701	0	
0.6553	-5.59364	0.254639	0	
0.6560	-4.37763	-0.352577	0	
0.6567	-2.22623	-3.09484	0	
0.6573	-1.01022	-2.17423	0	
0.6580	-1.01022	0.881443	0	
0.6587	-5.59364	-0.352577	0	
0.6593	-10.4764	-4.30928	0	
0.6600	-9.55969	-4.30928	0	
0.6607	-8.02565	-3.09484	0	
0.6613	-10.4764	-4.01546	0	
0.6620	-8.02565	-4.01546	0	
0.6627	2.95583	-1.56701	0	
0.6633	12.7213	1.17526	0	
0.6640	18.2027	3.31031	0	
0.6647	23.7028	3.31031	0	
0.6653	26.1535	-0.352577	0	
0.6660	21.8694	-4.01546	0	
0.6667	15.4714	-5.83711	0	
0.6673	10.8879	-5.5433	0	
0.6680	8.43722	-5.22989	0	
0.6687	6.30453	-4.01546	0	
0.6693	4.17184	-1.88041	0	
0.6700	2.33848	-0.0391752	0	
0.6707	2.65651	0.568041	0	
0.6713	3.87252	-0.352577	0	
0.6720	2.03915	-1.88041	0	
0.6727	-3.46095	-2.48763	0	
0.6733	-8.02565	-2.17423	0	
0.6740	-8.64301	-1.88041	0	
0.6747	-7.427	-1.2732	0	
0.6753	-5.29431	-1.2732	0	
0.6760	-2.84359	-2.17423	0	
0.6767	-3.46095	-0.646391	0	
0.6773	-5.59364	0.568041	0	
0.6780	-4.0596	-1.88041	0	
0.6787	-4.37763	-4.01546	0	
0.6793	-8.34368	-3.09484	0	
0.6800	-9.26037	-3.70206	0	
0.6807	-6.51032	-4.01546	0	
0.6813	-6.51032	-0.0391752	0	
0.6820	-5.59364	3.01649	0	
0.6827	-2.84359	1.48866	0	
0.6833	-1.01022	1.48866	0	
0.6840	3.87252	5.15154	0	
0.6847	10.8879	5.44536	0	
0.6853	11.8046	2.38969	0	
0.6860	9.05458	1.48866	0	
0.6867	7.22122	0.881443	0	
0.6873	4.7892	-1.2732	0	
0.6880	4.47117	0.254639	0	
0.6887	5.38785	1.78247	0	
0.6893	4.47117	0.254639	0	
0.6900	4.17184	0.881443	0	
0.6907	4.7892	4.23092	0	
0.6913	2.65651	3.01649	0	
0.6920	-0.0935391	-1.2732	0	
0.6927	-0.411572	-5.22989	0	
0.6933	-2.22623	-7.36494	0	
0.6940	-4.0596	-5.83711	0	
0.6947	-4.97628	-4.01546	0	
0.6953	-8.34368	-5.5433	0	
0.6960	-12.3097	-7.36494	0	
0.6967	-12.9084	-7.67835	0	
0.6973	-12.0104	-7.36494	0	
0.6980	-11.3931	-6.75773	0	
0.6987	-13.2264	-7.97216	0	
0.6993	-18.1092	-8.57938	0	
0.7000	-23.2912	-6.75773	0	
0.7007	-22.9919	-8.28556	0	
0.7013	-20.5412	-11.0278	0	
0.7020	-20.8592	-10.7144	0	
0.7027	-21.1585	-9.49999	0	
0.7033	-18.4085	-8.28556	0	
0.7040	-17.4918	-6.44433	0	
0.7047	-16.5751	-5.22989	0	
0.7053	-12.0104	-4.01546	0	
0.7060	-5.29431	-2.17423	0	
0.7067	0.205786	-2.48763	0	
0.7073	7.53925	-1.88041	0	
0.7080	16.9867	-0.352577	0	
0.7087	22.1875	-1.2732	0	
0.7093	19.1194	-1.2732	0	
0.7100	16.6874	2.09587	0	
0.7107	19.1194	1.78247	0	
0.7113	20.0361	0.568041	0	
0.7120	19.1194	3.31031	0	
0.7127	20.9527	2.70309	0	
0.7133	19.7367	-2.17423	0	
0.7140	10.5886	-4.91649	0	
0.7147	3.55448	-6.75773	0	
0.7153	0.505111	-9.8134	0	
0.7160	-1.62758	-10.1072	0	
0.7167	1.42179	-7.67835	0	
0.7173	7.22122	-6.75773	0	
0.7180	6.92189	-5.83711	0	
0.7187	2.95583	-3.09484	0	
0.7193	1.73983	-0.646391	0	
0.7200	-1.01022	0.568041	0	
0.7207	-3.76027	0.881443	0	
0.7213	-3.14291	-0.352577	0	
0.7220	-1.9269	0.881443	0	
0.7227	-3.76027	4.83814	0	
0.7233	-3.76027	4.23092	0	
0.7240	-0.411572	1.48866	0	
0.7247	0.823144	3.01649	0	
0.7253	-0.0935391	3.31031	0	
0.7260	-1.01022	0.254639	0	
0.7267	-1.32825	-0.0391752	0	
0.7273	-1.01022	1.48866	0	
0.7280	0.823144	1.48866	0	
0.7287	1.12247	1.78247	0	
0.7293	0.205786	0.568041	0	
0.7300	1.12247	-3.09484	0	
0.7307	1.12247	-2.17423	0	
0.7313	-0.411572	3.62371	0	
0.7320	1.73983	6.05257	0	
0.7327	2.65651	5.15154	0	
0.7333	-2.22623	5.15154	0	
0.7340	-3.76027	5.15154	0	
0.7347	-1.32825	1.48866	0	
0.7353	-4.67695	-0.959793	0	
0.7360	-9.85902	0.254639	0	
0.7367	-12.0104	-0.0391752	0	
0.7373	-15.9765	-4.30928	0	
0.7380	-19.6245	-5.83711	0	
0.7387	-13.8251	-2.78144	0	
0.7393	-3.14291	-0.352577	0	
0.7400	2.65651	-0.352577	0	
0.7407	4.7892	-0.352577	0	
0.7413	6.62257	-0.352577	0	
0.7420	2.65651	-1.2732	0	
0.7427	-7.12768	-3.09484	0	
0.7433	-13.2264	-5.83711	0	
0.7440	-12.3097	-8.28556	0	
0.7447	-9.85902	-9.20618	0	
0.7453	-4.67695	-7.07113	0	
0.7460	2.95583	-4.01546	0	
0.7467	5.38785	-1.88041	0	
0.7473	4.7892	0.254639	0	
0.7480	6.30453	-0.959793	0	
0.7487	6.92189	-4.91649	0	
0.7493	6.62257	-5.22989	0	
0.7500	8.43722	-2.17423	0	
0.7507	9.05458	-2.17423	0	
0.7513	7.22122	-2.48763	0	
0.7520	6.92189	-1.56701	0	
0.7527	7.22122	-0.959793	0	
0.7533	5.70588	-0.646391	0	
0.7540	2.65651	-0.959793	0	
0.7547	0.823144	-1.88041	0	
0.7553	2.65651	-0.0391752	0	
0.7560	5.38785	2.09587	0	
0.7567	6.92189	-0.352577	0	
0.7573	6.92189	-2.48763	0	
0.7580	5.38785	-0.352577	0	
0.7587	4.17184	-1.2732	0	
0.7593	5.70588	-3.40825	0	
0.7600	5.38785	-2.48763	0	
0.7607	0.505111	-1.2732	0	
0.7613	-3.46095	-1.88041	0	
0.7620	-7.72633	-2.17423	0	
0.7627	-13.5257	-2.17423	0	
0.7633	-17.1925	-3.09484	0	
0.7640	-21.7759	-4.01546	0	
0.7647	-25.7419	-3.09484	0	
0.7653	-21.1585	-1.56701	0	
0.7660	-13.5257	-1.2732	0	
0.7667	-9.26037	-1.2732	0	
0.7673	-5.29431	-0.352577	0	
0.7680	-8.34368	-1.56701	0	
0.7687	-17.1925	-4.01546	0	
0.7693	-13.8251	-2.78144	0	
0.7700	0.823144	0.881443	0	
0.7707	9.35391	3.62371	0	
0.7713	10.2706	5.44536	0	
0.7720	9.05458	6.36598	0	
0.7727	4.47117	6.67938	0	
0.7733	1.12247	5.44536	0	
0.7740	3.87252	3.01649	0	
0.7747	12.422	2.38969	0	
0.7753	21.2708	4.23092	0	
0.7760	24.6195	4.83814	0	
0.7767	20.3541	4.54433	0	
0.7773	13.32	5.44536	0	
0.7780	8.1379	5.75876	0	
0.7787	5.70588	6.36598	0	
0.7793	2.95583	7.28659	0	
0.7800	0.505111	5.15154	0	
0.7807	0.823144	2.09587	0	
0.7813	0.505111	3.01649	0	
0.7820	-0.710897	4.54433	0	
0.7827	1.42179	4.54433	0	
0.7833	1.73983	5.15154	0	
0.7840	-1.62758	6.05257	0	
0.7847	-1.62758	4.23092	0	
0.7853	-0.0935391	1.78247	0	
0.7860	-0.411572	1.78247	0	
0.7867	-0.0935391	4.54433	0	
0.7873	-2.22623	5.15154	0	
0.7880	-7.427	2.38969	0	
0.7887	-7.72633	1.17526	0	
0.7893	-6.51032	1.17526	0	
0.7900	-8.64301	1.17526	0	
0.7907	-10.177	3.62371	0	
0.7913	-12.3097	6.97319	0	
0.7920	-17.7911	4.23092	0	
0.7927	-17.4918	-1.2732	0	
0.7933	-15.0598	-3.09484	0	
0.7940	-18.4085	-2.78144	0	
0.7947	-15.6584	-0.646391	0	
0.7953	-0.411572	3.62371	0	
0.7960	9.05458	6.97319	0	
0.7967	5.70588	6.05257	0	
0.7973	-0.411572	3.31031	0	
0.7980	-2.22623	1.17526	0	
0.7987	-2.84359	-0.352577	0	
0.7993	-5.59364	-2.17423	0	
0.8000	-7.12768	-3.70206	0	
0.8007	-4.67695	-3.70206	0	
0.8013	-4.97628	-4.01546	0	
0.8020	-9.55969	-6.15051	0	
0.8027	-9.26037	-5.5433	0	
0.8033	-5.59364	-2.17423	0	
0.8040	-5.59364	-2.17423	0	
0.8047	-1.9269	-3.09484	0	
0.8053	6.30453	-0.959793	0	
0.8060	6.30453	0.568041	0	
0.8067	2.95583	-1.2732	0	
0.8073	8.1379	-0.646391	0	
0.8080	13.32	1.48866	0	
0.8087	10.8879	2.38969	0	
0.8093	9.05458	2.38969	0	
0.8100	10.8879	3.01649	0	
0.8107	11.5053	3.01649	0	
0.8113	12.104	2.70309	0	
0.8120	13.0206	3.31031	0	
0.8127	11.8046	3.91752	0	
0.8133	10.5886	3.62371	0	
0.8140	9.97126	2.38969	0	
0.8147	8.1379	3.31031	0	
0.8153	5.38785	6.05257	0	
0.8160	3.55448	5.15154	0	
0.8167	1.42179	1.17526	0	
0.8173	-1.9269	0.568041	0	
0.8180	-4.67695	2.09587	0	
0.8187	-5.89296	2.38969	0	
0.8193	-5.89296	4.23092	0	
0.8200	-4.67695	4.83814	0	
0.8207	-3.46095	0.881443	0	
0.8213	-4.0596	-2.17423	0	
0.8220	-3.14291	-0.959793	0	
0.8227	1.12247	0.881443	0	
0.8233	3.55448	1.48866	0	
0.8240	2.65651	2.38969	0	
0.8247	4.17184	4.23092	0	
0.8253	8.1379	3.01649	0	
0.8260	9.05458	-0.352577	0	
0.8267	5.38785	-0.352577	0	
0.8273	0.823144	2.09587	0	
0.8280	-0.411572	-0.352577	0	
0.8287	2.33848	-3.70206	0	
0.8293	1.73983	-1.2732	0	
0.8300	-3.14291	-0.352577	0	
0.8307	-5.89296	-2.48763	0	
0.8313	-4.67695	-3.09484	0	
0.8320	-4.0596	-4.01546	0	
0.8327	-2.84359	-3.09484	0	
0.8333	1.73983	0.881443	0	
0.8340	6.30453	1.17526	0	
0.8347	8.75526	0.254639	0	
0.8353	9.67194	2.38969	0	
0.8360	8.1379	0.568041	0	
0.8367	1.12247	-4.91649	0	
0.8373	-6.51032	-4.91649	0	
0.8380	-11.0937	-3.09484	0	
0.8387	-14.4424	-4.30928	0	
0.8393	-15.6584	-4.62268	0	
0.8400	-11.3931	-2.78144	0	
0.8407	-3.76027	-1.2732	0	
0.8413	2.65651	0.254639	0	
0.8420	7.22122	0.568041	0	
0.8427	7.22122	-0.352577	0	
0.8433	1.73983	-0.646391	0	
0.8440	-1.62758	-0.352577	0	
0.8447	2.95583	0.254639	0	
0.8453	7.22122	2.38969	0	
0.8460	6.62257	5.15154	0	
0.8467	8.43722	6.36598	0	
0.8473	12.7213	6.97319	0	
0.8480	10.8879	6.67938	0	
0.8487	5.70588	5.15154	0	
0.8493	2.65651	3.01649	0	
0.8500	2.65651	1.48866	0	
0.8507	3.55448	2.09587	0	
0.8513	3.25516	1.78247	0	
0.8520	-1.01022	-0.352577	0	
0.8527	-4.0596	-3.09484	0	
0.8533	-4.67695	-3.09484	0	
0.8540	-4.97628	-1.2732	0	
0.8547	-5.29431	-2.17423	0	
0.8553	-7.427	-3.40825	0	
0.8560	-11.3931	-1.88041	0	
0.8567	-10.177	-0.352577	0	
0.8573	-6.21099	-0.646391	0	
0.8580	-10.177	-1.56701	0	
0.8587	-13.8251	-3.70206	0	
0.8593	-8.34368	-5.22989	0	
0.8600	-4.97628	-1.88041	0	
0.8607	-7.427	1.48866	0	
0.8613	-5.89296	-0.646391	0	
0.8620	-5.59364	-3.70206	0	
0.8627	-9.26037	-2.78144	0	
0.8633	-8.34368	-0.352577	0	
0.8640	-6.80964	0.254639	0	
0.8647	-9.85902	-1.2732	0	
0.8653	-7.427	-3.09484	0	
0.8660	0.823144	-1.56701	0	
0.8667	3.55448	1.48866	0	
0.8673	2.65651	3.31031	0	
0.8680	4.17184	5.15154	0	
0.8687	4.47117	4.54433	0	
0.8693	4.7892	2.09587	0	
0.8700	6.62257	2.38969	0	
0.8707	7.22122	5.44536	0	
0.8713	6.30453	6.05257	0	
0.8720	6.92189	3.91752	0	
0.8727	5.38785	2.38969	0	
0.8733	1.12247	1.48866	0	
0.8740	-1.01022	-0.352577	0	
0.8747	-1.9269	-1.2732	0	
0.8753	-6.51032	-0.646391	0	
0.8760	-13.8251	-1.2732	0	
0.8767	-18.4085	-4.62268	0	
0.8773	-15.3591	-6.15051	0	
0.8780	-7.427	-3.40825	0	
0.8787	-4.0596	-1.56701	0	
0.8793	-8.34368	-3.09484	0	
0.8800	-9.85902	-3.70206	0	
0.8807	-4.67695	-3.40825	0	
0.8813	-3.46095	-5.83711	0	
0.8820	-6.51032	-7.07113	0	
0.8827	-2.22623	-5.5433	0	
0.8833	7.22122	-4.62268	0	
0.8840	11.8046	-4.01546	0	
0.8847	14.2366	-2.48763	0	
0.8853	18.2027	-2.17423	0	
0.8860	17.9034	-2.17423	0	
0.8867	13.0206	-1.2732	0	
0.8873	9.97126	-0.352577	0	
0.8880	9.05458	0.568041	0	
0.8887	8.1379	2.38969	0	
0.8893	10.2706	4.23092	0	
0.8900	14.2366	6.05257	0	
0.8907	15.1533	6.36598	0	
0.8913	13.32	5.44536	0	
0.8920	9.05458	6.05257	0	
0.8927	0.823144	6.97319	0	
0.8933	-6.21099	6.36598	0	
0.8940	-8.02565	6.36598	0	
0.8947	-8.94233	5.44536	0	
0.8953	-11.3931	4.23092	0	
0.8960	-10.177	4.23092	0	
0.8967	-6.21099	4.54433	0	
0.8973	-6.51032	5.75876	0	
0.8980	-9.26037	8.81443	0	
0.8987	-8.34368	8.18762	0	
0.8993	-4.67695	5.44536	0	
0.9000	-0.0935391	5.44536	0	
0.9007	0.505111	4.54433	0	
0.9013	-3.76027	-0.352577	0	
0.9020	-1.9269	-3.09484	0	
0.9027	6.00521	-3.09484	0	
0.9033	6.00521	-4.01546	0	
0.9040	1.42179	-6.44433	0	
0.9047	2.65651	-9.49999	0	
0.9053	2.33848	-10.4206	0	
0.9060	-1.32825	-7.97216	0	
0.9067	0.505111	-6.75773	0	
0.9073	4.17184	-6.75773	0	
0.9080	3.55448	-2.78144	0	
0.9087	4.47117	-0.352577	0	
0.9093	6.92189	-1.56701	0	
0.9100	5.38785	-0.959793	0	
0.9107	2.95583	1.78247	0	
0.9113	1.73983	3.01649	0	
0.9120	1.12247	3.01649	0	
0.9127	2.33848	2.09587	0	
0.9133	4.17184	3.31031	0	
0.9140	3.25516	7.28659	0	
0.9147	-1.62758	7.58041	0	
0.9153	-8.64301	3.31031	0	
0.9160	-14.1431	3.91752	0	
0.9167	-15.0598	6.67938	0	
0.9173	-13.2264	4.23092	0	
0.9180	-11.6924	2.38969	0	
0.9187	-10.4764	4.54433	0	
0.9193	-8.34368	6.67938	0	
0.9200	-8.94233	6.36598	0	
0.9207	-12.9084	4.23092	0	
0.9213	-13.8251	1.78247	0	
0.9220	-12.9084	0.881443	0	
0.9227	-14.1431	0.568041	0	
0.9233	-10.7757	-0.0391752	0	
0.9240	3.25516	2.38969	0	
0.9247	15.7707	6.97319	0	
0.9253	16.9867	8.50103	0	
0.9260	12.7213	6.97319	0	
0.9267	9.05458	5.15154	0	
0.9273	5.08852	4.54433	0	
0.9280	4.47117	5.15154	0	
0.9287	8.1379	6.36598	0	
0.9293	9.97126	6.67938	0	
0.9300	9.05458	7.28659	0	
0.9307	9.35391	7.28659	0	
0.9313	9.97126	6.97319	0	
0.9320	8.43722	7.58041	0	
0.9327	6.30453	7.58041	0	
0.9333	5.38785	6.36598	0	
0.9340	5.38785	7.89381	0	
0.9347	4.17184	9.42164	0	
0.9353	0.505111	6.36598	0	
0.9360	-1.32825	5.44536	0	
0.9367	-0.710897	6.97319	0	
0.9373	-0.710897	5.15154	0	
0.9380	0.205786	3.31031	0	
0.9387	1.42179	4.23092	0	
0.9393	-3.46095	4.54433	0	
0.9400	-8.34368	6.05257	0	
0.9407	-4.0596	7.89381	0	
0.9413	-1.9269	4.83814	0	
0.9420	-8.02565	3.31031	0	
0.9427	-8.64301	7.28659	0	
0.9433	-2.84359	8.81443	0	
0.9440	-2.84359	7.58041	0	
0.9447	-4.0596	7.89381	0	
0.9453	-1.9269	6.67938	0	
0.9460	-3.76027	4.54433	0	
0.9467	-8.34368	3.62371	0	
0.9473	-7.427	2.09587	0	
0.9480	-4.97628	1.48866	0	
0.9487	-4.97628	2.38969	0	
0.9493	-4.0596	1.48866	0	
0.9500	-4.37763	1.48866	0	
0.9507	-5.29431	1.78247	0	
0.9513	-2.84359	-1.88041	0	
0.9520	0.505111	-3.70206	0	
0.9527	1.73983	-0.0391752	0	
0.9533	1.42179	0.568041	0	
0.9540	-0.0935391	-1.2732	0	
0.9547	3.87252	-0.0391752	0	
0.9553	15.4714	-0.646391	0	
0.9560	20.3541	-3.40825	0	
0.9567	11.8046	-3.09484	0	
0.9573	2.03915	-3.09484	0	
0.9580	-3.14291	-5.22989	0	
0.9587	-8.02565	-4.01546	0	
0.9593	-13.8251	-2.17423	0	
0.9600	-18.4085	-4.91649	0	
0.9607	-23.2912	-7.67835	0	
0.9613	-28.7913	-7.97216	0	
0.9620	-30.3067	-8.28556	0	
0.9627	-26.3406	-6.75773	0	
0.9633	-21.1585	-5.83711	0	
0.9640	-15.0598	-7.36494	0	
0.9647	-6.21099	-8.89278	0	
0.9653	2.65651	-7.07113	0	
0.9660	9.05458	-4.01546	0	
0.9667	14.2366	-3.70206	0	
0.9673	14.5547	-5.22989	0	
0.9680	14.5547	-5.5433	0	
0.9687	20.0361	-3.70206	0	
0.9693	24.3202	-3.70206	0	
0.9700	20.9527	-4.62268	0	
0.9707	19.1194	-3.09484	0	
0.9713	21.5701	-3.09484	0	
0.9720	22.7861	-6.15051	0	
0.9727	18.8201	-6.15051	0	
0.9733	11.8046	-4.01546	0	
0.9740	9.05458	-4.62268	0	
0.9747	7.83857	-4.30928	0	
0.9753	3.55448	-2.17423	0	
0.9760	-1.01022	-4.01546	0	
0.9767	-1.32825	-6.75773	0	
0.9773	-1.9269	-3.70206	0	
0.9780	-4.67695	-3.70206	0	
0.9787	-6.21099	-9.49999	0	
0.9793	-5.59364	-10.7144	0	
0.9800	-4.97628	-8.28556	0	
0.9807	-4.97628	-11.3412	0	
0.9813	-5.29431	-13.1629	0	
0.9820	-1.9269	-8.57938	0	
0.9827	1.73983	-5.5433	0	
0.9833	-0.0935391	-7.67835	0	
0.9840	-1.9269	-8.57938	0	
0.9847	0.823144	-7.67835	0	
0.9853	1.12247	-7.97216	0	
0.9860	0.505111	-9.20618	0	
0.9867	2.33848	-8.28556	0	
0.9873	2.65651	-4.91649	0	
0.9880	1.73983	-2.17423	0	
0.9887	3.25516	-3.09484	0	
0.9893	2.03915	-4.91649	0	
0.9900	-1.9269	-4.91649	0	
0.9907	-4.67695	-5.83711	0	
0.9913	-6.80964	-5.22989	0	
0.9920	-9.55969	-2.17423	0	
0.9927	-9.55969	-1.88041	0	
0.9933	-9.55969	-3.70206	0	
0.9940	-12.6091	-4.91649	0	
0.9947	-15.6584	-7.67835	0	
0.9953	-16.8932	-10.4206	0	
0.9960	-15.0598	-9.49999	0	
0.9967	-9.55969	-6.15051	0	
0.9973	-4.67695	-2.17423	0	
0.9980	-2.84359	-0.352577	0	
0.9987	-3.76027	-3.09484	0	
0.9993	-4.67695	-5.5433	0	
1.0000	-1.32825	-3.09484	0	
1.0007	4.47117	-3.09484	0	
1.0013	3.87252	-5.5433	0	
1.0020	-0.710897	-4.01546	0	
1.0027	-1.62758	-1.88041	0	
1.0033	-2.54426	-3.09484	0	
1.0040	-6.51032	-4.30928	0	
1.0047	-8.02565	-5.22989	0	
1.0053	-6.51032	-5.22989	0	
1.0060	-5.29431	-4.91649	0	
1.0067	-4.0596	-4.91649	0	
1.0073	-1.9269	-2.78144	0	
1.0080	-0.710897	0.568041	0	
1.0087	-3.46095	-0.646391	0	
1.0093	-9.85902	-3.70206	0	
1.0100	-11.6924	-1.2732	0	
1.0107	-10.4764	-0.0391752	0	
1.0113	-14.7418	-3.09484	0	
1.0120	-15.6584	-3.70206	0	
1.0127	-5.89296	0.254639	0	
1.0133	3.55448	3.31031	0	
1.0140	6.00521	2.70309	0	
1.0147	10.8879	2.09587	0	
1.0153	23.0854	5.15154	0	
1.0160	34.0856	7.89381	0	
1.0167	34.6843	5.75876	0	
1.0173	24.6195	3.01649	0	
1.0180	13.9373	2.70309	0	
1.0187	10.5886	1.17526	0	
1.0193	10.2706	-2.17423	0	
1.0200	9.35391	-1.88041	0	
1.0207	6.30453	0.881443	0	
1.0213	-0.0935391	0.568041	0	
1.0220	-4.67695	-1.2732	0	
1.0227	-8.34368	-1.88041	0	
1.0233	-11.0937	-1.2732	0	
1.0240	-6.51032	-0.0391752	0	
1.0247	1.12247	2.38969	0	
1.0253	3.55448	5.15154	0	
1.0260	8.1379	5.44536	0	
1.0267	15.1533	3.91752	0	
1.0273	17.6041	2.09587	0	
1.0280	18.2027	1.78247	0	
1.0287	17.9034	1.78247	0	
1.0293	11.8046	3.31031	0	
1.0300	6.62257	5.44536	0	
1.0307	5.38785	4.83814	0	
1.0313	1.42179	1.48866	0	
1.0320	-3.76027	0.568041	0	
1.0327	-5.89296	-0.959793	0	
1.0333	-5.59364	-4.30928	0	
1.0340	-3.76027	-4.01546	0	
1.0347	-1.62758	-1.56701	0	
1.0353	-1.32825	-2.17423	0	
1.0360	-3.46095	-2.17423	0	
1.0367	-5.59364	-0.352577	0	
1.0373	-4.37763	-0.959793	0	
1.0380	-1.32825	-2.17423	0	
1.0387	-3.46095	-2.48763	0	
1.0393	-4.67695	-2.78144	0	
1.0400	-0.0935391	-1.2732	0	
1.0407	0.205786	0.568041	0	
1.0413	-4.97628	-1.2732	0	
1.0420	-6.80964	-4.62268	0	
1.0427	-7.427	-4.62268	0	
1.0433	-8.34368	-3.40825	0	
1.0440	-7.72633	-4.91649	0	
1.0447	-9.26037	-6.75773	0	
1.0453	-9.26037	-4.30928	0	
1.0460	-4.67695	-2.17423	0	
1.0467	-1.62758	-2.78144	0	
1.0473	-1.01022	-2.17423	0	
1.0480	0.823144	0.568041	0	
1.0487	0.505111	-0.0391752	0	
1.0493	-0.710897	-2.17423	0	
1.0500	2.03915	-0.646391	0	
1.0507	1.12247	-0.0391752	0	
1.0513	-3.14291	-4.01546	0	
1.0520	-3.76027	-5.22989	0	
1.0527	-3.76027	-4.62268	0	
1.0533	-5.89296	-7.36494	0	
1.0540	-7.427	-8.28556	0	
1.0547	-8.64301	-5.83711	0	
1.0553	-9.26037	-5.83711	0	
1.0560	-5.59364	-5.5433	0	
1.0567	-3.14291	-3.09484	0	
1.0573	-7.427	-4.01546	0	
1.0580	-10.177	-6.75773	0	
1.0587	-8.34368	-4.91649	0	
1.0593	-11.0937	-4.91649	0	
1.0600	-17.7911	-8.57938	0	
1.0607	-13.2264	-7.67835	0	
1.0613	0.505111	-2.78144	0	
1.0620	5.70588	-2.17423	0	
1.0627	3.25516	-3.09484	0	
1.0633	4.7892	-0.352577	0	
1.0640	7.53925	1.78247	0	
1.0647	6.30453	1.78247	0	
1.0653	6.30453	2.38969	0	
1.0660	8.1379	5.15154	0	
1.0667	7.83857	8.18762	0	
1.0673	5.08852	7.89381	0	
1.0680	4.47117	4.23092	0	
1.0687	6.00521	3.01649	0	
1.0693	6.30453	5.44536	0	
1.0700	7.22122	6.67938	0	
1.0707	9.97126	5.75876	0	
1.0713	12.422	5.75876	0	
1.0720	13.638	4.83814	0	
1.0727	14.5547	2.70309	0	
1.0733	14.854	1.78247	0	
1.0740	14.2366	2.38969	0	
1.0747	11.8046	2.09587	0	
1.0753	6.92189	-0.646391	0	
1.0760	0.823144	-5.22989	0	
1.0767	-2.54426	-7.67835	0	
1.0773	-4.67695	-7.97216	0	
1.0780	-7.72633	-10.4206	0	
1.0787	-11.3931	-12.8691	0	
1.0793	-12.0104	-11.3412	0	
1.0800	-10.7757	-9.20618	0	
1.0807	-10.7757	-9.49999	0	
1.0813	-9.85902	-9.49999	0	
1.0820	-7.72633	-7.97216	0	
1.0827	-10.4764	-6.75773	0	
1.0833	-14.7418	-7.07113	0	
1.0840	-12.0104	-7.67835	0	
1.0847	-10.177	-5.22989	0	
1.0853	-12.0104	-3.09484	0	
1.0860	-8.94233	-2.78144	0	
1.0867	-0.0935391	-1.56701	0	
1.0873	5.08852	0.568041	0	
1.0880	4.7892	0.254639	0	
1.0887	-0.0935391	-1.2732	0	
1.0893	-6.21099	0.568041	0	
1.0900	-5.59364	0.881443	0	
1.0907	-1.01022	-1.88041	0	
1.0913	-1.01022	-1.2732	0	
1.0920	-1.01022	1.48866	0	
1.0927	5.08852	0.568041	0	
1.0933	7.53925	-0.646391	0	
1.0940	2.03915	-0.0391752	0	
1.0947	-1.32825	2.38969	0	
1.0953	0.823144	4.54433	0	
1.0960	1.42179	3.91752	0	
1.0967	-1.32825	0.881443	0	
1.0973	-3.14291	1.17526	0	
1.0980	-1.62758	3.01649	0	
1.0987	0.205786	1.48866	0	
1.0993	-0.0935391	-0.352577	0	
1.1000	-2.54426	-0.959793	0	
1.1007	-4.67695	-1.56701	0	
1.1013	-5.59364	0.568041	0	
1.1020	-3.46095	5.15154	0	
1.1027	-0.411572	5.15154	0	
1.1033	-1.01022	0.881443	0	
1.1040	-3.46095	-1.88041	0	
1.1047	-1.9269	-2.17423	0	
1.1053	-1.9269	-3.09484	0	
1.1060	-7.427	-4.30928	0	
1.1067	-4.97628	-2.17423	0	
1.1073	7.83857	1.48866	0	
1.1080	15.1533	2.09587	0	
1.1087	11.5053	1.78247	0	
1.1093	9.05458	1.48866	0	
1.1100	10.5886	1.17526	0	
1.1107	9.05458	2.70309	0	
1.1113	6.30453	5.15154	0	
1.1120	4.47117	6.36598	0	
1.1127	-0.0935391	6.05257	0	
1.1133	-2.84359	2.70309	0	
1.1140	-0.710897	0.568041	0	
1.1147	-2.54426	3.31031	0	
1.1153	-5.59364	5.15154	0	
1.1160	2.65651	1.78247	0	
1.1167	13.32	0.568041	0	
1.1173	9.35391	1.48866	0	
1.1180	-1.01022	-0.352577	0	
1.1187	-5.29431	-2.17423	0	
1.1193	-8.34368	-1.56701	0	
1.1200	-11.0937	-3.40825	0	
1.1207	-5.29431	-4.62268	0	
1.1213	6.30453	-0.646391	0	
1.1220	9.97126	2.70309	0	
1.1227	2.65651	3.31031	0	
1.1233	-4.97628	2.09587	0	
1.1240	-4.37763	-0.352577	0	
1.1247	2.33848	-1.2732	0	
1.1253	9.05458	1.48866	0	
1.1260	13.638	3.01649	0	
1.1267	14.854	1.17526	0	
1.1273	15.1533	0.568041	0	
1.1280	12.7213	1.48866	0	
1.1287	6.00521	3.01649	0	
1.1293	-0.710897	4.23092	0	
1.1300	-2.54426	3.01649	0	
1.1307	-2.22623	-0.0391752	0	
1.1313	-1.01022	-0.352577	0	
1.1320	2.65651	-0.352577	0	
1.1327	3.25516	-0.646391	0	
1.1333	0.505111	0.254639	0	
1.1340	-0.0935391	1.17526	0	
1.1347	2.65651	0.568041	0	
1.1353	6.30453	1.78247	0	
1.1360	7.22122	3.91752	0	
1.1367	4.17184	3.01649	0	
1.1373	0.505111	1.17526	0	
1.1380	-1.9269	-0.352577	0	
1.1387	-7.12768	-3.09484	0	
1.1393	-12.3097	-3.70206	0	
1.1400	-12.9084	-2.48763	0	
1.1407	-11.3931	-3.09484	0	
1.1413	-10.177	-4.91649	0	
1.1420	-7.72633	-4.91649	0	
1.1427	-7.72633	-2.78144	0	
1.1433	-10.7757	-1.88041	0	
1.1440	-12.9084	-3.09484	0	
1.1447	-13.8251	-3.70206	0	
1.1453	-14.7418	-1.56701	0	
1.1460	-14.7418	-0.352577	0	
1.1467	-14.1431	-0.646391	0	
1.1473	-14.4424	-0.352577	0	
1.1480	-12.9084	1.17526	0	
1.1487	-9.26037	1.78247	0	
1.1493	-6.51032	0.881443	0	
1.1500	-4.0596	0.254639	0	
1.1507	-0.411572	0.568041	0	
1.1513	2.65651	1.48866	0	
1.1520	3.55448	3.91752	0	
1.1527	1.73983	6.97319	0	
1.1533	-0.0935391	6.97319	0	
1.1540	1.42179	3.62371	0	
1.1547	6.30453	2.09587	0	
1.1553	12.104	1.48866	0	
1.1560	13.32	-0.352577	0	
1.1567	6.30453	-0.959793	0	
1.1573	-1.9269	-0.0391752	0	
1.1580	-3.76027	-2.17423	0	
1.1587	-1.62758	-4.01546	0	
1.1593	-0.0935391	-1.56701	0	
1.1600	-1.9269	-1.2732	0	
1.1607	-9.26037	-4.01546	0	
1.1613	-16.5751	-2.17423	0	
1.1620	-17.4918	0.568041	0	
1.1627	-17.1925	-2.78144	0	
1.1633	-21.1585	-4.91649	0	
1.1640	-20.2419	-2.17423	0	
1.1647	-6.51032	-1.56701	0	
1.1653	9.67194	-2.78144	0	
1.1660	17.9034	-0.0391752	0	
1.1667	17.6041	1.48866	0	
1.1673	14.5547	-0.646391	0	
1.1680	12.104	-0.352577	0	
1.1687	9.97126	1.48866	0	
1.1693	10.8879	1.17526	0	
1.1700	15.4714	2.38969	0	
1.1707	16.6874	5.15154	0	
1.1713	13.638	3.91752	0	
1.1720	11.5053	0.568041	0	
1.1727	8.75526	0.881443	0	
1.1733	5.70588	3.62371	0	
1.1740	7.83857	3.62371	0	
1.1747	12.104	1.48866	0	
1.1753	13.638	-0.0391752	0	
1.1760	14.2366	-0.352577	0	
1.1767	13.32	-0.0391752	0	
1.1773	8.75526	1.48866	0	
1.1780	6.62257	3.31031	0	
1.1787	8.1379	3.91752	0	
1.1793	5.38785	1.48866	0	
1.1800	-4.0596	-3.40825	0	
1.1807	-12.0104	-7.36494	0	
1.1813	-15.0598	-7.67835	0	
1.1820	-14.1431	-7.36494	0	
1.1827	-12.9084	-7.67835	0	
1.1833	-12.6091	-7.07113	0	
1.1840	-10.4764	-6.75773	0	
1.1847	-8.34368	-7.07113	0	
1.1853	-9.26037	-5.83711	0	
1.1860	-12.0104	-2.78144	0	
1.1867	-14.1431	-0.352577	0	
1.1873	-14.7418	-0.959793	0	
1.1880	-12.9084	-3.70206	0	
1.1887	-8.02565	-5.83711	0	
1.1893	-0.0935391	-5.83711	0	
1.1900	5.70588	-3.70206	0	
1.1907	6.30453	-0.959793	0	
1.1913	4.47117	2.38969	0	
1.1920	6.00521	4.54433	0	
1.1927	11.1873	3.91752	0	
1.1933	16.6874	0.881443	0	
1.1940	18.2027	2.09587	0	
1.1947	16.388	5.44536	0	
1.1953	14.2366	4.23092	0	
1.1960	13.0206	3.31031	0	
1.1967	16.07	6.67938	0	
1.1973	19.4374	7.89381	0	
1.1980	16.388	5.75876	0	
1.1987	11.8046	4.23092	0	
1.1993	9.05458	4.23092	0	
1.2000	3.87252	4.23092	0	
1.2007	2.03915	5.15154	0	
1.2013	9.67194	5.75876	0	
1.2020	12.422	6.05257	0	
1.2027	3.25516	3.31031	0	
1.2033	-8.34368	-2.17423	0	
1.2040	-17.1925	-6.75773	0	
1.2047	-20.8592	-9.8134	0	
1.2053	-17.4918	-12.2423	0	
1.2060	-13.8251	-11.3412	0	
1.2067	-13.8251	-6.75773	0	
1.2073	-14.7418	-4.01546	0	
1.2080	-14.7418	-5.5433	0	
1.2087	-11.6924	-5.5433	0	
1.2093	-8.34368	-1.88041	0	
1.2100	-11.0937	-1.2732	0	
1.2107	-14.4424	-4.91649	0	
1.2113	-11.6924	-5.22989	0	
1.2120	-8.94233	-1.88041	0	
1.2127	-6.21099	-3.09484	0	
1.2133	0.823144	-4.91649	0	
1.2140	3.55448	-2.17423	0	
1.2147	1.42179	-0.352577	0	
1.2153	2.33848	-1.2732	0	
1.2160	3.55448	-0.0391752	0	
1.2167	0.823144	1.17526	0	
1.2173	-4.0596	0.254639	0	
1.2180	-8.34368	-1.2732	0	
1.2187	-11.3931	-3.40825	0	
1.2193	-13.5257	-4.01546	0	
1.2200	-14.4424	-0.959793	0	
1.2207	-12.9084	0.568041	0	
1.2213	-9.85902	-0.352577	0	
1.2220	-7.12768	0.881443	0	
1.2227	-4.97628	3.62371	0	
1.2233	-3.76027	4.83814	0	
1.2240	-5.29431	3.62371	0	
1.2247	-6.21099	2.38969	0	
1.2253	-3.76027	2.70309	0	
1.2260	-1.9269	3.31031	0	
1.2267	-0.0935391	2.38969	0	
1.2273	1.12247	1.48866	0	
1.2280	-1.62758	0.881443	0	
1.2287	-7.12768	1.48866	0	
1.2293	-8.02565	1.17526	0	
1.2300	-1.9269	0.254639	0	
1.2307	6.92189	1.48866	0	
1.2313	11.8046	3.31031	0	
1.2320	12.7213	3.01649	0	
1.2327	11.8046	2.38969	0	
1.2333	9.97126	4.23092	0	
1.2340	5.38785	4.23092	0	
1.2347	2.03915	2.09587	0	
1.2353	6.62257	1.48866	0	
1.2360	15.4714	2.09587	0	
1.2367	18.5207	2.38969	0	
1.2373	12.104	1.78247	0	
1.2380	3.25516	-0.352577	0	
1.2387	-3.46095	-1.56701	0	
1.2393	-8.34368	-1.56701	0	
1.2400	-13.8251	-1.88041	0	
1.2407	-19.3252	-1.2732	0	
1.2413	-22.0752	-0.959793	0	
1.2420	-19.3252	-2.78144	0	
1.2427	-15.3591	-2.78144	0	
1.2433	-10.177	0.568041	0	
1.2440	-1.62758	1.48866	0	
1.2447	2.65651	-1.2732	0	
1.2453	-2.22623	-1.88041	0	
1.2460	-3.76027	-0.352577	0	
1.2467	0.823144	0.254639	0	
1.2473	0.823144	0.254639	0	
1.2480	-1.01022	0.568041	0	
1.2487	4.7892	-0.646391	0	
1.2493	11.8046	-2.17423	0	
1.2500	16.388	-0.959793	0	
1.2507	19.4374	1.48866	0	
1.2513	19.1194	1.78247	0	
1.2520	15.1533	2.38969	0	
1.2527	13.638	3.91752	0	
1.2533	14.854	4.83814	0	
1.2540	13.638	4.23092	0	
1.2547	6.92189	0.568041	0	
1.2553	0.205786	-4.62268	0	
1.2560	-1.32825	-3.09484	0	
1.2567	-3.76027	1.48866	0	
1.2573	-7.12768	0.254639	0	
1.2580	-3.76027	-2.17423	0	
1.2587	1.42179	0.254639	0	
1.2593	0.823144	1.17526	0	
1.2600	1.73983	-1.56701	0	
1.2607	0.823144	-2.17423	0	
1.2613	-6.51032	-1.56701	0	
1.2620	-10.177	-3.09484	0	
1.2627	-6.21099	-4.91649	0	
1.2633	-4.67695	-4.30928	0	
1.2640	-4.97628	-2.17423	0	
1.2647	-3.76027	-2.17423	0	
1.2653	-5.59364	-2.78144	0	
1.2660	-9.26037	-0.352577	0	
1.2667	-8.64301	1.48866	0	
1.2673	-5.59364	-0.0391752	0	
1.2680	-1.9269	0.568041	0	
1.2687	0.823144	2.09587	0	
1.2693	-1.01022	-0.646391	0	
1.2700	-7.12768	-2.17423	0	
1.2707	-11.6924	-1.2732	0	
1.2713	-10.4764	-2.48763	0	
1.2720	-4.37763	-2.78144	0	
1.2727	0.823144	0.568041	0	
1.2733	-0.0935391	-0.959793	0	
1.2740	-2.84359	-3.70206	0	
1.2747	-3.76027	1.48866	0	
1.2753	-2.84359	4.23092	0	
1.2760	-1.62758	1.17526	0	
1.2767	-1.9269	1.48866	0	
1.2773	-3.76027	3.01649	0	
1.2780	-4.67695	-0.646391	0	
1.2787	-5.59364	-2.78144	0	
1.2793	-4.0596	-3.09484	0	
1.2800	1.42179	-5.5433	0	
1.2807	6.30453	-4.62268	0	
1.2813	6.30453	-0.352577	0	
1.2820	5.70588	-1.2732	0	
1.2827	6.62257	-4.30928	0	
1.2833	6.30453	-3.09484	0	
1.2840	3.87252	0.568041	0	
1.2847	2.65651	0.254639	0	
1.2853	6.62257	-3.40825	0	
1.2860	13.638	-4.01546	0	
1.2867	18.2027	-1.2732	0	
1.2873	17.6041	-0.352577	0	
1.2880	13.638	-2.17423	0	
1.2887	8.75526	-3.09484	0	
1.2893	6.00521	-2.78144	0	
1.2900	5.70588	-1.2732	0	
1.2907	4.47117	-0.352577	0	
1.2913	3.25516	-2.17423	0	
1.2920	4.7892	-2.78144	0	
1.2927	9.35391	0.568041	0	
1.2933	12.104	2.09587	0	
1.2940	9.05458	1.78247	0	
1.2947	2.65651	3.31031	0	
1.2953	-0.0935391	3.91752	0	
1.2960	-3.14291	2.38969	0	
1.2967	-7.427	3.01649	0	
1.2973	-9.26037	0.881443	0	
1.2980	-10.177	-4.30928	0	
1.2987	-12.0104	-6.44433	0	
1.2993	-12.0104	-6.44433	0	
1.3000	-14.1431	-8.89278	0	
1.3007	-19.0258	-9.20618	0	
1.3013	-15.3591	-5.22989	0	
1.3020	-7.427	-2.78144	0	
1.3027	-7.72633	-1.2732	0	
1.3033	-6.51032	0.881443	0	
1.3040	6.00521	1.48866	0	
1.3047	13.638	2.38969	0	
1.3053	9.05458	2.70309	0	
1.3060	6.30453	-0.352577	0	
1.3067	9.97126	-2.78144	0	
1.3073	13.638	-0.959793	0	
1.3080	16.388	2.38969	0	
1.3087	16.388	3.01649	0	
1.3093	6.92189	-0.352577	0	
1.3100	-4.37763	-4.91649	0	
1.3107	-5.89296	-6.44433	0	
1.3113	-5.29431	-5.5433	0	
1.3120	-8.94233	-6.15051	0	
1.3127	-8.02565	-5.22989	0	
1.3133	-2.54426	-2.17423	0	
1.3140	-1.62758	-2.17423	0	
1.3147	-3.14291	-2.78144	0	
1.3153	-5.59364	-0.352577	0	
1.3160	-9.26037	0.568041	0	
1.3167	-9.85902	-0.959793	0	
1.3173	-6.80964	-0.352577	0	
1.3180	-9.26037	0.881443	0	
1.3187	-17.1925	0.568041	0	
1.3193	-22.9919	-1.2732	0	
1.3200	-24.8253	-3.09484	0	
1.3207	-23.9086	-2.17423	0	
1.3213	-20.8592	-0.352577	0	
1.3220	-20.5412	-0.352577	0	
1.3227	-20.5412	-1.2732	0	
1.3233	-12.9084	-0.0391752	0	
1.3240	-0.710897	-0.959793	0	
1.3247	9.05458	-1.2732	0	
1.3253	16.388	4.23092	0	
1.3260	20.0361	8.50103	0	
1.3267	16.388	6.97319	0	
1.3273	14.5547	6.05257	0	
1.3280	18.2027	8.18762	0	
1.3287	21.2708	7.89381	0	
1.3293	21.2708	5.75876	0	
1.3300	23.0854	6.05257	0	
1.3307	26.1535	6.97319	0	
1.3313	27.3695	7.28659	0	
1.3320	25.5362	7.89381	0	
1.3327	21.8694	7.28659	0	
1.3333	20.6534	7.28659	0	
1.3340	21.8694	7.58041	0	
1.3347	17.6041	5.75876	0	
1.3353	9.67194	3.62371	0	
1.3360	5.38785	3.01649	0	
1.3367	2.65651	1.78247	0	
1.3373	-1.9269	1.78247	0	
1.3380	-5.59364	1.48866	0	
1.3387	-8.34368	-2.17423	0	
1.3393	-11.6924	-4.91649	0	
1.3400	-13.8251	-2.17423	0	
1.3407	-14.7418	-0.959793	0	
1.3413	-13.2264	-3.09484	0	
1.3420	-12.9084	-3.70206	0	
1.3427	-18.4085	-3.40825	0	
1.3433	-20.5412	-5.83711	0	
1.3440	-16.5751	-9.49999	0	
1.3447	-17.4918	-12.5557	0	
1.3453	-18.1092	-14.0835	0	
1.3460	-10.177	-14.0835	0	
1.3467	-4.67695	-13.1629	0	
1.3473	-4.67695	-12.2423	0	
1.3480	-1.62758	-9.49999	0	
1.3487	-2.22623	-5.83711	0	
1.3493	-5.59364	-3.40825	0	
1.3500	-1.32825	-2.78144	0	
1.3507	2.95583	-0.0391752	0	
1.3513	1.73983	2.70309	0	
1.3520	1.73983	0.568041	0	
1.3527	0.205786	-1.2732	0	
1.3533	-4.37763	0.568041	0	
1.3540	-3.76027	0.881443	0	
1.3547	-2.84359	-1.2732	0	
1.3553	-4.97628	-0.646391	0	
1.3560	-4.67695	1.48866	0	
1.3567	-3.46095	-0.352577	0	
1.3573	-6.80964	-3.09484	0	
1.3580	-10.4764	-3.40825	0	
1.3587	-10.4764	-2.17423	0	
1.3593	-11.6924	-1.2732	0	
1.3600	-12.0104	-0.352577	0	
1.3607	-11.0937	0.568041	0	
1.3613	-13.2264	-1.2732	0	
1.3620	-17.1925	-4.62268	0	
1.3627	-14.7418	-5.5433	0	
1.3633	-8.64301	-4.91649	0	
1.3640	-4.67695	-4.01546	0	
1.3647	-1.32825	-2.48763	0	
1.3653	6.00521	-3.40825	0	
1.3660	12.104	-5.83711	0	
1.3667	11.5053	-4.62268	0	
1.3673	6.00521	-3.09484	0	
1.3680	0.823144	-3.09484	0	
1.3687	-1.9269	-1.2732	0	
1.3693	-4.97628	-0.352577	0	
1.3700	-6.51032	-3.09484	0	
1.3707	-4.67695	-3.70206	0	
1.3713	-4.97628	-1.2732	0	
1.3720	-6.51032	-1.56701	0	
1.3727	-3.76027	-2.78144	0	
1.3733	1.73983	-3.09484	0	
1.3740	9.35391	-4.91649	0	
1.3747	24.0021	-4.91649	0	
1.3753	35.919	-0.646391	0	
1.3760	32.8509	0.568041	0	
1.3767	23.7028	-4.01546	0	
1.3773	23.0854	-4.62268	0	
1.3780	25.8355	-2.17423	0	
1.3787	21.8694	-2.78144	0	
1.3793	15.4714	-3.09484	0	
1.3800	9.97126	-0.646391	0	
1.3807	4.47117	0.568041	0	
1.3813	0.505111	0.568041	0	
1.3820	0.505111	2.38969	0	
1.3827	-1.01022	1.48866	0	
1.3833	-2.22623	-1.88041	0	
1.3840	-0.0935391	-4.01546	0	
1.3847	1.42179	-3.70206	0	
1.3853	1.73983	0.568041	0	
1.3860	5.38785	3.31031	0	
1.3867	5.70588	1.78247	0	
1.3873	-0.0935391	0.881443	0	
1.3880	-0.0935391	1.78247	0	
1.3887	3.25516	2.38969	0	
1.3893	1.12247	4.23092	0	
1.3900	-0.0935391	6.67938	0	
1.3907	5.70588	6.97319	0	
1.3913	10.5886	6.67938	0	
1.3920	12.7213	6.36598	0	
1.3927	15.1533	6.67938	0	
1.3933	12.422	6.97319	0	
1.3940	4.47117	5.15154	0	
1.3947	-1.9269	1.48866	0	
1.3953	-4.97628	1.48866	0	
1.3960	-8.02565	4.23092	0	
1.3967	-10.177	4.23092	0	
1.3973	-11.0937	2.38969	0	
1.3980	-13.5257	-0.0391752	0	
1.3987	-14.4424	-2.17423	0	
1.3993	-13.8251	-2.78144	0	
1.4000	-14.7418	-4.01546	0	
1.4007	-17.1925	-6.75773	0	
1.4013	-16.2758	-5.5433	0	
1.4020	-14.4424	-2.17423	0	
1.4027	-14.7418	-2.17423	0	
1.4033	-13.8251	-3.09484	0	
1.4040	-10.177	-0.352577	0	
1.4047	-8.34368	1.48866	0	
1.4053	-7.427	0.568041	0	
1.4060	-5.29431	0.568041	0	
1.4067	-3.14291	1.48866	0	
1.4073	-2.84359	2.38969	0	
1.4080	-2.84359	2.09587	0	
1.4087	-1.01022	1.48866	0	
1.4093	1.12247	2.38969	0	
1.4100	2.33848	2.38969	0	
1.4107	2.65651	0.881443	0	
1.4113	2.65651	3.01649	0	
1.4120	5.08852	5.15154	0	
1.4127	8.1379	3.31031	0	
1.4133	7.83857	1.78247	0	
1.4140	7.22122	3.62371	0	
1.4147	9.05458	3.31031	0	
1.4153	7.22122	3.31031	0	
1.4160	0.823144	5.44536	0	
1.4167	0.205786	3.31031	0	
1.4173	-0.411572	-1.56701	0	
1.4180	-8.94233	-3.70206	0	
1.4187	-15.6584	-2.17423	0	
1.4193	-13.8251	0.881443	0	
1.4200	-12.3097	2.70309	0	
1.4207	-15.0598	0.254639	0	
1.4213	-17.1925	-3.40825	0	
1.4220	-16.2758	-3.09484	0	
1.4227	-15.3591	-1.88041	0	
1.4233	-15.3591	-2.48763	0	
1.4240	-9.26037	-3.09484	0	
1.4247	6.00521	-2.17423	0	
1.4253	15.1533	-1.2732	0	
1.4260	10.2706	-0.352577	0	
1.4267	2.65651	-1.2732	0	
1.4273	-0.0935391	-4.62268	0	
1.4280	-2.84359	-7.07113	0	
1.4287	-5.89296	-6.44433	0	
1.4293	-4.37763	-2.48763	0	
1.4300	2.95583	1.48866	0	
1.4307	10.8879	2.38969	0	
1.4313	14.5547	1.17526	0	
1.4320	13.32	0.254639	0	
1.4327	9.05458	0.254639	0	
1.4333	4.47117	2.09587	0	
1.4340	2.03915	1.48866	0	
1.4347	4.47117	-3.09484	0	
1.4353	7.22122	-5.22989	0	
1.4360	7.53925	-3.09484	0	
1.4367	7.83857	-3.09484	0	
1.4373	6.30453	-2.48763	0	
1.4380	-0.411572	-0.959793	0	
1.4387	-6.80964	-2.17423	0	
1.4393	-7.72633	-3.70206	0	
1.4400	-9.26037	-3.09484	0	
1.4407	-9.26037	-4.91649	0	
1.4413	2.03915	-4.30928	0	
1.4420	18.5207	3.01649	0	
1.4427	21.8694	9.71546	0	
1.4433	12.7213	10.3423	0	
1.4440	5.38785	7.28659	0	
1.4447	5.08852	6.05257	0	
1.4453	7.22122	7.89381	0	
1.4460	8.1379	6.97319	0	
1.4467	7.53925	2.70309	0	
1.4473	6.62257	3.31031	0	
1.4480	3.55448	6.05257	0	
1.4487	0.505111	3.62371	0	
1.4493	2.03915	2.38969	0	
1.4500	5.70588	6.05257	0	
1.4507	6.30453	6.97319	0	
1.4513	4.7892	5.44536	0	
1.4520	2.95583	4.23092	0	
1.4527	0.823144	-0.352577	0	
1.4533	-1.01022	-4.30928	0	
1.4540	-1.9269	-3.09484	0	
1.4547	-1.32825	-2.17423	0	
1.4553	0.823144	-1.56701	0	
1.4560	-1.32825	0.881443	0	
1.4567	-4.97628	-0.352577	0	
1.4573	-3.46095	-4.01546	0	
1.4580	-0.710897	-3.40825	0	
1.4587	-2.22623	-3.09484	0	
1.4593	-4.97628	-3.40825	0	
1.4600	-6.51032	-2.17423	0	
1.4607	-9.26037	-4.01546	0	
1.4613	-12.3097	-6.44433	0	
1.4620	-11.3931	-3.40825	0	
1.4627	-6.51032	-3.09484	0	
1.4633	-4.37763	-5.83711	0	
1.4640	-11.0937	-3.09484	0	
1.4647	-17.7911	-0.352577	0	
1.4653	-15.6584	-3.09484	0	
1.4660	-10.4764	-3.40825	0	
1.4667	-8.64301	-1.56701	0	
1.4673	-8.64301	-1.56701	0	
1.4680	-8.64301	-1.2732	0	
1.4687	-5.59364	0.254639	0	
1.4693	0.205786	-0.352577	0	
1.4700	1.73983	-0.959793	0	
1.4707	0.823144	-1.88041	0	
1.4713	4.47117	-2.78144	0	
1.4720	9.35391	-2.78144	0	
1.4727	9.05458	-2.17423	0	
1.4733	5.08852	-1.2732	0	
1.4740	4.47117	1.48866	0	
1.4747	5.08852	2.38969	0	
1.4753	2.03915	0.254639	0	
1.4760	-1.9269	-2.78144	0	
1.4767	-2.22623	-2.48763	0	
1.4773	-2.54426	-0.959793	0	
1.4780	-4.97628	-2.78144	0	
1.4787	-8.34368	-6.15051	0	
1.4793	-10.7757	-6.75773	0	
1.4800	-8.94233	-5.22989	0	
1.4807	-6.51032	-3.09484	0	
1.4813	-8.64301	-1.2732	0	
1.4820	-7.427	-2.78144	0	
1.4827	-1.9269	-4.62268	0	
1.4833	-3.76027	-2.48763	0	
1.4840	-8.34368	-0.352577	0	
1.4847	-4.0596	0.254639	0	
1.4853	-1.9269	3.31031	0	
1.4860	-4.37763	5.75876	0	
1.4867	-1.01022	4.54433	0	
1.4873	0.823144	3.01649	0	
1.4880	-2.84359	2.38969	0	
1.4887	-0.411572	2.09587	0	
1.4893	7.22122	2.70309	0	
1.4900	7.53925	2.38969	0	
1.4907	6.00521	2.09587	0	
1.4913	11.5053	3.91752	0	
1.4920	17.9034	3.91752	0	
1.4927	16.9867	2.09587	0	
1.4933	12.7213	1.48866	0	
1.4940	9.97126	0.881443	0	
1.4947	3.87252	-2.17423	0	
1.4953	-4.67695	-4.01546	0	
1.4960	-8.34368	-4.30928	0	
1.4967	-9.55969	-4.91649	0	
1.4973	-12.9084	-5.5433	0	
1.4980	-12.0104	-5.83711	0	
1.4987	-2.54426	-4.01546	0	
1.4993	5.08852	0.254639	0	
1.5000	4.7892	-0.0391752	0	
1.5007	1.12247	-4.01546	0	
1.5013	-1.9269	-4.30928	0	
1.5020	-3.76027	-1.56701	0	
1.5027	-4.67695	-2.17423	0	
1.5033	-5.29431	-4.01546	0	
1.5040	-6.51032	-2.17423	0	
1.5047	-5.29431	0.881443	0	
1.5053	-1.01022	0.254639	0	
1.5060	-0.0935391	-2.78144	0	
1.5067	1.12247	-0.646391	0	
1.5073	8.43722	4.54433	0	
1.5080	10.8879	5.15154	0	
1.5087	5.38785	3.91752	0	
1.5093	5.08852	6.05257	0	
1.5100	9.67194	6.36598	0	
1.5107	9.97126	4.54433	0	
1.5113	9.67194	4.54433	0	
1.5120	9.67194	4.23092	0	
1.5127	8.75526	3.31031	0	
1.5133	9.05458	2.38969	0	
1.5140	9.05458	0.568041	0	
1.5147	5.38785	-0.646391	0	
1.5153	2.65651	-1.2732	0	
1.5160	-0.0935391	-4.30928	0	
1.5167	-6.21099	-7.07113	0	
1.5173	-8.02565	-6.15051	0	
1.5180	-6.21099	-4.30928	0	
1.5187	-8.64301	-3.09484	0	
1.5193	-9.55969	-2.48763	0	
1.5200	-7.427	-2.48763	0	
1.5207	-8.34368	-2.48763	0	
1.5213	-8.94233	-2.17423	0	
1.5220	-7.427	-0.0391752	0	
1.5227	-8.64301	2.70309	0	
1.5233	-10.4764	0.568041	0	
1.5240	-9.55969	-3.09484	0	
1.5247	-7.72633	0.254639	0	
1.5253	-4.67695	3.31031	0	
1.5260	-0.0935391	0.881443	0	
1.5267	1.12247	0.568041	0	
1.5273	0.823144	3.31031	0	
1.5280	-0.710897	3.91752	0	
1.5287	-2.54426	3.31031	0	
1.5293	-0.0935391	3.31031	0	
1.5300	6.00521	4.23092	0	
1.5307	9.97126	6.36598	0	
1.5313	10.2706	5.44536	0	
1.5320	8.43722	1.17526	0	
1.5327	4.47117	-2.17423	0	
1.5333	-0.0935391	-4.91649	0	
1.5340	-5.89296	-7.07113	0	
1.5347	-12.3097	-6.75773	0	
1.5353	-11.0937	-5.83711	0	
1.5360	-2.84359	-5.83711	0	
1.5367	0.823144	-3.70206	0	
1.5373	-1.62758	-3.09484	0	
1.5380	-2.54426	-4.62268	0	
1.5387	-0.710897	-2.78144	0	
1.5393	-1.9269	-0.0391752	0	
1.5400	-4.67695	-1.88041	0	
1.5407	-5.29431	-4.91649	0	
1.5413	-4.37763	-4.91649	0	
1.5420	-1.9269	-3.09484	0	
1.5427	2.33848	-2.17423	0	
1.5433	5.38785	-2.17423	0	
1.5440	3.87252	-0.959793	0	
1.5447	3.55448	-0.959793	0	
1.5453	4.47117	-2.48763	0	
1.5460	1.73983	-2.78144	0	
1.5467	-0.0935391	-1.2732	0	
1.5473	2.03915	-0.352577	0	
1.5480	-1.9269	0.254639	0	
1.5487	-11.0937	-1.2732	0	
1.5493	-11.3931	-5.83711	0	
1.5500	-4.0596	-8.28556	0	
1.5507	1.73983	-6.75773	0	
1.5513	9.35391	-4.30928	0	
1.5520	16.9867	-3.09484	0	
1.5527	12.422	-2.78144	0	
1.5533	0.823144	-3.09484	0	
1.5540	-3.76027	-2.17423	0	
1.5547	-1.9269	-0.352577	0	
1.5553	-1.9269	-0.352577	0	
1.5560	-1.32825	-1.2732	0	
1.5567	-0.0935391	-1.2732	0	
1.5573	-2.84359	-1.2732	0	
1.5580	-3.76027	-1.56701	0	
1.5587	1.42179	-0.959793	0	
1.5593	2.65651	0.881443	0	
1.5600	-1.9269	2.09587	0	
1.5607	-2.84359	2.38969	0	
1.5613	-1.9269	2.09587	0	
1.5620	-1.9269	-0.352577	0	
1.5627	2.33848	-4.30928	0	
1.5633	8.75526	-5.5433	0	
1.5640	9.35391	-2.48763	0	
1.5647	5.38785	0.568041	0	
1.5653	-1.9269	0.881443	0	
1.5660	-6.21099	-1.2732	0	
1.5667	-1.32825	-2.17423	0	
1.5673	5.70588	-0.0391752	0	
1.5680	5.70588	1.48866	0	
1.5687	2.65651	0.568041	0	
1.5693	2.33848	0.568041	0	
1.5700	3.55448	0.568041	0	
1.5707	8.75526	-0.352577	0	
1.5713	16.6874	0.881443	0	
1.5720	22.1875	2.38969	0	
1.5727	24.0021	0.568041	0	
1.5733	18.2027	-0.646391	0	
1.5740	5.38785	0.568041	0	
1.5747	-1.01022	1.17526	0	
1.5753	0.205786	0.254639	0	
1.5760	-2.54426	-0.352577	0	
1.5767	-5.89296	-0.646391	0	
1.5773	-2.54426	-0.646391	0	
1.5780	-2.22623	-1.56701	0	
1.5787	-7.427	-2.78144	0	
1.5793	-9.55969	-2.17423	0	
1.5800	-9.55969	-1.88041	0	
1.5807	-10.7757	-3.09484	0	
1.5813	-9.26037	-0.959793	0	
1.5820	-8.34368	1.78247	0	
1.5827	-8.64301	0.254639	0	
1.5833	-6.51032	-0.959793	0	
1.5840	-6.51032	0.568041	0	
1.5847	-12.0104	-1.2732	0	
1.5853	-14.7418	-5.22989	0	
1.5860	-10.4764	-4.91649	0	
1.5867	-4.97628	-5.83711	0	
1.5873	-2.22623	-7.67835	0	
1.5880	-1.9269	-6.75773	0	
1.5887	-2.54426	-5.5433	0	
1.5893	-2.22623	-6.44433	0	
1.5900	-0.411572	-4.62268	0	
1.5907	3.55448	-1.2732	0	
1.5913	9.05458	0.254639	0	
1.5920	10.2706	1.78247	0	
1.5927	6.30453	4.23092	0	
1.5933	4.47117	3.31031	0	
1.5940	7.22122	1.48866	0	
1.5947	8.1379	1.48866	0	
1.5953	5.38785	2.38969	0	
1.5960	2.65651	4.23092	0	
1.5967	-0.0935391	5.44536	0	
1.5973	-2.84359	3.91752	0	
1.5980	-6.51032	3.31031	0	
1.5987	-11.6924	3.31031	0	
1.5993	-13.8251	0.568041	0	
1.6000	-12.3097	-1.56701	0	
1.6007	-12.6091	-0.352577	0	
1.6013	-12.9084	0.568041	0	
1.6020	-12.0104	-0.352577	0	
1.6027	-11.6924	0.881443	0	
1.6033	-11.0937	2.70309	0	
1.6040	-8.34368	3.01649	0	
1.6047	-7.427	2.38969	0	
1.6053	-5.29431	-0.0391752	0	
1.6060	0.823144	-1.2732	0	
1.6067	2.65651	1.48866	0	
1.6073	1.12247	3.62371	0	
1.6080	2.65651	3.01649	0	
1.6087	4.17184	4.54433	0	
1.6093	4.47117	6.36598	0	
1.6100	6.30453	4.23092	0	
1.6107	3.55448	2.38969	0	
1.6113	-4.37763	3.62371	0	
1.6120	-6.51032	3.91752	0	
1.6127	-4.0596	3.31031	0	
1.6133	-4.0596	3.62371	0	
1.6140	-3.14291	3.31031	0	
1.6147	0.505111	2.38969	0	
1.6153	2.65651	3.01649	0	
1.6160	3.25516	4.83814	0	
1.6167	4.7892	6.05257	0	
1.6173	7.53925	4.23092	0	
1.6180	9.05458	-0.352577	0	
1.6187	9.67194	-1.2732	0	
1.6193	9.97126	2.70309	0	
1.6200	7.22122	2.09587	0	
1.6207	-1.01022	-4.01546	0	
1.6213	-4.37763	-4.30928	0	
1.6220	-0.710897	-1.2732	0	
1.6227	1.73983	-3.09484	0	
1.6233	2.33848	-4.91649	0	
1.6240	2.95583	-4.01546	0	
1.6247	0.505111	-5.83711	0	
1.6253	-1.62758	-6.44433	0	
1.6260	2.33848	-3.40825	0	
1.6267	6.00521	-1.2732	0	
1.6273	6.00521	-2.17423	0	
1.6280	6.62257	-2.48763	0	
1.6287	5.38785	-3.40825	0	
1.6293	2.33848	-4.91649	0	
1.6300	3.55448	-4.62268	0	
1.6307	6.62257	-1.56701	0	
1.6313	6.30453	-0.959793	0	
1.6320	6.00521	-2.48763	0	
1.6327	6.92189	-2.17423	0	
1.6333	5.38785	1.48866	0	
1.6340	3.87252	3.01649	0	
1.6347	2.65651	3.62371	0	
1.6353	0.205786	4.83814	0	
1.6360	2.33848	3.31031	0	
1.6367	6.30453	3.31031	0	
1.6373	-0.411572	7.58041	0	
1.6380	-12.3097	7.58041	0	
1.6387	-15.6584	4.23092	0	
1.6393	-14.7418	6.05257	0	
1.6400	-16.5751	8.81443	0	
1.6407	-19.0258	4.54433	0	
1.6413	-21.1585	0.568041	0	
1.6420	-22.3745	-0.352577	0	
1.6427	-18.7078	-2.17423	0	
1.6433	-12.9084	-0.352577	0	
1.6440	-7.427	5.15154	0	
1.6447	-1.01022	7.28659	0	
1.6453	6.00521	5.44536	0	
1.6460	9.35391	4.23092	0	
1.6467	10.8879	2.38969	0	
1.6473	11.8046	-1.2732	0	
1.6480	10.8879	-4.01546	0	
1.6487	8.1379	-6.15051	0	
1.6493	3.55448	-6.44433	0	
1.6500	-0.710897	-3.09484	0	
1.6507	-0.0935391	0.254639	0	
1.6513	7.53925	-0.646391	0	
1.6520	14.5547	-2.17423	0	
1.6527	12.7213	-2.78144	0	
1.6533	4.47117	-3.40825	0	
1.6540	-1.9269	-3.40825	0	
1.6547	-0.0935391	-3.70206	0	
1.6553	3.55448	-3.70206	0	
1.6560	1.73983	-2.48763	0	
1.6567	-2.22623	-4.62268	0	
1.6573	-0.0935391	-9.49999	0	
1.6580	2.03915	-9.20618	0	
1.6587	0.505111	-7.67835	0	
1.6593	1.73983	-9.20618	0	
1.6600	6.30453	-7.36494	0	
1.6607	6.30453	-3.09484	0	
1.6613	5.08852	-5.22989	0	
1.6620	7.53925	-7.07113	0	
1.6627	9.05458	-3.09484	0	
1.6633	7.53925	-1.56701	0	
1.6640	4.17184	-4.91649	0	
1.6647	0.823144	-4.01546	0	
1.6653	-1.9269	-2.48763	0	
1.6660	-3.46095	-5.22989	0	
1.6667	-3.76027	-6.44433	0	
1.6673	-3.76027	-3.09484	0	
1.6680	-4.67695	-2.48763	0	
1.6687	-5.59364	-3.70206	0	
1.6693	-3.76027	-2.78144	0	
1.6700	-0.710897	-3.09484	0	
1.6707	1.42179	-4.01546	0	
1.6713	1.73983	-1.56701	0	
1.6720	1.73983	-0.0391752	0	
1.6727	2.65651	-0.959793	0	
1.6733	4.17184	0.568041	0	
1.6740	3.25516	3.31031	0	
1.6747	1.42179	1.78247	0	
1.6753	-0.0935391	0.881443	0	
1.6760	-4.0596	2.09587	0	
1.6767	-7.72633	1.78247	0	
1.6773	-7.72633	-0.959793	0	
1.6780	-7.427	-1.56701	0	
1.6787	-8.02565	1.48866	0	
1.6793	-6.80964	3.31031	0	
1.6800	-7.427	1.48866	0	
1.6807	-12.6091	-0.959793	0	
1.6813	-16.5751	-1.2732	0	
1.6820	-15.3591	-3.40825	0	
1.6827	-9.85902	-6.44433	0	
1.6833	-1.01022	-5.83711	0	
1.6840	6.00521	-2.48763	0	
1.6847	9.05458	-1.2732	0	
1.6853	11.1873	-4.01546	0	
1.6860	9.67194	-3.40825	0	
1.6867	4.47117	0.568041	0	
1.6873	3.87252	1.48866	0	
1.6880	9.97126	0.881443	0	
1.6887	14.5547	3.01649	0	
1.6893	17.9034	4.54433	0	
1.6900	20.9527	5.44536	0	
1.6907	20.9527	8.50103	0	
1.6913	19.4374	9.10824	0	
1.6920	19.7367	6.97319	0	
1.6927	17.9034	6.05257	0	
1.6933	12.422	5.15154	0	
1.6940	4.47117	2.38969	0	
1.6947	-4.97628	0.568041	0	
1.6953	-12.9084	-0.646391	0	
1.6960	-21.1585	-3.40825	0	
1.6967	-33.0567	-6.44433	0	
1.6973	-37.3221	-8.57938	0	
1.6980	-32.14	-8.57938	0	
1.6987	-28.4733	-8.89278	0	
1.6993	-26.6586	-12.2423	0	
1.7000	-19.9425	-12.2423	0	
1.7007	-13.8251	-7.67835	0	
1.7013	-11.3931	-6.44433	0	
1.7020	-7.72633	-5.83711	0	
1.7027	-1.62758	-2.48763	0	
1.7033	4.17184	-1.2732	0	
1.7040	5.38785	-1.2732	0	
1.7047	2.65651	0.568041	0	
1.7053	-0.0935391	-1.2732	0	
1.7060	-3.46095	-2.17423	0	
1.7067	-4.67695	1.48866	0	
1.7073	-0.411572	4.83814	0	
1.7080	5.70588	4.54433	0	
1.7087	9.35391	4.83814	0	
1.7093	13.0206	4.23092	0	
1.7100	14.854	3.91752	0	
1.7107	13.638	4.23092	0	
1.7113	11.8046	3.31031	0	
1.7120	9.05458	3.31031	0	
1.7127	5.38785	5.15154	0	
1.7133	2.33848	4.54433	0	
1.7140	-0.0935391	2.38969	0	
1.7147	-1.01022	3.31031	0	
1.7153	-1.9269	2.38969	0	
1.7160	-4.0596	-0.959793	0	
1.7167	-4.37763	-0.0391752	0	
1.7173	-1.9269	4.23092	0	
1.7180	-3.76027	4.83814	0	
1.7187	-7.427	1.78247	0	
1.7193	-5.59364	0.568041	0	
1.7200	-2.84359	-1.2732	0	
1.7207	-5.59364	-4.91649	0	
1.7213	-10.4764	-5.83711	0	
1.7220	-13.2264	-2.78144	0	
1.7227	-12.0104	-1.2732	0	
1.7233	-9.55969	-2.17423	0	
1.7240	-10.4764	-2.48763	0	
1.7247	-12.6091	-3.09484	0	
1.7253	-9.55969	-5.83711	0	
1.7260	-4.0596	-8.28556	0	
1.7267	-3.14291	-7.97216	0	
1.7273	-4.37763	-6.75773	0	
1.7280	-2.84359	-4.01546	0	
1.7287	0.205786	0.568041	0	
1.7293	4.17184	3.31031	0	
1.7300	7.83857	2.38969	0	
1.7307	4.7892	1.17526	0	
1.7313	-2.84359	-0.646391	0	
1.7320	-6.80964	-2.78144	0	
1.7327	-5.59364	-0.352577	0	
1.7333	-1.01022	4.23092	0	
1.7340	6.00521	5.15154	0	
1.7347	9.05458	5.15154	0	
1.7353	9.05458	5.44536	0	
1.7360	10.8879	3.01649	0	
1.7367	10.5886	0.568041	0	
1.7373	3.55448	-1.2732	0	
1.7380	-0.0935391	-4.62268	0	
1.7387	1.42179	-5.22989	0	
1.7393	-1.62758	-0.352577	0	
1.7400	-5.59364	0.568041	0	
1.7407	-4.0596	-3.70206	0	
1.7413	-1.32825	-4.91649	0	
1.7420	-1.9269	-4.91649	0	
1.7427	-2.22623	-6.75773	0	
1.7433	-0.0935391	-5.5433	0	
1.7440	2.33848	-1.88041	0	
1.7447	3.25516	-1.88041	0	
1.7453	5.08852	-2.17423	0	
1.7460	6.92189	3.01649	0	
1.7467	7.83857	6.97319	0	
1.7473	9.97126	4.23092	0	
1.7480	12.104	0.568041	0	
1.7487	11.1873	1.78247	0	
1.7493	11.5053	3.31031	0	
1.7500	13.638	3.31031	0	
1.7507	11.8046	6.05257	0	
1.7513	8.1379	6.36598	0	
1.7520	3.87252	2.09587	0	
1.7527	-1.32825	1.17526	0	
1.7533	-2.22623	4.54433	0	
1.7540	2.33848	4.54433	0	
1.7547	1.12247	2.38969	0	
1.7553	-6.21099	3.01649	0	
1.7560	-8.64301	2.70309	0	
1.7567	-9.26037	1.17526	0	
1.7573	-13.8251	-0.646391	0	
1.7580	-13.8251	-5.5433	0	
1.7587	-10.177	-8.89278	0	
1.7593	-13.8251	-7.36494	0	
1.7600	-17.4918	-7.67835	0	
1.7607	-8.02565	-9.49999	0	
1.7613	4.17184	-5.83711	0	
1.7620	5.38785	-3.09484	0	
1.7627	-0.710897	-4.01546	0	
1.7633	-5.29431	-3.70206	0	
1.7640	-4.97628	-1.2732	0	
1.7647	2.65651	-1.2732	0	
1.7653	13.9373	-0.959793	0	
1.7660	19.1194	0.568041	0	
1.7667	16.9867	0.568041	0	
1.7673	14.5547	0.568041	0	
1.7680	13.32	-0.352577	0	
1.7687	12.7213	-2.17423	0	
1.7693	13.638	-3.70206	0	
1.7700	12.422	-3.40825	0	
1.7707	7.22122	-3.70206	0	
1.7713	4.17184	-4.91649	0	
1.7720	4.17184	-4.30928	0	
1.7727	3.55448	-2.48763	0	
1.7733	2.65651	-0.646391	0	
1.7740	0.823144	0.254639	0	
1.7747	-1.62758	-0.352577	0	
1.7753	-2.54426	-1.56701	0	
1.7760	-4.0596	-2.17423	0	
1.7767	-8.64301	-0.959793	0	
1.7773	-10.177	2.09587	0	
1.7780	-6.51032	5.15154	0	
1.7787	-5.59364	5.15154	0	
1.7793	-7.427	3.31031	0	
1.7800	-9.26037	2.70309	0	
1.7807	-12.9084	3.01649	0	
1.7813	-15.6584	1.48866	0	
1.7820	-14.4424	-0.0391752	0	
1.7827	-13.5257	-0.646391	0	
1.7833	-14.4424	-1.56701	0	
1.7840	-12.9084	-0.646391	0	
1.7847	-8.34368	1.48866	0	
1.7853	-4.37763	-0.0391752	0	
1.7860	-5.59364	-3.70206	0	
1.7867	-9.26037	-5.22989	0	
1.7873	-7.427	-5.83711	0	
1.7880	-2.84359	-4.91649	0	
1.7887	-4.0596	-1.56701	0	
1.7893	-7.72633	-1.2732	0	
1.7900	-5.29431	-2.48763	0	
1.7907	-0.0935391	1.17526	0	
1.7913	-0.0935391	2.70309	0	
1.7920	-4.67695	-1.2732	0	
1.7927	-7.427	-0.959793	0	
1.7933	-4.67695	2.38969	0	
1.7940	0.823144	1.78247	0	
1.7947	1.73983	1.48866	0	
1.7953	-2.22623	1.78247	0	
1.7960	-3.76027	-1.2732	0	
1.7967	-2.22623	-1.88041	0	
1.7973	-3.76027	0.568041	0	
1.7980	-6.80964	0.568041	0	
1.7987	-5.59364	0.568041	0	
1.7993	0.823144	1.48866	0	
1.8000	7.53925	0.568041	0	
1.8007	9.05458	1.48866	0	
1.8013	9.05458	4.23092	0	
1.8020	11.5053	5.15154	0	
1.8027	15.4714	6.97319	0	
1.8033	15.4714	7.89381	0	
1.8040	12.7213	5.75876	0	
1.8047	11.1873	4.54433	0	
1.8053	9.97126	2.38969	0	
1.8060	7.83857	-0.0391752	0	
1.8067	6.30453	2.09587	0	
1.8073	4.7892	2.38969	0	
1.8080	1.73983	-4.01546	0	
1.8087	0.823144	-6.75773	0	
1.8093	2.33848	-4.91649	0	
1.8100	0.205786	-6.44433	0	
1.8107	-3.76027	-7.07113	0	
1.8113	-4.67695	-4.91649	0	
1.8120	-4.67695	-4.91649	0	
1.8127	-7.12768	-5.5433	0	
1.8133	-8.34368	-4.91649	0	
1.8140	-4.0596	-6.75773	0	
1.8147	1.42179	-6.44433	0	
1.8153	4.17184	-2.48763	0	
1.8160	6.30453	-0.0391752	0	
1.8167	9.05458	0.568041	0	
1.8173	9.97126	2.09587	0	
1.8180	9.05458	3.31031	0	
1.8187	10.2706	4.23092	0	
1.8193	10.8879	4.54433	0	
1.8200	4.47117	3.31031	0	
1.8207	-1.01022	0.881443	0	
1.8213	1.12247	-0.646391	0	
1.8220	0.823144	-1.2732	0	
1.8227	-4.37763	-0.646391	0	
1.8233	-5.29431	-0.352577	0	
1.8240	-5.29431	-0.352577	0	
1.8247	-7.12768	-0.352577	0	
1.8253	-4.67695	-0.352577	0	
1.8260	-1.32825	0.568041	0	
1.8267	-3.46095	2.38969	0	
1.8273	-5.89296	1.48866	0	
1.8280	-6.21099	-1.2732	0	
1.8287	-3.76027	0.254639	0	
1.8293	-1.32825	1.48866	0	
1.8300	-6.21099	-2.17423	0	
1.8307	-14.1431	-4.62268	0	
1.8313	-15.0598	-3.40825	0	
1.8320	-16.2758	-3.40825	0	
1.8327	-21.1585	-3.70206	0	
1.8333	-18.4085	-2.17423	0	
1.8340	-11.6924	-0.352577	0	
1.8347	-11.3931	0.254639	0	
1.8353	-15.6584	-0.352577	0	
1.8360	-19.3252	-2.17423	0	
1.8367	-15.0598	-1.88041	0	
1.8373	3.87252	0.254639	0	
1.8380	27.0702	-0.352577	0	
1.8387	37.135	-1.2732	0	
1.8393	33.7676	1.48866	0	
1.8400	24.6195	3.31031	0	
1.8407	16.6874	3.01649	0	
1.8413	13.32	3.31031	0	
1.8420	11.1873	3.91752	0	
1.8427	8.75526	2.70309	0	
1.8433	7.83857	1.17526	0	
1.8440	7.53925	-0.352577	0	
1.8447	6.00521	-1.56701	0	
1.8453	5.70588	-0.959793	0	
1.8460	7.22122	0.254639	0	
1.8467	5.38785	-0.959793	0	
1.8473	2.65651	-1.88041	0	
1.8480	2.33848	0.568041	0	
1.8487	2.33848	0.568041	0	
1.8493	-0.710897	-4.30928	0	
1.8500	-3.46095	-4.91649	0	
1.8507	-3.76027	-1.2732	0	
1.8513	-2.54426	-3.09484	0	
1.8520	-1.9269	-4.91649	0	
1.8527	-2.22623	-2.48763	0	
1.8533	-2.84359	-0.959793	0	
1.8540	-2.84359	-1.56701	0	
1.8547	-2.54426	-0.0391752	0	
1.8553	-2.22623	1.48866	0	
1.8560	-4.0596	0.254639	0	
1.8567	-6.80964	-0.959793	0	
1.8573	-5.59364	-0.352577	0	
1.8580	-1.62758	0.568041	0	
1.8587	-1.01022	1.48866	0	
1.8593	-2.84359	2.38969	0	
1.8600	-2.84359	3.31031	0	
1.8607	-4.97628	1.48866	0	
1.8613	-8.02565	-2.17423	0	
1.8620	-6.51032	-2.17423	0	
1.8627	-4.0596	-0.0391752	0	
1.8633	-4.97628	-0.352577	0	
1.8640	-4.37763	-0.352577	0	
1.8647	-1.62758	2.38969	0	
1.8653	-0.411572	4.23092	0	
1.8660	0.205786	4.23092	0	
1.8667	0.823144	4.23092	0	
1.8673	0.823144	3.31031	0	
1.8680	2.65651	3.91752	0	
1.8687	4.17184	5.44536	0	
1.8693	3.55448	4.23092	0	
1.8700	3.87252	3.31031	0	
1.8707	3.55448	6.05257	0	
1.8713	-2.54426	4.23092	0	
1.8720	-9.85902	-0.352577	0	
1.8727	-12.0104	0.568041	0	
1.8733	-13.5257	2.09587	0	
1.8740	-18.7078	1.17526	0	
1.8747	-22.9919	3.91752	0	
1.8753	-20.5412	5.15154	0	
1.8760	-18.4085	1.48866	0	
1.8767	-22.0752	1.17526	0	
1.8773	-20.2419	1.48866	0	
1.8780	-10.4764	-4.01546	0	
1.8787	-5.29431	-8.57938	0	
1.8793	-6.51032	-6.75773	0	
1.8800	-3.76027	-4.30928	0	
1.8807	-0.411572	-3.40825	0	
1.8813	-0.710897	-2.48763	0	
1.8820	3.55448	-2.17423	0	
1.8827	12.7213	-1.2732	0	
1.8833	17.6041	-0.646391	0	
1.8840	19.1194	-1.2732	0	
1.8847	17.3047	-1.88041	0	
1.8853	11.1873	-0.959793	0	
1.8860	9.67194	-0.0391752	0	
1.8867	15.4714	0.881443	0	
1.8873	19.1194	0.568041	0	
1.8880	17.9034	-1.2732	0	
1.8887	20.0361	-0.646391	0	
1.8893	23.0854	2.38969	0	
1.8900	24.6195	4.23092	0	
1.8907	25.5362	2.38969	0	
1.8913	23.0854	-0.352577	0	
1.8920	14.854	-2.48763	0	
1.8927	7.53925	-3.70206	0	
1.8933	4.7892	-4.62268	0	
1.8940	6.30453	-4.62268	0	
1.8947	8.1379	-3.40825	0	
1.8953	5.38785	-2.78144	0	
1.8960	-0.411572	-4.01546	0	
1.8967	-3.76027	-5.22989	0	
1.8973	-2.84359	-3.09484	0	
1.8980	-0.0935391	-0.646391	0	
1.8987	2.65651	-0.352577	0	
1.8993	1.42179	-0.352577	0	
1.9000	-2.22623	2.09587	0	
1.9007	-4.67695	1.78247	0	
1.9013	-8.94233	-0.646391	0	
1.9020	-14.4424	0.881443	0	
1.9027	-15.0598	2.70309	0	
1.9033	-13.5257	-0.646391	0	
1.9040	-15.0598	-4.01546	0	
1.9047	-15.6584	-4.62268	0	
1.9053	-13.5257	-4.01546	0	
1.9060	-13.8251	-3.40825	0	
1.9067	-13.5257	-4.91649	0	
1.9073	-5.29431	-7.07113	0	
1.9080	5.08852	-4.91649	0	
1.9087	7.83857	-1.88041	0	
1.9093	5.38785	-2.17423	0	
1.9100	3.87252	-0.646391	0	
1.9107	3.25516	0.568041	0	
1.9113	2.65651	-3.09484	0	
1.9120	1.42179	-4.01546	0	
1.9127	-1.01022	-0.646391	0	
1.9133	-3.46095	-0.0391752	0	
1.9140	-4.97628	-0.646391	0	
1.9147	-5.89296	0.568041	0	
1.9153	-3.14291	-0.646391	0	
1.9160	0.823144	-1.2732	0	
1.9167	-0.0935391	1.17526	0	
1.9173	-4.67695	2.09587	0	
1.9180	-8.64301	0.568041	0	
1.9187	-10.4764	1.17526	0	
1.9193	-8.64301	1.17526	0	
1.9200	-5.59364	1.48866	0	
1.9207	-6.51032	2.38969	0	
1.9213	-9.85902	-0.0391752	0	
1.9220	-14.1431	-4.01546	0	
1.9227	-17.4918	-4.01546	0	
1.9233	-15.3591	-2.17423	0	
1.9240	-10.177	-0.0391752	0	
1.9247	-6.80964	3.91752	0	
1.9253	-4.67695	4.83814	0	
1.9260	-1.62758	2.38969	0	
1.9267	0.823144	1.78247	0	
1.9273	-0.0935391	1.78247	0	
1.9280	-4.0596	1.48866	0	
1.9287	-4.37763	4.23092	0	
1.9293	2.03915	6.05257	0	
1.9300	6.30453	3.62371	0	
1.9307	5.38785	3.31031	0	
1.9313	4.47117	4.83814	0	
1.9320	6.30453	3.01649	0	
1.9327	8.1379	0.568041	0	
1.9333	9.05458	1.78247	0	
1.9340	6.92189	1.17526	0	
1.9347	1.42179	-2.48763	0	
1.9353	-3.14291	-4.30928	0	
1.9360	-5.89296	-4.62268	0	
1.9367	-6.51032	-5.5433	0	
1.9373	-3.14291	-4.91649	0	
1.9380	0.823144	-2.17423	0	
1.9387	2.65651	-1.56701	0	
1.9393	2.33848	-2.17423	0	
1.9400	-0.710897	-2.17423	0	
1.9407	-5.59364	-3.09484	0	
1.9413	-7.12768	-2.78144	0	
1.9420	-4.97628	0.568041	0	
1.9427	-3.76027	1.17526	0	
1.9433	-2.22623	-3.40825	0	
1.9440	0.205786	-4.01546	0	
1.9447	-2.54426	1.17526	0	
1.9453	-7.427	1.17526	0	
1.9460	-2.22623	-2.17423	0	
1.9467	6.00521	0.254639	0	
1.9473	3.87252	5.15154	0	
1.9480	1.12247	5.44536	0	
1.9487	2.33848	5.15154	0	
1.9493	-2.22623	6.05257	0	
1.9500	-6.51032	4.23092	0	
1.9507	-1.9269	0.881443	0	
1.9513	1.73983	-0.959793	0	
1.9520	4.7892	-1.56701	0	
1.9527	8.43722	-1.2732	0	
1.9533	4.47117	-0.959793	0	
1.9540	-0.710897	-3.40825	0	
1.9547	4.7892	-3.70206	0	
1.9553	9.05458	0.568041	0	
1.9560	6.30453	0.881443	0	
1.9567	4.7892	-3.70206	0	
1.9573	5.38785	-3.40825	0	
1.9580	6.62257	1.17526	0	
1.9587	10.8879	2.09587	0	
1.9593	10.5886	1.17526	0	
1.9600	3.87252	3.01649	0	
1.9607	0.505111	3.62371	0	
1.9613	-0.0935391	3.01649	0	
1.9620	-1.62758	3.31031	0	
1.9627	-1.62758	3.01649	0	
1.9633	-1.62758	0.568041	0	
1.9640	-5.29431	-0.352577	0	
1.9647	-9.26037	-0.959793	0	
1.9653	-8.64301	-2.17423	0	
1.9660	-4.97628	-3.09484	0	
1.9667	-1.9269	-4.30928	0	
1.9673	-0.710897	-5.5433	0	
1.9680	0.505111	-6.75773	0	
1.9687	-1.62758	-8.57938	0	
1.9693	-7.427	-9.49999	0	
1.9700	-10.177	-9.20618	0	
1.9707	-9.26037	-11.0278	0	
1.9713	-10.4764	-11.635	0	
1.9720	-10.177	-7.97216	0	
1.9727	-7.12768	-3.70206	0	
1.9733	-6.80964	-1.2732	0	
1.9740	-7.12768	-2.17423	0	
1.9747	-3.76027	-4.62268	0	
1.9753	-1.9269	-4.01546	0	
1.9760	-4.0596	-1.2732	0	
1.9767	-4.67695	-2.78144	0	
1.9773	-1.32825	-4.91649	0	
1.9780	5.38785	-1.88041	0	
1.9787	13.638	1.78247	0	
1.9793	16.388	4.23092	0	
1.9800	9.67194	5.15154	0	
1.9807	2.33848	1.48866	0	
1.9813	0.823144	-1.56701	0	
1.9820	-0.710897	1.48866	0	
1.9827	-3.46095	4.23092	0	
1.9833	-2.54426	0.881443	0	
1.9840	-0.0935391	-0.352577	0	
1.9847	1.73983	2.09587	0	
1.9853	8.43722	2.38969	0	
1.9860	15.1533	2.38969	0	
1.9867	13.638	3.31031	0	
1.9873	9.05458	3.31031	0	
1.9880	8.75526	4.83814	0	
1.9887	10.8879	6.67938	0	
1.9893	14.5547	4.83814	0	
1.9900	11.8046	3.31031	0	
1.9907	0.205786	6.05257	0	
1.9913	-6.51032	6.67938	0	
1.9920	-5.89296	6.05257	0	
1.9927	-8.64301	6.05257	0	
1.9933	-10.177	3.31031	0	
1.9940	-4.67695	0.568041	0	
1.9947	-2.22623	3.31031	0	
1.9953	-2.22623	4.83814	0	
1.9960	4.47117	3.31031	0	
1.9967	11.8046	5.15154	0	
1.9973	14.2366	7.58041	0	
1.9980	11.1873	3.62371	0	
1.9987	5.08852	-0.352577	0	
1.9993	2.65651	-0.959793	0	
2.0000	6.30453	-1.2732	0	
2.0007	6.30453	-0.0391752	0	
2.0013	2.03915	1.17526	0	
2.0020	0.505111	-0.646391	0	
2.0027	-0.0935391	-0.0391752	0	
2.0033	-1.32825	4.23092	0	
2.0040	-1.62758	6.05257	0	
2.0047	-2.84359	4.23092	0	
2.0053	-4.67695	3.31031	0	
2.0060	-4.37763	3.62371	0	
2.0067	-3.76027	4.23092	0	
2.0073	-4.0596	3.31031	0	
2.0080	-3.76027	2.38969	0	
2.0087	-2.54426	3.31031	0	
2.0093	-2.22623	5.15154	0	
2.0100	-1.01022	3.31031	0	
2.0107	5.08852	-0.0391752	0	
2.0113	13.9373	2.09587	0	
2.0120	20.3541	4.23092	0	
2.0127	20.6534	2.38969	0	
2.0133	18.8201	4.23092	0	
2.0140	15.4714	8.81443	0	
2.0147	8.75526	6.05257	0	
2.0153	-0.411572	1.48866	0	
2.0160	-6.80964	3.62371	0	
2.0167	-12.0104	3.91752	0	
2.0173	-16.5751	-1.56701	0	
2.0180	-16.5751	-2.17423	0	
2.0187	-11.6924	2.38969	0	
2.0193	-6.80964	3.01649	0	
2.0200	-2.54426	0.254639	0	
2.0207	3.25516	0.254639	0	
2.0213	2.65651	1.48866	0	
2.0220	-7.72633	-1.2732	0	
2.0227	-17.7911	-5.83711	0	
2.0233	-19.3252	-10.1072	0	
2.0240	-17.4918	-12.2423	0	
2.0247	-14.7418	-10.4206	0	
2.0253	-6.80964	-6.44433	0	
2.0260	-0.411572	-4.91649	0	
2.0267	-2.54426	-5.83711	0	
2.0273	-5.89296	-6.75773	0	
2.0280	-2.84359	-6.15051	0	
2.0287	2.95583	-5.22989	0	
2.0293	5.38785	-4.91649	0	
2.0300	5.08852	-4.91649	0	
2.0307	5.08852	-4.91649	0	
2.0313	5.38785	-6.44433	0	
2.0320	4.47117	-8.57938	0	
2.0327	2.65651	-6.15051	0	
2.0333	-0.0935391	-1.88041	0	
2.0340	-5.59364	-2.17423	0	
2.0347	-10.4764	-3.70206	0	
2.0353	-11.0937	-1.56701	0	
2.0360	-10.4764	-2.17423	0	
2.0367	-12.3097	-5.83711	0	
2.0373	-13.5257	-4.91649	0	
2.0380	-8.64301	0.254639	0	
2.0387	-0.411572	2.09587	0	
2.0393	5.38785	2.09587	0	
2.0400	7.22122	2.38969	0	
2.0407	6.00521	1.48866	0	
2.0413	1.73983	-0.646391	0	
2.0420	-2.54426	-1.2732	0	
2.0427	-4.67695	0.568041	0	
2.0433	-5.59364	-0.646391	0	
2.0440	-6.21099	-4.01546	0	
2.0447	-6.51032	-3.09484	0	
2.0453	-7.427	-2.17423	0	
2.0460	-7.72633	-5.22989	0	
2.0467	-4.37763	-5.83711	0	
2.0473	-0.710897	-2.17423	0	
2.0480	0.823144	-1.2732	0	
2.0487	6.30453	-0.352577	0	
2.0493	16.388	2.38969	0	
2.0500	20.3541	2.09587	0	
2.0507	15.7707	0.568041	0	
2.0513	10.5886	3.31031	0	
2.0520	9.05458	3.31031	0	
2.0527	8.1379	-2.17423	0	
2.0533	2.65651	-5.83711	0	
2.0540	-1.32825	-5.22989	0	
2.0547	-1.62758	-4.30928	0	
2.0553	-6.51032	-4.01546	0	
2.0560	-13.8251	-4.91649	0	
2.0567	-10.7757	-7.36494	0	
2.0573	-2.84359	-7.07113	0	
2.0580	-2.22623	-4.01546	0	
2.0587	-1.9269	-4.91649	0	
2.0593	-0.710897	-8.57938	0	
2.0600	-4.37763	-7.67835	0	
2.0607	-5.89296	-4.91649	0	
2.0613	-3.76027	-6.75773	0	
2.0620	-3.76027	-8.28556	0	
2.0627	-3.46095	-5.22989	0	
2.0633	-1.62758	-3.70206	0	
2.0640	-4.67695	-4.01546	0	
2.0647	-7.12768	-2.17423	0	
2.0653	-2.84359	-0.352577	0	
2.0660	0.823144	0.254639	0	
2.0667	1.42179	0.254639	0	
2.0673	-0.411572	-0.352577	0	
2.0680	-4.67695	1.78247	0	
2.0687	-4.0596	5.44536	0	
2.0693	2.65651	3.91752	0	
2.0700	6.30453	-0.0391752	0	
2.0707	5.38785	0.568041	0	
2.0713	5.70588	3.31031	0	
2.0720	3.55448	2.09587	0	
2.0727	-1.01022	0.568041	0	
2.0733	-1.01022	1.48866	0	
2.0740	-0.710897	1.48866	0	
2.0747	-2.84359	0.254639	0	
2.0753	-1.9269	0.568041	0	
2.0760	0.823144	3.01649	0	
2.0767	1.12247	3.62371	0	
2.0773	-0.0935391	0.568041	0	
2.0780	-0.710897	-1.56701	0	
2.0787	-1.32825	-0.959793	0	
2.0793	-1.01022	-0.959793	0	
2.0800	2.33848	-3.09484	0	
2.0807	6.30453	-4.30928	0	
2.0813	6.00521	-6.15051	0	
2.0820	1.73983	-8.57938	0	
2.0827	-3.76027	-9.20618	0	
2.0833	-5.59364	-7.36494	0	
2.0840	-3.46095	-4.91649	0	
2.0847	-3.14291	-2.48763	0	
2.0853	-5.89296	-2.48763	0	
2.0860	-7.427	-3.70206	0	
2.0867	-9.26037	-3.09484	0	
2.0873	-10.7757	-2.17423	0	
2.0880	-2.54426	-1.56701	0	
2.0887	10.8879	-0.352577	0	
2.0893	16.6874	-0.352577	0	
2.0900	16.6874	-0.959793	0	
2.0907	15.4714	0.881443	0	
2.0913	10.8879	2.70309	0	
2.0920	9.05458	1.78247	0	
2.0927	13.638	2.38969	0	
2.0933	13.9373	3.62371	0	
2.0940	7.53925	-0.0391752	0	
2.0947	2.65651	-4.30928	0	
2.0953	-2.84359	-4.01546	0	
2.0960	-9.55969	-3.09484	0	
2.0967	-12.9084	-4.62268	0	
2.0973	-10.177	-3.70206	0	
2.0980	-6.51032	-0.646391	0	
2.0987	-6.51032	-0.0391752	0	
2.0993	-9.26037	-0.352577	0	
2.1000	-8.34368	-0.0391752	0	
2.1007	-5.29431	-0.0391752	0	
2.1013	-5.59364	-1.56701	0	
2.1020	-5.89296	-4.30928	0	
2.1027	-4.37763	-5.22989	0	
2.1033	-1.62758	-4.01546	0	
2.1040	3.55448	-5.83711	0	
2.1047	6.30453	-8.57938	0	
2.1053	6.30453	-5.5433	0	
2.1060	11.5053	-0.646391	0	
2.1067	19.4374	1.17526	0	
2.1073	15.4714	2.38969	0	
2.1080	7.22122	3.01649	0	
2.1087	5.38785	0.881443	0	
2.1093	4.17184	0.568041	0	
2.1100	-0.411572	1.48866	0	
2.1107	-3.76027	-0.0391752	0	
2.1113	-4.97628	-2.17423	0	
2.1120	-5.29431	-3.09484	0	
2.1127	-1.9269	-4.62268	0	
2.1133	3.25516	-4.01546	0	
2.1140	7.22122	-0.646391	0	
2.1147	8.43722	2.09587	0	
2.1153	5.38785	1.48866	0	
2.1160	2.95583	0.568041	0	
2.1167	4.47117	2.09587	0	
2.1173	3.55448	2.38969	0	
2.1180	-3.76027	-0.646391	0	
2.1187	-8.34368	-2.17423	0	
2.1193	-9.26037	-1.88041	0	
2.1200	-11.3931	-5.22989	0	
2.1207	-11.6924	-6.15051	0	
2.1213	-8.34368	-1.2732	0	
2.1220	-7.72633	-0.352577	0	
2.1227	-10.7757	-3.70206	0	
2.1233	-11.3931	-3.09484	0	
2.1240	-10.177	-2.48763	0	
2.1247	-10.177	-4.62268	0	
2.1253	-7.427	-2.78144	0	
2.1260	-2.84359	1.17526	0	
2.1267	-4.0596	-0.352577	0	
2.1273	-6.51032	-2.78144	0	
2.1280	-2.84359	-1.88041	0	
2.1287	0.823144	-0.646391	0	
2.1293	-0.710897	-0.352577	0	
2.1300	1.42179	1.48866	0	
2.1307	7.22122	3.31031	0	
2.1313	8.1379	2.38969	0	
2.1320	6.92189	0.881443	0	
2.1327	7.22122	2.09587	0	
2.1333	6.92189	4.54433	0	
2.1340	6.30453	4.23092	0	
2.1347	7.22122	1.78247	0	
2.1353	3.55448	1.48866	0	
2.1360	0.205786	2.70309	0	
2.1367	2.33848	2.38969	0	
2.1373	3.55448	1.78247	0	
2.1380	-1.01022	4.23092	0	
2.1387	-2.22623	5.75876	0	
2.1393	1.42179	3.91752	0	
2.1400	0.823144	1.48866	0	
2.1407	-4.97628	1.17526	0	
2.1413	-7.427	2.38969	0	
2.1420	-4.97628	3.31031	0	
2.1427	-2.84359	2.38969	0	
2.1433	-3.76027	0.568041	0	
2.1440	-4.67695	0.568041	0	
2.1447	-2.22623	1.48866	0	
2.1453	-0.0935391	0.568041	0	
2.1460	-1.9269	-0.352577	0	
2.1467	-5.59364	-1.88041	0	
2.1473	-8.02565	-4.01546	0	
2.1480	-11.0937	-5.83711	0	
2.1487	-12.6091	-7.07113	0	
2.1493	-5.59364	-6.44433	0	
2.1500	6.62257	-4.01546	0	
2.1507	11.8046	-2.17423	0	
2.1513	9.35391	-0.646391	0	
2.1520	7.22122	0.568041	0	
2.1527	4.7892	0.254639	0	
2.1533	0.823144	-0.959793	0	
2.1540	3.55448	-0.959793	0	
2.1547	7.83857	-0.646391	0	
2.1553	5.08852	-0.352577	0	
2.1560	3.25516	-0.352577	0	
2.1567	6.30453	-0.352577	0	
2.1573	3.87252	-0.0391752	0	
2.1580	-3.76027	-0.352577	0	
2.1587	-4.67695	-1.88041	0	
2.1593	-1.9269	-1.88041	0	
2.1600	1.12247	-1.88041	0	
2.1607	5.38785	-2.17423	0	
2.1613	2.65651	-0.0391752	0	
2.1620	-8.34368	2.09587	0	
2.1627	-16.5751	0.568041	0	
2.1633	-20.2419	0.881443	0	
2.1640	-24.8253	5.15154	0	
2.1647	-27.2573	4.83814	0	
2.1653	-24.5072	0.568041	0	
2.1660	-21.1585	-0.959793	0	
2.1667	-18.4085	-0.959793	0	
2.1673	-12.9084	-1.2732	0	
2.1680	-6.80964	-1.2732	0	
2.1687	-2.84359	-2.48763	0	
2.1693	0.823144	-2.48763	0	
2.1700	4.7892	0.568041	0	
2.1707	11.8046	3.31031	0	
2.1713	24.6195	3.62371	0	
2.1720	39.2677	4.54433	0	
2.1727	48.1165	5.75876	0	
2.1733	46.2831	3.31031	0	
2.1740	34.0856	-2.17423	0	
2.1747	18.2027	-6.75773	0	
2.1753	6.30453	-7.67835	0	
2.1760	-3.46095	-5.22989	0	
2.1767	-8.34368	-2.17423	0	
2.1773	-3.46095	0.254639	0	
2.1780	2.65651	1.48866	0	
2.1787	2.33848	3.31031	0	
2.1793	3.25516	4.23092	0	
2.1800	3.87252	1.48866	0	
2.1807	-2.22623	-1.56701	0	
2.1813	-6.51032	-3.70206	0	
2.1820	-4.37763	-4.91649	0	
2.1827	-3.76027	-4.30928	0	
2.1833	-3.76027	-3.09484	0	
2.1840	-2.22623	-3.09484	0	
2.1847	-4.37763	-4.62268	0	
2.1853	-4.67695	-4.91649	0	
2.1860	-0.0935391	-1.56701	0	
2.1867	-2.84359	2.09587	0	
2.1873	-6.21099	0.881443	0	
2.1880	4.47117	-3.09484	0	
2.1887	14.854	-5.22989	0	
2.1893	10.5886	-6.44433	0	
2.1900	5.38785	-4.91649	0	
2.1907	8.1379	-1.2732	0	
2.1913	9.05458	-1.56701	0	
2.1920	8.75526	-2.48763	0	
2.1927	11.5053	1.17526	0	
2.1933	11.5053	3.31031	0	
2.1940	6.30453	1.78247	0	
2.1947	1.12247	3.01649	0	
2.1953	-1.01022	3.31031	0	
2.1960	1.73983	-0.0391752	0	
2.1967	6.00521	0.254639	0	
2.1973	2.95583	1.48866	0	
2.1980	-4.37763	-0.352577	0	
2.1987	-4.37763	0.254639	0	
2.1993	-1.01022	2.70309	0	
2.2000	-2.84359	2.38969	0	
2.2007	-5.59364	2.38969	0	
2.2013	-3.46095	3.31031	0	
2.2020	-2.22623	2.09587	0	
2.2027	-4.0596	1.17526	0	
2.2033	-5.59364	1.78247	0	
2.2040	-5.29431	2.09587	0	
2.2047	-6.80964	3.01649	0	
2.2053	-11.0937	3.01649	0	
2.2060	-12.3097	0.881443	0	
2.2067	-12.6091	-0.959793	0	
2.2073	-18.4085	-1.56701	0	
2.2080	-25.4239	-1.56701	0	
2.2087	-26.3406	-0.0391752	0	
2.2093	-25.4239	0.568041	0	
2.2100	-27.8746	-0.646391	0	
2.2107	-30.0073	-0.0391752	0	
2.2113	-29.0906	3.62371	0	
2.2120	-27.5566	4.54433	0	
2.2127	-25.7419	3.01649	0	
2.2133	-20.2419	1.48866	0	
2.2140	-12.0104	0.568041	0	
2.2147	-5.59364	-0.0391752	0	
2.2153	0.823144	-0.0391752	0	
2.2160	9.35391	1.48866	0	
2.2167	16.6874	3.31031	0	
2.2173	18.8201	2.38969	0	
2.2180	20.0361	0.254639	0	
2.2187	20.3541	0.881443	0	
2.2193	20.9527	2.38969	0	
2.2200	28.2862	0.568041	0	
2.2207	32.8509	-0.352577	0	
2.2213	24.6195	0.568041	0	
2.2220	13.9373	-0.352577	0	
2.2227	11.1873	0.568041	0	
2.2233	10.8879	3.31031	0	
2.2240	7.22122	1.78247	0	
2.2247	1.73983	-2.17423	0	
2.2253	-1.01022	-1.2732	0	
2.2260	0.823144	-0.0391752	0	
2.2267	0.505111	0.568041	0	
2.2273	-2.22623	3.31031	0	
2.2280	-2.84359	3.31031	0	
2.2287	-4.67695	-1.88041	0	
2.2293	-6.80964	-3.09484	0	
2.2300	-1.62758	-0.0391752	0	
2.2307	8.1379	0.254639	0	
2.2313	14.5547	-0.646391	0	
2.2320	15.4714	1.48866	0	
2.2327	8.43722	2.09587	0	
2.2333	-1.32825	0.568041	0	
2.2340	-2.84359	0.254639	0	
2.2347	-0.411572	-0.352577	0	
2.2353	-4.97628	-2.78144	0	
2.2360	-10.177	-4.91649	0	
2.2367	-9.26037	-4.91649	0	
2.2373	-10.177	-3.40825	0	
2.2380	-12.3097	-2.48763	0	
2.2387	-12.9084	-3.09484	0	
2.2393	-13.2264	-1.2732	0	
2.2400	-8.64301	0.568041	0	
2.2407	4.7892	-0.0391752	0	
2.2413	15.1533	-0.352577	0	
2.2420	16.388	-0.352577	0	
2.2427	17.3047	-0.959793	0	
2.2433	15.4714	-0.352577	0	
2.2440	5.70588	-0.0391752	0	
2.2447	-2.84359	-3.70206	0	
2.2453	-2.84359	-7.67835	0	
2.2460	0.823144	-7.97216	0	
2.2467	4.7892	-6.75773	0	
2.2473	6.30453	-4.62268	0	
2.2480	3.87252	0.568041	0	
2.2487	0.505111	2.38969	0	
2.2493	-0.710897	-0.959793	0	
2.2500	1.12247	-2.48763	0	
2.2507	4.7892	-0.959793	0	
2.2513	7.83857	-1.2732	0	
2.2520	9.05458	-2.17423	0	
2.2527	8.1379	-0.0391752	0	
2.2533	6.30453	0.568041	0	
2.2540	5.38785	-1.2732	0	
2.2547	3.55448	-0.646391	0	
2.2553	-1.62758	-0.352577	0	
2.2560	-4.67695	-2.48763	0	
2.2567	-5.29431	-2.78144	0	
2.2573	-7.12768	-2.17423	0	
2.2580	-9.26037	-4.01546	0	
2.2587	-8.34368	-4.01546	0	
2.2593	-7.72633	-1.56701	0	
2.2600	-5.89296	-1.88041	0	
2.2607	-1.9269	-0.959793	0	
2.2613	-1.62758	3.31031	0	
2.2620	-2.84359	2.70309	0	
2.2627	-2.22623	-2.48763	0	
2.2633	-7.72633	-4.01546	0	
2.2640	-18.4085	-3.40825	0	
2.2647	-19.3252	-3.40825	0	
2.2653	-11.0937	-0.959793	0	
2.2660	-6.80964	1.78247	0	
2.2667	-6.51032	2.38969	0	
2.2673	-2.84359	2.38969	0	
2.2680	2.03915	3.01649	0	
2.2687	3.55448	3.01649	0	
2.2693	4.47117	3.31031	0	
2.2700	9.05458	3.31031	0	
2.2707	13.32	1.78247	0	
2.2713	14.5547	2.38969	0	
2.2720	15.7707	5.15154	0	
2.2727	16.07	5.15154	0	
2.2733	11.8046	3.31031	0	
2.2740	6.92189	4.23092	0	
2.2747	3.55448	5.15154	0	
2.2753	-0.411572	1.48866	0	
2.2760	-3.76027	-2.17423	0	
2.2767	-4.67695	-4.01546	0	
2.2773	-7.427	-5.83711	0	
2.2780	-12.6091	-7.07113	0	
2.2787	-16.2758	-6.15051	0	
2.2793	-16.5751	-4.91649	0	
2.2800	-16.5751	-4.01546	0	
2.2807	-17.1925	-4.62268	0	
2.2813	-17.4918	-7.07113	0	
2.2820	-15.0598	-6.15051	0	
2.2827	-12.0104	-2.17423	0	
2.2833	-14.1431	-2.48763	0	
2.2840	-17.7911	-4.30928	0	
2.2847	-15.3591	-2.17423	0	
2.2853	-9.26037	-0.646391	0	
2.2860	-8.64301	-1.88041	0	
2.2867	-11.6924	-1.88041	0	
2.2873	-12.0104	-1.56701	0	
2.2880	-7.427	-0.959793	0	
2.2887	-0.0935391	0.568041	0	
2.2893	5.38785	-0.646391	0	
2.2900	6.92189	-2.17423	0	
2.2907	6.30453	-0.646391	0	
2.2913	8.75526	-0.352577	0	
2.2920	11.8046	-2.17423	0	
2.2927	10.2706	-1.2732	0	
2.2933	6.62257	-0.0391752	0	
2.2940	4.47117	-0.646391	0	
2.2947	5.08852	0.254639	0	
2.2953	10.8879	1.48866	0	
2.2960	20.3541	0.254639	0	
2.2967	25.8355	-1.2732	0	
2.2973	24.6195	-0.352577	0	
2.2980	20.0361	1.78247	0	
2.2987	12.7213	2.38969	0	
2.2993	6.30453	1.48866	0	
2.3000	2.03915	0.568041	0	
2.3007	0.823144	-1.2732	0	
2.3013	-0.411572	-3.70206	0	
2.3020	-3.76027	-4.91649	0	
2.3027	-5.89296	-3.09484	0	
2.3033	-1.01022	0.568041	0	
2.3040	4.47117	2.38969	0	
2.3047	4.17184	1.48866	0	
2.3053	3.25516	1.17526	0	
2.3060	4.7892	3.01649	0	
2.3067	6.00521	5.15154	0	
2.3073	7.22122	6.97319	0	
2.3080	7.22122	7.28659	0	
2.3087	0.823144	4.83814	0	
2.3093	-5.59364	1.48866	0	
2.3100	-6.51032	1.48866	0	
2.3107	-2.84359	3.62371	0	
2.3113	4.47117	3.62371	0	
2.3120	9.05458	1.78247	0	
2.3127	6.30453	1.48866	0	
2.3133	0.823144	2.38969	0	
2.3140	-4.67695	0.254639	0	
2.3147	-11.0937	-1.88041	0	
2.3153	-12.6091	-2.17423	0	
2.3160	-7.72633	-3.09484	0	
2.3167	-6.21099	-2.17423	0	
2.3173	-8.94233	-0.352577	0	
2.3180	-11.3931	-2.17423	0	
2.3187	-15.6584	-4.30928	0	
2.3193	-18.1092	-1.2732	0	
2.3200	-15.6584	1.17526	0	
2.3207	-14.7418	0.568041	0	
2.3213	-16.8932	1.48866	0	
2.3220	-17.4918	3.31031	0	
2.3227	-14.7418	3.31031	0	
2.3233	-11.3931	1.78247	0	
2.3240	-9.55969	-0.352577	0	
2.3247	-7.72633	0.254639	0	
2.3253	-1.9269	1.48866	0	
2.3260	7.53925	-1.2732	0	
2.3267	14.2366	-3.09484	0	
2.3273	16.388	0.254639	0	
2.3280	15.4714	1.48866	0	
2.3287	13.638	-0.352577	0	
2.3293	11.8046	-1.2732	0	
2.3300	9.05458	-3.40825	0	
2.3307	6.00521	-4.91649	0	
2.3313	3.55448	-2.17423	0	
2.3320	1.42179	-0.959793	0	
2.3327	0.205786	-2.78144	0	
2.3333	-1.9269	-0.959793	0	
2.3340	-9.26037	3.01649	0	
2.3347	-15.0598	1.48866	0	
2.3353	-11.6924	-3.09484	0	
2.3360	-8.02565	-4.01546	0	
2.3367	-12.6091	-1.88041	0	
2.3373	-17.1925	-1.2732	0	
2.3380	-15.9765	-0.959793	0	
2.3387	-9.55969	-1.2732	0	
2.3393	4.17184	-2.48763	0	
2.3400	18.5207	-2.17423	0	
2.3407	24.9188	0.254639	0	
2.3413	24.9188	1.48866	0	
2.3420	19.4374	3.62371	0	
2.3427	9.35391	5.15154	0	
2.3433	5.70588	2.38969	0	
2.3440	7.53925	0.881443	0	
2.3447	6.30453	2.70309	0	
2.3453	3.87252	-0.352577	0	
2.3460	3.25516	-1.88041	0	
2.3467	1.73983	2.38969	0	
2.3473	0.505111	2.70309	0	
2.3480	-0.411572	-0.646391	0	
2.3487	-0.0935391	0.568041	0	
2.3493	5.08852	0.568041	0	
2.3500	9.05458	-2.48763	0	
2.3507	6.30453	-0.646391	0	
2.3513	2.33848	1.48866	0	
2.3520	-0.411572	-0.352577	0	
2.3527	-5.59364	-2.48763	0	
2.3533	-8.64301	-4.01546	0	
2.3540	-7.427	-6.15051	0	
2.3547	-8.02565	-5.83711	0	
2.3553	-11.0937	-3.70206	0	
2.3560	-10.4764	-2.17423	0	
2.3567	-8.34368	-2.48763	0	
2.3573	-10.7757	-4.91649	0	
2.3580	-12.6091	-4.91649	0	
2.3587	-8.34368	-1.2732	0	
2.3593	-4.0596	0.568041	0	
2.3600	-3.14291	-0.352577	0	
2.3607	-0.411572	-1.2732	0	
2.3613	5.70588	-1.88041	0	
2.3620	10.5886	-1.2732	0	
2.3627	13.638	3.01649	0	
2.3633	13.9373	7.28659	0	
2.3640	10.2706	5.15154	0	
2.3647	8.1379	2.38969	0	
2.3653	9.05458	4.83814	0	
2.3660	9.97126	4.23092	0	
2.3667	8.43722	-0.959793	0	
2.3673	5.38785	-1.2732	0	
2.3680	0.205786	1.17526	0	
2.3687	-4.37763	-1.2732	0	
2.3693	-4.67695	-2.48763	0	
2.3700	-3.76027	0.568041	0	
2.3707	-5.59364	0.568041	0	
2.3713	-8.02565	-0.352577	0	
2.3720	-7.72633	0.881443	0	
2.3727	-7.427	-0.352577	0	
2.3733	-6.51032	-1.88041	0	
2.3740	-2.84359	-0.646391	0	
2.3747	-4.67695	-1.56701	0	
2.3753	-15.3591	-1.2732	0	
2.3760	-20.2419	1.78247	0	
2.3767	-16.2758	2.09587	0	
2.3773	-12.9084	0.568041	0	
2.3780	-9.55969	2.09587	0	
2.3787	-5.59364	2.38969	0	
2.3793	-5.89296	0.568041	0	
2.3800	-6.80964	1.17526	0	
2.3807	-2.84359	1.78247	0	
2.3813	2.65651	-0.0391752	0	
2.3820	5.08852	-1.2732	0	
2.3827	3.55448	-0.352577	0	
2.3833	2.33848	0.881443	0	
2.3840	6.30453	1.48866	0	
2.3847	9.67194	0.568041	0	
2.3853	7.83857	-0.352577	0	
2.3860	3.25516	-2.17423	0	
2.3867	-2.84359	-5.5433	0	
2.3873	-5.59364	-4.01546	0	
2.3880	2.03915	-0.0391752	0	
2.3887	9.97126	-0.352577	0	
2.3893	9.05458	-1.88041	0	
2.3900	9.05458	-0.0391752	0	
2.3907	13.32	0.568041	0	
2.3913	13.0206	0.881443	0	
2.3920	11.8046	4.23092	0	
2.3927	15.7707	3.31031	0	
2.3933	21.5701	-0.352577	0	
2.3940	25.2368	1.17526	0	
2.3947	24.9188	6.05257	0	
2.3953	21.2708	6.67938	0	
2.3960	17.6041	6.05257	0	
2.3967	13.638	5.75876	0	
2.3973	8.75526	3.31031	0	
2.3980	5.70588	1.78247	0	
2.3987	0.505111	0.568041	0	
2.3993	-7.72633	-3.09484	0	
2.4000	-12.0104	-4.91649	0	
2.4007	-11.3931	-4.01546	0	
2.4013	-11.0937	-2.78144	0	
2.4020	-10.4764	-2.17423	0	
2.4027	-12.9084	-4.01546	0	
2.4033	-21.1585	-5.83711	0	
2.4040	-25.1246	-6.44433	0	
2.4047	-20.5412	-7.67835	0	
2.4053	-16.2758	-8.28556	0	
2.4060	-14.7418	-3.40825	0	
2.4067	-11.0937	0.254639	0	
2.4073	-4.37763	-1.2732	0	
2.4080	-1.01022	-0.959793	0	
2.4087	-3.14291	2.38969	0	
2.4093	-5.29431	2.38969	0	
2.4100	-5.59364	-0.352577	0	
2.4107	-7.427	-2.17423	0	
2.4113	-6.80964	-2.17423	0	
2.4120	-0.710897	-0.959793	0	
2.4127	0.823144	-0.646391	0	
2.4133	-8.02565	-2.17423	0	
2.4140	-12.0104	-0.959793	0	
2.4147	-8.02565	2.38969	0	
2.4153	-7.427	1.48866	0	
2.4160	-9.26037	-2.78144	0	
2.4167	-4.37763	-4.30928	0	
2.4173	-0.411572	-1.2732	0	
2.4180	-3.76027	0.568041	0	
2.4187	-5.89296	-1.56701	0	
2.4193	1.12247	-1.88041	0	
2.4200	13.0206	1.17526	0	
2.4207	19.4374	2.38969	0	
2.4213	15.4714	2.38969	0	
2.4220	10.2706	2.38969	0	
2.4227	11.8046	-0.646391	0	
2.4233	11.8046	-3.40825	0	
2.4240	6.62257	-2.78144	0	
2.4247	0.823144	-3.70206	0	
2.4253	-3.14291	-4.62268	0	
2.4260	-2.54426	-0.352577	0	
2.4267	3.25516	2.38969	0	
2.4273	6.62257	-0.0391752	0	
2.4280	4.47117	0.254639	0	
2.4287	2.65651	3.31031	0	
2.4293	1.42179	2.70309	0	
2.4300	-3.14291	-0.0391752	0	
2.4307	-6.80964	-2.78144	0	
2.4313	-4.37763	-4.30928	0	
2.4320	-2.54426	-3.09484	0	
2.4327	-6.51032	-0.959793	0	
2.4333	-7.72633	-2.48763	0	
2.4340	-3.14291	-4.01546	0	
2.4347	-1.9269	-1.56701	0	
2.4353	-4.67695	0.568041	0	
2.4360	-2.84359	-0.352577	0	
2.4367	0.505111	-2.17423	0	
2.4373	1.73983	-3.09484	0	
2.4380	2.95583	-4.91649	0	
2.4387	5.70588	-6.75773	0	
2.4393	9.97126	-6.75773	0	
2.4400	14.854	-5.5433	0	
2.4407	14.2366	-4.01546	0	
2.4413	9.67194	-0.352577	0	
2.4420	6.30453	2.09587	0	
2.4427	2.33848	0.568041	0	
2.4433	-1.32825	-1.56701	0	
2.4440	-1.01022	-0.646391	0	
2.4447	0.823144	-0.646391	0	
2.4453	0.505111	-2.17423	0	
2.4460	-0.0935391	-1.2732	0	
2.4467	-1.32825	0.881443	0	
2.4473	-1.9269	0.254639	0	
2.4480	-1.9269	1.48866	0	
2.4487	-2.84359	4.54433	0	
2.4493	-6.51032	4.83814	0	
2.4500	-6.80964	3.01649	0	
2.4507	-3.46095	3.01649	0	
2.4513	-2.22623	1.78247	0	
2.4520	-5.59364	-0.352577	0	
2.4527	-10.177	-0.352577	0	
2.4533	-12.0104	2.70309	0	
2.4540	-11.6924	3.62371	0	
2.4547	-12.9084	-0.352577	0	
2.4553	-12.9084	-3.70206	0	
2.4560	-7.427	-0.352577	0	
2.4567	0.823144	2.38969	0	
2.4573	3.25516	-0.959793	0	
2.4580	1.73983	-1.56701	0	
2.4587	0.823144	1.78247	0	
2.4593	-1.01022	2.38969	0	
2.4600	-2.84359	1.48866	0	
2.4607	-3.14291	1.17526	0	
2.4613	-4.67695	-1.56701	0	
2.4620	-4.37763	-4.01546	0	
2.4627	-2.54426	-4.62268	0	
2.4633	-3.76027	-5.83711	0	
2.4640	-3.14291	-6.44433	0	
2.4647	0.505111	-5.83711	0	
2.4653	-1.62758	-6.75773	0	
2.4660	-4.97628	-5.83711	0	
2.4667	-3.46095	-4.01546	0	
2.4673	-1.32825	-4.01546	0	
2.4680	2.65651	-0.959793	0	
2.4687	10.2706	0.254639	0	
2.4693	12.7213	-4.30928	0	
2.4700	9.05458	-4.91649	0	
2.4707	6.92189	0.568041	0	
2.4713	2.33848	-0.0391752	0	
2.4720	-4.37763	-2.48763	0	
2.4727	-7.72633	-0.352577	0	
2.4733	-10.7757	0.568041	0	
2.4740	-12.9084	-0.646391	0	
2.4747	-8.94233	0.881443	0	
2.4753	-3.76027	2.09587	0	
2.4760	-3.14291	0.568041	0	
2.4767	-0.0935391	1.17526	0	
2.4773	6.30453	2.70309	0	
2.4780	9.35391	0.881443	0	
2.4787	11.8046	-1.88041	0	
2.4793	12.7213	-1.2732	0	
2.4800	10.5886	0.568041	0	
2.4807	14.2366	-1.56701	0	
2.4813	21.8694	-4.01546	0	
2.4820	18.2027	-2.78144	0	
2.4827	7.22122	-0.646391	0	
2.4833	2.33848	0.254639	0	
2.4840	0.823144	1.48866	0	
2.4847	-3.46095	1.48866	0	
2.4853	-8.02565	-1.2732	0	
2.4860	-7.427	-0.0391752	0	
2.4867	0.205786	4.54433	0	
2.4873	9.67194	5.15154	0	
2.4880	14.5547	3.62371	0	
2.4887	13.638	4.23092	0	
2.4893	9.35391	4.54433	0	
2.4900	8.1379	2.70309	0	
2.4907	11.8046	2.38969	0	
2.4913	13.638	0.568041	0	
2.4920	10.5886	-4.01546	0	
2.4927	7.22122	-4.62268	0	
2.4933	2.65651	-3.40825	0	
2.4940	0.823144	-4.91649	0	
2.4947	6.30453	-3.40825	0	
2.4953	9.67194	0.254639	0	
2.4960	7.22122	0.254639	0	
2.4967	7.22122	-0.646391	0	
2.4973	5.38785	0.568041	0	
2.4980	-1.9269	-0.0391752	0	
2.4987	-8.34368	-0.959793	0	
2.4993	-12.9084	-0.959793	0	
2.5000	-15.6584	-3.09484	0	
2.5007	-13.5257	-6.15051	0	
2.5013	-13.2264	-6.44433	0	
2.5020	-19.9425	-7.36494	0	
2.5027	-24.8253	-10.1072	0	
2.5033	-26.6586	-10.4206	0	
2.5040	-33.0567	-7.36494	0	
2.5047	-40.9888	-3.70206	0	
2.5053	-42.2048	-3.70206	0	
2.5060	-37.9394	-5.83711	0	
2.5067	-31.5414	-4.30928	0	
2.5073	-19.3252	-1.2732	0	
2.5080	-0.411572	-0.0391752	0	
2.5087	14.5547	1.48866	0	
2.5093	20.9527	3.62371	0	
2.5100	24.6195	3.62371	0	
2.5107	25.5362	3.01649	0	
2.5113	24.3202	3.31031	0	
2.5120	24.9188	4.23092	0	
2.5127	20.9527	2.70309	0	
2.5133	10.8879	-0.352577	0	
2.5140	4.47117	-0.0391752	0	
2.5147	1.73983	2.09587	0	
2.5153	-0.411572	0.568041	0	
2.5160	-0.710897	-0.646391	0	
2.5167	-1.32825	2.38969	0	
2.5173	-5.29431	3.01649	0	
2.5180	-6.51032	0.254639	0	
2.5187	-4.67695	0.568041	0	
2.5193	-5.59364	2.38969	0	
2.5200	-1.62758	2.70309	0	
2.5207	4.17184	2.38969	0	
2.5213	0.823144	0.254639	0	
2.5220	-5.59364	-0.352577	0	
2.5227	-6.51032	3.01649	0	
2.5233	-8.02565	2.38969	0	
2.5240	-9.85902	-2.17423	0	
2.5247	-7.72633	-2.78144	0	
2.5253	-7.72633	-1.2732	0	
2.5260	-11.3931	-1.2732	0	
2.5267	-8.64301	0.568041	0	
2.5273	1.73983	3.62371	0	
2.5280	6.62257	2.09587	0	
2.5287	-1.62758	-1.2732	0	
2.5293	-9.55969	-3.09484	0	
2.5300	-5.29431	-4.01546	0	
2.5307	2.03915	-2.78144	0	
2.5313	1.73983	-3.09484	0	
2.5320	2.03915	-5.83711	0	
2.5327	7.22122	-4.62268	0	
2.5333	10.2706	-0.0391752	0	
2.5340	10.2706	-0.352577	0	
2.5347	9.05458	-2.17423	0	
2.5353	7.53925	0.568041	0	
2.5360	8.1379	2.38969	0	
2.5367	10.2706	2.38969	0	
2.5373	9.05458	2.70309	0	
2.5380	5.70588	1.48866	0	
2.5387	3.87252	-0.352577	0	
2.5393	1.73983	0.881443	0	
2.5400	-1.32825	4.23092	0	
2.5407	-2.54426	5.15154	0	
2.5413	-1.9269	3.91752	0	
2.5420	-0.411572	2.70309	0	
2.5427	2.03915	2.09587	0	
2.5433	2.65651	0.881443	0	
2.5440	-0.710897	1.17526	0	
2.5447	-2.54426	2.38969	0	
2.5453	-1.9269	2.09587	0	
2.5460	-4.0596	1.78247	0	
2.5467	-8.64301	2.38969	0	
2.5473	-10.177	0.568041	0	
2.5480	-8.34368	-1.2732	0	
2.5487	-7.427	0.568041	0	
2.5493	-8.34368	0.254639	0	
2.5500	-8.94233	-3.09484	0	
2.5507	-10.177	-3.40825	0	
2.5513	-8.34368	-1.88041	0	
2.5520	2.95583	-1.88041	0	
2.5527	19.1194	-0.646391	0	
2.5533	27.0702	2.09587	0	
2.5540	23.4035	3.91752	0	
2.5547	16.6874	5.15154	0	
2.5553	13.638	5.44536	0	
2.5560	10.8879	3.31031	0	
2.5567	6.92189	0.568041	0	
2.5573	5.38785	0.568041	0	
2.5580	6.30453	-0.646391	0	
2.5587	2.65651	-2.78144	0	
2.5593	-6.51032	-1.2732	0	
2.5600	-14.4424	1.48866	0	
2.5607	-18.4085	0.254639	0	
2.5613	-19.3252	-1.2732	0	
2.5620	-16.5751	-0.959793	0	
2.5627	-12.9084	-0.959793	0	
2.5633	-13.5257	-3.09484	0	
2.5640	-18.7078	-5.5433	0	
2.5647	-22.6739	-7.67835	0	
2.5653	-23.9086	-8.57938	0	
2.5660	-24.5072	-7.67835	0	
2.5667	-20.2419	-5.83711	0	
2.5673	-8.34368	-4.91649	0	
2.5680	2.03915	-4.91649	0	
2.5687	6.00521	-5.83711	0	
2.5693	8.1379	-5.83711	0	
2.5700	6.62257	-5.5433	0	
2.5707	2.95583	-4.91649	0	
2.5713	4.7892	-3.09484	0	
2.5720	9.67194	-2.17423	0	
2.5727	15.1533	-2.17423	0	
2.5733	26.7522	-2.17423	0	
2.5740	35.3016	-1.2732	0	
2.5747	26.7522	-1.56701	0	
2.5753	13.9373	-0.959793	0	
2.5760	10.8879	1.78247	0	
2.5767	9.67194	2.38969	0	
2.5773	5.38785	0.881443	0	
2.5780	3.55448	2.38969	0	
2.5787	0.823144	3.31031	0	
2.5793	-5.29431	1.78247	0	
2.5800	-5.89296	3.62371	0	
2.5807	-2.84359	4.83814	0	
2.5813	-6.51032	-0.352577	0	
2.5820	-11.0937	-0.352577	0	
2.5827	-8.34368	5.15154	0	
2.5833	-6.80964	1.48866	0	
2.5840	-13.8251	-4.91649	0	
2.5847	-18.7078	-1.56701	0	
2.5853	-16.5751	-0.352577	0	
2.5860	-14.4424	-5.83711	0	
2.5867	-14.7418	-5.83711	0	
2.5873	-13.8251	-2.48763	0	
2.5880	-10.177	-0.959793	0	
2.5887	-5.29431	1.48866	0	
2.5893	0.823144	2.09587	0	
2.5900	7.22122	2.38969	0	
2.5907	11.1873	6.05257	0	
2.5913	9.35391	7.58041	0	
2.5920	5.38785	4.83814	0	
2.5927	6.92189	3.91752	0	
2.5933	12.7213	3.62371	0	
2.5940	14.854	3.01649	0	
2.5947	14.854	5.15154	0	
2.5953	13.638	7.28659	0	
2.5960	6.62257	6.67938	0	
2.5967	-1.9269	4.54433	0	
2.5973	-2.22623	2.38969	0	
2.5980	1.73983	0.254639	0	
2.5987	1.42179	0.881443	0	
2.5993	-2.22623	1.48866	0	
2.6000	-3.46095	-0.352577	0	
2.6007	-3.46095	-1.56701	0	
2.6013	-5.29431	-0.646391	0	
2.6020	-5.89296	-0.352577	0	
2.6027	-2.22623	0.568041	0	
2.6033	1.12247	0.881443	0	
2.6040	-1.62758	0.254639	0	
2.6047	-6.21099	-1.2732	0	
2.6053	-6.21099	-1.56701	0	
2.6060	-3.14291	-0.352577	0	
2.6067	-0.411572	0.568041	0	
2.6073	0.205786	0.568041	0	
2.6080	-1.62758	-0.352577	0	
2.6087	-4.37763	0.568041	0	
2.6093	-5.59364	2.38969	0	
2.6100	-5.89296	2.38969	0	
2.6107	-6.51032	0.881443	0	
2.6113	-8.34368	1.78247	0	
2.6120	-8.64301	3.31031	0	
2.6127	-2.84359	2.38969	0	
2.6133	4.47117	2.38969	0	
2.6140	9.97126	3.62371	0	
2.6147	18.2027	4.54433	0	
2.6153	23.0854	4.23092	0	
2.6160	18.2027	4.23092	0	
2.6167	10.8879	3.31031	0	
2.6173	4.47117	1.78247	0	
2.6180	-5.29431	0.568041	0	
2.6187	-11.6924	-0.352577	0	
2.6193	-12.9084	-0.352577	0	
2.6200	-16.8932	-0.959793	0	
2.6207	-18.4085	-2.17423	0	
2.6213	-12.3097	-4.01546	0	
2.6220	-5.59364	-4.01546	0	
2.6227	3.55448	-2.17423	0	
2.6233	17.3047	0.568041	0	
2.6240	25.8355	2.38969	0	
2.6247	23.0854	2.38969	0	
2.6253	16.388	2.38969	0	
2.6260	8.75526	2.38969	0	
2.6267	0.823144	0.568041	0	
2.6273	-1.62758	-0.352577	0	
2.6280	2.65651	1.17526	0	
2.6287	8.1379	3.31031	0	
2.6293	9.97126	3.62371	0	
2.6300	7.22122	4.83814	0	
2.6307	2.33848	6.05257	0	
2.6313	-0.710897	5.44536	0	
2.6320	-0.0935391	3.62371	0	
2.6327	0.505111	1.78247	0	
2.6333	0.823144	1.48866	0	
2.6340	1.73983	-0.352577	0	
2.6347	0.823144	-3.70206	0	
2.6353	-3.46095	-3.09484	0	
2.6360	-7.427	-0.959793	0	
2.6367	-7.72633	-0.646391	0	
2.6373	-4.37763	0.568041	0	
2.6380	0.505111	2.38969	0	
2.6387	2.65651	0.881443	0	
2.6393	0.505111	1.17526	0	
2.6400	-3.76027	3.31031	0	
2.6407	-6.80964	2.09587	0	
2.6413	-7.427	0.568041	0	
2.6420	-8.34368	3.01649	0	
2.6427	-11.3931	2.70309	0	
2.6433	-13.2264	-0.352577	0	
2.6440	-12.6091	-0.646391	0	
2.6447	-12.9084	-1.2732	0	
2.6453	-13.8251	-4.30928	0	
2.6460	-13.8251	-5.22989	0	
2.6467	-17.4918	-3.40825	0	
2.6473	-18.4085	-4.30928	0	
2.6480	-9.85902	-6.44433	0	
2.6487	-2.22623	-5.5433	0	
2.6493	-0.710897	-3.70206	0	
2.6500	4.47117	-1.56701	0	
2.6507	13.9373	0.568041	0	
2.6513	18.2027	0.254639	0	
2.6520	17.3047	-3.70206	0	
2.6527	14.5547	-6.75773	0	
2.6533	10.8879	-6.75773	0	
2.6540	9.97126	-3.70206	0	
2.6547	9.67194	-2.17423	0	
2.6553	3.25516	-5.83711	0	
2.6560	-3.76027	-7.67835	0	
2.6567	-2.84359	-4.91649	0	
2.6573	-0.0935391	-4.91649	0	
2.6580	-1.9269	-5.5433	0	
2.6587	-3.76027	-2.17423	0	
2.6593	-4.0596	-1.56701	0	
2.6600	-5.29431	-4.91649	0	
2.6607	-5.59364	-3.40825	0	
2.6613	-4.37763	0.254639	0	
2.6620	-5.59364	-1.2732	0	
2.6627	-7.427	-3.40825	0	
2.6633	-6.51032	-2.48763	0	
2.6640	-5.59364	-2.17423	0	
2.6647	-5.59364	-1.56701	0	
2.6653	-3.14291	-1.2732	0	
2.6660	-1.62758	-0.646391	0	
2.6667	-3.46095	0.254639	0	
2.6673	-4.67695	-0.352577	0	
2.6680	-3.76027	-2.78144	0	
2.6687	-2.54426	-1.88041	0	
2.6693	-1.32825	-0.0391752	0	
2.6700	-2.54426	-1.2732	0	
2.6707	-3.76027	-1.88041	0	
2.6713	-1.32825	-0.352577	0	
2.6720	2.33848	-1.56701	0	
2.6727	5.38785	-3.09484	0	
2.6733	8.1379	-2.17423	0	
2.6740	6.00521	-2.48763	0	
2.6747	1.12247	-4.62268	0	
2.6753	1.73983	-3.09484	0	
2.6760	4.47117	-2.17423	0	
2.6767	1.42179	-4.01546	0	
2.6773	-5.89296	-4.01546	0	
2.6780	-11.3931	-2.17423	0	
2.6787	-13.2264	-2.78144	0	
2.6793	-10.177	-5.83711	0	
2.6800	-4.67695	-5.22989	0	
2.6807	-0.0935391	-3.40825	0	
2.6813	3.55448	-4.91649	0	
2.6820	4.7892	-6.75773	0	
2.6827	2.33848	-6.15051	0	
2.6833	0.505111	-4.62268	0	
2.6840	-0.0935391	-3.09484	0	
2.6847	-4.37763	-2.48763	0	
2.6853	-8.34368	-3.40825	0	
2.6860	-6.80964	-4.30928	0	
2.6867	-3.76027	-3.09484	0	
2.6873	-2.54426	-0.646391	0	
2.6880	-2.54426	-0.352577	0	
2.6887	-3.14291	-0.959793	0	
2.6893	-1.62758	-1.2732	0	
2.6900	2.65651	-0.646391	0	
2.6907	5.08852	0.568041	0	
2.6913	6.00521	0.568041	0	
2.6920	6.62257	0.881443	0	
2.6927	8.1379	3.31031	0	
2.6933	9.05458	3.31031	0	
2.6940	9.05458	0.881443	0	
2.6947	9.67194	1.78247	0	
2.6953	13.32	6.05257	0	
2.6960	16.388	9.10824	0	
2.6967	16.388	10.6361	0	
2.6973	15.4714	8.50103	0	
2.6980	13.0206	5.15154	0	
2.6987	9.05458	6.67938	0	
2.6993	6.30453	8.50103	0	
2.7000	0.823144	4.23092	0	
2.7007	-8.34368	2.38969	0	
2.7013	-16.5751	4.54433	0	
2.7020	-19.9425	1.78247	0	
2.7027	-20.2419	-2.78144	0	
2.7033	-20.8592	-3.09484	0	
2.7040	-21.1585	-4.91649	0	
2.7047	-19.9425	-8.57938	0	
2.7053	-15.6584	-5.5433	0	
2.7060	-10.4764	-0.646391	0	
2.7067	-7.12768	-0.0391752	0	
2.7073	-4.67695	-0.646391	0	
2.7080	-1.9269	-0.352577	0	
2.7087	1.42179	0.568041	0	
2.7093	4.47117	1.78247	0	
2.7100	12.7213	3.91752	0	
2.7107	23.0854	5.15154	0	
2.7113	21.8694	4.83814	0	
2.7120	12.7213	4.23092	0	
2.7127	11.8046	5.15154	0	
2.7133	13.0206	6.05257	0	
2.7140	6.30453	4.54433	0	
2.7147	0.823144	3.01649	0	
2.7153	-0.0935391	3.01649	0	
2.7160	-6.80964	0.881443	0	
2.7167	-15.0598	-1.88041	0	
2.7173	-14.7418	-0.959793	0	
2.7180	-7.72633	-1.2732	0	
2.7187	-3.14291	-5.22989	0	
2.7193	-4.67695	-8.57938	0	
2.7200	-6.51032	-8.28556	0	
2.7207	-2.22623	-6.75773	0	
2.7213	0.823144	-6.75773	0	
2.7220	-3.76027	-8.57938	0	
2.7227	-5.89296	-8.57938	0	
2.7233	-4.37763	-5.83711	0	
2.7240	-7.427	-3.40825	0	
2.7247	-8.64301	-2.17423	0	
2.7253	-5.29431	-2.78144	0	
2.7260	-5.59364	-7.07113	0	
2.7267	-8.02565	-9.8134	0	
2.7273	-4.67695	-6.15051	0	
2.7280	-2.84359	-3.09484	0	
2.7287	-4.67695	-3.40825	0	
2.7293	-3.76027	-2.17423	0	
2.7300	-4.0596	-1.2732	0	
2.7307	-4.97628	-1.88041	0	
2.7313	2.65651	1.17526	0	
2.7320	13.32	5.75876	0	
2.7327	15.4714	4.23092	0	
2.7333	13.0206	1.48866	0	
2.7340	9.97126	3.01649	0	
2.7347	5.38785	4.83814	0	
2.7353	2.03915	6.05257	0	
2.7360	2.03915	6.97319	0	
2.7367	5.38785	4.54433	0	
2.7373	10.5886	2.38969	0	
2.7380	13.0206	3.91752	0	
2.7387	11.8046	4.23092	0	
2.7393	11.8046	1.48866	0	
2.7400	11.5053	3.01649	0	
2.7407	6.30453	4.23092	0	
2.7413	-1.01022	1.48866	0	
2.7420	-4.67695	-0.352577	0	
2.7427	-6.80964	-1.56701	0	
2.7433	-10.177	-3.09484	0	
2.7440	-11.0937	-3.40825	0	
2.7447	-7.72633	-2.17423	0	
2.7453	-3.14291	-2.17423	0	
2.7460	0.823144	-0.646391	0	
2.7467	3.55448	-0.646391	0	
2.7473	1.42179	-2.78144	0	
2.7480	-2.22623	-2.17423	0	
2.7487	-0.0935391	0.254639	0	
2.7493	1.73983	-0.352577	0	
2.7500	-1.32825	-0.352577	0	
2.7507	-4.97628	1.78247	0	
2.7513	-7.12768	2.38969	0	
2.7520	-10.177	3.31031	0	
2.7527	-12.6091	4.83814	0	
2.7533	-14.7418	1.78247	0	
2.7540	-18.4085	-0.646391	0	
2.7547	-19.3252	0.254639	0	
2.7553	-14.4424	-0.352577	0	
2.7560	-7.427	-0.352577	0	
2.7567	0.505111	3.62371	0	
2.7573	9.35391	3.31031	0	
2.7580	13.0206	-1.88041	0	
2.7587	10.8879	-2.17423	0	
2.7593	13.0206	0.881443	0	
2.7600	21.8694	1.48866	0	
2.7607	26.7522	-0.0391752	0	
2.7613	24.0021	-2.78144	0	
2.7620	17.3047	-4.62268	0	
2.7627	5.38785	-4.30928	0	
2.7633	-4.97628	-3.70206	0	
2.7640	-6.51032	-3.40825	0	
2.7647	-5.29431	-3.40825	0	
2.7653	-6.51032	-4.01546	0	
2.7660	-6.80964	-2.17423	0	
2.7667	-6.80964	1.48866	0	
2.7673	-4.0596	1.48866	0	
2.7680	6.00521	1.48866	0	
2.7687	15.4714	5.44536	0	
2.7693	18.2027	7.89381	0	
2.7700	18.2027	6.67938	0	
2.7707	16.9867	6.05257	0	
2.7713	12.422	5.15154	0	
2.7720	6.62257	1.48866	0	
2.7727	-0.411572	-0.352577	0	
2.7733	-5.89296	-1.88041	0	
2.7740	-6.51032	-5.5433	0	
2.7747	-6.21099	-6.75773	0	
2.7753	-8.02565	-4.01546	0	
2.7760	-7.72633	-3.70206	0	
2.7767	-7.12768	-5.83711	0	
2.7773	-8.02565	-6.44433	0	
2.7780	-4.97628	-6.75773	0	
2.7787	-0.0935391	-7.07113	0	
2.7793	2.65651	-6.15051	0	
2.7800	4.47117	-4.01546	0	
2.7807	2.65651	-2.78144	0	
2.7813	-4.97628	-2.48763	0	
2.7820	-8.94233	-4.62268	0	
2.7827	-12.9084	-6.44433	0	
2.7833	-24.5072	-6.44433	0	
2.7840	-31.8407	-7.67835	0	
2.7847	-26.6586	-7.67835	0	
2.7853	-20.2419	-4.91649	0	
2.7860	-16.2758	-2.48763	0	
2.7867	-11.3931	-2.17423	0	
2.7873	-8.34368	-2.17423	0	
2.7880	-5.89296	-1.2732	0	
2.7887	0.823144	1.48866	0	
2.7893	8.75526	2.38969	0	
2.7900	12.422	0.568041	0	
2.7907	11.8046	-0.646391	0	
2.7913	10.8879	-2.17423	0	
2.7920	15.4714	-6.75773	0	
2.7927	24.3202	-8.57938	0	
2.7933	27.3695	-5.83711	0	
2.7940	21.2708	-2.48763	0	
2.7947	11.8046	-3.09484	0	
2.7953	4.47117	-4.91649	0	
2.7960	1.73983	-4.91649	0	
2.7967	4.47117	-3.40825	0	
2.7973	6.00521	-1.88041	0	
2.7980	0.823144	-0.646391	0	
2.7987	-3.76027	0.568041	0	
2.7993	-4.0596	-0.0391752	0	
2.8000	-4.67695	-1.56701	0	
2.8007	-7.12768	-2.17423	0	
2.8013	-7.427	-2.48763	0	
2.8020	-8.02565	-1.2732	0	
2.8027	-9.85902	1.17526	0	
2.8033	-9.26037	-0.352577	0	
2.8040	-6.51032	-2.48763	0	
2.8047	-4.97628	-2.17423	0	
2.8053	-4.97628	-3.09484	0	
2.8060	-5.89296	-4.91649	0	
2.8067	-5.59364	-2.78144	0	
2.8073	-0.710897	-0.959793	0	
2.8080	4.17184	-0.959793	0	
2.8087	2.65651	-0.959793	0	
2.8093	0.823144	-0.959793	0	
2.8100	5.38785	1.17526	0	
2.8107	8.75526	2.09587	0	
2.8113	8.1379	-1.2732	0	
2.8120	8.43722	-0.352577	0	
2.8127	9.05458	5.15154	0	
2.8133	7.83857	4.23092	0	
2.8140	6.62257	-0.646391	0	
2.8147	7.22122	-0.352577	0	
2.8153	8.1379	0.568041	0	
2.8160	7.83857	-1.2732	0	
2.8167	4.7892	-0.0391752	0	
2.8173	-0.0935391	3.31031	0	
2.8180	-5.59364	2.09587	0	
2.8187	-9.26037	-1.88041	0	
2.8193	-10.4764	-4.01546	0	
2.8200	-10.4764	-3.09484	0	
2.8207	-10.177	-1.88041	0	
2.8213	-9.55969	-1.56701	0	
2.8220	-11.6924	-1.2732	0	
2.8227	-13.5257	-0.646391	0	
2.8233	-11.6924	-1.2732	0	
2.8240	-9.26037	-1.2732	0	
2.8247	-7.427	0.568041	0	
2.8253	-3.76027	1.78247	0	
2.8260	-1.01022	2.09587	0	
2.8267	-1.32825	3.01649	0	
2.8273	0.505111	4.83814	0	
2.8280	5.70588	6.05257	0	
2.8287	9.05458	5.75876	0	
2.8293	8.43722	5.75876	0	
2.8300	4.47117	7.28659	0	
2.8307	-0.0935391	7.89381	0	
2.8313	-1.01022	6.05257	0	
2.8320	-3.14291	4.54433	0	
2.8327	-11.0937	3.31031	0	
2.8333	-15.0598	2.38969	0	
2.8340	-8.94233	3.31031	0	
2.8347	1.12247	5.15154	0	
2.8353	10.2706	4.23092	0	
2.8360	17.3047	2.38969	0	
2.8367	20.3541	3.01649	0	
2.8373	21.8694	3.91752	0	
2.8380	20.9527	3.31031	0	
2.8387	13.9373	0.568041	0	
2.8393	4.47117	-0.646391	0	
2.8400	-2.22623	-0.646391	0	
2.8407	-4.37763	-2.17423	0	
2.8413	-4.37763	-4.91649	0	
2.8420	-5.59364	-5.83711	0	
2.8427	-10.7757	-4.62268	0	
2.8433	-17.1925	-3.09484	0	
2.8440	-19.6245	-4.01546	0	
2.8447	-19.3252	-6.15051	0	
2.8453	-19.0258	-5.83711	0	
2.8460	-16.8932	-2.78144	0	
2.8467	-12.9084	-1.56701	0	
2.8473	-10.177	-2.17423	0	
2.8480	-8.64301	-1.2732	0	
2.8487	-7.72633	0.254639	0	
2.8493	-7.427	0.254639	0	
2.8500	-4.67695	2.09587	0	
2.8507	2.03915	5.15154	0	
2.8513	9.67194	3.91752	0	
2.8520	17.3047	0.568041	0	
2.8527	23.0854	1.17526	0	
2.8533	22.4868	4.23092	0	
2.8540	18.8201	5.15154	0	
2.8547	16.6874	5.15154	0	
2.8553	12.7213	5.44536	0	
2.8560	8.1379	3.91752	0	
2.8567	6.62257	1.48866	0	
2.8573	6.30453	1.48866	0	
2.8580	6.30453	3.31031	0	
2.8587	7.22122	5.15154	0	
2.8593	5.38785	6.36598	0	
2.8600	-1.9269	7.89381	0	
2.8607	-14.7418	7.28659	0	
2.8613	-26.0413	3.31031	0	
2.8620	-25.4239	-0.0391752	0	
2.8627	-15.0598	0.254639	0	
2.8633	-8.64301	-0.352577	0	
2.8640	-6.80964	-2.17423	0	
2.8647	-4.67695	-3.09484	0	
2.8653	-4.0596	-4.01546	0	
2.8660	-4.0596	-4.01546	0	
2.8667	-1.62758	-2.17423	0	
2.8673	-1.01022	-2.17423	0	
2.8680	-2.54426	-6.15051	0	
2.8687	-0.710897	-8.57938	0	
2.8693	5.38785	-7.97216	0	
2.8700	13.638	-7.97216	0	
2.8707	19.1194	-9.20618	0	
2.8713	14.854	-9.20618	0	
2.8720	7.83857	-8.28556	0	
2.8727	5.08852	-8.57938	0	
2.8733	3.55448	-7.97216	0	
2.8740	2.95583	-5.5433	0	
2.8747	4.47117	-3.09484	0	
2.8753	6.30453	-1.2732	0	
2.8760	8.43722	0.568041	0	
2.8767	13.638	1.48866	0	
2.8773	15.4714	0.254639	0	
2.8780	9.97126	-0.352577	0	
2.8787	3.87252	1.17526	0	
2.8793	2.95583	1.78247	0	
2.8800	4.47117	1.48866	0	
2.8807	2.65651	2.70309	0	
2.8813	-2.22623	2.70309	0	
2.8820	-4.97628	1.48866	0	
2.8827	-2.84359	2.38969	0	
2.8833	-1.62758	3.01649	0	
2.8840	-5.59364	-2.17423	0	
2.8847	-15.3591	-5.83711	0	
2.8853	-25.1246	-4.01546	0	
2.8860	-26.6586	-2.78144	0	
2.8867	-20.5412	-3.09484	0	
2.8873	-16.5751	-2.48763	0	
2.8880	-15.0598	-2.48763	0	
2.8887	-12.6091	-2.17423	0	
2.8893	-12.0104	-2.17423	0	
2.8900	-14.7418	-5.83711	0	
2.8907	-14.1431	-7.67835	0	
2.8913	-8.34368	-3.09484	0	
2.8920	-2.84359	-1.2732	0	
2.8927	-0.0935391	-3.70206	0	
2.8933	2.65651	-3.40825	0	
2.8940	6.92189	-3.09484	0	
2.8947	9.97126	-4.01546	0	
2.8953	11.1873	-1.56701	0	
2.8960	11.5053	1.78247	0	
2.8967	11.5053	2.09587	0	
2.8973	10.8879	2.38969	0	
2.8980	7.53925	3.62371	0	
2.8987	2.65651	4.23092	0	
2.8993	2.65651	2.70309	0	
2.9000	6.62257	-0.352577	0	
2.9007	7.22122	-1.2732	0	
2.9013	3.87252	2.38969	0	
2.9020	-0.0935391	3.91752	0	
2.9027	-3.76027	0.568041	0	
2.9033	-4.67695	-1.56701	0	
2.9040	-4.97628	-1.56701	0	
2.9047	-8.94233	-2.78144	0	
2.9053	-11.3931	-4.91649	0	
2.9060	-9.26037	-4.62268	0	
2.9067	-7.12768	-1.56701	0	
2.9073	-6.21099	-0.646391	0	
2.9080	-4.67695	-1.88041	0	
2.9087	-3.76027	-0.959793	0	
2.9093	-1.32825	-0.0391752	0	
2.9100	0.823144	-1.56701	0	
2.9107	1.73983	-2.17423	0	
2.9113	4.47117	1.48866	0	
2.9120	6.30453	3.91752	0	
2.9127	4.7892	2.09587	0	
2.9133	2.65651	-0.352577	0	
2.9140	1.12247	0.568041	0	
2.9147	0.505111	1.78247	0	
2.9153	1.12247	-1.2732	0	
2.9160	-0.0935391	-2.78144	0	
2.9167	-2.54426	-0.0391752	0	
2.9173	-3.46095	-0.0391752	0	
2.9180	-5.59364	-1.2732	0	
2.9187	-10.177	1.48866	0	
2.9193	-12.6091	2.38969	0	
2.9200	-12.3097	-2.17423	0	
2.9207	-9.85902	-4.62268	0	
2.9213	-7.12768	-3.09484	0	
2.9220	-6.21099	-2.78144	0	
2.9227	-2.84359	-1.88041	0	
2.9233	0.823144	0.254639	0	
2.9240	-1.9269	1.48866	0	
2.9247	-4.37763	1.48866	0	
2.9253	-1.9269	1.48866	0	
2.9260	-1.9269	1.17526	0	
2.9267	-1.9269	2.09587	0	
2.9273	4.17184	1.78247	0	
2.9280	9.35391	1.48866	0	
2.9287	15.4714	2.38969	0	
2.9293	19.4374	0.881443	0	
2.9300	11.8046	-2.78144	0	
2.9307	3.55448	-4.01546	0	
2.9313	6.92189	-4.01546	0	
2.9320	7.83857	-4.01546	0	
2.9327	-0.411572	-3.40825	0	
2.9333	-3.76027	-5.5433	0	
2.9340	-2.54426	-8.89278	0	
