0.0000	7.61473	0.547608	1
0.0007	4.88183	0.855638	0	
0.0013	1.21462	-1.57437	0	
0.0020	-3.05991	-2.49846	0	
0.0027	-3.36356	-0.958314	0	
0.0033	-3.97087	0.547608	0	
0.0040	-8.2454	1.77973	0	
0.0047	-11.3053	0.855638	0	
0.0053	-12.5199	-3.73058	0	
0.0060	-15.5798	-6.16059	0	
0.0067	-17.0981	-4.62044	0	
0.0073	-13.4309	-4.31241	0	
0.0080	-7.94174	-4.92847	0	
0.0087	-4.27452	-2.80649	0	
0.0093	-4.88183	0.239579	0	
0.0100	-7.63809	0.239579	0	
0.0107	-6.11981	-0.342255	0	
0.0113	-4.27452	0.239579	0	
0.0120	-7.94174	2.08776	0	
0.0127	-8.8527	2.08776	0	
0.0133	-2.4526	0.239579	0	
0.0140	6.40011	-0.068451	0	
0.0147	10.9783	0.855638	0	
0.0153	8.8527	-0.958314	0	
0.0160	3.97087	-3.73058	0	
0.0167	2.73289	-3.11452	0	
0.0173	1.21462	-1.8824	0	
0.0180	-6.11981	-1.8824	0	
0.0187	-7.94174	-0.958314	0	
0.0193	0.910964	1.77973	0	
0.0200	6.70376	4.8258	0	
0.0207	5.18549	6.36594	0	
0.0213	3.97087	4.20974	0	
0.0220	6.40011	2.70382	0	
0.0227	10.9783	3.01184	0	
0.0233	12.8002	1.16367	0	
0.0240	8.8527	-0.342255	0	
0.0247	4.88183	1.77973	0	
0.0253	3.64386	1.16367	0	
0.0260	0	-1.8824	0	
0.0267	-1.54163	-0.958314	0	
0.0273	1.21462	0.239579	0	
0.0280	-0.60731	-1.8824	0	
0.0287	-6.11981	-2.80649	0	
0.0293	-7.03078	-2.80649	0	
0.0300	-6.72712	-4.62044	0	
0.0307	-4.88183	-4.92847	0	
0.0313	-0.303655	-3.42255	0	
0.0320	0.303655	-3.73058	0	
0.0327	-4.27452	-4.31241	0	
0.0333	-4.88183	-3.42255	0	
0.0340	-4.57818	-3.73058	0	
0.0347	-4.57818	-4.00438	0	
0.0353	-1.54163	-2.80649	0	
0.0360	-0.60731	-1.8824	0	
0.0367	-3.36356	-3.42255	0	
0.0373	-2.14894	-5.2365	0	
0.0380	0.303655	-3.73058	0	
0.0387	-1.84529	-0.068451	0	
0.0393	-4.27452	0.855638	0	
0.0400	-1.23798	-0.958314	0	
0.0407	3.3402	-2.80649	0	
0.0413	2.12558	-3.73058	0	
0.0420	-3.97087	-2.49846	0	
0.0427	-9.76367	-0.342255	0	
0.0433	-13.4309	-0.958314	0	
0.0440	-17.0981	-2.49846	0	
0.0447	-19.5273	-2.19043	0	
0.0453	-18.6164	-1.8824	0	
0.0460	-15.8835	-1.26634	0	
0.0467	-14.3418	-0.068451	0	
0.0473	-18.0091	-0.958314	0	
0.0480	-26.2545	-2.80649	0	
0.0487	-31.4399	-1.8824	0	
0.0493	-26.2545	0.855638	0	
0.0500	-11.609	1.16367	0	
0.0507	3.3402	0.239579	0	
0.0513	13.7345	1.77973	0	
0.0520	19.5273	3.59368	0	
0.0527	24.7128	2.70382	0	
0.0533	30.8093	2.08776	0	
0.0540	37.8401	4.20974	0	
0.0547	44.8475	4.8258	0	
0.0553	46.6928	3.90171	0	
0.0560	39.3583	4.51777	0	
0.0567	31.4166	5.44186	0	
0.0573	27.1421	3.90171	0	
0.0580	19.2237	2.39579	0	
0.0587	9.76367	1.77973	0	
0.0593	9.46001	2.39579	0	
0.0600	13.1039	1.77973	0	
0.0607	13.1039	-0.958314	0	
0.0613	14.0382	-2.49846	0	
0.0620	19.2237	0.855638	0	
0.0627	24.7128	3.90171	0	
0.0633	28.0764	3.01184	0	
0.0640	25.6238	1.77973	0	
0.0647	16.7711	2.39579	0	
0.0653	11.2819	2.08776	0	
0.0660	6.09645	-0.958314	0	
0.0667	-1.84529	-2.49846	0	
0.0673	-5.18549	-1.8824	0	
0.0680	-2.14894	-2.19043	0	
0.0687	-1.54163	-2.80649	0	
0.0693	-3.05991	-2.80649	0	
0.0700	-4.57818	-4.62044	0	
0.0707	-8.2454	-5.54453	0	
0.0713	-12.5199	-3.42255	0	
0.0720	-15.5798	-4.62044	0	
0.0727	-17.4018	-9.20666	0	
0.0733	-15.5798	-8.89863	0	
0.0740	-12.5199	-3.73058	0	
0.0747	-13.4309	-1.26634	0	
0.0753	-12.5199	-1.8824	0	
0.0760	-4.57818	-2.80649	0	
0.0767	2.73289	-1.8824	0	
0.0773	4.88183	-0.342255	0	
0.0780	4.57818	-1.8824	0	
0.0787	3.3402	-4.31241	0	
0.0793	3.97087	-2.80649	0	
0.0800	8.8527	0.855638	0	
0.0807	11.8893	1.77973	0	
0.0813	11.2819	1.77973	0	
0.0820	13.1039	1.77973	0	
0.0827	14.0382	2.39579	0	
0.0833	9.46001	1.77973	0	
0.0840	4.27452	-0.342255	0	
0.0847	2.12558	-0.958314	0	
0.0853	0.910964	1.16367	0	
0.0860	0.60731	1.77973	0	
0.0867	1.21462	0.855638	0	
0.0873	0.303655	1.77973	0	
0.0880	-1.84529	2.39579	0	
0.0887	-5.18549	-0.068451	0	
0.0893	-7.94174	-1.8824	0	
0.0900	-9.15636	-0.958314	0	
0.0907	-9.76367	-0.650285	0	
0.0913	-10.698	-0.958314	0	
0.0920	-9.76367	0.239579	0	
0.0927	-9.15636	0.855638	0	
0.0933	-7.94174	-0.342255	0	
0.0940	-3.36356	-1.26634	0	
0.0947	-2.4526	-1.8824	0	
0.0953	-3.36356	-0.958314	0	
0.0960	0.910964	1.16367	0	
0.0967	5.7928	2.70382	0	
0.0973	3.97087	2.39579	0	
0.0980	0.910964	1.16367	0	
0.0987	1.51827	0.855638	0	
0.0993	3.3402	2.70382	0	
0.1000	5.18549	6.36594	0	
0.1007	7.61473	7.56384	0	
0.1013	9.46001	5.44186	0	
0.1020	9.76367	3.59368	0	
0.1027	8.22204	4.51777	0	
0.1033	7.31107	4.51777	0	
0.1040	7.91838	2.39579	0	
0.1047	6.40011	3.01184	0	
0.1053	3.03655	6.36594	0	
0.1060	1.51827	5.44186	0	
0.1067	-0.60731	3.59368	0	
0.1073	-2.75625	5.44186	0	
0.1080	-3.36356	5.44186	0	
0.1087	-5.48914	1.77973	0	
0.1093	-7.94174	2.39579	0	
0.1100	-6.11981	3.90171	0	
0.1107	-3.66722	2.70382	0	
0.1113	0.60731	2.70382	0	
0.1120	10.0673	4.20974	0	
0.1127	15.5565	4.51777	0	
0.1133	12.1929	5.13383	0	
0.1140	7.31107	5.44186	0	
0.1147	3.97087	3.59368	0	
0.1153	1.82193	-1.26634	0	
0.1160	-0.934322	-5.2365	0	
0.1167	-3.97087	-4.92847	0	
0.1173	-2.75625	-5.2365	0	
0.1180	3.03655	-7.39271	0	
0.1187	3.64386	-8.28257	0	
0.1193	-3.36356	-8.28257	0	
0.1200	-8.8527	-9.51469	0	
0.1207	-11.609	-8.89863	0	
0.1213	-12.5199	-6.46862	0	
0.1220	-9.76367	-5.54453	0	
0.1227	-4.88183	-4.00438	0	
0.1233	0	-2.49846	0	
0.1240	4.57818	-4.31241	0	
0.1247	6.09645	-5.2365	0	
0.1253	3.97087	-3.73058	0	
0.1260	0.303655	-3.11452	0	
0.1267	-4.27452	-2.49846	0	
0.1273	-8.2454	-1.26634	0	
0.1280	-11.9126	-2.49846	0	
0.1287	-12.8236	-4.31241	0	
0.1293	-11.3053	-3.73058	0	
0.1300	-10.698	-2.19043	0	
0.1307	-10.0673	-2.19043	0	
0.1313	-7.94174	-3.42255	0	
0.1320	-7.03078	-3.11452	0	
0.1327	-3.36356	-1.57437	0	
0.1333	3.03655	-1.8824	0	
0.1340	2.12558	-3.73058	0	
0.1347	0.60731	-1.8824	0	
0.1353	7.00742	2.70382	0	
0.1360	10.371	3.01184	0	
0.1367	4.88183	0.855638	0	
0.1373	1.51827	-0.068451	0	
0.1380	0.60731	-0.068451	0	
0.1387	5.18549	1.77973	0	
0.1393	21.3493	5.74989	0	
0.1400	32.9582	7.25581	0	
0.1407	25.9274	6.05792	0	
0.1413	20.742	7.25581	0	
0.1420	25.9274	9.10399	0	
0.1427	24.4092	6.67397	0	
0.1433	15.2528	2.08776	0	
0.1440	11.2819	1.77973	0	
0.1447	6.70376	3.59368	0	
0.1453	-0.934322	2.70382	0	
0.1460	-2.4526	1.4717	0	
0.1467	2.42924	0.239579	0	
0.1473	8.8527	0.239579	0	
0.1480	16.7711	2.70382	0	
0.1487	22.8909	3.01184	0	
0.1493	20.1346	-0.650285	0	
0.1500	11.2819	-1.8824	0	
0.1507	7.61473	-0.342255	0	
0.1513	9.15636	-1.8824	0	
0.1520	6.70376	-3.11452	0	
0.1527	-0.303655	-2.19043	0	
0.1533	-4.27452	-3.11452	0	
0.1540	-3.66722	-3.42255	0	
0.1547	-3.36356	-1.26634	0	
0.1553	-2.14894	-0.958314	0	
0.1560	1.21462	-0.958314	0	
0.1567	3.03655	-0.650285	0	
0.1573	2.73289	-3.11452	0	
0.1580	4.27452	-3.73058	0	
0.1587	5.48914	-0.958314	0	
0.1593	3.97087	-1.57437	0	
0.1600	2.12558	-4.00438	0	
0.1607	3.97087	-2.19043	0	
0.1613	6.70376	-0.650285	0	
0.1620	7.00742	-0.958314	0	
0.1627	3.97087	1.77973	0	
0.1633	0.303655	3.31987	0	
0.1640	-2.4526	0.547608	0	
0.1647	-3.36356	-0.650285	0	
0.1653	-3.66722	0.855638	0	
0.1660	-3.36356	1.77973	0	
0.1667	-1.84529	1.16367	0	
0.1673	-1.84529	0.547608	0	
0.1680	-3.05991	0.239579	0	
0.1687	-1.84529	-0.068451	0	
0.1693	0.910964	-0.342255	0	
0.1700	3.03655	1.4717	0	
0.1707	5.7928	5.44186	0	
0.1713	9.46001	6.67397	0	
0.1720	12.1929	5.13383	0	
0.1727	13.1039	5.74989	0	
0.1733	12.1929	5.44186	0	
0.1740	11.2819	1.77973	0	
0.1747	9.46001	0.855638	0	
0.1753	7.00742	3.59368	0	
0.1760	7.00742	3.90171	0	
0.1767	6.70376	3.59368	0	
0.1773	3.3402	4.51777	0	
0.1780	-2.75625	4.20974	0	
0.1787	-14.3418	3.01184	0	
0.1793	-28.9874	1.77973	0	
0.1800	-35.4108	-1.8824	0	
0.1807	-33.2619	-6.46862	0	
0.1813	-32.3509	-8.89863	0	
0.1820	-28.9874	-8.28257	0	
0.1827	-22.8909	-6.46862	0	
0.1833	-25.6471	-5.54453	0	
0.1840	-32.6546	-7.08468	0	
0.1847	-30.8326	-9.20666	0	
0.1853	-20.158	-7.97454	0	
0.1860	-0.303655	-6.16059	0	
0.1867	21.9566	-5.85256	0	
0.1873	26.5348	-6.46862	0	
0.1880	16.4674	-6.77665	0	
0.1887	13.1039	-6.46862	0	
0.1893	14.0382	-4.62044	0	
0.1900	12.1929	-2.80649	0	
0.1907	14.6455	-2.19043	0	
0.1913	17.6821	-1.8824	0	
0.1920	14.0382	-1.26634	0	
0.1927	12.1929	-1.8824	0	
0.1933	14.0382	-1.8824	0	
0.1940	14.9492	-1.57437	0	
0.1947	15.8601	-0.342255	0	
0.1953	14.0382	1.16367	0	
0.1960	9.46001	0.855638	0	
0.1967	10.6746	0.239579	0	
0.1973	11.5856	2.39579	0	
0.1980	6.40011	3.59368	0	
0.1987	4.57818	3.59368	0	
0.1993	8.54905	5.74989	0	
0.2000	7.61473	6.67397	0	
0.2007	3.97087	5.13383	0	
0.2013	3.03655	4.8258	0	
0.2020	2.73289	5.13383	0	
0.2027	2.42924	3.59368	0	
0.2033	3.3402	2.70382	0	
0.2040	2.12558	2.39579	0	
0.2047	0.303655	2.39579	0	
0.2053	1.21462	3.90171	0	
0.2060	1.21462	4.51777	0	
0.2067	-1.54163	3.90171	0	
0.2073	-2.75625	2.70382	0	
0.2080	-3.36356	0.239579	0	
0.2087	-4.27452	-2.80649	0	
0.2093	-3.05991	-1.8824	0	
0.2100	-0.934322	1.4717	0	
0.2107	-1.54163	0.855638	0	
0.2113	-4.27452	-1.57437	0	
0.2120	-7.33443	-1.57437	0	
0.2127	-10.698	-1.26634	0	
0.2133	-12.5199	-1.8824	0	
0.2140	-12.2163	-2.19043	0	
0.2147	-11.0016	-0.958314	0	
0.2153	-9.46001	0.855638	0	
0.2160	-7.03078	1.77973	0	
0.2167	-6.11981	0.239579	0	
0.2173	-7.94174	-1.8824	0	
0.2180	-8.2454	-3.11452	0	
0.2187	-1.54163	-2.49846	0	
0.2193	9.76367	-0.342255	0	
0.2200	15.2528	-0.650285	0	
0.2207	12.4966	-2.80649	0	
0.2213	9.46001	-1.8824	0	
0.2220	6.40011	-1.57437	0	
0.2227	0.303655	-3.42255	0	
0.2233	-1.84529	-0.958314	0	
0.2240	3.3402	3.59368	0	
0.2247	7.61473	3.31987	0	
0.2253	8.22204	2.08776	0	
0.2260	7.91838	1.77973	0	
0.2267	3.03655	-1.57437	0	
0.2273	-5.18549	-4.00438	0	
0.2280	-7.94174	-3.73058	0	
0.2287	-4.88183	-5.54453	0	
0.2293	-4.57818	-5.85256	0	
0.2300	-6.42347	-2.80649	0	
0.2307	-4.57818	-3.42255	0	
0.2313	-1.23798	-5.54453	0	
0.2320	0.303655	-2.49846	0	
0.2327	1.51827	1.77973	0	
0.2333	3.64386	2.08776	0	
0.2340	1.82193	1.16367	0	
0.2347	-2.4526	-0.068451	0	
0.2353	0.303655	-0.068451	0	
0.2360	9.46001	1.4717	0	
0.2367	13.1039	2.08776	0	
0.2373	9.46001	2.08776	0	
0.2380	7.91838	-0.068451	0	
0.2387	13.1039	-3.73058	0	
0.2393	18.6164	-3.73058	0	
0.2400	17.6821	-1.26634	0	
0.2407	13.7345	-3.11452	0	
0.2413	11.2819	-6.16059	0	
0.2420	9.15636	-4.00438	0	
0.2427	7.31107	-2.80649	0	
0.2433	6.09645	-4.62044	0	
0.2440	5.7928	-4.00438	0	
0.2447	4.88183	-0.068451	0	
0.2453	4.27452	2.70382	0	
0.2460	3.64386	2.70382	0	
0.2467	2.73289	1.77973	0	
0.2473	4.27452	1.16367	0	
0.2480	7.61473	1.16367	0	
0.2487	7.31107	1.77973	0	
0.2493	3.64386	2.70382	0	
0.2500	0	2.70382	0	
0.2507	-3.05991	-0.650285	0	
0.2513	-4.57818	-2.80649	0	
0.2520	-5.48914	-0.958314	0	
0.2527	-6.42347	0.855638	0	
0.2533	-5.18549	-0.958314	0	
0.2540	-4.57818	-3.73058	0	
0.2547	-8.2454	-3.73058	0	
0.2553	-9.76367	-3.42255	0	
0.2560	-6.72712	-5.2365	0	
0.2567	-7.03078	-6.77665	0	
0.2573	-9.76367	-7.66651	0	
0.2580	-7.94174	-7.66651	0	
0.2587	-2.4526	-4.62044	0	
0.2593	0.60731	-2.80649	0	
0.2600	-0.60731	-3.73058	0	
0.2607	-0.934322	-1.8824	0	
0.2613	1.21462	1.4717	0	
0.2620	-2.4526	-0.650285	0	
0.2627	-13.1272	-1.57437	0	
0.2633	-18.6164	0.855638	0	
0.2640	-20.158	-0.068451	0	
0.2647	-26.8618	-2.19043	0	
0.2653	-32.0473	-0.650285	0	
0.2660	-32.3509	-0.958314	0	
0.2667	-33.2619	-2.49846	0	
0.2673	-30.8326	-0.958314	0	
0.2680	-24.4325	-0.958314	0	
0.2687	-15.2762	-2.49846	0	
0.2693	10.371	-0.068451	0	
0.2700	43.0255	3.90171	0	
0.2707	51.8783	4.8258	0	
0.2713	44.5438	4.51777	0	
0.2720	44.8475	4.8258	0	
0.2727	43.0255	4.51777	0	
0.2733	33.2619	3.59368	0	
0.2740	29.291	3.59368	0	
0.2747	28.9874	2.70382	0	
0.2753	24.1055	3.31987	0	
0.2760	18.6164	5.13383	0	
0.2767	20.4383	4.8258	0	
0.2773	27.7727	2.70382	0	
0.2780	30.5056	1.4717	0	
0.2787	22.2602	-0.958314	0	
0.2793	11.2819	-3.73058	0	
0.2800	6.40011	-2.80649	0	
0.2807	3.64386	-2.80649	0	
0.2813	-0.303655	-5.54453	0	
0.2820	-1.54163	-4.00438	0	
0.2827	1.82193	-0.342255	0	
0.2833	5.7928	-0.068451	0	
0.2840	3.97087	1.16367	0	
0.2847	0.303655	3.01184	0	
0.2853	3.97087	1.77973	0	
0.2860	9.15636	0.855638	0	
0.2867	6.70376	2.70382	0	
0.2873	3.03655	3.31987	0	
0.2880	3.03655	2.70382	0	
0.2887	1.82193	3.31987	0	
0.2893	-2.14894	3.31987	0	
0.2900	-2.14894	2.70382	0	
0.2907	1.21462	3.59368	0	
0.2913	3.03655	4.51777	0	
0.2920	2.73289	2.70382	0	
0.2927	2.73289	1.16367	0	
0.2933	1.21462	0.855638	0	
0.2940	-1.23798	-0.958314	0	
0.2947	-4.27452	-4.62044	0	
0.2953	-8.8527	-7.66651	0	
0.2960	-12.8236	-9.51469	0	
0.2967	-12.5199	-7.97454	0	
0.2973	-11.3053	-3.73058	0	
0.2980	-9.76367	-3.73058	0	
0.2987	-4.27452	-5.54453	0	
0.2993	-0.60731	-1.26634	0	
0.3000	-1.54163	3.59368	0	
0.3007	0	1.77973	0	
0.3013	3.3402	-0.650285	0	
0.3020	3.97087	-0.958314	0	
0.3027	5.7928	-2.49846	0	
0.3033	10.371	-3.42255	0	
0.3040	10.371	-3.73058	0	
0.3047	4.88183	-4.00438	0	
0.3053	-1.23798	-4.00438	0	
0.3060	-7.03078	-4.62044	0	
0.3067	-9.46001	-6.16059	0	
0.3073	-10.0673	-5.85256	0	
0.3080	-12.2163	-6.46862	0	
0.3087	-11.609	-7.39271	0	
0.3093	-11.0016	-4.92847	0	
0.3100	-15.8835	-1.8824	0	
0.3107	-14.9725	-1.8824	0	
0.3113	-7.03078	-0.342255	0	
0.3120	-7.94174	-0.068451	0	
0.3127	-13.7345	-2.80649	0	
0.3133	-10.698	-1.8824	0	
0.3140	-8.8527	1.77973	0	
0.3147	-10.3943	1.77973	0	
0.3153	-5.18549	0.855638	0	
0.3160	-1.54163	1.16367	0	
0.3167	-3.97087	0.855638	0	
0.3173	-3.66722	1.4717	0	
0.3180	-5.18549	3.01184	0	
0.3187	-11.9126	2.70382	0	
0.3193	-11.609	2.70382	0	
0.3200	-9.46001	3.01184	0	
0.3207	-13.4309	0.855638	0	
0.3213	-12.5199	0.547608	0	
0.3220	-3.36356	3.31987	0	
0.3227	6.70376	2.39579	0	
0.3233	18.92	-0.068451	0	
0.3240	34.7802	2.70382	0	
0.3247	46.0855	7.25581	0	
0.3253	52.1819	8.1799	0	
0.3260	52.4856	9.10399	0	
0.3267	43.6329	10.0281	0	
0.3273	32.0473	7.25581	0	
0.3280	25.9274	5.74989	0	
0.3287	21.3493	7.25581	0	
0.3293	14.0382	4.8258	0	
0.3300	7.61473	-0.958314	0	
0.3307	-0.303655	-2.19043	0	
0.3313	-9.76367	-2.80649	0	
0.3320	-8.54905	-6.46862	0	
0.3327	2.12558	-6.46862	0	
0.3333	7.31107	-5.2365	0	
0.3340	5.48914	-7.39271	0	
0.3347	4.88183	-9.20666	0	
0.3353	2.12558	-6.46862	0	
0.3360	-3.36356	-4.62044	0	
0.3367	-5.48914	-5.2365	0	
0.3373	-3.36356	-5.2365	0	
0.3380	-2.4526	-3.42255	0	
0.3387	-3.36356	-2.80649	0	
0.3393	-4.27452	-3.42255	0	
0.3400	-4.88183	-3.11452	0	
0.3407	-4.57818	-2.49846	0	
0.3413	-4.27452	-1.57437	0	
0.3420	-3.36356	1.4717	0	
0.3427	-1.84529	3.31987	0	
0.3433	-1.54163	0.855638	0	
0.3440	-3.36356	0.239579	0	
0.3447	-4.27452	2.70382	0	
0.3453	-4.88183	1.77973	0	
0.3460	-7.03078	-0.958314	0	
0.3467	-9.46001	-0.342255	0	
0.3473	-8.54905	0.855638	0	
0.3480	-6.42347	-0.958314	0	
0.3487	-6.11981	-1.8824	0	
0.3493	-4.27452	-0.342255	0	
0.3500	-1.54163	0.239579	0	
0.3507	-0.60731	-0.068451	0	
0.3513	-0.934322	0.855638	0	
0.3520	-1.23798	2.08776	0	
0.3527	-0.303655	2.08776	0	
0.3533	3.3402	3.31987	0	
0.3540	5.48914	5.44186	0	
0.3547	1.21462	4.20974	0	
0.3553	-1.23798	1.4717	0	
0.3560	3.3402	0.547608	0	
0.3567	5.48914	0.547608	0	
0.3573	2.12558	-0.650285	0	
0.3580	2.73289	-1.26634	0	
0.3587	7.00742	-0.068451	0	
0.3593	7.61473	2.70382	0	
0.3600	4.57818	2.70382	0	
0.3607	4.27452	1.16367	0	
0.3613	8.54905	2.08776	0	
0.3620	10.0673	2.70382	0	
0.3627	5.48914	0.855638	0	
0.3633	4.27452	1.77973	0	
0.3640	10.0673	4.20974	0	
0.3647	10.371	3.59368	0	
0.3653	4.88183	3.59368	0	
0.3660	3.03655	5.44186	0	
0.3667	-1.54163	4.20974	0	
0.3673	-10.698	0.855638	0	
0.3680	-13.1272	-0.958314	0	
0.3687	-13.1272	-2.49846	0	
0.3693	-18.92	-2.80649	0	
0.3700	-15.8835	-0.068451	0	
0.3707	1.51827	1.16367	0	
0.3713	14.3418	-0.650285	0	
0.3720	17.6821	0.547608	0	
0.3727	21.9566	3.59368	0	
0.3733	24.4092	4.20974	0	
0.3740	16.1638	1.16367	0	
0.3747	4.27452	-4.00438	0	
0.3753	-4.27452	-7.39271	0	
0.3760	-9.15636	-6.16059	0	
0.3767	-9.76367	-3.73058	0	
0.3773	-6.72712	-3.11452	0	
0.3780	-5.18549	-3.73058	0	
0.3787	-7.03078	-3.42255	0	
0.3793	-7.03078	-1.8824	0	
0.3800	-6.11981	-0.068451	0	
0.3807	-4.88183	2.70382	0	
0.3813	2.12558	2.70382	0	
0.3820	10.371	0.547608	0	
0.3827	10.9783	-0.068451	0	
0.3833	9.46001	1.77973	0	
0.3840	13.1039	2.39579	0	
0.3847	14.0382	0.547608	0	
0.3853	6.40011	-1.26634	0	
0.3860	3.03655	-2.49846	0	
0.3867	7.61473	-1.57437	0	
0.3873	7.61473	1.4717	0	
0.3880	3.03655	0.547608	0	
0.3887	1.51827	-2.80649	0	
0.3893	0.60731	-1.8824	0	
0.3900	0.910964	1.16367	0	
0.3907	3.64386	0.547608	0	
0.3913	5.18549	-0.958314	0	
0.3920	8.22204	-0.342255	0	
0.3927	16.1638	1.77973	0	
0.3933	21.3493	4.20974	0	
0.3940	18.6164	3.90171	0	
0.3947	14.9492	2.39579	0	
0.3953	13.1039	2.70382	0	
0.3960	9.76367	2.70382	0	
0.3967	6.70376	1.4717	0	
0.3973	6.70376	0.547608	0	
0.3980	6.70376	-0.958314	0	
0.3987	6.70376	-1.57437	0	
0.3993	6.70376	-0.958314	0	
0.4000	4.88183	-1.26634	0	
0.4007	1.21462	-0.958314	0	
0.4013	0.303655	1.4717	0	
0.4020	3.64386	2.39579	0	
0.4027	5.18549	1.77973	0	
0.4033	1.21462	2.39579	0	
0.4040	-2.75625	0.547608	0	
0.4047	-2.75625	-0.958314	0	
0.4053	-0.303655	0.547608	0	
0.4060	1.51827	0.239579	0	
0.4067	0.303655	-2.49846	0	
0.4073	-2.4526	-2.80649	0	
0.4080	-2.75625	-1.57437	0	
0.4087	-1.23798	-2.80649	0	
0.4093	-1.23798	-4.31241	0	
0.4100	-6.42347	-5.85256	0	
0.4107	-14.3418	-7.66651	0	
0.4113	-18.92	-8.89863	0	
0.4120	-18.92	-9.82272	0	
0.4127	-15.2762	-10.1308	0	
0.4133	-10.698	-7.66651	0	
0.4140	-9.76367	-5.2365	0	
0.4147	-11.609	-4.62044	0	
0.4153	-7.94174	-4.92847	0	
0.4160	-1.84529	-4.00438	0	
0.4167	0	-2.19043	0	
0.4173	2.73289	-2.19043	0	
0.4180	10.0673	-1.57437	0	
0.4187	13.1039	1.16367	0	
0.4193	10.371	3.59368	0	
0.4200	7.91838	3.90171	0	
0.4207	10.9783	3.31987	0	
0.4213	17.0747	2.70382	0	
0.4220	20.742	4.8258	0	
0.4227	20.4383	7.25581	0	
0.4233	20.4383	4.8258	0	
0.4240	20.742	1.4717	0	
0.4247	18.92	3.01184	0	
0.4253	13.4309	3.31987	0	
0.4260	5.48914	-1.8824	0	
0.4267	-3.05991	-4.62044	0	
0.4273	-7.94174	-2.19043	0	
0.4280	-9.76367	-1.8824	0	
0.4287	-11.9126	-5.2365	0	
0.4293	-13.1272	-7.39271	0	
0.4300	-11.609	-4.62044	0	
0.4307	-11.9126	-0.958314	0	
0.4313	-16.1871	-2.49846	0	
0.4320	-14.6455	-5.2365	0	
0.4327	-9.46001	-1.8824	0	
0.4333	-17.0981	1.77973	0	
0.4340	-30.8326	-0.342255	0	
0.4347	-27.7727	-1.8824	0	
0.4353	-18.92	1.16367	0	
0.4360	-21.069	1.4717	0	
0.4367	-16.7944	-0.068451	0	
0.4373	1.21462	3.90171	0	
0.4380	12.1929	7.56384	0	
0.4387	11.8893	5.44186	0	
0.4393	11.2819	3.59368	0	
0.4400	15.2528	3.90171	0	
0.4407	21.0456	4.51777	0	
0.4413	22.2602	6.36594	0	
0.4420	20.742	6.05792	0	
0.4427	27.7727	2.08776	0	
0.4433	38.4474	1.4717	0	
0.4440	39.662	3.01184	0	
0.4447	35.9948	1.16367	0	
0.4453	28.38	0.239579	0	
0.4460	12.4966	2.70382	0	
0.4467	3.97087	2.70382	0	
0.4473	5.48914	-0.068451	0	
0.4480	-0.60731	-1.57437	0	
0.4487	-11.9126	-2.80649	0	
0.4493	-14.6455	-4.92847	0	
0.4500	-13.1272	-6.46862	0	
0.4507	-10.0673	-4.92847	0	
0.4513	-2.4526	-0.958314	0	
0.4520	4.88183	1.16367	0	
0.4527	10.371	1.4717	0	
0.4533	13.7345	1.16367	0	
0.4540	11.5856	-0.068451	0	
0.4547	9.76367	-0.650285	0	
0.4553	10.9783	2.08776	0	
0.4560	8.54905	4.51777	0	
0.4567	5.7928	4.51777	0	
0.4573	8.54905	6.36594	0	
0.4580	8.54905	7.25581	0	
0.4587	3.03655	5.44186	0	
0.4593	-1.84529	5.74989	0	
0.4600	-7.03078	4.8258	0	
0.4607	-14.0382	0.239579	0	
0.4613	-18.92	-1.8824	0	
0.4620	-21.069	-3.73058	0	
0.4627	-20.4617	-8.28257	0	
0.4633	-14.9725	-8.28257	0	
0.4640	-8.54905	-5.54453	0	
0.4647	-6.42347	-7.39271	0	
0.4653	-6.11981	-8.28257	0	
0.4660	-3.36356	-5.85256	0	
0.4667	1.21462	-5.54453	0	
0.4673	4.27452	-5.2365	0	
0.4680	3.97087	-0.068451	0	
0.4687	1.82193	1.77973	0	
0.4693	2.12558	0.239579	0	
0.4700	4.88183	0.855638	0	
0.4707	6.40011	2.39579	0	
0.4713	6.40011	1.77973	0	
0.4720	5.18549	2.08776	0	
0.4727	2.12558	3.59368	0	
0.4733	-1.54163	1.77973	0	
0.4740	-4.27452	-2.49846	0	
0.4747	-9.46001	-4.92847	0	
0.4753	-14.3418	-4.92847	0	
0.4760	-13.4309	-5.54453	0	
0.4767	-7.03078	-6.46862	0	
0.4773	-3.36356	-5.54453	0	
0.4780	-3.66722	-5.85256	0	
0.4787	-3.05991	-8.28257	0	
0.4793	-0.934322	-7.97454	0	
0.4800	0.303655	-4.62044	0	
0.4807	3.03655	-3.42255	0	
0.4813	6.09645	-2.19043	0	
0.4820	5.18549	-0.068451	0	
0.4827	2.73289	-1.26634	0	
0.4833	0.910964	-4.00438	0	
0.4840	-2.4526	-3.42255	0	
0.4847	-3.36356	-1.8824	0	
0.4853	0.910964	-2.19043	0	
0.4860	4.88183	-0.342255	0	
0.4867	5.48914	1.77973	0	
0.4873	2.73289	-0.958314	0	
0.4880	-3.66722	-2.80649	0	
0.4887	-5.48914	1.77973	0	
0.4893	-1.23798	4.8258	0	
0.4900	-1.23798	3.31987	0	
0.4907	-2.75625	3.31987	0	
0.4913	-0.60731	3.90171	0	
0.4920	-0.60731	1.16367	0	
0.4927	-0.60731	0.547608	0	
0.4933	8.8527	3.59368	0	
0.4940	19.2237	3.31987	0	
0.4947	24.1055	1.77973	0	
0.4953	29.5947	3.90171	0	
0.4960	32.9582	3.59368	0	
0.4967	26.2311	-0.068451	0	
0.4973	17.0747	-0.342255	0	
0.4980	12.1929	0.547608	0	
0.4987	8.8527	-1.26634	0	
0.4993	6.70376	-2.19043	0	
0.5000	4.57818	-1.8824	0	
0.5007	1.21462	-1.8824	0	
0.5013	-1.54163	-4.62044	0	
0.5020	-3.66722	-6.77665	0	
0.5027	-8.54905	-4.92847	0	
0.5033	-14.3418	-2.80649	0	
0.5040	-20.158	-4.92847	0	
0.5047	-26.5581	-5.54453	0	
0.5053	-26.8618	-1.8824	0	
0.5060	-18.0091	-0.958314	0	
0.5067	-7.03078	-3.11452	0	
0.5073	2.12558	-2.80649	0	
0.5080	5.7928	-3.73058	0	
0.5087	3.03655	-4.62044	0	
0.5093	-0.934322	-2.80649	0	
0.5100	1.21462	-2.19043	0	
0.5107	7.31107	-2.49846	0	
0.5113	13.7345	-0.958314	0	
0.5120	18.6164	-0.342255	0	
0.5127	21.3493	-0.650285	0	
0.5133	19.2237	1.77973	0	
0.5140	13.7345	1.77973	0	
0.5147	10.0673	-0.342255	0	
0.5153	10.0673	0.239579	0	
0.5160	10.371	1.16367	0	
0.5167	9.46001	-0.342255	0	
0.5173	10.371	-0.342255	0	
0.5180	12.1929	1.4717	0	
0.5187	13.1039	2.70382	0	
0.5193	9.46001	3.59368	0	
0.5200	0.303655	3.01184	0	
0.5207	-7.94174	1.16367	0	
0.5213	-8.54905	0.855638	0	
0.5220	-7.03078	2.08776	0	
0.5227	-7.94174	3.59368	0	
0.5233	-6.72712	4.51777	0	
0.5240	-1.54163	4.8258	0	
0.5247	4.57818	4.8258	0	
0.5253	9.46001	5.44186	0	
0.5260	11.2819	5.44186	0	
0.5267	10.9783	3.31987	0	
0.5273	10.6746	0.239579	0	
0.5280	5.7928	-0.342255	0	
0.5287	-4.27452	-0.342255	0	
0.5293	-8.54905	-3.73058	0	
0.5300	-7.03078	-7.08468	0	
0.5307	-9.46001	-7.08468	0	
0.5313	-11.609	-7.39271	0	
0.5320	-5.48914	-9.82272	0	
0.5327	-2.14894	-9.51469	0	
0.5333	-7.03078	-7.39271	0	
0.5340	-9.76367	-6.77665	0	
0.5347	-8.54905	-5.54453	0	
0.5353	-7.33443	-4.31241	0	
0.5360	-3.97087	-4.62044	0	
0.5367	3.03655	-4.00438	0	
0.5373	7.31107	-3.73058	0	
0.5380	6.09645	-5.54453	0	
0.5387	2.12558	-5.85256	0	
0.5393	-0.60731	-4.62044	0	
0.5400	1.21462	-4.00438	0	
0.5407	7.61473	-0.650285	0	
0.5413	14.6455	1.77973	0	
0.5420	18.3127	0.239579	0	
0.5427	17.0747	0.855638	0	
0.5433	13.4309	3.01184	0	
0.5440	11.2819	1.16367	0	
0.5447	10.371	0.855638	0	
0.5453	8.54905	3.01184	0	
0.5460	7.31107	0.855638	0	
0.5467	6.40011	-0.958314	0	
0.5473	5.7928	0.855638	0	
0.5480	4.88183	2.39579	0	
0.5487	4.27452	2.08776	0	
0.5493	3.03655	1.4717	0	
0.5500	3.3402	0.239579	0	
0.5507	6.70376	-0.068451	0	
0.5513	9.15636	-0.068451	0	
0.5520	4.27452	-1.57437	0	
0.5527	-3.97087	-0.958314	0	
0.5533	-8.2454	1.4717	0	
0.5540	-9.76367	-1.26634	0	
0.5547	-11.609	-7.08468	0	
0.5553	-11.3053	-7.66651	0	
0.5560	-11.3053	-4.31241	0	
0.5567	-14.3418	-1.57437	0	
0.5573	-14.0382	-0.650285	0	
0.5580	-9.76367	-0.958314	0	
0.5587	-8.8527	-1.26634	0	
0.5593	-8.2454	-0.342255	0	
0.5600	-2.14894	0.547608	0	
0.5607	6.40011	0.239579	0	
0.5613	6.70376	1.16367	0	
0.5620	0.60731	3.31987	0	
0.5627	-0.303655	3.90171	0	
0.5633	4.57818	5.13383	0	
0.5640	4.88183	5.44186	0	
0.5647	4.57818	2.70382	0	
0.5653	6.70376	0.855638	0	
0.5660	4.57818	-0.342255	0	
0.5667	0.303655	-2.80649	0	
0.5673	3.03655	-2.19043	0	
0.5680	4.88183	1.77973	0	
0.5687	4.27452	2.08776	0	
0.5693	9.15636	0.547608	0	
0.5700	13.1039	1.4717	0	
0.5707	11.2819	2.70382	0	
0.5713	10.0673	2.70382	0	
0.5720	9.46001	0.855638	0	
0.5727	7.61473	-0.650285	0	
0.5733	7.91838	0.855638	0	
0.5740	7.61473	3.90171	0	
0.5747	6.40011	3.90171	0	
0.5753	10.9783	3.59368	0	
0.5760	16.4674	6.05792	0	
0.5767	14.9492	6.982	0	
0.5773	11.2819	6.36594	0	
0.5780	10.371	6.05792	0	
0.5787	6.70376	4.51777	0	
0.5793	-0.934322	1.77973	0	
0.5800	-8.8527	-0.958314	0	
0.5807	-13.1272	-1.8824	0	
0.5813	-15.5798	-2.49846	0	
0.5820	-15.8835	-3.73058	0	
0.5827	-12.8236	-3.42255	0	
0.5833	-7.94174	-0.068451	0	
0.5840	-0.303655	3.59368	0	
0.5847	9.76367	4.8258	0	
0.5853	14.6455	6.05792	0	
0.5860	9.46001	5.74989	0	
0.5867	1.21462	3.90171	0	
0.5873	-3.36356	3.59368	0	
0.5880	-5.18549	4.20974	0	
0.5887	-7.94174	2.39579	0	
0.5893	-11.609	0.855638	0	
0.5900	-14.0382	0.855638	0	
0.5907	-13.1272	-0.650285	0	
0.5913	-12.2163	-0.068451	0	
0.5920	-12.5199	2.08776	0	
0.5927	-8.8527	3.31987	0	
0.5933	-2.75625	3.01184	0	
0.5940	-2.75625	2.08776	0	
0.5947	-4.57818	-0.650285	0	
0.5953	-0.303655	-0.958314	0	
0.5960	3.97087	0.855638	0	
0.5967	3.3402	0.855638	0	
0.5973	3.97087	-0.342255	0	
0.5980	4.88183	-0.068451	0	
0.5987	0.303655	1.4717	0	
0.5993	-5.18549	1.77973	0	
0.6000	-4.88183	0.855638	0	
0.6007	-1.84529	1.16367	0	
0.6013	3.03655	4.51777	0	
0.6020	6.40011	5.13383	0	
0.6027	3.97087	1.16367	0	
0.6033	3.03655	-0.958314	0	
0.6040	8.22204	0.855638	0	
0.6047	13.1039	3.01184	0	
0.6053	13.4309	3.59368	0	
0.6060	10.6746	2.08776	0	
0.6067	6.70376	0.239579	0	
0.6073	3.97087	-0.342255	0	
0.6080	3.03655	1.16367	0	
0.6087	1.82193	2.70382	0	
0.6093	1.51827	2.08776	0	
0.6100	3.97087	1.77973	0	
0.6107	4.88183	3.01184	0	
0.6113	4.57818	3.90171	0	
0.6120	6.70376	3.59368	0	
0.6127	13.4309	4.51777	0	
0.6133	16.7711	5.74989	0	
0.6140	11.5856	5.44186	0	
0.6147	7.31107	3.90171	0	
0.6153	7.00742	2.70382	0	
0.6160	4.88183	1.77973	0	
0.6167	2.12558	3.59368	0	
0.6173	3.3402	5.44186	0	
0.6180	4.27452	5.13383	0	
0.6187	4.57818	2.08776	0	
0.6193	6.09645	-0.958314	0	
0.6200	3.97087	-0.958314	0	
0.6207	3.3402	-0.068451	0	
0.6213	13.7345	0.855638	0	
0.6220	23.4982	2.70382	0	
0.6227	19.5273	3.59368	0	
0.6233	11.2819	1.16367	0	
0.6240	7.31107	-0.068451	0	
0.6247	3.97087	-0.068451	0	
0.6253	-1.54163	-0.958314	0	
0.6260	-5.81616	-0.958314	0	
0.6267	-6.42347	0.855638	0	
0.6273	-5.18549	-0.068451	0	
0.6280	-6.72712	-2.19043	0	
0.6287	-9.15636	-1.8824	0	
0.6293	-9.15636	-1.57437	0	
0.6300	-9.76367	-2.19043	0	
0.6307	-10.3943	-3.11452	0	
0.6313	-7.03078	-2.80649	0	
0.6320	-2.14894	-0.068451	0	
0.6327	0	3.31987	0	
0.6333	-0.60731	1.77973	0	
0.6340	-2.75625	-1.57437	0	
0.6347	-4.27452	-1.8824	0	
0.6353	-0.60731	-0.958314	0	
0.6360	5.7928	-0.958314	0	
0.6367	9.76367	-0.958314	0	
0.6373	11.2819	-0.958314	0	
0.6380	10.371	-0.068451	0	
0.6387	8.22204	1.16367	0	
0.6393	3.97087	-0.342255	0	
0.6400	-1.84529	-1.57437	0	
0.6407	-1.54163	-0.342255	0	
0.6413	5.7928	0.547608	0	
0.6420	9.46001	0.855638	0	
0.6427	5.18549	1.77973	0	
0.6433	3.3402	-0.958314	0	
0.6440	6.40011	-3.73058	0	
0.6447	7.61473	-1.57437	0	
0.6453	3.03655	-1.8824	0	
0.6460	-2.14894	-4.00438	0	
0.6467	2.12558	-1.8824	0	
0.6473	14.9492	-0.342255	0	
0.6480	22.2602	-0.958314	0	
0.6487	18.6164	1.77973	0	
0.6493	12.1929	3.59368	0	
0.6500	8.22204	1.77973	0	
0.6507	8.22204	2.39579	0	
0.6513	10.6746	2.70382	0	
0.6520	8.8527	-0.650285	0	
0.6527	1.21462	-0.958314	0	
0.6533	-4.57818	-0.068451	0	
0.6540	-7.03078	-1.8824	0	
0.6547	-8.8527	-2.19043	0	
0.6553	-7.63809	-1.57437	0	
0.6560	-0.934322	-1.8824	0	
0.6567	3.64386	1.4717	0	
0.6573	0.303655	2.70382	0	
0.6580	-4.27452	-2.19043	0	
0.6587	-4.57818	-4.62044	0	
0.6593	-5.18549	-3.42255	0	
0.6600	-8.8527	-6.16059	0	
0.6607	-12.8236	-7.66651	0	
0.6613	-15.2762	-6.46862	0	
0.6620	-14.3418	-6.46862	0	
0.6627	-7.03078	-4.62044	0	
0.6633	-1.54163	-0.650285	0	
0.6640	-1.84529	-1.26634	0	
0.6647	-3.66722	-3.73058	0	
0.6653	-2.75625	-2.19043	0	
0.6660	0.303655	-1.57437	0	
0.6667	2.12558	-2.80649	0	
0.6673	-0.60731	-1.57437	0	
0.6680	-4.27452	-0.958314	0	
0.6687	-5.48914	-2.80649	0	
0.6693	-6.11981	-2.80649	0	
0.6700	-7.63809	-1.57437	0	
0.6707	-5.81616	-0.650285	0	
0.6713	-1.84529	0.855638	0	
0.6720	-3.05991	0.547608	0	
0.6727	-7.03078	-1.8824	0	
0.6733	-6.11981	-2.19043	0	
0.6740	-2.4526	0.239579	0	
0.6747	-0.934322	2.70382	0	
0.6753	1.21462	2.08776	0	
0.6760	4.57818	-0.068451	0	
0.6767	4.88183	1.4717	0	
0.6773	4.57818	4.8258	0	
0.6780	5.48914	1.77973	0	
0.6787	7.00742	-4.31241	0	
0.6793	12.1929	-2.80649	0	
0.6800	18.6164	0.855638	0	
0.6807	20.4383	1.4717	0	
0.6813	19.831	3.01184	0	
0.6820	17.6821	4.8258	0	
0.6827	15.5565	4.8258	0	
0.6833	19.2237	4.8258	0	
0.6840	24.1055	3.01184	0	
0.6847	20.1346	0.855638	0	
0.6853	14.0382	3.59368	0	
0.6860	10.0673	5.44186	0	
0.6867	2.12558	-0.068451	0	
0.6873	-3.66722	-4.62044	0	
0.6880	-4.57818	-5.2365	0	
0.6887	-8.54905	-6.46862	0	
0.6893	-11.9126	-7.66651	0	
0.6900	-10.0673	-6.77665	0	
0.6907	-11.0016	-7.39271	0	
0.6913	-16.1871	-9.82272	0	
0.6920	-18.0091	-10.7468	0	
0.6927	-17.4018	-8.5906	0	
0.6933	-17.0981	-7.39271	0	
0.6940	-16.4908	-8.5906	0	
0.6947	-14.3418	-8.28257	0	
0.6953	-10.698	-2.80649	0	
0.6960	-5.81616	2.70382	0	
0.6967	1.82193	2.39579	0	
0.6973	12.4966	1.77973	0	
0.6980	18.6164	1.77973	0	
0.6987	15.8601	-0.342255	0	
0.6993	14.0382	-1.8824	0	
0.7000	17.0747	0.547608	0	
0.7007	17.6821	1.16367	0	
0.7013	14.0382	-0.068451	0	
0.7020	10.9783	0.239579	0	
0.7027	8.54905	-0.342255	0	
0.7033	6.09645	-1.26634	0	
0.7040	4.88183	-0.342255	0	
0.7047	3.97087	-0.650285	0	
0.7053	1.21462	-3.42255	0	
0.7060	-2.4526	-4.62044	0	
0.7067	-6.11981	-4.00438	0	
0.7073	-9.76367	-3.73058	0	
0.7080	-12.2163	-3.73058	0	
0.7087	-12.5199	-2.80649	0	
0.7093	-11.9126	-1.8824	0	
0.7100	-11.9126	-4.31241	0	
0.7107	-11.3053	-4.92847	0	
0.7113	-9.46001	-0.958314	0	
0.7120	-6.42347	1.77973	0	
0.7127	2.12558	1.16367	0	
0.7133	14.9492	1.77973	0	
0.7140	25.0165	3.90171	0	
0.7147	27.7727	6.36594	0	
0.7153	24.4092	7.87187	0	
0.7160	18.0091	6.05792	0	
0.7167	11.8893	3.59368	0	
0.7173	5.48914	4.20974	0	
0.7180	-1.84529	3.59368	0	
0.7187	-9.46001	1.4717	0	
0.7193	-17.0981	1.77973	0	
0.7200	-18.0091	2.39579	0	
0.7207	-7.03078	0.547608	0	
0.7213	8.8527	0.239579	0	
0.7220	21.6529	1.77973	0	
0.7227	31.1129	1.77973	0	
0.7233	29.5947	-0.958314	0	
0.7240	16.1638	-1.8824	0	
0.7247	6.70376	-1.57437	0	
0.7253	6.70376	-1.8824	0	
0.7260	5.7928	-0.958314	0	
0.7267	2.12558	1.4717	0	
0.7273	2.42924	1.77973	0	
0.7280	7.61473	3.59368	0	
0.7287	12.4966	6.36594	0	
0.7293	12.1929	3.90171	0	
0.7300	7.31107	3.31987	0	
0.7307	4.88183	10.0281	0	
0.7313	6.70376	12.7661	0	
0.7320	7.61473	7.56384	0	
0.7327	6.70376	3.90171	0	
0.7333	3.03655	1.77973	0	
0.7340	-5.18549	-2.49846	0	
0.7347	-14.6455	-5.54453	0	
0.7353	-19.8544	-8.5906	0	
0.7360	-20.4617	-11.0548	0	
0.7367	-15.8835	-9.82272	0	
0.7373	-7.94174	-9.51469	0	
0.7380	-3.97087	-9.82272	0	
0.7387	-7.94174	-7.66651	0	
0.7393	-14.0382	-6.77665	0	
0.7400	-13.1272	-6.77665	0	
0.7407	-7.63809	-3.73058	0	
0.7413	-5.48914	-0.958314	0	
0.7420	-7.03078	-2.19043	0	
0.7427	-6.11981	-2.19043	0	
0.7433	-3.36356	-0.958314	0	
0.7440	-0.60731	-1.8824	0	
0.7447	3.97087	-2.80649	0	
0.7453	9.15636	-2.80649	0	
0.7460	10.371	-3.73058	0	
0.7467	4.88183	-6.16059	0	
0.7473	-0.934322	-6.46862	0	
0.7480	-1.23798	-3.11452	0	
0.7487	1.21462	0.855638	0	
0.7493	0.303655	-0.068451	0	
0.7500	-1.54163	-1.8824	0	
0.7507	-2.4526	0.855638	0	
0.7513	-3.97087	3.59368	0	
0.7520	-5.18549	4.20974	0	
0.7527	-6.11981	4.20974	0	
0.7533	-8.8527	1.77973	0	
0.7540	-12.5199	0.239579	0	
0.7547	-11.3053	2.08776	0	
0.7553	-5.48914	1.77973	0	
0.7560	0.303655	1.77973	0	
0.7567	6.70376	5.74989	0	
0.7573	14.0382	6.67397	0	
0.7580	18.0091	3.31987	0	
0.7587	17.6821	3.31987	0	
0.7593	16.4674	3.01184	0	
0.7600	14.3418	-0.068451	0	
0.7607	16.4674	-0.342255	0	
0.7613	25.9274	0.855638	0	
0.7620	31.1129	2.08776	0	
0.7627	25.0165	3.59368	0	
0.7633	17.6821	0.547608	0	
0.7640	14.3418	-3.73058	0	
0.7647	10.9783	-0.068451	0	
0.7653	4.88183	3.59368	0	
0.7660	-0.303655	-0.650285	0	
0.7667	-2.75625	-4.31241	0	
0.7673	-3.05991	-4.31241	0	
0.7680	-5.48914	-4.92847	0	
0.7687	-10.3943	-5.2365	0	
0.7693	-9.76367	-2.80649	0	
0.7700	-4.88183	-1.8824	0	
0.7707	-3.36356	-2.49846	0	
0.7713	-5.18549	-2.80649	0	
0.7720	-4.88183	-2.49846	0	
0.7727	-1.23798	-1.8824	0	
0.7733	2.42924	0.547608	0	
0.7740	2.42924	3.01184	0	
0.7747	1.82193	1.77973	0	
0.7753	4.27452	0.239579	0	
0.7760	6.40011	3.90171	0	
0.7767	8.54905	9.10399	0	
0.7773	14.9492	7.87187	0	
0.7780	22.2602	4.20974	0	
0.7787	23.1946	2.08776	0	
0.7793	22.2602	0.547608	0	
0.7800	23.1946	0.547608	0	
0.7807	20.742	3.59368	0	
0.7813	14.0382	4.51777	0	
0.7820	7.61473	1.4717	0	
0.7827	3.3402	0.239579	0	
0.7833	0.303655	1.77973	0	
0.7840	-2.14894	1.77973	0	
0.7847	-2.14894	-0.068451	0	
0.7853	-1.54163	-0.342255	0	
0.7860	-0.60731	-0.068451	0	
0.7867	1.21462	0.239579	0	
0.7873	0.303655	0.239579	0	
0.7880	-2.4526	-0.650285	0	
0.7887	-1.23798	-0.650285	0	
0.7893	-1.23798	-0.958314	0	
0.7900	-6.72712	-2.80649	0	
0.7907	-12.2163	-4.00438	0	
0.7913	-18.0091	-5.2365	0	
0.7920	-26.2545	-6.77665	0	
0.7927	-27.1654	-5.85256	0	
0.7933	-16.7944	-5.2365	0	
0.7940	-1.54163	-6.16059	0	
0.7947	11.5856	-5.54453	0	
0.7953	15.2528	-4.62044	0	
0.7960	9.76367	-5.2365	0	
0.7967	4.88183	-4.62044	0	
0.7973	3.03655	-2.80649	0	
0.7980	0.303655	-1.26634	0	
0.7987	-0.60731	1.16367	0	
0.7993	2.73289	2.39579	0	
0.8000	4.57818	-0.958314	0	
0.8007	1.21462	-1.8824	0	
0.8013	-4.27452	0.547608	0	
0.8020	-7.03078	-0.958314	0	
0.8027	-7.33443	-4.62044	0	
0.8033	-8.8527	-2.49846	0	
0.8040	-7.63809	0.855638	0	
0.8047	-3.36356	-0.342255	0	
0.8053	-0.934322	-1.26634	0	
0.8060	-2.14894	0.855638	0	
0.8067	-4.88183	2.08776	0	
0.8073	-8.2454	2.08776	0	
0.8080	-8.2454	2.39579	0	
0.8087	-7.03078	2.70382	0	
0.8093	-9.46001	3.01184	0	
0.8100	-10.3943	1.16367	0	
0.8107	-7.03078	-1.8824	0	
0.8113	-4.57818	-2.19043	0	
0.8120	-3.97087	-1.26634	0	
0.8127	-4.57818	-2.19043	0	
0.8133	-7.94174	-2.80649	0	
0.8140	-6.42347	-2.19043	0	
0.8147	0.303655	-0.958314	0	
0.8153	6.09645	1.16367	0	
0.8160	14.0382	2.08776	0	
0.8167	21.9566	2.08776	0	
0.8173	21.0456	5.44186	0	
0.8180	19.831	7.87187	0	
0.8187	25.0165	4.8258	0	
0.8193	27.7727	3.59368	0	
0.8200	26.8384	7.25581	0	
0.8207	27.1421	7.56384	0	
0.8213	26.5348	4.20974	0	
0.8220	25.9274	3.59368	0	
0.8227	26.8384	5.44186	0	
0.8233	25.0165	4.8258	0	
0.8240	20.4383	1.77973	0	
0.8247	15.8601	0.547608	0	
0.8253	9.76367	1.16367	0	
0.8260	4.27452	0.547608	0	
0.8267	2.12558	-0.650285	0	
0.8273	-0.60731	-1.8824	0	
0.8280	-4.57818	-3.73058	0	
0.8287	-7.03078	-4.00438	0	
0.8293	-8.54905	-3.73058	0	
0.8300	-12.2163	-4.31241	0	
0.8307	-17.7054	-5.2365	0	
0.8313	-19.8544	-6.77665	0	
0.8320	-18.0091	-9.20666	0	
0.8327	-15.2762	-9.20666	0	
0.8333	-12.5199	-6.46862	0	
0.8340	-11.3053	-6.46862	0	
0.8347	-13.7345	-7.08468	0	
0.8353	-15.5798	-6.77665	0	
0.8360	-13.7345	-7.39271	0	
0.8367	-12.5199	-6.46862	0	
0.8373	-14.0382	-3.42255	0	
0.8380	-11.609	-2.80649	0	
0.8387	-6.11981	-3.73058	0	
0.8393	-3.97087	-2.80649	0	
0.8400	-5.18549	-4.62044	0	
0.8407	-2.75625	-7.08468	0	
0.8413	5.7928	-3.11452	0	
0.8420	16.1638	1.16367	0	
0.8427	22.8909	1.4717	0	
0.8433	21.9566	2.08776	0	
0.8440	16.1638	2.70382	0	
0.8447	12.1929	1.77973	0	
0.8453	10.6746	3.31987	0	
0.8460	9.76367	3.90171	0	
0.8467	10.0673	1.77973	0	
0.8473	8.54905	3.31987	0	
0.8480	3.03655	5.44186	0	
0.8487	-3.36356	1.4717	0	
0.8493	-8.8527	-1.57437	0	
0.8500	-13.7345	-0.958314	0	
0.8507	-15.2762	-1.8824	0	
0.8513	-10.698	-1.8824	0	
0.8520	-6.42347	-2.49846	0	
0.8527	-4.27452	-5.54453	0	
0.8533	0.60731	-4.92847	0	
0.8540	7.61473	-1.57437	0	
0.8547	8.8527	-3.11452	0	
0.8553	3.97087	-4.62044	0	
0.8560	4.88183	-0.068451	0	
0.8567	13.7345	1.77973	0	
0.8573	19.2237	-1.8824	0	
0.8580	15.2528	-3.11452	0	
0.8587	11.5856	-0.650285	0	
0.8593	13.1039	2.08776	0	
0.8600	13.4309	2.70382	0	
0.8607	11.2819	1.77973	0	
0.8613	10.9783	1.77973	0	
0.8620	10.6746	2.70382	0	
0.8627	6.09645	2.70382	0	
0.8633	-0.60731	2.70382	0	
0.8640	-5.18549	1.4717	0	
0.8647	-10.0673	-0.958314	0	
0.8653	-17.7054	-2.49846	0	
0.8660	-22.5872	-2.80649	0	
0.8667	-20.158	-1.8824	0	
0.8673	-11.609	0.855638	0	
0.8680	1.21462	2.70382	0	
0.8687	14.0382	2.39579	0	
0.8693	22.8909	2.70382	0	
0.8700	24.4092	3.01184	0	
0.8707	20.4383	3.01184	0	
0.8713	14.0382	3.59368	0	
0.8720	8.8527	2.70382	0	
0.8727	9.46001	1.16367	0	
0.8733	15.8601	3.59368	0	
0.8740	20.4383	4.8258	0	
0.8747	20.4383	2.70382	0	
0.8753	15.8601	0.855638	0	
0.8760	9.46001	-0.342255	0	
0.8767	2.12558	-1.8824	0	
0.8773	-1.54163	-0.650285	0	
0.8780	-3.36356	1.16367	0	
0.8787	-6.42347	0.547608	0	
0.8793	-8.54905	-0.650285	0	
0.8800	-5.18549	-0.958314	0	
0.8807	0	-1.8824	0	
0.8813	1.82193	-2.49846	0	
0.8820	4.88183	-0.068451	0	
0.8827	7.31107	2.70382	0	
0.8833	0.303655	1.16367	0	
0.8840	-10.698	-1.57437	0	
0.8847	-11.9126	-0.068451	0	
0.8853	-9.76367	1.4717	0	
0.8860	-13.4309	-2.19043	0	
0.8867	-12.8236	-5.54453	0	
0.8873	-3.36356	-3.42255	0	
0.8880	4.88183	0.239579	0	
0.8887	6.09645	0.855638	0	
0.8893	4.88183	1.77973	0	
0.8900	3.3402	2.70382	0	
0.8907	3.97087	1.16367	0	
0.8913	4.27452	-1.8824	0	
0.8920	2.12558	-4.62044	0	
0.8927	1.82193	-3.73058	0	
0.8933	3.97087	-1.57437	0	
0.8940	4.27452	-2.19043	0	
0.8947	4.88183	-3.11452	0	
0.8953	7.61473	-0.342255	0	
0.8960	7.91838	2.08776	0	
0.8967	3.3402	1.4717	0	
0.8973	-2.4526	0.239579	0	
0.8980	-3.97087	-0.068451	0	
0.8987	-3.05991	0.855638	0	
0.8993	-7.63809	1.4717	0	
0.9000	-14.3418	-0.068451	0	
0.9007	-14.0382	-1.8824	0	
0.9013	-11.3053	-2.49846	0	
0.9020	-11.0016	-3.11452	0	
0.9027	-9.76367	-2.80649	0	
0.9033	-7.94174	-1.8824	0	
0.9040	-9.76367	-2.49846	0	
0.9047	-8.54905	-2.19043	0	
0.9053	-0.934322	-0.958314	0	
0.9060	7.31107	-1.26634	0	
0.9067	10.9783	-1.26634	0	
0.9073	9.46001	-0.068451	0	
0.9080	7.31107	-0.342255	0	
0.9087	8.8527	-0.068451	0	
0.9093	7.91838	1.16367	0	
0.9100	1.82193	0.855638	0	
0.9107	-1.54163	0.855638	0	
0.9113	-1.54163	3.01184	0	
0.9120	-0.60731	4.51777	0	
0.9127	3.97087	4.51777	0	
0.9133	8.54905	3.59368	0	
0.9140	9.15636	1.77973	0	
0.9147	10.9783	1.4717	0	
0.9153	15.2528	2.70382	0	
0.9160	14.3418	4.51777	0	
0.9167	11.5856	7.25581	0	
0.9173	14.0382	7.25581	0	
0.9180	18.3127	6.36594	0	
0.9187	20.1346	7.56384	0	
0.9193	18.3127	8.48793	0	
0.9200	14.6455	7.25581	0	
0.9207	13.1039	7.56384	0	
0.9213	11.8893	6.982	0	
0.9220	6.70376	0.239579	0	
0.9227	0.60731	-4.92847	0	
0.9233	-4.27452	-4.62044	0	
0.9240	-11.609	-6.46862	0	
0.9247	-15.2762	-10.7468	0	
0.9253	-14.3418	-12.2527	0	
0.9260	-17.0981	-11.0548	0	
0.9267	-20.7653	-10.1308	0	
0.9273	-18.3127	-9.51469	0	
0.9280	-18.6164	-7.97454	0	
0.9287	-21.9799	-7.39271	0	
0.9293	-18.3127	-9.20666	0	
0.9300	-12.8236	-8.89863	0	
0.9307	-13.4309	-6.46862	0	
0.9313	-11.3053	-6.77665	0	
0.9320	-5.48914	-8.28257	0	
0.9327	-5.18549	-5.85256	0	
0.9333	-7.03078	-4.92847	0	
0.9340	-7.33443	-5.54453	0	
0.9347	-9.76367	-2.80649	0	
0.9353	-10.698	-0.342255	0	
0.9360	-7.03078	0.855638	0	
0.9367	-2.4526	2.08776	0	
0.9373	1.82193	0.855638	0	
0.9380	5.18549	-1.8824	0	
0.9387	2.12558	-0.068451	0	
0.9393	-6.42347	1.77973	0	
0.9400	-10.3943	0.855638	0	
0.9407	-6.11981	1.77973	0	
0.9413	1.21462	1.77973	0	
0.9420	4.57818	0.547608	0	
0.9427	2.12558	2.39579	0	
0.9433	-2.75625	2.70382	0	
0.9440	-4.27452	1.16367	0	
0.9447	-0.60731	4.51777	0	
0.9453	7.91838	8.1799	0	
0.9460	23.1946	6.36594	0	
0.9467	42.1146	6.67397	0	
0.9473	52.4856	7.25581	0	
0.9480	50.9673	6.36594	0	
0.9487	45.1511	8.1799	0	
0.9493	39.662	9.41201	0	
0.9500	34.1728	7.87187	0	
0.9507	27.1421	7.25581	0	
0.9513	19.5273	5.74989	0	
0.9520	16.7711	3.90171	0	
0.9527	19.5273	6.05792	0	
0.9533	20.4383	6.36594	0	
0.9540	18.6164	3.90171	0	
0.9547	17.6821	6.36594	0	
0.9553	18.0091	10.0281	0	
0.9560	18.6164	7.56384	0	
0.9567	18.6164	4.8258	0	
0.9573	15.8601	5.44186	0	
0.9580	12.4966	6.67397	0	
0.9587	10.371	7.25581	0	
0.9593	4.88183	6.36594	0	
0.9600	-0.303655	5.74989	0	
0.9607	-1.54163	6.67397	0	
0.9613	-3.05991	5.13383	0	
0.9620	-7.94174	3.01184	0	
0.9627	-13.1272	2.70382	0	
0.9633	-18.0091	-0.342255	0	
0.9640	-20.7653	-5.54453	0	
0.9647	-22.5872	-6.46862	0	
0.9653	-26.5581	-7.08468	0	
0.9660	-30.8326	-11.3286	0	
0.9667	-29.618	-12.8688	0	
0.9673	-23.4982	-9.20666	0	
0.9680	-19.5273	-7.39271	0	
0.9687	-18.0091	-8.28257	0	
0.9693	-15.2762	-7.08468	0	
0.9700	-10.3943	-4.92847	0	
0.9707	-7.03078	-3.73058	0	
0.9713	-7.03078	-1.8824	0	
0.9720	-7.33443	-0.068451	0	
0.9727	-6.42347	-0.068451	0	
0.9733	-3.66722	-0.650285	0	
0.9740	-0.303655	0.855638	0	
0.9747	1.82193	1.77973	0	
0.9753	3.03655	0.855638	0	
0.9760	3.97087	-0.068451	0	
0.9767	3.3402	1.4717	0	
0.9773	2.12558	3.31987	0	
0.9780	3.97087	3.31987	0	
0.9787	7.61473	4.20974	0	
0.9793	7.61473	6.36594	0	
0.9800	3.97087	5.44186	0	
0.9807	4.27452	3.01184	0	
0.9813	8.8527	3.59368	0	
0.9820	10.6746	5.74989	0	
0.9827	9.76367	5.74989	0	
0.9833	8.8527	7.25581	0	
0.9840	7.61473	9.10399	0	
0.9847	5.7928	8.1799	0	
0.9853	4.88183	6.67397	0	
0.9860	5.48914	7.25581	0	
0.9867	6.70376	8.1799	0	
0.9873	6.09645	8.1799	0	
0.9880	3.97087	6.36594	0	
0.9887	5.18549	5.13383	0	
0.9893	7.00742	6.67397	0	
0.9900	5.7928	7.25581	0	
0.9907	1.51827	2.70382	0	
0.9913	-2.4526	-2.49846	0	
0.9920	-3.97087	-3.42255	0	
0.9927	-4.57818	-3.73058	0	
0.9933	-8.8527	-5.85256	0	
0.9940	-14.6455	-7.66651	0	
0.9947	-14.3418	-7.97454	0	
0.9953	-13.4309	-7.39271	0	
0.9960	-20.7653	-7.97454	0	
0.9967	-28.9874	-10.4388	0	
0.9973	-29.9217	-12.5608	0	
0.9980	-25.3435	-11.6367	0	
0.9987	-19.8544	-10.1308	0	
0.9993	-9.46001	-9.20666	0	
1.0000	8.8527	-8.28257	0	
1.0007	26.8384	-7.39271	0	
1.0013	35.0838	-5.85256	0	
1.0020	29.291	-4.31241	0	
1.0027	16.4674	-4.92847	0	
1.0033	6.70376	-6.16059	0	
1.0040	4.27452	-4.00438	0	
1.0047	6.70376	-2.49846	0	
1.0053	9.46001	-3.42255	0	
1.0060	11.2819	-3.11452	0	
1.0067	10.371	-0.342255	0	
1.0073	7.00742	1.16367	0	
1.0080	4.88183	-0.068451	0	
1.0087	5.48914	-1.57437	0	
1.0093	6.70376	-0.958314	0	
1.0100	5.7928	-0.068451	0	
1.0107	3.97087	-0.958314	0	
1.0113	3.3402	-1.8824	0	
1.0120	5.18549	-0.958314	0	
1.0127	4.88183	-0.342255	0	
1.0133	2.42924	-0.958314	0	
1.0140	5.48914	-0.068451	0	
1.0147	11.5856	-0.342255	0	
1.0153	15.8601	-1.57437	0	
1.0160	18.6164	-0.650285	0	
1.0167	18.3127	0.855638	0	
1.0173	13.1039	-0.342255	0	
1.0180	9.46001	-1.8824	0	
1.0187	11.2819	-1.57437	0	
1.0193	14.3418	-2.80649	0	
1.0200	15.8601	-4.62044	0	
1.0207	13.1039	-4.92847	0	
1.0213	8.54905	-4.31241	0	
1.0220	7.00742	-3.42255	0	
1.0227	5.7928	-2.80649	0	
1.0233	1.82193	-4.31241	0	
1.0240	1.21462	-5.54453	0	
1.0247	3.03655	-4.62044	0	
1.0253	1.21462	-4.62044	0	
1.0260	-2.4526	-6.46862	0	
1.0267	-4.27452	-5.54453	0	
1.0273	-5.18549	-4.00438	0	
1.0280	-5.18549	-6.46862	0	
1.0287	-6.11981	-8.28257	0	
1.0293	-8.2454	-5.85256	0	
1.0300	-5.18549	-3.73058	0	
1.0307	-0.303655	-2.80649	0	
1.0313	-0.303655	-0.068451	0	
1.0320	0.910964	1.77973	0	
1.0327	3.97087	0.855638	0	
1.0333	1.21462	-0.958314	0	
1.0340	-2.4526	-4.62044	0	
1.0347	-4.57818	-5.2365	0	
1.0353	-7.63809	-1.8824	0	
1.0360	-6.72712	-1.8824	0	
1.0367	-4.88183	-3.42255	0	
1.0373	-9.76367	-1.26634	0	
1.0380	-12.5199	-0.958314	0	
1.0387	-8.8527	-4.00438	0	
1.0393	-10.0673	-5.54453	0	
1.0400	-9.76367	-5.54453	0	
1.0407	-1.23798	-6.46862	0	
1.0413	1.21462	-7.66651	0	
1.0420	-3.66722	-7.39271	0	
1.0427	-2.4526	-6.16059	0	
1.0433	2.42924	-6.16059	0	
1.0440	4.88183	-7.39271	0	
1.0447	7.91838	-7.66651	0	
1.0453	7.61473	-7.39271	0	
1.0460	7.61473	-8.28257	0	
1.0467	13.1039	-8.28257	0	
1.0473	11.8893	-7.97454	0	
1.0480	1.51827	-7.39271	0	
1.0487	-2.14894	-4.62044	0	
1.0493	-1.54163	-2.80649	0	
1.0500	-7.03078	-5.85256	0	
1.0507	-9.76367	-5.54453	0	
1.0513	-9.46001	-1.8824	0	
1.0520	-10.698	-2.80649	0	
1.0527	-9.76367	-5.2365	0	
1.0533	-9.76367	-4.62044	0	
1.0540	-15.2762	-3.42255	0	
1.0547	-11.609	-1.26634	0	
1.0553	0.303655	1.16367	0	
1.0560	4.88183	1.77973	0	
1.0567	8.54905	3.59368	0	
1.0573	19.5273	6.36594	0	
1.0580	24.4092	4.8258	0	
1.0587	24.7128	3.31987	0	
1.0593	31.1129	6.36594	0	
1.0600	31.4166	7.25581	0	
1.0607	23.1946	6.05792	0	
1.0613	19.5273	7.25581	0	
1.0620	17.6821	6.05792	0	
1.0627	14.0382	1.4717	0	
1.0633	13.4309	0.855638	0	
1.0640	10.371	2.70382	0	
1.0647	5.48914	2.08776	0	
1.0653	6.40011	1.77973	0	
1.0660	7.00742	2.70382	0	
1.0667	2.12558	3.01184	0	
1.0673	-3.05991	2.39579	0	
1.0680	-11.9126	-0.650285	0	
1.0687	-20.158	-2.49846	0	
1.0693	-18.6164	0.855638	0	
1.0700	-17.7054	1.77973	0	
1.0707	-21.6763	-0.958314	0	
1.0713	-13.7345	-0.068451	0	
1.0720	3.03655	2.70382	0	
1.0727	14.6455	2.39579	0	
1.0733	24.1055	2.39579	0	
1.0740	29.5947	4.51777	0	
1.0747	23.1946	4.20974	0	
1.0753	15.8601	3.31987	0	
1.0760	13.1039	2.08776	0	
1.0767	7.00742	-0.068451	0	
1.0773	0.303655	0.855638	0	
1.0780	3.64386	3.59368	0	
1.0787	9.46001	3.90171	0	
1.0793	7.00742	4.20974	0	
1.0800	0.303655	6.05792	0	
1.0807	-2.14894	6.05792	0	
1.0813	-2.75625	3.59368	0	
1.0820	-5.48914	1.77973	0	
1.0827	-5.48914	0.855638	0	
1.0833	0	0.547608	0	
1.0840	2.12558	-0.650285	0	
1.0847	-3.36356	-2.80649	0	
1.0853	-7.03078	-3.73058	0	
1.0860	-5.81616	-1.8824	0	
1.0867	-4.27452	1.4717	0	
1.0873	-3.66722	3.31987	0	
1.0880	-3.36356	4.20974	0	
1.0887	-7.03078	5.13383	0	
1.0893	-11.609	3.59368	0	
1.0900	-11.9126	1.16367	0	
1.0907	-10.0673	2.39579	0	
1.0913	-11.3053	3.31987	0	
1.0920	-14.3418	0.855638	0	
1.0927	-14.3418	0.239579	0	
1.0933	-10.698	2.70382	0	
1.0940	-8.8527	5.13383	0	
1.0947	-9.76367	5.13383	0	
1.0953	-8.8527	3.01184	0	
1.0960	-7.33443	1.77973	0	
1.0967	-6.72712	3.31987	0	
1.0973	-1.54163	3.01184	0	
1.0980	3.03655	-0.068451	0	
1.0987	2.42924	0.239579	0	
1.0993	5.48914	4.51777	0	
1.1000	11.2819	6.05792	0	
1.1007	10.371	4.20974	0	
1.1013	5.48914	3.31987	0	
1.1020	3.3402	3.59368	0	
1.1027	1.51827	2.70382	0	
1.1033	1.21462	2.08776	0	
1.1040	2.73289	2.39579	0	
1.1047	2.73289	2.39579	0	
1.1053	1.82193	2.70382	0	
1.1060	2.12558	4.51777	0	
1.1067	2.12558	6.982	0	
1.1073	2.73289	7.25581	0	
1.1080	4.88183	5.44186	0	
1.1087	6.09645	3.31987	0	
1.1093	4.88183	2.70382	0	
1.1100	3.3402	3.01184	0	
1.1107	5.7928	2.70382	0	
1.1113	8.8527	2.08776	0	
1.1120	6.70376	3.90171	0	
1.1127	4.88183	5.44186	0	
1.1133	8.54905	3.59368	0	
1.1140	8.54905	1.4717	0	
1.1147	4.57818	2.70382	0	
1.1153	0.60731	3.90171	0	
1.1160	-3.66722	3.90171	0	
1.1167	-0.60731	4.51777	0	
1.1173	12.8002	5.74989	0	
1.1180	19.2237	4.51777	0	
1.1187	13.4309	2.39579	0	
1.1193	9.76367	1.4717	0	
1.1200	6.70376	2.39579	0	
1.1207	0.910964	3.31987	0	
1.1213	1.51827	2.08776	0	
1.1220	3.97087	-0.068451	0	
1.1227	2.42924	0.855638	0	
1.1233	7.61473	2.70382	0	
1.1240	17.3784	1.77973	0	
1.1247	17.3784	0.855638	0	
1.1253	10.0673	0.547608	0	
1.1260	6.40011	-0.068451	0	
1.1267	4.88183	-0.650285	0	
1.1273	1.82193	-0.650285	0	
1.1280	-2.4526	-2.80649	0	
1.1287	-6.11981	-4.62044	0	
1.1293	-7.63809	-4.00438	0	
1.1300	-8.8527	-4.00438	0	
1.1307	-11.3053	-4.62044	0	
1.1313	-9.76367	-3.11452	0	
1.1320	-6.11981	-1.8824	0	
1.1327	-4.88183	-0.958314	0	
1.1333	-5.18549	1.77973	0	
1.1340	-5.48914	3.90171	0	
1.1347	-6.11981	2.70382	0	
1.1353	-2.4526	0.855638	0	
1.1360	6.40011	0.239579	0	
1.1367	9.76367	0.855638	0	
1.1373	7.61473	3.01184	0	
1.1380	8.22204	2.39579	0	
1.1387	6.09645	-1.57437	0	
1.1393	-1.54163	-0.342255	0	
1.1400	-2.75625	3.59368	0	
1.1407	2.73289	3.59368	0	
1.1413	3.3402	1.77973	0	
1.1420	0.60731	0.239579	0	
1.1427	-3.66722	-2.80649	0	
1.1433	-11.3053	-4.31241	0	
1.1440	-14.3418	-2.19043	0	
1.1447	-13.7345	-1.8824	0	
1.1453	-18.6164	-4.31241	0	
1.1460	-19.8544	-4.31241	0	
1.1467	-13.7345	-4.00438	0	
1.1473	-14.3418	-6.46862	0	
1.1480	-15.2762	-7.39271	0	
1.1487	-7.03078	-5.2365	0	
1.1493	-3.36356	-5.2365	0	
1.1500	-3.97087	-3.73058	0	
1.1507	3.97087	2.39579	0	
1.1513	4.57818	5.44186	0	
1.1520	-0.934322	2.70382	0	
1.1527	11.2819	2.70382	0	
1.1533	25.6238	5.44186	0	
1.1540	23.4982	3.90171	0	
1.1547	25.9274	1.16367	0	
1.1553	32.6546	0.855638	0	
1.1560	25.0165	1.4717	0	
1.1567	18.6164	3.01184	0	
1.1573	24.1055	3.31987	0	
1.1580	22.2602	1.4717	0	
1.1587	15.5565	0.239579	0	
1.1593	16.1638	0.855638	0	
1.1600	17.3784	2.70382	0	
1.1607	13.7345	4.8258	0	
1.1613	11.2819	3.59368	0	
1.1620	11.8893	1.77973	0	
1.1627	13.1039	2.70382	0	
1.1633	9.46001	3.59368	0	
1.1640	-2.14894	0.855638	0	
1.1647	-7.03078	-2.80649	0	
1.1653	0.60731	-3.73058	0	
1.1660	4.57818	-4.62044	0	
1.1667	-3.97087	-7.08468	0	
1.1673	-12.5199	-7.08468	0	
1.1680	-14.3418	-5.54453	0	
1.1687	-12.5199	-5.2365	0	
1.1693	-8.8527	-5.2365	0	
1.1700	-6.72712	-4.62044	0	
1.1707	-7.94174	-4.92847	0	
1.1713	-7.63809	-4.62044	0	
1.1720	-6.11981	-2.80649	0	
1.1727	-8.8527	-3.42255	0	
1.1733	-9.76367	-4.92847	0	
1.1740	-4.57818	-3.11452	0	
1.1747	-1.84529	-1.26634	0	
1.1753	-4.27452	-0.958314	0	
1.1760	-3.97087	0.547608	0	
1.1767	0.303655	0.855638	0	
1.1773	3.03655	-0.958314	0	
1.1780	4.88183	-0.068451	0	
1.1787	7.00742	1.4717	0	
1.1793	10.371	2.08776	0	
1.1800	17.3784	4.51777	0	
1.1807	22.2602	5.44186	0	
1.1813	17.0747	0.855638	0	
1.1820	8.8527	-1.57437	0	
1.1827	4.57818	2.39579	0	
1.1833	-0.60731	4.51777	0	
1.1840	-6.11981	2.70382	0	
1.1847	-5.48914	0.855638	0	
1.1853	-3.97087	-0.958314	0	
1.1860	-4.57818	-2.49846	0	
1.1867	-2.75625	-2.19043	0	
1.1873	0	-2.19043	0	
1.1880	-1.84529	-4.31241	0	
1.1887	-3.97087	-7.08468	0	
1.1893	-5.18549	-8.28257	0	
1.1900	-7.94174	-6.46862	0	
1.1907	-7.94174	-3.73058	0	
1.1913	-5.48914	-4.62044	0	
1.1920	-13.4309	-6.46862	0	
1.1927	-27.1654	-6.46862	0	
1.1933	-31.7436	-6.46862	0	
1.1940	-28.9874	-8.28257	0	
1.1947	-27.1654	-7.39271	0	
1.1953	-22.2836	-4.31241	0	
1.1960	-15.2762	-2.19043	0	
1.1967	-10.698	-2.19043	0	
1.1973	-7.03078	-2.80649	0	
1.1980	0.303655	-3.73058	0	
1.1987	9.76367	-3.42255	0	
1.1993	21.3493	-1.57437	0	
1.2000	37.2327	-0.342255	0	
1.2007	49.7293	1.77973	0	
1.2013	45.7584	4.51777	0	
1.2020	32.3509	3.90171	0	
1.2027	25.9274	2.39579	0	
1.2033	24.4092	2.70382	0	
1.2040	18.6164	1.77973	0	
1.2047	13.1039	-0.068451	0	
1.2053	9.46001	0.855638	0	
1.2060	3.97087	0.855638	0	
1.2067	2.12558	-0.068451	0	
1.2073	3.97087	0.855638	0	
1.2080	1.82193	1.16367	0	
1.2087	-0.60731	0.855638	0	
1.2093	2.42924	0.855638	0	
1.2100	5.48914	-0.342255	0	
1.2107	4.88183	-1.57437	0	
1.2113	4.27452	-1.8824	0	
1.2120	4.27452	-4.31241	0	
1.2127	2.73289	-4.92847	0	
1.2133	1.21462	-1.8824	0	
1.2140	1.21462	-1.8824	0	
1.2147	0.910964	-3.42255	0	
1.2153	-0.303655	-0.650285	0	
1.2160	0.60731	-0.068451	0	
1.2167	2.12558	-2.49846	0	
1.2173	0.60731	-1.8824	0	
1.2180	-0.934322	0.547608	0	
1.2187	-0.303655	1.16367	0	
1.2193	-0.60731	-0.068451	0	
1.2200	-3.36356	-1.57437	0	
1.2207	-4.57818	-0.068451	0	
1.2213	-3.36356	1.16367	0	
1.2220	-4.57818	-0.958314	0	
1.2227	-7.94174	-2.19043	0	
1.2233	-8.8527	-1.8824	0	
1.2240	-7.63809	-4.31241	0	
1.2247	-7.94174	-4.31241	0	
1.2253	-6.11981	0.855638	0	
1.2260	-3.36356	2.08776	0	
1.2267	-4.57818	-0.958314	0	
1.2273	-4.27452	-0.068451	0	
1.2280	-2.14894	1.77973	0	
1.2287	-4.88183	-0.342255	0	
1.2293	-5.81616	-0.650285	0	
1.2300	1.21462	0.239579	0	
1.2307	4.57818	-0.650285	0	
1.2313	0.910964	-0.068451	0	
1.2320	0.303655	2.70382	0	
1.2327	1.21462	2.70382	0	
1.2333	-0.60731	2.08776	0	
1.2340	0.303655	2.70382	0	
1.2347	4.57818	0.855638	0	
1.2353	9.76367	-1.8824	0	
1.2360	8.54905	-0.342255	0	
1.2367	-4.57818	0.855638	0	
1.2373	-16.1871	-0.958314	0	
1.2380	-13.1272	-1.57437	0	
1.2387	-7.03078	-0.342255	0	
1.2393	-4.88183	-0.958314	0	
1.2400	-0.60731	-1.57437	0	
1.2407	-2.75625	-0.650285	0	
1.2413	-10.698	-0.342255	0	
1.2420	-7.94174	-1.26634	0	
1.2427	3.97087	-0.342255	0	
1.2433	14.9492	3.59368	0	
1.2440	24.4092	5.74989	0	
1.2447	25.0165	2.70382	0	
1.2453	17.3784	-1.26634	0	
1.2460	14.0382	-0.068451	0	
1.2467	16.1638	2.39579	0	
1.2473	19.2237	1.16367	0	
1.2480	26.8384	0.855638	0	
1.2487	34.1728	3.90171	0	
1.2493	35.6911	6.982	0	
1.2500	35.6911	7.25581	0	
1.2507	32.3509	7.25581	0	
1.2513	24.1055	6.36594	0	
1.2520	19.5273	6.36594	0	
1.2527	19.5273	7.25581	0	
1.2533	16.1638	6.36594	0	
1.2540	12.4966	4.8258	0	
1.2547	14.0382	6.05792	0	
1.2553	16.4674	7.25581	0	
1.2560	11.5856	5.74989	0	
1.2567	0.910964	4.20974	0	
1.2573	-7.33443	2.70382	0	
1.2580	-9.46001	-1.8824	0	
1.2587	-9.76367	-6.77665	0	
1.2593	-11.609	-6.46862	0	
1.2600	-14.3418	-4.62044	0	
1.2607	-20.4617	-5.54453	0	
1.2613	-26.2545	-6.77665	0	
1.2620	-27.4691	-5.85256	0	
1.2627	-28.0764	-5.2365	0	
1.2633	-30.8326	-6.77665	0	
1.2640	-31.7436	-7.39271	0	
1.2647	-32.3509	-5.54453	0	
1.2653	-34.8035	-6.16059	0	
1.2660	-31.7436	-8.89863	0	
1.2667	-23.8019	-7.08468	0	
1.2673	-19.8544	-2.80649	0	
1.2680	-14.9725	-3.73058	0	
1.2687	-2.14894	-5.2365	0	
1.2693	6.70376	-1.26634	0	
1.2700	4.88183	0.239579	0	
1.2707	2.12558	-2.80649	0	
1.2713	4.27452	-3.73058	0	
1.2720	6.40011	-1.8824	0	
1.2727	8.22204	-2.80649	0	
1.2733	10.9783	-2.80649	0	
1.2740	11.5856	-1.26634	0	
1.2747	8.22204	-1.8824	0	
1.2753	3.03655	-3.11452	0	
1.2760	2.73289	-0.958314	0	
1.2767	8.54905	2.08776	0	
1.2773	14.0382	2.08776	0	
1.2780	12.1929	-0.068451	0	
1.2787	6.40011	0.239579	0	
1.2793	3.3402	0.547608	0	
1.2800	3.97087	-1.8824	0	
1.2807	4.88183	-2.80649	0	
1.2813	6.70376	-0.958314	0	
1.2820	9.46001	-0.068451	0	
1.2827	8.54905	1.4717	0	
1.2833	3.03655	2.39579	0	
1.2840	-0.934322	-0.068451	0	
1.2847	-2.4526	-0.958314	0	
1.2853	-4.88183	3.31987	0	
1.2860	-7.03078	4.8258	0	
1.2867	-7.94174	0.855638	0	
1.2873	-10.3943	-2.49846	0	
1.2880	-12.2163	-2.80649	0	
1.2887	-10.0673	-2.19043	0	
1.2893	-12.5199	-2.80649	0	
1.2900	-19.5273	-3.11452	0	
1.2907	-17.0981	-1.8824	0	
1.2913	-5.18549	-1.57437	0	
1.2920	1.82193	-2.80649	0	
1.2927	3.3402	-3.11452	0	
1.2933	9.46001	-3.11452	0	
1.2940	18.6164	-3.73058	0	
1.2947	25.6238	-2.80649	0	
1.2953	29.8983	-0.958314	0	
1.2960	31.1129	1.16367	0	
1.2967	29.8983	4.51777	0	
1.2973	26.8384	5.44186	0	
1.2980	18.6164	2.39579	0	
1.2987	11.2819	1.16367	0	
1.2993	12.1929	2.39579	0	
1.3000	14.6455	2.70382	0	
1.3007	15.8601	4.20974	0	
1.3013	15.5565	4.51777	0	
1.3020	8.22204	2.08776	0	
1.3027	-2.4526	0.855638	0	
1.3033	-2.4526	1.77973	0	
1.3040	2.73289	3.01184	0	
1.3047	1.21462	4.51777	0	
1.3053	-1.23798	3.59368	0	
1.3060	-1.54163	-0.068451	0	
1.3067	-2.14894	-0.068451	0	
1.3073	-1.23798	2.08776	0	
1.3080	-0.60731	-0.958314	0	
1.3087	-2.4526	-5.54453	0	
1.3093	-4.27452	-4.00438	0	
1.3100	-8.54905	-0.958314	0	
1.3107	-11.609	-1.26634	0	
1.3113	-8.54905	-1.8824	0	
1.3120	-6.11981	1.16367	0	
1.3127	-5.48914	4.51777	0	
1.3133	-0.934322	3.31987	0	
1.3140	2.42924	1.77973	0	
1.3147	2.12558	3.59368	0	
1.3153	3.3402	3.59368	0	
1.3160	2.73289	0.547608	0	
1.3167	2.42924	0.239579	0	
1.3173	12.1929	1.77973	0	
1.3180	22.5872	2.08776	0	
1.3187	21.3493	4.51777	0	
1.3193	15.5565	6.36594	0	
1.3200	12.4966	3.01184	0	
1.3207	9.76367	-0.958314	0	
1.3213	7.00742	-2.19043	0	
1.3220	7.61473	-1.8824	0	
1.3227	10.6746	-0.068451	0	
1.3233	11.2819	1.16367	0	
1.3240	9.15636	-2.49846	0	
1.3247	5.7928	-6.46862	0	
1.3253	-0.60731	-4.31241	0	
1.3260	-8.54905	-1.26634	0	
1.3267	-11.609	-3.73058	0	
1.3273	-14.9725	-7.39271	0	
1.3280	-21.069	-7.08468	0	
1.3287	-18.92	-5.85256	0	
1.3293	-9.76367	-8.28257	0	
1.3300	-3.36356	-8.89863	0	
1.3307	2.42924	-4.00438	0	
1.3313	6.70376	-0.958314	0	
1.3320	1.21462	-2.80649	0	
1.3327	-5.48914	-3.42255	0	
1.3333	-5.18549	-0.958314	0	
1.3340	-4.57818	-0.958314	0	
1.3347	-5.18549	-2.49846	0	
1.3353	-1.54163	-0.958314	0	
1.3360	3.03655	0.547608	0	
1.3367	3.97087	-0.068451	0	
1.3373	4.88183	-0.650285	0	
1.3380	9.46001	-1.57437	0	
1.3387	14.6455	-1.8824	0	
1.3393	14.3418	0.855638	0	
1.3400	7.31107	4.20974	0	
1.3407	-1.54163	3.01184	0	
1.3413	-7.03078	0.547608	0	
1.3420	-8.8527	0.547608	0	
1.3427	-7.63809	0.547608	0	
1.3433	-5.18549	-0.068451	0	
1.3440	-2.75625	0.855638	0	
1.3447	-1.54163	0.855638	0	
1.3453	0.60731	-0.068451	0	
1.3460	3.97087	1.16367	0	
1.3467	4.27452	3.01184	0	
1.3473	3.03655	5.13383	0	
1.3480	5.7928	7.87187	0	
1.3487	7.91838	7.56384	0	
1.3493	4.88183	5.13383	0	
1.3500	6.70376	4.8258	0	
1.3507	14.9492	5.44186	0	
1.3513	17.0747	4.20974	0	
1.3520	11.2819	4.20974	0	
1.3527	5.7928	4.20974	0	
1.3533	0.910964	1.77973	0	
1.3540	-0.60731	0.855638	0	
1.3547	3.03655	1.4717	0	
1.3553	3.3402	-0.958314	0	
1.3560	-3.66722	-5.2365	0	
1.3567	-9.76367	-7.08468	0	
1.3573	-8.8527	-6.46862	0	
1.3580	-5.81616	-4.92847	0	
1.3587	-5.18549	-2.80649	0	
1.3593	-4.88183	-2.19043	0	
1.3600	1.21462	-1.8824	0	
1.3607	11.8893	0.239579	0	
1.3613	18.92	2.08776	0	
1.3620	18.92	2.70382	0	
1.3627	14.3418	4.51777	0	
1.3633	9.46001	5.13383	0	
1.3640	5.7928	2.39579	0	
1.3647	1.82193	-1.26634	0	
1.3653	-5.18549	-3.11452	0	
1.3660	-10.698	-1.8824	0	
1.3667	-10.3943	0.855638	0	
1.3673	-8.8527	0.855638	0	
1.3680	-6.72712	-1.57437	0	
1.3687	-0.60731	-1.26634	0	
1.3693	4.88183	-0.342255	0	
1.3700	3.03655	-0.958314	0	
1.3707	-2.4526	-0.650285	0	
1.3713	-3.05991	1.16367	0	
1.3720	2.73289	1.16367	0	
1.3727	9.46001	-0.958314	0	
1.3733	14.0382	-2.19043	0	
1.3740	14.9492	-1.8824	0	
1.3747	12.1929	-0.958314	0	
1.3753	7.61473	-0.958314	0	
1.3760	3.97087	-0.068451	0	
1.3767	3.97087	1.16367	0	
1.3773	5.7928	1.4717	0	
1.3780	3.03655	1.4717	0	
1.3787	-5.18549	-0.342255	0	
1.3793	-8.2454	-4.00438	0	
1.3800	-5.81616	-3.42255	0	
1.3807	-7.03078	0.547608	0	
1.3813	-7.33443	1.77973	0	
1.3820	0.303655	1.4717	0	
1.3827	4.57818	1.77973	0	
1.3833	-0.934322	1.4717	0	
1.3840	-6.42347	1.16367	0	
1.3847	-8.8527	2.70382	0	
1.3853	-8.54905	2.70382	0	
1.3860	-2.4526	1.77973	0	
1.3867	1.51827	2.70382	0	
1.3873	-1.54163	2.08776	0	
1.3880	-2.4526	-0.958314	0	
1.3887	1.21462	-0.958314	0	
1.3893	4.88183	0.855638	0	
1.3900	10.371	-1.57437	0	
1.3907	15.2528	-2.80649	0	
1.3913	11.8893	0.547608	0	
1.3920	3.03655	-0.650285	0	
1.3927	-1.23798	-5.54453	0	
1.3933	-1.23798	-6.16059	0	
1.3940	-0.60731	-2.80649	0	
1.3947	0	-1.26634	0	
1.3953	0	-0.958314	0	
1.3960	-0.60731	-1.8824	0	
1.3967	2.12558	-2.80649	0	
1.3973	4.57818	-1.8824	0	
1.3980	1.82193	-1.26634	0	
1.3987	-4.27452	-3.11452	0	
1.3993	-8.54905	-4.00438	0	
1.4000	-11.3053	-3.73058	0	
1.4007	-9.46001	-3.73058	0	
1.4013	-1.23798	-4.00438	0	
1.4020	5.18549	-2.80649	0	
1.4027	4.27452	0.547608	0	
1.4033	2.73289	2.70382	0	
1.4040	3.97087	1.16367	0	
1.4047	2.12558	-1.26634	0	
1.4053	-3.36356	0.239579	0	
1.4060	-7.03078	2.39579	0	
1.4067	-6.11981	0.855638	0	
1.4073	-5.18549	-0.958314	0	
1.4080	-6.72712	-1.26634	0	
1.4087	-5.18549	-2.49846	0	
1.4093	-2.4526	-1.57437	0	
1.4100	-3.66722	1.77973	0	
1.4107	-5.48914	0.855638	0	
1.4113	-4.88183	-2.49846	0	
1.4120	-7.03078	-1.26634	0	
1.4127	-10.698	-0.068451	0	
1.4133	-9.76367	-3.11452	0	
1.4140	-5.81616	-2.49846	0	
1.4147	-2.14894	1.77973	0	
1.4153	0.910964	1.77973	0	
1.4160	0.60731	-0.068451	0	
1.4167	1.82193	-0.342255	0	
1.4173	8.54905	-1.8824	0	
1.4180	15.2528	-1.8824	0	
1.4187	22.2602	2.08776	0	
1.4193	27.7727	3.59368	0	
1.4200	22.8909	2.39579	0	
1.4207	13.1039	2.70382	0	
1.4213	11.2819	1.77973	0	
1.4220	13.4309	-0.958314	0	
1.4227	14.9492	0.855638	0	
1.4233	16.7711	3.59368	0	
1.4240	17.0747	1.77973	0	
1.4247	16.1638	0.855638	0	
1.4253	16.7711	4.20974	0	
1.4260	15.8601	6.36594	0	
1.4267	13.4309	4.8258	0	
1.4273	10.371	5.44186	0	
1.4280	6.70376	6.982	0	
1.4287	5.48914	4.8258	0	
1.4293	4.88183	2.39579	0	
1.4300	0.910964	1.77973	0	
1.4307	-2.75625	1.77973	0	
1.4313	-4.27452	1.4717	0	
1.4320	-5.18549	1.4717	0	
1.4327	-4.27452	-0.068451	0	
1.4333	-1.54163	-0.958314	0	
1.4340	1.51827	1.77973	0	
1.4347	6.40011	3.59368	0	
1.4353	10.371	1.77973	0	
1.4360	9.76367	0.855638	0	
1.4367	3.97087	1.77973	0	
1.4373	-2.14894	-0.068451	0	
1.4380	-4.88183	-3.42255	0	
1.4387	-7.33443	-3.42255	0	
1.4393	-18.6164	-1.26634	0	
1.4400	-32.6546	-2.80649	0	
1.4407	-35.4108	-7.08468	0	
1.4413	-30.2253	-7.39271	0	
1.4420	-27.1654	-4.00438	0	
1.4427	-25.6471	-5.54453	0	
1.4433	-21.069	-8.28257	0	
1.4440	-14.9725	-6.77665	0	
1.4447	-7.03078	-6.46862	0	
1.4453	0	-6.46862	0	
1.4460	5.7928	-1.8824	0	
1.4467	10.6746	0.239579	0	
1.4473	10.0673	-2.80649	0	
1.4480	1.21462	-2.49846	0	
1.4487	-3.05991	-0.068451	0	
1.4493	5.48914	-0.342255	0	
1.4500	17.6821	1.4717	0	
1.4507	23.4982	3.59368	0	
1.4513	21.0456	0.855638	0	
1.4520	17.3784	-0.342255	0	
1.4527	20.4383	2.70382	0	
1.4533	26.8384	4.51777	0	
1.4540	26.8384	3.31987	0	
1.4547	25.3201	3.59368	0	
1.4553	30.5056	3.90171	0	
1.4560	32.3509	4.20974	0	
1.4567	24.4092	4.8258	0	
1.4573	15.8601	4.51777	0	
1.4580	14.0382	3.59368	0	
1.4587	13.1039	2.70382	0	
1.4593	9.46001	1.16367	0	
1.4600	3.64386	-0.958314	0	
1.4607	-1.84529	-2.19043	0	
1.4613	-5.81616	-4.00438	0	
1.4620	-7.94174	-6.77665	0	
1.4627	-8.8527	-7.66651	0	
1.4633	-7.94174	-5.54453	0	
1.4640	-7.03078	-2.80649	0	
1.4647	-7.03078	-3.11452	0	
1.4653	-7.03078	-5.2365	0	
1.4660	-6.11981	-4.00438	0	
1.4667	-6.42347	-1.26634	0	
1.4673	-9.46001	-1.8824	0	
1.4680	-14.6455	-4.00438	0	
1.4687	-18.6164	-3.73058	0	
1.4693	-18.92	-2.80649	0	
1.4700	-20.7653	-2.80649	0	
1.4707	-23.8019	-2.80649	0	
1.4713	-23.8019	-3.42255	0	
1.4720	-19.8544	-0.650285	0	
1.4727	-12.2163	3.01184	0	
1.4733	1.82193	3.31987	0	
1.4740	16.7711	3.31987	0	
1.4747	25.0165	4.8258	0	
1.4753	27.4691	3.59368	0	
1.4760	22.2602	1.4717	0	
1.4767	14.6455	3.31987	0	
1.4773	14.0382	6.36594	0	
1.4780	18.3127	6.36594	0	
1.4787	14.0382	4.51777	0	
1.4793	5.7928	2.08776	0	
1.4800	4.88183	-0.068451	0	
1.4807	10.9783	-0.342255	0	
1.4813	13.4309	0.239579	0	
1.4820	8.22204	1.16367	0	
1.4827	0.910964	2.08776	0	
1.4833	0.303655	1.77973	0	
1.4840	6.40011	-0.068451	0	
1.4847	10.9783	-0.650285	0	
1.4853	9.46001	-0.958314	0	
1.4860	4.88183	-0.650285	0	
1.4867	2.12558	0.239579	0	
1.4873	1.51827	1.16367	0	
1.4880	0.910964	0.547608	0	
1.4887	0.60731	-0.068451	0	
1.4893	1.21462	-0.068451	0	
1.4900	1.21462	-0.068451	0	
1.4907	3.97087	1.77973	0	
1.4913	5.7928	2.70382	0	
1.4920	3.3402	-1.57437	0	
1.4927	2.12558	-2.80649	0	
1.4933	3.97087	1.77973	0	
1.4940	2.12558	3.31987	0	
1.4947	-0.60731	-0.068451	0	
1.4953	0.60731	-1.26634	0	
1.4960	2.12558	-1.57437	0	
1.4967	-0.303655	-1.8824	0	
1.4973	-5.48914	-0.958314	0	
1.4980	-9.46001	-2.49846	0	
1.4987	-11.0016	-5.54453	0	
1.4993	-13.4309	-5.2365	0	
1.5000	-17.0981	-3.73058	0	
1.5007	-18.0091	-3.11452	0	
1.5013	-14.9725	-2.19043	0	
1.5020	-11.609	-2.19043	0	
1.5027	-8.8527	-3.42255	0	
1.5033	-6.72712	-2.19043	0	
1.5040	-2.4526	-0.068451	0	
1.5047	5.18549	-2.49846	0	
1.5053	12.4966	-5.54453	0	
1.5060	14.3418	-3.73058	0	
1.5067	9.46001	-0.068451	0	
1.5073	2.12558	0.855638	0	
1.5080	-1.84529	-0.958314	0	
1.5087	-1.84529	-1.57437	0	
1.5093	-2.4526	0.239579	0	
1.5100	-3.36356	3.01184	0	
1.5107	-0.60731	4.51777	0	
1.5113	1.82193	3.59368	0	
1.5120	-0.303655	1.77973	0	
1.5127	-1.84529	1.4717	0	
1.5133	-0.60731	1.77973	0	
1.5140	1.21462	1.77973	0	
1.5147	4.27452	1.77973	0	
1.5153	10.0673	2.70382	0	
1.5160	13.1039	4.20974	0	
1.5167	9.46001	3.31987	0	
1.5173	0.910964	-0.068451	0	
1.5180	-4.27452	-3.73058	0	
1.5187	-2.4526	-5.54453	0	
1.5193	2.73289	-5.54453	0	
1.5200	6.70376	-5.54453	0	
1.5207	7.61473	-6.46862	0	
1.5213	6.70376	-5.85256	0	
1.5220	8.54905	-3.42255	0	
1.5227	10.6746	-4.00438	0	
1.5233	1.82193	-6.77665	0	
1.5240	-13.7345	-6.16059	0	
1.5247	-20.7653	-4.00438	0	
1.5253	-19.5273	-3.73058	0	
1.5260	-17.0981	-1.26634	0	
1.5267	-10.698	1.77973	0	
1.5273	-5.81616	0.855638	0	
1.5280	-6.42347	-0.650285	0	
1.5287	-4.88183	-0.068451	0	
1.5293	1.21462	-1.26634	0	
1.5300	3.3402	-1.57437	0	
1.5307	3.3402	0.239579	0	
1.5313	6.70376	-0.958314	0	
1.5320	8.22204	-3.11452	0	
1.5327	11.8893	-2.19043	0	
1.5333	25.0165	-2.19043	0	
1.5340	36.9291	-2.80649	0	
1.5347	35.0838	-0.958314	0	
1.5353	26.8384	-0.068451	0	
1.5360	21.3493	-0.650285	0	
1.5367	17.3784	-0.650285	0	
1.5373	14.0382	-0.958314	0	
1.5380	14.6455	0.547608	0	
1.5387	16.4674	4.51777	0	
1.5393	15.8601	3.31987	0	
1.5400	14.9492	-0.068451	0	
1.5407	10.371	0.855638	0	
1.5413	0.910964	0.239579	0	
1.5420	-4.88183	-4.00438	0	
1.5427	-3.05991	-1.26634	0	
1.5433	-3.66722	3.59368	0	
1.5440	-7.63809	1.16367	0	
1.5447	-6.42347	-1.8824	0	
1.5453	-4.27452	-0.068451	0	
1.5460	-4.57818	1.77973	0	
1.5467	-4.57818	1.16367	0	
1.5473	-3.66722	-0.650285	0	
1.5480	-2.14894	-1.26634	0	
1.5487	0.910964	0.547608	0	
1.5493	0.910964	0.547608	0	
1.5500	-1.54163	-1.57437	0	
1.5507	0.303655	-0.650285	0	
1.5513	1.82193	-0.342255	0	
1.5520	0.303655	-3.42255	0	
1.5527	2.12558	-2.19043	0	
1.5533	5.7928	1.77973	0	
1.5540	5.7928	1.4717	0	
1.5547	3.64386	0.855638	0	
1.5553	1.21462	1.77973	0	
1.5560	-0.303655	-0.650285	0	
1.5567	-1.54163	-2.19043	0	
1.5573	-3.97087	-1.26634	0	
1.5580	-4.88183	-1.57437	0	
1.5587	-0.60731	0.239579	0	
1.5593	0	3.01184	0	
1.5600	-5.48914	1.16367	0	
1.5607	-5.81616	-1.57437	0	
1.5613	-1.23798	-1.8824	0	
1.5620	-1.54163	-4.00438	0	
1.5627	-5.18549	-2.80649	0	
1.5633	-6.11981	3.31987	0	
1.5640	-2.4526	4.51777	0	
1.5647	3.03655	1.16367	0	
1.5653	5.18549	1.4717	0	
1.5660	0.303655	3.90171	0	
1.5667	-7.94174	4.20974	0	
1.5673	-13.4309	3.59368	0	
1.5680	-12.5199	2.70382	0	
1.5687	-7.94174	0.547608	0	
1.5693	-3.97087	-0.068451	0	
1.5700	2.12558	-0.068451	0	
1.5707	9.15636	-0.650285	0	
1.5713	8.54905	0.239579	0	
1.5720	6.70376	1.16367	0	
1.5727	15.8601	-1.8824	0	
1.5733	25.9274	-4.00438	0	
1.5740	20.742	-1.8824	0	
1.5747	10.0673	0.239579	0	
1.5753	6.70376	-1.8824	0	
1.5760	5.7928	-3.11452	0	
1.5767	3.03655	-1.8824	0	
1.5773	2.12558	-1.8824	0	
1.5780	0.303655	-2.80649	0	
1.5787	-1.54163	-2.80649	0	
1.5793	0.910964	-2.80649	0	
1.5800	2.12558	-2.80649	0	
1.5807	-2.14894	-4.00438	0	
1.5813	-4.57818	-3.73058	0	
1.5820	-4.57818	1.16367	0	
1.5827	-6.42347	5.13383	0	
1.5833	-4.88183	1.77973	0	
1.5840	1.82193	-2.19043	0	
1.5847	4.88183	-1.8824	0	
1.5853	2.73289	-0.650285	0	
1.5860	0	-0.958314	0	
1.5867	-2.4526	-0.958314	0	
1.5873	-2.14894	-2.80649	0	
1.5880	3.64386	-4.62044	0	
1.5887	11.5856	-4.62044	0	
1.5893	17.3784	-4.62044	0	
1.5900	18.3127	-3.42255	0	
1.5907	15.8601	-0.650285	0	
1.5913	11.2819	-1.26634	0	
1.5920	6.40011	-4.92847	0	
1.5927	5.7928	-3.11452	0	
1.5933	8.54905	2.08776	0	
1.5940	9.46001	2.70382	0	
1.5947	8.54905	2.70382	0	
1.5953	7.00742	5.13383	0	
1.5960	3.64386	5.44186	0	
1.5967	2.42924	2.39579	0	
1.5973	3.97087	1.16367	0	
1.5980	1.51827	1.77973	0	
1.5987	-2.14894	1.16367	0	
1.5993	-2.4526	0.855638	0	
1.6000	-0.60731	0.547608	0	
1.6007	3.03655	0.855638	0	
1.6013	3.64386	2.70382	0	
1.6020	-3.36356	4.20974	0	
1.6027	-8.54905	3.59368	0	
1.6033	-7.03078	3.59368	0	
1.6040	-7.03078	4.20974	0	
1.6047	-11.0016	1.77973	0	
1.6053	-10.0673	0.547608	0	
1.6060	-6.11981	3.59368	0	
1.6067	-3.36356	4.51777	0	
1.6073	-1.54163	0.855638	0	
1.6080	-0.303655	0.239579	0	
1.6087	-0.303655	2.39579	0	
1.6093	1.21462	1.16367	0	
1.6100	4.88183	-0.068451	0	
1.6107	6.09645	-0.068451	0	
1.6113	3.97087	-0.650285	0	
1.6120	1.82193	-0.068451	0	
1.6127	5.48914	-0.068451	0	
1.6133	10.0673	-2.49846	0	
1.6140	7.61473	-1.57437	0	
1.6147	2.12558	-0.342255	0	
1.6153	0	-3.11452	0	
1.6160	-1.23798	-2.80649	0	
1.6167	-3.05991	0.239579	0	
1.6173	-2.4526	-0.958314	0	
1.6180	-2.75625	-1.26634	0	
1.6187	-4.57818	1.4717	0	
1.6193	-3.36356	1.77973	0	
1.6200	-2.4526	0.855638	0	
1.6207	-3.05991	0.547608	0	
1.6213	-2.4526	-0.650285	0	
1.6220	-0.60731	0.855638	0	
1.6227	0	3.01184	0	
1.6233	0.303655	0.547608	0	
1.6240	0.910964	-1.8824	0	
1.6247	1.21462	-0.068451	0	
1.6253	0.303655	-0.650285	0	
1.6260	-4.27452	-2.19043	0	
1.6267	-7.94174	0.239579	0	
1.6273	-7.63809	3.01184	0	
1.6280	-7.94174	2.39579	0	
1.6287	-7.94174	1.77973	0	
1.6293	-4.27452	1.77973	0	
1.6300	-4.27452	1.4717	0	
1.6307	-7.03078	0.547608	0	
1.6313	-1.54163	-1.26634	0	
1.6320	7.00742	-2.80649	0	
1.6327	12.4966	-1.57437	0	
1.6333	18.92	-0.068451	0	
1.6340	21.3493	0.239579	0	
1.6347	16.7711	2.08776	0	
1.6353	12.1929	3.59368	0	
1.6360	9.76367	1.77973	0	
1.6367	6.70376	2.08776	0	
1.6373	4.88183	4.8258	0	
1.6380	3.03655	3.01184	0	
1.6387	3.97087	-0.958314	0	
1.6393	10.371	-1.26634	0	
1.6400	11.2819	-0.068451	0	
1.6407	4.88183	0.855638	0	
1.6413	3.3402	1.4717	0	
1.6420	6.09645	1.16367	0	
1.6427	3.03655	0.855638	0	
1.6433	-0.934322	-0.068451	0	
1.6440	-0.934322	-2.80649	0	
1.6447	-2.14894	-5.2365	0	
1.6453	-3.05991	-5.85256	0	
1.6460	-2.4526	-5.2365	0	
1.6467	-6.11981	-3.73058	0	
1.6473	-12.2163	-1.57437	0	
1.6480	-13.1272	-0.958314	0	
1.6487	-8.8527	-1.8824	0	
1.6493	-3.66722	-4.31241	0	
1.6500	-0.60731	-6.46862	0	
1.6507	-0.60731	-6.16059	0	
1.6513	-1.54163	-4.62044	0	
1.6520	2.12558	-4.92847	0	
1.6527	7.61473	-5.54453	0	
1.6533	10.371	-3.42255	0	
1.6540	13.1039	-2.80649	0	
1.6547	17.6821	-3.73058	0	
1.6553	18.92	-1.57437	0	
1.6560	17.6821	2.70382	0	
1.6567	15.8601	0.855638	0	
1.6573	10.9783	-3.73058	0	
1.6580	4.88183	-2.49846	0	
1.6587	2.42924	1.77973	0	
1.6593	3.3402	1.16367	0	
1.6600	3.3402	-0.650285	0	
1.6607	-1.23798	0.547608	0	
1.6613	-7.63809	1.16367	0	
1.6620	-7.33443	-0.342255	0	
1.6627	-2.75625	-1.8824	0	
1.6633	-2.4526	-2.49846	0	
1.6640	-1.23798	-0.958314	0	
1.6647	4.57818	1.16367	0	
1.6653	5.48914	1.77973	0	
1.6660	6.40011	2.70382	0	
1.6667	16.7711	5.13383	0	
1.6673	25.0165	6.67397	0	
1.6680	19.2237	7.25581	0	
1.6687	11.2819	7.25581	0	
1.6693	6.70376	4.51777	0	
1.6700	3.03655	0.855638	0	
1.6707	4.88183	-0.958314	0	
1.6713	10.371	-0.650285	0	
1.6720	11.2819	-1.8824	0	
1.6727	10.371	-3.73058	0	
1.6733	9.15636	-1.26634	0	
1.6740	8.8527	2.39579	0	
1.6747	9.46001	2.08776	0	
1.6753	7.91838	-0.068451	0	
1.6760	4.88183	-0.068451	0	
1.6767	5.7928	-0.068451	0	
1.6773	7.61473	-0.068451	0	
1.6780	3.97087	-0.068451	0	
1.6787	-2.75625	2.08776	0	
1.6793	-8.2454	5.44186	0	
1.6800	-11.609	5.44186	0	
1.6807	-14.0382	2.70382	0	
1.6813	-14.3418	4.20974	0	
1.6820	-11.609	7.25581	0	
1.6827	-10.698	4.8258	0	
1.6833	-16.1871	2.70382	0	
1.6840	-20.4617	3.59368	0	
1.6847	-19.8544	2.70382	0	
1.6853	-21.069	-0.958314	0	
1.6860	-22.5872	-3.73058	0	
1.6867	-20.4617	-5.54453	0	
1.6873	-18.6164	-4.62044	0	
1.6880	-14.3418	-2.80649	0	
1.6887	-2.4526	-4.31241	0	
1.6893	9.15636	-5.2365	0	
1.6900	14.0382	-2.80649	0	
1.6907	19.831	-0.958314	0	
1.6913	28.9874	-0.068451	0	
1.6920	31.7202	1.77973	0	
1.6927	24.4092	1.77973	0	
1.6933	16.1638	-0.068451	0	
1.6940	14.9492	-2.19043	0	
1.6947	17.0747	-3.11452	0	
1.6953	14.0382	-1.8824	0	
1.6960	6.09645	-3.42255	0	
1.6967	0.303655	-5.54453	0	
1.6973	-2.75625	-3.42255	0	
1.6980	-5.48914	-2.80649	0	
1.6987	-7.03078	-6.46862	0	
1.6993	-9.15636	-4.62044	0	
1.7000	-12.5199	-1.26634	0	
1.7007	-9.15636	-3.11452	0	
1.7013	0.910964	-2.80649	0	
1.7020	7.91838	1.4717	0	
1.7027	11.2819	-0.650285	0	
1.7033	11.8893	-5.2365	0	
1.7040	7.00742	-5.54453	0	
1.7047	-0.60731	-5.2365	0	
1.7053	-3.66722	-5.2365	0	
1.7060	-5.81616	-4.31241	0	
1.7067	-8.8527	-4.31241	0	
1.7073	-8.8527	-4.62044	0	
1.7080	-6.11981	-2.80649	0	
1.7087	-3.66722	-3.73058	0	
1.7093	-3.97087	-6.46862	0	
1.7100	-6.11981	-4.62044	0	
1.7107	-5.81616	-1.26634	0	
1.7113	-3.97087	-0.650285	0	
1.7120	-3.36356	-1.26634	0	
1.7127	-2.75625	-0.958314	0	
1.7133	-0.934322	-0.342255	0	
1.7140	0.910964	1.77973	0	
1.7147	2.12558	3.59368	0	
1.7153	1.21462	3.90171	0	
1.7160	0.303655	3.90171	0	
1.7167	2.12558	3.59368	0	
1.7173	2.12558	2.08776	0	
1.7180	-2.14894	2.08776	0	
1.7187	0.303655	0.855638	0	
1.7193	6.40011	-0.650285	0	
1.7200	4.88183	0.855638	0	
1.7207	1.21462	1.77973	0	
1.7213	2.42924	-0.342255	0	
1.7220	5.18549	-0.068451	0	
1.7227	9.15636	3.31987	0	
1.7233	14.9492	4.51777	0	
1.7240	17.6821	4.51777	0	
1.7247	15.5565	4.20974	0	
1.7253	14.0382	3.59368	0	
1.7260	13.1039	4.8258	0	
1.7267	9.46001	6.36594	0	
1.7273	6.70376	5.44186	0	
1.7280	7.31107	3.59368	0	
1.7287	6.40011	1.77973	0	
1.7293	3.64386	2.70382	0	
1.7300	4.27452	6.982	0	
1.7307	6.40011	8.1799	0	
1.7313	7.61473	5.44186	0	
1.7320	8.8527	5.74989	0	
1.7327	7.61473	5.44186	0	
1.7333	2.12558	1.77973	0	
1.7340	-0.60731	2.70382	0	
1.7347	-0.60731	5.13383	0	
1.7353	-4.57818	1.77973	0	
1.7360	-6.72712	-0.650285	0	
1.7367	-2.4526	1.77973	0	
1.7373	0.303655	-0.958314	0	
1.7380	-2.14894	-6.16059	0	
1.7387	-3.97087	-4.62044	0	
1.7393	-6.11981	-3.42255	0	
1.7400	-9.76367	-6.46862	0	
1.7407	-14.3418	-7.97454	0	
1.7413	-17.4018	-8.5906	0	
1.7420	-15.8835	-9.82272	0	
1.7427	-12.2163	-8.28257	0	
1.7433	-11.609	-6.77665	0	
1.7440	-12.2163	-5.54453	0	
1.7447	-11.3053	-2.80649	0	
1.7453	-9.76367	-0.650285	0	
1.7460	-6.11981	-0.342255	0	
1.7467	-0.303655	-0.068451	0	
1.7473	0.60731	0.855638	0	
1.7480	-1.23798	3.31987	0	
1.7487	-0.303655	6.36594	0	
1.7493	0.303655	6.36594	0	
1.7500	-0.934322	3.59368	0	
1.7507	-0.60731	2.70382	0	
1.7513	0.303655	2.08776	0	
1.7520	-0.934322	1.16367	0	
1.7527	-1.23798	0.547608	0	
1.7533	1.82193	-0.958314	0	
1.7540	3.97087	0.239579	0	
1.7547	2.73289	3.90171	0	
1.7553	0.303655	2.70382	0	
1.7560	-1.23798	-1.8824	0	
1.7567	-6.11981	-3.42255	0	
1.7573	-17.0981	-2.80649	0	
1.7580	-25.0398	-3.73058	0	
1.7587	-22.2836	-4.62044	0	
1.7593	-15.5798	-4.31241	0	
1.7600	-13.1272	-4.62044	0	
1.7607	-7.63809	-2.80649	0	
1.7613	4.88183	1.77973	0	
1.7620	14.6455	2.70382	0	
1.7627	17.3784	-1.8824	0	
1.7633	16.1638	-3.42255	0	
1.7640	13.7345	-1.57437	0	
1.7647	13.4309	-0.958314	0	
1.7653	16.1638	0.855638	0	
1.7660	17.6821	3.01184	0	
1.7667	21.3493	-0.068451	0	
1.7673	25.0165	-3.73058	0	
1.7680	18.0091	-2.49846	0	
1.7687	6.70376	-0.650285	0	
1.7693	2.12558	-0.068451	0	
1.7700	0.60731	0.547608	0	
1.7707	-0.303655	-0.068451	0	
1.7713	4.57818	-0.068451	0	
1.7720	9.15636	0.855638	0	
1.7727	10.371	-0.650285	0	
1.7733	11.2819	-0.958314	0	
1.7740	12.1929	0.547608	0	
1.7747	17.3784	0.239579	0	
1.7753	29.291	-0.342255	0	
1.7760	35.9948	0.855638	0	
1.7767	32.3509	1.16367	0	
1.7773	26.8384	1.16367	0	
1.7780	21.0456	0.239579	0	
1.7787	14.0382	-3.11452	0	
1.7793	12.4966	-1.8824	0	
1.7800	14.3418	3.31987	0	
1.7807	14.0382	2.70382	0	
1.7813	14.9492	-0.068451	0	
1.7820	14.0382	0.855638	0	
1.7827	7.61473	0.239579	0	
1.7833	3.03655	-2.19043	0	
1.7840	2.12558	-1.26634	0	
1.7847	-1.54163	-1.57437	0	
1.7853	-4.27452	-2.80649	0	
1.7860	-2.75625	0.239579	0	
1.7867	-3.36356	2.39579	0	
1.7873	-6.11981	-0.342255	0	
1.7880	-10.3943	-0.958314	0	
1.7887	-18.92	-0.068451	0	
1.7893	-22.5872	-0.958314	0	
1.7900	-11.9126	-0.342255	0	
1.7907	2.73289	0.239579	0	
1.7913	7.00742	-2.80649	0	
1.7920	3.64386	-4.92847	0	
1.7927	-1.54163	-2.80649	0	
1.7933	-3.97087	-1.8824	0	
1.7940	-4.27452	-2.80649	0	
1.7947	-6.11981	-3.73058	0	
1.7953	-9.76367	-2.80649	0	
1.7960	-7.94174	-1.8824	0	
1.7967	-2.75625	-3.73058	0	
1.7973	-3.05991	-6.16059	0	
1.7980	-5.18549	-5.54453	0	
1.7987	-2.4526	-3.73058	0	
1.7993	1.21462	-2.80649	0	
1.8000	-0.934322	-3.11452	0	
1.8007	-1.23798	-4.62044	0	
1.8013	3.03655	-3.11452	0	
1.8020	3.03655	-0.342255	0	
1.8027	-0.60731	-1.57437	0	
1.8033	-0.60731	-2.80649	0	
1.8040	0	-0.068451	0	
1.8047	-3.05991	1.77973	0	
1.8053	-4.27452	0.855638	0	
1.8060	-4.27452	1.16367	0	
1.8067	-6.72712	0.855638	0	
1.8073	-8.2454	1.16367	0	
1.8080	-7.03078	1.77973	0	
1.8087	-6.72712	-0.650285	0	
1.8093	-7.94174	-1.8824	0	
1.8100	-7.63809	-0.068451	0	
1.8107	-7.03078	-0.958314	0	
1.8113	-7.33443	-2.80649	0	
1.8120	-6.72712	-1.8824	0	
1.8127	-4.57818	-0.342255	0	
1.8133	-3.36356	0.547608	0	
1.8140	-3.66722	2.08776	0	
1.8147	-2.75625	2.08776	0	
1.8153	-0.934322	3.01184	0	
1.8160	-2.4526	4.51777	0	
1.8167	-5.18549	2.70382	0	
1.8173	-3.97087	-1.57437	0	
1.8180	-0.934322	-2.80649	0	
1.8187	-1.84529	-1.57437	0	
1.8193	-2.75625	-0.068451	0	
1.8200	0	0.547608	0	
1.8207	3.03655	1.77973	0	
1.8213	6.40011	5.44186	0	
1.8220	12.4966	7.56384	0	
1.8227	12.1929	5.44186	0	
1.8233	5.7928	5.44186	0	
1.8240	8.8527	6.36594	0	
1.8247	18.6164	5.44186	0	
1.8253	17.6821	6.36594	0	
1.8260	11.2819	7.87187	0	
1.8267	8.54905	6.36594	0	
1.8273	2.42924	4.8258	0	
1.8280	-3.97087	4.51777	0	
1.8287	-3.36356	1.77973	0	
1.8293	-2.75625	1.77973	0	
1.8300	-5.48914	4.8258	0	
1.8307	-4.88183	4.20974	0	
1.8313	-2.14894	2.08776	0	
1.8320	-2.14894	3.90171	0	
1.8327	1.21462	3.01184	0	
1.8333	10.371	-0.650285	0	
1.8340	16.1638	-1.26634	0	
1.8347	14.9492	-2.80649	0	
1.8353	11.8893	-5.85256	0	
1.8360	9.76367	-4.00438	0	
1.8367	8.8527	-1.8824	0	
1.8373	10.6746	-3.73058	0	
1.8380	10.371	-4.31241	0	
1.8387	5.48914	-4.31241	0	
1.8393	0.910964	-7.66651	0	
1.8400	-2.4526	-8.28257	0	
1.8407	-4.57818	-3.73058	0	
1.8413	-0.934322	-3.11452	0	
1.8420	2.12558	-7.39271	0	
1.8427	-1.84529	-8.28257	0	
1.8433	-7.03078	-6.46862	0	
1.8440	-7.03078	-5.54453	0	
1.8447	-10.0673	-4.31241	0	
1.8453	-21.9799	-2.80649	0	
1.8460	-34.8035	-1.8824	0	
1.8467	-34.4999	-0.342255	0	
1.8473	-20.4617	3.31987	0	
1.8480	-9.15636	4.8258	0	
1.8487	-8.2454	2.70382	0	
1.8493	-4.57818	1.16367	0	
1.8500	8.22204	1.16367	0	
1.8507	17.3784	0.855638	0	
1.8513	16.4674	0.547608	0	
1.8520	11.2819	1.16367	0	
1.8527	8.54905	2.08776	0	
1.8533	9.15636	1.77973	0	
1.8540	11.5856	-0.068451	0	
1.8547	14.3418	-2.49846	0	
1.8553	14.9492	-3.73058	0	
1.8560	12.1929	-4.62044	0	
1.8567	8.54905	-4.92847	0	
1.8573	8.54905	-4.62044	0	
1.8580	10.6746	-5.2365	0	
1.8587	11.2819	-5.54453	0	
1.8593	11.5856	-3.42255	0	
1.8600	11.8893	-4.00438	0	
1.8607	7.61473	-7.66651	0	
1.8613	1.21462	-6.46862	0	
1.8620	0.303655	-1.8824	0	
1.8627	1.21462	-1.8824	0	
1.8633	-4.27452	-3.73058	0	
1.8640	-8.8527	-3.42255	0	
1.8647	-6.42347	-2.80649	0	
1.8653	-4.88183	-2.80649	0	
1.8660	-7.03078	-2.49846	0	
1.8667	-7.94174	-1.57437	0	
1.8673	-3.97087	-0.958314	0	
1.8680	0.303655	-0.958314	0	
1.8687	1.51827	-0.342255	0	
1.8693	1.82193	0.239579	0	
1.8700	3.03655	-0.342255	0	
1.8707	5.7928	-0.342255	0	
1.8713	9.46001	2.70382	0	
1.8720	12.1929	4.8258	0	
1.8727	14.9492	3.90171	0	
1.8733	22.2602	3.90171	0	
1.8740	32.3509	6.36594	0	
1.8747	33.2619	5.44186	0	
1.8753	25.3201	2.08776	0	
1.8760	18.6164	0.239579	0	
1.8767	13.4309	-0.068451	0	
1.8773	7.31107	-2.49846	0	
1.8780	3.97087	-4.92847	0	
1.8787	5.7928	-3.73058	0	
1.8793	8.8527	-0.068451	0	
1.8800	8.54905	2.70382	0	
1.8807	2.73289	2.39579	0	
1.8813	-3.36356	-0.650285	0	
1.8820	-7.03078	-2.49846	0	
1.8827	-8.2454	-0.958314	0	
1.8833	-7.63809	-0.068451	0	
1.8840	-5.18549	-0.068451	0	
1.8847	-2.14894	0.239579	0	
1.8853	-0.934322	-0.342255	0	
1.8860	-3.05991	-0.958314	0	
1.8867	-6.11981	0.239579	0	
1.8873	-7.03078	2.70382	0	
1.8880	-6.42347	4.51777	0	
1.8887	-6.11981	3.90171	0	
1.8893	-3.66722	0.855638	0	
1.8900	-0.60731	0.239579	0	
1.8907	-1.23798	2.70382	0	
1.8913	-1.84529	3.90171	0	
1.8920	-1.54163	2.70382	0	
1.8927	-5.18549	0.239579	0	
1.8933	-12.5199	-2.80649	0	
1.8940	-17.0981	-1.8824	0	
1.8947	-19.5273	2.70382	0	
1.8953	-22.8909	1.4717	0	
1.8960	-22.5872	-2.80649	0	
1.8967	-16.1871	-2.19043	0	
1.8973	-8.8527	-0.068451	0	
1.8980	-0.60731	0.239579	0	
1.8987	7.91838	1.16367	0	
1.8993	12.1929	1.4717	0	
1.9000	16.4674	0.855638	0	
1.9007	25.6238	3.59368	0	
1.9013	35.3875	5.44186	0	
1.9020	38.751	2.39579	0	
1.9027	34.1728	0.855638	0	
1.9033	22.2602	2.70382	0	
1.9040	12.1929	3.01184	0	
1.9047	12.4966	1.77973	0	
1.9053	14.9492	2.39579	0	
1.9060	9.46001	2.70382	0	
1.9067	4.88183	2.39579	0	
1.9073	8.54905	3.90171	0	
1.9080	7.91838	5.74989	0	
1.9087	-1.54163	3.01184	0	
1.9093	-5.18549	-0.342255	0	
1.9100	0.303655	0.855638	0	
1.9107	1.82193	3.01184	0	
1.9113	-0.60731	1.16367	0	
1.9120	0.910964	-0.958314	0	
1.9127	3.03655	-0.958314	0	
1.9133	3.64386	-0.068451	0	
1.9140	5.7928	-0.650285	0	
1.9147	7.91838	-2.80649	0	
1.9153	6.70376	-4.62044	0	
1.9160	3.3402	-4.62044	0	
1.9167	-0.60731	-2.49846	0	
1.9173	-0.60731	-0.342255	0	
1.9180	2.12558	-1.57437	0	
1.9187	0.910964	-4.62044	0	
1.9193	-5.18549	-4.92847	0	
1.9200	-7.33443	-3.11452	0	
1.9207	-7.94174	-3.11452	0	
1.9213	-11.3053	-4.00438	0	
1.9220	-14.3418	-3.11452	0	
1.9227	-15.5798	-3.42255	0	
1.9233	-16.1871	-4.62044	0	
1.9240	-16.7944	-4.00438	0	
1.9247	-19.2237	-3.42255	0	
1.9253	-23.8019	-5.85256	0	
1.9260	-25.6471	-5.54453	0	
1.9267	-24.4325	-0.958314	0	
1.9273	-22.5872	-0.650285	0	
1.9280	-23.4982	-3.73058	0	
1.9287	-23.4982	-2.49846	0	
1.9293	-18.0091	-0.068451	0	
1.9300	-7.94174	-1.26634	0	
1.9307	1.82193	-2.80649	0	
1.9313	13.1039	-0.342255	0	
1.9320	29.5947	2.08776	0	
1.9327	38.751	1.16367	0	
1.9333	33.2619	-0.068451	0	
1.9340	24.1055	2.08776	0	
1.9347	21.6529	4.51777	0	
1.9353	21.0456	3.59368	0	
1.9360	17.6821	1.77973	0	
1.9367	15.5565	2.39579	0	
1.9373	14.9492	5.13383	0	
1.9380	14.9492	8.48793	0	
1.9387	17.0747	9.41201	0	
1.9393	22.2602	8.79596	0	
1.9400	24.4092	9.72004	0	
1.9407	20.742	9.10399	0	
1.9413	14.6455	6.36594	0	
1.9420	11.2819	5.74989	0	
1.9427	10.371	5.74989	0	
1.9433	7.61473	4.8258	0	
1.9440	3.03655	4.51777	0	
1.9447	-0.303655	3.01184	0	
1.9453	-1.84529	-0.650285	0	
1.9460	-2.4526	-2.49846	0	
1.9467	-1.54163	-1.57437	0	
1.9473	-1.23798	-0.068451	0	
1.9480	-4.27452	1.77973	0	
1.9487	-7.94174	1.4717	0	
1.9493	-9.15636	0.855638	0	
1.9500	-8.8527	1.77973	0	
1.9507	-8.54905	1.77973	0	
1.9513	-8.54905	0.855638	0	
1.9520	-7.94174	-0.342255	0	
1.9527	-6.11981	-1.8824	0	
1.9533	-5.48914	-2.19043	0	
1.9540	-5.18549	-0.958314	0	
1.9547	-2.14894	-0.068451	0	
1.9553	0.303655	-0.068451	0	
1.9560	-0.60731	-1.8824	0	
1.9567	-0.934322	-3.73058	0	
1.9573	0.910964	-2.49846	0	
1.9580	3.97087	1.4717	0	
1.9587	6.09645	1.77973	0	
1.9593	7.00742	-2.19043	0	
1.9600	6.40011	-3.73058	0	
1.9607	3.64386	-1.26634	0	
1.9613	-1.54163	-0.068451	0	
1.9620	-5.81616	-1.8824	0	
1.9627	-7.63809	-2.49846	0	
1.9633	-10.0673	-4.00438	0	
1.9640	-15.2762	-6.46862	0	
1.9647	-21.6763	-4.92847	0	
1.9653	-26.2545	-1.8824	0	
1.9660	-22.8909	-2.80649	0	
1.9667	-16.1871	-2.80649	0	
1.9673	-15.8835	-0.650285	0	
1.9680	-21.3726	-0.342255	0	
1.9687	-23.4982	-1.26634	0	
1.9693	-20.158	-1.57437	0	
1.9700	-13.7345	-0.650285	0	
1.9707	-3.97087	0.855638	0	
1.9713	8.54905	0.547608	0	
1.9720	20.4383	-0.650285	0	
1.9727	26.5348	0.855638	0	
1.9733	27.7727	1.16367	0	
1.9740	28.9874	-0.068451	0	
1.9747	35.0838	1.77973	0	
1.9753	42.4182	3.59368	0	
1.9760	42.7219	2.70382	0	
1.9767	38.751	4.51777	0	
1.9773	35.9948	5.13383	0	
1.9780	30.5056	2.08776	0	
1.9787	23.1946	1.77973	0	
1.9793	20.4383	2.70382	0	
1.9800	18.6164	2.39579	0	
1.9807	10.371	3.59368	0	
1.9813	0.910964	5.44186	0	
1.9820	-3.36356	4.20974	0	
1.9827	-7.94174	1.16367	0	
1.9833	-13.1272	-2.19043	0	
1.9840	-13.4309	-2.80649	0	
1.9847	-8.8527	0.855638	0	
1.9853	-7.03078	1.16367	0	
1.9860	-11.0016	-3.11452	0	
1.9867	-11.609	-4.92847	0	
1.9873	-3.66722	-4.00438	0	
1.9880	6.09645	-3.73058	0	
1.9887	14.0382	-3.42255	0	
1.9893	20.742	-4.00438	0	
1.9900	21.9566	-4.92847	0	
1.9907	15.8601	-2.49846	0	
1.9913	12.1929	-0.650285	0	
1.9920	10.6746	-3.42255	0	
1.9927	4.88183	-4.31241	0	
1.9933	0.303655	-1.8824	0	
1.9940	2.12558	-3.73058	0	
1.9947	3.97087	-6.16059	0	
1.9953	3.03655	-3.11452	0	
1.9960	3.03655	-0.958314	0	
1.9967	2.73289	-5.54453	0	
1.9973	0.303655	-7.39271	0	
1.9980	-0.303655	-3.73058	0	
1.9987	-2.14894	-3.73058	0	
1.9993	-7.63809	-8.28257	0	
2.0000	-12.5199	-6.46862	0	
2.0007	-14.3418	-2.49846	0	
2.0013	-15.5798	-2.80649	0	
2.0020	-14.6455	-1.8824	0	
2.0027	-11.609	0.855638	0	
2.0033	-9.15636	-0.342255	0	
2.0040	-3.36356	-2.80649	0	
2.0047	6.40011	-3.73058	0	
2.0053	11.2819	-4.00438	0	
2.0060	9.76367	-3.11452	0	
2.0067	8.54905	-0.650285	0	
2.0073	5.48914	0.547608	0	
2.0080	0	2.70382	0	
2.0087	-0.60731	4.51777	0	
2.0093	3.03655	2.70382	0	
2.0100	4.88183	1.4717	0	
2.0107	5.7928	2.39579	0	
2.0113	6.70376	3.01184	0	
2.0120	1.21462	4.51777	0	
2.0127	-4.27452	6.67397	0	
2.0133	-3.05991	5.44186	0	
2.0140	-0.303655	4.51777	0	
2.0147	-2.14894	6.05792	0	
2.0153	-3.36356	4.8258	0	
2.0160	-2.14894	1.77973	0	
2.0167	-1.84529	1.77973	0	
2.0173	-1.54163	0.855638	0	
2.0180	1.82193	-0.650285	0	
2.0187	6.40011	1.4717	0	
2.0193	7.61473	3.31987	0	
2.0200	6.40011	0.855638	0	
2.0207	5.7928	-0.068451	0	
2.0213	5.18549	2.08776	0	
2.0220	4.27452	3.01184	0	
2.0227	2.12558	2.39579	0	
2.0233	-0.934322	0.547608	0	
2.0240	-0.303655	-1.57437	0	
2.0247	3.3402	-0.068451	0	
2.0253	3.03655	3.31987	0	
2.0260	0.303655	1.77973	0	
2.0267	0.60731	-2.80649	0	
2.0273	-0.60731	-2.80649	0	
2.0280	-6.11981	-1.57437	0	
2.0287	-13.1272	-4.00438	0	
2.0293	-18.6164	-5.2365	0	
2.0300	-18.92	-1.8824	0	
2.0307	-15.2762	-0.068451	0	
2.0313	-15.5798	-1.26634	0	
2.0320	-18.3127	-0.958314	0	
2.0327	-12.8236	0.239579	0	
2.0333	-2.75625	2.39579	0	
2.0340	4.88183	3.90171	0	
2.0347	16.1638	3.31987	0	
2.0353	23.8019	1.77973	0	
2.0360	14.9492	3.59368	0	
2.0367	5.18549	4.8258	0	
2.0373	6.70376	3.59368	0	
2.0380	4.57818	2.39579	0	
2.0387	-4.57818	2.70382	0	
2.0393	-4.27452	3.31987	0	
2.0400	1.21462	3.31987	0	
2.0407	1.51827	0.239579	0	
2.0413	1.82193	-2.49846	0	
2.0420	2.12558	-0.958314	0	
2.0427	0.60731	-2.49846	0	
2.0433	5.48914	-8.28257	0	
2.0440	14.3418	-7.66651	0	
2.0447	13.1039	-2.80649	0	
2.0453	5.48914	-3.11452	0	
2.0460	0.303655	-2.80649	0	
2.0467	-5.18549	1.16367	0	
2.0473	-8.8527	-0.342255	0	
2.0480	-4.57818	-3.11452	0	
2.0487	-0.60731	0.855638	0	
2.0493	-3.05991	3.01184	0	
2.0500	-7.03078	0.855638	0	
2.0507	-7.94174	0.547608	0	
2.0513	-7.63809	-0.068451	0	
2.0520	-10.698	-0.068451	0	
2.0527	-16.1871	1.77973	0	
2.0533	-14.9725	-1.57437	0	
2.0540	-3.97087	-4.62044	0	
2.0547	9.46001	-0.958314	0	
2.0553	21.6529	0.547608	0	
2.0560	29.8983	-0.958314	0	
2.0567	29.291	-0.068451	0	
2.0573	24.4092	-1.8824	0	
2.0580	23.8019	-2.80649	0	
2.0587	24.1055	0.547608	0	
2.0593	22.8909	0.855638	0	
2.0600	25.9274	-0.650285	0	
2.0607	30.5056	1.16367	0	
2.0613	28.0764	0.855638	0	
2.0620	19.2237	-0.650285	0	
2.0627	11.2819	0.855638	0	
2.0633	6.70376	0.855638	0	
2.0640	4.57818	-1.26634	0	
2.0647	3.97087	-3.73058	0	
2.0653	3.64386	-3.73058	0	
2.0660	0.303655	-0.958314	0	
2.0667	-6.11981	1.16367	0	
2.0673	-13.1272	-0.958314	0	
2.0680	-18.3127	-0.958314	0	
2.0687	-22.2836	0.855638	0	
2.0693	-21.3726	-3.11452	0	
2.0700	-16.1871	-7.39271	0	
2.0707	-14.3418	-5.54453	0	
2.0713	-16.1871	-4.62044	0	
2.0720	-13.4309	-4.62044	0	
2.0727	-7.94174	-1.26634	0	
2.0733	-5.18549	0.239579	0	
2.0740	-1.84529	0.855638	0	
2.0747	5.48914	3.31987	0	
2.0753	8.8527	3.59368	0	
2.0760	8.8527	3.31987	0	
2.0767	15.8601	3.59368	0	
2.0773	26.5348	2.70382	0	
2.0780	26.8384	2.70382	0	
2.0787	21.0456	4.51777	0	
2.0793	18.6164	4.8258	0	
2.0800	15.2528	4.51777	0	
2.0807	5.7928	4.51777	0	
2.0813	-4.27452	3.01184	0	
2.0820	-4.57818	2.70382	0	
2.0827	-0.60731	4.20974	0	
2.0833	-4.27452	1.77973	0	
2.0840	-13.1272	-2.80649	0	
2.0847	-16.1871	-3.11452	0	
2.0853	-15.2762	-5.2365	0	
2.0860	-13.7345	-9.20666	0	
2.0867	-10.0673	-7.66651	0	
2.0873	-9.46001	-5.2365	0	
2.0880	-14.0382	-5.54453	0	
2.0887	-17.4018	-3.73058	0	
2.0893	-17.7054	-0.958314	0	
2.0900	-16.4908	-2.19043	0	
2.0907	-11.0016	-3.42255	0	
2.0913	-3.36356	-1.57437	0	
2.0920	2.12558	-0.650285	0	
2.0927	7.61473	0.239579	0	
2.0933	15.5565	1.77973	0	
2.0940	24.4092	3.31987	0	
2.0947	31.4166	4.8258	0	
2.0953	29.291	4.8258	0	
2.0960	19.5273	3.01184	0	
2.0967	13.1039	3.31987	0	
2.0973	9.46001	4.8258	0	
2.0980	2.12558	4.51777	0	
2.0987	-2.75625	4.51777	0	
2.0993	0.60731	5.74989	0	
2.1000	4.27452	4.51777	0	
2.1007	6.09645	1.77973	0	
2.1013	12.1929	3.01184	0	
2.1020	18.0091	5.74989	0	
2.1027	14.6455	3.31987	0	
2.1033	7.00742	-0.068451	0	
2.1040	3.64386	0.547608	0	
2.1047	4.57818	0.855638	0	
2.1053	5.7928	-0.068451	0	
2.1060	3.03655	-0.958314	0	
2.1067	-1.23798	-1.8824	0	
2.1073	-3.36356	-1.57437	0	
2.1080	-1.54163	1.16367	0	
2.1087	7.61473	2.39579	0	
2.1093	16.4674	2.08776	0	
2.1100	14.9492	3.01184	0	
2.1107	7.61473	3.31987	0	
2.1113	3.97087	2.70382	0	
2.1120	1.82193	0.855638	0	
2.1127	-1.84529	-3.42255	0	
2.1133	-4.27452	-5.2365	0	
2.1140	-3.36356	-4.00438	0	
2.1147	-2.4526	-4.92847	0	
2.1153	-3.66722	-6.46862	0	
2.1160	-5.18549	-4.62044	0	
2.1167	-3.36356	-4.92847	0	
2.1173	-0.934322	-5.54453	0	
2.1180	-1.84529	-3.11452	0	
2.1187	-3.66722	-1.8824	0	
2.1193	-5.18549	-2.80649	0	
2.1200	-7.94174	-1.26634	0	
2.1207	-8.8527	-0.068451	0	
2.1213	-5.48914	-0.342255	0	
2.1220	0.910964	0.855638	0	
2.1227	4.88183	-0.068451	0	
2.1233	3.03655	-2.80649	0	
2.1240	0	-2.19043	0	
2.1247	-0.60731	-2.49846	0	
2.1253	-1.84529	-3.42255	0	
2.1260	-4.27452	0.547608	0	
2.1267	-7.03078	3.01184	0	
2.1273	-10.698	-0.650285	0	
2.1280	-10.3943	-3.11452	0	
2.1287	-5.18549	-3.11452	0	
2.1293	-4.88183	-3.42255	0	
2.1300	-8.2454	-1.8824	0	
2.1307	-5.18549	-1.26634	0	
2.1313	1.21462	-2.80649	0	
2.1320	3.03655	-2.19043	0	
2.1327	2.73289	-0.650285	0	
2.1333	3.03655	-1.26634	0	
2.1340	5.18549	-1.8824	0	
2.1347	6.70376	-2.80649	0	
2.1353	6.09645	-4.31241	0	
2.1360	7.61473	-2.19043	0	
2.1367	14.0382	0.855638	0	
2.1373	17.0747	1.16367	0	
2.1380	17.6821	2.08776	0	
2.1387	20.742	2.70382	0	
2.1393	17.6821	-0.068451	0	
2.1400	10.371	-1.8824	0	
2.1407	11.2819	-0.342255	0	
2.1413	15.5565	1.77973	0	
2.1420	8.8527	2.08776	0	
2.1427	0	0.855638	0	
2.1433	-2.4526	-1.26634	0	
2.1440	-4.27452	-0.958314	0	
2.1447	-8.2454	0.855638	0	
2.1453	-9.46001	0.239579	0	
2.1460	-7.94174	-2.80649	0	
2.1467	-7.63809	-4.00438	0	
2.1473	-9.76367	-2.80649	0	
2.1480	-13.1272	-2.19043	0	
2.1487	-15.2762	-3.73058	0	
2.1493	-18.92	-3.73058	0	
2.1500	-22.5872	-2.19043	0	
2.1507	-21.9799	-2.19043	0	
2.1513	-18.0091	-2.80649	0	
2.1520	-13.1272	-2.49846	0	
2.1527	-5.81616	-0.958314	0	
2.1533	6.70376	1.77973	0	
2.1540	20.4383	3.01184	0	
2.1547	28.9874	2.39579	0	
2.1553	29.291	1.77973	0	
2.1560	24.7128	0.855638	0	
2.1567	20.4383	-0.068451	0	
2.1573	20.1346	1.16367	0	
2.1580	20.1346	3.01184	0	
2.1587	12.4966	1.4717	0	
2.1593	3.64386	-1.8824	0	
2.1600	5.7928	-1.8824	0	
2.1607	10.9783	-0.068451	0	
2.1613	4.27452	-0.958314	0	
2.1620	-1.54163	-2.80649	0	
2.1627	5.18549	-0.958314	0	
2.1633	14.3418	1.77973	0	
2.1640	19.5273	1.16367	0	
2.1647	20.1346	0.547608	0	
2.1653	12.4966	1.4717	0	
2.1660	4.57818	0.239579	0	
2.1667	3.03655	-1.8824	0	
2.1673	-0.60731	-1.8824	0	
2.1680	-7.63809	0.239579	0	
2.1687	-10.698	0.547608	0	
2.1693	-13.4309	-1.8824	0	
2.1700	-18.92	-2.80649	0	
2.1707	-19.8544	-0.958314	0	
2.1713	-15.2762	0.547608	0	
2.1720	-11.609	0.855638	0	
2.1727	-3.36356	1.77973	0	
2.1733	10.0673	1.77973	0	
2.1740	18.3127	1.77973	0	
2.1747	20.4383	2.08776	0	
2.1753	18.92	2.39579	0	
2.1760	13.1039	0.239579	0	
2.1767	3.97087	-3.42255	0	
2.1773	-3.05991	-4.31241	0	
2.1780	-7.03078	-3.11452	0	
2.1787	-9.76367	-4.62044	0	
2.1793	-10.0673	-5.85256	0	
2.1800	-8.8527	-4.00438	0	
2.1807	-4.88183	-2.49846	0	
2.1813	0.60731	-2.49846	0	
2.1820	3.97087	-1.57437	0	
2.1827	3.03655	-0.068451	0	
2.1833	2.12558	-0.342255	0	
2.1840	4.57818	-0.958314	0	
2.1847	7.61473	-0.342255	0	
2.1853	6.70376	-0.342255	0	
2.1860	4.88183	-0.068451	0	
2.1867	3.97087	1.16367	0	
2.1873	2.12558	0.855638	0	
2.1880	-0.303655	-1.26634	0	
2.1887	0.303655	-2.19043	0	
2.1893	-3.97087	-1.8824	0	
2.1900	-16.1871	-0.958314	0	
2.1907	-23.8019	-0.650285	0	
2.1913	-20.158	-2.19043	0	
2.1920	-13.7345	-4.62044	0	
2.1927	-9.46001	-4.31241	0	
2.1933	-5.81616	-3.73058	0	
2.1940	-2.14894	-4.31241	0	
2.1947	0.910964	-3.11452	0	
2.1953	2.12558	-0.068451	0	
2.1960	2.12558	0.547608	0	
2.1967	3.64386	-0.650285	0	
2.1973	5.18549	-0.958314	0	
2.1980	8.8527	-1.57437	0	
2.1987	15.5565	-1.8824	0	
2.1993	18.6164	0.239579	0	
2.2000	17.3784	1.77973	0	
2.2007	17.0747	0.855638	0	
2.2013	13.1039	1.77973	0	
2.2020	4.57818	3.01184	0	
2.2027	2.12558	1.4717	0	
2.2033	4.57818	0.855638	0	
2.2040	3.03655	3.90171	0	
2.2047	-0.934322	4.51777	0	
2.2053	-2.14894	2.70382	0	
2.2060	0.303655	2.70382	0	
2.2067	3.3402	3.59368	0	
2.2073	0.910964	0.855638	0	
2.2080	-2.4526	-1.57437	0	
2.2087	0.303655	-0.958314	0	
2.2093	2.12558	-0.342255	0	
2.2100	-2.14894	0.547608	0	
2.2107	-4.57818	2.39579	0	
2.2113	-2.4526	2.70382	0	
2.2120	-1.23798	1.4717	0	
2.2127	1.82193	1.16367	0	
2.2133	9.46001	2.08776	0	
2.2140	16.1638	3.01184	0	
2.2147	15.8601	3.01184	0	
2.2153	13.1039	3.01184	0	
2.2160	13.1039	3.01184	0	
2.2167	12.1929	3.31987	0	
2.2173	7.61473	2.39579	0	
2.2180	3.97087	-0.650285	0	
2.2187	3.03655	-2.19043	0	
2.2193	3.97087	0.855638	0	
2.2200	7.31107	3.01184	0	
2.2207	7.31107	2.08776	0	
2.2213	-1.54163	2.70382	0	
2.2220	-12.2163	3.59368	0	
2.2227	-18.0091	0.239579	0	
2.2233	-18.0091	-0.958314	0	
2.2240	-11.0016	1.77973	0	
2.2247	-2.75625	1.77973	0	
2.2253	-2.4526	-0.068451	0	
2.2260	-7.94174	-0.958314	0	
2.2267	-12.8236	-4.00438	0	
2.2273	-20.7653	-7.66651	0	
2.2280	-26.2545	-7.08468	0	
2.2287	-19.5273	-3.73058	0	
2.2293	-8.54905	-1.8824	0	
2.2300	1.21462	-1.26634	0	
2.2307	14.6455	-0.958314	0	
2.2313	23.8019	-0.958314	0	
2.2320	21.6529	-2.49846	0	
2.2327	22.8909	-2.80649	0	
2.2333	31.7202	0.855638	0	
2.2340	32.3509	3.90171	0	
2.2347	24.7128	4.51777	0	
2.2353	21.9566	5.44186	0	
2.2360	22.8909	4.8258	0	
2.2367	19.5273	3.31987	0	
2.2373	15.8601	3.90171	0	
2.2380	14.9492	4.20974	0	
2.2387	13.4309	2.70382	0	
2.2393	10.9783	3.31987	0	
2.2400	9.15636	3.90171	0	
2.2407	5.48914	1.16367	0	
2.2413	-0.934322	-0.650285	0	
2.2420	-3.66722	-0.068451	0	
2.2427	-3.36356	0.855638	0	
2.2433	-7.63809	1.77973	0	
2.2440	-12.8236	1.16367	0	
2.2447	-14.3418	-0.342255	0	
2.2453	-17.0981	-1.26634	0	
2.2460	-20.158	-1.8824	0	
2.2467	-18.92	-2.19043	0	
2.2473	-16.1871	-0.342255	0	
2.2480	-12.5199	0.855638	0	
2.2487	-10.3943	-0.958314	0	
2.2493	-11.609	-1.57437	0	
2.2500	-7.63809	-0.342255	0	
2.2507	3.97087	0.855638	0	
2.2513	13.1039	2.08776	0	
2.2520	18.0091	3.59368	0	
2.2527	21.3493	1.77973	0	
2.2533	20.4383	-1.8824	0	
2.2540	15.8601	-2.80649	0	
2.2547	12.8002	-0.958314	0	
2.2553	12.8002	-0.342255	0	
2.2560	12.1929	-0.958314	0	
2.2567	9.46001	-0.068451	0	
2.2573	10.371	0.547608	0	
2.2580	16.4674	-0.958314	0	
2.2587	14.9492	-2.19043	0	
2.2593	3.97087	-1.8824	0	
2.2600	0.60731	-1.26634	0	
2.2607	4.88183	-1.57437	0	
2.2613	4.88183	-2.80649	0	
2.2620	3.64386	-3.73058	0	
2.2627	4.88183	-3.73058	0	
2.2633	0	-5.54453	0	
2.2640	-10.3943	-7.66651	0	
2.2647	-12.8236	-7.66651	0	
2.2653	-7.63809	-6.16059	0	
2.2660	-3.66722	-3.73058	0	
2.2667	-5.48914	-2.49846	0	
2.2673	-12.8236	-2.80649	0	
2.2680	-21.6763	-4.92847	0	
2.2687	-20.7653	-7.08468	0	
2.2693	-9.76367	-7.39271	0	
2.2700	-1.54163	-4.92847	0	
2.2707	0.303655	-1.8824	0	
2.2713	1.51827	-0.650285	0	
2.2720	4.27452	0.239579	0	
2.2727	6.09645	0.239579	0	
2.2733	4.88183	-1.8824	0	
2.2740	2.12558	-1.8824	0	
2.2747	4.27452	0.855638	0	
2.2753	8.8527	1.77973	0	
2.2760	7.31107	0.855638	0	
2.2767	4.88183	2.39579	0	
2.2773	8.54905	4.8258	0	
2.2780	9.76367	5.44186	0	
2.2787	2.12558	1.77973	0	
2.2793	-6.72712	-0.068451	0	
2.2800	-11.609	3.59368	0	
2.2807	-15.5798	2.70382	0	
2.2813	-17.4018	-3.73058	0	
2.2820	-15.8835	-3.73058	0	
2.2827	-14.6455	1.16367	0	
2.2833	-15.2762	2.39579	0	
2.2840	-13.1272	2.08776	0	
2.2847	-7.03078	1.16367	0	
2.2853	0	-2.80649	0	
2.2860	6.70376	-3.42255	0	
2.2867	14.0382	-0.650285	0	
2.2873	18.6164	-1.26634	0	
2.2880	18.3127	-1.57437	0	
2.2887	15.8601	1.77973	0	
2.2893	14.9492	0.855638	0	
2.2900	14.9492	-1.8824	0	
2.2907	13.4309	1.77973	0	
2.2913	12.1929	6.982	0	
2.2920	13.7345	4.51777	0	
2.2927	14.6455	0.239579	0	
2.2933	14.9492	2.70382	0	
2.2940	19.831	8.1799	0	
2.2947	24.1055	8.48793	0	
2.2953	16.1638	4.8258	0	
2.2960	4.27452	3.01184	0	
2.2967	1.21462	4.51777	0	
2.2973	0.60731	4.20974	0	
2.2980	-1.54163	0.855638	0	
2.2987	0.303655	-1.57437	0	
2.2993	3.03655	0.239579	0	
2.3000	1.21462	2.39579	0	
2.3007	-0.303655	1.77973	0	
2.3013	0.60731	0.547608	0	
2.3020	2.12558	0.547608	0	
2.3027	4.57818	0.855638	0	
2.3033	5.7928	-0.068451	0	
2.3040	5.48914	-0.650285	0	
2.3047	7.61473	-0.958314	0	
2.3053	5.18549	-2.80649	0	
2.3060	-3.36356	-3.42255	0	
2.3067	-7.33443	-2.49846	0	
2.3073	-6.11981	-3.73058	0	
2.3080	-8.2454	-4.62044	0	
2.3087	-8.8527	-2.80649	0	
2.3093	-4.88183	-2.19043	0	
2.3100	-3.36356	-4.31241	0	
2.3107	-2.14894	-2.80649	0	
2.3113	3.03655	0.855638	0	
2.3120	7.61473	-0.342255	0	
2.3127	8.54905	-4.62044	0	
2.3133	7.61473	-5.54453	0	
2.3140	4.27452	-1.8824	0	
2.3147	-1.54163	-0.958314	0	
2.3153	-4.88183	-4.62044	0	
2.3160	-7.03078	-5.2365	0	
2.3167	-8.8527	-3.11452	0	
2.3173	-6.42347	-3.11452	0	
2.3180	0	-1.8824	0	
2.3187	4.27452	0.239579	0	
2.3193	6.70376	-2.19043	0	
2.3200	12.4966	-4.00438	0	
2.3207	16.7711	-1.57437	0	
2.3213	13.1039	-1.57437	0	
2.3220	8.22204	-2.80649	0	
2.3227	7.31107	-1.8824	0	
2.3233	4.88183	-1.8824	0	
2.3240	-1.23798	-1.8824	0	
2.3247	-5.81616	-0.650285	0	
2.3253	-5.81616	-0.342255	0	
2.3260	-2.75625	-0.068451	0	
2.3267	0.910964	1.16367	0	
2.3273	1.51827	-1.26634	0	
2.3280	0	-3.42255	0	
2.3287	-4.27452	-2.19043	0	
2.3293	-10.3943	-2.19043	0	
2.3300	-11.9126	-1.8824	0	
2.3307	-7.63809	0.239579	0	
2.3313	-9.15636	-0.068451	0	
2.3320	-17.0981	-0.342255	0	
2.3327	-20.4617	1.16367	0	
2.3333	-17.7054	0.239579	0	
2.3340	-9.76367	-1.26634	0	
2.3347	3.97087	0.855638	0	
2.3353	13.1039	3.59368	0	
2.3360	15.2528	3.31987	0	
2.3367	18.3127	2.39579	0	
2.3373	20.4383	0.855638	0	
2.3380	16.1638	-0.068451	0	
2.3387	14.6455	0.239579	0	
2.3393	16.7711	-0.958314	0	
2.3400	16.1638	-2.80649	0	
2.3407	14.9492	-2.19043	0	
2.3413	12.8002	-0.958314	0	
2.3420	7.61473	-0.342255	0	
2.3427	2.12558	0.239579	0	
2.3433	-3.05991	-2.19043	0	
2.3440	-8.54905	-5.85256	0	
2.3447	-11.0016	-6.77665	0	
2.3453	-12.8236	-6.46862	0	
2.3460	-14.9725	-6.16059	0	
2.3467	-11.609	-4.31241	0	
2.3473	-6.72712	-3.73058	0	
2.3480	-3.66722	-4.31241	0	
2.3487	3.97087	-0.958314	0	
2.3493	14.9492	2.08776	0	
2.3500	19.5273	1.77973	0	
2.3507	17.6821	1.77973	0	
2.3513	13.1039	4.20974	0	
2.3520	7.31107	3.01184	0	
2.3527	4.57818	0.855638	0	
2.3533	5.7928	2.39579	0	
2.3540	6.70376	4.20974	0	
2.3547	4.88183	3.59368	0	
2.3553	1.21462	3.59368	0	
2.3560	-1.84529	3.59368	0	
2.3567	-3.36356	0.855638	0	
2.3573	-4.27452	-0.650285	0	
2.3580	-3.05991	1.77973	0	
2.3587	0.60731	3.31987	0	
2.3593	-0.303655	1.77973	0	
2.3600	-6.11981	1.16367	0	
2.3607	-8.2454	2.70382	0	
2.3613	-4.27452	4.51777	0	
2.3620	-3.97087	6.36594	0	
2.3627	-11.0016	4.8258	0	
2.3633	-16.4908	0.855638	0	
2.3640	-15.5798	-0.342255	0	
2.3647	-14.6455	0.547608	0	
2.3653	-15.2762	1.16367	0	
2.3660	-11.3053	1.77973	0	
2.3667	-7.63809	0.239579	0	
2.3673	-7.03078	-1.26634	0	
2.3680	-7.03078	-0.068451	0	
2.3687	-6.11981	2.08776	0	
2.3693	3.03655	0.855638	0	
2.3700	25.0165	1.16367	0	
2.3707	39.0547	6.36594	0	
2.3713	32.3509	10.3361	0	
2.3720	25.3201	8.1799	0	
2.3727	24.7128	3.59368	0	
2.3733	20.4383	3.01184	0	
2.3740	19.5273	4.51777	0	
2.3747	20.1346	2.70382	0	
2.3753	10.6746	0.855638	0	
2.3760	3.97087	2.70382	0	
2.3767	11.2819	3.90171	0	
2.3773	18.92	2.39579	0	
2.3780	21.3493	2.08776	0	
2.3787	24.1055	3.90171	0	
2.3793	19.5273	3.01184	0	
2.3800	9.15636	0.855638	0	
2.3807	5.7928	0.239579	0	
2.3813	4.88183	-0.650285	0	
2.3820	-2.4526	-2.80649	0	
2.3827	-7.03078	-2.49846	0	
2.3833	-5.48914	-0.068451	0	
2.3840	-5.48914	-0.958314	0	
2.3847	-7.03078	-3.42255	0	
2.3853	-6.11981	-0.650285	0	
2.3860	-4.27452	2.70382	0	
2.3867	-2.4526	1.4717	0	
2.3873	-4.27452	-0.068451	0	
2.3880	-14.3418	0.547608	0	
2.3887	-24.4325	-0.958314	0	
2.3893	-23.8019	-1.8824	0	
2.3900	-19.8544	-1.26634	0	
2.3907	-17.7054	-2.49846	0	
2.3913	-10.698	-2.19043	0	
2.3920	-3.66722	-0.068451	0	
2.3927	-7.03078	-1.57437	0	
2.3933	-11.9126	-3.73058	0	
2.3940	-8.8527	-1.8824	0	
2.3947	-5.18549	-1.8824	0	
2.3953	-6.42347	-4.31241	0	
2.3960	-7.33443	-3.73058	0	
2.3967	-5.48914	-3.11452	0	
2.3973	-0.303655	-4.92847	0	
2.3980	7.31107	-5.2365	0	
2.3987	11.8893	-3.73058	0	
2.3993	14.6455	-2.80649	0	
2.4000	19.5273	-0.650285	0	
2.4007	20.1346	0.855638	0	
2.4013	14.0382	-1.57437	0	
2.4020	12.4966	-4.00438	0	
2.4027	17.3784	-2.49846	0	
2.4033	21.3493	0.855638	0	
2.4040	21.0456	2.70382	0	
2.4047	16.1638	3.01184	0	
2.4053	9.15636	3.01184	0	
2.4060	4.57818	3.31987	0	
2.4067	2.12558	3.59368	0	
2.4073	0.303655	3.90171	0	
2.4080	3.03655	4.51777	0	
2.4087	7.00742	5.74989	0	
2.4093	6.70376	6.36594	0	
2.4100	5.7928	5.44186	0	
2.4107	7.00742	4.51777	0	
2.4113	6.09645	3.90171	0	
2.4120	6.70376	2.70382	0	
2.4127	10.371	-0.068451	0	
2.4133	8.54905	-3.42255	0	
2.4140	1.21462	-4.62044	0	
2.4147	-1.54163	-5.54453	0	
2.4153	-2.14894	-7.39271	0	
2.4160	-6.72712	-7.39271	0	
2.4167	-11.3053	-7.39271	0	
2.4173	-14.3418	-9.20666	0	
2.4180	-18.3127	-9.51469	0	
2.4187	-18.3127	-7.39271	0	
2.4193	-13.4309	-7.08468	0	
2.4200	-13.4309	-6.46862	0	
2.4207	-17.0981	-4.92847	0	
2.4213	-17.0981	-6.16059	0	
2.4220	-14.0382	-5.54453	0	
2.4227	-11.3053	-0.958314	0	
2.4233	-8.2454	-0.068451	0	
2.4240	-5.48914	-0.958314	0	
2.4247	-3.66722	0.855638	0	
2.4253	-1.84529	0.547608	0	
2.4260	-0.60731	-0.958314	0	
2.4267	3.03655	1.77973	0	
2.4273	8.8527	3.01184	0	
2.4280	10.371	1.16367	0	
2.4287	5.7928	3.01184	0	
2.4293	4.88183	4.20974	0	
2.4300	9.46001	2.08776	0	
2.4307	7.61473	1.77973	0	
2.4313	1.21462	1.77973	0	
2.4320	0.60731	0.239579	0	
2.4327	5.18549	1.77973	0	
2.4333	8.8527	2.70382	0	
2.4340	10.371	0.239579	0	
2.4347	7.61473	-0.068451	0	
2.4353	1.51827	0.855638	0	
2.4360	-0.303655	-0.958314	0	
2.4367	3.3402	-1.8824	0	
2.4373	7.00742	1.77973	0	
2.4380	10.371	5.44186	0	
2.4387	13.7345	5.13383	0	
2.4393	13.4309	1.4717	0	
2.4400	13.4309	0.855638	0	
2.4407	17.6821	4.51777	0	
2.4413	19.831	6.982	0	
2.4420	16.7711	4.51777	0	
2.4427	13.1039	2.39579	0	
2.4433	10.9783	1.77973	0	
2.4440	6.09645	1.16367	0	
2.4447	0.910964	3.59368	0	
2.4453	-2.75625	5.74989	0	
2.4460	-6.11981	3.59368	0	
2.4467	-7.03078	3.01184	0	
2.4473	-4.88183	6.36594	0	
2.4480	-5.18549	5.44186	0	
2.4487	-4.57818	0.239579	0	
2.4493	1.82193	-2.80649	0	
2.4500	10.0673	-3.42255	0	
2.4507	12.4966	-2.80649	0	
2.4513	8.54905	-3.73058	0	
2.4520	0.60731	-6.77665	0	
2.4527	-2.14894	-6.46862	0	
2.4533	2.42924	-4.00438	0	
2.4540	5.7928	-3.11452	0	
2.4547	3.97087	-3.11452	0	
2.4553	-0.934322	-3.42255	0	
2.4560	-5.48914	-4.92847	0	
2.4567	-6.11981	-4.92847	0	
2.4573	-3.36356	-2.49846	0	
2.4580	-2.4526	-1.26634	0	
2.4587	-0.60731	-1.8824	0	
2.4593	3.97087	-2.80649	0	
2.4600	3.3402	-3.42255	0	
2.4607	-1.84529	-2.19043	0	
2.4613	-7.63809	-1.8824	0	
2.4620	-13.7345	-4.31241	0	
2.4627	-17.4018	-6.46862	0	
2.4633	-17.4018	-6.46862	0	
2.4640	-15.2762	-4.00438	0	
2.4647	-10.3943	-1.57437	0	
2.4653	-5.18549	-2.19043	0	
2.4660	-5.48914	-3.11452	0	
2.4667	-4.27452	-0.342255	0	
2.4673	2.73289	2.39579	0	
2.4680	9.46001	3.31987	0	
2.4687	18.3127	5.13383	0	
2.4693	30.5056	5.13383	0	
2.4700	31.1129	2.70382	0	
2.4707	16.7711	2.70382	0	
2.4713	5.7928	3.90171	0	
2.4720	5.18549	3.90171	0	
2.4727	3.97087	4.51777	0	
2.4733	-1.54163	3.90171	0	
2.4740	-3.66722	3.01184	0	
2.4747	-5.18549	3.59368	0	
2.4753	-11.3053	1.4717	0	
2.4760	-11.609	-3.73058	0	
2.4767	-3.05991	-4.31241	0	
2.4773	2.42924	-2.19043	0	
2.4780	4.27452	-2.80649	0	
2.4787	9.76367	-2.80649	0	
2.4793	10.371	-0.342255	0	
2.4800	1.51827	-0.650285	0	
2.4807	-5.48914	-0.958314	0	
2.4813	-9.15636	-0.068451	0	
2.4820	-13.7345	-0.958314	0	
2.4827	-12.2163	-2.19043	0	
2.4833	-3.05991	-2.80649	0	
2.4840	2.73289	-4.00438	0	
2.4847	4.27452	-5.2365	0	
2.4853	11.2819	-4.00438	0	
2.4860	22.2602	-2.80649	0	
2.4867	25.9274	-1.8824	0	
2.4873	17.6821	-1.57437	0	
2.4880	9.76367	-2.49846	0	
2.4887	14.9492	-3.11452	0	
2.4893	26.5348	-3.73058	0	
2.4900	28.0764	-4.62044	0	
2.4907	20.742	-5.2365	0	
2.4913	12.1929	-4.62044	0	
2.4920	6.09645	-4.62044	0	
2.4927	8.8527	-4.00438	0	
2.4933	15.2528	-1.57437	0	
2.4940	12.8002	0.239579	0	
2.4947	8.54905	0.855638	0	
2.4953	10.0673	2.70382	0	
2.4960	9.46001	3.31987	0	
2.4967	5.7928	1.77973	0	
2.4973	3.97087	1.77973	0	
2.4980	-0.303655	3.59368	0	
2.4987	-6.42347	4.51777	0	
2.4993	-7.94174	3.31987	0	
2.5000	-9.15636	1.77973	0	
2.5007	-14.6455	1.77973	0	
2.5013	-20.158	2.70382	0	
2.5020	-22.2836	3.01184	0	
2.5027	-21.069	3.31987	0	
2.5033	-18.0091	1.16367	0	
2.5040	-12.5199	-3.11452	0	
2.5047	0.910964	-5.54453	0	
2.5053	20.4383	-5.2365	0	
2.5060	31.1129	-4.62044	0	
2.5067	26.8384	-1.8824	0	
2.5073	17.6821	1.4717	0	
2.5080	8.54905	0.547608	0	
2.5087	-1.54163	-0.958314	0	
2.5093	-7.33443	-0.068451	0	
2.5100	-7.03078	-0.958314	0	
2.5107	-6.11981	-0.958314	0	
2.5113	-5.81616	1.4717	0	
2.5120	-4.57818	0.547608	0	
2.5127	-5.81616	-2.19043	0	
2.5133	-7.33443	-2.49846	0	
2.5140	-7.94174	-0.342255	0	
2.5147	-8.8527	0.547608	0	
2.5153	-6.11981	-0.650285	0	
2.5160	2.73289	-1.57437	0	
2.5167	10.371	0.855638	0	
2.5173	9.46001	3.59368	0	
2.5180	4.88183	3.31987	0	
2.5187	4.27452	3.90171	0	
2.5193	5.7928	5.13383	0	
2.5200	5.7928	3.59368	0	
2.5207	6.70376	3.01184	0	
2.5213	7.61473	4.51777	0	
2.5220	4.88183	6.67397	0	
2.5227	2.12558	8.79596	0	
2.5233	1.21462	7.25581	0	
2.5240	-3.36356	2.08776	0	
2.5247	-6.11981	1.77973	0	
2.5253	-3.66722	5.74989	0	
2.5260	-8.2454	3.01184	0	
2.5267	-19.8544	-4.31241	0	
2.5273	-23.1946	-6.46862	0	
2.5280	-21.3726	-3.73058	0	
2.5287	-23.4982	-0.958314	0	
2.5293	-22.5872	0.547608	0	
2.5300	-20.158	0.547608	0	
2.5307	-23.4982	-1.57437	0	
2.5313	-21.6763	-2.19043	0	
2.5320	-9.76367	-1.57437	0	
2.5327	-2.4526	-4.00438	0	
2.5333	-0.303655	-6.46862	0	
2.5340	10.371	-5.2365	0	
2.5347	20.1346	-4.31241	0	
2.5353	16.7711	-6.46862	0	
2.5360	12.1929	-5.54453	0	
2.5367	15.8601	-1.8824	0	
2.5373	17.0747	-1.8824	0	
2.5380	13.7345	-2.49846	0	
2.5387	14.0382	-1.8824	0	
2.5393	13.1039	-3.42255	0	
2.5400	7.61473	-4.62044	0	
2.5407	3.64386	-2.49846	0	
2.5413	2.12558	-2.80649	0	
2.5420	-0.934322	-4.00438	0	
2.5427	-0.934322	-0.958314	0	
2.5433	0.303655	1.16367	0	
2.5440	-1.84529	-0.068451	0	
2.5447	-0.60731	-0.068451	0	
2.5453	2.12558	-0.068451	0	
2.5460	-1.54163	-2.80649	0	
2.5467	-4.27452	-2.19043	0	
2.5473	-1.54163	-0.068451	0	
2.5480	-4.57818	0.855638	0	
2.5487	-8.8527	2.39579	0	
2.5493	-6.42347	4.20974	0	
2.5500	-7.63809	3.59368	0	
2.5507	-11.0016	3.59368	0	
2.5513	-2.4526	4.20974	0	
2.5520	7.00742	4.20974	0	
2.5527	3.64386	5.13383	0	
2.5533	0.303655	5.44186	0	
2.5540	0.910964	3.59368	0	
2.5547	-0.60731	2.70382	0	
2.5553	3.03655	3.59368	0	
2.5560	13.7345	2.70382	0	
2.5567	19.5273	1.16367	0	
2.5573	24.1055	-1.26634	0	
2.5580	30.5056	-4.62044	0	
2.5587	25.9274	-3.73058	0	
2.5593	13.1039	-0.958314	0	
2.5600	9.46001	-2.80649	0	
2.5607	9.46001	-3.11452	0	
2.5613	4.27452	-0.068451	0	
2.5620	1.82193	-0.958314	0	
2.5627	4.88183	-3.11452	0	
2.5633	5.18549	-0.650285	0	
2.5640	3.03655	0.855638	0	
2.5647	3.97087	-1.26634	0	
2.5653	3.97087	-2.19043	0	
2.5660	2.73289	-1.8824	0	
2.5667	1.51827	-2.19043	0	
2.5673	1.21462	-0.958314	0	
2.5680	2.12558	-0.068451	0	
2.5687	3.64386	-1.8824	0	
2.5693	0.910964	-1.8824	0	
2.5700	-3.36356	-0.650285	0	
2.5707	-2.4526	-0.650285	0	
2.5713	0	-0.958314	0	
2.5720	-0.60731	-0.068451	0	
2.5727	1.21462	0.855638	0	
2.5733	5.7928	2.39579	0	
2.5740	6.09645	2.70382	0	
2.5747	3.03655	1.16367	0	
2.5753	4.27452	0.855638	0	
2.5760	6.09645	-0.068451	0	
2.5767	3.3402	-2.49846	0	
2.5773	1.82193	-1.8824	0	
2.5780	4.88183	1.16367	0	
2.5787	7.31107	0.547608	0	
2.5793	7.31107	-0.342255	0	
2.5800	7.61473	1.77973	0	
2.5807	7.91838	2.70382	0	
2.5813	7.00742	0.855638	0	
2.5820	4.57818	-0.958314	0	
2.5827	1.51827	-2.80649	0	
2.5833	2.12558	-2.80649	0	
2.5840	5.48914	-2.19043	0	
2.5847	3.97087	-1.8824	0	
2.5853	-3.36356	-0.650285	0	
2.5860	-6.11981	0.855638	0	
2.5867	-3.05991	-1.26634	0	
2.5873	-2.14894	-1.8824	0	
2.5880	-3.97087	1.4717	0	
2.5887	-4.27452	1.77973	0	
2.5893	-3.97087	-0.958314	0	
2.5900	-3.36356	0.239579	0	
2.5907	-0.934322	2.70382	0	
2.5913	-2.75625	2.08776	0	
2.5920	-9.46001	1.77973	0	
2.5927	-11.609	2.08776	0	
2.5933	-11.0016	-0.342255	0	
2.5940	-11.609	-2.19043	0	
2.5947	-6.72712	-1.8824	0	
2.5953	0.303655	-0.068451	0	
2.5960	-0.60731	2.08776	0	
2.5967	-1.84529	0.855638	0	
2.5973	3.97087	-1.8824	0	
2.5980	9.46001	0.239579	0	
2.5987	11.2819	2.39579	0	
2.5993	12.1929	-0.650285	0	
2.6000	14.0382	-0.650285	0	
2.6007	14.0382	3.31987	0	
2.6013	11.2819	0.855638	0	
2.6020	9.15636	-3.73058	0	
2.6027	8.54905	-2.80649	0	
2.6033	6.09645	-1.8824	0	
2.6040	3.03655	-0.958314	0	
2.6047	5.7928	1.77973	0	
2.6053	7.91838	2.39579	0	
2.6060	3.97087	0.239579	0	
2.6067	0.303655	0.855638	0	
2.6073	0.303655	0.855638	0	
2.6080	0	-0.958314	0	
2.6087	-2.4526	-0.958314	0	
2.6093	-5.48914	-0.650285	0	
2.6100	-7.63809	-0.068451	0	
2.6107	-7.03078	2.70382	0	
2.6113	-5.48914	0.547608	0	
2.6120	-6.11981	-5.85256	0	
2.6127	-6.72712	-7.97454	0	
2.6133	-2.14894	-5.54453	0	
2.6140	5.7928	-4.92847	0	
2.6147	12.4966	-5.54453	0	
2.6153	15.8601	-4.62044	0	
2.6160	14.0382	-3.73058	0	
2.6167	6.70376	-4.62044	0	
2.6173	-1.54163	-5.54453	0	
2.6180	-1.54163	-4.31241	0	
2.6187	3.64386	-3.42255	0	
2.6193	4.57818	-1.26634	0	
2.6200	3.97087	1.77973	0	
2.6207	6.70376	1.77973	0	
2.6213	8.54905	0.547608	0	
2.6220	9.15636	0.855638	0	
2.6227	12.1929	0.855638	0	
2.6233	14.9492	1.77973	0	
2.6240	9.46001	2.39579	0	
2.6247	1.21462	-0.068451	0	
2.6253	0.303655	-1.57437	0	
2.6260	0.303655	0.855638	0	
2.6267	-3.66722	0.855638	0	
2.6273	-7.03078	-1.8824	0	
2.6280	-5.18549	-0.650285	0	
2.6287	-1.54163	3.01184	0	
2.6293	-1.54163	4.20974	0	
2.6300	-3.66722	3.59368	0	
2.6307	-4.57818	2.70382	0	
2.6313	-2.4526	2.70382	0	
2.6320	-1.54163	5.44186	0	
2.6327	-2.4526	5.74989	0	
2.6333	-0.60731	2.70382	0	
2.6340	3.03655	0.855638	0	
2.6347	2.42924	2.08776	0	
2.6353	0.303655	3.59368	0	
2.6360	1.82193	3.59368	0	
2.6367	3.64386	1.77973	0	
2.6373	2.12558	-0.958314	0	
2.6380	-0.60731	-1.8824	0	
2.6387	-2.4526	-0.958314	0	
2.6393	-2.4526	-0.650285	0	
2.6400	-0.60731	-0.342255	0	
2.6407	-0.60731	0.855638	0	
2.6413	-3.97087	0.547608	0	
2.6420	-2.4526	-1.26634	0	
2.6427	1.82193	-0.958314	0	
2.6433	-0.934322	0.239579	0	
2.6440	-2.75625	0.547608	0	
2.6447	6.09645	-0.068451	0	
2.6453	10.0673	-0.342255	0	
2.6460	-1.54163	1.77973	0	
2.6467	-11.0016	4.20974	0	
2.6473	-10.698	2.08776	0	
2.6480	-10.0673	0.239579	0	
2.6487	-7.94174	2.70382	0	
2.6493	0.910964	3.59368	0	
2.6500	5.18549	0.855638	0	
2.6507	1.82193	-0.068451	0	
2.6513	0.303655	-1.26634	0	
2.6520	1.51827	-1.8824	0	
2.6527	1.51827	0.855638	0	
2.6533	4.27452	0.855638	0	
2.6540	9.15636	-2.80649	0	
2.6547	11.8893	-1.26634	0	
2.6553	14.9492	2.70382	0	
2.6560	17.6821	0.855638	0	
2.6567	15.8601	0.239579	0	
2.6573	11.2819	2.08776	0	
2.6580	7.61473	-0.068451	0	
2.6587	6.70376	-2.49846	0	
2.6593	6.09645	-0.958314	0	
2.6600	7.91838	-1.26634	0	
2.6607	9.76367	-2.80649	0	
2.6613	6.09645	-1.26634	0	
2.6620	-0.303655	0.239579	0	
2.6627	-3.05991	0.239579	0	
2.6633	-5.18549	0.855638	0	
2.6640	-9.15636	-0.342255	0	
2.6647	-11.3053	-4.00438	0	
2.6653	-15.8835	-6.77665	0	
2.6660	-21.6763	-5.85256	0	
2.6667	-20.7653	-4.00438	0	
2.6673	-20.7653	-3.42255	0	
2.6680	-22.2836	-2.80649	0	
2.6687	-7.33443	-1.8824	0	
2.6693	17.3784	-1.57437	0	
2.6700	29.291	-0.650285	0	
2.6707	28.6837	0.855638	0	
2.6713	24.7128	0.547608	0	
2.6720	16.7711	-1.8824	0	
2.6727	8.54905	-4.00438	0	
2.6733	1.82193	-4.00438	0	
2.6740	-3.66722	-2.80649	0	
2.6747	-5.18549	-2.49846	0	
2.6753	-7.94174	-2.49846	0	
2.6760	-14.0382	-0.068451	0	
2.6767	-15.5798	3.59368	0	
2.6773	-12.8236	3.90171	0	
2.6780	-10.3943	3.59368	0	
2.6787	-2.4526	6.05792	0	
2.6793	10.6746	9.10399	0	
2.6800	22.2602	10.0281	0	
2.6807	29.8983	9.10399	0	
2.6813	32.0473	9.10399	0	
2.6820	34.7802	10.9179	0	
2.6827	40.8766	10.9179	0	
2.6833	39.9656	8.48793	0	
2.6840	30.8093	6.36594	0	
2.6847	24.7128	3.59368	0	
2.6853	18.6164	0.547608	0	
2.6860	7.61473	-0.342255	0	
2.6867	-2.4526	-0.068451	0	
2.6873	-7.94174	-2.19043	0	
2.6880	-14.6455	-7.08468	0	
2.6887	-21.9799	-10.7468	0	
2.6893	-27.1654	-12.8688	0	
2.6900	-27.1654	-13.7929	0	
2.6907	-23.4982	-12.8688	0	
2.6913	-21.6763	-11.9447	0	
2.6920	-22.8909	-10.7468	0	
2.6927	-21.3726	-8.28257	0	
2.6933	-18.92	-7.39271	0	
2.6940	-16.7944	-8.28257	0	
2.6947	-10.698	-6.46862	0	
2.6953	-4.57818	-4.00438	0	
2.6960	-4.57818	-5.54453	0	
2.6967	-7.33443	-5.54453	0	
2.6973	-8.8527	-3.11452	0	
2.6980	-10.0673	-1.8824	0	
2.6987	-7.94174	-1.8824	0	
2.6993	1.21462	-1.8824	0	
2.7000	8.54905	-3.73058	0	
2.7007	6.70376	-4.62044	0	
2.7013	0.910964	-4.62044	0	
2.7020	0.60731	-4.00438	0	
2.7027	4.88183	-1.8824	0	
2.7033	6.70376	-0.068451	0	
2.7040	4.57818	-0.650285	0	
2.7047	3.03655	-0.342255	0	
2.7053	7.31107	0.855638	0	
2.7060	12.1929	-0.342255	0	
2.7067	12.1929	-1.8824	0	
2.7073	8.54905	0.855638	0	
2.7080	4.88183	3.01184	0	
2.7087	5.48914	0.855638	0	
2.7093	6.09645	-1.26634	0	
2.7100	3.3402	-0.650285	0	
2.7107	1.82193	2.70382	0	
2.7113	5.48914	5.74989	0	
2.7120	8.54905	6.36594	0	
2.7127	8.54905	5.44186	0	
2.7133	10.6746	6.05792	0	
2.7140	14.0382	5.74989	0	
2.7147	15.2528	3.31987	0	
2.7153	14.9492	2.70382	0	
2.7160	13.4309	4.51777	0	
2.7167	11.5856	4.51777	0	
2.7173	11.5856	4.20974	0	
2.7180	8.54905	3.59368	0	
2.7187	-0.934322	0.855638	0	
2.7193	-6.72712	-1.57437	0	
2.7200	-3.66722	-1.57437	0	
2.7207	-1.54163	-1.26634	0	
2.7213	-5.18549	-0.342255	0	
2.7220	-6.11981	0.855638	0	
2.7227	-4.27452	-0.958314	0	
2.7233	-5.81616	-1.8824	0	
2.7240	-8.8527	-0.068451	0	
2.7247	-5.81616	-0.958314	0	
2.7253	-2.4526	-4.62044	0	
2.7260	-6.72712	-5.54453	0	
2.7267	-12.2163	-6.77665	0	
2.7273	-9.76367	-7.39271	0	
2.7280	-3.66722	-4.31241	0	
2.7287	-1.54163	-0.650285	0	
2.7293	-0.303655	0.239579	0	
2.7300	3.64386	-0.068451	0	
2.7307	6.70376	-1.57437	0	
2.7313	7.00742	-1.26634	0	
2.7320	5.48914	-0.068451	0	
2.7327	1.21462	-1.26634	0	
2.7333	-1.54163	-2.80649	0	
2.7340	2.12558	-0.068451	0	
2.7347	8.54905	2.08776	0	
2.7353	10.371	1.77973	0	
2.7360	9.15636	1.4717	0	
2.7367	7.61473	0.855638	0	
2.7373	6.70376	0.855638	0	
2.7380	5.7928	2.39579	0	
2.7387	8.54905	2.70382	0	
2.7393	11.2819	2.08776	0	
2.7400	7.91838	3.31987	0	
2.7407	2.12558	4.8258	0	
2.7413	-0.60731	3.31987	0	
2.7420	-3.97087	0.547608	0	
2.7427	-10.698	-0.650285	0	
2.7433	-15.8835	-0.068451	0	
2.7440	-14.9725	0.547608	0	
2.7447	-11.0016	0.239579	0	
2.7453	-3.36356	-1.57437	0	
2.7460	5.7928	-0.958314	0	
2.7467	8.8527	2.70382	0	
2.7473	3.64386	3.59368	0	
2.7480	-3.36356	0.239579	0	
2.7487	-9.46001	-3.73058	0	
2.7493	-11.0016	-4.62044	0	
2.7500	1.82193	-1.8824	0	
2.7507	23.8019	1.4717	0	
2.7513	39.662	4.51777	0	
2.7520	43.6329	7.56384	0	
2.7527	37.8401	8.1799	0	
2.7533	27.1421	5.74989	0	
2.7540	21.0456	6.36594	0	
2.7547	19.2237	6.05792	0	
2.7553	15.8601	2.70382	0	
2.7560	14.0382	4.8258	0	
2.7567	15.8601	9.41201	0	
2.7573	14.0382	6.05792	0	
2.7580	4.57818	1.16367	0	
2.7587	-7.94174	1.77973	0	
2.7593	-13.7345	1.77973	0	
2.7600	-10.698	-0.068451	0	
2.7607	-10.0673	-3.11452	0	
2.7613	-14.0382	-8.28257	0	
2.7620	-11.9126	-10.1308	0	
2.7627	-8.54905	-8.28257	0	
2.7633	-10.3943	-8.89863	0	
2.7640	-11.0016	-9.20666	0	
2.7647	-9.76367	-6.16059	0	
2.7653	-10.698	-5.85256	0	
2.7660	-11.609	-8.28257	0	
2.7667	-11.609	-7.08468	0	
2.7673	-8.2454	-5.54453	0	
2.7680	0.910964	-5.2365	0	
2.7687	2.73289	-4.00438	0	
2.7693	-6.11981	-3.42255	0	
2.7700	-8.8527	-3.42255	0	
2.7707	-4.57818	-1.8824	0	
2.7713	-4.88183	-0.068451	0	
2.7720	-5.18549	-0.068451	0	
2.7727	-2.14894	0.547608	0	
2.7733	1.51827	1.77973	0	
2.7740	5.7928	1.4717	0	
2.7747	5.7928	0.239579	0	
2.7753	3.03655	0.239579	0	
2.7760	7.61473	1.77973	0	
2.7767	14.0382	2.70382	0	
2.7773	13.1039	1.4717	0	
2.7780	9.76367	-0.650285	0	
2.7787	6.09645	-0.958314	0	
2.7793	3.03655	0.239579	0	
2.7800	3.97087	1.16367	0	
2.7807	2.42924	0.239579	0	
2.7813	0.910964	1.77973	0	
2.7820	9.76367	5.13383	0	
2.7827	16.7711	5.44186	0	
2.7833	10.9783	3.31987	0	
2.7840	11.2819	2.70382	0	
2.7847	20.1346	3.59368	0	
2.7853	16.1638	4.20974	0	
2.7860	5.18549	4.20974	0	
2.7867	4.57818	3.01184	0	
2.7873	5.18549	0.855638	0	
2.7880	-1.54163	-2.19043	0	
2.7887	-5.81616	-4.31241	0	
2.7893	-4.57818	-1.8824	0	
2.7900	-5.18549	-0.958314	0	
2.7907	-7.33443	-2.49846	0	
2.7913	-6.72712	-0.068451	0	
2.7920	-4.88183	1.77973	0	
2.7927	-4.27452	-0.958314	0	
2.7933	-0.60731	-0.068451	0	
2.7940	6.70376	3.31987	0	
2.7947	11.5856	1.77973	0	
2.7953	9.46001	1.77973	0	
2.7960	4.57818	2.39579	0	
2.7967	5.7928	-1.8824	0	
2.7973	12.8002	-1.57437	0	
2.7980	16.7711	3.59368	0	
2.7987	16.7711	4.20974	0	
2.7993	14.9492	3.59368	0	
2.8000	10.0673	4.51777	0	
2.8007	0	2.70382	0	
2.8013	-11.3053	0.547608	0	
2.8020	-20.4617	0.239579	0	
2.8027	-24.7362	-2.19043	0	
2.8033	-25.3435	-3.11452	0	
2.8040	-25.0398	-0.650285	0	
2.8047	-20.7653	-0.068451	0	
2.8053	-12.5199	-1.8824	0	
2.8060	-6.42347	-1.8824	0	
2.8067	-2.14894	0.547608	0	
2.8073	2.73289	3.59368	0	
2.8080	9.46001	4.51777	0	
2.8087	19.2237	3.59368	0	
2.8093	28.6837	5.13383	0	
2.8100	30.5056	5.74989	0	
2.8107	23.1946	4.20974	0	
2.8113	13.7345	2.70382	0	
2.8120	6.09645	0.239579	0	
2.8127	-0.60731	-3.73058	0	
2.8133	-7.63809	-5.2365	0	
2.8140	-12.5199	-5.54453	0	
2.8147	-14.9725	-7.97454	0	
2.8153	-14.6455	-8.89863	0	
2.8160	-11.609	-6.77665	0	
2.8167	-9.46001	-5.85256	0	
2.8173	-11.0016	-5.85256	0	
2.8180	-10.0673	-6.16059	0	
2.8187	-6.42347	-6.77665	0	
2.8193	-4.57818	-3.73058	0	
2.8200	-0.60731	0.547608	0	
2.8207	5.48914	0.239579	0	
2.8213	6.70376	-1.57437	0	
2.8220	5.48914	-1.8824	0	
2.8227	5.48914	-3.11452	0	
2.8233	5.48914	-1.8824	0	
2.8240	7.61473	0.239579	0	
2.8247	7.61473	-2.49846	0	
2.8253	0.303655	-4.62044	0	
2.8260	-5.18549	-2.19043	0	
2.8267	-6.11981	-0.342255	0	
2.8273	-11.609	-2.19043	0	
2.8280	-17.0981	-3.73058	0	
2.8287	-18.6164	-2.80649	0	
2.8293	-21.6763	-0.342255	0	
2.8300	-20.7653	-0.342255	0	
2.8307	-9.46001	-3.73058	0	
2.8313	1.21462	-3.73058	0	
2.8320	10.371	-0.068451	0	
2.8327	19.831	0.547608	0	
2.8333	19.5273	-0.068451	0	
2.8340	11.8893	0.855638	0	
2.8347	10.9783	2.39579	0	
2.8353	12.1929	1.4717	0	
2.8360	11.2819	-0.958314	0	
2.8367	13.7345	-0.958314	0	
2.8373	17.3784	3.31987	0	
2.8380	20.1346	5.44186	0	
2.8387	22.8909	2.70382	0	
2.8393	20.742	1.4717	0	
2.8400	16.1638	2.70382	0	
2.8407	15.2528	2.70382	0	
2.8413	13.1039	2.70382	0	
2.8420	7.61473	3.59368	0	
2.8427	6.70376	3.90171	0	
2.8433	7.00742	2.39579	0	
2.8440	1.82193	-0.342255	0	
2.8447	-1.23798	-1.8824	0	
2.8453	4.88183	0.239579	0	
2.8460	11.2819	1.77973	0	
2.8467	11.2819	2.39579	0	
2.8473	5.7928	2.70382	0	
2.8480	-1.54163	2.70382	0	
2.8487	-5.48914	3.31987	0	
2.8493	-6.11981	4.51777	0	
2.8500	-5.18549	3.01184	0	
2.8507	-4.27452	2.70382	0	
2.8513	-1.54163	4.8258	0	
2.8520	0.303655	4.20974	0	
2.8527	-2.14894	0.855638	0	
2.8533	-3.36356	-0.650285	0	
2.8540	2.42924	-1.8824	0	
2.8547	11.2819	-2.19043	0	
2.8553	17.0747	2.70382	0	
2.8560	20.742	5.44186	0	
2.8567	21.9566	3.59368	0	
2.8573	19.2237	1.77973	0	
2.8580	14.6455	-0.958314	0	
2.8587	9.76367	-2.80649	0	
2.8593	6.09645	0.855638	0	
2.8600	6.09645	3.01184	0	
2.8607	4.88183	-0.958314	0	
2.8613	-0.303655	-3.42255	0	
2.8620	-3.66722	-2.19043	0	
2.8627	-3.66722	-1.57437	0	
2.8633	-6.72712	-1.8824	0	
2.8640	-11.3053	-3.42255	0	
2.8647	-11.9126	-5.54453	0	
2.8653	-10.0673	-5.54453	0	
2.8660	-9.15636	-3.11452	0	
2.8667	-10.0673	-1.8824	0	
2.8673	-12.5199	-1.8824	0	
2.8680	-13.4309	-3.11452	0	
2.8687	-10.698	-4.31241	0	
2.8693	-7.94174	-3.73058	0	
2.8700	-7.33443	-1.57437	0	
2.8707	-7.03078	-0.068451	0	
2.8713	-6.11981	0.855638	0	
2.8720	-7.03078	2.70382	0	
2.8727	-6.42347	4.20974	0	
2.8733	-1.54163	3.31987	0	
2.8740	3.03655	2.70382	0	
2.8747	1.21462	2.70382	0	
2.8753	-2.4526	0.855638	0	
2.8760	-4.27452	-2.49846	0	
2.8767	-5.18549	-0.958314	0	
2.8773	-2.4526	3.31987	0	
2.8780	4.57818	3.90171	0	
2.8787	7.31107	0.855638	0	
2.8793	5.7928	-1.8824	0	
2.8800	9.46001	-2.80649	0	
2.8807	16.1638	-1.8824	0	
2.8813	19.2237	-0.342255	0	
2.8820	16.1638	-0.068451	0	
2.8827	9.46001	-0.068451	0	
2.8833	4.88183	-0.650285	0	
2.8840	3.3402	-1.57437	0	
2.8847	-2.14894	-2.49846	0	
2.8853	-7.94174	-3.42255	0	
2.8860	-5.18549	-4.62044	0	
2.8867	-1.23798	-4.31241	0	
2.8873	-4.27452	-3.73058	0	
2.8880	-5.18549	-4.62044	0	
2.8887	-3.36356	-4.62044	0	
2.8893	-6.11981	-0.958314	0	
2.8900	-7.03078	-0.650285	0	
2.8907	-3.36356	-3.42255	0	
2.8913	-2.75625	-2.80649	0	
2.8920	-3.36356	-3.11452	0	
2.8927	0.60731	-6.77665	0	
2.8933	6.09645	-7.39271	0	
2.8940	13.4309	-3.42255	0	
2.8947	16.7711	-1.8824	0	
2.8953	9.76367	-3.42255	0	
2.8960	0.910964	-2.80649	0	
2.8967	1.21462	-0.342255	0	
2.8973	7.00742	0.547608	0	
2.8980	13.4309	-0.958314	0	
2.8987	19.5273	-0.650285	0	
2.8993	19.5273	1.16367	0	
2.9000	12.1929	0.855638	0	
2.9007	5.7928	-0.958314	0	
2.9013	5.18549	-0.958314	0	
2.9020	8.22204	0.855638	0	
2.9027	7.61473	2.70382	0	
2.9033	3.97087	4.51777	0	
2.9040	3.64386	4.8258	0	
2.9047	3.97087	2.39579	0	
2.9053	-0.60731	0.239579	0	
2.9060	-4.57818	1.16367	0	
2.9067	-4.88183	2.70382	0	
2.9073	-6.11981	0.855638	0	
2.9080	-7.94174	-0.958314	0	
2.9087	-4.57818	0.239579	0	
2.9093	0.60731	1.77973	0	
2.9100	3.97087	-0.068451	0	
2.9107	7.61473	-1.57437	0	
2.9113	9.76367	-0.342255	0	
2.9120	7.31107	0.855638	0	
2.9127	3.03655	-0.650285	0	
2.9133	0	-2.80649	0	
2.9140	-3.36356	-3.42255	0	
2.9147	-6.11981	-4.62044	0	
2.9153	-8.54905	-5.54453	0	
2.9160	-14.3418	-3.73058	0	
2.9167	-19.2237	-0.958314	0	
2.9173	-17.7054	-1.57437	0	
2.9180	-10.3943	-0.068451	0	
2.9187	-1.54163	3.59368	0	
2.9193	4.57818	3.31987	0	
2.9200	7.61473	1.77973	0	
2.9207	16.1638	3.90171	0	
2.9213	25.9274	6.36594	0	
2.9220	22.2602	5.74989	0	
2.9227	14.9492	4.51777	0	
2.9233	18.6164	5.44186	0	
2.9240	18.6164	6.36594	0	
2.9247	10.371	5.13383	0	
2.9253	6.40011	2.39579	0	
2.9260	3.64386	-1.26634	0	
2.9267	-3.66722	-4.92847	0	
2.9273	-8.54905	-6.46862	0	
2.9280	-9.46001	-4.92847	0	
2.9287	-8.8527	-4.62044	0	
2.9293	-7.03078	-7.08468	0	
2.9300	-7.03078	-8.5906	0	
2.9307	-7.94174	-8.5906	0	
2.9313	-7.03078	-7.39271	0	
2.9320	-9.76367	-4.62044	0	
2.9327	-17.7054	-2.19043	0	
2.9333	-21.6763	0.547608	0	
2.9340	-20.4617	1.77973	0	
2.9347	-16.4908	0.239579	0	
2.9353	-10.698	0.855638	0	
2.9360	-7.03078	3.31987	0	
2.9367	-7.94174	0.855638	0	
2.9373	-7.94174	-1.26634	0	
2.9380	-2.75625	2.08776	0	
2.9387	3.3402	4.51777	0	
2.9393	5.7928	3.59368	0	
2.9400	6.70376	3.59368	0	
2.9407	8.54905	4.8258	0	
2.9413	11.8893	5.44186	0	
2.9420	16.7711	5.13383	0	
2.9427	19.5273	3.01184	0	
2.9433	16.4674	2.39579	0	
2.9440	15.8601	4.20974	0	
2.9447	20.1346	4.8258	0	
2.9453	18.6164	4.8258	0	
2.9460	11.2819	4.8258	0	
2.9467	9.15636	2.08776	0	
2.9473	9.76367	0.239579	0	
2.9480	6.70376	2.39579	0	
2.9487	0.910964	2.08776	0	
2.9493	-3.36356	-1.26634	0	
2.9500	-4.57818	-2.80649	0	
2.9507	-5.48914	-2.49846	0	
2.9513	-9.46001	-2.80649	0	
2.9520	-10.0673	-3.73058	0	
2.9527	-3.97087	-5.54453	0	
2.9533	4.27452	-4.62044	0	
2.9540	10.6746	-2.80649	0	
2.9547	15.8601	-4.00438	0	
2.9553	16.4674	-3.11452	0	
2.9560	13.1039	1.16367	0	
2.9567	8.54905	0.239579	0	
2.9573	3.3402	-4.92847	0	
2.9580	2.12558	-3.73058	0	
