0.0000	-4.98367	0.169775	1
0.0007	1.43895	-0.132048	0	
0.0013	9.96734	0.471598	0	
0.0020	12.7048	3.52756	0	
0.0027	16.39	5.05554	0	
0.0033	21.865	4.45189	0	
0.0040	20.04	5.35736	0	
0.0047	11.7923	5.961	0	
0.0053	8.14233	4.45189	0	
0.0060	9.65147	5.35736	0	
0.0067	14.5649	5.65918	0	
0.0073	18.215	3.52756	0	
0.0080	18.215	4.75371	0	
0.0087	15.4774	7.80967	0	
0.0093	10.2832	5.05554	0	
0.0100	9.05483	3.52756	0	
0.0107	16.39	7.18716	0	
0.0113	24.3217	6.88534	0	
0.0120	22.4967	1.39593	0	
0.0127	14.5649	-1.05638	0	
0.0133	4.49232	-2.58436	0	
0.0140	-9.86205	-6.54579	0	
0.0147	-20.2505	-11.4315	0	
0.0153	-17.7938	-14.1668	0	
0.0160	-10.4587	-11.1109	0	
0.0167	-3.7553	-4.71598	0	
0.0173	2.03558	-3.79165	0	
0.0180	0.807214	-7.45126	0	
0.0187	-4.6678	-6.54579	0	
0.0193	-3.43943	-2.26367	0	
0.0200	-0.105289	-2.88618	0	
0.0207	-1.93029	-7.14943	0	
0.0213	-5.29953	-9.28106	0	
0.0220	-6.49281	-8.07376	0	
0.0227	-8.35291	-6.84761	0	
0.0233	-9.54618	-7.14943	0	
0.0240	-9.26541	-4.71598	0	
0.0247	-4.98367	-1.05638	0	
0.0253	-0.105289	-1.66003	0	
0.0260	-1.93029	-2.26367	0	
0.0267	-7.40531	-0.132048	0	
0.0273	-6.49281	-1.05638	0	
0.0280	-2.52693	-3.18801	0	
0.0287	-1.01779	-0.132048	0	
0.0293	-1.01779	4.1312	0	
0.0300	-2.24616	3.22573	0	
0.0307	-5.5803	1.99958	0	
0.0313	-6.21204	2.3014	0	
0.0320	-5.5803	1.69775	0	
0.0327	-7.40531	2.62209	0	
0.0333	-11.0904	3.22573	0	
0.0340	-15.3722	0.471598	0	
0.0347	-18.3904	-0.433871	0	
0.0353	-19.338	1.09411	0	
0.0360	-19.338	0.169775	0	
0.0367	-18.1097	0.773421	0	
0.0373	-16.5654	4.75371	0	
0.0380	-15.3722	3.52756	0	
0.0387	-13.8279	0.773421	0	
0.0393	-12.9154	2.3014	0	
0.0400	-12.9154	1.69775	0	
0.0407	-14.4246	0.471598	0	
0.0413	-13.5121	5.35736	0	
0.0420	-4.6678	7.80967	0	
0.0427	5.08896	5.65918	0	
0.0433	3.57982	6.58351	0	
0.0440	0.210578	6.28169	0	
0.0447	6.31733	2.62209	0	
0.0453	12.4241	4.75371	0	
0.0460	13.9332	7.18716	0	
0.0467	16.39	2.3014	0	
0.0473	14.2491	-0.132048	0	
0.0480	6.91396	0.169775	0	
0.0487	2.94809	-2.88618	0	
0.0493	6.31733	-2.26367	0	
0.0500	10.5991	1.69775	0	
0.0507	8.14233	-0.132048	0	
0.0513	-3.15866	-1.66003	0	
0.0520	-10.1779	-0.132048	0	
0.0527	-9.54618	-3.18801	0	
0.0533	-12.9154	-6.54579	0	
0.0540	-17.7938	-5.92328	0	
0.0547	-15.6529	-8.37559	0	
0.0553	-13.8279	-8.07376	0	
0.0560	-15.6529	-1.66003	0	
0.0567	-11.0904	-0.433871	0	
0.0573	-4.07117	-1.05638	0	
0.0580	-0.701925	3.52756	0	
0.0587	1.71972	4.45189	0	
0.0593	3.26395	2.3014	0	
0.0600	2.66732	5.65918	0	
0.0607	7.22983	6.28169	0	
0.0613	15.4774	2.3014	0	
0.0620	20.04	3.52756	0	
0.0627	18.5308	3.52756	0	
0.0633	14.2491	2.62209	0	
0.0640	8.14233	6.58351	0	
0.0647	3.57982	7.18716	0	
0.0653	-1.01779	1.69775	0	
0.0660	-9.86205	0.773421	0	
0.0667	-19.0222	1.69775	0	
0.0673	-23.9005	-0.132048	0	
0.0680	-28.4631	-0.132048	0	
0.0687	-29.4107	-0.132048	0	
0.0693	-22.0755	-1.05638	0	
0.0700	-11.3712	0.773421	0	
0.0707	-1.01779	4.75371	0	
0.0713	9.05483	6.28169	0	
0.0720	14.5649	5.35736	0	
0.0727	15.7582	3.82938	0	
0.0733	21.865	1.99958	0	
0.0740	29.2001	1.09411	0	
0.0747	31.9376	-0.433871	0	
0.0753	34.0785	-1.66003	0	
0.0760	34.7102	0.471598	0	
0.0767	29.5159	1.39593	0	
0.0773	24.0058	-1.96185	0	
0.0780	21.865	-1.96185	0	
0.0787	19.1275	1.99958	0	
0.0793	14.5649	2.62209	0	
0.0800	10.5991	1.09411	0	
0.0807	8.14233	3.52756	0	
0.0813	9.05483	5.05554	0	
0.0820	9.05483	2.3014	0	
0.0827	6.63319	1.09411	0	
0.0833	5.40482	1.99958	0	
0.0840	6.63319	1.69775	0	
0.0847	6.00146	0.773421	0	
0.0853	3.57982	-0.132048	0	
0.0860	2.66732	-0.132048	0	
0.0867	2.94809	1.39593	0	
0.0873	2.35145	1.09411	0	
0.0880	-1.93029	-1.3582	0	
0.0887	-7.40531	-4.09347	0	
0.0893	-10.1779	-7.45126	0	
0.0900	-13.2313	-9.60174	0	
0.0907	-16.8813	-7.77194	0	
0.0913	-17.4779	-5.01781	0	
0.0920	-14.4246	-4.71598	0	
0.0927	-10.7746	-5.31963	0	
0.0933	-7.40531	-4.71598	0	
0.0940	-6.80867	-3.18801	0	
0.0947	-7.40531	-3.48983	0	
0.0953	-6.21204	-4.41416	0	
0.0960	-5.89617	-3.79165	0	
0.0967	-5.5803	-3.79165	0	
0.0973	0.807214	-4.41416	0	
0.0980	6.63319	-0.735694	0	
0.0987	5.40482	3.52756	0	
0.0993	2.35145	2.62209	0	
0.1000	2.03558	1.69775	0	
0.1007	3.57982	2.92391	0	
0.1013	5.40482	2.62209	0	
0.1020	6.31733	1.99958	0	
0.1027	6.31733	3.22573	0	
0.1033	4.49232	2.62209	0	
0.1040	-1.01779	-0.132048	0	
0.1047	-8.03704	-0.735694	0	
0.1053	-10.1779	-1.05638	0	
0.1060	-8.35291	-1.05638	0	
0.1067	-8.94954	-0.132048	0	
0.1073	-13.2313	-0.735694	0	
0.1080	-19.338	-1.96185	0	
0.1087	-22.3914	-2.26367	0	
0.1093	-20.5313	-3.79165	0	
0.1100	-19.9347	-7.14943	0	
0.1107	-25.1289	-7.45126	0	
0.1113	-30.3232	-5.31963	0	
0.1120	-27.2698	-3.48983	0	
0.1127	-22.0755	-0.132048	0	
0.1133	-18.3904	2.3014	0	
0.1140	-8.94954	0.773421	0	
0.1147	8.4582	1.09411	0	
0.1153	20.04	6.28169	0	
0.1160	22.1808	9.31878	0	
0.1167	21.2683	8.41332	0	
0.1173	19.4433	8.41332	0	
0.1180	19.1275	11.4693	0	
0.1187	24.9183	12.9973	0	
0.1193	34.7102	11.7711	0	
0.1200	40.1852	10.8468	0	
0.1207	41.0977	11.7711	0	
0.1213	40.5011	10.2431	0	
0.1220	34.3943	6.58351	0	
0.1227	18.8116	4.1312	0	
0.1233	4.49232	0.773421	0	
0.1240	0.210578	-3.79165	0	
0.1247	-0.386059	-4.09347	0	
0.1253	-2.8428	-1.3582	0	
0.1260	-7.40531	-1.66003	0	
0.1267	-13.2313	-5.62145	0	
0.1273	-12.0029	-8.37559	0	
0.1280	-2.8428	-6.84761	0	
0.1287	2.94809	-6.54579	0	
0.1293	4.17645	-9.60174	0	
0.1300	5.68559	-11.4315	0	
0.1307	2.66732	-10.2054	0	
0.1313	-4.6678	-9.60174	0	
0.1320	-7.40531	-8.37559	0	
0.1327	-5.5803	-6.54579	0	
0.1333	-6.21204	-6.54579	0	
0.1340	-9.26541	-4.41416	0	
0.1347	-12.0029	-1.96185	0	
0.1353	-12.9154	-2.88618	0	
0.1360	-12.5996	-3.18801	0	
0.1367	-10.4587	0.471598	0	
0.1373	-7.40531	1.09411	0	
0.1380	-5.89617	-1.05638	0	
0.1387	-4.35194	0.773421	0	
0.1393	0.210578	3.82938	0	
0.1400	9.05483	6.28169	0	
0.1407	22.4967	9.01696	0	
0.1413	31.0251	7.80967	0	
0.1420	24.6376	2.92391	0	
0.1427	13.6524	2.92391	0	
0.1433	11.5116	6.28169	0	
0.1440	10.2832	5.35736	0	
0.1447	4.49232	3.52756	0	
0.1453	2.66732	5.35736	0	
0.1460	6.00146	5.65918	0	
0.1467	2.94809	2.62209	0	
0.1473	-7.12454	0.773421	0	
0.1480	-16.5654	-1.3582	0	
0.1487	-21.163	-7.45126	0	
0.1493	-19.9347	-11.1109	0	
0.1500	-18.1097	-10.2054	0	
0.1507	-19.338	-11.1109	0	
0.1513	-19.6188	-14.4686	0	
0.1520	-16.2847	-12.9595	0	
0.1527	-12.3188	-9.28106	0	
0.1533	-12.3188	-8.07376	0	
0.1540	-12.5996	-8.37559	0	
0.1547	-7.72118	-6.84761	0	
0.1553	-0.105289	-4.41416	0	
0.1560	3.86059	-1.3582	0	
0.1567	6.63319	1.69775	0	
0.1573	11.7923	3.82938	0	
0.1580	14.2491	4.45189	0	
0.1587	7.82646	2.3014	0	
0.1593	1.43895	-0.433871	0	
0.1600	0.807214	-1.66003	0	
0.1607	-1.33366	-0.433871	0	
0.1613	-5.89617	0.471598	0	
0.1620	-5.5803	-0.433871	0	
0.1627	-3.7553	-1.96185	0	
0.1633	-9.26541	-2.88618	0	
0.1640	-17.4779	-2.88618	0	
0.1647	-18.3904	-1.96185	0	
0.1653	-15.0563	-0.735694	0	
0.1660	-12.3188	1.09411	0	
0.1667	-8.94954	3.52756	0	
0.1673	-6.21204	3.52756	0	
0.1680	-6.49281	-0.132048	0	
0.1687	-4.6678	-2.58436	0	
0.1693	-0.386059	-1.3582	0	
0.1700	-0.386059	-1.3582	0	
0.1707	2.03558	-0.433871	0	
0.1713	13.0207	2.3014	0	
0.1720	19.1275	1.69775	0	
0.1727	11.7923	0.773421	0	
0.1733	3.86059	2.92391	0	
0.1740	1.71972	2.62209	0	
0.1747	-1.01779	-0.132048	0	
0.1753	-1.33366	1.09411	0	
0.1760	0.807214	1.99958	0	
0.1767	2.66732	-0.132048	0	
0.1773	5.40482	-1.05638	0	
0.1780	5.40482	-1.96185	0	
0.1787	-1.33366	-3.79165	0	
0.1793	-6.49281	-1.3582	0	
0.1800	-5.5803	-0.433871	0	
0.1807	-6.49281	-2.88618	0	
0.1813	-7.40531	-2.58436	0	
0.1820	-3.15866	-0.735694	0	
0.1827	-1.33366	0.471598	0	
0.1833	-5.5803	2.3014	0	
0.1840	-8.94954	1.69775	0	
0.1847	-10.1779	-1.3582	0	
0.1853	-12.0029	-1.96185	0	
0.1860	-9.26541	-1.66003	0	
0.1867	0.807214	-2.88618	0	
0.1873	10.2832	-3.79165	0	
0.1880	10.5991	-5.31963	0	
0.1887	2.66732	-6.24396	0	
0.1893	-2.8428	-2.88618	0	
0.1900	-2.8428	-0.735694	0	
0.1907	-4.35194	-1.66003	0	
0.1913	-4.35194	-0.132048	0	
0.1920	-1.93029	2.92391	0	
0.1927	-3.43943	1.09411	0	
0.1933	-4.98367	-2.26367	0	
0.1940	-3.15866	-2.88618	0	
0.1947	-5.29953	-2.26367	0	
0.1953	-7.72118	-0.132048	0	
0.1960	-5.29953	1.69775	0	
0.1967	-4.6678	1.69775	0	
0.1973	-4.6678	0.773421	0	
0.1980	-0.105289	1.69775	0	
0.1987	-0.701925	2.92391	0	
0.1993	-3.7553	4.75371	0	
0.2000	2.66732	5.65918	0	
0.2007	10.8798	4.75371	0	
0.2013	17.6183	5.961	0	
0.2020	29.2001	9.31878	0	
0.2027	34.3943	9.94129	0	
0.2033	27.0592	9.01696	0	
0.2040	21.865	8.71514	0	
0.2047	17.8991	5.05554	0	
0.2053	4.17645	0.471598	0	
0.2060	-12.9154	0.471598	0	
0.2067	-23.3039	0.773421	0	
0.2073	-27.8664	-3.18801	0	
0.2080	-26.6381	-7.14943	0	
0.2087	-19.6188	-7.45126	0	
0.2093	-12.0029	-6.54579	0	
0.2100	-8.63368	-7.77194	0	
0.2107	-9.26541	-9.28106	0	
0.2113	-11.3712	-9.28106	0	
0.2120	-12.5996	-9.28106	0	
0.2127	-12.0029	-10.2054	0	
0.2133	-8.03704	-12.0352	0	
0.2140	-1.93029	-11.1109	0	
0.2147	3.86059	-7.14943	0	
0.2153	10.8798	-2.58436	0	
0.2160	16.9866	-1.66003	0	
0.2167	16.0741	-2.58436	0	
0.2173	12.4241	-1.66003	0	
0.2180	16.6707	-1.3582	0	
0.2187	22.7775	0.471598	0	
0.2193	19.1275	5.05554	0	
0.2200	10.8798	5.961	0	
0.2207	6.31733	2.62209	0	
0.2213	2.94809	2.62209	0	
0.2220	1.43895	4.75371	0	
0.2227	2.35145	3.22573	0	
0.2233	0.210578	0.773421	0	
0.2240	-3.7553	1.69775	0	
0.2247	-1.93029	4.1312	0	
0.2253	2.66732	4.45189	0	
0.2260	4.17645	3.52756	0	
0.2267	6.00146	5.35736	0	
0.2273	9.05483	8.11149	0	
0.2280	11.5116	7.18716	0	
0.2287	13.6524	4.45189	0	
0.2293	16.6707	5.35736	0	
0.2300	15.4774	5.35736	0	
0.2307	11.5116	5.05554	0	
0.2313	7.54569	7.18716	0	
0.2320	3.57982	5.961	0	
0.2327	0.210578	2.3014	0	
0.2333	-0.386059	2.62209	0	
0.2340	-0.105289	4.1312	0	
0.2347	-0.105289	1.39593	0	
0.2353	-1.01779	0.169775	0	
0.2360	-0.386059	2.3014	0	
0.2367	-1.01779	1.09411	0	
0.2373	-3.43943	-1.66003	0	
0.2380	-2.52693	-1.3582	0	
0.2387	-0.105289	-1.96185	0	
0.2393	-2.8428	-4.71598	0	
0.2400	-7.12454	-5.62145	0	
0.2407	-6.21204	-4.71598	0	
0.2413	-4.6678	-5.31963	0	
0.2420	-8.35291	-5.62145	0	
0.2427	-9.26541	-3.79165	0	
0.2433	-5.5803	-1.96185	0	
0.2440	-6.21204	-1.96185	0	
0.2447	-10.1779	-3.79165	0	
0.2453	-9.86205	-3.79165	0	
0.2460	-8.35291	-2.58436	0	
0.2467	-10.7746	-1.96185	0	
0.2473	-10.7746	-2.26367	0	
0.2480	-8.35291	-2.88618	0	
0.2487	-10.7746	-3.18801	0	
0.2493	-12.9154	-4.09347	0	
0.2500	-10.1779	-4.71598	0	
0.2507	-10.4587	-3.48983	0	
0.2513	-13.8279	-0.735694	0	
0.2520	-8.63368	1.39593	0	
0.2527	2.66732	1.99958	0	
0.2533	8.4582	2.62209	0	
0.2540	9.65147	3.82938	0	
0.2547	12.4241	5.35736	0	
0.2553	14.2491	5.35736	0	
0.2560	11.7923	3.52756	0	
0.2567	9.05483	2.3014	0	
0.2573	9.96734	4.1312	0	
0.2580	10.8798	3.82938	0	
0.2587	8.14233	0.471598	0	
0.2593	2.94809	-1.3582	0	
0.2600	-1.93029	-1.66003	0	
0.2607	-5.89617	-1.96185	0	
0.2613	-6.21204	-1.96185	0	
0.2620	-4.6678	-0.132048	0	
0.2627	-7.40531	0.471598	0	
0.2633	-10.1779	-1.3582	0	
0.2640	-7.40531	-3.79165	0	
0.2647	-8.03704	-5.31963	0	
0.2653	-12.0029	-4.09347	0	
0.2660	-12.0029	-2.88618	0	
0.2667	-11.0904	-3.79165	0	
0.2673	-11.0904	-4.71598	0	
0.2680	-6.80867	-4.71598	0	
0.2687	-6.49281	-4.41416	0	
0.2693	-12.9154	-4.71598	0	
0.2700	-11.6871	-3.18801	0	
0.2707	-7.12454	0.169775	0	
0.2713	-8.63368	1.99958	0	
0.2720	-7.40531	-0.132048	0	
0.2727	-1.93029	0.169775	0	
0.2733	-3.7553	4.1312	0	
0.2740	-3.7553	4.75371	0	
0.2747	0.807214	2.62209	0	
0.2753	-1.93029	3.52756	0	
0.2760	-4.07117	6.58351	0	
0.2767	4.49232	6.28169	0	
0.2773	7.82646	3.82938	0	
0.2780	-0.105289	1.39593	0	
0.2787	-5.89617	-0.735694	0	
0.2793	-7.72118	-0.433871	0	
0.2800	-8.63368	0.169775	0	
0.2807	-5.5803	-1.66003	0	
0.2813	-4.35194	-3.79165	0	
0.2820	-9.26541	-4.41416	0	
0.2827	-10.1779	-5.62145	0	
0.2833	-5.29953	-8.37559	0	
0.2840	-6.49281	-8.37559	0	
0.2847	-15.9688	-5.31963	0	
0.2853	-22.0755	-2.26367	0	
0.2860	-19.9347	-1.05638	0	
0.2867	-17.1972	0.773421	0	
0.2873	-15.6529	2.62209	0	
0.2880	-8.63368	1.39593	0	
0.2887	-2.24616	-0.132048	0	
0.2893	-3.7553	2.62209	0	
0.2900	-2.8428	2.62209	0	
0.2907	2.66732	-1.3582	0	
0.2913	5.08896	-2.88618	0	
0.2920	9.96734	-1.05638	0	
0.2927	22.1808	-1.96185	0	
0.2933	28.2876	-4.09347	0	
0.2940	24.6376	-2.88618	0	
0.2947	21.865	1.69775	0	
0.2953	22.4967	5.35736	0	
0.2960	22.7775	6.28169	0	
0.2967	21.865	5.961	0	
0.2973	18.5308	6.88534	0	
0.2980	16.39	7.18716	0	
0.2987	18.5308	7.80967	0	
0.2993	20.9525	10.2431	0	
0.3000	20.04	11.7711	0	
0.3007	16.6707	10.8468	0	
0.3013	12.1082	7.18716	0	
0.3020	6.63319	1.39593	0	
0.3027	-1.01779	-2.58436	0	
0.3033	-6.49281	-2.88618	0	
0.3040	-7.72118	-4.71598	0	
0.3047	-11.6871	-7.45126	0	
0.3053	-19.338	-5.92328	0	
0.3060	-22.0755	-5.62145	0	
0.3067	-24.4972	-8.37559	0	
0.3073	-32.4289	-6.84761	0	
0.3080	-36.114	-3.48983	0	
0.3087	-31.2357	-3.79165	0	
0.3093	-30.9198	-4.41416	0	
0.3100	-30.9198	-1.96185	0	
0.3107	-19.9347	-1.66003	0	
0.3113	-9.26541	-2.88618	0	
0.3120	-9.54618	-3.79165	0	
0.3127	-9.54618	-3.79165	0	
0.3133	-6.49281	-2.26367	0	
0.3140	-5.89617	-1.96185	0	
0.3147	-2.8428	-3.48983	0	
0.3153	1.43895	-3.79165	0	
0.3160	1.71972	-4.09347	0	
0.3167	9.05483	-3.79165	0	
0.3173	18.215	-0.735694	0	
0.3180	13.6524	0.169775	0	
0.3187	4.17645	-1.96185	0	
0.3193	0.807214	-1.3582	0	
0.3200	-3.7553	-1.05638	0	
0.3207	-4.6678	-1.96185	0	
0.3213	4.49232	-1.66003	0	
0.3220	8.4582	-2.58436	0	
0.3227	4.77309	-4.71598	0	
0.3233	3.57982	-1.96185	0	
0.3240	-1.61443	-0.132048	0	
0.3247	-3.15866	-4.09347	0	
0.3253	17.3025	-3.18801	0	
0.3260	40.1852	3.52756	0	
0.3267	38.3602	4.1312	0	
0.3273	24.6376	0.773421	0	
0.3280	17.3025	-0.132048	0	
0.3287	15.7582	0.773421	0	
0.3293	14.5649	1.99958	0	
0.3300	12.4241	2.62209	0	
0.3307	16.39	1.69775	0	
0.3313	24.0058	1.69775	0	
0.3320	21.2683	2.62209	0	
0.3327	10.8798	0.773421	0	
0.3333	6.31733	-1.66003	0	
0.3340	6.31733	-0.735694	0	
0.3347	7.22983	1.39593	0	
0.3353	10.8798	2.3014	0	
0.3360	14.5649	3.22573	0	
0.3367	17.3025	4.45189	0	
0.3373	19.4433	4.1312	0	
0.3380	16.6707	1.99958	0	
0.3387	9.3707	0.773421	0	
0.3393	1.71972	1.69775	0	
0.3400	-7.40531	0.169775	0	
0.3407	-14.7404	-3.18801	0	
0.3413	-15.0563	-3.79165	0	
0.3420	-12.5996	-1.96185	0	
0.3427	-11.0904	-1.96185	0	
0.3433	-10.1779	-3.18801	0	
0.3440	-10.1779	-2.88618	0	
0.3447	-11.0904	-3.79165	0	
0.3453	-11.0904	-6.84761	0	
0.3460	-10.1779	-7.14943	0	
0.3467	-11.3712	-4.71598	0	
0.3473	-11.0904	-2.58436	0	
0.3480	-6.80867	-1.96185	0	
0.3487	-3.43943	-3.18801	0	
0.3493	-2.8428	-4.71598	0	
0.3500	-3.15866	-4.71598	0	
0.3507	-6.21204	-4.41416	0	
0.3513	-9.54618	-2.88618	0	
0.3520	-9.26541	0.169775	0	
0.3527	-7.40531	0.773421	0	
0.3533	-7.72118	-0.132048	0	
0.3540	-8.35291	0.773421	0	
0.3547	-6.49281	0.773421	0	
0.3553	-2.52693	1.69775	0	
0.3560	-1.01779	4.45189	0	
0.3567	-3.15866	4.1312	0	
0.3573	-1.93029	1.69775	0	
0.3580	5.40482	2.62209	0	
0.3587	12.7048	4.45189	0	
0.3593	17.3025	4.75371	0	
0.3600	20.9525	5.35736	0	
0.3607	21.865	4.45189	0	
0.3613	21.865	2.92391	0	
0.3620	19.7241	5.961	0	
0.3627	15.7582	9.01696	0	
0.3633	17.3025	9.01696	0	
0.3640	20.9525	11.4693	0	
0.3647	17.6183	13.6009	0	
0.3653	14.5649	11.7711	0	
0.3660	19.1275	10.2431	0	
0.3667	19.1275	10.8468	0	
0.3673	12.7048	10.5449	0	
0.3680	7.54569	9.01696	0	
0.3687	1.71972	6.58351	0	
0.3693	-6.80867	4.45189	0	
0.3700	-14.1438	1.69775	0	
0.3707	-24.2164	-5.92328	0	
0.3713	-37.6232	-13.865	0	
0.3720	-47.6958	-15.9966	0	
0.3727	-55.0309	-17.8264	0	
0.3733	-57.7684	-21.1842	0	
0.3740	-53.2059	-19.6562	0	
0.3747	-43.1333	-15.0911	0	
0.3753	-33.9732	-14.4686	0	
0.3760	-28.1823	-14.7893	0	
0.3767	-23.9005	-12.9595	0	
0.3773	-20.2505	-10.5072	0	
0.3780	-18.3904	-9.60174	0	
0.3787	-13.5121	-8.37559	0	
0.3793	-2.8428	-5.62145	0	
0.3800	3.57982	-2.26367	0	
0.3807	0.210578	-1.05638	0	
0.3813	-3.7553	-1.3582	0	
0.3820	-4.07117	-1.05638	0	
0.3827	-2.24616	-0.735694	0	
0.3833	3.26395	-0.132048	0	
0.3840	7.22983	0.773421	0	
0.3847	4.17645	1.09411	0	
0.3853	1.71972	-0.132048	0	
0.3860	3.86059	-0.132048	0	
0.3867	2.66732	0.773421	0	
0.3873	-0.701925	-0.132048	0	
0.3880	0.526444	-1.05638	0	
0.3887	0.807214	0.471598	0	
0.3893	-0.105289	0.773421	0	
0.3900	5.40482	1.39593	0	
0.3907	12.7048	3.82938	0	
0.3913	12.4241	3.22573	0	
0.3920	8.73897	-0.132048	0	
0.3927	8.4582	1.69775	0	
0.3933	9.96734	4.45189	0	
0.3940	10.5991	2.62209	0	
0.3947	9.05483	3.52756	0	
0.3953	6.00146	7.80967	0	
0.3960	3.26395	7.48898	0	
0.3967	2.66732	5.65918	0	
0.3973	2.66732	6.58351	0	
0.3980	2.66732	6.58351	0	
0.3987	1.71972	5.35736	0	
0.3993	1.71972	6.28169	0	
0.4000	5.08896	9.31878	0	
0.4007	7.22983	9.94129	0	
0.4013	6.63319	7.18716	0	
0.4020	10.5991	4.45189	0	
0.4027	14.8457	2.62209	0	
0.4033	12.1082	-0.132048	0	
0.4040	7.54569	-1.66003	0	
0.4047	3.57982	-1.3582	0	
0.4053	-1.93029	-5.62145	0	
0.4060	-6.49281	-11.4315	0	
0.4067	-10.1779	-10.809	0	
0.4073	-15.6529	-9.28106	0	
0.4080	-12.9154	-11.4315	0	
0.4087	-1.01779	-10.2054	0	
0.4093	4.49232	-5.62145	0	
0.4100	2.66732	-4.09347	0	
0.4107	3.86059	-2.26367	0	
0.4113	5.08896	-0.132048	0	
0.4120	-1.93029	-1.66003	0	
0.4127	-12.0029	-1.96185	0	
0.4133	-16.5654	-0.132048	0	
0.4140	-16.5654	-3.48983	0	
0.4147	-17.4779	-6.84761	0	
0.4153	-15.9688	-4.71598	0	
0.4160	-7.40531	-3.48983	0	
0.4167	0.807214	-3.79165	0	
0.4173	3.57982	-1.3582	0	
0.4180	4.17645	1.39593	0	
0.4187	2.66732	0.773421	0	
0.4193	-1.61443	-1.05638	0	
0.4200	-2.8428	-1.66003	0	
0.4207	1.43895	-0.433871	0	
0.4213	9.05483	2.62209	0	
0.4220	20.9525	7.18716	0	
0.4227	29.2001	8.71514	0	
0.4233	24.6376	5.65918	0	
0.4240	13.6524	2.62209	0	
0.4247	12.4241	2.3014	0	
0.4253	16.0741	3.52756	0	
0.4260	16.39	5.35736	0	
0.4267	17.3025	4.1312	0	
0.4273	16.39	0.169775	0	
0.4280	10.2832	0.169775	0	
0.4287	7.82646	2.92391	0	
0.4293	9.05483	2.3014	0	
0.4300	6.31733	1.09411	0	
0.4307	2.66732	1.69775	0	
0.4313	3.86059	0.773421	0	
0.4320	5.40482	1.09411	0	
0.4327	5.08896	2.62209	0	
0.4333	4.17645	0.773421	0	
0.4340	0.526444	-1.96185	0	
0.4347	-2.24616	-1.05638	0	
0.4353	0.526444	1.09411	0	
0.4360	3.57982	3.22573	0	
0.4367	-0.386059	4.1312	0	
0.4373	-8.94954	1.69775	0	
0.4380	-12.9154	-0.433871	0	
0.4387	-10.4587	1.69775	0	
0.4393	-11.6871	1.69775	0	
0.4400	-16.2847	-4.41416	0	
0.4407	-14.4246	-8.37559	0	
0.4413	-10.4587	-5.92328	0	
0.4420	-10.1779	-2.58436	0	
0.4427	-4.07117	-3.48983	0	
0.4433	5.40482	-4.71598	0	
0.4440	7.22983	-1.66003	0	
0.4447	6.00146	1.69775	0	
0.4453	3.86059	-0.433871	0	
0.4460	-4.6678	-2.88618	0	
0.4467	-13.5121	-1.96185	0	
0.4473	-15.6529	-1.3582	0	
0.4480	-17.7938	-0.735694	0	
0.4487	-22.6722	2.3014	0	
0.4493	-26.9539	1.69775	0	
0.4500	-30.0073	-1.05638	0	
0.4507	-27.5506	-0.433871	0	
0.4513	-22.988	0.773421	0	
0.4520	-23.9005	0.169775	0	
0.4527	-21.7597	-1.66003	0	
0.4533	-10.4587	-3.18801	0	
0.4540	1.43895	-2.26367	0	
0.4547	9.05483	-0.433871	0	
0.4553	12.7048	-1.3582	0	
0.4560	14.8457	-1.3582	0	
0.4567	20.9525	1.39593	0	
0.4573	31.341	2.62209	0	
0.4580	42.0102	3.22573	0	
0.4587	47.2045	5.35736	0	
0.4593	44.7477	6.28169	0	
0.4600	40.1852	7.18716	0	
0.4607	38.9568	10.5449	0	
0.4613	35.3068	11.4693	0	
0.4620	28.2876	9.63947	0	
0.4627	24.6376	9.63947	0	
0.4633	20.04	10.8468	0	
0.4640	10.8798	9.94129	0	
0.4647	5.68559	6.58351	0	
0.4653	5.40482	3.22573	0	
0.4660	3.86059	1.69775	0	
0.4667	-1.93029	1.69775	0	
0.4673	-8.63368	-0.132048	0	
0.4680	-11.6871	-4.41416	0	
0.4687	-11.0904	-6.54579	0	
0.4693	-11.0904	-6.24396	0	
0.4700	-10.4587	-8.67741	0	
0.4707	-10.4587	-14.4686	0	
0.4713	-14.4246	-17.5246	0	
0.4720	-20.2505	-19.3544	0	
0.4727	-26.6381	-23.014	0	
0.4733	-33.0607	-23.014	0	
0.4740	-37.0265	-18.7508	0	
0.4747	-36.114	-16.6191	0	
0.4753	-30.0073	-13.5632	0	
0.4760	-22.0755	-8.67741	0	
0.4767	-18.7063	-7.45126	0	
0.4773	-19.9347	-6.84761	0	
0.4780	-20.2505	-3.18801	0	
0.4787	-20.2505	-3.79165	0	
0.4793	-18.3904	-6.54579	0	
0.4800	-10.1779	-4.71598	0	
0.4807	-4.35194	-1.96185	0	
0.4813	-6.49281	-0.433871	0	
0.4820	-10.1779	1.39593	0	
0.4827	-8.35291	0.773421	0	
0.4833	-3.7553	-1.05638	0	
0.4840	0.210578	0.471598	0	
0.4847	2.66732	2.62209	0	
0.4853	4.77309	3.82938	0	
0.4860	6.91396	5.05554	0	
0.4867	5.40482	4.45189	0	
0.4873	0.807214	3.52756	0	
0.4880	-4.07117	5.05554	0	
0.4887	-9.26541	5.961	0	
0.4893	-12.5996	4.45189	0	
0.4900	-12.5996	2.62209	0	
0.4907	-14.7404	0.773421	0	
0.4913	-21.163	-1.96185	0	
0.4920	-21.4438	-1.66003	0	
0.4927	-13.8279	0.169775	0	
0.4933	-10.1779	-0.132048	0	
0.4940	-6.49281	-1.05638	0	
0.4947	7.22983	0.773421	0	
0.4953	17.3025	1.09411	0	
0.4960	12.7048	-1.3582	0	
0.4967	9.05483	-1.66003	0	
0.4973	9.65147	-0.132048	0	
0.4980	2.94809	-0.433871	0	
0.4987	-4.07117	-0.433871	0	
0.4993	0.807214	1.09411	0	
0.5000	7.22983	2.3014	0	
0.5007	8.14233	4.1312	0	
0.5013	9.05483	6.28169	0	
0.5020	9.05483	5.65918	0	
0.5027	4.49232	3.52756	0	
0.5033	2.35145	1.09411	0	
0.5040	2.94809	-0.132048	0	
0.5047	5.40482	1.09411	0	
0.5053	7.82646	2.92391	0	
0.5060	7.54569	3.82938	0	
0.5067	8.73897	5.35736	0	
0.5073	13.6524	5.35736	0	
0.5080	15.4774	2.3014	0	
0.5087	12.7048	-0.735694	0	
0.5093	11.7923	0.169775	0	
0.5100	10.8798	2.92391	0	
0.5107	10.8798	3.22573	0	
0.5113	18.215	3.52756	0	
0.5120	29.7967	8.71514	0	
0.5127	34.3943	11.7711	0	
0.5133	27.6909	7.48898	0	
0.5140	18.215	3.52756	0	
0.5147	16.6707	2.92391	0	
0.5153	19.1275	0.471598	0	
0.5160	13.3366	-1.96185	0	
0.5167	1.71972	-1.96185	0	
0.5173	-5.89617	-2.58436	0	
0.5180	-10.1779	-3.79165	0	
0.5187	-13.5121	-4.71598	0	
0.5193	-13.5121	-3.79165	0	
0.5200	-12.3188	-1.05638	0	
0.5207	-12.5996	-0.132048	0	
0.5213	-13.8279	-0.132048	0	
0.5220	-15.3722	0.773421	0	
0.5227	-15.3722	-0.735694	0	
0.5233	-15.3722	-2.88618	0	
0.5240	-17.1972	-1.05638	0	
0.5247	-18.7063	0.471598	0	
0.5253	-18.3904	-2.88618	0	
0.5260	-18.3904	-4.71598	0	
0.5267	-19.0222	-3.79165	0	
0.5273	-18.3904	-3.79165	0	
0.5280	-15.9688	-4.09347	0	
0.5287	-12.0029	-5.62145	0	
0.5293	-9.86205	-6.24396	0	
0.5300	-7.72118	-4.09347	0	
0.5307	2.35145	-3.79165	0	
0.5313	16.6707	-5.01781	0	
0.5320	21.5842	-2.88618	0	
0.5327	16.39	-1.3582	0	
0.5333	10.2832	-3.79165	0	
0.5340	8.14233	-4.09347	0	
0.5347	5.68559	-0.132048	0	
0.5353	1.71972	1.09411	0	
0.5360	-4.35194	-1.3582	0	
0.5367	-10.1779	-1.96185	0	
0.5373	-15.9688	1.09411	0	
0.5380	-22.0755	2.62209	0	
0.5387	-25.7256	2.92391	0	
0.5393	-25.7256	3.52756	0	
0.5400	-27.5506	2.62209	0	
0.5407	-27.5506	2.62209	0	
0.5413	-21.163	4.1312	0	
0.5420	-13.8279	3.82938	0	
0.5427	-12.0029	1.99958	0	
0.5433	-6.49281	2.62209	0	
0.5440	6.31733	1.69775	0	
0.5447	15.7582	-1.05638	0	
0.5453	16.0741	-0.735694	0	
0.5460	9.65147	-1.96185	0	
0.5467	-1.01779	-7.45126	0	
0.5473	-8.03704	-9.28106	0	
0.5480	-4.6678	-7.14943	0	
0.5487	0.526444	-5.92328	0	
0.5493	1.71972	-4.71598	0	
0.5500	6.31733	-1.96185	0	
0.5507	14.5649	1.09411	0	
0.5513	22.7775	5.65918	0	
0.5520	28.8842	9.01696	0	
0.5527	31.9376	7.80967	0	
0.5533	33.166	6.58351	0	
0.5540	34.3943	9.01696	0	
0.5547	31.0251	9.94129	0	
0.5553	20.3558	7.18716	0	
0.5560	12.4241	3.82938	0	
0.5567	11.1957	1.69775	0	
0.5573	10.8798	1.39593	0	
0.5580	11.5116	1.69775	0	
0.5587	14.8457	1.09411	0	
0.5593	15.1616	-1.96185	0	
0.5600	11.1957	-3.18801	0	
0.5607	9.96734	-1.96185	0	
0.5613	9.05483	-3.18801	0	
0.5620	3.57982	-7.14943	0	
0.5627	-3.15866	-5.62145	0	
0.5633	-5.89617	-2.88618	0	
0.5640	-8.03704	-4.71598	0	
0.5647	-10.1779	-6.24396	0	
0.5653	-12.9154	-2.26367	0	
0.5660	-15.9688	-1.05638	0	
0.5667	-15.3722	-3.79165	0	
0.5673	-13.2313	-4.41416	0	
0.5680	-15.0563	-1.96185	0	
0.5687	-14.7404	-1.96185	0	
0.5693	-7.40531	-3.48983	0	
0.5700	-1.01779	-1.05638	0	
0.5707	1.71972	2.62209	0	
0.5713	8.4582	2.62209	0	
0.5720	15.1616	0.773421	0	
0.5727	12.7048	3.52756	0	
0.5733	6.63319	6.28169	0	
0.5740	6.91396	5.35736	0	
0.5747	7.82646	6.28169	0	
0.5753	1.71972	9.01696	0	
0.5760	-4.07117	6.58351	0	
0.5767	-4.6678	1.69775	0	
0.5773	-4.6678	1.99958	0	
0.5780	-5.5803	4.45189	0	
0.5787	-6.49281	3.22573	0	
0.5793	-6.49281	0.773421	0	
0.5800	-6.21204	0.773421	0	
0.5807	-5.89617	-1.05638	0	
0.5813	-8.35291	-4.41416	0	
0.5820	-9.54618	-7.45126	0	
0.5827	-11.0904	-11.4315	0	
0.5833	-22.0755	-15.0911	0	
0.5840	-37.9391	-15.9966	0	
0.5847	-44.9583	-15.6948	0	
0.5853	-43.1333	-14.7893	0	
0.5860	-39.4482	-11.1109	0	
0.5867	-32.4289	-7.77194	0	
0.5873	-24.4972	-7.14943	0	
0.5880	-20.2505	-7.45126	0	
0.5887	-17.4779	-8.37559	0	
0.5893	-11.3712	-5.62145	0	
0.5900	-2.52693	-2.58436	0	
0.5907	6.31733	-3.79165	0	
0.5913	8.14233	-4.71598	0	
0.5920	1.12308	-0.433871	0	
0.5927	-5.29953	-0.433871	0	
0.5933	-4.6678	-3.79165	0	
0.5940	-2.8428	-2.88618	0	
0.5947	-4.35194	-2.88618	0	
0.5953	-5.89617	-3.79165	0	
0.5960	-8.03704	-1.3582	0	
0.5967	-12.5996	-0.433871	0	
0.5973	-15.3722	-2.88618	0	
0.5980	-9.26541	-0.735694	0	
0.5987	2.66732	1.69775	0	
0.5993	9.05483	1.09411	0	
0.6000	9.96734	3.22573	0	
0.6007	6.91396	5.05554	0	
0.6013	2.94809	2.3014	0	
0.6020	6.00146	1.69775	0	
0.6027	16.39	5.05554	0	
0.6033	24.6376	5.961	0	
0.6040	24.9183	3.82938	0	
0.6047	19.7241	1.69775	0	
0.6053	11.1957	0.773421	0	
0.6060	6.91396	1.09411	0	
0.6067	10.8798	2.62209	0	
0.6073	15.4774	4.45189	0	
0.6080	13.6524	5.05554	0	
0.6087	10.8798	3.52756	0	
0.6093	11.7923	2.62209	0	
0.6100	13.6524	3.52756	0	
0.6107	14.2491	4.45189	0	
0.6113	13.6524	4.45189	0	
0.6120	14.5649	4.1312	0	
0.6127	15.1616	4.45189	0	
0.6133	13.3366	6.28169	0	
0.6140	9.96734	4.45189	0	
0.6147	7.82646	-0.132048	0	
0.6153	3.86059	0.773421	0	
0.6160	-0.701925	6.28169	0	
0.6167	-2.24616	4.45189	0	
0.6173	-2.24616	0.773421	0	
0.6180	-1.61443	3.52756	0	
0.6187	1.71972	5.35736	0	
0.6193	1.71972	4.1312	0	
0.6200	-2.52693	2.62209	0	
0.6207	-1.93029	-0.735694	0	
0.6213	-0.105289	-1.05638	0	
0.6220	-4.07117	2.62209	0	
0.6227	-6.21204	0.773421	0	
0.6233	-1.61443	-2.88618	0	
0.6240	-0.105289	-0.132048	0	
0.6247	-1.93029	1.69775	0	
0.6253	0.210578	1.09411	0	
0.6260	3.57982	3.22573	0	
0.6267	5.40482	2.62209	0	
0.6273	6.91396	-0.735694	0	
0.6280	6.63319	-1.05638	0	
0.6287	4.77309	-0.132048	0	
0.6293	1.71972	-0.132048	0	
0.6300	-1.33366	0.471598	0	
0.6307	-0.105289	-1.66003	0	
0.6313	2.03558	-4.71598	0	
0.6320	-1.61443	-4.09347	0	
0.6327	-5.5803	-2.88618	0	
0.6333	-4.98367	-3.79165	0	
0.6340	-5.5803	-3.79165	0	
0.6347	-9.86205	-3.18801	0	
0.6353	-13.5121	-1.3582	0	
0.6360	-13.8279	1.09411	0	
0.6367	-10.7746	1.09411	0	
0.6373	-7.72118	-0.132048	0	
0.6380	-6.21204	0.169775	0	
0.6387	-2.8428	-0.132048	0	
0.6393	2.35145	-0.735694	0	
0.6400	3.86059	1.09411	0	
0.6407	2.94809	3.22573	0	
0.6413	5.08896	3.52756	0	
0.6420	11.5116	4.1312	0	
0.6427	22.1808	3.82938	0	
0.6433	30.7092	2.3014	0	
0.6440	29.7967	3.52756	0	
0.6447	23.69	4.45189	0	
0.6453	18.8116	0.773421	0	
0.6460	9.96734	-0.132048	0	
0.6467	-4.6678	1.99958	0	
0.6473	-16.2847	-1.66003	0	
0.6480	-19.338	-6.84761	0	
0.6487	-20.5313	-7.14943	0	
0.6493	-22.6722	-8.67741	0	
0.6500	-22.6722	-11.1109	0	
0.6507	-22.0755	-8.97923	0	
0.6513	-22.988	-7.14943	0	
0.6520	-22.988	-9.60174	0	
0.6527	-19.9347	-10.2054	0	
0.6533	-15.6529	-7.45126	0	
0.6540	-11.3712	-5.01781	0	
0.6547	-5.89617	-3.79165	0	
0.6553	2.66732	-3.79165	0	
0.6560	10.8798	-5.62145	0	
0.6567	11.1957	-3.79165	0	
0.6573	6.31733	1.39593	0	
0.6580	9.3707	4.75371	0	
0.6587	16.9866	4.75371	0	
0.6593	15.4774	3.52756	0	
0.6600	12.7048	1.99958	0	
0.6607	16.0741	0.773421	0	
0.6613	17.3025	0.773421	0	
0.6620	12.1082	0.169775	0	
0.6627	5.40482	-1.96185	0	
0.6633	-1.33366	-1.96185	0	
0.6640	-6.49281	-0.433871	0	
0.6647	-9.26541	-2.26367	0	
0.6653	-7.72118	-5.62145	0	
0.6660	-0.701925	-5.31963	0	
0.6667	1.43895	-4.71598	0	
0.6673	-7.72118	-7.45126	0	
0.6680	-16.2847	-8.07376	0	
0.6687	-17.4779	-5.62145	0	
0.6693	-15.0563	-3.18801	0	
0.6700	-10.1779	-1.05638	0	
0.6707	-5.5803	-0.132048	0	
0.6713	-4.6678	-1.96185	0	
0.6720	1.71972	-1.3582	0	
0.6727	11.1957	1.39593	0	
0.6733	13.6524	2.3014	0	
0.6740	14.5649	1.99958	0	
0.6747	18.5308	1.99958	0	
0.6753	15.4774	0.773421	0	
0.6760	8.14233	1.09411	0	
0.6767	4.49232	1.69775	0	
0.6773	-1.33366	-1.3582	0	
0.6780	-9.26541	-3.18801	0	
0.6787	-10.1779	-0.132048	0	
0.6793	-9.26541	1.09411	0	
0.6800	-9.86205	-1.3582	0	
0.6807	-5.5803	-1.66003	0	
0.6813	-0.701925	0.773421	0	
0.6820	-1.33366	1.99958	0	
0.6827	0.807214	2.3014	0	
0.6833	3.57982	1.69775	0	
0.6840	-0.386059	1.69775	0	
0.6847	-1.01779	4.45189	0	
0.6853	8.73897	6.28169	0	
0.6860	13.6524	2.92391	0	
0.6867	5.68559	1.39593	0	
0.6873	-5.89617	3.52756	0	
0.6880	-12.3188	5.35736	0	
0.6887	-10.7746	4.45189	0	
0.6893	-7.40531	3.22573	0	
0.6900	-6.21204	-0.132048	0	
0.6907	-1.93029	-2.88618	0	
0.6913	4.17645	-1.05638	0	
0.6920	6.00146	1.69775	0	
0.6927	5.40482	-0.132048	0	
0.6933	5.68559	-2.88618	0	
0.6940	3.57982	-2.26367	0	
0.6947	-1.01779	-0.433871	0	
0.6953	-5.5803	-1.3582	0	
0.6960	-9.26541	-3.48983	0	
0.6967	-11.0904	-4.71598	0	
0.6973	-9.86205	-3.79165	0	
0.6980	-8.35291	-1.66003	0	
0.6987	-6.80867	-1.05638	0	
0.6993	-5.5803	-1.05638	0	
0.7000	-3.43943	1.69775	0	
0.7007	2.66732	5.35736	0	
0.7013	10.8798	5.961	0	
0.7020	11.7923	3.52756	0	
0.7027	4.77309	1.39593	0	
0.7033	2.03558	0.773421	0	
0.7040	4.77309	0.169775	0	
0.7047	4.17645	-1.96185	0	
0.7053	0.526444	-2.58436	0	
0.7060	-1.33366	-2.26367	0	
0.7067	-3.43943	-3.18801	0	
0.7073	-6.80867	-2.26367	0	
0.7080	-8.35291	0.169775	0	
0.7087	-6.49281	-0.132048	0	
0.7093	-6.49281	-0.735694	0	
0.7100	-11.6871	0.773421	0	
0.7107	-15.9688	0.471598	0	
0.7113	-13.5121	-1.3582	0	
0.7120	-11.3712	0.169775	0	
0.7127	-9.26541	3.52756	0	
0.7133	2.66732	4.75371	0	
0.7140	13.6524	5.35736	0	
0.7147	9.3707	5.05554	0	
0.7153	2.66732	3.52756	0	
0.7160	8.14233	1.69775	0	
0.7167	15.7582	1.39593	0	
0.7173	12.7048	3.22573	0	
0.7180	3.57982	2.92391	0	
0.7187	-2.24616	-0.735694	0	
0.7193	0.210578	-2.26367	0	
0.7200	6.31733	-0.735694	0	
0.7207	8.4582	-3.18801	0	
0.7213	7.22983	-8.37559	0	
0.7220	5.68559	-7.14943	0	
0.7227	3.57982	-3.79165	0	
0.7233	0.807214	-6.54579	0	
0.7240	-2.24616	-8.37559	0	
0.7247	-4.6678	-5.92328	0	
0.7253	-6.80867	-5.92328	0	
0.7260	-7.12454	-6.24396	0	
0.7267	-4.35194	-2.88618	0	
0.7273	-1.93029	-3.18801	0	
0.7280	-4.35194	-4.09347	0	
0.7287	-7.72118	-0.132048	0	
0.7293	-8.35291	1.39593	0	
0.7300	-6.49281	-1.66003	0	
0.7307	-4.35194	-1.66003	0	
0.7313	-3.7553	0.773421	0	
0.7320	-5.29953	-0.132048	0	
0.7327	-3.7553	-0.433871	0	
0.7333	0.210578	0.471598	0	
0.7340	-0.105289	1.39593	0	
0.7347	-2.24616	2.62209	0	
0.7353	-0.105289	2.62209	0	
0.7360	3.57982	2.3014	0	
0.7367	4.49232	2.62209	0	
0.7373	6.63319	2.92391	0	
0.7380	8.73897	5.05554	0	
0.7387	7.82646	6.88534	0	
0.7393	6.63319	6.58351	0	
0.7400	6.31733	8.11149	0	
0.7407	6.63319	9.94129	0	
0.7413	9.3707	9.01696	0	
0.7420	11.5116	8.41332	0	
0.7427	11.1957	9.94129	0	
0.7433	12.1082	9.31878	0	
0.7440	13.3366	8.41332	0	
0.7447	12.4241	7.48898	0	
0.7453	10.5991	5.35736	0	
0.7460	6.31733	4.45189	0	
0.7467	1.12308	4.45189	0	
0.7473	-2.52693	1.09411	0	
0.7480	-6.49281	-1.05638	0	
0.7487	-8.94954	-1.3582	0	
0.7493	-8.35291	-4.09347	0	
0.7500	-10.1779	-3.79165	0	
0.7507	-14.7404	-1.05638	0	
0.7513	-16.8813	-5.01781	0	
0.7520	-19.338	-11.1109	0	
0.7527	-21.4438	-10.2054	0	
0.7533	-17.4779	-8.37559	0	
0.7540	-9.26541	-8.37559	0	
0.7547	-3.7553	-6.84761	0	
0.7553	-3.7553	-6.84761	0	
0.7560	-9.26541	-9.60174	0	
0.7567	-12.5996	-12.0352	0	
0.7573	-12.3188	-12.337	0	
0.7580	-13.2313	-11.4315	0	
0.7587	-13.8279	-7.45126	0	
0.7593	-12.0029	-4.71598	0	
0.7600	-10.4587	-3.79165	0	
0.7607	-9.54618	-2.58436	0	
0.7613	-8.03704	-1.96185	0	
0.7620	-8.63368	-2.88618	0	
0.7627	-4.6678	-2.26367	0	
0.7633	9.05483	0.169775	0	
0.7640	20.6717	0.773421	0	
0.7647	19.4433	0.169775	0	
0.7653	10.2832	0.773421	0	
0.7660	1.12308	-0.132048	0	
0.7667	-5.29953	-2.58436	0	
0.7673	-9.54618	-1.3582	0	
0.7680	-11.0904	1.99958	0	
0.7687	-6.80867	1.39593	0	
0.7693	-2.24616	-0.132048	0	
0.7700	-3.43943	1.09411	0	
0.7707	-1.93029	0.773421	0	
0.7713	6.91396	-0.433871	0	
0.7720	12.4241	1.69775	0	
0.7727	14.8457	1.69775	0	
0.7733	20.04	-1.05638	0	
0.7740	20.6717	1.69775	0	
0.7747	14.5649	4.45189	0	
0.7753	10.5991	2.62209	0	
0.7760	9.05483	2.3014	0	
0.7767	7.22983	3.22573	0	
0.7773	6.91396	3.82938	0	
0.7780	6.00146	5.961	0	
0.7787	1.71972	6.28169	0	
0.7793	-0.105289	4.75371	0	
0.7800	1.71972	5.65918	0	
0.7807	4.49232	5.05554	0	
0.7813	8.14233	1.69775	0	
0.7820	10.8798	1.69775	0	
0.7827	10.5991	4.75371	0	
0.7833	12.7048	5.65918	0	
0.7840	17.3025	6.28169	0	
0.7847	16.6707	6.28169	0	
0.7853	8.73897	4.75371	0	
0.7860	-1.93029	3.52756	0	
0.7867	-8.63368	3.52756	0	
0.7873	-10.1779	2.62209	0	
0.7880	-10.7746	1.69775	0	
0.7887	-11.6871	-0.735694	0	
0.7893	-8.35291	-1.96185	0	
0.7900	-1.61443	-0.132048	0	
0.7907	2.35145	1.09411	0	
0.7913	-1.93029	-1.96185	0	
0.7920	-7.72118	-5.92328	0	
0.7927	-2.52693	-5.62145	0	
0.7933	8.4582	-1.96185	0	
0.7940	8.4582	-2.26367	0	
0.7947	-3.43943	-5.62145	0	
0.7953	-15.0563	-4.41416	0	
0.7960	-19.9347	-1.3582	0	
0.7967	-22.0755	-1.3582	0	
0.7973	-29.4107	-3.18801	0	
0.7980	-36.114	-6.54579	0	
0.7987	-31.5164	-9.28106	0	
0.7993	-22.0755	-7.45126	0	
0.8000	-20.2505	-5.31963	0	
0.8007	-18.3904	-6.24396	0	
0.8013	-2.8428	-5.01781	0	
0.8020	18.215	-2.58436	0	
0.8027	28.2876	-2.58436	0	
0.8033	24.0058	-1.05638	0	
0.8040	18.215	2.62209	0	
0.8047	20.04	2.3014	0	
0.8053	26.4626	0.773421	0	
0.8060	32.2535	2.62209	0	
0.8067	34.7102	4.45189	0	
0.8073	29.7967	5.65918	0	
0.8080	18.215	6.28169	0	
0.8087	2.66732	3.52756	0	
0.8093	-9.54618	0.773421	0	
0.8100	-9.86205	1.69775	0	
0.8107	-2.8428	3.82938	0	
0.8113	1.71972	5.05554	0	
0.8120	7.82646	5.65918	0	
0.8127	16.39	4.45189	0	
0.8133	19.1275	0.773421	0	
0.8140	15.7582	-0.735694	0	
0.8147	11.5116	0.773421	0	
0.8153	8.14233	-0.132048	0	
0.8160	6.63319	-3.18801	0	
0.8167	3.57982	-5.31963	0	
0.8173	-6.49281	-4.41416	0	
0.8180	-13.8279	-2.88618	0	
0.8187	-13.2313	-3.79165	0	
0.8193	-14.4246	-5.92328	0	
0.8200	-15.9688	-6.24396	0	
0.8207	-10.7746	-4.09347	0	
0.8213	-3.15866	-2.58436	0	
0.8220	1.71972	-2.88618	0	
0.8227	3.57982	-3.79165	0	
0.8233	3.57982	-2.88618	0	
0.8240	6.91396	-2.58436	0	
0.8247	11.1957	-3.79165	0	
0.8253	10.2832	-4.71598	0	
0.8260	6.00146	-5.31963	0	
0.8267	2.35145	-4.41416	0	
0.8273	-2.8428	-1.96185	0	
0.8280	-7.40531	-2.26367	0	
0.8287	-10.4587	-5.62145	0	
0.8293	-18.1097	-5.01781	0	
0.8300	-23.9005	-1.96185	0	
0.8307	-18.1097	-2.88618	0	
0.8313	-8.35291	-3.79165	0	
0.8320	-4.07117	-1.05638	0	
0.8327	-0.105289	0.773421	0	
0.8333	3.57982	0.773421	0	
0.8340	2.66732	2.3014	0	
0.8347	0.807214	3.82938	0	
0.8353	-0.105289	1.69775	0	
0.8360	-1.61443	-0.132048	0	
0.8367	-3.15866	0.773421	0	
0.8373	-3.15866	1.39593	0	
0.8380	-1.33366	1.09411	0	
0.8387	-1.01779	1.99958	0	
0.8393	-8.35291	2.62209	0	
0.8400	-18.3904	0.773421	0	
0.8407	-22.988	-0.132048	0	
0.8413	-26.3573	1.39593	0	
0.8420	-29.4107	2.62209	0	
0.8427	-26.9539	1.39593	0	
0.8433	-24.8131	-0.735694	0	
0.8440	-22.3914	-1.66003	0	
0.8447	-13.8279	0.169775	0	
0.8453	-5.5803	1.99958	0	
0.8460	9.05483	1.39593	0	
0.8467	39.2727	3.22573	0	
0.8473	59.418	6.88534	0	
0.8480	46.8886	4.75371	0	
0.8487	25.5501	-1.96185	0	
0.8493	14.2491	-5.31963	0	
0.8500	5.40482	-8.07376	0	
0.8507	-1.61443	-9.60174	0	
0.8513	-1.01779	-5.62145	0	
0.8520	2.35145	-2.58436	0	
0.8527	4.49232	-5.01781	0	
0.8533	3.57982	-4.71598	0	
0.8540	0.807214	-0.433871	0	
0.8547	1.71972	0.471598	0	
0.8553	2.66732	0.773421	0	
0.8560	0.807214	2.62209	0	
0.8567	0.807214	1.99958	0	
0.8573	2.66732	-1.66003	0	
0.8580	1.71972	-1.96185	0	
0.8587	0.807214	1.69775	0	
0.8593	2.66732	3.22573	0	
0.8600	3.86059	1.09411	0	
0.8607	2.66732	0.471598	0	
0.8613	-0.105289	2.3014	0	
0.8620	-1.93029	1.09411	0	
0.8627	-0.105289	-0.735694	0	
0.8633	-0.105289	0.773421	0	
0.8640	-5.29953	1.09411	0	
0.8647	-11.0904	-1.05638	0	
0.8653	-11.6871	-1.05638	0	
0.8660	-11.0904	-1.05638	0	
0.8667	-13.2313	-3.18801	0	
0.8673	-15.3722	-4.71598	0	
0.8680	-15.6529	-5.31963	0	
0.8687	-15.3722	-6.54579	0	
0.8693	-17.4779	-6.24396	0	
0.8700	-22.0755	-5.31963	0	
0.8707	-25.7256	-5.62145	0	
0.8713	-25.7256	-4.09347	0	
0.8720	-27.5506	-0.735694	0	
0.8727	-31.2357	2.62209	0	
0.8733	-27.2698	2.62209	0	
0.8740	-18.3904	1.09411	0	
0.8747	-19.338	-0.132048	0	
0.8753	-22.3914	-0.433871	0	
0.8760	-10.7746	-1.05638	0	
0.8767	8.14233	1.69775	0	
0.8773	19.4433	7.18716	0	
0.8780	25.5501	9.01696	0	
0.8787	28.8842	6.88534	0	
0.8793	27.3751	5.35736	0	
0.8800	22.7775	6.28169	0	
0.8807	18.5308	6.88534	0	
0.8813	17.6183	4.45189	0	
0.8820	20.9525	1.99958	0	
0.8827	24.6376	2.92391	0	
0.8833	29.2001	6.28169	0	
0.8840	35.3068	5.35736	0	
0.8847	34.0785	0.471598	0	
0.8853	23.4092	-1.3582	0	
0.8860	14.5649	1.39593	0	
0.8867	9.05483	0.471598	0	
0.8873	3.57982	-5.31963	0	
0.8880	0.526444	-8.37559	0	
0.8887	0.807214	-5.92328	0	
0.8893	-1.01779	-3.79165	0	
0.8900	-3.15866	-4.41416	0	
0.8907	-4.6678	-5.62145	0	
0.8913	-7.40531	-5.92328	0	
0.8920	-8.35291	-6.54579	0	
0.8927	-5.29953	-5.01781	0	
0.8933	-2.8428	-0.433871	0	
0.8940	-2.24616	2.62209	0	
0.8947	-2.24616	1.09411	0	
0.8953	-3.7553	-0.132048	0	
0.8960	-5.5803	1.09411	0	
0.8967	-6.49281	2.62209	0	
0.8973	-5.5803	1.69775	0	
0.8980	-2.8428	1.09411	0	
0.8987	-0.701925	1.69775	0	
0.8993	-1.93029	1.99958	0	
0.9000	-5.5803	-0.132048	0	
0.9007	-7.72118	-1.05638	0	
0.9013	-0.105289	1.69775	0	
0.9020	13.3366	3.52756	0	
0.9027	16.9866	3.52756	0	
0.9033	8.14233	2.62209	0	
0.9040	3.57982	1.39593	0	
0.9047	3.57982	0.773421	0	
0.9053	-1.01779	1.69775	0	
0.9060	-4.6678	0.169775	0	
0.9067	-4.35194	-3.48983	0	
0.9073	-4.35194	-2.88618	0	
0.9080	-4.35194	-0.735694	0	
0.9087	-4.07117	-1.05638	0	
0.9093	-6.49281	-1.05638	0	
0.9100	-6.49281	-1.3582	0	
0.9107	-3.7553	-2.88618	0	
0.9113	-4.07117	-2.58436	0	
0.9120	-4.6678	-1.05638	0	
0.9127	-2.52693	-0.735694	0	
0.9133	-3.43943	0.169775	0	
0.9140	-6.49281	1.39593	0	
0.9147	-6.49281	1.39593	0	
0.9153	-7.40531	2.62209	0	
0.9160	-11.3712	2.62209	0	
0.9167	-12.9154	-0.735694	0	
0.9173	-12.9154	-0.735694	0	
0.9180	-15.0563	1.69775	0	
0.9187	-13.8279	-0.132048	0	
0.9193	-4.07117	-1.3582	0	
0.9200	6.00146	-2.26367	0	
0.9207	10.5991	-5.31963	0	
0.9213	14.2491	-5.31963	0	
0.9220	16.6707	-1.96185	0	
0.9227	9.3707	-3.18801	0	
0.9233	-3.7553	-3.79165	0	
0.9240	-9.26541	0.471598	0	
0.9247	-6.49281	0.773421	0	
0.9253	-4.07117	-1.3582	0	
0.9260	-4.6678	0.471598	0	
0.9267	-6.49281	-0.132048	0	
0.9273	-8.63368	-4.71598	0	
0.9280	-9.26541	-4.09347	0	
0.9287	-7.40531	-0.433871	0	
0.9293	-6.80867	-0.433871	0	
0.9300	-6.49281	-1.05638	0	
0.9307	-0.105289	0.773421	0	
0.9313	9.05483	1.99958	0	
0.9320	15.4774	3.82938	0	
0.9327	19.7241	4.45189	0	
0.9333	21.5842	3.52756	0	
0.9340	17.3025	3.82938	0	
0.9347	12.1082	4.75371	0	
0.9353	13.3366	2.62209	0	
0.9360	11.7923	-0.735694	0	
0.9367	1.12308	-1.66003	0	
0.9373	-4.6678	0.169775	0	
0.9380	-1.01779	1.39593	0	
0.9387	-1.93029	0.773421	0	
0.9393	-7.12454	0.773421	0	
0.9400	-8.35291	1.39593	0	
0.9407	-10.7746	-1.05638	0	
0.9413	-16.2847	-4.71598	0	
0.9420	-15.6529	-4.09347	0	
0.9427	-12.0029	-2.26367	0	
0.9433	-12.0029	-2.88618	0	
0.9440	-9.26541	-1.96185	0	
0.9447	-6.49281	-0.132048	0	
0.9453	-6.80867	0.169775	0	
0.9460	-1.01779	-0.132048	0	
0.9467	7.22983	-1.05638	0	
0.9473	2.66732	-2.88618	0	
0.9480	-11.0904	-3.18801	0	
0.9487	-18.3904	-3.48983	0	
0.9493	-20.2505	-5.62145	0	
0.9500	-20.2505	-5.01781	0	
0.9507	-13.8279	-1.05638	0	
0.9513	-2.8428	-0.433871	0	
0.9520	2.94809	-3.18801	0	
0.9527	2.66732	-3.48983	0	
0.9533	5.40482	-2.58436	0	
0.9540	10.5991	-1.66003	0	
0.9547	16.0741	0.773421	0	
0.9553	25.2342	3.52756	0	
0.9560	32.8501	3.82938	0	
0.9567	25.8308	1.69775	0	
0.9573	9.96734	-0.132048	0	
0.9580	2.66732	0.169775	0	
0.9587	2.94809	0.169775	0	
0.9593	3.86059	0.773421	0	
0.9600	4.49232	3.82938	0	
0.9607	4.49232	3.22573	0	
0.9613	2.35145	-2.26367	0	
0.9620	-0.105289	-3.48983	0	
0.9627	-4.35194	-0.132048	0	
0.9633	-8.35291	-0.132048	0	
0.9640	-4.98367	0.773421	0	
0.9647	1.12308	3.82938	0	
0.9653	1.71972	2.62209	0	
0.9660	0.807214	-1.3582	0	
0.9667	-0.105289	-2.26367	0	
0.9673	-2.52693	-2.26367	0	
0.9680	-5.29953	-3.18801	0	
0.9687	-7.12454	-3.79165	0	
0.9693	-8.03704	-3.18801	0	
0.9700	-5.5803	-0.132048	0	
0.9707	-3.7553	1.69775	0	
0.9713	-6.49281	-2.88618	0	
0.9720	-8.63368	-7.45126	0	
0.9727	-6.49281	-3.48983	0	
0.9733	-2.8428	-0.132048	0	
0.9740	-1.33366	-2.26367	0	
0.9747	-2.8428	-1.96185	0	
0.9753	-3.15866	-1.05638	0	
0.9760	2.66732	-2.26367	0	
0.9767	6.63319	0.169775	0	
0.9773	4.49232	3.82938	0	
0.9780	6.91396	2.62209	0	
0.9787	13.6524	1.69775	0	
0.9793	13.0207	3.52756	0	
0.9800	9.05483	1.69775	0	
0.9807	8.73897	0.471598	0	
0.9813	6.63319	1.99958	0	
0.9820	3.57982	1.09411	0	
0.9827	5.40482	0.169775	0	
0.9833	7.82646	3.22573	0	
0.9840	7.54569	5.65918	0	
0.9847	9.96734	7.80967	0	
0.9853	10.8798	9.31878	0	
0.9860	2.66732	5.35736	0	
0.9867	-9.86205	-2.88618	0	
0.9873	-19.338	-6.54579	0	
0.9880	-28.1823	-6.84761	0	
0.9887	-32.1482	-9.90357	0	
0.9893	-28.4631	-12.0352	0	
0.9900	-24.2164	-8.37559	0	
0.9907	-17.4779	-2.88618	0	
0.9913	-6.49281	-1.96185	0	
0.9920	-1.33366	-5.01781	0	
0.9927	-3.7553	-7.14943	0	
0.9933	-1.01779	-7.45126	0	
0.9940	5.08896	-6.84761	0	
0.9947	6.31733	-5.92328	0	
0.9953	6.31733	-3.79165	0	
0.9960	6.63319	-2.26367	0	
0.9967	0.210578	-0.735694	0	
0.9973	-8.03704	0.773421	0	
0.9980	-10.1779	-0.132048	0	
0.9987	-8.35291	-2.88618	0	
0.9993	-3.7553	-2.26367	0	
1.0000	1.12308	-0.132048	0	
1.0007	2.03558	-1.05638	0	
1.0013	3.26395	-2.58436	0	
1.0020	5.40482	0.169775	0	
1.0027	4.49232	2.62209	0	
1.0033	8.4582	3.22573	0	
1.0040	18.215	2.92391	0	
1.0047	18.5308	2.3014	0	
1.0053	9.96734	1.39593	0	
1.0060	4.77309	-0.433871	0	
1.0067	-0.701925	-2.88618	0	
1.0073	-7.72118	-1.96185	0	
1.0080	-11.3712	0.169775	0	
1.0087	-14.7404	-0.132048	0	
1.0093	-15.6529	-0.735694	0	
1.0100	-11.3712	0.169775	0	
1.0107	-10.1779	0.169775	0	
1.0113	-11.0904	0.471598	0	
1.0120	-8.35291	0.471598	0	
1.0127	-5.29953	0.169775	0	
1.0133	-0.105289	2.62209	0	
1.0140	12.4241	4.1312	0	
1.0147	20.3558	1.99958	0	
1.0153	19.1275	3.52756	0	
1.0160	20.9525	7.80967	0	
1.0167	22.1808	6.28169	0	
1.0173	14.5649	2.62209	0	
1.0180	9.05483	2.62209	0	
1.0187	11.7923	4.1312	0	
1.0193	10.5991	6.58351	0	
1.0200	3.26395	8.11149	0	
1.0207	-0.105289	5.35736	0	
1.0213	0.807214	3.22573	0	
1.0220	0.526444	5.35736	0	
1.0227	-1.01779	7.80967	0	
1.0233	-1.01779	8.11149	0	
1.0240	-2.52693	7.80967	0	
1.0247	-4.6678	6.88534	0	
1.0253	-6.80867	5.35736	0	
1.0260	-9.54618	5.35736	0	
1.0267	-7.12454	5.35736	0	
1.0273	4.49232	4.1312	0	
1.0280	15.7582	1.99958	0	
1.0287	16.9866	1.09411	0	
1.0293	11.7923	-1.3582	0	
1.0300	5.40482	-7.14943	0	
1.0307	-1.93029	-11.7334	0	
1.0313	-7.12454	-13.2613	0	
1.0320	-8.63368	-13.2613	0	
1.0327	-6.49281	-9.90357	0	
1.0333	-2.8428	-5.62145	0	
1.0340	-1.01779	-7.14943	0	
1.0347	-1.93029	-9.60174	0	
1.0353	-1.93029	-6.84761	0	
1.0360	1.43895	-0.735694	0	
1.0367	4.49232	2.92391	0	
1.0373	5.08896	1.39593	0	
1.0380	3.26395	-0.132048	0	
1.0387	2.03558	1.39593	0	
1.0393	1.12308	-1.05638	0	
1.0400	-1.93029	-6.24396	0	
1.0407	-6.80867	-5.62145	0	
1.0413	-12.3188	-4.41416	0	
1.0420	-15.3722	-8.97923	0	
1.0427	-15.3722	-10.5072	0	
1.0433	-14.4246	-7.45126	0	
1.0440	-12.9154	-7.77194	0	
1.0447	-11.0904	-6.54579	0	
1.0453	-9.26541	-4.09347	0	
1.0460	-9.26541	-5.62145	0	
1.0467	-9.26541	-4.71598	0	
1.0473	-8.94954	-1.05638	0	
1.0480	-5.5803	-2.88618	0	
1.0487	-4.6678	-4.71598	0	
1.0493	-10.4587	-1.66003	0	
1.0500	-16.2847	-2.88618	0	
1.0507	-16.5654	-6.54579	0	
1.0513	-16.5654	-4.71598	0	
1.0520	-16.5654	-2.58436	0	
1.0527	-14.7404	-2.26367	0	
1.0533	-13.8279	0.773421	0	
1.0540	-11.3712	2.62209	0	
1.0547	-8.03704	0.773421	0	
1.0553	-6.80867	-0.735694	0	
1.0560	-3.15866	-1.05638	0	
1.0567	3.26395	-1.96185	0	
1.0573	4.49232	-1.66003	0	
1.0580	1.71972	-0.132048	0	
1.0587	3.57982	1.69775	0	
1.0593	5.40482	2.3014	0	
1.0600	2.94809	1.69775	0	
1.0607	4.49232	1.09411	0	
1.0613	10.2832	1.69775	0	
1.0620	12.7048	0.471598	0	
1.0627	10.8798	-2.88618	0	
1.0633	9.96734	-4.41416	0	
1.0640	10.8798	-3.79165	0	
1.0647	11.7923	-2.88618	0	
1.0653	10.8798	-1.96185	0	
1.0660	9.05483	0.471598	0	
1.0667	7.22983	2.62209	0	
1.0673	4.49232	2.92391	0	
1.0680	-0.105289	1.99958	0	
1.0687	-5.89617	0.471598	0	
1.0693	-11.3712	-0.735694	0	
1.0700	-12.5996	0.471598	0	
1.0707	-9.54618	3.52756	0	
1.0713	-5.89617	3.52756	0	
1.0720	-3.43943	1.99958	0	
1.0727	-1.01779	2.62209	0	
1.0733	0.807214	2.62209	0	
1.0740	3.57982	1.39593	0	
1.0747	8.14233	1.69775	0	
1.0753	10.2832	2.62209	0	
1.0760	7.22983	2.62209	0	
1.0767	5.08896	4.75371	0	
1.0773	6.31733	5.35736	0	
1.0780	5.40482	2.92391	0	
1.0787	1.43895	0.773421	0	
1.0793	2.03558	1.69775	0	
1.0800	2.66732	2.62209	0	
1.0807	-3.7553	1.09411	0	
1.0813	-7.40531	-1.05638	0	
1.0820	-3.43943	-0.132048	0	
1.0827	-2.24616	0.773421	0	
1.0833	-9.26541	-1.96185	0	
1.0840	-16.5654	-3.48983	0	
1.0847	-18.1097	-2.26367	0	
1.0853	-17.1972	-2.88618	0	
1.0860	-17.1972	-3.48983	0	
1.0867	-15.3722	-1.96185	0	
1.0873	-5.5803	-1.66003	0	
1.0880	7.22983	-1.66003	0	
1.0887	12.7048	0.471598	0	
1.0893	12.4241	1.99958	0	
1.0900	14.5649	3.22573	0	
1.0907	16.9866	5.35736	0	
1.0913	14.2491	6.88534	0	
1.0920	5.40482	5.35736	0	
1.0927	-5.29953	4.45189	0	
1.0933	-9.26541	4.75371	0	
1.0940	-5.29953	4.45189	0	
1.0947	-2.8428	2.62209	0	
1.0953	-4.98367	1.39593	0	
1.0960	-6.80867	1.09411	0	
1.0967	-6.49281	0.471598	0	
1.0973	-5.5803	-0.132048	0	
1.0980	-2.8428	1.69775	0	
1.0987	4.49232	5.05554	0	
1.0993	12.4241	5.05554	0	
1.1000	19.1275	3.52756	0	
1.1007	22.7775	3.52756	0	
1.1013	21.2683	3.52756	0	
1.1020	14.2491	4.1312	0	
1.1027	7.22983	5.05554	0	
1.1033	6.31733	5.35736	0	
1.1040	9.96734	5.35736	0	
1.1047	11.5116	6.28169	0	
1.1053	14.2491	7.80967	0	
1.1060	20.9525	9.31878	0	
1.1067	24.9183	9.94129	0	
1.1073	22.7775	9.01696	0	
1.1080	20.04	8.11149	0	
1.1087	16.6707	7.48898	0	
1.1093	11.1957	7.18716	0	
1.1100	6.91396	5.35736	0	
1.1107	1.71972	1.69775	0	
1.1113	-7.12454	-1.96185	0	
1.1120	-14.1438	-4.09347	0	
1.1127	-16.5654	-5.62145	0	
1.1133	-18.3904	-4.71598	0	
1.1140	-21.163	-4.71598	0	
1.1147	-21.163	-8.07376	0	
1.1153	-15.0563	-9.60174	0	
1.1160	-6.21204	-6.24396	0	
1.1167	-1.93029	-5.62145	0	
1.1173	-2.8428	-10.2054	0	
1.1180	-0.105289	-12.9595	0	
1.1187	5.68559	-10.809	0	
1.1193	8.14233	-6.54579	0	
1.1200	7.82646	-5.31963	0	
1.1207	3.26395	-6.84761	0	
1.1213	-8.63368	-6.54579	0	
1.1220	-18.7063	-3.79165	0	
1.1227	-22.0755	-3.79165	0	
1.1233	-25.7256	-3.79165	0	
1.1240	-30.6039	-2.58436	0	
1.1247	-32.7448	-1.96185	0	
1.1253	-34.289	-2.26367	0	
1.1260	-34.5698	-2.58436	0	
1.1267	-33.0607	-4.41416	0	
1.1273	-33.0607	-4.71598	0	
1.1280	-26.0414	-4.41416	0	
1.1287	-8.35291	-4.71598	0	
1.1293	3.57982	-4.71598	0	
1.1300	2.94809	-2.88618	0	
1.1307	2.94809	-2.26367	0	
1.1313	7.22983	-2.26367	0	
1.1320	9.96734	-2.26367	0	
1.1327	10.2832	-2.88618	0	
1.1333	6.31733	-1.96185	0	
1.1340	6.31733	-1.05638	0	
1.1347	20.9525	-4.09347	0	
1.1353	41.0977	-4.41416	0	
1.1360	51.1703	1.39593	0	
1.1367	51.1703	4.75371	0	
1.1373	43.8352	3.52756	0	
1.1380	34.7102	1.99958	0	
1.1387	25.8308	2.3014	0	
1.1393	15.7582	1.69775	0	
1.1400	7.54569	0.471598	0	
1.1407	3.86059	-0.132048	0	
1.1413	0.807214	-0.132048	0	
1.1420	-1.93029	-0.433871	0	
1.1427	-2.8428	-0.132048	0	
1.1433	-2.52693	1.69775	0	
1.1440	-1.01779	3.22573	0	
1.1447	0.210578	4.45189	0	
1.1453	-0.701925	4.75371	0	
1.1460	-1.01779	2.62209	0	
1.1467	-1.93029	1.09411	0	
1.1473	-5.5803	1.69775	0	
1.1480	-4.07117	1.39593	0	
1.1487	2.35145	1.39593	0	
1.1493	6.00146	3.52756	0	
1.1500	6.00146	3.52756	0	
1.1507	4.77309	1.99958	0	
1.1513	2.03558	2.3014	0	
1.1520	-2.8428	2.92391	0	
1.1527	-9.54618	1.39593	0	
1.1533	-14.7404	-1.66003	0	
1.1540	-12.9154	-3.48983	0	
1.1547	-9.26541	-3.79165	0	
1.1553	-10.1779	-4.71598	0	
1.1560	-12.5996	-6.54579	0	
1.1567	-14.7404	-4.09347	0	
1.1573	-15.9688	-1.05638	0	
1.1580	-15.6529	-2.88618	0	
1.1587	-15.9688	-3.79165	0	
1.1593	-14.7404	-0.132048	0	
1.1600	-8.94954	1.99958	0	
1.1607	-3.7553	0.773421	0	
1.1613	-0.386059	-0.735694	0	
1.1620	8.14233	-1.96185	0	
1.1627	17.3025	-0.433871	0	
1.1633	16.39	2.3014	0	
1.1640	5.40482	1.09411	0	
1.1647	-8.94954	-0.132048	0	
1.1653	-18.1097	1.69775	0	
1.1660	-17.4779	1.69775	0	
1.1667	-15.0563	1.69775	0	
1.1673	-14.1438	3.22573	0	
1.1680	-12.9154	1.69775	0	
1.1687	-11.3712	-0.433871	0	
1.1693	-9.26541	1.09411	0	
1.1700	-4.07117	3.52756	0	
1.1707	-0.701925	3.52756	0	
1.1713	-1.93029	2.62209	0	
1.1720	-1.93029	-0.132048	0	
1.1727	5.08896	-2.88618	0	
1.1733	16.0741	-3.18801	0	
1.1740	19.7241	-2.88618	0	
1.1747	11.1957	-1.96185	0	
1.1753	4.17645	-1.96185	0	
1.1760	6.63319	-2.26367	0	
1.1767	11.5116	-2.88618	0	
1.1773	16.39	-3.48983	0	
1.1780	17.6183	-4.71598	0	
1.1787	9.96734	-4.09347	0	
1.1793	4.49232	-2.58436	0	
1.1800	9.05483	-2.26367	0	
1.1807	13.9332	-1.05638	0	
1.1813	17.8991	3.22573	0	
1.1820	27.0592	7.48898	0	
1.1827	28.2876	9.01696	0	
1.1833	15.4774	8.41332	0	
1.1840	4.49232	5.65918	0	
1.1847	-0.701925	2.62209	0	
1.1853	-7.12454	-0.132048	0	
1.1860	-12.5996	-1.96185	0	
1.1867	-18.1097	-3.79165	0	
1.1873	-24.2164	-3.48983	0	
1.1880	-23.3039	-2.26367	0	
1.1887	-15.3722	-1.96185	0	
1.1893	-9.26541	-2.58436	0	
1.1900	-6.80867	-4.41416	0	
1.1907	-5.5803	-4.71598	0	
1.1913	-7.40531	-2.88618	0	
1.1920	-8.03704	-4.09347	0	
1.1927	-7.40531	-7.45126	0	
1.1933	-8.63368	-5.62145	0	
1.1940	-10.1779	-0.132048	0	
1.1947	-9.26541	0.471598	0	
1.1953	-6.49281	-0.433871	0	
1.1960	-6.49281	1.39593	0	
1.1967	-6.49281	0.773421	0	
1.1973	-2.8428	-0.433871	0	
1.1980	1.43895	2.3014	0	
1.1987	-0.105289	3.82938	0	
1.1993	-0.105289	1.69775	0	
1.2000	8.14233	2.3014	0	
1.2007	15.1616	4.75371	0	
1.2013	15.4774	5.05554	0	
1.2020	13.9332	5.35736	0	
1.2027	9.96734	5.05554	0	
1.2033	4.49232	2.92391	0	
1.2040	4.49232	0.773421	0	
1.2047	4.77309	0.773421	0	
1.2053	0.526444	1.09411	0	
1.2060	-0.105289	0.773421	0	
1.2067	2.35145	-1.96185	0	
1.2073	-0.701925	-4.71598	0	
1.2080	-6.21204	-3.79165	0	
1.2087	-8.35291	-1.05638	0	
1.2093	-8.35291	-1.05638	0	
1.2100	-4.98367	-2.58436	0	
1.2107	-0.386059	-2.88618	0	
1.2113	-1.01779	-1.96185	0	
1.2120	-6.49281	-1.66003	0	
1.2127	-10.7746	-3.79165	0	
1.2133	-13.2313	-6.54579	0	
1.2140	-15.3722	-6.54579	0	
1.2147	-16.5654	-5.92328	0	
1.2153	-15.6529	-7.14943	0	
1.2160	-14.7404	-7.77194	0	
1.2167	-13.2313	-6.24396	0	
1.2173	-8.63368	-5.01781	0	
1.2180	-2.8428	-5.92328	0	
1.2187	-0.701925	-4.71598	0	
1.2193	-0.386059	-1.96185	0	
1.2200	-1.33366	-2.88618	0	
1.2207	-6.80867	-5.01781	0	
1.2213	-11.0904	-3.48983	0	
1.2220	-8.35291	-1.66003	0	
1.2227	-3.7553	-1.96185	0	
1.2233	-2.8428	-1.66003	0	
1.2240	-6.21204	-1.05638	0	
1.2247	-14.7404	-1.3582	0	
1.2253	-23.3039	-1.66003	0	
1.2260	-21.7597	-1.96185	0	
1.2267	-8.35291	-1.66003	0	
1.2273	6.63319	0.471598	0	
1.2280	9.96734	2.3014	0	
1.2287	3.86059	1.09411	0	
1.2293	6.31733	0.773421	0	
1.2300	19.1275	1.99958	0	
1.2307	23.69	2.3014	0	
1.2313	16.39	2.3014	0	
1.2320	10.2832	4.45189	0	
1.2327	9.96734	5.65918	0	
1.2333	10.8798	3.52756	0	
1.2340	9.3707	-0.132048	0	
1.2347	7.22983	-1.66003	0	
1.2353	6.00146	-0.132048	0	
1.2360	8.73897	2.92391	0	
1.2367	17.3025	4.75371	0	
1.2373	24.6376	5.05554	0	
1.2380	21.2683	5.05554	0	
1.2387	14.5649	2.92391	0	
1.2393	12.1082	0.471598	0	
1.2400	9.05483	2.62209	0	
1.2407	5.40482	6.28169	0	
1.2413	2.66732	4.75371	0	
1.2420	1.12308	1.39593	0	
1.2427	-1.01779	1.69775	0	
1.2433	-3.15866	3.52756	0	
1.2440	-5.5803	2.92391	0	
1.2447	-4.6678	0.773421	0	
1.2453	-1.61443	0.773421	0	
1.2460	-0.105289	2.3014	0	
1.2467	1.12308	3.52756	0	
1.2473	1.12308	2.62209	0	
1.2480	-4.98367	2.3014	0	
1.2487	-7.72118	2.62209	0	
1.2493	-1.01779	2.92391	0	
1.2500	2.66732	1.69775	0	
1.2507	-0.105289	1.39593	0	
1.2513	0.807214	3.52756	0	
1.2520	3.57982	3.82938	0	
1.2527	1.71972	1.99958	0	
1.2533	0.526444	1.99958	0	
1.2540	0.807214	2.92391	0	
1.2547	0.526444	1.09411	0	
1.2553	2.03558	0.471598	0	
1.2560	5.40482	1.09411	0	
1.2567	6.31733	-1.05638	0	
1.2573	5.68559	-3.48983	0	
1.2580	0.210578	-1.05638	0	
1.2587	-7.12454	0.773421	0	
1.2593	-8.35291	-1.66003	0	
1.2600	-6.80867	-4.71598	0	
1.2607	-10.1779	-6.54579	0	
1.2613	-15.3722	-7.45126	0	
1.2620	-16.5654	-7.45126	0	
1.2627	-15.9688	-8.07376	0	
1.2633	-16.5654	-9.28106	0	
1.2640	-20.2505	-10.2054	0	
1.2647	-21.7597	-9.28106	0	
1.2653	-15.3722	-9.90357	0	
1.2660	-6.80867	-12.337	0	
1.2667	-2.24616	-11.7334	0	
1.2673	-1.33366	-8.37559	0	
1.2680	-5.89617	-7.45126	0	
1.2687	-12.0029	-5.92328	0	
1.2693	-9.86205	-1.66003	0	
1.2700	-0.386059	-1.05638	0	
1.2707	6.31733	-2.88618	0	
1.2713	6.00146	-1.96185	0	
1.2720	0.807214	-2.26367	0	
1.2727	-2.8428	-3.79165	0	
1.2733	-3.7553	-1.96185	0	
1.2740	-6.49281	-1.96185	0	
1.2747	-7.72118	-3.18801	0	
1.2753	-5.5803	-0.735694	0	
1.2760	-3.43943	2.62209	0	
1.2767	-0.105289	0.471598	0	
1.2773	2.66732	-3.18801	0	
1.2780	2.66732	-3.18801	0	
1.2787	3.57982	-0.735694	0	
1.2793	7.82646	1.09411	0	
1.2800	9.96734	1.99958	0	
1.2807	11.5116	3.52756	0	
1.2813	13.3366	5.05554	0	
1.2820	9.05483	7.48898	0	
1.2827	1.43895	8.71514	0	
1.2833	-1.93029	7.18716	0	
1.2840	-2.8428	7.18716	0	
1.2847	-1.33366	11.4693	0	
1.2853	5.40482	12.9973	0	
1.2860	9.96734	11.7711	0	
1.2867	9.05483	11.7711	0	
1.2873	9.3707	10.2431	0	
1.2880	10.2832	7.48898	0	
1.2887	10.2832	7.18716	0	
1.2893	12.7048	6.28169	0	
1.2900	13.6524	3.22573	0	
1.2907	11.7923	1.69775	0	
1.2913	16.39	1.39593	0	
1.2920	19.4433	-0.433871	0	
1.2927	9.96734	-4.09347	0	
1.2933	0.526444	-8.37559	0	
1.2940	-2.52693	-9.28106	0	
1.2947	-8.03704	-5.62145	0	
1.2953	-15.9688	-5.92328	0	
1.2960	-18.7063	-8.37559	0	
1.2967	-15.3722	-6.24396	0	
1.2973	-10.1779	-2.88618	0	
1.2980	-5.5803	-3.79165	0	
1.2987	1.12308	-2.58436	0	
1.2993	9.3707	-0.132048	0	
1.3000	9.05483	-1.05638	0	
1.3007	0.210578	-2.88618	0	
1.3013	-0.105289	-1.96185	0	
1.3020	7.22983	-0.433871	0	
1.3027	9.05483	0.471598	0	
1.3033	9.65147	1.39593	0	
1.3040	9.65147	1.09411	0	
1.3047	2.35145	0.773421	0	
1.3053	-4.35194	0.169775	0	
1.3060	-3.7553	-1.66003	0	
1.3067	-2.8428	-2.88618	0	
1.3073	-3.43943	-2.88618	0	
1.3080	-3.7553	-3.79165	0	
1.3087	-8.94954	-2.88618	0	
1.3093	-12.0029	-0.735694	0	
1.3100	-8.63368	-1.96185	0	
1.3107	-8.94954	-2.88618	0	
1.3113	-10.4587	1.99958	0	
1.3120	-7.12454	3.22573	0	
1.3127	-8.35291	-0.735694	0	
1.3133	-12.5996	0.773421	0	
1.3140	-7.40531	3.52756	0	
1.3147	1.43895	1.69775	0	
1.3153	9.96734	2.62209	0	
1.3160	21.2683	5.35736	0	
1.3167	21.865	1.99958	0	
1.3173	9.05483	-0.433871	0	
1.3180	3.86059	1.39593	0	
1.3187	7.22983	0.169775	0	
1.3193	4.49232	-1.05638	0	
1.3200	2.94809	2.3014	0	
1.3207	7.82646	5.05554	0	
1.3213	8.73897	3.52756	0	
1.3220	6.63319	1.99958	0	
1.3227	7.54569	1.69775	0	
1.3233	5.40482	1.69775	0	
1.3240	2.66732	1.69775	0	
1.3247	9.05483	2.62209	0	
1.3253	18.5308	3.22573	0	
1.3260	17.3025	1.99958	0	
1.3267	7.22983	-0.132048	0	
1.3273	-0.105289	0.169775	0	
1.3280	-0.105289	2.62209	0	
1.3287	0.807214	3.22573	0	
1.3293	0.807214	2.92391	0	
1.3300	3.86059	3.52756	0	
1.3307	5.68559	4.1312	0	
1.3313	0.526444	2.92391	0	
1.3320	-5.5803	0.471598	0	
1.3327	-8.35291	-2.26367	0	
1.3333	-11.3712	-3.18801	0	
1.3340	-13.8279	-3.48983	0	
1.3347	-17.4779	-7.45126	0	
1.3353	-20.8472	-12.337	0	
1.3360	-18.1097	-11.4315	0	
1.3367	-13.2313	-10.2054	0	
1.3373	-13.2313	-12.0352	0	
1.3380	-6.49281	-10.809	0	
1.3387	8.73897	-5.62145	0	
1.3393	12.4241	-3.18801	0	
1.3400	3.86059	-4.41416	0	
1.3407	-0.701925	-4.71598	0	
1.3413	-0.105289	-3.79165	0	
1.3420	-1.93029	-1.66003	0	
1.3427	-5.5803	-1.3582	0	
1.3433	-8.35291	-3.79165	0	
1.3440	-11.0904	-5.01781	0	
1.3447	-15.6529	-4.09347	0	
1.3453	-18.3904	-3.48983	0	
1.3460	-14.7404	-2.88618	0	
1.3467	-8.35291	-1.3582	0	
1.3473	-7.72118	0.169775	0	
1.3480	-9.86205	0.773421	0	
1.3487	-8.35291	0.169775	0	
1.3493	-5.29953	-1.05638	0	
1.3500	-4.6678	-1.96185	0	
1.3507	-6.21204	-0.735694	0	
1.3513	-6.49281	-0.735694	0	
1.3520	-4.6678	-1.3582	0	
1.3527	-2.52693	1.09411	0	
1.3533	-1.01779	2.3014	0	
1.3540	0.807214	-1.05638	0	
1.3547	0.526444	-1.96185	0	
1.3553	-1.33366	3.22573	0	
1.3560	-3.7553	3.52756	0	
1.3567	-7.40531	-1.96185	0	
1.3573	-11.6871	-1.96185	0	
1.3580	-11.0904	2.92391	0	
1.3587	-8.63368	3.22573	0	
1.3593	-8.35291	0.773421	0	
1.3600	-5.89617	1.69775	0	
1.3607	-1.01779	2.62209	0	
1.3613	0.210578	3.52756	0	
1.3620	-1.01779	5.65918	0	
1.3627	-0.386059	6.28169	0	
1.3633	1.71972	4.1312	0	
1.3640	5.08896	4.75371	0	
1.3647	8.14233	5.35736	0	
1.3653	9.96734	1.99958	0	
1.3660	15.1616	-0.433871	0	
1.3667	21.5842	2.62209	0	
1.3673	23.4092	7.80967	0	
1.3680	23.69	9.31878	0	
1.3687	22.1808	6.28169	0	
1.3693	14.2491	5.05554	0	
1.3700	7.54569	4.45189	0	
1.3707	7.54569	-1.96185	0	
1.3713	7.22983	-9.90357	0	
1.3720	2.94809	-9.28106	0	
1.3727	-1.01779	-7.14943	0	
1.3733	-3.7553	-9.28106	0	
1.3740	-7.12454	-9.90357	0	
1.3747	-8.94954	-7.14943	0	
1.3753	-9.26541	-6.84761	0	
1.3760	-8.03704	-6.54579	0	
1.3767	-7.40531	-3.18801	0	
1.3773	-13.2313	-1.3582	0	
1.3780	-21.163	-3.48983	0	
1.3787	-21.163	-5.31963	0	
1.3793	-15.6529	-3.79165	0	
1.3800	-13.2313	-3.18801	0	
1.3807	-11.0904	-3.79165	0	
1.3813	-5.89617	-1.3582	0	
1.3820	-4.07117	2.92391	0	
1.3827	-4.35194	2.3014	0	
1.3833	1.12308	-0.735694	0	
1.3840	9.96734	-1.05638	0	
1.3847	17.8991	-1.05638	0	
1.3853	26.4626	-0.132048	0	
1.3860	29.7967	3.52756	0	
1.3867	23.69	4.45189	0	
1.3873	20.04	1.09411	0	
1.3880	22.7775	-1.05638	0	
1.3887	20.9525	-1.3582	0	
1.3893	12.1082	-2.26367	0	
1.3900	2.94809	-1.96185	0	
1.3907	-6.80867	-0.433871	0	
1.3913	-13.5121	0.773421	0	
1.3920	-12.3188	0.773421	0	
1.3927	-7.40531	0.773421	0	
1.3933	-1.93029	3.52756	0	
1.3940	2.35145	3.52756	0	
1.3947	2.66732	-0.433871	0	
1.3953	1.43895	0.471598	0	
1.3960	5.40482	4.1312	0	
1.3967	9.05483	2.62209	0	
1.3973	7.22983	-0.735694	0	
1.3980	5.40482	-1.96185	0	
1.3987	6.31733	-3.79165	0	
1.3993	5.08896	-3.48983	0	
1.4000	4.17645	-2.88618	0	
1.4007	4.77309	-6.54579	0	
1.4013	3.86059	-5.62145	0	
1.4020	3.26395	1.39593	0	
1.4027	3.57982	1.69775	0	
1.4033	-0.386059	-0.735694	0	
1.4040	-8.94954	-0.735694	0	
1.4047	-11.3712	-2.88618	0	
1.4053	-7.40531	-3.48983	0	
1.4060	-5.5803	0.169775	0	
1.4067	-7.40531	-0.735694	0	
1.4073	-7.12454	-4.71598	0	
1.4080	-5.89617	-4.71598	0	
1.4087	-6.21204	-1.96185	0	
1.4093	-6.49281	-0.433871	0	
1.4100	-5.5803	-1.05638	0	
1.4107	-2.52693	-1.05638	0	
1.4113	5.40482	2.62209	0	
1.4120	12.7048	3.52756	0	
1.4127	13.6524	0.471598	0	
1.4133	9.65147	1.69775	0	
1.4140	7.54569	3.52756	0	
1.4147	6.63319	2.62209	0	
1.4153	0.807214	5.961	0	
1.4160	-10.1779	7.80967	0	
1.4167	-19.0222	2.62209	0	
1.4173	-22.0755	1.69775	0	
1.4180	-22.3914	5.65918	0	
1.4187	-23.3039	4.75371	0	
1.4193	-26.3573	4.1312	0	
1.4200	-29.6914	5.35736	0	
1.4207	-29.4107	3.82938	0	
1.4213	-21.163	4.45189	0	
1.4220	-11.0904	7.48898	0	
1.4227	-8.03704	7.18716	0	
1.4233	-8.35291	5.35736	0	
1.4240	-5.5803	1.99958	0	
1.4247	-5.29953	-2.26367	0	
1.4253	-10.4587	-1.96185	0	
1.4260	-14.1438	-1.05638	0	
1.4267	-12.9154	-3.48983	0	
1.4273	-8.94954	-2.88618	0	
1.4280	-1.33366	-0.433871	0	
1.4287	6.91396	-2.88618	0	
1.4293	10.5991	-5.01781	0	
1.4300	10.5991	-3.79165	0	
1.4307	8.14233	-6.54579	0	
1.4313	6.31733	-11.4315	0	
1.4320	9.65147	-9.28106	0	
1.4327	14.2491	-3.18801	0	
1.4333	11.7923	-2.26367	0	
1.4340	3.57982	-4.41416	0	
1.4347	-6.80867	-2.88618	0	
1.4353	-15.0563	-1.3582	0	
1.4360	-18.3904	-4.71598	0	
1.4367	-19.338	-6.54579	0	
1.4373	-19.0222	-1.96185	0	
1.4380	-16.2847	0.471598	0	
1.4387	-11.3712	-1.96185	0	
1.4393	-5.5803	-1.66003	0	
1.4400	1.71972	1.39593	0	
1.4407	10.8798	1.09411	0	
1.4413	22.7775	1.09411	0	
1.4420	36.2193	3.22573	0	
1.4427	43.8352	2.62209	0	
1.4433	43.2386	1.69775	0	
1.4440	40.1852	4.45189	0	
1.4447	39.5886	6.28169	0	
1.4453	42.3261	3.22573	0	
1.4460	41.7294	0.169775	0	
1.4467	34.7102	3.22573	0	
1.4473	26.4626	6.88534	0	
1.4480	22.1808	5.05554	0	
1.4487	20.3558	2.62209	0	
1.4493	16.39	2.62209	0	
1.4500	9.96734	0.471598	0	
1.4507	6.31733	-1.96185	0	
1.4513	6.31733	-0.735694	0	
1.4520	1.71972	-2.88618	0	
1.4527	-7.12454	-6.54579	0	
1.4533	-10.7746	-5.62145	0	
1.4540	-11.3712	-2.88618	0	
1.4547	-12.9154	-1.96185	0	
1.4553	-11.0904	0.773421	0	
1.4560	-8.03704	0.169775	0	
1.4567	-10.4587	-4.71598	0	
1.4573	-15.3722	-5.01781	0	
1.4580	-15.6529	-2.58436	0	
1.4587	-13.2313	-3.79165	0	
1.4593	-9.26541	-5.01781	0	
1.4600	-5.29953	-3.79165	0	
1.4607	-4.6678	-3.18801	0	
1.4613	-4.6678	-3.18801	0	
1.4620	-2.52693	-3.79165	0	
1.4627	-1.93029	-4.41416	0	
1.4633	-4.35194	-1.05638	0	
1.4640	-4.6678	3.52756	0	
1.4647	-4.07117	2.62209	0	
1.4653	-5.89617	0.773421	0	
1.4660	-9.86205	2.62209	0	
1.4667	-12.5996	2.92391	0	
1.4673	-12.0029	-0.132048	0	
1.4680	-9.86205	0.773421	0	
1.4687	-8.35291	1.99958	0	
1.4693	-9.26541	-1.05638	0	
1.4700	-10.1779	-1.96185	0	
1.4707	-9.54618	1.39593	0	
1.4713	-7.12454	1.09411	0	
1.4720	-4.6678	-1.96185	0	
1.4727	-4.35194	-0.132048	0	
1.4733	-3.7553	3.52756	0	
1.4740	-3.7553	3.52756	0	
1.4747	-9.26541	1.69775	0	
1.4753	-18.3904	1.99958	0	
1.4760	-25.4097	1.69775	0	
1.4767	-26.6381	0.169775	0	
1.4773	-23.9005	1.69775	0	
1.4780	-18.1097	3.52756	0	
1.4787	-12.9154	1.39593	0	
1.4793	-8.35291	-1.05638	0	
1.4800	-1.93029	0.169775	0	
1.4807	2.03558	1.69775	0	
1.4813	0.807214	1.09411	0	
1.4820	1.12308	0.169775	0	
1.4827	5.68559	-1.96185	0	
1.4833	9.96734	-2.88618	0	
1.4840	15.7582	-1.05638	0	
1.4847	21.5842	0.773421	0	
1.4853	18.215	-0.433871	0	
1.4860	12.4241	-1.96185	0	
1.4867	11.7923	0.169775	0	
1.4873	9.05483	2.62209	0	
1.4880	5.08896	2.62209	0	
1.4887	6.63319	1.69775	0	
1.4893	6.63319	0.471598	0	
1.4900	2.66732	-1.05638	0	
1.4907	-0.701925	-1.05638	0	
1.4913	-6.49281	-1.96185	0	
1.4920	-13.2313	-5.92328	0	
1.4927	-13.8279	-7.45126	0	
1.4933	-12.3188	-4.09347	0	
1.4940	-14.4246	-0.132048	0	
1.4947	-14.4246	2.62209	0	
1.4953	-9.86205	3.52756	0	
1.4960	-2.24616	2.62209	0	
1.4967	3.57982	2.3014	0	
1.4973	0.807214	1.39593	0	
1.4980	-1.93029	-0.433871	0	
1.4987	4.49232	-0.735694	0	
1.4993	9.65147	-0.132048	0	
1.5000	8.14233	-2.88618	0	
1.5007	7.82646	-4.71598	0	
1.5013	8.4582	-2.88618	0	
1.5020	3.57982	-2.88618	0	
1.5027	-2.8428	-4.71598	0	
1.5033	-5.5803	-5.01781	0	
1.5040	-5.5803	-5.01781	0	
1.5047	-4.98367	-5.62145	0	
1.5053	-2.52693	-5.01781	0	
1.5060	4.17645	-4.09347	0	
1.5067	10.2832	-3.79165	0	
1.5073	10.2832	-3.48983	0	
1.5080	7.82646	-5.01781	0	
1.5087	8.73897	-6.24396	0	
1.5093	9.96734	-4.41416	0	
1.5100	9.05483	-2.88618	0	
1.5107	9.05483	-2.88618	0	
1.5113	9.05483	-1.96185	0	
1.5120	6.00146	-2.88618	0	
1.5127	3.57982	-4.71598	0	
1.5133	3.57982	-2.88618	0	
1.5140	2.03558	-0.132048	0	
1.5147	0.807214	1.39593	0	
1.5153	2.66732	1.69775	0	
1.5160	1.71972	0.471598	0	
1.5167	-1.33366	-0.132048	0	
1.5173	1.71972	3.52756	0	
1.5180	7.22983	7.18716	0	
1.5187	6.31733	5.65918	0	
1.5193	2.94809	1.99958	0	
1.5200	0.807214	0.471598	0	
1.5207	-2.8428	2.62209	0	
1.5213	-5.29953	4.45189	0	
1.5220	-3.7553	3.52756	0	
1.5227	-4.98367	2.3014	0	
1.5233	-12.5996	1.69775	0	
1.5240	-20.2505	0.773421	0	
1.5247	-22.988	0.471598	0	
1.5253	-23.9005	-0.433871	0	
1.5260	-25.1289	-1.05638	0	
1.5267	-24.8131	-1.05638	0	
1.5273	-22.988	-0.433871	0	
1.5280	-22.988	-1.05638	0	
1.5287	-23.3039	-0.735694	0	
1.5293	-19.6188	0.471598	0	
1.5300	-18.1097	-1.05638	0	
1.5307	-18.3904	-1.96185	0	
1.5313	-5.89617	0.773421	0	
1.5320	14.5649	4.1312	0	
1.5327	23.0933	3.52756	0	
1.5333	22.4967	3.82938	0	
1.5340	22.7775	6.28169	0	
1.5347	19.1275	4.75371	0	
1.5353	12.7048	0.471598	0	
1.5360	8.14233	-1.96185	0	
1.5367	1.43895	-4.41416	0	
1.5373	-3.43943	-7.45126	0	
1.5380	0.526444	-5.92328	0	
1.5387	1.12308	-5.01781	0	
1.5393	-3.7553	-8.97923	0	
1.5400	-2.8428	-10.5072	0	
1.5407	-1.93029	-6.84761	0	
1.5413	-2.8428	-1.96185	0	
1.5420	11.7923	3.82938	0	
1.5427	32.5693	8.11149	0	
1.5433	33.166	7.18716	0	
1.5440	23.0933	4.1312	0	
1.5447	19.7241	0.773421	0	
1.5453	16.39	-1.05638	0	
1.5460	11.7923	1.39593	0	
1.5467	11.7923	4.45189	0	
1.5473	13.0207	4.75371	0	
1.5480	12.7048	8.11149	0	
1.5487	12.4241	10.5449	0	
1.5493	8.73897	5.35736	0	
1.5500	3.86059	0.773421	0	
1.5507	4.17645	1.69775	0	
1.5513	0.210578	1.39593	0	
1.5520	-8.63368	-0.132048	0	
1.5527	-7.12454	-1.05638	0	
1.5533	1.71972	-1.96185	0	
1.5540	-1.61443	-0.735694	0	
1.5547	-11.3712	0.773421	0	
1.5553	-12.0029	-4.09347	0	
1.5560	-5.29953	-9.28106	0	
1.5567	1.43895	-5.31963	0	
1.5573	7.22983	-1.05638	0	
1.5580	11.5116	-1.3582	0	
1.5587	9.96734	1.09411	0	
1.5593	4.49232	5.05554	0	
1.5600	3.57982	3.82938	0	
1.5607	6.31733	2.3014	0	
1.5613	4.49232	3.52756	0	
1.5620	1.71972	3.52756	0	
1.5627	4.17645	2.92391	0	
1.5633	0.807214	5.35736	0	
1.5640	-4.98367	5.35736	0	
1.5647	-2.8428	1.69775	0	
1.5653	-2.8428	-1.66003	0	
1.5660	-11.0904	-3.48983	0	
1.5667	-8.63368	-3.79165	0	
1.5673	-0.105289	-2.58436	0	
1.5680	-3.43943	-3.48983	0	
1.5687	-14.7404	-6.84761	0	
1.5693	-23.9005	-7.45126	0	
1.5700	-30.9198	-7.45126	0	
1.5707	-32.7448	-9.90357	0	
1.5713	-29.4107	-8.37559	0	
1.5720	-28.4631	-5.31963	0	
1.5727	-28.4631	-5.92328	0	
1.5733	-25.1289	-5.62145	0	
1.5740	-19.9347	-2.88618	0	
1.5747	-13.5121	-3.48983	0	
1.5753	-11.0904	-5.92328	0	
1.5760	-14.7404	-3.79165	0	
1.5767	-13.8279	-0.132048	0	
1.5773	-6.80867	0.169775	0	
1.5780	-1.93029	-1.96185	0	
1.5787	4.17645	-1.96185	0	
1.5793	11.7923	-1.05638	0	
1.5800	13.3366	-2.88618	0	
1.5807	13.6524	-4.09347	0	
1.5813	16.9866	-0.735694	0	
1.5820	12.7048	2.3014	0	
1.5827	3.57982	0.471598	0	
1.5833	-1.33366	-1.66003	0	
1.5840	-3.15866	-0.433871	0	
1.5847	-2.52693	0.471598	0	
1.5853	-0.701925	-0.735694	0	
1.5860	-4.07117	-2.88618	0	
1.5867	-7.40531	-5.31963	0	
1.5873	-4.98367	-5.01781	0	
1.5880	-2.8428	-0.433871	0	
1.5887	-2.8428	2.62209	0	
1.5893	-1.61443	0.471598	0	
1.5900	1.12308	-1.96185	0	
1.5907	5.68559	-0.433871	0	
1.5913	9.96734	1.69775	0	
1.5920	13.0207	4.1312	0	
1.5927	19.1275	7.18716	0	
1.5933	26.4626	9.01696	0	
1.5940	27.3751	8.11149	0	
1.5947	21.865	5.65918	0	
1.5953	16.39	5.961	0	
1.5960	13.3366	9.01696	0	
1.5967	12.4241	10.2431	0	
1.5973	12.7048	7.80967	0	
1.5980	13.3366	5.35736	0	
1.5987	12.4241	4.75371	0	
1.5993	9.96734	2.92391	0	
1.6000	6.00146	-2.26367	0	
1.6007	-0.105289	-8.37559	0	
1.6013	-8.35291	-12.0352	0	
1.6020	-13.5121	-12.6388	0	
1.6027	-14.1438	-11.1109	0	
1.6033	-14.1438	-9.28106	0	
1.6040	-14.1438	-7.45126	0	
1.6047	-14.7404	-6.54579	0	
1.6053	-15.9688	-4.71598	0	
1.6060	-13.2313	-2.88618	0	
1.6067	-8.94954	-1.05638	0	
1.6073	-7.72118	0.471598	0	
1.6080	-6.49281	0.773421	0	
1.6087	-4.6678	-1.3582	0	
1.6093	-7.40531	-3.18801	0	
1.6100	-7.12454	-1.3582	0	
1.6107	-2.8428	0.773421	0	
1.6113	-4.6678	-0.132048	0	
1.6120	-5.89617	-1.3582	0	
1.6127	-0.105289	-0.132048	0	
1.6133	3.26395	1.09411	0	
1.6140	3.57982	2.3014	0	
1.6147	6.91396	4.45189	0	
1.6153	8.14233	5.961	0	
1.6160	8.14233	5.05554	0	
1.6167	12.4241	4.45189	0	
1.6173	13.6524	7.80967	0	
1.6180	9.05483	9.01696	0	
1.6187	8.73897	6.28169	0	
1.6193	10.5991	5.35736	0	
1.6200	9.3707	6.88534	0	
1.6207	5.68559	4.45189	0	
1.6213	2.03558	-0.433871	0	
1.6220	1.12308	-1.05638	0	
1.6227	2.35145	2.3014	0	
1.6233	0.807214	3.52756	0	
1.6240	-2.24616	3.52756	0	
1.6247	-3.15866	3.22573	0	
1.6253	-5.5803	0.773421	0	
1.6260	-12.3188	-2.88618	0	
1.6267	-19.338	-4.71598	0	
1.6273	-23.3039	-5.62145	0	
1.6280	-28.4631	-8.97923	0	
1.6287	-34.289	-13.865	0	
1.6293	-36.7107	-14.7893	0	
1.6300	-34.5698	-11.1109	0	
1.6307	-32.4289	-8.37559	0	
1.6313	-30.3232	-10.2054	0	
1.6320	-26.6381	-10.2054	0	
1.6327	-20.2505	-6.84761	0	
1.6333	-13.2313	-4.09347	0	
1.6340	-14.4246	-4.09347	0	
1.6347	-21.163	-3.79165	0	
1.6353	-19.0222	-2.88618	0	
1.6360	-6.49281	-1.96185	0	
1.6367	4.49232	1.39593	0	
1.6373	12.7048	5.05554	0	
1.6380	17.3025	6.28169	0	
1.6387	14.5649	4.45189	0	
1.6393	12.7048	3.22573	0	
1.6400	13.6524	4.45189	0	
1.6407	12.7048	8.11149	0	
1.6413	18.5308	9.01696	0	
1.6420	30.4285	7.18716	0	
1.6427	35.3068	6.88534	0	
1.6433	31.9376	8.11149	0	
1.6440	26.1467	7.18716	0	
1.6447	18.8116	5.65918	0	
1.6453	13.6524	4.1312	0	
1.6460	11.7923	3.22573	0	
1.6467	8.4582	5.35736	0	
1.6473	6.31733	6.88534	0	
1.6480	10.8798	4.45189	0	
1.6487	17.6183	2.62209	0	
1.6493	15.1616	3.52756	0	
1.6500	7.22983	4.45189	0	
1.6507	6.91396	6.58351	0	
1.6513	10.8798	9.01696	0	
1.6520	10.5991	8.71514	0	
1.6527	9.05483	7.80967	0	
1.6533	11.7923	9.01696	0	
1.6540	12.1082	6.58351	0	
1.6547	9.65147	1.39593	0	
1.6553	5.40482	0.773421	0	
1.6560	-3.7553	3.52756	0	
1.6567	-8.94954	2.62209	0	
1.6573	-4.98367	-1.05638	0	
1.6580	-3.43943	-2.88618	0	
1.6587	-11.0904	-5.62145	0	
1.6593	-21.4438	-11.1109	0	
1.6600	-23.5847	-13.5632	0	
1.6607	-12.5996	-10.2054	0	
1.6613	3.57982	-6.54579	0	
1.6620	9.65147	-4.71598	0	
1.6627	6.31733	-3.79165	0	
1.6633	4.77309	-2.58436	0	
1.6640	6.91396	-3.79165	0	
1.6647	4.49232	-6.84761	0	
1.6653	-0.701925	-7.45126	0	
1.6660	0.807214	-4.71598	0	
1.6667	4.49232	-3.48983	0	
1.6673	-0.105289	-2.58436	0	
1.6680	-8.35291	-1.05638	0	
1.6687	-10.7746	-2.88618	0	
1.6693	-10.1779	-6.24396	0	
1.6700	-7.72118	-4.71598	0	
1.6707	-0.105289	-3.18801	0	
1.6713	8.14233	-2.88618	0	
1.6720	11.7923	-0.132048	0	
1.6727	10.8798	1.09411	0	
1.6733	7.54569	-2.58436	0	
1.6740	5.40482	-2.88618	0	
1.6747	4.77309	-0.132048	0	
1.6753	1.71972	-1.96185	0	
1.6760	-1.01779	-2.88618	0	
1.6767	-1.93029	0.773421	0	
1.6773	-6.49281	0.773421	0	
1.6780	-9.54618	-1.3582	0	
1.6787	-6.80867	-0.132048	0	
1.6793	-6.21204	1.99958	0	
1.6800	-8.35291	2.62209	0	
1.6807	-8.03704	3.52756	0	
1.6813	-9.26541	2.62209	0	
1.6820	-9.26541	1.99958	0	
1.6827	-1.61443	4.45189	0	
1.6833	1.43895	5.65918	0	
1.6840	-2.24616	4.75371	0	
1.6847	5.08896	5.65918	0	
1.6853	18.8116	8.11149	0	
1.6860	18.5308	9.94129	0	
1.6867	4.49232	8.41332	0	
1.6873	-8.03704	2.92391	0	
1.6880	-13.8279	-0.735694	0	
1.6887	-14.4246	0.169775	0	
1.6893	-14.1438	0.169775	0	
1.6900	-16.5654	-1.05638	0	
1.6907	-19.6188	-1.05638	0	
1.6913	-20.5313	-2.26367	0	
1.6920	-22.0755	-3.79165	0	
1.6927	-21.163	-2.58436	0	
1.6933	-11.0904	0.169775	0	
1.6940	6.63319	1.69775	0	
1.6947	17.6183	2.92391	0	
1.6953	16.0741	0.773421	0	
1.6960	10.2832	-1.96185	0	
1.6967	8.14233	-1.3582	0	
1.6973	7.82646	-0.433871	0	
1.6980	8.4582	-1.05638	0	
1.6987	9.05483	-1.96185	0	
1.6993	6.31733	-3.18801	0	
1.7000	0.210578	-3.79165	0	
1.7007	-4.35194	-4.09347	0	
1.7013	-6.80867	-5.62145	0	
1.7020	-7.40531	-4.41416	0	
1.7027	-8.35291	-0.433871	0	
1.7033	-11.0904	-1.3582	0	
1.7040	-12.9154	-4.71598	0	
1.7047	-12.5996	-2.88618	0	
1.7053	-13.5121	-0.735694	0	
1.7060	-16.5654	-2.88618	0	
1.7067	-17.1972	-3.18801	0	
1.7073	-14.1438	-0.433871	0	
1.7080	-10.1779	2.3014	0	
1.7087	-6.49281	3.22573	0	
1.7093	1.12308	2.3014	0	
1.7100	8.14233	3.52756	0	
1.7107	9.05483	6.88534	0	
1.7113	9.05483	5.65918	0	
1.7120	11.7923	3.22573	0	
1.7127	10.8798	5.961	0	
1.7133	9.05483	7.18716	0	
1.7140	13.6524	3.82938	0	
1.7147	17.8991	4.1312	0	
1.7153	17.6183	5.961	0	
1.7160	15.4774	3.52756	0	
1.7167	12.1082	2.62209	0	
1.7173	7.82646	3.52756	0	
1.7180	3.57982	2.3014	0	
1.7187	0.807214	2.62209	0	
1.7193	1.71972	4.75371	0	
1.7200	3.86059	1.69775	0	
1.7207	2.66732	-2.88618	0	
1.7213	0.807214	-2.88618	0	
1.7220	-2.8428	-1.96185	0	
1.7227	-11.0904	-1.66003	0	
1.7233	-14.7404	0.471598	0	
1.7240	-9.86205	-1.3582	0	
1.7247	-8.63368	-8.07376	0	
1.7253	-12.0029	-9.28106	0	
1.7260	-11.0904	-5.62145	0	
1.7267	-6.80867	-4.09347	0	
1.7273	-4.07117	-2.58436	0	
1.7280	-1.93029	-0.735694	0	
1.7287	-1.93029	-2.58436	0	
1.7293	-4.6678	-3.48983	0	
1.7300	-5.89617	-2.88618	0	
1.7307	-4.35194	-5.92328	0	
1.7313	-3.15866	-6.84761	0	
1.7320	-0.386059	-1.96185	0	
1.7327	2.94809	-1.05638	0	
1.7333	1.71972	-5.31963	0	
1.7340	-3.15866	-5.92328	0	
1.7347	-5.5803	-3.79165	0	
1.7353	-7.40531	-2.88618	0	
1.7360	-8.94954	-1.96185	0	
1.7367	-4.6678	-1.05638	0	
1.7373	2.66732	1.09411	0	
1.7380	6.91396	3.52756	0	
1.7387	7.22983	3.82938	0	
1.7393	5.40482	4.45189	0	
1.7400	2.66732	3.82938	0	
1.7407	3.26395	0.169775	0	
1.7413	6.00146	-1.3582	0	
1.7420	6.63319	0.773421	0	
1.7427	6.31733	0.169775	0	
1.7433	6.31733	-1.05638	0	
1.7440	1.71972	0.471598	0	
1.7447	-7.72118	1.39593	0	
1.7453	-16.8813	-1.3582	0	
1.7460	-22.0755	-3.79165	0	
1.7467	-19.338	-3.18801	0	
1.7473	-11.0904	-2.88618	0	
1.7480	-5.5803	-4.41416	0	
1.7487	-4.07117	-5.62145	0	
1.7493	0.210578	-5.92328	0	
1.7500	4.49232	-6.54579	0	
1.7507	3.57982	-3.48983	0	
1.7513	1.71972	0.169775	0	
1.7520	4.49232	-1.96185	0	
1.7527	7.54569	-4.71598	0	
1.7533	9.96734	-1.66003	0	
1.7540	11.7923	-0.132048	0	
1.7547	10.5991	-1.3582	0	
1.7553	7.22983	-0.433871	0	
1.7560	6.00146	-0.433871	0	
1.7567	6.31733	-3.18801	0	
1.7573	4.17645	-1.96185	0	
1.7580	0.807214	1.39593	0	
1.7587	0.526444	1.69775	0	
1.7593	2.35145	1.39593	0	
1.7600	4.49232	1.99958	0	
1.7607	6.00146	0.471598	0	
1.7613	7.22983	-0.132048	0	
1.7620	8.14233	2.3014	0	
1.7627	8.14233	2.62209	0	
1.7633	3.26395	0.471598	0	
1.7640	-1.01779	1.99958	0	
1.7647	0.526444	5.35736	0	
1.7653	-1.01779	3.82938	0	
1.7660	-3.7553	-1.05638	0	
1.7667	5.40482	-0.735694	0	
1.7673	16.6707	2.92391	0	
1.7680	13.6524	1.69775	0	
1.7687	4.49232	-1.05638	0	
1.7693	1.12308	0.773421	0	
1.7700	-0.105289	2.92391	0	
1.7707	0.807214	2.62209	0	
1.7713	1.43895	3.52756	0	
1.7720	-5.89617	3.82938	0	
1.7727	-12.9154	1.39593	0	
1.7733	-10.1779	0.773421	0	
1.7740	-7.40531	2.62209	0	
1.7747	-8.35291	1.99958	0	
1.7753	-4.6678	0.773421	0	
1.7760	-0.105289	1.69775	0	
1.7767	-1.01779	2.62209	0	
1.7773	0.526444	2.62209	0	
1.7780	4.77309	1.99958	0	
1.7787	3.86059	1.09411	0	
1.7793	-0.105289	1.09411	0	
1.7800	1.43895	1.69775	0	
1.7807	4.77309	0.773421	0	
1.7813	8.4582	-0.735694	0	
1.7820	13.3366	-2.58436	0	
1.7827	11.1957	-4.71598	0	
1.7833	2.66732	-3.79165	0	
1.7840	-1.93029	-0.735694	0	
1.7847	-4.35194	1.39593	0	
1.7853	-10.4587	1.69775	0	
1.7860	-12.9154	-1.66003	0	
1.7867	-10.1779	-6.84761	0	
1.7873	-12.9154	-7.14943	0	
1.7880	-17.1972	-5.01781	0	
1.7887	-13.5121	-5.62145	0	
1.7893	-4.6678	-5.01781	0	
1.7900	2.94809	-2.58436	0	
1.7907	5.68559	-4.41416	0	
1.7913	0.210578	-7.45126	0	
1.7920	-9.26541	-7.14943	0	
1.7927	-12.0029	-7.45126	0	
1.7933	-7.40531	-7.45126	0	
1.7940	-4.98367	-6.54579	0	
1.7947	-7.72118	-5.62145	0	
1.7953	-9.26541	-4.41416	0	
1.7960	-8.94954	-3.48983	0	
1.7967	-12.9154	-4.09347	0	
1.7973	-17.4779	-3.48983	0	
1.7980	-14.7404	-1.05638	0	
1.7987	-11.0904	-0.433871	0	
1.7993	-12.3188	-1.96185	0	
1.8000	-7.40531	-1.66003	0	
1.8007	6.31733	1.09411	0	
1.8013	14.5649	3.52756	0	
1.8020	14.5649	3.52756	0	
1.8027	14.8457	1.99958	0	
1.8033	12.4241	-0.132048	0	
1.8040	6.31733	-3.48983	0	
1.8047	3.57982	-2.88618	0	
1.8053	3.57982	1.69775	0	
1.8060	2.35145	3.22573	0	
1.8067	3.86059	1.99958	0	
1.8073	10.2832	2.62209	0	
1.8080	15.4774	2.62209	0	
1.8087	15.4774	1.69775	0	
1.8093	13.9332	1.69775	0	
1.8100	13.3366	1.09411	0	
1.8107	12.4241	1.69775	0	
1.8113	8.14233	4.1312	0	
1.8120	1.71972	4.45189	0	
1.8127	-1.01779	3.52756	0	
1.8133	-0.386059	3.52756	0	
1.8140	-3.43943	3.52756	0	
1.8147	-8.03704	2.3014	0	
1.8153	-8.35291	1.69775	0	
1.8160	-5.5803	0.773421	0	
1.8167	-4.07117	0.471598	0	
1.8173	-5.29953	-0.132048	0	
1.8180	-9.54618	-1.3582	0	
1.8187	-12.0029	-0.433871	0	
1.8193	-9.26541	1.09411	0	
1.8200	-4.6678	0.169775	0	
1.8207	-1.61443	-1.96185	0	
1.8213	2.03558	-2.88618	0	
1.8220	7.82646	-2.88618	0	
1.8227	12.4241	-1.66003	0	
1.8233	9.96734	-1.3582	0	
1.8240	4.49232	-2.88618	0	
1.8247	3.26395	-1.96185	0	
1.8253	0.807214	0.169775	0	
1.8260	-7.72118	-0.132048	0	
1.8267	-12.9154	-0.735694	0	
1.8273	-13.2313	-1.96185	0	
1.8280	-17.4779	-5.01781	0	
1.8287	-22.988	-5.62145	0	
1.8293	-22.6722	-5.01781	0	
1.8300	-19.338	-5.62145	0	
1.8307	-15.3722	-2.88618	0	
1.8313	-14.1438	1.39593	0	
1.8320	-12.9154	-0.132048	0	
1.8327	-4.07117	-3.18801	0	
1.8333	8.73897	-1.96185	0	
1.8340	13.9332	0.471598	0	
1.8347	16.6707	2.3014	0	
1.8353	23.69	6.88534	0	
1.8360	29.5159	9.94129	0	
1.8367	29.7967	6.88534	0	
1.8373	27.0592	2.62209	0	
1.8380	22.7775	0.773421	0	
1.8387	17.6183	-0.735694	0	
1.8393	11.7923	-2.58436	0	
1.8400	7.54569	-2.88618	0	
1.8407	6.31733	-1.96185	0	
1.8413	6.00146	-1.05638	0	
1.8420	4.49232	-0.132048	0	
1.8427	4.77309	-0.132048	0	
1.8433	6.63319	-0.433871	0	
1.8440	7.22983	1.09411	0	
1.8447	10.2832	1.69775	0	
1.8453	13.0207	1.39593	0	
1.8460	9.96734	2.62209	0	
1.8467	5.08896	4.45189	0	
1.8473	2.35145	4.45189	0	
1.8480	-1.01779	4.1312	0	
1.8487	-4.35194	3.22573	0	
1.8493	-5.29953	1.09411	0	
1.8500	-6.49281	1.09411	0	
1.8507	-8.63368	2.3014	0	
1.8513	-10.1779	-0.132048	0	
1.8520	-11.0904	-2.26367	0	
1.8527	-12.0029	-0.132048	0	
1.8533	-12.3188	1.99958	0	
1.8540	-11.0904	0.471598	0	
1.8547	-8.35291	-3.18801	0	
1.8553	-8.03704	-5.92328	0	
1.8560	-10.7746	-7.14943	0	
1.8567	-13.2313	-7.77194	0	
1.8573	-12.9154	-6.54579	0	
1.8580	-10.1779	-1.96185	0	
1.8587	-9.26541	1.09411	0	
1.8593	-11.0904	0.169775	0	
1.8600	-10.1779	0.169775	0	
1.8607	-8.35291	2.62209	0	
1.8613	-13.2313	1.99958	0	
1.8620	-20.2505	-1.3582	0	
1.8627	-19.338	-1.3582	0	
1.8633	-17.4779	2.62209	0	
1.8640	-19.6188	3.82938	0	
1.8647	-18.7063	0.773421	0	
1.8653	-15.3722	-1.3582	0	
1.8660	-11.6871	0.773421	0	
1.8667	-7.40531	1.99958	0	
1.8673	-5.5803	-1.05638	0	
1.8680	-4.6678	-2.58436	0	
1.8687	-0.105289	0.773421	0	
1.8693	3.86059	1.99958	0	
1.8700	7.22983	-0.735694	0	
1.8707	14.8457	-4.09347	0	
1.8713	20.3558	-3.48983	0	
1.8720	16.0741	0.773421	0	
1.8727	8.73897	0.773421	0	
1.8733	4.17645	-4.71598	0	
1.8740	0.210578	-5.92328	0	
1.8747	-1.61443	-1.96185	0	
1.8753	0.210578	-0.735694	0	
1.8760	3.26395	-0.132048	0	
1.8767	6.31733	3.52756	0	
1.8773	8.14233	4.45189	0	
1.8780	7.82646	2.3014	0	
1.8787	4.49232	1.69775	0	
1.8793	2.66732	2.3014	0	
1.8800	9.65147	3.82938	0	
1.8807	19.1275	8.11149	0	
1.8813	19.1275	11.1486	0	
1.8820	16.39	10.5449	0	
1.8827	20.9525	9.94129	0	
1.8833	22.7775	10.8468	0	
1.8840	19.1275	7.48898	0	
1.8847	17.8991	2.3014	0	
1.8853	15.4774	0.773421	0	
1.8860	5.40482	0.169775	0	
1.8867	-7.40531	-5.62145	0	
1.8873	-15.3722	-10.2054	0	
1.8880	-18.1097	-8.97923	0	
1.8887	-19.338	-10.2054	0	
1.8893	-22.988	-16.921	0	
1.8900	-24.8131	-17.2228	0	
1.8907	-21.7597	-9.28106	0	
1.8913	-19.9347	-7.14943	0	
1.8920	-20.5313	-9.28106	0	
1.8927	-15.6529	-7.14943	0	
1.8933	-3.7553	-4.09347	0	
1.8940	9.96734	-5.62145	0	
1.8947	17.8991	-5.62145	0	
1.8953	16.6707	-1.66003	0	
1.8960	11.7923	1.39593	0	
1.8967	9.05483	-0.132048	0	
1.8973	7.22983	-2.88618	0	
1.8980	6.91396	-3.18801	0	
1.8987	8.73897	-1.3582	0	
1.8993	8.4582	-0.735694	0	
1.9000	7.22983	-0.132048	0	
1.9007	8.14233	0.471598	0	
1.9013	8.14233	0.773421	0	
1.9020	6.91396	1.39593	0	
1.9027	8.4582	2.92391	0	
1.9033	8.14233	3.52756	0	
1.9040	4.17645	2.92391	0	
1.9047	2.66732	3.52756	0	
1.9053	2.03558	3.22573	0	
1.9060	-0.701925	2.62209	0	
1.9067	-1.93029	3.22573	0	
1.9073	-0.701925	1.39593	0	
1.9080	-0.105289	-1.05638	0	
1.9087	0.807214	1.69775	0	
1.9093	1.12308	4.45189	0	
1.9100	-0.701925	2.62209	0	
1.9107	-2.8428	2.3014	0	
1.9113	-2.8428	3.22573	0	
1.9120	-3.43943	0.169775	0	
1.9127	-6.80867	-1.3582	0	
1.9133	-8.94954	1.69775	0	
1.9140	-7.40531	1.69775	0	
1.9147	-6.80867	-0.132048	0	
1.9153	-8.35291	0.773421	0	
1.9160	-6.49281	1.39593	0	
1.9167	-4.6678	0.169775	0	
1.9173	-5.5803	-0.132048	0	
1.9180	-3.7553	-0.132048	0	
1.9187	0.210578	-0.433871	0	
1.9193	2.03558	0.773421	0	
1.9200	3.57982	3.22573	0	
1.9207	6.31733	2.62209	0	
1.9213	6.91396	1.09411	0	
1.9220	3.86059	-0.132048	0	
1.9227	0.210578	-1.05638	0	
1.9233	-4.07117	-2.88618	0	
1.9240	-9.26541	-4.41416	0	
1.9247	-12.3188	-4.71598	0	
1.9253	-12.0029	-2.88618	0	
1.9260	-11.0904	-1.05638	0	
1.9267	-11.0904	-2.26367	0	
1.9273	-10.4587	-4.71598	0	
1.9280	-13.2313	-5.92328	0	
1.9287	-16.8813	-5.31963	0	
1.9293	-15.3722	-2.88618	0	
1.9300	-10.7746	-1.05638	0	
1.9307	-5.89617	-0.433871	0	
1.9313	-2.52693	1.09411	0	
1.9320	-7.40531	1.69775	0	
1.9327	-14.1438	-0.132048	0	
1.9333	-10.1779	-0.132048	0	
1.9340	-4.6678	-0.132048	0	
1.9347	-10.7746	-1.96185	0	
1.9353	-16.5654	-3.79165	0	
1.9360	-13.5121	-2.88618	0	
1.9367	-11.6871	-1.66003	0	
1.9373	-14.7404	-1.96185	0	
1.9380	-14.1438	-3.79165	0	
1.9387	-8.94954	-4.71598	0	
1.9393	-6.21204	-3.18801	0	
1.9400	-6.21204	-1.05638	0	
1.9407	6.31733	0.773421	0	
1.9413	35.6227	3.82938	0	
1.9420	57.2771	4.75371	0	
1.9427	53.9078	3.52756	0	
1.9433	38.3602	5.05554	0	
1.9440	26.7433	8.11149	0	
1.9447	20.04	7.18716	0	
1.9453	15.1616	3.82938	0	
1.9460	10.8798	2.62209	0	
1.9467	3.86059	3.52756	0	
1.9473	-4.35194	3.22573	0	
1.9480	-5.29953	0.169775	0	
1.9487	1.12308	-0.433871	0	
1.9493	5.40482	3.22573	0	
1.9500	6.31733	5.05554	0	
1.9507	12.4241	3.52756	0	
1.9513	21.2683	3.52756	0	
1.9520	22.4967	4.45189	0	
1.9527	18.215	2.62209	0	
1.9533	16.39	1.69775	0	
1.9540	15.1616	2.3014	0	
1.9547	11.7923	1.99958	0	
1.9553	9.05483	2.62209	0	
1.9560	9.96734	5.35736	0	
1.9567	10.8798	6.58351	0	
1.9573	7.22983	4.45189	0	
1.9580	3.86059	2.62209	0	
1.9587	5.40482	3.52756	0	
1.9593	6.91396	4.45189	0	
1.9600	6.91396	3.82938	0	
1.9607	7.54569	5.35736	0	
1.9613	4.77309	6.28169	0	
1.9620	-2.24616	2.92391	0	
1.9627	-8.35291	0.773421	0	
1.9633	-12.3188	2.62209	0	
1.9640	-18.1097	-0.132048	0	
1.9647	-23.9005	-6.54579	0	
1.9653	-25.7256	-7.45126	0	
1.9660	-21.4438	-3.79165	0	
1.9667	-16.5654	-2.26367	0	
1.9673	-15.9688	-2.58436	0	
1.9680	-16.2847	-2.26367	0	
1.9687	-14.4246	-1.3582	0	
1.9693	-13.8279	-0.132048	0	
1.9700	-11.3712	0.773421	0	
1.9707	-4.35194	-0.433871	0	
1.9713	-1.33366	-3.79165	0	
1.9720	-2.8428	-3.18801	0	
1.9727	-2.52693	-0.132048	0	
1.9733	-2.8428	-1.3582	0	
1.9740	-5.5803	-4.71598	0	
1.9747	-3.15866	-2.88618	0	
1.9753	-0.701925	-1.66003	0	
1.9760	-1.61443	-4.71598	0	
1.9767	0.807214	-4.41416	0	
1.9773	3.57982	-1.96185	0	
1.9780	-0.105289	-3.48983	0	
1.9787	-4.6678	-5.31963	0	
1.9793	-9.26541	-4.71598	0	
1.9800	-16.5654	-3.79165	0	
1.9807	-18.3904	-2.58436	0	
1.9813	-15.3722	-1.96185	0	
1.9820	-17.7938	-1.05638	0	
1.9827	-24.2164	-1.05638	0	
1.9833	-26.0414	-2.88618	0	
1.9840	-24.4972	-5.31963	0	
1.9847	-22.0755	-4.71598	0	
1.9853	-19.338	-3.79165	0	
1.9860	-21.4438	-4.09347	0	
1.9867	-30.0073	-5.31963	0	
1.9873	-36.4299	-8.37559	0	
1.9880	-31.5164	-9.60174	0	
1.9887	-22.3914	-4.41416	0	
1.9893	-21.163	-1.05638	0	
1.9900	-21.163	-4.41416	0	
1.9907	-14.4246	-4.71598	0	
1.9913	-7.72118	0.169775	0	
1.9920	-6.49281	1.69775	0	
1.9927	-4.35194	-0.433871	0	
1.9933	5.40482	-0.132048	0	
1.9940	26.4626	4.1312	0	
1.9947	49.6612	8.11149	0	
1.9953	54.8203	8.41332	0	
1.9960	42.0102	8.41332	0	
1.9967	32.2535	10.2431	0	
1.9973	29.2001	9.01696	0	
1.9980	27.0592	4.75371	0	
1.9987	29.5159	3.52756	0	
1.9993	35.6227	1.99958	0	
2.0000	34.3943	-1.05638	0	
2.0007	27.6909	0.471598	0	
2.0013	24.3217	2.92391	0	
2.0020	21.2683	2.62209	0	
2.0027	17.6183	3.22573	0	
2.0033	17.3025	3.52756	0	
2.0040	17.3025	1.69775	0	
2.0047	13.0207	2.3014	0	
2.0053	8.73897	1.69775	0	
2.0060	6.31733	-1.96185	0	
2.0067	6.31733	-1.66003	0	
2.0073	6.00146	0.471598	0	
2.0080	3.57982	-0.132048	0	
2.0087	1.12308	1.09411	0	
2.0093	-0.105289	3.52756	0	
2.0100	-3.15866	-0.132048	0	
2.0107	-6.49281	-3.18801	0	
2.0113	-6.49281	-0.735694	0	
2.0120	-7.40531	-0.433871	0	
2.0127	-12.0029	-3.48983	0	
2.0133	-14.4246	-3.48983	0	
2.0140	-13.8279	-1.66003	0	
2.0147	-13.5121	-0.132048	0	
2.0153	-13.5121	0.773421	0	
2.0160	-16.5654	-1.05638	0	
2.0167	-20.2505	-4.09347	0	
2.0173	-19.0222	-3.48983	0	
2.0180	-16.2847	-1.96185	0	
2.0187	-14.7404	-4.09347	0	
2.0193	-8.03704	-5.01781	0	
2.0200	0.807214	-3.79165	0	
2.0207	2.94809	-3.48983	0	
2.0213	5.68559	-0.433871	0	
2.0220	13.0207	4.45189	0	
2.0227	14.5649	2.62209	0	
2.0233	7.22983	-2.58436	0	
2.0240	0.526444	-2.88618	0	
2.0247	-1.61443	-2.88618	0	
2.0253	1.12308	-6.84761	0	
2.0260	6.63319	-7.45126	0	
2.0267	4.77309	-5.31963	0	
2.0273	-4.98367	-5.62145	0	
2.0280	-10.4587	-5.62145	0	
2.0287	-8.63368	-3.48983	0	
2.0293	-7.40531	-3.48983	0	
2.0300	-5.89617	-3.79165	0	
2.0307	1.12308	-0.132048	0	
2.0313	6.31733	3.22573	0	
2.0320	1.71972	1.09411	0	
2.0327	-6.80867	-1.05638	0	
2.0333	-11.0904	-1.96185	0	
2.0340	-11.0904	-3.79165	0	
2.0347	-8.94954	-3.48983	0	
2.0353	-6.49281	-1.96185	0	
2.0360	-4.6678	-2.58436	0	
2.0367	0.210578	-4.09347	0	
2.0373	8.4582	-5.62145	0	
2.0380	11.7923	-7.45126	0	
2.0387	9.96734	-5.31963	0	
2.0393	9.3707	-2.58436	0	
2.0400	9.96734	-3.18801	0	
2.0407	7.22983	-3.48983	0	
2.0413	4.17645	-0.433871	0	
2.0420	2.35145	1.09411	0	
2.0427	1.12308	2.62209	0	
2.0433	1.43895	3.52756	0	
2.0440	0.807214	0.169775	0	
2.0447	-1.01779	-0.433871	0	
2.0453	-0.386059	2.92391	0	
2.0460	2.35145	1.69775	0	
2.0467	2.66732	-0.132048	0	
2.0473	0.807214	4.1312	0	
2.0480	-1.61443	6.28169	0	
2.0487	-3.15866	1.69775	0	
2.0493	-1.93029	0.169775	0	
2.0500	-0.105289	1.69775	0	
2.0507	-2.8428	-0.132048	0	
2.0513	-5.5803	-1.96185	0	
2.0520	-3.7553	-1.05638	0	
2.0527	-3.7553	-0.132048	0	
2.0533	-5.29953	-0.132048	0	
2.0540	-4.6678	-1.3582	0	
2.0547	-1.93029	-2.88618	0	
2.0553	-0.105289	-2.88618	0	
2.0560	-1.01779	-4.09347	0	
2.0567	-2.52693	-4.71598	0	
2.0573	-0.701925	-2.58436	0	
2.0580	3.57982	-1.05638	0	
2.0587	3.57982	-1.96185	0	
2.0593	0.210578	0.773421	0	
2.0600	-1.93029	4.45189	0	
2.0607	-3.43943	2.62209	0	
2.0613	-3.7553	-1.05638	0	
2.0620	-2.52693	-0.433871	0	
2.0627	-3.15866	1.09411	0	
2.0633	-5.5803	1.09411	0	
2.0640	-6.80867	0.169775	0	
2.0647	-8.03704	-1.96185	0	
2.0653	-10.4587	-3.48983	0	
2.0660	-11.6871	-1.3582	0	
2.0667	-10.4587	1.69775	0	
2.0673	-9.26541	0.773421	0	
2.0680	-11.0904	-2.26367	0	
2.0687	-10.1779	-2.88618	0	
2.0693	-4.98367	-1.96185	0	
2.0700	-2.8428	-1.3582	0	
2.0707	-4.35194	-0.132048	0	
2.0713	-2.52693	1.39593	0	
2.0720	1.71972	1.69775	0	
2.0727	2.94809	4.1312	0	
2.0733	3.57982	5.65918	0	
2.0740	3.57982	3.22573	0	
2.0747	1.71972	2.62209	0	
2.0753	2.66732	5.35736	0	
2.0760	4.49232	5.961	0	
2.0767	3.57982	5.05554	0	
2.0773	2.03558	6.28169	0	
2.0780	3.57982	4.1312	0	
2.0787	5.68559	1.39593	0	
2.0793	7.22983	3.82938	0	
2.0800	5.68559	5.35736	0	
2.0807	2.35145	2.92391	0	
2.0813	0.807214	3.52756	0	
2.0820	0.807214	5.35736	0	
2.0827	-1.01779	4.1312	0	
2.0833	-3.43943	3.52756	0	
2.0840	-5.89617	4.1312	0	
2.0847	-9.54618	3.52756	0	
2.0853	-8.94954	3.22573	0	
2.0860	-4.07117	3.52756	0	
2.0867	-3.7553	3.22573	0	
2.0873	-7.40531	4.45189	0	
2.0880	-9.26541	4.45189	0	
2.0887	-12.0029	0.773421	0	
2.0893	-12.9154	-0.132048	0	
2.0900	-7.72118	0.471598	0	
2.0907	-7.40531	-2.88618	0	
2.0913	-12.0029	-5.62145	0	
2.0920	-5.5803	-2.58436	0	
2.0927	1.43895	-1.96185	0	
2.0933	-4.35194	-6.24396	0	
2.0940	-3.7553	-5.92328	0	
2.0947	9.96734	-1.66003	0	
2.0953	18.215	-1.96185	0	
2.0960	20.04	-3.18801	0	
2.0967	24.6376	-1.3582	0	
2.0973	21.2683	-0.132048	0	
2.0980	11.7923	-0.132048	0	
2.0987	14.8457	2.3014	0	
2.0993	26.7433	4.1312	0	
2.1000	30.1126	1.09411	0	
2.1007	22.7775	-2.58436	0	
2.1013	12.1082	-2.58436	0	
2.1020	6.31733	-1.05638	0	
2.1027	3.86059	-1.3582	0	
2.1033	-0.386059	-1.96185	0	
2.1040	-5.5803	-2.26367	0	
2.1047	-7.72118	-3.79165	0	
2.1053	-8.03704	-4.09347	0	
2.1060	-6.21204	-1.05638	0	
2.1067	-3.7553	0.773421	0	
2.1073	-3.7553	-1.3582	0	
2.1080	-3.7553	-3.18801	0	
2.1087	-1.33366	-3.79165	0	
2.1093	-1.01779	-3.79165	0	
2.1100	-2.52693	-2.88618	0	
2.1107	-3.15866	-2.88618	0	
2.1113	-3.7553	-1.96185	0	
2.1120	-3.15866	-0.132048	0	
2.1127	-4.07117	-0.433871	0	
2.1133	-8.35291	-1.96185	0	
2.1140	-12.3188	-3.79165	0	
2.1147	-12.3188	-5.92328	0	
2.1153	-12.0029	-7.45126	0	
2.1160	-10.7746	-5.92328	0	
2.1167	-8.63368	-4.71598	0	
2.1173	-12.5996	-4.41416	0	
2.1180	-20.2505	-2.26367	0	
2.1187	-21.7597	-0.433871	0	
2.1193	-18.7063	-1.3582	0	
2.1200	-15.6529	-1.96185	0	
2.1207	-9.86205	-1.05638	0	
2.1213	-2.8428	-0.132048	0	
2.1220	0.807214	1.09411	0	
2.1227	3.57982	2.3014	0	
2.1233	6.31733	3.22573	0	
2.1240	7.22983	1.99958	0	
2.1247	7.82646	0.773421	0	
2.1253	6.91396	1.69775	0	
2.1260	1.71972	1.69775	0	
2.1267	0.807214	-0.132048	0	
2.1273	4.49232	-0.433871	0	
2.1280	1.12308	-0.433871	0	
2.1287	-6.80867	-2.88618	0	
2.1293	-10.1779	-3.79165	0	
2.1300	-10.4587	-3.79165	0	
2.1307	-9.54618	-4.09347	0	
2.1313	-6.49281	-2.88618	0	
2.1320	-1.33366	0.773421	0	
2.1327	6.00146	1.99958	0	
2.1333	13.9332	2.92391	0	
2.1340	21.865	7.80967	0	
2.1347	28.6034	10.8468	0	
2.1353	30.1126	9.31878	0	
2.1360	26.4626	8.11149	0	
2.1367	24.0058	9.94129	0	
2.1373	22.7775	9.94129	0	
2.1380	18.215	6.28169	0	
2.1387	12.7048	4.75371	0	
2.1393	10.2832	6.88534	0	
2.1400	10.2832	6.28169	0	
2.1407	10.2832	2.62209	0	
2.1413	6.91396	0.471598	0	
2.1420	-1.93029	-2.58436	0	
2.1427	-11.0904	-6.54579	0	
2.1433	-14.7404	-8.37559	0	
2.1440	-11.0904	-8.07376	0	
2.1447	-5.5803	-9.28106	0	
2.1453	-6.80867	-8.97923	0	
2.1460	-10.1779	-5.92328	0	
2.1467	-8.35291	-3.79165	0	
2.1473	-8.35291	-3.79165	0	
2.1480	-14.1438	-4.71598	0	
2.1487	-14.1438	-6.54579	0	
2.1493	-2.52693	-5.01781	0	
2.1500	7.54569	-1.96185	0	
2.1507	7.22983	-1.3582	0	
2.1513	4.49232	-3.48983	0	
2.1520	4.77309	-4.09347	0	
2.1527	2.94809	-2.26367	0	
2.1533	0.526444	-0.433871	0	
2.1540	1.12308	0.169775	0	
2.1547	2.03558	-0.433871	0	
2.1553	0.526444	-0.735694	0	
2.1560	0.807214	1.69775	0	
2.1567	3.57982	2.92391	0	
2.1573	4.49232	0.169775	0	
2.1580	5.08896	-1.05638	0	
2.1587	8.4582	3.52756	0	
2.1593	11.7923	6.88534	0	
2.1600	12.1082	5.35736	0	
2.1607	9.05483	3.52756	0	
2.1613	3.57982	2.62209	0	
2.1620	1.43895	0.773421	0	
2.1627	1.71972	-0.132048	0	
2.1633	-1.01779	-0.132048	0	
2.1640	-5.5803	1.39593	0	
2.1647	-5.29953	1.99958	0	
2.1653	-2.8428	0.169775	0	
2.1660	-7.40531	-1.66003	0	
2.1667	-13.2313	-1.3582	0	
2.1673	-12.3188	-1.05638	0	
2.1680	-8.35291	-1.3582	0	
2.1687	-10.1779	-4.41416	0	
2.1693	-15.0563	-8.37559	0	
2.1700	-17.1972	-7.77194	0	
2.1707	-16.5654	-4.71598	0	
2.1713	-14.7404	-5.92328	0	
2.1720	-12.0029	-7.14943	0	
2.1727	-9.54618	-3.48983	0	
2.1733	-8.35291	-1.66003	0	
2.1740	-7.12454	-3.79165	0	
2.1747	-6.80867	-4.71598	0	
2.1753	-8.35291	-2.58436	0	
2.1760	-6.80867	-1.05638	0	
2.1767	-1.93029	-0.735694	0	
2.1773	1.43895	0.471598	0	
2.1780	2.03558	2.62209	0	
2.1787	2.66732	1.99958	0	
2.1793	3.86059	-0.132048	0	
2.1800	6.31733	0.169775	0	
2.1807	9.05483	2.92391	0	
2.1813	9.05483	4.45189	0	
2.1820	7.22983	4.1312	0	
2.1827	7.22983	3.82938	0	
2.1833	6.91396	3.52756	0	
2.1840	4.49232	3.22573	0	
2.1847	2.66732	1.69775	0	
2.1853	1.12308	-1.05638	0	
2.1860	-1.61443	-1.96185	0	
2.1867	-3.15866	-1.96185	0	
2.1873	-4.07117	-2.26367	0	
2.1880	-7.12454	-1.96185	0	
2.1887	-7.72118	-1.96185	0	
2.1893	-3.15866	-3.48983	0	
2.1900	-0.386059	-2.26367	0	
2.1907	-1.61443	1.99958	0	
2.1913	-1.93029	3.22573	0	
2.1920	-1.93029	-1.66003	0	
2.1927	-4.6678	-4.71598	0	
2.1933	-6.49281	-3.48983	0	
2.1940	-5.29953	-3.48983	0	
2.1947	-3.7553	-4.09347	0	
2.1953	-2.8428	-0.132048	0	
2.1960	-1.33366	5.05554	0	
2.1967	-0.105289	6.58351	0	
2.1973	0.807214	5.65918	0	
2.1980	1.43895	2.62209	0	
2.1987	1.43895	-0.132048	0	
2.1993	1.12308	0.471598	0	
2.2000	2.03558	-0.735694	0	
2.2007	2.03558	-4.41416	0	
2.2013	-0.105289	-2.88618	0	
2.2020	0.807214	1.69775	0	
2.2027	4.77309	2.62209	0	
2.2033	3.26395	3.22573	0	
2.2040	-1.93029	4.45189	0	
2.2047	-3.7553	3.82938	0	
2.2053	-3.15866	2.62209	0	
2.2060	-3.7553	2.92391	0	
2.2067	-3.15866	3.52756	0	
2.2073	-4.6678	4.75371	0	
2.2080	-8.63368	5.35736	0	
2.2087	-10.1779	3.22573	0	
2.2093	-8.94954	1.69775	0	
2.2100	-7.40531	3.52756	0	
2.2107	-4.6678	3.22573	0	
2.2113	-2.8428	0.169775	0	
2.2120	-4.07117	-0.433871	0	
2.2127	-4.6678	0.773421	0	
2.2133	-3.43943	0.773421	0	
2.2140	-3.7553	0.471598	0	
2.2147	-4.35194	1.69775	0	
2.2153	-3.43943	1.69775	0	
2.2160	-1.33366	0.471598	0	
2.2167	-1.01779	-1.05638	0	
2.2173	-1.93029	-2.26367	0	
2.2180	-1.01779	-3.79165	0	
2.2187	3.57982	-3.18801	0	
2.2193	7.22983	-0.735694	0	
2.2200	6.31733	-1.05638	0	
2.2207	7.22983	-5.62145	0	
2.2213	15.1616	-8.37559	0	
2.2220	23.4092	-5.62145	0	
2.2227	23.0933	-1.96185	0	
2.2233	19.7241	-1.66003	0	
2.2240	14.5649	-3.48983	0	
2.2247	6.31733	-3.48983	0	
2.2253	0.807214	-2.58436	0	
2.2260	1.43895	-3.79165	0	
2.2267	-1.01779	-3.79165	0	
2.2273	-5.5803	-1.05638	0	
2.2280	-5.5803	-1.3582	0	
2.2287	-2.8428	-2.88618	0	
2.2293	-0.105289	0.471598	0	
2.2300	3.57982	2.62209	0	
2.2307	3.57982	0.773421	0	
2.2313	0.807214	2.62209	0	
2.2320	2.94809	5.35736	0	
2.2327	5.40482	3.22573	0	
2.2333	5.40482	2.62209	0	
2.2340	9.05483	5.05554	0	
2.2347	13.6524	6.58351	0	
2.2353	11.7923	7.18716	0	
2.2360	8.73897	6.58351	0	
2.2367	7.82646	3.52756	0	
2.2373	2.03558	0.471598	0	
2.2380	-5.5803	-0.735694	0	
2.2387	-6.21204	-0.735694	0	
2.2393	-6.21204	0.773421	0	
2.2400	-13.5121	2.62209	0	
2.2407	-18.7063	2.3014	0	
2.2413	-17.1972	-0.132048	0	
2.2420	-14.7404	-1.05638	0	
2.2427	-11.0904	2.62209	0	
2.2433	-7.72118	4.45189	0	
2.2440	-8.03704	2.62209	0	
2.2447	-9.54618	0.471598	0	
2.2453	-10.4587	0.773421	0	
2.2460	-11.3712	-0.132048	0	
2.2467	-8.35291	-0.132048	0	
2.2473	-5.89617	0.169775	0	
2.2480	-7.72118	-2.58436	0	
2.2487	-4.35194	-6.24396	0	
2.2493	4.17645	-6.24396	0	
2.2500	5.08896	-4.71598	0	
2.2507	2.35145	-5.62145	0	
2.2513	-1.01779	-7.45126	0	
2.2520	-11.3712	-7.45126	0	
2.2527	-22.3914	-7.45126	0	
2.2533	-25.1289	-8.67741	0	
2.2540	-29.6914	-8.67741	0	
2.2547	-38.5357	-7.77194	0	
2.2553	-42.8174	-8.07376	0	
2.2560	-39.7641	-6.24396	0	
2.2567	-30.6039	-2.26367	0	
2.2573	-15.6529	-1.3582	0	
2.2580	-2.24616	-2.88618	0	
2.2587	2.66732	-1.96185	0	
2.2593	7.22983	1.99958	0	
2.2600	22.1808	5.65918	0	
2.2607	44.467	6.88534	0	
2.2613	57.2771	7.18716	0	
2.2620	55.1362	10.2431	0	
2.2627	46.8886	12.6766	0	
2.2633	38.0443	9.63947	0	
2.2640	29.7967	5.65918	0	
2.2647	24.9183	6.28169	0	
2.2653	23.0933	6.88534	0	
2.2660	21.2683	6.88534	0	
2.2667	18.5308	6.88534	0	
2.2673	16.9866	3.82938	0	
2.2680	19.1275	0.169775	0	
2.2687	22.1808	0.773421	0	
2.2693	20.04	1.69775	0	
2.2700	14.8457	0.471598	0	
2.2707	10.8798	-2.88618	0	
2.2713	4.77309	-6.54579	0	
2.2720	-1.01779	-7.14943	0	
2.2727	-1.01779	-5.62145	0	
2.2733	2.03558	-5.62145	0	
2.2740	3.26395	-6.54579	0	
2.2747	3.86059	-6.24396	0	
2.2753	2.66732	-5.62145	0	
2.2760	2.35145	-4.09347	0	
2.2767	5.40482	-1.66003	0	
2.2773	4.77309	-0.132048	0	
2.2780	-0.105289	0.773421	0	
2.2787	-1.93029	0.773421	0	
2.2793	-0.386059	-1.05638	0	
2.2800	-0.105289	-1.3582	0	
2.2807	-1.01779	-0.433871	0	
2.2813	-6.21204	-0.433871	0	
2.2820	-12.3188	-1.3582	0	
2.2827	-12.0029	-2.58436	0	
2.2833	-9.26541	-2.26367	0	
2.2840	-11.0904	1.09411	0	
2.2847	-13.8279	1.69775	0	
2.2853	-12.9154	-1.3582	0	
2.2860	-8.94954	-1.3582	0	
2.2867	-6.21204	-0.433871	0	
2.2873	-6.80867	-3.79165	0	
2.2880	-8.35291	-4.71598	0	
2.2887	-9.26541	-2.26367	0	
2.2893	-11.3712	-1.96185	0	
2.2900	-11.0904	-3.79165	0	
2.2907	-7.40531	-2.58436	0	
2.2913	-5.89617	0.169775	0	
2.2920	-7.40531	0.471598	0	
2.2927	-7.40531	-1.66003	0	
2.2933	-5.89617	-1.05638	0	
2.2940	-5.5803	1.69775	0	
2.2947	-6.21204	1.69775	0	
2.2953	-8.35291	0.169775	0	
2.2960	-9.26541	-0.132048	0	
2.2967	-7.40531	0.169775	0	
2.2973	-5.5803	1.09411	0	
2.2980	-2.8428	3.22573	0	
2.2987	0.807214	2.62209	0	
2.2993	-0.105289	0.773421	0	
2.3000	-4.6678	1.39593	0	
2.3007	-8.35291	2.62209	0	
2.3013	-10.7746	2.62209	0	
2.3020	-10.4587	1.09411	0	
2.3027	-6.49281	-0.132048	0	
2.3033	-1.93029	1.39593	0	
2.3040	2.66732	2.92391	0	
2.3047	5.40482	2.92391	0	
2.3053	1.71972	2.92391	0	
2.3060	-2.52693	1.99958	0	
2.3067	-1.01779	-1.05638	0	
2.3073	-1.01779	-2.26367	0	
2.3080	-5.5803	-0.735694	0	
2.3087	-8.35291	-0.433871	0	
2.3093	-8.94954	-1.66003	0	
2.3100	-8.63368	0.471598	0	
2.3107	-3.7553	3.52756	0	
2.3113	1.12308	2.92391	0	
2.3120	-1.01779	0.773421	0	
2.3127	-3.7553	0.169775	0	
2.3133	-1.93029	-1.05638	0	
2.3140	-1.01779	-1.96185	0	
2.3147	-2.8428	-1.66003	0	
2.3153	-3.7553	-1.05638	0	
2.3160	-2.52693	0.773421	0	
2.3167	-1.01779	4.45189	0	
2.3173	-0.105289	5.35736	0	
2.3180	1.43895	3.82938	0	
2.3187	4.77309	3.52756	0	
2.3193	8.4582	2.92391	0	
2.3200	9.05483	0.773421	0	
2.3207	6.63319	2.3014	0	
2.3213	5.40482	4.1312	0	
2.3220	6.91396	1.99958	0	
2.3227	8.4582	1.99958	0	
2.3233	9.05483	3.82938	0	
2.3240	7.82646	2.62209	0	
2.3247	2.66732	1.69775	0	
2.3253	-3.7553	2.92391	0	
2.3260	-3.7553	1.69775	0	
2.3267	-1.33366	-1.96185	0	
2.3273	-3.15866	-3.18801	0	
2.3280	-5.89617	-3.18801	0	
2.3287	-6.49281	-2.88618	0	
2.3293	-8.03704	-3.48983	0	
2.3300	-9.26541	-6.84761	0	
2.3307	-10.1779	-9.28106	0	
2.3313	-12.3188	-8.37559	0	
2.3320	-12.5996	-6.54579	0	
2.3327	-11.0904	-5.92328	0	
2.3333	-12.3188	-5.31963	0	
2.3340	-11.0904	-4.71598	0	
2.3347	-6.49281	-3.48983	0	
2.3353	-6.49281	-1.66003	0	
2.3360	-8.35291	-1.66003	0	
2.3367	-7.40531	-3.18801	0	
2.3373	-8.03704	-3.79165	0	
2.3380	-7.72118	-3.79165	0	
2.3387	-1.93029	-3.48983	0	
2.3393	3.26395	-1.96185	0	
2.3400	4.49232	0.773421	0	
2.3407	2.94809	1.69775	0	
2.3413	-1.61443	-0.433871	0	
2.3420	-1.93029	-3.79165	0	
2.3427	7.22983	-4.71598	0	
2.3433	15.1616	-2.88618	0	
2.3440	13.9332	-0.735694	0	
2.3447	11.7923	-1.05638	0	
2.3453	13.6524	-1.66003	0	
2.3460	13.0207	0.773421	0	
2.3467	8.4582	1.69775	0	
2.3473	3.86059	-0.132048	0	
2.3480	0.807214	-0.433871	0	
2.3487	-1.93029	-0.132048	0	
2.3493	-5.29953	-1.05638	0	
2.3500	-6.49281	-0.433871	0	
2.3507	-7.12454	0.169775	0	
2.3513	-8.63368	-1.66003	0	
2.3520	-6.80867	-0.735694	0	
2.3527	-3.43943	2.3014	0	
2.3533	-1.33366	0.773421	0	
2.3540	5.40482	-0.735694	0	
2.3547	16.0741	3.22573	0	
2.3553	22.7775	5.961	0	
2.3560	31.6568	5.35736	0	
2.3567	44.1511	6.58351	0	
2.3573	40.1852	7.18716	0	
2.3580	22.7775	3.82938	0	
2.3587	12.4241	0.471598	0	
2.3593	8.73897	-1.3582	0	
2.3600	1.71972	-5.01781	0	
2.3607	-5.5803	-6.54579	0	
2.3613	-7.40531	-2.58436	0	
2.3620	-6.49281	0.169775	0	
2.3627	-8.94954	-2.58436	0	
2.3633	-15.3722	-5.01781	0	
2.3640	-14.1438	-4.71598	0	
2.3647	-4.6678	-5.31963	0	
2.3653	2.66732	-5.62145	0	
2.3660	6.00146	-3.79165	0	
2.3667	4.49232	-0.132048	0	
2.3673	-1.93029	1.39593	0	
2.3680	-4.98367	-1.66003	0	
2.3687	-3.15866	-4.41416	0	
2.3693	-1.93029	-2.88618	0	
2.3700	-0.701925	-2.88618	0	
2.3707	-0.386059	-5.62145	0	
2.3713	-1.33366	-4.71598	0	
2.3720	4.49232	-1.05638	0	
2.3727	12.7048	0.471598	0	
2.3733	11.5116	1.69775	0	
2.3740	4.49232	1.69775	0	
2.3747	2.35145	-0.132048	0	
2.3753	4.77309	0.773421	0	
2.3760	6.91396	2.92391	0	
2.3767	6.00146	1.09411	0	
2.3773	2.66732	-1.05638	0	
2.3780	-0.386059	0.169775	0	
2.3787	-1.93029	-1.96185	0	
2.3793	-2.24616	-5.92328	0	
2.3800	-2.8428	-4.71598	0	
2.3807	-4.6678	-0.433871	0	
2.3813	-4.6678	0.773421	0	
2.3820	-3.7553	-0.132048	0	
2.3827	-8.94954	0.169775	0	
2.3833	-16.5654	1.99958	0	
2.3840	-19.338	2.92391	0	
2.3847	-21.4438	0.471598	0	
2.3853	-25.1289	-1.96185	0	
2.3860	-22.988	-1.05638	0	
2.3867	-15.6529	-0.433871	0	
2.3873	-14.4246	-1.3582	0	
2.3880	-17.7938	-1.66003	0	
2.3887	-17.4779	-0.433871	0	
2.3893	-13.8279	1.69775	0	
2.3900	-10.7746	1.69775	0	
2.3907	-6.21204	-0.433871	0	
2.3913	1.12308	-1.96185	0	
2.3920	10.5991	-1.05638	0	
2.3927	17.6183	-1.66003	0	
2.3933	14.8457	-1.3582	0	
2.3940	7.22983	1.09411	0	
2.3947	4.49232	1.69775	0	
2.3953	4.17645	-0.132048	0	
2.3960	2.66732	0.169775	0	
2.3967	2.66732	0.773421	0	
2.3973	2.35145	-1.05638	0	
2.3980	0.210578	-1.05638	0	
2.3987	-0.105289	2.3014	0	
2.3993	2.03558	2.3014	0	
2.4000	4.17645	-0.132048	0	
2.4007	5.68559	1.69775	0	
2.4013	5.08896	5.35736	0	
2.4020	1.12308	2.92391	0	
2.4027	-3.7553	0.471598	0	
2.4033	-6.21204	3.52756	0	
2.4040	-8.35291	7.18716	0	
2.4047	-13.8279	7.18716	0	
2.4053	-17.4779	5.35736	0	
2.4060	-13.2313	1.69775	0	
2.4067	-7.72118	-0.433871	0	
2.4073	-5.89617	1.99958	0	
2.4080	-2.8428	2.3014	0	
2.4087	1.71972	-1.96185	0	
2.4093	4.17645	-1.66003	0	
2.4100	8.14233	2.3014	0	
2.4107	14.5649	2.62209	0	
2.4113	20.04	0.773421	0	
2.4120	21.865	1.69775	0	
2.4127	19.1275	3.52756	0	
2.4133	15.4774	4.75371	0	
2.4140	15.1616	5.35736	0	
2.4147	9.05483	4.1312	0	
2.4153	-2.24616	1.09411	0	
2.4160	-4.07117	1.69775	0	
2.4167	2.66732	4.45189	0	
2.4173	2.35145	5.05554	0	
2.4180	-1.33366	4.1312	0	
2.4187	-1.01779	1.99958	0	
2.4193	-1.93029	-1.05638	0	
2.4200	-3.7553	-2.58436	0	
2.4207	-0.105289	-4.41416	0	
2.4213	3.57982	-6.54579	0	
2.4220	3.57982	-5.01781	0	
2.4227	2.66732	-2.88618	0	
2.4233	1.12308	-5.62145	0	
2.4240	-3.7553	-9.28106	0	
2.4247	-9.86205	-11.1109	0	
2.4253	-12.5996	-10.809	0	
2.4260	-10.7746	-8.07376	0	
2.4267	-7.40531	-4.71598	0	
2.4273	-5.5803	-3.79165	0	
2.4280	-3.43943	-1.3582	0	
2.4287	-1.93029	1.09411	0	
2.4293	-3.7553	0.169775	0	
2.4300	-4.07117	-1.05638	0	
2.4307	-2.8428	0.471598	0	
2.4313	-4.6678	1.39593	0	
2.4320	-6.49281	1.09411	0	
2.4327	-4.98367	0.169775	0	
2.4333	-3.7553	-0.132048	0	
2.4340	0.807214	0.169775	0	
2.4347	6.31733	-0.433871	0	
2.4353	4.49232	-1.96185	0	
2.4360	2.66732	-1.05638	0	
2.4367	7.54569	0.169775	0	
2.4373	9.96734	0.773421	0	
2.4380	7.22983	1.39593	0	
2.4387	7.22983	0.471598	0	
2.4393	7.22983	-1.66003	0	
2.4400	4.49232	-0.433871	0	
2.4407	3.26395	0.773421	0	
2.4413	3.26395	-1.05638	0	
2.4420	0.526444	-1.05638	0	
2.4427	-3.15866	1.39593	0	
2.4433	-5.5803	0.471598	0	
2.4440	-6.80867	-1.66003	0	
2.4447	-5.29953	-1.3582	0	
2.4453	-3.43943	-2.58436	0	
2.4460	-5.5803	-3.79165	0	
2.4467	-7.40531	-1.96185	0	
2.4473	-4.98367	-0.132048	0	
2.4480	-3.43943	-1.96185	0	
2.4487	-6.21204	-3.18801	0	
2.4493	-8.35291	-2.88618	0	
2.4500	-6.49281	-2.88618	0	
2.4507	-5.5803	-2.88618	0	
2.4513	-6.49281	-1.3582	0	
2.4520	-6.49281	-0.433871	0	
2.4527	-7.40531	-1.3582	0	
2.4533	-9.54618	-1.66003	0	
2.4540	-7.12454	1.69775	0	
2.4547	-1.93029	4.75371	0	
2.4553	-0.105289	4.75371	0	
2.4560	0.210578	4.45189	0	
2.4567	2.03558	6.28169	0	
2.4573	3.86059	7.18716	0	
2.4580	4.49232	5.05554	0	
2.4587	5.40482	4.45189	0	
2.4593	5.40482	5.35736	0	
2.4600	5.08896	5.35736	0	
2.4607	6.63319	5.05554	0	
2.4613	10.5991	3.82938	0	
2.4620	11.7923	1.99958	0	
2.4627	5.68559	1.69775	0	
2.4633	-1.01779	1.39593	0	
2.4640	-0.701925	-0.433871	0	
2.4647	0.210578	0.471598	0	
2.4653	-2.8428	1.69775	0	
2.4660	-4.07117	-1.05638	0	
2.4667	-2.8428	-1.05638	0	
2.4673	-1.93029	3.52756	0	
2.4680	0.807214	4.1312	0	
2.4687	0.807214	1.39593	0	
2.4693	-7.40531	-1.05638	0	
2.4700	-15.6529	-5.92328	0	
2.4707	-16.2847	-11.7334	0	
2.4713	-14.1438	-10.5072	0	
2.4720	-11.0904	-6.24396	0	
2.4727	-6.80867	-3.79165	0	
2.4733	-5.5803	-1.66003	0	
2.4740	-8.94954	-1.3582	0	
2.4747	-12.9154	-3.79165	0	
2.4753	-12.5996	-4.71598	0	
2.4760	-6.49281	-4.09347	0	
2.4767	-1.01779	-2.58436	0	
2.4773	-1.01779	-1.05638	0	
2.4780	-1.93029	-2.58436	0	
2.4787	-1.01779	-3.79165	0	
2.4793	-1.01779	-3.79165	0	
2.4800	-1.01779	-4.09347	0	
2.4807	0.807214	-3.48983	0	
2.4813	4.17645	0.471598	0	
2.4820	10.2832	2.3014	0	
2.4827	13.9332	2.92391	0	
2.4833	11.5116	4.45189	0	
2.4840	9.96734	2.3014	0	
2.4847	10.5991	-1.05638	0	
2.4853	8.4582	1.39593	0	
2.4860	4.77309	2.3014	0	
2.4867	1.71972	-0.132048	0	
2.4873	-1.93029	0.773421	0	
2.4880	-2.8428	3.22573	0	
2.4887	-1.01779	1.99958	0	
2.4893	1.71972	-0.433871	0	
2.4900	3.86059	-1.3582	0	
2.4907	4.17645	-1.96185	0	
2.4913	2.35145	-0.132048	0	
2.4920	1.71972	3.22573	0	
2.4927	2.66732	3.52756	0	
2.4933	6.31733	2.92391	0	
2.4940	8.73897	3.82938	0	
2.4947	5.68559	4.45189	0	
2.4953	4.17645	3.52756	0	
2.4960	7.22983	3.22573	0	
2.4967	6.31733	3.82938	0	
2.4973	1.43895	4.45189	0	
2.4980	-3.43943	5.05554	0	
2.4987	-7.72118	6.28169	0	
2.4993	-6.21204	4.45189	0	
2.5000	4.49232	-0.132048	0	
2.5007	10.8798	-1.05638	0	
2.5013	6.00146	1.99958	0	
2.5020	-0.386059	2.3014	0	
2.5027	-2.52693	-0.132048	0	
2.5033	-1.61443	-0.735694	0	
2.5040	0.807214	-2.58436	0	
2.5047	0.807214	-5.62145	0	
2.5053	1.43895	-4.71598	0	
2.5060	12.1082	-3.48983	0	
2.5067	27.0592	-6.24396	0	
2.5073	32.8501	-8.37559	0	
2.5080	27.6909	-7.45126	0	
2.5087	16.6707	-8.07376	0	
2.5093	6.31733	-8.37559	0	
2.5100	2.66732	-6.54579	0	
2.5107	2.94809	-5.62145	0	
2.5113	-1.93029	-6.54579	0	
2.5120	-8.94954	-5.31963	0	
2.5127	-10.1779	-4.71598	0	
2.5133	-7.40531	-5.62145	0	
2.5140	-6.21204	-5.01781	0	
2.5147	-5.29953	-4.41416	0	
2.5153	-1.61443	-5.62145	0	
2.5160	6.00146	-3.79165	0	
2.5167	12.4241	0.169775	0	
2.5173	13.0207	0.773421	0	
2.5180	9.96734	-0.735694	0	
2.5187	7.54569	1.09411	0	
2.5193	6.31733	2.62209	0	
2.5200	3.57982	1.99958	0	
2.5207	-0.105289	1.69775	0	
2.5213	-1.01779	1.39593	0	
2.5220	-0.105289	0.471598	0	
2.5227	-4.07117	0.471598	0	
2.5233	-8.94954	-0.132048	0	
2.5240	-7.40531	-1.66003	0	
2.5247	-6.49281	-0.735694	0	
2.5253	-12.0029	-0.433871	0	
2.5260	-15.9688	-1.66003	0	
2.5267	-13.8279	-0.132048	0	
2.5273	-10.1779	1.69775	0	
2.5280	-9.26541	0.471598	0	
2.5287	-7.40531	-0.132048	0	
2.5293	-2.52693	2.62209	0	
2.5300	-0.386059	3.22573	0	
2.5307	-3.7553	-0.735694	0	
2.5313	-6.49281	-3.18801	0	
2.5320	-6.80867	-2.88618	0	
2.5327	-8.94954	-1.96185	0	
2.5333	-8.63368	-2.26367	0	
2.5340	-5.5803	-1.66003	0	
2.5347	-4.35194	1.09411	0	
2.5353	-2.52693	2.62209	0	
2.5360	0.526444	0.471598	0	
2.5367	-1.01779	-1.05638	0	
2.5373	-2.8428	-0.132048	0	
2.5380	-0.105289	0.773421	0	
2.5387	2.35145	1.69775	0	
2.5393	1.71972	3.22573	0	
2.5400	0.807214	2.92391	0	
2.5407	-2.24616	1.69775	0	
2.5413	-4.98367	1.39593	0	
2.5420	-6.21204	-0.433871	0	
2.5427	-11.0904	-1.3582	0	
2.5433	-15.9688	0.773421	0	
2.5440	-11.0904	1.69775	0	
2.5447	-4.6678	0.169775	0	
2.5453	-5.5803	1.69775	0	
2.5460	-4.6678	4.45189	0	
2.5467	-2.24616	2.62209	0	
2.5473	-5.5803	-1.66003	0	
2.5480	-7.72118	-2.58436	0	
2.5487	-5.5803	-1.3582	0	
2.5493	-8.35291	-1.3582	0	
2.5500	-11.6871	-2.58436	0	
2.5507	-7.40531	-2.58436	0	
2.5513	-2.8428	-1.05638	0	
2.5520	-2.8428	0.169775	0	
2.5527	-2.8428	-0.735694	0	
2.5533	-4.35194	-2.26367	0	
2.5540	-7.12454	-1.96185	0	
2.5547	-6.80867	0.169775	0	
2.5553	-7.40531	0.773421	0	
2.5560	-10.4587	-0.132048	0	
2.5567	-12.5996	1.69775	0	
2.5573	-13.2313	4.1312	0	
2.5580	-13.2313	3.52756	0	
2.5587	-12.9154	1.39593	0	
2.5593	-15.6529	0.471598	0	
2.5600	-18.7063	0.169775	0	
2.5607	-12.3188	0.773421	0	
2.5613	1.43895	1.69775	0	
2.5620	9.65147	1.69775	0	
2.5627	12.7048	0.471598	0	
2.5633	22.7775	-0.433871	0	
2.5640	36.5352	-1.05638	0	
2.5647	37.4477	-0.433871	0	
2.5653	25.8308	1.09411	0	
2.5660	17.8991	1.99958	0	
2.5667	15.4774	2.62209	0	
2.5673	12.4241	3.52756	0	
2.5680	9.05483	3.82938	0	
2.5687	9.05483	3.52756	0	
2.5693	10.8798	3.82938	0	
2.5700	13.3366	1.99958	0	
2.5707	12.7048	0.169775	0	
2.5713	10.8798	1.09411	0	
2.5720	11.7923	1.39593	0	
2.5727	11.7923	-1.66003	0	
2.5733	6.63319	-1.96185	0	
2.5740	3.86059	-0.433871	0	
2.5747	6.91396	-2.88618	0	
2.5753	8.4582	-4.71598	0	
2.5760	8.4582	-1.96185	0	
2.5767	9.05483	-2.88618	0	
2.5773	7.22983	-6.84761	0	
2.5780	3.26395	-6.84761	0	
2.5787	0.807214	-4.09347	0	
2.5793	-1.93029	-4.41416	0	
2.5800	-4.98367	-7.14943	0	
2.5807	-5.5803	-8.37559	0	
2.5813	-5.89617	-6.24396	0	
2.5820	-4.98367	-2.26367	0	
2.5827	-3.15866	-0.735694	0	
2.5833	-6.21204	-0.735694	0	
2.5840	-12.3188	-0.132048	0	
2.5847	-14.1438	-0.735694	0	
2.5853	-11.6871	-2.88618	0	
2.5860	-8.03704	-1.96185	0	
2.5867	-4.35194	-0.132048	0	
2.5873	-4.35194	0.169775	0	
2.5880	-7.72118	1.69775	0	
2.5887	-8.63368	2.92391	0	
2.5893	-6.49281	0.773421	0	
2.5900	-5.5803	-1.96185	0	
2.5907	-7.12454	-1.96185	0	
2.5913	-7.72118	-0.735694	0	
2.5920	-5.29953	0.773421	0	
2.5927	-1.93029	2.92391	0	
2.5933	-0.701925	5.35736	0	
2.5940	0.807214	5.961	0	
2.5947	2.94809	4.45189	0	
2.5953	2.94809	3.82938	0	
2.5960	0.807214	5.35736	0	
2.5967	-0.701925	5.961	0	
2.5973	-3.15866	4.45189	0	
2.5980	-6.49281	4.45189	0	
2.5987	-7.40531	4.75371	0	
2.5993	-5.29953	1.99958	0	
2.6000	-3.7553	-1.96185	0	
2.6007	-2.8428	-1.96185	0	
2.6013	-1.93029	-0.132048	0	
2.6020	-3.7553	-2.58436	0	
2.6027	-8.35291	-4.71598	0	
2.6033	-8.63368	-1.3582	0	
2.6040	-5.89617	0.773421	0	
2.6047	-8.94954	-2.58436	0	
2.6053	-14.7404	-4.41416	0	
2.6060	-15.6529	-2.58436	0	
2.6067	-15.6529	-2.88618	0	
2.6073	-17.4779	-4.71598	0	
2.6080	-16.5654	-3.79165	0	
2.6087	-14.4246	-1.96185	0	
2.6093	-10.7746	-1.3582	0	
2.6100	-5.89617	-1.96185	0	
2.6107	-4.6678	-1.96185	0	
2.6113	-6.21204	-1.3582	0	
2.6120	-1.01779	-1.05638	0	
2.6127	6.31733	-1.66003	0	
2.6133	7.22983	-2.88618	0	
2.6140	10.5991	-3.79165	0	
2.6147	21.865	-2.88618	0	
2.6153	28.2876	-1.66003	0	
2.6160	22.7775	-1.05638	0	
2.6167	17.3025	0.471598	0	
2.6173	18.8116	-0.433871	0	
2.6180	20.6717	-4.71598	0	
2.6187	19.1275	-5.92328	0	
2.6193	15.4774	-1.66003	0	
2.6200	9.65147	-0.735694	0	
2.6207	9.96734	-3.79165	0	
2.6213	19.7241	-4.41416	0	
2.6220	24.6376	-1.05638	0	
2.6227	17.3025	1.99958	0	
2.6233	9.96734	2.62209	0	
2.6240	6.31733	0.471598	0	
2.6247	-0.105289	-1.05638	0	
2.6253	-3.7553	-0.132048	0	
2.6260	-4.6678	-1.05638	0	
2.6267	-11.0904	-5.31963	0	
2.6273	-15.6529	-5.92328	0	
2.6280	-12.5996	-4.71598	0	
2.6287	-10.4587	-5.01781	0	
2.6293	-12.5996	-4.71598	0	
2.6300	-12.0029	-3.79165	0	
2.6307	-8.94954	-5.01781	0	
2.6313	-7.40531	-3.48983	0	
2.6320	-6.49281	-0.735694	0	
2.6327	-2.52693	-1.3582	0	
2.6333	8.14233	-2.26367	0	
2.6340	18.215	0.773421	0	
2.6347	21.2683	3.22573	0	
2.6353	17.8991	0.773421	0	
2.6360	11.7923	-2.26367	0	
2.6367	5.40482	-1.3582	0	
2.6373	2.35145	0.773421	0	
2.6380	2.35145	0.773421	0	
2.6387	2.66732	0.773421	0	
2.6393	2.35145	2.3014	0	
2.6400	-0.701925	1.39593	0	
2.6407	-8.03704	0.471598	0	
2.6413	-12.0029	2.62209	0	
2.6420	-10.4587	0.773421	0	
2.6427	-10.7746	-3.18801	0	
2.6433	-13.8279	-1.3582	0	
2.6440	-14.1438	-0.433871	0	
2.6447	-14.7404	-2.58436	0	
2.6453	-18.3904	-0.132048	0	
2.6460	-18.3904	3.52756	0	
2.6467	-15.6529	1.09411	0	
2.6473	-16.5654	-1.96185	0	
2.6480	-16.2847	-1.66003	0	
2.6487	-10.7746	-1.05638	0	
2.6493	-6.21204	-1.05638	0	
2.6500	1.12308	-0.735694	0	
2.6507	13.0207	0.773421	0	
2.6513	16.39	4.75371	0	
2.6520	11.5116	6.28169	0	
2.6527	14.2491	4.45189	0	
2.6533	20.9525	4.45189	0	
2.6540	19.7241	5.35736	0	
2.6547	11.5116	3.82938	0	
2.6553	2.94809	2.92391	0	
2.6560	-2.8428	3.52756	0	
2.6567	-4.98367	2.62209	0	
2.6573	-5.5803	2.62209	0	
2.6580	-5.89617	5.35736	0	
2.6587	-9.54618	4.45189	0	
2.6593	-14.1438	1.99958	0	
2.6600	-12.9154	5.35736	0	
2.6607	-12.9154	8.11149	0	
2.6613	-21.163	1.69775	0	
2.6620	-17.1972	-4.09347	0	
2.6627	4.49232	-1.96185	0	
2.6633	15.7582	0.169775	0	
2.6640	7.82646	-1.96185	0	
2.6647	-3.15866	-4.41416	0	
2.6653	-8.94954	-3.79165	0	
2.6660	-4.6678	-0.132048	0	
2.6667	9.05483	3.22573	0	
2.6673	18.8116	2.3014	0	
2.6680	22.7775	1.69775	0	
2.6687	28.6034	3.22573	0	
2.6693	28.8842	1.69775	0	
2.6700	17.8991	-0.132048	0	
2.6707	7.82646	-0.132048	0	
2.6713	2.66732	-0.433871	0	
2.6720	-1.33366	-0.433871	0	
2.6727	-2.52693	1.69775	0	
2.6733	-2.52693	1.99958	0	
2.6740	-4.07117	1.09411	0	
2.6747	-3.7553	2.62209	0	
2.6753	-3.15866	4.45189	0	
2.6760	-6.21204	4.1312	0	
2.6767	-5.5803	0.773421	0	
2.6773	-2.52693	-2.26367	0	
2.6780	-4.07117	-1.3582	0	
2.6787	-4.6678	1.99958	0	
2.6793	0.210578	2.62209	0	
2.6800	0.807214	1.09411	0	
2.6807	-0.386059	1.09411	0	
2.6813	8.14233	0.169775	0	
2.6820	15.1616	-2.58436	0	
2.6827	9.05483	-2.88618	0	
2.6833	-3.15866	-1.05638	0	
2.6840	-10.1779	-1.3582	0	
2.6847	-8.35291	-4.71598	0	
2.6853	1.71972	-7.14943	0	
2.6860	3.57982	-9.28106	0	
2.6867	-11.3712	-13.2613	0	
2.6873	-23.5847	-13.2613	0	
2.6880	-18.7063	-8.97923	0	
2.6887	-11.0904	-7.77194	0	
2.6893	-10.1779	-7.45126	0	
2.6900	-3.43943	-3.48983	0	
2.6907	11.1957	-1.3582	0	
2.6913	19.7241	-2.58436	0	
2.6920	19.1275	-1.05638	0	
2.6927	16.9866	0.471598	0	
2.6933	14.5649	-0.433871	0	
2.6940	10.5991	0.471598	0	
2.6947	6.31733	2.62209	0	
2.6953	3.26395	2.62209	0	
2.6960	2.66732	1.99958	0	
2.6967	5.40482	3.82938	0	
2.6973	5.08896	5.961	0	
2.6980	3.26395	6.88534	0	
2.6987	4.49232	6.58351	0	
2.6993	6.63319	5.35736	0	
2.7000	4.49232	3.22573	0	
2.7007	2.94809	2.3014	0	
2.7013	2.03558	3.52756	0	
2.7020	-4.6678	4.1312	0	
2.7027	-12.0029	1.39593	0	
2.7033	-12.0029	-1.96185	0	
2.7040	-12.9154	-4.09347	0	
2.7047	-19.0222	-3.79165	0	
2.7053	-21.4438	-0.132048	0	
2.7060	-21.7597	2.3014	0	
2.7067	-25.7256	-1.05638	0	
2.7073	-28.7789	-2.58436	0	
2.7080	-27.5506	-1.66003	0	
2.7087	-27.2698	-4.09347	0	
2.7093	-26.0414	-5.01781	0	
2.7100	-19.6188	-0.433871	0	
2.7107	-9.86205	1.99958	0	
2.7113	-0.701925	-0.132048	0	
2.7120	5.68559	-1.96185	0	
2.7127	10.5991	-1.05638	0	
2.7133	14.2491	0.471598	0	
2.7140	12.7048	1.69775	0	
2.7147	7.54569	2.3014	0	
2.7153	5.40482	1.69775	0	
2.7160	6.63319	1.09411	0	
2.7167	6.31733	1.69775	0	
2.7173	4.49232	2.3014	0	
2.7180	3.57982	1.39593	0	
2.7187	5.40482	1.69775	0	
2.7193	8.14233	3.22573	0	
2.7200	8.14233	0.169775	0	
2.7207	4.49232	-4.71598	0	
2.7213	-0.105289	-4.41416	0	
2.7220	-5.29953	-0.132048	0	
2.7227	-12.0029	0.773421	0	
2.7233	-15.0563	-0.433871	0	
2.7240	-9.26541	-0.132048	0	
2.7247	0.807214	1.39593	0	
2.7253	2.94809	1.69775	0	
2.7260	-2.8428	2.62209	0	
2.7267	-7.40531	2.62209	0	
2.7273	-8.35291	-1.05638	0	
2.7280	-11.0904	-5.62145	0	
2.7287	-14.7404	-7.45126	0	
2.7293	-14.7404	-8.97923	0	
2.7300	-10.7746	-8.07376	0	
2.7307	-1.93029	-5.62145	0	
2.7313	9.05483	-5.01781	0	
2.7320	12.4241	-3.79165	0	
2.7327	7.54569	0.773421	0	
2.7333	2.66732	1.69775	0	
2.7340	2.94809	-1.3582	0	
2.7347	5.40482	-0.735694	0	
2.7353	9.05483	0.773421	0	
2.7360	11.5116	-1.05638	0	
2.7367	10.2832	-0.132048	0	
2.7373	9.05483	1.69775	0	
2.7380	10.5991	1.09411	0	
2.7387	11.7923	0.471598	0	
2.7393	10.8798	-0.132048	0	
2.7400	10.8798	-0.132048	0	
2.7407	11.7923	1.39593	0	
2.7413	12.7048	-0.433871	0	
2.7420	12.7048	-2.26367	0	
2.7427	9.05483	1.99958	0	
2.7433	3.86059	4.1312	0	
2.7440	1.43895	0.169775	0	
2.7447	2.03558	1.69775	0	
2.7453	3.26395	5.35736	0	
2.7460	3.57982	2.62209	0	
2.7467	2.66732	1.09411	0	
2.7473	0.210578	1.69775	0	
2.7480	-2.24616	-1.96185	0	
2.7487	-2.8428	-5.62145	0	
2.7493	-2.8428	-5.62145	0	
2.7500	-4.35194	-5.92328	0	
2.7507	-4.35194	-3.18801	0	
2.7513	-4.35194	0.169775	0	
2.7520	-7.72118	-1.66003	0	
2.7527	-8.63368	-2.88618	0	
2.7533	-4.6678	-1.05638	0	
2.7540	-4.35194	-3.79165	0	
2.7547	-8.35291	-7.14943	0	
2.7553	-10.4587	-4.71598	0	
2.7560	-11.0904	-3.18801	0	
2.7567	-11.0904	-4.71598	0	
2.7573	-10.1779	-3.79165	0	
2.7580	-11.3712	-3.48983	0	
2.7587	-12.0029	-5.01781	0	
2.7593	-11.0904	-5.31963	0	
2.7600	-11.3712	-4.41416	0	
2.7607	-10.1779	-3.79165	0	
2.7613	-7.72118	-1.3582	0	
2.7620	-7.72118	1.99958	0	
2.7627	-2.24616	1.39593	0	
2.7633	9.96734	-1.05638	0	
2.7640	15.7582	-0.433871	0	
2.7647	10.8798	1.69775	0	
2.7653	6.00146	1.09411	0	
2.7660	1.43895	0.169775	0	
2.7667	-5.5803	1.09411	0	
2.7673	-8.94954	0.471598	0	
2.7680	-7.12454	-1.3582	0	
2.7687	-5.5803	1.39593	0	
2.7693	-5.89617	5.35736	0	
2.7700	-5.5803	3.82938	0	
2.7707	-5.5803	1.09411	0	
2.7713	-6.80867	0.471598	0	
2.7720	-8.35291	-0.735694	0	
2.7727	-7.40531	-0.132048	0	
2.7733	-2.24616	3.82938	0	
2.7740	6.91396	4.75371	0	
2.7747	15.7582	4.45189	0	
2.7753	20.04	5.961	0	
2.7760	18.215	3.82938	0	
2.7767	13.3366	0.773421	0	
2.7773	7.22983	3.52756	0	
2.7780	2.03558	5.65918	0	
2.7787	-1.33366	2.62209	0	
2.7793	-3.7553	3.22573	0	
2.7800	-4.6678	5.961	0	
2.7807	-3.43943	3.52756	0	
2.7813	-2.52693	-0.132048	0	
2.7820	-2.24616	-0.433871	0	
2.7827	-1.33366	-0.132048	0	
2.7833	-0.105289	0.773421	0	
2.7840	2.03558	2.92391	0	
2.7847	4.49232	3.52756	0	
2.7853	3.86059	3.22573	0	
2.7860	-1.01779	1.09411	0	
2.7867	-3.43943	-0.132048	0	
2.7873	-0.105289	0.471598	0	
2.7880	3.26395	-0.132048	0	
2.7887	1.71972	-3.79165	0	
2.7893	-3.7553	-4.71598	0	
2.7900	-5.89617	-3.79165	0	
2.7907	-4.6678	-5.62145	0	
2.7913	-3.7553	-7.45126	0	
2.7920	-2.52693	-4.41416	0	
2.7927	3.26395	-1.3582	0	
2.7933	7.54569	-1.96185	0	
2.7940	3.57982	-3.48983	0	
2.7947	-1.93029	-1.66003	0	
2.7953	-3.43943	0.471598	0	
2.7960	-4.35194	0.471598	0	
2.7967	-6.80867	-0.132048	0	
2.7973	-8.63368	-0.132048	0	
2.7980	-9.86205	-0.132048	0	
2.7987	-7.40531	1.69775	0	
2.7993	0.807214	4.45189	0	
2.8000	6.63319	3.82938	0	
2.8007	4.17645	1.99958	0	
2.8013	5.68559	2.3014	0	
2.8020	18.5308	3.22573	0	
2.8027	24.9183	2.3014	0	
2.8033	14.2491	-0.132048	0	
2.8040	2.03558	-0.132048	0	
2.8047	-2.24616	0.773421	0	
2.8053	-3.7553	-0.132048	0	
2.8060	-5.5803	-1.05638	0	
2.8067	-8.35291	0.773421	0	
2.8073	-12.0029	1.69775	0	
2.8080	-10.7746	-0.735694	0	
2.8087	-7.12454	-1.3582	0	
2.8093	-5.89617	0.471598	0	
2.8100	2.03558	0.773421	0	
2.8107	16.6707	-0.132048	0	
2.8113	21.865	0.773421	0	
2.8120	16.0741	1.09411	0	
2.8127	13.6524	0.169775	0	
2.8133	17.3025	-0.132048	0	
2.8140	21.865	1.09411	0	
2.8147	21.2683	2.92391	0	
2.8153	14.5649	4.1312	0	
2.8160	9.05483	4.75371	0	
2.8167	9.3707	5.961	0	
2.8173	8.4582	6.28169	0	
2.8180	2.94809	5.05554	0	
2.8187	-1.33366	3.22573	0	
2.8193	-3.7553	1.09411	0	
2.8200	-4.98367	-0.433871	0	
2.8207	-3.7553	0.471598	0	
2.8213	-1.33366	2.92391	0	
2.8220	-0.105289	1.09411	0	
2.8227	-1.93029	-3.79165	0	
2.8233	-7.12454	-4.41416	0	
2.8240	-10.1779	-2.26367	0	
2.8247	-8.94954	-3.79165	0	
2.8253	-8.03704	-5.01781	0	
2.8260	-9.26541	-3.18801	0	
2.8267	-11.0904	-3.48983	0	
2.8273	-12.0029	-6.24396	0	
2.8280	-11.3712	-8.07376	0	
2.8287	-11.0904	-7.45126	0	
2.8293	-12.5996	-4.09347	0	
2.8300	-14.4246	-1.05638	0	
2.8307	-16.5654	-1.3582	0	
2.8313	-21.163	-2.88618	0	
2.8320	-23.9005	-2.26367	0	
2.8327	-20.8472	-1.3582	0	
2.8333	-15.6529	-1.05638	0	
2.8340	-10.7746	-1.66003	0	
2.8347	-5.89617	-1.3582	0	
2.8353	-1.33366	0.773421	0	
2.8360	2.66732	1.39593	0	
2.8367	3.57982	-0.735694	0	
2.8373	3.26395	-1.66003	0	
2.8380	6.31733	-1.96185	0	
2.8387	10.8798	-2.88618	0	
2.8393	11.7923	-0.132048	0	
2.8400	11.7923	2.62209	0	
2.8407	9.65147	-2.26367	0	
2.8413	-1.01779	-7.14943	0	
2.8420	-11.0904	-3.79165	0	
2.8427	-8.03704	0.169775	0	
2.8433	-1.01779	1.09411	0	
2.8440	-4.07117	2.3014	0	
2.8447	-9.86205	2.3014	0	
2.8453	-11.6871	-0.433871	0	
2.8460	-9.26541	-2.88618	0	
2.8467	-0.701925	-2.88618	0	
2.8473	9.05483	-0.735694	0	
2.8480	9.3707	1.69775	0	
2.8487	4.49232	1.39593	0	
2.8493	4.49232	-1.66003	0	
2.8500	7.22983	-2.58436	0	
2.8507	7.54569	-1.96185	0	
2.8513	9.05483	-3.79165	0	
2.8520	9.3707	-4.71598	0	
2.8527	8.14233	-2.58436	0	
2.8533	9.05483	-1.96185	0	
2.8540	9.05483	-3.18801	0	
2.8547	7.22983	-2.26367	0	
2.8553	7.22983	-1.05638	0	
2.8560	9.96734	-0.735694	0	
2.8567	9.05483	1.39593	0	
2.8573	6.31733	3.52756	0	
2.8580	5.68559	2.92391	0	
2.8587	3.57982	0.773421	0	
2.8593	-0.386059	-1.3582	0	
2.8600	-3.15866	-2.88618	0	
2.8607	-6.80867	-3.18801	0	
2.8613	-10.4587	-3.79165	0	
2.8620	-12.0029	-3.79165	0	
2.8627	-13.8279	-3.79165	0	
2.8633	-15.0563	-5.01781	0	
2.8640	-12.0029	-4.71598	0	
2.8647	-7.40531	-1.66003	0	
2.8653	-3.7553	-1.96185	0	
2.8660	-0.701925	-2.88618	0	
2.8667	-0.105289	-0.132048	0	
2.8673	2.66732	1.09411	0	
2.8680	7.22983	-0.132048	0	
2.8687	5.68559	1.69775	0	
2.8693	-0.386059	1.69775	0	
2.8700	-2.24616	-1.05638	0	
2.8707	-2.8428	0.471598	0	
2.8713	-3.15866	3.52756	0	
2.8720	1.43895	2.92391	0	
2.8727	4.77309	1.99958	0	
2.8733	2.94809	1.99958	0	
2.8740	2.35145	-0.735694	0	
2.8747	2.94809	-1.96185	0	
2.8753	0.526444	-1.66003	0	
2.8760	-2.8428	-3.79165	0	
2.8767	-4.35194	-4.71598	0	
2.8773	-4.07117	-2.58436	0	
2.8780	-3.15866	-1.96185	0	
2.8787	-4.6678	-0.433871	0	
2.8793	-8.94954	2.3014	0	
2.8800	-12.0029	1.39593	0	
2.8807	-13.5121	-0.433871	0	
2.8813	-13.8279	2.62209	0	
2.8820	-12.9154	5.05554	0	
2.8827	-8.63368	3.52756	0	
2.8833	-1.93029	1.69775	0	
2.8840	0.807214	0.773421	0	
2.8847	-2.8428	0.169775	0	
2.8853	-4.98367	0.773421	0	
2.8860	-2.24616	1.39593	0	
2.8867	0.807214	1.99958	0	
2.8873	7.22983	4.1312	0	
2.8880	17.8991	5.35736	0	
2.8887	20.9525	4.45189	0	
2.8893	13.3366	1.69775	0	
2.8900	5.08896	-1.05638	0	
2.8907	-0.105289	-1.05638	0	
2.8913	-1.93029	1.09411	0	
2.8920	1.12308	2.3014	0	
2.8927	6.31733	1.99958	0	
2.8933	10.5991	2.3014	0	
2.8940	14.8457	1.69775	0	
2.8947	16.0741	1.69775	0	
2.8953	13.0207	5.05554	0	
2.8960	14.2491	6.58351	0	
2.8967	20.04	4.1312	0	
2.8973	21.5842	5.35736	0	
2.8980	19.4433	9.94129	0	
2.8987	17.8991	9.31878	0	
2.8993	12.7048	6.28169	0	
2.9000	6.63319	5.35736	0	
2.9007	6.00146	3.52756	0	
2.9013	5.08896	0.773421	0	
2.9020	-2.8428	-2.58436	0	
2.9027	-9.86205	-7.14943	0	
2.9033	-11.3712	-8.37559	0	
2.9040	-11.6871	-6.24396	0	
2.9047	-10.7746	-6.24396	0	
2.9053	-8.03704	-5.31963	0	
2.9060	-5.29953	-3.48983	0	
2.9067	-4.6678	-4.41416	0	
2.9073	-9.54618	-4.71598	0	
2.9080	-15.6529	-3.18801	0	
2.9087	-12.9154	-2.88618	0	
2.9093	-7.40531	-2.88618	0	
2.9100	-6.49281	-1.3582	0	
2.9107	-5.5803	-1.66003	0	
2.9113	-4.35194	-1.96185	0	
2.9120	-6.80867	-1.05638	0	
2.9127	-10.1779	-1.66003	0	
2.9133	-11.0904	-3.79165	0	
2.9140	-13.5121	-5.62145	0	
2.9147	-16.2847	-4.71598	0	
2.9153	-14.7404	-2.88618	0	
2.9160	-12.0029	-4.71598	0	
2.9167	-11.3712	-6.54579	0	
2.9173	-11.3712	-3.79165	0	
2.9180	-9.26541	-1.96185	0	
2.9187	-4.98367	-2.58436	0	
2.9193	0.807214	-1.96185	0	
2.9200	5.68559	-1.66003	0	
2.9207	7.22983	-1.66003	0	
2.9213	7.82646	-0.132048	0	
2.9220	11.1957	-0.132048	0	
2.9227	15.4774	-0.433871	0	
2.9233	16.9866	1.09411	0	
2.9240	17.3025	2.3014	0	
2.9247	13.6524	1.69775	0	
2.9253	5.40482	1.09411	0	
2.9260	2.66732	0.773421	0	
2.9267	7.22983	0.169775	0	
2.9273	7.82646	-0.132048	0	
2.9280	5.40482	0.169775	0	
2.9287	5.08896	1.39593	0	
2.9293	3.57982	2.62209	0	
2.9300	0.210578	1.99958	0	
2.9307	-1.01779	0.169775	0	
2.9313	-3.7553	-1.3582	0	
2.9320	-7.40531	-1.66003	0	
2.9327	-9.26541	-1.3582	0	
2.9333	-11.6871	-2.88618	0	
2.9340	-15.6529	-2.88618	0	
2.9347	-18.3904	1.09411	0	
2.9353	-14.7404	3.52756	0	
2.9360	-3.7553	1.39593	0	
2.9367	8.4582	1.39593	0	
2.9373	14.2491	3.82938	0	
2.9380	13.6524	2.62209	0	
2.9387	10.5991	1.69775	0	
2.9393	6.91396	2.62209	0	
2.9400	5.68559	-1.05638	0	
2.9407	5.40482	-2.88618	0	
2.9413	2.94809	1.09411	0	
2.9420	2.66732	0.169775	0	
2.9427	3.57982	-2.88618	0	
2.9433	1.71972	0.773421	0	
2.9440	-0.105289	3.22573	0	
2.9447	1.43895	-0.433871	0	
2.9453	2.66732	-1.05638	0	
2.9460	1.12308	0.773421	0	
2.9467	-0.701925	0.773421	0	
2.9473	-2.24616	0.169775	0	
2.9480	-2.8428	0.773421	0	
