0.0000	-12.3684	-5.11329	1
0.0007	-16.6434	-3.89683	0	
0.0013	-15.122	-4.82464	0	
0.0020	-12.6727	-6.04111	0	
0.0027	-11.4556	-4.82464	0	
0.0033	-7.78921	-2.06181	0	
0.0040	-2.29721	-0.536071	0	
0.0047	4.10759	2.20614	0	
0.0053	9.5996	4.32981	0	
0.0060	11.4404	2.80406	0	
0.0067	12.3532	1.27832	0	
0.0073	13.5703	2.20614	0	
0.0080	10.5124	1.89687	0	
0.0087	5.02039	-1.46389	0	
0.0093	3.19479	-2.98963	0	
0.0100	5.32466	0.680398	0	
0.0107	6.8612	4.32981	0	
0.0113	7.16547	5.25762	0	
0.0120	8.07827	4.94835	0	
0.0127	8.6868	5.25762	0	
0.0133	9.29533	5.25762	0	
0.0140	8.07827	4.32981	0	
0.0147	4.10759	1.5876	0	
0.0153	2.282	0.680398	0	
0.0160	2.89053	0.680398	0	
0.0167	-0.167346	-1.77316	0	
0.0173	-5.96362	-3.89683	0	
0.0180	-8.09348	-4.2061	0	
0.0187	-8.39775	-5.42257	0	
0.0193	-7.48495	-5.73184	0	
0.0200	-5.05082	-4.51537	0	
0.0207	-8.09348	-6.04111	0	
0.0213	-16.0348	-8.78332	0	
0.0220	-16.6434	-6.63904	0	
0.0227	-15.122	-2.98963	0	
0.0233	-16.9476	-0.845343	0	
0.0240	-11.4556	1.5876	0	
0.0247	-2.29721	4.32981	0	
0.0253	-3.81854	5.25762	0	
0.0260	-5.96362	3.42261	0	
0.0267	-2.29721	1.27832	0	
0.0273	-0.471613	0.0618544	0	
0.0280	-4.12281	0.680398	0	
0.0287	-10.8471	0.98967	0	
0.0293	-18.1647	0.0618544	0	
0.0300	-21.5268	0.0618544	0	
0.0307	-22.4396	1.89687	0	
0.0313	-21.8311	3.11334	0	
0.0320	-14.8178	3.73188	0	
0.0327	-7.78921	2.80406	0	
0.0333	-11.1514	-0.536071	0	
0.0340	-16.0348	-2.37108	0	
0.0347	-13.8898	0.0618544	0	
0.0353	-5.96362	1.89687	0	
0.0360	9.29533	0.371126	0	
0.0367	27.0036	-1.77316	0	
0.0373	30.6548	-2.98963	0	
0.0380	20.5836	-3.89683	0	
0.0387	11.4404	-2.06181	0	
0.0393	6.55694	0.371126	0	
0.0400	3.19479	0.371126	0	
0.0407	6.8612	-1.77316	0	
0.0413	16.0044	-4.2061	0	
0.0420	19.6708	-5.73184	0	
0.0427	14.7873	-6.63904	0	
0.0433	8.6868	-6.63904	0	
0.0440	5.02039	-5.73184	0	
0.0447	2.89053	-7.25758	0	
0.0453	2.58626	-7.87612	0	
0.0460	3.19479	-5.11329	0	
0.0467	2.282	-3.2989	0	
0.0473	2.282	-2.98963	0	
0.0480	5.32466	-0.536071	0	
0.0487	6.8612	1.27832	0	
0.0493	8.6868	0.98967	0	
0.0500	12.3532	3.73188	0	
0.0507	10.5124	7.09263	0	
0.0513	5.02039	5.25762	0	
0.0520	2.89053	0.98967	0	
0.0527	-1.68868	-0.536071	0	
0.0533	-10.5428	-0.247417	0	
0.0540	-12.3684	-0.247417	0	
0.0547	-10.5428	-1.15461	0	
0.0553	-10.8471	-2.68036	0	
0.0560	-8.09348	-2.06181	0	
0.0567	-4.74655	-1.46389	0	
0.0573	-8.70201	-2.37108	0	
0.0580	-14.8178	-2.98963	0	
0.0587	-14.194	-3.2989	0	
0.0593	-9.63002	-2.68036	0	
0.0600	-7.18068	0.98967	0	
0.0607	-5.05082	1.5876	0	
0.0613	1.06493	-2.06181	0	
0.0620	7.16547	-2.68036	0	
0.0627	9.5996	1.27832	0	
0.0633	9.29533	2.80406	0	
0.0640	6.55694	1.5876	0	
0.0647	4.10759	1.27832	0	
0.0653	3.49906	2.20614	0	
0.0660	1.97773	3.11334	0	
0.0667	-0.471613	0.98967	0	
0.0673	0.441186	-1.15461	0	
0.0680	-1.08014	1.5876	0	
0.0687	-6.26788	1.89687	0	
0.0693	-8.70201	-4.82464	0	
0.0700	-8.70201	-7.56685	0	
0.0707	-8.70201	-3.89683	0	
0.0713	-5.96362	-3.89683	0	
0.0720	-3.21001	-6.63904	0	
0.0727	-6.26788	-7.25758	0	
0.0733	-11.4556	-7.87612	0	
0.0740	-12.3684	-8.78332	0	
0.0747	-12.6727	-5.73184	0	
0.0753	-14.5135	-2.06181	0	
0.0760	-14.8178	-1.77316	0	
0.0767	-11.1514	-1.15461	0	
0.0773	-7.48495	2.51541	0	
0.0780	-6.87642	4.04115	0	
0.0787	-4.12281	3.11334	0	
0.0793	4.10759	3.42261	0	
0.0800	9.90386	4.32981	0	
0.0807	12.6575	4.32981	0	
0.0813	16.0044	5.85555	0	
0.0820	15.7001	6.47409	0	
0.0827	12.3532	4.63908	0	
0.0833	13.8745	3.42261	0	
0.0840	17.8452	2.80406	0	
0.0847	17.2367	2.51541	0	
0.0853	13.8745	5.85555	0	
0.0860	12.3532	7.99983	0	
0.0867	8.07827	2.20614	0	
0.0873	0.13692	-4.82464	0	
0.0880	-5.35508	-6.35038	0	
0.0887	-6.26788	-5.42257	0	
0.0893	-6.57215	-6.35038	0	
0.0900	-5.35508	-7.87612	0	
0.0907	0.441186	-6.35038	0	
0.0913	3.19479	-1.77316	0	
0.0920	-4.74655	-0.247417	0	
0.0927	-11.4556	-1.15461	0	
0.0933	-9.63002	0.371126	0	
0.0940	-9.93429	0.98967	0	
0.0947	-19.0775	-1.46389	0	
0.0953	-27.6274	-2.06181	0	
0.0960	-27.3231	-0.247417	0	
0.0967	-22.4396	-0.247417	0	
0.0973	-23.961	-2.68036	0	
0.0980	-30.0767	-4.82464	0	
0.0987	-29.7572	-5.42257	0	
0.0993	-23.3524	-6.04111	0	
0.1000	-20.9183	-6.63904	0	
0.1007	-19.0775	-4.82464	0	
0.1013	-14.194	-3.89683	0	
0.1020	-11.7599	-7.25758	0	
0.1027	-9.31054	-8.47405	0	
0.1033	-2.90574	-3.89683	0	
0.1040	-0.471613	-2.68036	0	
0.1047	0.13692	-3.89683	0	
0.1053	12.6575	-0.247417	0	
0.1060	31.8871	4.94835	0	
0.1067	38.2919	5.56689	0	
0.1073	33.1042	4.94835	0	
0.1080	32.7999	5.85555	0	
0.1087	38.9004	6.78336	0	
0.1093	40.726	7.69056	0	
0.1100	40.726	9.2163	0	
0.1107	40.1175	9.83485	0	
0.1113	32.1914	7.69056	0	
0.1120	19.6708	4.32981	0	
0.1127	13.5703	4.04115	0	
0.1133	11.7447	3.42261	0	
0.1140	7.774	-1.77316	0	
0.1147	3.19479	-6.35038	0	
0.1153	-1.38441	-5.42257	0	
0.1160	-7.78921	-3.89683	0	
0.1167	-12.3684	-5.73184	0	
0.1173	-12.3684	-7.56685	0	
0.1180	-11.4556	-6.63904	0	
0.1187	-13.5855	-8.47405	0	
0.1193	-15.4263	-11.2163	0	
0.1200	-13.5855	-10.6183	0	
0.1207	-9.63002	-8.47405	0	
0.1213	-8.09348	-6.63904	0	
0.1220	-8.70201	-3.89683	0	
0.1227	-9.00628	-3.58755	0	
0.1233	-9.00628	-4.51537	0	
0.1240	-12.0642	-2.37108	0	
0.1247	-16.9476	0.680398	0	
0.1253	-18.469	2.51541	0	
0.1260	-16.0348	3.73188	0	
0.1267	-14.194	2.80406	0	
0.1273	-13.8898	2.20614	0	
0.1280	-13.2812	3.42261	0	
0.1287	-12.3684	2.51541	0	
0.1293	-8.39775	0.0618544	0	
0.1300	-0.167346	2.20614	0	
0.1307	4.10759	3.42261	0	
0.1313	2.282	0.98967	0	
0.1320	0.441186	0.371126	0	
0.1327	-4.12281	-1.46389	0	
0.1333	-11.4556	-5.42257	0	
0.1340	-7.78921	-4.82464	0	
0.1347	2.282	-2.06181	0	
0.1353	0.441186	-2.98963	0	
0.1360	-8.09348	-5.42257	0	
0.1367	-5.65935	-5.73184	0	
0.1373	2.58626	-5.11329	0	
0.1380	3.49906	-2.68036	0	
0.1387	-1.68868	1.27832	0	
0.1393	-4.12281	2.51541	0	
0.1400	0.13692	0.371126	0	
0.1407	7.774	-1.46389	0	
0.1413	11.4404	-0.536071	0	
0.1420	7.16547	-1.15461	0	
0.1427	-0.167346	-5.11329	0	
0.1433	-1.38441	-6.63904	0	
0.1440	0.745452	-6.63904	0	
0.1447	-0.167346	-7.56685	0	
0.1453	-3.21001	-6.63904	0	
0.1460	-4.12281	-1.77316	0	
0.1467	-3.21001	-0.247417	0	
0.1473	-1.38441	-1.46389	0	
0.1480	-1.38441	-0.845343	0	
0.1487	-2.90574	-0.536071	0	
0.1493	-5.05082	-1.15461	0	
0.1500	-5.96362	1.89687	0	
0.1507	-4.12281	3.11334	0	
0.1513	1.3692	-1.15461	0	
0.1520	5.02039	-4.2061	0	
0.1527	0.745452	-0.536071	0	
0.1533	-3.21001	3.42261	0	
0.1540	-2.60148	3.42261	0	
0.1547	-2.60148	4.32981	0	
0.1553	-6.26788	7.09263	0	
0.1560	-7.48495	5.25762	0	
0.1567	-3.21001	0.680398	0	
0.1573	3.49906	-0.247417	0	
0.1580	8.6868	1.27832	0	
0.1587	8.99106	2.20614	0	
0.1593	5.32466	1.89687	0	
0.1600	2.282	2.20614	0	
0.1607	5.93319	4.32981	0	
0.1613	12.3532	4.94835	0	
0.1620	11.7447	2.80406	0	
0.1627	4.71613	3.42261	0	
0.1633	0.13692	5.56689	0	
0.1640	-1.38441	5.25762	0	
0.1647	-3.81854	4.32981	0	
0.1653	-4.44229	4.94835	0	
0.1660	-5.05082	0.98967	0	
0.1667	-9.31054	-3.2989	0	
0.1673	-15.122	-2.37108	0	
0.1680	-20.614	-1.15461	0	
0.1687	-23.6567	-1.77316	0	
0.1693	-17.2519	-0.845343	0	
0.1700	-6.26788	0.680398	0	
0.1707	-3.21001	-1.15461	0	
0.1713	-1.38441	-1.77316	0	
0.1720	5.02039	-0.536071	0	
0.1727	6.25267	-1.15461	0	
0.1733	3.80333	-1.46389	0	
0.1740	5.93319	1.5876	0	
0.1747	8.6868	3.42261	0	
0.1753	7.46973	0.680398	0	
0.1760	4.10759	-0.845343	0	
0.1767	-0.167346	0.98967	0	
0.1773	-4.44229	0.680398	0	
0.1780	-7.48495	-1.15461	0	
0.1787	-10.5428	0.371126	0	
0.1793	-13.2812	3.73188	0	
0.1800	-10.8471	4.94835	0	
0.1807	-4.12281	3.42261	0	
0.1813	3.19479	1.5876	0	
0.1820	8.99106	2.80406	0	
0.1827	10.5124	4.63908	0	
0.1833	4.10759	1.5876	0	
0.1840	-9.93429	-2.68036	0	
0.1847	-16.9476	-3.2989	0	
0.1853	-10.5428	-0.536071	0	
0.1860	-2.90574	2.51541	0	
0.1867	-1.68868	3.11334	0	
0.1873	-4.12281	1.5876	0	
0.1880	-5.05082	2.51541	0	
0.1887	-2.29721	6.16482	0	
0.1893	1.67346	7.09263	0	
0.1900	9.5996	4.94835	0	
0.1907	24.25	3.73188	0	
0.1913	37.9876	5.25762	0	
0.1920	39.8132	7.38129	0	
0.1927	33.1042	7.69056	0	
0.1933	27.3079	6.16482	0	
0.1940	21.5116	5.56689	0	
0.1947	13.5703	3.42261	0	
0.1953	7.774	-0.536071	0	
0.1960	5.62892	-1.15461	0	
0.1967	1.3692	-0.247417	0	
0.1973	-7.78921	-4.82464	0	
0.1980	-16.0348	-8.47405	0	
0.1987	-18.7732	-5.11329	0	
0.1993	-20.614	-3.89683	0	
0.2000	-21.2226	-6.35038	0	
0.2007	-14.194	-4.51537	0	
0.2013	-4.74655	-0.845343	0	
0.2020	-1.68868	-2.37108	0	
0.2027	0.441186	-3.58755	0	
0.2033	5.93319	-2.06181	0	
0.2040	5.93319	-3.89683	0	
0.2047	-0.471613	-5.73184	0	
0.2053	-6.26788	-5.11329	0	
0.2060	-10.5428	-7.56685	0	
0.2067	-11.1514	-9.69052	0	
0.2073	-8.09348	-7.25758	0	
0.2080	-6.87642	-3.89683	0	
0.2087	-5.35508	-3.2989	0	
0.2093	0.441186	-3.2989	0	
0.2100	3.19479	-2.98963	0	
0.2107	-1.08014	-1.46389	0	
0.2113	-3.81854	-1.15461	0	
0.2120	-4.74655	-2.37108	0	
0.2127	-8.70201	-1.46389	0	
0.2133	-11.7599	0.680398	0	
0.2140	-15.122	-1.15461	0	
0.2147	-19.7012	-3.89683	0	
0.2153	-20.9183	-3.89683	0	
0.2160	-20.614	-2.68036	0	
0.2167	-22.4396	-3.89683	0	
0.2173	-20.9183	-6.63904	0	
0.2180	-15.7306	-6.35038	0	
0.2187	-12.3684	-2.68036	0	
0.2193	-8.39775	-0.536071	0	
0.2200	-0.775879	-0.536071	0	
0.2207	2.282	0.680398	0	
0.2213	1.97773	1.5876	0	
0.2220	5.93319	1.27832	0	
0.2227	9.29533	3.42261	0	
0.2233	8.38253	5.85555	0	
0.2240	11.1361	4.32981	0	
0.2247	17.8452	6.16482	0	
0.2253	19.3665	10.742	0	
0.2260	19.6708	10.1441	0	
0.2267	21.8159	6.16482	0	
0.2273	17.8452	6.78336	0	
0.2280	10.8167	8.3091	0	
0.2287	9.29533	6.78336	0	
0.2293	8.6868	4.04115	0	
0.2300	6.8612	2.80406	0	
0.2307	4.71613	5.25762	0	
0.2313	-1.38441	7.99983	0	
0.2320	-5.05082	6.47409	0	
0.2327	-1.08014	5.25762	0	
0.2333	2.58626	7.09263	0	
0.2340	3.19479	5.25762	0	
0.2347	5.32466	-0.536071	0	
0.2353	1.3692	-2.98963	0	
0.2360	-10.8471	-2.06181	0	
0.2367	-17.8604	-2.98963	0	
0.2373	-15.4263	-6.04111	0	
0.2380	-5.96362	-6.94831	0	
0.2387	8.6868	-2.98963	0	
0.2393	12.9617	0.0618544	0	
0.2400	-0.167346	-4.51537	0	
0.2407	-9.31054	-10.9276	0	
0.2413	-5.96362	-9.69052	0	
0.2420	-5.96362	-6.63904	0	
0.2427	-11.1514	-7.25758	0	
0.2433	-11.4556	-6.04111	0	
0.2440	-9.63002	-3.58755	0	
0.2447	-5.35508	-2.37108	0	
0.2453	2.282	-1.46389	0	
0.2460	3.49906	-0.536071	0	
0.2467	1.06493	-0.247417	0	
0.2473	7.46973	0.680398	0	
0.2480	12.6575	2.51541	0	
0.2487	7.16547	3.73188	0	
0.2493	5.93319	4.94835	0	
0.2500	14.4831	7.09263	0	
0.2507	18.758	9.52557	0	
0.2513	22.1201	8.3091	0	
0.2520	32.4956	4.32981	0	
0.2527	32.1914	2.51541	0	
0.2533	13.8745	2.51541	0	
0.2540	-2.90574	-1.46389	0	
0.2547	-8.70201	-6.04111	0	
0.2553	-13.2812	-7.25758	0	
0.2560	-18.1647	-6.94831	0	
0.2567	-20.614	-4.51537	0	
0.2573	-22.4396	-0.536071	0	
0.2580	-22.4396	-0.247417	0	
0.2587	-18.7732	-1.46389	0	
0.2593	-13.5855	-1.15461	0	
0.2600	-9.00628	0.371126	0	
0.2607	-5.05082	0.98967	0	
0.2613	-1.08014	-1.77316	0	
0.2620	3.80333	-6.04111	0	
0.2627	8.6868	-4.82464	0	
0.2633	10.5124	1.27832	0	
0.2640	8.38253	3.11334	0	
0.2647	5.02039	-0.536071	0	
0.2653	5.62892	-1.46389	0	
0.2660	9.5996	1.89687	0	
0.2667	12.9617	3.73188	0	
0.2673	11.7447	1.89687	0	
0.2680	8.38253	1.5876	0	
0.2687	4.10759	3.11334	0	
0.2693	1.3692	0.680398	0	
0.2700	1.67346	-2.98963	0	
0.2707	4.10759	-1.15461	0	
0.2713	5.93319	1.5876	0	
0.2720	5.02039	-1.46389	0	
0.2727	-1.99294	-4.51537	0	
0.2733	-10.2386	-2.98963	0	
0.2740	-12.3684	-2.98963	0	
0.2747	-13.2812	-4.51537	0	
0.2753	-18.1647	-3.89683	0	
0.2760	-20.9183	-4.51537	0	
0.2767	-16.0348	-7.56685	0	
0.2773	-10.2386	-6.63904	0	
0.2780	-10.5428	-2.06181	0	
0.2787	-14.8178	-2.37108	0	
0.2793	-16.3391	-5.73184	0	
0.2800	-12.0642	-3.2989	0	
0.2807	-5.96362	0.371126	0	
0.2813	-4.12281	-0.845343	0	
0.2820	-4.74655	-2.37108	0	
0.2827	-3.21001	-1.15461	0	
0.2833	-1.68868	0.371126	0	
0.2840	0.441186	1.89687	0	
0.2847	4.10759	3.11334	0	
0.2853	5.62892	1.5876	0	
0.2860	6.55694	2.20614	0	
0.2867	9.29533	4.32981	0	
0.2873	6.8612	1.89687	0	
0.2880	-3.21001	-1.15461	0	
0.2887	-8.39775	-1.15461	0	
0.2893	-5.05082	-1.15461	0	
0.2900	0.745452	0.0618544	0	
0.2907	5.02039	2.80406	0	
0.2913	2.282	1.27832	0	
0.2920	-3.51427	-1.46389	0	
0.2927	-3.51427	-1.46389	0	
0.2933	-0.775879	-2.98963	0	
0.2940	-3.21001	-4.82464	0	
0.2947	-8.09348	-1.46389	0	
0.2953	-5.96362	2.20614	0	
0.2960	3.49906	3.42261	0	
0.2967	6.25267	4.94835	0	
0.2973	-4.12281	4.32981	0	
0.2980	-9.63002	2.20614	0	
0.2987	-0.167346	2.51541	0	
0.2993	4.10759	1.27832	0	
0.3000	-3.81854	-2.37108	0	
0.3007	-5.96362	-3.2989	0	
0.3013	-0.471613	-3.58755	0	
0.3020	0.13692	-5.73184	0	
0.3027	-1.38441	-6.63904	0	
0.3033	0.441186	-4.82464	0	
0.3040	4.10759	-4.2061	0	
0.3047	7.16547	-4.51537	0	
0.3053	9.5996	-3.89683	0	
0.3060	8.6868	-2.98963	0	
0.3067	6.8612	-3.2989	0	
0.3073	7.16547	-3.2989	0	
0.3080	9.29533	-2.06181	0	
0.3087	8.99106	-1.77316	0	
0.3093	5.93319	0.680398	0	
0.3100	2.89053	5.85555	0	
0.3107	1.06493	5.85555	0	
0.3113	-0.471613	1.5876	0	
0.3120	0.13692	0.680398	0	
0.3127	1.3692	1.5876	0	
0.3133	-0.471613	1.5876	0	
0.3140	-4.44229	2.20614	0	
0.3147	-6.26788	-1.46389	0	
0.3153	-5.96362	-5.73184	0	
0.3160	-5.35508	-3.89683	0	
0.3167	-4.44229	-2.37108	0	
0.3173	-3.21001	-4.51537	0	
0.3180	-1.38441	-2.98963	0	
0.3187	-0.167346	-2.06181	0	
0.3193	-2.60148	-3.58755	0	
0.3200	-6.87642	-1.46389	0	
0.3207	-9.63002	-0.247417	0	
0.3213	-8.70201	-2.37108	0	
0.3220	-0.471613	-1.15461	0	
0.3227	11.4404	0.98967	0	
0.3233	15.0916	-0.845343	0	
0.3240	13.266	-1.15461	0	
0.3247	12.3532	-1.15461	0	
0.3253	7.16547	-6.63904	0	
0.3260	-2.90574	-10.3091	0	
0.3267	-5.05082	-8.47405	0	
0.3273	0.441186	-3.89683	0	
0.3280	2.89053	-1.15461	0	
0.3287	-0.775879	-1.15461	0	
0.3293	-5.35508	-4.82464	0	
0.3300	-8.09348	-6.04111	0	
0.3307	-9.63002	-2.06181	0	
0.3313	-10.2386	1.5876	0	
0.3320	-9.00628	1.5876	0	
0.3327	-8.39775	1.5876	0	
0.3333	-9.93429	1.5876	0	
0.3340	-11.7599	-2.06181	0	
0.3347	-10.5428	-5.11329	0	
0.3353	-4.44229	-1.77316	0	
0.3360	6.8612	3.73188	0	
0.3367	14.1788	3.73188	0	
0.3373	14.1788	2.80406	0	
0.3380	10.8167	5.25762	0	
0.3387	6.8612	6.16482	0	
0.3393	-1.08014	5.25762	0	
0.3400	-6.87642	6.16482	0	
0.3407	-3.21001	5.25762	0	
0.3413	2.58626	1.5876	0	
0.3420	-0.471613	0.371126	0	
0.3427	-7.48495	0.0618544	0	
0.3433	-7.78921	-0.845343	0	
0.3440	-4.12281	0.0618544	0	
0.3447	-2.29721	1.5876	0	
0.3453	1.3692	0.680398	0	
0.3460	5.32466	0.0618544	0	
0.3467	5.93319	1.27832	0	
0.3473	4.71613	1.27832	0	
0.3480	3.19479	0.98967	0	
0.3487	1.3692	0.680398	0	
0.3493	-1.68868	-3.89683	0	
0.3500	-6.26788	-8.47405	0	
0.3507	-7.48495	-2.98963	0	
0.3513	0.13692	5.56689	0	
0.3520	8.6868	5.25762	0	
0.3527	8.6868	0.371126	0	
0.3533	3.19479	-0.247417	0	
0.3540	1.3692	0.680398	0	
0.3547	4.10759	-1.46389	0	
0.3553	3.19479	-2.68036	0	
0.3560	0.441186	-0.845343	0	
0.3567	0.441186	1.5876	0	
0.3573	-1.99294	0.680398	0	
0.3580	-10.2386	-2.06181	0	
0.3587	-14.194	-2.37108	0	
0.3593	-6.87642	-1.15461	0	
0.3600	1.97773	-0.247417	0	
0.3607	3.49906	2.51541	0	
0.3613	1.3692	4.63908	0	
0.3620	2.282	3.11334	0	
0.3627	5.32466	3.11334	0	
0.3633	5.02039	6.16482	0	
0.3640	0.745452	7.09263	0	
0.3647	-1.38441	4.32981	0	
0.3653	-1.38441	1.89687	0	
0.3660	-0.471613	2.51541	0	
0.3667	-1.08014	5.85555	0	
0.3673	-3.21001	5.85555	0	
0.3680	1.97773	2.51541	0	
0.3687	16.6281	-0.247417	0	
0.3693	21.5116	-3.89683	0	
0.3700	14.4831	-4.82464	0	
0.3707	14.1788	0.680398	0	
0.3713	15.7001	1.5876	0	
0.3720	6.8612	-3.2989	0	
0.3727	1.3692	-3.89683	0	
0.3733	2.89053	-1.15461	0	
0.3740	-0.167346	-0.247417	0	
0.3747	-3.21001	0.680398	0	
0.3753	-3.21001	-1.15461	0	
0.3760	-9.31054	-4.51537	0	
0.3767	-15.122	-2.98963	0	
0.3773	-13.8898	-2.06181	0	
0.3780	-14.8178	-3.58755	0	
0.3787	-17.2519	-1.46389	0	
0.3793	-14.8178	-0.536071	0	
0.3800	-12.6727	-4.51537	0	
0.3807	-15.122	-4.82464	0	
0.3813	-16.3391	-2.68036	0	
0.3820	-14.194	-3.89683	0	
0.3827	-8.70201	-4.82464	0	
0.3833	-0.471613	-2.06181	0	
0.3840	8.07827	-1.15461	0	
0.3847	14.4831	-0.536071	0	
0.3853	17.5409	-0.536071	0	
0.3860	17.2367	-2.37108	0	
0.3867	16.6281	-4.51537	0	
0.3873	13.8745	-4.82464	0	
0.3880	7.774	-3.2989	0	
0.3887	1.97773	-1.77316	0	
0.3893	-0.775879	-2.68036	0	
0.3900	-0.775879	-3.2989	0	
0.3907	-1.08014	0.680398	0	
0.3913	-3.21001	5.56689	0	
0.3920	-2.90574	6.16482	0	
0.3927	0.13692	5.25762	0	
0.3933	-2.29721	3.11334	0	
0.3940	-6.57215	-0.845343	0	
0.3947	-5.05082	-2.68036	0	
0.3953	-3.21001	-2.06181	0	
0.3960	-3.21001	-0.845343	0	
0.3967	-0.471613	-0.247417	0	
0.3973	0.441186	-2.06181	0	
0.3980	-5.35508	-4.2061	0	
0.3987	-8.70201	-2.68036	0	
0.3993	-6.87642	-0.247417	0	
0.4000	-8.09348	-2.37108	0	
0.4007	-11.4556	-4.82464	0	
0.4013	-10.2386	-3.2989	0	
0.4020	-7.78921	-2.68036	0	
0.4027	-6.87642	-4.82464	0	
0.4033	-5.96362	-4.51537	0	
0.4040	-5.05082	-1.15461	0	
0.4047	-3.21001	-0.247417	0	
0.4053	-2.90574	0.680398	0	
0.4060	-5.96362	1.5876	0	
0.4067	-7.48495	0.371126	0	
0.4073	-4.12281	-1.15461	0	
0.4080	-1.38441	-0.247417	0	
0.4087	-1.08014	-1.15461	0	
0.4093	-0.471613	-2.06181	0	
0.4100	-0.167346	0.0618544	0	
0.4107	0.441186	0.680398	0	
0.4113	3.19479	-1.77316	0	
0.4120	5.32466	-0.536071	0	
0.4127	5.93319	2.51541	0	
0.4133	5.93319	1.89687	0	
0.4140	3.19479	-0.247417	0	
0.4147	-1.68868	-1.15461	0	
0.4153	-5.05082	-1.15461	0	
0.4160	-5.05082	-1.15461	0	
0.4167	-2.90574	-2.68036	0	
0.4173	-1.99294	-3.58755	0	
0.4180	-7.48495	-3.89683	0	
0.4187	-13.2812	-3.89683	0	
0.4193	-10.8471	-4.51537	0	
0.4200	-5.35508	-5.73184	0	
0.4207	-2.29721	-5.73184	0	
0.4213	0.441186	-2.68036	0	
0.4220	1.97773	-1.15461	0	
0.4227	-0.471613	-1.46389	0	
0.4233	-2.90574	0.680398	0	
0.4240	-5.05082	1.5876	0	
0.4247	-7.48495	-1.77316	0	
0.4253	-5.05082	-1.77316	0	
0.4260	1.3692	2.20614	0	
0.4267	4.41186	0.680398	0	
0.4273	5.02039	-2.06181	0	
0.4280	8.6868	-0.247417	0	
0.4287	14.7873	2.51541	0	
0.4293	19.9751	5.25762	0	
0.4300	20.5836	7.99983	0	
0.4307	15.0916	8.3091	0	
0.4313	10.5124	7.99983	0	
0.4320	11.1361	8.90703	0	
0.4327	12.3532	7.38129	0	
0.4333	12.6575	4.94835	0	
0.4340	15.3959	4.63908	0	
0.4347	15.3959	4.32981	0	
0.4353	10.8167	2.51541	0	
0.4360	7.16547	-0.536071	0	
0.4367	1.3692	-1.46389	0	
0.4373	-10.5428	-1.15461	0	
0.4380	-20.0055	-3.58755	0	
0.4387	-23.6567	-6.63904	0	
0.4393	-27.9316	-6.04111	0	
0.4400	-30.6852	-5.11329	0	
0.4407	-25.4975	-6.35038	0	
0.4413	-21.2226	-5.11329	0	
0.4420	-21.8311	-1.46389	0	
0.4427	-21.2226	-0.536071	0	
0.4433	-18.7732	-3.2989	0	
0.4440	-17.8604	-6.63904	0	
0.4447	-13.2812	-6.35038	0	
0.4453	0.441186	-1.77316	0	
0.4460	14.1788	2.51541	0	
0.4467	19.6708	1.89687	0	
0.4473	15.7001	-1.15461	0	
0.4480	10.2081	-2.06181	0	
0.4487	9.5996	-1.77316	0	
0.4493	9.29533	-1.15461	0	
0.4500	4.41186	0.680398	0	
0.4507	0.441186	-0.536071	0	
0.4513	1.3692	-3.89683	0	
0.4520	4.10759	-2.06181	0	
0.4527	6.25267	1.89687	0	
0.4533	8.38253	1.5876	0	
0.4540	9.5996	1.27832	0	
0.4547	11.4404	4.63908	0	
0.4553	12.3532	4.04115	0	
0.4560	9.5996	0.680398	0	
0.4567	7.46973	0.0618544	0	
0.4573	6.8612	-1.46389	0	
0.4580	2.282	-3.2989	0	
0.4587	-5.35508	-1.15461	0	
0.4593	-7.18068	-0.845343	0	
0.4600	-5.65935	-3.89683	0	
0.4607	-9.00628	-3.58755	0	
0.4613	-14.194	-2.06181	0	
0.4620	-16.0348	-2.98963	0	
0.4627	-16.9476	-2.98963	0	
0.4633	-17.8604	-1.77316	0	
0.4640	-12.6727	-1.46389	0	
0.4647	-5.96362	0.371126	0	
0.4653	-1.68868	2.20614	0	
0.4660	4.10759	2.51541	0	
0.4667	8.99106	3.11334	0	
0.4673	7.46973	2.20614	0	
0.4680	6.8612	-0.247417	0	
0.4687	10.8167	-0.247417	0	
0.4693	11.1361	0.371126	0	
0.4700	8.6868	0.680398	0	
0.4707	7.46973	1.5876	0	
0.4713	3.19479	2.80406	0	
0.4720	-3.21001	1.5876	0	
0.4727	-6.87642	-0.247417	0	
0.4733	-8.09348	-0.536071	0	
0.4740	-7.18068	1.5876	0	
0.4747	-5.65935	3.42261	0	
0.4753	-5.05082	1.5876	0	
0.4760	-4.12281	-0.845343	0	
0.4767	-4.74655	0.680398	0	
0.4773	-9.00628	1.5876	0	
0.4780	-12.0642	-0.247417	0	
0.4787	-11.7599	-1.77316	0	
0.4793	-14.5135	-2.06181	0	
0.4800	-17.2519	-2.98963	0	
0.4807	-12.3684	-2.06181	0	
0.4813	-5.96362	-0.247417	0	
0.4820	-5.05082	-0.845343	0	
0.4827	-4.12281	-1.15461	0	
0.4833	-1.68868	0.0618544	0	
0.4840	-2.29721	-1.15461	0	
0.4847	1.97773	-5.42257	0	
0.4853	16.6281	-6.35038	0	
0.4860	26.0756	-3.58755	0	
0.4867	20.8879	-0.536071	0	
0.4873	14.7873	0.0618544	0	
0.4880	11.4404	-2.06181	0	
0.4887	7.16547	-3.89683	0	
0.4893	6.25267	-2.37108	0	
0.4900	8.6868	-1.77316	0	
0.4907	8.07827	-2.98963	0	
0.4913	6.8612	-1.15461	0	
0.4920	8.99106	1.5876	0	
0.4927	9.90386	2.80406	0	
0.4933	7.774	4.32981	0	
0.4940	8.6868	4.32981	0	
0.4947	13.8745	2.51541	0	
0.4953	19.0623	4.32981	0	
0.4960	18.758	7.38129	0	
0.4967	12.3532	7.38129	0	
0.4973	6.25267	6.47409	0	
0.4980	1.97773	4.94835	0	
0.4987	-4.12281	2.51541	0	
0.4993	-11.4556	-0.845343	0	
0.5000	-17.2519	-6.94831	0	
0.5007	-19.7012	-12.4533	0	
0.5013	-12.977	-10.9276	0	
0.5020	-1.68868	-6.63904	0	
0.5027	-0.471613	-5.42257	0	
0.5033	-7.18068	-4.82464	0	
0.5040	-9.63002	-3.89683	0	
0.5047	-12.0642	-1.77316	0	
0.5053	-14.8178	2.51541	0	
0.5060	-10.5428	2.80406	0	
0.5067	-6.87642	-1.15461	0	
0.5073	-9.93429	-0.845343	0	
0.5080	-8.09348	2.51541	0	
0.5087	-0.471613	1.5876	0	
0.5093	1.3692	0.0618544	0	
0.5100	-0.775879	3.42261	0	
0.5107	-0.471613	6.47409	0	
0.5113	2.58626	4.32981	0	
0.5120	7.774	1.27832	0	
0.5127	11.4404	1.89687	0	
0.5133	11.4404	3.42261	0	
0.5140	9.5996	2.51541	0	
0.5147	5.62892	3.42261	0	
0.5153	-3.51427	5.25762	0	
0.5160	-12.3684	2.51541	0	
0.5167	-20.614	-3.89683	0	
0.5173	-29.453	-9.40186	0	
0.5180	-34.0322	-13.9791	0	
0.5187	-32.8151	-17.6285	0	
0.5193	-27.9316	-16.412	0	
0.5200	-21.8311	-11.8348	0	
0.5207	-19.7012	-9.09259	0	
0.5213	-19.0775	-9.69052	0	
0.5220	-11.4556	-11.2163	0	
0.5227	-3.21001	-8.47405	0	
0.5233	-4.12281	-3.89683	0	
0.5240	-5.05082	-1.15461	0	
0.5247	2.282	1.27832	0	
0.5253	9.5996	2.80406	0	
0.5260	11.7447	1.89687	0	
0.5267	12.3532	2.51541	0	
0.5273	10.5124	4.94835	0	
0.5280	8.6868	2.80406	0	
0.5287	12.0489	-0.536071	0	
0.5293	16.9324	-0.247417	0	
0.5300	15.3959	1.5876	0	
0.5307	12.3532	2.80406	0	
0.5313	9.29533	3.42261	0	
0.5320	3.19479	1.5876	0	
0.5327	0.13692	-0.845343	0	
0.5333	6.25267	-0.536071	0	
0.5340	12.3532	-0.247417	0	
0.5347	10.8167	-2.06181	0	
0.5353	6.25267	-3.2989	0	
0.5360	1.97773	-1.15461	0	
0.5367	-5.05082	0.371126	0	
0.5373	-10.5428	-1.15461	0	
0.5380	-8.09348	-1.15461	0	
0.5387	-2.60148	1.27832	0	
0.5393	-2.90574	3.42261	0	
0.5400	-6.57215	3.42261	0	
0.5407	-6.26788	2.51541	0	
0.5413	-3.81854	1.89687	0	
0.5420	-4.74655	1.89687	0	
0.5427	-3.21001	1.89687	0	
0.5433	4.10759	1.5876	0	
0.5440	9.29533	3.42261	0	
0.5447	10.2081	5.85555	0	
0.5453	9.29533	5.56689	0	
0.5460	6.8612	4.32981	0	
0.5467	4.10759	3.11334	0	
0.5473	4.41186	1.5876	0	
0.5480	5.02039	3.73188	0	
0.5487	4.10759	6.16482	0	
0.5493	1.3692	3.11334	0	
0.5500	-5.65935	-1.15461	0	
0.5507	-8.39775	-1.46389	0	
0.5513	-0.167346	-0.247417	0	
0.5520	8.6868	0.98967	0	
0.5527	10.2081	2.51541	0	
0.5533	8.6868	4.32981	0	
0.5540	6.8612	5.85555	0	
0.5547	5.02039	4.63908	0	
0.5553	7.46973	1.5876	0	
0.5560	10.5124	2.51541	0	
0.5567	10.5124	5.85555	0	
0.5573	9.5996	5.56689	0	
0.5580	8.38253	3.42261	0	
0.5587	4.10759	1.5876	0	
0.5593	-0.471613	1.89687	0	
0.5600	-4.12281	1.27832	0	
0.5607	-10.5428	-2.06181	0	
0.5613	-16.0348	-4.82464	0	
0.5620	-17.5562	-4.2061	0	
0.5627	-16.9476	-6.63904	0	
0.5633	-11.7599	-9.40186	0	
0.5640	-3.51427	-7.25758	0	
0.5647	0.745452	-3.89683	0	
0.5653	3.19479	-2.68036	0	
0.5660	5.02039	-2.37108	0	
0.5667	-3.21001	-2.68036	0	
0.5673	-12.3684	-1.77316	0	
0.5680	-7.78921	0.371126	0	
0.5687	-4.12281	-0.845343	0	
0.5693	-8.70201	-4.51537	0	
0.5700	-4.74655	-6.04111	0	
0.5707	6.55694	-5.73184	0	
0.5713	13.5703	-4.82464	0	
0.5720	19.6708	-2.06181	0	
0.5727	19.0623	0.371126	0	
0.5733	4.10759	-1.15461	0	
0.5740	-9.63002	-2.98963	0	
0.5747	-9.63002	-2.06181	0	
0.5753	-9.00628	-1.15461	0	
0.5760	-12.0642	-1.77316	0	
0.5767	-12.3684	-1.77316	0	
0.5773	-9.63002	-1.77316	0	
0.5780	-10.2386	-1.15461	0	
0.5787	-11.4556	0.98967	0	
0.5793	-6.26788	2.51541	0	
0.5800	4.10759	3.42261	0	
0.5807	12.6575	4.32981	0	
0.5813	14.4831	3.42261	0	
0.5820	11.4404	1.5876	0	
0.5827	9.90386	0.371126	0	
0.5833	12.3532	-1.15461	0	
0.5840	11.1361	-1.15461	0	
0.5847	3.80333	-0.845343	0	
0.5853	0.745452	-2.98963	0	
0.5860	5.02039	-3.58755	0	
0.5867	8.07827	-0.247417	0	
0.5873	9.29533	0.98967	0	
0.5880	10.8167	1.5876	0	
0.5887	8.38253	4.04115	0	
0.5893	2.58626	4.32981	0	
0.5900	0.13692	2.20614	0	
0.5907	-1.08014	1.5876	0	
0.5913	-6.87642	-0.247417	0	
0.5920	-12.3684	-4.2061	0	
0.5927	-9.31054	-6.04111	0	
0.5933	-0.471613	-5.11329	0	
0.5940	3.19479	-4.82464	0	
0.5947	-1.99294	-5.11329	0	
0.5953	-6.57215	-4.82464	0	
0.5960	-6.87642	-2.98963	0	
0.5967	-9.63002	-2.37108	0	
0.5973	-15.7306	-2.98963	0	
0.5980	-18.7732	-2.98963	0	
0.5987	-19.0775	-3.2989	0	
0.5993	-17.8604	-3.89683	0	
0.6000	-13.5855	-2.37108	0	
0.6007	-9.63002	-0.536071	0	
0.6013	-10.5428	-1.15461	0	
0.6020	-8.70201	-2.06181	0	
0.6027	-2.90574	-2.37108	0	
0.6033	-3.21001	-4.51537	0	
0.6040	-7.78921	-5.11329	0	
0.6047	-5.96362	-2.37108	0	
0.6053	2.58626	0.0618544	0	
0.6060	11.4404	-0.247417	0	
0.6067	14.4831	-1.15461	0	
0.6073	9.29533	-1.46389	0	
0.6080	4.41186	-1.77316	0	
0.6087	10.5124	0.98967	0	
0.6093	19.9751	4.32981	0	
0.6100	20.2793	4.94835	0	
0.6107	15.7001	5.25762	0	
0.6113	13.266	7.09263	0	
0.6120	12.0489	5.56689	0	
0.6127	12.3532	2.20614	0	
0.6133	14.7873	2.80406	0	
0.6140	13.8745	4.32981	0	
0.6147	8.99106	2.20614	0	
0.6153	5.02039	2.20614	0	
0.6160	0.13692	4.04115	0	
0.6167	-6.57215	3.42261	0	
0.6173	-9.63002	1.89687	0	
0.6180	-8.39775	-1.15461	0	
0.6187	-7.78921	-5.11329	0	
0.6193	-10.2386	-5.42257	0	
0.6200	-12.3684	-0.247417	0	
0.6207	-11.7599	2.51541	0	
0.6213	-9.00628	1.27832	0	
0.6220	-7.78921	-0.845343	0	
0.6227	-7.48495	-2.06181	0	
0.6233	-5.96362	-3.89683	0	
0.6240	-4.74655	-7.87612	0	
0.6247	-5.05082	-9.40186	0	
0.6253	-5.05082	-6.35038	0	
0.6260	-8.09348	-3.89683	0	
0.6267	-14.5135	-4.51537	0	
0.6273	-16.0348	-3.89683	0	
0.6280	-11.4556	-0.536071	0	
0.6287	-8.70201	0.98967	0	
0.6293	-9.00628	0.680398	0	
0.6300	-7.78921	1.27832	0	
0.6307	-3.21001	1.27832	0	
0.6313	0.441186	-0.845343	0	
0.6320	-1.38441	-1.15461	0	
0.6327	-2.60148	1.5876	0	
0.6333	-0.471613	1.89687	0	
0.6340	2.58626	0.371126	0	
0.6347	5.93319	1.89687	0	
0.6353	7.16547	3.42261	0	
0.6360	1.97773	1.89687	0	
0.6367	-3.21001	1.27832	0	
0.6373	-4.12281	3.42261	0	
0.6380	-5.96362	4.63908	0	
0.6387	-6.26788	2.80406	0	
0.6393	-3.21001	-0.247417	0	
0.6400	-1.38441	0.680398	0	
0.6407	1.3692	4.63908	0	
0.6413	6.25267	4.32981	0	
0.6420	3.49906	-0.247417	0	
0.6427	-2.29721	-2.06181	0	
0.6433	-2.60148	-1.77316	0	
0.6440	-2.29721	-3.89683	0	
0.6447	-2.29721	-4.51537	0	
0.6453	0.745452	-2.37108	0	
0.6460	4.10759	-0.845343	0	
0.6467	7.774	-0.247417	0	
0.6473	13.266	0.371126	0	
0.6480	13.5703	1.5876	0	
0.6487	11.1361	2.20614	0	
0.6493	13.266	1.89687	0	
0.6500	13.5703	1.5876	0	
0.6507	5.93319	0.0618544	0	
0.6513	-0.167346	-2.68036	0	
0.6520	0.13692	-2.98963	0	
0.6527	0.13692	-1.15461	0	
0.6533	-2.60148	-0.536071	0	
0.6540	-4.44229	-1.15461	0	
0.6547	-3.81854	1.27832	0	
0.6553	-2.90574	4.04115	0	
0.6560	-4.12281	2.51541	0	
0.6567	-6.57215	0.371126	0	
0.6573	-5.96362	1.89687	0	
0.6580	-3.21001	0.680398	0	
0.6587	-3.81854	-5.42257	0	
0.6593	-8.09348	-9.40186	0	
0.6600	-10.5428	-9.40186	0	
0.6607	-10.2386	-9.99979	0	
0.6613	-8.70201	-10.3091	0	
0.6620	-6.26788	-7.87612	0	
0.6627	-5.96362	-4.82464	0	
0.6633	-9.31054	-4.82464	0	
0.6640	-10.8471	-4.82464	0	
0.6647	-7.48495	-1.46389	0	
0.6653	-5.05082	2.51541	0	
0.6660	-2.29721	1.5876	0	
0.6667	4.71613	-0.247417	0	
0.6673	11.1361	0.680398	0	
0.6680	11.7447	1.5876	0	
0.6687	9.29533	2.20614	0	
0.6693	6.25267	3.42261	0	
0.6700	0.441186	3.42261	0	
0.6707	-5.96362	3.11334	0	
0.6713	-4.12281	3.42261	0	
0.6720	5.32466	2.51541	0	
0.6727	11.4404	0.0618544	0	
0.6733	8.6868	-1.15461	0	
0.6740	2.282	0.680398	0	
0.6747	-4.12281	2.20614	0	
0.6753	-13.2812	0.680398	0	
0.6760	-21.8311	-2.06181	0	
0.6767	-23.3524	-2.68036	0	
0.6773	-20.614	-2.06181	0	
0.6780	-19.0775	-1.15461	0	
0.6787	-19.7012	0.680398	0	
0.6793	-21.8311	1.5876	0	
0.6800	-20.614	-0.247417	0	
0.6807	-10.2386	-0.536071	0	
0.6813	5.62892	0.371126	0	
0.6820	11.4404	-1.15461	0	
0.6827	2.58626	-3.89683	0	
0.6833	-7.78921	-3.89683	0	
0.6840	-9.31054	-2.68036	0	
0.6847	-6.87642	-1.15461	0	
0.6853	-4.12281	1.5876	0	
0.6860	5.02039	4.32981	0	
0.6867	19.6708	3.73188	0	
0.6873	29.1335	3.42261	0	
0.6880	30.3505	7.09263	0	
0.6887	27.0036	9.83485	0	
0.6893	21.5116	8.90703	0	
0.6900	14.4831	6.78336	0	
0.6907	10.2081	4.32981	0	
0.6913	8.6868	2.80406	0	
0.6920	3.49906	2.20614	0	
0.6927	-5.35508	0.0618544	0	
0.6933	-11.4556	-2.37108	0	
0.6940	-13.2812	-3.2989	0	
0.6947	-15.122	-3.89683	0	
0.6953	-17.8604	-3.89683	0	
0.6960	-17.8604	-2.06181	0	
0.6967	-15.7306	-2.98963	0	
0.6973	-12.977	-6.04111	0	
0.6980	-10.5428	-4.2061	0	
0.6987	-6.87642	1.27832	0	
0.6993	-1.38441	2.80406	0	
0.7000	2.89053	1.5876	0	
0.7007	3.80333	2.51541	0	
0.7013	2.282	4.94835	0	
0.7020	-0.471613	4.04115	0	
0.7027	-2.29721	-0.845343	0	
0.7033	-2.29721	-3.89683	0	
0.7040	-1.38441	-1.15461	0	
0.7047	-1.38441	3.42261	0	
0.7053	-3.21001	2.20614	0	
0.7060	-5.05082	-2.06181	0	
0.7067	-5.65935	-3.58755	0	
0.7073	-7.78921	-1.77316	0	
0.7080	-9.63002	0.98967	0	
0.7087	-8.09348	3.42261	0	
0.7093	-8.39775	4.32981	0	
0.7100	-10.8471	2.51541	0	
0.7107	-9.63002	-1.15461	0	
0.7113	-5.96362	-2.98963	0	
0.7120	-2.60148	-3.2989	0	
0.7127	1.3692	-2.98963	0	
0.7133	1.97773	0.0618544	0	
0.7140	-1.38441	2.51541	0	
0.7147	-1.38441	0.680398	0	
0.7153	-1.38441	-0.845343	0	
0.7160	-4.12281	0.98967	0	
0.7167	-3.81854	0.680398	0	
0.7173	-1.99294	-0.536071	0	
0.7180	-3.21001	0.371126	0	
0.7187	-1.38441	0.0618544	0	
0.7193	2.89053	0.0618544	0	
0.7200	1.97773	1.89687	0	
0.7207	-3.51427	-1.15461	0	
0.7213	-7.48495	-7.25758	0	
0.7220	-6.87642	-6.63904	0	
0.7227	-5.65935	-3.2989	0	
0.7233	-11.1514	-5.73184	0	
0.7240	-19.3818	-8.47405	0	
0.7247	-20.3098	-9.40186	0	
0.7253	-15.122	-10.3091	0	
0.7260	-7.48495	-7.87612	0	
0.7267	-0.167346	-1.77316	0	
0.7273	2.282	1.27832	0	
0.7280	-0.471613	0.0618544	0	
0.7287	-1.38441	-1.77316	0	
0.7293	-0.471613	-2.68036	0	
0.7300	1.97773	-1.15461	0	
0.7307	5.02039	1.89687	0	
0.7313	4.71613	2.20614	0	
0.7320	-0.471613	-0.247417	0	
0.7327	-3.21001	-1.46389	0	
0.7333	-0.471613	-0.845343	0	
0.7340	0.441186	-1.15461	0	
0.7347	-1.38441	-2.98963	0	
0.7353	-0.167346	-3.58755	0	
0.7360	0.441186	-1.77316	0	
0.7367	0.13692	-1.46389	0	
0.7373	5.02039	-1.77316	0	
0.7380	8.6868	0.680398	0	
0.7387	0.745452	1.27832	0	
0.7393	-4.12281	0.680398	0	
0.7400	2.89053	2.80406	0	
0.7407	8.6868	3.11334	0	
0.7413	10.5124	1.5876	0	
0.7420	15.0916	5.25762	0	
0.7427	13.266	8.61838	0	
0.7433	5.62892	4.04115	0	
0.7440	4.10759	0.0618544	0	
0.7447	6.8612	-0.845343	0	
0.7453	5.93319	-5.11329	0	
0.7460	4.10759	-6.63904	0	
0.7467	5.93319	-2.98963	0	
0.7473	10.2081	-2.68036	0	
0.7480	15.3959	-4.2061	0	
0.7487	17.8452	-2.06181	0	
0.7493	17.8452	-2.98963	0	
0.7500	16.6281	-6.35038	0	
0.7507	12.6575	-4.2061	0	
0.7513	5.62892	-2.98963	0	
0.7520	1.67346	-5.42257	0	
0.7527	6.25267	-3.58755	0	
0.7533	13.266	-0.536071	0	
0.7540	14.1788	-0.247417	0	
0.7547	8.6868	2.20614	0	
0.7553	3.19479	4.32981	0	
0.7560	-0.471613	3.11334	0	
0.7567	-4.74655	2.51541	0	
0.7573	-8.09348	-0.536071	0	
0.7580	-8.70201	-3.89683	0	
0.7587	-8.70201	-0.247417	0	
0.7593	-10.2386	1.89687	0	
0.7600	-11.4556	-1.15461	0	
0.7607	-5.05082	0.680398	0	
0.7613	6.8612	4.94835	0	
0.7620	13.266	3.42261	0	
0.7627	12.3532	1.89687	0	
0.7633	9.5996	1.5876	0	
0.7640	9.5996	-2.37108	0	
0.7647	12.0489	-3.89683	0	
0.7653	12.3532	-1.77316	0	
0.7660	9.5996	-0.845343	0	
0.7667	7.46973	1.27832	0	
0.7673	8.07827	5.25762	0	
0.7680	7.46973	6.47409	0	
0.7687	3.49906	5.25762	0	
0.7693	1.3692	6.16482	0	
0.7700	4.10759	8.90703	0	
0.7707	8.07827	10.4328	0	
0.7713	8.07827	8.90703	0	
0.7720	4.10759	7.38129	0	
0.7727	0.441186	6.78336	0	
0.7733	-3.21001	2.80406	0	
0.7740	-7.48495	-0.247417	0	
0.7747	-6.26788	0.680398	0	
0.7753	1.3692	-1.15461	0	
0.7760	4.10759	-6.04111	0	
0.7767	-5.96362	-6.94831	0	
0.7773	-15.4263	-6.63904	0	
0.7780	-9.63002	-6.35038	0	
0.7787	1.06493	-2.98963	0	
0.7793	1.3692	-1.15461	0	
0.7800	-5.05082	-2.68036	0	
0.7807	-7.78921	-2.06181	0	
0.7813	-7.48495	0.0618544	0	
0.7820	-6.57215	0.680398	0	
0.7827	-6.26788	0.680398	0	
0.7833	-6.87642	-0.536071	0	
0.7840	-5.05082	-2.98963	0	
0.7847	-3.51427	-2.68036	0	
0.7853	-7.48495	-2.06181	0	
0.7860	-8.09348	-2.98963	0	
0.7867	-0.471613	-2.98963	0	
0.7873	1.3692	-2.98963	0	
0.7880	-4.74655	-3.2989	0	
0.7887	-2.60148	-4.82464	0	
0.7893	4.41186	-6.63904	0	
0.7900	1.06493	-6.63904	0	
0.7907	-5.05082	-5.73184	0	
0.7913	-4.12281	-6.04111	0	
0.7920	-3.21001	-4.82464	0	
0.7927	-5.05082	-4.2061	0	
0.7933	-7.78921	-7.87612	0	
0.7940	-11.4556	-8.78332	0	
0.7947	-9.31054	-4.51537	0	
0.7953	-1.08014	-3.89683	0	
0.7960	-1.38441	-5.73184	0	
0.7967	-9.31054	-4.82464	0	
0.7973	-11.7599	-4.82464	0	
0.7980	-11.7599	-6.04111	0	
0.7987	-12.6727	-2.37108	0	
0.7993	-4.12281	2.51541	0	
0.8000	11.4404	4.04115	0	
0.8007	18.758	5.56689	0	
0.8013	16.6281	6.47409	0	
0.8020	14.1788	5.25762	0	
0.8027	13.266	2.51541	0	
0.8033	9.5996	-1.15461	0	
0.8040	4.10759	-2.06181	0	
0.8047	1.97773	0.680398	0	
0.8053	4.10759	2.51541	0	
0.8060	4.71613	0.98967	0	
0.8067	1.67346	-1.15461	0	
0.8073	0.441186	-1.15461	0	
0.8080	0.441186	0.680398	0	
0.8087	-1.08014	1.5876	0	
0.8093	-3.21001	1.5876	0	
0.8100	-4.12281	1.89687	0	
0.8107	-4.74655	0.680398	0	
0.8113	-5.05082	-2.06181	0	
0.8120	-4.12281	-1.77316	0	
0.8127	-2.60148	2.51541	0	
0.8133	-1.99294	5.25762	0	
0.8140	-2.29721	5.85555	0	
0.8147	-1.68868	6.47409	0	
0.8153	0.441186	6.16482	0	
0.8160	3.19479	5.85555	0	
0.8167	2.282	7.69056	0	
0.8173	-2.29721	7.09263	0	
0.8180	-6.26788	2.51541	0	
0.8187	-10.5428	-0.247417	0	
0.8193	-13.2812	-2.06181	0	
0.8200	-11.4556	-6.35038	0	
0.8207	-9.00628	-9.99979	0	
0.8213	-11.4556	-12.1441	0	
0.8220	-13.2812	-13.3605	0	
0.8227	-10.5428	-11.5255	0	
0.8233	-6.87642	-8.16478	0	
0.8240	-2.29721	-7.25758	0	
0.8247	1.3692	-6.04111	0	
0.8253	3.49906	-2.06181	0	
0.8260	2.282	0.98967	0	
0.8267	-1.38441	2.51541	0	
0.8273	-2.60148	2.51541	0	
0.8280	1.06493	2.51541	0	
0.8287	2.58626	3.42261	0	
0.8293	0.745452	3.42261	0	
0.8300	0.441186	1.5876	0	
0.8307	-0.471613	3.42261	0	
0.8313	-2.29721	7.99983	0	
0.8320	1.67346	8.61838	0	
0.8327	6.8612	6.16482	0	
0.8333	5.02039	5.56689	0	
0.8340	-0.471613	5.25762	0	
0.8347	-4.12281	4.32981	0	
0.8353	-8.70201	2.51541	0	
0.8360	-11.4556	0.0618544	0	
0.8367	-11.4556	0.680398	0	
0.8373	-12.0642	2.80406	0	
0.8380	-14.8178	0.98967	0	
0.8387	-18.469	-1.15461	0	
0.8393	-18.469	1.27832	0	
0.8400	-9.63002	2.51541	0	
0.8407	2.58626	1.5876	0	
0.8413	5.93319	3.11334	0	
0.8420	1.06493	5.25762	0	
0.8427	-1.38441	2.51541	0	
0.8433	1.06493	-2.98963	0	
0.8440	5.02039	-3.89683	0	
0.8447	9.29533	-2.37108	0	
0.8453	10.2081	-3.2989	0	
0.8460	7.46973	-4.51537	0	
0.8467	5.93319	-2.98963	0	
0.8473	7.774	-2.06181	0	
0.8480	8.38253	-1.46389	0	
0.8487	2.89053	-0.536071	0	
0.8493	-7.78921	-1.15461	0	
0.8500	-16.6434	-2.06181	0	
0.8507	-17.2519	-1.46389	0	
0.8513	-15.7306	-0.845343	0	
0.8520	-15.122	-0.247417	0	
0.8527	-12.6727	1.27832	0	
0.8533	-9.93429	1.89687	0	
0.8540	-7.18068	2.51541	0	
0.8547	-1.99294	4.32981	0	
0.8553	3.49906	4.32981	0	
0.8560	5.02039	1.5876	0	
0.8567	4.10759	-1.77316	0	
0.8573	1.3692	-4.51537	0	
0.8580	-0.775879	-5.42257	0	
0.8587	3.80333	-4.82464	0	
0.8593	9.5996	-3.89683	0	
0.8600	6.8612	-3.2989	0	
0.8607	-0.471613	-1.46389	0	
0.8613	-2.60148	0.680398	0	
0.8620	-1.38441	1.5876	0	
0.8627	2.282	2.51541	0	
0.8633	9.5996	3.11334	0	
0.8640	12.3532	0.680398	0	
0.8647	5.93319	-2.06181	0	
0.8653	3.19479	-1.15461	0	
0.8660	9.5996	1.27832	0	
0.8667	10.2081	0.680398	0	
0.8673	1.06493	0.0618544	0	
0.8680	-5.35508	0.371126	0	
0.8687	-7.48495	-2.06181	0	
0.8693	-11.7599	-5.42257	0	
0.8700	-16.3391	-7.25758	0	
0.8707	-16.3391	-9.40186	0	
0.8713	-14.194	-10.3091	0	
0.8720	-8.39775	-7.56685	0	
0.8727	2.58626	-3.2989	0	
0.8733	14.4831	-0.536071	0	
0.8740	22.7287	1.5876	0	
0.8747	25.7713	1.5876	0	
0.8753	21.5116	-0.845343	0	
0.8760	12.6575	-3.58755	0	
0.8767	8.07827	-3.89683	0	
0.8773	8.07827	-2.06181	0	
0.8780	2.89053	-0.247417	0	
0.8787	-5.96362	-2.98963	0	
0.8793	-8.39775	-5.11329	0	
0.8800	-7.78921	-1.46389	0	
0.8807	-13.2812	0.680398	0	
0.8813	-18.469	-3.89683	0	
0.8820	-17.8604	-5.73184	0	
0.8827	-16.9476	-3.58755	0	
0.8833	-13.2812	-3.89683	0	
0.8840	0.745452	-1.77316	0	
0.8847	16.9324	6.16482	0	
0.8853	22.1201	11.3606	0	
0.8860	19.6708	10.742	0	
0.8867	18.4537	8.61838	0	
0.8873	16.3239	5.25762	0	
0.8880	10.8167	2.51541	0	
0.8887	7.774	2.51541	0	
0.8893	8.07827	2.80406	0	
0.8900	7.774	4.32981	0	
0.8907	6.8612	4.63908	0	
0.8913	6.8612	2.20614	0	
0.8920	5.93319	0.98967	0	
0.8927	5.02039	2.51541	0	
0.8933	4.71613	1.5876	0	
0.8940	3.19479	1.5876	0	
0.8947	0.745452	5.25762	0	
0.8953	0.441186	6.78336	0	
0.8960	-0.775879	3.42261	0	
0.8967	-1.99294	1.27832	0	
0.8973	-2.29721	2.20614	0	
0.8980	-4.12281	2.20614	0	
0.8987	-6.57215	0.680398	0	
0.8993	-6.26788	0.680398	0	
0.9000	-8.39775	0.0618544	0	
0.9007	-12.977	-2.06181	0	
0.9013	-13.2812	-2.06181	0	
0.9020	-13.2812	-1.15461	0	
0.9027	-13.2812	-2.06181	0	
0.9033	-9.63002	-2.37108	0	
0.9040	-9.63002	-2.06181	0	
0.9047	-15.122	-5.11329	0	
0.9053	-12.3684	-6.63904	0	
0.9060	-3.21001	-2.06181	0	
0.9067	-1.68868	0.98967	0	
0.9073	-1.99294	0.371126	0	
0.9080	0.13692	1.27832	0	
0.9087	-1.38441	1.89687	0	
0.9093	-2.90574	-1.15461	0	
0.9100	-2.29721	-3.58755	0	
0.9107	-5.96362	-3.2989	0	
0.9113	-10.5428	-2.37108	0	
0.9120	-10.5428	-2.68036	0	
0.9127	-9.63002	-3.58755	0	
0.9133	-7.48495	-2.68036	0	
0.9140	-5.65935	-1.15461	0	
0.9147	-5.35508	-2.37108	0	
0.9153	-5.65935	-3.58755	0	
0.9160	-7.78921	-3.89683	0	
0.9167	-12.0642	-6.04111	0	
0.9173	-12.977	-6.63904	0	
0.9180	-12.3684	-4.2061	0	
0.9187	-13.8898	-2.37108	0	
0.9193	-15.122	-1.15461	0	
0.9200	-15.122	-0.536071	0	
0.9207	-14.194	-3.2989	0	
0.9213	-9.31054	-3.89683	0	
0.9220	-2.29721	-0.247417	0	
0.9227	-1.38441	1.27832	0	
0.9233	-4.12281	-0.536071	0	
0.9240	1.67346	0.98967	0	
0.9247	16.0044	2.80406	0	
0.9253	27.6122	0.680398	0	
0.9260	27.9164	0.680398	0	
0.9267	23.3372	4.32981	0	
0.9273	21.5116	5.25762	0	
0.9280	20.5836	2.51541	0	
0.9287	16.0044	0.371126	0	
0.9293	9.90386	-0.247417	0	
0.9300	7.46973	-0.845343	0	
0.9307	9.5996	-1.46389	0	
0.9313	12.3532	-2.68036	0	
0.9320	8.99106	-4.82464	0	
0.9327	2.89053	-5.42257	0	
0.9333	0.745452	-1.77316	0	
0.9340	3.49906	-1.15461	0	
0.9347	5.32466	-5.73184	0	
0.9353	3.80333	-4.82464	0	
0.9360	1.06493	0.98967	0	
0.9367	-0.167346	0.98967	0	
0.9373	1.3692	-1.46389	0	
0.9380	1.3692	1.5876	0	
0.9387	-1.38441	4.32981	0	
0.9393	-5.35508	1.27832	0	
0.9400	-12.6727	-3.2989	0	
0.9407	-22.4396	-6.63904	0	
0.9413	-26.106	-8.78332	0	
0.9420	-24.2652	-10.3091	0	
0.9427	-25.1932	-11.2163	0	
0.9433	-24.2652	-8.47405	0	
0.9440	-16.9476	-5.73184	0	
0.9447	-10.2386	-5.73184	0	
0.9453	-7.18068	-2.98963	0	
0.9460	-1.68868	2.20614	0	
0.9467	7.16547	1.5876	0	
0.9473	13.266	0.0618544	0	
0.9480	12.9617	4.32981	0	
0.9487	8.99106	4.63908	0	
0.9493	6.55694	-1.77316	0	
0.9500	5.62892	-2.06181	0	
0.9507	4.10759	3.11334	0	
0.9513	2.282	2.51541	0	
0.9520	3.19479	-0.247417	0	
0.9527	6.55694	0.680398	0	
0.9533	6.55694	0.680398	0	
0.9540	2.282	-0.247417	0	
0.9547	-2.90574	-0.247417	0	
0.9553	-5.35508	-0.536071	0	
0.9560	-5.05082	-2.98963	0	
0.9567	-3.81854	-2.98963	0	
0.9573	-5.05082	-1.15461	0	
0.9580	-6.26788	-1.15461	0	
0.9587	-3.21001	-3.2989	0	
0.9593	-1.68868	-4.51537	0	
0.9600	-5.96362	-2.06181	0	
0.9607	-7.78921	0.680398	0	
0.9613	-5.65935	1.89687	0	
0.9620	-3.51427	2.51541	0	
0.9627	-0.167346	4.04115	0	
0.9633	4.10759	5.25762	0	
0.9640	6.8612	6.16482	0	
0.9647	10.2081	7.09263	0	
0.9653	15.0916	7.38129	0	
0.9660	18.758	7.09263	0	
0.9667	17.2367	7.69056	0	
0.9673	11.7447	7.99983	0	
0.9680	8.38253	5.85555	0	
0.9687	5.93319	5.25762	0	
0.9693	1.3692	5.25762	0	
0.9700	1.06493	4.04115	0	
0.9707	2.282	4.04115	0	
0.9713	-3.21001	3.11334	0	
0.9720	-10.2386	-1.46389	0	
0.9727	-13.2812	-3.2989	0	
0.9733	-18.1647	-2.68036	0	
0.9740	-23.3524	-4.82464	0	
0.9747	-20.0055	-6.63904	0	
0.9753	-10.8471	-3.89683	0	
0.9760	-1.68868	-1.15461	0	
0.9767	5.02039	2.20614	0	
0.9773	10.5124	5.56689	0	
0.9780	15.7001	4.63908	0	
0.9787	12.3532	1.89687	0	
0.9793	0.441186	0.0618544	0	
0.9800	-3.21001	-2.06181	0	
0.9807	5.32466	-2.06181	0	
0.9813	7.774	0.0618544	0	
0.9820	2.89053	2.20614	0	
0.9827	2.282	4.04115	0	
0.9833	5.93319	3.42261	0	
0.9840	6.8612	-0.247417	0	
0.9847	4.10759	-2.06181	0	
0.9853	-1.38441	-1.77316	0	
0.9860	-3.21001	-3.2989	0	
0.9867	2.282	-3.58755	0	
0.9873	8.07827	-1.15461	0	
0.9880	6.8612	-1.15461	0	
0.9887	-0.167346	-3.89683	0	
0.9893	-10.2386	-5.73184	0	
0.9900	-16.0348	-3.89683	0	
0.9907	-13.8898	-1.77316	0	
0.9913	-11.7599	-2.98963	0	
0.9920	-12.0642	-4.82464	0	
0.9927	-3.21001	-2.98963	0	
0.9933	11.4404	-1.15461	0	
0.9940	16.0044	-0.536071	0	
0.9947	12.0489	-0.247417	0	
0.9953	6.8612	-1.15461	0	
0.9960	-1.38441	-2.06181	0	
0.9967	-6.87642	-1.15461	0	
0.9973	-3.51427	0.0618544	0	
0.9980	-1.68868	-1.15461	0	
0.9987	-5.35508	-2.98963	0	
0.9993	-7.48495	-1.46389	0	
1.0000	-7.48495	0.371126	0	
1.0007	-10.2386	-0.845343	0	
1.0013	-13.2812	-2.37108	0	
1.0020	-11.4556	-2.98963	0	
1.0027	-4.12281	-4.82464	0	
1.0033	-0.775879	-4.82464	0	
1.0040	-3.51427	-0.247417	0	
1.0047	-5.05082	2.20614	0	
1.0053	-4.74655	-0.247417	0	
1.0060	-3.51427	0.0618544	0	
1.0067	3.19479	3.73188	0	
1.0073	9.90386	4.63908	0	
1.0080	11.1361	3.42261	0	
1.0087	10.8167	1.89687	0	
1.0093	7.774	0.98967	0	
1.0100	0.13692	-0.247417	0	
1.0107	-1.08014	-2.37108	0	
1.0113	2.282	-2.98963	0	
1.0120	-0.471613	-0.536071	0	
1.0127	-3.51427	2.20614	0	
1.0133	-3.51427	0.98967	0	
1.0140	-6.26788	-2.37108	0	
1.0147	-9.63002	-2.68036	0	
1.0153	-12.3684	0.680398	0	
1.0160	-16.3391	2.20614	0	
1.0167	-16.6434	0.680398	0	
1.0173	-11.7599	0.98967	0	
1.0180	-10.8471	1.5876	0	
1.0187	-9.63002	1.5876	0	
1.0193	-1.38441	0.680398	0	
1.0200	3.19479	-2.06181	0	
1.0207	-5.96362	-2.68036	0	
1.0213	-21.2226	0.371126	0	
1.0220	-29.7572	-0.536071	0	
1.0227	-30.0767	-2.68036	0	
1.0233	-25.8018	1.27832	0	
1.0240	-23.0482	4.32981	0	
1.0247	-23.3524	0.98967	0	
1.0253	-22.4396	0.371126	0	
1.0260	-18.1647	2.20614	0	
1.0267	-11.4556	2.51541	0	
1.0273	-1.38441	4.32981	0	
1.0280	15.3959	6.16482	0	
1.0287	38.5962	4.04115	0	
1.0293	59.6514	3.42261	0	
1.0300	71.5482	4.32981	0	
1.0307	72.4762	3.73188	0	
1.0313	61.7812	2.51541	0	
1.0320	41.3346	0.371126	0	
1.0327	24.25	-4.2061	0	
1.0333	19.0623	-6.04111	0	
1.0340	17.2367	-3.89683	0	
1.0347	11.7447	-2.06181	0	
1.0353	8.99106	-0.247417	0	
1.0360	10.8167	1.5876	0	
1.0367	9.29533	0.680398	0	
1.0373	5.02039	0.98967	0	
1.0380	4.10759	4.32981	0	
1.0387	4.71613	5.25762	0	
1.0393	0.441186	2.51541	0	
1.0400	-5.35508	0.371126	0	
1.0407	-10.5428	-0.247417	0	
1.0413	-13.8898	-1.46389	0	
1.0420	-16.0348	-4.51537	0	
1.0427	-17.5562	-6.63904	0	
1.0433	-17.8604	-7.25758	0	
1.0440	-14.194	-8.47405	0	
1.0447	-8.09348	-7.56685	0	
1.0453	-5.05082	-3.58755	0	
1.0460	-6.87642	-1.77316	0	
1.0467	-9.00628	-2.06181	0	
1.0473	-9.31054	-0.845343	0	
1.0480	-11.7599	-0.845343	0	
1.0487	-15.122	-3.89683	0	
1.0493	-15.4263	-4.2061	0	
1.0500	-16.9476	-2.37108	0	
1.0507	-20.3098	-0.247417	0	
1.0513	-19.0775	3.42261	0	
1.0520	-13.2812	5.25762	0	
1.0527	-6.87642	1.5876	0	
1.0533	-2.29721	-2.98963	0	
1.0540	-3.21001	-2.06181	0	
1.0547	-7.48495	0.98967	0	
1.0553	-6.57215	1.89687	0	
1.0560	0.441186	3.42261	0	
1.0567	6.55694	4.32981	0	
1.0573	8.6868	2.20614	0	
1.0580	6.8612	0.680398	0	
1.0587	4.41186	1.5876	0	
1.0593	5.32466	1.27832	0	
1.0600	6.55694	2.51541	0	
1.0607	3.19479	5.25762	0	
1.0613	-0.167346	4.04115	0	
1.0620	-1.38441	-0.247417	0	
1.0627	-3.21001	-2.06181	0	
1.0633	-1.38441	-2.98963	0	
1.0640	2.282	-2.98963	0	
1.0647	-1.68868	-0.247417	0	
1.0653	-10.8471	0.680398	0	
1.0660	-13.2812	-3.58755	0	
1.0667	-9.63002	-6.35038	0	
1.0673	-7.78921	-2.06181	0	
1.0680	-6.87642	1.89687	0	
1.0687	-4.44229	0.680398	0	
1.0693	-4.74655	-0.247417	0	
1.0700	-8.39775	0.371126	0	
1.0707	-8.70201	-0.536071	0	
1.0713	-2.60148	-0.845343	0	
1.0720	4.71613	2.51541	0	
1.0727	11.1361	3.73188	0	
1.0733	18.1495	2.51541	0	
1.0740	22.1201	3.42261	0	
1.0747	19.6708	4.94835	0	
1.0753	16.3239	4.32981	0	
1.0760	14.1788	2.80406	0	
1.0767	7.774	0.0618544	0	
1.0773	-5.35508	-3.89683	0	
1.0780	-18.1647	-7.56685	0	
1.0787	-21.5268	-10.3091	0	
1.0793	-16.0348	-11.8348	0	
1.0800	-6.87642	-10.6183	0	
1.0807	2.282	-8.47405	0	
1.0813	8.38253	-6.35038	0	
1.0820	6.25267	-2.98963	0	
1.0827	1.06493	-2.06181	0	
1.0833	0.441186	-4.51537	0	
1.0840	3.19479	-4.82464	0	
1.0847	7.16547	-2.37108	0	
1.0853	11.7447	-1.46389	0	
1.0860	15.0916	-1.77316	0	
1.0867	14.1788	-1.15461	0	
1.0873	10.5124	-1.15461	0	
1.0880	7.46973	-2.06181	0	
1.0887	1.97773	-0.247417	0	
1.0893	-8.39775	0.0618544	0	
1.0900	-18.7732	-2.98963	0	
1.0907	-23.6567	-3.58755	0	
1.0913	-25.4975	0.0618544	0	
1.0920	-27.0188	0.371126	0	
1.0927	-27.3231	-2.37108	0	
1.0933	-32.2066	-3.89683	0	
1.0940	-38.9156	-5.73184	0	
1.0947	-31.9023	-6.35038	0	
1.0953	-11.1514	-3.2989	0	
1.0960	5.32466	-0.536071	0	
1.0967	14.7873	0.0618544	0	
1.0973	25.1628	1.5876	0	
1.0980	29.1335	1.89687	0	
1.0987	23.3372	-0.845343	0	
1.0993	18.1495	-2.06181	0	
1.1000	14.1788	-1.15461	0	
1.1007	8.6868	0.0618544	0	
1.1013	5.93319	0.680398	0	
1.1020	3.49906	1.27832	0	
1.1027	-1.38441	2.51541	0	
1.1033	-2.29721	2.80406	0	
1.1040	-0.471613	1.89687	0	
1.1047	-3.81854	0.680398	0	
1.1053	-5.65935	-2.37108	0	
1.1060	1.67346	-4.82464	0	
1.1067	8.99106	-2.98963	0	
1.1073	11.1361	0.680398	0	
1.1080	12.9617	3.42261	0	
1.1087	15.0916	7.99983	0	
1.1093	16.6281	11.6699	0	
1.1100	20.8879	10.1441	0	
1.1107	22.4244	8.61838	0	
1.1113	16.6281	7.38129	0	
1.1120	12.3532	3.42261	0	
1.1127	12.6575	1.89687	0	
1.1133	10.5124	3.42261	0	
1.1140	8.07827	2.51541	0	
1.1147	8.38253	1.89687	0	
1.1153	5.93319	4.04115	0	
1.1160	0.13692	2.20614	0	
1.1167	-2.29721	-2.06181	0	
1.1173	-3.21001	-2.98963	0	
1.1180	-6.87642	-2.68036	0	
1.1187	-10.8471	-4.51537	0	
1.1193	-15.122	-7.25758	0	
1.1200	-23.3524	-12.742	0	
1.1207	-29.1487	-18.5563	0	
1.1213	-25.8018	-17.3398	0	
1.1220	-20.614	-11.8348	0	
1.1227	-20.614	-8.16478	0	
1.1233	-20.614	-5.73184	0	
1.1240	-18.1647	-3.58755	0	
1.1247	-18.7732	-3.89683	0	
1.1253	-20.3098	-4.51537	0	
1.1260	-19.7012	-2.98963	0	
1.1267	-20.3098	-3.58755	0	
1.1273	-18.469	-6.63904	0	
1.1280	-12.6727	-6.63904	0	
1.1287	-8.70201	-3.58755	0	
1.1293	-4.44229	-0.536071	0	
1.1300	5.02039	0.680398	0	
1.1307	12.3532	-0.247417	0	
1.1313	12.3532	-0.536071	0	
1.1320	10.8167	1.5876	0	
1.1327	7.16547	2.80406	0	
1.1333	3.19479	4.63908	0	
1.1340	5.93319	7.09263	0	
1.1347	6.55694	4.94835	0	
1.1353	0.745452	2.51541	0	
1.1360	2.282	4.32981	0	
1.1367	8.38253	4.32981	0	
1.1373	4.10759	0.680398	0	
1.1380	-2.29721	0.0618544	0	
1.1387	-0.167346	1.5876	0	
1.1393	1.97773	1.5876	0	
1.1400	0.13692	1.27832	0	
1.1407	1.3692	-0.247417	0	
1.1413	5.93319	-2.98963	0	
1.1420	10.5124	-2.98963	0	
1.1427	11.1361	1.5876	0	
1.1433	7.774	7.38129	0	
1.1440	8.07827	8.61838	0	
1.1447	12.3532	6.16482	0	
1.1453	12.0489	6.16482	0	
1.1460	8.38253	7.38129	0	
1.1467	8.6868	5.85555	0	
1.1473	9.29533	6.47409	0	
1.1480	6.55694	7.09263	0	
1.1487	4.10759	1.5876	0	
1.1493	3.19479	-1.46389	0	
1.1500	0.13692	0.98967	0	
1.1507	-7.48495	0.680398	0	
1.1513	-18.469	-3.89683	0	
1.1520	-23.6567	-7.56685	0	
1.1527	-19.0775	-9.69052	0	
1.1533	-14.5135	-10.3091	0	
1.1540	-16.0348	-9.40186	0	
1.1547	-16.3391	-7.56685	0	
1.1553	-9.31054	-4.51537	0	
1.1560	2.282	0.0618544	0	
1.1567	8.6868	3.11334	0	
1.1573	5.02039	4.04115	0	
1.1580	1.3692	4.32981	0	
1.1587	2.58626	4.32981	0	
1.1593	-0.775879	3.73188	0	
1.1600	-6.87642	3.42261	0	
1.1607	-9.31054	2.80406	0	
1.1613	-12.3684	2.80406	0	
1.1620	-14.194	1.5876	0	
1.1627	-8.70201	-2.37108	0	
1.1633	-2.60148	-5.73184	0	
1.1640	-0.471613	-5.73184	0	
1.1647	0.441186	-4.2061	0	
1.1653	-1.08014	-3.89683	0	
1.1660	-3.51427	-3.2989	0	
1.1667	-1.99294	-0.845343	0	
1.1673	0.13692	0.680398	0	
1.1680	-0.471613	-1.15461	0	
1.1687	1.97773	-3.2989	0	
1.1693	5.02039	-2.68036	0	
1.1700	3.49906	-1.15461	0	
1.1707	1.06493	-1.46389	0	
1.1713	1.06493	-2.37108	0	
1.1720	1.67346	-1.77316	0	
1.1727	1.3692	1.5876	0	
1.1733	1.97773	3.42261	0	
1.1740	3.80333	2.51541	0	
1.1747	3.49906	2.51541	0	
1.1753	1.3692	3.42261	0	
1.1760	-0.471613	1.89687	0	
1.1767	0.441186	1.89687	0	
1.1773	4.71613	2.20614	0	
1.1780	8.6868	0.680398	0	
1.1787	11.4404	3.11334	0	
1.1793	12.0489	6.78336	0	
1.1800	6.55694	3.73188	0	
1.1807	-1.68868	1.5876	0	
1.1813	-3.51427	5.25762	0	
1.1820	-4.12281	3.42261	0	
1.1827	-7.78921	-1.46389	0	
1.1833	-8.09348	-0.845343	0	
1.1840	-2.60148	-0.536071	0	
1.1847	1.3692	-3.2989	0	
1.1853	3.80333	-1.77316	0	
1.1860	5.02039	0.371126	0	
1.1867	1.97773	-1.15461	0	
1.1873	-1.08014	-2.06181	0	
1.1880	-1.38441	-4.2061	0	
1.1887	-4.12281	-10.6183	0	
1.1893	-7.78921	-12.4533	0	
1.1900	-6.87642	-7.87612	0	
1.1907	-1.68868	-4.82464	0	
1.1913	2.58626	-3.58755	0	
1.1920	5.93319	-1.46389	0	
1.1927	7.16547	-0.247417	0	
1.1933	3.80333	-2.06181	0	
1.1940	-1.38441	-4.82464	0	
1.1947	-5.05082	-6.63904	0	
1.1953	-8.09348	-9.40186	0	
1.1960	-9.63002	-9.99979	0	
1.1967	-6.57215	-4.82464	0	
1.1973	-5.05082	-1.15461	0	
1.1980	-6.87642	-2.06181	0	
1.1987	-5.35508	-0.247417	0	
1.1993	-0.775879	3.42261	0	
1.2000	0.13692	2.51541	0	
1.2007	-0.471613	1.89687	0	
1.2013	1.97773	4.94835	0	
1.2020	5.32466	4.94835	0	
1.2027	6.55694	2.80406	0	
1.2033	7.774	3.42261	0	
1.2040	8.6868	5.25762	0	
1.2047	7.774	7.09263	0	
1.2053	7.16547	7.38129	0	
1.2060	5.32466	5.56689	0	
1.2067	-1.38441	5.56689	0	
1.2073	-7.78921	6.78336	0	
1.2080	-8.39775	3.73188	0	
1.2087	-7.78921	-0.247417	0	
1.2093	-11.7599	-1.46389	0	
1.2100	-18.7732	-4.82464	0	
1.2107	-20.9183	-6.94831	0	
1.2113	-13.5855	-4.82464	0	
1.2120	-6.57215	-6.63904	0	
1.2127	-12.977	-14.2884	0	
1.2133	-19.7012	-15.8141	0	
1.2140	-8.09348	-11.2163	0	
1.2147	8.38253	-8.47405	0	
1.2153	10.5124	-7.87612	0	
1.2160	6.8612	-7.87612	0	
1.2167	5.93319	-6.63904	0	
1.2173	5.93319	-2.68036	0	
1.2180	7.774	0.680398	0	
1.2187	12.0489	1.5876	0	
1.2193	14.7873	2.51541	0	
1.2200	13.266	3.11334	0	
1.2207	10.5124	3.42261	0	
1.2213	9.90386	3.42261	0	
1.2220	11.4404	3.42261	0	
1.2227	12.0489	4.94835	0	
1.2233	10.5124	5.25762	0	
1.2240	8.6868	3.42261	0	
1.2247	7.16547	3.42261	0	
1.2253	5.32466	4.32981	0	
1.2260	5.02039	2.80406	0	
1.2267	6.55694	1.5876	0	
1.2273	9.5996	2.80406	0	
1.2280	14.1788	3.42261	0	
1.2287	14.4831	3.73188	0	
1.2293	11.1361	3.11334	0	
1.2300	8.6868	0.371126	0	
1.2307	5.93319	1.27832	0	
1.2313	3.49906	6.47409	0	
1.2320	4.71613	6.78336	0	
1.2327	5.93319	2.80406	0	
1.2333	5.02039	3.42261	0	
1.2340	5.02039	4.63908	0	
1.2347	2.282	-0.247417	0	
1.2353	-3.81854	-2.98963	0	
1.2360	-5.05082	-0.247417	0	
1.2367	-3.21001	0.0618544	0	
1.2373	-6.87642	-2.68036	0	
1.2380	-12.0642	-2.98963	0	
1.2387	-12.0642	-2.06181	0	
1.2393	-13.5855	-0.845343	0	
1.2400	-18.1647	-0.247417	0	
1.2407	-21.5268	-4.51537	0	
1.2413	-25.4975	-9.69052	0	
1.2420	-27.6274	-8.47405	0	
1.2427	-24.2652	-4.82464	0	
1.2433	-20.614	-4.82464	0	
1.2440	-21.5268	-4.82464	0	
1.2447	-19.3818	-2.98963	0	
1.2453	-11.4556	-0.845343	0	
1.2460	-7.78921	0.0618544	0	
1.2467	-13.2812	-0.247417	0	
1.2473	-19.3818	2.51541	0	
1.2480	-16.9476	7.09263	0	
1.2487	-12.3684	4.94835	0	
1.2493	-13.8898	0.371126	0	
1.2500	-14.194	1.5876	0	
1.2507	-6.87642	2.51541	0	
1.2513	1.3692	-1.77316	0	
1.2520	5.02039	-1.15461	0	
1.2527	6.8612	1.5876	0	
1.2533	7.16547	-1.15461	0	
1.2540	7.46973	-2.06181	0	
1.2547	8.07827	1.27832	0	
1.2553	7.16547	2.20614	0	
1.2560	6.25267	1.5876	0	
1.2567	8.6868	1.27832	0	
1.2573	8.6868	-2.98963	0	
1.2580	2.282	-7.56685	0	
1.2587	-5.05082	-7.25758	0	
1.2593	-5.05082	-5.73184	0	
1.2600	-0.471613	-6.04111	0	
1.2607	0.441186	-4.51537	0	
1.2613	-3.21001	-2.06181	0	
1.2620	-5.05082	-1.15461	0	
1.2627	-4.12281	-0.845343	0	
1.2633	-4.12281	0.0618544	0	
1.2640	-4.12281	0.680398	0	
1.2647	-2.90574	0.680398	0	
1.2653	-3.21001	-0.247417	0	
1.2660	-4.12281	0.0618544	0	
1.2667	-2.29721	0.680398	0	
1.2673	-0.167346	0.98967	0	
1.2680	4.10759	0.680398	0	
1.2687	14.7873	2.80406	0	
1.2693	26.3951	7.69056	0	
1.2700	26.6994	8.3091	0	
1.2707	21.8159	5.25762	0	
1.2713	23.9457	6.16482	0	
1.2720	26.0756	9.83485	0	
1.2727	18.4537	7.09263	0	
1.2733	8.6868	1.5876	0	
1.2740	0.441186	-1.77316	0	
1.2747	-8.09348	-4.82464	0	
1.2753	-10.5428	-7.25758	0	
1.2760	-5.05082	-6.04111	0	
1.2767	-2.29721	-4.82464	0	
1.2773	-6.87642	-5.73184	0	
1.2780	-15.122	-6.35038	0	
1.2787	-21.2226	-6.04111	0	
1.2793	-20.9183	-4.82464	0	
1.2800	-18.7732	-2.98963	0	
1.2807	-17.8604	-2.06181	0	
1.2813	-13.2812	-0.536071	0	
1.2820	-6.87642	2.51541	0	
1.2827	-3.21001	3.73188	0	
1.2833	1.67346	2.51541	0	
1.2840	7.16547	3.11334	0	
1.2847	5.02039	3.42261	0	
1.2853	0.441186	1.27832	0	
1.2860	0.745452	0.680398	0	
1.2867	1.3692	2.20614	0	
1.2873	4.41186	1.27832	0	
1.2880	10.5124	-0.845343	0	
1.2887	14.4831	-0.845343	0	
1.2893	18.1495	-1.15461	0	
1.2900	20.8879	-2.06181	0	
1.2907	16.6281	-1.46389	0	
1.2913	9.90386	-2.98963	0	
1.2920	6.25267	-7.87612	0	
1.2927	-2.60148	-11.2163	0	
1.2933	-11.1514	-10.3091	0	
1.2940	-11.4556	-9.40186	0	
1.2947	-14.194	-9.69052	0	
1.2953	-20.9183	-9.09259	0	
1.2960	-19.3818	-7.56685	0	
1.2967	-11.7599	-5.11329	0	
1.2973	-9.63002	-2.98963	0	
1.2980	-12.3684	-2.98963	0	
1.2987	-14.194	-2.98963	0	
1.2993	-13.8898	-1.15461	0	
1.3000	-12.3684	-0.536071	0	
1.3007	-10.8471	-1.46389	0	
1.3013	-8.09348	0.371126	0	
1.3020	-4.74655	2.51541	0	
1.3027	-0.471613	0.680398	0	
1.3033	0.441186	-0.536071	0	
1.3040	-2.29721	1.5876	0	
1.3047	-5.05082	0.680398	0	
1.3053	-7.78921	-3.2989	0	
1.3060	-9.63002	-4.51537	0	
1.3067	-5.05082	-3.2989	0	
1.3073	0.745452	-2.06181	0	
1.3080	-0.167346	0.680398	0	
1.3087	-1.08014	0.98967	0	
1.3093	3.19479	-0.247417	0	
1.3100	4.10759	1.89687	0	
1.3107	3.19479	5.56689	0	
1.3113	6.8612	4.63908	0	
1.3120	9.29533	2.51541	0	
1.3127	7.774	3.42261	0	
1.3133	9.5996	6.16482	0	
1.3140	15.0916	7.09263	0	
1.3147	13.266	7.09263	0	
1.3153	8.38253	5.56689	0	
1.3160	6.55694	3.42261	0	
1.3167	4.71613	4.04115	0	
1.3173	0.13692	4.94835	0	
1.3180	-2.60148	1.5876	0	
1.3187	-2.60148	-2.06181	0	
1.3193	-2.29721	-1.15461	0	
1.3200	0.13692	-1.77316	0	
1.3207	2.282	-6.04111	0	
1.3213	1.97773	-7.87612	0	
1.3220	1.06493	-4.51537	0	
1.3227	-1.08014	-2.98963	0	
1.3233	-5.05082	-4.82464	0	
1.3240	-7.48495	-3.2989	0	
1.3247	-5.96362	0.680398	0	
1.3253	-3.51427	1.5876	0	
1.3260	-0.775879	0.371126	0	
1.3267	3.19479	2.80406	0	
1.3273	7.774	4.04115	0	
1.3280	12.3532	1.5876	0	
1.3287	13.5703	1.89687	0	
1.3293	12.0489	3.73188	0	
1.3300	10.8167	3.73188	0	
1.3307	8.6868	4.63908	0	
1.3313	6.55694	6.16482	0	
1.3320	8.6868	5.25762	0	
1.3327	11.4404	6.16482	0	
1.3333	8.6868	8.61838	0	
1.3340	5.93319	6.78336	0	
1.3347	3.49906	3.42261	0	
1.3353	-2.29721	3.42261	0	
1.3360	-3.51427	3.11334	0	
1.3367	5.02039	1.89687	0	
1.3373	8.6868	1.5876	0	
1.3380	-1.08014	1.5876	0	
1.3387	-12.977	-1.77316	0	
1.3393	-17.8604	-7.56685	0	
1.3400	-18.7732	-8.16478	0	
1.3407	-16.0348	-3.2989	0	
1.3413	-11.4556	-3.89683	0	
1.3420	-9.31054	-6.63904	0	
1.3427	-10.8471	-2.98963	0	
1.3433	-11.1514	-0.247417	0	
1.3440	-5.65935	-1.46389	0	
1.3447	0.441186	0.680398	0	
1.3453	4.71613	2.80406	0	
1.3460	11.1361	1.89687	0	
1.3467	17.8452	3.42261	0	
1.3473	18.1495	6.16482	0	
1.3480	12.3532	4.32981	0	
1.3487	5.32466	1.27832	0	
1.3493	-1.68868	-1.77316	0	
1.3500	-7.48495	-6.94831	0	
1.3507	-12.3684	-11.5255	0	
1.3513	-14.5135	-12.1441	0	
1.3520	-14.194	-10.9276	0	
1.3527	-16.9476	-10.6183	0	
1.3533	-22.1354	-11.2163	0	
1.3540	-21.2226	-10.3091	0	
1.3547	-15.122	-8.16478	0	
1.3553	-11.4556	-6.04111	0	
1.3560	-11.7599	-3.89683	0	
1.3567	-12.6727	-2.06181	0	
1.3573	-11.7599	-2.98963	0	
1.3580	-9.31054	-4.2061	0	
1.3587	-6.87642	-4.82464	0	
1.3593	-5.35508	-4.51537	0	
1.3600	-5.05082	-2.06181	0	
1.3607	-8.09348	0.680398	0	
1.3613	-12.0642	2.20614	0	
1.3620	-14.8178	3.11334	0	
1.3627	-12.6727	3.42261	0	
1.3633	-3.21001	2.51541	0	
1.3640	6.55694	2.51541	0	
1.3647	5.62892	5.25762	0	
1.3653	1.3692	6.47409	0	
1.3660	2.282	5.85555	0	
1.3667	5.32466	5.85555	0	
1.3673	6.55694	7.09263	0	
1.3680	6.8612	6.78336	0	
1.3687	8.6868	5.25762	0	
1.3693	13.8745	5.85555	0	
1.3700	22.7287	7.09263	0	
1.3707	27.0036	5.25762	0	
1.3713	25.1628	3.11334	0	
1.3720	18.758	2.51541	0	
1.3727	8.99106	0.680398	0	
1.3733	2.282	-0.247417	0	
1.3740	2.89053	1.89687	0	
1.3747	2.282	0.680398	0	
1.3753	-0.471613	-2.06181	0	
1.3760	2.58626	1.5876	0	
1.3767	4.41186	4.94835	0	
1.3773	-2.60148	1.89687	0	
1.3780	-6.57215	1.5876	0	
1.3787	-3.81854	4.04115	0	
1.3793	-3.51427	2.51541	0	
1.3800	-4.44229	0.98967	0	
1.3807	-5.05082	1.5876	0	
1.3813	-10.5428	0.0618544	0	
1.3820	-14.8178	-2.98963	0	
1.3827	-11.1514	-3.2989	0	
1.3833	-9.93429	-2.06181	0	
1.3840	-13.5855	-0.247417	0	
1.3847	-11.7599	0.0618544	0	
1.3853	-3.21001	-2.98963	0	
1.3860	2.58626	-4.51537	0	
1.3867	5.93319	-1.77316	0	
1.3873	14.4831	0.0618544	0	
1.3880	25.1628	-0.247417	0	
1.3887	27.9164	0.680398	0	
1.3893	25.7713	2.20614	0	
1.3900	23.3372	2.51541	0	
1.3907	16.9324	2.80406	0	
1.3913	8.6868	3.42261	0	
1.3920	9.90386	5.25762	0	
1.3927	19.6708	7.09263	0	
1.3933	24.8585	6.47409	0	
1.3940	22.4244	5.85555	0	
1.3947	14.4831	6.16482	0	
1.3953	4.10759	3.73188	0	
1.3960	-3.51427	0.0618544	0	
1.3967	-7.18068	0.680398	0	
1.3973	-8.70201	1.5876	0	
1.3980	-9.00628	-2.37108	0	
1.3987	-9.63002	-5.11329	0	
1.3993	-12.6727	-3.58755	0	
1.4000	-15.122	-4.51537	0	
1.4007	-12.6727	-9.09259	0	
1.4013	-8.70201	-10.3091	0	
1.4020	-5.05082	-7.56685	0	
1.4027	-0.167346	-5.11329	0	
1.4033	1.3692	-2.68036	0	
1.4040	-2.29721	-1.15461	0	
1.4047	-1.08014	-1.77316	0	
1.4053	4.41186	-2.98963	0	
1.4060	4.41186	-2.68036	0	
1.4067	1.06493	-2.06181	0	
1.4073	-0.167346	-2.37108	0	
1.4080	-3.81854	-2.98963	0	
1.4087	-8.39775	-1.15461	0	
1.4093	-8.09348	0.371126	0	
1.4100	-6.57215	-2.68036	0	
1.4107	-7.78921	-7.56685	0	
1.4113	-8.39775	-7.87612	0	
1.4120	-9.00628	-7.25758	0	
1.4127	-13.5855	-10.3091	0	
1.4133	-16.3391	-11.8348	0	
1.4140	-12.0642	-8.47405	0	
1.4147	-7.78921	-7.87612	0	
1.4153	-9.31054	-9.99979	0	
1.4160	-11.1514	-8.47405	0	
1.4167	-10.5428	-5.73184	0	
1.4173	-10.2386	-5.11329	0	
1.4180	-7.18068	-5.42257	0	
1.4187	-1.08014	-5.73184	0	
1.4193	-1.08014	-3.89683	0	
1.4200	-6.87642	-0.536071	0	
1.4207	-8.39775	0.680398	0	
1.4213	-4.12281	-2.37108	0	
1.4220	-3.21001	-5.42257	0	
1.4227	-6.26788	-5.42257	0	
1.4233	-6.26788	-2.06181	0	
1.4240	-1.38441	0.680398	0	
1.4247	-0.167346	-1.46389	0	
1.4253	-3.21001	-2.98963	0	
1.4260	-3.21001	-0.247417	0	
1.4267	0.441186	0.680398	0	
1.4273	5.02039	1.5876	0	
1.4280	10.2081	5.25762	0	
1.4287	12.3532	6.16482	0	
1.4293	9.5996	3.11334	0	
1.4300	8.07827	3.11334	0	
1.4307	8.6868	5.56689	0	
1.4313	6.8612	6.78336	0	
1.4320	2.89053	5.25762	0	
1.4327	-0.471613	1.5876	0	
1.4333	-1.68868	1.5876	0	
1.4340	-1.38441	6.16482	0	
1.4347	0.13692	6.16482	0	
1.4353	1.97773	3.42261	0	
1.4360	2.58626	4.32981	0	
1.4367	1.97773	7.09263	0	
1.4373	1.67346	7.09263	0	
1.4380	1.3692	6.16482	0	
1.4387	0.441186	4.32981	0	
1.4393	0.13692	1.5876	0	
1.4400	1.3692	0.680398	0	
1.4407	1.3692	0.371126	0	
1.4413	1.06493	0.371126	0	
1.4420	1.67346	-0.247417	0	
1.4427	1.3692	-2.06181	0	
1.4433	-3.21001	-1.77316	0	
1.4440	-6.57215	1.5876	0	
1.4447	0.441186	2.51541	0	
1.4453	11.4404	2.20614	0	
1.4460	15.3959	5.85555	0	
1.4467	15.0916	8.3091	0	
1.4473	17.5409	6.78336	0	
1.4480	16.9324	6.78336	0	
1.4487	12.9617	8.90703	0	
1.4493	13.266	7.69056	0	
1.4500	14.4831	5.25762	0	
1.4507	10.5124	5.25762	0	
1.4513	6.8612	4.04115	0	
1.4520	5.62892	0.680398	0	
1.4527	0.441186	-2.06181	0	
1.4533	-5.05082	-2.98963	0	
1.4540	-9.00628	-4.51537	0	
1.4547	-16.6434	-6.63904	0	
1.4553	-18.7732	-6.94831	0	
1.4560	-12.0642	-4.82464	0	
1.4567	-10.8471	-3.2989	0	
1.4573	-12.977	-4.51537	0	
1.4580	-4.12281	-5.42257	0	
1.4587	5.93319	-3.58755	0	
1.4593	5.93319	-1.77316	0	
1.4600	4.71613	-2.37108	0	
1.4607	5.02039	-4.82464	0	
1.4613	3.19479	-6.63904	0	
1.4620	0.441186	-5.42257	0	
1.4627	-1.68868	-4.2061	0	
1.4633	-4.12281	-4.82464	0	
1.4640	-6.87642	-4.51537	0	
1.4647	-11.1514	-6.63904	0	
1.4653	-14.194	-12.742	0	
1.4660	-15.122	-15.1956	0	
1.4667	-16.3391	-13.0513	0	
1.4673	-16.3391	-12.1441	0	
1.4680	-11.4556	-10.3091	0	
1.4687	-10.5428	-6.04111	0	
1.4693	-14.194	-5.73184	0	
1.4700	-13.2812	-6.63904	0	
1.4707	-8.09348	-4.2061	0	
1.4713	-4.44229	-2.98963	0	
1.4720	-2.60148	-4.82464	0	
1.4727	-1.68868	-6.63904	0	
1.4733	-2.90574	-6.04111	0	
1.4740	-4.44229	-3.2989	0	
1.4747	-4.12281	-2.37108	0	
1.4753	-1.68868	-3.2989	0	
1.4760	-0.471613	-0.247417	0	
1.4767	-1.38441	3.73188	0	
1.4773	0.441186	1.5876	0	
1.4780	5.02039	0.371126	0	
1.4787	6.8612	3.42261	0	
1.4793	7.774	2.51541	0	
1.4800	10.2081	0.680398	0	
1.4807	11.4404	4.32981	0	
1.4813	8.6868	5.25762	0	
1.4820	5.93319	0.680398	0	
1.4827	2.89053	0.0618544	0	
1.4833	0.441186	1.5876	0	
1.4840	-0.167346	-1.77316	0	
1.4847	-1.08014	-3.89683	0	
1.4853	-3.21001	-1.46389	0	
1.4860	-3.51427	-1.15461	0	
1.4867	-1.68868	-2.06181	0	
1.4873	-1.38441	-1.15461	0	
1.4880	-4.12281	-0.536071	0	
1.4887	-6.87642	-1.15461	0	
1.4893	-3.21001	0.371126	0	
1.4900	4.10759	1.27832	0	
1.4907	3.19479	1.5876	0	
1.4913	-5.05082	3.42261	0	
1.4920	-9.31054	5.25762	0	
1.4927	-12.0642	4.32981	0	
1.4933	-16.3391	2.20614	0	
1.4940	-16.0348	0.680398	0	
1.4947	-9.31054	1.27832	0	
1.4953	-3.21001	3.42261	0	
1.4960	-1.08014	4.94835	0	
1.4967	-1.68868	5.56689	0	
1.4973	-5.96362	6.16482	0	
1.4980	-13.2812	5.56689	0	
1.4987	-14.194	2.20614	0	
1.4993	-7.18068	-2.68036	0	
1.5000	-4.12281	-5.73184	0	
1.5007	-3.51427	-5.42257	0	
1.5013	4.71613	-4.2061	0	
1.5020	10.8167	-5.11329	0	
1.5027	6.25267	-6.04111	0	
1.5033	2.282	-4.82464	0	
1.5040	1.3692	-2.98963	0	
1.5047	0.441186	-1.46389	0	
1.5053	8.38253	2.51541	0	
1.5060	21.5116	6.16482	0	
1.5067	27.3079	6.16482	0	
1.5073	27.9164	4.32981	0	
1.5080	25.1628	3.42261	0	
1.5087	19.0623	1.89687	0	
1.5093	15.0916	2.51541	0	
1.5100	12.0489	5.25762	0	
1.5107	5.62892	3.73188	0	
1.5113	2.58626	2.20614	0	
1.5120	0.441186	4.32981	0	
1.5127	-5.05082	1.89687	0	
1.5133	-4.12281	-2.98963	0	
1.5140	0.441186	-1.15461	0	
1.5147	-4.12281	2.51541	0	
1.5153	-10.5428	0.98967	0	
1.5160	-7.78921	0.0618544	0	
1.5167	-0.471613	0.98967	0	
1.5173	3.19479	-0.536071	0	
1.5180	1.67346	-1.15461	0	
1.5187	-2.29721	0.371126	0	
1.5193	-5.65935	-0.536071	0	
1.5200	-9.31054	-2.06181	0	
1.5207	-12.0642	-1.46389	0	
1.5213	-9.31054	-1.15461	0	
1.5220	-4.12281	0.371126	0	
1.5227	-2.29721	4.04115	0	
1.5233	-2.29721	5.25762	0	
1.5240	-2.29721	2.51541	0	
1.5247	-4.12281	1.27832	0	
1.5253	-4.74655	1.5876	0	
1.5260	-2.29721	1.5876	0	
1.5267	0.745452	4.32981	0	
1.5273	0.13692	7.09263	0	
1.5280	-3.21001	5.85555	0	
1.5287	-1.38441	4.63908	0	
1.5293	3.80333	5.25762	0	
1.5300	3.49906	1.5876	0	
1.5307	-0.471613	-2.37108	0	
1.5313	-2.90574	-0.536071	0	
1.5320	-7.18068	0.680398	0	
1.5327	-12.0642	-1.77316	0	
1.5333	-11.7599	-2.06181	0	
1.5340	-11.1514	-2.37108	0	
1.5347	-11.7599	-3.89683	0	
1.5353	-9.63002	-2.37108	0	
1.5360	-8.39775	-0.247417	0	
1.5367	-10.8471	0.98967	0	
1.5373	-10.8471	2.51541	0	
1.5380	-7.78921	0.371126	0	
1.5387	-5.05082	-4.2061	0	
1.5393	-2.60148	-2.98963	0	
1.5400	-1.38441	3.42261	0	
1.5407	-0.471613	5.25762	0	
1.5413	-0.167346	3.42261	0	
1.5420	-1.38441	2.20614	0	
1.5427	-1.08014	1.27832	0	
1.5433	1.06493	-0.247417	0	
1.5440	0.441186	-1.46389	0	
1.5447	1.67346	-1.15461	0	
1.5453	6.8612	0.680398	0	
1.5460	7.16547	0.98967	0	
1.5467	3.19479	0.0618544	0	
1.5473	1.67346	1.89687	0	
1.5480	1.67346	1.27832	0	
1.5487	2.282	-4.2061	0	
1.5493	5.02039	-5.11329	0	
1.5500	7.46973	-1.77316	0	
1.5507	6.25267	-1.77316	0	
1.5513	4.10759	-3.89683	0	
1.5520	1.06493	-5.42257	0	
1.5527	-3.21001	-7.56685	0	
1.5533	-6.26788	-7.56685	0	
1.5540	-2.90574	-7.56685	0	
1.5547	5.02039	-7.56685	0	
1.5553	7.774	-5.73184	0	
1.5560	4.10759	-3.58755	0	
1.5567	1.97773	-3.89683	0	
1.5573	0.745452	-3.2989	0	
1.5580	-4.12281	-1.77316	0	
1.5587	-5.05082	-1.77316	0	
1.5593	-0.167346	-1.15461	0	
1.5600	-2.29721	-2.06181	0	
1.5607	-9.31054	-2.98963	0	
1.5613	-9.63002	-0.247417	0	
1.5620	-6.26788	0.98967	0	
1.5627	-4.74655	-2.06181	0	
1.5633	-4.12281	-0.845343	0	
1.5640	-5.35508	3.42261	0	
1.5647	-5.96362	2.20614	0	
1.5653	-3.21001	-0.247417	0	
1.5660	-0.471613	0.98967	0	
1.5667	1.3692	3.11334	0	
1.5673	9.5996	3.42261	0	
1.5680	18.1495	2.51541	0	
1.5687	17.2367	1.5876	0	
1.5693	8.99106	1.5876	0	
1.5700	0.745452	0.680398	0	
1.5707	-2.90574	-2.37108	0	
1.5713	-1.68868	-3.89683	0	
1.5720	-3.21001	-4.2061	0	
1.5727	-7.78921	-6.63904	0	
1.5733	-9.31054	-5.73184	0	
1.5740	-5.35508	-0.536071	0	
1.5747	-1.38441	0.680398	0	
1.5753	-0.471613	-0.536071	0	
1.5760	-0.471613	-1.46389	0	
1.5767	0.745452	-3.89683	0	
1.5773	-0.471613	-5.11329	0	
1.5780	-7.48495	-3.58755	0	
1.5787	-11.1514	-3.58755	0	
1.5793	-10.2386	-4.82464	0	
1.5800	-10.5428	-3.58755	0	
1.5807	-5.05082	-2.06181	0	
1.5813	7.774	-0.536071	0	
1.5820	12.3532	1.5876	0	
1.5827	5.93319	0.0618544	0	
1.5833	3.49906	-2.06181	0	
1.5840	4.71613	-0.247417	0	
1.5847	3.19479	0.0618544	0	
1.5853	2.89053	-0.247417	0	
1.5860	6.25267	1.5876	0	
1.5867	7.774	1.27832	0	
1.5873	8.07827	-0.536071	0	
1.5880	7.774	0.98967	0	
1.5887	5.62892	3.11334	0	
1.5893	6.25267	1.89687	0	
1.5900	12.3532	2.20614	0	
1.5907	15.3959	5.25762	0	
1.5913	12.9617	6.16482	0	
1.5920	10.2081	4.04115	0	
1.5927	6.8612	2.51541	0	
1.5933	-1.68868	3.11334	0	
1.5940	-10.8471	3.73188	0	
1.5947	-17.8604	3.73188	0	
1.5953	-22.4396	4.04115	0	
1.5960	-22.4396	2.80406	0	
1.5967	-21.5268	-0.247417	0	
1.5973	-24.2652	-2.37108	0	
1.5980	-26.4103	-3.58755	0	
1.5987	-23.3524	-3.89683	0	
1.5993	-20.614	-3.58755	0	
1.6000	-17.5562	-5.11329	0	
1.6007	-10.5428	-8.47405	0	
1.6013	-5.65935	-8.47405	0	
1.6020	-2.60148	-7.56685	0	
1.6027	6.55694	-7.87612	0	
1.6033	15.0916	-6.35038	0	
1.6040	15.7001	-3.89683	0	
1.6047	14.7873	-3.89683	0	
1.6053	15.0916	-2.98963	0	
1.6060	12.6575	-2.06181	0	
1.6067	8.6868	-2.98963	0	
1.6073	4.41186	-2.06181	0	
1.6080	3.80333	-1.15461	0	
1.6087	8.6868	-4.2061	0	
1.6093	11.4404	-3.2989	0	
1.6100	8.38253	2.20614	0	
1.6107	7.46973	3.11334	0	
1.6113	8.6868	0.680398	0	
1.6120	7.16547	0.0618544	0	
1.6127	3.19479	-2.06181	0	
1.6133	-2.29721	-5.73184	0	
1.6140	-7.48495	-6.04111	0	
1.6147	-8.39775	-4.51537	0	
1.6153	-6.57215	-2.06181	0	
1.6160	-8.70201	-0.247417	0	
1.6167	-13.5855	-2.06181	0	
1.6173	-17.5562	-7.56685	0	
1.6180	-20.614	-10.3091	0	
1.6187	-21.2226	-7.87612	0	
1.6193	-17.5562	-5.11329	0	
1.6200	-9.93429	-3.89683	0	
1.6207	-2.29721	-2.37108	0	
1.6213	0.13692	-2.06181	0	
1.6220	-0.775879	-3.89683	0	
1.6227	-0.471613	-3.58755	0	
1.6233	-0.167346	-1.15461	0	
1.6240	1.97773	-1.15461	0	
1.6247	5.93319	-1.15461	0	
1.6253	6.25267	1.5876	0	
1.6260	3.49906	1.5876	0	
1.6267	3.80333	-0.536071	0	
1.6273	5.02039	-0.247417	0	
1.6280	5.02039	2.51541	0	
1.6287	6.25267	3.73188	0	
1.6293	6.25267	2.80406	0	
1.6300	2.282	3.73188	0	
1.6307	-3.81854	4.94835	0	
1.6313	-9.63002	1.89687	0	
1.6320	-10.5428	-1.15461	0	
1.6327	-11.4556	-0.536071	0	
1.6333	-18.7732	-2.68036	0	
1.6340	-20.9183	-4.51537	0	
1.6347	-13.5855	0.0618544	0	
1.6353	-8.09348	2.51541	0	
1.6360	-4.12281	0.0618544	0	
1.6367	3.19479	1.5876	0	
1.6373	3.80333	3.42261	0	
1.6380	-1.99294	0.680398	0	
1.6387	0.441186	0.98967	0	
1.6393	6.8612	2.51541	0	
1.6400	8.99106	1.5876	0	
1.6407	13.266	5.25762	0	
1.6413	18.1495	7.99983	0	
1.6420	17.8452	3.11334	0	
1.6427	16.9324	3.11334	0	
1.6433	16.9324	10.742	0	
1.6440	15.7001	8.90703	0	
1.6447	14.4831	2.80406	0	
1.6453	14.1788	5.56689	0	
1.6460	13.266	8.61838	0	
1.6467	11.1361	5.56689	0	
1.6473	6.8612	5.25762	0	
1.6480	0.745452	5.25762	0	
1.6487	-4.74655	0.680398	0	
1.6493	-5.65935	-0.536071	0	
1.6500	0.441186	2.51541	0	
1.6507	3.19479	0.680398	0	
1.6513	-2.60148	-3.89683	0	
1.6520	-8.70201	-4.51537	0	
1.6527	-11.4556	-4.82464	0	
1.6533	-15.122	-6.94831	0	
1.6540	-16.3391	-7.56685	0	
1.6547	-14.5135	-7.25758	0	
1.6553	-12.977	-5.42257	0	
1.6560	-10.5428	-2.98963	0	
1.6567	-7.78921	-2.98963	0	
1.6573	-9.00628	-3.58755	0	
1.6580	-11.4556	-2.98963	0	
1.6587	-12.977	-3.89683	0	
1.6593	-12.0642	-5.73184	0	
1.6600	-10.2386	-4.51537	0	
1.6607	-10.5428	-1.46389	0	
1.6613	-11.4556	-2.98963	0	
1.6620	-10.2386	-4.2061	0	
1.6627	-7.78921	-1.15461	0	
1.6633	-1.38441	0.0618544	0	
1.6640	6.8612	-0.845343	0	
1.6647	9.5996	2.80406	0	
1.6653	12.3532	5.85555	0	
1.6660	20.5836	3.11334	0	
1.6667	25.7713	4.94835	0	
1.6673	25.1628	10.742	0	
1.6680	22.4244	8.3091	0	
1.6687	16.0044	1.27832	0	
1.6693	9.29533	-0.247417	0	
1.6700	7.46973	-1.46389	0	
1.6707	5.02039	-2.68036	0	
1.6713	2.282	0.680398	0	
1.6720	1.06493	1.5876	0	
1.6727	-3.21001	-1.15461	0	
1.6733	-8.09348	-3.58755	0	
1.6740	-8.70201	-5.42257	0	
1.6747	-9.00628	-6.63904	0	
1.6753	-9.00628	-5.11329	0	
1.6760	-4.44229	-1.77316	0	
1.6767	-3.51427	-1.46389	0	
1.6773	-7.78921	-3.89683	0	
1.6780	-7.48495	-2.98963	0	
1.6787	-3.51427	0.680398	0	
1.6793	-3.51427	1.5876	0	
1.6800	-4.44229	1.27832	0	
1.6807	-5.05082	2.51541	0	
1.6813	-8.70201	0.680398	0	
1.6820	-13.8898	-3.89683	0	
1.6827	-18.7732	-6.04111	0	
1.6833	-20.0055	-5.11329	0	
1.6840	-13.8898	-4.2061	0	
1.6847	-6.87642	-3.2989	0	
1.6853	-3.81854	-2.68036	0	
1.6860	0.441186	-1.77316	0	
1.6867	6.8612	0.680398	0	
1.6873	9.29533	3.42261	0	
1.6880	8.07827	4.04115	0	
1.6887	6.25267	2.51541	0	
1.6893	6.8612	2.20614	0	
1.6900	7.16547	4.32981	0	
1.6907	5.93319	4.04115	0	
1.6913	6.8612	1.5876	0	
1.6920	8.6868	3.42261	0	
1.6927	5.02039	6.16482	0	
1.6933	-0.775879	4.94835	0	
1.6940	-2.90574	1.89687	0	
1.6947	-2.60148	1.5876	0	
1.6953	-2.90574	1.89687	0	
1.6960	-5.65935	2.51541	0	
1.6967	-8.70201	3.11334	0	
1.6973	-8.39775	3.73188	0	
1.6980	-8.39775	4.32981	0	
1.6987	-9.31054	4.94835	0	
1.6993	-4.44229	4.63908	0	
1.7000	0.441186	4.04115	0	
1.7007	-0.471613	4.04115	0	
1.7013	0.441186	6.16482	0	
1.7020	3.49906	6.47409	0	
1.7027	2.58626	2.20614	0	
1.7033	1.97773	-2.06181	0	
1.7040	2.58626	-1.46389	0	
1.7047	1.97773	-0.536071	0	
1.7053	5.02039	-3.58755	0	
1.7060	9.90386	-4.82464	0	
1.7067	12.0489	-1.15461	0	
1.7073	12.3532	0.0618544	0	
1.7080	11.4404	-1.46389	0	
1.7087	8.99106	0.371126	0	
1.7093	10.5124	4.04115	0	
1.7100	13.266	4.32981	0	
1.7107	11.4404	3.42261	0	
1.7113	9.5996	3.11334	0	
1.7120	6.8612	0.680398	0	
1.7127	-2.29721	-0.536071	0	
1.7133	-12.6727	-0.247417	0	
1.7140	-19.7012	-2.37108	0	
1.7147	-25.1932	-6.35038	0	
1.7153	-29.7572	-6.35038	0	
1.7160	-30.0767	-6.04111	0	
1.7167	-24.5695	-8.78332	0	
1.7173	-17.5562	-8.16478	0	
1.7180	-11.4556	-5.73184	0	
1.7187	-4.12281	-6.63904	0	
1.7193	3.19479	-7.87612	0	
1.7200	3.49906	-4.82464	0	
1.7207	-0.471613	-2.06181	0	
1.7213	1.3692	-3.58755	0	
1.7220	5.93319	-5.11329	0	
1.7227	7.774	-1.77316	0	
1.7233	6.55694	1.89687	0	
1.7240	3.49906	0.680398	0	
1.7247	1.97773	-1.15461	0	
1.7253	4.10759	-0.845343	0	
1.7260	5.32466	-0.845343	0	
1.7267	5.02039	-1.15461	0	
1.7273	5.93319	0.0618544	0	
1.7280	7.46973	1.5876	0	
1.7287	9.5996	2.20614	0	
1.7293	12.0489	3.42261	0	
1.7300	9.90386	3.73188	0	
1.7307	8.6868	3.11334	0	
1.7313	11.7447	2.80406	0	
1.7320	11.4404	4.04115	0	
1.7327	7.46973	4.63908	0	
1.7333	7.774	0.680398	0	
1.7340	8.07827	-4.51537	0	
1.7347	4.71613	-2.68036	0	
1.7353	1.3692	-0.536071	0	
1.7360	-2.60148	-2.98963	0	
1.7367	-7.78921	-2.06181	0	
1.7373	-11.4556	0.371126	0	
1.7380	-17.2519	-3.58755	0	
1.7387	-24.889	-7.56685	0	
1.7393	-27.6274	-9.40186	0	
1.7400	-24.5695	-9.99979	0	
1.7407	-20.614	-5.73184	0	
1.7413	-16.9476	-4.2061	0	
1.7420	-12.977	-7.56685	0	
1.7427	-9.00628	-3.58755	0	
1.7433	-5.05082	1.5876	0	
1.7440	-1.99294	-1.77316	0	
1.7447	-2.60148	-4.82464	0	
1.7453	-2.90574	-3.89683	0	
1.7460	1.3692	-2.98963	0	
1.7467	6.25267	0.680398	0	
1.7473	7.774	1.5876	0	
1.7480	5.62892	-3.89683	0	
1.7487	1.67346	-6.04111	0	
1.7493	-4.12281	-6.04111	0	
1.7500	-7.78921	-9.69052	0	
1.7507	-6.87642	-9.40186	0	
1.7513	-4.44229	-5.42257	0	
1.7520	-1.99294	-4.51537	0	
1.7527	-0.471613	-2.98963	0	
1.7533	0.745452	-0.247417	0	
1.7540	3.49906	0.680398	0	
1.7547	6.25267	3.42261	0	
1.7553	6.25267	4.94835	0	
1.7560	5.02039	1.5876	0	
1.7567	2.89053	0.0618544	0	
1.7573	0.441186	3.11334	0	
1.7580	0.441186	2.80406	0	
1.7587	0.441186	0.98967	0	
1.7593	-4.12281	1.5876	0	
1.7600	-5.05082	1.5876	0	
1.7607	-0.471613	1.5876	0	
1.7613	2.58626	3.73188	0	
1.7620	2.282	3.42261	0	
1.7627	0.13692	1.5876	0	
1.7633	-6.87642	3.73188	0	
1.7640	-13.5855	5.56689	0	
1.7647	-13.2812	3.42261	0	
1.7653	-9.31054	3.42261	0	
1.7660	-5.96362	4.63908	0	
1.7667	-3.21001	3.73188	0	
1.7673	-2.90574	3.73188	0	
1.7680	-3.21001	3.42261	0	
1.7687	-1.08014	0.680398	0	
1.7693	2.282	-0.845343	0	
1.7700	4.10759	-1.15461	0	
1.7707	4.41186	-3.89683	0	
1.7713	6.55694	-4.2061	0	
1.7720	13.266	-1.46389	0	
1.7727	18.1495	-0.247417	0	
1.7733	15.0916	-0.536071	0	
1.7740	10.8167	-1.77316	0	
1.7747	9.29533	-1.77316	0	
1.7753	5.62892	0.0618544	0	
1.7760	2.282	0.680398	0	
1.7767	5.02039	0.98967	0	
1.7773	10.2081	3.73188	0	
1.7780	10.5124	6.16482	0	
1.7787	5.62892	4.63908	0	
1.7793	0.745452	3.42261	0	
1.7800	-1.99294	1.89687	0	
1.7807	-3.51427	-2.06181	0	
1.7813	-4.44229	-5.11329	0	
1.7820	-6.26788	-4.82464	0	
1.7827	-10.2386	-2.68036	0	
1.7833	-10.8471	-0.247417	0	
1.7840	-5.65935	1.27832	0	
1.7847	0.441186	0.0618544	0	
1.7853	5.02039	-1.15461	0	
1.7860	7.774	1.27832	0	
1.7867	4.71613	3.73188	0	
1.7873	1.3692	4.04115	0	
1.7880	1.3692	4.32981	0	
1.7887	0.13692	4.04115	0	
1.7893	-1.08014	1.89687	0	
1.7900	1.06493	1.27832	0	
1.7907	2.89053	2.51541	0	
1.7913	4.10759	2.20614	0	
1.7920	5.93319	1.5876	0	
1.7927	4.41186	2.20614	0	
1.7933	2.89053	2.51541	0	
1.7940	5.02039	4.32981	0	
1.7947	7.774	7.38129	0	
1.7953	7.46973	7.38129	0	
1.7960	3.80333	4.94835	0	
1.7967	0.13692	4.32981	0	
1.7973	0.13692	4.04115	0	
1.7980	-0.775879	3.42261	0	
1.7987	-6.87642	2.51541	0	
1.7993	-14.194	-1.15461	0	
1.8000	-20.3098	-4.82464	0	
1.8007	-24.2652	-3.89683	0	
1.8013	-22.1354	-2.68036	0	
1.8020	-17.5562	-5.73184	0	
1.8027	-14.8178	-7.25758	0	
1.8033	-8.70201	-5.73184	0	
1.8040	-3.51427	-4.2061	0	
1.8047	-5.05082	-2.98963	0	
1.8053	-5.05082	-2.98963	0	
1.8060	-0.471613	-2.06181	0	
1.8067	5.02039	0.98967	0	
1.8073	12.3532	2.20614	0	
1.8080	16.9324	2.51541	0	
1.8087	15.0916	4.94835	0	
1.8093	13.266	3.11334	0	
1.8100	13.8745	-0.845343	0	
1.8107	9.5996	1.5876	0	
1.8113	1.97773	4.94835	0	
1.8120	-3.81854	2.51541	0	
1.8127	-7.48495	0.371126	0	
1.8133	-13.2812	0.0618544	0	
1.8140	-20.9183	-1.15461	0	
1.8147	-23.6567	-2.06181	0	
1.8153	-20.0055	-4.51537	0	
1.8160	-19.7012	-9.99979	0	
1.8167	-18.7732	-12.4533	0	
1.8173	-6.26788	-11.5255	0	
1.8180	4.71613	-9.99979	0	
1.8187	-0.167346	-6.63904	0	
1.8193	-9.00628	-4.51537	0	
1.8200	-12.0642	-7.25758	0	
1.8207	-12.0642	-9.69052	0	
1.8213	-3.21001	-8.47405	0	
1.8220	10.5124	-6.63904	0	
1.8227	12.3532	-6.04111	0	
1.8233	4.10759	-4.82464	0	
1.8240	1.67346	-4.82464	0	
1.8247	6.8612	-6.94831	0	
1.8253	8.6868	-7.87612	0	
1.8260	4.71613	-5.11329	0	
1.8267	1.67346	-2.98963	0	
1.8273	5.93319	-2.98963	0	
1.8280	10.5124	-1.77316	0	
1.8287	10.2081	0.371126	0	
1.8293	11.1361	0.98967	0	
1.8300	14.1788	0.680398	0	
1.8307	12.3532	-1.46389	0	
1.8313	6.8612	-3.89683	0	
1.8320	3.19479	-3.2989	0	
1.8327	1.06493	-1.15461	0	
1.8333	-1.38441	-0.247417	0	
1.8340	-2.29721	-0.247417	0	
1.8347	-2.29721	0.0618544	0	
1.8353	-4.12281	1.27832	0	
1.8360	-5.35508	1.89687	0	
1.8367	-1.08014	1.27832	0	
1.8373	3.19479	2.51541	0	
1.8380	0.441186	3.11334	0	
1.8387	-5.05082	-0.536071	0	
1.8393	-6.26788	-2.37108	0	
1.8400	-3.21001	0.371126	0	
1.8407	-3.21001	0.371126	0	
1.8413	-5.65935	-2.06181	0	
1.8420	-4.12281	-1.15461	0	
1.8427	-1.38441	-0.845343	0	
1.8433	-1.68868	0.0618544	0	
1.8440	-0.775879	2.80406	0	
1.8447	1.97773	2.51541	0	
1.8453	-0.471613	0.0618544	0	
1.8460	-5.05082	0.98967	0	
1.8467	-5.05082	2.20614	0	
1.8473	-2.90574	1.5876	0	
1.8480	-0.775879	2.80406	0	
1.8487	-0.471613	3.42261	0	
1.8493	-2.29721	0.680398	0	
1.8500	-1.08014	-1.15461	0	
1.8507	2.282	-1.15461	0	
1.8513	-0.167346	-2.37108	0	
1.8520	-5.05082	-5.73184	0	
1.8527	-5.96362	-7.25758	0	
1.8533	-6.57215	-4.82464	0	
1.8540	-6.87642	-0.247417	0	
1.8547	-1.38441	4.04115	0	
1.8553	3.80333	6.16482	0	
1.8560	2.89053	5.25762	0	
1.8567	-1.68868	3.73188	0	
1.8573	-2.90574	4.32981	0	
1.8580	3.19479	5.25762	0	
1.8587	9.5996	2.80406	0	
1.8593	9.5996	-1.15461	0	
1.8600	6.8612	-3.89683	0	
1.8607	4.41186	-4.51537	0	
1.8613	1.3692	-2.98963	0	
1.8620	0.441186	0.371126	0	
1.8627	0.441186	1.5876	0	
1.8633	-3.21001	-1.15461	0	
1.8640	-6.87642	-2.98963	0	
1.8647	-6.26788	-0.845343	0	
1.8653	-6.87642	-0.536071	0	
1.8660	-8.09348	-4.82464	0	
1.8667	-5.35508	-6.63904	0	
1.8673	-6.87642	-5.42257	0	
1.8680	-12.0642	-5.42257	0	
1.8687	-8.09348	-4.2061	0	
1.8693	-1.99294	-0.845343	0	
1.8700	-3.21001	-0.247417	0	
1.8707	-1.68868	-1.77316	0	
1.8713	4.10759	0.371126	0	
1.8720	2.282	2.51541	0	
1.8727	-2.60148	0.371126	0	
1.8733	-3.21001	-1.77316	0	
1.8740	-5.05082	0.680398	0	
1.8747	-7.78921	3.73188	0	
1.8753	-4.44229	4.32981	0	
1.8760	0.441186	3.42261	0	
1.8767	2.89053	3.42261	0	
1.8773	6.55694	5.85555	0	
1.8780	8.07827	8.90703	0	
1.8787	4.10759	7.99983	0	
1.8793	2.282	3.73188	0	
1.8800	4.41186	1.89687	0	
1.8807	3.19479	2.80406	0	
1.8813	0.441186	2.51541	0	
1.8820	0.441186	-0.247417	0	
1.8827	-1.38441	-2.37108	0	
1.8833	-2.90574	-3.2989	0	
1.8840	-0.471613	-3.2989	0	
1.8847	-1.08014	-2.98963	0	
1.8853	-5.35508	-3.2989	0	
1.8860	-1.38441	-3.58755	0	
1.8867	4.41186	-2.98963	0	
1.8873	2.282	-2.98963	0	
1.8880	4.10759	-3.89683	0	
1.8887	8.6868	-4.51537	0	
1.8893	5.02039	-4.2061	0	
1.8900	1.3692	-4.2061	0	
1.8907	6.8612	-3.58755	0	
1.8913	9.5996	-1.46389	0	
1.8920	5.02039	-1.15461	0	
1.8927	0.441186	-2.68036	0	
1.8933	-1.68868	-0.845343	0	
1.8940	-2.29721	2.80406	0	
1.8947	-2.90574	3.42261	0	
1.8953	-5.05082	4.04115	0	
1.8960	-1.08014	5.25762	0	
1.8967	7.774	4.04115	0	
1.8973	6.25267	0.0618544	0	
1.8980	-5.96362	-2.37108	0	
1.8987	-12.0642	-2.98963	0	
1.8993	-9.63002	-2.98963	0	
1.9000	-8.70201	-2.98963	0	
1.9007	-9.00628	-4.82464	0	
1.9013	-7.78921	-6.63904	0	
1.9020	-5.96362	-6.35038	0	
1.9027	-3.21001	-5.73184	0	
1.9033	-1.99294	-4.2061	0	
1.9040	-2.90574	-1.15461	0	
1.9047	-1.68868	0.680398	0	
1.9053	0.441186	0.680398	0	
1.9060	-0.775879	2.51541	0	
1.9067	-2.29721	2.80406	0	
1.9073	1.3692	1.5876	0	
1.9080	5.93319	1.27832	0	
1.9087	4.71613	2.20614	0	
1.9093	-0.167346	1.5876	0	
1.9100	-2.60148	0.371126	0	
1.9107	-1.38441	0.680398	0	
1.9113	0.13692	0.680398	0	
1.9120	0.745452	-1.46389	0	
1.9127	1.3692	-2.06181	0	
1.9133	0.745452	1.5876	0	
1.9140	-0.775879	3.73188	0	
1.9147	-1.38441	2.80406	0	
1.9153	-0.471613	4.32981	0	
1.9160	-0.471613	5.56689	0	
1.9167	-4.12281	4.04115	0	
1.9173	-5.65935	4.32981	0	
1.9180	-3.81854	6.47409	0	
1.9187	-5.35508	5.25762	0	
1.9193	-9.31054	2.20614	0	
1.9200	-7.18068	0.98967	0	
1.9207	-1.99294	0.371126	0	
1.9213	-1.08014	1.5876	0	
1.9220	-1.68868	4.94835	0	
1.9227	0.13692	3.11334	0	
1.9233	3.49906	-0.536071	0	
1.9240	5.93319	0.680398	0	
1.9247	4.10759	2.20614	0	
1.9253	-0.167346	-0.247417	0	
1.9260	-3.51427	-2.37108	0	
1.9267	-5.05082	-4.82464	0	
1.9273	-4.12281	-6.35038	0	
1.9280	-1.38441	-3.2989	0	
1.9287	4.10759	-0.845343	0	
1.9293	7.46973	-0.845343	0	
1.9300	6.25267	0.680398	0	
1.9307	1.97773	-0.247417	0	
1.9313	-2.60148	-3.89683	0	
1.9320	-5.05082	-2.98963	0	
1.9327	-3.21001	-2.06181	0	
1.9333	1.97773	-4.82464	0	
1.9340	4.10759	-2.98963	0	
1.9347	2.282	0.98967	0	
1.9353	0.13692	-0.247417	0	
1.9360	-1.08014	-0.845343	0	
1.9367	-0.775879	0.680398	0	
1.9373	1.06493	-1.46389	0	
1.9380	0.745452	-4.51537	0	
1.9387	-2.90574	-2.06181	0	
1.9393	-5.35508	0.680398	0	
1.9400	-8.70201	-1.15461	0	
1.9407	-15.122	-2.98963	0	
1.9413	-13.2812	0.0618544	0	
1.9420	1.06493	2.20614	0	
1.9427	10.2081	0.680398	0	
1.9433	5.02039	1.5876	0	
1.9440	-3.81854	3.11334	0	
1.9447	-6.87642	0.680398	0	
1.9453	-6.87642	-1.15461	0	
1.9460	-4.74655	-0.247417	0	
1.9467	1.67346	0.371126	0	
1.9473	8.38253	2.51541	0	
1.9480	8.6868	4.32981	0	
1.9487	5.02039	0.98967	0	
1.9493	4.10759	-1.77316	0	
1.9500	5.93319	-0.247417	0	
1.9507	8.6868	1.5876	0	
1.9513	10.8167	3.42261	0	
1.9520	9.5996	4.32981	0	
1.9527	8.07827	2.51541	0	
1.9533	7.774	0.680398	0	
1.9540	5.93319	-0.536071	0	
1.9547	1.3692	-1.46389	0	
1.9553	-0.471613	-0.247417	0	
1.9560	-1.08014	2.20614	0	
1.9567	-3.51427	1.89687	0	
1.9573	-6.57215	0.371126	0	
1.9580	-8.39775	0.371126	0	
1.9587	-10.5428	0.680398	0	
1.9593	-10.2386	1.27832	0	
1.9600	-5.96362	2.51541	0	
1.9607	-2.60148	1.89687	0	
1.9613	-1.68868	1.5876	0	
1.9620	1.3692	3.11334	0	
1.9627	5.93319	3.73188	0	
1.9633	4.71613	2.51541	0	
1.9640	-3.51427	0.98967	0	
1.9647	-12.3684	-2.06181	0	
1.9653	-15.122	-6.04111	0	
1.9660	-9.93429	-5.73184	0	
1.9667	-2.60148	-2.06181	0	
1.9673	3.19479	-0.536071	0	
1.9680	5.02039	-0.247417	0	
1.9687	2.282	-0.247417	0	
1.9693	-1.38441	-3.89683	0	
1.9700	-2.60148	-7.25758	0	
1.9707	-2.29721	-6.63904	0	
1.9713	0.745452	-6.63904	0	
1.9720	6.55694	-7.56685	0	
1.9727	4.10759	-4.82464	0	
1.9733	-5.05082	-3.58755	0	
1.9740	-8.70201	-6.63904	0	
1.9747	-8.09348	-7.87612	0	
1.9753	-11.1514	-5.73184	0	
1.9760	-10.5428	-2.98963	0	
1.9767	-4.12281	-0.247417	0	
1.9773	-4.12281	1.5876	0	
1.9780	-7.18068	2.51541	0	
1.9787	-5.35508	3.42261	0	
1.9793	-5.05082	2.51541	0	
1.9800	-8.70201	0.680398	0	
1.9807	-10.5428	0.98967	0	
1.9813	-9.63002	2.20614	0	
1.9820	-7.48495	3.42261	0	
1.9827	-2.60148	5.85555	0	
1.9833	0.13692	5.85555	0	
1.9840	0.441186	4.63908	0	
1.9847	3.19479	6.47409	0	
1.9853	7.774	7.69056	0	
1.9860	8.38253	5.85555	0	
1.9867	8.07827	4.32981	0	
1.9873	12.0489	2.51541	0	
1.9880	15.0916	0.371126	0	
1.9887	13.8745	1.5876	0	
1.9893	13.8745	3.42261	0	
1.9900	13.266	2.51541	0	
1.9907	8.38253	3.42261	0	
1.9913	7.774	3.11334	0	
1.9920	11.4404	-0.247417	0	
1.9927	8.07827	-1.15461	0	
1.9933	1.06493	0.680398	0	
1.9940	0.441186	0.0618544	0	
1.9947	-0.167346	-1.15461	0	
1.9953	-4.44229	-1.77316	0	
1.9960	-5.65935	-2.98963	0	
1.9967	-5.35508	-3.89683	0	
1.9973	-6.57215	-2.98963	0	
1.9980	-6.87642	-1.77316	0	
1.9987	-8.70201	-1.15461	0	
1.9993	-8.70201	-1.15461	0	
2.0000	-1.08014	-0.247417	0	
2.0007	8.99106	0.0618544	0	
2.0013	11.7447	-2.68036	0	
2.0020	8.07827	-5.11329	0	
2.0027	3.80333	-3.2989	0	
2.0033	-0.775879	-1.77316	0	
2.0040	-5.96362	-3.2989	0	
2.0047	-9.31054	-3.2989	0	
2.0053	-9.31054	-3.58755	0	
2.0060	-7.48495	-5.73184	0	
2.0067	-7.48495	-4.82464	0	
2.0073	-8.39775	-2.98963	0	
2.0080	-5.05082	-6.63904	0	
2.0087	2.89053	-8.47405	0	
2.0093	8.99106	-3.2989	0	
2.0100	10.5124	0.371126	0	
2.0107	11.1361	1.5876	0	
2.0113	12.9617	3.42261	0	
2.0120	11.7447	3.42261	0	
2.0127	9.5996	2.51541	0	
2.0133	10.5124	4.04115	0	
2.0140	9.5996	5.25762	0	
2.0147	5.93319	4.04115	0	
2.0153	1.06493	1.27832	0	
2.0160	-4.74655	-0.536071	0	
2.0167	-8.39775	-3.58755	0	
2.0173	-11.1514	-8.47405	0	
2.0180	-17.5562	-10.6183	0	
2.0187	-20.614	-6.35038	0	
2.0193	-14.5135	-0.845343	0	
2.0200	-10.2386	0.371126	0	
2.0207	-11.4556	-0.536071	0	
2.0213	-8.09348	0.371126	0	
2.0220	-1.38441	3.42261	0	
2.0227	1.97773	4.32981	0	
2.0233	2.58626	0.680398	0	
2.0240	1.06493	-1.46389	0	
2.0247	-2.60148	-1.15461	0	
2.0253	-4.12281	-2.37108	0	
2.0260	-0.775879	-2.98963	0	
2.0267	5.02039	-1.15461	0	
2.0273	9.29533	1.5876	0	
2.0280	6.55694	2.80406	0	
2.0287	-0.471613	1.5876	0	
2.0293	-3.21001	-1.15461	0	
2.0300	-2.60148	-3.2989	0	
2.0307	-3.51427	-2.98963	0	
2.0313	-6.87642	-1.77316	0	
2.0320	-9.00628	0.0618544	0	
2.0327	-9.63002	0.680398	0	
2.0333	-12.977	-0.247417	0	
2.0340	-18.7732	-0.247417	0	
2.0347	-20.0055	-0.247417	0	
2.0353	-15.7306	-2.06181	0	
2.0360	-8.70201	-3.89683	0	
2.0367	-0.167346	-2.37108	0	
2.0373	7.774	0.98967	0	
2.0380	10.8167	0.98967	0	
2.0387	9.90386	-0.845343	0	
2.0393	5.93319	-0.247417	0	
2.0400	1.3692	-0.247417	0	
2.0407	-0.471613	-2.68036	0	
2.0413	1.3692	-2.98963	0	
2.0420	4.10759	-0.247417	0	
2.0427	5.02039	0.680398	0	
2.0433	4.10759	-0.247417	0	
2.0440	2.282	1.5876	0	
2.0447	2.282	1.5876	0	
2.0453	2.282	-1.46389	0	
2.0460	0.745452	-2.06181	0	
2.0467	3.19479	1.5876	0	
2.0473	8.6868	2.51541	0	
2.0480	12.6575	1.27832	0	
2.0487	15.0916	2.80406	0	
2.0493	16.6281	3.11334	0	
2.0500	13.8745	1.5876	0	
2.0507	12.0489	3.42261	0	
2.0513	16.0044	3.42261	0	
2.0520	16.0044	-0.536071	0	
2.0527	11.1361	1.27832	0	
2.0533	12.0489	4.94835	0	
2.0540	15.0916	1.5876	0	
2.0547	9.90386	-1.46389	0	
2.0553	4.71613	-0.247417	0	
2.0560	4.10759	-0.247417	0	
2.0567	-0.775879	-1.15461	0	
2.0573	-6.87642	-1.77316	0	
2.0580	-10.5428	-2.37108	0	
2.0587	-17.2519	-1.15461	0	
2.0593	-21.5268	1.5876	0	
2.0600	-16.9476	1.27832	0	
2.0607	-13.2812	-2.68036	0	
2.0613	-12.977	-5.42257	0	
2.0620	-11.7599	-3.89683	0	
2.0627	-12.3684	-1.77316	0	
2.0633	-15.122	-1.77316	0	
2.0640	-16.0348	-3.89683	0	
2.0647	-16.0348	-5.11329	0	
2.0653	-15.122	-5.11329	0	
2.0660	-12.977	-4.2061	0	
2.0667	-10.8471	-3.2989	0	
2.0673	-6.57215	-2.98963	0	
2.0680	-2.29721	-2.98963	0	
2.0687	-2.29721	-2.37108	0	
2.0693	-3.21001	-1.77316	0	
2.0700	-3.81854	-2.06181	0	
2.0707	-8.70201	-2.06181	0	
2.0713	-9.63002	-0.247417	0	
2.0720	-1.38441	2.51541	0	
2.0727	5.02039	4.32981	0	
2.0733	8.07827	7.99983	0	
2.0740	14.1788	11.0513	0	
2.0747	18.4537	10.1441	0	
2.0753	17.2367	8.90703	0	
2.0760	15.3959	9.52557	0	
2.0767	10.5124	7.99983	0	
2.0773	0.745452	4.94835	0	
2.0780	-5.05082	2.80406	0	
2.0787	-9.31054	0.680398	0	
2.0793	-19.3818	-3.58755	0	
2.0800	-25.1932	-9.40186	0	
2.0807	-21.5268	-12.1441	0	
2.0813	-17.2519	-9.40186	0	
2.0820	-12.3684	-4.82464	0	
2.0827	-3.81854	-2.98963	0	
2.0833	-1.08014	-2.06181	0	
2.0840	-4.44229	0.371126	0	
2.0847	-4.74655	1.5876	0	
2.0853	-3.21001	-1.15461	0	
2.0860	-3.21001	-2.06181	0	
2.0867	0.13692	2.80406	0	
2.0873	4.10759	5.25762	0	
2.0880	5.93319	0.0618544	0	
2.0887	8.6868	-2.68036	0	
2.0893	12.9617	1.27832	0	
2.0900	12.0489	2.51541	0	
2.0907	4.41186	-0.247417	0	
2.0913	-0.471613	-0.845343	0	
2.0920	3.19479	0.371126	0	
2.0927	6.25267	-0.845343	0	
2.0933	4.71613	-2.68036	0	
2.0940	4.71613	-1.15461	0	
2.0947	5.02039	2.80406	0	
2.0953	1.3692	4.63908	0	
2.0960	-3.81854	0.98967	0	
2.0967	-10.5428	-5.73184	0	
2.0973	-20.614	-10.9276	0	
2.0980	-25.8018	-12.4533	0	
2.0987	-22.7439	-9.69052	0	
2.0993	-14.8178	-6.94831	0	
2.1000	-5.05082	-7.56685	0	
2.1007	4.41186	-8.16478	0	
2.1013	8.6868	-6.04111	0	
2.1020	6.55694	-3.89683	0	
2.1027	4.10759	-4.2061	0	
2.1033	8.6868	-3.89683	0	
2.1040	15.0916	-2.68036	0	
2.1047	12.6575	-2.98963	0	
2.1053	5.93319	-3.58755	0	
2.1060	6.55694	-1.46389	0	
2.1067	11.7447	-0.247417	0	
2.1073	12.6575	-0.845343	0	
2.1080	13.8745	1.5876	0	
2.1087	16.6281	6.78336	0	
2.1093	14.1788	7.69056	0	
2.1100	9.29533	4.63908	0	
2.1107	9.90386	3.73188	0	
2.1113	13.266	5.56689	0	
2.1120	13.5703	7.38129	0	
2.1127	14.1788	8.3091	0	
2.1133	14.1788	7.38129	0	
2.1140	12.6575	5.25762	0	
2.1147	10.8167	4.32981	0	
2.1153	6.8612	4.32981	0	
2.1160	2.58626	3.42261	0	
2.1167	3.49906	3.73188	0	
2.1173	5.93319	5.25762	0	
2.1180	2.282	6.16482	0	
2.1187	-8.70201	5.56689	0	
2.1193	-21.8311	2.51541	0	
2.1200	-29.7572	-4.51537	0	
2.1207	-32.2066	-10.3091	0	
2.1213	-32.5108	-8.47405	0	
2.1220	-31.9023	-6.04111	0	
2.1227	-32.8151	-8.78332	0	
2.1233	-34.6407	-10.6183	0	
2.1240	-31.2938	-7.56685	0	
2.1247	-24.2652	-4.82464	0	
2.1253	-18.469	-5.11329	0	
2.1260	-10.2386	-4.51537	0	
2.1267	-2.29721	-2.06181	0	
2.1273	-0.471613	-1.77316	0	
2.1280	1.3692	-2.68036	0	
2.1287	3.80333	-1.77316	0	
2.1293	0.441186	0.0618544	0	
2.1300	-4.12281	1.5876	0	
2.1307	-5.35508	1.89687	0	
2.1313	-5.65935	0.371126	0	
2.1320	-6.57215	-1.15461	0	
2.1327	-8.09348	-0.247417	0	
2.1333	-9.63002	1.89687	0	
2.1340	-10.8471	2.80406	0	
2.1347	-16.9476	1.89687	0	
2.1353	-19.7012	0.0618544	0	
2.1360	-5.05082	-0.247417	0	
2.1367	14.4831	2.20614	0	
2.1373	21.1921	3.11334	0	
2.1380	21.1921	2.51541	0	
2.1387	22.4244	3.42261	0	
2.1393	18.758	4.32981	0	
2.1400	12.6575	4.63908	0	
2.1407	11.7447	4.94835	0	
2.1413	13.8745	5.25762	0	
2.1420	13.8745	3.73188	0	
2.1427	12.3532	-0.247417	0	
2.1433	12.6575	-0.845343	0	
2.1440	15.0916	1.5876	0	
2.1447	15.3959	0.680398	0	
2.1453	12.3532	-2.98963	0	
2.1460	10.5124	-3.2989	0	
2.1467	12.3532	-1.77316	0	
2.1473	12.9617	-1.46389	0	
2.1480	10.5124	-0.845343	0	
2.1487	10.8167	0.98967	0	
2.1493	14.1788	0.680398	0	
2.1500	15.3959	0.680398	0	
2.1507	12.3532	3.42261	0	
2.1513	6.8612	4.32981	0	
2.1520	1.3692	2.20614	0	
2.1527	3.49906	0.98967	0	
2.1533	10.5124	3.42261	0	
2.1540	9.29533	4.04115	0	
2.1547	0.441186	2.20614	0	
2.1553	-3.21001	0.0618544	0	
2.1560	-3.81854	-1.77316	0	
2.1567	-9.31054	-1.77316	0	
2.1573	-14.5135	-1.15461	0	
2.1580	-18.7732	-2.06181	0	
2.1587	-25.1932	-2.98963	0	
2.1593	-26.4103	-4.51537	0	
2.1600	-23.0482	-8.47405	0	
2.1607	-21.5268	-11.5255	0	
2.1613	-20.3098	-10.3091	0	
2.1620	-16.0348	-7.56685	0	
2.1627	-14.5135	-5.42257	0	
2.1633	-15.122	-5.73184	0	
2.1640	-12.6727	-6.63904	0	
2.1647	-11.7599	-6.35038	0	
2.1653	-13.2812	-5.73184	0	
2.1660	-11.4556	-5.73184	0	
2.1667	-5.05082	-4.82464	0	
2.1673	1.06493	-2.37108	0	
2.1680	4.10759	-2.68036	0	
2.1687	6.25267	-3.2989	0	
2.1693	5.62892	-1.77316	0	
2.1700	1.3692	0.680398	0	
2.1707	-1.99294	1.27832	0	
2.1713	-4.12281	0.371126	0	
2.1720	-6.87642	0.680398	0	
2.1727	-5.35508	3.11334	0	
2.1733	4.10759	5.25762	0	
2.1740	12.6575	5.85555	0	
2.1747	16.9324	5.25762	0	
2.1753	16.6281	3.42261	0	
2.1760	9.5996	1.27832	0	
2.1767	1.67346	-1.15461	0	
2.1773	-0.775879	-2.98963	0	
2.1780	-1.38441	-2.98963	0	
2.1787	-4.12281	-2.98963	0	
2.1793	-7.18068	-2.98963	0	
2.1800	-11.4556	-0.845343	0	
2.1807	-11.7599	-0.247417	0	
2.1813	-5.96362	-1.46389	0	
2.1820	0.745452	-0.536071	0	
2.1827	5.62892	1.5876	0	
2.1833	5.02039	0.680398	0	
2.1840	-0.775879	0.0618544	0	
2.1847	-3.51427	0.98967	0	
2.1853	-2.60148	1.89687	0	
2.1860	-3.81854	2.51541	0	
2.1867	-1.38441	2.20614	0	
2.1873	7.46973	2.20614	0	
2.1880	7.774	3.73188	0	
2.1887	1.06493	3.73188	0	
2.1893	1.3692	1.5876	0	
2.1900	0.745452	0.98967	0	
2.1907	-8.09348	1.89687	0	
2.1913	-8.70201	1.27832	0	
2.1920	-0.167346	-0.247417	0	
2.1927	-4.44229	-3.89683	0	
2.1933	-17.8604	-9.99979	0	
2.1940	-23.0482	-14.2884	0	
2.1947	-24.2652	-13.9791	0	
2.1953	-22.4396	-10.3091	0	
2.1960	-9.31054	-6.63904	0	
2.1967	3.49906	-2.98963	0	
2.1973	6.55694	1.5876	0	
2.1980	15.0916	2.51541	0	
2.1987	27.0036	0.680398	0	
2.1993	21.5116	0.98967	0	
2.2000	7.16547	1.89687	0	
2.2007	0.745452	-1.15461	0	
2.2013	-3.21001	-3.2989	0	
2.2020	-5.05082	-1.15461	0	
2.2027	-0.471613	0.371126	0	
2.2033	2.282	-0.536071	0	
2.2040	1.06493	0.0618544	0	
2.2047	5.32466	3.42261	0	
2.2053	9.5996	3.42261	0	
2.2060	8.6868	-1.15461	0	
2.2067	6.8612	-3.58755	0	
2.2073	7.774	-1.46389	0	
2.2080	10.2081	-1.15461	0	
2.2087	13.5703	-2.06181	0	
2.2093	12.3532	0.371126	0	
2.2100	7.774	1.5876	0	
2.2107	5.62892	-1.15461	0	
2.2113	3.19479	-1.15461	0	
2.2120	-0.167346	2.51541	0	
2.2127	1.67346	3.42261	0	
2.2133	5.32466	2.51541	0	
2.2140	3.19479	3.42261	0	
2.2147	0.13692	5.25762	0	
2.2153	3.49906	6.16482	0	
2.2160	8.99106	7.09263	0	
2.2167	9.90386	4.32981	0	
2.2173	5.93319	0.98967	0	
2.2180	1.3692	2.20614	0	
2.2187	-1.38441	4.04115	0	
2.2193	-1.08014	6.16482	0	
2.2200	-0.471613	10.1441	0	
2.2207	-2.29721	8.90703	0	
2.2213	-5.05082	3.42261	0	
2.2220	-7.78921	2.51541	0	
2.2227	-12.3684	2.51541	0	
2.2233	-16.0348	-3.89683	0	
2.2240	-15.7306	-6.04111	0	
2.2247	-14.5135	-3.89683	0	
2.2253	-14.194	-5.11329	0	
2.2260	-11.1514	-3.58755	0	
2.2267	-5.05082	0.680398	0	
2.2273	-1.68868	-0.536071	0	
2.2280	-1.99294	-1.46389	0	
2.2287	-2.60148	0.680398	0	
2.2293	-1.08014	-2.37108	0	
2.2300	1.67346	-3.89683	0	
2.2307	3.19479	0.680398	0	
2.2313	1.67346	0.371126	0	
2.2320	-4.74655	-2.98963	0	
2.2327	-16.6434	-1.77316	0	
2.2333	-26.106	-3.58755	0	
2.2340	-25.1932	-9.40186	0	
2.2347	-19.3818	-9.40186	0	
2.2353	-16.6434	-4.82464	0	
2.2360	-11.4556	0.0618544	0	
2.2367	-0.471613	4.32981	0	
2.2373	7.16547	6.16482	0	
2.2380	7.774	5.85555	0	
2.2387	2.89053	4.32981	0	
2.2393	-6.87642	0.680398	0	
2.2400	-15.7306	-0.247417	0	
2.2407	-15.122	2.80406	0	
2.2413	-5.05082	3.42261	0	
2.2420	9.5996	-0.247417	0	
2.2427	19.0623	-2.06181	0	
2.2433	16.9324	-1.15461	0	
2.2440	11.1361	-0.247417	0	
2.2447	11.1361	-2.68036	0	
2.2453	8.6868	-6.04111	0	
2.2460	0.745452	-8.16478	0	
2.2467	-4.44229	-7.25758	0	
2.2473	-5.96362	-4.82464	0	
2.2480	-8.70201	-3.58755	0	
2.2487	-12.977	-4.82464	0	
2.2493	-15.4263	-6.94831	0	
2.2500	-16.0348	-9.09259	0	
2.2507	-12.3684	-8.16478	0	
2.2513	-7.78921	-5.42257	0	
2.2520	-5.96362	-5.42257	0	
2.2527	-3.21001	-6.04111	0	
2.2533	-0.167346	-2.06181	0	
2.2540	-0.167346	0.680398	0	
2.2547	0.441186	-1.77316	0	
2.2553	2.58626	-2.06181	0	
2.2560	-0.471613	0.680398	0	
2.2567	-5.96362	0.0618544	0	
2.2573	-8.09348	-0.845343	0	
2.2580	-6.87642	1.89687	0	
2.2587	-1.99294	5.25762	0	
2.2593	6.8612	6.16482	0	
2.2600	11.7447	6.16482	0	
2.2607	8.6868	4.32981	0	
2.2613	3.19479	1.89687	0	
2.2620	3.19479	-0.247417	0	
2.2627	9.29533	0.98967	0	
2.2633	15.3959	4.94835	0	
2.2640	15.7001	6.16482	0	
2.2647	15.0916	3.42261	0	
2.2653	16.6281	1.5876	0	
2.2660	16.3239	2.51541	0	
2.2667	16.3239	1.89687	0	
2.2673	13.8745	-2.68036	0	
2.2680	3.80333	-5.73184	0	
2.2687	-5.05082	-3.89683	0	
2.2693	-4.44229	-1.15461	0	
2.2700	-3.51427	-2.37108	0	
2.2707	-5.05082	-2.98963	0	
2.2713	-3.51427	-1.15461	0	
2.2720	-0.167346	-0.247417	0	
2.2727	0.745452	0.0618544	0	
2.2733	-0.471613	0.680398	0	
2.2740	-1.38441	0.680398	0	
2.2747	-1.38441	1.5876	0	
2.2753	-1.08014	2.51541	0	
2.2760	-1.38441	1.27832	0	
2.2767	-1.08014	0.98967	0	
2.2773	-0.775879	4.32981	0	
2.2780	-2.29721	5.56689	0	
2.2787	-2.90574	4.04115	0	
2.2793	-4.12281	3.42261	0	
2.2800	-11.4556	2.20614	0	
2.2807	-18.1647	-0.845343	0	
2.2813	-16.6434	-3.2989	0	
2.2820	-11.4556	-3.89683	0	
2.2827	-10.8471	-3.89683	0	
2.2833	-10.8471	-1.46389	0	
2.2840	-4.12281	0.0618544	0	
2.2847	4.41186	0.680398	0	
2.2853	8.6868	3.42261	0	
2.2860	12.3532	6.16482	0	
2.2867	16.0044	4.94835	0	
2.2873	16.0044	5.25762	0	
2.2880	17.2367	8.61838	0	
2.2887	19.3665	7.99983	0	
2.2893	17.8452	5.85555	0	
2.2900	15.0916	7.99983	0	
2.2907	13.8745	9.2163	0	
2.2913	12.6575	8.3091	0	
2.2920	9.29533	9.52557	0	
2.2927	2.89053	8.90703	0	
2.2933	-4.74655	0.680398	0	
2.2940	-8.70201	-6.63904	0	
2.2947	-7.78921	-6.94831	0	
2.2953	-6.57215	-6.63904	0	
2.2960	-7.18068	-9.09259	0	
2.2967	-13.2812	-9.40186	0	
2.2973	-20.614	-9.40186	0	
2.2980	-20.9183	-13.0513	0	
2.2987	-15.7306	-13.0513	0	
2.2993	-12.3684	-6.94831	0	
2.3000	-10.2386	-2.06181	0	
2.3007	-7.78921	-1.15461	0	
2.3013	-10.5428	-1.15461	0	
2.3020	-16.6434	-2.68036	0	
2.3027	-19.3818	-4.82464	0	
2.3033	-16.3391	-3.2989	0	
2.3040	-9.00628	-1.77316	0	
2.3047	-2.60148	-2.06181	0	
2.3053	0.441186	0.0618544	0	
2.3060	5.93319	4.04115	0	
2.3067	10.2081	4.04115	0	
2.3073	6.8612	2.20614	0	
2.3080	0.441186	0.0618544	0	
2.3087	0.441186	-3.2989	0	
2.3093	1.3692	-5.73184	0	
2.3100	1.97773	-4.82464	0	
2.3107	5.93319	-1.46389	0	
2.3113	5.93319	1.27832	0	
2.3120	-1.68868	0.680398	0	
2.3127	-7.78921	-3.89683	0	
2.3133	-9.31054	-6.35038	0	
2.3140	-12.977	-4.82464	0	
2.3147	-16.9476	-3.2989	0	
2.3153	-18.1647	-2.06181	0	
2.3160	-18.7732	-1.15461	0	
2.3167	-19.7012	-3.89683	0	
2.3173	-18.1647	-6.63904	0	
2.3180	-13.8898	-6.35038	0	
2.3187	-8.39775	-4.82464	0	
2.3193	-0.167346	-4.2061	0	
2.3200	8.6868	-2.06181	0	
2.3207	10.5124	-0.247417	0	
2.3213	6.8612	1.27832	0	
2.3220	7.46973	2.20614	0	
2.3227	12.6575	3.11334	0	
2.3233	18.758	4.32981	0	
2.3240	27.3079	5.85555	0	
2.3247	34.3212	7.09263	0	
2.3253	34.3212	9.52557	0	
2.3260	29.4378	13.1956	0	
2.3267	25.7713	14.1028	0	
2.3273	21.5116	11.9585	0	
2.3280	16.0044	8.61838	0	
2.3287	12.9617	3.73188	0	
2.3293	12.6575	0.371126	0	
2.3300	12.3532	1.5876	0	
2.3307	9.90386	1.5876	0	
2.3313	5.93319	-0.247417	0	
2.3320	-1.38441	-0.247417	0	
2.3327	-8.70201	-1.15461	0	
2.3333	-10.5428	-5.42257	0	
2.3340	-11.1514	-9.69052	0	
2.3347	-15.122	-10.9276	0	
2.3353	-17.2519	-9.40186	0	
2.3360	-17.8604	-8.16478	0	
2.3367	-18.7732	-9.99979	0	
2.3373	-18.7732	-11.2163	0	
2.3380	-17.2519	-8.47405	0	
2.3387	-16.3391	-4.82464	0	
2.3393	-9.63002	-1.15461	0	
2.3400	0.441186	2.20614	0	
2.3407	2.58626	-1.15461	0	
2.3413	-2.29721	-6.35038	0	
2.3420	-5.05082	-3.2989	0	
2.3427	-6.57215	0.98967	0	
2.3433	-6.87642	-1.15461	0	
2.3440	-4.12281	-4.51537	0	
2.3447	-2.90574	-4.2061	0	
2.3453	-4.12281	-2.06181	0	
2.3460	-1.68868	0.680398	0	
2.3467	3.19479	0.98967	0	
2.3473	3.19479	-0.247417	0	
2.3480	1.06493	0.680398	0	
2.3487	4.10759	3.11334	0	
2.3493	8.38253	4.94835	0	
2.3500	8.38253	5.25762	0	
2.3507	4.41186	4.32981	0	
2.3513	-1.99294	4.32981	0	
2.3520	-7.18068	1.89687	0	
2.3527	-9.63002	-1.46389	0	
2.3533	-10.8471	-3.58755	0	
2.3540	-8.39775	-4.2061	0	
2.3547	-4.44229	-4.82464	0	
2.3553	-3.51427	-5.42257	0	
2.3560	-3.21001	-6.35038	0	
2.3567	-3.51427	-5.73184	0	
2.3573	-7.18068	-3.89683	0	
2.3580	-11.4556	-3.89683	0	
2.3587	-13.2812	-2.98963	0	
2.3593	-12.977	1.5876	0	
2.3600	-8.70201	3.73188	0	
2.3607	-5.05082	3.42261	0	
2.3613	-6.87642	6.78336	0	
2.3620	-4.44229	8.3091	0	
2.3627	8.07827	5.56689	0	
2.3633	19.9751	6.47409	0	
2.3640	23.0329	11.0513	0	
2.3647	19.6708	10.742	0	
2.3653	17.8452	5.56689	0	
2.3660	17.5409	1.89687	0	
2.3667	13.266	-1.77316	0	
2.3673	4.41186	-6.04111	0	
2.3680	-0.775879	-7.25758	0	
2.3687	-2.29721	-7.25758	0	
2.3693	-6.26788	-9.40186	0	
2.3700	-10.5428	-9.69052	0	
2.3707	-10.2386	-7.25758	0	
2.3713	-7.48495	-5.73184	0	
2.3720	-5.05082	-3.58755	0	
2.3727	-2.29721	0.680398	0	
2.3733	1.06493	1.5876	0	
2.3740	5.02039	1.5876	0	
2.3747	6.8612	3.42261	0	
2.3753	6.8612	4.94835	0	
2.3760	4.41186	6.16482	0	
2.3767	1.67346	7.09263	0	
2.3773	1.97773	4.94835	0	
2.3780	5.62892	3.11334	0	
2.3787	5.93319	4.32981	0	
2.3793	2.282	4.04115	0	
2.3800	0.745452	0.98967	0	
2.3807	-0.775879	0.680398	0	
2.3813	-5.65935	0.680398	0	
2.3820	-7.48495	-1.15461	0	
2.3827	-2.60148	-1.46389	0	
2.3833	0.441186	-1.15461	0	
2.3840	-3.51427	-1.77316	0	
2.3847	-6.87642	-1.15461	0	
2.3853	-5.05082	-0.247417	0	
2.3860	-4.12281	-1.15461	0	
2.3867	-7.78921	-2.06181	0	
2.3873	-10.2386	-2.06181	0	
2.3880	-8.70201	-2.68036	0	
2.3887	-7.78921	-1.46389	0	
2.3893	-8.70201	0.680398	0	
2.3900	-7.18068	1.27832	0	
2.3907	-4.74655	0.371126	0	
2.3913	-5.96362	0.98967	0	
2.3920	-7.78921	3.42261	0	
2.3927	-5.96362	3.42261	0	
2.3933	-2.29721	0.680398	0	
2.3940	1.97773	0.98967	0	
2.3947	7.774	4.04115	0	
2.3953	10.5124	4.04115	0	
2.3960	8.07827	2.51541	0	
2.3967	5.93319	1.5876	0	
2.3973	8.07827	0.371126	0	
2.3980	11.1361	-0.536071	0	
2.3987	13.5703	-0.845343	0	
2.3993	12.9617	-1.46389	0	
2.4000	8.07827	-0.845343	0	
2.4007	5.32466	-0.247417	0	
2.4013	6.25267	-2.37108	0	
2.4020	4.10759	-4.82464	0	
2.4027	0.441186	-2.98963	0	
2.4033	-0.471613	-0.536071	0	
2.4040	2.282	-0.845343	0	
2.4047	4.10759	-1.46389	0	
2.4053	4.10759	0.0618544	0	
2.4060	4.10759	4.32981	0	
2.4067	4.71613	7.09263	0	
2.4073	5.62892	4.63908	0	
2.4080	6.25267	0.680398	0	
2.4087	7.16547	1.5876	0	
2.4093	5.62892	2.51541	0	
2.4100	1.3692	-1.46389	0	
2.4107	-0.471613	-2.98963	0	
2.4113	-1.99294	-1.15461	0	
2.4120	-5.96362	-3.2989	0	
2.4127	-7.78921	-5.73184	0	
2.4133	-5.96362	-2.98963	0	
2.4140	-3.51427	-1.77316	0	
2.4147	-1.99294	-2.98963	0	
2.4153	-5.05082	-1.15461	0	
2.4160	-11.4556	-1.46389	0	
2.4167	-12.3684	-5.73184	0	
2.4173	-6.26788	-5.73184	0	
2.4180	-1.38441	-3.58755	0	
2.4187	0.441186	-4.82464	0	
2.4193	-0.471613	-4.82464	0	
2.4200	-1.68868	-0.536071	0	
2.4207	0.13692	3.11334	0	
2.4213	3.19479	4.63908	0	
2.4220	3.49906	4.04115	0	
2.4227	1.3692	1.5876	0	
2.4233	-1.99294	1.89687	0	
2.4240	-5.96362	4.63908	0	
2.4247	-7.78921	3.42261	0	
2.4253	-5.35508	-0.247417	0	
2.4260	-0.471613	-0.247417	0	
2.4267	2.282	0.0618544	0	
2.4273	1.06493	-5.11329	0	
2.4280	1.3692	-6.94831	0	
2.4287	4.71613	-1.77316	0	
2.4293	5.02039	-0.247417	0	
2.4300	1.67346	-2.98963	0	
2.4307	-0.167346	-0.845343	0	
2.4313	-1.08014	1.27832	0	
2.4320	-1.38441	-0.536071	0	
2.4327	1.3692	-0.247417	0	
2.4333	3.19479	0.680398	0	
2.4340	-0.471613	0.371126	0	
2.4347	-3.81854	0.680398	0	
2.4353	-5.05082	0.680398	0	
2.4360	-9.93429	-3.58755	0	
2.4367	-16.9476	-8.47405	0	
2.4373	-20.0055	-8.16478	0	
2.4380	-18.7732	-4.82464	0	
2.4387	-16.9476	-4.82464	0	
2.4393	-15.122	-7.56685	0	
2.4400	-13.2812	-6.04111	0	
2.4407	-10.8471	-0.247417	0	
2.4413	-9.31054	-0.536071	0	
2.4420	-9.93429	-5.73184	0	
2.4427	-12.3684	-6.63904	0	
2.4433	-14.5135	-5.11329	0	
2.4440	-11.4556	-4.82464	0	
2.4447	1.67346	-1.46389	0	
2.4453	17.2367	1.5876	0	
2.4460	22.4244	1.89687	0	
2.4467	19.0623	4.32981	0	
2.4473	16.6281	8.90703	0	
2.4480	15.7001	8.90703	0	
2.4487	13.8745	3.73188	0	
2.4493	10.8167	1.5876	0	
2.4500	7.46973	4.32981	0	
2.4507	6.8612	7.38129	0	
2.4513	6.8612	7.69056	0	
2.4520	4.41186	5.85555	0	
2.4527	0.13692	3.73188	0	
2.4533	-4.74655	2.51541	0	
2.4540	-9.63002	3.11334	0	
2.4547	-11.4556	1.5876	0	
2.4553	-13.2812	-2.06181	0	
2.4560	-19.7012	-2.68036	0	
2.4567	-22.4396	0.680398	0	
2.4573	-16.3391	2.80406	0	
2.4580	-11.1514	1.5876	0	
2.4587	-11.4556	0.680398	0	
2.4593	-8.70201	0.680398	0	
2.4600	-1.99294	-0.247417	0	
2.4607	2.282	-1.15461	0	
2.4613	2.58626	-1.77316	0	
2.4620	1.97773	-3.58755	0	
2.4627	1.67346	-5.73184	0	
2.4633	3.49906	-4.82464	0	
2.4640	8.6868	-2.37108	0	
2.4647	13.266	-0.247417	0	
2.4653	12.3532	2.20614	0	
2.4660	9.29533	2.51541	0	
2.4667	9.90386	0.680398	0	
2.4673	12.0489	1.5876	0	
2.4680	10.8167	2.51541	0	
2.4687	7.774	-0.536071	0	
2.4693	5.02039	-2.98963	0	
2.4700	3.19479	-2.98963	0	
2.4707	1.06493	-2.98963	0	
2.4713	-1.08014	-3.89683	0	
2.4720	-1.38441	-4.82464	0	
2.4727	-2.60148	-3.89683	0	
2.4733	-5.05082	-2.06181	0	
2.4740	-5.96362	-2.37108	0	
2.4747	-4.12281	-4.2061	0	
2.4753	-1.08014	-0.536071	0	
2.4760	2.58626	3.11334	0	
2.4767	2.89053	0.0618544	0	
2.4773	-1.38441	-2.98963	0	
2.4780	-6.26788	-1.15461	0	
2.4787	-10.5428	1.5876	0	
2.4793	-15.122	1.5876	0	
2.4800	-17.5562	-2.06181	0	
2.4807	-14.8178	-3.2989	0	
2.4813	-9.93429	0.371126	0	
2.4820	-7.48495	1.27832	0	
2.4827	-6.57215	-2.06181	0	
2.4833	-1.99294	-2.06181	0	
2.4840	8.6868	0.680398	0	
2.4847	18.1495	1.27832	0	
2.4853	19.6708	2.51541	0	
2.4860	16.0044	4.32981	0	
2.4867	12.0489	3.42261	0	
2.4873	8.38253	0.680398	0	
2.4880	5.62892	-0.845343	0	
2.4887	4.10759	-2.98963	0	
2.4893	0.441186	-3.89683	0	
2.4900	-3.81854	-2.98963	0	
2.4907	-2.60148	-0.247417	0	
2.4913	3.19479	1.89687	0	
2.4920	3.49906	2.51541	0	
2.4927	-3.81854	0.680398	0	
2.4933	-9.31054	-0.247417	0	
2.4940	-7.48495	-0.247417	0	
2.4947	-2.29721	-1.77316	0	
2.4953	1.67346	-4.82464	0	
2.4960	1.97773	-6.04111	0	
2.4967	-1.08014	-5.11329	0	
2.4973	-1.38441	-4.2061	0	
2.4980	0.13692	-1.46389	0	
2.4987	-1.99294	1.27832	0	
2.4993	-3.81854	0.371126	0	
2.5000	-5.65935	-2.98963	0	
2.5007	-9.63002	-3.89683	0	
2.5013	-9.00628	-3.58755	0	
2.5020	-5.05082	-2.06181	0	
2.5027	-3.51427	1.27832	0	
2.5033	-0.471613	1.5876	0	
2.5040	2.89053	-1.15461	0	
2.5047	-0.167346	-2.68036	0	
2.5053	-1.38441	0.0618544	0	
2.5060	4.71613	3.42261	0	
2.5067	5.93319	5.25762	0	
2.5073	2.282	4.32981	0	
2.5080	-0.471613	1.5876	0	
2.5087	-4.12281	-1.15461	0	
2.5093	-7.78921	-2.68036	0	
2.5100	-6.57215	-3.2989	0	
2.5107	-7.78921	-3.89683	0	
2.5113	-14.194	-4.82464	0	
2.5120	-18.1647	-5.11329	0	
2.5127	-18.469	-5.11329	0	
2.5133	-16.3391	-4.82464	0	
2.5140	-8.39775	-2.98963	0	
2.5147	0.13692	-2.98963	0	
2.5153	2.58626	-2.68036	0	
2.5160	4.10759	0.680398	0	
2.5167	6.55694	2.51541	0	
2.5173	6.55694	2.51541	0	
2.5180	6.55694	4.32981	0	
2.5187	6.55694	5.25762	0	
2.5193	3.49906	2.80406	0	
2.5200	1.97773	3.42261	0	
2.5207	5.02039	6.16482	0	
2.5213	6.8612	7.09263	0	
2.5220	4.41186	7.99983	0	
2.5227	-0.775879	7.99983	0	
2.5233	-9.00628	5.85555	0	
2.5240	-14.194	2.51541	0	
2.5247	-12.3684	-0.845343	0	
2.5253	-9.00628	-3.89683	0	
2.5260	-8.09348	-3.2989	0	
2.5267	-8.09348	-1.46389	0	
2.5273	-6.26788	-0.247417	0	
2.5280	-3.21001	0.371126	0	
2.5287	-3.51427	-2.98963	0	
2.5293	-6.57215	-8.16478	0	
2.5300	-6.87642	-9.09259	0	
2.5307	-5.35508	-7.25758	0	
2.5313	-1.68868	-6.04111	0	
2.5320	8.38253	-2.98963	0	
2.5327	16.6281	-1.15461	0	
2.5333	15.0916	-2.98963	0	
2.5340	13.266	-2.98963	0	
2.5347	15.3959	-1.77316	0	
2.5353	12.6575	-2.06181	0	
2.5360	7.46973	-2.06181	0	
2.5367	4.10759	-1.15461	0	
2.5373	0.745452	-3.2989	0	
2.5380	-0.775879	-4.51537	0	
2.5387	-0.167346	-1.15461	0	
2.5393	-4.12281	0.371126	0	
2.5400	-7.78921	-2.06181	0	
2.5407	-4.12281	-2.68036	0	
2.5413	-3.21001	0.0618544	0	
2.5420	-8.70201	0.371126	0	
2.5427	-11.4556	-2.98963	0	
2.5433	-12.977	-4.51537	0	
2.5440	-17.2519	-4.2061	0	
2.5447	-17.8604	-6.35038	0	
2.5453	-11.4556	-7.56685	0	
2.5460	1.3692	-4.2061	0	
2.5467	13.266	-2.68036	0	
2.5473	12.3532	-3.89683	0	
2.5480	7.16547	-1.46389	0	
2.5487	11.1361	2.20614	0	
2.5493	14.7873	1.89687	0	
2.5500	6.25267	0.680398	0	
2.5507	-3.21001	0.371126	0	
2.5513	-5.35508	-1.77316	0	
2.5520	-6.57215	-3.89683	0	
2.5527	-8.09348	-4.82464	0	
2.5533	-8.09348	-4.82464	0	
2.5540	-5.96362	-3.2989	0	
2.5547	-1.68868	-1.15461	0	
2.5553	2.282	2.80406	0	
2.5560	1.97773	6.47409	0	
2.5567	-2.29721	3.73188	0	
2.5573	-5.96362	-0.536071	0	
2.5580	-4.74655	1.27832	0	
2.5587	1.06493	4.04115	0	
2.5593	6.25267	3.42261	0	
2.5600	5.62892	5.25762	0	
2.5607	1.3692	7.69056	0	
2.5613	-1.38441	6.16482	0	
2.5620	-0.167346	3.11334	0	
2.5627	1.3692	0.0618544	0	
2.5633	-0.167346	-2.98963	0	
2.5640	-4.44229	-1.77316	0	
2.5647	-6.57215	0.371126	0	
2.5653	-4.12281	-0.845343	0	
2.5660	0.441186	-0.536071	0	
2.5667	4.41186	2.51541	0	
2.5673	7.774	2.80406	0	
2.5680	8.6868	0.0618544	0	
2.5687	7.774	-1.15461	0	
2.5693	6.8612	-0.247417	0	
2.5700	4.10759	0.0618544	0	
2.5707	1.3692	-0.247417	0	
2.5713	2.282	-0.845343	0	
2.5720	3.19479	-0.247417	0	
2.5727	1.97773	0.0618544	0	
2.5733	4.10759	0.0618544	0	
2.5740	8.07827	1.89687	0	
2.5747	5.93319	3.42261	0	
2.5753	1.3692	-0.247417	0	
2.5760	-0.167346	-3.58755	0	
2.5767	-2.90574	-2.37108	0	
2.5773	-7.48495	-2.06181	0	
2.5780	-8.09348	-3.2989	0	
2.5787	-5.96362	-0.845343	0	
2.5793	-5.35508	2.51541	0	
2.5800	-3.21001	3.11334	0	
2.5807	1.97773	2.51541	0	
2.5813	6.8612	0.98967	0	
2.5820	8.6868	-0.247417	0	
2.5827	6.8612	2.20614	0	
2.5833	3.19479	4.32981	0	
2.5840	2.282	3.11334	0	
2.5847	1.3692	1.27832	0	
2.5853	-2.29721	0.371126	0	
2.5860	-3.81854	-2.98963	0	
2.5867	-2.90574	-6.63904	0	
2.5873	-5.96362	-8.16478	0	
2.5880	-8.39775	-7.56685	0	
2.5887	-1.99294	-6.04111	0	
2.5893	5.93319	-3.2989	0	
2.5900	5.93319	-1.46389	0	
2.5907	2.58626	-0.247417	0	
2.5913	-0.471613	0.680398	0	
2.5920	-4.12281	0.371126	0	
2.5927	-7.48495	-0.247417	0	
2.5933	-8.39775	0.371126	0	
2.5940	-8.70201	-0.247417	0	
2.5947	-6.87642	-2.98963	0	
2.5953	-2.29721	-2.37108	0	
2.5960	-2.29721	0.680398	0	
2.5967	-11.1514	-0.536071	0	
2.5973	-20.614	-4.82464	0	
2.5980	-23.6567	-5.42257	0	
2.5987	-23.0482	-3.89683	0	
2.5993	-21.2226	-1.15461	0	
2.6000	-15.7306	2.80406	0	
2.6007	-5.96362	4.32981	0	
2.6013	1.67346	3.11334	0	
2.6020	4.10759	2.80406	0	
2.6027	3.19479	3.11334	0	
2.6033	3.19479	1.5876	0	
2.6040	3.19479	-0.536071	0	
2.6047	1.06493	-1.15461	0	
2.6053	-1.38441	0.680398	0	
2.6060	-1.08014	-0.247417	0	
2.6067	-2.29721	-3.58755	0	
2.6073	-5.05082	-2.06181	0	
2.6080	-5.05082	1.27832	0	
2.6087	-2.60148	-0.247417	0	
2.6093	-0.471613	-1.46389	0	
2.6100	-1.08014	-0.247417	0	
2.6107	-4.74655	-2.37108	0	
2.6113	-1.99294	-3.2989	0	
2.6120	11.4404	-0.247417	0	
2.6127	21.1921	-0.247417	0	
2.6133	20.5836	-1.15461	0	
2.6140	18.4537	0.0618544	0	
2.6147	12.9617	-0.247417	0	
2.6153	5.62892	-0.845343	0	
2.6160	3.19479	2.20614	0	
2.6167	0.441186	4.04115	0	
2.6173	-1.99294	5.25762	0	
2.6180	3.19479	8.61838	0	
2.6187	7.46973	8.90703	0	
2.6193	1.67346	4.94835	0	
2.6200	-5.05082	2.51541	0	
2.6207	-8.09348	1.5876	0	
2.6213	-9.00628	-0.845343	0	
2.6220	-5.35508	-2.06181	0	
2.6227	1.3692	-1.15461	0	
2.6233	5.62892	-1.15461	0	
2.6240	8.07827	-2.68036	0	
2.6247	8.6868	-0.247417	0	
2.6253	6.25267	2.51541	0	
2.6260	1.97773	-0.247417	0	
2.6267	-1.38441	-3.2989	0	
2.6273	-0.775879	-2.68036	0	
2.6280	1.3692	-2.06181	0	
2.6287	1.97773	-2.98963	0	
2.6293	3.19479	-1.77316	0	
2.6300	7.46973	-1.77316	0	
2.6307	9.5996	-5.11329	0	
2.6313	6.25267	-6.63904	0	
2.6320	-0.775879	-5.73184	0	
2.6327	-5.96362	-5.73184	0	
2.6333	-5.65935	-6.63904	0	
2.6340	-3.81854	-6.04111	0	
2.6347	-5.05082	-5.42257	0	
2.6353	-6.87642	-4.51537	0	
2.6360	-5.65935	-2.06181	0	
2.6367	-2.29721	-0.247417	0	
2.6373	-1.08014	-1.15461	0	
2.6380	-3.21001	-1.77316	0	
2.6387	-7.78921	1.5876	0	
2.6393	-11.4556	4.04115	0	
2.6400	-13.2812	2.51541	0	
2.6407	-13.8898	-1.15461	0	
2.6413	-12.977	-2.98963	0	
2.6420	-9.00628	-1.15461	0	
2.6427	-5.96362	1.5876	0	
2.6433	-6.87642	0.0618544	0	
2.6440	-6.87642	-1.46389	0	
2.6447	-3.51427	-0.536071	0	
2.6453	-0.775879	0.98967	0	
2.6460	4.10759	3.11334	0	
2.6467	10.5124	5.85555	0	
2.6473	13.266	7.09263	0	
2.6480	14.4831	7.99983	0	
2.6487	18.758	7.69056	0	
2.6493	19.6708	4.63908	0	
2.6500	18.758	2.51541	0	
2.6507	19.3665	4.32981	0	
2.6513	15.0916	4.94835	0	
2.6520	8.38253	2.20614	0	
2.6527	6.55694	1.5876	0	
2.6533	4.71613	3.73188	0	
2.6540	-3.21001	3.42261	0	
2.6547	-7.48495	0.98967	0	
2.6553	-6.57215	-1.15461	0	
2.6560	-8.70201	-2.98963	0	
2.6567	-10.8471	-4.82464	0	
2.6573	-9.63002	-6.04111	0	
2.6580	-9.93429	-4.82464	0	
2.6587	-13.2812	-2.06181	0	
2.6593	-14.194	-2.68036	0	
2.6600	-10.8471	-4.82464	0	
2.6607	-2.60148	-2.06181	0	
2.6613	6.8612	-0.247417	0	
2.6620	8.6868	-3.89683	0	
2.6627	2.89053	-3.89683	0	
2.6633	-1.38441	0.680398	0	
2.6640	-3.51427	-0.247417	0	
2.6647	-8.39775	-2.98963	0	
2.6653	-10.5428	-2.98963	0	
2.6660	-9.93429	-2.68036	0	
2.6667	-10.8471	-2.06181	0	
2.6673	-5.35508	-1.15461	0	
2.6680	9.5996	1.5876	0	
2.6687	16.9324	6.16482	0	
2.6693	9.5996	5.56689	0	
2.6700	4.41186	1.5876	0	
2.6707	5.02039	1.5876	0	
2.6713	1.3692	0.680398	0	
2.6720	-2.60148	-3.2989	0	
2.6727	-2.29721	-3.58755	0	
2.6733	-2.60148	-2.98963	0	
2.6740	-5.05082	-3.89683	0	
2.6747	-4.74655	-2.06181	0	
2.6753	-4.74655	-0.247417	0	
2.6760	-9.00628	-2.37108	0	
2.6767	-12.6727	-2.06181	0	
2.6773	-12.6727	-2.06181	0	
2.6780	-10.5428	-3.2989	0	
2.6787	-7.78921	-1.15461	0	
2.6793	-6.26788	0.680398	0	
2.6800	-5.96362	-2.06181	0	
2.6807	-5.96362	-1.15461	0	
2.6813	-5.65935	4.32981	0	
2.6820	-3.81854	5.25762	0	
2.6827	-0.167346	2.80406	0	
2.6833	1.3692	2.51541	0	
2.6840	-3.21001	0.371126	0	
2.6847	-8.70201	-4.82464	0	
2.6853	-7.78921	-4.82464	0	
2.6860	-0.775879	-2.37108	0	
2.6867	6.8612	-3.2989	0	
2.6873	9.5996	-3.58755	0	
2.6880	7.774	-1.77316	0	
2.6887	4.10759	-2.06181	0	
2.6893	4.10759	-2.68036	0	
2.6900	5.02039	-2.37108	0	
2.6907	4.10759	-2.98963	0	
2.6913	3.49906	-1.15461	0	
2.6920	2.89053	-0.845343	0	
2.6927	-0.167346	-4.51537	0	
2.6933	-5.05082	-6.35038	0	
2.6940	-5.65935	-4.82464	0	
2.6947	-1.68868	-5.73184	0	
2.6953	0.441186	-3.58755	0	
2.6960	-0.471613	1.27832	0	
2.6967	0.13692	0.371126	0	
2.6973	-0.775879	-1.77316	0	
2.6980	-3.21001	0.371126	0	
2.6987	-4.12281	0.371126	0	
2.6993	-4.44229	-0.845343	0	
2.7000	-3.81854	2.51541	0	
2.7007	0.745452	3.42261	0	
2.7013	4.10759	0.680398	0	
2.7020	2.89053	1.27832	0	
2.7027	3.19479	3.11334	0	
2.7033	3.19479	1.27832	0	
2.7040	-3.21001	1.5876	0	
2.7047	-8.70201	3.42261	0	
2.7053	-9.31054	0.0618544	0	
2.7060	-9.00628	-4.51537	0	
2.7067	-8.39775	-4.2061	0	
2.7073	-6.57215	-2.06181	0	
2.7080	-5.05082	-1.15461	0	
2.7087	-6.26788	-0.845343	0	
2.7093	-11.1514	-2.37108	0	
2.7100	-14.8178	-4.82464	0	
2.7107	-12.6727	-4.2061	0	
2.7113	-9.63002	-2.98963	0	
2.7120	-6.57215	-2.06181	0	
2.7127	1.3692	0.680398	0	
2.7133	8.6868	0.680398	0	
2.7140	11.1361	-2.98963	0	
2.7147	10.8167	-2.98963	0	
2.7153	7.774	0.0618544	0	
2.7160	1.3692	1.5876	0	
2.7167	3.19479	1.5876	0	
2.7173	14.4831	1.5876	0	
2.7180	23.3372	2.51541	0	
2.7187	24.5543	7.09263	0	
2.7193	20.5836	7.69056	0	
2.7200	14.7873	3.11334	0	
2.7207	10.2081	1.89687	0	
2.7213	6.55694	5.25762	0	
2.7220	3.80333	5.25762	0	
2.7227	4.10759	4.04115	0	
2.7233	4.71613	7.09263	0	
2.7240	4.10759	8.90703	0	
2.7247	2.58626	5.56689	0	
2.7253	-0.471613	1.89687	0	
2.7260	-3.51427	1.5876	0	
2.7267	-3.81854	2.80406	0	
2.7273	-2.60148	2.51541	0	
2.7280	-1.08014	0.98967	0	
2.7287	2.282	0.0618544	0	
2.7293	0.745452	-0.845343	0	
2.7300	-5.05082	-2.06181	0	
2.7307	-4.74655	-3.89683	0	
2.7313	-1.38441	-4.82464	0	
2.7320	-5.35508	-5.42257	0	
2.7327	-9.93429	-6.35038	0	
2.7333	-6.57215	-6.63904	0	
2.7340	-0.471613	-4.82464	0	
2.7347	1.06493	-3.58755	0	
2.7353	-3.81854	-4.82464	0	
2.7360	-11.1514	-5.11329	0	
2.7367	-12.0642	-4.82464	0	
2.7373	-8.70201	-5.42257	0	
2.7380	-11.1514	-5.73184	0	
2.7387	-14.8178	-4.82464	0	
2.7393	-11.4556	-4.2061	0	
2.7400	-8.39775	-3.2989	0	
2.7407	-10.8471	-2.98963	0	
2.7413	-12.3684	-2.98963	0	
2.7420	-11.1514	-1.46389	0	
2.7427	-9.63002	0.680398	0	
2.7433	-8.39775	1.27832	0	
2.7440	-4.12281	1.5876	0	
2.7447	2.89053	1.5876	0	
2.7453	8.38253	1.27832	0	
2.7460	8.07827	1.27832	0	
2.7467	7.46973	3.42261	0	
2.7473	11.4404	5.85555	0	
2.7480	12.9617	6.16482	0	
2.7487	10.2081	6.16482	0	
2.7493	10.8167	7.38129	0	
2.7500	11.4404	6.47409	0	
2.7507	9.5996	5.25762	0	
2.7513	13.266	7.09263	0	
2.7520	18.4537	6.47409	0	
2.7527	16.0044	3.42261	0	
2.7533	13.266	1.89687	0	
2.7540	14.1788	0.371126	0	
2.7547	12.3532	-2.98963	0	
2.7553	8.99106	-2.98963	0	
2.7560	6.8612	-0.247417	0	
2.7567	4.41186	0.680398	0	
2.7573	4.10759	-0.845343	0	
2.7580	1.06493	-2.06181	0	
2.7587	-7.78921	-2.68036	0	
2.7593	-13.2812	-1.15461	0	
2.7600	-14.194	-3.58755	0	
2.7607	-19.0775	-10.3091	0	
2.7613	-24.2652	-11.5255	0	
2.7620	-25.1932	-8.78332	0	
2.7627	-24.5695	-9.99979	0	
2.7633	-24.2652	-10.3091	0	
2.7640	-22.4396	-6.63904	0	
2.7647	-20.614	-6.35038	0	
2.7653	-18.7732	-7.56685	0	
2.7660	-19.7012	-6.35038	0	
2.7667	-20.9183	-5.42257	0	
2.7673	-15.122	-5.73184	0	
2.7680	-6.57215	-6.35038	0	
2.7687	-2.29721	-6.63904	0	
2.7693	1.3692	-6.04111	0	
2.7700	7.16547	-5.73184	0	
2.7707	8.6868	-6.35038	0	
2.7713	5.62892	-5.42257	0	
2.7720	4.41186	-1.46389	0	
2.7727	6.8612	1.89687	0	
2.7733	7.16547	2.51541	0	
2.7740	2.58626	1.89687	0	
2.7747	0.13692	2.80406	0	
2.7753	5.32466	4.63908	0	
2.7760	9.90386	3.42261	0	
2.7767	7.774	1.5876	0	
2.7773	2.282	1.27832	0	
2.7780	0.441186	0.0618544	0	
2.7787	1.67346	1.27832	0	
2.7793	2.282	4.32981	0	
2.7800	1.06493	2.51541	0	
2.7807	1.06493	0.371126	0	
2.7813	3.49906	2.51541	0	
2.7820	4.10759	2.20614	0	
2.7827	2.58626	-0.247417	0	
2.7833	1.3692	-1.15461	0	
2.7840	-0.471613	-2.68036	0	
2.7847	-2.29721	-2.98963	0	
2.7853	-0.775879	0.680398	0	
2.7860	2.89053	3.42261	0	
2.7867	5.02039	4.32981	0	
2.7873	3.80333	4.32981	0	
2.7880	2.58626	1.89687	0	
2.7887	4.41186	-0.845343	0	
2.7893	7.46973	0.371126	0	
2.7900	8.6868	2.51541	0	
2.7907	8.6868	4.32981	0	
2.7913	7.16547	4.32981	0	
2.7920	5.32466	2.80406	0	
2.7927	4.10759	4.04115	0	
2.7933	2.282	6.47409	0	
2.7940	-0.471613	3.42261	0	
2.7947	-2.60148	-1.15461	0	
2.7953	-2.29721	0.371126	0	
2.7960	0.745452	2.80406	0	
2.7967	0.745452	1.27832	0	
2.7973	-3.21001	0.371126	0	
2.7980	-5.96362	0.0618544	0	
2.7987	-7.48495	-1.77316	0	
2.7993	-10.5428	-2.06181	0	
2.8000	-12.3684	-0.845343	0	
2.8007	-10.2386	-1.77316	0	
2.8013	-9.93429	-2.98963	0	
2.8020	-13.2812	-3.89683	0	
2.8027	-16.0348	-6.63904	0	
2.8033	-14.194	-7.25758	0	
2.8040	-8.09348	-3.58755	0	
2.8047	-2.90574	-1.15461	0	
2.8053	0.745452	-0.247417	0	
2.8060	3.49906	1.5876	0	
2.8067	4.41186	1.27832	0	
2.8073	2.282	-0.247417	0	
2.8080	-1.99294	0.680398	0	
2.8087	-6.87642	-0.247417	0	
2.8093	-8.70201	-1.15461	0	
2.8100	-3.81854	2.80406	0	
2.8107	3.19479	7.09263	0	
2.8113	8.38253	6.16482	0	
2.8120	9.5996	3.73188	0	
2.8127	5.32466	4.04115	0	
2.8133	0.441186	4.94835	0	
2.8140	1.67346	4.32981	0	
2.8147	5.02039	3.42261	0	
2.8153	6.8612	3.11334	0	
2.8160	8.6868	3.42261	0	
2.8167	8.07827	3.73188	0	
2.8173	6.55694	3.42261	0	
2.8180	10.5124	2.80406	0	
2.8187	17.8452	1.5876	0	
2.8193	16.0044	0.680398	0	
2.8200	6.8612	0.371126	0	
2.8207	-1.99294	-1.15461	0	
2.8213	-6.57215	-2.98963	0	
2.8220	-7.18068	-2.98963	0	
2.8227	-4.44229	-1.15461	0	
2.8233	-1.08014	-2.98963	0	
2.8240	-1.08014	-5.42257	0	
2.8247	-3.21001	-4.2061	0	
2.8253	-4.12281	-3.89683	0	
2.8260	-2.90574	-6.35038	0	
2.8267	0.13692	-3.58755	0	
2.8273	4.71613	1.27832	0	
2.8280	6.8612	-0.247417	0	
2.8287	7.16547	-3.2989	0	
2.8293	8.6868	-2.06181	0	
2.8300	9.5996	-1.15461	0	
2.8307	5.93319	-0.247417	0	
2.8313	4.10759	1.27832	0	
2.8320	8.99106	1.89687	0	
2.8327	9.5996	-0.247417	0	
2.8333	1.3692	-4.82464	0	
2.8340	-5.65935	-6.35038	0	
2.8347	-8.09348	-5.73184	0	
2.8353	-11.7599	-8.16478	0	
2.8360	-16.9476	-9.99979	0	
2.8367	-23.0482	-6.94831	0	
2.8373	-27.6274	-5.11329	0	
2.8380	-26.4103	-6.63904	0	
2.8387	-23.0482	-6.63904	0	
2.8393	-23.961	-6.63904	0	
2.8400	-23.6567	-7.56685	0	
2.8407	-19.0775	-6.63904	0	
2.8413	-17.8604	-4.82464	0	
2.8420	-18.7732	-3.89683	0	
2.8427	-16.9476	-2.37108	0	
2.8433	-14.194	-1.15461	0	
2.8440	-8.39775	-1.46389	0	
2.8447	1.3692	-1.77316	0	
2.8453	8.99106	-2.37108	0	
2.8460	12.3532	-3.58755	0	
2.8467	15.0916	-3.58755	0	
2.8473	16.9324	-2.06181	0	
2.8480	16.0044	1.27832	0	
2.8487	13.5703	4.32981	0	
2.8493	11.4404	1.89687	0	
2.8500	12.3532	-0.536071	0	
2.8507	14.1788	3.42261	0	
2.8513	14.1788	3.42261	0	
2.8520	12.0489	-0.536071	0	
2.8527	8.6868	2.51541	0	
2.8533	5.32466	6.16482	0	
2.8540	4.71613	1.5876	0	
2.8547	3.80333	0.0618544	0	
2.8553	-1.99294	5.25762	0	
2.8560	-6.87642	5.25762	0	
2.8567	-7.18068	3.73188	0	
2.8573	-5.96362	4.63908	0	
2.8580	-9.00628	2.51541	0	
2.8587	-16.0348	-0.536071	0	
2.8593	-17.8604	0.680398	0	
2.8600	-10.5428	2.20614	0	
2.8607	-7.78921	1.27832	0	
2.8613	-12.6727	-0.536071	0	
2.8620	-8.39775	-1.46389	0	
2.8627	2.58626	2.51541	0	
2.8633	4.71613	7.38129	0	
2.8640	4.10759	7.38129	0	
2.8647	8.99106	6.47409	0	
2.8653	8.38253	7.09263	0	
2.8660	2.58626	4.63908	0	
2.8667	1.3692	-0.536071	0	
2.8673	0.13692	-3.89683	0	
2.8680	-2.29721	-6.63904	0	
2.8687	2.282	-7.25758	0	
2.8693	9.29533	-5.11329	0	
2.8700	15.0916	-4.82464	0	
2.8707	21.1921	-6.04111	0	
2.8713	21.1921	-3.89683	0	
2.8720	15.0916	-0.536071	0	
2.8727	12.0489	-0.845343	0	
2.8733	6.55694	-2.98963	0	
2.8740	-4.12281	-4.51537	0	
2.8747	-8.70201	-5.42257	0	
2.8753	-6.87642	-4.51537	0	
2.8760	-7.18068	-1.15461	0	
2.8767	-8.39775	0.98967	0	
2.8773	-9.31054	0.0618544	0	
2.8780	-9.31054	-0.247417	0	
2.8787	-5.96362	0.0618544	0	
2.8793	-5.05082	-1.15461	0	
2.8800	-5.65935	-0.247417	0	
2.8807	-0.471613	3.42261	0	
2.8813	5.02039	2.51541	0	
2.8820	3.80333	1.5876	0	
2.8827	3.19479	6.78336	0	
2.8833	6.8612	9.2163	0	
2.8840	8.6868	2.80406	0	
2.8847	6.8612	1.5876	0	
2.8853	5.93319	6.78336	0	
2.8860	9.29533	6.78336	0	
2.8867	13.266	5.85555	0	
2.8873	9.5996	8.3091	0	
2.8880	2.282	6.78336	0	
2.8887	-0.471613	1.27832	0	
2.8893	-2.90574	-0.536071	0	
2.8900	-5.96362	-2.06181	0	
2.8907	-4.74655	-4.82464	0	
2.8913	-3.21001	-6.04111	0	
2.8920	-8.70201	-5.11329	0	
2.8927	-14.194	-3.89683	0	
2.8933	-14.194	-3.58755	0	
2.8940	-13.8898	-5.73184	0	
2.8947	-14.8178	-7.87612	0	
2.8953	-14.194	-6.63904	0	
2.8960	-13.2812	-4.82464	0	
2.8967	-11.1514	-3.89683	0	
2.8973	-9.31054	-3.2989	0	
2.8980	-11.4556	-3.89683	0	
2.8987	-13.2812	-5.42257	0	
2.8993	-13.2812	-5.42257	0	
2.9000	-14.194	-5.11329	0	
2.9007	-13.5855	-4.2061	0	
2.9013	-5.96362	-2.06181	0	
2.9020	0.441186	-1.46389	0	
2.9027	2.89053	-2.06181	0	
2.9033	5.02039	-0.536071	0	
2.9040	3.80333	0.680398	0	
2.9047	-1.99294	-2.06181	0	
2.9053	-2.29721	-3.89683	0	
2.9060	1.67346	-0.845343	0	
2.9067	3.49906	2.51541	0	
2.9073	6.25267	-0.247417	0	
2.9080	10.5124	-1.15461	0	
2.9087	10.5124	3.42261	0	
2.9093	7.774	5.25762	0	
2.9100	7.774	3.11334	0	
2.9107	8.99106	3.42261	0	
2.9113	9.29533	1.5876	0	
2.9120	11.4404	-3.2989	0	
2.9127	14.7873	-3.89683	0	
2.9133	12.3532	-2.68036	0	
2.9140	4.41186	-4.82464	0	
2.9147	-1.08014	-4.2061	0	
2.9153	-6.57215	-1.46389	0	
2.9160	-15.7306	-2.98963	0	
2.9167	-17.8604	-5.73184	0	
2.9173	-10.8471	-5.73184	0	
2.9180	-9.63002	-2.98963	0	
2.9187	-13.8898	0.680398	0	
2.9193	-12.3684	2.20614	0	
2.9200	-11.4556	0.680398	0	
2.9207	-12.0642	1.27832	0	
2.9213	-8.39775	2.51541	0	
2.9220	-5.65935	0.0618544	0	
2.9227	-5.05082	-0.247417	0	
2.9233	-2.90574	0.680398	0	
2.9240	-5.96362	-1.77316	0	
2.9247	-9.63002	-5.11329	0	
2.9253	-0.471613	-5.73184	0	
2.9260	10.5124	-3.89683	0	
2.9267	10.2081	-1.77316	0	
2.9273	6.55694	-1.15461	0	
2.9280	5.93319	-3.58755	0	
2.9287	5.32466	-2.98963	0	
2.9293	4.71613	0.371126	0	
2.9300	4.10759	2.20614	0	
2.9307	5.93319	2.51541	0	
2.9313	8.6868	1.5876	0	
2.9320	9.90386	-0.247417	0	
2.9327	9.29533	0.680398	0	
2.9333	7.774	3.11334	0	
2.9340	2.282	4.04115	0	
2.9347	-4.12281	2.80406	0	
2.9353	-3.81854	0.680398	0	
2.9360	1.97773	0.371126	0	
2.9367	5.02039	1.89687	0	
2.9373	3.19479	1.89687	0	
2.9380	0.13692	0.680398	0	
2.9387	-1.68868	0.0618544	0	
2.9393	-2.90574	-0.247417	0	
2.9400	-4.44229	0.680398	0	
2.9407	-4.12281	2.51541	0	
2.9413	-1.38441	4.04115	0	
2.9420	1.67346	6.16482	0	
2.9427	4.71613	7.99983	0	
2.9433	6.8612	6.16482	0	
2.9440	9.5996	5.85555	0	
2.9447	14.7873	9.2163	0	
2.9453	18.4537	9.83485	0	
2.9460	16.6281	7.99983	0	
2.9467	13.5703	7.09263	0	
2.9473	15.0916	4.32981	0	
2.9480	16.0044	2.80406	0	
2.9487	9.5996	4.32981	0	
2.9493	5.93319	1.5876	0	
2.9500	6.55694	-2.98963	0	
2.9507	0.13692	-2.68036	0	
2.9513	-11.1514	-3.89683	0	
