0.0000	-4.66408	2.10296	1
0.0007	-0.105403	0.277749	0	
0.0013	1.73915	0.58195	0	
0.0020	10.8829	2.71136	0	
0.0027	24.9278	2.40716	0	
0.0033	25.244	2.10296	0	
0.0040	16.3902	3.63719	0	
0.0047	15.178	4.85399	0	
0.0053	16.074	6.6792	0	
0.0060	10.8829	8.51763	0	
0.0067	8.45859	8.82184	0	
0.0073	9.98693	8.21343	0	
0.0080	9.06466	7.2876	0	
0.0087	5.4019	5.4624	0	
0.0093	2.05536	2.71136	0	
0.0100	0.816873	-0.0264523	0	
0.0107	-0.105403	-0.0264523	0	
0.0113	-3.45195	1.79876	0	
0.0120	-8.03698	1.19035	0	
0.0127	-9.24911	-2.16909	0	
0.0133	-8.9329	-2.77749	0	
0.0140	-11.0673	-0.0264523	0	
0.0147	-16.2584	0.277749	0	
0.0153	-21.4495	-2.47329	0	
0.0160	-23.5839	-3.69009	0	
0.0167	-22.688	-1.56068	0	
0.0173	-20.5272	0.886151	0	
0.0180	-15.0463	1.79876	0	
0.0187	-4.66408	4.24559	0	
0.0193	4.18977	5.4624	0	
0.0200	5.08569	5.4624	0	
0.0207	2.95128	6.6792	0	
0.0213	4.47963	7.90923	0	
0.0220	7.2201	6.0708	0	
0.0227	10.2768	5.4624	0	
0.0233	15.4679	7.5918	0	
0.0240	17.3124	8.21343	0	
0.0247	13.6497	7.5918	0	
0.0253	11.1991	7.2876	0	
0.0260	7.53631	3.63719	0	
0.0267	2.05536	-2.16909	0	
0.0273	3.55735	-4.6027	0	
0.0280	5.4019	-4.92012	0	
0.0287	-1.9236	-4.6027	0	
0.0293	-9.85518	-3.08169	0	
0.0300	-14.4402	-2.77749	0	
0.0307	-16.8645	-3.08169	0	
0.0313	-12.5957	-3.08169	0	
0.0320	-8.9329	-2.77749	0	
0.0327	-16.8645	-3.69009	0	
0.0333	-25.7183	-4.92012	0	
0.0340	-29.6973	-6.44113	0	
0.0347	-32.4378	-6.13693	0	
0.0353	-27.5629	-3.38589	0	
0.0360	-15.6523	-2.16909	0	
0.0367	-11.6997	-3.38589	0	
0.0373	-9.24911	-2.77749	0	
0.0380	0.210806	-0.648081	0	
0.0387	8.14238	-0.952282	0	
0.0393	7.53631	-2.47329	0	
0.0400	5.4019	-2.47329	0	
0.0407	9.67072	-0.648081	0	
0.0413	23.3995	2.40716	0	
0.0420	35.31	3.63719	0	
0.0427	35.5999	3.31976	0	
0.0433	30.1189	4.85399	0	
0.0440	24.6379	6.375	0	
0.0447	16.68	5.15819	0	
0.0453	11.5153	5.15819	0	
0.0460	10.8829	6.375	0	
0.0467	8.14238	4.54979	0	
0.0473	0.527015	2.10296	0	
0.0480	-5.58636	-0.330654	0	
0.0487	-6.50863	-3.69009	0	
0.0493	-3.45195	-2.16909	0	
0.0500	-0.395261	1.79876	0	
0.0507	-3.74181	-0.952282	0	
0.0513	-11.6997	-4.6027	0	
0.0520	-16.5746	-4.2985	0	
0.0527	-17.7868	-6.44113	0	
0.0533	-20.5272	-8.88797	0	
0.0540	-22.9778	-6.44113	0	
0.0547	-18.709	-3.69009	0	
0.0553	-13.2281	-1.56068	0	
0.0560	-13.2281	-0.0264523	0	
0.0567	-12.9119	-0.952282	0	
0.0573	-9.24911	-1.56068	0	
0.0580	-8.03698	-0.330654	0	
0.0587	-8.03698	-0.952282	0	
0.0593	-5.90257	-0.952282	0	
0.0600	-4.98029	0.277749	0	
0.0607	-4.05801	1.79876	0	
0.0613	-1.31754	3.31976	0	
0.0620	-1.9236	3.63719	0	
0.0627	-5.27015	1.79876	0	
0.0633	-4.98029	2.71136	0	
0.0640	-1.6074	5.4624	0	
0.0647	0.816873	6.0708	0	
0.0653	1.73915	6.0708	0	
0.0660	1.13308	5.4624	0	
0.0667	4.79584	4.54979	0	
0.0673	13.0173	4.54979	0	
0.0680	18.8408	5.4624	0	
0.0687	20.659	6.0708	0	
0.0693	22.7934	8.21343	0	
0.0700	19.7367	7.90923	0	
0.0707	10.8829	5.7666	0	
0.0713	6.32418	6.375	0	
0.0720	5.08569	4.85399	0	
0.0727	0.527015	-1.86489	0	
0.0733	-4.37422	-5.52853	0	
0.0740	-3.74181	-4.2985	0	
0.0747	0.527015	-3.38589	0	
0.0753	1.73915	-1.86489	0	
0.0760	-3.74181	-0.330654	0	
0.0767	-8.32684	-2.16909	0	
0.0773	-6.50863	-3.38589	0	
0.0780	-1.31754	-1.86489	0	
0.0787	1.13308	-0.0264523	0	
0.0793	0.816873	2.10296	0	
0.0800	-1.00133	2.40716	0	
0.0807	-2.23981	1.19035	0	
0.0813	0.210806	2.40716	0	
0.0820	4.47963	1.79876	0	
0.0827	6.61404	-0.648081	0	
0.0833	6.32418	2.40716	0	
0.0840	2.66143	6.375	0	
0.0847	-1.00133	3.63719	0	
0.0853	1.42294	0.886151	0	
0.0860	11.1991	2.71136	0	
0.0867	19.4468	2.40716	0	
0.0873	18.8408	0.277749	0	
0.0880	16.3902	-2.77749	0	
0.0887	18.2084	-8.26634	0	
0.0893	18.8408	-10.1048	0	
0.0900	11.5153	-5.83273	0	
0.0907	2.05536	-5.83273	0	
0.0913	-2.23981	-9.19217	0	
0.0920	-2.84588	-9.80057	0	
0.0927	-5.58636	-9.19217	0	
0.0933	-11.6997	-10.1048	0	
0.0940	-18.3928	-8.57054	0	
0.0947	-24.8224	-6.74533	0	
0.0953	-28.775	-6.13693	0	
0.0960	-29.3811	-6.13693	0	
0.0967	-24.19	-6.74533	0	
0.0973	-13.8341	-7.35373	0	
0.0980	-4.98029	-7.35373	0	
0.0987	1.13308	-6.74533	0	
0.0993	9.06466	-5.52853	0	
0.1000	14.2558	-4.2985	0	
0.1007	17.6023	-3.69009	0	
0.1013	26.7724	-1.86489	0	
0.1020	32.5695	-0.952282	0	
0.1027	24.0055	-2.77749	0	
0.1033	12.7274	-3.99429	0	
0.1040	10.593	-3.69009	0	
0.1047	9.67072	-2.77749	0	
0.1053	8.74845	-1.25648	0	
0.1060	10.2768	-0.648081	0	
0.1067	9.38086	0.886151	0	
0.1073	5.4019	2.40716	0	
0.1080	5.71811	1.19035	0	
0.1087	8.14238	-0.330654	0	
0.1093	6.32418	-0.0264523	0	
0.1100	5.71811	0.58195	0	
0.1107	9.06466	1.79876	0	
0.1113	9.98693	4.54979	0	
0.1120	9.06466	3.63719	0	
0.1127	8.14238	3.63719	0	
0.1133	7.2201	7.2876	0	
0.1140	3.87356	8.21343	0	
0.1147	-2.84588	6.375	0	
0.1153	-5.90257	7.2876	0	
0.1160	-1.6074	8.51763	0	
0.1167	1.13308	6.375	0	
0.1173	-3.74181	3.63719	0	
0.1180	-6.50863	1.19035	0	
0.1187	-2.84588	-2.16909	0	
0.1193	-2.84588	-3.99429	0	
0.1200	-5.27015	-3.08169	0	
0.1207	-5.58636	-2.16909	0	
0.1213	-5.58636	-2.77749	0	
0.1220	-3.13574	-2.47329	0	
0.1227	0.527015	-0.648081	0	
0.1233	-1.9236	-1.25648	0	
0.1240	-4.66408	-3.69009	0	
0.1247	-0.395261	-3.38589	0	
0.1253	0.816873	-3.99429	0	
0.1260	-4.05801	-6.74533	0	
0.1267	-5.58636	-5.22433	0	
0.1273	-3.74181	-1.25648	0	
0.1280	-4.66408	-1.86489	0	
0.1287	-5.58636	-3.08169	0	
0.1293	-3.74181	-0.952282	0	
0.1300	-1.6074	0.58195	0	
0.1307	-1.00133	0.277749	0	
0.1313	-1.31754	2.71136	0	
0.1320	-2.52967	3.63719	0	
0.1327	-4.37422	0.277749	0	
0.1333	-3.45195	0.277749	0	
0.1340	3.26749	3.31976	0	
0.1347	7.2201	3.63719	0	
0.1353	2.34522	2.71136	0	
0.1360	-2.84588	1.79876	0	
0.1367	-0.105403	-0.648081	0	
0.1373	4.47963	-0.952282	0	
0.1380	6.32418	2.71136	0	
0.1387	7.2201	4.24559	0	
0.1393	8.14238	2.71136	0	
0.1400	8.14238	3.63719	0	
0.1407	9.06466	6.375	0	
0.1413	12.4112	7.2876	0	
0.1420	13.6497	6.6792	0	
0.1427	8.74845	6.375	0	
0.1433	1.73915	5.4624	0	
0.1440	2.34522	4.54979	0	
0.1447	5.71811	4.24559	0	
0.1453	3.55735	1.79876	0	
0.1460	-1.00133	-0.952282	0	
0.1467	-6.19242	-2.16909	0	
0.1473	-11.9896	-6.74533	0	
0.1480	-16.2584	-12.2342	0	
0.1487	-18.3928	-12.8426	0	
0.1493	-20.8434	-10.409	0	
0.1500	-21.4495	-9.80057	0	
0.1507	-21.1596	-10.1048	0	
0.1513	-20.2374	-9.49637	0	
0.1520	-16.2584	-8.88797	0	
0.1527	-11.0673	-5.22433	0	
0.1533	-7.72077	0.277749	0	
0.1540	-3.74181	1.49455	0	
0.1547	-1.31754	-1.86489	0	
0.1553	-7.1147	-4.2985	0	
0.1560	-14.7301	-3.99429	0	
0.1567	-15.0463	-1.86489	0	
0.1573	-11.9896	-0.0264523	0	
0.1580	-8.9329	-2.16909	0	
0.1587	-7.40456	-5.83273	0	
0.1593	-7.72077	-4.92012	0	
0.1600	-6.19242	-1.86489	0	
0.1607	0.527015	-2.47329	0	
0.1613	7.2201	-3.08169	0	
0.1620	9.98693	-1.25648	0	
0.1627	12.1213	-0.330654	0	
0.1633	16.9962	-0.648081	0	
0.1640	20.9752	-0.0264523	0	
0.1647	20.0529	1.79876	0	
0.1653	15.7841	1.79876	0	
0.1660	11.8051	-1.86489	0	
0.1667	6.32418	-5.52853	0	
0.1673	3.26749	-4.92012	0	
0.1680	7.2201	-2.16909	0	
0.1687	9.98693	-1.86489	0	
0.1693	7.2201	-2.77749	0	
0.1700	7.2201	-1.56068	0	
0.1707	7.85252	0.58195	0	
0.1713	5.4019	1.19035	0	
0.1720	5.4019	1.79876	0	
0.1727	5.4019	2.10296	0	
0.1733	2.95128	2.10296	0	
0.1740	2.95128	0.886151	0	
0.1747	1.73915	-1.86489	0	
0.1753	-2.84588	-3.69009	0	
0.1760	-3.74181	-3.99429	0	
0.1767	-2.84588	-6.74533	0	
0.1773	-5.58636	-9.49637	0	
0.1780	-4.66408	-6.44113	0	
0.1787	-0.395261	-2.77749	0	
0.1793	-0.105403	-3.69009	0	
0.1800	-2.84588	-4.92012	0	
0.1807	-6.79849	-3.99429	0	
0.1813	-9.56532	-3.69009	0	
0.1820	-5.58636	-3.38589	0	
0.1827	2.34522	-0.952282	0	
0.1833	7.2201	0.886151	0	
0.1840	8.45859	0.58195	0	
0.1847	6.61404	0.886151	0	
0.1853	5.4019	0.886151	0	
0.1860	8.45859	-0.0264523	0	
0.1867	9.98693	-0.648081	0	
0.1873	5.71811	0.886151	0	
0.1880	3.55735	1.79876	0	
0.1887	3.55735	0.886151	0	
0.1893	2.66143	-0.0264523	0	
0.1900	2.66143	-1.86489	0	
0.1907	2.34522	-2.77749	0	
0.1913	1.42294	-0.648081	0	
0.1920	4.18977	1.79876	0	
0.1927	6.32418	2.71136	0	
0.1933	1.73915	4.85399	0	
0.1940	-4.37422	4.54979	0	
0.1947	-7.72077	-0.0264523	0	
0.1953	-9.24911	-0.330654	0	
0.1960	-5.58636	3.31976	0	
0.1967	-1.9236	2.71136	0	
0.1973	-2.84588	-0.0264523	0	
0.1980	-4.37422	0.886151	0	
0.1987	-7.1147	1.19035	0	
0.1993	-14.7301	-2.16909	0	
0.2000	-15.3625	-3.08169	0	
0.2007	-5.58636	-1.86489	0	
0.2013	-1.00133	-3.08169	0	
0.2020	-1.00133	-3.99429	0	
0.2027	3.87356	-0.330654	0	
0.2033	9.67072	3.94139	0	
0.2040	12.4112	5.7666	0	
0.2047	12.7274	5.7666	0	
0.2053	11.1991	4.54979	0	
0.2060	9.06466	3.63719	0	
0.2067	6.93025	4.54979	0	
0.2073	3.26749	3.94139	0	
0.2080	1.42294	3.31976	0	
0.2087	2.05536	3.63719	0	
0.2093	0.210806	0.277749	0	
0.2100	-3.74181	-4.6027	0	
0.2107	-6.19242	-3.69009	0	
0.2113	-7.40456	-0.0264523	0	
0.2120	-2.84588	1.49455	0	
0.2127	7.85252	1.79876	0	
0.2133	12.7274	2.71136	0	
0.2140	11.8051	3.63719	0	
0.2147	13.9395	6.0708	0	
0.2153	11.8051	7.2876	0	
0.2160	0.527015	6.0708	0	
0.2167	-6.79849	4.24559	0	
0.2173	-7.40456	4.24559	0	
0.2180	-10.7775	4.54979	0	
0.2187	-14.124	2.71136	0	
0.2193	-15.0463	0.886151	0	
0.2200	-13.2281	1.79876	0	
0.2207	-5.90257	1.19035	0	
0.2213	1.73915	-0.952282	0	
0.2220	5.71811	-0.330654	0	
0.2227	13.6497	1.79876	0	
0.2233	22.1873	0.58195	0	
0.2240	17.6023	0.277749	0	
0.2247	9.98693	1.79876	0	
0.2253	9.38086	-0.0264523	0	
0.2260	5.4019	-1.25648	0	
0.2267	-2.23981	1.79876	0	
0.2273	-4.66408	3.63719	0	
0.2280	-5.58636	1.49455	0	
0.2287	-4.98029	1.79876	0	
0.2293	3.87356	3.63719	0	
0.2300	13.0173	3.94139	0	
0.2307	17.6023	5.4624	0	
0.2313	22.1873	6.375	0	
0.2320	23.1096	4.54979	0	
0.2327	17.3124	5.4624	0	
0.2333	11.8051	7.2876	0	
0.2340	8.14238	4.24559	0	
0.2347	2.34522	1.79876	0	
0.2353	-2.84588	2.71136	0	
0.2360	-6.79849	-1.86489	0	
0.2367	-11.9896	-10.1048	0	
0.2373	-18.103	-14.0726	0	
0.2380	-22.9778	-14.3768	0	
0.2387	-25.4285	-12.8426	0	
0.2393	-24.8224	-9.80057	0	
0.2400	-24.8224	-9.19217	0	
0.2407	-26.0345	-10.7132	0	
0.2413	-22.9778	-11.0174	0	
0.2420	-17.7868	-7.96214	0	
0.2427	-16.8645	-3.38589	0	
0.2433	-17.7868	-3.38589	0	
0.2440	-17.4969	-7.35373	0	
0.2447	-16.5746	-6.74533	0	
0.2453	-14.124	-3.08169	0	
0.2460	-10.1714	-4.6027	0	
0.2467	-9.56532	-5.52853	0	
0.2473	-13.2281	-3.69009	0	
0.2480	-14.4402	-1.86489	0	
0.2487	-8.32684	1.49455	0	
0.2493	2.66143	6.9834	0	
0.2500	11.5153	8.21343	0	
0.2507	15.4679	6.6792	0	
0.2513	14.5456	6.375	0	
0.2520	9.06466	6.6792	0	
0.2527	1.42294	7.2876	0	
0.2533	-1.6074	5.4624	0	
0.2540	-0.395261	-0.0264523	0	
0.2547	-2.52967	-3.38589	0	
0.2553	-6.79849	-1.86489	0	
0.2560	-7.1147	-1.86489	0	
0.2567	-4.05801	-3.99429	0	
0.2573	-3.13574	-3.08169	0	
0.2580	-2.84588	-1.25648	0	
0.2587	-1.31754	-2.77749	0	
0.2593	1.13308	-3.69009	0	
0.2600	2.66143	-0.952282	0	
0.2607	1.13308	0.277749	0	
0.2613	0.527015	0.886151	0	
0.2620	3.55735	5.15819	0	
0.2627	3.87356	8.21343	0	
0.2633	1.73915	4.54979	0	
0.2640	4.47963	1.79876	0	
0.2647	5.4019	1.19035	0	
0.2653	-1.00133	-2.77749	0	
0.2660	-2.84588	-5.83273	0	
0.2667	-1.31754	-4.6027	0	
0.2673	-8.03698	-4.6027	0	
0.2680	-11.9896	-5.83273	0	
0.2687	-7.40456	-3.69009	0	
0.2693	-9.56532	-3.99429	0	
0.2700	-15.0463	-7.96214	0	
0.2707	-8.32684	-7.35373	0	
0.2713	-3.13574	-4.6027	0	
0.2720	-8.64304	-6.44113	0	
0.2727	-10.7775	-10.1048	0	
0.2733	-9.85518	-8.88797	0	
0.2740	-14.7301	-5.52853	0	
0.2747	-16.2584	-5.52853	0	
0.2753	-12.5957	-6.44113	0	
0.2760	-12.3058	-5.22433	0	
0.2767	-9.56532	-2.47329	0	
0.2773	-1.00133	-2.77749	0	
0.2780	3.55735	-2.47329	0	
0.2787	2.34522	1.79876	0	
0.2793	2.34522	6.0708	0	
0.2800	0.816873	6.375	0	
0.2807	0.527015	6.0708	0	
0.2813	6.93025	6.375	0	
0.2820	11.5153	5.7666	0	
0.2827	9.98693	5.7666	0	
0.2833	12.7274	7.90923	0	
0.2840	18.8408	10.0386	0	
0.2847	19.1306	9.73444	0	
0.2853	18.5246	8.21343	0	
0.2860	18.8408	8.51763	0	
0.2867	13.3335	9.73444	0	
0.2873	5.4019	8.21343	0	
0.2880	2.34522	5.15819	0	
0.2887	-1.31754	1.19035	0	
0.2893	-8.9329	-3.69009	0	
0.2900	-14.7301	-7.96214	0	
0.2907	-16.8645	-8.26634	0	
0.2913	-15.3625	-6.74533	0	
0.2920	-11.9896	-6.13693	0	
0.2927	-10.1714	-4.6027	0	
0.2933	-8.32684	-0.0264523	0	
0.2940	-3.45195	4.24559	0	
0.2947	-0.105403	4.85399	0	
0.2953	-0.395261	4.85399	0	
0.2960	-0.105403	5.4624	0	
0.2967	-1.9236	5.15819	0	
0.2973	-3.74181	5.7666	0	
0.2980	0.816873	8.21343	0	
0.2987	4.47963	7.90923	0	
0.2993	1.13308	6.9834	0	
0.3000	1.42294	8.51763	0	
0.3007	6.93025	7.2876	0	
0.3013	6.61404	3.63719	0	
0.3020	4.18977	3.63719	0	
0.3027	6.32418	3.01556	0	
0.3033	4.79584	-0.330654	0	
0.3040	-1.9236	-0.952282	0	
0.3047	-3.74181	-1.86489	0	
0.3053	-1.9236	-5.52853	0	
0.3060	-2.52967	-3.69009	0	
0.3067	-3.74181	-0.0264523	0	
0.3073	-2.84588	-2.47329	0	
0.3080	-3.74181	-4.6027	0	
0.3087	-7.40456	-3.99429	0	
0.3093	-10.1714	-6.74533	0	
0.3100	-10.1714	-7.96214	0	
0.3107	-8.03698	-4.2985	0	
0.3113	-2.84588	-1.86489	0	
0.3120	2.95128	-2.16909	0	
0.3127	5.4019	-1.86489	0	
0.3133	3.55735	-1.86489	0	
0.3140	1.42294	-0.952282	0	
0.3147	1.73915	-0.0264523	0	
0.3153	4.47963	-0.0264523	0	
0.3160	11.1991	1.19035	0	
0.3167	15.7841	2.71136	0	
0.3173	11.1991	0.277749	0	
0.3180	4.47963	-1.56068	0	
0.3187	3.55735	1.19035	0	
0.3193	4.18977	3.94139	0	
0.3200	6.00797	4.24559	0	
0.3207	14.5456	4.85399	0	
0.3213	19.7367	5.15819	0	
0.3220	14.5456	3.63719	0	
0.3227	9.67072	1.49455	0	
0.3233	6.00797	-0.952282	0	
0.3240	-2.52967	-6.44113	0	
0.3247	-6.50863	-14.0726	0	
0.3253	-2.23981	-15.2894	0	
0.3260	1.13308	-8.88797	0	
0.3267	2.66143	-5.22433	0	
0.3273	2.95128	-5.52853	0	
0.3280	0.816873	-4.92012	0	
0.3287	-1.00133	-2.77749	0	
0.3293	-2.52967	-0.952282	0	
0.3300	-4.66408	-0.0264523	0	
0.3307	-2.23981	-0.952282	0	
0.3313	2.95128	-0.0264523	0	
0.3320	2.66143	3.94139	0	
0.3327	1.42294	5.15819	0	
0.3333	3.55735	4.24559	0	
0.3340	3.26749	3.63719	0	
0.3347	1.73915	3.31976	0	
0.3353	3.55735	4.54979	0	
0.3360	2.95128	3.31976	0	
0.3367	-3.74181	-3.08169	0	
0.3373	-10.1714	-5.52853	0	
0.3380	-12.9119	-1.86489	0	
0.3387	-12.5957	-2.47329	0	
0.3393	-11.9896	-5.22433	0	
0.3400	-12.5957	-4.2985	0	
0.3407	-15.0463	-5.52853	0	
0.3413	-16.8645	-9.19217	0	
0.3420	-15.6523	-9.19217	0	
0.3427	-13.5179	-7.65794	0	
0.3433	-10.1714	-6.44113	0	
0.3440	-3.45195	-3.69009	0	
0.3447	2.66143	-0.330654	0	
0.3453	2.95128	-0.0264523	0	
0.3460	3.55735	0.886151	0	
0.3467	6.32418	2.71136	0	
0.3473	8.14238	2.40716	0	
0.3480	9.98693	-0.0264523	0	
0.3487	11.1991	0.277749	0	
0.3493	8.14238	1.79876	0	
0.3500	4.18977	1.79876	0	
0.3507	5.08569	2.71136	0	
0.3513	8.45859	3.94139	0	
0.3520	11.8051	2.71136	0	
0.3527	12.7274	2.71136	0	
0.3533	10.2768	4.54979	0	
0.3540	7.2201	3.01556	0	
0.3547	4.79584	0.58195	0	
0.3553	1.13308	2.71136	0	
0.3560	-0.71147	3.63719	0	
0.3567	-0.395261	-0.952282	0	
0.3573	-1.6074	-1.86489	0	
0.3580	-2.52967	4.24559	0	
0.3587	-2.84588	3.94139	0	
0.3593	-4.37422	-0.648081	0	
0.3600	-4.66408	0.58195	0	
0.3607	-1.9236	2.71136	0	
0.3613	-0.71147	0.886151	0	
0.3620	-0.395261	-0.952282	0	
0.3627	1.42294	-1.86489	0	
0.3633	1.73915	-3.08169	0	
0.3640	-0.71147	-0.952282	0	
0.3647	-1.31754	2.10296	0	
0.3653	0.816873	2.71136	0	
0.3660	1.73915	1.79876	0	
0.3667	2.66143	2.40716	0	
0.3673	6.61404	5.15819	0	
0.3680	11.1991	7.2876	0	
0.3687	10.2768	6.375	0	
0.3693	6.00797	6.9834	0	
0.3700	3.87356	8.82184	0	
0.3707	3.55735	7.2876	0	
0.3713	1.42294	6.375	0	
0.3720	-1.9236	5.4624	0	
0.3727	-6.50863	0.886151	0	
0.3733	-11.3835	-1.56068	0	
0.3740	-15.6523	-1.86489	0	
0.3747	-17.4969	-6.44113	0	
0.3753	-18.3928	-7.35373	0	
0.3760	-20.5272	-3.69009	0	
0.3767	-23.2941	-4.6027	0	
0.3773	-22.0556	-6.44113	0	
0.3780	-14.7301	-4.2985	0	
0.3787	-9.24911	-5.52853	0	
0.3793	-11.9896	-7.65794	0	
0.3800	-15.3625	-4.92012	0	
0.3807	-11.0673	-4.2985	0	
0.3813	-6.79849	-4.92012	0	
0.3820	-4.05801	-0.330654	0	
0.3827	1.73915	4.24559	0	
0.3833	4.79584	3.01556	0	
0.3840	3.26749	1.49455	0	
0.3847	3.55735	2.71136	0	
0.3853	4.47963	2.40716	0	
0.3860	5.4019	-0.0264523	0	
0.3867	12.7274	1.49455	0	
0.3873	18.8408	4.85399	0	
0.3880	14.5456	4.54979	0	
0.3887	9.98693	1.79876	0	
0.3893	7.53631	1.79876	0	
0.3900	1.73915	0.886151	0	
0.3907	-1.9236	-0.648081	0	
0.3913	0.816873	0.886151	0	
0.3920	3.55735	3.63719	0	
0.3927	4.18977	6.375	0	
0.3933	5.08569	6.6792	0	
0.3940	5.71811	5.15819	0	
0.3947	4.47963	5.7666	0	
0.3953	2.34522	6.375	0	
0.3960	1.73915	2.40716	0	
0.3967	0.527015	0.58195	0	
0.3973	-1.9236	3.63719	0	
0.3980	-2.23981	1.79876	0	
0.3987	-4.05801	-2.77749	0	
0.3993	-10.1714	-2.77749	0	
0.4000	-12.5957	-2.77749	0	
0.4007	-6.50863	-6.13693	0	
0.4013	-2.52967	-7.96214	0	
0.4020	-7.40456	-7.65794	0	
0.4027	-11.9896	-7.35373	0	
0.4033	-11.0673	-5.83273	0	
0.4040	-8.64304	-4.92012	0	
0.4047	-6.50863	-4.6027	0	
0.4053	-2.84588	-1.86489	0	
0.4060	-0.105403	0.886151	0	
0.4067	0.816873	0.277749	0	
0.4073	0.816873	-0.0264523	0	
0.4080	1.42294	0.277749	0	
0.4087	1.42294	1.19035	0	
0.4093	1.13308	3.63719	0	
0.4100	2.95128	4.54979	0	
0.4107	4.18977	3.01556	0	
0.4113	2.05536	1.79876	0	
0.4120	-0.105403	0.277749	0	
0.4127	-1.6074	0.58195	0	
0.4133	-2.84588	1.79876	0	
0.4140	-2.23981	2.10296	0	
0.4147	-0.71147	3.63719	0	
0.4153	1.13308	7.5918	0	
0.4160	2.34522	6.9834	0	
0.4167	0.210806	4.24559	0	
0.4173	-2.23981	5.7666	0	
0.4180	0.527015	6.375	0	
0.4187	5.4019	3.31976	0	
0.4193	8.14238	3.63719	0	
0.4200	9.98693	5.7666	0	
0.4207	9.06466	3.63719	0	
0.4213	4.47963	-0.952282	0	
0.4220	1.73915	-3.69009	0	
0.4227	2.34522	-3.99429	0	
0.4233	-0.395261	-3.69009	0	
0.4240	-5.27015	-3.99429	0	
0.4247	-4.98029	-3.08169	0	
0.4253	-2.23981	-0.0264523	0	
0.4260	-0.105403	1.19035	0	
0.4267	7.2201	-0.0264523	0	
0.4273	17.6023	1.79876	0	
0.4280	19.1306	5.4624	0	
0.4287	15.4679	5.15819	0	
0.4293	17.3124	4.24559	0	
0.4300	16.3902	4.54979	0	
0.4307	6.61404	3.63719	0	
0.4313	-3.13574	1.79876	0	
0.4320	-9.24911	-0.0264523	0	
0.4327	-15.6523	-3.38589	0	
0.4333	-20.2374	-6.74533	0	
0.4340	-19.0252	-8.26634	0	
0.4347	-16.8645	-10.1048	0	
0.4353	-14.7301	-11.0174	0	
0.4360	-11.9896	-9.49637	0	
0.4367	-11.0673	-8.26634	0	
0.4373	-10.7775	-5.22433	0	
0.4380	-8.03698	-1.86489	0	
0.4387	-3.45195	-5.52853	0	
0.4393	-1.9236	-8.57054	0	
0.4400	-5.90257	-4.6027	0	
0.4407	-8.9329	-2.47329	0	
0.4413	-7.1147	-6.13693	0	
0.4420	-4.66408	-4.92012	0	
0.4427	-2.23981	-0.648081	0	
0.4433	0.816873	-0.952282	0	
0.4440	-0.105403	-0.952282	0	
0.4447	-2.84588	0.886151	0	
0.4453	0.816873	0.277749	0	
0.4460	5.71811	0.277749	0	
0.4467	6.32418	3.01556	0	
0.4473	7.2201	3.31976	0	
0.4480	8.14238	-0.0264523	0	
0.4487	6.00797	-0.648081	0	
0.4493	5.4019	0.886151	0	
0.4500	6.61404	-0.0264523	0	
0.4507	5.71811	-1.25648	0	
0.4513	6.61404	-0.0264523	0	
0.4520	7.2201	1.49455	0	
0.4527	1.73915	-0.0264523	0	
0.4533	-2.23981	-0.952282	0	
0.4540	0.210806	0.58195	0	
0.4547	2.66143	1.79876	0	
0.4553	2.66143	1.19035	0	
0.4560	1.73915	-0.0264523	0	
0.4567	-0.71147	0.277749	0	
0.4573	-4.05801	0.886151	0	
0.4580	-5.90257	-0.952282	0	
0.4587	-6.19242	-2.16909	0	
0.4593	-5.58636	-1.86489	0	
0.4600	-5.27015	-2.77749	0	
0.4607	-7.40456	-4.2985	0	
0.4613	-11.9896	-4.2985	0	
0.4620	-10.7775	-5.52853	0	
0.4627	-3.74181	-5.83273	0	
0.4633	0.816873	-2.77749	0	
0.4640	-1.00133	-0.0264523	0	
0.4647	-3.45195	-0.0264523	0	
0.4653	-3.45195	-0.330654	0	
0.4660	-1.00133	-0.648081	0	
0.4667	4.47963	-1.86489	0	
0.4673	10.2768	-1.25648	0	
0.4680	12.7274	1.49455	0	
0.4687	9.06466	3.94139	0	
0.4693	2.34522	3.63719	0	
0.4700	0.527015	0.886151	0	
0.4707	5.08569	1.19035	0	
0.4713	3.55735	3.63719	0	
0.4720	-3.74181	3.63719	0	
0.4727	-4.66408	1.79876	0	
0.4733	-5.27015	0.58195	0	
0.4740	-14.124	-1.86489	0	
0.4747	-19.3151	-3.08169	0	
0.4753	-14.7301	-1.86489	0	
0.4760	-12.3058	-1.86489	0	
0.4767	-11.0673	-3.38589	0	
0.4773	-1.6074	-1.86489	0	
0.4780	9.06466	-1.56068	0	
0.4787	10.8829	-3.38589	0	
0.4793	8.74845	-2.16909	0	
0.4800	5.4019	-0.952282	0	
0.4807	0.816873	-1.25648	0	
0.4813	-0.105403	-0.330654	0	
0.4820	6.32418	-0.952282	0	
0.4827	12.4112	-2.47329	0	
0.4833	12.7274	-0.648081	0	
0.4840	10.593	0.886151	0	
0.4847	11.1991	1.79876	0	
0.4853	14.5456	5.15819	0	
0.4860	15.178	6.375	0	
0.4867	11.1991	4.24559	0	
0.4873	9.98693	6.0708	0	
0.4880	14.8618	6.375	0	
0.4887	14.5456	2.10296	0	
0.4893	6.32418	0.886151	0	
0.4900	3.55735	1.79876	0	
0.4907	5.4019	0.886151	0	
0.4913	2.34522	1.79876	0	
0.4920	-1.00133	4.54979	0	
0.4927	0.816873	1.79876	0	
0.4933	0.527015	-0.952282	0	
0.4940	-2.84588	-0.0264523	0	
0.4947	-5.58636	-0.0264523	0	
0.4953	-7.72077	-0.0264523	0	
0.4960	-8.9329	0.886151	0	
0.4967	-9.24911	1.19035	0	
0.4973	-8.32684	1.79876	0	
0.4980	-6.50863	4.24559	0	
0.4987	-8.32684	4.85399	0	
0.4993	-14.124	4.54979	0	
0.5000	-15.0463	3.63719	0	
0.5007	-11.6997	0.277749	0	
0.5013	-9.56532	-3.38589	0	
0.5020	-7.1147	-1.86489	0	
0.5027	-3.13574	-0.0264523	0	
0.5033	-1.9236	-1.56068	0	
0.5040	-6.50863	-0.330654	0	
0.5047	-17.1807	-0.0264523	0	
0.5053	-23.5839	-3.69009	0	
0.5060	-21.4495	-3.69009	0	
0.5067	-22.3718	-2.16909	0	
0.5073	-27.8527	-7.96214	0	
0.5080	-24.5062	-12.2342	0	
0.5087	-14.4402	-9.80057	0	
0.5093	-8.32684	-7.35373	0	
0.5100	-4.37422	-5.52853	0	
0.5107	-0.71147	-2.47329	0	
0.5113	1.13308	-1.25648	0	
0.5120	2.66143	-0.0264523	0	
0.5127	4.18977	3.01556	0	
0.5133	8.74845	4.24559	0	
0.5140	18.2084	3.31976	0	
0.5147	19.4468	3.31976	0	
0.5153	10.2768	1.19035	0	
0.5160	5.4019	-1.86489	0	
0.5167	2.95128	-0.0264523	0	
0.5173	-2.52967	2.71136	0	
0.5180	-1.9236	-0.0264523	0	
0.5187	4.47963	-2.47329	0	
0.5193	4.47963	-0.952282	0	
0.5200	1.73915	-1.25648	0	
0.5207	2.66143	-3.99429	0	
0.5213	4.18977	-1.86489	0	
0.5220	5.08569	2.40716	0	
0.5227	7.53631	2.10296	0	
0.5233	9.98693	2.71136	0	
0.5240	12.7274	6.0708	0	
0.5247	14.2558	6.6792	0	
0.5253	10.593	4.85399	0	
0.5260	4.18977	4.54979	0	
0.5267	0.210806	3.63719	0	
0.5273	-1.6074	0.886151	0	
0.5280	-6.50863	-2.16909	0	
0.5287	-11.0673	-6.44113	0	
0.5293	-8.32684	-9.19217	0	
0.5300	-1.9236	-4.92012	0	
0.5307	1.42294	-0.648081	0	
0.5313	-0.105403	-2.47329	0	
0.5320	-4.66408	-2.77749	0	
0.5327	-7.40456	-0.0264523	0	
0.5333	-3.74181	0.886151	0	
0.5340	-0.105403	2.71136	0	
0.5347	-2.84588	2.71136	0	
0.5353	-5.90257	-1.86489	0	
0.5360	-6.50863	-3.69009	0	
0.5367	-10.7775	-0.952282	0	
0.5373	-17.7868	-2.77749	0	
0.5380	-20.2374	-5.52853	0	
0.5387	-19.3151	-3.38589	0	
0.5393	-21.1596	-3.69009	0	
0.5400	-23.5839	-5.52853	0	
0.5407	-22.9778	-4.6027	0	
0.5413	-22.9778	-3.69009	0	
0.5420	-22.0556	-3.08169	0	
0.5427	-15.6523	-1.86489	0	
0.5433	-10.7775	-2.16909	0	
0.5440	-8.32684	-2.77749	0	
0.5447	-0.71147	-1.86489	0	
0.5453	6.93025	0.886151	0	
0.5460	4.79584	3.63719	0	
0.5467	1.73915	3.31976	0	
0.5473	4.79584	2.10296	0	
0.5480	10.2768	5.15819	0	
0.5487	17.3124	4.54979	0	
0.5493	22.7934	-0.952282	0	
0.5500	20.659	0.886151	0	
0.5507	12.7274	8.21343	0	
0.5513	7.2201	6.6792	0	
0.5520	3.55735	0.58195	0	
0.5527	3.87356	0.886151	0	
0.5533	6.93025	4.54979	0	
0.5540	7.85252	5.4624	0	
0.5547	10.593	3.63719	0	
0.5553	18.2084	-0.0264523	0	
0.5560	17.3124	-0.330654	0	
0.5567	8.14238	0.886151	0	
0.5573	1.42294	-2.16909	0	
0.5580	-4.37422	-7.96214	0	
0.5587	-10.4612	-9.19217	0	
0.5593	-9.56532	-7.65794	0	
0.5600	-5.90257	-7.65794	0	
0.5607	-6.79849	-6.44113	0	
0.5613	-5.27015	-3.38589	0	
0.5620	0.816873	-2.47329	0	
0.5627	4.47963	-1.86489	0	
0.5633	3.87356	0.277749	0	
0.5640	3.26749	-0.0264523	0	
0.5647	3.55735	-1.86489	0	
0.5653	3.55735	-0.330654	0	
0.5660	2.66143	1.79876	0	
0.5667	3.26749	1.19035	0	
0.5673	4.47963	1.79876	0	
0.5680	2.66143	0.886151	0	
0.5687	2.05536	-1.86489	0	
0.5693	6.00797	1.79876	0	
0.5700	6.93025	6.9834	0	
0.5707	3.55735	4.54979	0	
0.5713	4.47963	2.71136	0	
0.5720	7.85252	6.0708	0	
0.5727	7.53631	7.90923	0	
0.5733	7.53631	8.82184	0	
0.5740	7.2201	8.21343	0	
0.5747	2.66143	1.19035	0	
0.5753	-1.00133	-4.92012	0	
0.5760	-1.31754	-2.16909	0	
0.5767	-6.19242	-0.952282	0	
0.5773	-14.7301	-6.13693	0	
0.5780	-19.3151	-7.04953	0	
0.5787	-21.7657	-1.86489	0	
0.5793	-25.7183	0.58195	0	
0.5800	-23.9001	-0.952282	0	
0.5807	-15.6523	-1.56068	0	
0.5813	-9.24911	-1.86489	0	
0.5820	-6.50863	-3.38589	0	
0.5827	-4.37422	-2.77749	0	
0.5833	-4.05801	-0.330654	0	
0.5840	-2.84588	1.49455	0	
0.5847	3.55735	3.63719	0	
0.5853	9.06466	7.2876	0	
0.5860	9.06466	6.0708	0	
0.5867	8.45859	1.49455	0	
0.5873	8.74845	-0.330654	0	
0.5880	7.53631	-1.86489	0	
0.5887	6.32418	-5.52853	0	
0.5893	2.05536	-7.96214	0	
0.5900	-6.50863	-9.19217	0	
0.5907	-5.58636	-8.57054	0	
0.5913	9.06466	-4.6027	0	
0.5920	22.7934	-2.47329	0	
0.5927	28.3007	-3.38589	0	
0.5933	32.5695	-0.330654	0	
0.5940	34.9938	3.01556	0	
0.5947	31.9635	1.49455	0	
0.5953	26.4561	1.49455	0	
0.5960	19.1306	4.24559	0	
0.5967	12.4112	2.71136	0	
0.5973	10.8829	-0.648081	0	
0.5980	11.5153	-0.648081	0	
0.5987	9.98693	2.71136	0	
0.5993	9.06466	7.5918	0	
0.6000	7.2201	8.21343	0	
0.6007	3.26749	1.79876	0	
0.6013	1.73915	-1.86489	0	
0.6020	1.73915	-1.25648	0	
0.6027	-0.395261	-3.38589	0	
0.6033	-1.9236	-5.22433	0	
0.6040	1.42294	-0.330654	0	
0.6047	4.47963	2.40716	0	
0.6053	0.816873	-0.952282	0	
0.6060	-4.98029	-2.16909	0	
0.6067	-6.50863	-0.0264523	0	
0.6073	-8.32684	-2.47329	0	
0.6080	-12.3058	-7.65794	0	
0.6087	-11.6997	-8.26634	0	
0.6093	-9.85518	-6.44113	0	
0.6100	-12.9119	-5.22433	0	
0.6107	-14.7301	-2.77749	0	
0.6113	-11.9896	-0.0264523	0	
0.6120	-10.1714	1.49455	0	
0.6127	-7.40456	1.79876	0	
0.6133	-1.00133	1.49455	0	
0.6140	2.34522	-0.330654	0	
0.6147	2.05536	-1.25648	0	
0.6153	0.816873	-0.952282	0	
0.6160	-2.84588	-1.86489	0	
0.6167	-7.40456	-1.56068	0	
0.6173	-7.40456	-1.25648	0	
0.6180	-4.98029	-3.69009	0	
0.6187	-1.00133	-4.92012	0	
0.6193	4.79584	-1.56068	0	
0.6200	8.45859	0.277749	0	
0.6207	8.14238	-1.86489	0	
0.6213	6.32418	-3.08169	0	
0.6220	5.08569	-1.56068	0	
0.6227	6.61404	-0.648081	0	
0.6233	10.8829	-0.330654	0	
0.6240	11.5153	0.886151	0	
0.6247	8.14238	1.49455	0	
0.6253	6.93025	-0.0264523	0	
0.6260	7.85252	-1.56068	0	
0.6267	5.71811	-1.25648	0	
0.6273	2.66143	-1.86489	0	
0.6280	0.816873	-3.08169	0	
0.6287	-3.74181	-2.16909	0	
0.6293	-7.40456	-1.25648	0	
0.6300	-7.40456	-2.47329	0	
0.6307	-11.0673	-3.38589	0	
0.6313	-16.5746	-3.69009	0	
0.6320	-15.6523	-3.99429	0	
0.6327	-13.8341	-2.16909	0	
0.6333	-18.3928	-0.0264523	0	
0.6340	-20.2374	-0.952282	0	
0.6347	-12.5957	-0.952282	0	
0.6353	-2.84588	2.10296	0	
0.6360	1.73915	3.01556	0	
0.6367	2.66143	1.19035	0	
0.6373	3.26749	0.886151	0	
0.6380	6.00797	2.10296	0	
0.6387	9.67072	2.71136	0	
0.6393	10.8829	3.63719	0	
0.6400	9.98693	4.54979	0	
0.6407	7.53631	3.63719	0	
0.6413	2.34522	3.94139	0	
0.6420	1.73915	5.15819	0	
0.6427	7.2201	5.4624	0	
0.6433	6.00797	5.4624	0	
0.6440	-1.00133	3.94139	0	
0.6447	1.73915	-0.0264523	0	
0.6453	6.93025	-3.69009	0	
0.6460	4.47963	-4.6027	0	
0.6467	3.55735	-4.92012	0	
0.6473	8.74845	-6.74533	0	
0.6480	9.98693	-9.19217	0	
0.6487	5.08569	-11.93	0	
0.6493	-4.37422	-13.16	0	
0.6500	-17.1807	-13.16	0	
0.6507	-25.7183	-13.4642	0	
0.6513	-24.19	-11.0174	0	
0.6520	-18.3928	-7.35373	0	
0.6527	-15.0463	-7.04953	0	
0.6533	-11.6997	-8.26634	0	
0.6540	-5.58636	-6.13693	0	
0.6547	-1.00133	-3.69009	0	
0.6553	-0.71147	-1.86489	0	
0.6560	1.73915	0.277749	0	
0.6567	8.14238	-0.0264523	0	
0.6573	10.8829	-1.25648	0	
0.6580	8.45859	-2.77749	0	
0.6587	2.34522	-3.99429	0	
0.6593	-6.50863	-2.47329	0	
0.6600	-10.1714	2.10296	0	
0.6607	-8.32684	3.63719	0	
0.6613	-8.32684	3.63719	0	
0.6620	-10.4612	4.85399	0	
0.6627	-11.9896	4.54979	0	
0.6633	-11.3835	4.54979	0	
0.6640	-6.19242	8.21343	0	
0.6647	-1.9236	7.2876	0	
0.6653	-4.66408	2.71136	0	
0.6660	-2.23981	2.10296	0	
0.6667	11.5153	3.94139	0	
0.6673	20.0529	3.63719	0	
0.6680	18.2084	3.63719	0	
0.6687	20.0529	4.24559	0	
0.6693	24.6379	3.31976	0	
0.6700	21.8711	2.40716	0	
0.6707	12.4112	1.49455	0	
0.6713	3.87356	1.49455	0	
0.6720	0.816873	1.79876	0	
0.6727	-1.9236	0.886151	0	
0.6733	-8.03698	-1.56068	0	
0.6740	-11.0673	-2.47329	0	
0.6747	-9.24911	-2.16909	0	
0.6753	-11.0673	-2.47329	0	
0.6760	-14.124	-3.69009	0	
0.6767	-10.1714	-6.13693	0	
0.6773	-5.27015	-7.04953	0	
0.6780	-8.32684	-6.13693	0	
0.6787	-10.4612	-5.22433	0	
0.6793	-3.74181	-2.77749	0	
0.6800	4.18977	-0.0264523	0	
0.6807	5.4019	1.19035	0	
0.6813	3.26749	2.71136	0	
0.6820	3.26749	4.54979	0	
0.6827	2.05536	4.85399	0	
0.6833	-1.00133	3.63719	0	
0.6840	-2.23981	2.71136	0	
0.6847	-0.105403	1.79876	0	
0.6853	-1.9236	2.10296	0	
0.6860	-7.72077	1.79876	0	
0.6867	-10.4612	-0.330654	0	
0.6873	-6.79849	-2.16909	0	
0.6880	1.13308	-0.952282	0	
0.6887	10.8829	1.49455	0	
0.6893	20.9752	4.54979	0	
0.6900	23.7157	8.21343	0	
0.6907	18.5246	9.12604	0	
0.6913	12.4112	8.51763	0	
0.6920	9.67072	8.21343	0	
0.6927	8.14238	7.2876	0	
0.6933	5.4019	5.7666	0	
0.6940	1.13308	4.54979	0	
0.6947	-6.79849	3.31976	0	
0.6953	-16.2584	1.79876	0	
0.6960	-20.2374	-1.25648	0	
0.6967	-19.3151	-6.13693	0	
0.6973	-19.0252	-9.49637	0	
0.6980	-19.3151	-9.19217	0	
0.6987	-11.9896	-6.44113	0	
0.6993	-1.31754	-4.6027	0	
0.7000	-1.6074	-3.99429	0	
0.7007	-7.72077	-5.22433	0	
0.7013	-6.50863	-6.13693	0	
0.7020	-2.84588	-3.08169	0	
0.7027	-3.13574	1.49455	0	
0.7033	-0.395261	1.79876	0	
0.7040	3.55735	0.58195	0	
0.7047	3.55735	0.886151	0	
0.7053	4.47963	0.58195	0	
0.7060	7.2201	-0.0264523	0	
0.7067	9.38086	1.79876	0	
0.7073	11.8051	5.4624	0	
0.7080	10.8829	6.6792	0	
0.7087	6.61404	5.7666	0	
0.7093	6.61404	5.4624	0	
0.7100	10.2768	5.4624	0	
0.7107	13.6497	5.4624	0	
0.7113	17.9185	3.63719	0	
0.7120	18.8408	3.01556	0	
0.7127	10.2768	2.71136	0	
0.7133	2.05536	1.49455	0	
0.7140	-0.105403	-0.952282	0	
0.7147	-1.31754	-2.77749	0	
0.7153	-2.84588	-3.69009	0	
0.7160	-4.37422	-3.99429	0	
0.7167	-9.24911	-2.77749	0	
0.7173	-15.3625	-0.330654	0	
0.7180	-15.9686	2.40716	0	
0.7187	-12.9119	3.31976	0	
0.7193	-11.6997	0.886151	0	
0.7200	-11.0673	-2.77749	0	
0.7207	-9.24911	-2.77749	0	
0.7213	-9.56532	-0.952282	0	
0.7220	-17.4969	-1.56068	0	
0.7227	-22.9778	-3.69009	0	
0.7233	-12.9119	-5.83273	0	
0.7240	4.47963	-5.22433	0	
0.7247	10.8829	-1.86489	0	
0.7253	7.2201	-0.648081	0	
0.7260	1.73915	-1.86489	0	
0.7267	-4.37422	-3.08169	0	
0.7273	-9.24911	-3.38589	0	
0.7280	-9.56532	-4.6027	0	
0.7287	-9.56532	-4.2985	0	
0.7293	-10.1714	-2.77749	0	
0.7300	-7.40456	-2.47329	0	
0.7307	-4.66408	-1.25648	0	
0.7313	-4.05801	0.58195	0	
0.7320	-1.00133	1.79876	0	
0.7327	4.79584	3.01556	0	
0.7333	6.61404	3.31976	0	
0.7340	2.66143	0.886151	0	
0.7347	-1.31754	-0.330654	0	
0.7353	-2.23981	-0.0264523	0	
0.7360	-1.9236	-1.86489	0	
0.7367	-3.74181	-3.99429	0	
0.7373	-5.58636	-3.38589	0	
0.7380	-3.13574	-1.25648	0	
0.7387	1.73915	-0.0264523	0	
0.7393	1.73915	-0.0264523	0	
0.7400	-2.84588	-0.0264523	0	
0.7407	-3.74181	0.886151	0	
0.7413	-0.395261	2.10296	0	
0.7420	2.95128	2.10296	0	
0.7427	4.18977	3.31976	0	
0.7433	4.79584	6.6792	0	
0.7440	7.2201	8.82184	0	
0.7447	10.593	7.5918	0	
0.7453	12.7274	6.6792	0	
0.7460	12.1213	6.9834	0	
0.7467	12.4112	5.4624	0	
0.7473	15.178	3.31976	0	
0.7480	16.68	3.31976	0	
0.7487	11.8051	3.63719	0	
0.7493	0.816873	1.79876	0	
0.7500	-11.9896	-0.330654	0	
0.7507	-22.688	-2.77749	0	
0.7513	-29.9871	-7.04953	0	
0.7520	-33.9661	-11.0174	0	
0.7527	-33.0438	-11.6258	0	
0.7533	-29.3811	-11.0174	0	
0.7540	-29.0912	-9.19217	0	
0.7547	-28.4852	-5.83273	0	
0.7553	-22.9778	-3.08169	0	
0.7560	-16.5746	-4.2985	0	
0.7567	-11.3835	-5.52853	0	
0.7573	-1.00133	-2.77749	0	
0.7580	13.0173	-0.0264523	0	
0.7587	17.3124	-0.330654	0	
0.7593	13.6497	-0.952282	0	
0.7600	16.3902	0.886151	0	
0.7607	22.7934	0.886151	0	
0.7613	22.1873	0.58195	0	
0.7620	17.9185	2.10296	0	
0.7627	13.9395	1.49455	0	
0.7633	8.74845	-2.77749	0	
0.7640	6.32418	-1.56068	0	
0.7647	11.1991	5.15819	0	
0.7653	14.8618	6.375	0	
0.7660	11.8051	2.71136	0	
0.7667	7.85252	2.40716	0	
0.7673	2.66143	4.24559	0	
0.7680	-1.9236	3.63719	0	
0.7687	-0.105403	1.79876	0	
0.7693	6.32418	2.71136	0	
0.7700	8.14238	3.63719	0	
0.7707	4.47963	3.63719	0	
0.7713	2.34522	2.71136	0	
0.7720	1.42294	1.49455	0	
0.7727	-4.37422	-2.47329	0	
0.7733	-11.0673	-5.52853	0	
0.7740	-9.24911	-3.69009	0	
0.7747	-1.9236	-1.25648	0	
0.7753	-3.74181	-0.952282	0	
0.7760	-11.9896	-2.16909	0	
0.7767	-12.3058	-3.69009	0	
0.7773	-2.52967	-1.25648	0	
0.7780	6.00797	3.31976	0	
0.7787	6.32418	4.24559	0	
0.7793	1.13308	1.79876	0	
0.7800	-3.74181	0.886151	0	
0.7807	-8.32684	-1.86489	0	
0.7813	-9.56532	-3.69009	0	
0.7820	-4.98029	-0.952282	0	
0.7827	0.527015	1.19035	0	
0.7833	0.527015	-1.56068	0	
0.7840	-0.105403	-1.56068	0	
0.7847	3.55735	0.58195	0	
0.7853	4.47963	-0.0264523	0	
0.7860	-1.9236	-0.648081	0	
0.7867	-4.05801	-0.330654	0	
0.7873	5.4019	-2.47329	0	
0.7880	16.074	-2.77749	0	
0.7887	19.7367	-1.25648	0	
0.7893	20.0529	-1.86489	0	
0.7900	18.5246	-2.77749	0	
0.7907	13.6497	-1.86489	0	
0.7913	10.593	-0.0264523	0	
0.7920	9.98693	-0.0264523	0	
0.7927	5.4019	-2.77749	0	
0.7933	-1.9236	-5.22433	0	
0.7940	-7.1147	-2.77749	0	
0.7947	-12.5957	-2.16909	0	
0.7953	-18.3928	-6.44113	0	
0.7960	-19.6313	-6.13693	0	
0.7967	-18.709	-2.16909	0	
0.7973	-18.3928	-1.56068	0	
0.7980	-17.4969	-1.56068	0	
0.7987	-20.8434	-1.86489	0	
0.7993	-26.0345	-4.6027	0	
0.8000	-22.3718	-4.92012	0	
0.8007	-13.2281	-2.16909	0	
0.8013	-8.64304	-1.25648	0	
0.8020	-6.50863	-2.47329	0	
0.8027	-1.6074	-3.08169	0	
0.8033	1.73915	-3.38589	0	
0.8040	3.87356	-1.56068	0	
0.8047	5.4019	0.58195	0	
0.8053	4.18977	0.886151	0	
0.8060	5.08569	2.71136	0	
0.8067	13.6497	5.4624	0	
0.8073	22.7934	5.7666	0	
0.8080	21.2651	5.15819	0	
0.8087	12.7274	4.24559	0	
0.8093	9.06466	0.58195	0	
0.8100	10.8829	0.277749	0	
0.8107	11.8051	5.7666	0	
0.8113	10.8829	8.21343	0	
0.8120	10.2768	6.375	0	
0.8127	7.53631	7.2876	0	
0.8133	4.79584	7.5918	0	
0.8140	6.32418	7.2876	0	
0.8147	5.71811	8.21343	0	
0.8153	2.66143	6.9834	0	
0.8160	4.18977	4.24559	0	
0.8167	2.66143	0.886151	0	
0.8173	-7.40456	-4.2985	0	
0.8180	-11.6997	-7.04953	0	
0.8187	-11.0673	-5.52853	0	
0.8193	-20.5272	-6.44113	0	
0.8200	-28.4852	-9.19217	0	
0.8207	-24.8224	-8.88797	0	
0.8213	-22.0556	-8.88797	0	
0.8220	-22.0556	-9.19217	0	
0.8227	-16.2584	-6.44113	0	
0.8233	-12.9119	-4.6027	0	
0.8240	-14.7301	-3.38589	0	
0.8247	-9.56532	-0.330654	0	
0.8253	-0.395261	0.277749	0	
0.8260	1.13308	-3.69009	0	
0.8267	-1.6074	-5.52853	0	
0.8273	-4.37422	-3.38589	0	
0.8280	-4.37422	-0.952282	0	
0.8287	0.527015	1.19035	0	
0.8293	3.55735	3.63719	0	
0.8300	-0.105403	4.24559	0	
0.8307	-4.98029	2.71136	0	
0.8313	-5.58636	0.886151	0	
0.8320	-5.58636	-0.0264523	0	
0.8327	-6.19242	-2.16909	0	
0.8333	-5.58636	-3.69009	0	
0.8340	0.210806	-1.25648	0	
0.8347	7.2201	0.886151	0	
0.8353	4.79584	0.277749	0	
0.8360	-3.74181	-2.47329	0	
0.8367	-3.74181	-3.99429	0	
0.8373	2.66143	-1.86489	0	
0.8380	4.47963	1.49455	0	
0.8387	4.79584	-0.0264523	0	
0.8393	9.98693	-2.16909	0	
0.8400	14.2558	-0.0264523	0	
0.8407	14.8618	2.40716	0	
0.8413	14.2558	1.79876	0	
0.8420	9.06466	0.886151	0	
0.8427	1.73915	-0.330654	0	
0.8433	-0.105403	-1.25648	0	
0.8440	3.55735	0.886151	0	
0.8447	9.06466	1.79876	0	
0.8453	14.8618	-0.330654	0	
0.8460	17.3124	-0.0264523	0	
0.8467	16.3902	2.10296	0	
0.8473	16.074	1.79876	0	
0.8480	12.7274	2.40716	0	
0.8487	7.2201	4.24559	0	
0.8493	4.79584	3.63719	0	
0.8500	4.79584	4.24559	0	
0.8507	5.4019	5.4624	0	
0.8513	7.53631	5.4624	0	
0.8520	6.32418	5.7666	0	
0.8527	1.42294	6.0708	0	
0.8533	-1.31754	4.85399	0	
0.8540	-0.395261	6.6792	0	
0.8547	-0.395261	7.5918	0	
0.8553	-3.13574	3.31976	0	
0.8560	-7.1147	1.49455	0	
0.8567	-10.1714	1.79876	0	
0.8573	-14.124	-2.77749	0	
0.8580	-21.1596	-5.52853	0	
0.8587	-25.1123	-2.77749	0	
0.8593	-16.8645	-2.47329	0	
0.8600	-2.52967	-4.2985	0	
0.8607	1.13308	-3.38589	0	
0.8613	-7.40456	-2.47329	0	
0.8620	-12.3058	-2.77749	0	
0.8627	-8.64304	-4.6027	0	
0.8633	-6.50863	-5.83273	0	
0.8640	-7.40456	-4.2985	0	
0.8647	-7.72077	-2.16909	0	
0.8653	-7.72077	-3.38589	0	
0.8660	-1.9236	-3.69009	0	
0.8667	12.1213	-2.16909	0	
0.8673	18.8408	-0.330654	0	
0.8680	13.0173	0.277749	0	
0.8687	9.98693	1.49455	0	
0.8693	12.4112	4.24559	0	
0.8700	10.8829	7.5918	0	
0.8707	9.06466	8.21343	0	
0.8713	10.2768	6.375	0	
0.8720	12.1213	4.54979	0	
0.8727	13.9395	4.85399	0	
0.8733	15.178	6.375	0	
0.8740	13.9395	5.7666	0	
0.8747	9.98693	3.63719	0	
0.8753	2.95128	3.31976	0	
0.8760	-4.98029	2.40716	0	
0.8767	-10.1714	-3.08169	0	
0.8773	-13.8341	-8.26634	0	
0.8780	-16.8645	-8.26634	0	
0.8787	-14.124	-6.44113	0	
0.8793	-7.72077	-6.44113	0	
0.8800	-5.58636	-6.44113	0	
0.8807	-6.50863	-3.99429	0	
0.8813	-8.64304	-1.56068	0	
0.8820	-12.9119	0.58195	0	
0.8827	-15.6523	2.10296	0	
0.8833	-15.6523	1.79876	0	
0.8840	-17.1807	0.277749	0	
0.8847	-17.4969	-0.0264523	0	
0.8853	-14.7301	-0.0264523	0	
0.8860	-12.9119	-1.56068	0	
0.8867	-10.1714	-0.952282	0	
0.8873	-3.74181	1.79876	0	
0.8880	-2.23981	1.79876	0	
0.8887	-4.66408	-0.0264523	0	
0.8893	1.73915	0.886151	0	
0.8900	13.0173	2.40716	0	
0.8907	16.9962	1.49455	0	
0.8913	14.8618	0.886151	0	
0.8920	15.178	0.886151	0	
0.8927	15.7841	-0.330654	0	
0.8933	14.5456	-0.952282	0	
0.8940	13.9395	1.49455	0	
0.8947	15.4679	3.63719	0	
0.8953	16.9962	2.40716	0	
0.8960	13.9395	0.886151	0	
0.8967	7.2201	1.49455	0	
0.8973	2.05536	2.10296	0	
0.8980	1.13308	1.49455	0	
0.8987	1.13308	1.79876	0	
0.8993	3.87356	3.31976	0	
0.9000	9.06466	2.71136	0	
0.9007	9.06466	0.58195	0	
0.9013	1.13308	-1.86489	0	
0.9020	-7.72077	-4.6027	0	
0.9027	-14.124	-8.26634	0	
0.9033	-17.4969	-7.96214	0	
0.9040	-17.4969	-3.69009	0	
0.9047	-16.5746	-0.952282	0	
0.9053	-17.4969	0.886151	0	
0.9060	-14.4402	2.10296	0	
0.9067	-6.79849	-0.0264523	0	
0.9073	-1.9236	-3.69009	0	
0.9080	-5.27015	-3.69009	0	
0.9087	-18.103	-4.92012	0	
0.9093	-34.8884	-7.65794	0	
0.9100	-46.7726	-7.35373	0	
0.9107	-51.3576	-4.6027	0	
0.9113	-51.0677	-3.69009	0	
0.9120	-47.405	-4.2985	0	
0.9127	-45.8766	-4.2985	0	
0.9133	-46.7726	-3.69009	0	
0.9140	-40.6855	-2.77749	0	
0.9147	-26.0345	-2.77749	0	
0.9153	-11.0673	-3.38589	0	
0.9160	7.2201	-1.86489	0	
0.9167	33.1756	2.40716	0	
0.9173	64.006	3.94139	0	
0.9180	90.5412	4.54979	0	
0.9187	102.742	6.375	0	
0.9193	97.2606	7.2876	0	
0.9200	81.6873	4.54979	0	
0.9207	64.9019	3.63719	0	
0.9213	48.4327	5.4624	0	
0.9220	34.0979	6.375	0	
0.9227	23.1096	5.4624	0	
0.9233	12.7274	3.94139	0	
0.9240	3.55735	0.886151	0	
0.9247	1.42294	-0.952282	0	
0.9253	8.45859	-1.56068	0	
0.9260	16.074	-1.86489	0	
0.9267	19.7367	-0.648081	0	
0.9273	23.7157	1.79876	0	
0.9280	26.1399	1.49455	0	
0.9287	20.0529	-0.952282	0	
0.9293	9.06466	-2.16909	0	
0.9300	2.34522	-4.2985	0	
0.9307	-1.6074	-4.92012	0	
0.9313	-7.1147	-3.38589	0	
0.9320	-10.1714	-3.08169	0	
0.9327	-9.85518	-2.77749	0	
0.9333	-10.1714	-1.56068	0	
0.9340	-11.0673	-1.56068	0	
0.9347	-11.0673	-0.0264523	0	
0.9353	-9.85518	3.01556	0	
0.9360	-8.9329	-0.330654	0	
0.9367	-12.9119	-7.04953	0	
0.9373	-19.0252	-5.83273	0	
0.9380	-19.0252	-2.47329	0	
0.9387	-17.4969	-4.6027	0	
0.9393	-24.8224	-5.52853	0	
0.9400	-32.754	-2.47329	0	
0.9407	-30.3034	-1.25648	0	
0.9413	-24.8224	-0.0264523	0	
0.9420	-22.688	3.01556	0	
0.9427	-18.3928	3.63719	0	
0.9433	-11.6997	1.79876	0	
0.9440	-10.1714	1.49455	0	
0.9447	-10.4612	5.15819	0	
0.9453	-4.66408	7.2876	0	
0.9460	6.32418	4.54979	0	
0.9467	17.3124	3.01556	0	
0.9473	23.7157	3.94139	0	
0.9480	24.6379	0.886151	0	
0.9487	19.1306	-2.77749	0	
0.9493	11.5153	-3.99429	0	
0.9500	7.53631	-6.13693	0	
0.9507	6.32418	-7.96214	0	
0.9513	3.55735	-6.13693	0	
0.9520	-0.105403	-5.52853	0	
0.9527	-2.23981	-7.35373	0	
0.9533	-5.27015	-7.96214	0	
0.9540	-7.40456	-6.44113	0	
0.9547	-4.98029	-4.6027	0	
0.9553	-4.37422	-3.38589	0	
0.9560	-9.24911	-3.69009	0	
0.9567	-11.9896	-3.08169	0	
0.9573	-9.56532	-0.648081	0	
0.9580	-10.1714	1.49455	0	
0.9587	-15.3625	1.79876	0	
0.9593	-15.0463	2.71136	0	
0.9600	-11.9896	3.63719	0	
0.9607	-16.5746	1.19035	0	
0.9613	-20.5272	-3.69009	0	
0.9620	-14.7301	-3.99429	0	
0.9627	-8.9329	-0.952282	0	
0.9633	-6.79849	0.277749	0	
0.9640	1.73915	2.40716	0	
0.9647	10.8829	7.90923	0	
0.9653	9.98693	10.647	0	
0.9660	6.32418	9.12604	0	
0.9667	6.93025	10.0386	0	
0.9673	8.45859	12.7897	0	
0.9680	8.14238	13.3981	0	
0.9687	7.85252	12.7897	0	
0.9693	6.93025	10.9512	0	
0.9700	3.55735	7.2876	0	
0.9707	-1.00133	3.31976	0	
0.9713	-2.84588	0.58195	0	
0.9720	-2.52967	-1.86489	0	
0.9727	-7.72077	-5.52853	0	
0.9733	-15.6523	-10.1048	0	
0.9740	-19.9212	-14.0726	0	
0.9747	-22.0556	-15.5936	0	
0.9753	-21.1596	-12.5384	0	
0.9760	-13.8341	-5.22433	0	
0.9767	-6.79849	-0.0264523	0	
0.9773	-3.74181	-0.952282	0	
0.9780	-4.66408	-3.38589	0	
0.9787	-14.7301	-3.99429	0	
0.9793	-25.4285	-3.69009	0	
0.9800	-23.2941	-4.92012	0	
0.9807	-17.1807	-7.35373	0	
0.9813	-17.7868	-7.35373	0	
0.9820	-19.6313	-5.52853	0	
0.9827	-19.3151	-7.35373	0	
0.9833	-16.2584	-9.19217	0	
0.9840	-8.03698	-5.52853	0	
0.9847	0.816873	-2.77749	0	
0.9853	9.98693	-2.16909	0	
0.9860	33.1756	2.10296	0	
0.9867	59.1047	6.0708	0	
0.9873	59.7108	6.375	0	
0.9880	39.2626	7.5918	0	
0.9887	22.7934	5.15819	0	
0.9893	16.074	-1.86489	0	
0.9900	12.7274	-2.16909	0	
0.9907	10.8829	0.886151	0	
0.9913	9.06466	-1.25648	0	
0.9920	7.85252	-0.952282	0	
0.9927	10.8829	4.54979	0	
0.9933	14.5456	5.4624	0	
0.9940	11.5153	1.79876	0	
0.9947	3.55735	-0.0264523	0	
0.9953	-4.66408	-2.47329	0	
0.9960	-10.7775	-4.6027	0	
0.9967	-13.5179	-2.77749	0	
0.9973	-13.2281	-0.952282	0	
0.9980	-14.124	-1.56068	0	
0.9987	-15.6523	-2.77749	0	
0.9993	-14.4402	-4.92012	0	
1.0000	-14.124	-4.6027	0	
1.0007	-13.8341	0.886151	0	
1.0013	-8.9329	2.71136	0	
1.0020	-4.05801	-2.77749	0	
1.0027	-5.58636	-3.69009	0	
1.0033	-5.58636	2.40716	0	
1.0040	1.73915	3.31976	0	
1.0047	10.593	-0.330654	0	
1.0053	15.4679	1.79876	0	
1.0060	15.4679	5.7666	0	
1.0067	13.9395	4.85399	0	
1.0073	14.8618	3.01556	0	
1.0080	15.7841	1.19035	0	
1.0087	11.8051	-2.47329	0	
1.0093	6.00797	-3.69009	0	
1.0100	4.18977	-0.330654	0	
1.0107	4.79584	1.49455	0	
1.0113	4.47963	1.79876	0	
1.0120	3.26749	2.10296	0	
1.0127	1.13308	1.79876	0	
1.0133	-1.9236	1.79876	0	
1.0140	-4.66408	4.85399	0	
1.0147	-3.74181	6.375	0	
1.0153	-2.23981	5.4624	0	
1.0160	-4.98029	6.0708	0	
1.0167	-10.4612	8.51763	0	
1.0173	-15.3625	8.82184	0	
1.0180	-17.1807	7.5918	0	
1.0187	-13.8341	6.6792	0	
1.0193	-7.72077	5.4624	0	
1.0200	-2.52967	3.63719	0	
1.0207	-0.71147	1.49455	0	
1.0213	-1.00133	0.886151	0	
1.0220	-0.71147	1.49455	0	
1.0227	0.210806	1.79876	0	
1.0233	-2.52967	2.40716	0	
1.0240	-7.72077	3.63719	0	
1.0247	-9.56532	3.63719	0	
1.0253	-8.9329	3.01556	0	
1.0260	-8.32684	1.79876	0	
1.0267	-7.40456	-0.0264523	0	
1.0273	-7.40456	-1.86489	0	
1.0280	-9.24911	-2.77749	0	
1.0287	-9.56532	-4.6027	0	
1.0293	-8.32684	-6.74533	0	
1.0300	-7.40456	-6.44113	0	
1.0307	-1.9236	-4.6027	0	
1.0313	5.4019	-3.08169	0	
1.0320	8.14238	-0.952282	0	
1.0327	11.5153	0.886151	0	
1.0333	14.5456	0.58195	0	
1.0340	11.8051	-0.0264523	0	
1.0347	13.3335	-0.0264523	0	
1.0353	19.4468	0.277749	0	
1.0360	11.8051	-0.0264523	0	
1.0367	0.210806	0.277749	0	
1.0373	0.527015	2.71136	0	
1.0380	-2.52967	3.94139	0	
1.0387	-10.4612	1.19035	0	
1.0393	-5.58636	-1.86489	0	
1.0400	3.55735	-0.952282	0	
1.0407	4.79584	1.19035	0	
1.0413	7.85252	0.886151	0	
1.0420	9.67072	-1.86489	0	
1.0427	6.32418	-2.47329	0	
1.0433	5.71811	-0.0264523	0	
1.0440	4.47963	1.49455	0	
1.0447	-1.9236	0.58195	0	
1.0453	-4.05801	-1.86489	0	
1.0460	-3.13574	-2.47329	0	
1.0467	-3.74181	-0.0264523	0	
1.0473	-0.395261	1.79876	0	
1.0480	6.32418	0.886151	0	
1.0487	9.38086	0.277749	0	
1.0493	8.14238	1.79876	0	
1.0500	2.05536	0.886151	0	
1.0507	-1.9236	-1.86489	0	
1.0513	1.42294	-3.69009	0	
1.0520	3.55735	-5.52853	0	
1.0527	-2.23981	-7.35373	0	
1.0533	-9.85518	-8.26634	0	
1.0540	-15.0463	-10.1048	0	
1.0547	-18.709	-13.16	0	
1.0553	-19.9212	-14.0726	0	
1.0560	-18.3928	-12.8426	0	
1.0567	-17.4969	-10.409	0	
1.0573	-17.1807	-7.96214	0	
1.0580	-12.9119	-6.13693	0	
1.0587	-4.98029	-5.52853	0	
1.0593	-0.105403	-3.69009	0	
1.0600	2.34522	-0.330654	0	
1.0607	6.32418	0.886151	0	
1.0613	7.53631	1.79876	0	
1.0620	3.55735	3.63719	0	
1.0627	0.527015	2.71136	0	
1.0633	-0.105403	1.79876	0	
1.0640	2.95128	3.63719	0	
1.0647	8.14238	5.7666	0	
1.0653	9.98693	6.6792	0	
1.0660	9.67072	8.21343	0	
1.0667	12.7274	7.90923	0	
1.0673	15.7841	7.90923	0	
1.0680	14.5456	8.21343	0	
1.0687	11.8051	5.4624	0	
1.0693	7.2201	2.10296	0	
1.0700	-0.71147	4.54979	0	
1.0707	-5.58636	6.0708	0	
1.0713	-6.50863	2.71136	0	
1.0720	-7.72077	1.79876	0	
1.0727	-9.56532	2.71136	0	
1.0733	-9.24911	-0.330654	0	
1.0740	-9.24911	-3.08169	0	
1.0747	-10.1714	-0.648081	0	
1.0753	-7.1147	2.71136	0	
1.0760	-2.52967	2.40716	0	
1.0767	-2.23981	0.886151	0	
1.0773	-3.74181	0.886151	0	
1.0780	-1.31754	2.71136	0	
1.0787	3.55735	3.31976	0	
1.0793	6.93025	0.886151	0	
1.0800	6.32418	-1.56068	0	
1.0807	3.87356	-1.86489	0	
1.0813	2.66143	-0.648081	0	
1.0820	1.73915	-1.56068	0	
1.0827	-2.52967	-4.2985	0	
1.0833	-8.03698	-5.52853	0	
1.0840	-8.64304	-3.99429	0	
1.0847	-1.9236	-1.56068	0	
1.0853	7.85252	-0.0264523	0	
1.0860	11.1991	-0.0264523	0	
1.0867	7.2201	-0.952282	0	
1.0873	0.527015	-0.330654	0	
1.0880	-5.27015	0.886151	0	
1.0887	-8.32684	1.79876	0	
1.0893	-7.40456	4.54979	0	
1.0900	-6.50863	6.375	0	
1.0907	-9.56532	2.71136	0	
1.0913	-11.0673	-1.86489	0	
1.0920	-8.32684	-3.99429	0	
1.0927	-6.50863	-4.6027	0	
1.0933	-8.64304	-4.6027	0	
1.0940	-11.3835	-4.6027	0	
1.0947	-8.64304	-3.99429	0	
1.0953	-1.9236	-0.330654	0	
1.0960	4.18977	1.19035	0	
1.0967	11.1991	-3.99429	0	
1.0973	16.68	-8.26634	0	
1.0980	13.6497	-6.44113	0	
1.0987	9.38086	-3.69009	0	
1.0993	11.1991	-2.77749	0	
1.1000	11.1991	-3.38589	0	
1.1007	7.85252	-3.99429	0	
1.1013	4.47963	-3.99429	0	
1.1020	-0.105403	-3.69009	0	
1.1027	-2.23981	-6.13693	0	
1.1033	1.73915	-6.44113	0	
1.1040	3.55735	-1.86489	0	
1.1047	0.816873	1.79876	0	
1.1053	-1.00133	0.886151	0	
1.1060	-0.105403	-0.952282	0	
1.1067	3.87356	-0.648081	0	
1.1073	6.93025	-0.0264523	0	
1.1080	3.26749	-0.648081	0	
1.1087	-2.52967	-0.330654	0	
1.1093	-1.6074	1.49455	0	
1.1100	0.816873	2.71136	0	
1.1107	-1.00133	1.79876	0	
1.1113	-3.13574	0.886151	0	
1.1120	-4.37422	1.49455	0	
1.1127	-5.90257	3.01556	0	
1.1133	-4.66408	2.71136	0	
1.1140	-1.00133	0.886151	0	
1.1147	-2.84588	1.19035	0	
1.1153	-4.66408	2.71136	0	
1.1160	-0.395261	1.49455	0	
1.1167	4.47963	-1.25648	0	
1.1173	4.47963	-3.38589	0	
1.1180	1.42294	-4.6027	0	
1.1187	-4.05801	-6.13693	0	
1.1193	-10.1714	-9.19217	0	
1.1200	-14.7301	-12.2342	0	
1.1207	-19.3151	-11.93	0	
1.1213	-19.6313	-9.19217	0	
1.1220	-12.9119	-7.04953	0	
1.1227	-6.19242	-3.69009	0	
1.1233	-2.84588	1.49455	0	
1.1240	-1.6074	1.49455	0	
1.1247	-5.58636	-3.38589	0	
1.1253	-8.64304	-3.38589	0	
1.1260	-4.66408	0.58195	0	
1.1267	-1.00133	0.886151	0	
1.1273	-2.84588	0.277749	0	
1.1280	-1.00133	4.54979	0	
1.1287	5.4019	7.2876	0	
1.1293	9.98693	5.4624	0	
1.1300	11.8051	5.4624	0	
1.1307	12.1213	6.9834	0	
1.1313	11.5153	6.375	0	
1.1320	9.06466	6.375	0	
1.1327	6.93025	7.2876	0	
1.1333	6.32418	3.94139	0	
1.1340	5.08569	0.58195	0	
1.1347	1.73915	2.71136	0	
1.1353	-0.71147	4.54979	0	
1.1360	-2.84588	2.40716	0	
1.1367	-4.66408	2.10296	0	
1.1373	-1.9236	3.63719	0	
1.1380	3.26749	2.10296	0	
1.1387	4.18977	0.277749	0	
1.1393	0.527015	-0.330654	0	
1.1400	-7.72077	-2.16909	0	
1.1407	-14.124	-3.69009	0	
1.1413	-11.9896	-4.2985	0	
1.1420	-9.85518	-5.52853	0	
1.1427	-13.2281	-3.99429	0	
1.1433	-10.1714	0.277749	0	
1.1440	-3.74181	-0.0264523	0	
1.1447	-6.19242	-4.2985	0	
1.1453	-9.24911	-6.44113	0	
1.1460	-6.79849	-4.92012	0	
1.1467	-6.50863	-3.69009	0	
1.1473	-7.72077	-3.99429	0	
1.1480	-5.58636	-3.38589	0	
1.1487	-2.84588	-0.0264523	0	
1.1493	-0.395261	3.31976	0	
1.1500	3.26749	4.54979	0	
1.1507	4.18977	4.54979	0	
1.1513	3.87356	5.4624	0	
1.1520	5.4019	7.2876	0	
1.1527	7.2201	8.21343	0	
1.1533	7.85252	6.6792	0	
1.1540	5.08569	5.4624	0	
1.1547	-0.105403	5.4624	0	
1.1553	-2.23981	5.4624	0	
1.1560	-4.05801	4.24559	0	
1.1567	-9.85518	2.10296	0	
1.1573	-12.3058	-0.952282	0	
1.1580	-9.56532	-3.08169	0	
1.1587	-7.40456	-3.69009	0	
1.1593	-4.37422	-2.77749	0	
1.1600	0.527015	-0.952282	0	
1.1607	1.73915	0.886151	0	
1.1613	3.26749	1.79876	0	
1.1620	9.38086	2.40716	0	
1.1627	13.6497	2.40716	0	
1.1633	9.98693	1.79876	0	
1.1640	6.32418	1.19035	0	
1.1647	4.79584	0.277749	0	
1.1653	-1.00133	-3.08169	0	
1.1660	-7.40456	-6.13693	0	
1.1667	-5.90257	-7.04953	0	
1.1673	-1.31754	-6.13693	0	
1.1680	-2.23981	-5.83273	0	
1.1687	-1.9236	-7.35373	0	
1.1693	3.87356	-7.35373	0	
1.1700	6.00797	-4.92012	0	
1.1707	4.18977	-5.83273	0	
1.1713	3.26749	-9.19217	0	
1.1720	-1.00133	-8.57054	0	
1.1727	-6.79849	-7.35373	0	
1.1733	-7.1147	-9.19217	0	
1.1740	-3.45195	-9.80057	0	
1.1747	-2.84588	-7.35373	0	
1.1753	-4.66408	-4.92012	0	
1.1760	-3.74181	-2.47329	0	
1.1767	0.816873	-1.56068	0	
1.1773	0.816873	-3.69009	0	
1.1780	-4.37422	-3.69009	0	
1.1787	-4.37422	-1.86489	0	
1.1793	0.527015	-2.77749	0	
1.1800	2.34522	-3.69009	0	
1.1807	2.66143	-0.952282	0	
1.1813	2.05536	-0.0264523	0	
1.1820	-3.74181	-1.86489	0	
1.1827	-7.40456	-1.86489	0	
1.1833	-1.31754	-1.86489	0	
1.1840	6.32418	-1.25648	0	
1.1847	8.14238	1.79876	0	
1.1853	9.06466	3.94139	0	
1.1860	10.2768	3.63719	0	
1.1867	7.85252	4.54979	0	
1.1873	2.66143	5.4624	0	
1.1880	1.42294	3.63719	0	
1.1887	-0.105403	3.01556	0	
1.1893	-5.90257	4.85399	0	
1.1900	-11.9896	6.375	0	
1.1907	-16.5746	6.0708	0	
1.1913	-18.103	5.15819	0	
1.1920	-13.2281	3.63719	0	
1.1927	-10.1714	3.31976	0	
1.1933	-14.4402	4.85399	0	
1.1940	-16.2584	5.7666	0	
1.1947	-11.9896	4.54979	0	
1.1953	-6.50863	2.71136	0	
1.1960	4.47963	1.79876	0	
1.1967	19.1306	0.886151	0	
1.1973	31.9635	1.49455	0	
1.1980	42.0294	3.63719	0	
1.1987	35.5999	3.63719	0	
1.1993	7.53631	0.886151	0	
1.2000	-16.2584	0.277749	0	
1.2007	-19.9212	1.49455	0	
1.2013	-19.9212	1.79876	0	
1.2020	-18.3928	3.63719	0	
1.2027	-11.0673	4.85399	0	
1.2033	-6.50863	2.71136	0	
1.2040	-4.98029	1.79876	0	
1.2047	1.73915	3.63719	0	
1.2053	7.53631	3.94139	0	
1.2060	10.8829	2.71136	0	
1.2067	18.8408	2.40716	0	
1.2073	28.3007	2.40716	0	
1.2080	35.9161	3.01556	0	
1.2087	41.7132	1.79876	0	
1.2093	39.2626	-1.86489	0	
1.2100	31.6472	-3.38589	0	
1.2107	27.0622	-2.77749	0	
1.2113	20.3428	-3.69009	0	
1.2120	7.2201	-4.6027	0	
1.2127	-4.66408	-5.22433	0	
1.2133	-10.1714	-7.65794	0	
1.2140	-12.3058	-7.35373	0	
1.2147	-13.5179	-5.22433	0	
1.2153	-15.0463	-6.44113	0	
1.2160	-17.1807	-6.44113	0	
1.2167	-16.5746	-0.648081	0	
1.2173	-11.0673	3.31976	0	
1.2180	-1.9236	3.01556	0	
1.2187	7.2201	1.49455	0	
1.2193	11.8051	-0.330654	0	
1.2200	11.8051	-0.0264523	0	
1.2207	13.0173	2.71136	0	
1.2213	13.9395	2.71136	0	
1.2220	10.8829	0.886151	0	
1.2227	9.06466	1.19035	0	
1.2233	9.98693	1.79876	0	
1.2240	8.74845	-0.0264523	0	
1.2247	3.87356	-0.952282	0	
1.2253	1.73915	-1.86489	0	
1.2260	1.13308	-2.16909	0	
1.2267	-1.6074	-2.16909	0	
1.2273	-6.50863	-2.77749	0	
1.2280	-11.9896	-6.44113	0	
1.2287	-15.6523	-8.88797	0	
1.2293	-15.6523	-7.35373	0	
1.2300	-13.2281	-6.74533	0	
1.2307	-11.3835	-6.74533	0	
1.2313	-9.24911	-3.99429	0	
1.2320	-7.40456	-2.16909	0	
1.2327	-10.1714	-2.77749	0	
1.2333	-16.2584	-3.38589	0	
1.2340	-19.3151	-5.22433	0	
1.2347	-16.5746	-7.35373	0	
1.2353	-14.124	-6.13693	0	
1.2360	-14.7301	-4.2985	0	
1.2367	-11.9896	-5.52853	0	
1.2373	-5.90257	-6.13693	0	
1.2380	-4.66408	-5.83273	0	
1.2387	-7.1147	-6.13693	0	
1.2393	-5.58636	-4.6027	0	
1.2400	-2.84588	-3.38589	0	
1.2407	-3.13574	-3.99429	0	
1.2413	-4.05801	-4.6027	0	
1.2420	-2.84588	-4.6027	0	
1.2427	-0.71147	-5.22433	0	
1.2433	-0.71147	-3.69009	0	
1.2440	-4.37422	-0.952282	0	
1.2447	-8.32684	-0.952282	0	
1.2453	-7.40456	-0.952282	0	
1.2460	-4.98029	0.277749	0	
1.2467	-5.58636	1.49455	0	
1.2473	-7.40456	2.71136	0	
1.2480	-6.50863	3.01556	0	
1.2487	-3.13574	-0.952282	0	
1.2493	1.73915	-3.38589	0	
1.2500	4.47963	-1.86489	0	
1.2507	6.61404	-0.330654	0	
1.2513	11.8051	0.277749	0	
1.2520	14.5456	1.49455	0	
1.2527	11.1991	1.19035	0	
1.2533	9.98693	2.71136	0	
1.2540	13.9395	5.15819	0	
1.2547	12.7274	3.63719	0	
1.2553	5.71811	1.79876	0	
1.2560	-0.395261	3.01556	0	
1.2567	-6.50863	1.79876	0	
1.2573	-12.5957	0.58195	0	
1.2580	-11.6997	2.71136	0	
1.2587	-7.72077	2.71136	0	
1.2593	-5.27015	-0.330654	0	
1.2600	-0.395261	-0.330654	0	
1.2607	4.47963	0.58195	0	
1.2613	4.18977	-0.330654	0	
1.2620	4.18977	-0.330654	0	
1.2627	6.00797	-0.0264523	0	
1.2633	2.95128	0.886151	0	
1.2640	-2.23981	1.19035	0	
1.2647	-3.74181	0.886151	0	
1.2653	-2.84588	2.40716	0	
1.2660	-0.105403	5.15819	0	
1.2667	8.45859	6.375	0	
1.2673	15.7841	7.2876	0	
1.2680	14.2558	8.21343	0	
1.2687	9.06466	5.15819	0	
1.2693	3.26749	-0.330654	0	
1.2700	-5.27015	-5.52853	0	
1.2707	-11.3835	-8.88797	0	
1.2713	-11.6997	-7.96214	0	
1.2720	-10.7775	-4.6027	0	
1.2727	-6.50863	-4.92012	0	
1.2733	1.13308	-7.04953	0	
1.2740	-0.71147	-6.44113	0	
1.2747	-9.24911	-4.6027	0	
1.2753	-11.9896	-3.99429	0	
1.2760	-11.0673	-2.77749	0	
1.2767	-10.1714	-0.330654	0	
1.2773	-5.90257	1.49455	0	
1.2780	-4.66408	0.886151	0	
1.2787	-7.40456	-0.0264523	0	
1.2793	-3.13574	-0.0264523	0	
1.2800	0.210806	0.886151	0	
1.2807	-3.45195	2.71136	0	
1.2813	-1.9236	3.63719	0	
1.2820	7.2201	2.71136	0	
1.2827	16.3902	3.94139	0	
1.2833	27.3784	7.90923	0	
1.2840	34.7039	7.5918	0	
1.2847	28.9068	5.7666	0	
1.2853	20.659	7.2876	0	
1.2860	21.8711	6.375	0	
1.2867	21.8711	2.71136	0	
1.2873	15.4679	4.54979	0	
1.2880	12.4112	7.2876	0	
1.2887	12.1213	3.31976	0	
1.2893	5.4019	-1.56068	0	
1.2900	-4.37422	-3.99429	0	
1.2907	-9.85518	-5.52853	0	
1.2913	-14.7301	-7.04953	0	
1.2920	-19.3151	-9.49637	0	
1.2927	-17.4969	-10.409	0	
1.2933	-11.3835	-6.13693	0	
1.2940	-5.90257	-0.952282	0	
1.2947	0.816873	0.886151	0	
1.2953	2.34522	1.79876	0	
1.2960	-4.66408	0.886151	0	
1.2967	-10.1714	-1.25648	0	
1.2973	-7.40456	-0.0264523	0	
1.2980	-4.05801	3.01556	0	
1.2987	-6.19242	1.79876	0	
1.2993	-11.0673	0.58195	0	
1.3000	-12.3058	3.01556	0	
1.3007	-6.50863	4.54979	0	
1.3013	-1.6074	2.71136	0	
1.3020	-0.395261	2.40716	0	
1.3027	2.05536	2.40716	0	
1.3033	2.95128	-0.648081	0	
1.3040	-0.105403	-0.952282	0	
1.3047	-0.105403	1.79876	0	
1.3053	3.26749	1.19035	0	
1.3060	3.26749	1.79876	0	
1.3067	2.66143	4.54979	0	
1.3073	2.66143	3.01556	0	
1.3080	-1.6074	-0.330654	0	
1.3087	-3.74181	1.79876	0	
1.3093	-0.105403	2.10296	0	
1.3100	1.13308	-1.86489	0	
1.3107	-2.52967	-1.86489	0	
1.3113	-4.66408	1.49455	0	
1.3120	-5.90257	1.19035	0	
1.3127	-9.85518	1.79876	0	
1.3133	-11.3835	3.63719	0	
1.3140	-11.0673	1.19035	0	
1.3147	-12.3058	-2.47329	0	
1.3153	-12.3058	-2.16909	0	
1.3160	-11.6997	-0.952282	0	
1.3167	-13.8341	-0.0264523	0	
1.3173	-14.7301	2.71136	0	
1.3180	-12.3058	2.71136	0	
1.3187	-10.7775	-0.952282	0	
1.3193	-8.32684	-2.16909	0	
1.3200	-4.98029	-1.56068	0	
1.3207	-2.84588	-3.69009	0	
1.3213	2.66143	-4.6027	0	
1.3220	11.1991	-1.86489	0	
1.3227	17.9185	0.886151	0	
1.3233	21.5813	1.19035	0	
1.3240	17.6023	0.886151	0	
1.3247	6.32418	1.49455	0	
1.3253	2.66143	4.24559	0	
1.3260	8.74845	6.375	0	
1.3267	6.32418	6.375	0	
1.3273	-1.00133	6.375	0	
1.3280	0.816873	6.375	0	
1.3287	6.93025	3.01556	0	
1.3293	6.93025	-0.952282	0	
1.3300	0.816873	-0.0264523	0	
1.3307	-2.52967	3.63719	0	
1.3313	1.73915	7.5918	0	
1.3320	5.08569	11.5596	0	
1.3327	-0.105403	12.7897	0	
1.3333	-2.52967	11.2554	0	
1.3340	0.816873	10.0386	0	
1.3347	-0.71147	8.21343	0	
1.3353	-3.13574	4.85399	0	
1.3360	-1.00133	2.71136	0	
1.3367	-0.395261	1.79876	0	
1.3373	-2.84588	-0.648081	0	
1.3380	-4.66408	-3.99429	0	
1.3387	-8.03698	-6.44113	0	
1.3393	-9.85518	-9.49637	0	
1.3400	-6.50863	-11.0174	0	
1.3407	-1.00133	-9.80057	0	
1.3413	5.4019	-8.26634	0	
1.3420	12.7274	-5.52853	0	
1.3427	15.4679	-2.77749	0	
1.3433	12.7274	-1.56068	0	
1.3440	9.06466	-2.47329	0	
1.3447	5.08569	-1.56068	0	
1.3453	-0.105403	0.886151	0	
1.3460	-0.105403	0.277749	0	
1.3467	2.95128	-1.86489	0	
1.3473	1.73915	-1.25648	0	
1.3480	-0.395261	-1.25648	0	
1.3487	0.816873	-4.92012	0	
1.3493	-0.71147	-5.52853	0	
1.3500	-3.45195	-0.648081	0	
1.3507	-3.74181	1.19035	0	
1.3513	-7.72077	-0.648081	0	
1.3520	-11.9896	0.886151	0	
1.3527	-8.64304	3.31976	0	
1.3533	-6.19242	3.01556	0	
1.3540	-8.32684	4.85399	0	
1.3547	-6.19242	7.90923	0	
1.3553	-3.74181	6.375	0	
1.3560	-6.19242	4.24559	0	
1.3567	-4.98029	5.4624	0	
1.3573	-1.9236	4.85399	0	
1.3580	-2.52967	2.71136	0	
1.3587	-1.9236	1.79876	0	
1.3593	2.66143	-0.330654	0	
1.3600	7.53631	-2.47329	0	
1.3607	9.38086	-2.77749	0	
1.3613	11.8051	-1.25648	0	
1.3620	18.2084	-0.0264523	0	
1.3627	20.9752	-1.86489	0	
1.3633	9.67072	-6.74533	0	
1.3640	-5.58636	-9.80057	0	
1.3647	-11.0673	-8.88797	0	
1.3653	-9.24911	-5.52853	0	
1.3660	-0.71147	-2.16909	0	
1.3667	9.67072	-1.86489	0	
1.3673	9.98693	-1.25648	0	
1.3680	6.32418	0.886151	0	
1.3687	8.14238	-0.0264523	0	
1.3693	9.06466	-3.69009	0	
1.3700	6.32418	-1.56068	0	
1.3707	5.4019	2.40716	0	
1.3713	2.95128	1.49455	0	
1.3720	-1.00133	-0.0264523	0	
1.3727	-0.105403	-0.0264523	0	
1.3733	-3.13574	-0.0264523	0	
1.3740	-11.3835	0.58195	0	
1.3747	-12.9119	-0.0264523	0	
1.3753	-9.56532	-1.86489	0	
1.3760	-11.0673	-1.86489	0	
1.3767	-11.3835	-2.77749	0	
1.3773	-8.03698	-6.44113	0	
1.3780	-5.90257	-4.6027	0	
1.3787	-5.58636	-0.648081	0	
1.3793	-8.32684	-2.16909	0	
1.3800	-12.9119	-3.69009	0	
1.3807	-11.9896	-1.25648	0	
1.3813	-8.03698	-0.952282	0	
1.3820	-9.56532	-3.69009	0	
1.3827	-11.9896	-4.6027	0	
1.3833	-4.66408	-3.38589	0	
1.3840	7.2201	-0.330654	0	
1.3847	9.98693	0.886151	0	
1.3853	7.2201	-0.330654	0	
1.3860	8.14238	1.19035	0	
1.3867	10.8829	5.4624	0	
1.3873	9.98693	5.4624	0	
1.3880	11.8051	3.31976	0	
1.3887	16.3902	2.71136	0	
1.3893	15.7841	2.71136	0	
1.3900	12.1213	3.31976	0	
1.3907	10.8829	2.71136	0	
1.3913	7.2201	0.886151	0	
1.3920	1.13308	-0.0264523	0	
1.3927	-1.00133	-0.952282	0	
1.3933	-4.37422	-4.6027	0	
1.3940	-9.85518	-5.52853	0	
1.3947	-11.0673	-5.22433	0	
1.3953	-9.85518	-7.96214	0	
1.3960	-12.9119	-8.26634	0	
1.3967	-15.3625	-3.99429	0	
1.3973	-13.5179	-2.77749	0	
1.3980	-11.0673	-3.38589	0	
1.3987	-8.9329	-1.56068	0	
1.3993	-4.66408	0.58195	0	
1.4000	0.527015	0.886151	0	
1.4007	2.34522	0.886151	0	
1.4013	1.13308	0.886151	0	
1.4020	1.73915	3.94139	0	
1.4027	5.71811	6.6792	0	
1.4033	5.4019	5.15819	0	
1.4040	0.527015	5.7666	0	
1.4047	0.527015	8.21343	0	
1.4053	5.4019	4.24559	0	
1.4060	4.47963	-0.648081	0	
1.4067	0.210806	0.277749	0	
1.4073	2.66143	0.277749	0	
1.4080	8.14238	1.49455	0	
1.4087	8.74845	5.7666	0	
1.4093	6.00797	3.01556	0	
1.4100	4.79584	-4.2985	0	
1.4107	3.55735	-3.08169	0	
1.4113	2.05536	0.58195	0	
1.4120	2.34522	-1.25648	0	
1.4127	3.26749	-1.86489	0	
1.4133	1.73915	-0.952282	0	
1.4140	-1.9236	-4.2985	0	
1.4147	-5.58636	-5.83273	0	
1.4153	-7.40456	-3.69009	0	
1.4160	-8.32684	-4.92012	0	
1.4167	-8.9329	-7.04953	0	
1.4173	-8.32684	-5.52853	0	
1.4180	-6.50863	-5.52853	0	
1.4187	-6.19242	-7.35373	0	
1.4193	-7.40456	-5.52853	0	
1.4200	-4.66408	-2.16909	0	
1.4207	0.210806	-0.648081	0	
1.4213	1.13308	0.277749	0	
1.4220	1.73915	0.886151	0	
1.4227	3.87356	2.71136	0	
1.4233	2.66143	6.0708	0	
1.4240	2.95128	6.375	0	
1.4247	7.85252	4.54979	0	
1.4253	8.14238	5.4624	0	
1.4260	4.18977	7.2876	0	
1.4267	4.47963	8.21343	0	
1.4273	4.47963	9.12604	0	
1.4280	-1.00133	7.2876	0	
1.4287	-5.58636	3.31976	0	
1.4293	-5.27015	1.19035	0	
1.4300	-4.66408	1.49455	0	
1.4307	-8.64304	1.49455	0	
1.4313	-13.2281	-0.0264523	0	
1.4320	-10.1714	-3.08169	0	
1.4327	-2.84588	-3.38589	0	
1.4333	0.210806	-1.86489	0	
1.4340	1.42294	-3.08169	0	
1.4347	1.42294	-2.77749	0	
1.4353	-2.84588	0.58195	0	
1.4360	-7.40456	-0.952282	0	
1.4367	-12.3058	-4.6027	0	
1.4373	-20.2374	-4.2985	0	
1.4380	-23.9001	-3.69009	0	
1.4387	-20.2374	-3.99429	0	
1.4393	-16.2584	-1.86489	0	
1.4400	-11.3835	0.58195	0	
1.4407	-4.66408	3.01556	0	
1.4413	2.66143	6.0708	0	
1.4420	8.14238	5.7666	0	
1.4427	9.06466	2.40716	0	
1.4433	6.32418	-0.0264523	0	
1.4440	8.45859	1.49455	0	
1.4447	11.5153	3.63719	0	
1.4453	9.06466	3.63719	0	
1.4460	11.8051	-0.330654	0	
1.4467	24.3217	-3.08169	0	
1.4473	28.9068	-2.77749	0	
1.4480	20.659	-2.77749	0	
1.4487	9.06466	-4.2985	0	
1.4493	0.210806	-3.38589	0	
1.4500	-0.71147	-0.330654	0	
1.4507	0.816873	-0.330654	0	
1.4513	-1.6074	-1.56068	0	
1.4520	-0.105403	0.58195	0	
1.4527	5.4019	0.886151	0	
1.4533	4.79584	-0.330654	0	
1.4540	-0.71147	0.277749	0	
1.4547	-1.6074	1.19035	0	
1.4553	3.26749	-0.330654	0	
1.4560	8.45859	-0.952282	0	
1.4567	7.2201	-0.952282	0	
1.4573	-3.13574	-2.47329	0	
1.4580	-11.6997	-2.77749	0	
1.4587	-11.6997	-1.86489	0	
1.4593	-10.1714	-0.952282	0	
1.4600	-8.9329	-0.952282	0	
1.4607	-6.50863	-0.0264523	0	
1.4613	-4.37422	3.01556	0	
1.4620	-1.00133	4.54979	0	
1.4627	2.95128	3.01556	0	
1.4633	3.55735	3.63719	0	
1.4640	0.210806	4.54979	0	
1.4647	-3.13574	1.19035	0	
1.4653	-2.23981	-0.330654	0	
1.4660	1.13308	3.01556	0	
1.4667	1.73915	1.79876	0	
1.4673	2.66143	-3.69009	0	
1.4680	8.14238	-1.86489	0	
1.4687	9.06466	4.24559	0	
1.4693	2.34522	3.01556	0	
1.4700	-1.6074	0.886151	0	
1.4707	1.13308	3.94139	0	
1.4713	4.47963	3.63719	0	
1.4720	8.14238	-1.86489	0	
1.4727	9.06466	-1.86489	0	
1.4733	4.47963	3.31976	0	
1.4740	-1.9236	3.31976	0	
1.4747	-5.27015	0.277749	0	
1.4753	-6.50863	-0.952282	0	
1.4760	-7.72077	-0.952282	0	
1.4767	-10.7775	-1.86489	0	
1.4773	-15.3625	-4.6027	0	
1.4780	-18.3928	-6.74533	0	
1.4787	-17.4969	-4.92012	0	
1.4793	-12.9119	-2.47329	0	
1.4800	-5.58636	-0.952282	0	
1.4807	-0.71147	1.19035	0	
1.4813	2.66143	3.31976	0	
1.4820	8.14238	4.85399	0	
1.4827	12.1213	8.21343	0	
1.4833	9.98693	9.12604	0	
1.4840	9.38086	6.9834	0	
1.4847	11.5153	7.90923	0	
1.4853	7.2201	8.21343	0	
1.4860	2.34522	3.63719	0	
1.4867	4.47963	1.79876	0	
1.4873	1.42294	1.79876	0	
1.4880	-12.9119	-2.77749	0	
1.4887	-22.0556	-7.96214	0	
1.4893	-22.688	-11.0174	0	
1.4900	-22.3718	-11.6258	0	
1.4907	-18.103	-9.19217	0	
1.4913	-8.64304	-6.74533	0	
1.4920	-3.45195	-7.96214	0	
1.4927	-1.9236	-9.19217	0	
1.4933	1.73915	-7.04953	0	
1.4940	5.4019	-1.56068	0	
1.4947	6.61404	2.71136	0	
1.4953	8.14238	0.886151	0	
1.4960	8.14238	-2.77749	0	
1.4967	3.87356	-1.56068	0	
1.4973	0.816873	2.71136	0	
1.4980	0.816873	1.79876	0	
1.4987	0.816873	-2.16909	0	
1.4993	-1.9236	-3.08169	0	
1.5000	-3.74181	-3.38589	0	
1.5007	-3.74181	-4.92012	0	
1.5013	-1.9236	-3.38589	0	
1.5020	-1.9236	-1.25648	0	
1.5027	-3.45195	-3.69009	0	
1.5033	-0.71147	-4.6027	0	
1.5040	5.71811	-0.952282	0	
1.5047	7.2201	0.886151	0	
1.5053	7.2201	0.58195	0	
1.5060	9.06466	2.40716	0	
1.5067	9.98693	3.31976	0	
1.5073	9.67072	1.79876	0	
1.5080	10.2768	2.71136	0	
1.5087	7.85252	4.54979	0	
1.5093	4.47963	3.31976	0	
1.5100	6.32418	2.40716	0	
1.5107	6.00797	4.85399	0	
1.5113	3.55735	5.4624	0	
1.5120	5.4019	2.40716	0	
1.5127	5.4019	1.49455	0	
1.5133	-1.00133	2.10296	0	
1.5140	-5.27015	0.886151	0	
1.5147	-3.13574	0.277749	0	
1.5153	0.210806	0.886151	0	
1.5160	4.79584	-0.0264523	0	
1.5167	7.2201	0.58195	0	
1.5173	3.87356	3.63719	0	
1.5180	0.527015	3.31976	0	
1.5187	0.527015	0.277749	0	
1.5193	-0.105403	-1.86489	0	
1.5200	-3.13574	-3.69009	0	
1.5207	-8.32684	-3.69009	0	
1.5213	-10.4612	-3.69009	0	
1.5220	-6.50863	-8.57054	0	
1.5227	-3.45195	-11.0174	0	
1.5233	-3.74181	-5.83273	0	
1.5240	-2.23981	-1.86489	0	
1.5247	-1.00133	-3.08169	0	
1.5253	-3.74181	-4.6027	0	
1.5260	-4.98029	-5.83273	0	
1.5267	-3.74181	-7.35373	0	
1.5273	-3.13574	-7.65794	0	
1.5280	-1.6074	-7.35373	0	
1.5287	-0.105403	-6.13693	0	
1.5293	2.34522	-2.77749	0	
1.5300	4.47963	1.49455	0	
1.5307	-0.105403	3.63719	0	
1.5313	-7.40456	3.63719	0	
1.5320	-7.40456	2.71136	0	
1.5327	-7.40456	2.71136	0	
1.5333	-12.3058	2.10296	0	
1.5340	-14.7301	1.49455	0	
1.5347	-14.7301	2.40716	0	
1.5353	-13.8341	2.71136	0	
1.5360	-7.40456	2.40716	0	
1.5367	-1.9236	2.71136	0	
1.5373	-1.9236	1.79876	0	
1.5380	2.34522	2.40716	0	
1.5387	9.06466	6.375	0	
1.5393	10.2768	6.9834	0	
1.5400	10.593	0.58195	0	
1.5407	9.06466	-4.92012	0	
1.5413	1.42294	-5.52853	0	
1.5420	-5.27015	-4.2985	0	
1.5427	-6.19242	-2.77749	0	
1.5433	-5.58636	-0.952282	0	
1.5440	-6.50863	0.277749	0	
1.5447	-6.79849	0.58195	0	
1.5453	-6.19242	1.19035	0	
1.5460	-4.05801	2.10296	0	
1.5467	-2.84588	-0.952282	0	
1.5473	-0.395261	-5.22433	0	
1.5480	4.47963	-2.77749	0	
1.5487	7.2201	1.79876	0	
1.5493	5.71811	0.886151	0	
1.5500	4.18977	-2.77749	0	
1.5507	4.47963	-3.69009	0	
1.5513	2.66143	-1.86489	0	
1.5520	0.210806	-2.77749	0	
1.5527	0.816873	-2.77749	0	
1.5533	3.26749	0.277749	0	
1.5540	3.87356	0.58195	0	
1.5547	6.00797	-3.69009	0	
1.5553	7.2201	-3.69009	0	
1.5560	3.87356	1.19035	0	
1.5567	0.527015	3.31976	0	
1.5573	-0.71147	1.79876	0	
1.5580	-6.50863	0.277749	0	
1.5587	-14.7301	-0.952282	0	
1.5593	-17.1807	-0.0264523	0	
1.5600	-16.2584	2.10296	0	
1.5607	-14.7301	2.10296	0	
1.5613	-11.6997	1.49455	0	
1.5620	-10.4612	0.886151	0	
1.5627	-12.5957	0.886151	0	
1.5633	-10.7775	3.01556	0	
1.5640	-0.71147	3.63719	0	
1.5647	12.7274	3.01556	0	
1.5653	20.0529	4.54979	0	
1.5660	18.2084	5.4624	0	
1.5667	16.3902	5.4624	0	
1.5673	16.074	6.0708	0	
1.5680	13.3335	3.94139	0	
1.5687	9.98693	0.58195	0	
1.5693	6.93025	-0.0264523	0	
1.5700	0.816873	-0.0264523	0	
1.5707	-4.37422	0.277749	0	
1.5713	-5.58636	2.71136	0	
1.5720	-9.85518	1.49455	0	
1.5727	-18.709	-3.69009	0	
1.5733	-22.0556	-4.6027	0	
1.5740	-14.4402	-3.69009	0	
1.5747	-4.66408	-4.6027	0	
1.5753	1.42294	-4.6027	0	
1.5760	3.55735	-3.08169	0	
1.5767	5.4019	-1.86489	0	
1.5773	7.2201	0.886151	0	
1.5780	6.93025	1.79876	0	
1.5787	4.79584	0.886151	0	
1.5793	5.08569	2.10296	0	
1.5800	6.61404	6.0708	0	
1.5807	8.14238	8.51763	0	
1.5813	11.8051	8.21343	0	
1.5820	17.9185	8.51763	0	
1.5827	18.2084	10.647	0	
1.5833	15.178	10.0386	0	
1.5840	15.4679	7.90923	0	
1.5847	18.2084	9.43024	0	
1.5853	19.1306	11.8771	0	
1.5860	17.3124	8.51763	0	
1.5867	10.8829	4.54979	0	
1.5873	1.13308	2.71136	0	
1.5880	-5.90257	-1.25648	0	
1.5887	-9.24911	-6.44113	0	
1.5893	-13.2281	-8.26634	0	
1.5900	-17.4969	-11.0174	0	
1.5907	-22.688	-16.202	0	
1.5913	-26.3507	-18.3447	0	
1.5920	-26.0345	-17.4321	0	
1.5927	-24.5062	-16.8104	0	
1.5933	-22.9778	-16.202	0	
1.5940	-20.2374	-12.5384	0	
1.5947	-19.3151	-8.26634	0	
1.5953	-18.103	-7.35373	0	
1.5960	-12.9119	-6.13693	0	
1.5967	-6.50863	-4.6027	0	
1.5973	-4.05801	-3.99429	0	
1.5980	-4.05801	-2.77749	0	
1.5987	-4.66408	0.277749	0	
1.5993	-4.37422	0.886151	0	
1.6000	-3.45195	-0.0264523	0	
1.6007	-2.84588	2.10296	0	
1.6013	0.816873	3.63719	0	
1.6020	9.06466	4.24559	0	
1.6027	15.4679	6.375	0	
1.6033	17.3124	7.2876	0	
1.6040	18.8408	5.4624	0	
1.6047	19.4468	7.2876	0	
1.6053	18.2084	8.82184	0	
1.6060	17.6023	5.4624	0	
1.6067	18.8408	3.31976	0	
1.6073	19.4468	4.24559	0	
1.6080	16.9962	2.10296	0	
1.6087	11.1991	-0.648081	0	
1.6093	7.2201	-0.0264523	0	
1.6100	4.18977	-1.25648	0	
1.6107	2.34522	-3.69009	0	
1.6113	3.55735	-3.08169	0	
1.6120	2.66143	-3.08169	0	
1.6127	-1.31754	-5.52853	0	
1.6133	-2.84588	-4.6027	0	
1.6140	-2.84588	-2.47329	0	
1.6147	-7.72077	-2.77749	0	
1.6153	-14.7301	-3.69009	0	
1.6160	-22.3718	-5.52853	0	
1.6167	-27.5629	-9.19217	0	
1.6173	-24.19	-7.35373	0	
1.6180	-15.3625	-0.330654	0	
1.6187	-9.85518	2.40716	0	
1.6193	-8.32684	0.277749	0	
1.6200	-8.03698	-0.952282	0	
1.6207	-5.58636	0.277749	0	
1.6213	0.527015	2.10296	0	
1.6220	6.32418	3.01556	0	
1.6227	9.06466	2.71136	0	
1.6233	10.8829	3.01556	0	
1.6240	10.8829	3.94139	0	
1.6247	9.06466	3.31976	0	
1.6253	9.06466	2.40716	0	
1.6260	8.14238	2.71136	0	
1.6267	6.32418	1.79876	0	
1.6273	8.14238	1.79876	0	
1.6280	12.4112	3.63719	0	
1.6287	13.0173	4.24559	0	
1.6293	7.53631	2.10296	0	
1.6300	-1.31754	-0.952282	0	
1.6307	-7.40456	-3.99429	0	
1.6313	-9.24911	-7.65794	0	
1.6320	-10.1714	-10.409	0	
1.6327	-10.4612	-8.88797	0	
1.6333	-10.4612	-3.69009	0	
1.6340	-12.5957	-0.952282	0	
1.6347	-14.7301	-1.56068	0	
1.6353	-15.9686	-1.86489	0	
1.6360	-17.7868	-1.86489	0	
1.6367	-18.103	-1.86489	0	
1.6373	-16.2584	-3.69009	0	
1.6380	-15.3625	-6.13693	0	
1.6387	-13.8341	-6.13693	0	
1.6393	-10.4612	-3.38589	0	
1.6400	-8.32684	-1.86489	0	
1.6407	-6.50863	-1.56068	0	
1.6413	-4.37422	0.58195	0	
1.6420	0.210806	1.49455	0	
1.6427	9.98693	0.886151	0	
1.6433	18.2084	0.886151	0	
1.6440	16.3902	2.71136	0	
1.6447	13.0173	3.94139	0	
1.6453	14.5456	4.54979	0	
1.6460	14.8618	5.4624	0	
1.6467	12.1213	4.54979	0	
1.6473	9.06466	3.94139	0	
1.6480	7.2201	5.15819	0	
1.6487	7.53631	5.15819	0	
1.6493	6.32418	4.24559	0	
1.6500	2.05536	3.63719	0	
1.6507	1.42294	1.79876	0	
1.6513	3.55735	0.886151	0	
1.6520	1.73915	3.31976	0	
1.6527	-3.45195	3.31976	0	
1.6533	-11.9896	0.886151	0	
1.6540	-19.3151	0.277749	0	
1.6547	-14.7301	0.277749	0	
1.6553	-8.64304	-0.648081	0	
1.6560	-12.9119	0.58195	0	
1.6567	-14.124	0.886151	0	
1.6573	-6.19242	-2.77749	0	
1.6580	-1.9236	-3.99429	0	
1.6587	-2.23981	-0.648081	0	
1.6593	0.210806	3.63719	0	
1.6600	3.26749	3.63719	0	
1.6607	5.08569	1.49455	0	
1.6613	7.2201	0.277749	0	
1.6620	9.38086	-1.25648	0	
1.6627	10.8829	-5.83273	0	
1.6633	10.593	-7.04953	0	
1.6640	7.53631	-3.69009	0	
1.6647	7.85252	-1.25648	0	
1.6653	13.6497	-0.0264523	0	
1.6660	17.9185	0.277749	0	
1.6667	15.4679	-3.38589	0	
1.6673	9.06466	-6.74533	0	
1.6680	4.47963	-6.13693	0	
1.6687	4.18977	-7.04953	0	
1.6693	3.55735	-9.19217	0	
1.6700	0.210806	-5.52853	0	
1.6707	-1.00133	-1.25648	0	
1.6713	-1.6074	-2.77749	0	
1.6720	-5.27015	-4.6027	0	
1.6727	-6.50863	-1.56068	0	
1.6733	-4.66408	0.886151	0	
1.6740	-6.19242	0.58195	0	
1.6747	-10.1714	1.79876	0	
1.6753	-9.85518	3.01556	0	
1.6760	-8.64304	1.19035	0	
1.6767	-12.3058	-0.952282	0	
1.6773	-19.6313	-1.86489	0	
1.6780	-25.7183	-3.69009	0	
1.6787	-24.19	-3.69009	0	
1.6793	-17.1807	-1.86489	0	
1.6800	-11.9896	-2.16909	0	
1.6807	-9.24911	-2.16909	0	
1.6813	-4.05801	-0.0264523	0	
1.6820	-0.105403	0.886151	0	
1.6827	2.05536	-0.952282	0	
1.6833	4.47963	-2.16909	0	
1.6840	5.08569	-1.86489	0	
1.6847	5.08569	-0.330654	0	
1.6853	9.98693	0.886151	0	
1.6860	17.3124	2.71136	0	
1.6867	19.4468	3.94139	0	
1.6873	16.074	3.63719	0	
1.6880	9.67072	3.01556	0	
1.6887	3.87356	1.79876	0	
1.6893	0.527015	-0.648081	0	
1.6900	-1.9236	-0.330654	0	
1.6907	-2.84588	1.79876	0	
1.6913	-1.00133	0.886151	0	
1.6920	3.55735	-0.0264523	0	
1.6927	7.2201	0.886151	0	
1.6933	8.45859	0.886151	0	
1.6940	8.45859	0.886151	0	
1.6947	6.93025	3.94139	0	
1.6953	4.47963	6.375	0	
1.6960	4.79584	6.0708	0	
1.6967	7.85252	5.4624	0	
1.6973	7.85252	5.4624	0	
1.6980	6.93025	6.9834	0	
1.6987	8.14238	7.90923	0	
1.6993	6.32418	5.7666	0	
1.7000	1.73915	4.24559	0	
1.7007	2.05536	4.54979	0	
1.7013	0.816873	3.01556	0	
1.7020	-6.79849	-1.56068	0	
1.7027	-10.7775	-3.08169	0	
1.7033	-10.1714	-0.952282	0	
1.7040	-14.7301	-1.86489	0	
1.7047	-18.3928	-5.83273	0	
1.7053	-12.5957	-7.35373	0	
1.7060	-9.85518	-5.83273	0	
1.7067	-16.5746	-4.2985	0	
1.7073	-21.4495	-2.77749	0	
1.7080	-19.0252	-2.77749	0	
1.7087	-17.4969	-5.22433	0	
1.7093	-20.2374	-5.52853	0	
1.7100	-18.709	-2.47329	0	
1.7107	-11.9896	-0.952282	0	
1.7113	-7.40456	-2.47329	0	
1.7120	-6.50863	-2.77749	0	
1.7127	-4.66408	-1.56068	0	
1.7133	-1.9236	0.277749	0	
1.7140	0.527015	0.886151	0	
1.7147	2.05536	1.79876	0	
1.7153	2.34522	2.40716	0	
1.7160	2.05536	0.886151	0	
1.7167	2.66143	-0.952282	0	
1.7173	4.47963	-0.330654	0	
1.7180	6.00797	-0.0264523	0	
1.7187	3.55735	-0.952282	0	
1.7193	-2.84588	-0.952282	0	
1.7200	-3.74181	-0.0264523	0	
1.7207	4.47963	-0.648081	0	
1.7213	11.1991	-1.25648	0	
1.7220	11.5153	-1.25648	0	
1.7227	10.8829	0.58195	0	
1.7233	13.0173	2.71136	0	
1.7240	14.2558	4.24559	0	
1.7247	11.5153	3.94139	0	
1.7253	7.2201	2.71136	0	
1.7260	6.93025	1.49455	0	
1.7267	10.8829	-0.0264523	0	
1.7273	13.0173	-0.648081	0	
1.7280	10.8829	0.58195	0	
1.7287	9.38086	2.71136	0	
1.7293	9.38086	1.79876	0	
1.7300	8.45859	-0.952282	0	
1.7307	7.85252	-0.0264523	0	
1.7313	6.61404	2.40716	0	
1.7320	0.816873	1.79876	0	
1.7327	-4.37422	-0.952282	0	
1.7333	-5.90257	-3.08169	0	
1.7340	-8.64304	-3.38589	0	
1.7347	-10.7775	-3.69009	0	
1.7353	-7.1147	-4.2985	0	
1.7360	-4.66408	-2.77749	0	
1.7367	-8.9329	-0.648081	0	
1.7373	-11.6997	-2.77749	0	
1.7380	-10.1714	-3.69009	0	
1.7387	-11.0673	-0.0264523	0	
1.7393	-11.0673	-0.0264523	0	
1.7400	-5.90257	-3.08169	0	
1.7407	-0.105403	-0.952282	0	
1.7413	3.26749	0.886151	0	
1.7420	4.47963	-0.952282	0	
1.7427	1.73915	-0.330654	0	
1.7433	-3.74181	1.49455	0	
1.7440	-4.37422	2.10296	0	
1.7447	-0.71147	4.54979	0	
1.7453	1.73915	4.54979	0	
1.7460	1.73915	0.58195	0	
1.7467	1.73915	0.886151	0	
1.7473	2.66143	3.94139	0	
1.7480	5.4019	1.79876	0	
1.7487	7.85252	0.277749	0	
1.7493	4.47963	3.01556	0	
1.7500	0.527015	4.54979	0	
1.7507	1.73915	5.15819	0	
1.7513	4.47963	7.5918	0	
1.7520	3.87356	8.21343	0	
1.7527	-0.105403	6.375	0	
1.7533	-5.58636	5.4624	0	
1.7540	-8.32684	5.4624	0	
1.7547	-10.1714	2.71136	0	
1.7553	-11.9896	0.277749	0	
1.7560	-7.1147	3.31976	0	
1.7567	0.210806	6.375	0	
1.7573	-1.6074	1.79876	0	
1.7580	-8.32684	-6.13693	0	
1.7587	-11.9896	-8.57054	0	
1.7593	-13.5179	-9.19217	0	
1.7600	-8.64304	-10.1048	0	
1.7607	1.13308	-7.65794	0	
1.7613	6.00797	-4.6027	0	
1.7620	4.79584	-4.6027	0	
1.7627	3.55735	-5.22433	0	
1.7633	4.18977	-3.69009	0	
1.7640	6.61404	-2.77749	0	
1.7647	8.14238	-4.6027	0	
1.7653	6.32418	-7.35373	0	
1.7660	6.93025	-6.44113	0	
1.7667	9.38086	-2.77749	0	
1.7673	9.67072	-1.86489	0	
1.7680	10.8829	-2.47329	0	
1.7687	14.5456	-0.952282	0	
1.7693	14.5456	0.277749	0	
1.7700	12.1213	1.49455	0	
1.7707	10.2768	2.71136	0	
1.7713	9.67072	1.79876	0	
1.7720	8.74845	1.19035	0	
1.7727	2.66143	2.40716	0	
1.7733	-4.05801	1.79876	0	
1.7740	-5.58636	0.58195	0	
1.7747	-9.24911	1.79876	0	
1.7753	-17.1807	1.19035	0	
1.7760	-15.6523	-1.86489	0	
1.7767	-9.85518	-1.86489	0	
1.7773	-8.03698	-0.648081	0	
1.7780	-2.84588	-0.648081	0	
1.7787	-1.31754	-1.25648	0	
1.7793	-11.9896	-2.77749	0	
1.7800	-16.5746	-3.69009	0	
1.7807	-12.9119	-3.69009	0	
1.7813	-16.2584	-5.83273	0	
1.7820	-20.2374	-8.26634	0	
1.7827	-15.9686	-6.74533	0	
1.7833	-11.3835	-4.6027	0	
1.7840	-8.03698	-3.38589	0	
1.7847	-3.74181	-1.86489	0	
1.7853	-2.23981	-2.16909	0	
1.7860	1.73915	-2.47329	0	
1.7867	9.06466	-0.0264523	0	
1.7873	10.593	1.79876	0	
1.7880	11.5153	1.79876	0	
1.7887	16.074	1.79876	0	
1.7893	15.178	2.10296	0	
1.7900	7.85252	1.19035	0	
1.7907	3.26749	0.886151	0	
1.7913	3.55735	0.886151	0	
1.7920	6.93025	-0.330654	0	
1.7927	9.38086	-1.86489	0	
1.7933	8.14238	-2.47329	0	
1.7940	5.4019	-2.47329	0	
1.7947	7.2201	-2.77749	0	
1.7953	11.5153	-1.86489	0	
1.7960	12.7274	-0.648081	0	
1.7967	10.593	-0.952282	0	
1.7973	5.4019	0.58195	0	
1.7980	-0.105403	3.63719	0	
1.7987	-0.395261	5.4624	0	
1.7993	-0.105403	6.0708	0	
1.8000	-3.74181	5.4624	0	
1.8007	-2.84588	4.85399	0	
1.8013	3.26749	5.7666	0	
1.8020	2.95128	4.85399	0	
1.8027	-1.9236	0.886151	0	
1.8033	-2.84588	-1.86489	0	
1.8040	-3.74181	-3.69009	0	
1.8047	-3.45195	-5.52853	0	
1.8053	2.34522	-2.77749	0	
1.8060	3.55735	2.10296	0	
1.8067	-1.00133	1.19035	0	
1.8073	-1.9236	-2.16909	0	
1.8080	-0.71147	-1.25648	0	
1.8087	-2.84588	1.49455	0	
1.8093	-4.37422	1.79876	0	
1.8100	-5.58636	-0.0264523	0	
1.8107	-6.50863	-1.86489	0	
1.8113	-4.98029	-2.47329	0	
1.8120	-3.13574	-1.86489	0	
1.8127	-2.84588	-0.952282	0	
1.8133	-1.31754	0.58195	0	
1.8140	0.816873	0.886151	0	
1.8147	2.05536	-0.952282	0	
1.8153	2.34522	-2.77749	0	
1.8160	0.527015	-1.25648	0	
1.8167	0.210806	-0.0264523	0	
1.8173	2.66143	0.58195	0	
1.8180	2.66143	1.79876	0	
1.8187	2.05536	3.01556	0	
1.8193	2.34522	3.94139	0	
1.8200	-1.6074	5.15819	0	
1.8207	-2.52967	4.54979	0	
1.8213	5.4019	2.10296	0	
1.8220	8.14238	-0.0264523	0	
1.8227	-0.105403	-1.86489	0	
1.8233	-2.52967	-3.69009	0	
1.8240	4.47963	-2.77749	0	
1.8247	7.53631	-0.952282	0	
1.8253	6.32418	-1.86489	0	
1.8260	4.47963	-4.6027	0	
1.8267	1.42294	-4.6027	0	
1.8273	0.527015	-2.47329	0	
1.8280	4.47963	-0.648081	0	
1.8287	4.47963	-0.952282	0	
1.8293	-0.105403	-1.86489	0	
1.8300	-2.52967	-1.86489	0	
1.8307	-4.66408	-0.648081	0	
1.8313	-9.24911	-1.86489	0	
1.8320	-7.72077	-4.2985	0	
1.8327	-1.9236	-2.47329	0	
1.8333	-0.71147	2.40716	0	
1.8340	-2.84588	1.49455	0	
1.8347	-4.37422	-3.08169	0	
1.8353	-6.19242	-2.16909	0	
1.8360	-7.40456	-0.0264523	0	
1.8367	-4.98029	-0.952282	0	
1.8373	-2.84588	-0.330654	0	
1.8380	-3.45195	0.886151	0	
1.8387	-3.45195	-1.86489	0	
1.8393	0.210806	-1.25648	0	
1.8400	4.47963	2.10296	0	
1.8407	5.4019	-0.0264523	0	
1.8413	3.87356	-3.69009	0	
1.8420	-1.00133	-3.08169	0	
1.8427	-7.1147	-3.99429	0	
1.8433	-9.24911	-5.22433	0	
1.8440	-4.66408	-3.08169	0	
1.8447	1.73915	-2.77749	0	
1.8453	6.93025	-2.77749	0	
1.8460	9.67072	1.49455	0	
1.8467	8.45859	4.24559	0	
1.8473	6.00797	4.24559	0	
1.8480	9.06466	6.9834	0	
1.8487	13.3335	8.21343	0	
1.8493	9.06466	7.2876	0	
1.8500	1.42294	7.90923	0	
1.8507	-2.52967	6.375	0	
1.8513	-1.9236	1.79876	0	
1.8520	-1.9236	-0.0264523	0	
1.8527	-5.58636	-2.47329	0	
1.8533	-14.4402	-10.1048	0	
1.8540	-22.0556	-13.16	0	
1.8547	-24.8224	-10.1048	0	
1.8553	-22.688	-7.96214	0	
1.8560	-16.5746	-7.65794	0	
1.8567	-11.6997	-5.52853	0	
1.8573	-9.24911	-2.47329	0	
1.8580	-5.90257	0.886151	0	
1.8587	-4.37422	1.49455	0	
1.8593	-6.50863	-0.0264523	0	
1.8600	-3.74181	-0.0264523	0	
1.8607	0.527015	0.886151	0	
1.8613	-0.71147	-0.0264523	0	
1.8620	0.816873	1.19035	0	
1.8627	6.32418	3.01556	0	
1.8633	3.55735	1.49455	0	
1.8640	-0.395261	-0.952282	0	
1.8647	3.55735	-1.25648	0	
1.8653	6.32418	-3.69009	0	
1.8660	8.45859	-4.92012	0	
1.8667	13.6497	-1.86489	0	
1.8673	14.2558	-0.0264523	0	
1.8680	9.67072	-0.952282	0	
1.8687	8.14238	-0.648081	0	
1.8693	8.14238	-0.0264523	0	
1.8700	6.61404	-0.952282	0	
1.8707	3.87356	0.886151	0	
1.8713	-0.105403	2.71136	0	
1.8720	-4.66408	1.79876	0	
1.8727	-8.03698	-0.952282	0	
1.8733	-9.24911	-2.77749	0	
1.8740	-7.40456	-1.86489	0	
1.8747	-4.66408	0.886151	0	
1.8753	-1.00133	1.79876	0	
1.8760	3.87356	2.71136	0	
1.8767	6.00797	4.54979	0	
1.8773	1.42294	2.71136	0	
1.8780	-5.90257	-2.16909	0	
1.8787	-8.03698	-2.16909	0	
1.8793	1.42294	1.49455	0	
1.8800	14.5456	4.24559	0	
1.8807	19.7367	7.2876	0	
1.8813	19.4468	9.43024	0	
1.8820	20.0529	8.21343	0	
1.8827	15.4679	6.375	0	
1.8833	8.45859	6.375	0	
1.8840	2.95128	6.6792	0	
1.8847	-2.84588	4.85399	0	
1.8853	-7.40456	2.10296	0	
1.8860	-6.19242	-0.648081	0	
1.8867	-4.05801	-1.25648	0	
1.8873	-3.74181	-0.0264523	0	
1.8880	-3.45195	-1.56068	0	
1.8887	-5.58636	-5.52853	0	
1.8893	-7.40456	-5.52853	0	
1.8900	-6.19242	-2.77749	0	
1.8907	-6.79849	-2.16909	0	
1.8913	-4.66408	-3.69009	0	
1.8920	6.00797	-3.69009	0	
1.8927	12.7274	-1.86489	0	
1.8933	9.98693	0.886151	0	
1.8940	7.2201	2.71136	0	
1.8947	4.47963	2.71136	0	
1.8953	-1.00133	1.49455	0	
1.8960	-4.66408	-1.25648	0	
1.8967	-8.32684	-1.86489	0	
1.8973	-13.8341	-0.952282	0	
1.8980	-15.6523	-2.47329	0	
1.8987	-11.6997	-3.69009	0	
1.8993	-5.58636	0.886151	0	
1.9000	0.816873	3.01556	0	
1.9007	3.87356	-0.952282	0	
1.9013	-0.71147	-2.16909	0	
1.9020	-3.74181	-1.86489	0	
1.9027	-1.00133	-4.6027	0	
1.9033	0.210806	-4.92012	0	
1.9040	-0.105403	-1.25648	0	
1.9047	0.210806	-1.86489	0	
1.9053	-4.66408	-5.22433	0	
1.9060	-10.7775	-3.99429	0	
1.9067	-11.9896	-2.77749	0	
1.9073	-11.6997	-4.2985	0	
1.9080	-9.24911	-2.47329	0	
1.9087	-1.00133	1.79876	0	
1.9093	3.87356	2.71136	0	
1.9100	2.34522	1.19035	0	
1.9107	0.816873	-0.952282	0	
1.9113	-0.105403	-2.77749	0	
1.9120	0.816873	-2.16909	0	
1.9127	10.593	-0.0264523	0	
1.9133	20.659	0.277749	0	
1.9140	20.9752	-0.952282	0	
1.9147	20.0529	-1.25648	0	
1.9153	22.7934	-2.77749	0	
1.9160	20.659	-3.08169	0	
1.9167	14.2558	-0.0264523	0	
1.9173	6.93025	0.58195	0	
1.9180	-3.13574	-1.25648	0	
1.9187	-8.64304	1.19035	0	
1.9193	-4.05801	4.54979	0	
1.9200	-3.13574	2.71136	0	
1.9207	-10.4612	0.277749	0	
1.9213	-11.3835	-0.952282	0	
1.9220	-2.84588	0.58195	0	
1.9227	2.05536	7.5918	0	
1.9233	0.816873	11.5596	0	
1.9240	-1.9236	5.15819	0	
1.9247	-6.50863	0.277749	0	
1.9253	-10.4612	1.19035	0	
1.9260	-11.0673	-1.25648	0	
1.9267	-9.85518	-4.92012	0	
1.9273	-2.84588	-3.69009	0	
1.9280	6.32418	-0.952282	0	
1.9287	7.53631	0.886151	0	
1.9293	2.66143	-0.0264523	0	
1.9300	0.210806	-5.52853	0	
1.9307	-2.84588	-10.409	0	
1.9313	-7.72077	-8.88797	0	
1.9320	-4.98029	-7.35373	0	
1.9327	0.527015	-9.49637	0	
1.9333	-1.6074	-9.19217	0	
1.9340	-5.58636	-5.52853	0	
1.9347	-6.50863	-2.77749	0	
1.9353	-11.0673	-3.69009	0	
1.9360	-16.2584	-4.92012	0	
1.9367	-13.2281	-3.69009	0	
1.9373	-8.64304	-1.56068	0	
1.9380	-8.9329	-0.952282	0	
1.9387	-10.4612	0.277749	0	
1.9393	-9.24911	2.40716	0	
1.9400	-4.05801	0.58195	0	
1.9407	0.527015	-1.56068	0	
1.9413	-0.105403	2.10296	0	
1.9420	-2.84588	5.4624	0	
1.9427	-3.74181	3.63719	0	
1.9433	-4.66408	2.71136	0	
1.9440	-6.50863	5.15819	0	
1.9447	-7.1147	5.4624	0	
1.9453	-6.50863	5.4624	0	
1.9460	-5.27015	6.375	0	
1.9467	-3.74181	4.54979	0	
1.9473	0.816873	2.40716	0	
1.9480	7.85252	3.94139	0	
1.9487	10.2768	6.375	0	
1.9493	7.85252	5.4624	0	
1.9500	8.14238	4.54979	0	
1.9507	11.8051	4.54979	0	
1.9513	15.4679	3.63719	0	
1.9520	21.8711	2.71136	0	
1.9527	28.5906	3.63719	0	
1.9533	24.9278	4.85399	0	
1.9540	18.2084	5.4624	0	
1.9547	14.5456	5.15819	0	
1.9553	8.14238	3.63719	0	
1.9560	-0.105403	0.886151	0	
1.9567	-1.31754	-0.0264523	0	
1.9573	-0.395261	0.58195	0	
1.9580	-4.05801	-0.952282	0	
1.9587	-8.32684	-1.56068	0	
1.9593	-8.32684	-0.0264523	0	
1.9600	-5.90257	0.58195	0	
1.9607	-5.58636	-0.952282	0	
1.9613	-7.40456	-1.86489	0	
1.9620	-9.24911	-3.08169	0	
1.9627	-12.5957	-5.83273	0	
1.9633	-17.4969	-7.35373	0	
1.9640	-17.1807	-7.04953	0	
1.9647	-11.0673	-8.26634	0	
1.9653	-7.1147	-9.80057	0	
1.9660	-5.27015	-5.83273	0	
1.9667	-2.23981	-0.0264523	0	
1.9673	0.816873	0.886151	0	
1.9680	2.05536	-0.952282	0	
1.9687	2.66143	0.277749	0	
1.9693	3.55735	0.58195	0	
1.9700	5.4019	-0.648081	0	
1.9707	5.4019	-0.330654	0	
1.9713	2.95128	-0.952282	0	
1.9720	-0.105403	-1.25648	0	
1.9727	-1.9236	0.58195	0	
1.9733	-4.05801	-0.648081	0	
1.9740	-6.50863	-4.2985	0	
1.9747	-6.50863	-3.38589	0	
1.9753	-4.37422	-1.25648	0	
1.9760	-4.37422	-3.08169	0	
1.9767	-8.03698	-5.52853	0	
1.9773	-13.2281	-4.92012	0	
1.9780	-15.9686	-3.69009	0	
1.9787	-14.7301	-3.99429	0	
1.9793	-10.4612	-7.04953	0	
1.9800	-3.13574	-5.83273	0	
1.9807	0.210806	-0.648081	0	
1.9813	-4.66408	-0.952282	0	
1.9820	-7.1147	-4.92012	0	
1.9827	-1.9236	-3.99429	0	
1.9833	-0.395261	-1.86489	0	
1.9840	-2.84588	-1.25648	0	
1.9847	-0.105403	0.58195	0	
1.9853	1.73915	0.886151	0	
1.9860	0.527015	-0.952282	0	
1.9867	4.79584	2.40716	0	
1.9873	8.14238	6.375	0	
1.9880	4.47963	4.85399	0	
1.9887	5.4019	3.94139	0	
1.9893	9.38086	5.4624	0	
1.9900	7.85252	4.24559	0	
1.9907	6.32418	2.71136	0	
1.9913	8.14238	5.4624	0	
1.9920	5.4019	5.4624	0	
1.9927	-0.71147	0.886151	0	
1.9933	-2.23981	-0.0264523	0	
1.9940	-3.45195	1.79876	0	
1.9947	-6.79849	0.58195	0	
1.9953	-8.32684	-1.25648	0	
1.9960	-9.24911	0.886151	0	
1.9967	-11.9896	2.71136	0	
1.9973	-14.4402	0.886151	0	
1.9980	-14.4402	-0.330654	0	
1.9987	-10.1714	2.10296	0	
1.9993	-4.66408	5.15819	0	
2.0000	0.210806	4.54979	0	
2.0007	7.53631	3.31976	0	
2.0013	14.2558	4.85399	0	
2.0020	15.4679	6.6792	0	
2.0027	14.8618	5.15819	0	
2.0033	16.3902	1.19035	0	
2.0040	16.9962	-2.16909	0	
2.0047	17.9185	-3.08169	0	
2.0053	19.7367	-0.330654	0	
2.0060	18.2084	2.40716	0	
2.0067	13.0173	0.886151	0	
2.0073	8.74845	-1.86489	0	
2.0080	7.2201	-3.08169	0	
2.0087	8.14238	-3.08169	0	
2.0093	8.14238	-2.16909	0	
2.0100	5.4019	-1.25648	0	
2.0107	2.95128	-1.25648	0	
2.0113	1.13308	-0.952282	0	
2.0120	-1.00133	-0.0264523	0	
2.0127	-1.00133	0.886151	0	
2.0133	2.66143	2.40716	0	
2.0140	3.55735	2.40716	0	
2.0147	-0.105403	0.886151	0	
2.0153	-3.74181	0.886151	0	
2.0160	-5.90257	-0.0264523	0	
2.0167	-8.03698	-4.92012	0	
2.0173	-9.56532	-7.04953	0	
2.0180	-11.0673	-4.2985	0	
2.0187	-11.9896	-1.25648	0	
2.0193	-11.0673	-0.330654	0	
2.0200	-11.6997	-0.952282	0	
2.0207	-15.3625	-1.25648	0	
2.0213	-18.709	-0.952282	0	
2.0220	-18.709	-1.86489	0	
2.0227	-18.3928	-3.99429	0	
2.0233	-17.7868	-3.38589	0	
2.0240	-12.9119	-2.16909	0	
2.0247	-2.23981	-3.08169	0	
2.0253	6.61404	-3.69009	0	
2.0260	5.71811	-2.47329	0	
2.0267	-0.105403	0.886151	0	
2.0273	-0.105403	5.15819	0	
2.0280	4.79584	6.0708	0	
2.0287	6.61404	3.01556	0	
2.0293	4.47963	2.40716	0	
2.0300	-0.395261	3.94139	0	
2.0307	-7.1147	3.63719	0	
2.0313	-7.72077	3.01556	0	
2.0320	-1.00133	4.85399	0	
2.0327	0.527015	4.54979	0	
2.0333	-4.66408	-0.0264523	0	
2.0340	-4.66408	-2.47329	0	
2.0347	-2.52967	-1.25648	0	
2.0353	-6.19242	-4.92012	0	
2.0360	-7.1147	-11.6258	0	
2.0367	-1.00133	-11.93	0	
2.0373	1.73915	-7.04953	0	
2.0380	-0.105403	-5.22433	0	
2.0387	4.18977	-4.2985	0	
2.0393	9.67072	-0.952282	0	
2.0400	5.4019	-0.0264523	0	
2.0407	-2.84588	-0.952282	0	
2.0413	-4.05801	-0.952282	0	
2.0420	-0.105403	-0.648081	0	
2.0427	3.55735	-1.56068	0	
2.0433	7.2201	-0.330654	0	
2.0440	9.06466	2.10296	0	
2.0447	9.38086	4.54979	0	
2.0453	8.45859	6.375	0	
2.0460	8.14238	6.375	0	
2.0467	11.5153	3.94139	0	
2.0473	16.9962	2.71136	0	
2.0480	18.2084	2.71136	0	
2.0487	16.074	1.79876	0	
2.0493	17.3124	0.277749	0	
2.0500	18.5246	-1.25648	0	
2.0507	15.4679	-0.952282	0	
2.0513	9.98693	0.277749	0	
2.0520	1.42294	-0.0264523	0	
2.0527	-8.9329	-0.952282	0	
2.0533	-13.5179	0.277749	0	
2.0540	-14.124	-2.77749	0	
2.0547	-19.3151	-6.74533	0	
2.0553	-26.3507	-5.52853	0	
2.0560	-26.6406	-4.6027	0	
2.0567	-22.3718	-7.35373	0	
2.0573	-19.6313	-5.52853	0	
2.0580	-18.3928	-0.330654	0	
2.0587	-13.5179	0.277749	0	
2.0593	-5.58636	-0.648081	0	
2.0600	-0.105403	1.19035	0	
2.0607	2.34522	3.94139	0	
2.0613	5.08569	3.94139	0	
2.0620	6.32418	0.886151	0	
2.0627	5.71811	0.886151	0	
2.0633	8.74845	3.94139	0	
2.0640	13.9395	3.63719	0	
2.0647	16.9962	2.71136	0	
2.0653	17.9185	6.375	0	
2.0660	18.5246	6.9834	0	
2.0667	16.68	3.31976	0	
2.0673	14.2558	5.15819	0	
2.0680	14.5456	9.43024	0	
2.0687	13.6497	8.51763	0	
2.0693	9.06466	7.2876	0	
2.0700	5.71811	6.9834	0	
2.0707	5.4019	3.31976	0	
2.0713	4.18977	0.886151	0	
2.0720	-1.00133	2.10296	0	
2.0727	-7.1147	0.277749	0	
2.0733	-9.24911	-3.69009	0	
2.0740	-6.50863	-2.77749	0	
2.0747	-4.37422	0.886151	0	
2.0753	-2.84588	1.79876	0	
2.0760	-1.31754	-0.0264523	0	
2.0767	-3.74181	-3.08169	0	
2.0773	-6.50863	-5.83273	0	
2.0780	-4.66408	-5.83273	0	
2.0787	-4.98029	-4.6027	0	
2.0793	-9.85518	-3.99429	0	
2.0800	-9.24911	-1.86489	0	
2.0807	-5.58636	-0.952282	0	
2.0813	-7.40456	-3.99429	0	
2.0820	-9.24911	-5.83273	0	
2.0827	-8.9329	-4.92012	0	
2.0833	-11.0673	-3.08169	0	
2.0840	-11.9896	-0.952282	0	
2.0847	-7.72077	-0.952282	0	
2.0853	-3.74181	-3.38589	0	
2.0860	-0.71147	-5.52853	0	
2.0867	2.95128	-5.52853	0	
2.0873	3.87356	-6.44113	0	
2.0880	-1.9236	-6.44113	0	
2.0887	-9.24911	-4.6027	0	
2.0893	-10.1714	-3.69009	0	
2.0900	-5.90257	-5.52853	0	
2.0907	-3.74181	-5.52853	0	
2.0913	-3.45195	-1.86489	0	
2.0920	-3.74181	0.886151	0	
2.0927	-3.45195	1.49455	0	
2.0933	-0.71147	1.79876	0	
2.0940	-1.00133	0.58195	0	
2.0947	-7.72077	-1.25648	0	
2.0953	-11.6997	0.277749	0	
2.0960	-7.72077	3.01556	0	
2.0967	-2.52967	3.63719	0	
2.0973	-1.00133	3.31976	0	
2.0980	-3.13574	2.71136	0	
2.0987	-5.90257	1.19035	0	
2.0993	-5.58636	0.886151	0	
2.1000	-4.66408	1.19035	0	
2.1007	-5.58636	1.19035	0	
2.1013	-5.27015	-0.0264523	0	
2.1020	-1.9236	0.277749	0	
2.1027	2.66143	2.71136	0	
2.1033	6.32418	3.63719	0	
2.1040	11.1991	0.58195	0	
2.1047	15.178	-2.47329	0	
2.1053	12.7274	-0.330654	0	
2.1060	8.14238	2.10296	0	
2.1067	7.2201	2.10296	0	
2.1073	6.61404	2.10296	0	
2.1080	2.66143	2.71136	0	
2.1087	2.05536	2.71136	0	
2.1093	2.95128	3.63719	0	
2.1100	-1.6074	2.10296	0	
2.1107	-6.19242	-1.25648	0	
2.1113	-4.66408	-1.86489	0	
2.1120	-3.74181	-1.86489	0	
2.1127	-6.19242	-3.38589	0	
2.1133	-9.85518	-0.952282	0	
2.1140	-11.3835	3.63719	0	
2.1147	-9.24911	1.19035	0	
2.1153	-10.1714	-5.22433	0	
2.1160	-16.5746	-6.13693	0	
2.1167	-17.7868	-1.56068	0	
2.1173	-13.8341	0.277749	0	
2.1180	-12.9119	-1.25648	0	
2.1187	-10.4612	-1.56068	0	
2.1193	-5.27015	-0.952282	0	
2.1200	-4.66408	-3.69009	0	
2.1207	-1.31754	-5.22433	0	
2.1213	10.8829	-1.25648	0	
2.1220	22.7934	1.49455	0	
2.1227	28.9068	-0.0264523	0	
2.1233	31.0412	0.58195	0	
2.1240	27.6683	1.49455	0	
2.1247	23.7157	-0.952282	0	
2.1253	24.0055	-1.56068	0	
2.1260	23.7157	-0.0264523	0	
2.1267	20.0529	-1.56068	0	
2.1273	13.6497	-3.69009	0	
2.1280	3.55735	-3.08169	0	
2.1287	-2.52967	-3.38589	0	
2.1293	1.13308	-3.99429	0	
2.1300	2.66143	-4.6027	0	
2.1307	-3.74181	-6.74533	0	
2.1313	-5.27015	-7.35373	0	
2.1320	-1.31754	-3.69009	0	
2.1327	-2.84588	-3.38589	0	
2.1333	-5.58636	-4.92012	0	
2.1340	-1.31754	-0.330654	0	
2.1347	2.66143	2.40716	0	
2.1353	2.05536	-0.952282	0	
2.1360	2.66143	-0.330654	0	
2.1367	5.4019	3.94139	0	
2.1373	5.08569	3.01556	0	
2.1380	2.95128	2.40716	0	
2.1387	1.13308	4.85399	0	
2.1393	-1.6074	3.31976	0	
2.1400	-0.71147	0.277749	0	
2.1407	2.66143	2.71136	0	
2.1413	0.816873	2.71136	0	
2.1420	-4.37422	-1.25648	0	
2.1427	-4.66408	-2.16909	0	
2.1433	-5.27015	-2.16909	0	
2.1440	-9.24911	-4.6027	0	
2.1447	-12.5957	-7.35373	0	
2.1453	-14.7301	-7.04953	0	
2.1460	-14.4402	-4.2985	0	
2.1467	-11.0673	-0.952282	0	
2.1473	-6.79849	-0.0264523	0	
2.1480	-2.52967	0.277749	0	
2.1487	2.95128	1.79876	0	
2.1493	6.00797	2.40716	0	
2.1500	5.4019	0.58195	0	
2.1507	4.47963	-0.330654	0	
2.1513	1.42294	-1.25648	0	
2.1520	-4.98029	-2.77749	0	
2.1527	-10.1714	-2.77749	0	
2.1533	-11.9896	-1.86489	0	
2.1540	-10.1714	-0.952282	0	
2.1547	-5.58636	0.886151	0	
2.1553	-1.6074	1.19035	0	
2.1560	1.42294	0.277749	0	
2.1567	6.00797	2.40716	0	
2.1573	8.74845	3.63719	0	
2.1580	6.93025	2.71136	0	
2.1587	6.00797	4.54979	0	
2.1593	6.93025	4.54979	0	
2.1600	4.47963	-0.648081	0	
2.1607	-0.105403	-3.99429	0	
2.1613	-2.84588	-4.6027	0	
2.1620	-5.58636	-6.74533	0	
2.1627	-7.40456	-6.74533	0	
2.1633	-6.50863	-4.6027	0	
2.1640	-4.98029	-4.6027	0	
2.1647	-5.27015	-4.6027	0	
2.1653	-4.66408	-2.47329	0	
2.1660	-1.6074	-1.56068	0	
2.1667	0.816873	-2.47329	0	
2.1673	-0.395261	-2.77749	0	
2.1680	-1.00133	-2.47329	0	
2.1687	1.73915	-0.330654	0	
2.1693	2.05536	1.79876	0	
2.1700	-1.00133	1.79876	0	
2.1707	-1.00133	1.19035	0	
2.1713	1.73915	2.71136	0	
2.1720	2.34522	2.71136	0	
2.1727	1.73915	-0.0264523	0	
2.1733	2.66143	-0.648081	0	
2.1740	3.55735	1.79876	0	
2.1747	5.08569	1.79876	0	
2.1753	5.08569	1.49455	0	
2.1760	2.95128	4.24559	0	
2.1767	2.05536	6.0708	0	
2.1773	2.66143	5.7666	0	
2.1780	0.816873	6.0708	0	
2.1787	-1.6074	4.54979	0	
2.1793	-1.00133	2.10296	0	
2.1800	-0.105403	1.79876	0	
2.1807	-2.84588	0.886151	0	
2.1813	-4.66408	-1.25648	0	
2.1820	-5.58636	-0.330654	0	
2.1827	-9.24911	-0.648081	0	
2.1833	-12.3058	-5.22433	0	
2.1840	-12.9119	-8.88797	0	
2.1847	-13.5179	-9.19217	0	
2.1853	-13.2281	-9.49637	0	
2.1860	-11.0673	-10.1048	0	
2.1867	-9.85518	-7.65794	0	
2.1873	-6.79849	-3.69009	0	
2.1880	-1.00133	-1.56068	0	
2.1887	0.816873	-0.0264523	0	
2.1893	0.210806	2.10296	0	
2.1900	4.79584	2.10296	0	
2.1907	10.593	0.277749	0	
2.1913	8.45859	0.886151	0	
2.1920	1.73915	0.886151	0	
2.1927	0.816873	-3.69009	0	
2.1933	1.42294	-4.6027	0	
2.1940	-0.105403	0.886151	0	
2.1947	2.05536	1.79876	0	
2.1953	6.32418	-2.16909	0	
2.1960	4.79584	-2.47329	0	
2.1967	-0.105403	-1.56068	0	
2.1973	-3.74181	-2.47329	0	
2.1980	-6.50863	-1.25648	0	
2.1987	-6.19242	0.277749	0	
2.1993	-2.84588	-0.648081	0	
2.2000	-1.6074	-0.0264523	0	
2.2007	0.210806	2.10296	0	
2.2013	3.55735	1.49455	0	
2.2020	3.26749	-0.0264523	0	
2.2027	0.210806	-0.952282	0	
2.2033	-1.31754	-1.86489	0	
2.2040	-1.6074	-1.86489	0	
2.2047	-1.6074	-0.648081	0	
2.2053	0.210806	-0.952282	0	
2.2060	2.66143	-2.16909	0	
2.2067	2.95128	-1.86489	0	
2.2073	1.13308	-0.952282	0	
2.2080	0.210806	0.886151	0	
2.2087	0.816873	0.886151	0	
2.2093	-1.00133	-1.25648	0	
2.2100	-3.13574	-0.952282	0	
2.2107	-2.84588	0.886151	0	
2.2113	-3.74181	-0.330654	0	
2.2120	-5.58636	-0.0264523	0	
2.2127	-4.05801	3.31976	0	
2.2133	-1.9236	4.24559	0	
2.2140	-2.84588	3.01556	0	
2.2147	-2.84588	3.63719	0	
2.2153	1.13308	4.24559	0	
2.2160	4.47963	4.24559	0	
2.2167	2.66143	2.71136	0	
2.2173	-1.9236	0.886151	0	
2.2180	1.73915	1.49455	0	
2.2187	13.3335	0.58195	0	
2.2193	18.5246	-3.38589	0	
2.2200	11.1991	-5.52853	0	
2.2207	4.47963	-3.69009	0	
2.2213	2.95128	-1.86489	0	
2.2220	0.210806	-1.56068	0	
2.2227	-4.66408	-0.648081	0	
2.2233	-6.50863	0.886151	0	
2.2240	-4.66408	1.79876	0	
2.2247	-1.31754	2.10296	0	
2.2253	-0.105403	2.71136	0	
2.2260	-1.9236	3.01556	0	
2.2267	0.210806	3.63719	0	
2.2273	9.98693	4.54979	0	
2.2280	19.4468	3.94139	0	
2.2287	19.7367	3.31976	0	
2.2293	15.7841	3.94139	0	
2.2300	13.0173	3.01556	0	
2.2307	8.14238	0.886151	0	
2.2313	0.527015	0.886151	0	
2.2320	-2.84588	-0.0264523	0	
2.2327	-1.9236	-4.2985	0	
2.2333	-3.45195	-6.44113	0	
2.2340	-7.40456	-5.83273	0	
2.2347	-6.79849	-4.6027	0	
2.2353	-2.84588	-0.330654	0	
2.2360	-1.6074	2.71136	0	
2.2367	-2.23981	0.58195	0	
2.2373	-1.9236	-0.0264523	0	
2.2380	-1.9236	3.63719	0	
2.2387	-4.37422	3.63719	0	
2.2393	-4.66408	2.10296	0	
2.2400	-0.105403	4.24559	0	
2.2407	2.66143	5.7666	0	
2.2413	-1.6074	5.7666	0	
2.2420	-4.66408	6.0708	0	
2.2427	-3.45195	2.71136	0	
2.2433	-6.50863	-0.952282	0	
2.2440	-10.1714	1.49455	0	
2.2447	-4.66408	3.63719	0	
2.2453	0.816873	0.886151	0	
2.2460	0.527015	-0.0264523	0	
2.2467	0.527015	2.10296	0	
2.2473	-1.00133	1.49455	0	
2.2480	-4.98029	0.886151	0	
2.2487	-3.74181	1.49455	0	
2.2493	-1.6074	-0.0264523	0	
2.2500	-3.45195	-2.16909	0	
2.2507	-1.00133	-1.25648	0	
2.2513	4.18977	0.277749	0	
2.2520	4.79584	0.58195	0	
2.2527	5.08569	0.277749	0	
2.2533	4.47963	0.886151	0	
2.2540	-1.31754	1.79876	0	
2.2547	-4.66408	2.10296	0	
2.2553	-4.66408	1.19035	0	
2.2560	-8.32684	0.277749	0	
2.2567	-12.9119	-0.0264523	0	
2.2573	-8.64304	-0.952282	0	
2.2580	-1.00133	-2.77749	0	
2.2587	1.13308	-1.86489	0	
2.2593	-1.00133	-1.25648	0	
2.2600	-1.9236	-1.86489	0	
2.2607	-1.9236	-2.47329	0	
2.2613	-1.6074	-3.08169	0	
2.2620	0.210806	-4.92012	0	
2.2627	1.73915	-2.77749	0	
2.2633	0.816873	2.40716	0	
2.2640	0.816873	2.10296	0	
2.2647	-0.105403	-0.952282	0	
2.2653	-4.05801	-1.86489	0	
2.2660	-4.37422	-3.69009	0	
2.2667	-1.6074	-6.44113	0	
2.2673	-3.74181	-4.2985	0	
2.2680	-3.74181	-2.16909	0	
2.2687	3.87356	-5.52853	0	
2.2693	6.00797	-5.83273	0	
2.2700	1.42294	-1.86489	0	
2.2707	2.66143	-0.0264523	0	
2.2713	6.32418	1.49455	0	
2.2720	6.32418	3.31976	0	
2.2727	7.85252	2.71136	0	
2.2733	10.2768	1.79876	0	
2.2740	9.67072	3.63719	0	
2.2747	8.14238	5.4624	0	
2.2753	7.53631	6.6792	0	
2.2760	5.71811	7.2876	0	
2.2767	2.95128	6.9834	0	
2.2773	-0.395261	7.90923	0	
2.2780	-5.58636	7.90923	0	
2.2787	-8.32684	5.15819	0	
2.2793	-4.98029	3.31976	0	
2.2800	-2.23981	2.10296	0	
2.2807	-2.84588	-0.648081	0	
2.2813	-1.31754	-2.16909	0	
2.2820	-1.00133	-2.77749	0	
2.2827	-6.19242	-4.2985	0	
2.2833	-6.79849	-3.69009	0	
2.2840	-2.52967	-3.38589	0	
2.2847	-4.05801	-7.04953	0	
2.2853	-7.40456	-10.1048	0	
2.2860	-4.37422	-9.19217	0	
2.2867	-1.9236	-7.35373	0	
2.2873	-2.84588	-5.52853	0	
2.2880	-0.71147	-3.69009	0	
2.2887	1.73915	-2.47329	0	
2.2893	-0.395261	-0.648081	0	
2.2900	-2.23981	0.886151	0	
2.2907	-1.00133	1.19035	0	
2.2913	-0.105403	0.886151	0	
2.2920	-4.05801	0.886151	0	
2.2927	-9.24911	-0.0264523	0	
2.2933	-9.56532	-0.0264523	0	
2.2940	-5.90257	-0.0264523	0	
2.2947	-4.66408	-1.25648	0	
2.2953	-6.50863	-1.86489	0	
2.2960	-6.19242	-0.952282	0	
2.2967	-2.23981	-0.952282	0	
2.2973	-4.66408	-2.16909	0	
2.2980	-12.5957	0.58195	0	
2.2987	-15.0463	4.24559	0	
2.2993	-12.3058	3.31976	0	
2.3000	-11.6997	3.01556	0	
2.3007	-10.4612	5.4624	0	
2.3013	-6.19242	4.24559	0	
2.3020	-3.74181	0.886151	0	
2.3027	-1.9236	0.58195	0	
2.3033	0.527015	0.886151	0	
2.3040	-0.105403	-0.0264523	0	
2.3047	0.210806	1.49455	0	
2.3053	5.71811	2.71136	0	
2.3060	11.5153	-0.0264523	0	
2.3067	16.9962	-1.56068	0	
2.3073	23.7157	-0.330654	0	
2.3080	24.0055	-1.56068	0	
2.3087	14.8618	-3.08169	0	
2.3093	9.06466	0.58195	0	
2.3100	8.74845	3.01556	0	
2.3107	1.73915	-0.648081	0	
2.3113	-3.74181	-1.86489	0	
2.3120	1.73915	1.49455	0	
2.3127	2.66143	0.886151	0	
2.3133	-6.79849	-2.77749	0	
2.3140	-8.32684	-3.69009	0	
2.3147	-5.27015	-4.2985	0	
2.3153	-10.1714	-3.99429	0	
2.3160	-11.9896	-1.25648	0	
2.3167	-4.05801	-0.330654	0	
2.3173	-1.00133	-1.86489	0	
2.3180	-4.98029	-1.86489	0	
2.3187	-6.50863	-2.77749	0	
2.3193	-5.58636	-5.22433	0	
2.3200	-4.05801	-5.83273	0	
2.3207	-1.00133	-6.44113	0	
2.3213	1.73915	-6.44113	0	
2.3220	4.79584	-3.08169	0	
2.3227	9.06466	-0.648081	0	
2.3233	10.593	-0.952282	0	
2.3240	10.2768	-1.86489	0	
2.3247	11.1991	-1.86489	0	
2.3253	10.2768	-1.86489	0	
2.3260	9.06466	-0.648081	0	
2.3267	12.1213	0.886151	0	
2.3273	13.6497	-0.0264523	0	
2.3280	9.98693	-0.0264523	0	
2.3287	3.87356	0.886151	0	
2.3293	-1.9236	-1.86489	0	
2.3300	-4.37422	-5.22433	0	
2.3307	-2.84588	-1.56068	0	
2.3313	-3.45195	3.63719	0	
2.3320	-4.98029	2.71136	0	
2.3327	-2.84588	-0.330654	0	
2.3333	-2.23981	-0.648081	0	
2.3340	-4.37422	-0.648081	0	
2.3347	-5.58636	-0.648081	0	
2.3353	-9.56532	-1.86489	0	
2.3360	-13.5179	-3.69009	0	
2.3367	-8.9329	-1.86489	0	
2.3373	-0.71147	2.10296	0	
2.3380	3.87356	0.886151	0	
2.3387	8.14238	0.277749	0	
2.3393	10.8829	3.94139	0	
2.3400	8.14238	4.85399	0	
2.3407	3.55735	2.10296	0	
2.3413	0.527015	2.10296	0	
2.3420	-1.9236	2.40716	0	
2.3427	-1.6074	-0.0264523	0	
2.3433	-2.23981	-1.86489	0	
2.3440	-5.58636	-0.952282	0	
2.3447	-1.31754	0.58195	0	
2.3453	7.2201	1.19035	0	
2.3460	6.00797	-0.330654	0	
2.3467	1.73915	-2.77749	0	
2.3473	4.47963	-4.2985	0	
2.3480	4.79584	-6.13693	0	
2.3487	0.816873	-7.35373	0	
2.3493	-0.395261	-7.35373	0	
2.3500	-4.66408	-8.26634	0	
2.3507	-8.9329	-7.65794	0	
2.3513	-2.84588	-4.6027	0	
2.3520	2.66143	-3.38589	0	
2.3527	-2.84588	-3.69009	0	
2.3533	-7.1147	-2.77749	0	
2.3540	-5.58636	-3.69009	0	
2.3547	-6.50863	-4.2985	0	
2.3553	-9.85518	-0.952282	0	
2.3560	-12.9119	0.58195	0	
2.3567	-14.124	-4.2985	0	
2.3573	-11.0673	-7.35373	0	
2.3580	-7.72077	-7.35373	0	
2.3587	-8.9329	-6.44113	0	
2.3593	-8.64304	-3.69009	0	
2.3600	-7.40456	-1.86489	0	
2.3607	-9.56532	-0.952282	0	
2.3613	-9.24911	2.71136	0	
2.3620	-5.90257	4.85399	0	
2.3627	-4.66408	3.94139	0	
2.3633	-2.52967	5.4624	0	
2.3640	-0.105403	6.6792	0	
2.3647	-0.105403	2.71136	0	
2.3653	3.55735	-0.0264523	0	
2.3660	10.8829	1.79876	0	
2.3667	14.8618	3.63719	0	
2.3673	14.5456	5.4624	0	
2.3680	14.8618	6.0708	0	
2.3687	12.1213	3.63719	0	
2.3693	8.45859	3.31976	0	
2.3700	8.14238	4.24559	0	
2.3707	7.85252	2.10296	0	
2.3713	3.87356	0.886151	0	
2.3720	3.26749	3.01556	0	
2.3727	8.14238	4.24559	0	
2.3733	9.67072	3.01556	0	
2.3740	6.32418	2.71136	0	
2.3747	5.71811	3.63719	0	
2.3753	8.14238	4.54979	0	
2.3760	7.2201	4.54979	0	
2.3767	4.47963	3.63719	0	
2.3773	6.32418	2.40716	0	
2.3780	8.14238	1.79876	0	
2.3787	4.47963	1.49455	0	
2.3793	-0.105403	2.71136	0	
2.3800	0.816873	4.24559	0	
2.3807	2.95128	2.40716	0	
2.3813	-0.105403	0.886151	0	
2.3820	-3.45195	0.886151	0	
2.3827	-2.84588	1.19035	0	
2.3833	-2.84588	1.79876	0	
2.3840	-4.66408	2.10296	0	
2.3847	-2.23981	-0.0264523	0	
2.3853	2.95128	-2.16909	0	
2.3860	3.55735	-0.952282	0	
2.3867	-0.395261	-0.648081	0	
2.3873	-5.27015	-2.77749	0	
2.3880	-10.1714	-6.13693	0	
2.3887	-16.8645	-8.88797	0	
2.3893	-23.9001	-10.409	0	
2.3900	-25.7183	-9.80057	0	
2.3907	-25.1123	-8.88797	0	
2.3913	-26.0345	-8.26634	0	
2.3920	-23.5839	-5.52853	0	
2.3927	-16.8645	-2.77749	0	
2.3933	-14.124	-1.86489	0	
2.3940	-16.5746	-2.77749	0	
2.3947	-15.0463	-3.08169	0	
2.3953	-6.50863	-1.86489	0	
2.3960	2.95128	0.58195	0	
2.3967	6.93025	3.63719	0	
2.3973	8.14238	4.54979	0	
2.3980	8.14238	3.63719	0	
2.3987	5.71811	4.54979	0	
2.3993	7.2201	6.9834	0	
2.4000	11.8051	7.2876	0	
2.4007	7.85252	5.15819	0	
2.4013	1.13308	3.94139	0	
2.4020	1.73915	1.79876	0	
2.4027	-0.105403	0.277749	0	
2.4033	-5.27015	0.58195	0	
2.4040	-1.9236	-0.648081	0	
2.4047	3.55735	-3.08169	0	
2.4053	0.816873	-3.08169	0	
2.4060	-2.84588	-3.38589	0	
2.4067	-1.6074	-4.92012	0	
2.4073	1.42294	-2.77749	0	
2.4080	3.87356	0.58195	0	
2.4087	6.93025	0.277749	0	
2.4093	14.8618	-0.330654	0	
2.4100	26.1399	-0.0264523	0	
2.4107	27.3784	0.58195	0	
2.4113	19.1306	1.19035	0	
2.4120	12.4112	1.79876	0	
2.4127	9.06466	1.79876	0	
2.4133	4.47963	2.40716	0	
2.4140	-0.105403	1.79876	0	
2.4147	-1.00133	-0.0264523	0	
2.4153	-0.71147	-2.16909	0	
2.4160	-3.74181	-3.38589	0	
2.4167	-7.40456	-3.08169	0	
2.4173	-6.50863	-1.86489	0	
2.4180	-4.66408	-0.0264523	0	
2.4187	-4.66408	0.58195	0	
2.4193	-4.66408	-0.648081	0	
2.4200	-5.58636	-3.69009	0	
2.4207	-10.1714	-3.69009	0	
2.4213	-12.9119	-1.86489	0	
2.4220	-10.4612	-1.25648	0	
2.4227	-7.72077	-0.0264523	0	
2.4233	-6.50863	1.79876	0	
2.4240	-2.52967	-0.0264523	0	
2.4247	1.73915	-3.38589	0	
2.4253	1.13308	-2.16909	0	
2.4260	-2.23981	-0.648081	0	
2.4267	-1.00133	-1.25648	0	
2.4273	0.816873	-1.25648	0	
2.4280	-1.9236	-0.330654	0	
2.4287	-2.52967	-1.25648	0	
2.4293	1.73915	-3.08169	0	
2.4300	3.55735	-3.08169	0	
2.4307	4.79584	-0.952282	0	
2.4313	9.06466	0.277749	0	
2.4320	9.06466	0.58195	0	
2.4327	3.26749	1.19035	0	
2.4333	-0.71147	0.58195	0	
2.4340	-0.395261	-0.330654	0	
2.4347	-1.6074	0.277749	0	
2.4353	-1.9236	-0.0264523	0	
2.4360	0.210806	-0.952282	0	
2.4367	-2.84588	0.277749	0	
2.4373	-10.1714	0.58195	0	
2.4380	-10.7775	-0.0264523	0	
2.4387	-8.03698	1.19035	0	
2.4393	-9.56532	1.19035	0	
2.4400	-9.56532	-1.86489	0	
2.4407	-6.50863	-3.69009	0	
2.4413	-5.90257	-4.92012	0	
2.4420	-6.19242	-4.6027	0	
2.4427	-3.74181	-3.08169	0	
2.4433	-3.13574	-4.6027	0	
2.4440	-1.9236	-6.13693	0	
2.4447	1.13308	-2.16909	0	
2.4453	1.42294	-1.56068	0	
2.4460	-0.105403	-4.6027	0	
2.4467	2.66143	-3.08169	0	
2.4473	8.14238	0.886151	0	
2.4480	12.1213	0.277749	0	
2.4487	11.1991	-0.952282	0	
2.4493	7.2201	0.58195	0	
2.4500	5.71811	0.886151	0	
2.4507	6.00797	-0.0264523	0	
2.4513	3.55735	-0.0264523	0	
2.4520	2.66143	-0.952282	0	
2.4527	2.34522	-2.16909	0	
2.4533	-1.6074	-2.47329	0	
2.4540	-2.84588	-0.952282	0	
2.4547	1.73915	0.58195	0	
2.4553	-0.105403	1.19035	0	
2.4560	-6.50863	0.277749	0	
2.4567	-5.58636	-0.952282	0	
2.4573	-1.31754	-0.0264523	0	
2.4580	-1.00133	1.79876	0	
2.4587	-1.00133	2.40716	0	
2.4593	-0.71147	3.63719	0	
2.4600	-0.105403	5.4624	0	
2.4607	1.42294	3.63719	0	
2.4613	0.816873	0.886151	0	
2.4620	-2.23981	-0.648081	0	
2.4627	-3.74181	-2.77749	0	
2.4633	-2.52967	-3.69009	0	
2.4640	-1.00133	-1.56068	0	
2.4647	-1.6074	-0.952282	0	
2.4653	-3.13574	-3.08169	0	
2.4660	-2.52967	-4.6027	0	
2.4667	-1.00133	-5.52853	0	
2.4673	-2.23981	-4.6027	0	
2.4680	-3.74181	-2.16909	0	
2.4687	-4.66408	-1.86489	0	
2.4693	-9.85518	-2.77749	0	
2.4700	-13.5179	-1.56068	0	
2.4707	-7.40456	-0.648081	0	
2.4713	3.26749	-0.330654	0	
2.4720	9.67072	1.19035	0	
2.4727	11.8051	1.49455	0	
2.4733	9.38086	-0.330654	0	
2.4740	3.55735	0.277749	0	
2.4747	2.66143	3.63719	0	
2.4753	5.4019	5.4624	0	
2.4760	1.42294	4.54979	0	
2.4767	-4.05801	3.63719	0	
2.4773	-1.00133	4.85399	0	
2.4780	2.05536	5.7666	0	
2.4787	-2.84588	3.63719	0	
2.4793	-3.74181	1.79876	0	
2.4800	1.73915	2.71136	0	
2.4807	1.73915	2.71136	0	
2.4813	-1.9236	-0.0264523	0	
2.4820	-1.6074	-0.648081	0	
2.4827	-3.45195	0.886151	0	
2.4833	-7.1147	0.886151	0	
2.4840	-8.03698	-0.330654	0	
2.4847	-8.03698	0.886151	0	
2.4853	-4.98029	1.79876	0	
2.4860	2.34522	1.79876	0	
2.4867	3.87356	1.79876	0	
2.4873	-0.105403	3.63719	0	
2.4880	0.816873	2.71136	0	
2.4887	5.08569	0.886151	0	
2.4893	3.55735	1.19035	0	
2.4900	-1.00133	3.31976	0	
2.4907	-2.84588	1.79876	0	
2.4913	-4.05801	-1.25648	0	
2.4920	-5.58636	-2.16909	0	
2.4927	-4.98029	-3.08169	0	
2.4933	-2.23981	-5.52853	0	
2.4940	-3.13574	-5.22433	0	
2.4947	-6.79849	-2.47329	0	
2.4953	-2.84588	-1.86489	0	
2.4960	4.79584	-0.952282	0	
2.4967	5.08569	0.886151	0	
2.4973	7.53631	0.886151	0	
2.4980	15.178	0.886151	0	
2.4987	13.6497	3.63719	0	
2.4993	6.00797	4.24559	0	
2.5000	5.08569	3.63719	0	
2.5007	5.71811	5.15819	0	
2.5013	3.26749	3.63719	0	
2.5020	3.55735	0.58195	0	
2.5027	4.18977	0.277749	0	
2.5033	-1.00133	-0.952282	0	
2.5040	-4.66408	-2.77749	0	
2.5047	-3.13574	-0.952282	0	
2.5053	-2.84588	0.886151	0	
2.5060	-3.74181	-0.952282	0	
2.5067	-4.37422	-1.25648	0	
2.5073	-3.74181	-0.0264523	0	
2.5080	-2.52967	-0.330654	0	
2.5087	-1.9236	-0.0264523	0	
2.5093	-4.66408	0.58195	0	
2.5100	-5.58636	0.886151	0	
2.5107	-2.84588	1.79876	0	
2.5113	-2.23981	3.01556	0	
2.5120	-3.45195	4.24559	0	
2.5127	-2.84588	3.63719	0	
2.5133	-0.395261	-0.0264523	0	
2.5140	3.55735	-1.86489	0	
2.5147	7.2201	1.49455	0	
2.5153	6.00797	1.79876	0	
2.5160	4.79584	-2.77749	0	
2.5167	6.61404	-4.6027	0	
2.5173	4.18977	-2.77749	0	
2.5180	-4.66408	-1.56068	0	
2.5187	-11.9896	0.58195	0	
2.5193	-12.9119	-0.0264523	0	
2.5200	-9.24911	-3.08169	0	
2.5207	-5.27015	-3.08169	0	
2.5213	-4.37422	-0.648081	0	
2.5220	-4.37422	-0.0264523	0	
2.5227	-1.31754	-0.952282	0	
2.5233	1.73915	-1.86489	0	
2.5240	3.55735	-4.2985	0	
2.5247	5.71811	-5.83273	0	
2.5253	5.4019	-3.69009	0	
2.5260	1.73915	-0.0264523	0	
2.5267	0.816873	0.277749	0	
2.5273	3.87356	-2.47329	0	
2.5280	6.32418	-4.2985	0	
2.5287	4.47963	-3.69009	0	
2.5293	-0.105403	-2.47329	0	
2.5300	-1.9236	-1.56068	0	
2.5307	0.210806	-0.952282	0	
2.5313	-0.105403	0.277749	0	
2.5320	-2.84588	2.40716	0	
2.5327	-3.74181	3.01556	0	
2.5333	-3.74181	0.886151	0	
2.5340	-4.66408	-1.86489	0	
2.5347	-1.9236	-3.08169	0	
2.5353	3.55735	-2.16909	0	
2.5360	8.45859	1.79876	0	
2.5367	11.1991	5.7666	0	
2.5373	10.2768	4.24559	0	
2.5380	6.61404	1.79876	0	
2.5387	3.26749	2.71136	0	
2.5393	0.210806	2.40716	0	
2.5400	-3.13574	-0.330654	0	
2.5407	-4.98029	-2.77749	0	
2.5413	-6.50863	-4.2985	0	
2.5420	-8.32684	-3.69009	0	
2.5427	-7.72077	-2.77749	0	
2.5433	-3.74181	-2.77749	0	
2.5440	-0.105403	-1.25648	0	
2.5447	2.66143	2.10296	0	
2.5453	8.14238	4.24559	0	
2.5460	14.2558	6.6792	0	
2.5467	16.074	7.5918	0	
2.5473	14.5456	3.94139	0	
2.5480	12.7274	1.79876	0	
2.5487	9.98693	3.31976	0	
2.5493	7.2201	2.10296	0	
2.5500	5.4019	-0.952282	0	
2.5507	1.73915	-0.952282	0	
2.5513	-1.00133	-2.47329	0	
2.5520	-1.9236	-7.04953	0	
2.5527	-5.90257	-8.57054	0	
2.5533	-10.7775	-5.52853	0	
2.5540	-10.4612	-3.69009	0	
2.5547	-12.9119	-5.22433	0	
2.5553	-20.2374	-4.92012	0	
2.5560	-22.0556	-2.16909	0	
2.5567	-17.4969	-2.47329	0	
2.5573	-14.124	-3.99429	0	
2.5580	-11.9896	-1.86489	0	
2.5587	-10.1714	1.19035	0	
2.5593	-7.72077	2.10296	0	
2.5600	-3.13574	3.63719	0	
2.5607	-2.84588	3.63719	0	
2.5613	-4.98029	1.49455	0	
2.5620	-0.395261	1.49455	0	
2.5627	5.4019	3.01556	0	
2.5633	1.73915	3.63719	0	
2.5640	-3.13574	4.54979	0	
2.5647	-2.84588	3.01556	0	
2.5653	-7.40456	-1.86489	0	
2.5660	-14.124	-5.52853	0	
2.5667	-12.3058	-6.13693	0	
2.5673	-10.1714	-6.13693	0	
2.5680	-11.9896	-4.6027	0	
2.5687	-4.66408	-2.16909	0	
2.5693	5.4019	-2.77749	0	
2.5700	0.816873	-3.08169	0	
2.5707	-5.58636	-1.86489	0	
2.5713	-1.31754	-1.25648	0	
2.5720	1.42294	-2.77749	0	
2.5727	-1.00133	-3.08169	0	
2.5733	-1.00133	-1.56068	0	
2.5740	-0.71147	-0.648081	0	
2.5747	-1.6074	-1.86489	0	
2.5753	0.210806	-2.77749	0	
2.5760	-1.9236	-2.47329	0	
2.5767	-7.72077	-2.77749	0	
2.5773	-6.19242	-3.99429	0	
2.5780	1.73915	-2.77749	0	
2.5787	7.85252	-0.648081	0	
2.5793	12.7274	-0.952282	0	
2.5800	14.5456	-1.56068	0	
2.5807	7.85252	-0.330654	0	
2.5813	-3.45195	0.58195	0	
2.5820	-8.32684	0.277749	0	
2.5827	-8.9329	-0.0264523	0	
2.5833	-9.85518	0.886151	0	
2.5840	-6.50863	3.01556	0	
2.5847	3.87356	2.71136	0	
2.5853	12.7274	1.19035	0	
2.5860	13.9395	2.40716	0	
2.5867	15.178	4.85399	0	
2.5873	18.5246	3.63719	0	
2.5880	19.1306	1.49455	0	
2.5887	19.1306	2.71136	0	
2.5893	19.1306	3.63719	0	
2.5900	16.3902	2.71136	0	
2.5907	16.9962	4.54979	0	
2.5913	21.8711	4.54979	0	
2.5920	18.5246	-1.25648	0	
2.5927	8.14238	-6.44113	0	
2.5933	1.73915	-6.44113	0	
2.5940	-1.31754	-3.99429	0	
2.5947	-3.13574	-1.86489	0	
2.5953	-1.6074	-1.25648	0	
2.5960	-0.395261	-1.86489	0	
2.5967	-1.00133	-2.16909	0	
2.5973	-2.84588	-2.77749	0	
2.5980	-7.1147	-2.77749	0	
2.5987	-6.19242	0.886151	0	
2.5993	1.73915	4.54979	0	
2.6000	2.66143	2.71136	0	
2.6007	-2.84588	0.58195	0	
2.6013	-4.66408	1.79876	0	
2.6020	-6.19242	1.79876	0	
2.6027	-8.9329	1.79876	0	
2.6033	-7.40456	3.63719	0	
2.6040	-6.50863	1.79876	0	
2.6047	-7.40456	-3.69009	0	
2.6053	-4.05801	-4.2985	0	
2.6060	0.527015	-2.77749	0	
2.6067	3.26749	-1.86489	0	
2.6073	7.85252	-0.648081	0	
2.6080	9.06466	0.886151	0	
2.6087	4.18977	2.10296	0	
2.6093	0.816873	3.31976	0	
2.6100	0.816873	1.19035	0	
2.6107	-1.00133	-1.56068	0	
2.6113	-5.58636	0.58195	0	
2.6120	-9.85518	1.79876	0	
2.6127	-12.3058	-0.0264523	0	
2.6133	-12.9119	-0.330654	0	
2.6140	-15.6523	-0.330654	0	
2.6147	-20.2374	-1.86489	0	
2.6153	-19.3151	-0.952282	0	
2.6160	-11.9896	-0.0264523	0	
2.6167	-2.52967	-3.38589	0	
2.6173	4.18977	-4.6027	0	
2.6180	6.00797	-2.47329	0	
2.6187	7.2201	-1.86489	0	
2.6193	13.3335	-0.648081	0	
2.6200	19.1306	0.886151	0	
2.6207	18.2084	-0.0264523	0	
2.6213	13.6497	0.886151	0	
2.6220	9.06466	0.886151	0	
2.6227	2.34522	-1.86489	0	
2.6233	0.816873	-2.77749	0	
2.6240	4.18977	0.886151	0	
2.6247	3.55735	1.79876	0	
2.6253	1.73915	0.886151	0	
2.6260	2.95128	2.10296	0	
2.6267	-1.00133	4.24559	0	
2.6273	-6.19242	3.94139	0	
2.6280	-4.98029	1.19035	0	
2.6287	-5.90257	-1.25648	0	
2.6293	-11.0673	-2.16909	0	
2.6300	-11.9896	-3.69009	0	
2.6307	-9.56532	-5.83273	0	
2.6313	-9.24911	-6.74533	0	
2.6320	-8.32684	-6.13693	0	
2.6327	-7.40456	-3.99429	0	
2.6333	-4.66408	-0.952282	0	
2.6340	0.816873	1.49455	0	
2.6347	2.66143	2.40716	0	
2.6353	-1.00133	2.71136	0	
2.6360	-2.52967	1.19035	0	
2.6367	-2.84588	-0.330654	0	
2.6373	-3.74181	0.886151	0	
2.6380	-2.52967	0.886151	0	
2.6387	-1.00133	-1.86489	0	
2.6393	-2.84588	-2.16909	0	
2.6400	-3.74181	-0.330654	0	
2.6407	-0.395261	-1.86489	0	
2.6413	-0.105403	-3.69009	0	
2.6420	-1.9236	-1.86489	0	
2.6427	0.210806	-1.25648	0	
2.6433	2.66143	-3.69009	0	
2.6440	-1.00133	-4.2985	0	
2.6447	-2.84588	-4.2985	0	
2.6453	1.42294	-7.65794	0	
2.6460	3.26749	-10.1048	0	
2.6467	3.26749	-6.44113	0	
2.6473	5.71811	-2.16909	0	
2.6480	6.61404	-1.25648	0	
2.6487	5.4019	1.19035	0	
2.6493	6.32418	4.85399	0	
2.6500	7.85252	4.24559	0	
2.6507	7.53631	1.49455	0	
2.6513	7.2201	2.10296	0	
2.6520	8.45859	3.63719	0	
2.6527	7.2201	3.63719	0	
2.6533	-0.105403	3.63719	0	
2.6540	-8.32684	1.79876	0	
2.6547	-10.1714	-0.0264523	0	
2.6553	-11.0673	0.277749	0	
2.6560	-14.7301	-0.952282	0	
2.6567	-13.8341	-2.77749	0	
2.6573	-9.56532	-1.56068	0	
2.6580	-11.0673	-1.25648	0	
2.6587	-15.6523	-3.08169	0	
2.6593	-15.3625	-1.86489	0	
2.6600	-11.9896	1.49455	0	
2.6607	-11.0673	0.886151	0	
2.6613	-12.5957	-1.86489	0	
2.6620	-15.6523	-2.47329	0	
2.6627	-16.5746	-1.86489	0	
2.6633	-13.5179	-1.86489	0	
2.6640	-7.40456	-0.330654	0	
2.6647	0.816873	2.71136	0	
2.6653	9.06466	3.63719	0	
2.6660	13.6497	2.71136	0	
2.6667	15.7841	4.54979	0	
2.6673	24.0055	6.375	0	
2.6680	32.5695	4.54979	0	
2.6687	28.3007	4.54979	0	
2.6693	20.0529	6.6792	0	
2.6700	19.4468	5.15819	0	
2.6707	18.2084	2.40716	0	
2.6713	12.7274	3.63719	0	
2.6720	8.74845	4.24559	0	
2.6727	3.87356	0.58195	0	
2.6733	-2.23981	-1.25648	0	
2.6740	-3.13574	-0.952282	0	
2.6747	-4.05801	-3.38589	0	
2.6753	-9.85518	-6.74533	0	
2.6760	-13.8341	-7.35373	0	
2.6767	-14.7301	-6.44113	0	
2.6773	-15.0463	-5.52853	0	
2.6780	-11.3835	-2.77749	0	
2.6787	-7.1147	0.277749	0	
2.6793	-6.50863	1.19035	0	
2.6800	-5.58636	0.886151	0	
2.6807	-1.31754	1.19035	0	
2.6813	4.18977	2.71136	0	
2.6820	9.06466	2.71136	0	
2.6827	9.06466	2.40716	0	
2.6833	4.47963	1.79876	0	
2.6840	3.26749	2.10296	0	
2.6847	6.32418	1.79876	0	
2.6853	4.47963	-0.648081	0	
2.6860	-2.84588	-3.99429	0	
2.6867	-3.45195	-3.08169	0	
2.6873	-0.395261	0.886151	0	
2.6880	-2.84588	0.886151	0	
2.6887	-5.27015	-0.648081	0	
2.6893	-4.66408	-0.0264523	0	
2.6900	-8.64304	-0.0264523	0	
2.6907	-12.9119	-0.952282	0	
2.6913	-10.7775	0.277749	0	
2.6920	-10.1714	-0.330654	0	
2.6927	-12.9119	-2.16909	0	
2.6933	-13.5179	-1.86489	0	
2.6940	-18.3928	-1.86489	0	
2.6947	-25.7183	-3.69009	0	
2.6953	-23.2941	-2.77749	0	
2.6960	-14.7301	-0.330654	0	
2.6967	-4.05801	0.58195	0	
2.6973	12.1213	2.40716	0	
2.6980	25.8501	5.15819	0	
2.6987	27.3784	6.9834	0	
2.6993	24.3217	7.90923	0	
2.7000	24.6379	8.21343	0	
2.7007	24.3217	6.375	0	
2.7013	20.659	3.63719	0	
2.7020	16.3902	1.79876	0	
2.7027	15.4679	1.79876	0	
2.7033	15.178	0.886151	0	
2.7040	12.7274	-1.56068	0	
2.7047	13.6497	-2.47329	0	
2.7053	14.8618	-3.08169	0	
2.7060	7.2201	-5.52853	0	
2.7067	-5.58636	-7.04953	0	
2.7073	-10.7775	-7.35373	0	
2.7080	-9.24911	-7.96214	0	
2.7087	-6.19242	-7.96214	0	
2.7093	-4.37422	-8.26634	0	
2.7100	-3.13574	-9.19217	0	
2.7107	-2.84588	-7.35373	0	
2.7113	-3.13574	-4.92012	0	
2.7120	-1.6074	-3.99429	0	
2.7127	3.55735	-1.86489	0	
2.7133	5.4019	0.886151	0	
2.7140	3.55735	-0.330654	0	
2.7147	2.05536	-0.0264523	0	
2.7153	1.42294	3.63719	0	
2.7160	0.210806	2.40716	0	
2.7167	0.210806	-0.0264523	0	
2.7173	-1.31754	2.10296	0	
2.7180	-3.74181	3.31976	0	
2.7187	-1.6074	0.886151	0	
2.7193	2.34522	2.71136	0	
2.7200	2.34522	6.375	0	
2.7207	1.42294	5.4624	0	
2.7213	0.816873	2.40716	0	
2.7220	-2.52967	-0.952282	0	
2.7227	-4.66408	-4.92012	0	
2.7233	-1.00133	-5.83273	0	
2.7240	2.95128	-3.38589	0	
2.7247	6.00797	-1.86489	0	
2.7253	10.593	0.277749	0	
2.7260	9.98693	4.24559	0	
2.7267	2.66143	4.54979	0	
2.7273	-0.105403	0.277749	0	
2.7280	3.55735	-3.08169	0	
2.7287	0.816873	-2.77749	0	
2.7293	-3.74181	0.58195	0	
2.7300	-1.9236	3.94139	0	
2.7307	-0.71147	4.85399	0	
2.7313	-1.9236	5.4624	0	
2.7320	-0.105403	5.4624	0	
2.7327	-2.23981	1.49455	0	
2.7333	-5.90257	-0.952282	0	
2.7340	-1.6074	2.71136	0	
2.7347	2.95128	4.24559	0	
2.7353	0.816873	1.79876	0	
2.7360	-2.23981	2.10296	0	
2.7367	-4.66408	3.01556	0	
2.7373	-7.40456	-1.56068	0	
2.7380	-9.24911	-4.92012	0	
2.7387	-11.0673	-2.77749	0	
2.7393	-12.5957	-2.77749	0	
2.7400	-13.5179	-6.44113	0	
2.7407	-15.6523	-8.26634	0	
2.7413	-14.7301	-6.44113	0	
2.7420	-9.56532	-5.52853	0	
2.7427	-7.72077	-5.52853	0	
2.7433	-9.85518	-3.69009	0	
2.7440	-9.24911	-3.69009	0	
2.7447	-5.58636	-5.52853	0	
2.7453	-4.05801	-3.69009	0	
2.7460	-3.45195	-2.47329	0	
2.7467	-4.05801	-6.44113	0	
2.7473	-5.58636	-7.96214	0	
2.7480	-4.05801	-3.38589	0	
2.7487	1.42294	-1.25648	0	
2.7493	7.53631	-0.330654	0	
2.7500	9.98693	3.01556	0	
2.7507	8.14238	3.63719	0	
2.7513	4.18977	-0.0264523	0	
2.7520	1.42294	-1.25648	0	
2.7527	0.210806	0.886151	0	
2.7533	-3.74181	2.71136	0	
2.7540	-10.1714	2.71136	0	
2.7547	-13.8341	1.79876	0	
2.7553	-14.7301	1.49455	0	
2.7560	-15.3625	0.886151	0	
2.7567	-13.5179	-0.0264523	0	
2.7573	-9.85518	-0.0264523	0	
2.7580	-10.4612	-0.648081	0	
2.7587	-13.2281	-2.16909	0	
2.7593	-11.9896	-1.56068	0	
2.7600	-8.32684	-0.952282	0	
2.7607	-3.45195	-2.47329	0	
2.7613	2.95128	-1.86489	0	
2.7620	6.32418	-0.330654	0	
2.7627	6.93025	-2.77749	0	
2.7633	11.1991	-2.77749	0	
2.7640	15.4679	0.58195	0	
2.7647	11.1991	0.886151	0	
2.7653	8.14238	-0.952282	0	
2.7660	11.5153	1.79876	0	
2.7667	12.4112	6.0708	0	
2.7673	7.2201	6.375	0	
2.7680	4.79584	4.54979	0	
2.7687	7.2201	3.63719	0	
2.7693	9.38086	2.10296	0	
2.7700	9.67072	0.886151	0	
2.7707	6.32418	1.79876	0	
2.7713	2.34522	4.24559	0	
2.7720	1.73915	5.4624	0	
2.7727	2.95128	5.7666	0	
2.7733	3.26749	6.9834	0	
2.7740	2.66143	5.4624	0	
2.7747	-0.395261	2.71136	0	
2.7753	-4.98029	3.31976	0	
2.7760	-7.40456	5.4624	0	
2.7767	-8.32684	5.4624	0	
2.7773	-9.56532	5.4624	0	
2.7780	-10.1714	4.85399	0	
2.7787	-10.1714	3.63719	0	
2.7793	-11.0673	3.63719	0	
2.7800	-9.24911	3.01556	0	
2.7807	-4.66408	0.58195	0	
2.7813	-0.105403	1.49455	0	
2.7820	5.4019	4.24559	0	
2.7827	10.8829	3.63719	0	
2.7833	14.2558	3.01556	0	
2.7840	17.3124	5.15819	0	
2.7847	19.1306	4.85399	0	
2.7853	16.074	2.71136	0	
2.7860	11.5153	0.886151	0	
2.7867	9.06466	-0.952282	0	
2.7873	7.53631	-0.330654	0	
2.7880	8.74845	1.19035	0	
2.7887	9.06466	-0.330654	0	
2.7893	4.79584	-1.86489	0	
2.7900	1.13308	-0.952282	0	
2.7907	0.816873	-2.47329	0	
2.7913	-0.395261	-3.69009	0	
2.7920	0.210806	-0.952282	0	
2.7927	5.4019	-0.330654	0	
2.7933	6.61404	-2.77749	0	
2.7940	1.73915	-5.52853	0	
2.7947	-4.98029	-7.35373	0	
2.7953	-9.56532	-7.04953	0	
2.7960	-11.0673	-6.44113	0	
2.7967	-11.0673	-7.96214	0	
2.7973	-14.124	-7.04953	0	
2.7980	-18.3928	-5.22433	0	
2.7987	-17.7868	-5.52853	0	
2.7993	-13.2281	-4.6027	0	
2.8000	-11.0673	-3.08169	0	
2.8007	-12.9119	-4.6027	0	
2.8013	-14.124	-4.6027	0	
2.8020	-13.8341	-3.99429	0	
2.8027	-12.5957	-5.83273	0	
2.8033	-10.7775	-6.44113	0	
2.8040	-9.85518	-2.77749	0	
2.8047	-7.40456	0.886151	0	
2.8053	-1.9236	0.58195	0	
2.8060	1.73915	-0.648081	0	
2.8067	3.87356	2.71136	0	
2.8073	7.53631	6.9834	0	
2.8080	10.8829	5.4624	0	
2.8087	12.7274	2.71136	0	
2.8093	13.6497	4.54979	0	
2.8100	13.9395	5.15819	0	
2.8107	14.8618	4.24559	0	
2.8113	13.9395	5.7666	0	
2.8120	9.06466	3.94139	0	
2.8127	4.47963	-0.952282	0	
2.8133	-0.105403	-1.86489	0	
2.8140	-8.32684	-2.16909	0	
2.8147	-15.6523	-3.69009	0	
2.8153	-17.1807	-0.952282	0	
2.8160	-14.7301	1.79876	0	
2.8167	-8.32684	0.886151	0	
2.8173	0.527015	1.19035	0	
2.8180	4.79584	2.40716	0	
2.8187	4.79584	2.71136	0	
2.8193	5.08569	5.15819	0	
2.8200	5.71811	5.4624	0	
2.8207	7.2201	1.79876	0	
2.8213	7.85252	1.79876	0	
2.8220	6.93025	3.01556	0	
2.8227	6.00797	1.79876	0	
2.8233	6.32418	0.886151	0	
2.8240	5.4019	1.79876	0	
2.8247	2.95128	2.10296	0	
2.8253	-0.105403	0.886151	0	
2.8260	-0.395261	-0.648081	0	
2.8267	1.42294	-1.25648	0	
2.8273	2.95128	-0.0264523	0	
2.8280	2.95128	0.58195	0	
2.8287	2.34522	0.277749	0	
2.8293	2.66143	3.01556	0	
2.8300	6.93025	5.4624	0	
2.8307	11.1991	3.63719	0	
2.8313	7.85252	1.49455	0	
2.8320	0.210806	-0.0264523	0	
2.8327	-2.23981	-3.08169	0	
2.8333	-1.31754	-4.92012	0	
2.8340	-1.9236	-3.38589	0	
2.8347	-4.66408	-1.86489	0	
2.8353	-8.32684	-3.69009	0	
2.8360	-11.6997	-4.2985	0	
2.8367	-13.2281	-2.77749	0	
2.8373	-13.5179	-3.38589	0	
2.8380	-11.3835	-5.52853	0	
2.8387	-9.24911	-5.83273	0	
2.8393	-9.24911	-4.6027	0	
2.8400	-9.85518	-4.6027	0	
2.8407	-8.9329	-4.92012	0	
2.8413	-5.90257	-3.69009	0	
2.8420	-0.395261	-2.77749	0	
2.8427	3.55735	-2.77749	0	
2.8433	3.26749	-1.86489	0	
2.8440	2.05536	-1.86489	0	
2.8447	1.13308	-4.2985	0	
2.8453	0.210806	-4.92012	0	
2.8460	1.13308	-1.86489	0	
2.8467	2.34522	-0.330654	0	
2.8473	1.42294	-1.56068	0	
2.8480	-1.9236	-2.47329	0	
2.8487	-8.32684	-2.77749	0	
2.8493	-13.8341	-2.77749	0	
2.8500	-15.9686	-2.16909	0	
2.8507	-15.6523	-1.86489	0	
2.8513	-10.7775	-3.08169	0	
2.8520	-1.31754	-3.69009	0	
2.8527	5.4019	-2.77749	0	
2.8533	4.47963	-1.56068	0	
2.8540	2.05536	-1.56068	0	
2.8547	2.66143	-0.330654	0	
2.8553	2.05536	2.40716	0	
2.8560	1.13308	2.10296	0	
2.8567	1.73915	-0.648081	0	
2.8573	1.73915	-0.0264523	0	
2.8580	4.47963	1.79876	0	
2.8587	13.6497	1.19035	0	
2.8593	21.8711	3.63719	0	
2.8600	19.1306	6.0708	0	
2.8607	11.5153	3.63719	0	
2.8613	7.2201	2.71136	0	
2.8620	8.74845	5.15819	0	
2.8627	13.3335	3.94139	0	
2.8633	14.8618	1.79876	0	
2.8640	11.8051	3.63719	0	
2.8647	12.1213	3.01556	0	
2.8653	14.8618	-0.952282	0	
2.8660	11.8051	-0.0264523	0	
2.8667	3.87356	1.79876	0	
2.8673	-3.45195	-0.330654	0	
2.8680	-8.32684	-3.38589	0	
2.8687	-10.1714	-3.69009	0	
2.8693	-9.85518	-4.92012	0	
2.8700	-11.0673	-5.22433	0	
2.8707	-11.9896	-2.47329	0	
2.8713	-11.3835	0.277749	0	
2.8720	-9.24911	2.10296	0	
2.8727	-5.58636	3.63719	0	
2.8733	-3.74181	4.24559	0	
2.8740	-4.05801	4.24559	0	
2.8747	-0.105403	3.31976	0	
2.8753	8.14238	0.886151	0	
2.8760	9.06466	-0.330654	0	
2.8767	3.55735	-0.330654	0	
2.8773	-2.84588	-2.77749	0	
2.8780	-7.40456	-6.44113	0	
2.8787	-8.64304	-6.13693	0	
2.8793	-5.90257	-2.16909	0	
2.8800	-4.66408	2.40716	0	
2.8807	-4.37422	4.85399	0	
2.8813	-0.395261	0.886151	0	
2.8820	0.527015	-4.2985	0	
2.8827	-1.9236	-1.86489	0	
2.8833	-1.00133	3.63719	0	
2.8840	2.95128	2.71136	0	
2.8847	5.4019	0.886151	0	
2.8853	10.593	3.01556	0	
2.8860	13.0173	3.63719	0	
2.8867	6.93025	1.79876	0	
2.8873	2.66143	2.10296	0	
2.8880	5.08569	3.31976	0	
2.8887	4.18977	3.01556	0	
2.8893	1.13308	1.79876	0	
2.8900	0.210806	-0.952282	0	
2.8907	-1.31754	-2.77749	0	
2.8913	-0.395261	-2.77749	0	
2.8920	3.26749	-1.25648	0	
2.8927	1.73915	1.49455	0	
2.8933	-0.395261	1.19035	0	
2.8940	1.73915	-3.08169	0	
2.8947	-1.6074	-4.2985	0	
2.8953	-10.4612	-1.56068	0	
2.8960	-12.5957	-1.86489	0	
2.8967	-8.32684	-2.47329	0	
2.8973	-6.79849	0.58195	0	
2.8980	-9.24911	-0.0264523	0	
2.8987	-13.5179	-3.69009	0	
2.8993	-14.7301	-2.77749	0	
2.9000	-8.64304	-0.330654	0	
2.9007	-1.9236	-1.56068	0	
2.9013	-0.395261	-2.77749	0	
2.9020	3.87356	-0.0264523	0	
2.9027	9.98693	3.63719	0	
2.9033	9.98693	4.24559	0	
2.9040	8.14238	2.71136	0	
2.9047	8.14238	1.49455	0	
2.9053	7.2201	0.58195	0	
2.9060	7.2201	-0.0264523	0	
2.9067	9.06466	0.58195	0	
2.9073	5.4019	0.277749	0	
2.9080	-1.9236	-0.0264523	0	
2.9087	-4.66408	-0.648081	0	
2.9093	-4.66408	-1.86489	0	
2.9100	-6.19242	-3.99429	0	
2.9107	-7.1147	-4.2985	0	
2.9113	-8.9329	-2.77749	0	
2.9120	-13.2281	-2.47329	0	
2.9127	-15.0463	-5.52853	0	
2.9133	-10.7775	-7.35373	0	
2.9140	-4.66408	-4.6027	0	
2.9147	-1.00133	-1.86489	0	
2.9153	-1.00133	-2.47329	0	
2.9160	-1.9236	-2.47329	0	
2.9167	-1.9236	-0.952282	0	
2.9173	-0.105403	-0.330654	0	
2.9180	4.18977	1.79876	0	
2.9187	7.2201	3.63719	0	
2.9193	4.18977	2.10296	0	
2.9200	-0.71147	1.79876	0	
2.9207	-2.52967	4.54979	0	
2.9213	-3.74181	3.63719	0	
2.9220	-6.19242	-0.0264523	0	
2.9227	-6.19242	0.277749	0	
2.9233	-4.66408	0.886151	0	
2.9240	-3.74181	-0.0264523	0	
2.9247	-3.45195	2.40716	0	
2.9253	-3.45195	4.24559	0	
2.9260	-3.45195	-0.0264523	0	
2.9267	-1.00133	-2.77749	0	
2.9273	0.816873	-0.952282	0	
2.9280	0.527015	-0.648081	0	
2.9287	2.34522	-0.648081	0	
2.9293	4.79584	0.277749	0	
2.9300	4.18977	-1.56068	0	
2.9307	4.79584	-1.86489	0	
2.9313	7.2201	1.79876	0	
2.9320	6.32418	1.79876	0	
2.9327	4.47963	0.58195	0	
2.9333	3.55735	0.886151	0	
2.9340	1.13308	-1.86489	0	
2.9347	1.73915	-3.69009	0	
2.9353	4.47963	0.277749	0	
2.9360	3.55735	1.79876	0	
2.9367	-0.395261	-1.25648	0	
2.9373	-4.05801	-0.952282	0	
2.9380	-6.79849	-2.77749	0	
2.9387	-6.50863	-5.52853	0	
2.9393	-4.37422	-1.86489	0	
2.9400	-3.45195	1.79876	0	
2.9407	-3.74181	0.58195	0	
2.9413	-3.74181	1.79876	0	
2.9420	-3.74181	3.63719	0	
2.9427	-2.84588	0.886151	0	
