0.0000	-4.80528	1.71117	1
0.0007	-2.07124	0.479961	0	
0.0013	-1.46368	-2.8589	0	
0.0020	-3.28637	-2.25373	0	
0.0027	-9.38962	0.79298	0	
0.0033	-17.9507	1.71117	0	
0.0040	-20.9886	1.39815	0	
0.0047	-14.8853	1.39815	0	
0.0053	-7.56693	-0.125207	0	
0.0060	-3.89393	-1.33554	0	
0.0067	-1.46368	-1.04339	0	
0.0073	0.359015	-1.64856	0	
0.0080	-0.248549	-1.96158	0	
0.0087	1.29798	-0.125207	0	
0.0093	6.46227	-0.730376	0	
0.0100	9.83148	-3.77709	0	
0.0107	8.31258	-3.77709	0	
0.0113	7.09745	-1.04339	0	
0.0120	8.61636	-2.56675	0	
0.0127	8.31258	-6.21863	0	
0.0133	5.8547	-5.61346	0	
0.0140	6.15849	-1.64856	0	
0.0147	8.00879	-1.64856	0	
0.0153	6.76605	-4.69527	0	
0.0160	5.24714	-4.40312	0	
0.0167	6.15849	-1.33554	0	
0.0173	6.15849	-1.64856	0	
0.0180	3.72823	-1.96158	0	
0.0187	2.20932	0.479961	0	
0.0193	0.662797	-1.96158	0	
0.0200	-0.552331	-8.055	0	
0.0207	-0.248549	-7.44984	0	
0.0213	-2.37502	-1.04339	0	
0.0220	-5.13667	1.39815	0	
0.0227	-4.80528	-0.417358	0	
0.0233	-4.80528	-2.25373	0	
0.0240	-6.04802	-1.96158	0	
0.0247	-3.28637	0.479961	0	
0.0253	-0.248549	2.02419	0	
0.0260	-5.44046	0.187811	0	
0.0267	-12.7588	-1.33554	0	
0.0273	-14.8853	0.187811	0	
0.0280	-15.1891	2.62935	0	
0.0287	-17.0118	2.9215	0	
0.0293	-15.7967	2.62935	0	
0.0300	-13.0626	2.02419	0	
0.0307	-13.0626	2.02419	0	
0.0313	-11.5437	3.54754	0	
0.0320	-7.87071	4.46573	0	
0.0327	-4.50149	2.9215	0	
0.0333	-1.76746	2.31634	0	
0.0340	-1.76746	3.23452	0	
0.0347	-7.87071	3.23452	0	
0.0353	-11.5437	2.62935	0	
0.0360	-8.17449	2.62935	0	
0.0367	-5.13667	-0.125207	0	
0.0373	-4.80528	-3.77709	0	
0.0380	-2.07124	-3.48494	0	
0.0387	2.20932	-5.30044	0	
0.0393	7.09745	-9.28621	0	
0.0400	11.6542	-9.57836	0	
0.0407	11.6542	-7.13682	0	
0.0413	11.0466	-6.53165	0	
0.0420	11.3504	-7.74199	0	
0.0427	8.00879	-11.1017	0	
0.0433	3.42445	-12.3329	0	
0.0440	5.24714	-10.1835	0	
0.0447	6.15849	-8.97319	0	
0.0453	0.662797	-9.28621	0	
0.0460	-0.856112	-7.44984	0	
0.0467	4.63958	-7.13682	0	
0.0473	8.00879	-8.36802	0	
0.0480	6.46227	-6.21863	0	
0.0487	6.46227	-4.40312	0	
0.0493	4.3358	-5.92648	0	
0.0500	-2.07124	-5.61346	0	
0.0507	-1.15989	-3.17192	0	
0.0513	11.3504	-3.77709	0	
0.0520	21.7342	-5.61346	0	
0.0527	20.5191	-4.40312	0	
0.0533	16.5423	-1.64856	0	
0.0540	17.7574	-1.33554	0	
0.0547	18.0612	-0.417358	0	
0.0553	15.3272	2.31634	0	
0.0560	14.112	2.62935	0	
0.0567	12.5655	0.479961	0	
0.0573	7.40123	1.106	0	
0.0580	3.42445	3.54754	0	
0.0587	-0.248549	4.46573	0	
0.0593	-11.2399	4.15271	0	
0.0600	-23.115	2.9215	0	
0.0607	-26.788	1.39815	0	
0.0613	-28.3069	2.62935	0	
0.0620	-29.5497	4.46573	0	
0.0627	-26.4843	4.46573	0	
0.0633	-22.2037	4.46573	0	
0.0640	-20.6848	4.46573	0	
0.0647	-18.2545	2.9215	0	
0.0653	-11.5437	1.39815	0	
0.0660	-2.98259	2.31634	0	
0.0667	1.29798	3.23452	0	
0.0673	-2.6788	2.02419	0	
0.0680	-8.47827	1.106	0	
0.0687	-7.87071	1.39815	0	
0.0693	-3.28637	0.79298	0	
0.0700	0.662797	-0.125207	0	
0.0707	3.12067	0.187811	0	
0.0713	2.5131	0.79298	0	
0.0720	-0.552331	-0.125207	0	
0.0727	-2.37502	-1.04339	0	
0.0733	-5.74424	-0.417358	0	
0.0740	-12.1513	2.9215	0	
0.0747	-14.2777	5.67607	0	
0.0753	-7.56693	4.15271	0	
0.0760	0.662797	1.71117	0	
0.0767	-0.248549	2.31634	0	
0.0773	-7.26315	2.9215	0	
0.0780	-10.301	1.71117	0	
0.0787	-8.17449	3.23452	0	
0.0793	-5.13667	5.36305	0	
0.0800	-4.19771	4.15271	0	
0.0807	-3.59015	2.02419	0	
0.0813	-2.07124	3.54754	0	
0.0820	-0.856112	5.36305	0	
0.0827	0.966579	3.54754	0	
0.0833	2.81689	0.79298	0	
0.0840	2.5131	-0.125207	0	
0.0847	-0.552331	-0.417358	0	
0.0853	-2.6788	-0.730376	0	
0.0860	-1.46368	-0.125207	0	
0.0867	-0.856112	-0.125207	0	
0.0873	-1.15989	-0.125207	0	
0.0880	0.966579	2.02419	0	
0.0887	5.24714	1.71117	0	
0.0893	4.94336	-1.33554	0	
0.0900	1.90554	-1.33554	0	
0.0907	4.03201	2.02419	0	
0.0913	10.1353	2.02419	0	
0.0920	10.7428	0.479961	0	
0.0927	7.40123	1.39815	0	
0.0933	8.92014	1.71117	0	
0.0940	12.8693	0.479961	0	
0.0947	10.7428	2.31634	0	
0.0953	8.31258	5.36305	0	
0.0960	9.5277	4.15271	0	
0.0967	11.0466	1.106	0	
0.0973	11.6542	0.79298	0	
0.0980	11.6542	0.79298	0	
0.0987	8.31258	-0.125207	0	
0.0993	3.72823	-0.417358	0	
0.1000	4.03201	-0.730376	0	
0.1007	5.55092	-2.25373	0	
0.1013	2.5131	-3.77709	0	
0.1020	-2.37502	-4.40312	0	
0.1027	-2.98259	-2.8589	0	
0.1033	-0.552331	-1.04339	0	
0.1040	0.0552331	-0.417358	0	
0.1047	0.966579	1.106	0	
0.1053	3.42445	1.71117	0	
0.1060	4.03201	-1.04339	0	
0.1067	1.60176	-1.64856	0	
0.1073	-0.248549	1.106	0	
0.1080	0.359015	-0.730376	0	
0.1087	1.90554	-4.40312	0	
0.1093	1.60176	-2.8589	0	
0.1100	0.966579	-2.25373	0	
0.1107	3.12067	-5.61346	0	
0.1113	6.76605	-6.53165	0	
0.1120	6.15849	-4.69527	0	
0.1127	3.12067	-3.77709	0	
0.1133	1.60176	-4.40312	0	
0.1140	0.359015	-5.61346	0	
0.1147	-1.15989	-5.92648	0	
0.1153	-0.248549	-3.77709	0	
0.1160	1.60176	-1.96158	0	
0.1167	-0.856112	-2.8589	0	
0.1173	-2.98259	-2.56675	0	
0.1180	-2.98259	-0.730376	0	
0.1187	-4.80528	-0.125207	0	
0.1193	-8.78206	0.79298	0	
0.1200	-8.47827	2.9215	0	
0.1207	-8.47827	3.23452	0	
0.1213	-10.9085	3.54754	0	
0.1220	-10.6047	3.54754	0	
0.1227	-7.26315	0.79298	0	
0.1233	-6.04802	-0.417358	0	
0.1240	-6.04802	2.62935	0	
0.1247	-5.44046	2.9215	0	
0.1253	-4.80528	-0.125207	0	
0.1260	-0.552331	0.479961	0	
0.1267	4.3358	-0.125207	0	
0.1273	3.42445	-4.69527	0	
0.1280	1.60176	-5.61346	0	
0.1287	2.5131	-4.09011	0	
0.1293	-0.248549	-4.09011	0	
0.1300	-5.44046	-1.96158	0	
0.1307	-5.44046	0.79298	0	
0.1313	-2.37502	1.39815	0	
0.1320	-2.37502	3.54754	0	
0.1327	-2.07124	5.0709	0	
0.1333	1.60176	3.54754	0	
0.1340	5.24714	3.83969	0	
0.1347	4.63958	4.46573	0	
0.1353	1.29798	0.79298	0	
0.1360	-1.15989	-0.730376	0	
0.1367	0.359015	0.479961	0	
0.1373	4.3358	-1.64856	0	
0.1380	6.15849	-3.17192	0	
0.1387	3.42445	-1.04339	0	
0.1393	-2.07124	0.479961	0	
0.1400	-6.65558	-0.125207	0	
0.1407	-7.56693	-0.125207	0	
0.1413	-1.76746	-0.730376	0	
0.1420	3.12067	-1.64856	0	
0.1427	-0.856112	-0.730376	0	
0.1433	-4.19771	-1.04339	0	
0.1440	-2.98259	-3.17192	0	
0.1447	-4.80528	-3.77709	0	
0.1453	-8.17449	-3.17192	0	
0.1460	-4.80528	-4.69527	0	
0.1467	0.966579	-5.61346	0	
0.1473	2.5131	-2.8589	0	
0.1480	1.29798	0.479961	0	
0.1487	-2.37502	0.79298	0	
0.1493	-9.38962	0.479961	0	
0.1500	-14.5815	0.79298	0	
0.1507	-13.6702	1.106	0	
0.1513	-9.38962	0.79298	0	
0.1520	-7.26315	-1.33554	0	
0.1527	-6.65558	-2.8589	0	
0.1533	-4.80528	-1.33554	0	
0.1540	-2.98259	1.39815	0	
0.1547	-2.98259	1.71117	0	
0.1553	-3.59015	0.79298	0	
0.1560	-2.98259	1.71117	0	
0.1567	-0.248549	1.71117	0	
0.1573	0.662797	-0.730376	0	
0.1580	-3.89393	-1.04339	0	
0.1587	-6.95937	-0.125207	0	
0.1593	-5.74424	-1.33554	0	
0.1600	-7.87071	-1.04339	0	
0.1607	-16.1004	1.71117	0	
0.1613	-19.4697	1.71117	0	
0.1620	-13.974	0.479961	0	
0.1627	-7.56693	0.187811	0	
0.1633	-6.65558	-1.33554	0	
0.1640	-8.78206	-3.17192	0	
0.1647	-6.04802	-0.730376	0	
0.1653	1.60176	1.71117	0	
0.1660	8.31258	1.39815	0	
0.1667	13.2007	2.62935	0	
0.1673	14.4158	3.54754	0	
0.1680	8.92014	-0.125207	0	
0.1687	5.24714	-1.04339	0	
0.1693	8.00879	0.479961	0	
0.1700	8.31258	0.79298	0	
0.1707	5.24714	2.62935	0	
0.1713	4.94336	4.46573	0	
0.1720	0.359015	3.54754	0	
0.1727	-12.7588	5.36305	0	
0.1733	-23.4464	10.2461	0	
0.1740	-28.3069	11.7904	0	
0.1747	-33.4989	12.0825	0	
0.1753	-36.5643	12.6877	0	
0.1760	-31.3724	10.8722	0	
0.1767	-24.6616	10.5592	0	
0.1773	-24.054	15.1292	0	
0.1780	-23.4464	14.524	0	
0.1787	-19.4697	8.43063	0	
0.1793	-16.708	6.28123	0	
0.1800	-9.99718	3.23452	0	
0.1807	1.90554	-5.00829	0	
0.1813	9.83148	-12.9381	0	
0.1820	13.5045	-16.2978	0	
0.1827	18.6688	-17.216	0	
0.1833	24.772	-18.4263	0	
0.1840	30.8753	-20.5757	0	
0.1847	34.8521	-21.1809	0	
0.1853	31.8142	-16.2978	0	
0.1860	22.6456	-9.57836	0	
0.1867	16.5423	-8.66017	0	
0.1873	15.9347	-10.8096	0	
0.1880	18.0612	-8.36802	0	
0.1887	18.6688	-5.92648	0	
0.1893	16.5423	-9.28621	0	
0.1900	16.2385	-9.28621	0	
0.1907	15.3272	-4.69527	0	
0.1913	11.3504	-3.17192	0	
0.1920	10.7428	-3.48494	0	
0.1927	13.5045	-1.96158	0	
0.1933	10.1353	-3.48494	0	
0.1940	6.15849	-2.8589	0	
0.1947	9.22392	1.71117	0	
0.1953	13.5045	0.187811	0	
0.1960	12.5655	-3.77709	0	
0.1967	9.83148	-1.64856	0	
0.1973	8.00879	-1.04339	0	
0.1980	5.24714	-3.77709	0	
0.1987	3.12067	-0.730376	0	
0.1993	1.60176	4.75788	0	
0.2000	0.0552331	4.15271	0	
0.2007	-1.76746	2.62935	0	
0.2013	-3.59015	3.54754	0	
0.2020	-3.28637	3.54754	0	
0.2027	-0.856112	3.23452	0	
0.2033	1.29798	3.23452	0	
0.2040	1.29798	3.54754	0	
0.2047	0.662797	3.83969	0	
0.2053	1.60176	1.71117	0	
0.2060	2.5131	-0.125207	0	
0.2067	1.29798	0.79298	0	
0.2073	-0.552331	1.71117	0	
0.2080	-3.59015	1.71117	0	
0.2087	-6.3518	3.54754	0	
0.2093	-5.74424	4.15271	0	
0.2100	-3.89393	1.71117	0	
0.2107	-2.07124	-0.730376	0	
0.2113	0.0552331	-0.125207	0	
0.2120	0.359015	1.71117	0	
0.2127	-3.28637	1.71117	0	
0.2133	-4.80528	0.79298	0	
0.2140	-2.07124	1.71117	0	
0.2147	-2.6788	2.62935	0	
0.2153	-4.80528	2.02419	0	
0.2160	-5.74424	2.62935	0	
0.2167	-8.17449	3.83969	0	
0.2173	-11.5437	2.31634	0	
0.2180	-8.78206	1.71117	0	
0.2187	-3.59015	3.54754	0	
0.2193	-2.07124	2.62935	0	
0.2200	-2.6788	0.187811	0	
0.2207	-2.6788	0.79298	0	
0.2213	-5.13667	1.39815	0	
0.2220	-8.78206	-0.125207	0	
0.2227	-9.08584	-1.33554	0	
0.2233	-5.74424	-1.33554	0	
0.2240	-3.28637	-3.17192	0	
0.2247	-5.74424	-6.53165	0	
0.2253	-6.65558	-6.84467	0	
0.2260	-2.07124	-2.56675	0	
0.2267	1.60176	0.479961	0	
0.2273	0.0552331	0.479961	0	
0.2280	-0.248549	0.479961	0	
0.2287	1.29798	-0.417358	0	
0.2293	1.90554	-2.8589	0	
0.2300	3.12067	-2.56675	0	
0.2307	4.63958	-1.33554	0	
0.2313	3.72823	-2.8589	0	
0.2320	4.03201	-5.30044	0	
0.2327	6.15849	-5.61346	0	
0.2333	5.24714	-3.77709	0	
0.2340	0.359015	-1.04339	0	
0.2347	-4.50149	-1.04339	0	
0.2353	-6.65558	-4.40312	0	
0.2360	-6.3518	-4.40312	0	
0.2367	-3.59015	-1.04339	0	
0.2373	0.662797	-0.125207	0	
0.2380	3.42445	-0.125207	0	
0.2387	2.81689	-0.417358	0	
0.2393	2.81689	-1.96158	0	
0.2400	5.55092	-2.25373	0	
0.2407	2.81689	-0.125207	0	
0.2413	-5.74424	0.79298	0	
0.2420	-7.26315	-1.04339	0	
0.2427	-3.89393	-2.8589	0	
0.2433	-6.95937	-3.77709	0	
0.2440	-8.47827	-3.77709	0	
0.2447	-6.3518	-1.04339	0	
0.2453	-8.47827	2.02419	0	
0.2460	-9.08584	-0.125207	0	
0.2467	-6.3518	-2.25373	0	
0.2473	-10.301	0.79298	0	
0.2480	-11.2399	3.54754	0	
0.2487	1.90554	2.62935	0	
0.2493	13.5045	3.23452	0	
0.2500	13.5045	4.46573	0	
0.2507	9.22392	4.46573	0	
0.2513	4.3358	5.67607	0	
0.2520	2.5131	4.46573	0	
0.2527	4.03201	1.39815	0	
0.2533	3.12067	0.479961	0	
0.2540	4.3358	-0.730376	0	
0.2547	9.5277	-3.77709	0	
0.2553	12.5655	-4.09011	0	
0.2560	16.2385	-5.00829	0	
0.2567	21.1266	-9.57836	0	
0.2573	15.0234	-11.1017	0	
0.2580	4.3358	-8.66017	0	
0.2587	4.03201	-5.92648	0	
0.2593	8.92014	-4.69527	0	
0.2600	10.7428	-7.44984	0	
0.2607	9.83148	-9.28621	0	
0.2613	-1.15989	-3.48494	0	
0.2620	-17.9507	2.31634	0	
0.2627	-24.054	2.31634	0	
0.2633	-24.6616	4.15271	0	
0.2640	-30.1573	8.43063	0	
0.2647	-33.8026	8.43063	0	
0.2653	-32.2837	7.80459	0	
0.2660	-31.6762	8.43063	0	
0.2667	-31.0686	7.51244	0	
0.2673	-23.7502	6.28123	0	
0.2680	-12.4551	4.15271	0	
0.2687	-3.59015	0.79298	0	
0.2693	2.20932	0.187811	0	
0.2700	3.42445	-0.125207	0	
0.2707	1.60176	-2.8589	0	
0.2713	0.966579	-3.77709	0	
0.2720	3.72823	-2.8589	0	
0.2727	5.24714	-4.40312	0	
0.2733	3.12067	-4.40312	0	
0.2740	0.662797	-1.96158	0	
0.2747	-0.248549	-0.125207	0	
0.2753	-1.15989	2.31634	0	
0.2760	-0.552331	4.75788	0	
0.2767	2.5131	3.23452	0	
0.2773	4.3358	1.71117	0	
0.2780	6.15849	3.83969	0	
0.2787	8.92014	5.36305	0	
0.2793	6.76605	5.0709	0	
0.2800	-0.552331	5.0709	0	
0.2807	-5.74424	5.0709	0	
0.2813	-7.56693	5.67607	0	
0.2820	-9.99718	6.28123	0	
0.2827	-11.8475	4.46573	0	
0.2833	-11.2399	3.23452	0	
0.2840	-9.38962	2.62935	0	
0.2847	-6.95937	1.39815	0	
0.2853	-5.74424	2.9215	0	
0.2860	-5.74424	4.46573	0	
0.2867	-5.13667	2.02419	0	
0.2873	-3.89393	1.71117	0	
0.2880	-2.98259	2.9215	0	
0.2887	-2.37502	-0.125207	0	
0.2893	-1.15989	-1.04339	0	
0.2900	0.662797	1.39815	0	
0.2907	4.03201	-2.25373	0	
0.2913	7.09745	-5.61346	0	
0.2920	9.5277	-3.48494	0	
0.2927	12.5655	-4.09011	0	
0.2933	13.2007	-6.21863	0	
0.2940	10.7428	-4.40312	0	
0.2947	8.92014	-6.21863	0	
0.2953	11.958	-10.1835	0	
0.2960	16.8461	-9.28621	0	
0.2967	18.365	-8.36802	0	
0.2973	15.3272	-10.1835	0	
0.2980	11.958	-8.36802	0	
0.2987	8.92014	-5.61346	0	
0.2993	3.42445	-3.77709	0	
0.3000	-2.37502	-1.96158	0	
0.3007	-2.98259	-1.96158	0	
0.3013	-2.07124	-2.56675	0	
0.3020	-2.98259	-1.96158	0	
0.3027	-2.07124	-1.04339	0	
0.3033	0.662797	0.79298	0	
0.3040	2.20932	3.54754	0	
0.3047	3.42445	2.62935	0	
0.3053	7.09745	-0.125207	0	
0.3060	9.5277	0.187811	0	
0.3067	8.61636	1.71117	0	
0.3073	4.03201	1.71117	0	
0.3080	0.0552331	0.79298	0	
0.3087	-0.248549	0.187811	0	
0.3093	-2.37502	-0.417358	0	
0.3100	-8.47827	0.479961	0	
0.3107	-11.2399	3.23452	0	
0.3113	-5.74424	3.83969	0	
0.3120	1.90554	0.479961	0	
0.3127	6.15849	-4.09011	0	
0.3133	6.15849	-4.69527	0	
0.3140	4.03201	-1.96158	0	
0.3147	2.5131	0.479961	0	
0.3153	1.60176	2.31634	0	
0.3160	-1.46368	2.9215	0	
0.3167	-3.59015	1.71117	0	
0.3173	-1.15989	1.106	0	
0.3180	-0.248549	2.62935	0	
0.3187	-0.856112	1.39815	0	
0.3193	-2.07124	-1.64856	0	
0.3200	-6.04802	-1.04339	0	
0.3207	-9.38962	0.79298	0	
0.3213	-7.56693	0.479961	0	
0.3220	-7.87071	0.79298	0	
0.3227	-12.1513	1.71117	0	
0.3233	-10.301	-0.125207	0	
0.3240	-4.19771	-1.33554	0	
0.3247	-1.76746	2.02419	0	
0.3253	0.966579	3.54754	0	
0.3260	8.92014	0.479961	0	
0.3267	18.9726	-1.04339	0	
0.3273	23.5569	-0.417358	0	
0.3280	23.5569	-1.04339	0	
0.3287	21.7342	-0.730376	0	
0.3293	16.2385	1.39815	0	
0.3300	6.76605	1.71117	0	
0.3307	-3.89393	1.71117	0	
0.3313	-9.38962	3.54754	0	
0.3320	-10.301	2.31634	0	
0.3327	-7.87071	-1.04339	0	
0.3333	-7.56693	-1.96158	0	
0.3340	-13.6702	-0.417358	0	
0.3347	-18.8621	0.79298	0	
0.3353	-18.8621	-0.125207	0	
0.3360	-16.4042	-1.64856	0	
0.3367	-11.2399	-2.25373	0	
0.3373	-5.74424	-1.04339	0	
0.3380	-1.76746	1.106	0	
0.3387	5.55092	0.79298	0	
0.3393	13.2007	-1.96158	0	
0.3400	11.6542	-1.96158	0	
0.3407	8.92014	-1.64856	0	
0.3413	13.5045	-2.56675	0	
0.3420	13.5045	-2.25373	0	
0.3427	8.61636	-1.04339	0	
0.3433	7.09745	-1.96158	0	
0.3440	2.81689	-2.56675	0	
0.3447	-10.6047	-0.125207	0	
0.3453	-21.8999	2.62935	0	
0.3460	-25.8767	3.83969	0	
0.3467	-29.5497	3.23452	0	
0.3473	-31.6762	0.79298	0	
0.3480	-30.461	-0.125207	0	
0.3487	-29.5497	-0.125207	0	
0.3493	-27.0918	-0.730376	0	
0.3500	-20.9886	-2.25373	0	
0.3507	-13.974	-3.17192	0	
0.3513	-7.56693	-2.8589	0	
0.3520	-1.46368	-3.77709	0	
0.3527	0.662797	-4.69527	0	
0.3533	-1.76746	-3.77709	0	
0.3540	-4.50149	-0.125207	0	
0.3547	-4.50149	0.79298	0	
0.3553	-1.46368	-0.125207	0	
0.3560	-0.248549	-0.125207	0	
0.3567	-1.76746	-1.04339	0	
0.3573	-1.15989	-1.96158	0	
0.3580	2.20932	-1.04339	0	
0.3587	3.72823	0.187811	0	
0.3593	4.63958	-0.417358	0	
0.3600	8.31258	-1.33554	0	
0.3607	10.439	-1.04339	0	
0.3613	7.09745	-0.730376	0	
0.3620	-1.15989	-0.125207	0	
0.3627	-6.95937	0.79298	0	
0.3633	-4.50149	1.71117	0	
0.3640	-0.248549	1.71117	0	
0.3647	0.662797	3.83969	0	
0.3653	1.60176	7.19942	0	
0.3660	5.24714	6.28123	0	
0.3667	7.09745	4.46573	0	
0.3673	5.8547	6.59425	0	
0.3680	1.60176	8.11761	0	
0.3687	-0.248549	3.83969	0	
0.3693	3.42445	0.187811	0	
0.3700	4.3358	1.106	0	
0.3707	-0.248549	2.62935	0	
0.3713	-1.15989	1.106	0	
0.3720	-0.248549	-1.04339	0	
0.3727	-2.37502	-2.25373	0	
0.3733	-1.15989	-3.77709	0	
0.3740	5.8547	-5.30044	0	
0.3747	7.40123	-5.61346	0	
0.3753	1.60176	-5.61346	0	
0.3760	0.662797	-5.61346	0	
0.3767	4.3358	-5.30044	0	
0.3773	4.94336	-6.21863	0	
0.3780	7.09745	-6.21863	0	
0.3787	14.4158	-2.8589	0	
0.3793	15.9347	-1.04339	0	
0.3800	8.00879	-2.56675	0	
0.3807	0.0552331	-1.04339	0	
0.3813	-4.80528	1.71117	0	
0.3820	-6.65558	-0.125207	0	
0.3827	-3.59015	-3.17192	0	
0.3833	-1.46368	-1.96158	0	
0.3840	-1.15989	-0.730376	0	
0.3847	4.3358	-1.33554	0	
0.3853	7.70501	-1.04339	0	
0.3860	-3.28637	1.39815	0	
0.3867	-16.1004	1.71117	0	
0.3873	-19.1659	-0.125207	0	
0.3880	-17.3432	-1.04339	0	
0.3887	-11.8475	-1.04339	0	
0.3893	-2.98259	-1.96158	0	
0.3900	0.662797	-3.48494	0	
0.3907	1.90554	-3.77709	0	
0.3913	8.92014	-2.25373	0	
0.3920	15.3272	-0.125207	0	
0.3927	17.1499	-0.417358	0	
0.3933	18.0612	-1.64856	0	
0.3940	21.1266	-2.56675	0	
0.3947	19.9115	-2.56675	0	
0.3953	10.439	1.39815	0	
0.3960	1.60176	3.83969	0	
0.3967	3.42445	0.79298	0	
0.3973	10.1353	0.479961	0	
0.3980	12.5655	3.54754	0	
0.3987	10.439	2.31634	0	
0.3993	3.12067	-0.125207	0	
0.4000	-5.74424	2.02419	0	
0.4007	-4.80528	1.71117	0	
0.4013	0.662797	-0.125207	0	
0.4020	0.0552331	1.71117	0	
0.4027	-0.856112	2.62935	0	
0.4033	1.90554	1.106	0	
0.4040	-2.37502	1.71117	0	
0.4047	-14.8853	4.46573	0	
0.4053	-26.4843	5.0709	0	
0.4060	-31.3724	2.02419	0	
0.4067	-28.3069	-1.96158	0	
0.4073	-23.115	-1.04339	0	
0.4080	-20.9886	1.71117	0	
0.4087	-18.5583	-1.04339	0	
0.4093	-12.4551	-3.17192	0	
0.4100	-6.3518	-1.04339	0	
0.4107	-1.15989	-1.04339	0	
0.4113	3.72823	-2.8589	0	
0.4120	6.76605	-0.125207	0	
0.4127	8.61636	-0.125207	0	
0.4133	11.958	-4.09011	0	
0.4140	16.2385	-4.09011	0	
0.4147	17.1499	-2.8589	0	
0.4153	17.1499	-5.00829	0	
0.4160	17.7574	-6.21863	0	
0.4167	15.3272	-4.69527	0	
0.4173	10.7428	-2.8589	0	
0.4180	7.09745	-1.04339	0	
0.4187	3.72823	-1.96158	0	
0.4193	0.662797	-3.17192	0	
0.4200	0.359015	-1.96158	0	
0.4207	0.662797	-0.730376	0	
0.4213	0.0552331	-1.64856	0	
0.4220	-0.248549	-1.04339	0	
0.4227	-1.76746	0.79298	0	
0.4233	-5.13667	2.62935	0	
0.4240	-7.26315	5.98908	0	
0.4247	-6.65558	5.36305	0	
0.4253	-7.87071	2.02419	0	
0.4260	-10.9085	1.71117	0	
0.4267	-12.1513	2.9215	0	
0.4273	-11.5437	2.62935	0	
0.4280	-8.47827	2.31634	0	
0.4287	-4.80528	2.02419	0	
0.4293	-4.80528	1.39815	0	
0.4300	-6.3518	1.71117	0	
0.4307	-2.98259	1.71117	0	
0.4313	0.662797	0.479961	0	
0.4320	0.0552331	1.106	0	
0.4327	0.662797	2.31634	0	
0.4333	4.63958	1.39815	0	
0.4340	7.09745	-0.417358	0	
0.4347	8.00879	-1.96158	0	
0.4353	7.09745	-2.25373	0	
0.4360	3.42445	-2.56675	0	
0.4367	1.60176	-4.69527	0	
0.4373	4.03201	-6.53165	0	
0.4380	5.24714	-6.21863	0	
0.4387	2.5131	-4.40312	0	
0.4393	0.966579	-4.69527	0	
0.4400	4.3358	-5.61346	0	
0.4407	5.8547	-3.17192	0	
0.4413	0.0552331	-0.730376	0	
0.4420	-2.98259	-1.33554	0	
0.4427	3.42445	-3.77709	0	
0.4433	5.55092	-4.09011	0	
0.4440	1.60176	-3.77709	0	
0.4447	-0.248549	-2.8589	0	
0.4453	0.662797	-0.730376	0	
0.4460	4.63958	-0.730376	0	
0.4467	12.2617	-2.8589	0	
0.4473	13.5045	-1.96158	0	
0.4480	10.439	-0.125207	0	
0.4487	10.7428	-1.96158	0	
0.4493	5.55092	-4.69527	0	
0.4500	-2.98259	-3.48494	0	
0.4507	0.359015	-2.25373	0	
0.4513	8.92014	-0.730376	0	
0.4520	8.92014	1.71117	0	
0.4527	5.24714	0.79298	0	
0.4533	0.359015	-1.64856	0	
0.4540	-6.3518	1.106	0	
0.4547	-9.99718	3.54754	0	
0.4553	-13.3664	2.62935	0	
0.4560	-17.647	6.28123	0	
0.4567	-18.5583	11.1643	0	
0.4573	-21.2923	10.5592	0	
0.4580	-27.6994	8.11761	0	
0.4587	-28.0032	7.80459	0	
0.4593	-22.8113	6.28123	0	
0.4600	-21.8999	4.46573	0	
0.4607	-22.8113	4.75788	0	
0.4613	-20.9886	4.46573	0	
0.4620	-18.8621	4.46573	0	
0.4627	-16.708	7.19942	0	
0.4633	-11.8475	5.98908	0	
0.4640	-3.89393	-1.04339	0	
0.4647	2.20932	-5.00829	0	
0.4653	4.03201	-3.77709	0	
0.4660	4.3358	-4.40312	0	
0.4667	6.76605	-7.44984	0	
0.4673	9.5277	-7.13682	0	
0.4680	14.112	-6.21863	0	
0.4687	18.0612	-9.28621	0	
0.4693	18.0612	-9.28621	0	
0.4700	18.0612	-3.48494	0	
0.4707	18.6688	-1.04339	0	
0.4713	15.9347	-2.56675	0	
0.4720	13.5045	-2.8589	0	
0.4727	17.1499	-3.48494	0	
0.4733	20.8229	-4.69527	0	
0.4740	19.9115	-3.17192	0	
0.4747	16.2385	-4.40312	0	
0.4753	11.6542	-7.13682	0	
0.4760	8.92014	-5.92648	0	
0.4767	5.8547	-2.8589	0	
0.4773	-2.37502	0.479961	0	
0.4780	-9.08584	2.62935	0	
0.4787	-3.89393	2.02419	0	
0.4793	7.70501	1.71117	0	
0.4800	12.8693	4.75788	0	
0.4807	12.5655	4.46573	0	
0.4813	10.7428	0.187811	0	
0.4820	8.92014	0.479961	0	
0.4827	3.42445	2.62935	0	
0.4833	-0.552331	1.106	0	
0.4840	0.359015	0.479961	0	
0.4847	0.966579	2.31634	0	
0.4853	-2.07124	3.54754	0	
0.4860	-4.80528	3.54754	0	
0.4867	-8.47827	2.9215	0	
0.4873	-16.4042	0.79298	0	
0.4880	-20.381	-0.730376	0	
0.4887	-16.708	-0.730376	0	
0.4893	-10.6047	-0.125207	0	
0.4900	-4.19771	-0.417358	0	
0.4907	1.29798	-1.04339	0	
0.4913	2.5131	-0.125207	0	
0.4920	2.81689	-0.730376	0	
0.4927	6.15849	-3.77709	0	
0.4933	11.958	-5.92648	0	
0.4940	14.4158	-5.92648	0	
0.4947	5.8547	-6.84467	0	
0.4953	-9.6934	-7.44984	0	
0.4960	-18.2545	-4.40312	0	
0.4967	-15.7967	-3.17192	0	
0.4973	-11.5437	-5.61346	0	
0.4980	-8.47827	-7.44984	0	
0.4987	-7.26315	-6.53165	0	
0.4993	-9.6934	-5.61346	0	
0.5000	-12.1513	-2.56675	0	
0.5007	-10.6047	-0.730376	0	
0.5013	-10.301	-1.04339	0	
0.5020	-13.0626	0.79298	0	
0.5027	-12.1513	3.83969	0	
0.5033	-7.87071	2.02419	0	
0.5040	-6.04802	-1.04339	0	
0.5047	-6.04802	-0.125207	0	
0.5053	-5.44046	0.479961	0	
0.5060	-3.28637	-0.730376	0	
0.5067	-0.856112	-1.33554	0	
0.5073	-1.15989	-0.125207	0	
0.5080	-3.89393	2.62935	0	
0.5087	-6.95937	2.62935	0	
0.5093	-9.99718	0.79298	0	
0.5100	-10.9085	1.39815	0	
0.5107	-6.65558	1.106	0	
0.5113	-2.07124	-1.96158	0	
0.5120	-1.76746	-1.96158	0	
0.5127	-0.248549	0.187811	0	
0.5133	2.20932	0.479961	0	
0.5140	-0.248549	-0.125207	0	
0.5147	-1.46368	-1.04339	0	
0.5153	1.60176	-1.96158	0	
0.5160	3.42445	-1.04339	0	
0.5167	2.20932	0.187811	0	
0.5173	1.90554	0.79298	0	
0.5180	-0.856112	2.02419	0	
0.5187	-5.13667	2.02419	0	
0.5193	-4.19771	1.106	0	
0.5200	-0.856112	0.479961	0	
0.5207	-0.248549	-1.04339	0	
0.5213	0.662797	-2.8589	0	
0.5220	3.12067	-1.33554	0	
0.5227	4.03201	0.479961	0	
0.5233	1.29798	0.79298	0	
0.5240	-5.13667	1.106	0	
0.5247	-7.26315	1.39815	0	
0.5253	-1.15989	0.79298	0	
0.5260	2.20932	1.106	0	
0.5267	-2.37502	2.9215	0	
0.5273	-3.89393	5.0709	0	
0.5280	-0.856112	5.0709	0	
0.5287	2.5131	3.23452	0	
0.5293	7.70501	3.54754	0	
0.5300	11.0466	7.19942	0	
0.5307	9.5277	7.19942	0	
0.5313	7.70501	5.36305	0	
0.5320	6.15849	6.90727	0	
0.5327	3.42445	7.19942	0	
0.5333	3.42445	2.62935	0	
0.5340	6.15849	0.479961	0	
0.5347	9.22392	0.479961	0	
0.5353	11.0466	-2.25373	0	
0.5360	9.5277	-4.69527	0	
0.5367	3.42445	-1.64856	0	
0.5373	-2.07124	0.479961	0	
0.5380	-3.89393	-0.730376	0	
0.5387	-4.50149	0.187811	0	
0.5393	-7.56693	2.62935	0	
0.5400	-14.8853	4.15271	0	
0.5407	-19.7734	5.36305	0	
0.5413	-17.0118	6.28123	0	
0.5420	-12.1513	6.28123	0	
0.5427	-12.1513	5.36305	0	
0.5433	-11.2399	3.83969	0	
0.5440	-6.04802	1.71117	0	
0.5447	-0.248549	-0.730376	0	
0.5453	4.3358	-3.48494	0	
0.5460	8.92014	-5.61346	0	
0.5467	8.92014	-6.21863	0	
0.5473	5.24714	-6.53165	0	
0.5480	4.03201	-5.61346	0	
0.5487	6.15849	-4.40312	0	
0.5493	8.61636	-5.00829	0	
0.5500	11.0466	-4.69527	0	
0.5507	13.5045	-2.56675	0	
0.5513	14.4158	-3.17192	0	
0.5520	14.7196	-4.40312	0	
0.5527	14.4158	-0.730376	0	
0.5533	12.5655	-0.125207	0	
0.5540	13.5045	-3.77709	0	
0.5547	17.1499	-1.96158	0	
0.5553	16.8461	1.71117	0	
0.5560	8.31258	1.106	0	
0.5567	-2.07124	2.02419	0	
0.5573	-5.74424	4.75788	0	
0.5580	-7.56693	4.75788	0	
0.5587	-12.4551	6.28123	0	
0.5593	-13.0626	8.11761	0	
0.5600	-13.0626	6.28123	0	
0.5607	-19.4697	7.19942	0	
0.5613	-22.2037	8.72278	0	
0.5620	-16.1004	2.62935	0	
0.5627	-13.6702	-0.417358	0	
0.5633	-15.7967	4.46573	0	
0.5640	-14.5815	2.62935	0	
0.5647	-13.6702	-3.17192	0	
0.5653	-11.8475	-2.25373	0	
0.5660	-5.13667	-2.25373	0	
0.5667	-3.28637	-7.44984	0	
0.5673	-4.50149	-9.57836	0	
0.5680	3.42445	-11.4147	0	
0.5687	13.8083	-14.4614	0	
0.5693	17.1499	-11.1017	0	
0.5700	16.5423	-6.53165	0	
0.5707	16.8461	-6.21863	0	
0.5713	20.8229	-4.69527	0	
0.5720	28.1412	-3.77709	0	
0.5727	30.8753	-6.53165	0	
0.5733	28.1412	-6.53165	0	
0.5740	27.2299	-3.48494	0	
0.5747	22.038	-1.96158	0	
0.5753	7.09745	-0.417358	0	
0.5760	-7.87071	1.71117	0	
0.5767	-17.647	2.02419	0	
0.5773	-22.8113	2.9215	0	
0.5780	-17.647	4.46573	0	
0.5787	-9.38962	2.02419	0	
0.5793	-13.974	-1.33554	0	
0.5800	-24.6616	-0.730376	0	
0.5807	-25.8767	1.71117	0	
0.5813	-21.5961	1.71117	0	
0.5820	-19.4697	0.479961	0	
0.5827	-17.3432	2.62935	0	
0.5833	-14.5815	4.46573	0	
0.5840	-12.1513	1.106	0	
0.5847	-9.38962	-0.417358	0	
0.5853	-5.74424	2.62935	0	
0.5860	-3.59015	3.54754	0	
0.5867	-4.19771	2.9215	0	
0.5873	-5.44046	3.23452	0	
0.5880	-2.07124	1.71117	0	
0.5887	2.81689	-0.125207	0	
0.5893	3.72823	0.79298	0	
0.5900	2.20932	-0.125207	0	
0.5907	1.29798	-2.25373	0	
0.5913	-0.248549	-1.96158	0	
0.5920	-1.76746	0.187811	0	
0.5927	0.966579	-1.04339	0	
0.5933	3.42445	-4.69527	0	
0.5940	2.81689	-4.69527	0	
0.5947	4.3358	-2.25373	0	
0.5953	7.70501	-1.33554	0	
0.5960	8.00879	-0.125207	0	
0.5967	5.24714	0.79298	0	
0.5973	-0.248549	-1.04339	0	
0.5980	-4.80528	-0.730376	0	
0.5987	1.60176	1.106	0	
0.5993	13.5045	-0.730376	0	
0.6000	18.9726	-2.56675	0	
0.6007	17.4536	-0.730376	0	
0.6013	14.7196	0.79298	0	
0.6020	9.83148	1.106	0	
0.6027	5.24714	1.106	0	
0.6033	4.03201	-1.33554	0	
0.6040	3.12067	-2.8589	0	
0.6047	-0.248549	-0.417358	0	
0.6053	-3.59015	1.106	0	
0.6060	-5.74424	0.79298	0	
0.6067	-8.47827	0.79298	0	
0.6073	-12.1513	-0.417358	0	
0.6080	-16.4042	-1.33554	0	
0.6087	-12.7588	0.79298	0	
0.6093	-2.98259	1.106	0	
0.6100	-1.76746	-1.04339	0	
0.6107	-10.6047	-1.96158	0	
0.6113	-17.647	-1.04339	0	
0.6120	-18.5583	0.79298	0	
0.6127	-13.974	0.79298	0	
0.6133	-6.65558	0.187811	0	
0.6140	-2.07124	0.187811	0	
0.6147	-2.07124	-0.125207	0	
0.6153	-0.248549	-1.96158	0	
0.6160	0.966579	-1.04339	0	
0.6167	0.662797	0.79298	0	
0.6173	2.20932	-1.96158	0	
0.6180	4.3358	-4.69527	0	
0.6187	6.76605	-2.56675	0	
0.6193	11.6542	-1.33554	0	
0.6200	14.7196	-3.77709	0	
0.6207	11.6542	-3.17192	0	
0.6213	8.92014	-1.96158	0	
0.6220	11.6542	-3.77709	0	
0.6227	13.8083	-2.56675	0	
0.6233	9.22392	0.79298	0	
0.6240	2.20932	-1.96158	0	
0.6247	-2.07124	-4.40312	0	
0.6253	-5.13667	-1.04339	0	
0.6260	-9.08584	-0.730376	0	
0.6267	-7.56693	-4.69527	0	
0.6273	-2.07124	-3.48494	0	
0.6280	-2.07124	0.79298	0	
0.6287	-7.26315	0.187811	0	
0.6293	-12.1513	-1.33554	0	
0.6300	-13.0626	0.79298	0	
0.6307	-6.65558	2.02419	0	
0.6313	1.60176	-0.730376	0	
0.6320	1.60176	-1.04339	0	
0.6327	-3.89393	2.62935	0	
0.6333	-5.74424	3.83969	0	
0.6340	-3.89393	2.02419	0	
0.6347	-1.46368	0.79298	0	
0.6353	-0.248549	-0.125207	0	
0.6360	-0.552331	-1.64856	0	
0.6367	-0.248549	-1.96158	0	
0.6373	3.12067	-1.96158	0	
0.6380	4.94336	-2.8589	0	
0.6387	2.5131	-2.56675	0	
0.6393	-2.07124	-1.96158	0	
0.6400	-6.04802	-2.25373	0	
0.6407	-6.65558	-2.8589	0	
0.6413	-4.19771	-2.8589	0	
0.6420	-2.07124	-1.33554	0	
0.6427	-2.07124	-1.04339	0	
0.6433	-2.6788	-1.64856	0	
0.6440	-3.59015	-1.04339	0	
0.6447	-4.19771	0.479961	0	
0.6453	-4.80528	-1.33554	0	
0.6460	-4.50149	-3.48494	0	
0.6467	-3.28637	-3.48494	0	
0.6473	-1.76746	-3.17192	0	
0.6480	-0.248549	-1.64856	0	
0.6487	-0.248549	0.479961	0	
0.6493	-0.248549	-0.730376	0	
0.6500	3.12067	-3.17192	0	
0.6507	6.15849	-2.8589	0	
0.6513	5.55092	-2.25373	0	
0.6520	2.5131	-2.56675	0	
0.6527	-0.248549	-1.96158	0	
0.6533	-1.15989	-1.96158	0	
0.6540	1.90554	-1.96158	0	
0.6547	6.15849	-1.04339	0	
0.6553	7.09745	-0.730376	0	
0.6560	7.09745	-0.730376	0	
0.6567	7.09745	0.187811	0	
0.6573	4.63958	0.187811	0	
0.6580	1.60176	-0.417358	0	
0.6587	-0.856112	0.79298	0	
0.6593	-2.98259	2.62935	0	
0.6600	-1.46368	1.71117	0	
0.6607	1.29798	0.187811	0	
0.6613	0.0552331	0.479961	0	
0.6620	-1.15989	2.31634	0	
0.6627	-2.07124	3.23452	0	
0.6633	-4.80528	2.02419	0	
0.6640	-4.50149	2.62935	0	
0.6647	-0.552331	3.54754	0	
0.6653	-0.552331	2.31634	0	
0.6660	-2.07124	0.187811	0	
0.6667	0.966579	1.106	0	
0.6673	4.03201	1.106	0	
0.6680	4.3358	0.479961	0	
0.6687	6.15849	2.02419	0	
0.6693	6.46227	2.02419	0	
0.6700	6.15849	0.79298	0	
0.6707	9.22392	3.23452	0	
0.6713	10.439	5.0709	0	
0.6720	8.00879	1.71117	0	
0.6727	9.22392	0.479961	0	
0.6733	10.7428	2.9215	0	
0.6740	7.09745	3.23452	0	
0.6747	4.3358	1.71117	0	
0.6753	5.24714	2.62935	0	
0.6760	4.94336	3.23452	0	
0.6767	5.8547	2.31634	0	
0.6773	7.40123	2.02419	0	
0.6780	2.5131	1.106	0	
0.6787	-4.19771	-0.125207	0	
0.6793	-6.04802	2.02419	0	
0.6800	-6.04802	5.67607	0	
0.6807	-6.65558	4.46573	0	
0.6813	-3.89393	1.39815	0	
0.6820	0.662797	2.62935	0	
0.6827	1.90554	3.83969	0	
0.6833	1.90554	1.39815	0	
0.6840	3.12067	0.187811	0	
0.6847	0.966579	0.479961	0	
0.6853	-3.89393	-1.04339	0	
0.6860	-5.74424	-0.417358	0	
0.6867	-5.74424	3.23452	0	
0.6873	-3.89393	3.54754	0	
0.6880	0.966579	1.71117	0	
0.6887	3.42445	0.79298	0	
0.6893	1.29798	-1.04339	0	
0.6900	0.966579	-2.56675	0	
0.6907	1.29798	0.479961	0	
0.6913	-1.15989	3.54754	0	
0.6920	0.0552331	2.9215	0	
0.6927	3.42445	0.79298	0	
0.6933	4.03201	-1.64856	0	
0.6940	5.24714	-3.17192	0	
0.6947	5.24714	-3.17192	0	
0.6953	1.60176	-1.96158	0	
0.6960	-2.07124	-1.33554	0	
0.6967	-5.13667	-2.25373	0	
0.6973	-4.80528	-5.61346	0	
0.6980	0.662797	-6.84467	0	
0.6987	2.81689	-4.69527	0	
0.6993	1.60176	-4.69527	0	
0.7000	5.8547	-7.44984	0	
0.7007	8.92014	-6.84467	0	
0.7013	3.42445	-4.40312	0	
0.7020	-2.6788	-2.8589	0	
0.7027	-6.65558	-0.417358	0	
0.7033	-10.6047	1.39815	0	
0.7040	-9.38962	0.187811	0	
0.7047	-4.19771	-1.33554	0	
0.7053	0.662797	-1.33554	0	
0.7060	5.24714	-1.96158	0	
0.7067	5.8547	-2.8589	0	
0.7073	0.359015	-1.96158	0	
0.7080	-3.89393	-0.125207	0	
0.7087	-2.98259	-0.730376	0	
0.7093	0.662797	-1.96158	0	
0.7100	6.15849	-1.04339	0	
0.7107	8.00879	1.39815	0	
0.7113	2.81689	1.106	0	
0.7120	-1.15989	-0.417358	0	
0.7127	-1.15989	-2.25373	0	
0.7133	-2.07124	-3.48494	0	
0.7140	-2.37502	-3.77709	0	
0.7147	0.662797	-4.69527	0	
0.7153	0.359015	-4.69527	0	
0.7160	-4.50149	-2.8589	0	
0.7167	-5.13667	-1.96158	0	
0.7173	-2.98259	-4.09011	0	
0.7180	-3.89393	-3.77709	0	
0.7187	-7.87071	-0.125207	0	
0.7193	-10.6047	1.71117	0	
0.7200	-11.2399	0.479961	0	
0.7207	-10.301	-1.04339	0	
0.7213	-8.78206	-1.04339	0	
0.7220	-6.65558	-0.417358	0	
0.7227	-3.89393	0.79298	0	
0.7233	-4.80528	1.71117	0	
0.7240	-10.301	1.106	0	
0.7247	-15.7967	0.79298	0	
0.7253	-13.974	0.479961	0	
0.7260	-8.17449	-0.417358	0	
0.7267	-6.65558	-1.04339	0	
0.7273	-8.78206	-0.125207	0	
0.7280	-8.47827	1.39815	0	
0.7287	-6.65558	3.23452	0	
0.7293	-4.80528	4.75788	0	
0.7300	-1.76746	4.46573	0	
0.7307	1.60176	3.83969	0	
0.7313	3.42445	3.23452	0	
0.7320	5.24714	0.479961	0	
0.7327	5.24714	-1.04339	0	
0.7333	2.81689	1.39815	0	
0.7340	1.60176	2.9215	0	
0.7347	0.662797	-0.125207	0	
0.7353	-3.89393	-1.96158	0	
0.7360	-4.80528	0.479961	0	
0.7367	-0.552331	1.71117	0	
0.7373	0.0552331	-0.125207	0	
0.7380	-3.59015	-1.64856	0	
0.7387	-4.19771	-0.417358	0	
0.7393	-2.98259	0.479961	0	
0.7400	-2.98259	-0.125207	0	
0.7407	-1.15989	-0.417358	0	
0.7413	2.5131	-0.730376	0	
0.7420	1.90554	-2.8589	0	
0.7427	-3.89393	-3.77709	0	
0.7433	-10.301	-1.33554	0	
0.7440	-11.2399	-0.417358	0	
0.7447	-8.17449	-2.8589	0	
0.7453	-5.74424	-4.09011	0	
0.7460	-5.13667	-2.25373	0	
0.7467	-5.74424	-0.417358	0	
0.7473	-5.74424	0.79298	0	
0.7480	-3.89393	0.79298	0	
0.7487	-0.248549	-1.96158	0	
0.7493	2.20932	-3.48494	0	
0.7500	3.12067	-1.64856	0	
0.7507	4.03201	-1.33554	0	
0.7513	3.72823	-2.56675	0	
0.7520	3.72823	-1.04339	0	
0.7527	4.3358	0.187811	0	
0.7533	2.5131	-2.8589	0	
0.7540	0.359015	-3.48494	0	
0.7547	0.662797	-0.730376	0	
0.7553	1.29798	0.187811	0	
0.7560	0.0552331	0.479961	0	
0.7567	-0.248549	1.71117	0	
0.7573	-1.76746	1.106	0	
0.7580	-4.19771	-1.33554	0	
0.7587	-3.89393	-1.33554	0	
0.7593	-2.98259	-1.04339	0	
0.7600	-6.3518	-2.25373	0	
0.7607	-8.47827	-0.125207	0	
0.7613	-6.3518	5.36305	0	
0.7620	-4.80528	7.19942	0	
0.7627	-4.50149	4.75788	0	
0.7633	-5.74424	3.83969	0	
0.7640	-9.38962	5.36305	0	
0.7647	-12.1513	7.19942	0	
0.7653	-10.301	8.43063	0	
0.7660	-8.17449	8.11761	0	
0.7667	-9.38962	6.28123	0	
0.7673	-14.2777	7.19942	0	
0.7680	-13.6702	7.80459	0	
0.7687	0.966579	3.83969	0	
0.7693	19.6077	0.79298	0	
0.7700	27.2299	0.187811	0	
0.7707	28.1412	-2.25373	0	
0.7713	29.0526	-4.69527	0	
0.7720	30.8753	-4.40312	0	
0.7727	31.5105	-3.77709	0	
0.7733	28.1412	-6.21863	0	
0.7740	24.1645	-8.66017	0	
0.7747	17.7574	-7.44984	0	
0.7753	5.24714	-3.48494	0	
0.7760	-4.80528	-1.96158	0	
0.7767	-8.78206	-3.77709	0	
0.7773	-18.5583	-2.25373	0	
0.7780	-28.9145	0.79298	0	
0.7787	-25.5729	1.71117	0	
0.7793	-18.8621	1.71117	0	
0.7800	-17.647	-0.730376	0	
0.7807	-14.2777	-4.40312	0	
0.7813	-12.1513	-3.77709	0	
0.7820	-13.974	-3.17192	0	
0.7827	-8.47827	-5.61346	0	
0.7833	-0.856112	-5.30044	0	
0.7840	-0.552331	-4.69527	0	
0.7847	-1.46368	-6.84467	0	
0.7853	-1.15989	-7.13682	0	
0.7860	-2.6788	-5.92648	0	
0.7867	-0.552331	-7.74199	0	
0.7873	0.0552331	-7.13682	0	
0.7880	-6.3518	-2.25373	0	
0.7887	-8.47827	0.187811	0	
0.7893	-1.46368	0.479961	0	
0.7900	5.24714	1.39815	0	
0.7907	7.70501	2.31634	0	
0.7913	8.00879	3.83969	0	
0.7920	11.0466	5.36305	0	
0.7927	19.9115	2.9215	0	
0.7933	23.5569	-1.04339	0	
0.7940	17.1499	-1.04339	0	
0.7947	15.0234	-0.730376	0	
0.7953	17.1499	-2.8589	0	
0.7960	13.5045	-2.8589	0	
0.7967	9.83148	-0.730376	0	
0.7973	9.22392	-0.417358	0	
0.7980	4.3358	-3.77709	0	
0.7987	-2.07124	-6.53165	0	
0.7993	-4.19771	-5.92648	0	
0.8000	-9.6934	-3.48494	0	
0.8007	-16.708	-2.25373	0	
0.8013	-16.4042	-2.56675	0	
0.8020	-13.974	-1.64856	0	
0.8027	-14.8853	-1.04339	0	
0.8033	-13.974	-1.96158	0	
0.8040	-9.6934	-1.04339	0	
0.8047	-5.74424	-0.730376	0	
0.8053	-0.856112	-3.48494	0	
0.8060	3.72823	-4.09011	0	
0.8067	6.15849	-1.04339	0	
0.8073	8.00879	-0.730376	0	
0.8080	8.92014	-1.64856	0	
0.8087	5.24714	1.106	0	
0.8093	0.662797	3.54754	0	
0.8100	2.81689	2.62935	0	
0.8107	5.8547	2.31634	0	
0.8113	4.94336	2.02419	0	
0.8120	3.72823	-1.64856	0	
0.8127	2.5131	-3.48494	0	
0.8133	-2.98259	-0.125207	0	
0.8140	-10.301	3.23452	0	
0.8147	-14.8853	4.46573	0	
0.8153	-15.4929	6.28123	0	
0.8160	-11.8475	4.75788	0	
0.8167	-8.47827	0.79298	0	
0.8173	-6.3518	-0.730376	0	
0.8180	-3.59015	-2.25373	0	
0.8187	-2.07124	-5.30044	0	
0.8193	-1.15989	-3.77709	0	
0.8200	3.42445	0.479961	0	
0.8207	7.40123	1.39815	0	
0.8213	5.55092	-0.417358	0	
0.8220	2.81689	-2.25373	0	
0.8227	4.03201	-1.33554	0	
0.8233	6.15849	1.39815	0	
0.8240	5.24714	1.106	0	
0.8247	2.5131	1.39815	0	
0.8253	1.60176	5.0709	0	
0.8260	5.8547	5.36305	0	
0.8267	11.6542	2.62935	0	
0.8273	14.4158	2.62935	0	
0.8280	13.2007	2.31634	0	
0.8287	9.5277	2.62935	0	
0.8293	5.55092	6.28123	0	
0.8300	2.5131	6.59425	0	
0.8307	-0.248549	3.83969	0	
0.8313	-2.98259	4.46573	0	
0.8320	-3.59015	4.15271	0	
0.8327	-3.28637	0.479961	0	
0.8333	-4.80528	-1.04339	0	
0.8340	-2.37502	-1.33554	0	
0.8347	1.60176	-2.8589	0	
0.8353	0.0552331	-1.04339	0	
0.8360	-0.248549	1.71117	0	
0.8367	3.12067	1.71117	0	
0.8373	0.662797	1.71117	0	
0.8380	-4.50149	1.71117	0	
0.8387	-6.95937	0.479961	0	
0.8393	-9.38962	-0.730376	0	
0.8400	-7.56693	-2.25373	0	
0.8407	-1.76746	-1.96158	0	
0.8413	-2.6788	2.02419	0	
0.8420	-7.56693	3.54754	0	
0.8427	-6.65558	1.71117	0	
0.8433	-3.89393	2.62935	0	
0.8440	-4.50149	3.54754	0	
0.8447	-5.74424	2.02419	0	
0.8453	-6.3518	2.9215	0	
0.8460	-3.89393	4.15271	0	
0.8467	1.90554	0.79298	0	
0.8473	4.3358	-2.25373	0	
0.8480	4.3358	-1.96158	0	
0.8487	8.31258	-1.96158	0	
0.8493	15.3272	-3.48494	0	
0.8500	18.9726	-6.21863	0	
0.8507	16.8461	-9.28621	0	
0.8513	15.3272	-8.36802	0	
0.8520	19.6077	-5.00829	0	
0.8527	23.5569	-5.92648	0	
0.8533	20.8229	-6.21863	0	
0.8540	13.8083	-1.04339	0	
0.8547	6.76605	1.71117	0	
0.8553	-0.248549	0.79298	0	
0.8560	-6.04802	3.23452	0	
0.8567	-11.5437	6.28123	0	
0.8573	-17.3432	6.59425	0	
0.8580	-20.6848	8.11761	0	
0.8587	-18.8621	9.0358	0	
0.8593	-14.2777	5.36305	0	
0.8600	-12.1513	4.46573	0	
0.8607	-12.1513	6.90727	0	
0.8613	-10.301	4.46573	0	
0.8620	-8.78206	-0.730376	0	
0.8627	-10.6047	-2.8589	0	
0.8633	-13.0626	-2.25373	0	
0.8640	-9.99718	-3.77709	0	
0.8647	-2.07124	-4.69527	0	
0.8653	5.8547	-3.77709	0	
0.8660	10.1353	-5.61346	0	
0.8667	10.1353	-9.28621	0	
0.8673	8.00879	-8.055	0	
0.8680	8.31258	-6.84467	0	
0.8687	12.8693	-10.1835	0	
0.8693	15.9347	-11.1017	0	
0.8700	12.8693	-8.66017	0	
0.8707	8.92014	-9.28621	0	
0.8713	7.09745	-7.44984	0	
0.8720	4.3358	-3.77709	0	
0.8727	5.8547	-3.17192	0	
0.8733	11.6542	-2.8589	0	
0.8740	13.5045	-0.417358	0	
0.8747	9.83148	-0.125207	0	
0.8753	8.31258	0.187811	0	
0.8760	7.09745	0.79298	0	
0.8767	4.3358	-3.17192	0	
0.8773	5.55092	-5.61346	0	
0.8780	8.92014	-3.77709	0	
0.8787	8.31258	-3.17192	0	
0.8793	6.76605	-2.8589	0	
0.8800	6.76605	-0.417358	0	
0.8807	2.5131	1.39815	0	
0.8813	-3.59015	0.79298	0	
0.8820	-2.98259	-0.730376	0	
0.8827	-2.37502	0.187811	0	
0.8833	-9.6934	3.54754	0	
0.8840	-18.2545	4.46573	0	
0.8847	-19.7734	4.15271	0	
0.8853	-13.974	4.46573	0	
0.8860	-2.37502	3.23452	0	
0.8867	8.92014	0.479961	0	
0.8873	12.5655	-0.730376	0	
0.8880	11.958	-1.64856	0	
0.8887	13.5045	-2.8589	0	
0.8893	14.4158	-2.8589	0	
0.8900	12.5655	-1.64856	0	
0.8907	9.5277	-0.125207	0	
0.8913	5.55092	0.479961	0	
0.8920	1.29798	-1.04339	0	
0.8927	1.60176	-2.8589	0	
0.8933	-1.15989	-4.40312	0	
0.8940	-17.9507	-4.09011	0	
0.8947	-39.2983	-0.417358	0	
0.8953	-44.794	4.75788	0	
0.8960	-34.714	5.0709	0	
0.8967	-23.115	2.62935	0	
0.8973	-15.7967	2.62935	0	
0.8980	-10.301	2.9215	0	
0.8987	-4.50149	1.106	0	
0.8993	0.966579	0.79298	0	
0.9000	4.63958	2.62935	0	
0.9007	5.55092	3.83969	0	
0.9013	6.46227	6.59425	0	
0.9020	5.24714	9.34881	0	
0.9027	-6.3518	7.19942	0	
0.9033	-25.8767	4.15271	0	
0.9040	-36.8681	4.15271	0	
0.9047	-32.2837	2.62935	0	
0.9053	-23.115	-1.04339	0	
0.9060	-18.8621	-0.125207	0	
0.9067	-17.647	3.23452	0	
0.9073	-13.974	4.15271	0	
0.9080	-9.6934	3.54754	0	
0.9087	-9.6934	2.02419	0	
0.9093	-13.0626	0.79298	0	
0.9100	-15.4929	1.71117	0	
0.9107	-14.2777	2.02419	0	
0.9113	-11.2399	-0.417358	0	
0.9120	-10.301	-3.17192	0	
0.9127	-11.2399	-5.92648	0	
0.9133	-9.38962	-7.74199	0	
0.9140	-6.04802	-5.61346	0	
0.9147	-3.89393	-4.09011	0	
0.9153	-2.6788	-5.30044	0	
0.9160	-1.76746	-4.69527	0	
0.9167	-0.248549	-3.77709	0	
0.9173	3.72823	-4.69527	0	
0.9180	7.70501	-4.69527	0	
0.9187	8.31258	-3.77709	0	
0.9193	7.40123	-5.30044	0	
0.9200	6.15849	-6.21863	0	
0.9207	4.3358	-4.69527	0	
0.9213	4.3358	-4.40312	0	
0.9220	5.24714	-5.61346	0	
0.9227	4.63958	-3.77709	0	
0.9233	6.15849	-1.04339	0	
0.9240	11.0466	-2.8589	0	
0.9247	11.958	-4.09011	0	
0.9253	6.76605	-1.96158	0	
0.9260	1.60176	-2.25373	0	
0.9267	-2.07124	-2.8589	0	
0.9273	-7.87071	2.02419	0	
0.9280	-9.38962	4.15271	0	
0.9287	-3.89393	1.71117	0	
0.9293	0.0552331	2.62935	0	
0.9300	2.5131	5.36305	0	
0.9307	7.70501	4.46573	0	
0.9313	9.83148	3.54754	0	
0.9320	2.81689	2.31634	0	
0.9327	-5.74424	0.79298	0	
0.9333	-4.80528	0.79298	0	
0.9340	0.966579	0.479961	0	
0.9347	1.60176	-0.417358	0	
0.9353	-2.98259	1.71117	0	
0.9360	-4.50149	3.54754	0	
0.9367	-2.6788	1.39815	0	
0.9373	-2.07124	1.39815	0	
0.9380	-0.248549	2.9215	0	
0.9387	2.5131	1.71117	0	
0.9393	1.29798	-0.417358	0	
0.9400	-0.552331	-0.125207	0	
0.9407	0.662797	-0.125207	0	
0.9413	0.359015	-1.04339	0	
0.9420	-0.248549	-1.04339	0	
0.9427	1.60176	-2.25373	0	
0.9433	0.662797	-1.96158	0	
0.9440	-3.59015	0.79298	0	
0.9447	-3.28637	1.71117	0	
0.9453	0.662797	0.79298	0	
0.9460	3.12067	-0.417358	0	
0.9467	4.63958	-1.96158	0	
0.9473	6.15849	-3.17192	0	
0.9480	5.55092	-4.40312	0	
0.9487	7.09745	-4.09011	0	
0.9493	9.22392	-1.04339	0	
0.9500	8.00879	1.71117	0	
0.9507	6.46227	2.31634	0	
0.9513	8.61636	1.71117	0	
0.9520	8.92014	0.187811	0	
0.9527	5.24714	-0.125207	0	
0.9533	3.42445	2.31634	0	
0.9540	5.24714	2.62935	0	
0.9547	7.09745	0.79298	0	
0.9553	7.09745	1.71117	0	
0.9560	5.24714	3.23452	0	
0.9567	4.03201	0.79298	0	
0.9573	0.966579	-0.730376	0	
0.9580	-1.15989	-1.04339	0	
0.9587	-0.856112	-1.96158	0	
0.9593	-4.19771	-1.96158	0	
0.9600	-11.5437	-1.96158	0	
0.9607	-12.4551	-2.8589	0	
0.9613	-8.47827	-1.96158	0	
0.9620	-6.65558	-0.417358	0	
0.9627	-2.98259	-1.04339	0	
0.9633	3.12067	-1.04339	0	
0.9640	3.42445	-1.33554	0	
0.9647	-1.15989	-4.40312	0	
0.9653	-10.301	-2.25373	0	
0.9660	-22.5075	4.75788	0	
0.9667	-24.054	6.28123	0	
0.9673	-12.4551	3.83969	0	
0.9680	-4.50149	3.54754	0	
0.9687	-2.98259	1.106	0	
0.9693	-0.856112	-4.69527	0	
0.9700	2.20932	-4.40312	0	
0.9707	4.03201	-0.730376	0	
0.9713	4.63958	-0.125207	0	
0.9720	2.81689	0.79298	0	
0.9727	2.20932	2.62935	0	
0.9733	3.42445	1.71117	0	
0.9740	1.60176	0.187811	0	
0.9747	1.29798	0.187811	0	
0.9753	6.76605	0.187811	0	
0.9760	10.439	0.479961	0	
0.9767	9.83148	1.71117	0	
0.9773	8.31258	2.9215	0	
0.9780	5.8547	2.62935	0	
0.9787	4.3358	2.62935	0	
0.9793	2.5131	3.83969	0	
0.9800	-0.856112	3.23452	0	
0.9807	-1.46368	1.39815	0	
0.9813	1.29798	2.02419	0	
0.9820	0.359015	3.83969	0	
0.9827	-2.07124	3.23452	0	
0.9833	-1.15989	1.71117	0	
0.9840	0.0552331	2.9215	0	
0.9847	0.0552331	3.83969	0	
0.9853	2.20932	2.9215	0	
0.9860	2.5131	0.79298	0	
0.9867	-0.248549	-0.125207	0	
0.9873	-0.248549	-0.125207	0	
0.9880	1.29798	0.479961	0	
0.9887	0.662797	2.02419	0	
0.9893	0.966579	2.62935	0	
0.9900	1.60176	0.79298	0	
0.9907	-2.07124	1.71117	0	
0.9913	-4.80528	4.75788	0	
0.9920	-1.76746	4.46573	0	
0.9927	-0.248549	0.79298	0	
0.9933	-1.15989	-1.04339	0	
0.9940	0.662797	0.479961	0	
0.9947	0.359015	3.54754	0	
0.9953	-0.856112	4.15271	0	
0.9960	1.29798	0.187811	0	
0.9967	1.60176	-1.64856	0	
0.9973	-0.552331	0.79298	0	
0.9980	-0.856112	1.39815	0	
0.9987	-3.89393	2.02419	0	
0.9993	-9.38962	6.28123	0	
1.0000	-9.6934	5.36305	0	
1.0007	-5.74424	-1.04339	0	
1.0013	-3.89393	-2.8589	0	
1.0020	-2.07124	-1.96158	0	
1.0027	0.0552331	-2.8589	0	
1.0033	2.5131	-1.96158	0	
1.0040	3.42445	0.479961	0	
1.0047	2.20932	-0.730376	0	
1.0053	2.81689	-2.8589	0	
1.0060	7.09745	-3.48494	0	
1.0067	7.70501	-5.00829	0	
1.0073	4.3358	-5.61346	0	
1.0080	3.42445	-3.77709	0	
1.0087	5.55092	-1.04339	0	
1.0093	7.09745	-1.04339	0	
1.0100	8.92014	-2.56675	0	
1.0107	8.31258	-3.17192	0	
1.0113	2.20932	-2.25373	0	
1.0120	-1.15989	-1.96158	0	
1.0127	0.662797	-2.8589	0	
1.0133	-0.856112	-3.77709	0	
1.0140	-6.04802	-4.69527	0	
1.0147	-7.56693	-5.92648	0	
1.0153	-9.38962	-6.53165	0	
1.0160	-13.0626	-5.00829	0	
1.0167	-11.8475	-3.77709	0	
1.0173	-6.04802	-4.69527	0	
1.0180	-3.28637	-3.77709	0	
1.0187	-2.37502	-1.04339	0	
1.0193	0.359015	-1.33554	0	
1.0200	1.60176	-4.09011	0	
1.0207	1.90554	-2.56675	0	
1.0213	2.20932	-0.417358	0	
1.0220	-1.15989	-0.125207	0	
1.0227	-3.89393	0.79298	0	
1.0233	-2.98259	0.187811	0	
1.0240	-4.80528	-2.25373	0	
1.0247	-9.08584	-0.417358	0	
1.0253	-7.56693	2.31634	0	
1.0260	-5.44046	0.479961	0	
1.0267	-6.04802	-0.730376	0	
1.0273	-4.80528	0.79298	0	
1.0280	-2.98259	0.187811	0	
1.0287	-3.28637	0.79298	0	
1.0293	-1.76746	2.62935	0	
1.0300	0.662797	2.62935	0	
1.0307	-0.248549	2.62935	0	
1.0313	-2.98259	3.23452	0	
1.0320	-5.74424	2.31634	0	
1.0327	-4.80528	3.23452	0	
1.0333	0.662797	4.46573	0	
1.0340	1.60176	-0.125207	0	
1.0347	-5.13667	-1.96158	0	
1.0353	-8.17449	3.23452	0	
1.0360	-5.74424	3.54754	0	
1.0367	-4.19771	-1.04339	0	
1.0373	-3.89393	-1.33554	0	
1.0380	-2.6788	-3.17192	0	
1.0387	-0.248549	-8.36802	0	
1.0393	2.81689	-7.44984	0	
1.0400	4.03201	-5.00829	0	
1.0407	2.5131	-7.74199	0	
1.0413	-0.856112	-9.28621	0	
1.0420	-5.74424	-7.13682	0	
1.0427	-11.2399	-4.69527	0	
1.0433	-13.0626	-1.96158	0	
1.0440	-11.2399	-0.125207	0	
1.0447	-8.47827	-2.8589	0	
1.0453	-6.04802	-3.77709	0	
1.0460	-6.65558	1.106	0	
1.0467	-10.301	3.23452	0	
1.0473	-10.6047	-1.04339	0	
1.0480	-7.87071	-3.17192	0	
1.0487	-7.56693	-0.730376	0	
1.0493	-7.56693	0.79298	0	
1.0500	-2.98259	0.79298	0	
1.0507	2.20932	0.479961	0	
1.0513	3.42445	-2.25373	0	
1.0520	4.94336	-4.69527	0	
1.0527	7.70501	-4.09011	0	
1.0533	8.61636	-4.40312	0	
1.0540	10.7428	-6.53165	0	
1.0547	15.631	-7.74199	0	
1.0553	15.0234	-8.36802	0	
1.0560	8.00879	-7.44984	0	
1.0567	2.5131	-3.48494	0	
1.0573	0.359015	-2.8589	0	
1.0580	-1.76746	-7.44984	0	
1.0587	0.0552331	-6.53165	0	
1.0593	3.42445	-2.25373	0	
1.0600	4.3358	-3.17192	0	
1.0607	4.3358	-5.00829	0	
1.0613	4.94336	-2.56675	0	
1.0620	3.72823	-1.04339	0	
1.0627	4.3358	-3.48494	0	
1.0633	3.42445	-3.48494	0	
1.0640	-4.50149	-0.125207	0	
1.0647	-9.6934	1.106	0	
1.0653	-4.50149	-0.730376	0	
1.0660	3.42445	-1.96158	0	
1.0667	11.6542	-2.56675	0	
1.0673	20.8229	-3.48494	0	
1.0680	22.6456	-2.56675	0	
1.0687	18.6688	-1.04339	0	
1.0693	16.5423	-1.04339	0	
1.0700	13.2007	0.479961	0	
1.0707	4.63958	2.62935	0	
1.0713	-4.80528	1.106	0	
1.0720	-9.08584	1.106	0	
1.0727	-6.04802	3.23452	0	
1.0733	0.0552331	1.71117	0	
1.0740	1.29798	-0.125207	0	
1.0747	-1.76746	1.39815	0	
1.0753	-2.07124	-0.730376	0	
1.0760	4.03201	-4.40312	0	
1.0767	15.0234	-3.77709	0	
1.0773	19.304	-1.33554	0	
1.0780	8.92014	0.187811	0	
1.0787	0.359015	0.79298	0	
1.0793	6.46227	0.187811	0	
1.0800	8.00879	-0.730376	0	
1.0807	-3.28637	-1.04339	0	
1.0813	-12.4551	-1.33554	0	
1.0820	-15.7967	-1.04339	0	
1.0827	-17.9507	-1.64856	0	
1.0833	-17.647	-2.8589	0	
1.0840	-17.9507	-1.96158	0	
1.0847	-20.6848	-0.730376	0	
1.0853	-17.3432	-1.04339	0	
1.0860	-7.87071	0.479961	0	
1.0867	-6.04802	2.62935	0	
1.0873	-14.8853	3.54754	0	
1.0880	-22.2037	4.46573	0	
1.0887	-23.115	6.28123	0	
1.0893	-22.2037	6.59425	0	
1.0900	-22.5075	5.0709	0	
1.0907	-19.4697	3.54754	0	
1.0913	-13.3664	3.54754	0	
1.0920	-11.2399	4.46573	0	
1.0927	-13.974	4.46573	0	
1.0933	-14.2777	2.9215	0	
1.0940	-7.56693	1.39815	0	
1.0947	-0.248549	0.187811	0	
1.0953	0.662797	-0.125207	0	
1.0960	-2.37502	0.479961	0	
1.0967	-2.07124	-0.417358	0	
1.0973	0.662797	-0.417358	0	
1.0980	1.60176	0.479961	0	
1.0987	1.29798	-1.04339	0	
1.0993	2.81689	-2.25373	0	
1.1000	5.24714	-0.125207	0	
1.1007	7.40123	-0.125207	0	
1.1013	10.1353	-3.17192	0	
1.1020	11.6542	-5.30044	0	
1.1027	9.83148	-6.21863	0	
1.1033	6.15849	-5.30044	0	
1.1040	3.42445	-2.8589	0	
1.1047	3.42445	-2.8589	0	
1.1053	3.42445	-3.48494	0	
1.1060	1.29798	-0.417358	0	
1.1067	1.29798	0.479961	0	
1.1073	5.8547	-0.730376	0	
1.1080	8.00879	0.79298	0	
1.1087	5.55092	2.62935	0	
1.1093	6.15849	0.187811	0	
1.1100	11.958	-1.64856	0	
1.1107	16.8461	-1.04339	0	
1.1113	18.0612	-1.64856	0	
1.1120	17.4536	-2.8589	0	
1.1127	15.3272	-1.96158	0	
1.1133	13.8083	-1.04339	0	
1.1140	15.631	-1.33554	0	
1.1147	18.0612	-0.125207	0	
1.1153	16.2385	2.31634	0	
1.1160	10.439	0.79298	0	
1.1167	5.8547	-2.56675	0	
1.1173	2.81689	-2.8589	0	
1.1180	0.0552331	-2.56675	0	
1.1187	-0.248549	-3.77709	0	
1.1193	1.29798	-3.17192	0	
1.1200	1.29798	-1.04339	0	
1.1207	3.12067	0.187811	0	
1.1213	5.8547	1.39815	0	
1.1220	4.63958	0.479961	0	
1.1227	4.03201	-0.730376	0	
1.1233	5.24714	4.15271	0	
1.1240	4.3358	9.0358	0	
1.1247	3.72823	5.36305	0	
1.1253	4.94336	-0.125207	0	
1.1260	5.8547	2.31634	0	
1.1267	6.76605	5.67607	0	
1.1273	5.24714	3.54754	0	
1.1280	1.29798	2.31634	0	
1.1287	4.63958	3.54754	0	
1.1293	9.22392	1.71117	0	
1.1300	3.42445	-0.417358	0	
1.1307	-3.59015	2.62935	0	
1.1313	-4.50149	5.36305	0	
1.1320	-8.47827	3.23452	0	
1.1327	-11.2399	1.71117	0	
1.1333	-6.65558	2.62935	0	
1.1340	-5.74424	3.23452	0	
1.1347	-8.78206	2.9215	0	
1.1353	-7.56693	2.9215	0	
1.1360	-8.47827	2.62935	0	
1.1367	-12.1513	2.62935	0	
1.1373	-13.974	2.31634	0	
1.1380	-18.2545	-2.25373	0	
1.1387	-23.115	-5.61346	0	
1.1393	-20.6848	-3.17192	0	
1.1400	-13.6702	-1.33554	0	
1.1407	-9.38962	-1.96158	0	
1.1413	-7.26315	-0.417358	0	
1.1420	-6.65558	0.79298	0	
1.1427	-8.47827	-0.125207	0	
1.1433	-10.9085	1.39815	0	
1.1440	-9.08584	1.71117	0	
1.1447	-5.13667	-1.04339	0	
1.1453	-5.74424	-1.33554	0	
1.1460	-6.95937	0.79298	0	
1.1467	-3.89393	1.106	0	
1.1473	-3.89393	1.106	0	
1.1480	-8.78206	2.62935	0	
1.1487	-7.26315	2.9215	0	
1.1493	-2.6788	2.62935	0	
1.1500	-3.89393	2.9215	0	
1.1507	-5.13667	4.15271	0	
1.1513	-3.89393	6.59425	0	
1.1520	-4.80528	6.28123	0	
1.1527	-5.74424	0.79298	0	
1.1533	-5.13667	-2.8589	0	
1.1540	-3.89393	-1.33554	0	
1.1547	-0.552331	-3.17192	0	
1.1553	4.3358	-9.28621	0	
1.1560	9.83148	-13.5433	0	
1.1567	15.9347	-15.0666	0	
1.1573	15.3272	-14.7745	0	
1.1580	10.1353	-11.4147	0	
1.1587	8.92014	-7.44984	0	
1.1593	6.15849	-5.61346	0	
1.1600	-0.552331	-5.30044	0	
1.1607	-3.89393	-5.30044	0	
1.1613	-4.19771	-3.17192	0	
1.1620	-5.13667	-0.125207	0	
1.1627	-2.37502	-0.125207	0	
1.1633	3.42445	-3.48494	0	
1.1640	7.40123	-5.92648	0	
1.1647	8.61636	-6.53165	0	
1.1653	6.15849	-6.21863	0	
1.1660	4.94336	-6.21863	0	
1.1667	8.31258	-7.13682	0	
1.1673	9.5277	-5.30044	0	
1.1680	5.55092	-2.56675	0	
1.1687	4.3358	-4.09011	0	
1.1693	6.15849	-6.53165	0	
1.1700	6.15849	-5.61346	0	
1.1707	5.55092	-4.69527	0	
1.1713	4.94336	-3.77709	0	
1.1720	3.12067	-0.125207	0	
1.1727	2.5131	-0.730376	0	
1.1733	4.03201	-3.17192	0	
1.1740	4.94336	1.39815	0	
1.1747	3.42445	5.98908	0	
1.1753	0.0552331	4.46573	0	
1.1760	-0.856112	4.46573	0	
1.1767	1.60176	5.98908	0	
1.1773	1.60176	3.23452	0	
1.1780	-2.07124	2.02419	0	
1.1787	-2.07124	2.62935	0	
1.1793	0.662797	1.71117	0	
1.1800	-2.98259	2.62935	0	
1.1807	-7.26315	3.83969	0	
1.1813	-6.95937	2.62935	0	
1.1820	-8.78206	2.9215	0	
1.1827	-11.2399	3.23452	0	
1.1833	-7.26315	0.79298	0	
1.1840	-5.44046	0.79298	0	
1.1847	-11.2399	3.54754	0	
1.1853	-14.5815	3.23452	0	
1.1860	-12.1513	2.9215	0	
1.1867	-9.08584	3.23452	0	
1.1873	-5.44046	1.71117	0	
1.1880	-1.76746	1.106	0	
1.1887	-1.15989	2.31634	0	
1.1893	-2.98259	2.31634	0	
1.1900	-6.95937	3.54754	0	
1.1907	-9.99718	5.36305	0	
1.1913	-7.56693	3.83969	0	
1.1920	-3.89393	2.9215	0	
1.1927	-2.07124	5.0709	0	
1.1933	0.966579	4.75788	0	
1.1940	2.81689	1.71117	0	
1.1947	1.90554	1.71117	0	
1.1953	2.81689	3.54754	0	
1.1960	5.8547	2.62935	0	
1.1967	8.31258	2.62935	0	
1.1973	11.0466	3.54754	0	
1.1980	9.83148	1.71117	0	
1.1987	-1.15989	2.62935	0	
1.1993	-14.5815	8.11761	0	
1.2000	-16.708	9.64096	0	
1.2007	-13.0626	6.28123	0	
1.2013	-12.7588	5.67607	0	
1.2020	-12.7588	6.59425	0	
1.2027	-8.47827	6.28123	0	
1.2033	-5.13667	7.80459	0	
1.2040	-4.50149	10.5592	0	
1.2047	-1.46368	9.0358	0	
1.2053	3.12067	3.83969	0	
1.2060	7.09745	0.79298	0	
1.2067	10.7428	0.79298	0	
1.2073	14.112	-0.125207	0	
1.2080	12.8693	-2.25373	0	
1.2087	7.09745	-2.8589	0	
1.2093	2.5131	-2.56675	0	
1.2100	1.90554	-2.8589	0	
1.2107	3.42445	-0.730376	0	
1.2113	4.63958	1.71117	0	
1.2120	6.76605	-1.64856	0	
1.2127	6.46227	-5.92648	0	
1.2133	4.94336	-5.30044	0	
1.2140	5.24714	-3.77709	0	
1.2147	4.3358	-4.40312	0	
1.2153	1.29798	-4.40312	0	
1.2160	1.90554	-4.69527	0	
1.2167	3.72823	-4.69527	0	
1.2173	2.20932	-2.25373	0	
1.2180	1.29798	0.187811	0	
1.2187	2.20932	-0.125207	0	
1.2193	0.359015	-1.96158	0	
1.2200	0.0552331	-3.77709	0	
1.2207	3.72823	-4.69527	0	
1.2213	2.5131	-5.00829	0	
1.2220	-2.37502	-4.40312	0	
1.2227	-0.552331	-4.69527	0	
1.2233	1.90554	-3.77709	0	
1.2240	-3.89393	0.187811	0	
1.2247	-9.38962	3.54754	0	
1.2253	-9.08584	2.62935	0	
1.2260	-7.26315	2.9215	0	
1.2267	-3.89393	5.67607	0	
1.2273	0.966579	5.0709	0	
1.2280	3.72823	2.31634	0	
1.2287	7.09745	2.31634	0	
1.2293	8.31258	4.46573	0	
1.2300	2.20932	6.28123	0	
1.2307	0.359015	7.51244	0	
1.2313	10.439	7.19942	0	
1.2320	19.9115	5.36305	0	
1.2327	24.4682	3.54754	0	
1.2333	28.1412	1.39815	0	
1.2340	27.8375	-2.25373	0	
1.2347	25.4072	-6.21863	0	
1.2353	20.8229	-6.21863	0	
1.2360	2.81689	-2.8589	0	
1.2367	-19.1659	-1.04339	0	
1.2373	-25.2691	-1.04339	0	
1.2380	-23.4464	-1.04339	0	
1.2387	-25.5729	-2.25373	0	
1.2393	-27.6994	-5.61346	0	
1.2400	-35.9567	-8.66017	0	
1.2407	-47.5557	-9.89138	0	
1.2413	-45.7054	-6.21863	0	
1.2420	-34.714	-2.8589	0	
1.2427	-26.4843	-3.77709	0	
1.2433	-18.5583	-3.77709	0	
1.2440	-11.2399	-1.04339	0	
1.2447	-7.26315	-1.96158	0	
1.2453	-2.37502	-4.09011	0	
1.2460	2.81689	-2.56675	0	
1.2467	2.5131	-1.96158	0	
1.2473	-1.76746	-2.8589	0	
1.2480	-2.98259	-2.56675	0	
1.2487	0.662797	-3.17192	0	
1.2493	3.72823	-5.00829	0	
1.2500	2.81689	-2.25373	0	
1.2507	3.12067	0.79298	0	
1.2513	7.40123	-1.04339	0	
1.2520	7.70501	-1.96158	0	
1.2527	2.20932	0.479961	0	
1.2533	-1.15989	1.71117	0	
1.2540	-0.248549	0.479961	0	
1.2547	1.90554	-0.125207	0	
1.2553	3.42445	-1.64856	0	
1.2560	3.12067	-2.8589	0	
1.2567	3.42445	-0.125207	0	
1.2573	4.63958	2.62935	0	
1.2580	4.3358	1.106	0	
1.2587	4.3358	-1.04339	0	
1.2593	3.42445	1.39815	0	
1.2600	0.359015	2.31634	0	
1.2607	-1.46368	-0.730376	0	
1.2613	-1.15989	-1.04339	0	
1.2620	0.0552331	0.479961	0	
1.2627	1.60176	0.479961	0	
1.2633	1.29798	0.79298	0	
1.2640	-0.552331	0.79298	0	
1.2647	1.29798	-0.125207	0	
1.2653	3.42445	0.187811	0	
1.2660	3.12067	-0.125207	0	
1.2667	3.72823	-2.56675	0	
1.2673	3.42445	-2.56675	0	
1.2680	-0.248549	-0.125207	0	
1.2687	-1.15989	-0.417358	0	
1.2693	0.966579	-1.33554	0	
1.2700	-0.856112	0.479961	0	
1.2707	-2.98259	2.31634	0	
1.2713	-2.98259	2.62935	0	
1.2720	-3.89393	2.9215	0	
1.2727	-5.74424	2.62935	0	
1.2733	-5.74424	2.62935	0	
1.2740	-6.3518	4.15271	0	
1.2747	-3.89393	3.83969	0	
1.2753	1.29798	1.39815	0	
1.2760	2.81689	-0.125207	0	
1.2767	3.42445	-0.730376	0	
1.2773	7.40123	-1.96158	0	
1.2780	10.439	-2.8589	0	
1.2787	12.5655	-1.64856	0	
1.2793	16.2385	-4.09011	0	
1.2800	16.2385	-9.28621	0	
1.2807	12.2617	-9.57836	0	
1.2813	11.6542	-5.61346	0	
1.2820	11.3504	-4.69527	0	
1.2827	8.00879	-4.69527	0	
1.2833	6.15849	-2.56675	0	
1.2840	6.15849	-1.96158	0	
1.2847	4.3358	-1.96158	0	
1.2853	3.42445	-0.417358	0	
1.2860	3.12067	0.187811	0	
1.2867	0.359015	-1.04339	0	
1.2873	-2.07124	-1.64856	0	
1.2880	-4.19771	-1.96158	0	
1.2887	-4.80528	-2.25373	0	
1.2893	-2.98259	-1.04339	0	
1.2900	-1.15989	-1.33554	0	
1.2907	0.966579	-1.96158	0	
1.2913	3.42445	-1.04339	0	
1.2920	3.42445	-1.96158	0	
1.2927	4.3358	-2.8589	0	
1.2933	11.0466	-1.96158	0	
1.2940	15.9347	-1.96158	0	
1.2947	12.8693	-1.33554	0	
1.2953	8.00879	0.79298	0	
1.2960	2.81689	0.79298	0	
1.2967	-0.552331	-0.125207	0	
1.2973	-1.46368	-0.125207	0	
1.2980	-2.6788	-0.125207	0	
1.2987	-3.89393	-0.417358	0	
1.2993	-3.89393	-1.96158	0	
1.3000	-6.3518	-3.77709	0	
1.3007	-9.6934	-1.96158	0	
1.3013	-9.38962	0.479961	0	
1.3020	-10.301	-0.125207	0	
1.3027	-12.7588	0.187811	0	
1.3033	-11.5437	0.79298	0	
1.3040	-8.47827	-3.17192	0	
1.3047	-8.47827	-4.09011	0	
1.3053	-10.301	1.106	0	
1.3060	-11.2399	2.62935	0	
1.3067	-10.301	-0.125207	0	
1.3073	-6.3518	-0.125207	0	
1.3080	-2.07124	1.106	0	
1.3087	-2.37502	2.62935	0	
1.3093	-5.13667	2.9215	0	
1.3100	-3.89393	-0.125207	0	
1.3107	-1.15989	-1.33554	0	
1.3113	-4.80528	0.79298	0	
1.3120	-10.301	1.71117	0	
1.3127	-11.2399	0.79298	0	
1.3133	-8.78206	1.39815	0	
1.3140	-9.6934	2.62935	0	
1.3147	-12.4551	4.15271	0	
1.3153	-9.08584	6.28123	0	
1.3160	-3.89393	4.46573	0	
1.3167	-8.17449	1.39815	0	
1.3173	-13.0626	2.62935	0	
1.3180	-9.08584	2.02419	0	
1.3187	-5.44046	-1.96158	0	
1.3193	-5.74424	-0.417358	0	
1.3200	-4.80528	3.54754	0	
1.3207	-6.3518	2.62935	0	
1.3213	-7.87071	1.71117	0	
1.3220	-5.13667	2.62935	0	
1.3227	-0.856112	-1.04339	0	
1.3233	3.72823	-5.30044	0	
1.3240	8.00879	-5.61346	0	
1.3247	5.55092	-7.13682	0	
1.3253	4.03201	-7.44984	0	
1.3260	8.61636	-4.09011	0	
1.3267	9.22392	-1.96158	0	
1.3273	7.40123	-2.8589	0	
1.3280	8.92014	-2.56675	0	
1.3287	8.92014	-2.8589	0	
1.3293	6.46227	-3.48494	0	
1.3300	10.439	-2.25373	0	
1.3307	17.7574	-1.33554	0	
1.3313	17.1499	-0.417358	0	
1.3320	9.83148	1.39815	0	
1.3327	5.24714	1.106	0	
1.3333	6.15849	-1.04339	0	
1.3340	7.09745	-1.96158	0	
1.3347	5.8547	-3.77709	0	
1.3353	8.61636	-6.53165	0	
1.3360	14.4158	-7.44984	0	
1.3367	14.4158	-5.61346	0	
1.3373	10.1353	-1.64856	0	
1.3380	8.00879	1.106	0	
1.3387	7.09745	0.479961	0	
1.3393	6.15849	-1.04339	0	
1.3400	7.09745	-0.417358	0	
1.3407	4.63958	1.39815	0	
1.3413	-4.50149	2.9215	0	
1.3420	-6.95937	2.9215	0	
1.3427	1.60176	2.31634	0	
1.3433	4.03201	2.62935	0	
1.3440	-1.15989	2.62935	0	
1.3447	-0.248549	1.39815	0	
1.3453	7.09745	0.79298	0	
1.3460	12.5655	-0.125207	0	
1.3467	15.3272	-1.64856	0	
1.3473	11.3504	-1.96158	0	
1.3480	3.42445	-2.25373	0	
1.3487	-2.98259	-0.417358	0	
1.3493	-10.301	2.62935	0	
1.3500	-17.9507	1.71117	0	
1.3507	-24.054	0.79298	0	
1.3513	-34.4102	2.62935	0	
1.3520	-43.5789	1.71117	0	
1.3527	-40.8172	-0.417358	0	
1.3533	-35.3492	1.39815	0	
1.3540	-34.1064	0.187811	0	
1.3547	-30.461	-2.56675	0	
1.3553	-24.9653	1.71117	0	
1.3560	-22.5075	5.36305	0	
1.3567	-18.5583	2.62935	0	
1.3573	-13.3664	1.71117	0	
1.3580	-12.1513	2.02419	0	
1.3587	-11.2399	-1.33554	0	
1.3593	-8.78206	-2.25373	0	
1.3600	-7.56693	0.479961	0	
1.3607	-7.26315	0.79298	0	
1.3613	-5.44046	0.79298	0	
1.3620	-0.552331	1.71117	0	
1.3627	2.5131	1.39815	0	
1.3633	-0.248549	0.187811	0	
1.3640	-0.856112	-0.417358	0	
1.3647	2.5131	0.187811	0	
1.3653	2.81689	4.46573	0	
1.3660	1.60176	7.19942	0	
1.3667	5.8547	5.36305	0	
1.3673	10.7428	3.54754	0	
1.3680	10.1353	2.62935	0	
1.3687	8.61636	1.39815	0	
1.3693	9.5277	2.02419	0	
1.3700	8.92014	2.62935	0	
1.3707	6.15849	2.02419	0	
1.3713	7.09745	2.31634	0	
1.3720	10.7428	2.62935	0	
1.3727	12.2617	1.106	0	
1.3733	13.5045	-0.125207	0	
1.3740	14.4158	-0.417358	0	
1.3747	11.6542	-0.730376	0	
1.3753	9.22392	0.479961	0	
1.3760	7.70501	0.79298	0	
1.3767	5.8547	0.187811	0	
1.3773	7.40123	-0.125207	0	
1.3780	8.92014	-1.33554	0	
1.3787	5.24714	-1.96158	0	
1.3793	1.90554	-0.125207	0	
1.3800	5.24714	-0.417358	0	
1.3807	4.3358	-1.96158	0	
1.3813	-3.89393	-0.730376	0	
1.3820	-7.56693	0.187811	0	
1.3827	-4.50149	-0.125207	0	
1.3833	-3.89393	3.23452	0	
1.3840	-6.04802	5.67607	0	
1.3847	-4.19771	3.54754	0	
1.3853	-1.15989	0.79298	0	
1.3860	-1.76746	1.71117	0	
1.3867	-2.07124	2.62935	0	
1.3873	-0.248549	2.62935	0	
1.3880	1.29798	2.9215	0	
1.3887	2.5131	3.83969	0	
1.3893	4.03201	3.54754	0	
1.3900	4.3358	2.62935	0	
1.3907	4.63958	2.31634	0	
1.3913	6.76605	0.79298	0	
1.3920	7.40123	-1.04339	0	
1.3927	4.63958	-1.04339	0	
1.3933	2.81689	-2.56675	0	
1.3940	5.24714	-6.53165	0	
1.3947	6.76605	-8.36802	0	
1.3953	4.94336	-9.28621	0	
1.3960	5.55092	-8.66017	0	
1.3967	8.00879	-5.92648	0	
1.3973	6.46227	-5.61346	0	
1.3980	4.3358	-8.66017	0	
1.3987	4.03201	-8.055	0	
1.3993	0.966579	-3.48494	0	
1.4000	-1.15989	-2.56675	0	
1.4007	0.359015	-4.69527	0	
1.4013	1.90554	-5.00829	0	
1.4020	2.5131	-4.69527	0	
1.4027	0.662797	-5.00829	0	
1.4033	-3.28637	-4.40312	0	
1.4040	-5.44046	-2.25373	0	
1.4047	-5.44046	-1.64856	0	
1.4053	-8.17449	-2.8589	0	
1.4060	-9.38962	-2.8589	0	
1.4067	-4.80528	-2.25373	0	
1.4073	-1.76746	-2.8589	0	
1.4080	-2.37502	-2.8589	0	
1.4087	-2.07124	-0.125207	0	
1.4093	0.0552331	0.479961	0	
1.4100	0.662797	-1.33554	0	
1.4107	-0.856112	-0.730376	0	
1.4113	-0.248549	0.479961	0	
1.4120	3.42445	-0.417358	0	
1.4127	3.72823	-0.125207	0	
1.4133	2.20932	-0.417358	0	
1.4140	1.60176	-4.40312	0	
1.4147	0.359015	-4.69527	0	
1.4153	0.662797	-2.8589	0	
1.4160	4.94336	-4.40312	0	
1.4167	4.63958	-4.69527	0	
1.4173	-0.248549	-1.64856	0	
1.4180	-1.15989	-0.730376	0	
1.4187	0.0552331	-0.417358	0	
1.4193	-1.15989	0.79298	0	
1.4200	-2.98259	0.187811	0	
1.4207	-5.74424	-0.125207	0	
1.4213	-10.301	1.39815	0	
1.4220	-12.1513	1.106	0	
1.4227	-10.9085	1.39815	0	
1.4233	-9.08584	4.75788	0	
1.4240	-7.56693	5.36305	0	
1.4247	-8.17449	3.23452	0	
1.4253	-9.6934	2.31634	0	
1.4260	-6.65558	1.71117	0	
1.4267	-3.59015	2.62935	0	
1.4273	-4.50149	5.36305	0	
1.4280	-5.74424	4.75788	0	
1.4287	-7.26315	0.79298	0	
1.4293	-10.301	-0.125207	0	
1.4300	-12.1513	2.62935	0	
1.4307	-10.6047	3.83969	0	
1.4313	-6.65558	2.02419	0	
1.4320	-2.98259	-0.730376	0	
1.4327	-2.98259	-0.730376	0	
1.4333	-3.59015	-0.125207	0	
1.4340	-0.856112	-1.04339	0	
1.4347	2.5131	-1.64856	0	
1.4353	4.03201	-3.48494	0	
1.4360	4.3358	-5.61346	0	
1.4367	4.63958	-4.69527	0	
1.4373	7.09745	-3.77709	0	
1.4380	9.5277	-4.69527	0	
1.4387	7.40123	-3.77709	0	
1.4393	4.3358	-2.56675	0	
1.4400	5.55092	-2.25373	0	
1.4407	5.24714	0.79298	0	
1.4413	0.359015	2.62935	0	
1.4420	-2.98259	-0.125207	0	
1.4427	-5.44046	-1.96158	0	
1.4433	-5.74424	-0.125207	0	
1.4440	-2.98259	1.71117	0	
1.4447	-1.15989	1.71117	0	
1.4453	-2.07124	1.71117	0	
1.4460	-2.98259	2.62935	0	
1.4467	-3.89393	2.02419	0	
1.4473	-2.98259	-0.730376	0	
1.4480	2.5131	-1.96158	0	
1.4487	4.63958	0.187811	0	
1.4493	2.5131	1.39815	0	
1.4500	2.5131	1.106	0	
1.4507	2.81689	2.31634	0	
1.4513	-0.552331	2.02419	0	
1.4520	-2.37502	-1.96158	0	
1.4527	0.966579	-2.8589	0	
1.4533	4.3358	0.79298	0	
1.4540	3.72823	2.62935	0	
1.4547	1.90554	0.79298	0	
1.4553	2.5131	-0.125207	0	
1.4560	2.5131	0.479961	0	
1.4567	2.5131	1.71117	0	
1.4573	4.94336	1.71117	0	
1.4580	5.8547	0.479961	0	
1.4587	0.662797	2.02419	0	
1.4593	-3.89393	5.98908	0	
1.4600	-5.44046	5.67607	0	
1.4607	-7.26315	3.23452	0	
1.4613	-7.56693	4.46573	0	
1.4620	-5.74424	6.90727	0	
1.4627	-5.74424	5.0709	0	
1.4633	-6.04802	4.46573	0	
1.4640	-4.80528	6.28123	0	
1.4647	-5.74424	6.28123	0	
1.4653	-8.47827	6.59425	0	
1.4660	-6.65558	7.19942	0	
1.4667	-2.07124	3.54754	0	
1.4673	0.0552331	-1.96158	0	
1.4680	0.662797	-1.96158	0	
1.4687	4.3358	-0.417358	0	
1.4693	8.31258	-1.33554	0	
1.4700	7.70501	-1.96158	0	
1.4707	6.15849	-3.48494	0	
1.4713	6.46227	-5.30044	0	
1.4720	4.94336	-3.77709	0	
1.4727	4.3358	-2.25373	0	
1.4733	7.09745	-4.09011	0	
1.4740	9.22392	-3.48494	0	
1.4747	8.92014	-1.04339	0	
1.4753	8.92014	-0.730376	0	
1.4760	8.92014	-0.730376	0	
1.4767	6.46227	-2.25373	0	
1.4773	5.24714	-5.00829	0	
1.4780	6.76605	-3.77709	0	
1.4787	7.09745	-1.96158	0	
1.4793	4.03201	-2.8589	0	
1.4800	2.81689	-2.8589	0	
1.4807	3.12067	-0.730376	0	
1.4813	-0.248549	-0.125207	0	
1.4820	-2.07124	0.79298	0	
1.4827	-1.15989	1.106	0	
1.4833	-4.80528	-0.730376	0	
1.4840	-9.38962	-1.96158	0	
1.4847	-5.74424	0.479961	0	
1.4853	-2.6788	2.62935	0	
1.4860	-3.28637	2.62935	0	
1.4867	-2.37502	1.71117	0	
1.4873	-0.856112	0.79298	0	
1.4880	-2.6788	-1.33554	0	
1.4887	-6.65558	-2.56675	0	
1.4893	-9.6934	0.187811	0	
1.4900	-8.78206	0.79298	0	
1.4907	-3.89393	-2.25373	0	
1.4913	-3.28637	-1.33554	0	
1.4920	-8.17449	0.79298	0	
1.4927	-6.65558	-2.56675	0	
1.4933	3.72823	-2.8589	0	
1.4940	10.439	0.79298	0	
1.4947	9.22392	-1.04339	0	
1.4953	7.09745	-3.77709	0	
1.4960	6.15849	-1.04339	0	
1.4967	6.15849	0.79298	0	
1.4973	5.24714	0.187811	0	
1.4980	1.60176	1.71117	0	
1.4987	-2.07124	1.71117	0	
1.4993	-5.13667	-0.125207	0	
1.5000	-11.2399	0.187811	0	
1.5007	-17.9507	1.106	0	
1.5013	-23.115	0.479961	0	
1.5020	-32.2837	0.79298	0	
1.5027	-38.387	1.71117	0	
1.5033	-29.5497	-0.417358	0	
1.5040	-15.7967	-2.25373	0	
1.5047	-12.1513	-3.77709	0	
1.5053	-10.6047	-6.53165	0	
1.5060	-6.3518	-7.44984	0	
1.5067	-3.89393	-5.30044	0	
1.5073	-2.6788	-3.77709	0	
1.5080	-0.552331	-4.69527	0	
1.5087	0.662797	-3.77709	0	
1.5093	3.42445	-2.56675	0	
1.5100	9.22392	-2.8589	0	
1.5107	12.5655	-1.33554	0	
1.5113	10.1353	0.79298	0	
1.5120	8.92014	-1.96158	0	
1.5127	13.2007	-4.09011	0	
1.5133	14.7196	-1.96158	0	
1.5140	8.92014	0.187811	0	
1.5147	0.0552331	1.106	0	
1.5153	-4.80528	4.75788	0	
1.5160	-2.98259	6.28123	0	
1.5167	0.662797	2.62935	0	
1.5173	-2.98259	-0.125207	0	
1.5180	-11.2399	-1.04339	0	
1.5187	-15.1891	-0.417358	0	
1.5193	-15.4929	2.31634	0	
1.5200	-8.47827	1.39815	0	
1.5207	4.3358	-3.17192	0	
1.5213	6.15849	-5.61346	0	
1.5220	-1.15989	-7.44984	0	
1.5227	-1.76746	-10.4965	0	
1.5233	-2.07124	-9.89138	0	
1.5240	-4.80528	-8.36802	0	
1.5247	2.5131	-8.36802	0	
1.5253	11.958	-6.53165	0	
1.5260	12.8693	-5.61346	0	
1.5267	14.4158	-5.61346	0	
1.5273	13.5045	-2.8589	0	
1.5280	4.3358	-2.8589	0	
1.5287	-0.856112	-6.53165	0	
1.5293	-0.248549	-5.00829	0	
1.5300	-3.89393	-1.96158	0	
1.5307	-5.13667	-2.8589	0	
1.5313	-0.856112	-1.64856	0	
1.5320	-0.248549	2.02419	0	
1.5327	-0.248549	2.31634	0	
1.5333	4.03201	2.62935	0	
1.5340	6.46227	1.71117	0	
1.5347	7.70501	-1.96158	0	
1.5353	8.31258	-1.96158	0	
1.5360	5.24714	1.39815	0	
1.5367	0.966579	1.39815	0	
1.5373	-0.856112	-0.125207	0	
1.5380	0.662797	-0.417358	0	
1.5387	6.76605	-0.730376	0	
1.5393	6.46227	0.79298	0	
1.5400	-6.65558	3.83969	0	
1.5407	-18.8621	6.59425	0	
1.5413	-20.381	7.51244	0	
1.5420	-16.708	5.36305	0	
1.5427	-11.2399	2.62935	0	
1.5433	-6.65558	3.54754	0	
1.5440	-8.17449	5.36305	0	
1.5447	-6.04802	2.62935	0	
1.5453	1.60176	0.79298	0	
1.5460	-0.856112	3.83969	0	
1.5467	-13.0626	4.75788	0	
1.5473	-16.1004	3.54754	0	
1.5480	-7.56693	4.15271	0	
1.5487	0.966579	3.83969	0	
1.5493	6.15849	0.79298	0	
1.5500	7.40123	-1.04339	0	
1.5507	4.03201	-0.417358	0	
1.5513	-0.552331	-0.125207	0	
1.5520	-0.856112	-0.125207	0	
1.5527	0.662797	1.106	0	
1.5533	0.0552331	1.71117	0	
1.5540	-0.248549	0.187811	0	
1.5547	3.42445	-1.96158	0	
1.5553	7.40123	-1.96158	0	
1.5560	6.15849	-0.417358	0	
1.5567	1.29798	0.79298	0	
1.5573	-1.15989	0.187811	0	
1.5580	0.662797	-1.04339	0	
1.5587	1.29798	-1.96158	0	
1.5593	-1.15989	-1.04339	0	
1.5600	-3.59015	-0.125207	0	
1.5607	-2.98259	-0.125207	0	
1.5613	-1.15989	0.79298	0	
1.5620	1.60176	2.62935	0	
1.5627	-1.46368	3.54754	0	
1.5633	-10.301	2.31634	0	
1.5640	-15.7967	0.187811	0	
1.5647	-15.4929	-0.125207	0	
1.5653	-13.0626	-0.125207	0	
1.5660	-8.47827	-1.64856	0	
1.5667	-4.19771	-2.8589	0	
1.5673	-5.74424	-1.96158	0	
1.5680	-8.47827	1.71117	0	
1.5687	-7.56693	3.54754	0	
1.5693	-3.28637	2.62935	0	
1.5700	-0.248549	2.02419	0	
1.5707	2.5131	2.02419	0	
1.5713	5.24714	0.479961	0	
1.5720	5.24714	0.187811	0	
1.5727	3.42445	1.39815	0	
1.5733	4.3358	-1.04339	0	
1.5740	7.09745	-2.8589	0	
1.5747	8.00879	-1.96158	0	
1.5753	9.22392	-3.48494	0	
1.5760	13.2007	-6.84467	0	
1.5767	17.1499	-5.61346	0	
1.5773	18.6688	-3.17192	0	
1.5780	15.3272	-3.77709	0	
1.5787	6.15849	-1.64856	0	
1.5793	-0.552331	1.106	0	
1.5800	-3.59015	-0.125207	0	
1.5807	-7.56693	-0.125207	0	
1.5813	-10.301	0.79298	0	
1.5820	-6.65558	-1.33554	0	
1.5827	-1.46368	-1.96158	0	
1.5833	1.29798	1.106	0	
1.5840	3.72823	0.187811	0	
1.5847	7.09745	-1.96158	0	
1.5853	8.00879	-0.125207	0	
1.5860	6.46227	0.79298	0	
1.5867	8.92014	-1.04339	0	
1.5873	14.4158	-1.04339	0	
1.5880	17.1499	-1.96158	0	
1.5887	18.0612	-4.69527	0	
1.5893	17.4536	-3.77709	0	
1.5900	13.5045	-1.96158	0	
1.5907	4.63958	-1.96158	0	
1.5913	-9.38962	-0.125207	0	
1.5920	-21.2923	-0.125207	0	
1.5927	-23.115	-1.96158	0	
1.5933	-20.381	-1.04339	0	
1.5940	-19.4697	-0.125207	0	
1.5947	-12.1513	-2.25373	0	
1.5953	-0.552331	-3.77709	0	
1.5960	1.29798	-5.00829	0	
1.5967	-1.15989	-6.21863	0	
1.5973	0.662797	-2.8589	0	
1.5980	-1.15989	0.479961	0	
1.5987	-5.74424	-1.04339	0	
1.5993	-5.74424	-2.25373	0	
1.6000	-4.19771	-1.04339	0	
1.6007	-5.74424	-0.125207	0	
1.6013	-6.95937	1.71117	0	
1.6020	-7.26315	1.71117	0	
1.6027	-4.80528	-0.730376	0	
1.6033	1.29798	-1.96158	0	
1.6040	5.24714	-1.96158	0	
1.6047	4.3358	-1.96158	0	
1.6053	7.09745	-2.25373	0	
1.6060	12.5655	-2.8589	0	
1.6067	11.0466	-1.96158	0	
1.6073	4.3358	1.71117	0	
1.6080	0.662797	4.15271	0	
1.6087	1.29798	2.31634	0	
1.6093	3.42445	-1.04339	0	
1.6100	6.46227	-0.730376	0	
1.6107	3.72823	1.71117	0	
1.6113	-7.87071	3.23452	0	
1.6120	-17.647	2.62935	0	
1.6127	-15.7967	2.62935	0	
1.6133	-5.74424	1.71117	0	
1.6140	2.81689	-0.125207	0	
1.6147	7.09745	0.79298	0	
1.6153	8.92014	2.31634	0	
1.6160	9.83148	-0.125207	0	
1.6167	10.7428	-1.33554	0	
1.6173	12.2617	1.106	0	
1.6180	15.631	2.02419	0	
1.6187	19.6077	0.479961	0	
1.6193	18.9726	-1.33554	0	
1.6200	16.5423	-1.96158	0	
1.6207	18.0612	-1.33554	0	
1.6213	17.7574	0.187811	0	
1.6220	8.92014	1.39815	0	
1.6227	-1.15989	2.62935	0	
1.6233	-4.19771	3.23452	0	
1.6240	-6.04802	4.15271	0	
1.6247	-7.87071	5.36305	0	
1.6253	-13.6702	6.28123	0	
1.6260	-29.8535	9.95398	0	
1.6267	-47.8594	15.7553	0	
1.6273	-50.5935	15.1292	0	
1.6280	-37.1719	10.8722	0	
1.6287	-23.115	9.64096	0	
1.6293	-18.2545	8.11761	0	
1.6300	-16.1004	4.15271	0	
1.6307	-7.26315	3.54754	0	
1.6313	2.5131	4.46573	0	
1.6320	5.24714	1.71117	0	
1.6327	7.09745	-1.64856	0	
1.6333	8.92014	-3.17192	0	
1.6340	10.7428	-4.69527	0	
1.6347	14.4158	-6.84467	0	
1.6353	17.1499	-8.36802	0	
1.6360	9.83148	-7.13682	0	
1.6367	-2.98259	-4.09011	0	
1.6373	-9.08584	-4.69527	0	
1.6380	-6.3518	-5.92648	0	
1.6387	-0.552331	-2.8589	0	
1.6393	5.24714	0.79298	0	
1.6400	8.92014	2.31634	0	
1.6407	8.00879	4.15271	0	
1.6413	4.3358	2.02419	0	
1.6420	0.662797	-1.96158	0	
1.6427	-6.3518	0.79298	0	
1.6433	-13.3664	5.98908	0	
1.6440	-11.8475	4.15271	0	
1.6447	-4.50149	2.62935	0	
1.6453	-1.46368	8.11761	0	
1.6460	-0.552331	13.3137	0	
1.6467	3.72823	13.6059	0	
1.6473	7.09745	11.4773	0	
1.6480	5.8547	9.95398	0	
1.6487	5.8547	7.51244	0	
1.6493	11.3504	-1.04339	0	
1.6500	18.365	-10.8096	0	
1.6507	21.7342	-14.7745	0	
1.6513	21.1266	-19.6576	0	
1.6520	19.9115	-26.064	0	
1.6527	14.4158	-23.9146	0	
1.6533	2.5131	-15.0666	0	
1.6540	-10.6047	-9.28621	0	
1.6547	-16.1004	-5.30044	0	
1.6553	-13.3664	-0.730376	0	
1.6560	-9.38962	2.31634	0	
1.6567	-11.8475	4.46573	0	
1.6573	-16.708	4.75788	0	
1.6580	-13.974	3.54754	0	
1.6587	-4.80528	4.75788	0	
1.6593	2.5131	7.80459	0	
1.6600	9.83148	7.19942	0	
1.6607	18.365	5.36305	0	
1.6613	25.4072	4.46573	0	
1.6620	35.4596	2.02419	0	
1.6627	48.8813	-1.04339	0	
1.6633	53.4656	-4.40312	0	
1.6640	53.1618	-7.13682	0	
1.6647	63.2419	-8.36802	0	
1.6653	76.6635	-11.1017	0	
1.6660	79.3975	-17.5082	0	
1.6667	73.2943	-19.9497	0	
1.6673	65.3683	-18.1342	0	
1.6680	52.5543	-18.4263	0	
1.6687	30.8753	-15.9848	0	
1.6693	6.15849	-6.53165	0	
1.6700	-8.78206	-1.96158	0	
1.6707	-11.5437	-13.2511	0	
1.6713	-25.8767	-23.9146	0	
1.6720	-57.9119	-16.2978	0	
1.6727	-75.0065	-9.28621	0	
1.6733	-60.6735	-19.0315	0	
1.6740	-45.0978	-18.4263	0	
1.6747	-45.4016	3.23452	0	
1.6753	-50.2897	13.9189	0	
1.6760	-55.1778	8.11761	0	
1.6767	-60.9773	7.51244	0	
1.6773	-65.8654	8.11761	0	
1.6780	-68.9032	1.39815	0	
1.6787	-64.6227	-1.04339	0	
1.6793	-55.4816	2.62935	0	
1.6800	-59.127	7.80459	0	
1.6807	-72.5762	15.1292	0	
1.6813	-74.3989	17.2786	0	
1.6820	-64.6227	12.6877	0	
1.6827	-57.0005	10.8722	0	
1.6833	-50.2897	10.5592	0	
1.6840	-37.1719	6.59425	0	
1.6847	-17.647	3.54754	0	
1.6853	-0.248549	3.54754	0	
1.6860	6.15849	4.15271	0	
1.6867	6.76605	5.36305	0	
1.6873	5.8547	6.28123	0	
1.6880	1.90554	3.83969	0	
1.6887	-2.98259	1.106	0	
1.6893	-7.87071	1.71117	0	
1.6900	-12.1513	2.62935	0	
1.6907	-11.2399	1.71117	0	
1.6913	-6.65558	2.62935	0	
1.6920	-5.13667	3.54754	0	
1.6927	-1.46368	1.39815	0	
1.6933	5.24714	0.79298	0	
1.6940	7.09745	1.71117	0	
1.6947	5.55092	-0.125207	0	
1.6953	5.24714	-1.64856	0	
1.6960	2.81689	1.39815	0	
1.6967	2.81689	1.39815	0	
1.6973	8.92014	-0.730376	0	
1.6980	13.2007	0.79298	0	
1.6987	13.2007	0.79298	0	
1.6993	11.958	-1.96158	0	
1.7000	11.3504	-1.96158	0	
1.7007	13.5045	0.479961	0	
1.7013	17.7574	0.79298	0	
1.7020	18.0612	0.79298	0	
1.7027	15.3272	1.106	0	
1.7033	14.4158	1.39815	0	
1.7040	16.2385	3.23452	0	
1.7047	19.304	4.15271	0	
1.7053	24.772	3.23452	0	
1.7060	25.711	1.71117	0	
1.7067	15.9347	-1.04339	0	
1.7073	8.92014	-2.8589	0	
1.7080	17.1499	-1.33554	0	
1.7087	27.5337	0.79298	0	
1.7093	30.8753	0.79298	0	
1.7100	33.6369	1.106	0	
1.7107	31.8142	2.02419	0	
1.7113	24.4682	-0.417358	0	
1.7120	25.4072	-4.69527	0	
1.7127	31.8142	-5.00829	0	
1.7133	25.711	-3.17192	0	
1.7140	9.83148	-5.00829	0	
1.7147	-1.15989	-7.13682	0	
1.7153	-9.38962	-4.69527	0	
1.7160	-17.0118	-2.8589	0	
1.7167	-16.1004	-3.77709	0	
1.7173	-10.301	-1.96158	0	
1.7180	-10.6047	1.39815	0	
1.7187	-7.26315	1.71117	0	
1.7193	4.63958	0.187811	0	
1.7200	4.3358	0.187811	0	
1.7207	-8.47827	3.23452	0	
1.7213	-11.5437	5.36305	0	
1.7220	-6.3518	4.15271	0	
1.7227	-6.65558	4.75788	0	
1.7233	-4.19771	6.59425	0	
1.7240	5.8547	2.9215	0	
1.7247	17.4536	-2.56675	0	
1.7253	25.711	-1.96158	0	
1.7260	22.9493	-1.04339	0	
1.7267	15.631	-3.77709	0	
1.7273	18.9726	-4.69527	0	
1.7280	26.6223	-4.69527	0	
1.7287	26.9261	-7.74199	0	
1.7293	23.8607	-9.28621	0	
1.7300	19.6077	-5.00829	0	
1.7307	18.0612	-1.96158	0	
1.7313	22.6456	-3.77709	0	
1.7320	19.304	-3.77709	0	
1.7327	5.8547	-0.730376	0	
1.7333	2.5131	-0.730376	0	
1.7340	9.5277	-2.8589	0	
1.7347	14.112	-2.25373	0	
1.7353	15.3272	-1.96158	0	
1.7360	21.1266	-5.30044	0	
1.7367	38.5251	-7.74199	0	
1.7373	57.7462	-8.36802	0	
1.7380	56.8348	-10.1835	0	
1.7387	37.3099	-12.9381	0	
1.7393	18.365	-10.1835	0	
1.7400	1.60176	-2.8589	0	
1.7407	-11.2399	-0.125207	0	
1.7413	-11.5437	-0.417358	0	
1.7420	-14.8853	1.39815	0	
1.7427	-32.5875	3.54754	0	
1.7433	-50.5935	2.02419	0	
1.7440	-64.6227	-1.04339	0	
1.7447	-79.8946	-2.8589	0	
1.7453	-83.2362	-1.96158	0	
1.7460	-71.6649	2.9215	0	
1.7467	-64.6227	10.2461	0	
1.7473	-63.4076	14.524	0	
1.7480	-53.6589	11.7904	0	
1.7487	-39.6021	4.46573	0	
1.7493	-30.1573	-1.04339	0	
1.7500	-21.8999	-1.96158	0	
1.7507	-14.8853	1.39815	0	
1.7513	-11.8475	3.23452	0	
1.7520	-8.17449	2.62935	0	
1.7527	0.359015	3.23452	0	
1.7533	11.0466	4.15271	0	
1.7540	18.9726	2.62935	0	
1.7547	18.9726	1.71117	0	
1.7553	15.631	4.75788	0	
1.7560	14.4158	4.46573	0	
1.7567	9.83148	2.02419	0	
1.7573	0.359015	4.15271	0	
1.7580	-5.44046	6.28123	0	
1.7587	-11.8475	3.83969	0	
1.7593	-29.2459	1.106	0	
1.7600	-42.06	1.106	0	
1.7607	-34.1064	0.479961	0	
1.7613	-18.5583	0.479961	0	
1.7620	-9.38962	1.71117	0	
1.7627	-3.89393	2.62935	0	
1.7633	-1.15989	2.31634	0	
1.7640	-2.98259	2.62935	0	
1.7647	-4.19771	2.9215	0	
1.7653	-1.15989	1.106	0	
1.7660	0.966579	-1.33554	0	
1.7667	-2.07124	-2.25373	0	
1.7673	-2.07124	-1.96158	0	
1.7680	8.00879	-2.8589	0	
1.7687	14.4158	-5.00829	0	
1.7693	8.92014	-4.69527	0	
1.7700	6.46227	-1.04339	0	
1.7707	11.958	-0.730376	0	
1.7713	12.2617	-5.30044	0	
1.7720	8.92014	-6.53165	0	
1.7727	10.1353	-2.25373	0	
1.7733	11.0466	-1.64856	0	
1.7740	13.5045	-5.61346	0	
1.7747	20.2153	-5.92648	0	
1.7753	22.6456	-4.69527	0	
1.7760	21.7342	-5.30044	0	
1.7767	25.0758	-3.77709	0	
1.7773	28.1412	-1.04339	0	
1.7780	28.445	-3.48494	0	
1.7787	29.9639	-5.92648	0	
1.7793	30.8753	-3.77709	0	
1.7800	32.7256	-2.8589	0	
1.7807	34.8521	-5.00829	0	
1.7813	30.2677	-4.40312	0	
1.7820	23.5569	0.79298	0	
1.7827	24.4682	1.39815	0	
1.7833	30.8753	-2.25373	0	
1.7840	35.4596	-3.77709	0	
1.7847	36.9785	-4.69527	0	
1.7853	27.2299	-6.53165	0	
1.7860	12.2617	-5.61346	0	
1.7867	11.0466	-1.96158	0	
1.7873	17.7574	-0.125207	0	
1.7880	11.6542	-0.125207	0	
1.7887	-1.15989	0.187811	0	
1.7893	-11.2399	2.9215	0	
1.7900	-30.7648	6.90727	0	
1.7907	-53.3275	6.59425	0	
1.7913	-51.8086	5.0709	0	
1.7920	-34.1064	7.19942	0	
1.7927	-27.0918	9.0358	0	
1.7933	-30.1573	7.51244	0	
1.7940	-26.4843	6.90727	0	
1.7947	-23.4464	5.98908	0	
1.7953	-33.4989	3.54754	0	
1.7960	-42.3638	2.31634	0	
1.7967	-32.2837	0.79298	0	
1.7973	-13.6702	-0.417358	0	
1.7980	-2.6788	-0.125207	0	
1.7987	4.3358	-3.77709	0	
1.7993	5.24714	-8.66017	0	
1.8000	-7.26315	-5.92648	0	
1.8007	-18.2545	-2.25373	0	
1.8013	-20.381	-3.48494	0	
1.8020	-27.6994	-2.8589	0	
1.8027	-34.1064	-0.125207	0	
1.8033	-27.3956	-0.417358	0	
1.8040	-21.2923	-0.730376	0	
1.8047	-22.8113	0.187811	0	
1.8053	-16.4042	0.479961	0	
1.8060	-3.59015	-1.04339	0	
1.8067	2.20932	-3.48494	0	
1.8073	2.81689	-5.92648	0	
1.8080	2.20932	-5.00829	0	
1.8087	-3.28637	-1.33554	0	
1.8093	-9.38962	1.71117	0	
1.8100	-11.5437	2.02419	0	
1.8107	-10.301	-0.125207	0	
1.8113	-5.74424	0.79298	0	
1.8120	-0.552331	3.54754	0	
1.8127	2.5131	-0.125207	0	
1.8133	6.15849	-6.53165	0	
1.8140	12.5655	-5.00829	0	
1.8147	16.8461	-3.17192	0	
1.8153	23.5569	-6.21863	0	
1.8160	35.4596	-5.92648	0	
1.8167	41.8667	-2.8589	0	
1.8173	39.1326	-3.48494	0	
1.8180	34.2445	-4.40312	0	
1.8187	28.1412	-2.56675	0	
1.8193	23.5569	-1.04339	0	
1.8200	25.711	-0.417358	0	
1.8207	26.9261	-2.56675	0	
1.8213	23.8607	-5.61346	0	
1.8220	20.2153	-3.48494	0	
1.8227	8.92014	1.71117	0	
1.8233	-6.3518	2.62935	0	
1.8240	-4.80528	0.479961	0	
1.8247	12.5655	-1.04339	0	
1.8253	18.0612	-2.56675	0	
1.8260	2.5131	-2.8589	0	
1.8267	-20.381	-0.417358	0	
1.8273	-33.1951	2.02419	0	
1.8280	-35.0178	2.02419	0	
1.8287	-35.0178	1.71117	0	
1.8293	-30.7648	2.62935	0	
1.8300	-18.5583	0.79298	0	
1.8307	-12.1513	-2.8589	0	
1.8313	-17.3432	-3.17192	0	
1.8320	-14.8853	-1.04339	0	
1.8327	-5.13667	-1.04339	0	
1.8333	-5.74424	-1.64856	0	
1.8340	-11.2399	-1.33554	0	
1.8347	-7.56693	-1.33554	0	
1.8353	-0.552331	-0.125207	0	
1.8360	0.662797	2.31634	0	
1.8367	0.966579	2.62935	0	
1.8373	0.662797	1.39815	0	
1.8380	-0.552331	2.02419	0	
1.8387	1.60176	3.83969	0	
1.8393	4.94336	3.83969	0	
1.8400	4.94336	1.39815	0	
1.8407	8.92014	-2.25373	0	
1.8413	21.7342	-3.77709	0	
1.8420	31.5105	-4.40312	0	
1.8427	24.1645	-4.09011	0	
1.8433	8.00879	-2.25373	0	
1.8440	0.662797	-1.64856	0	
1.8447	8.00879	-4.40312	0	
1.8453	16.2385	-6.21863	0	
1.8460	17.1499	-2.8589	0	
1.8467	20.8229	0.479961	0	
1.8473	21.1266	-0.125207	0	
1.8480	1.29798	-1.64856	0	
1.8487	-24.054	0.79298	0	
1.8493	-28.6107	5.0709	0	
1.8500	-22.8113	5.36305	0	
1.8507	-20.381	1.106	0	
1.8513	-15.7967	-0.125207	0	
1.8520	-9.6934	2.62935	0	
1.8527	-7.56693	2.9215	0	
1.8533	-2.6788	0.79298	0	
1.8540	0.966579	0.479961	0	
1.8547	-2.98259	0.79298	0	
1.8553	-4.50149	-0.417358	0	
1.8560	2.81689	-2.8589	0	
1.8567	7.70501	-4.69527	0	
1.8573	9.22392	-5.61346	0	
1.8580	15.631	-5.30044	0	
1.8587	18.9726	-5.30044	0	
1.8593	13.5045	-3.77709	0	
1.8600	10.7428	-0.417358	0	
1.8607	15.631	-0.417358	0	
1.8613	18.365	-3.77709	0	
1.8620	12.5655	-2.25373	0	
1.8627	-2.37502	1.71117	0	
1.8633	-20.0772	2.62935	0	
1.8640	-28.6107	2.9215	0	
1.8647	-28.3069	4.75788	0	
1.8653	-31.9799	4.75788	0	
1.8660	-36.2605	5.67607	0	
1.8667	-24.9653	7.19942	0	
1.8673	-0.856112	4.46573	0	
1.8680	16.2385	1.71117	0	
1.8687	18.9726	1.39815	0	
1.8693	13.5045	1.71117	0	
1.8700	6.15849	2.62935	0	
1.8707	-5.13667	5.36305	0	
1.8713	-17.647	8.11761	0	
1.8720	-19.1659	10.2461	0	
1.8727	-11.5437	10.5592	0	
1.8733	-13.0626	8.43063	0	
1.8740	-25.2691	9.95398	0	
1.8747	-28.6107	13.3137	0	
1.8753	-17.647	9.0358	0	
1.8760	-8.47827	2.62935	0	
1.8767	-7.56693	4.15271	0	
1.8773	-8.78206	4.46573	0	
1.8780	-7.87071	-1.64856	0	
1.8787	-6.3518	-3.77709	0	
1.8793	-4.80528	-1.04339	0	
1.8800	-0.248549	-3.17192	0	
1.8807	5.8547	-7.13682	0	
1.8813	7.40123	-6.53165	0	
1.8820	5.8547	-5.30044	0	
1.8827	9.83148	-5.61346	0	
1.8833	14.4158	-5.00829	0	
1.8840	8.92014	-2.8589	0	
1.8847	3.12067	-0.125207	0	
1.8853	4.03201	-0.125207	0	
1.8860	4.94336	-1.96158	0	
1.8867	3.42445	0.187811	0	
1.8873	2.20932	3.83969	0	
1.8880	0.359015	4.46573	0	
1.8887	1.90554	2.9215	0	
1.8893	6.15849	0.79298	0	
1.8900	7.70501	-1.04339	0	
1.8907	6.46227	-1.64856	0	
1.8913	6.46227	-3.77709	0	
1.8920	7.70501	-5.61346	0	
1.8927	9.5277	-1.96158	0	
1.8933	9.5277	2.9215	0	
1.8940	7.70501	0.79298	0	
1.8947	8.92014	-1.04339	0	
1.8953	10.7428	0.79298	0	
1.8960	8.92014	0.479961	0	
1.8967	7.70501	-1.33554	0	
1.8973	9.22392	-1.04339	0	
1.8980	9.83148	0.79298	0	
1.8987	9.83148	1.39815	0	
1.8993	8.61636	-0.125207	0	
1.9000	6.15849	-0.730376	0	
1.9007	5.24714	1.39815	0	
1.9013	1.60176	1.71117	0	
1.9020	-8.47827	2.62935	0	
1.9027	-18.5583	5.36305	0	
1.9033	-24.6616	4.15271	0	
1.9040	-23.115	0.79298	0	
1.9047	-17.0118	1.106	0	
1.9053	-18.5583	1.71117	0	
1.9060	-25.8767	-0.730376	0	
1.9067	-23.115	-1.96158	0	
1.9073	-15.1891	-1.33554	0	
1.9080	-13.974	-1.04339	0	
1.9087	-13.0626	-1.33554	0	
1.9093	-6.04802	-4.69527	0	
1.9100	0.0552331	-6.53165	0	
1.9107	2.20932	-3.77709	0	
1.9113	6.15849	-1.96158	0	
1.9120	12.5655	-2.8589	0	
1.9127	15.631	-2.25373	0	
1.9133	15.0234	-3.77709	0	
1.9140	18.0612	-8.66017	0	
1.9147	18.0612	-10.1835	0	
1.9153	4.3358	-8.055	0	
1.9160	-10.301	-5.30044	0	
1.9167	-9.99718	-3.77709	0	
1.9173	-2.98259	-2.8589	0	
1.9180	0.662797	-1.96158	0	
1.9187	5.24714	-1.04339	0	
1.9193	12.8693	0.187811	0	
1.9200	14.4158	-0.125207	0	
1.9207	10.7428	-1.04339	0	
1.9213	11.6542	-1.04339	0	
1.9220	14.4158	-0.730376	0	
1.9227	14.7196	-0.125207	0	
1.9233	13.2007	0.479961	0	
1.9240	8.92014	0.187811	0	
1.9247	1.90554	-0.125207	0	
1.9253	-0.248549	1.71117	0	
1.9260	-3.59015	3.54754	0	
1.9267	-20.6848	4.15271	0	
1.9273	-39.9059	4.75788	0	
1.9280	-41.121	4.46573	0	
1.9287	-26.4843	1.106	0	
1.9293	-12.7588	0.187811	0	
1.9300	-7.26315	2.02419	0	
1.9307	-4.19771	1.106	0	
1.9313	3.42445	-1.04339	0	
1.9320	11.958	-0.730376	0	
1.9327	14.4158	0.79298	0	
1.9333	14.4158	3.54754	0	
1.9340	12.5655	5.36305	0	
1.9347	4.03201	5.36305	0	
1.9353	-9.99718	7.51244	0	
1.9360	-21.5961	9.0358	0	
1.9367	-25.5729	7.19942	0	
1.9373	-20.0772	5.36305	0	
1.9380	-13.0626	5.98908	0	
1.9387	-12.1513	4.46573	0	
1.9393	-12.1513	3.23452	0	
1.9400	-7.26315	2.9215	0	
1.9407	-2.07124	1.39815	0	
1.9413	3.12067	0.479961	0	
1.9420	9.83148	2.31634	0	
1.9427	8.00879	2.31634	0	
1.9433	-3.89393	-1.04339	0	
1.9440	-12.1513	-3.17192	0	
1.9447	-9.38962	-2.8589	0	
1.9453	-1.15989	-1.04339	0	
1.9460	6.46227	-0.125207	0	
1.9467	12.2617	-0.730376	0	
1.9473	18.0612	-0.417358	0	
1.9480	23.8607	-0.125207	0	
1.9487	27.5337	-1.64856	0	
1.9493	29.0526	-2.56675	0	
1.9500	28.1412	-0.730376	0	
1.9507	20.5191	-1.04339	0	
1.9513	8.61636	-4.69527	0	
1.9520	-0.248549	-5.00829	0	
1.9527	-7.26315	-2.56675	0	
1.9533	-15.7967	-2.56675	0	
1.9540	-20.0772	-2.8589	0	
1.9547	-15.1891	-2.8589	0	
1.9553	-6.95937	-3.77709	0	
1.9560	-3.89393	-5.00829	0	
1.9567	-4.19771	-5.30044	0	
1.9573	-0.552331	-5.61346	0	
1.9580	3.72823	-3.48494	0	
1.9587	1.29798	-1.04339	0	
1.9593	-4.19771	-1.96158	0	
1.9600	-8.47827	-2.56675	0	
1.9607	-10.6047	-0.417358	0	
1.9613	-7.87071	1.71117	0	
1.9620	-4.80528	2.31634	0	
1.9627	-8.17449	1.106	0	
1.9633	-11.8475	-1.04339	0	
1.9640	-10.301	-0.125207	0	
1.9647	-7.56693	1.106	0	
1.9653	-4.50149	0.187811	0	
1.9660	-2.07124	-0.125207	0	
1.9667	-2.98259	-1.04339	0	
1.9673	2.20932	-5.00829	0	
1.9680	18.6688	-7.13682	0	
1.9687	31.5105	-4.69527	0	
1.9693	32.7256	-2.8589	0	
1.9700	32.7256	-3.77709	0	
1.9707	34.5483	-4.69527	0	
1.9713	33.9407	-5.00829	0	
1.9720	34.2445	-3.48494	0	
1.9727	39.4364	-3.48494	0	
1.9733	39.7402	-6.53165	0	
1.9740	19.9115	-6.53165	0	
1.9747	-15.7967	-2.56675	0	
1.9753	-44.1864	-1.96158	0	
1.9760	-48.1632	-3.48494	0	
1.9767	-35.6529	-1.96158	0	
1.9773	-23.7502	-1.04339	0	
1.9780	-18.2545	-2.8589	0	
1.9787	-13.0626	-4.69527	0	
1.9793	-8.78206	-5.61346	0	
1.9800	-12.1513	-6.84467	0	
1.9807	-17.647	-5.92648	0	
1.9813	-16.708	-2.25373	0	
1.9820	-11.5437	-0.125207	0	
1.9827	-10.301	-0.417358	0	
1.9833	-12.1513	-1.33554	0	
1.9840	-12.1513	-1.04339	0	
1.9847	-10.301	0.79298	0	
1.9853	-10.6047	3.54754	0	
1.9860	-11.8475	3.23452	0	
1.9867	-7.87071	-0.417358	0	
1.9873	-2.07124	-1.96158	0	
1.9880	-2.98259	-0.730376	0	
1.9887	-6.65558	-0.125207	0	
1.9893	-3.89393	-0.417358	0	
1.9900	3.42445	-1.04339	0	
1.9907	7.40123	-2.8589	0	
1.9913	7.09745	-2.8589	0	
1.9920	8.31258	-0.730376	0	
1.9927	12.2617	-1.04339	0	
1.9933	14.4158	-2.25373	0	
1.9940	9.22392	-0.730376	0	
1.9947	2.5131	-0.125207	0	
1.9953	1.29798	-2.56675	0	
1.9960	3.12067	-2.8589	0	
1.9967	0.662797	-1.33554	0	
1.9973	-2.98259	-0.417358	0	
1.9980	-4.50149	-1.04339	0	
1.9987	-3.28637	-2.56675	0	
1.9993	1.60176	-2.8589	0	
2.0000	10.439	-2.56675	0	
2.0007	17.4536	-3.77709	0	
2.0013	17.1499	-3.48494	0	
2.0020	4.94336	-0.730376	0	
2.0027	-13.3664	1.39815	0	
2.0033	-18.5583	0.79298	0	
2.0040	-10.6047	-0.125207	0	
2.0047	-12.1513	0.79298	0	
2.0053	-18.5583	1.71117	0	
2.0060	-10.6047	-0.125207	0	
2.0067	0.662797	-4.69527	0	
2.0073	0.0552331	-7.44984	0	
2.0080	-1.15989	-7.44984	0	
2.0087	1.60176	-6.53165	0	
2.0093	2.5131	-4.09011	0	
2.0100	0.966579	-1.04339	0	
2.0107	-2.37502	0.187811	0	
2.0113	-6.04802	0.79298	0	
2.0120	-2.98259	0.187811	0	
2.0127	1.29798	-1.64856	0	
2.0133	0.662797	-2.25373	0	
2.0140	0.662797	-2.25373	0	
2.0147	2.5131	-3.77709	0	
2.0153	4.63958	-4.09011	0	
2.0160	10.7428	-1.04339	0	
2.0167	13.8083	1.106	0	
2.0173	8.00879	-0.125207	0	
2.0180	5.24714	-0.730376	0	
2.0187	7.40123	3.23452	0	
2.0193	6.76605	6.59425	0	
2.0200	8.92014	5.36305	0	
2.0207	12.8693	3.54754	0	
2.0213	10.439	5.98908	0	
2.0220	2.5131	7.51244	0	
2.0227	-10.301	6.28123	0	
2.0233	-26.788	6.28123	0	
2.0240	-34.4102	5.98908	0	
2.0247	-31.3724	4.15271	0	
2.0253	-25.5729	4.75788	0	
2.0260	-18.5583	6.28123	0	
2.0267	-14.8853	4.46573	0	
2.0273	-16.708	2.62935	0	
2.0280	-13.3664	2.9215	0	
2.0287	-5.74424	3.54754	0	
2.0293	-3.28637	3.54754	0	
2.0300	-3.28637	2.02419	0	
2.0307	-1.76746	-0.125207	0	
2.0313	-0.248549	-2.8589	0	
2.0320	1.90554	-4.69527	0	
2.0327	4.03201	-4.40312	0	
2.0333	4.03201	-1.96158	0	
2.0340	5.24714	-2.8589	0	
2.0347	8.61636	-4.69527	0	
2.0353	11.958	-3.77709	0	
2.0360	15.3272	-4.40312	0	
2.0367	16.2385	-7.44984	0	
2.0373	15.3272	-7.13682	0	
2.0380	13.5045	-3.48494	0	
2.0387	9.5277	-2.25373	0	
2.0393	3.72823	-2.8589	0	
2.0400	1.29798	-1.96158	0	
2.0407	0.359015	0.79298	0	
2.0413	-2.6788	3.54754	0	
2.0420	-3.89393	2.62935	0	
2.0427	-4.80528	-0.125207	0	
2.0433	-11.2399	0.79298	0	
2.0440	-17.647	5.0709	0	
2.0447	-17.3432	5.36305	0	
2.0453	-12.4551	2.62935	0	
2.0460	-8.17449	0.79298	0	
2.0467	-5.74424	0.479961	0	
2.0473	-4.80528	-0.125207	0	
2.0480	-1.46368	0.79298	0	
2.0487	0.0552331	1.71117	0	
2.0493	-3.28637	1.39815	0	
2.0500	-2.6788	2.02419	0	
2.0507	4.63958	3.54754	0	
2.0513	8.31258	2.62935	0	
2.0520	8.61636	0.479961	0	
2.0527	12.2617	-0.730376	0	
2.0533	15.3272	-1.04339	0	
2.0540	13.8083	-2.56675	0	
2.0547	11.6542	-4.09011	0	
2.0553	7.40123	-2.8589	0	
2.0560	2.20932	-0.417358	0	
2.0567	1.60176	-1.04339	0	
2.0573	0.662797	-2.25373	0	
2.0580	-3.28637	1.106	0	
2.0587	-5.74424	5.98908	0	
2.0593	-8.47827	4.46573	0	
2.0600	-13.0626	0.79298	0	
2.0607	-13.3664	2.9215	0	
2.0613	-10.6047	6.28123	0	
2.0620	-10.301	4.15271	0	
2.0627	-8.47827	3.54754	0	
2.0633	-4.80528	5.0709	0	
2.0640	-2.6788	3.23452	0	
2.0647	0.966579	3.23452	0	
2.0653	7.70501	4.75788	0	
2.0660	10.439	0.79298	0	
2.0667	7.70501	-0.125207	0	
2.0673	3.12067	7.19942	0	
2.0680	2.5131	8.11761	0	
2.0687	4.3358	3.23452	0	
2.0693	2.5131	4.46573	0	
2.0700	-1.15989	5.67607	0	
2.0707	-4.80528	1.71117	0	
2.0713	-14.5815	0.187811	0	
2.0720	-20.381	-2.56675	0	
2.0727	-7.26315	-7.74199	0	
2.0733	11.958	-6.53165	0	
2.0740	17.1499	-2.8589	0	
2.0747	13.5045	-6.21863	0	
2.0753	12.5655	-8.36802	0	
2.0760	12.5655	-5.00829	0	
2.0767	7.09745	-4.69527	0	
2.0773	0.0552331	-5.30044	0	
2.0780	-0.248549	-2.56675	0	
2.0787	3.72823	-2.25373	0	
2.0793	2.5131	-6.53165	0	
2.0800	-4.80528	-7.13682	0	
2.0807	-9.38962	-4.69527	0	
2.0813	-8.17449	-4.69527	0	
2.0820	-3.28637	-5.61346	0	
2.0827	0.662797	-3.17192	0	
2.0833	5.8547	-1.33554	0	
2.0840	13.5045	-1.64856	0	
2.0847	18.0612	-1.96158	0	
2.0853	20.8229	-4.40312	0	
2.0860	25.711	-7.13682	0	
2.0867	28.1412	-6.53165	0	
2.0873	22.6456	-5.30044	0	
2.0880	15.0234	-5.00829	0	
2.0887	11.3504	-3.48494	0	
2.0893	13.5045	-3.77709	0	
2.0900	10.439	-5.61346	0	
2.0907	-8.47827	-3.17192	0	
2.0913	-29.2459	0.79298	0	
2.0920	-35.0178	1.39815	0	
2.0927	-37.7794	0.79298	0	
2.0933	-41.4524	2.62935	0	
2.0940	-32.5875	5.67607	0	
2.0947	-17.3432	7.19942	0	
2.0953	-11.2399	5.0709	0	
2.0960	-9.99718	2.9215	0	
2.0967	-8.47827	3.83969	0	
2.0973	-9.38962	3.23452	0	
2.0980	-14.2777	2.62935	0	
2.0987	-15.7967	6.90727	0	
2.0993	-12.1513	9.64096	0	
2.1000	-8.78206	7.80459	0	
2.1007	-11.2399	8.72278	0	
2.1013	-14.5815	10.5592	0	
2.1020	-13.6702	7.19942	0	
2.1027	-10.301	3.83969	0	
2.1033	-10.301	4.46573	0	
2.1040	-11.2399	5.67607	0	
2.1047	-6.95937	7.19942	0	
2.1053	-0.248549	5.98908	0	
2.1060	3.72823	1.106	0	
2.1067	7.09745	-1.04339	0	
2.1073	10.7428	0.479961	0	
2.1080	11.6542	-1.64856	0	
2.1087	11.6542	-5.30044	0	
2.1093	15.0234	-5.61346	0	
2.1100	18.6688	-6.21863	0	
2.1107	22.038	-8.36802	0	
2.1113	18.0612	-9.28621	0	
2.1120	3.42445	-7.13682	0	
2.1127	-2.98259	-3.17192	0	
2.1133	7.40123	-2.56675	0	
2.1140	10.7428	-4.09011	0	
2.1147	2.5131	-3.17192	0	
2.1153	0.966579	-1.96158	0	
2.1160	4.3358	-4.40312	0	
2.1167	1.90554	-5.00829	0	
2.1173	-3.28637	-2.56675	0	
2.1180	-10.301	-2.25373	0	
2.1187	-13.974	-2.25373	0	
2.1193	-8.47827	-0.125207	0	
2.1200	-1.46368	0.187811	0	
2.1207	1.29798	-0.730376	0	
2.1213	1.60176	1.71117	0	
2.1220	-1.76746	2.62935	0	
2.1227	-6.65558	0.479961	0	
2.1233	-8.47827	1.39815	0	
2.1240	-16.1004	4.15271	0	
2.1247	-24.9653	0.79298	0	
2.1253	-17.647	-4.40312	0	
2.1260	-5.13667	-4.09011	0	
2.1267	-5.44046	-1.33554	0	
2.1273	-7.26315	-1.33554	0	
2.1280	-0.248549	-1.96158	0	
2.1287	5.24714	-1.04339	0	
2.1293	3.42445	-0.125207	0	
2.1300	-2.07124	-1.96158	0	
2.1307	-6.04802	-3.48494	0	
2.1313	-2.07124	-2.8589	0	
2.1320	6.46227	-1.96158	0	
2.1327	8.00879	-2.8589	0	
2.1333	4.63958	-4.40312	0	
2.1340	5.24714	-3.17192	0	
2.1347	4.3358	-1.96158	0	
2.1353	-1.46368	-1.96158	0	
2.1360	-5.44046	-1.33554	0	
2.1367	-5.13667	0.79298	0	
2.1373	-5.44046	1.39815	0	
2.1380	-2.37502	0.187811	0	
2.1387	3.72823	0.187811	0	
2.1393	4.03201	2.62935	0	
2.1400	0.0552331	4.75788	0	
2.1407	1.29798	4.46573	0	
2.1413	4.3358	2.9215	0	
2.1420	4.63958	2.31634	0	
2.1427	4.03201	1.71117	0	
2.1433	4.63958	1.106	0	
2.1440	10.7428	-0.730376	0	
2.1447	17.4536	-2.8589	0	
2.1453	14.112	-2.8589	0	
2.1460	7.40123	-2.25373	0	
2.1467	11.6542	-5.00829	0	
2.1473	16.2385	-7.44984	0	
2.1480	7.09745	-4.69527	0	
2.1487	-6.65558	-2.25373	0	
2.1493	-12.4551	-4.09011	0	
2.1500	-11.5437	-3.48494	0	
2.1507	-9.38962	0.79298	0	
2.1513	-5.13667	1.106	0	
2.1520	0.359015	-2.56675	0	
2.1527	0.662797	-1.64856	0	
2.1533	-2.98259	1.71117	0	
2.1540	-2.07124	1.71117	0	
2.1547	0.359015	1.71117	0	
2.1553	-0.248549	1.71117	0	
2.1560	0.0552331	0.479961	0	
2.1567	0.966579	-1.64856	0	
2.1573	-2.37502	-2.8589	0	
2.1580	-5.13667	-2.8589	0	
2.1587	-4.80528	-0.125207	0	
2.1593	-6.95937	0.79298	0	
2.1600	-6.65558	-0.730376	0	
2.1607	-2.07124	0.479961	0	
2.1613	-1.46368	3.54754	0	
2.1620	-5.13667	5.0709	0	
2.1627	-5.74424	6.28123	0	
2.1633	-3.59015	5.36305	0	
2.1640	-1.46368	1.39815	0	
2.1647	-2.07124	-0.417358	0	
2.1653	-3.89393	0.79298	0	
2.1660	-3.59015	0.479961	0	
2.1667	2.5131	-1.04339	0	
2.1673	8.92014	-4.09011	0	
2.1680	8.61636	-6.53165	0	
2.1687	5.24714	-3.77709	0	
2.1693	10.7428	-1.04339	0	
2.1700	29.3564	-3.17192	0	
2.1707	46.1472	-4.40312	0	
2.1713	48.2737	-0.125207	0	
2.1720	39.1326	3.54754	0	
2.1727	20.5191	3.83969	0	
2.1733	-7.56693	5.0709	0	
2.1740	-27.6994	7.19942	0	
2.1747	-29.8535	6.90727	0	
2.1753	-26.4843	5.0709	0	
2.1760	-22.8113	3.83969	0	
2.1767	-13.6702	3.23452	0	
2.1773	-10.6047	2.02419	0	
2.1780	-20.6848	0.79298	0	
2.1787	-26.788	1.71117	0	
2.1793	-19.4697	3.54754	0	
2.1800	-10.9085	3.83969	0	
2.1807	-6.3518	3.54754	0	
2.1813	-1.76746	3.23452	0	
2.1820	-0.248549	3.54754	0	
2.1827	-3.89393	2.62935	0	
2.1833	-4.50149	-0.125207	0	
2.1840	-2.98259	-0.730376	0	
2.1847	-2.98259	1.71117	0	
2.1853	-1.15989	0.479961	0	
2.1860	4.63958	-1.64856	0	
2.1867	4.3358	1.39815	0	
2.1873	-0.248549	1.39815	0	
2.1880	-4.80528	-3.48494	0	
2.1887	-11.2399	-2.8589	0	
2.1893	-11.8475	-1.04339	0	
2.1900	-2.07124	-4.40312	0	
2.1907	2.20932	-3.77709	0	
2.1913	-2.37502	0.187811	0	
2.1920	-0.248549	-1.04339	0	
2.1927	5.24714	-2.56675	0	
2.1933	4.3358	-1.96158	0	
2.1940	5.24714	-3.48494	0	
2.1947	8.31258	-1.33554	0	
2.1953	5.24714	3.54754	0	
2.1960	1.29798	3.23452	0	
2.1967	0.662797	-0.125207	0	
2.1973	0.662797	-1.04339	0	
2.1980	2.81689	-3.48494	0	
2.1987	5.24714	-6.21863	0	
2.1993	3.42445	-4.69527	0	
2.2000	1.90554	-3.77709	0	
2.2007	5.24714	-5.00829	0	
2.2013	4.94336	-2.56675	0	
2.2020	-0.248549	1.71117	0	
2.2027	-3.59015	1.39815	0	
2.2033	-3.89393	0.187811	0	
2.2040	-1.15989	-0.125207	0	
2.2047	4.03201	-2.8589	0	
2.2053	6.15849	-2.8589	0	
2.2060	3.42445	-0.417358	0	
2.2067	-0.552331	-2.8589	0	
2.2073	-1.46368	-4.69527	0	
2.2080	-2.6788	1.71117	0	
2.2087	-7.87071	5.67607	0	
2.2093	-12.7588	1.71117	0	
2.2100	-10.301	0.187811	0	
2.2107	1.29798	3.54754	0	
2.2113	17.1499	3.54754	0	
2.2120	27.5337	-0.125207	0	
2.2127	25.711	-2.8589	0	
2.2133	21.1266	-2.8589	0	
2.2140	19.6077	-2.8589	0	
2.2147	14.7196	-3.17192	0	
2.2153	12.2617	-4.09011	0	
2.2160	18.365	-4.40312	0	
2.2167	15.3272	-4.40312	0	
2.2173	-9.6934	-3.48494	0	
2.2180	-35.0178	-1.04339	0	
2.2187	-39.6021	2.31634	0	
2.2193	-33.1951	4.46573	0	
2.2200	-27.6994	4.46573	0	
2.2207	-21.2923	3.54754	0	
2.2213	-10.6047	2.62935	0	
2.2220	-1.15989	2.62935	0	
2.2227	1.29798	0.79298	0	
2.2233	2.5131	-2.25373	0	
2.2240	7.09745	-4.40312	0	
2.2247	12.5655	-5.61346	0	
2.2253	17.1499	-6.84467	0	
2.2260	19.304	-7.74199	0	
2.2267	19.6077	-8.97319	0	
2.2273	17.7574	-9.28621	0	
2.2280	5.8547	-6.84467	0	
2.2287	-16.708	-5.61346	0	
2.2293	-25.8767	-5.92648	0	
2.2300	-11.2399	-5.00829	0	
2.2307	0.966579	-5.00829	0	
2.2313	-1.76746	-5.30044	0	
2.2320	-4.50149	-1.96158	0	
2.2327	-1.46368	-1.33554	0	
2.2333	2.5131	-5.30044	0	
2.2340	8.00879	-4.69527	0	
2.2347	10.439	-1.04339	0	
2.2353	7.70501	-2.25373	0	
2.2360	4.3358	-4.09011	0	
2.2367	-1.15989	-2.8589	0	
2.2373	-9.08584	-1.64856	0	
2.2380	-10.6047	-0.125207	0	
2.2387	-6.65558	2.31634	0	
2.2393	-6.04802	2.02419	0	
2.2400	-10.301	1.71117	0	
2.2407	-13.3664	1.71117	0	
2.2413	-12.7588	-0.125207	0	
2.2420	-8.47827	0.187811	0	
2.2427	-6.04802	2.31634	0	
2.2433	-7.56693	0.79298	0	
2.2440	-7.87071	-0.417358	0	
2.2447	-6.04802	-0.125207	0	
2.2453	-5.74424	-1.96158	0	
2.2460	-3.28637	-3.17192	0	
2.2467	3.42445	-1.64856	0	
2.2473	8.00879	-3.48494	0	
2.2480	8.61636	-4.09011	0	
2.2487	9.83148	-0.730376	0	
2.2493	10.7428	0.187811	0	
2.2500	10.439	-0.125207	0	
2.2507	10.439	1.106	0	
2.2513	10.7428	-0.125207	0	
2.2520	11.6542	-1.64856	0	
2.2527	13.5045	1.106	0	
2.2533	10.439	1.71117	0	
2.2540	0.359015	0.79298	0	
2.2547	-5.13667	3.54754	0	
2.2553	-0.552331	4.75788	0	
2.2560	3.42445	3.83969	0	
2.2567	0.359015	5.67607	0	
2.2573	-6.95937	6.59425	0	
2.2580	-13.3664	5.0709	0	
2.2587	-14.5815	6.90727	0	
2.2593	-15.7967	9.34881	0	
2.2600	-23.115	7.19942	0	
2.2607	-29.2459	5.36305	0	
2.2613	-25.5729	6.90727	0	
2.2620	-21.8999	8.11761	0	
2.2627	-22.5075	7.19942	0	
2.2633	-17.647	6.28123	0	
2.2640	-9.38962	5.98908	0	
2.2647	-6.04802	4.75788	0	
2.2653	-4.80528	3.54754	0	
2.2660	-2.37502	2.62935	0	
2.2667	-2.98259	2.31634	0	
2.2673	-5.44046	2.62935	0	
2.2680	-2.37502	2.02419	0	
2.2687	5.24714	-0.125207	0	
2.2693	11.958	-1.96158	0	
2.2700	16.2385	-3.77709	0	
2.2707	18.0612	-7.13682	0	
2.2713	18.9726	-8.36802	0	
2.2720	19.9115	-9.28621	0	
2.2727	19.304	-12.0199	0	
2.2733	18.0612	-10.8096	0	
2.2740	13.2007	-5.00829	0	
2.2747	4.03201	-1.96158	0	
2.2753	-4.50149	-2.25373	0	
2.2760	-7.56693	-3.48494	0	
2.2767	-4.80528	-4.69527	0	
2.2773	2.5131	-4.09011	0	
2.2780	10.7428	-2.56675	0	
2.2787	11.6542	-1.96158	0	
2.2793	6.15849	-1.96158	0	
2.2800	3.72823	-2.8589	0	
2.2807	6.46227	-3.48494	0	
2.2813	8.00879	-1.96158	0	
2.2820	6.15849	0.79298	0	
2.2827	4.94336	1.71117	0	
2.2833	8.31258	0.79298	0	
2.2840	12.5655	-1.33554	0	
2.2847	6.76605	-0.730376	0	
2.2853	-7.56693	1.39815	0	
2.2860	-10.9085	0.79298	0	
2.2867	-1.15989	-1.33554	0	
2.2873	7.09745	-1.96158	0	
2.2880	5.8547	-3.77709	0	
2.2887	-2.37502	-5.30044	0	
2.2893	-9.38962	-2.25373	0	
2.2900	-7.26315	-0.417358	0	
2.2907	-0.248549	-0.730376	0	
2.2913	3.42445	0.79298	0	
2.2920	4.63958	-0.125207	0	
2.2927	6.76605	-2.25373	0	
2.2933	9.22392	-1.04339	0	
2.2940	13.5045	-1.04339	0	
2.2947	16.8461	-3.77709	0	
2.2953	15.631	-2.8589	0	
2.2960	10.1353	-1.33554	0	
2.2967	5.24714	-2.8589	0	
2.2973	-0.248549	-1.96158	0	
2.2980	-14.5815	1.106	0	
2.2987	-38.0832	1.71117	0	
2.2993	-49.6821	2.62935	0	
2.3000	-38.387	3.54754	0	
2.3007	-26.1805	2.9215	0	
2.3013	-26.788	4.75788	0	
2.3020	-24.9653	8.11761	0	
2.3027	-15.4929	7.19942	0	
2.3033	-11.2399	3.54754	0	
2.3040	-13.974	4.15271	0	
2.3047	-15.4929	6.28123	0	
2.3053	-13.6702	4.46573	0	
2.3060	-8.78206	1.71117	0	
2.3067	-2.6788	2.9215	0	
2.3073	1.29798	4.15271	0	
2.3080	4.63958	0.79298	0	
2.3087	8.00879	-0.125207	0	
2.3093	6.76605	2.9215	0	
2.3100	4.03201	2.9215	0	
2.3107	9.22392	0.479961	0	
2.3113	16.2385	0.479961	0	
2.3120	16.2385	-1.04339	0	
2.3127	16.2385	-3.48494	0	
2.3133	15.9347	-1.64856	0	
2.3140	7.09745	1.106	0	
2.3147	2.20932	-0.417358	0	
2.3153	8.00879	-2.8589	0	
2.3160	8.61636	-2.25373	0	
2.3167	2.5131	-2.25373	0	
2.3173	3.72823	-5.00829	0	
2.3180	6.76605	-5.30044	0	
2.3187	1.60176	-3.48494	0	
2.3193	-5.44046	-4.69527	0	
2.3200	-6.95937	-4.40312	0	
2.3207	-5.74424	-0.125207	0	
2.3213	-6.3518	0.79298	0	
2.3220	-7.56693	-1.04339	0	
2.3227	-6.65558	1.106	0	
2.3233	-5.13667	1.39815	0	
2.3240	-5.74424	-1.64856	0	
2.3247	-3.28637	0.187811	0	
2.3253	1.60176	2.62935	0	
2.3260	3.42445	0.187811	0	
2.3267	3.72823	-0.730376	0	
2.3273	3.72823	-0.125207	0	
2.3280	1.90554	-1.33554	0	
2.3287	3.42445	-0.730376	0	
2.3293	8.31258	0.479961	0	
2.3300	8.31258	-0.730376	0	
2.3307	6.15849	0.479961	0	
2.3313	7.09745	1.39815	0	
2.3320	5.55092	-1.04339	0	
2.3327	3.12067	-1.64856	0	
2.3333	5.24714	0.187811	0	
2.3340	6.15849	-1.96158	0	
2.3347	3.12067	-4.69527	0	
2.3353	2.5131	-5.30044	0	
2.3360	3.12067	-5.61346	0	
2.3367	2.20932	-1.96158	0	
2.3373	4.3358	2.62935	0	
2.3380	6.15849	-1.04339	0	
2.3387	0.662797	-3.77709	0	
2.3393	-6.95937	1.71117	0	
2.3400	-10.301	3.54754	0	
2.3407	-8.17449	-0.417358	0	
2.3413	-7.87071	-0.125207	0	
2.3420	-14.2777	1.106	0	
2.3427	-18.5583	-0.417358	0	
2.3433	-14.2777	0.187811	0	
2.3440	-9.38962	1.106	0	
2.3447	-8.17449	-0.730376	0	
2.3453	-6.95937	-1.96158	0	
2.3460	-2.98259	-3.17192	0	
2.3467	1.60176	-3.17192	0	
2.3473	2.5131	0.479961	0	
2.3480	2.5131	1.39815	0	
2.3487	5.24714	-1.64856	0	
2.3493	2.20932	-0.730376	0	
2.3500	-9.38962	1.71117	0	
2.3507	-11.2399	0.187811	0	
2.3513	0.662797	-1.33554	0	
2.3520	4.94336	-2.56675	0	
2.3527	-0.856112	-5.30044	0	
2.3533	-1.76746	-5.92648	0	
2.3540	-0.248549	-4.40312	0	
2.3547	-2.37502	-5.00829	0	
2.3553	-1.46368	-5.30044	0	
2.3560	6.46227	-4.69527	0	
2.3567	11.3504	-5.30044	0	
2.3573	6.15849	-4.69527	0	
2.3580	-3.59015	-1.04339	0	
2.3587	-9.6934	1.71117	0	
2.3593	-11.8475	1.106	0	
2.3600	-13.6702	0.479961	0	
2.3607	-17.3432	0.79298	0	
2.3613	-20.6848	0.79298	0	
2.3620	-16.708	0.79298	0	
2.3627	-7.26315	1.71117	0	
2.3633	-3.89393	0.479961	0	
2.3640	-4.80528	-1.96158	0	
2.3647	-1.76746	-2.8589	0	
2.3653	1.29798	-2.8589	0	
2.3660	1.60176	-2.56675	0	
2.3667	6.76605	-1.96158	0	
2.3673	12.5655	-2.8589	0	
2.3680	9.5277	-4.09011	0	
2.3687	1.60176	-3.48494	0	
2.3693	-4.19771	-2.56675	0	
2.3700	-6.65558	-2.56675	0	
2.3707	-5.13667	-1.04339	0	
2.3713	-1.46368	-0.125207	0	
2.3720	0.966579	-1.33554	0	
2.3727	3.72823	-1.33554	0	
2.3733	7.40123	0.79298	0	
2.3740	9.83148	-0.417358	0	
2.3747	9.83148	-2.25373	0	
2.3753	5.24714	-1.64856	0	
2.3760	2.20932	-1.96158	0	
2.3767	6.76605	-3.77709	0	
2.3773	8.92014	-4.09011	0	
2.3780	5.55092	-2.8589	0	
2.3787	6.15849	-1.04339	0	
2.3793	8.31258	0.79298	0	
2.3800	2.5131	0.479961	0	
2.3807	-2.6788	0.79298	0	
2.3813	0.662797	3.83969	0	
2.3820	4.94336	4.46573	0	
2.3827	7.09745	2.62935	0	
2.3833	8.92014	2.31634	0	
2.3840	8.31258	1.71117	0	
2.3847	4.3358	0.79298	0	
2.3853	1.60176	1.106	0	
2.3860	4.3358	0.79298	0	
2.3867	7.70501	0.79298	0	
2.3873	5.8547	2.31634	0	
2.3880	3.42445	2.31634	0	
2.3887	3.42445	0.187811	0	
2.3893	1.90554	0.79298	0	
2.3900	1.60176	1.71117	0	
2.3907	3.42445	0.479961	0	
2.3913	1.90554	-1.04339	0	
2.3920	-1.15989	-1.33554	0	
2.3927	0.359015	-2.25373	0	
2.3933	4.3358	-1.33554	0	
2.3940	8.92014	-0.417358	0	
2.3947	14.4158	-2.8589	0	
2.3953	15.631	-4.69527	0	
2.3960	12.2617	-2.56675	0	
2.3967	9.5277	-1.96158	0	
2.3973	11.0466	-3.17192	0	
2.3980	15.631	-2.56675	0	
2.3987	13.8083	-1.33554	0	
2.3993	-0.552331	0.479961	0	
2.4000	-15.4929	2.62935	0	
2.4007	-20.0772	2.02419	0	
2.4013	-20.381	1.106	0	
2.4020	-18.5583	1.71117	0	
2.4027	-16.708	0.187811	0	
2.4033	-23.115	-1.33554	0	
2.4040	-31.9799	0.479961	0	
2.4047	-29.5497	2.02419	0	
2.4053	-21.5961	1.39815	0	
2.4060	-16.708	-1.04339	0	
2.4067	-11.8475	-4.09011	0	
2.4073	-7.56693	-3.77709	0	
2.4080	-8.17449	-1.04339	0	
2.4087	-9.08584	-0.730376	0	
2.4093	-7.56693	-1.04339	0	
2.4100	-6.65558	0.79298	0	
2.4107	-8.17449	0.79298	0	
2.4113	-7.56693	-1.64856	0	
2.4120	-2.98259	-1.64856	0	
2.4127	0.966579	-1.33554	0	
2.4133	3.42445	-1.04339	0	
2.4140	4.3358	1.71117	0	
2.4147	3.42445	3.54754	0	
2.4153	3.12067	0.79298	0	
2.4160	5.24714	0.479961	0	
2.4167	6.15849	4.15271	0	
2.4173	6.15849	4.46573	0	
2.4180	8.92014	0.79298	0	
2.4187	13.8083	0.187811	0	
2.4193	13.5045	2.02419	0	
2.4200	2.81689	0.79298	0	
2.4207	-9.99718	-0.125207	0	
2.4213	-9.38962	2.31634	0	
2.4220	-2.98259	4.46573	0	
2.4227	-9.38962	6.59425	0	
2.4233	-17.9507	8.43063	0	
2.4240	-15.7967	6.90727	0	
2.4247	-13.6702	2.31634	0	
2.4253	-13.0626	-0.125207	0	
2.4260	-4.80528	0.79298	0	
2.4267	5.24714	0.79298	0	
2.4273	10.7428	-1.96158	0	
2.4280	12.5655	-1.96158	0	
2.4287	9.83148	2.62935	0	
2.4293	4.3358	5.36305	0	
2.4300	-4.80528	2.31634	0	
2.4307	-14.2777	1.39815	0	
2.4313	-12.1513	4.15271	0	
2.4320	-1.46368	3.23452	0	
2.4327	0.966579	0.79298	0	
2.4333	-1.46368	1.39815	0	
2.4340	1.90554	2.62935	0	
2.4347	5.8547	1.71117	0	
2.4353	4.94336	0.79298	0	
2.4360	3.72823	-0.125207	0	
2.4367	2.5131	-1.96158	0	
2.4373	1.29798	-2.56675	0	
2.4380	3.42445	-1.64856	0	
2.4387	7.09745	-1.33554	0	
2.4393	6.46227	-0.730376	0	
2.4400	4.3358	1.106	0	
2.4407	4.63958	3.83969	0	
2.4413	3.12067	5.36305	0	
2.4420	-0.248549	4.15271	0	
2.4427	0.662797	3.23452	0	
2.4433	3.72823	4.15271	0	
2.4440	1.60176	3.54754	0	
2.4447	-2.07124	1.71117	0	
2.4453	-3.89393	0.479961	0	
2.4460	-3.89393	-1.04339	0	
2.4467	-0.248549	-3.17192	0	
2.4473	2.20932	-3.77709	0	
2.4480	0.359015	-3.77709	0	
2.4487	0.0552331	-2.8589	0	
2.4493	0.662797	-0.730376	0	
2.4500	-0.856112	0.187811	0	
2.4507	2.20932	0.79298	0	
2.4513	8.61636	1.106	0	
2.4520	8.61636	1.39815	0	
2.4527	5.55092	3.54754	0	
2.4533	3.12067	4.75788	0	
2.4540	-4.50149	3.54754	0	
2.4547	-9.99718	4.46573	0	
2.4553	-6.04802	5.0709	0	
2.4560	-0.856112	1.71117	0	
2.4567	1.60176	-1.04339	0	
2.4573	5.24714	-1.04339	0	
2.4580	7.09745	-5.61346	0	
2.4587	6.15849	-8.055	0	
2.4593	5.8547	-3.17192	0	
2.4600	5.24714	-1.04339	0	
2.4607	1.90554	-5.30044	0	
2.4613	-0.552331	-5.61346	0	
2.4620	0.966579	-2.25373	0	
2.4627	4.94336	-3.77709	0	
2.4633	5.8547	-7.13682	0	
2.4640	5.24714	-6.21863	0	
2.4647	9.22392	-4.69527	0	
2.4653	15.0234	-4.69527	0	
2.4660	16.2385	-2.56675	0	
2.4667	16.2385	-0.417358	0	
2.4673	16.2385	-2.56675	0	
2.4680	13.8083	-3.77709	0	
2.4687	16.5423	-1.33554	0	
2.4693	21.7342	-1.33554	0	
2.4700	17.7574	-2.8589	0	
2.4707	10.439	-2.25373	0	
2.4713	3.72823	-1.04339	0	
2.4720	-10.6047	-0.730376	0	
2.4727	-22.5075	-0.125207	0	
2.4733	-17.647	-1.04339	0	
2.4740	-10.6047	-1.96158	0	
2.4747	-12.7588	-1.04339	0	
2.4753	-13.3664	-0.417358	0	
2.4760	-10.301	1.71117	0	
2.4767	-9.99718	5.67607	0	
2.4773	-7.56693	3.54754	0	
2.4780	-1.46368	-2.25373	0	
2.4787	3.12067	-2.25373	0	
2.4793	5.24714	-0.125207	0	
2.4800	4.3358	0.79298	0	
2.4807	0.966579	3.54754	0	
2.4813	0.359015	4.15271	0	
2.4820	3.42445	1.39815	0	
2.4827	6.15849	1.71117	0	
2.4833	5.24714	2.62935	0	
2.4840	2.20932	0.79298	0	
2.4847	-0.552331	2.62935	0	
2.4853	-5.44046	4.15271	0	
2.4860	-11.2399	-1.04339	0	
2.4867	-13.3664	-3.77709	0	
2.4873	-16.708	-1.04339	0	
2.4880	-26.1805	0.79298	0	
2.4887	-31.9799	0.79298	0	
2.4893	-28.0032	2.02419	0	
2.4900	-22.8113	1.106	0	
2.4907	-18.2545	-1.96158	0	
2.4913	-11.2399	-2.8589	0	
2.4920	-6.04802	-1.96158	0	
2.4927	-4.19771	-0.125207	0	
2.4933	-3.89393	1.71117	0	
2.4940	-0.552331	0.79298	0	
2.4947	8.00879	-2.56675	0	
2.4953	11.958	-5.61346	0	
2.4960	9.83148	-6.53165	0	
2.4967	13.8083	-5.30044	0	
2.4973	15.9347	-3.48494	0	
2.4980	3.42445	-3.77709	0	
2.4987	-4.80528	-5.00829	0	
2.4993	0.662797	-3.48494	0	
2.5000	0.966579	-1.96158	0	
2.5007	-0.248549	-1.96158	0	
2.5013	4.3358	-1.04339	0	
2.5020	2.20932	-0.125207	0	
2.5027	-5.13667	-1.96158	0	
2.5033	-6.95937	-0.125207	0	
2.5040	-9.38962	3.83969	0	
2.5047	-13.0626	3.83969	0	
2.5053	-10.301	2.62935	0	
2.5060	-3.89393	4.15271	0	
2.5067	-0.552331	3.54754	0	
2.5073	-1.15989	2.31634	0	
2.5080	-2.98259	3.54754	0	
2.5087	-4.50149	3.23452	0	
2.5093	-5.44046	1.71117	0	
2.5100	-4.19771	4.75788	0	
2.5107	0.359015	7.51244	0	
2.5113	0.662797	5.0709	0	
2.5120	-1.15989	2.02419	0	
2.5127	7.09745	0.79298	0	
2.5133	16.2385	-1.33554	0	
2.5140	15.3272	-2.25373	0	
2.5147	13.5045	-0.125207	0	
2.5153	15.0234	0.79298	0	
2.5160	14.4158	-0.417358	0	
2.5167	15.3272	-1.33554	0	
2.5173	17.1499	-0.417358	0	
2.5180	12.5655	0.479961	0	
2.5187	6.15849	0.479961	0	
2.5193	0.359015	1.106	0	
2.5200	-10.301	2.02419	0	
2.5207	-21.5961	2.31634	0	
2.5213	-24.054	1.39815	0	
2.5220	-19.4697	0.79298	0	
2.5227	-16.708	1.71117	0	
2.5233	-20.381	2.9215	0	
2.5240	-21.8999	0.79298	0	
2.5247	-13.974	-2.8589	0	
2.5253	-3.89393	-4.69527	0	
2.5260	1.29798	-4.69527	0	
2.5267	6.15849	-3.17192	0	
2.5273	8.92014	-0.417358	0	
2.5280	9.83148	-0.730376	0	
2.5287	13.8083	-2.8589	0	
2.5293	19.304	-1.96158	0	
2.5300	18.365	-0.125207	0	
2.5307	13.8083	-1.96158	0	
2.5313	11.3504	-2.8589	0	
2.5320	11.958	-0.730376	0	
2.5327	15.631	1.39815	0	
2.5333	18.9726	0.479961	0	
2.5340	14.4158	-2.56675	0	
2.5347	2.5131	-4.40312	0	
2.5353	-5.44046	-3.77709	0	
2.5360	-2.6788	-2.8589	0	
2.5367	-2.07124	-2.56675	0	
2.5373	-7.87071	-3.48494	0	
2.5380	-6.95937	-4.69527	0	
2.5387	-2.6788	-3.48494	0	
2.5393	-13.0626	-1.04339	0	
2.5400	-31.3724	1.71117	0	
2.5407	-42.3638	5.36305	0	
2.5413	-46.0091	6.90727	0	
2.5420	-44.794	3.54754	0	
2.5427	-39.2983	0.79298	0	
2.5433	-33.4989	1.71117	0	
2.5440	-26.1805	0.79298	0	
2.5447	-16.1004	-1.96158	0	
2.5453	-9.08584	-1.96158	0	
2.5460	-4.80528	0.79298	0	
2.5467	-0.248549	2.31634	0	
2.5473	1.29798	2.31634	0	
2.5480	-1.15989	0.79298	0	
2.5487	-1.15989	-0.730376	0	
2.5493	3.42445	-2.8589	0	
2.5500	10.7428	-3.77709	0	
2.5507	17.1499	-3.48494	0	
2.5513	15.3272	-2.56675	0	
2.5520	8.00879	-1.33554	0	
2.5527	2.81689	-0.125207	0	
2.5533	-2.07124	1.106	0	
2.5540	-4.80528	2.62935	0	
2.5547	-1.76746	2.62935	0	
2.5553	3.12067	-0.125207	0	
2.5560	3.72823	-2.8589	0	
2.5567	3.72823	-2.56675	0	
2.5573	3.12067	0.479961	0	
2.5580	0.359015	2.62935	0	
2.5587	1.90554	1.39815	0	
2.5593	7.40123	-1.04339	0	
2.5600	8.92014	-1.04339	0	
2.5607	10.1353	-1.04339	0	
2.5613	14.7196	-5.30044	0	
2.5620	10.7428	-6.53165	0	
2.5627	-0.248549	-2.8589	0	
2.5633	-2.37502	-3.48494	0	
2.5640	4.63958	-6.53165	0	
2.5647	10.439	-5.00829	0	
2.5653	17.4536	-1.33554	0	
2.5660	20.8229	-1.64856	0	
2.5667	8.92014	-2.25373	0	
2.5673	-6.95937	-1.64856	0	
2.5680	-12.1513	-1.04339	0	
2.5687	-9.6934	0.187811	0	
2.5693	-5.74424	0.79298	0	
2.5700	-1.76746	-0.730376	0	
2.5707	-2.37502	-0.730376	0	
2.5713	-5.44046	0.79298	0	
2.5720	-5.44046	2.62935	0	
2.5727	-4.80528	2.31634	0	
2.5733	-3.89393	0.187811	0	
2.5740	0.966579	-0.417358	0	
2.5747	3.42445	0.79298	0	
2.5753	0.662797	-0.730376	0	
2.5760	1.60176	-2.8589	0	
2.5767	5.24714	-2.56675	0	
2.5773	4.94336	-2.56675	0	
2.5780	5.55092	-2.25373	0	
2.5787	10.439	0.79298	0	
2.5793	12.8693	3.54754	0	
2.5800	8.92014	3.83969	0	
2.5807	3.42445	2.02419	0	
2.5813	1.60176	-0.417358	0	
2.5820	2.5131	-1.04339	0	
2.5827	1.60176	0.479961	0	
2.5833	-0.248549	1.106	0	
2.5840	0.662797	2.31634	0	
2.5847	-2.98259	1.71117	0	
2.5853	-9.6934	-1.04339	0	
2.5860	-8.78206	-0.730376	0	
2.5867	-4.19771	1.39815	0	
2.5873	-3.28637	0.187811	0	
2.5880	-0.856112	-1.64856	0	
2.5887	1.90554	-1.64856	0	
2.5893	0.662797	-1.33554	0	
2.5900	4.03201	-2.56675	0	
2.5907	9.22392	-5.61346	0	
2.5913	7.09745	-6.21863	0	
2.5920	2.81689	-1.64856	0	
2.5927	5.24714	1.71117	0	
2.5933	6.76605	0.79298	0	
2.5940	4.94336	1.71117	0	
2.5947	6.46227	5.0709	0	
2.5953	8.00879	4.46573	0	
2.5960	6.15849	2.31634	0	
2.5967	8.00879	3.54754	0	
2.5973	13.5045	3.54754	0	
2.5980	12.8693	1.106	0	
2.5987	2.20932	2.02419	0	
2.5993	-7.56693	6.28123	0	
2.6000	-7.87071	7.19942	0	
2.6007	-5.44046	3.54754	0	
2.6013	-5.74424	-0.125207	0	
2.6020	-5.74424	-0.417358	0	
2.6027	-2.07124	-1.04339	0	
2.6033	2.5131	-2.8589	0	
2.6040	2.20932	-2.8589	0	
2.6047	-0.248549	-0.730376	0	
2.6053	0.662797	-0.417358	0	
2.6060	-0.248549	-1.64856	0	
2.6067	-2.07124	-1.96158	0	
2.6073	4.63958	-5.00829	0	
2.6080	11.3504	-8.66017	0	
2.6087	3.42445	-6.84467	0	
2.6093	-5.44046	-3.17192	0	
2.6100	-2.6788	-2.25373	0	
2.6107	-3.89393	-0.417358	0	
2.6113	-14.5815	1.71117	0	
2.6120	-22.5075	0.79298	0	
2.6127	-24.6616	-0.125207	0	
2.6133	-22.2037	1.71117	0	
2.6140	-15.1891	1.71117	0	
2.6147	-11.2399	1.106	0	
2.6153	-11.5437	1.39815	0	
2.6160	-8.17449	1.106	0	
2.6167	-4.50149	-0.125207	0	
2.6173	-5.44046	-0.417358	0	
2.6180	-4.80528	-0.125207	0	
2.6187	-0.856112	-0.125207	0	
2.6193	1.29798	-1.04339	0	
2.6200	1.60176	-0.417358	0	
2.6207	3.42445	0.479961	0	
2.6213	4.03201	-1.04339	0	
2.6220	2.5131	-1.64856	0	
2.6227	0.662797	1.106	0	
2.6233	0.359015	2.62935	0	
2.6240	1.90554	1.106	0	
2.6247	4.63958	1.39815	0	
2.6253	7.09745	1.106	0	
2.6260	4.3358	-1.33554	0	
2.6267	-7.87071	-0.730376	0	
2.6273	-21.5961	2.9215	0	
2.6280	-27.3956	5.0709	0	
2.6287	-24.054	5.0709	0	
2.6293	-14.2777	2.31634	0	
2.6300	-4.50149	-3.17192	0	
2.6307	0.662797	-5.61346	0	
2.6313	4.63958	-3.77709	0	
2.6320	9.83148	-3.17192	0	
2.6327	12.5655	-4.40312	0	
2.6333	11.0466	-5.00829	0	
2.6340	11.0466	-3.77709	0	
2.6347	12.8693	0.187811	0	
2.6353	11.3504	2.9215	0	
2.6360	6.46227	1.71117	0	
2.6367	4.03201	0.79298	0	
2.6373	6.15849	0.479961	0	
2.6380	6.46227	-1.96158	0	
2.6387	4.3358	-1.96158	0	
2.6393	4.3358	1.71117	0	
2.6400	4.03201	3.54754	0	
2.6407	-2.07124	2.31634	0	
2.6413	-6.65558	0.187811	0	
2.6420	-5.74424	0.187811	0	
2.6427	-6.65558	2.9215	0	
2.6433	-9.38962	4.15271	0	
2.6440	-2.98259	1.39815	0	
2.6447	3.72823	-0.730376	0	
2.6453	-0.248549	0.79298	0	
2.6460	-4.80528	2.62935	0	
2.6467	-0.248549	2.62935	0	
2.6473	2.81689	0.79298	0	
2.6480	1.60176	-1.96158	0	
2.6487	2.5131	-3.48494	0	
2.6493	-0.248549	-3.77709	0	
2.6500	-9.38962	-5.92648	0	
2.6507	-15.7967	-6.84467	0	
2.6513	-14.5815	-5.00829	0	
2.6520	-9.6934	-3.77709	0	
2.6527	-5.44046	-4.69527	0	
2.6533	-2.98259	-6.84467	0	
2.6540	0.359015	-7.74199	0	
2.6547	3.42445	-6.84467	0	
2.6553	4.3358	-5.30044	0	
2.6560	8.31258	-6.53165	0	
2.6567	13.5045	-8.66017	0	
2.6573	8.92014	-6.84467	0	
2.6580	-1.15989	-3.77709	0	
2.6587	-2.07124	-3.17192	0	
2.6593	3.72823	-2.56675	0	
2.6600	6.15849	-2.25373	0	
2.6607	4.03201	-1.96158	0	
2.6613	0.662797	0.187811	0	
2.6620	-2.98259	1.71117	0	
2.6627	-2.07124	2.31634	0	
2.6633	1.90554	2.02419	0	
2.6640	0.966579	-1.04339	0	
2.6647	-7.56693	-4.40312	0	
2.6653	-15.7967	-1.64856	0	
2.6660	-14.5815	2.62935	0	
2.6667	-9.38962	3.23452	0	
2.6673	-9.99718	3.54754	0	
2.6680	-13.0626	5.0709	0	
2.6687	-11.5437	4.46573	0	
2.6693	-9.99718	3.83969	0	
2.6700	-10.6047	4.46573	0	
2.6707	-6.65558	2.02419	0	
2.6713	2.20932	-0.730376	0	
2.6720	6.76605	-0.125207	0	
2.6727	8.92014	1.39815	0	
2.6733	11.958	0.79298	0	
2.6740	11.6542	0.79298	0	
2.6747	11.3504	0.79298	0	
2.6753	13.8083	1.106	0	
2.6760	12.5655	2.02419	0	
2.6767	8.31258	-0.417358	0	
2.6773	7.09745	-5.61346	0	
2.6780	7.40123	-6.53165	0	
2.6787	7.09745	-5.30044	0	
2.6793	7.09745	-5.61346	0	
2.6800	2.20932	-4.69527	0	
2.6807	-6.04802	-1.64856	0	
2.6813	-6.65558	-1.96158	0	
2.6820	-0.856112	-4.69527	0	
2.6827	4.03201	-3.48494	0	
2.6833	5.8547	-1.04339	0	
2.6840	5.24714	-2.8589	0	
2.6847	2.5131	-3.48494	0	
2.6853	1.60176	-0.417358	0	
2.6860	1.90554	-0.125207	0	
2.6867	2.81689	-1.96158	0	
2.6873	5.55092	-0.730376	0	
2.6880	5.24714	0.187811	0	
2.6887	-3.59015	-0.125207	0	
2.6893	-14.2777	2.9215	0	
2.6900	-16.4042	6.28123	0	
2.6907	-10.301	4.15271	0	
2.6913	-2.98259	0.79298	0	
2.6920	1.29798	-1.04339	0	
2.6927	0.359015	-1.04339	0	
2.6933	-1.46368	0.79298	0	
2.6940	1.90554	0.79298	0	
2.6947	5.8547	-1.64856	0	
2.6953	1.90554	-0.125207	0	
2.6960	-3.59015	2.9215	0	
2.6967	-2.07124	1.71117	0	
2.6973	0.662797	0.479961	0	
2.6980	1.60176	3.23452	0	
2.6987	3.42445	2.9215	0	
2.6993	0.359015	0.479961	0	
2.7000	-5.44046	3.54754	0	
2.7007	-4.19771	7.19942	0	
2.7013	-1.15989	3.83969	0	
2.7020	-1.46368	-0.125207	0	
2.7027	-2.07124	2.9215	0	
2.7033	-12.1513	7.19942	0	
2.7040	-30.7648	7.19942	0	
2.7047	-35.3492	6.59425	0	
2.7053	-24.6616	5.36305	0	
2.7060	-17.9507	4.15271	0	
2.7067	-12.1513	4.46573	0	
2.7073	-3.89393	4.15271	0	
2.7080	-3.89393	2.31634	0	
2.7087	-7.56693	1.71117	0	
2.7093	-5.13667	-0.125207	0	
2.7100	-0.248549	-2.8589	0	
2.7107	6.15849	-4.09011	0	
2.7113	13.5045	-5.30044	0	
2.7120	14.4158	-7.44984	0	
2.7127	10.1353	-5.00829	0	
2.7133	7.70501	0.187811	0	
2.7140	5.24714	1.39815	0	
2.7147	3.42445	-0.125207	0	
2.7153	2.5131	0.479961	0	
2.7160	1.90554	0.79298	0	
2.7167	5.24714	-1.04339	0	
2.7173	10.1353	-3.17192	0	
2.7180	9.83148	-3.77709	0	
2.7187	6.76605	-3.48494	0	
2.7193	6.15849	-2.56675	0	
2.7200	5.8547	-2.8589	0	
2.7207	4.94336	-5.30044	0	
2.7213	6.15849	-7.74199	0	
2.7220	7.70501	-7.44984	0	
2.7227	4.94336	-5.61346	0	
2.7233	3.12067	-3.77709	0	
2.7240	4.63958	-1.33554	0	
2.7247	2.5131	-1.04339	0	
2.7253	-4.80528	-1.96158	0	
2.7260	-5.74424	-1.04339	0	
2.7267	-0.856112	-0.417358	0	
2.7273	3.42445	-1.64856	0	
2.7280	8.00879	-0.730376	0	
2.7287	9.5277	1.71117	0	
2.7293	3.42445	2.62935	0	
2.7300	-2.37502	1.71117	0	
2.7307	-6.04802	1.39815	0	
2.7313	-11.2399	1.71117	0	
2.7320	-8.17449	1.71117	0	
2.7327	2.5131	0.79298	0	
2.7333	6.15849	-1.04339	0	
2.7340	8.00879	-1.04339	0	
2.7347	17.1499	0.79298	0	
2.7353	24.4682	0.187811	0	
2.7360	26.6223	-3.17192	0	
2.7367	31.8142	-7.44984	0	
2.7373	32.118	-9.28621	0	
2.7380	23.5569	-6.84467	0	
2.7387	11.6542	-3.77709	0	
2.7393	-6.65558	-2.8589	0	
2.7400	-28.6107	-2.25373	0	
2.7407	-35.9567	-0.730376	0	
2.7413	-30.461	-0.125207	0	
2.7420	-26.4843	0.187811	0	
2.7427	-23.115	0.79298	0	
2.7433	-16.708	-0.417358	0	
2.7440	-11.5437	-2.25373	0	
2.7447	-7.87071	-1.96158	0	
2.7453	-4.80528	-0.730376	0	
2.7460	-5.44046	-1.96158	0	
2.7467	-4.80528	-5.00829	0	
2.7473	-2.07124	-6.53165	0	
2.7480	-7.87071	-3.77709	0	
2.7487	-16.4042	-0.417358	0	
2.7493	-13.974	0.187811	0	
2.7500	-7.56693	1.106	0	
2.7507	-6.3518	4.46573	0	
2.7513	-1.76746	5.0709	0	
2.7520	5.24714	1.71117	0	
2.7527	5.8547	-0.730376	0	
2.7533	5.24714	0.479961	0	
2.7540	9.83148	1.39815	0	
2.7547	11.6542	0.479961	0	
2.7553	6.76605	3.23452	0	
2.7560	-2.07124	7.51244	0	
2.7567	-8.47827	7.19942	0	
2.7573	-8.47827	5.98908	0	
2.7580	-4.80528	7.19942	0	
2.7587	-6.3518	6.28123	0	
2.7593	-11.2399	5.36305	0	
2.7600	-11.2399	5.36305	0	
2.7607	-8.78206	3.54754	0	
2.7613	-7.56693	0.79298	0	
2.7620	-1.15989	-0.730376	0	
2.7627	7.70501	-1.04339	0	
2.7633	8.92014	0.79298	0	
2.7640	10.439	2.9215	0	
2.7647	13.5045	2.62935	0	
2.7653	8.61636	2.62935	0	
2.7660	0.359015	3.23452	0	
2.7667	1.60176	1.71117	0	
2.7673	7.09745	-0.125207	0	
2.7680	8.92014	-1.04339	0	
2.7687	8.00879	-2.56675	0	
2.7693	0.966579	-2.56675	0	
2.7700	-4.80528	-1.33554	0	
2.7707	-2.37502	-2.25373	0	
2.7713	-0.552331	-2.8589	0	
2.7720	-3.28637	-0.730376	0	
2.7727	-1.76746	1.106	0	
2.7733	1.90554	-0.730376	0	
2.7740	1.60176	-3.77709	0	
2.7747	-0.856112	-2.56675	0	
2.7753	-3.89393	0.79298	0	
2.7760	-5.74424	0.187811	0	
2.7767	-3.89393	-1.04339	0	
2.7773	-2.37502	1.106	0	
2.7780	-3.89393	0.79298	0	
2.7787	-3.89393	-1.04339	0	
2.7793	-2.6788	2.02419	0	
2.7800	-2.07124	4.15271	0	
2.7807	-0.552331	1.71117	0	
2.7813	1.90554	2.02419	0	
2.7820	2.5131	4.15271	0	
2.7827	1.60176	4.46573	0	
2.7833	-1.76746	3.54754	0	
2.7840	-6.65558	1.71117	0	
2.7847	-10.301	0.79298	0	
2.7853	-11.2399	2.62935	0	
2.7860	-8.78206	0.79298	0	
2.7867	-2.6788	-2.56675	0	
2.7873	2.81689	-1.96158	0	
2.7880	5.55092	-4.09011	0	
2.7887	8.92014	-8.055	0	
2.7893	14.112	-5.61346	0	
2.7900	18.365	-2.25373	0	
2.7907	19.304	-3.48494	0	
2.7913	18.9726	-1.96158	0	
2.7920	20.8229	1.106	0	
2.7927	20.8229	0.479961	0	
2.7933	14.7196	-0.125207	0	
2.7940	7.09745	0.187811	0	
2.7947	4.03201	-0.730376	0	
2.7953	3.12067	-1.96158	0	
2.7960	-3.59015	-3.17192	0	
2.7967	-14.2777	-3.77709	0	
2.7973	-18.5583	-2.56675	0	
2.7980	-12.7588	-2.25373	0	
2.7987	-3.59015	-3.77709	0	
2.7993	1.60176	-4.69527	0	
2.8000	0.662797	-4.69527	0	
2.8007	-5.74424	-4.69527	0	
2.8013	-11.2399	-2.56675	0	
2.8020	-12.7588	-0.730376	0	
2.8027	-13.974	-1.96158	0	
2.8033	-14.8853	-3.17192	0	
2.8040	-12.4551	-1.04339	0	
2.8047	-6.95937	1.71117	0	
2.8053	-1.76746	-0.417358	0	
2.8060	-0.856112	-3.77709	0	
2.8067	-6.04802	-1.96158	0	
2.8073	-11.2399	2.02419	0	
2.8080	-11.8475	1.71117	0	
2.8087	-10.6047	0.479961	0	
2.8093	-8.47827	-0.125207	0	
2.8100	-3.89393	-0.125207	0	
2.8107	-1.15989	0.187811	0	
2.8113	0.662797	-0.125207	0	
2.8120	7.70501	-1.04339	0	
2.8127	9.83148	-0.125207	0	
2.8133	1.29798	1.39815	0	
2.8140	-3.89393	1.71117	0	
2.8147	1.60176	-0.125207	0	
2.8153	5.24714	-2.56675	0	
2.8160	5.24714	-3.77709	0	
2.8167	8.31258	-4.69527	0	
2.8173	12.5655	-5.92648	0	
2.8180	17.1499	-5.61346	0	
2.8187	21.1266	-3.77709	0	
2.8193	19.6077	-4.69527	0	
2.8200	13.8083	-4.69527	0	
2.8207	8.92014	-1.33554	0	
2.8213	3.42445	-1.04339	0	
2.8220	-2.37502	-4.69527	0	
2.8227	-6.65558	-4.40312	0	
2.8233	-8.47827	-0.125207	0	
2.8240	-4.50149	-0.417358	0	
2.8247	-0.248549	-2.8589	0	
2.8253	-5.74424	-2.25373	0	
2.8260	-17.647	-1.33554	0	
2.8267	-25.2691	-1.64856	0	
2.8273	-29.5497	-0.730376	0	
2.8280	-28.0032	1.39815	0	
2.8287	-16.708	2.62935	0	
2.8293	-6.04802	2.31634	0	
2.8300	-3.28637	0.79298	0	
2.8307	-1.76746	-0.417358	0	
2.8313	0.662797	-0.417358	0	
2.8320	0.0552331	-0.125207	0	
2.8327	2.5131	-0.125207	0	
2.8333	8.61636	-0.417358	0	
2.8340	11.958	0.479961	0	
2.8347	11.6542	1.106	0	
2.8353	8.92014	-1.33554	0	
2.8360	7.40123	-2.8589	0	
2.8367	5.55092	0.187811	0	
2.8373	-0.856112	2.62935	0	
2.8380	-9.08584	1.106	0	
2.8387	-11.2399	-0.125207	0	
2.8393	-9.38962	-0.125207	0	
2.8400	-7.87071	2.31634	0	
2.8407	-3.28637	4.75788	0	
2.8413	0.359015	4.75788	0	
2.8420	-1.76746	4.15271	0	
2.8427	-4.50149	4.46573	0	
2.8433	-4.80528	4.46573	0	
2.8440	-5.13667	4.15271	0	
2.8447	-5.74424	4.46573	0	
2.8453	-7.56693	3.54754	0	
2.8460	-9.99718	2.31634	0	
2.8467	-8.47827	2.62935	0	
2.8473	-4.19771	2.62935	0	
2.8480	-1.15989	3.54754	0	
2.8487	4.03201	1.71117	0	
2.8493	9.5277	-3.17192	0	
2.8500	11.6542	-3.48494	0	
2.8507	11.958	1.39815	0	
2.8513	12.8693	-0.730376	0	
2.8520	11.958	-4.69527	0	
2.8527	10.439	-1.04339	0	
2.8533	9.5277	0.79298	0	
2.8540	8.92014	-2.25373	0	
2.8547	8.31258	-0.730376	0	
2.8553	0.966579	3.83969	0	
2.8560	-13.3664	5.36305	0	
2.8567	-18.2545	6.28123	0	
2.8573	-9.38962	5.67607	0	
2.8580	-3.89393	2.31634	0	
2.8587	-3.59015	1.106	0	
2.8593	2.5131	1.106	0	
2.8600	7.40123	0.479961	0	
2.8607	3.42445	1.71117	0	
2.8613	-2.37502	2.31634	0	
2.8620	-2.98259	-1.04339	0	
2.8627	1.60176	-2.8589	0	
2.8633	8.00879	-3.48494	0	
2.8640	11.6542	-6.53165	0	
2.8647	11.3504	-8.055	0	
2.8653	9.83148	-6.21863	0	
2.8660	6.15849	-3.77709	0	
2.8667	4.3358	-2.25373	0	
2.8673	9.22392	-1.64856	0	
2.8680	11.0466	-0.730376	0	
2.8687	-0.856112	1.39815	0	
2.8693	-13.0626	2.62935	0	
2.8700	-9.6934	0.79298	0	
2.8707	0.662797	-1.04339	0	
2.8713	6.46227	-1.64856	0	
2.8720	7.09745	-2.8589	0	
2.8727	4.03201	-4.69527	0	
2.8733	-1.15989	-4.69527	0	
2.8740	-5.44046	-1.64856	0	
2.8747	-9.38962	1.39815	0	
2.8753	-8.78206	1.106	0	
2.8760	-1.15989	-0.730376	0	
2.8767	1.29798	-2.25373	0	
2.8773	-3.28637	-2.25373	0	
2.8780	-1.76746	-0.125207	0	
2.8787	4.3358	3.23452	0	
2.8793	4.3358	2.02419	0	
2.8800	2.5131	-0.730376	0	
2.8807	0.359015	2.02419	0	
2.8813	-6.95937	5.0709	0	
2.8820	-9.6934	3.54754	0	
2.8827	-9.99718	1.39815	0	
2.8833	-20.381	2.62935	0	
2.8840	-30.1573	5.67607	0	
2.8847	-26.4843	8.43063	0	
2.8853	-22.8113	7.51244	0	
2.8860	-21.5961	4.46573	0	
2.8867	-14.8853	4.46573	0	
2.8873	-10.9085	3.54754	0	
2.8880	-13.6702	0.79298	0	
2.8887	-12.7588	2.02419	0	
2.8893	-6.3518	2.62935	0	
2.8900	0.662797	-2.56675	0	
2.8907	4.63958	-5.92648	0	
2.8913	0.662797	-3.77709	0	
2.8920	-5.13667	-1.04339	0	
2.8927	-3.28637	-0.730376	0	
2.8933	1.90554	-2.25373	0	
2.8940	4.3358	-3.48494	0	
2.8947	6.15849	-2.8589	0	
2.8953	6.76605	-1.33554	0	
2.8960	4.94336	-0.730376	0	
2.8967	2.5131	-0.125207	0	
2.8973	-0.248549	0.79298	0	
2.8980	-3.59015	0.79298	0	
2.8987	-7.56693	-0.125207	0	
2.8993	-10.301	-0.125207	0	
2.9000	-8.17449	0.187811	0	
2.9007	-6.65558	1.106	0	
2.9013	-8.17449	2.02419	0	
2.9020	-4.80528	0.187811	0	
2.9027	3.12067	-2.8589	0	
2.9033	8.00879	-4.69527	0	
2.9040	14.112	-5.92648	0	
2.9047	21.7342	-8.055	0	
2.9053	21.1266	-7.44984	0	
2.9060	18.0612	-5.61346	0	
2.9067	18.9726	-5.61346	0	
2.9073	14.7196	-4.69527	0	
2.9080	9.83148	-2.8589	0	
2.9087	13.5045	-5.00829	0	
2.9093	10.7428	-5.61346	0	
2.9100	-8.47827	-0.730376	0	
2.9107	-17.647	2.62935	0	
2.9113	-8.47827	0.187811	0	
2.9120	-2.6788	-1.04339	0	
2.9127	-2.6788	-0.417358	0	
2.9133	5.24714	-0.417358	0	
2.9140	11.958	-1.33554	0	
2.9147	9.83148	-1.96158	0	
2.9153	8.92014	-1.04339	0	
2.9160	13.5045	-0.125207	0	
2.9167	12.2617	-1.96158	0	
2.9173	6.46227	-2.8589	0	
2.9180	0.966579	0.187811	0	
2.9187	-5.74424	3.54754	0	
2.9193	-8.78206	2.62935	0	
2.9200	-0.248549	1.106	0	
2.9207	11.0466	1.71117	0	
2.9213	12.2617	2.9215	0	
2.9220	4.63958	4.46573	0	
2.9227	-3.59015	5.67607	0	
2.9233	-9.99718	5.67607	0	
2.9240	-12.4551	6.28123	0	
2.9247	-11.2399	6.28123	0	
2.9253	-10.6047	4.15271	0	
2.9260	-11.5437	2.9215	0	
2.9267	-8.17449	3.54754	0	
2.9273	-2.98259	3.23452	0	
2.9280	-0.856112	1.106	0	
2.9287	1.90554	0.79298	0	
2.9293	4.94336	1.71117	0	
2.9300	0.662797	1.106	0	
2.9307	-7.56693	-1.04339	0	
2.9313	-11.2399	-2.25373	0	
2.9320	-9.38962	-2.8589	0	
2.9327	-5.13667	-3.48494	0	
2.9333	-0.552331	-2.8589	0	
2.9340	0.966579	-2.25373	0	
2.9347	1.90554	-2.56675	0	
2.9353	5.8547	-2.56675	0	
2.9360	7.09745	-2.25373	0	
2.9367	1.90554	-2.8589	0	
2.9373	-2.07124	-1.96158	0	
2.9380	-0.248549	0.187811	0	
2.9387	3.12067	1.106	0	
2.9393	4.3358	-0.125207	0	
2.9400	3.12067	-3.48494	0	
2.9407	-1.15989	-4.09011	0	
2.9413	-2.37502	-0.125207	0	
2.9420	0.966579	1.39815	0	
2.9427	0.662797	-1.64856	0	
2.9433	-1.15989	-0.730376	0	
2.9440	3.12067	2.62935	0	
2.9447	5.24714	1.71117	0	
2.9453	-0.552331	0.79298	0	
2.9460	-5.13667	3.54754	0	
2.9467	-3.89393	3.54754	0	
2.9473	-2.37502	2.62935	0	
2.9480	-1.15989	1.71117	0	
2.9487	3.42445	0.187811	0	
2.9493	11.958	0.479961	0	
2.9500	15.631	1.71117	0	
2.9507	5.24714	1.71117	0	
2.9513	-8.17449	2.62935	0	
2.9520	-9.08584	2.62935	0	
2.9527	-7.26315	0.479961	0	
2.9533	-11.5437	1.71117	0	
2.9540	-9.99718	4.46573	0	
2.9547	-1.46368	-0.125207	0	
2.9553	0.359015	-4.69527	0	
