0.0007	-1.758	1.84365	0	
0.0013	-2.36005	1.84365	0	
0.0020	-3.58824	1.84365	0	
0.0027	-1.758	2.73369	0	
0.0033	-2.04698	3.97338	0	
0.0040	-2.9621	2.73369	0	
0.0047	-2.04698	-0.317871	0	
0.0053	-3.27517	0.921825	0	
0.0060	-5.41848	2.73369	0	
0.0067	-4.79235	0	0	
0.0073	-2.67312	-2.12973	0	
0.0080	-0.842875	-2.12973	0	
0.0087	1.30044	-1.84365	0	
0.0093	1.6135	-0.603954	0	
0.0100	1.6135	-0.317871	0	
0.0107	3.75682	-2.73369	0	
0.0113	5.58706	-3.65551	0	
0.0120	5.87605	-3.97338	0	
0.0127	5.58706	-4.89521	0	
0.0133	5.27399	-3.05156	0	
0.0140	4.96092	-1.20791	0	
0.0147	4.96092	-3.65551	0	
0.0153	3.75682	-5.18129	0	
0.0160	2.21556	-3.05156	0	
0.0167	0.0963286	-1.52578	0	
0.0173	-3.27517	-1.84365	0	
0.0180	-6.33361	-0.921825	0	
0.0187	-7.85078	-0.603954	0	
0.0193	-8.45284	-0.603954	0	
0.0200	-7.85078	0.921825	0	
0.0207	-5.41848	2.73369	0	
0.0213	-6.02054	2.73369	0	
0.0220	-8.45284	1.52578	0	
0.0227	-6.33361	1.20791	0	
0.0233	-2.67312	1.52578	0	
0.0240	-1.758	1.52578	0	
0.0247	-1.758	2.4476	0	
0.0253	-0.842875	2.73369	0	
0.0260	0.0963286	-0.317871	0	
0.0267	1.01145	-2.12973	0	
0.0273	1.6135	-0.921825	0	
0.0280	1.01145	-0.603954	0	
0.0287	1.01145	-2.12973	0	
0.0293	2.21556	-1.20791	0	
0.0300	2.52863	-0.317871	0	
0.0307	1.30044	-1.84365	0	
0.0313	-0.529807	-2.12973	0	
0.0320	-1.13186	-2.4476	0	
0.0327	-0.216739	-3.97338	0	
0.0333	0.385314	-4.57734	0	
0.0340	1.01145	-3.65551	0	
0.0347	1.6135	-3.65551	0	
0.0353	1.30044	-2.73369	0	
0.0360	0.698382	-0.603954	0	
0.0367	1.30044	-0.317871	0	
0.0373	1.01145	-0.921825	0	
0.0380	1.30044	0	0	
0.0387	4.67194	0	0	
0.0393	6.50218	-1.20791	0	
0.0400	4.0458	-0.921825	0	
0.0407	3.44375	1.52578	0	
0.0413	4.67194	0.603954	0	
0.0420	4.67194	-3.65551	0	
0.0427	5.58706	-3.97338	0	
0.0433	7.70629	-0.603954	0	
0.0440	8.62141	0	0	
0.0447	8.62141	-1.84365	0	
0.0453	5.58706	-1.84365	0	
0.0460	1.6135	-1.84365	0	
0.0467	1.92657	-2.12973	0	
0.0473	2.84169	-1.52578	0	
0.0480	-1.758	-0.603954	0	
0.0487	-6.93566	0.921825	0	
0.0493	-9.99409	0.921825	0	
0.0500	-12.7395	-0.921825	0	
0.0507	-11.8243	-1.20791	0	
0.0513	-8.45284	1.84365	0	
0.0520	-9.68103	0.921825	0	
0.0527	-9.99409	-2.73369	0	
0.0533	-4.19029	-1.20791	0	
0.0540	-1.758	0.921825	0	
0.0547	-4.79235	-1.84365	0	
0.0553	-4.50336	-2.12973	0	
0.0560	0.698382	0.317871	0	
0.0567	2.84169	-0.921825	0	
0.0573	1.30044	-2.12973	0	
0.0580	-1.13186	0	0	
0.0587	-1.44493	2.12973	0	
0.0593	0.0963286	2.73369	0	
0.0600	-0.842875	3.05156	0	
0.0607	-1.758	1.52578	0	
0.0613	-0.529807	0.317871	0	
0.0620	0.385314	1.84365	0	
0.0627	0.385314	2.73369	0	
0.0633	4.35887	0.603954	0	
0.0640	7.4173	-1.20791	0	
0.0647	4.35887	0	0	
0.0653	1.92657	2.73369	0	
0.0660	5.58706	1.84365	0	
0.0667	6.50218	-2.73369	0	
0.0673	4.67194	-2.73369	0	
0.0680	5.58706	0.921825	0	
0.0687	5.27399	-0.317871	0	
0.0693	0.0963286	-1.20791	0	
0.0700	-3.58824	2.4476	0	
0.0707	-3.27517	3.05156	0	
0.0713	-5.70747	-0.603954	0	
0.0720	-9.36796	-1.84365	0	
0.0727	-8.16385	-1.52578	0	
0.0733	-5.41848	-3.36943	0	
0.0740	-6.33361	-3.65551	0	
0.0747	-6.62259	-1.84365	0	
0.0753	-3.27517	-1.52578	0	
0.0760	-1.44493	-2.73369	0	
0.0767	-1.758	-1.20791	0	
0.0773	-2.04698	0	0	
0.0780	-2.04698	-2.4476	0	
0.0787	-0.842875	-2.12973	0	
0.0793	0.698382	0	0	
0.0800	0.0963286	-1.52578	0	
0.0807	-2.36005	-1.84365	0	
0.0813	-3.58824	2.4476	0	
0.0820	-3.58824	3.05156	0	
0.0827	-3.27517	0.603954	0	
0.0833	-1.758	0.921825	0	
0.0840	0.0963286	2.4476	0	
0.0847	3.13068	2.12973	0	
0.0853	4.0458	1.84365	0	
0.0860	1.92657	0.921825	0	
0.0867	1.01145	0.603954	0	
0.0873	2.21556	0.603954	0	
0.0880	1.01145	0.921825	0	
0.0887	-0.529807	0.921825	0	
0.0893	1.01145	0.921825	0	
0.0900	1.01145	0	0	
0.0907	-1.13186	-2.12973	0	
0.0913	-1.13186	-4.57734	0	
0.0920	1.01145	-4.57734	0	
0.0927	1.01145	-0.317871	0	
0.0933	-0.842875	1.52578	0	
0.0940	-0.842875	-1.52578	0	
0.0947	1.01145	-3.05156	0	
0.0953	-0.216739	-1.84365	0	
0.0960	-3.58824	-1.20791	0	
0.0967	-2.67312	-2.4476	0	
0.0973	1.92657	-3.65551	0	
0.0980	4.67194	-3.36943	0	
0.0987	4.67194	-1.20791	0	
0.0993	4.0458	-0.317871	0	
0.1000	5.27399	0	0	
0.1007	6.50218	0.921825	0	
0.1013	6.50218	0	0	
0.1020	6.18911	-0.317871	0	
0.1027	4.35887	0.921825	0	
0.1033	3.13068	0.317871	0	
0.1040	3.75682	-1.20791	0	
0.1047	2.84169	-1.20791	0	
0.1053	0.0963286	-0.603954	0	
0.1060	-0.842875	0	0	
0.1067	-2.67312	0.317871	0	
0.1073	-7.24873	-0.603954	0	
0.1080	-9.07897	-1.52578	0	
0.1087	-7.24873	-2.73369	0	
0.1093	-6.93566	-5.18129	0	
0.1100	-6.93566	-5.49916	0	
0.1107	-5.41848	-2.73369	0	
0.1113	-4.19029	-1.20791	0	
0.1120	-2.67312	-2.73369	0	
0.1127	-0.842875	-2.4476	0	
0.1133	0.0963286	-1.84365	0	
0.1140	1.30044	-3.36943	0	
0.1147	0.385314	-2.12973	0	
0.1153	-2.9621	0.317871	0	
0.1160	-1.758	-0.317871	0	
0.1167	1.92657	-1.84365	0	
0.1173	-1.758	0.603954	0	
0.1180	-5.70747	2.73369	0	
0.1187	-2.67312	0.921825	0	
0.1193	1.01145	-0.317871	0	
0.1200	1.6135	0	0	
0.1207	0.385314	-0.317871	0	
0.1213	-1.758	-1.20791	0	
0.1220	-1.44493	-2.12973	0	
0.1227	1.92657	-1.84365	0	
0.1233	1.92657	0	0	
0.1240	-0.842875	0.921825	0	
0.1247	-0.842875	0	0	
0.1253	0.0963286	0	0	
0.1260	1.30044	0.921825	0	
0.1267	2.84169	0.921825	0	
0.1273	2.84169	0.603954	0	
0.1280	1.6135	0.921825	0	
0.1287	1.92657	-1.52578	0	
0.1293	1.6135	-3.65551	0	
0.1300	0.698382	-1.84365	0	
0.1307	1.01145	-0.317871	0	
0.1313	0.0963286	-2.4476	0	
0.1320	-0.842875	-3.05156	0	
0.1327	1.01145	-0.921825	0	
0.1333	3.13068	-1.52578	0	
0.1340	4.0458	-3.36943	0	
0.1347	4.67194	-3.65551	0	
0.1353	3.75682	-4.25947	0	
0.1360	2.52863	-4.57734	0	
0.1367	2.84169	-3.65551	0	
0.1373	3.44375	-1.84365	0	
0.1380	2.84169	-0.921825	0	
0.1387	2.21556	-1.84365	0	
0.1393	2.52863	-1.52578	0	
0.1400	2.84169	0.921825	0	
0.1407	-0.842875	2.73369	0	
0.1413	-4.79235	1.84365	0	
0.1420	-4.50336	0.921825	0	
0.1427	-1.758	1.20791	0	
0.1433	-0.842875	2.4476	0	
0.1440	-1.13186	3.05156	0	
0.1447	-2.36005	3.65551	0	
0.1453	-3.58824	2.12973	0	
0.1460	-2.67312	-0.603954	0	
0.1467	-0.842875	0	0	
0.1473	1.6135	3.36943	0	
0.1480	3.75682	1.52578	0	
0.1487	4.67194	-2.73369	0	
0.1493	4.35887	-1.52578	0	
0.1500	4.67194	1.52578	0	
0.1507	6.79117	-0.921825	0	
0.1513	8.93448	-2.4476	0	
0.1520	8.33243	-0.921825	0	
0.1527	5.87605	-1.20791	0	
0.1533	5.58706	-2.73369	0	
0.1540	4.96092	-1.84365	0	
0.1547	0.698382	-0.603954	0	
0.1553	-2.36005	0.921825	0	
0.1560	-0.842875	1.84365	0	
0.1567	-0.529807	0	0	
0.1573	-1.758	-0.317871	0	
0.1580	-1.44493	2.73369	0	
0.1587	-1.758	4.57734	0	
0.1593	-4.50336	3.65551	0	
0.1600	-7.24873	3.65551	0	
0.1607	-10.9092	5.49916	0	
0.1613	-11.5113	5.78524	0	
0.1620	-9.99409	5.18129	0	
0.1627	-11.1982	5.18129	0	
0.1633	-13.9436	4.89521	0	
0.1640	-13.3415	5.18129	0	
0.1647	-10.5961	5.49916	0	
0.1653	-8.7659	4.57734	0	
0.1660	-7.85078	3.65551	0	
0.1667	-5.70747	5.49916	0	
0.1673	-3.58824	5.18129	0	
0.1680	-3.27517	2.73369	0	
0.1687	-3.27517	3.65551	0	
0.1693	-0.529807	4.57734	0	
0.1700	0.385314	2.4476	0	
0.1707	-2.36005	0.921825	0	
0.1713	-1.13186	-0.317871	0	
0.1720	2.84169	-2.73369	0	
0.1727	3.13068	-2.73369	0	
0.1733	1.92657	-1.52578	0	
0.1740	2.84169	-0.921825	0	
0.1747	3.75682	0	0	
0.1753	2.84169	0	0	
0.1760	4.96092	-1.84365	0	
0.1767	7.70629	-2.4476	0	
0.1773	7.70629	-1.84365	0	
0.1780	5.58706	-1.20791	0	
0.1787	2.84169	0.921825	0	
0.1793	1.01145	2.12973	0	
0.1800	1.92657	0.603954	0	
0.1807	2.84169	-1.52578	0	
0.1813	1.01145	-0.603954	0	
0.1820	0.698382	2.4476	0	
0.1827	3.44375	2.73369	0	
0.1833	4.67194	0.317871	0	
0.1840	4.35887	0	0	
0.1847	4.96092	1.52578	0	
0.1853	3.75682	0.317871	0	
0.1860	2.21556	-1.20791	0	
0.1867	3.75682	-0.603954	0	
0.1873	4.67194	0	0	
0.1880	1.92657	-0.921825	0	
0.1887	0.385314	-1.52578	0	
0.1893	1.01145	-1.84365	0	
0.1900	1.6135	-0.921825	0	
0.1907	1.01145	0	0	
0.1913	-1.758	-1.84365	0	
0.1920	-4.19029	-3.05156	0	
0.1927	-2.04698	-2.12973	0	
0.1933	-0.842875	-2.12973	0	
0.1940	-2.67312	-2.73369	0	
0.1947	-1.758	-1.20791	0	
0.1953	-1.13186	-0.921825	0	
0.1960	-3.58824	-2.12973	0	
0.1967	-3.87723	-2.73369	0	
0.1973	-2.67312	-3.65551	0	
0.1980	-3.58824	-3.65551	0	
0.1987	-5.41848	-1.20791	0	
0.1993	-6.33361	-0.603954	0	
0.2000	-6.93566	-1.20791	0	
0.2007	-5.41848	1.52578	0	
0.2013	-3.58824	4.89521	0	
0.2020	-3.58824	3.36943	0	
0.2027	-2.04698	-0.921825	0	
0.2033	0.698382	-1.20791	0	
0.2040	-0.842875	0.921825	0	
0.2047	-4.50336	0.921825	0	
0.2053	-4.19029	-0.921825	0	
0.2060	-1.758	0	0	
0.2067	-2.36005	0.603954	0	
0.2073	-3.58824	-1.52578	0	
0.2080	-2.04698	-2.12973	0	
0.2087	-1.758	-0.317871	0	
0.2093	-0.216739	-0.317871	0	
0.2100	4.0458	-1.84365	0	
0.2107	6.50218	-1.84365	0	
0.2113	5.87605	-2.12973	0	
0.2120	6.79117	-3.05156	0	
0.2127	6.50218	-3.65551	0	
0.2133	4.67194	-3.65551	0	
0.2140	6.50218	-3.65551	0	
0.2147	8.62141	-2.73369	0	
0.2153	7.4173	-2.4476	0	
0.2160	8.01936	-1.84365	0	
0.2167	8.33243	-2.12973	0	
0.2173	5.58706	-2.73369	0	
0.2180	5.58706	-1.84365	0	
0.2187	8.01936	-0.921825	0	
0.2193	5.58706	-0.921825	0	
0.2200	-0.842875	-0.921825	0	
0.2207	-6.02054	-0.317871	0	
0.2213	-7.24873	0	0	
0.2220	-7.24873	0.921825	0	
0.2227	-8.45284	1.84365	0	
0.2233	-9.99409	2.73369	0	
0.2240	-9.68103	2.4476	0	
0.2247	-9.99409	1.84365	0	
0.2253	-10.9092	2.4476	0	
0.2260	-10.9092	1.84365	0	
0.2267	-12.4264	1.84365	0	
0.2273	-12.1133	3.65551	0	
0.2280	-8.16385	3.65551	0	
0.2287	-6.33361	0.921825	0	
0.2293	-6.93566	0	0	
0.2300	-4.19029	0.317871	0	
0.2307	-2.04698	-2.12973	0	
0.2313	-2.67312	-3.65551	0	
0.2320	-1.13186	-1.84365	0	
0.2327	1.01145	-0.317871	0	
0.2333	1.92657	-0.921825	0	
0.2340	3.13068	-0.921825	0	
0.2347	3.75682	-0.921825	0	
0.2353	3.44375	-1.52578	0	
0.2360	3.44375	-0.603954	0	
0.2367	2.21556	0.317871	0	
0.2373	-0.842875	-1.20791	0	
0.2380	-0.842875	-1.84365	0	
0.2387	1.01145	0	0	
0.2393	1.01145	0.921825	0	
0.2400	2.84169	-0.317871	0	
0.2407	4.35887	0.603954	0	
0.2413	2.84169	3.05156	0	
0.2420	0.0963286	3.97338	0	
0.2427	-0.842875	2.73369	0	
0.2433	-0.842875	1.52578	0	
0.2440	-1.13186	1.52578	0	
0.2447	-2.36005	2.73369	0	
0.2453	-2.67312	1.84365	0	
0.2460	-2.36005	-0.603954	0	
0.2467	-2.67312	1.20791	0	
0.2473	-3.58824	3.65551	0	
0.2480	-2.67312	0.921825	0	
0.2487	-0.842875	-1.52578	0	
0.2493	2.21556	-0.317871	0	
0.2500	3.13068	0	0	
0.2507	1.01145	-1.20791	0	
0.2513	-1.758	0.603954	0	
0.2520	-4.50336	1.84365	0	
0.2527	-5.41848	-0.921825	0	
0.2533	-4.19029	-2.4476	0	
0.2540	-3.27517	-2.12973	0	
0.2547	-3.58824	-2.4476	0	
0.2553	-3.58824	-1.84365	0	
0.2560	-0.842875	0	0	
0.2567	1.6135	0.921825	0	
0.2573	1.6135	0.603954	0	
0.2580	0.0963286	-1.52578	0	
0.2587	-0.529807	-3.05156	0	
0.2593	-0.529807	-0.317871	0	
0.2600	1.01145	3.36943	0	
0.2607	3.75682	3.05156	0	
0.2613	5.27399	2.12973	0	
0.2620	4.67194	1.52578	0	
0.2627	4.67194	0	0	
0.2633	3.75682	0	0	
0.2640	4.35887	2.73369	0	
0.2647	8.01936	1.84365	0	
0.2653	6.50218	0	0	
0.2660	1.6135	0.603954	0	
0.2667	2.21556	0.603954	0	
0.2673	3.75682	0	0	
0.2680	0.385314	2.12973	0	
0.2687	-0.842875	1.84365	0	
0.2693	1.30044	-1.84365	0	
0.2700	1.92657	-2.73369	0	
0.2707	1.30044	-0.603954	0	
0.2713	0.698382	-1.20791	0	
0.2720	1.92657	-3.65551	0	
0.2727	4.67194	-4.25947	0	
0.2733	5.58706	-3.65551	0	
0.2740	4.0458	-3.65551	0	
0.2747	3.13068	-3.97338	0	
0.2753	1.01145	-3.65551	0	
0.2760	0.385314	-2.73369	0	
0.2767	2.84169	-3.05156	0	
0.2773	2.84169	-3.05156	0	
0.2780	1.01145	-2.12973	0	
0.2787	2.84169	-1.84365	0	
0.2793	3.75682	-2.4476	0	
0.2800	0.385314	-1.52578	0	
0.2807	-0.842875	0	0	
0.2813	1.01145	0	0	
0.2820	1.92657	0	0	
0.2827	1.6135	2.12973	0	
0.2833	1.6135	3.05156	0	
0.2840	1.01145	0	0	
0.2847	-0.216739	-0.921825	0	
0.2853	-0.216739	0.921825	0	
0.2860	0.698382	0.603954	0	
0.2867	-1.758	-0.603954	0	
0.2873	-5.10542	1.84365	0	
0.2880	-4.79235	3.05156	0	
0.2887	-3.58824	-0.921825	0	
0.2893	-4.79235	-3.05156	0	
0.2900	-5.70747	-1.84365	0	
0.2907	-5.41848	-1.84365	0	
0.2913	-4.19029	-3.65551	0	
0.2920	-4.19029	-4.57734	0	
0.2927	-8.16385	-4.57734	0	
0.2933	-10.5961	-3.65551	0	
0.2940	-7.53771	-3.65551	0	
0.2947	-6.02054	-4.57734	0	
0.2953	-6.62259	-3.97338	0	
0.2960	-4.50336	-4.25947	0	
0.2967	-2.9621	-6.10311	0	
0.2973	-3.27517	-6.42098	0	
0.2980	-2.36005	-6.10311	0	
0.2987	-1.758	-5.18129	0	
0.2993	0.0963286	-1.84365	0	
0.3000	1.92657	-0.603954	0	
0.3007	-1.13186	-3.65551	0	
0.3013	-2.67312	-2.73369	0	
0.3020	2.21556	1.84365	0	
0.3027	3.13068	0	0	
0.3033	0.698382	-3.05156	0	
0.3040	2.84169	-0.603954	0	
0.3047	5.58706	1.52578	0	
0.3053	5.87605	-0.317871	0	
0.3060	6.50218	-0.603954	0	
0.3067	7.4173	-0.603954	0	
0.3073	8.62141	-2.12973	0	
0.3080	12.595	-2.4476	0	
0.3087	11.6798	-0.921825	0	
0.3093	6.50218	-0.921825	0	
0.3100	5.27399	-0.921825	0	
0.3107	6.18911	-0.921825	0	
0.3113	2.21556	-2.12973	0	
0.3120	-3.58824	-3.97338	0	
0.3127	-5.41848	-4.25947	0	
0.3133	-5.41848	-3.65551	0	
0.3140	-8.16385	-3.36943	0	
0.3147	-14.5697	-1.84365	0	
0.3153	-17.6041	-0.603954	0	
0.3160	-14.5697	-1.52578	0	
0.3167	-12.4264	-2.73369	0	
0.3173	-15.4848	-2.12973	0	
0.3180	-15.1718	-2.12973	0	
0.3187	-8.16385	-3.05156	0	
0.3193	-4.50336	-2.4476	0	
0.3200	-3.87723	-0.603954	0	
0.3207	-1.758	0.317871	0	
0.3213	0.0963286	0.921825	0	
0.3220	0.385314	1.20791	0	
0.3227	2.52863	1.52578	0	
0.3233	3.13068	2.12973	0	
0.3240	1.6135	0.603954	0	
0.3247	0.698382	-0.603954	0	
0.3253	-0.216739	2.12973	0	
0.3260	-2.9621	4.57734	0	
0.3267	-2.04698	3.65551	0	
0.3273	0.698382	3.97338	0	
0.3280	0.698382	3.36943	0	
0.3287	0.698382	0.317871	0	
0.3293	3.13068	0.921825	0	
0.3300	3.75682	1.84365	0	
0.3307	2.21556	-1.20791	0	
0.3313	1.01145	-1.84365	0	
0.3320	1.30044	0.921825	0	
0.3327	1.92657	-1.20791	0	
0.3333	2.84169	-2.73369	0	
0.3340	2.52863	0.921825	0	
0.3347	0.385314	2.4476	0	
0.3353	-1.758	2.73369	0	
0.3360	-1.758	3.65551	0	
0.3367	1.01145	1.84365	0	
0.3373	2.52863	-1.52578	0	
0.3380	1.92657	-1.20791	0	
0.3387	1.01145	0	0	
0.3393	2.21556	0.921825	0	
0.3400	4.0458	2.73369	0	
0.3407	2.84169	3.65551	0	
0.3413	-0.529807	3.65551	0	
0.3420	2.52863	1.84365	0	
0.3427	8.01936	0.921825	0	
0.3433	7.4173	2.4476	0	
0.3440	5.27399	3.36943	0	
0.3447	6.79117	2.12973	0	
0.3453	6.79117	2.4476	0	
0.3460	4.67194	3.05156	0	
0.3467	6.79117	1.20791	0	
0.3473	11.3668	1.84365	0	
0.3480	10.4517	3.97338	0	
0.3487	5.87605	2.73369	0	
0.3493	3.75682	0	0	
0.3500	3.75682	-0.603954	0	
0.3507	3.44375	-1.84365	0	
0.3513	3.13068	-3.05156	0	
0.3520	3.44375	-2.73369	0	
0.3527	2.84169	-3.36943	0	
0.3533	2.84169	-2.73369	0	
0.3540	1.92657	-0.921825	0	
0.3547	-1.44493	-1.84365	0	
0.3553	-6.33361	-3.65551	0	
0.3560	-8.7659	-2.73369	0	
0.3567	-8.7659	-0.603954	0	
0.3573	-9.36796	-0.603954	0	
0.3580	-9.99409	-1.52578	0	
0.3587	-9.99409	-0.921825	0	
0.3593	-11.5113	0.921825	0	
0.3600	-11.8243	2.73369	0	
0.3607	-8.45284	1.20791	0	
0.3613	-5.41848	0.603954	0	
0.3620	-6.02054	1.84365	0	
0.3627	-4.50336	1.52578	0	
0.3633	-0.216739	0.921825	0	
0.3640	1.01145	1.84365	0	
0.3647	-1.13186	1.84365	0	
0.3653	-0.842875	1.84365	0	
0.3660	1.01145	2.73369	0	
0.3667	-0.216739	2.12973	0	
0.3673	-1.13186	2.73369	0	
0.3680	1.01145	3.65551	0	
0.3687	1.01145	2.12973	0	
0.3693	-3.58824	0	0	
0.3700	-5.41848	0	0	
0.3707	-2.36005	-1.84365	0	
0.3713	-0.529807	-3.36943	0	
0.3720	-0.842875	-2.12973	0	
0.3727	0.0963286	-2.4476	0	
0.3733	1.92657	-3.65551	0	
0.3740	1.92657	-2.12973	0	
0.3747	1.01145	-0.317871	0	
0.3753	-0.529807	-2.4476	0	
0.3760	-2.67312	-3.05156	0	
0.3767	-2.67312	-1.84365	0	
0.3773	-1.44493	-3.97338	0	
0.3780	-1.758	-5.49916	0	
0.3787	-3.58824	-1.84365	0	
0.3793	-3.58824	1.52578	0	
0.3800	-1.758	0.317871	0	
0.3807	-0.529807	0.921825	0	
0.3813	0.0963286	1.52578	0	
0.3820	1.92657	-0.317871	0	
0.3827	3.44375	0.317871	0	
0.3833	2.84169	3.36943	0	
0.3840	2.21556	3.65551	0	
0.3847	1.92657	1.84365	0	
0.3853	1.6135	1.84365	0	
0.3860	2.84169	1.84365	0	
0.3867	3.75682	1.84365	0	
0.3873	2.21556	0.921825	0	
0.3880	0.0963286	-1.20791	0	
0.3887	0.385314	-1.84365	0	
0.3893	3.13068	0	0	
0.3900	7.10424	1.20791	0	
0.3907	8.93448	-0.603954	0	
0.3913	8.93448	-1.84365	0	
0.3920	9.24755	-1.84365	0	
0.3927	11.6798	-3.36943	0	
0.3933	13.197	-3.05156	0	
0.3940	10.1627	0.603954	0	
0.3947	3.75682	1.52578	0	
0.3953	1.6135	-0.921825	0	
0.3960	2.84169	-1.20791	0	
0.3967	1.30044	-1.84365	0	
0.3973	-2.67312	-3.65551	0	
0.3980	-2.36005	-1.84365	0	
0.3987	-1.13186	0	0	
0.3993	-5.10542	-2.73369	0	
0.4000	-8.7659	-3.36943	0	
0.4007	-7.24873	-0.603954	0	
0.4013	-5.70747	-0.603954	0	
0.4020	-5.70747	-3.05156	0	
0.4027	-2.36005	-3.65551	0	
0.4033	0.0963286	-0.921825	0	
0.4040	-3.58824	1.20791	0	
0.4047	-5.10542	0.603954	0	
0.4053	-2.67312	-1.52578	0	
0.4060	-4.50336	-0.603954	0	
0.4067	-6.33361	2.73369	0	
0.4073	-1.758	2.73369	0	
0.4080	1.01145	-0.317871	0	
0.4087	-3.27517	-1.20791	0	
0.4093	-5.70747	1.52578	0	
0.4100	-5.41848	1.84365	0	
0.4107	-6.33361	0	0	
0.4113	-7.53771	-0.921825	0	
0.4120	-9.07897	0.317871	0	
0.4127	-9.68103	0	0	
0.4133	-7.85078	-2.73369	0	
0.4140	-6.33361	-2.73369	0	
0.4147	-6.62259	1.84365	0	
0.4153	-6.33361	0.921825	0	
0.4160	-4.50336	-4.57734	0	
0.4167	-2.36005	-3.65551	0	
0.4173	0.385314	1.52578	0	
0.4180	1.30044	-0.317871	0	
0.4187	0.385314	-1.52578	0	
0.4193	1.30044	2.73369	0	
0.4200	2.52863	1.84365	0	
0.4207	1.30044	-1.20791	0	
0.4213	1.92657	1.52578	0	
0.4220	3.44375	3.65551	0	
0.4227	1.6135	0.317871	0	
0.4233	1.92657	-0.603954	0	
0.4240	5.87605	0.921825	0	
0.4247	5.58706	0	0	
0.4253	2.52863	-1.20791	0	
0.4260	2.84169	-0.921825	0	
0.4267	2.52863	-2.73369	0	
0.4273	0.0963286	-4.57734	0	
0.4280	2.52863	-3.65551	0	
0.4287	6.79117	-2.4476	0	
0.4293	5.27399	-3.65551	0	
0.4300	2.84169	-3.65551	0	
0.4307	3.44375	-1.84365	0	
0.4313	3.44375	-1.84365	0	
0.4320	4.0458	-2.73369	0	
0.4327	3.75682	-2.4476	0	
0.4333	-1.758	-3.65551	0	
0.4340	-3.87723	-6.42098	0	
0.4347	1.6135	-5.78524	0	
0.4353	4.35887	-4.25947	0	
0.4360	2.52863	-3.97338	0	
0.4367	1.30044	-2.73369	0	
0.4373	1.92657	-0.921825	0	
0.4380	1.01145	-1.20791	0	
0.4387	-0.529807	-2.4476	0	
0.4393	-1.13186	-2.73369	0	
0.4400	1.6135	-1.84365	0	
0.4407	4.67194	0.317871	0	
0.4413	4.96092	2.73369	0	
0.4420	4.67194	2.4476	0	
0.4427	5.87605	0.317871	0	
0.4433	5.87605	1.52578	0	
0.4440	6.79117	3.97338	0	
0.4447	9.24755	0.921825	0	
0.4453	6.18911	-2.73369	0	
0.4460	0.698382	-0.603954	0	
0.4467	4.35887	2.12973	0	
0.4473	9.53653	0	0	
0.4480	4.67194	-0.317871	0	
0.4487	-0.529807	0.921825	0	
0.4493	0.0963286	-1.84365	0	
0.4500	-0.842875	-4.57734	0	
0.4507	-2.04698	-3.36943	0	
0.4513	-0.216739	-2.4476	0	
0.4520	0.0963286	-3.65551	0	
0.4527	-1.758	-3.05156	0	
0.4533	-2.67312	-1.84365	0	
0.4540	-3.27517	-3.05156	0	
0.4547	-4.19029	-3.36943	0	
0.4553	-4.79235	-0.921825	0	
0.4560	-7.24873	0.921825	0	
0.4567	-7.53771	-0.603954	0	
0.4573	-7.24873	-2.73369	0	
0.4580	-9.07897	-1.84365	0	
0.4587	-9.99409	2.12973	0	
0.4593	-9.99409	2.73369	0	
0.4600	-11.5113	-1.20791	0	
0.4607	-10.9092	-1.84365	0	
0.4613	-10.9092	1.20791	0	
0.4620	-13.9436	1.84365	0	
0.4627	-13.6546	-0.921825	0	
0.4633	-10.2831	-0.921825	0	
0.4640	-9.36796	1.84365	0	
0.4647	-9.07897	2.73369	0	
0.4653	-9.68103	-0.317871	0	
0.4660	-10.9092	-1.84365	0	
0.4667	-6.33361	0.921825	0	
0.4673	-1.13186	2.12973	0	
0.4680	-0.842875	-0.921825	0	
0.4687	1.6135	-1.84365	0	
0.4693	2.21556	-0.317871	0	
0.4700	-1.758	-1.84365	0	
0.4707	-2.04698	-2.73369	0	
0.4713	1.01145	-0.921825	0	
0.4720	1.01145	0.317871	0	
0.4727	1.6135	-0.603954	0	
0.4733	2.84169	-0.317871	0	
0.4740	1.92657	0.603954	0	
0.4747	1.92657	-0.603954	0	
0.4753	3.75682	-2.73369	0	
0.4760	4.0458	-1.84365	0	
0.4767	4.0458	-1.20791	0	
0.4773	3.44375	-2.73369	0	
0.4780	2.52863	-2.4476	0	
0.4787	4.67194	0.921825	0	
0.4793	6.50218	1.84365	0	
0.4800	3.75682	0.317871	0	
0.4807	2.84169	0.921825	0	
0.4813	4.96092	1.52578	0	
0.4820	4.67194	0.603954	0	
0.4827	3.75682	0.921825	0	
0.4833	3.13068	2.12973	0	
0.4840	2.21556	2.12973	0	
0.4847	1.92657	1.20791	0	
0.4853	3.44375	0.603954	0	
0.4860	2.21556	0.921825	0	
0.4867	-2.67312	1.52578	0	
0.4873	-3.58824	1.52578	0	
0.4880	0.698382	1.84365	0	
0.4887	4.67194	1.84365	0	
0.4893	4.96092	0.317871	0	
0.4900	4.96092	-1.84365	0	
0.4907	7.10424	-2.73369	0	
0.4913	10.4517	-2.73369	0	
0.4920	13.8232	-2.73369	0	
0.4927	14.1121	-1.84365	0	
0.4933	11.0778	-1.84365	0	
0.4940	8.33243	-3.65551	0	
0.4947	8.33243	-4.57734	0	
0.4953	7.4173	-1.20791	0	
0.4960	5.58706	1.52578	0	
0.4967	4.67194	0	0	
0.4973	2.84169	0	0	
0.4980	-2.04698	2.73369	0	
0.4987	-7.85078	1.20791	0	
0.4993	-11.8243	-0.921825	0	
0.5000	-14.2566	2.12973	0	
0.5007	-13.0284	4.57734	0	
0.5013	-9.07897	2.73369	0	
0.5020	-7.24873	2.12973	0	
0.5027	-11.5113	2.73369	0	
0.5033	-13.9436	2.12973	0	
0.5040	-9.68103	0.603954	0	
0.5047	-6.02054	-0.921825	0	
0.5053	-7.53771	0	0	
0.5060	-6.93566	3.97338	0	
0.5067	-3.58824	3.65551	0	
0.5073	-2.9621	-0.603954	0	
0.5080	-2.04698	0.317871	0	
0.5087	-0.529807	2.12973	0	
0.5093	-3.87723	-0.921825	0	
0.5100	-6.33361	-2.4476	0	
0.5107	-1.758	-0.317871	0	
0.5113	1.01145	-0.921825	0	
0.5120	-2.67312	-1.84365	0	
0.5127	-3.58824	-1.20791	0	
0.5133	-0.529807	-1.84365	0	
0.5140	0.0963286	-1.20791	0	
0.5147	0.385314	1.52578	0	
0.5153	2.84169	0.921825	0	
0.5160	2.84169	-1.52578	0	
0.5167	1.01145	-0.317871	0	
0.5173	1.6135	0	0	
0.5180	4.67194	-3.36943	0	
0.5187	6.50218	-3.36943	0	
0.5193	6.18911	0	0	
0.5200	4.67194	0.921825	0	
0.5207	2.84169	1.84365	0	
0.5213	1.6135	3.05156	0	
0.5220	-0.842875	1.52578	0	
0.5227	0.0963286	-0.603954	0	
0.5233	3.75682	1.20791	0	
0.5240	4.67194	2.73369	0	
0.5247	1.30044	0.921825	0	
0.5253	-0.842875	0	0	
0.5260	0.0963286	-0.317871	0	
0.5267	1.30044	-1.52578	0	
0.5273	0.385314	-1.20791	0	
0.5280	0.0963286	0.317871	0	
0.5287	1.30044	0.921825	0	
0.5293	0.385314	-0.921825	0	
0.5300	-2.67312	-2.73369	0	
0.5307	-3.58824	-1.84365	0	
0.5313	-3.58824	-0.603954	0	
0.5320	-4.50336	-2.4476	0	
0.5327	-3.58824	-4.25947	0	
0.5333	-4.19029	-3.65551	0	
0.5340	-6.33361	-3.65551	0	
0.5347	-5.41848	-2.73369	0	
0.5353	-5.10542	-0.921825	0	
0.5360	-9.07897	-0.921825	0	
0.5367	-10.2831	-0.317871	0	
0.5373	-5.70747	1.84365	0	
0.5380	-2.67312	0.921825	0	
0.5387	-1.758	-0.921825	0	
0.5393	-0.842875	1.84365	0	
0.5400	-2.36005	3.05156	0	
0.5407	-3.58824	0	0	
0.5413	-1.758	-0.921825	0	
0.5420	-0.842875	1.20791	0	
0.5427	-1.758	3.05156	0	
0.5433	-1.44493	1.84365	0	
0.5440	-2.36005	-1.20791	0	
0.5447	-4.50336	-0.317871	0	
0.5453	-2.36005	4.57734	0	
0.5460	1.30044	2.73369	0	
0.5467	1.01145	-2.73369	0	
0.5473	0.0963286	-1.52578	0	
0.5480	0.0963286	0.603954	0	
0.5487	-1.758	-2.12973	0	
0.5493	-3.27517	-0.317871	0	
0.5500	-1.44493	2.12973	0	
0.5507	1.01145	-0.921825	0	
0.5513	0.698382	-2.12973	0	
0.5520	-1.13186	-0.317871	0	
0.5527	-3.27517	-1.84365	0	
0.5533	-2.67312	-3.05156	0	
0.5540	1.01145	-2.12973	0	
0.5547	1.92657	-2.4476	0	
0.5553	0.0963286	-0.921825	0	
0.5560	-0.216739	0.921825	0	
0.5567	1.6135	-1.52578	0	
0.5573	2.84169	-3.36943	0	
0.5580	2.84169	-2.4476	0	
0.5587	2.84169	-1.84365	0	
0.5593	3.13068	-0.603954	0	
0.5600	3.75682	0.317871	0	
0.5607	3.75682	-0.603954	0	
0.5613	3.13068	-1.52578	0	
0.5620	4.96092	-1.84365	0	
0.5627	5.58706	-1.84365	0	
0.5633	2.84169	0	0	
0.5640	3.75682	2.73369	0	
0.5647	8.33243	0.317871	0	
0.5653	7.4173	-3.65551	0	
0.5660	4.67194	-3.05156	0	
0.5667	6.50218	-1.84365	0	
0.5673	7.4173	-3.05156	0	
0.5680	6.50218	-2.12973	0	
0.5687	8.33243	1.52578	0	
0.5693	8.01936	0.921825	0	
0.5700	6.18911	-2.73369	0	
0.5707	8.33243	-3.65551	0	
0.5713	8.33243	-3.65551	0	
0.5720	2.21556	-2.73369	0	
0.5727	-0.216739	-0.603954	0	
0.5733	2.21556	-0.921825	0	
0.5740	1.92657	-2.4476	0	
0.5747	0.385314	-0.921825	0	
0.5753	-1.13186	0	0	
0.5760	-2.9621	-0.921825	0	
0.5767	-3.58824	0.603954	0	
0.5773	-4.19029	0	0	
0.5780	-6.93566	-3.65551	0	
0.5787	-7.85078	-1.84365	0	
0.5793	-7.53771	0.921825	0	
0.5800	-8.16385	-0.921825	0	
0.5807	-6.33361	-0.921825	0	
0.5813	-4.50336	0.603954	0	
0.5820	-7.53771	-0.603954	0	
0.5827	-9.99409	0	0	
0.5833	-9.99409	4.57734	0	
0.5840	-10.9092	4.57734	0	
0.5847	-12.4264	2.73369	0	
0.5853	-11.8243	4.57734	0	
0.5860	-10.2831	4.57734	0	
0.5867	-8.16385	1.84365	0	
0.5873	-6.62259	3.05156	0	
0.5880	-5.10542	6.42098	0	
0.5887	-2.67312	4.89521	0	
0.5893	-2.04698	1.20791	0	
0.5900	-3.58824	0.921825	0	
0.5907	-4.50336	1.84365	0	
0.5913	-4.50336	1.20791	0	
0.5920	-3.87723	0.317871	0	
0.5927	-2.67312	0	0	
0.5933	-4.50336	0.317871	0	
0.5940	-6.33361	0	0	
0.5947	-4.79235	-1.84365	0	
0.5953	-5.41848	-2.4476	0	
0.5960	-7.24873	-0.921825	0	
0.5967	-2.9621	-1.20791	0	
0.5973	0.698382	-2.12973	0	
0.5980	-0.842875	-0.921825	0	
0.5987	0.698382	0.317871	0	
0.5993	4.35887	-0.921825	0	
0.6000	3.75682	-0.921825	0	
0.6007	2.52863	0.921825	0	
0.6013	3.75682	2.4476	0	
0.6020	3.75682	1.52578	0	
0.6027	3.75682	-0.603954	0	
0.6033	5.58706	-0.317871	0	
0.6040	5.87605	1.84365	0	
0.6047	5.58706	1.84365	0	
0.6053	5.58706	0.603954	0	
0.6060	4.67194	0	0	
0.6067	4.35887	-1.20791	0	
0.6073	5.27399	-3.65551	0	
0.6080	5.58706	-3.05156	0	
0.6087	4.67194	-0.317871	0	
0.6093	5.58706	-0.921825	0	
0.6100	6.18911	-2.12973	0	
0.6107	3.75682	0	0	
0.6113	1.01145	1.52578	0	
0.6120	0.0963286	0	0	
0.6127	0.385314	-1.20791	0	
0.6133	1.30044	-0.921825	0	
0.6140	3.44375	-1.84365	0	
0.6147	5.87605	-3.05156	0	
0.6153	8.33243	-1.84365	0	
0.6160	9.53653	-0.317871	0	
0.6167	8.01936	-0.921825	0	
0.6173	7.10424	-1.84365	0	
0.6180	7.4173	-1.20791	0	
0.6187	6.18911	0	0	
0.6193	5.27399	-0.603954	0	
0.6200	5.87605	-2.12973	0	
0.6207	3.13068	-1.84365	0	
0.6213	-1.44493	0	0	
0.6220	-0.529807	1.84365	0	
0.6227	3.13068	2.4476	0	
0.6233	2.84169	2.12973	0	
0.6240	1.01145	2.12973	0	
0.6247	0.0963286	2.4476	0	
0.6253	-0.842875	1.84365	0	
0.6260	-2.67312	0.921825	0	
0.6267	-3.27517	0.317871	0	
0.6273	-3.27517	0	0	
0.6280	-4.50336	-0.603954	0	
0.6287	-5.10542	-0.603954	0	
0.6293	-3.87723	-1.84365	0	
0.6300	-2.67312	-3.05156	0	
0.6307	-1.758	-1.84365	0	
0.6313	0.0963286	-1.84365	0	
0.6320	0.385314	-4.25947	0	
0.6327	1.01145	-4.57734	0	
0.6333	1.92657	-3.65551	0	
0.6340	1.92657	-3.97338	0	
0.6347	0.385314	-3.97338	0	
0.6353	-0.842875	-1.84365	0	
0.6360	-4.19029	-1.84365	0	
0.6367	-7.85078	-2.73369	0	
0.6373	-8.7659	-2.73369	0	
0.6380	-9.07897	-3.05156	0	
0.6387	-9.99409	-2.73369	0	
0.6393	-9.68103	-0.317871	0	
0.6400	-9.07897	-0.317871	0	
0.6407	-9.68103	-0.921825	0	
0.6413	-10.2831	1.84365	0	
0.6420	-9.68103	2.12973	0	
0.6427	-6.62259	0	0	
0.6433	-4.19029	1.52578	0	
0.6440	-5.10542	3.36943	0	
0.6447	-6.02054	0.921825	0	
0.6453	-3.58824	-0.317871	0	
0.6460	-2.9621	-0.921825	0	
0.6467	-2.67312	-2.4476	0	
0.6473	-0.842875	-1.84365	0	
0.6480	-0.842875	0.317871	0	
0.6487	-0.842875	0.921825	0	
0.6493	2.84169	0.317871	0	
0.6500	1.92657	-2.4476	0	
0.6507	-4.79235	-3.05156	0	
0.6513	-6.02054	0	0	
0.6520	-1.44493	0.921825	0	
0.6527	-0.216739	-2.4476	0	
0.6533	-0.529807	-1.84365	0	
0.6540	1.30044	0.921825	0	
0.6547	0.0963286	0	0	
0.6553	-1.13186	-1.20791	0	
0.6560	1.30044	-1.84365	0	
0.6567	2.84169	-1.52578	0	
0.6573	1.92657	0	0	
0.6580	2.84169	-0.317871	0	
0.6587	4.35887	-0.921825	0	
0.6593	3.75682	0	0	
0.6600	3.44375	-0.317871	0	
0.6607	2.21556	-0.317871	0	
0.6613	1.6135	1.84365	0	
0.6620	3.13068	0.603954	0	
0.6627	2.84169	-2.73369	0	
0.6633	1.01145	-0.921825	0	
0.6640	2.21556	1.20791	0	
0.6647	2.52863	-1.52578	0	
0.6653	1.30044	-2.73369	0	
0.6660	4.0458	-1.52578	0	
0.6667	6.79117	-1.52578	0	
0.6673	4.67194	-0.921825	0	
0.6680	2.84169	0.317871	0	
0.6687	4.35887	-0.603954	0	
0.6693	6.50218	-0.921825	0	
0.6700	10.1627	-0.921825	0	
0.6707	13.197	-1.84365	0	
0.6713	14.7383	-0.317871	0	
0.6720	15.6534	1.20791	0	
0.6727	12.908	0	0	
0.6733	8.93448	-1.52578	0	
0.6740	9.53653	-2.73369	0	
0.6747	9.8496	-3.65551	0	
0.6753	4.96092	-3.97338	0	
0.6760	0.698382	-3.36943	0	
0.6767	-2.9621	-3.65551	0	
0.6773	-8.16385	-3.36943	0	
0.6780	-10.2831	-0.921825	0	
0.6787	-8.45284	0.921825	0	
0.6793	-8.45284	0.921825	0	
0.6800	-8.16385	0	0	
0.6807	-6.33361	0	0	
0.6813	-4.50336	0.317871	0	
0.6820	-4.50336	1.84365	0	
0.6827	-4.79235	3.65551	0	
0.6833	-6.33361	1.84365	0	
0.6840	-9.36796	0	0	
0.6847	-12.7395	1.84365	0	
0.6853	-14.5697	2.73369	0	
0.6860	-15.1718	-0.317871	0	
0.6867	-14.5697	-2.73369	0	
0.6873	-11.8243	-0.921825	0	
0.6880	-8.16385	-0.603954	0	
0.6887	-7.24873	-1.20791	0	
0.6893	-8.45284	-0.317871	0	
0.6900	-7.24873	-1.20791	0	
0.6907	-4.50336	-3.65551	0	
0.6913	-5.41848	-2.73369	0	
0.6920	-6.33361	-1.84365	0	
0.6927	-5.10542	-4.57734	0	
0.6933	-5.10542	-4.89521	0	
0.6940	-5.10542	-2.73369	0	
0.6947	-1.44493	-2.12973	0	
0.6953	1.6135	-3.65551	0	
0.6960	1.30044	-3.05156	0	
0.6967	0.385314	-0.921825	0	
0.6973	1.6135	-1.52578	0	
0.6980	3.44375	-3.65551	0	
0.6987	3.75682	-2.73369	0	
0.6993	2.52863	0.921825	0	
0.7000	1.92657	2.12973	0	
0.7007	2.84169	0.603954	0	
0.7013	3.13068	1.20791	0	
0.7020	3.44375	2.73369	0	
0.7027	2.52863	2.12973	0	
0.7033	0.0963286	1.84365	0	
0.7040	0.698382	0.921825	0	
0.7047	2.52863	-1.84365	0	
0.7053	1.6135	-1.20791	0	
0.7060	2.21556	1.52578	0	
0.7067	5.58706	2.73369	0	
0.7073	5.87605	3.65551	0	
0.7080	3.75682	2.73369	0	
0.7087	2.84169	-0.921825	0	
0.7093	1.01145	-1.20791	0	
0.7100	1.01145	0	0	
0.7107	2.84169	-2.73369	0	
0.7113	1.30044	-5.18129	0	
0.7120	-3.27517	-2.73369	0	
0.7127	-4.19029	-2.12973	0	
0.7133	-2.36005	-3.36943	0	
0.7140	-2.67312	-2.73369	0	
0.7147	-4.19029	-2.4476	0	
0.7153	-3.87723	-2.12973	0	
0.7160	-2.04698	-0.317871	0	
0.7167	-0.529807	-0.317871	0	
0.7173	0.0963286	-1.84365	0	
0.7180	1.01145	-0.921825	0	
0.7187	1.30044	0.603954	0	
0.7193	2.21556	0.317871	0	
0.7200	5.87605	0	0	
0.7207	9.8496	-0.603954	0	
0.7213	10.4517	-2.4476	0	
0.7220	12.2819	-3.65551	0	
0.7227	16.5685	-2.73369	0	
0.7233	18.3988	-0.317871	0	
0.7240	17.1706	0.921825	0	
0.7247	15.0273	0	0	
0.7253	14.4252	0	0	
0.7260	14.7383	0.603954	0	
0.7267	12.595	0	0	
0.7273	7.4173	0	0	
0.7280	1.01145	1.20791	0	
0.7287	-6.62259	0.603954	0	
0.7293	-12.7395	-2.73369	0	
0.7300	-14.2566	-4.25947	0	
0.7307	-14.5697	-2.73369	0	
0.7313	-17.3151	-1.52578	0	
0.7320	-17.3151	-2.73369	0	
0.7327	-14.5697	-2.73369	0	
0.7333	-13.9436	-0.921825	0	
0.7340	-12.7395	-2.4476	0	
0.7347	-9.99409	-4.25947	0	
0.7353	-10.2831	-0.921825	0	
0.7360	-10.9092	2.73369	0	
0.7367	-11.1982	1.84365	0	
0.7373	-13.9436	0	0	
0.7380	-13.9436	0	0	
0.7387	-8.7659	0.921825	0	
0.7393	-5.70747	0	0	
0.7400	-6.33361	-0.317871	0	
0.7407	-3.58824	1.20791	0	
0.7413	0.385314	3.65551	0	
0.7420	1.01145	3.97338	0	
0.7427	-0.216739	3.65551	0	
0.7433	-0.842875	3.65551	0	
0.7440	1.01145	2.73369	0	
0.7447	2.84169	2.73369	0	
0.7453	-0.529807	2.73369	0	
0.7460	-5.70747	1.84365	0	
0.7467	-4.19029	0.921825	0	
0.7473	0.698382	0	0	
0.7480	1.30044	-2.73369	0	
0.7487	0.0963286	-3.36943	0	
0.7493	1.92657	-0.921825	0	
0.7500	4.35887	-0.921825	0	
0.7507	4.67194	-1.84365	0	
0.7513	3.75682	-1.84365	0	
0.7520	4.0458	-2.12973	0	
0.7527	3.75682	-2.73369	0	
0.7533	2.84169	-2.73369	0	
0.7540	1.92657	-3.65551	0	
0.7547	1.92657	-3.05156	0	
0.7553	2.21556	-1.52578	0	
0.7560	4.0458	-1.84365	0	
0.7567	3.75682	-2.4476	0	
0.7573	2.52863	-1.84365	0	
0.7580	5.27399	-2.4476	0	
0.7587	7.4173	-2.12973	0	
0.7593	4.67194	0.317871	0	
0.7600	3.44375	1.20791	0	
0.7607	4.67194	1.20791	0	
0.7613	1.92657	2.73369	0	
0.7620	1.30044	2.73369	0	
0.7627	3.44375	1.52578	0	
0.7633	2.84169	1.52578	0	
0.7640	1.6135	0.603954	0	
0.7647	2.84169	-0.921825	0	
0.7653	2.21556	0.921825	0	
0.7660	2.84169	3.97338	0	
0.7667	4.96092	2.12973	0	
0.7673	2.84169	0.921825	0	
0.7680	0.0963286	2.73369	0	
0.7687	2.52863	1.84365	0	
0.7693	2.84169	-1.20791	0	
0.7700	-1.758	-0.921825	0	
0.7707	-2.67312	2.73369	0	
0.7713	0.385314	2.73369	0	
0.7720	2.21556	-1.84365	0	
0.7727	4.35887	-6.42098	0	
0.7733	3.75682	-5.18129	0	
0.7740	1.01145	-0.603954	0	
0.7747	2.84169	-0.921825	0	
0.7753	6.50218	-3.65551	0	
0.7760	8.01936	-2.4476	0	
0.7767	12.2819	-0.317871	0	
0.7773	18.0857	-0.603954	0	
0.7780	18.3988	-0.317871	0	
0.7787	18.0857	0	0	
0.7793	21.1441	-0.603954	0	
0.7800	20.5421	0.603954	0	
0.7807	16.5685	2.4476	0	
0.7813	15.3403	0.921825	0	
0.7820	14.7383	-0.317871	0	
0.7827	9.53653	2.4476	0	
0.7833	3.13068	4.57734	0	
0.7840	-4.19029	2.73369	0	
0.7847	-10.9092	1.84365	0	
0.7853	-15.4848	2.12973	0	
0.7860	-20.0604	0.921825	0	
0.7867	-24.636	0.603954	0	
0.7873	-25.8642	1.20791	0	
0.7880	-23.1189	-1.52578	0	
0.7887	-20.0604	-2.4476	0	
0.7893	-16.3999	0.921825	0	
0.7900	-13.6546	1.20791	0	
0.7907	-11.8243	-0.921825	0	
0.7913	-11.8243	0	0	
0.7920	-11.5113	0.603954	0	
0.7927	-9.68103	-0.921825	0	
0.7933	-6.02054	-0.603954	0	
0.7940	-2.67312	-0.921825	0	
0.7947	-0.842875	-1.84365	0	
0.7953	-0.529807	-1.20791	0	
0.7960	-1.758	-2.73369	0	
0.7967	-4.19029	-3.05156	0	
0.7973	-5.41848	-0.317871	0	
0.7980	-6.62259	-0.603954	0	
0.7987	-8.45284	-2.73369	0	
0.7993	-10.9092	-0.921825	0	
0.8000	-13.0284	1.84365	0	
0.8007	-12.1133	0.921825	0	
0.8013	-9.07897	1.52578	0	
0.8020	-7.85078	2.73369	0	
0.8027	-6.33361	1.84365	0	
0.8033	-4.19029	2.73369	0	
0.8040	-5.41848	4.25947	0	
0.8047	-4.79235	2.12973	0	
0.8053	0.385314	0.317871	0	
0.8060	3.44375	1.84365	0	
0.8067	2.84169	1.52578	0	
0.8073	3.75682	-0.921825	0	
0.8080	4.67194	0	0	
0.8087	2.84169	0.603954	0	
0.8093	1.92657	-2.73369	0	
0.8100	4.35887	-2.73369	0	
0.8107	8.33243	0.317871	0	
0.8113	10.7647	-1.52578	0	
0.8120	10.1627	-3.65551	0	
0.8127	10.1627	-0.921825	0	
0.8133	9.24755	-0.603954	0	
0.8140	6.18911	-2.73369	0	
0.8147	4.35887	-0.603954	0	
0.8153	4.35887	1.52578	0	
0.8160	3.75682	-1.84365	0	
0.8167	2.52863	-3.65551	0	
0.8173	1.6135	-1.20791	0	
0.8180	0.0963286	-0.921825	0	
0.8187	-0.842875	-3.65551	0	
0.8193	-1.13186	-3.97338	0	
0.8200	-2.04698	-1.84365	0	
0.8207	-2.04698	0.921825	0	
0.8213	-2.36005	2.73369	0	
0.8220	-2.67312	2.73369	0	
0.8227	0.0963286	2.12973	0	
0.8233	3.44375	1.84365	0	
0.8240	4.67194	1.84365	0	
0.8247	4.0458	1.52578	0	
0.8253	3.75682	1.52578	0	
0.8260	5.58706	1.52578	0	
0.8267	7.10424	1.52578	0	
0.8273	5.58706	2.12973	0	
0.8280	2.84169	3.05156	0	
0.8287	-0.529807	1.84365	0	
0.8293	-2.67312	-0.603954	0	
0.8300	-3.27517	-1.84365	0	
0.8307	-2.36005	-1.84365	0	
0.8313	-2.9621	-1.84365	0	
0.8320	-4.19029	-3.65551	0	
0.8327	-3.58824	-5.49916	0	
0.8333	-3.27517	-3.65551	0	
0.8340	-2.04698	-1.84365	0	
0.8347	0.385314	-3.05156	0	
0.8353	1.01145	-3.65551	0	
0.8360	-0.842875	-3.65551	0	
0.8367	-0.842875	-4.57734	0	
0.8373	-0.842875	-3.65551	0	
0.8380	-2.67312	-1.20791	0	
0.8387	-3.58824	-0.317871	0	
0.8393	-2.04698	0.317871	0	
0.8400	-1.758	1.84365	0	
0.8407	-2.67312	1.84365	0	
0.8413	-2.36005	0.921825	0	
0.8420	-3.58824	-0.921825	0	
0.8427	-3.58824	-0.603954	0	
0.8433	-0.529807	0.921825	0	
0.8440	2.21556	0.921825	0	
0.8447	1.6135	0.921825	0	
0.8453	1.92657	3.05156	0	
0.8460	2.52863	3.65551	0	
0.8467	1.01145	1.84365	0	
0.8473	0.698382	1.84365	0	
0.8480	1.92657	-0.603954	0	
0.8487	1.30044	-1.84365	0	
0.8493	-0.529807	0	0	
0.8500	-1.758	-0.317871	0	
0.8507	-3.58824	-1.84365	0	
0.8513	-4.79235	0.317871	0	
0.8520	-4.50336	0	0	
0.8527	-5.70747	-2.73369	0	
0.8533	-7.24873	-0.921825	0	
0.8540	-6.62259	1.20791	0	
0.8547	-3.58824	-1.52578	0	
0.8553	-0.842875	-3.05156	0	
0.8560	0.698382	-3.05156	0	
0.8567	2.21556	-4.25947	0	
0.8573	3.44375	-2.73369	0	
0.8580	2.84169	-0.317871	0	
0.8587	1.92657	-0.921825	0	
0.8593	2.84169	0	0	
0.8600	3.75682	2.73369	0	
0.8607	5.58706	3.36943	0	
0.8613	6.79117	3.05156	0	
0.8620	4.67194	3.65551	0	
0.8627	3.13068	1.84365	0	
0.8633	4.35887	-0.921825	0	
0.8640	2.84169	-0.603954	0	
0.8647	0.698382	0.921825	0	
0.8653	2.84169	0.317871	0	
0.8660	4.35887	-0.921825	0	
0.8667	1.30044	-2.73369	0	
0.8673	-2.04698	-3.36943	0	
0.8680	-5.70747	-2.4476	0	
0.8687	-7.24873	-2.73369	0	
0.8693	-4.50336	-3.97338	0	
0.8700	-3.27517	-3.65551	0	
0.8707	-4.50336	-4.25947	0	
0.8713	-2.67312	-4.57734	0	
0.8720	-0.842875	-3.65551	0	
0.8727	-0.529807	-2.4476	0	
0.8733	0.0963286	-3.65551	0	
0.8740	-0.216739	-4.89521	0	
0.8747	0.0963286	-5.78524	0	
0.8753	3.13068	-3.65551	0	
0.8760	4.67194	-0.603954	0	
0.8767	3.44375	-3.05156	0	
0.8773	2.21556	-6.10311	0	
0.8780	0.385314	-3.65551	0	
0.8787	-1.13186	-0.921825	0	
0.8793	-1.13186	-0.921825	0	
0.8800	-3.87723	-1.20791	0	
0.8807	-6.62259	-2.73369	0	
0.8813	-4.19029	-2.73369	0	
0.8820	-3.27517	0.603954	0	
0.8827	-6.33361	1.84365	0	
0.8833	-4.50336	0.921825	0	
0.8840	-1.44493	1.20791	0	
0.8847	-3.58824	1.52578	0	
0.8853	-5.41848	0	0	
0.8860	-3.58824	-0.603954	0	
0.8867	-2.67312	0.603954	0	
0.8873	-1.758	1.84365	0	
0.8880	-0.529807	2.73369	0	
0.8887	-1.13186	2.4476	0	
0.8893	0.698382	1.20791	0	
0.8900	5.27399	0.603954	0	
0.8907	5.87605	-0.603954	0	
0.8913	3.75682	-2.12973	0	
0.8920	4.67194	-2.12973	0	
0.8927	5.27399	-1.52578	0	
0.8933	3.75682	-1.84365	0	
0.8940	3.44375	-1.52578	0	
0.8947	4.35887	1.20791	0	
0.8953	3.44375	1.84365	0	
0.8960	2.52863	-0.603954	0	
0.8967	1.01145	-2.4476	0	
0.8973	-1.13186	-0.921825	0	
0.8980	-2.04698	0.603954	0	
0.8987	-1.44493	-0.317871	0	
0.8993	-0.842875	-1.20791	0	
0.9000	0.698382	0.317871	0	
0.9007	1.6135	0.921825	0	
0.9013	0.0963286	-0.603954	0	
0.9020	-0.842875	0.603954	0	
0.9027	0.385314	1.84365	0	
0.9033	-0.216739	0.317871	0	
0.9040	-1.44493	0.317871	0	
0.9047	-0.529807	0.921825	0	
0.9053	-0.842875	-0.921825	0	
0.9060	-2.04698	1.20791	0	
0.9067	-2.04698	5.18129	0	
0.9073	-0.529807	2.73369	0	
0.9080	0.698382	-1.20791	0	
0.9087	0.0963286	-0.317871	0	
0.9093	0.698382	1.20791	0	
0.9100	4.0458	0.603954	0	
0.9107	6.50218	0.921825	0	
0.9113	6.18911	0.317871	0	
0.9120	5.87605	-1.84365	0	
0.9127	4.67194	-2.73369	0	
0.9133	2.84169	-2.4476	0	
0.9140	3.75682	-3.05156	0	
0.9147	1.92657	-3.65551	0	
0.9153	-3.27517	-3.65551	0	
0.9160	-2.9621	-3.36943	0	
0.9167	0.0963286	-3.65551	0	
0.9173	-2.67312	-3.65551	0	
0.9180	-3.87723	-3.65551	0	
0.9187	0.0963286	-3.65551	0	
0.9193	1.01145	-1.52578	0	
0.9200	-2.36005	-0.317871	0	
0.9207	-6.93566	-0.921825	0	
0.9213	-10.5961	1.84365	0	
0.9220	-9.68103	3.65551	0	
0.9227	-6.02054	0.603954	0	
0.9233	-3.87723	-1.84365	0	
0.9240	-0.842875	1.84365	0	
0.9247	1.92657	4.25947	0	
0.9253	0.698382	1.84365	0	
0.9260	-1.13186	1.20791	0	
0.9267	1.01145	1.84365	0	
0.9273	1.92657	0	0	
0.9280	0.698382	-1.84365	0	
0.9287	0.0963286	-1.84365	0	
0.9293	1.6135	-3.36943	0	
0.9300	2.84169	-3.36943	0	
0.9307	2.84169	-0.921825	0	
0.9313	3.13068	-0.921825	0	
0.9320	3.13068	-2.12973	0	
0.9327	0.698382	-0.921825	0	
0.9333	-2.36005	-1.20791	0	
0.9340	-3.27517	-2.12973	0	
0.9347	-2.9621	-0.317871	0	
0.9353	-3.58824	0.603954	0	
0.9360	-6.02054	-0.921825	0	
0.9367	-8.16385	-0.921825	0	
0.9373	-8.16385	-0.921825	0	
0.9380	-6.62259	-1.52578	0	
0.9387	-6.33361	1.52578	0	
0.9393	-6.02054	3.97338	0	
0.9400	-4.19029	1.84365	0	
0.9407	-1.44493	0.921825	0	
0.9413	1.01145	2.73369	0	
0.9420	2.84169	3.36943	0	
0.9427	5.27399	3.65551	0	
0.9433	7.4173	4.57734	0	
0.9440	5.58706	3.65551	0	
0.9447	2.21556	3.05156	0	
0.9453	1.30044	4.89521	0	
0.9460	1.92657	4.57734	0	
0.9467	-0.842875	1.52578	0	
0.9473	-6.33361	1.84365	0	
0.9480	-8.45284	2.12973	0	
0.9487	-8.16385	-0.921825	0	
0.9493	-6.62259	-2.73369	0	
0.9500	-3.27517	-1.84365	0	
0.9507	-1.758	-2.12973	0	
0.9513	-3.58824	-2.12973	0	
0.9520	-3.27517	0	0	
0.9527	-1.758	0	0	
0.9533	-2.67312	-1.52578	0	
0.9540	-1.44493	-2.12973	0	
0.9547	1.92657	-2.73369	0	
0.9553	1.92657	-2.73369	0	
0.9560	1.92657	-2.4476	0	
0.9567	4.0458	-3.36943	0	
0.9573	5.58706	-2.73369	0	
0.9580	6.50218	-0.921825	0	
0.9587	5.87605	-1.84365	0	
0.9593	4.67194	-3.65551	0	
0.9600	6.18911	-2.4476	0	
0.9607	9.24755	0.603954	0	
0.9613	7.10424	2.4476	0	
0.9620	4.0458	1.84365	0	
0.9627	3.13068	0.921825	0	
0.9633	1.92657	1.20791	0	
0.9640	2.84169	-0.603954	0	
0.9647	5.58706	-2.4476	0	
0.9653	1.92657	1.84365	0	
0.9660	-7.24873	4.57734	0	
0.9667	-12.1133	0.921825	0	
0.9673	-12.1133	-1.20791	0	
0.9680	-10.2831	0.603954	0	
0.9687	-8.16385	0.317871	0	
0.9693	-7.53771	-2.12973	0	
0.9700	-6.93566	-3.65551	0	
0.9707	-4.50336	-4.25947	0	
0.9713	-1.758	-3.36943	0	
0.9720	-0.216739	-1.20791	0	
0.9727	1.01145	-1.84365	0	
0.9733	1.30044	-3.05156	0	
0.9740	0.385314	-2.73369	0	
0.9747	0.0963286	-2.12973	0	
0.9753	1.92657	-1.20791	0	
0.9760	3.75682	-1.20791	0	
0.9767	2.21556	-4.57734	0	
0.9773	1.01145	-6.42098	0	
0.9780	2.84169	-3.65551	0	
0.9787	2.21556	-2.12973	0	
0.9793	1.30044	-3.05156	0	
0.9800	5.58706	-1.84365	0	
0.9807	7.4173	0.603954	0	
0.9813	3.13068	1.20791	0	
0.9820	1.92657	1.52578	0	
0.9827	2.21556	2.4476	0	
0.9833	-0.842875	2.12973	0	
0.9840	-0.842875	1.20791	0	
0.9847	2.52863	-0.317871	0	
0.9853	4.67194	-1.84365	0	
0.9860	7.4173	-1.52578	0	
0.9867	9.53653	-0.921825	0	
0.9873	8.33243	0.317871	0	
0.9880	7.4173	2.12973	0	
0.9887	9.8496	0.921825	0	
0.9893	10.4517	-2.12973	0	
0.9900	9.53653	-2.12973	0	
0.9907	8.01936	-0.317871	0	
0.9913	3.75682	-0.921825	0	
0.9920	0.385314	-2.4476	0	
0.9927	-2.04698	-3.05156	0	
0.9933	-8.16385	-3.36943	0	
0.9940	-12.7395	-3.65551	0	
0.9947	-13.0284	-3.36943	0	
0.9953	-13.3415	-2.12973	0	
0.9960	-12.1133	-0.921825	0	
0.9967	-8.45284	0	0	
0.9973	-7.24873	0	0	
0.9980	-6.62259	-1.20791	0	
0.9987	-3.87723	-2.73369	0	
0.9993	-4.19029	-1.84365	0	
1.0000	-5.41848	-0.317871	0	
1.0007	-0.842875	-1.84365	0	
1.0013	3.75682	-3.65551	0	
1.0020	2.52863	-1.52578	0	
1.0027	1.92657	1.84365	0	
1.0033	2.84169	1.84365	0	
1.0040	1.6135	0	0	
1.0047	0.0963286	0	0	
1.0053	0.0963286	1.52578	0	
1.0060	0.0963286	2.73369	0	
1.0067	-1.758	3.65551	0	
1.0073	-5.41848	3.05156	0	
1.0080	-9.07897	0.317871	0	
1.0087	-9.36796	0.921825	0	
1.0093	-6.93566	1.84365	0	
1.0100	-6.62259	-0.921825	0	
1.0107	-9.07897	-1.20791	0	
1.0113	-6.93566	1.52578	0	
1.0120	-1.758	0.603954	0	
1.0127	-2.67312	-1.84365	0	
1.0133	-4.50336	-0.921825	0	
1.0140	0.385314	-0.921825	0	
1.0147	2.84169	-2.73369	0	
1.0153	0.0963286	-2.73369	0	
1.0160	-1.758	-2.73369	0	
1.0167	-1.758	-3.65551	0	
1.0173	-2.36005	-3.36943	0	
1.0180	-0.842875	-1.84365	0	
1.0187	-1.758	-0.603954	0	
1.0193	-3.58824	0	0	
1.0200	-0.842875	-0.921825	0	
1.0207	1.01145	0	0	
1.0213	-1.758	2.12973	0	
1.0220	-0.216739	2.4476	0	
1.0227	4.35887	1.84365	0	
1.0233	4.0458	1.84365	0	
1.0240	3.75682	-0.317871	0	
1.0247	7.10424	-1.84365	0	
1.0253	7.4173	0.603954	0	
1.0260	4.67194	0.921825	0	
1.0267	4.35887	-2.4476	0	
1.0273	5.58706	-2.73369	0	
1.0280	5.58706	-1.84365	0	
1.0287	4.67194	-2.73369	0	
1.0293	2.52863	-2.4476	0	
1.0300	1.01145	-1.52578	0	
1.0307	1.01145	-3.05156	0	
1.0313	-0.842875	-1.52578	0	
1.0320	-3.58824	0.921825	0	
1.0327	-5.41848	-0.921825	0	
1.0333	-6.33361	-2.73369	0	
1.0340	-4.50336	-2.12973	0	
1.0347	0.385314	-2.73369	0	
1.0353	1.92657	-2.73369	0	
1.0360	-1.44493	0	0	
1.0367	-2.36005	1.20791	0	
1.0373	0.0963286	1.20791	0	
1.0380	0.385314	1.20791	0	
1.0387	-0.529807	0	0	
1.0393	0.0963286	0.603954	0	
1.0400	-0.529807	1.52578	0	
1.0407	-2.9621	0.317871	0	
1.0413	-2.9621	0.921825	0	
1.0420	0.0963286	3.97338	0	
1.0427	0.0963286	2.4476	0	
1.0433	-2.04698	0.921825	0	
1.0440	-1.758	4.57734	0	
1.0447	0.0963286	3.65551	0	
1.0453	0.385314	-1.84365	0	
1.0460	1.01145	-2.73369	0	
1.0467	3.44375	-0.317871	0	
1.0473	5.58706	-1.84365	0	
1.0480	4.35887	-1.84365	0	
1.0487	2.52863	-0.603954	0	
1.0493	2.84169	-1.84365	0	
1.0500	4.0458	-2.73369	0	
1.0507	4.67194	0.921825	0	
1.0513	7.4173	2.12973	0	
1.0520	8.33243	-1.52578	0	
1.0527	4.35887	-3.65551	0	
1.0533	1.30044	-1.52578	0	
1.0540	1.01145	0	0	
1.0547	-0.216739	-2.4476	0	
1.0553	-0.842875	-2.73369	0	
1.0560	-0.216739	-0.603954	0	
1.0567	-1.44493	-1.84365	0	
1.0573	-2.36005	-3.65551	0	
1.0580	-0.842875	-1.52578	0	
1.0587	-2.04698	0	0	
1.0593	-6.93566	-0.921825	0	
1.0600	-7.24873	0.317871	0	
1.0607	-3.58824	0.921825	0	
1.0613	-2.67312	-0.921825	0	
1.0620	-3.58824	-0.921825	0	
1.0627	-2.04698	0.921825	0	
1.0633	-0.842875	0.603954	0	
1.0640	-2.36005	-1.52578	0	
1.0647	-1.758	-2.12973	0	
1.0653	1.6135	-0.603954	0	
1.0660	2.21556	0.603954	0	
1.0667	1.92657	0	0	
1.0673	4.0458	-0.921825	0	
1.0680	3.44375	-1.20791	0	
1.0687	-2.04698	-1.52578	0	
1.0693	-4.79235	-0.921825	0	
1.0700	-3.58824	-0.317871	0	
1.0707	-3.27517	-1.20791	0	
1.0713	-3.58824	-1.84365	0	
1.0720	-3.58824	-2.12973	0	
1.0727	-6.33361	-3.65551	0	
1.0733	-8.16385	-3.65551	0	
1.0740	-6.93566	-3.05156	0	
1.0747	-6.93566	-1.84365	0	
1.0753	-6.33361	-1.84365	0	
1.0760	-1.758	-1.84365	0	
1.0767	-0.842875	-0.921825	0	
1.0773	-2.67312	0	0	
1.0780	0.0963286	-0.921825	0	
1.0787	3.44375	-0.921825	0	
1.0793	1.6135	1.52578	0	
1.0800	-0.842875	1.20791	0	
1.0807	1.30044	0	0	
1.0813	2.84169	1.84365	0	
1.0820	0.698382	2.4476	0	
1.0827	0.0963286	0.603954	0	
1.0833	1.30044	0.921825	0	
1.0840	1.6135	1.84365	0	
1.0847	1.01145	1.52578	0	
1.0853	2.21556	3.05156	0	
1.0860	2.21556	2.73369	0	
1.0867	-0.529807	-0.603954	0	
1.0873	-3.27517	0.921825	0	
1.0880	-2.67312	4.89521	0	
1.0887	0.0963286	1.52578	0	
1.0893	0.0963286	-3.65551	0	
1.0900	-1.758	-2.4476	0	
1.0907	-2.04698	0	0	
1.0913	-1.758	-2.73369	0	
1.0920	-2.04698	-2.73369	0	
1.0927	-0.842875	-0.317871	0	
1.0933	0.0963286	-1.20791	0	
1.0940	1.30044	-2.73369	0	
1.0947	3.44375	-2.4476	0	
1.0953	3.75682	-3.65551	0	
1.0960	1.6135	-5.49916	0	
1.0967	1.01145	-4.57734	0	
1.0973	2.84169	-3.36943	0	
1.0980	3.75682	-1.52578	0	
1.0987	3.75682	0.921825	0	
1.0993	2.52863	0.317871	0	
1.1000	0.698382	-1.84365	0	
1.1007	1.01145	-0.921825	0	
1.1013	1.92657	1.20791	0	
1.1020	-0.216739	0.921825	0	
1.1027	-1.758	0.317871	0	
1.1033	0.385314	2.12973	0	
1.1040	1.92657	3.36943	0	
1.1047	0.698382	2.73369	0	
1.1053	-1.13186	3.36943	0	
1.1060	-2.04698	3.65551	0	
1.1067	-3.27517	1.84365	0	
1.1073	-5.41848	3.36943	0	
1.1080	-5.41848	5.18129	0	
1.1087	-2.9621	0.921825	0	
1.1093	-1.758	-2.12973	0	
1.1100	-1.758	0.603954	0	
1.1107	1.30044	0.317871	0	
1.1113	4.67194	-3.05156	0	
1.1120	6.50218	-3.05156	0	
1.1127	8.62141	-2.73369	0	
1.1133	7.10424	-4.57734	0	
1.1140	3.44375	-3.97338	0	
1.1147	5.58706	-0.921825	0	
1.1153	8.93448	1.20791	0	
1.1160	5.27399	1.52578	0	
1.1167	2.21556	0	0	
1.1173	1.30044	-1.84365	0	
1.1180	-2.67312	-0.921825	0	
1.1187	-3.87723	0.921825	0	
1.1193	0.0963286	0	0	
1.1200	0.385314	-0.317871	0	
1.1207	-3.58824	1.52578	0	
1.1213	-5.70747	2.12973	0	
1.1220	-6.33361	1.52578	0	
1.1227	-6.62259	2.73369	0	
1.1233	-4.79235	2.73369	0	
1.1240	-3.58824	0.921825	0	
1.1247	-4.50336	0.921825	0	
1.1253	-3.27517	2.4476	0	
1.1260	0.698382	2.73369	0	
1.1267	1.6135	2.4476	0	
1.1273	-0.216739	1.52578	0	
1.1280	-0.842875	-1.20791	0	
1.1287	-1.758	-2.73369	0	
1.1293	-2.67312	-2.12973	0	
1.1300	-0.842875	-1.84365	0	
1.1307	-0.216739	-1.84365	0	
1.1313	-1.13186	-1.20791	0	
1.1320	1.30044	-0.921825	0	
1.1327	3.75682	-0.317871	0	
1.1333	2.52863	-0.317871	0	
1.1340	0.0963286	-0.921825	0	
1.1347	-2.36005	-1.52578	0	
1.1353	-4.50336	-1.84365	0	
1.1360	-3.87723	-1.20791	0	
1.1367	-2.36005	1.52578	0	
1.1373	-1.758	2.73369	0	
1.1380	0.0963286	1.52578	0	
1.1387	2.84169	1.20791	0	
1.1393	2.21556	2.73369	0	
1.1400	1.01145	4.57734	0	
1.1407	-0.842875	5.78524	0	
1.1413	-4.50336	3.97338	0	
1.1420	-8.16385	1.52578	0	
1.1427	-10.2831	2.73369	0	
1.1433	-11.5113	5.49916	0	
1.1440	-9.68103	6.42098	0	
1.1447	-7.53771	5.18129	0	
1.1453	-6.93566	2.73369	0	
1.1460	-6.93566	1.52578	0	
1.1467	-7.24873	2.12973	0	
1.1473	-5.41848	2.12973	0	
1.1480	0.385314	1.84365	0	
1.1487	3.44375	2.73369	0	
1.1493	2.21556	2.12973	0	
1.1500	2.84169	1.52578	0	
1.1507	6.50218	0.921825	0	
1.1513	7.4173	0.603954	0	
1.1520	5.58706	0.921825	0	
1.1527	3.75682	0.603954	0	
1.1533	2.84169	-3.65551	0	
1.1540	2.21556	-5.49916	0	
1.1547	0.698382	-1.84365	0	
1.1553	-1.758	-0.921825	0	
1.1560	-4.50336	-3.05156	0	
1.1567	-6.02054	-1.84365	0	
1.1573	-2.67312	-1.84365	0	
1.1580	0.698382	-5.49916	0	
1.1587	1.01145	-5.18129	0	
1.1593	2.21556	-0.921825	0	
1.1600	4.67194	-0.921825	0	
1.1607	3.75682	-2.12973	0	
1.1613	2.84169	0.317871	0	
1.1620	5.58706	0.921825	0	
1.1627	7.70629	-0.317871	0	
1.1633	6.79117	2.12973	0	
1.1640	5.58706	3.65551	0	
1.1647	3.75682	1.52578	0	
1.1653	1.92657	1.52578	0	
1.1660	1.92657	2.73369	0	
1.1667	1.01145	0.317871	0	
1.1673	-1.758	-2.73369	0	
1.1680	-3.58824	-2.4476	0	
1.1687	-2.9621	-2.12973	0	
1.1693	-0.529807	-2.4476	0	
1.1700	0.0963286	-1.84365	0	
1.1707	-1.758	-1.52578	0	
1.1713	-1.758	-1.84365	0	
1.1720	2.21556	-3.65551	0	
1.1727	4.67194	-4.57734	0	
1.1733	5.58706	-4.57734	0	
1.1740	4.35887	-4.57734	0	
1.1747	2.21556	-3.65551	0	
1.1753	2.84169	-1.52578	0	
1.1760	3.75682	-0.921825	0	
1.1767	-0.842875	-3.05156	0	
1.1773	-4.79235	-2.73369	0	
1.1780	-2.9621	-1.84365	0	
1.1787	-2.9621	-3.36943	0	
1.1793	-6.02054	-2.73369	0	
1.1800	-6.02054	0.317871	0	
1.1807	-5.70747	1.52578	0	
1.1813	-6.33361	0.921825	0	
1.1820	-4.19029	1.84365	0	
1.1827	-2.67312	2.12973	0	
1.1833	-2.67312	1.84365	0	
1.1840	0.0963286	2.4476	0	
1.1847	1.6135	1.20791	0	
1.1853	1.01145	0	0	
1.1860	2.84169	0.603954	0	
1.1867	2.84169	0.603954	0	
1.1873	0.385314	-0.317871	0	
1.1880	0.698382	-1.52578	0	
1.1887	1.30044	-3.36943	0	
1.1893	-1.44493	-2.73369	0	
1.1900	-2.04698	0	0	
1.1907	-0.842875	-0.603954	0	
1.1913	-1.758	-3.05156	0	
1.1920	-2.67312	-2.73369	0	
1.1927	-0.529807	-1.84365	0	
1.1933	1.30044	-2.73369	0	
1.1940	1.01145	-3.65551	0	
1.1947	-0.529807	-2.73369	0	
1.1953	-2.04698	-1.52578	0	
1.1960	-3.58824	-1.84365	0	
1.1967	-3.27517	-1.84365	0	
1.1973	-1.13186	-1.84365	0	
1.1980	-2.04698	-2.12973	0	
1.1987	-4.79235	-2.12973	0	
1.1993	-3.27517	0	0	
1.2000	-1.13186	2.4476	0	
1.2007	-2.9621	2.73369	0	
1.2013	-3.58824	1.84365	0	
1.2020	-2.04698	0.921825	0	
1.2027	-3.27517	0.921825	0	
1.2033	-3.58824	1.84365	0	
1.2040	1.6135	2.4476	0	
1.2047	4.35887	1.84365	0	
1.2053	1.92657	-0.603954	0	
1.2060	2.84169	0	0	
1.2067	7.10424	3.97338	0	
1.2073	6.18911	5.49916	0	
1.2080	3.75682	0.921825	0	
1.2087	3.75682	-2.73369	0	
1.2093	1.6135	-1.52578	0	
1.2100	0.0963286	-0.317871	0	
1.2107	3.75682	-2.4476	0	
1.2113	4.67194	-3.65551	0	
1.2120	1.01145	-2.73369	0	
1.2127	-1.44493	-2.73369	0	
1.2133	-2.67312	-2.73369	0	
1.2140	-2.9621	-1.84365	0	
1.2147	-1.44493	-0.921825	0	
1.2153	-4.50336	-0.603954	0	
1.2160	-10.5961	-0.921825	0	
1.2167	-10.5961	-0.603954	0	
1.2173	-8.45284	0.921825	0	
1.2180	-7.85078	0.921825	0	
1.2187	-5.70747	0.603954	0	
1.2193	-4.50336	1.84365	0	
1.2200	-4.50336	3.65551	0	
1.2207	-2.36005	2.73369	0	
1.2213	-1.758	3.05156	0	
1.2220	-4.19029	4.25947	0	
1.2227	-4.79235	1.84365	0	
1.2233	-4.19029	-0.317871	0	
1.2240	-2.04698	1.20791	0	
1.2247	1.92657	1.84365	0	
1.2253	3.75682	-0.317871	0	
1.2260	4.0458	0	0	
1.2267	5.58706	0	0	
1.2273	6.50218	-0.921825	0	
1.2280	5.58706	-0.921825	0	
1.2287	3.44375	-1.52578	0	
1.2293	1.6135	-2.73369	0	
1.2300	2.52863	-1.84365	0	
1.2307	4.0458	-1.20791	0	
1.2313	2.84169	-2.73369	0	
1.2320	1.92657	-1.20791	0	
1.2327	2.84169	0.921825	0	
1.2333	2.52863	-0.921825	0	
1.2340	1.30044	-3.65551	0	
1.2347	1.30044	-3.65551	0	
1.2353	0.385314	-3.65551	0	
1.2360	-0.216739	-3.05156	0	
1.2367	0.698382	-2.12973	0	
1.2373	0.698382	-3.65551	0	
1.2380	0.0963286	-4.57734	0	
1.2387	1.92657	-3.36943	0	
1.2393	2.52863	-2.4476	0	
1.2400	0.698382	-1.84365	0	
1.2407	-1.13186	-0.317871	0	
1.2413	-2.67312	0	0	
1.2420	-2.9621	-0.603954	0	
1.2427	-2.04698	0	0	
1.2433	-2.36005	0.317871	0	
1.2440	-4.50336	-0.921825	0	
1.2447	-6.02054	-0.921825	0	
1.2453	-6.02054	0.921825	0	
1.2460	-4.19029	1.84365	0	
1.2467	-0.216739	1.52578	0	
1.2473	1.92657	0.921825	0	
1.2480	0.698382	2.73369	0	
1.2487	1.01145	3.65551	0	
1.2493	2.84169	-0.603954	0	
1.2500	2.84169	-4.25947	0	
1.2507	3.75682	-3.36943	0	
1.2513	3.75682	-1.84365	0	
1.2520	2.84169	-1.84365	0	
1.2527	2.84169	-1.84365	0	
1.2533	3.75682	-2.73369	0	
1.2540	1.30044	-3.05156	0	
1.2547	-1.758	-1.20791	0	
1.2553	-3.27517	-1.52578	0	
1.2560	-3.87723	-3.05156	0	
1.2567	-2.67312	-0.921825	0	
1.2573	-2.04698	0.921825	0	
1.2580	-3.58824	0.921825	0	
1.2587	-3.27517	1.52578	0	
1.2593	-1.758	0.317871	0	
1.2600	-0.842875	-1.84365	0	
1.2607	-0.842875	0.317871	0	
1.2613	-0.842875	3.65551	0	
1.2620	-0.842875	1.52578	0	
1.2627	1.01145	-0.317871	0	
1.2633	1.01145	2.4476	0	
1.2640	-0.216739	3.97338	0	
1.2647	1.6135	1.84365	0	
1.2653	2.84169	0.317871	0	
1.2660	0.0963286	0	0	
1.2667	-1.44493	-0.317871	0	
1.2673	0.0963286	0.317871	0	
1.2680	0.385314	2.12973	0	
1.2687	0.0963286	2.12973	0	
1.2693	-0.529807	0.921825	0	
1.2700	-1.758	1.52578	0	
1.2707	-0.842875	1.20791	0	
1.2713	1.92657	-0.921825	0	
1.2720	2.52863	-1.84365	0	
1.2727	2.84169	-0.921825	0	
1.2733	3.75682	-2.73369	0	
1.2740	2.84169	-4.89521	0	
1.2747	-0.216739	-4.57734	0	
1.2753	-0.842875	-2.4476	0	
1.2760	-1.44493	-0.921825	0	
1.2767	-4.19029	-0.921825	0	
1.2773	-6.33361	-2.4476	0	
1.2780	-8.45284	-2.4476	0	
1.2787	-9.36796	0	0	
1.2793	-6.33361	0.921825	0	
1.2800	-6.02054	-0.317871	0	
1.2807	-9.07897	-0.921825	0	
1.2813	-6.33361	-0.603954	0	
1.2820	-1.758	-0.921825	0	
1.2827	-2.04698	-1.20791	0	
1.2833	-2.67312	-0.921825	0	
1.2840	-2.36005	0.603954	0	
1.2847	-4.19029	2.73369	0	
1.2853	-3.87723	3.05156	0	
1.2860	-1.44493	2.4476	0	
1.2867	-1.13186	1.52578	0	
1.2873	-1.13186	0	0	
1.2880	-0.216739	-1.84365	0	
1.2887	0.0963286	-1.84365	0	
1.2893	0.698382	-2.12973	0	
1.2900	1.30044	-2.12973	0	
1.2907	1.92657	-3.05156	0	
1.2913	3.75682	-5.49916	0	
1.2920	4.67194	-5.49916	0	
1.2927	3.13068	-2.12973	0	
1.2933	3.75682	-1.52578	0	
1.2940	8.01936	-1.84365	0	
1.2947	9.53653	0.317871	0	
1.2953	6.79117	0.921825	0	
1.2960	3.75682	-1.84365	0	
1.2967	2.84169	-1.84365	0	
1.2973	4.35887	-1.52578	0	
1.2980	4.67194	-3.65551	0	
1.2987	4.35887	-2.12973	0	
1.2993	2.84169	1.84365	0	
1.3000	0.385314	0.921825	0	
1.3007	0.0963286	-0.921825	0	
1.3013	1.01145	0	0	
1.3020	-1.758	0.317871	0	
1.3027	-5.41848	0.317871	0	
1.3033	-3.58824	0.317871	0	
1.3040	-1.758	-1.52578	0	
1.3047	-4.19029	-2.4476	0	
1.3053	-2.67312	0.317871	0	
1.3060	1.92657	0.921825	0	
1.3067	3.13068	-0.921825	0	
1.3073	2.52863	0.317871	0	
1.3080	2.21556	1.20791	0	
1.3087	1.92657	-2.12973	0	
1.3093	1.30044	-3.97338	0	
1.3100	1.30044	-2.73369	0	
1.3107	0.0963286	-2.12973	0	
1.3113	-1.44493	-2.4476	0	
1.3120	-2.67312	-2.12973	0	
1.3127	-4.50336	-2.73369	0	
1.3133	-4.79235	-2.73369	0	
1.3140	-3.87723	-1.84365	0	
1.3147	-6.93566	-2.73369	0	
1.3153	-10.9092	-3.05156	0	
1.3160	-8.16385	-0.317871	0	
1.3167	-3.27517	0.317871	0	
1.3173	-3.27517	-1.84365	0	
1.3180	-4.50336	-2.12973	0	
1.3187	-2.67312	-0.603954	0	
1.3193	-1.758	0.603954	0	
1.3200	-1.44493	1.52578	0	
1.3207	1.01145	0.921825	0	
1.3213	1.92657	-0.921825	0	
1.3220	0.0963286	-0.603954	0	
1.3227	1.01145	0.921825	0	
1.3233	4.96092	-0.317871	0	
1.3240	7.10424	-0.921825	0	
1.3247	5.87605	0.603954	0	
1.3253	4.67194	0.921825	0	
1.3260	2.84169	-0.921825	0	
1.3267	1.30044	-1.20791	0	
1.3273	2.21556	-1.52578	0	
1.3280	3.44375	-1.52578	0	
1.3287	2.84169	-0.317871	0	
1.3293	2.52863	-1.20791	0	
1.3300	4.0458	-3.65551	0	
1.3307	3.75682	-2.73369	0	
1.3313	1.92657	-1.52578	0	
1.3320	1.30044	-1.84365	0	
1.3327	2.84169	-1.84365	0	
1.3333	1.30044	-2.4476	0	
1.3340	-3.27517	-4.57734	0	
1.3347	-4.50336	-3.97338	0	
1.3353	-2.04698	-1.84365	0	
1.3360	-1.758	-2.12973	0	
1.3367	-2.36005	-3.36943	0	
1.3373	-1.758	-2.4476	0	
1.3380	-1.758	-0.603954	0	
1.3387	-1.758	0	0	
1.3393	0.0963286	0	0	
1.3400	-0.216739	0.921825	0	
1.3407	-3.58824	2.12973	0	
1.3413	-3.27517	3.36943	0	
1.3420	-0.529807	3.05156	0	
1.3427	-1.44493	0.603954	0	
1.3433	-2.04698	-0.603954	0	
1.3440	-0.842875	2.12973	0	
1.3447	-1.13186	2.73369	0	
1.3453	-1.44493	-0.921825	0	
1.3460	-0.842875	-0.921825	0	
1.3467	-1.758	0.921825	0	
1.3473	-0.842875	0.317871	0	
1.3480	0.385314	0	0	
1.3487	-1.44493	0	0	
1.3493	-2.67312	-0.921825	0	
1.3500	-0.842875	0.603954	0	
1.3507	-1.44493	0.921825	0	
1.3513	-1.44493	-1.84365	0	
1.3520	2.21556	-2.73369	0	
1.3527	2.52863	-0.317871	0	
1.3533	2.21556	0.921825	0	
1.3540	6.50218	0	0	
1.3547	8.62141	-1.52578	0	
1.3553	6.50218	-0.921825	0	
1.3560	5.87605	1.84365	0	
1.3567	3.75682	0.603954	0	
1.3573	0.698382	-3.65551	0	
1.3580	1.01145	-2.4476	0	
1.3587	2.84169	0.603954	0	
1.3593	2.84169	-0.921825	0	
1.3600	3.13068	-0.921825	0	
1.3607	2.84169	1.84365	0	
1.3613	-0.529807	2.4476	0	
1.3620	-0.529807	0	0	
1.3627	1.01145	-0.317871	0	
1.3633	-0.842875	0.921825	0	
1.3640	-1.44493	2.12973	0	
1.3647	1.01145	2.12973	0	
1.3653	1.01145	0	0	
1.3660	-1.44493	-0.921825	0	
1.3667	-1.758	0	0	
1.3673	0.698382	-0.317871	0	
1.3680	2.84169	-1.84365	0	
1.3687	2.84169	-1.52578	0	
1.3693	1.01145	-1.84365	0	
1.3700	1.92657	-2.73369	0	
1.3707	2.21556	-1.20791	0	
1.3713	-0.529807	0	0	
1.3720	-1.13186	-1.84365	0	
1.3727	0.385314	-1.84365	0	
1.3733	0.385314	-0.921825	0	
1.3740	1.92657	-0.921825	0	
1.3747	4.35887	-0.921825	0	
1.3753	2.84169	-0.317871	0	
1.3760	1.01145	-1.52578	0	
1.3767	4.67194	-1.84365	0	
1.3773	7.4173	-0.921825	0	
1.3780	5.58706	-0.921825	0	
1.3787	3.13068	-1.20791	0	
1.3793	2.52863	0.921825	0	
1.3800	2.21556	2.73369	0	
1.3807	2.84169	1.84365	0	
1.3813	1.92657	-0.317871	0	
1.3820	-2.04698	0	0	
1.3827	-2.36005	2.4476	0	
1.3833	-0.842875	1.84365	0	
1.3840	-3.27517	-0.603954	0	
1.3847	-6.33361	-0.921825	0	
1.3853	-5.41848	-1.20791	0	
1.3860	-7.24873	-2.73369	0	
1.3867	-9.07897	-1.84365	0	
1.3873	-7.24873	-0.317871	0	
1.3880	-6.02054	0.603954	0	
1.3887	-8.16385	1.52578	0	
1.3893	-8.45284	1.52578	0	
1.3900	-7.53771	0.921825	0	
1.3907	-7.85078	0.921825	0	
1.3913	-7.24873	0	0	
1.3920	-6.33361	0	0	
1.3927	-6.33361	2.12973	0	
1.3933	-4.79235	1.84365	0	
1.3940	-4.19029	0	0	
1.3947	-4.50336	0	0	
1.3953	-4.50336	0	0	
1.3960	-3.58824	0	0	
1.3967	-2.9621	0.921825	0	
1.3973	-3.58824	-0.921825	0	
1.3980	-5.70747	-2.12973	0	
1.3987	-4.79235	0.921825	0	
1.3993	-1.44493	2.12973	0	
1.4000	-0.529807	0	0	
1.4007	-0.216739	1.20791	0	
1.4013	0.0963286	2.73369	0	
1.4020	-1.758	1.52578	0	
1.4027	-4.50336	1.84365	0	
1.4033	-3.58824	1.84365	0	
1.4040	-1.44493	-0.921825	0	
1.4047	-0.529807	-1.84365	0	
1.4053	-0.216739	0.317871	0	
1.4060	1.01145	-1.52578	0	
1.4067	1.30044	-2.73369	0	
1.4073	-2.04698	0.921825	0	
1.4080	-5.10542	3.36943	0	
1.4087	-1.758	2.4476	0	
1.4093	2.21556	1.52578	0	
1.4100	2.84169	-0.317871	0	
1.4107	3.44375	-3.05156	0	
1.4113	3.13068	-3.65551	0	
1.4120	1.01145	-2.73369	0	
1.4127	1.30044	-1.84365	0	
1.4133	1.92657	0	0	
1.4140	0.385314	-0.317871	0	
1.4147	1.92657	-2.4476	0	
1.4153	5.58706	-1.52578	0	
1.4160	3.44375	1.20791	0	
1.4167	0.0963286	0.921825	0	
1.4173	-0.216739	-1.20791	0	
1.4180	0.385314	-1.52578	0	
1.4187	1.30044	-0.603954	0	
1.4193	3.13068	-1.52578	0	
1.4200	3.44375	-3.05156	0	
1.4207	2.84169	-1.84365	0	
1.4213	1.92657	0.317871	0	
1.4220	0.0963286	0.317871	0	
1.4227	-0.216739	0.317871	0	
1.4233	1.01145	2.4476	0	
1.4240	1.6135	2.12973	0	
1.4247	1.92657	0.921825	0	
1.4253	1.6135	2.4476	0	
1.4260	-0.529807	2.12973	0	
1.4267	-2.04698	-1.20791	0	
1.4273	-0.842875	-0.921825	0	
1.4280	1.01145	1.84365	0	
1.4287	2.52863	1.52578	0	
1.4293	2.21556	0	0	
1.4300	1.92657	-0.317871	0	
1.4307	3.13068	-0.603954	0	
1.4313	4.35887	-0.921825	0	
1.4320	3.13068	-0.921825	0	
1.4327	3.13068	-2.12973	0	
1.4333	5.58706	-1.84365	0	
1.4340	4.0458	0	0	
1.4347	1.01145	-1.52578	0	
1.4353	1.6135	-3.65551	0	
1.4360	2.84169	-0.603954	0	
1.4367	0.0963286	1.84365	0	
1.4373	-1.758	-0.921825	0	
1.4380	1.6135	-0.603954	0	
1.4387	3.75682	3.65551	0	
1.4393	1.92657	2.73369	0	
1.4400	1.6135	-1.84365	0	
1.4407	2.84169	-1.52578	0	
1.4413	1.01145	0	0	
1.4420	-2.67312	-1.52578	0	
1.4427	-4.19029	0	0	
1.4433	-6.33361	3.65551	0	
1.4440	-9.07897	2.4476	0	
1.4447	-9.99409	0	0	
1.4453	-8.7659	0.317871	0	
1.4460	-6.93566	0.317871	0	
1.4467	-4.19029	-0.603954	0	
1.4473	-2.04698	0	0	
1.4480	-2.36005	0.921825	0	
1.4487	-0.842875	0	0	
1.4493	3.75682	-2.73369	0	
1.4500	5.87605	-3.97338	0	
1.4507	5.27399	-2.4476	0	
1.4513	4.67194	0	0	
1.4520	3.75682	0	0	
1.4527	2.84169	-1.84365	0	
1.4533	2.21556	-2.73369	0	
1.4540	0.0963286	-2.12973	0	
1.4547	-2.04698	-1.84365	0	
1.4553	-1.44493	-1.52578	0	
1.4560	-1.13186	-1.84365	0	
1.4567	-2.9621	-1.84365	0	
1.4573	-3.87723	0.317871	0	
1.4580	-4.50336	3.36943	0	
1.4587	-4.50336	4.57734	0	
1.4593	-1.758	2.12973	0	
1.4600	0.0963286	-0.921825	0	
1.4607	-2.36005	-0.921825	0	
1.4613	-5.10542	0.603954	0	
1.4620	-3.87723	2.4476	0	
1.4627	-2.04698	3.65551	0	
1.4633	-1.758	3.05156	0	
1.4640	-1.758	2.12973	0	
1.4647	-0.842875	3.65551	0	
1.4653	-1.13186	3.05156	0	
1.4660	-0.529807	-0.317871	0	
1.4667	2.84169	-1.52578	0	
1.4673	4.0458	0	0	
1.4680	3.44375	-0.921825	0	
1.4687	4.67194	-2.12973	0	
1.4693	6.18911	-1.20791	0	
1.4700	4.96092	-1.52578	0	
1.4707	3.13068	-2.73369	0	
1.4713	3.44375	-2.12973	0	
1.4720	4.96092	-0.317871	0	
1.4727	3.44375	0	0	
1.4733	-2.67312	0	0	
1.4740	-6.33361	1.52578	0	
1.4747	-3.27517	1.84365	0	
1.4753	-2.36005	0.603954	0	
1.4760	-4.79235	1.20791	0	
1.4767	-6.62259	0.317871	0	
1.4773	-8.45284	-3.65551	0	
1.4780	-9.07897	-2.73369	0	
1.4787	-5.41848	2.12973	0	
1.4793	-2.04698	2.73369	0	
1.4800	-3.27517	1.52578	0	
1.4807	-5.41848	2.12973	0	
1.4813	-5.70747	2.73369	0	
1.4820	-2.67312	3.36943	0	
1.4827	1.92657	3.36943	0	
1.4833	2.84169	0	0	
1.4840	1.92657	-1.52578	0	
1.4847	1.92657	-0.603954	0	
1.4853	1.92657	-0.317871	0	
1.4860	2.84169	0.921825	0	
1.4867	3.75682	2.4476	0	
1.4873	4.96092	-0.317871	0	
1.4880	6.50218	-1.84365	0	
1.4887	4.96092	1.20791	0	
1.4893	2.21556	2.12973	0	
1.4900	1.6135	-0.317871	0	
1.4907	-0.529807	-0.921825	0	
1.4913	-3.87723	0.317871	0	
1.4920	-3.58824	-0.921825	0	
1.4927	-1.44493	-2.4476	0	
1.4933	-3.27517	-2.73369	0	
1.4940	-3.58824	-2.4476	0	
1.4947	-1.13186	-1.84365	0	
1.4953	-1.758	-2.4476	0	
1.4960	-4.50336	-3.36943	0	
1.4967	-2.9621	-2.12973	0	
1.4973	-0.216739	-0.921825	0	
1.4980	0.0963286	-1.84365	0	
1.4987	1.01145	-1.84365	0	
1.4993	3.44375	-0.921825	0	
1.5000	4.67194	-0.921825	0	
1.5007	4.35887	-1.84365	0	
1.5013	3.75682	-1.52578	0	
1.5020	4.0458	0	0	
1.5027	4.96092	1.84365	0	
1.5033	4.0458	1.52578	0	
1.5040	0.0963286	-0.317871	0	
1.5047	-2.36005	0	0	
1.5053	0.0963286	1.20791	0	
1.5060	0.385314	0.603954	0	
1.5067	-3.58824	0.921825	0	
1.5073	-5.10542	0.921825	0	
1.5080	-1.758	-1.52578	0	
1.5087	0.0963286	-1.52578	0	
1.5093	-0.216739	-0.603954	0	
1.5100	0.385314	-3.65551	0	
1.5107	3.13068	-5.18129	0	
1.5113	5.58706	-2.73369	0	
1.5120	5.27399	-2.73369	0	
1.5127	4.35887	-5.18129	0	
1.5133	4.96092	-6.42098	0	
1.5140	5.87605	-5.18129	0	
1.5147	4.35887	-3.36943	0	
1.5153	1.30044	-3.65551	0	
1.5160	0.0963286	-3.97338	0	
1.5167	0.0963286	-2.12973	0	
1.5173	-0.842875	-0.921825	0	
1.5180	-1.758	-1.20791	0	
1.5187	-2.04698	-0.603954	0	
1.5193	-3.58824	0	0	
1.5200	-4.50336	-0.921825	0	
1.5207	-5.10542	1.20791	0	
1.5213	-7.53771	2.73369	0	
1.5220	-9.99409	0	0	
1.5227	-7.53771	-1.84365	0	
1.5233	-5.41848	2.73369	0	
1.5240	-5.41848	5.49916	0	
1.5247	-4.50336	3.65551	0	
1.5253	-2.9621	1.84365	0	
1.5260	-3.58824	1.20791	0	
1.5267	-4.50336	2.12973	0	
1.5273	-4.50336	3.36943	0	
1.5280	-1.758	1.84365	0	
1.5287	1.92657	-0.921825	0	
1.5293	2.21556	-1.20791	0	
1.5300	0.385314	-1.84365	0	
1.5307	0.385314	-2.4476	0	
1.5313	0.698382	0	0	
1.5320	0.385314	-0.317871	0	
1.5327	1.30044	-4.89521	0	
1.5333	3.75682	-6.42098	0	
1.5340	4.0458	-3.05156	0	
1.5347	1.92657	-0.603954	0	
1.5353	0.0963286	0	0	
1.5360	1.30044	-1.20791	0	
1.5367	0.0963286	-1.84365	0	
1.5373	-1.44493	-0.921825	0	
1.5380	1.92657	-1.20791	0	
1.5387	3.44375	-1.84365	0	
1.5393	0.0963286	-0.603954	0	
1.5400	-0.216739	0.317871	0	
1.5407	2.84169	-0.317871	0	
1.5413	2.52863	-0.921825	0	
1.5420	-0.216739	-0.317871	0	
1.5427	-2.04698	2.12973	0	
1.5433	-2.36005	4.25947	0	
1.5440	-1.758	2.4476	0	
1.5447	-1.44493	0.603954	0	
1.5453	0.0963286	1.84365	0	
1.5460	1.6135	3.65551	0	
1.5467	-0.842875	3.36943	0	
1.5473	-1.758	2.73369	0	
1.5480	1.92657	1.84365	0	
1.5487	4.67194	0.921825	0	
1.5493	4.67194	0	0	
1.5500	4.35887	-2.12973	0	
1.5507	2.84169	-3.65551	0	
1.5513	2.84169	-1.20791	0	
1.5520	3.75682	-0.317871	0	
1.5527	2.84169	-2.4476	0	
1.5533	1.01145	-1.84365	0	
1.5540	-1.758	0.603954	0	
1.5547	-4.50336	-0.921825	0	
1.5553	-4.19029	-3.65551	0	
1.5560	-3.58824	-3.65551	0	
1.5567	-6.02054	-0.921825	0	
1.5573	-7.24873	0.603954	0	
1.5580	-5.70747	-1.52578	0	
1.5587	-6.62259	-2.73369	0	
1.5593	-8.16385	-0.921825	0	
1.5600	-5.70747	-0.603954	0	
1.5607	-2.9621	-1.84365	0	
1.5613	-2.04698	-0.317871	0	
1.5620	-2.04698	0.603954	0	
1.5627	-3.87723	-0.921825	0	
1.5633	-5.41848	0.603954	0	
1.5640	-4.79235	1.84365	0	
1.5647	-4.50336	0.317871	0	
1.5653	-2.67312	0	0	
1.5660	1.6135	0	0	
1.5667	2.84169	-2.12973	0	
1.5673	1.30044	-1.20791	0	
1.5680	0.698382	0.921825	0	
1.5687	1.01145	0	0	
1.5693	1.01145	-1.20791	0	
1.5700	1.92657	-0.921825	0	
1.5707	2.84169	-0.921825	0	
1.5713	1.01145	-1.84365	0	
1.5720	-0.842875	-2.73369	0	
1.5727	1.6135	-1.84365	0	
1.5733	3.44375	-1.20791	0	
1.5740	2.84169	-1.84365	0	
1.5747	2.52863	0.921825	0	
1.5753	4.35887	2.4476	0	
1.5760	6.50218	-1.84365	0	
1.5767	6.50218	-3.97338	0	
1.5773	4.67194	-1.20791	0	
1.5780	2.84169	0	0	
1.5787	2.52863	-0.921825	0	
1.5793	2.84169	-1.84365	0	
1.5800	2.84169	-1.84365	0	
1.5807	2.21556	-0.317871	0	
1.5813	1.01145	0.921825	0	
1.5820	-0.842875	-1.20791	0	
1.5827	-3.58824	-0.921825	0	
1.5833	-6.33361	2.12973	0	
1.5840	-6.93566	3.36943	0	
1.5847	-5.10542	2.12973	0	
1.5853	-3.87723	0.317871	0	
1.5860	-3.27517	-1.52578	0	
1.5867	-0.842875	-0.603954	0	
1.5873	0.0963286	1.20791	0	
1.5880	-0.529807	0	0	
1.5887	0.698382	-0.921825	0	
1.5893	2.52863	-0.317871	0	
1.5900	1.01145	-2.12973	0	
1.5907	-0.842875	-3.65551	0	
1.5913	0.698382	-1.84365	0	
1.5920	3.13068	-1.52578	0	
1.5927	4.67194	-2.73369	0	
1.5933	3.75682	-1.84365	0	
1.5940	1.01145	-0.921825	0	
1.5947	0.0963286	-1.84365	0	
1.5953	1.92657	-0.603954	0	
1.5960	1.01145	0	0	
1.5967	-0.842875	-0.921825	0	
1.5973	-0.529807	-0.317871	0	
1.5980	-2.04698	0.921825	0	
1.5987	-3.87723	0	0	
1.5993	-2.04698	0.317871	0	
1.6000	-0.529807	1.84365	0	
1.6007	-1.758	0.921825	0	
1.6013	-1.758	0	0	
1.6020	-0.842875	0	0	
1.6027	0.0963286	-0.317871	0	
1.6033	0.698382	0.921825	0	
1.6040	-3.87723	2.12973	0	
1.6047	-8.45284	0.603954	0	
1.6053	-4.50336	0	0	
1.6060	1.92657	0.921825	0	
1.6067	1.92657	0.921825	0	
1.6073	2.21556	0.317871	0	
1.6080	4.67194	0	0	
1.6087	3.75682	-0.603954	0	
1.6093	1.92657	0	0	
1.6100	1.92657	1.20791	0	
1.6107	1.6135	1.20791	0	
1.6113	1.92657	0.921825	0	
1.6120	1.92657	-1.52578	0	
1.6127	-2.36005	-5.49916	0	
1.6133	-4.50336	-6.10311	0	
1.6140	-1.13186	-4.57734	0	
1.6147	1.01145	-5.18129	0	
1.6153	0.0963286	-5.49916	0	
1.6160	1.30044	-3.65551	0	
1.6167	3.13068	-3.05156	0	
1.6173	3.13068	-3.97338	0	
1.6180	2.84169	-3.65551	0	
1.6187	2.84169	-1.84365	0	
1.6193	3.13068	0.317871	0	
1.6200	3.13068	0.603954	0	
1.6207	2.84169	-0.317871	0	
1.6213	0.698382	1.20791	0	
1.6220	-2.36005	2.73369	0	
1.6227	-3.58824	0.921825	0	
1.6233	-3.58824	0	0	
1.6240	-6.33361	1.84365	0	
1.6247	-6.62259	3.36943	0	
1.6253	-3.87723	2.73369	0	
1.6260	-2.67312	1.52578	0	
1.6267	-2.9621	-0.317871	0	
1.6273	-2.9621	0	0	
1.6280	-3.58824	2.12973	0	
1.6287	-3.58824	1.20791	0	
1.6293	-0.529807	0	0	
1.6300	1.92657	0.921825	0	
1.6307	1.6135	0.317871	0	
1.6313	-0.216739	-0.317871	0	
1.6320	-1.758	0	0	
1.6327	-0.842875	-2.4476	0	
1.6333	1.01145	-3.97338	0	
1.6340	1.01145	-0.921825	0	
1.6347	2.84169	0.921825	0	
1.6353	4.0458	-0.921825	0	
1.6360	2.52863	-1.20791	0	
1.6367	2.52863	-0.921825	0	
1.6373	3.13068	-1.20791	0	
1.6380	2.52863	-0.603954	0	
1.6387	4.35887	0	0	
1.6393	8.01936	-0.921825	0	
1.6400	7.10424	-1.20791	0	
1.6407	5.58706	-0.921825	0	
1.6413	5.87605	0.317871	0	
1.6420	4.35887	2.73369	0	
1.6427	3.75682	1.84365	0	
1.6433	5.58706	0.921825	0	
1.6440	6.50218	3.36943	0	
1.6447	4.67194	3.36943	0	
1.6453	1.6135	0.921825	0	
1.6460	1.01145	1.84365	0	
1.6467	3.13068	1.20791	0	
1.6473	2.21556	-1.20791	0	
1.6480	-2.36005	-0.603954	0	
1.6487	-4.19029	0	0	
1.6493	-3.87723	-0.603954	0	
1.6500	-4.50336	2.4476	0	
1.6507	-5.10542	1.84365	0	
1.6513	-5.41848	-4.57734	0	
1.6520	-5.70747	-6.10311	0	
1.6527	-6.93566	-3.05156	0	
1.6533	-8.7659	-1.84365	0	
1.6540	-7.85078	-0.921825	0	
1.6547	-5.70747	0.317871	0	
1.6553	-6.93566	-0.921825	0	
1.6560	-5.41848	-2.73369	0	
1.6567	-1.13186	-3.65551	0	
1.6573	-2.9621	-3.36943	0	
1.6580	-6.33361	-3.05156	0	
1.6587	-4.79235	-3.36943	0	
1.6593	-6.02054	-3.65551	0	
1.6600	-9.07897	-3.36943	0	
1.6607	-9.07897	-1.52578	0	
1.6613	-8.7659	2.12973	0	
1.6620	-6.62259	2.4476	0	
1.6627	-1.13186	-0.921825	0	
1.6633	0.698382	-0.921825	0	
1.6640	-1.758	0.921825	0	
1.6647	-1.44493	0	0	
1.6653	0.698382	0	0	
1.6660	1.92657	0.317871	0	
1.6667	2.84169	-0.603954	0	
1.6673	2.84169	-0.317871	0	
1.6680	2.84169	0.921825	0	
1.6687	2.84169	-0.317871	0	
1.6693	3.75682	-2.73369	0	
1.6700	3.75682	-3.97338	0	
1.6707	4.67194	-4.57734	0	
1.6713	7.10424	-3.65551	0	
1.6720	9.24755	-3.97338	0	
1.6727	10.7647	-6.70707	0	
1.6733	11.0778	-8.8368	0	
1.6740	8.93448	-7.02494	0	
1.6747	5.87605	-3.65551	0	
1.6753	4.0458	-1.52578	0	
1.6760	3.44375	-1.52578	0	
1.6767	3.44375	-2.4476	0	
1.6773	1.92657	-3.05156	0	
1.6780	-3.27517	-3.65551	0	
1.6787	-8.16385	-3.65551	0	
1.6793	-9.07897	-1.84365	0	
1.6800	-8.16385	0.921825	0	
1.6807	-6.33361	2.73369	0	
1.6813	-4.19029	2.4476	0	
1.6820	-4.19029	1.52578	0	
1.6827	-3.27517	2.12973	0	
1.6833	-0.842875	2.73369	0	
1.6840	-3.27517	1.84365	0	
1.6847	-4.79235	1.84365	0	
1.6853	-0.842875	2.73369	0	
1.6860	-0.216739	2.12973	0	
1.6867	-2.36005	0	0	
1.6873	0.0963286	-0.603954	0	
1.6880	1.6135	-0.317871	0	
1.6887	0.0963286	0	0	
1.6893	0.385314	0.317871	0	
1.6900	0.0963286	-1.20791	0	
1.6907	0.385314	-3.65551	0	
1.6913	2.84169	-2.4476	0	
1.6920	1.92657	-0.921825	0	
1.6927	0.0963286	-3.65551	0	
1.6933	1.92657	-5.78524	0	
1.6940	2.84169	-3.65551	0	
1.6947	1.92657	-1.84365	0	
1.6953	0.698382	-1.52578	0	
1.6960	-0.529807	-2.12973	0	
1.6967	1.92657	-3.36943	0	
1.6973	4.67194	-3.97338	0	
1.6980	0.698382	-3.36943	0	
1.6987	-2.67312	-1.52578	0	
1.6993	1.01145	0	0	
1.7000	1.92657	0.921825	0	
1.7007	1.01145	0.603954	0	
1.7013	1.92657	0.317871	0	
1.7020	-0.842875	2.12973	0	
1.7027	-4.50336	3.05156	0	
1.7033	-3.58824	1.52578	0	
1.7040	-3.58824	1.52578	0	
1.7047	-3.87723	2.73369	0	
1.7053	-2.36005	2.4476	0	
1.7060	-0.842875	2.12973	0	
1.7067	1.01145	1.84365	0	
1.7073	3.75682	-0.921825	0	
1.7080	5.27399	-2.4476	0	
1.7087	4.67194	0	0	
1.7093	4.0458	1.84365	0	
1.7100	4.35887	1.52578	0	
1.7107	5.58706	0.921825	0	
1.7113	5.27399	-0.603954	0	
1.7120	2.84169	-2.4476	0	
1.7127	1.01145	-3.05156	0	
1.7133	0.385314	-3.05156	0	
1.7140	2.52863	-3.65551	0	
1.7147	5.27399	-3.65551	0	
1.7153	3.75682	-2.12973	0	
1.7160	0.385314	-0.921825	0	
1.7167	0.0963286	-1.52578	0	
1.7173	-0.529807	-1.52578	0	
1.7180	-3.87723	0.317871	0	
1.7187	-5.10542	1.52578	0	
1.7193	-5.41848	1.84365	0	
1.7200	-8.45284	1.84365	0	
1.7207	-11.8243	0	0	
1.7213	-12.7395	-1.20791	0	
1.7220	-10.2831	0.921825	0	
1.7227	-6.93566	2.4476	0	
1.7233	-3.27517	0	0	
1.7240	1.01145	-1.84365	0	
1.7247	3.75682	0.603954	0	
1.7253	4.0458	2.73369	0	
1.7260	7.10424	2.12973	0	
1.7267	8.93448	3.05156	0	
1.7273	5.58706	4.89521	0	
1.7280	3.75682	1.20791	0	
1.7287	4.67194	-2.4476	0	
1.7293	1.01145	0.603954	0	
1.7300	-4.19029	2.73369	0	
1.7307	-3.58824	-1.20791	0	
1.7313	-3.58824	-4.25947	0	
1.7320	-6.02054	-3.65551	0	
1.7327	-6.02054	-2.12973	0	
1.7333	-5.41848	-1.52578	0	
1.7340	-7.24873	0	0	
1.7347	-8.16385	0.603954	0	
1.7353	-4.50336	-0.921825	0	
1.7360	-1.44493	-1.84365	0	
1.7367	-2.67312	-0.921825	0	
1.7373	-4.50336	0	0	
1.7380	-0.216739	0.317871	0	
1.7387	4.67194	0.921825	0	
1.7393	4.35887	1.52578	0	
1.7400	1.6135	1.20791	0	
1.7407	1.92657	1.52578	0	
1.7413	2.84169	2.73369	0	
1.7420	3.44375	2.73369	0	
1.7427	4.67194	1.20791	0	
1.7433	2.84169	1.52578	0	
1.7440	-0.842875	3.65551	0	
1.7447	-1.758	3.65551	0	
1.7453	-1.758	2.73369	0	
1.7460	-2.9621	2.4476	0	
1.7467	-1.13186	2.73369	0	
1.7473	2.84169	1.84365	0	
1.7480	3.75682	0.921825	0	
1.7487	3.44375	0.603954	0	
1.7493	4.35887	1.52578	0	
1.7500	4.67194	0.317871	0	
1.7507	5.27399	-2.4476	0	
1.7513	5.58706	0	0	
1.7520	4.0458	3.97338	0	
1.7527	2.52863	0.317871	0	
1.7533	0.0963286	-3.36943	0	
1.7540	-2.36005	0.921825	0	
1.7547	-0.529807	3.65551	0	
1.7553	2.52863	-1.84365	0	
1.7560	0.698382	-3.65551	0	
1.7567	-0.842875	1.20791	0	
1.7573	2.21556	1.52578	0	
1.7580	2.84169	-1.52578	0	
1.7587	1.6135	-0.921825	0	
1.7593	1.92657	0.921825	0	
1.7600	2.84169	-0.317871	0	
1.7607	2.84169	0.603954	0	
1.7613	2.21556	3.05156	0	
1.7620	0.385314	3.05156	0	
1.7627	-1.758	3.36943	0	
1.7633	-3.27517	5.18129	0	
1.7640	-5.41848	5.49916	0	
1.7647	-9.07897	3.65551	0	
1.7653	-9.36796	0.603954	0	
1.7660	-6.02054	-1.52578	0	
1.7667	-0.842875	0.921825	0	
1.7673	2.21556	3.65551	0	
1.7680	0.698382	1.84365	0	
1.7687	-0.842875	0	0	
1.7693	1.01145	1.52578	0	
1.7700	3.13068	0.921825	0	
1.7707	3.75682	-0.317871	0	
1.7713	3.13068	0	0	
1.7720	0.385314	-0.921825	0	
1.7727	-2.36005	-2.12973	0	
1.7733	-1.13186	-0.921825	0	
1.7740	0.0963286	-0.921825	0	
1.7747	-1.758	-2.73369	0	
1.7753	-2.9621	0.603954	0	
1.7760	-2.67312	4.57734	0	
1.7767	-2.36005	3.65551	0	
1.7773	-1.758	1.84365	0	
1.7780	-1.13186	1.20791	0	
1.7787	-1.758	-0.603954	0	
1.7793	-1.13186	-1.52578	0	
1.7800	0.0963286	1.84365	0	
1.7807	-0.216739	3.65551	0	
1.7813	-1.13186	1.84365	0	
1.7820	0.0963286	1.84365	0	
1.7827	1.92657	2.73369	0	
1.7833	2.52863	2.4476	0	
1.7840	2.52863	2.12973	0	
1.7847	3.44375	0.921825	0	
1.7853	4.67194	-1.52578	0	
1.7860	3.13068	-1.52578	0	
1.7867	1.01145	0.921825	0	
1.7873	-0.529807	2.73369	0	
1.7880	-0.842875	1.84365	0	
1.7887	-0.216739	0	0	
1.7893	0.0963286	-0.921825	0	
1.7900	-0.842875	0.317871	0	
1.7907	-1.44493	-0.603954	0	
1.7913	-1.13186	-1.52578	0	
1.7920	-2.04698	1.20791	0	
1.7927	-2.9621	1.84365	0	
1.7933	-2.67312	-1.84365	0	
1.7940	-1.758	-2.4476	0	
1.7947	-2.36005	0	0	
1.7953	-3.87723	-0.317871	0	
1.7960	-3.58824	-1.84365	0	
1.7967	-2.36005	-0.603954	0	
1.7973	-4.50336	0.603954	0	
1.7980	-6.02054	0.921825	0	
1.7987	-2.04698	1.52578	0	
1.7993	-0.529807	0.317871	0	
1.8000	-1.13186	0	0	
1.8007	1.92657	0	0	
1.8013	2.84169	-1.20791	0	
1.8020	0.0963286	-0.603954	0	
1.8027	1.6135	0.921825	0	
1.8033	4.67194	-0.921825	0	
1.8040	3.44375	-3.05156	0	
1.8047	1.30044	-0.921825	0	
1.8053	0.0963286	0.921825	0	
1.8060	-2.36005	1.52578	0	
1.8067	-3.27517	1.84365	0	
1.8073	-3.58824	0	0	
1.8080	-5.70747	-0.921825	0	
1.8087	-6.93566	0.921825	0	
1.8093	-3.58824	1.52578	0	
1.8100	1.92657	-1.20791	0	
1.8107	3.75682	-0.603954	0	
1.8113	2.52863	1.52578	0	
1.8120	1.92657	-0.603954	0	
1.8127	2.84169	-2.12973	0	
1.8133	2.52863	-1.52578	0	
1.8140	3.75682	-2.73369	0	
1.8147	3.75682	-3.36943	0	
1.8153	0.385314	-1.52578	0	
1.8160	-1.758	-2.12973	0	
1.8167	-1.44493	-3.36943	0	
1.8173	-1.758	-1.84365	0	
1.8180	-0.529807	-2.73369	0	
1.8187	2.21556	-4.25947	0	
1.8193	2.84169	-2.73369	0	
1.8200	5.27399	-1.52578	0	
1.8207	9.53653	-0.921825	0	
1.8213	9.24755	2.73369	0	
1.8220	7.4173	4.25947	0	
1.8227	7.10424	1.20791	0	
1.8233	5.87605	0.317871	0	
1.8240	4.96092	1.52578	0	
1.8247	3.13068	1.20791	0	
1.8253	-2.9621	0.921825	0	
1.8260	-8.7659	1.52578	0	
1.8267	-10.5961	1.20791	0	
1.8273	-13.6546	2.4476	0	
1.8280	-16.3999	3.65551	0	
1.8287	-14.8587	1.20791	0	
1.8293	-12.4264	-1.20791	0	
1.8300	-9.07897	0	0	
1.8307	-5.10542	0.921825	0	
1.8313	-6.02054	-0.921825	0	
1.8320	-7.24873	-2.4476	0	
1.8327	-3.27517	-2.73369	0	
1.8333	-0.216739	-2.4476	0	
1.8340	-1.13186	-1.84365	0	
1.8347	-0.842875	-1.52578	0	
1.8353	1.01145	0.603954	0	
1.8360	0.698382	2.73369	0	
1.8367	-1.44493	0	0	
1.8373	-0.842875	-3.65551	0	
1.8380	1.30044	-1.84365	0	
1.8387	1.92657	0.317871	0	
1.8393	0.385314	-0.921825	0	
1.8400	-0.529807	0	0	
1.8407	-0.529807	3.65551	0	
1.8413	0.0963286	2.73369	0	
1.8420	1.01145	1.84365	0	
1.8427	0.0963286	3.36943	0	
1.8433	-1.13186	0.603954	0	
1.8440	-0.842875	-2.73369	0	
1.8447	0.0963286	-0.921825	0	
1.8453	0.0963286	0.317871	0	
1.8460	0.385314	-1.20791	0	
1.8467	2.21556	-1.52578	0	
1.8473	1.30044	-0.921825	0	
1.8480	-1.44493	-1.84365	0	
1.8487	-0.842875	-1.52578	0	
1.8493	2.21556	-0.921825	0	
1.8500	1.6135	-1.84365	0	
1.8507	0.0963286	-1.84365	0	
1.8513	1.6135	-2.73369	0	
1.8520	3.75682	-5.18129	0	
1.8527	5.58706	-4.57734	0	
1.8533	4.96092	-2.12973	0	
1.8540	2.21556	-2.12973	0	
1.8547	2.52863	-2.12973	0	
1.8553	5.58706	-0.921825	0	
1.8560	4.67194	-0.603954	0	
1.8567	2.52863	-2.73369	0	
1.8573	3.44375	-2.73369	0	
1.8580	3.75682	0	0	
1.8587	1.92657	2.4476	0	
1.8593	1.01145	1.84365	0	
1.8600	0.0963286	0.317871	0	
1.8607	-2.9621	-1.52578	0	
1.8613	-4.50336	-2.73369	0	
1.8620	-4.19029	-0.603954	0	
1.8627	-4.50336	1.84365	0	
1.8633	-3.58824	0	0	
1.8640	-2.67312	-0.921825	0	
1.8647	-3.87723	0.317871	0	
1.8653	-6.93566	-0.921825	0	
1.8660	-7.24873	-1.52578	0	
1.8667	-5.41848	0	0	
1.8673	-5.41848	0.317871	0	
1.8680	-7.24873	1.20791	0	
1.8687	-6.33361	2.12973	0	
1.8693	-3.58824	-0.603954	0	
1.8700	-2.9621	-2.73369	0	
1.8707	-1.758	-0.921825	0	
1.8713	0.698382	0	0	
1.8720	-0.216739	-0.921825	0	
1.8727	-3.27517	-0.921825	0	
1.8733	-3.58824	-2.12973	0	
1.8740	-2.9621	-4.89521	0	
1.8747	-2.9621	-4.25947	0	
1.8753	-0.842875	-2.12973	0	
1.8760	0.0963286	-2.73369	0	
1.8767	-0.842875	-3.05156	0	
1.8773	-0.216739	0	0	
1.8780	1.6135	0.603954	0	
1.8787	1.6135	-2.12973	0	
1.8793	0.385314	-2.73369	0	
1.8800	-0.842875	0	0	
1.8807	-1.758	1.52578	0	
1.8813	-2.36005	0.603954	0	
1.8820	-2.67312	0.317871	0	
1.8827	-1.44493	0.921825	0	
1.8833	0.0963286	1.84365	0	
1.8840	1.01145	1.84365	0	
1.8847	3.13068	0.317871	0	
1.8853	5.58706	-0.921825	0	
1.8860	6.50218	-1.52578	0	
1.8867	7.4173	0	0	
1.8873	8.33243	2.4476	0	
1.8880	5.58706	2.73369	0	
1.8887	4.0458	0	0	
1.8893	4.67194	-1.52578	0	
1.8900	2.21556	0	0	
1.8907	-0.842875	0.317871	0	
1.8913	-0.529807	-1.84365	0	
1.8920	-1.758	-3.05156	0	
1.8927	-3.87723	-3.65551	0	
1.8933	-2.04698	-2.73369	0	
1.8940	-1.13186	-2.73369	0	
1.8947	-3.58824	-3.05156	0	
1.8953	-2.9621	-1.84365	0	
1.8960	-0.842875	0.603954	0	
1.8967	0.0963286	-1.20791	0	
1.8973	1.92657	-4.57734	0	
1.8980	4.67194	-4.89521	0	
1.8987	4.67194	-3.97338	0	
1.8993	2.84169	-3.65551	0	
1.9000	1.92657	-0.921825	0	
1.9007	3.75682	1.20791	0	
1.9013	4.96092	-1.84365	0	
1.9020	3.44375	-3.97338	0	
1.9027	2.52863	-1.84365	0	
1.9033	3.75682	-0.921825	0	
1.9040	4.35887	-1.84365	0	
1.9047	2.84169	-0.603954	0	
1.9053	2.52863	-0.317871	0	
1.9060	2.84169	-2.73369	0	
1.9067	1.6135	-1.84365	0	
1.9073	0.698382	0.921825	0	
1.9080	-0.842875	1.52578	0	
1.9087	-2.9621	1.20791	0	
1.9093	-2.36005	1.84365	0	
1.9100	-0.529807	0.603954	0	
1.9107	-2.04698	-2.73369	0	
1.9113	-1.758	-2.73369	0	
1.9120	4.67194	-1.20791	0	
1.9127	7.4173	-2.73369	0	
1.9133	3.44375	-3.97338	0	
1.9140	1.92657	-2.73369	0	
1.9147	2.84169	-2.12973	0	
1.9153	1.01145	-3.97338	0	
1.9160	-2.67312	-4.57734	0	
1.9167	-4.50336	-3.65551	0	
1.9173	-3.58824	-1.20791	0	
1.9180	-2.9621	0.603954	0	
1.9187	-5.10542	-1.20791	0	
1.9193	-9.99409	-3.05156	0	
1.9200	-12.1133	0.603954	0	
1.9207	-9.36796	2.4476	0	
1.9213	-5.10542	0.603954	0	
1.9220	-2.04698	1.84365	0	
1.9227	-1.13186	2.73369	0	
1.9233	-1.44493	-0.921825	0	
1.9240	-1.758	-1.52578	0	
1.9247	-1.44493	1.84365	0	
1.9253	0.0963286	1.84365	0	
1.9260	-0.529807	-0.921825	0	
1.9267	-3.58824	-2.4476	0	
1.9273	-3.58824	-1.20791	0	
1.9280	1.92657	0.921825	0	
1.9287	1.6135	0.921825	0	
1.9293	-4.19029	-0.317871	0	
1.9300	-3.87723	-1.84365	0	
1.9307	1.01145	-2.73369	0	
1.9313	1.92657	-1.52578	0	
1.9320	1.01145	0.603954	0	
1.9327	1.01145	-1.52578	0	
1.9333	-1.13186	-3.65551	0	
1.9340	-3.58824	-1.84365	0	
1.9347	-0.842875	-1.20791	0	
1.9353	2.84169	-2.73369	0	
1.9360	2.21556	-0.921825	0	
1.9367	0.698382	0.921825	0	
1.9373	1.30044	-0.317871	0	
1.9380	0.0963286	-1.84365	0	
1.9387	-4.79235	-1.84365	0	
1.9393	-4.50336	-1.84365	0	
1.9400	-0.216739	0	0	
1.9407	-0.842875	1.20791	0	
1.9413	-3.27517	-0.317871	0	
1.9420	-1.13186	-1.84365	0	
1.9427	0.0963286	-0.921825	0	
1.9433	-1.13186	0.603954	0	
1.9440	-0.216739	0	0	
1.9447	1.01145	-0.921825	0	
1.9453	-1.44493	0.921825	0	
1.9460	-2.36005	3.05156	0	
1.9467	-1.44493	1.84365	0	
1.9473	-0.842875	0	0	
1.9480	0.0963286	0.921825	0	
1.9487	-1.44493	0	0	
1.9493	-4.19029	-0.921825	0	
1.9500	-3.87723	0.921825	0	
1.9507	-2.04698	0.921825	0	
1.9513	-2.67312	-0.921825	0	
1.9520	-2.36005	-1.20791	0	
1.9527	-1.758	-0.921825	0	
1.9533	-2.67312	-2.73369	0	
1.9540	-2.67312	-3.65551	0	
1.9547	0.385314	-3.65551	0	
1.9553	2.84169	-2.12973	0	
1.9560	3.75682	0.317871	0	
1.9567	2.21556	-1.52578	0	
1.9573	0.0963286	-5.18129	0	
1.9580	-0.216739	-3.65551	0	
1.9587	-0.529807	0	0	
1.9593	-0.529807	-2.12973	0	
1.9600	1.01145	-3.65551	0	
1.9607	1.01145	-0.921825	0	
1.9613	0.698382	-0.921825	0	
1.9620	4.0458	-3.65551	0	
1.9627	4.35887	-1.52578	0	
1.9633	-0.216739	0	0	
1.9640	-0.842875	-1.84365	0	
1.9647	0.698382	-0.921825	0	
1.9653	-1.13186	0.317871	0	
1.9660	-1.44493	-1.84365	0	
1.9667	0.698382	-1.84365	0	
1.9673	0.698382	0.317871	0	
1.9680	1.6135	-0.317871	0	
1.9687	2.84169	-1.84365	0	
1.9693	2.21556	-0.921825	0	
1.9700	1.92657	-1.20791	0	
1.9707	4.67194	-2.4476	0	
1.9713	5.27399	-1.84365	0	
1.9720	2.84169	-1.84365	0	
1.9727	0.0963286	-2.12973	0	
1.9733	-2.36005	0	0	
1.9740	-4.50336	1.52578	0	
1.9747	-5.70747	0	0	
1.9753	-6.62259	-0.921825	0	
1.9760	-5.41848	-1.52578	0	
1.9767	-2.9621	-1.84365	0	
1.9773	-2.36005	-1.84365	0	
1.9780	-1.44493	-1.84365	0	
1.9787	1.01145	-0.603954	0	
1.9793	1.30044	1.84365	0	
1.9800	1.01145	1.84365	0	
1.9807	1.6135	0.603954	0	
1.9813	1.01145	0.603954	0	
1.9820	-0.216739	0.921825	0	
1.9827	0.0963286	0.603954	0	
1.9833	0.0963286	0.921825	0	
1.9840	-0.216739	3.05156	0	
1.9847	1.01145	4.89521	0	
1.9853	1.30044	3.36943	0	
1.9860	-0.842875	-0.603954	0	
1.9867	-0.216739	-0.317871	0	
1.9873	2.84169	2.73369	0	
1.9880	4.67194	1.84365	0	
1.9887	3.75682	0	0	
1.9893	5.27399	-0.921825	0	
1.9900	8.93448	-2.12973	0	
1.9907	10.1627	-2.4476	0	
1.9913	8.01936	-0.603954	0	
1.9920	5.27399	-1.20791	0	
1.9927	2.84169	-3.65551	0	
1.9933	1.30044	-4.25947	0	
1.9940	0.698382	-3.36943	0	
1.9947	-1.758	-1.52578	0	
1.9953	-3.27517	-1.52578	0	
1.9960	-1.758	-2.12973	0	
1.9967	-2.67312	-0.603954	0	
1.9973	-5.41848	0	0	
1.9980	-5.41848	-1.84365	0	
1.9987	-2.67312	-3.05156	0	
1.9993	0.698382	-3.05156	0	
2.0000	2.52863	-1.84365	0	
2.0007	1.92657	1.84365	0	
2.0013	-0.216739	2.4476	0	
2.0020	-1.13186	-0.921825	0	
2.0027	0.0963286	-1.20791	0	
2.0033	1.6135	0.921825	0	
2.0040	0.385314	0.921825	0	
2.0047	-0.842875	0	0	
2.0053	1.92657	-0.317871	0	
2.0060	5.87605	-0.603954	0	
2.0067	6.18911	0	0	
2.0073	5.27399	0.603954	0	
2.0080	7.10424	-0.317871	0	
2.0087	6.79117	0	0	
2.0093	2.84169	0.921825	0	
2.0100	-0.216739	-1.84365	0	
2.0107	0.385314	-3.36943	0	
2.0113	1.01145	0.317871	0	
2.0120	0.0963286	1.84365	0	
2.0127	-1.44493	-0.317871	0	
2.0133	-2.36005	-2.12973	0	
2.0140	-4.79235	-3.97338	0	
2.0147	-6.93566	-3.65551	0	
2.0153	-5.70747	0.921825	0	
2.0160	-4.19029	0.921825	0	
2.0167	-3.87723	-4.25947	0	
2.0173	-2.36005	-2.73369	0	
2.0180	-0.529807	0.603954	0	
2.0187	-1.13186	-2.73369	0	
2.0193	-1.44493	-3.05156	0	
2.0200	-0.842875	0.921825	0	
2.0207	-2.67312	0.317871	0	
2.0213	-2.67312	-0.921825	0	
2.0220	0.0963286	0.317871	0	
2.0227	-1.13186	-0.317871	0	
2.0233	-4.19029	-2.4476	0	
2.0240	-3.58824	-1.52578	0	
2.0247	-3.58824	0	0	
2.0253	-4.50336	0.921825	0	
2.0260	-1.758	0.921825	0	
2.0267	-1.758	1.20791	0	
2.0273	-5.41848	3.65551	0	
2.0280	-4.50336	3.65551	0	
2.0287	-0.842875	1.84365	0	
2.0293	-1.13186	1.52578	0	
2.0300	-1.13186	1.20791	0	
2.0307	0.698382	-0.921825	0	
2.0313	0.0963286	-1.84365	0	
2.0320	1.01145	-3.05156	0	
2.0327	3.44375	-5.18129	0	
2.0333	3.13068	-3.65551	0	
2.0340	2.84169	-0.921825	0	
2.0347	3.75682	-0.317871	0	
2.0353	4.35887	-1.84365	0	
2.0360	4.67194	-2.4476	0	
2.0367	3.75682	-3.36943	0	
2.0373	1.30044	-2.12973	0	
2.0380	1.01145	0.317871	0	
2.0387	1.30044	0.921825	0	
2.0393	-2.04698	0	0	
2.0400	-5.10542	0.603954	0	
2.0407	-4.19029	2.12973	0	
2.0413	-2.36005	2.73369	0	
2.0420	-2.04698	2.4476	0	
2.0427	-2.9621	2.73369	0	
2.0433	-4.19029	3.97338	0	
2.0440	-3.58824	3.65551	0	
2.0447	-2.67312	1.84365	0	
2.0453	-3.87723	1.84365	0	
2.0460	-3.87723	3.05156	0	
2.0467	-0.842875	1.84365	0	
2.0473	1.92657	1.84365	0	
2.0480	3.13068	3.65551	0	
2.0487	3.75682	1.84365	0	
2.0493	2.84169	-0.317871	0	
2.0500	4.0458	1.84365	0	
2.0507	4.67194	2.12973	0	
2.0513	1.6135	0.317871	0	
2.0520	0.698382	0.921825	0	
2.0527	2.84169	0.317871	0	
2.0533	1.01145	-2.12973	0	
2.0540	-1.44493	-1.20791	0	
2.0547	0.698382	0	0	
2.0553	1.30044	-1.84365	0	
2.0560	-1.13186	-1.84365	0	
2.0567	-2.36005	-0.921825	0	
2.0573	-2.36005	-1.52578	0	
2.0580	-2.67312	-0.603954	0	
2.0587	-2.9621	0	0	
2.0593	-3.27517	-2.4476	0	
2.0600	-2.36005	-1.52578	0	
2.0607	1.30044	1.84365	0	
2.0613	2.84169	0	0	
2.0620	1.6135	-3.65551	0	
2.0627	0.0963286	-0.317871	0	
2.0633	0.385314	3.65551	0	
2.0640	1.6135	2.73369	0	
2.0647	1.01145	0.921825	0	
2.0653	-2.9621	0.603954	0	
2.0660	-5.10542	-0.921825	0	
2.0667	-2.04698	-0.317871	0	
2.0673	0.698382	1.20791	0	
2.0680	0.0963286	-0.603954	0	
2.0687	-0.529807	-1.84365	0	
2.0693	1.01145	0	0	
2.0700	2.84169	-0.603954	0	
2.0707	2.84169	-1.52578	0	
2.0713	1.30044	0	0	
2.0720	1.92657	-0.317871	0	
2.0727	2.21556	-2.73369	0	
2.0733	-0.842875	-2.12973	0	
2.0740	-2.9621	-1.84365	0	
2.0747	-0.842875	-2.73369	0	
2.0753	0.698382	-1.84365	0	
2.0760	-0.842875	0.317871	0	
2.0767	-0.842875	1.20791	0	
2.0773	0.0963286	0.921825	0	
2.0780	1.01145	0.921825	0	
2.0787	1.01145	0.921825	0	
2.0793	-1.13186	0.921825	0	
2.0800	-3.27517	-0.603954	0	
2.0807	-3.87723	-0.317871	0	
2.0813	-7.24873	0.317871	0	
2.0820	-11.5113	-0.921825	0	
2.0827	-9.68103	-1.52578	0	
2.0833	-5.70747	0	0	
2.0840	-5.41848	0	0	
2.0847	-6.02054	-0.921825	0	
2.0853	-5.41848	0	0	
2.0860	-4.79235	0.317871	0	
2.0867	-4.50336	0	0	
2.0873	-4.50336	0	0	
2.0880	-3.87723	-1.84365	0	
2.0887	0.385314	-4.25947	0	
2.0893	2.84169	-3.05156	0	
2.0900	1.01145	-2.4476	0	
2.0907	2.21556	-5.49916	0	
2.0913	4.96092	-5.78524	0	
2.0920	3.75682	-3.36943	0	
2.0927	1.30044	-3.65551	0	
2.0933	1.01145	-4.25947	0	
2.0940	-0.842875	-3.65551	0	
2.0947	-2.36005	-4.57734	0	
2.0953	-1.758	-6.42098	0	
2.0960	-1.758	-4.25947	0	
2.0967	-1.44493	-2.12973	0	
2.0973	0.385314	-2.73369	0	
2.0980	1.01145	-2.73369	0	
2.0987	0.698382	-1.52578	0	
2.0993	-0.216739	0	0	
2.1000	0.0963286	-0.317871	0	
2.1007	3.13068	-0.921825	0	
2.1013	3.75682	-1.84365	0	
2.1020	0.698382	-1.52578	0	
2.1027	2.52863	-0.921825	0	
2.1033	8.33243	-2.12973	0	
2.1040	9.24755	-4.57734	0	
2.1047	7.4173	-3.97338	0	
2.1053	5.58706	-1.84365	0	
2.1060	4.0458	-1.52578	0	
2.1067	4.96092	-1.52578	0	
2.1073	7.4173	-1.52578	0	
2.1080	4.96092	-2.73369	0	
2.1087	1.92657	-3.36943	0	
2.1093	1.92657	-1.20791	0	
2.1100	1.01145	0	0	
2.1107	-3.58824	-0.921825	0	
2.1113	-5.10542	-3.65551	0	
2.1120	-5.41848	-4.57734	0	
2.1127	-8.45284	-2.4476	0	
2.1133	-9.36796	0	0	
2.1140	-4.79235	-2.4476	0	
2.1147	-3.27517	-4.57734	0	
2.1153	-6.62259	-3.36943	0	
2.1160	-6.33361	-1.20791	0	
2.1167	-2.67312	-1.52578	0	
2.1173	-0.842875	-1.52578	0	
2.1180	0.0963286	0	0	
2.1187	1.6135	-0.317871	0	
2.1193	2.84169	-1.84365	0	
2.1200	3.75682	-1.84365	0	
2.1207	2.84169	1.20791	0	
2.1213	1.30044	4.25947	0	
2.1220	1.6135	4.25947	0	
2.1227	2.84169	2.4476	0	
2.1233	2.84169	1.20791	0	
2.1240	4.0458	1.84365	0	
2.1247	3.75682	2.73369	0	
2.1253	1.6135	3.05156	0	
2.1260	0.698382	2.4476	0	
2.1267	1.92657	0.921825	0	
2.1273	1.30044	-0.317871	0	
2.1280	0.0963286	0.603954	0	
2.1287	0.0963286	0.921825	0	
2.1293	0.0963286	-0.921825	0	
2.1300	-0.842875	-1.84365	0	
2.1307	-0.842875	0	0	
2.1313	0.385314	0	0	
2.1320	0.0963286	-0.921825	0	
2.1327	-0.529807	0	0	
2.1333	0.0963286	0	0	
2.1340	1.30044	-1.52578	0	
2.1347	2.84169	0.921825	0	
2.1353	3.13068	3.36943	0	
2.1360	2.52863	1.84365	0	
2.1367	1.30044	0.603954	0	
2.1373	-0.216739	1.52578	0	
2.1380	-2.04698	1.84365	0	
2.1387	-1.758	0.921825	0	
2.1393	-2.36005	0.317871	0	
2.1400	-5.70747	2.12973	0	
2.1407	-7.24873	4.57734	0	
2.1413	-4.50336	3.65551	0	
2.1420	-0.842875	1.52578	0	
2.1427	1.30044	2.4476	0	
2.1433	1.92657	2.4476	0	
2.1440	1.6135	1.52578	0	
2.1447	1.92657	3.65551	0	
2.1453	2.52863	4.57734	0	
2.1460	2.84169	2.73369	0	
2.1467	3.75682	3.36943	0	
2.1473	3.75682	4.57734	0	
2.1480	0.698382	2.12973	0	
2.1487	-2.04698	0.603954	0	
2.1493	-2.36005	1.52578	0	
2.1500	-2.67312	-0.317871	0	
2.1507	-3.58824	-2.12973	0	
2.1513	-3.58824	-0.317871	0	
2.1520	-4.50336	-0.921825	0	
2.1527	-4.50336	-2.73369	0	
2.1533	-2.04698	-0.603954	0	
2.1540	-0.529807	0.603954	0	
2.1547	-2.67312	-1.52578	0	
2.1553	-3.27517	-0.603954	0	
2.1560	0.0963286	1.20791	0	
2.1567	2.52863	-0.921825	0	
2.1573	1.92657	-1.52578	0	
2.1580	2.21556	1.52578	0	
2.1587	2.84169	2.12973	0	
2.1593	1.6135	2.4476	0	
2.1600	0.385314	3.97338	0	
2.1607	1.01145	3.65551	0	
2.1613	0.0963286	2.4476	0	
2.1620	-1.44493	1.84365	0	
2.1627	-0.842875	2.4476	0	
2.1633	1.01145	2.73369	0	
2.1640	1.92657	2.12973	0	
2.1647	3.13068	1.52578	0	
2.1653	3.75682	2.73369	0	
2.1660	2.84169	3.97338	0	
2.1667	3.44375	3.65551	0	
2.1673	4.96092	3.65551	0	
2.1680	3.75682	4.25947	0	
2.1687	2.21556	3.36943	0	
2.1693	1.92657	2.12973	0	
2.1700	0.0963286	1.84365	0	
2.1707	-4.50336	1.84365	0	
2.1713	-5.70747	0.921825	0	
2.1720	-4.50336	-0.603954	0	
2.1727	-4.50336	-0.603954	0	
2.1733	-5.41848	0.317871	0	
2.1740	-5.10542	0	0	
2.1747	-3.58824	-0.921825	0	
2.1753	-2.67312	-1.52578	0	
2.1760	-2.9621	-3.65551	0	
2.1767	-3.87723	-1.84365	0	
2.1773	-2.36005	2.73369	0	
2.1780	1.01145	1.84365	0	
2.1787	2.21556	-1.84365	0	
2.1793	0.698382	0	0	
2.1800	1.01145	1.52578	0	
2.1807	1.92657	-0.921825	0	
2.1813	1.01145	0.921825	0	
2.1820	0.698382	4.57734	0	
2.1827	1.92657	3.65551	0	
2.1833	2.84169	0.921825	0	
2.1840	4.67194	0	0	
2.1847	7.10424	0	0	
2.1853	6.18911	2.73369	0	
2.1860	3.75682	4.57734	0	
2.1867	1.92657	1.84365	0	
2.1873	-1.44493	-0.317871	0	
2.1880	-4.50336	0.921825	0	
2.1887	-6.62259	2.4476	0	
2.1893	-8.7659	1.84365	0	
2.1900	-11.5113	0.921825	0	
2.1907	-14.2566	-0.317871	0	
2.1913	-14.5697	-0.921825	0	
2.1920	-10.9092	0	0	
2.1927	-4.79235	0	0	
2.1933	-2.9621	-1.84365	0	
2.1940	-5.70747	-4.57734	0	
2.1947	-6.93566	-4.25947	0	
2.1953	-4.50336	0.603954	0	
2.1960	-2.67312	3.05156	0	
2.1967	-4.50336	1.20791	0	
2.1973	-5.41848	0	0	
2.1980	-4.50336	1.20791	0	
2.1987	-4.19029	1.20791	0	
2.1993	-4.50336	0	0	
2.2000	-5.41848	-0.921825	0	
2.2007	-7.24873	1.52578	0	
2.2013	-6.93566	4.57734	0	
2.2020	-4.19029	3.65551	0	
2.2027	-3.58824	2.73369	0	
2.2033	-3.58824	4.57734	0	
2.2040	-0.842875	4.57734	0	
2.2047	1.30044	3.36943	0	
2.2053	-0.842875	4.25947	0	
2.2060	-1.44493	4.25947	0	
2.2067	0.698382	2.73369	0	
2.2073	1.92657	0.921825	0	
2.2080	2.52863	-1.52578	0	
2.2087	1.92657	-1.20791	0	
2.2093	0.385314	0.921825	0	
2.2100	1.92657	1.52578	0	
2.2107	4.0458	-0.603954	0	
2.2113	2.21556	-1.84365	0	
2.2120	0.698382	-1.84365	0	
2.2127	2.52863	-1.84365	0	
2.2133	1.01145	-2.12973	0	
2.2140	-1.758	-2.12973	0	
2.2147	-0.216739	-1.52578	0	
2.2153	0.385314	-2.12973	0	
2.2160	-2.67312	-3.05156	0	
2.2167	-2.9621	-2.12973	0	
2.2173	-0.842875	-2.73369	0	
2.2180	-1.13186	-2.73369	0	
2.2187	-2.04698	0.603954	0	
2.2193	-1.13186	2.4476	0	
2.2200	-0.842875	1.20791	0	
2.2207	-2.04698	1.84365	0	
2.2213	-0.842875	1.84365	0	
2.2220	1.92657	-0.317871	0	
2.2227	0.698382	1.52578	0	
2.2233	-1.13186	3.05156	0	
2.2240	1.92657	1.52578	0	
2.2247	3.44375	1.52578	0	
2.2253	2.52863	2.73369	0	
2.2260	4.67194	1.84365	0	
2.2267	8.33243	0.921825	0	
2.2273	8.01936	0.921825	0	
2.2280	7.4173	0.921825	0	
2.2287	6.50218	1.84365	0	
2.2293	3.44375	0.921825	0	
2.2300	3.75682	-1.84365	0	
2.2307	6.50218	-2.73369	0	
2.2313	5.58706	-3.65551	0	
2.2320	2.84169	-4.57734	0	
2.2327	2.84169	-3.65551	0	
2.2333	2.52863	-3.65551	0	
2.2340	1.92657	-3.65551	0	
2.2347	1.6135	-1.20791	0	
2.2353	1.92657	-0.603954	0	
2.2360	1.01145	-3.97338	0	
2.2367	-1.758	-3.97338	0	
2.2373	-5.10542	-0.317871	0	
2.2380	-6.02054	0	0	
2.2387	-6.33361	-1.84365	0	
2.2393	-5.70747	-1.84365	0	
2.2400	-2.36005	-1.20791	0	
2.2407	-1.758	0	0	
2.2413	-4.79235	1.84365	0	
2.2420	-3.58824	2.4476	0	
2.2427	0.698382	1.84365	0	
2.2433	0.385314	1.84365	0	
2.2440	-1.44493	0.317871	0	
2.2447	0.385314	-1.84365	0	
2.2453	2.84169	-2.12973	0	
2.2460	1.92657	-1.20791	0	
2.2467	-0.529807	0	0	
2.2473	-2.67312	1.20791	0	
2.2480	-4.50336	0	0	
2.2487	-4.79235	-3.36943	0	
2.2493	-4.50336	-3.65551	0	
2.2500	-5.10542	-1.20791	0	
2.2507	-4.79235	-1.20791	0	
2.2513	-3.58824	-4.57734	0	
2.2520	-3.27517	-6.42098	0	
2.2527	-2.67312	-3.97338	0	
2.2533	-0.842875	-3.36943	0	
2.2540	1.01145	-5.49916	0	
2.2547	1.6135	-5.78524	0	
2.2553	1.01145	-2.73369	0	
2.2560	-0.842875	-1.20791	0	
2.2567	-2.36005	-3.65551	0	
2.2573	-3.27517	-4.89521	0	
2.2580	-3.58824	-3.05156	0	
2.2587	-2.9621	0	0	
2.2593	-1.44493	-0.317871	0	
2.2600	0.698382	-2.12973	0	
2.2607	2.52863	-1.52578	0	
2.2613	3.13068	0	0	
2.2620	2.52863	0	0	
2.2627	0.698382	-0.317871	0	
2.2633	-0.216739	1.84365	0	
2.2640	1.6135	3.36943	0	
2.2647	2.84169	0.921825	0	
2.2653	1.92657	-0.921825	0	
2.2660	1.92657	0	0	
2.2667	0.385314	1.20791	0	
2.2673	-3.87723	0.317871	0	
2.2680	-1.758	-0.921825	0	
2.2687	3.44375	-0.921825	0	
2.2693	-0.842875	-0.317871	0	
2.2700	-9.07897	-0.921825	0	
2.2707	-9.07897	-1.20791	0	
2.2713	-6.93566	0	0	
2.2720	-6.93566	-2.12973	0	
2.2727	-5.41848	-5.49916	0	
2.2733	-4.19029	-4.25947	0	
2.2740	-4.50336	-1.20791	0	
2.2747	-2.36005	-1.84365	0	
2.2753	0.698382	-1.84365	0	
2.2760	1.01145	-0.603954	0	
2.2767	1.01145	-1.84365	0	
2.2773	2.84169	-2.73369	0	
2.2780	6.18911	-0.921825	0	
2.2787	8.33243	0.921825	0	
2.2793	6.50218	1.84365	0	
2.2800	4.35887	1.20791	0	
2.2807	5.27399	-0.921825	0	
2.2813	5.58706	0	0	
2.2820	3.75682	2.73369	0	
2.2827	4.35887	1.84365	0	
2.2833	4.96092	-0.921825	0	
2.2840	2.84169	-0.921825	0	
2.2847	0.0963286	-0.921825	0	
2.2853	-3.27517	0	0	
2.2860	-6.33361	0	0	
2.2867	-6.33361	-2.12973	0	
2.2873	-5.10542	-3.36943	0	
2.2880	-4.50336	-1.52578	0	
2.2887	-2.67312	-2.12973	0	
2.2893	-0.529807	-3.97338	0	
2.2900	-0.216739	-2.73369	0	
2.2907	1.01145	0	0	
2.2913	2.52863	-0.921825	0	
2.2920	1.01145	-3.05156	0	
2.2927	-0.216739	-3.05156	0	
2.2933	1.01145	-3.65551	0	
2.2940	1.6135	-5.78524	0	
2.2947	1.01145	-3.97338	0	
2.2953	1.6135	0	0	
2.2960	1.30044	0	0	
2.2967	0.0963286	-2.73369	0	
2.2973	0.0963286	-3.65551	0	
2.2980	0.698382	-3.65551	0	
2.2987	0.0963286	-3.65551	0	
2.2993	1.30044	-2.4476	0	
2.3000	2.84169	-0.921825	0	
2.3007	1.30044	0	0	
2.3013	-0.216739	-0.317871	0	
2.3020	2.84169	-0.603954	0	
2.3027	4.67194	0	0	
2.3033	1.92657	1.84365	0	
2.3040	1.01145	2.12973	0	
2.3047	2.84169	1.20791	0	
2.3053	1.92657	0.603954	0	
2.3060	-2.04698	0.921825	0	
2.3067	-3.58824	2.73369	0	
2.3073	-1.758	2.12973	0	
2.3080	0.385314	-1.20791	0	
2.3087	1.6135	-2.12973	0	
2.3093	1.6135	-0.317871	0	
2.3100	1.01145	-0.317871	0	
2.3107	0.0963286	-0.921825	0	
2.3113	-1.13186	-0.921825	0	
2.3120	-1.44493	-0.921825	0	
2.3127	-2.04698	0	0	
2.3133	-4.19029	0	0	
2.3140	-5.10542	-1.84365	0	
2.3147	-4.50336	-2.12973	0	
2.3153	-4.50336	-1.52578	0	
2.3160	-3.87723	-1.84365	0	
2.3167	-2.67312	-1.20791	0	
2.3173	-0.842875	-0.921825	0	
2.3180	0.698382	-2.4476	0	
2.3187	1.92657	-2.4476	0	
2.3193	1.30044	-0.317871	0	
2.3200	1.30044	0.603954	0	
2.3207	2.52863	1.20791	0	
2.3213	3.75682	0.603954	0	
2.3220	3.13068	-1.20791	0	
2.3227	2.21556	1.20791	0	
2.3233	1.92657	4.89521	0	
2.3240	1.6135	2.73369	0	
2.3247	1.01145	-0.921825	0	
2.3253	0.0963286	0.317871	0	
2.3260	0.698382	0.921825	0	
2.3267	1.6135	0.921825	0	
2.3273	-0.216739	3.36943	0	
2.3280	-3.87723	2.73369	0	
2.3287	-4.50336	-0.921825	0	
2.3293	-3.58824	-0.921825	0	
2.3300	-3.58824	1.20791	0	
2.3307	-3.58824	0.317871	0	
2.3313	-0.842875	-2.4476	0	
2.3320	0.698382	-3.05156	0	
2.3327	-0.529807	-2.73369	0	
2.3333	-1.758	-2.12973	0	
2.3340	-0.842875	-2.4476	0	
2.3347	0.0963286	-2.73369	0	
2.3353	0.0963286	-3.05156	0	
2.3360	0.385314	-3.65551	0	
2.3367	-0.842875	-2.4476	0	
2.3373	-3.58824	0	0	
2.3380	-1.758	-0.317871	0	
2.3387	2.84169	-2.12973	0	
2.3393	4.35887	-1.52578	0	
2.3400	4.35887	0.317871	0	
2.3407	4.67194	0	0	
2.3413	4.67194	0	0	
2.3420	5.58706	0.921825	0	
2.3427	8.01936	1.20791	0	
2.3433	6.79117	2.12973	0	
2.3440	5.27399	3.05156	0	
2.3447	7.10424	2.73369	0	
2.3453	8.01936	0.921825	0	
2.3460	5.58706	0	0	
2.3467	5.27399	0	0	
2.3473	4.35887	1.20791	0	
2.3480	-0.842875	0.921825	0	
2.3487	-4.50336	-0.603954	0	
2.3493	-2.67312	-0.921825	0	
2.3500	-0.842875	-0.317871	0	
2.3507	-3.27517	0.317871	0	
2.3513	-6.62259	0.317871	0	
2.3520	-8.7659	-0.317871	0	
2.3527	-10.2831	-1.20791	0	
2.3533	-11.8243	-1.52578	0	
2.3540	-11.1982	-2.4476	0	
2.3547	-8.45284	-3.65551	0	
2.3553	-6.62259	-3.65551	0	
2.3560	-7.53771	-2.73369	0	
2.3567	-8.16385	-1.52578	0	
2.3573	-6.62259	-0.921825	0	
2.3580	-5.41848	-0.317871	0	
2.3587	-4.50336	0	0	
2.3593	-2.67312	0	0	
2.3600	-3.58824	0	0	
2.3607	-4.19029	2.4476	0	
2.3613	0.385314	5.18129	0	
2.3620	4.67194	4.57734	0	
2.3627	6.18911	2.73369	0	
2.3633	7.70629	2.73369	0	
2.3640	8.33243	2.73369	0	
2.3647	5.58706	2.12973	0	
2.3653	5.58706	1.84365	0	
2.3660	8.33243	0.317871	0	
2.3667	8.33243	-0.603954	0	
2.3673	4.35887	0.921825	0	
2.3680	-1.758	1.84365	0	
2.3687	-6.02054	1.84365	0	
2.3693	-6.33361	1.84365	0	
2.3700	-7.85078	-0.921825	0	
2.3707	-10.9092	-3.65551	0	
2.3713	-10.9092	-1.52578	0	
2.3720	-7.53771	1.84365	0	
2.3727	-5.10542	0	0	
2.3733	-2.9621	-2.73369	0	
2.3740	-2.67312	-3.65551	0	
2.3747	-3.58824	-2.73369	0	
2.3753	-1.758	-1.84365	0	
2.3760	1.01145	-1.84365	0	
2.3767	1.92657	-1.84365	0	
2.3773	2.21556	-1.52578	0	
2.3780	3.75682	-1.52578	0	
2.3787	4.67194	-1.84365	0	
2.3793	4.67194	-0.921825	0	
2.3800	5.87605	-0.921825	0	
2.3807	7.10424	-2.73369	0	
2.3813	5.58706	-2.12973	0	
2.3820	3.75682	1.20791	0	
2.3827	3.75682	1.84365	0	
2.3833	4.0458	-1.52578	0	
2.3840	3.75682	-2.4476	0	
2.3847	1.92657	0.921825	0	
2.3853	-1.44493	2.4476	0	
2.3860	-2.67312	-0.603954	0	
2.3867	-1.13186	-3.05156	0	
2.3873	-0.842875	-0.317871	0	
2.3880	-2.9621	0.603954	0	
2.3887	-4.50336	-3.05156	0	
2.3893	-4.19029	-3.97338	0	
2.3900	-2.67312	-3.36943	0	
2.3907	-1.758	-5.18129	0	
2.3913	-0.842875	-4.89521	0	
2.3920	1.01145	-2.73369	0	
2.3927	1.30044	-2.73369	0	
2.3933	1.01145	-1.52578	0	
2.3940	2.21556	0.921825	0	
2.3947	2.84169	-2.73369	0	
2.3953	2.84169	-6.10311	0	
2.3960	1.6135	-5.18129	0	
2.3967	-0.529807	-4.57734	0	
2.3973	-0.842875	-2.73369	0	
2.3980	0.0963286	-0.921825	0	
2.3987	-0.529807	-3.05156	0	
2.3993	-0.842875	-1.52578	0	
2.4000	0.385314	2.73369	0	
2.4007	0.0963286	1.20791	0	
2.4013	-0.529807	0.317871	0	
2.4020	1.01145	1.20791	0	
2.4027	1.92657	-0.921825	0	
2.4033	2.84169	1.52578	0	
2.4040	2.21556	7.31102	0	
2.4047	-0.842875	4.25947	0	
2.4053	-1.44493	0	0	
2.4060	1.01145	1.52578	0	
2.4067	-0.529807	1.52578	0	
2.4073	-2.9621	0.317871	0	
2.4080	-0.529807	0.921825	0	
2.4087	1.92657	-0.921825	0	
2.4093	2.21556	-0.921825	0	
2.4100	2.52863	1.20791	0	
2.4107	1.30044	-1.84365	0	
2.4113	1.01145	-3.65551	0	
2.4120	3.75682	-1.52578	0	
2.4127	4.35887	-3.65551	0	
2.4133	2.52863	-7.02494	0	
2.4140	4.35887	-5.18129	0	
2.4147	6.50218	-3.65551	0	
2.4153	2.84169	-3.65551	0	
2.4160	1.01145	-2.73369	0	
2.4167	2.84169	-4.57734	0	
2.4173	2.21556	-6.42098	0	
2.4180	-0.842875	-3.36943	0	
2.4187	-0.842875	-1.84365	0	
2.4193	-2.36005	-3.36943	0	
2.4200	-5.10542	-2.73369	0	
2.4207	-3.27517	-1.20791	0	
2.4213	-0.842875	-0.921825	0	
2.4220	-2.67312	0.603954	0	
2.4227	-4.50336	0.603954	0	
2.4233	-4.50336	0.317871	0	
2.4240	-5.10542	2.4476	0	
2.4247	-6.33361	2.12973	0	
2.4253	-5.41848	-0.921825	0	
2.4260	-4.19029	-2.12973	0	
2.4267	-2.67312	-1.84365	0	
2.4273	-0.842875	-2.12973	0	
2.4280	0.385314	-3.36943	0	
2.4287	1.30044	-3.36943	0	
2.4293	1.01145	-1.20791	0	
2.4300	-0.529807	0.317871	0	
2.4307	-1.13186	-0.921825	0	
2.4313	0.385314	-2.73369	0	
2.4320	1.92657	-2.4476	0	
2.4327	2.21556	-2.12973	0	
2.4333	2.84169	-1.84365	0	
2.4340	2.52863	-1.20791	0	
2.4347	1.92657	-0.921825	0	
2.4353	2.84169	-0.317871	0	
2.4360	-0.842875	0	0	
2.4367	-8.16385	0.603954	0	
2.4373	-8.7659	1.20791	0	
2.4380	-3.58824	0.921825	0	
2.4387	-3.87723	-0.603954	0	
2.4393	-6.33361	-0.921825	0	
2.4400	-3.58824	0	0	
2.4407	-0.529807	1.20791	0	
2.4413	0.0963286	1.52578	0	
2.4420	2.21556	0.603954	0	
2.4427	3.13068	0.317871	0	
2.4433	3.44375	2.12973	0	
2.4440	5.87605	2.73369	0	
2.4447	6.18911	1.52578	0	
2.4453	2.84169	1.52578	0	
2.4460	2.84169	1.84365	0	
2.4467	4.96092	1.84365	0	
2.4473	4.67194	2.73369	0	
2.4480	2.84169	2.12973	0	
2.4487	1.01145	0.603954	0	
2.4493	0.0963286	1.84365	0	
2.4500	1.01145	2.12973	0	
2.4507	2.21556	-0.921825	0	
2.4513	2.21556	-1.52578	0	
2.4520	0.385314	1.20791	0	
2.4527	-1.44493	0.921825	0	
2.4533	-1.758	-0.317871	0	
2.4540	-2.04698	0	0	
2.4547	-3.27517	-1.84365	0	
2.4553	-4.19029	-3.05156	0	
2.4560	-6.02054	-0.317871	0	
2.4567	-8.45284	0.603954	0	
2.4573	-8.45284	-0.921825	0	
2.4580	-6.93566	-0.921825	0	
2.4587	-6.33361	0	0	
2.4593	-5.70747	1.52578	0	
2.4600	-5.10542	3.05156	0	
2.4607	-5.41848	1.20791	0	
2.4613	-3.58824	-2.4476	0	
2.4620	-2.36005	-2.12973	0	
2.4627	-4.50336	0.921825	0	
2.4633	-4.19029	2.73369	0	
2.4640	-0.216739	2.73369	0	
2.4647	1.30044	1.52578	0	
2.4653	1.6135	0	0	
2.4660	1.92657	-0.921825	0	
2.4667	0.0963286	-1.84365	0	
2.4673	-1.758	-1.84365	0	
2.4680	-0.842875	0	0	
2.4687	1.92657	1.52578	0	
2.4693	4.35887	1.84365	0	
2.4700	6.18911	0.921825	0	
2.4707	4.67194	-1.84365	0	
2.4713	2.52863	-3.05156	0	
2.4720	4.0458	-1.84365	0	
2.4727	7.10424	-1.20791	0	
2.4733	7.10424	-0.921825	0	
2.4740	6.18911	-0.603954	0	
2.4747	7.70629	-1.20791	0	
2.4753	9.24755	-0.921825	0	
2.4760	8.62141	0.603954	0	
2.4767	8.01936	-0.317871	0	
2.4773	8.33243	-1.52578	0	
2.4780	7.10424	-0.603954	0	
2.4787	5.58706	0.921825	0	
2.4793	3.44375	0.317871	0	
2.4800	0.385314	0	0	
2.4807	-1.44493	-0.317871	0	
2.4813	-1.13186	0.921825	0	
2.4820	-3.58824	2.12973	0	
2.4827	-6.33361	2.12973	0	
2.4833	-6.33361	1.52578	0	
2.4840	-4.50336	1.84365	0	
2.4847	-3.87723	2.4476	0	
2.4853	-4.50336	3.05156	0	
2.4860	-4.19029	3.65551	0	
2.4867	-0.529807	3.97338	0	
2.4873	1.92657	2.73369	0	
2.4880	0.385314	0	0	
2.4887	0.0963286	-0.317871	0	
2.4893	1.01145	1.84365	0	
2.4900	-0.842875	1.84365	0	
2.4907	-2.36005	0.603954	0	
2.4913	-2.36005	0.921825	0	
2.4920	-2.67312	0.921825	0	
2.4927	-1.13186	-1.20791	0	
2.4933	-0.842875	-2.73369	0	
2.4940	-3.58824	-1.84365	0	
2.4947	-4.50336	-0.603954	0	
2.4953	-2.04698	-0.921825	0	
2.4960	-1.758	-2.12973	0	
2.4967	-2.36005	0	0	
2.4973	-0.216739	0.603954	0	
2.4980	1.01145	-1.84365	0	
2.4987	-0.529807	-0.317871	0	
2.4993	-0.842875	3.36943	0	
2.5000	-0.842875	1.20791	0	
2.5007	-2.04698	-0.603954	0	
2.5013	-2.36005	1.84365	0	
2.5020	-0.842875	1.52578	0	
2.5027	-0.216739	-0.317871	0	
2.5033	-0.842875	1.84365	0	
2.5040	-1.758	3.65551	0	
2.5047	-0.216739	3.05156	0	
2.5053	3.44375	3.05156	0	
2.5060	4.67194	2.73369	0	
2.5067	1.92657	1.84365	0	
2.5073	-0.842875	2.73369	0	
2.5080	-0.842875	1.84365	0	
2.5087	-0.529807	-0.603954	0	
2.5093	1.30044	-0.603954	0	
2.5100	1.92657	-0.317871	0	
2.5107	0.698382	-1.84365	0	
2.5113	2.84169	-2.73369	0	
2.5120	6.18911	-3.65551	0	
2.5127	7.10424	-4.57734	0	
2.5133	6.79117	-1.84365	0	
2.5140	5.87605	0.603954	0	
2.5147	3.75682	-1.20791	0	
2.5153	3.13068	-1.84365	0	
2.5160	1.92657	0.317871	0	
2.5167	-3.58824	-0.921825	0	
2.5173	-4.79235	-2.4476	0	
2.5180	-4.50336	0	0	
2.5187	-8.7659	0	0	
2.5193	-11.5113	-2.12973	0	
2.5200	-9.36796	-1.20791	0	
2.5207	-11.1982	0	0	
2.5213	-13.6546	-1.84365	0	
2.5220	-9.99409	-0.921825	0	
2.5227	-6.33361	2.12973	0	
2.5233	-6.02054	1.52578	0	
2.5240	-5.41848	0.603954	0	
2.5247	-6.02054	0.317871	0	
2.5253	-6.33361	-0.921825	0	
2.5260	-2.67312	0.603954	0	
2.5267	0.0963286	3.65551	0	
2.5273	-1.758	1.84365	0	
2.5280	-2.9621	-1.84365	0	
2.5287	-1.758	-1.84365	0	
2.5293	-1.758	-0.317871	0	
2.5300	-2.36005	0.921825	0	
2.5307	0.385314	1.52578	0	
2.5313	2.84169	0	0	
2.5320	1.01145	-1.52578	0	
2.5327	-0.529807	-3.36943	0	
2.5333	2.52863	-3.65551	0	
2.5340	2.84169	0	0	
2.5347	1.01145	1.84365	0	
2.5353	1.92657	-3.36943	0	
2.5360	1.6135	-4.89521	0	
2.5367	-1.13186	-2.73369	0	
2.5373	0.0963286	-3.05156	0	
2.5380	2.52863	-3.05156	0	
2.5387	1.6135	-0.603954	0	
2.5393	2.21556	-0.921825	0	
2.5400	2.21556	-1.84365	0	
2.5407	-0.842875	-0.317871	0	
2.5413	-0.216739	-1.20791	0	
2.5420	2.52863	-0.921825	0	
2.5427	1.92657	2.12973	0	
2.5433	1.6135	0.317871	0	
2.5440	2.84169	-3.36943	0	
2.5447	3.44375	-1.84365	0	
2.5453	3.44375	0	0	
2.5460	3.75682	-1.52578	0	
2.5467	4.67194	-2.73369	0	
2.5473	5.27399	-2.12973	0	
2.5480	4.96092	-0.921825	0	
2.5487	4.35887	0.317871	0	
2.5493	3.75682	0.603954	0	
2.5500	2.52863	-0.921825	0	
2.5507	1.30044	-3.36943	0	
2.5513	1.6135	-4.25947	0	
2.5520	0.385314	-3.65551	0	
2.5527	-4.50336	-1.20791	0	
2.5533	-8.16385	0	0	
2.5540	-6.93566	-1.84365	0	
2.5547	-2.9621	-4.25947	0	
2.5553	-1.758	-3.36943	0	
2.5560	-3.58824	-0.603954	0	
2.5567	-5.41848	-1.20791	0	
2.5573	-4.19029	-2.73369	0	
2.5580	-1.758	-1.84365	0	
2.5587	-1.44493	0.317871	0	
2.5593	-0.842875	0.921825	0	
2.5600	1.92657	0	0	
2.5607	2.21556	-1.20791	0	
2.5613	0.0963286	-0.921825	0	
2.5620	0.385314	1.52578	0	
2.5627	0.698382	1.52578	0	
2.5633	-2.67312	-0.921825	0	
2.5640	-3.58824	-0.317871	0	
2.5647	-1.758	0.921825	0	
2.5653	0.0963286	-1.84365	0	
2.5660	3.75682	-3.65551	0	
2.5667	7.4173	-0.603954	0	
2.5673	7.10424	1.84365	0	
2.5680	4.67194	0.921825	0	
2.5687	2.84169	0.317871	0	
2.5693	-0.216739	-0.921825	0	
2.5700	-3.27517	-2.12973	0	
2.5707	-3.58824	-2.12973	0	
2.5713	-1.13186	-1.84365	0	
2.5720	-0.842875	-2.73369	0	
2.5727	-3.58824	-2.73369	0	
2.5733	-3.58824	-2.73369	0	
2.5740	-1.758	-2.4476	0	
2.5747	-2.36005	-0.921825	0	
2.5753	-2.67312	-1.20791	0	
2.5760	-1.758	-3.65551	0	
2.5767	-2.9621	-3.65551	0	
2.5773	-1.758	-1.20791	0	
2.5780	1.92657	0	0	
2.5787	1.30044	0	0	
2.5793	0.385314	0	0	
2.5800	3.75682	0	0	
2.5807	3.75682	-2.4476	0	
2.5813	-0.216739	-2.4476	0	
2.5820	-0.842875	0	0	
2.5827	0.698382	0.603954	0	
2.5833	2.52863	-0.921825	0	
2.5840	5.58706	-0.921825	0	
2.5847	7.10424	-1.20791	0	
2.5853	5.27399	-1.84365	0	
2.5860	4.35887	-0.317871	0	
2.5867	4.67194	0.921825	0	
2.5873	4.35887	0.317871	0	
2.5880	4.67194	0.317871	0	
2.5887	4.96092	-0.921825	0	
2.5893	3.75682	-1.84365	0	
2.5900	0.0963286	0	0	
2.5907	-4.50336	1.84365	0	
2.5913	-8.16385	0	0	
2.5920	-10.9092	-3.36943	0	
2.5927	-11.5113	-3.36943	0	
2.5933	-10.5961	-0.921825	0	
2.5940	-10.9092	0	0	
2.5947	-10.9092	0	0	
2.5953	-9.68103	-0.317871	0	
2.5960	-9.68103	-2.4476	0	
2.5967	-10.9092	-4.89521	0	
2.5973	-10.9092	-2.12973	0	
2.5980	-9.99409	2.73369	0	
2.5987	-7.24873	1.84365	0	
2.5993	-4.79235	-1.84365	0	
2.6000	-3.58824	-1.84365	0	
2.6007	-2.67312	0.317871	0	
2.6013	-1.44493	0.921825	0	
2.6020	-1.758	0.921825	0	
2.6027	0.698382	0	0	
2.6033	4.67194	0.921825	0	
2.6040	4.35887	3.36943	0	
2.6047	2.84169	3.05156	0	
2.6053	4.35887	-0.603954	0	
2.6060	2.84169	-2.4476	0	
2.6067	1.01145	-0.921825	0	
2.6073	1.92657	-0.603954	0	
2.6080	1.92657	-2.73369	0	
2.6087	-0.842875	-0.921825	0	
2.6093	-1.758	2.12973	0	
2.6100	-2.9621	0.317871	0	
2.6107	-4.79235	-2.4476	0	
2.6113	-3.58824	-1.20791	0	
2.6120	-2.36005	-1.84365	0	
2.6127	-3.87723	-3.97338	0	
2.6133	-2.67312	-2.73369	0	
2.6140	1.6135	-2.4476	0	
2.6147	2.84169	-4.89521	0	
2.6153	2.52863	-4.57734	0	
2.6160	5.27399	-3.36943	0	
2.6167	6.50218	-4.57734	0	
2.6173	4.0458	-3.65551	0	
2.6180	3.44375	0	0	
2.6187	4.67194	-0.921825	0	
2.6193	4.35887	-2.12973	0	
2.6200	3.75682	-1.52578	0	
2.6207	4.35887	-2.12973	0	
2.6213	4.0458	-1.84365	0	
2.6220	6.79117	0.921825	0	
2.6227	10.1627	1.20791	0	
2.6233	8.33243	1.52578	0	
2.6240	5.27399	2.4476	0	
2.6247	6.18911	0.317871	0	
2.6253	5.58706	-1.20791	0	
2.6260	2.52863	0	0	
2.6267	1.6135	-0.317871	0	
2.6273	2.84169	-0.603954	0	
2.6280	3.13068	1.52578	0	
2.6287	1.6135	0.921825	0	
2.6293	-1.13186	-2.12973	0	
2.6300	-2.9621	-2.12973	0	
2.6307	-1.758	-1.84365	0	
2.6313	-0.842875	-3.65551	0	
2.6320	-2.36005	-3.97338	0	
2.6327	-4.50336	-1.84365	0	
2.6333	-5.41848	-0.921825	0	
2.6340	-4.19029	-2.12973	0	
2.6347	-4.50336	-3.65551	0	
2.6353	-7.24873	-3.97338	0	
2.6360	-8.16385	-2.73369	0	
2.6367	-5.10542	-0.921825	0	
2.6373	-4.19029	-1.52578	0	
2.6380	-7.85078	-1.84365	0	
2.6387	-8.7659	0.317871	0	
2.6393	-5.41848	2.12973	0	
2.6400	-2.67312	2.12973	0	
2.6407	-1.44493	1.20791	0	
2.6413	0.698382	0.603954	0	
2.6420	1.6135	0.921825	0	
2.6427	1.92657	1.20791	0	
2.6433	3.13068	0.921825	0	
2.6440	4.67194	0.921825	0	
2.6447	4.35887	2.4476	0	
2.6453	3.44375	2.12973	0	
2.6460	2.84169	-0.603954	0	
2.6467	1.92657	-1.84365	0	
2.6473	1.92657	-0.921825	0	
2.6480	1.92657	0	0	
2.6487	1.01145	-1.84365	0	
2.6493	1.01145	-1.20791	0	
2.6500	2.84169	0	0	
2.6507	4.35887	-1.84365	0	
2.6513	4.0458	-3.05156	0	
2.6520	2.84169	-0.603954	0	
2.6527	2.21556	-0.921825	0	
2.6533	1.01145	-5.49916	0	
2.6540	0.698382	-7.31102	0	
2.6547	2.84169	-4.89521	0	
2.6553	4.67194	-1.84365	0	
2.6560	3.13068	0.603954	0	
2.6567	0.385314	-0.317871	0	
2.6573	0.0963286	-0.921825	0	
2.6580	0.0963286	1.20791	0	
2.6587	0.0963286	1.84365	0	
2.6593	0.0963286	0.317871	0	
2.6600	-1.758	0.603954	0	
2.6607	-4.50336	-0.921825	0	
2.6613	-3.58824	-1.84365	0	
2.6620	-2.36005	2.12973	0	
2.6627	-3.87723	3.97338	0	
2.6633	-4.19029	1.20791	0	
2.6640	-2.67312	1.20791	0	
2.6647	-3.87723	1.20791	0	
2.6653	-6.93566	-1.52578	0	
2.6660	-7.24873	-1.20791	0	
2.6667	-5.10542	-0.317871	0	
2.6673	-3.87723	-1.84365	0	
2.6680	-4.79235	0	0	
2.6687	-5.41848	2.12973	0	
2.6693	-2.04698	-2.73369	0	
2.6700	0.698382	-4.89521	0	
2.6707	-0.216739	-0.921825	0	
2.6713	-0.216739	-0.921825	0	
2.6720	1.92657	-4.57734	0	
2.6727	2.84169	-3.97338	0	
2.6733	4.0458	-1.52578	0	
2.6740	5.58706	-2.4476	0	
2.6747	3.75682	-3.65551	0	
2.6753	0.385314	-3.65551	0	
2.6760	0.0963286	-2.73369	0	
2.6767	0.385314	-1.84365	0	
2.6773	-0.529807	-0.921825	0	
2.6780	-0.216739	-0.317871	0	
2.6787	1.01145	1.20791	0	
2.6793	1.92657	2.73369	0	
2.6800	1.92657	3.65551	0	
2.6807	2.84169	3.65551	0	
2.6813	3.44375	2.73369	0	
2.6820	2.21556	3.65551	0	
2.6827	0.698382	3.65551	0	
2.6833	1.01145	2.73369	0	
2.6840	1.30044	2.73369	0	
2.6847	-0.842875	2.4476	0	
2.6853	-1.758	0.317871	0	
2.6860	-2.04698	0.317871	0	
2.6867	-2.67312	2.73369	0	
2.6873	-2.67312	3.36943	0	
2.6880	-3.58824	3.36943	0	
2.6887	-5.10542	1.84365	0	
2.6893	-4.50336	-0.317871	0	
2.6900	-5.10542	-0.317871	0	
2.6907	-6.33361	-0.317871	0	
2.6913	-3.58824	-2.12973	0	
2.6920	-1.13186	-0.603954	0	
2.6927	-3.87723	1.20791	0	
2.6933	-4.50336	-1.84365	0	
2.6940	-2.04698	-1.84365	0	
2.6947	-1.758	1.52578	0	
2.6953	-1.44493	-0.603954	0	
2.6960	1.01145	-3.65551	0	
2.6967	0.0963286	-2.12973	0	
2.6973	-2.04698	-1.84365	0	
2.6980	0.0963286	-0.921825	0	
2.6987	1.01145	3.65551	0	
2.6993	-0.842875	3.97338	0	
2.7000	-0.842875	1.20791	0	
2.7007	0.0963286	2.4476	0	
2.7013	1.30044	2.12973	0	
2.7020	3.75682	0.317871	0	
2.7027	6.50218	2.73369	0	
2.7033	8.33243	4.25947	0	
2.7040	9.8496	1.52578	0	
2.7047	10.7647	1.52578	0	
2.7053	10.1627	3.05156	0	
2.7060	10.1627	2.12973	0	
2.7067	8.33243	2.12973	0	
2.7073	4.0458	2.73369	0	
2.7080	1.92657	1.52578	0	
2.7087	1.30044	1.52578	0	
2.7093	-1.44493	2.12973	0	
2.7100	-3.58824	0.317871	0	
2.7107	-4.50336	-0.921825	0	
2.7113	-7.24873	0.921825	0	
2.7120	-10.2831	2.73369	0	
2.7127	-10.5961	1.84365	0	
2.7133	-10.2831	-1.84365	0	
2.7140	-10.2831	-3.65551	0	
2.7147	-7.24873	-2.73369	0	
2.7153	-2.9621	-1.84365	0	
2.7160	-2.36005	-0.603954	0	
2.7167	-3.87723	-0.317871	0	
2.7173	-4.50336	-0.921825	0	
2.7180	-3.58824	-0.603954	0	
2.7187	-1.13186	-0.921825	0	
2.7193	-0.842875	-2.73369	0	
2.7200	-1.44493	-1.84365	0	
2.7207	0.698382	0.921825	0	
2.7213	3.75682	0.921825	0	
2.7220	4.0458	1.20791	0	
2.7227	4.35887	2.73369	0	
2.7233	5.58706	2.12973	0	
2.7240	4.67194	1.84365	0	
2.7247	2.52863	2.12973	0	
2.7253	0.0963286	-0.603954	0	
2.7260	-2.67312	-0.921825	0	
2.7267	-2.67312	1.84365	0	
2.7273	-0.216739	1.84365	0	
2.7280	1.01145	0.603954	0	
2.7287	0.0963286	1.20791	0	
2.7293	-0.842875	0.921825	0	
2.7300	0.0963286	-0.921825	0	
2.7307	0.385314	-0.603954	0	
2.7313	-2.04698	0	0	
2.7320	-2.9621	-2.73369	0	
2.7327	0.0963286	-4.57734	0	
2.7333	1.01145	-3.65551	0	
2.7340	0.385314	-2.73369	0	
2.7347	2.84169	-2.73369	0	
2.7353	2.84169	-2.4476	0	
2.7360	-0.842875	-2.4476	0	
2.7367	-0.216739	-2.12973	0	
2.7373	2.84169	-0.921825	0	
2.7380	1.6135	-1.84365	0	
2.7387	2.52863	-3.65551	0	
2.7393	5.87605	-1.52578	0	
2.7400	3.75682	1.20791	0	
2.7407	1.6135	0	0	
2.7413	4.96092	-0.317871	0	
2.7420	6.50218	0.921825	0	
2.7427	3.75682	1.84365	0	
2.7433	4.0458	1.84365	0	
2.7440	6.79117	1.52578	0	
2.7447	8.33243	0	0	
2.7453	8.93448	0.921825	0	
2.7460	8.01936	1.84365	0	
2.7467	5.58706	0.603954	0	
2.7473	6.18911	1.20791	0	
2.7480	7.4173	3.36943	0	
2.7487	4.35887	2.4476	0	
2.7493	1.01145	0.921825	0	
2.7500	-0.842875	0.921825	0	
2.7507	-2.04698	0	0	
2.7513	-2.67312	-1.84365	0	
2.7520	-3.87723	-1.84365	0	
2.7527	-7.85078	-1.52578	0	
2.7533	-10.2831	-1.84365	0	
2.7540	-11.1982	-1.84365	0	
2.7547	-13.3415	-1.84365	0	
2.7553	-12.1133	-2.12973	0	
2.7560	-6.33361	-2.4476	0	
2.7567	-3.58824	-0.921825	0	
2.7573	-2.67312	0.603954	0	
2.7580	1.92657	-0.603954	0	
2.7587	5.27399	-0.921825	0	
2.7593	4.96092	0.317871	0	
2.7600	4.67194	0.921825	0	
2.7607	3.13068	1.52578	0	
2.7613	1.01145	3.05156	0	
2.7620	1.6135	1.84365	0	
2.7627	2.84169	0	0	
2.7633	2.52863	1.52578	0	
2.7640	1.01145	2.73369	0	
2.7647	-0.216739	1.84365	0	
2.7653	-1.758	1.84365	0	
2.7660	-1.758	2.73369	0	
2.7667	-1.758	0.921825	0	
2.7673	-3.27517	-0.921825	0	
2.7680	-4.50336	0	0	
2.7687	-4.19029	-0.317871	0	
2.7693	-5.10542	-3.65551	0	
2.7700	-8.16385	-5.49916	0	
2.7707	-9.99409	-3.97338	0	
2.7713	-9.36796	-2.73369	0	
2.7720	-8.16385	-3.65551	0	
2.7727	-4.50336	-3.65551	0	
2.7733	0.0963286	-2.73369	0	
2.7740	1.01145	-1.84365	0	
2.7747	-1.44493	-1.20791	0	
2.7753	-0.216739	-0.317871	0	
2.7760	2.84169	-0.603954	0	
2.7767	1.92657	-0.921825	0	
2.7773	-2.04698	-0.317871	0	
2.7780	-0.842875	-0.603954	0	
2.7787	2.84169	-1.84365	0	
2.7793	2.21556	-2.4476	0	
2.7800	-0.529807	-1.52578	0	
2.7807	0.385314	-0.921825	0	
2.7813	2.84169	-0.317871	0	
2.7820	2.52863	1.20791	0	
2.7827	1.6135	1.52578	0	
2.7833	1.6135	0.317871	0	
2.7840	1.01145	0	0	
2.7847	0.0963286	0	0	
2.7853	1.01145	-0.921825	0	
2.7860	2.52863	-1.52578	0	
2.7867	2.84169	0	0	
2.7873	3.44375	0.603954	0	
2.7880	3.75682	-0.603954	0	
2.7887	1.01145	-1.20791	0	
2.7893	0.0963286	-1.52578	0	
2.7900	3.44375	-1.52578	0	
2.7907	3.75682	-1.84365	0	
2.7913	0.698382	-3.05156	0	
2.7920	0.385314	-3.65551	0	
2.7927	-0.529807	-2.73369	0	
2.7933	-5.10542	-2.12973	0	
2.7940	-7.24873	-3.97338	0	
2.7947	-5.10542	-3.97338	0	
2.7953	-3.58824	-1.84365	0	
2.7960	-4.50336	-0.921825	0	
2.7967	-3.87723	-0.603954	0	
2.7973	-0.842875	0.317871	0	
2.7980	1.01145	-0.921825	0	
2.7987	-0.842875	-2.4476	0	
2.7993	-1.758	-1.20791	0	
2.8000	-0.529807	-2.73369	0	
2.8007	-1.758	-4.25947	0	
2.8013	-0.529807	-1.84365	0	
2.8020	4.67194	0.921825	0	
2.8027	7.4173	0	0	
2.8033	6.50218	1.52578	0	
2.8040	5.58706	3.65551	0	
2.8047	4.67194	3.65551	0	
2.8053	4.96092	3.65551	0	
2.8060	6.50218	2.73369	0	
2.8067	3.75682	0	0	
2.8073	-2.04698	1.52578	0	
2.8080	-3.87723	3.65551	0	
2.8087	-2.67312	0.921825	0	
2.8093	-4.19029	-2.12973	0	
2.8100	-6.62259	-3.05156	0	
2.8107	-6.93566	-4.57734	0	
2.8113	-7.53771	-4.89521	0	
2.8120	-8.45284	-3.05156	0	
2.8127	-5.41848	-2.12973	0	
2.8133	-1.758	-2.73369	0	
2.8140	-2.36005	-4.25947	0	
2.8147	-3.87723	-5.49916	0	
2.8153	-2.04698	-3.65551	0	
2.8160	1.01145	-1.20791	0	
2.8167	0.698382	0	0	
2.8173	-1.13186	0.921825	0	
2.8180	-0.216739	-0.317871	0	
2.8187	1.6135	-3.05156	0	
2.8193	-0.842875	-2.73369	0	
2.8200	-3.27517	0	0	
2.8207	-2.36005	0.317871	0	
2.8213	-2.9621	-1.20791	0	
2.8220	-5.10542	0	0	
2.8227	-2.67312	2.73369	0	
2.8233	0.0963286	1.84365	0	
2.8240	-0.842875	0	0	
2.8247	-0.842875	1.20791	0	
2.8253	-0.529807	1.20791	0	
2.8260	-0.842875	-0.921825	0	
2.8267	1.01145	1.20791	0	
2.8273	1.92657	3.36943	0	
2.8280	-0.842875	0.603954	0	
2.8287	-2.67312	-0.603954	0	
2.8293	-1.758	0.317871	0	
2.8300	0.385314	-0.921825	0	
2.8307	4.0458	-0.921825	0	
2.8313	4.35887	-0.921825	0	
2.8320	-2.04698	-3.05156	0	
2.8327	-6.02054	-3.97338	0	
2.8333	-2.36005	-3.65551	0	
2.8340	-0.216739	-3.65551	0	
2.8347	-2.67312	-3.65551	0	
2.8353	-2.36005	-3.05156	0	
2.8360	1.01145	-3.05156	0	
2.8367	0.385314	-2.4476	0	
2.8373	-0.529807	-2.4476	0	
2.8380	1.01145	-3.36943	0	
2.8387	1.01145	-2.4476	0	
2.8393	0.0963286	-1.20791	0	
2.8400	1.30044	-2.12973	0	
2.8407	0.0963286	-2.12973	0	
2.8413	-2.36005	-1.52578	0	
2.8420	0.0963286	-2.12973	0	
2.8427	1.92657	-0.921825	0	
2.8433	-0.529807	1.84365	0	
2.8440	1.01145	2.12973	0	
2.8447	3.44375	0.921825	0	
2.8453	0.698382	2.73369	0	
2.8460	-2.36005	2.73369	0	
2.8467	-0.216739	-0.921825	0	
2.8473	1.92657	-1.84365	0	
2.8480	2.52863	1.52578	0	
2.8487	2.84169	1.84365	0	
2.8493	2.84169	-0.603954	0	
2.8500	1.30044	0	0	
2.8507	1.01145	1.20791	0	
2.8513	1.92657	-0.921825	0	
2.8520	3.13068	-1.84365	0	
2.8527	3.75682	0	0	
2.8533	3.13068	1.84365	0	
2.8540	3.13068	1.84365	0	
2.8547	2.84169	0	0	
2.8553	1.6135	-2.12973	0	
2.8560	1.01145	-0.603954	0	
2.8567	2.84169	2.4476	0	
2.8573	4.35887	0.603954	0	
2.8580	2.52863	-2.4476	0	
2.8587	-0.216739	-1.84365	0	
2.8593	-1.758	-1.20791	0	
2.8600	-1.758	-2.12973	0	
2.8607	-2.36005	-0.921825	0	
2.8613	-3.87723	0	0	
2.8620	-5.41848	-0.603954	0	
2.8627	-4.50336	0.317871	0	
2.8633	-3.58824	2.4476	0	
2.8640	-3.87723	1.84365	0	
2.8647	-3.87723	0.921825	0	
2.8653	-2.67312	0.921825	0	
2.8660	-0.216739	0	0	
2.8667	2.52863	0	0	
2.8673	1.30044	2.12973	0	
2.8680	-1.44493	2.73369	0	
2.8687	-0.842875	1.20791	0	
2.8693	0.0963286	0.317871	0	
2.8700	-1.13186	-1.20791	0	
2.8707	-2.67312	-2.12973	0	
2.8713	-3.58824	-2.4476	0	
2.8720	-3.87723	-3.65551	0	
2.8727	-3.27517	-3.05156	0	
2.8733	-2.9621	-0.921825	0	
2.8740	-1.758	-3.65551	0	
2.8747	1.01145	-6.10311	0	
2.8753	2.84169	-2.73369	0	
2.8760	3.44375	-0.921825	0	
2.8767	3.75682	-1.20791	0	
2.8773	2.52863	1.84365	0	
2.8780	1.30044	2.73369	0	
2.8787	1.92657	0	0	
2.8793	1.92657	1.84365	0	
2.8800	1.92657	3.97338	0	
2.8807	0.698382	1.84365	0	
2.8813	-1.758	0.921825	0	
2.8820	-1.758	1.20791	0	
2.8827	1.01145	-0.921825	0	
2.8833	2.21556	-0.921825	0	
2.8840	1.01145	2.73369	0	
2.8847	0.385314	2.73369	0	
2.8853	1.30044	-0.317871	0	
2.8860	2.21556	-1.20791	0	
2.8867	1.01145	0.317871	0	
2.8873	-1.44493	1.20791	0	
2.8880	-2.36005	-0.603954	0	
2.8887	-1.758	-3.65551	0	
2.8893	-1.758	-3.65551	0	
2.8900	-0.529807	0	0	
2.8907	1.92657	0	0	
2.8913	2.21556	-2.12973	0	
2.8920	0.698382	-1.84365	0	
2.8927	-0.842875	-2.73369	0	
2.8933	-1.758	-4.57734	0	
2.8940	-2.36005	-3.65551	0	
2.8947	0.0963286	-1.52578	0	
2.8953	2.52863	-3.36943	0	
2.8960	1.92657	-3.65551	0	
2.8967	0.385314	-2.12973	0	
2.8973	0.0963286	-0.921825	0	
2.8980	-0.842875	0	0	
2.8987	-1.758	-0.921825	0	
2.8993	0.385314	-1.20791	0	
2.9000	1.92657	0.603954	0	
2.9007	0.698382	0.603954	0	
2.9013	-1.758	-1.84365	0	
2.9020	-2.9621	0.317871	0	
2.9027	-3.58824	3.65551	0	
2.9033	-4.79235	1.84365	0	
2.9040	-7.24873	1.20791	0	
2.9047	-7.53771	2.73369	0	
2.9053	-7.24873	1.84365	0	
2.9060	-8.45284	0.921825	0	
2.9067	-6.33361	1.52578	0	
2.9073	-0.842875	0.317871	0	
2.9080	-0.216739	0	0	
2.9087	-0.842875	0.921825	0	
2.9093	1.30044	-0.317871	0	
2.9100	1.92657	-0.921825	0	
2.9107	1.30044	0.603954	0	
2.9113	2.21556	-0.317871	0	
2.9120	0.698382	-2.4476	0	
2.9127	-0.529807	-0.921825	0	
2.9133	2.84169	0.317871	0	
2.9140	2.84169	-1.20791	0	
2.9147	-1.13186	-0.921825	0	
2.9153	1.6135	1.84365	0	
2.9160	3.13068	0.921825	0	
2.9167	-1.13186	-0.921825	0	
2.9173	-0.842875	0.603954	0	
2.9180	2.21556	1.20791	0	
2.9187	-1.44493	-0.921825	0	
2.9193	-4.50336	-0.921825	0	
2.9200	-3.27517	0.921825	0	
2.9207	-4.19029	0.921825	0	
2.9213	-2.36005	0.921825	0	
2.9220	3.75682	1.52578	0	
2.9227	4.35887	0	0	
2.9233	1.92657	0.317871	0	
2.9240	2.84169	4.25947	0	
2.9247	5.58706	3.97338	0	
2.9253	5.27399	0.603954	0	
2.9260	4.67194	1.52578	0	
2.9267	5.87605	4.89521	0	
2.9273	6.18911	4.89521	0	
2.9280	5.58706	3.36943	0	
2.9287	6.79117	2.73369	0	
2.9293	7.4173	0.317871	0	
2.9300	4.67194	-2.4476	0	
2.9307	2.84169	-1.84365	0	
2.9313	2.21556	0.603954	0	
2.9320	0.698382	-0.921825	0	
2.9327	-2.04698	-3.65551	0	
2.9333	-5.70747	-3.36943	0	
2.9340	-9.36796	-1.84365	0	
2.9347	-11.8243	-2.73369	0	
2.9353	-11.8243	-1.84365	0	
2.9360	-11.1982	0.603954	0	
2.9367	-9.68103	0.317871	0	
2.9373	-7.24873	-1.84365	0	
2.9380	-4.50336	-3.36943	0	
2.9387	-1.13186	-2.73369	0	
2.9393	1.92657	-1.20791	0	
2.9400	2.84169	-1.52578	0	
2.9407	1.92657	-2.12973	0	
2.9413	2.21556	-0.317871	0	
2.9420	4.67194	0.317871	0	
2.9427	5.87605	-0.921825	0	
2.9433	3.44375	0	0	
2.9440	0.698382	1.52578	0	
2.9447	1.6135	0.603954	0	
2.9453	2.84169	-0.317871	0	
2.9460	0.385314	0	0	
2.9467	-2.04698	0	0	
2.9473	-1.13186	0	0	
2.9480	-2.36005	0	0	
2.9487	-6.33361	-0.921825	0	
2.9493	-5.70747	-1.20791	0	
2.9500	-2.36005	-0.921825	0	
2.9507	-2.04698	0	0	
2.9513	-2.67312	1.52578	0	
2.9520	-2.04698	1.84365	0	
2.9527	-2.67312	0.921825	0	
2.9533	-0.529807	0.317871	0	
2.9540	2.52863	-1.84365	0	
2.9547	1.92657	-3.97338	0	
2.9553	1.92657	-3.36943	0	
2.9560	3.75682	-0.921825	0	
2.9567	4.0458	-0.921825	0	
2.9573	3.75682	-1.20791	0	
2.9580	3.13068	-0.921825	0	
2.9587	0.0963286	-0.921825	0	
2.9593	-2.36005	-0.317871	0	
2.9600	-0.529807	0	0	
2.9607	0.0963286	0	0	
2.9613	-2.67312	2.12973	0	
2.9620	-4.19029	2.73369	0	
2.9627	-2.9621	1.84365	0	
2.9633	-5.41848	3.65551	0	
2.9640	-9.07897	6.10311	0	
2.9647	-7.85078	1.84365	0	
2.9653	-2.36005	-0.317871	0	
2.9660	-1.13186	1.84365	0	
2.9667	-5.41848	0	0	
2.9673	-6.33361	-3.65551	0	
2.9680	-2.67312	-1.20791	0	
2.9687	-1.44493	0.317871	0	
2.9693	-2.04698	0	0	
2.9700	1.01145	2.12973	0	
2.9707	4.0458	1.84365	0	
2.9713	2.21556	-2.12973	0	
2.9720	0.385314	-3.36943	0	
2.9727	1.92657	-2.73369	0	
2.9733	1.92657	-1.20791	0	
2.9740	-0.842875	0.603954	0	
2.9747	-2.04698	-0.921825	0	
2.9753	-2.36005	-0.317871	0	
