0.0007	5.54673	-5.66087	0	
0.0013	2.80488	-3.82686	0	
0.0020	5.54673	-2.91708	0	
0.0027	8.60373	-3.82686	0	
0.0033	7.68978	-1.99286	0	
0.0040	6.77583	0.447671	0	
0.0047	7.37463	-1.08307	0	
0.0053	5.23157	-1.08307	0	
0.0060	2.48972	2.28168	0	
0.0067	2.17457	2.58494	0	
0.0073	-0.882434	0.750931	0	
0.0080	-7.87887	2.58494	0	
0.0087	-11.8498	3.19146	0	
0.0093	-14.5917	1.35745	0	
0.0100	-21.0208	4.10124	0	
0.0107	-27.7336	8.67903	0	
0.0113	-30.1603	9.3	0	
0.0120	-30.7906	8.37577	0	
0.0127	-31.9882	8.07251	0	
0.0133	-29.8452	5.63199	0	
0.0140	-24.0778	5.32872	0	
0.0147	-19.7917	8.07251	0	
0.0153	-16.1359	8.07251	0	
0.0160	-9.10798	5.02546	0	
0.0167	-3.30913	4.7222	0	
0.0173	-0.882434	6.23851	0	
0.0180	4.31762	5.63199	0	
0.0187	8.28858	4.41894	0	
0.0193	4.31762	2.8882	0	
0.0200	1.89093	1.35745	0	
0.0207	5.23157	2.58494	0	
0.0213	3.71883	6.54177	0	
0.0220	-0.882434	10.513	0	
0.0227	-1.48123	13.8778	0	
0.0233	0.0315155	15.3941	0	
0.0240	2.80488	11.7405	0	
0.0247	10.4316	7.16273	0	
0.0253	16.5141	8.07251	0	
0.0260	19.2875	8.99674	0	
0.0267	21.1154	6.54177	0	
0.0273	22.9433	4.41894	0	
0.0280	30.8537	5.02546	0	
0.0287	46.7375	5.32872	0	
0.0293	58.02	4.7222	0	
0.0300	59.5643	5.63199	0	
0.0307	56.1921	8.99674	0	
0.0313	47.3363	11.7405	0	
0.0320	34.541	11.4373	0	
0.0327	23.5421	11.7405	0	
0.0333	14.4026	15.3941	0	
0.0340	0.661825	19.3654	0	
0.0347	-18.279	22.4124	0	
0.0353	-34.7301	24.2464	0	
0.0360	-43.3023	23.3366	0	
0.0367	-45.729	22.1092	0	
0.0373	-46.9581	24.5497	0	
0.0380	-50.2987	26.3837	0	
0.0387	-53.6709	24.2464	0	
0.0393	-49.3848	21.5026	0	
0.0400	-39.615	19.6686	0	
0.0407	-32.6185	20.5928	0	
0.0413	-24.6766	23.6399	0	
0.0420	-18.279	22.1092	0	
0.0427	-25.2754	19.0621	0	
0.0433	-35.0452	22.4124	0	
0.0440	-34.7301	26.0804	0	
0.0447	-32.6185	23.9432	0	
0.0453	-34.1313	23.3366	0	
0.0460	-34.4464	24.5497	0	
0.0467	-31.0743	23.9432	0	
0.0473	-21.9348	26.3837	0	
0.0480	-10.0219	30.0517	0	
0.0487	-3.90792	26.9902	0	
0.0493	0.97698	22.7157	0	
0.0500	10.1165	20.2751	0	
0.0507	14.6862	16.6216	0	
0.0513	11.3456	12.6503	0	
0.0520	8.28858	12.6503	0	
0.0527	6.46068	13.5745	0	
0.0533	6.14552	13.8778	0	
0.0540	10.4316	15.3941	0	
0.0547	11.0304	16.9248	0	
0.0553	7.05947	14.4843	0	
0.0560	13.7723	11.1196	0	
0.0567	28.1118	12.347	0	
0.0573	29.3409	13.5745	0	
0.0580	22.9433	11.1196	0	
0.0587	20.8002	11.4373	0	
0.0593	15.6002	14.4843	0	
0.0600	14.0874	13.8778	0	
0.0607	22.0293	10.8163	0	
0.0613	18.342	11.1196	0	
0.0620	-0.567279	11.7405	0	
0.0627	-2.71033	7.46599	0	
0.0633	15.6002	3.49472	0	
0.0640	31.1688	4.7222	0	
0.0647	40.6235	5.32872	0	
0.0653	47.9666	2.28168	0	
0.0660	48.5654	-0.158851	0	
0.0667	44.5944	0.14441	0	
0.0673	42.1677	-0.158851	0	
0.0680	38.7956	-1.08307	0	
0.0687	36.0537	-2.29612	0	
0.0693	31.1688	-3.82686	0	
0.0700	14.6862	-3.22034	0	
0.0707	-9.42313	0.14441	0	
0.0713	-21.3045	2.58494	0	
0.0720	-18.279	2.58494	0	
0.0727	-13.6777	2.58494	0	
0.0733	-14.5917	2.58494	0	
0.0740	-18.5626	4.41894	0	
0.0747	-24.9918	5.32872	0	
0.0753	-28.3324	2.8882	0	
0.0760	-24.6766	0.447671	0	
0.0767	-19.1929	1.05419	0	
0.0773	-16.4196	3.19146	0	
0.0780	-17.6487	4.41894	0	
0.0787	-21.0208	5.02546	0	
0.0793	-24.6766	6.23851	0	
0.0800	-28.0173	6.85947	0	
0.0807	-29.8452	4.41894	0	
0.0813	-25.5906	2.8882	0	
0.0820	-16.7347	4.41894	0	
0.0827	-8.19403	3.79798	0	
0.0833	0.661825	1.66071	0	
0.0840	9.20253	1.96397	0	
0.0847	16.8293	1.05419	0	
0.0853	22.313	-2.61382	0	
0.0860	22.9433	-2.91708	0	
0.0867	21.1154	-2.61382	0	
0.0873	20.2014	-4.73664	0	
0.0880	16.5141	-7.49487	0	
0.0887	12.2595	-9.9354	0	
0.0893	10.1165	-12.3759	0	
0.0900	3.71883	-10.5419	0	
0.0907	-5.76734	-7.49487	0	
0.0913	-9.10798	-9.63214	0	
0.0920	-8.19403	-11.1484	0	
0.0927	-9.70677	-9.31444	0	
0.0933	-10.0219	-9.63214	0	
0.0940	-7.59523	-11.755	0	
0.0947	-4.22308	-12.0727	0	
0.0953	-3.90792	-12.0727	0	
0.0960	-7.28008	-12.3759	0	
0.0967	-7.87887	-10.5419	0	
0.0973	-6.05098	-9.9354	0	
0.0980	-12.7638	-10.2387	0	
0.0987	-22.8487	-8.40466	0	
0.0993	-19.7917	-7.49487	0	
0.1000	-5.76734	-10.2387	0	
0.1007	6.14552	-12.0727	0	
0.1013	12.5432	-11.1484	0	
0.1020	18.0584	-12.0727	0	
0.1027	26.5991	-13.8922	0	
0.1033	35.7386	-17.257	0	
0.1040	41.2538	-22.4413	0	
0.1047	44.5944	-23.3655	0	
0.1053	44.9096	-18.47	0	
0.1060	39.4259	-16.6505	0	
0.1067	33.9107	-18.7877	0	
0.1073	29.3409	-17.8635	0	
0.1080	19.2875	-16.3328	0	
0.1087	7.37463	-18.1668	0	
0.1093	1.89093	-18.7877	0	
0.1100	-3.62428	-16.6505	0	
0.1107	-16.1359	-15.7262	0	
0.1113	-25.9057	-16.6505	0	
0.1120	-29.8452	-16.0295	0	
0.1127	-35.9592	-12.9824	0	
0.1133	-41.758	-7.79813	0	
0.1140	-42.0732	-5.66087	0	
0.1147	-46.6429	-4.73664	0	
0.1153	-56.7279	-2.29612	0	
0.1160	-54.9	-0.476553	0	
0.1167	-46.6429	-1.08307	0	
0.1173	-47.5569	-0.158851	0	
0.1180	-46.6429	0.14441	0	
0.1187	-34.7301	-1.08307	0	
0.1193	-26.5045	-0.158851	0	
0.1200	-22.8487	0.14441	0	
0.1207	-16.1359	-3.82686	0	
0.1213	-10.9359	-5.66087	0	
0.1220	-8.19403	-3.82686	0	
0.1227	-4.82187	-2.61382	0	
0.1233	-3.62428	-0.779813	0	
0.1240	0.661825	0.750931	0	
0.1247	13.1735	-1.6896	0	
0.1253	23.8572	-3.82686	0	
0.1260	25.37	-4.73664	0	
0.1267	27.1979	-7.79813	0	
0.1273	34.2258	-10.2387	0	
0.1280	40.0247	-8.70792	0	
0.1287	40.9386	-9.31444	0	
0.1293	39.4259	-13.2857	0	
0.1300	37.8816	-15.423	0	
0.1307	40.0247	-16.6505	0	
0.1313	47.3363	-17.5602	0	
0.1320	51.0236	-17.5602	0	
0.1327	43.9956	-17.5602	0	
0.1333	38.5119	-18.47	0	
0.1340	43.9956	-18.1668	0	
0.1347	47.6514	-17.257	0	
0.1353	41.2538	-15.7262	0	
0.1360	34.2258	-12.0727	0	
0.1367	23.2269	-8.70792	0	
0.1373	-1.16607	-8.40466	0	
0.1380	-22.2184	-9.01118	0	
0.1387	-25.9057	-10.2387	0	
0.1393	-22.8487	-11.1484	0	
0.1400	-17.9638	-10.2387	0	
0.1407	-6.96492	-8.40466	0	
0.1413	0.0315155	-6.26739	0	
0.1420	-0.252124	-3.5236	0	
0.1427	-0.252124	-1.99286	0	
0.1433	-0.882434	-1.99286	0	
0.1440	-4.22308	-2.91708	0	
0.1447	-6.05098	-4.73664	0	
0.1453	-8.50918	-5.66087	0	
0.1460	-10.0219	-3.82686	0	
0.1467	-5.76734	-5.96413	0	
0.1473	-0.882434	-10.2387	0	
0.1480	-3.62428	-8.40466	0	
0.1487	-11.8498	-6.87391	0	
0.1493	-14.308	-9.63214	0	
0.1500	-11.251	-6.57065	0	
0.1507	-19.1929	0.750931	0	
0.1513	-41.1592	1.66071	0	
0.1520	-57.3267	0.750931	0	
0.1527	-59.4697	1.66071	0	
0.1533	-57.9255	0.447671	0	
0.1540	-55.8139	-0.779813	0	
0.1547	-52.1266	0.14441	0	
0.1553	-48.1557	-1.99286	0	
0.1560	-41.4429	-3.5236	0	
0.1567	-35.0452	-1.08307	0	
0.1573	-30.1603	-1.08307	0	
0.1580	-22.5336	-2.61382	0	
0.1587	-16.4196	1.05419	0	
0.1593	-14.5917	3.19146	0	
0.1600	-6.68129	-0.158851	0	
0.1607	5.54673	-0.158851	0	
0.1613	13.1735	2.58494	0	
0.1620	18.9723	3.19146	0	
0.1627	18.9723	3.19146	0	
0.1633	9.80132	3.79798	0	
0.1640	9.20253	3.49472	0	
0.1647	15.3165	1.35745	0	
0.1653	2.80488	-2.29612	0	
0.1660	-14.5917	-5.66087	0	
0.1667	-7.59523	-7.19161	0	
0.1673	11.9444	-9.31444	0	
0.1680	21.7142	-12.0727	0	
0.1687	24.7712	-12.0727	0	
0.1693	28.7421	-13.2857	0	
0.1700	34.541	-16.3328	0	
0.1707	42.7665	-16.3328	0	
0.1713	55.5933	-14.2099	0	
0.1720	73.2735	-15.423	0	
0.1727	84.2724	-18.7877	0	
0.1733	79.0724	-20.304	0	
0.1740	69.6177	-19.3942	0	
0.1747	61.3922	-16.6505	0	
0.1753	40.3398	-13.8922	0	
0.1760	16.2305	-12.9824	0	
0.1767	10.4316	-12.9824	0	
0.1773	11.3456	-11.1484	0	
0.1780	1.89093	-6.57065	0	
0.1787	-12.165	-1.6896	0	
0.1793	-29.2464	1.35745	0	
0.1800	-51.2127	1.66071	0	
0.1807	-62.5267	2.8882	0	
0.1813	-58.5558	4.10124	0	
0.1820	-53.3557	3.79798	0	
0.1827	-53.3557	5.02546	0	
0.1833	-52.4418	8.07251	0	
0.1840	-47.872	9.90652	0	
0.1847	-42.0732	11.1196	0	
0.1853	-36.8731	13.8778	0	
0.1860	-30.4755	15.3941	0	
0.1867	-21.6196	16.0151	0	
0.1873	-14.5917	16.9248	0	
0.1880	-10.9359	13.8778	0	
0.1887	-6.68129	8.07251	0	
0.1893	0.34667	4.7222	0	
0.1900	7.37463	4.41894	0	
0.1907	10.4316	4.41894	0	
0.1913	11.0304	5.32872	0	
0.1920	14.6862	6.23851	0	
0.1927	20.8002	6.23851	0	
0.1933	27.513	4.10124	0	
0.1940	38.1968	0.14441	0	
0.1947	43.9956	-1.99286	0	
0.1953	36.3689	-2.29612	0	
0.1960	32.3979	-4.73664	0	
0.1967	40.6235	-5.66087	0	
0.1973	43.0817	-3.82686	0	
0.1980	38.7956	-4.73664	0	
0.1987	40.9386	-6.57065	0	
0.1993	43.0817	-5.66087	0	
0.2000	38.1968	-5.96413	0	
0.2007	36.6525	-8.40466	0	
0.2013	32.9967	-8.40466	0	
0.2020	19.5711	-7.79813	0	
0.2027	8.88737	-9.9354	0	
0.2033	-0.252124	-11.4517	0	
0.2040	-21.6196	-9.31444	0	
0.2047	-37.7871	-4.73664	0	
0.2053	-35.3604	-1.08307	0	
0.2060	-37.7871	0.750931	0	
0.2067	-49.1011	2.58494	0	
0.2073	-48.786	5.93525	0	
0.2080	-49.6999	8.99674	0	
0.2087	-61.2976	6.85947	0	
0.2093	-54.9	1.05419	0	
0.2100	-30.7906	0.750931	0	
0.2107	-21.0208	4.41894	0	
0.2113	-19.4766	3.49472	0	
0.2120	-4.22308	0.750931	0	
0.2127	8.88737	2.8882	0	
0.2133	8.28858	5.93525	0	
0.2140	9.20253	8.99674	0	
0.2147	8.28858	12.0438	0	
0.2153	-1.79638	11.7405	0	
0.2160	-5.13703	8.99674	0	
0.2167	-7.59523	8.99674	0	
0.2173	-32.6185	7.16273	0	
0.2180	-54.9	4.41894	0	
0.2187	-44.2162	5.02546	0	
0.2193	-25.5906	5.02546	0	
0.2200	-23.4475	2.8882	0	
0.2207	-22.8487	3.19146	0	
0.2213	-16.4196	2.8882	0	
0.2220	-10.3371	-0.779813	0	
0.2227	0.0315155	-1.99286	0	
0.2233	12.5432	1.35745	0	
0.2240	18.342	2.58494	0	
0.2247	20.2014	-0.476553	0	
0.2253	26.5991	-2.91708	0	
0.2260	37.8816	-2.91708	0	
0.2267	46.4223	-3.82686	0	
0.2273	45.5084	-4.13012	0	
0.2280	40.3398	-3.82686	0	
0.2287	37.598	-4.73664	0	
0.2293	32.9967	-6.87391	0	
0.2300	24.1409	-6.87391	0	
0.2307	21.1154	-9.31444	0	
0.2313	24.456	-14.5132	0	
0.2320	22.313	-15.423	0	
0.2327	16.2305	-12.9824	0	
0.2333	19.8863	-12.9824	0	
0.2340	29.9397	-12.0727	0	
0.2347	33.627	-8.70792	0	
0.2353	31.484	-7.19161	0	
0.2360	22.0293	-7.79813	0	
0.2367	4.63278	-7.19161	0	
0.2373	-5.76734	-5.05435	0	
0.2380	-6.68129	-3.82686	0	
0.2387	-9.10798	-3.82686	0	
0.2393	-10.3371	-3.82686	0	
0.2400	-10.3371	-2.61382	0	
0.2407	-14.5917	-1.08307	0	
0.2413	-17.0499	-0.779813	0	
0.2420	-16.4196	-2.91708	0	
0.2427	-19.1929	-5.96413	0	
0.2433	-16.1359	-6.57065	0	
0.2440	-6.05098	-3.82686	0	
0.2447	-4.22308	-1.08307	0	
0.2453	-6.05098	-0.158851	0	
0.2460	0.0315155	-0.158851	0	
0.2467	6.46068	-1.99286	0	
0.2473	7.68978	-1.08307	0	
0.2480	11.0304	2.8882	0	
0.2487	18.0584	3.19146	0	
0.2493	21.399	1.05419	0	
0.2500	17.4281	2.58494	0	
0.2507	7.97342	5.02546	0	
0.2513	-5.76734	5.02546	0	
0.2520	-16.4196	5.32872	0	
0.2527	-13.0789	3.49472	0	
0.2533	-8.50918	0.447671	0	
0.2540	-20.1069	2.8882	0	
0.2547	-35.644	6.54177	0	
0.2553	-39.615	8.07251	0	
0.2560	-37.7871	12.347	0	
0.2567	-35.3604	15.3941	0	
0.2573	-36.5895	10.8163	0	
0.2580	-42.0732	8.99674	0	
0.2587	-37.5034	14.4843	0	
0.2593	-23.7627	16.6216	0	
0.2600	-17.9638	13.5745	0	
0.2607	-12.7638	11.7405	0	
0.2613	0.97698	10.8163	0	
0.2620	5.54673	9.3	0	
0.2627	-0.882434	8.37577	0	
0.2633	-3.30913	7.16273	0	
0.2640	0.97698	5.32872	0	
0.2647	7.05947	3.79798	0	
0.2653	10.7153	4.10124	0	
0.2660	6.77583	4.10124	0	
0.2667	2.48972	1.35745	0	
0.2673	4.31762	-1.38633	0	
0.2680	7.05947	-1.99286	0	
0.2687	6.46068	-1.08307	0	
0.2693	9.80132	0.750931	0	
0.2700	17.7432	3.19146	0	
0.2707	22.9433	3.49472	0	
0.2713	21.1154	4.41894	0	
0.2720	16.5141	5.32872	0	
0.2727	12.2595	1.66071	0	
0.2733	7.37463	-1.99286	0	
0.2740	5.23157	-0.476553	0	
0.2747	7.97342	1.35745	0	
0.2753	2.80488	0.750931	0	
0.2760	-15.8208	1.05419	0	
0.2767	-25.5906	2.28168	0	
0.2773	-16.4196	2.58494	0	
0.2780	-7.59523	4.10124	0	
0.2787	-13.6777	4.10124	0	
0.2793	-20.3905	2.28168	0	
0.2800	-13.3941	3.19146	0	
0.2807	-1.48123	5.32872	0	
0.2813	6.14552	4.7222	0	
0.2820	11.9444	1.66071	0	
0.2827	11.6292	-1.6896	0	
0.2833	1.57577	-3.82686	0	
0.2840	-1.16607	-3.22034	0	
0.2847	11.0304	-0.158851	0	
0.2853	16.8293	0.447671	0	
0.2860	6.46068	-2.61382	0	
0.2867	-3.62428	-5.35761	0	
0.2873	-5.45218	-5.66087	0	
0.2880	0.0315155	-4.13012	0	
0.2887	8.88737	-4.73664	0	
0.2893	14.0874	-5.66087	0	
0.2900	15.6002	-5.35761	0	
0.2907	20.8002	-4.73664	0	
0.2913	23.8572	-5.66087	0	
0.2920	22.9433	-5.35761	0	
0.2927	26.0003	-4.73664	0	
0.2933	33.9107	-6.26739	0	
0.2940	43.9956	-7.49487	0	
0.2947	57.7364	-6.57065	0	
0.2953	63.2201	-8.10139	0	
0.2960	54.0491	-10.5419	0	
0.2967	43.9956	-10.2387	0	
0.2973	36.0537	-10.2387	0	
0.2980	24.1409	-11.1484	0	
0.2987	18.342	-7.79813	0	
0.2993	16.5141	-5.05435	0	
0.3000	3.08852	-6.57065	0	
0.3007	-12.7638	-3.5236	0	
0.3013	-19.1929	3.49472	0	
0.3020	-23.4475	3.49472	0	
0.3027	-23.7627	1.96397	0	
0.3033	-18.279	5.32872	0	
0.3040	-28.3324	8.07251	0	
0.3047	-57.6418	11.4373	0	
0.3053	-74.7232	16.9248	0	
0.3060	-71.0674	16.0151	0	
0.3067	-68.3256	12.0438	0	
0.3073	-69.5232	13.8778	0	
0.3080	-66.7813	16.0151	0	
0.3087	-68.9244	15.3941	0	
0.3093	-78.379	16.0151	0	
0.3100	-75.322	14.7876	0	
0.3107	-54.2697	10.2098	0	
0.3113	-30.7906	6.85947	0	
0.3120	-15.222	3.79798	0	
0.3127	-5.13703	1.66071	0	
0.3133	1.26062	1.96397	0	
0.3140	3.40367	3.79798	0	
0.3147	1.89093	5.32872	0	
0.3153	1.26062	4.41894	0	
0.3160	2.80488	4.7222	0	
0.3167	0.97698	9.90652	0	
0.3173	-5.76734	11.4373	0	
0.3180	-7.59523	3.49472	0	
0.3187	0.34667	-2.91708	0	
0.3193	13.7723	-1.99286	0	
0.3200	22.313	-3.5236	0	
0.3207	23.8572	-7.49487	0	
0.3213	26.0003	-9.31444	0	
0.3220	30.57	-8.40466	0	
0.3227	30.2549	-5.66087	0	
0.3233	27.8282	-0.779813	0	
0.3240	25.37	1.05419	0	
0.3247	21.399	-1.38633	0	
0.3253	17.1444	-3.82686	0	
0.3260	7.05947	-4.73664	0	
0.3267	-8.19403	-5.96413	0	
0.3273	-10.9359	-4.73664	0	
0.3280	-0.252124	-3.82686	0	
0.3287	5.54673	-6.26739	0	
0.3293	6.14552	-7.49487	0	
0.3300	9.51768	-5.66087	0	
0.3307	11.9444	-4.13012	0	
0.3313	12.2595	-3.82686	0	
0.3320	13.7723	-4.13012	0	
0.3327	14.4026	-5.66087	0	
0.3333	16.2305	-6.57065	0	
0.3340	19.8863	-6.57065	0	
0.3347	21.7142	-5.66087	0	
0.3353	22.0293	-2.61382	0	
0.3360	20.8002	1.66071	0	
0.3367	18.6572	2.58494	0	
0.3373	15.9153	2.58494	0	
0.3380	7.37463	2.28168	0	
0.3387	-2.08002	1.35745	0	
0.3393	-2.71033	1.05419	0	
0.3400	2.17457	-0.158851	0	
0.3407	4.31762	-2.91708	0	
0.3413	2.48972	-2.91708	0	
0.3420	-5.45218	-1.99286	0	
0.3427	-10.0219	-2.61382	0	
0.3433	3.08852	-3.22034	0	
0.3440	23.8572	-4.43338	0	
0.3447	28.1118	-3.22034	0	
0.3453	23.2269	1.05419	0	
0.3460	22.9433	0.750931	0	
0.3467	21.399	-1.6896	0	
0.3473	22.6281	0.14441	0	
0.3480	33.3119	-0.779813	0	
0.3487	34.8246	-5.96413	0	
0.3493	14.6862	-6.26739	0	
0.3500	-2.08002	-4.73664	0	
0.3507	-1.79638	-7.19161	0	
0.3513	-0.252124	-7.49487	0	
0.3520	-1.16607	-5.35761	0	
0.3527	4.00247	-6.87391	0	
0.3533	4.63278	-7.19161	0	
0.3540	-5.76734	-3.22034	0	
0.3547	-12.7638	0.447671	0	
0.3553	-10.0219	1.66071	0	
0.3560	-5.13703	1.96397	0	
0.3567	-2.71033	0.750931	0	
0.3573	-6.68129	0.750931	0	
0.3580	-16.1359	4.41894	0	
0.3587	-23.7627	7.76925	0	
0.3593	-31.0743	5.63199	0	
0.3600	-36.5895	1.35745	0	
0.3607	-33.8161	1.05419	0	
0.3613	-30.1603	3.49472	0	
0.3620	-33.8161	3.19146	0	
0.3627	-38.4174	3.19146	0	
0.3633	-36.2743	5.93525	0	
0.3640	-31.0743	7.16273	0	
0.3647	-26.5045	7.16273	0	
0.3653	-22.8487	6.23851	0	
0.3660	-20.7057	4.10124	0	
0.3667	-19.1929	4.41894	0	
0.3673	-16.7347	7.16273	0	
0.3680	-15.5056	8.07251	0	
0.3687	-15.8208	9.60326	0	
0.3693	-13.6777	13.2568	0	
0.3700	-8.50918	11.4373	0	
0.3707	-3.90792	6.85947	0	
0.3713	-0.882434	8.37577	0	
0.3720	1.26062	7.76925	0	
0.3727	2.80488	1.35745	0	
0.3733	4.00247	-0.158851	0	
0.3740	4.00247	1.96397	0	
0.3747	4.63278	-1.08307	0	
0.3753	7.05947	-3.5236	0	
0.3760	8.28858	-1.99286	0	
0.3767	6.46068	-3.22034	0	
0.3773	5.83037	-2.91708	0	
0.3780	6.77583	1.66071	0	
0.3787	7.97342	2.58494	0	
0.3793	14.6862	-1.6896	0	
0.3800	23.8572	-1.99286	0	
0.3807	26.5991	0.14441	0	
0.3813	26.5991	-1.38633	0	
0.3820	26.9142	-4.73664	0	
0.3827	23.5421	-5.96413	0	
0.3833	20.2014	-5.05435	0	
0.3840	15.6002	-3.82686	0	
0.3847	0.34667	-3.5236	0	
0.3853	-13.6777	-5.96413	0	
0.3860	-8.50918	-8.40466	0	
0.3867	0.0315155	-7.49487	0	
0.3873	-3.62428	-6.87391	0	
0.3880	-8.50918	-5.05435	0	
0.3887	-4.22308	-0.476553	0	
0.3893	4.91642	-0.158851	0	
0.3900	9.51768	-5.05435	0	
0.3907	9.20253	-6.57065	0	
0.3913	13.7723	-3.82686	0	
0.3920	19.2875	-4.73664	0	
0.3927	16.2305	-6.87391	0	
0.3933	18.0584	-7.49487	0	
0.3940	27.513	-9.31444	0	
0.3947	26.0003	-9.9354	0	
0.3953	18.342	-9.31444	0	
0.3960	28.7421	-9.01118	0	
0.3967	54.963	-5.35761	0	
0.3973	67.4747	1.66071	0	
0.3980	41.2538	4.10124	0	
0.3987	-4.82187	0.750931	0	
0.3993	-19.7917	-0.779813	0	
0.4000	-4.53823	0.447671	0	
0.4007	-7.59523	-0.158851	0	
0.4013	-33.5325	-2.91708	0	
0.4020	-43.9011	-3.5236	0	
0.4027	-27.7336	-1.6896	0	
0.4033	-7.28008	-1.08307	0	
0.4040	-6.05098	-1.08307	0	
0.4047	-21.0208	0.14441	0	
0.4053	-23.4475	0.14441	0	
0.4060	-10.0219	-0.158851	0	
0.4067	-4.53823	1.35745	0	
0.4073	-6.68129	0.750931	0	
0.4080	1.57577	-1.38633	0	
0.4087	11.9444	-1.99286	0	
0.4093	3.08852	-1.08307	0	
0.4100	-19.1929	0.447671	0	
0.4107	-26.1894	1.35745	0	
0.4113	-11.8498	0.14441	0	
0.4120	0.34667	0.750931	0	
0.4127	-0.252124	4.7222	0	
0.4133	-2.99397	4.41894	0	
0.4140	-5.13703	0.750931	0	
0.4147	-9.70677	-0.158851	0	
0.4153	-9.70677	-0.158851	0	
0.4160	-2.71033	0.750931	0	
0.4167	1.26062	2.28168	0	
0.4173	0.0315155	-0.158851	0	
0.4180	0.0315155	-3.82686	0	
0.4187	2.17457	-2.61382	0	
0.4193	3.71883	-0.779813	0	
0.4200	5.54673	-3.22034	0	
0.4207	8.28858	-3.22034	0	
0.4213	8.88737	-0.476553	0	
0.4220	6.14552	-0.158851	0	
0.4227	3.08852	-0.158851	0	
0.4233	1.89093	-1.08307	0	
0.4240	1.57577	-4.73664	0	
0.4247	0.97698	-5.35761	0	
0.4253	-1.48123	-1.99286	0	
0.4260	-3.62428	-2.91708	0	
0.4267	-5.45218	-5.66087	0	
0.4273	-6.68129	-5.05435	0	
0.4280	-3.90792	-5.05435	0	
0.4287	0.0315155	-6.26739	0	
0.4293	-2.39518	-1.99286	0	
0.4300	-8.19403	4.7222	0	
0.4307	-9.42313	5.02546	0	
0.4313	-8.50918	1.66071	0	
0.4320	-8.19403	-0.158851	0	
0.4327	-7.28008	-1.6896	0	
0.4333	-8.19403	-3.5236	0	
0.4340	-6.96492	-2.61382	0	
0.4347	-2.08002	-0.476553	0	
0.4353	-1.48123	-1.08307	0	
0.4360	-5.45218	-2.29612	0	
0.4367	-4.82187	-1.99286	0	
0.4373	-0.882434	-1.6896	0	
0.4380	0.97698	-1.6896	0	
0.4387	2.80488	-1.99286	0	
0.4393	6.77583	-3.22034	0	
0.4400	7.68978	-1.6896	0	
0.4407	5.54673	2.28168	0	
0.4413	5.54673	1.66071	0	
0.4420	8.88737	-1.08307	0	
0.4427	11.9444	0.750931	0	
0.4433	13.4886	2.58494	0	
0.4440	13.7723	-1.08307	0	
0.4447	13.4886	-2.91708	0	
0.4453	13.4886	-1.99286	0	
0.4460	11.9444	-4.43338	0	
0.4467	8.28858	-6.57065	0	
0.4473	5.54673	-3.82686	0	
0.4480	6.14552	-3.5236	0	
0.4487	4.31762	-5.05435	0	
0.4493	0.97698	-2.91708	0	
0.4500	2.80488	-1.08307	0	
0.4507	4.00247	-2.61382	0	
0.4513	0.0315155	-2.91708	0	
0.4520	-2.71033	-2.91708	0	
0.4527	-2.08002	-3.22034	0	
0.4533	-4.22308	-1.38633	0	
0.4540	-7.28008	-1.08307	0	
0.4547	-8.79282	-2.91708	0	
0.4553	-10.0219	-2.61382	0	
0.4560	-10.0219	-1.38633	0	
0.4567	-9.10798	-1.08307	0	
0.4573	-9.10798	-0.779813	0	
0.4580	-8.19403	-1.38633	0	
0.4587	-5.13703	-1.6896	0	
0.4593	-5.13703	-0.158851	0	
0.4600	-7.59523	-1.6896	0	
0.4607	-8.79282	-3.82686	0	
0.4613	-9.10798	-1.99286	0	
0.4620	-10.9359	-1.08307	0	
0.4627	-10.0219	-1.6896	0	
0.4633	-6.68129	-1.08307	0	
0.4640	-3.62428	-1.08307	0	
0.4647	-1.79638	-2.91708	0	
0.4653	1.26062	-2.91708	0	
0.4660	5.23157	-2.29612	0	
0.4667	9.20253	-3.82686	0	
0.4673	12.8583	-7.79813	0	
0.4680	18.6572	-9.9354	0	
0.4687	25.37	-9.01118	0	
0.4693	32.0828	-8.40466	0	
0.4700	36.3689	-9.31444	0	
0.4707	36.6525	-10.2387	0	
0.4713	36.6525	-10.5419	0	
0.4720	38.1968	-10.2387	0	
0.4727	37.2828	-9.31444	0	
0.4733	29.6561	-11.1484	0	
0.4740	20.4851	-12.6792	0	
0.4747	15.0014	-8.10139	0	
0.4753	9.80132	-4.73664	0	
0.4760	1.89093	-6.87391	0	
0.4767	-5.45218	-6.57065	0	
0.4773	-11.251	-4.73664	0	
0.4780	-20.1069	-4.73664	0	
0.4787	-27.4185	-3.22034	0	
0.4793	-30.1603	-1.99286	0	
0.4800	-36.5895	-0.476553	0	
0.4807	-50.2987	2.58494	0	
0.4813	-56.7279	1.66071	0	
0.4820	-50.929	-2.29612	0	
0.4827	-45.1302	-0.476553	0	
0.4833	-43.3023	2.58494	0	
0.4840	-38.701	0.447671	0	
0.4847	-34.7301	-0.158851	0	
0.4853	-34.4464	-0.158851	0	
0.4860	-32.6185	-1.99286	0	
0.4867	-29.2464	-1.6896	0	
0.4873	-27.4185	-0.779813	0	
0.4880	-22.8487	-3.5236	0	
0.4887	-17.3335	-3.82686	0	
0.4893	-14.9068	-1.99286	0	
0.4900	-9.42313	-4.43338	0	
0.4907	-2.39518	-7.49487	0	
0.4913	-0.252124	-5.05435	0	
0.4920	3.71883	-3.82686	0	
0.4927	12.8583	-6.87391	0	
0.4933	16.5141	-8.70792	0	
0.4940	14.6862	-9.31444	0	
0.4947	14.4026	-9.9354	0	
0.4953	11.9444	-10.2387	0	
0.4960	9.20253	-10.5419	0	
0.4967	9.80132	-11.1484	0	
0.4973	10.7153	-10.2387	0	
0.4980	17.4281	-10.2387	0	
0.4987	33.627	-12.6792	0	
0.4993	41.8526	-15.7262	0	
0.5000	36.6525	-16.6505	0	
0.5007	32.0828	-14.8165	0	
0.5013	31.1688	-12.0727	0	
0.5020	27.1979	-12.0727	0	
0.5027	23.5421	-14.2099	0	
0.5033	22.0293	-12.9824	0	
0.5040	14.6862	-10.5419	0	
0.5047	0.661825	-12.9824	0	
0.5053	-9.42313	-14.8165	0	
0.5060	-7.87887	-13.589	0	
0.5067	-1.16607	-16.0295	0	
0.5073	0.97698	-20.6073	0	
0.5080	0.97698	-20.304	0	
0.5087	2.17457	-17.5602	0	
0.5093	1.57577	-17.5602	0	
0.5100	-1.79638	-16.6505	0	
0.5107	-2.39518	-14.8165	0	
0.5113	0.34667	-15.423	0	
0.5120	2.80488	-17.257	0	
0.5127	2.17457	-17.5602	0	
0.5133	2.17457	-15.7262	0	
0.5140	5.54673	-13.8922	0	
0.5147	8.60373	-14.8165	0	
0.5153	6.14552	-17.5602	0	
0.5160	1.57577	-17.8635	0	
0.5167	-2.71033	-17.5602	0	
0.5173	-8.19403	-18.47	0	
0.5180	-12.7638	-19.6975	0	
0.5187	-13.3941	-21.2283	0	
0.5193	-11.251	-21.8348	0	
0.5200	-9.10798	-20.6073	0	
0.5207	-7.59523	-19.091	0	
0.5213	-6.68129	-19.3942	0	
0.5220	-5.13703	-20.304	0	
0.5227	-3.90792	-20.0008	0	
0.5233	-3.30913	-18.1668	0	
0.5240	0.661825	-16.6505	0	
0.5247	4.63278	-15.7262	0	
0.5253	2.48972	-14.2099	0	
0.5260	-1.79638	-12.3759	0	
0.5267	-0.567279	-10.8452	0	
0.5273	2.48972	-9.31444	0	
0.5280	0.97698	-8.70792	0	
0.5287	-1.16607	-7.19161	0	
0.5293	-0.567279	-0.779813	0	
0.5300	-0.882434	5.32872	0	
0.5307	-4.53823	4.41894	0	
0.5313	-6.36613	1.35745	0	
0.5320	-2.08002	2.28168	0	
0.5327	4.31762	5.93525	0	
0.5333	7.37463	8.67903	0	
0.5340	8.60373	8.67903	0	
0.5347	14.6862	8.07251	0	
0.5353	22.9433	9.90652	0	
0.5360	26.5991	10.8163	0	
0.5367	25.6851	9.60326	0	
0.5373	25.37	9.90652	0	
0.5380	23.8572	13.5745	0	
0.5387	19.5711	16.3183	0	
0.5393	13.1735	16.9248	0	
0.5400	5.54673	16.3183	0	
0.5407	0.0315155	16.3183	0	
0.5413	-0.882434	18.1523	0	
0.5420	-0.882434	20.5928	0	
0.5427	-4.53823	21.1994	0	
0.5433	-10.3371	20.8961	0	
0.5440	-14.5917	20.8961	0	
0.5447	-15.5056	20.8961	0	
0.5453	-15.8208	21.1994	0	
0.5460	-20.1069	22.4124	0	
0.5467	-25.2754	22.7157	0	
0.5473	-22.8487	22.4124	0	
0.5480	-16.1359	23.6399	0	
0.5487	-14.308	25.4739	0	
0.5493	-13.6777	24.2464	0	
0.5500	-10.0219	23.3366	0	
0.5507	-6.36613	27.9144	0	
0.5513	-4.82187	31.2647	0	
0.5520	-3.62428	29.1275	0	
0.5527	-5.45218	27.2935	0	
0.5533	-7.28008	27.6112	0	
0.5540	-3.62428	25.4739	0	
0.5547	4.31762	24.5497	0	
0.5553	8.60373	26.9902	0	
0.5560	8.60373	26.9902	0	
0.5567	9.20253	26.0804	0	
0.5573	12.5432	27.2935	0	
0.5580	14.0874	26.0804	0	
0.5587	14.4026	25.1706	0	
0.5593	13.4886	27.6112	0	
0.5600	6.14552	28.2177	0	
0.5607	-2.39518	26.6869	0	
0.5613	-1.48123	26.0804	0	
0.5620	3.71883	25.1706	0	
0.5627	4.63278	25.1706	0	
0.5633	3.08852	26.6869	0	
0.5640	2.80488	26.3837	0	
0.5647	5.23157	24.8529	0	
0.5653	13.1735	24.2464	0	
0.5660	20.2014	21.8059	0	
0.5667	20.2014	22.1092	0	
0.5673	20.4851	25.4739	0	
0.5680	20.8002	25.4739	0	
0.5687	14.6862	24.5497	0	
0.5693	9.51768	25.7772	0	
0.5700	9.51768	25.4739	0	
0.5707	8.28858	23.6399	0	
0.5713	3.40367	21.1994	0	
0.5720	1.26062	17.2281	0	
0.5727	2.80488	14.4843	0	
0.5733	7.05947	15.0908	0	
0.5740	11.3456	14.4843	0	
0.5747	12.5432	15.3941	0	
0.5753	10.7153	18.7588	0	
0.5760	6.77583	19.9719	0	
0.5767	1.89093	20.8961	0	
0.5773	-1.16607	22.7157	0	
0.5780	-1.79638	22.7157	0	
0.5787	-4.82187	22.7157	0	
0.5793	-10.0219	25.4739	0	
0.5800	-11.251	24.8529	0	
0.5807	-10.9359	21.8059	0	
0.5813	-13.6777	23.3366	0	
0.5820	-20.1069	26.3837	0	
0.5827	-28.0173	24.8529	0	
0.5833	-32.6185	23.0334	0	
0.5840	-30.4755	22.4124	0	
0.5847	-27.4185	18.4556	0	
0.5853	-30.4755	13.8778	0	
0.5860	-32.6185	14.1811	0	
0.5867	-26.5045	16.3183	0	
0.5873	-20.1069	14.7876	0	
0.5880	-19.1929	13.2568	0	
0.5887	-20.3905	14.1811	0	
0.5893	-20.3905	12.347	0	
0.5900	-16.4196	8.99674	0	
0.5907	-9.70677	9.60326	0	
0.5913	-4.53823	10.8163	0	
0.5920	-2.39518	8.67903	0	
0.5927	2.80488	8.99674	0	
0.5933	13.1735	9.60326	0	
0.5940	19.2875	5.32872	0	
0.5947	15.6002	2.8882	0	
0.5953	11.6292	5.32872	0	
0.5960	12.5432	5.32872	0	
0.5967	12.2595	3.19146	0	
0.5973	11.6292	3.49472	0	
0.5980	14.4026	2.8882	0	
0.5987	9.20253	1.66071	0	
0.5993	-5.45218	3.19146	0	
0.6000	-11.8498	3.49472	0	
0.6007	-5.13703	0.750931	0	
0.6013	0.0315155	-2.91708	0	
0.6020	-0.252124	-4.13012	0	
0.6027	-4.82187	-3.82686	0	
0.6033	-10.0219	-1.38633	0	
0.6040	-5.76734	-0.158851	0	
0.6047	4.00247	-0.779813	0	
0.6053	9.20253	-2.91708	0	
0.6060	11.0304	-5.35761	0	
0.6067	13.7723	-5.66087	0	
0.6073	15.6002	-5.35761	0	
0.6080	15.6002	-5.66087	0	
0.6087	14.4026	-3.82686	0	
0.6093	12.5432	-3.82686	0	
0.6100	12.2595	-8.10139	0	
0.6107	9.51768	-7.49487	0	
0.6113	1.89093	-1.99286	0	
0.6120	-4.53823	-1.99286	0	
0.6127	-7.28008	-4.73664	0	
0.6133	-8.79282	-4.73664	0	
0.6140	-10.0219	-3.82686	0	
0.6147	-10.0219	-3.5236	0	
0.6153	-8.19403	-2.91708	0	
0.6160	-6.68129	-3.22034	0	
0.6167	-6.68129	-2.91708	0	
0.6173	-4.22308	-1.99286	0	
0.6180	4.00247	-2.91708	0	
0.6187	11.0304	-3.82686	0	
0.6193	11.6292	-3.82686	0	
0.6200	12.8583	-5.66087	0	
0.6207	15.6002	-6.26739	0	
0.6213	12.8583	-4.73664	0	
0.6220	9.80132	-4.13012	0	
0.6227	9.20253	-2.61382	0	
0.6233	-0.882434	0.14441	0	
0.6240	-18.279	-1.6896	0	
0.6247	-24.6766	-5.05435	0	
0.6253	-20.3905	-3.5236	0	
0.6260	-18.279	-1.08307	0	
0.6267	-17.6487	-2.61382	0	
0.6273	-18.5626	-2.61382	0	
0.6280	-20.3905	-2.29612	0	
0.6287	-16.1359	-4.13012	0	
0.6293	-11.251	-3.82686	0	
0.6300	-15.222	-2.91708	0	
0.6307	-19.1929	-5.66087	0	
0.6313	-14.5917	-7.49487	0	
0.6320	-9.42313	-5.05435	0	
0.6327	-9.10798	-4.73664	0	
0.6333	-8.79282	-7.19161	0	
0.6340	-5.45218	-8.40466	0	
0.6347	0.34667	-7.49487	0	
0.6353	6.14552	-6.57065	0	
0.6360	10.4316	-6.57065	0	
0.6367	15.0014	-7.49487	0	
0.6373	20.2014	-7.79813	0	
0.6380	23.2269	-9.01118	0	
0.6387	24.1409	-9.63214	0	
0.6393	24.1409	-8.40466	0	
0.6400	23.8572	-8.40466	0	
0.6407	21.399	-8.70792	0	
0.6413	19.5711	-5.66087	0	
0.6420	21.1154	-6.57065	0	
0.6427	21.399	-11.1484	0	
0.6433	17.7432	-10.8452	0	
0.6440	17.4281	-9.63214	0	
0.6447	18.342	-12.3759	0	
0.6453	12.2595	-12.0727	0	
0.6460	2.48972	-9.9354	0	
0.6467	-2.08002	-10.5419	0	
0.6473	-2.39518	-9.01118	0	
0.6480	-3.30913	-5.66087	0	
0.6487	-5.45218	-8.70792	0	
0.6493	-6.36613	-11.4517	0	
0.6500	-4.82187	-6.87391	0	
0.6507	-5.13703	-4.73664	0	
0.6513	-6.68129	-8.10139	0	
0.6520	-8.19403	-9.63214	0	
0.6527	-8.50918	-8.10139	0	
0.6533	-2.99397	-5.96413	0	
0.6540	8.28858	-4.73664	0	
0.6547	16.5141	-5.66087	0	
0.6553	18.0584	-6.57065	0	
0.6560	18.0584	-3.82686	0	
0.6567	15.6002	-1.99286	0	
0.6573	12.8583	-5.35761	0	
0.6580	15.3165	-8.70792	0	
0.6587	17.1444	-6.57065	0	
0.6593	15.0014	-3.82686	0	
0.6600	14.6862	-4.13012	0	
0.6607	17.4281	-6.87391	0	
0.6613	18.9723	-9.31444	0	
0.6620	17.4281	-9.9354	0	
0.6627	13.4886	-7.79813	0	
0.6633	6.77583	-6.87391	0	
0.6640	-2.71033	-7.19161	0	
0.6647	-13.0789	-5.05435	0	
0.6653	-19.1929	-3.82686	0	
0.6660	-20.3905	-5.05435	0	
0.6667	-21.9348	-4.13012	0	
0.6673	-24.3615	-1.08307	0	
0.6680	-24.3615	-1.08307	0	
0.6687	-24.6766	-3.5236	0	
0.6693	-29.8452	-3.82686	0	
0.6700	-34.7301	-2.61382	0	
0.6707	-35.3604	0.14441	0	
0.6713	-35.9592	3.19146	0	
0.6720	-36.2743	5.32872	0	
0.6727	-32.6185	7.16273	0	
0.6733	-33.2173	4.41894	0	
0.6740	-42.9871	0.447671	0	
0.6747	-48.1557	3.49472	0	
0.6753	-41.758	10.513	0	
0.6760	-32.6185	8.07251	0	
0.6767	-24.6766	2.8882	0	
0.6773	-16.4196	4.41894	0	
0.6780	-7.59523	5.32872	0	
0.6787	-0.252124	1.66071	0	
0.6793	0.97698	1.35745	0	
0.6800	-2.71033	2.28168	0	
0.6807	1.89093	1.05419	0	
0.6813	16.2305	1.66071	0	
0.6820	28.427	4.41894	0	
0.6827	33.627	3.49472	0	
0.6833	33.9107	1.35745	0	
0.6840	30.2549	-0.158851	0	
0.6847	27.8282	-1.99286	0	
0.6853	29.6561	-3.82686	0	
0.6860	29.3409	-4.73664	0	
0.6867	26.2839	-4.43338	0	
0.6873	24.1409	-5.05435	0	
0.6880	20.2014	-6.26739	0	
0.6887	13.1735	-5.96413	0	
0.6893	10.1165	-4.43338	0	
0.6900	8.60373	-3.82686	0	
0.6907	2.17457	-3.5236	0	
0.6913	-4.82187	-2.91708	0	
0.6920	-6.96492	-2.91708	0	
0.6927	-10.0219	-3.5236	0	
0.6933	-16.4196	-3.82686	0	
0.6940	-19.4766	-1.99286	0	
0.6947	-17.0499	0.750931	0	
0.6953	-14.308	-1.08307	0	
0.6960	-14.308	-3.22034	0	
0.6967	-14.5917	-1.38633	0	
0.6973	-13.0789	0.14441	0	
0.6980	-13.0789	-0.779813	0	
0.6987	-14.308	-1.08307	0	
0.6993	-11.8498	-0.158851	0	
0.7000	-8.19403	1.35745	0	
0.7007	-6.68129	1.66071	0	
0.7013	-5.76734	0.14441	0	
0.7020	-3.30913	-1.08307	0	
0.7027	-1.16607	-0.476553	0	
0.7033	0.97698	-1.99286	0	
0.7040	3.71883	-3.82686	0	
0.7047	4.31762	-1.99286	0	
0.7053	2.80488	-0.476553	0	
0.7060	2.48972	-1.08307	0	
0.7067	2.80488	-0.476553	0	
0.7073	4.63278	-0.158851	0	
0.7080	10.1165	-1.08307	0	
0.7087	14.4026	-2.29612	0	
0.7093	13.7723	-4.13012	0	
0.7100	15.6002	-5.96413	0	
0.7107	22.0293	-4.73664	0	
0.7113	24.7712	-4.43338	0	
0.7120	22.9433	-8.10139	0	
0.7127	23.8572	-9.63214	0	
0.7133	27.513	-8.40466	0	
0.7140	25.6851	-8.40466	0	
0.7147	19.8863	-8.40466	0	
0.7153	16.8293	-6.57065	0	
0.7160	14.0874	-5.66087	0	
0.7167	10.1165	-5.66087	0	
0.7173	7.37463	-5.35761	0	
0.7180	5.54673	-6.57065	0	
0.7187	3.08852	-6.57065	0	
0.7193	-0.567279	-3.82686	0	
0.7200	-6.05098	-2.61382	0	
0.7207	-9.10798	-2.91708	0	
0.7213	-9.10798	-2.91708	0	
0.7220	-10.6207	-3.82686	0	
0.7227	-13.6777	-3.82686	0	
0.7233	-11.8498	-1.08307	0	
0.7240	-10.0219	1.35745	0	
0.7247	-12.7638	-0.158851	0	
0.7253	-13.0789	-1.08307	0	
0.7260	-10.0219	-0.158851	0	
0.7267	-8.19403	0.447671	0	
0.7273	-7.28008	0.750931	0	
0.7280	-4.82187	1.66071	0	
0.7287	-2.39518	3.19146	0	
0.7293	-0.567279	2.58494	0	
0.7300	0.34667	-1.08307	0	
0.7307	0.97698	-2.61382	0	
0.7313	2.80488	-1.38633	0	
0.7320	6.46068	-2.91708	0	
0.7327	8.28858	-5.35761	0	
0.7333	6.46068	-6.57065	0	
0.7340	4.31762	-6.57065	0	
0.7347	6.14552	-4.43338	0	
0.7353	8.28858	-1.99286	0	
0.7360	6.46068	-3.22034	0	
0.7367	4.63278	-4.43338	0	
0.7373	2.48972	-2.91708	0	
0.7380	-1.79638	-3.22034	0	
0.7387	-3.90792	-5.66087	0	
0.7393	-3.62428	-4.43338	0	
0.7400	-6.36613	-1.99286	0	
0.7407	-9.10798	-1.99286	0	
0.7413	-6.36613	-2.91708	0	
0.7420	-4.22308	-2.91708	0	
0.7427	-6.05098	-3.5236	0	
0.7433	-6.05098	-3.5236	0	
0.7440	-1.16607	-2.29612	0	
0.7447	1.89093	-1.38633	0	
0.7453	-0.882434	-3.82686	0	
0.7460	-4.22308	-7.79813	0	
0.7467	-2.99397	-4.43338	0	
0.7473	-1.79638	4.10124	0	
0.7480	-2.71033	5.32872	0	
0.7487	-2.39518	1.66071	0	
0.7493	1.26062	2.8882	0	
0.7500	4.63278	1.66071	0	
0.7507	5.54673	-3.82686	0	
0.7513	5.23157	-3.5236	0	
0.7520	7.05947	0.447671	0	
0.7527	6.46068	-0.158851	0	
0.7533	0.661825	-0.476553	0	
0.7540	-2.99397	1.05419	0	
0.7547	1.57577	1.35745	0	
0.7553	4.91642	2.58494	0	
0.7560	4.63278	3.19146	0	
0.7567	7.37463	0.750931	0	
0.7573	11.0304	0.750931	0	
0.7580	8.28858	1.35745	0	
0.7587	4.00247	-1.6896	0	
0.7593	3.71883	-0.779813	0	
0.7600	5.83037	1.96397	0	
0.7607	7.97342	-1.99286	0	
0.7613	7.68978	-3.82686	0	
0.7620	5.23157	0.447671	0	
0.7627	3.71883	2.28168	0	
0.7633	2.80488	1.66071	0	
0.7640	-1.16607	3.19146	0	
0.7647	-6.36613	2.58494	0	
0.7653	-8.19403	0.14441	0	
0.7660	-10.0219	-1.99286	0	
0.7667	-15.5056	-4.43338	0	
0.7673	-19.4766	-1.99286	0	
0.7680	-19.1929	3.79798	0	
0.7687	-17.6487	3.79798	0	
0.7693	-17.9638	0.447671	0	
0.7700	-15.5056	0.750931	0	
0.7707	-10.0219	0.750931	0	
0.7713	-7.28008	-1.08307	0	
0.7720	-7.28008	-0.779813	0	
0.7727	-3.30913	-0.476553	0	
0.7733	2.17457	-2.61382	0	
0.7740	1.89093	-2.91708	0	
0.7747	-0.882434	-2.29612	0	
0.7753	2.80488	-3.82686	0	
0.7760	10.1165	-4.73664	0	
0.7767	11.0304	-2.29612	0	
0.7773	7.05947	-0.779813	0	
0.7780	6.46068	-1.6896	0	
0.7787	9.51768	-1.08307	0	
0.7793	13.7723	-1.99286	0	
0.7800	16.5141	-3.82686	0	
0.7807	18.342	-3.82686	0	
0.7813	22.313	-3.82686	0	
0.7820	27.513	-6.57065	0	
0.7827	29.9397	-7.19161	0	
0.7833	30.2549	-6.87391	0	
0.7840	31.1688	-7.79813	0	
0.7847	29.3409	-6.57065	0	
0.7853	23.8572	-4.73664	0	
0.7860	18.6572	-5.66087	0	
0.7867	14.4026	-5.66087	0	
0.7873	9.51768	-3.82686	0	
0.7880	2.80488	-1.38633	0	
0.7887	-6.68129	1.05419	0	
0.7893	-15.222	2.28168	0	
0.7900	-21.0208	3.49472	0	
0.7907	-29.2464	8.67903	0	
0.7913	-39.9301	9.90652	0	
0.7920	-45.729	4.7222	0	
0.7927	-47.5569	4.10124	0	
0.7933	-49.6999	6.85947	0	
0.7940	-51.2127	3.49472	0	
0.7947	-50.0151	-0.158851	0	
0.7953	-49.1011	1.96397	0	
0.7960	-46.6429	3.49472	0	
0.7967	-40.5289	2.58494	0	
0.7973	-37.7871	2.28168	0	
0.7980	-35.644	2.58494	0	
0.7987	-24.0778	3.79798	0	
0.7993	-8.79282	3.49472	0	
0.8000	-2.71033	3.79798	0	
0.8007	-2.39518	8.99674	0	
0.8013	0.0315155	12.0438	0	
0.8020	4.31762	7.76925	0	
0.8027	10.1165	5.63199	0	
0.8033	11.9444	8.67903	0	
0.8040	11.0304	6.54177	0	
0.8047	15.3165	-1.08307	0	
0.8053	22.9433	-3.82686	0	
0.8060	24.7712	-1.38633	0	
0.8067	25.0863	-1.99286	0	
0.8073	28.7421	-3.82686	0	
0.8080	29.6561	-3.82686	0	
0.8087	24.7712	-6.57065	0	
0.8093	20.2014	-9.9354	0	
0.8100	23.8572	-8.40466	0	
0.8107	33.9107	-8.40466	0	
0.8113	32.0828	-11.755	0	
0.8120	17.4281	-10.2387	0	
0.8127	10.4316	-7.49487	0	
0.8133	13.1735	-10.2387	0	
0.8140	12.8583	-11.1484	0	
0.8147	11.0304	-8.10139	0	
0.8153	10.4316	-7.79813	0	
0.8160	4.31762	-6.57065	0	
0.8167	0.0315155	-3.82686	0	
0.8173	1.89093	-5.66087	0	
0.8180	-0.882434	-6.87391	0	
0.8187	-8.19403	-3.82686	0	
0.8193	-10.0219	-2.61382	0	
0.8200	-11.251	-2.29612	0	
0.8207	-16.1359	1.66071	0	
0.8213	-19.1929	3.49472	0	
0.8220	-20.1069	0.750931	0	
0.8227	-22.8487	-0.158851	0	
0.8233	-24.3615	0.750931	0	
0.8240	-22.8487	-1.99286	0	
0.8247	-18.8778	-4.13012	0	
0.8253	-11.251	-2.29612	0	
0.8260	-5.76734	-0.476553	0	
0.8267	-6.96492	-1.08307	0	
0.8273	-6.36613	-0.779813	0	
0.8280	0.34667	-1.08307	0	
0.8287	2.80488	-3.82686	0	
0.8293	0.97698	-5.05435	0	
0.8300	3.40367	-2.91708	0	
0.8307	7.05947	-1.08307	0	
0.8313	8.60373	-2.91708	0	
0.8320	11.3456	-4.73664	0	
0.8327	12.5432	-6.57065	0	
0.8333	11.3456	-7.79813	0	
0.8340	14.6862	-7.79813	0	
0.8347	22.0293	-4.43338	0	
0.8353	26.5991	-1.99286	0	
0.8360	26.9142	-1.99286	0	
0.8367	24.456	-1.6896	0	
0.8373	20.2014	-1.6896	0	
0.8380	17.7432	-3.82686	0	
0.8387	16.5141	-3.82686	0	
0.8393	12.5432	-1.6896	0	
0.8400	7.37463	-3.22034	0	
0.8407	6.14552	-5.66087	0	
0.8413	7.37463	-4.73664	0	
0.8420	5.54673	-4.13012	0	
0.8427	2.80488	-3.82686	0	
0.8433	2.17457	-1.08307	0	
0.8440	2.17457	-0.476553	0	
0.8447	0.661825	-1.99286	0	
0.8453	-0.882434	-1.6896	0	
0.8460	-1.79638	-1.08307	0	
0.8467	-5.45218	-1.08307	0	
0.8473	-10.0219	-0.158851	0	
0.8480	-12.4801	-0.779813	0	
0.8487	-12.7638	-2.61382	0	
0.8493	-14.308	-2.91708	0	
0.8500	-16.4196	-3.5236	0	
0.8507	-16.4196	-3.82686	0	
0.8513	-14.5917	-2.29612	0	
0.8520	-16.1359	-0.158851	0	
0.8527	-17.3335	-0.158851	0	
0.8533	-17.3335	0.14441	0	
0.8540	-19.4766	2.8882	0	
0.8547	-21.3045	3.19146	0	
0.8553	-17.3335	1.66071	0	
0.8560	-13.6777	1.66071	0	
0.8567	-14.308	1.66071	0	
0.8573	-12.7638	-1.08307	0	
0.8580	-9.42313	-1.6896	0	
0.8587	-9.42313	0.14441	0	
0.8593	-9.70677	-0.158851	0	
0.8600	-6.96492	-1.6896	0	
0.8607	-3.30913	-1.99286	0	
0.8613	-1.16607	-3.22034	0	
0.8620	-0.882434	-3.22034	0	
0.8627	0.0315155	-1.08307	0	
0.8633	3.71883	-1.99286	0	
0.8640	7.37463	-4.13012	0	
0.8647	7.68978	-5.05435	0	
0.8653	9.51768	-5.96413	0	
0.8660	12.8583	-7.19161	0	
0.8667	13.7723	-5.96413	0	
0.8673	15.0014	-5.05435	0	
0.8680	15.9153	-5.35761	0	
0.8687	14.0874	-5.05435	0	
0.8693	13.7723	-4.43338	0	
0.8700	14.0874	-3.82686	0	
0.8707	10.1165	-2.91708	0	
0.8713	7.37463	-3.22034	0	
0.8720	10.7153	-3.82686	0	
0.8727	10.7153	-5.35761	0	
0.8733	8.28858	-5.35761	0	
0.8740	9.51768	-3.5236	0	
0.8747	6.46068	-0.779813	0	
0.8753	-2.08002	0.750931	0	
0.8760	-6.68129	2.58494	0	
0.8767	-6.36613	2.8882	0	
0.8773	-6.36613	0.447671	0	
0.8780	-7.28008	-1.08307	0	
0.8787	-9.10798	0.14441	0	
0.8793	-10.3371	1.96397	0	
0.8800	-9.70677	1.96397	0	
0.8807	-7.28008	0.14441	0	
0.8813	-2.99397	-1.08307	0	
0.8820	-0.882434	0.750931	0	
0.8827	-2.71033	2.8882	0	
0.8833	-3.30913	1.96397	0	
0.8840	0.97698	-0.158851	0	
0.8847	4.00247	-1.08307	0	
0.8853	4.63278	-1.6896	0	
0.8860	3.40367	-1.99286	0	
0.8867	2.80488	-0.779813	0	
0.8873	5.83037	-1.08307	0	
0.8880	11.9444	-1.99286	0	
0.8887	15.0014	-1.99286	0	
0.8893	17.4281	-2.91708	0	
0.8900	18.0584	-5.35761	0	
0.8907	13.7723	-4.73664	0	
0.8913	9.51768	-2.91708	0	
0.8920	8.28858	-4.73664	0	
0.8927	5.23157	-6.57065	0	
0.8933	3.40367	-3.22034	0	
0.8940	4.00247	0.447671	0	
0.8947	-1.79638	2.58494	0	
0.8953	-9.70677	4.41894	0	
0.8960	-10.0219	4.10124	0	
0.8967	-12.165	3.49472	0	
0.8973	-19.4766	6.23851	0	
0.8980	-20.1069	8.99674	0	
0.8987	-17.9638	10.8163	0	
0.8993	-21.3045	13.5745	0	
0.9000	-23.4475	14.4843	0	
0.9007	-18.279	12.9536	0	
0.9013	-10.9359	11.7405	0	
0.9020	-4.53823	12.0438	0	
0.9027	-0.567279	12.9536	0	
0.9033	1.89093	11.7405	0	
0.9040	3.08852	6.23851	0	
0.9047	3.71883	2.58494	0	
0.9053	4.91642	3.79798	0	
0.9060	7.97342	6.23851	0	
0.9067	8.88737	6.54177	0	
0.9073	5.83037	4.41894	0	
0.9080	3.71883	2.58494	0	
0.9087	5.54673	1.66071	0	
0.9093	11.0304	0.14441	0	
0.9100	15.3165	-2.29612	0	
0.9107	15.3165	-1.08307	0	
0.9113	14.6862	-0.158851	0	
0.9120	12.8583	-1.99286	0	
0.9127	6.14552	-0.476553	0	
0.9133	0.34667	2.58494	0	
0.9140	0.661825	1.35745	0	
0.9147	1.26062	-1.08307	0	
0.9153	-1.48123	-0.158851	0	
0.9160	-2.99397	0.750931	0	
0.9167	-1.79638	3.49472	0	
0.9173	0.0315155	7.46599	0	
0.9180	-0.882434	7.16273	0	
0.9187	-5.45218	5.02546	0	
0.9193	-8.50918	5.63199	0	
0.9200	-8.79282	6.23851	0	
0.9207	-10.0219	3.49472	0	
0.9213	-13.0789	4.41894	0	
0.9220	-13.9929	6.85947	0	
0.9227	-14.9068	5.02546	0	
0.9233	-16.7347	2.8882	0	
0.9240	-14.9068	3.79798	0	
0.9247	-10.3371	3.49472	0	
0.9253	-8.79282	-0.476553	0	
0.9260	-9.42313	-3.22034	0	
0.9267	-5.45218	-4.13012	0	
0.9273	2.80488	-4.73664	0	
0.9280	11.3456	-4.43338	0	
0.9287	22.0293	-3.82686	0	
0.9293	29.9397	-4.73664	0	
0.9300	30.2549	-4.73664	0	
0.9307	28.1118	-3.82686	0	
0.9313	29.6561	-4.73664	0	
0.9320	28.7421	-8.40466	0	
0.9327	24.7712	-9.9354	0	
0.9333	22.0293	-8.40466	0	
0.9340	18.342	-7.79813	0	
0.9347	11.9444	-7.19161	0	
0.9353	7.37463	-3.82686	0	
0.9360	2.17457	-2.61382	0	
0.9367	-6.96492	-2.91708	0	
0.9373	-13.3941	-1.6896	0	
0.9380	-13.6777	-2.29612	0	
0.9387	-13.6777	-4.73664	0	
0.9393	-17.0499	-3.22034	0	
0.9400	-22.5336	-1.08307	0	
0.9407	-28.0173	-1.6896	0	
0.9413	-31.3894	-2.29612	0	
0.9420	-29.2464	-2.91708	0	
0.9427	-19.7917	-3.82686	0	
0.9433	-8.79282	-5.66087	0	
0.9440	-4.82187	-10.2387	0	
0.9447	-6.05098	-12.6792	0	
0.9453	-2.99397	-7.49487	0	
0.9460	2.80488	-4.43338	0	
0.9467	6.14552	-7.19161	0	
0.9473	9.80132	-7.49487	0	
0.9480	14.6862	-6.57065	0	
0.9487	15.3165	-7.49487	0	
0.9493	11.3456	-5.66087	0	
0.9500	7.97342	-3.82686	0	
0.9507	5.54673	-5.96413	0	
0.9513	5.54673	-7.49487	0	
0.9520	5.83037	-5.05435	0	
0.9527	0.97698	-3.82686	0	
0.9533	-6.36613	-1.99286	0	
0.9540	-12.165	1.96397	0	
0.9547	-17.3335	4.41894	0	
0.9553	-19.1929	3.49472	0	
0.9560	-15.222	2.8882	0	
0.9567	-14.308	4.41894	0	
0.9573	-14.5917	4.10124	0	
0.9580	-8.19403	1.66071	0	
0.9587	-1.79638	1.66071	0	
0.9593	-0.882434	2.8882	0	
0.9600	-1.48123	1.66071	0	
0.9607	-0.567279	1.05419	0	
0.9613	0.97698	2.58494	0	
0.9620	1.57577	1.05419	0	
0.9627	2.48972	-1.38633	0	
0.9633	7.97342	-1.08307	0	
0.9640	13.7723	-1.08307	0	
0.9647	11.9444	-2.29612	0	
0.9653	11.9444	-1.08307	0	
0.9660	20.2014	-0.476553	0	
0.9667	23.8572	-2.91708	0	
0.9673	21.7142	-2.91708	0	
0.9680	22.0293	-0.779813	0	
0.9687	22.6281	-0.779813	0	
0.9693	19.2875	-1.99286	0	
0.9700	15.6002	-2.29612	0	
0.9707	8.88737	-2.91708	0	
0.9713	1.26062	-2.61382	0	
0.9720	-1.79638	-1.99286	0	
0.9727	-1.48123	-2.29612	0	
0.9733	-1.16607	-3.82686	0	
0.9740	-1.16607	-3.22034	0	
0.9747	-4.53823	-1.08307	0	
0.9753	-10.6207	0.14441	0	
0.9760	-13.9929	0.750931	0	
0.9767	-17.6487	3.19146	0	
0.9773	-19.7917	3.49472	0	
0.9780	-13.3941	1.05419	0	
0.9787	-8.19403	1.35745	0	
0.9793	-11.5347	3.49472	0	
0.9800	-9.70677	4.41894	0	
0.9807	-1.48123	5.93525	0	
0.9813	0.0315155	6.85947	0	
0.9820	-3.90792	3.19146	0	
0.9827	-4.82187	0.750931	0	
0.9833	-5.76734	3.19146	0	
0.9840	-10.0219	6.23851	0	
0.9847	-12.7638	7.76925	0	
0.9853	-11.251	6.23851	0	
0.9860	-7.28008	4.41894	0	
0.9867	-4.53823	5.93525	0	
0.9873	-1.79638	6.85947	0	
0.9880	2.80488	6.85947	0	
0.9887	6.46068	11.1196	0	
0.9893	7.68978	14.7876	0	
0.9900	8.28858	12.6503	0	
0.9907	5.83037	11.1196	0	
0.9913	1.26062	11.7405	0	
0.9920	0.97698	11.7405	0	
0.9927	3.71883	12.6503	0	
0.9933	3.71883	14.1811	0	
0.9940	0.97698	13.8778	0	
0.9947	-1.79638	14.4843	0	
0.9953	-3.90792	13.5745	0	
0.9960	-5.45218	12.0438	0	
0.9967	-5.45218	12.6503	0	
0.9973	-4.82187	12.347	0	
0.9980	-4.53823	9.90652	0	
0.9987	-6.96492	9.60326	0	
0.9993	-10.0219	9.90652	0	
1.0000	-11.8498	8.37577	0	
1.0007	-13.0789	8.99674	0	
1.0013	-14.9068	8.37577	0	
1.0020	-13.6777	4.41894	0	
1.0027	-10.0219	4.10124	0	
1.0033	-6.96492	7.16273	0	
1.0040	-7.28008	6.23851	0	
1.0047	-8.19403	5.02546	0	
1.0053	-5.45218	6.54177	0	
1.0060	-3.30913	5.02546	0	
1.0067	-5.45218	0.750931	0	
1.0073	-6.36613	1.66071	0	
1.0080	-2.39518	6.23851	0	
1.0087	0.661825	5.93525	0	
1.0093	1.89093	4.41894	0	
1.0100	4.31762	7.16273	0	
1.0107	7.37463	7.46599	0	
1.0113	9.51768	3.19146	0	
1.0120	13.7723	2.28168	0	
1.0127	17.4281	4.41894	0	
1.0133	15.6002	3.49472	0	
1.0140	11.9444	3.79798	0	
1.0147	11.9444	8.07251	0	
1.0153	10.1165	8.07251	0	
1.0160	5.54673	5.02546	0	
1.0167	2.80488	6.23851	0	
1.0173	1.89093	8.37577	0	
1.0180	-1.79638	8.37577	0	
1.0187	-5.45218	9.3	0	
1.0193	-8.19403	9.90652	0	
1.0200	-10.0219	7.46599	0	
1.0207	-8.19403	6.23851	0	
1.0213	-6.36613	5.02546	0	
1.0220	-6.36613	1.66071	0	
1.0227	-4.82187	0.14441	0	
1.0233	-2.71033	1.05419	0	
1.0240	-2.71033	0.447671	0	
1.0247	-1.48123	-1.08307	0	
1.0253	0.34667	-2.61382	0	
1.0260	0.97698	-3.5236	0	
1.0267	5.54673	-2.91708	0	
1.0273	14.6862	-3.82686	0	
1.0280	21.7142	-5.96413	0	
1.0287	24.7712	-4.13012	0	
1.0293	25.6851	-1.6896	0	
1.0300	26.0003	-4.13012	0	
1.0307	24.456	-5.66087	0	
1.0313	21.399	-3.5236	0	
1.0320	18.342	-3.22034	0	
1.0327	15.6002	-3.82686	0	
1.0333	11.9444	-3.82686	0	
1.0340	9.20253	-3.82686	0	
1.0347	7.37463	-1.99286	0	
1.0353	2.80488	-0.158851	0	
1.0360	-1.79638	-1.99286	0	
1.0367	-1.79638	-2.29612	0	
1.0373	-2.71033	0.750931	0	
1.0380	-5.13703	1.05419	0	
1.0387	-2.99397	-0.158851	0	
1.0393	-2.08002	0.447671	0	
1.0400	-8.19403	-0.779813	0	
1.0407	-9.42313	-1.99286	0	
1.0413	-2.71033	-0.476553	0	
1.0420	0.0315155	1.05419	0	
1.0427	-1.48123	1.35745	0	
1.0433	-0.252124	-1.99286	0	
1.0440	0.661825	-5.66087	0	
1.0447	-0.882434	-4.13012	0	
1.0453	-1.16607	-0.779813	0	
1.0460	0.0315155	-1.08307	0	
1.0467	0.34667	-1.99286	0	
1.0473	1.57577	-1.08307	0	
1.0480	3.40367	-0.158851	0	
1.0487	6.77583	0.447671	0	
1.0493	8.60373	-0.476553	0	
1.0500	6.46068	-1.6896	0	
1.0507	4.63278	-1.08307	0	
1.0513	6.46068	-1.08307	0	
1.0520	6.46068	-1.08307	0	
1.0527	4.00247	1.05419	0	
1.0533	3.71883	3.19146	0	
1.0540	2.80488	2.28168	0	
1.0547	-1.16607	0.750931	0	
1.0553	-4.53823	1.66071	0	
1.0560	-3.30913	2.28168	0	
1.0567	-1.16607	0.750931	0	
1.0573	-1.16607	-1.99286	0	
1.0580	-0.252124	-0.779813	0	
1.0587	2.80488	0.750931	0	
1.0593	6.14552	-1.38633	0	
1.0600	8.28858	-1.6896	0	
1.0607	8.88737	1.05419	0	
1.0613	7.68978	1.05419	0	
1.0620	5.54673	-1.99286	0	
1.0627	4.31762	-3.5236	0	
1.0633	2.80488	-2.29612	0	
1.0640	2.80488	-2.91708	0	
1.0647	3.71883	-5.66087	0	
1.0653	0.97698	-7.19161	0	
1.0660	-2.71033	-4.73664	0	
1.0667	-2.08002	-1.6896	0	
1.0673	-3.30913	-0.158851	0	
1.0680	-8.19403	-1.6896	0	
1.0687	-11.8498	-3.82686	0	
1.0693	-14.9068	-4.13012	0	
1.0700	-16.7347	-5.66087	0	
1.0707	-15.222	-7.49487	0	
1.0713	-12.165	-4.73664	0	
1.0720	-8.19403	-1.99286	0	
1.0727	-2.99397	-4.43338	0	
1.0733	1.26062	-9.31444	0	
1.0740	4.00247	-9.9354	0	
1.0747	5.54673	-8.40466	0	
1.0753	4.63278	-7.49487	0	
1.0760	2.80488	-5.66087	0	
1.0767	2.80488	-3.82686	0	
1.0773	1.89093	-5.96413	0	
1.0780	0.34667	-7.79813	0	
1.0787	-0.252124	-5.35761	0	
1.0793	-2.08002	-2.91708	0	
1.0800	-6.36613	-2.61382	0	
1.0807	-10.9359	-2.29612	0	
1.0813	-14.308	-3.5236	0	
1.0820	-17.3335	-6.57065	0	
1.0827	-18.8778	-5.05435	0	
1.0833	-16.4196	-0.158851	0	
1.0840	-12.7638	1.96397	0	
1.0847	-11.5347	1.66071	0	
1.0853	-12.4801	1.66071	0	
1.0860	-11.8498	0.447671	0	
1.0867	-9.10798	-1.38633	0	
1.0873	-3.62428	-1.08307	0	
1.0880	0.0315155	-0.158851	0	
1.0887	-0.882434	-0.158851	0	
1.0893	-2.39518	-1.08307	0	
1.0900	-0.882434	-0.779813	0	
1.0907	-1.48123	1.66071	0	
1.0913	-6.68129	2.8882	0	
1.0920	-11.251	1.96397	0	
1.0927	-13.6777	2.8882	0	
1.0933	-13.3941	5.32872	0	
1.0940	-11.8498	3.19146	0	
1.0947	-14.5917	0.750931	0	
1.0953	-18.5626	4.10124	0	
1.0960	-15.5056	6.23851	0	
1.0967	-10.0219	5.02546	0	
1.0973	-9.10798	6.54177	0	
1.0980	-7.28008	9.90652	0	
1.0987	-1.79638	9.3	0	
1.0993	2.48972	7.16273	0	
1.1000	4.63278	4.41894	0	
1.1007	7.97342	-1.08307	0	
1.1013	12.8583	-4.13012	0	
1.1020	18.342	-2.91708	0	
1.1027	22.0293	-2.29612	0	
1.1033	22.6281	-2.91708	0	
1.1040	22.313	-2.61382	0	
1.1047	21.7142	-2.91708	0	
1.1053	20.8002	-5.96413	0	
1.1060	18.342	-9.31444	0	
1.1067	16.5141	-8.70792	0	
1.1073	14.6862	-7.49487	0	
1.1080	7.97342	-7.49487	0	
1.1087	0.0315155	-6.26739	0	
1.1093	-0.882434	-5.05435	0	
1.1100	0.97698	-7.49487	0	
1.1107	-3.30913	-9.31444	0	
1.1113	-5.45218	-8.70792	0	
1.1120	-2.39518	-9.01118	0	
1.1127	-0.882434	-8.40466	0	
1.1133	-0.252124	-5.05435	0	
1.1140	-0.252124	-4.13012	0	
1.1147	-3.30913	-5.66087	0	
1.1153	-1.16607	-4.73664	0	
1.1160	4.31762	-2.91708	0	
1.1167	2.48972	-1.6896	0	
1.1173	-0.882434	-1.08307	0	
1.1180	0.97698	-0.158851	0	
1.1187	-1.48123	-0.158851	0	
1.1193	-6.36613	-1.6896	0	
1.1200	-5.45218	-2.91708	0	
1.1207	-8.19403	-2.91708	0	
1.1213	-13.3941	-3.5236	0	
1.1220	-11.8498	-4.43338	0	
1.1227	-9.42313	-2.91708	0	
1.1233	-9.10798	-2.61382	0	
1.1240	-4.82187	-5.05435	0	
1.1247	-3.62428	-5.66087	0	
1.1253	-7.28008	-4.73664	0	
1.1260	-6.36613	-5.35761	0	
1.1267	-5.13703	-5.66087	0	
1.1273	-7.59523	-3.82686	0	
1.1280	-6.36613	-2.91708	0	
1.1287	-2.39518	-2.91708	0	
1.1293	-2.08002	-3.5236	0	
1.1300	-1.48123	-4.73664	0	
1.1307	0.97698	-5.35761	0	
1.1313	0.97698	-5.66087	0	
1.1320	3.40367	-6.57065	0	
1.1327	11.0304	-5.66087	0	
1.1333	16.5141	-4.73664	0	
1.1340	16.8293	-5.96413	0	
1.1347	16.5141	-7.49487	0	
1.1353	17.7432	-7.79813	0	
1.1360	17.1444	-7.49487	0	
1.1367	15.0014	-5.96413	0	
1.1373	16.5141	-3.82686	0	
1.1380	21.1154	-3.22034	0	
1.1387	21.1154	-1.99286	0	
1.1393	16.5141	-1.38633	0	
1.1400	14.4026	-2.29612	0	
1.1407	13.7723	-3.82686	0	
1.1413	11.3456	-5.66087	0	
1.1420	10.1165	-5.66087	0	
1.1427	10.7153	-2.91708	0	
1.1433	11.0304	-1.08307	0	
1.1440	11.0304	-1.99286	0	
1.1447	8.28858	-2.91708	0	
1.1453	1.89093	-3.82686	0	
1.1460	-1.79638	-3.5236	0	
1.1467	0.97698	-2.61382	0	
1.1473	3.08852	-4.13012	0	
1.1480	4.63278	-4.73664	0	
1.1487	2.80488	-1.6896	0	
1.1493	-3.90792	-1.08307	0	
1.1500	-7.87887	-2.91708	0	
1.1507	-6.96492	-0.779813	0	
1.1513	-10.0219	0.750931	0	
1.1520	-16.4196	-1.08307	0	
1.1527	-19.1929	-0.158851	0	
1.1533	-21.0208	3.49472	0	
1.1540	-23.1324	2.58494	0	
1.1547	-23.7627	-1.08307	0	
1.1553	-24.6766	-0.779813	0	
1.1560	-23.7627	1.66071	0	
1.1567	-19.4766	1.96397	0	
1.1573	-15.8208	2.8882	0	
1.1580	-14.5917	4.10124	0	
1.1587	-14.308	1.96397	0	
1.1593	-14.5917	-0.158851	0	
1.1600	-13.3941	2.28168	0	
1.1607	-10.9359	4.41894	0	
1.1613	-10.6207	2.8882	0	
1.1620	-10.9359	0.750931	0	
1.1627	-10.3371	-0.779813	0	
1.1633	-10.0219	-1.08307	0	
1.1640	-8.79282	-0.779813	0	
1.1647	-5.13703	-2.91708	0	
1.1653	-2.39518	-5.96413	0	
1.1660	-2.08002	-6.57065	0	
1.1667	-1.79638	-3.82686	0	
1.1673	-0.882434	-1.99286	0	
1.1680	-0.882434	-2.61382	0	
1.1687	0.0315155	-2.29612	0	
1.1693	1.57577	-2.29612	0	
1.1700	1.89093	-4.73664	0	
1.1707	2.48972	-5.35761	0	
1.1713	4.63278	-3.22034	0	
1.1720	7.05947	-2.91708	0	
1.1727	6.77583	-3.82686	0	
1.1733	7.97342	-2.91708	0	
1.1740	12.8583	-3.22034	0	
1.1747	19.8863	-3.82686	0	
1.1753	25.37	-2.91708	0	
1.1760	27.8282	-2.29612	0	
1.1767	27.513	-4.43338	0	
1.1773	26.9142	-4.73664	0	
1.1780	24.7712	-3.82686	0	
1.1787	20.8002	-3.82686	0	
1.1793	19.5711	-2.29612	0	
1.1800	20.2014	0.447671	0	
1.1807	15.0014	-0.158851	0	
1.1813	7.37463	-1.6896	0	
1.1820	3.40367	0.14441	0	
1.1827	1.57577	1.66071	0	
1.1833	-0.567279	0.14441	0	
1.1840	-1.79638	-0.779813	0	
1.1847	-4.82187	-1.38633	0	
1.1853	-7.28008	-2.91708	0	
1.1860	-7.59523	-2.91708	0	
1.1867	-10.9359	-0.158851	0	
1.1873	-16.4196	1.35745	0	
1.1880	-15.8208	0.750931	0	
1.1887	-14.308	0.750931	0	
1.1893	-18.279	1.35745	0	
1.1900	-19.4766	-0.476553	0	
1.1907	-13.0789	-2.91708	0	
1.1913	-9.70677	-1.99286	0	
1.1920	-11.251	-1.38633	0	
1.1927	-11.8498	-2.29612	0	
1.1933	-13.6777	-1.6896	0	
1.1940	-16.1359	0.447671	0	
1.1947	-13.3941	1.35745	0	
1.1953	-9.10798	1.35745	0	
1.1960	-7.87887	1.96397	0	
1.1967	-6.36613	3.79798	0	
1.1973	-6.36613	4.41894	0	
1.1980	-6.96492	4.10124	0	
1.1987	-2.71033	6.23851	0	
1.1993	1.89093	7.16273	0	
1.2000	0.0315155	2.28168	0	
1.2007	-1.48123	-0.476553	0	
1.2013	1.89093	1.66071	0	
1.2020	3.71883	0.750931	0	
1.2027	2.80488	-1.99286	0	
1.2033	3.40367	-2.61382	0	
1.2040	4.31762	-3.82686	0	
1.2047	4.00247	-4.73664	0	
1.2053	2.80488	-3.82686	0	
1.2060	0.661825	-4.13012	0	
1.2067	-0.882434	-3.82686	0	
1.2073	-1.79638	-2.29612	0	
1.2080	-0.567279	-3.5236	0	
1.2087	2.17457	-5.66087	0	
1.2093	2.80488	-5.35761	0	
1.2100	0.97698	-3.22034	0	
1.2107	0.97698	0.750931	0	
1.2113	2.48972	2.28168	0	
1.2120	3.71883	0.750931	0	
1.2127	4.91642	1.66071	0	
1.2133	5.54673	2.28168	0	
1.2140	8.88737	-0.476553	0	
1.2147	12.8583	-1.08307	0	
1.2153	12.8583	2.58494	0	
1.2160	11.6292	4.10124	0	
1.2167	13.4886	3.19146	0	
1.2173	14.0874	1.96397	0	
1.2180	12.5432	1.66071	0	
1.2187	12.2595	1.96397	0	
1.2193	10.7153	1.35745	0	
1.2200	6.46068	1.05419	0	
1.2207	3.08852	2.58494	0	
1.2213	1.89093	2.28168	0	
1.2220	-0.567279	0.14441	0	
1.2227	-2.08002	1.05419	0	
1.2233	-3.30913	1.66071	0	
1.2240	-6.05098	-0.779813	0	
1.2247	-10.0219	-2.61382	0	
1.2253	-11.251	-1.99286	0	
1.2260	-8.79282	-1.08307	0	
1.2267	-5.45218	-0.476553	0	
1.2273	-5.45218	-0.476553	0	
1.2280	-7.59523	-1.08307	0	
1.2287	-6.36613	0.14441	0	
1.2293	-4.53823	1.05419	0	
1.2300	-7.28008	1.35745	0	
1.2307	-8.19403	0.750931	0	
1.2313	-5.45218	-1.08307	0	
1.2320	-5.76734	-1.6896	0	
1.2327	-6.68129	-0.158851	0	
1.2333	-1.79638	1.35745	0	
1.2340	1.26062	2.8882	0	
1.2347	-2.39518	5.93525	0	
1.2353	-3.62428	7.16273	0	
1.2360	-3.30913	6.54177	0	
1.2367	-6.05098	5.93525	0	
1.2373	-5.13703	6.23851	0	
1.2380	-1.79638	8.07251	0	
1.2387	-3.30913	8.67903	0	
1.2393	-5.13703	4.7222	0	
1.2400	-1.79638	2.58494	0	
1.2407	-0.882434	6.54177	0	
1.2413	-4.22308	7.76925	0	
1.2420	-2.71033	3.19146	0	
1.2427	3.08852	0.750931	0	
1.2433	5.23157	0.750931	0	
1.2440	4.63278	-0.158851	0	
1.2447	6.14552	0.14441	0	
1.2453	8.60373	-0.158851	0	
1.2460	11.3456	-2.91708	0	
1.2467	15.9153	-3.82686	0	
1.2473	18.342	-3.22034	0	
1.2480	18.6572	-3.82686	0	
1.2487	19.8863	-3.82686	0	
1.2493	19.2875	-2.61382	0	
1.2500	15.6002	-3.82686	0	
1.2507	13.1735	-5.66087	0	
1.2513	10.1165	-3.82686	0	
1.2520	4.91642	-2.61382	0	
1.2527	2.80488	-1.08307	0	
1.2533	0.661825	0.14441	0	
1.2540	-4.53823	-0.158851	0	
1.2547	-5.76734	-0.158851	0	
1.2553	-4.53823	1.35745	0	
1.2560	-6.96492	0.14441	0	
1.2567	-7.87887	1.66071	0	
1.2573	-3.90792	8.07251	0	
1.2580	-0.882434	8.99674	0	
1.2587	-0.567279	4.41894	0	
1.2593	-0.567279	5.32872	0	
1.2600	-0.252124	8.07251	0	
1.2607	0.34667	4.41894	0	
1.2613	0.97698	1.96397	0	
1.2620	-1.16607	3.49472	0	
1.2627	-4.53823	1.96397	0	
1.2633	-6.36613	-0.476553	0	
1.2640	-7.59523	-0.476553	0	
1.2647	-10.0219	-1.99286	0	
1.2653	-14.5917	-2.61382	0	
1.2660	-16.4196	0.750931	0	
1.2667	-14.308	1.66071	0	
1.2673	-14.5917	-0.476553	0	
1.2680	-17.6487	0.750931	0	
1.2687	-17.9638	2.28168	0	
1.2693	-15.222	-0.158851	0	
1.2700	-11.8498	-1.08307	0	
1.2707	-7.59523	1.05419	0	
1.2713	-2.99397	1.05419	0	
1.2720	1.57577	-1.08307	0	
1.2727	6.46068	-1.99286	0	
1.2733	9.51768	-2.91708	0	
1.2740	11.6292	-2.29612	0	
1.2747	15.3165	-0.158851	0	
1.2753	17.4281	1.05419	0	
1.2760	16.5141	-0.476553	0	
1.2767	15.6002	-1.08307	0	
1.2773	13.1735	1.66071	0	
1.2780	8.60373	3.49472	0	
1.2787	5.54673	1.66071	0	
1.2793	2.80488	-1.6896	0	
1.2800	-0.567279	-1.08307	0	
1.2807	-2.71033	1.66071	0	
1.2813	-5.45218	0.447671	0	
1.2820	-8.50918	-1.99286	0	
1.2827	-8.79282	1.96397	0	
1.2833	-11.251	7.76925	0	
1.2840	-17.6487	6.54177	0	
1.2847	-18.8778	2.28168	0	
1.2853	-14.5917	-0.158851	0	
1.2860	-13.6777	-1.08307	0	
1.2867	-15.8208	-1.38633	0	
1.2873	-16.1359	-1.08307	0	
1.2880	-13.9929	-0.476553	0	
1.2887	-9.70677	1.66071	0	
1.2893	-5.76734	2.58494	0	
1.2900	-4.22308	2.28168	0	
1.2907	-3.30913	3.79798	0	
1.2913	-2.71033	3.79798	0	
1.2920	-1.16607	1.35745	0	
1.2927	1.26062	0.750931	0	
1.2933	1.89093	0.750931	0	
1.2940	0.97698	-1.99286	0	
1.2947	3.71883	-1.99286	0	
1.2953	7.68978	1.05419	0	
1.2960	7.68978	3.79798	0	
1.2967	7.97342	4.7222	0	
1.2973	8.88737	3.49472	0	
1.2980	7.37463	1.66071	0	
1.2987	7.05947	2.28168	0	
1.2993	9.20253	1.96397	0	
1.3000	9.20253	-0.158851	0	
1.3007	9.20253	-1.38633	0	
1.3013	11.9444	-2.29612	0	
1.3020	12.8583	-1.38633	0	
1.3027	9.20253	0.447671	0	
1.3033	7.37463	-1.6896	0	
1.3040	9.20253	-3.82686	0	
1.3047	13.1735	-3.22034	0	
1.3053	17.4281	-3.82686	0	
1.3060	18.342	-6.57065	0	
1.3067	17.1444	-5.96413	0	
1.3073	16.5141	-4.43338	0	
1.3080	17.4281	-4.73664	0	
1.3087	15.9153	-5.66087	0	
1.3093	13.1735	-4.73664	0	
1.3100	11.6292	-1.38633	0	
1.3107	7.97342	0.750931	0	
1.3113	2.80488	-2.61382	0	
1.3120	0.97698	-5.05435	0	
1.3127	0.97698	-3.5236	0	
1.3133	-0.882434	-2.91708	0	
1.3140	-3.62428	-2.91708	0	
1.3147	-6.68129	-1.38633	0	
1.3153	-6.96492	-2.91708	0	
1.3160	-2.99397	-5.66087	0	
1.3167	-0.882434	-4.13012	0	
1.3173	-1.79638	-2.29612	0	
1.3180	0.97698	-2.29612	0	
1.3187	3.08852	-0.476553	0	
1.3193	0.661825	0.750931	0	
1.3200	2.80488	-2.91708	0	
1.3207	12.2595	-4.73664	0	
1.3213	20.2014	-4.73664	0	
1.3220	24.7712	-5.96413	0	
1.3227	30.8537	-6.87391	0	
1.3233	34.8246	-6.57065	0	
1.3240	33.627	-6.87391	0	
1.3247	31.7991	-7.19161	0	
1.3253	31.484	-5.66087	0	
1.3260	29.3409	-4.73664	0	
1.3267	23.2269	-5.35761	0	
1.3273	17.4281	-3.82686	0	
1.3280	13.7723	-0.476553	0	
1.3287	11.0304	0.447671	0	
1.3293	8.28858	-1.08307	0	
1.3300	6.14552	0.750931	0	
1.3307	3.71883	3.49472	0	
1.3313	2.17457	3.49472	0	
1.3320	1.57577	1.05419	0	
1.3327	-2.39518	-1.08307	0	
1.3333	-10.6207	-0.476553	0	
1.3340	-15.8208	4.7222	0	
1.3347	-15.8208	7.16273	0	
1.3353	-16.4196	4.10124	0	
1.3360	-19.4766	3.19146	0	
1.3367	-24.6766	5.63199	0	
1.3373	-31.9882	5.63199	0	
1.3380	-38.4174	5.32872	0	
1.3387	-42.0732	5.32872	0	
1.3393	-44.2162	6.23851	0	
1.3400	-47.5569	9.60326	0	
1.3407	-52.1266	10.513	0	
1.3413	-57.3267	8.67903	0	
1.3420	-59.4697	11.7405	0	
1.3427	-56.7279	14.1811	0	
1.3433	-53.0406	8.99674	0	
1.3440	-51.2127	4.41894	0	
1.3447	-49.1011	4.41894	0	
1.3453	-45.4138	2.8882	0	
1.3460	-37.5034	2.58494	0	
1.3467	-27.4185	5.02546	0	
1.3473	-21.0208	3.49472	0	
1.3480	-16.7347	0.447671	0	
1.3487	-9.70677	0.750931	0	
1.3493	-4.22308	2.28168	0	
1.3500	-1.48123	2.58494	0	
1.3507	0.97698	3.49472	0	
1.3513	2.80488	4.10124	0	
1.3520	5.54673	2.58494	0	
1.3527	10.1165	1.05419	0	
1.3533	11.0304	2.58494	0	
1.3540	9.80132	3.49472	0	
1.3547	11.3456	2.28168	0	
1.3553	11.0304	-0.158851	0	
1.3560	9.51768	-0.158851	0	
1.3567	12.8583	1.66071	0	
1.3573	17.4281	1.05419	0	
1.3580	19.2875	-0.476553	0	
1.3587	19.2875	-1.08307	0	
1.3593	18.6572	-2.61382	0	
1.3600	20.4851	-3.82686	0	
1.3607	23.8572	-4.13012	0	
1.3613	23.8572	-4.73664	0	
1.3620	22.9433	-4.13012	0	
1.3627	23.8572	-1.99286	0	
1.3633	22.6281	-1.08307	0	
1.3640	20.8002	-2.91708	0	
1.3647	20.4851	-4.73664	0	
1.3653	17.4281	-5.96413	0	
1.3660	13.1735	-7.49487	0	
1.3667	11.0304	-8.70792	0	
1.3673	9.80132	-8.40466	0	
1.3680	10.1165	-7.19161	0	
1.3687	10.4316	-7.19161	0	
1.3693	8.28858	-6.57065	0	
1.3700	8.60373	-5.05435	0	
1.3707	13.7723	-6.26739	0	
1.3713	17.4281	-7.49487	0	
1.3720	21.1154	-7.19161	0	
1.3727	29.6561	-8.10139	0	
1.3733	36.9677	-9.01118	0	
1.3740	37.598	-7.19161	0	
1.3747	35.7386	-6.26739	0	
1.3753	33.627	-6.26739	0	
1.3760	30.2549	-4.43338	0	
1.3767	25.6851	-4.13012	0	
1.3773	20.4851	-4.73664	0	
1.3780	17.4281	-3.82686	0	
1.3787	13.4886	-3.82686	0	
1.3793	5.23157	-3.5236	0	
1.3800	-0.882434	0.447671	0	
1.3807	-4.82187	1.96397	0	
1.3813	-13.6777	1.96397	0	
1.3820	-24.3615	3.49472	0	
1.3827	-30.4755	3.49472	0	
1.3833	-34.1313	3.49472	0	
1.3840	-34.7301	7.16273	0	
1.3847	-31.0743	6.23851	0	
1.3853	-29.2464	1.05419	0	
1.3860	-30.7906	0.750931	0	
1.3867	-29.8452	1.66071	0	
1.3873	-27.1033	0.14441	0	
1.3880	-22.5336	-0.476553	0	
1.3887	-11.8498	-0.158851	0	
1.3893	-2.71033	-0.158851	0	
1.3900	-1.48123	0.14441	0	
1.3907	-0.567279	-0.158851	0	
1.3913	4.63278	-0.158851	0	
1.3920	7.37463	1.66071	0	
1.3927	8.28858	0.14441	0	
1.3933	8.88737	-2.29612	0	
1.3940	8.28858	-1.08307	0	
1.3947	9.80132	-0.158851	0	
1.3953	12.8583	-1.08307	0	
1.3960	11.6292	1.35745	0	
1.3967	9.51768	3.19146	0	
1.3973	14.0874	-0.158851	0	
1.3980	19.8863	-2.61382	0	
1.3987	20.2014	-0.476553	0	
1.3993	17.7432	0.750931	0	
1.4000	17.1444	0.750931	0	
1.4007	17.4281	1.05419	0	
1.4013	15.0014	1.96397	0	
1.4020	11.0304	2.58494	0	
1.4027	11.0304	2.28168	0	
1.4033	9.51768	1.66071	0	
1.4040	0.661825	1.35745	0	
1.4047	-6.36613	0.447671	0	
1.4053	-6.96492	-0.476553	0	
1.4060	-9.42313	-0.779813	0	
1.4067	-12.7638	-0.779813	0	
1.4073	-14.5917	-0.158851	0	
1.4080	-19.1929	0.750931	0	
1.4087	-23.7627	-1.38633	0	
1.4093	-22.8487	-3.82686	0	
1.4100	-24.0778	-1.99286	0	
1.4107	-27.7336	0.447671	0	
1.4113	-26.1894	-0.158851	0	
1.4120	-22.2184	-1.38633	0	
1.4127	-20.3905	-2.29612	0	
1.4133	-17.3335	-1.6896	0	
1.4140	-12.7638	0.750931	0	
1.4147	-9.10798	2.58494	0	
1.4153	-6.68129	3.49472	0	
1.4160	-5.13703	4.10124	0	
1.4167	-5.45218	5.32872	0	
1.4173	-5.13703	5.32872	0	
1.4180	-4.82187	4.7222	0	
1.4187	-5.76734	6.23851	0	
1.4193	-6.36613	8.37577	0	
1.4200	-3.30913	7.76925	0	
1.4207	1.57577	5.63199	0	
1.4213	2.48972	6.23851	0	
1.4220	1.57577	7.16273	0	
1.4227	4.00247	6.23851	0	
1.4233	7.37463	4.41894	0	
1.4240	8.28858	4.10124	0	
1.4247	9.80132	5.63199	0	
1.4253	11.6292	4.41894	0	
1.4260	10.1165	0.447671	0	
1.4267	6.77583	-0.476553	0	
1.4273	4.91642	0.750931	0	
1.4280	4.31762	-0.779813	0	
1.4287	2.80488	-1.99286	0	
1.4293	0.661825	-0.779813	0	
1.4300	-0.882434	1.35745	0	
1.4307	-1.79638	3.49472	0	
1.4313	-3.30913	5.02546	0	
1.4320	-6.36613	2.8882	0	
1.4327	-8.79282	-0.779813	0	
1.4333	-8.50918	-1.38633	0	
1.4340	-6.68129	0.750931	0	
1.4347	-6.36613	2.58494	0	
1.4353	-4.22308	2.28168	0	
1.4360	2.80488	2.28168	0	
1.4367	11.0304	1.66071	0	
1.4373	21.399	-0.476553	0	
1.4380	34.8246	-0.158851	0	
1.4387	44.9096	1.66071	0	
1.4393	47.6514	-0.476553	0	
1.4400	49.4793	-5.66087	0	
1.4407	48.5654	-6.26739	0	
1.4413	41.5374	-4.73664	0	
1.4420	36.9677	-6.26739	0	
1.4427	35.7386	-7.19161	0	
1.4433	27.513	-6.57065	0	
1.4440	16.5141	-8.10139	0	
1.4447	11.6292	-8.40466	0	
1.4453	7.37463	-6.57065	0	
1.4460	1.89093	-8.10139	0	
1.4467	-1.79638	-11.1484	0	
1.4473	-8.50918	-9.9354	0	
1.4480	-18.279	-7.79813	0	
1.4487	-24.6766	-6.57065	0	
1.4493	-31.0743	-3.22034	0	
1.4500	-39.3313	1.35745	0	
1.4507	-41.758	3.19146	0	
1.4513	-41.1592	2.58494	0	
1.4520	-46.0441	1.66071	0	
1.4527	-48.1557	2.58494	0	
1.4533	-41.1592	3.19146	0	
1.4540	-36.8731	2.28168	0	
1.4547	-39.0162	3.79798	0	
1.4553	-40.2453	6.85947	0	
1.4560	-39.3313	7.16273	0	
1.4567	-38.701	7.16273	0	
1.4573	-35.644	8.99674	0	
1.4580	-32.9022	7.76925	0	
1.4587	-33.8161	5.32872	0	
1.4593	-33.5325	5.02546	0	
1.4600	-28.6476	5.32872	0	
1.4607	-22.5336	5.32872	0	
1.4613	-17.3335	5.32872	0	
1.4620	-13.6777	3.79798	0	
1.4627	-12.165	1.66071	0	
1.4633	-11.8498	1.66071	0	
1.4640	-10.9359	1.96397	0	
1.4647	-7.28008	1.66071	0	
1.4653	-2.71033	2.8882	0	
1.4660	0.0315155	5.02546	0	
1.4667	2.80488	4.41894	0	
1.4673	8.28858	3.19146	0	
1.4680	11.9444	2.28168	0	
1.4687	11.3456	0.750931	0	
1.4693	11.0304	-2.61382	0	
1.4700	12.8583	-4.73664	0	
1.4707	13.7723	-3.82686	0	
1.4713	15.6002	-1.6896	0	
1.4720	19.2875	-1.08307	0	
1.4727	20.4851	-3.22034	0	
1.4733	22.0293	-6.26739	0	
1.4740	24.7712	-6.57065	0	
1.4747	22.313	-3.82686	0	
1.4753	18.6572	-3.82686	0	
1.4760	19.2875	-5.66087	0	
1.4767	19.2875	-1.99286	0	
1.4773	15.3165	4.41894	0	
1.4780	13.7723	3.49472	0	
1.4787	15.9153	-0.158851	0	
1.4793	15.0014	-1.6896	0	
1.4800	10.1165	-2.91708	0	
1.4807	7.68978	-0.779813	0	
1.4813	9.20253	2.28168	0	
1.4820	10.1165	-0.779813	0	
1.4827	11.0304	-3.5236	0	
1.4833	12.8583	-1.6896	0	
1.4840	12.8583	-4.13012	0	
1.4847	10.7153	-7.49487	0	
1.4853	9.20253	-3.5236	0	
1.4860	8.88737	-1.99286	0	
1.4867	10.1165	-7.49487	0	
1.4873	13.7723	-7.49487	0	
1.4880	17.4281	-2.91708	0	
1.4887	21.1154	-2.29612	0	
1.4893	24.456	-2.91708	0	
1.4900	20.2014	-3.5236	0	
1.4907	12.8583	-5.35761	0	
1.4913	13.1735	-4.73664	0	
1.4920	14.4026	-2.29612	0	
1.4927	7.68978	-1.99286	0	
1.4933	1.89093	-2.91708	0	
1.4940	0.0315155	-1.99286	0	
1.4947	-2.71033	-1.99286	0	
1.4953	-5.45218	-1.38633	0	
1.4960	-7.28008	0.750931	0	
1.4967	-9.10798	3.19146	0	
1.4973	-11.5347	3.79798	0	
1.4980	-15.222	4.10124	0	
1.4987	-21.0208	5.63199	0	
1.4993	-23.1324	6.23851	0	
1.5000	-19.4766	4.10124	0	
1.5007	-15.5056	3.19146	0	
1.5013	-14.9068	5.93525	0	
1.5020	-13.9929	7.16273	0	
1.5027	-8.79282	4.7222	0	
1.5033	-2.99397	3.79798	0	
1.5040	0.0315155	5.32872	0	
1.5047	3.71883	5.63199	0	
1.5053	7.37463	3.19146	0	
1.5060	5.54673	1.66071	0	
1.5067	3.08852	1.05419	0	
1.5073	4.63278	-1.38633	0	
1.5080	4.00247	-3.82686	0	
1.5087	-0.882434	-3.82686	0	
1.5093	-1.16607	-3.22034	0	
1.5100	2.80488	-3.82686	0	
1.5107	3.08852	-1.6896	0	
1.5113	-0.567279	-0.476553	0	
1.5120	-1.48123	-2.91708	0	
1.5127	-0.882434	-4.73664	0	
1.5133	-0.882434	-3.82686	0	
1.5140	3.08852	-3.82686	0	
1.5147	11.3456	-3.5236	0	
1.5153	16.8293	-2.29612	0	
1.5160	17.4281	-1.08307	0	
1.5167	15.6002	-1.38633	0	
1.5173	14.6862	-3.5236	0	
1.5180	15.3165	-3.5236	0	
1.5187	12.5432	-2.61382	0	
1.5193	8.60373	-4.13012	0	
1.5200	7.37463	-4.13012	0	
1.5207	4.31762	-1.08307	0	
1.5213	-2.39518	0.447671	0	
1.5220	-6.96492	-0.158851	0	
1.5227	-12.165	0.750931	0	
1.5233	-22.2184	2.28168	0	
1.5240	-29.8452	2.8882	0	
1.5247	-32.3034	2.58494	0	
1.5253	-34.4464	-0.476553	0	
1.5260	-35.644	-2.61382	0	
1.5267	-34.7301	-1.99286	0	
1.5273	-30.1603	-2.61382	0	
1.5280	-24.6766	-3.5236	0	
1.5287	-21.0208	-1.38633	0	
1.5293	-16.4196	-0.158851	0	
1.5300	-9.10798	-1.6896	0	
1.5307	-4.53823	-2.29612	0	
1.5313	-3.30913	-0.779813	0	
1.5320	-0.567279	0.750931	0	
1.5327	1.26062	1.05419	0	
1.5333	1.57577	-0.158851	0	
1.5340	3.40367	-0.158851	0	
1.5347	5.83037	2.58494	0	
1.5353	5.54673	5.32872	0	
1.5360	4.00247	4.41894	0	
1.5367	1.89093	4.10124	0	
1.5373	-0.252124	4.10124	0	
1.5380	-0.252124	1.96397	0	
1.5387	1.89093	-0.158851	0	
1.5393	3.08852	1.05419	0	
1.5400	3.40367	1.66071	0	
1.5407	6.46068	-1.08307	0	
1.5413	13.1735	-4.43338	0	
1.5420	17.4281	-4.73664	0	
1.5427	18.342	-3.82686	0	
1.5433	19.2875	-4.73664	0	
1.5440	19.8863	-4.73664	0	
1.5447	18.9723	-2.91708	0	
1.5453	17.4281	-3.5236	0	
1.5460	14.6862	-4.13012	0	
1.5467	11.3456	-1.08307	0	
1.5473	9.51768	0.14441	0	
1.5480	7.97342	-3.82686	0	
1.5487	6.46068	-5.05435	0	
1.5493	3.40367	-4.43338	0	
1.5500	-2.39518	-5.66087	0	
1.5507	-6.36613	-5.35761	0	
1.5513	-5.45218	-3.82686	0	
1.5520	-6.68129	-4.43338	0	
1.5527	-11.8498	-3.82686	0	
1.5533	-15.222	0.750931	0	
1.5540	-14.308	3.19146	0	
1.5547	-10.9359	1.66071	0	
1.5553	-6.96492	1.05419	0	
1.5560	-5.45218	2.8882	0	
1.5567	-5.13703	3.79798	0	
1.5573	-4.22308	4.10124	0	
1.5580	-5.45218	3.49472	0	
1.5587	-6.05098	1.35745	0	
1.5593	-3.62428	1.05419	0	
1.5600	-1.16607	2.58494	0	
1.5607	1.89093	2.28168	0	
1.5613	5.23157	1.66071	0	
1.5620	7.05947	0.750931	0	
1.5627	9.20253	-2.61382	0	
1.5633	12.8583	-5.66087	0	
1.5640	11.9444	-6.57065	0	
1.5647	9.20253	-8.10139	0	
1.5653	7.37463	-8.70792	0	
1.5660	3.71883	-6.26739	0	
1.5667	0.34667	-4.73664	0	
1.5673	1.89093	-4.73664	0	
1.5680	1.57577	-3.82686	0	
1.5687	-0.252124	-5.05435	0	
1.5693	1.89093	-6.57065	0	
1.5700	3.71883	-5.96413	0	
1.5707	2.80488	-5.05435	0	
1.5713	2.80488	-3.82686	0	
1.5720	3.71883	-1.99286	0	
1.5727	3.08852	-2.91708	0	
1.5733	1.89093	-1.99286	0	
1.5740	-1.16607	1.05419	0	
1.5747	-4.53823	2.58494	0	
1.5753	-5.45218	3.49472	0	
1.5760	-6.96492	5.32872	0	
1.5767	-9.70677	5.32872	0	
1.5773	-10.9359	5.32872	0	
1.5780	-12.4801	6.85947	0	
1.5787	-16.7347	5.32872	0	
1.5793	-19.7917	4.10124	0	
1.5800	-21.9348	5.32872	0	
1.5807	-27.1033	4.41894	0	
1.5813	-31.0743	1.35745	0	
1.5820	-29.2464	1.66071	0	
1.5827	-24.0778	4.10124	0	
1.5833	-19.7917	3.19146	0	
1.5840	-13.6777	0.14441	0	
1.5847	-4.22308	-3.82686	0	
1.5853	3.71883	-8.70792	0	
1.5860	8.60373	-12.0727	0	
1.5867	12.8583	-9.63214	0	
1.5873	16.5141	-7.19161	0	
1.5880	17.1444	-7.49487	0	
1.5887	16.5141	-7.19161	0	
1.5893	15.3165	-6.57065	0	
1.5900	11.6292	-9.01118	0	
1.5907	9.20253	-8.70792	0	
1.5913	11.3456	-3.82686	0	
1.5920	11.3456	-2.29612	0	
1.5927	6.14552	-4.13012	0	
1.5933	1.89093	-3.22034	0	
1.5940	1.26062	0.14441	0	
1.5947	-0.567279	2.58494	0	
1.5953	-2.71033	4.10124	0	
1.5960	0.97698	3.19146	0	
1.5967	6.14552	0.14441	0	
1.5973	6.77583	-1.99286	0	
1.5980	7.05947	-2.61382	0	
1.5987	10.7153	-3.5236	0	
1.5993	11.9444	-3.82686	0	
1.6000	13.4886	-5.05435	0	
1.6007	18.6572	-4.73664	0	
1.6013	20.8002	-1.08307	0	
1.6020	20.2014	1.66071	0	
1.6027	22.6281	0.447671	0	
1.6033	22.6281	-0.779813	0	
1.6040	18.342	-1.08307	0	
1.6047	16.8293	-1.99286	0	
1.6053	12.5432	-0.158851	0	
1.6060	1.89093	3.19146	0	
1.6067	-6.36613	3.19146	0	
1.6073	-11.8498	4.41894	0	
1.6080	-21.0208	7.16273	0	
1.6087	-23.4475	5.93525	0	
1.6093	-16.4196	4.10124	0	
1.6100	-9.10798	6.54177	0	
1.6107	-4.53823	7.16273	0	
1.6113	-2.08002	2.58494	0	
1.6120	-0.882434	-1.99286	0	
1.6127	4.63278	-2.91708	0	
1.6133	11.9444	-1.99286	0	
1.6140	12.2595	-1.38633	0	
1.6147	10.1165	-0.779813	0	
1.6153	11.6292	0.750931	0	
1.6160	11.9444	1.35745	0	
1.6167	8.88737	1.66071	0	
1.6173	4.63278	2.28168	0	
1.6180	-2.39518	0.750931	0	
1.6187	-10.9359	-0.158851	0	
1.6193	-15.5056	3.49472	0	
1.6200	-17.6487	6.23851	0	
1.6207	-21.9348	4.10124	0	
1.6213	-28.3324	2.28168	0	
1.6220	-32.9022	3.79798	0	
1.6227	-33.8161	4.41894	0	
1.6233	-33.8161	3.49472	0	
1.6240	-33.8161	1.66071	0	
1.6247	-33.2173	0.447671	0	
1.6253	-29.5615	1.35745	0	
1.6260	-21.9348	2.8882	0	
1.6267	-14.308	0.14441	0	
1.6273	-10.3371	-1.99286	0	
1.6280	-5.45218	0.14441	0	
1.6287	0.0315155	0.750931	0	
1.6293	1.57577	-1.38633	0	
1.6300	2.80488	1.35745	0	
1.6307	10.1165	4.41894	0	
1.6313	18.342	1.66071	0	
1.6320	21.1154	-1.08307	0	
1.6327	18.6572	-1.08307	0	
1.6333	16.2305	-3.22034	0	
1.6340	16.2305	-3.82686	0	
1.6347	15.0014	-0.779813	0	
1.6353	12.8583	-0.779813	0	
1.6360	13.1735	-1.38633	0	
1.6367	11.9444	0.750931	0	
1.6373	4.91642	0.447671	0	
1.6380	-0.882434	-1.38633	0	
1.6387	-1.48123	-1.08307	0	
1.6393	-0.882434	-1.6896	0	
1.6400	-2.08002	-1.99286	0	
1.6407	-3.62428	-0.476553	0	
1.6413	-1.79638	-0.779813	0	
1.6420	4.63278	-1.38633	0	
1.6427	11.3456	1.66071	0	
1.6433	15.3165	3.19146	0	
1.6440	17.7432	-1.08307	0	
1.6447	19.8863	-4.73664	0	
1.6453	20.4851	-5.35761	0	
1.6460	21.1154	-4.43338	0	
1.6467	21.7142	-3.82686	0	
1.6473	18.6572	-5.96413	0	
1.6480	14.6862	-6.26739	0	
1.6487	12.8583	-2.91708	0	
1.6493	9.80132	-2.29612	0	
1.6500	2.17457	-4.73664	0	
1.6507	-3.30913	-2.91708	0	
1.6513	-5.13703	-1.38633	0	
1.6520	-8.19403	-3.82686	0	
1.6527	-11.8498	-3.5236	0	
1.6533	-14.5917	1.35745	0	
1.6540	-20.1069	3.19146	0	
1.6547	-27.7336	4.10124	0	
1.6553	-28.6476	5.63199	0	
1.6560	-23.7627	6.85947	0	
1.6567	-20.1069	7.46599	0	
1.6573	-19.1929	7.76925	0	
1.6580	-15.5056	7.16273	0	
1.6587	-8.50918	7.16273	0	
1.6593	-3.30913	6.54177	0	
1.6600	-3.90792	5.02546	0	
1.6607	-5.76734	4.41894	0	
1.6613	-3.90792	2.28168	0	
1.6620	-0.252124	0.750931	0	
1.6627	3.40367	2.58494	0	
1.6633	6.46068	3.19146	0	
1.6640	8.28858	0.14441	0	
1.6647	11.0304	-0.476553	0	
1.6653	13.4886	0.14441	0	
1.6660	12.2595	-3.5236	0	
1.6667	13.1735	-6.57065	0	
1.6673	17.1444	-3.82686	0	
1.6680	15.3165	-1.08307	0	
1.6687	11.0304	-2.91708	0	
1.6693	11.9444	-3.82686	0	
1.6700	10.4316	-1.99286	0	
1.6707	2.80488	-1.38633	0	
1.6713	-2.08002	-2.91708	0	
1.6720	-1.79638	-3.22034	0	
1.6727	-2.08002	-2.29612	0	
1.6733	-2.71033	-1.99286	0	
1.6740	-3.30913	-1.38633	0	
1.6747	-2.71033	-1.99286	0	
1.6753	-0.252124	-1.99286	0	
1.6760	-0.567279	-0.779813	0	
1.6767	-3.62428	-0.779813	0	
1.6773	-0.882434	-2.29612	0	
1.6780	4.63278	-2.61382	0	
1.6787	4.91642	-1.99286	0	
1.6793	4.00247	-2.29612	0	
1.6800	6.14552	-1.99286	0	
1.6807	5.23157	-1.6896	0	
1.6813	3.08852	-0.158851	0	
1.6820	4.63278	1.35745	0	
1.6827	6.14552	0.750931	0	
1.6833	3.08852	-0.476553	0	
1.6840	0.661825	-0.779813	0	
1.6847	0.97698	-2.29612	0	
1.6853	1.89093	-2.91708	0	
1.6860	0.0315155	-0.779813	0	
1.6867	-1.79638	0.750931	0	
1.6873	-3.62428	1.05419	0	
1.6880	-8.19403	1.96397	0	
1.6887	-12.7638	-0.158851	0	
1.6893	-13.0789	-2.29612	0	
1.6900	-12.7638	-0.158851	0	
1.6907	-14.308	1.96397	0	
1.6913	-14.5917	1.66071	0	
1.6920	-14.9068	1.66071	0	
1.6927	-14.5917	0.750931	0	
1.6933	-12.4801	-0.476553	0	
1.6940	-11.251	0.750931	0	
1.6947	-10.9359	0.750931	0	
1.6953	-6.36613	-0.158851	0	
1.6960	-1.79638	2.28168	0	
1.6967	2.17457	4.10124	0	
1.6973	11.3456	1.66071	0	
1.6980	23.2269	-1.99286	0	
1.6987	27.8282	-2.61382	0	
1.6993	26.9142	-1.99286	0	
1.7000	27.8282	-2.29612	0	
1.7007	29.3409	-2.91708	0	
1.7013	26.2839	-2.29612	0	
1.7020	22.313	-1.99286	0	
1.7027	21.399	-3.82686	0	
1.7033	21.7142	-4.43338	0	
1.7040	27.1979	-6.57065	0	
1.7047	44.9096	-12.9824	0	
1.7053	63.8189	-17.5602	0	
1.7060	67.4747	-17.5602	0	
1.7067	62.3061	-17.5602	0	
1.7073	58.934	-16.6505	0	
1.7080	53.4503	-12.9824	0	
1.7087	43.9956	-11.1484	0	
1.7093	36.3689	-11.1484	0	
1.7100	30.2549	-9.9354	0	
1.7107	21.399	-7.49487	0	
1.7113	10.1165	-4.13012	0	
1.7120	-2.71033	-1.38633	0	
1.7127	-17.3335	-0.158851	0	
1.7133	-34.4464	2.28168	0	
1.7140	-51.5278	7.16273	0	
1.7147	-65.5522	12.6503	0	
1.7153	-77.1499	17.2281	0	
1.7160	-87.8337	20.8961	0	
1.7167	-94.5465	20.8961	0	
1.7173	-94.2629	19.0621	0	
1.7180	-88.1488	18.1523	0	
1.7187	-80.2069	16.3183	0	
1.7193	-71.0674	12.0438	0	
1.7200	-58.5558	9.60326	0	
1.7207	-45.729	8.99674	0	
1.7213	-33.8161	5.32872	0	
1.7220	-21.9348	3.49472	0	
1.7227	-12.7638	5.63199	0	
1.7233	-9.70677	3.79798	0	
1.7240	-6.05098	0.750931	0	
1.7247	5.54673	3.49472	0	
1.7253	20.8002	5.32872	0	
1.7260	28.1118	2.58494	0	
1.7267	28.7421	-0.779813	0	
1.7273	28.427	-2.29612	0	
1.7280	24.7712	-3.22034	0	
1.7287	16.5141	-3.5236	0	
1.7293	7.97342	-2.91708	0	
1.7300	4.00247	-1.99286	0	
1.7307	5.54673	-2.61382	0	
1.7313	6.77583	-1.99286	0	
1.7320	-1.79638	0.750931	0	
1.7327	-18.279	1.66071	0	
1.7333	-26.1894	-0.779813	0	
1.7340	-26.5045	0.750931	0	
1.7347	-31.0743	4.7222	0	
1.7353	-32.9022	4.7222	0	
1.7360	-23.4475	1.96397	0	
1.7367	-13.6777	-0.158851	0	
1.7373	-6.96492	-1.6896	0	
1.7380	2.48972	-2.29612	0	
1.7387	8.28858	-1.08307	0	
1.7393	8.60373	-0.779813	0	
1.7400	10.4316	-1.99286	0	
1.7407	11.6292	-0.779813	0	
1.7413	8.28858	1.96397	0	
1.7420	9.51768	2.58494	0	
1.7427	17.4281	2.58494	0	
1.7433	21.399	1.96397	0	
1.7440	19.8863	0.750931	0	
1.7447	18.342	-0.158851	0	
1.7453	21.1154	-0.158851	0	
1.7460	28.427	-1.08307	0	
1.7467	32.0828	-3.82686	0	
1.7473	21.1154	-4.43338	0	
1.7480	5.23157	-2.91708	0	
1.7487	-1.48123	-2.29612	0	
1.7493	-6.36613	-1.6896	0	
1.7500	-17.0499	1.96397	0	
1.7507	-21.9348	6.54177	0	
1.7513	-24.3615	7.76925	0	
1.7520	-42.9871	5.63199	0	
1.7527	-62.2116	3.49472	0	
1.7533	-47.5569	3.79798	0	
1.7540	-14.5917	4.41894	0	
1.7547	-0.567279	4.41894	0	
1.7553	-4.53823	5.32872	0	
1.7560	-6.36613	6.54177	0	
1.7567	-5.76734	4.41894	0	
1.7573	-6.05098	1.66071	0	
1.7580	-3.30913	3.79798	0	
1.7587	2.17457	6.54177	0	
1.7593	6.46068	5.63199	0	
1.7600	11.0304	2.8882	0	
1.7607	17.4281	1.66071	0	
1.7613	24.1409	1.66071	0	
1.7620	28.427	1.66071	0	
1.7627	32.7131	-0.158851	0	
1.7633	38.5119	-1.99286	0	
1.7640	41.5374	-5.05435	0	
1.7647	41.2538	-10.2387	0	
1.7653	40.3398	-13.8922	0	
1.7660	37.598	-13.8922	0	
1.7667	33.627	-12.6792	0	
1.7673	30.2549	-12.0727	0	
1.7680	22.0293	-12.9824	0	
1.7687	9.20253	-14.2099	0	
1.7693	0.97698	-11.1484	0	
1.7700	-5.45218	-5.66087	0	
1.7707	-15.222	-3.82686	0	
1.7713	-22.2184	-2.61382	0	
1.7720	-22.8487	1.66071	0	
1.7727	-23.1324	2.58494	0	
1.7733	-24.6766	1.05419	0	
1.7740	-23.7627	1.66071	0	
1.7747	-20.3905	3.19146	0	
1.7753	-17.3335	4.10124	0	
1.7760	-17.0499	6.23851	0	
1.7767	-16.1359	5.93525	0	
1.7773	-10.9359	2.58494	0	
1.7780	-7.59523	0.750931	0	
1.7787	-7.59523	-0.158851	0	
1.7793	-5.45218	-1.38633	0	
1.7800	-3.30913	-1.08307	0	
1.7807	-5.45218	-0.158851	0	
1.7813	-5.13703	-2.29612	0	
1.7820	-1.48123	-3.82686	0	
1.7827	-0.567279	-1.99286	0	
1.7833	1.26062	-1.6896	0	
1.7840	4.91642	-2.91708	0	
1.7847	4.00247	-2.61382	0	
1.7853	1.89093	-2.61382	0	
1.7860	5.23157	-3.82686	0	
1.7867	8.88737	-4.73664	0	
1.7873	7.37463	-5.66087	0	
1.7880	6.77583	-6.57065	0	
1.7887	9.20253	-5.66087	0	
1.7893	11.9444	-4.13012	0	
1.7900	12.5432	-5.05435	0	
1.7907	12.5432	-5.66087	0	
1.7913	11.9444	-5.35761	0	
1.7920	10.4316	-4.73664	0	
1.7927	9.20253	-3.82686	0	
1.7933	10.1165	-3.22034	0	
1.7940	10.1165	-3.82686	0	
1.7947	8.60373	-1.99286	0	
1.7953	7.68978	2.58494	0	
1.7960	6.77583	1.66071	0	
1.7967	5.83037	-1.99286	0	
1.7973	5.54673	-1.99286	0	
1.7980	5.54673	-1.38633	0	
1.7987	3.71883	-1.38633	0	
1.7993	2.80488	-0.779813	0	
1.8000	4.31762	-1.08307	0	
1.8007	7.68978	-2.61382	0	
1.8013	7.37463	-1.08307	0	
1.8020	3.71883	-0.158851	0	
1.8027	2.48972	-2.61382	0	
1.8033	4.63278	-3.5236	0	
1.8040	6.14552	-1.38633	0	
1.8047	7.97342	-0.158851	0	
1.8053	10.1165	-1.38633	0	
1.8060	10.1165	-3.5236	0	
1.8067	10.1165	-5.05435	0	
1.8073	11.0304	-4.73664	0	
1.8080	10.4316	-4.73664	0	
1.8087	8.88737	-5.66087	0	
1.8093	7.37463	-5.96413	0	
1.8100	6.14552	-4.73664	0	
1.8107	8.28858	-3.22034	0	
1.8113	15.3165	-1.6896	0	
1.8120	22.0293	-0.779813	0	
1.8127	24.7712	-2.91708	0	
1.8133	22.313	-5.66087	0	
1.8140	18.342	-4.73664	0	
1.8147	17.4281	-1.6896	0	
1.8153	17.4281	0.750931	0	
1.8160	13.1735	1.35745	0	
1.8167	8.88737	1.66071	0	
1.8173	7.05947	3.19146	0	
1.8180	3.40367	2.8882	0	
1.8187	-1.79638	2.28168	0	
1.8193	-7.28008	4.41894	0	
1.8200	-13.9929	7.16273	0	
1.8207	-21.6196	5.32872	0	
1.8213	-26.8197	4.7222	0	
1.8220	-29.2464	6.54177	0	
1.8227	-27.4185	5.32872	0	
1.8233	-21.0208	3.49472	0	
1.8240	-13.3941	5.32872	0	
1.8247	-9.70677	6.23851	0	
1.8253	-8.19403	3.79798	0	
1.8260	-5.13703	1.05419	0	
1.8267	-1.16607	0.14441	0	
1.8273	0.97698	1.05419	0	
1.8280	-0.252124	1.05419	0	
1.8287	-2.71033	-1.38633	0	
1.8293	-5.45218	-2.91708	0	
1.8300	-8.19403	-1.38633	0	
1.8307	-10.9359	0.750931	0	
1.8313	-13.6777	0.750931	0	
1.8320	-18.279	0.750931	0	
1.8327	-24.6766	1.66071	0	
1.8333	-28.3324	4.10124	0	
1.8340	-28.3324	3.79798	0	
1.8347	-28.9312	4.10124	0	
1.8353	-31.0743	7.16273	0	
1.8360	-33.8161	7.16273	0	
1.8367	-35.0452	4.41894	0	
1.8373	-32.6185	5.93525	0	
1.8380	-28.3324	7.76925	0	
1.8387	-24.6766	5.32872	0	
1.8393	-18.5626	4.10124	0	
1.8400	-12.4801	5.63199	0	
1.8407	-9.10798	4.10124	0	
1.8413	-6.36613	1.35745	0	
1.8420	-2.71033	0.750931	0	
1.8427	0.0315155	1.35745	0	
1.8433	2.48972	1.66071	0	
1.8440	5.54673	1.66071	0	
1.8447	9.20253	0.447671	0	
1.8453	11.3456	-1.38633	0	
1.8460	10.7153	-2.61382	0	
1.8467	10.1165	-3.82686	0	
1.8473	12.5432	-3.82686	0	
1.8480	13.1735	-3.82686	0	
1.8487	10.4316	-5.35761	0	
1.8493	8.60373	-6.57065	0	
1.8500	9.20253	-5.66087	0	
1.8507	9.80132	-5.66087	0	
1.8513	10.4316	-5.66087	0	
1.8520	10.1165	-5.66087	0	
1.8527	8.28858	-4.43338	0	
1.8533	6.14552	-2.91708	0	
1.8540	5.83037	-3.5236	0	
1.8547	6.14552	-4.13012	0	
1.8553	3.40367	-2.29612	0	
1.8560	0.0315155	-0.476553	0	
1.8567	2.48972	-1.99286	0	
1.8573	9.20253	-2.29612	0	
1.8580	12.8583	-2.29612	0	
1.8587	13.1735	-3.82686	0	
1.8593	12.8583	-2.91708	0	
1.8600	14.6862	-1.6896	0	
1.8607	19.2875	-3.82686	0	
1.8613	21.7142	-5.96413	0	
1.8620	19.5711	-3.82686	0	
1.8627	18.342	-1.99286	0	
1.8633	16.5141	-2.29612	0	
1.8640	12.8583	-3.82686	0	
1.8647	10.1165	-3.82686	0	
1.8653	7.05947	-3.5236	0	
1.8660	1.89093	-4.43338	0	
1.8667	-2.39518	-6.26739	0	
1.8673	-5.45218	-4.73664	0	
1.8680	-8.19403	-4.43338	0	
1.8687	-8.19403	-6.26739	0	
1.8693	-9.10798	-4.13012	0	
1.8700	-10.9359	0.14441	0	
1.8707	-9.70677	0.14441	0	
1.8713	-8.19403	-1.99286	0	
1.8720	-9.42313	-2.29612	0	
1.8727	-6.96492	-1.99286	0	
1.8733	0.34667	-1.6896	0	
1.8740	7.37463	-1.08307	0	
1.8747	12.5432	-2.91708	0	
1.8753	14.6862	-5.35761	0	
1.8760	13.1735	-4.13012	0	
1.8767	12.8583	-1.99286	0	
1.8773	17.1444	-2.91708	0	
1.8780	20.2014	-4.13012	0	
1.8787	16.5141	-6.26739	0	
1.8793	10.1165	-9.31444	0	
1.8800	6.46068	-8.10139	0	
1.8807	2.17457	-3.82686	0	
1.8813	-5.13703	-3.22034	0	
1.8820	-11.8498	-3.5236	0	
1.8827	-16.7347	-0.476553	0	
1.8833	-21.3045	1.66071	0	
1.8840	-25.5906	3.19146	0	
1.8847	-29.2464	3.79798	0	
1.8853	-32.6185	1.96397	0	
1.8860	-35.0452	1.05419	0	
1.8867	-36.5895	1.66071	0	
1.8873	-36.5895	0.750931	0	
1.8880	-33.8161	2.58494	0	
1.8887	-29.8452	5.02546	0	
1.8893	-29.2464	1.96397	0	
1.8900	-29.8452	0.750931	0	
1.8907	-25.5906	4.41894	0	
1.8913	-19.1929	6.23851	0	
1.8920	-17.0499	9.60326	0	
1.8927	-15.222	14.4843	0	
1.8933	-5.45218	11.7405	0	
1.8940	3.71883	9.3	0	
1.8947	5.23157	14.1811	0	
1.8953	8.28858	14.4843	0	
1.8960	14.0874	9.3	0	
1.8967	12.8583	7.16273	0	
1.8973	9.80132	4.41894	0	
1.8980	14.4026	3.49472	0	
1.8987	18.9723	6.23851	0	
1.8993	17.4281	6.23851	0	
1.9000	16.8293	3.19146	0	
1.9007	16.5141	2.8882	0	
1.9013	12.2595	0.750931	0	
1.9020	7.37463	-2.29612	0	
1.9027	4.63278	0.750931	0	
1.9033	4.63278	4.10124	0	
1.9040	4.31762	1.35745	0	
1.9047	2.80488	-0.476553	0	
1.9053	1.26062	-0.158851	0	
1.9060	1.89093	-1.99286	0	
1.9067	4.31762	-3.5236	0	
1.9073	7.05947	-2.29612	0	
1.9080	6.14552	-3.5236	0	
1.9087	3.08852	-7.19161	0	
1.9093	2.80488	-7.49487	0	
1.9100	2.80488	-3.5236	0	
1.9107	4.00247	-1.08307	0	
1.9113	8.28858	-2.91708	0	
1.9120	8.28858	-4.73664	0	
1.9127	3.08852	-3.82686	0	
1.9133	3.40367	-3.22034	0	
1.9140	5.23157	-3.82686	0	
1.9147	2.17457	-3.82686	0	
1.9153	1.89093	-0.779813	0	
1.9160	3.08852	-0.476553	0	
1.9167	-0.252124	-1.38633	0	
1.9173	-2.39518	0.447671	0	
1.9180	-0.567279	0.750931	0	
1.9187	-0.882434	-0.476553	0	
1.9193	-2.71033	2.58494	0	
1.9200	-4.82187	3.49472	0	
1.9207	-9.10798	-2.91708	0	
1.9213	-9.70677	-5.66087	0	
1.9220	-5.13703	-1.99286	0	
1.9227	-0.567279	-0.158851	0	
1.9233	3.08852	0.14441	0	
1.9240	5.23157	1.35745	0	
1.9247	5.23157	0.14441	0	
1.9253	6.77583	-1.99286	0	
1.9260	7.97342	-2.29612	0	
1.9267	5.54673	-3.82686	0	
1.9273	5.54673	-5.05435	0	
1.9280	9.20253	-3.82686	0	
1.9287	10.1165	-2.91708	0	
1.9293	6.46068	-1.99286	0	
1.9300	5.54673	-1.08307	0	
1.9307	11.3456	-1.38633	0	
1.9313	19.8863	-1.38633	0	
1.9320	23.8572	-1.38633	0	
1.9327	23.2269	-2.91708	0	
1.9333	24.7712	-4.13012	0	
1.9340	26.2839	-2.91708	0	
1.9347	23.8572	-1.08307	0	
1.9353	19.5711	-0.779813	0	
1.9360	16.8293	-1.08307	0	
1.9367	15.9153	-1.08307	0	
1.9373	13.7723	-0.158851	0	
1.9380	10.4316	0.14441	0	
1.9387	6.46068	-1.38633	0	
1.9393	0.661825	-1.08307	0	
1.9400	-8.50918	1.66071	0	
1.9407	-15.5056	2.58494	0	
1.9413	-19.4766	1.05419	0	
1.9420	-24.3615	1.66071	0	
1.9427	-26.1894	3.49472	0	
1.9433	-23.1324	3.19146	0	
1.9440	-21.3045	1.96397	0	
1.9447	-22.5336	2.28168	0	
1.9453	-21.3045	2.58494	0	
1.9460	-18.5626	0.750931	0	
1.9467	-15.5056	0.14441	0	
1.9473	-11.8498	1.35745	0	
1.9480	-9.10798	1.66071	0	
1.9487	-10.0219	0.14441	0	
1.9493	-9.10798	-0.158851	0	
1.9500	-4.82187	1.66071	0	
1.9507	-1.48123	2.58494	0	
1.9513	-0.882434	1.66071	0	
1.9520	-1.16607	-0.779813	0	
1.9527	-0.567279	-1.6896	0	
1.9533	0.0315155	-0.158851	0	
1.9540	-0.567279	-0.158851	0	
1.9547	0.0315155	-1.99286	0	
1.9553	2.17457	-0.779813	0	
1.9560	2.48972	1.96397	0	
1.9567	2.17457	2.58494	0	
1.9573	3.08852	2.58494	0	
1.9580	1.89093	3.49472	0	
1.9587	-2.71033	5.02546	0	
1.9593	-5.76734	6.23851	0	
1.9600	-6.36613	6.23851	0	
1.9607	-5.13703	5.02546	0	
1.9613	-4.53823	5.32872	0	
1.9620	-7.28008	5.93525	0	
1.9627	-11.251	4.41894	0	
1.9633	-13.3941	2.58494	0	
1.9640	-14.5917	1.96397	0	
1.9647	-14.5917	1.66071	0	
1.9653	-11.8498	1.05419	0	
1.9660	-10.9359	0.750931	0	
1.9667	-11.251	0.750931	0	
1.9673	-8.50918	0.447671	0	
1.9680	-6.36613	-2.61382	0	
1.9687	-5.76734	-3.82686	0	
1.9693	-2.99397	-0.158851	0	
1.9700	-0.252124	1.66071	0	
1.9707	0.661825	-1.08307	0	
1.9713	2.80488	-0.476553	0	
1.9720	6.77583	0.447671	0	
1.9727	8.28858	-3.5236	0	
1.9733	9.20253	-5.35761	0	
1.9740	10.4316	-2.91708	0	
1.9747	10.1165	-2.61382	0	
1.9753	10.4316	-3.82686	0	
1.9760	11.3456	-2.91708	0	
1.9767	10.1165	-1.08307	0	
1.9773	9.20253	-1.08307	0	
1.9780	14.6862	-1.99286	0	
1.9787	21.1154	-2.29612	0	
1.9793	22.9433	-3.22034	0	
1.9800	23.5421	-3.82686	0	
1.9807	25.0863	-2.61382	0	
1.9813	22.0293	-1.6896	0	
1.9820	16.5141	-2.91708	0	
1.9827	13.7723	-4.73664	0	
1.9833	11.6292	-5.35761	0	
1.9840	7.68978	-3.82686	0	
1.9847	4.31762	-1.08307	0	
1.9853	1.26062	-1.99286	0	
1.9860	-1.16607	-4.73664	0	
1.9867	-2.71033	-3.82686	0	
1.9873	-5.76734	-1.08307	0	
1.9880	-8.79282	-0.779813	0	
1.9887	-9.42313	-0.158851	0	
1.9893	-10.0219	0.750931	0	
1.9900	-9.10798	-0.158851	0	
1.9907	-5.45218	-0.158851	0	
1.9913	-0.567279	0.750931	0	
1.9920	5.54673	-1.6896	0	
1.9927	11.9444	-4.13012	0	
1.9933	15.0014	-4.73664	0	
1.9940	16.2305	-4.73664	0	
1.9947	18.6572	-4.43338	0	
1.9953	20.8002	-2.91708	0	
1.9960	21.399	-1.99286	0	
1.9967	20.4851	-2.29612	0	
1.9973	17.1444	-3.82686	0	
1.9980	13.1735	-4.43338	0	
1.9987	10.4316	-2.29612	0	
1.9993	5.54673	-1.08307	0	
2.0000	-1.16607	-0.158851	0	
2.0007	-8.19403	1.66071	0	
2.0013	-13.6777	3.49472	0	
2.0020	-17.0499	3.79798	0	
2.0027	-18.279	3.49472	0	
2.0033	-19.7917	2.58494	0	
2.0040	-21.0208	2.58494	0	
2.0047	-17.9638	3.49472	0	
2.0053	-11.8498	1.96397	0	
2.0060	-7.28008	-1.99286	0	
2.0067	-3.30913	-1.99286	0	
2.0073	1.89093	1.05419	0	
2.0080	2.17457	1.66071	0	
2.0087	-2.39518	1.35745	0	
2.0093	-2.71033	2.58494	0	
2.0100	0.0315155	2.8882	0	
2.0107	-0.882434	2.58494	0	
2.0113	-2.99397	3.49472	0	
2.0120	-6.36613	1.05419	0	
2.0127	-12.7638	-1.99286	0	
2.0133	-14.308	-1.08307	0	
2.0140	-10.0219	1.35745	0	
2.0147	-10.0219	0.750931	0	
2.0153	-15.8208	2.28168	0	
2.0160	-23.4475	3.49472	0	
2.0167	-29.5615	0.750931	0	
2.0173	-29.5615	0.447671	0	
2.0180	-24.9918	4.10124	0	
2.0187	-23.7627	4.41894	0	
2.0193	-21.9348	1.05419	0	
2.0200	-15.5056	-0.158851	0	
2.0207	-10.0219	-0.779813	0	
2.0213	-5.76734	-1.99286	0	
2.0220	0.0315155	-2.29612	0	
2.0227	2.80488	-1.38633	0	
2.0233	2.80488	-0.158851	0	
2.0240	5.23157	1.66071	0	
2.0247	7.97342	3.19146	0	
2.0253	5.54673	2.8882	0	
2.0260	2.80488	1.96397	0	
2.0267	0.661825	2.58494	0	
2.0273	-4.53823	3.79798	0	
2.0280	-8.50918	1.66071	0	
2.0287	-8.50918	-1.99286	0	
2.0293	-10.0219	-2.91708	0	
2.0300	-14.5917	-1.99286	0	
2.0307	-16.1359	-2.91708	0	
2.0313	-16.1359	-2.61382	0	
2.0320	-16.7347	0.447671	0	
2.0327	-15.5056	1.66071	0	
2.0333	-11.5347	-0.476553	0	
2.0340	-6.05098	-0.158851	0	
2.0347	-2.39518	1.96397	0	
2.0353	-0.882434	1.66071	0	
2.0360	2.80488	0.447671	0	
2.0367	9.80132	0.750931	0	
2.0373	15.6002	-0.779813	0	
2.0380	20.2014	-2.61382	0	
2.0387	26.5991	-1.38633	0	
2.0393	32.0828	-1.99286	0	
2.0400	31.1688	-3.82686	0	
2.0407	29.3409	-3.82686	0	
2.0413	29.9397	-3.82686	0	
2.0420	28.1118	-5.35761	0	
2.0427	22.0293	-4.43338	0	
2.0433	18.0584	-3.22034	0	
2.0440	17.4281	-3.82686	0	
2.0447	14.6862	-4.73664	0	
2.0453	7.97342	-4.73664	0	
2.0460	1.89093	-3.22034	0	
2.0467	-3.62428	0.750931	0	
2.0473	-8.19403	0.14441	0	
2.0480	-11.251	-3.22034	0	
2.0487	-13.6777	0.447671	0	
2.0493	-15.222	4.7222	0	
2.0500	-14.5917	2.58494	0	
2.0507	-13.0789	2.8882	0	
2.0513	-12.7638	5.32872	0	
2.0520	-12.7638	1.96397	0	
2.0527	-12.4801	-1.99286	0	
2.0533	-11.251	-0.779813	0	
2.0540	-8.19403	0.750931	0	
2.0547	-3.62428	-0.158851	0	
2.0553	0.661825	-0.158851	0	
2.0560	3.08852	1.66071	0	
2.0567	4.91642	3.19146	0	
2.0573	6.77583	2.28168	0	
2.0580	7.97342	1.35745	0	
2.0587	7.05947	-0.158851	0	
2.0593	5.83037	-3.22034	0	
2.0600	6.46068	-3.22034	0	
2.0607	6.46068	0.14441	0	
2.0613	6.46068	0.750931	0	
2.0620	6.77583	0.447671	0	
2.0627	4.63278	2.58494	0	
2.0633	2.80488	3.49472	0	
2.0640	4.63278	3.19146	0	
2.0647	4.63278	1.96397	0	
2.0653	0.97698	-0.779813	0	
2.0660	-0.882434	-1.6896	0	
2.0667	0.661825	0.447671	0	
2.0673	0.0315155	-1.08307	0	
2.0680	-1.16607	-3.82686	0	
2.0687	-0.252124	-2.61382	0	
2.0693	1.89093	0.14441	0	
2.0700	2.48972	-1.08307	0	
2.0707	2.80488	-2.61382	0	
2.0713	6.46068	-1.38633	0	
2.0720	9.20253	0.14441	0	
2.0727	8.28858	0.14441	0	
2.0733	7.37463	-0.779813	0	
2.0740	7.37463	-1.08307	0	
2.0747	6.14552	-0.158851	0	
2.0753	2.80488	1.05419	0	
2.0760	-2.39518	2.28168	0	
2.0767	-7.59523	1.96397	0	
2.0773	-8.50918	1.05419	0	
2.0780	-7.28008	1.66071	0	
2.0787	-8.19403	1.66071	0	
2.0793	-8.50918	0.750931	0	
2.0800	-8.19403	1.05419	0	
2.0807	-7.28008	0.14441	0	
2.0813	-4.22308	-3.22034	0	
2.0820	2.80488	-3.5236	0	
2.0827	9.80132	-1.99286	0	
2.0833	12.8583	-4.13012	0	
2.0840	12.8583	-5.35761	0	
2.0847	12.8583	-1.6896	0	
2.0853	11.6292	1.05419	0	
2.0860	9.20253	-0.779813	0	
2.0867	7.37463	-3.82686	0	
2.0873	5.54673	-4.43338	0	
2.0880	2.17457	-4.13012	0	
2.0887	0.97698	-5.05435	0	
2.0893	1.57577	-5.66087	0	
2.0900	0.661825	-4.13012	0	
2.0907	-1.16607	-4.43338	0	
2.0913	-2.71033	-4.73664	0	
2.0920	-4.22308	-2.91708	0	
2.0927	-4.53823	-1.6896	0	
2.0933	-3.90792	-2.91708	0	
2.0940	-3.62428	-1.38633	0	
2.0947	-3.62428	1.05419	0	
2.0953	-2.99397	1.35745	0	
2.0960	-0.882434	3.19146	0	
2.0967	0.97698	5.93525	0	
2.0973	1.89093	4.41894	0	
2.0980	1.89093	2.8882	0	
2.0987	0.661825	6.23851	0	
2.0993	-4.53823	9.90652	0	
2.1000	-8.79282	9.3	0	
2.1007	-10.0219	7.76925	0	
2.1013	-12.165	8.07251	0	
2.1020	-14.9068	9.60326	0	
2.1027	-13.9929	7.16273	0	
2.1033	-11.8498	3.49472	0	
2.1040	-10.9359	3.49472	0	
2.1047	-10.0219	2.58494	0	
2.1053	-7.87887	-1.08307	0	
2.1060	-1.79638	-3.82686	0	
2.1067	6.46068	-5.66087	0	
2.1073	11.9444	-8.40466	0	
2.1080	13.7723	-9.31444	0	
2.1087	15.9153	-7.79813	0	
2.1093	17.7432	-7.79813	0	
2.1100	17.4281	-8.10139	0	
2.1107	16.5141	-8.40466	0	
2.1113	13.1735	-10.2387	0	
2.1120	7.37463	-12.0727	0	
2.1127	2.80488	-11.1484	0	
2.1133	-0.567279	-8.40466	0	
2.1140	-5.45218	-5.35761	0	
2.1147	-10.9359	-3.5236	0	
2.1153	-13.6777	-0.779813	0	
2.1160	-16.1359	2.8882	0	
2.1167	-19.7917	5.63199	0	
2.1173	-24.0778	7.16273	0	
2.1180	-27.7336	9.3	0	
2.1187	-28.3324	11.1196	0	
2.1193	-24.3615	10.2098	0	
2.1200	-18.5626	8.07251	0	
2.1207	-14.5917	9.90652	0	
2.1213	-10.6207	12.6503	0	
2.1220	-5.45218	11.7405	0	
2.1227	-2.99397	8.67903	0	
2.1233	-2.71033	8.07251	0	
2.1240	1.89093	7.16273	0	
2.1247	7.68978	2.8882	0	
2.1253	9.80132	-1.08307	0	
2.1260	11.0304	-1.99286	0	
2.1267	14.4026	-1.99286	0	
2.1273	17.4281	-2.91708	0	
2.1280	18.6572	-3.82686	0	
2.1287	19.8863	-3.5236	0	
2.1293	18.6572	-2.29612	0	
2.1300	17.4281	-1.99286	0	
2.1307	17.7432	-3.22034	0	
2.1313	16.5141	-4.43338	0	
2.1320	11.6292	-3.82686	0	
2.1327	4.91642	-1.08307	0	
2.1333	0.0315155	0.447671	0	
2.1340	-2.99397	0.14441	0	
2.1347	-4.82187	1.05419	0	
2.1353	-6.68129	4.10124	0	
2.1360	-9.70677	5.02546	0	
2.1367	-13.6777	1.35745	0	
2.1373	-15.8208	-0.158851	0	
2.1380	-13.0789	3.79798	0	
2.1387	-9.10798	5.32872	0	
2.1393	-9.10798	1.66071	0	
2.1400	-9.42313	-0.158851	0	
2.1407	-6.68129	-0.158851	0	
2.1413	-3.62428	-1.38633	0	
2.1420	-0.252124	-1.08307	0	
2.1427	3.71883	-0.158851	0	
2.1433	7.37463	-0.476553	0	
2.1440	10.7153	-0.476553	0	
2.1447	12.8583	-1.08307	0	
2.1453	13.7723	-3.22034	0	
2.1460	16.2305	-4.73664	0	
2.1467	18.9723	-3.82686	0	
2.1473	16.5141	-1.08307	0	
2.1480	12.2595	-0.158851	0	
2.1487	10.1165	-1.08307	0	
2.1493	6.46068	-2.61382	0	
2.1500	4.00247	-1.99286	0	
2.1507	4.63278	-1.08307	0	
2.1513	0.97698	-0.779813	0	
2.1520	-6.05098	0.447671	0	
2.1527	-6.36613	1.66071	0	
2.1533	-6.36613	1.96397	0	
2.1540	-10.0219	2.28168	0	
2.1547	-11.8498	3.19146	0	
2.1553	-12.165	4.10124	0	
2.1560	-15.5056	3.49472	0	
2.1567	-15.5056	1.66071	0	
2.1573	-9.42313	0.447671	0	
2.1580	-5.13703	1.66071	0	
2.1587	-4.53823	2.58494	0	
2.1593	-3.62428	1.66071	0	
2.1600	-1.79638	1.96397	0	
2.1607	1.57577	1.66071	0	
2.1613	4.31762	0.750931	0	
2.1620	5.83037	0.14441	0	
2.1627	7.97342	-1.08307	0	
2.1633	11.0304	-1.6896	0	
2.1640	11.6292	-0.476553	0	
2.1647	11.0304	-1.08307	0	
2.1653	10.4316	-3.82686	0	
2.1660	7.68978	-4.43338	0	
2.1667	5.83037	-3.82686	0	
2.1673	9.80132	-5.05435	0	
2.1680	12.8583	-5.66087	0	
2.1687	11.0304	-3.82686	0	
2.1693	11.0304	-3.82686	0	
2.1700	13.4886	-6.87391	0	
2.1707	13.7723	-8.70792	0	
2.1713	11.0304	-5.96413	0	
2.1720	7.37463	-2.29612	0	
2.1727	1.89093	-1.99286	0	
2.1733	-3.90792	-2.91708	0	
2.1740	-5.45218	-2.29612	0	
2.1747	-5.45218	-1.99286	0	
2.1753	-6.96492	-1.08307	0	
2.1760	-8.19403	1.66071	0	
2.1767	-10.9359	0.14441	0	
2.1773	-14.5917	-2.29612	0	
2.1780	-15.5056	1.05419	0	
2.1787	-13.0789	2.58494	0	
2.1793	-14.5917	-0.476553	0	
2.1800	-17.6487	1.66071	0	
2.1807	-17.0499	4.41894	0	
2.1813	-13.3941	0.447671	0	
2.1820	-9.70677	-2.29612	0	
2.1827	-5.45218	-0.779813	0	
2.1833	-2.71033	-0.779813	0	
2.1840	-0.882434	-0.476553	0	
2.1847	4.31762	1.96397	0	
2.1853	9.51768	0.750931	0	
2.1860	7.97342	-1.99286	0	
2.1867	4.00247	-2.61382	0	
2.1873	2.80488	-1.08307	0	
2.1880	-0.882434	0.14441	0	
2.1887	-5.45218	-1.38633	0	
2.1893	-5.45218	-4.13012	0	
2.1900	-5.13703	-3.5236	0	
2.1907	-6.96492	-1.6896	0	
2.1913	-7.28008	-3.22034	0	
2.1920	-7.28008	-3.82686	0	
2.1927	-10.0219	-1.99286	0	
2.1933	-11.8498	-2.29612	0	
2.1940	-12.165	-3.5236	0	
2.1947	-11.5347	-1.08307	0	
2.1953	-4.22308	1.66071	0	
2.1960	3.71883	1.66071	0	
2.1967	2.80488	0.750931	0	
2.1973	0.661825	-0.158851	0	
2.1980	3.71883	0.447671	0	
2.1987	5.54673	0.447671	0	
2.1993	4.63278	-0.476553	0	
2.2000	4.31762	-0.779813	0	
2.2007	3.71883	-1.99286	0	
2.2013	5.23157	-3.82686	0	
2.2020	7.37463	-2.91708	0	
2.2027	6.77583	1.05419	0	
2.2033	7.37463	2.28168	0	
2.2040	10.4316	-0.158851	0	
2.2047	10.7153	-2.29612	0	
2.2053	8.28858	-1.6896	0	
2.2060	5.83037	-1.08307	0	
2.2067	1.89093	-3.82686	0	
2.2073	0.0315155	-3.82686	0	
2.2080	1.26062	-1.99286	0	
2.2087	0.0315155	-3.82686	0	
2.2093	-2.71033	-4.73664	0	
2.2100	-2.71033	-0.779813	0	
2.2107	-4.82187	1.35745	0	
2.2113	-10.0219	0.447671	0	
2.2120	-12.7638	1.96397	0	
2.2127	-13.0789	2.8882	0	
2.2133	-13.3941	1.66071	0	
2.2140	-13.3941	1.66071	0	
2.2147	-11.5347	-0.158851	0	
2.2153	-8.79282	-1.6896	0	
2.2160	-7.59523	2.28168	0	
2.2167	-6.36613	4.41894	0	
2.2173	-2.08002	1.05419	0	
2.2180	1.89093	0.447671	0	
2.2187	4.31762	2.58494	0	
2.2193	7.97342	1.05419	0	
2.2200	9.20253	-0.158851	0	
2.2207	8.28858	-0.158851	0	
2.2213	9.80132	-0.476553	0	
2.2220	10.4316	-0.476553	0	
2.2227	7.37463	0.447671	0	
2.2233	6.46068	1.66071	0	
2.2240	5.54673	3.49472	0	
2.2247	0.97698	2.58494	0	
2.2253	-1.79638	1.05419	0	
2.2260	-1.79638	2.58494	0	
2.2267	-1.48123	1.66071	0	
2.2273	1.57577	-1.99286	0	
2.2280	6.46068	-1.38633	0	
2.2287	11.0304	0.14441	0	
2.2293	12.2595	-1.99286	0	
2.2300	9.20253	-1.99286	0	
2.2307	6.46068	0.750931	0	
2.2313	7.05947	-0.476553	0	
2.2320	3.71883	-1.99286	0	
2.2327	-1.79638	-0.476553	0	
2.2333	-0.882434	0.14441	0	
2.2340	0.97698	-1.99286	0	
2.2347	-3.62428	-1.99286	0	
2.2353	-7.87887	0.750931	0	
2.2360	-10.6207	2.28168	0	
2.2367	-14.9068	0.750931	0	
2.2373	-14.308	0.14441	0	
2.2380	-9.70677	0.750931	0	
2.2387	-9.42313	0.750931	0	
2.2393	-11.251	2.28168	0	
2.2400	-9.70677	4.41894	0	
2.2407	-6.05098	4.41894	0	
2.2413	-2.99397	4.41894	0	
2.2420	0.0315155	4.7222	0	
2.2427	4.00247	3.79798	0	
2.2433	7.68978	4.41894	0	
2.2440	10.1165	5.32872	0	
2.2447	10.7153	2.58494	0	
2.2453	11.3456	-1.6896	0	
2.2460	12.5432	-3.22034	0	
2.2467	12.8583	-1.99286	0	
2.2473	11.3456	-1.08307	0	
2.2480	8.88737	-1.6896	0	
2.2487	5.23157	-3.5236	0	
2.2493	1.89093	-3.22034	0	
2.2500	0.661825	-2.29612	0	
2.2507	-1.48123	-1.99286	0	
2.2513	-5.45218	-2.91708	0	
2.2520	-5.45218	-3.82686	0	
2.2527	-1.48123	-3.82686	0	
2.2533	-2.08002	-3.22034	0	
2.2540	-6.36613	-3.5236	0	
2.2547	-4.53823	-2.29612	0	
2.2553	-0.882434	-0.158851	0	
2.2560	0.97698	-0.158851	0	
2.2567	5.54673	-0.779813	0	
2.2573	11.9444	-0.476553	0	
2.2580	16.2305	-0.779813	0	
2.2587	21.1154	-0.779813	0	
2.2593	23.5421	-1.08307	0	
2.2600	18.342	-1.38633	0	
2.2607	13.4886	-0.476553	0	
2.2613	10.7153	1.66071	0	
2.2620	5.54673	1.96397	0	
2.2627	1.57577	0.750931	0	
2.2633	-1.16607	-0.476553	0	
2.2640	-7.28008	1.35745	0	
2.2647	-14.9068	5.93525	0	
2.2653	-20.3905	6.23851	0	
2.2660	-23.4475	3.49472	0	
2.2667	-24.6766	3.49472	0	
2.2673	-26.5045	4.10124	0	
2.2680	-28.6476	1.96397	0	
2.2687	-26.5045	1.05419	0	
2.2693	-21.9348	0.750931	0	
2.2700	-18.8778	0.750931	0	
2.2707	-15.8208	2.58494	0	
2.2713	-9.42313	1.66071	0	
2.2720	-2.71033	-2.91708	0	
2.2727	1.89093	-5.05435	0	
2.2733	5.54673	-4.13012	0	
2.2740	7.97342	-4.73664	0	
2.2747	7.05947	-4.73664	0	
2.2753	4.63278	-2.61382	0	
2.2760	5.54673	-1.08307	0	
2.2767	7.37463	-2.61382	0	
2.2773	5.54673	-3.22034	0	
2.2780	2.48972	-1.38633	0	
2.2787	2.17457	-0.779813	0	
2.2793	2.48972	-2.91708	0	
2.2800	1.57577	-3.22034	0	
2.2807	0.97698	-1.99286	0	
2.2813	0.0315155	-1.99286	0	
2.2820	-1.79638	-1.08307	0	
2.2827	-2.08002	1.35745	0	
2.2833	2.17457	1.66071	0	
2.2840	7.37463	1.66071	0	
2.2847	7.05947	1.96397	0	
2.2853	3.71883	1.05419	0	
2.2860	2.80488	1.35745	0	
2.2867	2.17457	1.96397	0	
2.2873	0.97698	-0.779813	0	
2.2880	2.80488	-2.61382	0	
2.2887	3.71883	-1.38633	0	
2.2893	0.34667	-1.99286	0	
2.2900	-0.882434	-3.5236	0	
2.2907	3.71883	-4.13012	0	
2.2913	8.88737	-7.19161	0	
2.2920	13.7723	-8.70792	0	
2.2927	21.7142	-5.66087	0	
2.2933	30.2549	-3.82686	0	
2.2940	31.7991	-4.73664	0	
2.2947	27.513	-4.73664	0	
2.2953	26.9142	-3.82686	0	
2.2960	27.8282	-3.5236	0	
2.2967	24.456	-2.61382	0	
2.2973	20.2014	-2.91708	0	
2.2980	15.6002	-4.13012	0	
2.2987	8.60373	-2.61382	0	
2.2993	2.80488	0.750931	0	
2.3000	0.97698	1.66071	0	
2.3007	-0.567279	1.66071	0	
2.3013	-5.13703	2.58494	0	
2.3020	-13.6777	2.8882	0	
2.3027	-23.7627	1.05419	0	
2.3033	-31.0743	-0.158851	0	
2.3040	-36.5895	1.96397	0	
2.3047	-39.3313	3.49472	0	
2.3053	-34.4464	2.58494	0	
2.3060	-30.1603	3.79798	0	
2.3067	-30.7906	4.7222	0	
2.3073	-27.4185	2.28168	0	
2.3080	-21.0208	1.66071	0	
2.3087	-20.1069	4.10124	0	
2.3093	-19.7917	4.10124	0	
2.3100	-14.9068	2.28168	0	
2.3107	-9.10798	0.750931	0	
2.3113	-6.05098	0.14441	0	
2.3120	-5.45218	0.750931	0	
2.3127	-5.76734	0.14441	0	
2.3133	-5.45218	-1.99286	0	
2.3140	-4.22308	-1.08307	0	
2.3147	-3.62428	1.35745	0	
2.3153	-0.882434	1.66071	0	
2.3160	3.08852	1.66071	0	
2.3167	4.63278	1.96397	0	
2.3173	2.80488	1.66071	0	
2.3180	1.89093	0.447671	0	
2.3187	4.31762	-0.158851	0	
2.3193	5.23157	0.447671	0	
2.3200	3.71883	0.750931	0	
2.3207	6.46068	-0.158851	0	
2.3213	11.9444	-1.6896	0	
2.3220	14.0874	-1.38633	0	
2.3227	15.3165	-2.29612	0	
2.3233	17.1444	-3.5236	0	
2.3240	17.1444	-3.22034	0	
2.3247	17.4281	-3.82686	0	
2.3253	18.342	-5.05435	0	
2.3260	18.342	-5.35761	0	
2.3267	19.8863	-5.35761	0	
2.3273	21.1154	-5.66087	0	
2.3280	18.0584	-6.87391	0	
2.3287	13.4886	-7.79813	0	
2.3293	12.2595	-6.26739	0	
2.3300	10.1165	-3.82686	0	
2.3307	4.63278	-4.73664	0	
2.3313	0.97698	-5.35761	0	
2.3320	0.661825	-2.61382	0	
2.3327	-2.39518	-0.158851	0	
2.3333	-6.05098	1.66071	0	
2.3340	-6.36613	2.58494	0	
2.3347	-7.59523	0.750931	0	
2.3353	-11.8498	0.750931	0	
2.3360	-11.8498	4.7222	0	
2.3367	-9.10798	6.85947	0	
2.3373	-10.3371	5.63199	0	
2.3380	-10.9359	6.23851	0	
2.3387	-6.96492	6.23851	0	
2.3393	-5.13703	4.10124	0	
2.3400	-6.36613	3.19146	0	
2.3407	-6.05098	3.49472	0	
2.3413	-4.53823	4.10124	0	
2.3420	-6.96492	5.02546	0	
2.3427	-10.0219	5.02546	0	
2.3433	-8.19403	2.28168	0	
2.3440	-5.45218	0.750931	0	
2.3447	-7.59523	2.58494	0	
2.3453	-9.42313	2.28168	0	
2.3460	-6.36613	0.14441	0	
2.3467	-5.13703	-0.158851	0	
2.3473	-5.13703	-1.08307	0	
2.3480	-1.16607	-1.08307	0	
2.3487	0.34667	3.19146	0	
2.3493	-3.62428	4.10124	0	
2.3500	-5.13703	-0.158851	0	
2.3507	-4.22308	-0.158851	0	
2.3513	-6.68129	1.05419	0	
2.3520	-9.42313	-1.08307	0	
2.3527	-8.19403	-1.99286	0	
2.3533	-5.13703	-0.476553	0	
2.3540	-2.99397	-2.29612	0	
2.3547	-3.30913	-2.91708	0	
2.3553	-2.71033	0.14441	0	
2.3560	-0.567279	1.35745	0	
2.3567	0.0315155	1.66071	0	
2.3573	-1.48123	2.58494	0	
2.3580	0.34667	1.66071	0	
2.3587	5.54673	1.05419	0	
2.3593	11.0304	2.58494	0	
2.3600	16.8293	1.66071	0	
2.3607	23.2269	-0.779813	0	
2.3613	28.427	-1.6896	0	
2.3620	31.1688	-3.22034	0	
2.3627	31.484	-4.43338	0	
2.3633	30.2549	-2.29612	0	
2.3640	28.427	-1.6896	0	
2.3647	27.513	-3.82686	0	
2.3653	26.0003	-4.13012	0	
2.3660	20.8002	-3.5236	0	
2.3667	13.4886	-4.73664	0	
2.3673	7.37463	-5.66087	0	
2.3680	2.80488	-4.13012	0	
2.3687	-4.82187	-3.5236	0	
2.3693	-14.5917	-3.5236	0	
2.3700	-21.0208	-3.82686	0	
2.3707	-23.4475	-3.5236	0	
2.3713	-25.2754	-1.38633	0	
2.3720	-29.2464	-0.158851	0	
2.3727	-30.4755	-1.08307	0	
2.3733	-26.5045	-0.158851	0	
2.3740	-21.6196	1.66071	0	
2.3747	-20.1069	1.66071	0	
2.3753	-19.1929	0.750931	0	
2.3760	-14.5917	0.750931	0	
2.3767	-9.10798	-0.779813	0	
2.3773	-6.36613	-0.779813	0	
2.3780	-6.05098	1.66071	0	
2.3787	-6.68129	0.750931	0	
2.3793	-6.68129	-1.99286	0	
2.3800	-5.13703	-1.6896	0	
2.3807	-3.62428	-0.476553	0	
2.3813	-3.62428	-1.08307	0	
2.3820	-3.62428	-0.779813	0	
2.3827	-3.62428	-0.779813	0	
2.3833	-3.62428	-2.61382	0	
2.3840	-3.62428	-2.29612	0	
2.3847	-2.71033	-1.38633	0	
2.3853	-1.48123	-3.5236	0	
2.3860	-0.882434	-4.73664	0	
2.3867	0.0315155	-4.13012	0	
2.3873	1.89093	-3.82686	0	
2.3880	3.08852	-1.99286	0	
2.3887	5.83037	-0.476553	0	
2.3893	11.0304	-2.91708	0	
2.3900	11.3456	-4.13012	0	
2.3907	7.37463	-2.91708	0	
2.3913	8.28858	-3.22034	0	
2.3920	10.1165	-3.5236	0	
2.3927	7.37463	-0.158851	0	
2.3933	6.77583	-0.158851	0	
2.3940	6.77583	-4.13012	0	
2.3947	3.71883	-3.22034	0	
2.3953	3.71883	2.58494	0	
2.3960	4.91642	3.49472	0	
2.3967	0.661825	1.05419	0	
2.3973	-2.71033	2.28168	0	
2.3980	0.34667	3.49472	0	
2.3987	5.54673	2.58494	0	
2.3993	11.0304	2.8882	0	
2.4000	15.0014	1.66071	0	
2.4007	16.5141	-2.91708	0	
2.4013	16.8293	-2.91708	0	
2.4020	16.5141	0.750931	0	
2.4027	13.4886	-0.476553	0	
2.4033	12.2595	-3.82686	0	
2.4040	14.0874	-2.29612	0	
2.4047	11.9444	-0.158851	0	
2.4053	5.54673	-2.61382	0	
2.4060	0.0315155	-4.73664	0	
2.4067	-2.08002	-4.43338	0	
2.4073	-2.71033	-2.91708	0	
2.4080	-5.13703	-2.91708	0	
2.4087	-9.70677	-3.5236	0	
2.4093	-12.7638	-2.29612	0	
2.4100	-12.7638	-0.476553	0	
2.4107	-12.7638	0.14441	0	
2.4113	-13.6777	0.750931	0	
2.4120	-13.0789	1.05419	0	
2.4127	-11.251	1.66071	0	
2.4133	-10.0219	2.58494	0	
2.4140	-8.19403	1.66071	0	
2.4147	-6.96492	1.35745	0	
2.4153	-6.68129	3.49472	0	
2.4160	-5.76734	4.41894	0	
2.4167	-1.79638	2.8882	0	
2.4173	3.08852	1.66071	0	
2.4180	4.63278	1.66071	0	
2.4187	2.80488	2.8882	0	
2.4193	0.97698	3.49472	0	
2.4200	0.661825	2.58494	0	
2.4207	0.34667	0.750931	0	
2.4213	-0.882434	-0.779813	0	
2.4220	-3.30913	-0.158851	0	
2.4227	-5.13703	1.96397	0	
2.4233	-5.45218	2.58494	0	
2.4240	-7.28008	0.447671	0	
2.4247	-9.10798	-0.158851	0	
2.4253	-8.79282	1.35745	0	
2.4260	-10.3371	0.14441	0	
2.4267	-12.7638	0.14441	0	
2.4273	-10.9359	1.96397	0	
2.4280	-10.0219	0.750931	0	
2.4287	-10.6207	-0.476553	0	
2.4293	-5.45218	1.96397	0	
2.4300	-1.79638	3.49472	0	
2.4307	-4.53823	2.58494	0	
2.4313	-2.71033	3.49472	0	
2.4320	2.17457	4.7222	0	
2.4327	0.0315155	3.49472	0	
2.4333	0.0315155	0.750931	0	
2.4340	4.63278	0.14441	0	
2.4347	4.00247	1.96397	0	
2.4353	1.57577	3.79798	0	
2.4360	4.91642	3.49472	0	
2.4367	6.46068	2.58494	0	
2.4373	3.71883	0.750931	0	
2.4380	5.54673	-1.6896	0	
2.4387	10.4316	-2.61382	0	
2.4393	14.6862	-0.779813	0	
2.4400	19.2875	-1.6896	0	
2.4407	22.0293	-4.73664	0	
2.4413	23.8572	-4.73664	0	
2.4420	27.1979	-3.5236	0	
2.4427	29.3409	-5.35761	0	
2.4433	29.9397	-6.57065	0	
2.4440	30.57	-5.35761	0	
2.4447	29.3409	-6.57065	0	
2.4453	24.7712	-6.87391	0	
2.4460	21.1154	-4.73664	0	
2.4467	17.4281	-4.13012	0	
2.4473	12.5432	-4.73664	0	
2.4480	8.60373	-4.73664	0	
2.4487	6.77583	-4.73664	0	
2.4493	3.08852	-3.22034	0	
2.4500	0.661825	-1.99286	0	
2.4507	3.40367	-3.82686	0	
2.4513	6.46068	-3.5236	0	
2.4520	4.91642	-0.476553	0	
2.4527	1.89093	-0.779813	0	
2.4533	-0.252124	-3.22034	0	
2.4540	-3.30913	-3.5236	0	
2.4547	-6.05098	-0.476553	0	
2.4553	-6.96492	2.58494	0	
2.4560	-10.6207	2.28168	0	
2.4567	-19.1929	1.35745	0	
2.4573	-27.7336	1.96397	0	
2.4580	-31.7046	1.05419	0	
2.4587	-33.5325	0.750931	0	
2.4593	-35.644	4.41894	0	
2.4600	-35.3604	6.23851	0	
2.4607	-33.8161	5.32872	0	
2.4613	-37.5034	8.07251	0	
2.4620	-42.9871	9.90652	0	
2.4627	-41.4429	7.16273	0	
2.4633	-37.1883	6.85947	0	
2.4640	-33.8161	10.2098	0	
2.4647	-27.4185	11.7405	0	
2.4653	-19.1929	11.1196	0	
2.4660	-14.9068	8.37577	0	
2.4667	-13.0789	5.02546	0	
2.4673	-13.0789	3.19146	0	
2.4680	-12.7638	1.66071	0	
2.4687	-7.87887	0.14441	0	
2.4693	-3.30913	1.66071	0	
2.4700	-2.71033	3.49472	0	
2.4707	-1.16607	3.49472	0	
2.4713	2.17457	2.8882	0	
2.4720	1.89093	0.14441	0	
2.4727	2.80488	-1.99286	0	
2.4733	6.46068	1.35745	0	
2.4740	7.37463	2.58494	0	
2.4747	7.68978	-1.99286	0	
2.4753	12.2595	-2.29612	0	
2.4760	12.8583	1.05419	0	
2.4767	8.28858	-0.158851	0	
2.4773	8.60373	-1.99286	0	
2.4780	11.9444	-1.6896	0	
2.4787	10.4316	-2.91708	0	
2.4793	9.20253	-2.91708	0	
2.4800	10.7153	-1.08307	0	
2.4807	9.80132	-3.22034	0	
2.4813	9.20253	-5.66087	0	
2.4820	11.0304	-3.82686	0	
2.4827	10.1165	-2.91708	0	
2.4833	8.28858	-2.91708	0	
2.4840	10.1165	-1.08307	0	
2.4847	11.0304	-1.6896	0	
2.4853	9.20253	-3.82686	0	
2.4860	10.1165	-2.91708	0	
2.4867	11.0304	-2.61382	0	
2.4873	9.51768	-3.5236	0	
2.4880	10.1165	-2.91708	0	
2.4887	10.7153	-2.91708	0	
2.4893	9.20253	-3.82686	0	
2.4900	9.51768	-3.82686	0	
2.4907	10.4316	-2.91708	0	
2.4913	7.68978	-1.38633	0	
2.4920	6.14552	-1.08307	0	
2.4927	7.37463	-1.6896	0	
2.4933	6.14552	-1.99286	0	
2.4940	4.63278	-1.38633	0	
2.4947	4.91642	-0.158851	0	
2.4953	3.71883	1.35745	0	
2.4960	2.80488	0.14441	0	
2.4967	3.71883	-0.779813	0	
2.4973	3.71883	1.35745	0	
2.4980	3.71883	1.96397	0	
2.4987	5.54673	-0.158851	0	
2.4993	7.05947	0.14441	0	
2.5000	6.77583	1.35745	0	
2.5007	9.80132	-0.476553	0	
2.5013	15.9153	-1.99286	0	
2.5020	18.6572	-0.779813	0	
2.5027	20.2014	-0.779813	0	
2.5033	25.37	-2.61382	0	
2.5040	30.8537	-3.82686	0	
2.5047	32.0828	-5.05435	0	
2.5053	32.9967	-6.57065	0	
2.5060	33.9107	-6.57065	0	
2.5067	30.57	-5.05435	0	
2.5073	23.8572	-5.66087	0	
2.5080	16.8293	-8.10139	0	
2.5087	9.20253	-7.19161	0	
2.5093	0.97698	-4.73664	0	
2.5100	-5.76734	-5.66087	0	
2.5107	-11.251	-6.26739	0	
2.5113	-18.5626	-1.99286	0	
2.5120	-26.8197	1.35745	0	
2.5127	-31.7046	1.66071	0	
2.5133	-33.8161	3.49472	0	
2.5140	-35.9592	5.32872	0	
2.5147	-38.1022	4.41894	0	
2.5153	-41.1592	4.41894	0	
2.5160	-43.5859	6.54177	0	
2.5167	-39.0162	6.85947	0	
2.5173	-31.0743	4.41894	0	
2.5180	-28.0173	4.41894	0	
2.5187	-26.8197	5.32872	0	
2.5193	-21.0208	4.41894	0	
2.5200	-16.7347	2.58494	0	
2.5207	-15.5056	3.19146	0	
2.5213	-14.5917	2.58494	0	
2.5220	-15.5056	1.66071	0	
2.5227	-17.3335	4.10124	0	
2.5233	-15.5056	7.76925	0	
2.5240	-13.6777	6.85947	0	
2.5247	-11.251	3.49472	0	
2.5253	-6.36613	0.750931	0	
2.5260	-3.62428	-1.08307	0	
2.5267	-4.53823	-1.99286	0	
2.5273	-3.62428	-1.38633	0	
2.5280	-0.252124	-1.99286	0	
2.5287	1.57577	-2.29612	0	
2.5293	1.89093	-2.29612	0	
2.5300	0.97698	-2.91708	0	
2.5307	2.48972	-1.38633	0	
2.5313	6.46068	0.14441	0	
2.5320	9.20253	-0.779813	0	
2.5327	9.51768	-1.38633	0	
2.5333	10.1165	-0.476553	0	
2.5340	10.1165	-0.158851	0	
2.5347	11.0304	-0.158851	0	
2.5353	11.9444	0.14441	0	
2.5360	8.60373	-0.158851	0	
2.5367	3.40367	0.447671	0	
2.5373	3.08852	0.750931	0	
2.5380	4.31762	-0.779813	0	
2.5387	2.80488	-1.08307	0	
2.5393	2.80488	-1.6896	0	
2.5400	4.63278	-3.5236	0	
2.5407	4.63278	-3.82686	0	
2.5413	6.77583	-2.91708	0	
2.5420	12.8583	-3.22034	0	
2.5427	16.5141	-3.5236	0	
2.5433	15.6002	-3.82686	0	
2.5440	15.3165	-4.43338	0	
2.5447	14.0874	-4.13012	0	
2.5453	12.2595	-3.82686	0	
2.5460	13.1735	-4.73664	0	
2.5467	14.0874	-4.43338	0	
2.5473	9.80132	-3.82686	0	
2.5480	4.31762	-3.82686	0	
2.5487	2.17457	-3.82686	0	
2.5493	0.0315155	-2.91708	0	
2.5500	-2.08002	-1.6896	0	
2.5507	-1.79638	-0.158851	0	
2.5513	0.0315155	0.447671	0	
2.5520	3.08852	-0.476553	0	
2.5527	5.23157	-1.08307	0	
2.5533	6.14552	-1.38633	0	
2.5540	9.51768	-1.08307	0	
2.5547	13.7723	0.750931	0	
2.5553	14.0874	1.66071	0	
2.5560	12.8583	1.35745	0	
2.5567	11.9444	0.750931	0	
2.5573	8.28858	-0.158851	0	
2.5580	2.80488	-0.476553	0	
2.5587	-1.16607	-1.08307	0	
2.5593	-2.39518	-1.38633	0	
2.5600	-5.45218	-0.476553	0	
2.5607	-10.0219	0.750931	0	
2.5613	-12.165	0.750931	0	
2.5620	-12.7638	-0.158851	0	
2.5627	-15.222	-0.158851	0	
2.5633	-13.6777	0.14441	0	
2.5640	-10.6207	0.447671	0	
2.5647	-12.165	-0.158851	0	
2.5653	-12.4801	-0.779813	0	
2.5660	-8.50918	-0.779813	0	
2.5667	-7.87887	-0.779813	0	
2.5673	-9.10798	-1.08307	0	
2.5680	-6.68129	-1.08307	0	
2.5687	-6.96492	-1.38633	0	
2.5693	-9.70677	-2.61382	0	
2.5700	-10.0219	-3.82686	0	
2.5707	-10.0219	-3.82686	0	
2.5713	-8.19403	-1.08307	0	
2.5720	-6.36613	0.14441	0	
2.5727	-6.05098	-1.99286	0	
2.5733	-4.53823	-0.779813	0	
2.5740	-1.16607	3.19146	0	
2.5747	-1.79638	0.750931	0	
2.5753	-1.79638	-1.6896	0	
2.5760	2.80488	3.49472	0	
2.5767	3.40367	6.23851	0	
2.5773	1.26062	2.28168	0	
2.5780	3.71883	1.05419	0	
2.5787	4.91642	4.10124	0	
2.5793	3.71883	4.10124	0	
2.5800	7.05947	1.96397	0	
2.5807	13.1735	1.05419	0	
2.5813	14.6862	-1.38633	0	
2.5820	16.5141	-4.43338	0	
2.5827	19.8863	-4.73664	0	
2.5833	20.2014	-4.43338	0	
2.5840	20.4851	-5.66087	0	
2.5847	24.7712	-6.26739	0	
2.5853	23.2269	-5.35761	0	
2.5860	15.6002	-5.66087	0	
2.5867	11.9444	-7.19161	0	
2.5873	11.9444	-5.05435	0	
2.5880	10.1165	-2.91708	0	
2.5887	8.88737	-4.73664	0	
2.5893	8.88737	-7.49487	0	
2.5900	4.63278	-6.57065	0	
2.5907	-2.71033	-3.22034	0	
2.5913	-6.36613	-0.158851	0	
2.5920	-4.82187	1.35745	0	
2.5927	-2.39518	1.66071	0	
2.5933	-0.882434	0.447671	0	
2.5940	-0.252124	-1.38633	0	
2.5947	-1.48123	-0.158851	0	
2.5953	-1.79638	5.02546	0	
2.5960	0.97698	7.46599	0	
2.5967	1.89093	6.23851	0	
2.5973	-2.08002	5.63199	0	
2.5980	-4.53823	6.23851	0	
2.5987	-5.45218	3.79798	0	
2.5993	-9.70677	2.58494	0	
2.6000	-13.6777	5.02546	0	
2.6007	-13.3941	5.93525	0	
2.6013	-15.5056	3.49472	0	
2.6020	-20.1069	3.49472	0	
2.6027	-23.1324	3.49472	0	
2.6033	-27.1033	0.750931	0	
2.6040	-31.7046	-1.38633	0	
2.6047	-31.0743	-1.38633	0	
2.6053	-27.7336	-2.91708	0	
2.6060	-23.7627	-3.82686	0	
2.6067	-19.1929	-0.779813	0	
2.6073	-17.3335	2.58494	0	
2.6080	-17.3335	3.49472	0	
2.6087	-13.3941	2.58494	0	
2.6093	-9.10798	-0.158851	0	
2.6100	-8.19403	-3.22034	0	
2.6107	-5.13703	-3.5236	0	
2.6113	-2.08002	-1.38633	0	
2.6120	-2.08002	1.96397	0	
2.6127	-0.567279	4.7222	0	
2.6133	2.80488	2.58494	0	
2.6140	3.71883	0.14441	0	
2.6147	4.91642	2.58494	0	
2.6153	8.88737	3.79798	0	
2.6160	10.7153	1.05419	0	
2.6167	10.7153	1.35745	0	
2.6173	12.2595	3.49472	0	
2.6180	14.4026	1.96397	0	
2.6187	15.9153	0.750931	0	
2.6193	19.2875	-0.158851	0	
2.6200	18.9723	-2.91708	0	
2.6207	14.4026	-4.43338	0	
2.6213	12.8583	-1.99286	0	
2.6220	14.0874	1.05419	0	
2.6227	10.4316	0.447671	0	
2.6233	5.54673	-1.6896	0	
2.6240	2.80488	-1.08307	0	
2.6247	-1.16607	1.35745	0	
2.6253	-6.05098	-0.158851	0	
2.6260	-7.28008	-2.61382	0	
2.6267	-8.19403	-1.08307	0	
2.6273	-10.0219	-0.158851	0	
2.6280	-7.59523	-1.99286	0	
2.6287	-5.45218	-2.29612	0	
2.6293	-6.36613	-1.6896	0	
2.6300	-4.82187	-1.38633	0	
2.6307	1.89093	-1.99286	0	
2.6313	6.77583	-2.91708	0	
2.6320	8.28858	-1.38633	0	
2.6327	11.0304	-1.08307	0	
2.6333	13.4886	-3.82686	0	
2.6340	11.9444	-3.22034	0	
2.6347	12.5432	0.14441	0	
2.6353	19.2875	-1.08307	0	
2.6360	24.7712	-3.82686	0	
2.6367	23.5421	-2.29612	0	
2.6373	20.2014	-2.61382	0	
2.6380	16.5141	-4.43338	0	
2.6387	12.8583	-4.13012	0	
2.6393	9.80132	-3.82686	0	
2.6400	5.83037	-3.5236	0	
2.6407	0.34667	-1.99286	0	
2.6413	-4.53823	-3.5236	0	
2.6420	-9.10798	-3.22034	0	
2.6427	-11.251	0.447671	0	
2.6433	-11.251	0.750931	0	
2.6440	-14.5917	-0.158851	0	
2.6447	-15.8208	3.19146	0	
2.6453	-8.19403	3.49472	0	
2.6460	0.97698	-1.38633	0	
2.6467	3.08852	-2.61382	0	
2.6473	3.08852	-0.779813	0	
2.6480	2.80488	-1.99286	0	
2.6487	4.00247	-2.61382	0	
2.6493	11.9444	-1.08307	0	
2.6500	19.2875	-1.08307	0	
2.6507	17.4281	-0.158851	0	
2.6513	12.5432	1.35745	0	
2.6520	9.20253	1.66071	0	
2.6527	4.91642	1.35745	0	
2.6533	0.97698	1.66071	0	
2.6540	-2.39518	1.66071	0	
2.6547	-6.05098	2.8882	0	
2.6553	-8.19403	3.49472	0	
2.6560	-9.10798	3.19146	0	
2.6567	-10.9359	5.02546	0	
2.6573	-13.3941	6.23851	0	
2.6580	-16.1359	4.10124	0	
2.6587	-21.6196	4.7222	0	
2.6593	-26.8197	6.54177	0	
2.6600	-28.0173	3.79798	0	
2.6607	-28.0173	1.05419	0	
2.6613	-29.2464	2.58494	0	
2.6620	-29.2464	3.49472	0	
2.6627	-27.1033	3.19146	0	
2.6633	-22.8487	4.10124	0	
2.6640	-19.1929	5.02546	0	
2.6647	-17.3335	4.7222	0	
2.6653	-15.222	3.49472	0	
2.6660	-10.0219	1.35745	0	
2.6667	-5.13703	0.447671	0	
2.6673	-2.71033	1.35745	0	
2.6680	-1.16607	0.447671	0	
2.6687	0.0315155	-1.99286	0	
2.6693	1.57577	-1.99286	0	
2.6700	2.48972	-1.99286	0	
2.6707	2.80488	-2.91708	0	
2.6713	4.91642	-2.29612	0	
2.6720	7.05947	-1.99286	0	
2.6727	4.63278	-3.22034	0	
2.6733	3.71883	-4.43338	0	
2.6740	6.77583	-4.73664	0	
2.6747	7.05947	-3.82686	0	
2.6753	3.71883	-1.6896	0	
2.6760	5.54673	-0.158851	0	
2.6767	8.88737	-1.38633	0	
2.6773	9.20253	-1.6896	0	
2.6780	8.88737	-1.99286	0	
2.6787	8.28858	-4.13012	0	
2.6793	7.97342	-5.05435	0	
2.6800	9.51768	-3.82686	0	
2.6807	11.0304	-2.61382	0	
2.6813	10.7153	-0.779813	0	
2.6820	11.9444	0.447671	0	
2.6827	14.6862	-2.29612	0	
2.6833	15.6002	-5.35761	0	
2.6840	15.6002	-3.82686	0	
2.6847	16.5141	-0.779813	0	
2.6853	17.7432	-2.29612	0	
2.6860	18.9723	-6.26739	0	
2.6867	20.2014	-5.66087	0	
2.6873	21.1154	-2.91708	0	
2.6880	18.9723	-3.82686	0	
2.6887	15.6002	-5.35761	0	
2.6893	14.6862	-4.73664	0	
2.6900	14.0874	-5.35761	0	
2.6907	11.9444	-7.49487	0	
2.6913	11.0304	-7.19161	0	
2.6920	11.0304	-4.73664	0	
2.6927	7.05947	-3.5236	0	
2.6933	0.97698	-3.82686	0	
2.6940	-2.39518	-3.82686	0	
2.6947	-6.96492	-2.61382	0	
2.6953	-12.7638	-1.6896	0	
2.6960	-13.9929	-0.779813	0	
2.6967	-10.0219	0.750931	0	
2.6973	-6.68129	0.447671	0	
2.6980	-6.05098	-1.08307	0	
2.6987	-5.13703	0.750931	0	
2.6993	-4.53823	3.19146	0	
2.7000	-6.96492	4.41894	0	
2.7007	-8.19403	4.10124	0	
2.7013	-8.19403	2.28168	0	
2.7020	-11.8498	0.750931	0	
2.7027	-14.5917	1.05419	0	
2.7033	-11.8498	0.447671	0	
2.7040	-10.9359	1.66071	0	
2.7047	-13.6777	6.23851	0	
2.7053	-12.7638	6.23851	0	
2.7060	-9.42313	2.28168	0	
2.7067	-10.9359	0.447671	0	
2.7073	-13.9929	0.14441	0	
2.7080	-13.9929	0.14441	0	
2.7087	-11.5347	1.66071	0	
2.7093	-10.3371	1.96397	0	
2.7100	-10.9359	1.35745	0	
2.7107	-9.42313	1.66071	0	
2.7113	-6.36613	0.447671	0	
2.7120	-5.45218	-0.779813	0	
2.7127	-5.45218	0.750931	0	
2.7133	-3.30913	1.66071	0	
2.7140	-0.252124	1.66071	0	
2.7147	2.48972	3.19146	0	
2.7153	4.63278	5.02546	0	
2.7160	7.37463	5.63199	0	
2.7167	10.1165	4.10124	0	
2.7173	11.0304	1.35745	0	
2.7180	11.0304	1.96397	0	
2.7187	12.5432	2.58494	0	
2.7193	12.8583	-0.476553	0	
2.7200	11.3456	-1.08307	0	
2.7207	11.0304	0.447671	0	
2.7213	10.1165	-3.22034	0	
2.7220	7.37463	-4.73664	0	
2.7227	6.46068	1.05419	0	
2.7233	7.37463	2.58494	0	
2.7240	5.54673	-1.99286	0	
2.7247	3.40367	-3.82686	0	
2.7253	3.71883	-3.22034	0	
2.7260	5.23157	-3.82686	0	
2.7267	7.68978	-5.05435	0	
2.7273	9.20253	-7.19161	0	
2.7280	7.68978	-7.49487	0	
2.7287	6.46068	-5.66087	0	
2.7293	6.14552	-3.82686	0	
2.7300	3.08852	-3.82686	0	
2.7307	1.57577	-3.82686	0	
2.7313	2.80488	-5.66087	0	
2.7320	2.80488	-5.66087	0	
2.7327	0.97698	-2.91708	0	
2.7333	1.26062	-1.08307	0	
2.7340	0.0315155	-1.08307	0	
2.7347	-4.22308	-0.779813	0	
2.7353	-4.22308	0.14441	0	
2.7360	-3.62428	1.66071	0	
2.7367	-6.36613	3.49472	0	
2.7373	-4.82187	2.8882	0	
2.7380	-1.16607	4.41894	0	
2.7387	-2.71033	7.76925	0	
2.7393	-2.99397	5.93525	0	
2.7400	-0.882434	0.750931	0	
2.7407	-4.22308	0.750931	0	
2.7413	-9.10798	2.58494	0	
2.7420	-10.0219	1.96397	0	
2.7427	-10.0219	-0.158851	0	
2.7433	-7.28008	-0.779813	0	
2.7440	-4.22308	0.750931	0	
2.7447	-7.87887	1.66071	0	
2.7453	-13.6777	2.28168	0	
2.7460	-11.8498	3.49472	0	
2.7467	-7.28008	2.8882	0	
2.7473	-6.68129	-1.08307	0	
2.7480	-9.10798	-2.29612	0	
2.7487	-13.6777	1.66071	0	
2.7493	-15.5056	-0.158851	0	
2.7500	-12.165	-3.82686	0	
2.7507	-10.0219	-1.08307	0	
2.7513	-11.251	2.28168	0	
2.7520	-11.8498	-1.08307	0	
2.7527	-12.7638	-3.22034	0	
2.7533	-14.5917	-0.476553	0	
2.7540	-13.0789	1.05419	0	
2.7547	-10.6207	0.750931	0	
2.7553	-9.10798	0.14441	0	
2.7560	-5.13703	0.14441	0	
2.7567	1.26062	0.14441	0	
2.7573	2.80488	0.750931	0	
2.7580	1.26062	1.66071	0	
2.7587	1.89093	4.10124	0	
2.7593	2.80488	4.41894	0	
2.7600	1.89093	1.96397	0	
2.7607	2.17457	1.66071	0	
2.7613	3.71883	2.58494	0	
2.7620	4.00247	0.447671	0	
2.7627	3.71883	-2.61382	0	
2.7633	4.63278	-1.99286	0	
2.7640	7.97342	-0.158851	0	
2.7647	10.1165	-0.158851	0	
2.7653	7.97342	-1.99286	0	
2.7660	6.14552	-1.99286	0	
2.7667	7.97342	-0.779813	0	
2.7673	8.88737	-1.99286	0	
2.7680	7.05947	-3.22034	0	
2.7687	6.77583	-2.61382	0	
2.7693	9.20253	-1.6896	0	
2.7700	11.9444	-0.779813	0	
2.7707	13.4886	0.447671	0	
2.7713	13.7723	-0.158851	0	
2.7720	12.5432	-2.29612	0	
2.7727	11.6292	-2.91708	0	
2.7733	12.8583	-1.99286	0	
2.7740	14.6862	-1.99286	0	
2.7747	13.7723	-2.61382	0	
2.7753	10.7153	-1.99286	0	
2.7760	9.51768	-0.158851	0	
2.7767	7.37463	0.14441	0	
2.7773	2.80488	-0.779813	0	
2.7780	0.661825	1.66071	0	
2.7787	1.26062	4.7222	0	
2.7793	-0.882434	2.58494	0	
2.7800	-3.30913	-0.476553	0	
2.7807	-1.48123	0.750931	0	
2.7813	0.0315155	0.750931	0	
2.7820	0.661825	-1.99286	0	
2.7827	4.63278	-1.99286	0	
2.7833	9.20253	-0.158851	0	
2.7840	9.80132	-0.476553	0	
2.7847	10.1165	-1.08307	0	
2.7853	12.8583	-1.38633	0	
2.7860	12.2595	-2.61382	0	
2.7867	9.20253	-2.91708	0	
2.7873	6.46068	-2.91708	0	
2.7880	4.00247	-3.82686	0	
2.7887	2.48972	-5.66087	0	
2.7893	0.97698	-7.49487	0	
2.7900	0.97698	-6.57065	0	
2.7907	3.71883	-5.05435	0	
2.7913	6.77583	-5.96413	0	
2.7920	3.71883	-5.35761	0	
2.7927	0.0315155	-2.61382	0	
2.7933	-0.882434	-2.91708	0	
2.7940	-3.62428	-3.22034	0	
2.7947	-6.96492	-0.158851	0	
2.7953	-6.68129	1.66071	0	
2.7960	-7.87887	0.447671	0	
2.7967	-12.7638	0.750931	0	
2.7973	-15.5056	2.58494	0	
2.7980	-16.4196	4.41894	0	
2.7987	-19.7917	6.85947	0	
2.7993	-24.0778	7.46599	0	
2.8000	-25.9057	6.54177	0	
2.8007	-25.5906	7.46599	0	
2.8013	-24.0778	8.07251	0	
2.8020	-22.5336	5.32872	0	
2.8027	-20.7057	3.49472	0	
2.8033	-19.1929	5.02546	0	
2.8040	-16.4196	4.41894	0	
2.8047	-10.0219	0.750931	0	
2.8053	-7.28008	0.750931	0	
2.8060	-9.42313	2.58494	0	
2.8067	-8.79282	1.35745	0	
2.8073	-4.22308	1.35745	0	
2.8080	-2.08002	3.49472	0	
2.8087	-2.71033	1.35745	0	
2.8093	-2.99397	-3.22034	0	
2.8100	-2.08002	-3.22034	0	
2.8107	0.34667	1.05419	0	
2.8113	2.17457	3.19146	0	
2.8120	4.00247	0.750931	0	
2.8127	7.05947	-1.99286	0	
2.8133	6.46068	-0.476553	0	
2.8140	5.83037	-0.476553	0	
2.8147	11.9444	-3.82686	0	
2.8153	16.5141	-2.91708	0	
2.8160	12.8583	0.14441	0	
2.8167	10.4316	-1.6896	0	
2.8173	13.4886	-3.5236	0	
2.8180	13.1735	-1.99286	0	
2.8187	11.0304	-2.61382	0	
2.8193	11.6292	-2.91708	0	
2.8200	12.5432	-0.779813	0	
2.8207	10.4316	-1.99286	0	
2.8213	6.77583	-2.29612	0	
2.8220	3.08852	0.750931	0	
2.8227	0.97698	0.750931	0	
2.8233	0.0315155	-1.6896	0	
2.8240	1.57577	-0.476553	0	
2.8247	4.91642	-1.08307	0	
2.8253	9.20253	-5.05435	0	
2.8260	11.9444	-4.73664	0	
2.8267	10.1165	-1.6896	0	
2.8273	5.83037	-2.91708	0	
2.8280	4.63278	-3.82686	0	
2.8287	5.54673	-3.5236	0	
2.8293	4.00247	-3.82686	0	
2.8300	2.48972	-3.82686	0	
2.8307	3.71883	-1.99286	0	
2.8313	6.46068	-0.779813	0	
2.8320	8.28858	-2.91708	0	
2.8327	8.28858	-4.13012	0	
2.8333	6.46068	-1.99286	0	
2.8340	4.91642	0.447671	0	
2.8347	2.48972	1.05419	0	
2.8353	-0.567279	2.8882	0	
2.8360	-0.882434	4.7222	0	
2.8367	-3.30913	3.49472	0	
2.8373	-7.87887	4.41894	0	
2.8380	-8.50918	7.16273	0	
2.8387	-10.0219	6.23851	0	
2.8393	-17.6487	5.32872	0	
2.8400	-20.7057	7.16273	0	
2.8407	-14.9068	7.46599	0	
2.8413	-11.8498	5.93525	0	
2.8420	-11.8498	6.23851	0	
2.8427	-9.70677	5.32872	0	
2.8433	-7.59523	2.58494	0	
2.8440	-6.36613	2.8882	0	
2.8447	-3.30913	3.79798	0	
2.8453	-2.39518	1.96397	0	
2.8460	-4.22308	-0.779813	0	
2.8467	-3.90792	-1.99286	0	
2.8473	-2.71033	-1.99286	0	
2.8480	-4.53823	-0.476553	0	
2.8487	-6.36613	-1.08307	0	
2.8493	-7.28008	-3.82686	0	
2.8500	-7.59523	-3.82686	0	
2.8507	-8.79282	-2.61382	0	
2.8513	-10.6207	-1.38633	0	
2.8520	-12.165	1.05419	0	
2.8527	-12.165	2.58494	0	
2.8533	-12.165	1.35745	0	
2.8540	-11.8498	1.66071	0	
2.8547	-9.42313	4.41894	0	
2.8553	-8.19403	4.10124	0	
2.8560	-8.50918	0.750931	0	
2.8567	-5.76734	1.35745	0	
2.8573	-0.567279	4.41894	0	
2.8580	0.97698	4.41894	0	
2.8587	-0.567279	1.96397	0	
2.8593	-0.882434	1.35745	0	
2.8600	-1.79638	0.447671	0	
2.8607	-2.39518	-0.476553	0	
2.8613	-1.48123	0.750931	0	
2.8620	-1.16607	1.66071	0	
2.8627	-0.567279	-1.08307	0	
2.8633	1.26062	-1.99286	0	
2.8640	1.89093	-0.476553	0	
2.8647	1.89093	-1.08307	0	
2.8653	3.40367	-3.22034	0	
2.8660	4.31762	-4.73664	0	
2.8667	3.71883	-5.66087	0	
2.8673	4.00247	-3.5236	0	
2.8680	3.71883	-1.08307	0	
2.8687	2.17457	-3.82686	0	
2.8693	3.08852	-5.05435	0	
2.8700	7.97342	-1.99286	0	
2.8707	10.7153	-2.29612	0	
2.8713	8.88737	-6.26739	0	
2.8720	7.68978	-6.26739	0	
2.8727	8.28858	-3.82686	0	
2.8733	8.28858	-2.91708	0	
2.8740	8.28858	-3.82686	0	
2.8747	9.51768	-4.73664	0	
2.8753	10.1165	-2.91708	0	
2.8760	10.4316	-0.158851	0	
2.8767	12.8583	-0.158851	0	
2.8773	15.0014	-1.99286	0	
2.8780	15.0014	-3.22034	0	
2.8787	15.6002	-1.38633	0	
2.8793	16.8293	1.35745	0	
2.8800	15.6002	0.750931	0	
2.8807	11.9444	-0.779813	0	
2.8813	9.51768	-0.779813	0	
2.8820	9.51768	-2.91708	0	
2.8827	11.0304	-3.82686	0	
2.8833	12.2595	-0.779813	0	
2.8840	11.0304	-1.08307	0	
2.8847	10.1165	-5.66087	0	
2.8853	12.8583	-6.57065	0	
2.8860	16.8293	-5.66087	0	
2.8867	17.4281	-8.10139	0	
2.8873	16.5141	-8.40466	0	
2.8880	17.1444	-5.66087	0	
2.8887	15.6002	-5.96413	0	
2.8893	11.9444	-6.26739	0	
2.8900	7.97342	-1.08307	0	
2.8907	1.89093	2.58494	0	
2.8913	-5.76734	-1.99286	0	
2.8920	-11.251	-5.35761	0	
2.8927	-15.5056	-2.91708	0	
2.8933	-17.3335	-1.99286	0	
2.8940	-16.4196	-3.82686	0	
2.8947	-18.279	-1.6896	0	
2.8953	-24.3615	1.66071	0	
2.8960	-28.3324	0.750931	0	
2.8967	-28.9312	3.49472	0	
2.8973	-29.2464	7.46599	0	
2.8980	-27.4185	6.54177	0	
2.8987	-25.2754	6.54177	0	
2.8993	-25.5906	8.99674	0	
2.9000	-25.2754	6.85947	0	
2.9007	-22.2184	4.41894	0	
2.9013	-17.3335	6.85947	0	
2.9020	-12.165	6.54177	0	
2.9027	-9.10798	2.28168	0	
2.9033	-9.70677	2.28168	0	
2.9040	-8.50918	5.32872	0	
2.9047	-4.53823	4.7222	0	
2.9053	-2.71033	2.8882	0	
2.9060	-3.62428	2.58494	0	
2.9067	-2.99397	1.35745	0	
2.9073	-1.79638	-0.158851	0	
2.9080	-1.48123	0.14441	0	
2.9087	0.34667	-0.158851	0	
2.9093	3.40367	-1.38633	0	
2.9100	4.63278	-1.08307	0	
2.9107	4.00247	-0.158851	0	
2.9113	4.63278	-2.29612	0	
2.9120	4.91642	-4.43338	0	
2.9127	3.40367	-1.99286	0	
2.9133	4.00247	0.14441	0	
2.9140	7.37463	-1.08307	0	
2.9147	8.60373	-1.08307	0	
2.9153	8.28858	1.05419	0	
2.9160	7.37463	-0.779813	0	
2.9167	5.83037	-2.29612	0	
2.9173	6.77583	0.750931	0	
2.9180	7.97342	1.96397	0	
2.9187	5.23157	-0.158851	0	
2.9193	2.80488	-0.476553	0	
2.9200	3.71883	-0.476553	0	
2.9207	2.80488	-0.158851	0	
2.9213	2.48972	0.750931	0	
2.9220	3.40367	-0.476553	0	
2.9227	2.80488	-1.99286	0	
2.9233	1.89093	0.14441	0	
2.9240	3.71883	0.14441	0	
2.9247	4.63278	-2.61382	0	
2.9253	2.17457	-1.99286	0	
2.9260	2.48972	0.750931	0	
2.9267	4.63278	0.14441	0	
2.9273	4.63278	-1.08307	0	
2.9280	5.23157	-1.08307	0	
2.9287	8.88737	-1.38633	0	
2.9293	12.8583	-1.99286	0	
2.9300	15.3165	-2.29612	0	
2.9307	16.5141	-2.29612	0	
2.9313	17.4281	-2.29612	0	
2.9320	18.342	-2.91708	0	
2.9327	19.2875	-3.5236	0	
2.9333	21.1154	-4.13012	0	
2.9340	22.6281	-4.43338	0	
2.9347	20.8002	-3.82686	0	
2.9353	16.8293	-2.91708	0	
2.9360	14.6862	-1.38633	0	
2.9367	11.9444	-1.08307	0	
2.9373	7.05947	-2.61382	0	
2.9380	4.63278	-1.99286	0	
2.9387	2.48972	1.05419	0	
2.9393	-4.22308	2.58494	0	
2.9400	-11.251	0.750931	0	
2.9407	-16.4196	-0.779813	0	
2.9413	-20.3905	-2.29612	0	
2.9420	-21.9348	-3.82686	0	
2.9427	-21.0208	-3.82686	0	
2.9433	-20.3905	-1.99286	0	
2.9440	-20.1069	-0.158851	0	
2.9447	-20.3905	1.35745	0	
2.9453	-21.0208	3.49472	0	
2.9460	-18.5626	3.49472	0	
2.9467	-14.9068	1.05419	0	
2.9473	-12.7638	1.35745	0	
2.9480	-9.70677	4.7222	0	
2.9487	-8.79282	4.10124	0	
2.9493	-11.8498	1.66071	0	
