0.0007	-0.865981	1.12773	0	
0.0013	2.48692	2.05042	0	
0.0020	4.92943	2.66554	0	
0.0027	2.77558	1.74286	0	
0.0033	3.39731	0.239216	0	
0.0040	5.83982	-0.0683473	0	
0.0047	3.39731	0.854341	0	
0.0053	1.26566	0.239216	0	
0.0060	3.08644	-1.91372	0	
0.0067	2.48692	-1.91372	0	
0.0073	-0.57732	-0.37591	0	
0.0080	-0.57732	-0.991036	0	
0.0087	0.643934	-3.14398	0	
0.0093	0.355274	-3.14398	0	
0.0100	0.0444093	-2.52885	0	
0.0107	-1.79858	-2.83641	0	
0.0113	-4.24108	-1.60616	0	
0.0120	-4.84061	-0.0683473	0	
0.0127	-4.24108	-0.991036	0	
0.0133	-2.70896	-2.52885	0	
0.0140	-1.17685	-2.52885	0	
0.0147	-2.3981	-1.91372	0	
0.0153	-2.08724	-0.991036	0	
0.0160	0.355274	0.239216	0	
0.0167	-1.48771	0.546778	0	
0.0173	-5.751	0.854341	0	
0.0180	-4.84061	2.66554	0	
0.0187	-5.751	2.66554	0	
0.0193	-8.19351	1.74286	0	
0.0200	-5.751	2.66554	0	
0.0207	-3.01983	2.97311	0	
0.0213	-3.93022	3.28067	0	
0.0220	-3.01983	4.51092	0	
0.0227	-1.79858	5.39944	0	
0.0233	-3.01983	4.51092	0	
0.0240	-2.70896	1.74286	0	
0.0247	-1.17685	0.239216	0	
0.0253	-3.61935	0.239216	0	
0.0260	-3.93022	0.239216	0	
0.0267	0.0444093	-0.0683473	0	
0.0273	3.99683	-0.991036	0	
0.0280	6.15068	-2.83641	0	
0.0287	9.50358	-4.64762	0	
0.0293	13.4782	-2.83641	0	
0.0300	14.0777	-1.60616	0	
0.0307	11.3244	-4.64762	0	
0.0313	9.81445	-7.41568	0	
0.0320	9.81445	-4.03249	0	
0.0327	7.97146	-0.991036	0	
0.0333	6.15068	-0.37591	0	
0.0340	3.39731	0.546778	0	
0.0347	-2.08724	0.239216	0	
0.0353	-6.37273	-1.60616	0	
0.0360	-8.50437	-0.0683473	0	
0.0367	-13.3894	4.51092	0	
0.0373	-17.6527	5.707	0	
0.0380	-16.1428	6.32212	0	
0.0387	-14.6106	8.1675	0	
0.0393	-15.521	7.85994	0	
0.0400	-13.9889	6.01456	0	
0.0407	-11.8573	6.93725	0	
0.0413	-11.2577	6.93725	0	
0.0420	-8.50437	4.51092	0	
0.0427	-3.93022	3.58823	0	
0.0433	-2.3981	2.66554	0	
0.0440	-2.3981	-0.0683473	0	
0.0447	-0.865981	-0.991036	0	
0.0453	-0.266456	-1.91372	0	
0.0460	-0.865981	-2.83641	0	
0.0467	-0.266456	-1.60616	0	
0.0473	-1.17685	-1.60616	0	
0.0480	-1.17685	-4.03249	0	
0.0487	3.39731	-3.72493	0	
0.0493	6.15068	-1.60616	0	
0.0500	0.954799	-1.91372	0	
0.0507	-0.865981	-3.14398	0	
0.0513	4.3077	-4.03249	0	
0.0520	6.75021	-4.95518	0	
0.0527	5.21809	-3.72493	0	
0.0533	7.06107	-2.83641	0	
0.0540	11.0357	-4.64762	0	
0.0547	13.7669	-4.34005	0	
0.0553	14.6995	-1.60616	0	
0.0560	15.299	-1.60616	0	
0.0567	15.6099	-3.72493	0	
0.0573	13.7669	-4.64762	0	
0.0580	10.1031	-5.26274	0	
0.0587	7.97146	-3.72493	0	
0.0593	6.43934	-0.991036	0	
0.0600	3.39731	-0.991036	0	
0.0607	1.57653	-2.52885	0	
0.0613	0.355274	-2.52885	0	
0.0620	-2.08724	-2.52885	0	
0.0627	-4.52974	-1.91372	0	
0.0633	-5.751	1.12773	0	
0.0640	-7.59398	3.8958	0	
0.0647	-8.81524	3.58823	0	
0.0653	-8.81524	2.35798	0	
0.0660	-11.5464	1.12773	0	
0.0667	-13.0785	-0.991036	0	
0.0673	-11.8573	-1.91372	0	
0.0680	-10.636	-0.991036	0	
0.0687	-9.72563	-0.37591	0	
0.0693	-6.68359	0.854341	0	
0.0700	-5.15147	3.58823	0	
0.0707	-4.84061	4.20336	0	
0.0713	-2.3981	2.35798	0	
0.0720	-1.17685	3.8958	0	
0.0727	-3.30849	5.707	0	
0.0733	-4.84061	2.97311	0	
0.0740	-3.01983	1.74286	0	
0.0747	-1.48771	3.58823	0	
0.0753	-2.08724	2.66554	0	
0.0760	-0.266456	0.546778	0	
0.0767	1.86519	1.12773	0	
0.0773	0.954799	2.05042	0	
0.0780	-0.865981	1.74286	0	
0.0787	0.954799	0.854341	0	
0.0793	2.48692	1.12773	0	
0.0800	0.643934	1.74286	0	
0.0807	-1.17685	1.43529	0	
0.0813	-0.865981	-0.0683473	0	
0.0820	0.643934	-1.60616	0	
0.0827	1.26566	-1.91372	0	
0.0833	1.26566	-0.37591	0	
0.0840	1.26566	1.74286	0	
0.0847	1.57653	0.239216	0	
0.0853	2.77558	-1.91372	0	
0.0860	4.61856	-1.60616	0	
0.0867	5.83982	-2.52885	0	
0.0873	5.21809	-3.72493	0	
0.0880	4.92943	-3.45154	0	
0.0887	6.75021	-3.72493	0	
0.0893	9.81445	-5.87787	0	
0.0900	13.1673	-6.49299	0	
0.0907	13.4782	-6.18543	0	
0.0913	10.7248	-5.26274	0	
0.0920	10.414	-3.72493	0	
0.0927	13.4782	-4.64762	0	
0.0933	13.4782	-6.49299	0	
0.0940	11.6352	-4.64762	0	
0.0947	11.0357	-2.22129	0	
0.0953	8.59319	-0.991036	0	
0.0960	4.3077	-0.0683473	0	
0.0967	2.48692	-0.991036	0	
0.0973	2.17605	-3.14398	0	
0.0980	4.3077	-2.83641	0	
0.0987	9.81445	-1.60616	0	
0.0993	11.6352	-1.91372	0	
0.1000	9.81445	-0.991036	0	
0.1007	9.19272	1.43529	0	
0.1013	8.59319	1.74286	0	
0.1020	5.21809	0.854341	0	
0.1027	3.39731	0.239216	0	
0.1033	3.08644	-0.37591	0	
0.1040	2.48692	-0.0683473	0	
0.1047	0.954799	0.854341	0	
0.1053	-1.48771	0.854341	0	
0.1060	-5.46234	-0.0683473	0	
0.1067	-6.68359	1.12773	0	
0.1073	-7.90485	3.8958	0	
0.1080	-12.1681	3.8958	0	
0.1087	-14.9215	1.12773	0	
0.1093	-13.3894	1.74286	0	
0.1100	-10.3252	2.35798	0	
0.1107	-8.50437	0.239216	0	
0.1113	-10.3252	0.239216	0	
0.1120	-13.9889	1.12773	0	
0.1127	-13.3894	-2.22129	0	
0.1133	-9.72563	-5.26274	0	
0.1140	-9.1261	-5.26274	0	
0.1147	-8.50437	-4.64762	0	
0.1153	-6.06186	-2.83641	0	
0.1160	-7.59398	0.239216	0	
0.1167	-10.9469	-0.991036	0	
0.1173	-10.0365	-1.91372	0	
0.1180	-8.81524	0.546778	0	
0.1187	-11.2577	1.74286	0	
0.1193	-13.9889	1.74286	0	
0.1200	-16.1428	2.05042	0	
0.1207	-15.8319	-0.0683473	0	
0.1213	-14.2998	-1.91372	0	
0.1220	-14.9215	1.74286	0	
0.1227	-15.2102	4.20336	0	
0.1233	-13.0785	1.43529	0	
0.1240	-10.636	-0.37591	0	
0.1247	-8.50437	0.854341	0	
0.1253	-4.84061	0.854341	0	
0.1260	-3.61935	0.854341	0	
0.1267	-3.01983	2.97311	0	
0.1273	1.57653	2.05042	0	
0.1280	7.97146	-1.2986	0	
0.1287	14.3886	-0.683473	0	
0.1293	19.8731	2.66554	0	
0.1300	20.7835	1.43529	0	
0.1307	18.9628	-1.91372	0	
0.1313	18.0524	-0.991036	0	
0.1320	17.4306	0.546778	0	
0.1327	16.2094	-1.2986	0	
0.1333	17.4306	-4.34005	0	
0.1340	19.8731	-4.64762	0	
0.1347	19.5623	-3.72493	0	
0.1353	16.2094	-3.72493	0	
0.1360	12.8565	-4.34005	0	
0.1367	11.6352	-3.14398	0	
0.1373	8.59319	0.546778	0	
0.1380	2.77558	2.66554	0	
0.1387	0.355274	2.66554	0	
0.1393	-2.70896	2.35798	0	
0.1400	-10.0365	1.74286	0	
0.1407	-13.0785	0.854341	0	
0.1413	-10.636	1.43529	0	
0.1420	-14.6106	2.97311	0	
0.1427	-22.8486	3.8958	0	
0.1433	-24.9802	4.51092	0	
0.1440	-21.6273	3.58823	0	
0.1447	-17.9635	1.74286	0	
0.1453	-16.1428	1.74286	0	
0.1460	-16.7423	3.58823	0	
0.1467	-16.1428	1.74286	0	
0.1473	-13.0785	-1.91372	0	
0.1480	-10.636	-0.37591	0	
0.1487	-8.81524	3.58823	0	
0.1493	-6.68359	2.66554	0	
0.1500	-4.84061	-0.0683473	0	
0.1507	-3.01983	1.74286	0	
0.1513	-1.17685	3.8958	0	
0.1520	-0.266456	1.74286	0	
0.1527	-0.865981	-0.37591	0	
0.1533	-3.61935	-0.683473	0	
0.1540	-5.751	-1.91372	0	
0.1547	-4.84061	-1.91372	0	
0.1553	-5.46234	0.546778	0	
0.1560	-6.68359	1.12773	0	
0.1567	-3.61935	-0.683473	0	
0.1573	-0.57732	-0.991036	0	
0.1580	-1.17685	-0.37591	0	
0.1587	0.0444093	-0.0683473	0	
0.1593	2.48692	1.74286	0	
0.1600	3.99683	1.43529	0	
0.1607	6.75021	-1.91372	0	
0.1613	11.0357	-2.83641	0	
0.1620	14.3886	0.546778	0	
0.1627	15.299	2.97311	0	
0.1633	15.8985	2.05042	0	
0.1640	20.184	0.854341	0	
0.1647	25.6686	0.854341	0	
0.1653	23.226	-0.991036	0	
0.1660	16.5202	-4.03249	0	
0.1667	15.6099	-3.72493	0	
0.1673	14.0777	-1.91372	0	
0.1680	7.97146	-4.64762	0	
0.1687	6.15068	-6.49299	0	
0.1693	8.88185	-4.03249	0	
0.1700	8.88185	-4.64762	0	
0.1707	7.6606	-7.41568	0	
0.1713	9.81445	-7.72324	0	
0.1720	14.6995	-8.61176	0	
0.1727	18.6519	-9.53445	0	
0.1733	19.5623	-7.41568	0	
0.1740	19.2736	-6.80056	0	
0.1747	19.8731	-6.49299	0	
0.1753	18.341	-3.72493	0	
0.1760	14.3886	-1.60616	0	
0.1767	10.1031	-1.60616	0	
0.1773	5.21809	-0.991036	0	
0.1780	-1.17685	1.12773	0	
0.1787	-7.59398	3.8958	0	
0.1793	-13.0785	6.32212	0	
0.1800	-17.6527	7.24481	0	
0.1807	-22.2268	7.55238	0	
0.1813	-26.2015	6.62969	0	
0.1820	-27.7336	4.51092	0	
0.1827	-28.0444	4.51092	0	
0.1833	-33.2181	6.62969	0	
0.1840	-39.9461	7.24481	0	
0.1847	-38.7249	5.12605	0	
0.1853	-32.3077	3.58823	0	
0.1860	-31.0865	4.51092	0	
0.1867	-28.9548	4.51092	0	
0.1873	-20.7169	0.546778	0	
0.1880	-12.479	-1.60616	0	
0.1887	-8.50437	1.12773	0	
0.1893	-3.93022	2.05042	0	
0.1900	0.643934	0.546778	0	
0.1907	1.26566	1.74286	0	
0.1913	0.643934	2.66554	0	
0.1920	4.61856	-1.2986	0	
0.1927	10.7248	-4.03249	0	
0.1933	14.3886	-3.14398	0	
0.1940	16.5202	-1.91372	0	
0.1947	16.8311	-2.22129	0	
0.1953	15.299	-1.60616	0	
0.1960	14.3886	1.43529	0	
0.1967	12.257	3.58823	0	
0.1973	8.88185	3.28067	0	
0.1980	8.28233	1.74286	0	
0.1987	10.7248	0.854341	0	
0.1993	11.6352	0.546778	0	
0.2000	13.4782	-0.991036	0	
0.2007	17.1198	-4.64762	0	
0.2013	19.8731	-7.41568	0	
0.2020	24.4473	-7.10812	0	
0.2027	29.954	-7.41568	0	
0.2033	32.9961	-8.91932	0	
0.2040	33.9065	-7.72324	0	
0.2047	32.9961	-5.5703	0	
0.2053	29.0215	-6.49299	0	
0.2060	23.8478	-6.18543	0	
0.2067	18.341	-4.34005	0	
0.2073	11.6352	-4.95518	0	
0.2080	4.3077	-4.64762	0	
0.2087	-4.84061	-0.0683473	0	
0.2093	-14.6106	3.8958	0	
0.2100	-21.3164	4.51092	0	
0.2107	-27.4227	6.32212	0	
0.2113	-36.571	9.39775	0	
0.2120	-43.6099	10.2863	0	
0.2127	-45.1198	10.9014	0	
0.2133	-45.1198	11.8241	0	
0.2140	-45.4307	11.209	0	
0.2147	-45.1198	10.9014	0	
0.2153	-42.0778	13.0543	0	
0.2160	-35.3498	12.7468	0	
0.2167	-28.9548	9.09019	0	
0.2173	-26.8232	7.55238	0	
0.2180	-24.3807	7.24481	0	
0.2187	-15.521	5.707	0	
0.2193	-6.68359	5.39944	0	
0.2200	-3.01983	5.707	0	
0.2207	0.355274	2.05042	0	
0.2213	4.3077	-0.683473	0	
0.2220	3.99683	1.43529	0	
0.2227	2.48692	2.66554	0	
0.2233	4.61856	0.239216	0	
0.2240	8.28233	-1.91372	0	
0.2247	10.1031	-0.991036	0	
0.2253	10.1031	0.239216	0	
0.2260	9.19272	-0.0683473	0	
0.2267	7.6606	-1.91372	0	
0.2273	7.6606	-3.14398	0	
0.2280	9.50358	-2.83641	0	
0.2287	7.97146	-2.83641	0	
0.2293	2.48692	-3.72493	0	
0.2300	0.355274	-3.72493	0	
0.2307	0.643934	-1.91372	0	
0.2313	0.355274	-0.0683473	0	
0.2320	2.48692	-0.991036	0	
0.2327	7.06107	-2.22129	0	
0.2333	8.59319	-3.72493	0	
0.2340	9.81445	-5.5703	0	
0.2347	14.6995	-4.95518	0	
0.2353	15.8985	-2.83641	0	
0.2360	12.257	-2.22129	0	
0.2367	10.7248	-2.22129	0	
0.2373	9.81445	-1.91372	0	
0.2380	7.06107	-0.991036	0	
0.2387	6.15068	0.239216	0	
0.2393	6.75021	-0.683473	0	
0.2400	6.15068	-3.72493	0	
0.2407	7.06107	-4.95518	0	
0.2413	9.81445	-4.64762	0	
0.2420	8.88185	-3.72493	0	
0.2427	5.52895	-2.52885	0	
0.2433	3.99683	-2.22129	0	
0.2440	2.17605	-3.72493	0	
0.2447	0.643934	-2.83641	0	
0.2453	2.48692	-2.52885	0	
0.2460	2.77558	-4.03249	0	
0.2467	0.355274	-6.49299	0	
0.2473	-0.266456	-6.80056	0	
0.2480	1.57653	-5.87787	0	
0.2487	1.57653	-4.34005	0	
0.2493	-0.266456	-4.64762	0	
0.2500	-2.08724	-5.26274	0	
0.2507	-3.01983	-1.2986	0	
0.2513	-4.52974	2.97311	0	
0.2520	-10.3252	0.854341	0	
0.2527	-15.8319	-1.91372	0	
0.2533	-13.3894	-1.2986	0	
0.2540	-9.41476	-0.991036	0	
0.2547	-12.1681	-0.683473	0	
0.2553	-14.9215	1.43529	0	
0.2560	-13.3894	2.66554	0	
0.2567	-12.1681	3.8958	0	
0.2573	-10.636	6.01456	0	
0.2580	-6.68359	5.39944	0	
0.2587	-2.70896	4.51092	0	
0.2593	-0.57732	3.58823	0	
0.2600	0.643934	1.43529	0	
0.2607	2.48692	0.239216	0	
0.2613	5.21809	0.239216	0	
0.2620	7.6606	-1.2986	0	
0.2627	10.7248	-1.91372	0	
0.2633	15.6099	-0.0683473	0	
0.2640	18.0524	0.546778	0	
0.2647	17.1198	-0.37591	0	
0.2653	16.2094	-2.52885	0	
0.2660	15.299	-4.95518	0	
0.2667	13.1673	-4.95518	0	
0.2673	11.3244	-3.72493	0	
0.2680	9.81445	-4.64762	0	
0.2687	7.97146	-4.95518	0	
0.2693	5.21809	-3.72493	0	
0.2700	2.48692	-3.72493	0	
0.2707	-0.865981	-2.83641	0	
0.2713	-2.70896	-1.2986	0	
0.2720	-1.48771	-2.83641	0	
0.2727	-0.266456	-3.72493	0	
0.2733	-1.17685	-2.22129	0	
0.2740	-1.48771	-2.52885	0	
0.2747	-0.865981	-2.22129	0	
0.2753	0.0444093	1.43529	0	
0.2760	1.26566	3.8958	0	
0.2767	0.355274	3.28067	0	
0.2773	-2.70896	2.66554	0	
0.2780	-5.15147	-0.0683473	0	
0.2787	-6.37273	-3.45154	0	
0.2793	-7.59398	-3.72493	0	
0.2800	-7.28312	-2.52885	0	
0.2807	-5.15147	-2.83641	0	
0.2813	-5.46234	-0.0683473	0	
0.2820	-6.68359	3.8958	0	
0.2827	-7.59398	3.58823	0	
0.2833	-8.81524	1.12773	0	
0.2840	-8.50437	2.97311	0	
0.2847	-5.46234	2.97311	0	
0.2853	-4.52974	-0.991036	0	
0.2860	-4.52974	-1.60616	0	
0.2867	-3.93022	1.74286	0	
0.2873	-3.93022	2.35798	0	
0.2880	-2.08724	-0.683473	0	
0.2887	1.86519	-2.52885	0	
0.2893	2.48692	-1.91372	0	
0.2900	1.26566	-1.91372	0	
0.2907	3.08644	-4.34005	0	
0.2913	6.15068	-7.10812	0	
0.2920	9.50358	-6.49299	0	
0.2927	11.9461	-4.34005	0	
0.2933	11.3244	-3.45154	0	
0.2940	10.7248	-3.14398	0	
0.2947	11.3244	-3.72493	0	
0.2953	8.59319	-3.72493	0	
0.2960	7.37194	-2.83641	0	
0.2967	9.19272	-0.683473	0	
0.2973	5.21809	0.854341	0	
0.2980	0.0444093	0.854341	0	
0.2987	0.643934	1.74286	0	
0.2993	-0.266456	3.58823	0	
0.3000	-3.93022	4.51092	0	
0.3007	-5.15147	4.81848	0	
0.3013	-5.751	5.39944	0	
0.3020	-7.90485	4.81848	0	
0.3027	-9.41476	2.66554	0	
0.3033	-9.72563	2.97311	0	
0.3040	-10.636	3.58823	0	
0.3047	-11.2577	0.546778	0	
0.3053	-9.72563	-1.2986	0	
0.3060	-8.50437	2.05042	0	
0.3067	-8.50437	2.35798	0	
0.3073	-4.84061	-1.2986	0	
0.3080	1.26566	-0.683473	0	
0.3087	3.39731	1.74286	0	
0.3093	3.70817	-0.0683473	0	
0.3100	5.52895	-1.60616	0	
0.3107	4.92943	-0.0683473	0	
0.3113	2.77558	1.74286	0	
0.3120	3.39731	-0.0683473	0	
0.3127	2.48692	-1.91372	0	
0.3133	0.643934	-1.60616	0	
0.3140	-0.266456	-0.37591	0	
0.3147	-2.3981	-2.22129	0	
0.3153	-4.52974	-2.83641	0	
0.3160	-2.3981	-0.0683473	0	
0.3167	-1.48771	-0.0683473	0	
0.3173	-1.79858	-1.91372	0	
0.3180	2.48692	-0.683473	0	
0.3187	7.6606	0.239216	0	
0.3193	8.59319	-0.991036	0	
0.3200	9.81445	-1.60616	0	
0.3207	8.88185	-2.22129	0	
0.3213	5.83982	-1.60616	0	
0.3220	5.21809	1.12773	0	
0.3227	7.06107	0.546778	0	
0.3233	6.15068	-3.72493	0	
0.3240	3.39731	-3.72493	0	
0.3247	2.17605	-1.60616	0	
0.3253	1.57653	-1.60616	0	
0.3260	0.954799	-1.91372	0	
0.3267	-1.17685	-1.60616	0	
0.3273	-3.93022	-2.52885	0	
0.3280	-6.06186	-3.72493	0	
0.3287	-8.19351	-3.72493	0	
0.3293	-9.41476	-2.52885	0	
0.3300	-9.1261	-1.2986	0	
0.3307	-7.90485	0.546778	0	
0.3313	-8.50437	2.35798	0	
0.3320	-9.41476	1.74286	0	
0.3327	-6.37273	0.854341	0	
0.3333	-1.17685	1.74286	0	
0.3340	0.0444093	2.66554	0	
0.3347	-0.266456	2.35798	0	
0.3353	2.48692	2.66554	0	
0.3360	4.61856	3.58823	0	
0.3367	2.48692	3.58823	0	
0.3373	1.57653	2.97311	0	
0.3380	0.643934	2.05042	0	
0.3387	-2.70896	2.66554	0	
0.3393	-4.52974	3.58823	0	
0.3400	-4.84061	3.58823	0	
0.3407	-7.28312	3.8958	0	
0.3413	-8.19351	3.8958	0	
0.3420	-5.46234	1.74286	0	
0.3427	-3.01983	1.43529	0	
0.3433	-3.93022	2.05042	0	
0.3440	-4.84061	0.854341	0	
0.3447	-3.01983	-0.0683473	0	
0.3453	-1.17685	-0.0683473	0	
0.3460	-0.865981	-1.60616	0	
0.3467	1.26566	-2.22129	0	
0.3473	4.3077	-0.37591	0	
0.3480	3.99683	0.239216	0	
0.3487	1.57653	-1.2986	0	
0.3493	1.26566	-0.991036	0	
0.3500	1.26566	0.854341	0	
0.3507	1.26566	-0.0683473	0	
0.3513	2.48692	-2.52885	0	
0.3520	2.77558	-0.683473	0	
0.3527	2.17605	2.66554	0	
0.3533	0.643934	1.12773	0	
0.3540	-1.17685	-0.683473	0	
0.3547	-1.79858	1.74286	0	
0.3553	-1.48771	3.58823	0	
0.3560	-3.93022	4.81848	0	
0.3567	-6.37273	6.32212	0	
0.3573	-3.93022	3.58823	0	
0.3580	1.86519	0.854341	0	
0.3587	5.52895	2.66554	0	
0.3593	8.88185	2.66554	0	
0.3600	16.2094	-0.683473	0	
0.3607	21.7161	-1.60616	0	
0.3613	19.8731	-1.91372	0	
0.3620	18.9628	-3.45154	0	
0.3627	20.184	-1.60616	0	
0.3633	17.1198	0.854341	0	
0.3640	12.257	-0.991036	0	
0.3647	8.88185	-1.60616	0	
0.3653	2.48692	-0.0683473	0	
0.3660	-3.93022	-0.991036	0	
0.3667	-8.50437	-1.91372	0	
0.3673	-12.479	0.239216	0	
0.3680	-15.8319	1.12773	0	
0.3687	-17.364	-0.0683473	0	
0.3693	-19.4957	-0.991036	0	
0.3700	-20.0952	-0.37591	0	
0.3707	-16.4314	0.546778	0	
0.3713	-13.0785	0.854341	0	
0.3720	-12.1681	-0.683473	0	
0.3727	-11.2577	-2.52885	0	
0.3733	-10.0365	-3.14398	0	
0.3740	-6.97225	-2.83641	0	
0.3747	-3.61935	-2.83641	0	
0.3753	-2.70896	-1.91372	0	
0.3760	-3.30849	-0.0683473	0	
0.3767	-3.01983	1.12773	0	
0.3773	0.954799	-0.0683473	0	
0.3780	6.15068	0.546778	0	
0.3787	7.06107	1.12773	0	
0.3793	3.08644	-1.2986	0	
0.3800	-1.48771	-3.45154	0	
0.3807	-5.15147	-2.22129	0	
0.3813	-6.37273	-0.0683473	0	
0.3820	-4.84061	2.05042	0	
0.3827	-5.751	3.58823	0	
0.3833	-8.81524	0.854341	0	
0.3840	-9.72563	-0.37591	0	
0.3847	-9.41476	2.05042	0	
0.3853	-11.2577	-0.0683473	0	
0.3860	-10.3252	-4.03249	0	
0.3867	-8.50437	-3.14398	0	
0.3873	-8.50437	-1.60616	0	
0.3880	-6.06186	-2.83641	0	
0.3887	-3.01983	-2.83641	0	
0.3893	-6.97225	-1.60616	0	
0.3900	-11.2577	-1.60616	0	
0.3907	-6.97225	0.854341	0	
0.3913	-2.3981	3.28067	0	
0.3920	-2.70896	2.35798	0	
0.3927	-1.17685	0.854341	0	
0.3933	2.48692	0.546778	0	
0.3940	2.48692	-0.991036	0	
0.3947	3.70817	-3.14398	0	
0.3953	7.97146	-1.91372	0	
0.3960	9.50358	0.854341	0	
0.3967	7.97146	-0.0683473	0	
0.3973	9.19272	-1.91372	0	
0.3980	11.3244	0.854341	0	
0.3987	10.7248	2.35798	0	
0.3993	7.37194	-0.683473	0	
0.4000	4.61856	0.546778	0	
0.4007	3.39731	3.58823	0	
0.4013	2.48692	2.35798	0	
0.4020	1.86519	2.66554	0	
0.4027	2.48692	4.51092	0	
0.4033	2.48692	1.12773	0	
0.4040	2.17605	-0.991036	0	
0.4047	2.77558	0.854341	0	
0.4053	1.86519	0.854341	0	
0.4060	0.643934	-0.991036	0	
0.4067	3.99683	-0.991036	0	
0.4073	7.6606	-0.37591	0	
0.4080	7.97146	0.854341	0	
0.4087	8.88185	-0.37591	0	
0.4093	11.0357	-4.34005	0	
0.4100	12.257	-5.26274	0	
0.4107	13.7669	-3.14398	0	
0.4113	14.3886	-3.72493	0	
0.4120	13.1673	-3.72493	0	
0.4127	12.257	-2.22129	0	
0.4133	7.97146	-2.83641	0	
0.4140	1.86519	-3.14398	0	
0.4147	-0.266456	-1.60616	0	
0.4153	-0.266456	-0.0683473	0	
0.4160	-0.57732	0.546778	0	
0.4167	1.26566	-0.0683473	0	
0.4173	3.39731	-2.52885	0	
0.4180	4.3077	-4.64762	0	
0.4187	5.52895	-4.95518	0	
0.4193	5.83982	-4.64762	0	
0.4200	3.99683	-4.03249	0	
0.4207	2.48692	-2.83641	0	
0.4213	0.0444093	-2.83641	0	
0.4220	-3.61935	-4.03249	0	
0.4227	-5.46234	-3.14398	0	
0.4233	-4.84061	-0.37591	0	
0.4240	-4.52974	-1.60616	0	
0.4247	-4.24108	-3.45154	0	
0.4253	-6.68359	-1.91372	0	
0.4260	-12.1681	-1.2986	0	
0.4267	-15.2102	-2.22129	0	
0.4273	-12.7677	0.239216	0	
0.4280	-10.9469	4.81848	0	
0.4287	-13.9889	6.62969	0	
0.4293	-16.4314	6.32212	0	
0.4300	-13.0785	7.24481	0	
0.4307	-8.19351	9.9787	0	
0.4313	-4.84061	11.209	0	
0.4320	-2.3981	8.1675	0	
0.4327	-0.266456	6.62969	0	
0.4333	2.77558	7.55238	0	
0.4340	4.61856	4.20336	0	
0.4347	2.17605	-0.0683473	0	
0.4353	0.643934	1.12773	0	
0.4360	3.70817	1.43529	0	
0.4367	2.48692	-0.37591	0	
0.4373	-1.17685	0.546778	0	
0.4380	0.954799	0.546778	0	
0.4387	4.92943	-2.52885	0	
0.4393	3.39731	-1.91372	0	
0.4400	0.643934	-0.683473	0	
0.4407	-0.266456	-3.72493	0	
0.4413	-3.01983	-5.87787	0	
0.4420	-5.751	-3.45154	0	
0.4427	-6.97225	-0.0683473	0	
0.4433	-8.50437	0.854341	0	
0.4440	-8.19351	0.239216	0	
0.4447	-4.24108	-0.991036	0	
0.4453	-1.79858	-1.91372	0	
0.4460	-1.48771	-0.0683473	0	
0.4467	0.355274	2.66554	0	
0.4473	3.08644	0.854341	0	
0.4480	5.21809	-1.2986	0	
0.4487	6.75021	1.12773	0	
0.4493	6.15068	2.66554	0	
0.4500	3.99683	-0.991036	0	
0.4507	3.39731	-2.83641	0	
0.4513	4.61856	-0.683473	0	
0.4520	2.48692	-0.0683473	0	
0.4527	0.355274	0.854341	0	
0.4533	0.954799	3.28067	0	
0.4540	1.26566	2.97311	0	
0.4547	-1.79858	1.74286	0	
0.4553	-3.30849	3.28067	0	
0.4560	-3.01983	5.39944	0	
0.4567	-3.93022	4.51092	0	
0.4573	-6.06186	2.66554	0	
0.4580	-6.68359	0.854341	0	
0.4587	-5.15147	0.239216	0	
0.4593	-3.30849	-1.91372	0	
0.4600	0.355274	-4.95518	0	
0.4607	5.83982	-6.18543	0	
0.4613	9.81445	-6.49299	0	
0.4620	9.81445	-7.41568	0	
0.4627	7.97146	-6.49299	0	
0.4633	6.75021	-4.34005	0	
0.4640	7.37194	-3.72493	0	
0.4647	8.28233	-5.5703	0	
0.4653	8.88185	-6.80056	0	
0.4660	8.88185	-6.18543	0	
0.4667	10.7248	-4.64762	0	
0.4673	12.5456	-3.72493	0	
0.4680	11.0357	-2.52885	0	
0.4687	10.414	-2.22129	0	
0.4693	11.3244	-3.72493	0	
0.4700	6.75021	-3.45154	0	
0.4707	-0.57732	-0.37591	0	
0.4713	-2.70896	1.12773	0	
0.4720	-2.08724	0.546778	0	
0.4727	-4.84061	1.43529	0	
0.4733	-6.68359	3.28067	0	
0.4740	-4.24108	3.58823	0	
0.4747	-3.93022	4.20336	0	
0.4753	-8.50437	4.51092	0	
0.4760	-11.8573	3.8958	0	
0.4767	-12.1681	6.32212	0	
0.4773	-15.2102	8.1675	0	
0.4780	-19.8065	5.39944	0	
0.4787	-17.6527	3.28067	0	
0.4793	-12.1681	5.39944	0	
0.4800	-10.9469	4.81848	0	
0.4807	-10.636	1.74286	0	
0.4813	-5.751	1.74286	0	
0.4820	-1.17685	1.74286	0	
0.4827	-0.266456	1.12773	0	
0.4833	0.355274	2.35798	0	
0.4840	1.86519	1.43529	0	
0.4847	2.77558	0.546778	0	
0.4853	3.39731	1.74286	0	
0.4860	3.99683	-1.91372	0	
0.4867	3.70817	-7.10812	0	
0.4873	5.21809	-2.83641	0	
0.4880	10.7248	1.12773	0	
0.4887	15.299	-1.91372	0	
0.4893	17.1198	-3.14398	0	
0.4900	18.9628	-3.45154	0	
0.4907	19.2736	-6.49299	0	
0.4913	15.8985	-4.95518	0	
0.4920	14.3886	-2.22129	0	
0.4927	14.9881	-6.80056	0	
0.4933	11.3244	-10.1496	0	
0.4940	6.43934	-6.80056	0	
0.4947	3.70817	-4.64762	0	
0.4953	1.26566	-4.64762	0	
0.4960	-3.30849	-3.14398	0	
0.4967	-7.59398	-2.52885	0	
0.4973	-11.2577	-2.22129	0	
0.4980	-13.7003	-2.22129	0	
0.4987	-14.9215	-1.91372	0	
0.4993	-16.7423	0.854341	0	
0.5000	-20.4061	4.51092	0	
0.5007	-21.9382	4.20336	0	
0.5013	-17.6527	2.05042	0	
0.5020	-14.2998	1.74286	0	
0.5027	-15.8319	3.58823	0	
0.5033	-13.9889	5.707	0	
0.5040	-9.41476	6.01456	0	
0.5047	-9.1261	4.81848	0	
0.5053	-9.1261	4.81848	0	
0.5060	-5.15147	5.707	0	
0.5067	-1.17685	5.39944	0	
0.5073	1.26566	3.8958	0	
0.5080	2.17605	2.35798	0	
0.5087	3.39731	-0.0683473	0	
0.5093	8.88185	-0.37591	0	
0.5100	11.6352	2.05042	0	
0.5107	8.59319	2.66554	0	
0.5113	7.6606	1.43529	0	
0.5120	11.0357	1.74286	0	
0.5127	10.7248	2.05042	0	
0.5133	10.1031	-0.0683473	0	
0.5140	11.6352	-0.0683473	0	
0.5147	8.28233	3.28067	0	
0.5153	2.48692	4.81848	0	
0.5160	1.57653	4.51092	0	
0.5167	1.26566	4.20336	0	
0.5173	-4.24108	2.35798	0	
0.5180	-8.81524	-0.991036	0	
0.5187	-10.3252	-0.37591	0	
0.5193	-9.41476	1.74286	0	
0.5200	-6.68359	1.43529	0	
0.5207	-4.84061	-0.0683473	0	
0.5213	-4.52974	-0.0683473	0	
0.5220	-1.79858	-0.683473	0	
0.5227	0.954799	-0.991036	0	
0.5233	1.86519	1.12773	0	
0.5240	4.3077	1.12773	0	
0.5247	7.97146	-2.52885	0	
0.5253	10.7248	-3.72493	0	
0.5260	15.299	-3.45154	0	
0.5267	17.4306	-5.5703	0	
0.5273	15.6099	-7.41568	0	
0.5280	14.3886	-4.64762	0	
0.5287	14.3886	-4.64762	0	
0.5293	12.5456	-7.72324	0	
0.5300	9.81445	-5.26274	0	
0.5307	5.83982	-0.991036	0	
0.5313	2.17605	-2.83641	0	
0.5320	-0.266456	-6.49299	0	
0.5327	-2.3981	-5.26274	0	
0.5333	-5.751	-2.83641	0	
0.5340	-8.50437	-2.83641	0	
0.5347	-12.1681	-2.22129	0	
0.5353	-15.8319	0.854341	0	
0.5360	-16.7423	3.8958	0	
0.5367	-15.521	4.20336	0	
0.5373	-14.9215	2.35798	0	
0.5380	-16.7423	2.97311	0	
0.5387	-18.2744	6.01456	0	
0.5393	-17.364	7.85994	0	
0.5400	-16.4314	8.1675	0	
0.5407	-13.7003	8.78263	0	
0.5413	-8.19351	7.55238	0	
0.5420	-5.46234	5.707	0	
0.5427	-5.751	4.81848	0	
0.5433	-3.30849	2.35798	0	
0.5440	-2.3981	-0.0683473	0	
0.5447	-4.84061	0.854341	0	
0.5453	-4.24108	1.74286	0	
0.5460	-1.17685	0.854341	0	
0.5467	-2.08724	-0.991036	0	
0.5473	-2.08724	-3.14398	0	
0.5480	0.0444093	-5.26274	0	
0.5487	1.57653	-3.72493	0	
0.5493	2.48692	-2.22129	0	
0.5500	4.92943	-2.83641	0	
0.5507	6.15068	-2.52885	0	
0.5513	8.59319	-2.52885	0	
0.5520	11.6352	-5.26274	0	
0.5527	12.5456	-6.49299	0	
0.5533	14.3886	-5.5703	0	
0.5540	20.184	-7.41568	0	
0.5547	24.4473	-9.22688	0	
0.5553	24.1586	-8.3042	0	
0.5560	24.4473	-6.49299	0	
0.5567	25.6686	-5.26274	0	
0.5573	24.1586	-5.26274	0	
0.5580	20.4949	-4.95518	0	
0.5587	15.8985	-2.22129	0	
0.5593	10.1031	-0.37591	0	
0.5600	4.3077	-1.91372	0	
0.5607	0.355274	-1.60616	0	
0.5613	-3.61935	1.12773	0	
0.5620	-10.3252	1.74286	0	
0.5627	-18.2744	1.74286	0	
0.5633	-22.2268	3.58823	0	
0.5640	-24.0698	5.707	0	
0.5647	-27.7336	3.8958	0	
0.5653	-27.7336	0.239216	0	
0.5660	-21.6273	0.239216	0	
0.5667	-13.0785	2.97311	0	
0.5673	-5.15147	3.58823	0	
0.5680	-1.17685	2.35798	0	
0.5687	-0.57732	3.28067	0	
0.5693	1.26566	3.58823	0	
0.5700	4.3077	0.854341	0	
0.5707	6.43934	0.854341	0	
0.5713	7.97146	2.97311	0	
0.5720	7.37194	1.74286	0	
0.5727	4.3077	-0.37591	0	
0.5733	2.77558	0.854341	0	
0.5740	2.48692	2.66554	0	
0.5747	1.26566	2.05042	0	
0.5753	0.0444093	3.28067	0	
0.5760	-1.79858	4.51092	0	
0.5767	-5.751	2.05042	0	
0.5773	-8.50437	-0.0683473	0	
0.5780	-9.41476	1.12773	0	
0.5787	-12.479	2.66554	0	
0.5793	-14.9215	1.74286	0	
0.5800	-11.8573	2.05042	0	
0.5807	-5.46234	4.51092	0	
0.5813	0.643934	4.20336	0	
0.5820	4.3077	1.12773	0	
0.5827	5.52895	0.239216	0	
0.5833	7.06107	1.74286	0	
0.5840	7.06107	-0.0683473	0	
0.5847	2.48692	-2.52885	0	
0.5853	-0.865981	-0.991036	0	
0.5860	-2.3981	0.854341	0	
0.5867	-6.37273	-1.60616	0	
0.5873	-10.636	-3.45154	0	
0.5880	-11.2577	-1.60616	0	
0.5887	-11.8573	-1.91372	0	
0.5893	-11.2577	-3.72493	0	
0.5900	-7.28312	-3.72493	0	
0.5907	-6.06186	-3.14398	0	
0.5913	-8.50437	-3.72493	0	
0.5920	-8.50437	-0.991036	0	
0.5927	-7.59398	3.28067	0	
0.5933	-8.19351	2.05042	0	
0.5940	-7.28312	-1.60616	0	
0.5947	-7.28312	-1.91372	0	
0.5953	-9.41476	-0.0683473	0	
0.5960	-7.90485	-0.991036	0	
0.5967	-6.68359	-2.83641	0	
0.5973	-8.19351	-0.683473	0	
0.5980	-4.84061	2.05042	0	
0.5987	0.643934	1.43529	0	
0.5993	-0.865981	1.43529	0	
0.6000	-2.08724	3.8958	0	
0.6007	2.48692	3.58823	0	
0.6013	5.83982	0.854341	0	
0.6020	4.3077	0.854341	0	
0.6027	6.15068	2.05042	0	
0.6033	10.414	0.854341	0	
0.6040	10.1031	-2.52885	0	
0.6047	8.88185	-3.72493	0	
0.6053	11.0357	-1.91372	0	
0.6060	11.6352	-1.91372	0	
0.6067	11.6352	-6.18543	0	
0.6073	15.6099	-7.99663	0	
0.6080	16.8311	-4.95518	0	
0.6087	11.6352	-4.03249	0	
0.6093	8.88185	-5.5703	0	
0.6100	9.50358	-5.5703	0	
0.6107	7.97146	-4.95518	0	
0.6113	4.92943	-3.72493	0	
0.6120	2.48692	-2.22129	0	
0.6127	0.643934	-1.91372	0	
0.6133	0.954799	-1.2986	0	
0.6140	3.70817	0.546778	0	
0.6147	8.59319	-0.991036	0	
0.6153	11.6352	-3.14398	0	
0.6160	7.97146	-0.37591	0	
0.6167	3.70817	1.74286	0	
0.6173	6.15068	-0.991036	0	
0.6180	7.97146	-2.52885	0	
0.6187	5.83982	-0.683473	0	
0.6193	4.3077	-0.0683473	0	
0.6200	2.48692	-0.991036	0	
0.6207	-1.17685	-0.991036	0	
0.6213	-2.3981	-0.37591	0	
0.6220	-2.70896	0.854341	0	
0.6227	-4.84061	2.35798	0	
0.6233	-6.37273	3.28067	0	
0.6240	-8.19351	3.8958	0	
0.6247	-10.3252	4.51092	0	
0.6253	-10.3252	3.58823	0	
0.6260	-11.5464	3.28067	0	
0.6267	-14.9215	1.74286	0	
0.6273	-14.2998	-0.0683473	0	
0.6280	-11.2577	1.12773	0	
0.6287	-12.1681	3.58823	0	
0.6293	-12.1681	2.35798	0	
0.6300	-9.72563	-0.37591	0	
0.6307	-8.81524	-0.0683473	0	
0.6313	-6.37273	1.12773	0	
0.6320	0.643934	1.74286	0	
0.6327	5.21809	0.854341	0	
0.6333	5.21809	-0.991036	0	
0.6340	7.06107	-0.991036	0	
0.6347	11.3244	-0.0683473	0	
0.6353	13.7669	-0.37591	0	
0.6360	13.1673	0.546778	0	
0.6367	10.7248	0.854341	0	
0.6373	8.28233	-1.91372	0	
0.6380	7.97146	-2.83641	0	
0.6387	7.97146	-0.991036	0	
0.6393	6.15068	-1.2986	0	
0.6400	4.61856	-1.2986	0	
0.6407	4.3077	-0.991036	0	
0.6413	3.08644	-3.45154	0	
0.6420	2.48692	-3.72493	0	
0.6427	3.39731	-0.0683473	0	
0.6433	5.21809	1.12773	0	
0.6440	7.6606	-0.991036	0	
0.6447	11.6352	-1.2986	0	
0.6453	12.8565	-0.991036	0	
0.6460	12.8565	-2.83641	0	
0.6467	14.0777	-2.83641	0	
0.6473	12.5456	-0.0683473	0	
0.6480	7.06107	0.854341	0	
0.6487	2.48692	-2.52885	0	
0.6493	-0.57732	-2.22129	0	
0.6500	-4.84061	0.854341	0	
0.6507	-6.97225	0.854341	0	
0.6513	-7.28312	-0.0683473	0	
0.6520	-9.1261	-0.37591	0	
0.6527	-11.8573	-1.91372	0	
0.6533	-14.9215	-0.991036	0	
0.6540	-17.9635	2.66554	0	
0.6547	-18.8739	2.97311	0	
0.6553	-18.5853	0.239216	0	
0.6560	-17.9635	0.546778	0	
0.6567	-14.6106	2.35798	0	
0.6573	-10.9469	2.05042	0	
0.6580	-11.2577	1.43529	0	
0.6587	-11.2577	2.35798	0	
0.6593	-7.90485	2.66554	0	
0.6600	-6.97225	2.35798	0	
0.6607	-7.28312	2.97311	0	
0.6613	-4.52974	2.66554	0	
0.6620	-0.266456	0.239216	0	
0.6627	2.77558	-0.0683473	0	
0.6633	4.3077	1.43529	0	
0.6640	2.48692	0.239216	0	
0.6647	-0.865981	-0.991036	0	
0.6653	-2.70896	-0.0683473	0	
0.6660	-2.08724	0.239216	0	
0.6667	0.0444093	-1.2986	0	
0.6673	3.70817	-2.83641	0	
0.6680	8.88185	-2.52885	0	
0.6687	11.9461	-1.91372	0	
0.6693	11.0357	-1.91372	0	
0.6700	8.88185	-1.60616	0	
0.6707	10.1031	1.12773	0	
0.6713	11.9461	4.20336	0	
0.6720	13.4782	3.28067	0	
0.6727	16.2094	0.239216	0	
0.6733	18.341	-0.991036	0	
0.6740	16.5202	-0.991036	0	
0.6747	11.0357	-0.991036	0	
0.6753	7.06107	-0.0683473	0	
0.6760	7.6606	1.74286	0	
0.6767	7.06107	2.05042	0	
0.6773	1.26566	0.854341	0	
0.6780	-5.15147	0.239216	0	
0.6787	-9.41476	2.66554	0	
0.6793	-14.6106	4.51092	0	
0.6800	-18.2744	2.35798	0	
0.6807	-18.8739	0.239216	0	
0.6813	-21.3164	0.854341	0	
0.6820	-22.2268	1.74286	0	
0.6827	-20.7169	2.05042	0	
0.6833	-22.5377	1.74286	0	
0.6840	-25.2911	-1.2986	0	
0.6847	-21.9382	-2.83641	0	
0.6853	-16.7423	-0.0683473	0	
0.6860	-14.6106	0.546778	0	
0.6867	-10.3252	-4.03249	0	
0.6873	-4.84061	-6.49299	0	
0.6880	-3.01983	-4.34005	0	
0.6887	-1.79858	-3.14398	0	
0.6893	1.57653	-4.64762	0	
0.6900	3.39731	-5.26274	0	
0.6907	2.48692	-3.72493	0	
0.6913	3.39731	-4.03249	0	
0.6920	4.3077	-5.26274	0	
0.6927	3.08644	-3.72493	0	
0.6933	4.3077	-2.83641	0	
0.6940	7.97146	-4.34005	0	
0.6947	8.28233	-4.03249	0	
0.6953	7.06107	-0.991036	0	
0.6960	7.06107	2.05042	0	
0.6967	7.97146	3.28067	0	
0.6973	10.7248	1.74286	0	
0.6980	15.299	-0.991036	0	
0.6987	17.1198	-0.991036	0	
0.6993	15.299	-0.991036	0	
0.7000	13.4782	-3.45154	0	
0.7007	12.5456	-3.14398	0	
0.7013	12.5456	1.43529	0	
0.7020	11.0357	2.35798	0	
0.7027	8.88185	-0.991036	0	
0.7033	7.06107	-1.60616	0	
0.7040	6.15068	0.854341	0	
0.7047	4.92943	1.74286	0	
0.7053	3.70817	0.854341	0	
0.7060	3.99683	-0.37591	0	
0.7067	4.61856	-1.91372	0	
0.7073	2.48692	-0.991036	0	
0.7080	-1.17685	2.66554	0	
0.7087	-1.79858	4.51092	0	
0.7093	-1.17685	3.58823	0	
0.7100	-2.08724	1.12773	0	
0.7107	-2.3981	0.854341	0	
0.7113	-3.01983	2.66554	0	
0.7120	-7.28312	3.58823	0	
0.7127	-8.81524	1.43529	0	
0.7133	-6.37273	1.74286	0	
0.7140	-6.37273	4.51092	0	
0.7147	-9.1261	2.97311	0	
0.7153	-9.41476	-1.91372	0	
0.7160	-7.90485	-3.14398	0	
0.7167	-7.59398	-1.2986	0	
0.7173	-7.90485	0.546778	0	
0.7180	-7.59398	0.854341	0	
0.7187	-4.84061	0.854341	0	
0.7193	-2.08724	2.66554	0	
0.7200	-1.48771	2.66554	0	
0.7207	-0.865981	-1.2986	0	
0.7213	0.954799	-2.83641	0	
0.7220	1.86519	1.12773	0	
0.7227	1.86519	2.66554	0	
0.7233	2.48692	-0.37591	0	
0.7240	3.08644	-2.52885	0	
0.7247	2.48692	-2.52885	0	
0.7253	1.57653	-3.72493	0	
0.7260	2.48692	-4.03249	0	
0.7267	3.39731	-2.52885	0	
0.7273	3.08644	-1.91372	0	
0.7280	3.39731	-3.72493	0	
0.7287	4.92943	-4.03249	0	
0.7293	6.15068	-3.14398	0	
0.7300	6.15068	-3.14398	0	
0.7307	4.61856	-2.22129	0	
0.7313	4.3077	-0.683473	0	
0.7320	6.43934	-0.991036	0	
0.7327	7.6606	-2.83641	0	
0.7333	4.3077	-4.34005	0	
0.7340	-0.266456	-4.64762	0	
0.7347	-1.17685	-2.22129	0	
0.7353	0.0444093	1.12773	0	
0.7360	-0.57732	2.05042	0	
0.7367	-2.08724	1.74286	0	
0.7373	-3.01983	2.05042	0	
0.7380	-3.30849	0.854341	0	
0.7387	-1.79858	-0.991036	0	
0.7393	-0.266456	-0.0683473	0	
0.7400	-0.865981	0.546778	0	
0.7407	-0.57732	-1.2986	0	
0.7413	0.954799	-2.22129	0	
0.7420	1.26566	-1.2986	0	
0.7427	-0.266456	-1.91372	0	
0.7433	1.26566	-2.83641	0	
0.7440	4.3077	-1.91372	0	
0.7447	7.37194	-0.991036	0	
0.7453	8.59319	-3.72493	0	
0.7460	7.6606	-6.18543	0	
0.7467	5.52895	-3.72493	0	
0.7473	5.52895	-0.991036	0	
0.7480	6.15068	-0.991036	0	
0.7487	5.21809	-1.60616	0	
0.7493	7.6606	-0.991036	0	
0.7500	12.257	-1.60616	0	
0.7507	11.6352	-1.91372	0	
0.7513	7.97146	-0.991036	0	
0.7520	6.15068	0.854341	0	
0.7527	2.48692	2.66554	0	
0.7533	-2.3981	3.28067	0	
0.7540	-6.68359	2.66554	0	
0.7547	-9.72563	2.66554	0	
0.7553	-12.479	3.58823	0	
0.7560	-15.8319	3.8958	0	
0.7567	-19.8065	4.51092	0	
0.7573	-22.2268	4.51092	0	
0.7580	-22.5377	4.20336	0	
0.7587	-23.1594	5.39944	0	
0.7593	-20.4061	6.32212	0	
0.7600	-15.521	4.51092	0	
0.7607	-15.521	2.66554	0	
0.7613	-17.0532	2.66554	0	
0.7620	-13.0785	2.66554	0	
0.7627	-7.59398	1.74286	0	
0.7633	-5.15147	2.35798	0	
0.7640	-3.61935	2.35798	0	
0.7647	-2.70896	1.74286	0	
0.7653	-0.865981	2.66554	0	
0.7660	4.3077	2.66554	0	
0.7667	7.6606	-1.60616	0	
0.7673	4.92943	-3.14398	0	
0.7680	5.21809	0.854341	0	
0.7687	9.19272	0.546778	0	
0.7693	7.97146	-3.45154	0	
0.7700	4.3077	-2.52885	0	
0.7707	2.77558	-0.991036	0	
0.7713	-0.266456	-2.83641	0	
0.7720	-3.01983	-3.14398	0	
0.7727	-0.57732	-1.2986	0	
0.7733	-1.48771	-0.0683473	0	
0.7740	-8.50437	1.74286	0	
0.7747	-12.479	5.39944	0	
0.7753	-12.7677	8.1675	0	
0.7760	-15.2102	8.47506	0	
0.7767	-16.7423	8.47506	0	
0.7773	-15.521	9.67114	0	
0.7780	-13.0785	9.09019	0	
0.7787	-8.81524	6.93725	0	
0.7793	-6.68359	6.01456	0	
0.7800	-8.50437	4.51092	0	
0.7807	-6.97225	0.854341	0	
0.7813	-2.3981	-0.0683473	0	
0.7820	-1.17685	0.854341	0	
0.7827	0.643934	0.239216	0	
0.7833	3.39731	-0.991036	0	
0.7840	3.70817	-2.22129	0	
0.7847	3.99683	-2.22129	0	
0.7853	6.15068	-0.991036	0	
0.7860	6.15068	-2.22129	0	
0.7867	6.15068	-6.18543	0	
0.7873	7.6606	-5.5703	0	
0.7880	9.19272	-3.45154	0	
0.7887	8.88185	-4.64762	0	
0.7893	8.59319	-5.26274	0	
0.7900	9.50358	-1.91372	0	
0.7907	8.88185	-0.991036	0	
0.7913	5.21809	-2.83641	0	
0.7920	2.77558	-4.34005	0	
0.7927	5.21809	-6.18543	0	
0.7933	7.97146	-6.49299	0	
0.7940	7.97146	-4.34005	0	
0.7947	9.19272	-3.45154	0	
0.7953	11.6352	-3.14398	0	
0.7960	10.1031	-2.83641	0	
0.7967	8.88185	-2.22129	0	
0.7973	9.81445	-1.91372	0	
0.7980	9.50358	-2.52885	0	
0.7987	7.6606	-2.22129	0	
0.7993	6.15068	-1.60616	0	
0.8000	3.39731	-2.52885	0	
0.8007	0.643934	-3.14398	0	
0.8013	0.643934	-1.91372	0	
0.8020	2.48692	-0.37591	0	
0.8027	1.57653	-0.0683473	0	
0.8033	0.0444093	-0.0683473	0	
0.8040	0.643934	0.239216	0	
0.8047	1.57653	-0.991036	0	
0.8053	0.643934	-2.22129	0	
0.8060	0.643934	-0.991036	0	
0.8067	2.17605	-0.0683473	0	
0.8073	1.86519	-1.2986	0	
0.8080	1.57653	-2.83641	0	
0.8087	3.08644	-2.52885	0	
0.8093	2.17605	-3.14398	0	
0.8100	0.954799	-3.45154	0	
0.8107	4.61856	-3.14398	0	
0.8113	8.59319	-4.64762	0	
0.8120	7.6606	-4.03249	0	
0.8127	7.37194	0.239216	0	
0.8133	8.88185	-0.0683473	0	
0.8140	9.19272	-4.64762	0	
0.8147	10.414	-5.26274	0	
0.8153	12.257	-2.83641	0	
0.8160	11.3244	-2.83641	0	
0.8167	9.19272	-3.72493	0	
0.8173	7.97146	-2.22129	0	
0.8180	6.15068	-0.683473	0	
0.8187	4.61856	1.43529	0	
0.8193	1.57653	3.58823	0	
0.8200	-3.01983	4.81848	0	
0.8207	-4.84061	3.8958	0	
0.8213	-5.751	3.28067	0	
0.8220	-10.3252	3.58823	0	
0.8227	-14.6106	2.66554	0	
0.8233	-13.9889	0.854341	0	
0.8240	-10.3252	1.43529	0	
0.8247	-6.37273	2.97311	0	
0.8253	-3.93022	2.66554	0	
0.8260	-3.61935	0.854341	0	
0.8267	1.57653	-1.60616	0	
0.8273	8.88185	-3.14398	0	
0.8280	10.414	-3.72493	0	
0.8287	8.88185	-5.5703	0	
0.8293	11.9461	-8.3042	0	
0.8300	13.4782	-6.49299	0	
0.8307	9.19272	-3.72493	0	
0.8313	5.52895	-2.83641	0	
0.8320	5.21809	-2.83641	0	
0.8327	4.3077	-4.64762	0	
0.8333	1.26566	-5.87787	0	
0.8340	-2.70896	-4.03249	0	
0.8347	-4.24108	-1.60616	0	
0.8353	-4.24108	-0.37591	0	
0.8360	-6.06186	-0.0683473	0	
0.8367	-8.81524	-0.683473	0	
0.8373	-9.41476	-0.37591	0	
0.8380	-10.3252	3.28067	0	
0.8387	-13.3894	6.32212	0	
0.8393	-14.6106	6.32212	0	
0.8400	-12.1681	6.32212	0	
0.8407	-8.50437	4.81848	0	
0.8413	-4.84061	1.43529	0	
0.8420	-4.52974	0.854341	0	
0.8427	-7.90485	3.58823	0	
0.8433	-10.3252	5.39944	0	
0.8440	-10.3252	5.39944	0	
0.8447	-10.0365	2.35798	0	
0.8453	-10.9469	-0.0683473	0	
0.8460	-14.9215	0.854341	0	
0.8467	-17.9635	1.43529	0	
0.8473	-17.9635	0.854341	0	
0.8480	-17.0532	2.66554	0	
0.8487	-16.4314	2.97311	0	
0.8493	-15.521	-0.0683473	0	
0.8500	-15.8319	-0.0683473	0	
0.8507	-14.9215	2.97311	0	
0.8513	-12.7677	3.58823	0	
0.8520	-13.3894	3.58823	0	
0.8527	-14.2998	4.51092	0	
0.8533	-9.72563	3.58823	0	
0.8540	-3.93022	3.28067	0	
0.8547	-1.17685	4.51092	0	
0.8553	-0.865981	2.35798	0	
0.8560	-3.01983	-0.683473	0	
0.8567	-3.93022	0.239216	0	
0.8573	-0.266456	1.12773	0	
0.8580	1.86519	-0.0683473	0	
0.8587	0.643934	0.546778	0	
0.8593	2.17605	-0.37591	0	
0.8600	5.21809	-3.72493	0	
0.8607	7.97146	-3.72493	0	
0.8613	8.28233	-0.0683473	0	
0.8620	7.97146	-0.683473	0	
0.8627	10.414	-3.72493	0	
0.8633	13.7669	-2.83641	0	
0.8640	14.3886	-1.91372	0	
0.8647	16.2094	-5.5703	0	
0.8653	19.8731	-9.22688	0	
0.8660	19.2736	-8.91932	0	
0.8667	16.2094	-7.41568	0	
0.8673	15.8985	-6.18543	0	
0.8680	14.3886	-5.87787	0	
0.8687	11.6352	-6.18543	0	
0.8693	11.6352	-5.87787	0	
0.8700	10.7248	-4.64762	0	
0.8707	7.97146	-4.34005	0	
0.8713	6.15068	-2.83641	0	
0.8720	2.48692	2.35798	0	
0.8727	-4.84061	5.12605	0	
0.8733	-10.636	3.58823	0	
0.8740	-13.0785	4.51092	0	
0.8747	-13.9889	8.47506	0	
0.8753	-13.9889	9.09019	0	
0.8760	-13.9889	6.32212	0	
0.8767	-13.3894	6.32212	0	
0.8773	-10.0365	6.93725	0	
0.8780	-5.15147	4.81848	0	
0.8787	-1.48771	3.8958	0	
0.8793	0.643934	2.97311	0	
0.8800	2.77558	0.239216	0	
0.8807	5.21809	-0.0683473	0	
0.8813	6.15068	1.12773	0	
0.8820	6.75021	0.854341	0	
0.8827	7.97146	1.12773	0	
0.8833	10.414	1.12773	0	
0.8840	9.81445	-2.52885	0	
0.8847	5.21809	-4.03249	0	
0.8853	2.17605	-0.37591	0	
0.8860	2.17605	1.12773	0	
0.8867	2.48692	-0.991036	0	
0.8873	0.355274	-0.37591	0	
0.8880	-1.48771	1.12773	0	
0.8887	-0.865981	-0.991036	0	
0.8893	-0.266456	-2.22129	0	
0.8900	-1.17685	-0.991036	0	
0.8907	0.954799	-0.991036	0	
0.8913	4.3077	-2.83641	0	
0.8920	5.83982	-3.45154	0	
0.8927	7.06107	-3.72493	0	
0.8933	7.37194	-4.03249	0	
0.8940	5.21809	-3.45154	0	
0.8947	3.39731	-2.83641	0	
0.8953	4.61856	-2.83641	0	
0.8960	4.3077	-2.22129	0	
0.8967	3.08644	-1.91372	0	
0.8973	0.643934	-1.91372	0	
0.8980	-3.93022	-0.991036	0	
0.8987	-6.68359	0.546778	0	
0.8993	-9.41476	1.74286	0	
0.9000	-14.9215	3.8958	0	
0.9007	-19.4957	4.81848	0	
0.9013	-19.8065	4.81848	0	
0.9020	-19.4957	5.707	0	
0.9027	-17.9635	6.32212	0	
0.9033	-14.6106	6.01456	0	
0.9040	-13.9889	6.01456	0	
0.9047	-15.2102	6.32212	0	
0.9053	-12.479	5.39944	0	
0.9060	-7.59398	3.58823	0	
0.9067	-4.24108	1.43529	0	
0.9073	-0.266456	0.854341	0	
0.9080	4.92943	0.546778	0	
0.9087	6.15068	-1.2986	0	
0.9093	3.99683	-0.991036	0	
0.9100	6.43934	0.854341	0	
0.9107	11.3244	-0.683473	0	
0.9113	9.81445	-3.72493	0	
0.9120	7.06107	-4.34005	0	
0.9127	10.1031	-5.5703	0	
0.9133	10.7248	-5.5703	0	
0.9140	7.06107	-3.45154	0	
0.9147	7.06107	-2.83641	0	
0.9153	6.75021	-3.45154	0	
0.9160	2.48692	-3.72493	0	
0.9167	2.48692	-4.95518	0	
0.9173	6.15068	-5.5703	0	
0.9180	6.15068	-3.72493	0	
0.9187	5.52895	-4.03249	0	
0.9193	6.43934	-5.5703	0	
0.9200	5.21809	-3.72493	0	
0.9207	2.48692	-1.60616	0	
0.9213	2.48692	-0.991036	0	
0.9220	1.57653	-0.37591	0	
0.9227	-2.08724	1.12773	0	
0.9233	-5.751	2.35798	0	
0.9240	-6.68359	3.28067	0	
0.9247	-7.28312	3.58823	0	
0.9253	-6.68359	3.58823	0	
0.9260	-4.84061	1.74286	0	
0.9267	-4.52974	-0.0683473	0	
0.9273	-3.61935	-0.0683473	0	
0.9280	-1.17685	-0.0683473	0	
0.9287	0.0444093	-0.991036	0	
0.9293	-1.48771	2.35798	0	
0.9300	-3.01983	5.39944	0	
0.9307	-3.01983	2.66554	0	
0.9313	-2.08724	-0.683473	0	
0.9320	-2.3981	0.546778	0	
0.9327	-2.3981	1.12773	0	
0.9333	-0.266456	1.43529	0	
0.9340	0.0444093	2.35798	0	
0.9347	-3.93022	0.239216	0	
0.9353	-6.06186	-0.683473	0	
0.9360	-3.93022	2.97311	0	
0.9367	-0.865981	2.05042	0	
0.9373	0.0444093	-3.72493	0	
0.9380	-0.865981	-3.72493	0	
0.9387	-0.57732	-0.991036	0	
0.9393	2.48692	-1.2986	0	
0.9400	7.06107	-2.52885	0	
0.9407	9.50358	-2.52885	0	
0.9413	7.97146	-3.72493	0	
0.9420	3.39731	-4.03249	0	
0.9427	0.954799	-1.91372	0	
0.9433	2.48692	-1.2986	0	
0.9440	4.3077	-2.83641	0	
0.9447	3.08644	-0.991036	0	
0.9453	1.57653	-0.0683473	0	
0.9460	0.954799	-2.83641	0	
0.9467	0.643934	-3.72493	0	
0.9473	-0.266456	-2.52885	0	
0.9480	-1.17685	-0.991036	0	
0.9487	-1.17685	-0.0683473	0	
0.9493	-2.08724	2.35798	0	
0.9500	-3.93022	1.43529	0	
0.9507	-3.30849	-1.91372	0	
0.9513	-3.61935	-1.2986	0	
0.9520	-4.84061	0.546778	0	
0.9527	-2.08724	-3.14398	0	
0.9533	2.77558	-4.95518	0	
0.9540	3.99683	-2.83641	0	
0.9547	6.75021	-2.83641	0	
0.9553	12.5456	-4.34005	0	
0.9560	15.299	-1.91372	0	
0.9567	14.0777	1.12773	0	
0.9573	12.5456	0.854341	0	
0.9580	10.1031	1.74286	0	
0.9587	8.88185	4.20336	0	
0.9593	9.81445	4.51092	0	
0.9600	7.37194	3.58823	0	
0.9607	2.48692	1.74286	0	
0.9613	-1.17685	0.854341	0	
0.9620	-3.01983	1.74286	0	
0.9627	-6.06186	2.97311	0	
0.9633	-9.1261	1.74286	0	
0.9640	-13.0785	0.854341	0	
0.9647	-18.5853	2.66554	0	
0.9653	-22.8486	2.05042	0	
0.9660	-24.3807	0.854341	0	
0.9667	-26.2015	3.58823	0	
0.9673	-28.644	4.51092	0	
0.9680	-29.5544	2.97311	0	
0.9687	-26.8232	2.97311	0	
0.9693	-21.3164	3.8958	0	
0.9700	-15.8319	3.8958	0	
0.9707	-12.1681	4.81848	0	
0.9713	-10.0365	2.35798	0	
0.9720	-5.751	-0.991036	0	
0.9727	-0.266456	1.74286	0	
0.9733	4.3077	2.66554	0	
0.9740	9.19272	-1.60616	0	
0.9747	12.5456	-2.22129	0	
0.9753	13.1673	-1.60616	0	
0.9760	14.3886	-4.03249	0	
0.9767	14.9881	-3.45154	0	
0.9773	12.5456	-1.91372	0	
0.9780	9.50358	-4.64762	0	
0.9787	9.19272	-4.34005	0	
0.9793	7.6606	-0.991036	0	
0.9800	5.21809	-2.83641	0	
0.9807	7.06107	-2.83641	0	
0.9813	8.88185	-0.0683473	0	
0.9820	5.21809	-2.52885	0	
0.9827	2.17605	-3.72493	0	
0.9833	3.39731	0.239216	0	
0.9840	5.52895	0.854341	0	
0.9847	7.37194	-2.52885	0	
0.9853	9.81445	-1.91372	0	
0.9860	10.414	-1.2986	0	
0.9867	9.81445	-3.72493	0	
0.9873	11.3244	-4.03249	0	
0.9880	13.4782	-3.72493	0	
0.9887	11.3244	-3.14398	0	
0.9893	7.97146	-0.0683473	0	
0.9900	3.70817	1.74286	0	
0.9907	-0.865981	1.74286	0	
0.9913	-3.61935	3.58823	0	
0.9920	-5.15147	3.8958	0	
0.9927	-8.81524	1.74286	0	
0.9933	-11.2577	1.43529	0	
0.9940	-12.1681	2.66554	0	
0.9947	-14.6106	2.35798	0	
0.9953	-14.9215	1.74286	0	
0.9960	-11.5464	1.43529	0	
0.9967	-9.41476	1.74286	0	
0.9973	-8.50437	2.66554	0	
0.9980	-6.68359	1.74286	0	
0.9987	-5.751	0.546778	0	
0.9993	-5.46234	1.12773	0	
1.0000	-3.30849	1.12773	0	
1.0007	-0.266456	-0.37591	0	
1.0013	1.86519	0.239216	0	
1.0020	3.39731	2.35798	0	
1.0027	2.48692	1.12773	0	
1.0033	0.643934	-0.683473	0	
1.0040	0.0444093	1.12773	0	
1.0047	-1.17685	2.66554	0	
1.0053	-3.61935	0.546778	0	
1.0060	-3.61935	0.854341	0	
1.0067	-3.01983	3.28067	0	
1.0073	-2.70896	0.854341	0	
1.0080	-1.17685	-2.83641	0	
1.0087	-0.266456	-2.22129	0	
1.0093	-1.17685	-1.91372	0	
1.0100	-0.57732	-1.91372	0	
1.0107	-0.266456	0.854341	0	
1.0113	-2.70896	2.35798	0	
1.0120	-3.01983	2.05042	0	
1.0127	0.643934	1.74286	0	
1.0133	1.57653	-0.683473	0	
1.0140	-1.17685	-2.83641	0	
1.0147	-3.01983	-0.683473	0	
1.0153	-3.61935	2.05042	0	
1.0160	-2.70896	2.05042	0	
1.0167	0.643934	2.05042	0	
1.0173	3.08644	1.74286	0	
1.0180	4.3077	0.854341	0	
1.0187	6.15068	2.35798	0	
1.0193	9.81445	1.12773	0	
1.0200	11.6352	-3.72493	0	
1.0207	10.414	-4.34005	0	
1.0213	10.414	-1.91372	0	
1.0220	13.4782	-3.14398	0	
1.0227	15.299	-3.72493	0	
1.0233	14.6995	-0.0683473	0	
1.0240	14.3886	0.239216	0	
1.0247	13.7669	-3.72493	0	
1.0253	11.3244	-3.45154	0	
1.0260	9.50358	-0.991036	0	
1.0267	8.59319	-3.45154	0	
1.0273	5.21809	-4.95518	0	
1.0280	1.57653	-1.2986	0	
1.0287	0.0444093	-0.991036	0	
1.0293	1.57653	-4.95518	0	
1.0300	2.48692	-4.64762	0	
1.0307	0.0444093	-1.60616	0	
1.0313	-4.84061	-0.683473	0	
1.0320	-6.37273	-0.37591	0	
1.0327	-5.15147	-1.91372	0	
1.0333	-5.15147	-4.64762	0	
1.0340	-7.59398	-2.83641	0	
1.0347	-9.1261	0.854341	0	
1.0353	-9.72563	0.854341	0	
1.0360	-10.9469	-0.0683473	0	
1.0367	-12.1681	1.74286	0	
1.0373	-12.1681	4.51092	0	
1.0380	-11.2577	7.24481	0	
1.0387	-10.636	6.62969	0	
1.0393	-9.72563	3.28067	0	
1.0400	-8.50437	3.8958	0	
1.0407	-6.97225	6.32212	0	
1.0413	-4.84061	4.51092	0	
1.0420	-3.01983	3.58823	0	
1.0427	-0.865981	2.66554	0	
1.0433	1.57653	-0.0683473	0	
1.0440	0.643934	0.854341	0	
1.0447	-1.17685	3.58823	0	
1.0453	1.26566	0.854341	0	
1.0460	3.99683	-1.91372	0	
1.0467	2.17605	-0.683473	0	
1.0473	-0.865981	-2.22129	0	
1.0480	-0.266456	-5.5703	0	
1.0487	1.57653	-4.64762	0	
1.0493	3.99683	-2.83641	0	
1.0500	5.21809	-1.91372	0	
1.0507	3.70817	-0.683473	0	
1.0513	6.15068	-1.2986	0	
1.0520	9.19272	-3.45154	0	
1.0527	6.43934	-3.72493	0	
1.0533	4.3077	-4.64762	0	
1.0540	8.28233	-4.03249	0	
1.0547	9.50358	-0.37591	0	
1.0553	7.37194	2.35798	0	
1.0560	8.59319	0.854341	0	
1.0567	8.28233	-0.0683473	0	
1.0573	3.39731	0.239216	0	
1.0580	1.26566	-2.22129	0	
1.0587	2.17605	-4.34005	0	
1.0593	1.86519	-1.60616	0	
1.0600	3.39731	0.239216	0	
1.0607	8.28233	-1.2986	0	
1.0613	10.7248	-0.0683473	0	
1.0620	8.59319	1.12773	0	
1.0627	6.15068	-0.37591	0	
1.0633	6.75021	0.239216	0	
1.0640	7.97146	1.74286	0	
1.0647	7.6606	-0.991036	0	
1.0653	7.37194	-1.91372	0	
1.0660	7.6606	-0.0683473	0	
1.0667	7.6606	-1.91372	0	
1.0673	7.6606	-2.52885	0	
1.0680	7.97146	0.854341	0	
1.0687	7.06107	0.854341	0	
1.0693	1.26566	-0.683473	0	
1.0700	-6.97225	1.43529	0	
1.0707	-11.2577	0.546778	0	
1.0713	-11.2577	-4.34005	0	
1.0720	-14.2998	-3.72493	0	
1.0727	-18.5853	1.74286	0	
1.0733	-20.4061	4.20336	0	
1.0740	-22.5377	4.51092	0	
1.0747	-26.2015	6.62969	0	
1.0753	-25.8906	8.78263	0	
1.0760	-22.2268	6.32212	0	
1.0767	-20.7169	1.74286	0	
1.0773	-20.0952	2.05042	0	
1.0780	-18.5853	6.32212	0	
1.0787	-15.521	6.93725	0	
1.0793	-12.7677	5.39944	0	
1.0800	-10.636	6.01456	0	
1.0807	-8.50437	6.62969	0	
1.0813	-7.28312	4.81848	0	
1.0820	-7.90485	3.28067	0	
1.0827	-6.37273	2.35798	0	
1.0833	-1.17685	0.854341	0	
1.0840	1.57653	0.854341	0	
1.0847	1.57653	-0.37591	0	
1.0853	3.08644	-4.64762	0	
1.0860	6.43934	-5.87787	0	
1.0867	8.88185	-4.64762	0	
1.0873	9.81445	-4.64762	0	
1.0880	10.414	-2.52885	0	
1.0887	10.1031	0.854341	0	
1.0893	7.37194	0.546778	0	
1.0900	3.70817	0.239216	0	
1.0907	1.57653	0.854341	0	
1.0913	2.17605	-1.91372	0	
1.0920	3.70817	-2.83641	0	
1.0927	3.99683	-0.0683473	0	
1.0933	2.17605	-1.91372	0	
1.0940	2.48692	-4.95518	0	
1.0947	7.06107	-3.72493	0	
1.0953	11.0357	-0.991036	0	
1.0960	11.9461	-1.60616	0	
1.0967	11.3244	-2.83641	0	
1.0973	10.1031	-3.72493	0	
1.0980	10.7248	-2.22129	0	
1.0987	10.414	-1.91372	0	
1.0993	7.6606	-4.03249	0	
1.1000	6.75021	-4.95518	0	
1.1007	8.59319	-2.83641	0	
1.1013	8.28233	-2.83641	0	
1.1020	5.83982	-2.83641	0	
1.1027	2.48692	-0.37591	0	
1.1033	-2.70896	0.854341	0	
1.1040	-5.46234	1.43529	0	
1.1047	-6.37273	2.66554	0	
1.1053	-8.50437	2.66554	0	
1.1060	-10.0365	1.12773	0	
1.1067	-8.81524	2.35798	0	
1.1073	-8.50437	3.58823	0	
1.1080	-9.72563	2.66554	0	
1.1087	-9.72563	1.74286	0	
1.1093	-7.90485	0.546778	0	
1.1100	-5.15147	-2.83641	0	
1.1107	-3.30849	-3.72493	0	
1.1113	-2.3981	-2.52885	0	
1.1120	-0.865981	-3.72493	0	
1.1127	1.26566	-4.64762	0	
1.1133	1.86519	-2.52885	0	
1.1140	1.26566	-0.683473	0	
1.1147	1.26566	-1.60616	0	
1.1153	1.57653	-1.2986	0	
1.1160	1.57653	1.43529	0	
1.1167	2.48692	2.05042	0	
1.1173	4.3077	1.12773	0	
1.1180	3.99683	2.35798	0	
1.1187	2.48692	4.20336	0	
1.1193	3.70817	2.66554	0	
1.1200	4.92943	-0.0683473	0	
1.1207	1.57653	-1.60616	0	
1.1213	-1.48771	-0.0683473	0	
1.1220	-0.865981	2.35798	0	
1.1227	-2.08724	3.28067	0	
1.1233	-6.68359	3.58823	0	
1.1240	-8.50437	3.8958	0	
1.1247	-8.81524	2.35798	0	
1.1253	-9.41476	1.12773	0	
1.1260	-9.41476	2.05042	0	
1.1267	-8.81524	2.05042	0	
1.1273	-10.0365	-0.0683473	0	
1.1280	-10.9469	-0.683473	0	
1.1287	-12.1681	0.546778	0	
1.1293	-11.8573	-0.991036	0	
1.1300	-7.59398	-2.83641	0	
1.1307	-4.84061	-2.83641	0	
1.1313	-5.46234	-3.45154	0	
1.1320	-4.52974	-4.03249	0	
1.1327	-2.08724	-3.72493	0	
1.1333	-0.865981	-4.64762	0	
1.1340	1.57653	-5.87787	0	
1.1347	4.3077	-4.64762	0	
1.1353	4.3077	-3.72493	0	
1.1360	5.21809	-4.64762	0	
1.1367	7.06107	-2.83641	0	
1.1373	7.37194	-0.683473	0	
1.1380	8.88185	-3.14398	0	
1.1387	11.6352	-4.03249	0	
1.1393	11.9461	-0.991036	0	
1.1400	9.81445	-0.991036	0	
1.1407	9.50358	-4.34005	0	
1.1413	11.3244	-5.5703	0	
1.1420	13.4782	-4.03249	0	
1.1427	16.5202	-3.45154	0	
1.1433	19.8731	-3.72493	0	
1.1440	22.9374	-4.95518	0	
1.1447	23.226	-7.41568	0	
1.1453	19.2736	-7.41568	0	
1.1460	12.8565	-3.72493	0	
1.1467	8.28233	-3.45154	0	
1.1473	5.21809	-5.26274	0	
1.1480	1.57653	-4.64762	0	
1.1487	-2.3981	-1.91372	0	
1.1493	-4.84061	-2.52885	0	
1.1500	-6.68359	-2.83641	0	
1.1507	-10.9469	-0.0683473	0	
1.1513	-14.9215	2.66554	0	
1.1520	-16.4314	2.66554	0	
1.1527	-17.9635	1.43529	0	
1.1533	-17.9635	2.05042	0	
1.1540	-13.9889	2.97311	0	
1.1547	-11.5464	1.74286	0	
1.1553	-13.9889	0.854341	0	
1.1560	-14.9215	4.51092	0	
1.1567	-12.479	6.62969	0	
1.1573	-10.0365	4.51092	0	
1.1580	-6.68359	2.66554	0	
1.1587	-3.01983	2.35798	0	
1.1593	-1.17685	-0.0683473	0	
1.1600	2.48692	-1.60616	0	
1.1607	7.37194	-0.991036	0	
1.1613	7.37194	-1.60616	0	
1.1620	7.37194	-2.22129	0	
1.1627	9.81445	-0.683473	0	
1.1633	8.59319	-0.37591	0	
1.1640	5.52895	-0.991036	0	
1.1647	7.37194	-1.91372	0	
1.1653	8.88185	-3.72493	0	
1.1660	5.83982	-4.95518	0	
1.1667	3.08644	-3.72493	0	
1.1673	3.39731	-2.83641	0	
1.1680	6.43934	-3.72493	0	
1.1687	9.81445	-4.64762	0	
1.1693	10.414	-3.72493	0	
1.1700	9.19272	-3.14398	0	
1.1707	7.97146	-3.72493	0	
1.1713	6.43934	-3.72493	0	
1.1720	7.37194	-3.45154	0	
1.1727	11.6352	-4.34005	0	
1.1733	12.5456	-3.45154	0	
1.1740	8.88185	0.239216	0	
1.1747	7.06107	-0.991036	0	
1.1753	6.15068	-2.22129	0	
1.1760	3.70817	2.97311	0	
1.1767	-0.266456	4.20336	0	
1.1773	-4.84061	-0.0683473	0	
1.1780	-6.68359	3.58823	0	
1.1787	-8.50437	7.24481	0	
1.1793	-13.0785	2.66554	0	
1.1800	-18.5853	3.28067	0	
1.1807	-22.2268	8.1675	0	
1.1813	-25.6019	6.32212	0	
1.1820	-28.0444	3.58823	0	
1.1827	-25.6019	6.62969	0	
1.1833	-21.0278	7.24481	0	
1.1840	-20.4061	4.51092	0	
1.1847	-20.4061	3.58823	0	
1.1853	-17.364	4.51092	0	
1.1860	-12.1681	3.58823	0	
1.1867	-6.37273	0.854341	0	
1.1873	-1.17685	0.854341	0	
1.1880	-0.57732	3.58823	0	
1.1887	-2.08724	2.35798	0	
1.1893	-0.865981	-1.60616	0	
1.1900	0.0444093	0.546778	0	
1.1907	0.355274	3.8958	0	
1.1913	2.48692	3.28067	0	
1.1920	3.70817	2.66554	0	
1.1927	2.48692	2.66554	0	
1.1933	2.17605	1.74286	0	
1.1940	0.643934	3.28067	0	
1.1947	-3.01983	4.51092	0	
1.1953	-3.93022	1.74286	0	
1.1960	-3.01983	0.239216	0	
1.1967	-3.01983	0.546778	0	
1.1973	-2.70896	0.546778	0	
1.1980	-2.08724	1.43529	0	
1.1987	-2.3981	2.05042	0	
1.1993	0.0444093	1.43529	0	
1.2000	4.3077	1.12773	0	
1.2007	6.15068	-0.0683473	0	
1.2013	7.06107	-3.72493	0	
1.2020	7.97146	-4.64762	0	
1.2027	8.59319	-2.22129	0	
1.2033	11.6352	-1.2986	0	
1.2040	15.299	-2.83641	0	
1.2047	17.1198	-2.83641	0	
1.2053	20.184	-3.72493	0	
1.2060	20.7835	-7.72324	0	
1.2067	17.1198	-8.61176	0	
1.2073	15.8985	-5.5703	0	
1.2080	15.6099	-3.72493	0	
1.2087	10.414	-4.34005	0	
1.2093	5.21809	-5.5703	0	
1.2100	3.99683	-5.87787	0	
1.2107	2.48692	-4.95518	0	
1.2113	-1.17685	-3.72493	0	
1.2120	-4.84061	-2.52885	0	
1.2127	-8.50437	-1.91372	0	
1.2133	-11.5464	-2.22129	0	
1.2140	-12.479	-2.83641	0	
1.2147	-13.0785	-1.91372	0	
1.2153	-13.0785	-2.22129	0	
1.2160	-10.3252	-1.91372	0	
1.2167	-7.28312	-0.0683473	0	
1.2173	-6.68359	-0.991036	0	
1.2180	-5.751	-2.52885	0	
1.2187	-4.84061	-0.0683473	0	
1.2193	-4.52974	1.74286	0	
1.2200	-3.93022	1.12773	0	
1.2207	-2.3981	2.35798	0	
1.2213	-1.48771	4.81848	0	
1.2220	-2.08724	5.12605	0	
1.2227	-2.08724	4.51092	0	
1.2233	-0.266456	4.51092	0	
1.2240	1.86519	4.51092	0	
1.2247	3.39731	4.20336	0	
1.2253	5.21809	1.74286	0	
1.2260	6.75021	-1.60616	0	
1.2267	6.43934	-1.60616	0	
1.2273	7.06107	-0.0683473	0	
1.2280	8.59319	-0.0683473	0	
1.2287	7.97146	-0.991036	0	
1.2293	5.21809	-1.60616	0	
1.2300	2.48692	-2.83641	0	
1.2307	4.3077	-2.83641	0	
1.2313	9.81445	-2.52885	0	
1.2320	13.4782	-2.83641	0	
1.2327	14.0777	-3.72493	0	
1.2333	17.1198	-4.64762	0	
1.2340	20.7835	-5.5703	0	
1.2347	19.8731	-5.26274	0	
1.2353	17.7415	-2.22129	0	
1.2360	16.2094	-0.0683473	0	
1.2367	12.8565	-1.2986	0	
1.2373	9.19272	-2.52885	0	
1.2380	5.52895	-0.991036	0	
1.2387	0.643934	-0.0683473	0	
1.2393	-3.61935	-0.37591	0	
1.2400	-5.751	1.43529	0	
1.2407	-10.3252	4.20336	0	
1.2413	-16.7423	5.39944	0	
1.2420	-21.3164	4.20336	0	
1.2427	-26.8232	2.35798	0	
1.2433	-32.3077	3.28067	0	
1.2440	-32.3077	3.8958	0	
1.2447	-28.644	1.74286	0	
1.2453	-25.2911	1.43529	0	
1.2460	-20.4061	2.66554	0	
1.2467	-14.6106	1.43529	0	
1.2473	-12.479	0.239216	0	
1.2480	-10.3252	1.74286	0	
1.2487	-6.68359	0.854341	0	
1.2493	-6.06186	0.239216	0	
1.2500	-5.15147	2.66554	0	
1.2507	-2.08724	3.58823	0	
1.2513	-2.08724	0.854341	0	
1.2520	-3.61935	0.854341	0	
1.2527	-1.48771	2.97311	0	
1.2533	-0.266456	1.74286	0	
1.2540	1.57653	-1.2986	0	
1.2547	6.15068	-0.683473	0	
1.2553	7.6606	1.43529	0	
1.2560	6.15068	-0.991036	0	
1.2567	7.06107	-3.72493	0	
1.2573	6.43934	-0.991036	0	
1.2580	4.3077	1.74286	0	
1.2587	6.75021	-0.0683473	0	
1.2593	9.81445	-1.60616	0	
1.2600	8.59319	-0.0683473	0	
1.2607	9.50358	1.12773	0	
1.2613	11.6352	0.854341	0	
1.2620	9.50358	0.854341	0	
1.2627	7.37194	0.239216	0	
1.2633	7.97146	-1.60616	0	
1.2640	4.3077	-0.991036	0	
1.2647	-1.17685	1.12773	0	
1.2653	-3.01983	0.546778	0	
1.2660	-4.84061	-1.60616	0	
1.2667	-8.81524	-0.991036	0	
1.2673	-9.72563	-1.60616	0	
1.2680	-8.50437	-3.72493	0	
1.2687	-13.0785	-3.14398	0	
1.2693	-17.6527	-0.0683473	0	
1.2700	-15.8319	-0.0683473	0	
1.2707	-14.6106	0.854341	0	
1.2713	-16.7423	2.05042	0	
1.2720	-14.9215	-0.37591	0	
1.2727	-9.72563	-1.91372	0	
1.2733	-6.37273	-0.991036	0	
1.2740	-2.3981	-0.991036	0	
1.2747	1.26566	-2.22129	0	
1.2753	2.77558	-1.91372	0	
1.2760	4.61856	0.239216	0	
1.2767	5.83982	1.12773	0	
1.2773	5.83982	0.854341	0	
1.2780	7.37194	1.74286	0	
1.2787	8.88185	2.66554	0	
1.2793	8.59319	0.854341	0	
1.2800	8.28233	0.854341	0	
1.2807	7.06107	4.51092	0	
1.2813	5.83982	5.707	0	
1.2820	6.15068	1.12773	0	
1.2827	3.08644	-1.2986	0	
1.2833	-1.17685	2.66554	0	
1.2840	0.355274	6.32212	0	
1.2847	0.954799	3.8958	0	
1.2853	-0.865981	-0.0683473	0	
1.2860	0.954799	-1.60616	0	
1.2867	3.08644	-2.22129	0	
1.2873	3.39731	-2.22129	0	
1.2880	7.06107	-1.2986	0	
1.2887	10.414	-3.45154	0	
1.2893	12.5456	-5.26274	0	
1.2900	17.1198	-3.72493	0	
1.2907	21.7161	-3.45154	0	
1.2913	21.7161	-5.5703	0	
1.2920	19.8731	-4.64762	0	
1.2927	17.7415	-2.52885	0	
1.2933	15.299	-3.14398	0	
1.2940	15.299	-4.03249	0	
1.2947	15.299	-4.34005	0	
1.2953	10.7248	-4.64762	0	
1.2960	5.52895	-3.72493	0	
1.2967	3.99683	-0.991036	0	
1.2973	4.61856	0.239216	0	
1.2980	3.99683	-1.91372	0	
1.2987	-0.266456	-2.83641	0	
1.2993	-4.52974	-1.2986	0	
1.3000	-5.15147	-0.991036	0	
1.3007	-3.61935	-0.0683473	0	
1.3013	-3.01983	3.58823	0	
1.3020	-5.15147	5.39944	0	
1.3027	-7.59398	3.58823	0	
1.3033	-8.50437	3.58823	0	
1.3040	-9.72563	4.81848	0	
1.3047	-11.8573	3.58823	0	
1.3053	-13.3894	1.74286	0	
1.3060	-15.8319	2.66554	0	
1.3067	-19.1848	3.58823	0	
1.3073	-19.8065	3.28067	0	
1.3080	-21.3164	3.8958	0	
1.3087	-25.8906	5.39944	0	
1.3093	-27.4227	4.81848	0	
1.3100	-24.9802	3.8958	0	
1.3107	-24.9802	5.39944	0	
1.3113	-23.4481	5.39944	0	
1.3120	-17.0532	3.58823	0	
1.3127	-11.5464	1.74286	0	
1.3133	-9.72563	-1.60616	0	
1.3140	-6.97225	-3.72493	0	
1.3147	-3.01983	-2.83641	0	
1.3153	-1.17685	-3.72493	0	
1.3160	-0.266456	-7.41568	0	
1.3167	2.48692	-4.64762	0	
1.3173	5.21809	-1.60616	0	
1.3180	6.75021	-1.91372	0	
1.3187	7.06107	-1.60616	0	
1.3193	4.92943	-1.2986	0	
1.3200	2.77558	-3.72493	0	
1.3207	4.3077	-2.83641	0	
1.3213	7.37194	0.546778	0	
1.3220	8.88185	-0.37591	0	
1.3227	8.88185	-2.83641	0	
1.3233	10.1031	-2.83641	0	
1.3240	11.3244	-1.60616	0	
1.3247	11.0357	-0.991036	0	
1.3253	8.59319	-3.14398	0	
1.3260	7.06107	-5.5703	0	
1.3267	8.59319	-5.87787	0	
1.3273	7.97146	-4.95518	0	
1.3280	5.52895	-5.5703	0	
1.3287	8.28233	-5.5703	0	
1.3293	11.9461	-4.64762	0	
1.3300	10.7248	-5.26274	0	
1.3307	9.50358	-6.80056	0	
1.3313	10.414	-6.80056	0	
1.3320	9.19272	-5.5703	0	
1.3327	7.97146	-4.03249	0	
1.3333	8.88185	-3.14398	0	
1.3340	9.81445	-3.72493	0	
1.3347	9.19272	-4.34005	0	
1.3353	9.81445	-2.83641	0	
1.3360	10.7248	-1.91372	0	
1.3367	9.81445	-3.45154	0	
1.3373	10.1031	-3.45154	0	
1.3380	11.9461	-1.91372	0	
1.3387	11.6352	-1.2986	0	
1.3393	8.88185	-0.683473	0	
1.3400	6.43934	-0.683473	0	
1.3407	3.70817	-0.0683473	0	
1.3413	0.0444093	2.97311	0	
1.3420	-3.61935	3.8958	0	
1.3427	-8.50437	0.546778	0	
1.3433	-13.3894	0.854341	0	
1.3440	-16.1428	4.81848	0	
1.3447	-17.0532	4.51092	0	
1.3453	-18.5853	2.05042	0	
1.3460	-19.1848	2.05042	0	
1.3467	-18.5853	2.66554	0	
1.3473	-17.364	2.35798	0	
1.3480	-17.6527	3.28067	0	
1.3487	-17.9635	4.20336	0	
1.3493	-15.8319	5.39944	0	
1.3500	-11.8573	5.707	0	
1.3507	-7.59398	5.39944	0	
1.3513	-3.01983	5.39944	0	
1.3520	-1.17685	5.707	0	
1.3527	-1.79858	5.12605	0	
1.3533	-2.08724	4.20336	0	
1.3540	-1.48771	4.20336	0	
1.3547	-1.17685	5.707	0	
1.3553	-0.865981	9.09019	0	
1.3560	-3.01983	9.39775	0	
1.3567	-6.06186	6.32212	0	
1.3573	-6.37273	3.58823	0	
1.3580	-5.15147	2.97311	0	
1.3587	-5.46234	3.58823	0	
1.3593	-3.93022	4.20336	0	
1.3600	-1.48771	2.35798	0	
1.3607	-1.48771	-0.0683473	0	
1.3613	-2.08724	0.239216	0	
1.3620	-3.01983	0.546778	0	
1.3627	-3.61935	-0.683473	0	
1.3633	-3.30849	0.546778	0	
1.3640	-1.79858	0.854341	0	
1.3647	1.57653	-0.683473	0	
1.3653	3.70817	0.546778	0	
1.3660	3.39731	1.74286	0	
1.3667	3.39731	-3.14398	0	
1.3673	4.61856	-7.10812	0	
1.3680	3.39731	-5.5703	0	
1.3687	3.39731	-4.03249	0	
1.3693	8.28233	-3.72493	0	
1.3700	10.1031	-1.91372	0	
1.3707	7.97146	-1.91372	0	
1.3713	7.97146	-3.72493	0	
1.3720	9.81445	-2.83641	0	
1.3727	10.414	-0.683473	0	
1.3733	12.257	-1.60616	0	
1.3740	14.9881	-2.52885	0	
1.3747	16.5202	-0.991036	0	
1.3753	18.9628	-1.91372	0	
1.3760	23.226	-5.26274	0	
1.3767	26.2903	-6.49299	0	
1.3773	29.0215	-6.18543	0	
1.3780	31.7748	-8.3042	0	
1.3787	30.5536	-8.91932	0	
1.3793	26.2903	-7.72324	0	
1.3800	21.7161	-7.10812	0	
1.3807	18.0524	-5.87787	0	
1.3813	13.4782	-3.72493	0	
1.3820	9.81445	-2.83641	0	
1.3827	3.39731	-2.52885	0	
1.3833	-3.61935	-2.52885	0	
1.3840	-7.59398	-1.2986	0	
1.3847	-9.41476	0.854341	0	
1.3853	-14.2998	2.66554	0	
1.3860	-21.3164	3.58823	0	
1.3867	-25.8906	4.51092	0	
1.3873	-29.2657	6.01456	0	
1.3880	-33.2181	7.24481	0	
1.3887	-36.2824	7.85994	0	
1.3893	-36.8819	6.93725	0	
1.3900	-35.9715	7.24481	0	
1.3907	-34.4394	9.09019	0	
1.3913	-30.487	7.24481	0	
1.3920	-25.8906	3.58823	0	
1.3927	-24.0698	3.28067	0	
1.3933	-20.4061	4.20336	0	
1.3940	-15.2102	4.51092	0	
1.3947	-13.9889	6.01456	0	
1.3953	-12.7677	5.39944	0	
1.3960	-9.1261	4.20336	0	
1.3967	-7.28312	4.51092	0	
1.3973	-3.93022	2.66554	0	
1.3980	1.26566	-0.0683473	0	
1.3987	2.48692	0.546778	0	
1.3993	2.17605	0.546778	0	
1.4000	4.3077	-1.91372	0	
1.4007	5.83982	-3.72493	0	
1.4013	7.06107	-3.72493	0	
1.4020	10.1031	-0.683473	0	
1.4027	11.0357	2.05042	0	
1.4033	12.5456	-0.991036	0	
1.4040	16.2094	-3.72493	0	
1.4047	13.7669	-1.91372	0	
1.4053	8.88185	-1.91372	0	
1.4060	7.97146	-3.72493	0	
1.4067	7.06107	-3.72493	0	
1.4073	5.52895	-5.5703	0	
1.4080	6.15068	-7.99663	0	
1.4087	4.61856	-4.03249	0	
1.4093	2.17605	-0.991036	0	
1.4100	1.57653	-2.83641	0	
1.4107	1.86519	-2.52885	0	
1.4113	5.21809	-0.991036	0	
1.4120	11.9461	-3.72493	0	
1.4127	14.3886	-6.49299	0	
1.4133	13.4782	-5.87787	0	
1.4140	12.8565	-5.26274	0	
1.4147	12.257	-5.26274	0	
1.4153	9.81445	-5.87787	0	
1.4160	7.6606	-5.5703	0	
1.4167	6.75021	-3.72493	0	
1.4173	6.15068	-3.72493	0	
1.4180	3.70817	-4.64762	0	
1.4187	1.26566	-3.14398	0	
1.4193	0.0444093	-0.991036	0	
1.4200	-4.52974	-0.991036	0	
1.4207	-10.636	0.854341	0	
1.4213	-11.2577	2.66554	0	
1.4220	-8.50437	2.66554	0	
1.4227	-8.19351	4.51092	0	
1.4233	-9.1261	6.01456	0	
1.4240	-10.3252	5.12605	0	
1.4247	-10.0365	4.51092	0	
1.4253	-5.751	4.51092	0	
1.4260	-4.84061	4.51092	0	
1.4267	-9.41476	4.51092	0	
1.4273	-10.636	1.12773	0	
1.4280	-6.68359	-2.52885	0	
1.4287	-6.37273	-0.683473	0	
1.4293	-9.41476	0.854341	0	
1.4300	-10.3252	-0.0683473	0	
1.4307	-6.97225	1.12773	0	
1.4313	-4.84061	1.74286	0	
1.4320	-4.84061	-2.22129	0	
1.4327	-4.84061	-2.83641	0	
1.4333	-3.01983	-0.991036	0	
1.4340	-1.79858	-2.83641	0	
1.4347	0.0444093	-3.72493	0	
1.4353	1.86519	-1.91372	0	
1.4360	1.57653	-2.52885	0	
1.4367	0.954799	-2.83641	0	
1.4373	1.86519	-0.0683473	0	
1.4380	2.17605	1.12773	0	
1.4387	1.86519	-1.2986	0	
1.4393	2.48692	-3.14398	0	
1.4400	3.39731	-3.45154	0	
1.4407	5.21809	-2.52885	0	
1.4413	8.88185	-1.2986	0	
1.4420	10.414	-1.60616	0	
1.4427	8.88185	-0.991036	0	
1.4433	7.97146	-0.37591	0	
1.4440	7.06107	-1.91372	0	
1.4447	7.6606	-3.72493	0	
1.4453	10.414	-4.03249	0	
1.4460	10.1031	-3.72493	0	
1.4467	7.97146	-4.34005	0	
1.4473	9.81445	-4.34005	0	
1.4480	12.5456	-4.03249	0	
1.4487	10.7248	-3.72493	0	
1.4493	9.81445	-2.83641	0	
1.4500	9.81445	-1.60616	0	
1.4507	6.15068	-0.683473	0	
1.4513	5.21809	0.854341	0	
1.4520	6.75021	0.854341	0	
1.4527	3.39731	-2.83641	0	
1.4533	0.355274	-5.87787	0	
1.4540	1.57653	-4.95518	0	
1.4547	1.86519	-3.14398	0	
1.4553	0.643934	-1.91372	0	
1.4560	2.48692	-0.37591	0	
1.4567	2.77558	0.854341	0	
1.4573	0.355274	1.74286	0	
1.4580	-1.17685	2.66554	0	
1.4587	-0.266456	1.74286	0	
1.4593	1.26566	0.854341	0	
1.4600	2.48692	1.43529	0	
1.4607	3.70817	2.66554	0	
1.4613	3.70817	2.35798	0	
1.4620	2.17605	1.43529	0	
1.4627	-0.266456	1.43529	0	
1.4633	-1.79858	2.66554	0	
1.4640	-5.46234	3.58823	0	
1.4647	-11.5464	2.35798	0	
1.4653	-14.9215	2.66554	0	
1.4660	-15.8319	4.20336	0	
1.4667	-17.6527	4.20336	0	
1.4673	-17.6527	2.97311	0	
1.4680	-15.8319	3.58823	0	
1.4687	-17.364	4.51092	0	
1.4693	-17.364	4.51092	0	
1.4700	-14.9215	3.58823	0	
1.4707	-14.2998	0.854341	0	
1.4713	-11.2577	-2.83641	0	
1.4720	-3.30849	-4.64762	0	
1.4727	0.355274	-2.22129	0	
1.4733	1.57653	0.239216	0	
1.4740	5.83982	-2.52885	0	
1.4747	7.97146	-5.26274	0	
1.4753	5.21809	-3.72493	0	
1.4760	5.83982	-2.83641	0	
1.4767	6.43934	-3.72493	0	
1.4773	4.3077	-3.72493	0	
1.4780	2.77558	-2.83641	0	
1.4787	1.57653	-2.52885	0	
1.4793	-1.48771	-1.91372	0	
1.4800	-3.01983	-0.991036	0	
1.4807	-4.84061	-0.0683473	0	
1.4813	-6.68359	0.546778	0	
1.4820	-6.68359	-0.683473	0	
1.4827	-6.06186	-1.91372	0	
1.4833	-8.50437	0.239216	0	
1.4840	-11.2577	4.20336	0	
1.4847	-11.2577	5.12605	0	
1.4853	-9.41476	3.58823	0	
1.4860	-7.90485	3.58823	0	
1.4867	-8.19351	4.20336	0	
1.4873	-7.90485	3.28067	0	
1.4880	-5.46234	2.66554	0	
1.4887	-4.24108	3.28067	0	
1.4893	-3.93022	2.05042	0	
1.4900	-1.79858	0.546778	0	
1.4907	-0.266456	1.74286	0	
1.4913	0.954799	1.74286	0	
1.4920	4.3077	-1.2986	0	
1.4927	6.75021	-1.91372	0	
1.4933	7.06107	-0.991036	0	
1.4940	7.97146	-3.14398	0	
1.4947	9.50358	-3.72493	0	
1.4953	12.5456	-0.991036	0	
1.4960	15.8985	-0.991036	0	
1.4967	15.6099	-3.72493	0	
1.4973	14.0777	-3.72493	0	
1.4980	15.299	-2.52885	0	
1.4987	16.2094	-3.45154	0	
1.4993	13.7669	-3.45154	0	
1.5000	10.7248	-2.83641	0	
1.5007	8.88185	-3.72493	0	
1.5013	8.59319	-4.64762	0	
1.5020	7.97146	-2.83641	0	
1.5027	4.92943	-0.0683473	0	
1.5033	2.17605	0.854341	0	
1.5040	2.48692	-1.2986	0	
1.5047	3.70817	-4.03249	0	
1.5053	1.57653	-3.72493	0	
1.5060	-0.266456	-1.60616	0	
1.5067	-0.865981	-0.0683473	0	
1.5073	-1.79858	1.74286	0	
1.5080	-2.70896	4.51092	0	
1.5087	-2.3981	4.51092	0	
1.5093	-2.3981	2.66554	0	
1.5100	-1.17685	1.43529	0	
1.5107	1.86519	2.66554	0	
1.5113	1.26566	4.51092	0	
1.5120	-3.01983	3.8958	0	
1.5127	-3.01983	0.546778	0	
1.5133	-0.57732	-1.2986	0	
1.5140	-3.30849	-0.0683473	0	
1.5147	-6.06186	0.546778	0	
1.5153	-5.751	0.239216	0	
1.5160	-6.37273	-0.37591	0	
1.5167	-7.90485	-0.683473	0	
1.5173	-7.90485	0.239216	0	
1.5180	-8.50437	1.12773	0	
1.5187	-10.0365	0.239216	0	
1.5193	-9.41476	-0.37591	0	
1.5200	-7.59398	0.546778	0	
1.5207	-4.84061	0.854341	0	
1.5213	-3.30849	0.854341	0	
1.5220	-2.08724	1.74286	0	
1.5227	0.954799	1.74286	0	
1.5233	6.75021	-0.0683473	0	
1.5240	12.5456	-1.60616	0	
1.5247	14.0777	-0.0683473	0	
1.5253	13.4782	0.854341	0	
1.5260	13.7669	-2.83641	0	
1.5267	15.299	-4.95518	0	
1.5273	15.299	-3.72493	0	
1.5280	11.6352	-4.64762	0	
1.5287	7.97146	-7.41568	0	
1.5293	7.06107	-5.5703	0	
1.5300	4.92943	-2.83641	0	
1.5307	1.57653	-2.83641	0	
1.5313	-1.48771	-3.72493	0	
1.5320	-5.15147	-2.83641	0	
1.5327	-10.636	-1.91372	0	
1.5333	-13.7003	-1.60616	0	
1.5340	-12.1681	-2.22129	0	
1.5347	-8.50437	-1.91372	0	
1.5353	-5.15147	0.546778	0	
1.5360	-4.52974	-0.0683473	0	
1.5367	-4.52974	-2.52885	0	
1.5373	-1.17685	-1.91372	0	
1.5380	0.643934	-2.22129	0	
1.5387	-0.57732	-2.52885	0	
1.5393	1.26566	0.239216	0	
1.5400	3.39731	1.74286	0	
1.5407	0.0444093	1.12773	0	
1.5413	-5.751	1.43529	0	
1.5420	-8.19351	1.43529	0	
1.5427	-8.50437	3.58823	0	
1.5433	-9.1261	6.32212	0	
1.5440	-9.41476	5.39944	0	
1.5447	-10.0365	6.01456	0	
1.5453	-11.2577	8.1675	0	
1.5460	-12.1681	6.93725	0	
1.5467	-12.479	5.707	0	
1.5473	-12.1681	8.1675	0	
1.5480	-10.0365	5.39944	0	
1.5487	-8.19351	0.239216	0	
1.5493	-7.28312	0.546778	0	
1.5500	-5.751	0.854341	0	
1.5507	-5.15147	0.239216	0	
1.5513	-5.751	2.66554	0	
1.5520	-4.84061	1.74286	0	
1.5527	-3.30849	-1.91372	0	
1.5533	-4.84061	-1.2986	0	
1.5540	-6.68359	1.43529	0	
1.5547	-6.37273	1.12773	0	
1.5553	-4.52974	1.74286	0	
1.5560	0.0444093	3.58823	0	
1.5567	3.99683	3.58823	0	
1.5573	3.70817	-0.0683473	0	
1.5580	4.3077	-1.60616	0	
1.5587	6.75021	1.74286	0	
1.5593	6.43934	3.58823	0	
1.5600	7.06107	-1.2986	0	
1.5607	12.257	-3.72493	0	
1.5613	12.8565	-2.52885	0	
1.5620	10.1031	-3.72493	0	
1.5627	12.5456	-4.95518	0	
1.5633	14.3886	-2.22129	0	
1.5640	10.1031	-0.991036	0	
1.5647	8.59319	-3.45154	0	
1.5653	10.1031	-4.03249	0	
1.5660	8.88185	-2.83641	0	
1.5667	6.43934	-1.91372	0	
1.5673	3.99683	-4.03249	0	
1.5680	-0.266456	-5.5703	0	
1.5687	-1.79858	-2.52885	0	
1.5693	0.355274	-0.991036	0	
1.5700	-2.08724	-1.91372	0	
1.5707	-4.84061	-0.683473	0	
1.5713	-2.70896	0.239216	0	
1.5720	-1.48771	-2.83641	0	
1.5727	-1.48771	-3.72493	0	
1.5733	3.08644	-2.52885	0	
1.5740	8.59319	-3.72493	0	
1.5747	10.1031	-3.45154	0	
1.5753	10.414	0.854341	0	
1.5760	10.7248	1.74286	0	
1.5767	8.88185	0.854341	0	
1.5773	6.15068	0.546778	0	
1.5780	5.83982	-1.91372	0	
1.5787	5.21809	-1.60616	0	
1.5793	1.86519	0.854341	0	
1.5800	-3.01983	-0.0683473	0	
1.5807	-6.37273	-0.683473	0	
1.5813	-10.0365	2.66554	0	
1.5820	-11.2577	2.66554	0	
1.5827	-10.3252	0.546778	0	
1.5833	-11.2577	1.12773	0	
1.5840	-13.3894	-0.0683473	0	
1.5847	-12.479	-3.45154	0	
1.5853	-10.3252	-2.83641	0	
1.5860	-8.81524	-0.991036	0	
1.5867	-7.59398	-2.83641	0	
1.5873	-7.28312	-3.72493	0	
1.5880	-6.97225	-3.45154	0	
1.5887	-5.15147	-3.45154	0	
1.5893	-4.52974	-4.34005	0	
1.5900	-3.93022	-5.26274	0	
1.5907	0.643934	-5.26274	0	
1.5913	5.21809	-4.95518	0	
1.5920	5.21809	-5.87787	0	
1.5927	7.06107	-6.18543	0	
1.5933	8.28233	-5.5703	0	
1.5940	4.92943	-7.10812	0	
1.5947	3.39731	-7.41568	0	
1.5953	8.28233	-4.64762	0	
1.5960	10.1031	-5.87787	0	
1.5967	6.75021	-7.99663	0	
1.5973	5.52895	-4.34005	0	
1.5980	5.21809	-1.60616	0	
1.5987	3.39731	-2.83641	0	
1.5993	2.17605	-1.91372	0	
1.6000	1.26566	0.854341	0	
1.6007	0.0444093	1.12773	0	
1.6013	-0.865981	1.12773	0	
1.6020	-3.30849	3.8958	0	
1.6027	-6.37273	6.32212	0	
1.6033	-6.06186	6.62969	0	
1.6040	-5.46234	7.24481	0	
1.6047	-7.59398	8.1675	0	
1.6053	-10.0365	5.707	0	
1.6060	-10.3252	2.66554	0	
1.6067	-8.50437	3.8958	0	
1.6073	-6.37273	5.707	0	
1.6080	-6.37273	3.58823	0	
1.6087	-5.751	2.05042	0	
1.6093	-3.93022	2.66554	0	
1.6100	-5.15147	1.74286	0	
1.6107	-5.751	-0.0683473	0	
1.6113	-1.17685	-0.37591	0	
1.6120	3.39731	-0.683473	0	
1.6127	5.52895	-0.991036	0	
1.6133	6.75021	-0.683473	0	
1.6140	8.59319	-0.991036	0	
1.6147	9.50358	-3.14398	0	
1.6153	8.28233	-3.72493	0	
1.6160	7.06107	-1.91372	0	
1.6167	7.06107	0.239216	0	
1.6173	6.75021	-0.991036	0	
1.6180	6.43934	-3.72493	0	
1.6187	7.97146	-3.72493	0	
1.6193	10.1031	-2.83641	0	
1.6200	12.5456	-3.72493	0	
1.6207	14.3886	-5.26274	0	
1.6213	13.7669	-6.49299	0	
1.6220	10.7248	-4.95518	0	
1.6227	7.97146	-2.52885	0	
1.6233	7.37194	-2.52885	0	
1.6240	7.06107	-2.83641	0	
1.6247	4.92943	-0.991036	0	
1.6253	3.39731	-1.91372	0	
1.6260	4.61856	-4.34005	0	
1.6267	5.21809	-1.91372	0	
1.6273	1.26566	1.74286	0	
1.6280	-4.24108	-0.37591	0	
1.6287	-5.15147	-1.91372	0	
1.6293	-5.15147	0.854341	0	
1.6300	-10.0365	2.66554	0	
1.6307	-15.8319	2.66554	0	
1.6313	-15.521	2.35798	0	
1.6320	-12.7677	0.854341	0	
1.6327	-13.3894	0.854341	0	
1.6333	-15.2102	1.74286	0	
1.6340	-13.3894	0.546778	0	
1.6347	-10.0365	0.854341	0	
1.6353	-9.72563	3.58823	0	
1.6360	-11.2577	2.66554	0	
1.6367	-9.72563	0.854341	0	
1.6373	-7.90485	2.66554	0	
1.6380	-7.59398	3.28067	0	
1.6387	-5.751	1.12773	0	
1.6393	-3.93022	0.854341	0	
1.6400	-3.01983	2.05042	0	
1.6407	-0.865981	1.74286	0	
1.6413	2.77558	0.546778	0	
1.6420	3.70817	-1.91372	0	
1.6427	2.48692	-0.991036	0	
1.6433	0.643934	2.66554	0	
1.6440	-2.08724	2.66554	0	
1.6447	-2.3981	-0.991036	0	
1.6453	-0.266456	-2.52885	0	
1.6460	-0.865981	-1.60616	0	
1.6467	-3.93022	-0.37591	0	
1.6473	-4.84061	0.239216	0	
1.6480	-3.61935	-1.60616	0	
1.6487	-3.93022	-2.83641	0	
1.6493	-3.30849	-1.2986	0	
1.6500	0.954799	-1.60616	0	
1.6507	3.70817	-3.72493	0	
1.6513	1.86519	-3.14398	0	
1.6520	2.48692	-2.22129	0	
1.6527	5.21809	-2.83641	0	
1.6533	3.99683	-5.26274	0	
1.6540	5.21809	-7.41568	0	
1.6547	11.3244	-4.34005	0	
1.6553	10.7248	0.239216	0	
1.6560	7.06107	-0.991036	0	
1.6567	9.50358	-2.83641	0	
1.6573	9.50358	-0.37591	0	
1.6580	4.3077	-0.991036	0	
1.6587	4.92943	-3.72493	0	
1.6593	6.75021	-1.91372	0	
1.6600	4.3077	0.239216	0	
1.6607	3.08644	-0.683473	0	
1.6613	3.39731	1.43529	0	
1.6620	1.57653	4.20336	0	
1.6627	-0.266456	3.8958	0	
1.6633	-4.52974	3.8958	0	
1.6640	-10.0365	2.66554	0	
1.6647	-7.59398	0.854341	0	
1.6653	-3.93022	3.58823	0	
1.6660	-6.97225	4.81848	0	
1.6667	-8.50437	1.43529	0	
1.6673	-5.751	2.97311	0	
1.6680	-5.751	7.24481	0	
1.6687	-6.37273	5.12605	0	
1.6693	-3.93022	1.43529	0	
1.6700	-4.84061	2.35798	0	
1.6707	-4.84061	2.66554	0	
1.6713	0.0444093	1.74286	0	
1.6720	2.17605	1.74286	0	
1.6727	1.86519	1.74286	0	
1.6733	5.52895	1.74286	0	
1.6740	9.81445	1.74286	0	
1.6747	9.81445	1.12773	0	
1.6753	9.50358	-0.0683473	0	
1.6760	10.1031	-1.2986	0	
1.6767	10.414	-0.991036	0	
1.6773	9.50358	0.854341	0	
1.6780	7.97146	-0.0683473	0	
1.6787	6.75021	-0.683473	0	
1.6793	5.21809	2.05042	0	
1.6800	3.70817	1.43529	0	
1.6807	3.39731	-4.95518	0	
1.6813	4.3077	-5.87787	0	
1.6820	6.15068	-1.60616	0	
1.6827	7.06107	-1.91372	0	
1.6833	5.83982	-4.64762	0	
1.6840	5.83982	-3.72493	0	
1.6847	6.15068	-3.72493	0	
1.6853	3.39731	-4.64762	0	
1.6860	0.355274	-3.72493	0	
1.6867	1.57653	-3.72493	0	
1.6873	1.86519	-3.45154	0	
1.6880	-2.70896	-0.991036	0	
1.6887	-5.751	-0.0683473	0	
1.6893	-5.15147	0.854341	0	
1.6900	-6.06186	4.51092	0	
1.6907	-9.41476	7.24481	0	
1.6913	-11.8573	6.32212	0	
1.6920	-12.479	5.12605	0	
1.6927	-13.9889	3.58823	0	
1.6933	-17.9635	3.58823	0	
1.6940	-19.4957	4.20336	0	
1.6947	-16.7423	1.43529	0	
1.6953	-13.0785	-1.60616	0	
1.6960	-10.3252	-0.0683473	0	
1.6967	-7.90485	2.05042	0	
1.6973	-4.84061	0.854341	0	
1.6980	-1.17685	-2.83641	0	
1.6987	2.17605	-3.72493	0	
1.6993	2.77558	-0.991036	0	
1.7000	3.39731	-0.0683473	0	
1.7007	6.15068	-3.45154	0	
1.7013	8.88185	-2.83641	0	
1.7020	9.19272	-0.37591	0	
1.7027	7.06107	-0.991036	0	
1.7033	2.48692	-1.91372	0	
1.7040	-1.48771	-2.52885	0	
1.7047	-2.70896	-3.72493	0	
1.7053	-3.30849	-2.22129	0	
1.7060	-5.15147	-2.83641	0	
1.7067	-7.90485	-5.26274	0	
1.7073	-9.41476	-2.83641	0	
1.7080	-8.50437	0.546778	0	
1.7087	-7.59398	-1.91372	0	
1.7093	-8.50437	-2.83641	0	
1.7100	-9.41476	-0.991036	0	
1.7107	-6.68359	-0.683473	0	
1.7113	-4.24108	0.546778	0	
1.7120	-3.01983	1.74286	0	
1.7127	-2.3981	0.239216	0	
1.7133	-2.08724	-0.991036	0	
1.7140	-1.17685	-1.60616	0	
1.7147	2.48692	-2.52885	0	
1.7153	8.28233	-1.91372	0	
1.7160	13.7669	-1.60616	0	
1.7167	18.9628	-2.83641	0	
1.7173	24.4473	-4.64762	0	
1.7180	27.5115	-5.87787	0	
1.7187	27.2007	-5.5703	0	
1.7193	25.069	-5.5703	0	
1.7200	22.0048	-7.41568	0	
1.7207	18.0524	-7.41568	0	
1.7213	16.5202	-5.26274	0	
1.7220	16.2094	-6.18543	0	
1.7227	11.9461	-6.80056	0	
1.7233	6.15068	-4.34005	0	
1.7240	1.57653	-3.72493	0	
1.7247	-3.93022	-4.03249	0	
1.7253	-11.5464	-2.22129	0	
1.7260	-17.6527	-0.991036	0	
1.7267	-20.7169	-1.2986	0	
1.7273	-22.8486	-0.37591	0	
1.7280	-23.4481	-0.991036	0	
1.7287	-22.2268	-0.683473	0	
1.7293	-21.3164	2.35798	0	
1.7300	-19.8065	3.8958	0	
1.7307	-17.0532	2.66554	0	
1.7313	-14.9215	1.12773	0	
1.7320	-11.8573	0.854341	0	
1.7327	-6.97225	2.66554	0	
1.7333	-4.84061	5.12605	0	
1.7340	-6.68359	3.58823	0	
1.7347	-5.46234	1.43529	0	
1.7353	-2.08724	1.74286	0	
1.7360	-1.17685	2.66554	0	
1.7367	-1.48771	1.74286	0	
1.7373	-0.266456	-0.683473	0	
1.7380	-0.266456	-0.991036	0	
1.7387	-1.79858	2.66554	0	
1.7393	0.0444093	6.32212	0	
1.7400	2.48692	6.32212	0	
1.7407	1.26566	4.81848	0	
1.7413	-1.48771	2.05042	0	
1.7420	-1.17685	-0.683473	0	
1.7427	1.26566	-0.991036	0	
1.7433	2.48692	0.854341	0	
1.7440	3.39731	0.854341	0	
1.7447	2.77558	-0.991036	0	
1.7453	2.17605	-2.52885	0	
1.7460	0.954799	-2.83641	0	
1.7467	0.643934	-2.83641	0	
1.7473	1.86519	-3.14398	0	
1.7480	2.17605	-3.72493	0	
1.7487	1.57653	-2.83641	0	
1.7493	2.48692	-0.991036	0	
1.7500	3.08644	0.239216	0	
1.7507	1.86519	0.546778	0	
1.7513	2.48692	-1.2986	0	
1.7520	5.52895	-3.72493	0	
1.7527	6.43934	-3.72493	0	
1.7533	4.61856	-4.64762	0	
1.7540	3.99683	-4.64762	0	
1.7547	6.75021	-1.91372	0	
1.7553	11.0357	0.854341	0	
1.7560	12.5456	0.546778	0	
1.7567	13.4782	-0.0683473	0	
1.7573	18.341	-0.683473	0	
1.7580	23.8478	-3.45154	0	
1.7587	22.6265	-4.03249	0	
1.7593	21.4053	-1.91372	0	
1.7600	25.3799	-2.22129	0	
1.7607	27.8002	-4.64762	0	
1.7613	27.2007	-5.5703	0	
1.7620	26.2903	-4.64762	0	
1.7627	23.226	-4.64762	0	
1.7633	18.6519	-5.5703	0	
1.7640	14.3886	-4.64762	0	
1.7647	6.75021	-1.60616	0	
1.7653	-1.17685	0.546778	0	
1.7660	-6.68359	0.546778	0	
1.7667	-12.7677	1.74286	0	
1.7673	-20.7169	2.97311	0	
1.7680	-25.2911	2.97311	0	
1.7687	-28.3331	4.81848	0	
1.7693	-33.529	7.24481	0	
1.7700	-36.8819	7.85994	0	
1.7707	-35.0611	8.1675	0	
1.7713	-30.1761	9.09019	0	
1.7720	-26.5123	10.9014	0	
1.7727	-25.8906	12.7468	0	
1.7733	-24.6693	11.5165	0	
1.7740	-21.0278	9.67114	0	
1.7747	-16.1428	11.8241	0	
1.7753	-12.1681	11.8241	0	
1.7760	-10.3252	8.1675	0	
1.7767	-7.59398	6.62969	0	
1.7773	-3.61935	7.85994	0	
1.7780	-1.79858	7.24481	0	
1.7787	-2.08724	5.12605	0	
1.7793	-0.865981	4.51092	0	
1.7800	-0.57732	4.20336	0	
1.7807	-1.79858	1.74286	0	
1.7813	0.355274	-0.683473	0	
1.7820	3.08644	0.854341	0	
1.7827	2.48692	2.35798	0	
1.7833	0.954799	1.43529	0	
1.7840	1.26566	2.66554	0	
1.7847	0.954799	3.58823	0	
1.7853	0.643934	0.854341	0	
1.7860	0.954799	0.854341	0	
1.7867	2.48692	2.66554	0	
1.7873	3.08644	0.854341	0	
1.7880	1.86519	-0.0683473	0	
1.7887	1.26566	0.546778	0	
1.7893	2.48692	-1.60616	0	
1.7900	2.48692	-0.683473	0	
1.7907	1.26566	3.58823	0	
1.7913	1.57653	1.74286	0	
1.7920	3.39731	-1.2986	0	
1.7927	5.21809	-0.37591	0	
1.7933	4.61856	-1.60616	0	
1.7940	3.39731	-3.14398	0	
1.7947	4.3077	-1.60616	0	
1.7953	4.92943	-0.991036	0	
1.7960	6.15068	-0.37591	0	
1.7967	10.7248	0.854341	0	
1.7973	12.8565	-2.22129	0	
1.7980	14.6995	-5.5703	0	
1.7987	23.8478	-3.72493	0	
1.7993	33.3069	-2.22129	0	
1.8000	32.9961	-3.72493	0	
1.8007	31.7748	-5.5703	0	
1.8013	32.3966	-5.5703	0	
1.8020	28.1111	-3.72493	0	
1.8027	21.7161	-2.83641	0	
1.8033	18.0524	-3.72493	0	
1.8040	11.9461	-2.52885	0	
1.8047	3.99683	-0.991036	0	
1.8053	-2.08724	-3.14398	0	
1.8060	-9.1261	-2.22129	0	
1.8067	-17.0532	1.43529	0	
1.8073	-22.5377	0.854341	0	
1.8080	-25.2911	-0.0683473	0	
1.8087	-28.0444	2.05042	0	
1.8093	-30.487	2.66554	0	
1.8100	-30.487	2.66554	0	
1.8107	-27.7336	4.51092	0	
1.8113	-26.8232	4.81848	0	
1.8120	-25.6019	3.58823	0	
1.8127	-18.5853	2.97311	0	
1.8133	-8.50437	-0.0683473	0	
1.8140	-2.08724	-2.83641	0	
1.8147	1.26566	-1.2986	0	
1.8153	4.3077	0.546778	0	
1.8160	3.08644	-1.60616	0	
1.8167	-0.266456	-2.83641	0	
1.8173	0.643934	-0.0683473	0	
1.8180	0.954799	1.74286	0	
1.8187	-3.01983	-0.683473	0	
1.8193	-3.93022	-1.91372	0	
1.8200	-3.01983	-0.0683473	0	
1.8207	-8.19351	1.43529	0	
1.8213	-12.479	1.12773	0	
1.8220	-11.2577	1.12773	0	
1.8227	-11.5464	2.66554	0	
1.8233	-10.3252	4.81848	0	
1.8240	-5.15147	6.62969	0	
1.8247	-5.751	7.24481	0	
1.8253	-10.9469	5.39944	0	
1.8260	-9.41476	6.01456	0	
1.8267	-4.84061	8.47506	0	
1.8273	-1.79858	6.93725	0	
1.8280	0.954799	2.66554	0	
1.8287	0.643934	2.05042	0	
1.8293	-0.865981	2.97311	0	
1.8300	0.954799	1.43529	0	
1.8307	1.57653	-0.0683473	0	
1.8313	1.26566	-1.2986	0	
1.8320	5.52895	-1.60616	0	
1.8327	7.06107	-0.683473	0	
1.8333	3.39731	-1.91372	0	
1.8340	3.39731	-3.72493	0	
1.8347	6.15068	-1.2986	0	
1.8353	7.06107	0.546778	0	
1.8360	8.59319	-0.991036	0	
1.8367	8.59319	-2.22129	0	
1.8373	6.75021	-1.91372	0	
1.8380	9.19272	-1.91372	0	
1.8387	11.6352	-3.45154	0	
1.8393	10.414	-5.87787	0	
1.8400	11.6352	-5.5703	0	
1.8407	15.299	-1.91372	0	
1.8413	12.5456	-0.991036	0	
1.8420	8.59319	-3.14398	0	
1.8427	8.59319	-2.83641	0	
1.8433	8.28233	-2.83641	0	
1.8440	7.06107	-4.64762	0	
1.8447	7.97146	-3.72493	0	
1.8453	9.50358	-3.14398	0	
1.8460	15.299	-7.41568	0	
1.8467	25.6686	-12.2683	0	
1.8473	29.0215	-11.6874	0	
1.8480	25.3799	-7.41568	0	
1.8487	23.8478	-4.64762	0	
1.8493	24.4473	-6.49299	0	
1.8500	19.8731	-9.53445	0	
1.8507	15.299	-7.41568	0	
1.8513	13.7669	-4.64762	0	
1.8520	9.50358	-5.87787	0	
1.8527	0.643934	-5.5703	0	
1.8533	-6.06186	-1.91372	0	
1.8540	-9.41476	-0.991036	0	
1.8547	-15.2102	-0.991036	0	
1.8553	-23.1594	1.74286	0	
1.8560	-28.3331	3.58823	0	
1.8567	-30.1761	4.20336	0	
1.8573	-30.487	4.81848	0	
1.8580	-29.5544	4.51092	0	
1.8587	-28.0444	4.51092	0	
1.8593	-26.8232	6.01456	0	
1.8600	-26.2015	6.93725	0	
1.8607	-24.0698	6.32212	0	
1.8613	-19.4957	4.81848	0	
1.8620	-15.8319	2.66554	0	
1.8627	-13.3894	2.66554	0	
1.8633	-9.1261	5.12605	0	
1.8640	-6.97225	5.39944	0	
1.8647	-8.50437	2.97311	0	
1.8653	-6.37273	2.66554	0	
1.8660	-1.79858	3.28067	0	
1.8667	-2.70896	1.74286	0	
1.8673	-3.01983	-0.991036	0	
1.8680	0.0444093	-0.991036	0	
1.8687	-0.57732	-0.683473	0	
1.8693	-0.57732	-0.683473	0	
1.8700	2.48692	0.854341	0	
1.8707	1.57653	0.854341	0	
1.8713	-1.17685	-1.91372	0	
1.8720	0.643934	-2.83641	0	
1.8727	0.643934	-0.0683473	0	
1.8733	-1.17685	0.854341	0	
1.8740	-2.08724	-0.991036	0	
1.8747	-3.30849	-0.0683473	0	
1.8753	-4.52974	1.43529	0	
1.8760	-5.751	-0.37591	0	
1.8767	-6.37273	-1.2986	0	
1.8773	-2.70896	1.43529	0	
1.8780	1.57653	1.74286	0	
1.8787	-1.17685	-0.991036	0	
1.8793	-3.01983	-0.683473	0	
1.8800	-1.48771	0.546778	0	
1.8807	-1.17685	-0.991036	0	
1.8813	1.26566	-0.991036	0	
1.8820	3.70817	1.74286	0	
1.8827	2.48692	2.66554	0	
1.8833	4.3077	1.74286	0	
1.8840	9.50358	0.239216	0	
1.8847	8.59319	-0.991036	0	
1.8853	7.37194	-0.37591	0	
1.8860	13.1673	-3.14398	0	
1.8867	18.9628	-8.61176	0	
1.8873	25.6686	-10.1496	0	
1.8880	34.5282	-8.91932	0	
1.8887	36.9707	-10.1496	0	
1.8893	35.1277	-10.1496	0	
1.8900	34.2173	-8.3042	0	
1.8907	29.6432	-9.22688	0	
1.8913	25.069	-10.4571	0	
1.8920	24.4473	-10.7647	0	
1.8927	18.0524	-8.91932	0	
1.8933	7.97146	-4.64762	0	
1.8940	3.99683	-2.83641	0	
1.8947	-0.57732	-3.14398	0	
1.8953	-11.5464	0.546778	0	
1.8960	-19.1848	5.39944	0	
1.8967	-24.3807	6.32212	0	
1.8973	-31.9969	6.62969	0	
1.8980	-35.6606	7.85994	0	
1.8987	-35.6606	7.24481	0	
1.8993	-37.5036	8.1675	0	
1.9000	-37.7923	10.9014	0	
1.9007	-35.0611	9.09019	0	
1.9013	-31.7082	6.32212	0	
1.9020	-27.1119	7.24481	0	
1.9027	-22.2268	8.1675	0	
1.9033	-19.4957	8.1675	0	
1.9040	-15.8319	9.9787	0	
1.9047	-11.2577	11.209	0	
1.9053	-9.41476	7.24481	0	
1.9060	-7.59398	2.66554	0	
1.9067	-3.01983	2.35798	0	
1.9073	-0.266456	2.66554	0	
1.9080	-0.865981	-0.991036	0	
1.9087	0.0444093	-3.72493	0	
1.9093	2.77558	-3.45154	0	
1.9100	3.39731	-1.91372	0	
1.9107	2.48692	-1.91372	0	
1.9113	4.61856	-1.2986	0	
1.9120	7.06107	-1.91372	0	
1.9127	7.37194	-2.52885	0	
1.9133	9.50358	-2.22129	0	
1.9140	11.6352	-2.83641	0	
1.9147	11.6352	-3.72493	0	
1.9153	11.9461	-1.91372	0	
1.9160	11.9461	-0.0683473	0	
1.9167	11.6352	-0.37591	0	
1.9173	12.5456	-0.37591	0	
1.9180	13.4782	0.546778	0	
1.9187	13.4782	0.546778	0	
1.9193	14.6995	-0.0683473	0	
1.9200	14.0777	-1.2986	0	
1.9207	9.81445	-2.83641	0	
1.9213	7.6606	-1.91372	0	
1.9220	7.6606	-0.991036	0	
1.9227	7.06107	-2.22129	0	
1.9233	4.61856	-2.83641	0	
1.9240	2.77558	-1.60616	0	
1.9247	1.57653	-1.2986	0	
1.9253	0.643934	-2.22129	0	
1.9260	-1.17685	-2.52885	0	
1.9267	-2.08724	-3.14398	0	
1.9273	-4.52974	-3.72493	0	
1.9280	-7.59398	-2.83641	0	
1.9287	-7.90485	-1.91372	0	
1.9293	-5.751	-1.91372	0	
1.9300	-6.97225	-1.91372	0	
1.9307	-8.19351	-2.22129	0	
1.9313	-5.46234	-3.14398	0	
1.9320	-2.3981	-1.91372	0	
1.9327	-2.08724	-0.0683473	0	
1.9333	-1.79858	-0.991036	0	
1.9340	0.643934	-2.52885	0	
1.9347	1.26566	0.239216	0	
1.9353	-2.08724	4.51092	0	
1.9360	-2.08724	4.81848	0	
1.9367	7.06107	0.854341	0	
1.9373	13.4782	-3.14398	0	
1.9380	9.81445	-3.14398	0	
1.9387	7.97146	-0.991036	0	
1.9393	11.6352	-0.991036	0	
1.9400	11.0357	-0.991036	0	
1.9407	7.06107	0.239216	0	
1.9413	7.06107	-0.0683473	0	
1.9420	6.43934	-3.72493	0	
1.9427	0.954799	-3.14398	0	
1.9433	-3.61935	1.12773	0	
1.9440	-4.24108	2.35798	0	
1.9447	-4.52974	-0.0683473	0	
1.9453	-5.751	-1.91372	0	
1.9460	-6.37273	-1.91372	0	
1.9467	-6.68359	-0.37591	0	
1.9473	-8.50437	0.546778	0	
1.9480	-10.3252	-0.991036	0	
1.9487	-10.0365	-0.683473	0	
1.9493	-10.3252	2.35798	0	
1.9500	-12.1681	3.58823	0	
1.9507	-10.9469	2.66554	0	
1.9513	-6.97225	1.12773	0	
1.9520	-4.84061	-1.60616	0	
1.9527	-3.01983	-1.91372	0	
1.9533	0.0444093	1.43529	0	
1.9540	0.954799	1.74286	0	
1.9547	0.643934	0.546778	0	
1.9553	3.99683	2.97311	0	
1.9560	7.06107	4.51092	0	
1.9567	6.15068	1.74286	0	
1.9573	5.21809	0.546778	0	
1.9580	7.06107	0.546778	0	
1.9587	6.75021	-1.2986	0	
1.9593	5.21809	-2.83641	0	
1.9600	6.75021	-2.52885	0	
1.9607	7.6606	-2.22129	0	
1.9613	4.92943	-3.14398	0	
1.9620	3.39731	-3.72493	0	
1.9627	5.83982	-3.72493	0	
1.9633	6.75021	-1.60616	0	
1.9640	5.21809	-0.37591	0	
1.9647	3.70817	-1.2986	0	
1.9653	2.48692	-2.52885	0	
1.9660	-0.57732	-3.45154	0	
1.9667	-3.30849	-3.45154	0	
1.9673	-3.01983	-1.91372	0	
1.9680	-1.79858	-1.60616	0	
1.9687	-2.08724	-2.52885	0	
1.9693	-2.3981	-0.37591	0	
1.9700	-3.93022	0.546778	0	
1.9707	-5.751	-2.22129	0	
1.9713	-5.15147	-1.60616	0	
1.9720	-2.08724	2.05042	0	
1.9727	-1.48771	2.97311	0	
1.9733	-1.48771	3.8958	0	
1.9740	0.0444093	4.51092	0	
1.9747	1.26566	1.74286	0	
1.9753	2.77558	-0.0683473	0	
1.9760	6.75021	0.546778	0	
1.9767	8.28233	-0.37591	0	
1.9773	6.15068	-0.991036	0	
1.9780	4.3077	-0.0683473	0	
1.9787	3.39731	-0.0683473	0	
1.9793	2.48692	-0.0683473	0	
1.9800	2.17605	2.35798	0	
1.9807	1.57653	4.51092	0	
1.9813	-0.865981	4.51092	0	
1.9820	-3.61935	2.35798	0	
1.9827	-3.93022	1.74286	0	
1.9833	-3.61935	1.12773	0	
1.9840	-3.93022	-0.991036	0	
1.9847	-1.48771	-2.22129	0	
1.9853	2.48692	-2.52885	0	
1.9860	5.21809	-3.14398	0	
1.9867	6.75021	-2.83641	0	
1.9873	7.06107	-3.72493	0	
1.9880	4.3077	-6.18543	0	
1.9887	1.57653	-4.95518	0	
1.9893	0.643934	-1.60616	0	
1.9900	-2.08724	-2.22129	0	
1.9907	-6.06186	-3.72493	0	
1.9913	-6.68359	-2.52885	0	
1.9920	-5.46234	-2.52885	0	
1.9927	-6.06186	-3.72493	0	
1.9933	-6.68359	-2.83641	0	
1.9940	-5.751	-0.0683473	0	
1.9947	-4.84061	0.546778	0	
1.9953	-3.01983	-1.60616	0	
1.9960	-1.48771	-2.22129	0	
1.9967	-0.865981	-0.683473	0	
1.9973	-0.865981	-0.991036	0	
1.9980	-0.266456	-1.91372	0	
1.9987	0.954799	-1.2986	0	
1.9993	2.48692	-2.83641	0	
2.0000	2.48692	-4.34005	0	
2.0007	0.954799	-1.91372	0	
2.0013	0.0444093	0.854341	0	
2.0020	1.57653	1.74286	0	
2.0027	2.17605	1.74286	0	
2.0033	0.643934	1.74286	0	
2.0040	-2.08724	2.35798	0	
2.0047	-7.59398	2.66554	0	
2.0053	-12.1681	0.546778	0	
2.0060	-12.1681	-1.60616	0	
2.0067	-10.9469	-0.991036	0	
2.0073	-11.5464	-0.991036	0	
2.0080	-10.3252	-1.91372	0	
2.0087	-6.68359	-0.37591	0	
2.0093	-5.751	1.43529	0	
2.0100	-3.93022	0.854341	0	
2.0107	-0.266456	-2.22129	0	
2.0113	1.26566	-4.64762	0	
2.0120	0.954799	-4.95518	0	
2.0127	1.86519	-3.72493	0	
2.0133	4.3077	-2.83641	0	
2.0140	6.43934	-2.83641	0	
2.0147	6.43934	-3.14398	0	
2.0153	4.92943	-3.45154	0	
2.0160	5.21809	-1.2986	0	
2.0167	6.15068	-0.0683473	0	
2.0173	4.92943	-0.991036	0	
2.0180	4.61856	-0.37591	0	
2.0187	5.21809	1.12773	0	
2.0193	1.86519	0.854341	0	
2.0200	-2.08724	1.12773	0	
2.0207	-2.08724	2.35798	0	
2.0213	-2.08724	0.854341	0	
2.0220	-4.84061	0.546778	0	
2.0227	-6.06186	0.854341	0	
2.0233	-5.751	-0.0683473	0	
2.0240	-6.97225	1.74286	0	
2.0247	-8.50437	4.81848	0	
2.0253	-6.68359	3.58823	0	
2.0260	-5.46234	1.12773	0	
2.0267	-6.97225	2.66554	0	
2.0273	-7.28312	2.35798	0	
2.0280	-3.61935	-0.37591	0	
2.0287	-0.865981	-1.91372	0	
2.0293	0.355274	-1.91372	0	
2.0300	5.21809	-2.22129	0	
2.0307	10.1031	-4.64762	0	
2.0313	11.6352	-7.10812	0	
2.0320	14.6995	-5.26274	0	
2.0327	18.9628	-2.83641	0	
2.0333	17.4306	-4.95518	0	
2.0340	14.3886	-7.41568	0	
2.0347	13.4782	-3.72493	0	
2.0353	10.1031	-0.0683473	0	
2.0360	5.21809	-1.60616	0	
2.0367	3.08644	-6.18543	0	
2.0373	0.0444093	-6.18543	0	
2.0380	-4.52974	-1.91372	0	
2.0387	-7.28312	-0.991036	0	
2.0393	-9.72563	-1.91372	0	
2.0400	-12.479	2.66554	0	
2.0407	-12.1681	5.12605	0	
2.0413	-10.9469	-0.0683473	0	
2.0420	-10.0365	-3.72493	0	
2.0427	-9.41476	-0.37591	0	
2.0433	-10.0365	2.97311	0	
2.0440	-8.50437	2.66554	0	
2.0447	-4.24108	2.05042	0	
2.0453	-2.08724	2.35798	0	
2.0460	-0.57732	2.66554	0	
2.0467	1.57653	2.66554	0	
2.0473	0.0444093	2.66554	0	
2.0480	-3.01983	3.58823	0	
2.0487	0.0444093	1.74286	0	
2.0493	4.3077	-0.0683473	0	
2.0500	3.99683	2.05042	0	
2.0507	3.99683	3.58823	0	
2.0513	4.3077	0.854341	0	
2.0520	2.17605	-0.0683473	0	
2.0527	-0.266456	0.854341	0	
2.0533	-2.08724	-1.2986	0	
2.0540	-4.24108	-2.83641	0	
2.0547	-3.01983	-1.60616	0	
2.0553	1.57653	-1.60616	0	
2.0560	2.17605	-0.991036	0	
2.0567	0.643934	1.74286	0	
2.0573	4.3077	2.66554	0	
2.0580	8.28233	2.05042	0	
2.0587	7.37194	2.35798	0	
2.0593	6.15068	1.74286	0	
2.0600	7.97146	0.546778	0	
2.0607	9.81445	-0.0683473	0	
2.0613	11.9461	-0.0683473	0	
2.0620	13.1673	-0.0683473	0	
2.0627	10.1031	0.546778	0	
2.0633	6.15068	-0.0683473	0	
2.0640	6.15068	-1.91372	0	
2.0647	6.15068	-2.52885	0	
2.0653	3.99683	-2.83641	0	
2.0660	2.48692	-4.34005	0	
2.0667	2.48692	-5.87787	0	
2.0673	-0.865981	-4.64762	0	
2.0680	-4.24108	-3.14398	0	
2.0687	-4.84061	-3.14398	0	
2.0693	-3.01983	-3.45154	0	
2.0700	-1.79858	-2.22129	0	
2.0707	-1.17685	-1.91372	0	
2.0713	-0.865981	-4.34005	0	
2.0720	-0.865981	-6.80056	0	
2.0727	-0.266456	-4.64762	0	
2.0733	0.0444093	-1.91372	0	
2.0740	-0.57732	-2.83641	0	
2.0747	-2.08724	-2.83641	0	
2.0753	-3.30849	0.546778	0	
2.0760	-4.52974	0.546778	0	
2.0767	-4.84061	-1.2986	0	
2.0773	-5.751	0.546778	0	
2.0780	-7.59398	2.97311	0	
2.0787	-7.28312	2.35798	0	
2.0793	-7.28312	2.35798	0	
2.0800	-10.9469	4.51092	0	
2.0807	-13.9889	5.12605	0	
2.0813	-14.9215	6.32212	0	
2.0820	-17.364	9.09019	0	
2.0827	-19.4957	9.39775	0	
2.0833	-17.364	8.1675	0	
2.0840	-13.9889	8.1675	0	
2.0847	-12.1681	6.32212	0	
2.0853	-10.3252	3.58823	0	
2.0860	-6.37273	2.66554	0	
2.0867	-0.865981	0.854341	0	
2.0873	3.99683	-0.0683473	0	
2.0880	6.75021	2.05042	0	
2.0887	8.88185	1.74286	0	
2.0893	11.6352	-0.683473	0	
2.0900	13.4782	-0.683473	0	
2.0907	16.2094	-0.37591	0	
2.0913	18.6519	-1.60616	0	
2.0920	18.341	-2.22129	0	
2.0927	15.8985	-3.72493	0	
2.0933	12.5456	-4.34005	0	
2.0940	8.88185	-2.83641	0	
2.0947	6.43934	-2.22129	0	
2.0953	5.21809	-2.83641	0	
2.0960	0.0444093	-0.991036	0	
2.0967	-7.59398	-0.683473	0	
2.0973	-9.41476	-2.83641	0	
2.0980	-6.68359	-1.91372	0	
2.0987	-5.751	0.854341	0	
2.0993	-6.68359	-0.991036	0	
2.1000	-5.751	-1.91372	0	
2.1007	-5.15147	1.74286	0	
2.1013	-6.06186	3.58823	0	
2.1020	-7.59398	1.74286	0	
2.1027	-4.84061	2.66554	0	
2.1033	-1.17685	3.58823	0	
2.1040	-1.79858	0.854341	0	
2.1047	-2.70896	-1.2986	0	
2.1053	-0.865981	-0.0683473	0	
2.1060	0.0444093	2.05042	0	
2.1067	0.643934	0.854341	0	
2.1073	2.17605	-2.22129	0	
2.1080	2.17605	-0.991036	0	
2.1087	0.355274	2.97311	0	
2.1093	1.26566	2.66554	0	
2.1100	3.39731	-0.37591	0	
2.1107	4.3077	-0.0683473	0	
2.1113	4.3077	0.854341	0	
2.1120	2.77558	-0.37591	0	
2.1127	2.17605	-1.2986	0	
2.1133	2.17605	-1.2986	0	
2.1140	-0.266456	-2.83641	0	
2.1147	-3.30849	-2.83641	0	
2.1153	-2.08724	-1.91372	0	
2.1160	0.355274	-1.2986	0	
2.1167	2.77558	-0.991036	0	
2.1173	7.97146	-1.91372	0	
2.1180	10.414	-3.72493	0	
2.1187	6.43934	-3.45154	0	
2.1193	4.3077	-0.991036	0	
2.1200	4.3077	1.43529	0	
2.1207	2.48692	2.66554	0	
2.1213	1.57653	2.35798	0	
2.1220	0.643934	-0.0683473	0	
2.1227	-0.57732	0.546778	0	
2.1233	-0.266456	3.28067	0	
2.1240	0.643934	1.43529	0	
2.1247	0.643934	-2.52885	0	
2.1253	3.39731	-1.2986	0	
2.1260	7.97146	-0.683473	0	
2.1267	9.81445	-2.83641	0	
2.1273	9.19272	-1.91372	0	
2.1280	9.50358	-0.683473	0	
2.1287	7.97146	-1.91372	0	
2.1293	5.21809	-0.991036	0	
2.1300	2.77558	2.35798	0	
2.1307	1.26566	2.66554	0	
2.1313	0.0444093	1.74286	0	
2.1320	-1.48771	0.854341	0	
2.1327	-5.751	-0.0683473	0	
2.1333	-8.19351	1.12773	0	
2.1340	-4.52974	3.28067	0	
2.1347	-0.865981	3.28067	0	
2.1353	-1.17685	2.66554	0	
2.1360	-2.3981	2.97311	0	
2.1367	-4.84061	2.05042	0	
2.1373	-8.81524	0.854341	0	
2.1380	-10.636	0.239216	0	
2.1387	-10.636	-0.37591	0	
2.1393	-10.9469	0.854341	0	
2.1400	-11.5464	2.66554	0	
2.1407	-12.7677	-0.0683473	0	
2.1413	-14.2998	-2.83641	0	
2.1420	-14.6106	-0.683473	0	
2.1427	-15.8319	2.66554	0	
2.1433	-17.364	1.74286	0	
2.1440	-15.521	-0.0683473	0	
2.1447	-11.2577	-0.683473	0	
2.1453	-8.50437	-1.91372	0	
2.1460	-8.19351	-1.2986	0	
2.1467	-8.50437	0.854341	0	
2.1473	-7.90485	-0.0683473	0	
2.1480	-6.68359	-0.0683473	0	
2.1487	-6.37273	2.35798	0	
2.1493	-3.93022	1.43529	0	
2.1500	1.86519	-2.83641	0	
2.1507	6.15068	-3.14398	0	
2.1513	8.59319	-1.91372	0	
2.1520	11.3244	-2.83641	0	
2.1527	13.7669	-3.72493	0	
2.1533	13.1673	-4.03249	0	
2.1540	11.6352	-5.26274	0	
2.1547	12.5456	-4.95518	0	
2.1553	13.7669	-4.64762	0	
2.1560	14.3886	-4.64762	0	
2.1567	12.8565	-2.52885	0	
2.1573	9.19272	-1.2986	0	
2.1580	7.06107	-2.52885	0	
2.1587	7.97146	-0.683473	0	
2.1593	7.06107	0.854341	0	
2.1600	3.70817	-0.683473	0	
2.1607	2.48692	0.854341	0	
2.1613	0.355274	3.58823	0	
2.1620	-3.93022	1.74286	0	
2.1627	-4.84061	0.239216	0	
2.1633	-3.61935	2.05042	0	
2.1640	-3.61935	1.74286	0	
2.1647	-3.30849	-0.0683473	0	
2.1653	-2.3981	-0.0683473	0	
2.1660	-2.70896	-1.91372	0	
2.1667	-1.79858	-2.83641	0	
2.1673	-0.57732	-0.683473	0	
2.1680	-1.17685	-1.2986	0	
2.1687	-1.48771	-2.83641	0	
2.1693	-2.70896	-0.37591	0	
2.1700	-4.84061	-0.37591	0	
2.1707	-3.30849	-3.45154	0	
2.1713	0.643934	-3.72493	0	
2.1720	2.17605	-4.03249	0	
2.1727	1.86519	-4.64762	0	
2.1733	0.954799	-1.91372	0	
2.1740	-0.266456	-0.991036	0	
2.1747	0.643934	-2.83641	0	
2.1753	2.48692	0.546778	0	
2.1760	0.954799	1.74286	0	
2.1767	0.643934	-0.991036	0	
2.1773	2.48692	-0.37591	0	
2.1780	3.99683	1.12773	0	
2.1787	4.92943	-0.991036	0	
2.1793	7.06107	-1.91372	0	
2.1800	7.97146	-0.37591	0	
2.1807	7.97146	-0.0683473	0	
2.1813	7.06107	-0.0683473	0	
2.1820	5.52895	-0.683473	0	
2.1827	4.92943	-1.2986	0	
2.1833	5.21809	-1.2986	0	
2.1840	6.15068	-2.22129	0	
2.1847	6.75021	-3.72493	0	
2.1853	7.06107	-3.72493	0	
2.1860	7.06107	-4.64762	0	
2.1867	7.06107	-3.72493	0	
2.1873	7.6606	-1.91372	0	
2.1880	7.97146	-3.72493	0	
2.1887	6.15068	-5.5703	0	
2.1893	2.17605	-2.83641	0	
2.1900	-0.57732	-0.0683473	0	
2.1907	-0.57732	-1.2986	0	
2.1913	0.355274	-3.45154	0	
2.1920	0.355274	-2.83641	0	
2.1927	-2.08724	-0.683473	0	
2.1933	-4.52974	-0.0683473	0	
2.1940	-2.3981	-0.0683473	0	
2.1947	-0.266456	1.12773	0	
2.1953	-2.70896	1.43529	0	
2.1960	-5.46234	-0.683473	0	
2.1967	-5.46234	-0.991036	0	
2.1973	-5.751	0.854341	0	
2.1980	-7.59398	0.854341	0	
2.1987	-7.59398	1.74286	0	
2.1993	-6.68359	3.58823	0	
2.2000	-6.68359	4.20336	0	
2.2007	-4.52974	4.51092	0	
2.2013	1.57653	5.39944	0	
2.2020	4.61856	3.58823	0	
2.2027	3.39731	0.854341	0	
2.2033	3.99683	-0.0683473	0	
2.2040	7.06107	-0.991036	0	
2.2047	7.97146	-1.60616	0	
2.2053	6.15068	-0.991036	0	
2.2060	3.99683	-2.52885	0	
2.2067	1.57653	-3.14398	0	
2.2073	-2.08724	-1.60616	0	
2.2080	-5.46234	-0.37591	0	
2.2087	-7.59398	0.239216	0	
2.2093	-10.0365	-0.0683473	0	
2.2100	-13.7003	-1.2986	0	
2.2107	-14.6106	-0.991036	0	
2.2113	-14.9215	1.74286	0	
2.2120	-17.0532	2.97311	0	
2.2127	-17.6527	2.66554	0	
2.2133	-13.9889	3.58823	0	
2.2140	-12.7677	5.39944	0	
2.2147	-15.2102	6.93725	0	
2.2153	-14.2998	7.24481	0	
2.2160	-8.50437	5.707	0	
2.2167	-2.70896	5.39944	0	
2.2173	0.0444093	5.707	0	
2.2180	0.954799	5.12605	0	
2.2187	3.39731	3.58823	0	
2.2193	7.97146	3.28067	0	
2.2200	9.19272	2.97311	0	
2.2207	7.37194	2.35798	0	
2.2213	6.15068	2.97311	0	
2.2220	5.21809	3.8958	0	
2.2227	2.17605	2.66554	0	
2.2233	-1.17685	1.74286	0	
2.2240	-3.93022	3.58823	0	
2.2247	-7.59398	4.51092	0	
2.2253	-10.636	1.12773	0	
2.2260	-10.3252	-1.2986	0	
2.2267	-9.72563	-0.0683473	0	
2.2273	-9.72563	-0.37591	0	
2.2280	-10.0365	-2.83641	0	
2.2287	-9.1261	-3.14398	0	
2.2293	-6.68359	-1.60616	0	
2.2300	-5.751	-1.91372	0	
2.2307	-6.37273	-1.91372	0	
2.2313	-6.68359	-0.0683473	0	
2.2320	-5.751	-0.0683473	0	
2.2327	-4.24108	-2.52885	0	
2.2333	-3.01983	-1.91372	0	
2.2340	-2.08724	-0.683473	0	
2.2347	-1.17685	-1.60616	0	
2.2353	-0.57732	-1.60616	0	
2.2360	0.643934	-0.0683473	0	
2.2367	4.92943	-0.683473	0	
2.2373	11.9461	-1.91372	0	
2.2380	15.299	-2.83641	0	
2.2387	16.2094	-2.83641	0	
2.2393	20.4949	-2.52885	0	
2.2400	21.4053	-2.83641	0	
2.2407	16.5202	-3.45154	0	
2.2413	13.7669	-0.991036	0	
2.2420	14.0777	0.546778	0	
2.2427	11.6352	-1.91372	0	
2.2433	8.88185	-1.91372	0	
2.2440	7.6606	0.854341	0	
2.2447	5.52895	-0.0683473	0	
2.2453	3.39731	-3.45154	0	
2.2460	1.57653	-3.72493	0	
2.2467	-0.865981	-4.64762	0	
2.2473	0.643934	-6.80056	0	
2.2480	5.83982	-5.87787	0	
2.2487	6.15068	-3.72493	0	
2.2493	0.643934	-2.83641	0	
2.2500	-3.01983	-1.91372	0	
2.2507	-3.61935	-0.37591	0	
2.2513	-4.24108	-0.0683473	0	
2.2520	-5.15147	-2.22129	0	
2.2527	-3.30849	-3.72493	0	
2.2533	-1.17685	-2.83641	0	
2.2540	-2.08724	-0.0683473	0	
2.2547	-3.93022	-0.0683473	0	
2.2553	-2.3981	0.239216	0	
2.2560	-1.79858	5.39944	0	
2.2567	-4.84061	9.9787	0	
2.2573	-9.72563	8.47506	0	
2.2580	-12.1681	6.32212	0	
2.2587	-10.0365	8.1675	0	
2.2593	-7.28312	9.67114	0	
2.2600	-6.68359	9.09019	0	
2.2607	-7.59398	7.85994	0	
2.2613	-8.81524	8.47506	0	
2.2620	-10.3252	10.9014	0	
2.2627	-8.50437	9.9787	0	
2.2633	-4.84061	5.39944	0	
2.2640	-3.30849	3.28067	0	
2.2647	-0.865981	4.51092	0	
2.2653	1.26566	4.51092	0	
2.2660	-1.48771	2.66554	0	
2.2667	-3.61935	2.35798	0	
2.2673	-2.70896	3.28067	0	
2.2680	-2.70896	2.97311	0	
2.2687	0.954799	0.854341	0	
2.2693	6.15068	-0.991036	0	
2.2700	5.21809	-1.91372	0	
2.2707	3.08644	-3.72493	0	
2.2713	6.43934	-4.95518	0	
2.2720	9.19272	-5.5703	0	
2.2727	7.06107	-4.95518	0	
2.2733	5.83982	-4.64762	0	
2.2740	7.06107	-4.64762	0	
2.2747	10.1031	-4.64762	0	
2.2753	11.3244	-3.72493	0	
2.2760	8.28233	-1.60616	0	
2.2767	9.50358	-1.2986	0	
2.2773	14.0777	-3.72493	0	
2.2780	13.1673	-4.03249	0	
2.2787	9.50358	-3.72493	0	
2.2793	9.81445	-4.03249	0	
2.2800	7.6606	-4.64762	0	
2.2807	2.48692	-3.72493	0	
2.2813	1.86519	-2.52885	0	
2.2820	3.39731	-3.14398	0	
2.2827	2.17605	-3.45154	0	
2.2833	0.643934	-1.91372	0	
2.2840	-1.79858	-2.22129	0	
2.2847	-5.751	-2.22129	0	
2.2853	-8.50437	-0.0683473	0	
2.2860	-8.81524	-0.37591	0	
2.2867	-13.0785	-3.72493	0	
2.2873	-18.2744	-4.34005	0	
2.2880	-18.5853	-2.52885	0	
2.2887	-16.1428	-0.0683473	0	
2.2893	-14.9215	0.854341	0	
2.2900	-12.1681	-0.0683473	0	
2.2907	-8.50437	-0.37591	0	
2.2913	-6.06186	0.546778	0	
2.2920	-3.30849	-0.991036	0	
2.2927	-0.266456	-3.14398	0	
2.2933	0.355274	-3.72493	0	
2.2940	0.954799	-4.64762	0	
2.2947	3.70817	-4.64762	0	
2.2953	4.92943	-2.52885	0	
2.2960	3.99683	-1.91372	0	
2.2967	3.99683	-2.83641	0	
2.2973	4.92943	-3.14398	0	
2.2980	5.21809	-2.22129	0	
2.2987	6.15068	-0.991036	0	
2.2993	5.83982	-1.2986	0	
2.3000	4.61856	-3.72493	0	
2.3007	5.21809	-2.83641	0	
2.3013	5.52895	-0.683473	0	
2.3020	1.57653	-0.683473	0	
2.3027	-2.3981	0.546778	0	
2.3033	-1.17685	0.854341	0	
2.3040	-1.17685	-0.683473	0	
2.3047	-4.24108	0.854341	0	
2.3053	-4.24108	1.74286	0	
2.3060	-2.3981	-1.91372	0	
2.3067	-3.01983	-2.52885	0	
2.3073	-4.84061	1.74286	0	
2.3080	-4.84061	1.74286	0	
2.3087	-4.84061	-0.0683473	0	
2.3093	-4.84061	-0.37591	0	
2.3100	-2.70896	-0.37591	0	
2.3107	0.954799	1.74286	0	
2.3113	2.17605	1.74286	0	
2.3120	2.48692	-3.14398	0	
2.3127	7.06107	-4.95518	0	
2.3133	12.8565	-3.45154	0	
2.3140	11.3244	-4.03249	0	
2.3147	10.414	-4.34005	0	
2.3153	13.7669	-1.91372	0	
2.3160	11.6352	-1.60616	0	
2.3167	5.21809	-1.91372	0	
2.3173	3.70817	-0.991036	0	
2.3180	2.77558	-1.91372	0	
2.3187	-0.266456	-2.83641	0	
2.3193	-3.93022	-0.683473	0	
2.3200	-8.50437	2.97311	0	
2.3207	-12.1681	6.32212	0	
2.3213	-10.636	8.1675	0	
2.3220	-11.2577	6.62969	0	
2.3227	-14.9215	4.81848	0	
2.3233	-13.9889	6.01456	0	
2.3240	-11.5464	7.24481	0	
2.3247	-12.479	7.55238	0	
2.3253	-10.636	7.24481	0	
2.3260	-6.68359	7.85994	0	
2.3267	-5.751	6.32212	0	
2.3273	-5.15147	0.854341	0	
2.3280	-0.266456	-1.91372	0	
2.3287	4.92943	1.74286	0	
2.3293	7.06107	3.28067	0	
2.3300	6.75021	1.12773	0	
2.3307	5.83982	1.12773	0	
2.3313	3.70817	0.546778	0	
2.3320	1.57653	-2.22129	0	
2.3327	0.643934	-2.83641	0	
2.3333	0.954799	-2.22129	0	
2.3340	-1.17685	-2.83641	0	
2.3347	-1.48771	-2.22129	0	
2.3353	0.954799	-2.52885	0	
2.3360	0.954799	-3.72493	0	
2.3367	-0.865981	-2.22129	0	
2.3373	0.0444093	-0.0683473	0	
2.3380	1.86519	-1.2986	0	
2.3387	4.3077	-1.91372	0	
2.3393	8.28233	-1.2986	0	
2.3400	9.19272	-2.52885	0	
2.3407	7.6606	-2.83641	0	
2.3413	8.88185	-1.91372	0	
2.3420	11.9461	-3.45154	0	
2.3427	11.9461	-3.72493	0	
2.3433	8.28233	-1.2986	0	
2.3440	5.21809	-1.60616	0	
2.3447	5.52895	-3.72493	0	
2.3453	5.21809	-3.14398	0	
2.3460	0.643934	-2.83641	0	
2.3467	-3.61935	-6.18543	0	
2.3473	-4.24108	-5.5703	0	
2.3480	-5.751	-0.991036	0	
2.3487	-8.19351	-0.37591	0	
2.3493	-11.2577	-1.2986	0	
2.3500	-16.1428	2.05042	0	
2.3507	-17.364	4.51092	0	
2.3513	-14.6106	0.546778	0	
2.3520	-14.9215	-0.991036	0	
2.3527	-17.0532	2.66554	0	
2.3533	-14.9215	3.8958	0	
2.3540	-12.1681	2.35798	0	
2.3547	-10.9469	5.39944	0	
2.3553	-9.1261	8.78263	0	
2.3560	-6.68359	6.32212	0	
2.3567	-4.24108	2.66554	0	
2.3573	-1.79858	1.74286	0	
2.3580	0.355274	0.854341	0	
2.3587	1.86519	1.74286	0	
2.3593	3.39731	3.8958	0	
2.3600	3.70817	2.97311	0	
2.3607	3.39731	1.12773	0	
2.3613	3.39731	0.239216	0	
2.3620	2.77558	-1.91372	0	
2.3627	2.77558	-1.2986	0	
2.3633	2.48692	2.97311	0	
2.3640	2.48692	1.12773	0	
2.3647	3.99683	-5.26274	0	
2.3653	5.52895	-6.18543	0	
2.3660	3.39731	-3.72493	0	
2.3667	0.643934	-4.03249	0	
2.3673	2.17605	-4.34005	0	
2.3680	6.43934	-4.03249	0	
2.3687	7.37194	-3.72493	0	
2.3693	6.15068	-3.14398	0	
2.3700	6.43934	-3.72493	0	
2.3707	8.28233	-3.72493	0	
2.3713	8.88185	-1.2986	0	
2.3720	9.19272	-3.45154	0	
2.3727	9.81445	-5.87787	0	
2.3733	9.81445	-2.83641	0	
2.3740	8.28233	-0.0683473	0	
2.3747	5.83982	-3.72493	0	
2.3753	5.21809	-4.03249	0	
2.3760	6.75021	-1.60616	0	
2.3767	4.3077	-1.60616	0	
2.3773	0.643934	-2.22129	0	
2.3780	0.643934	-1.91372	0	
2.3787	1.57653	-1.91372	0	
2.3793	0.643934	-0.991036	0	
2.3800	0.954799	0.239216	0	
2.3807	2.77558	-0.991036	0	
2.3813	2.77558	-2.22129	0	
2.3820	3.39731	-1.60616	0	
2.3827	3.08644	-0.683473	0	
2.3833	-0.57732	-1.2986	0	
2.3840	-3.01983	-1.2986	0	
2.3847	-2.08724	-0.37591	0	
2.3853	-2.3981	-1.60616	0	
2.3860	-3.30849	-1.91372	0	
2.3867	-1.79858	0.854341	0	
2.3873	-1.17685	0.854341	0	
2.3880	-3.01983	-2.52885	0	
2.3887	-4.52974	-3.45154	0	
2.3893	-6.37273	-0.683473	0	
2.3900	-7.59398	0.854341	0	
2.3907	-6.68359	0.854341	0	
2.3913	-4.52974	0.854341	0	
2.3920	-2.70896	0.854341	0	
2.3927	0.643934	0.239216	0	
2.3933	2.48692	-1.91372	0	
2.3940	1.57653	-1.91372	0	
2.3947	1.57653	1.43529	0	
2.3953	4.61856	0.854341	0	
2.3960	7.06107	-3.72493	0	
2.3967	7.97146	-3.72493	0	
2.3973	8.59319	-0.991036	0	
2.3980	6.75021	-0.683473	0	
2.3987	4.3077	0.239216	0	
2.3993	3.39731	2.35798	0	
2.4000	1.86519	1.74286	0	
2.4007	0.643934	0.239216	0	
2.4013	2.48692	0.546778	0	
2.4020	2.48692	1.74286	0	
2.4027	-1.48771	4.20336	0	
2.4033	-3.61935	4.51092	0	
2.4040	-3.93022	3.58823	0	
2.4047	-5.46234	4.20336	0	
2.4053	-6.68359	3.58823	0	
2.4060	-8.19351	-0.0683473	0	
2.4067	-12.1681	1.12773	0	
2.4073	-16.4314	5.12605	0	
2.4080	-15.8319	3.58823	0	
2.4087	-13.7003	2.35798	0	
2.4093	-12.1681	4.20336	0	
2.4100	-10.3252	4.81848	0	
2.4107	-9.41476	4.51092	0	
2.4113	-11.8573	5.39944	0	
2.4120	-10.636	3.8958	0	
2.4127	-5.751	0.854341	0	
2.4133	-3.93022	-0.683473	0	
2.4140	-3.93022	-0.0683473	0	
2.4147	-2.70896	-0.0683473	0	
2.4153	-0.57732	-0.991036	0	
2.4160	4.3077	-0.991036	0	
2.4167	10.7248	0.854341	0	
2.4173	11.9461	1.74286	0	
2.4180	10.7248	-0.991036	0	
2.4187	11.6352	-2.83641	0	
2.4193	11.6352	-2.83641	0	
2.4200	10.7248	-3.14398	0	
2.4207	10.414	-2.83641	0	
2.4213	8.28233	-1.60616	0	
2.4220	6.43934	-2.52885	0	
2.4227	5.21809	-3.14398	0	
2.4233	-0.57732	-0.683473	0	
2.4240	-7.59398	2.05042	0	
2.4247	-8.50437	0.854341	0	
2.4253	-9.41476	-0.37591	0	
2.4260	-12.479	1.43529	0	
2.4267	-13.0785	1.74286	0	
2.4273	-10.636	-0.37591	0	
2.4280	-10.0365	-0.991036	0	
2.4287	-10.0365	0.854341	0	
2.4293	-8.19351	0.239216	0	
2.4300	-4.84061	-0.991036	0	
2.4307	-2.08724	-0.991036	0	
2.4313	-0.865981	-1.60616	0	
2.4320	-2.70896	-1.60616	0	
2.4327	-3.01983	-1.60616	0	
2.4333	-0.266456	-0.991036	0	
2.4340	1.57653	1.12773	0	
2.4347	2.17605	-0.0683473	0	
2.4353	4.3077	-3.14398	0	
2.4360	6.15068	-1.2986	0	
2.4367	5.21809	2.66554	0	
2.4373	4.3077	1.74286	0	
2.4380	2.48692	-0.37591	0	
2.4387	0.643934	0.546778	0	
2.4393	1.57653	1.74286	0	
2.4400	3.99683	0.854341	0	
2.4407	3.39731	-1.2986	0	
2.4413	1.57653	-0.683473	0	
2.4420	-0.266456	1.43529	0	
2.4427	-1.17685	0.239216	0	
2.4433	0.0444093	-1.91372	0	
2.4440	1.57653	-2.52885	0	
2.4447	1.26566	-2.83641	0	
2.4453	0.643934	-3.72493	0	
2.4460	0.643934	-2.83641	0	
2.4467	0.954799	-2.52885	0	
2.4473	2.77558	-3.72493	0	
2.4480	5.21809	-3.72493	0	
2.4487	4.61856	-4.03249	0	
2.4493	4.92943	-4.64762	0	
2.4500	7.97146	-3.72493	0	
2.4507	9.19272	-3.72493	0	
2.4513	9.50358	-4.64762	0	
2.4520	10.7248	-4.64762	0	
2.4527	10.7248	-4.34005	0	
2.4533	8.88185	-4.34005	0	
2.4540	9.19272	-3.72493	0	
2.4547	8.28233	-2.83641	0	
2.4553	6.43934	-2.83641	0	
2.4560	8.88185	-1.91372	0	
2.4567	11.0357	-0.991036	0	
2.4573	9.81445	-0.991036	0	
2.4580	9.50358	-0.0683473	0	
2.4587	8.88185	2.05042	0	
2.4593	4.92943	1.74286	0	
2.4600	2.48692	0.239216	0	
2.4607	1.86519	-0.0683473	0	
2.4613	-2.08724	1.12773	0	
2.4620	-6.68359	2.66554	0	
2.4627	-9.1261	3.28067	0	
2.4633	-10.9469	2.35798	0	
2.4640	-12.479	1.74286	0	
2.4647	-13.9889	2.05042	0	
2.4653	-15.8319	0.854341	0	
2.4660	-15.8319	-0.0683473	0	
2.4667	-16.7423	1.74286	0	
2.4673	-20.7169	3.8958	0	
2.4680	-22.5377	4.51092	0	
2.4687	-19.4957	3.8958	0	
2.4693	-15.2102	2.97311	0	
2.4700	-12.7677	2.66554	0	
2.4707	-11.5464	2.97311	0	
2.4713	-9.72563	3.58823	0	
2.4720	-5.751	3.58823	0	
2.4727	0.0444093	2.97311	0	
2.4733	2.77558	1.74286	0	
2.4740	3.39731	-0.37591	0	
2.4747	3.70817	-1.91372	0	
2.4753	5.21809	-0.37591	0	
2.4760	6.75021	1.74286	0	
2.4767	7.6606	0.854341	0	
2.4773	7.37194	-1.91372	0	
2.4780	7.37194	-1.91372	0	
2.4787	8.88185	-0.0683473	0	
2.4793	12.5456	0.239216	0	
2.4800	16.5202	-0.683473	0	
2.4807	16.2094	-0.683473	0	
2.4813	13.4782	-1.2986	0	
2.4820	11.0357	-3.14398	0	
2.4827	8.88185	-2.22129	0	
2.4833	6.75021	1.12773	0	
2.4840	6.43934	1.12773	0	
2.4847	6.15068	-1.91372	0	
2.4853	3.08644	-2.22129	0	
2.4860	0.0444093	-0.683473	0	
2.4867	-2.3981	-2.83641	0	
2.4873	-4.84061	-4.95518	0	
2.4880	-5.751	-3.14398	0	
2.4887	-6.68359	0.546778	0	
2.4893	-9.41476	0.854341	0	
2.4900	-10.3252	0.854341	0	
2.4907	-10.9469	-0.0683473	0	
2.4913	-12.7677	-1.60616	0	
2.4920	-11.5464	-2.52885	0	
2.4927	-6.97225	-2.22129	0	
2.4933	-5.15147	-0.991036	0	
2.4940	-6.37273	0.854341	0	
2.4947	-5.751	0.854341	0	
2.4953	-4.52974	0.854341	0	
2.4960	-5.15147	0.854341	0	
2.4967	-5.46234	0.239216	0	
2.4973	0.0444093	1.43529	0	
2.4980	6.75021	3.8958	0	
2.4987	7.97146	1.74286	0	
2.4993	6.15068	-2.83641	0	
2.5000	7.37194	-2.83641	0	
2.5007	9.50358	-2.52885	0	
2.5013	10.7248	-4.64762	0	
2.5020	12.5456	-4.95518	0	
2.5027	10.7248	-3.72493	0	
2.5033	7.06107	-2.83641	0	
2.5040	4.92943	-0.991036	0	
2.5047	2.48692	-1.60616	0	
2.5053	0.643934	-5.87787	0	
2.5060	1.57653	-7.41568	0	
2.5067	1.26566	-4.34005	0	
2.5073	-3.30849	-1.2986	0	
2.5080	-5.46234	-1.2986	0	
2.5087	-3.93022	-3.14398	0	
2.5093	-3.61935	-2.83641	0	
2.5100	-4.84061	-0.0683473	0	
2.5107	-5.46234	-0.991036	0	
2.5113	-4.52974	-3.14398	0	
2.5120	-3.01983	-0.991036	0	
2.5127	-2.3981	1.74286	0	
2.5133	-0.57732	-0.991036	0	
2.5140	3.70817	-3.45154	0	
2.5147	4.92943	-3.14398	0	
2.5153	2.48692	-3.14398	0	
2.5160	4.61856	-0.991036	0	
2.5167	7.97146	2.05042	0	
2.5173	7.97146	0.546778	0	
2.5180	8.59319	-1.91372	0	
2.5187	7.37194	0.546778	0	
2.5193	1.86519	2.66554	0	
2.5200	-2.3981	2.66554	0	
2.5207	-4.84061	4.51092	0	
2.5213	-8.19351	5.707	0	
2.5220	-10.636	2.97311	0	
2.5227	-13.9889	2.66554	0	
2.5233	-17.6527	6.01456	0	
2.5240	-15.8319	7.85994	0	
2.5247	-12.1681	7.24481	0	
2.5253	-13.9889	6.01456	0	
2.5260	-13.9889	5.39944	0	
2.5267	-8.50437	6.62969	0	
2.5273	-6.68359	8.47506	0	
2.5280	-4.24108	9.39775	0	
2.5287	2.17605	8.78263	0	
2.5293	4.92943	4.51092	0	
2.5300	6.15068	-0.683473	0	
2.5307	11.9461	-0.37591	0	
2.5313	15.6099	1.74286	0	
2.5320	12.8565	0.854341	0	
2.5327	11.6352	-0.37591	0	
2.5333	11.6352	-0.683473	0	
2.5340	8.59319	-2.52885	0	
2.5347	6.75021	-3.72493	0	
2.5353	7.06107	-2.22129	0	
2.5360	3.99683	-0.37591	0	
2.5367	-0.266456	-0.683473	0	
2.5373	-3.61935	-2.22129	0	
2.5380	-7.28312	-1.91372	0	
2.5387	-8.50437	-1.60616	0	
2.5393	-4.52974	-3.45154	0	
2.5400	2.17605	-4.64762	0	
2.5407	5.83982	-3.72493	0	
2.5413	6.43934	-4.34005	0	
2.5420	7.37194	-4.64762	0	
2.5427	7.37194	-2.52885	0	
2.5433	3.39731	-0.0683473	0	
2.5440	0.0444093	-0.0683473	0	
2.5447	1.86519	-0.0683473	0	
2.5453	2.48692	-0.37591	0	
2.5460	-1.48771	0.239216	0	
2.5467	-4.24108	2.66554	0	
2.5473	-3.93022	2.97311	0	
2.5480	-3.01983	1.43529	0	
2.5487	-3.01983	-0.0683473	0	
2.5493	-6.06186	-3.45154	0	
2.5500	-8.50437	-4.64762	0	
2.5507	-7.28312	-3.72493	0	
2.5513	-6.68359	-3.14398	0	
2.5520	-9.41476	-2.52885	0	
2.5527	-9.41476	-0.37591	0	
2.5533	-5.751	-1.91372	0	
2.5540	-4.84061	-3.14398	0	
2.5547	-6.37273	0.854341	0	
2.5553	-7.28312	3.58823	0	
2.5560	-8.50437	2.66554	0	
2.5567	-8.19351	2.66554	0	
2.5573	-5.46234	2.97311	0	
2.5580	-7.59398	5.39944	0	
2.5587	-14.2998	8.1675	0	
2.5593	-15.2102	6.32212	0	
2.5600	-9.41476	1.74286	0	
2.5607	-5.46234	0.546778	0	
2.5613	-3.61935	1.43529	0	
2.5620	0.0444093	3.58823	0	
2.5627	1.26566	4.20336	0	
2.5633	-0.266456	0.239216	0	
2.5640	-0.266456	-2.83641	0	
2.5647	-0.865981	-0.991036	0	
2.5653	-2.08724	-0.37591	0	
2.5660	-1.17685	-0.683473	0	
2.5667	2.48692	0.854341	0	
2.5673	5.83982	-0.991036	0	
2.5680	8.28233	-4.03249	0	
2.5687	8.59319	-4.64762	0	
2.5693	7.97146	-4.03249	0	
2.5700	8.28233	-2.22129	0	
2.5707	7.6606	-0.683473	0	
2.5713	7.06107	-2.83641	0	
2.5720	7.97146	-3.45154	0	
2.5727	6.75021	-0.0683473	0	
2.5733	3.70817	-0.0683473	0	
2.5740	2.77558	-3.72493	0	
2.5747	1.57653	-2.22129	0	
2.5753	-1.17685	2.05042	0	
2.5760	-1.79858	1.74286	0	
2.5767	-0.865981	-0.0683473	0	
2.5773	-0.266456	0.854341	0	
2.5780	0.0444093	1.43529	0	
2.5787	-1.48771	1.74286	0	
2.5793	-3.01983	2.66554	0	
2.5800	0.0444093	1.74286	0	
2.5807	2.48692	-0.991036	0	
2.5813	3.08644	-1.2986	0	
2.5820	8.88185	-1.91372	0	
2.5827	14.6995	-3.72493	0	
2.5833	15.299	-3.72493	0	
2.5840	14.6995	-2.83641	0	
2.5847	15.8985	-3.14398	0	
2.5853	14.0777	-2.52885	0	
2.5860	11.3244	-1.91372	0	
2.5867	10.7248	-3.72493	0	
2.5873	9.50358	-5.5703	0	
2.5880	5.83982	-4.95518	0	
2.5887	3.39731	-5.5703	0	
2.5893	2.48692	-6.49299	0	
2.5900	1.26566	-4.34005	0	
2.5907	-2.08724	-4.34005	0	
2.5913	-4.24108	-4.64762	0	
2.5920	-5.751	-1.2986	0	
2.5927	-8.50437	-0.991036	0	
2.5933	-11.2577	-3.45154	0	
2.5940	-12.479	-0.0683473	0	
2.5947	-16.7423	1.74286	0	
2.5953	-21.0278	-0.991036	0	
2.5960	-18.5853	-1.60616	0	
2.5967	-14.9215	-0.0683473	0	
2.5973	-14.6106	-2.83641	0	
2.5980	-13.3894	-3.45154	0	
2.5987	-11.2577	-1.2986	0	
2.5993	-11.8573	-0.683473	0	
2.6000	-9.72563	-0.0683473	0	
2.6007	-5.46234	1.74286	0	
2.6013	-5.46234	1.74286	0	
2.6020	-7.90485	0.854341	0	
2.6027	-7.90485	1.12773	0	
2.6033	-6.06186	3.8958	0	
2.6040	-3.30849	5.12605	0	
2.6047	-0.266456	2.66554	0	
2.6053	0.643934	2.05042	0	
2.6060	1.57653	4.51092	0	
2.6067	4.92943	3.28067	0	
2.6073	7.06107	0.854341	0	
2.6080	6.43934	1.74286	0	
2.6087	6.15068	1.74286	0	
2.6093	7.06107	-0.37591	0	
2.6100	9.19272	-0.683473	0	
2.6107	12.8565	-1.2986	0	
2.6113	13.4782	-3.14398	0	
2.6120	12.5456	-3.14398	0	
2.6127	13.4782	-2.83641	0	
2.6133	13.4782	-2.22129	0	
2.6140	11.3244	-0.991036	0	
2.6147	9.50358	-0.683473	0	
2.6153	7.06107	-0.0683473	0	
2.6160	3.39731	0.854341	0	
2.6167	2.48692	-0.0683473	0	
2.6173	0.954799	-1.60616	0	
2.6180	-4.24108	-0.37591	0	
2.6187	-6.37273	-0.0683473	0	
2.6193	-4.24108	0.546778	0	
2.6200	-4.52974	2.66554	0	
2.6207	-7.90485	3.8958	0	
2.6213	-9.1261	1.74286	0	
2.6220	-9.41476	0.854341	0	
2.6227	-10.3252	1.43529	0	
2.6233	-9.41476	1.74286	0	
2.6240	-6.97225	0.854341	0	
2.6247	-4.84061	-0.991036	0	
2.6253	-1.17685	-1.91372	0	
2.6260	2.17605	-1.91372	0	
2.6267	2.48692	-2.83641	0	
2.6273	2.77558	-3.45154	0	
2.6280	4.3077	-2.52885	0	
2.6287	3.70817	-3.72493	0	
2.6293	3.39731	-3.72493	0	
2.6300	4.61856	-0.683473	0	
2.6307	3.99683	-0.0683473	0	
2.6313	2.48692	-3.45154	0	
2.6320	3.39731	-2.83641	0	
2.6327	3.99683	0.239216	0	
2.6333	3.39731	-0.0683473	0	
2.6340	3.08644	0.546778	0	
2.6347	2.48692	3.58823	0	
2.6353	3.39731	3.8958	0	
2.6360	5.83982	1.74286	0	
2.6367	5.21809	0.854341	0	
2.6373	2.48692	1.12773	0	
2.6380	4.3077	1.12773	0	
2.6387	10.1031	1.43529	0	
2.6393	10.414	0.854341	0	
2.6400	6.43934	-0.991036	0	
2.6407	5.21809	-1.60616	0	
2.6413	6.43934	0.854341	0	
2.6420	6.15068	1.43529	0	
2.6427	5.21809	-0.0683473	0	
2.6433	6.15068	-0.991036	0	
2.6440	5.83982	-0.991036	0	
2.6447	3.08644	-0.991036	0	
2.6453	0.0444093	-1.2986	0	
2.6460	0.355274	-1.91372	0	
2.6467	2.48692	-2.52885	0	
2.6473	0.643934	-2.83641	0	
2.6480	-5.15147	-2.83641	0	
2.6487	-7.59398	-1.60616	0	
2.6493	-8.50437	1.74286	0	
2.6500	-11.5464	1.43529	0	
2.6507	-12.1681	-1.91372	0	
2.6513	-10.3252	-0.683473	0	
2.6520	-12.7677	2.35798	0	
2.6527	-14.9215	0.239216	0	
2.6533	-14.6106	-1.60616	0	
2.6540	-16.4314	0.854341	0	
2.6547	-18.8739	2.05042	0	
2.6553	-18.8739	2.35798	0	
2.6560	-16.7423	2.97311	0	
2.6567	-12.479	1.43529	0	
2.6573	-8.19351	-0.0683473	0	
2.6580	-7.59398	1.74286	0	
2.6587	-6.68359	0.854341	0	
2.6593	-3.93022	-0.991036	0	
2.6600	-3.01983	2.66554	0	
2.6607	-5.751	6.01456	0	
2.6613	-6.68359	3.28067	0	
2.6620	-3.93022	2.66554	0	
2.6627	-0.57732	6.93725	0	
2.6633	-1.17685	7.24481	0	
2.6640	-2.08724	3.28067	0	
2.6647	0.643934	0.239216	0	
2.6653	2.77558	-0.991036	0	
2.6660	1.86519	-1.91372	0	
2.6667	3.99683	-1.60616	0	
2.6673	8.59319	-0.683473	0	
2.6680	9.81445	-1.60616	0	
2.6687	9.81445	-3.45154	0	
2.6693	11.9461	-3.72493	0	
2.6700	12.5456	-2.83641	0	
2.6707	13.1673	-1.91372	0	
2.6713	14.3886	-2.83641	0	
2.6720	15.299	-4.64762	0	
2.6727	14.6995	-4.34005	0	
2.6733	11.3244	-2.83641	0	
2.6740	7.97146	-3.14398	0	
2.6747	7.06107	-1.91372	0	
2.6753	6.15068	0.854341	0	
2.6760	3.39731	-0.0683473	0	
2.6767	0.954799	-0.683473	0	
2.6773	-3.01983	0.854341	0	
2.6780	-5.46234	-0.683473	0	
2.6787	-6.06186	-0.991036	0	
2.6793	-9.1261	2.66554	0	
2.6800	-12.7677	2.05042	0	
2.6807	-13.0785	0.546778	0	
2.6813	-11.5464	2.05042	0	
2.6820	-9.41476	2.05042	0	
2.6827	-7.28312	1.74286	0	
2.6833	-6.68359	5.12605	0	
2.6840	-5.751	4.81848	0	
2.6847	-2.70896	-0.0683473	0	
2.6853	-1.17685	0.239216	0	
2.6860	-0.266456	3.58823	0	
2.6867	1.26566	3.58823	0	
2.6873	-0.266456	2.66554	0	
2.6880	0.643934	3.28067	0	
2.6887	4.61856	3.58823	0	
2.6893	5.52895	1.43529	0	
2.6900	3.99683	-1.91372	0	
2.6907	5.83982	-2.52885	0	
2.6913	9.81445	-0.991036	0	
2.6920	11.6352	-2.83641	0	
2.6927	9.81445	-4.34005	0	
2.6933	7.06107	-3.72493	0	
2.6940	8.88185	-2.83641	0	
2.6947	9.50358	-1.91372	0	
2.6953	4.3077	-0.991036	0	
2.6960	1.86519	-2.22129	0	
2.6967	3.39731	-0.991036	0	
2.6973	1.86519	1.74286	0	
2.6980	1.57653	-0.683473	0	
2.6987	5.21809	-1.91372	0	
2.6993	5.21809	1.12773	0	
2.7000	3.39731	0.854341	0	
2.7007	5.83982	-2.52885	0	
2.7013	8.28233	-1.2986	0	
2.7020	8.88185	-0.991036	0	
2.7027	10.414	-3.72493	0	
2.7033	9.81445	-3.72493	0	
2.7040	7.06107	-1.91372	0	
2.7047	6.75021	-0.37591	0	
2.7053	3.99683	1.43529	0	
2.7060	-3.01983	1.43529	0	
2.7067	-7.59398	-0.683473	0	
2.7073	-8.19351	-1.91372	0	
2.7080	-10.9469	-3.14398	0	
2.7087	-13.7003	-3.14398	0	
2.7093	-15.8319	-0.0683473	0	
2.7100	-19.4957	1.74286	0	
2.7107	-19.4957	2.05042	0	
2.7113	-15.2102	2.97311	0	
2.7120	-13.3894	2.97311	0	
2.7127	-14.9215	0.854341	0	
2.7133	-15.8319	0.546778	0	
2.7140	-16.1428	2.97311	0	
2.7147	-14.6106	4.20336	0	
2.7153	-10.3252	1.74286	0	
2.7160	-5.751	-0.991036	0	
2.7167	-2.70896	-0.991036	0	
2.7173	-2.08724	1.74286	0	
2.7180	-3.01983	3.58823	0	
2.7187	-0.865981	3.58823	0	
2.7193	3.70817	4.20336	0	
2.7200	3.39731	5.707	0	
2.7207	0.954799	6.62969	0	
2.7213	0.954799	3.8958	0	
2.7220	0.0444093	0.239216	0	
2.7227	-3.01983	1.74286	0	
2.7233	-1.48771	4.51092	0	
2.7240	2.48692	2.66554	0	
2.7247	3.70817	-1.91372	0	
2.7253	4.61856	-4.03249	0	
2.7260	6.15068	-4.64762	0	
2.7267	6.43934	-3.45154	0	
2.7273	4.61856	-1.91372	0	
2.7280	1.57653	-2.83641	0	
2.7287	-0.57732	-4.03249	0	
2.7293	-0.865981	-2.22129	0	
2.7300	-2.08724	0.854341	0	
2.7307	-3.01983	0.854341	0	
2.7313	-3.01983	-0.37591	0	
2.7320	-5.751	-0.37591	0	
2.7327	-9.41476	-0.683473	0	
2.7333	-8.50437	-2.83641	0	
2.7340	-6.37273	-3.14398	0	
2.7347	-8.19351	1.43529	0	
2.7353	-9.72563	4.51092	0	
2.7360	-9.41476	0.546778	0	
2.7367	-7.90485	-2.83641	0	
2.7373	-5.751	-0.0683473	0	
2.7380	-5.15147	2.97311	0	
2.7387	-4.84061	2.66554	0	
2.7393	-0.266456	0.854341	0	
2.7400	5.21809	-0.37591	0	
2.7407	7.97146	-1.60616	0	
2.7413	11.3244	-1.60616	0	
2.7420	12.257	-0.0683473	0	
2.7427	9.19272	0.854341	0	
2.7433	11.0357	-0.0683473	0	
2.7440	15.6099	-2.83641	0	
2.7447	12.5456	-4.64762	0	
2.7453	7.97146	-3.45154	0	
2.7460	8.88185	-1.91372	0	
2.7467	11.6352	-2.52885	0	
2.7473	12.257	-3.72493	0	
2.7480	10.414	-4.64762	0	
2.7487	6.75021	-5.26274	0	
2.7493	5.83982	-4.64762	0	
2.7500	6.43934	-3.72493	0	
2.7507	3.08644	-3.72493	0	
2.7513	-1.48771	-5.26274	0	
2.7520	-3.93022	-4.64762	0	
2.7527	-4.52974	-0.991036	0	
2.7533	-4.24108	1.74286	0	
2.7540	-3.61935	0.546778	0	
2.7547	-3.01983	-0.0683473	0	
2.7553	-1.79858	1.74286	0	
2.7560	-1.79858	2.66554	0	
2.7567	-5.751	3.28067	0	
2.7573	-7.28312	3.8958	0	
2.7580	-4.84061	3.58823	0	
2.7587	-3.30849	3.8958	0	
2.7593	-1.17685	5.39944	0	
2.7600	1.57653	6.01456	0	
2.7607	1.86519	4.51092	0	
2.7613	3.39731	2.35798	0	
2.7620	7.06107	0.854341	0	
2.7627	6.43934	-0.37591	0	
2.7633	5.21809	-0.991036	0	
2.7640	5.83982	-1.2986	0	
2.7647	4.3077	-1.60616	0	
2.7653	3.08644	-0.683473	0	
2.7660	2.77558	-0.991036	0	
2.7667	0.355274	-2.22129	0	
2.7673	-0.865981	-2.83641	0	
2.7680	-1.79858	-1.91372	0	
2.7687	-6.97225	-0.37591	0	
2.7693	-8.50437	0.239216	0	
2.7700	-6.68359	-0.0683473	0	
2.7707	-11.2577	0.546778	0	
2.7713	-14.9215	2.97311	0	
2.7720	-11.5464	4.20336	0	
2.7727	-12.7677	0.854341	0	
2.7733	-14.6106	-2.22129	0	
2.7740	-10.3252	-0.991036	0	
2.7747	-10.0365	3.28067	0	
2.7753	-11.2577	3.8958	0	
2.7760	-6.97225	0.546778	0	
2.7767	-2.70896	-0.991036	0	
2.7773	-1.79858	2.35798	0	
2.7780	-0.266456	5.39944	0	
2.7787	1.26566	2.66554	0	
2.7793	1.57653	-0.0683473	0	
2.7800	2.17605	2.05042	0	
2.7807	0.643934	3.58823	0	
2.7813	-0.865981	-0.991036	0	
2.7820	-0.865981	-3.14398	0	
2.7827	-1.17685	-0.0683473	0	
2.7833	-0.57732	1.43529	0	
2.7840	0.954799	1.43529	0	
2.7847	2.17605	1.12773	0	
2.7853	3.08644	-1.2986	0	
2.7860	4.61856	-3.14398	0	
2.7867	4.3077	-1.91372	0	
2.7873	3.70817	-0.0683473	0	
2.7880	5.21809	-0.683473	0	
2.7887	7.06107	-2.52885	0	
2.7893	6.75021	-3.45154	0	
2.7900	4.3077	-2.83641	0	
2.7907	3.08644	-1.91372	0	
2.7913	3.70817	0.854341	0	
2.7920	2.48692	3.28067	0	
2.7927	-0.865981	0.546778	0	
2.7933	0.954799	-3.14398	0	
2.7940	6.15068	-0.683473	0	
2.7947	7.6606	1.12773	0	
2.7953	5.83982	-2.22129	0	
2.7960	6.43934	-2.83641	0	
2.7967	7.97146	-0.683473	0	
2.7973	6.15068	-0.37591	0	
2.7980	3.99683	-0.683473	0	
2.7987	6.43934	-1.2986	0	
2.7993	10.7248	-2.83641	0	
2.8000	9.81445	-0.991036	0	
2.8007	3.70817	1.12773	0	
2.8013	0.643934	0.546778	0	
2.8020	0.355274	0.854341	0	
2.8027	-0.865981	2.05042	0	
2.8033	-4.84061	-0.0683473	0	
2.8040	-11.2577	-1.91372	0	
2.8047	-16.1428	-1.2986	0	
2.8053	-16.7423	-1.91372	0	
2.8060	-16.7423	-2.52885	0	
2.8067	-18.5853	-1.91372	0	
2.8073	-18.2744	-1.91372	0	
2.8080	-15.8319	-1.91372	0	
2.8087	-12.7677	-0.37591	0	
2.8093	-9.1261	-0.37591	0	
2.8100	-8.19351	-0.991036	0	
2.8107	-9.41476	-0.683473	0	
2.8113	-7.90485	-0.0683473	0	
2.8120	-5.15147	0.239216	0	
2.8127	-2.3981	-0.683473	0	
2.8133	0.0444093	-1.91372	0	
2.8140	-0.266456	-0.0683473	0	
2.8147	-0.266456	2.66554	0	
2.8153	3.99683	3.28067	0	
2.8160	6.75021	3.28067	0	
2.8167	5.83982	3.28067	0	
2.8173	7.97146	1.43529	0	
2.8180	10.7248	-0.0683473	0	
2.8187	9.81445	0.854341	0	
2.8193	8.88185	0.854341	0	
2.8200	8.88185	-0.0683473	0	
2.8207	6.43934	-0.683473	0	
2.8213	4.61856	-2.52885	0	
2.8220	7.06107	-5.26274	0	
2.8227	7.97146	-4.34005	0	
2.8233	2.77558	-1.91372	0	
2.8240	0.355274	-0.991036	0	
2.8247	1.86519	-0.0683473	0	
2.8253	-0.266456	1.74286	0	
2.8260	-3.30849	0.546778	0	
2.8267	0.355274	-1.2986	0	
2.8273	4.3077	-0.0683473	0	
2.8280	1.57653	2.35798	0	
2.8287	-3.30849	1.12773	0	
2.8293	-3.30849	-2.83641	0	
2.8300	-1.17685	-4.03249	0	
2.8307	0.643934	-1.60616	0	
2.8313	0.954799	1.12773	0	
2.8320	-2.08724	2.05042	0	
2.8327	-3.93022	1.43529	0	
2.8333	-1.17685	-0.37591	0	
2.8340	3.08644	-1.91372	0	
2.8347	3.39731	-0.991036	0	
2.8353	1.57653	-0.991036	0	
2.8360	0.954799	-0.991036	0	
2.8367	0.0444093	0.239216	0	
2.8373	-3.61935	1.12773	0	
2.8380	-6.06186	1.43529	0	
2.8387	-6.06186	1.12773	0	
2.8393	-6.97225	-0.0683473	0	
2.8400	-8.50437	0.854341	0	
2.8407	-8.50437	3.58823	0	
2.8413	-7.59398	1.74286	0	
2.8420	-6.68359	-1.2986	0	
2.8427	-4.84061	0.239216	0	
2.8433	-3.01983	1.43529	0	
2.8440	0.643934	-1.91372	0	
2.8447	3.99683	-2.83641	0	
2.8453	4.3077	-0.991036	0	
2.8460	3.39731	-1.91372	0	
2.8467	3.99683	-3.72493	0	
2.8473	5.21809	-2.83641	0	
2.8480	6.15068	-3.72493	0	
2.8487	6.15068	-6.49299	0	
2.8493	4.3077	-6.49299	0	
2.8500	3.08644	-2.83641	0	
2.8507	4.61856	-0.683473	0	
2.8513	4.61856	-0.37591	0	
2.8520	3.70817	0.854341	0	
2.8527	2.77558	2.97311	0	
2.8533	1.26566	2.05042	0	
2.8540	-0.57732	-0.37591	0	
2.8547	-1.79858	0.546778	0	
2.8553	-4.24108	3.58823	0	
2.8560	-5.751	2.66554	0	
2.8567	-6.06186	0.854341	0	
2.8573	-8.50437	3.28067	0	
2.8580	-7.59398	3.58823	0	
2.8587	-4.84061	-1.2986	0	
2.8593	-5.46234	-3.72493	0	
2.8600	-5.751	-1.60616	0	
2.8607	-3.01983	1.74286	0	
2.8613	-3.01983	1.74286	0	
2.8620	-3.01983	-1.2986	0	
2.8627	0.0444093	-3.72493	0	
2.8633	1.26566	-1.91372	0	
2.8640	2.48692	-0.683473	0	
2.8647	6.43934	-2.83641	0	
2.8653	6.15068	-4.34005	0	
2.8660	3.99683	-3.45154	0	
2.8667	5.21809	-2.52885	0	
2.8673	4.3077	-2.83641	0	
2.8680	2.48692	-1.91372	0	
2.8687	4.3077	-0.991036	0	
2.8693	5.52895	-1.91372	0	
2.8700	2.17605	-2.83641	0	
2.8707	0.643934	-1.2986	0	
2.8713	1.57653	-0.683473	0	
2.8720	-0.266456	-1.91372	0	
2.8727	-2.70896	-2.83641	0	
2.8733	-2.70896	-2.22129	0	
2.8740	-3.93022	-1.2986	0	
2.8747	-4.84061	0.854341	0	
2.8753	-3.01983	2.05042	0	
2.8760	-1.79858	0.854341	0	
2.8767	-2.70896	0.546778	0	
2.8773	-2.08724	2.05042	0	
2.8780	-0.266456	2.97311	0	
2.8787	0.643934	1.74286	0	
2.8793	2.48692	0.239216	0	
2.8800	3.08644	-0.0683473	0	
2.8807	0.643934	0.854341	0	
2.8813	-1.79858	-0.37591	0	
2.8820	-0.266456	-3.14398	0	
2.8827	2.48692	-2.83641	0	
2.8833	3.08644	-0.37591	0	
2.8840	2.17605	-0.991036	0	
2.8847	0.954799	-1.60616	0	
2.8853	-0.266456	0.546778	0	
2.8860	-0.266456	1.12773	0	
2.8867	1.26566	-0.991036	0	
2.8873	1.86519	-1.91372	0	
2.8880	2.17605	-0.991036	0	
2.8887	1.57653	-2.52885	0	
2.8893	-0.266456	-3.72493	0	
2.8900	-0.266456	-2.22129	0	
2.8907	1.86519	-0.991036	0	
2.8913	1.86519	-1.91372	0	
2.8920	1.86519	-2.83641	0	
2.8927	4.3077	-2.52885	0	
2.8933	5.21809	-0.991036	0	
2.8940	4.3077	-1.91372	0	
2.8947	6.15068	-3.72493	0	
2.8953	7.97146	-1.60616	0	
2.8960	7.37194	-0.0683473	0	
2.8967	8.59319	-2.83641	0	
2.8973	8.88185	-3.14398	0	
2.8980	8.28233	-0.991036	0	
2.8987	9.81445	-2.52885	0	
2.8993	10.414	-1.91372	0	
2.9000	6.43934	2.66554	0	
2.9007	5.83982	1.74286	0	
2.9013	8.88185	-2.22129	0	
2.9020	7.06107	-2.22129	0	
2.9027	1.86519	-0.0683473	0	
2.9033	0.0444093	0.546778	0	
2.9040	0.0444093	0.854341	0	
2.9047	-1.48771	-0.0683473	0	
2.9053	-3.93022	-2.22129	0	
2.9060	-5.46234	-2.83641	0	
2.9067	-6.37273	-2.83641	0	
2.9073	-6.68359	-1.91372	0	
2.9080	-8.19351	-0.683473	0	
2.9087	-10.3252	-1.60616	0	
2.9093	-12.1681	-2.83641	0	
2.9100	-11.5464	-1.2986	0	
2.9107	-12.1681	-0.683473	0	
2.9113	-14.2998	-1.91372	0	
2.9120	-13.7003	-0.0683473	0	
2.9127	-9.41476	3.28067	0	
2.9133	-6.97225	2.66554	0	
2.9140	-6.68359	2.35798	0	
2.9147	-5.15147	4.51092	0	
2.9153	-4.84061	5.12605	0	
2.9160	-4.84061	3.58823	0	
2.9167	-3.61935	4.51092	0	
2.9173	-3.93022	6.32212	0	
2.9180	-5.751	7.24481	0	
2.9187	-4.24108	6.93725	0	
2.9193	-1.17685	4.51092	0	
2.9200	-0.266456	1.74286	0	
2.9207	2.48692	1.43529	0	
2.9213	8.28233	0.546778	0	
2.9220	12.5456	-1.91372	0	
2.9227	14.6995	-2.83641	0	
2.9233	15.299	-2.83641	0	
2.9240	14.0777	-3.72493	0	
2.9247	14.0777	-2.83641	0	
2.9253	13.7669	-1.91372	0	
2.9260	11.3244	-3.72493	0	
2.9267	8.59319	-5.5703	0	
2.9273	7.06107	-4.95518	0	
2.9280	4.61856	-4.64762	0	
2.9287	1.86519	-2.83641	0	
2.9293	0.0444093	-0.991036	0	
2.9300	-2.3981	-3.45154	0	
2.9307	-5.46234	-3.72493	0	
2.9313	-7.28312	-2.52885	0	
2.9320	-8.81524	-3.14398	0	
2.9327	-9.72563	-1.2986	0	
