0.0007	-7.49159	2.00619	0	
0.0013	-9.62876	0.788641	0	
0.0020	-8.4108	-0.138358	0	
0.0027	-7.49159	3.52813	0	
0.0033	-9.33001	6.89024	0	
0.0040	-9.62876	7.19462	0	
0.0047	-7.49159	8.41218	0	
0.0053	-5.67614	8.41218	0	
0.0060	-4.75693	2.91936	0	
0.0067	-3.53897	-0.442746	0	
0.0073	-1.4018	0.788641	0	
0.0080	-0.183843	-0.138358	0	
0.0087	1.95333	-1.05152	0	
0.0093	3.17129	0.788641	0	
0.0100	3.49301	1.39742	0	
0.0107	5.30846	-0.138358	0	
0.0113	8.66358	-1.05152	0	
0.0120	9.28405	-3.79101	0	
0.0127	9.28405	-6.54434	0	
0.0133	10.502	-5.32679	0	
0.0140	9.90452	-5.0224	0	
0.0147	9.90452	-7.4575	0	
0.0153	12.0187	-6.54434	0	
0.0160	12.0187	-5.32679	0	
0.0167	8.98531	-5.63118	0	
0.0173	6.22767	-4.39979	0	
0.0180	5.00971	-3.79101	0	
0.0187	6.22767	-4.39979	0	
0.0193	6.22767	-1.96469	0	
0.0200	2.5738	-1.05152	0	
0.0207	-0.482587	-4.0954	0	
0.0213	-0.781331	-3.48663	0	
0.0220	-1.99929	0.470418	0	
0.0227	-2.32101	-0.138358	0	
0.0233	-1.99929	-1.05152	0	
0.0240	-3.24023	-0.138358	0	
0.0247	-4.45818	-0.138358	0	
0.0253	-3.83771	-1.96469	0	
0.0260	-3.53897	-3.18224	0	
0.0267	-1.10306	-4.39979	0	
0.0273	1.35584	-4.70418	0	
0.0280	-1.10306	-1.96469	0	
0.0287	-2.9185	0.788641	0	
0.0293	-1.70054	-1.05152	0	
0.0300	-0.781331	-1.96469	0	
0.0307	-0.781331	-0.138358	0	
0.0313	-0.183843	-0.747134	0	
0.0320	-0.183843	-3.48663	0	
0.0327	0.137882	-2.26907	0	
0.0333	-0.183843	0.788641	0	
0.0340	-2.9185	0.16603	0	
0.0347	-1.4018	-1.96469	0	
0.0353	3.17129	-1.96469	0	
0.0360	4.38924	-1.05152	0	
0.0367	3.49301	-1.35591	0	
0.0373	2.5738	-1.05152	0	
0.0380	0.137882	0.16603	0	
0.0387	1.03411	-1.6603	0	
0.0393	3.49301	-4.70418	0	
0.0400	-0.183843	-3.79101	0	
0.0407	-3.24023	-1.05152	0	
0.0413	-0.781331	-0.138358	0	
0.0420	-2.32101	2.00619	0	
0.0427	-6.27363	4.13691	0	
0.0433	-4.75693	0.788641	0	
0.0440	-2.9185	-1.05152	0	
0.0447	-5.05567	1.39742	0	
0.0453	-5.97489	1.39742	0	
0.0460	-6.8941	0.470418	0	
0.0467	-9.33001	1.70181	0	
0.0473	-6.8941	0.788641	0	
0.0480	-3.24023	-1.6603	0	
0.0487	-4.45818	-1.05152	0	
0.0493	-4.13646	-0.442746	0	
0.0500	1.95333	-1.35591	0	
0.0507	4.71097	-1.05152	0	
0.0513	2.5738	-0.747134	0	
0.0520	3.17129	-1.6603	0	
0.0527	7.44563	-1.6603	0	
0.0533	10.2033	-1.05152	0	
0.0540	11.72	-1.05152	0	
0.0547	12.9379	-1.96469	0	
0.0553	12.6392	-3.79101	0	
0.0560	11.72	-2.87785	0	
0.0567	10.502	0.788641	0	
0.0573	7.14688	0.788641	0	
0.0580	3.49301	-0.138358	0	
0.0587	1.65458	1.70181	0	
0.0593	-0.183843	2.61497	0	
0.0600	-2.9185	0.788641	0	
0.0607	-4.75693	0.16603	0	
0.0613	-7.49159	0.788641	0	
0.0620	-11.1684	2.00619	0	
0.0627	-11.7659	3.52813	0	
0.0633	-12.0877	2.61497	0	
0.0640	-14.2248	0.788641	0	
0.0647	-15.4428	2.31058	0	
0.0653	-15.1211	2.61497	0	
0.0660	-14.5236	1.09303	0	
0.0667	-11.1684	2.00619	0	
0.0673	-8.4108	4.13691	0	
0.0680	-10.2492	3.52813	0	
0.0687	-9.62876	3.52813	0	
0.0693	-5.97489	6.89024	0	
0.0700	-5.67614	8.71656	0	
0.0707	-5.97489	7.19462	0	
0.0713	-3.24023	4.4413	0	
0.0720	-3.24023	1.09303	0	
0.0727	-4.45818	-1.05152	0	
0.0733	-1.4018	-1.05152	0	
0.0740	1.35584	0.788641	0	
0.0747	1.03411	0.16603	0	
0.0753	1.65458	-1.35591	0	
0.0760	2.5738	-1.05152	0	
0.0767	2.27505	-1.35591	0	
0.0773	2.5738	-2.87785	0	
0.0780	2.5738	-2.26907	0	
0.0787	1.95333	-2.26907	0	
0.0793	2.5738	-2.26907	0	
0.0800	3.79175	0.788641	0	
0.0807	4.38924	1.70181	0	
0.0813	8.0661	-1.96469	0	
0.0820	13.2596	-3.79101	0	
0.0827	13.5584	-2.57346	0	
0.0833	10.8008	-1.96469	0	
0.0840	12.6392	-1.05152	0	
0.0847	16.9135	-1.96469	0	
0.0853	17.2123	-3.79101	0	
0.0860	15.0751	-4.39979	0	
0.0867	14.7764	-4.0954	0	
0.0873	16.2931	-5.63118	0	
0.0880	19.3494	-5.0224	0	
0.0887	22.1071	-2.87785	0	
0.0893	22.7046	-3.48663	0	
0.0900	20.8891	-4.70418	0	
0.0907	16.9135	-3.18224	0	
0.0913	11.4212	-1.35591	0	
0.0920	8.66358	-3.18224	0	
0.0927	9.5828	-4.0954	0	
0.0933	8.0661	-1.96469	0	
0.0940	3.79175	-1.05152	0	
0.0947	1.35584	-2.26907	0	
0.0953	-0.183843	-1.96469	0	
0.0960	-1.4018	-0.138358	0	
0.0967	-3.53897	-0.442746	0	
0.0973	-8.4108	-0.138358	0	
0.0980	-12.0877	1.70181	0	
0.0987	-13.9031	3.52813	0	
0.0993	-17.58	4.13691	0	
0.1000	-21.5326	4.4413	0	
0.1007	-21.2338	4.74568	0	
0.1013	-21.2338	3.83252	0	
0.1020	-23.9915	2.91936	0	
0.1027	-23.0722	3.52813	0	
0.1033	-22.4518	2.91936	0	
0.1040	-23.9915	1.70181	0	
0.1047	-21.2338	1.70181	0	
0.1053	-17.58	1.70181	0	
0.1060	-19.7171	1.70181	0	
0.1067	-21.2338	3.52813	0	
0.1073	-18.7979	6.28146	0	
0.1080	-17.2582	6.28146	0	
0.1087	-15.7415	6.58585	0	
0.1093	-13.9031	9.32534	0	
0.1100	-14.2248	13.905	0	
0.1107	-12.9839	15.4269	0	
0.1113	-9.03127	9.32534	0	
0.1120	-5.67614	1.70181	0	
0.1127	-3.24023	0.788641	0	
0.1133	-1.99929	2.00619	0	
0.1140	-2.32101	-1.6603	0	
0.1147	-1.70054	-2.26907	0	
0.1153	-0.482587	2.31058	0	
0.1160	0.436626	2.61497	0	
0.1167	3.49301	-1.35591	0	
0.1173	6.22767	-2.87785	0	
0.1180	5.92892	-2.26907	0	
0.1187	5.00971	-1.96469	0	
0.1193	5.92892	-0.138358	0	
0.1200	7.14688	-0.138358	0	
0.1207	7.14688	-2.26907	0	
0.1213	6.22767	-3.79101	0	
0.1220	6.22767	-3.79101	0	
0.1227	7.76735	-3.79101	0	
0.1233	8.0661	-3.18224	0	
0.1240	7.14688	-1.05152	0	
0.1247	8.0661	-1.96469	0	
0.1253	9.5828	-2.57346	0	
0.1260	10.8008	-2.26907	0	
0.1267	12.6392	-3.79101	0	
0.1273	14.4776	-5.93556	0	
0.1280	16.2931	-5.63118	0	
0.1287	19.0507	-8.37067	0	
0.1293	22.1071	-12.9503	0	
0.1300	22.7046	-10.8196	0	
0.1307	21.1879	-7.4575	0	
0.1313	20.8891	-8.67506	0	
0.1320	21.7854	-10.197	0	
0.1327	19.9699	-9.58822	0	
0.1333	14.4776	-9.89261	0	
0.1340	10.8008	-8.37067	0	
0.1347	10.502	-7.4575	0	
0.1353	6.22767	-7.4575	0	
0.1360	-1.10306	-5.32679	0	
0.1367	-5.67614	-2.87785	0	
0.1373	-9.95048	-1.96469	0	
0.1380	-16.6607	-0.138358	0	
0.1387	-20.9351	3.52813	0	
0.1393	-23.0722	7.19462	0	
0.1400	-24.589	9.62973	0	
0.1407	-23.0722	8.10779	0	
0.1413	-18.7979	8.10779	0	
0.1420	-16.362	11.1517	0	
0.1427	-13.6044	11.7743	0	
0.1433	-9.33001	10.2385	0	
0.1440	-5.97489	9.62973	0	
0.1447	-4.45818	7.49901	0	
0.1453	-2.9185	5.05007	0	
0.1460	-1.10306	4.4413	0	
0.1467	2.5738	3.52813	0	
0.1473	6.52641	2.61497	0	
0.1480	7.14688	3.22374	0	
0.1487	6.52641	1.70181	0	
0.1493	6.84814	-1.05152	0	
0.1500	6.52641	-1.05152	0	
0.1507	6.84814	0.788641	0	
0.1513	6.22767	-0.138358	0	
0.1520	4.0905	-2.26907	0	
0.1527	2.5738	-2.87785	0	
0.1533	1.65458	-1.35591	0	
0.1540	-2.9185	-1.6603	0	
0.1547	-8.4108	-3.79101	0	
0.1553	-11.1684	-3.79101	0	
0.1560	-10.2492	-0.442746	0	
0.1567	-11.1684	-0.747134	0	
0.1573	-15.4428	-2.87785	0	
0.1580	-16.6607	-2.87785	0	
0.1587	-12.0877	-1.6603	0	
0.1593	-10.8697	-1.96469	0	
0.1600	-11.4672	-1.96469	0	
0.1607	-8.4108	-0.138358	0	
0.1613	-5.97489	0.16603	0	
0.1620	-4.45818	-2.26907	0	
0.1627	-1.10306	-1.96469	0	
0.1633	-1.4018	1.39742	0	
0.1640	-1.99929	1.70181	0	
0.1647	2.5738	1.70181	0	
0.1653	4.38924	0.788641	0	
0.1660	2.5738	-1.05152	0	
0.1667	3.49301	-0.138358	0	
0.1673	4.0905	1.09303	0	
0.1680	1.35584	-0.442746	0	
0.1687	2.27505	-0.138358	0	
0.1693	4.38924	2.61497	0	
0.1700	3.49301	0.788641	0	
0.1707	4.38924	0.788641	0	
0.1713	6.22767	4.13691	0	
0.1720	3.79175	2.61497	0	
0.1727	1.95333	-1.05152	0	
0.1733	5.63018	-1.96469	0	
0.1740	10.8008	-2.87785	0	
0.1747	13.5584	-3.18224	0	
0.1753	15.0751	-2.26907	0	
0.1760	18.1315	-4.70418	0	
0.1767	23.325	-8.37067	0	
0.1773	28.1969	-7.15312	0	
0.1780	29.4148	-5.63118	0	
0.1787	27.2777	-8.37067	0	
0.1793	25.1635	-10.197	0	
0.1800	25.4622	-9.89261	0	
0.1807	26.0597	-10.8196	0	
0.1813	24.543	-11.124	0	
0.1820	19.9699	-7.4575	0	
0.1827	12.6392	-4.39979	0	
0.1833	3.49301	-5.0224	0	
0.1840	-5.05567	-4.39979	0	
0.1847	-11.4672	-1.96469	0	
0.1853	-14.8223	-2.26907	0	
0.1860	-16.6607	-2.87785	0	
0.1867	-17.8787	-0.138358	0	
0.1873	-18.4992	2.91936	0	
0.1880	-18.4992	4.4413	0	
0.1887	-18.1774	5.97707	0	
0.1893	-19.3954	5.35446	0	
0.1900	-21.5326	4.4413	0	
0.1907	-20.9351	6.28146	0	
0.1913	-18.4992	6.89024	0	
0.1920	-17.58	4.74568	0	
0.1927	-17.58	4.4413	0	
0.1933	-17.2582	5.35446	0	
0.1940	-15.7415	5.35446	0	
0.1947	-12.9839	7.49901	0	
0.1953	-12.9839	10.8473	0	
0.1960	-15.7415	12.3831	0	
0.1967	-16.6607	12.9918	0	
0.1973	-16.6607	11.7743	0	
0.1980	-19.0967	6.58585	0	
0.1987	-19.7171	2.91936	0	
0.1993	-17.58	3.22374	0	
0.2000	-15.1211	3.22374	0	
0.2007	-13.3056	4.13691	0	
0.2013	-12.0877	5.05007	0	
0.2020	-10.2492	3.52813	0	
0.2027	-8.11206	3.52813	0	
0.2033	-6.8941	5.05007	0	
0.2040	-3.24023	2.91936	0	
0.2047	2.27505	2.31058	0	
0.2053	5.30846	4.13691	0	
0.2060	5.92892	0.788641	0	
0.2067	5.92892	-2.57346	0	
0.2073	5.63018	-0.442746	0	
0.2080	6.84814	-0.747134	0	
0.2087	7.14688	-3.48663	0	
0.2093	4.38924	-1.6603	0	
0.2100	4.38924	-0.747134	0	
0.2107	7.14688	-3.18224	0	
0.2113	6.22767	-2.57346	0	
0.2120	4.0905	-2.57346	0	
0.2127	4.0905	-5.63118	0	
0.2133	3.17129	-5.0224	0	
0.2140	2.5738	-1.96469	0	
0.2147	3.49301	-2.57346	0	
0.2153	3.17129	-4.0954	0	
0.2160	3.17129	-3.79101	0	
0.2167	4.71097	-4.70418	0	
0.2173	5.30846	-5.93556	0	
0.2180	6.22767	-4.39979	0	
0.2187	7.14688	-2.87785	0	
0.2193	5.00971	-3.18224	0	
0.2200	5.00971	-3.48663	0	
0.2207	7.14688	-2.87785	0	
0.2213	5.63018	-3.18224	0	
0.2220	5.92892	-3.79101	0	
0.2227	10.2033	-3.48663	0	
0.2233	12.3404	-2.87785	0	
0.2240	13.2596	-2.57346	0	
0.2247	15.9943	-1.96469	0	
0.2253	16.2931	-3.18224	0	
0.2260	14.1559	-5.63118	0	
0.2267	13.5584	-3.79101	0	
0.2273	12.9379	-1.35591	0	
0.2280	12.3404	-3.79101	0	
0.2287	13.5584	-7.4575	0	
0.2293	11.72	-6.54434	0	
0.2300	10.2033	-4.70418	0	
0.2307	12.9379	-4.0954	0	
0.2313	13.2596	-3.79101	0	
0.2320	9.28405	-5.32679	0	
0.2327	8.98531	-8.06628	0	
0.2333	10.8008	-8.06628	0	
0.2340	8.98531	-5.93556	0	
0.2347	6.22767	-5.0224	0	
0.2353	4.0905	-4.70418	0	
0.2360	3.49301	-4.70418	0	
0.2367	3.79175	-5.0224	0	
0.2373	-0.183843	-3.48663	0	
0.2380	-7.81331	0.470418	0	
0.2387	-11.1684	3.22374	0	
0.2393	-13.9031	4.4413	0	
0.2400	-19.0967	5.35446	0	
0.2407	-20.3146	4.4413	0	
0.2413	-16.0403	3.22374	0	
0.2420	-12.0877	4.13691	0	
0.2427	-11.7659	5.97707	0	
0.2433	-12.9839	5.35446	0	
0.2440	-12.0877	5.05007	0	
0.2447	-10.2492	5.97707	0	
0.2453	-12.9839	6.28146	0	
0.2460	-15.7415	7.19462	0	
0.2467	-12.9839	8.41218	0	
0.2473	-11.7659	5.35446	0	
0.2480	-13.9031	1.09303	0	
0.2487	-12.9839	0.788641	0	
0.2493	-10.8697	2.91936	0	
0.2500	-11.1684	3.52813	0	
0.2507	-11.1684	3.83252	0	
0.2513	-10.2492	4.74568	0	
0.2520	-10.2492	6.89024	0	
0.2527	-9.33001	9.62973	0	
0.2533	-9.03127	11.7743	0	
0.2540	-10.2492	9.93412	0	
0.2547	-10.548	2.91936	0	
0.2553	-8.4108	-2.57346	0	
0.2560	-5.67614	-2.57346	0	
0.2567	-3.53897	-1.05152	0	
0.2573	-0.183843	-0.138358	0	
0.2580	5.30846	0.470418	0	
0.2587	9.90452	-2.87785	0	
0.2593	13.2596	-5.93556	0	
0.2600	19.6482	-4.0954	0	
0.2607	26.0597	-2.87785	0	
0.2613	26.9789	-3.79101	0	
0.2620	25.1635	-3.48663	0	
0.2627	24.543	-2.87785	0	
0.2633	23.6238	-2.26907	0	
0.2640	21.4866	0.16603	0	
0.2647	18.7519	0.16603	0	
0.2653	15.3968	-4.70418	0	
0.2660	11.72	-5.93556	0	
0.2667	9.28405	-1.35591	0	
0.2673	7.14688	0.788641	0	
0.2680	3.49301	-1.35591	0	
0.2687	1.35584	-1.05152	0	
0.2693	0.735371	0.788641	0	
0.2700	0.137882	-1.05152	0	
0.2707	0.735371	-4.0954	0	
0.2713	0.735371	-5.63118	0	
0.2720	-2.61976	-6.23995	0	
0.2727	-4.75693	-5.63118	0	
0.2733	-5.05567	-4.70418	0	
0.2740	-7.49159	-4.70418	0	
0.2747	-10.8697	-2.57346	0	
0.2753	-10.8697	-1.05152	0	
0.2760	-10.2492	-3.48663	0	
0.2767	-11.4672	-3.79101	0	
0.2773	-11.1684	-1.6603	0	
0.2780	-11.1684	-0.138358	0	
0.2787	-15.4428	-0.138358	0	
0.2793	-20.0159	0.470418	0	
0.2800	-19.7171	-0.138358	0	
0.2807	-18.1774	0.470418	0	
0.2813	-19.3954	1.70181	0	
0.2820	-20.9351	2.00619	0	
0.2827	-19.3954	3.22374	0	
0.2833	-16.0403	4.13691	0	
0.2840	-13.3056	4.4413	0	
0.2847	-12.6851	5.05007	0	
0.2853	-10.548	5.35446	0	
0.2860	-6.27363	4.13691	0	
0.2867	-2.32101	3.52813	0	
0.2873	1.03411	3.83252	0	
0.2880	4.0905	2.61497	0	
0.2887	6.84814	0.470418	0	
0.2893	11.72	-0.747134	0	
0.2900	15.9943	-1.05152	0	
0.2907	15.3968	-2.57346	0	
0.2913	17.2123	-4.70418	0	
0.2920	22.4058	-5.0224	0	
0.2927	20.8891	-3.79101	0	
0.2933	14.7764	-3.79101	0	
0.2940	13.5584	-2.57346	0	
0.2947	12.6392	-1.05152	0	
0.2953	9.28405	-2.26907	0	
0.2960	7.14688	-3.79101	0	
0.2967	4.38924	-3.79101	0	
0.2973	0.735371	-3.48663	0	
0.2980	0.735371	-1.6603	0	
0.2987	-1.4018	2.91936	0	
0.2993	-7.81331	5.35446	0	
0.3000	-9.33001	6.58585	0	
0.3007	-6.59535	8.71656	0	
0.3013	-8.11206	6.58585	0	
0.3020	-9.62876	0.16603	0	
0.3027	-4.45818	-3.48663	0	
0.3033	2.5738	-1.96469	0	
0.3040	5.92892	0.470418	0	
0.3047	6.84814	0.16603	0	
0.3053	5.63018	0.16603	0	
0.3060	4.0905	1.70181	0	
0.3067	4.71097	0.788641	0	
0.3073	5.92892	-2.57346	0	
0.3080	4.38924	-2.57346	0	
0.3087	3.17129	-0.442746	0	
0.3093	2.5738	0.16603	0	
0.3100	1.95333	0.16603	0	
0.3107	1.65458	0.470418	0	
0.3113	-0.183843	0.16603	0	
0.3120	-3.83771	0.16603	0	
0.3127	-6.59535	-0.747134	0	
0.3133	-7.19284	-1.96469	0	
0.3140	-9.03127	-1.05152	0	
0.3147	-10.2492	0.16603	0	
0.3153	-8.4108	-1.05152	0	
0.3160	-7.81331	-3.79101	0	
0.3167	-9.33001	-3.48663	0	
0.3173	-8.4108	0.16603	0	
0.3180	-5.67614	1.39742	0	
0.3187	-4.75693	-1.35591	0	
0.3193	-2.32101	-1.6603	0	
0.3200	-1.4018	1.09303	0	
0.3207	-2.61976	1.70181	0	
0.3213	-0.183843	0.788641	0	
0.3220	2.5738	1.70181	0	
0.3227	2.5738	1.70181	0	
0.3233	3.17129	1.09303	0	
0.3240	7.14688	1.70181	0	
0.3247	8.36484	-0.138358	0	
0.3253	8.0661	-1.6603	0	
0.3260	8.0661	0.470418	0	
0.3267	9.90452	0.788641	0	
0.3273	13.2596	-3.48663	0	
0.3280	14.4776	-3.79101	0	
0.3287	12.6392	-1.35591	0	
0.3293	12.0187	-0.747134	0	
0.3300	11.72	-0.138358	0	
0.3307	9.90452	-0.747134	0	
0.3313	8.66358	-3.18224	0	
0.3320	7.14688	-3.18224	0	
0.3327	4.38924	-1.05152	0	
0.3333	3.49301	-1.6603	0	
0.3340	2.5738	-1.05152	0	
0.3347	1.65458	2.61497	0	
0.3353	1.65458	1.70181	0	
0.3360	0.735371	-2.57346	0	
0.3367	-1.10306	-1.96469	0	
0.3373	-0.183843	0.788641	0	
0.3380	-0.183843	-1.05152	0	
0.3387	-2.61976	-4.70418	0	
0.3393	-1.4018	-3.79101	0	
0.3400	-0.482587	0.788641	0	
0.3407	-3.83771	0.788641	0	
0.3413	-4.13646	-1.96469	0	
0.3420	-1.99929	-0.747134	0	
0.3427	-4.13646	1.70181	0	
0.3433	-7.19284	1.09303	0	
0.3440	-6.27363	0.788641	0	
0.3447	-6.27363	0.788641	0	
0.3453	-7.49159	-0.138358	0	
0.3460	-7.19284	1.09303	0	
0.3467	-5.35442	2.61497	0	
0.3473	-3.24023	0.788641	0	
0.3480	-4.45818	0.470418	0	
0.3487	-8.4108	2.00619	0	
0.3493	-9.33001	1.09303	0	
0.3500	-9.33001	-0.442746	0	
0.3507	-11.1684	1.09303	0	
0.3513	-11.7659	3.52813	0	
0.3520	-10.2492	2.91936	0	
0.3527	-8.4108	0.470418	0	
0.3533	-4.75693	-1.35591	0	
0.3540	-1.99929	-1.05152	0	
0.3547	-1.4018	-0.138358	0	
0.3553	-0.183843	-1.6603	0	
0.3560	0.735371	-3.18224	0	
0.3567	1.03411	-2.57346	0	
0.3573	3.17129	-0.138358	0	
0.3580	4.71097	1.09303	0	
0.3587	3.79175	1.70181	0	
0.3593	4.38924	4.13691	0	
0.3600	5.00971	6.89024	0	
0.3607	2.5738	8.10779	0	
0.3613	1.35584	8.41218	0	
0.3620	4.38924	7.19462	0	
0.3627	6.52641	3.83252	0	
0.3633	6.22767	-0.138358	0	
0.3640	8.0661	-1.96469	0	
0.3647	11.72	-1.6603	0	
0.3653	14.1559	-0.138358	0	
0.3660	12.6392	0.788641	0	
0.3667	10.502	-0.747134	0	
0.3673	11.4212	-1.6603	0	
0.3680	10.8008	0.16603	0	
0.3687	7.44563	2.00619	0	
0.3693	7.76735	1.09303	0	
0.3700	10.2033	0.470418	0	
0.3707	7.14688	0.788641	0	
0.3713	3.49301	-0.747134	0	
0.3720	2.5738	-2.87785	0	
0.3727	-0.781331	-3.79101	0	
0.3733	-5.67614	-3.79101	0	
0.3740	-6.8941	-3.48663	0	
0.3747	-8.4108	-1.96469	0	
0.3753	-11.1684	0.470418	0	
0.3760	-10.8697	2.61497	0	
0.3767	-10.2492	2.31058	0	
0.3773	-11.1684	-0.442746	0	
0.3780	-9.03127	-0.747134	0	
0.3787	-4.45818	0.788641	0	
0.3793	-3.83771	0.788641	0	
0.3800	-4.75693	-1.05152	0	
0.3807	-2.32101	-2.26907	0	
0.3813	0.735371	-1.96469	0	
0.3820	-0.482587	0.16603	0	
0.3827	-3.83771	1.70181	0	
0.3833	-5.05567	1.39742	0	
0.3840	-5.97489	2.00619	0	
0.3847	-8.73252	2.31058	0	
0.3853	-11.4672	0.470418	0	
0.3860	-12.3864	0.16603	0	
0.3867	-10.2492	1.70181	0	
0.3873	-7.19284	1.70181	0	
0.3880	-6.8941	2.61497	0	
0.3887	-8.4108	4.4413	0	
0.3893	-8.73252	4.13691	0	
0.3900	-8.4108	5.05007	0	
0.3907	-7.81331	6.28146	0	
0.3913	-6.8941	3.22374	0	
0.3920	-6.59535	1.39742	0	
0.3927	-5.67614	4.4413	0	
0.3933	-1.99929	4.4413	0	
0.3940	0.735371	-0.442746	0	
0.3947	0.436626	-2.87785	0	
0.3953	1.65458	-1.96469	0	
0.3960	4.38924	-1.05152	0	
0.3967	5.30846	-1.05152	0	
0.3973	5.92892	-1.6603	0	
0.3980	7.14688	-1.96469	0	
0.3987	7.14688	-1.6603	0	
0.3993	7.14688	-1.96469	0	
0.4000	6.52641	-2.57346	0	
0.4007	6.52641	-2.87785	0	
0.4013	8.0661	-2.87785	0	
0.4020	9.28405	-1.96469	0	
0.4027	8.0661	-2.87785	0	
0.4033	8.0661	-5.0224	0	
0.4040	8.0661	-4.0954	0	
0.4047	6.22767	-1.05152	0	
0.4053	4.38924	-1.05152	0	
0.4060	3.49301	-2.26907	0	
0.4067	2.27505	-1.96469	0	
0.4073	1.65458	-1.96469	0	
0.4080	0.137882	-1.05152	0	
0.4087	-2.61976	0.16603	0	
0.4093	-3.24023	0.470418	0	
0.4100	-1.99929	-1.35591	0	
0.4107	-0.482587	-3.79101	0	
0.4113	3.17129	-3.79101	0	
0.4120	6.84814	-2.26907	0	
0.4127	9.90452	-1.96469	0	
0.4133	14.4776	-4.70418	0	
0.4140	16.9135	-5.63118	0	
0.4147	16.2931	-4.70418	0	
0.4153	17.8327	-5.0224	0	
0.4160	17.534	-4.0954	0	
0.4167	13.5584	-2.87785	0	
0.4173	12.0187	-5.32679	0	
0.4180	8.98531	-7.76189	0	
0.4187	2.5738	-5.63118	0	
0.4193	-0.183843	-3.48663	0	
0.4200	-2.61976	-2.26907	0	
0.4207	-8.4108	-0.747134	0	
0.4213	-11.1684	1.70181	0	
0.4220	-13.9031	5.35446	0	
0.4227	-18.7979	9.62973	0	
0.4233	-21.2338	9.93412	0	
0.4240	-22.153	7.49901	0	
0.4247	-22.4518	5.35446	0	
0.4253	-18.4992	2.61497	0	
0.4260	-15.1211	0.788641	0	
0.4267	-15.4428	0.788641	0	
0.4273	-11.4672	0.788641	0	
0.4280	-6.8941	3.52813	0	
0.4287	-7.49159	6.28146	0	
0.4293	-5.67614	4.13691	0	
0.4300	-2.61976	2.31058	0	
0.4307	-2.61976	4.4413	0	
0.4313	-1.70054	3.52813	0	
0.4320	-0.183843	1.70181	0	
0.4327	0.436626	2.61497	0	
0.4333	1.65458	1.70181	0	
0.4340	1.65458	0.16603	0	
0.4347	-0.781331	0.16603	0	
0.4353	0.735371	-1.96469	0	
0.4360	3.79175	-4.70418	0	
0.4367	3.79175	-3.79101	0	
0.4373	3.49301	-2.57346	0	
0.4380	2.27505	-2.87785	0	
0.4387	-0.781331	-2.26907	0	
0.4393	-1.10306	-2.26907	0	
0.4400	-0.482587	-2.26907	0	
0.4407	-2.32101	-0.747134	0	
0.4413	-1.99929	-1.6603	0	
0.4420	3.49301	-3.79101	0	
0.4427	7.44563	-1.96469	0	
0.4433	5.30846	2.61497	0	
0.4440	2.27505	3.22374	0	
0.4447	3.17129	0.788641	0	
0.4453	4.71097	0.16603	0	
0.4460	2.87254	1.39742	0	
0.4467	0.735371	2.61497	0	
0.4473	-0.781331	3.22374	0	
0.4480	-1.10306	0.788641	0	
0.4487	-1.10306	-2.87785	0	
0.4493	-1.70054	-3.79101	0	
0.4500	-2.32101	-0.138358	0	
0.4507	0.436626	0.788641	0	
0.4513	2.5738	-2.87785	0	
0.4520	1.65458	-5.93556	0	
0.4527	1.35584	-6.84873	0	
0.4533	1.65458	-7.76189	0	
0.4540	-0.183843	-8.67506	0	
0.4547	0.436626	-8.37067	0	
0.4553	1.65458	-7.76189	0	
0.4560	-0.781331	-6.54434	0	
0.4567	-2.32101	-3.48663	0	
0.4573	2.27505	2.00619	0	
0.4580	6.22767	4.4413	0	
0.4587	6.22767	-0.138358	0	
0.4593	5.63018	-4.39979	0	
0.4600	4.38924	-4.39979	0	
0.4607	1.03411	-4.0954	0	
0.4613	-2.9185	-1.6603	0	
0.4620	-3.83771	4.13691	0	
0.4627	-2.9185	4.13691	0	
0.4633	-4.75693	2.61497	0	
0.4640	-7.49159	7.8034	0	
0.4647	-7.49159	9.93412	0	
0.4653	-6.8941	4.4413	0	
0.4660	-10.2492	4.13691	0	
0.4667	-13.3056	7.49901	0	
0.4673	-12.0877	6.58585	0	
0.4680	-7.49159	6.89024	0	
0.4687	-5.67614	7.49901	0	
0.4693	-6.59535	3.52813	0	
0.4700	-6.8941	1.70181	0	
0.4707	-5.35442	3.52813	0	
0.4713	-5.67614	0.788641	0	
0.4720	-7.19284	-1.96469	0	
0.4727	-4.45818	-0.747134	0	
0.4733	-1.10306	-2.26907	0	
0.4740	-1.99929	-4.70418	0	
0.4747	-1.4018	-3.18224	0	
0.4753	3.79175	-2.26907	0	
0.4760	7.14688	-4.0954	0	
0.4767	5.63018	-5.0224	0	
0.4773	4.38924	-3.79101	0	
0.4780	5.00971	-2.87785	0	
0.4787	8.0661	-2.87785	0	
0.4793	12.6392	-3.79101	0	
0.4800	15.9943	-3.48663	0	
0.4807	17.2123	-2.87785	0	
0.4813	18.7519	-3.79101	0	
0.4820	19.0507	-3.18224	0	
0.4827	19.0507	-1.6603	0	
0.4833	19.0507	-1.96469	0	
0.4840	16.2931	-2.87785	0	
0.4847	11.4212	-4.70418	0	
0.4853	8.0661	-5.0224	0	
0.4860	7.14688	-1.96469	0	
0.4867	3.79175	-0.138358	0	
0.4873	0.735371	-1.96469	0	
0.4880	-1.70054	-0.442746	0	
0.4887	-6.27363	0.788641	0	
0.4893	-10.548	-1.35591	0	
0.4900	-5.97489	-0.138358	0	
0.4907	1.03411	1.39742	0	
0.4913	-1.70054	-1.35591	0	
0.4920	-6.27363	-0.138358	0	
0.4927	-1.99929	3.52813	0	
0.4933	1.95333	1.70181	0	
0.4940	1.03411	-1.05152	0	
0.4947	2.27505	0.470418	0	
0.4953	3.49301	2.31058	0	
0.4960	2.5738	1.39742	0	
0.4967	0.735371	-0.442746	0	
0.4973	-1.70054	0.470418	0	
0.4980	-3.83771	3.52813	0	
0.4987	-5.05567	3.52813	0	
0.4993	-8.4108	1.09303	0	
0.5000	-11.4672	1.09303	0	
0.5007	-10.2492	1.70181	0	
0.5013	-8.73252	0.788641	0	
0.5020	-10.548	1.39742	0	
0.5027	-11.4672	2.61497	0	
0.5033	-9.33001	3.22374	0	
0.5040	-5.67614	3.52813	0	
0.5047	-2.61976	3.83252	0	
0.5053	-0.482587	2.91936	0	
0.5060	1.03411	-0.138358	0	
0.5067	1.03411	-2.87785	0	
0.5073	-0.781331	-0.442746	0	
0.5080	-1.10306	2.00619	0	
0.5087	1.65458	0.470418	0	
0.5093	5.30846	-1.35591	0	
0.5100	7.14688	-1.6603	0	
0.5107	5.30846	-2.87785	0	
0.5113	1.95333	-3.79101	0	
0.5120	-0.482587	-3.79101	0	
0.5127	-2.61976	-3.79101	0	
0.5133	-4.75693	-3.18224	0	
0.5140	-6.59535	-1.05152	0	
0.5147	-6.8941	-0.747134	0	
0.5153	-5.05567	-0.442746	0	
0.5160	-3.53897	0.470418	0	
0.5167	-4.75693	-0.442746	0	
0.5173	-4.13646	-1.96469	0	
0.5180	-1.10306	-1.05152	0	
0.5187	0.436626	-1.05152	0	
0.5193	0.735371	-0.747134	0	
0.5200	3.17129	-0.138358	0	
0.5207	3.79175	-0.138358	0	
0.5213	3.49301	2.31058	0	
0.5220	5.63018	5.35446	0	
0.5227	6.22767	4.4413	0	
0.5233	4.38924	5.35446	0	
0.5240	4.38924	11.4699	0	
0.5247	2.87254	9.93412	0	
0.5253	0.735371	0.16603	0	
0.5260	1.03411	-1.96469	0	
0.5267	1.35584	1.09303	0	
0.5273	-2.32101	-1.05152	0	
0.5280	-3.53897	-2.57346	0	
0.5287	-1.99929	0.788641	0	
0.5293	-3.83771	1.09303	0	
0.5300	-5.67614	0.470418	0	
0.5307	-4.75693	2.61497	0	
0.5313	-4.75693	2.61497	0	
0.5320	-5.97489	-0.442746	0	
0.5327	-6.59535	-1.6603	0	
0.5333	-6.8941	0.788641	0	
0.5340	-6.27363	1.70181	0	
0.5347	-5.35442	1.09303	0	
0.5353	-7.49159	1.39742	0	
0.5360	-10.548	2.31058	0	
0.5367	-9.95048	2.61497	0	
0.5373	-5.97489	1.70181	0	
0.5380	-1.99929	-0.138358	0	
0.5387	0.436626	-0.747134	0	
0.5393	1.95333	0.788641	0	
0.5400	2.87254	0.16603	0	
0.5407	3.17129	-1.6603	0	
0.5413	3.49301	-0.747134	0	
0.5420	7.14688	-0.442746	0	
0.5427	10.8008	-2.57346	0	
0.5433	10.502	-1.35591	0	
0.5440	8.66358	0.470418	0	
0.5447	8.98531	-1.6603	0	
0.5453	9.90452	-2.57346	0	
0.5460	11.4212	-1.96469	0	
0.5467	12.3404	-3.79101	0	
0.5473	9.90452	-3.18224	0	
0.5480	8.0661	-0.138358	0	
0.5487	8.98531	-3.79101	0	
0.5493	9.5828	-7.4575	0	
0.5500	8.0661	-2.87785	0	
0.5507	8.0661	-0.138358	0	
0.5513	7.14688	-5.0224	0	
0.5520	2.5738	-7.15312	0	
0.5527	-1.10306	-3.18224	0	
0.5533	-1.70054	-1.96469	0	
0.5540	-1.99929	-4.39979	0	
0.5547	-2.9185	-5.93556	0	
0.5553	-5.97489	-5.32679	0	
0.5560	-8.4108	-3.79101	0	
0.5567	-8.11206	-1.96469	0	
0.5573	-7.49159	-1.6603	0	
0.5580	-9.33001	-1.05152	0	
0.5587	-8.4108	-0.138358	0	
0.5593	-6.59535	0.470418	0	
0.5600	-7.49159	0.788641	0	
0.5607	-7.49159	0.470418	0	
0.5613	-3.24023	-1.96469	0	
0.5620	-1.10306	-1.96469	0	
0.5627	-3.24023	2.00619	0	
0.5633	-4.75693	2.31058	0	
0.5640	-4.13646	-0.442746	0	
0.5647	-3.24023	0.788641	0	
0.5653	-2.9185	3.52813	0	
0.5660	-1.99929	1.70181	0	
0.5667	-0.183843	0.470418	0	
0.5673	1.65458	1.70181	0	
0.5680	2.5738	0.788641	0	
0.5687	3.49301	0.470418	0	
0.5693	4.71097	2.00619	0	
0.5700	7.14688	2.31058	0	
0.5707	8.66358	2.61497	0	
0.5713	6.84814	2.31058	0	
0.5720	6.22767	-1.05152	0	
0.5727	6.22767	-1.96469	0	
0.5733	2.5738	2.31058	0	
0.5740	-0.781331	2.61497	0	
0.5747	-1.10306	0.470418	0	
0.5753	-4.75693	2.31058	0	
0.5760	-7.49159	2.31058	0	
0.5767	-4.45818	-1.05152	0	
0.5773	-3.83771	-1.05152	0	
0.5780	-7.19284	-1.35591	0	
0.5787	-7.49159	-3.79101	0	
0.5793	-7.81331	-3.79101	0	
0.5800	-7.49159	-2.57346	0	
0.5807	-2.9185	-4.70418	0	
0.5813	-1.70054	-4.70418	0	
0.5820	-2.9185	-1.96469	0	
0.5827	2.27505	-3.48663	0	
0.5833	8.36484	-5.63118	0	
0.5840	8.0661	-4.70418	0	
0.5847	7.76735	-4.39979	0	
0.5853	9.5828	-4.0954	0	
0.5860	8.98531	-2.87785	0	
0.5867	7.14688	-2.87785	0	
0.5873	5.30846	-3.18224	0	
0.5880	2.87254	-1.35591	0	
0.5887	1.35584	-1.96469	0	
0.5893	-1.70054	-2.26907	0	
0.5900	-5.97489	0.16603	0	
0.5907	-5.67614	0.16603	0	
0.5913	-3.83771	-1.96469	0	
0.5920	-5.05567	-1.96469	0	
0.5927	-4.75693	-2.57346	0	
0.5933	-1.99929	-4.0954	0	
0.5940	-3.24023	-2.87785	0	
0.5947	-7.19284	2.00619	0	
0.5953	-7.49159	4.4413	0	
0.5960	-5.97489	4.13691	0	
0.5967	-5.67614	5.35446	0	
0.5973	-6.59535	8.10779	0	
0.5980	-7.49159	7.19462	0	
0.5987	-6.8941	3.52813	0	
0.5993	-5.67614	1.39742	0	
0.6000	-4.75693	1.39742	0	
0.6007	-3.24023	2.00619	0	
0.6013	0.137882	1.70181	0	
0.6020	2.87254	0.788641	0	
0.6027	3.17129	1.70181	0	
0.6033	1.35584	5.05007	0	
0.6040	-0.183843	5.65885	0	
0.6047	0.436626	3.83252	0	
0.6053	1.65458	2.31058	0	
0.6060	1.65458	0.788641	0	
0.6067	0.735371	-1.05152	0	
0.6073	0.436626	-1.6603	0	
0.6080	-0.183843	-1.35591	0	
0.6087	-2.32101	-1.05152	0	
0.6093	-5.05567	0.788641	0	
0.6100	-5.97489	2.61497	0	
0.6107	-5.67614	2.31058	0	
0.6113	-4.75693	0.470418	0	
0.6120	-3.24023	-0.138358	0	
0.6127	-1.70054	-1.05152	0	
0.6133	-1.4018	-3.18224	0	
0.6140	-3.24023	-3.48663	0	
0.6147	-4.45818	-3.48663	0	
0.6153	-2.9185	-4.70418	0	
0.6160	-1.99929	-2.87785	0	
0.6167	-2.61976	-1.05152	0	
0.6173	-1.70054	-2.57346	0	
0.6180	-0.183843	-3.79101	0	
0.6187	-1.10306	-3.79101	0	
0.6193	-1.4018	-4.70418	0	
0.6200	1.95333	-3.79101	0	
0.6207	4.38924	-0.138358	0	
0.6213	3.49301	-0.138358	0	
0.6220	4.0905	-1.96469	0	
0.6227	7.44563	-0.138358	0	
0.6233	8.36484	0.470418	0	
0.6240	6.22767	-1.6603	0	
0.6247	6.22767	-1.96469	0	
0.6253	8.98531	-0.138358	0	
0.6260	10.8008	-0.747134	0	
0.6267	11.4212	-3.79101	0	
0.6273	11.72	-3.79101	0	
0.6280	9.90452	0.788641	0	
0.6287	7.14688	2.61497	0	
0.6293	5.30846	3.52813	0	
0.6300	3.49301	7.19462	0	
0.6307	-1.10306	8.41218	0	
0.6313	-5.67614	4.13691	0	
0.6320	-6.8941	1.09303	0	
0.6327	-5.67614	0.788641	0	
0.6333	-4.13646	-1.6603	0	
0.6340	-3.83771	-3.18224	0	
0.6347	-7.19284	-1.6603	0	
0.6353	-7.81331	-0.442746	0	
0.6360	0.137882	-1.96469	0	
0.6367	6.84814	-3.48663	0	
0.6373	5.63018	-3.79101	0	
0.6380	5.30846	-4.0954	0	
0.6387	8.66358	-4.70418	0	
0.6393	9.5828	-3.79101	0	
0.6400	8.66358	-2.87785	0	
0.6407	7.14688	-3.48663	0	
0.6413	2.87254	-3.79101	0	
0.6420	0.735371	-1.35591	0	
0.6427	2.5738	0.788641	0	
0.6433	3.49301	1.39742	0	
0.6440	3.49301	1.09303	0	
0.6447	4.38924	1.70181	0	
0.6453	2.5738	1.70181	0	
0.6460	-3.53897	2.00619	0	
0.6467	-6.59535	2.91936	0	
0.6473	-5.97489	2.61497	0	
0.6480	-6.27363	1.09303	0	
0.6487	-5.67614	1.09303	0	
0.6493	-4.45818	1.39742	0	
0.6500	-5.67614	-0.138358	0	
0.6507	-4.45818	-1.6603	0	
0.6513	0.735371	-2.26907	0	
0.6520	0.735371	-4.0954	0	
0.6527	-1.10306	-6.23995	0	
0.6533	2.5738	-4.70418	0	
0.6540	6.22767	-3.79101	0	
0.6547	5.30846	-5.32679	0	
0.6553	5.00971	-3.48663	0	
0.6560	4.71097	-0.442746	0	
0.6567	3.17129	-2.87785	0	
0.6573	1.65458	-4.70418	0	
0.6580	-0.482587	-1.96469	0	
0.6587	-1.4018	-0.442746	0	
0.6593	-1.10306	-1.96469	0	
0.6600	-3.24023	-0.442746	0	
0.6607	-5.35442	0.788641	0	
0.6613	-5.35442	-0.138358	0	
0.6620	-6.59535	0.470418	0	
0.6627	-7.19284	1.09303	0	
0.6633	-6.59535	0.788641	0	
0.6640	-11.1684	4.4413	0	
0.6647	-13.3056	7.8034	0	
0.6653	-8.4108	6.28146	0	
0.6660	-6.8941	4.4413	0	
0.6667	-9.95048	4.13691	0	
0.6673	-7.49159	2.61497	0	
0.6680	-5.67614	3.52813	0	
0.6687	-8.11206	3.83252	0	
0.6693	-6.59535	0.788641	0	
0.6700	-1.4018	0.470418	0	
0.6707	1.65458	2.91936	0	
0.6713	5.30846	2.61497	0	
0.6720	9.28405	0.16603	0	
0.6727	9.90452	-1.35591	0	
0.6733	11.1225	-2.87785	0	
0.6740	12.9379	-3.79101	0	
0.6747	10.8008	-4.0954	0	
0.6753	10.502	-4.70418	0	
0.6760	13.5584	-4.70418	0	
0.6767	12.6392	-5.63118	0	
0.6773	6.22767	-6.23995	0	
0.6780	1.03411	-2.87785	0	
0.6787	-1.99929	-1.05152	0	
0.6793	-3.83771	-3.79101	0	
0.6800	-5.97489	-4.0954	0	
0.6807	-9.03127	-0.138358	0	
0.6813	-11.7659	1.09303	0	
0.6820	-12.6851	-1.05152	0	
0.6827	-10.2492	0.470418	0	
0.6833	-7.49159	4.13691	0	
0.6840	-9.33001	5.35446	0	
0.6847	-10.2492	3.52813	0	
0.6853	-5.67614	2.00619	0	
0.6860	-2.9185	1.09303	0	
0.6867	-5.35442	0.470418	0	
0.6873	-3.83771	0.16603	0	
0.6880	-1.10306	0.788641	0	
0.6887	-1.99929	2.00619	0	
0.6893	-1.70054	3.22374	0	
0.6900	-0.183843	2.61497	0	
0.6907	0.436626	1.70181	0	
0.6913	0.436626	1.09303	0	
0.6920	-0.183843	-0.442746	0	
0.6927	-1.10306	-2.26907	0	
0.6933	1.65458	-2.87785	0	
0.6940	4.0905	-2.87785	0	
0.6947	3.17129	-1.96469	0	
0.6953	2.5738	1.70181	0	
0.6960	3.79175	1.70181	0	
0.6967	4.0905	-1.05152	0	
0.6973	4.0905	-1.6603	0	
0.6980	6.84814	-2.87785	0	
0.6987	10.2033	-6.23995	0	
0.6993	11.4212	-4.39979	0	
0.7000	12.9379	-1.05152	0	
0.7007	15.0751	-1.96469	0	
0.7013	14.4776	-1.6603	0	
0.7020	15.6956	1.09303	0	
0.7027	18.7519	-1.05152	0	
0.7033	16.2931	-4.0954	0	
0.7040	14.4776	-2.26907	0	
0.7047	16.9135	-0.747134	0	
0.7053	13.8571	-2.57346	0	
0.7060	6.52641	-2.87785	0	
0.7067	5.30846	-1.35591	0	
0.7073	4.71097	-1.35591	0	
0.7080	0.436626	-1.35591	0	
0.7087	-1.70054	-0.747134	0	
0.7093	-5.35442	-0.138358	0	
0.7100	-10.548	0.788641	0	
0.7107	-10.2492	-0.138358	0	
0.7113	-11.1684	-1.6603	0	
0.7120	-17.58	0.16603	0	
0.7127	-17.8787	2.31058	0	
0.7133	-16.362	0.788641	0	
0.7140	-19.3954	1.39742	0	
0.7147	-19.3954	3.52813	0	
0.7153	-16.0403	1.39742	0	
0.7160	-15.7415	1.39742	0	
0.7167	-12.9839	4.74568	0	
0.7173	-6.8941	2.00619	0	
0.7180	-3.83771	-2.57346	0	
0.7187	-1.10306	-1.05152	0	
0.7193	2.5738	-0.747134	0	
0.7200	2.5738	-0.442746	0	
0.7207	2.5738	3.52813	0	
0.7213	5.30846	2.31058	0	
0.7220	6.22767	-2.57346	0	
0.7227	2.5738	-0.747134	0	
0.7233	-0.183843	1.39742	0	
0.7240	0.137882	-1.6603	0	
0.7247	0.436626	0.16603	0	
0.7253	-1.99929	4.74568	0	
0.7260	-4.45818	4.74568	0	
0.7267	-5.67614	5.97707	0	
0.7273	-8.4108	10.2385	0	
0.7280	-10.2492	11.4699	0	
0.7287	-9.95048	9.93412	0	
0.7293	-11.1684	7.49901	0	
0.7300	-11.1684	4.13691	0	
0.7307	-7.81331	1.70181	0	
0.7313	-5.05567	2.91936	0	
0.7320	-3.83771	2.91936	0	
0.7327	-1.99929	-0.747134	0	
0.7333	-0.183843	-2.87785	0	
0.7340	1.95333	-1.6603	0	
0.7347	5.30846	-1.35591	0	
0.7353	6.22767	-3.79101	0	
0.7360	3.49301	-3.79101	0	
0.7367	2.5738	0.788641	0	
0.7373	3.49301	3.52813	0	
0.7380	4.71097	1.09303	0	
0.7387	4.38924	-1.05152	0	
0.7393	3.49301	0.470418	0	
0.7400	3.49301	1.70181	0	
0.7407	6.84814	0.788641	0	
0.7413	8.0661	0.16603	0	
0.7420	5.30846	-0.442746	0	
0.7427	3.79175	-0.138358	0	
0.7433	4.0905	2.61497	0	
0.7440	3.49301	3.52813	0	
0.7447	2.5738	1.70181	0	
0.7453	1.35584	1.39742	0	
0.7460	-0.781331	1.09303	0	
0.7467	-1.70054	-1.05152	0	
0.7473	-2.32101	-1.05152	0	
0.7480	-3.83771	0.16603	0	
0.7487	-4.75693	-1.35591	0	
0.7493	-4.75693	-2.87785	0	
0.7500	-3.83771	-1.05152	0	
0.7507	0.137882	-0.442746	0	
0.7513	4.0905	-3.48663	0	
0.7520	6.22767	-5.0224	0	
0.7527	10.2033	-3.48663	0	
0.7533	13.5584	-2.87785	0	
0.7540	11.4212	-5.63118	0	
0.7547	10.2033	-4.70418	0	
0.7553	13.5584	-1.96469	0	
0.7560	13.5584	-4.0954	0	
0.7567	10.8008	-7.4575	0	
0.7573	11.1225	-5.63118	0	
0.7580	9.90452	-2.26907	0	
0.7587	4.71097	-1.96469	0	
0.7593	1.65458	-2.87785	0	
0.7600	-2.32101	-2.57346	0	
0.7607	-9.03127	-1.05152	0	
0.7613	-11.4672	-1.35591	0	
0.7620	-10.2492	-1.05152	0	
0.7627	-10.2492	2.31058	0	
0.7633	-11.4672	3.83252	0	
0.7640	-12.6851	2.61497	0	
0.7647	-14.8223	3.52813	0	
0.7653	-14.8223	4.13691	0	
0.7660	-10.2492	0.788641	0	
0.7667	-4.75693	-1.6603	0	
0.7673	-2.9185	-0.442746	0	
0.7680	-1.99929	0.788641	0	
0.7687	0.735371	1.39742	0	
0.7693	3.17129	0.788641	0	
0.7700	3.17129	-0.747134	0	
0.7707	3.49301	-1.35591	0	
0.7713	3.49301	-1.96469	0	
0.7720	1.95333	-2.87785	0	
0.7727	2.5738	-2.57346	0	
0.7733	5.00971	-1.96469	0	
0.7740	5.92892	-1.96469	0	
0.7747	4.71097	-4.0954	0	
0.7753	3.79175	-5.32679	0	
0.7760	4.38924	-3.48663	0	
0.7767	5.92892	-1.05152	0	
0.7773	5.00971	-2.26907	0	
0.7780	3.49301	-5.0224	0	
0.7787	4.0905	-5.93556	0	
0.7793	4.38924	-3.79101	0	
0.7800	2.87254	-2.87785	0	
0.7807	4.0905	-4.0954	0	
0.7813	5.30846	-4.0954	0	
0.7820	3.17129	-3.79101	0	
0.7827	1.65458	-5.63118	0	
0.7833	2.5738	-6.54434	0	
0.7840	4.0905	-3.48663	0	
0.7847	3.49301	-1.96469	0	
0.7853	1.65458	-3.48663	0	
0.7860	0.735371	-2.57346	0	
0.7867	2.27505	-0.747134	0	
0.7873	2.5738	-1.05152	0	
0.7880	1.65458	-1.35591	0	
0.7887	-1.4018	1.70181	0	
0.7893	-6.27363	3.52813	0	
0.7900	-8.73252	1.70181	0	
0.7907	-8.73252	2.61497	0	
0.7913	-9.33001	5.97707	0	
0.7920	-10.8697	6.28146	0	
0.7927	-11.1684	5.05007	0	
0.7933	-12.3864	5.35446	0	
0.7940	-13.9031	2.91936	0	
0.7947	-13.9031	-0.138358	0	
0.7953	-12.9839	0.788641	0	
0.7960	-10.2492	2.31058	0	
0.7967	-8.73252	0.16603	0	
0.7973	-9.33001	-1.6603	0	
0.7980	-6.8941	-2.26907	0	
0.7987	0.735371	-3.79101	0	
0.7993	3.79175	-4.70418	0	
0.8000	2.27505	-2.87785	0	
0.8007	4.71097	-0.138358	0	
0.8013	8.98531	1.09303	0	
0.8020	6.52641	1.70181	0	
0.8027	3.17129	5.97707	0	
0.8033	2.5738	11.7743	0	
0.8040	0.137882	12.9918	0	
0.8047	-2.32101	8.71656	0	
0.8053	-2.32101	2.91936	0	
0.8060	-5.97489	1.09303	0	
0.8067	-10.2492	4.4413	0	
0.8073	-9.95048	6.28146	0	
0.8080	-8.4108	3.52813	0	
0.8087	-8.4108	3.22374	0	
0.8093	-6.59535	3.52813	0	
0.8100	-5.67614	0.788641	0	
0.8107	-8.4108	0.788641	0	
0.8113	-9.33001	3.52813	0	
0.8120	-7.49159	1.70181	0	
0.8127	-5.05567	-0.442746	0	
0.8133	-2.32101	-0.442746	0	
0.8140	1.65458	-2.57346	0	
0.8147	4.38924	-3.18224	0	
0.8153	4.38924	-1.05152	0	
0.8160	2.5738	-2.26907	0	
0.8167	3.79175	-3.79101	0	
0.8173	8.0661	-2.57346	0	
0.8180	12.6392	-3.79101	0	
0.8187	14.4776	-5.0224	0	
0.8193	14.1559	-2.57346	0	
0.8200	11.72	-3.18224	0	
0.8207	10.2033	-7.76189	0	
0.8213	10.8008	-6.54434	0	
0.8220	11.72	-1.05152	0	
0.8227	9.5828	-0.442746	0	
0.8233	7.44563	-2.87785	0	
0.8240	7.44563	-1.96469	0	
0.8247	5.92892	-1.05152	0	
0.8253	2.5738	-3.79101	0	
0.8260	0.735371	-3.79101	0	
0.8267	-2.32101	-0.442746	0	
0.8273	-7.49159	0.16603	0	
0.8280	-8.4108	-1.6603	0	
0.8287	-5.97489	-1.96469	0	
0.8293	-8.11206	-0.747134	0	
0.8300	-12.3864	-0.138358	0	
0.8307	-13.3056	-1.05152	0	
0.8313	-10.548	-1.96469	0	
0.8320	-7.19284	-1.05152	0	
0.8327	-5.05567	1.39742	0	
0.8333	-3.24023	-0.138358	0	
0.8340	0.735371	-3.79101	0	
0.8347	3.79175	-3.18224	0	
0.8353	5.30846	-1.96469	0	
0.8360	9.90452	-3.48663	0	
0.8367	14.4776	-5.93556	0	
0.8373	16.6148	-7.4575	0	
0.8380	20.5674	-7.15312	0	
0.8387	25.1635	-6.54434	0	
0.8393	23.6238	-5.63118	0	
0.8400	19.3494	-5.0224	0	
0.8407	18.1315	-6.23995	0	
0.8413	15.3968	-8.06628	0	
0.8420	7.44563	-6.23995	0	
0.8427	-0.183843	-2.87785	0	
0.8433	-2.9185	-0.138358	0	
0.8440	-3.83771	2.61497	0	
0.8447	-7.49159	4.4413	0	
0.8453	-11.7659	3.22374	0	
0.8460	-15.1211	3.22374	0	
0.8467	-19.3954	5.35446	0	
0.8473	-22.153	6.28146	0	
0.8480	-20.3146	6.89024	0	
0.8487	-17.2582	8.10779	0	
0.8493	-17.58	8.71656	0	
0.8500	-17.8787	7.19462	0	
0.8507	-13.6044	5.35446	0	
0.8513	-9.33001	4.74568	0	
0.8520	-6.59535	4.74568	0	
0.8527	-1.10306	2.31058	0	
0.8533	4.38924	-1.05152	0	
0.8540	4.71097	-0.747134	0	
0.8547	2.5738	0.470418	0	
0.8553	3.17129	-1.05152	0	
0.8560	5.30846	-1.35591	0	
0.8567	4.0905	-0.138358	0	
0.8573	0.735371	-1.96469	0	
0.8580	-1.4018	-3.79101	0	
0.8587	-0.183843	-0.442746	0	
0.8593	0.735371	0.788641	0	
0.8600	0.137882	-2.87785	0	
0.8607	-0.781331	-3.48663	0	
0.8613	-0.482587	-0.442746	0	
0.8620	-0.781331	-0.747134	0	
0.8627	-1.4018	-1.96469	0	
0.8633	-1.10306	-0.138358	0	
0.8640	-0.781331	0.788641	0	
0.8647	-0.482587	-0.747134	0	
0.8653	1.03411	-1.05152	0	
0.8660	1.65458	0.16603	0	
0.8667	-0.482587	-0.138358	0	
0.8673	-1.4018	-1.96469	0	
0.8680	-0.183843	-1.05152	0	
0.8687	-1.99929	0.16603	0	
0.8693	-4.75693	-1.05152	0	
0.8700	-3.83771	-1.05152	0	
0.8707	-3.83771	1.70181	0	
0.8713	-4.13646	3.52813	0	
0.8720	-2.9185	5.65885	0	
0.8727	-1.70054	9.62973	0	
0.8733	-1.70054	7.19462	0	
0.8740	-2.9185	0.470418	0	
0.8747	-3.83771	-1.96469	0	
0.8753	-1.99929	-0.138358	0	
0.8760	-0.183843	1.39742	0	
0.8767	-1.99929	2.31058	0	
0.8773	-1.10306	-0.138358	0	
0.8780	3.49301	-1.96469	0	
0.8787	2.5738	-0.747134	0	
0.8793	0.137882	-1.96469	0	
0.8800	5.00971	-5.0224	0	
0.8807	10.502	-3.79101	0	
0.8813	11.1225	-1.05152	0	
0.8820	11.4212	-1.96469	0	
0.8827	10.8008	-1.96469	0	
0.8833	8.66358	0.16603	0	
0.8840	8.98531	-0.442746	0	
0.8847	12.3404	-1.6603	0	
0.8853	12.6392	-1.96469	0	
0.8860	10.502	-3.48663	0	
0.8867	8.66358	-2.87785	0	
0.8873	7.14688	0.16603	0	
0.8880	5.63018	0.16603	0	
0.8887	2.27505	-1.05152	0	
0.8893	-2.32101	-0.138358	0	
0.8900	-3.83771	0.470418	0	
0.8907	-3.24023	-0.442746	0	
0.8913	-4.75693	0.788641	0	
0.8920	-6.8941	1.70181	0	
0.8927	-8.11206	0.16603	0	
0.8933	-11.1684	0.470418	0	
0.8940	-15.1211	1.39742	0	
0.8947	-14.8223	-0.747134	0	
0.8953	-9.33001	-2.26907	0	
0.8960	-2.32101	-3.18224	0	
0.8967	2.27505	-7.15312	0	
0.8973	5.92892	-11.124	0	
0.8980	11.1225	-10.197	0	
0.8987	15.0751	-7.4575	0	
0.8993	15.3968	-7.4575	0	
0.9000	16.2931	-9.28383	0	
0.9007	18.1315	-8.06628	0	
0.9013	16.6148	-4.70418	0	
0.9020	13.8571	-4.70418	0	
0.9027	11.72	-4.70418	0	
0.9033	5.92892	-1.35591	0	
0.9040	-1.99929	2.61497	0	
0.9047	-8.4108	5.35446	0	
0.9053	-14.8223	7.19462	0	
0.9060	-22.7505	7.19462	0	
0.9067	-29.4838	9.93412	0	
0.9073	-31.2992	16.3401	0	
0.9080	-30.38	17.2671	0	
0.9087	-32.8389	11.7743	0	
0.9093	-35.5735	9.93412	0	
0.9100	-31.9197	10.8473	0	
0.9107	-25.5082	8.10779	0	
0.9113	-20.9351	4.4413	0	
0.9120	-16.6607	4.4413	0	
0.9127	-12.9839	3.22374	0	
0.9133	-11.1684	-0.138358	0	
0.9140	-8.4108	-1.96469	0	
0.9147	-3.24023	-3.18224	0	
0.9153	1.95333	-3.79101	0	
0.9160	3.49301	-1.96469	0	
0.9167	3.17129	-0.138358	0	
0.9173	3.49301	-1.05152	0	
0.9180	5.63018	-0.138358	0	
0.9187	7.76735	3.22374	0	
0.9193	8.36484	3.83252	0	
0.9200	7.14688	3.52813	0	
0.9207	6.52641	3.52813	0	
0.9213	7.44563	0.16603	0	
0.9220	8.0661	-1.6603	0	
0.9227	7.14688	0.788641	0	
0.9233	7.44563	1.70181	0	
0.9240	6.52641	0.470418	0	
0.9247	3.49301	1.09303	0	
0.9253	2.27505	0.788641	0	
0.9260	3.17129	-1.35591	0	
0.9267	2.87254	-2.26907	0	
0.9273	2.5738	-2.26907	0	
0.9280	3.49301	-1.35591	0	
0.9287	3.79175	-0.442746	0	
0.9293	2.5738	-0.747134	0	
0.9300	3.17129	-1.05152	0	
0.9307	4.71097	-1.96469	0	
0.9313	4.0905	-3.79101	0	
0.9320	3.79175	-4.0954	0	
0.9327	5.63018	-4.39979	0	
0.9333	5.30846	-5.63118	0	
0.9340	2.87254	-4.70418	0	
0.9347	2.5738	-1.96469	0	
0.9353	2.5738	-2.26907	0	
0.9360	2.5738	-3.79101	0	
0.9367	3.79175	-4.70418	0	
0.9373	5.63018	-5.32679	0	
0.9380	7.14688	-5.0224	0	
0.9387	9.90452	-3.79101	0	
0.9393	13.5584	-3.18224	0	
0.9400	14.4776	-3.79101	0	
0.9407	12.6392	-3.79101	0	
0.9413	11.1225	-2.57346	0	
0.9420	8.0661	-3.18224	0	
0.9427	3.79175	-4.39979	0	
0.9433	-0.183843	-2.87785	0	
0.9440	-3.83771	-0.138358	0	
0.9447	-5.67614	-0.747134	0	
0.9453	-6.27363	-2.57346	0	
0.9460	-7.49159	-1.96469	0	
0.9467	-8.73252	-0.747134	0	
0.9473	-9.03127	0.788641	0	
0.9480	-9.33001	2.00619	0	
0.9487	-9.03127	2.61497	0	
0.9493	-8.11206	2.31058	0	
0.9500	-6.8941	1.09303	0	
0.9507	-5.05567	-0.442746	0	
0.9513	-4.75693	0.16603	0	
0.9520	-6.27363	1.70181	0	
0.9527	-5.35442	0.788641	0	
0.9533	-2.32101	-0.138358	0	
0.9540	-2.9185	1.70181	0	
0.9547	-4.13646	1.70181	0	
0.9553	-0.781331	-1.05152	0	
0.9560	2.5738	-1.35591	0	
0.9567	4.71097	-0.138358	0	
0.9573	8.0661	-1.6603	0	
0.9580	9.90452	-2.87785	0	
0.9587	11.1225	-2.26907	0	
0.9593	16.9135	-1.96469	0	
0.9600	20.5674	-3.18224	0	
0.9607	17.2123	-3.48663	0	
0.9613	14.4776	-3.48663	0	
0.9620	15.3968	-3.48663	0	
0.9627	13.2596	-1.96469	0	
0.9633	8.66358	-0.138358	0	
0.9640	6.52641	0.16603	0	
0.9647	5.30846	1.09303	0	
0.9653	3.49301	1.70181	0	
0.9660	-0.482587	1.09303	0	
0.9667	-6.59535	0.470418	0	
0.9673	-10.8697	0.16603	0	
0.9680	-12.0877	0.788641	0	
0.9687	-13.9031	2.61497	0	
0.9693	-15.1211	3.22374	0	
0.9700	-13.9031	2.00619	0	
0.9707	-13.3056	4.13691	0	
0.9713	-14.8223	7.19462	0	
0.9720	-14.2248	5.35446	0	
0.9727	-12.0877	2.00619	0	
0.9733	-9.95048	0.470418	0	
0.9740	-6.59535	0.788641	0	
0.9747	-3.53897	0.788641	0	
0.9753	-2.32101	-0.138358	0	
0.9760	1.65458	1.39742	0	
0.9767	5.30846	4.4413	0	
0.9773	4.38924	2.61497	0	
0.9780	4.38924	0.16603	0	
0.9787	6.22767	2.31058	0	
0.9793	5.63018	1.39742	0	
0.9800	5.30846	-2.87785	0	
0.9807	6.52641	-1.96469	0	
0.9813	6.22767	-0.138358	0	
0.9820	5.92892	-1.6603	0	
0.9827	5.30846	-0.747134	0	
0.9833	2.5738	2.31058	0	
0.9840	-0.482587	2.00619	0	
0.9847	-1.99929	2.61497	0	
0.9853	-5.35442	3.52813	0	
0.9860	-10.548	1.39742	0	
0.9867	-12.9839	-0.138358	0	
0.9873	-11.7659	0.16603	0	
0.9880	-9.33001	-2.87785	0	
0.9887	-9.33001	-2.87785	0	
0.9893	-10.548	1.09303	0	
0.9900	-8.4108	0.788641	0	
0.9907	-6.8941	-1.96469	0	
0.9913	-7.49159	0.788641	0	
0.9920	-4.75693	4.13691	0	
0.9927	-1.70054	2.91936	0	
0.9933	-2.9185	0.16603	0	
0.9940	-1.70054	-2.87785	0	
0.9947	1.95333	-3.79101	0	
0.9953	1.35584	0.16603	0	
0.9960	0.137882	1.39742	0	
0.9967	2.5738	-1.96469	0	
0.9973	1.65458	-1.96469	0	
0.9980	-0.781331	-0.138358	0	
0.9987	2.27505	-1.6603	0	
0.9993	4.38924	-3.48663	0	
1.0000	1.03411	-3.79101	0	
1.0007	-0.183843	-1.6603	0	
1.0013	2.5738	-0.138358	0	
1.0020	2.5738	-1.96469	0	
1.0027	2.27505	-3.18224	0	
1.0033	5.30846	-0.138358	0	
1.0040	8.98531	0.16603	0	
1.0047	9.90452	-2.87785	0	
1.0053	11.4212	-2.87785	0	
1.0060	12.3404	-0.442746	0	
1.0067	8.98531	-0.747134	0	
1.0073	6.22767	-2.26907	0	
1.0080	9.5828	-1.96469	0	
1.0087	13.2596	-1.35591	0	
1.0093	13.8571	-3.18224	0	
1.0100	13.8571	-4.70418	0	
1.0107	12.6392	-4.0954	0	
1.0113	9.28405	-3.79101	0	
1.0120	6.22767	-5.32679	0	
1.0127	3.49301	-6.23995	0	
1.0133	1.03411	-6.54434	0	
1.0140	0.436626	-5.93556	0	
1.0147	1.35584	-4.0954	0	
1.0153	-1.10306	-4.0954	0	
1.0160	-7.19284	-3.18224	0	
1.0167	-9.33001	0.788641	0	
1.0173	-8.4108	2.61497	0	
1.0180	-9.33001	0.470418	0	
1.0187	-11.1684	0.788641	0	
1.0193	-10.2492	4.13691	0	
1.0200	-9.33001	5.35446	0	
1.0207	-9.62876	3.22374	0	
1.0213	-9.33001	1.70181	0	
1.0220	-9.33001	2.61497	0	
1.0227	-8.73252	3.22374	0	
1.0233	-6.59535	0.788641	0	
1.0240	-6.27363	1.70181	0	
1.0247	-6.59535	4.4413	0	
1.0253	-5.67614	2.31058	0	
1.0260	-6.27363	-1.6603	0	
1.0267	-6.27363	-2.87785	0	
1.0273	-1.99929	-3.79101	0	
1.0280	1.35584	-2.87785	0	
1.0287	1.03411	-0.138358	0	
1.0293	2.27505	0.788641	0	
1.0300	3.79175	0.16603	0	
1.0307	2.5738	0.470418	0	
1.0313	0.735371	-0.138358	0	
1.0320	2.5738	0.470418	0	
1.0327	4.38924	2.91936	0	
1.0333	5.30846	5.65885	0	
1.0340	3.49301	8.10779	0	
1.0347	-1.10306	9.93412	0	
1.0353	-3.83771	9.93412	0	
1.0360	-1.99929	7.19462	0	
1.0367	-1.70054	2.31058	0	
1.0373	-2.61976	0.470418	0	
1.0380	-0.183843	2.31058	0	
1.0387	1.65458	0.788641	0	
1.0393	0.735371	-2.87785	0	
1.0400	1.95333	-1.6603	0	
1.0407	4.71097	2.61497	0	
1.0413	2.87254	2.31058	0	
1.0420	-0.482587	-0.138358	0	
1.0427	0.137882	-2.26907	0	
1.0433	1.95333	-2.87785	0	
1.0440	0.735371	-1.05152	0	
1.0447	-1.99929	-0.138358	0	
1.0453	-4.13646	-1.6603	0	
1.0460	-4.13646	-2.87785	0	
1.0467	-4.13646	-1.96469	0	
1.0473	-4.75693	-0.442746	0	
1.0480	-5.67614	-0.442746	0	
1.0487	-6.59535	-1.6603	0	
1.0493	-8.11206	-1.96469	0	
1.0500	-9.62876	-2.26907	0	
1.0507	-9.33001	-3.79101	0	
1.0513	-7.49159	-1.96469	0	
1.0520	-7.19284	2.31058	0	
1.0527	-8.11206	1.70181	0	
1.0533	-5.67614	-2.57346	0	
1.0540	-0.781331	-2.87785	0	
1.0547	0.735371	-1.05152	0	
1.0553	-1.10306	-1.05152	0	
1.0560	-1.10306	-1.96469	0	
1.0567	0.436626	-2.26907	0	
1.0573	1.95333	-1.35591	0	
1.0580	3.49301	-1.05152	0	
1.0587	4.38924	-1.96469	0	
1.0593	3.49301	-3.18224	0	
1.0600	3.49301	-2.87785	0	
1.0607	3.49301	-2.87785	0	
1.0613	3.49301	-3.79101	0	
1.0620	5.00971	-4.70418	0	
1.0627	7.14688	-3.79101	0	
1.0633	8.66358	-1.6603	0	
1.0640	11.72	-0.138358	0	
1.0647	17.8327	-1.05152	0	
1.0653	20.5674	-1.6603	0	
1.0660	18.1315	-1.05152	0	
1.0667	15.3968	-2.26907	0	
1.0673	13.5584	-4.39979	0	
1.0680	10.502	-3.79101	0	
1.0687	7.44563	-1.05152	0	
1.0693	6.22767	-0.442746	0	
1.0700	3.49301	-2.57346	0	
1.0707	0.436626	-2.87785	0	
1.0713	-1.10306	-0.442746	0	
1.0720	-1.10306	-1.05152	0	
1.0727	-2.32101	-3.48663	0	
1.0733	-3.53897	-1.05152	0	
1.0740	-4.75693	1.70181	0	
1.0747	-7.49159	0.788641	0	
1.0753	-9.03127	0.788641	0	
1.0760	-8.11206	0.470418	0	
1.0767	-7.19284	-1.96469	0	
1.0773	-7.49159	-0.442746	0	
1.0780	-8.4108	1.70181	0	
1.0787	-7.81331	-0.138358	0	
1.0793	-5.67614	-0.138358	0	
1.0800	-6.27363	3.22374	0	
1.0807	-9.33001	2.61497	0	
1.0813	-9.95048	0.788641	0	
1.0820	-8.4108	2.61497	0	
1.0827	-8.73252	3.52813	0	
1.0833	-9.33001	1.39742	0	
1.0840	-7.49159	2.61497	0	
1.0847	-5.35442	5.05007	0	
1.0853	-4.45818	2.91936	0	
1.0860	-4.45818	0.788641	0	
1.0867	-4.45818	2.61497	0	
1.0873	-2.9185	4.13691	0	
1.0880	-0.183843	1.09303	0	
1.0887	0.436626	-1.05152	0	
1.0893	0.436626	-0.138358	0	
1.0900	1.95333	-0.747134	0	
1.0907	2.87254	-2.26907	0	
1.0913	2.5738	-1.96469	0	
1.0920	3.17129	-2.87785	0	
1.0927	5.30846	-4.70418	0	
1.0933	5.92892	-5.0224	0	
1.0940	7.14688	-3.79101	0	
1.0947	10.8008	-3.79101	0	
1.0953	9.90452	-4.39979	0	
1.0960	6.22767	-5.63118	0	
1.0967	6.52641	-7.4575	0	
1.0973	8.0661	-6.54434	0	
1.0980	5.92892	-5.93556	0	
1.0987	3.79175	-6.23995	0	
1.0993	2.5738	-4.0954	0	
1.1000	1.35584	-1.96469	0	
1.1007	1.35584	-0.747134	0	
1.1013	1.03411	1.70181	0	
1.1020	-0.183843	6.28146	0	
1.1027	-0.482587	9.02095	0	
1.1033	-1.99929	10.2385	0	
1.1040	-5.97489	9.93412	0	
1.1047	-7.49159	6.28146	0	
1.1053	-7.49159	2.61497	0	
1.1060	-8.4108	2.61497	0	
1.1067	-9.03127	5.65885	0	
1.1073	-11.4672	6.28146	0	
1.1080	-12.9839	5.65885	0	
1.1087	-10.2492	6.58585	0	
1.1093	-9.95048	6.89024	0	
1.1100	-12.0877	5.35446	0	
1.1107	-8.73252	4.4413	0	
1.1113	-2.9185	1.70181	0	
1.1120	0.436626	-1.05152	0	
1.1127	2.87254	-0.442746	0	
1.1133	6.22767	0.16603	0	
1.1140	8.36484	-2.26907	0	
1.1147	10.502	-4.0954	0	
1.1153	10.8008	-3.79101	0	
1.1160	9.5828	-3.79101	0	
1.1167	7.44563	-3.79101	0	
1.1173	5.30846	-3.18224	0	
1.1180	4.71097	-2.57346	0	
1.1187	5.63018	-1.35591	0	
1.1193	4.38924	-1.96469	0	
1.1200	2.87254	-3.79101	0	
1.1207	2.87254	-2.87785	0	
1.1213	0.436626	-1.35591	0	
1.1220	-2.9185	-1.96469	0	
1.1227	-1.99929	-0.442746	0	
1.1233	1.03411	2.61497	0	
1.1240	3.49301	3.83252	0	
1.1247	5.30846	2.61497	0	
1.1253	6.22767	3.22374	0	
1.1260	6.22767	6.28146	0	
1.1267	6.22767	7.19462	0	
1.1273	5.92892	4.4413	0	
1.1280	3.49301	2.00619	0	
1.1287	0.436626	0.788641	0	
1.1293	-0.183843	-0.138358	0	
1.1300	1.03411	-0.138358	0	
1.1307	0.735371	-0.747134	0	
1.1313	-3.24023	-1.96469	0	
1.1320	-7.19284	-1.6603	0	
1.1327	-7.81331	-2.26907	0	
1.1333	-7.49159	-3.79101	0	
1.1340	-8.73252	-3.79101	0	
1.1347	-9.33001	-3.79101	0	
1.1353	-9.95048	-4.39979	0	
1.1360	-11.7659	-2.26907	0	
1.1367	-11.4672	-1.96469	0	
1.1373	-7.49159	-4.39979	0	
1.1380	-6.59535	-3.18224	0	
1.1387	-7.19284	-1.96469	0	
1.1393	-4.75693	-3.79101	0	
1.1400	-5.05567	-1.05152	0	
1.1407	-7.81331	3.52813	0	
1.1413	-4.45818	2.00619	0	
1.1420	-1.70054	0.16603	0	
1.1427	-5.67614	2.61497	0	
1.1433	-7.49159	2.61497	0	
1.1440	-4.45818	3.22374	0	
1.1447	-3.83771	5.97707	0	
1.1453	-2.32101	4.4413	0	
1.1460	2.5738	0.788641	0	
1.1467	5.30846	0.16603	0	
1.1473	8.0661	0.470418	0	
1.1480	14.1559	0.788641	0	
1.1487	16.9135	0.788641	0	
1.1493	15.3968	-3.18224	0	
1.1500	14.4776	-5.0224	0	
1.1507	13.5584	-0.138358	0	
1.1513	11.72	2.31058	0	
1.1520	9.90452	0.16603	0	
1.1527	8.36484	1.70181	0	
1.1533	5.92892	4.13691	0	
1.1540	3.17129	2.61497	0	
1.1547	0.137882	2.91936	0	
1.1553	-2.9185	1.70181	0	
1.1560	-3.83771	-3.48663	0	
1.1567	-6.27363	-5.0224	0	
1.1573	-11.1684	-2.87785	0	
1.1580	-12.3864	-2.87785	0	
1.1587	-8.73252	-1.96469	0	
1.1593	-7.19284	1.70181	0	
1.1600	-7.49159	1.70181	0	
1.1607	-5.67614	-1.96469	0	
1.1613	-3.83771	-3.48663	0	
1.1620	-4.45818	-3.48663	0	
1.1627	-2.32101	-2.87785	0	
1.1633	1.35584	-1.05152	0	
1.1640	1.65458	-1.35591	0	
1.1647	1.35584	-3.79101	0	
1.1653	0.735371	-2.87785	0	
1.1660	-2.9185	-0.138358	0	
1.1667	-6.27363	-1.96469	0	
1.1673	-2.9185	-3.48663	0	
1.1680	-0.482587	-1.05152	0	
1.1687	-2.9185	0.788641	0	
1.1693	-3.83771	2.00619	0	
1.1700	-1.10306	2.61497	0	
1.1707	-0.183843	1.39742	0	
1.1713	-2.9185	0.788641	0	
1.1720	-3.83771	2.61497	0	
1.1727	-1.10306	1.70181	0	
1.1733	2.5738	-0.442746	0	
1.1740	2.5738	-1.05152	0	
1.1747	2.5738	-1.35591	0	
1.1753	6.22767	-1.05152	0	
1.1760	8.0661	-0.442746	0	
1.1767	5.63018	-1.05152	0	
1.1773	5.30846	-1.05152	0	
1.1780	6.84814	-1.6603	0	
1.1787	7.14688	-3.79101	0	
1.1793	6.22767	-2.87785	0	
1.1800	4.38924	-0.138358	0	
1.1807	5.92892	-1.35591	0	
1.1813	10.8008	-3.79101	0	
1.1820	9.90452	-3.48663	0	
1.1827	6.22767	-2.87785	0	
1.1833	8.98531	-2.87785	0	
1.1840	11.72	-1.96469	0	
1.1847	8.0661	0.16603	0	
1.1853	6.52641	2.61497	0	
1.1860	7.44563	2.91936	0	
1.1867	4.38924	1.70181	0	
1.1873	1.35584	1.39742	0	
1.1880	-0.183843	1.09303	0	
1.1887	-3.53897	1.39742	0	
1.1893	-7.19284	3.22374	0	
1.1900	-10.2492	2.61497	0	
1.1907	-15.4428	1.39742	0	
1.1913	-18.1774	2.31058	0	
1.1920	-16.6607	1.70181	0	
1.1927	-17.8787	-0.442746	0	
1.1933	-20.9351	1.09303	0	
1.1940	-20.3146	2.31058	0	
1.1947	-18.1774	-0.138358	0	
1.1953	-14.8223	-1.35591	0	
1.1960	-7.81331	-1.96469	0	
1.1967	0.735371	-3.79101	0	
1.1973	5.92892	-4.70418	0	
1.1980	11.1225	-4.70418	0	
1.1987	15.3968	-3.79101	0	
1.1993	14.4776	-2.57346	0	
1.2000	10.8008	-3.48663	0	
1.2007	10.8008	-5.0224	0	
1.2013	9.90452	-4.70418	0	
1.2020	6.52641	-3.18224	0	
1.2027	4.0905	-2.87785	0	
1.2033	1.65458	-2.26907	0	
1.2040	-3.83771	-1.05152	0	
1.2047	-7.81331	0.470418	0	
1.2053	-9.62876	2.61497	0	
1.2060	-10.2492	2.61497	0	
1.2067	-10.548	0.788641	0	
1.2073	-13.9031	3.22374	0	
1.2080	-17.58	5.35446	0	
1.2087	-15.7415	3.22374	0	
1.2093	-12.9839	2.61497	0	
1.2100	-12.6851	4.13691	0	
1.2107	-9.33001	2.31058	0	
1.2113	-3.24023	-1.05152	0	
1.2120	-3.83771	-0.747134	0	
1.2127	-6.8941	-0.138358	0	
1.2133	-5.67614	-0.747134	0	
1.2140	-1.4018	0.788641	0	
1.2147	-0.183843	1.09303	0	
1.2153	0.137882	-1.6603	0	
1.2160	2.5738	-3.18224	0	
1.2167	6.22767	-1.96469	0	
1.2173	5.63018	-1.96469	0	
1.2180	6.22767	-3.48663	0	
1.2187	13.5584	-1.6603	0	
1.2193	18.4302	0.788641	0	
1.2200	16.2931	-1.05152	0	
1.2207	15.6956	-3.79101	0	
1.2213	17.2123	-3.79101	0	
1.2220	15.3968	-2.26907	0	
1.2227	14.1559	-2.87785	0	
1.2233	14.4776	-3.79101	0	
1.2240	11.72	-2.26907	0	
1.2247	8.66358	-1.96469	0	
1.2253	7.76735	-3.18224	0	
1.2260	7.44563	-2.57346	0	
1.2267	6.52641	-1.96469	0	
1.2273	3.17129	-3.79101	0	
1.2280	-2.61976	-2.87785	0	
1.2287	-3.83771	-1.96469	0	
1.2293	-1.10306	-3.79101	0	
1.2300	-1.70054	-3.79101	0	
1.2307	-4.75693	-1.05152	0	
1.2313	-3.83771	-0.442746	0	
1.2320	-1.99929	0.470418	0	
1.2327	-3.53897	1.39742	0	
1.2333	-4.13646	-1.96469	0	
1.2340	-2.9185	-4.0954	0	
1.2347	-4.45818	-1.96469	0	
1.2353	-6.59535	0.16603	0	
1.2360	-4.45818	1.09303	0	
1.2367	-4.75693	1.70181	0	
1.2373	-8.4108	-0.747134	0	
1.2380	-7.81331	-1.6603	0	
1.2387	-6.27363	1.70181	0	
1.2393	-9.95048	3.52813	0	
1.2400	-12.3864	1.70181	0	
1.2407	-11.1684	-0.138358	0	
1.2413	-10.2492	-1.05152	0	
1.2420	-8.4108	0.788641	0	
1.2427	-5.35442	5.35446	0	
1.2433	-4.45818	9.02095	0	
1.2440	-4.75693	12.6874	0	
1.2447	-2.9185	14.2094	0	
1.2453	0.735371	10.8473	0	
1.2460	5.30846	6.58585	0	
1.2467	10.8008	5.35446	0	
1.2473	13.8571	2.61497	0	
1.2480	12.9379	-1.05152	0	
1.2487	12.3404	-1.05152	0	
1.2493	14.1559	0.470418	0	
1.2500	16.2931	-0.442746	0	
1.2507	17.534	-1.05152	0	
1.2513	16.9135	-0.138358	0	
1.2520	15.9943	-1.05152	0	
1.2527	13.5584	-2.87785	0	
1.2533	9.90452	-4.70418	0	
1.2540	8.98531	-5.93556	0	
1.2547	8.98531	-5.63118	0	
1.2553	6.22767	-4.70418	0	
1.2560	1.65458	-4.70418	0	
1.2567	-2.61976	-5.0224	0	
1.2573	-6.59535	-3.79101	0	
1.2580	-11.1684	-1.96469	0	
1.2587	-16.6607	-0.138358	0	
1.2593	-20.6134	2.00619	0	
1.2600	-18.7979	2.31058	0	
1.2607	-14.8223	0.470418	0	
1.2613	-12.0877	1.70181	0	
1.2620	-9.95048	4.74568	0	
1.2627	-11.1684	5.05007	0	
1.2633	-15.7415	4.4413	0	
1.2640	-13.6044	5.65885	0	
1.2647	-6.8941	4.4413	0	
1.2653	-7.49159	2.00619	0	
1.2660	-9.03127	2.61497	0	
1.2667	-5.97489	3.52813	0	
1.2673	-5.67614	0.788641	0	
1.2680	-7.49159	-0.442746	0	
1.2687	-4.75693	0.788641	0	
1.2693	-1.70054	1.39742	0	
1.2700	0.137882	-0.442746	0	
1.2707	1.65458	-0.747134	0	
1.2713	-0.183843	1.39742	0	
1.2720	-3.24023	2.61497	0	
1.2727	-1.99929	0.788641	0	
1.2733	-0.482587	-0.442746	0	
1.2740	-1.99929	-0.138358	0	
1.2747	-1.70054	-1.05152	0	
1.2753	-0.183843	-2.57346	0	
1.2760	-1.4018	-2.57346	0	
1.2767	-3.53897	-1.96469	0	
1.2773	-3.24023	-1.96469	0	
1.2780	-1.4018	-1.05152	0	
1.2787	-1.4018	-0.138358	0	
1.2793	-2.9185	0.470418	0	
1.2800	-2.9185	1.70181	0	
1.2807	-2.9185	1.70181	0	
1.2813	-3.53897	-1.96469	0	
1.2820	-1.99929	-3.79101	0	
1.2827	1.03411	-2.57346	0	
1.2833	2.5738	-1.6603	0	
1.2840	4.0905	-1.96469	0	
1.2847	5.30846	-1.05152	0	
1.2853	5.30846	-1.05152	0	
1.2860	7.14688	-2.26907	0	
1.2867	8.98531	-1.35591	0	
1.2873	4.38924	0.788641	0	
1.2880	2.5738	0.788641	0	
1.2887	8.0661	-1.05152	0	
1.2893	10.8008	-2.26907	0	
1.2900	9.28405	-2.87785	0	
1.2907	11.72	-2.87785	0	
1.2913	13.5584	-2.57346	0	
1.2920	10.8008	-0.747134	0	
1.2927	9.5828	0.470418	0	
1.2933	8.98531	-0.747134	0	
1.2940	7.14688	-2.26907	0	
1.2947	5.63018	-1.05152	0	
1.2953	3.17129	0.470418	0	
1.2960	-0.482587	0.470418	0	
1.2967	-2.32101	-1.05152	0	
1.2973	-4.75693	-1.96469	0	
1.2980	-8.4108	-1.96469	0	
1.2987	-8.4108	-1.05152	0	
1.2993	-7.49159	-0.138358	0	
1.3000	-9.33001	1.70181	0	
1.3007	-9.33001	0.788641	0	
1.3013	-5.97489	-3.79101	0	
1.3020	-1.99929	-5.32679	0	
1.3027	1.65458	-2.87785	0	
1.3033	4.38924	-1.96469	0	
1.3040	6.22767	-2.87785	0	
1.3047	9.28405	-2.87785	0	
1.3053	9.90452	-3.79101	0	
1.3060	7.14688	-5.0224	0	
1.3067	5.63018	-3.79101	0	
1.3073	5.30846	-0.747134	0	
1.3080	1.65458	1.39742	0	
1.3087	-4.45818	1.09303	0	
1.3093	-9.03127	2.61497	0	
1.3100	-12.3864	8.10779	0	
1.3107	-15.7415	9.93412	0	
1.3113	-15.7415	6.89024	0	
1.3120	-14.8223	5.35446	0	
1.3127	-16.6607	4.4413	0	
1.3133	-19.3954	1.39742	0	
1.3140	-18.7979	0.470418	0	
1.3147	-15.1211	0.788641	0	
1.3153	-12.6851	0.16603	0	
1.3160	-9.62876	2.31058	0	
1.3167	-4.45818	4.4413	0	
1.3173	-0.482587	0.16603	0	
1.3180	1.35584	-3.48663	0	
1.3187	3.79175	-2.57346	0	
1.3193	6.22767	-2.57346	0	
1.3200	5.30846	-3.79101	0	
1.3207	5.30846	-2.26907	0	
1.3213	7.14688	-0.138358	0	
1.3220	8.0661	-0.138358	0	
1.3227	8.66358	-0.138358	0	
1.3233	9.5828	-1.05152	0	
1.3240	9.90452	-2.87785	0	
1.3247	8.36484	-1.05152	0	
1.3253	5.00971	1.70181	0	
1.3260	1.35584	-0.138358	0	
1.3267	1.03411	-1.96469	0	
1.3273	3.49301	0.16603	0	
1.3280	2.87254	0.788641	0	
1.3287	1.03411	-0.442746	0	
1.3293	-0.183843	0.16603	0	
1.3300	-2.61976	1.09303	0	
1.3307	-5.67614	1.70181	0	
1.3313	-5.35442	2.00619	0	
1.3320	-4.45818	0.470418	0	
1.3327	-4.45818	-1.96469	0	
1.3333	-4.13646	-1.6603	0	
1.3340	-5.67614	0.788641	0	
1.3347	-6.27363	-0.138358	0	
1.3353	-3.53897	-2.26907	0	
1.3360	-1.10306	-1.96469	0	
1.3367	-1.70054	-0.747134	0	
1.3373	-2.9185	-3.79101	0	
1.3380	-3.53897	-6.54434	0	
1.3387	-1.4018	-2.87785	0	
1.3393	2.5738	2.61497	0	
1.3400	3.49301	2.00619	0	
1.3407	4.0905	-1.05152	0	
1.3413	8.98531	-2.87785	0	
1.3420	13.2596	-3.79101	0	
1.3427	14.4776	-2.57346	0	
1.3433	15.3968	2.31058	0	
1.3440	15.3968	2.91936	0	
1.3447	13.5584	-0.747134	0	
1.3453	11.72	-1.05152	0	
1.3460	6.84814	1.70181	0	
1.3467	1.03411	2.61497	0	
1.3473	-0.781331	1.70181	0	
1.3480	-2.32101	1.70181	0	
1.3487	-5.97489	0.788641	0	
1.3493	-7.81331	-1.96469	0	
1.3500	-7.49159	-3.18224	0	
1.3507	-7.19284	-3.48663	0	
1.3513	-7.49159	-4.39979	0	
1.3520	-9.95048	-4.70418	0	
1.3527	-11.1684	-2.87785	0	
1.3533	-9.33001	-1.6603	0	
1.3540	-9.62876	-3.48663	0	
1.3547	-8.73252	-4.0954	0	
1.3553	-3.53897	-2.57346	0	
1.3560	-1.10306	-1.96469	0	
1.3567	-3.24023	-3.48663	0	
1.3573	-1.70054	-2.87785	0	
1.3580	1.95333	-2.26907	0	
1.3587	1.95333	-2.87785	0	
1.3593	1.35584	-2.87785	0	
1.3600	1.95333	-2.26907	0	
1.3607	2.5738	-3.79101	0	
1.3613	4.38924	-4.39979	0	
1.3620	7.14688	-3.48663	0	
1.3627	10.2033	-3.48663	0	
1.3633	14.4776	-3.79101	0	
1.3640	15.3968	-1.35591	0	
1.3647	12.6392	1.09303	0	
1.3653	10.8008	-0.747134	0	
1.3660	10.8008	-2.87785	0	
1.3667	9.90452	-1.96469	0	
1.3673	9.90452	-0.138358	0	
1.3680	9.90452	-0.442746	0	
1.3687	7.14688	-1.35591	0	
1.3693	4.0905	-1.96469	0	
1.3700	2.5738	-1.35591	0	
1.3707	0.137882	-1.05152	0	
1.3713	-4.45818	-1.6603	0	
1.3720	-8.73252	-1.05152	0	
1.3727	-11.1684	0.16603	0	
1.3733	-12.3864	1.39742	0	
1.3740	-13.3056	1.70181	0	
1.3747	-13.9031	0.788641	0	
1.3753	-11.7659	1.09303	0	
1.3760	-9.95048	2.61497	0	
1.3767	-11.1684	2.91936	0	
1.3773	-10.2492	2.00619	0	
1.3780	-4.75693	1.70181	0	
1.3787	-1.4018	2.31058	0	
1.3793	-1.4018	3.22374	0	
1.3800	-0.183843	3.22374	0	
1.3807	1.95333	1.70181	0	
1.3813	0.735371	0.788641	0	
1.3820	-0.781331	1.39742	0	
1.3827	-0.482587	0.16603	0	
1.3833	-1.10306	-0.138358	0	
1.3840	-1.10306	1.09303	0	
1.3847	0.735371	0.470418	0	
1.3853	-1.10306	-0.442746	0	
1.3860	-4.75693	1.39742	0	
1.3867	-3.83771	2.91936	0	
1.3873	-1.10306	1.09303	0	
1.3880	-0.482587	-1.6603	0	
1.3887	2.5738	-1.6603	0	
1.3893	5.30846	-0.138358	0	
1.3900	3.79175	-0.747134	0	
1.3907	7.14688	-2.26907	0	
1.3913	13.5584	-0.138358	0	
1.3920	13.8571	0.788641	0	
1.3927	11.72	-0.138358	0	
1.3933	10.2033	4.13691	0	
1.3940	5.63018	10.2385	0	
1.3947	2.27505	9.02095	0	
1.3953	1.65458	6.28146	0	
1.3960	-1.99929	7.19462	0	
1.3967	-7.81331	5.05007	0	
1.3973	-10.2492	0.16603	0	
1.3980	-10.2492	0.16603	0	
1.3987	-12.9839	1.70181	0	
1.3993	-15.4428	0.470418	0	
1.4000	-16.0403	0.16603	0	
1.4007	-15.7415	2.61497	0	
1.4013	-16.0403	2.00619	0	
1.4020	-17.58	0.788641	0	
1.4027	-16.362	2.00619	0	
1.4033	-14.2248	3.83252	0	
1.4040	-12.0877	4.4413	0	
1.4047	-7.19284	2.61497	0	
1.4053	-0.482587	0.788641	0	
1.4060	1.95333	0.788641	0	
1.4067	2.5738	1.09303	0	
1.4073	4.71097	0.16603	0	
1.4080	7.14688	-0.442746	0	
1.4087	7.76735	-1.35591	0	
1.4093	8.0661	-2.87785	0	
1.4100	8.0661	-1.35591	0	
1.4107	6.84814	0.788641	0	
1.4113	5.30846	-1.05152	0	
1.4120	6.52641	-3.18224	0	
1.4127	6.52641	-2.87785	0	
1.4133	2.5738	-3.48663	0	
1.4140	-0.183843	-4.70418	0	
1.4147	0.735371	-3.18224	0	
1.4153	0.436626	-1.05152	0	
1.4160	-1.10306	-1.35591	0	
1.4167	-1.10306	-1.96469	0	
1.4173	-1.10306	-1.05152	0	
1.4180	1.65458	-1.05152	0	
1.4187	8.0661	-4.39979	0	
1.4193	15.3968	-6.54434	0	
1.4200	18.7519	-5.63118	0	
1.4207	19.0507	-5.93556	0	
1.4213	18.7519	-6.23995	0	
1.4220	17.2123	-3.79101	0	
1.4227	13.2596	-3.79101	0	
1.4233	8.66358	-6.54434	0	
1.4240	7.14688	-5.63118	0	
1.4247	5.63018	-1.35591	0	
1.4253	3.17129	-0.747134	0	
1.4260	2.5738	-1.05152	0	
1.4267	2.5738	0.470418	0	
1.4273	1.03411	0.470418	0	
1.4280	-1.10306	-1.05152	0	
1.4287	-4.13646	-0.747134	0	
1.4293	-8.11206	0.16603	0	
1.4300	-9.95048	1.70181	0	
1.4307	-11.1684	3.52813	0	
1.4313	-13.9031	4.13691	0	
1.4320	-16.0403	3.22374	0	
1.4327	-15.7415	4.13691	0	
1.4333	-13.9031	4.4413	0	
1.4340	-12.0877	2.61497	0	
1.4347	-9.95048	1.39742	0	
1.4353	-8.4108	2.61497	0	
1.4360	-8.73252	4.4413	0	
1.4367	-12.0877	4.4413	0	
1.4373	-12.6851	3.83252	0	
1.4380	-7.81331	4.4413	0	
1.4387	-4.13646	4.74568	0	
1.4393	-3.83771	2.61497	0	
1.4400	-3.24023	0.16603	0	
1.4407	-4.45818	-0.442746	0	
1.4413	-5.67614	-0.138358	0	
1.4420	-0.781331	0.788641	0	
1.4427	5.00971	1.39742	0	
1.4433	3.79175	-1.05152	0	
1.4440	2.5738	-2.57346	0	
1.4447	8.98531	0.788641	0	
1.4453	15.6956	1.70181	0	
1.4460	15.3968	-1.96469	0	
1.4467	14.4776	-2.57346	0	
1.4473	18.7519	-0.138358	0	
1.4480	20.8891	-1.96469	0	
1.4487	17.2123	-3.79101	0	
1.4493	14.4776	-2.26907	0	
1.4500	12.3404	-0.138358	0	
1.4507	7.14688	1.70181	0	
1.4513	2.5738	2.61497	0	
1.4520	-0.183843	1.39742	0	
1.4527	-5.97489	1.39742	0	
1.4533	-12.6851	2.61497	0	
1.4540	-14.8223	2.31058	0	
1.4547	-14.5236	0.788641	0	
1.4553	-14.8223	-0.138358	0	
1.4560	-16.0403	0.16603	0	
1.4567	-18.1774	2.00619	0	
1.4573	-18.4992	1.70181	0	
1.4580	-15.7415	-1.6603	0	
1.4587	-9.95048	-1.35591	0	
1.4593	-5.67614	0.16603	0	
1.4600	-4.13646	-1.6603	0	
1.4607	-2.32101	-1.05152	0	
1.4613	0.137882	4.4413	0	
1.4620	1.03411	6.89024	0	
1.4627	1.65458	6.58585	0	
1.4633	2.5738	6.28146	0	
1.4640	3.49301	2.91936	0	
1.4647	2.5738	-1.96469	0	
1.4653	0.735371	-3.48663	0	
1.4660	1.03411	-3.18224	0	
1.4667	1.65458	-1.96469	0	
1.4673	-0.183843	-0.442746	0	
1.4680	-1.99929	-1.35591	0	
1.4687	-1.10306	-3.48663	0	
1.4693	-1.10306	-1.96469	0	
1.4700	-3.53897	-0.138358	0	
1.4707	-5.67614	-0.138358	0	
1.4713	-5.67614	-0.747134	0	
1.4720	-2.9185	-0.442746	0	
1.4727	0.137882	0.16603	0	
1.4733	-0.482587	-1.05152	0	
1.4740	-2.32101	-4.70418	0	
1.4747	-1.10306	-5.32679	0	
1.4753	0.436626	-1.96469	0	
1.4760	1.95333	-2.57346	0	
1.4767	5.00971	-4.70418	0	
1.4773	4.38924	-2.26907	0	
1.4780	1.95333	-2.87785	0	
1.4787	4.0905	-8.06628	0	
1.4793	7.14688	-6.54434	0	
1.4800	5.92892	-1.96469	0	
1.4807	5.30846	-3.79101	0	
1.4813	7.44563	-2.87785	0	
1.4820	8.36484	2.31058	0	
1.4827	9.28405	1.39742	0	
1.4833	11.72	-0.138358	0	
1.4840	12.6392	1.70181	0	
1.4847	12.0187	-1.05152	0	
1.4853	11.72	-4.0954	0	
1.4860	11.72	-1.6603	0	
1.4867	10.502	-1.05152	0	
1.4873	6.22767	-3.18224	0	
1.4880	1.65458	-1.6603	0	
1.4887	-0.183843	-1.35591	0	
1.4893	-1.99929	-2.87785	0	
1.4900	-3.83771	-1.35591	0	
1.4907	-5.67614	-1.05152	0	
1.4913	-5.67614	-2.87785	0	
1.4920	-5.97489	-1.96469	0	
1.4927	-7.49159	-1.6603	0	
1.4933	-9.33001	-3.79101	0	
1.4940	-7.81331	-2.87785	0	
1.4947	-5.67614	0.16603	0	
1.4953	-6.27363	-0.747134	0	
1.4960	-7.49159	-1.6603	0	
1.4967	-7.19284	0.16603	0	
1.4973	-5.67614	0.788641	0	
1.4980	-4.75693	-1.35591	0	
1.4987	-5.05567	-0.747134	0	
1.4993	-4.75693	0.788641	0	
1.5000	-2.9185	-1.35591	0	
1.5007	-2.61976	-3.48663	0	
1.5013	-1.4018	-1.05152	0	
1.5020	1.65458	0.788641	0	
1.5027	3.49301	-1.05152	0	
1.5033	3.49301	-1.05152	0	
1.5040	3.79175	2.00619	0	
1.5047	2.5738	2.31058	0	
1.5053	2.5738	0.16603	0	
1.5060	4.71097	0.470418	0	
1.5067	5.92892	1.09303	0	
1.5073	4.71097	-0.747134	0	
1.5080	6.22767	-2.57346	0	
1.5087	8.36484	-1.35591	0	
1.5093	6.52641	-0.138358	0	
1.5100	5.30846	-1.6603	0	
1.5107	8.0661	-1.96469	0	
1.5113	9.90452	-0.138358	0	
1.5120	8.98531	-0.442746	0	
1.5127	8.0661	-3.79101	0	
1.5133	6.84814	-3.79101	0	
1.5140	7.14688	-3.18224	0	
1.5147	8.0661	-5.0224	0	
1.5153	6.22767	-6.23995	0	
1.5160	2.5738	-5.0224	0	
1.5167	1.35584	-3.79101	0	
1.5173	0.137882	-1.05152	0	
1.5180	-1.10306	1.70181	0	
1.5187	-1.99929	0.16603	0	
1.5193	-5.05567	-0.442746	0	
1.5200	-9.62876	2.31058	0	
1.5207	-10.548	3.22374	0	
1.5213	-12.0877	3.22374	0	
1.5220	-15.7415	5.35446	0	
1.5227	-16.362	7.49901	0	
1.5233	-16.6607	7.49901	0	
1.5240	-16.6607	5.97707	0	
1.5247	-12.9839	4.4413	0	
1.5253	-10.2492	3.83252	0	
1.5260	-12.9839	3.52813	0	
1.5267	-12.3864	3.22374	0	
1.5273	-9.03127	4.74568	0	
1.5280	-8.11206	4.4413	0	
1.5287	-5.97489	1.09303	0	
1.5293	-1.70054	-0.442746	0	
1.5300	-0.183843	1.39742	0	
1.5307	1.95333	2.00619	0	
1.5313	6.52641	1.70181	0	
1.5320	8.36484	0.788641	0	
1.5327	8.36484	-1.05152	0	
1.5333	10.8008	-1.05152	0	
1.5340	10.8008	-1.35591	0	
1.5347	9.28405	-3.18224	0	
1.5353	13.5584	-2.87785	0	
1.5360	20.8891	-2.87785	0	
1.5367	23.6238	-7.76189	0	
1.5373	23.9225	-10.8196	0	
1.5380	22.7046	-7.4575	0	
1.5387	17.534	-4.39979	0	
1.5393	11.72	-4.70418	0	
1.5400	8.0661	-5.63118	0	
1.5407	4.0905	-5.63118	0	
1.5413	-0.781331	-3.79101	0	
1.5420	-5.67614	-1.96469	0	
1.5427	-10.8697	-1.05152	0	
1.5433	-14.5236	-0.138358	0	
1.5440	-16.362	2.31058	0	
1.5447	-19.3954	4.74568	0	
1.5453	-21.8543	6.28146	0	
1.5460	-20.6134	6.28146	0	
1.5467	-19.3954	6.58585	0	
1.5473	-21.2338	10.5429	0	
1.5480	-23.9915	10.8473	0	
1.5487	-23.371	6.28146	0	
1.5493	-20.3146	5.65885	0	
1.5500	-16.6607	9.32534	0	
1.5507	-13.9031	8.10779	0	
1.5513	-11.1684	3.52813	0	
1.5520	-9.03127	0.788641	0	
1.5527	-8.73252	0.16603	0	
1.5533	-8.4108	1.39742	0	
1.5540	-7.81331	0.788641	0	
1.5547	-7.49159	-2.87785	0	
1.5553	-7.81331	-3.79101	0	
1.5560	-5.67614	-0.138358	0	
1.5567	-0.183843	2.00619	0	
1.5573	1.95333	3.52813	0	
1.5580	0.436626	6.89024	0	
1.5587	3.49301	7.19462	0	
1.5593	10.8008	2.31058	0	
1.5600	13.5584	-1.96469	0	
1.5607	12.6392	-3.18224	0	
1.5613	11.72	-4.0954	0	
1.5620	10.502	-3.79101	0	
1.5627	10.8008	-1.35591	0	
1.5633	13.5584	0.788641	0	
1.5640	13.5584	-1.05152	0	
1.5647	11.1225	-1.96469	0	
1.5653	9.28405	0.16603	0	
1.5660	8.0661	1.70181	0	
1.5667	6.22767	0.788641	0	
1.5673	2.27505	-0.138358	0	
1.5680	-1.70054	-0.138358	0	
1.5687	-2.61976	0.788641	0	
1.5693	-4.13646	3.52813	0	
1.5700	-7.49159	5.97707	0	
1.5707	-7.81331	5.35446	0	
1.5713	-6.59535	5.05007	0	
1.5720	-7.49159	5.35446	0	
1.5727	-9.33001	2.91936	0	
1.5733	-9.33001	-0.442746	0	
1.5740	-7.19284	0.16603	0	
1.5747	-3.83771	2.00619	0	
1.5753	-4.45818	2.00619	0	
1.5760	-8.11206	2.61497	0	
1.5767	-7.19284	3.83252	0	
1.5773	-2.61976	2.61497	0	
1.5780	0.137882	0.16603	0	
1.5787	2.27505	-1.35591	0	
1.5793	4.38924	-2.26907	0	
1.5800	6.22767	-2.26907	0	
1.5807	8.0661	-2.87785	0	
1.5813	12.0187	-4.0954	0	
1.5820	14.4776	-3.79101	0	
1.5827	13.8571	-1.6603	0	
1.5833	15.0751	-2.87785	0	
1.5840	17.8327	-4.70418	0	
1.5847	17.2123	-5.0224	0	
1.5853	15.9943	-5.63118	0	
1.5860	15.6956	-6.23995	0	
1.5867	12.9379	-4.0954	0	
1.5873	8.98531	-2.57346	0	
1.5880	6.52641	-2.26907	0	
1.5887	2.5738	-1.96469	0	
1.5893	-2.9185	-1.05152	0	
1.5900	-5.97489	1.39742	0	
1.5907	-9.03127	2.00619	0	
1.5913	-12.9839	-1.05152	0	
1.5920	-12.6851	-1.96469	0	
1.5927	-9.33001	0.788641	0	
1.5933	-10.8697	0.788641	0	
1.5940	-14.8223	-0.138358	0	
1.5947	-14.2248	3.22374	0	
1.5953	-11.7659	5.35446	0	
1.5960	-9.95048	3.83252	0	
1.5967	-6.8941	2.61497	0	
1.5973	-2.9185	2.31058	0	
1.5980	-0.183843	0.16603	0	
1.5987	0.436626	-1.05152	0	
1.5993	3.49301	-2.26907	0	
1.6000	9.90452	-3.18224	0	
1.6007	12.6392	-2.87785	0	
1.6013	12.3404	-2.26907	0	
1.6020	12.6392	-1.96469	0	
1.6027	10.8008	-1.05152	0	
1.6033	6.22767	-0.747134	0	
1.6040	3.17129	-0.138358	0	
1.6047	1.03411	0.16603	0	
1.6053	-2.32101	-2.87785	0	
1.6060	-2.9185	-4.0954	0	
1.6067	-2.32101	-0.747134	0	
1.6073	-6.27363	1.39742	0	
1.6080	-11.7659	-0.747134	0	
1.6087	-13.9031	-1.35591	0	
1.6093	-13.9031	0.788641	0	
1.6100	-12.6851	2.61497	0	
1.6107	-9.95048	2.61497	0	
1.6113	-8.73252	2.00619	0	
1.6120	-7.19284	2.91936	0	
1.6127	-1.4018	2.61497	0	
1.6133	4.38924	-0.138358	0	
1.6140	6.52641	-2.87785	0	
1.6147	5.00971	-3.18224	0	
1.6153	4.71097	-4.0954	0	
1.6160	8.66358	-4.70418	0	
1.6167	11.4212	-3.79101	0	
1.6173	8.36484	-3.79101	0	
1.6180	6.22767	-4.0954	0	
1.6187	7.14688	-2.87785	0	
1.6193	6.84814	-1.96469	0	
1.6200	5.00971	-4.0954	0	
1.6207	4.38924	-6.54434	0	
1.6213	3.17129	-6.23995	0	
1.6220	0.735371	-2.87785	0	
1.6227	-2.9185	-1.05152	0	
1.6233	-8.73252	-2.57346	0	
1.6240	-12.0877	-1.6603	0	
1.6247	-9.95048	2.31058	0	
1.6253	-9.03127	4.4413	0	
1.6260	-10.548	4.13691	0	
1.6267	-9.95048	2.31058	0	
1.6273	-9.62876	-0.442746	0	
1.6280	-10.548	0.16603	0	
1.6287	-10.2492	1.70181	0	
1.6293	-8.73252	0.788641	0	
1.6300	-7.49159	2.91936	0	
1.6307	-5.97489	8.41218	0	
1.6313	-6.27363	10.8473	0	
1.6320	-8.4108	10.8473	0	
1.6327	-6.59535	9.02095	0	
1.6333	-3.83771	3.22374	0	
1.6340	-4.45818	-0.442746	0	
1.6347	-5.67614	-0.138358	0	
1.6353	-3.83771	-0.138358	0	
1.6360	-1.4018	-1.6603	0	
1.6367	0.735371	-1.6603	0	
1.6373	4.38924	-1.96469	0	
1.6380	4.71097	-2.87785	0	
1.6387	1.65458	-3.18224	0	
1.6393	1.65458	-3.18224	0	
1.6400	4.38924	-4.39979	0	
1.6407	5.00971	-6.54434	0	
1.6413	3.17129	-5.93556	0	
1.6420	4.71097	-1.96469	0	
1.6427	10.8008	0.16603	0	
1.6433	16.2931	-2.87785	0	
1.6440	16.6148	-4.0954	0	
1.6447	14.1559	-2.87785	0	
1.6453	14.4776	-3.79101	0	
1.6460	18.1315	-5.32679	0	
1.6467	18.4302	-4.39979	0	
1.6473	14.1559	-2.87785	0	
1.6480	10.502	-1.96469	0	
1.6487	8.98531	-0.138358	0	
1.6493	3.79175	1.39742	0	
1.6500	-3.83771	-1.05152	0	
1.6507	-7.49159	-2.57346	0	
1.6513	-8.4108	0.788641	0	
1.6520	-12.6851	4.4413	0	
1.6527	-15.1211	3.22374	0	
1.6533	-16.0403	0.16603	0	
1.6540	-17.8787	-0.442746	0	
1.6547	-16.362	0.470418	0	
1.6553	-11.7659	0.788641	0	
1.6560	-11.1684	0.16603	0	
1.6567	-10.8697	-0.138358	0	
1.6573	-7.49159	1.39742	0	
1.6580	-5.05567	2.31058	0	
1.6587	-4.75693	-0.442746	0	
1.6593	-3.53897	-1.96469	0	
1.6600	-1.4018	1.39742	0	
1.6607	0.436626	3.22374	0	
1.6613	4.0905	0.470418	0	
1.6620	8.98531	-1.6603	0	
1.6627	12.6392	-1.35591	0	
1.6633	12.9379	-1.6603	0	
1.6640	11.1225	-1.96469	0	
1.6647	11.1225	-1.96469	0	
1.6653	13.5584	-2.26907	0	
1.6660	13.5584	-2.87785	0	
1.6667	10.502	-2.87785	0	
1.6673	10.8008	-2.26907	0	
1.6680	11.72	-1.6603	0	
1.6687	7.14688	-1.35591	0	
1.6693	0.735371	-1.05152	0	
1.6700	-2.32101	-0.442746	0	
1.6707	-4.13646	-0.138358	0	
1.6713	-5.67614	0.16603	0	
1.6720	-6.8941	1.70181	0	
1.6727	-9.33001	3.52813	0	
1.6733	-12.0877	3.52813	0	
1.6740	-11.1684	1.09303	0	
1.6747	-9.33001	-0.442746	0	
1.6753	-9.03127	0.16603	0	
1.6760	-8.11206	-0.138358	0	
1.6767	-6.59535	-1.05152	0	
1.6773	-5.97489	-0.747134	0	
1.6780	-4.45818	-1.35591	0	
1.6787	-1.99929	-3.48663	0	
1.6793	-0.482587	-3.79101	0	
1.6800	0.735371	-2.57346	0	
1.6807	4.38924	-2.57346	0	
1.6813	7.44563	-1.35591	0	
1.6820	8.0661	-1.05152	0	
1.6827	7.76735	-2.87785	0	
1.6833	7.14688	-3.79101	0	
1.6840	8.0661	-2.57346	0	
1.6847	10.502	-2.87785	0	
1.6853	9.90452	-1.96469	0	
1.6860	6.22767	0.470418	0	
1.6867	5.30846	0.788641	0	
1.6873	5.00971	1.70181	0	
1.6880	2.87254	3.52813	0	
1.6887	1.65458	0.788641	0	
1.6893	-1.10306	-0.442746	0	
1.6900	-3.83771	4.13691	0	
1.6907	-1.4018	9.02095	0	
1.6913	-0.183843	11.1517	0	
1.6920	-3.24023	10.2385	0	
1.6927	-2.32101	5.65885	0	
1.6933	-0.183843	0.788641	0	
1.6940	-2.32101	-0.442746	0	
1.6947	-1.10306	-1.6603	0	
1.6953	1.65458	-2.87785	0	
1.6960	-1.70054	-2.57346	0	
1.6967	-3.53897	-2.87785	0	
1.6973	-1.10306	-3.48663	0	
1.6980	-2.32101	-2.26907	0	
1.6987	-4.13646	-1.35591	0	
1.6993	-1.70054	-1.35591	0	
1.7000	-1.10306	-1.96469	0	
1.7007	-2.32101	-3.18224	0	
1.7013	-1.99929	-3.79101	0	
1.7020	-3.24023	-3.79101	0	
1.7027	-5.97489	-2.57346	0	
1.7033	-5.35442	-0.442746	0	
1.7040	-5.05567	1.70181	0	
1.7047	-5.97489	2.00619	0	
1.7053	-4.13646	1.39742	0	
1.7060	-1.4018	2.00619	0	
1.7067	-0.781331	1.39742	0	
1.7073	-0.781331	-1.05152	0	
1.7080	-2.32101	-1.05152	0	
1.7087	-2.9185	0.788641	0	
1.7093	0.436626	1.70181	0	
1.7100	1.95333	2.31058	0	
1.7107	1.65458	2.31058	0	
1.7113	6.22767	-0.138358	0	
1.7120	11.1225	-1.35591	0	
1.7127	9.90452	0.788641	0	
1.7133	8.98531	2.00619	0	
1.7140	9.5828	-0.138358	0	
1.7147	8.0661	-0.747134	0	
1.7153	9.90452	-0.138358	0	
1.7160	11.72	-1.6603	0	
1.7167	9.5828	-3.79101	0	
1.7173	8.98531	-4.70418	0	
1.7180	8.98531	-4.0954	0	
1.7187	5.00971	-2.26907	0	
1.7193	4.71097	-1.6603	0	
1.7200	6.84814	-4.39979	0	
1.7207	3.49301	-5.63118	0	
1.7213	0.137882	-2.26907	0	
1.7220	0.735371	-0.747134	0	
1.7227	0.137882	-1.6603	0	
1.7233	-1.70054	-0.442746	0	
1.7240	-4.75693	0.788641	0	
1.7247	-8.4108	0.470418	0	
1.7253	-6.59535	2.61497	0	
1.7260	-4.13646	4.4413	0	
1.7267	-6.59535	3.52813	0	
1.7273	-3.83771	2.61497	0	
1.7280	2.87254	3.52813	0	
1.7287	3.49301	4.4413	0	
1.7293	4.38924	5.97707	0	
1.7300	8.66358	5.97707	0	
1.7307	8.0661	4.13691	0	
1.7313	5.30846	3.83252	0	
1.7320	3.49301	5.35446	0	
1.7327	-0.482587	4.4413	0	
1.7333	-3.24023	2.61497	0	
1.7340	-3.83771	3.22374	0	
1.7347	-8.73252	4.4413	0	
1.7353	-12.6851	3.52813	0	
1.7360	-14.2248	1.09303	0	
1.7367	-19.7171	1.70181	0	
1.7373	-23.9915	2.61497	0	
1.7380	-21.2338	2.00619	0	
1.7387	-20.6134	1.09303	0	
1.7393	-23.9915	1.70181	0	
1.7400	-23.9915	1.09303	0	
1.7407	-20.3146	1.09303	0	
1.7413	-16.6607	2.00619	0	
1.7420	-14.8223	1.70181	0	
1.7427	-12.3864	0.788641	0	
1.7433	-8.4108	2.00619	0	
1.7440	-4.45818	2.91936	0	
1.7447	-0.183843	2.31058	0	
1.7453	5.30846	1.09303	0	
1.7460	9.90452	-1.05152	0	
1.7467	8.98531	-1.35591	0	
1.7473	7.14688	0.788641	0	
1.7480	8.36484	1.09303	0	
1.7487	9.5828	-1.96469	0	
1.7493	9.5828	-2.26907	0	
1.7500	9.5828	-2.26907	0	
1.7507	8.36484	-3.79101	0	
1.7513	6.84814	-2.87785	0	
1.7520	6.22767	-2.87785	0	
1.7527	5.00971	-7.4575	0	
1.7533	4.0905	-9.28383	0	
1.7540	4.38924	-7.15312	0	
1.7547	4.0905	-6.84873	0	
1.7553	2.5738	-6.54434	0	
1.7560	2.5738	-5.32679	0	
1.7567	2.5738	-6.23995	0	
1.7573	0.436626	-6.54434	0	
1.7580	-2.61976	-5.32679	0	
1.7587	-2.9185	-4.39979	0	
1.7593	-1.70054	-2.57346	0	
1.7600	-0.183843	-0.442746	0	
1.7607	1.35584	-1.96469	0	
1.7613	2.5738	-2.87785	0	
1.7620	4.0905	-1.96469	0	
1.7627	5.63018	-2.87785	0	
1.7633	4.0905	-2.57346	0	
1.7640	2.5738	1.39742	0	
1.7647	5.00971	3.52813	0	
1.7653	5.63018	3.83252	0	
1.7660	2.5738	5.05007	0	
1.7667	4.71097	5.65885	0	
1.7673	9.5828	3.52813	0	
1.7680	8.0661	-1.05152	0	
1.7687	3.49301	-4.70418	0	
1.7693	2.27505	-3.79101	0	
1.7700	1.65458	0.16603	0	
1.7707	0.436626	0.788641	0	
1.7713	-1.99929	-0.442746	0	
1.7720	-5.67614	-0.747134	0	
1.7727	-8.11206	-2.26907	0	
1.7733	-9.33001	-3.79101	0	
1.7740	-11.7659	-1.96469	0	
1.7747	-12.9839	1.09303	0	
1.7753	-12.9839	0.470418	0	
1.7760	-12.6851	-1.35591	0	
1.7767	-12.6851	-1.05152	0	
1.7773	-13.6044	-0.442746	0	
1.7780	-14.5236	-1.35591	0	
1.7787	-10.2492	-1.96469	0	
1.7793	-4.75693	-0.747134	0	
1.7800	-3.53897	0.16603	0	
1.7807	-0.781331	0.16603	0	
1.7813	4.38924	0.16603	0	
1.7820	7.14688	0.16603	0	
1.7827	8.0661	0.788641	0	
1.7833	9.90452	1.39742	0	
1.7840	11.72	0.788641	0	
1.7847	12.6392	-1.6603	0	
1.7853	11.4212	-1.6603	0	
1.7860	7.76735	-0.138358	0	
1.7867	6.22767	0.16603	0	
1.7873	6.22767	0.16603	0	
1.7880	1.95333	0.788641	0	
1.7887	-2.32101	0.16603	0	
1.7893	-1.99929	-1.96469	0	
1.7900	0.735371	-4.39979	0	
1.7907	1.65458	-4.70418	0	
1.7913	-0.183843	-3.48663	0	
1.7920	-1.99929	-4.70418	0	
1.7927	0.436626	-8.06628	0	
1.7933	1.65458	-7.4575	0	
1.7940	-1.10306	-6.23995	0	
1.7947	-1.10306	-6.54434	0	
1.7953	2.5738	-6.23995	0	
1.7960	4.0905	-4.70418	0	
1.7967	3.79175	-3.79101	0	
1.7973	3.49301	-3.18224	0	
1.7980	1.95333	-3.79101	0	
1.7987	-1.10306	-3.79101	0	
1.7993	-3.53897	-1.96469	0	
1.8000	-7.49159	-1.05152	0	
1.8007	-11.1684	-0.138358	0	
1.8013	-11.7659	2.91936	0	
1.8020	-11.4672	4.4413	0	
1.8027	-11.1684	4.74568	0	
1.8033	-9.95048	6.58585	0	
1.8040	-9.33001	4.4413	0	
1.8047	-7.49159	-0.442746	0	
1.8053	-2.9185	-0.442746	0	
1.8060	-1.10306	0.788641	0	
1.8067	-2.9185	-0.442746	0	
1.8073	-4.75693	-0.138358	0	
1.8080	-6.27363	0.470418	0	
1.8087	-5.67614	-1.35591	0	
1.8093	-1.99929	-1.96469	0	
1.8100	1.03411	-1.6603	0	
1.8107	0.436626	-1.6603	0	
1.8113	-0.482587	-0.138358	0	
1.8120	0.735371	-0.442746	0	
1.8127	1.65458	-3.79101	0	
1.8133	1.65458	-3.79101	0	
1.8140	0.436626	-2.87785	0	
1.8147	-0.183843	-5.63118	0	
1.8153	1.03411	-7.4575	0	
1.8160	2.5738	-5.63118	0	
1.8167	1.95333	-4.70418	0	
1.8173	3.17129	-4.0954	0	
1.8180	6.22767	-2.57346	0	
1.8187	6.22767	-3.18224	0	
1.8193	3.79175	-5.63118	0	
1.8200	7.76735	-5.63118	0	
1.8207	15.6956	-2.87785	0	
1.8213	18.7519	1.39742	0	
1.8220	17.8327	2.00619	0	
1.8227	19.6482	-0.138358	0	
1.8233	21.4866	-1.6603	0	
1.8240	19.9699	-3.79101	0	
1.8247	17.2123	-5.93556	0	
1.8253	15.6956	-5.63118	0	
1.8260	13.5584	-3.79101	0	
1.8267	11.4212	-3.79101	0	
1.8273	8.0661	-3.18224	0	
1.8280	2.5738	-2.26907	0	
1.8287	-1.99929	-1.05152	0	
1.8293	-5.05567	0.788641	0	
1.8300	-8.73252	-0.138358	0	
1.8307	-13.9031	-0.747134	0	
1.8313	-16.0403	2.91936	0	
1.8320	-13.6044	2.61497	0	
1.8327	-12.6851	-1.96469	0	
1.8333	-14.8223	-1.05152	0	
1.8340	-12.9839	2.00619	0	
1.8347	-7.81331	-0.747134	0	
1.8353	-6.59535	-1.6603	0	
1.8360	-5.67614	0.788641	0	
1.8367	-2.32101	-1.05152	0	
1.8373	-1.10306	-2.57346	0	
1.8380	-2.9185	0.16603	0	
1.8387	-3.83771	0.788641	0	
1.8393	-2.32101	-1.6603	0	
1.8400	-1.70054	-2.26907	0	
1.8407	-4.75693	0.470418	0	
1.8413	-8.4108	1.70181	0	
1.8420	-9.03127	-0.442746	0	
1.8427	-9.03127	-0.747134	0	
1.8433	-10.2492	2.91936	0	
1.8440	-11.1684	4.13691	0	
1.8447	-12.0877	3.83252	0	
1.8453	-11.7659	6.28146	0	
1.8460	-8.73252	5.97707	0	
1.8467	-5.67614	3.52813	0	
1.8473	-5.35442	4.74568	0	
1.8480	-5.05567	5.35446	0	
1.8487	-4.13646	2.61497	0	
1.8493	-3.24023	1.09303	0	
1.8500	-2.32101	2.61497	0	
1.8507	-0.781331	2.31058	0	
1.8513	2.27505	-0.138358	0	
1.8520	4.71097	-1.96469	0	
1.8527	5.30846	-1.05152	0	
1.8533	4.38924	0.470418	0	
1.8540	5.30846	-0.747134	0	
1.8547	7.14688	-2.26907	0	
1.8553	6.22767	-2.87785	0	
1.8560	5.00971	-5.0224	0	
1.8567	5.92892	-6.54434	0	
1.8573	5.00971	-3.48663	0	
1.8580	1.65458	-0.138358	0	
1.8587	0.735371	-0.442746	0	
1.8593	3.49301	-1.05152	0	
1.8600	8.0661	-0.138358	0	
1.8607	12.6392	-1.05152	0	
1.8613	12.9379	-2.57346	0	
1.8620	9.90452	-3.79101	0	
1.8627	9.90452	-3.79101	0	
1.8633	12.0187	-3.18224	0	
1.8640	10.502	-1.6603	0	
1.8647	8.36484	-1.05152	0	
1.8653	9.90452	-1.35591	0	
1.8660	10.8008	-1.35591	0	
1.8667	7.76735	-0.442746	0	
1.8673	4.0905	0.788641	0	
1.8680	2.87254	2.61497	0	
1.8687	3.17129	2.31058	0	
1.8693	1.65458	-0.138358	0	
1.8700	0.137882	-0.747134	0	
1.8707	0.735371	1.70181	0	
1.8713	-0.183843	3.52813	0	
1.8720	-2.9185	1.70181	0	
1.8727	-4.13646	-1.05152	0	
1.8733	-1.99929	-2.87785	0	
1.8740	0.436626	-4.70418	0	
1.8747	1.03411	-4.70418	0	
1.8753	-0.183843	-3.18224	0	
1.8760	-1.99929	-2.87785	0	
1.8767	-0.482587	-3.79101	0	
1.8773	2.27505	-2.57346	0	
1.8780	0.735371	-1.96469	0	
1.8787	-3.53897	-3.18224	0	
1.8793	-5.05567	-2.26907	0	
1.8800	-3.83771	-0.442746	0	
1.8807	-3.53897	-0.442746	0	
1.8813	-4.75693	-0.442746	0	
1.8820	-7.81331	0.16603	0	
1.8827	-8.73252	1.70181	0	
1.8833	-7.19284	4.13691	0	
1.8840	-7.19284	5.05007	0	
1.8847	-9.03127	1.70181	0	
1.8853	-9.33001	1.09303	0	
1.8860	-10.2492	6.28146	0	
1.8867	-13.6044	8.41218	0	
1.8873	-16.6607	5.65885	0	
1.8880	-16.362	4.13691	0	
1.8887	-13.9031	5.35446	0	
1.8893	-12.9839	6.58585	0	
1.8900	-12.6851	5.65885	0	
1.8907	-8.73252	4.4413	0	
1.8913	-5.05567	5.65885	0	
1.8920	-6.59535	8.71656	0	
1.8927	-6.27363	10.8473	0	
1.8933	-1.10306	9.93412	0	
1.8940	1.95333	6.28146	0	
1.8947	1.65458	2.61497	0	
1.8953	4.0905	2.00619	0	
1.8960	6.22767	0.470418	0	
1.8967	4.0905	-2.26907	0	
1.8973	3.79175	-1.05152	0	
1.8980	7.14688	1.09303	0	
1.8987	5.92892	-0.442746	0	
1.8993	3.17129	-2.26907	0	
1.9000	4.38924	-1.35591	0	
1.9007	4.0905	-0.442746	0	
1.9013	0.436626	-1.05152	0	
1.9020	-1.10306	-1.96469	0	
1.9027	0.735371	-0.442746	0	
1.9033	2.87254	1.70181	0	
1.9040	7.14688	0.16603	0	
1.9047	10.8008	-2.87785	0	
1.9053	11.4212	-3.79101	0	
1.9060	11.4212	-3.79101	0	
1.9067	12.6392	-3.48663	0	
1.9073	13.2596	-1.6603	0	
1.9080	14.4776	-1.96469	0	
1.9087	15.3968	-3.79101	0	
1.9093	13.2596	-2.26907	0	
1.9100	8.66358	-1.05152	0	
1.9107	4.71097	-1.6603	0	
1.9113	2.5738	0.16603	0	
1.9120	2.5738	2.61497	0	
1.9127	2.5738	1.70181	0	
1.9133	-1.10306	0.788641	0	
1.9140	-4.13646	2.61497	0	
1.9147	-3.24023	2.00619	0	
1.9153	-2.9185	-0.442746	0	
1.9160	-6.59535	0.16603	0	
1.9167	-7.19284	2.91936	0	
1.9173	-3.83771	3.83252	0	
1.9180	-4.13646	3.22374	0	
1.9187	-7.49159	1.09303	0	
1.9193	-8.4108	-0.442746	0	
1.9200	-8.4108	0.470418	0	
1.9207	-10.2492	2.00619	0	
1.9213	-11.1684	0.788641	0	
1.9220	-9.95048	-1.96469	0	
1.9227	-9.33001	-1.96469	0	
1.9233	-9.62876	0.470418	0	
1.9240	-9.95048	2.00619	0	
1.9247	-11.1684	1.09303	0	
1.9253	-12.0877	0.470418	0	
1.9260	-10.2492	1.09303	0	
1.9267	-9.03127	0.788641	0	
1.9273	-9.33001	-1.05152	0	
1.9280	-8.11206	-1.96469	0	
1.9287	-5.67614	-1.96469	0	
1.9293	-5.35442	-1.96469	0	
1.9300	-5.97489	-1.6603	0	
1.9307	-5.97489	-0.138358	0	
1.9313	-6.8941	1.70181	0	
1.9320	-6.27363	2.00619	0	
1.9327	-3.83771	0.788641	0	
1.9333	-1.4018	-0.138358	0	
1.9340	1.65458	-0.442746	0	
1.9347	5.30846	-0.442746	0	
1.9353	6.84814	-1.6603	0	
1.9360	8.0661	-1.96469	0	
1.9367	9.5828	-0.138358	0	
1.9373	9.28405	0.16603	0	
1.9380	9.28405	-2.87785	0	
1.9387	11.1225	-3.79101	0	
1.9393	11.1225	-2.26907	0	
1.9400	11.4212	-4.70418	0	
1.9407	14.7764	-7.76189	0	
1.9413	16.2931	-5.0224	0	
1.9420	13.2596	-2.57346	0	
1.9427	11.1225	-2.57346	0	
1.9433	11.1225	-0.138358	0	
1.9440	8.98531	2.00619	0	
1.9447	4.71097	0.788641	0	
1.9453	1.95333	0.788641	0	
1.9460	-0.482587	2.61497	0	
1.9467	-1.99929	2.61497	0	
1.9473	-2.61976	2.31058	0	
1.9480	-5.05567	3.83252	0	
1.9487	-8.4108	3.52813	0	
1.9493	-8.73252	1.39742	0	
1.9500	-7.49159	2.61497	0	
1.9507	-11.1684	4.4413	0	
1.9513	-13.9031	2.00619	0	
1.9520	-10.548	-1.05152	0	
1.9527	-7.49159	-0.138358	0	
1.9533	-8.11206	0.788641	0	
1.9540	-6.8941	0.16603	0	
1.9547	-5.05567	0.788641	0	
1.9553	-4.75693	1.70181	0	
1.9560	-3.53897	0.470418	0	
1.9567	-1.99929	0.470418	0	
1.9573	-3.83771	0.788641	0	
1.9580	-4.75693	-0.442746	0	
1.9587	-0.183843	-1.6603	0	
1.9593	2.5738	-1.96469	0	
1.9600	1.65458	-1.05152	0	
1.9607	1.65458	-0.138358	0	
1.9613	3.79175	-2.87785	0	
1.9620	4.38924	-4.39979	0	
1.9627	2.27505	-0.442746	0	
1.9633	1.65458	-0.138358	0	
1.9640	3.79175	-3.79101	0	
1.9647	4.38924	-2.26907	0	
1.9653	3.49301	1.70181	0	
1.9660	4.38924	0.788641	0	
1.9667	5.30846	-0.138358	0	
1.9673	5.30846	-1.35591	0	
1.9680	5.30846	-3.79101	0	
1.9687	5.92892	-2.87785	0	
1.9693	5.63018	-0.442746	0	
1.9700	5.30846	-0.138358	0	
1.9707	4.0905	-1.05152	0	
1.9713	1.95333	-3.48663	0	
1.9720	-0.183843	-4.70418	0	
1.9727	-2.9185	-1.35591	0	
1.9733	-4.45818	1.70181	0	
1.9740	-2.32101	-0.747134	0	
1.9747	-0.183843	-3.48663	0	
1.9753	-2.32101	-4.39979	0	
1.9760	-3.53897	-3.79101	0	
1.9767	0.735371	-1.05152	0	
1.9773	5.30846	-2.57346	0	
1.9780	8.66358	-5.63118	0	
1.9787	12.6392	-5.32679	0	
1.9793	14.4776	-3.79101	0	
1.9800	13.5584	-4.70418	0	
1.9807	13.8571	-4.70418	0	
1.9813	14.4776	-3.79101	0	
1.9820	11.72	-3.79101	0	
1.9827	9.90452	-5.32679	0	
1.9833	9.90452	-4.0954	0	
1.9840	5.30846	-0.138358	0	
1.9847	-0.482587	2.31058	0	
1.9853	-1.99929	-0.747134	0	
1.9860	-2.9185	-1.96469	0	
1.9867	-6.59535	0.788641	0	
1.9873	-9.33001	0.788641	0	
1.9880	-11.1684	0.788641	0	
1.9887	-12.9839	4.4413	0	
1.9893	-13.3056	5.35446	0	
1.9900	-12.3864	3.52813	0	
1.9907	-12.9839	5.35446	0	
1.9913	-16.0403	9.02095	0	
1.9920	-17.2582	8.41218	0	
1.9927	-12.6851	5.05007	0	
1.9933	-4.13646	2.31058	0	
1.9940	0.735371	0.788641	0	
1.9947	0.735371	-0.138358	0	
1.9953	2.5738	0.470418	0	
1.9960	5.30846	1.39742	0	
1.9967	6.22767	0.16603	0	
1.9973	5.63018	-2.57346	0	
1.9980	4.38924	-2.26907	0	
1.9987	3.79175	-0.442746	0	
1.9993	5.30846	-2.87785	0	
2.0000	7.14688	-5.0224	0	
2.0007	5.92892	-4.39979	0	
2.0013	4.38924	-2.87785	0	
2.0020	5.30846	-1.96469	0	
2.0027	6.22767	-1.05152	0	
2.0033	4.0905	-1.05152	0	
2.0040	1.35584	-0.138358	0	
2.0047	-2.61976	1.70181	0	
2.0053	-8.4108	2.00619	0	
2.0060	-12.9839	2.61497	0	
2.0067	-14.5236	4.13691	0	
2.0073	-14.8223	3.52813	0	
2.0080	-15.1211	1.70181	0	
2.0087	-16.0403	2.61497	0	
2.0093	-18.4992	4.4413	0	
2.0100	-20.0159	3.52813	0	
2.0107	-16.9595	2.00619	0	
2.0113	-13.9031	1.70181	0	
2.0120	-12.3864	2.61497	0	
2.0127	-9.03127	1.70181	0	
2.0133	-6.59535	-0.442746	0	
2.0140	-6.59535	-1.96469	0	
2.0147	-5.35442	-1.35591	0	
2.0153	-2.9185	-0.442746	0	
2.0160	-3.83771	-1.05152	0	
2.0167	-2.9185	-1.96469	0	
2.0173	0.137882	-3.18224	0	
2.0180	-0.482587	-2.87785	0	
2.0187	-1.70054	2.31058	0	
2.0193	0.735371	7.49901	0	
2.0200	1.65458	7.49901	0	
2.0207	-0.482587	5.97707	0	
2.0213	-0.183843	5.35446	0	
2.0220	1.03411	2.61497	0	
2.0227	0.436626	0.16603	0	
2.0233	1.65458	0.16603	0	
2.0240	3.17129	0.788641	0	
2.0247	1.95333	-0.138358	0	
2.0253	0.735371	0.16603	0	
2.0260	2.87254	1.70181	0	
2.0267	5.63018	2.00619	0	
2.0273	5.00971	1.09303	0	
2.0280	3.49301	1.39742	0	
2.0287	4.38924	2.61497	0	
2.0293	6.22767	0.16603	0	
2.0300	6.22767	-3.79101	0	
2.0307	5.30846	-2.87785	0	
2.0313	5.63018	-2.57346	0	
2.0320	7.44563	-5.0224	0	
2.0327	6.22767	-3.79101	0	
2.0333	3.17129	-1.35591	0	
2.0340	6.22767	-3.79101	0	
2.0347	11.72	-6.23995	0	
2.0353	10.8008	-5.93556	0	
2.0360	8.0661	-6.23995	0	
2.0367	8.66358	-6.84873	0	
2.0373	8.0661	-5.0224	0	
2.0380	6.22767	-4.70418	0	
2.0387	5.63018	-5.93556	0	
2.0393	4.0905	-4.70418	0	
2.0400	3.49301	-2.87785	0	
2.0407	5.30846	-3.18224	0	
2.0413	4.38924	-3.18224	0	
2.0420	2.87254	-2.87785	0	
2.0427	5.92892	-4.70418	0	
2.0433	9.5828	-5.32679	0	
2.0440	11.72	-3.18224	0	
2.0447	14.1559	-2.26907	0	
2.0453	16.9135	-3.18224	0	
2.0460	21.4866	-3.79101	0	
2.0467	24.8417	-4.70418	0	
2.0473	21.4866	-5.63118	0	
2.0480	16.9135	-3.79101	0	
2.0487	15.9943	-1.05152	0	
2.0493	13.5584	-1.96469	0	
2.0500	9.90452	-3.79101	0	
2.0507	8.98531	-1.96469	0	
2.0513	5.00971	2.61497	0	
2.0520	-2.9185	2.61497	0	
2.0527	-7.81331	-0.747134	0	
2.0533	-11.1684	-2.57346	0	
2.0540	-16.362	-1.96469	0	
2.0547	-18.7979	-0.138358	0	
2.0553	-20.3146	1.39742	0	
2.0560	-24.8877	-1.05152	0	
2.0567	-27.0249	-1.35591	0	
2.0573	-27.6453	3.22374	0	
2.0580	-30.0813	4.4413	0	
2.0587	-30.0813	-0.138358	0	
2.0593	-29.162	-1.05152	0	
2.0600	-31.6209	2.91936	0	
2.0607	-29.162	6.28146	0	
2.0613	-22.4518	6.89024	0	
2.0620	-22.153	5.05007	0	
2.0627	-20.3146	4.13691	0	
2.0633	-12.0877	7.19462	0	
2.0640	-9.03127	9.93412	0	
2.0647	-9.33001	10.2385	0	
2.0653	-5.05567	11.1517	0	
2.0660	-2.32101	11.7743	0	
2.0667	-1.99929	8.41218	0	
2.0673	1.65458	3.83252	0	
2.0680	4.38924	2.31058	0	
2.0687	3.49301	1.39742	0	
2.0693	3.17129	-0.138358	0	
2.0700	5.00971	-0.442746	0	
2.0707	7.44563	-1.6603	0	
2.0713	8.66358	-3.79101	0	
2.0720	8.66358	-2.57346	0	
2.0727	10.8008	-1.05152	0	
2.0733	12.9379	-3.79101	0	
2.0740	11.72	-3.79101	0	
2.0747	10.8008	-1.05152	0	
2.0753	10.502	-2.57346	0	
2.0760	6.52641	-5.0224	0	
2.0767	3.49301	-3.79101	0	
2.0773	3.79175	-2.26907	0	
2.0780	1.95333	-3.79101	0	
2.0787	-0.781331	-3.79101	0	
2.0793	-1.4018	-3.18224	0	
2.0800	-2.9185	-2.87785	0	
2.0807	-3.83771	-0.138358	0	
2.0813	-2.9185	3.22374	0	
2.0820	-2.61976	2.61497	0	
2.0827	-1.10306	2.00619	0	
2.0833	1.03411	3.52813	0	
2.0840	1.65458	3.52813	0	
2.0847	2.27505	-0.138358	0	
2.0853	4.0905	-2.87785	0	
2.0860	4.38924	-1.96469	0	
2.0867	3.49301	-1.05152	0	
2.0873	3.17129	0.16603	0	
2.0880	0.735371	1.09303	0	
2.0887	-0.482587	-0.442746	0	
2.0893	1.65458	-2.26907	0	
2.0900	3.49301	-1.96469	0	
2.0907	1.65458	-2.87785	0	
2.0913	-1.70054	-2.87785	0	
2.0920	-1.99929	0.16603	0	
2.0927	1.03411	1.39742	0	
2.0933	1.03411	-1.05152	0	
2.0940	-1.10306	-1.96469	0	
2.0947	0.436626	-1.35591	0	
2.0953	1.95333	-2.26907	0	
2.0960	1.35584	-3.79101	0	
2.0967	2.5738	-3.79101	0	
2.0973	6.22767	-2.26907	0	
2.0980	8.98531	-1.35591	0	
2.0987	10.8008	-3.48663	0	
2.0993	11.4212	-4.39979	0	
2.1000	10.8008	-3.79101	0	
2.1007	10.8008	-5.32679	0	
2.1013	8.98531	-6.54434	0	
2.1020	6.22767	-4.39979	0	
2.1027	6.22767	-2.57346	0	
2.1033	4.38924	-0.747134	0	
2.1040	1.03411	0.788641	0	
2.1047	0.436626	-0.747134	0	
2.1053	0.735371	-1.96469	0	
2.1060	1.35584	0.470418	0	
2.1067	2.5738	1.39742	0	
2.1073	3.49301	1.39742	0	
2.1080	3.49301	1.70181	0	
2.1087	6.22767	0.470418	0	
2.1093	11.72	-0.442746	0	
2.1100	15.6956	1.39742	0	
2.1107	14.4776	0.470418	0	
2.1113	12.9379	-2.87785	0	
2.1120	14.4776	-2.26907	0	
2.1127	12.0187	-0.747134	0	
2.1133	7.76735	-1.05152	0	
2.1140	8.0661	-1.96469	0	
2.1147	7.14688	-3.18224	0	
2.1153	0.137882	-2.87785	0	
2.1160	-4.75693	-0.442746	0	
2.1167	-7.49159	-0.442746	0	
2.1173	-12.0877	-2.87785	0	
2.1180	-15.7415	-1.6603	0	
2.1187	-19.0967	2.91936	0	
2.1193	-24.8877	5.35446	0	
2.1200	-27.0249	3.52813	0	
2.1207	-24.8877	0.788641	0	
2.1213	-24.8877	0.470418	0	
2.1220	-25.5082	4.13691	0	
2.1227	-21.8543	8.41218	0	
2.1233	-16.6607	9.32534	0	
2.1240	-14.5236	6.58585	0	
2.1247	-13.9031	3.83252	0	
2.1253	-10.8697	2.61497	0	
2.1260	-5.67614	2.91936	0	
2.1267	-2.9185	3.83252	0	
2.1273	-4.13646	4.13691	0	
2.1280	-4.13646	2.91936	0	
2.1287	-0.781331	2.31058	0	
2.1293	0.436626	1.70181	0	
2.1300	-1.70054	1.09303	0	
2.1307	-1.4018	1.70181	0	
2.1313	-0.482587	1.70181	0	
2.1320	-1.10306	0.470418	0	
2.1327	-1.10306	-0.442746	0	
2.1333	0.735371	0.470418	0	
2.1340	1.95333	0.16603	0	
2.1347	2.27505	-1.6603	0	
2.1353	0.735371	-1.96469	0	
2.1360	0.137882	-2.26907	0	
2.1367	2.5738	-3.18224	0	
2.1373	2.87254	-2.87785	0	
2.1380	0.735371	-1.35591	0	
2.1387	3.17129	-2.26907	0	
2.1393	6.22767	-3.79101	0	
2.1400	4.0905	-4.0954	0	
2.1407	4.71097	-4.70418	0	
2.1413	8.36484	-5.63118	0	
2.1420	7.14688	-3.79101	0	
2.1427	7.14688	-1.6603	0	
2.1433	12.3404	-1.35591	0	
2.1440	13.5584	-2.26907	0	
2.1447	12.6392	-2.26907	0	
2.1453	15.9943	-2.26907	0	
2.1460	17.2123	-3.79101	0	
2.1467	15.3968	-5.63118	0	
2.1473	15.6956	-4.70418	0	
2.1480	16.2931	-2.26907	0	
2.1487	13.8571	-0.747134	0	
2.1493	10.8008	-2.26907	0	
2.1500	8.36484	-4.39979	0	
2.1507	5.30846	-3.18224	0	
2.1513	4.38924	-0.747134	0	
2.1520	6.52641	-2.26907	0	
2.1527	8.0661	-5.63118	0	
2.1533	8.0661	-3.79101	0	
2.1540	7.14688	-1.96469	0	
2.1547	5.30846	-6.23995	0	
2.1553	3.17129	-6.54434	0	
2.1560	1.03411	-0.442746	0	
2.1567	-3.24023	0.16603	0	
2.1573	-8.4108	-3.48663	0	
2.1580	-9.95048	-1.96469	0	
2.1587	-9.95048	0.788641	0	
2.1593	-12.0877	1.09303	0	
2.1600	-13.9031	1.39742	0	
2.1607	-13.9031	0.16603	0	
2.1613	-15.1211	0.16603	0	
2.1620	-13.9031	1.70181	0	
2.1627	-10.548	1.39742	0	
2.1633	-9.62876	1.39742	0	
2.1640	-10.548	3.83252	0	
2.1647	-10.548	3.83252	0	
2.1653	-9.62876	3.52813	0	
2.1660	-6.27363	6.28146	0	
2.1667	-2.61976	4.74568	0	
2.1673	-3.53897	1.70181	0	
2.1680	-5.97489	4.4413	0	
2.1687	-6.59535	5.35446	0	
2.1693	-6.59535	1.70181	0	
2.1700	-6.59535	1.70181	0	
2.1707	-5.67614	2.91936	0	
2.1713	-4.75693	1.70181	0	
2.1720	-5.05567	2.91936	0	
2.1727	-5.67614	4.74568	0	
2.1733	-6.59535	2.31058	0	
2.1740	-5.67614	0.788641	0	
2.1747	-4.75693	2.00619	0	
2.1753	-3.83771	0.788641	0	
2.1760	-2.9185	-1.6603	0	
2.1767	-2.61976	-0.138358	0	
2.1773	-2.9185	1.70181	0	
2.1780	-1.70054	0.16603	0	
2.1787	0.735371	-1.35591	0	
2.1793	2.87254	-1.35591	0	
2.1800	5.30846	-1.05152	0	
2.1807	5.30846	-1.05152	0	
2.1813	4.38924	-1.6603	0	
2.1820	9.90452	-3.18224	0	
2.1827	19.0507	-2.87785	0	
2.1833	24.2442	-1.35591	0	
2.1840	27.5994	-2.87785	0	
2.1847	31.8737	-5.63118	0	
2.1853	33.0917	-6.23995	0	
2.1860	30.9545	-4.70418	0	
2.1867	28.5186	-3.79101	0	
2.1873	23.6238	-5.32679	0	
2.1880	17.534	-5.32679	0	
2.1887	12.6392	-2.87785	0	
2.1893	7.14688	-2.87785	0	
2.1900	-0.482587	-4.39979	0	
2.1907	-8.4108	-2.26907	0	
2.1913	-13.9031	1.39742	0	
2.1920	-16.6607	0.470418	0	
2.1927	-20.0159	-1.05152	0	
2.1933	-26.4274	-0.138358	0	
2.1940	-29.4838	-0.138358	0	
2.1947	-30.0813	2.61497	0	
2.1953	-31.9197	5.65885	0	
2.1960	-32.2184	3.83252	0	
2.1967	-29.4838	2.91936	0	
2.1973	-29.162	4.74568	0	
2.1980	-29.4838	2.31058	0	
2.1987	-24.2902	0.16603	0	
2.1993	-18.7979	4.13691	0	
2.2000	-17.2582	5.97707	0	
2.2007	-14.8223	4.4413	0	
2.2013	-11.1684	7.19462	0	
2.2020	-9.95048	10.8473	0	
2.2027	-7.49159	11.7743	0	
2.2033	-3.83771	13.6006	0	
2.2040	-1.99929	12.3831	0	
2.2047	-0.183843	6.89024	0	
2.2053	2.5738	2.91936	0	
2.2060	2.87254	2.61497	0	
2.2067	2.5738	3.52813	0	
2.2073	4.38924	5.35446	0	
2.2080	5.00971	5.65885	0	
2.2087	4.0905	1.70181	0	
2.2093	6.22767	-1.05152	0	
2.2100	9.28405	-0.138358	0	
2.2107	9.5828	-0.442746	0	
2.2113	7.76735	-1.96469	0	
2.2120	7.14688	-0.138358	0	
2.2127	8.0661	0.788641	0	
2.2133	6.52641	-2.26907	0	
2.2140	3.49301	-4.70418	0	
2.2147	4.71097	-5.0224	0	
2.2153	8.98531	-4.70418	0	
2.2160	7.14688	-4.39979	0	
2.2167	2.27505	-5.32679	0	
2.2173	2.27505	-6.54434	0	
2.2180	5.63018	-5.63118	0	
2.2187	6.22767	-3.79101	0	
2.2193	4.38924	-4.0954	0	
2.2200	4.38924	-7.15312	0	
2.2207	3.79175	-6.54434	0	
2.2213	2.27505	-2.87785	0	
2.2220	2.5738	-3.48663	0	
2.2227	5.30846	-5.93556	0	
2.2233	5.30846	-3.79101	0	
2.2240	5.00971	-1.05152	0	
2.2247	5.92892	-3.79101	0	
2.2253	5.92892	-3.48663	0	
2.2260	6.52641	1.70181	0	
2.2267	12.6392	0.788641	0	
2.2273	20.8891	-3.79101	0	
2.2280	26.0597	-4.39979	0	
2.2287	31.2532	-5.0224	0	
2.2293	35.5276	-8.06628	0	
2.2300	34.9071	-9.28383	0	
2.2307	34.6084	-8.97944	0	
2.2313	36.7455	-8.37067	0	
2.2320	31.8737	-8.06628	0	
2.2327	21.1879	-9.28383	0	
2.2333	15.3968	-10.197	0	
2.2340	11.1225	-7.4575	0	
2.2347	5.30846	-4.39979	0	
2.2353	1.65458	-5.0224	0	
2.2360	-2.32101	-5.0224	0	
2.2367	-7.19284	-1.6603	0	
2.2373	-7.49159	0.470418	0	
2.2380	-10.2492	0.470418	0	
2.2387	-19.0967	2.91936	0	
2.2393	-24.8877	4.4413	0	
2.2400	-27.6453	3.52813	0	
2.2407	-32.2184	5.35446	0	
2.2413	-31.2992	8.71656	0	
2.2420	-26.4274	6.89024	0	
2.2427	-27.3466	5.35446	0	
2.2433	-27.9441	6.58585	0	
2.2440	-23.0722	4.4413	0	
2.2447	-20.3146	2.00619	0	
2.2453	-22.153	5.35446	0	
2.2460	-23.6697	6.58585	0	
2.2467	-23.6697	3.52813	0	
2.2473	-24.589	2.61497	0	
2.2480	-24.8877	4.13691	0	
2.2487	-23.0722	5.97707	0	
2.2493	-20.9351	7.19462	0	
2.2500	-19.3954	7.19462	0	
2.2507	-17.2582	9.02095	0	
2.2513	-14.8223	12.9918	0	
2.2520	-14.2248	12.6874	0	
2.2527	-13.6044	9.02095	0	
2.2533	-10.2492	5.65885	0	
2.2540	-7.19284	2.61497	0	
2.2547	-5.35442	-0.138358	0	
2.2553	-2.9185	0.470418	0	
2.2560	-1.10306	0.788641	0	
2.2567	-1.10306	1.39742	0	
2.2573	-1.70054	3.52813	0	
2.2580	-0.183843	2.91936	0	
2.2587	0.735371	1.70181	0	
2.2593	1.65458	3.52813	0	
2.2600	4.38924	2.61497	0	
2.2607	6.22767	-1.35591	0	
2.2613	6.52641	-1.05152	0	
2.2620	9.28405	0.16603	0	
2.2627	12.0187	-0.442746	0	
2.2633	9.90452	1.39742	0	
2.2640	8.0661	2.61497	0	
2.2647	10.502	0.16603	0	
2.2653	11.72	-1.05152	0	
2.2660	10.502	-1.35591	0	
2.2667	9.90452	-3.79101	0	
2.2673	9.28405	-3.79101	0	
2.2680	8.0661	-0.138358	0	
2.2687	8.36484	1.09303	0	
2.2693	8.36484	-0.442746	0	
2.2700	8.66358	-1.96469	0	
2.2707	11.72	-3.79101	0	
2.2713	12.3404	-4.0954	0	
2.2720	8.98531	-2.26907	0	
2.2727	8.36484	-2.26907	0	
2.2733	10.502	-4.70418	0	
2.2740	10.2033	-5.63118	0	
2.2747	10.2033	-5.63118	0	
2.2753	10.8008	-6.84873	0	
2.2760	8.98531	-6.23995	0	
2.2767	8.36484	-3.48663	0	
2.2773	13.8571	-4.39979	0	
2.2780	18.1315	-9.58822	0	
2.2787	17.534	-11.124	0	
2.2793	15.9943	-6.54434	0	
2.2800	15.6956	-4.0954	0	
2.2807	15.6956	-6.54434	0	
2.2813	14.7764	-8.37067	0	
2.2820	13.5584	-6.54434	0	
2.2827	12.6392	-4.0954	0	
2.2833	9.5828	-2.87785	0	
2.2840	5.92892	-2.26907	0	
2.2847	5.30846	-1.96469	0	
2.2853	4.38924	-1.05152	0	
2.2860	-1.10306	1.70181	0	
2.2867	-5.97489	2.61497	0	
2.2873	-7.19284	0.16603	0	
2.2880	-9.33001	1.09303	0	
2.2887	-12.6851	4.4413	0	
2.2893	-14.8223	4.4413	0	
2.2900	-15.1211	2.91936	0	
2.2907	-15.1211	4.4413	0	
2.2913	-15.7415	4.4413	0	
2.2920	-17.58	2.61497	0	
2.2927	-18.4992	2.91936	0	
2.2933	-16.362	3.52813	0	
2.2940	-14.2248	1.39742	0	
2.2947	-14.8223	-0.138358	0	
2.2953	-15.1211	-1.05152	0	
2.2960	-13.9031	-1.96469	0	
2.2967	-9.95048	-0.138358	0	
2.2973	-5.97489	1.09303	0	
2.2980	-3.24023	-1.05152	0	
2.2987	-1.10306	-3.18224	0	
2.2993	0.735371	-1.96469	0	
2.3000	0.137882	-1.05152	0	
2.3007	0.436626	-2.57346	0	
2.3013	2.5738	-3.18224	0	
2.3020	3.49301	-1.6603	0	
2.3027	2.5738	-0.747134	0	
2.3033	2.5738	-1.05152	0	
2.3040	2.5738	0.16603	0	
2.3047	1.65458	2.61497	0	
2.3053	0.735371	1.09303	0	
2.3060	0.436626	-1.96469	0	
2.3067	1.03411	-1.6603	0	
2.3073	1.65458	0.788641	0	
2.3080	0.735371	2.61497	0	
2.3087	0.735371	4.4413	0	
2.3093	0.735371	4.4413	0	
2.3100	0.137882	2.31058	0	
2.3107	0.137882	1.70181	0	
2.3113	1.95333	2.61497	0	
2.3120	3.17129	1.09303	0	
2.3127	4.0905	-1.96469	0	
2.3133	4.71097	-3.18224	0	
2.3140	3.79175	-3.18224	0	
2.3147	2.5738	-2.26907	0	
2.3153	1.65458	-0.747134	0	
2.3160	1.35584	-1.05152	0	
2.3167	0.735371	-1.6603	0	
2.3173	1.65458	-0.138358	0	
2.3180	3.17129	-0.138358	0	
2.3187	2.27505	-1.6603	0	
2.3193	-0.781331	-1.6603	0	
2.3200	0.735371	-0.747134	0	
2.3207	5.63018	-1.35591	0	
2.3213	9.90452	-1.96469	0	
2.3220	13.8571	-2.57346	0	
2.3227	18.1315	-3.79101	0	
2.3233	20.8891	-4.0954	0	
2.3240	26.9789	-2.87785	0	
2.3247	36.1481	-3.48663	0	
2.3253	39.1815	-4.0954	0	
2.3260	37.6648	-3.79101	0	
2.3267	37.6648	-4.70418	0	
2.3273	32.4712	-4.70418	0	
2.3280	21.4866	-2.87785	0	
2.3287	15.3968	-4.70418	0	
2.3293	11.1225	-8.37067	0	
2.3300	1.65458	-4.70418	0	
2.3307	-8.11206	0.788641	0	
2.3313	-13.9031	-0.442746	0	
2.3320	-18.4992	-2.57346	0	
2.3327	-23.0722	-0.442746	0	
2.3333	-28.8633	0.470418	0	
2.3340	-34.0568	0.788641	0	
2.3347	-33.7581	1.39742	0	
2.3353	-28.8633	-0.138358	0	
2.3360	-24.589	-0.747134	0	
2.3367	-22.153	1.39742	0	
2.3373	-22.7505	1.39742	0	
2.3380	-24.589	-0.138358	0	
2.3387	-23.0722	1.39742	0	
2.3393	-21.8543	2.61497	0	
2.3400	-23.371	2.31058	0	
2.3407	-22.7505	3.52813	0	
2.3413	-21.5326	5.35446	0	
2.3420	-24.8877	5.35446	0	
2.3427	-27.3466	6.89024	0	
2.3433	-25.2094	10.2385	0	
2.3440	-23.371	10.5429	0	
2.3447	-23.9915	8.10779	0	
2.3453	-23.9915	8.41218	0	
2.3460	-21.8543	9.02095	0	
2.3467	-17.2582	6.28146	0	
2.3473	-15.1211	4.13691	0	
2.3480	-16.9595	6.58585	0	
2.3487	-15.4428	9.02095	0	
2.3493	-9.33001	6.89024	0	
2.3500	-5.05567	4.74568	0	
2.3507	-2.32101	6.28146	0	
2.3513	-0.183843	9.62973	0	
2.3520	-0.482587	11.1517	0	
2.3527	0.735371	9.02095	0	
2.3533	4.38924	5.05007	0	
2.3540	5.92892	1.09303	0	
2.3547	5.63018	-1.96469	0	
2.3553	7.76735	-1.6603	0	
2.3560	8.66358	0.788641	0	
2.3567	7.44563	-0.138358	0	
2.3573	8.0661	-2.87785	0	
2.3580	8.98531	-3.48663	0	
2.3587	8.36484	-2.26907	0	
2.3593	8.98531	-1.96469	0	
2.3600	10.8008	-1.96469	0	
2.3607	11.4212	-2.26907	0	
2.3613	10.8008	-3.79101	0	
2.3620	11.72	-5.0224	0	
2.3627	12.3404	-3.79101	0	
2.3633	10.8008	-1.96469	0	
2.3640	11.72	-2.57346	0	
2.3647	13.5584	-3.79101	0	
2.3653	10.502	-3.18224	0	
2.3660	7.44563	-2.87785	0	
2.3667	9.90452	-2.87785	0	
2.3673	9.28405	-3.79101	0	
2.3680	5.00971	-4.0954	0	
2.3687	6.52641	-4.0954	0	
2.3693	10.2033	-4.70418	0	
2.3700	7.76735	-5.32679	0	
2.3707	5.00971	-4.39979	0	
2.3713	5.00971	-2.87785	0	
2.3720	4.0905	-4.0954	0	
2.3727	3.49301	-6.54434	0	
2.3733	3.49301	-6.84873	0	
2.3740	3.49301	-5.63118	0	
2.3747	5.00971	-4.0954	0	
2.3753	5.30846	-3.48663	0	
2.3760	3.17129	-4.0954	0	
2.3767	4.38924	-5.93556	0	
2.3773	4.38924	-6.84873	0	
2.3780	1.65458	-6.54434	0	
2.3787	2.87254	-4.39979	0	
2.3793	8.0661	-2.26907	0	
2.3800	8.98531	-1.96469	0	
2.3807	8.98531	-2.26907	0	
2.3813	10.8008	-3.79101	0	
2.3820	10.8008	-4.70418	0	
2.3827	9.90452	-3.18224	0	
2.3833	10.2033	-1.35591	0	
2.3840	9.28405	-4.39979	0	
2.3847	8.66358	-6.84873	0	
2.3853	9.28405	-4.0954	0	
2.3860	8.36484	-1.35591	0	
2.3867	7.76735	-2.87785	0	
2.3873	8.98531	-3.18224	0	
2.3880	10.2033	-1.6603	0	
2.3887	9.5828	-1.35591	0	
2.3893	6.22767	-1.05152	0	
2.3900	2.5738	0.470418	0	
2.3907	0.137882	0.16603	0	
2.3913	-2.32101	-0.138358	0	
2.3920	-4.75693	2.31058	0	
2.3927	-5.35442	2.91936	0	
2.3933	-6.59535	0.470418	0	
2.3940	-7.19284	0.16603	0	
2.3947	-6.27363	0.788641	0	
2.3953	-5.67614	-1.6603	0	
2.3960	-5.35442	-2.87785	0	
2.3967	-4.13646	-1.05152	0	
2.3973	-5.67614	-1.05152	0	
2.3980	-5.67614	-1.6603	0	
2.3987	-0.482587	-0.138358	0	
2.3993	-0.781331	0.788641	0	
2.4000	-5.67614	-1.6603	0	
2.4007	-3.83771	-2.87785	0	
2.4013	-0.183843	-3.48663	0	
2.4020	-2.61976	-2.57346	0	
2.4027	-4.45818	0.16603	0	
2.4033	-2.9185	0.16603	0	
2.4040	-3.24023	-1.35591	0	
2.4047	-4.45818	1.70181	0	
2.4053	-6.59535	6.28146	0	
2.4060	-9.95048	4.74568	0	
2.4067	-12.0877	2.91936	0	
2.4073	-13.6044	5.97707	0	
2.4080	-17.58	8.41218	0	
2.4087	-17.58	6.28146	0	
2.4093	-14.5236	3.52813	0	
2.4100	-14.2248	3.52813	0	
2.4107	-14.8223	6.89024	0	
2.4113	-14.5236	9.02095	0	
2.4120	-13.9031	6.28146	0	
2.4127	-11.7659	1.70181	0	
2.4133	-9.95048	-0.138358	0	
2.4140	-10.8697	-0.138358	0	
2.4147	-9.95048	-1.6603	0	
2.4153	-6.59535	-2.87785	0	
2.4160	-6.27363	-2.57346	0	
2.4167	-5.67614	-3.79101	0	
2.4173	-1.99929	-3.79101	0	
2.4180	0.436626	-1.96469	0	
2.4187	2.5738	-0.138358	0	
2.4193	3.49301	-0.138358	0	
2.4200	1.65458	0.16603	0	
2.4207	0.735371	0.470418	0	
2.4213	4.0905	-1.05152	0	
2.4220	5.92892	-1.35591	0	
2.4227	4.38924	1.70181	0	
2.4233	2.87254	4.4413	0	
2.4240	2.5738	3.83252	0	
2.4247	2.27505	2.31058	0	
2.4253	1.35584	2.00619	0	
2.4260	1.35584	1.70181	0	
2.4267	1.65458	0.788641	0	
2.4273	0.735371	0.470418	0	
2.4280	1.35584	0.788641	0	
2.4287	4.0905	-0.442746	0	
2.4293	4.38924	-0.747134	0	
2.4300	2.27505	-0.442746	0	
2.4307	1.65458	-2.26907	0	
2.4313	3.49301	-2.87785	0	
2.4320	5.30846	-0.442746	0	
2.4327	4.0905	-0.442746	0	
2.4333	-0.183843	-2.87785	0	
2.4340	-0.482587	-2.57346	0	
2.4347	4.0905	-1.6603	0	
2.4353	4.71097	-1.05152	0	
2.4360	2.5738	-0.138358	0	
2.4367	3.79175	-1.05152	0	
2.4373	5.00971	-3.48663	0	
2.4380	5.00971	-3.48663	0	
2.4387	8.98531	-2.87785	0	
2.4393	12.6392	-3.79101	0	
2.4400	13.5584	-3.79101	0	
2.4407	19.6482	-5.63118	0	
2.4413	30.9545	-9.28383	0	
2.4420	38.8827	-9.58822	0	
2.4427	44.0763	-8.97944	0	
2.4433	48.0289	-11.124	0	
2.4440	45.2942	-11.124	0	
2.4447	38.2852	-6.84873	0	
2.4453	32.7929	-6.54434	0	
2.4460	27.2777	-7.76189	0	
2.4467	19.6482	-5.63118	0	
2.4473	11.72	-3.79101	0	
2.4480	2.5738	-3.79101	0	
2.4487	-6.59535	-2.87785	0	
2.4493	-14.5236	-1.05152	0	
2.4500	-23.9915	1.09303	0	
2.4507	-34.3556	5.97707	0	
2.4513	-40.7671	9.02095	0	
2.4520	-44.1222	7.49901	0	
2.4527	-44.1222	7.19462	0	
2.4533	-42.9043	9.93412	0	
2.4540	-43.203	10.8473	0	
2.4547	-41.9851	7.8034	0	
2.4553	-34.0568	5.05007	0	
2.4560	-27.6453	3.52813	0	
2.4567	-24.8877	3.22374	0	
2.4573	-19.3954	4.74568	0	
2.4580	-14.5236	4.4413	0	
2.4587	-13.3056	2.61497	0	
2.4593	-12.0877	3.52813	0	
2.4600	-11.7659	5.35446	0	
2.4607	-14.5236	2.61497	0	
2.4613	-13.9031	0.470418	0	
2.4620	-11.7659	1.70181	0	
2.4627	-12.0877	0.788641	0	
2.4633	-9.33001	-0.442746	0	
2.4640	-3.83771	2.61497	0	
2.4647	-2.9185	5.05007	0	
2.4653	-4.45818	3.52813	0	
2.4660	-5.05567	4.13691	0	
2.4667	-5.67614	5.97707	0	
2.4673	-2.9185	5.35446	0	
2.4680	1.03411	5.35446	0	
2.4687	1.35584	7.19462	0	
2.4693	2.5738	5.35446	0	
2.4700	5.00971	1.70181	0	
2.4707	3.17129	2.31058	0	
2.4713	1.65458	3.83252	0	
2.4720	3.49301	0.470418	0	
2.4727	4.0905	-2.87785	0	
2.4733	3.49301	-0.747134	0	
2.4740	4.38924	0.788641	0	
2.4747	4.38924	-0.747134	0	
2.4753	5.92892	-1.96469	0	
2.4760	7.44563	-2.87785	0	
2.4767	5.30846	-2.57346	0	
2.4773	5.92892	-2.87785	0	
2.4780	8.98531	-5.93556	0	
2.4787	8.0661	-5.63118	0	
2.4793	5.30846	-0.138358	0	
2.4800	8.0661	-0.747134	0	
2.4807	10.8008	-6.23995	0	
2.4813	11.1225	-5.63118	0	
2.4820	12.3404	-2.57346	0	
2.4827	12.6392	-0.747134	0	
2.4833	12.3404	1.09303	0	
2.4840	15.9943	-1.6603	0	
2.4847	23.6238	-5.32679	0	
2.4853	30.9545	-4.0954	0	
2.4860	36.4468	-5.32679	0	
2.4867	39.8019	-9.28383	0	
2.4873	40.4224	-6.84873	0	
2.4880	37.366	-4.70418	0	
2.4887	33.0917	-7.4575	0	
2.4893	29.4148	-4.70418	0	
2.4900	25.1635	-1.6603	0	
2.4907	19.9699	-3.48663	0	
2.4913	15.9943	-3.79101	0	
2.4920	10.502	-2.87785	0	
2.4927	1.95333	-4.0954	0	
2.4933	-6.59535	-1.96469	0	
2.4940	-13.9031	1.09303	0	
2.4947	-18.4992	-0.138358	0	
2.4953	-22.153	0.788641	0	
2.4960	-26.7261	4.13691	0	
2.4967	-30.38	5.35446	0	
2.4973	-31.2992	6.58585	0	
2.4980	-32.2184	6.58585	0	
2.4987	-33.7581	4.4413	0	
2.4993	-33.7581	5.35446	0	
2.5000	-32.2184	5.65885	0	
2.5007	-29.4838	2.61497	0	
2.5013	-26.7261	2.61497	0	
2.5020	-25.2094	4.13691	0	
2.5027	-22.153	2.61497	0	
2.5033	-16.9595	2.00619	0	
2.5040	-14.2248	4.13691	0	
2.5047	-12.3864	5.05007	0	
2.5053	-11.1684	2.00619	0	
2.5060	-10.2492	-0.138358	0	
2.5067	-7.49159	2.61497	0	
2.5073	-1.99929	6.28146	0	
2.5080	-0.482587	2.61497	0	
2.5087	-2.61976	-0.138358	0	
2.5093	-2.32101	3.22374	0	
2.5100	-0.482587	2.61497	0	
2.5107	-0.183843	-1.35591	0	
2.5113	0.735371	-1.35591	0	
2.5120	2.5738	-1.35591	0	
2.5127	2.27505	-2.26907	0	
2.5133	0.735371	-1.6603	0	
2.5140	2.5738	-2.87785	0	
2.5147	6.22767	-5.0224	0	
2.5153	7.44563	-3.79101	0	
2.5160	7.76735	-3.18224	0	
2.5167	7.14688	-4.39979	0	
2.5173	5.30846	-1.96469	0	
2.5180	6.22767	-0.138358	0	
2.5187	7.76735	-3.48663	0	
2.5193	6.84814	-3.79101	0	
2.5200	5.63018	-1.96469	0	
2.5207	5.30846	-3.48663	0	
2.5213	4.38924	-4.70418	0	
2.5220	4.0905	-2.87785	0	
2.5227	7.14688	-0.747134	0	
2.5233	8.66358	-1.05152	0	
2.5240	7.14688	-2.26907	0	
2.5247	5.63018	-2.87785	0	
2.5253	6.22767	-2.87785	0	
2.5260	5.00971	-2.26907	0	
2.5267	2.87254	-1.6603	0	
2.5273	4.0905	-1.6603	0	
2.5280	5.00971	-1.05152	0	
2.5287	3.49301	-0.747134	0	
2.5293	4.0905	-0.442746	0	
2.5300	5.00971	0.16603	0	
2.5307	3.79175	0.470418	0	
2.5313	3.17129	-1.35591	0	
2.5320	4.71097	-3.79101	0	
2.5327	6.22767	-3.79101	0	
2.5333	6.52641	-2.87785	0	
2.5340	8.0661	-2.57346	0	
2.5347	8.98531	-3.48663	0	
2.5353	8.98531	-5.0224	0	
2.5360	9.90452	-5.63118	0	
2.5367	14.4776	-5.32679	0	
2.5373	17.2123	-6.23995	0	
2.5380	16.9135	-6.54434	0	
2.5387	16.6148	-5.63118	0	
2.5393	15.3968	-5.63118	0	
2.5400	11.72	-6.54434	0	
2.5407	9.5828	-6.23995	0	
2.5413	7.14688	-5.63118	0	
2.5420	2.27505	-5.63118	0	
2.5427	-1.99929	-4.39979	0	
2.5433	-3.24023	-3.18224	0	
2.5440	-3.83771	-0.747134	0	
2.5447	-4.45818	2.00619	0	
2.5453	-5.35442	2.61497	0	
2.5460	-7.19284	1.09303	0	
2.5467	-8.73252	1.39742	0	
2.5473	-12.3864	5.35446	0	
2.5480	-17.2582	6.58585	0	
2.5487	-20.0159	3.52813	0	
2.5493	-21.2338	4.74568	0	
2.5500	-20.3146	7.8034	0	
2.5507	-19.3954	5.05007	0	
2.5513	-19.0967	3.52813	0	
2.5520	-16.362	6.58585	0	
2.5527	-13.9031	5.35446	0	
2.5533	-15.1211	0.788641	0	
2.5540	-13.9031	1.39742	0	
2.5547	-9.33001	2.91936	0	
2.5553	-9.03127	2.91936	0	
2.5560	-9.33001	2.31058	0	
2.5567	-6.27363	-1.05152	0	
2.5573	-5.67614	-2.26907	0	
2.5580	-6.59535	0.470418	0	
2.5587	-5.35442	1.39742	0	
2.5593	-5.35442	-0.138358	0	
2.5600	-6.27363	-0.138358	0	
2.5607	-4.75693	0.788641	0	
2.5613	-5.35442	2.00619	0	
2.5620	-7.49159	3.83252	0	
2.5627	-6.59535	3.52813	0	
2.5633	-3.83771	2.00619	0	
2.5640	-2.32101	2.00619	0	
2.5647	-1.99929	2.91936	0	
2.5653	-1.70054	2.91936	0	
2.5660	-2.9185	2.00619	0	
2.5667	-2.9185	0.788641	0	
2.5673	1.65458	-0.442746	0	
2.5680	4.38924	-1.05152	0	
2.5687	3.49301	-1.35591	0	
2.5693	5.30846	-1.6603	0	
2.5700	9.28405	-1.96469	0	
2.5707	10.2033	-1.96469	0	
2.5713	11.1225	-1.05152	0	
2.5720	14.7764	-1.35591	0	
2.5727	18.4302	-2.87785	0	
2.5733	22.1071	-5.63118	0	
2.5740	24.2442	-7.15312	0	
2.5747	20.5674	-5.93556	0	
2.5753	17.8327	-5.32679	0	
2.5760	21.1879	-6.54434	0	
2.5767	21.4866	-4.70418	0	
2.5773	13.5584	-1.05152	0	
2.5780	7.76735	-1.05152	0	
2.5787	7.14688	-2.87785	0	
2.5793	5.92892	-2.87785	0	
2.5800	2.5738	-3.48663	0	
2.5807	-1.10306	-3.79101	0	
2.5813	-4.45818	-1.96469	0	
2.5820	-6.27363	-0.442746	0	
2.5827	-6.8941	-0.138358	0	
2.5833	-9.95048	1.39742	0	
2.5840	-14.5236	1.39742	0	
2.5847	-16.6607	0.788641	0	
2.5853	-16.9595	3.22374	0	
2.5860	-15.7415	6.28146	0	
2.5867	-12.9839	6.28146	0	
2.5873	-10.8697	5.97707	0	
2.5880	-9.33001	6.28146	0	
2.5887	-8.4108	6.28146	0	
2.5893	-9.03127	5.35446	0	
2.5900	-7.19284	4.74568	0	
2.5907	-1.99929	5.35446	0	
2.5913	-1.4018	6.28146	0	
2.5920	-3.83771	4.4413	0	
2.5927	-3.53897	0.788641	0	
2.5933	-2.9185	-0.442746	0	
2.5940	-2.61976	-0.442746	0	
2.5947	-1.10306	-1.96469	0	
2.5953	-0.482587	-2.26907	0	
2.5960	-0.781331	-1.96469	0	
2.5967	0.137882	-3.79101	0	
2.5973	-1.99929	-4.70418	0	
2.5980	-2.9185	-4.39979	0	
2.5987	1.03411	-4.70418	0	
2.5993	2.5738	-4.70418	0	
2.6000	0.436626	-2.87785	0	
2.6007	0.436626	-1.6603	0	
2.6013	-0.183843	-0.442746	0	
2.6020	-3.53897	1.09303	0	
2.6027	-5.35442	2.31058	0	
2.6033	-7.19284	3.52813	0	
2.6040	-10.548	6.28146	0	
2.6047	-10.8697	5.65885	0	
2.6053	-7.81331	1.70181	0	
2.6060	-8.11206	1.39742	0	
2.6067	-10.548	5.05007	0	
2.6073	-10.548	5.35446	0	
2.6080	-8.4108	1.70181	0	
2.6087	-6.27363	-0.747134	0	
2.6093	-3.83771	0.16603	0	
2.6100	-2.9185	0.788641	0	
2.6107	-2.9185	1.09303	0	
2.6113	-2.32101	1.39742	0	
2.6120	-1.10306	-0.442746	0	
2.6127	-0.482587	-2.87785	0	
2.6133	0.735371	-4.0954	0	
2.6140	2.27505	-4.0954	0	
2.6147	1.03411	-1.96469	0	
2.6153	1.65458	-0.138358	0	
2.6160	4.0905	-1.6603	0	
2.6167	2.5738	-3.18224	0	
2.6173	1.95333	-2.26907	0	
2.6180	6.22767	-2.87785	0	
2.6187	5.92892	-3.79101	0	
2.6193	1.35584	-3.79101	0	
2.6200	2.5738	-4.70418	0	
2.6207	6.22767	-5.63118	0	
2.6213	4.0905	-3.79101	0	
2.6220	1.95333	-1.96469	0	
2.6227	3.17129	-1.35591	0	
2.6233	3.79175	-0.442746	0	
2.6240	3.49301	-1.05152	0	
2.6247	4.71097	-2.87785	0	
2.6253	6.22767	-1.6603	0	
2.6260	5.30846	-0.442746	0	
2.6267	2.5738	-0.747134	0	
2.6273	2.5738	1.39742	0	
2.6280	4.38924	2.31058	0	
2.6287	2.87254	-0.442746	0	
2.6293	0.137882	-0.442746	0	
2.6300	1.65458	0.788641	0	
2.6307	5.92892	-2.87785	0	
2.6313	7.14688	-5.63118	0	
2.6320	6.84814	-3.18224	0	
2.6327	9.90452	-1.96469	0	
2.6333	15.9943	-4.0954	0	
2.6340	17.2123	-5.63118	0	
2.6347	12.6392	-5.32679	0	
2.6353	12.6392	-5.63118	0	
2.6360	18.1315	-6.54434	0	
2.6367	19.0507	-8.06628	0	
2.6373	15.6956	-7.4575	0	
2.6380	16.2931	-4.39979	0	
2.6387	22.4058	-3.79101	0	
2.6393	26.6802	-5.93556	0	
2.6400	27.2777	-6.54434	0	
2.6407	27.2777	-6.54434	0	
2.6413	26.9789	-6.54434	0	
2.6420	23.0263	-4.70418	0	
2.6427	17.2123	-3.48663	0	
2.6433	14.4776	-2.57346	0	
2.6440	11.1225	1.09303	0	
2.6447	2.27505	3.83252	0	
2.6453	-6.8941	2.00619	0	
2.6460	-12.0877	2.31058	0	
2.6467	-17.8787	5.97707	0	
2.6473	-24.589	5.65885	0	
2.6480	-29.7825	4.74568	0	
2.6487	-34.0568	7.8034	0	
2.6493	-37.412	8.41218	0	
2.6500	-39.5491	5.97707	0	
2.6507	-40.1466	6.28146	0	
2.6513	-38.6299	7.8034	0	
2.6520	-36.194	7.49901	0	
2.6527	-34.0568	7.49901	0	
2.6533	-31.2992	5.35446	0	
2.6540	-28.5645	2.91936	0	
2.6547	-26.7261	4.4413	0	
2.6553	-24.589	6.89024	0	
2.6560	-20.3146	6.28146	0	
2.6567	-14.5236	5.35446	0	
2.6573	-10.2492	5.05007	0	
2.6580	-7.49159	3.52813	0	
2.6587	-3.53897	2.61497	0	
2.6593	0.735371	1.70181	0	
2.6600	2.5738	-1.05152	0	
2.6607	6.52641	-2.87785	0	
2.6613	10.502	-4.0954	0	
2.6620	11.1225	-4.0954	0	
2.6627	12.3404	-1.6603	0	
2.6633	14.7764	-0.138358	0	
2.6640	13.5584	-2.87785	0	
2.6647	10.8008	-1.96469	0	
2.6653	10.502	-0.138358	0	
2.6660	6.52641	-3.48663	0	
2.6667	2.5738	-4.39979	0	
2.6673	2.5738	1.39742	0	
2.6680	1.35584	3.22374	0	
2.6687	-1.70054	1.09303	0	
2.6693	-1.10306	2.61497	0	
2.6700	-1.10306	3.52813	0	
2.6707	-1.99929	1.70181	0	
2.6713	2.27505	1.70181	0	
2.6720	5.00971	1.39742	0	
2.6727	1.03411	-0.138358	0	
2.6733	-0.183843	-0.747134	0	
2.6740	3.49301	-1.96469	0	
2.6747	5.00971	-3.18224	0	
2.6753	2.87254	-2.26907	0	
2.6760	3.17129	-3.48663	0	
2.6767	6.22767	-5.93556	0	
2.6773	10.8008	-6.23995	0	
2.6780	13.8571	-7.76189	0	
2.6787	14.4776	-9.58822	0	
2.6793	16.9135	-6.84873	0	
2.6800	18.7519	-4.0954	0	
2.6807	15.9943	-5.63118	0	
2.6813	13.8571	-4.39979	0	
2.6820	14.4776	-2.26907	0	
2.6827	12.3404	-3.79101	0	
2.6833	9.5828	-4.39979	0	
2.6840	9.5828	-1.35591	0	
2.6847	6.52641	-0.138358	0	
2.6853	-0.482587	-1.05152	0	
2.6860	-6.59535	1.70181	0	
2.6867	-9.95048	4.74568	0	
2.6873	-12.3864	4.13691	0	
2.6880	-15.7415	4.13691	0	
2.6887	-18.1774	5.97707	0	
2.6893	-19.3954	4.74568	0	
2.6900	-20.9351	2.31058	0	
2.6907	-22.4518	2.91936	0	
2.6913	-19.7171	4.4413	0	
2.6920	-16.0403	3.22374	0	
2.6927	-12.6851	-0.442746	0	
2.6933	-4.75693	-2.87785	0	
2.6940	2.27505	-2.87785	0	
2.6947	1.65458	-3.48663	0	
2.6953	-0.183843	-4.70418	0	
2.6960	1.35584	-5.32679	0	
2.6967	1.65458	-3.79101	0	
2.6973	0.735371	-2.87785	0	
2.6980	1.65458	-3.48663	0	
2.6987	2.27505	-2.87785	0	
2.6993	1.95333	-1.05152	0	
2.7000	1.95333	-1.05152	0	
2.7007	0.137882	-3.79101	0	
2.7013	-2.9185	-3.79101	0	
2.7020	-4.75693	-0.138358	0	
2.7027	-5.67614	1.70181	0	
2.7033	-6.27363	1.39742	0	
2.7040	-6.59535	3.22374	0	
2.7047	-7.49159	6.28146	0	
2.7053	-8.11206	5.05007	0	
2.7060	-6.8941	2.31058	0	
2.7067	-5.97489	4.74568	0	
2.7073	-6.59535	8.10779	0	
2.7080	-5.67614	6.28146	0	
2.7087	-3.53897	4.4413	0	
2.7093	-2.9185	5.65885	0	
2.7100	-3.24023	6.28146	0	
2.7107	-2.32101	4.74568	0	
2.7113	-1.70054	2.61497	0	
2.7120	-1.99929	0.16603	0	
2.7127	-1.70054	-0.138358	0	
2.7133	-0.781331	1.09303	0	
2.7140	1.03411	-0.138358	0	
2.7147	2.5738	-0.138358	0	
2.7153	3.17129	1.70181	0	
2.7160	2.5738	-0.442746	0	
2.7167	2.27505	-2.87785	0	
2.7173	3.49301	-2.87785	0	
2.7180	6.22767	-3.48663	0	
2.7187	6.22767	-2.57346	0	
2.7193	5.63018	-0.138358	0	
2.7200	6.84814	-1.35591	0	
2.7207	5.30846	-3.79101	0	
2.7213	1.65458	-2.26907	0	
2.7220	2.5738	-1.96469	0	
2.7227	8.0661	-1.96469	0	
2.7233	8.98531	1.70181	0	
2.7240	7.14688	2.91936	0	
2.7247	8.0661	-0.747134	0	
2.7253	11.4212	-1.35591	0	
2.7260	14.4776	-1.05152	0	
2.7267	18.4302	-3.79101	0	
2.7273	19.9699	-3.48663	0	
2.7280	19.0507	-0.442746	0	
2.7287	19.0507	-2.57346	0	
2.7293	18.1315	-3.79101	0	
2.7300	14.4776	-1.05152	0	
2.7307	12.0187	-1.35591	0	
2.7313	10.2033	-2.26907	0	
2.7320	5.30846	-0.138358	0	
2.7327	1.95333	-1.96469	0	
2.7333	1.95333	-4.70418	0	
2.7340	-1.99929	-2.87785	0	
2.7347	-7.49159	-1.96469	0	
2.7353	-8.11206	-3.18224	0	
2.7360	-9.33001	-1.6603	0	
2.7367	-12.9839	1.09303	0	
2.7373	-13.9031	2.31058	0	
2.7380	-12.6851	2.61497	0	
2.7387	-13.9031	2.31058	0	
2.7393	-14.8223	1.09303	0	
2.7400	-12.6851	1.09303	0	
2.7407	-10.2492	2.61497	0	
2.7413	-9.33001	3.22374	0	
2.7420	-7.81331	1.70181	0	
2.7427	-5.05567	-0.138358	0	
2.7433	-3.83771	-0.138358	0	
2.7440	-3.24023	-0.138358	0	
2.7447	-1.10306	-0.747134	0	
2.7453	0.436626	1.09303	0	
2.7460	1.03411	2.61497	0	
2.7467	2.5738	1.39742	0	
2.7473	2.5738	-0.442746	0	
2.7480	1.65458	-0.442746	0	
2.7487	2.5738	-0.138358	0	
2.7493	6.22767	-0.747134	0	
2.7500	10.8008	-1.96469	0	
2.7507	12.3404	-2.87785	0	
2.7513	9.90452	-2.57346	0	
2.7520	9.28405	-3.48663	0	
2.7527	11.72	-6.23995	0	
2.7533	10.8008	-7.4575	0	
2.7540	8.0661	-5.0224	0	
2.7547	8.0661	-2.87785	0	
2.7553	7.14688	-3.18224	0	
2.7560	5.00971	-4.0954	0	
2.7567	4.38924	-3.79101	0	
2.7573	3.49301	-4.39979	0	
2.7580	0.137882	-7.76189	0	
2.7587	-1.99929	-5.0224	0	
2.7593	-3.24023	1.70181	0	
2.7600	-5.67614	2.91936	0	
2.7607	-4.75693	1.39742	0	
2.7613	-2.9185	3.22374	0	
2.7620	-3.53897	3.83252	0	
2.7627	-3.53897	3.22374	0	
2.7633	-0.781331	4.4413	0	
2.7640	0.436626	4.4413	0	
2.7647	-1.10306	4.13691	0	
2.7653	-3.53897	6.28146	0	
2.7660	-4.45818	6.89024	0	
2.7667	-3.53897	3.83252	0	
2.7673	-3.24023	0.470418	0	
2.7680	-5.67614	-1.05152	0	
2.7687	-7.49159	0.788641	0	
2.7693	-6.59535	2.91936	0	
2.7700	-9.03127	2.00619	0	
2.7707	-13.9031	0.16603	0	
2.7713	-13.9031	-1.05152	0	
2.7720	-11.1684	-2.26907	0	
2.7727	-11.1684	-2.26907	0	
2.7733	-12.6851	-3.79101	0	
2.7740	-13.6044	-5.63118	0	
2.7747	-13.3056	-2.87785	0	
2.7753	-11.1684	-1.6603	0	
2.7760	-8.4108	-2.87785	0	
2.7767	-7.19284	0.470418	0	
2.7773	-5.67614	2.91936	0	
2.7780	-3.83771	-0.442746	0	
2.7787	-4.13646	-0.138358	0	
2.7793	-5.67614	2.91936	0	
2.7800	-5.67614	1.09303	0	
2.7807	-3.24023	-0.747134	0	
2.7813	-1.10306	0.788641	0	
2.7820	-1.4018	1.70181	0	
2.7827	-0.183843	1.70181	0	
2.7833	1.95333	2.00619	0	
2.7840	1.65458	1.70181	0	
2.7847	0.137882	1.70181	0	
2.7853	1.65458	2.00619	0	
2.7860	2.5738	2.61497	0	
2.7867	2.27505	4.13691	0	
2.7873	2.5738	4.13691	0	
2.7880	3.79175	2.00619	0	
2.7887	4.71097	2.91936	0	
2.7893	2.5738	4.74568	0	
2.7900	0.137882	3.22374	0	
2.7907	1.35584	2.61497	0	
2.7913	2.5738	3.52813	0	
2.7920	-1.70054	1.70181	0	
2.7927	-4.45818	0.470418	0	
2.7933	-3.24023	1.39742	0	
2.7940	-2.9185	-0.138358	0	
2.7947	-1.70054	-1.96469	0	
2.7953	1.65458	-1.6603	0	
2.7960	1.65458	-1.6603	0	
2.7967	1.65458	-2.87785	0	
2.7973	7.14688	-3.79101	0	
2.7980	12.6392	-5.32679	0	
2.7987	15.0751	-6.54434	0	
2.7993	17.2123	-7.4575	0	
2.8000	18.1315	-7.4575	0	
2.8007	17.2123	-5.0224	0	
2.8013	16.2931	-2.87785	0	
2.8020	14.7764	-4.0954	0	
2.8027	12.6392	-5.0224	0	
2.8033	11.4212	-1.96469	0	
2.8040	8.98531	-0.442746	0	
2.8047	5.00971	-0.747134	0	
2.8053	2.5738	1.70181	0	
2.8060	0.436626	2.91936	0	
2.8067	-4.75693	1.70181	0	
2.8073	-11.1684	2.31058	0	
2.8080	-15.1211	3.52813	0	
2.8087	-16.6607	4.4413	0	
2.8093	-17.58	6.28146	0	
2.8100	-18.4992	8.41218	0	
2.8107	-17.58	7.49901	0	
2.8113	-15.4428	5.97707	0	
2.8120	-13.3056	4.4413	0	
2.8127	-9.33001	2.61497	0	
2.8133	-5.67614	1.70181	0	
2.8140	-5.67614	1.39742	0	
2.8147	-5.67614	-0.138358	0	
2.8153	-1.99929	-0.747134	0	
2.8160	0.436626	-0.442746	0	
2.8167	-0.183843	-1.96469	0	
2.8173	-0.183843	-2.26907	0	
2.8180	0.137882	-0.138358	0	
2.8187	0.436626	0.470418	0	
2.8193	2.5738	0.788641	0	
2.8200	5.00971	0.788641	0	
2.8207	5.63018	-1.05152	0	
2.8213	7.14688	-1.35591	0	
2.8220	7.14688	-0.138358	0	
2.8227	5.00971	-1.96469	0	
2.8233	4.71097	-3.79101	0	
2.8240	5.30846	0.470418	0	
2.8247	4.71097	3.22374	0	
2.8253	5.30846	0.788641	0	
2.8260	2.87254	-0.138358	0	
2.8267	-2.61976	0.788641	0	
2.8273	-3.24023	-0.747134	0	
2.8280	-0.781331	1.70181	0	
2.8287	-4.45818	5.97707	0	
2.8293	-8.4108	3.22374	0	
2.8300	-6.8941	-1.96469	0	
2.8307	-6.59535	-1.05152	0	
2.8313	-9.33001	-0.138358	0	
2.8320	-7.49159	-2.87785	0	
2.8327	-3.53897	-3.79101	0	
2.8333	-1.70054	-4.39979	0	
2.8340	-1.10306	-6.54434	0	
2.8347	1.95333	-6.23995	0	
2.8353	5.30846	-4.70418	0	
2.8360	6.22767	-5.63118	0	
2.8367	5.30846	-5.93556	0	
2.8373	5.63018	-4.0954	0	
2.8380	6.22767	-4.39979	0	
2.8387	5.30846	-5.63118	0	
2.8393	3.49301	-5.32679	0	
2.8400	2.5738	-3.79101	0	
2.8407	4.38924	-3.18224	0	
2.8413	4.38924	-2.57346	0	
2.8420	2.27505	-3.18224	0	
2.8427	2.27505	-3.79101	0	
2.8433	3.49301	-1.35591	0	
2.8440	1.65458	0.788641	0	
2.8447	0.735371	0.470418	0	
2.8453	2.5738	1.09303	0	
2.8460	-1.10306	3.52813	0	
2.8467	-2.9185	2.91936	0	
2.8473	0.436626	1.39742	0	
2.8480	-0.781331	2.00619	0	
2.8487	-5.67614	1.70181	0	
2.8493	-5.05567	-0.138358	0	
2.8500	-5.67614	0.788641	0	
2.8507	-9.62876	3.22374	0	
2.8513	-8.4108	2.91936	0	
2.8520	-5.67614	2.61497	0	
2.8527	-7.81331	2.00619	0	
2.8533	-9.03127	-0.747134	0	
2.8540	-6.27363	-1.35591	0	
2.8547	-2.61976	1.70181	0	
2.8553	0.137882	1.39742	0	
2.8560	2.5738	-1.05152	0	
2.8567	5.30846	1.09303	0	
2.8573	9.90452	1.39742	0	
2.8580	11.72	-4.70418	0	
2.8587	11.1225	-5.32679	0	
2.8593	10.8008	1.70181	0	
2.8600	11.1225	2.00619	0	
2.8607	10.502	-3.79101	0	
2.8613	8.98531	-3.79101	0	
2.8620	5.63018	0.470418	0	
2.8627	3.17129	-0.442746	0	
2.8633	2.87254	-1.6603	0	
2.8640	2.5738	0.16603	0	
2.8647	1.65458	1.09303	0	
2.8653	0.137882	0.470418	0	
2.8660	-3.83771	-0.138358	0	
2.8667	-5.97489	1.39742	0	
2.8673	-5.67614	4.74568	0	
2.8680	-6.8941	5.35446	0	
2.8687	-8.11206	1.70181	0	
2.8693	-7.49159	1.09303	0	
2.8700	-6.8941	3.22374	0	
2.8707	-4.13646	1.70181	0	
2.8713	0.137882	-0.442746	0	
2.8720	-1.10306	-0.138358	0	
2.8727	-3.83771	0.788641	0	
2.8733	0.137882	-0.442746	0	
2.8740	4.0905	-3.79101	0	
2.8747	5.00971	-4.0954	0	
2.8753	6.22767	-2.57346	0	
2.8760	4.71097	-3.79101	0	
2.8767	1.35584	-5.63118	0	
2.8773	2.27505	-2.87785	0	
2.8780	3.49301	-1.35591	0	
2.8787	-1.10306	-2.87785	0	
2.8793	-5.35442	-0.442746	0	
2.8800	-5.05567	0.16603	0	
2.8807	-6.59535	-3.79101	0	
2.8813	-9.62876	-2.87785	0	
2.8820	-9.62876	1.09303	0	
2.8827	-7.81331	0.16603	0	
2.8833	-6.59535	-0.442746	0	
2.8840	-4.75693	1.09303	0	
2.8847	-2.61976	-0.138358	0	
2.8853	-2.9185	-0.747134	0	
2.8860	-1.10306	0.788641	0	
2.8867	6.22767	1.09303	0	
2.8873	10.8008	1.39742	0	
2.8880	8.98531	1.70181	0	
2.8887	8.0661	1.39742	0	
2.8893	11.4212	2.31058	0	
2.8900	12.0187	2.61497	0	
2.8907	8.66358	-0.138358	0	
2.8913	5.63018	-2.57346	0	
2.8920	5.30846	-3.79101	0	
2.8927	3.79175	-5.0224	0	
2.8933	0.436626	-4.0954	0	
2.8940	-1.4018	-2.87785	0	
2.8947	-2.32101	-2.87785	0	
2.8953	-5.35442	-4.0954	0	
2.8960	-6.27363	-5.63118	0	
2.8967	-6.59535	-4.0954	0	
2.8973	-9.62876	-1.05152	0	
2.8980	-9.95048	0.788641	0	
2.8987	-7.81331	1.70181	0	
2.8993	-10.2492	3.83252	0	
2.9000	-8.4108	3.52813	0	
2.9007	2.5738	0.470418	0	
2.9013	11.72	-1.05152	0	
2.9020	14.1559	-1.05152	0	
2.9027	14.4776	-0.747134	0	
2.9033	14.7764	0.788641	0	
2.9040	14.4776	1.39742	0	
2.9047	15.3968	-0.138358	0	
2.9053	17.2123	-1.05152	0	
2.9060	16.6148	-2.87785	0	
2.9067	12.0187	-5.63118	0	
2.9073	6.22767	-5.0224	0	
2.9080	0.735371	-4.0954	0	
2.9087	-7.19284	-5.0224	0	
2.9093	-14.8223	-2.57346	0	
2.9100	-17.8787	2.00619	0	
2.9107	-22.153	2.61497	0	
2.9113	-27.6453	5.05007	0	
2.9120	-28.5645	8.10779	0	
2.9127	-28.2428	6.58585	0	
2.9133	-31.2992	5.35446	0	
2.9140	-31.2992	6.28146	0	
2.9147	-24.8877	4.74568	0	
2.9153	-17.8787	3.52813	0	
2.9160	-14.2248	4.4413	0	
2.9167	-14.5236	4.4413	0	
2.9173	-15.7415	4.4413	0	
2.9180	-12.9839	5.97707	0	
2.9187	-8.73252	5.05007	0	
2.9193	-7.49159	2.61497	0	
2.9200	-5.67614	1.70181	0	
2.9207	-2.32101	2.00619	0	
2.9213	-1.10306	1.70181	0	
2.9220	-0.183843	-0.442746	0	
2.9227	2.5738	-1.05152	0	
2.9233	1.65458	1.09303	0	
2.9240	-0.482587	-1.05152	0	
2.9247	2.5738	-5.0224	0	
2.9253	8.0661	-1.96469	0	
2.9260	11.4212	2.31058	0	
2.9267	11.4212	1.39742	0	
2.9273	11.1225	3.52813	0	
2.9280	12.6392	5.35446	0	
2.9287	13.2596	-0.442746	0	
2.9293	9.28405	-3.18224	0	
2.9300	5.30846	1.09303	0	
2.9307	5.00971	2.91936	0	
2.9313	6.22767	1.70181	0	
2.9320	5.30846	1.09303	0	
2.9327	1.35584	-0.747134	0	
2.9333	-1.4018	-2.57346	0	
2.9340	1.03411	-2.87785	0	
2.9347	2.5738	-2.87785	0	
2.9353	-0.183843	-3.48663	0	
2.9360	-1.70054	-3.79101	0	
2.9367	-0.183843	-3.79101	0	
2.9373	-3.24023	-1.96469	0	
2.9380	-5.67614	-1.05152	0	
2.9387	-1.10306	-2.57346	0	
2.9393	3.49301	-3.18224	0	
2.9400	4.71097	-3.79101	0	
2.9407	6.22767	-5.0224	0	
2.9413	8.66358	-3.18224	0	
2.9420	9.5828	-1.6603	0	
2.9427	8.0661	-2.26907	0	
2.9433	6.22767	-1.05152	0	
2.9440	6.52641	-0.138358	0	
2.9447	5.30846	-0.138358	0	
2.9453	1.65458	1.39742	0	
2.9460	-0.781331	0.470418	0	
2.9467	-1.99929	-1.35591	0	
2.9473	-5.05567	1.70181	0	
2.9480	-8.4108	3.52813	0	
2.9487	-9.62876	-0.138358	0	
2.9493	-9.95048	-0.138358	0	
2.9500	-7.19284	1.39742	0	
2.9507	-3.24023	-1.05152	0	
2.9513	-2.32101	-0.747134	0	
2.9520	-3.24023	1.09303	0	
2.9527	-1.4018	-2.26907	0	
2.9533	2.27505	-4.70418	0	
2.9540	4.71097	-3.18224	0	
2.9547	6.22767	-3.79101	0	
