0.0007	19.6003	-8.92602	0	
0.0013	18.9878	-5.58351	0	
0.0020	15.9507	-3.76032	0	
0.0027	14.1132	-4.67192	0	
0.0033	14.1132	-3.15259	0	
0.0040	11.0507	-0.683695	0	
0.0047	5.25737	-0.98756	0	
0.0053	1.30158	-0.0759661	0	
0.0060	-3.59849	1.13949	0	
0.0067	-10.6168	0.531763	0	
0.0073	-15.7976	1.74722	0	
0.0080	-16.4101	4.482	0	
0.0087	-18.2477	3.87427	0	
0.0093	-21.8972	3.57041	0	
0.0100	-23.1222	5.69746	0	
0.0107	-22.8159	5.3936	0	
0.0113	-21.8972	5.08973	0	
0.0120	-17.6351	7.55863	0	
0.0127	-11.2293	6.64704	0	
0.0133	-7.86053	1.74722	0	
0.0140	-5.41049	-0.683695	0	
0.0147	-0.535945	-0.98756	0	
0.0153	3.41984	-0.98756	0	
0.0160	5.56362	-0.0759661	0	
0.0167	5.86988	0.835627	0	
0.0173	3.72609	0.835627	0	
0.0180	0.995327	1.13949	0	
0.0187	-1.14845	0.227898	0	
0.0193	-3.29223	-0.683695	0	
0.0200	-6.023	-0.0759661	0	
0.0207	-6.94177	-1.29142	0	
0.0213	-6.32926	-1.89915	0	
0.0220	-4.82351	-0.0759661	0	
0.0227	-3.29223	1.74722	0	
0.0233	-1.76096	1.13949	0	
0.0240	-2.37347	1.74722	0	
0.0247	-5.41049	1.74722	0	
0.0253	-5.71675	1.74722	0	
0.0260	-3.90474	2.65881	0	
0.0267	-3.29223	2.65881	0	
0.0273	-2.67973	2.05109	0	
0.0280	-1.14845	1.74722	0	
0.0287	-0.842199	0.835627	0	
0.0293	2.22034	0.531763	0	
0.0300	5.25737	2.35495	0	
0.0307	3.11359	2.05109	0	
0.0313	-0.229691	-0.0759661	0	
0.0320	2.22034	-1.59529	0	
0.0327	4.3386	-2.84873	0	
0.0333	4.3386	-2.84873	0	
0.0340	5.25737	-0.98756	0	
0.0347	4.95111	-1.89915	0	
0.0353	3.41984	-3.76032	0	
0.0360	1.91409	-2.50688	0	
0.0367	0.689072	-2.20302	0	
0.0373	1.60784	-4.06419	0	
0.0380	3.11359	-4.36805	0	
0.0387	1.60784	-2.20302	0	
0.0393	-0.229691	-1.89915	0	
0.0400	2.22034	-3.76032	0	
0.0407	5.25737	-4.67192	0	
0.0413	8.01366	-2.84873	0	
0.0420	10.1319	-1.89915	0	
0.0427	11.0507	-4.36805	0	
0.0433	14.4195	-5.88737	0	
0.0440	22.3566	-3.76032	0	
0.0447	29.0686	-1.89915	0	
0.0453	30.2937	-3.15259	0	
0.0460	26.6186	-4.67192	0	
0.0467	21.7441	-2.84873	0	
0.0473	19.9065	0.835627	0	
0.0480	17.1502	-0.98756	0	
0.0487	9.82566	-6.4951	0	
0.0493	4.64486	-6.4951	0	
0.0500	0.689072	-2.20302	0	
0.0507	-8.47304	-1.29142	0	
0.0513	-17.0226	-0.98756	0	
0.0520	-19.7534	2.05109	0	
0.0527	-21.2847	2.96268	0	
0.0533	-22.5097	1.74722	0	
0.0540	-23.1222	1.44336	0	
0.0547	-26.1847	2.35495	0	
0.0553	-28.6093	6.00132	0	
0.0560	-28.303	8.16636	0	
0.0567	-27.078	5.3936	0	
0.0573	-24.9597	3.87427	0	
0.0580	-19.7534	6.34317	0	
0.0587	-13.0413	3.26654	0	
0.0593	-8.47304	-0.98756	0	
0.0600	-7.24802	0.835627	0	
0.0607	-8.16678	1.74722	0	
0.0613	-7.55427	0.835627	0	
0.0620	-5.41049	2.65881	0	
0.0627	-4.211	3.26654	0	
0.0633	-5.41049	1.74722	0	
0.0640	-6.023	3.57041	0	
0.0647	-4.51725	4.78587	0	
0.0653	-3.59849	3.26654	0	
0.0660	-7.24802	3.26654	0	
0.0667	-10.6168	3.57041	0	
0.0673	-7.55427	1.13949	0	
0.0680	-2.67973	-0.0759661	0	
0.0687	-1.45471	0.227898	0	
0.0693	0.382818	-1.89915	0	
0.0700	2.50108	-2.84873	0	
0.0707	3.72609	1.74722	0	
0.0713	4.3386	4.78587	0	
0.0720	3.72609	2.96268	0	
0.0727	2.22034	-0.0759661	0	
0.0733	2.50108	-2.84873	0	
0.0740	4.3386	-4.97578	0	
0.0747	3.41984	-5.88737	0	
0.0753	3.41984	-3.76032	0	
0.0760	5.56362	-2.84873	0	
0.0767	6.17613	-3.76032	0	
0.0773	6.17613	-4.97578	0	
0.0780	8.01366	-5.58351	0	
0.0787	8.62616	-6.19124	0	
0.0793	8.93242	-4.67192	0	
0.0800	10.7444	-1.89915	0	
0.0807	9.82566	-0.683695	0	
0.0813	8.01366	-3.15259	0	
0.0820	8.31991	-3.76032	0	
0.0827	8.93242	-1.89915	0	
0.0833	7.40115	-0.379831	0	
0.0840	8.01366	-0.0759661	0	
0.0847	8.93242	-0.0759661	0	
0.0853	8.01366	-0.683695	0	
0.0860	8.62616	-0.379831	0	
0.0867	11.6632	2.35495	0	
0.0873	12.5819	3.57041	0	
0.0880	13.1945	2.35495	0	
0.0887	15.032	1.74722	0	
0.0893	14.4195	2.35495	0	
0.0900	11.6632	-0.0759661	0	
0.0907	11.9694	-1.59529	0	
0.0913	12.2757	0.227898	0	
0.0920	12.5819	-0.379831	0	
0.0927	17.1502	-3.45646	0	
0.0933	18.9878	-2.84873	0	
0.0940	14.7257	-2.50688	0	
0.0947	11.6632	-5.58351	0	
0.0953	10.1319	-5.88737	0	
0.0960	3.72609	-3.45646	0	
0.0967	-2.37347	-4.67192	0	
0.0973	-4.82351	-7.10283	0	
0.0980	-9.3918	-4.97578	0	
0.0987	-13.9601	-1.59529	0	
0.0993	-16.1039	-0.683695	0	
0.1000	-19.1664	-0.0759661	0	
0.1007	-20.6722	0.835627	0	
0.1013	-20.6722	0.531763	0	
0.1020	-24.041	-0.0759661	0	
0.1027	-26.7717	2.35495	0	
0.1033	-22.5097	4.482	0	
0.1040	-18.5539	3.57041	0	
0.1047	-17.0226	3.57041	0	
0.1053	-13.3476	6.34317	0	
0.1060	-8.77929	7.25477	0	
0.1067	-6.32926	5.08973	0	
0.1073	-4.211	4.482	0	
0.1080	-2.06722	4.78587	0	
0.1087	0.382818	4.482	0	
0.1093	4.3386	3.57041	0	
0.1100	8.01366	1.44336	0	
0.1107	7.09489	-0.379831	0	
0.1113	5.25737	0.835627	0	
0.1120	4.95111	2.65881	0	
0.1127	4.3386	2.65881	0	
0.1133	2.50108	0.835627	0	
0.1140	0.689072	0.227898	0	
0.1147	-2.98598	1.74722	0	
0.1153	-5.71675	1.74722	0	
0.1160	-4.82351	-0.98756	0	
0.1167	-4.211	-0.379831	0	
0.1173	-5.71675	1.74722	0	
0.1180	-4.51725	-0.0759661	0	
0.1187	-2.06722	-0.98756	0	
0.1193	-4.51725	1.44336	0	
0.1200	-8.47304	1.13949	0	
0.1207	-8.77929	-0.0759661	0	
0.1213	-6.94177	0.531763	0	
0.1220	-7.55427	-1.29142	0	
0.1227	-11.2293	-2.20302	0	
0.1233	-11.2293	-0.379831	0	
0.1240	-6.63551	-0.683695	0	
0.1247	-3.90474	-0.683695	0	
0.1253	-3.29223	1.74722	0	
0.1260	-0.842199	1.44336	0	
0.1267	2.80733	-0.0759661	0	
0.1273	6.17613	1.74722	0	
0.1280	8.01366	0.835627	0	
0.1287	7.40115	-2.20302	0	
0.1293	8.62616	-0.98756	0	
0.1300	12.5819	-0.379831	0	
0.1307	13.807	-2.20302	0	
0.1313	15.3382	-0.0759661	0	
0.1320	19.9065	0.835627	0	
0.1327	21.4378	-3.45646	0	
0.1333	19.294	-3.15259	0	
0.1340	18.9878	-0.0759661	0	
0.1347	17.4565	-2.84873	0	
0.1353	12.8882	-4.36805	0	
0.1360	9.82566	-1.89915	0	
0.1367	7.09489	-2.50688	0	
0.1373	0.689072	-2.84873	0	
0.1380	-4.211	0.835627	0	
0.1387	-6.63551	0.227898	0	
0.1393	-9.08555	-1.89915	0	
0.1400	-11.8418	-0.0759661	0	
0.1407	-13.3476	1.74722	0	
0.1413	-14.8789	2.96268	0	
0.1420	-13.9601	2.65881	0	
0.1427	-8.47304	-1.59529	0	
0.1433	-4.82351	-3.15259	0	
0.1440	-4.82351	1.44336	0	
0.1447	-2.98598	3.57041	0	
0.1453	1.60784	2.65881	0	
0.1460	2.50108	2.05109	0	
0.1467	1.60784	1.44336	0	
0.1473	0.689072	0.835627	0	
0.1480	-2.67973	1.74722	0	
0.1487	-6.32926	0.227898	0	
0.1493	-8.47304	-2.84873	0	
0.1500	-11.2293	-0.98756	0	
0.1507	-12.1481	2.65881	0	
0.1513	-8.47304	1.44336	0	
0.1520	-7.55427	-0.98756	0	
0.1527	-10.6168	1.74722	0	
0.1533	-10.9231	3.57041	0	
0.1540	-8.16678	0.835627	0	
0.1547	-3.90474	-0.98756	0	
0.1553	-1.45471	-0.0759661	0	
0.1560	-3.29223	0.531763	0	
0.1567	-4.82351	-0.0759661	0	
0.1573	-1.14845	-1.89915	0	
0.1580	0.689072	-1.59529	0	
0.1587	-1.45471	0.835627	0	
0.1593	-2.06722	-0.379831	0	
0.1600	-1.45471	-0.98756	0	
0.1607	-0.842199	1.74722	0	
0.1613	1.30158	-0.683695	0	
0.1620	3.41984	-3.76032	0	
0.1627	6.78864	-0.0759661	0	
0.1633	11.6632	2.05109	0	
0.1640	14.4195	-2.20302	0	
0.1647	18.3753	-3.76032	0	
0.1653	26.0061	-3.15259	0	
0.1660	29.0686	-4.97578	0	
0.1667	26.0061	-4.06419	0	
0.1673	25.3936	-2.20302	0	
0.1680	25.3936	-2.84873	0	
0.1687	20.8253	-1.89915	0	
0.1693	15.9507	0.227898	0	
0.1700	14.1132	-0.379831	0	
0.1707	11.3569	-1.89915	0	
0.1713	6.17613	-2.50688	0	
0.1720	1.30158	-2.84873	0	
0.1727	-5.10424	-0.0759661	0	
0.1733	-15.7976	1.74722	0	
0.1740	-24.9597	0.531763	0	
0.1747	-25.266	0.835627	0	
0.1753	-24.9597	3.57041	0	
0.1760	-28.6093	3.26654	0	
0.1767	-29.2218	2.65881	0	
0.1773	-24.041	3.57041	0	
0.1780	-21.2847	1.13949	0	
0.1787	-20.6722	-1.89915	0	
0.1793	-17.6351	-0.379831	0	
0.1800	-14.5726	1.44336	0	
0.1807	-13.9601	0.227898	0	
0.1813	-13.6538	-0.683695	0	
0.1820	-12.1481	-0.98756	0	
0.1827	-10.3106	-0.0759661	0	
0.1833	-6.63551	2.05109	0	
0.1840	-2.06722	0.835627	0	
0.1847	-0.535945	-0.683695	0	
0.1853	-2.06722	0.227898	0	
0.1860	0.0765636	-0.683695	0	
0.1867	4.03235	-1.59529	0	
0.1873	5.25737	0.531763	0	
0.1880	6.17613	1.13949	0	
0.1887	7.09489	0.227898	0	
0.1893	5.25737	1.13949	0	
0.1900	3.11359	1.13949	0	
0.1907	3.41984	-0.0759661	0	
0.1913	2.50108	-0.98756	0	
0.1920	1.91409	-2.84873	0	
0.1927	2.50108	-2.84873	0	
0.1933	2.22034	0.835627	0	
0.1940	1.60784	0.227898	0	
0.1947	3.41984	-2.84873	0	
0.1953	7.09489	-1.89915	0	
0.1960	8.62616	-0.683695	0	
0.1967	8.01366	-1.59529	0	
0.1973	8.31991	-2.84873	0	
0.1980	11.3569	-3.45646	0	
0.1987	11.3569	-1.59529	0	
0.1993	9.23867	-0.0759661	0	
0.2000	10.1319	-2.50688	0	
0.2007	10.7444	-4.06419	0	
0.2013	8.62616	-3.76032	0	
0.2020	10.7444	-3.76032	0	
0.2027	15.3382	-2.84873	0	
0.2033	14.1132	-0.98756	0	
0.2040	11.6632	-3.45646	0	
0.2047	12.2757	-4.36805	0	
0.2053	10.1319	-2.50688	0	
0.2060	6.78864	-2.20302	0	
0.2067	4.95111	-0.98756	0	
0.2073	2.50108	1.13949	0	
0.2080	-1.14845	0.531763	0	
0.2087	-3.29223	1.74722	0	
0.2093	-5.71675	4.17814	0	
0.2100	-6.63551	0.835627	0	
0.2107	-5.41049	-1.29142	0	
0.2113	-2.98598	2.65881	0	
0.2120	-1.14845	3.26654	0	
0.2127	-2.98598	1.74722	0	
0.2133	-6.32926	3.57041	0	
0.2140	-5.41049	2.96268	0	
0.2147	-4.211	-0.0759661	0	
0.2153	-7.55427	1.13949	0	
0.2160	-12.1481	1.74722	0	
0.2167	-15.7976	-0.98756	0	
0.2173	-16.7164	-0.379831	0	
0.2180	-13.9601	2.35495	0	
0.2187	-12.7351	1.74722	0	
0.2193	-13.6538	0.835627	0	
0.2200	-11.8418	1.74722	0	
0.2207	-8.16678	0.835627	0	
0.2213	-5.71675	-0.98756	0	
0.2220	-2.67973	-0.98756	0	
0.2227	0.995327	-3.15259	0	
0.2233	4.03235	-5.58351	0	
0.2240	7.7074	-4.06419	0	
0.2247	9.82566	-0.98756	0	
0.2253	7.09489	-0.683695	0	
0.2260	3.72609	-0.379831	0	
0.2267	1.91409	2.96268	0	
0.2273	0.382818	6.00132	0	
0.2280	-1.76096	4.78587	0	
0.2287	-5.71675	3.26654	0	
0.2293	-10.0043	2.96268	0	
0.2300	-12.1481	1.74722	0	
0.2307	-13.0413	-0.0759661	0	
0.2313	-13.0413	1.74722	0	
0.2320	-10.3106	4.17814	0	
0.2327	-7.55427	3.26654	0	
0.2333	-7.55427	1.74722	0	
0.2340	-7.55427	2.65881	0	
0.2347	-5.71675	2.05109	0	
0.2353	-3.29223	-0.98756	0	
0.2360	-0.535945	-3.15259	0	
0.2367	1.91409	-2.20302	0	
0.2373	4.3386	-0.0759661	0	
0.2380	6.17613	-0.98756	0	
0.2387	5.25737	-2.84873	0	
0.2393	3.41984	-1.29142	0	
0.2400	4.64486	-0.98756	0	
0.2407	6.17613	-3.76032	0	
0.2413	5.86988	-4.67192	0	
0.2420	7.7074	-0.98756	0	
0.2427	8.93242	-0.0759661	0	
0.2433	5.86988	-2.84873	0	
0.2440	4.03235	-4.36805	0	
0.2447	6.78864	-1.89915	0	
0.2453	7.09489	-0.0759661	0	
0.2460	5.25737	-0.683695	0	
0.2467	5.56362	-0.98756	0	
0.2473	7.09489	-0.683695	0	
0.2480	7.09489	-2.20302	0	
0.2487	5.25737	-1.29142	0	
0.2493	4.03235	0.835627	0	
0.2500	7.7074	-1.59529	0	
0.2507	15.6445	-3.76032	0	
0.2513	20.8253	-0.98756	0	
0.2520	21.4378	-0.98756	0	
0.2527	22.6628	-4.67192	0	
0.2533	26.3124	-4.06419	0	
0.2540	28.4561	-3.15259	0	
0.2547	27.8436	-5.58351	0	
0.2553	25.6998	-4.67192	0	
0.2560	22.9691	-2.50688	0	
0.2567	18.069	-4.97578	0	
0.2573	14.1132	-7.71056	0	
0.2580	12.2757	-5.27965	0	
0.2587	6.17613	-3.76032	0	
0.2593	-3.59849	-4.97578	0	
0.2600	-9.69805	-3.45646	0	
0.2607	-13.9601	-0.0759661	0	
0.2613	-18.5539	-0.0759661	0	
0.2620	-19.1664	0.835627	0	
0.2627	-17.6351	3.87427	0	
0.2633	-18.8602	2.65881	0	
0.2640	-19.4472	0.227898	0	
0.2647	-16.1039	1.74722	0	
0.2653	-14.5726	3.26654	0	
0.2660	-16.1039	4.17814	0	
0.2667	-16.7164	6.34317	0	
0.2673	-14.8789	7.86249	0	
0.2680	-12.7351	6.64704	0	
0.2687	-13.6538	5.3936	0	
0.2693	-15.7976	4.482	0	
0.2700	-16.4101	3.26654	0	
0.2707	-17.0226	2.96268	0	
0.2713	-19.7534	4.482	0	
0.2720	-20.9784	5.08973	0	
0.2727	-20.0597	4.482	0	
0.2733	-19.7534	4.482	0	
0.2740	-18.5539	5.3936	0	
0.2747	-16.7164	4.78587	0	
0.2753	-15.4914	2.96268	0	
0.2760	-12.7351	1.74722	0	
0.2767	-9.69805	2.05109	0	
0.2773	-9.08555	2.05109	0	
0.2780	-6.94177	-1.29142	0	
0.2787	-2.37347	-4.67192	0	
0.2793	-1.14845	-2.84873	0	
0.2800	-1.76096	-0.0759661	0	
0.2807	1.60784	-0.683695	0	
0.2813	4.64486	-0.683695	0	
0.2820	4.3386	-1.89915	0	
0.2827	4.3386	-4.06419	0	
0.2833	5.56362	-2.50688	0	
0.2840	4.3386	-0.0759661	0	
0.2847	2.22034	-1.29142	0	
0.2853	3.11359	-0.0759661	0	
0.2860	5.86988	2.96268	0	
0.2867	4.64486	2.35495	0	
0.2873	3.41984	1.74722	0	
0.2880	5.25737	2.05109	0	
0.2887	5.25737	-0.0759661	0	
0.2893	3.11359	-2.50688	0	
0.2900	5.25737	-2.20302	0	
0.2907	8.31991	-2.84873	0	
0.2913	7.40115	-2.50688	0	
0.2920	7.40115	-0.0759661	0	
0.2927	8.62616	1.44336	0	
0.2933	6.48238	-0.683695	0	
0.2940	6.17613	-3.76032	0	
0.2947	8.93242	-3.76032	0	
0.2953	9.82566	-4.36805	0	
0.2960	12.5819	-7.4067	0	
0.2967	18.9878	-8.92602	0	
0.2973	23.8878	-7.71056	0	
0.2980	30.2937	-6.79897	0	
0.2987	40.9615	-7.4067	0	
0.2993	47.9798	-9.53375	0	
0.3000	48.2861	-12.3065	0	
0.3007	45.8361	-11.3569	0	
0.3013	41.2678	-8.62216	0	
0.3020	35.1682	-8.31829	0	
0.3027	26.9249	-8.31829	0	
0.3033	15.3382	-5.88737	0	
0.3040	3.41984	-1.89915	0	
0.3047	-8.47304	3.57041	0	
0.3053	-21.2847	6.34317	0	
0.3060	-28.6093	5.08973	0	
0.3067	-32.2843	6.9509	0	
0.3073	-38.6901	9.07795	0	
0.3080	-42.9522	7.25477	0	
0.3087	-43.8709	6.64704	0	
0.3093	-47.8522	9.38182	0	
0.3100	-49.6642	9.98955	0	
0.3107	-43.5647	9.07795	0	
0.3113	-36.8526	9.07795	0	
0.3120	-34.0963	7.25477	0	
0.3127	-28.6093	3.87427	0	
0.3133	-20.9784	2.05109	0	
0.3140	-15.4914	1.13949	0	
0.3147	-12.1481	2.65881	0	
0.3153	-11.5356	4.78587	0	
0.3160	-12.1481	1.74722	0	
0.3167	-10.6168	-0.98756	0	
0.3173	-9.3918	-0.0759661	0	
0.3180	-10.9231	0.835627	0	
0.3187	-10.0043	-0.379831	0	
0.3193	-6.94177	-0.683695	0	
0.3200	-5.71675	-0.0759661	0	
0.3207	-4.51725	-0.0759661	0	
0.3213	-3.59849	0.227898	0	
0.3220	-3.90474	-0.379831	0	
0.3227	-2.37347	-1.89915	0	
0.3233	0.0765636	-0.683695	0	
0.3240	1.60784	0.835627	0	
0.3247	3.41984	-0.0759661	0	
0.3253	3.41984	-2.50688	0	
0.3260	2.22034	-1.89915	0	
0.3267	5.25737	1.13949	0	
0.3273	8.93242	1.13949	0	
0.3280	5.56362	-1.29142	0	
0.3287	4.03235	-0.98756	0	
0.3293	8.31991	0.531763	0	
0.3300	9.82566	0.835627	0	
0.3307	8.01366	0.227898	0	
0.3313	10.1319	-1.89915	0	
0.3320	11.6632	-4.06419	0	
0.3327	10.4382	-2.50688	0	
0.3333	9.82566	-0.683695	0	
0.3340	9.82566	-2.20302	0	
0.3347	8.62616	-4.06419	0	
0.3353	7.09489	-5.58351	0	
0.3360	5.56362	-6.79897	0	
0.3367	3.41984	-5.27965	0	
0.3373	4.3386	-3.76032	0	
0.3380	9.23867	-3.76032	0	
0.3387	11.9694	-4.36805	0	
0.3393	11.6632	-3.76032	0	
0.3400	11.6632	-3.15259	0	
0.3407	10.7444	-2.84873	0	
0.3413	9.82566	-2.84873	0	
0.3420	12.2757	-1.89915	0	
0.3427	12.5819	-1.89915	0	
0.3433	10.7444	-4.06419	0	
0.3440	12.5819	-3.76032	0	
0.3447	15.9507	-0.98756	0	
0.3453	14.1132	-2.20302	0	
0.3460	12.5819	-3.45646	0	
0.3467	15.032	-1.89915	0	
0.3473	15.6445	-1.89915	0	
0.3480	11.6632	-1.89915	0	
0.3487	6.78864	-0.98756	0	
0.3493	6.17613	-1.59529	0	
0.3500	7.7074	-1.29142	0	
0.3507	3.41984	-0.0759661	0	
0.3513	-2.06722	-0.98756	0	
0.3520	-0.842199	-2.50688	0	
0.3527	-0.229691	-2.20302	0	
0.3533	-4.211	-0.98756	0	
0.3540	-6.023	0.835627	0	
0.3547	-7.24802	0.835627	0	
0.3553	-11.5356	-0.683695	0	
0.3560	-12.1481	-0.379831	0	
0.3567	-10.9231	0.531763	0	
0.3573	-13.9601	-0.0759661	0	
0.3580	-15.7976	0.227898	0	
0.3587	-13.9601	1.74722	0	
0.3593	-14.8789	1.74722	0	
0.3600	-14.8789	0.835627	0	
0.3607	-12.7351	0.531763	0	
0.3613	-13.9601	0.531763	0	
0.3620	-15.1851	0.835627	0	
0.3627	-11.8418	1.74722	0	
0.3633	-10.9231	2.35495	0	
0.3640	-12.7351	1.13949	0	
0.3647	-9.3918	0.531763	0	
0.3653	-3.90474	0.835627	0	
0.3660	-0.535945	2.65881	0	
0.3667	3.72609	4.482	0	
0.3673	7.09489	4.482	0	
0.3680	5.86988	3.57041	0	
0.3687	5.25737	5.3936	0	
0.3693	6.17613	6.9509	0	
0.3700	5.86988	5.08973	0	
0.3707	5.86988	4.17814	0	
0.3713	6.48238	5.3936	0	
0.3720	5.25737	3.87427	0	
0.3727	3.41984	0.531763	0	
0.3733	1.30158	0.835627	0	
0.3740	-2.67973	2.35495	0	
0.3747	-6.023	-0.98756	0	
0.3753	-7.55427	-4.67192	0	
0.3760	-10.6168	-2.50688	0	
0.3767	-13.3476	2.65881	0	
0.3773	-13.3476	1.44336	0	
0.3780	-13.0413	-1.89915	0	
0.3787	-12.7351	-1.89915	0	
0.3793	-10.0043	-1.29142	0	
0.3800	-6.32926	-1.89915	0	
0.3807	-3.90474	-0.683695	0	
0.3813	-2.06722	-0.0759661	0	
0.3820	-2.06722	-1.29142	0	
0.3827	-1.76096	-0.98756	0	
0.3833	0.995327	0.227898	0	
0.3840	3.11359	-0.683695	0	
0.3847	2.80733	-0.98756	0	
0.3853	4.3386	-0.379831	0	
0.3860	7.09489	0.835627	0	
0.3867	8.93242	2.96268	0	
0.3873	9.82566	5.3936	0	
0.3880	9.51941	4.78587	0	
0.3887	7.09489	2.35495	0	
0.3893	4.3386	1.74722	0	
0.3900	1.91409	3.26654	0	
0.3907	-2.06722	2.96268	0	
0.3913	-5.10424	2.65881	0	
0.3920	-6.32926	4.482	0	
0.3927	-6.63551	4.482	0	
0.3933	-6.32926	1.74722	0	
0.3940	-5.41049	1.74722	0	
0.3947	-3.59849	2.05109	0	
0.3953	-0.229691	-1.59529	0	
0.3960	0.995327	-4.67192	0	
0.3967	0.382818	-4.67192	0	
0.3973	2.80733	-4.97578	0	
0.3980	7.40115	-5.58351	0	
0.3987	8.01366	-4.06419	0	
0.3993	5.86988	-2.84873	0	
0.4000	6.48238	-3.76032	0	
0.4007	9.23867	-4.36805	0	
0.4013	9.23867	-3.76032	0	
0.4020	7.7074	-3.15259	0	
0.4027	7.09489	-3.76032	0	
0.4033	4.64486	-3.76032	0	
0.4040	2.22034	-2.84873	0	
0.4047	3.41984	-2.50688	0	
0.4053	5.25737	-2.20302	0	
0.4060	2.80733	-0.379831	0	
0.4067	0.689072	-0.0759661	0	
0.4073	-1.14845	-0.98756	0	
0.4080	-4.211	0.531763	0	
0.4087	-3.59849	3.26654	0	
0.4093	-2.06722	4.482	0	
0.4100	-5.71675	3.87427	0	
0.4107	-7.86053	2.35495	0	
0.4113	-5.71675	1.74722	0	
0.4120	-8.47304	4.17814	0	
0.4127	-12.1481	5.3936	0	
0.4133	-9.3918	2.05109	0	
0.4140	-4.82351	-1.29142	0	
0.4147	-3.90474	-0.98756	0	
0.4153	-2.98598	0.227898	0	
0.4160	-2.06722	-0.379831	0	
0.4167	-2.67973	-1.29142	0	
0.4173	-1.14845	-0.0759661	0	
0.4180	3.41984	0.835627	0	
0.4187	7.09489	-0.98756	0	
0.4193	10.7444	-2.20302	0	
0.4200	15.032	-2.20302	0	
0.4207	16.844	-3.76032	0	
0.4213	14.4195	-5.88737	0	
0.4220	11.6632	-5.58351	0	
0.4227	9.51941	-4.36805	0	
0.4233	7.40115	-4.36805	0	
0.4240	4.95111	-3.45646	0	
0.4247	3.41984	-3.15259	0	
0.4253	4.3386	-3.45646	0	
0.4260	5.56362	-1.59529	0	
0.4267	3.41984	0.227898	0	
0.4273	0.995327	-1.29142	0	
0.4280	1.91409	-2.50688	0	
0.4287	3.72609	-0.0759661	0	
0.4293	4.64486	2.05109	0	
0.4300	5.25737	1.74722	0	
0.4307	4.3386	1.74722	0	
0.4313	1.91409	2.96268	0	
0.4320	-2.98598	2.35495	0	
0.4327	-9.3918	0.835627	0	
0.4333	-12.4288	2.05109	0	
0.4340	-10.0043	3.57041	0	
0.4347	-9.08555	1.74722	0	
0.4353	-11.5356	0.835627	0	
0.4360	-13.0413	1.13949	0	
0.4367	-13.9601	2.05109	0	
0.4373	-15.7976	5.3936	0	
0.4380	-17.0226	7.55863	0	
0.4387	-19.1664	4.78587	0	
0.4393	-19.7534	2.35495	0	
0.4400	-15.4914	3.87427	0	
0.4407	-9.3918	3.87427	0	
0.4413	-6.94177	0.835627	0	
0.4420	-5.71675	-0.0759661	0	
0.4427	-2.67973	-0.683695	0	
0.4433	0.382818	-2.50688	0	
0.4440	3.11359	-1.59529	0	
0.4447	4.95111	1.74722	0	
0.4453	3.41984	2.65881	0	
0.4460	2.22034	1.74722	0	
0.4467	5.56362	0.531763	0	
0.4473	8.93242	-0.98756	0	
0.4480	6.78864	-2.84873	0	
0.4487	4.64486	-3.15259	0	
0.4493	5.25737	-1.89915	0	
0.4500	4.3386	-0.98756	0	
0.4507	2.50108	-0.0759661	0	
0.4513	2.50108	0.227898	0	
0.4520	3.41984	1.44336	0	
0.4527	0.995327	1.13949	0	
0.4533	-4.51725	-1.59529	0	
0.4540	-4.211	-2.50688	0	
0.4547	1.60784	-0.683695	0	
0.4553	3.11359	-0.0759661	0	
0.4560	0.689072	-0.379831	0	
0.4567	0.689072	-0.683695	0	
0.4573	1.30158	-0.98756	0	
0.4580	-0.535945	0.531763	0	
0.4587	-0.842199	0.835627	0	
0.4593	1.30158	-1.89915	0	
0.4600	0.689072	-2.20302	0	
0.4607	-1.14845	-0.98756	0	
0.4613	0.689072	-2.50688	0	
0.4620	2.80733	-2.20302	0	
0.4627	4.3386	-0.379831	0	
0.4633	5.56362	-3.15259	0	
0.4640	4.95111	-5.27965	0	
0.4647	2.50108	-2.50688	0	
0.4653	1.60784	-1.59529	0	
0.4660	1.60784	-2.84873	0	
0.4667	0.0765636	-0.0759661	0	
0.4673	-0.229691	3.57041	0	
0.4680	1.91409	2.96268	0	
0.4687	3.72609	1.44336	0	
0.4693	2.50108	0.835627	0	
0.4700	0.995327	0.835627	0	
0.4707	2.22034	-0.379831	0	
0.4713	4.03235	-2.84873	0	
0.4720	4.3386	-2.20302	0	
0.4727	4.64486	-0.379831	0	
0.4733	5.56362	-2.50688	0	
0.4740	4.95111	-3.45646	0	
0.4747	4.03235	-1.59529	0	
0.4753	6.17613	-3.76032	0	
0.4760	5.56362	-6.4951	0	
0.4767	0.995327	-3.76032	0	
0.4773	-0.229691	-3.45646	0	
0.4780	0.995327	-6.79897	0	
0.4787	-2.06722	-6.19124	0	
0.4793	-7.24802	-2.84873	0	
0.4800	-10.3106	-2.20302	0	
0.4807	-11.2293	-1.89915	0	
0.4813	-10.9231	-1.29142	0	
0.4820	-9.69805	-2.50688	0	
0.4827	-9.08555	-1.29142	0	
0.4833	-6.32926	2.35495	0	
0.4840	-4.82351	3.57041	0	
0.4847	-9.3918	3.57041	0	
0.4853	-10.6168	4.78587	0	
0.4860	-4.51725	5.3936	0	
0.4867	-1.14845	3.57041	0	
0.4873	-2.98598	0.835627	0	
0.4880	0.0765636	0.531763	0	
0.4887	7.40115	1.74722	0	
0.4893	10.7444	-0.379831	0	
0.4900	11.9694	-2.50688	0	
0.4907	15.3382	-0.0759661	0	
0.4913	17.1502	-0.0759661	0	
0.4920	15.6445	-4.97578	0	
0.4927	14.1132	-5.58351	0	
0.4933	12.2757	-2.20302	0	
0.4940	10.1319	-3.15259	0	
0.4947	8.31991	-4.06419	0	
0.4953	3.72609	-3.45646	0	
0.4960	-2.06722	-4.97578	0	
0.4967	-5.10424	-5.88737	0	
0.4973	-6.63551	-3.76032	0	
0.4980	-8.77929	-4.36805	0	
0.4987	-10.3106	-4.67192	0	
0.4993	-13.0413	-2.50688	0	
0.5000	-14.8789	-1.89915	0	
0.5007	-12.7351	-1.89915	0	
0.5013	-11.2293	1.74722	0	
0.5020	-13.9601	3.57041	0	
0.5027	-13.6538	2.05109	0	
0.5033	-10.3106	2.65881	0	
0.5040	-8.47304	5.3936	0	
0.5047	-7.55427	6.00132	0	
0.5053	-5.71675	4.482	0	
0.5060	-3.29223	4.482	0	
0.5067	0.689072	5.08973	0	
0.5073	2.50108	4.482	0	
0.5080	2.22034	4.482	0	
0.5087	5.56362	5.3936	0	
0.5093	10.1319	2.65881	0	
0.5100	9.23867	-1.59529	0	
0.5107	8.93242	0.835627	0	
0.5113	9.51941	2.96268	0	
0.5120	3.72609	0.227898	0	
0.5127	-0.229691	0.835627	0	
0.5133	2.50108	2.65881	0	
0.5140	2.50108	-1.29142	0	
0.5147	-2.98598	-3.76032	0	
0.5153	-5.71675	-0.0759661	0	
0.5160	-6.023	1.44336	0	
0.5167	-7.55427	-0.683695	0	
0.5173	-8.47304	-0.379831	0	
0.5180	-8.47304	-0.98756	0	
0.5187	-7.86053	-2.20302	0	
0.5193	-6.023	-0.98756	0	
0.5200	-4.211	0.531763	0	
0.5207	-2.06722	-0.0759661	0	
0.5213	0.689072	-0.0759661	0	
0.5220	2.50108	0.227898	0	
0.5227	5.56362	-0.0759661	0	
0.5233	7.09489	-0.0759661	0	
0.5240	5.86988	-0.98756	0	
0.5247	5.25737	-1.29142	0	
0.5253	5.25737	-0.0759661	0	
0.5260	2.22034	0.835627	0	
0.5267	1.60784	1.74722	0	
0.5273	6.78864	2.05109	0	
0.5280	7.40115	0.835627	0	
0.5287	3.72609	-1.29142	0	
0.5293	3.41984	-1.89915	0	
0.5300	2.22034	-0.98756	0	
0.5307	-2.98598	0.227898	0	
0.5313	-4.211	1.74722	0	
0.5320	-2.06722	1.74722	0	
0.5327	-0.842199	1.13949	0	
0.5333	-1.14845	1.74722	0	
0.5340	-2.06722	1.74722	0	
0.5347	-2.37347	-0.98756	0	
0.5353	-1.76096	-1.89915	0	
0.5360	-2.37347	-0.0759661	0	
0.5367	-2.06722	-0.98756	0	
0.5373	1.60784	-2.84873	0	
0.5380	4.03235	-1.89915	0	
0.5387	4.64486	-0.98756	0	
0.5393	7.7074	-0.98756	0	
0.5400	11.3569	-0.683695	0	
0.5407	12.8882	-2.20302	0	
0.5413	13.807	-4.06419	0	
0.5420	15.3382	-3.76032	0	
0.5427	17.1502	-3.15259	0	
0.5433	16.844	-2.84873	0	
0.5440	12.5819	-1.29142	0	
0.5447	9.23867	1.13949	0	
0.5453	7.7074	0.835627	0	
0.5460	1.60784	-1.89915	0	
0.5467	-7.24802	-2.50688	0	
0.5473	-9.3918	1.44336	0	
0.5480	-8.16678	3.87427	0	
0.5487	-10.9231	1.74722	0	
0.5493	-13.3476	-0.0759661	0	
0.5500	-12.1481	0.227898	0	
0.5507	-13.3476	1.44336	0	
0.5513	-16.1039	3.26654	0	
0.5520	-13.0413	4.482	0	
0.5527	-5.71675	3.87427	0	
0.5533	-2.67973	2.65881	0	
0.5540	-2.06722	1.44336	0	
0.5547	0.689072	0.531763	0	
0.5553	2.22034	-0.0759661	0	
0.5560	0.995327	-0.0759661	0	
0.5567	1.60784	-0.98756	0	
0.5573	4.3386	-1.89915	0	
0.5580	4.3386	-2.84873	0	
0.5587	0.689072	-3.76032	0	
0.5593	-1.76096	-3.76032	0	
0.5600	-1.45471	-3.76032	0	
0.5607	-0.842199	-3.76032	0	
0.5613	-1.45471	-1.89915	0	
0.5620	-2.06722	0.531763	0	
0.5627	-2.06722	-0.0759661	0	
0.5633	-4.82351	-1.89915	0	
0.5640	-9.69805	1.44336	0	
0.5647	-9.3918	3.87427	0	
0.5653	-7.55427	0.531763	0	
0.5660	-10.3106	-1.89915	0	
0.5667	-9.69805	1.74722	0	
0.5673	-2.37347	4.17814	0	
0.5680	-1.45471	2.96268	0	
0.5687	-5.71675	1.74722	0	
0.5693	-5.71675	0.531763	0	
0.5700	-5.71675	1.74722	0	
0.5707	-7.86053	4.482	0	
0.5713	-6.023	4.482	0	
0.5720	-3.90474	2.65881	0	
0.5727	-4.82351	2.05109	0	
0.5733	-4.82351	0.835627	0	
0.5740	-5.10424	0.531763	0	
0.5747	-6.32926	3.87427	0	
0.5753	-5.71675	3.57041	0	
0.5760	-6.94177	-0.98756	0	
0.5767	-9.3918	-0.379831	0	
0.5773	-7.24802	2.65881	0	
0.5780	-5.10424	1.13949	0	
0.5787	-6.63551	-0.98756	0	
0.5793	-5.41049	-0.98756	0	
0.5800	0.0765636	-1.89915	0	
0.5807	1.60784	-2.50688	0	
0.5813	0.0765636	-0.98756	0	
0.5820	0.995327	-0.98756	0	
0.5827	3.11359	-2.84873	0	
0.5833	4.03235	-2.50688	0	
0.5840	6.17613	0.227898	0	
0.5847	7.7074	0.531763	0	
0.5853	5.86988	-0.683695	0	
0.5860	5.86988	0.835627	0	
0.5867	8.01366	2.35495	0	
0.5873	5.86988	1.13949	0	
0.5880	3.41984	-0.0759661	0	
0.5887	4.95111	-0.0759661	0	
0.5893	5.56362	0.835627	0	
0.5900	4.64486	0.835627	0	
0.5907	4.95111	0.227898	0	
0.5913	3.41984	-1.29142	0	
0.5920	2.50108	-2.84873	0	
0.5927	3.41984	-2.20302	0	
0.5933	1.30158	0.835627	0	
0.5940	-2.98598	1.74722	0	
0.5947	0.0765636	-1.89915	0	
0.5953	4.3386	-3.76032	0	
0.5960	4.03235	-3.76032	0	
0.5967	5.25737	-4.36805	0	
0.5973	8.62616	-4.97578	0	
0.5980	6.48238	-4.06419	0	
0.5987	4.3386	-4.67192	0	
0.5993	5.25737	-3.76032	0	
0.6000	2.50108	0.835627	0	
0.6007	-0.842199	0.835627	0	
0.6013	0.995327	-3.76032	0	
0.6020	2.50108	-4.97578	0	
0.6027	0.689072	-1.89915	0	
0.6033	0.382818	0.227898	0	
0.6040	0.689072	-0.0759661	0	
0.6047	1.30158	-1.89915	0	
0.6053	3.11359	-1.89915	0	
0.6060	5.25737	0.227898	0	
0.6067	4.64486	0.835627	0	
0.6073	5.25737	-1.29142	0	
0.6080	7.40115	-1.59529	0	
0.6087	8.93242	-0.379831	0	
0.6093	10.7444	-0.379831	0	
0.6100	14.4195	-0.683695	0	
0.6107	16.844	0.227898	0	
0.6113	15.032	0.835627	0	
0.6120	12.2757	1.44336	0	
0.6127	11.6632	2.35495	0	
0.6133	10.7444	2.05109	0	
0.6140	7.40115	0.531763	0	
0.6147	4.03235	-0.683695	0	
0.6153	-0.842199	-2.50688	0	
0.6160	-6.63551	-3.15259	0	
0.6167	-9.08555	-0.98756	0	
0.6173	-8.77929	0.531763	0	
0.6180	-9.3918	0.227898	0	
0.6187	-12.1481	-0.0759661	0	
0.6193	-13.6538	-0.98756	0	
0.6200	-13.0413	-0.683695	0	
0.6207	-11.8418	1.74722	0	
0.6213	-9.3918	2.35495	0	
0.6220	-6.63551	-0.0759661	0	
0.6227	-5.41049	-0.0759661	0	
0.6233	-3.90474	1.13949	0	
0.6240	-0.229691	0.227898	0	
0.6247	2.50108	-1.89915	0	
0.6253	2.80733	-1.89915	0	
0.6260	1.30158	0.531763	0	
0.6267	-0.229691	1.74722	0	
0.6273	0.0765636	0.227898	0	
0.6280	1.91409	0.835627	0	
0.6287	2.80733	2.35495	0	
0.6293	1.60784	2.65881	0	
0.6300	-1.76096	2.35495	0	
0.6307	-3.59849	1.44336	0	
0.6313	-1.45471	0.227898	0	
0.6320	-1.45471	0.835627	0	
0.6327	-5.71675	1.44336	0	
0.6333	-7.24802	-0.0759661	0	
0.6340	-6.94177	-1.29142	0	
0.6347	-9.69805	-2.84873	0	
0.6353	-8.47304	-3.15259	0	
0.6360	-3.90474	-0.0759661	0	
0.6367	-6.63551	1.13949	0	
0.6373	-11.2293	-1.59529	0	
0.6380	-8.47304	-1.89915	0	
0.6387	-2.67973	-0.0759661	0	
0.6393	2.50108	0.227898	0	
0.6400	8.62616	0.531763	0	
0.6407	11.6632	0.835627	0	
0.6413	11.6632	-0.0759661	0	
0.6420	12.2757	-0.98756	0	
0.6427	11.6632	-2.20302	0	
0.6433	7.09489	-4.06419	0	
0.6440	2.80733	-2.84873	0	
0.6447	0.689072	1.44336	0	
0.6453	-3.29223	2.65881	0	
0.6460	-7.55427	0.835627	0	
0.6467	-11.2293	1.44336	0	
0.6473	-14.5726	3.57041	0	
0.6480	-17.0226	3.87427	0	
0.6487	-17.6351	3.57041	0	
0.6493	-16.1039	4.17814	0	
0.6500	-14.8789	2.96268	0	
0.6507	-15.7976	1.13949	0	
0.6513	-16.4101	2.35495	0	
0.6520	-14.2663	4.482	0	
0.6527	-12.1481	4.482	0	
0.6533	-9.08555	2.96268	0	
0.6540	-3.59849	1.74722	0	
0.6547	0.689072	0.835627	0	
0.6553	0.995327	-0.379831	0	
0.6560	0.689072	-1.59529	0	
0.6567	1.30158	-0.98756	0	
0.6573	0.689072	-0.98756	0	
0.6580	1.91409	-2.84873	0	
0.6587	4.3386	-2.50688	0	
0.6593	5.25737	-0.379831	0	
0.6600	5.25737	-0.379831	0	
0.6607	6.17613	-1.89915	0	
0.6613	6.48238	-2.50688	0	
0.6620	7.7074	-2.84873	0	
0.6627	10.1319	-2.84873	0	
0.6633	12.5819	-2.50688	0	
0.6640	14.4195	-2.84873	0	
0.6647	13.5007	-2.84873	0	
0.6653	10.1319	-1.89915	0	
0.6660	8.31991	-1.89915	0	
0.6667	6.17613	-2.84873	0	
0.6673	3.11359	-1.89915	0	
0.6680	2.50108	-0.0759661	0	
0.6687	2.50108	-0.98756	0	
0.6693	-1.14845	-3.15259	0	
0.6700	-2.67973	-1.59529	0	
0.6707	0.0765636	0.835627	0	
0.6713	0.689072	0.531763	0	
0.6720	-2.06722	-1.59529	0	
0.6727	-2.67973	-1.89915	0	
0.6733	0.382818	-1.29142	0	
0.6740	2.22034	-0.379831	0	
0.6747	1.60784	-0.683695	0	
0.6753	1.91409	-2.50688	0	
0.6760	4.3386	-3.76032	0	
0.6767	4.64486	-3.45646	0	
0.6773	2.80733	-2.50688	0	
0.6780	4.95111	-1.29142	0	
0.6787	8.01366	-0.379831	0	
0.6793	6.17613	-0.98756	0	
0.6800	5.25737	-0.98756	0	
0.6807	6.78864	0.835627	0	
0.6813	5.25737	1.44336	0	
0.6820	5.25737	0.227898	0	
0.6827	8.93242	-0.683695	0	
0.6833	6.78864	-0.683695	0	
0.6840	2.80733	0.835627	0	
0.6847	6.17613	2.65881	0	
0.6853	7.40115	2.35495	0	
0.6860	3.41984	2.35495	0	
0.6867	3.41984	2.65881	0	
0.6873	3.72609	1.44336	0	
0.6880	1.60784	0.531763	0	
0.6887	4.03235	1.44336	0	
0.6893	8.31991	1.74722	0	
0.6900	7.7074	-0.0759661	0	
0.6907	6.48238	-2.50688	0	
0.6913	4.64486	-3.76032	0	
0.6920	-0.229691	-2.50688	0	
0.6927	-3.29223	-1.29142	0	
0.6933	-5.10424	-2.84873	0	
0.6940	-9.69805	-2.20302	0	
0.6947	-12.1481	0.227898	0	
0.6953	-11.2293	-0.379831	0	
0.6960	-11.2293	-1.89915	0	
0.6967	-9.69805	0.227898	0	
0.6973	-6.63551	1.44336	0	
0.6980	-6.023	-0.98756	0	
0.6987	-7.55427	-1.29142	0	
0.6993	-6.32926	0.227898	0	
0.7000	-3.29223	-0.98756	0	
0.7007	-3.59849	-2.50688	0	
0.7013	-5.10424	-2.84873	0	
0.7020	-4.82351	-3.15259	0	
0.7027	-4.82351	-1.29142	0	
0.7033	-5.71675	2.05109	0	
0.7040	-6.32926	1.74722	0	
0.7047	-8.16678	0.531763	0	
0.7053	-12.1481	3.57041	0	
0.7060	-13.9601	6.00132	0	
0.7067	-13.6538	4.17814	0	
0.7073	-13.9601	1.74722	0	
0.7080	-14.5726	2.65881	0	
0.7087	-14.5726	3.26654	0	
0.7093	-13.3476	3.57041	0	
0.7100	-10.0043	5.08973	0	
0.7107	-8.47304	4.78587	0	
0.7113	-10.6168	2.65881	0	
0.7120	-9.3918	3.26654	0	
0.7127	-5.41049	5.3936	0	
0.7133	-5.71675	3.57041	0	
0.7140	-3.29223	2.65881	0	
0.7147	3.11359	4.482	0	
0.7153	4.3386	2.35495	0	
0.7160	2.80733	-0.379831	0	
0.7167	5.25737	2.35495	0	
0.7173	5.56362	1.13949	0	
0.7180	3.11359	-5.27965	0	
0.7187	3.41984	-4.97578	0	
0.7193	4.95111	-2.50688	0	
0.7200	4.95111	-4.67192	0	
0.7207	3.72609	-6.19124	0	
0.7213	2.50108	-3.45646	0	
0.7220	2.50108	-2.84873	0	
0.7227	2.80733	-3.76032	0	
0.7233	2.80733	-3.76032	0	
0.7240	3.72609	-2.84873	0	
0.7247	2.50108	-1.89915	0	
0.7253	0.689072	-1.89915	0	
0.7260	3.41984	-0.98756	0	
0.7267	6.78864	-0.0759661	0	
0.7273	7.40115	-1.89915	0	
0.7280	8.93242	-3.45646	0	
0.7287	11.0507	-0.98756	0	
0.7293	12.5819	0.531763	0	
0.7300	14.4195	-0.98756	0	
0.7307	14.1132	-0.0759661	0	
0.7313	12.5819	2.35495	0	
0.7320	11.6632	1.44336	0	
0.7327	8.01366	-1.89915	0	
0.7333	3.41984	-2.50688	0	
0.7340	2.50108	-0.379831	0	
0.7347	2.50108	-0.0759661	0	
0.7353	0.382818	-1.89915	0	
0.7360	-1.45471	-2.50688	0	
0.7367	-4.211	-0.98756	0	
0.7373	-5.41049	-0.0759661	0	
0.7380	-3.90474	-1.89915	0	
0.7387	-3.90474	-3.76032	0	
0.7393	-5.41049	-2.20302	0	
0.7400	-4.82351	-0.0759661	0	
0.7407	-4.82351	-0.683695	0	
0.7413	-5.41049	-1.29142	0	
0.7420	-4.82351	-0.379831	0	
0.7427	-5.10424	-0.98756	0	
0.7433	-5.41049	-0.379831	0	
0.7440	-3.29223	2.35495	0	
0.7447	-1.45471	1.44336	0	
0.7453	-2.06722	-1.59529	0	
0.7460	-2.98598	-0.379831	0	
0.7467	-1.45471	1.74722	0	
0.7473	2.50108	1.13949	0	
0.7480	7.09489	-0.683695	0	
0.7487	9.23867	-0.0759661	0	
0.7493	11.9694	1.13949	0	
0.7500	15.9507	0.227898	0	
0.7507	15.6445	-0.98756	0	
0.7513	13.1945	-0.0759661	0	
0.7520	12.5819	-0.98756	0	
0.7527	11.9694	-4.06419	0	
0.7533	10.7444	-3.76032	0	
0.7540	11.6632	-1.29142	0	
0.7547	10.7444	-2.50688	0	
0.7553	7.7074	-3.76032	0	
0.7560	4.3386	-2.84873	0	
0.7567	-0.229691	-3.76032	0	
0.7573	-5.10424	-4.06419	0	
0.7580	-6.63551	-0.683695	0	
0.7587	-8.47304	1.74722	0	
0.7593	-12.1481	-0.98756	0	
0.7600	-14.5726	-2.84873	0	
0.7607	-15.7976	-0.683695	0	
0.7613	-17.6351	0.835627	0	
0.7620	-19.7534	0.835627	0	
0.7627	-20.9784	1.44336	0	
0.7633	-18.8602	2.35495	0	
0.7640	-14.8789	2.65881	0	
0.7647	-12.7351	2.65881	0	
0.7653	-11.8418	2.65881	0	
0.7660	-8.77929	2.96268	0	
0.7667	-6.63551	4.482	0	
0.7673	-7.55427	4.17814	0	
0.7680	-7.55427	2.65881	0	
0.7687	-3.90474	2.96268	0	
0.7693	-0.535945	2.65881	0	
0.7700	0.689072	1.13949	0	
0.7707	0.0765636	-0.98756	0	
0.7713	-0.229691	-2.20302	0	
0.7720	-0.229691	-0.683695	0	
0.7727	-1.14845	0.835627	0	
0.7733	-2.06722	-0.683695	0	
0.7740	-0.229691	-3.15259	0	
0.7747	1.60784	-2.84873	0	
0.7753	0.382818	-1.89915	0	
0.7760	0.0765636	-1.89915	0	
0.7767	1.60784	-0.98756	0	
0.7773	2.50108	-0.0759661	0	
0.7780	2.50108	-0.683695	0	
0.7787	2.50108	-1.59529	0	
0.7793	2.50108	0.531763	0	
0.7800	2.80733	1.74722	0	
0.7807	3.41984	0.835627	0	
0.7813	3.41984	1.74722	0	
0.7820	2.80733	2.65881	0	
0.7827	2.50108	1.44336	0	
0.7833	1.91409	2.05109	0	
0.7840	1.60784	4.482	0	
0.7847	1.91409	3.57041	0	
0.7853	0.689072	2.35495	0	
0.7860	-0.842199	3.57041	0	
0.7867	-1.45471	2.96268	0	
0.7873	0.995327	1.74722	0	
0.7880	6.48238	2.05109	0	
0.7887	8.93242	1.44336	0	
0.7893	6.78864	0.835627	0	
0.7900	6.48238	3.26654	0	
0.7907	7.7074	4.17814	0	
0.7913	4.64486	3.57041	0	
0.7920	2.50108	3.57041	0	
0.7927	4.3386	2.65881	0	
0.7933	3.41984	1.44336	0	
0.7940	-0.229691	1.44336	0	
0.7947	-1.14845	1.44336	0	
0.7953	-1.76096	0.835627	0	
0.7960	-3.90474	-0.0759661	0	
0.7967	-3.90474	-1.29142	0	
0.7973	-4.211	-1.59529	0	
0.7980	-6.32926	-0.98756	0	
0.7987	-6.32926	-0.98756	0	
0.7993	-3.90474	0.531763	0	
0.8000	-2.67973	1.74722	0	
0.8007	-2.37347	-0.379831	0	
0.8013	-1.76096	-0.98756	0	
0.8020	0.689072	-0.0759661	0	
0.8027	1.60784	-1.59529	0	
0.8033	0.689072	-1.89915	0	
0.8040	2.50108	-0.0759661	0	
0.8047	4.95111	-0.98756	0	
0.8053	2.80733	-1.29142	0	
0.8060	1.30158	2.65881	0	
0.8067	2.50108	2.65881	0	
0.8073	2.50108	-0.0759661	0	
0.8080	2.50108	1.74722	0	
0.8087	5.86988	2.65881	0	
0.8093	7.09489	0.531763	0	
0.8100	7.09489	-0.379831	0	
0.8107	8.01366	-1.29142	0	
0.8113	7.7074	-3.76032	0	
0.8120	6.48238	-2.20302	0	
0.8127	5.86988	-0.0759661	0	
0.8133	4.95111	-0.98756	0	
0.8140	6.17613	-1.89915	0	
0.8147	5.56362	-1.59529	0	
0.8153	0.689072	-1.89915	0	
0.8160	-2.06722	-2.84873	0	
0.8167	-2.98598	-3.76032	0	
0.8173	-7.24802	-3.76032	0	
0.8180	-9.3918	-2.84873	0	
0.8187	-6.32926	-2.84873	0	
0.8193	-2.98598	-3.15259	0	
0.8200	0.382818	-1.29142	0	
0.8207	1.91409	0.835627	0	
0.8213	-0.535945	-0.683695	0	
0.8220	-2.98598	-1.29142	0	
0.8227	-4.211	-0.0759661	0	
0.8233	-6.63551	-1.59529	0	
0.8240	-7.55427	-2.84873	0	
0.8247	-7.86053	0.835627	0	
0.8253	-9.69805	3.26654	0	
0.8260	-11.2293	3.57041	0	
0.8267	-11.2293	6.64704	0	
0.8273	-9.3918	7.86249	0	
0.8280	-8.77929	4.482	0	
0.8287	-11.5356	2.65881	0	
0.8293	-12.1481	2.65881	0	
0.8300	-6.32926	0.835627	0	
0.8307	-1.45471	1.44336	0	
0.8313	-1.14845	2.05109	0	
0.8320	-1.14845	-0.0759661	0	
0.8327	-2.06722	-0.0759661	0	
0.8333	-2.37347	1.74722	0	
0.8340	0.689072	-0.379831	0	
0.8347	2.22034	-1.89915	0	
0.8353	-0.535945	-2.84873	0	
0.8360	-0.842199	-4.67192	0	
0.8367	1.60784	-3.76032	0	
0.8373	1.60784	-1.29142	0	
0.8380	-0.229691	-0.98756	0	
0.8387	-0.842199	-0.98756	0	
0.8393	-1.14845	-0.683695	0	
0.8400	-1.14845	-1.59529	0	
0.8407	-0.229691	-1.89915	0	
0.8413	0.382818	-1.29142	0	
0.8420	1.91409	-2.50688	0	
0.8427	5.25737	-2.84873	0	
0.8433	7.40115	-3.45646	0	
0.8440	7.09489	-3.76032	0	
0.8447	8.01366	-1.59529	0	
0.8453	10.1319	0.531763	0	
0.8460	8.31991	0.227898	0	
0.8467	6.17613	0.835627	0	
0.8473	8.93242	0.227898	0	
0.8480	10.4382	-1.89915	0	
0.8487	6.78864	0.227898	0	
0.8493	4.3386	3.57041	0	
0.8500	3.41984	1.74722	0	
0.8507	2.50108	0.835627	0	
0.8513	3.11359	2.35495	0	
0.8520	4.3386	1.44336	0	
0.8527	4.3386	-0.683695	0	
0.8533	5.56362	-0.683695	0	
0.8540	6.78864	-1.59529	0	
0.8547	5.25737	-3.76032	0	
0.8553	4.95111	-5.88737	0	
0.8560	5.56362	-5.58351	0	
0.8567	5.56362	-4.97578	0	
0.8573	7.09489	-6.19124	0	
0.8580	8.01366	-6.79897	0	
0.8587	6.17613	-4.67192	0	
0.8593	3.41984	-3.76032	0	
0.8600	0.689072	-4.67192	0	
0.8607	-2.06722	-4.06419	0	
0.8613	-4.211	-1.29142	0	
0.8620	-5.71675	0.227898	0	
0.8627	-5.71675	-0.0759661	0	
0.8633	-4.211	0.835627	0	
0.8640	-4.82351	4.78587	0	
0.8647	-8.47304	5.69746	0	
0.8653	-11.2293	3.57041	0	
0.8660	-10.3106	2.96268	0	
0.8667	-6.94177	4.17814	0	
0.8673	-5.10424	2.96268	0	
0.8680	-6.63551	1.13949	0	
0.8687	-6.94177	-0.0759661	0	
0.8693	-5.10424	-0.683695	0	
0.8700	-6.023	0.227898	0	
0.8707	-7.24802	2.05109	0	
0.8713	-5.41049	1.74722	0	
0.8720	-4.82351	-0.98756	0	
0.8727	-6.023	-3.76032	0	
0.8733	-4.82351	-3.76032	0	
0.8740	-4.82351	-1.89915	0	
0.8747	-4.82351	-0.683695	0	
0.8753	-1.14845	-2.50688	0	
0.8760	5.25737	-4.97578	0	
0.8767	8.93242	-4.67192	0	
0.8773	10.7444	-3.76032	0	
0.8780	11.0507	-5.58351	0	
0.8787	9.82566	-4.97578	0	
0.8793	8.31991	-1.89915	0	
0.8800	6.78864	-1.89915	0	
0.8807	4.03235	-4.67192	0	
0.8813	1.30158	-4.67192	0	
0.8820	-0.842199	-3.15259	0	
0.8827	-3.90474	-1.89915	0	
0.8833	-8.47304	-1.59529	0	
0.8840	-13.0413	-1.89915	0	
0.8847	-15.7976	-0.683695	0	
0.8853	-15.7976	2.05109	0	
0.8860	-12.4288	1.44336	0	
0.8867	-8.77929	0.835627	0	
0.8873	-8.47304	4.17814	0	
0.8880	-9.69805	4.17814	0	
0.8887	-8.77929	1.44336	0	
0.8893	-6.023	1.74722	0	
0.8900	-3.59849	2.05109	0	
0.8907	0.0765636	-0.0759661	0	
0.8913	6.17613	-0.0759661	0	
0.8920	10.7444	1.44336	0	
0.8927	10.7444	1.44336	0	
0.8933	8.93242	1.13949	0	
0.8940	8.93242	0.835627	0	
0.8947	7.7074	-0.683695	0	
0.8953	5.25737	-0.0759661	0	
0.8960	4.3386	0.531763	0	
0.8967	1.91409	-1.59529	0	
0.8973	-2.67973	-3.76032	0	
0.8980	-3.29223	-3.76032	0	
0.8987	-2.98598	-1.29142	0	
0.8993	-6.023	0.835627	0	
0.9000	-7.55427	0.835627	0	
0.9007	-5.10424	-0.0759661	0	
0.9013	-4.82351	-1.89915	0	
0.9020	-6.63551	-3.45646	0	
0.9027	-5.71675	-1.89915	0	
0.9033	-3.59849	0.835627	0	
0.9040	-2.06722	0.835627	0	
0.9047	-1.14845	0.835627	0	
0.9053	-2.06722	2.96268	0	
0.9060	-2.98598	3.57041	0	
0.9067	-2.06722	1.74722	0	
0.9073	0.689072	0.835627	0	
0.9080	5.56362	0.531763	0	
0.9087	12.5819	-0.0759661	0	
0.9093	16.257	-0.379831	0	
0.9100	15.9507	-0.0759661	0	
0.9107	17.4565	0.531763	0	
0.9113	19.294	1.74722	0	
0.9120	20.2128	-0.0759661	0	
0.9127	22.3566	-2.84873	0	
0.9133	21.1316	-2.84873	0	
0.9140	13.1945	-1.89915	0	
0.9147	6.17613	-3.15259	0	
0.9153	2.50108	-3.76032	0	
0.9160	-1.45471	-3.15259	0	
0.9167	-6.023	-4.97578	0	
0.9173	-11.5356	-5.88737	0	
0.9180	-18.2477	-1.89915	0	
0.9187	-19.4472	1.13949	0	
0.9193	-17.0226	-0.98756	0	
0.9200	-17.3289	-0.98756	0	
0.9207	-17.3289	2.65881	0	
0.9213	-16.4101	2.65881	0	
0.9220	-17.0226	0.227898	0	
0.9227	-13.3476	1.74722	0	
0.9233	-8.16678	5.3936	0	
0.9240	-7.55427	4.78587	0	
0.9247	-6.63551	3.57041	0	
0.9253	-4.82351	4.17814	0	
0.9260	-5.71675	4.17814	0	
0.9267	-2.06722	1.74722	0	
0.9273	6.17613	1.44336	0	
0.9280	7.09489	2.05109	0	
0.9287	4.03235	-0.0759661	0	
0.9293	5.86988	-2.50688	0	
0.9300	8.01366	-0.98756	0	
0.9307	8.01366	-0.0759661	0	
0.9313	8.31991	-1.89915	0	
0.9320	7.09489	-1.59529	0	
0.9327	4.3386	-0.683695	0	
0.9333	2.50108	-1.89915	0	
0.9340	0.689072	-1.59529	0	
0.9347	-2.98598	-0.0759661	0	
0.9353	-3.59849	-0.0759661	0	
0.9360	-1.76096	-1.89915	0	
0.9367	-1.14845	-1.89915	0	
0.9373	-1.76096	0.227898	0	
0.9380	-1.14845	1.13949	0	
0.9387	-1.14845	-2.84873	0	
0.9393	-1.14845	-4.36805	0	
0.9400	0.0765636	-1.29142	0	
0.9407	0.0765636	-0.98756	0	
0.9413	-1.14845	-2.84873	0	
0.9420	0.382818	-1.89915	0	
0.9427	1.91409	-0.0759661	0	
0.9433	-0.229691	-0.0759661	0	
0.9440	-0.229691	-0.0759661	0	
0.9447	3.72609	-1.59529	0	
0.9453	5.25737	-2.84873	0	
0.9460	3.41984	-1.29142	0	
0.9467	2.50108	0.531763	0	
0.9473	0.689072	-0.0759661	0	
0.9480	-2.06722	-1.89915	0	
0.9487	-1.14845	-3.15259	0	
0.9493	1.30158	-3.45646	0	
0.9500	1.60784	-2.50688	0	
0.9507	3.72609	-1.89915	0	
0.9513	6.48238	-0.98756	0	
0.9520	7.09489	-1.59529	0	
0.9527	8.93242	-1.89915	0	
0.9533	12.5819	-0.98756	0	
0.9540	13.1945	-0.98756	0	
0.9547	11.6632	-1.89915	0	
0.9553	10.4382	-1.59529	0	
0.9560	7.09489	-0.379831	0	
0.9567	1.60784	-1.59529	0	
0.9573	-2.67973	-3.45646	0	
0.9580	-5.71675	-2.20302	0	
0.9587	-8.77929	0.835627	0	
0.9593	-10.6168	-0.0759661	0	
0.9600	-13.0413	-2.50688	0	
0.9607	-15.7976	-2.84873	0	
0.9613	-12.1481	-2.20302	0	
0.9620	-4.82351	-2.50688	0	
0.9627	-2.67973	-0.98756	0	
0.9633	-3.90474	-0.683695	0	
0.9640	-0.535945	-2.84873	0	
0.9647	1.60784	-2.84873	0	
0.9653	-0.229691	0.835627	0	
0.9660	0.689072	2.35495	0	
0.9667	4.3386	1.13949	0	
0.9673	3.41984	-0.0759661	0	
0.9680	-0.229691	0.531763	0	
0.9687	0.0765636	1.13949	0	
0.9693	0.689072	1.44336	0	
0.9700	-1.14845	1.74722	0	
0.9707	-0.229691	1.44336	0	
0.9713	1.60784	-0.379831	0	
0.9720	-0.229691	-0.0759661	0	
0.9727	-2.06722	1.13949	0	
0.9733	-1.45471	-0.98756	0	
0.9740	-2.06722	-2.84873	0	
0.9747	-2.06722	-1.29142	0	
0.9753	-0.229691	-0.98756	0	
0.9760	0.382818	-1.59529	0	
0.9767	-1.76096	-0.683695	0	
0.9773	-2.06722	-1.59529	0	
0.9780	-2.67973	-1.89915	0	
0.9787	-4.82351	1.44336	0	
0.9793	-5.71675	2.35495	0	
0.9800	-4.82351	-0.379831	0	
0.9807	-4.82351	-0.98756	0	
0.9813	-6.32926	-0.683695	0	
0.9820	-9.08555	-1.89915	0	
0.9827	-11.5356	-0.98756	0	
0.9833	-10.6168	2.35495	0	
0.9840	-6.63551	3.87427	0	
0.9847	-2.98598	2.96268	0	
0.9853	-0.842199	1.13949	0	
0.9860	-0.229691	0.835627	0	
0.9867	1.60784	1.44336	0	
0.9873	4.64486	-0.98756	0	
0.9880	8.31991	-2.84873	0	
0.9887	10.1319	-0.98756	0	
0.9893	9.23867	2.05109	0	
0.9900	8.31991	0.531763	0	
0.9907	8.93242	-2.20302	0	
0.9913	7.09489	-0.98756	0	
0.9920	4.3386	0.227898	0	
0.9927	4.64486	-1.89915	0	
0.9933	5.25737	-3.45646	0	
0.9940	2.50108	-1.59529	0	
0.9947	0.689072	-0.683695	0	
0.9953	0.689072	-1.89915	0	
0.9960	-1.76096	-2.84873	0	
0.9967	-1.76096	-3.45646	0	
0.9973	0.689072	-2.50688	0	
0.9980	-1.14845	-0.683695	0	
0.9987	-3.59849	-0.98756	0	
0.9993	-0.842199	-1.29142	0	
1.0000	2.50108	-0.98756	0	
1.0007	2.50108	-1.29142	0	
1.0013	0.689072	-1.59529	0	
1.0020	-1.14845	-0.98756	0	
1.0027	-2.06722	-1.59529	0	
1.0033	-0.842199	-1.89915	0	
1.0040	-0.535945	-0.0759661	0	
1.0047	-2.06722	1.74722	0	
1.0053	-0.229691	1.44336	0	
1.0060	2.50108	1.44336	0	
1.0067	4.64486	3.26654	0	
1.0073	9.82566	4.17814	0	
1.0080	15.032	2.65881	0	
1.0087	15.032	0.835627	0	
1.0093	13.5007	-1.89915	0	
1.0100	12.8882	-3.76032	0	
1.0107	9.51941	-2.50688	0	
1.0113	7.09489	-0.98756	0	
1.0120	6.78864	-1.89915	0	
1.0127	0.995327	-0.98756	0	
1.0133	-7.86053	0.835627	0	
1.0140	-8.77929	-0.98756	0	
1.0147	-4.211	-1.89915	0	
1.0153	-5.41049	1.44336	0	
1.0160	-10.3106	2.35495	0	
1.0167	-13.0413	2.05109	0	
1.0173	-14.5726	3.57041	0	
1.0180	-14.2663	3.57041	0	
1.0187	-11.5356	3.26654	0	
1.0193	-10.3106	4.78587	0	
1.0200	-11.5356	3.57041	0	
1.0207	-10.3106	1.44336	0	
1.0213	-5.71675	2.96268	0	
1.0220	-2.06722	4.17814	0	
1.0227	2.50108	2.35495	0	
1.0233	8.31991	0.227898	0	
1.0240	10.7444	-0.0759661	0	
1.0247	8.93242	-0.379831	0	
1.0253	7.7074	-0.0759661	0	
1.0260	8.01366	0.835627	0	
1.0267	8.01366	0.835627	0	
1.0273	4.64486	-0.683695	0	
1.0280	1.60784	-1.29142	0	
1.0287	1.60784	0.531763	0	
1.0293	0.0765636	0.835627	0	
1.0300	-2.98598	-1.59529	0	
1.0307	-1.76096	-1.89915	0	
1.0313	-0.229691	-0.379831	0	
1.0320	-6.023	2.05109	0	
1.0327	-11.5356	2.65881	0	
1.0333	-10.6168	1.13949	0	
1.0340	-10.3106	1.13949	0	
1.0347	-13.6538	2.65881	0	
1.0353	-17.0226	0.835627	0	
1.0360	-17.3289	-0.98756	0	
1.0367	-14.5726	0.835627	0	
1.0373	-11.2293	1.13949	0	
1.0380	-8.77929	-0.98756	0	
1.0387	-5.10424	-0.683695	0	
1.0393	-3.90474	0.835627	0	
1.0400	-4.82351	-0.0759661	0	
1.0407	-2.98598	-1.89915	0	
1.0413	0.0765636	-3.15259	0	
1.0420	1.91409	-1.89915	0	
1.0427	3.72609	-0.0759661	0	
1.0433	4.3386	-0.683695	0	
1.0440	1.30158	-0.98756	0	
1.0447	-0.842199	0.835627	0	
1.0453	-0.229691	1.74722	0	
1.0460	0.382818	1.44336	0	
1.0467	1.30158	1.74722	0	
1.0473	1.60784	0.835627	0	
1.0480	0.689072	-0.98756	0	
1.0487	0.382818	0.835627	0	
1.0493	1.30158	3.26654	0	
1.0500	1.60784	1.44336	0	
1.0507	2.50108	0.227898	0	
1.0513	4.03235	2.35495	0	
1.0520	2.80733	2.65881	0	
1.0527	2.50108	-0.683695	0	
1.0533	5.56362	-1.89915	0	
1.0540	7.09489	-1.29142	0	
1.0547	5.86988	-2.50688	0	
1.0553	3.41984	-2.84873	0	
1.0560	2.50108	-2.84873	0	
1.0567	5.25737	-4.36805	0	
1.0573	8.93242	-4.67192	0	
1.0580	9.82566	-3.45646	0	
1.0587	9.23867	-2.84873	0	
1.0593	9.82566	-3.45646	0	
1.0600	10.7444	-3.15259	0	
1.0607	10.4382	-4.67192	0	
1.0613	11.6632	-6.4951	0	
1.0620	11.6632	-3.76032	0	
1.0627	7.09489	-1.89915	0	
1.0633	3.11359	-3.45646	0	
1.0640	2.50108	-3.45646	0	
1.0647	0.689072	-1.89915	0	
1.0653	-2.98598	-1.89915	0	
1.0660	-6.023	-0.683695	0	
1.0667	-8.47304	3.57041	0	
1.0673	-10.6168	5.3936	0	
1.0680	-13.6538	4.482	0	
1.0687	-16.7164	4.482	0	
1.0693	-15.7976	3.57041	0	
1.0700	-11.8418	1.74722	0	
1.0707	-10.6168	1.44336	0	
1.0713	-9.69805	2.35495	0	
1.0720	-8.47304	2.05109	0	
1.0727	-9.3918	2.65881	0	
1.0733	-9.69805	4.482	0	
1.0740	-6.94177	2.65881	0	
1.0747	-5.71675	-1.89915	0	
1.0753	-5.41049	-1.89915	0	
1.0760	-2.37347	2.65881	0	
1.0767	0.0765636	3.57041	0	
1.0773	1.91409	1.13949	0	
1.0780	4.3386	0.835627	0	
1.0787	5.86988	3.57041	0	
1.0793	7.09489	4.482	0	
1.0800	9.23867	3.87427	0	
1.0807	9.82566	2.35495	0	
1.0813	8.01366	-0.0759661	0	
1.0820	7.09489	-0.379831	0	
1.0827	7.40115	0.227898	0	
1.0833	9.23867	-1.59529	0	
1.0840	10.1319	-2.84873	0	
1.0847	7.40115	-0.0759661	0	
1.0853	4.95111	0.835627	0	
1.0860	4.95111	-1.29142	0	
1.0867	4.95111	0.531763	0	
1.0873	5.56362	3.57041	0	
1.0880	5.56362	1.13949	0	
1.0887	1.60784	-2.84873	0	
1.0893	-2.98598	-0.683695	0	
1.0900	-3.90474	1.74722	0	
1.0907	-7.24802	0.227898	0	
1.0913	-12.7351	-0.0759661	0	
1.0920	-15.4914	2.65881	0	
1.0927	-15.7976	4.482	0	
1.0933	-15.7976	3.57041	0	
1.0940	-13.6538	2.96268	0	
1.0947	-12.7351	2.65881	0	
1.0953	-12.7351	2.65881	0	
1.0960	-9.69805	1.74722	0	
1.0967	-6.63551	0.227898	0	
1.0973	-6.63551	0.531763	0	
1.0980	-3.29223	2.35495	0	
1.0987	1.91409	1.44336	0	
1.0993	1.60784	-0.0759661	0	
1.1000	-0.229691	-0.683695	0	
1.1007	2.50108	-1.89915	0	
1.1013	2.50108	-3.76032	0	
1.1020	0.382818	-2.50688	0	
1.1027	3.41984	-1.29142	0	
1.1033	7.09489	-0.98756	0	
1.1040	6.17613	0.227898	0	
1.1047	6.48238	-0.0759661	0	
1.1053	7.7074	-1.89915	0	
1.1060	5.25737	-1.29142	0	
1.1067	2.50108	-0.0759661	0	
1.1073	3.41984	-0.0759661	0	
1.1080	6.17613	-0.379831	0	
1.1087	8.93242	-0.0759661	0	
1.1093	9.51941	0.531763	0	
1.1100	8.01366	-0.0759661	0	
1.1107	6.17613	-0.0759661	0	
1.1113	4.3386	0.835627	0	
1.1120	3.11359	1.13949	0	
1.1127	0.0765636	0.227898	0	
1.1133	-6.32926	0.531763	0	
1.1140	-10.0043	0.227898	0	
1.1147	-8.16678	-0.0759661	0	
1.1153	-5.71675	1.44336	0	
1.1160	-4.211	0.835627	0	
1.1167	-3.90474	-1.59529	0	
1.1173	-2.98598	-0.0759661	0	
1.1180	2.22034	-0.0759661	0	
1.1187	8.62616	-4.97578	0	
1.1193	10.4382	-6.4951	0	
1.1200	10.1319	-4.67192	0	
1.1207	11.3569	-5.58351	0	
1.1213	8.93242	-5.27965	0	
1.1220	5.56362	-3.76032	0	
1.1227	5.56362	-5.58351	0	
1.1233	4.3386	-6.4951	0	
1.1240	1.91409	-3.76032	0	
1.1247	1.60784	-3.15259	0	
1.1253	-2.98598	-3.76032	0	
1.1260	-9.3918	-1.29142	0	
1.1267	-10.6168	1.13949	0	
1.1273	-9.69805	2.05109	0	
1.1280	-11.5356	3.57041	0	
1.1287	-11.8418	3.26654	0	
1.1293	-11.5356	1.13949	0	
1.1300	-14.2663	0.835627	0	
1.1307	-13.6538	3.57041	0	
1.1313	-7.55427	5.3936	0	
1.1320	-2.98598	5.3936	0	
1.1327	-2.67973	2.96268	0	
1.1333	-2.06722	1.74722	0	
1.1340	-0.842199	3.57041	0	
1.1347	-1.14845	4.78587	0	
1.1353	-1.14845	3.87427	0	
1.1360	2.22034	3.57041	0	
1.1367	4.64486	3.57041	0	
1.1373	4.64486	1.44336	0	
1.1380	6.17613	-2.84873	0	
1.1387	8.01366	-4.36805	0	
1.1393	3.41984	-1.29142	0	
1.1400	0.689072	-0.0759661	0	
1.1407	3.72609	-3.15259	0	
1.1413	4.3386	-3.76032	0	
1.1420	0.382818	0.835627	0	
1.1427	-2.98598	2.65881	0	
1.1433	-6.32926	2.65881	0	
1.1440	-9.3918	5.3936	0	
1.1447	-7.55427	6.64704	0	
1.1453	-4.211	3.26654	0	
1.1460	-5.10424	0.835627	0	
1.1467	-6.023	1.74722	0	
1.1473	-4.51725	1.13949	0	
1.1480	-4.211	0.531763	0	
1.1487	-6.32926	0.835627	0	
1.1493	-6.63551	1.74722	0	
1.1500	-2.98598	1.13949	0	
1.1507	-0.842199	0.835627	0	
1.1513	-1.14845	2.35495	0	
1.1520	1.60784	3.57041	0	
1.1527	5.25737	0.835627	0	
1.1533	4.64486	-0.98756	0	
1.1540	4.64486	-0.0759661	0	
1.1547	6.78864	-0.379831	0	
1.1553	5.25737	-3.45646	0	
1.1560	4.03235	-3.76032	0	
1.1567	7.09489	-0.98756	0	
1.1573	8.62616	0.835627	0	
1.1580	7.09489	1.44336	0	
1.1587	8.01366	-0.0759661	0	
1.1593	7.09489	-2.50688	0	
1.1600	3.11359	-2.84873	0	
1.1607	0.382818	-1.89915	0	
1.1613	-1.14845	-2.20302	0	
1.1620	-3.90474	-0.0759661	0	
1.1627	-7.86053	2.05109	0	
1.1633	-9.08555	0.835627	0	
1.1640	-8.16678	0.835627	0	
1.1647	-8.47304	2.96268	0	
1.1653	-10.9231	3.26654	0	
1.1660	-10.3106	5.3936	0	
1.1667	-7.86053	8.77409	0	
1.1673	-8.16678	5.3936	0	
1.1680	-8.47304	0.835627	0	
1.1687	-4.82351	1.44336	0	
1.1693	0.382818	1.74722	0	
1.1700	5.25737	0.835627	0	
1.1707	8.31991	1.74722	0	
1.1713	8.93242	1.74722	0	
1.1720	9.51941	-0.0759661	0	
1.1727	10.4382	0.227898	0	
1.1733	9.51941	1.13949	0	
1.1740	8.62616	-0.0759661	0	
1.1747	8.62616	-1.29142	0	
1.1753	8.62616	-1.29142	0	
1.1760	8.31991	-0.379831	0	
1.1767	5.25737	-0.379831	0	
1.1773	0.0765636	-2.20302	0	
1.1780	0.689072	-2.84873	0	
1.1787	5.25737	-1.89915	0	
1.1793	3.72609	-2.20302	0	
1.1800	-2.67973	-0.98756	0	
1.1807	-7.55427	0.835627	0	
1.1813	-9.3918	0.835627	0	
1.1820	-6.94177	-0.0759661	0	
1.1827	-3.90474	-0.683695	0	
1.1833	-4.82351	-1.89915	0	
1.1840	-7.86053	-1.89915	0	
1.1847	-8.77929	-0.683695	0	
1.1853	-7.55427	-0.98756	0	
1.1860	-3.90474	-0.683695	0	
1.1867	-0.842199	1.74722	0	
1.1873	-1.14845	2.96268	0	
1.1880	-1.45471	0.835627	0	
1.1887	-0.229691	-2.84873	0	
1.1893	-0.229691	-3.76032	0	
1.1900	-1.14845	-2.20302	0	
1.1907	-1.45471	-1.29142	0	
1.1913	-2.06722	-1.89915	0	
1.1920	-1.76096	-0.98756	0	
1.1927	-1.45471	0.835627	0	
1.1933	-2.06722	1.74722	0	
1.1940	-0.535945	1.74722	0	
1.1947	0.995327	1.13949	0	
1.1953	0.689072	1.13949	0	
1.1960	1.60784	0.227898	0	
1.1967	5.25737	-1.59529	0	
1.1973	7.7074	-2.84873	0	
1.1980	8.62616	-2.50688	0	
1.1987	7.40115	-0.98756	0	
1.1993	4.03235	-0.0759661	0	
1.2000	1.60784	-0.0759661	0	
1.2007	-0.229691	0.227898	0	
1.2013	-3.29223	2.35495	0	
1.2020	-2.98598	2.05109	0	
1.2027	-0.229691	-0.379831	0	
1.2033	-2.67973	0.227898	0	
1.2040	-9.69805	3.26654	0	
1.2047	-11.8418	2.05109	0	
1.2053	-8.77929	-1.29142	0	
1.2060	-7.55427	-0.683695	0	
1.2067	-9.3918	2.96268	0	
1.2073	-8.47304	3.87427	0	
1.2080	-4.51725	1.44336	0	
1.2087	0.382818	-0.379831	0	
1.2093	4.03235	-0.98756	0	
1.2100	6.17613	-1.89915	0	
1.2107	6.78864	-1.29142	0	
1.2113	6.48238	0.835627	0	
1.2120	7.09489	-0.379831	0	
1.2127	7.40115	-3.45646	0	
1.2133	7.09489	-1.89915	0	
1.2140	6.48238	0.835627	0	
1.2147	5.25737	-0.0759661	0	
1.2153	0.689072	-1.59529	0	
1.2160	-3.29223	-1.29142	0	
1.2167	-3.29223	-1.89915	0	
1.2173	-4.82351	-3.45646	0	
1.2180	-7.24802	-2.84873	0	
1.2187	-7.24802	-0.683695	0	
1.2193	-7.86053	-0.683695	0	
1.2200	-7.55427	-0.98756	0	
1.2207	-6.32926	-0.98756	0	
1.2213	-8.47304	-1.89915	0	
1.2220	-10.0043	-1.89915	0	
1.2227	-5.71675	0.531763	0	
1.2233	-2.98598	1.13949	0	
1.2240	-1.14845	0.835627	0	
1.2247	4.64486	2.05109	0	
1.2253	9.23867	1.74722	0	
1.2260	12.5819	-0.0759661	0	
1.2267	18.069	-0.98756	0	
1.2273	17.7628	-3.15259	0	
1.2280	12.5819	-5.58351	0	
1.2287	13.807	-3.76032	0	
1.2293	17.1502	-2.84873	0	
1.2300	16.844	-6.4951	0	
1.2307	15.3382	-6.4951	0	
1.2313	11.0507	-3.15259	0	
1.2320	7.09489	-4.36805	0	
1.2327	7.40115	-5.88737	0	
1.2333	6.17613	-3.76032	0	
1.2340	0.995327	-1.59529	0	
1.2347	-2.98598	-0.98756	0	
1.2353	-7.24802	-0.379831	0	
1.2360	-12.7351	-1.89915	0	
1.2367	-12.4288	-1.29142	0	
1.2373	-9.3918	2.35495	0	
1.2380	-12.4288	2.35495	0	
1.2387	-17.3289	-0.0759661	0	
1.2393	-17.3289	2.05109	0	
1.2400	-14.5726	2.65881	0	
1.2407	-11.2293	-1.29142	0	
1.2413	-6.94177	-2.84873	0	
1.2420	-3.59849	-1.29142	0	
1.2427	-1.45471	-2.84873	0	
1.2433	0.382818	-3.45646	0	
1.2440	2.50108	-2.50688	0	
1.2447	4.3386	-1.89915	0	
1.2453	5.86988	-0.379831	0	
1.2460	4.03235	0.531763	0	
1.2467	0.689072	-1.89915	0	
1.2473	-0.229691	-0.98756	0	
1.2480	-1.14845	2.35495	0	
1.2487	-3.29223	0.227898	0	
1.2493	-3.90474	-0.98756	0	
1.2500	-3.90474	2.65881	0	
1.2507	-4.82351	3.57041	0	
1.2513	-6.023	0.531763	0	
1.2520	-6.023	0.227898	0	
1.2527	-3.59849	-0.0759661	0	
1.2533	-0.535945	-2.20302	0	
1.2540	-2.06722	-1.89915	0	
1.2547	-2.98598	1.44336	0	
1.2553	0.382818	0.835627	0	
1.2560	3.41984	-2.84873	0	
1.2567	4.3386	-4.67192	0	
1.2573	5.25737	-2.84873	0	
1.2580	4.3386	0.531763	0	
1.2587	3.41984	2.35495	0	
1.2593	3.11359	2.35495	0	
1.2600	0.689072	0.531763	0	
1.2607	-1.45471	-1.59529	0	
1.2613	0.382818	-0.98756	0	
1.2620	-0.842199	-0.683695	0	
1.2627	-4.211	-2.84873	0	
1.2633	-2.67973	-3.45646	0	
1.2640	-0.842199	-0.98756	0	
1.2647	-2.67973	1.13949	0	
1.2653	-3.90474	1.74722	0	
1.2660	-2.67973	2.05109	0	
1.2667	-2.06722	1.44336	0	
1.2673	-0.229691	1.74722	0	
1.2680	1.91409	2.05109	0	
1.2687	-0.842199	1.13949	0	
1.2693	-6.32926	0.835627	0	
1.2700	-6.023	0.835627	0	
1.2707	-2.06722	0.531763	0	
1.2713	-1.45471	0.835627	0	
1.2720	-4.82351	2.35495	0	
1.2727	-5.41049	1.74722	0	
1.2733	-2.06722	1.13949	0	
1.2740	0.382818	1.74722	0	
1.2747	-0.229691	-0.0759661	0	
1.2753	-2.06722	-2.84873	0	
1.2760	-1.14845	-3.76032	0	
1.2767	1.60784	-5.27965	0	
1.2773	4.95111	-5.58351	0	
1.2780	7.40115	-2.84873	0	
1.2787	7.7074	-2.84873	0	
1.2793	7.7074	-5.58351	0	
1.2800	11.3569	-4.36805	0	
1.2807	14.7257	-1.29142	0	
1.2813	13.5007	-0.98756	0	
1.2820	9.82566	-1.59529	0	
1.2827	8.01366	-2.20302	0	
1.2833	11.3569	-3.76032	0	
1.2840	18.069	-4.36805	0	
1.2847	19.294	-3.76032	0	
1.2853	13.5007	-4.67192	0	
1.2860	9.23867	-4.67192	0	
1.2867	8.93242	-1.59529	0	
1.2873	5.56362	-1.29142	0	
1.2880	3.41984	-3.76032	0	
1.2887	3.72609	-1.89915	0	
1.2893	0.995327	-0.0759661	0	
1.2900	-4.82351	-2.20302	0	
1.2907	-8.16678	-0.98756	0	
1.2913	-10.3106	2.05109	0	
1.2920	-12.1481	-0.98756	0	
1.2927	-11.5356	-3.76032	0	
1.2933	-11.5356	-0.0759661	0	
1.2940	-13.9601	1.13949	0	
1.2947	-15.7976	-1.89915	0	
1.2953	-15.7976	-1.59529	0	
1.2960	-14.5726	1.13949	0	
1.2967	-12.4288	0.227898	0	
1.2973	-11.8418	-2.84873	0	
1.2980	-11.8418	-2.84873	0	
1.2987	-10.0043	-0.0759661	0	
1.2993	-6.94177	-0.379831	0	
1.3000	-2.98598	-2.84873	0	
1.3007	0.995327	-2.84873	0	
1.3013	1.60784	-3.76032	0	
1.3020	1.91409	-4.67192	0	
1.3027	3.41984	-2.84873	0	
1.3033	2.22034	-0.379831	0	
1.3040	-1.14845	-0.0759661	0	
1.3047	0.382818	0.531763	0	
1.3053	3.11359	-0.0759661	0	
1.3060	4.3386	-0.98756	0	
1.3067	6.17613	0.531763	0	
1.3073	5.25737	1.13949	0	
1.3080	1.60784	0.227898	0	
1.3087	1.30158	1.74722	0	
1.3093	5.56362	2.65881	0	
1.3100	7.09489	-0.0759661	0	
1.3107	5.25737	-1.59529	0	
1.3113	5.56362	-0.98756	0	
1.3120	7.7074	-0.379831	0	
1.3127	10.1319	0.531763	0	
1.3133	11.9694	1.44336	0	
1.3140	10.4382	0.835627	0	
1.3147	4.95111	0.227898	0	
1.3153	1.60784	0.227898	0	
1.3160	2.50108	-0.98756	0	
1.3167	1.60784	-1.29142	0	
1.3173	-2.67973	0.835627	0	
1.3180	-3.59849	1.74722	0	
1.3187	-0.842199	0.227898	0	
1.3193	-0.842199	0.835627	0	
1.3200	-4.51725	1.74722	0	
1.3207	-9.08555	1.13949	0	
1.3213	-11.2293	1.74722	0	
1.3220	-9.08555	1.13949	0	
1.3227	-6.94177	-1.59529	0	
1.3233	-8.47304	-1.29142	0	
1.3240	-9.3918	0.835627	0	
1.3247	-10.3106	1.13949	0	
1.3253	-11.5356	3.87427	0	
1.3260	-11.5356	5.08973	0	
1.3267	-10.6168	-0.0759661	0	
1.3273	-10.0043	-0.683695	0	
1.3280	-7.55427	4.17814	0	
1.3287	-5.71675	2.65881	0	
1.3293	-3.59849	-2.20302	0	
1.3300	0.689072	-1.89915	0	
1.3307	4.64486	-0.0759661	0	
1.3313	6.48238	-0.0759661	0	
1.3320	7.40115	-0.379831	0	
1.3327	5.56362	-2.50688	0	
1.3333	2.50108	-3.45646	0	
1.3340	1.30158	-1.59529	0	
1.3347	0.689072	-1.89915	0	
1.3353	0.382818	-3.76032	0	
1.3360	3.41984	-3.76032	0	
1.3367	7.40115	-4.67192	0	
1.3373	8.93242	-5.58351	0	
1.3380	10.7444	-4.97578	0	
1.3387	11.3569	-4.67192	0	
1.3393	7.40115	-4.67192	0	
1.3400	4.95111	-3.45646	0	
1.3407	5.56362	-2.20302	0	
1.3413	2.80733	-1.89915	0	
1.3420	-1.14845	-2.20302	0	
1.3427	-1.14845	-2.84873	0	
1.3433	-1.14845	-2.50688	0	
1.3440	-4.51725	-2.20302	0	
1.3447	-6.63551	-1.89915	0	
1.3453	-4.82351	-0.683695	0	
1.3460	0.0765636	0.227898	0	
1.3467	4.3386	-0.0759661	0	
1.3473	5.56362	0.531763	0	
1.3480	4.95111	0.835627	0	
1.3487	3.41984	-0.98756	0	
1.3493	1.91409	-2.84873	0	
1.3500	0.689072	-1.59529	0	
1.3507	0.382818	-0.0759661	0	
1.3513	-0.842199	-0.98756	0	
1.3520	-1.76096	-1.59529	0	
1.3527	-2.06722	-0.98756	0	
1.3533	-2.06722	-2.20302	0	
1.3540	-1.14845	-4.67192	0	
1.3547	2.22034	-5.58351	0	
1.3553	3.41984	-3.76032	0	
1.3560	1.60784	-2.84873	0	
1.3567	-1.14845	-5.88737	0	
1.3573	-2.06722	-8.31829	0	
1.3580	-0.229691	-6.4951	0	
1.3587	0.689072	-3.76032	0	
1.3593	0.689072	-2.84873	0	
1.3600	1.60784	-1.59529	0	
1.3607	2.50108	-0.683695	0	
1.3613	2.50108	-2.50688	0	
1.3620	4.3386	-3.76032	0	
1.3627	6.17613	-1.89915	0	
1.3633	3.41984	0.835627	0	
1.3640	-0.842199	2.35495	0	
1.3647	-3.29223	3.26654	0	
1.3653	-5.71675	4.482	0	
1.3660	-8.47304	6.34317	0	
1.3667	-9.3918	7.25477	0	
1.3673	-8.16678	5.3936	0	
1.3680	-6.023	1.74722	0	
1.3687	-2.98598	-0.379831	0	
1.3693	-0.229691	0.835627	0	
1.3700	0.995327	1.74722	0	
1.3707	1.60784	0.835627	0	
1.3713	4.03235	1.13949	0	
1.3720	6.78864	1.74722	0	
1.3727	8.01366	-0.379831	0	
1.3733	10.7444	-1.89915	0	
1.3740	12.5819	-2.20302	0	
1.3747	13.5007	-5.58351	0	
1.3753	15.6445	-6.4951	0	
1.3760	17.4565	-2.20302	0	
1.3767	16.257	-1.89915	0	
1.3773	15.9507	-4.67192	0	
1.3780	12.5819	-1.89915	0	
1.3787	2.50108	1.74722	0	
1.3793	-3.90474	-0.98756	0	
1.3800	-7.86053	-3.15259	0	
1.3807	-15.4914	-0.98756	0	
1.3813	-20.9784	-0.0759661	0	
1.3820	-21.2847	-1.29142	0	
1.3827	-23.1222	-0.0759661	0	
1.3833	-24.9597	0.531763	0	
1.3840	-23.7347	0.835627	0	
1.3847	-24.041	3.26654	0	
1.3853	-24.9597	4.17814	0	
1.3860	-22.8159	2.05109	0	
1.3867	-17.9414	2.65881	0	
1.3873	-11.5356	4.482	0	
1.3880	-5.71675	2.96268	0	
1.3887	-3.90474	2.05109	0	
1.3893	-0.842199	3.57041	0	
1.3900	4.64486	2.65881	0	
1.3907	8.01366	-0.379831	0	
1.3913	9.23867	-0.379831	0	
1.3920	11.3569	-0.379831	0	
1.3927	9.82566	-2.84873	0	
1.3933	7.40115	-4.36805	0	
1.3940	8.93242	-2.84873	0	
1.3947	8.93242	-0.98756	0	
1.3953	3.41984	-1.59529	0	
1.3960	0.995327	-3.76032	0	
1.3967	1.30158	-3.15259	0	
1.3973	-2.37347	-0.98756	0	
1.3980	-5.71675	-0.0759661	0	
1.3987	-4.82351	-0.0759661	0	
1.3993	-4.82351	-0.379831	0	
1.4000	-4.51725	-0.683695	0	
1.4007	-1.45471	0.835627	0	
1.4013	0.689072	2.35495	0	
1.4020	2.22034	0.835627	0	
1.4027	5.25737	0.227898	0	
1.4033	7.09489	3.57041	0	
1.4040	5.25737	5.69746	0	
1.4047	4.03235	2.65881	0	
1.4053	2.50108	2.65881	0	
1.4060	-0.842199	6.34317	0	
1.4067	-2.06722	6.34317	0	
1.4073	-0.229691	3.57041	0	
1.4080	1.60784	4.17814	0	
1.4087	1.30158	4.482	0	
1.4093	1.30158	2.35495	0	
1.4100	4.3386	0.835627	0	
1.4107	9.51941	0.531763	0	
1.4113	10.1319	0.227898	0	
1.4120	8.01366	0.227898	0	
1.4127	6.17613	-0.683695	0	
1.4133	3.72609	-1.89915	0	
1.4140	1.60784	-1.59529	0	
1.4147	0.995327	-2.84873	0	
1.4153	-0.229691	-3.45646	0	
1.4160	-3.59849	2.05109	0	
1.4167	-4.82351	4.482	0	
1.4173	-3.90474	0.531763	0	
1.4180	-2.37347	-0.98756	0	
1.4187	-0.229691	1.13949	0	
1.4193	-0.229691	0.531763	0	
1.4200	-4.51725	0.227898	0	
1.4207	-6.32926	1.44336	0	
1.4213	-5.71675	0.835627	0	
1.4220	-6.63551	0.531763	0	
1.4227	-5.10424	2.05109	0	
1.4233	-2.98598	3.57041	0	
1.4240	-4.211	4.482	0	
1.4247	-4.82351	3.26654	0	
1.4253	-0.229691	0.835627	0	
1.4260	3.72609	0.531763	0	
1.4267	3.72609	0.835627	0	
1.4273	3.72609	-0.683695	0	
1.4280	3.41984	-0.0759661	0	
1.4287	3.41984	1.44336	0	
1.4293	4.03235	0.531763	0	
1.4300	3.41984	-1.89915	0	
1.4307	2.50108	-3.45646	0	
1.4313	2.80733	-3.76032	0	
1.4320	3.41984	-1.59529	0	
1.4327	3.72609	-0.98756	0	
1.4333	6.48238	-2.84873	0	
1.4340	9.23867	-2.84873	0	
1.4347	8.31991	-0.683695	0	
1.4353	8.93242	-1.89915	0	
1.4360	12.2757	-2.84873	0	
1.4367	11.6632	-0.379831	0	
1.4373	9.82566	-0.98756	0	
1.4380	11.0507	-4.36805	0	
1.4387	10.7444	-4.06419	0	
1.4393	6.17613	-1.59529	0	
1.4400	3.11359	-1.29142	0	
1.4407	2.22034	-1.89915	0	
1.4413	-2.06722	-2.20302	0	
1.4420	-4.211	-2.50688	0	
1.4427	-2.06722	-1.89915	0	
1.4433	-2.67973	-1.29142	0	
1.4440	-7.55427	-0.379831	0	
1.4447	-11.5356	0.835627	0	
1.4453	-13.6538	0.835627	0	
1.4460	-15.4914	-0.0759661	0	
1.4467	-17.3289	2.05109	0	
1.4473	-17.9414	6.34317	0	
1.4480	-16.7164	6.9509	0	
1.4487	-13.0413	5.69746	0	
1.4493	-9.3918	5.3936	0	
1.4500	-4.82351	3.57041	0	
1.4507	0.0765636	0.835627	0	
1.4513	1.60784	0.835627	0	
1.4520	2.50108	1.74722	0	
1.4527	5.56362	1.74722	0	
1.4533	9.51941	1.13949	0	
1.4540	10.7444	0.531763	0	
1.4547	10.7444	-1.29142	0	
1.4553	10.1319	-3.15259	0	
1.4560	8.62616	-2.50688	0	
1.4567	5.25737	-0.379831	0	
1.4573	0.689072	-0.683695	0	
1.4580	-3.90474	-1.59529	0	
1.4587	-6.32926	-0.0759661	0	
1.4593	-6.94177	0.835627	0	
1.4600	-6.63551	0.835627	0	
1.4607	-9.3918	2.65881	0	
1.4613	-15.1851	2.65881	0	
1.4620	-18.8602	-0.98756	0	
1.4627	-17.6351	0.227898	0	
1.4633	-16.7164	4.17814	0	
1.4640	-16.1039	2.65881	0	
1.4647	-12.7351	-0.0759661	0	
1.4653	-8.16678	0.531763	0	
1.4660	-3.90474	0.835627	0	
1.4667	0.995327	0.835627	0	
1.4673	3.41984	1.13949	0	
1.4680	2.50108	0.835627	0	
1.4687	4.3386	-0.98756	0	
1.4693	8.01366	-1.89915	0	
1.4700	7.7074	-1.29142	0	
1.4707	6.17613	0.531763	0	
1.4713	8.62616	1.13949	0	
1.4720	8.93242	1.44336	0	
1.4727	7.09489	2.05109	0	
1.4733	7.7074	0.531763	0	
1.4740	6.48238	-1.29142	0	
1.4747	2.50108	-0.683695	0	
1.4753	0.382818	-0.683695	0	
1.4760	-1.76096	-1.59529	0	
1.4767	-6.94177	-1.89915	0	
1.4773	-10.0043	-3.15259	0	
1.4780	-7.55427	-3.76032	0	
1.4787	-7.55427	-3.15259	0	
1.4793	-10.0043	-3.76032	0	
1.4800	-7.24802	-4.67192	0	
1.4807	-2.98598	-3.45646	0	
1.4813	-2.98598	-2.84873	0	
1.4820	-1.14845	-1.29142	0	
1.4827	2.80733	1.13949	0	
1.4833	3.41984	0.835627	0	
1.4840	1.91409	-1.89915	0	
1.4847	2.80733	-3.45646	0	
1.4853	3.11359	-1.89915	0	
1.4860	3.41984	2.05109	0	
1.4867	5.86988	2.65881	0	
1.4873	3.41984	-1.89915	0	
1.4880	-0.842199	-3.15259	0	
1.4887	0.382818	-0.379831	0	
1.4893	1.60784	-0.379831	0	
1.4900	-1.14845	-1.29142	0	
1.4907	0.689072	-0.683695	0	
1.4913	3.72609	-1.29142	0	
1.4920	3.11359	-1.29142	0	
1.4927	3.41984	0.835627	0	
1.4933	6.48238	-0.379831	0	
1.4940	7.09489	-3.76032	0	
1.4947	6.48238	-2.50688	0	
1.4953	7.09489	-0.683695	0	
1.4960	6.78864	-2.84873	0	
1.4967	6.17613	-4.06419	0	
1.4973	7.40115	-2.50688	0	
1.4980	8.31991	-1.59529	0	
1.4987	8.01366	-2.20302	0	
1.4993	6.48238	-1.59529	0	
1.5000	4.95111	-0.98756	0	
1.5007	4.03235	-1.89915	0	
1.5013	4.3386	-2.84873	0	
1.5020	5.25737	-2.84873	0	
1.5027	7.09489	-3.76032	0	
1.5033	8.62616	-4.06419	0	
1.5040	7.7074	-2.20302	0	
1.5047	5.86988	-0.98756	0	
1.5053	4.03235	-1.29142	0	
1.5060	0.0765636	-0.0759661	0	
1.5067	-4.51725	1.74722	0	
1.5073	-6.63551	2.65881	0	
1.5080	-10.9231	3.87427	0	
1.5087	-17.9414	4.17814	0	
1.5093	-20.9784	1.13949	0	
1.5100	-19.7534	-0.379831	0	
1.5107	-18.5539	2.35495	0	
1.5113	-17.3289	5.69746	0	
1.5120	-18.5539	5.3936	0	
1.5127	-19.7534	2.96268	0	
1.5133	-17.3289	3.57041	0	
1.5140	-13.0413	5.3936	0	
1.5147	-9.3918	3.57041	0	
1.5153	-6.023	-0.0759661	0	
1.5160	-3.29223	0.227898	0	
1.5167	-1.14845	1.74722	0	
1.5173	-0.535945	-0.0759661	0	
1.5180	-2.06722	-0.0759661	0	
1.5187	-0.229691	1.74722	0	
1.5193	2.22034	0.227898	0	
1.5200	-0.229691	-1.59529	0	
1.5207	-2.37347	-0.0759661	0	
1.5213	-0.229691	0.227898	0	
1.5220	0.995327	-0.0759661	0	
1.5227	2.50108	1.13949	0	
1.5233	5.25737	0.531763	0	
1.5240	6.17613	-3.45646	0	
1.5247	5.86988	-3.76032	0	
1.5253	6.17613	-0.0759661	0	
1.5260	4.3386	1.13949	0	
1.5267	4.3386	0.531763	0	
1.5273	6.48238	-0.683695	0	
1.5280	7.09489	-2.20302	0	
1.5287	9.23867	-1.89915	0	
1.5293	12.5819	-0.0759661	0	
1.5300	11.6632	-0.98756	0	
1.5307	7.7074	-0.98756	0	
1.5313	6.17613	2.65881	0	
1.5320	5.56362	4.482	0	
1.5327	3.41984	2.96268	0	
1.5333	0.382818	4.482	0	
1.5340	-0.842199	4.78587	0	
1.5347	0.995327	1.74722	0	
1.5353	2.50108	1.13949	0	
1.5360	0.689072	3.57041	0	
1.5367	-2.06722	2.65881	0	
1.5373	-2.06722	-0.0759661	0	
1.5380	-1.14845	-1.29142	0	
1.5387	-2.37347	-0.98756	0	
1.5393	-3.29223	-0.683695	0	
1.5400	-1.14845	-1.29142	0	
1.5407	0.689072	-2.50688	0	
1.5413	-2.37347	-2.20302	0	
1.5420	-5.41049	-0.98756	0	
1.5427	-5.10424	-0.683695	0	
1.5433	-4.211	-1.29142	0	
1.5440	-4.211	-1.89915	0	
1.5447	-1.45471	1.13949	0	
1.5453	2.80733	4.78587	0	
1.5460	5.25737	2.35495	0	
1.5467	5.56362	-0.683695	0	
1.5473	4.64486	2.65881	0	
1.5480	2.22034	5.08973	0	
1.5487	0.689072	3.87427	0	
1.5493	0.689072	4.482	0	
1.5500	-0.229691	3.87427	0	
1.5507	-2.98598	1.13949	0	
1.5513	-5.71675	0.835627	0	
1.5520	-9.3918	0.835627	0	
1.5527	-11.5356	0.835627	0	
1.5533	-9.08555	1.74722	0	
1.5540	-3.90474	0.531763	0	
1.5547	-1.14845	-2.20302	0	
1.5553	-0.229691	-1.29142	0	
1.5560	1.30158	-0.683695	0	
1.5567	3.11359	-2.84873	0	
1.5573	2.80733	-4.36805	0	
1.5580	2.50108	-4.67192	0	
1.5587	5.56362	-3.15259	0	
1.5593	8.01366	-0.98756	0	
1.5600	7.40115	-1.89915	0	
1.5607	6.17613	-3.76032	0	
1.5613	6.78864	-1.89915	0	
1.5620	7.09489	-2.20302	0	
1.5627	6.17613	-4.67192	0	
1.5633	4.3386	-4.06419	0	
1.5640	2.22034	-0.98756	0	
1.5647	0.0765636	-0.0759661	0	
1.5653	-2.06722	-0.0759661	0	
1.5660	-2.67973	0.531763	0	
1.5667	-2.98598	0.835627	0	
1.5673	-4.82351	-0.379831	0	
1.5680	-5.41049	-0.98756	0	
1.5687	-5.71675	-0.0759661	0	
1.5693	-7.55427	-0.0759661	0	
1.5700	-7.55427	0.835627	0	
1.5707	-3.90474	3.57041	0	
1.5713	-0.842199	4.482	0	
1.5720	2.22034	2.96268	0	
1.5727	6.17613	3.57041	0	
1.5733	4.95111	2.65881	0	
1.5740	-0.229691	-0.0759661	0	
1.5747	-0.229691	-1.89915	0	
1.5753	2.50108	-3.15259	0	
1.5760	0.689072	-3.76032	0	
1.5767	-2.06722	-1.59529	0	
1.5773	-1.14845	-0.683695	0	
1.5780	-0.535945	-1.29142	0	
1.5787	-2.06722	-0.683695	0	
1.5793	-1.14845	-0.98756	0	
1.5800	0.382818	-2.84873	0	
1.5807	0.689072	-3.15259	0	
1.5813	-0.842199	-1.59529	0	
1.5820	-2.06722	-0.98756	0	
1.5827	-2.37347	-1.89915	0	
1.5833	-1.76096	-2.84873	0	
1.5840	-0.842199	-0.379831	0	
1.5847	-1.14845	2.65881	0	
1.5853	-3.59849	2.65881	0	
1.5860	-6.63551	0.835627	0	
1.5867	-8.77929	0.531763	0	
1.5873	-9.08555	1.74722	0	
1.5880	-9.69805	3.57041	0	
1.5887	-11.8418	5.08973	0	
1.5893	-13.6538	6.00132	0	
1.5900	-12.7351	4.17814	0	
1.5907	-10.3106	2.65881	0	
1.5913	-8.77929	4.482	0	
1.5920	-8.77929	3.26654	0	
1.5927	-5.71675	-0.98756	0	
1.5933	-1.45471	-0.683695	0	
1.5940	-0.842199	0.531763	0	
1.5947	-1.14845	-2.84873	0	
1.5953	0.0765636	-3.76032	0	
1.5960	0.689072	-1.59529	0	
1.5967	2.50108	-2.20302	0	
1.5973	5.86988	-2.20302	0	
1.5980	6.78864	-0.0759661	0	
1.5987	4.64486	0.531763	0	
1.5993	4.64486	0.835627	0	
1.6000	4.95111	1.44336	0	
1.6007	3.41984	-0.0759661	0	
1.6013	1.91409	-0.0759661	0	
1.6020	-0.842199	2.35495	0	
1.6027	-4.82351	3.57041	0	
1.6033	-6.32926	4.482	0	
1.6040	-4.82351	4.482	0	
1.6047	-3.59849	2.65881	0	
1.6053	-1.45471	-0.0759661	0	
1.6060	0.995327	-0.0759661	0	
1.6067	1.60784	1.74722	0	
1.6073	3.72609	1.44336	0	
1.6080	10.1319	-0.683695	0	
1.6087	16.257	-1.59529	0	
1.6093	17.7628	-0.98756	0	
1.6100	17.4565	-0.683695	0	
1.6107	15.9507	-0.98756	0	
1.6113	11.3569	-1.89915	0	
1.6120	7.7074	-3.76032	0	
1.6127	9.23867	-3.15259	0	
1.6133	11.3569	-2.20302	0	
1.6140	7.7074	-2.50688	0	
1.6147	0.689072	-1.89915	0	
1.6153	-4.82351	-0.0759661	0	
1.6160	-6.94177	-1.59529	0	
1.6167	-6.63551	-2.84873	0	
1.6173	-6.32926	-0.98756	0	
1.6180	-7.55427	-0.0759661	0	
1.6187	-8.47304	-0.98756	0	
1.6193	-8.16678	0.227898	0	
1.6200	-8.47304	1.13949	0	
1.6207	-9.3918	-0.683695	0	
1.6213	-10.6168	-0.379831	0	
1.6220	-11.2293	1.74722	0	
1.6227	-10.6168	1.13949	0	
1.6233	-9.08555	-0.683695	0	
1.6240	-8.47304	-0.0759661	0	
1.6247	-7.55427	1.74722	0	
1.6253	-6.32926	2.35495	0	
1.6260	-5.41049	2.05109	0	
1.6267	-5.10424	1.74722	0	
1.6273	-3.90474	1.44336	0	
1.6280	1.60784	-0.0759661	0	
1.6287	9.23867	-0.98756	0	
1.6293	12.5819	0.531763	0	
1.6300	12.5819	1.74722	0	
1.6307	15.3382	-0.0759661	0	
1.6313	19.294	-0.379831	0	
1.6320	18.9878	0.227898	0	
1.6327	16.257	-2.20302	0	
1.6333	13.807	-6.19124	0	
1.6340	11.0507	-5.58351	0	
1.6347	8.01366	-3.45646	0	
1.6353	5.56362	-3.45646	0	
1.6360	3.41984	-4.97578	0	
1.6367	2.50108	-6.19124	0	
1.6373	0.382818	-4.97578	0	
1.6380	-2.98598	-1.59529	0	
1.6387	-6.63551	0.531763	0	
1.6393	-11.2293	-0.98756	0	
1.6400	-15.4914	-0.98756	0	
1.6407	-17.3289	2.65881	0	
1.6413	-20.3659	4.17814	0	
1.6420	-23.4285	3.26654	0	
1.6427	-20.3659	4.78587	0	
1.6433	-18.5539	7.25477	0	
1.6440	-21.5909	6.34317	0	
1.6447	-18.8602	6.00132	0	
1.6453	-12.7351	8.16636	0	
1.6460	-10.9231	7.25477	0	
1.6467	-5.71675	3.57041	0	
1.6473	3.11359	2.35495	0	
1.6480	5.25737	1.74722	0	
1.6487	5.86988	-0.98756	0	
1.6493	10.7444	-0.98756	0	
1.6500	12.2757	-0.683695	0	
1.6507	11.9694	-1.29142	0	
1.6513	13.1945	-0.98756	0	
1.6520	11.9694	-0.683695	0	
1.6527	11.0507	-2.84873	0	
1.6533	8.93242	-2.84873	0	
1.6540	1.60784	-0.98756	0	
1.6547	-2.98598	-0.98756	0	
1.6553	-1.45471	-1.89915	0	
1.6560	-2.06722	-1.89915	0	
1.6567	-4.82351	-3.15259	0	
1.6573	-5.71675	-3.15259	0	
1.6580	-6.94177	-1.29142	0	
1.6587	-5.71675	-1.59529	0	
1.6593	-2.98598	-2.50688	0	
1.6600	-2.98598	-1.89915	0	
1.6607	-0.842199	-3.76032	0	
1.6613	3.41984	-5.58351	0	
1.6620	4.95111	-4.06419	0	
1.6627	8.01366	-3.76032	0	
1.6633	11.6632	-4.67192	0	
1.6640	11.3569	-3.76032	0	
1.6647	10.7444	-2.50688	0	
1.6653	12.5819	-3.45646	0	
1.6660	11.6632	-4.06419	0	
1.6667	10.4382	-3.15259	0	
1.6673	10.4382	-0.0759661	0	
1.6680	6.17613	0.531763	0	
1.6687	-0.229691	-1.89915	0	
1.6693	-1.76096	-0.98756	0	
1.6700	-1.14845	3.26654	0	
1.6707	-2.06722	5.69746	0	
1.6713	-1.45471	4.482	0	
1.6720	-0.535945	3.57041	0	
1.6727	-0.535945	3.26654	0	
1.6733	-0.842199	4.17814	0	
1.6740	-2.06722	5.3936	0	
1.6747	-3.90474	4.17814	0	
1.6753	-2.98598	0.835627	0	
1.6760	-0.842199	-0.683695	0	
1.6767	-1.14845	-0.379831	0	
1.6773	-2.06722	-0.98756	0	
1.6780	-2.06722	-0.0759661	0	
1.6787	-2.98598	3.57041	0	
1.6793	-4.211	3.57041	0	
1.6800	-3.29223	-1.59529	0	
1.6807	-2.98598	-3.76032	0	
1.6813	-5.71675	-0.98756	0	
1.6820	-7.55427	1.44336	0	
1.6827	-4.82351	-0.98756	0	
1.6833	-0.535945	-3.15259	0	
1.6840	-0.842199	-1.29142	0	
1.6847	-2.98598	2.35495	0	
1.6853	-3.90474	2.65881	0	
1.6860	-2.98598	-0.0759661	0	
1.6867	-2.06722	-0.98756	0	
1.6873	-2.06722	0.531763	0	
1.6880	-2.98598	-1.29142	0	
1.6887	-2.98598	-3.76032	0	
1.6893	-0.535945	-2.84873	0	
1.6900	1.30158	-3.76032	0	
1.6907	2.22034	-5.58351	0	
1.6913	2.22034	-2.50688	0	
1.6920	0.995327	0.531763	0	
1.6927	1.30158	-2.84873	0	
1.6933	3.11359	-5.27965	0	
1.6940	2.50108	-3.15259	0	
1.6947	0.382818	-1.89915	0	
1.6953	1.60784	-4.36805	0	
1.6960	3.41984	-6.4951	0	
1.6967	3.41984	-5.27965	0	
1.6973	4.3386	-4.36805	0	
1.6980	6.48238	-5.58351	0	
1.6987	6.17613	-6.4951	0	
1.6993	5.25737	-4.06419	0	
1.7000	6.17613	-1.89915	0	
1.7007	10.1319	-2.84873	0	
1.7013	15.032	-4.67192	0	
1.7020	17.7628	-4.36805	0	
1.7027	16.844	-3.15259	0	
1.7033	15.3382	-2.84873	0	
1.7040	12.8882	-2.84873	0	
1.7047	9.51941	-1.89915	0	
1.7053	6.48238	-0.98756	0	
1.7060	3.72609	1.13949	0	
1.7067	0.689072	5.08973	0	
1.7073	-1.76096	5.08973	0	
1.7080	-5.71675	2.05109	0	
1.7087	-13.0413	4.482	0	
1.7093	-18.5539	9.07795	0	
1.7100	-19.1664	7.25477	0	
1.7107	-20.6722	4.482	0	
1.7113	-24.041	5.69746	0	
1.7120	-24.9597	7.25477	0	
1.7127	-24.9597	7.25477	0	
1.7133	-26.7717	6.64704	0	
1.7140	-24.9597	4.482	0	
1.7147	-19.7534	4.17814	0	
1.7153	-15.7976	4.482	0	
1.7160	-11.2293	0.835627	0	
1.7167	-3.90474	-1.89915	0	
1.7173	1.30158	-0.683695	0	
1.7180	2.50108	0.835627	0	
1.7187	4.3386	0.227898	0	
1.7193	8.31991	0.227898	0	
1.7200	10.4382	0.227898	0	
1.7207	7.7074	0.227898	0	
1.7213	3.72609	0.835627	0	
1.7220	2.80733	-0.0759661	0	
1.7227	2.50108	-1.29142	0	
1.7233	-0.229691	-1.29142	0	
1.7240	-2.67973	-0.0759661	0	
1.7247	-1.14845	1.74722	0	
1.7253	0.995327	2.35495	0	
1.7260	1.30158	-0.0759661	0	
1.7267	-0.842199	-0.379831	0	
1.7273	-2.98598	0.835627	0	
1.7280	-2.67973	-0.98756	0	
1.7287	-1.76096	-3.45646	0	
1.7293	-2.06722	-2.84873	0	
1.7300	-0.535945	-0.98756	0	
1.7307	-0.229691	-0.683695	0	
1.7313	-3.59849	-1.89915	0	
1.7320	-2.06722	-2.84873	0	
1.7327	2.50108	-3.76032	0	
1.7333	2.22034	-3.45646	0	
1.7340	-0.842199	-2.50688	0	
1.7347	-0.229691	-2.84873	0	
1.7353	0.382818	-3.76032	0	
1.7360	1.60784	-3.76032	0	
1.7367	3.41984	-4.67192	0	
1.7373	0.382818	-4.67192	0	
1.7380	-2.37347	-1.59529	0	
1.7387	0.382818	0.227898	0	
1.7393	2.50108	-3.15259	0	
1.7400	3.11359	-4.67192	0	
1.7407	4.64486	-1.89915	0	
1.7413	5.25737	-0.683695	0	
1.7420	5.25737	-1.29142	0	
1.7427	10.7444	-2.84873	0	
1.7433	16.5633	-4.97578	0	
1.7440	18.069	-4.97578	0	
1.7447	20.2128	-2.84873	0	
1.7453	22.3566	-3.76032	0	
1.7460	19.9065	-5.27965	0	
1.7467	17.1502	-3.76032	0	
1.7473	17.1502	-3.15259	0	
1.7480	16.257	-3.15259	0	
1.7487	15.032	-1.59529	0	
1.7493	16.5633	-1.59529	0	
1.7500	18.069	-2.50688	0	
1.7507	16.844	0.835627	0	
1.7513	11.6632	3.57041	0	
1.7520	3.41984	-0.0759661	0	
1.7527	-1.14845	-1.59529	0	
1.7533	-2.98598	3.26654	0	
1.7540	-9.08555	4.17814	0	
1.7547	-15.7976	0.835627	0	
1.7553	-17.3289	1.44336	0	
1.7560	-18.2477	3.57041	0	
1.7567	-19.7534	2.35495	0	
1.7573	-19.7534	2.65881	0	
1.7580	-21.2847	3.87427	0	
1.7587	-24.3472	2.35495	0	
1.7593	-24.041	2.65881	0	
1.7600	-22.8159	4.78587	0	
1.7607	-21.5909	4.17814	0	
1.7613	-17.9414	3.87427	0	
1.7620	-14.5726	5.08973	0	
1.7627	-13.9601	2.96268	0	
1.7633	-13.0413	1.44336	0	
1.7640	-9.69805	2.65881	0	
1.7647	-5.41049	2.05109	0	
1.7653	0.382818	-0.0759661	0	
1.7660	10.7444	-0.379831	0	
1.7667	25.3936	-2.50688	0	
1.7673	34.5557	-5.58351	0	
1.7680	36.3932	-7.10283	0	
1.7687	36.6995	-8.62216	0	
1.7693	38.2308	-9.53375	0	
1.7700	39.124	-8.92602	0	
1.7707	36.3932	-8.62216	0	
1.7713	29.0686	-8.31829	0	
1.7720	21.7441	-8.01443	0	
1.7727	16.5633	-7.4067	0	
1.7733	8.93242	-3.76032	0	
1.7740	0.689072	-2.20302	0	
1.7747	-7.86053	-5.27965	0	
1.7753	-17.6351	-4.36805	0	
1.7760	-25.5722	-0.98756	0	
1.7767	-31.0593	-3.45646	0	
1.7773	-40.8339	-3.45646	0	
1.7780	-50.583	3.87427	0	
1.7787	-51.808	5.08973	0	
1.7793	-48.7455	1.44336	0	
1.7800	-45.096	4.78587	0	
1.7807	-40.5277	8.77409	0	
1.7813	-37.1589	8.47022	0	
1.7820	-32.2843	10.9011	0	
1.7827	-23.7347	11.8127	0	
1.7833	-15.7976	8.77409	0	
1.7840	-7.86053	6.64704	0	
1.7847	2.22034	6.64704	0	
1.7853	8.31991	6.34317	0	
1.7860	9.23867	6.34317	0	
1.7867	10.4382	4.78587	0	
1.7873	12.2757	1.13949	0	
1.7880	12.2757	-0.379831	0	
1.7887	10.7444	1.74722	0	
1.7893	8.62616	4.17814	0	
1.7900	5.86988	3.87427	0	
1.7907	4.64486	2.35495	0	
1.7913	4.3386	2.05109	0	
1.7920	2.50108	0.531763	0	
1.7927	2.50108	-1.29142	0	
1.7933	2.50108	0.227898	0	
1.7940	0.382818	1.74722	0	
1.7947	-0.842199	0.835627	0	
1.7953	1.30158	1.74722	0	
1.7960	0.995327	2.65881	0	
1.7967	-1.14845	0.835627	0	
1.7973	-0.229691	-0.0759661	0	
1.7980	0.689072	-0.0759661	0	
1.7987	0.995327	-2.20302	0	
1.7993	1.91409	-0.98756	0	
1.8000	3.11359	1.74722	0	
1.8007	5.25737	-1.29142	0	
1.8013	7.09489	-4.36805	0	
1.8020	9.51941	-2.20302	0	
1.8027	12.5819	-0.98756	0	
1.8033	14.1132	-3.45646	0	
1.8040	10.4382	-3.45646	0	
1.8047	7.40115	-0.98756	0	
1.8053	8.93242	-0.379831	0	
1.8060	8.93242	-1.29142	0	
1.8067	6.17613	-0.683695	0	
1.8073	6.48238	0.227898	0	
1.8080	8.31991	-1.29142	0	
1.8087	9.51941	-3.15259	0	
1.8093	9.82566	-2.50688	0	
1.8100	6.17613	-1.59529	0	
1.8107	1.60784	-0.98756	0	
1.8113	0.689072	-0.683695	0	
1.8120	1.60784	-2.84873	0	
1.8127	1.60784	-4.97578	0	
1.8133	3.11359	-4.06419	0	
1.8140	4.64486	-3.76032	0	
1.8147	5.25737	-7.10283	0	
1.8153	7.09489	-7.71056	0	
1.8160	10.4382	-4.36805	0	
1.8167	11.3569	-3.45646	0	
1.8173	9.23867	-5.27965	0	
1.8180	6.78864	-5.58351	0	
1.8187	4.64486	-3.76032	0	
1.8193	2.80733	-3.15259	0	
1.8200	0.689072	-3.76032	0	
1.8207	-2.06722	-1.89915	0	
1.8213	-5.71675	1.74722	0	
1.8220	-9.08555	2.96268	0	
1.8227	-9.08555	2.96268	0	
1.8233	-9.3918	4.78587	0	
1.8240	-13.9601	7.25477	0	
1.8247	-18.2477	7.25477	0	
1.8253	-16.7164	5.3936	0	
1.8260	-13.0413	3.57041	0	
1.8267	-10.0043	3.57041	0	
1.8273	-6.32926	2.65881	0	
1.8280	-2.06722	-0.0759661	0	
1.8287	1.60784	-0.379831	0	
1.8293	3.72609	0.835627	0	
1.8300	4.3386	-0.683695	0	
1.8307	5.25737	-1.59529	0	
1.8313	8.01366	-1.29142	0	
1.8320	11.9694	-3.15259	0	
1.8327	15.3382	-5.27965	0	
1.8333	16.844	-4.67192	0	
1.8340	18.069	-2.84873	0	
1.8347	18.6815	-1.89915	0	
1.8353	14.7257	-4.06419	0	
1.8360	8.93242	-5.88737	0	
1.8367	4.64486	-3.45646	0	
1.8373	1.60784	-0.379831	0	
1.8380	-0.229691	-0.98756	0	
1.8387	-2.98598	-0.98756	0	
1.8393	-8.47304	0.835627	0	
1.8400	-13.3476	-0.0759661	0	
1.8407	-15.7976	-2.20302	0	
1.8413	-17.6351	-0.98756	0	
1.8420	-18.8602	0.227898	0	
1.8427	-18.8602	-0.98756	0	
1.8433	-18.5539	-0.98756	0	
1.8440	-13.6538	0.227898	0	
1.8447	-5.71675	-0.98756	0	
1.8453	-1.76096	-2.50688	0	
1.8460	-0.535945	-0.683695	0	
1.8467	3.41984	1.74722	0	
1.8473	6.17613	2.65881	0	
1.8480	4.3386	2.65881	0	
1.8487	3.11359	1.74722	0	
1.8493	0.995327	-0.0759661	0	
1.8500	-1.14845	-0.0759661	0	
1.8507	1.60784	-0.98756	0	
1.8513	3.11359	-2.84873	0	
1.8520	-2.06722	-0.0759661	0	
1.8527	-5.71675	5.3936	0	
1.8533	-5.10424	3.87427	0	
1.8540	-6.63551	-0.683695	0	
1.8547	-9.3918	-0.0759661	0	
1.8553	-9.3918	2.65881	0	
1.8560	-6.94177	1.74722	0	
1.8567	-2.98598	1.74722	0	
1.8573	-2.06722	2.65881	0	
1.8580	-5.71675	2.96268	0	
1.8587	-6.94177	4.17814	0	
1.8593	-4.51725	5.08973	0	
1.8600	-3.90474	2.65881	0	
1.8607	-6.63551	1.74722	0	
1.8613	-8.77929	2.96268	0	
1.8620	-8.47304	1.13949	0	
1.8627	-7.55427	-1.89915	0	
1.8633	-5.41049	-1.59529	0	
1.8640	-0.535945	-0.98756	0	
1.8647	3.72609	-1.29142	0	
1.8653	4.03235	-0.379831	0	
1.8660	3.41984	-0.98756	0	
1.8667	4.95111	-0.98756	0	
1.8673	5.86988	0.227898	0	
1.8680	8.93242	-1.59529	0	
1.8687	15.032	-4.67192	0	
1.8693	17.1502	-3.76032	0	
1.8700	15.032	-4.36805	0	
1.8707	14.4195	-6.19124	0	
1.8713	14.7257	-1.89915	0	
1.8720	15.3382	1.13949	0	
1.8727	15.6445	-2.84873	0	
1.8733	12.5819	-4.36805	0	
1.8740	8.93242	-3.15259	0	
1.8747	6.17613	-2.50688	0	
1.8753	1.60784	0.227898	0	
1.8760	-3.90474	1.74722	0	
1.8767	-5.10424	0.227898	0	
1.8773	-5.41049	2.05109	0	
1.8780	-4.211	2.65881	0	
1.8787	-3.59849	-0.98756	0	
1.8793	-10.0043	1.44336	0	
1.8800	-16.4101	6.34317	0	
1.8807	-13.6538	3.26654	0	
1.8813	-9.08555	-0.0759661	0	
1.8820	-9.3918	2.65881	0	
1.8827	-8.47304	3.87427	0	
1.8833	-6.63551	2.35495	0	
1.8840	-6.63551	3.26654	0	
1.8847	-7.55427	3.87427	0	
1.8853	-7.55427	1.74722	0	
1.8860	-6.32926	1.44336	0	
1.8867	-2.98598	3.26654	0	
1.8873	-2.67973	1.74722	0	
1.8880	-3.90474	-0.379831	0	
1.8887	-2.06722	1.74722	0	
1.8893	0.689072	1.44336	0	
1.8900	1.30158	-1.29142	0	
1.8907	2.50108	0.835627	0	
1.8913	2.80733	2.35495	0	
1.8920	3.72609	-2.50688	0	
1.8927	6.48238	-3.45646	0	
1.8933	7.09489	-0.683695	0	
1.8940	4.64486	-2.84873	0	
1.8947	4.64486	-4.36805	0	
1.8953	6.48238	-2.50688	0	
1.8960	4.95111	-3.76032	0	
1.8967	2.50108	-4.67192	0	
1.8973	3.41984	-3.15259	0	
1.8980	5.25737	-4.67192	0	
1.8987	2.22034	-6.4951	0	
1.8993	-0.229691	-3.76032	0	
1.9000	1.91409	-2.84873	0	
1.9007	3.11359	-3.76032	0	
1.9013	1.60784	-0.98756	0	
1.9020	1.91409	2.05109	0	
1.9027	0.689072	0.835627	0	
1.9033	-2.98598	-0.0759661	0	
1.9040	-2.67973	0.835627	0	
1.9047	-0.229691	2.65881	0	
1.9053	-0.535945	4.78587	0	
1.9060	2.50108	4.482	0	
1.9067	7.09489	1.44336	0	
1.9073	6.78864	-0.0759661	0	
1.9080	4.95111	1.13949	0	
1.9087	5.25737	2.05109	0	
1.9093	3.11359	1.13949	0	
1.9100	-0.229691	0.835627	0	
1.9107	-3.59849	1.74722	0	
1.9113	-5.71675	2.35495	0	
1.9120	-4.211	1.13949	0	
1.9127	-1.76096	1.13949	0	
1.9133	-3.59849	1.13949	0	
1.9140	-5.41049	-0.379831	0	
1.9147	-3.29223	-0.98756	0	
1.9153	-2.67973	-0.0759661	0	
1.9160	-2.98598	-0.0759661	0	
1.9167	-0.229691	-1.89915	0	
1.9173	2.50108	-3.15259	0	
1.9180	0.995327	-1.89915	0	
1.9187	-0.842199	1.74722	0	
1.9193	-0.535945	3.57041	0	
1.9200	-0.842199	-0.0759661	0	
1.9207	-1.45471	-3.15259	0	
1.9213	-1.76096	-0.98756	0	
1.9220	-2.98598	-0.0759661	0	
1.9227	-4.82351	-1.89915	0	
1.9233	-4.82351	-1.89915	0	
1.9240	-4.82351	-1.89915	0	
1.9247	-6.63551	-2.20302	0	
1.9253	-7.86053	-0.683695	0	
1.9260	-8.47304	0.531763	0	
1.9267	-9.3918	-0.379831	0	
1.9273	-7.55427	0.835627	0	
1.9280	-4.51725	2.65881	0	
1.9287	-2.98598	0.835627	0	
1.9293	-2.98598	-0.98756	0	
1.9300	-2.98598	0.835627	0	
1.9307	-2.98598	2.65881	0	
1.9313	-3.59849	2.65881	0	
1.9320	-4.211	3.57041	0	
1.9327	-3.90474	4.482	0	
1.9333	-2.67973	2.05109	0	
1.9340	-3.90474	0.835627	0	
1.9347	-5.10424	1.74722	0	
1.9353	-1.76096	0.227898	0	
1.9360	2.50108	-3.15259	0	
1.9367	4.03235	-3.45646	0	
1.9373	5.86988	-2.84873	0	
1.9380	7.7074	-3.76032	0	
1.9387	7.09489	-1.89915	0	
1.9393	7.09489	0.531763	0	
1.9400	9.23867	-1.29142	0	
1.9407	9.23867	-4.06419	0	
1.9413	6.78864	-4.06419	0	
1.9420	5.25737	-3.76032	0	
1.9427	5.56362	-2.84873	0	
1.9433	4.3386	-0.0759661	0	
1.9440	1.91409	2.65881	0	
1.9447	0.995327	2.35495	0	
1.9453	3.72609	0.835627	0	
1.9460	7.09489	-0.0759661	0	
1.9467	7.7074	-2.50688	0	
1.9473	6.17613	-2.50688	0	
1.9480	6.78864	1.13949	0	
1.9487	8.93242	1.74722	0	
1.9493	8.93242	-1.29142	0	
1.9500	8.01366	-0.0759661	0	
1.9507	8.62616	2.96268	0	
1.9513	9.23867	1.44336	0	
1.9520	8.01366	-0.98756	0	
1.9527	5.25737	-0.0759661	0	
1.9533	1.60784	1.44336	0	
1.9540	-0.842199	0.835627	0	
1.9547	2.22034	-1.29142	0	
1.9553	2.80733	-2.50688	0	
1.9560	-0.842199	-1.89915	0	
1.9567	-0.229691	-1.89915	0	
1.9573	3.41984	-3.76032	0	
1.9580	1.30158	-4.36805	0	
1.9587	-3.29223	-3.15259	0	
1.9593	-2.67973	-1.59529	0	
1.9600	-1.76096	-0.98756	0	
1.9607	-3.29223	-0.98756	0	
1.9613	-4.82351	-0.98756	0	
1.9620	-7.55427	0.531763	0	
1.9627	-9.69805	3.26654	0	
1.9633	-9.69805	5.08973	0	
1.9640	-8.47304	5.69746	0	
1.9647	-5.41049	6.00132	0	
1.9653	-1.76096	4.78587	0	
1.9660	-2.98598	2.65881	0	
1.9667	-6.023	2.96268	0	
1.9673	-6.63551	4.482	0	
1.9680	-9.3918	3.26654	0	
1.9687	-10.9231	0.835627	0	
1.9693	-4.211	0.835627	0	
1.9700	3.72609	2.05109	0	
1.9707	5.86988	1.74722	0	
1.9713	5.56362	0.227898	0	
1.9720	6.48238	-0.0759661	0	
1.9727	6.78864	0.531763	0	
1.9733	6.17613	-1.59529	0	
1.9740	4.3386	-3.76032	0	
1.9747	3.41984	-4.36805	0	
1.9753	4.64486	-3.76032	0	
1.9760	6.17613	-5.27965	0	
1.9767	4.64486	-7.4067	0	
1.9773	1.60784	-6.4951	0	
1.9780	-1.45471	-3.76032	0	
1.9787	-2.06722	-3.15259	0	
1.9793	-1.45471	-3.76032	0	
1.9800	-2.37347	-3.15259	0	
1.9807	-5.41049	-0.98756	0	
1.9813	-8.77929	-0.379831	0	
1.9820	-11.5356	-0.0759661	0	
1.9827	-13.9601	0.835627	0	
1.9833	-17.6351	1.74722	0	
1.9840	-21.2847	4.482	0	
1.9847	-18.8602	6.9509	0	
1.9853	-12.4288	6.34317	0	
1.9860	-8.16678	5.3936	0	
1.9867	-6.63551	5.3936	0	
1.9873	-3.90474	4.482	0	
1.9880	-0.535945	2.65881	0	
1.9887	1.60784	1.44336	0	
1.9893	2.22034	0.835627	0	
1.9900	2.50108	1.44336	0	
1.9907	3.11359	1.74722	0	
1.9913	3.11359	0.835627	0	
1.9920	1.60784	-0.0759661	0	
1.9927	-1.14845	0.835627	0	
1.9933	-3.29223	0.227898	0	
1.9940	-1.14845	-0.98756	0	
1.9947	1.30158	-1.89915	0	
1.9953	-0.842199	-4.67192	0	
1.9960	-3.29223	-6.4951	0	
1.9967	-2.06722	-2.84873	0	
1.9973	-1.14845	1.74722	0	
1.9980	0.689072	1.13949	0	
1.9987	5.56362	-1.59529	0	
1.9993	7.09489	-3.76032	0	
2.0000	5.25737	-4.67192	0	
2.0007	7.09489	-1.89915	0	
2.0013	9.82566	0.227898	0	
2.0020	8.93242	-0.379831	0	
2.0027	7.7074	0.227898	0	
2.0033	7.09489	0.835627	0	
2.0040	5.56362	-0.0759661	0	
2.0047	4.3386	0.835627	0	
2.0053	4.3386	2.96268	0	
2.0060	3.41984	1.74722	0	
2.0067	0.689072	-0.0759661	0	
2.0073	-2.06722	0.531763	0	
2.0080	-1.14845	0.227898	0	
2.0087	0.382818	0.227898	0	
2.0093	-0.842199	0.835627	0	
2.0100	-2.37347	-0.379831	0	
2.0107	-3.29223	-0.683695	0	
2.0113	-2.06722	1.13949	0	
2.0120	1.30158	1.74722	0	
2.0127	1.60784	-0.0759661	0	
2.0133	0.689072	-1.29142	0	
2.0140	4.3386	-1.89915	0	
2.0147	8.01366	-1.59529	0	
2.0153	5.25737	-1.29142	0	
2.0160	0.689072	-0.98756	0	
2.0167	-2.06722	-0.683695	0	
2.0173	-4.211	-0.98756	0	
2.0180	-5.71675	-1.89915	0	
2.0187	-7.24802	-2.50688	0	
2.0193	-8.47304	-0.98756	0	
2.0200	-6.32926	-0.98756	0	
2.0207	-3.59849	-1.89915	0	
2.0213	-3.90474	-1.89915	0	
2.0220	-5.41049	-1.89915	0	
2.0227	-6.023	-3.45646	0	
2.0233	-4.51725	-2.20302	0	
2.0240	-1.14845	2.05109	0	
2.0247	1.91409	3.57041	0	
2.0253	2.50108	0.531763	0	
2.0260	2.50108	-1.89915	0	
2.0267	3.41984	-1.89915	0	
2.0273	6.48238	0.227898	0	
2.0280	8.31991	1.13949	0	
2.0287	7.7074	-0.98756	0	
2.0293	8.62616	-3.15259	0	
2.0300	9.23867	-2.50688	0	
2.0307	8.01366	-0.379831	0	
2.0313	7.7074	-0.0759661	0	
2.0320	5.25737	-1.89915	0	
2.0327	-0.842199	-4.06419	0	
2.0333	-4.211	-4.06419	0	
2.0340	-2.67973	-2.50688	0	
2.0347	-2.98598	-1.89915	0	
2.0353	-5.41049	-1.59529	0	
2.0360	-6.023	-0.379831	0	
2.0367	-6.023	-1.29142	0	
2.0373	-6.63551	-2.50688	0	
2.0380	-6.63551	-1.29142	0	
2.0387	-4.51725	-0.0759661	0	
2.0393	-2.98598	0.835627	0	
2.0400	-4.82351	2.35495	0	
2.0407	-0.229691	0.227898	0	
2.0413	8.93242	-2.84873	0	
2.0420	10.4382	-1.89915	0	
2.0427	6.78864	-1.89915	0	
2.0433	8.31991	-3.45646	0	
2.0440	9.23867	-1.29142	0	
2.0447	4.3386	-0.379831	0	
2.0453	0.995327	-3.15259	0	
2.0460	0.382818	-2.20302	0	
2.0467	-1.76096	0.531763	0	
2.0473	-2.98598	-1.29142	0	
2.0480	-4.211	-2.84873	0	
2.0487	-6.63551	-1.89915	0	
2.0493	-8.47304	-0.683695	0	
2.0500	-10.3106	1.13949	0	
2.0507	-12.7351	3.26654	0	
2.0513	-12.1481	2.05109	0	
2.0520	-6.94177	-0.0759661	0	
2.0527	-2.06722	0.227898	0	
2.0533	1.60784	1.13949	0	
2.0540	6.17613	-0.0759661	0	
2.0547	11.9694	-2.50688	0	
2.0553	15.6445	-3.15259	0	
2.0560	18.6815	-1.59529	0	
2.0567	21.1316	-1.89915	0	
2.0573	20.519	-4.97578	0	
2.0580	18.9878	-5.88737	0	
2.0587	17.1502	-2.20302	0	
2.0593	11.6632	0.835627	0	
2.0600	4.03235	-0.98756	0	
2.0607	-0.535945	-2.20302	0	
2.0613	-5.10424	0.227898	0	
2.0620	-10.0043	0.835627	0	
2.0627	-11.5356	-0.683695	0	
2.0633	-11.5356	2.35495	0	
2.0640	-15.7976	6.00132	0	
2.0647	-23.1222	6.34317	0	
2.0653	-24.9597	6.34317	0	
2.0660	-20.3659	8.16636	0	
2.0667	-18.2477	8.16636	0	
2.0673	-18.5539	7.25477	0	
2.0680	-17.3289	6.64704	0	
2.0687	-14.8789	7.86249	0	
2.0693	-10.6168	7.25477	0	
2.0700	-6.023	4.78587	0	
2.0707	-3.29223	4.482	0	
2.0713	-1.76096	5.69746	0	
2.0720	-0.229691	4.17814	0	
2.0727	-1.45471	1.44336	0	
2.0733	-2.06722	0.227898	0	
2.0740	1.60784	-1.29142	0	
2.0747	5.25737	-3.76032	0	
2.0753	4.95111	-4.36805	0	
2.0760	3.41984	-4.36805	0	
2.0767	2.80733	-3.45646	0	
2.0773	0.689072	-1.59529	0	
2.0780	-3.29223	-0.98756	0	
2.0787	-4.211	-0.98756	0	
2.0793	-1.76096	-1.89915	0	
2.0800	1.60784	-1.89915	0	
2.0807	3.41984	-0.379831	0	
2.0813	4.03235	-0.379831	0	
2.0820	4.3386	-3.45646	0	
2.0827	5.25737	-4.36805	0	
2.0833	5.25737	-1.89915	0	
2.0840	3.72609	-1.89915	0	
2.0847	3.41984	-2.20302	0	
2.0853	4.03235	1.74722	0	
2.0860	3.11359	3.57041	0	
2.0867	0.382818	1.74722	0	
2.0873	-2.06722	2.96268	0	
2.0880	-2.37347	3.57041	0	
2.0887	-2.06722	-0.0759661	0	
2.0893	-2.98598	0.531763	0	
2.0900	-4.51725	3.57041	0	
2.0907	-4.82351	0.227898	0	
2.0913	-4.51725	-0.683695	0	
2.0920	-2.06722	4.17814	0	
2.0927	3.41984	4.17814	0	
2.0933	6.17613	-0.98756	0	
2.0940	4.3386	-1.89915	0	
2.0947	4.03235	-0.98756	0	
2.0953	5.86988	-3.45646	0	
2.0960	3.41984	-4.36805	0	
2.0967	-0.229691	-3.76032	0	
2.0973	2.50108	-4.06419	0	
2.0980	5.56362	-3.76032	0	
2.0987	3.72609	-2.84873	0	
2.0993	0.689072	-3.15259	0	
2.1000	-1.76096	-2.50688	0	
2.1007	-2.98598	-0.683695	0	
2.1013	-2.98598	-1.89915	0	
2.1020	-4.51725	-4.67192	0	
2.1027	-6.32926	-5.58351	0	
2.1033	-5.10424	-3.76032	0	
2.1040	-3.90474	-2.20302	0	
2.1047	-3.90474	-1.29142	0	
2.1053	-2.98598	-0.379831	0	
2.1060	-1.76096	0.835627	0	
2.1067	-0.535945	1.44336	0	
2.1073	1.30158	-0.0759661	0	
2.1080	1.91409	-0.0759661	0	
2.1087	3.11359	2.05109	0	
2.1093	6.78864	1.74722	0	
2.1100	8.93242	-1.29142	0	
2.1107	10.1319	-0.683695	0	
2.1113	11.6632	1.74722	0	
2.1120	10.7444	0.835627	0	
2.1127	11.0507	-1.89915	0	
2.1133	14.1132	-2.84873	0	
2.1140	12.8882	-2.84873	0	
2.1147	7.7074	-3.15259	0	
2.1153	4.3386	-3.76032	0	
2.1160	0.689072	-5.58351	0	
2.1167	-3.59849	-5.88737	0	
2.1173	-5.10424	-4.67192	0	
2.1180	-5.71675	-4.67192	0	
2.1187	-4.82351	-5.27965	0	
2.1193	-3.90474	-4.67192	0	
2.1200	-5.41049	-3.76032	0	
2.1207	-7.55427	-3.45646	0	
2.1213	-8.16678	-3.45646	0	
2.1220	-8.77929	-3.76032	0	
2.1227	-6.63551	-1.89915	0	
2.1233	-3.59849	1.44336	0	
2.1240	-4.51725	1.74722	0	
2.1247	-5.41049	0.835627	0	
2.1253	-4.211	1.74722	0	
2.1260	-2.98598	1.74722	0	
2.1267	0.382818	0.835627	0	
2.1273	2.22034	1.74722	0	
2.1280	-3.90474	1.44336	0	
2.1287	-8.77929	2.35495	0	
2.1293	-4.211	3.87427	0	
2.1300	-0.842199	-0.683695	0	
2.1307	-2.06722	-4.06419	0	
2.1313	-2.06722	0.835627	0	
2.1320	-2.37347	1.44336	0	
2.1327	-5.10424	-2.50688	0	
2.1333	-6.94177	1.74722	0	
2.1340	-8.47304	5.3936	0	
2.1347	-8.77929	1.74722	0	
2.1353	-7.24802	1.74722	0	
2.1360	-8.16678	3.87427	0	
2.1367	-10.6168	1.74722	0	
2.1373	-8.16678	1.44336	0	
2.1380	-4.211	0.835627	0	
2.1387	-2.98598	-2.84873	0	
2.1393	-0.229691	-0.98756	0	
2.1400	2.50108	1.13949	0	
2.1407	4.03235	-2.20302	0	
2.1413	6.17613	-2.84873	0	
2.1420	8.93242	1.44336	0	
2.1427	9.23867	0.227898	0	
2.1433	10.4382	-1.89915	0	
2.1440	13.5007	-0.683695	0	
2.1447	12.2757	0.227898	0	
2.1453	8.01366	-0.379831	0	
2.1460	9.51941	-0.0759661	0	
2.1467	13.5007	1.44336	0	
2.1473	13.5007	-0.0759661	0	
2.1480	14.4195	-4.36805	0	
2.1487	17.4565	-5.58351	0	
2.1493	17.7628	-2.50688	0	
2.1500	15.3382	-1.59529	0	
2.1507	13.1945	-2.84873	0	
2.1513	8.93242	-0.379831	0	
2.1520	2.50108	1.44336	0	
2.1527	-1.14845	0.835627	0	
2.1533	-3.90474	0.531763	0	
2.1540	-7.55427	-0.98756	0	
2.1547	-11.5356	-2.50688	0	
2.1553	-14.5726	-0.98756	0	
2.1560	-17.0226	0.531763	0	
2.1567	-19.4472	0.835627	0	
2.1573	-21.2847	2.05109	0	
2.1580	-20.0597	2.05109	0	
2.1587	-17.3289	0.531763	0	
2.1593	-16.7164	1.13949	0	
2.1600	-16.7164	0.835627	0	
2.1607	-13.9601	-1.59529	0	
2.1613	-9.69805	-0.379831	0	
2.1620	-5.71675	1.13949	0	
2.1627	-1.76096	-0.98756	0	
2.1633	-0.229691	-1.59529	0	
2.1640	0.0765636	0.531763	0	
2.1647	4.3386	-0.379831	0	
2.1653	8.93242	-1.89915	0	
2.1660	7.40115	0.835627	0	
2.1667	4.3386	3.26654	0	
2.1673	5.86988	1.44336	0	
2.1680	7.7074	0.227898	0	
2.1687	8.01366	1.74722	0	
2.1693	6.78864	1.44336	0	
2.1700	5.25737	0.531763	0	
2.1707	5.86988	1.13949	0	
2.1713	8.93242	2.96268	0	
2.1720	8.62616	2.65881	0	
2.1727	6.17613	-0.0759661	0	
2.1733	7.09489	-2.84873	0	
2.1740	8.01366	-2.50688	0	
2.1747	5.56362	-1.89915	0	
2.1753	3.41984	-3.45646	0	
2.1760	4.3386	-1.89915	0	
2.1767	5.56362	1.13949	0	
2.1773	5.86988	-0.0759661	0	
2.1780	4.3386	-2.84873	0	
2.1787	0.689072	-0.379831	0	
2.1793	-4.82351	2.65881	0	
2.1800	-8.16678	2.65881	0	
2.1807	-7.55427	2.65881	0	
2.1813	-6.32926	2.05109	0	
2.1820	-6.94177	-0.0759661	0	
2.1827	-7.55427	-0.98756	0	
2.1833	-7.55427	-0.0759661	0	
2.1840	-8.47304	0.227898	0	
2.1847	-9.3918	0.531763	0	
2.1853	-7.24802	0.835627	0	
2.1860	-5.10424	0.835627	0	
2.1867	-1.76096	1.74722	0	
2.1873	3.72609	0.835627	0	
2.1880	6.78864	-1.29142	0	
2.1887	6.48238	-0.379831	0	
2.1893	8.01366	0.835627	0	
2.1900	8.93242	-0.98756	0	
2.1907	8.93242	-2.20302	0	
2.1913	9.23867	-2.20302	0	
2.1920	9.23867	-3.76032	0	
2.1927	9.51941	-3.15259	0	
2.1933	11.3569	-1.29142	0	
2.1940	10.7444	-2.84873	0	
2.1947	6.48238	-4.36805	0	
2.1953	3.41984	-4.06419	0	
2.1960	2.22034	-5.27965	0	
2.1967	-0.842199	-7.10283	0	
2.1973	-2.06722	-5.27965	0	
2.1980	-3.59849	-1.89915	0	
2.1987	-7.55427	0.227898	0	
2.1993	-11.2293	0.835627	0	
2.2000	-9.3918	-0.0759661	0	
2.2007	-4.82351	-0.98756	0	
2.2013	-2.06722	-3.15259	0	
2.2020	-0.535945	-4.97578	0	
2.2027	0.689072	-2.84873	0	
2.2033	2.50108	2.05109	0	
2.2040	5.56362	2.05109	0	
2.2047	6.48238	-0.683695	0	
2.2053	4.64486	0.835627	0	
2.2060	3.41984	2.96268	0	
2.2067	3.11359	2.65881	0	
2.2073	0.382818	1.74722	0	
2.2080	-3.29223	1.13949	0	
2.2087	-3.29223	0.531763	0	
2.2093	-3.90474	1.13949	0	
2.2100	-7.55427	1.74722	0	
2.2107	-8.16678	0.835627	0	
2.2113	-6.63551	1.13949	0	
2.2120	-8.47304	2.05109	0	
2.2127	-7.24802	-0.683695	0	
2.2133	-3.29223	-2.84873	0	
2.2140	-4.51725	-1.89915	0	
2.2147	-5.41049	-2.50688	0	
2.2153	-1.76096	-4.67192	0	
2.2160	-1.76096	-2.84873	0	
2.2167	-2.67973	-0.379831	0	
2.2173	1.30158	-1.89915	0	
2.2180	2.22034	-3.45646	0	
2.2187	-1.76096	-2.84873	0	
2.2193	-2.98598	-0.98756	0	
2.2200	-2.37347	0.531763	0	
2.2207	-2.98598	-0.0759661	0	
2.2213	-5.41049	-1.59529	0	
2.2220	-10.6168	0.531763	0	
2.2227	-14.8789	2.35495	0	
2.2233	-15.4914	2.65881	0	
2.2240	-16.7164	2.35495	0	
2.2247	-16.7164	2.05109	0	
2.2253	-12.7351	3.57041	0	
2.2260	-9.69805	6.34317	0	
2.2267	-8.47304	5.3936	0	
2.2273	-6.63551	3.87427	0	
2.2280	-5.10424	4.17814	0	
2.2287	-2.67973	2.96268	0	
2.2293	-1.14845	1.74722	0	
2.2300	-2.06722	2.65881	0	
2.2307	-2.06722	1.74722	0	
2.2313	-1.14845	1.74722	0	
2.2320	-1.14845	4.482	0	
2.2327	2.50108	3.57041	0	
2.2333	8.62616	-0.0759661	0	
2.2340	8.93242	-0.98756	0	
2.2347	6.48238	-1.29142	0	
2.2353	6.48238	-3.76032	0	
2.2360	7.09489	-3.15259	0	
2.2367	8.01366	-0.0759661	0	
2.2373	7.09489	0.835627	0	
2.2380	2.50108	-1.89915	0	
2.2387	-0.842199	-4.06419	0	
2.2393	0.689072	-2.84873	0	
2.2400	0.995327	-0.0759661	0	
2.2407	-0.535945	-0.98756	0	
2.2413	-0.229691	-3.45646	0	
2.2420	0.689072	-3.76032	0	
2.2427	0.689072	-2.84873	0	
2.2433	0.689072	-2.20302	0	
2.2440	1.60784	-1.59529	0	
2.2447	2.50108	0.531763	0	
2.2453	2.80733	0.835627	0	
2.2460	2.50108	-1.29142	0	
2.2467	2.22034	-1.89915	0	
2.2473	2.50108	-0.98756	0	
2.2480	3.41984	-1.29142	0	
2.2487	4.3386	-1.89915	0	
2.2493	5.25737	-2.50688	0	
2.2500	3.41984	-3.45646	0	
2.2507	1.60784	-2.84873	0	
2.2513	2.50108	-1.59529	0	
2.2520	2.50108	-0.98756	0	
2.2527	-0.229691	0.835627	0	
2.2533	-1.14845	1.74722	0	
2.2540	-1.14845	0.835627	0	
2.2547	-2.67973	2.65881	0	
2.2553	-3.90474	3.57041	0	
2.2560	-4.211	0.531763	0	
2.2567	-6.023	1.74722	0	
2.2573	-6.94177	5.3936	0	
2.2580	-4.51725	2.96268	0	
2.2587	-2.37347	1.44336	0	
2.2593	-3.29223	3.26654	0	
2.2600	-2.98598	0.531763	0	
2.2607	0.995327	-1.89915	0	
2.2613	5.25737	2.05109	0	
2.2620	7.40115	4.78587	0	
2.2627	7.09489	2.35495	0	
2.2633	5.86988	1.44336	0	
2.2640	6.17613	2.35495	0	
2.2647	7.7074	2.65881	0	
2.2653	10.1319	2.65881	0	
2.2660	12.8882	2.05109	0	
2.2667	14.4195	1.44336	0	
2.2673	15.3382	0.835627	0	
2.2680	16.257	-0.683695	0	
2.2687	16.844	-2.50688	0	
2.2693	15.3382	-3.15259	0	
2.2700	12.5819	-4.36805	0	
2.2707	11.6632	-4.97578	0	
2.2713	10.4382	-3.76032	0	
2.2720	7.09489	-2.84873	0	
2.2727	2.80733	-2.50688	0	
2.2733	0.0765636	-0.98756	0	
2.2740	-3.90474	-0.683695	0	
2.2747	-7.55427	-0.0759661	0	
2.2753	-8.47304	0.835627	0	
2.2760	-10.3106	-0.98756	0	
2.2767	-13.3476	-3.15259	0	
2.2773	-14.5726	-1.89915	0	
2.2780	-15.4914	-0.379831	0	
2.2787	-17.6351	-0.0759661	0	
2.2793	-16.4101	2.05109	0	
2.2800	-10.3106	1.44336	0	
2.2807	-7.24802	-1.59529	0	
2.2813	-8.16678	-1.89915	0	
2.2820	-9.3918	-1.59529	0	
2.2827	-9.69805	-0.683695	0	
2.2833	-9.3918	1.74722	0	
2.2840	-8.47304	1.74722	0	
2.2847	-6.32926	-0.0759661	0	
2.2853	-2.98598	0.835627	0	
2.2860	-0.229691	0.531763	0	
2.2867	-0.229691	-0.98756	0	
2.2873	0.0765636	-0.379831	0	
2.2880	2.50108	-0.98756	0	
2.2887	4.3386	-1.89915	0	
2.2893	3.41984	0.835627	0	
2.2900	3.41984	1.44336	0	
2.2907	4.3386	-1.89915	0	
2.2913	4.64486	-2.84873	0	
2.2920	4.03235	-0.683695	0	
2.2927	3.11359	0.835627	0	
2.2933	1.60784	0.531763	0	
2.2940	-0.229691	-1.29142	0	
2.2947	-0.229691	-0.98756	0	
2.2953	-0.229691	0.835627	0	
2.2960	-1.76096	-1.89915	0	
2.2967	-3.90474	-3.15259	0	
2.2973	-4.82351	1.74722	0	
2.2980	-5.10424	3.87427	0	
2.2987	-5.71675	-0.0759661	0	
2.2993	-5.71675	-1.59529	0	
2.3000	-4.82351	0.227898	0	
2.3007	-3.59849	-0.0759661	0	
2.3013	-1.14845	-1.89915	0	
2.3020	0.689072	-2.20302	0	
2.3027	-0.229691	0.531763	0	
2.3033	-0.535945	1.74722	0	
2.3040	0.995327	-1.59529	0	
2.3047	2.50108	-1.89915	0	
2.3053	2.50108	2.65881	0	
2.3060	0.995327	2.65881	0	
2.3067	-0.229691	-0.98756	0	
2.3073	0.0765636	0.531763	0	
2.3080	-0.229691	3.26654	0	
2.3087	-2.98598	2.35495	0	
2.3093	-3.90474	2.35495	0	
2.3100	-2.98598	2.05109	0	
2.3107	-3.90474	0.835627	0	
2.3113	-5.41049	1.74722	0	
2.3120	-4.82351	1.74722	0	
2.3127	-6.63551	-0.0759661	0	
2.3133	-8.16678	0.835627	0	
2.3140	-6.023	2.05109	0	
2.3147	-4.211	-1.29142	0	
2.3153	-5.10424	-2.20302	0	
2.3160	-3.59849	1.74722	0	
2.3167	-0.842199	0.227898	0	
2.3173	-0.842199	-5.58351	0	
2.3180	0.689072	-6.4951	0	
2.3187	3.41984	-2.20302	0	
2.3193	5.25737	-1.29142	0	
2.3200	7.40115	-4.67192	0	
2.3207	9.82566	-5.27965	0	
2.3213	8.31991	-3.15259	0	
2.3220	6.48238	-3.76032	0	
2.3227	8.62616	-4.67192	0	
2.3233	8.31991	-1.89915	0	
2.3240	4.95111	-2.20302	0	
2.3247	5.56362	-4.67192	0	
2.3253	8.01366	-2.20302	0	
2.3260	5.56362	0.227898	0	
2.3267	2.80733	-1.29142	0	
2.3273	3.11359	-1.59529	0	
2.3280	1.91409	0.531763	0	
2.3287	-1.45471	0.835627	0	
2.3293	-0.842199	-0.379831	0	
2.3300	2.22034	-1.59529	0	
2.3307	0.0765636	-0.98756	0	
2.3313	-4.211	1.74722	0	
2.3320	-2.37347	2.65881	0	
2.3327	0.382818	1.74722	0	
2.3333	-2.06722	3.26654	0	
2.3340	-2.98598	2.65881	0	
2.3347	-0.535945	-0.98756	0	
2.3353	-1.14845	-0.98756	0	
2.3360	-0.229691	1.74722	0	
2.3367	4.95111	0.835627	0	
2.3373	7.09489	-1.59529	0	
2.3380	6.17613	-2.84873	0	
2.3387	5.25737	-2.84873	0	
2.3393	2.50108	-0.683695	0	
2.3400	1.60784	-0.683695	0	
2.3407	3.41984	-3.15259	0	
2.3413	4.3386	-2.20302	0	
2.3420	4.03235	0.835627	0	
2.3427	4.64486	-1.29142	0	
2.3433	4.3386	-4.67192	0	
2.3440	4.64486	-2.84873	0	
2.3447	8.93242	1.74722	0	
2.3453	11.6632	2.35495	0	
2.3460	10.7444	1.74722	0	
2.3467	9.23867	1.44336	0	
2.3473	7.40115	0.531763	0	
2.3480	3.41984	0.531763	0	
2.3487	-1.14845	2.35495	0	
2.3493	-3.29223	3.26654	0	
2.3500	-6.023	2.96268	0	
2.3507	-11.2293	3.26654	0	
2.3513	-13.9601	2.65881	0	
2.3520	-12.1481	1.74722	0	
2.3527	-11.5356	1.44336	0	
2.3533	-13.9601	0.835627	0	
2.3540	-13.6538	1.13949	0	
2.3547	-12.1481	2.35495	0	
2.3553	-11.5356	-0.0759661	0	
2.3560	-10.9231	-3.45646	0	
2.3567	-9.3918	-1.89915	0	
2.3573	-8.47304	-0.379831	0	
2.3580	-8.47304	-0.98756	0	
2.3587	-10.0043	0.531763	0	
2.3593	-9.3918	2.05109	0	
2.3600	-6.023	1.74722	0	
2.3607	-4.211	2.05109	0	
2.3613	-5.10424	2.35495	0	
2.3620	-4.82351	0.835627	0	
2.3627	-2.67973	-1.89915	0	
2.3633	-0.535945	-3.76032	0	
2.3640	5.25737	-2.84873	0	
2.3647	15.9507	-2.20302	0	
2.3653	20.519	-3.76032	0	
2.3660	16.844	-3.45646	0	
2.3667	15.3382	-2.84873	0	
2.3673	16.257	-4.97578	0	
2.3680	12.5819	-6.19124	0	
2.3687	7.09489	-3.76032	0	
2.3693	4.03235	-2.84873	0	
2.3700	1.30158	-2.84873	0	
2.3707	0.382818	-2.84873	0	
2.3713	2.22034	-4.06419	0	
2.3720	1.91409	-4.67192	0	
2.3727	-1.14845	-3.76032	0	
2.3733	-3.90474	-3.76032	0	
2.3740	-6.32926	-2.20302	0	
2.3747	-11.2293	2.05109	0	
2.3753	-13.9601	3.26654	0	
2.3760	-11.5356	0.531763	0	
2.3767	-9.3918	-0.98756	0	
2.3773	-11.8418	0.531763	0	
2.3780	-13.9601	1.13949	0	
2.3787	-13.3476	0.531763	0	
2.3793	-14.8789	0.835627	0	
2.3800	-15.7976	1.74722	0	
2.3807	-11.5356	1.44336	0	
2.3813	-9.69805	0.835627	0	
2.3820	-10.9231	1.74722	0	
2.3827	-9.69805	1.74722	0	
2.3833	-8.47304	0.835627	0	
2.3840	-8.47304	1.74722	0	
2.3847	-4.82351	2.35495	0	
2.3853	-1.14845	-0.379831	0	
2.3860	-0.229691	-0.0759661	0	
2.3867	4.3386	3.87427	0	
2.3873	9.51941	4.482	0	
2.3880	9.51941	1.44336	0	
2.3887	9.82566	1.44336	0	
2.3893	12.8882	1.74722	0	
2.3900	12.5819	-1.59529	0	
2.3907	9.51941	-2.84873	0	
2.3913	8.62616	-0.379831	0	
2.3920	6.17613	0.227898	0	
2.3927	2.50108	-2.20302	0	
2.3933	3.11359	-2.84873	0	
2.3940	3.72609	-1.29142	0	
2.3947	0.689072	-3.76032	0	
2.3953	0.0765636	-6.4951	0	
2.3960	2.22034	-4.67192	0	
2.3967	-0.229691	-1.89915	0	
2.3973	-2.06722	-3.45646	0	
2.3980	0.689072	-4.06419	0	
2.3987	1.60784	-1.59529	0	
2.3993	-0.229691	-0.0759661	0	
2.4000	0.995327	-1.59529	0	
2.4007	1.60784	-0.0759661	0	
2.4013	-1.14845	2.65881	0	
2.4020	0.382818	1.74722	0	
2.4027	4.03235	-0.98756	0	
2.4033	3.72609	-1.89915	0	
2.4040	3.72609	-0.0759661	0	
2.4047	5.56362	0.531763	0	
2.4053	4.64486	-0.379831	0	
2.4060	7.09489	-0.0759661	0	
2.4067	14.4195	-0.0759661	0	
2.4073	15.3382	-3.15259	0	
2.4080	12.8882	-4.36805	0	
2.4087	15.9507	-1.89915	0	
2.4093	18.069	-0.98756	0	
2.4100	15.9507	-1.89915	0	
2.4107	13.807	-0.98756	0	
2.4113	9.23867	-0.683695	0	
2.4120	1.30158	-1.89915	0	
2.4127	-3.59849	-3.45646	0	
2.4133	-6.94177	-4.67192	0	
2.4140	-12.4288	-3.76032	0	
2.4147	-16.7164	-0.683695	0	
2.4153	-19.7534	-1.59529	0	
2.4160	-24.6535	-3.45646	0	
2.4167	-24.9597	0.531763	0	
2.4173	-21.2847	3.87427	0	
2.4180	-21.2847	2.65881	0	
2.4187	-22.2034	2.96268	0	
2.4193	-19.4472	4.482	0	
2.4200	-15.4914	2.05109	0	
2.4207	-12.7351	0.835627	0	
2.4213	-9.3918	2.35495	0	
2.4220	-5.10424	2.35495	0	
2.4227	-1.14845	3.57041	0	
2.4233	1.60784	7.25477	0	
2.4240	0.995327	5.69746	0	
2.4247	-0.535945	0.227898	0	
2.4253	1.60784	-0.0759661	0	
2.4260	5.86988	2.96268	0	
2.4267	7.09489	1.74722	0	
2.4273	6.78864	-1.29142	0	
2.4280	11.6632	-2.20302	0	
2.4287	19.294	-2.20302	0	
2.4293	22.0503	-1.59529	0	
2.4300	23.5816	-0.379831	0	
2.4307	25.3936	-0.0759661	0	
2.4313	22.3566	-1.29142	0	
2.4320	17.1502	-2.84873	0	
2.4327	12.5819	-3.76032	0	
2.4333	6.48238	-4.97578	0	
2.4340	1.60784	-4.97578	0	
2.4347	-0.842199	-1.29142	0	
2.4353	-5.71675	0.531763	0	
2.4360	-10.9231	-2.84873	0	
2.4367	-11.2293	-3.76032	0	
2.4373	-10.0043	-0.98756	0	
2.4380	-8.77929	-0.379831	0	
2.4387	-5.71675	-2.50688	0	
2.4393	-4.51725	-2.20302	0	
2.4400	-5.41049	-1.29142	0	
2.4407	-4.82351	-1.29142	0	
2.4413	-3.90474	-1.89915	0	
2.4420	-3.90474	-0.683695	0	
2.4427	-2.67973	1.74722	0	
2.4433	-1.76096	1.74722	0	
2.4440	-3.59849	0.835627	0	
2.4447	-6.63551	3.57041	0	
2.4453	-4.82351	6.00132	0	
2.4460	2.50108	3.57041	0	
2.4467	7.40115	1.74722	0	
2.4473	8.93242	2.96268	0	
2.4480	8.93242	3.57041	0	
2.4487	6.17613	4.17814	0	
2.4493	2.50108	3.57041	0	
2.4500	1.60784	1.74722	0	
2.4507	0.689072	2.65881	0	
2.4513	-1.76096	4.482	0	
2.4520	-2.06722	2.05109	0	
2.4527	-2.37347	0.227898	0	
2.4533	-5.71675	1.74722	0	
2.4540	-7.86053	1.13949	0	
2.4547	-8.77929	-1.89915	0	
2.4553	-11.8418	-0.98756	0	
2.4560	-13.9601	1.74722	0	
2.4567	-13.6538	1.44336	0	
2.4573	-13.9601	0.227898	0	
2.4580	-13.9601	1.74722	0	
2.4587	-11.2293	2.65881	0	
2.4593	-7.86053	2.05109	0	
2.4600	-6.94177	1.44336	0	
2.4607	-5.10424	0.531763	0	
2.4613	-1.76096	-0.379831	0	
2.4620	0.382818	0.835627	0	
2.4627	1.60784	0.835627	0	
2.4633	4.03235	-1.29142	0	
2.4640	5.56362	-0.683695	0	
2.4647	5.56362	1.74722	0	
2.4653	6.78864	0.835627	0	
2.4660	7.09489	-0.379831	0	
2.4667	6.17613	0.531763	0	
2.4673	9.23867	-0.0759661	0	
2.4680	13.1945	-1.59529	0	
2.4687	13.1945	-1.29142	0	
2.4693	14.1132	-2.20302	0	
2.4700	17.1502	-3.76032	0	
2.4707	18.6815	-2.50688	0	
2.4713	19.294	-0.0759661	0	
2.4720	20.8253	0.531763	0	
2.4727	19.9065	0.835627	0	
2.4733	15.6445	0.227898	0	
2.4740	7.09489	-0.98756	0	
2.4747	-1.45471	-0.683695	0	
2.4753	-3.90474	-1.59529	0	
2.4760	-5.71675	-4.06419	0	
2.4767	-11.2293	-2.84873	0	
2.4773	-15.1851	0.531763	0	
2.4780	-17.6351	-1.59529	0	
2.4787	-21.5909	-3.76032	0	
2.4793	-21.2847	-2.50688	0	
2.4800	-16.7164	-0.98756	0	
2.4807	-16.1039	-0.98756	0	
2.4813	-17.3289	-1.29142	0	
2.4820	-12.1481	-1.59529	0	
2.4827	-6.023	-0.379831	0	
2.4833	-7.24802	1.13949	0	
2.4840	-9.08555	2.05109	0	
2.4847	-6.32926	2.35495	0	
2.4853	-4.82351	0.835627	0	
2.4860	-2.98598	-1.29142	0	
2.4867	2.50108	-1.59529	0	
2.4873	6.17613	-2.20302	0	
2.4880	6.78864	-2.84873	0	
2.4887	9.23867	-0.98756	0	
2.4893	12.5819	-2.20302	0	
2.4900	12.8882	-6.4951	0	
2.4907	14.1132	-4.67192	0	
2.4913	16.257	-1.89915	0	
2.4920	15.3382	-5.58351	0	
2.4927	10.1319	-8.01443	0	
2.4933	6.78864	-3.76032	0	
2.4940	8.31991	-1.89915	0	
2.4947	8.01366	-4.06419	0	
2.4953	1.91409	-4.67192	0	
2.4960	-0.842199	-3.45646	0	
2.4967	0.689072	-2.84873	0	
2.4973	-2.06722	-2.84873	0	
2.4980	-6.63551	-1.59529	0	
2.4987	-8.47304	0.531763	0	
2.4993	-10.6168	0.835627	0	
2.5000	-12.4288	-1.59529	0	
2.5007	-12.7351	-1.89915	0	
2.5013	-13.3476	0.227898	0	
2.5020	-11.8418	-0.0759661	0	
2.5027	-8.77929	-2.50688	0	
2.5033	-9.3918	-1.89915	0	
2.5040	-9.08555	-0.0759661	0	
2.5047	-3.59849	0.835627	0	
2.5053	0.0765636	1.74722	0	
2.5060	0.0765636	3.57041	0	
2.5067	1.60784	3.57041	0	
2.5073	3.41984	2.05109	0	
2.5080	5.25737	1.13949	0	
2.5087	8.01366	1.74722	0	
2.5093	9.82566	1.44336	0	
2.5100	10.4382	-0.0759661	0	
2.5107	10.1319	1.13949	0	
2.5113	8.62616	2.96268	0	
2.5120	7.40115	2.65881	0	
2.5127	7.40115	2.35495	0	
2.5133	4.3386	1.44336	0	
2.5140	0.995327	-1.29142	0	
2.5147	0.0765636	-2.50688	0	
2.5153	-2.67973	-1.89915	0	
2.5160	-7.55427	-2.20302	0	
2.5167	-10.0043	-0.683695	0	
2.5173	-10.0043	2.35495	0	
2.5180	-9.3918	0.835627	0	
2.5187	-7.55427	-1.89915	0	
2.5193	-4.82351	-1.29142	0	
2.5200	-1.14845	-0.683695	0	
2.5207	2.50108	-0.98756	0	
2.5213	4.95111	-0.98756	0	
2.5220	3.41984	-0.98756	0	
2.5227	0.689072	-1.89915	0	
2.5233	0.0765636	-2.84873	0	
2.5240	2.50108	-1.29142	0	
2.5247	6.17613	0.531763	0	
2.5253	8.62616	0.531763	0	
2.5260	6.78864	1.13949	0	
2.5267	3.72609	2.96268	0	
2.5273	3.41984	2.96268	0	
2.5280	4.3386	3.57041	0	
2.5287	4.64486	6.00132	0	
2.5293	4.64486	4.78587	0	
2.5300	5.25737	0.835627	0	
2.5307	5.25737	0.835627	0	
2.5313	4.03235	1.13949	0	
2.5320	1.91409	0.835627	0	
2.5327	0.0765636	2.65881	0	
2.5333	-0.535945	3.57041	0	
2.5340	-1.14845	2.05109	0	
2.5347	-2.67973	2.65881	0	
2.5353	-3.90474	3.26654	0	
2.5360	-6.63551	0.531763	0	
2.5367	-10.3106	-1.89915	0	
2.5373	-12.1481	-1.59529	0	
2.5380	-13.0413	-1.59529	0	
2.5387	-14.8789	-1.59529	0	
2.5393	-15.1851	-0.683695	0	
2.5400	-13.3476	-0.0759661	0	
2.5407	-13.6538	1.13949	0	
2.5413	-13.3476	2.35495	0	
2.5420	-10.9231	-0.0759661	0	
2.5427	-11.2293	-3.15259	0	
2.5433	-11.2293	-0.683695	0	
2.5440	-4.211	2.65881	0	
2.5447	2.50108	2.05109	0	
2.5453	2.50108	0.835627	0	
2.5460	3.11359	-0.0759661	0	
2.5467	7.09489	-1.89915	0	
2.5473	8.62616	0.227898	0	
2.5480	8.01366	3.87427	0	
2.5487	7.40115	2.35495	0	
2.5493	6.17613	-0.0759661	0	
2.5500	8.01366	1.74722	0	
2.5507	10.4382	3.26654	0	
2.5513	10.1319	1.74722	0	
2.5520	10.1319	-0.0759661	0	
2.5527	10.4382	-1.89915	0	
2.5533	6.78864	-3.76032	0	
2.5540	3.72609	-4.67192	0	
2.5547	5.56362	-4.67192	0	
2.5553	7.7074	-3.76032	0	
2.5560	8.93242	-4.06419	0	
2.5567	11.0507	-6.4951	0	
2.5573	10.1319	-6.4951	0	
2.5580	4.95111	-4.67192	0	
2.5587	2.50108	-5.58351	0	
2.5593	1.30158	-6.4951	0	
2.5600	-2.37347	-3.76032	0	
2.5607	-4.211	-1.59529	0	
2.5613	-4.211	-1.89915	0	
2.5620	-7.55427	-0.0759661	0	
2.5627	-11.2293	1.74722	0	
2.5633	-12.1481	1.44336	0	
2.5640	-12.1481	2.65881	0	
2.5647	-12.7351	5.69746	0	
2.5653	-12.4288	6.34317	0	
2.5660	-12.1481	5.69746	0	
2.5667	-10.9231	7.55863	0	
2.5673	-7.55427	8.16636	0	
2.5680	-5.71675	5.3936	0	
2.5687	-5.71675	2.65881	0	
2.5693	-6.023	1.44336	0	
2.5700	-4.82351	0.835627	0	
2.5707	-1.14845	1.13949	0	
2.5713	4.3386	0.835627	0	
2.5720	6.17613	-0.683695	0	
2.5727	4.64486	-2.84873	0	
2.5733	5.25737	-4.67192	0	
2.5740	8.01366	-6.19124	0	
2.5747	8.31991	-5.27965	0	
2.5753	8.93242	-5.27965	0	
2.5760	10.7444	-5.27965	0	
2.5767	9.82566	-2.84873	0	
2.5773	7.09489	-0.683695	0	
2.5780	5.86988	-1.59529	0	
2.5787	4.03235	-2.84873	0	
2.5793	1.60784	-2.50688	0	
2.5800	0.689072	-1.89915	0	
2.5807	1.30158	-1.29142	0	
2.5813	1.30158	-2.50688	0	
2.5820	0.0765636	-3.45646	0	
2.5827	0.0765636	-1.89915	0	
2.5833	1.30158	-0.98756	0	
2.5840	1.91409	-2.84873	0	
2.5847	2.80733	-2.20302	0	
2.5853	4.3386	-0.379831	0	
2.5860	4.95111	-0.0759661	0	
2.5867	4.95111	0.835627	0	
2.5873	6.78864	2.05109	0	
2.5880	7.40115	0.531763	0	
2.5887	4.3386	-0.0759661	0	
2.5893	1.91409	1.13949	0	
2.5900	-0.229691	1.44336	0	
2.5907	-5.71675	2.96268	0	
2.5913	-12.7351	6.00132	0	
2.5920	-14.8789	5.3936	0	
2.5927	-12.1481	3.57041	0	
2.5933	-10.9231	3.87427	0	
2.5940	-13.9601	1.74722	0	
2.5947	-14.8789	-1.29142	0	
2.5953	-12.7351	-1.89915	0	
2.5960	-11.8418	-3.15259	0	
2.5967	-11.8418	-3.45646	0	
2.5973	-6.32926	-0.98756	0	
2.5980	1.60784	-1.59529	0	
2.5987	4.95111	-3.76032	0	
2.5993	4.95111	-2.84873	0	
2.6000	4.3386	-3.76032	0	
2.6007	2.80733	-5.58351	0	
2.6013	2.22034	-1.59529	0	
2.6020	3.11359	1.74722	0	
2.6027	1.30158	-2.20302	0	
2.6033	-2.06722	-2.20302	0	
2.6040	-0.535945	2.05109	0	
2.6047	-0.229691	2.35495	0	
2.6053	-5.71675	0.835627	0	
2.6060	-8.77929	1.74722	0	
2.6067	-6.32926	0.531763	0	
2.6073	-5.10424	-0.0759661	0	
2.6080	-4.51725	2.65881	0	
2.6087	-0.229691	2.35495	0	
2.6093	3.41984	-0.683695	0	
2.6100	5.25737	-0.98756	0	
2.6107	6.17613	0.835627	0	
2.6113	6.17613	2.65881	0	
2.6120	6.78864	2.05109	0	
2.6127	7.40115	-0.98756	0	
2.6133	6.17613	-1.29142	0	
2.6140	4.95111	-0.0759661	0	
2.6147	3.72609	-2.20302	0	
2.6153	1.60784	-3.76032	0	
2.6160	-0.229691	-2.84873	0	
2.6167	-0.842199	-1.59529	0	
2.6173	-1.76096	-0.0759661	0	
2.6180	-2.06722	-1.29142	0	
2.6187	-1.76096	-4.06419	0	
2.6193	-1.76096	-2.20302	0	
2.6200	0.689072	0.227898	0	
2.6207	5.25737	-2.50688	0	
2.6213	7.7074	-3.15259	0	
2.6220	9.23867	-1.89915	0	
2.6227	14.1132	-3.76032	0	
2.6233	17.7628	-4.67192	0	
2.6240	15.3382	-1.89915	0	
2.6247	10.1319	-0.379831	0	
2.6253	9.23867	0.227898	0	
2.6260	10.7444	0.835627	0	
2.6267	6.17613	-0.0759661	0	
2.6273	-1.14845	0.835627	0	
2.6280	-2.98598	1.74722	0	
2.6287	-2.37347	0.531763	0	
2.6293	-6.023	-0.379831	0	
2.6300	-10.9231	1.13949	0	
2.6307	-13.0413	2.65881	0	
2.6313	-16.7164	2.65881	0	
2.6320	-20.9784	2.35495	0	
2.6327	-21.5909	3.26654	0	
2.6333	-20.6722	3.57041	0	
2.6340	-19.7534	-0.0759661	0	
2.6347	-16.7164	-2.84873	0	
2.6353	-12.1481	-0.0759661	0	
2.6360	-7.24802	1.74722	0	
2.6367	-4.82351	-0.0759661	0	
2.6373	-4.82351	-0.98756	0	
2.6380	-3.59849	-0.0759661	0	
2.6387	1.91409	-0.683695	0	
2.6393	5.86988	-1.29142	0	
2.6400	6.17613	-0.683695	0	
2.6407	7.7074	-0.683695	0	
2.6413	12.2757	-0.683695	0	
2.6420	13.5007	-0.98756	0	
2.6427	12.5819	-1.59529	0	
2.6433	14.4195	0.227898	0	
2.6440	15.032	1.13949	0	
2.6447	8.62616	-1.59529	0	
2.6453	3.41984	-0.683695	0	
2.6460	3.41984	2.05109	0	
2.6467	1.91409	-0.683695	0	
2.6473	-3.59849	-0.98756	0	
2.6480	-7.24802	4.78587	0	
2.6487	-6.63551	5.3936	0	
2.6493	-6.63551	3.26654	0	
2.6500	-9.08555	5.3936	0	
2.6507	-9.3918	4.78587	0	
2.6513	-8.47304	1.74722	0	
2.6520	-7.24802	2.35495	0	
2.6527	-2.06722	2.65881	0	
2.6533	2.50108	1.74722	0	
2.6540	1.30158	1.74722	0	
2.6547	1.91409	-0.0759661	0	
2.6553	8.01366	-3.76032	0	
2.6560	11.0507	-4.67192	0	
2.6567	9.82566	-4.67192	0	
2.6573	8.01366	-4.67192	0	
2.6580	7.40115	-5.58351	0	
2.6587	12.8882	-6.4951	0	
2.6593	18.6815	-5.27965	0	
2.6600	14.7257	-2.84873	0	
2.6607	9.51941	-2.84873	0	
2.6613	8.93242	-3.76032	0	
2.6620	4.64486	-3.76032	0	
2.6627	-2.37347	-3.45646	0	
2.6633	-7.55427	-2.84873	0	
2.6640	-11.2293	-0.98756	0	
2.6647	-11.2293	0.227898	0	
2.6653	-12.4288	0.531763	0	
2.6660	-20.9784	0.835627	0	
2.6667	-25.5722	1.74722	0	
2.6673	-22.2034	2.35495	0	
2.6680	-19.4472	0.835627	0	
2.6687	-16.7164	-0.0759661	0	
2.6693	-14.2663	0.835627	0	
2.6700	-15.1851	2.96268	0	
2.6707	-10.9231	4.482	0	
2.6713	-1.76096	4.17814	0	
2.6720	2.50108	2.35495	0	
2.6727	5.25737	1.44336	0	
2.6733	10.1319	1.13949	0	
2.6740	14.7257	-1.89915	0	
2.6747	21.1316	-3.76032	0	
2.6753	25.3936	-3.76032	0	
2.6760	21.4378	-3.76032	0	
2.6767	15.9507	-4.97578	0	
2.6773	17.4565	-5.58351	0	
2.6780	19.294	-7.4067	0	
2.6787	18.069	-8.31829	0	
2.6793	17.1502	-7.10283	0	
2.6800	15.032	-7.71056	0	
2.6807	10.7444	-7.4067	0	
2.6813	6.17613	-2.84873	0	
2.6820	0.689072	-0.0759661	0	
2.6827	-6.63551	0.227898	0	
2.6833	-11.8418	2.96268	0	
2.6840	-13.6538	5.3936	0	
2.6847	-13.6538	6.00132	0	
2.6853	-12.1481	7.55863	0	
2.6860	-10.6168	8.77409	0	
2.6867	-10.0043	7.25477	0	
2.6873	-7.24802	5.08973	0	
2.6880	-3.90474	2.65881	0	
2.6887	-4.82351	-0.98756	0	
2.6893	-6.023	-1.89915	0	
2.6900	-2.98598	-0.0759661	0	
2.6907	-1.14845	1.13949	0	
2.6913	-2.67973	-0.0759661	0	
2.6920	-2.37347	-2.84873	0	
2.6927	-0.842199	-4.06419	0	
2.6933	0.995327	-4.67192	0	
2.6940	3.41984	-5.88737	0	
2.6947	4.3386	-4.97578	0	
2.6953	0.995327	-2.84873	0	
2.6960	-3.29223	-3.15259	0	
2.6967	-8.47304	-3.15259	0	
2.6973	-15.7976	1.74722	0	
2.6980	-20.3659	3.87427	0	
2.6987	-18.8602	2.35495	0	
2.6993	-16.1039	2.96268	0	
2.7000	-15.7976	3.26654	0	
2.7007	-15.7976	2.05109	0	
2.7013	-13.6538	4.78587	0	
2.7020	-11.2293	7.25477	0	
2.7027	-11.2293	5.3936	0	
2.7033	-11.2293	2.65881	0	
2.7040	-10.3106	1.13949	0	
2.7047	-9.3918	-0.379831	0	
2.7053	-8.77929	1.74722	0	
2.7060	-6.023	4.17814	0	
2.7067	-3.29223	2.35495	0	
2.7073	-2.98598	0.531763	0	
2.7080	-2.98598	1.13949	0	
2.7087	-0.535945	2.05109	0	
2.7093	0.0765636	3.57041	0	
2.7100	-2.98598	6.00132	0	
2.7107	-5.71675	6.64704	0	
2.7113	-6.023	4.482	0	
2.7120	-7.55427	2.05109	0	
2.7127	-10.3106	2.65881	0	
2.7133	-10.6168	3.26654	0	
2.7140	-8.77929	-0.683695	0	
2.7147	-8.77929	-3.45646	0	
2.7153	-8.77929	-0.98756	0	
2.7160	-5.71675	-0.379831	0	
2.7167	-1.14845	-2.84873	0	
2.7173	2.80733	-3.76032	0	
2.7180	6.17613	-3.76032	0	
2.7187	7.40115	-3.45646	0	
2.7193	9.51941	-0.98756	0	
2.7200	11.3569	-0.683695	0	
2.7207	10.4382	-2.50688	0	
2.7213	10.1319	-1.89915	0	
2.7220	13.807	-0.0759661	0	
2.7227	15.9507	-1.29142	0	
2.7233	14.7257	-2.20302	0	
2.7240	15.032	-1.59529	0	
2.7247	15.3382	-1.89915	0	
2.7253	12.2757	-1.29142	0	
2.7260	8.01366	0.835627	0	
2.7267	5.25737	-0.0759661	0	
2.7273	4.64486	-3.76032	0	
2.7280	7.40115	-3.76032	0	
2.7287	10.7444	-1.59529	0	
2.7293	11.3569	-3.15259	0	
2.7300	11.3569	-4.67192	0	
2.7307	10.1319	-2.84873	0	
2.7313	6.78864	-1.29142	0	
2.7320	4.3386	-2.50688	0	
2.7327	3.11359	-3.15259	0	
2.7333	1.91409	-2.84873	0	
2.7340	2.22034	-3.15259	0	
2.7347	1.60784	-3.45646	0	
2.7353	-3.90474	-0.98756	0	
2.7360	-7.55427	2.35495	0	
2.7367	-6.023	2.65881	0	
2.7373	-6.32926	0.835627	0	
2.7380	-7.55427	-0.0759661	0	
2.7387	-4.82351	0.227898	0	
2.7393	-2.06722	0.531763	0	
2.7400	-0.229691	0.835627	0	
2.7407	2.22034	-0.379831	0	
2.7413	4.03235	-2.20302	0	
2.7420	5.86988	-3.15259	0	
2.7427	9.51941	-3.76032	0	
2.7433	10.7444	-3.45646	0	
2.7440	10.4382	-0.683695	0	
2.7447	13.1945	-0.98756	0	
2.7453	17.4565	-3.76032	0	
2.7460	18.6815	-3.76032	0	
2.7467	16.844	-0.379831	0	
2.7473	12.5819	0.835627	0	
2.7480	8.93242	1.13949	0	
2.7487	5.86988	0.531763	0	
2.7493	0.689072	-1.29142	0	
2.7500	-5.71675	-0.98756	0	
2.7507	-8.16678	-0.0759661	0	
2.7513	-10.9231	0.835627	0	
2.7520	-14.8789	2.65881	0	
2.7527	-16.7164	5.3936	0	
2.7533	-16.7164	4.482	0	
2.7540	-17.6351	0.531763	0	
2.7547	-17.0226	-1.29142	0	
2.7553	-15.1851	-0.0759661	0	
2.7560	-13.6538	-0.0759661	0	
2.7567	-12.4288	-0.683695	0	
2.7573	-11.8418	0.835627	0	
2.7580	-10.3106	0.531763	0	
2.7587	-8.47304	-3.45646	0	
2.7593	-8.77929	-2.84873	0	
2.7600	-7.86053	0.531763	0	
2.7607	-2.37347	-0.683695	0	
2.7613	5.56362	-3.15259	0	
2.7620	14.1132	-3.15259	0	
2.7627	22.3566	-3.76032	0	
2.7633	27.2311	-4.67192	0	
2.7640	28.1499	-3.45646	0	
2.7647	26.0061	-3.45646	0	
2.7653	22.6628	-4.06419	0	
2.7660	18.3753	-3.15259	0	
2.7667	12.5819	-3.15259	0	
2.7673	7.09489	-3.76032	0	
2.7680	2.50108	-2.50688	0	
2.7687	-1.45471	-1.89915	0	
2.7693	-6.32926	-3.76032	0	
2.7700	-11.5356	-2.20302	0	
2.7707	-15.1851	0.227898	0	
2.7713	-14.8789	0.227898	0	
2.7720	-15.7976	0.835627	0	
2.7727	-18.5539	1.74722	0	
2.7733	-17.0226	-0.379831	0	
2.7740	-12.1481	-0.683695	0	
2.7747	-12.1481	2.65881	0	
2.7753	-13.9601	2.96268	0	
2.7760	-13.6538	-0.0759661	0	
2.7767	-13.0413	1.44336	0	
2.7773	-11.2293	4.78587	0	
2.7780	-9.3918	4.78587	0	
2.7787	-9.3918	3.57041	0	
2.7793	-9.3918	4.17814	0	
2.7800	-8.47304	4.482	0	
2.7807	-7.55427	2.96268	0	
2.7813	-4.211	1.74722	0	
2.7820	-0.842199	0.835627	0	
2.7827	-0.229691	1.74722	0	
2.7833	1.60784	3.87427	0	
2.7840	4.64486	4.482	0	
2.7847	6.17613	1.74722	0	
2.7853	5.56362	-0.683695	0	
2.7860	5.56362	0.835627	0	
2.7867	5.25737	2.96268	0	
2.7873	5.56362	1.74722	0	
2.7880	5.86988	-0.98756	0	
2.7887	6.78864	-1.59529	0	
2.7893	8.93242	-0.0759661	0	
2.7900	9.51941	-0.98756	0	
2.7907	8.01366	-3.45646	0	
2.7913	6.78864	-2.84873	0	
2.7920	6.48238	-0.0759661	0	
2.7927	4.95111	0.835627	0	
2.7933	2.80733	-2.84873	0	
2.7940	1.60784	-5.88737	0	
2.7947	-2.06722	-4.06419	0	
2.7953	-6.63551	-0.98756	0	
2.7960	-5.71675	-2.84873	0	
2.7967	-3.90474	-3.15259	0	
2.7973	-8.77929	1.13949	0	
2.7980	-12.1481	2.05109	0	
2.7987	-9.08555	-1.29142	0	
2.7993	-7.86053	-1.59529	0	
2.8000	-8.16678	-0.0759661	0	
2.8007	-3.59849	-0.379831	0	
2.8013	0.0765636	-0.683695	0	
2.8020	0.0765636	-0.0759661	0	
2.8027	3.41984	-0.98756	0	
2.8033	8.01366	-3.76032	0	
2.8040	8.01366	-4.06419	0	
2.8047	8.93242	-1.59529	0	
2.8053	11.9694	0.531763	0	
2.8060	12.5819	-1.59529	0	
2.8067	10.4382	-2.84873	0	
2.8073	9.82566	-0.683695	0	
2.8080	9.82566	0.531763	0	
2.8087	7.40115	-0.379831	0	
2.8093	3.41984	-1.29142	0	
2.8100	0.689072	-0.0759661	0	
2.8107	-2.06722	2.65881	0	
2.8113	-9.08555	2.96268	0	
2.8120	-14.5726	1.13949	0	
2.8127	-14.8789	1.44336	0	
2.8133	-13.3476	2.96268	0	
2.8140	-13.9601	2.65881	0	
2.8147	-13.6538	1.74722	0	
2.8153	-10.3106	1.74722	0	
2.8160	-5.10424	0.835627	0	
2.8167	-1.14845	-1.89915	0	
2.8173	3.41984	-2.84873	0	
2.8180	9.23867	-2.84873	0	
2.8187	11.6632	-3.76032	0	
2.8193	10.7444	-3.76032	0	
2.8200	12.2757	-3.15259	0	
2.8207	14.4195	-3.76032	0	
2.8213	12.8882	-4.06419	0	
2.8220	9.82566	-1.59529	0	
2.8227	5.25737	-0.98756	0	
2.8233	-0.229691	-2.84873	0	
2.8240	-3.90474	-0.0759661	0	
2.8247	-5.71675	2.96268	0	
2.8253	-6.94177	1.74722	0	
2.8260	-7.55427	0.835627	0	
2.8267	-7.86053	2.65881	0	
2.8273	-8.77929	2.05109	0	
2.8280	-7.86053	1.74722	0	
2.8287	-6.023	4.78587	0	
2.8293	-5.10424	4.78587	0	
2.8300	-2.98598	0.835627	0	
2.8307	0.995327	-0.683695	0	
2.8313	3.72609	1.44336	0	
2.8320	3.41984	2.96268	0	
2.8327	2.50108	1.74722	0	
2.8333	2.50108	-2.20302	0	
2.8340	5.25737	-4.67192	0	
2.8347	7.09489	-3.76032	0	
2.8353	7.40115	-3.15259	0	
2.8360	7.40115	-4.67192	0	
2.8367	6.78864	-6.4951	0	
2.8373	5.56362	-6.19124	0	
2.8380	4.03235	-3.76032	0	
2.8387	2.80733	-2.20302	0	
2.8393	0.689072	-3.45646	0	
2.8400	-2.06722	-2.84873	0	
2.8407	-3.90474	-0.98756	0	
2.8413	-4.82351	-1.59529	0	
2.8420	-6.023	-0.98756	0	
2.8427	-5.71675	2.65881	0	
2.8433	-4.51725	3.26654	0	
2.8440	-5.41049	3.57041	0	
2.8447	-5.71675	5.3936	0	
2.8453	-3.90474	4.17814	0	
2.8460	-3.29223	3.57041	0	
2.8467	-3.29223	5.08973	0	
2.8473	-3.90474	4.17814	0	
2.8480	-5.71675	3.57041	0	
2.8487	-7.86053	4.482	0	
2.8493	-8.47304	4.482	0	
2.8500	-8.16678	3.57041	0	
2.8507	-9.3918	4.482	0	
2.8513	-10.9231	3.87427	0	
2.8520	-8.16678	3.57041	0	
2.8527	-3.29223	2.35495	0	
2.8533	-1.14845	-1.59529	0	
2.8540	-0.229691	-1.89915	0	
2.8547	0.995327	0.531763	0	
2.8553	2.50108	-0.683695	0	
2.8560	5.86988	-3.76032	0	
2.8567	10.7444	-4.67192	0	
2.8573	12.5819	-5.58351	0	
2.8580	13.1945	-3.76032	0	
2.8587	14.4195	-0.379831	0	
2.8593	15.3382	0.835627	0	
2.8600	15.9507	-0.0759661	0	
2.8607	14.7257	-1.89915	0	
2.8613	9.23867	-3.76032	0	
2.8620	1.60784	-3.15259	0	
2.8627	-3.90474	-0.0759661	0	
2.8633	-8.47304	0.227898	0	
2.8640	-13.9601	-0.98756	0	
2.8647	-18.2477	0.835627	0	
2.8653	-19.1664	2.96268	0	
2.8660	-19.4472	1.13949	0	
2.8667	-17.6351	-0.683695	0	
2.8673	-12.4288	1.13949	0	
2.8680	-8.47304	2.96268	0	
2.8687	-6.94177	2.96268	0	
2.8693	-3.59849	3.57041	0	
2.8700	-1.14845	2.05109	0	
2.8707	-0.535945	-0.98756	0	
2.8713	2.80733	-0.98756	0	
2.8720	6.17613	0.531763	0	
2.8727	4.64486	-0.379831	0	
2.8733	6.48238	-3.15259	0	
2.8740	12.5819	-4.06419	0	
2.8747	13.1945	-2.84873	0	
2.8753	8.93242	-3.15259	0	
2.8760	5.86988	-4.36805	0	
2.8767	3.41984	-3.76032	0	
2.8773	0.382818	-2.84873	0	
2.8780	-2.06722	-3.76032	0	
2.8787	-5.41049	-3.45646	0	
2.8793	-8.47304	-0.98756	0	
2.8800	-8.47304	-0.98756	0	
2.8807	-5.71675	-2.50688	0	
2.8813	-2.98598	-2.84873	0	
2.8820	-1.76096	-3.76032	0	
2.8827	-0.842199	-5.58351	0	
2.8833	1.30158	-4.67192	0	
2.8840	3.41984	-4.36805	0	
2.8847	6.17613	-4.36805	0	
2.8853	11.3569	-1.59529	0	
2.8860	16.5633	0.227898	0	
2.8867	15.3382	-1.59529	0	
2.8873	12.2757	-3.45646	0	
2.8880	14.7257	-3.15259	0	
2.8887	15.3382	-0.0759661	0	
2.8893	8.31991	3.26654	0	
2.8900	4.3386	3.26654	0	
2.8907	6.17613	1.74722	0	
2.8913	4.3386	2.96268	0	
2.8920	-0.229691	2.96268	0	
2.8927	-4.211	1.13949	0	
2.8933	-9.69805	1.74722	0	
2.8940	-14.2663	1.74722	0	
2.8947	-17.3289	-1.29142	0	
2.8953	-20.3659	-1.29142	0	
2.8960	-20.6722	0.835627	0	
2.8967	-18.2477	1.13949	0	
2.8973	-16.7164	2.96268	0	
2.8980	-15.7976	5.69746	0	
2.8987	-14.8789	3.57041	0	
2.8993	-15.7976	1.74722	0	
2.9000	-17.0226	5.3936	0	
2.9007	-16.1039	6.34317	0	
2.9013	-14.8789	2.96268	0	
2.9020	-13.6538	1.74722	0	
2.9027	-11.8418	2.65881	0	
2.9033	-10.9231	4.482	0	
2.9040	-9.3918	6.34317	0	
2.9047	-6.63551	5.08973	0	
2.9053	-5.10424	1.74722	0	
2.9060	-1.76096	0.835627	0	
2.9067	2.50108	1.13949	0	
2.9073	4.03235	2.05109	0	
2.9080	4.95111	2.35495	0	
2.9087	7.09489	2.05109	0	
2.9093	7.40115	2.35495	0	
2.9100	7.40115	0.835627	0	
2.9107	8.93242	-2.50688	0	
2.9113	9.82566	-1.59529	0	
2.9120	11.9694	0.835627	0	
2.9127	15.3382	-1.59529	0	
2.9133	15.9507	-1.89915	0	
2.9140	16.257	0.531763	0	
2.9147	17.7628	-0.0759661	0	
2.9153	15.3382	-1.59529	0	
2.9160	11.6632	-1.89915	0	
2.9167	13.5007	-2.84873	0	
2.9173	15.032	-2.20302	0	
2.9180	10.7444	-0.379831	0	
2.9187	5.86988	-2.20302	0	
2.9193	2.50108	-3.76032	0	
2.9200	-0.229691	-0.0759661	0	
2.9207	-2.06722	3.57041	0	
2.9213	-4.51725	2.05109	0	
2.9220	-8.77929	-0.379831	0	
2.9227	-11.8418	0.227898	0	
2.9233	-12.4288	0.835627	0	
2.9240	-12.7351	-0.98756	0	
2.9247	-9.69805	-0.0759661	0	
2.9253	-2.37347	2.65881	0	
