0.0007	12.7752	-3.72569	0	
0.0013	4.53232	-6.47162	0	
0.0020	-4.63194	-5.55631	0	
0.0027	-10.1106	-1.89508	0	
0.0033	-15.6141	-1.27628	0	
0.0040	-22.9356	-3.41629	0	
0.0047	-25.6749	-2.19158	0	
0.0053	-24.7784	-0.979767	0	
0.0060	-28.4391	-1.27628	0	
0.0067	-31.1784	0.554342	0	
0.0073	-26.5963	2.99087	0	
0.0080	-22.6367	2.69436	0	
0.0087	-23.857	3.90618	0	
0.0093	-22.313	7.2709	0	
0.0100	-16.5355	8.48272	0	
0.0107	-10.7331	7.87681	0	
0.0113	-6.44985	6.04619	0	
0.0120	-2.78912	4.52498	0	
0.0127	-1.27005	5.44029	0	
0.0133	-1.56888	6.9615	0	
0.0140	-0.647475	5.13089	0	
0.0147	-0.34864	2.99087	0	
0.0153	-3.08796	1.77905	0	
0.0160	-4.93077	1.77905	0	
0.0167	-4.63194	2.99087	0	
0.0173	-7.37125	2.69436	0	
0.0180	-10.7331	1.16025	0	
0.0187	-8.29266	-0.670367	0	
0.0193	-5.2296	-1.89508	0	
0.0200	-7.67009	-0.0644584	0	
0.0207	-10.1106	2.07556	0	
0.0213	-7.37125	-0.979767	0	
0.0220	-4.93077	-4.641	0	
0.0227	-5.2296	-3.41629	0	
0.0233	-2.78912	-2.19158	0	
0.0240	0.249029	-3.10689	0	
0.0247	1.79301	-1.58568	0	
0.0253	3.90975	-1.27628	0	
0.0260	5.75256	-3.72569	0	
0.0267	3.61092	-2.81038	0	
0.0273	4.83116	-1.89508	0	
0.0280	10.3347	-4.0222	0	
0.0287	11.5549	-2.81038	0	
0.0293	9.11445	1.46965	0	
0.0300	9.11445	2.69436	0	
0.0307	7.27164	2.69436	0	
0.0313	2.09184	1.16025	0	
0.0320	-1.27005	-0.0644584	0	
0.0327	-4.00936	3.60967	0	
0.0333	-7.99382	7.2709	0	
0.0340	-8.59149	3.90618	0	
0.0347	-6.15101	2.07556	0	
0.0353	-4.93077	4.82149	0	
0.0360	-4.3082	3.30027	0	
0.0367	-4.00936	0.554342	0	
0.0373	-3.71053	1.77905	0	
0.0380	-1.27005	1.46965	0	
0.0387	1.46927	-0.0644584	0	
0.0393	2.68951	-0.670367	0	
0.0400	3.01325	-3.72569	0	
0.0407	2.68951	-4.641	0	
0.0413	-0.0498058	-1.58568	0	
0.0420	-0.34864	-1.89508	0	
0.0427	1.79301	-6.47162	0	
0.0433	2.68951	-6.47162	0	
0.0440	4.83116	-3.41629	0	
0.0447	5.45373	-1.27628	0	
0.0453	3.31208	-0.360967	0	
0.0460	3.31208	-2.19158	0	
0.0467	5.45373	-4.3316	0	
0.0473	5.45373	-2.50098	0	
0.0480	5.45373	-0.979767	0	
0.0487	7.57048	-2.19158	0	
0.0493	8.79072	-1.89508	0	
0.0500	8.19305	1.77905	0	
0.0507	8.19305	3.60967	0	
0.0513	7.89421	2.69436	0	
0.0520	6.35023	1.16025	0	
0.0527	6.35023	1.16025	0	
0.0533	7.89421	0.863742	0	
0.0540	9.11445	-1.58568	0	
0.0547	7.57048	-1.58568	0	
0.0553	9.11445	0.863742	0	
0.0560	16.4359	-0.979767	0	
0.0567	24.0562	-5.55631	0	
0.0573	29.5597	-8.30224	0	
0.0580	36.5823	-9.51406	0	
0.0587	40.2431	-8.90815	0	
0.0593	36.5823	-5.85282	0	
0.0600	34.4407	-6.47162	0	
0.0607	35.0383	-10.4294	0	
0.0613	31.0788	-11.0482	0	
0.0620	22.2383	-9.21755	0	
0.0627	13.6966	-9.51406	0	
0.0633	2.68951	-8.59875	0	
0.0640	-11.032	-6.47162	0	
0.0647	-23.857	-4.641	0	
0.0653	-34.2166	-3.41629	0	
0.0660	-43.3808	-3.10689	0	
0.0667	-50.4034	-2.50098	0	
0.0673	-51.9225	1.46965	0	
0.0680	-48.5606	4.82149	0	
0.0687	-44.6011	6.3556	0	
0.0693	-40.3427	7.87681	0	
0.0700	-35.7605	8.18621	0	
0.0707	-33.9177	7.2709	0	
0.0713	-33.6189	7.56741	0	
0.0720	-29.0368	9.10152	0	
0.0727	-22.9356	9.10152	0	
0.0733	-19.2748	8.48272	0	
0.0740	-13.4725	6.3556	0	
0.0747	-7.37125	4.52498	0	
0.0753	-7.67009	3.60967	0	
0.0760	-6.44985	2.69436	0	
0.0767	0.871601	2.38496	0	
0.0773	3.61092	4.21558	0	
0.0780	0.871601	4.52498	0	
0.0787	-2.49029	1.16025	0	
0.0793	-4.63194	-1.58568	0	
0.0800	-3.71053	-0.979767	0	
0.0807	0.572766	-0.360967	0	
0.0813	-0.647475	-1.89508	0	
0.0820	-5.2296	-4.3316	0	
0.0827	-4.00936	-4.641	0	
0.0833	-0.0498058	-1.89508	0	
0.0840	1.79301	-0.670367	0	
0.0847	1.79301	-2.19158	0	
0.0853	0.249029	-3.41629	0	
0.0860	-0.971212	-3.10689	0	
0.0867	0.871601	-1.89508	0	
0.0873	1.79301	0.244942	0	
0.0880	0.871601	1.46965	0	
0.0887	1.79301	1.77905	0	
0.0893	2.09184	3.30027	0	
0.0900	-0.971212	3.90618	0	
0.0907	-0.0498058	2.69436	0	
0.0913	4.53232	1.46965	0	
0.0920	6.0514	-0.0644584	0	
0.0927	4.23349	-1.27628	0	
0.0933	5.75256	0.244942	0	
0.0940	8.79072	3.60967	0	
0.0947	8.79072	2.69436	0	
0.0953	9.11445	-0.360967	0	
0.0960	10.011	-0.0644584	0	
0.0967	9.11445	1.16025	0	
0.0973	7.57048	-0.670367	0	
0.0980	8.19305	-2.50098	0	
0.0987	6.97281	-1.89508	0	
0.0993	5.45373	-0.979767	0	
0.1000	7.27164	-1.89508	0	
0.1007	8.49188	-3.72569	0	
0.1013	6.67397	-4.3316	0	
0.1020	6.35023	-4.3316	0	
0.1027	8.19305	-2.81038	0	
0.1033	8.19305	-1.27628	0	
0.1040	6.67397	-2.81038	0	
0.1047	4.83116	-3.41629	0	
0.1053	4.83116	-0.979767	0	
0.1060	6.35023	-0.0644584	0	
0.1067	5.45373	-1.58568	0	
0.1073	3.31208	-1.58568	0	
0.1080	8.19305	-1.89508	0	
0.1087	14.9168	-1.27628	0	
0.1093	17.3573	0.863742	0	
0.1100	21.6157	-1.27628	0	
0.1107	29.2609	-4.641	0	
0.1113	32.0002	-3.72569	0	
0.1120	30.1574	-1.89508	0	
0.1127	28.9371	-2.50098	0	
0.1133	25.899	-1.58568	0	
0.1140	20.3955	-1.58568	0	
0.1147	15.2157	-3.72569	0	
0.1153	9.11445	-3.72569	0	
0.1160	4.83116	-3.10689	0	
0.1167	2.68951	-2.81038	0	
0.1173	-3.71053	-1.27628	0	
0.1180	-10.7331	-1.58568	0	
0.1187	-11.6545	-2.19158	0	
0.1193	-12.2522	-0.0644584	0	
0.1200	-16.5355	0.554342	0	
0.1207	-17.432	-0.979767	0	
0.1213	-15.9129	2.07556	0	
0.1220	-16.5355	4.82149	0	
0.1227	-17.432	2.38496	0	
0.1233	-19.8725	1.77905	0	
0.1240	-23.857	4.52498	0	
0.1247	-25.6749	4.82149	0	
0.1253	-25.9986	4.82149	0	
0.1260	-28.4391	3.30027	0	
0.1267	-29.6593	-0.0644584	0	
0.1273	-27.5177	0.863742	0	
0.1280	-24.4546	3.60967	0	
0.1287	-22.9356	4.52498	0	
0.1293	-20.1962	4.52498	0	
0.1300	-16.8343	3.60967	0	
0.1307	-15.3153	2.38496	0	
0.1313	-14.6927	3.60967	0	
0.1320	-13.1736	5.44029	0	
0.1327	-13.4725	3.60967	0	
0.1333	-16.2118	2.69436	0	
0.1340	-15.3153	2.38496	0	
0.1347	-11.032	0.863742	0	
0.1353	-8.89033	1.16025	0	
0.1360	-8.89033	1.16025	0	
0.1367	-7.37125	-1.89508	0	
0.1373	-6.15101	-0.979767	0	
0.1380	-3.41169	1.77905	0	
0.1387	0.572766	-0.979767	0	
0.1393	1.79301	-1.27628	0	
0.1400	1.79301	2.69436	0	
0.1407	4.23349	2.38496	0	
0.1413	7.89421	-0.979767	0	
0.1420	10.011	-2.19158	0	
0.1427	10.9324	-2.81038	0	
0.1433	10.6335	-0.979767	0	
0.1440	8.49188	1.46965	0	
0.1447	8.19305	-0.979767	0	
0.1453	8.49188	-3.10689	0	
0.1460	6.97281	-1.89508	0	
0.1467	6.0514	-1.58568	0	
0.1473	6.67397	-0.360967	0	
0.1480	5.45373	2.07556	0	
0.1487	3.90975	0.863742	0	
0.1493	3.61092	-0.360967	0	
0.1500	2.68951	0.863742	0	
0.1507	3.61092	-0.360967	0	
0.1513	7.27164	-1.89508	0	
0.1520	5.75256	-0.360967	0	
0.1527	2.39068	-0.0644584	0	
0.1533	2.68951	-0.979767	0	
0.1540	3.61092	-0.670367	0	
0.1547	2.09184	-1.58568	0	
0.1553	3.31208	-2.81038	0	
0.1560	5.45373	-0.979767	0	
0.1567	4.23349	-0.360967	0	
0.1573	3.61092	-3.72569	0	
0.1580	5.45373	-4.0222	0	
0.1587	5.12999	-3.41629	0	
0.1593	3.61092	-5.55631	0	
0.1600	3.01325	-6.16222	0	
0.1607	2.68951	-2.81038	0	
0.1613	2.68951	-2.81038	0	
0.1620	2.68951	-3.72569	0	
0.1627	4.23349	-2.19158	0	
0.1633	5.12999	-1.89508	0	
0.1640	5.45373	-3.72569	0	
0.1647	4.53232	-2.81038	0	
0.1653	1.79301	-1.58568	0	
0.1660	0.572766	-1.89508	0	
0.1667	3.90975	-2.19158	0	
0.1673	6.35023	-3.10689	0	
0.1680	3.90975	-2.50098	0	
0.1687	5.12999	0.863742	0	
0.1693	10.6335	1.16025	0	
0.1700	12.7752	-1.27628	0	
0.1707	11.5549	-0.979767	0	
0.1713	12.7752	0.863742	0	
0.1720	13.6966	1.46965	0	
0.1727	12.7752	1.46965	0	
0.1733	12.7752	-0.670367	0	
0.1740	15.5145	-3.41629	0	
0.1747	18.2538	-2.81038	0	
0.1753	20.0966	-0.979767	0	
0.1760	19.7978	-1.27628	0	
0.1767	14.2943	-2.50098	0	
0.1773	9.11445	-1.89508	0	
0.1780	8.79072	-1.89508	0	
0.1787	6.67397	-2.50098	0	
0.1793	-0.34864	-0.979767	0	
0.1800	-7.99382	-0.0644584	0	
0.1807	-14.6927	-2.50098	0	
0.1813	-19.2748	-4.3316	0	
0.1820	-17.432	-3.72569	0	
0.1827	-16.5355	-2.50098	0	
0.1833	-19.5737	-0.979767	0	
0.1840	-20.7939	1.77905	0	
0.1847	-19.8725	2.69436	0	
0.1853	-20.7939	1.46965	0	
0.1860	-18.976	1.46965	0	
0.1867	-14.3939	0.554342	0	
0.1873	-11.6545	-1.89508	0	
0.1880	-8.29266	-0.979767	0	
0.1887	-3.71053	1.77905	0	
0.1893	-0.0498058	-0.979767	0	
0.1900	0.249029	-3.72569	0	
0.1907	0.249029	0.863742	0	
0.1913	3.31208	3.60967	0	
0.1920	6.35023	1.16025	0	
0.1927	2.68951	2.69436	0	
0.1933	-3.71053	4.52498	0	
0.1940	-5.2296	0.863742	0	
0.1947	-5.52844	-0.0644584	0	
0.1953	-7.37125	1.77905	0	
0.1960	-7.67009	0.863742	0	
0.1967	-9.81173	0.863742	0	
0.1973	-10.1106	1.16025	0	
0.1980	-4.63194	-1.58568	0	
0.1987	0.249029	-1.27628	0	
0.1993	1.46927	0.863742	0	
0.2000	4.53232	-1.58568	0	
0.2007	5.12999	-1.89508	0	
0.2013	-0.0498058	0.863742	0	
0.2020	-4.93077	1.46965	0	
0.2027	-7.37125	2.07556	0	
0.2033	-10.7331	3.60967	0	
0.2040	-11.032	1.77905	0	
0.2047	-11.9534	0.863742	0	
0.2053	-18.0546	2.69436	0	
0.2060	-22.313	1.77905	0	
0.2067	-21.0927	1.77905	0	
0.2073	-19.2748	3.60967	0	
0.2080	-17.432	3.60967	0	
0.2087	-14.6927	4.52498	0	
0.2093	-12.8748	6.3556	0	
0.2100	-8.89033	5.13089	0	
0.2107	-3.41169	3.60967	0	
0.2113	-0.0498058	5.44029	0	
0.2120	1.46927	5.44029	0	
0.2127	1.79301	3.60967	0	
0.2133	0.871601	3.60967	0	
0.2140	2.68951	1.77905	0	
0.2147	5.45373	-1.89508	0	
0.2153	4.23349	-1.27628	0	
0.2160	2.68951	0.863742	0	
0.2167	3.61092	-0.0644584	0	
0.2173	4.23349	-0.0644584	0	
0.2180	4.53232	0.863742	0	
0.2187	4.83116	0.554342	0	
0.2193	4.53232	-0.979767	0	
0.2200	4.83116	-2.19158	0	
0.2207	5.45373	-1.89508	0	
0.2213	4.83116	-0.360967	0	
0.2220	6.35023	-1.89508	0	
0.2227	7.89421	-3.72569	0	
0.2233	6.97281	-2.81038	0	
0.2240	7.57048	-2.81038	0	
0.2247	10.011	-2.81038	0	
0.2253	12.1526	-1.58568	0	
0.2260	16.4359	-2.50098	0	
0.2267	21.6157	-3.41629	0	
0.2273	24.0562	-0.670367	0	
0.2280	25.5753	-0.979767	0	
0.2287	26.4967	-4.0222	0	
0.2293	24.6788	-4.3316	0	
0.2300	23.7573	-3.41629	0	
0.2307	22.5371	-2.81038	0	
0.2313	17.3573	-0.979767	0	
0.2320	13.074	-1.27628	0	
0.2327	12.1526	-3.10689	0	
0.2333	9.71212	-0.979767	0	
0.2340	6.0514	-0.360967	0	
0.2347	2.68951	-3.41629	0	
0.2353	-3.08796	-2.50098	0	
0.2360	-10.4343	-0.360967	0	
0.2367	-15.6141	-1.58568	0	
0.2373	-18.3534	-0.979767	0	
0.2380	-19.8725	0.863742	0	
0.2387	-19.8725	-0.979767	0	
0.2393	-20.7939	-1.89508	0	
0.2400	-21.0927	-0.670367	0	
0.2407	-18.3534	-0.670367	0	
0.2413	-13.7713	-0.0644584	0	
0.2420	-11.9534	-0.0644584	0	
0.2427	-12.5511	-3.41629	0	
0.2433	-10.7331	-3.72569	0	
0.2440	-6.44985	-0.670367	0	
0.2447	-4.63194	-1.27628	0	
0.2453	-4.63194	-3.10689	0	
0.2460	-3.08796	-1.89508	0	
0.2467	-0.971212	-0.0644584	0	
0.2473	0.871601	0.244942	0	
0.2480	1.79301	0.863742	0	
0.2487	-0.0498058	2.07556	0	
0.2493	-2.78912	3.30027	0	
0.2500	-2.49029	4.52498	0	
0.2507	-0.0498058	5.73679	0	
0.2513	-0.647475	6.6521	0	
0.2520	-2.78912	6.9615	0	
0.2527	-1.86772	5.13089	0	
0.2533	2.68951	2.07556	0	
0.2540	4.53232	0.863742	0	
0.2547	4.53232	2.38496	0	
0.2553	7.27164	2.69436	0	
0.2560	9.71212	0.863742	0	
0.2567	8.19305	-1.89508	0	
0.2573	8.19305	-2.19158	0	
0.2580	11.8538	-0.979767	0	
0.2587	10.9324	-0.979767	0	
0.2593	6.35023	-1.27628	0	
0.2600	4.53232	-0.670367	0	
0.2607	4.23349	-2.19158	0	
0.2613	3.61092	-4.0222	0	
0.2620	5.45373	-1.89508	0	
0.2627	6.35023	-0.360967	0	
0.2633	3.31208	-0.979767	0	
0.2640	0.572766	1.16025	0	
0.2647	-1.27005	1.77905	0	
0.2653	-5.2296	-1.58568	0	
0.2660	-7.67009	-0.979767	0	
0.2667	-6.77358	2.99087	0	
0.2673	-8.29266	4.52498	0	
0.2680	-11.032	4.52498	0	
0.2687	-9.21406	3.90618	0	
0.2693	-7.07242	2.69436	0	
0.2700	-7.07242	3.30027	0	
0.2707	-6.77358	3.60967	0	
0.2713	-7.07242	2.69436	0	
0.2720	-9.81173	2.38496	0	
0.2727	-11.032	2.07556	0	
0.2733	-9.21406	0.554342	0	
0.2740	-6.77358	-0.360967	0	
0.2747	-4.63194	-0.360967	0	
0.2753	-0.34864	0.244942	0	
0.2760	4.83116	0.863742	0	
0.2767	8.49188	-1.27628	0	
0.2773	9.11445	-3.72569	0	
0.2780	8.19305	-1.89508	0	
0.2787	8.49188	-0.670367	0	
0.2793	10.011	-4.0222	0	
0.2800	10.9324	-6.16222	0	
0.2807	8.19305	-4.3316	0	
0.2813	3.61092	-4.3316	0	
0.2820	0.871601	-4.641	0	
0.2827	0.871601	-2.81038	0	
0.2833	-0.0498058	-2.81038	0	
0.2840	-2.78912	-5.55631	0	
0.2847	-5.85218	-4.641	0	
0.2853	-7.07242	-1.89508	0	
0.2860	-6.44985	-0.979767	0	
0.2867	-6.15101	-1.58568	0	
0.2873	-10.1106	-1.89508	0	
0.2880	-14.3939	-0.979767	0	
0.2887	-12.8748	0.863742	0	
0.2893	-7.67009	1.16025	0	
0.2900	-2.78912	1.46965	0	
0.2907	-0.971212	2.99087	0	
0.2913	-1.27005	0.863742	0	
0.2920	0.871601	-3.10689	0	
0.2927	5.75256	-0.0644584	0	
0.2933	8.19305	5.13089	0	
0.2940	7.89421	3.60967	0	
0.2947	9.11445	2.38496	0	
0.2953	7.89421	2.07556	0	
0.2960	4.53232	-0.979767	0	
0.2967	6.0514	-2.50098	0	
0.2973	8.19305	-0.360967	0	
0.2980	5.45373	-1.27628	0	
0.2987	4.83116	-2.19158	0	
0.2993	4.83116	-0.979767	0	
0.3000	1.79301	-2.19158	0	
0.3007	1.46927	-2.81038	0	
0.3013	2.09184	-0.670367	0	
0.3020	-1.56888	-0.0644584	0	
0.3027	-3.71053	-0.979767	0	
0.3033	-2.78912	0.244942	0	
0.3040	-3.71053	1.16025	0	
0.3047	-1.86772	-0.0644584	0	
0.3053	2.39068	-0.979767	0	
0.3060	3.31208	-0.670367	0	
0.3067	2.68951	0.554342	0	
0.3073	2.68951	1.77905	0	
0.3080	1.79301	0.863742	0	
0.3087	0.871601	-1.27628	0	
0.3093	-0.971212	-0.670367	0	
0.3100	-2.19145	2.07556	0	
0.3107	-2.78912	2.38496	0	
0.3113	-5.52844	0.554342	0	
0.3120	-8.59149	1.46965	0	
0.3127	-6.77358	2.07556	0	
0.3133	-3.08796	-0.360967	0	
0.3140	-0.971212	-0.979767	0	
0.3147	0.871601	-0.0644584	0	
0.3153	-0.0498058	-2.81038	0	
0.3160	-1.86772	-3.72569	0	
0.3167	-0.34864	-0.979767	0	
0.3173	2.39068	-0.670367	0	
0.3180	2.68951	-3.10689	0	
0.3187	2.68951	-2.81038	0	
0.3193	2.68951	-1.58568	0	
0.3200	3.61092	-1.89508	0	
0.3207	6.97281	-1.27628	0	
0.3213	11.8538	-2.50098	0	
0.3220	13.3728	-5.24691	0	
0.3227	11.8538	-4.641	0	
0.3233	8.79072	-2.19158	0	
0.3240	6.0514	-1.89508	0	
0.3247	5.45373	-2.50098	0	
0.3253	3.90975	-1.89508	0	
0.3260	1.17044	-1.89508	0	
0.3267	-0.647475	-1.89508	0	
0.3273	-1.86772	-0.979767	0	
0.3280	-4.3082	0.863742	0	
0.3287	-6.44985	1.77905	0	
0.3293	-8.29266	0.244942	0	
0.3300	-10.1106	-0.0644584	0	
0.3307	-10.4343	1.77905	0	
0.3313	-11.032	1.46965	0	
0.3320	-11.6545	-0.360967	0	
0.3327	-7.67009	1.16025	0	
0.3333	-2.78912	4.21558	0	
0.3340	-4.3082	3.90618	0	
0.3347	-6.77358	2.99087	0	
0.3353	-6.44985	3.90618	0	
0.3360	-6.77358	2.38496	0	
0.3367	-4.93077	-0.979767	0	
0.3373	-1.27005	-0.360967	0	
0.3380	-1.27005	1.77905	0	
0.3387	-0.971212	-0.0644584	0	
0.3393	3.01325	-2.81038	0	
0.3400	6.35023	-2.19158	0	
0.3407	9.71212	-1.27628	0	
0.3413	12.7752	-2.81038	0	
0.3420	14.2943	-2.81038	0	
0.3427	16.1371	-0.670367	0	
0.3433	19.1752	-0.360967	0	
0.3440	17.3573	-2.19158	0	
0.3447	11.8538	-3.41629	0	
0.3453	8.19305	-2.81038	0	
0.3460	6.67397	-0.670367	0	
0.3467	4.53232	0.863742	0	
0.3473	-0.34864	0.554342	0	
0.3480	-5.85218	-0.670367	0	
0.3487	-7.07242	-0.979767	0	
0.3493	-7.37125	1.16025	0	
0.3500	-11.032	3.90618	0	
0.3507	-14.6927	4.82149	0	
0.3513	-14.9915	4.52498	0	
0.3520	-14.6927	3.60967	0	
0.3527	-14.095	1.77905	0	
0.3533	-13.7713	2.07556	0	
0.3540	-13.7713	4.82149	0	
0.3547	-12.8748	5.44029	0	
0.3553	-13.7713	2.99087	0	
0.3560	-14.6927	2.99087	0	
0.3567	-12.2522	5.44029	0	
0.3573	-9.81173	5.13089	0	
0.3580	-9.21406	1.77905	0	
0.3587	-6.15101	1.46965	0	
0.3593	-2.19145	2.38496	0	
0.3600	0.871601	-0.979767	0	
0.3607	6.67397	-4.641	0	
0.3613	14.5931	-3.72569	0	
0.3620	17.0336	-1.58568	0	
0.3627	16.4359	-2.81038	0	
0.3633	20.0966	-5.55631	0	
0.3640	24.6788	-7.07753	0	
0.3647	24.0562	-6.16222	0	
0.3653	18.5775	-3.72569	0	
0.3660	10.9324	-1.89508	0	
0.3667	4.23349	-2.81038	0	
0.3673	0.871601	-3.72569	0	
0.3680	-3.71053	-2.81038	0	
0.3687	-10.1106	-0.979767	0	
0.3693	-13.7713	-1.58568	0	
0.3700	-16.5355	-1.58568	0	
0.3707	-20.7939	2.69436	0	
0.3713	-22.6367	5.73679	0	
0.3720	-20.1962	3.90618	0	
0.3727	-17.1332	3.30027	0	
0.3733	-13.7713	3.60967	0	
0.3740	-10.7331	1.46965	0	
0.3747	-7.07242	0.244942	0	
0.3753	-2.19145	1.16025	0	
0.3760	2.68951	-0.670367	0	
0.3767	5.75256	-2.81038	0	
0.3773	5.45373	-0.979767	0	
0.3780	3.61092	0.863742	0	
0.3787	4.53232	-0.979767	0	
0.3793	6.0514	-4.93751	0	
0.3800	4.53232	-6.47162	0	
0.3807	2.09184	-4.3316	0	
0.3813	-0.647475	-3.41629	0	
0.3820	-4.00936	-2.81038	0	
0.3827	-4.3082	0.554342	0	
0.3833	-2.78912	1.77905	0	
0.3840	-4.00936	-0.670367	0	
0.3847	-6.77358	-0.670367	0	
0.3853	-8.89033	1.16025	0	
0.3860	-10.7331	-0.0644584	0	
0.3867	-10.7331	-0.0644584	0	
0.3873	-7.37125	1.77905	0	
0.3880	-3.41169	-0.0644584	0	
0.3887	0.871601	-1.58568	0	
0.3893	3.31208	1.16025	0	
0.3900	4.53232	1.77905	0	
0.3907	7.57048	-0.0644584	0	
0.3913	11.8538	-0.979767	0	
0.3920	14.5931	-0.670367	0	
0.3927	13.9954	-0.0644584	0	
0.3933	10.6335	0.554342	0	
0.3940	10.9324	-0.0644584	0	
0.3947	13.9954	0.244942	0	
0.3953	14.2943	0.863742	0	
0.3960	12.4763	-0.0644584	0	
0.3967	13.3728	-0.979767	0	
0.3973	14.2943	-0.0644584	0	
0.3980	13.6966	-2.19158	0	
0.3987	15.5145	-4.641	0	
0.3993	19.1752	-4.641	0	
0.4000	21.3169	-3.72569	0	
0.4007	18.5775	-4.3316	0	
0.4013	12.4763	-5.55631	0	
0.4020	7.27164	-4.641	0	
0.4027	2.39068	-0.670367	0	
0.4033	-4.63194	3.30027	0	
0.4040	-8.59149	2.07556	0	
0.4047	-9.5129	-0.0644584	0	
0.4053	-11.6545	0.554342	0	
0.4060	-12.8748	-0.979767	0	
0.4067	-12.8748	-1.89508	0	
0.4073	-14.9915	2.07556	0	
0.4080	-17.1332	4.21558	0	
0.4087	-16.5355	2.07556	0	
0.4093	-13.7713	2.69436	0	
0.4100	-11.3308	3.60967	0	
0.4107	-9.5129	0.863742	0	
0.4113	-7.67009	2.07556	0	
0.4120	-4.00936	4.52498	0	
0.4127	-0.647475	0.863742	0	
0.4133	1.79301	-2.19158	0	
0.4140	3.61092	-0.670367	0	
0.4147	3.31208	-0.0644584	0	
0.4153	1.79301	-0.0644584	0	
0.4160	2.68951	0.863742	0	
0.4167	4.53232	-0.670367	0	
0.4173	2.68951	-1.89508	0	
0.4180	-1.86772	-0.360967	0	
0.4187	-4.63194	-0.0644584	0	
0.4193	-6.77358	0.554342	0	
0.4200	-7.99382	2.07556	0	
0.4207	-9.21406	2.07556	0	
0.4213	-10.1106	1.16025	0	
0.4220	-10.1106	0.863742	0	
0.4227	-8.89033	-0.979767	0	
0.4233	-6.15101	-1.58568	0	
0.4240	-2.78912	-0.0644584	0	
0.4247	-0.34864	-1.89508	0	
0.4253	0.871601	-3.72569	0	
0.4260	2.68951	-1.89508	0	
0.4267	0.871601	-2.19158	0	
0.4273	-2.78912	-4.3316	0	
0.4280	-0.647475	-3.41629	0	
0.4287	3.90975	-1.27628	0	
0.4293	2.68951	-0.670367	0	
0.4300	0.871601	1.46965	0	
0.4307	2.39068	1.77905	0	
0.4313	0.871601	0.863742	0	
0.4320	-3.71053	2.69436	0	
0.4327	-4.00936	1.77905	0	
0.4333	-0.0498058	-2.81038	0	
0.4340	0.249029	-3.10689	0	
0.4347	-2.78912	0.863742	0	
0.4353	-2.78912	0.863742	0	
0.4360	-0.34864	-0.670367	0	
0.4367	-0.647475	-0.0644584	0	
0.4373	-0.647475	0.863742	0	
0.4380	2.39068	-0.0644584	0	
0.4387	3.61092	-0.979767	0	
0.4393	2.68951	-2.81038	0	
0.4400	5.45373	-5.55631	0	
0.4407	10.011	-4.93751	0	
0.4413	11.8538	-1.89508	0	
0.4420	12.7752	-2.81038	0	
0.4427	13.6966	-5.24691	0	
0.4433	10.9324	-3.10689	0	
0.4440	7.27164	-0.360967	0	
0.4447	6.35023	-1.89508	0	
0.4453	4.53232	-2.19158	0	
0.4460	-0.971212	-1.27628	0	
0.4467	-4.63194	-1.58568	0	
0.4473	-7.07242	-1.89508	0	
0.4480	-10.1106	-1.58568	0	
0.4487	-9.21406	-1.58568	0	
0.4493	-7.67009	0.863742	0	
0.4500	-10.7331	3.60967	0	
0.4507	-11.6545	2.69436	0	
0.4513	-9.81173	1.16025	0	
0.4520	-9.5129	1.77905	0	
0.4527	-7.07242	2.07556	0	
0.4533	-1.56888	1.16025	0	
0.4540	0.572766	1.77905	0	
0.4547	2.39068	4.21558	0	
0.4553	4.53232	6.3556	0	
0.4560	2.39068	5.44029	0	
0.4567	1.46927	3.30027	0	
0.4573	4.83116	1.77905	0	
0.4580	5.12999	2.07556	0	
0.4587	4.23349	2.07556	0	
0.4593	6.67397	-0.0644584	0	
0.4600	5.45373	-2.19158	0	
0.4607	3.61092	-1.89508	0	
0.4613	6.35023	-0.979767	0	
0.4620	6.35023	-0.979767	0	
0.4627	1.79301	-0.670367	0	
0.4633	-0.971212	-0.979767	0	
0.4640	-1.86772	-1.89508	0	
0.4647	-2.49029	-0.979767	0	
0.4653	-1.86772	0.244942	0	
0.4660	-2.78912	-0.0644584	0	
0.4667	-3.71053	-0.360967	0	
0.4673	-3.71053	-0.0644584	0	
0.4680	-5.85218	1.46965	0	
0.4687	-4.93077	3.30027	0	
0.4693	2.68951	2.99087	0	
0.4700	6.97281	-0.0644584	0	
0.4707	7.27164	-1.27628	0	
0.4713	6.97281	-0.670367	0	
0.4720	3.90975	-0.360967	0	
0.4727	1.79301	0.554342	0	
0.4733	4.53232	3.60967	0	
0.4740	7.89421	3.30027	0	
0.4747	6.35023	0.863742	0	
0.4753	1.79301	2.38496	0	
0.4760	-2.78912	1.77905	0	
0.4767	-3.08796	-4.0222	0	
0.4773	-2.78912	-4.0222	0	
0.4780	-5.52844	1.16025	0	
0.4787	-8.29266	0.863742	0	
0.4793	-10.4343	-1.58568	0	
0.4800	-11.6545	0.244942	0	
0.4807	-8.29266	1.77905	0	
0.4813	-3.71053	-0.0644584	0	
0.4820	-3.08796	-0.979767	0	
0.4827	-3.71053	-1.58568	0	
0.4833	-2.19145	-3.10689	0	
0.4840	0.871601	-2.19158	0	
0.4847	2.09184	1.46965	0	
0.4853	0.249029	0.863742	0	
0.4860	-2.19145	-2.19158	0	
0.4867	-2.78912	-1.27628	0	
0.4873	-3.71053	0.863742	0	
0.4880	-3.41169	-1.58568	0	
0.4887	1.79301	-2.81038	0	
0.4893	7.57048	-0.0644584	0	
0.4900	8.49188	0.863742	0	
0.4907	4.23349	-1.89508	0	
0.4913	-0.971212	-1.89508	0	
0.4920	-1.56888	0.554342	0	
0.4927	-0.647475	1.77905	0	
0.4933	-4.3082	0.863742	0	
0.4940	-8.29266	-0.0644584	0	
0.4947	-8.29266	1.46965	0	
0.4953	-7.37125	1.77905	0	
0.4960	-6.15101	-0.0644584	0	
0.4967	-3.41169	0.554342	0	
0.4973	-1.86772	3.60967	0	
0.4980	-1.27005	2.38496	0	
0.4987	1.17044	-1.89508	0	
0.4993	3.61092	-3.72569	0	
0.5000	4.53232	-2.50098	0	
0.5007	6.97281	-2.81038	0	
0.5013	6.97281	-4.3316	0	
0.5020	4.23349	-3.41629	0	
0.5027	3.90975	-2.81038	0	
0.5033	5.12999	-3.72569	0	
0.5040	3.61092	-1.58568	0	
0.5047	3.01325	0.244942	0	
0.5053	4.83116	-2.19158	0	
0.5060	4.23349	-1.89508	0	
0.5067	2.09184	0.863742	0	
0.5073	3.01325	-0.979767	0	
0.5080	5.45373	-0.670367	0	
0.5087	4.53232	1.77905	0	
0.5093	1.17044	0.244942	0	
0.5100	-1.56888	-0.670367	0	
0.5107	-1.86772	1.46965	0	
0.5113	0.249029	1.77905	0	
0.5120	1.79301	1.16025	0	
0.5127	1.79301	1.16025	0	
0.5133	2.68951	0.863742	0	
0.5140	4.23349	2.07556	0	
0.5147	5.12999	2.99087	0	
0.5153	5.75256	-0.670367	0	
0.5160	5.45373	-2.50098	0	
0.5167	4.23349	0.244942	0	
0.5173	6.35023	1.46965	0	
0.5180	8.19305	-0.0644584	0	
0.5187	4.53232	-1.58568	0	
0.5193	1.79301	-3.41629	0	
0.5200	2.39068	-4.3316	0	
0.5207	0.572766	-3.10689	0	
0.5213	-3.71053	-1.89508	0	
0.5220	-6.44985	-1.89508	0	
0.5227	-11.032	-2.19158	0	
0.5233	-14.6927	-1.58568	0	
0.5240	-13.7713	-0.360967	0	
0.5247	-15.3153	1.46965	0	
0.5253	-18.976	3.30027	0	
0.5260	-18.6523	1.77905	0	
0.5267	-16.5355	-0.0644584	0	
0.5273	-14.9915	2.07556	0	
0.5280	-11.032	5.13089	0	
0.5287	-8.29266	4.21558	0	
0.5293	-8.89033	3.60967	0	
0.5300	-7.99382	4.21558	0	
0.5307	-4.3082	3.30027	0	
0.5313	0.249029	3.30027	0	
0.5320	2.68951	5.13089	0	
0.5327	1.46927	4.82149	0	
0.5333	1.46927	3.90618	0	
0.5340	4.53232	3.60967	0	
0.5347	5.45373	1.77905	0	
0.5353	3.61092	1.46965	0	
0.5360	3.61092	0.863742	0	
0.5367	3.90975	-1.89508	0	
0.5373	4.23349	-0.979767	0	
0.5380	5.12999	2.69436	0	
0.5387	3.61092	0.554342	0	
0.5393	0.572766	-3.10689	0	
0.5400	-1.27005	-2.50098	0	
0.5407	-0.647475	-2.50098	0	
0.5413	1.17044	-4.3316	0	
0.5420	3.01325	-3.41629	0	
0.5427	3.31208	-1.89508	0	
0.5433	2.39068	-2.19158	0	
0.5440	2.68951	-2.81038	0	
0.5447	3.31208	-3.41629	0	
0.5453	3.01325	-4.0222	0	
0.5460	2.68951	-6.16222	0	
0.5467	5.12999	-8.30224	0	
0.5473	10.011	-7.07753	0	
0.5480	13.3728	-5.24691	0	
0.5487	13.6966	-6.16222	0	
0.5493	13.6966	-5.55631	0	
0.5500	13.6966	-1.89508	0	
0.5507	11.2561	-1.89508	0	
0.5513	8.49188	-2.81038	0	
0.5520	7.57048	0.554342	0	
0.5527	5.12999	0.554342	0	
0.5533	2.09184	-3.72569	0	
0.5540	0.572766	-3.10689	0	
0.5547	-1.27005	-0.670367	0	
0.5553	-2.78912	-0.979767	0	
0.5560	-2.49029	-0.360967	0	
0.5567	-3.71053	0.863742	0	
0.5573	-6.15101	-2.50098	0	
0.5580	-4.3082	-3.10689	0	
0.5587	-1.86772	-0.0644584	0	
0.5593	-4.00936	-0.979767	0	
0.5600	-2.19145	-3.72569	0	
0.5607	4.53232	-2.19158	0	
0.5613	6.97281	-1.27628	0	
0.5620	5.45373	-3.10689	0	
0.5627	8.19305	-2.81038	0	
0.5633	10.9324	-1.58568	0	
0.5640	10.9324	-1.58568	0	
0.5647	10.011	-0.979767	0	
0.5653	4.53232	-0.360967	0	
0.5660	-2.78912	-1.27628	0	
0.5667	-3.71053	-1.27628	0	
0.5673	-3.08796	-1.58568	0	
0.5680	-5.52844	-0.670367	0	
0.5687	-4.63194	1.77905	0	
0.5693	-1.86772	1.16025	0	
0.5700	-2.49029	-0.979767	0	
0.5707	-2.19145	1.77905	0	
0.5713	-0.971212	5.44029	0	
0.5720	-2.78912	5.13089	0	
0.5727	-5.2296	4.52498	0	
0.5733	-4.93077	4.82149	0	
0.5740	-6.44985	4.52498	0	
0.5747	-8.89033	3.60967	0	
0.5753	-8.59149	4.21558	0	
0.5760	-9.21406	3.60967	0	
0.5767	-14.6927	1.16025	0	
0.5773	-18.0546	-0.979767	0	
0.5780	-15.6141	1.46965	0	
0.5787	-15.3153	3.90618	0	
0.5793	-18.976	1.77905	0	
0.5800	-16.2118	-2.81038	0	
0.5807	-7.99382	-4.641	0	
0.5813	-3.71053	-4.0222	0	
0.5820	-0.971212	-3.41629	0	
0.5827	2.68951	-3.10689	0	
0.5833	3.61092	-4.3316	0	
0.5840	5.45373	-4.3316	0	
0.5847	10.6335	-1.89508	0	
0.5853	12.7752	-0.670367	0	
0.5860	11.5549	-1.27628	0	
0.5867	14.2943	-1.27628	0	
0.5873	17.0336	-1.27628	0	
0.5880	14.5931	-0.979767	0	
0.5887	10.011	-0.0644584	0	
0.5893	7.27164	-0.979767	0	
0.5900	6.67397	-1.58568	0	
0.5907	8.19305	1.46965	0	
0.5913	8.49188	2.99087	0	
0.5920	5.45373	-0.360967	0	
0.5927	2.09184	-1.27628	0	
0.5933	-0.0498058	0.554342	0	
0.5940	-1.56888	-0.0644584	0	
0.5947	-2.78912	0.863742	0	
0.5953	-4.3082	4.21558	0	
0.5960	-4.63194	1.77905	0	
0.5967	-5.2296	-3.72569	0	
0.5973	-7.37125	-3.10689	0	
0.5980	-8.59149	-0.0644584	0	
0.5987	-8.59149	-0.979767	0	
0.5993	-11.6545	-2.81038	0	
0.6000	-16.2118	-0.0644584	0	
0.6007	-17.1332	0.863742	0	
0.6013	-14.9915	-2.50098	0	
0.6020	-14.6927	-3.72569	0	
0.6027	-13.7713	-1.89508	0	
0.6033	-9.5129	-0.0644584	0	
0.6040	-5.52844	-0.360967	0	
0.6047	-3.41169	-0.0644584	0	
0.6053	0.572766	1.16025	0	
0.6060	5.75256	2.07556	0	
0.6067	10.011	2.38496	0	
0.6073	13.9954	1.46965	0	
0.6080	17.955	0.863742	0	
0.6087	20.3955	2.07556	0	
0.6093	21.018	2.69436	0	
0.6100	17.3573	1.77905	0	
0.6107	10.9324	2.38496	0	
0.6113	8.49188	2.69436	0	
0.6120	8.19305	-0.0644584	0	
0.6127	3.61092	-0.979767	0	
0.6133	-3.08796	3.60967	0	
0.6140	-7.07242	6.3556	0	
0.6147	-8.59149	2.99087	0	
0.6153	-11.032	1.16025	0	
0.6160	-14.095	2.69436	0	
0.6167	-17.7558	2.38496	0	
0.6173	-21.0927	1.16025	0	
0.6180	-20.7939	1.16025	0	
0.6187	-16.5355	1.77905	0	
0.6193	-11.9534	0.863742	0	
0.6200	-9.81173	-2.19158	0	
0.6207	-8.29266	-5.24691	0	
0.6213	-6.15101	-4.93751	0	
0.6220	-2.78912	-2.50098	0	
0.6227	-0.971212	-1.58568	0	
0.6233	-0.971212	-2.19158	0	
0.6240	0.249029	-2.50098	0	
0.6247	2.09184	-2.19158	0	
0.6253	1.79301	-2.50098	0	
0.6260	-0.0498058	-0.360967	0	
0.6267	0.871601	2.69436	0	
0.6273	6.67397	0.554342	0	
0.6280	11.8538	-2.81038	0	
0.6287	12.7752	-0.0644584	0	
0.6293	13.074	2.69436	0	
0.6300	15.5145	-0.360967	0	
0.6307	16.7347	-2.50098	0	
0.6313	16.7347	-0.670367	0	
0.6320	15.5145	-0.670367	0	
0.6327	12.1526	-1.58568	0	
0.6333	11.2561	-0.0644584	0	
0.6340	12.1526	1.16025	0	
0.6347	8.19305	0.244942	0	
0.6353	1.79301	1.46965	0	
0.6360	-0.971212	2.99087	0	
0.6367	-2.78912	1.77905	0	
0.6373	-7.99382	-0.0644584	0	
0.6380	-10.4343	1.46965	0	
0.6387	-7.37125	2.69436	0	
0.6393	-6.15101	0.863742	0	
0.6400	-6.44985	-1.89508	0	
0.6407	-6.44985	-2.81038	0	
0.6413	-5.52844	-2.81038	0	
0.6420	-3.71053	-1.89508	0	
0.6427	-0.0498058	0.244942	0	
0.6433	2.09184	0.863742	0	
0.6440	0.249029	-0.979767	0	
0.6447	-2.49029	-0.979767	0	
0.6453	-1.56888	0.863742	0	
0.6460	0.871601	1.77905	0	
0.6467	1.79301	1.77905	0	
0.6473	1.46927	2.69436	0	
0.6480	1.46927	2.69436	0	
0.6487	1.46927	1.77905	0	
0.6493	-0.0498058	3.30027	0	
0.6500	-4.63194	3.90618	0	
0.6507	-10.1106	2.07556	0	
0.6513	-11.6545	-0.0644584	0	
0.6520	-9.21406	-0.670367	0	
0.6527	-8.89033	-0.979767	0	
0.6533	-11.9534	0.554342	0	
0.6540	-11.9534	2.07556	0	
0.6547	-8.89033	1.16025	0	
0.6553	-7.99382	-0.979767	0	
0.6560	-9.21406	-0.979767	0	
0.6567	-8.89033	-0.979767	0	
0.6573	-7.37125	-1.89508	0	
0.6580	-4.93077	-1.89508	0	
0.6587	-2.49029	-0.979767	0	
0.6593	-0.971212	-0.0644584	0	
0.6600	-0.971212	0.244942	0	
0.6607	-0.0498058	0.244942	0	
0.6613	0.871601	-1.89508	0	
0.6620	1.79301	-4.0222	0	
0.6627	3.31208	-3.72569	0	
0.6633	5.12999	-1.89508	0	
0.6640	5.45373	-1.89508	0	
0.6647	6.0514	-2.50098	0	
0.6653	5.75256	-2.81038	0	
0.6660	3.61092	-3.41629	0	
0.6667	3.61092	-3.10689	0	
0.6673	4.53232	-1.27628	0	
0.6680	5.45373	-0.360967	0	
0.6687	9.11445	-0.979767	0	
0.6693	14.2943	-1.27628	0	
0.6700	15.8133	-0.979767	0	
0.6707	17.6561	-0.670367	0	
0.6713	21.6157	-0.979767	0	
0.6720	20.0966	-1.27628	0	
0.6727	14.5931	-0.670367	0	
0.6733	14.2943	0.863742	0	
0.6740	14.5931	2.07556	0	
0.6747	9.41329	1.77905	0	
0.6753	2.68951	2.69436	0	
0.6760	-1.86772	4.82149	0	
0.6767	-5.52844	5.13089	0	
0.6773	-7.99382	3.60967	0	
0.6780	-8.59149	2.07556	0	
0.6787	-9.21406	0.863742	0	
0.6793	-13.1736	1.46965	0	
0.6800	-17.7558	3.90618	0	
0.6807	-18.0546	4.21558	0	
0.6813	-15.6141	0.863742	0	
0.6820	-14.6927	-0.0644584	0	
0.6827	-13.1736	0.863742	0	
0.6833	-8.59149	-0.670367	0	
0.6840	-2.19145	-1.27628	0	
0.6847	1.46927	-1.58568	0	
0.6853	2.09184	-3.72569	0	
0.6860	3.01325	-4.0222	0	
0.6867	4.23349	-0.979767	0	
0.6873	3.90975	1.16025	0	
0.6880	3.31208	0.863742	0	
0.6887	1.46927	0.244942	0	
0.6893	-2.78912	-0.360967	0	
0.6900	-4.63194	0.244942	0	
0.6907	-1.86772	2.99087	0	
0.6913	-1.86772	3.90618	0	
0.6920	-5.2296	2.69436	0	
0.6927	-4.93077	0.554342	0	
0.6933	-5.85218	0.244942	0	
0.6940	-11.032	3.30027	0	
0.6947	-11.032	4.21558	0	
0.6953	-4.93077	0.244942	0	
0.6960	-2.78912	-0.360967	0	
0.6967	-4.3082	2.99087	0	
0.6973	-2.78912	1.77905	0	
0.6980	-0.34864	-1.89508	0	
0.6987	1.46927	-0.670367	0	
0.6993	2.68951	0.554342	0	
0.7000	3.90975	-1.58568	0	
0.7007	5.45373	-2.19158	0	
0.7013	6.35023	-1.89508	0	
0.7020	4.53232	-3.72569	0	
0.7027	1.79301	-3.72569	0	
0.7033	0.572766	-3.41629	0	
0.7040	-0.34864	-3.72569	0	
0.7047	0.572766	-3.10689	0	
0.7053	2.68951	-2.81038	0	
0.7060	3.61092	-4.641	0	
0.7067	3.31208	-4.641	0	
0.7073	4.83116	-0.979767	0	
0.7080	5.75256	0.863742	0	
0.7087	5.45373	0.863742	0	
0.7093	7.57048	-0.0644584	0	
0.7100	11.8538	-3.72569	0	
0.7107	14.5931	-3.72569	0	
0.7113	15.5145	-0.0644584	0	
0.7120	15.5145	1.16025	0	
0.7127	13.6966	-0.0644584	0	
0.7133	10.6335	-0.979767	0	
0.7140	7.89421	-2.81038	0	
0.7147	6.35023	-2.81038	0	
0.7153	5.12999	-1.89508	0	
0.7160	2.39068	-2.19158	0	
0.7167	-3.71053	-1.89508	0	
0.7173	-6.77358	-0.360967	0	
0.7180	-7.37125	-1.58568	0	
0.7187	-11.032	-3.10689	0	
0.7193	-14.3939	-1.89508	0	
0.7200	-13.7713	-0.0644584	0	
0.7207	-16.5355	-0.0644584	0	
0.7213	-19.5737	-0.979767	0	
0.7220	-16.2118	-0.360967	0	
0.7227	-11.032	0.554342	0	
0.7233	-5.85218	-0.979767	0	
0.7240	3.01325	-0.979767	0	
0.7247	11.5549	1.46965	0	
0.7253	15.8133	0.244942	0	
0.7260	17.6561	-3.41629	0	
0.7267	17.6561	-1.89508	0	
0.7273	18.2538	0.863742	0	
0.7280	16.4359	-0.670367	0	
0.7287	8.19305	-1.89508	0	
0.7293	0.871601	0.244942	0	
0.7300	-0.34864	2.69436	0	
0.7307	-4.63194	1.77905	0	
0.7313	-12.8748	0.244942	0	
0.7320	-16.8343	0.863742	0	
0.7327	-16.5355	2.07556	0	
0.7333	-15.9129	2.69436	0	
0.7340	-16.5355	3.60967	0	
0.7347	-16.5355	2.38496	0	
0.7353	-12.8748	-0.670367	0	
0.7360	-10.1106	-0.0644584	0	
0.7367	-11.032	1.77905	0	
0.7373	-11.032	-0.0644584	0	
0.7380	-7.37125	0.554342	0	
0.7387	-6.77358	3.60967	0	
0.7393	-7.07242	1.16025	0	
0.7400	-4.00936	-3.72569	0	
0.7407	-0.647475	-2.81038	0	
0.7413	-0.0498058	-0.0644584	0	
0.7420	-0.0498058	-0.979767	0	
0.7427	-0.0498058	-0.979767	0	
0.7433	0.871601	2.07556	0	
0.7440	3.90975	3.90618	0	
0.7447	7.57048	2.69436	0	
0.7453	9.11445	0.863742	0	
0.7460	10.6335	0.554342	0	
0.7467	11.2561	0.554342	0	
0.7473	9.41329	0.863742	0	
0.7480	6.97281	1.46965	0	
0.7487	4.83116	1.16025	0	
0.7493	0.249029	-0.0644584	0	
0.7500	-4.00936	0.863742	0	
0.7507	-3.71053	2.69436	0	
0.7513	-2.78912	2.07556	0	
0.7520	-6.15101	0.554342	0	
0.7527	-9.21406	1.16025	0	
0.7533	-10.4343	1.16025	0	
0.7540	-10.7331	-0.670367	0	
0.7547	-9.21406	-1.27628	0	
0.7553	-7.37125	-0.979767	0	
0.7560	-8.29266	-0.670367	0	
0.7567	-7.37125	-0.670367	0	
0.7573	-4.63194	-2.81038	0	
0.7580	-2.49029	-3.41629	0	
0.7587	-0.647475	-1.27628	0	
0.7593	2.39068	-0.979767	0	
0.7600	3.61092	-2.81038	0	
0.7607	4.23349	-2.19158	0	
0.7613	5.45373	-2.19158	0	
0.7620	6.97281	-4.641	0	
0.7627	7.89421	-4.641	0	
0.7633	10.3347	-3.72569	0	
0.7640	15.2157	-4.93751	0	
0.7647	18.8764	-3.72569	0	
0.7653	17.6561	-0.979767	0	
0.7660	15.2157	-2.50098	0	
0.7667	14.2943	-4.0222	0	
0.7673	14.5931	-1.58568	0	
0.7680	14.9168	0.554342	0	
0.7687	12.4763	-0.0644584	0	
0.7693	7.27164	-0.979767	0	
0.7700	3.61092	-0.979767	0	
0.7707	1.17044	-0.0644584	0	
0.7713	-2.78912	2.69436	0	
0.7720	-4.63194	4.52498	0	
0.7727	-4.93077	3.90618	0	
0.7733	-8.29266	3.60967	0	
0.7740	-12.8748	4.82149	0	
0.7747	-17.432	4.52498	0	
0.7753	-18.3534	4.52498	0	
0.7760	-14.6927	4.21558	0	
0.7767	-10.7331	2.69436	0	
0.7773	-11.6545	3.60967	0	
0.7780	-12.5511	5.13089	0	
0.7787	-11.9534	1.16025	0	
0.7793	-11.9534	-3.72569	0	
0.7800	-11.032	-2.19158	0	
0.7807	-9.21406	1.16025	0	
0.7813	-8.29266	-0.0644584	0	
0.7820	-5.52844	-0.670367	0	
0.7827	-2.78912	0.863742	0	
0.7833	-4.00936	-0.670367	0	
0.7840	-5.85218	-0.979767	0	
0.7847	-4.93077	0.554342	0	
0.7853	-4.3082	-0.0644584	0	
0.7860	-5.2296	-1.58568	0	
0.7867	-4.63194	-0.979767	0	
0.7873	-0.971212	-0.360967	0	
0.7880	3.31208	0.554342	0	
0.7887	5.12999	2.99087	0	
0.7893	4.83116	2.38496	0	
0.7900	6.35023	-0.360967	0	
0.7907	8.79072	-0.360967	0	
0.7913	9.11445	0.554342	0	
0.7920	7.57048	-0.979767	0	
0.7927	6.35023	-1.89508	0	
0.7933	6.35023	-0.979767	0	
0.7940	9.11445	-0.360967	0	
0.7947	10.9324	-0.360967	0	
0.7953	6.97281	-0.979767	0	
0.7960	5.45373	-1.27628	0	
0.7967	10.9324	-1.27628	0	
0.7973	12.7752	-0.670367	0	
0.7980	8.19305	-0.0644584	0	
0.7987	5.45373	-0.360967	0	
0.7993	4.53232	-1.58568	0	
0.8000	1.79301	-3.41629	0	
0.8007	1.17044	-4.0222	0	
0.8013	1.79301	-3.41629	0	
0.8020	-0.647475	-2.50098	0	
0.8027	-0.0498058	-2.81038	0	
0.8033	2.39068	-2.50098	0	
0.8040	-2.19145	-2.81038	0	
0.8047	-6.77358	-4.641	0	
0.8053	-3.71053	-3.72569	0	
0.8060	-1.86772	-1.58568	0	
0.8067	-1.56888	-3.72569	0	
0.8073	2.68951	-5.55631	0	
0.8080	5.75256	-3.10689	0	
0.8087	4.23349	-0.670367	0	
0.8093	3.61092	-0.360967	0	
0.8100	3.61092	1.46965	0	
0.8107	2.68951	3.60967	0	
0.8113	2.68951	3.90618	0	
0.8120	2.39068	2.99087	0	
0.8127	-0.0498058	-0.0644584	0	
0.8133	-2.49029	-3.72569	0	
0.8140	-4.63194	-2.81038	0	
0.8147	-6.44985	2.69436	0	
0.8153	-6.77358	3.90618	0	
0.8160	-7.67009	0.554342	0	
0.8167	-10.1106	-0.670367	0	
0.8173	-10.4343	0.863742	0	
0.8180	-9.21406	0.554342	0	
0.8187	-10.1106	-0.979767	0	
0.8193	-12.8748	0.863742	0	
0.8200	-12.5511	1.16025	0	
0.8207	-5.52844	-2.19158	0	
0.8213	2.68951	-4.0222	0	
0.8220	7.57048	-2.81038	0	
0.8227	9.41329	-3.41629	0	
0.8233	8.19305	-4.641	0	
0.8240	4.53232	-3.41629	0	
0.8247	3.61092	-0.0644584	0	
0.8253	5.12999	-0.0644584	0	
0.8260	5.12999	-0.979767	0	
0.8267	5.45373	-0.979767	0	
0.8273	6.0514	-1.89508	0	
0.8280	3.61092	-3.10689	0	
0.8287	-0.0498058	-3.10689	0	
0.8293	-1.86772	-3.41629	0	
0.8300	-1.27005	-3.10689	0	
0.8307	-0.0498058	-0.360967	0	
0.8313	-0.971212	2.69436	0	
0.8320	-3.71053	1.16025	0	
0.8327	-3.71053	-0.0644584	0	
0.8333	-3.41169	1.77905	0	
0.8340	-4.63194	2.69436	0	
0.8347	-6.15101	0.863742	0	
0.8353	-8.29266	0.244942	0	
0.8360	-10.4343	1.16025	0	
0.8367	-8.29266	-0.0644584	0	
0.8373	-4.00936	-0.670367	0	
0.8380	-1.27005	-0.0644584	0	
0.8387	1.79301	-0.979767	0	
0.8393	4.23349	-0.979767	0	
0.8400	3.61092	1.46965	0	
0.8407	2.09184	-0.0644584	0	
0.8413	2.68951	-0.979767	0	
0.8420	3.61092	2.38496	0	
0.8427	3.31208	2.07556	0	
0.8433	2.39068	-1.58568	0	
0.8440	0.871601	-0.979767	0	
0.8447	0.249029	1.16025	0	
0.8453	0.249029	-0.360967	0	
0.8460	-0.971212	-3.10689	0	
0.8467	-4.00936	-3.72569	0	
0.8473	-6.77358	-0.670367	0	
0.8480	-6.77358	3.60967	0	
0.8487	-4.00936	2.99087	0	
0.8493	-4.63194	0.863742	0	
0.8500	-7.37125	2.38496	0	
0.8507	-5.85218	2.99087	0	
0.8513	-3.08796	0.554342	0	
0.8520	-3.08796	0.554342	0	
0.8527	-1.56888	1.46965	0	
0.8533	0.871601	-0.979767	0	
0.8540	2.09184	-3.72569	0	
0.8547	4.83116	-2.81038	0	
0.8553	6.67397	0.554342	0	
0.8560	3.61092	1.46965	0	
0.8567	3.01325	-0.0644584	0	
0.8573	6.0514	-0.670367	0	
0.8580	4.53232	-0.360967	0	
0.8587	1.79301	-0.979767	0	
0.8593	1.79301	-0.979767	0	
0.8600	2.68951	-0.0644584	0	
0.8607	3.31208	-0.979767	0	
0.8613	2.39068	-0.979767	0	
0.8620	-0.971212	-0.979767	0	
0.8627	-2.19145	-1.27628	0	
0.8633	-0.971212	-0.0644584	0	
0.8640	-0.971212	1.77905	0	
0.8647	-0.971212	-0.0644584	0	
0.8653	-1.56888	-0.979767	0	
0.8660	-3.41169	-1.27628	0	
0.8667	-4.63194	-2.50098	0	
0.8673	-5.85218	-0.670367	0	
0.8680	-7.37125	1.77905	0	
0.8687	-6.44985	-0.670367	0	
0.8693	-4.00936	-2.19158	0	
0.8700	-2.49029	1.46965	0	
0.8707	-2.78912	2.69436	0	
0.8713	-2.78912	0.554342	0	
0.8720	-0.647475	0.863742	0	
0.8727	3.61092	2.38496	0	
0.8733	6.35023	0.863742	0	
0.8740	6.35023	0.244942	0	
0.8747	7.27164	0.863742	0	
0.8753	7.89421	-0.360967	0	
0.8760	9.41329	-1.27628	0	
0.8767	13.3728	-0.979767	0	
0.8773	17.3573	-1.27628	0	
0.8780	18.2538	-2.81038	0	
0.8787	17.3573	-2.81038	0	
0.8793	16.4359	-3.72569	0	
0.8800	15.2157	-3.72569	0	
0.8807	12.7752	-1.89508	0	
0.8813	8.19305	-1.27628	0	
0.8820	4.53232	-2.19158	0	
0.8827	1.46927	-1.27628	0	
0.8833	-4.63194	-0.0644584	0	
0.8840	-11.3308	-0.979767	0	
0.8847	-13.1736	-1.89508	0	
0.8853	-10.7331	-2.19158	0	
0.8860	-7.37125	-1.89508	0	
0.8867	-4.63194	-1.27628	0	
0.8873	-2.78912	-1.27628	0	
0.8880	-3.41169	-0.670367	0	
0.8887	-2.78912	0.863742	0	
0.8893	2.68951	0.554342	0	
0.8900	7.57048	-0.0644584	0	
0.8907	7.27164	1.16025	0	
0.8913	5.45373	0.863742	0	
0.8920	3.90975	0.554342	0	
0.8927	0.871601	2.69436	0	
0.8933	-0.34864	3.30027	0	
0.8940	-1.27005	1.46965	0	
0.8947	-5.2296	-0.360967	0	
0.8953	-5.85218	-2.50098	0	
0.8960	-2.78912	-4.0222	0	
0.8967	-5.52844	-2.81038	0	
0.8973	-8.89033	-0.0644584	0	
0.8980	-4.00936	0.244942	0	
0.8987	0.572766	-0.670367	0	
0.8993	-1.86772	0.863742	0	
0.9000	-4.93077	3.30027	0	
0.9007	-5.2296	3.30027	0	
0.9013	-5.2296	2.38496	0	
0.9020	-7.37125	3.90618	0	
0.9027	-11.9534	5.44029	0	
0.9033	-11.9534	4.82149	0	
0.9040	-9.21406	5.73679	0	
0.9047	-10.4343	6.3556	0	
0.9053	-12.8748	5.44029	0	
0.9060	-11.9534	5.13089	0	
0.9067	-10.7331	5.44029	0	
0.9073	-11.032	4.82149	0	
0.9080	-10.7331	6.9615	0	
0.9087	-11.3308	8.18621	0	
0.9093	-11.6545	3.60967	0	
0.9100	-8.89033	0.863742	0	
0.9107	-7.37125	3.30027	0	
0.9113	-5.85218	3.60967	0	
0.9120	-1.86772	1.77905	0	
0.9127	-0.0498058	0.863742	0	
0.9133	-1.86772	-1.27628	0	
0.9140	-1.27005	-1.89508	0	
0.9147	1.46927	0.244942	0	
0.9153	-0.0498058	-0.979767	0	
0.9160	-4.63194	-2.81038	0	
0.9167	-4.63194	-0.979767	0	
0.9173	-1.56888	-0.670367	0	
0.9180	-1.56888	-3.41629	0	
0.9187	-4.3082	-3.72569	0	
0.9193	-4.00936	-3.10689	0	
0.9200	-2.49029	-2.50098	0	
0.9207	-2.78912	-2.50098	0	
0.9213	-0.647475	-3.72569	0	
0.9220	3.61092	-3.72569	0	
0.9227	2.68951	-1.89508	0	
0.9233	2.68951	-2.81038	0	
0.9240	7.57048	-3.10689	0	
0.9247	10.9324	-0.979767	0	
0.9253	8.19305	-0.0644584	0	
0.9260	7.27164	-1.27628	0	
0.9267	8.19305	-1.27628	0	
0.9273	7.27164	-0.360967	0	
0.9280	7.27164	-0.979767	0	
0.9287	10.3347	-1.89508	0	
0.9293	13.6966	-1.27628	0	
0.9300	17.955	-1.27628	0	
0.9307	22.8359	-2.81038	0	
0.9313	24.355	-3.10689	0	
0.9320	23.1348	-2.19158	0	
0.9327	21.018	-0.979767	0	
0.9333	17.0336	-0.0644584	0	
0.9340	13.074	-0.979767	0	
0.9347	10.6335	-3.72569	0	
0.9353	6.35023	-4.3316	0	
0.9360	1.17044	-3.10689	0	
0.9367	-1.27005	-5.24691	0	
0.9373	-0.971212	-5.85282	0	
0.9380	-2.49029	-3.10689	0	
0.9387	-5.52844	-4.641	0	
0.9393	-7.07242	-9.21755	0	
0.9400	-8.29266	-7.07753	0	
0.9407	-10.4343	-3.72569	0	
0.9413	-10.4343	-4.0222	0	
0.9420	-7.37125	-3.72569	0	
0.9427	-7.07242	-1.89508	0	
0.9433	-9.21406	-1.27628	0	
0.9440	-9.81173	-1.58568	0	
0.9447	-8.29266	-1.58568	0	
0.9453	-5.52844	-1.27628	0	
0.9460	-3.41169	-0.0644584	0	
0.9467	-3.41169	-0.979767	0	
0.9473	-4.93077	-1.89508	0	
0.9480	-4.63194	-0.0644584	0	
0.9487	-3.71053	1.16025	0	
0.9493	-5.52844	-0.360967	0	
0.9500	-4.93077	-0.0644584	0	
0.9507	-0.971212	1.16025	0	
0.9513	2.39068	-0.0644584	0	
0.9520	0.249029	-0.670367	0	
0.9527	-3.71053	0.244942	0	
0.9533	-4.93077	0.863742	0	
0.9540	-3.71053	0.554342	0	
0.9547	-1.86772	-0.0644584	0	
0.9553	-0.971212	0.863742	0	
0.9560	-0.647475	2.69436	0	
0.9567	-2.49029	2.69436	0	
0.9573	-4.00936	2.69436	0	
0.9580	-2.78912	4.52498	0	
0.9587	-0.34864	4.21558	0	
0.9593	1.79301	2.69436	0	
0.9600	1.79301	3.30027	0	
0.9607	0.249029	1.77905	0	
0.9613	0.572766	-0.979767	0	
0.9620	1.79301	-3.10689	0	
0.9627	2.68951	-3.72569	0	
0.9633	4.23349	-2.19158	0	
0.9640	9.71212	-0.0644584	0	
0.9647	14.2943	-0.979767	0	
0.9653	14.2943	-2.81038	0	
0.9660	12.4763	-0.0644584	0	
0.9667	10.011	1.77905	0	
0.9673	6.35023	-0.0644584	0	
0.9680	4.53232	-1.89508	0	
0.9687	7.27164	-2.50098	0	
0.9693	12.7752	-0.979767	0	
0.9700	13.9954	1.46965	0	
0.9707	10.6335	0.863742	0	
0.9713	8.19305	0.244942	0	
0.9720	8.19305	2.07556	0	
0.9727	6.35023	2.69436	0	
0.9733	2.68951	1.77905	0	
0.9740	0.572766	2.07556	0	
0.9747	-1.27005	2.69436	0	
0.9753	-5.85218	2.07556	0	
0.9760	-11.6545	1.46965	0	
0.9767	-15.3153	2.69436	0	
0.9773	-16.5355	3.90618	0	
0.9780	-17.7558	5.44029	0	
0.9787	-20.7939	6.04619	0	
0.9793	-23.857	4.52498	0	
0.9800	-25.9986	3.30027	0	
0.9807	-26.5963	3.60967	0	
0.9813	-25.6749	2.38496	0	
0.9820	-24.1558	-1.27628	0	
0.9827	-20.4951	-2.19158	0	
0.9833	-14.6927	-0.979767	0	
0.9840	-10.1106	-1.58568	0	
0.9847	-6.44985	-3.41629	0	
0.9853	-1.86772	-3.72569	0	
0.9860	3.61092	-3.10689	0	
0.9867	8.49188	-2.50098	0	
0.9873	11.2561	-2.81038	0	
0.9880	10.9324	-2.81038	0	
0.9887	11.8538	-1.58568	0	
0.9893	13.6966	-0.0644584	0	
0.9900	10.9324	1.16025	0	
0.9907	6.35023	1.77905	0	
0.9913	4.53232	1.77905	0	
0.9920	4.23349	1.46965	0	
0.9927	3.61092	0.554342	0	
0.9933	4.53232	-0.979767	0	
0.9940	5.45373	-1.27628	0	
0.9947	3.90975	-0.670367	0	
0.9953	0.871601	-0.360967	0	
0.9960	-1.27005	-1.58568	0	
0.9967	-2.49029	-2.81038	0	
0.9973	-5.52844	-1.89508	0	
0.9980	-7.67009	-0.979767	0	
0.9987	-6.44985	-1.27628	0	
0.9993	-7.99382	-2.50098	0	
1.0000	-13.7713	-3.72569	0	
1.0007	-15.6141	-4.641	0	
1.0013	-14.095	-4.3316	0	
1.0020	-12.8748	-1.89508	0	
1.0027	-9.5129	0.244942	0	
1.0033	-4.00936	-1.27628	0	
1.0040	-1.27005	-3.72569	0	
1.0047	0.249029	-3.72569	0	
1.0053	2.39068	-2.81038	0	
1.0060	3.90975	-1.89508	0	
1.0067	7.57048	-1.58568	0	
1.0073	11.8538	-1.27628	0	
1.0080	13.6966	-1.89508	0	
1.0087	13.6966	-3.72569	0	
1.0093	13.6966	-3.41629	0	
1.0100	12.4763	0.863742	0	
1.0107	11.2561	3.30027	0	
1.0113	10.011	-0.360967	0	
1.0120	7.57048	-3.10689	0	
1.0127	6.97281	-0.360967	0	
1.0133	6.35023	-0.0644584	0	
1.0140	3.61092	-2.50098	0	
1.0147	2.39068	-0.979767	0	
1.0153	1.46927	2.99087	0	
1.0160	-1.27005	3.60967	0	
1.0167	-1.86772	0.244942	0	
1.0173	-1.27005	-2.19158	0	
1.0180	-4.3082	-0.979767	0	
1.0187	-5.52844	1.16025	0	
1.0193	-2.78912	0.863742	0	
1.0200	-2.78912	-0.670367	0	
1.0207	-5.52844	-1.89508	0	
1.0213	-4.93077	-2.81038	0	
1.0220	-0.971212	-1.89508	0	
1.0227	2.68951	-0.360967	0	
1.0233	2.68951	-0.0644584	0	
1.0240	2.68951	-0.0644584	0	
1.0247	5.45373	0.244942	0	
1.0253	7.89421	-1.58568	0	
1.0260	6.35023	-2.81038	0	
1.0267	6.67397	-0.670367	0	
1.0273	7.89421	0.863742	0	
1.0280	4.53232	0.244942	0	
1.0287	2.68951	-0.0644584	0	
1.0293	3.90975	0.554342	0	
1.0300	3.90975	-0.360967	0	
1.0307	3.31208	-0.0644584	0	
1.0313	3.90975	3.30027	0	
1.0320	3.31208	4.82149	0	
1.0327	2.68951	1.46965	0	
1.0333	4.53232	0.554342	0	
1.0340	5.45373	3.60967	0	
1.0347	4.23349	1.77905	0	
1.0353	3.61092	-2.50098	0	
1.0360	2.09184	-2.19158	0	
1.0367	-1.27005	-0.670367	0	
1.0373	-3.08796	-0.670367	0	
1.0380	-4.63194	0.244942	0	
1.0387	-5.85218	0.554342	0	
1.0393	-3.71053	-1.58568	0	
1.0400	-0.0498058	-4.3316	0	
1.0407	1.17044	-5.24691	0	
1.0413	2.68951	-3.41629	0	
1.0420	4.53232	-2.19158	0	
1.0427	3.61092	-4.0222	0	
1.0433	1.79301	-3.72569	0	
1.0440	2.09184	-1.89508	0	
1.0447	0.871601	-3.72569	0	
1.0453	-4.93077	-4.641	0	
1.0460	-10.1106	-2.19158	0	
1.0467	-11.6545	-1.58568	0	
1.0473	-11.9534	-0.979767	0	
1.0480	-11.3308	1.77905	0	
1.0487	-11.3308	2.07556	0	
1.0493	-13.1736	1.77905	0	
1.0500	-13.7713	3.60967	0	
1.0507	-10.7331	2.69436	0	
1.0513	-6.44985	-1.89508	0	
1.0520	-4.63194	-2.81038	0	
1.0527	-4.63194	0.863742	0	
1.0533	-5.2296	2.38496	0	
1.0540	-4.93077	0.554342	0	
1.0547	-3.71053	0.863742	0	
1.0553	-4.00936	3.90618	0	
1.0560	-7.99382	3.60967	0	
1.0567	-10.1106	0.863742	0	
1.0573	-7.37125	0.554342	0	
1.0580	-5.85218	0.244942	0	
1.0587	-8.29266	-0.979767	0	
1.0593	-9.21406	-0.979767	0	
1.0600	-7.67009	-1.58568	0	
1.0607	-5.85218	-3.72569	0	
1.0613	-2.19145	-3.72569	0	
1.0620	0.871601	-1.58568	0	
1.0627	0.871601	-0.0644584	0	
1.0633	2.68951	0.554342	0	
1.0640	6.67397	0.863742	0	
1.0647	9.41329	-0.979767	0	
1.0653	14.5931	-2.81038	0	
1.0660	22.2383	-2.81038	0	
1.0667	24.9776	-2.81038	0	
1.0673	24.9776	-3.41629	0	
1.0680	26.1978	-3.10689	0	
1.0687	24.355	-1.58568	0	
1.0693	19.4741	-1.58568	0	
1.0700	14.9168	-2.19158	0	
1.0707	10.011	-0.979767	0	
1.0713	5.45373	-0.360967	0	
1.0720	5.45373	-1.27628	0	
1.0727	3.61092	-0.360967	0	
1.0733	-2.78912	1.46965	0	
1.0740	-7.99382	0.863742	0	
1.0747	-8.59149	-0.670367	0	
1.0753	-7.37125	-0.0644584	0	
1.0760	-4.93077	0.244942	0	
1.0767	-2.78912	-0.979767	0	
1.0773	-2.19145	-0.979767	0	
1.0780	-3.08796	1.77905	0	
1.0787	-5.52844	1.77905	0	
1.0793	-8.29266	-1.58568	0	
1.0800	-8.59149	-2.50098	0	
1.0807	-4.93077	-1.27628	0	
1.0813	-3.71053	-0.979767	0	
1.0820	-5.52844	1.16025	0	
1.0827	-4.63194	3.30027	0	
1.0833	-0.647475	0.863742	0	
1.0840	1.79301	-0.670367	0	
1.0847	2.68951	1.77905	0	
1.0853	2.39068	1.16025	0	
1.0860	0.871601	-1.27628	0	
1.0867	0.871601	-0.0644584	0	
1.0873	1.79301	0.554342	0	
1.0880	1.46927	0.244942	0	
1.0887	3.61092	2.07556	0	
1.0893	5.75256	2.07556	0	
1.0900	3.01325	-0.0644584	0	
1.0907	3.01325	-0.0644584	0	
1.0913	5.45373	-0.0644584	0	
1.0920	1.79301	-1.27628	0	
1.0927	-2.78912	-1.89508	0	
1.0933	-2.19145	-1.58568	0	
1.0940	-2.78912	-0.670367	0	
1.0947	-3.71053	-0.670367	0	
1.0953	-3.71053	-2.50098	0	
1.0960	-4.63194	-2.19158	0	
1.0967	-4.93077	0.863742	0	
1.0973	-5.52844	0.863742	0	
1.0980	-10.1106	0.554342	0	
1.0987	-11.9534	1.46965	0	
1.0993	-9.21406	-0.0644584	0	
1.1000	-11.032	-1.89508	0	
1.1007	-12.8748	-0.979767	0	
1.1013	-7.07242	-1.89508	0	
1.1020	-0.34864	-2.50098	0	
1.1027	2.39068	-1.89508	0	
1.1033	5.45373	-3.72569	0	
1.1040	8.19305	-3.41629	0	
1.1047	7.57048	0.244942	0	
1.1053	5.12999	-0.0644584	0	
1.1060	4.23349	-3.10689	0	
1.1067	5.12999	-3.72569	0	
1.1073	5.12999	-2.81038	0	
1.1080	4.53232	-1.27628	0	
1.1087	5.12999	-0.0644584	0	
1.1093	3.61092	-2.19158	0	
1.1100	-1.27005	-2.81038	0	
1.1107	-3.41169	-0.360967	0	
1.1113	-4.00936	-0.979767	0	
1.1120	-8.29266	-0.979767	0	
1.1127	-10.7331	3.30027	0	
1.1133	-7.99382	2.99087	0	
1.1140	-8.89033	-2.19158	0	
1.1147	-13.4725	-1.27628	0	
1.1153	-13.7713	3.60967	0	
1.1160	-11.032	3.90618	0	
1.1167	-7.99382	2.99087	0	
1.1173	-2.78912	1.77905	0	
1.1180	0.572766	-0.979767	0	
1.1187	2.68951	-1.89508	0	
1.1193	8.79072	-0.360967	0	
1.1200	11.8538	-1.89508	0	
1.1207	10.011	-3.72569	0	
1.1213	10.9324	-3.72569	0	
1.1220	12.1526	-2.81038	0	
1.1227	7.89421	-2.19158	0	
1.1233	6.0514	-2.81038	0	
1.1240	8.49188	-3.72569	0	
1.1247	7.27164	-3.41629	0	
1.1253	5.45373	-3.41629	0	
1.1260	7.27164	-5.24691	0	
1.1267	8.19305	-4.641	0	
1.1273	5.75256	-1.89508	0	
1.1280	4.53232	-0.979767	0	
1.1287	2.68951	-0.360967	0	
1.1293	0.249029	2.38496	0	
1.1300	-1.86772	2.99087	0	
1.1307	-3.71053	2.69436	0	
1.1313	-7.99382	3.90618	0	
1.1320	-11.6545	4.52498	0	
1.1327	-12.8748	3.90618	0	
1.1333	-12.8748	5.13089	0	
1.1340	-11.3308	5.13089	0	
1.1347	-6.77358	4.52498	0	
1.1353	0.572766	4.52498	0	
1.1360	6.35023	1.77905	0	
1.1367	7.57048	0.244942	0	
1.1373	6.35023	2.99087	0	
1.1380	7.89421	1.46965	0	
1.1387	7.89421	-4.3316	0	
1.1393	4.53232	-4.641	0	
1.1400	4.83116	-2.81038	0	
1.1407	8.49188	-3.10689	0	
1.1413	8.19305	-2.81038	0	
1.1420	7.89421	-1.89508	0	
1.1427	8.79072	-2.50098	0	
1.1433	5.45373	-0.670367	0	
1.1440	0.572766	1.16025	0	
1.1447	0.249029	0.554342	0	
1.1453	0.871601	-0.0644584	0	
1.1460	-1.56888	1.16025	0	
1.1467	-2.78912	2.99087	0	
1.1473	-2.78912	4.52498	0	
1.1480	-5.52844	3.30027	0	
1.1487	-6.77358	2.38496	0	
1.1493	-5.85218	3.30027	0	
1.1500	-6.44985	2.38496	0	
1.1507	-5.2296	1.77905	0	
1.1513	0.572766	3.60967	0	
1.1520	3.31208	3.30027	0	
1.1527	1.79301	2.07556	0	
1.1533	2.09184	2.07556	0	
1.1540	2.68951	-0.0644584	0	
1.1547	1.17044	-0.0644584	0	
1.1553	-0.0498058	2.69436	0	
1.1560	-1.86772	2.38496	0	
1.1567	-4.63194	-0.0644584	0	
1.1573	-4.63194	-0.360967	0	
1.1580	-5.52844	-0.360967	0	
1.1587	-8.29266	-0.0644584	0	
1.1593	-6.77358	1.77905	0	
1.1600	-0.971212	-0.0644584	0	
1.1607	2.68951	-3.72569	0	
1.1613	3.90975	-3.72569	0	
1.1620	4.83116	-2.19158	0	
1.1627	5.75256	-2.50098	0	
1.1633	6.35023	-1.58568	0	
1.1640	6.35023	-1.27628	0	
1.1647	6.97281	-4.0222	0	
1.1653	6.67397	-5.85282	0	
1.1660	3.61092	-4.641	0	
1.1667	-0.34864	-3.72569	0	
1.1673	-4.63194	-3.10689	0	
1.1680	-8.89033	-0.360967	0	
1.1687	-11.6545	1.77905	0	
1.1693	-12.8748	0.244942	0	
1.1700	-12.2522	-1.27628	0	
1.1707	-10.7331	-1.89508	0	
1.1713	-8.29266	-1.89508	0	
1.1720	-5.2296	1.77905	0	
1.1727	-0.971212	5.44029	0	
1.1733	-0.34864	3.90618	0	
1.1740	-4.3082	1.77905	0	
1.1747	-6.15101	2.69436	0	
1.1753	-4.63194	2.38496	0	
1.1760	-3.41169	0.554342	0	
1.1767	-1.27005	-0.0644584	0	
1.1773	1.79301	0.863742	0	
1.1780	1.46927	1.77905	0	
1.1787	-0.0498058	0.244942	0	
1.1793	-0.0498058	-1.89508	0	
1.1800	-1.86772	-0.670367	0	
1.1807	-5.85218	0.244942	0	
1.1813	-6.44985	-1.89508	0	
1.1820	-6.15101	-0.979767	0	
1.1827	-9.21406	2.99087	0	
1.1833	-11.032	2.69436	0	
1.1840	-8.59149	-0.0644584	0	
1.1847	-6.44985	-0.979767	0	
1.1853	-6.77358	-2.81038	0	
1.1860	-6.44985	-4.93751	0	
1.1867	-7.99382	-3.72569	0	
1.1873	-10.7331	-0.360967	0	
1.1880	-9.5129	-0.979767	0	
1.1887	-5.85218	-1.89508	0	
1.1893	-4.63194	0.244942	0	
1.1900	-3.71053	1.77905	0	
1.1907	-1.27005	0.244942	0	
1.1913	-0.34864	0.244942	0	
1.1920	-0.971212	0.863742	0	
1.1927	-0.971212	-0.670367	0	
1.1933	1.17044	-0.670367	0	
1.1940	5.45373	0.863742	0	
1.1947	7.57048	-0.0644584	0	
1.1953	4.23349	-0.979767	0	
1.1960	2.68951	-0.670367	0	
1.1967	2.68951	-1.58568	0	
1.1973	2.39068	-1.89508	0	
1.1980	2.68951	-0.979767	0	
1.1987	4.23349	-2.19158	0	
1.1993	3.01325	-3.72569	0	
1.2000	2.68951	-3.10689	0	
1.2007	4.53232	-3.10689	0	
1.2013	6.35023	-4.3316	0	
1.2020	9.41329	-3.72569	0	
1.2027	14.2943	-3.72569	0	
1.2033	14.9168	-4.93751	0	
1.2040	12.7752	-4.641	0	
1.2047	13.6966	-3.72569	0	
1.2053	14.5931	-5.55631	0	
1.2060	12.7752	-5.85282	0	
1.2067	10.3347	-3.72569	0	
1.2073	10.011	-4.3316	0	
1.2080	10.3347	-6.16222	0	
1.2087	9.11445	-3.72569	0	
1.2093	8.19305	-2.19158	0	
1.2100	9.11445	-4.3316	0	
1.2107	10.011	-2.50098	0	
1.2113	8.19305	0.863742	0	
1.2120	5.12999	-1.89508	0	
1.2127	1.17044	-3.72569	0	
1.2133	-2.78912	-1.89508	0	
1.2140	-6.44985	-1.89508	0	
1.2147	-8.29266	-2.81038	0	
1.2153	-10.4343	-3.10689	0	
1.2160	-16.2118	-3.10689	0	
1.2167	-21.7153	-1.89508	0	
1.2173	-17.7558	-0.979767	0	
1.2180	-10.1106	-2.19158	0	
1.2187	-8.29266	-1.89508	0	
1.2193	-10.1106	-0.0644584	0	
1.2200	-8.89033	-1.89508	0	
1.2207	-9.21406	-2.81038	0	
1.2213	-11.3308	0.863742	0	
1.2220	-10.7331	0.863742	0	
1.2227	-10.1106	-2.19158	0	
1.2233	-11.032	-0.360967	0	
1.2240	-9.81173	2.38496	0	
1.2247	-7.37125	1.16025	0	
1.2253	-6.44985	0.244942	0	
1.2260	-4.63194	1.46965	0	
1.2267	-1.86772	2.38496	0	
1.2273	-0.34864	2.38496	0	
1.2280	2.68951	0.863742	0	
1.2287	7.89421	0.244942	0	
1.2293	10.011	1.46965	0	
1.2300	7.57048	2.38496	0	
1.2307	7.27164	3.90618	0	
1.2313	10.6335	4.82149	0	
1.2320	10.9324	2.07556	0	
1.2327	8.19305	-0.0644584	0	
1.2333	8.79072	1.77905	0	
1.2340	10.9324	0.863742	0	
1.2347	10.9324	-0.979767	0	
1.2353	11.8538	1.16025	0	
1.2360	13.3728	-0.0644584	0	
1.2367	11.2561	-2.81038	0	
1.2373	9.11445	-0.0644584	0	
1.2380	8.79072	1.77905	0	
1.2387	6.35023	-0.0644584	0	
1.2393	2.68951	-0.0644584	0	
1.2400	-0.971212	-0.0644584	0	
1.2407	-6.44985	-0.360967	0	
1.2413	-11.032	2.07556	0	
1.2420	-10.7331	3.30027	0	
1.2427	-9.5129	1.46965	0	
1.2433	-11.032	0.863742	0	
1.2440	-14.3939	1.46965	0	
1.2447	-16.2118	1.77905	0	
1.2453	-15.3153	0.244942	0	
1.2460	-11.032	-1.27628	0	
1.2467	-6.44985	1.16025	0	
1.2473	-4.3082	4.82149	0	
1.2480	-1.86772	2.69436	0	
1.2487	2.68951	1.16025	0	
1.2493	6.35023	3.60967	0	
1.2500	7.27164	1.77905	0	
1.2507	5.75256	-1.27628	0	
1.2513	5.45373	1.77905	0	
1.2520	6.35023	5.73679	0	
1.2527	8.19305	5.44029	0	
1.2533	8.19305	4.52498	0	
1.2540	8.19305	2.69436	0	
1.2547	8.19305	-0.360967	0	
1.2553	6.67397	-0.979767	0	
1.2560	6.35023	-0.979767	0	
1.2567	8.19305	-1.58568	0	
1.2573	8.19305	-0.979767	0	
1.2580	3.01325	-0.979767	0	
1.2587	-0.971212	-1.89508	0	
1.2593	-1.56888	0.863742	0	
1.2600	-0.971212	1.77905	0	
1.2607	-3.08796	-2.19158	0	
1.2613	-4.93077	-3.72569	0	
1.2620	-0.34864	-1.58568	0	
1.2627	4.83116	-1.27628	0	
1.2633	3.90975	-2.81038	0	
1.2640	6.35023	-2.81038	0	
1.2647	14.5931	-2.50098	0	
1.2653	14.5931	-2.50098	0	
1.2660	6.35023	-2.81038	0	
1.2667	4.23349	-4.0222	0	
1.2673	3.61092	-3.72569	0	
1.2680	-1.56888	-1.27628	0	
1.2687	-6.44985	-0.979767	0	
1.2693	-11.032	-1.58568	0	
1.2700	-16.5355	-2.19158	0	
1.2707	-15.3153	-0.979767	0	
1.2713	-12.2522	3.30027	0	
1.2720	-15.3153	4.52498	0	
1.2727	-15.3153	2.69436	0	
1.2733	-9.5129	4.52498	0	
1.2740	-7.67009	5.44029	0	
1.2747	-10.1106	1.77905	0	
1.2753	-10.7331	2.07556	0	
1.2760	-8.89033	4.52498	0	
1.2767	-8.29266	0.554342	0	
1.2773	-9.5129	0.244942	0	
1.2780	-10.4343	4.52498	0	
1.2787	-8.29266	0.554342	0	
1.2793	-6.44985	-3.72569	0	
1.2800	-7.99382	-0.979767	0	
1.2807	-7.99382	-0.979767	0	
1.2813	-5.52844	-2.50098	0	
1.2820	-3.71053	-0.360967	0	
1.2827	-4.93077	-0.670367	0	
1.2833	-4.63194	-2.81038	0	
1.2840	-0.0498058	-0.670367	0	
1.2847	3.61092	-0.670367	0	
1.2853	2.68951	-3.72569	0	
1.2860	0.871601	-3.72569	0	
1.2867	0.871601	-1.89508	0	
1.2873	1.46927	-1.89508	0	
1.2880	6.35023	-1.27628	0	
1.2887	10.3347	-1.27628	0	
1.2893	8.19305	-2.81038	0	
1.2900	7.57048	-2.50098	0	
1.2907	11.8538	-1.58568	0	
1.2913	12.7752	-2.19158	0	
1.2920	10.6335	-2.50098	0	
1.2927	12.4763	-2.19158	0	
1.2933	16.1371	-1.89508	0	
1.2940	15.5145	-1.89508	0	
1.2947	13.074	-1.89508	0	
1.2953	12.1526	-1.27628	0	
1.2960	12.1526	-0.979767	0	
1.2967	11.5549	-2.19158	0	
1.2973	10.9324	-0.979767	0	
1.2980	11.2561	1.77905	0	
1.2987	10.6335	0.554342	0	
1.2993	6.67397	-2.19158	0	
1.3000	2.68951	-0.360967	0	
1.3007	-2.19145	2.69436	0	
1.3013	-9.21406	2.07556	0	
1.3020	-14.9915	1.77905	0	
1.3027	-16.5355	3.60967	0	
1.3033	-15.6141	4.21558	0	
1.3040	-13.4725	1.77905	0	
1.3047	-11.032	0.244942	0	
1.3053	-6.44985	3.30027	0	
1.3060	-0.647475	5.13089	0	
1.3067	1.79301	1.77905	0	
1.3073	2.68951	-0.0644584	0	
1.3080	4.23349	2.69436	0	
1.3087	3.01325	2.99087	0	
1.3093	-0.0498058	1.46965	0	
1.3100	1.79301	2.07556	0	
1.3107	4.53232	1.77905	0	
1.3113	3.01325	-1.27628	0	
1.3120	2.68951	-2.81038	0	
1.3127	4.53232	-1.89508	0	
1.3133	3.31208	-0.360967	0	
1.3140	0.871601	-0.670367	0	
1.3147	-1.56888	-1.89508	0	
1.3153	-4.63194	-1.89508	0	
1.3160	-6.44985	-1.89508	0	
1.3167	-7.07242	-1.58568	0	
1.3173	-5.52844	-1.27628	0	
1.3180	-1.86772	-1.89508	0	
1.3187	-2.49029	-0.979767	0	
1.3193	-7.37125	2.07556	0	
1.3200	-8.29266	2.38496	0	
1.3207	-5.85218	-1.89508	0	
1.3213	-7.37125	-4.0222	0	
1.3220	-8.89033	-1.58568	0	
1.3227	-6.44985	-0.360967	0	
1.3233	-4.63194	-3.72569	0	
1.3240	-4.63194	-4.641	0	
1.3247	-2.78912	-3.72569	0	
1.3253	0.871601	-3.41629	0	
1.3260	4.53232	-1.89508	0	
1.3267	5.12999	0.863742	0	
1.3273	4.53232	-0.979767	0	
1.3280	7.27164	-3.72569	0	
1.3287	9.71212	-0.979767	0	
1.3293	7.27164	2.69436	0	
1.3300	5.45373	1.77905	0	
1.3307	5.12999	1.77905	0	
1.3313	2.68951	3.60967	0	
1.3320	0.871601	4.52498	0	
1.3327	0.871601	2.69436	0	
1.3333	-2.19145	0.863742	0	
1.3340	-5.52844	0.863742	0	
1.3347	-6.44985	0.863742	0	
1.3353	-9.81173	-1.27628	0	
1.3360	-15.6141	-1.89508	0	
1.3367	-17.7558	1.16025	0	
1.3373	-18.0546	1.16025	0	
1.3380	-17.432	-0.979767	0	
1.3387	-16.2118	1.77905	0	
1.3393	-13.7713	2.99087	0	
1.3400	-12.8748	0.863742	0	
1.3407	-12.8748	1.77905	0	
1.3413	-11.6545	0.863742	0	
1.3420	-6.15101	-1.89508	0	
1.3427	-0.647475	0.554342	0	
1.3433	1.17044	4.52498	0	
1.3440	2.09184	2.69436	0	
1.3447	3.90975	-0.670367	0	
1.3453	7.27164	-1.89508	0	
1.3460	10.011	-1.89508	0	
1.3467	8.79072	0.863742	0	
1.3473	6.97281	-0.0644584	0	
1.3480	7.57048	-4.0222	0	
1.3487	6.97281	-1.89508	0	
1.3493	4.53232	0.863742	0	
1.3500	4.23349	-2.19158	0	
1.3507	4.23349	-1.58568	0	
1.3513	2.39068	3.60967	0	
1.3520	2.68951	3.90618	0	
1.3527	5.45373	3.30027	0	
1.3533	5.45373	4.21558	0	
1.3540	6.35023	2.38496	0	
1.3547	11.2561	1.77905	0	
1.3553	13.6966	3.60967	0	
1.3560	12.1526	2.69436	0	
1.3567	11.5549	0.863742	0	
1.3573	11.8538	1.46965	0	
1.3580	10.011	1.77905	0	
1.3587	5.45373	0.863742	0	
1.3593	0.871601	0.863742	0	
1.3600	-4.63194	-0.0644584	0	
1.3607	-9.21406	-0.670367	0	
1.3613	-11.032	-0.670367	0	
1.3620	-12.8748	-0.979767	0	
1.3627	-13.4725	-0.670367	0	
1.3633	-9.81173	1.16025	0	
1.3640	-5.52844	0.554342	0	
1.3647	-5.2296	-1.89508	0	
1.3653	-3.71053	-1.89508	0	
1.3660	0.572766	-2.50098	0	
1.3667	2.09184	-3.72569	0	
1.3673	2.09184	-2.50098	0	
1.3680	5.12999	-0.360967	0	
1.3687	8.79072	-1.89508	0	
1.3693	10.011	-2.81038	0	
1.3700	10.9324	-0.979767	0	
1.3707	10.011	-0.670367	0	
1.3713	6.97281	-1.58568	0	
1.3720	4.53232	-0.360967	0	
1.3727	4.83116	0.863742	0	
1.3733	5.12999	-0.670367	0	
1.3740	1.17044	-1.89508	0	
1.3747	-5.85218	-0.670367	0	
1.3753	-9.21406	0.244942	0	
1.3760	-8.59149	-1.89508	0	
1.3767	-10.4343	-2.50098	0	
1.3773	-12.8748	0.863742	0	
1.3780	-10.7331	3.30027	0	
1.3787	-7.37125	1.77905	0	
1.3793	-5.2296	0.244942	0	
1.3800	-4.63194	-0.979767	0	
1.3807	-5.2296	-2.50098	0	
1.3813	-4.63194	-2.50098	0	
1.3820	-1.86772	-0.979767	0	
1.3827	-3.41169	0.244942	0	
1.3833	-6.44985	1.46965	0	
1.3840	-1.56888	-0.0644584	0	
1.3847	4.53232	-2.81038	0	
1.3853	3.61092	-1.27628	0	
1.3860	3.61092	1.46965	0	
1.3867	9.11445	-0.0644584	0	
1.3873	10.011	-2.19158	0	
1.3880	7.27164	-1.27628	0	
1.3887	6.35023	0.244942	0	
1.3893	6.35023	-0.0644584	0	
1.3900	5.45373	-0.0644584	0	
1.3907	6.35023	1.77905	0	
1.3913	8.19305	3.90618	0	
1.3920	6.97281	3.90618	0	
1.3927	3.31208	1.16025	0	
1.3933	0.249029	-1.27628	0	
1.3940	-3.08796	-0.670367	0	
1.3947	-4.93077	1.16025	0	
1.3953	-5.2296	-0.0644584	0	
1.3960	-7.37125	-1.89508	0	
1.3967	-10.1106	-0.979767	0	
1.3973	-9.81173	-0.0644584	0	
1.3980	-9.81173	-0.360967	0	
1.3987	-12.8748	-1.58568	0	
1.3993	-12.5511	-1.58568	0	
1.4000	-8.29266	-0.0644584	0	
1.4007	-4.00936	-0.979767	0	
1.4013	-1.86772	-4.641	0	
1.4020	-1.86772	-4.0222	0	
1.4027	-0.971212	-2.50098	0	
1.4033	2.68951	-3.72569	0	
1.4040	6.35023	-2.81038	0	
1.4047	8.49188	0.863742	0	
1.4053	11.8538	-0.979767	0	
1.4060	14.9168	-3.41629	0	
1.4067	14.5931	-0.670367	0	
1.4073	11.8538	0.863742	0	
1.4080	10.011	0.244942	0	
1.4087	6.67397	1.77905	0	
1.4093	2.39068	2.69436	0	
1.4100	-0.0498058	1.77905	0	
1.4107	0.572766	1.16025	0	
1.4113	-1.56888	-0.360967	0	
1.4120	-5.52844	-1.89508	0	
1.4127	-6.44985	-0.360967	0	
1.4133	-5.52844	1.77905	0	
1.4140	-7.07242	0.863742	0	
1.4147	-7.67009	-0.360967	0	
1.4153	-5.2296	1.46965	0	
1.4160	-3.41169	3.30027	0	
1.4167	-2.49029	1.46965	0	
1.4173	-1.86772	-1.58568	0	
1.4180	-3.41169	-2.50098	0	
1.4187	-3.71053	-1.27628	0	
1.4193	-2.49029	-1.27628	0	
1.4200	-1.86772	-2.50098	0	
1.4207	-0.0498058	-1.89508	0	
1.4213	2.68951	-0.979767	0	
1.4220	1.17044	-2.50098	0	
1.4227	-1.86772	-2.81038	0	
1.4233	-0.647475	0.244942	0	
1.4240	1.79301	1.77905	0	
1.4247	0.871601	-0.0644584	0	
1.4253	-0.971212	-1.58568	0	
1.4260	-2.49029	-2.19158	0	
1.4267	-2.78912	-1.27628	0	
1.4273	-0.34864	1.77905	0	
1.4280	1.79301	1.77905	0	
1.4287	1.46927	-0.979767	0	
1.4293	0.871601	-1.58568	0	
1.4300	1.79301	-2.81038	0	
1.4307	-0.34864	-4.641	0	
1.4313	-5.2296	-0.979767	0	
1.4320	-7.37125	3.60967	0	
1.4327	-7.37125	2.07556	0	
1.4333	-9.21406	-0.0644584	0	
1.4340	-12.8748	1.16025	0	
1.4347	-12.8748	2.38496	0	
1.4353	-10.1106	2.38496	0	
1.4360	-7.67009	1.46965	0	
1.4367	-6.15101	0.554342	0	
1.4373	-3.71053	0.863742	0	
1.4380	-1.56888	0.554342	0	
1.4387	-1.86772	-0.979767	0	
1.4393	-2.19145	-0.979767	0	
1.4400	-1.86772	-1.27628	0	
1.4407	-1.27005	-2.81038	0	
1.4413	-0.971212	-3.41629	0	
1.4420	-0.0498058	-3.41629	0	
1.4427	-0.647475	-2.81038	0	
1.4433	-1.56888	-1.27628	0	
1.4440	-0.971212	-1.89508	0	
1.4447	-0.0498058	-4.0222	0	
1.4453	0.572766	-3.72569	0	
1.4460	1.17044	-2.50098	0	
1.4467	0.871601	-2.19158	0	
1.4473	-0.647475	-0.979767	0	
1.4480	-0.647475	-1.27628	0	
1.4487	1.46927	-3.72569	0	
1.4493	3.61092	-2.81038	0	
1.4500	5.12999	-0.0644584	0	
1.4507	3.01325	1.77905	0	
1.4513	1.17044	3.60967	0	
1.4520	2.68951	3.30027	0	
1.4527	6.35023	-0.979767	0	
1.4533	6.35023	-2.50098	0	
1.4540	4.53232	-0.0644584	0	
1.4547	3.01325	-0.360967	0	
1.4553	2.09184	-1.89508	0	
1.4560	1.79301	-0.360967	0	
1.4567	3.90975	0.554342	0	
1.4573	6.97281	-0.0644584	0	
1.4580	7.57048	0.244942	0	
1.4587	7.89421	-0.670367	0	
1.4593	6.97281	-3.41629	0	
1.4600	3.61092	-3.72569	0	
1.4607	0.871601	-2.50098	0	
1.4613	-0.0498058	-2.50098	0	
1.4620	-4.00936	-3.10689	0	
1.4627	-7.67009	-2.81038	0	
1.4633	-7.37125	-2.81038	0	
1.4640	-7.07242	-1.27628	0	
1.4647	-9.21406	2.38496	0	
1.4653	-9.21406	1.77905	0	
1.4660	-5.52844	-1.27628	0	
1.4667	0.871601	-0.670367	0	
1.4673	6.67397	-0.979767	0	
1.4680	8.49188	-1.58568	0	
1.4687	6.35023	1.77905	0	
1.4693	6.0514	2.99087	0	
1.4700	11.5549	-0.0644584	0	
1.4707	18.5775	-0.0644584	0	
1.4713	21.018	1.46965	0	
1.4720	17.3573	-0.979767	0	
1.4727	14.9168	-2.50098	0	
1.4733	18.2538	-0.979767	0	
1.4740	18.2538	-2.50098	0	
1.4747	11.2561	-3.72569	0	
1.4753	5.12999	-0.670367	0	
1.4760	1.79301	0.554342	0	
1.4767	-2.49029	-2.81038	0	
1.4773	-4.63194	-3.10689	0	
1.4780	-5.85218	-0.979767	0	
1.4787	-11.3308	-1.89508	0	
1.4793	-17.432	-2.81038	0	
1.4800	-18.6523	-0.670367	0	
1.4807	-18.3534	-0.670367	0	
1.4813	-17.7558	-1.58568	0	
1.4820	-16.5355	0.863742	0	
1.4827	-14.6927	2.07556	0	
1.4833	-12.8748	-0.670367	0	
1.4840	-11.032	-1.89508	0	
1.4847	-10.7331	-0.979767	0	
1.4853	-9.5129	-0.360967	0	
1.4860	-7.37125	-0.979767	0	
1.4867	-7.07242	-0.670367	0	
1.4873	-5.52844	1.46965	0	
1.4880	-2.78912	2.99087	0	
1.4887	-4.63194	2.38496	0	
1.4893	-8.29266	3.90618	0	
1.4900	-8.29266	6.3556	0	
1.4907	-6.44985	4.52498	0	
1.4913	-6.77358	2.38496	0	
1.4920	-4.63194	3.60967	0	
1.4927	0.572766	2.99087	0	
1.4933	3.61092	-0.0644584	0	
1.4940	7.57048	-0.670367	0	
1.4947	14.5931	0.863742	0	
1.4953	18.2538	0.244942	0	
1.4960	15.2157	-0.0644584	0	
1.4967	11.2561	-0.0644584	0	
1.4973	10.011	-0.979767	0	
1.4980	9.71212	-1.89508	0	
1.4987	11.2561	-1.58568	0	
1.4993	13.6966	-1.27628	0	
1.5000	12.7752	-1.89508	0	
1.5007	7.89421	-3.72569	0	
1.5013	3.90975	-5.24691	0	
1.5020	2.68951	-3.72569	0	
1.5027	0.871601	-1.27628	0	
1.5033	-2.49029	-1.89508	0	
1.5040	-4.00936	-2.81038	0	
1.5047	-4.00936	-1.89508	0	
1.5053	-2.19145	-1.27628	0	
1.5060	0.572766	-3.72569	0	
1.5067	0.249029	-4.93751	0	
1.5073	-0.971212	-2.19158	0	
1.5080	-1.27005	-1.27628	0	
1.5087	-2.78912	-3.72569	0	
1.5093	-3.71053	-3.41629	0	
1.5100	1.17044	-0.360967	0	
1.5107	2.68951	0.244942	0	
1.5113	-2.78912	-0.0644584	0	
1.5120	-6.77358	1.46965	0	
1.5127	-6.44985	0.863742	0	
1.5133	-7.67009	-0.979767	0	
1.5140	-11.3308	0.244942	0	
1.5147	-14.3939	3.30027	0	
1.5153	-16.5355	4.52498	0	
1.5160	-15.9129	4.82149	0	
1.5167	-14.6927	3.60967	0	
1.5173	-15.9129	2.99087	0	
1.5180	-16.5355	5.13089	0	
1.5187	-12.2522	5.13089	0	
1.5193	-6.77358	2.38496	0	
1.5200	-3.08796	1.46965	0	
1.5207	-2.19145	0.863742	0	
1.5213	-2.49029	-0.670367	0	
1.5220	-0.0498058	1.77905	0	
1.5227	3.31208	3.60967	0	
1.5233	5.75256	0.244942	0	
1.5240	9.11445	-2.50098	0	
1.5247	11.8538	-2.50098	0	
1.5253	10.9324	-3.72569	0	
1.5260	10.3347	-3.72569	0	
1.5267	13.6966	-2.50098	0	
1.5273	13.6966	-3.72569	0	
1.5280	8.19305	-3.41629	0	
1.5287	4.23349	0.863742	0	
1.5293	4.53232	0.554342	0	
1.5300	4.23349	-0.670367	0	
1.5307	0.572766	0.244942	0	
1.5313	-3.08796	-2.50098	0	
1.5320	-2.78912	-4.641	0	
1.5327	-0.971212	-0.0644584	0	
1.5333	-0.971212	2.69436	0	
1.5340	-2.19145	-0.670367	0	
1.5347	-3.08796	-1.89508	0	
1.5353	-3.71053	-0.670367	0	
1.5360	-4.3082	-1.27628	0	
1.5367	-3.08796	-2.19158	0	
1.5373	0.871601	-0.979767	0	
1.5380	2.68951	0.244942	0	
1.5387	-0.971212	-0.0644584	0	
1.5393	-3.71053	-1.89508	0	
1.5400	-2.19145	-2.81038	0	
1.5407	-1.56888	-0.360967	0	
1.5413	-0.971212	1.16025	0	
1.5420	3.61092	-0.360967	0	
1.5427	8.19305	-0.670367	0	
1.5433	10.011	0.554342	0	
1.5440	10.6335	-1.27628	0	
1.5447	8.79072	-2.19158	0	
1.5453	5.45373	-0.670367	0	
1.5460	6.0514	-0.0644584	0	
1.5467	6.97281	0.244942	0	
1.5473	4.53232	2.69436	0	
1.5480	0.871601	2.69436	0	
1.5487	-3.08796	2.07556	0	
1.5493	-6.44985	3.60967	0	
1.5500	-7.37125	2.99087	0	
1.5507	-8.29266	0.863742	0	
1.5513	-8.29266	2.69436	0	
1.5520	-5.2296	4.82149	0	
1.5527	-4.00936	1.77905	0	
1.5533	-4.93077	-1.89508	0	
1.5540	-1.86772	-1.89508	0	
1.5547	-0.34864	-0.979767	0	
1.5553	-1.86772	-0.360967	0	
1.5560	0.572766	0.863742	0	
1.5567	2.09184	-0.360967	0	
1.5573	1.79301	-3.72569	0	
1.5580	5.45373	-3.72569	0	
1.5587	10.011	-1.58568	0	
1.5593	8.19305	-1.89508	0	
1.5600	6.67397	-3.41629	0	
1.5607	7.57048	-1.27628	0	
1.5613	6.97281	-0.979767	0	
1.5620	7.27164	-3.41629	0	
1.5627	8.49188	-2.19158	0	
1.5633	5.45373	0.863742	0	
1.5640	0.572766	1.16025	0	
1.5647	-0.647475	-0.0644584	0	
1.5653	0.871601	-0.979767	0	
1.5660	-0.0498058	-1.89508	0	
1.5667	-3.41169	-0.979767	0	
1.5673	-5.2296	-0.979767	0	
1.5680	-5.52844	-2.19158	0	
1.5687	-6.77358	-1.89508	0	
1.5693	-9.81173	0.863742	0	
1.5700	-9.21406	3.90618	0	
1.5707	-5.2296	6.6521	0	
1.5713	-1.27005	5.73679	0	
1.5720	-0.0498058	2.69436	0	
1.5727	-0.971212	3.30027	0	
1.5733	-1.86772	5.13089	0	
1.5740	-2.78912	3.90618	0	
1.5747	-6.44985	3.60967	0	
1.5753	-8.59149	5.13089	0	
1.5760	-7.67009	6.04619	0	
1.5767	-8.29266	6.3556	0	
1.5773	-11.032	6.3556	0	
1.5780	-9.5129	3.90618	0	
1.5787	-5.52844	-0.0644584	0	
1.5793	-3.71053	-1.58568	0	
1.5800	-4.3082	-1.89508	0	
1.5807	-3.71053	-1.27628	0	
1.5813	-3.71053	-0.670367	0	
1.5820	-2.19145	-1.27628	0	
1.5827	0.871601	-1.89508	0	
1.5833	1.17044	-1.58568	0	
1.5840	-1.56888	-1.89508	0	
1.5847	-3.08796	-1.58568	0	
1.5853	-3.41169	0.244942	0	
1.5860	-0.0498058	-0.670367	0	
1.5867	6.35023	-3.10689	0	
1.5873	8.49188	-2.81038	0	
1.5880	6.0514	-0.979767	0	
1.5887	7.27164	-0.670367	0	
1.5893	9.11445	0.863742	0	
1.5900	5.75256	2.07556	0	
1.5907	1.79301	2.69436	0	
1.5913	0.871601	4.52498	0	
1.5920	-0.34864	4.52498	0	
1.5927	-1.86772	1.46965	0	
1.5933	-1.86772	-0.360967	0	
1.5940	-3.71053	0.863742	0	
1.5947	-5.52844	1.77905	0	
1.5953	-3.71053	1.77905	0	
1.5960	-3.41169	0.863742	0	
1.5967	-5.52844	-0.979767	0	
1.5973	-4.63194	-0.0644584	0	
1.5980	-0.0498058	2.69436	0	
1.5987	-0.0498058	1.16025	0	
1.5993	-1.56888	-2.81038	0	
1.6000	0.572766	-2.19158	0	
1.6007	3.01325	-1.27628	0	
1.6013	4.53232	-2.81038	0	
1.6020	6.35023	-3.10689	0	
1.6027	6.67397	-1.89508	0	
1.6033	6.67397	-3.72569	0	
1.6040	8.19305	-5.55631	0	
1.6047	9.11445	-4.0222	0	
1.6053	10.011	-1.27628	0	
1.6060	11.8538	-2.50098	0	
1.6067	13.6966	-5.85282	0	
1.6073	14.2943	-5.24691	0	
1.6080	15.5145	-0.979767	0	
1.6087	14.5931	-1.27628	0	
1.6093	10.011	-4.641	0	
1.6100	4.23349	-3.72569	0	
1.6107	3.01325	1.16025	0	
1.6113	3.31208	1.77905	0	
1.6120	-0.647475	-1.58568	0	
1.6127	-4.93077	-2.19158	0	
1.6133	-3.71053	-0.360967	0	
1.6140	-2.19145	-0.670367	0	
1.6147	-5.85218	-1.27628	0	
1.6153	-9.5129	-0.360967	0	
1.6160	-10.7331	0.863742	0	
1.6167	-11.3308	0.863742	0	
1.6173	-9.21406	-0.0644584	0	
1.6180	-4.93077	-0.979767	0	
1.6187	-4.3082	-0.670367	0	
1.6193	-6.44985	1.46965	0	
1.6200	-10.1106	2.07556	0	
1.6207	-14.6927	-0.0644584	0	
1.6213	-14.6927	-2.81038	0	
1.6220	-11.032	-3.10689	0	
1.6227	-8.89033	-0.979767	0	
1.6233	-8.59149	0.244942	0	
1.6240	-8.59149	0.863742	0	
1.6247	-10.1106	1.77905	0	
1.6253	-10.4343	0.863742	0	
1.6260	-8.89033	-1.58568	0	
1.6267	-7.37125	-0.0644584	0	
1.6273	-6.44985	0.863742	0	
1.6280	-4.63194	-0.360967	0	
1.6287	-3.71053	1.46965	0	
1.6293	-2.78912	3.60967	0	
1.6300	-0.0498058	2.38496	0	
1.6307	2.09184	3.30027	0	
1.6313	2.68951	3.90618	0	
1.6320	3.61092	0.863742	0	
1.6327	7.57048	-0.360967	0	
1.6333	12.7752	-0.0644584	0	
1.6340	13.3728	-0.979767	0	
1.6347	12.1526	0.863742	0	
1.6353	13.6966	2.38496	0	
1.6360	14.5931	0.863742	0	
1.6367	14.5931	0.863742	0	
1.6373	13.9954	0.863742	0	
1.6380	12.7752	0.554342	0	
1.6387	9.71212	1.46965	0	
1.6393	5.75256	-0.979767	0	
1.6400	0.249029	-4.3316	0	
1.6407	-4.93077	-1.89508	0	
1.6413	-8.29266	0.244942	0	
1.6420	-12.5511	-0.979767	0	
1.6427	-17.7558	1.77905	0	
1.6433	-18.3534	3.90618	0	
1.6440	-14.9915	2.69436	0	
1.6447	-11.3308	5.13089	0	
1.6453	-8.29266	5.73679	0	
1.6460	-3.71053	0.863742	0	
1.6467	1.46927	0.244942	0	
1.6473	1.79301	3.60967	0	
1.6480	-0.647475	1.46965	0	
1.6487	-1.86772	-0.670367	0	
1.6493	-2.78912	1.77905	0	
1.6500	-4.63194	1.77905	0	
1.6507	-4.93077	1.77905	0	
1.6513	-5.52844	6.04619	0	
1.6520	-7.37125	7.56741	0	
1.6527	-4.93077	3.60967	0	
1.6533	-1.86772	2.69436	0	
1.6540	-4.00936	5.73679	0	
1.6547	-5.52844	5.44029	0	
1.6553	-1.27005	2.69436	0	
1.6560	0.871601	2.99087	0	
1.6567	-0.647475	2.69436	0	
1.6573	0.572766	-0.0644584	0	
1.6580	2.09184	-2.19158	0	
1.6587	-0.971212	-2.81038	0	
1.6593	-1.86772	-2.50098	0	
1.6600	2.09184	-1.89508	0	
1.6607	3.90975	-3.41629	0	
1.6613	3.31208	-4.93751	0	
1.6620	6.97281	-4.641	0	
1.6627	10.9324	-4.641	0	
1.6633	10.9324	-6.47162	0	
1.6640	11.5549	-6.47162	0	
1.6647	12.7752	-6.16222	0	
1.6653	10.3347	-7.07753	0	
1.6660	7.27164	-5.55631	0	
1.6667	6.35023	-3.72569	0	
1.6673	5.45373	-4.93751	0	
1.6680	4.53232	-4.641	0	
1.6687	0.871601	-1.89508	0	
1.6693	-4.63194	-1.27628	0	
1.6700	-6.15101	-2.50098	0	
1.6707	-6.44985	-0.979767	0	
1.6713	-9.21406	0.863742	0	
1.6720	-10.1106	0.244942	0	
1.6727	-8.29266	0.244942	0	
1.6733	-7.67009	-0.670367	0	
1.6740	-7.37125	-1.58568	0	
1.6747	-4.3082	-0.0644584	0	
1.6753	0.249029	1.77905	0	
1.6760	3.01325	0.244942	0	
1.6767	2.39068	-0.0644584	0	
1.6773	0.871601	-0.360967	0	
1.6780	-0.0498058	-1.89508	0	
1.6787	-0.0498058	-2.19158	0	
1.6793	0.249029	-0.979767	0	
1.6800	-0.647475	-0.979767	0	
1.6807	-0.971212	-3.41629	0	
1.6813	2.09184	-5.55631	0	
1.6820	5.12999	-5.24691	0	
1.6827	3.61092	-3.41629	0	
1.6833	2.39068	-2.19158	0	
1.6840	3.90975	-3.41629	0	
1.6847	5.75256	-3.72569	0	
1.6853	8.19305	-3.72569	0	
1.6860	10.011	-3.10689	0	
1.6867	8.19305	-0.360967	0	
1.6873	5.45373	-0.0644584	0	
1.6880	4.83116	-2.19158	0	
1.6887	3.90975	-2.81038	0	
1.6893	1.79301	-0.979767	0	
1.6900	-0.647475	0.863742	0	
1.6907	-0.971212	2.69436	0	
1.6913	-0.647475	3.90618	0	
1.6920	-0.971212	0.863742	0	
1.6927	-0.34864	-0.670367	0	
1.6933	1.79301	0.863742	0	
1.6940	5.12999	-0.979767	0	
1.6947	7.57048	-3.72569	0	
1.6953	8.19305	-2.19158	0	
1.6960	8.49188	-0.979767	0	
1.6967	9.11445	-2.19158	0	
1.6973	5.75256	-0.979767	0	
1.6980	-0.34864	-0.0644584	0	
1.6987	-3.71053	-1.89508	0	
1.6993	-3.08796	-1.89508	0	
1.7000	-1.86772	-0.979767	0	
1.7007	-0.971212	-2.19158	0	
1.7013	0.871601	-3.10689	0	
1.7020	-0.0498058	-2.81038	0	
1.7027	-3.08796	-3.10689	0	
1.7033	-4.63194	-3.41629	0	
1.7040	-3.71053	-1.89508	0	
1.7047	-4.93077	-0.979767	0	
1.7053	-7.37125	-1.27628	0	
1.7060	-6.77358	-1.89508	0	
1.7067	-5.52844	0.554342	0	
1.7073	-4.93077	2.99087	0	
1.7080	-2.78912	3.60967	0	
1.7087	-0.34864	3.60967	0	
1.7093	-0.971212	3.60967	0	
1.7100	-0.34864	3.60967	0	
1.7107	1.17044	3.90618	0	
1.7113	0.871601	3.30027	0	
1.7120	1.79301	1.77905	0	
1.7127	3.61092	2.07556	0	
1.7133	2.68951	3.60967	0	
1.7140	-0.0498058	1.16025	0	
1.7147	-2.49029	-0.979767	0	
1.7153	-4.63194	0.244942	0	
1.7160	-7.99382	1.16025	0	
1.7167	-11.3308	-0.0644584	0	
1.7173	-11.9534	-0.979767	0	
1.7180	-8.59149	-1.89508	0	
1.7187	-6.44985	-3.41629	0	
1.7193	-5.52844	-4.641	0	
1.7200	-2.49029	-7.38693	0	
1.7207	-0.34864	-9.82346	0	
1.7213	-0.971212	-8.30224	0	
1.7220	-0.0498058	-5.24691	0	
1.7227	2.68951	-4.93751	0	
1.7233	3.31208	-4.93751	0	
1.7240	4.23349	-4.3316	0	
1.7247	3.31208	-4.641	0	
1.7253	-0.971212	-3.41629	0	
1.7260	-2.78912	-0.0644584	0	
1.7267	-1.86772	-1.27628	0	
1.7273	-2.78912	-3.72569	0	
1.7280	-5.2296	-1.89508	0	
1.7287	-5.52844	0.863742	0	
1.7293	-6.44985	0.554342	0	
1.7300	-7.37125	-0.670367	0	
1.7307	-5.2296	-0.979767	0	
1.7313	-0.971212	-0.0644584	0	
1.7320	1.79301	0.863742	0	
1.7327	1.46927	0.554342	0	
1.7333	0.871601	0.554342	0	
1.7340	2.68951	0.863742	0	
1.7347	4.23349	0.554342	0	
1.7353	1.79301	0.554342	0	
1.7360	-0.971212	-0.0644584	0	
1.7367	-0.34864	-2.19158	0	
1.7373	-0.34864	-2.81038	0	
1.7380	-2.78912	-2.50098	0	
1.7387	-1.56888	-3.41629	0	
1.7393	2.68951	-3.72569	0	
1.7400	4.53232	-5.24691	0	
1.7407	5.45373	-7.07753	0	
1.7413	7.27164	-6.76813	0	
1.7420	8.19305	-5.55631	0	
1.7427	10.011	-4.93751	0	
1.7433	14.5931	-3.72569	0	
1.7440	14.5931	-2.81038	0	
1.7447	10.9324	-3.41629	0	
1.7453	11.8538	-3.72569	0	
1.7460	13.3728	-3.72569	0	
1.7467	10.6335	-3.72569	0	
1.7473	10.011	-1.89508	0	
1.7480	11.2561	-0.670367	0	
1.7487	8.49188	-0.979767	0	
1.7493	3.61092	-0.670367	0	
1.7500	1.79301	0.554342	0	
1.7507	0.871601	1.77905	0	
1.7513	-0.0498058	2.69436	0	
1.7520	-1.86772	1.77905	0	
1.7527	-5.2296	2.07556	0	
1.7533	-7.99382	2.38496	0	
1.7540	-9.21406	0.244942	0	
1.7547	-10.1106	-0.979767	0	
1.7553	-10.1106	2.69436	0	
1.7560	-11.032	4.52498	0	
1.7567	-11.9534	1.77905	0	
1.7573	-9.21406	-0.670367	0	
1.7580	-5.52844	-0.0644584	0	
1.7587	-3.41169	0.554342	0	
1.7593	-2.78912	-0.670367	0	
1.7600	-4.63194	-0.979767	0	
1.7607	-6.77358	-0.670367	0	
1.7613	-4.63194	-0.670367	0	
1.7620	-2.49029	-1.89508	0	
1.7627	-4.00936	-2.81038	0	
1.7633	-4.00936	-1.27628	0	
1.7640	-3.08796	1.46965	0	
1.7647	-1.56888	0.863742	0	
1.7653	6.35023	-1.89508	0	
1.7660	15.5145	0.863742	0	
1.7667	16.4359	3.30027	0	
1.7673	17.3573	-1.27628	0	
1.7680	21.018	-3.72569	0	
1.7687	19.4741	-0.360967	0	
1.7693	14.9168	0.863742	0	
1.7700	13.074	-0.979767	0	
1.7707	8.49188	-0.360967	0	
1.7713	1.17044	-0.0644584	0	
1.7720	-2.78912	-0.0644584	0	
1.7727	-4.3082	1.46965	0	
1.7733	-9.5129	1.77905	0	
1.7740	-15.6141	1.77905	0	
1.7747	-17.7558	1.77905	0	
1.7753	-17.7558	0.244942	0	
1.7760	-18.6523	0.863742	0	
1.7767	-18.6523	2.69436	0	
1.7773	-15.9129	2.69436	0	
1.7780	-12.2522	2.69436	0	
1.7787	-11.9534	2.07556	0	
1.7793	-13.4725	-0.979767	0	
1.7800	-11.3308	-2.81038	0	
1.7807	-5.52844	-0.979767	0	
1.7813	-3.08796	-0.0644584	0	
1.7820	-2.78912	-0.360967	0	
1.7827	-0.0498058	-0.670367	0	
1.7833	4.83116	-1.89508	0	
1.7840	8.19305	-1.89508	0	
1.7847	10.3347	-0.670367	0	
1.7853	11.2561	0.863742	0	
1.7860	10.6335	2.69436	0	
1.7867	8.79072	2.69436	0	
1.7873	6.0514	-0.0644584	0	
1.7880	3.90975	-0.670367	0	
1.7887	2.09184	0.863742	0	
1.7893	-0.647475	2.38496	0	
1.7900	-0.971212	2.69436	0	
1.7907	0.871601	2.07556	0	
1.7913	-0.971212	0.863742	0	
1.7920	-4.3082	-0.0644584	0	
1.7927	-4.63194	-0.0644584	0	
1.7933	-3.71053	1.46965	0	
1.7940	-3.41169	2.38496	0	
1.7947	-1.56888	0.554342	0	
1.7953	1.79301	-0.0644584	0	
1.7960	2.39068	1.16025	0	
1.7967	1.79301	0.554342	0	
1.7973	1.17044	-1.58568	0	
1.7980	1.79301	-0.979767	0	
1.7987	3.31208	0.863742	0	
1.7993	3.90975	1.16025	0	
1.8000	3.01325	-0.0644584	0	
1.8007	2.68951	-2.19158	0	
1.8013	4.23349	-2.81038	0	
1.8020	5.45373	-1.58568	0	
1.8027	5.12999	-3.41629	0	
1.8033	4.23349	-6.47162	0	
1.8040	1.17044	-3.72569	0	
1.8047	-2.78912	0.244942	0	
1.8053	-2.19145	-1.27628	0	
1.8060	-0.0498058	-2.19158	0	
1.8067	-0.971212	0.863742	0	
1.8073	-0.647475	1.77905	0	
1.8080	1.46927	2.07556	0	
1.8087	0.871601	2.07556	0	
1.8093	1.46927	0.863742	0	
1.8100	5.45373	1.46965	0	
1.8107	8.49188	3.90618	0	
1.8113	8.19305	3.60967	0	
1.8120	6.35023	2.38496	0	
1.8127	4.53232	2.69436	0	
1.8133	2.68951	0.863742	0	
1.8140	2.09184	0.244942	0	
1.8147	2.09184	2.99087	0	
1.8153	2.68951	2.38496	0	
1.8160	1.46927	-0.979767	0	
1.8167	-0.971212	-2.19158	0	
1.8173	-1.86772	-2.50098	0	
1.8180	-3.71053	-0.979767	0	
1.8187	-9.21406	2.69436	0	
1.8193	-13.7713	2.99087	0	
1.8200	-14.095	0.554342	0	
1.8207	-13.7713	1.46965	0	
1.8213	-14.3939	3.60967	0	
1.8220	-15.9129	3.90618	0	
1.8227	-17.1332	4.21558	0	
1.8233	-12.8748	4.21558	0	
1.8240	-6.44985	2.69436	0	
1.8247	-4.3082	1.16025	0	
1.8253	-0.971212	1.77905	0	
1.8260	4.53232	2.69436	0	
1.8267	5.75256	3.30027	0	
1.8273	4.23349	1.77905	0	
1.8280	6.67397	-0.0644584	0	
1.8287	7.57048	2.38496	0	
1.8293	4.23349	4.52498	0	
1.8300	3.01325	2.69436	0	
1.8307	4.23349	0.554342	0	
1.8313	4.23349	1.16025	0	
1.8320	2.68951	1.46965	0	
1.8327	0.572766	1.16025	0	
1.8333	-2.49029	2.69436	0	
1.8340	-2.78912	2.99087	0	
1.8347	-1.86772	1.46965	0	
1.8353	-1.86772	1.46965	0	
1.8360	-3.41169	2.69436	0	
1.8367	-3.08796	2.69436	0	
1.8373	-1.86772	2.38496	0	
1.8380	-2.78912	2.07556	0	
1.8387	-3.71053	1.16025	0	
1.8393	-2.19145	-0.0644584	0	
1.8400	-0.971212	-1.58568	0	
1.8407	-1.27005	-1.89508	0	
1.8413	-0.647475	-1.89508	0	
1.8420	-0.0498058	-1.89508	0	
1.8427	-2.78912	-2.81038	0	
1.8433	-3.71053	-3.41629	0	
1.8440	-1.56888	-3.72569	0	
1.8447	-2.19145	-4.3316	0	
1.8453	-3.08796	-2.81038	0	
1.8460	1.46927	-0.0644584	0	
1.8467	5.75256	-0.360967	0	
1.8473	5.12999	-1.89508	0	
1.8480	4.83116	-1.89508	0	
1.8487	6.67397	-3.72569	0	
1.8493	6.35023	-5.55631	0	
1.8500	6.0514	-3.41629	0	
1.8507	7.57048	-1.27628	0	
1.8513	6.67397	-2.81038	0	
1.8520	3.90975	-3.72569	0	
1.8527	2.68951	-3.72569	0	
1.8533	0.249029	-1.58568	0	
1.8540	-1.86772	-0.0644584	0	
1.8547	-1.86772	-2.50098	0	
1.8553	-3.41169	-3.10689	0	
1.8560	-5.52844	-0.0644584	0	
1.8567	-4.3082	-0.979767	0	
1.8573	-0.647475	-2.81038	0	
1.8580	0.572766	-0.360967	0	
1.8587	-0.971212	-0.979767	0	
1.8593	-0.971212	-3.72569	0	
1.8600	3.61092	-2.50098	0	
1.8607	8.79072	-1.27628	0	
1.8613	6.97281	-2.81038	0	
1.8620	3.01325	-2.81038	0	
1.8627	6.97281	-3.72569	0	
1.8633	13.3728	-5.55631	0	
1.8640	12.7752	-1.89508	0	
1.8647	9.41329	0.863742	0	
1.8653	9.11445	-2.81038	0	
1.8660	8.19305	-3.10689	0	
1.8667	5.45373	0.863742	0	
1.8673	1.79301	-0.360967	0	
1.8680	-4.00936	-1.89508	0	
1.8687	-7.67009	0.554342	0	
1.8693	-7.99382	0.863742	0	
1.8700	-10.1106	-0.0644584	0	
1.8707	-12.8748	1.77905	0	
1.8713	-12.2522	4.52498	0	
1.8720	-11.032	4.82149	0	
1.8727	-13.4725	4.21558	0	
1.8733	-13.7713	2.38496	0	
1.8740	-11.032	0.244942	0	
1.8747	-10.4343	-0.0644584	0	
1.8753	-11.032	-0.979767	0	
1.8760	-8.29266	-1.89508	0	
1.8767	-0.971212	-0.979767	0	
1.8773	5.45373	-1.27628	0	
1.8780	7.89421	-3.72569	0	
1.8787	7.27164	-4.3316	0	
1.8793	4.83116	-3.72569	0	
1.8800	1.79301	-4.93751	0	
1.8807	-1.56888	-5.24691	0	
1.8813	-3.71053	-3.72569	0	
1.8820	-4.63194	-3.72569	0	
1.8827	-5.52844	-2.50098	0	
1.8833	-9.21406	1.46965	0	
1.8840	-13.1736	2.69436	0	
1.8847	-13.7713	-0.0644584	0	
1.8853	-14.095	-0.670367	0	
1.8860	-17.1332	0.244942	0	
1.8867	-16.5355	-0.0644584	0	
1.8873	-14.3939	0.863742	0	
1.8880	-14.6927	3.60967	0	
1.8887	-12.5511	4.52498	0	
1.8893	-7.07242	3.60967	0	
1.8900	-6.15101	2.99087	0	
1.8907	-4.00936	3.60967	0	
1.8913	2.39068	6.04619	0	
1.8920	5.45373	5.44029	0	
1.8927	5.45373	2.07556	0	
1.8933	6.35023	2.38496	0	
1.8940	6.0514	4.52498	0	
1.8947	5.45373	1.46965	0	
1.8953	6.35023	-1.27628	0	
1.8960	6.35023	2.38496	0	
1.8967	7.89421	4.21558	0	
1.8973	10.9324	0.863742	0	
1.8980	9.71212	-0.670367	0	
1.8987	5.75256	-0.670367	0	
1.8993	3.61092	-2.81038	0	
1.9000	2.68951	-3.72569	0	
1.9007	2.68951	-0.360967	0	
1.9013	3.90975	0.863742	0	
1.9020	-0.647475	-2.19158	0	
1.9027	-5.52844	-2.19158	0	
1.9033	-1.56888	0.244942	0	
1.9040	1.46927	-0.979767	0	
1.9047	-2.19145	-2.50098	0	
1.9053	-1.56888	-1.27628	0	
1.9060	3.61092	-0.979767	0	
1.9067	3.61092	-0.979767	0	
1.9073	2.68951	-0.0644584	0	
1.9080	6.67397	-0.670367	0	
1.9087	9.11445	0.554342	0	
1.9093	6.35023	2.69436	0	
1.9100	4.53232	-0.0644584	0	
1.9107	4.83116	-2.81038	0	
1.9113	3.90975	-0.0644584	0	
1.9120	3.61092	1.46965	0	
1.9127	5.12999	-0.0644584	0	
1.9133	5.75256	-0.360967	0	
1.9140	5.45373	0.244942	0	
1.9147	4.53232	0.554342	0	
1.9153	2.68951	-0.0644584	0	
1.9160	1.79301	-1.58568	0	
1.9167	1.17044	-0.979767	0	
1.9173	0.249029	2.07556	0	
1.9180	1.79301	1.16025	0	
1.9187	7.89421	-2.50098	0	
1.9193	13.074	-3.10689	0	
1.9200	14.5931	-2.81038	0	
1.9207	15.8133	-4.641	0	
1.9213	19.4741	-6.76813	0	
1.9220	22.8359	-5.55631	0	
1.9227	22.8359	-2.81038	0	
1.9233	16.7347	-2.81038	0	
1.9240	11.8538	-4.641	0	
1.9247	13.9954	-5.55631	0	
1.9253	15.5145	-5.55631	0	
1.9260	10.011	-6.16222	0	
1.9267	6.35023	-5.55631	0	
1.9273	4.23349	-2.81038	0	
1.9280	-1.56888	0.244942	0	
1.9287	-7.37125	2.69436	0	
1.9293	-11.9534	3.60967	0	
1.9300	-20.1962	4.52498	0	
1.9307	-27.5177	5.44029	0	
1.9313	-31.7761	6.6521	0	
1.9320	-38.4998	6.9615	0	
1.9327	-43.6796	5.73679	0	
1.9333	-40.6415	5.44029	0	
1.9340	-34.5403	7.2709	0	
1.9347	-29.3356	7.56741	0	
1.9353	-25.6749	6.3556	0	
1.9360	-25.0772	7.56741	0	
1.9367	-24.7784	9.10152	0	
1.9373	-19.5737	8.18621	0	
1.9380	-14.6927	6.6521	0	
1.9387	-11.3308	4.52498	0	
1.9393	-7.07242	1.16025	0	
1.9400	-3.71053	0.863742	0	
1.9407	-2.19145	2.38496	0	
1.9413	-0.0498058	0.863742	0	
1.9420	2.68951	-1.27628	0	
1.9427	4.23349	-1.27628	0	
1.9433	2.68951	-0.670367	0	
1.9440	-0.0498058	-1.58568	0	
1.9447	-0.34864	-2.81038	0	
1.9453	0.572766	-1.58568	0	
1.9460	0.572766	0.244942	0	
1.9467	1.79301	-0.979767	0	
1.9473	3.61092	-2.81038	0	
1.9480	2.68951	-0.979767	0	
1.9487	1.46927	1.16025	0	
1.9493	3.90975	0.863742	0	
1.9500	6.0514	-0.979767	0	
1.9507	5.45373	-1.27628	0	
1.9513	6.0514	-0.360967	0	
1.9520	7.89421	1.46965	0	
1.9527	7.89421	0.863742	0	
1.9533	8.49188	-0.0644584	0	
1.9540	12.4763	1.16025	0	
1.9547	13.6966	1.77905	0	
1.9553	10.011	-0.0644584	0	
1.9560	9.71212	-0.0644584	0	
1.9567	12.7752	1.77905	0	
1.9573	11.2561	1.46965	0	
1.9580	9.11445	-0.670367	0	
1.9587	10.011	-1.89508	0	
1.9593	8.19305	-2.50098	0	
1.9600	2.68951	-2.50098	0	
1.9607	2.68951	-2.81038	0	
1.9613	6.97281	-2.50098	0	
1.9620	7.89421	-1.89508	0	
1.9627	6.35023	-2.81038	0	
1.9633	6.67397	-4.93751	0	
1.9640	10.3347	-4.641	0	
1.9647	11.5549	-3.10689	0	
1.9653	6.67397	-2.81038	0	
1.9660	3.90975	-3.41629	0	
1.9667	6.35023	-3.41629	0	
1.9673	5.75256	-2.81038	0	
1.9680	2.39068	-1.89508	0	
1.9687	0.249029	-0.360967	0	
1.9693	-3.41169	0.863742	0	
1.9700	-7.67009	0.554342	0	
1.9707	-9.21406	-0.670367	0	
1.9713	-10.7331	0.244942	0	
1.9720	-13.7713	1.16025	0	
1.9727	-15.6141	-0.360967	0	
1.9733	-14.6927	-0.979767	0	
1.9740	-12.5511	-0.0644584	0	
1.9747	-10.4343	-1.58568	0	
1.9753	-9.5129	-2.50098	0	
1.9760	-6.77358	-0.979767	0	
1.9767	-4.63194	-0.670367	0	
1.9773	-4.63194	-1.58568	0	
1.9780	-0.34864	-0.979767	0	
1.9787	8.49188	-0.979767	0	
1.9793	12.7752	-2.50098	0	
1.9800	11.8538	-3.72569	0	
1.9807	12.4763	-3.72569	0	
1.9813	13.074	-3.72569	0	
1.9820	12.4763	-4.93751	0	
1.9827	13.6966	-4.93751	0	
1.9833	13.6966	-3.72569	0	
1.9840	10.011	-5.55631	0	
1.9847	7.27164	-6.47162	0	
1.9853	5.75256	-3.72569	0	
1.9860	1.79301	-2.19158	0	
1.9867	-2.78912	-3.72569	0	
1.9873	-4.93077	-2.19158	0	
1.9880	-6.77358	0.244942	0	
1.9887	-10.7331	0.863742	0	
1.9893	-14.095	1.77905	0	
1.9900	-15.6141	2.69436	0	
1.9907	-15.6141	2.99087	0	
1.9913	-16.5355	6.6521	0	
1.9920	-16.8343	8.48272	0	
1.9927	-16.8343	5.13089	0	
1.9933	-17.7558	2.69436	0	
1.9940	-15.6141	3.30027	0	
1.9947	-9.81173	2.07556	0	
1.9953	-5.85218	2.07556	0	
1.9960	-4.63194	2.99087	0	
1.9967	-3.08796	-0.0644584	0	
1.9973	-2.19145	-3.10689	0	
1.9980	-0.0498058	-1.27628	0	
1.9987	4.23349	0.554342	0	
1.9993	4.83116	-0.360967	0	
2.0000	2.68951	-2.50098	0	
2.0007	5.12999	-4.0222	0	
2.0013	6.67397	-2.81038	0	
2.0020	3.01325	-0.0644584	0	
2.0027	1.79301	-0.360967	0	
2.0033	2.68951	0.244942	0	
2.0040	-0.0498058	2.38496	0	
2.0047	-2.19145	1.77905	0	
2.0053	-1.27005	1.16025	0	
2.0060	-2.78912	2.69436	0	
2.0067	-5.85218	0.554342	0	
2.0073	-5.2296	-2.19158	0	
2.0080	-1.86772	-0.979767	0	
2.0087	0.572766	-0.0644584	0	
2.0093	0.871601	-1.27628	0	
2.0100	1.79301	-0.360967	0	
2.0107	3.31208	1.16025	0	
2.0113	5.75256	-0.0644584	0	
2.0120	6.0514	-0.979767	0	
2.0127	6.35023	0.554342	0	
2.0133	7.27164	2.38496	0	
2.0140	6.97281	2.07556	0	
2.0147	5.45373	1.77905	0	
2.0153	5.12999	1.77905	0	
2.0160	6.0514	-0.0644584	0	
2.0167	6.0514	-0.979767	0	
2.0173	5.45373	0.554342	0	
2.0180	6.35023	-0.360967	0	
2.0187	9.41329	-2.50098	0	
2.0193	7.89421	-2.19158	0	
2.0200	2.68951	-2.50098	0	
2.0207	2.09184	-3.72569	0	
2.0213	3.90975	-0.670367	0	
2.0220	1.46927	0.863742	0	
2.0227	-4.63194	-3.72569	0	
2.0233	-5.52844	-6.47162	0	
2.0240	-0.971212	-3.72569	0	
2.0247	1.79301	-1.27628	0	
2.0253	-2.49029	-0.979767	0	
2.0260	-7.37125	0.863742	0	
2.0267	-8.59149	1.77905	0	
2.0273	-9.5129	0.863742	0	
2.0280	-11.9534	0.863742	0	
2.0287	-11.6545	1.77905	0	
2.0293	-8.89033	0.863742	0	
2.0300	-7.99382	0.863742	0	
2.0307	-8.89033	2.07556	0	
2.0313	-7.67009	2.99087	0	
2.0320	-3.71053	1.77905	0	
2.0327	-0.0498058	0.863742	0	
2.0333	1.79301	1.46965	0	
2.0340	2.68951	1.46965	0	
2.0347	2.39068	1.16025	0	
2.0353	1.79301	1.77905	0	
2.0360	0.249029	1.77905	0	
2.0367	-2.78912	-0.0644584	0	
2.0373	-3.08796	-0.979767	0	
2.0380	-2.49029	-0.0644584	0	
2.0387	-4.00936	0.863742	0	
2.0393	-4.93077	-0.0644584	0	
2.0400	-1.86772	-1.58568	0	
2.0407	1.46927	-3.41629	0	
2.0413	2.09184	-3.72569	0	
2.0420	1.79301	-2.81038	0	
2.0427	1.46927	-2.50098	0	
2.0433	1.79301	-4.3316	0	
2.0440	3.61092	-4.3316	0	
2.0447	7.27164	-1.58568	0	
2.0453	8.49188	-0.0644584	0	
2.0460	7.27164	-0.979767	0	
2.0467	7.27164	0.863742	0	
2.0473	6.97281	1.77905	0	
2.0480	3.90975	-0.979767	0	
2.0487	2.68951	-0.979767	0	
2.0493	3.61092	2.07556	0	
2.0500	3.61092	0.863742	0	
2.0507	3.90975	-1.27628	0	
2.0513	2.09184	0.554342	0	
2.0520	-4.00936	1.77905	0	
2.0527	-4.93077	0.863742	0	
2.0533	-0.34864	0.863742	0	
2.0540	-0.647475	-0.670367	0	
2.0547	-2.49029	-0.979767	0	
2.0553	-0.0498058	1.16025	0	
2.0560	-0.0498058	2.69436	0	
2.0567	-3.41169	1.77905	0	
2.0573	-3.71053	1.16025	0	
2.0580	-2.19145	0.554342	0	
2.0587	-2.78912	-0.0644584	0	
2.0593	-4.3082	-0.0644584	0	
2.0600	-6.15101	0.863742	0	
2.0607	-5.52844	-0.0644584	0	
2.0613	-3.41169	-1.27628	0	
2.0620	-7.07242	-0.979767	0	
2.0627	-13.7713	0.863742	0	
2.0633	-14.095	1.77905	0	
2.0640	-10.1106	0.554342	0	
2.0647	-7.67009	-1.58568	0	
2.0653	-5.2296	-1.89508	0	
2.0660	-1.86772	-1.27628	0	
2.0667	-2.19145	-0.979767	0	
2.0673	-1.86772	-1.89508	0	
2.0680	2.09184	-2.81038	0	
2.0687	4.53232	-3.41629	0	
2.0693	3.31208	-1.89508	0	
2.0700	2.68951	0.554342	0	
2.0707	3.61092	1.77905	0	
2.0713	5.45373	0.554342	0	
2.0720	7.27164	-0.0644584	0	
2.0727	9.41329	2.07556	0	
2.0733	11.5549	1.46965	0	
2.0740	12.7752	-3.72569	0	
2.0747	13.6966	-4.641	0	
2.0753	16.1371	0.244942	0	
2.0760	17.0336	0.554342	0	
2.0767	14.2943	-2.81038	0	
2.0773	11.8538	-1.27628	0	
2.0780	11.2561	1.46965	0	
2.0787	7.89421	-0.360967	0	
2.0793	3.61092	-1.89508	0	
2.0800	1.79301	-0.979767	0	
2.0807	-0.34864	-1.27628	0	
2.0813	-2.49029	-3.10689	0	
2.0820	-0.34864	-3.72569	0	
2.0827	1.17044	-3.41629	0	
2.0833	-0.971212	-4.0222	0	
2.0840	-0.647475	-5.24691	0	
2.0847	2.09184	-5.55631	0	
2.0853	2.09184	-4.3316	0	
2.0860	-0.647475	-3.41629	0	
2.0867	-3.08796	-1.89508	0	
2.0873	-4.63194	-0.360967	0	
2.0880	-5.52844	0.554342	0	
2.0887	-8.59149	-0.670367	0	
2.0893	-11.9534	-0.979767	0	
2.0900	-13.7713	2.07556	0	
2.0907	-17.1332	5.13089	0	
2.0913	-19.2748	4.52498	0	
2.0920	-17.432	2.07556	0	
2.0927	-16.5355	1.46965	0	
2.0933	-17.432	2.07556	0	
2.0940	-13.4725	3.60967	0	
2.0947	-10.1106	4.82149	0	
2.0953	-11.6545	4.52498	0	
2.0960	-9.81173	3.30027	0	
2.0967	-2.78912	1.77905	0	
2.0973	0.249029	1.16025	0	
2.0980	1.79301	2.69436	0	
2.0987	4.53232	2.99087	0	
2.0993	4.23349	2.69436	0	
2.1000	1.46927	3.60967	0	
2.1007	1.46927	2.99087	0	
2.1013	3.01325	-0.360967	0	
2.1020	4.23349	-1.89508	0	
2.1027	6.97281	-0.0644584	0	
2.1033	10.3347	-1.89508	0	
2.1040	10.3347	-4.641	0	
2.1047	6.97281	-3.72569	0	
2.1053	4.23349	-0.0644584	0	
2.1060	4.83116	0.863742	0	
2.1067	4.23349	-0.670367	0	
2.1073	-0.647475	-1.89508	0	
2.1080	-4.63194	-1.27628	0	
2.1087	-3.71053	0.554342	0	
2.1093	-3.41169	1.77905	0	
2.1100	-3.08796	1.16025	0	
2.1107	0.249029	-0.0644584	0	
2.1113	2.68951	0.244942	0	
2.1120	2.68951	2.07556	0	
2.1127	3.31208	2.38496	0	
2.1133	3.01325	-0.0644584	0	
2.1140	3.90975	-0.670367	0	
2.1147	6.97281	0.863742	0	
2.1153	7.27164	-0.0644584	0	
2.1160	5.12999	-0.979767	0	
2.1167	3.01325	0.863742	0	
2.1173	-0.971212	0.863742	0	
2.1180	-2.78912	-1.58568	0	
2.1187	0.871601	-1.89508	0	
2.1193	1.79301	-0.979767	0	
2.1200	-0.647475	-0.979767	0	
2.1207	-0.0498058	-0.360967	0	
2.1213	1.17044	-0.0644584	0	
2.1220	0.249029	-0.670367	0	
2.1227	0.871601	0.244942	0	
2.1233	0.249029	0.863742	0	
2.1240	-2.78912	-0.0644584	0	
2.1247	-2.78912	-0.360967	0	
2.1253	-1.27005	-0.670367	0	
2.1260	-3.71053	-2.81038	0	
2.1267	-5.85218	-3.41629	0	
2.1273	-4.63194	-1.58568	0	
2.1280	-4.63194	-0.360967	0	
2.1287	-4.63194	-0.979767	0	
2.1293	-0.971212	-0.979767	0	
2.1300	1.79301	-0.360967	0	
2.1307	0.572766	-0.670367	0	
2.1313	-0.0498058	-0.670367	0	
2.1320	3.01325	1.46965	0	
2.1327	7.27164	3.90618	0	
2.1333	10.011	2.69436	0	
2.1340	13.074	-0.360967	0	
2.1347	18.2538	-0.670367	0	
2.1353	20.3955	-0.0644584	0	
2.1360	18.5775	-1.27628	0	
2.1367	18.2538	-1.89508	0	
2.1373	15.2157	-1.89508	0	
2.1380	6.97281	-3.72569	0	
2.1387	2.68951	-4.3316	0	
2.1393	2.68951	-3.72569	0	
2.1400	-3.08796	-3.41629	0	
2.1407	-9.5129	-2.19158	0	
2.1413	-12.2522	1.16025	0	
2.1420	-15.9129	1.77905	0	
2.1427	-18.3534	-1.58568	0	
2.1433	-18.0546	-2.81038	0	
2.1440	-19.8725	-0.0644584	0	
2.1447	-19.8725	0.863742	0	
2.1453	-17.1332	-0.360967	0	
2.1460	-18.3534	-0.0644584	0	
2.1467	-19.8725	2.69436	0	
2.1473	-15.6141	3.60967	0	
2.1480	-11.6545	0.863742	0	
2.1487	-10.1106	-0.0644584	0	
2.1493	-9.21406	2.07556	0	
2.1500	-8.59149	3.60967	0	
2.1507	-6.77358	3.60967	0	
2.1513	-5.2296	2.69436	0	
2.1520	-6.77358	2.69436	0	
2.1527	-7.07242	3.90618	0	
2.1533	-3.71053	5.44029	0	
2.1540	-2.49029	3.60967	0	
2.1547	-3.71053	0.863742	0	
2.1553	-4.63194	0.863742	0	
2.1560	-3.08796	1.77905	0	
2.1567	1.79301	0.863742	0	
2.1573	7.27164	-0.0644584	0	
2.1580	10.011	-0.979767	0	
2.1587	12.7752	-2.81038	0	
2.1593	15.2157	-2.81038	0	
2.1600	14.5931	-2.81038	0	
2.1607	12.7752	-4.3316	0	
2.1613	10.3347	-5.55631	0	
2.1620	7.27164	-5.85282	0	
2.1627	6.67397	-6.16222	0	
2.1633	6.35023	-5.24691	0	
2.1640	3.01325	-2.81038	0	
2.1647	-0.34864	-0.360967	0	
2.1653	-1.86772	-0.0644584	0	
2.1660	-3.41169	-1.89508	0	
2.1667	-3.71053	-3.72569	0	
2.1673	-2.78912	-2.50098	0	
2.1680	-2.19145	-1.58568	0	
2.1687	-1.86772	-2.81038	0	
2.1693	-1.56888	-1.58568	0	
2.1700	-2.78912	1.46965	0	
2.1707	-4.3082	0.863742	0	
2.1713	-2.49029	0.863742	0	
2.1720	-0.0498058	3.60967	0	
2.1727	2.68951	3.60967	0	
2.1733	5.75256	1.46965	0	
2.1740	7.89421	0.554342	0	
2.1747	6.35023	-0.360967	0	
2.1753	6.35023	0.244942	0	
2.1760	12.7752	1.77905	0	
2.1767	19.7978	-1.89508	0	
2.1773	21.3169	-5.55631	0	
2.1780	21.9145	-1.89508	0	
2.1787	21.9145	0.244942	0	
2.1793	18.5775	-3.10689	0	
2.1800	13.9954	-3.72569	0	
2.1807	10.011	-4.0222	0	
2.1813	5.12999	-6.47162	0	
2.1820	-0.0498058	-4.0222	0	
2.1827	-7.37125	1.77905	0	
2.1833	-14.095	2.38496	0	
2.1840	-15.9129	-0.0644584	0	
2.1847	-19.2748	-1.58568	0	
2.1853	-25.6749	-2.19158	0	
2.1860	-26.5963	-1.58568	0	
2.1867	-23.2344	-0.0644584	0	
2.1873	-22.9356	0.244942	0	
2.1880	-20.4951	0.244942	0	
2.1887	-17.1332	-0.360967	0	
2.1893	-16.5355	-0.979767	0	
2.1900	-12.8748	-0.360967	0	
2.1907	-4.93077	0.863742	0	
2.1913	-1.86772	0.554342	0	
2.1920	-1.86772	-0.979767	0	
2.1927	1.79301	-0.0644584	0	
2.1933	6.67397	4.21558	0	
2.1940	9.41329	4.21558	0	
2.1947	11.5549	-0.979767	0	
2.1953	13.6966	-0.979767	0	
2.1960	15.5145	3.60967	0	
2.1967	15.5145	1.16025	0	
2.1973	13.3728	-2.81038	0	
2.1980	12.1526	-0.979767	0	
2.1987	13.9954	-0.979767	0	
2.1993	13.074	-3.72569	0	
2.2000	6.97281	-3.72569	0	
2.2007	1.79301	-2.50098	0	
2.2013	-0.34864	-0.979767	0	
2.2020	-2.19145	-0.0644584	0	
2.2027	-3.41169	-0.979767	0	
2.2033	-5.2296	-3.10689	0	
2.2040	-8.29266	-2.81038	0	
2.2047	-9.5129	-2.50098	0	
2.2053	-8.89033	-1.89508	0	
2.2060	-9.21406	-1.27628	0	
2.2067	-8.89033	-1.89508	0	
2.2073	-5.85218	-0.979767	0	
2.2080	-4.63194	2.07556	0	
2.2087	-6.44985	2.69436	0	
2.2093	-7.07242	0.863742	0	
2.2100	-5.52844	1.46965	0	
2.2107	-4.63194	1.77905	0	
2.2113	-6.44985	0.554342	0	
2.2120	-8.59149	-0.0644584	0	
2.2127	-7.37125	-0.0644584	0	
2.2133	-5.52844	-0.0644584	0	
2.2140	-3.71053	1.46965	0	
2.2147	-1.86772	2.07556	0	
2.2153	-3.08796	-0.0644584	0	
2.2160	-5.2296	-0.360967	0	
2.2167	-1.86772	2.99087	0	
2.2173	4.53232	5.13089	0	
2.2180	10.011	2.38496	0	
2.2187	11.5549	-0.0644584	0	
2.2193	10.011	-1.27628	0	
2.2200	9.71212	-3.41629	0	
2.2207	9.11445	-4.0222	0	
2.2213	6.35023	-2.81038	0	
2.2220	4.53232	-1.89508	0	
2.2227	4.83116	-2.81038	0	
2.2233	3.61092	-3.72569	0	
2.2240	5.75256	-4.641	0	
2.2247	16.4359	-5.55631	0	
2.2253	24.0562	-5.55631	0	
2.2260	21.3169	-4.3316	0	
2.2267	16.4359	-1.89508	0	
2.2273	13.6966	-0.670367	0	
2.2280	12.4763	-1.58568	0	
2.2287	11.8538	-0.0644584	0	
2.2293	6.35023	2.69436	0	
2.2300	0.249029	2.38496	0	
2.2307	-0.34864	1.77905	0	
2.2313	-3.08796	3.30027	0	
2.2320	-12.8748	4.21558	0	
2.2327	-19.2748	6.04619	0	
2.2333	-22.0141	7.2709	0	
2.2340	-26.8951	5.44029	0	
2.2347	-30.257	4.21558	0	
2.2353	-26.5963	4.52498	0	
2.2360	-22.313	3.60967	0	
2.2367	-21.0927	2.69436	0	
2.2373	-19.8725	2.99087	0	
2.2380	-16.2118	2.69436	0	
2.2387	-10.7331	2.69436	0	
2.2393	-6.44985	2.07556	0	
2.2400	-4.63194	-0.670367	0	
2.2407	-1.56888	-1.58568	0	
2.2413	1.79301	-0.0644584	0	
2.2420	2.68951	0.244942	0	
2.2427	2.68951	-0.670367	0	
2.2433	5.45373	-0.360967	0	
2.2440	9.11445	0.554342	0	
2.2447	10.011	-0.0644584	0	
2.2453	8.19305	-0.979767	0	
2.2460	3.61092	-0.979767	0	
2.2467	0.871601	-0.360967	0	
2.2473	2.68951	-0.0644584	0	
2.2480	4.53232	-0.670367	0	
2.2487	3.01325	-0.979767	0	
2.2493	3.61092	-0.979767	0	
2.2500	5.45373	-0.0644584	0	
2.2507	3.90975	-0.0644584	0	
2.2513	2.09184	-2.19158	0	
2.2520	3.90975	-2.81038	0	
2.2527	5.75256	-0.670367	0	
2.2533	4.23349	-1.27628	0	
2.2540	3.61092	-5.24691	0	
2.2547	5.75256	-4.3316	0	
2.2553	5.75256	-0.670367	0	
2.2560	2.68951	-1.89508	0	
2.2567	0.871601	-3.72569	0	
2.2573	2.68951	-2.19158	0	
2.2580	3.61092	-0.670367	0	
2.2587	2.39068	-0.979767	0	
2.2593	1.79301	-0.0644584	0	
2.2600	0.871601	0.554342	0	
2.2607	-0.971212	-0.0644584	0	
2.2613	-1.56888	-0.670367	0	
2.2620	-0.971212	-0.979767	0	
2.2627	-0.34864	-1.27628	0	
2.2633	1.79301	-1.89508	0	
2.2640	4.53232	-0.979767	0	
2.2647	6.0514	-0.0644584	0	
2.2653	5.45373	-1.58568	0	
2.2660	5.75256	-3.72569	0	
2.2667	9.71212	-1.58568	0	
2.2673	15.5145	0.554342	0	
2.2680	17.3573	-0.979767	0	
2.2687	16.4359	-1.58568	0	
2.2693	19.1752	-0.360967	0	
2.2700	20.0966	-0.670367	0	
2.2707	14.9168	1.77905	0	
2.2713	11.8538	5.44029	0	
2.2720	12.1526	3.30027	0	
2.2727	8.19305	-0.0644584	0	
2.2733	2.68951	0.863742	0	
2.2740	0.249029	0.244942	0	
2.2747	-5.2296	-0.670367	0	
2.2753	-12.8748	1.46965	0	
2.2760	-15.3153	2.69436	0	
2.2767	-16.5355	0.554342	0	
2.2773	-20.4951	-0.360967	0	
2.2780	-19.2748	1.46965	0	
2.2787	-17.1332	2.69436	0	
2.2793	-21.0927	2.38496	0	
2.2800	-22.0141	2.99087	0	
2.2807	-15.3153	3.60967	0	
2.2813	-10.1106	0.863742	0	
2.2820	-7.07242	-1.58568	0	
2.2827	-4.63194	-1.89508	0	
2.2833	-7.37125	-2.19158	0	
2.2840	-10.4343	-1.89508	0	
2.2847	-7.37125	-0.360967	0	
2.2853	-4.63194	-1.58568	0	
2.2860	-4.63194	-3.41629	0	
2.2867	-0.647475	-1.89508	0	
2.2873	4.23349	-0.979767	0	
2.2880	4.53232	-2.50098	0	
2.2887	3.61092	-1.89508	0	
2.2893	3.61092	-0.360967	0	
2.2900	4.23349	-0.979767	0	
2.2907	5.45373	-0.0644584	0	
2.2913	5.75256	2.69436	0	
2.2920	5.45373	2.38496	0	
2.2927	5.45373	-1.89508	0	
2.2933	5.12999	-2.81038	0	
2.2940	2.68951	-0.360967	0	
2.2947	-0.971212	0.244942	0	
2.2953	-4.00936	-0.670367	0	
2.2960	-4.63194	-0.979767	0	
2.2967	-3.71053	-0.0644584	0	
2.2973	-4.63194	0.554342	0	
2.2980	-7.99382	-0.979767	0	
2.2987	-7.67009	-3.10689	0	
2.2993	-4.93077	-3.10689	0	
2.3000	-6.44985	-1.89508	0	
2.3007	-9.81173	-1.27628	0	
2.3013	-9.21406	0.863742	0	
2.3020	-6.44985	0.554342	0	
2.3027	-6.44985	-2.19158	0	
2.3033	-7.37125	-1.89508	0	
2.3040	-8.29266	-0.0644584	0	
2.3047	-8.89033	-1.89508	0	
2.3053	-6.15101	-1.89508	0	
2.3060	-3.08796	-0.979767	0	
2.3067	-1.56888	-2.81038	0	
2.3073	2.68951	-1.58568	0	
2.3080	6.67397	1.16025	0	
2.3087	4.83116	-1.27628	0	
2.3093	4.53232	-1.89508	0	
2.3100	8.49188	1.16025	0	
2.3107	9.71212	-0.0644584	0	
2.3113	8.19305	-2.19158	0	
2.3120	7.27164	0.863742	0	
2.3127	3.90975	3.60967	0	
2.3133	0.871601	2.38496	0	
2.3140	1.17044	-0.0644584	0	
2.3147	2.09184	-0.0644584	0	
2.3153	-0.971212	3.60967	0	
2.3160	-3.41169	3.90618	0	
2.3167	-1.56888	-1.58568	0	
2.3173	1.17044	-2.81038	0	
2.3180	1.17044	1.46965	0	
2.3187	1.17044	1.77905	0	
2.3193	0.572766	-0.360967	0	
2.3200	-1.56888	-1.89508	0	
2.3207	-0.34864	-2.81038	0	
2.3213	4.83116	-1.58568	0	
2.3220	6.35023	1.16025	0	
2.3227	3.31208	0.554342	0	
2.3233	1.79301	-1.89508	0	
2.3240	2.09184	-3.10689	0	
2.3247	0.871601	-3.10689	0	
2.3253	-1.27005	-0.0644584	0	
2.3260	-2.19145	0.863742	0	
2.3267	-1.86772	-2.19158	0	
2.3273	-0.971212	-2.19158	0	
2.3280	-0.647475	-0.979767	0	
2.3287	0.572766	-3.10689	0	
2.3293	3.31208	-1.58568	0	
2.3300	6.35023	2.07556	0	
2.3307	7.27164	0.244942	0	
2.3313	6.35023	-0.979767	0	
2.3320	6.67397	1.77905	0	
2.3327	9.11445	1.16025	0	
2.3333	10.9324	-1.58568	0	
2.3340	11.8538	-1.27628	0	
2.3347	12.7752	-1.58568	0	
2.3353	13.6966	-2.81038	0	
2.3360	13.3728	-1.27628	0	
2.3367	10.3347	0.244942	0	
2.3373	5.45373	-0.0644584	0	
2.3380	3.90975	0.244942	0	
2.3387	2.68951	1.16025	0	
2.3393	-3.71053	1.46965	0	
2.3400	-8.29266	0.554342	0	
2.3407	-9.21406	-1.89508	0	
2.3413	-10.7331	-4.641	0	
2.3420	-11.032	-5.85282	0	
2.3427	-10.1106	-3.72569	0	
2.3433	-11.6545	-1.89508	0	
2.3440	-13.7713	-2.19158	0	
2.3447	-14.6927	0.244942	0	
2.3453	-14.9915	3.60967	0	
2.3460	-13.1736	0.244942	0	
2.3467	-9.81173	-1.89508	0	
2.3473	-9.21406	0.244942	0	
2.3480	-9.5129	0.554342	0	
2.3487	-7.37125	-0.670367	0	
2.3493	-2.49029	0.554342	0	
2.3500	4.83116	0.863742	0	
2.3507	12.4763	1.46965	0	
2.3513	16.7347	2.69436	0	
2.3520	19.7978	-0.670367	0	
2.3527	21.9145	-5.24691	0	
2.3533	21.9145	-4.0222	0	
2.3540	19.4741	-1.89508	0	
2.3547	15.2157	-3.10689	0	
2.3553	10.9324	-3.72569	0	
2.3560	7.27164	-2.81038	0	
2.3567	3.61092	-0.979767	0	
2.3573	-0.0498058	-1.27628	0	
2.3580	-1.86772	-1.27628	0	
2.3587	-5.52844	0.554342	0	
2.3593	-10.7331	-0.979767	0	
2.3600	-14.9915	-4.641	0	
2.3607	-18.976	-3.10689	0	
2.3613	-22.0141	-0.0644584	0	
2.3620	-22.6367	-0.979767	0	
2.3627	-23.857	-0.0644584	0	
2.3633	-23.857	3.90618	0	
2.3640	-20.1962	2.69436	0	
2.3647	-17.1332	-0.0644584	0	
2.3653	-14.6927	2.38496	0	
2.3660	-8.59149	3.30027	0	
2.3667	-5.52844	0.863742	0	
2.3673	-7.07242	1.46965	0	
2.3680	-4.63194	3.60967	0	
2.3687	-0.0498058	5.13089	0	
2.3693	-2.19145	6.04619	0	
2.3700	-4.63194	6.3556	0	
2.3707	-2.19145	4.82149	0	
2.3713	-0.971212	4.52498	0	
2.3720	-0.647475	5.13089	0	
2.3727	0.871601	4.52498	0	
2.3733	0.871601	2.69436	0	
2.3740	1.46927	2.38496	0	
2.3747	3.31208	1.77905	0	
2.3753	1.79301	0.244942	0	
2.3760	-0.647475	-0.670367	0	
2.3767	3.61092	-0.670367	0	
2.3773	10.3347	-0.979767	0	
2.3780	12.1526	-0.979767	0	
2.3787	10.9324	-2.19158	0	
2.3793	9.41329	-3.41629	0	
2.3800	8.79072	-1.89508	0	
2.3807	8.49188	-0.360967	0	
2.3813	8.49188	-2.50098	0	
2.3820	7.27164	-2.81038	0	
2.3827	4.23349	0.244942	0	
2.3833	2.09184	-0.360967	0	
2.3840	1.79301	-2.50098	0	
2.3847	0.572766	-0.360967	0	
2.3853	-1.86772	-0.0644584	0	
2.3860	-3.71053	-2.81038	0	
2.3867	-3.71053	-1.58568	0	
2.3873	-0.971212	1.46965	0	
2.3880	0.871601	0.554342	0	
2.3887	-0.34864	1.46965	0	
2.3893	0.871601	2.99087	0	
2.3900	3.01325	0.554342	0	
2.3907	1.46927	-0.0644584	0	
2.3913	-1.56888	2.69436	0	
2.3920	-0.0498058	2.69436	0	
2.3927	1.17044	0.554342	0	
2.3933	0.871601	0.244942	0	
2.3940	2.68951	-0.979767	0	
2.3947	3.61092	-1.58568	0	
2.3953	2.68951	-0.670367	0	
2.3960	5.45373	-0.979767	0	
2.3967	10.011	-0.979767	0	
2.3973	11.5549	-0.0644584	0	
2.3980	11.5549	-1.27628	0	
2.3987	11.2561	-3.72569	0	
2.3993	11.8538	-3.72569	0	
2.4000	12.7752	-2.19158	0	
2.4007	11.5549	-2.81038	0	
2.4013	6.35023	-4.0222	0	
2.4020	2.68951	-3.72569	0	
2.4027	2.68951	-2.19158	0	
2.4033	3.01325	-2.19158	0	
2.4040	2.68951	-3.10689	0	
2.4047	2.09184	-3.72569	0	
2.4053	-1.86772	-3.72569	0	
2.4060	-6.15101	-2.81038	0	
2.4067	-7.07242	-1.27628	0	
2.4073	-7.07242	-1.27628	0	
2.4080	-8.59149	-0.360967	0	
2.4087	-11.9534	1.16025	0	
2.4093	-14.6927	1.46965	0	
2.4100	-15.3153	2.38496	0	
2.4107	-12.8748	5.13089	0	
2.4113	-11.9534	4.52498	0	
2.4120	-10.7331	2.69436	0	
2.4127	-9.21406	3.60967	0	
2.4133	-9.21406	3.30027	0	
2.4140	-6.44985	0.863742	0	
2.4147	-0.0498058	0.244942	0	
2.4153	3.01325	0.244942	0	
2.4160	3.90975	-0.670367	0	
2.4167	9.41329	-0.670367	0	
2.4173	15.5145	-1.58568	0	
2.4180	17.3573	-3.72569	0	
2.4187	16.7347	-4.0222	0	
2.4193	13.6966	-3.72569	0	
2.4200	10.3347	-4.0222	0	
2.4207	10.011	-4.3316	0	
2.4213	6.0514	-3.10689	0	
2.4220	-1.56888	-2.50098	0	
2.4227	-5.52844	-2.19158	0	
2.4233	-8.59149	-2.81038	0	
2.4240	-14.9915	-4.641	0	
2.4247	-18.0546	-4.641	0	
2.4253	-16.2118	-2.81038	0	
2.4260	-14.9915	-1.58568	0	
2.4267	-12.5511	-0.979767	0	
2.4273	-7.37125	0.554342	0	
2.4280	-4.63194	-0.670367	0	
2.4287	-3.71053	-3.10689	0	
2.4293	-0.0498058	-0.979767	0	
2.4300	4.83116	2.07556	0	
2.4307	7.27164	-0.360967	0	
2.4313	8.19305	-3.41629	0	
2.4320	9.71212	-0.360967	0	
2.4327	6.97281	2.99087	0	
2.4333	2.39068	2.69436	0	
2.4340	2.68951	1.46965	0	
2.4347	3.90975	1.77905	0	
2.4353	0.572766	2.38496	0	
2.4360	-3.71053	2.69436	0	
2.4367	-4.63194	3.60967	0	
2.4373	-7.37125	3.60967	0	
2.4380	-10.4343	2.38496	0	
2.4387	-11.9534	1.77905	0	
2.4393	-14.6927	2.07556	0	
2.4400	-17.1332	1.16025	0	
2.4407	-15.3153	-0.360967	0	
2.4413	-12.8748	-1.27628	0	
2.4420	-11.9534	-1.89508	0	
2.4427	-9.5129	-0.979767	0	
2.4433	-8.29266	1.46965	0	
2.4440	-8.59149	0.863742	0	
2.4447	-5.2296	-1.27628	0	
2.4453	-3.08796	-0.360967	0	
2.4460	-5.85218	1.77905	0	
2.4467	-5.52844	0.244942	0	
2.4473	-0.971212	-1.58568	0	
2.4480	-0.0498058	-1.89508	0	
2.4487	0.572766	-2.50098	0	
2.4493	3.01325	-2.50098	0	
2.4500	3.01325	-0.979767	0	
2.4507	1.17044	0.244942	0	
2.4513	1.17044	-0.360967	0	
2.4520	2.09184	-1.27628	0	
2.4527	3.01325	-0.670367	0	
2.4533	4.53232	1.77905	0	
2.4540	4.83116	2.69436	0	
2.4547	4.83116	0.554342	0	
2.4553	4.83116	-0.979767	0	
2.4560	4.83116	-0.360967	0	
2.4567	5.45373	0.863742	0	
2.4573	6.35023	1.16025	0	
2.4580	7.27164	-1.27628	0	
2.4587	8.79072	-2.81038	0	
2.4593	10.9324	-1.58568	0	
2.4600	10.9324	-0.979767	0	
2.4607	8.79072	-2.81038	0	
2.4613	8.19305	-3.72569	0	
2.4620	11.5549	-4.3316	0	
2.4627	16.4359	-5.85282	0	
2.4633	18.2538	-4.641	0	
2.4640	15.5145	-3.72569	0	
2.4647	12.7752	-4.0222	0	
2.4653	13.9954	-1.27628	0	
2.4660	13.9954	0.244942	0	
2.4667	10.6335	-2.81038	0	
2.4673	10.011	-3.72569	0	
2.4680	11.8538	-2.50098	0	
2.4687	10.011	-3.10689	0	
2.4693	5.45373	-1.89508	0	
2.4700	1.79301	0.244942	0	
2.4707	-4.63194	-1.58568	0	
2.4713	-9.81173	-0.979767	0	
2.4720	-10.1106	2.38496	0	
2.4727	-11.9534	1.46965	0	
2.4733	-17.1332	-0.0644584	0	
2.4740	-19.2748	2.07556	0	
2.4747	-16.8343	2.38496	0	
2.4753	-14.095	-0.0644584	0	
2.4760	-11.9534	-0.979767	0	
2.4767	-9.81173	-0.0644584	0	
2.4773	-10.7331	2.69436	0	
2.4780	-10.1106	2.99087	0	
2.4787	-6.15101	-0.979767	0	
2.4793	-4.63194	-2.81038	0	
2.4800	-5.2296	-0.670367	0	
2.4807	-1.27005	-0.0644584	0	
2.4813	1.46927	-0.670367	0	
2.4820	-0.647475	-1.27628	0	
2.4827	1.46927	-3.10689	0	
2.4833	7.57048	-2.81038	0	
2.4840	9.71212	-0.0644584	0	
2.4847	9.41329	1.16025	0	
2.4853	11.5549	0.554342	0	
2.4860	12.7752	-1.89508	0	
2.4867	12.4763	-4.641	0	
2.4873	10.011	-3.72569	0	
2.4880	4.23349	-0.360967	0	
2.4887	-0.647475	0.863742	0	
2.4893	-1.27005	-0.0644584	0	
2.4900	0.572766	-1.89508	0	
2.4907	2.68951	-1.89508	0	
2.4913	2.09184	-0.0644584	0	
2.4920	-0.971212	0.244942	0	
2.4927	-2.49029	-1.27628	0	
2.4933	-1.56888	-1.89508	0	
2.4940	-3.41169	-1.58568	0	
2.4947	-5.85218	-1.89508	0	
2.4953	-7.07242	-0.979767	0	
2.4960	-8.59149	1.77905	0	
2.4967	-10.7331	3.30027	0	
2.4973	-14.3939	1.77905	0	
2.4980	-18.3534	2.69436	0	
2.4987	-17.432	5.44029	0	
2.4993	-11.9534	4.21558	0	
2.5000	-10.1106	1.46965	0	
2.5007	-11.9534	3.30027	0	
2.5013	-11.9534	2.69436	0	
2.5020	-11.032	-1.27628	0	
2.5027	-10.4343	0.863742	0	
2.5033	-7.99382	4.82149	0	
2.5040	-5.2296	2.07556	0	
2.5047	-2.78912	1.16025	0	
2.5053	-0.34864	4.52498	0	
2.5060	2.68951	2.69436	0	
2.5067	6.0514	0.244942	0	
2.5073	8.49188	2.99087	0	
2.5080	8.49188	3.90618	0	
2.5087	9.11445	2.38496	0	
2.5093	10.6335	2.07556	0	
2.5100	12.1526	0.863742	0	
2.5107	16.4359	-0.360967	0	
2.5113	21.6157	0.244942	0	
2.5120	21.3169	-0.0644584	0	
2.5127	20.0966	-0.0644584	0	
2.5133	19.4741	0.863742	0	
2.5140	13.6966	-0.979767	0	
2.5147	6.67397	-1.58568	0	
2.5153	5.75256	0.863742	0	
2.5160	3.31208	-0.979767	0	
2.5167	-2.49029	-2.81038	0	
2.5173	-2.78912	1.16025	0	
2.5180	-2.49029	0.863742	0	
2.5187	-7.37125	-4.641	0	
2.5193	-10.1106	-3.41629	0	
2.5200	-7.67009	1.16025	0	
2.5207	-8.59149	0.554342	0	
2.5213	-12.8748	-0.670367	0	
2.5220	-15.9129	-0.0644584	0	
2.5227	-18.0546	-0.0644584	0	
2.5233	-14.6927	1.16025	0	
2.5240	-8.29266	0.554342	0	
2.5247	-8.29266	-3.10689	0	
2.5253	-9.21406	-3.72569	0	
2.5260	-4.00936	-1.27628	0	
2.5267	-1.27005	-1.89508	0	
2.5273	-1.86772	-2.19158	0	
2.5280	1.79301	0.554342	0	
2.5287	3.61092	1.77905	0	
2.5293	1.79301	1.16025	0	
2.5300	0.871601	0.554342	0	
2.5307	-0.0498058	0.863742	0	
2.5313	-1.86772	2.69436	0	
2.5320	1.17044	3.60967	0	
2.5327	5.12999	0.863742	0	
2.5333	6.0514	-0.979767	0	
2.5340	8.19305	-0.360967	0	
2.5347	10.9324	-0.360967	0	
2.5353	9.11445	-1.58568	0	
2.5360	6.35023	-2.81038	0	
2.5367	5.75256	-2.81038	0	
2.5373	2.39068	-0.979767	0	
2.5380	-0.647475	-0.0644584	0	
2.5387	2.68951	-1.89508	0	
2.5393	6.97281	-5.55631	0	
2.5400	8.19305	-7.38693	0	
2.5407	9.11445	-6.47162	0	
2.5413	8.19305	-4.0222	0	
2.5420	5.12999	-3.72569	0	
2.5427	2.68951	-3.72569	0	
2.5433	-0.0498058	-2.81038	0	
2.5440	-5.52844	-2.50098	0	
2.5447	-9.81173	-3.72569	0	
2.5453	-11.032	-1.89508	0	
2.5460	-12.8748	2.07556	0	
2.5467	-14.9915	1.46965	0	
2.5473	-16.8343	-2.19158	0	
2.5480	-18.3534	-1.89508	0	
2.5487	-17.1332	-0.360967	0	
2.5493	-13.7713	-0.670367	0	
2.5500	-11.032	1.16025	0	
2.5507	-7.99382	4.21558	0	
2.5513	-4.00936	3.60967	0	
2.5520	-3.08796	2.99087	0	
2.5527	-2.78912	4.82149	0	
2.5533	-0.0498058	5.13089	0	
2.5540	2.68951	1.77905	0	
2.5547	3.01325	-0.670367	0	
2.5553	2.39068	1.16025	0	
2.5560	2.09184	3.30027	0	
2.5567	1.17044	2.07556	0	
2.5573	-1.56888	-0.0644584	0	
2.5580	-3.71053	-0.0644584	0	
2.5587	-4.63194	0.863742	0	
2.5593	-6.44985	2.07556	0	
2.5600	-7.37125	1.46965	0	
2.5607	-5.2296	-2.50098	0	
2.5613	-3.08796	-3.72569	0	
2.5620	-0.647475	-1.58568	0	
2.5627	5.75256	-0.979767	0	
2.5633	11.8538	-1.89508	0	
2.5640	14.9168	-0.0644584	0	
2.5647	16.7347	1.77905	0	
2.5653	15.5145	-0.979767	0	
2.5660	11.5549	-3.10689	0	
2.5667	10.6335	-1.27628	0	
2.5673	9.71212	0.554342	0	
2.5680	6.0514	-0.0644584	0	
2.5687	3.31208	-0.979767	0	
2.5693	-0.0498058	-0.979767	0	
2.5700	-4.3082	-0.360967	0	
2.5707	-5.52844	0.863742	0	
2.5713	-7.37125	1.77905	0	
2.5720	-11.032	0.863742	0	
2.5727	-10.1106	-0.670367	0	
2.5733	-6.77358	-0.0644584	0	
2.5740	-6.44985	-0.670367	0	
2.5747	-5.85218	-2.50098	0	
2.5753	-5.85218	-0.979767	0	
2.5760	-7.37125	1.16025	0	
2.5767	-6.44985	-1.89508	0	
2.5773	-4.00936	-3.72569	0	
2.5780	-1.27005	-0.0644584	0	
2.5787	3.31208	1.46965	0	
2.5793	6.67397	-2.50098	0	
2.5800	5.45373	-3.72569	0	
2.5807	5.45373	-1.89508	0	
2.5813	6.97281	-3.10689	0	
2.5820	4.53232	-4.641	0	
2.5827	0.871601	-4.0222	0	
2.5833	0.572766	-3.72569	0	
2.5840	2.39068	-3.41629	0	
2.5847	1.79301	-1.89508	0	
2.5853	-1.86772	-0.670367	0	
2.5860	-2.49029	-1.58568	0	
2.5867	-0.34864	-3.10689	0	
2.5873	-1.27005	-3.41629	0	
2.5880	-3.08796	-1.89508	0	
2.5887	-1.56888	1.16025	0	
2.5893	-0.0498058	3.60967	0	
2.5900	-0.647475	4.21558	0	
2.5907	0.572766	2.69436	0	
2.5913	1.79301	0.863742	0	
2.5920	1.79301	0.244942	0	
2.5927	3.90975	-0.360967	0	
2.5933	9.11445	-0.979767	0	
2.5940	12.7752	-0.670367	0	
2.5947	12.4763	0.244942	0	
2.5953	9.11445	0.244942	0	
2.5960	8.49188	-0.360967	0	
2.5967	10.3347	-0.670367	0	
2.5973	9.71212	-0.979767	0	
2.5980	6.67397	-2.19158	0	
2.5987	4.53232	-2.81038	0	
2.5993	2.68951	-3.10689	0	
2.6000	0.249029	-3.72569	0	
2.6007	-4.63194	-3.72569	0	
2.6013	-8.29266	-3.10689	0	
2.6020	-5.85218	-1.89508	0	
2.6027	-5.52844	-0.0644584	0	
2.6033	-11.032	-0.979767	0	
2.6040	-11.032	-1.89508	0	
2.6047	-7.07242	0.244942	0	
2.6053	-9.81173	1.46965	0	
2.6060	-12.5511	-0.670367	0	
2.6067	-11.032	0.244942	0	
2.6073	-11.032	2.99087	0	
2.6080	-9.81173	2.07556	0	
2.6087	-5.2296	1.77905	0	
2.6093	-4.3082	2.99087	0	
2.6100	-1.86772	1.46965	0	
2.6107	4.23349	-0.979767	0	
2.6113	5.12999	0.863742	0	
2.6120	2.68951	2.38496	0	
2.6127	3.61092	2.07556	0	
2.6133	4.53232	2.69436	0	
2.6140	4.83116	2.07556	0	
2.6147	5.45373	2.07556	0	
2.6153	3.90975	6.3556	0	
2.6160	4.53232	6.3556	0	
2.6167	10.9324	-0.0644584	0	
2.6173	14.5931	-2.50098	0	
2.6180	14.5931	-1.58568	0	
2.6187	17.6561	-2.81038	0	
2.6193	21.9145	-3.72569	0	
2.6200	19.4741	-4.641	0	
2.6207	13.6966	-5.85282	0	
2.6213	10.9324	-4.641	0	
2.6220	8.79072	-3.10689	0	
2.6227	1.79301	-4.3316	0	
2.6233	-4.63194	-4.0222	0	
2.6240	-5.85218	-2.19158	0	
2.6247	-9.21406	-1.89508	0	
2.6253	-14.6927	-1.89508	0	
2.6260	-15.6141	-0.979767	0	
2.6267	-15.6141	0.554342	0	
2.6273	-20.7939	1.77905	0	
2.6280	-22.6367	1.77905	0	
2.6287	-18.3534	0.244942	0	
2.6293	-18.3534	-0.0644584	0	
2.6300	-20.1962	2.07556	0	
2.6307	-15.9129	4.52498	0	
2.6313	-9.21406	6.04619	0	
2.6320	-3.71053	5.73679	0	
2.6327	-0.0498058	5.44029	0	
2.6333	0.249029	6.9615	0	
2.6340	1.46927	7.2709	0	
2.6347	4.53232	4.21558	0	
2.6353	3.31208	2.99087	0	
2.6360	-0.0498058	2.69436	0	
2.6367	2.68951	-1.89508	0	
2.6373	7.57048	-4.93751	0	
2.6380	7.89421	-1.89508	0	
2.6387	6.35023	1.16025	0	
2.6393	4.83116	-0.979767	0	
2.6400	4.53232	-2.81038	0	
2.6407	4.53232	-1.89508	0	
2.6413	3.61092	-0.979767	0	
2.6420	2.68951	-0.360967	0	
2.6427	3.61092	-0.0644584	0	
2.6433	4.83116	-0.979767	0	
2.6440	5.12999	-0.979767	0	
2.6447	4.23349	-0.360967	0	
2.6453	-0.971212	-1.58568	0	
2.6460	-9.21406	-2.19158	0	
2.6467	-13.7713	-0.0644584	0	
2.6473	-13.4725	1.46965	0	
2.6480	-11.3308	-0.670367	0	
2.6487	-6.44985	-0.979767	0	
2.6493	2.68951	-0.0644584	0	
2.6500	12.4763	-1.89508	0	
2.6507	16.4359	-2.81038	0	
2.6513	18.2538	-0.979767	0	
2.6520	20.6943	-0.979767	0	
2.6527	19.7978	-1.58568	0	
2.6533	16.4359	-0.0644584	0	
2.6540	13.3728	-0.0644584	0	
2.6547	8.19305	-1.27628	0	
2.6553	3.01325	-1.27628	0	
2.6560	-0.0498058	-1.27628	0	
2.6567	-7.99382	-1.89508	0	
2.6573	-16.8343	-1.89508	0	
2.6580	-19.2748	-3.41629	0	
2.6587	-21.0927	-4.93751	0	
2.6593	-25.0772	-3.72569	0	
2.6600	-24.7784	-2.19158	0	
2.6607	-23.5581	-3.10689	0	
2.6613	-24.4546	-3.72569	0	
2.6620	-20.4951	-2.50098	0	
2.6627	-13.1736	-0.979767	0	
2.6633	-10.1106	-2.81038	0	
2.6640	-9.5129	-4.93751	0	
2.6647	-7.07242	-4.3316	0	
2.6653	-4.3082	-3.72569	0	
2.6660	-3.41169	-5.55631	0	
2.6667	-0.34864	-3.72569	0	
2.6673	3.31208	-0.0644584	0	
2.6680	3.61092	-0.0644584	0	
2.6687	2.68951	-0.0644584	0	
2.6693	4.53232	2.38496	0	
2.6700	5.75256	1.77905	0	
2.6707	5.45373	-0.0644584	0	
2.6713	5.75256	1.16025	0	
2.6720	6.97281	1.77905	0	
2.6727	7.89421	0.863742	0	
2.6733	7.27164	1.16025	0	
2.6740	4.83116	2.07556	0	
2.6747	3.31208	1.46965	0	
2.6753	3.61092	0.863742	0	
2.6760	2.68951	2.07556	0	
2.6767	1.46927	1.77905	0	
2.6773	2.68951	-1.27628	0	
2.6780	2.09184	-3.10689	0	
2.6787	0.572766	-0.979767	0	
2.6793	0.572766	0.244942	0	
2.6800	-2.78912	-1.89508	0	
2.6807	-8.29266	-3.41629	0	
2.6813	-7.67009	-3.72569	0	
2.6820	-4.63194	-2.81038	0	
2.6827	-4.00936	-0.360967	0	
2.6833	-0.647475	-0.0644584	0	
2.6840	4.23349	-2.19158	0	
2.6847	4.53232	-2.81038	0	
2.6853	5.45373	-1.89508	0	
2.6860	8.79072	-3.10689	0	
2.6867	7.57048	-3.72569	0	
2.6873	5.45373	-1.58568	0	
2.6880	7.89421	-0.979767	0	
2.6887	8.49188	0.554342	0	
2.6893	5.45373	1.77905	0	
2.6900	5.75256	-0.0644584	0	
2.6907	7.27164	-0.0644584	0	
2.6913	5.45373	2.69436	0	
2.6920	4.23349	0.863742	0	
2.6927	4.23349	-1.89508	0	
2.6933	3.61092	1.16025	0	
2.6940	3.01325	3.30027	0	
2.6947	1.17044	2.69436	0	
2.6953	-1.86772	4.52498	0	
2.6960	-2.19145	3.90618	0	
2.6967	-2.49029	0.863742	0	
2.6973	-4.63194	0.554342	0	
2.6980	-5.2296	0.863742	0	
2.6987	-4.63194	-0.0644584	0	
2.6993	-3.71053	0.863742	0	
2.7000	-1.86772	1.77905	0	
2.7007	-1.86772	-0.979767	0	
2.7013	-4.00936	-1.58568	0	
2.7020	-4.63194	1.16025	0	
2.7027	-3.41169	1.16025	0	
2.7033	-1.27005	-0.360967	0	
2.7040	-0.0498058	-0.0644584	0	
2.7047	-0.0498058	1.16025	0	
2.7053	0.572766	2.38496	0	
2.7060	2.68951	2.07556	0	
2.7067	6.35023	-0.979767	0	
2.7073	9.41329	-1.58568	0	
2.7080	8.79072	0.244942	0	
2.7087	6.35023	-1.27628	0	
2.7093	5.45373	-1.89508	0	
2.7100	5.45373	2.99087	0	
2.7107	5.45373	5.73679	0	
2.7113	4.53232	2.69436	0	
2.7120	3.01325	0.863742	0	
2.7127	1.79301	0.863742	0	
2.7133	0.572766	1.46965	0	
2.7140	-2.19145	1.16025	0	
2.7147	-6.44985	-0.979767	0	
2.7153	-8.29266	-1.27628	0	
2.7160	-8.59149	1.46965	0	
2.7167	-9.81173	1.46965	0	
2.7173	-9.81173	0.244942	0	
2.7180	-8.29266	1.77905	0	
2.7187	-9.21406	0.863742	0	
2.7193	-9.21406	-4.3316	0	
2.7200	-6.44985	-4.641	0	
2.7207	-2.49029	-2.50098	0	
2.7213	-0.647475	-3.10689	0	
2.7220	0.249029	-3.72569	0	
2.7227	3.01325	-3.72569	0	
2.7233	4.53232	-2.81038	0	
2.7240	0.871601	-2.81038	0	
2.7247	-2.49029	-3.72569	0	
2.7253	0.249029	-5.55631	0	
2.7260	0.871601	-3.72569	0	
2.7267	-4.63194	0.863742	0	
2.7273	-6.44985	-0.0644584	0	
2.7280	-2.19145	-2.81038	0	
2.7287	-0.647475	-2.81038	0	
2.7293	-3.41169	-0.670367	0	
2.7300	-5.2296	0.863742	0	
2.7307	-4.63194	3.60967	0	
2.7313	-3.71053	5.13089	0	
2.7320	-3.71053	2.99087	0	
2.7327	-3.71053	-0.0644584	0	
2.7333	-2.49029	0.554342	0	
2.7340	-1.27005	2.69436	0	
2.7347	-0.647475	1.77905	0	
2.7353	1.79301	-0.0644584	0	
2.7360	4.53232	0.244942	0	
2.7367	3.61092	0.863742	0	
2.7373	2.68951	0.554342	0	
2.7380	5.45373	-0.0644584	0	
2.7387	7.89421	-0.670367	0	
2.7393	4.53232	-0.0644584	0	
2.7400	2.68951	0.863742	0	
2.7407	5.75256	0.554342	0	
2.7413	6.67397	-2.81038	0	
2.7420	6.35023	-5.55631	0	
2.7427	7.57048	-4.641	0	
2.7433	6.97281	-1.89508	0	
2.7440	5.12999	-1.58568	0	
2.7447	3.90975	-2.19158	0	
2.7453	0.572766	-0.979767	0	
2.7460	-2.19145	-0.360967	0	
2.7467	-0.971212	-1.89508	0	
2.7473	-0.34864	-1.89508	0	
2.7480	-0.971212	-0.979767	0	
2.7487	-0.0498058	-0.360967	0	
2.7493	-0.971212	1.77905	0	
2.7500	-2.49029	2.69436	0	
2.7507	-1.86772	0.244942	0	
2.7513	-3.71053	-0.0644584	0	
2.7520	-5.52844	2.69436	0	
2.7527	-4.3082	2.69436	0	
2.7533	-2.78912	1.77905	0	
2.7540	-4.63194	2.69436	0	
2.7547	-4.00936	0.863742	0	
2.7553	-0.647475	-1.58568	0	
2.7560	0.249029	-1.58568	0	
2.7567	-3.71053	-0.979767	0	
2.7573	-6.15101	-0.0644584	0	
2.7580	-2.19145	2.69436	0	
2.7587	0.871601	2.07556	0	
2.7593	-1.86772	-1.58568	0	
2.7600	-3.71053	-3.10689	0	
2.7607	-0.34864	-0.979767	0	
2.7613	1.17044	1.46965	0	
2.7620	-0.647475	0.554342	0	
2.7627	-0.971212	-1.58568	0	
2.7633	-0.0498058	-0.670367	0	
2.7640	0.871601	0.863742	0	
2.7647	0.871601	-0.0644584	0	
2.7653	-0.0498058	-0.360967	0	
2.7660	0.871601	-0.670367	0	
2.7667	3.61092	-0.979767	0	
2.7673	3.90975	0.554342	0	
2.7680	3.31208	1.16025	0	
2.7687	4.53232	-1.27628	0	
2.7693	4.83116	-0.670367	0	
2.7700	2.68951	2.69436	0	
2.7707	4.23349	1.77905	0	
2.7713	7.27164	-0.0644584	0	
2.7720	5.45373	2.69436	0	
2.7727	2.68951	2.69436	0	
2.7733	3.61092	-0.0644584	0	
2.7740	5.45373	0.244942	0	
2.7747	5.75256	1.77905	0	
2.7753	6.35023	-0.979767	0	
2.7760	7.89421	-3.72569	0	
2.7767	10.6335	-1.89508	0	
2.7773	13.9954	0.863742	0	
2.7780	13.6966	-0.360967	0	
2.7787	11.2561	-3.72569	0	
2.7793	12.1526	-4.93751	0	
2.7800	13.3728	-4.0222	0	
2.7807	8.19305	-3.72569	0	
2.7813	0.249029	-3.72569	0	
2.7820	-3.71053	-3.10689	0	
2.7827	-4.63194	-3.72569	0	
2.7833	-7.67009	-3.72569	0	
2.7840	-12.8748	-3.10689	0	
2.7847	-14.9915	-2.81038	0	
2.7853	-13.4725	-2.19158	0	
2.7860	-13.1736	-0.0644584	0	
2.7867	-13.7713	0.554342	0	
2.7873	-11.3308	-0.979767	0	
2.7880	-9.5129	-0.979767	0	
2.7887	-10.4343	-0.670367	0	
2.7893	-8.29266	-0.0644584	0	
2.7900	-4.63194	2.99087	0	
2.7907	-2.78912	3.30027	0	
2.7913	0.572766	0.863742	0	
2.7920	6.35023	2.69436	0	
2.7927	10.3347	2.38496	0	
2.7933	13.3728	-0.979767	0	
2.7940	14.9168	0.554342	0	
2.7947	12.7752	2.69436	0	
2.7953	9.41329	0.863742	0	
2.7960	6.0514	0.863742	0	
2.7967	-0.971212	1.46965	0	
2.7973	-8.29266	-0.670367	0	
2.7980	-12.2522	0.244942	0	
2.7987	-15.6141	2.69436	0	
2.7993	-18.6523	0.863742	0	
2.8000	-20.1962	-0.670367	0	
2.8007	-22.0141	0.244942	0	
2.8013	-25.0772	-0.0644584	0	
2.8020	-25.6749	-0.360967	0	
2.8027	-25.376	0.244942	0	
2.8033	-25.376	0.244942	0	
2.8040	-22.0141	0.554342	0	
2.8047	-16.5355	0.863742	0	
2.8053	-12.8748	0.244942	0	
2.8060	-11.6545	-0.0644584	0	
2.8067	-11.032	1.77905	0	
2.8073	-8.29266	4.21558	0	
2.8080	-4.00936	3.60967	0	
2.8087	-1.27005	2.38496	0	
2.8093	-0.34864	2.38496	0	
2.8100	2.68951	0.554342	0	
2.8107	8.19305	-1.89508	0	
2.8113	12.4763	-0.360967	0	
2.8120	13.6966	0.244942	0	
2.8127	14.2943	-4.3316	0	
2.8133	14.5931	-6.47162	0	
2.8140	13.3728	-1.89508	0	
2.8147	10.6335	0.863742	0	
2.8153	8.49188	-0.0644584	0	
2.8160	6.35023	-1.27628	0	
2.8167	1.79301	-3.72569	0	
2.8173	-3.08796	-4.0222	0	
2.8180	-4.93077	0.554342	0	
2.8187	-5.2296	4.52498	0	
2.8193	-5.85218	2.38496	0	
2.8200	-5.52844	-0.0644584	0	
2.8207	-4.63194	0.863742	0	
2.8213	-4.63194	1.16025	0	
2.8220	-5.52844	0.863742	0	
2.8227	-2.78912	1.16025	0	
2.8233	0.871601	0.244942	0	
2.8240	1.79301	-1.89508	0	
2.8247	1.17044	-1.89508	0	
2.8253	3.61092	-0.670367	0	
2.8260	4.53232	-0.670367	0	
2.8267	1.79301	-0.979767	0	
2.8273	1.46927	0.863742	0	
2.8280	3.61092	2.69436	0	
2.8287	3.61092	0.244942	0	
2.8293	3.61092	-0.670367	0	
2.8300	5.45373	1.46965	0	
2.8307	3.31208	1.77905	0	
2.8313	1.46927	0.244942	0	
2.8320	3.61092	1.46965	0	
2.8327	4.83116	1.46965	0	
2.8333	3.61092	-0.979767	0	
2.8340	4.83116	-1.89508	0	
2.8347	7.57048	-0.979767	0	
2.8353	10.011	-2.19158	0	
2.8360	15.2157	-4.0222	0	
2.8367	18.8764	-3.72569	0	
2.8373	17.3573	-3.41629	0	
2.8380	13.9954	-4.3316	0	
2.8387	9.41329	-4.641	0	
2.8393	5.75256	-2.81038	0	
2.8400	5.75256	-2.19158	0	
2.8407	5.45373	-3.72569	0	
2.8413	1.46927	-4.93751	0	
2.8420	-2.19145	-3.10689	0	
2.8427	-2.78912	-0.360967	0	
2.8433	-2.78912	-0.360967	0	
2.8440	-2.78912	-0.979767	0	
2.8447	-3.41169	0.554342	0	
2.8453	-2.49029	1.77905	0	
2.8460	0.572766	1.46965	0	
2.8467	5.12999	0.863742	0	
2.8473	10.9324	0.244942	0	
2.8480	13.9954	-0.979767	0	
2.8487	10.011	-1.58568	0	
2.8493	3.61092	0.554342	0	
2.8500	2.09184	2.69436	0	
2.8507	3.01325	2.99087	0	
2.8513	0.572766	3.60967	0	
2.8520	-3.71053	4.21558	0	
2.8527	-4.63194	2.69436	0	
2.8533	-4.3082	0.863742	0	
2.8540	-7.37125	1.46965	0	
2.8547	-11.9534	2.38496	0	
2.8553	-16.2118	1.77905	0	
2.8560	-20.7939	0.863742	0	
2.8567	-23.2344	-0.670367	0	
2.8573	-23.2344	-1.27628	0	
2.8580	-23.5581	-0.979767	0	
2.8587	-21.0927	0.554342	0	
2.8593	-17.1332	0.863742	0	
2.8600	-15.3153	-0.670367	0	
2.8607	-13.7713	-2.81038	0	
2.8613	-9.81173	-2.81038	0	
2.8620	-6.15101	-0.360967	0	
2.8627	-4.63194	-0.0644584	0	
2.8633	-2.49029	-0.979767	0	
2.8640	0.572766	-0.979767	0	
2.8647	3.61092	-1.27628	0	
2.8653	4.53232	-2.81038	0	
2.8660	2.68951	-2.81038	0	
2.8667	2.68951	-1.58568	0	
2.8673	4.23349	-0.670367	0	
2.8680	3.61092	-0.0644584	0	
2.8687	2.68951	0.554342	0	
2.8693	5.75256	0.863742	0	
2.8700	9.11445	0.244942	0	
2.8707	10.9324	-0.670367	0	
2.8713	10.3347	-0.360967	0	
2.8720	7.27164	-0.0644584	0	
2.8727	7.57048	-0.0644584	0	
2.8733	12.4763	0.863742	0	
2.8740	11.5549	2.38496	0	
2.8747	6.0514	1.77905	0	
2.8753	6.67397	-0.670367	0	
2.8760	8.79072	-1.58568	0	
2.8767	5.45373	0.244942	0	
2.8773	2.39068	2.69436	0	
2.8780	0.871601	1.16025	0	
2.8787	-2.19145	-2.50098	0	
2.8793	-3.71053	-3.10689	0	
2.8800	-3.41169	-0.670367	0	
2.8807	-6.44985	0.244942	0	
2.8813	-10.1106	0.244942	0	
2.8820	-7.07242	1.16025	0	
2.8827	-0.971212	1.16025	0	
2.8833	-0.0498058	-0.360967	0	
2.8840	-0.971212	-2.19158	0	
2.8847	2.68951	-1.58568	0	
2.8853	5.45373	1.16025	0	
2.8860	3.61092	1.46965	0	
2.8867	2.68951	-0.670367	0	
2.8873	4.23349	-0.979767	0	
2.8880	6.35023	-0.979767	0	
2.8887	6.35023	-0.979767	0	
2.8893	4.83116	0.863742	0	
2.8900	6.97281	1.46965	0	
2.8907	11.8538	-0.670367	0	
2.8913	12.7752	-0.979767	0	
2.8920	10.3347	0.554342	0	
2.8927	10.9324	-0.0644584	0	
2.8933	10.011	-0.979767	0	
2.8940	5.45373	-0.0644584	0	
2.8947	0.871601	0.863742	0	
2.8953	-0.971212	1.77905	0	
2.8960	-0.971212	0.863742	0	
2.8967	-2.49029	-1.89508	0	
2.8973	-6.15101	-1.58568	0	
2.8980	-8.29266	-0.979767	0	
2.8987	-8.29266	-2.50098	0	
2.8993	-7.99382	-2.19158	0	
2.9000	-6.77358	-0.360967	0	
2.9007	-6.77358	-0.979767	0	
2.9013	-9.21406	-1.89508	0	
2.9020	-7.67009	-0.979767	0	
2.9027	-2.78912	0.554342	0	
2.9033	0.871601	2.69436	0	
2.9040	2.68951	2.69436	0	
2.9047	2.68951	0.863742	0	
2.9053	2.09184	-0.0644584	0	
2.9060	2.68951	-0.0644584	0	
2.9067	2.68951	0.244942	0	
