0.0007	-8.35256	-0.0848322	0	
0.0013	-12.0008	-0.0848322	0	
0.0020	-15.9755	1.13675	0	
0.0027	-15.6682	3.56295	0	
0.0033	-14.7466	4.78454	0	
0.0040	-15.6682	6.00612	0	
0.0047	-16.5899	7.22771	0	
0.0053	-16.8971	7.22771	0	
0.0060	-16.5899	6.92231	0	
0.0067	-13.8441	7.8385	0	
0.0073	-12.0008	6.61691	0	
0.0080	-9.86946	3.56295	0	
0.0087	-5.60677	3.56295	0	
0.0093	-4.68511	5.08993	0	
0.0100	-6.50923	3.86835	0	
0.0107	-3.76345	1.74754	0	
0.0113	3.55224	-1.00102	0	
0.0120	7.21968	-6.80354	0	
0.0127	10.5799	-11.9953	0	
0.0133	18.8173	-11.9953	0	
0.0140	24.0016	-10.4683	0	
0.0147	23.0799	-11.0791	0	
0.0153	22.7919	-9.8575	0	
0.0160	23.6944	-5.88736	0	
0.0167	22.7919	-4.97117	0	
0.0173	23.0799	-7.10894	0	
0.0180	22.4847	-6.49815	0	
0.0187	16.6859	-3.13879	0	
0.0193	9.96546	-1.00102	0	
0.0200	2.957	-0.695624	0	
0.0207	-3.76345	-0.0848322	0	
0.0213	-9.86946	-0.390228	0	
0.0220	-17.1851	-0.390228	0	
0.0227	-25.4417	2.35834	0	
0.0233	-26.6514	3.86835	0	
0.0240	-21.7743	3.86835	0	
0.0247	-21.467	5.39533	0	
0.0253	-24.52	5.08993	0	
0.0260	-22.0815	2.35834	0	
0.0267	-15.9755	3.56295	0	
0.0273	-15.0538	7.22771	0	
0.0280	-17.1851	7.8385	0	
0.0287	-15.6682	6.61691	0	
0.0293	-12.0008	5.39533	0	
0.0300	-9.56224	2.66373	0	
0.0307	-6.20201	0.831356	0	
0.0313	-2.55377	2.05294	0	
0.0320	-1.01767	1.44215	0	
0.0327	-1.93933	0.220564	0	
0.0333	-0.710447	2.96913	0	
0.0340	3.55224	6.00612	0	
0.0347	7.5269	4.17375	0	
0.0353	7.21968	0.220564	0	
0.0360	3.24502	-1.00102	0	
0.0367	0.806454	1.44215	0	
0.0373	0.806454	3.86835	0	
0.0380	0.806454	4.47914	0	
0.0387	-0.403227	3.86835	0	
0.0393	-1.93933	3.86835	0	
0.0400	-3.45623	2.66373	0	
0.0407	-2.84179	1.74754	0	
0.0413	-2.55377	3.56295	0	
0.0420	-4.07067	4.78454	0	
0.0427	-8.04534	2.96913	0	
0.0433	-10.1767	1.74754	0	
0.0440	-7.73812	3.56295	0	
0.0447	-3.76345	3.86835	0	
0.0453	-2.84179	0.52596	0	
0.0460	-4.68511	-2.8334	0	
0.0467	-3.14901	-1.91721	0	
0.0473	-0.403227	1.74754	0	
0.0480	-1.01767	1.74754	0	
0.0487	-1.63211	-2.528	0	
0.0493	1.42089	-3.13879	0	
0.0500	2.64978	-0.0848322	0	
0.0507	-0.0960064	1.74754	0	
0.0513	-0.403227	0.220564	0	
0.0520	1.72812	-0.695624	0	
0.0527	3.24502	1.74754	0	
0.0533	2.64978	3.56295	0	
0.0540	2.34256	0.52596	0	
0.0547	2.957	-2.8334	0	
0.0553	2.64978	-1.91721	0	
0.0560	0.806454	-3.13879	0	
0.0567	1.72812	-6.80354	0	
0.0573	2.64978	-5.88736	0	
0.0580	0.499233	-2.528	0	
0.0587	-1.01767	-1.91721	0	
0.0593	1.42089	-2.2226	0	
0.0600	2.957	-1.30642	0	
0.0607	1.42089	-1.91721	0	
0.0613	-0.0960064	-3.44419	0	
0.0620	-0.0960064	-4.66577	0	
0.0627	-0.403227	-3.44419	0	
0.0633	0.499233	-1.00102	0	
0.0640	3.55224	-1.61181	0	
0.0647	3.24502	-2.8334	0	
0.0653	0.806454	-3.74958	0	
0.0660	2.64978	-6.49815	0	
0.0667	7.21968	-6.49815	0	
0.0673	10.2727	-2.8334	0	
0.0680	11.7896	-2.8334	0	
0.0687	14.8426	-5.58196	0	
0.0693	17.8956	-4.36038	0	
0.0700	18.2028	-0.390228	0	
0.0707	17.5884	-0.0848322	0	
0.0713	16.9931	-3.44419	0	
0.0720	13.9401	-3.74958	0	
0.0727	9.0438	-0.695624	0	
0.0733	9.0438	0.52596	0	
0.0740	9.96546	-3.44419	0	
0.0747	4.16668	-4.66577	0	
0.0753	-1.63211	-2.8334	0	
0.0760	-1.01767	-3.74958	0	
0.0767	-3.76345	-5.88736	0	
0.0773	-10.7911	-6.19275	0	
0.0780	-13.2297	-4.97117	0	
0.0787	-14.7466	-3.44419	0	
0.0793	-19.6429	-1.30642	0	
0.0800	-21.1598	-0.390228	0	
0.0807	-19.0285	0.831356	0	
0.0813	-18.1068	2.66373	0	
0.0820	-16.2827	2.05294	0	
0.0827	-13.8441	-0.390228	0	
0.0833	-15.361	0.52596	0	
0.0840	-18.414	4.17375	0	
0.0847	-18.1068	4.47914	0	
0.0853	-14.7466	1.44215	0	
0.0860	-13.2297	0.831356	0	
0.0867	-12.9225	1.74754	0	
0.0873	-11.0983	0.831356	0	
0.0880	-9.56224	0.831356	0	
0.0887	-9.25502	3.56295	0	
0.0893	-8.9478	3.86835	0	
0.0900	-8.35256	2.66373	0	
0.0907	-7.43089	3.56295	0	
0.0913	-5.29955	4.47914	0	
0.0920	-0.403227	2.66373	0	
0.0927	2.64978	1.74754	0	
0.0933	2.957	1.74754	0	
0.0940	4.78112	1.13675	0	
0.0947	8.73658	-0.0848322	0	
0.0953	10.8871	-0.390228	0	
0.0960	11.7896	-1.61181	0	
0.0967	12.7112	-3.74958	0	
0.0973	16.6859	-5.88736	0	
0.0980	23.0799	-6.80354	0	
0.0987	27.0546	-4.66577	0	
0.0993	25.5377	-1.91721	0	
0.1000	22.1775	-2.528	0	
0.1007	19.4317	-5.88736	0	
0.1013	18.2028	-5.88736	0	
0.1020	16.0715	-3.13879	0	
0.1027	12.7112	-3.74958	0	
0.1033	10.2727	-6.80354	0	
0.1040	8.73658	-5.58196	0	
0.1047	4.4739	-3.74958	0	
0.1053	0.499233	-4.97117	0	
0.1060	1.11367	-6.19275	0	
0.1067	5.70278	-3.13879	0	
0.1073	14.2473	-2.2226	0	
0.1080	22.7919	-5.27656	0	
0.1087	24.3088	-5.58196	0	
0.1093	22.4847	-4.36038	0	
0.1100	22.4847	-4.36038	0	
0.1107	19.1245	-2.8334	0	
0.1113	12.404	-1.00102	0	
0.1120	6.91246	-4.05498	0	
0.1127	1.72812	-4.66577	0	
0.1133	-5.29955	-2.8334	0	
0.1140	-10.7911	-4.36038	0	
0.1147	-15.6682	-5.88736	0	
0.1153	-23.5984	-2.8334	0	
0.1160	-31.5285	-0.695624	0	
0.1167	-36.4248	1.74754	0	
0.1173	-40.3803	6.61691	0	
0.1180	-48.3296	7.22771	0	
0.1187	-58.0839	5.39533	0	
0.1193	-60.5224	7.8385	0	
0.1200	-57.4694	8.44929	0	
0.1207	-55.0309	7.5331	0	
0.1213	-52.2851	9.06008	0	
0.1220	-44.6622	9.67087	0	
0.1227	-34.2743	7.8385	0	
0.1233	-27.573	6.92231	0	
0.1240	-24.2128	6.31152	0	
0.1247	-18.1068	5.70073	0	
0.1253	-10.4839	4.78454	0	
0.1260	-6.50923	2.96913	0	
0.1267	-1.93933	3.56295	0	
0.1273	2.957	6.61691	0	
0.1280	2.957	6.31152	0	
0.1287	2.34256	4.47914	0	
0.1293	6.29802	4.78454	0	
0.1300	10.2727	4.47914	0	
0.1307	16.3787	4.78454	0	
0.1313	26.4402	6.00612	0	
0.1320	27.3618	3.56295	0	
0.1327	20.9486	-0.695624	0	
0.1333	23.6944	-2.2226	0	
0.1340	31.0293	-3.13879	0	
0.1347	33.4678	-4.66577	0	
0.1353	33.775	-6.19275	0	
0.1360	32.5462	-7.71973	0	
0.1367	27.669	-6.49815	0	
0.1373	25.5377	-3.74958	0	
0.1380	21.2558	-3.74958	0	
0.1387	10.2727	-4.66577	0	
0.1393	4.78112	-4.36038	0	
0.1400	5.39556	-4.36038	0	
0.1407	-1.93933	-4.36038	0	
0.1413	-12.0008	-2.8334	0	
0.1420	-12.0008	-2.528	0	
0.1427	-10.1767	-1.00102	0	
0.1433	-12.0008	2.66373	0	
0.1440	-9.56224	3.27452	0	
0.1447	-5.60677	2.05294	0	
0.1453	-7.43089	5.08993	0	
0.1460	-10.4839	8.14389	0	
0.1467	-11.6936	8.14389	0	
0.1473	-11.6936	7.5331	0	
0.1480	-10.1767	6.92231	0	
0.1487	-10.7911	8.75469	0	
0.1493	-14.1513	13.0302	0	
0.1500	-12.9225	13.641	0	
0.1507	-5.60677	10.8925	0	
0.1513	-1.63211	7.8385	0	
0.1520	-1.63211	5.08993	0	
0.1527	-1.63211	5.70073	0	
0.1533	-1.93933	8.75469	0	
0.1540	-0.710447	6.31152	0	
0.1547	3.24502	0.831356	0	
0.1553	3.85946	1.13675	0	
0.1560	2.957	3.56295	0	
0.1567	5.39556	2.35834	0	
0.1573	9.35102	1.44215	0	
0.1580	17.3004	1.44215	0	
0.1587	30.4148	-1.00102	0	
0.1593	38.0377	-2.8334	0	
0.1600	36.5208	-2.8334	0	
0.1607	33.4678	-3.74958	0	
0.1613	33.4678	-4.36038	0	
0.1620	34.6775	-1.61181	0	
0.1627	33.1606	1.44215	0	
0.1633	28.2835	-0.0848322	0	
0.1640	25.5377	-1.91721	0	
0.1647	23.3872	-0.0848322	0	
0.1653	16.9931	0.831356	0	
0.1660	9.35102	-0.695624	0	
0.1667	1.72812	-0.0848322	0	
0.1673	-6.50923	1.13675	0	
0.1680	-12.9225	1.44215	0	
0.1687	-19.9501	3.27452	0	
0.1693	-29.0899	4.47914	0	
0.1700	-34.8887	3.56295	0	
0.1707	-37.6345	3.56295	0	
0.1713	-42.2236	5.08993	0	
0.1720	-41.6092	5.08993	0	
0.1727	-36.4248	3.27452	0	
0.1733	-33.679	2.05294	0	
0.1740	-30.0116	4.17375	0	
0.1747	-22.0815	6.00612	0	
0.1753	-16.5899	2.96913	0	
0.1760	-15.0538	-1.00102	0	
0.1767	-14.1513	-1.30642	0	
0.1773	-12.0008	-0.695624	0	
0.1780	-9.25502	-1.91721	0	
0.1787	-7.73812	-1.00102	0	
0.1793	-4.68511	1.44215	0	
0.1800	0.806454	3.27452	0	
0.1807	2.64978	2.96913	0	
0.1813	1.72812	0.831356	0	
0.1820	4.16668	0.52596	0	
0.1827	6.60524	3.86835	0	
0.1833	5.39556	5.39533	0	
0.1840	6.91246	4.17375	0	
0.1847	9.65824	2.96913	0	
0.1853	10.8871	2.05294	0	
0.1860	17.5884	0.831356	0	
0.1867	28.5907	0.831356	0	
0.1873	36.5208	-0.0848322	0	
0.1880	41.0907	-2.2226	0	
0.1887	40.7835	-3.74958	0	
0.1893	35.5992	-4.97117	0	
0.1900	35.5992	-5.58196	0	
0.1907	36.8281	-5.58196	0	
0.1913	31.0293	-6.49815	0	
0.1920	22.7919	-6.49815	0	
0.1927	17.3004	-6.19275	0	
0.1933	9.96546	-10.1629	0	
0.1940	5.39556	-11.9953	0	
0.1947	2.957	-8.02513	0	
0.1953	-1.93933	-5.58196	0	
0.1960	-8.35256	-7.71973	0	
0.1967	-12.9225	-8.33052	0	
0.1973	-17.1851	-7.10894	0	
0.1980	-20.2381	-7.10894	0	
0.1987	-22.6959	-4.66577	0	
0.1993	-26.6514	-1.00102	0	
0.2000	-27.573	-0.0848322	0	
0.2007	-24.8273	0.52596	0	
0.2013	-25.4417	2.96913	0	
0.2020	-26.6514	4.78454	0	
0.2027	-22.3887	5.39533	0	
0.2033	-13.8441	6.00612	0	
0.2040	-9.25502	5.39533	0	
0.2047	-9.56224	4.17375	0	
0.2053	-8.64058	3.56295	0	
0.2060	-4.68511	0.831356	0	
0.2067	-1.63211	-2.528	0	
0.2073	-1.63211	-2.528	0	
0.2080	-2.84179	-1.00102	0	
0.2087	-3.76345	-1.61181	0	
0.2093	-4.07067	-1.91721	0	
0.2100	-4.37789	-1.61181	0	
0.2107	-3.76345	-1.30642	0	
0.2113	-1.93933	0.220564	0	
0.2120	0.192013	1.44215	0	
0.2127	1.72812	0.831356	0	
0.2133	2.64978	-0.0848322	0	
0.2140	2.64978	-1.30642	0	
0.2147	1.72812	-2.8334	0	
0.2153	1.72812	-1.30642	0	
0.2160	2.03534	-0.0848322	0	
0.2167	1.72812	-2.2226	0	
0.2173	1.11367	-3.74958	0	
0.2180	1.72812	-4.36038	0	
0.2187	4.4739	-4.66577	0	
0.2193	7.21968	-4.66577	0	
0.2200	5.9908	-4.97117	0	
0.2207	5.08834	-4.97117	0	
0.2213	7.21968	-3.74958	0	
0.2220	7.83412	-4.97117	0	
0.2227	8.14134	-7.10894	0	
0.2233	12.0968	-6.49815	0	
0.2240	14.5354	-6.80354	0	
0.2247	12.404	-9.24671	0	
0.2253	12.7112	-8.02513	0	
0.2260	16.3787	-6.49815	0	
0.2267	16.3787	-7.10894	0	
0.2273	12.7112	-4.66577	0	
0.2280	8.44856	-1.61181	0	
0.2287	5.9908	-1.91721	0	
0.2293	3.85946	-3.74958	0	
0.2300	1.72812	-5.27656	0	
0.2307	-0.0960064	-6.80354	0	
0.2313	-2.55377	-4.66577	0	
0.2320	-5.60677	-2.2226	0	
0.2327	-8.35256	-2.8334	0	
0.2333	-11.0983	-2.8334	0	
0.2340	-16.5899	-1.61181	0	
0.2347	-22.0815	-2.2226	0	
0.2353	-22.6959	-2.8334	0	
0.2360	-19.9501	-3.74958	0	
0.2367	-16.5899	-4.66577	0	
0.2373	-12.0008	-3.44419	0	
0.2380	-8.35256	-1.61181	0	
0.2387	-6.50923	-1.61181	0	
0.2393	-3.45623	-0.695624	0	
0.2400	-0.0960064	-1.30642	0	
0.2407	1.72812	-5.58196	0	
0.2413	2.03534	-7.10894	0	
0.2420	2.957	-4.36038	0	
0.2427	4.4739	-2.8334	0	
0.2433	4.4739	-2.2226	0	
0.2440	3.55224	-1.91721	0	
0.2447	2.34256	-3.74958	0	
0.2453	1.72812	-3.74958	0	
0.2460	2.03534	-1.91721	0	
0.2467	2.957	-3.74958	0	
0.2473	3.24502	-4.97117	0	
0.2480	2.957	-1.91721	0	
0.2487	2.64978	-1.91721	0	
0.2493	-0.403227	-4.97117	0	
0.2500	-3.76345	-4.66577	0	
0.2507	-2.84179	-2.8334	0	
0.2513	1.42089	-2.528	0	
0.2520	3.55224	-3.13879	0	
0.2527	3.55224	-4.66577	0	
0.2533	3.24502	-5.27656	0	
0.2540	2.64978	-3.13879	0	
0.2547	-0.0960064	-2.8334	0	
0.2553	-1.01767	-4.97117	0	
0.2560	2.64978	-4.66577	0	
0.2567	4.78112	-3.13879	0	
0.2573	2.34256	-4.05498	0	
0.2580	1.11367	-4.36038	0	
0.2587	5.39556	-0.695624	0	
0.2593	8.14134	1.13675	0	
0.2600	5.08834	-1.91721	0	
0.2607	1.11367	-3.74958	0	
0.2613	-0.710447	-3.74958	0	
0.2620	-1.63211	-4.36038	0	
0.2627	-1.93933	-2.8334	0	
0.2633	-1.01767	1.13675	0	
0.2640	-1.01767	2.05294	0	
0.2647	0.192013	-0.390228	0	
0.2653	2.64978	-1.00102	0	
0.2660	2.64978	0.52596	0	
0.2667	1.42089	2.66373	0	
0.2673	2.34256	3.27452	0	
0.2680	1.72812	2.66373	0	
0.2687	-1.93933	3.56295	0	
0.2693	-4.68511	4.47914	0	
0.2700	-7.43089	1.74754	0	
0.2707	-12.0008	-1.00102	0	
0.2713	-13.8441	0.52596	0	
0.2720	-10.7911	1.74754	0	
0.2727	-6.50923	1.13675	0	
0.2733	-5.89479	1.74754	0	
0.2740	-8.35256	1.13675	0	
0.2747	-8.35256	-0.0848322	0	
0.2753	-5.60677	2.05294	0	
0.2760	-4.07067	4.47914	0	
0.2767	-4.99233	2.35834	0	
0.2773	-6.81645	0.831356	0	
0.2780	-8.04534	2.66373	0	
0.2787	-5.29955	2.96913	0	
0.2793	-1.63211	1.74754	0	
0.2800	-0.403227	1.74754	0	
0.2807	2.64978	2.05294	0	
0.2813	6.29802	2.05294	0	
0.2820	3.24502	2.35834	0	
0.2827	0.499233	3.56295	0	
0.2833	4.4739	5.08993	0	
0.2840	6.60524	4.47914	0	
0.2847	3.55224	2.66373	0	
0.2853	2.64978	2.66373	0	
0.2860	2.957	3.56295	0	
0.2867	2.03534	2.05294	0	
0.2873	1.42089	3.56295	0	
0.2880	1.11367	7.8385	0	
0.2887	-0.403227	7.8385	0	
0.2893	-1.93933	4.78454	0	
0.2900	-2.84179	3.56295	0	
0.2907	-1.93933	2.66373	0	
0.2913	-1.01767	1.74754	0	
0.2920	-1.63211	1.74754	0	
0.2927	-1.63211	0.220564	0	
0.2933	1.42089	0.52596	0	
0.2940	1.72812	4.47914	0	
0.2947	-1.93933	3.86835	0	
0.2953	-1.32489	-0.390228	0	
0.2960	2.03534	1.13675	0	
0.2967	0.806454	5.39533	0	
0.2973	-0.0960064	5.70073	0	
0.2980	3.24502	5.08993	0	
0.2987	5.39556	5.70073	0	
0.2993	4.4739	5.70073	0	
0.3000	5.08834	5.08993	0	
0.3007	5.08834	3.27452	0	
0.3013	3.55224	2.66373	0	
0.3020	4.78112	4.47914	0	
0.3027	4.78112	2.96913	0	
0.3033	3.24502	0.52596	0	
0.3040	5.39556	2.96913	0	
0.3047	6.91246	5.39533	0	
0.3053	4.16668	4.47914	0	
0.3060	4.4739	3.56295	0	
0.3067	9.0438	2.35834	0	
0.3073	9.35102	0.220564	0	
0.3080	7.83412	2.35834	0	
0.3087	7.83412	3.56295	0	
0.3093	9.0438	-0.0848322	0	
0.3100	10.8871	-2.2226	0	
0.3107	9.35102	-2.2226	0	
0.3113	4.78112	-3.44419	0	
0.3120	5.08834	-1.61181	0	
0.3127	8.14134	1.13675	0	
0.3133	4.4739	-0.0848322	0	
0.3140	-1.93933	-1.91721	0	
0.3147	-2.84179	-0.695624	0	
0.3153	-0.403227	0.220564	0	
0.3160	-1.01767	0.831356	0	
0.3167	-5.60677	2.35834	0	
0.3173	-11.0983	3.27452	0	
0.3180	-13.8441	3.56295	0	
0.3187	-15.9755	3.86835	0	
0.3193	-20.2381	3.56295	0	
0.3200	-22.3887	2.05294	0	
0.3207	-21.467	2.35834	0	
0.3213	-19.3357	4.78454	0	
0.3220	-16.5899	4.78454	0	
0.3227	-13.8441	2.05294	0	
0.3233	-12.6152	4.47914	0	
0.3240	-9.56224	9.06008	0	
0.3247	-5.89479	6.31152	0	
0.3253	-5.60677	3.56295	0	
0.3260	-3.76345	6.61691	0	
0.3267	0.806454	6.31152	0	
0.3273	3.24502	0.831356	0	
0.3280	1.42089	-0.695624	0	
0.3287	0.192013	0.52596	0	
0.3293	2.34256	-0.695624	0	
0.3300	4.4739	-0.695624	0	
0.3307	4.4739	2.05294	0	
0.3313	3.85946	2.35834	0	
0.3320	7.83412	-0.695624	0	
0.3327	12.7112	-3.74958	0	
0.3333	12.404	-5.27656	0	
0.3340	9.35102	-5.27656	0	
0.3347	7.5269	-2.8334	0	
0.3353	5.39556	-0.390228	0	
0.3360	2.64978	-1.00102	0	
0.3367	2.34256	-1.91721	0	
0.3373	2.64978	-1.91721	0	
0.3380	4.16668	-1.00102	0	
0.3387	5.39556	-2.2226	0	
0.3393	2.957	-4.66577	0	
0.3400	-0.0960064	-4.36038	0	
0.3407	0.192013	-1.91721	0	
0.3413	-1.63211	-2.8334	0	
0.3420	-5.89479	-4.66577	0	
0.3427	-6.50923	-3.74958	0	
0.3433	-5.60677	-2.2226	0	
0.3440	-9.25502	-1.30642	0	
0.3447	-10.7911	0.52596	0	
0.3453	-6.81645	0.52596	0	
0.3460	-4.37789	-0.0848322	0	
0.3467	-5.29955	1.74754	0	
0.3473	-5.89479	3.27452	0	
0.3480	-4.68511	0.220564	0	
0.3487	-2.84179	-1.61181	0	
0.3493	-1.93933	0.220564	0	
0.3500	-3.76345	1.74754	0	
0.3507	-3.76345	-0.0848322	0	
0.3513	-0.0960064	-1.91721	0	
0.3520	-0.403227	-1.61181	0	
0.3527	-3.14901	-1.91721	0	
0.3533	-3.76345	-3.74958	0	
0.3540	-3.76345	-2.8334	0	
0.3547	-4.07067	-0.390228	0	
0.3553	-0.710447	0.220564	0	
0.3560	-0.0960064	-1.00102	0	
0.3567	-3.76345	-0.390228	0	
0.3573	-1.93933	0.52596	0	
0.3580	2.03534	-0.390228	0	
0.3587	-0.710447	-1.30642	0	
0.3593	-2.84179	0.220564	0	
0.3600	-0.0960064	1.74754	0	
0.3607	0.806454	0.52596	0	
0.3613	1.72812	-0.390228	0	
0.3620	5.39556	-1.30642	0	
0.3627	7.21968	-2.8334	0	
0.3633	5.70278	-2.2226	0	
0.3640	5.39556	-0.695624	0	
0.3647	5.39556	-3.44419	0	
0.3653	4.16668	-6.19275	0	
0.3660	4.4739	-3.74958	0	
0.3667	7.21968	-0.390228	0	
0.3673	7.5269	-2.528	0	
0.3680	4.4739	-3.74958	0	
0.3687	3.24502	-1.91721	0	
0.3693	4.16668	-1.91721	0	
0.3700	4.78112	-3.13879	0	
0.3707	6.91246	-1.00102	0	
0.3713	9.65824	0.831356	0	
0.3720	8.73658	-0.390228	0	
0.3727	6.29802	-1.61181	0	
0.3733	5.39556	-0.390228	0	
0.3740	2.03534	0.220564	0	
0.3747	-4.07067	0.220564	0	
0.3753	-7.43089	-0.0848322	0	
0.3760	-9.25502	-1.30642	0	
0.3767	-12.0008	-1.61181	0	
0.3773	-15.361	0.831356	0	
0.3780	-15.6682	1.74754	0	
0.3787	-13.2297	-0.0848322	0	
0.3793	-13.8441	0.52596	0	
0.3800	-16.8971	4.47914	0	
0.3807	-15.6682	5.70073	0	
0.3813	-13.8441	3.27452	0	
0.3820	-15.6682	1.74754	0	
0.3827	-14.1513	3.27452	0	
0.3833	-9.25502	4.78454	0	
0.3840	-8.64058	5.39533	0	
0.3847	-10.4839	5.39533	0	
0.3853	-10.7911	5.08993	0	
0.3860	-11.6936	5.39533	0	
0.3867	-9.86946	5.39533	0	
0.3873	-6.50923	4.47914	0	
0.3880	-8.35256	4.47914	0	
0.3887	-9.56224	4.47914	0	
0.3893	-4.99233	3.56295	0	
0.3900	-1.93933	3.27452	0	
0.3907	-1.63211	4.78454	0	
0.3913	3.55224	3.86835	0	
0.3920	9.96546	-0.0848322	0	
0.3927	12.0968	-3.13879	0	
0.3933	13.6329	-3.74958	0	
0.3940	12.7112	-2.8334	0	
0.3947	10.2727	-2.8334	0	
0.3953	13.6329	-4.97117	0	
0.3960	20.9486	-5.88736	0	
0.3967	21.8703	-5.27656	0	
0.3973	19.1245	-6.80354	0	
0.3980	18.51	-7.41434	0	
0.3987	17.3004	-4.36038	0	
0.3993	13.6329	-3.74958	0	
0.4000	10.5799	-5.88736	0	
0.4007	7.21968	-4.66577	0	
0.4013	3.24502	-2.8334	0	
0.4020	1.11367	-3.13879	0	
0.4027	0.499233	-3.74958	0	
0.4033	-1.93933	-1.91721	0	
0.4040	-3.76345	0.831356	0	
0.4047	-2.84179	1.44215	0	
0.4053	-2.24655	-0.695624	0	
0.4060	-4.99233	-1.00102	0	
0.4067	-5.60677	0.831356	0	
0.4073	-2.84179	1.13675	0	
0.4080	-2.55377	0.831356	0	
0.4087	-3.14901	1.44215	0	
0.4093	-2.55377	0.831356	0	
0.4100	-3.76345	-0.0848322	0	
0.4107	-7.12367	1.74754	0	
0.4113	-8.35256	2.66373	0	
0.4120	-9.25502	1.74754	0	
0.4127	-10.1767	0.220564	0	
0.4133	-9.25502	-1.30642	0	
0.4140	-7.12367	-1.61181	0	
0.4147	-6.81645	0.220564	0	
0.4153	-8.04534	0.831356	0	
0.4160	-8.35256	0.52596	0	
0.4167	-7.43089	1.74754	0	
0.4173	-6.20201	1.74754	0	
0.4180	-5.89479	-0.0848322	0	
0.4187	-5.60677	-0.695624	0	
0.4193	-4.99233	-1.91721	0	
0.4200	-4.68511	-4.66577	0	
0.4207	-4.07067	-3.74958	0	
0.4213	-2.84179	-1.91721	0	
0.4220	-1.01767	-3.74958	0	
0.4227	0.499233	-5.58196	0	
0.4233	1.11367	-3.74958	0	
0.4240	2.64978	-1.91721	0	
0.4247	4.16668	-1.91721	0	
0.4253	3.55224	-2.2226	0	
0.4260	3.55224	-2.8334	0	
0.4267	5.08834	-2.8334	0	
0.4273	2.957	-1.30642	0	
0.4280	0.806454	-0.0848322	0	
0.4287	3.85946	-0.695624	0	
0.4293	6.29802	-2.8334	0	
0.4300	4.78112	-4.36038	0	
0.4307	5.39556	-4.05498	0	
0.4313	6.91246	-2.8334	0	
0.4320	4.78112	-2.2226	0	
0.4327	3.55224	-2.8334	0	
0.4333	4.4739	-4.05498	0	
0.4340	3.55224	-4.36038	0	
0.4347	2.64978	-3.44419	0	
0.4353	3.55224	-3.44419	0	
0.4360	4.78112	-4.05498	0	
0.4367	7.21968	-3.74958	0	
0.4373	9.0438	-3.74958	0	
0.4380	8.14134	-5.58196	0	
0.4387	7.5269	-4.66577	0	
0.4393	10.2727	-2.8334	0	
0.4400	14.2473	-3.13879	0	
0.4407	15.7642	-4.66577	0	
0.4413	14.8426	-4.66577	0	
0.4420	13.6329	-4.97117	0	
0.4427	12.7112	-6.19275	0	
0.4433	9.35102	-6.49815	0	
0.4440	3.55224	-4.66577	0	
0.4447	-0.403227	-3.74958	0	
0.4453	-2.84179	-5.27656	0	
0.4460	-5.29955	-4.66577	0	
0.4467	-6.50923	-2.528	0	
0.4473	-8.35256	-3.13879	0	
0.4480	-10.4839	-3.13879	0	
0.4487	-8.9478	1.13675	0	
0.4493	-7.12367	4.47914	0	
0.4500	-9.25502	4.78454	0	
0.4507	-9.56224	4.47914	0	
0.4513	-7.43089	3.27452	0	
0.4520	-10.1767	3.86835	0	
0.4527	-11.6936	6.31152	0	
0.4533	-5.60677	3.86835	0	
0.4540	-3.76345	0.52596	0	
0.4547	-6.50923	3.27452	0	
0.4553	-2.84179	4.47914	0	
0.4560	3.55224	2.66373	0	
0.4567	9.96546	3.56295	0	
0.4573	16.9931	1.74754	0	
0.4580	16.3787	-2.8334	0	
0.4587	8.44856	-0.390228	0	
0.4593	5.70278	3.56295	0	
0.4600	6.29802	0.220564	0	
0.4607	2.64978	-1.00102	0	
0.4613	-1.93933	4.17375	0	
0.4620	-3.76345	5.39533	0	
0.4627	-7.12367	3.56295	0	
0.4633	-10.7911	3.27452	0	
0.4640	-12.9225	2.35834	0	
0.4647	-13.8441	1.74754	0	
0.4653	-13.2297	2.05294	0	
0.4660	-11.0983	-0.0848322	0	
0.4667	-8.35256	-1.91721	0	
0.4673	-6.50923	0.52596	0	
0.4680	-2.84179	1.44215	0	
0.4687	0.192013	0.52596	0	
0.4693	1.11367	2.35834	0	
0.4700	2.957	2.66373	0	
0.4707	6.60524	-1.61181	0	
0.4713	8.73658	-2.8334	0	
0.4720	9.35102	-1.00102	0	
0.4727	9.96546	-1.00102	0	
0.4733	8.14134	-2.8334	0	
0.4740	7.83412	-3.44419	0	
0.4747	12.404	-2.528	0	
0.4753	12.7112	-0.695624	0	
0.4760	6.60524	-0.390228	0	
0.4767	4.4739	-0.695624	0	
0.4773	6.91246	-0.0848322	0	
0.4780	6.29802	-1.91721	0	
0.4787	3.55224	-2.2226	0	
0.4793	2.03534	3.56295	0	
0.4800	0.806454	6.00612	0	
0.4807	0.192013	1.74754	0	
0.4813	-1.01767	1.74754	0	
0.4820	-3.76345	5.39533	0	
0.4827	-5.89479	3.86835	0	
0.4833	-8.04534	0.831356	0	
0.4840	-10.1767	1.74754	0	
0.4847	-10.7911	2.66373	0	
0.4853	-10.7911	2.66373	0	
0.4860	-10.1767	1.13675	0	
0.4867	-8.64058	-1.61181	0	
0.4873	-8.35256	-1.61181	0	
0.4880	-9.86946	-0.0848322	0	
0.4887	-9.56224	-1.00102	0	
0.4893	-7.43089	-2.528	0	
0.4900	-6.50923	-2.2226	0	
0.4907	-3.76345	-1.91721	0	
0.4913	-1.01767	-1.91721	0	
0.4920	-3.76345	-1.61181	0	
0.4927	-4.68511	-2.8334	0	
0.4933	0.806454	-3.74958	0	
0.4940	2.34256	-3.74958	0	
0.4947	1.42089	-4.66577	0	
0.4953	4.4739	-4.36038	0	
0.4960	5.39556	-2.8334	0	
0.4967	2.64978	-2.8334	0	
0.4973	5.70278	-3.13879	0	
0.4980	9.0438	-3.44419	0	
0.4987	4.78112	-3.74958	0	
0.4993	3.55224	-3.44419	0	
0.5000	7.21968	-1.91721	0	
0.5007	6.91246	-1.91721	0	
0.5013	3.85946	-2.528	0	
0.5020	2.64978	-3.13879	0	
0.5027	2.34256	-3.13879	0	
0.5033	2.34256	-1.61181	0	
0.5040	0.806454	-1.61181	0	
0.5047	-3.76345	-2.2226	0	
0.5053	-4.68511	-0.390228	0	
0.5060	-2.84179	-0.390228	0	
0.5067	-4.07067	-3.44419	0	
0.5073	-4.99233	-1.91721	0	
0.5080	-1.93933	2.35834	0	
0.5087	1.72812	1.13675	0	
0.5093	7.5269	-1.91721	0	
0.5100	13.6329	-1.00102	0	
0.5107	12.7112	0.831356	0	
0.5113	10.2727	1.74754	0	
0.5120	10.8871	0.52596	0	
0.5127	8.14134	-1.91721	0	
0.5133	2.64978	-1.00102	0	
0.5140	1.42089	1.74754	0	
0.5147	-1.93933	0.831356	0	
0.5153	-7.43089	0.220564	0	
0.5160	-8.64058	2.96913	0	
0.5167	-9.86946	3.56295	0	
0.5173	-14.7466	1.74754	0	
0.5180	-16.2827	2.96913	0	
0.5187	-14.1513	4.78454	0	
0.5193	-15.361	3.86835	0	
0.5200	-15.6682	2.96913	0	
0.5207	-13.8441	3.56295	0	
0.5213	-12.9225	2.35834	0	
0.5220	-11.3864	0.220564	0	
0.5227	-9.86946	0.831356	0	
0.5233	-11.0983	2.05294	0	
0.5240	-11.0983	1.13675	0	
0.5247	-8.35256	0.831356	0	
0.5253	-8.04534	3.56295	0	
0.5260	-9.56224	5.39533	0	
0.5267	-10.1767	4.47914	0	
0.5273	-9.56224	4.78454	0	
0.5280	-9.25502	4.78454	0	
0.5287	-7.12367	2.66373	0	
0.5293	-2.84179	2.05294	0	
0.5300	0.499233	4.47914	0	
0.5307	2.03534	5.39533	0	
0.5313	1.72812	3.56295	0	
0.5320	1.72812	2.05294	0	
0.5327	2.64978	0.220564	0	
0.5333	2.64978	-1.30642	0	
0.5340	0.806454	-1.61181	0	
0.5347	1.72812	-1.30642	0	
0.5353	3.55224	-2.8334	0	
0.5360	2.03534	-3.74958	0	
0.5367	-0.0960064	-1.91721	0	
0.5373	2.34256	-0.0848322	0	
0.5380	3.55224	-2.528	0	
0.5387	2.03534	-4.66577	0	
0.5393	3.55224	-2.8334	0	
0.5400	8.73658	-1.91721	0	
0.5407	10.8871	-3.74958	0	
0.5413	12.7112	-4.36038	0	
0.5420	14.8426	-3.74958	0	
0.5427	15.457	-2.2226	0	
0.5433	15.1498	-0.0848322	0	
0.5440	15.7642	0.220564	0	
0.5447	16.0715	-1.91721	0	
0.5453	15.7642	-3.13879	0	
0.5460	13.6329	-2.2226	0	
0.5467	9.65824	-0.695624	0	
0.5473	6.91246	-0.0848322	0	
0.5480	5.70278	-1.00102	0	
0.5487	2.957	-1.91721	0	
0.5493	-1.63211	-1.91721	0	
0.5500	-5.60677	-0.390228	0	
0.5507	-8.35256	2.66373	0	
0.5513	-8.04534	3.86835	0	
0.5520	-1.01767	0.220564	0	
0.5527	5.9908	-4.05498	0	
0.5533	7.5269	-5.58196	0	
0.5540	8.14134	-4.66577	0	
0.5547	8.14134	-3.44419	0	
0.5553	5.70278	-3.74958	0	
0.5560	3.55224	-5.58196	0	
0.5567	2.957	-4.97117	0	
0.5573	1.11367	-3.13879	0	
0.5580	-0.0960064	-1.91721	0	
0.5587	-1.01767	-1.61181	0	
0.5593	-6.20201	-1.61181	0	
0.5600	-11.0983	-1.91721	0	
0.5607	-12.9225	-0.0848322	0	
0.5613	-15.361	2.96913	0	
0.5620	-16.5899	3.86835	0	
0.5627	-15.9755	4.78454	0	
0.5633	-16.2827	6.00612	0	
0.5640	-15.6682	3.86835	0	
0.5647	-13.8441	1.44215	0	
0.5653	-13.5369	1.74754	0	
0.5660	-12.9225	3.27452	0	
0.5667	-7.73812	2.96913	0	
0.5673	-1.93933	0.831356	0	
0.5680	-0.403227	-0.390228	0	
0.5687	-2.24655	1.74754	0	
0.5693	-1.63211	2.96913	0	
0.5700	0.806454	0.831356	0	
0.5707	-0.403227	-0.0848322	0	
0.5713	-3.45623	0.831356	0	
0.5720	-1.32489	-1.30642	0	
0.5727	3.55224	-1.91721	0	
0.5733	5.9908	-1.00102	0	
0.5740	5.70278	-3.44419	0	
0.5747	5.70278	-4.97117	0	
0.5753	6.29802	-1.91721	0	
0.5760	5.39556	-0.390228	0	
0.5767	2.64978	-1.91721	0	
0.5773	-0.0960064	-2.8334	0	
0.5780	-1.63211	-3.74958	0	
0.5787	-2.24655	-3.74958	0	
0.5793	-0.710447	-1.30642	0	
0.5800	2.03534	-0.0848322	0	
0.5807	1.72812	-1.30642	0	
0.5813	-0.403227	-1.00102	0	
0.5820	-0.0960064	-0.0848322	0	
0.5827	0.192013	0.831356	0	
0.5833	-0.0960064	2.66373	0	
0.5840	-0.710447	3.27452	0	
0.5847	-2.55377	2.66373	0	
0.5853	-3.76345	3.56295	0	
0.5860	-1.63211	3.27452	0	
0.5867	-0.0960064	0.831356	0	
0.5873	-2.55377	1.74754	0	
0.5880	-2.55377	2.66373	0	
0.5887	0.806454	-0.0848322	0	
0.5893	1.42089	-1.30642	0	
0.5900	-0.403227	-0.390228	0	
0.5907	-1.93933	-0.695624	0	
0.5913	-2.84179	-1.30642	0	
0.5920	0.499233	-1.91721	0	
0.5927	6.29802	-1.30642	0	
0.5933	7.21968	-0.0848322	0	
0.5940	6.29802	-0.0848322	0	
0.5947	8.73658	-1.00102	0	
0.5953	9.0438	-0.0848322	0	
0.5960	7.83412	-0.0848322	0	
0.5967	8.14134	-1.00102	0	
0.5973	8.14134	-0.0848322	0	
0.5980	4.78112	0.220564	0	
0.5987	3.85946	-0.390228	0	
0.5993	6.29802	0.220564	0	
0.6000	7.5269	0.220564	0	
0.6007	6.29802	-1.00102	0	
0.6013	6.91246	-0.0848322	0	
0.6020	8.14134	2.35834	0	
0.6027	6.91246	1.13675	0	
0.6033	5.39556	-1.61181	0	
0.6040	5.9908	-0.0848322	0	
0.6047	4.78112	3.56295	0	
0.6053	0.192013	3.56295	0	
0.6060	-3.45623	1.74754	0	
0.6067	-3.76345	1.44215	0	
0.6073	-4.68511	1.13675	0	
0.6080	-8.9478	0.52596	0	
0.6087	-13.8441	2.05294	0	
0.6093	-14.7466	4.17375	0	
0.6100	-13.8441	4.47914	0	
0.6107	-12.9225	4.17375	0	
0.6113	-10.7911	2.66373	0	
0.6120	-9.25502	0.220564	0	
0.6127	-12.308	0.220564	0	
0.6133	-12.9225	1.44215	0	
0.6140	-8.04534	1.13675	0	
0.6147	-6.50923	0.220564	0	
0.6153	-7.43089	-0.390228	0	
0.6160	-3.14901	-1.61181	0	
0.6167	1.42089	-1.61181	0	
0.6173	2.03534	-1.61181	0	
0.6180	3.55224	-3.13879	0	
0.6187	5.39556	-3.13879	0	
0.6193	3.24502	-0.390228	0	
0.6200	1.72812	-0.0848322	0	
0.6207	3.24502	-1.91721	0	
0.6213	3.55224	0.52596	0	
0.6220	1.42089	3.27452	0	
0.6227	-0.0960064	1.74754	0	
0.6233	0.499233	0.220564	0	
0.6240	0.806454	2.05294	0	
0.6247	-0.0960064	2.05294	0	
0.6253	-0.0960064	-0.695624	0	
0.6260	2.03534	-1.91721	0	
0.6267	6.29802	-0.695624	0	
0.6273	12.404	0.52596	0	
0.6280	18.51	0.52596	0	
0.6287	20.9486	-1.00102	0	
0.6293	20.3342	-1.30642	0	
0.6300	20.0461	-1.61181	0	
0.6307	19.1245	-3.74958	0	
0.6313	15.457	-3.74958	0	
0.6320	10.8871	-0.390228	0	
0.6327	7.21968	0.52596	0	
0.6333	2.34256	-2.2226	0	
0.6340	-2.24655	-2.8334	0	
0.6347	-3.76345	-1.91721	0	
0.6353	-4.68511	-1.00102	0	
0.6360	-9.25502	-0.0848322	0	
0.6367	-14.7466	-0.390228	0	
0.6373	-16.2827	-1.30642	0	
0.6380	-15.6682	-1.91721	0	
0.6387	-16.2827	-1.00102	0	
0.6393	-18.1068	-0.390228	0	
0.6400	-16.5899	-1.61181	0	
0.6407	-14.1513	-0.0848322	0	
0.6413	-13.2297	2.66373	0	
0.6420	-10.7911	0.220564	0	
0.6427	-4.68511	-3.44419	0	
0.6433	-0.403227	0.831356	0	
0.6440	-0.710447	6.31152	0	
0.6447	-2.84179	4.47914	0	
0.6453	-3.45623	1.44215	0	
0.6460	-2.24655	2.66373	0	
0.6467	-4.07067	3.86835	0	
0.6473	-9.25502	4.78454	0	
0.6480	-9.56224	5.08993	0	
0.6487	-6.20201	2.66373	0	
0.6493	-7.73812	-0.390228	0	
0.6500	-11.3864	0.831356	0	
0.6507	-11.0983	3.27452	0	
0.6513	-10.1767	1.13675	0	
0.6520	-9.25502	-2.8334	0	
0.6527	-6.50923	-3.44419	0	
0.6533	-3.14901	-1.00102	0	
0.6540	-0.710447	-0.695624	0	
0.6547	2.64978	-1.61181	0	
0.6553	5.39556	-2.2226	0	
0.6560	8.14134	-2.8334	0	
0.6567	9.35102	-1.91721	0	
0.6573	6.29802	0.220564	0	
0.6580	4.4739	0.831356	0	
0.6587	8.14134	0.831356	0	
0.6593	9.65824	2.35834	0	
0.6600	5.39556	1.74754	0	
0.6607	4.16668	-0.390228	0	
0.6613	5.39556	1.74754	0	
0.6620	5.70278	2.66373	0	
0.6627	6.91246	-0.0848322	0	
0.6633	6.60524	-0.390228	0	
0.6640	3.55224	1.74754	0	
0.6647	1.42089	1.74754	0	
0.6653	1.72812	1.74754	0	
0.6660	2.64978	1.74754	0	
0.6667	2.64978	-0.390228	0	
0.6673	1.42089	-2.528	0	
0.6680	1.72812	-3.74958	0	
0.6687	3.24502	-4.36038	0	
0.6693	0.806454	-3.44419	0	
0.6700	-1.93933	-2.2226	0	
0.6707	0.499233	-4.05498	0	
0.6713	3.55224	-6.19275	0	
0.6720	4.78112	-5.58196	0	
0.6727	4.78112	-3.13879	0	
0.6733	4.16668	0.220564	0	
0.6740	4.16668	0.831356	0	
0.6747	4.78112	-1.30642	0	
0.6753	2.64978	-1.91721	0	
0.6760	-0.0960064	-1.00102	0	
0.6767	-1.01767	-1.00102	0	
0.6773	0.806454	-0.390228	0	
0.6780	6.91246	-0.390228	0	
0.6787	12.404	-2.528	0	
0.6793	14.8426	-2.8334	0	
0.6800	18.51	-3.44419	0	
0.6807	22.4847	-5.58196	0	
0.6813	21.8703	-5.27656	0	
0.6820	20.6414	-1.30642	0	
0.6827	20.0461	0.831356	0	
0.6833	13.6329	0.52596	0	
0.6840	3.55224	-0.0848322	0	
0.6847	-1.93933	0.220564	0	
0.6853	-3.76345	1.44215	0	
0.6860	-4.99233	0.52596	0	
0.6867	-9.25502	-1.00102	0	
0.6873	-17.1851	0.831356	0	
0.6880	-22.6959	2.66373	0	
0.6887	-24.8273	0.831356	0	
0.6893	-29.0899	1.13675	0	
0.6900	-30.3188	5.39533	0	
0.6907	-27.573	5.08993	0	
0.6913	-27.8803	1.13675	0	
0.6920	-26.9586	1.44215	0	
0.6927	-21.1598	2.96913	0	
0.6933	-20.5454	0.831356	0	
0.6940	-24.8273	-1.00102	0	
0.6947	-21.1598	-0.390228	0	
0.6953	-12.308	-1.00102	0	
0.6960	-7.12367	-1.91721	0	
0.6967	-7.43089	-1.61181	0	
0.6973	-9.25502	-2.8334	0	
0.6980	-7.73812	-4.05498	0	
0.6987	-3.76345	-1.00102	0	
0.6993	-1.93933	1.74754	0	
0.7000	0.499233	-0.695624	0	
0.7007	2.64978	-1.61181	0	
0.7013	1.72812	1.44215	0	
0.7020	3.24502	1.74754	0	
0.7027	10.5799	0.831356	0	
0.7033	16.6859	1.44215	0	
0.7040	21.2558	-0.390228	0	
0.7047	22.7919	-2.8334	0	
0.7053	17.5884	-1.91721	0	
0.7060	13.6329	-1.30642	0	
0.7067	13.0185	-1.00102	0	
0.7073	9.0438	0.831356	0	
0.7080	5.08834	0.220564	0	
0.7087	4.4739	-2.8334	0	
0.7093	2.64978	-3.74958	0	
0.7100	-0.710447	-1.91721	0	
0.7107	-1.93933	-1.91721	0	
0.7113	-3.76345	-1.91721	0	
0.7120	-5.60677	-0.695624	0	
0.7127	-4.68511	1.44215	0	
0.7133	-2.55377	2.05294	0	
0.7140	0.192013	-0.0848322	0	
0.7147	-0.403227	-2.2226	0	
0.7153	-3.76345	-1.61181	0	
0.7160	-4.68511	0.220564	0	
0.7167	-3.76345	-0.0848322	0	
0.7173	-3.76345	-1.61181	0	
0.7180	-1.93933	-0.695624	0	
0.7187	-2.84179	2.05294	0	
0.7193	-4.37789	2.66373	0	
0.7200	-1.01767	0.220564	0	
0.7207	2.34256	-1.91721	0	
0.7213	1.72812	-1.00102	0	
0.7220	2.64978	0.220564	0	
0.7227	3.55224	0.831356	0	
0.7233	1.11367	2.66373	0	
0.7240	1.42089	3.56295	0	
0.7247	2.64978	0.220564	0	
0.7253	1.42089	-2.2226	0	
0.7260	1.72812	-0.0848322	0	
0.7267	3.55224	1.74754	0	
0.7273	5.39556	1.13675	0	
0.7280	7.5269	1.74754	0	
0.7287	8.73658	3.27452	0	
0.7293	8.14134	2.66373	0	
0.7300	6.60524	1.44215	0	
0.7307	4.4739	0.831356	0	
0.7313	4.4739	-0.0848322	0	
0.7320	4.4739	-0.390228	0	
0.7327	-1.01767	-0.0848322	0	
0.7333	-4.37789	-1.91721	0	
0.7340	0.806454	-3.74958	0	
0.7347	3.55224	-3.13879	0	
0.7353	2.64978	-1.00102	0	
0.7360	6.91246	-1.61181	0	
0.7367	12.0968	-2.8334	0	
0.7373	13.6329	-3.13879	0	
0.7380	17.3004	-4.97117	0	
0.7387	19.1245	-6.49815	0	
0.7393	14.5354	-3.13879	0	
0.7400	12.404	-0.0848322	0	
0.7407	15.457	-1.91721	0	
0.7413	13.9401	-3.13879	0	
0.7420	8.14134	-1.30642	0	
0.7427	5.39556	-1.00102	0	
0.7433	4.4739	-2.528	0	
0.7440	0.499233	-2.8334	0	
0.7447	-6.50923	-1.91721	0	
0.7453	-11.6936	-1.30642	0	
0.7460	-13.8441	-0.0848322	0	
0.7467	-17.4924	1.44215	0	
0.7473	-22.6959	3.56295	0	
0.7480	-26.3442	4.47914	0	
0.7487	-28.4947	2.66373	0	
0.7493	-30.9333	0.831356	0	
0.7500	-30.0116	2.05294	0	
0.7507	-26.0369	2.05294	0	
0.7513	-24.2128	-0.695624	0	
0.7520	-23.5984	-1.91721	0	
0.7527	-19.6429	-1.00102	0	
0.7533	-15.361	-1.30642	0	
0.7540	-13.2297	-2.2226	0	
0.7547	-9.86946	-1.30642	0	
0.7553	-4.68511	-1.61181	0	
0.7560	-2.84179	-1.91721	0	
0.7567	-1.93933	0.831356	0	
0.7573	1.72812	1.74754	0	
0.7580	4.16668	-1.00102	0	
0.7587	3.85946	-1.00102	0	
0.7593	5.39556	0.831356	0	
0.7600	6.60524	-0.390228	0	
0.7607	5.08834	-1.91721	0	
0.7613	5.70278	-1.61181	0	
0.7620	8.14134	-1.00102	0	
0.7627	6.29802	-0.695624	0	
0.7633	4.16668	0.831356	0	
0.7640	6.29802	-0.0848322	0	
0.7647	7.83412	-1.00102	0	
0.7653	6.60524	2.35834	0	
0.7660	6.60524	4.47914	0	
0.7667	9.35102	2.66373	0	
0.7673	13.9401	2.35834	0	
0.7680	16.6859	3.27452	0	
0.7687	13.6329	1.13675	0	
0.7693	9.96546	-0.0848322	0	
0.7700	10.5799	0.52596	0	
0.7707	9.96546	0.220564	0	
0.7713	6.29802	-0.390228	0	
0.7720	4.78112	-1.91721	0	
0.7727	4.16668	-4.05498	0	
0.7733	0.806454	-3.74958	0	
0.7740	-1.32489	-1.91721	0	
0.7747	-0.0960064	-3.74958	0	
0.7753	2.64978	-3.74958	0	
0.7760	4.4739	-1.91721	0	
0.7767	7.5269	-2.528	0	
0.7773	10.2727	-4.66577	0	
0.7780	9.65824	-3.74958	0	
0.7787	7.21968	-1.61181	0	
0.7793	8.14134	-1.61181	0	
0.7800	10.5799	-3.13879	0	
0.7807	12.7112	-4.05498	0	
0.7813	12.7112	-2.528	0	
0.7820	9.0438	1.13675	0	
0.7827	2.957	1.74754	0	
0.7833	-0.403227	0.220564	0	
0.7840	-4.68511	0.220564	0	
0.7847	-12.0008	3.27452	0	
0.7853	-16.5899	5.39533	0	
0.7860	-19.6429	5.39533	0	
0.7867	-21.467	5.39533	0	
0.7873	-20.2381	5.08993	0	
0.7880	-17.4924	3.56295	0	
0.7887	-18.414	2.05294	0	
0.7893	-19.0285	2.05294	0	
0.7900	-16.5899	0.831356	0	
0.7907	-15.6682	-0.0848322	0	
0.7913	-15.9755	2.66373	0	
0.7920	-12.6152	4.78454	0	
0.7927	-8.04534	0.831356	0	
0.7933	-6.20201	-1.91721	0	
0.7940	-3.76345	-0.0848322	0	
0.7947	0.499233	0.220564	0	
0.7953	2.64978	-2.8334	0	
0.7960	4.4739	-2.8334	0	
0.7967	7.83412	-1.30642	0	
0.7973	7.21968	-0.390228	0	
0.7980	5.39556	0.52596	0	
0.7987	5.70278	0.52596	0	
0.7993	3.55224	-0.695624	0	
0.8000	-1.01767	1.13675	0	
0.8007	-2.84179	3.56295	0	
0.8013	-1.32489	1.44215	0	
0.8020	0.806454	-1.00102	0	
0.8027	0.192013	-0.0848322	0	
0.8033	-1.63211	0.220564	0	
0.8040	1.11367	-1.61181	0	
0.8047	3.55224	-1.91721	0	
0.8053	1.11367	-1.91721	0	
0.8060	0.192013	-4.36038	0	
0.8067	2.03534	-4.05498	0	
0.8073	0.499233	-0.0848322	0	
0.8080	0.499233	0.831356	0	
0.8087	3.85946	-2.8334	0	
0.8093	1.72812	-3.13879	0	
0.8100	-2.84179	-1.00102	0	
0.8107	-1.32489	-0.0848322	0	
0.8113	-0.403227	0.831356	0	
0.8120	-4.68511	0.831356	0	
0.8127	-5.89479	-2.2226	0	
0.8133	-4.07067	-2.8334	0	
0.8140	-4.07067	1.13675	0	
0.8147	-6.20201	3.86835	0	
0.8153	-7.43089	4.17375	0	
0.8160	-7.43089	2.96913	0	
0.8167	-6.81645	1.44215	0	
0.8173	-5.89479	1.13675	0	
0.8180	-5.60677	1.44215	0	
0.8187	-4.99233	0.831356	0	
0.8193	-4.07067	1.74754	0	
0.8200	-3.76345	3.56295	0	
0.8207	-3.76345	2.66373	0	
0.8213	-2.24655	2.66373	0	
0.8220	-0.710447	3.86835	0	
0.8227	-0.0960064	2.66373	0	
0.8233	1.72812	2.05294	0	
0.8240	3.55224	2.96913	0	
0.8247	4.4739	1.44215	0	
0.8253	5.9908	1.74754	0	
0.8260	7.83412	3.56295	0	
0.8267	10.8871	1.13675	0	
0.8273	15.457	-1.91721	0	
0.8280	16.3787	-0.0848322	0	
0.8287	13.3257	-1.00102	0	
0.8293	11.5016	-2.8334	0	
0.8300	10.8871	-0.695624	0	
0.8307	9.65824	-0.0848322	0	
0.8313	9.35102	-3.13879	0	
0.8320	8.14134	-3.44419	0	
0.8327	5.39556	-1.91721	0	
0.8333	5.70278	-3.74958	0	
0.8340	6.29802	-6.19275	0	
0.8347	4.4739	-5.88736	0	
0.8353	5.08834	-5.58196	0	
0.8360	8.14134	-6.19275	0	
0.8367	7.5269	-7.10894	0	
0.8373	5.9908	-6.49815	0	
0.8380	8.14134	-4.36038	0	
0.8387	11.5016	-3.74958	0	
0.8393	10.8871	-3.44419	0	
0.8400	6.60524	-2.2226	0	
0.8407	2.03534	-1.00102	0	
0.8413	-1.01767	-1.00102	0	
0.8420	-4.07067	-0.695624	0	
0.8427	-8.64058	-0.390228	0	
0.8433	-12.0008	-0.0848322	0	
0.8440	-15.361	-1.00102	0	
0.8447	-20.5454	-2.528	0	
0.8453	-23.2912	-1.00102	0	
0.8460	-20.5454	1.74754	0	
0.8467	-16.5899	1.74754	0	
0.8473	-14.7466	-0.0848322	0	
0.8480	-13.8441	0.220564	0	
0.8487	-12.0008	1.44215	0	
0.8493	-9.56224	1.13675	0	
0.8500	-9.56224	2.35834	0	
0.8507	-10.1767	3.27452	0	
0.8513	-7.43089	1.74754	0	
0.8520	-3.45623	0.831356	0	
0.8527	-4.37789	1.74754	0	
0.8533	-7.12367	1.74754	0	
0.8540	-7.12367	0.220564	0	
0.8547	-4.68511	-1.00102	0	
0.8553	-1.32489	-1.30642	0	
0.8560	0.806454	-0.695624	0	
0.8567	1.42089	1.13675	0	
0.8573	1.72812	1.74754	0	
0.8580	2.34256	-0.0848322	0	
0.8587	2.64978	-1.30642	0	
0.8593	5.39556	-0.0848322	0	
0.8600	7.21968	1.44215	0	
0.8607	5.39556	-0.0848322	0	
0.8613	4.16668	-2.8334	0	
0.8620	6.91246	-2.2226	0	
0.8627	8.14134	0.52596	0	
0.8633	5.08834	-0.390228	0	
0.8640	4.16668	-2.8334	0	
0.8647	6.29802	-1.91721	0	
0.8653	6.29802	-0.695624	0	
0.8660	3.55224	-0.390228	0	
0.8667	3.24502	-1.00102	0	
0.8673	5.70278	-2.8334	0	
0.8680	7.21968	-2.8334	0	
0.8687	6.60524	-0.0848322	0	
0.8693	4.4739	-0.695624	0	
0.8700	2.03534	-3.74958	0	
0.8707	-0.0960064	-1.91721	0	
0.8713	-1.01767	1.74754	0	
0.8720	-2.55377	0.220564	0	
0.8727	-4.37789	-1.91721	0	
0.8733	-3.76345	-1.00102	0	
0.8740	-0.0960064	0.831356	0	
0.8747	4.78112	-0.695624	0	
0.8753	10.2727	-3.74958	0	
0.8760	13.6329	-4.05498	0	
0.8767	13.3257	-0.695624	0	
0.8773	12.404	0.220564	0	
0.8780	13.3257	-3.13879	0	
0.8787	12.404	-4.36038	0	
0.8793	8.14134	-2.8334	0	
0.8800	5.08834	-1.91721	0	
0.8807	4.4739	-1.61181	0	
0.8813	5.39556	0.220564	0	
0.8820	4.4739	0.831356	0	
0.8827	2.03534	-1.61181	0	
0.8833	1.11367	-2.528	0	
0.8840	2.64978	0.831356	0	
0.8847	2.34256	3.86835	0	
0.8853	0.806454	1.74754	0	
0.8860	0.499233	0.220564	0	
0.8867	-0.710447	3.56295	0	
0.8873	-1.63211	6.61691	0	
0.8880	-0.0960064	5.39533	0	
0.8887	0.192013	3.56295	0	
0.8893	-0.0960064	2.66373	0	
0.8900	-1.32489	1.13675	0	
0.8907	-4.99233	1.44215	0	
0.8913	-5.60677	3.56295	0	
0.8920	-1.01767	4.17375	0	
0.8927	2.34256	3.56295	0	
0.8933	2.03534	2.96913	0	
0.8940	0.806454	2.35834	0	
0.8947	-4.68511	1.74754	0	
0.8953	-10.1767	2.05294	0	
0.8960	-11.3864	2.05294	0	
0.8967	-13.8441	1.74754	0	
0.8973	-19.0285	0.52596	0	
0.8980	-18.7212	-0.390228	0	
0.8987	-14.7466	1.13675	0	
0.8993	-12.6152	2.35834	0	
0.9000	-10.4839	0.52596	0	
0.9007	-6.81645	-1.30642	0	
0.9013	-1.93933	-1.00102	0	
0.9020	1.42089	-0.390228	0	
0.9027	0.806454	0.831356	0	
0.9033	-1.01767	2.35834	0	
0.9040	1.11367	1.74754	0	
0.9047	2.64978	2.35834	0	
0.9053	0.806454	3.86835	0	
0.9060	2.957	2.96913	0	
0.9067	9.35102	0.52596	0	
0.9073	11.5016	-0.695624	0	
0.9080	9.0438	-1.91721	0	
0.9087	6.60524	-2.8334	0	
0.9093	3.85946	-1.61181	0	
0.9100	0.806454	-1.30642	0	
0.9107	1.72812	-1.30642	0	
0.9113	4.4739	-0.390228	0	
0.9120	4.4739	-1.91721	0	
0.9127	3.24502	-3.13879	0	
0.9133	3.85946	-1.91721	0	
0.9140	3.55224	-2.2226	0	
0.9147	0.192013	-4.05498	0	
0.9153	-4.37789	-3.74958	0	
0.9160	-5.29955	-1.91721	0	
0.9167	-4.99233	-1.61181	0	
0.9173	-8.64058	-1.91721	0	
0.9180	-13.8441	-1.91721	0	
0.9187	-13.8441	-0.0848322	0	
0.9193	-13.5369	1.74754	0	
0.9200	-15.9755	1.13675	0	
0.9207	-13.5369	0.831356	0	
0.9213	-7.73812	1.74754	0	
0.9220	-6.20201	1.74754	0	
0.9227	-4.37789	1.44215	0	
0.9233	1.72812	3.56295	0	
0.9240	3.55224	3.27452	0	
0.9247	1.72812	0.220564	0	
0.9253	3.55224	1.74754	0	
0.9260	7.83412	4.47914	0	
0.9267	9.65824	0.831356	0	
0.9273	10.5799	-3.44419	0	
0.9280	9.0438	-1.61181	0	
0.9287	4.16668	-0.0848322	0	
0.9293	2.34256	-2.528	0	
0.9300	1.72812	-1.91721	0	
0.9307	-1.93933	2.05294	0	
0.9313	-2.55377	1.74754	0	
0.9320	1.11367	-1.91721	0	
0.9327	-0.0960064	-3.74958	0	
0.9333	-2.84179	-5.58196	0	
0.9340	1.42089	-6.49815	0	
0.9347	2.64978	-5.27656	0	
0.9353	-2.24655	-3.44419	0	
0.9360	-1.93933	-1.61181	0	
0.9367	1.11367	-1.30642	0	
0.9373	-1.63211	-3.74958	0	
0.9380	-5.29955	-2.8334	0	
0.9387	-6.50923	1.44215	0	
0.9393	-8.64058	0.831356	0	
0.9400	-8.9478	-2.528	0	
0.9407	-4.99233	-2.8334	0	
0.9413	-2.84179	-2.8334	0	
0.9420	-2.55377	-4.36038	0	
0.9427	-0.710447	-3.13879	0	
0.9433	0.192013	-1.61181	0	
0.9440	-0.0960064	-0.0848322	0	
0.9447	0.192013	2.05294	0	
0.9453	-0.0960064	2.35834	0	
0.9460	-1.01767	2.66373	0	
0.9467	-0.403227	5.08993	0	
0.9473	1.42089	4.17375	0	
0.9480	0.806454	0.831356	0	
0.9487	-0.0960064	3.27452	0	
0.9493	1.72812	4.17375	0	
0.9500	2.03534	-1.91721	0	
0.9507	-1.93933	-3.74958	0	
0.9513	-3.14901	0.831356	0	
0.9520	0.806454	-0.390228	0	
0.9527	2.34256	-4.05498	0	
0.9533	-0.0960064	-3.13879	0	
0.9540	2.03534	-2.2226	0	
0.9547	5.39556	-4.05498	0	
0.9553	5.39556	-3.44419	0	
0.9560	8.44856	-1.00102	0	
0.9567	14.2473	-2.528	0	
0.9573	16.9931	-4.05498	0	
0.9580	17.8956	-3.74958	0	
0.9587	18.51	-2.2226	0	
0.9593	15.457	-1.00102	0	
0.9600	10.5799	-1.30642	0	
0.9607	7.21968	-3.44419	0	
0.9613	4.16668	-2.8334	0	
0.9620	2.64978	-0.0848322	0	
0.9627	-0.710447	0.831356	0	
0.9633	-7.12367	0.831356	0	
0.9640	-10.7911	1.44215	0	
0.9647	-10.1767	-1.00102	0	
0.9653	-12.0008	-3.74958	0	
0.9660	-12.0008	-1.00102	0	
0.9667	-8.64058	1.44215	0	
0.9673	-9.86946	-1.00102	0	
0.9680	-13.5369	-3.13879	0	
0.9687	-10.1767	-3.13879	0	
0.9693	-4.37789	-3.44419	0	
0.9700	-0.403227	-3.44419	0	
0.9707	2.03534	-1.91721	0	
0.9713	1.42089	-1.30642	0	
0.9720	-0.0960064	-2.8334	0	
0.9727	2.64978	-3.74958	0	
0.9733	6.29802	-3.13879	0	
0.9740	6.60524	-2.2226	0	
0.9747	7.21968	-1.61181	0	
0.9753	9.65824	-1.00102	0	
0.9760	10.8871	-1.61181	0	
0.9767	9.0438	-1.61181	0	
0.9773	6.29802	-0.390228	0	
0.9780	6.29802	-0.695624	0	
0.9787	6.60524	-0.0848322	0	
0.9793	1.72812	1.74754	0	
0.9800	-4.07067	0.220564	0	
0.9807	-3.76345	-0.390228	0	
0.9813	-1.93933	2.96913	0	
0.9820	-2.24655	4.47914	0	
0.9827	-0.0960064	3.86835	0	
0.9833	4.4739	4.47914	0	
0.9840	5.39556	3.56295	0	
0.9847	4.4739	1.74754	0	
0.9853	5.39556	1.74754	0	
0.9860	7.83412	1.13675	0	
0.9867	6.91246	0.220564	0	
0.9873	3.85946	1.44215	0	
0.9880	3.24502	1.74754	0	
0.9887	5.39556	0.52596	0	
0.9893	5.9908	-0.0848322	0	
0.9900	3.55224	-0.695624	0	
0.9907	-0.710447	0.220564	0	
0.9913	-3.76345	1.13675	0	
0.9920	-6.20201	-1.00102	0	
0.9927	-10.1767	-2.528	0	
0.9933	-15.0538	-1.61181	0	
0.9940	-15.9755	-1.91721	0	
0.9947	-14.7466	-1.00102	0	
0.9953	-14.1513	1.13675	0	
0.9960	-13.8441	0.831356	0	
0.9967	-14.4394	0.831356	0	
0.9973	-17.4924	1.44215	0	
0.9980	-18.1068	-1.91721	0	
0.9987	-14.4394	-2.2226	0	
0.9993	-12.6152	1.44215	0	
1.0000	-12.9225	-0.390228	0	
1.0007	-11.0983	-2.528	0	
1.0013	-10.7911	2.66373	0	
1.0020	-12.308	4.78454	0	
1.0027	-10.1767	0.831356	0	
1.0033	-4.68511	0.831356	0	
1.0040	-2.55377	4.47914	0	
1.0047	-0.0960064	2.96913	0	
1.0053	3.85946	-0.0848322	0	
1.0060	2.64978	-1.30642	0	
1.0067	-1.01767	-1.91721	0	
1.0073	-1.01767	-2.2226	0	
1.0080	-1.01767	-1.91721	0	
1.0087	-2.84179	-3.44419	0	
1.0093	-1.01767	-4.05498	0	
1.0100	2.03534	-1.91721	0	
1.0107	-0.0960064	1.13675	0	
1.0113	-1.93933	2.96913	0	
1.0120	-0.710447	2.66373	0	
1.0127	-0.710447	0.220564	0	
1.0133	0.499233	-2.8334	0	
1.0140	5.9908	-3.74958	0	
1.0147	9.96546	-2.8334	0	
1.0153	7.83412	-1.91721	0	
1.0160	7.21968	-1.61181	0	
1.0167	9.96546	-1.30642	0	
1.0173	8.44856	0.831356	0	
1.0180	4.16668	2.66373	0	
1.0187	4.4739	1.74754	0	
1.0193	9.0438	1.74754	0	
1.0200	9.96546	3.56295	0	
1.0207	7.5269	2.05294	0	
1.0213	7.83412	0.52596	0	
1.0220	9.0438	3.56295	0	
1.0227	5.70278	6.92231	0	
1.0233	2.64978	5.39533	0	
1.0240	2.957	1.74754	0	
1.0247	0.806454	1.13675	0	
1.0253	-4.07067	3.27452	0	
1.0260	-5.60677	2.35834	0	
1.0267	-4.37789	0.831356	0	
1.0273	-2.84179	2.35834	0	
1.0280	-0.0960064	2.35834	0	
1.0287	1.72812	-1.00102	0	
1.0293	1.11367	-1.61181	0	
1.0300	1.72812	-1.00102	0	
1.0307	2.957	-1.61181	0	
1.0313	2.34256	-0.695624	0	
1.0320	1.42089	0.220564	0	
1.0327	2.03534	-1.91721	0	
1.0333	2.03534	-3.44419	0	
1.0340	3.24502	-3.44419	0	
1.0347	6.60524	-3.74958	0	
1.0353	5.70278	-1.91721	0	
1.0360	4.4739	1.13675	0	
1.0367	7.83412	-0.390228	0	
1.0373	8.14134	-4.66577	0	
1.0380	4.16668	-5.88736	0	
1.0387	4.78112	-4.66577	0	
1.0393	7.21968	-3.74958	0	
1.0400	5.39556	-3.13879	0	
1.0407	5.08834	-3.44419	0	
1.0413	5.08834	-3.74958	0	
1.0420	2.34256	-3.74958	0	
1.0427	2.34256	-4.97117	0	
1.0433	6.60524	-5.27656	0	
1.0440	9.96546	-2.2226	0	
1.0447	9.35102	0.52596	0	
1.0453	4.16668	-1.91721	0	
1.0460	-1.93933	-3.44419	0	
1.0467	-4.68511	-0.0848322	0	
1.0473	-7.73812	2.05294	0	
1.0480	-11.3864	1.13675	0	
1.0487	-12.0008	0.831356	0	
1.0493	-12.9225	0.220564	0	
1.0500	-13.5369	-0.0848322	0	
1.0507	-11.0983	0.52596	0	
1.0513	-9.86946	0.52596	0	
1.0520	-11.3864	-0.390228	0	
1.0527	-8.9478	0.831356	0	
1.0533	-6.50923	1.13675	0	
1.0540	-7.12367	-1.00102	0	
1.0547	-3.76345	-1.30642	0	
1.0553	0.806454	0.831356	0	
1.0560	-0.710447	1.74754	0	
1.0567	-4.07067	0.831356	0	
1.0573	-4.37789	-0.0848322	0	
1.0580	-5.60677	1.74754	0	
1.0587	-7.73812	3.56295	0	
1.0593	-8.35256	2.05294	0	
1.0600	-8.9478	2.05294	0	
1.0607	-12.6152	3.56295	0	
1.0613	-14.7466	2.66373	0	
1.0620	-12.0008	2.05294	0	
1.0627	-8.35256	2.05294	0	
1.0633	-9.25502	-1.00102	0	
1.0640	-7.12367	-3.74958	0	
1.0647	2.03534	-1.30642	0	
1.0653	7.5269	1.44215	0	
1.0660	7.5269	-0.0848322	0	
1.0667	9.65824	-1.61181	0	
1.0673	10.8871	-1.30642	0	
1.0680	9.65824	-1.00102	0	
1.0687	11.7896	-1.00102	0	
1.0693	15.457	-1.61181	0	
1.0700	14.5354	-3.44419	0	
1.0707	12.7112	-3.74958	0	
1.0713	11.5016	-3.44419	0	
1.0720	6.91246	-4.97117	0	
1.0727	2.64978	-5.88736	0	
1.0733	0.806454	-2.8334	0	
1.0740	-0.0960064	-1.00102	0	
1.0747	1.72812	-1.00102	0	
1.0753	5.39556	0.220564	0	
1.0760	1.72812	0.831356	0	
1.0767	-5.60677	-0.0848322	0	
1.0773	-6.50923	0.52596	0	
1.0780	-3.76345	1.74754	0	
1.0787	-8.64058	1.74754	0	
1.0793	-16.2827	3.27452	0	
1.0800	-15.9755	4.17375	0	
1.0807	-12.0008	1.74754	0	
1.0813	-10.1767	-0.0848322	0	
1.0820	-8.04534	1.74754	0	
1.0827	-5.89479	3.56295	0	
1.0833	-7.12367	3.56295	0	
1.0840	-6.20201	1.13675	0	
1.0847	-2.84179	-0.695624	0	
1.0853	-1.32489	-0.0848322	0	
1.0860	0.499233	-0.695624	0	
1.0867	2.34256	-3.13879	0	
1.0873	-0.0960064	-2.8334	0	
1.0880	-2.55377	-0.390228	0	
1.0887	-1.93933	-0.0848322	0	
1.0893	-1.01767	-0.0848322	0	
1.0900	-0.0960064	-1.00102	0	
1.0907	0.499233	-0.695624	0	
1.0913	-1.93933	1.13675	0	
1.0920	-4.07067	0.52596	0	
1.0927	-4.07067	-1.91721	0	
1.0933	-3.76345	-1.30642	0	
1.0940	-3.45623	0.831356	0	
1.0947	-1.01767	-0.695624	0	
1.0953	1.42089	-2.8334	0	
1.0960	1.72812	-1.91721	0	
1.0967	0.806454	0.831356	0	
1.0973	1.72812	1.13675	0	
1.0980	3.55224	-0.0848322	0	
1.0987	1.72812	0.220564	0	
1.0993	-1.01767	1.13675	0	
1.1000	1.11367	-0.390228	0	
1.1007	2.957	-1.91721	0	
1.1013	4.16668	-0.390228	0	
1.1020	6.91246	-0.390228	0	
1.1027	7.5269	-1.61181	0	
1.1033	4.78112	-0.390228	0	
1.1040	2.34256	1.74754	0	
1.1047	0.192013	1.74754	0	
1.1053	0.806454	-0.0848322	0	
1.1060	3.85946	-1.61181	0	
1.1067	2.64978	-0.0848322	0	
1.1073	-0.0960064	2.66373	0	
1.1080	3.55224	2.66373	0	
1.1087	7.83412	0.831356	0	
1.1093	6.29802	-0.695624	0	
1.1100	5.39556	-1.91721	0	
1.1107	5.9908	-1.91721	0	
1.1113	5.9908	-1.00102	0	
1.1120	6.91246	-0.695624	0	
1.1127	8.14134	-2.2226	0	
1.1133	8.44856	-3.74958	0	
1.1140	10.2727	-3.74958	0	
1.1147	12.7112	-2.8334	0	
1.1153	12.7112	-3.74958	0	
1.1160	12.7112	-3.74958	0	
1.1167	11.5016	-2.2226	0	
1.1173	9.0438	-2.2226	0	
1.1180	7.21968	-2.8334	0	
1.1187	5.39556	-1.00102	0	
1.1193	2.34256	1.13675	0	
1.1200	0.806454	0.831356	0	
1.1207	1.11367	0.831356	0	
1.1213	-1.32489	0.52596	0	
1.1220	-4.68511	-0.0848322	0	
1.1227	-6.50923	1.44215	0	
1.1233	-9.25502	3.27452	0	
1.1240	-11.0983	3.56295	0	
1.1247	-12.0008	4.17375	0	
1.1253	-13.2297	5.39533	0	
1.1260	-14.4394	5.70073	0	
1.1267	-14.7466	4.78454	0	
1.1273	-15.361	5.39533	0	
1.1280	-14.4394	6.31152	0	
1.1287	-12.9225	5.39533	0	
1.1293	-12.6152	2.35834	0	
1.1300	-10.1767	1.44215	0	
1.1307	-5.29955	2.66373	0	
1.1313	-2.84179	2.96913	0	
1.1320	-1.32489	1.44215	0	
1.1327	1.72812	0.52596	0	
1.1333	1.42089	-1.91721	0	
1.1340	-2.84179	-4.66577	0	
1.1347	-3.76345	-3.74958	0	
1.1353	-4.07067	-1.91721	0	
1.1360	-4.37789	-4.36038	0	
1.1367	-2.84179	-4.66577	0	
1.1373	-1.93933	-1.91721	0	
1.1380	-2.24655	-2.8334	0	
1.1387	1.42089	-3.74958	0	
1.1393	3.24502	-0.0848322	0	
1.1400	-1.01767	-0.0848322	0	
1.1407	-2.84179	-2.528	0	
1.1413	0.499233	-0.695624	0	
1.1420	3.55224	-0.0848322	0	
1.1427	3.55224	-1.00102	0	
1.1433	4.16668	0.52596	0	
1.1440	5.39556	0.220564	0	
1.1447	6.91246	-1.00102	0	
1.1453	6.29802	1.44215	0	
1.1460	6.29802	1.44215	0	
1.1467	10.8871	-0.390228	0	
1.1473	14.5354	0.220564	0	
1.1480	10.8871	-0.0848322	0	
1.1487	5.08834	-0.695624	0	
1.1493	3.85946	0.52596	0	
1.1500	3.55224	-1.30642	0	
1.1507	-0.403227	-1.91721	0	
1.1513	-5.29955	2.35834	0	
1.1520	-8.04534	2.35834	0	
1.1527	-9.25502	-1.91721	0	
1.1533	-9.56224	-1.91721	0	
1.1540	-10.1767	-1.30642	0	
1.1547	-11.3864	-2.2226	0	
1.1553	-10.1767	-3.13879	0	
1.1560	-7.12367	-4.66577	0	
1.1567	-5.29955	-3.74958	0	
1.1573	-2.84179	-0.390228	0	
1.1580	1.72812	-2.8334	0	
1.1587	2.64978	-6.19275	0	
1.1593	1.72812	-3.74958	0	
1.1600	2.64978	-1.91721	0	
1.1607	3.55224	-3.44419	0	
1.1613	-0.0960064	-2.8334	0	
1.1620	-1.93933	-1.00102	0	
1.1627	-1.32489	-1.30642	0	
1.1633	-1.63211	-1.61181	0	
1.1640	-0.403227	-0.0848322	0	
1.1647	1.72812	2.66373	0	
1.1653	1.42089	3.56295	0	
1.1660	1.72812	2.35834	0	
1.1667	2.957	2.05294	0	
1.1673	2.64978	1.74754	0	
1.1680	2.64978	-0.0848322	0	
1.1687	3.85946	-0.695624	0	
1.1693	4.4739	0.831356	0	
1.1700	5.70278	-0.0848322	0	
1.1707	5.70278	-1.30642	0	
1.1713	4.16668	-1.61181	0	
1.1720	4.4739	-2.8334	0	
1.1727	3.85946	-3.74958	0	
1.1733	0.499233	-3.13879	0	
1.1740	1.11367	-2.8334	0	
1.1747	3.85946	-1.91721	0	
1.1753	2.64978	1.13675	0	
1.1760	1.11367	2.05294	0	
1.1767	0.806454	-0.0848322	0	
1.1773	-1.32489	-0.695624	0	
1.1780	-2.84179	-0.0848322	0	
1.1787	-2.55377	-1.91721	0	
1.1793	-3.76345	-2.8334	0	
1.1800	-5.29955	0.831356	0	
1.1807	-6.81645	1.44215	0	
1.1813	-9.86946	-1.91721	0	
1.1820	-10.7911	-1.00102	0	
1.1827	-9.25502	1.74754	0	
1.1833	-8.35256	1.44215	0	
1.1840	-5.89479	2.05294	0	
1.1847	-4.68511	3.86835	0	
1.1853	-4.68511	2.66373	0	
1.1860	-1.01767	0.831356	0	
1.1867	4.78112	-0.390228	0	
1.1873	6.91246	-2.8334	0	
1.1880	6.29802	-2.2226	0	
1.1887	8.14134	-0.0848322	0	
1.1893	11.1943	-0.695624	0	
1.1900	13.0185	-1.61181	0	
1.1907	9.35102	-0.0848322	0	
1.1913	4.16668	-1.91721	0	
1.1920	3.85946	-3.74958	0	
1.1927	4.16668	-2.528	0	
1.1933	0.806454	-1.61181	0	
1.1940	-1.01767	-2.528	0	
1.1947	-1.32489	-1.91721	0	
1.1953	-5.29955	-0.0848322	0	
1.1960	-9.25502	-0.0848322	0	
1.1967	-8.35256	-0.0848322	0	
1.1973	-6.20201	1.74754	0	
1.1980	-7.43089	3.27452	0	
1.1987	-9.86946	2.05294	0	
1.1993	-10.1767	2.05294	0	
1.2000	-7.43089	2.66373	0	
1.2007	-3.14901	1.74754	0	
1.2013	2.03534	1.74754	0	
1.2020	5.08834	3.27452	0	
1.2027	4.16668	2.05294	0	
1.2033	4.4739	1.74754	0	
1.2040	7.83412	4.78454	0	
1.2047	12.0968	4.17375	0	
1.2053	18.8173	2.66373	0	
1.2060	24.616	4.47914	0	
1.2067	21.563	4.47914	0	
1.2073	12.7112	1.13675	0	
1.2080	9.0438	0.220564	0	
1.2087	9.0438	-1.91721	0	
1.2093	5.08834	-4.66577	0	
1.2100	-1.01767	-2.2226	0	
1.2107	-4.07067	0.831356	0	
1.2113	-4.07067	-0.695624	0	
1.2120	-5.89479	-1.00102	0	
1.2127	-8.9478	-1.91721	0	
1.2133	-10.1767	-4.66577	0	
1.2140	-12.9225	-2.2226	0	
1.2147	-16.5899	4.17375	0	
1.2153	-16.5899	4.17375	0	
1.2160	-16.2827	0.831356	0	
1.2167	-18.414	-0.390228	0	
1.2173	-16.5899	-1.00102	0	
1.2180	-13.8441	-1.00102	0	
1.2187	-16.2827	1.44215	0	
1.2193	-17.7996	1.74754	0	
1.2200	-14.1513	0.52596	0	
1.2207	-12.6152	1.44215	0	
1.2213	-13.8441	1.74754	0	
1.2220	-13.8441	0.220564	0	
1.2227	-13.2297	-0.390228	0	
1.2233	-9.86946	0.220564	0	
1.2240	-6.20201	-0.695624	0	
1.2247	-5.89479	-2.8334	0	
1.2253	-4.37789	-2.8334	0	
1.2260	-1.63211	-0.390228	0	
1.2267	-2.84179	0.831356	0	
1.2273	-2.84179	-0.0848322	0	
1.2280	1.72812	-1.91721	0	
1.2287	4.16668	-2.2226	0	
1.2293	1.72812	-0.0848322	0	
1.2300	0.499233	0.52596	0	
1.2307	2.64978	-3.13879	0	
1.2313	6.29802	-4.66577	0	
1.2320	7.83412	-2.8334	0	
1.2327	6.60524	-2.528	0	
1.2333	5.39556	-3.74958	0	
1.2340	5.9908	-3.44419	0	
1.2347	6.29802	-2.8334	0	
1.2353	5.08834	-2.2226	0	
1.2360	2.957	-0.390228	0	
1.2367	2.957	-1.00102	0	
1.2373	3.55224	-2.2226	0	
1.2380	1.72812	-2.2226	0	
1.2387	2.03534	-3.74958	0	
1.2393	4.4739	-3.74958	0	
1.2400	2.34256	-0.0848322	0	
1.2407	-1.93933	0.831356	0	
1.2413	-0.0960064	-1.30642	0	
1.2420	1.72812	0.831356	0	
1.2427	2.64978	3.86835	0	
1.2433	8.14134	3.27452	0	
1.2440	13.9401	2.05294	0	
1.2447	12.404	2.96913	0	
1.2453	8.14134	3.56295	0	
1.2460	8.14134	2.66373	0	
1.2467	12.404	1.74754	0	
1.2473	15.457	2.96913	0	
1.2480	12.0968	2.05294	0	
1.2487	7.21968	-2.528	0	
1.2493	5.39556	-3.74958	0	
1.2500	3.55224	-2.528	0	
1.2507	2.03534	-3.13879	0	
1.2513	2.34256	-3.74958	0	
1.2520	2.64978	-1.00102	0	
1.2527	2.64978	-0.695624	0	
1.2533	2.957	-4.05498	0	
1.2540	0.192013	-4.36038	0	
1.2547	-4.07067	-1.00102	0	
1.2553	-3.14901	-0.695624	0	
1.2560	-0.0960064	-3.44419	0	
1.2567	-1.63211	-2.528	0	
1.2573	-4.68511	-0.0848322	0	
1.2580	-3.45623	-1.30642	0	
1.2587	-1.93933	-1.61181	0	
1.2593	-4.68511	-0.390228	0	
1.2600	-7.43089	-2.528	0	
1.2607	-7.73812	-3.74958	0	
1.2613	-6.20201	-0.390228	0	
1.2620	-4.07067	2.05294	0	
1.2627	-2.84179	2.66373	0	
1.2633	-1.93933	3.86835	0	
1.2640	1.72812	3.56295	0	
1.2647	2.64978	2.05294	0	
1.2653	2.64978	3.56295	0	
1.2660	6.29802	4.47914	0	
1.2667	11.7896	1.74754	0	
1.2673	12.7112	0.831356	0	
1.2680	13.3257	1.13675	0	
1.2687	13.6329	-1.30642	0	
1.2693	10.8871	-2.528	0	
1.2700	8.44856	-0.390228	0	
1.2707	7.21968	-1.00102	0	
1.2713	3.55224	-1.91721	0	
1.2720	-0.403227	-0.695624	0	
1.2727	-3.45623	-0.0848322	0	
1.2733	-7.43089	-1.91721	0	
1.2740	-10.1767	-3.44419	0	
1.2747	-12.0008	-2.528	0	
1.2753	-15.6682	0.52596	0	
1.2760	-16.8971	1.74754	0	
1.2767	-17.7996	0.831356	0	
1.2773	-21.467	2.66373	0	
1.2780	-22.0815	5.70073	0	
1.2787	-17.7996	6.00612	0	
1.2793	-14.7466	2.66373	0	
1.2800	-14.4394	-1.00102	0	
1.2807	-12.9225	-1.61181	0	
1.2813	-8.9478	0.831356	0	
1.2820	-4.37789	2.35834	0	
1.2827	-0.0960064	1.74754	0	
1.2833	2.957	1.74754	0	
1.2840	5.39556	1.74754	0	
1.2847	5.70278	2.05294	0	
1.2853	5.9908	0.831356	0	
1.2860	6.91246	-2.8334	0	
1.2867	5.70278	-4.36038	0	
1.2873	3.55224	-1.30642	0	
1.2880	3.55224	-0.390228	0	
1.2887	4.78112	-3.44419	0	
1.2893	4.4739	-3.44419	0	
1.2900	2.64978	-1.91721	0	
1.2907	-0.0960064	-2.528	0	
1.2913	0.806454	-3.13879	0	
1.2920	6.60524	-3.74958	0	
1.2927	11.1943	-6.49815	0	
1.2933	13.3257	-7.41434	0	
1.2940	16.3787	-6.19275	0	
1.2947	16.9931	-4.05498	0	
1.2953	13.6329	-3.44419	0	
1.2960	10.2727	-4.36038	0	
1.2967	8.14134	-4.97117	0	
1.2973	5.70278	-3.44419	0	
1.2980	4.16668	-1.00102	0	
1.2987	1.11367	-1.91721	0	
1.2993	-2.24655	-2.528	0	
1.3000	-1.93933	-2.528	0	
1.3007	-3.14901	-3.74958	0	
1.3013	-9.25502	-4.05498	0	
1.3020	-14.4394	-1.00102	0	
1.3027	-15.361	2.05294	0	
1.3033	-13.8441	2.66373	0	
1.3040	-11.3864	2.66373	0	
1.3047	-10.7911	2.66373	0	
1.3053	-13.2297	3.86835	0	
1.3060	-14.4394	4.47914	0	
1.3067	-12.9225	2.66373	0	
1.3073	-12.0008	2.05294	0	
1.3080	-12.6152	2.66373	0	
1.3087	-11.0983	2.05294	0	
1.3093	-10.1767	3.27452	0	
1.3100	-12.6152	5.39533	0	
1.3107	-12.0008	3.56295	0	
1.3113	-8.04534	1.74754	0	
1.3120	-6.81645	3.86835	0	
1.3127	-7.43089	3.56295	0	
1.3133	-5.60677	-0.390228	0	
1.3140	-6.50923	-1.91721	0	
1.3147	-10.1767	-3.44419	0	
1.3153	-9.56224	-4.05498	0	
1.3160	-4.07067	-1.00102	0	
1.3167	-0.710447	2.05294	0	
1.3173	-0.0960064	-0.0848322	0	
1.3180	1.11367	-1.30642	0	
1.3187	5.70278	1.74754	0	
1.3193	9.96546	3.27452	0	
1.3200	10.5799	1.74754	0	
1.3207	10.8871	0.52596	0	
1.3213	13.0185	-0.0848322	0	
1.3220	12.7112	-0.0848322	0	
1.3227	10.8871	-0.390228	0	
1.3233	11.1943	0.52596	0	
1.3240	11.7896	1.44215	0	
1.3247	11.7896	-0.695624	0	
1.3253	9.96546	-2.8334	0	
1.3260	6.29802	-1.91721	0	
1.3267	2.957	0.52596	0	
1.3273	1.72812	0.831356	0	
1.3280	-1.01767	0.220564	0	
1.3287	-4.37789	-0.0848322	0	
1.3293	-5.29955	-0.0848322	0	
1.3300	-4.37789	0.220564	0	
1.3307	-2.84179	0.831356	0	
1.3313	-3.14901	1.44215	0	
1.3320	-5.89479	2.05294	0	
1.3327	-6.81645	2.05294	0	
1.3333	-3.45623	1.74754	0	
1.3340	0.192013	1.74754	0	
1.3347	2.64978	1.13675	0	
1.3353	3.85946	-0.0848322	0	
1.3360	2.64978	-0.0848322	0	
1.3367	-0.710447	0.220564	0	
1.3373	-1.63211	-1.00102	0	
1.3380	-0.403227	-1.30642	0	
1.3387	1.11367	-1.00102	0	
1.3393	1.42089	-1.30642	0	
1.3400	1.11367	-0.0848322	0	
1.3407	2.34256	1.74754	0	
1.3413	3.55224	0.220564	0	
1.3420	3.24502	-1.91721	0	
1.3427	5.70278	-0.0848322	0	
1.3433	10.5799	2.66373	0	
1.3440	10.8871	2.05294	0	
1.3447	8.14134	-0.695624	0	
1.3453	6.91246	-2.8334	0	
1.3460	5.9908	-1.00102	0	
1.3467	6.29802	2.66373	0	
1.3473	8.73658	3.27452	0	
1.3480	9.0438	0.831356	0	
1.3487	7.5269	-1.91721	0	
1.3493	9.96546	-4.66577	0	
1.3500	14.5354	-5.27656	0	
1.3507	15.457	-3.13879	0	
1.3513	13.6329	-3.74958	0	
1.3520	13.6329	-5.58196	0	
1.3527	14.5354	-5.88736	0	
1.3533	11.5016	-5.27656	0	
1.3540	6.91246	-4.66577	0	
1.3547	6.29802	-2.2226	0	
1.3553	6.60524	-0.390228	0	
1.3560	2.03534	-0.390228	0	
1.3567	-2.24655	0.220564	0	
1.3573	-2.24655	0.220564	0	
1.3580	-4.68511	-0.0848322	0	
1.3587	-10.1767	0.831356	0	
1.3593	-13.8441	1.44215	0	
1.3600	-16.5899	1.74754	0	
1.3607	-20.5454	2.66373	0	
1.3613	-21.1598	3.56295	0	
1.3620	-18.7212	3.56295	0	
1.3627	-19.6429	2.66373	0	
1.3633	-22.6959	0.52596	0	
1.3640	-22.9839	-0.695624	0	
1.3647	-21.7743	0.52596	0	
1.3653	-19.6429	1.74754	0	
1.3660	-14.7466	1.74754	0	
1.3667	-8.35256	3.27452	0	
1.3673	-4.68511	6.00612	0	
1.3680	-3.14901	6.31152	0	
1.3687	-1.93933	2.96913	0	
1.3693	1.11367	0.831356	0	
1.3700	2.957	1.74754	0	
1.3707	1.11367	2.35834	0	
1.3713	0.192013	1.13675	0	
1.3720	3.55224	0.220564	0	
1.3727	2.64978	-0.390228	0	
1.3733	-0.0960064	-0.0848322	0	
1.3740	2.64978	-0.695624	0	
1.3747	5.08834	-3.74958	0	
1.3753	-0.0960064	-5.88736	0	
1.3760	-3.76345	-4.97117	0	
1.3767	-3.14901	-3.44419	0	
1.3773	-4.68511	-1.91721	0	
1.3780	-7.43089	-1.30642	0	
1.3787	-5.29955	-1.61181	0	
1.3793	-3.14901	-1.91721	0	
1.3800	-4.68511	-3.74958	0	
1.3807	-5.60677	-4.05498	0	
1.3813	-2.24655	-1.91721	0	
1.3820	1.72812	-0.390228	0	
1.3827	3.55224	-1.91721	0	
1.3833	5.70278	-1.91721	0	
1.3840	6.60524	-0.390228	0	
1.3847	6.29802	0.220564	0	
1.3853	7.83412	1.13675	0	
1.3860	10.8871	0.220564	0	
1.3867	12.7112	-2.528	0	
1.3873	11.5016	-1.91721	0	
1.3880	6.60524	-0.695624	0	
1.3887	0.806454	-4.05498	0	
1.3893	-1.63211	-6.49815	0	
1.3900	-1.01767	-3.74958	0	
1.3907	-1.63211	-1.61181	0	
1.3913	-1.32489	-1.61181	0	
1.3920	-1.01767	-1.30642	0	
1.3927	-3.76345	-1.61181	0	
1.3933	-4.68511	-3.74958	0	
1.3940	-1.32489	-5.58196	0	
1.3947	0.806454	-4.97117	0	
1.3953	-1.63211	-1.91721	0	
1.3960	-1.63211	1.44215	0	
1.3967	0.806454	0.831356	0	
1.3973	0.499233	-1.30642	0	
1.3980	0.192013	-0.0848322	0	
1.3987	2.64978	2.66373	0	
1.3993	3.24502	2.35834	0	
1.4000	1.72812	2.66373	0	
1.4007	1.42089	4.78454	0	
1.4013	2.34256	4.47914	0	
1.4020	2.03534	2.66373	0	
1.4027	2.34256	2.35834	0	
1.4033	2.64978	1.74754	0	
1.4040	3.24502	1.44215	0	
1.4047	3.24502	2.35834	0	
1.4053	2.957	2.66373	0	
1.4060	3.24502	0.52596	0	
1.4067	3.24502	-1.00102	0	
1.4073	2.03534	1.44215	0	
1.4080	0.192013	4.17375	0	
1.4087	1.72812	2.66373	0	
1.4093	4.78112	-0.0848322	0	
1.4100	5.39556	-0.0848322	0	
1.4107	3.85946	-0.695624	0	
1.4113	5.39556	-1.30642	0	
1.4120	7.83412	-1.61181	0	
1.4127	8.44856	-2.2226	0	
1.4133	8.73658	-3.74958	0	
1.4140	9.96546	-4.66577	0	
1.4147	12.404	-4.97117	0	
1.4153	14.5354	-3.74958	0	
1.4160	13.6329	-2.2226	0	
1.4167	11.1943	-4.05498	0	
1.4173	11.1943	-4.97117	0	
1.4180	10.2727	-2.8334	0	
1.4187	4.78112	-2.2226	0	
1.4193	-1.01767	-2.2226	0	
1.4200	-3.14901	-0.390228	0	
1.4207	-3.14901	-1.00102	0	
1.4213	-2.24655	-1.91721	0	
1.4220	-3.45623	0.220564	0	
1.4227	-6.50923	2.35834	0	
1.4233	-8.35256	2.66373	0	
1.4240	-8.35256	3.86835	0	
1.4247	-6.20201	3.86835	0	
1.4253	-3.14901	1.13675	0	
1.4260	-2.84179	1.13675	0	
1.4267	-2.84179	3.56295	0	
1.4273	2.03534	2.35834	0	
1.4280	5.39556	0.52596	0	
1.4287	3.24502	1.74754	0	
1.4293	0.806454	3.27452	0	
1.4300	0.192013	1.44215	0	
1.4307	-3.14901	-0.0848322	0	
1.4313	-7.12367	0.831356	0	
1.4320	-8.04534	-0.0848322	0	
1.4327	-8.04534	-1.30642	0	
1.4333	-10.1767	0.220564	0	
1.4340	-13.2297	1.74754	0	
1.4347	-16.5899	-0.0848322	0	
1.4353	-17.7996	-1.91721	0	
1.4360	-17.4924	-1.00102	0	
1.4367	-19.3357	0.831356	0	
1.4373	-22.3887	1.74754	0	
1.4380	-21.1598	0.52596	0	
1.4387	-17.4924	0.220564	0	
1.4393	-17.1851	2.35834	0	
1.4400	-17.1851	3.27452	0	
1.4407	-14.1513	1.74754	0	
1.4413	-10.4839	0.220564	0	
1.4420	-7.12367	-1.00102	0	
1.4427	-2.55377	-1.00102	0	
1.4433	2.64978	-0.0848322	0	
1.4440	8.73658	-0.0848322	0	
1.4447	14.5354	0.52596	0	
1.4453	16.9931	0.831356	0	
1.4460	17.3004	-2.2226	0	
1.4467	17.3004	-3.74958	0	
1.4473	17.5884	-1.61181	0	
1.4480	14.5354	-1.30642	0	
1.4487	6.29802	-2.8334	0	
1.4493	0.499233	-1.00102	0	
1.4500	0.806454	-0.390228	0	
1.4507	0.499233	-1.91721	0	
1.4513	-2.84179	-1.00102	0	
1.4520	-3.45623	-1.00102	0	
1.4527	-2.84179	-2.8334	0	
1.4533	-3.76345	-3.13879	0	
1.4540	-3.45623	-2.2226	0	
1.4547	-2.24655	-3.44419	0	
1.4553	-2.55377	-3.13879	0	
1.4560	-0.403227	-0.695624	0	
1.4567	4.4739	-0.390228	0	
1.4573	7.83412	-2.2226	0	
1.4580	9.0438	0.831356	0	
1.4587	10.5799	3.86835	0	
1.4593	11.5016	0.831356	0	
1.4600	10.2727	-1.30642	0	
1.4607	8.14134	2.35834	0	
1.4613	5.39556	0.831356	0	
1.4620	-0.403227	-6.80354	0	
1.4627	-5.60677	-5.58196	0	
1.4633	-4.68511	1.74754	0	
1.4640	-3.76345	1.13675	0	
1.4647	-6.50923	-1.91721	0	
1.4653	-7.43089	1.44215	0	
1.4660	-6.20201	3.56295	0	
1.4667	-6.81645	0.220564	0	
1.4673	-5.29955	-1.30642	0	
1.4680	-1.01767	-0.390228	0	
1.4687	0.806454	-1.00102	0	
1.4693	0.806454	-2.8334	0	
1.4700	2.34256	-4.97117	0	
1.4707	4.4739	-5.58196	0	
1.4713	5.39556	-2.528	0	
1.4720	3.55224	0.831356	0	
1.4727	2.64978	0.52596	0	
1.4733	5.08834	-0.390228	0	
1.4740	5.9908	-1.91721	0	
1.4747	4.4739	-4.66577	0	
1.4753	3.24502	-3.44419	0	
1.4760	0.499233	-0.0848322	0	
1.4767	-1.63211	-0.390228	0	
1.4773	-1.63211	-0.0848322	0	
1.4780	-4.07067	2.05294	0	
1.4787	-7.43089	-0.695624	0	
1.4793	-6.50923	-2.8334	0	
1.4800	-6.20201	0.831356	0	
1.4807	-7.12367	2.66373	0	
1.4813	-5.29955	0.220564	0	
1.4820	-4.07067	-0.390228	0	
1.4827	-5.60677	-1.30642	0	
1.4833	-6.81645	-2.528	0	
1.4840	-7.12367	-0.0848322	0	
1.4847	-4.68511	0.52596	0	
1.4853	-1.32489	-3.13879	0	
1.4860	-2.24655	-2.528	0	
1.4867	-0.403227	0.831356	0	
1.4873	5.9908	-0.390228	0	
1.4880	6.91246	-1.91721	0	
1.4887	3.55224	-0.0848322	0	
1.4893	4.16668	-1.00102	0	
1.4900	2.03534	-3.13879	0	
1.4907	-3.76345	-1.61181	0	
1.4913	-6.20201	0.831356	0	
1.4920	-7.43089	0.52596	0	
1.4927	-9.56224	-1.00102	0	
1.4933	-11.6936	-2.528	0	
1.4940	-13.8441	-2.528	0	
1.4947	-14.7466	0.220564	0	
1.4953	-13.5369	1.74754	0	
1.4960	-13.2297	2.35834	0	
1.4967	-12.9225	3.27452	0	
1.4973	-9.56224	2.66373	0	
1.4980	-6.50923	1.44215	0	
1.4987	-4.68511	3.56295	0	
1.4993	-1.93933	4.47914	0	
1.5000	0.499233	2.96913	0	
1.5007	2.957	4.17375	0	
1.5013	6.60524	3.56295	0	
1.5020	8.73658	-0.390228	0	
1.5027	8.44856	-1.00102	0	
1.5033	9.0438	-0.0848322	0	
1.5040	8.73658	-1.30642	0	
1.5047	6.29802	-1.00102	0	
1.5053	5.39556	-1.00102	0	
1.5060	5.39556	-1.91721	0	
1.5067	4.78112	-1.00102	0	
1.5073	3.55224	0.52596	0	
1.5080	0.192013	-2.2226	0	
1.5087	-3.45623	-3.74958	0	
1.5093	-2.24655	-3.44419	0	
1.5100	1.72812	-2.8334	0	
1.5107	2.64978	-2.528	0	
1.5113	2.64978	-1.61181	0	
1.5120	2.64978	-2.2226	0	
1.5127	3.85946	-3.74958	0	
1.5133	7.21968	-3.74958	0	
1.5140	9.65824	-1.00102	0	
1.5147	10.2727	-0.695624	0	
1.5153	11.7896	-3.13879	0	
1.5160	11.5016	-2.528	0	
1.5167	5.9908	-1.00102	0	
1.5173	3.24502	-2.528	0	
1.5180	5.08834	-1.91721	0	
1.5187	3.85946	-0.0848322	0	
1.5193	0.806454	-0.390228	0	
1.5200	0.806454	0.831356	0	
1.5207	1.72812	1.74754	0	
1.5213	0.806454	-0.390228	0	
1.5220	-0.0960064	-1.00102	0	
1.5227	0.499233	2.35834	0	
1.5233	2.64978	3.27452	0	
1.5240	4.4739	4.17375	0	
1.5247	1.72812	5.39533	0	
1.5253	-2.24655	2.35834	0	
1.5260	-3.14901	0.220564	0	
1.5267	-4.07067	2.35834	0	
1.5273	-8.04534	2.66373	0	
1.5280	-10.4839	1.74754	0	
1.5287	-10.1767	3.27452	0	
1.5293	-8.35256	2.66373	0	
1.5300	-7.73812	-0.0848322	0	
1.5307	-8.64058	-0.390228	0	
1.5313	-10.7911	1.13675	0	
1.5320	-9.25502	1.74754	0	
1.5327	-6.20201	1.44215	0	
1.5333	-6.50923	0.831356	0	
1.5340	-5.89479	-0.0848322	0	
1.5347	2.03534	-0.0848322	0	
1.5353	7.83412	-0.390228	0	
1.5360	5.39556	-1.61181	0	
1.5367	4.4739	-1.61181	0	
1.5373	7.5269	0.52596	0	
1.5380	6.29802	-0.390228	0	
1.5387	4.16668	-3.13879	0	
1.5393	6.29802	-2.8334	0	
1.5400	9.0438	-1.91721	0	
1.5407	9.96546	-2.8334	0	
1.5413	8.14134	-0.390228	0	
1.5420	2.957	2.35834	0	
1.5427	0.806454	-0.0848322	0	
1.5433	2.957	-0.0848322	0	
1.5440	2.64978	4.47914	0	
1.5447	-1.01767	4.78454	0	
1.5453	-3.14901	2.35834	0	
1.5460	-4.68511	2.35834	0	
1.5467	-7.12367	2.05294	0	
1.5473	-7.73812	1.74754	0	
1.5480	-6.50923	3.27452	0	
1.5487	-1.93933	1.44215	0	
1.5493	2.64978	-1.61181	0	
1.5500	4.4739	0.220564	0	
1.5507	5.39556	2.66373	0	
1.5513	5.9908	0.831356	0	
1.5520	7.21968	-2.528	0	
1.5527	8.44856	-2.528	0	
1.5533	9.0438	-1.61181	0	
1.5540	8.44856	-2.2226	0	
1.5547	7.21968	-2.8334	0	
1.5553	3.85946	-1.61181	0	
1.5560	-0.0960064	-0.695624	0	
1.5567	-0.710447	-0.0848322	0	
1.5573	0.192013	-0.0848322	0	
1.5580	-3.76345	-1.00102	0	
1.5587	-8.64058	-2.8334	0	
1.5593	-7.73812	-2.8334	0	
1.5600	-3.76345	-1.00102	0	
1.5607	-3.76345	-1.00102	0	
1.5613	-5.29955	-3.44419	0	
1.5620	-4.37789	-2.528	0	
1.5627	-4.68511	0.831356	0	
1.5633	-4.68511	-0.0848322	0	
1.5640	-0.710447	-3.74958	0	
1.5647	0.499233	-3.74958	0	
1.5653	-4.99233	-1.91721	0	
1.5660	-6.81645	-1.91721	0	
1.5667	-3.76345	-0.390228	0	
1.5673	-4.68511	-0.390228	0	
1.5680	-7.73812	-1.91721	0	
1.5687	-9.25502	-0.695624	0	
1.5693	-10.1767	2.66373	0	
1.5700	-9.56224	3.56295	0	
1.5707	-8.35256	2.66373	0	
1.5713	-10.4839	1.74754	0	
1.5720	-12.308	-0.0848322	0	
1.5727	-11.6936	0.220564	0	
1.5733	-12.308	1.74754	0	
1.5740	-11.6936	1.74754	0	
1.5747	-6.81645	0.831356	0	
1.5753	-4.07067	-0.0848322	0	
1.5760	-4.07067	0.831356	0	
1.5767	-1.93933	1.74754	0	
1.5773	-0.0960064	0.831356	0	
1.5780	1.42089	-0.0848322	0	
1.5787	3.24502	0.220564	0	
1.5793	5.08834	0.831356	0	
1.5800	8.44856	1.44215	0	
1.5807	11.1943	2.96913	0	
1.5813	7.5269	2.66373	0	
1.5820	4.16668	1.13675	0	
1.5827	8.14134	2.66373	0	
1.5833	8.44856	5.08993	0	
1.5840	2.03534	5.39533	0	
1.5847	-1.93933	3.86835	0	
1.5853	-1.01767	1.74754	0	
1.5860	-1.01767	0.52596	0	
1.5867	-1.01767	0.52596	0	
1.5873	-1.32489	-0.695624	0	
1.5880	-0.0960064	-1.00102	0	
1.5887	3.85946	1.44215	0	
1.5893	6.60524	1.44215	0	
1.5900	7.5269	-1.91721	0	
1.5907	10.5799	-3.13879	0	
1.5913	10.8871	-4.05498	0	
1.5920	8.14134	-8.33052	0	
1.5927	6.60524	-8.33052	0	
1.5933	5.39556	-3.74958	0	
1.5940	2.03534	-3.74958	0	
1.5947	2.64978	-6.19275	0	
1.5953	4.4739	-3.74958	0	
1.5960	2.957	-1.91721	0	
1.5967	0.806454	-3.74958	0	
1.5973	0.192013	-4.05498	0	
1.5980	-0.403227	-2.8334	0	
1.5987	0.192013	-3.74958	0	
1.5993	-0.0960064	-6.49815	0	
1.6000	-2.84179	-4.97117	0	
1.6007	-2.55377	-1.00102	0	
1.6013	-0.403227	2.35834	0	
1.6020	-0.0960064	1.13675	0	
1.6027	1.72812	-0.390228	0	
1.6033	2.64978	1.74754	0	
1.6040	0.192013	4.47914	0	
1.6047	-1.93933	2.96913	0	
1.6053	-2.55377	2.35834	0	
1.6060	-3.76345	3.56295	0	
1.6067	-4.68511	3.56295	0	
1.6073	-5.60677	3.56295	0	
1.6080	-7.43089	6.31152	0	
1.6087	-5.29955	6.00612	0	
1.6093	-1.01767	1.44215	0	
1.6100	0.806454	-0.695624	0	
1.6107	2.957	0.831356	0	
1.6113	5.9908	0.220564	0	
1.6120	5.9908	-2.8334	0	
1.6127	7.21968	-3.13879	0	
1.6133	9.96546	-1.91721	0	
1.6140	6.91246	-2.528	0	
1.6147	3.55224	-4.36038	0	
1.6153	5.9908	-4.05498	0	
1.6160	9.0438	-3.44419	0	
1.6167	9.0438	-1.91721	0	
1.6173	8.14134	0.52596	0	
1.6180	5.9908	-0.0848322	0	
1.6187	2.03534	-1.30642	0	
1.6193	-1.63211	1.74754	0	
1.6200	-2.84179	3.56295	0	
1.6207	-3.76345	1.74754	0	
1.6213	-6.50923	2.35834	0	
1.6220	-10.4839	5.39533	0	
1.6227	-10.7911	2.96913	0	
1.6233	-6.20201	-0.390228	0	
1.6240	-1.93933	0.831356	0	
1.6247	-1.01767	1.74754	0	
1.6253	-1.01767	0.52596	0	
1.6260	-2.24655	0.52596	0	
1.6267	-4.68511	0.220564	0	
1.6273	-4.68511	-0.695624	0	
1.6280	-2.84179	0.831356	0	
1.6287	-1.93933	1.13675	0	
1.6293	-1.32489	-2.2226	0	
1.6300	-1.93933	-3.74958	0	
1.6307	-2.84179	-2.528	0	
1.6313	-1.01767	-1.91721	0	
1.6320	2.64978	-2.8334	0	
1.6327	3.85946	-1.91721	0	
1.6333	2.957	-1.00102	0	
1.6340	1.72812	-2.2226	0	
1.6347	0.192013	-1.61181	0	
1.6353	-2.84179	0.220564	0	
1.6360	-6.20201	-0.695624	0	
1.6367	-6.20201	-1.61181	0	
1.6373	-4.68511	0.831356	0	
1.6380	-6.20201	0.831356	0	
1.6387	-8.35256	-1.61181	0	
1.6393	-8.35256	-0.0848322	0	
1.6400	-8.04534	1.44215	0	
1.6407	-8.9478	-0.390228	0	
1.6413	-9.86946	-1.00102	0	
1.6420	-10.1767	0.831356	0	
1.6427	-8.9478	3.27452	0	
1.6433	-7.12367	5.39533	0	
1.6440	-7.12367	6.00612	0	
1.6447	-7.43089	6.31152	0	
1.6453	-6.50923	7.5331	0	
1.6460	-4.99233	6.61691	0	
1.6467	-4.07067	4.17375	0	
1.6473	-1.32489	5.08993	0	
1.6480	4.16668	6.00612	0	
1.6487	8.14134	2.35834	0	
1.6493	8.14134	-0.0848322	0	
1.6500	9.65824	1.13675	0	
1.6507	12.7112	0.220564	0	
1.6513	10.5799	-1.30642	0	
1.6520	8.73658	-1.00102	0	
1.6527	11.7896	-1.30642	0	
1.6533	9.96546	-2.2226	0	
1.6540	2.03534	-1.00102	0	
1.6547	0.806454	0.220564	0	
1.6553	4.4739	0.831356	0	
1.6560	5.70278	-0.390228	0	
1.6567	8.14134	-3.74958	0	
1.6573	10.8871	-5.58196	0	
1.6580	10.2727	-4.36038	0	
1.6587	10.2727	-2.8334	0	
1.6593	9.65824	-2.2226	0	
1.6600	6.60524	-2.528	0	
1.6607	6.29802	-3.74958	0	
1.6613	8.73658	-3.44419	0	
1.6620	8.14134	-1.91721	0	
1.6627	4.78112	-2.8334	0	
1.6633	2.34256	-2.8334	0	
1.6640	-0.710447	0.220564	0	
1.6647	-3.76345	0.52596	0	
1.6653	-7.43089	-1.91721	0	
1.6660	-11.6936	-0.695624	0	
1.6667	-13.5369	2.35834	0	
1.6673	-12.0008	3.86835	0	
1.6680	-12.9225	5.39533	0	
1.6687	-15.0538	3.86835	0	
1.6693	-13.8441	1.13675	0	
1.6700	-12.6152	0.831356	0	
1.6707	-14.4394	0.831356	0	
1.6713	-15.361	-0.0848322	0	
1.6720	-14.7466	1.44215	0	
1.6727	-15.0538	2.66373	0	
1.6733	-14.7466	1.13675	0	
1.6740	-12.9225	-0.0848322	0	
1.6747	-11.3864	-0.695624	0	
1.6753	-9.86946	-0.390228	0	
1.6760	-5.89479	-0.0848322	0	
1.6767	-2.24655	-2.2226	0	
1.6773	-1.63211	-3.44419	0	
1.6780	-0.403227	-1.30642	0	
1.6787	5.08834	-0.695624	0	
1.6793	11.1943	-1.30642	0	
1.6800	12.0968	-0.695624	0	
1.6807	12.0968	-1.61181	0	
1.6813	13.9401	-2.528	0	
1.6820	12.7112	-1.00102	0	
1.6827	9.96546	-1.61181	0	
1.6833	10.8871	-2.8334	0	
1.6840	9.35102	0.220564	0	
1.6847	4.16668	-0.0848322	0	
1.6853	2.64978	-1.61181	0	
1.6860	2.64978	1.74754	0	
1.6867	0.192013	1.13675	0	
1.6873	-2.55377	-4.05498	0	
1.6880	-1.93933	-3.13879	0	
1.6887	-2.24655	1.13675	0	
1.6893	-2.84179	-1.61181	0	
1.6900	-1.63211	-3.13879	0	
1.6907	0.192013	-0.390228	0	
1.6913	1.42089	-1.61181	0	
1.6920	3.55224	-3.74958	0	
1.6927	8.44856	-3.74958	0	
1.6933	11.7896	-4.97117	0	
1.6940	9.96546	-6.49815	0	
1.6947	5.70278	-6.19275	0	
1.6953	4.4739	-5.58196	0	
1.6960	4.16668	-5.58196	0	
1.6967	2.64978	-3.74958	0	
1.6973	2.64978	-2.8334	0	
1.6980	4.4739	-1.91721	0	
1.6987	5.39556	-1.91721	0	
1.6993	5.39556	-3.13879	0	
1.7000	6.60524	-3.74958	0	
1.7007	7.5269	-3.13879	0	
1.7013	5.70278	-3.44419	0	
1.7020	3.85946	-3.74958	0	
1.7027	4.4739	-2.2226	0	
1.7033	5.39556	0.220564	0	
1.7040	2.957	1.74754	0	
1.7047	1.42089	-0.0848322	0	
1.7053	-0.0960064	-2.528	0	
1.7060	-4.37789	-0.390228	0	
1.7067	-7.43089	2.35834	0	
1.7073	-6.50923	3.27452	0	
1.7080	-4.68511	4.47914	0	
1.7087	-6.20201	4.17375	0	
1.7093	-9.86946	-0.0848322	0	
1.7100	-11.6936	-2.2226	0	
1.7107	-9.86946	-0.695624	0	
1.7113	-8.35256	1.44215	0	
1.7120	-7.73812	2.35834	0	
1.7127	-6.81645	1.44215	0	
1.7133	-7.43089	-0.0848322	0	
1.7140	-7.43089	-0.0848322	0	
1.7147	-3.76345	0.220564	0	
1.7153	-0.710447	1.44215	0	
1.7160	-1.93933	2.66373	0	
1.7167	-2.84179	1.74754	0	
1.7173	-1.93933	0.52596	0	
1.7180	-2.55377	2.35834	0	
1.7187	-3.14901	2.96913	0	
1.7193	-3.14901	0.831356	0	
1.7200	-4.68511	1.44215	0	
1.7207	-6.50923	2.96913	0	
1.7213	-6.50923	1.74754	0	
1.7220	-4.07067	0.831356	0	
1.7227	-1.93933	1.74754	0	
1.7233	-3.14901	0.52596	0	
1.7240	-5.60677	-0.0848322	0	
1.7247	-4.99233	0.831356	0	
1.7253	-2.24655	-0.0848322	0	
1.7260	-0.0960064	-1.30642	0	
1.7267	1.72812	0.220564	0	
1.7273	0.499233	0.52596	0	
1.7280	-2.55377	-1.61181	0	
1.7287	-1.01767	-2.2226	0	
1.7293	2.64978	-2.528	0	
1.7300	0.806454	-2.2226	0	
1.7307	-1.63211	-1.30642	0	
1.7313	-1.32489	-3.74958	0	
1.7320	-2.84179	-6.49815	0	
1.7327	-3.76345	-3.74958	0	
1.7333	-1.32489	-1.00102	0	
1.7340	0.806454	-2.528	0	
1.7347	0.499233	-2.528	0	
1.7353	0.192013	-2.8334	0	
1.7360	1.42089	-5.27656	0	
1.7367	3.55224	-3.74958	0	
1.7373	4.16668	-0.390228	0	
1.7380	1.42089	-0.695624	0	
1.7387	2.64978	-2.2226	0	
1.7393	9.0438	-2.2226	0	
1.7400	13.6329	-2.8334	0	
1.7407	14.2473	-1.91721	0	
1.7413	12.7112	0.220564	0	
1.7420	9.0438	-1.00102	0	
1.7427	8.14134	-2.2226	0	
1.7433	9.0438	0.831356	0	
1.7440	8.14134	2.05294	0	
1.7447	7.5269	-0.0848322	0	
1.7453	8.44856	-0.695624	0	
1.7460	6.60524	-0.0848322	0	
1.7467	5.08834	-1.91721	0	
1.7473	7.21968	-2.528	0	
1.7480	6.91246	-1.00102	0	
1.7487	4.16668	-2.8334	0	
1.7493	4.16668	-5.27656	0	
1.7500	5.70278	-3.74958	0	
1.7507	4.4739	-2.2226	0	
1.7513	0.192013	-0.0848322	0	
1.7520	-1.32489	1.74754	0	
1.7527	1.11367	-0.695624	0	
1.7533	-0.710447	-2.8334	0	
1.7540	-7.43089	-0.0848322	0	
1.7547	-10.7911	1.74754	0	
1.7553	-12.9225	-0.0848322	0	
1.7560	-14.7466	-0.0848322	0	
1.7567	-12.0008	1.44215	0	
1.7573	-11.0983	0.831356	0	
1.7580	-14.1513	1.13675	0	
1.7587	-13.2297	1.44215	0	
1.7593	-10.7911	1.74754	0	
1.7600	-12.6152	3.56295	0	
1.7607	-13.2297	3.86835	0	
1.7613	-12.0008	1.44215	0	
1.7620	-11.0983	1.13675	0	
1.7627	-7.43089	2.96913	0	
1.7633	-4.68511	3.86835	0	
1.7640	-5.29955	4.47914	0	
1.7647	-5.29955	2.35834	0	
1.7653	-5.29955	-0.695624	0	
1.7660	-5.60677	2.05294	0	
1.7667	-3.76345	6.61691	0	
1.7673	-2.84179	5.70073	0	
1.7680	-3.14901	1.74754	0	
1.7687	-1.93933	-1.00102	0	
1.7693	-0.0960064	-1.91721	0	
1.7700	0.806454	1.13675	0	
1.7707	2.957	3.56295	0	
1.7713	3.24502	1.13675	0	
1.7720	3.55224	-1.91721	0	
1.7727	6.60524	-3.44419	0	
1.7733	8.44856	-4.97117	0	
1.7740	10.2727	-3.74958	0	
1.7747	15.1498	-0.390228	0	
1.7753	17.3004	-0.0848322	0	
1.7760	14.5354	-1.00102	0	
1.7767	12.0968	-1.61181	0	
1.7773	10.8871	-1.61181	0	
1.7780	9.65824	1.13675	0	
1.7787	7.83412	3.56295	0	
1.7793	5.70278	0.52596	0	
1.7800	5.08834	-1.91721	0	
1.7807	4.16668	0.220564	0	
1.7813	1.11367	1.74754	0	
1.7820	1.72812	2.66373	0	
1.7827	5.9908	3.56295	0	
1.7833	5.39556	1.44215	0	
1.7840	2.64978	-2.2226	0	
1.7847	5.39556	-2.2226	0	
1.7853	6.29802	0.220564	0	
1.7860	2.03534	1.74754	0	
1.7867	1.72812	1.74754	0	
1.7873	5.39556	0.831356	0	
1.7880	4.78112	1.74754	0	
1.7887	2.34256	0.52596	0	
1.7893	0.192013	-2.2226	0	
1.7900	-1.01767	-2.8334	0	
1.7907	-2.24655	-2.8334	0	
1.7913	-3.76345	-3.13879	0	
1.7920	-4.07067	-2.528	0	
1.7927	-0.0960064	-2.8334	0	
1.7933	4.78112	-4.66577	0	
1.7940	6.60524	-3.74958	0	
1.7947	6.29802	-2.8334	0	
1.7953	3.85946	-2.8334	0	
1.7960	0.806454	-3.44419	0	
1.7967	-0.403227	-3.13879	0	
1.7973	-1.32489	-2.2226	0	
1.7980	-5.60677	-1.30642	0	
1.7987	-8.9478	-1.61181	0	
1.7993	-9.25502	-1.00102	0	
1.8000	-9.86946	1.44215	0	
1.8007	-12.0008	1.13675	0	
1.8013	-13.8441	-0.695624	0	
1.8020	-14.4394	1.44215	0	
1.8027	-12.9225	2.96913	0	
1.8033	-10.1767	1.74754	0	
1.8040	-7.43089	3.56295	0	
1.8047	-4.37789	5.70073	0	
1.8053	-1.93933	3.27452	0	
1.8060	0.499233	2.66373	0	
1.8067	4.4739	5.39533	0	
1.8073	7.5269	2.96913	0	
1.8080	6.91246	-0.695624	0	
1.8087	3.85946	-0.695624	0	
1.8093	2.64978	-1.30642	0	
1.8100	4.4739	-1.91721	0	
1.8107	9.0438	-0.390228	0	
1.8113	9.96546	-1.61181	0	
1.8120	8.14134	-2.8334	0	
1.8127	6.60524	-0.0848322	0	
1.8133	4.78112	-0.390228	0	
1.8140	1.72812	-3.74958	0	
1.8147	-0.0960064	-3.74958	0	
1.8153	0.806454	-2.528	0	
1.8160	2.64978	-1.91721	0	
1.8167	3.55224	-0.390228	0	
1.8173	2.34256	-1.61181	0	
1.8180	-1.93933	-4.66577	0	
1.8187	-4.99233	-2.8334	0	
1.8193	-7.43089	1.74754	0	
1.8200	-9.25502	1.74754	0	
1.8207	-6.50923	-0.390228	0	
1.8213	-3.76345	-1.00102	0	
1.8220	-5.89479	-0.695624	0	
1.8227	-8.35256	1.74754	0	
1.8233	-8.64058	3.86835	0	
1.8240	-9.86946	1.74754	0	
1.8247	-10.1767	-2.528	0	
1.8253	-7.43089	-1.61181	0	
1.8260	-6.50923	1.74754	0	
1.8267	-7.43089	0.831356	0	
1.8273	-7.12367	-1.00102	0	
1.8280	-7.12367	1.74754	0	
1.8287	-5.89479	3.27452	0	
1.8293	-2.55377	0.52596	0	
1.8300	-0.710447	-1.91721	0	
1.8307	-1.01767	-1.91721	0	
1.8313	1.11367	-1.00102	0	
1.8320	2.957	-1.00102	0	
1.8327	1.11367	-1.00102	0	
1.8333	-0.0960064	-0.390228	0	
1.8340	3.24502	0.52596	0	
1.8347	7.21968	-0.0848322	0	
1.8353	8.14134	0.220564	0	
1.8360	7.21968	2.05294	0	
1.8367	7.5269	1.74754	0	
1.8373	9.0438	0.52596	0	
1.8380	10.8871	2.66373	0	
1.8387	9.96546	3.56295	0	
1.8393	4.78112	-0.0848322	0	
1.8400	0.806454	-2.8334	0	
1.8407	-1.01767	-1.61181	0	
1.8413	-3.14901	-0.0848322	0	
1.8420	-4.99233	-0.695624	0	
1.8427	-4.68511	-1.00102	0	
1.8433	-4.68511	-0.390228	0	
1.8440	-4.68511	0.831356	0	
1.8447	-2.24655	1.44215	0	
1.8453	1.72812	-0.0848322	0	
1.8460	6.60524	-1.00102	0	
1.8467	11.7896	0.220564	0	
1.8473	12.404	2.66373	0	
1.8480	11.5016	2.66373	0	
1.8487	11.7896	-0.0848322	0	
1.8493	9.0438	-1.30642	0	
1.8500	3.85946	-1.30642	0	
1.8507	1.72812	-2.528	0	
1.8513	-1.63211	-1.91721	0	
1.8520	-5.60677	0.52596	0	
1.8527	-5.60677	0.831356	0	
1.8533	-4.99233	-1.91721	0	
1.8540	-6.20201	-1.91721	0	
1.8547	-5.89479	0.831356	0	
1.8553	-4.37789	1.13675	0	
1.8560	-3.76345	-1.91721	0	
1.8567	-3.45623	-1.91721	0	
1.8573	-1.93933	0.831356	0	
1.8580	1.42089	0.220564	0	
1.8587	1.72812	-1.61181	0	
1.8593	-3.76345	-0.0848322	0	
1.8600	-7.43089	0.52596	0	
1.8607	-3.76345	-1.00102	0	
1.8613	-1.93933	0.52596	0	
1.8620	-2.84179	0.831356	0	
1.8627	-0.0960064	-3.44419	0	
1.8633	1.72812	-4.66577	0	
1.8640	0.192013	-1.91721	0	
1.8647	-1.01767	0.52596	0	
1.8653	-3.76345	1.74754	0	
1.8660	-7.43089	2.05294	0	
1.8667	-8.35256	2.96913	0	
1.8673	-7.73812	4.78454	0	
1.8680	-9.56224	4.17375	0	
1.8687	-11.0983	1.44215	0	
1.8693	-14.4394	1.74754	0	
1.8700	-17.7996	3.56295	0	
1.8707	-16.5899	3.27452	0	
1.8713	-14.4394	2.05294	0	
1.8720	-14.4394	-0.0848322	0	
1.8727	-12.6152	-2.8334	0	
1.8733	-8.64058	-1.91721	0	
1.8740	-4.07067	-0.0848322	0	
1.8747	2.64978	-1.61181	0	
1.8753	7.21968	-3.13879	0	
1.8760	5.9908	-2.8334	0	
1.8767	3.55224	-1.91721	0	
1.8773	2.64978	-3.44419	0	
1.8780	3.55224	-5.58196	0	
1.8787	4.4739	-6.19275	0	
1.8793	4.16668	-3.74958	0	
1.8800	4.16668	-1.30642	0	
1.8807	5.39556	-1.61181	0	
1.8813	4.78112	-1.30642	0	
1.8820	3.55224	0.220564	0	
1.8827	5.39556	0.831356	0	
1.8833	5.39556	-0.0848322	0	
1.8840	2.64978	-0.0848322	0	
1.8847	3.55224	1.74754	0	
1.8853	7.83412	4.17375	0	
1.8860	8.73658	4.17375	0	
1.8867	8.14134	0.52596	0	
1.8873	8.14134	-1.91721	0	
1.8880	6.29802	0.220564	0	
1.8887	3.24502	2.66373	0	
1.8893	2.03534	1.44215	0	
1.8900	2.64978	-1.00102	0	
1.8907	5.39556	-1.91721	0	
1.8913	7.83412	-0.390228	0	
1.8920	5.39556	-0.695624	0	
1.8927	1.72812	-2.8334	0	
1.8933	2.64978	-3.44419	0	
1.8940	3.85946	-3.74958	0	
1.8947	1.42089	-4.36038	0	
1.8953	-1.32489	-2.8334	0	
1.8960	-3.76345	-0.0848322	0	
1.8967	-4.99233	-1.00102	0	
1.8973	-3.45623	-1.00102	0	
1.8980	-1.01767	0.831356	0	
1.8987	-1.63211	0.52596	0	
1.8993	-2.55377	-0.390228	0	
1.9000	-1.01767	-0.0848322	0	
1.9007	1.42089	0.220564	0	
1.9013	2.03534	-0.0848322	0	
1.9020	0.192013	-0.0848322	0	
1.9027	0.499233	1.13675	0	
1.9033	4.16668	2.35834	0	
1.9040	5.39556	1.74754	0	
1.9047	2.03534	0.52596	0	
1.9053	1.42089	0.831356	0	
1.9060	5.39556	1.13675	0	
1.9067	7.5269	2.05294	0	
1.9073	6.29802	4.17375	0	
1.9080	4.4739	4.47914	0	
1.9087	2.957	2.35834	0	
1.9093	3.85946	0.52596	0	
1.9100	6.29802	0.220564	0	
1.9107	4.4739	-1.00102	0	
1.9113	1.42089	-2.528	0	
1.9120	2.957	-1.30642	0	
1.9127	7.83412	1.13675	0	
1.9133	8.14134	-0.390228	0	
1.9140	5.9908	-3.13879	0	
1.9147	2.957	-2.8334	0	
1.9153	0.806454	-1.91721	0	
1.9160	-0.0960064	-2.528	0	
1.9167	-2.84179	-2.2226	0	
1.9173	-8.04534	-2.528	0	
1.9180	-12.6152	-3.13879	0	
1.9187	-14.1513	-1.91721	0	
1.9193	-14.7466	-0.390228	0	
1.9200	-15.6682	0.831356	0	
1.9207	-13.8441	0.831356	0	
1.9213	-9.25502	-1.30642	0	
1.9220	-7.12367	-1.61181	0	
1.9227	-8.04534	2.35834	0	
1.9233	-5.89479	3.56295	0	
1.9240	-1.93933	1.74754	0	
1.9247	-1.01767	2.35834	0	
1.9253	-0.403227	2.05294	0	
1.9260	1.11367	-0.0848322	0	
1.9267	-0.403227	-0.0848322	0	
1.9273	-1.01767	-0.390228	0	
1.9280	2.64978	-2.2226	0	
1.9287	3.55224	-2.528	0	
1.9293	1.42089	-1.91721	0	
1.9300	1.42089	-3.44419	0	
1.9307	2.34256	-3.44419	0	
1.9313	2.34256	0.220564	0	
1.9320	3.85946	1.74754	0	
1.9327	6.29802	-1.00102	0	
1.9333	7.5269	-1.00102	0	
1.9340	9.0438	0.831356	0	
1.9347	9.65824	-1.00102	0	
1.9353	9.65824	-3.13879	0	
1.9360	9.96546	-1.00102	0	
1.9367	9.65824	0.831356	0	
1.9373	7.21968	0.52596	0	
1.9380	5.39556	1.13675	0	
1.9387	5.39556	-0.390228	0	
1.9393	4.16668	-4.66577	0	
1.9400	0.806454	-4.36038	0	
1.9407	-4.07067	0.220564	0	
1.9413	-8.04534	1.74754	0	
1.9420	-9.56224	-1.30642	0	
1.9427	-7.43089	-1.00102	0	
1.9433	-5.60677	2.35834	0	
1.9440	-8.04534	2.66373	0	
1.9447	-9.86946	0.220564	0	
1.9453	-6.50923	-0.390228	0	
1.9460	-4.37789	-0.695624	0	
1.9467	-7.43089	-1.00102	0	
1.9473	-10.1767	0.831356	0	
1.9480	-9.86946	2.66373	0	
1.9487	-8.64058	2.35834	0	
1.9493	-5.60677	2.05294	0	
1.9500	-1.32489	1.44215	0	
1.9507	1.72812	-0.390228	0	
1.9513	3.24502	-0.0848322	0	
1.9520	2.64978	1.74754	0	
1.9527	-1.01767	-1.00102	0	
1.9533	-4.07067	-5.58196	0	
1.9540	-4.68511	-4.66577	0	
1.9547	-4.07067	-1.91721	0	
1.9553	-3.14901	-1.91721	0	
1.9560	-4.07067	-3.74958	0	
1.9567	-4.68511	-3.74958	0	
1.9573	-0.710447	-3.13879	0	
1.9580	2.03534	-1.61181	0	
1.9587	-0.710447	-2.528	0	
1.9593	-1.01767	-4.66577	0	
1.9600	2.03534	-3.44419	0	
1.9607	0.499233	-0.0848322	0	
1.9613	-1.63211	-0.0848322	0	
1.9620	-0.0960064	-1.30642	0	
1.9627	-0.710447	-0.0848322	0	
1.9633	-2.24655	2.05294	0	
1.9640	-0.403227	4.47914	0	
1.9647	-1.32489	4.47914	0	
1.9653	-4.99233	1.74754	0	
1.9660	-5.60677	1.74754	0	
1.9667	-4.07067	6.00612	0	
1.9673	-4.68511	7.8385	0	
1.9680	-3.45623	5.08993	0	
1.9687	-1.93933	3.86835	0	
1.9693	-2.84179	5.08993	0	
1.9700	-2.84179	5.70073	0	
1.9707	-1.93933	6.31152	0	
1.9713	-3.14901	4.47914	0	
1.9720	-4.68511	-0.0848322	0	
1.9727	-4.37789	-0.695624	0	
1.9733	-2.84179	1.74754	0	
1.9740	0.806454	1.74754	0	
1.9747	4.4739	0.831356	0	
1.9753	3.55224	1.74754	0	
1.9760	2.64978	0.831356	0	
1.9767	4.4739	-0.695624	0	
1.9773	3.55224	1.13675	0	
1.9780	2.64978	2.35834	0	
1.9787	6.29802	0.52596	0	
1.9793	9.65824	-0.0848322	0	
1.9800	9.0438	0.220564	0	
1.9807	9.35102	-1.00102	0	
1.9813	9.0438	-1.91721	0	
1.9820	5.39556	-1.30642	0	
1.9827	2.64978	-1.91721	0	
1.9833	0.192013	-1.61181	0	
1.9840	-0.710447	2.05294	0	
1.9847	0.806454	2.66373	0	
1.9853	1.11367	-0.0848322	0	
1.9860	-1.32489	0.831356	0	
1.9867	-3.14901	2.96913	0	
1.9873	-4.68511	1.74754	0	
1.9880	-7.43089	-0.0848322	0	
1.9887	-8.9478	0.831356	0	
1.9893	-9.86946	3.56295	0	
1.9900	-7.73812	3.56295	0	
1.9907	-4.37789	-0.0848322	0	
1.9913	-6.50923	-1.91721	0	
1.9920	-9.56224	-1.00102	0	
1.9927	-7.43089	-2.8334	0	
1.9933	-5.60677	-5.27656	0	
1.9940	-6.20201	-3.44419	0	
1.9947	-3.45623	-0.0848322	0	
1.9953	-3.45623	-1.61181	0	
1.9960	-7.43089	-4.36038	0	
1.9967	-5.60677	-4.36038	0	
1.9973	-0.403227	-1.91721	0	
1.9980	-1.01767	-0.0848322	0	
1.9987	-1.93933	-1.00102	0	
1.9993	-0.403227	-1.91721	0	
2.0000	-1.01767	0.52596	0	
2.0007	-1.32489	2.35834	0	
2.0013	0.806454	-0.0848322	0	
2.0020	1.42089	-3.44419	0	
2.0027	1.42089	-3.13879	0	
2.0033	3.85946	-1.61181	0	
2.0040	5.39556	-1.30642	0	
2.0047	3.55224	-0.0848322	0	
2.0053	2.64978	1.74754	0	
2.0060	5.9908	0.220564	0	
2.0067	9.35102	-2.2226	0	
2.0073	9.35102	-1.61181	0	
2.0080	8.14134	0.220564	0	
2.0087	8.73658	-0.695624	0	
2.0093	9.0438	-3.44419	0	
2.0100	9.65824	-3.13879	0	
2.0107	11.5016	-1.00102	0	
2.0113	9.96546	-1.61181	0	
2.0120	5.9908	-2.8334	0	
2.0127	4.4739	-1.00102	0	
2.0133	3.55224	-1.30642	0	
2.0140	-0.403227	-4.36038	0	
2.0147	-3.45623	-3.13879	0	
2.0153	-1.93933	0.831356	0	
2.0160	-2.55377	-0.0848322	0	
2.0167	-5.89479	-1.91721	0	
2.0173	-7.73812	-2.528	0	
2.0180	-9.25502	-4.66577	0	
2.0187	-10.1767	-4.97117	0	
2.0193	-8.64058	-1.30642	0	
2.0200	-6.50923	-0.0848322	0	
2.0207	-5.60677	-1.61181	0	
2.0213	-4.37789	-0.0848322	0	
2.0220	-5.60677	1.44215	0	
2.0227	-8.35256	-1.00102	0	
2.0233	-6.50923	-2.2226	0	
2.0240	-1.01767	-1.30642	0	
2.0247	1.42089	-1.61181	0	
2.0253	2.64978	-2.2226	0	
2.0260	5.70278	-1.91721	0	
2.0267	7.21968	-1.30642	0	
2.0273	7.5269	0.831356	0	
2.0280	7.5269	3.86835	0	
2.0287	5.9908	2.05294	0	
2.0293	4.16668	-2.528	0	
2.0300	2.957	-3.13879	0	
2.0307	0.192013	-1.61181	0	
2.0313	-1.93933	-0.695624	0	
2.0320	-2.24655	1.13675	0	
2.0327	-3.14901	1.74754	0	
2.0333	-5.60677	-0.0848322	0	
2.0340	-5.60677	0.220564	0	
2.0347	-0.403227	0.52596	0	
2.0353	7.21968	-1.61181	0	
2.0360	12.0968	-0.695624	0	
2.0367	14.5354	1.13675	0	
2.0373	16.6859	-2.8334	0	
2.0380	15.457	-6.49815	0	
2.0387	11.7896	-2.8334	0	
2.0393	10.2727	-0.0848322	0	
2.0400	9.65824	-2.8334	0	
2.0407	7.5269	-3.74958	0	
2.0413	4.78112	-3.74958	0	
2.0420	-0.0960064	-4.66577	0	
2.0427	-5.60677	-3.74958	0	
2.0433	-6.81645	-1.00102	0	
2.0440	-7.12367	1.74754	0	
2.0447	-9.25502	3.27452	0	
2.0453	-8.04534	3.27452	0	
2.0460	-4.07067	1.13675	0	
2.0467	-4.68511	0.220564	0	
2.0473	-7.12367	1.13675	0	
2.0480	-4.37789	2.05294	0	
2.0487	-0.710447	1.74754	0	
2.0493	1.42089	0.220564	0	
2.0500	3.55224	-0.0848322	0	
2.0507	3.55224	2.05294	0	
2.0513	-0.0960064	2.35834	0	
2.0520	0.806454	-0.390228	0	
2.0527	4.4739	-1.00102	0	
2.0533	1.72812	-0.0848322	0	
2.0540	-2.84179	-0.390228	0	
2.0547	-3.76345	-0.0848322	0	
2.0553	-6.50923	0.831356	0	
2.0560	-11.0983	-1.61181	0	
2.0567	-12.308	-4.66577	0	
2.0573	-13.2297	-2.8334	0	
2.0580	-15.6682	-0.390228	0	
2.0587	-14.7466	-0.0848322	0	
2.0593	-13.2297	0.52596	0	
2.0600	-13.8441	0.831356	0	
2.0607	-12.9225	-1.00102	0	
2.0613	-9.56224	-1.00102	0	
2.0620	-6.50923	0.831356	0	
2.0627	-3.76345	0.831356	0	
2.0633	-1.63211	0.52596	0	
2.0640	-1.01767	1.13675	0	
2.0647	0.192013	-0.0848322	0	
2.0653	2.64978	-1.00102	0	
2.0660	2.64978	0.831356	0	
2.0667	-1.32489	1.74754	0	
2.0673	-3.76345	0.220564	0	
2.0680	-1.93933	-0.390228	0	
2.0687	-0.0960064	0.52596	0	
2.0693	-0.0960064	1.74754	0	
2.0700	-1.32489	1.74754	0	
2.0707	-2.84179	-0.0848322	0	
2.0713	-4.07067	0.831356	0	
2.0720	-2.84179	2.05294	0	
2.0727	-0.0960064	1.44215	0	
2.0733	2.03534	-0.390228	0	
2.0740	4.78112	-1.00102	0	
2.0747	8.44856	-0.390228	0	
2.0753	9.0438	0.220564	0	
2.0760	10.2727	0.52596	0	
2.0767	13.6329	-0.0848322	0	
2.0773	11.7896	-1.00102	0	
2.0780	5.39556	-1.00102	0	
2.0787	3.55224	-0.0848322	0	
2.0793	5.39556	0.831356	0	
2.0800	2.64978	0.220564	0	
2.0807	-1.01767	-0.0848322	0	
2.0813	-0.0960064	0.831356	0	
2.0820	1.72812	1.74754	0	
2.0827	0.806454	2.35834	0	
2.0833	0.192013	1.13675	0	
2.0840	-1.01767	-0.0848322	0	
2.0847	-4.37789	0.831356	0	
2.0853	-4.68511	0.831356	0	
2.0860	-0.710447	-0.0848322	0	
2.0867	0.806454	0.220564	0	
2.0873	0.806454	1.13675	0	
2.0880	7.21968	-0.0848322	0	
2.0887	12.0968	-1.91721	0	
2.0893	10.8871	-3.44419	0	
2.0900	11.5016	-4.66577	0	
2.0907	10.8871	-3.74958	0	
2.0913	4.78112	-0.695624	0	
2.0920	2.957	0.220564	0	
2.0927	5.08834	-1.00102	0	
2.0933	1.11367	-2.528	0	
2.0940	-4.07067	-3.13879	0	
2.0947	-2.55377	-2.528	0	
2.0953	-1.93933	-2.2226	0	
2.0960	-4.68511	-3.74958	0	
2.0967	-4.68511	-4.36038	0	
2.0973	-3.14901	-3.74958	0	
2.0980	-1.32489	-4.05498	0	
2.0987	0.192013	-4.36038	0	
2.0993	0.806454	-1.91721	0	
2.1000	3.55224	-1.61181	0	
2.1007	9.65824	-4.05498	0	
2.1013	11.1943	-3.74958	0	
2.1020	6.91246	-1.91721	0	
2.1027	4.16668	-1.61181	0	
2.1033	4.4739	0.52596	0	
2.1040	5.9908	1.74754	0	
2.1047	7.21968	0.831356	0	
2.1053	3.55224	2.66373	0	
2.1060	-1.93933	4.47914	0	
2.1067	-3.45623	1.74754	0	
2.1073	-4.99233	1.13675	0	
2.1080	-9.56224	3.56295	0	
2.1087	-12.0008	2.66373	0	
2.1093	-12.308	2.05294	0	
2.1100	-14.4394	4.17375	0	
2.1107	-15.6682	3.86835	0	
2.1113	-15.6682	2.66373	0	
2.1120	-15.6682	3.56295	0	
2.1127	-15.9755	2.66373	0	
2.1133	-15.9755	1.13675	0	
2.1140	-15.0538	0.831356	0	
2.1147	-13.5369	1.44215	0	
2.1153	-13.8441	1.74754	0	
2.1160	-13.5369	1.44215	0	
2.1167	-7.12367	0.52596	0	
2.1173	-0.0960064	0.52596	0	
2.1180	1.72812	1.13675	0	
2.1187	1.72812	1.74754	0	
2.1193	3.55224	1.74754	0	
2.1200	6.60524	0.831356	0	
2.1207	8.44856	-0.695624	0	
2.1213	6.91246	-0.0848322	0	
2.1220	4.16668	0.52596	0	
2.1227	4.16668	-1.00102	0	
2.1233	5.39556	-1.30642	0	
2.1240	4.4739	0.831356	0	
2.1247	2.957	2.96913	0	
2.1253	3.85946	2.96913	0	
2.1260	4.16668	2.05294	0	
2.1267	1.72812	1.13675	0	
2.1273	-1.01767	1.74754	0	
2.1280	-0.710447	0.831356	0	
2.1287	-0.0960064	-2.8334	0	
2.1293	-1.01767	-3.74958	0	
2.1300	-1.01767	-1.00102	0	
2.1307	-1.32489	-0.390228	0	
2.1313	-3.45623	-2.8334	0	
2.1320	-4.99233	-3.44419	0	
2.1327	-4.68511	-1.91721	0	
2.1333	-2.24655	-0.0848322	0	
2.1340	0.806454	-0.0848322	0	
2.1347	2.34256	-1.00102	0	
2.1353	2.64978	-1.91721	0	
2.1360	3.55224	-2.2226	0	
2.1367	5.70278	-3.44419	0	
2.1373	9.0438	-3.44419	0	
2.1380	11.1943	-2.528	0	
2.1387	9.96546	-2.8334	0	
2.1393	8.14134	-4.36038	0	
2.1400	8.44856	-4.66577	0	
2.1407	7.83412	-2.8334	0	
2.1413	4.16668	0.52596	0	
2.1420	2.03534	0.831356	0	
2.1427	3.55224	-1.91721	0	
2.1433	4.4739	-1.30642	0	
2.1440	2.957	1.74754	0	
2.1447	1.72812	0.52596	0	
2.1453	1.42089	-1.91721	0	
2.1460	1.72812	0.831356	0	
2.1467	1.42089	3.56295	0	
2.1473	-1.01767	2.66373	0	
2.1480	-3.45623	-0.695624	0	
2.1487	-2.84179	-2.8334	0	
2.1493	-4.37789	-1.00102	0	
2.1500	-11.3864	2.66373	0	
2.1507	-17.4924	3.86835	0	
2.1513	-17.4924	2.96913	0	
2.1520	-14.1513	0.831356	0	
2.1527	-11.0983	-2.528	0	
2.1533	-10.1767	-2.528	0	
2.1540	-6.50923	-1.00102	0	
2.1547	0.499233	-1.00102	0	
2.1553	3.85946	-1.00102	0	
2.1560	4.78112	-1.30642	0	
2.1567	9.0438	-3.74958	0	
2.1573	12.7112	-3.44419	0	
2.1580	12.7112	0.52596	0	
2.1587	13.0185	0.831356	0	
2.1593	11.7896	-1.00102	0	
2.1600	7.21968	-1.00102	0	
2.1607	5.39556	-1.30642	0	
2.1613	5.39556	-1.61181	0	
2.1620	1.11367	-1.30642	0	
2.1627	-4.07067	-1.91721	0	
2.1633	-5.89479	-1.00102	0	
2.1640	-7.43089	0.831356	0	
2.1647	-11.0983	-1.00102	0	
2.1653	-12.0008	-2.8334	0	
2.1660	-9.25502	-1.30642	0	
2.1667	-7.43089	-0.390228	0	
2.1673	-8.04534	-1.30642	0	
2.1680	-6.81645	-0.0848322	0	
2.1687	-4.68511	1.74754	0	
2.1693	-6.50923	-0.0848322	0	
2.1700	-6.20201	-0.0848322	0	
2.1707	0.192013	2.96913	0	
2.1713	5.70278	1.74754	0	
2.1720	5.08834	-1.61181	0	
2.1727	2.957	-0.0848322	0	
2.1733	3.24502	0.52596	0	
2.1740	4.78112	-2.2226	0	
2.1747	7.83412	-2.8334	0	
2.1753	10.8871	-2.8334	0	
2.1760	9.96546	-4.05498	0	
2.1767	7.21968	-2.2226	0	
2.1773	5.39556	-1.00102	0	
2.1780	2.64978	-3.74958	0	
2.1787	-1.01767	-3.74958	0	
2.1793	-2.84179	-0.0848322	0	
2.1800	-4.68511	-0.0848322	0	
2.1807	-10.1767	1.44215	0	
2.1813	-12.9225	3.86835	0	
2.1820	-11.6936	0.831356	0	
2.1827	-12.0008	-0.0848322	0	
2.1833	-14.4394	5.70073	0	
2.1840	-14.4394	6.31152	0	
2.1847	-11.0983	2.66373	0	
2.1853	-7.43089	3.56295	0	
2.1860	-5.29955	5.39533	0	
2.1867	-4.68511	3.56295	0	
2.1873	-5.89479	2.96913	0	
2.1880	-5.89479	3.56295	0	
2.1887	-1.93933	1.74754	0	
2.1893	3.85946	-1.30642	0	
2.1900	9.35102	-2.8334	0	
2.1907	13.0185	-3.74958	0	
2.1913	15.457	-3.74958	0	
2.1920	18.51	-3.74958	0	
2.1927	23.0799	-3.74958	0	
2.1933	24.616	-3.74958	0	
2.1940	20.3342	-3.74958	0	
2.1947	15.457	-4.05498	0	
2.1953	13.9401	-4.36038	0	
2.1960	13.0185	-2.2226	0	
2.1967	9.35102	-0.0848322	0	
2.1973	4.16668	-1.00102	0	
2.1980	-1.63211	-2.2226	0	
2.1987	-7.43089	-2.2226	0	
2.1993	-10.7911	-2.2226	0	
2.2000	-12.308	-1.00102	0	
2.2007	-16.2827	1.44215	0	
2.2013	-20.2381	1.74754	0	
2.2020	-18.1068	0.831356	0	
2.2027	-13.8441	-0.0848322	0	
2.2033	-14.7466	0.831356	0	
2.2040	-17.7996	2.66373	0	
2.2047	-16.5899	1.74754	0	
2.2053	-13.2297	0.52596	0	
2.2060	-9.56224	0.52596	0	
2.2067	-6.50923	-0.0848322	0	
2.2073	-5.60677	-0.695624	0	
2.2080	-5.29955	0.831356	0	
2.2087	-3.14901	-0.0848322	0	
2.2093	-0.403227	-2.8334	0	
2.2100	0.806454	-1.00102	0	
2.2107	0.499233	1.74754	0	
2.2113	-1.01767	0.220564	0	
2.2120	-1.93933	-1.61181	0	
2.2127	-2.24655	-1.91721	0	
2.2133	-1.63211	-2.8334	0	
2.2140	0.806454	-2.8334	0	
2.2147	2.64978	-1.30642	0	
2.2153	1.72812	-0.390228	0	
2.2160	2.03534	-0.695624	0	
2.2167	3.55224	-0.695624	0	
2.2173	4.4739	-1.00102	0	
2.2180	6.29802	-2.2226	0	
2.2187	9.65824	-2.2226	0	
2.2193	11.1943	-2.528	0	
2.2200	12.404	-2.2226	0	
2.2207	14.5354	0.220564	0	
2.2213	15.457	1.44215	0	
2.2220	13.0185	-1.91721	0	
2.2227	9.0438	-2.528	0	
2.2233	6.29802	0.831356	0	
2.2240	4.4739	0.831356	0	
2.2247	0.499233	-1.00102	0	
2.2253	-4.68511	0.52596	0	
2.2260	-5.89479	0.831356	0	
2.2267	-4.68511	-1.91721	0	
2.2273	-6.20201	-0.390228	0	
2.2280	-8.9478	3.27452	0	
2.2287	-8.64058	1.74754	0	
2.2293	-4.37789	-1.91721	0	
2.2300	0.806454	-1.91721	0	
2.2307	4.4739	-0.0848322	0	
2.2313	8.14134	0.52596	0	
2.2320	11.7896	-0.695624	0	
2.2327	12.7112	-1.91721	0	
2.2333	12.0968	-2.528	0	
2.2340	14.8426	-3.13879	0	
2.2347	15.457	-4.36038	0	
2.2353	10.8871	-3.44419	0	
2.2360	7.83412	-1.30642	0	
2.2367	5.70278	-3.13879	0	
2.2373	1.42089	-3.74958	0	
2.2380	1.72812	1.44215	0	
2.2387	3.85946	4.78454	0	
2.2393	0.499233	1.74754	0	
2.2400	-4.07067	-0.695624	0	
2.2407	-3.76345	0.831356	0	
2.2413	-5.60677	4.17375	0	
2.2420	-8.9478	6.31152	0	
2.2427	-8.9478	5.70073	0	
2.2433	-9.25502	4.17375	0	
2.2440	-9.56224	4.17375	0	
2.2447	-6.20201	4.17375	0	
2.2453	-5.60677	3.27452	0	
2.2460	-10.1767	2.66373	0	
2.2467	-12.308	2.66373	0	
2.2473	-10.1767	3.27452	0	
2.2480	-8.35256	3.56295	0	
2.2487	-5.60677	2.05294	0	
2.2493	-3.14901	0.831356	0	
2.2500	-1.01767	2.05294	0	
2.2507	2.64978	2.05294	0	
2.2513	4.78112	0.52596	0	
2.2520	3.55224	-0.0848322	0	
2.2527	2.64978	-1.00102	0	
2.2533	5.08834	-2.8334	0	
2.2540	7.21968	-2.8334	0	
2.2547	5.9908	-1.91721	0	
2.2553	3.55224	-1.00102	0	
2.2560	2.03534	0.831356	0	
2.2567	-1.93933	-0.0848322	0	
2.2573	-7.12367	-2.8334	0	
2.2580	-7.43089	-2.528	0	
2.2587	-4.37789	-1.00102	0	
2.2593	-5.60677	-2.2226	0	
2.2600	-8.04534	-2.8334	0	
2.2607	-5.89479	-2.8334	0	
2.2613	-4.07067	-3.44419	0	
2.2620	-1.93933	-3.13879	0	
2.2627	4.4739	-1.61181	0	
2.2633	7.83412	-0.695624	0	
2.2640	4.78112	-0.0848322	0	
2.2647	3.55224	-0.0848322	0	
2.2653	3.55224	-0.0848322	0	
2.2660	0.192013	-0.390228	0	
2.2667	-1.32489	-0.0848322	0	
2.2673	-2.84179	-0.0848322	0	
2.2680	-7.43089	0.831356	0	
2.2687	-9.25502	1.74754	0	
2.2693	-9.56224	1.13675	0	
2.2700	-14.4394	1.13675	0	
2.2707	-20.8526	1.44215	0	
2.2713	-22.0815	1.74754	0	
2.2720	-18.414	2.66373	0	
2.2727	-15.9755	2.66373	0	
2.2733	-14.7466	0.220564	0	
2.2740	-12.0008	-1.30642	0	
2.2747	-9.25502	-1.00102	0	
2.2753	-8.64058	-1.00102	0	
2.2760	-4.37789	-0.695624	0	
2.2767	2.03534	0.831356	0	
2.2773	3.55224	0.220564	0	
2.2780	5.39556	-0.0848322	0	
2.2787	11.1943	0.831356	0	
2.2793	13.0185	0.831356	0	
2.2800	8.73658	-0.0848322	0	
2.2807	6.91246	-0.390228	0	
2.2813	7.5269	-1.91721	0	
2.2820	7.83412	-3.44419	0	
2.2827	8.44856	-2.8334	0	
2.2833	8.14134	-1.91721	0	
2.2840	4.78112	-1.61181	0	
2.2847	2.34256	-1.61181	0	
2.2853	2.957	-1.91721	0	
2.2860	6.29802	-1.00102	0	
2.2867	7.21968	-1.00102	0	
2.2873	5.08834	-2.8334	0	
2.2880	3.85946	-3.74958	0	
2.2887	4.4739	-3.74958	0	
2.2893	4.16668	-2.8334	0	
2.2900	4.16668	0.220564	0	
2.2907	4.16668	-0.390228	0	
2.2913	3.24502	-4.97117	0	
2.2920	4.4739	-4.05498	0	
2.2927	7.5269	-0.0848322	0	
2.2933	7.21968	-2.8334	0	
2.2940	3.85946	-5.58196	0	
2.2947	2.64978	-3.74958	0	
2.2953	2.64978	-2.8334	0	
2.2960	0.806454	-2.8334	0	
2.2967	-1.93933	-0.0848322	0	
2.2973	-4.07067	0.831356	0	
2.2980	-3.76345	-2.2226	0	
2.2987	-1.01767	-2.528	0	
2.2993	1.42089	-0.0848322	0	
2.3000	1.72812	-1.61181	0	
2.3007	-0.0960064	-5.58196	0	
2.3013	-0.710447	-6.49815	0	
2.3020	1.42089	-3.13879	0	
2.3027	2.34256	0.52596	0	
2.3033	0.192013	0.831356	0	
2.3040	-0.710447	-0.695624	0	
2.3047	2.03534	-1.30642	0	
2.3053	3.24502	-1.91721	0	
2.3060	2.64978	-1.00102	0	
2.3067	2.03534	0.52596	0	
2.3073	0.806454	0.220564	0	
2.3080	-0.0960064	-1.00102	0	
2.3087	1.72812	-0.0848322	0	
2.3093	5.39556	0.52596	0	
2.3100	7.83412	-0.695624	0	
2.3107	6.91246	-1.30642	0	
2.3113	3.55224	-1.30642	0	
2.3120	2.957	-2.2226	0	
2.3127	4.78112	-2.8334	0	
2.3133	3.24502	-1.61181	0	
2.3140	-1.01767	-1.00102	0	
2.3147	-4.68511	-0.390228	0	
2.3153	-8.04534	0.831356	0	
2.3160	-10.1767	1.44215	0	
2.3167	-8.04534	-1.00102	0	
2.3173	-8.04534	-4.05498	0	
2.3180	-11.0983	-2.8334	0	
2.3187	-11.0983	-0.390228	0	
2.3193	-7.12367	-1.91721	0	
2.3200	-4.99233	-4.36038	0	
2.3207	-3.45623	-3.44419	0	
2.3213	-1.01767	-1.00102	0	
2.3220	-0.0960064	0.52596	0	
2.3227	-1.01767	1.74754	0	
2.3233	-2.24655	1.74754	0	
2.3240	-2.55377	0.52596	0	
2.3247	-2.24655	1.44215	0	
2.3253	-2.55377	2.96913	0	
2.3260	-3.14901	2.66373	0	
2.3267	-3.76345	2.05294	0	
2.3273	-3.45623	1.74754	0	
2.3280	-5.60677	2.05294	0	
2.3287	-9.56224	3.56295	0	
2.3293	-11.0983	3.56295	0	
2.3300	-9.56224	2.66373	0	
2.3307	-9.25502	4.47914	0	
2.3313	-8.35256	6.61691	0	
2.3320	-3.76345	3.56295	0	
2.3327	-0.0960064	0.52596	0	
2.3333	1.72812	0.52596	0	
2.3340	4.16668	-0.0848322	0	
2.3347	5.70278	-0.0848322	0	
2.3353	2.957	0.831356	0	
2.3360	-0.0960064	0.831356	0	
2.3367	-0.0960064	1.74754	0	
2.3373	-0.710447	4.47914	0	
2.3380	-2.84179	3.27452	0	
2.3387	-2.84179	0.220564	0	
2.3393	-1.32489	1.13675	0	
2.3400	-1.93933	2.96913	0	
2.3407	-3.76345	2.05294	0	
2.3413	-4.68511	1.44215	0	
2.3420	-4.99233	0.831356	0	
2.3427	-2.84179	-0.0848322	0	
2.3433	-0.0960064	0.831356	0	
2.3440	-0.403227	2.66373	0	
2.3447	-1.32489	1.74754	0	
2.3453	1.72812	-0.0848322	0	
2.3460	4.4739	0.220564	0	
2.3467	3.55224	-0.390228	0	
2.3473	3.24502	-2.8334	0	
2.3480	5.39556	-1.30642	0	
2.3487	6.29802	2.66373	0	
2.3493	6.60524	0.831356	0	
2.3500	5.9908	-3.74958	0	
2.3507	3.55224	-2.8334	0	
2.3513	2.03534	0.220564	0	
2.3520	1.11367	-1.00102	0	
2.3527	1.11367	-3.74958	0	
2.3533	2.64978	-4.36038	0	
2.3540	2.34256	-5.27656	0	
2.3547	-1.93933	-6.49815	0	
2.3553	-1.93933	-5.27656	0	
2.3560	1.72812	-3.74958	0	
2.3567	1.72812	-4.66577	0	
2.3573	0.806454	-5.88736	0	
2.3580	2.03534	-5.58196	0	
2.3587	0.806454	-3.13879	0	
2.3593	-0.0960064	-1.30642	0	
2.3600	3.55224	-1.30642	0	
2.3607	7.21968	-0.695624	0	
2.3613	6.91246	1.13675	0	
2.3620	4.78112	0.831356	0	
2.3627	4.4739	-1.00102	0	
2.3633	7.21968	-0.0848322	0	
2.3640	8.44856	1.13675	0	
2.3647	4.4739	-0.0848322	0	
2.3653	1.11367	-0.390228	0	
2.3660	3.24502	0.52596	0	
2.3667	5.39556	-1.61181	0	
2.3673	5.9908	-4.05498	0	
2.3680	8.73658	-3.74958	0	
2.3687	9.96546	-1.30642	0	
2.3693	7.21968	-1.30642	0	
2.3700	6.91246	-1.61181	0	
2.3707	8.14134	-0.695624	0	
2.3713	4.16668	-1.00102	0	
2.3720	-2.84179	-1.61181	0	
2.3727	-7.12367	-1.30642	0	
2.3733	-8.35256	-1.91721	0	
2.3740	-10.1767	-1.30642	0	
2.3747	-12.0008	1.74754	0	
2.3753	-12.9225	1.74754	0	
2.3760	-13.2297	-0.0848322	0	
2.3767	-11.6936	-0.0848322	0	
2.3773	-8.35256	0.52596	0	
2.3780	-7.12367	-0.390228	0	
2.3787	-10.1767	-0.390228	0	
2.3793	-11.0983	0.831356	0	
2.3800	-8.35256	1.74754	0	
2.3807	-7.12367	1.74754	0	
2.3813	-8.9478	-0.0848322	0	
2.3820	-8.04534	-1.00102	0	
2.3827	-6.20201	0.831356	0	
2.3833	-9.25502	2.66373	0	
2.3840	-12.9225	3.56295	0	
2.3847	-11.0983	3.56295	0	
2.3853	-7.12367	2.66373	0	
2.3860	-5.89479	1.74754	0	
2.3867	-3.14901	1.74754	0	
2.3873	1.72812	-0.0848322	0	
2.3880	3.85946	-0.0848322	0	
2.3887	3.55224	1.74754	0	
2.3893	3.85946	0.831356	0	
2.3900	4.4739	-1.00102	0	
2.3907	3.85946	-1.30642	0	
2.3913	4.4739	-2.528	0	
2.3920	5.08834	-2.2226	0	
2.3927	4.16668	-0.695624	0	
2.3933	4.4739	-1.61181	0	
2.3940	5.70278	-1.61181	0	
2.3947	4.4739	0.52596	0	
2.3953	5.08834	-1.00102	0	
2.3960	9.96546	-3.44419	0	
2.3967	12.7112	-1.91721	0	
2.3973	10.2727	-1.91721	0	
2.3980	7.5269	-4.05498	0	
2.3987	5.70278	-4.05498	0	
2.3993	6.60524	-3.74958	0	
2.4000	9.96546	-6.19275	0	
2.4007	9.0438	-5.58196	0	
2.4013	4.4739	-2.2226	0	
2.4020	5.39556	-2.8334	0	
2.4027	7.21968	-3.74958	0	
2.4033	4.4739	-0.695624	0	
2.4040	1.72812	0.220564	0	
2.4047	0.499233	-0.695624	0	
2.4053	-1.63211	1.74754	0	
2.4060	-3.14901	2.05294	0	
2.4067	-3.45623	-1.91721	0	
2.4073	-6.50923	-2.8334	0	
2.4080	-9.25502	-1.61181	0	
2.4087	-7.12367	-1.00102	0	
2.4093	-4.99233	2.05294	0	
2.4100	-4.99233	3.56295	0	
2.4107	-4.07067	1.74754	0	
2.4113	-3.14901	1.74754	0	
2.4120	-3.76345	2.35834	0	
2.4127	-3.76345	-0.390228	0	
2.4133	-4.68511	0.220564	0	
2.4140	-5.29955	3.56295	0	
2.4147	-3.45623	4.17375	0	
2.4153	-0.403227	3.56295	0	
2.4160	1.72812	2.35834	0	
2.4167	5.39556	0.52596	0	
2.4173	9.0438	1.44215	0	
2.4180	8.44856	2.66373	0	
2.4187	8.14134	0.831356	0	
2.4193	11.7896	-1.00102	0	
2.4200	13.9401	-1.00102	0	
2.4207	13.6329	-1.00102	0	
2.4213	14.5354	-0.695624	0	
2.4220	13.6329	-1.61181	0	
2.4227	9.96546	-2.2226	0	
2.4233	9.0438	-1.00102	0	
2.4240	9.65824	0.220564	0	
2.4247	9.35102	0.831356	0	
2.4253	10.2727	1.44215	0	
2.4260	9.96546	0.831356	0	
2.4267	7.5269	-1.00102	0	
2.4273	7.83412	-1.91721	0	
2.4280	9.0438	-2.528	0	
2.4287	6.29802	-1.61181	0	
2.4293	2.957	0.831356	0	
2.4300	2.64978	0.831356	0	
2.4307	1.72812	-0.0848322	0	
2.4313	-0.403227	-0.695624	0	
2.4320	-2.84179	-1.91721	0	
2.4327	-7.43089	-1.61181	0	
2.4333	-12.308	0.220564	0	
2.4340	-14.7466	-1.00102	0	
2.4347	-17.4924	-2.2226	0	
2.4353	-22.0815	0.831356	0	
2.4360	-24.8273	0.220564	0	
2.4367	-24.8273	-3.74958	0	
2.4373	-25.7297	-4.36038	0	
2.4380	-26.9586	-1.61181	0	
2.4387	-25.7297	-0.390228	0	
2.4393	-21.1598	-1.61181	0	
2.4400	-18.1068	-1.30642	0	
2.4407	-18.414	2.66373	0	
2.4413	-15.6682	4.47914	0	
2.4420	-10.1767	1.44215	0	
2.4427	-8.35256	0.831356	0	
2.4433	-6.50923	4.47914	0	
2.4440	0.806454	4.47914	0	
2.4447	6.60524	2.05294	0	
2.4453	8.14134	3.56295	0	
2.4460	8.73658	3.27452	0	
2.4467	9.35102	1.74754	0	
2.4473	8.73658	4.17375	0	
2.4480	9.0438	5.39533	0	
2.4487	8.44856	2.05294	0	
2.4493	5.08834	1.13675	0	
2.4500	3.24502	0.831356	0	
2.4507	3.55224	-2.8334	0	
2.4513	2.957	-4.36038	0	
2.4520	2.957	-1.00102	0	
2.4527	4.4739	-0.0848322	0	
2.4533	5.39556	-2.2226	0	
2.4540	4.4739	-2.8334	0	
2.4547	2.34256	-3.44419	0	
2.4553	1.72812	-4.36038	0	
2.4560	0.806454	-4.05498	0	
2.4567	-1.32489	-2.8334	0	
2.4573	-1.01767	-2.528	0	
2.4580	0.806454	-2.8334	0	
2.4587	-1.01767	-1.91721	0	
2.4593	-2.84179	-0.390228	0	
2.4600	-1.01767	-0.390228	0	
2.4607	-0.710447	-1.91721	0	
2.4613	-1.01767	-3.74958	0	
2.4620	1.72812	-4.05498	0	
2.4627	4.78112	-3.44419	0	
2.4633	6.91246	-2.8334	0	
2.4640	7.21968	-2.8334	0	
2.4647	5.9908	-2.528	0	
2.4653	5.9908	-1.91721	0	
2.4660	8.14134	-1.30642	0	
2.4667	6.29802	0.220564	0	
2.4673	1.72812	0.831356	0	
2.4680	0.806454	-1.30642	0	
2.4687	0.806454	-1.00102	0	
2.4693	-1.93933	1.44215	0	
2.4700	-1.63211	-1.30642	0	
2.4707	2.64978	-3.74958	0	
2.4713	3.24502	-1.30642	0	
2.4720	1.42089	0.220564	0	
2.4727	2.957	-0.695624	0	
2.4733	5.08834	-0.390228	0	
2.4740	3.55224	-1.91721	0	
2.4747	2.64978	-3.74958	0	
2.4753	4.4739	-2.8334	0	
2.4760	4.4739	-2.2226	0	
2.4767	5.08834	-2.8334	0	
2.4773	6.60524	-1.00102	0	
2.4780	4.78112	-1.00102	0	
2.4787	2.957	-3.13879	0	
2.4793	5.9908	-3.74958	0	
2.4800	6.91246	-3.74958	0	
2.4807	3.24502	-3.74958	0	
2.4813	2.64978	-3.13879	0	
2.4820	5.70278	-2.528	0	
2.4827	9.0438	-1.91721	0	
2.4833	11.7896	-1.30642	0	
2.4840	15.1498	-2.8334	0	
2.4847	15.457	-3.74958	0	
2.4853	13.3257	-0.695624	0	
2.4860	10.5799	1.74754	0	
2.4867	7.83412	0.831356	0	
2.4873	4.4739	0.52596	0	
2.4880	0.806454	1.74754	0	
2.4887	-2.84179	2.66373	0	
2.4893	-2.84179	1.74754	0	
2.4900	-3.76345	-0.0848322	0	
2.4907	-10.4839	-0.390228	0	
2.4913	-15.0538	2.05294	0	
2.4920	-14.7466	2.05294	0	
2.4927	-16.5899	0.52596	0	
2.4933	-21.1598	1.74754	0	
2.4940	-22.3887	3.56295	0	
2.4947	-21.7743	1.74754	0	
2.4953	-21.7743	1.44215	0	
2.4960	-22.0815	4.47914	0	
2.4967	-20.8526	6.00612	0	
2.4973	-17.7996	4.47914	0	
2.4980	-14.7466	2.66373	0	
2.4987	-13.8441	2.66373	0	
2.4993	-10.4839	4.47914	0	
2.5000	-6.20201	5.39533	0	
2.5007	-5.29955	4.47914	0	
2.5013	-2.84179	4.47914	0	
2.5020	7.21968	5.39533	0	
2.5027	16.3787	6.31152	0	
2.5033	17.3004	6.31152	0	
2.5040	17.5884	3.27452	0	
2.5047	18.51	-1.91721	0	
2.5053	15.7642	-2.528	0	
2.5060	12.0968	2.05294	0	
2.5067	9.96546	3.56295	0	
2.5073	5.9908	0.220564	0	
2.5080	1.72812	-1.00102	0	
2.5087	0.192013	-1.30642	0	
2.5093	-1.32489	-1.00102	0	
2.5100	-3.76345	0.831356	0	
2.5107	-5.29955	-1.61181	0	
2.5113	-6.50923	-4.97117	0	
2.5120	-7.73812	-1.91721	0	
2.5127	-8.9478	0.831356	0	
2.5133	-11.0983	-2.8334	0	
2.5140	-13.8441	-1.91721	0	
2.5147	-12.6152	1.74754	0	
2.5153	-8.35256	-1.30642	0	
2.5160	-4.68511	-2.8334	0	
2.5167	-2.84179	1.74754	0	
2.5173	-2.84179	1.74754	0	
2.5180	-2.24655	-1.61181	0	
2.5187	-0.403227	-0.0848322	0	
2.5193	-0.0960064	2.35834	0	
2.5200	-1.63211	2.66373	0	
2.5207	-1.63211	1.74754	0	
2.5213	-0.0960064	2.35834	0	
2.5220	-1.32489	3.56295	0	
2.5227	-4.07067	2.66373	0	
2.5233	-4.99233	-0.695624	0	
2.5240	-3.76345	-0.695624	0	
2.5247	-1.93933	1.13675	0	
2.5253	-2.24655	0.831356	0	
2.5260	-2.84179	-1.00102	0	
2.5267	-1.32489	-1.30642	0	
2.5273	-1.01767	-0.695624	0	
2.5280	-0.710447	1.13675	0	
2.5287	3.55224	2.66373	0	
2.5293	7.21968	1.13675	0	
2.5300	5.08834	-1.00102	0	
2.5307	4.78112	-0.0848322	0	
2.5313	9.65824	2.35834	0	
2.5320	9.96546	-1.61181	0	
2.5327	6.91246	-7.41434	0	
2.5333	8.44856	-4.66577	0	
2.5340	11.1943	-1.61181	0	
2.5347	10.2727	-3.74958	0	
2.5353	7.83412	-4.05498	0	
2.5360	5.08834	-2.2226	0	
2.5367	3.24502	-4.36038	0	
2.5373	2.957	-5.58196	0	
2.5380	2.34256	-2.8334	0	
2.5387	2.64978	-4.36038	0	
2.5393	4.78112	-6.49815	0	
2.5400	3.55224	-2.8334	0	
2.5407	2.03534	0.220564	0	
2.5413	3.55224	-1.30642	0	
2.5420	4.4739	-1.00102	0	
2.5427	3.55224	1.74754	0	
2.5433	2.957	0.220564	0	
2.5440	0.192013	-2.2226	0	
2.5447	-2.84179	0.52596	0	
2.5453	-2.24655	2.05294	0	
2.5460	-1.32489	-1.00102	0	
2.5467	-2.84179	-1.00102	0	
2.5473	-4.37789	2.66373	0	
2.5480	-4.99233	2.35834	0	
2.5487	-6.50923	0.220564	0	
2.5493	-9.56224	0.831356	0	
2.5500	-11.0983	1.13675	0	
2.5507	-9.25502	1.44215	0	
2.5513	-8.04534	2.35834	0	
2.5520	-8.9478	0.52596	0	
2.5527	-8.9478	-1.61181	0	
2.5533	-7.12367	-0.390228	0	
2.5540	-6.81645	-0.390228	0	
2.5547	-5.60677	-3.13879	0	
2.5553	-0.403227	-3.74958	0	
2.5560	3.55224	-2.8334	0	
2.5567	3.55224	-1.91721	0	
2.5573	2.64978	-1.91721	0	
2.5580	3.55224	-2.2226	0	
2.5587	5.39556	-3.13879	0	
2.5593	5.9908	-1.91721	0	
2.5600	4.78112	-0.390228	0	
2.5607	3.55224	-0.0848322	0	
2.5613	3.55224	0.220564	0	
2.5620	2.64978	-0.695624	0	
2.5627	-0.0960064	-4.66577	0	
2.5633	-4.37789	-4.36038	0	
2.5640	-9.25502	1.13675	0	
2.5647	-11.0983	3.56295	0	
2.5653	-8.35256	1.13675	0	
2.5660	-6.50923	0.831356	0	
2.5667	-8.35256	2.35834	0	
2.5673	-7.73812	3.56295	0	
2.5680	-4.68511	2.66373	0	
2.5687	-2.84179	-0.0848322	0	
2.5693	-2.24655	-0.695624	0	
2.5700	-1.32489	1.13675	0	
2.5707	-0.0960064	0.831356	0	
2.5713	1.72812	-0.695624	0	
2.5720	2.64978	-0.695624	0	
2.5727	4.16668	0.220564	0	
2.5733	7.21968	-0.0848322	0	
2.5740	6.29802	-1.91721	0	
2.5747	4.16668	-3.74958	0	
2.5753	7.83412	-3.74958	0	
2.5760	13.3257	-2.8334	0	
2.5767	15.7642	-2.8334	0	
2.5773	18.51	-2.2226	0	
2.5780	19.1245	-0.390228	0	
2.5787	14.5354	0.220564	0	
2.5793	9.65824	-0.0848322	0	
2.5800	6.60524	-1.30642	0	
2.5807	3.55224	-2.8334	0	
2.5813	1.42089	-1.30642	0	
2.5820	-1.32489	2.66373	0	
2.5827	-8.35256	2.05294	0	
2.5833	-13.8441	-1.00102	0	
2.5840	-15.0538	0.52596	0	
2.5847	-15.6682	2.66373	0	
2.5853	-14.1513	-0.0848322	0	
2.5860	-12.6152	-1.00102	0	
2.5867	-15.9755	2.66373	0	
2.5873	-17.4924	5.39533	0	
2.5880	-10.7911	2.96913	0	
2.5887	-6.50923	1.44215	0	
2.5893	-9.25502	2.35834	0	
2.5900	-8.64058	2.05294	0	
2.5907	-4.99233	-0.0848322	0	
2.5913	-4.37789	-0.0848322	0	
2.5920	-3.14901	2.05294	0	
2.5927	-1.32489	2.66373	0	
2.5933	-2.24655	2.66373	0	
2.5940	-2.55377	2.35834	0	
2.5947	-1.93933	2.05294	0	
2.5953	-2.24655	3.56295	0	
2.5960	-1.01767	3.86835	0	
2.5967	0.806454	0.52596	0	
2.5973	-0.403227	-0.390228	0	
2.5980	-0.403227	0.831356	0	
2.5987	1.11367	-1.00102	0	
2.5993	-1.32489	-1.91721	0	
2.6000	-3.14901	0.52596	0	
2.6007	0.499233	-1.91721	0	
2.6013	2.34256	-3.74958	0	
2.6020	0.499233	-1.00102	0	
2.6027	1.11367	0.52596	0	
2.6033	2.64978	-0.390228	0	
2.6040	2.64978	1.13675	0	
2.6047	2.957	-0.390228	0	
2.6053	4.78112	-4.05498	0	
2.6060	3.24502	-1.91721	0	
2.6067	2.03534	2.66373	0	
2.6073	5.39556	2.35834	0	
2.6080	7.83412	0.831356	0	
2.6087	7.21968	0.831356	0	
2.6093	6.29802	0.831356	0	
2.6100	5.08834	-1.30642	0	
2.6107	1.72812	-3.44419	0	
2.6113	-0.403227	-1.91721	0	
2.6120	1.11367	-0.695624	0	
2.6127	3.55224	-3.44419	0	
2.6133	2.957	-4.66577	0	
2.6140	1.72812	-3.74958	0	
2.6147	2.64978	-3.13879	0	
2.6153	4.4739	-3.44419	0	
2.6160	3.85946	-1.61181	0	
2.6167	2.03534	-2.528	0	
2.6173	0.806454	-6.49815	0	
2.6180	1.42089	-6.49815	0	
2.6187	2.957	-2.528	0	
2.6193	2.03534	-1.61181	0	
2.6200	-1.93933	-2.8334	0	
2.6207	-2.55377	-1.61181	0	
2.6213	-1.93933	-1.91721	0	
2.6220	-2.84179	-4.97117	0	
2.6227	-2.55377	-3.74958	0	
2.6233	-0.0960064	0.220564	0	
2.6240	1.42089	-0.0848322	0	
2.6247	2.64978	-3.74958	0	
2.6253	3.55224	-4.36038	0	
2.6260	5.9908	-3.44419	0	
2.6267	9.96546	-3.13879	0	
2.6273	13.6329	-2.8334	0	
2.6280	13.6329	-3.74958	0	
2.6287	13.0185	-4.66577	0	
2.6293	12.7112	-3.74958	0	
2.6300	11.7896	-1.00102	0	
2.6307	10.5799	-1.91721	0	
2.6313	8.14134	-5.27656	0	
2.6320	4.4739	-4.66577	0	
2.6327	1.11367	-2.8334	0	
2.6333	-1.32489	-3.74958	0	
2.6340	-3.45623	-3.74958	0	
2.6347	-5.60677	-1.00102	0	
2.6353	-9.25502	-0.0848322	0	
2.6360	-12.6152	-0.695624	0	
2.6367	-13.8441	0.52596	0	
2.6373	-15.361	2.35834	0	
2.6380	-17.7996	3.27452	0	
2.6387	-17.4924	3.56295	0	
2.6393	-13.8441	3.56295	0	
2.6400	-11.0983	3.27452	0	
2.6407	-10.1767	3.56295	0	
2.6413	-9.86946	3.27452	0	
2.6420	-8.35256	2.66373	0	
2.6427	-6.50923	4.47914	0	
2.6433	-4.07067	6.31152	0	
2.6440	-1.93933	4.47914	0	
2.6447	0.192013	2.66373	0	
2.6453	2.64978	3.27452	0	
2.6460	3.85946	2.66373	0	
2.6467	3.24502	0.831356	0	
2.6473	1.11367	1.44215	0	
2.6480	1.72812	2.66373	0	
2.6487	3.24502	1.44215	0	
2.6493	2.64978	0.220564	0	
2.6500	2.64978	1.44215	0	
2.6507	4.16668	0.831356	0	
2.6513	6.29802	-1.91721	0	
2.6520	7.83412	-4.05498	0	
2.6527	8.44856	-4.05498	0	
2.6533	5.39556	-2.8334	0	
2.6540	-0.0960064	-1.91721	0	
2.6547	-2.55377	-2.528	0	
2.6553	-1.01767	-4.66577	0	
2.6560	0.806454	-5.58196	0	
2.6567	0.192013	-1.00102	0	
2.6573	-5.60677	3.56295	0	
2.6580	-8.9478	-0.390228	0	
2.6587	-5.29955	-6.19275	0	
2.6593	-2.24655	-4.05498	0	
2.6600	-5.60677	-1.00102	0	
2.6607	-9.56224	-2.8334	0	
2.6613	-10.1767	-2.528	0	
2.6620	-7.43089	0.831356	0	
2.6627	-3.76345	0.220564	0	
2.6633	-2.84179	0.220564	0	
2.6640	-3.45623	4.17375	0	
2.6647	-1.63211	4.17375	0	
2.6653	2.64978	1.13675	0	
2.6660	3.85946	0.831356	0	
2.6667	3.55224	1.44215	0	
2.6673	3.85946	0.52596	0	
2.6680	4.16668	-0.390228	0	
2.6687	2.64978	-0.390228	0	
2.6693	2.64978	0.831356	0	
2.6700	4.4739	1.13675	0	
2.6707	3.55224	-1.00102	0	
2.6713	2.34256	-0.0848322	0	
2.6720	2.03534	2.35834	0	
2.6727	0.806454	0.831356	0	
2.6733	0.192013	-1.61181	0	
2.6740	2.03534	-1.91721	0	
2.6747	1.11367	-2.8334	0	
2.6753	-1.63211	-1.30642	0	
2.6760	-2.55377	0.831356	0	
2.6767	-1.32489	-0.0848322	0	
2.6773	0.806454	-1.61181	0	
2.6780	2.34256	-1.91721	0	
2.6787	0.806454	-1.61181	0	
2.6793	0.499233	-1.00102	0	
2.6800	1.42089	-0.0848322	0	
2.6807	-1.32489	-1.00102	0	
2.6813	-2.84179	-1.00102	0	
2.6820	0.499233	-0.0848322	0	
2.6827	2.64978	-1.00102	0	
2.6833	3.24502	-1.00102	0	
2.6840	5.9908	1.44215	0	
2.6847	9.35102	1.44215	0	
2.6853	13.6329	-1.00102	0	
2.6860	20.0461	-1.30642	0	
2.6867	22.7919	-0.695624	0	
2.6873	18.8173	-1.30642	0	
2.6880	14.5354	-2.2226	0	
2.6887	12.0968	-1.61181	0	
2.6893	9.0438	-1.30642	0	
2.6900	5.08834	-2.8334	0	
2.6907	0.192013	-2.8334	0	
2.6913	-5.60677	-1.91721	0	
2.6920	-12.0008	-2.8334	0	
2.6927	-17.1851	-2.8334	0	
2.6933	-19.9501	-0.0848322	0	
2.6940	-21.467	-0.695624	0	
2.6947	-23.9056	-3.44419	0	
2.6953	-23.5984	-2.528	0	
2.6960	-19.6429	1.13675	0	
2.6967	-18.414	1.74754	0	
2.6973	-20.2381	-0.390228	0	
2.6980	-18.414	-1.00102	0	
2.6987	-16.2827	2.35834	0	
2.6993	-15.0538	4.47914	0	
2.7000	-11.6936	4.17375	0	
2.7007	-8.35256	4.47914	0	
2.7013	-7.73812	5.39533	0	
2.7020	-4.99233	5.39533	0	
2.7027	0.806454	5.39533	0	
2.7033	5.9908	3.86835	0	
2.7040	11.5016	0.831356	0	
2.7047	15.1498	0.220564	0	
2.7053	13.9401	1.44215	0	
2.7060	13.0185	0.52596	0	
2.7067	14.8426	-0.390228	0	
2.7073	13.6329	0.831356	0	
2.7080	8.14134	0.831356	0	
2.7087	4.78112	-1.30642	0	
2.7093	4.16668	-1.00102	0	
2.7100	1.72812	-0.695624	0	
2.7107	-1.63211	-2.8334	0	
2.7113	-1.93933	-2.2226	0	
2.7120	-5.29955	0.220564	0	
2.7127	-11.6936	-0.0848322	0	
2.7133	-12.6152	-0.390228	0	
2.7140	-9.56224	1.44215	0	
2.7147	-9.86946	-0.0848322	0	
2.7153	-8.64058	-3.13879	0	
2.7160	-4.07067	-1.00102	0	
2.7167	-2.55377	2.96913	0	
2.7173	-1.32489	2.05294	0	
2.7180	2.64978	-0.0848322	0	
2.7187	5.9908	-0.0848322	0	
2.7193	9.0438	-0.0848322	0	
2.7200	12.7112	0.52596	0	
2.7207	10.8871	2.05294	0	
2.7213	5.39556	2.05294	0	
2.7220	5.70278	-1.30642	0	
2.7227	4.78112	-3.13879	0	
2.7233	-0.0960064	-0.0848322	0	
2.7240	-1.93933	3.27452	0	
2.7247	-2.84179	2.66373	0	
2.7253	-8.04534	1.13675	0	
2.7260	-12.308	1.13675	0	
2.7267	-12.6152	-0.0848322	0	
2.7273	-10.4839	-1.30642	0	
2.7280	-7.73812	0.52596	0	
2.7287	-6.20201	2.66373	0	
2.7293	-6.50923	1.74754	0	
2.7300	-5.89479	-1.00102	0	
2.7307	-2.84179	-2.2226	0	
2.7313	2.64978	-1.91721	0	
2.7320	6.29802	-1.00102	0	
2.7327	6.29802	-0.390228	0	
2.7333	4.78112	-1.00102	0	
2.7340	5.70278	-1.91721	0	
2.7347	4.16668	-0.0848322	0	
2.7353	0.806454	1.13675	0	
2.7360	1.42089	-1.30642	0	
2.7367	2.64978	-2.2226	0	
2.7373	3.24502	-0.390228	0	
2.7380	3.85946	-1.30642	0	
2.7387	2.957	-3.13879	0	
2.7393	2.64978	-1.91721	0	
2.7400	5.70278	-1.00102	0	
2.7407	7.5269	-1.00102	0	
2.7413	8.14134	-1.61181	0	
2.7420	13.0185	-4.05498	0	
2.7427	16.3787	-4.66577	0	
2.7433	13.0185	-2.528	0	
2.7440	10.8871	-2.528	0	
2.7447	12.7112	-3.74958	0	
2.7453	14.8426	-4.36038	0	
2.7460	15.1498	-5.88736	0	
2.7467	13.6329	-4.97117	0	
2.7473	11.5016	-2.8334	0	
2.7480	9.0438	-4.36038	0	
2.7487	6.91246	-5.58196	0	
2.7493	5.70278	-4.05498	0	
2.7500	4.16668	-4.36038	0	
2.7507	0.192013	-4.36038	0	
2.7513	-3.45623	-2.8334	0	
2.7520	-4.68511	-3.74958	0	
2.7527	-8.04534	-3.74958	0	
2.7533	-12.9225	-0.695624	0	
2.7540	-16.2827	1.13675	0	
2.7547	-17.4924	0.52596	0	
2.7553	-15.6682	-0.0848322	0	
2.7560	-13.2297	-0.695624	0	
2.7567	-16.2827	0.831356	0	
2.7573	-18.414	3.27452	0	
2.7580	-13.8441	3.56295	0	
2.7587	-9.25502	2.35834	0	
2.7593	-8.04534	1.13675	0	
2.7600	-4.37789	0.52596	0	
2.7607	-1.32489	-0.0848322	0	
2.7613	-1.32489	0.831356	0	
2.7620	0.499233	2.96913	0	
2.7627	2.64978	3.86835	0	
2.7633	2.64978	2.05294	0	
2.7640	2.64978	0.831356	0	
2.7647	6.29802	1.74754	0	
2.7653	10.2727	0.831356	0	
2.7660	12.404	-0.695624	0	
2.7667	13.6329	-0.695624	0	
2.7673	15.7642	-1.91721	0	
2.7680	16.0715	-3.44419	0	
2.7687	12.404	-1.00102	0	
2.7693	7.5269	1.74754	0	
2.7700	3.85946	-0.0848322	0	
2.7707	-0.403227	-1.91721	0	
2.7713	-5.60677	-0.0848322	0	
2.7720	-7.43089	-0.0848322	0	
2.7727	-7.43089	-1.91721	0	
2.7733	-8.35256	-3.13879	0	
2.7740	-11.0983	-2.528	0	
2.7747	-12.0008	-1.91721	0	
2.7753	-11.3864	-2.8334	0	
2.7760	-10.7911	-2.2226	0	
2.7767	-10.1767	-1.30642	0	
2.7773	-10.1767	-2.2226	0	
2.7780	-11.0983	-1.91721	0	
2.7787	-11.3864	-0.0848322	0	
2.7793	-8.35256	-1.30642	0	
2.7800	-6.50923	-2.2226	0	
2.7807	-8.64058	0.220564	0	
2.7813	-10.1767	2.05294	0	
2.7820	-9.56224	1.74754	0	
2.7827	-11.0983	2.66373	0	
2.7833	-9.86946	3.56295	0	
2.7840	-4.37789	4.17375	0	
2.7847	-1.63211	4.78454	0	
2.7853	-3.45623	4.17375	0	
2.7860	-2.84179	2.66373	0	
2.7867	-0.0960064	1.74754	0	
2.7873	-0.0960064	2.05294	0	
2.7880	-1.32489	2.96913	0	
2.7887	0.806454	4.78454	0	
2.7893	4.4739	4.47914	0	
2.7900	6.29802	1.44215	0	
2.7907	5.9908	-1.00102	0	
2.7913	6.29802	-1.91721	0	
2.7920	6.60524	-2.8334	0	
2.7927	5.9908	-3.74958	0	
2.7933	7.21968	-3.74958	0	
2.7940	8.44856	-4.36038	0	
2.7947	6.60524	-4.66577	0	
2.7953	4.4739	-4.36038	0	
2.7960	5.39556	-4.05498	0	
2.7967	7.5269	-2.8334	0	
2.7973	8.14134	-1.30642	0	
2.7980	7.21968	-2.8334	0	
2.7987	5.70278	-4.66577	0	
2.7993	5.9908	-4.36038	0	
2.8000	7.5269	-2.528	0	
2.8007	7.83412	0.52596	0	
2.8013	5.70278	1.13675	0	
2.8020	2.64978	-0.695624	0	
2.8027	0.806454	-0.0848322	0	
2.8033	1.72812	2.96913	0	
2.8040	3.85946	2.96913	0	
2.8047	4.16668	2.05294	0	
2.8053	2.957	3.56295	0	
2.8060	3.55224	3.27452	0	
2.8067	4.16668	2.66373	0	
2.8073	4.78112	4.47914	0	
2.8080	5.39556	3.86835	0	
2.8087	2.34256	0.831356	0	
2.8093	-1.63211	-0.0848322	0	
2.8100	0.499233	-0.0848322	0	
2.8107	2.64978	-0.0848322	0	
2.8113	0.192013	0.220564	0	
2.8120	0.806454	-2.2226	0	
2.8127	4.4739	-5.27656	0	
2.8133	3.24502	-3.74958	0	
2.8140	-1.01767	-1.00102	0	
2.8147	-1.93933	-1.61181	0	
2.8153	-3.76345	-0.695624	0	
2.8160	-5.60677	-0.390228	0	
2.8167	-5.89479	-1.91721	0	
2.8173	-9.25502	-1.91721	0	
2.8180	-14.4394	-3.13879	0	
2.8187	-13.8441	-3.74958	0	
2.8193	-11.0983	-0.0848322	0	
2.8200	-12.9225	1.44215	0	
2.8207	-14.4394	0.220564	0	
2.8213	-12.0008	2.66373	0	
2.8220	-11.0983	4.78454	0	
2.8227	-10.7911	2.96913	0	
2.8233	-6.20201	3.86835	0	
2.8240	-3.14901	5.70073	0	
2.8247	-4.68511	2.35834	0	
2.8253	-4.07067	-0.390228	0	
2.8260	-2.24655	1.13675	0	
2.8267	0.806454	2.96913	0	
2.8273	6.91246	1.74754	0	
2.8280	12.0968	-0.695624	0	
2.8287	15.1498	-0.0848322	0	
2.8293	20.0461	1.44215	0	
2.8300	22.7919	-1.00102	0	
2.8307	19.4317	-2.8334	0	
2.8313	15.457	-0.0848322	0	
2.8320	13.3257	-1.61181	0	
2.8327	9.0438	-4.97117	0	
2.8333	4.78112	-4.05498	0	
2.8340	-0.710447	-3.74958	0	
2.8347	-8.35256	-6.19275	0	
2.8353	-10.4839	-5.58196	0	
2.8360	-6.81645	-2.8334	0	
2.8367	-4.37789	-1.30642	0	
2.8373	-3.76345	0.52596	0	
2.8380	-1.93933	1.74754	0	
2.8387	-2.55377	0.831356	0	
2.8393	-5.89479	0.831356	0	
2.8400	-10.1767	1.74754	0	
2.8407	-12.9225	0.831356	0	
2.8413	-11.6936	0.220564	0	
2.8420	-11.0983	0.220564	0	
2.8427	-14.1513	0.831356	0	
2.8433	-16.8971	2.66373	0	
2.8440	-16.2827	4.17375	0	
2.8447	-16.2827	2.96913	0	
2.8453	-15.6682	3.56295	0	
2.8460	-12.9225	5.08993	0	
2.8467	-11.0983	4.17375	0	
2.8473	-11.3864	1.74754	0	
2.8480	-8.64058	0.52596	0	
2.8487	-5.60677	0.220564	0	
2.8493	-4.68511	0.831356	0	
2.8500	-3.45623	1.44215	0	
2.8507	0.192013	0.831356	0	
2.8513	3.55224	-0.390228	0	
2.8520	6.29802	-1.61181	0	
2.8527	6.29802	-2.528	0	
2.8533	4.4739	-2.2226	0	
2.8540	3.85946	-0.0848322	0	
2.8547	5.9908	0.831356	0	
2.8553	6.29802	0.831356	0	
2.8560	5.08834	1.74754	0	
2.8567	5.39556	0.831356	0	
2.8573	6.91246	-1.91721	0	
2.8580	6.29802	-1.91721	0	
2.8587	3.55224	1.44215	0	
2.8593	2.34256	2.35834	0	
2.8600	3.55224	-0.0848322	0	
2.8607	4.78112	-0.0848322	0	
2.8613	4.16668	1.44215	0	
2.8620	3.55224	1.13675	0	
2.8627	2.03534	0.831356	0	
2.8633	-0.0960064	0.52596	0	
2.8640	0.806454	-0.0848322	0	
2.8647	3.85946	0.831356	0	
2.8653	4.4739	0.831356	0	
2.8660	5.39556	-0.0848322	0	
2.8667	9.35102	0.52596	0	
2.8673	11.1943	1.44215	0	
2.8680	13.3257	1.13675	0	
2.8687	20.0461	1.74754	0	
2.8693	25.5377	1.74754	0	
2.8700	25.8449	-2.2226	0	
2.8707	25.5377	-3.74958	0	
2.8713	24.9233	-1.91721	0	
2.8720	21.563	-1.91721	0	
2.8727	16.3787	-4.05498	0	
2.8733	7.83412	-3.74958	0	
2.8740	-0.403227	-3.44419	0	
2.8747	-4.37789	-4.05498	0	
2.8753	-7.43089	-3.74958	0	
2.8760	-14.7466	-4.05498	0	
2.8767	-20.8526	-6.49815	0	
2.8773	-22.0815	-6.80354	0	
2.8780	-22.0815	-3.74958	0	
2.8787	-20.2381	-1.91721	0	
2.8793	-15.6682	-3.74958	0	
2.8800	-12.0008	-2.8334	0	
2.8807	-8.9478	1.44215	0	
2.8813	-5.29955	1.13675	0	
2.8820	-3.76345	-1.61181	0	
2.8827	-4.07067	-0.390228	0	
2.8833	-4.37789	1.74754	0	
2.8840	-4.37789	1.44215	0	
2.8847	-3.76345	1.74754	0	
2.8853	-3.76345	2.66373	0	
2.8860	-6.20201	2.35834	0	
2.8867	-9.25502	1.74754	0	
2.8873	-10.1767	2.05294	0	
2.8880	-10.7911	4.17375	0	
2.8887	-9.86946	4.78454	0	
2.8893	-7.43089	0.831356	0	
2.8900	-7.43089	-1.30642	0	
2.8907	-9.25502	3.56295	0	
2.8913	-8.64058	6.00612	0	
2.8920	-6.20201	3.56295	0	
2.8927	-5.60677	0.831356	0	
2.8933	-4.99233	-1.91721	0	
2.8940	-2.84179	-3.13879	0	
2.8947	-1.32489	0.52596	0	
2.8953	0.192013	2.66373	0	
2.8960	1.72812	-0.0848322	0	
2.8967	1.72812	-0.695624	0	
2.8973	1.72812	2.35834	0	
2.8980	2.957	2.35834	0	
2.8987	4.16668	-1.30642	0	
2.8993	4.16668	-1.91721	0	
2.9000	4.16668	0.831356	0	
2.9007	2.64978	-0.390228	0	
2.9013	0.806454	-2.8334	0	
2.9020	0.806454	0.220564	0	
2.9027	1.42089	2.35834	0	
2.9033	0.192013	0.831356	0	
2.9040	0.806454	2.96913	0	
2.9047	3.55224	3.56295	0	
2.9053	4.4739	-1.00102	0	
2.9060	1.72812	-0.695624	0	
2.9067	1.11367	2.35834	0	
2.9073	4.78112	-0.0848322	0	
2.9080	7.21968	-1.00102	0	
2.9087	5.08834	0.831356	0	
2.9093	2.64978	-1.00102	0	
2.9100	3.24502	-3.74958	0	
2.9107	5.39556	-3.44419	0	
2.9113	6.29802	-2.528	0	
2.9120	4.4739	-1.30642	0	
2.9127	2.34256	-1.00102	0	
2.9133	2.03534	-2.2226	0	
2.9140	2.957	-1.91721	0	
2.9147	4.4739	-1.91721	0	
2.9153	5.08834	-3.44419	0	
2.9160	3.55224	-1.91721	0	
2.9167	2.03534	-0.0848322	0	
2.9173	4.4739	-0.390228	0	
2.9180	6.91246	0.220564	0	
2.9187	7.5269	1.13675	0	
2.9193	10.2727	-0.390228	0	
2.9200	13.6329	-2.2226	0	
2.9207	16.0715	-3.44419	0	
2.9213	23.6944	-4.66577	0	
2.9220	31.9317	-3.74958	0	
2.9227	31.9317	-0.695624	0	
2.9233	29.8004	-0.0848322	0	
2.9240	28.8787	-1.00102	0	
2.9247	24.9233	-0.695624	0	
2.9253	20.6414	-0.695624	0	
2.9260	17.3004	-1.91721	0	
2.9267	9.65824	-2.528	0	
2.9273	0.806454	-1.91721	0	
2.9280	-4.37789	-0.390228	0	
2.9287	-9.56224	0.831356	0	
2.9293	-15.6682	-0.695624	0	
2.9300	-19.6429	-2.528	0	
2.9307	-21.467	-1.91721	0	
2.9313	-20.8526	-1.00102	0	
2.9320	-17.4924	-0.390228	0	
2.9327	-15.6682	1.13675	0	
2.9333	-15.361	1.74754	0	
2.9340	-13.8441	0.220564	0	
2.9347	-12.0008	0.220564	0	
2.9353	-11.0983	-0.0848322	0	
2.9360	-9.86946	-1.00102	0	
2.9367	-10.1767	0.220564	0	
2.9373	-12.308	1.74754	0	
2.9380	-13.8441	1.13675	0	
