0.0007	-10.6212	2.20475	0	
0.0013	-10.6212	4.03236	0	
0.0020	-10.6212	10.7336	0	
0.0027	-8.77803	13.4896	0	
0.0033	-5.41427	9.83433	0	
0.0040	-0.230395	7.36849	0	
0.0047	2.81081	5.25078	0	
0.0053	1.58972	0.667226	0	
0.0060	0.0691184	-0.261088	0	
0.0067	-1.15197	-0.261088	0	
0.0073	-4.19318	-2.08871	0	
0.0080	-8.47852	-0.551186	0	
0.0087	-13.3629	2.20475	0	
0.0093	-19.7678	1.27643	0	
0.0100	-24.6522	2.20475	0	
0.0107	-26.1728	5.25078	0	
0.0113	-26.7949	4.64157	0	
0.0120	-25.5738	3.10405	0	
0.0127	-23.7306	4.32246	0	
0.0133	-23.1316	4.03236	0	
0.0140	-19.1458	1.88564	0	
0.0147	-11.8192	0.986334	0	
0.0153	-5.11476	0.667226	0	
0.0160	4.95348	0.667226	0	
0.0167	18.3855	0.986334	0	
0.0173	29.9743	0.986334	0	
0.0180	43.4063	-0.551186	0	
0.0187	58.981	-2.08871	0	
0.0193	65.985	-2.08871	0	
0.0200	65.386	-3.91632	0	
0.0207	64.4644	-6.64325	0	
0.0213	61.1006	-5.74394	0	
0.0220	53.1751	-4.81563	0	
0.0227	44.3279	-6.96236	0	
0.0233	31.4949	-6.35315	0	
0.0240	15.6438	-3.30712	0	
0.0247	0.0691184	-3.91632	0	
0.0253	-17.9247	-5.42484	0	
0.0260	-36.2411	-3.91632	0	
0.0267	-48.7515	-3.91632	0	
0.0273	-57.2991	-2.69791	0	
0.0280	-63.7041	0.986334	0	
0.0287	-64.9252	0.986334	0	
0.0293	-64.9252	0.0580196	0	
0.0300	-66.1463	4.64157	0	
0.0307	-61.5845	8.61591	0	
0.0313	-50.8941	5.54087	0	
0.0320	-38.9828	2.20475	0	
0.0327	-27.0944	1.59554	0	
0.0333	-17.0262	0.667226	0	
0.0340	-12.1418	0.667226	0	
0.0347	-9.69961	2.49484	0	
0.0353	-6.95791	5.25078	0	
0.0360	-4.51573	8.61591	0	
0.0367	-0.230395	10.7336	0	
0.0373	5.87506	10.7336	0	
0.0380	10.1374	10.7336	0	
0.0387	12.28	8.29681	0	
0.0393	15.6438	3.42316	0	
0.0400	18.086	0.667226	0	
0.0407	18.685	2.20475	0	
0.0413	17.7634	0.377128	0	
0.0420	18.685	-3.30712	0	
0.0427	19.6066	-2.69791	0	
0.0433	17.4639	-1.4795	0	
0.0440	15.9433	-3.30712	0	
0.0447	17.7634	-3.59722	0	
0.0453	17.7634	-2.98801	0	
0.0460	15.9433	-4.20642	0	
0.0467	19.9061	-3.91632	0	
0.0473	26.9331	-5.42484	0	
0.0480	29.9743	-10.0084	0	
0.0487	30.8959	-10.3275	0	
0.0493	30.5964	-8.49988	0	
0.0500	27.8317	-10.0084	0	
0.0507	25.09	-10.3275	0	
0.0513	23.5694	-9.39918	0	
0.0520	24.1914	-11.2268	0	
0.0527	26.9331	-8.18077	0	
0.0533	27.5321	-3.59722	0	
0.0540	25.3895	-6.64325	0	
0.0547	24.1914	-10.3275	0	
0.0553	25.09	-7.57156	0	
0.0560	25.09	-6.03404	0	
0.0567	19.9061	-4.81563	0	
0.0573	12.28	-2.3788	0	
0.0580	8.61675	-2.98801	0	
0.0587	4.35446	-2.98801	0	
0.0593	-4.81525	-0.551186	0	
0.0600	-11.5197	0.0580196	0	
0.0607	-11.5197	1.59554	0	
0.0613	-11.8192	1.59554	0	
0.0620	-15.4825	-1.4795	0	
0.0627	-21.588	-0.870294	0	
0.0633	-31.0572	5.25078	0	
0.0640	-39.3053	7.07839	0	
0.0647	-40.5264	6.46919	0	
0.0653	-38.0842	7.07839	0	
0.0660	-37.1626	7.07839	0	
0.0667	-34.7205	6.46919	0	
0.0673	-31.6562	6.15008	0	
0.0680	-28.9145	7.07839	0	
0.0687	-23.4311	9.51522	0	
0.0693	-17.9247	10.7336	0	
0.0700	-16.4041	10.1244	0	
0.0707	-16.1046	8.00671	0	
0.0713	-14.2614	6.46919	0	
0.0720	-12.1418	7.6876	0	
0.0727	-11.2202	8.29681	0	
0.0733	-11.5197	4.64157	0	
0.0740	-11.5197	2.20475	0	
0.0747	-9.69961	3.42316	0	
0.0753	-5.11476	1.59554	0	
0.0760	-2.37306	-1.16039	0	
0.0767	-2.37306	1.59554	0	
0.0773	-2.97209	4.03236	0	
0.0780	-0.529907	2.20475	0	
0.0787	3.43288	0.986334	0	
0.0793	5.87506	2.20475	0	
0.0800	7.39566	2.49484	0	
0.0807	9.83785	1.88564	0	
0.0813	9.21578	0.667226	0	
0.0820	4.65397	-1.4795	0	
0.0827	5.87506	-1.7696	0	
0.0833	12.8791	-2.08871	0	
0.0840	16.8649	-4.20642	0	
0.0847	19.3071	-6.03404	0	
0.0853	25.09	-5.13474	0	
0.0860	26.6106	-4.52553	0	
0.0867	24.1914	-6.03404	0	
0.0873	24.1914	-7.57156	0	
0.0880	23.2698	-6.64325	0	
0.0887	20.8277	-6.35315	0	
0.0893	26.9331	-6.96236	0	
0.0900	35.1582	-7.57156	0	
0.0907	32.4165	-7.57156	0	
0.0913	26.9331	-7.89067	0	
0.0920	26.9331	-8.49988	0	
0.0927	26.9331	-9.71829	0	
0.0933	25.712	-11.2268	0	
0.0940	24.1914	-10.9367	0	
0.0947	18.685	-8.78997	0	
0.0953	9.53833	-7.89067	0	
0.0960	2.21179	-6.96236	0	
0.0967	-5.11476	-6.96236	0	
0.0973	-13.0403	-8.49988	0	
0.0980	-17.0262	-8.49988	0	
0.0987	-18.8463	-6.03404	0	
0.0993	-23.4311	-3.91632	0	
0.1000	-28.9145	-2.69791	0	
0.1007	-29.8361	-0.261088	0	
0.1013	-30.1356	4.03236	0	
0.1020	-34.4209	8.90601	0	
0.1027	-34.0984	12.5612	0	
0.1033	-29.5366	13.7797	0	
0.1040	-31.6562	15.3172	0	
0.1047	-34.0984	17.1448	0	
0.1053	-25.8733	18.9724	0	
0.1060	-17.0262	19.5816	0	
0.1067	-15.4825	18.9724	0	
0.1073	-11.5197	17.1448	0	
0.1080	-4.19318	12.5612	0	
0.1087	0.691184	5.25078	0	
0.1093	2.81081	2.20475	0	
0.1100	3.13337	2.81395	0	
0.1107	2.81081	0.667226	0	
0.1113	4.0319	-2.08871	0	
0.1120	5.57555	-0.261088	0	
0.1127	2.5113	0.667226	0	
0.1133	-0.529907	-1.7696	0	
0.1140	4.95348	-2.98801	0	
0.1147	15.9433	-2.98801	0	
0.1153	23.2698	-3.30712	0	
0.1160	23.2698	-2.98801	0	
0.1167	21.7492	-2.98801	0	
0.1173	22.3483	-3.91632	0	
0.1180	22.6478	-2.98801	0	
0.1187	22.6478	-2.08871	0	
0.1193	22.6478	-3.30712	0	
0.1200	19.6066	-3.91632	0	
0.1207	14.1001	-4.52553	0	
0.1213	8.91627	-5.42484	0	
0.1220	2.81081	-3.91632	0	
0.1227	-3.29464	-4.20642	0	
0.1233	-8.17901	-8.78997	0	
0.1240	-13.6624	-7.57156	0	
0.1247	-17.3257	-3.59722	0	
0.1253	-18.5468	-4.81563	0	
0.1260	-19.7678	-8.18077	0	
0.1267	-22.5095	-6.35315	0	
0.1273	-23.7306	-4.81563	0	
0.1280	-23.4311	-5.74394	0	
0.1287	-20.9889	-6.64325	0	
0.1293	-16.1046	-6.64325	0	
0.1300	-11.2202	-4.52553	0	
0.1307	-7.85645	-2.3788	0	
0.1313	-6.33585	-0.870294	0	
0.1320	-6.63536	0.667226	0	
0.1327	-6.95791	0.667226	0	
0.1333	-6.95791	-0.261088	0	
0.1340	-5.11476	-1.16039	0	
0.1347	-2.37306	-2.98801	0	
0.1353	0.990696	-3.91632	0	
0.1360	4.95348	-2.3788	0	
0.1367	7.69518	-2.08871	0	
0.1373	5.87506	-1.4795	0	
0.1380	2.5113	0.986334	0	
0.1387	2.21179	1.88564	0	
0.1393	2.21179	1.27643	0	
0.1400	1.29021	2.49484	0	
0.1407	3.13337	2.20475	0	
0.1413	4.35446	-2.69791	0	
0.1420	6.17457	-4.81563	0	
0.1427	15.9433	-2.98801	0	
0.1433	27.8317	-0.551186	0	
0.1440	30.2738	-1.16039	0	
0.1447	28.4537	-3.30712	0	
0.1453	31.1954	-3.91632	0	
0.1460	30.5964	-3.91632	0	
0.1467	23.2698	-3.91632	0	
0.1473	19.9061	-2.69791	0	
0.1480	19.9061	-2.08871	0	
0.1487	15.3212	-5.13474	0	
0.1493	10.4369	-7.57156	0	
0.1500	7.39566	-5.74394	0	
0.1507	1.29021	-5.74394	0	
0.1513	-3.89367	-6.64325	0	
0.1520	-1.751	-5.74394	0	
0.1527	-1.45149	-6.03404	0	
0.1533	-6.63536	-6.64325	0	
0.1540	-9.07754	-3.91632	0	
0.1547	-6.95791	-0.551186	0	
0.1553	-3.29464	0.986334	0	
0.1560	0.368631	2.20475	0	
0.1567	1.29021	1.88564	0	
0.1573	1.91227	0.0580196	0	
0.1580	3.73239	-0.551186	0	
0.1587	3.13337	0.0580196	0	
0.1593	-3.89367	-0.551186	0	
0.1600	-10.6212	-0.261088	0	
0.1607	-14.2614	3.42316	0	
0.1613	-20.9889	9.83433	0	
0.1620	-28.9145	15.3172	0	
0.1627	-30.4351	16.8547	0	
0.1633	-28.615	14.0988	0	
0.1640	-29.5366	13.1705	0	
0.1647	-29.2371	14.3889	0	
0.1653	-23.1316	13.1705	0	
0.1660	-15.8051	9.22512	0	
0.1667	-13.3629	8.00671	0	
0.1673	-13.9619	7.07839	0	
0.1680	-11.5197	6.15008	0	
0.1687	-6.33585	6.75929	0	
0.1693	-4.51573	7.07839	0	
0.1700	-4.19318	4.03236	0	
0.1707	-1.15197	1.59554	0	
0.1713	1.29021	0.986334	0	
0.1720	0.368631	0.0580196	0	
0.1727	0.691184	0.667226	0	
0.1733	2.21179	3.42316	0	
0.1740	0.0691184	2.49484	0	
0.1747	-0.529907	-0.551186	0	
0.1753	5.25299	-1.7696	0	
0.1760	13.2016	-2.3788	0	
0.1767	15.0217	-2.98801	0	
0.1773	14.1001	-2.69791	0	
0.1780	14.1001	-3.59722	0	
0.1787	13.8006	-3.91632	0	
0.1793	14.1001	-1.4795	0	
0.1800	15.9433	0.667226	0	
0.1807	14.4227	-1.16039	0	
0.1813	11.3584	-3.30712	0	
0.1820	11.9805	-3.59722	0	
0.1827	10.1374	-3.91632	0	
0.1833	3.13337	-3.91632	0	
0.1840	-1.15197	-2.98801	0	
0.1847	-2.97209	-1.7696	0	
0.1853	-6.33585	-2.08871	0	
0.1860	-9.07754	-2.98801	0	
0.1867	-11.5197	-3.30712	0	
0.1873	-12.4413	-4.81563	0	
0.1880	-9.69961	-6.35315	0	
0.1887	-6.95791	-4.20642	0	
0.1893	-6.33585	-2.08871	0	
0.1900	0.368631	-4.81563	0	
0.1907	10.7594	-8.49988	0	
0.1913	15.9433	-6.64325	0	
0.1920	17.7634	-5.74394	0	
0.1927	23.2698	-8.78997	0	
0.1933	33.3381	-10.3275	0	
0.1940	42.4847	-8.49988	0	
0.1947	47.0696	-8.78997	0	
0.1953	47.3691	-10.9367	0	
0.1960	45.549	-10.3275	0	
0.1967	39.7431	-7.57156	0	
0.1973	29.6748	-6.03404	0	
0.1980	21.4267	-5.42484	0	
0.1987	15.9433	-3.91632	0	
0.1993	7.09615	-1.16039	0	
0.2000	-6.33585	2.49484	0	
0.2007	-18.2472	8.90601	0	
0.2013	-27.6934	13.1705	0	
0.2020	-38.3837	11.952	0	
0.2027	-48.452	9.83433	0	
0.2033	-54.8569	8.90601	0	
0.2040	-58.2207	8.00671	0	
0.2047	-57.2991	8.00671	0	
0.2053	-53.6358	7.36849	0	
0.2060	-46.6318	7.07839	0	
0.2067	-34.0984	8.61591	0	
0.2073	-20.6894	6.75929	0	
0.2080	-9.4001	1.59554	0	
0.2087	4.65397	0.0580196	0	
0.2093	17.4639	0.986334	0	
0.2100	22.3483	-0.551186	0	
0.2107	25.3895	-1.16039	0	
0.2113	27.2326	-1.7696	0	
0.2120	22.6478	-4.81563	0	
0.2127	19.3071	-5.74394	0	
0.2133	18.685	-3.91632	0	
0.2140	13.2016	-2.3788	0	
0.2147	7.99469	-2.08871	0	
0.2153	8.31724	-0.870294	0	
0.2160	5.57555	2.49484	0	
0.2167	3.13337	4.03236	0	
0.2173	5.57555	2.20475	0	
0.2180	4.65397	2.49484	0	
0.2187	-2.37306	5.25078	0	
0.2193	-8.17901	5.25078	0	
0.2200	-9.69961	4.03236	0	
0.2207	-8.77803	5.25078	0	
0.2213	-7.85645	2.49484	0	
0.2220	-9.4001	0.0580196	0	
0.2227	-10.9207	2.49484	0	
0.2233	-11.5197	1.59554	0	
0.2240	-14.8835	-2.69791	0	
0.2247	-16.1046	-1.4795	0	
0.2253	-12.7408	-0.261088	0	
0.2260	-7.55694	-3.30712	0	
0.2267	0.691184	-4.81563	0	
0.2273	7.99469	-5.42484	0	
0.2280	7.69518	-5.42484	0	
0.2287	6.7736	-3.59722	0	
0.2293	11.9805	-4.20642	0	
0.2300	15.3212	-6.96236	0	
0.2307	11.3584	-6.35315	0	
0.2313	9.83785	-6.64325	0	
0.2320	15.0217	-8.49988	0	
0.2327	21.4267	-8.78997	0	
0.2333	25.712	-9.10908	0	
0.2340	26.0115	-8.78997	0	
0.2347	21.4267	-6.96236	0	
0.2353	16.8649	-7.57156	0	
0.2360	14.1001	-7.89067	0	
0.2367	10.1374	-4.52553	0	
0.2373	5.25299	-2.69791	0	
0.2380	1.91227	-2.69791	0	
0.2387	-3.29464	-1.16039	0	
0.2393	-8.47852	-0.551186	0	
0.2400	-11.5197	-1.7696	0	
0.2407	-16.1046	-0.551186	0	
0.2413	-20.9889	1.59554	0	
0.2420	-23.7306	2.81395	0	
0.2427	-28.3155	4.93167	0	
0.2433	-33.7989	8.00671	0	
0.2440	-35.02	10.4435	0	
0.2447	-32.2783	10.7336	0	
0.2453	-25.8733	8.90601	0	
0.2460	-16.7036	8.29681	0	
0.2467	-9.99912	8.29681	0	
0.2473	-3.29464	7.07839	0	
0.2480	5.87506	5.25078	0	
0.2487	14.7222	3.42316	0	
0.2493	26.0115	1.59554	0	
0.2500	40.0426	0.667226	0	
0.2507	46.4475	-0.870294	0	
0.2513	48.8897	-3.91632	0	
0.2520	54.6957	-4.81563	0	
0.2527	55.6172	-3.91632	0	
0.2533	47.6686	-5.74394	0	
0.2540	40.9641	-8.49988	0	
0.2547	34.2597	-8.78997	0	
0.2553	22.3483	-7.57156	0	
0.2560	9.53833	-4.52553	0	
0.2567	-2.37306	-0.261088	0	
0.2573	-13.3629	0.667226	0	
0.2580	-23.1316	0.377128	0	
0.2587	-32.5778	1.88564	0	
0.2593	-40.8259	3.71326	0	
0.2600	-43.5676	3.42316	0	
0.2607	-46.0098	4.32246	0	
0.2613	-49.051	6.46919	0	
0.2620	-47.2309	6.75929	0	
0.2627	-43.2681	7.07839	0	
0.2633	-41.1254	8.90601	0	
0.2640	-33.4994	8.90601	0	
0.2647	-19.7678	7.07839	0	
0.2653	-12.4413	6.15008	0	
0.2660	-12.7408	5.54087	0	
0.2667	-9.4001	3.42316	0	
0.2673	-4.51573	0.667226	0	
0.2680	-3.89367	0.667226	0	
0.2687	-1.45149	1.88564	0	
0.2693	3.13337	1.27643	0	
0.2700	4.95348	-1.16039	0	
0.2707	7.69518	-2.98801	0	
0.2713	10.4369	-2.98801	0	
0.2720	8.61675	-2.3788	0	
0.2727	4.95348	-2.08871	0	
0.2733	4.0319	-1.7696	0	
0.2740	0.0691184	-1.16039	0	
0.2747	-4.51573	-1.16039	0	
0.2753	-4.19318	-2.08871	0	
0.2760	-1.45149	-0.870294	0	
0.2767	-0.529907	0.986334	0	
0.2773	-1.45149	0.667226	0	
0.2780	-2.97209	-1.16039	0	
0.2787	-1.751	-2.98801	0	
0.2793	0.691184	-2.69791	0	
0.2800	0.368631	0.0580196	0	
0.2807	1.29021	-0.261088	0	
0.2813	3.43288	-2.69791	0	
0.2820	3.13337	-0.261088	0	
0.2827	4.95348	2.49484	0	
0.2833	10.4369	1.59554	0	
0.2840	13.5011	1.27643	0	
0.2847	21.4267	-0.261088	0	
0.2853	37.9229	-6.03404	0	
0.2860	50.4334	-10.9367	0	
0.2867	52.553	-13.0544	0	
0.2873	52.8755	-13.0544	0	
0.2880	52.553	-12.1551	0	
0.2887	49.5118	-13.6636	0	
0.2893	44.3279	-14.882	0	
0.2900	37.6004	-12.1551	0	
0.2907	30.8959	-11.2268	0	
0.2913	23.2698	-13.3735	0	
0.2920	13.2016	-12.7643	0	
0.2927	4.65397	-10.0084	0	
0.2933	-4.19318	-6.35315	0	
0.2940	-14.8835	-3.30712	0	
0.2947	-21.2885	-3.91632	0	
0.2953	-26.1728	-4.81563	0	
0.2960	-34.4209	-1.16039	0	
0.2967	-40.2038	1.88564	0	
0.2973	-38.9828	3.71326	0	
0.2980	-31.9788	8.00671	0	
0.2987	-19.7678	8.90601	0	
0.2993	-10.6212	6.15008	0	
0.3000	-2.37306	4.64157	0	
0.3007	18.685	1.59554	0	
0.3013	41.5862	-3.91632	0	
0.3020	47.0696	-3.30712	0	
0.3027	43.1068	-0.261088	0	
0.3033	37.9229	2.20475	0	
0.3040	27.2326	6.46919	0	
0.3047	17.7634	8.61591	0	
0.3053	13.2016	5.25078	0	
0.3060	4.95348	3.10405	0	
0.3067	-6.03634	1.59554	0	
0.3073	-17.9247	-0.870294	0	
0.3080	-32.5778	-0.261088	0	
0.3087	-43.8671	2.49484	0	
0.3093	-48.1525	3.71326	0	
0.3100	-55.7785	7.07839	0	
0.3107	-65.5472	10.4435	0	
0.3113	-66.4458	10.1244	0	
0.3120	-60.0408	11.0527	0	
0.3127	-56.7001	14.0988	0	
0.3133	-54.2579	13.4896	0	
0.3140	-47.5304	13.1705	0	
0.3147	-39.9043	13.7797	0	
0.3153	-34.4209	8.61591	0	
0.3160	-29.5366	2.81395	0	
0.3167	-22.8091	3.42316	0	
0.3173	-16.4041	7.07839	0	
0.3180	-10.2986	9.51522	0	
0.3187	-6.63536	10.4435	0	
0.3193	-3.59415	8.00671	0	
0.3200	3.13337	4.32246	0	
0.3207	12.28	2.49484	0	
0.3213	18.9845	1.27643	0	
0.3220	26.6106	-0.870294	0	
0.3227	37.6004	-3.30712	0	
0.3233	47.3691	-4.81563	0	
0.3240	51.6544	-6.03404	0	
0.3247	51.954	-7.25245	0	
0.3253	52.8755	-8.49988	0	
0.3260	54.3961	-8.49988	0	
0.3267	52.553	-10.3275	0	
0.3273	47.6686	-11.5459	0	
0.3280	43.4063	-10.3275	0	
0.3287	40.3651	-10.0084	0	
0.3293	33.3381	-11.5459	0	
0.3300	22.3483	-11.2268	0	
0.3307	11.0589	-10.3275	0	
0.3313	-1.15197	-10.9367	0	
0.3320	-13.3629	-10.9367	0	
0.3327	-21.588	-7.57156	0	
0.3333	-25.5738	-3.30712	0	
0.3340	-31.6562	-2.98801	0	
0.3347	-38.0842	-2.98801	0	
0.3353	-39.6048	1.88564	0	
0.3360	-36.8631	5.54087	0	
0.3367	-33.7989	2.81395	0	
0.3373	-30.1356	3.42316	0	
0.3380	-23.7306	7.07839	0	
0.3387	-17.6252	4.64157	0	
0.3393	-17.0262	1.59554	0	
0.3400	-19.1458	4.32246	0	
0.3407	-16.1046	5.54087	0	
0.3413	-11.8192	7.07839	0	
0.3420	-11.2202	11.6619	0	
0.3427	-7.25743	12.2712	0	
0.3433	-0.230395	8.00671	0	
0.3440	4.0319	8.29681	0	
0.3447	7.69518	9.83433	0	
0.3453	9.83785	6.75929	0	
0.3460	7.39566	4.93167	0	
0.3467	6.17457	6.15008	0	
0.3473	8.31724	4.32246	0	
0.3480	7.99469	-0.551186	0	
0.3487	7.09615	-1.7696	0	
0.3493	7.69518	-1.7696	0	
0.3500	6.7736	-3.91632	0	
0.3507	6.7736	-4.52553	0	
0.3513	7.69518	-4.20642	0	
0.3520	4.95348	-6.64325	0	
0.3527	3.73239	-5.42484	0	
0.3533	6.47409	-2.3788	0	
0.3540	6.7736	-4.52553	0	
0.3547	4.95348	-6.35315	0	
0.3553	5.87506	-3.59722	0	
0.3560	6.7736	-2.98801	0	
0.3567	11.9805	-3.91632	0	
0.3573	28.7532	-3.91632	0	
0.3580	48.5902	-7.89067	0	
0.3587	60.5016	-12.4452	0	
0.3593	65.985	-8.49988	0	
0.3600	67.2061	-6.64325	0	
0.3607	62.9438	-12.1551	0	
0.3613	56.2163	-11.5459	0	
0.3620	48.8897	-6.64325	0	
0.3627	37.6004	-7.89067	0	
0.3633	24.7904	-8.49988	0	
0.3640	15.9433	-3.91632	0	
0.3647	6.7736	-2.98801	0	
0.3653	-7.85645	-2.3788	0	
0.3660	-25.2512	1.88564	0	
0.3667	-38.3837	3.42316	0	
0.3673	-47.2309	2.49484	0	
0.3680	-57.2991	4.93167	0	
0.3687	-66.4458	8.00671	0	
0.3693	-68.2889	10.1244	0	
0.3700	-66.1463	12.5612	0	
0.3707	-67.6669	12.5612	0	
0.3713	-63.7041	9.83433	0	
0.3720	-50.5946	9.51522	0	
0.3727	-39.6048	9.83433	0	
0.3733	-32.8773	6.46919	0	
0.3740	-24.9517	3.71326	0	
0.3747	-20.6894	5.85998	0	
0.3753	-18.8463	8.00671	0	
0.3760	-10.6212	6.15008	0	
0.3767	-0.85246	4.03236	0	
0.3773	4.65397	3.42316	0	
0.3780	10.4369	2.49484	0	
0.3787	16.2428	1.59554	0	
0.3793	19.9061	-0.870294	0	
0.3800	22.3483	-3.91632	0	
0.3807	22.6478	-3.91632	0	
0.3813	21.7492	-2.08871	0	
0.3820	22.9703	-3.91632	0	
0.3827	24.1914	-6.64325	0	
0.3833	25.09	-5.13474	0	
0.3840	29.9743	-5.13474	0	
0.3847	35.7803	-8.49988	0	
0.3853	34.8587	-9.71829	0	
0.3860	30.8959	-10.3275	0	
0.3867	27.2326	-10.6176	0	
0.3873	21.7492	-9.71829	0	
0.3880	16.5423	-7.89067	0	
0.3887	13.2016	-7.25245	0	
0.3893	6.7736	-6.03404	0	
0.3900	-0.529907	-4.81563	0	
0.3907	-2.07355	-4.81563	0	
0.3913	1.91227	-4.52553	0	
0.3920	1.58972	-2.08871	0	
0.3927	-1.45149	1.27643	0	
0.3933	-0.529907	0.986334	0	
0.3940	-1.15197	-1.7696	0	
0.3947	-4.81525	-1.16039	0	
0.3953	-6.33585	1.88564	0	
0.3960	-7.85645	3.10405	0	
0.3967	-12.4413	2.81395	0	
0.3973	-11.8192	2.49484	0	
0.3980	-6.33585	1.59554	0	
0.3987	-6.63536	4.32246	0	
0.3993	-10.2986	8.00671	0	
0.4000	-12.1418	6.15008	0	
0.4007	-15.183	6.15008	0	
0.4013	-20.6894	12.2712	0	
0.4020	-25.2512	15.3172	0	
0.4027	-28.3155	13.4896	0	
0.4033	-28.615	11.6619	0	
0.4040	-26.1728	8.00671	0	
0.4047	-23.4311	2.20475	0	
0.4053	-20.0674	0.0580196	0	
0.4060	-13.3629	0.0580196	0	
0.4067	-3.29464	-2.69791	0	
0.4073	4.95348	-5.74394	0	
0.4080	10.1374	-8.18077	0	
0.4087	16.5423	-8.49988	0	
0.4093	26.0115	-6.96236	0	
0.4100	31.1954	-5.74394	0	
0.4107	30.5964	-6.96236	0	
0.4113	26.9331	-6.03404	0	
0.4120	21.1272	-4.81563	0	
0.4127	15.9433	-7.25245	0	
0.4133	14.1001	-10.3275	0	
0.4140	9.53833	-8.49988	0	
0.4147	0.0691184	-4.20642	0	
0.4153	-9.4001	-1.16039	0	
0.4160	-17.0262	0.0580196	0	
0.4167	-24.9517	1.27643	0	
0.4173	-28.615	3.71326	0	
0.4180	-28.9145	5.54087	0	
0.4187	-31.3567	6.75929	0	
0.4193	-34.4209	8.90601	0	
0.4200	-34.0984	8.61591	0	
0.4207	-31.3567	5.85998	0	
0.4213	-26.4723	5.25078	0	
0.4220	-18.5468	6.15008	0	
0.4227	-9.99912	3.42316	0	
0.4233	-5.11476	0.377128	0	
0.4240	-1.15197	-1.4795	0	
0.4247	5.25299	-3.30712	0	
0.4253	11.658	-3.30712	0	
0.4260	16.8649	-4.52553	0	
0.4267	23.5694	-9.71829	0	
0.4273	28.1542	-11.836	0	
0.4280	28.4537	-10.3275	0	
0.4287	29.0527	-9.39918	0	
0.4293	32.4165	-9.39918	0	
0.4300	34.5592	-10.6176	0	
0.4307	33.9371	-13.0544	0	
0.4313	32.117	-12.4452	0	
0.4320	28.1542	-10.3275	0	
0.4327	25.09	-10.3275	0	
0.4333	26.0115	-10.3275	0	
0.4340	26.0115	-11.2268	0	
0.4347	18.086	-10.0084	0	
0.4353	9.53833	-5.13474	0	
0.4360	7.09615	-2.98801	0	
0.4367	4.95348	-1.16039	0	
0.4373	-2.37306	3.71326	0	
0.4380	-10.6212	6.15008	0	
0.4387	-13.9619	5.54087	0	
0.4393	-15.8051	7.07839	0	
0.4400	-17.6252	6.75929	0	
0.4407	-18.8463	3.42316	0	
0.4413	-17.6252	4.32246	0	
0.4420	-13.6624	4.32246	0	
0.4427	-9.69961	3.10405	0	
0.4433	-7.25743	8.00671	0	
0.4440	-4.19318	12.5612	0	
0.4447	-0.529907	11.0527	0	
0.4453	0.0691184	11.6619	0	
0.4460	-1.751	12.8804	0	
0.4467	-2.37306	8.29681	0	
0.4473	-2.97209	5.25078	0	
0.4480	-4.81525	6.75929	0	
0.4487	-7.85645	4.32246	0	
0.4493	-10.6212	-0.870294	0	
0.4500	-13.6624	-1.7696	0	
0.4507	-18.2472	0.986334	0	
0.4513	-21.588	2.20475	0	
0.4520	-21.9105	-0.261088	0	
0.4527	-20.3669	-2.3788	0	
0.4533	-19.7678	-1.16039	0	
0.4540	-20.3669	0.377128	0	
0.4547	-17.3257	-0.261088	0	
0.4553	-9.07754	0.667226	0	
0.4560	-0.529907	1.88564	0	
0.4567	6.47409	-0.261088	0	
0.4573	18.685	-2.08871	0	
0.4580	35.1582	-3.59722	0	
0.4587	47.9912	-5.74394	0	
0.4593	53.4746	-5.42484	0	
0.4600	54.3961	-3.91632	0	
0.4607	54.6957	-5.13474	0	
0.4613	52.553	-6.96236	0	
0.4620	45.549	-6.03404	0	
0.4627	39.144	-5.42484	0	
0.4633	35.1582	-6.64325	0	
0.4640	26.6106	-7.57156	0	
0.4647	13.5011	-7.57156	0	
0.4653	2.21179	-8.49988	0	
0.4660	-8.77803	-10.3275	0	
0.4667	-20.6894	-8.49988	0	
0.4673	-32.2783	-2.08871	0	
0.4680	-44.4892	0.0580196	0	
0.4687	-55.479	-0.261088	0	
0.4693	-60.6629	2.81395	0	
0.4700	-63.4046	5.85998	0	
0.4707	-63.7041	7.36849	0	
0.4713	-55.479	10.1244	0	
0.4720	-44.1897	10.4435	0	
0.4727	-38.0842	8.00671	0	
0.4733	-31.9788	7.07839	0	
0.4740	-21.588	6.46919	0	
0.4747	-10.6212	5.25078	0	
0.4753	-0.230395	3.71326	0	
0.4760	10.7594	1.59554	0	
0.4767	18.685	0.667226	0	
0.4773	21.4267	2.20475	0	
0.4780	22.3483	1.59554	0	
0.4787	22.0488	0.667226	0	
0.4793	20.5282	-0.261088	0	
0.4800	18.086	-1.7696	0	
0.4807	14.4227	0.986334	0	
0.4813	11.0589	5.25078	0	
0.4820	8.61675	3.71326	0	
0.4827	5.87506	1.27643	0	
0.4833	0.691184	1.59554	0	
0.4840	-5.41427	-0.261088	0	
0.4847	-8.77803	-1.7696	0	
0.4853	-9.99912	-0.261088	0	
0.4860	-12.4413	1.59554	0	
0.4867	-15.4825	2.20475	0	
0.4873	-16.7036	2.20475	0	
0.4880	-17.0262	2.20475	0	
0.4887	-16.7036	3.42316	0	
0.4893	-14.2614	6.15008	0	
0.4900	-12.4413	6.46919	0	
0.4907	-11.5197	4.03236	0	
0.4913	-9.4001	2.81395	0	
0.4920	-4.51573	4.64157	0	
0.4927	1.58972	3.42316	0	
0.4933	6.7736	-0.551186	0	
0.4940	10.4369	-0.551186	0	
0.4947	14.4227	0.667226	0	
0.4953	21.1272	-0.870294	0	
0.4960	27.8317	-0.261088	0	
0.4967	34.5592	-1.16039	0	
0.4973	44.3279	-6.35315	0	
0.4980	50.7329	-6.96236	0	
0.4987	49.8113	-3.91632	0	
0.4993	45.2264	-5.13474	0	
0.5000	37.3009	-6.64325	0	
0.5007	26.0115	-4.81563	0	
0.5013	19.3071	-3.91632	0	
0.5020	15.3212	-4.81563	0	
0.5027	6.7736	-5.13474	0	
0.5033	-3.29464	-4.81563	0	
0.5040	-9.69961	-3.91632	0	
0.5047	-14.8835	-3.91632	0	
0.5053	-21.588	-3.91632	0	
0.5060	-28.016	-2.08871	0	
0.5067	-29.8361	-1.16039	0	
0.5073	-28.9145	-1.7696	0	
0.5080	-28.3155	-2.08871	0	
0.5087	-26.4723	-2.3788	0	
0.5093	-21.9105	-3.91632	0	
0.5100	-15.8051	-2.3788	0	
0.5107	-7.85645	-1.16039	0	
0.5113	3.13337	-4.81563	0	
0.5120	13.5011	-7.57156	0	
0.5127	21.4267	-4.52553	0	
0.5133	26.3111	-2.69791	0	
0.5140	26.9331	-3.30712	0	
0.5147	23.2698	-3.30712	0	
0.5153	19.9061	-2.08871	0	
0.5160	19.6066	-0.551186	0	
0.5167	15.3212	0.667226	0	
0.5173	7.39566	0.986334	0	
0.5180	1.91227	1.59554	0	
0.5187	-2.97209	4.03236	0	
0.5193	-8.77803	3.71326	0	
0.5200	-12.4413	-0.551186	0	
0.5207	-15.4825	-2.08871	0	
0.5213	-19.4683	1.27643	0	
0.5220	-18.2472	1.59554	0	
0.5227	-13.9619	-3.91632	0	
0.5233	-8.77803	-4.81563	0	
0.5240	2.21179	-2.69791	0	
0.5247	10.4369	-4.52553	0	
0.5253	8.91627	-7.89067	0	
0.5260	11.3584	-7.57156	0	
0.5267	17.7634	-6.03404	0	
0.5273	15.0217	-5.74394	0	
0.5280	10.4369	-5.42484	0	
0.5287	10.4369	-4.81563	0	
0.5293	6.7736	-1.7696	0	
0.5300	3.43288	0.667226	0	
0.5307	7.39566	-1.7696	0	
0.5313	10.1374	-3.59722	0	
0.5320	6.7736	0.0580196	0	
0.5327	2.21179	3.10405	0	
0.5333	-0.529907	2.49484	0	
0.5340	-0.529907	1.88564	0	
0.5347	-1.751	-1.16039	0	
0.5353	-5.11476	-3.91632	0	
0.5360	-5.11476	-2.08871	0	
0.5367	-4.19318	0.667226	0	
0.5373	-6.63536	-1.4795	0	
0.5380	-6.95791	-2.98801	0	
0.5387	-5.73682	0.377128	0	
0.5393	-8.47852	3.71326	0	
0.5400	-11.5197	4.64157	0	
0.5407	-10.2986	4.93167	0	
0.5413	-8.47852	7.07839	0	
0.5420	-7.55694	9.51522	0	
0.5427	-6.95791	9.83433	0	
0.5433	-8.17901	8.90601	0	
0.5440	-7.85645	8.90601	0	
0.5447	-5.11476	7.07839	0	
0.5453	-4.81525	1.59554	0	
0.5460	-5.11476	-0.870294	0	
0.5467	-4.81525	1.88564	0	
0.5473	-6.33585	1.27643	0	
0.5480	-8.77803	-2.98801	0	
0.5487	-9.4001	-1.4795	0	
0.5493	-8.17901	1.59554	0	
0.5500	-7.55694	-0.261088	0	
0.5507	-7.85645	-1.16039	0	
0.5513	-9.69961	0.667226	0	
0.5520	-10.6212	1.88564	0	
0.5527	-7.85645	1.59554	0	
0.5533	-0.85246	0.377128	0	
0.5540	9.21578	-0.261088	0	
0.5547	20.5282	-0.261088	0	
0.5553	28.4537	-2.3788	0	
0.5560	30.5964	-3.91632	0	
0.5567	28.7532	-1.16039	0	
0.5573	27.5321	-0.261088	0	
0.5580	27.2326	-2.08871	0	
0.5587	24.7904	-0.870294	0	
0.5593	20.8277	0.0580196	0	
0.5600	19.6066	-2.98801	0	
0.5607	15.9433	-2.3788	0	
0.5613	7.99469	0.667226	0	
0.5620	2.5113	0.0580196	0	
0.5627	-0.230395	0.667226	0	
0.5633	-6.03634	2.49484	0	
0.5640	-11.5197	0.667226	0	
0.5647	-13.0403	-1.16039	0	
0.5653	-16.4041	0.377128	0	
0.5660	-19.1458	0.0580196	0	
0.5667	-8.77803	-1.7696	0	
0.5673	9.83785	-0.261088	0	
0.5680	18.685	0.986334	0	
0.5687	18.9845	-3.30712	0	
0.5693	22.9703	-6.64325	0	
0.5700	27.8317	-4.81563	0	
0.5707	26.3111	-3.30712	0	
0.5713	22.3483	-5.74394	0	
0.5720	16.2428	-6.03404	0	
0.5727	6.7736	-3.30712	0	
0.5733	-1.751	-0.551186	0	
0.5740	-9.4001	0.377128	0	
0.5747	-19.1458	-0.261088	0	
0.5753	-29.8361	-0.261088	0	
0.5760	-38.0842	1.59554	0	
0.5767	-43.8671	3.10405	0	
0.5773	-43.5676	4.32246	0	
0.5780	-39.3053	5.54087	0	
0.5787	-37.7617	3.42316	0	
0.5793	-36.2411	0.377128	0	
0.5800	-31.3567	1.59554	0	
0.5807	-25.8733	2.49484	0	
0.5813	-20.0674	-0.551186	0	
0.5820	-10.9207	-2.08871	0	
0.5827	-2.37306	-2.08871	0	
0.5833	-0.529907	-2.08871	0	
0.5840	-3.59415	-0.870294	0	
0.5847	-6.33585	1.27643	0	
0.5853	-6.03634	0.986334	0	
0.5860	-3.29464	0.667226	0	
0.5867	-1.45149	-0.551186	0	
0.5873	-1.15197	-2.3788	0	
0.5880	1.29021	-2.08871	0	
0.5887	3.13337	-1.4795	0	
0.5893	1.58972	-2.98801	0	
0.5900	0.0691184	-1.7696	0	
0.5907	-0.230395	0.667226	0	
0.5913	0.0691184	-0.870294	0	
0.5920	1.29021	-2.08871	0	
0.5927	1.58972	0.667226	0	
0.5933	0.368631	0.0580196	0	
0.5940	0.368631	-1.7696	0	
0.5947	3.13337	-0.261088	0	
0.5953	3.13337	-0.870294	0	
0.5960	3.13337	-3.91632	0	
0.5967	7.69518	-2.69791	0	
0.5973	15.9433	-1.16039	0	
0.5980	19.9061	-3.59722	0	
0.5987	18.685	-3.30712	0	
0.5993	18.3855	-0.261088	0	
0.6000	18.685	0.377128	0	
0.6007	16.2428	0.667226	0	
0.6013	13.2016	2.49484	0	
0.6020	10.4369	4.93167	0	
0.6027	5.57555	5.25078	0	
0.6033	4.35446	2.81395	0	
0.6040	6.7736	-0.261088	0	
0.6047	5.25299	-2.69791	0	
0.6053	-0.230395	-4.52553	0	
0.6060	-3.59415	-3.59722	0	
0.6067	-4.81525	0.377128	0	
0.6073	-4.51573	0.667226	0	
0.6080	-5.11476	-2.69791	0	
0.6087	-6.95791	-3.30712	0	
0.6093	-6.03634	-2.69791	0	
0.6100	-1.45149	-2.98801	0	
0.6107	0.368631	-2.69791	0	
0.6113	0.368631	-2.69791	0	
0.6120	2.21179	-3.91632	0	
0.6127	3.43288	-4.52553	0	
0.6133	4.95348	-3.91632	0	
0.6140	6.7736	-2.98801	0	
0.6147	4.95348	-1.16039	0	
0.6153	2.21179	2.20475	0	
0.6160	4.0319	3.42316	0	
0.6167	5.87506	2.49484	0	
0.6173	2.5113	1.27643	0	
0.6180	-1.751	2.20475	0	
0.6187	-0.529907	2.81395	0	
0.6193	2.5113	-1.16039	0	
0.6200	4.0319	-2.98801	0	
0.6207	6.7736	1.27643	0	
0.6213	10.4369	2.49484	0	
0.6220	13.8006	-0.261088	0	
0.6227	16.8649	0.377128	0	
0.6233	18.086	-1.4795	0	
0.6240	16.8649	-6.96236	0	
0.6247	17.1644	-6.35315	0	
0.6253	18.086	-2.08871	0	
0.6260	15.0217	-1.7696	0	
0.6267	11.3584	-2.3788	0	
0.6273	8.31724	-4.81563	0	
0.6280	4.0319	-7.89067	0	
0.6287	-0.85246	-4.20642	0	
0.6293	-3.89367	-1.16039	0	
0.6300	-7.85645	-3.59722	0	
0.6307	-13.3629	-2.69791	0	
0.6313	-17.6252	0.667226	0	
0.6320	-20.3669	0.0580196	0	
0.6327	-18.8463	0.667226	0	
0.6333	-14.2614	2.49484	0	
0.6340	-13.3629	2.20475	0	
0.6347	-12.7408	4.32246	0	
0.6353	-9.4001	8.00671	0	
0.6360	-6.33585	6.46919	0	
0.6367	-5.11476	2.49484	0	
0.6373	-3.59415	1.27643	0	
0.6380	-2.07355	1.59554	0	
0.6387	1.58972	3.10405	0	
0.6393	5.57555	4.32246	0	
0.6400	5.87506	3.71326	0	
0.6407	4.0319	2.81395	0	
0.6413	2.21179	2.20475	0	
0.6420	-0.529907	1.27643	0	
0.6427	0.368631	2.81395	0	
0.6433	3.73239	4.32246	0	
0.6440	4.0319	0.0580196	0	
0.6447	4.0319	-2.98801	0	
0.6453	6.17457	0.667226	0	
0.6460	5.57555	1.59554	0	
0.6467	0.368631	-0.551186	0	
0.6473	-3.29464	-0.261088	0	
0.6480	-2.97209	0.986334	0	
0.6487	-5.73682	-0.261088	0	
0.6493	-11.5197	-1.4795	0	
0.6500	-13.0403	-2.08871	0	
0.6507	-11.8192	-2.08871	0	
0.6513	-12.7408	-2.98801	0	
0.6520	-9.4001	-5.42484	0	
0.6527	1.29021	-6.03404	0	
0.6533	7.39566	-4.20642	0	
0.6540	7.69518	-3.91632	0	
0.6547	9.53833	-3.91632	0	
0.6553	10.1374	-4.52553	0	
0.6560	5.25299	-3.91632	0	
0.6567	2.5113	-1.16039	0	
0.6573	3.43288	-0.551186	0	
0.6580	1.29021	-3.30712	0	
0.6587	-6.03634	-2.08871	0	
0.6593	-9.69961	0.986334	0	
0.6600	-10.6212	-0.551186	0	
0.6607	-14.2614	-0.551186	0	
0.6613	-16.1046	2.81395	0	
0.6620	-11.8192	2.49484	0	
0.6627	-8.47852	0.986334	0	
0.6633	-8.47852	2.81395	0	
0.6640	-6.63536	3.42316	0	
0.6647	-4.19318	4.32246	0	
0.6653	-2.07355	7.07839	0	
0.6660	1.29021	8.61591	0	
0.6667	2.5113	7.6876	0	
0.6673	1.29021	4.32246	0	
0.6680	0.368631	0.667226	0	
0.6687	-1.15197	1.27643	0	
0.6693	-3.29464	3.71326	0	
0.6700	-3.89367	3.71326	0	
0.6707	-4.51573	3.42316	0	
0.6713	-7.25743	3.71326	0	
0.6720	-7.85645	2.81395	0	
0.6727	-4.51573	1.27643	0	
0.6733	-2.37306	-0.261088	0	
0.6740	-6.03634	-2.08871	0	
0.6747	-9.4001	-2.3788	0	
0.6753	-4.51573	0.986334	0	
0.6760	-1.45149	4.03236	0	
0.6767	-3.89367	3.71326	0	
0.6773	0.691184	1.88564	0	
0.6780	9.21578	0.667226	0	
0.6787	10.4369	0.0580196	0	
0.6793	13.2016	-1.4795	0	
0.6800	23.2698	-3.91632	0	
0.6807	29.3753	-6.03404	0	
0.6813	31.8175	-5.74394	0	
0.6820	36.7018	-4.52553	0	
0.6827	38.2224	-4.81563	0	
0.6833	36.3793	-4.52553	0	
0.6840	35.4808	-3.91632	0	
0.6847	29.0527	-5.42484	0	
0.6853	20.5282	-6.03404	0	
0.6860	17.7634	-3.91632	0	
0.6867	13.2016	-2.98801	0	
0.6873	3.43288	-5.13474	0	
0.6880	-2.97209	-4.81563	0	
0.6887	-9.4001	-3.30712	0	
0.6893	-19.4683	-4.52553	0	
0.6900	-25.8733	-5.42484	0	
0.6907	-27.3939	-1.7696	0	
0.6913	-28.9145	1.59554	0	
0.6920	-30.7577	-0.261088	0	
0.6927	-33.4994	-1.4795	0	
0.6933	-34.4209	-0.261088	0	
0.6940	-26.4723	-0.551186	0	
0.6947	-13.3629	-2.3788	0	
0.6953	-6.33585	-1.16039	0	
0.6960	-5.11476	2.49484	0	
0.6967	-4.81525	4.32246	0	
0.6973	-4.19318	4.32246	0	
0.6980	-3.29464	3.42316	0	
0.6987	-1.45149	2.49484	0	
0.6993	-1.15197	3.42316	0	
0.7000	-0.230395	5.25078	0	
0.7007	3.13337	3.42316	0	
0.7013	7.69518	0.986334	0	
0.7020	10.7594	2.20475	0	
0.7027	12.28	3.10405	0	
0.7033	13.8006	1.59554	0	
0.7040	16.8649	-0.551186	0	
0.7047	21.1272	-2.08871	0	
0.7053	22.9703	-2.3788	0	
0.7060	20.5282	-1.16039	0	
0.7067	17.1644	-2.08871	0	
0.7073	16.8649	-4.81563	0	
0.7080	19.6066	-2.3788	0	
0.7087	21.4267	0.377128	0	
0.7093	19.6066	-5.42484	0	
0.7100	15.0217	-10.3275	0	
0.7107	10.4369	-6.03404	0	
0.7113	6.47409	-3.91632	0	
0.7120	0.368631	-7.25245	0	
0.7127	-5.41427	-5.74394	0	
0.7133	-8.77803	-3.91632	0	
0.7140	-12.4413	-5.42484	0	
0.7147	-17.6252	-5.42484	0	
0.7153	-18.8463	-2.98801	0	
0.7160	-17.0262	-2.98801	0	
0.7167	-16.1046	-2.69791	0	
0.7173	-17.3257	-0.261088	0	
0.7180	-18.2472	1.59554	0	
0.7187	-18.5468	3.42316	0	
0.7193	-18.2472	5.54087	0	
0.7200	-18.2472	5.54087	0	
0.7207	-17.6252	5.25078	0	
0.7213	-16.1046	6.15008	0	
0.7220	-15.183	5.25078	0	
0.7227	-11.5197	5.25078	0	
0.7233	-6.03634	7.6876	0	
0.7240	-3.29464	7.07839	0	
0.7247	-0.85246	2.49484	0	
0.7253	5.87506	0.667226	0	
0.7260	11.3584	0.377128	0	
0.7267	12.8791	-2.08871	0	
0.7273	14.4227	-4.52553	0	
0.7280	14.1001	-4.52553	0	
0.7287	12.28	-2.08871	0	
0.7293	11.3584	0.667226	0	
0.7300	7.99469	3.42316	0	
0.7307	2.21179	6.15008	0	
0.7313	-0.529907	8.29681	0	
0.7320	-0.529907	7.07839	0	
0.7327	-2.37306	4.03236	0	
0.7333	-5.11476	3.10405	0	
0.7340	-6.03634	5.25078	0	
0.7347	-7.25743	5.85998	0	
0.7353	-7.85645	3.71326	0	
0.7360	-6.33585	1.27643	0	
0.7367	-4.51573	1.59554	0	
0.7373	-4.81525	2.49484	0	
0.7380	1.29021	1.59554	0	
0.7387	20.2056	-0.551186	0	
0.7393	39.4435	-1.4795	0	
0.7400	46.148	-2.08871	0	
0.7407	48.8897	-2.98801	0	
0.7413	54.0966	-3.91632	0	
0.7420	53.7741	-4.20642	0	
0.7427	49.8113	-3.59722	0	
0.7433	46.7701	-2.3788	0	
0.7440	39.7431	-3.30712	0	
0.7447	29.3753	-3.59722	0	
0.7453	20.8277	-2.3788	0	
0.7460	10.4369	-2.98801	0	
0.7467	-5.73682	-3.91632	0	
0.7473	-20.6894	-0.870294	0	
0.7480	-29.8361	0.667226	0	
0.7487	-36.2411	-2.08871	0	
0.7493	-44.4892	-2.3788	0	
0.7500	-51.8157	0.667226	0	
0.7507	-54.5574	2.49484	0	
0.7513	-56.078	2.49484	0	
0.7520	-58.2207	2.49484	0	
0.7527	-55.7785	2.81395	0	
0.7533	-50.8941	2.49484	0	
0.7540	-45.4108	1.88564	0	
0.7547	-37.7617	3.42316	0	
0.7553	-30.1356	6.15008	0	
0.7560	-26.4723	7.07839	0	
0.7567	-20.9889	7.07839	0	
0.7573	-13.3629	9.22512	0	
0.7580	-9.69961	8.90601	0	
0.7587	-7.85645	4.64157	0	
0.7593	-2.37306	4.32246	0	
0.7600	1.58972	7.6876	0	
0.7607	4.35446	7.36849	0	
0.7613	8.91627	5.54087	0	
0.7620	11.9805	5.25078	0	
0.7627	14.4227	2.49484	0	
0.7633	18.086	-3.59722	0	
0.7640	21.4267	-4.81563	0	
0.7647	27.2326	-3.91632	0	
0.7653	39.4435	-6.03404	0	
0.7660	50.4334	-10.3275	0	
0.7667	54.3961	-10.9367	0	
0.7673	53.4746	-10.6176	0	
0.7680	48.2907	-13.0544	0	
0.7687	43.1068	-14.882	0	
0.7693	40.6646	-13.9827	0	
0.7700	35.4808	-12.4452	0	
0.7707	26.9331	-11.5459	0	
0.7713	21.4267	-10.3275	0	
0.7720	18.685	-10.0084	0	
0.7727	12.5795	-10.6176	0	
0.7733	7.09615	-9.39918	0	
0.7740	4.0319	-6.35315	0	
0.7747	0.0691184	-5.74394	0	
0.7753	-6.95791	-5.74394	0	
0.7760	-13.3629	-4.52553	0	
0.7767	-17.0262	-2.3788	0	
0.7773	-19.1458	0.667226	0	
0.7780	-21.2885	5.25078	0	
0.7787	-23.1316	5.85998	0	
0.7793	-24.3527	3.42316	0	
0.7800	-23.4311	2.49484	0	
0.7807	-21.588	2.49484	0	
0.7813	-20.6894	1.27643	0	
0.7820	-20.6894	2.49484	0	
0.7827	-20.3669	5.25078	0	
0.7833	-22.21	5.85998	0	
0.7840	-21.588	7.07839	0	
0.7847	-16.7036	8.00671	0	
0.7853	-15.183	5.25078	0	
0.7860	-14.584	2.49484	0	
0.7867	-9.4001	2.49484	0	
0.7873	-4.81525	2.49484	0	
0.7880	-1.45149	0.377128	0	
0.7887	2.21179	-2.08871	0	
0.7893	1.29021	-3.30712	0	
0.7900	0.368631	-2.08871	0	
0.7907	3.13337	0.986334	0	
0.7913	0.691184	1.88564	0	
0.7920	-3.59415	0.667226	0	
0.7927	-1.45149	0.986334	0	
0.7933	1.58972	1.27643	0	
0.7940	3.73239	-2.08871	0	
0.7947	7.99469	-4.81563	0	
0.7953	9.53833	-3.30712	0	
0.7960	14.1001	-2.08871	0	
0.7967	25.3895	-3.91632	0	
0.7973	31.4949	-5.13474	0	
0.7980	31.1954	-4.52553	0	
0.7987	32.4165	-3.59722	0	
0.7993	32.117	-3.91632	0	
0.8000	30.5964	-5.42484	0	
0.8007	31.8175	-4.52553	0	
0.8013	26.3111	-3.91632	0	
0.8020	18.685	-4.81563	0	
0.8027	16.2428	-5.74394	0	
0.8033	11.3584	-6.03404	0	
0.8040	3.13337	-6.96236	0	
0.8047	-1.45149	-6.64325	0	
0.8053	-8.17901	-6.64325	0	
0.8060	-18.2472	-8.18077	0	
0.8067	-25.2512	-7.25245	0	
0.8073	-32.2783	-5.74394	0	
0.8080	-38.3837	-6.03404	0	
0.8087	-38.6832	-5.13474	0	
0.8093	-39.9043	-3.91632	0	
0.8100	-38.0842	-3.91632	0	
0.8107	-22.21	-3.91632	0	
0.8113	-6.63536	-2.69791	0	
0.8120	-2.37306	-0.870294	0	
0.8127	-1.45149	2.49484	0	
0.8133	-3.29464	4.32246	0	
0.8140	-10.6212	5.25078	0	
0.8147	-10.6212	8.90601	0	
0.8153	-3.29464	12.8804	0	
0.8160	0.368631	13.1705	0	
0.8167	4.95348	12.5612	0	
0.8173	11.658	11.952	0	
0.8180	12.28	8.29681	0	
0.8187	9.21578	5.54087	0	
0.8193	9.21578	7.6876	0	
0.8200	9.21578	7.6876	0	
0.8207	9.83785	0.667226	0	
0.8213	14.1001	-6.35315	0	
0.8220	18.086	-9.39918	0	
0.8227	19.6066	-8.49988	0	
0.8233	19.6066	-4.81563	0	
0.8240	17.7634	-5.13474	0	
0.8247	13.2016	-10.3275	0	
0.8253	9.83785	-11.2268	0	
0.8260	8.91627	-6.96236	0	
0.8267	6.7736	-5.13474	0	
0.8273	0.368631	-5.74394	0	
0.8280	-5.11476	-4.81563	0	
0.8287	-6.95791	-4.81563	0	
0.8293	-10.2986	-4.20642	0	
0.8300	-16.7036	-1.16039	0	
0.8307	-23.4311	1.59554	0	
0.8313	-28.9145	4.03236	0	
0.8320	-32.5778	9.83433	0	
0.8327	-36.2411	13.7797	0	
0.8333	-38.0842	10.7336	0	
0.8340	-33.4994	7.07839	0	
0.8347	-23.4311	8.00671	0	
0.8353	-15.183	8.00671	0	
0.8360	-8.77803	5.54087	0	
0.8367	-3.59415	4.32246	0	
0.8373	-2.37306	2.49484	0	
0.8380	1.58972	-0.870294	0	
0.8387	8.61675	-1.7696	0	
0.8393	12.5795	-0.261088	0	
0.8400	15.6438	-0.261088	0	
0.8407	18.685	-2.3788	0	
0.8413	17.7634	-4.20642	0	
0.8420	14.1001	-5.42484	0	
0.8427	9.53833	-4.81563	0	
0.8433	4.35446	-4.81563	0	
0.8440	3.13337	-5.74394	0	
0.8447	2.21179	-6.35315	0	
0.8453	-2.37306	-5.13474	0	
0.8460	-2.37306	-3.59722	0	
0.8467	6.17457	-2.98801	0	
0.8473	15.0217	-2.98801	0	
0.8480	18.9845	-2.08871	0	
0.8487	17.7634	-1.16039	0	
0.8493	14.1001	-2.98801	0	
0.8500	12.8791	-2.69791	0	
0.8507	12.28	-0.261088	0	
0.8513	9.21578	1.59554	0	
0.8520	7.99469	3.42316	0	
0.8527	7.39566	5.54087	0	
0.8533	2.21179	5.25078	0	
0.8540	-1.45149	1.88564	0	
0.8547	1.58972	-2.3788	0	
0.8553	5.25299	-4.52553	0	
0.8560	6.47409	-3.59722	0	
0.8567	4.95348	-2.98801	0	
0.8573	1.29021	-5.42484	0	
0.8580	-2.97209	-7.89067	0	
0.8587	-6.95791	-7.57156	0	
0.8593	-11.8192	-6.03404	0	
0.8600	-13.3629	-5.13474	0	
0.8607	-10.6212	-3.59722	0	
0.8613	-7.25743	-2.3788	0	
0.8620	-5.11476	-3.91632	0	
0.8627	-3.89367	-4.20642	0	
0.8633	-6.95791	-2.69791	0	
0.8640	-10.6212	-2.69791	0	
0.8647	-7.85645	-2.98801	0	
0.8653	-2.67258	-0.261088	0	
0.8660	-1.751	-1.16039	0	
0.8667	-0.85246	-4.81563	0	
0.8673	3.13337	-3.30712	0	
0.8680	4.0319	0.986334	0	
0.8687	2.21179	1.88564	0	
0.8693	0.0691184	2.49484	0	
0.8700	-3.89367	4.64157	0	
0.8707	-9.07754	6.15008	0	
0.8713	-11.2202	6.46919	0	
0.8720	-11.5197	4.93167	0	
0.8727	-14.2614	4.93167	0	
0.8733	-16.1046	7.07839	0	
0.8740	-16.1046	7.36849	0	
0.8747	-13.0403	7.6876	0	
0.8753	-6.63536	9.51522	0	
0.8760	1.29021	7.07839	0	
0.8767	6.47409	0.667226	0	
0.8773	12.28	-1.16039	0	
0.8780	23.5694	-1.7696	0	
0.8787	35.7803	-4.20642	0	
0.8793	41.5862	-5.42484	0	
0.8800	42.8073	-6.03404	0	
0.8807	45.8485	-9.39918	0	
0.8813	47.0696	-10.3275	0	
0.8820	44.3279	-8.18077	0	
0.8827	44.3279	-6.64325	0	
0.8833	47.0696	-7.25245	0	
0.8840	42.4847	-7.57156	0	
0.8847	30.5964	-5.74394	0	
0.8853	17.7634	-3.30712	0	
0.8860	7.69518	-3.91632	0	
0.8867	0.990696	-7.25245	0	
0.8873	-6.95791	-7.25245	0	
0.8880	-19.7678	-4.20642	0	
0.8887	-34.4209	-3.59722	0	
0.8893	-44.4892	-4.20642	0	
0.8900	-48.452	-4.52553	0	
0.8907	-49.3735	-3.91632	0	
0.8913	-52.7143	-3.91632	0	
0.8920	-52.7143	-2.69791	0	
0.8927	-44.1897	-1.16039	0	
0.8933	-32.8773	-0.870294	0	
0.8940	-25.8733	-2.69791	0	
0.8947	-20.6894	-2.98801	0	
0.8953	-16.4041	0.667226	0	
0.8960	-10.6212	3.10405	0	
0.8967	-2.37306	2.49484	0	
0.8973	3.13337	2.81395	0	
0.8980	7.39566	4.32246	0	
0.8987	13.8006	4.93167	0	
0.8993	15.0217	5.25078	0	
0.9000	12.5795	3.42316	0	
0.9007	14.7222	-0.261088	0	
0.9013	15.9433	0.377128	0	
0.9020	11.0589	4.03236	0	
0.9027	5.87506	3.71326	0	
0.9033	1.91227	3.71326	0	
0.9040	-3.29464	5.25078	0	
0.9047	-5.11476	4.32246	0	
0.9053	-6.03634	4.32246	0	
0.9060	-10.6212	8.00671	0	
0.9067	-14.2614	10.1244	0	
0.9073	-13.6624	8.61591	0	
0.9080	-14.8835	7.6876	0	
0.9087	-16.1046	8.61591	0	
0.9093	-13.6624	9.51522	0	
0.9100	-10.9207	8.61591	0	
0.9107	-10.2986	6.46919	0	
0.9113	-7.55694	8.00671	0	
0.9120	-1.15197	10.1244	0	
0.9127	0.691184	8.90601	0	
0.9133	-3.89367	6.15008	0	
0.9140	-5.11476	4.32246	0	
0.9147	-0.230395	2.49484	0	
0.9153	3.13337	-1.16039	0	
0.9160	4.0319	-5.42484	0	
0.9167	6.7736	-6.03404	0	
0.9173	7.39566	-3.91632	0	
0.9180	5.87506	-3.91632	0	
0.9187	8.61675	-2.69791	0	
0.9193	14.1001	-0.261088	0	
0.9200	17.7634	-1.4795	0	
0.9207	21.4267	-3.91632	0	
0.9213	22.3483	-2.98801	0	
0.9220	20.5282	-3.30712	0	
0.9227	21.4267	-4.20642	0	
0.9233	20.5282	-2.98801	0	
0.9240	11.9805	-4.81563	0	
0.9247	5.57555	-7.89067	0	
0.9253	5.87506	-6.96236	0	
0.9260	4.95348	-8.78997	0	
0.9267	1.29021	-15.2011	0	
0.9273	-2.37306	-15.8103	0	
0.9280	-3.29464	-13.0544	0	
0.9287	-0.529907	-13.0544	0	
0.9293	3.13337	-11.2268	0	
0.9300	6.7736	-6.35315	0	
0.9307	16.2428	-4.81563	0	
0.9313	29.0527	-7.57156	0	
0.9320	38.8215	-8.78997	0	
0.9327	44.3279	-7.25245	0	
0.9333	44.9269	-5.74394	0	
0.9340	39.144	-5.74394	0	
0.9347	32.716	-3.91632	0	
0.9353	27.8317	-1.16039	0	
0.9360	19.6066	0.377128	0	
0.9367	6.47409	1.59554	0	
0.9373	-5.11476	3.71326	0	
0.9380	-13.9619	4.64157	0	
0.9387	-23.4311	4.64157	0	
0.9393	-34.7205	4.32246	0	
0.9400	-44.7887	3.42316	0	
0.9407	-50.8941	2.49484	0	
0.9413	-50.8941	0.377128	0	
0.9420	-46.9314	-1.16039	0	
0.9427	-43.8671	0.986334	0	
0.9433	-39.6048	4.32246	0	
0.9440	-29.8361	3.42316	0	
0.9447	-20.6894	0.377128	0	
0.9453	-13.3629	-2.08871	0	
0.9460	-1.751	-3.91632	0	
0.9467	10.4369	-5.42484	0	
0.9473	14.7222	-8.78997	0	
0.9480	12.5795	-9.71829	0	
0.9487	10.4369	-5.74394	0	
0.9493	9.83785	-2.3788	0	
0.9500	9.53833	-2.69791	0	
0.9507	5.87506	-3.30712	0	
0.9513	0.368631	-2.08871	0	
0.9520	-3.89367	-0.261088	0	
0.9527	-5.41427	2.49484	0	
0.9533	-7.85645	4.32246	0	
0.9540	-9.69961	4.32246	0	
0.9547	-6.63536	2.81395	0	
0.9553	-2.07355	0.667226	0	
0.9560	0.691184	-1.4795	0	
0.9567	6.47409	-2.3788	0	
0.9573	15.9433	-3.91632	0	
0.9580	20.2056	-6.03404	0	
0.9587	20.8277	-5.74394	0	
0.9593	25.09	-2.08871	0	
0.9600	27.8317	1.59554	0	
0.9607	23.2698	2.20475	0	
0.9613	19.3071	3.42316	0	
0.9620	18.9845	8.00671	0	
0.9627	17.1644	10.4435	0	
0.9633	14.1001	5.54087	0	
0.9640	9.83785	-0.261088	0	
0.9647	3.43288	0.667226	0	
0.9653	-1.751	2.49484	0	
0.9660	-6.03634	0.667226	0	
0.9667	-12.1418	1.27643	0	
0.9673	-17.9247	2.81395	0	
0.9680	-22.8091	2.49484	0	
0.9687	-28.3155	4.64157	0	
0.9693	-33.1998	7.36849	0	
0.9700	-33.1998	4.93167	0	
0.9707	-30.4351	2.81395	0	
0.9713	-29.2371	3.71326	0	
0.9720	-29.8361	3.10405	0	
0.9727	-29.2371	2.49484	0	
0.9733	-27.3939	3.10405	0	
0.9740	-28.016	4.32246	0	
0.9747	-27.0944	7.6876	0	
0.9753	-20.0674	9.51522	0	
0.9760	-16.7036	6.75929	0	
0.9767	-17.9247	5.85998	0	
0.9773	-13.3629	7.6876	0	
0.9780	-4.51573	7.6876	0	
0.9787	-2.67258	7.36849	0	
0.9793	-0.529907	7.6876	0	
0.9800	5.25299	4.64157	0	
0.9807	8.61675	3.42316	0	
0.9813	15.0217	7.36849	0	
0.9820	29.9743	7.07839	0	
0.9827	38.8215	1.27643	0	
0.9833	37.6004	-1.16039	0	
0.9840	38.8215	0.377128	0	
0.9847	41.2637	-1.16039	0	
0.9853	37.3009	-2.98801	0	
0.9860	34.2597	-0.870294	0	
0.9867	33.3381	-0.261088	0	
0.9873	26.0115	-3.59722	0	
0.9880	15.3212	-6.03404	0	
0.9887	10.4369	-6.64325	0	
0.9893	8.31724	-8.49988	0	
0.9900	4.95348	-10.0084	0	
0.9907	3.13337	-6.96236	0	
0.9913	0.368631	-4.20642	0	
0.9920	-4.51573	-3.91632	0	
0.9927	-9.07754	-3.30712	0	
0.9933	-14.584	-2.3788	0	
0.9940	-17.9247	-4.52553	0	
0.9947	-15.8051	-5.42484	0	
0.9953	-13.0403	-2.3788	0	
0.9960	-12.7408	-1.4795	0	
0.9967	-10.9207	-3.30712	0	
0.9973	-9.69961	-2.98801	0	
0.9980	-11.8192	-0.261088	0	
0.9987	-13.3629	3.71326	0	
0.9993	-13.9619	4.93167	0	
1.0000	-16.7036	1.59554	0	
1.0007	-17.0262	-0.870294	0	
1.0013	-13.6624	0.667226	0	
1.0020	-11.8192	1.59554	0	
1.0027	-10.6212	2.49484	0	
1.0033	-7.85645	2.49484	0	
1.0040	-6.63536	0.377128	0	
1.0047	-4.81525	0.667226	0	
1.0053	-2.37306	1.88564	0	
1.0060	-2.07355	-1.7696	0	
1.0067	0.368631	-5.13474	0	
1.0073	11.0589	-4.52553	0	
1.0080	22.9703	-5.42484	0	
1.0087	25.712	-7.57156	0	
1.0093	24.7904	-7.57156	0	
1.0100	27.2326	-8.18077	0	
1.0107	29.0527	-8.78997	0	
1.0113	26.6106	-6.35315	0	
1.0120	23.5694	-4.81563	0	
1.0127	22.3483	-5.74394	0	
1.0133	20.2056	-3.91632	0	
1.0140	15.0217	-0.870294	0	
1.0147	9.53833	-0.551186	0	
1.0153	4.95348	-2.69791	0	
1.0160	1.58972	-3.59722	0	
1.0167	0.990696	-2.08871	0	
1.0173	0.990696	-0.870294	0	
1.0180	-0.85246	-1.7696	0	
1.0187	-2.07355	-0.870294	0	
1.0193	-0.85246	2.49484	0	
1.0200	-0.230395	2.49484	0	
1.0207	-0.529907	1.88564	0	
1.0213	-2.37306	4.32246	0	
1.0220	-6.95791	5.25078	0	
1.0227	-9.69961	2.81395	0	
1.0233	-7.25743	3.42316	0	
1.0240	-6.03634	5.85998	0	
1.0247	-9.99912	5.25078	0	
1.0253	-12.7408	4.64157	0	
1.0260	-11.5197	4.64157	0	
1.0267	-11.5197	3.10405	0	
1.0273	-12.4413	-1.16039	0	
1.0280	-11.5197	-5.74394	0	
1.0287	-11.8192	-6.64325	0	
1.0293	-17.0262	-2.3788	0	
1.0300	-21.588	-1.7696	0	
1.0307	-21.2885	-4.52553	0	
1.0313	-20.3669	-4.52553	0	
1.0320	-18.8463	-3.59722	0	
1.0327	-15.183	-3.30712	0	
1.0333	-12.7408	-1.4795	0	
1.0340	-10.6212	-0.261088	0	
1.0347	-5.11476	0.986334	0	
1.0353	-2.37306	3.10405	0	
1.0360	-3.29464	3.71326	0	
1.0367	-1.751	3.71326	0	
1.0373	3.13337	4.32246	0	
1.0380	7.09615	1.88564	0	
1.0387	9.53833	-0.870294	0	
1.0393	9.53833	0.667226	0	
1.0400	8.61675	1.59554	0	
1.0407	8.91627	0.667226	0	
1.0413	7.09615	0.667226	0	
1.0420	4.95348	1.27643	0	
1.0427	5.87506	-0.261088	0	
1.0433	6.7736	-0.870294	0	
1.0440	5.87506	0.377128	0	
1.0447	6.47409	0.667226	0	
1.0453	5.57555	-0.551186	0	
1.0460	1.58972	-2.08871	0	
1.0467	0.691184	-1.7696	0	
1.0473	4.0319	-0.261088	0	
1.0480	5.87506	-0.261088	0	
1.0487	6.7736	-0.870294	0	
1.0493	7.09615	0.377128	0	
1.0500	5.87506	1.59554	0	
1.0507	6.7736	0.667226	0	
1.0513	10.7594	-0.261088	0	
1.0520	13.2016	-0.551186	0	
1.0527	15.9433	-1.4795	0	
1.0533	20.5282	-2.08871	0	
1.0540	23.2698	-1.4795	0	
1.0547	22.3483	-1.7696	0	
1.0553	20.2056	-3.30712	0	
1.0560	16.2428	-4.52553	0	
1.0567	12.28	-4.52553	0	
1.0573	8.91627	-2.98801	0	
1.0580	4.0319	0.0580196	0	
1.0587	0.368631	3.42316	0	
1.0593	-2.37306	3.71326	0	
1.0600	-7.25743	0.667226	0	
1.0607	-10.9207	0.667226	0	
1.0613	-11.5197	4.93167	0	
1.0620	-13.3629	5.54087	0	
1.0627	-16.4041	1.59554	0	
1.0633	-15.183	1.27643	0	
1.0640	-13.3629	2.49484	0	
1.0647	-14.2614	2.49484	0	
1.0653	-15.183	3.71326	0	
1.0660	-15.183	4.93167	0	
1.0667	-13.3629	4.93167	0	
1.0673	-12.4413	6.15008	0	
1.0680	-13.9619	5.54087	0	
1.0687	-14.584	1.88564	0	
1.0693	-12.1418	1.88564	0	
1.0700	-10.6212	4.32246	0	
1.0707	-9.69961	2.49484	0	
1.0713	-8.77803	0.986334	0	
1.0720	-7.85645	5.25078	0	
1.0727	-7.55694	10.7336	0	
1.0733	-6.03634	11.6619	0	
1.0740	-5.11476	8.90601	0	
1.0747	-4.51573	8.00671	0	
1.0753	-2.67258	7.36849	0	
1.0760	0.691184	5.25078	0	
1.0767	3.13337	2.49484	0	
1.0773	3.13337	1.59554	0	
1.0780	3.43288	3.42316	0	
1.0787	4.95348	5.54087	0	
1.0793	5.57555	4.64157	0	
1.0800	6.7736	1.59554	0	
1.0807	8.61675	3.10405	0	
1.0813	10.4369	4.93167	0	
1.0820	13.2016	2.49484	0	
1.0827	17.7634	-0.261088	0	
1.0833	18.685	-1.4795	0	
1.0840	18.3855	-2.3788	0	
1.0847	20.5282	-2.08871	0	
1.0853	20.2056	-2.3788	0	
1.0860	16.8649	-2.69791	0	
1.0867	17.7634	-0.870294	0	
1.0873	17.7634	-2.08871	0	
1.0880	11.658	-6.64325	0	
1.0887	7.69518	-8.49988	0	
1.0893	7.39566	-9.39918	0	
1.0900	3.13337	-12.1551	0	
1.0907	0.0691184	-10.0084	0	
1.0913	0.0691184	-4.52553	0	
1.0920	-3.29464	-3.91632	0	
1.0927	-6.95791	-3.91632	0	
1.0933	-5.41427	-2.08871	0	
1.0940	-7.55694	-2.69791	0	
1.0947	-12.1418	-4.52553	0	
1.0953	-10.6212	-3.91632	0	
1.0960	-6.95791	-2.3788	0	
1.0967	-6.03634	-2.08871	0	
1.0973	-2.67258	-2.08871	0	
1.0980	1.29021	-2.98801	0	
1.0987	0.0691184	-3.30712	0	
1.0993	-3.89367	-2.08871	0	
1.1000	-6.03634	-1.16039	0	
1.1007	-5.11476	-2.3788	0	
1.1013	-2.97209	-2.08871	0	
1.1020	-1.45149	0.667226	0	
1.1027	-0.85246	0.377128	0	
1.1033	-0.529907	-0.870294	0	
1.1040	-3.29464	-0.261088	0	
1.1047	-5.11476	0.377128	0	
1.1053	-3.29464	-0.870294	0	
1.1060	-3.89367	-2.08871	0	
1.1067	-6.95791	-2.98801	0	
1.1073	-6.63536	-2.69791	0	
1.1080	-5.73682	-2.98801	0	
1.1087	-6.95791	-4.81563	0	
1.1093	-7.55694	-4.52553	0	
1.1100	-7.85645	-4.20642	0	
1.1107	-3.59415	-6.64325	0	
1.1113	12.28	-6.35315	0	
1.1120	33.0386	-4.20642	0	
1.1127	43.4063	-6.64325	0	
1.1133	43.7058	-7.57156	0	
1.1140	42.8073	-4.52553	0	
1.1147	44.3279	-4.52553	0	
1.1153	43.7058	-5.74394	0	
1.1160	37.9229	-3.91632	0	
1.1167	30.8959	-2.98801	0	
1.1173	23.8689	-4.81563	0	
1.1180	14.7222	-3.91632	0	
1.1187	4.65397	-0.870294	0	
1.1193	-4.81525	-0.870294	0	
1.1200	-14.2614	-1.4795	0	
1.1207	-24.3527	1.27643	0	
1.1213	-34.0984	2.49484	0	
1.1220	-41.1254	2.81395	0	
1.1227	-45.4108	5.54087	0	
1.1233	-49.051	5.54087	0	
1.1240	-49.9726	1.59554	0	
1.1247	-46.0098	2.81395	0	
1.1253	-38.9828	6.15008	0	
1.1260	-31.0572	3.42316	0	
1.1267	-21.588	0.667226	0	
1.1273	-12.4413	2.49484	0	
1.1280	-6.63536	2.81395	0	
1.1287	-4.51573	-0.261088	0	
1.1293	-4.19318	-2.98801	0	
1.1300	-4.19318	-3.91632	0	
1.1307	-2.37306	-2.69791	0	
1.1313	-0.85246	-1.16039	0	
1.1320	-1.45149	-1.4795	0	
1.1327	-2.37306	-0.551186	0	
1.1333	-1.45149	0.667226	0	
1.1340	-0.529907	-2.08871	0	
1.1347	-1.45149	-2.98801	0	
1.1353	-5.11476	-0.551186	0	
1.1360	-8.77803	-1.16039	0	
1.1367	-10.6212	-2.08871	0	
1.1373	-8.77803	-0.261088	0	
1.1380	-7.85645	-0.551186	0	
1.1387	-8.17901	-2.08871	0	
1.1393	-4.51573	0.986334	0	
1.1400	-0.529907	2.49484	0	
1.1407	-2.67258	0.986334	0	
1.1413	-2.37306	2.81395	0	
1.1420	5.57555	4.03236	0	
1.1427	11.3584	0.667226	0	
1.1433	10.1374	-0.261088	0	
1.1440	8.61675	1.27643	0	
1.1447	11.9805	0.667226	0	
1.1453	14.1001	1.27643	0	
1.1460	11.3584	2.49484	0	
1.1467	10.4369	1.88564	0	
1.1473	15.0217	1.59554	0	
1.1480	17.4639	-0.870294	0	
1.1487	15.6438	-6.03404	0	
1.1493	16.8649	-7.57156	0	
1.1500	20.5282	-4.20642	0	
1.1507	19.9061	-3.91632	0	
1.1513	15.3212	-4.52553	0	
1.1520	13.2016	-4.81563	0	
1.1527	14.7222	-4.81563	0	
1.1533	17.1644	-2.98801	0	
1.1540	19.3071	-2.08871	0	
1.1547	20.5282	-3.91632	0	
1.1553	18.9845	-3.91632	0	
1.1560	14.7222	-0.870294	0	
1.1567	12.28	-1.16039	0	
1.1573	10.7594	-1.16039	0	
1.1580	5.57555	1.59554	0	
1.1587	0.368631	4.03236	0	
1.1593	-1.45149	4.64157	0	
1.1600	-2.67258	4.32246	0	
1.1607	-4.81525	3.10405	0	
1.1613	-5.41427	4.03236	0	
1.1620	-7.25743	7.07839	0	
1.1627	-9.07754	4.93167	0	
1.1633	-6.63536	0.667226	0	
1.1640	-5.73682	-0.870294	0	
1.1647	-8.77803	-2.3788	0	
1.1653	-9.69961	-3.91632	0	
1.1660	-7.85645	-3.91632	0	
1.1667	-5.73682	-2.98801	0	
1.1673	-2.37306	-2.98801	0	
1.1680	-1.45149	-2.98801	0	
1.1687	-5.11476	-4.52553	0	
1.1693	-6.33585	-7.57156	0	
1.1700	-1.15197	-5.74394	0	
1.1707	4.65397	-1.4795	0	
1.1713	7.69518	-1.16039	0	
1.1720	8.61675	-2.69791	0	
1.1727	9.53833	-2.98801	0	
1.1733	12.28	-3.91632	0	
1.1740	15.6438	-5.42484	0	
1.1747	18.086	-4.20642	0	
1.1753	20.8277	-2.08871	0	
1.1760	24.1914	-3.91632	0	
1.1767	25.712	-5.13474	0	
1.1773	26.3111	-3.30712	0	
1.1780	27.8317	-3.30712	0	
1.1787	27.8317	-7.25245	0	
1.1793	24.4909	-7.57156	0	
1.1800	21.4267	-3.91632	0	
1.1807	23.2698	-2.98801	0	
1.1813	28.7532	-5.13474	0	
1.1820	32.4165	-6.64325	0	
1.1827	29.6748	-6.64325	0	
1.1833	24.1914	-6.35315	0	
1.1840	20.2056	-6.64325	0	
1.1847	14.1001	-5.74394	0	
1.1853	4.95348	-2.98801	0	
1.1860	-4.81525	0.0580196	0	
1.1867	-13.9619	1.88564	0	
1.1873	-22.5095	4.32246	0	
1.1880	-28.3155	6.46919	0	
1.1887	-33.4994	5.54087	0	
1.1893	-41.1254	5.25078	0	
1.1900	-47.5304	7.07839	0	
1.1907	-50.2721	8.90601	0	
1.1913	-54.2579	8.90601	0	
1.1920	-58.2207	8.90601	0	
1.1927	-54.5574	10.7336	0	
1.1933	-48.452	12.2712	0	
1.1940	-46.6318	11.6619	0	
1.1947	-43.8671	10.4435	0	
1.1953	-36.2411	9.83433	0	
1.1960	-30.1356	7.6876	0	
1.1967	-25.2512	5.25078	0	
1.1973	-17.0262	5.25078	0	
1.1980	-10.6212	5.54087	0	
1.1987	-9.4001	5.54087	0	
1.1993	-9.69961	6.75929	0	
1.2000	-7.85645	6.15008	0	
1.2007	-4.19318	3.42316	0	
1.2013	0.691184	-0.551186	0	
1.2020	4.65397	-2.69791	0	
1.2027	7.99469	-1.4795	0	
1.2033	11.658	0.667226	0	
1.2040	15.0217	-0.870294	0	
1.2047	15.0217	-3.91632	0	
1.2053	14.1001	-3.59722	0	
1.2060	12.5795	-1.16039	0	
1.2067	9.21578	-0.870294	0	
1.2073	5.87506	-2.3788	0	
1.2080	3.43288	-3.30712	0	
1.2087	0.691184	-3.91632	0	
1.2093	-1.15197	-4.81563	0	
1.2100	0.691184	-5.13474	0	
1.2107	3.43288	-4.81563	0	
1.2113	10.4369	-6.35315	0	
1.2120	26.0115	-8.18077	0	
1.2127	39.7431	-7.57156	0	
1.2133	41.5862	-6.64325	0	
1.2140	37.0014	-8.78997	0	
1.2147	35.1582	-10.3275	0	
1.2153	30.8959	-9.39918	0	
1.2160	23.2698	-7.57156	0	
1.2167	16.8649	-5.74394	0	
1.2173	14.7222	-4.81563	0	
1.2180	11.9805	-5.74394	0	
1.2187	4.95348	-4.20642	0	
1.2193	-2.67258	0.0580196	0	
1.2200	-10.2986	2.49484	0	
1.2207	-19.7678	3.10405	0	
1.2213	-27.3939	5.54087	0	
1.2220	-29.8361	8.61591	0	
1.2227	-30.1356	7.07839	0	
1.2233	-28.9145	1.88564	0	
1.2240	-22.21	-0.261088	0	
1.2247	-14.584	0.986334	0	
1.2253	-10.9207	1.59554	0	
1.2260	-8.47852	2.20475	0	
1.2267	-2.37306	3.42316	0	
1.2273	3.73239	3.71326	0	
1.2280	5.87506	3.10405	0	
1.2287	5.87506	2.81395	0	
1.2293	9.53833	2.20475	0	
1.2300	12.5795	0.986334	0	
1.2307	9.21578	0.667226	0	
1.2313	4.95348	1.88564	0	
1.2320	4.35446	4.32246	0	
1.2327	1.29021	4.32246	0	
1.2333	-6.63536	0.986334	0	
1.2340	-12.7408	-0.870294	0	
1.2347	-14.2614	-1.16039	0	
1.2353	-14.2614	-3.30712	0	
1.2360	-14.8835	-4.52553	0	
1.2367	-14.8835	-2.3788	0	
1.2373	-13.3629	-0.870294	0	
1.2380	-11.8192	-0.870294	0	
1.2387	-10.9207	0.667226	0	
1.2393	-9.4001	1.88564	0	
1.2400	-7.55694	2.20475	0	
1.2407	-4.19318	2.49484	0	
1.2413	1.58972	2.81395	0	
1.2420	7.69518	1.59554	0	
1.2427	9.83785	-0.261088	0	
1.2433	7.69518	-1.7696	0	
1.2440	7.09615	-3.91632	0	
1.2447	10.4369	-5.74394	0	
1.2453	10.4369	-5.74394	0	
1.2460	7.99469	-3.91632	0	
1.2467	11.9805	-2.98801	0	
1.2473	18.685	-5.42484	0	
1.2480	17.4639	-7.89067	0	
1.2487	10.7594	-6.64325	0	
1.2493	7.99469	-3.91632	0	
1.2500	7.39566	-3.91632	0	
1.2507	4.95348	-5.74394	0	
1.2513	1.58972	-6.03404	0	
1.2520	-2.97209	-6.03404	0	
1.2527	-8.77803	-4.81563	0	
1.2533	-12.4413	-1.7696	0	
1.2540	-11.5197	0.667226	0	
1.2547	-10.9207	1.59554	0	
1.2553	-13.0403	4.32246	0	
1.2560	-9.99912	5.85998	0	
1.2567	3.13337	3.10405	0	
1.2573	21.4267	-0.870294	0	
1.2580	38.522	-4.81563	0	
1.2587	51.3319	-9.39918	0	
1.2593	58.981	-10.0084	0	
1.2600	60.5016	-6.03404	0	
1.2607	58.0594	-6.03404	0	
1.2613	54.3961	-9.71829	0	
1.2620	47.6686	-9.39918	0	
1.2627	37.9229	-6.96236	0	
1.2633	29.0527	-7.57156	0	
1.2640	21.1272	-6.64325	0	
1.2647	12.8791	-3.30712	0	
1.2653	0.691184	-2.08871	0	
1.2660	-17.9247	-1.4795	0	
1.2667	-38.0842	0.377128	0	
1.2673	-53.9354	-0.261088	0	
1.2680	-65.8468	-2.69791	0	
1.2687	-74.6939	0.667226	0	
1.2693	-78.9792	6.75929	0	
1.2700	-78.3572	8.90601	0	
1.2707	-72.8738	9.83433	0	
1.2713	-63.7041	12.5612	0	
1.2720	-56.078	13.7797	0	
1.2727	-50.2721	14.3889	0	
1.2733	-43.5676	13.7797	0	
1.2740	-38.6832	11.6619	0	
1.2747	-35.3195	12.8804	0	
1.2753	-28.016	15.9264	0	
1.2760	-17.9247	13.1705	0	
1.2767	-9.69961	8.90601	0	
1.2773	-2.07355	9.83433	0	
1.2780	5.87506	9.22512	0	
1.2787	11.3584	4.32246	0	
1.2793	15.0217	2.20475	0	
1.2800	18.3855	2.49484	0	
1.2807	20.5282	0.0580196	0	
1.2813	20.5282	-2.08871	0	
1.2820	18.9845	-0.551186	0	
1.2827	17.7634	1.59554	0	
1.2833	17.1644	2.20475	0	
1.2840	15.9433	2.49484	0	
1.2847	13.2016	4.03236	0	
1.2853	10.4369	4.93167	0	
1.2860	11.0589	4.64157	0	
1.2867	15.3212	3.42316	0	
1.2873	19.6066	1.59554	0	
1.2880	19.6066	1.27643	0	
1.2887	20.2056	2.20475	0	
1.2893	26.0115	-0.261088	0	
1.2900	30.5964	-3.91632	0	
1.2907	28.7532	-6.03404	0	
1.2913	27.5321	-8.78997	0	
1.2920	29.0527	-10.3275	0	
1.2927	26.3111	-8.18077	0	
1.2933	18.9845	-7.89067	0	
1.2940	14.1001	-9.71829	0	
1.2947	12.5795	-7.89067	0	
1.2953	9.21578	-5.74394	0	
1.2960	4.0319	-5.74394	0	
1.2967	3.13337	-5.74394	0	
1.2973	9.53833	-6.64325	0	
1.2980	15.0217	-6.64325	0	
1.2987	14.7222	-3.91632	0	
1.2993	14.1001	-2.98801	0	
1.3000	14.7222	-3.91632	0	
1.3007	13.2016	-2.98801	0	
1.3013	11.3584	-2.08871	0	
1.3020	11.658	-1.16039	0	
1.3027	7.69518	-1.16039	0	
1.3033	1.29021	-3.30712	0	
1.3040	-1.751	-2.08871	0	
1.3047	-3.89367	4.32246	0	
1.3053	-6.95791	5.25078	0	
1.3060	-9.4001	0.986334	0	
1.3067	-12.4413	0.0580196	0	
1.3073	-18.2472	-0.261088	0	
1.3080	-24.3527	-2.08871	0	
1.3087	-27.6934	-1.4795	0	
1.3093	-28.615	-0.551186	0	
1.3100	-28.016	-2.98801	0	
1.3107	-27.0944	-3.30712	0	
1.3113	-24.6522	-1.4795	0	
1.3120	-19.4683	-0.870294	0	
1.3127	-15.183	0.667226	0	
1.3133	-15.183	3.42316	0	
1.3140	-14.8835	3.10405	0	
1.3147	-12.4413	3.42316	0	
1.3153	-10.6212	5.85998	0	
1.3160	-10.9207	5.85998	0	
1.3167	-10.9207	4.32246	0	
1.3173	-8.77803	5.85998	0	
1.3180	-5.73682	7.07839	0	
1.3187	-4.19318	6.15008	0	
1.3193	-2.37306	4.32246	0	
1.3200	6.7736	0.377128	0	
1.3207	23.5694	-4.52553	0	
1.3213	37.9229	-4.52553	0	
1.3220	44.3279	-4.52553	0	
1.3227	45.549	-7.89067	0	
1.3233	43.4063	-6.03404	0	
1.3240	41.5862	-1.16039	0	
1.3247	39.4435	-3.91632	0	
1.3253	35.7803	-7.89067	0	
1.3260	29.6748	-4.81563	0	
1.3267	20.5282	-4.20642	0	
1.3273	10.1374	-8.49988	0	
1.3280	4.0319	-10.3275	0	
1.3287	-0.85246	-9.71829	0	
1.3293	-10.6212	-7.57156	0	
1.3300	-19.7678	-3.91632	0	
1.3307	-24.3527	-3.91632	0	
1.3313	-24.6522	-5.13474	0	
1.3320	-21.2885	-2.98801	0	
1.3327	-17.0262	0.0580196	0	
1.3333	-14.584	2.49484	0	
1.3340	-9.4001	2.49484	0	
1.3347	-1.15197	0.667226	0	
1.3353	5.57555	0.986334	0	
1.3360	12.5795	-0.261088	0	
1.3367	20.5282	-4.81563	0	
1.3373	24.4909	-3.59722	0	
1.3380	25.09	0.986334	0	
1.3387	23.2698	-0.870294	0	
1.3393	15.9433	-2.08871	0	
1.3400	9.53833	1.88564	0	
1.3407	5.25299	3.10405	0	
1.3413	-1.45149	1.27643	0	
1.3420	-9.69961	0.667226	0	
1.3427	-14.2614	0.0580196	0	
1.3433	-18.2472	1.59554	0	
1.3440	-24.0301	6.15008	0	
1.3447	-27.0944	5.85998	0	
1.3453	-29.8361	1.88564	0	
1.3460	-34.4209	2.20475	0	
1.3467	-38.3837	4.32246	0	
1.3473	-37.1626	2.49484	0	
1.3480	-34.7205	0.0580196	0	
1.3487	-36.2411	0.986334	0	
1.3493	-37.1626	0.667226	0	
1.3500	-33.1998	0.667226	0	
1.3507	-28.016	4.32246	0	
1.3513	-25.2512	4.93167	0	
1.3520	-22.8091	1.88564	0	
1.3527	-19.7678	4.32246	0	
1.3533	-15.183	8.00671	0	
1.3540	-8.77803	6.75929	0	
1.3547	-4.19318	6.46919	0	
1.3553	-1.45149	7.36849	0	
1.3560	1.58972	4.32246	0	
1.3567	3.13337	2.20475	0	
1.3573	3.13337	2.49484	0	
1.3580	8.61675	0.0580196	0	
1.3587	14.1001	-1.16039	0	
1.3593	13.2016	-1.16039	0	
1.3600	11.658	-3.91632	0	
1.3607	18.685	-6.64325	0	
1.3613	29.9743	-6.96236	0	
1.3620	39.4435	-8.18077	0	
1.3627	44.6274	-9.39918	0	
1.3633	47.9912	-9.71829	0	
1.3640	51.0324	-11.836	0	
1.3647	50.4334	-12.4452	0	
1.3653	46.7701	-11.836	0	
1.3660	44.3279	-12.1551	0	
1.3667	41.2637	-10.9367	0	
1.3673	33.3381	-9.39918	0	
1.3680	24.4909	-10.0084	0	
1.3687	16.8649	-10.0084	0	
1.3693	7.69518	-8.49988	0	
1.3700	-2.37306	-8.18077	0	
1.3707	-12.4413	-7.57156	0	
1.3713	-21.9105	-6.64325	0	
1.3720	-30.1356	-4.81563	0	
1.3727	-36.2411	-1.16039	0	
1.3733	-40.8259	1.27643	0	
1.3740	-44.4892	0.986334	0	
1.3747	-42.3465	1.88564	0	
1.3753	-35.642	3.10405	0	
1.3760	-31.0572	4.32246	0	
1.3767	-27.0944	7.36849	0	
1.3773	-22.5095	9.22512	0	
1.3780	-20.0674	8.00671	0	
1.3787	-18.5468	8.00671	0	
1.3793	-15.183	7.07839	0	
1.3800	-13.3629	4.93167	0	
1.3807	-11.5197	4.32246	0	
1.3813	-5.73682	3.71326	0	
1.3820	-1.751	2.20475	0	
1.3827	-0.529907	2.81395	0	
1.3833	3.13337	2.20475	0	
1.3840	5.87506	-2.08871	0	
1.3847	7.69518	-2.69791	0	
1.3853	11.9805	-0.261088	0	
1.3860	17.1644	-2.98801	0	
1.3867	20.2056	-6.64325	0	
1.3873	25.09	-5.13474	0	
1.3880	31.1954	-4.81563	0	
1.3887	32.4165	-9.10908	0	
1.3893	29.0527	-10.3275	0	
1.3900	27.5321	-8.78997	0	
1.3907	32.4165	-10.0084	0	
1.3913	40.3651	-12.1551	0	
1.3920	44.6274	-11.2268	0	
1.3927	44.3279	-10.3275	0	
1.3933	40.6646	-10.9367	0	
1.3940	34.2597	-9.39918	0	
1.3947	26.0115	-5.42484	0	
1.3953	18.9845	-3.91632	0	
1.3960	13.5011	-3.91632	0	
1.3967	7.39566	-2.08871	0	
1.3973	-0.529907	-0.261088	0	
1.3980	-7.85645	-2.08871	0	
1.3987	-13.3629	-1.16039	0	
1.3993	-18.2472	3.10405	0	
1.4000	-21.9105	3.42316	0	
1.4007	-22.21	1.59554	0	
1.4013	-20.0674	1.27643	0	
1.4020	-18.8463	2.49484	0	
1.4027	-16.4041	5.54087	0	
1.4033	-13.3629	7.07839	0	
1.4040	-16.7036	3.42316	0	
1.4047	-23.4311	0.667226	0	
1.4053	-22.5095	1.59554	0	
1.4060	-17.6252	-0.261088	0	
1.4067	-18.5468	-2.08871	0	
1.4073	-21.588	-1.4795	0	
1.4080	-20.0674	-1.4795	0	
1.4087	-19.1458	0.0580196	0	
1.4093	-23.7306	4.93167	0	
1.4100	-28.016	7.07839	0	
1.4107	-28.3155	6.75929	0	
1.4113	-24.6522	7.07839	0	
1.4120	-16.1046	6.15008	0	
1.4127	-6.63536	5.25078	0	
1.4133	-0.529907	6.15008	0	
1.4140	5.87506	5.25078	0	
1.4147	15.9433	2.81395	0	
1.4153	24.1914	0.986334	0	
1.4160	26.0115	0.667226	0	
1.4167	26.0115	1.59554	0	
1.4173	27.8317	1.27643	0	
1.4180	28.7532	-0.261088	0	
1.4187	25.712	-0.261088	0	
1.4193	17.7634	1.59554	0	
1.4200	10.4369	2.49484	0	
1.4207	7.09615	2.81395	0	
1.4213	4.65397	2.49484	0	
1.4220	-2.07355	1.59554	0	
1.4227	-7.85645	0.377128	0	
1.4233	-5.41427	-2.08871	0	
1.4240	-0.85246	-5.74394	0	
1.4247	-1.45149	-8.18077	0	
1.4253	-4.81525	-6.96236	0	
1.4260	-3.29464	-6.03404	0	
1.4267	1.29021	-6.35315	0	
1.4273	2.81081	-4.81563	0	
1.4280	-0.85246	-3.91632	0	
1.4287	-4.19318	-5.42484	0	
1.4293	-5.41427	-6.03404	0	
1.4300	-9.4001	-2.98801	0	
1.4307	-15.4825	-0.870294	0	
1.4313	-19.1458	-0.870294	0	
1.4320	-21.588	-0.261088	0	
1.4327	-25.5738	-0.261088	0	
1.4333	-27.0944	-0.261088	0	
1.4340	-23.1316	2.49484	0	
1.4347	-21.2885	5.25078	0	
1.4353	-23.4311	8.00671	0	
1.4360	-22.5095	10.4435	0	
1.4367	-20.3669	12.2712	0	
1.4373	-17.9247	14.0988	0	
1.4380	-12.7408	15.3172	0	
1.4387	-9.4001	13.7797	0	
1.4393	-10.6212	12.5612	0	
1.4400	-10.2986	12.8804	0	
1.4407	-6.03634	10.1244	0	
1.4413	-5.11476	5.85998	0	
1.4420	-5.41427	3.42316	0	
1.4427	-2.97209	2.81395	0	
1.4433	-1.15197	3.42316	0	
1.4440	-1.15197	1.88564	0	
1.4447	-0.529907	-2.08871	0	
1.4453	-0.529907	-3.91632	0	
1.4460	-1.15197	-4.20642	0	
1.4467	0.691184	-6.35315	0	
1.4473	4.95348	-6.03404	0	
1.4480	8.61675	-2.98801	0	
1.4487	10.7594	-2.08871	0	
1.4493	11.3584	-4.20642	0	
1.4500	11.0589	-5.74394	0	
1.4507	12.8791	-4.81563	0	
1.4513	15.9433	-2.98801	0	
1.4520	16.5423	-2.08871	0	
1.4527	14.7222	-0.870294	0	
1.4533	14.7222	-0.870294	0	
1.4540	17.7634	-2.98801	0	
1.4547	20.2056	-2.98801	0	
1.4553	20.5282	-0.870294	0	
1.4560	20.5282	-0.551186	0	
1.4567	19.6066	-1.4795	0	
1.4573	19.3071	-2.08871	0	
1.4580	22.3483	-3.91632	0	
1.4587	26.0115	-3.91632	0	
1.4593	25.09	-2.3788	0	
1.4600	23.5694	-2.98801	0	
1.4607	24.1914	-3.30712	0	
1.4613	23.2698	-2.98801	0	
1.4620	18.685	-4.81563	0	
1.4627	14.1001	-3.91632	0	
1.4633	11.0589	-0.870294	0	
1.4640	9.53833	-2.08871	0	
1.4647	8.31724	-3.91632	0	
1.4653	4.95348	-1.4795	0	
1.4660	0.368631	-1.16039	0	
1.4667	-3.29464	-1.16039	0	
1.4673	-4.51573	2.81395	0	
1.4680	-6.03634	3.10405	0	
1.4687	-9.69961	0.667226	0	
1.4693	-12.7408	1.88564	0	
1.4700	-11.5197	3.42316	0	
1.4707	-11.5197	1.88564	0	
1.4713	-14.584	1.59554	0	
1.4720	-12.4413	0.667226	0	
1.4727	-2.67258	-0.261088	0	
1.4733	4.95348	-1.16039	0	
1.4740	8.61675	-3.91632	0	
1.4747	12.28	-3.91632	0	
1.4753	15.3212	-0.870294	0	
1.4760	15.9433	0.986334	0	
1.4767	20.2056	3.42316	0	
1.4773	30.5964	8.29681	0	
1.4780	41.5862	8.61591	0	
1.4787	47.9912	4.03236	0	
1.4793	48.8897	0.0580196	0	
1.4800	45.8485	-0.870294	0	
1.4807	40.0426	-0.261088	0	
1.4813	27.5321	-0.261088	0	
1.4820	9.53833	-0.261088	0	
1.4827	-3.29464	1.27643	0	
1.4833	-11.5197	1.59554	0	
1.4840	-23.4311	1.27643	0	
1.4847	-37.1626	2.20475	0	
1.4853	-46.3093	2.81395	0	
1.4860	-53.3363	3.10405	0	
1.4867	-60.0408	3.42316	0	
1.4873	-64.9252	1.59554	0	
1.4880	-68.5884	-0.870294	0	
1.4887	-71.0306	-0.551186	0	
1.4893	-68.2889	-1.16039	0	
1.4900	-60.9624	-1.4795	0	
1.4907	-53.6358	2.49484	0	
1.4913	-46.6318	4.93167	0	
1.4920	-36.2411	1.88564	0	
1.4927	-25.8733	0.0580196	0	
1.4933	-18.8463	2.49484	0	
1.4940	-13.3629	6.46919	0	
1.4947	-6.95791	7.36849	0	
1.4953	-1.15197	5.25078	0	
1.4960	6.17457	4.32246	0	
1.4967	15.6438	6.15008	0	
1.4973	20.5282	4.64157	0	
1.4980	23.5694	0.986334	0	
1.4987	29.0527	-0.261088	0	
1.4993	32.4165	-0.551186	0	
1.5000	30.2738	-2.98801	0	
1.5007	26.9331	-6.35315	0	
1.5013	24.1914	-7.57156	0	
1.5020	20.5282	-5.13474	0	
1.5027	17.7634	-3.91632	0	
1.5033	14.4227	-5.74394	0	
1.5040	12.28	-6.03404	0	
1.5047	12.28	-3.30712	0	
1.5053	12.28	-1.4795	0	
1.5060	7.69518	-2.08871	0	
1.5067	1.29021	-2.3788	0	
1.5073	-3.59415	-0.261088	0	
1.5080	-5.73682	0.377128	0	
1.5087	-7.85645	0.0580196	0	
1.5093	-12.7408	2.49484	0	
1.5100	-14.8835	4.32246	0	
1.5107	-13.3629	0.986334	0	
1.5113	-13.6624	-1.16039	0	
1.5120	-15.4825	1.27643	0	
1.5127	-15.4825	2.20475	0	
1.5133	-14.2614	0.667226	0	
1.5140	-10.2986	0.667226	0	
1.5147	-3.89367	-0.261088	0	
1.5153	-1.45149	-1.7696	0	
1.5160	-2.07355	-0.870294	0	
1.5167	0.0691184	-0.551186	0	
1.5173	4.0319	-0.870294	0	
1.5180	7.39566	2.49484	0	
1.5187	8.91627	4.32246	0	
1.5193	8.61675	3.10405	0	
1.5200	10.1374	2.49484	0	
1.5207	17.4639	1.59554	0	
1.5213	28.7532	-2.08871	0	
1.5220	37.9229	-2.98801	0	
1.5227	40.6646	-2.08871	0	
1.5233	37.9229	-4.52553	0	
1.5240	34.8587	-7.57156	0	
1.5247	33.0386	-7.57156	0	
1.5253	30.8959	-7.57156	0	
1.5260	27.8317	-8.18077	0	
1.5267	22.6478	-8.49988	0	
1.5273	14.7222	-8.18077	0	
1.5280	6.47409	-7.25245	0	
1.5287	0.368631	-6.03404	0	
1.5293	-7.25743	-4.20642	0	
1.5300	-17.3257	-2.3788	0	
1.5307	-25.2512	-1.7696	0	
1.5313	-30.4351	-2.3788	0	
1.5320	-33.1998	-1.7696	0	
1.5327	-33.4994	0.667226	0	
1.5333	-32.8773	3.10405	0	
1.5340	-30.7577	3.42316	0	
1.5347	-25.2512	1.88564	0	
1.5353	-19.7678	0.0580196	0	
1.5360	-15.183	-0.551186	0	
1.5367	-7.85645	-0.551186	0	
1.5373	2.21179	-0.551186	0	
1.5380	9.21578	-0.551186	0	
1.5387	13.2016	0.667226	0	
1.5393	15.9433	0.986334	0	
1.5400	15.9433	-1.4795	0	
1.5407	14.1001	-2.98801	0	
1.5413	13.2016	-1.16039	0	
1.5420	15.9433	-2.08871	0	
1.5427	20.5282	-5.42484	0	
1.5433	19.3071	-5.74394	0	
1.5440	15.9433	-5.13474	0	
1.5447	18.3855	-6.03404	0	
1.5453	17.7634	-6.64325	0	
1.5460	9.53833	-7.25245	0	
1.5467	7.69518	-7.89067	0	
1.5473	12.28	-7.25245	0	
1.5480	10.1374	-6.64325	0	
1.5487	4.35446	-7.57156	0	
1.5493	4.35446	-6.03404	0	
1.5500	2.5113	-2.69791	0	
1.5507	-7.55694	-2.3788	0	
1.5513	-17.0262	-3.30712	0	
1.5520	-21.588	-1.7696	0	
1.5527	-24.9517	0.0580196	0	
1.5533	-27.3939	0.667226	0	
1.5540	-26.1728	4.64157	0	
1.5547	-24.0301	11.0527	0	
1.5553	-23.4311	13.1705	0	
1.5560	-18.8463	10.7336	0	
1.5567	-11.5197	9.83433	0	
1.5573	-10.9207	9.83433	0	
1.5580	-15.4825	6.15008	0	
1.5587	-14.584	3.42316	0	
1.5593	-8.47852	4.32246	0	
1.5600	-5.11476	3.10405	0	
1.5607	-6.03634	-0.261088	0	
1.5613	-5.11476	-0.261088	0	
1.5620	-2.07355	1.27643	0	
1.5627	-0.230395	0.377128	0	
1.5633	0.368631	-1.7696	0	
1.5640	2.81081	-2.08871	0	
1.5647	4.0319	-2.98801	0	
1.5653	2.21179	-3.30712	0	
1.5660	0.368631	-2.98801	0	
1.5667	1.58972	-4.20642	0	
1.5673	2.21179	-6.64325	0	
1.5680	3.73239	-5.74394	0	
1.5687	8.31724	-5.13474	0	
1.5693	11.658	-7.57156	0	
1.5700	12.28	-8.18077	0	
1.5707	12.5795	-4.81563	0	
1.5713	11.3584	-2.98801	0	
1.5720	10.7594	-2.08871	0	
1.5727	13.5011	-2.69791	0	
1.5733	16.8649	-4.52553	0	
1.5740	18.685	-4.52553	0	
1.5747	22.3483	-3.30712	0	
1.5753	24.4909	-4.81563	0	
1.5760	22.9703	-6.64325	0	
1.5767	22.3483	-4.52553	0	
1.5773	22.3483	-2.69791	0	
1.5780	18.9845	-2.08871	0	
1.5787	15.9433	-1.7696	0	
1.5793	15.3212	-1.4795	0	
1.5800	13.2016	-0.261088	0	
1.5807	11.3584	1.59554	0	
1.5813	11.3584	0.667226	0	
1.5820	6.7736	0.0580196	0	
1.5827	-2.37306	0.667226	0	
1.5833	-8.77803	2.49484	0	
1.5840	-12.4413	5.25078	0	
1.5847	-17.9247	4.32246	0	
1.5853	-19.7678	0.0580196	0	
1.5860	-17.3257	-0.870294	0	
1.5867	-17.3257	0.0580196	0	
1.5873	-19.1458	-1.7696	0	
1.5880	-19.7678	-2.08871	0	
1.5887	-17.9247	0.986334	0	
1.5893	-12.7408	1.59554	0	
1.5900	-6.95791	0.377128	0	
1.5907	-4.19318	-0.261088	0	
1.5913	-0.230395	0.0580196	0	
1.5920	4.95348	2.49484	0	
1.5927	5.25299	4.03236	0	
1.5933	0.691184	1.59554	0	
1.5940	-0.529907	1.59554	0	
1.5947	0.691184	5.85998	0	
1.5953	-0.529907	6.15008	0	
1.5960	-4.51573	0.986334	0	
1.5967	-6.95791	-2.08871	0	
1.5973	-6.95791	-1.4795	0	
1.5980	-10.9207	-0.261088	0	
1.5987	-16.7036	2.81395	0	
1.5993	-14.584	5.85998	0	
1.6000	-7.55694	3.10405	0	
1.6007	-4.81525	-1.7696	0	
1.6013	-5.41427	-2.69791	0	
1.6020	-5.73682	-2.3788	0	
1.6027	-5.73682	-1.16039	0	
1.6033	-5.41427	3.42316	0	
1.6040	-6.33585	3.42316	0	
1.6047	-7.55694	-1.16039	0	
1.6053	-5.73682	-3.91632	0	
1.6060	-2.97209	-3.91632	0	
1.6067	-2.37306	-3.91632	0	
1.6073	-1.45149	-2.08871	0	
1.6080	0.368631	-2.3788	0	
1.6087	0.368631	-3.91632	0	
1.6093	-0.529907	-3.91632	0	
1.6100	0.0691184	-4.81563	0	
1.6107	3.13337	-4.81563	0	
1.6113	7.39566	-2.69791	0	
1.6120	9.83785	-2.69791	0	
1.6127	15.3212	-3.59722	0	
1.6133	23.8689	-1.16039	0	
1.6140	26.0115	-0.261088	0	
1.6147	24.1914	-1.4795	0	
1.6153	23.2698	-1.16039	0	
1.6160	20.5282	-1.16039	0	
1.6167	15.3212	-1.7696	0	
1.6173	11.3584	0.377128	0	
1.6180	4.0319	0.0580196	0	
1.6187	-6.33585	-2.08871	0	
1.6193	-13.3629	-0.261088	0	
1.6200	-16.7036	2.20475	0	
1.6207	-19.4683	0.667226	0	
1.6213	-21.2885	-2.3788	0	
1.6220	-21.588	-3.91632	0	
1.6227	-23.4311	-2.69791	0	
1.6233	-26.1728	0.377128	0	
1.6240	-25.2512	1.88564	0	
1.6247	-17.3257	3.42316	0	
1.6253	-8.17901	2.49484	0	
1.6260	-3.29464	0.986334	0	
1.6267	1.58972	2.49484	0	
1.6273	6.7736	2.49484	0	
1.6280	9.53833	-3.91632	0	
1.6287	9.53833	-4.81563	0	
1.6293	6.7736	0.986334	0	
1.6300	4.0319	2.81395	0	
1.6307	4.0319	2.81395	0	
1.6313	2.5113	4.32246	0	
1.6320	-1.45149	1.27643	0	
1.6327	-2.37306	-3.59722	0	
1.6333	-1.15197	-1.7696	0	
1.6340	-3.29464	1.59554	0	
1.6347	-2.07355	1.27643	0	
1.6353	2.21179	0.377128	0	
1.6360	1.91227	0.0580196	0	
1.6367	0.368631	0.377128	0	
1.6373	2.21179	0.667226	0	
1.6380	4.0319	0.667226	0	
1.6387	5.25299	1.27643	0	
1.6393	7.99469	3.42316	0	
1.6400	9.21578	3.42316	0	
1.6407	8.31724	1.27643	0	
1.6413	8.31724	0.986334	0	
1.6420	7.09615	3.42316	0	
1.6427	2.81081	4.93167	0	
1.6433	0.990696	4.32246	0	
1.6440	3.13337	1.27643	0	
1.6447	2.21179	-0.261088	0	
1.6453	-0.529907	1.59554	0	
1.6460	4.0319	1.59554	0	
1.6467	13.5011	-1.16039	0	
1.6473	17.7634	-2.08871	0	
1.6480	20.5282	-3.59722	0	
1.6487	27.8317	-6.96236	0	
1.6493	34.8587	-7.89067	0	
1.6500	39.4435	-6.96236	0	
1.6507	42.8073	-7.89067	0	
1.6513	40.6646	-7.89067	0	
1.6520	33.3381	-7.25245	0	
1.6527	26.6106	-8.49988	0	
1.6533	19.9061	-7.89067	0	
1.6540	11.9805	-5.74394	0	
1.6547	4.35446	-6.64325	0	
1.6553	-4.51573	-5.42484	0	
1.6560	-16.1046	-2.08871	0	
1.6567	-24.6522	-1.16039	0	
1.6573	-27.6934	-1.7696	0	
1.6580	-30.7577	0.0580196	0	
1.6587	-35.3195	0.667226	0	
1.6593	-37.1626	0.667226	0	
1.6600	-33.1998	0.667226	0	
1.6607	-28.3155	-1.4795	0	
1.6613	-25.5738	-0.551186	0	
1.6620	-21.588	4.32246	0	
1.6627	-16.1046	4.03236	0	
1.6633	-16.1046	-1.16039	0	
1.6640	-20.3669	0.667226	0	
1.6647	-19.7678	6.75929	0	
1.6653	-16.4041	7.07839	0	
1.6660	-15.8051	3.71326	0	
1.6667	-15.4825	2.20475	0	
1.6673	-13.3629	2.81395	0	
1.6680	-12.4413	3.42316	0	
1.6687	-13.3629	0.667226	0	
1.6693	-12.4413	-2.08871	0	
1.6700	-4.19318	0.0580196	0	
1.6707	5.87506	2.49484	0	
1.6713	10.7594	1.27643	0	
1.6720	11.3584	0.667226	0	
1.6727	14.7222	0.667226	0	
1.6733	20.2056	-1.4795	0	
1.6740	18.9845	-0.551186	0	
1.6747	14.1001	0.377128	0	
1.6753	13.8006	-3.30712	0	
1.6760	14.7222	-5.74394	0	
1.6767	14.1001	-3.91632	0	
1.6773	15.9433	-2.98801	0	
1.6780	17.4639	-2.98801	0	
1.6787	11.9805	-1.7696	0	
1.6793	5.25299	-2.08871	0	
1.6800	3.43288	-2.69791	0	
1.6807	1.58972	-1.16039	0	
1.6813	-2.37306	-0.261088	0	
1.6820	-2.67258	-0.870294	0	
1.6827	2.21179	-2.3788	0	
1.6833	9.53833	-3.91632	0	
1.6840	15.3212	-2.98801	0	
1.6847	16.8649	-1.16039	0	
1.6853	15.9433	-1.16039	0	
1.6860	13.8006	-2.3788	0	
1.6867	7.69518	-2.98801	0	
1.6873	2.21179	-2.3788	0	
1.6880	-0.529907	-0.870294	0	
1.6887	-3.89367	0.667226	0	
1.6893	-8.17901	-0.261088	0	
1.6900	-9.69961	-1.16039	0	
1.6907	-11.5197	-1.16039	0	
1.6913	-16.1046	-2.08871	0	
1.6920	-18.8463	-2.98801	0	
1.6927	-21.588	-1.4795	0	
1.6933	-27.0944	-2.08871	0	
1.6940	-28.9145	-5.13474	0	
1.6947	-28.016	-3.91632	0	
1.6953	-28.016	0.667226	0	
1.6960	-24.9517	3.10405	0	
1.6967	-18.5468	3.71326	0	
1.6973	-13.9619	6.75929	0	
1.6980	-9.69961	8.00671	0	
1.6987	-6.33585	4.32246	0	
1.6993	-4.51573	2.20475	0	
1.7000	0.368631	1.59554	0	
1.7007	8.31724	0.986334	0	
1.7013	13.8006	2.81395	0	
1.7020	17.7634	6.15008	0	
1.7027	20.2056	7.07839	0	
1.7033	20.8277	4.64157	0	
1.7040	22.6478	1.88564	0	
1.7047	23.5694	-0.261088	0	
1.7053	19.6066	-2.08871	0	
1.7060	17.4639	-2.3788	0	
1.7067	20.5282	-2.08871	0	
1.7073	22.6478	-3.59722	0	
1.7080	21.4267	-6.64325	0	
1.7087	20.2056	-6.64325	0	
1.7093	19.9061	-5.74394	0	
1.7100	20.5282	-8.18077	0	
1.7107	19.6066	-11.2268	0	
1.7113	16.8649	-11.2268	0	
1.7120	15.9433	-11.836	0	
1.7127	15.6438	-11.2268	0	
1.7133	12.28	-7.89067	0	
1.7140	7.39566	-6.03404	0	
1.7147	4.0319	-4.81563	0	
1.7153	0.368631	-1.7696	0	
1.7160	-3.29464	-0.261088	0	
1.7167	-6.03634	-0.870294	0	
1.7173	-9.99912	2.20475	0	
1.7180	-12.1418	4.32246	0	
1.7187	-12.1418	2.81395	0	
1.7193	-17.9247	5.54087	0	
1.7200	-27.6934	11.3428	0	
1.7207	-29.8361	12.5612	0	
1.7213	-25.2512	13.1705	0	
1.7220	-22.21	13.7797	0	
1.7227	-19.7678	11.6619	0	
1.7233	-14.584	10.1244	0	
1.7240	-9.69961	10.1244	0	
1.7247	-6.03634	6.75929	0	
1.7253	-3.89367	4.32246	0	
1.7260	-3.29464	5.25078	0	
1.7267	-2.37306	2.49484	0	
1.7273	-0.529907	-3.30712	0	
1.7280	1.29021	-6.03404	0	
1.7287	2.5113	-7.25245	0	
1.7293	1.29021	-7.89067	0	
1.7300	-4.81525	-6.35315	0	
1.7307	-9.69961	-4.81563	0	
1.7313	-10.2986	-5.13474	0	
1.7320	-9.69961	-4.20642	0	
1.7327	-11.8192	-2.08871	0	
1.7333	-13.3629	0.377128	0	
1.7340	-13.3629	2.49484	0	
1.7347	-11.8192	2.49484	0	
1.7353	-9.69961	0.667226	0	
1.7360	-7.55694	1.59554	0	
1.7367	-6.63536	4.03236	0	
1.7373	-5.73682	3.71326	0	
1.7380	-4.19318	3.42316	0	
1.7387	-2.37306	3.10405	0	
1.7393	-1.45149	0.986334	0	
1.7400	-0.230395	-0.261088	0	
1.7407	0.0691184	-0.261088	0	
1.7413	-2.67258	-1.16039	0	
1.7420	-6.63536	-0.261088	0	
1.7427	-6.95791	1.59554	0	
1.7433	-5.11476	-1.16039	0	
1.7440	-5.73682	-2.98801	0	
1.7447	-4.19318	-0.261088	0	
1.7453	3.73239	-0.870294	0	
1.7460	11.3584	-3.30712	0	
1.7467	13.2016	0.0580196	0	
1.7473	13.2016	2.20475	0	
1.7480	13.5011	-2.08871	0	
1.7487	13.5011	-5.13474	0	
1.7493	13.8006	-4.52553	0	
1.7500	14.7222	-3.91632	0	
1.7507	17.7634	-3.59722	0	
1.7513	24.1914	-2.98801	0	
1.7520	27.8317	-2.3788	0	
1.7527	25.09	-2.98801	0	
1.7533	21.4267	-4.52553	0	
1.7540	23.2698	-4.81563	0	
1.7547	24.4909	-3.91632	0	
1.7553	19.6066	-4.20642	0	
1.7560	12.28	-2.69791	0	
1.7567	6.7736	2.49484	0	
1.7573	3.73239	6.75929	0	
1.7580	1.58972	8.90601	0	
1.7587	0.691184	8.90601	0	
1.7593	-2.37306	5.85998	0	
1.7600	-6.95791	2.49484	0	
1.7607	-8.77803	2.49484	0	
1.7613	-6.03634	1.59554	0	
1.7620	-4.19318	-2.3788	0	
1.7627	-6.03634	-2.98801	0	
1.7633	-8.17901	-1.16039	0	
1.7640	-9.4001	-3.30712	0	
1.7647	-8.17901	-4.20642	0	
1.7653	-6.63536	-1.4795	0	
1.7660	-4.51573	-2.08871	0	
1.7667	-1.751	-5.74394	0	
1.7673	-1.15197	-5.74394	0	
1.7680	-2.37306	-5.74394	0	
1.7687	-2.37306	-7.57156	0	
1.7693	-0.529907	-5.42484	0	
1.7700	-1.45149	-3.91632	0	
1.7707	-2.67258	-6.35315	0	
1.7713	-2.37306	-6.03404	0	
1.7720	-1.45149	-3.91632	0	
1.7727	0.990696	-5.74394	0	
1.7733	5.87506	-6.96236	0	
1.7740	10.4369	-4.20642	0	
1.7747	11.658	-3.91632	0	
1.7753	10.4369	-5.13474	0	
1.7760	11.0589	-3.91632	0	
1.7767	15.0217	-2.08871	0	
1.7773	18.9845	-2.08871	0	
1.7780	20.8277	-1.4795	0	
1.7787	21.4267	-0.261088	0	
1.7793	19.6066	1.59554	0	
1.7800	14.4227	2.49484	0	
1.7807	8.61675	2.49484	0	
1.7813	4.0319	1.59554	0	
1.7820	0.368631	0.667226	0	
1.7827	-5.11476	0.986334	0	
1.7833	-12.7408	1.59554	0	
1.7840	-19.7678	1.27643	0	
1.7847	-21.588	4.32246	0	
1.7853	-22.21	8.00671	0	
1.7860	-24.3527	4.64157	0	
1.7867	-23.1316	1.27643	0	
1.7873	-18.8463	4.32246	0	
1.7880	-14.584	6.15008	0	
1.7887	-8.77803	4.32246	0	
1.7893	-1.45149	2.49484	0	
1.7900	3.13337	-0.870294	0	
1.7907	7.69518	-2.98801	0	
1.7913	13.2016	-2.08871	0	
1.7920	14.1001	-2.69791	0	
1.7927	13.5011	-3.59722	0	
1.7933	13.2016	-1.7696	0	
1.7940	8.61675	-2.69791	0	
1.7947	2.81081	-3.91632	0	
1.7953	1.29021	0.667226	0	
1.7960	-0.529907	3.42316	0	
1.7967	-6.03634	2.49484	0	
1.7973	-9.07754	4.32246	0	
1.7980	-8.77803	5.54087	0	
1.7987	-11.2202	4.03236	0	
1.7993	-14.2614	6.15008	0	
1.8000	-14.2614	9.83433	0	
1.8007	-13.9619	7.07839	0	
1.8013	-16.7036	4.64157	0	
1.8020	-20.0674	7.07839	0	
1.8027	-20.6894	8.90601	0	
1.8033	-17.9247	7.6876	0	
1.8040	-14.2614	6.46919	0	
1.8047	-12.1418	5.25078	0	
1.8053	-11.2202	4.32246	0	
1.8060	-8.77803	2.81395	0	
1.8067	-6.63536	-0.551186	0	
1.8073	-8.77803	-3.91632	0	
1.8080	-13.0403	-4.52553	0	
1.8087	-13.3629	-4.81563	0	
1.8093	-10.6212	-5.13474	0	
1.8100	-7.85645	-5.42484	0	
1.8107	-3.59415	-6.64325	0	
1.8113	-0.529907	-6.35315	0	
1.8120	-0.529907	-4.20642	0	
1.8127	0.368631	-5.13474	0	
1.8133	3.73239	-5.13474	0	
1.8140	4.95348	-2.08871	0	
1.8147	5.87506	-1.16039	0	
1.8153	7.69518	-2.08871	0	
1.8160	8.31724	0.667226	0	
1.8167	9.53833	1.88564	0	
1.8173	13.2016	1.27643	0	
1.8180	14.4227	2.20475	0	
1.8187	15.0217	0.986334	0	
1.8193	21.7492	-2.08871	0	
1.8200	32.117	-2.69791	0	
1.8207	37.9229	-4.81563	0	
1.8213	40.9641	-8.49988	0	
1.8220	47.0696	-8.49988	0	
1.8227	50.7329	-7.89067	0	
1.8233	46.4475	-9.39918	0	
1.8240	39.7431	-10.3275	0	
1.8247	37.0014	-10.6176	0	
1.8253	32.117	-12.1551	0	
1.8260	21.1272	-13.3735	0	
1.8267	11.658	-13.0544	0	
1.8273	5.87506	-11.2268	0	
1.8280	-2.07355	-9.39918	0	
1.8287	-12.7408	-8.18077	0	
1.8293	-22.5095	-6.64325	0	
1.8300	-30.7577	-5.74394	0	
1.8307	-33.1998	-6.64325	0	
1.8313	-31.0572	-3.59722	0	
1.8320	-35.3195	2.49484	0	
1.8327	-42.047	5.25078	0	
1.8333	-37.4621	6.75929	0	
1.8340	-24.3527	9.83433	0	
1.8347	-13.6624	12.5612	0	
1.8353	-7.25743	12.2712	0	
1.8360	-0.230395	8.90601	0	
1.8367	4.95348	6.15008	0	
1.8373	4.95348	8.61591	0	
1.8380	2.21179	11.0527	0	
1.8387	2.21179	9.22512	0	
1.8393	4.0319	9.51522	0	
1.8400	1.91227	11.952	0	
1.8407	-1.751	9.83433	0	
1.8413	-2.67258	5.85998	0	
1.8420	-6.03634	7.07839	0	
1.8427	-13.3629	9.83433	0	
1.8433	-17.0262	9.51522	0	
1.8440	-14.8835	7.07839	0	
1.8447	-10.2986	4.64157	0	
1.8453	-6.03634	5.85998	0	
1.8460	-4.19318	6.75929	0	
1.8467	-3.89367	3.10405	0	
1.8473	-2.67258	0.667226	0	
1.8480	-2.37306	2.49484	0	
1.8487	-3.59415	1.88564	0	
1.8493	-5.11476	-2.3788	0	
1.8500	-3.89367	-4.52553	0	
1.8507	-0.230395	-4.81563	0	
1.8513	0.691184	-4.81563	0	
1.8520	-3.89367	-3.30712	0	
1.8527	-7.85645	-2.08871	0	
1.8533	-8.77803	-1.16039	0	
1.8540	-12.4413	1.88564	0	
1.8547	-16.4041	4.32246	0	
1.8553	-17.0262	2.20475	0	
1.8560	-19.4683	0.377128	0	
1.8567	-20.6894	3.42316	0	
1.8573	-12.7408	4.32246	0	
1.8580	-1.45149	0.377128	0	
1.8587	4.65397	-1.7696	0	
1.8593	8.31724	1.59554	0	
1.8600	11.0589	3.71326	0	
1.8607	12.8791	0.986334	0	
1.8613	15.9433	-2.08871	0	
1.8620	17.7634	-1.16039	0	
1.8627	18.685	1.27643	0	
1.8633	22.9703	0.377128	0	
1.8640	28.1542	-2.98801	0	
1.8647	29.6748	-3.91632	0	
1.8653	27.2326	-5.74394	0	
1.8660	24.1914	-7.25245	0	
1.8667	21.4267	-6.35315	0	
1.8673	17.7634	-6.03404	0	
1.8680	11.3584	-8.49988	0	
1.8687	4.35446	-7.89067	0	
1.8693	1.29021	-4.81563	0	
1.8700	-0.85246	-6.03404	0	
1.8707	-5.73682	-9.39918	0	
1.8713	-10.2986	-8.49988	0	
1.8720	-12.4413	-5.74394	0	
1.8727	-15.8051	-3.91632	0	
1.8733	-19.1458	-3.91632	0	
1.8740	-19.4683	-3.91632	0	
1.8747	-19.1458	-2.3788	0	
1.8753	-21.588	0.986334	0	
1.8760	-23.7306	3.42316	0	
1.8767	-23.4311	4.64157	0	
1.8773	-22.5095	6.46919	0	
1.8780	-21.588	7.07839	0	
1.8787	-19.4683	5.85998	0	
1.8793	-14.584	4.32246	0	
1.8800	-8.17901	4.32246	0	
1.8807	-6.33585	5.85998	0	
1.8813	-7.25743	7.36849	0	
1.8820	-0.85246	7.6876	0	
1.8827	10.1374	8.90601	0	
1.8833	16.8649	10.1244	0	
1.8840	21.4267	6.15008	0	
1.8847	26.9331	0.667226	0	
1.8853	26.9331	-0.870294	0	
1.8860	26.0115	-2.08871	0	
1.8867	29.6748	-5.74394	0	
1.8873	31.4949	-8.18077	0	
1.8880	29.0527	-7.57156	0	
1.8887	28.1542	-6.96236	0	
1.8893	28.7532	-7.25245	0	
1.8900	29.3753	-6.35315	0	
1.8907	26.9331	-4.20642	0	
1.8913	19.6066	-3.91632	0	
1.8920	13.8006	-5.42484	0	
1.8927	12.8791	-5.13474	0	
1.8933	9.83785	-3.91632	0	
1.8940	4.0319	-5.13474	0	
1.8947	0.990696	-6.64325	0	
1.8953	-3.29464	-3.91632	0	
1.8960	-9.4001	-2.08871	0	
1.8967	-12.4413	-4.52553	0	
1.8973	-11.8192	-3.59722	0	
1.8980	-13.3629	1.88564	0	
1.8987	-19.4683	3.10405	0	
1.8993	-23.7306	-0.551186	0	
1.9000	-22.21	-1.7696	0	
1.9007	-19.7678	-0.261088	0	
1.9013	-19.1458	0.667226	0	
1.9020	-13.3629	1.27643	0	
1.9027	-4.51573	2.49484	0	
1.9033	-2.97209	1.59554	0	
1.9040	-2.37306	-0.551186	0	
1.9047	3.13337	-2.08871	0	
1.9053	6.7736	-2.08871	0	
1.9060	5.87506	0.667226	0	
1.9067	6.7736	3.42316	0	
1.9073	7.99469	3.71326	0	
1.9080	4.95348	2.49484	0	
1.9087	1.58972	2.20475	0	
1.9093	0.691184	2.49484	0	
1.9100	-2.97209	1.88564	0	
1.9107	-8.77803	-0.870294	0	
1.9113	-9.07754	-3.59722	0	
1.9120	-6.33585	-2.08871	0	
1.9127	-5.11476	-0.870294	0	
1.9133	-3.29464	-0.261088	0	
1.9140	-2.37306	1.88564	0	
1.9147	-2.97209	2.20475	0	
1.9153	-0.230395	-0.551186	0	
1.9160	3.73239	-1.16039	0	
1.9167	3.13337	0.0580196	0	
1.9173	5.57555	0.377128	0	
1.9180	12.5795	-1.16039	0	
1.9187	14.1001	-3.30712	0	
1.9193	11.9805	-3.91632	0	
1.9200	11.9805	-0.870294	0	
1.9207	9.83785	0.667226	0	
1.9213	4.65397	0.667226	0	
1.9220	1.29021	2.20475	0	
1.9227	-0.529907	2.81395	0	
1.9233	-4.19318	1.59554	0	
1.9240	-6.63536	1.59554	0	
1.9247	-6.95791	3.42316	0	
1.9253	-6.33585	5.25078	0	
1.9260	-5.11476	5.25078	0	
1.9267	-6.03634	3.10405	0	
1.9273	-10.6212	1.59554	0	
1.9280	-12.7408	1.59554	0	
1.9287	-6.95791	1.59554	0	
1.9293	0.0691184	0.667226	0	
1.9300	1.29021	-2.08871	0	
1.9307	2.81081	-3.91632	0	
1.9313	6.7736	-5.13474	0	
1.9320	9.53833	-7.25245	0	
1.9327	11.658	-9.10908	0	
1.9333	15.0217	-8.49988	0	
1.9340	15.9433	-8.49988	0	
1.9347	14.7222	-9.39918	0	
1.9353	13.2016	-6.64325	0	
1.9360	10.4369	-5.13474	0	
1.9367	7.69518	-6.64325	0	
1.9373	8.61675	-5.74394	0	
1.9380	10.1374	-3.30712	0	
1.9387	7.39566	-2.98801	0	
1.9393	6.47409	-2.98801	0	
1.9400	9.53833	-2.08871	0	
1.9407	8.61675	-2.3788	0	
1.9413	0.368631	-2.08871	0	
1.9420	-6.33585	1.59554	0	
1.9427	-9.69961	5.25078	0	
1.9433	-13.3629	6.46919	0	
1.9440	-17.3257	8.61591	0	
1.9447	-19.7678	11.0527	0	
1.9453	-20.6894	10.7336	0	
1.9460	-20.0674	9.83433	0	
1.9467	-15.183	9.83433	0	
1.9473	-9.69961	8.00671	0	
1.9480	-7.25743	5.25078	0	
1.9487	-7.85645	4.93167	0	
1.9493	-7.55694	3.71326	0	
1.9500	-7.85645	0.667226	0	
1.9507	-9.69961	0.0580196	0	
1.9513	-8.17901	0.667226	0	
1.9520	-2.97209	-1.16039	0	
1.9527	0.368631	-2.98801	0	
1.9533	4.95348	-2.98801	0	
1.9540	12.28	-2.69791	0	
1.9547	15.0217	-2.69791	0	
1.9553	11.658	-3.59722	0	
1.9560	9.53833	-3.91632	0	
1.9567	9.53833	-3.59722	0	
1.9573	7.09615	-1.7696	0	
1.9580	4.65397	1.27643	0	
1.9587	2.81081	4.32246	0	
1.9593	-2.97209	5.54087	0	
1.9600	-8.77803	4.64157	0	
1.9607	-11.5197	3.42316	0	
1.9613	-15.4825	2.49484	0	
1.9620	-19.4683	0.667226	0	
1.9627	-19.1458	-1.16039	0	
1.9633	-20.6894	0.986334	0	
1.9640	-26.4723	4.32246	0	
1.9647	-28.9145	3.71326	0	
1.9653	-27.0944	3.42316	0	
1.9660	-26.4723	6.15008	0	
1.9667	-22.21	5.85998	0	
1.9673	-15.183	3.42316	0	
1.9680	-13.3629	3.42316	0	
1.9687	-13.6624	1.59554	0	
1.9693	-9.69961	-1.16039	0	
1.9700	-4.81525	-2.08871	0	
1.9707	-0.529907	-3.91632	0	
1.9713	3.13337	-6.64325	0	
1.9720	4.95348	-4.20642	0	
1.9727	6.7736	-1.7696	0	
1.9733	10.1374	-1.4795	0	
1.9740	11.9805	-0.551186	0	
1.9747	13.2016	0.667226	0	
1.9753	15.3212	0.667226	0	
1.9760	15.0217	-0.261088	0	
1.9767	13.2016	-1.4795	0	
1.9773	13.2016	-1.7696	0	
1.9780	12.28	-1.16039	0	
1.9787	10.7594	-0.551186	0	
1.9793	11.9805	-0.261088	0	
1.9800	12.28	-1.7696	0	
1.9807	10.7594	-2.3788	0	
1.9813	10.4369	0.377128	0	
1.9820	10.4369	-0.870294	0	
1.9827	12.8791	-3.91632	0	
1.9833	16.2428	-1.16039	0	
1.9840	15.0217	-1.16039	0	
1.9847	10.7594	-7.57156	0	
1.9853	11.658	-9.39918	0	
1.9860	13.8006	-7.57156	0	
1.9867	12.8791	-10.6176	0	
1.9873	15.0217	-10.6176	0	
1.9880	18.685	-6.96236	0	
1.9887	18.685	-8.78997	0	
1.9893	16.8649	-10.6176	0	
1.9900	16.2428	-9.10908	0	
1.9907	12.5795	-8.49988	0	
1.9913	6.17457	-6.03404	0	
1.9920	2.21179	-2.98801	0	
1.9927	1.29021	-5.13474	0	
1.9933	1.29021	-4.81563	0	
1.9940	1.29021	0.986334	0	
1.9947	-0.529907	-0.261088	0	
1.9953	-2.37306	-5.42484	0	
1.9960	-3.29464	-3.91632	0	
1.9967	-4.81525	0.986334	0	
1.9973	-7.55694	2.49484	0	
1.9980	-6.95791	2.81395	0	
1.9987	-3.89367	4.03236	0	
1.9993	-1.751	4.64157	0	
2.0000	-1.45149	3.71326	0	
2.0007	-1.751	1.27643	0	
2.0013	-0.85246	-0.261088	0	
2.0020	1.91227	-0.261088	0	
2.0027	0.691184	0.667226	0	
2.0033	-3.59415	0.667226	0	
2.0040	-4.81525	-0.261088	0	
2.0047	-1.751	-0.261088	0	
2.0053	0.368631	1.88564	0	
2.0060	0.368631	2.20475	0	
2.0067	-0.529907	0.667226	0	
2.0073	0.990696	2.49484	0	
2.0080	2.21179	4.64157	0	
2.0087	-1.45149	2.49484	0	
2.0093	-6.03634	2.20475	0	
2.0100	-6.03634	4.32246	0	
2.0107	-4.51573	4.32246	0	
2.0113	-2.37306	2.81395	0	
2.0120	4.65397	1.88564	0	
2.0127	11.3584	0.667226	0	
2.0133	11.658	0.986334	0	
2.0140	13.2016	4.03236	0	
2.0147	17.1644	3.42316	0	
2.0153	18.3855	0.986334	0	
2.0160	15.9433	1.59554	0	
2.0167	13.2016	2.49484	0	
2.0173	9.53833	0.377128	0	
2.0180	4.95348	-1.7696	0	
2.0187	2.5113	-2.08871	0	
2.0193	-1.15197	-2.98801	0	
2.0200	-8.17901	-2.3788	0	
2.0207	-16.7036	-0.551186	0	
2.0213	-26.1728	0.377128	0	
2.0220	-34.7205	0.0580196	0	
2.0227	-39.3053	0.377128	0	
2.0233	-39.9043	0.377128	0	
2.0240	-41.1254	-0.261088	0	
2.0247	-41.7475	-1.16039	0	
2.0253	-39.9043	-3.30712	0	
2.0260	-35.3195	-5.42484	0	
2.0267	-25.2512	-4.52553	0	
2.0273	-14.584	-2.3788	0	
2.0280	-9.69961	-2.98801	0	
2.0287	-6.95791	-2.98801	0	
2.0293	0.0691184	0.667226	0	
2.0300	5.57555	1.27643	0	
2.0307	7.99469	-2.3788	0	
2.0313	11.3584	-3.91632	0	
2.0320	13.8006	-4.52553	0	
2.0327	11.9805	-6.03404	0	
2.0333	10.4369	-6.35315	0	
2.0340	8.61675	-4.52553	0	
2.0347	4.95348	-2.69791	0	
2.0353	2.81081	-0.870294	0	
2.0360	3.13337	-0.261088	0	
2.0367	2.81081	0.986334	0	
2.0373	0.691184	2.81395	0	
2.0380	0.368631	2.81395	0	
2.0387	-1.45149	1.88564	0	
2.0393	-3.29464	3.42316	0	
2.0400	-0.230395	3.42316	0	
2.0407	5.25299	0.986334	0	
2.0413	7.69518	-1.16039	0	
2.0420	7.39566	-2.98801	0	
2.0427	9.83785	-3.91632	0	
2.0433	17.7634	-4.81563	0	
2.0440	20.5282	-6.64325	0	
2.0447	15.0217	-5.13474	0	
2.0453	12.28	-1.4795	0	
2.0460	15.0217	-1.7696	0	
2.0467	15.0217	-4.20642	0	
2.0473	10.7594	-5.13474	0	
2.0480	9.21578	-5.42484	0	
2.0487	9.53833	-6.64325	0	
2.0493	7.99469	-5.74394	0	
2.0500	4.95348	-5.42484	0	
2.0507	1.91227	-5.42484	0	
2.0513	-0.529907	-3.91632	0	
2.0520	-2.37306	-3.91632	0	
2.0527	-2.37306	-3.30712	0	
2.0533	-1.45149	-0.870294	0	
2.0540	-2.67258	-1.16039	0	
2.0547	-7.85645	-2.3788	0	
2.0553	-10.6212	1.59554	0	
2.0560	-9.69961	5.25078	0	
2.0567	-8.77803	4.32246	0	
2.0573	-8.17901	3.42316	0	
2.0580	-6.33585	2.81395	0	
2.0587	-6.03634	1.59554	0	
2.0593	-6.03634	2.20475	0	
2.0600	-2.67258	3.42316	0	
2.0607	0.368631	4.32246	0	
2.0613	-0.529907	6.15008	0	
2.0620	-1.45149	7.07839	0	
2.0627	-1.15197	7.36849	0	
2.0633	-1.751	8.00671	0	
2.0640	-1.45149	6.15008	0	
2.0647	0.990696	2.49484	0	
2.0653	3.13337	0.0580196	0	
2.0660	4.65397	-3.91632	0	
2.0667	4.95348	-5.74394	0	
2.0673	5.87506	-2.98801	0	
2.0680	8.91627	-2.69791	0	
2.0687	11.3584	-5.74394	0	
2.0693	10.7594	-6.03404	0	
2.0700	13.5011	-5.42484	0	
2.0707	21.1272	-6.64325	0	
2.0713	25.3895	-6.64325	0	
2.0720	23.5694	-6.03404	0	
2.0727	21.7492	-3.91632	0	
2.0733	25.712	0.0580196	0	
2.0740	34.8587	-1.16039	0	
2.0747	41.8857	-6.03404	0	
2.0753	40.6646	-7.57156	0	
2.0760	36.0798	-5.74394	0	
2.0767	32.4165	-6.03404	0	
2.0773	26.3111	-6.35315	0	
2.0780	15.6438	-3.91632	0	
2.0787	4.35446	-1.16039	0	
2.0793	-3.59415	-0.261088	0	
2.0800	-9.69961	-0.551186	0	
2.0807	-16.1046	0.667226	0	
2.0813	-22.5095	3.42316	0	
2.0820	-30.1356	5.85998	0	
2.0827	-38.3837	8.29681	0	
2.0833	-44.1897	9.22512	0	
2.0840	-45.4108	8.29681	0	
2.0847	-45.7103	8.90601	0	
2.0853	-47.5304	9.83433	0	
2.0860	-47.2309	9.51522	0	
2.0867	-45.4108	9.83433	0	
2.0873	-40.8259	10.1244	0	
2.0880	-34.7205	6.75929	0	
2.0887	-31.3567	3.71326	0	
2.0893	-28.9145	4.64157	0	
2.0900	-24.0301	4.93167	0	
2.0907	-19.1458	2.49484	0	
2.0913	-13.9619	0.667226	0	
2.0920	-6.95791	0.0580196	0	
2.0927	-3.29464	0.986334	0	
2.0933	-0.85246	3.10405	0	
2.0940	4.95348	1.59554	0	
2.0947	8.61675	0.0580196	0	
2.0953	10.1374	2.81395	0	
2.0960	18.685	3.42316	0	
2.0967	29.9743	-0.261088	0	
2.0973	37.9229	-0.261088	0	
2.0980	43.4063	0.986334	0	
2.0987	43.4063	-1.4795	0	
2.0993	37.3009	-1.16039	0	
2.1000	35.1582	0.667226	0	
2.1007	35.1582	-2.98801	0	
2.1013	30.2738	-5.74394	0	
2.1020	23.8689	-5.13474	0	
2.1027	17.7634	-4.81563	0	
2.1033	8.61675	-5.42484	0	
2.1040	-0.529907	-5.13474	0	
2.1047	-6.33585	-4.81563	0	
2.1053	-11.8192	-3.91632	0	
2.1060	-17.3257	-2.08871	0	
2.1067	-20.6894	-1.7696	0	
2.1073	-21.588	-1.16039	0	
2.1080	-21.9105	-1.4795	0	
2.1087	-24.0301	-2.98801	0	
2.1093	-24.6522	-1.4795	0	
2.1100	-21.2885	-0.870294	0	
2.1107	-17.6252	-3.30712	0	
2.1113	-14.584	-3.91632	0	
2.1120	-11.2202	-3.59722	0	
2.1127	-10.2986	-4.52553	0	
2.1133	-10.2986	-2.3788	0	
2.1140	-6.03634	1.88564	0	
2.1147	3.13337	1.88564	0	
2.1153	14.1001	0.0580196	0	
2.1160	24.1914	0.667226	0	
2.1167	30.8959	3.42316	0	
2.1173	35.1582	7.07839	0	
2.1180	37.9229	5.85998	0	
2.1187	37.0014	-0.261088	0	
2.1193	32.716	-1.4795	0	
2.1200	28.1542	1.59554	0	
2.1207	23.5694	0.667226	0	
2.1213	16.2428	-1.4795	0	
2.1220	7.39566	-0.870294	0	
2.1227	0.691184	-1.16039	0	
2.1233	-3.29464	-0.870294	0	
2.1240	-9.69961	0.667226	0	
2.1247	-18.8463	0.377128	0	
2.1253	-26.1728	0.667226	0	
2.1260	-30.1356	4.03236	0	
2.1267	-30.7577	4.64157	0	
2.1273	-27.0944	3.42316	0	
2.1280	-22.5095	5.25078	0	
2.1287	-19.4683	7.07839	0	
2.1293	-15.4825	5.54087	0	
2.1300	-10.2986	2.49484	0	
2.1307	-6.33585	-0.261088	0	
2.1313	-4.19318	-2.69791	0	
2.1320	-3.29464	-4.81563	0	
2.1327	-5.11476	-4.81563	0	
2.1333	-6.33585	-2.3788	0	
2.1340	-3.89367	-1.7696	0	
2.1347	-1.45149	-2.08871	0	
2.1353	-1.45149	0.986334	0	
2.1360	1.29021	2.20475	0	
2.1367	6.7736	-2.08871	0	
2.1373	9.53833	-3.59722	0	
2.1380	9.21578	-1.4795	0	
2.1387	11.9805	-2.69791	0	
2.1393	16.5423	-3.59722	0	
2.1400	16.8649	-2.08871	0	
2.1407	12.5795	-2.98801	0	
2.1413	9.21578	-5.13474	0	
2.1420	7.69518	-4.20642	0	
2.1427	4.65397	-2.98801	0	
2.1433	0.691184	-2.98801	0	
2.1440	-4.51573	-1.7696	0	
2.1447	-12.1418	0.667226	0	
2.1453	-16.7036	3.42316	0	
2.1460	-15.183	5.54087	0	
2.1467	-15.4825	5.85998	0	
2.1473	-21.2885	5.54087	0	
2.1480	-23.1316	6.75929	0	
2.1487	-18.5468	8.00671	0	
2.1493	-13.0403	6.75929	0	
2.1500	-6.03634	2.49484	0	
2.1507	1.29021	-1.4795	0	
2.1513	3.13337	-2.3788	0	
2.1520	5.87506	-2.08871	0	
2.1527	12.8791	-3.30712	0	
2.1533	15.3212	-4.81563	0	
2.1540	13.8006	-5.13474	0	
2.1547	15.6438	-4.81563	0	
2.1553	17.1644	-6.03404	0	
2.1560	13.8006	-6.64325	0	
2.1567	12.28	-2.98801	0	
2.1573	15.0217	-1.16039	0	
2.1580	18.3855	-3.59722	0	
2.1587	22.6478	-3.91632	0	
2.1593	25.3895	-2.98801	0	
2.1600	22.3483	-4.81563	0	
2.1607	17.7634	-3.59722	0	
2.1613	13.8006	-0.870294	0	
2.1620	8.91627	-2.69791	0	
2.1627	3.13337	-2.3788	0	
2.1633	-0.529907	0.667226	0	
2.1640	-2.37306	-0.261088	0	
2.1647	-5.11476	-0.261088	0	
2.1653	-9.07754	2.49484	0	
2.1660	-11.8192	1.59554	0	
2.1667	-15.183	0.986334	0	
2.1673	-19.1458	3.10405	0	
2.1680	-21.588	2.49484	0	
2.1687	-21.2885	1.27643	0	
2.1693	-23.1316	3.42316	0	
2.1700	-26.1728	4.93167	0	
2.1707	-25.5738	4.64157	0	
2.1713	-22.5095	3.10405	0	
2.1720	-19.4683	-1.16039	0	
2.1727	-14.584	-3.59722	0	
2.1733	-7.85645	-1.7696	0	
2.1740	-1.15197	-1.16039	0	
2.1747	5.25299	-3.91632	0	
2.1753	11.658	-5.42484	0	
2.1760	13.2016	-5.13474	0	
2.1767	11.0589	-4.20642	0	
2.1773	12.28	-2.98801	0	
2.1780	15.9433	-2.08871	0	
2.1787	15.0217	-2.3788	0	
2.1793	11.658	-3.59722	0	
2.1800	11.3584	-3.91632	0	
2.1807	11.658	-3.91632	0	
2.1813	8.91627	-2.08871	0	
2.1820	4.35446	-0.551186	0	
2.1827	1.91227	-0.551186	0	
2.1833	0.368631	-1.4795	0	
2.1840	-1.45149	-3.59722	0	
2.1847	-3.59415	-3.91632	0	
2.1853	-5.11476	-0.261088	0	
2.1860	-6.95791	1.88564	0	
2.1867	-8.47852	0.667226	0	
2.1873	-9.07754	0.377128	0	
2.1880	-7.55694	0.667226	0	
2.1887	-2.67258	-2.3788	0	
2.1893	4.0319	-4.52553	0	
2.1900	11.9805	-3.91632	0	
2.1907	17.4639	-3.91632	0	
2.1913	15.6438	-3.91632	0	
2.1920	12.5795	-2.08871	0	
2.1927	17.4639	-1.16039	0	
2.1933	21.1272	0.377128	0	
2.1940	16.2428	3.10405	0	
2.1947	14.1001	3.71326	0	
2.1953	18.086	3.71326	0	
2.1960	21.1272	7.07839	0	
2.1967	23.2698	6.46919	0	
2.1973	25.712	-0.261088	0	
2.1980	22.6478	-2.98801	0	
2.1987	16.8649	0.667226	0	
2.1993	13.5011	-0.261088	0	
2.2000	8.91627	-2.08871	0	
2.2007	2.21179	0.667226	0	
2.2013	-5.11476	3.42316	0	
2.2020	-12.7408	1.27643	0	
2.2027	-19.1458	0.986334	0	
2.2033	-20.0674	3.42316	0	
2.2040	-17.0262	1.88564	0	
2.2047	-15.4825	-1.4795	0	
2.2053	-15.183	-2.69791	0	
2.2060	-14.2614	-1.7696	0	
2.2067	-12.4413	-0.261088	0	
2.2073	-10.6212	0.377128	0	
2.2080	-9.69961	-2.98801	0	
2.2087	-7.25743	-5.42484	0	
2.2093	-4.19318	-5.13474	0	
2.2100	-4.19318	-4.52553	0	
2.2107	-3.29464	-2.98801	0	
2.2113	-0.529907	0.986334	0	
2.2120	-1.45149	1.88564	0	
2.2127	-5.73682	-0.261088	0	
2.2133	-7.55694	3.42316	0	
2.2140	-10.6212	8.61591	0	
2.2147	-17.3257	6.15008	0	
2.2153	-19.7678	2.49484	0	
2.2160	-17.0262	6.15008	0	
2.2167	-11.5197	8.90601	0	
2.2173	-4.19318	4.93167	0	
2.2180	1.29021	3.42316	0	
2.2187	-0.529907	6.46919	0	
2.2193	-3.29464	6.46919	0	
2.2200	-1.15197	2.81395	0	
2.2207	2.21179	2.20475	0	
2.2213	4.65397	2.81395	0	
2.2220	8.31724	0.986334	0	
2.2227	9.83785	0.377128	0	
2.2233	7.09615	2.49484	0	
2.2240	3.13337	2.20475	0	
2.2247	0.368631	-0.261088	0	
2.2253	-1.15197	1.27643	0	
2.2260	-5.41427	4.32246	0	
2.2267	-13.3629	3.42316	0	
2.2273	-18.8463	0.667226	0	
2.2280	-20.9889	-0.261088	0	
2.2287	-23.4311	0.667226	0	
2.2293	-24.9517	1.27643	0	
2.2300	-21.588	-0.261088	0	
2.2307	-14.584	-1.7696	0	
2.2313	-6.03634	-1.4795	0	
2.2320	0.691184	-2.08871	0	
2.2327	2.81081	-3.59722	0	
2.2333	3.13337	-3.91632	0	
2.2340	5.25299	-4.20642	0	
2.2347	6.7736	-4.81563	0	
2.2353	6.7736	-4.20642	0	
2.2360	4.95348	-2.3788	0	
2.2367	0.0691184	-1.16039	0	
2.2373	-2.07355	-2.3788	0	
2.2380	1.91227	-4.52553	0	
2.2387	2.5113	-3.91632	0	
2.2393	-3.29464	-3.91632	0	
2.2400	-5.11476	-5.74394	0	
2.2407	-2.37306	-7.57156	0	
2.2413	-5.41427	-5.74394	0	
2.2420	-11.5197	-3.91632	0	
2.2427	-11.2202	-3.91632	0	
2.2433	-7.55694	-3.91632	0	
2.2440	-5.11476	-2.98801	0	
2.2447	-3.59415	-3.91632	0	
2.2453	-2.97209	-4.81563	0	
2.2460	-1.45149	-4.20642	0	
2.2467	0.691184	-5.74394	0	
2.2473	0.990696	-6.35315	0	
2.2480	0.691184	-3.91632	0	
2.2487	0.0691184	-2.08871	0	
2.2493	-1.45149	-2.98801	0	
2.2500	2.21179	-3.91632	0	
2.2507	10.4369	-3.30712	0	
2.2513	14.4227	-2.98801	0	
2.2520	14.1001	-3.30712	0	
2.2527	15.9433	-2.98801	0	
2.2533	17.1644	0.377128	0	
2.2540	15.9433	4.03236	0	
2.2547	15.9433	3.10405	0	
2.2553	16.8649	-1.16039	0	
2.2560	14.1001	-3.59722	0	
2.2567	8.61675	-2.3788	0	
2.2573	8.91627	-0.261088	0	
2.2580	10.4369	0.0580196	0	
2.2587	5.87506	0.986334	0	
2.2593	2.5113	2.49484	0	
2.2600	4.0319	1.27643	0	
2.2607	5.87506	-1.16039	0	
2.2613	7.69518	-0.261088	0	
2.2620	11.3584	0.986334	0	
2.2627	16.2428	-0.870294	0	
2.2633	22.3483	-2.69791	0	
2.2640	24.7904	-3.30712	0	
2.2647	21.7492	-3.91632	0	
2.2653	21.4267	-4.20642	0	
2.2660	26.0115	-6.64325	0	
2.2667	25.09	-6.96236	0	
2.2673	20.5282	-4.52553	0	
2.2680	18.3855	-7.57156	0	
2.2687	16.8649	-12.7643	0	
2.2693	13.2016	-9.71829	0	
2.2700	9.21578	-5.42484	0	
2.2707	3.13337	-6.35315	0	
2.2713	-3.29464	-6.64325	0	
2.2720	-6.95791	-4.81563	0	
2.2727	-5.73682	-3.30712	0	
2.2733	-4.81525	-1.7696	0	
2.2740	-7.55694	-0.261088	0	
2.2747	-11.5197	1.88564	0	
2.2753	-15.183	4.32246	0	
2.2760	-18.2472	5.25078	0	
2.2767	-19.7678	4.64157	0	
2.2773	-19.4683	4.03236	0	
2.2780	-19.1458	5.54087	0	
2.2787	-20.9889	8.90601	0	
2.2793	-23.7306	9.83433	0	
2.2800	-22.21	8.00671	0	
2.2807	-17.0262	8.00671	0	
2.2813	-16.1046	9.22512	0	
2.2820	-18.5468	7.07839	0	
2.2827	-16.1046	4.93167	0	
2.2833	-13.6624	5.25078	0	
2.2840	-15.4825	4.64157	0	
2.2847	-15.4825	2.81395	0	
2.2853	-11.2202	2.20475	0	
2.2860	-9.4001	3.42316	0	
2.2867	-12.4413	4.64157	0	
2.2873	-12.1418	4.03236	0	
2.2880	-6.03634	1.88564	0	
2.2887	-2.37306	0.986334	0	
2.2893	-2.97209	-0.551186	0	
2.2900	0.0691184	-2.08871	0	
2.2907	5.25299	0.0580196	0	
2.2913	5.87506	4.03236	0	
2.2920	4.95348	4.32246	0	
2.2927	5.25299	0.667226	0	
2.2933	4.0319	-1.7696	0	
2.2940	4.95348	0.667226	0	
2.2947	9.83785	1.59554	0	
2.2953	12.5795	-2.69791	0	
2.2960	12.8791	-5.42484	0	
2.2967	14.7222	-3.91632	0	
2.2973	14.4227	-2.98801	0	
2.2980	9.83785	-2.98801	0	
2.2987	5.87506	-2.08871	0	
2.2993	5.87506	-1.4795	0	
2.3000	7.09615	-0.870294	0	
2.3007	6.47409	1.59554	0	
2.3013	2.81081	1.88564	0	
2.3020	0.990696	0.0580196	0	
2.3027	5.57555	1.59554	0	
2.3033	10.4369	3.42316	0	
2.3040	10.4369	0.0580196	0	
2.3047	11.3584	-3.91632	0	
2.3053	15.3212	-5.13474	0	
2.3060	16.8649	-6.03404	0	
2.3067	14.1001	-7.89067	0	
2.3073	9.21578	-8.49988	0	
2.3080	2.21179	-8.49988	0	
2.3087	-3.89367	-8.18077	0	
2.3093	-8.77803	-5.13474	0	
2.3100	-12.4413	-1.7696	0	
2.3107	-13.3629	-2.98801	0	
2.3113	-12.1418	-4.20642	0	
2.3120	-9.4001	-1.7696	0	
2.3127	-5.73682	-1.16039	0	
2.3133	-3.89367	-3.30712	0	
2.3140	-3.89367	-1.7696	0	
2.3147	-3.59415	0.667226	0	
2.3153	-3.89367	-1.16039	0	
2.3160	-4.19318	-2.08871	0	
2.3167	-2.07355	-1.16039	0	
2.3173	1.58972	-1.16039	0	
2.3180	5.87506	-1.7696	0	
2.3187	7.99469	-3.30712	0	
2.3193	5.87506	-4.81563	0	
2.3200	4.0319	-3.91632	0	
2.3207	4.35446	-2.3788	0	
2.3213	0.368631	-2.08871	0	
2.3220	-4.81525	-1.16039	0	
2.3227	-7.25743	2.81395	0	
2.3233	-11.5197	7.6876	0	
2.3240	-16.1046	8.90601	0	
2.3247	-17.3257	7.07839	0	
2.3253	-20.3669	7.07839	0	
2.3260	-23.4311	6.15008	0	
2.3267	-20.3669	4.03236	0	
2.3273	-15.8051	4.93167	0	
2.3280	-15.8051	7.6876	0	
2.3287	-16.4041	5.25078	0	
2.3293	-13.3629	2.49484	0	
2.3300	-5.11476	5.25078	0	
2.3307	4.0319	5.25078	0	
2.3313	14.1001	-0.261088	0	
2.3320	26.9331	-3.91632	0	
2.3327	39.7431	-4.20642	0	
2.3333	43.1068	-5.42484	0	
2.3340	39.144	-4.81563	0	
2.3347	33.3381	-3.30712	0	
2.3353	27.5321	-4.81563	0	
2.3360	20.5282	-6.35315	0	
2.3367	12.28	-3.91632	0	
2.3373	4.65397	-0.261088	0	
2.3380	-0.230395	-1.16039	0	
2.3387	-6.63536	-3.91632	0	
2.3393	-14.8835	-3.59722	0	
2.3400	-19.7678	-2.08871	0	
2.3407	-21.2885	-2.98801	0	
2.3413	-22.5095	-3.91632	0	
2.3420	-23.7306	-2.69791	0	
2.3427	-25.2512	-2.08871	0	
2.3433	-25.8733	-1.16039	0	
2.3440	-22.5095	2.20475	0	
2.3447	-17.9247	2.81395	0	
2.3453	-13.9619	0.0580196	0	
2.3460	-8.17901	-0.261088	0	
2.3467	-3.29464	-0.261088	0	
2.3473	-2.97209	-2.08871	0	
2.3480	-4.51573	0.0580196	0	
2.3487	-5.41427	4.03236	0	
2.3493	-5.41427	2.81395	0	
2.3500	-2.97209	1.27643	0	
2.3507	2.5113	4.03236	0	
2.3513	7.99469	5.85998	0	
2.3520	11.3584	4.03236	0	
2.3527	11.658	2.49484	0	
2.3533	12.5795	3.42316	0	
2.3540	15.3212	6.15008	0	
2.3547	14.1001	6.15008	0	
2.3553	10.7594	2.20475	0	
2.3560	9.21578	-0.551186	0	
2.3567	5.57555	0.377128	0	
2.3573	1.29021	0.377128	0	
2.3580	0.368631	0.0580196	0	
2.3587	-1.45149	1.27643	0	
2.3593	-4.51573	1.27643	0	
2.3600	-3.29464	-0.551186	0	
2.3607	-1.751	-0.870294	0	
2.3613	-2.37306	0.667226	0	
2.3620	-0.85246	2.20475	0	
2.3627	0.368631	0.667226	0	
2.3633	0.0691184	-1.7696	0	
2.3640	4.65397	-2.08871	0	
2.3647	11.658	-2.08871	0	
2.3653	15.0217	-3.91632	0	
2.3660	18.685	-4.20642	0	
2.3667	24.1914	-3.30712	0	
2.3673	24.1914	-2.98801	0	
2.3680	19.3071	-3.59722	0	
2.3687	15.3212	-3.91632	0	
2.3693	13.2016	-3.59722	0	
2.3700	10.7594	-3.30712	0	
2.3707	5.87506	-3.59722	0	
2.3713	1.29021	-4.81563	0	
2.3720	0.0691184	-5.13474	0	
2.3727	0.0691184	-3.59722	0	
2.3733	-3.29464	-3.59722	0	
2.3740	-3.89367	-4.81563	0	
2.3747	-0.529907	-3.91632	0	
2.3753	1.58972	-1.4795	0	
2.3760	1.58972	-2.08871	0	
2.3767	3.13337	-2.69791	0	
2.3773	7.99469	-0.870294	0	
2.3780	13.5011	-0.551186	0	
2.3787	17.4639	-1.4795	0	
2.3793	17.7634	-0.261088	0	
2.3800	14.4227	0.377128	0	
2.3807	10.1374	-1.7696	0	
2.3813	7.69518	-3.59722	0	
2.3820	4.95348	-2.69791	0	
2.3827	-1.751	0.377128	0	
2.3833	-7.55694	3.10405	0	
2.3840	-9.4001	1.59554	0	
2.3847	-12.7408	-2.98801	0	
2.3853	-17.9247	-4.20642	0	
2.3860	-19.7678	-2.08871	0	
2.3867	-18.5468	-0.261088	0	
2.3873	-14.584	-1.4795	0	
2.3880	-7.85645	-2.3788	0	
2.3887	-1.751	-2.98801	0	
2.3893	1.91227	-4.20642	0	
2.3900	3.13337	-4.52553	0	
2.3907	2.21179	-3.91632	0	
2.3913	1.91227	-5.13474	0	
2.3920	4.95348	-6.96236	0	
2.3927	9.83785	-6.35315	0	
2.3933	14.1001	-5.74394	0	
2.3940	17.7634	-6.35315	0	
2.3947	16.5423	-4.20642	0	
2.3953	10.4369	-1.7696	0	
2.3960	6.7736	-0.551186	0	
2.3967	4.35446	0.0580196	0	
2.3973	-0.529907	-0.261088	0	
2.3980	-1.751	-1.7696	0	
2.3987	3.13337	-0.261088	0	
2.3993	4.0319	2.81395	0	
2.4000	-2.37306	2.81395	0	
2.4007	-7.55694	2.20475	0	
2.4013	-9.4001	2.81395	0	
2.4020	-12.4413	2.49484	0	
2.4027	-17.9247	1.88564	0	
2.4033	-22.8091	3.10405	0	
2.4040	-25.8733	4.93167	0	
2.4047	-30.1356	7.07839	0	
2.4053	-36.2411	8.00671	0	
2.4060	-39.3053	6.46919	0	
2.4067	-38.3837	6.15008	0	
2.4073	-35.9415	6.15008	0	
2.4080	-33.4994	4.32246	0	
2.4087	-33.4994	2.81395	0	
2.4093	-32.5778	1.59554	0	
2.4100	-25.2512	0.986334	0	
2.4107	-19.4683	5.25078	0	
2.4113	-18.2472	9.83433	0	
2.4120	-10.2986	9.51522	0	
2.4127	-0.230395	8.90601	0	
2.4133	-0.85246	8.29681	0	
2.4140	0.0691184	4.32246	0	
2.4147	9.83785	2.49484	0	
2.4153	13.5011	5.25078	0	
2.4160	10.4369	5.54087	0	
2.4167	10.4369	3.42316	0	
2.4173	9.83785	4.32246	0	
2.4180	7.09615	4.32246	0	
2.4187	8.91627	0.667226	0	
2.4193	11.658	-0.551186	0	
2.4200	11.9805	-0.551186	0	
2.4207	11.9805	-2.69791	0	
2.4213	9.21578	-1.7696	0	
2.4220	6.47409	1.88564	0	
2.4227	9.53833	2.20475	0	
2.4233	13.2016	0.0580196	0	
2.4240	16.8649	-1.16039	0	
2.4247	23.8689	-2.69791	0	
2.4253	30.8959	-2.98801	0	
2.4260	35.1582	-3.30712	0	
2.4267	40.3651	-6.03404	0	
2.4273	43.4063	-8.18077	0	
2.4280	40.6646	-7.25245	0	
2.4287	37.0014	-6.35315	0	
2.4293	33.3381	-5.74394	0	
2.4300	28.4537	-6.03404	0	
2.4307	23.5694	-6.64325	0	
2.4313	15.9433	-4.52553	0	
2.4320	4.95348	-1.16039	0	
2.4327	-3.59415	-0.551186	0	
2.4333	-10.6212	-1.16039	0	
2.4340	-19.1458	0.667226	0	
2.4347	-26.1728	3.10405	0	
2.4353	-30.1356	5.25078	0	
2.4360	-34.4209	7.07839	0	
2.4367	-35.02	7.36849	0	
2.4373	-30.1356	7.36849	0	
2.4380	-25.2512	8.61591	0	
2.4387	-20.6894	8.29681	0	
2.4393	-15.183	4.32246	0	
2.4400	-12.4413	-1.16039	0	
2.4407	-10.6212	-3.91632	0	
2.4413	-5.73682	-2.3788	0	
2.4420	-2.07355	-1.4795	0	
2.4427	-3.59415	-2.08871	0	
2.4433	-4.19318	-1.7696	0	
2.4440	-1.15197	-2.08871	0	
2.4447	0.691184	-4.81563	0	
2.4453	0.990696	-4.81563	0	
2.4460	2.81081	-1.7696	0	
2.4467	4.95348	-1.16039	0	
2.4473	5.87506	-2.69791	0	
2.4480	6.17457	-3.91632	0	
2.4487	7.69518	-6.03404	0	
2.4493	7.39566	-6.64325	0	
2.4500	6.17457	-4.81563	0	
2.4507	7.39566	-6.64325	0	
2.4513	10.1374	-9.39918	0	
2.4520	14.1001	-8.49988	0	
2.4527	18.685	-6.03404	0	
2.4533	19.6066	-6.03404	0	
2.4540	16.8649	-5.74394	0	
2.4547	14.7222	-6.35315	0	
2.4553	12.28	-6.96236	0	
2.4560	5.87506	-4.81563	0	
2.4567	3.13337	-3.30712	0	
2.4573	5.25299	-4.20642	0	
2.4580	5.87506	-2.98801	0	
2.4587	2.21179	1.27643	0	
2.4593	-2.37306	2.49484	0	
2.4600	-5.41427	1.59554	0	
2.4607	-6.95791	1.59554	0	
2.4613	-7.55694	2.49484	0	
2.4620	-8.17901	2.20475	0	
2.4627	-7.85645	0.377128	0	
2.4633	-8.77803	-0.261088	0	
2.4640	-12.1418	0.986334	0	
2.4647	-12.7408	0.667226	0	
2.4653	-10.6212	0.377128	0	
2.4660	-9.07754	1.59554	0	
2.4667	-9.4001	0.986334	0	
2.4673	-7.25743	-0.261088	0	
2.4680	-2.07355	0.667226	0	
2.4687	3.13337	0.667226	0	
2.4693	2.5113	-1.7696	0	
2.4700	1.29021	-1.7696	0	
2.4707	4.0319	0.667226	0	
2.4713	4.65397	2.81395	0	
2.4720	2.5113	3.10405	0	
2.4727	4.35446	0.986334	0	
2.4733	5.57555	0.0580196	0	
2.4740	1.58972	1.88564	0	
2.4747	1.29021	1.27643	0	
2.4753	4.0319	-1.16039	0	
2.4760	4.65397	0.667226	0	
2.4767	5.57555	2.49484	0	
2.4773	6.17457	-0.261088	0	
2.4780	3.13337	-1.16039	0	
2.4787	1.29021	0.667226	0	
2.4793	1.29021	0.986334	0	
2.4800	-0.529907	1.88564	0	
2.4807	-2.37306	3.42316	0	
2.4813	-2.07355	2.20475	0	
2.4820	0.0691184	0.0580196	0	
2.4827	3.13337	1.27643	0	
2.4833	4.35446	2.81395	0	
2.4840	3.13337	1.88564	0	
2.4847	3.73239	0.667226	0	
2.4853	3.13337	-0.551186	0	
2.4860	0.990696	-0.551186	0	
2.4867	1.91227	2.49484	0	
2.4873	3.13337	4.03236	0	
2.4880	-0.529907	2.49484	0	
2.4887	-3.29464	-0.261088	0	
2.4893	-4.19318	-2.08871	0	
2.4900	-8.77803	-1.16039	0	
2.4907	-10.9207	0.667226	0	
2.4913	-8.17901	0.667226	0	
2.4920	-8.17901	-2.3788	0	
2.4927	-12.1418	-3.59722	0	
2.4933	-12.4413	-3.30712	0	
2.4940	-4.19318	-4.20642	0	
2.4947	8.91627	-5.74394	0	
2.4953	17.4639	-5.74394	0	
2.4960	20.2056	-5.74394	0	
2.4967	22.3483	-4.52553	0	
2.4973	23.5694	-1.16039	0	
2.4980	19.6066	1.27643	0	
2.4987	15.6438	0.667226	0	
2.4993	13.2016	-0.261088	0	
2.5000	7.99469	1.59554	0	
2.5007	0.368631	2.49484	0	
2.5013	-4.51573	0.377128	0	
2.5020	-7.85645	-0.261088	0	
2.5027	-14.584	1.27643	0	
2.5033	-23.1316	0.377128	0	
2.5040	-28.9145	0.0580196	0	
2.5047	-32.5778	2.49484	0	
2.5053	-34.4209	1.59554	0	
2.5060	-33.7989	0.667226	0	
2.5067	-31.3567	5.54087	0	
2.5073	-27.6934	8.61591	0	
2.5080	-22.5095	3.10405	0	
2.5087	-16.7036	-1.4795	0	
2.5093	-10.9207	-0.261088	0	
2.5100	-6.03634	0.0580196	0	
2.5107	-2.07355	-2.08871	0	
2.5113	3.43288	-1.7696	0	
2.5120	11.0589	0.667226	0	
2.5127	15.9433	0.377128	0	
2.5133	16.2428	-1.16039	0	
2.5140	15.6438	0.667226	0	
2.5147	15.9433	4.32246	0	
2.5153	15.6438	4.32246	0	
2.5160	13.2016	0.986334	0	
2.5167	9.53833	-0.261088	0	
2.5173	5.25299	-0.261088	0	
2.5180	0.691184	-1.16039	0	
2.5187	-0.529907	-1.16039	0	
2.5193	0.990696	1.27643	0	
2.5200	1.91227	0.667226	0	
2.5207	0.990696	-2.08871	0	
2.5213	1.29021	-3.91632	0	
2.5220	4.35446	-4.81563	0	
2.5227	7.09615	-4.81563	0	
2.5233	5.87506	-2.69791	0	
2.5240	4.0319	-1.16039	0	
2.5247	6.17457	-2.3788	0	
2.5253	8.61675	-3.91632	0	
2.5260	8.61675	-3.91632	0	
2.5267	6.17457	-3.30712	0	
2.5273	3.43288	-1.16039	0	
2.5280	2.81081	0.0580196	0	
2.5287	3.43288	0.377128	0	
2.5293	2.5113	0.986334	0	
2.5300	1.29021	2.20475	0	
2.5307	1.29021	2.49484	0	
2.5313	-2.67258	1.59554	0	
2.5320	-6.03634	-0.261088	0	
2.5327	-4.19318	-2.08871	0	
2.5333	-4.19318	-2.08871	0	
2.5340	-7.25743	-2.08871	0	
2.5347	-6.33585	-3.30712	0	
2.5353	-3.89367	-2.98801	0	
2.5360	-2.37306	-1.7696	0	
2.5367	3.13337	-3.30712	0	
2.5373	8.61675	-4.81563	0	
2.5380	14.4227	-3.30712	0	
2.5387	23.8689	-1.16039	0	
2.5393	30.2738	-0.551186	0	
2.5400	27.8317	0.667226	0	
2.5407	26.0115	0.667226	0	
2.5413	26.0115	-1.4795	0	
2.5420	23.2698	-1.4795	0	
2.5427	21.4267	0.0580196	0	
2.5433	19.3071	0.986334	0	
2.5440	14.1001	2.20475	0	
2.5447	10.1374	3.42316	0	
2.5453	6.7736	1.59554	0	
2.5460	0.990696	-1.16039	0	
2.5467	-4.51573	-2.08871	0	
2.5473	-7.85645	-2.3788	0	
2.5480	-11.5197	-3.91632	0	
2.5487	-14.2614	-4.52553	0	
2.5493	-16.1046	-3.30712	0	
2.5500	-16.1046	-3.91632	0	
2.5507	-12.4413	-4.52553	0	
2.5513	-9.69961	-2.3788	0	
2.5520	-8.77803	-2.3788	0	
2.5527	-6.03634	-3.91632	0	
2.5533	-6.03634	-1.4795	0	
2.5540	-9.69961	0.667226	0	
2.5547	-9.07754	-0.261088	0	
2.5553	-8.17901	2.49484	0	
2.5560	-13.6624	6.15008	0	
2.5567	-19.7678	4.03236	0	
2.5573	-21.2885	5.54087	0	
2.5580	-22.5095	9.83433	0	
2.5587	-22.21	8.90601	0	
2.5593	-20.9889	6.46919	0	
2.5600	-19.4683	7.07839	0	
2.5607	-13.9619	5.25078	0	
2.5613	-6.95791	3.10405	0	
2.5620	-2.37306	2.81395	0	
2.5627	2.5113	0.0580196	0	
2.5633	8.61675	-1.7696	0	
2.5640	13.8006	-0.870294	0	
2.5647	17.7634	-3.91632	0	
2.5653	20.5282	-7.57156	0	
2.5660	19.9061	-8.18077	0	
2.5667	17.7634	-8.49988	0	
2.5673	15.9433	-8.49988	0	
2.5680	12.28	-7.57156	0	
2.5687	7.69518	-8.49988	0	
2.5693	2.5113	-9.71829	0	
2.5700	-4.19318	-7.89067	0	
2.5707	-10.6212	-6.03404	0	
2.5713	-15.183	-3.91632	0	
2.5720	-20.0674	-1.16039	0	
2.5727	-26.1728	-0.551186	0	
2.5733	-27.3939	-1.4795	0	
2.5740	-22.8091	-1.16039	0	
2.5747	-19.1458	-2.08871	0	
2.5753	-18.2472	-2.08871	0	
2.5760	-15.4825	0.0580196	0	
2.5767	-12.1418	2.20475	0	
2.5773	-10.9207	4.64157	0	
2.5780	-7.85645	8.00671	0	
2.5787	-3.89367	8.90601	0	
2.5793	-4.81525	9.51522	0	
2.5800	-4.81525	10.7336	0	
2.5807	0.990696	10.1244	0	
2.5813	2.81081	9.22512	0	
2.5820	0.368631	8.90601	0	
2.5827	0.990696	7.07839	0	
2.5833	2.21179	4.32246	0	
2.5840	2.21179	2.20475	0	
2.5847	4.95348	-0.261088	0	
2.5853	7.69518	-0.261088	0	
2.5860	6.7736	1.88564	0	
2.5867	7.39566	1.88564	0	
2.5873	7.69518	-0.551186	0	
2.5880	5.87506	-0.870294	0	
2.5887	5.25299	-0.261088	0	
2.5893	6.7736	-2.3788	0	
2.5900	7.09615	-5.74394	0	
2.5907	10.1374	-5.74394	0	
2.5913	14.4227	-2.98801	0	
2.5920	15.0217	-3.59722	0	
2.5927	12.28	-6.96236	0	
2.5933	9.83785	-6.03404	0	
2.5940	8.61675	-2.08871	0	
2.5947	9.21578	-2.98801	0	
2.5953	10.4369	-5.13474	0	
2.5960	9.83785	-4.52553	0	
2.5967	9.53833	-5.13474	0	
2.5973	10.7594	-5.74394	0	
2.5980	11.0589	-3.30712	0	
2.5987	8.91627	-2.69791	0	
2.5993	6.7736	-4.20642	0	
2.6000	4.65397	-3.91632	0	
2.6007	3.43288	-2.08871	0	
2.6013	5.57555	-0.551186	0	
2.6020	8.91627	1.59554	0	
2.6027	9.53833	0.986334	0	
2.6033	10.1374	-1.16039	0	
2.6040	12.8791	-2.69791	0	
2.6047	14.4227	-5.13474	0	
2.6053	13.5011	-7.89067	0	
2.6060	13.5011	-6.96236	0	
2.6067	14.1001	-4.81563	0	
2.6073	11.3584	-4.81563	0	
2.6080	5.87506	-6.64325	0	
2.6087	0.990696	-6.64325	0	
2.6093	-2.67258	-4.81563	0	
2.6100	-4.51573	-4.20642	0	
2.6107	-3.89367	-5.42484	0	
2.6113	-3.89367	-4.52553	0	
2.6120	-9.4001	-2.08871	0	
2.6127	-16.1046	-0.551186	0	
2.6133	-19.4683	2.49484	0	
2.6140	-20.6894	7.07839	0	
2.6147	-20.6894	8.29681	0	
2.6153	-18.8463	7.36849	0	
2.6160	-18.2472	7.6876	0	
2.6167	-17.9247	7.6876	0	
2.6173	-13.6624	6.46919	0	
2.6180	-8.77803	7.07839	0	
2.6187	-4.51573	8.90601	0	
2.6193	0.368631	7.36849	0	
2.6200	3.43288	5.25078	0	
2.6207	4.95348	5.25078	0	
2.6213	9.53833	3.71326	0	
2.6220	13.2016	-0.870294	0	
2.6227	12.8791	-1.7696	0	
2.6233	13.2016	-0.551186	0	
2.6240	14.7222	-2.98801	0	
2.6247	16.8649	-4.20642	0	
2.6253	21.7492	-3.30712	0	
2.6260	24.1914	-4.20642	0	
2.6267	22.0488	-6.35315	0	
2.6273	22.3483	-6.96236	0	
2.6280	25.09	-7.25245	0	
2.6287	22.3483	-7.57156	0	
2.6293	17.1644	-7.57156	0	
2.6300	15.9433	-8.78997	0	
2.6307	11.9805	-7.57156	0	
2.6313	5.25299	-3.30712	0	
2.6320	2.21179	-0.261088	0	
2.6327	-3.29464	0.667226	0	
2.6333	-12.7408	0.986334	0	
2.6340	-17.0262	-0.261088	0	
2.6347	-14.584	-1.16039	0	
2.6353	-14.584	-1.7696	0	
2.6360	-19.7678	-1.16039	0	
2.6367	-26.4723	0.667226	0	
2.6373	-29.2371	3.42316	0	
2.6380	-26.7949	3.42316	0	
2.6387	-25.2512	4.03236	0	
2.6393	-25.2512	6.46919	0	
2.6400	-20.9889	7.07839	0	
2.6407	-18.5468	4.32246	0	
2.6413	-21.588	2.81395	0	
2.6420	-22.21	4.32246	0	
2.6427	-20.6894	6.15008	0	
2.6433	-22.5095	6.75929	0	
2.6440	-24.0301	7.07839	0	
2.6447	-25.5738	6.15008	0	
2.6453	-27.0944	5.25078	0	
2.6460	-24.0301	7.07839	0	
2.6467	-19.7678	8.61591	0	
2.6473	-17.0262	6.75929	0	
2.6480	-15.4825	3.42316	0	
2.6487	-13.9619	1.59554	0	
2.6493	-7.55694	1.59554	0	
2.6500	4.95348	2.20475	0	
2.6507	12.28	1.59554	0	
2.6513	14.4227	0.0580196	0	
2.6520	20.8277	0.377128	0	
2.6527	25.09	-0.870294	0	
2.6533	21.7492	-5.74394	0	
2.6540	19.3071	-5.74394	0	
2.6547	19.9061	-0.870294	0	
2.6553	18.9845	-1.16039	0	
2.6560	16.5423	-3.30712	0	
2.6567	13.5011	-0.261088	0	
2.6573	10.4369	2.49484	0	
2.6580	5.57555	-0.261088	0	
2.6587	-0.529907	-2.69791	0	
2.6593	-4.81525	-2.3788	0	
2.6600	-5.11476	-0.870294	0	
2.6607	-4.19318	0.377128	0	
2.6613	-2.37306	-0.261088	0	
2.6620	-2.37306	0.667226	0	
2.6627	-3.29464	0.986334	0	
2.6633	-1.751	-1.4795	0	
2.6640	-1.751	-2.08871	0	
2.6647	-5.11476	0.986334	0	
2.6653	-3.29464	-0.261088	0	
2.6660	4.0319	-2.98801	0	
2.6667	6.47409	-1.16039	0	
2.6673	4.95348	-2.08871	0	
2.6680	4.65397	-6.64325	0	
2.6687	4.95348	-6.35315	0	
2.6693	7.69518	-3.30712	0	
2.6700	15.0217	-4.52553	0	
2.6707	22.6478	-7.57156	0	
2.6713	25.3895	-8.49988	0	
2.6720	28.4537	-8.18077	0	
2.6727	35.1582	-7.89067	0	
2.6733	39.7431	-8.78997	0	
2.6740	39.7431	-10.9367	0	
2.6747	39.7431	-10.0084	0	
2.6753	39.144	-8.49988	0	
2.6760	34.2597	-9.39918	0	
2.6767	26.9331	-8.49988	0	
2.6773	22.0488	-4.81563	0	
2.6780	16.5423	-3.91632	0	
2.6787	9.53833	-2.69791	0	
2.6793	4.65397	-0.261088	0	
2.6800	-1.45149	-0.551186	0	
2.6807	-10.9207	-1.16039	0	
2.6813	-19.1458	-0.261088	0	
2.6820	-26.4723	-0.261088	0	
2.6827	-35.3195	1.59554	0	
2.6833	-41.7475	4.32246	0	
2.6840	-43.5676	4.32246	0	
2.6847	-44.7887	4.32246	0	
2.6853	-43.2681	5.25078	0	
2.6860	-37.1626	3.42316	0	
2.6867	-32.2783	1.88564	0	
2.6873	-28.9145	4.32246	0	
2.6880	-23.4311	4.03236	0	
2.6887	-17.3257	1.59554	0	
2.6893	-13.3629	3.10405	0	
2.6900	-10.9207	4.32246	0	
2.6907	-9.99912	3.42316	0	
2.6913	-9.69961	6.46919	0	
2.6920	-6.03634	9.22512	0	
2.6927	-2.37306	8.00671	0	
2.6933	-0.85246	5.85998	0	
2.6940	3.73239	4.32246	0	
2.6947	11.0589	2.20475	0	
2.6953	13.8006	1.88564	0	
2.6960	13.8006	2.20475	0	
2.6967	19.9061	1.27643	0	
2.6973	29.6748	0.667226	0	
2.6980	34.8587	-0.870294	0	
2.6987	35.1582	-2.98801	0	
2.6993	31.4949	-2.98801	0	
2.7000	23.5694	-1.4795	0	
2.7007	15.6438	-1.16039	0	
2.7013	11.658	-1.16039	0	
2.7020	9.83785	-1.7696	0	
2.7027	6.7736	-3.91632	0	
2.7033	1.58972	-4.52553	0	
2.7040	-5.73682	-1.16039	0	
2.7047	-11.8192	0.986334	0	
2.7053	-14.8835	-0.261088	0	
2.7060	-18.2472	-0.870294	0	
2.7067	-23.4311	1.59554	0	
2.7073	-25.5738	1.88564	0	
2.7080	-23.7306	-1.4795	0	
2.7087	-21.9105	-3.91632	0	
2.7093	-17.0262	-3.91632	0	
2.7100	-6.95791	-2.98801	0	
2.7107	1.58972	-0.261088	0	
2.7113	5.25299	2.20475	0	
2.7120	9.83785	1.27643	0	
2.7127	16.5423	-0.551186	0	
2.7133	22.6478	-0.551186	0	
2.7140	26.9331	-1.4795	0	
2.7147	25.712	-2.98801	0	
2.7153	18.9845	-2.3788	0	
2.7160	15.3212	-2.3788	0	
2.7167	15.0217	-3.30712	0	
2.7173	10.4369	-2.98801	0	
2.7180	3.13337	-1.16039	0	
2.7187	-1.45149	0.667226	0	
2.7193	-4.19318	-0.261088	0	
2.7200	-9.69961	-0.870294	0	
2.7207	-16.1046	1.27643	0	
2.7213	-18.8463	1.59554	0	
2.7220	-16.7036	-0.870294	0	
2.7227	-8.77803	-1.4795	0	
2.7233	0.691184	-0.551186	0	
2.7240	4.0319	-1.16039	0	
2.7247	2.81081	-1.7696	0	
2.7253	2.5113	-1.7696	0	
2.7260	4.0319	-3.59722	0	
2.7267	4.95348	-4.20642	0	
2.7273	4.65397	-3.91632	0	
2.7280	3.13337	-6.03404	0	
2.7287	2.21179	-6.96236	0	
2.7293	1.58972	-3.59722	0	
2.7300	-3.29464	-2.98801	0	
2.7307	-7.55694	-5.13474	0	
2.7313	-3.29464	-3.91632	0	
2.7320	1.29021	-2.98801	0	
2.7327	0.691184	-6.64325	0	
2.7333	3.13337	-7.89067	0	
2.7340	5.87506	-5.42484	0	
2.7347	4.0319	-3.91632	0	
2.7353	4.65397	-3.59722	0	
2.7360	7.69518	-2.08871	0	
2.7367	6.7736	-0.261088	0	
2.7373	4.0319	0.986334	0	
2.7380	3.13337	0.0580196	0	
2.7387	-0.230395	-1.16039	0	
2.7393	-6.03634	-0.261088	0	
2.7400	-11.5197	2.49484	0	
2.7407	-16.7036	4.03236	0	
2.7413	-20.3669	4.93167	0	
2.7420	-22.5095	7.07839	0	
2.7427	-23.7306	11.0527	0	
2.7433	-24.6522	13.4896	0	
2.7440	-25.2512	12.5612	0	
2.7447	-24.0301	10.7336	0	
2.7453	-19.7678	9.51522	0	
2.7460	-15.8051	10.4435	0	
2.7467	-13.6624	12.8804	0	
2.7473	-10.6212	12.2712	0	
2.7480	-6.33585	7.6876	0	
2.7487	-3.29464	3.71326	0	
2.7493	-0.85246	2.49484	0	
2.7500	3.13337	1.59554	0	
2.7507	6.17457	2.20475	0	
2.7513	6.7736	3.42316	0	
2.7520	6.7736	2.81395	0	
2.7527	7.69518	-0.261088	0	
2.7533	7.69518	-2.3788	0	
2.7540	5.87506	-3.30712	0	
2.7547	4.95348	-3.91632	0	
2.7553	4.65397	-3.30712	0	
2.7560	3.73239	-1.7696	0	
2.7567	2.81081	-1.16039	0	
2.7573	3.13337	-2.08871	0	
2.7580	4.95348	-2.08871	0	
2.7587	3.43288	-1.16039	0	
2.7593	-0.529907	0.0580196	0	
2.7600	-1.751	1.27643	0	
2.7607	1.29021	1.59554	0	
2.7613	2.21179	-0.261088	0	
2.7620	0.368631	-2.98801	0	
2.7627	1.91227	-3.30712	0	
2.7633	4.65397	-3.30712	0	
2.7640	4.95348	-3.91632	0	
2.7647	5.25299	-2.3788	0	
2.7653	6.7736	-1.16039	0	
2.7660	7.09615	-2.08871	0	
2.7667	8.31724	-2.08871	0	
2.7673	11.9805	-0.261088	0	
2.7680	14.4227	-1.7696	0	
2.7687	17.4639	-3.91632	0	
2.7693	21.4267	-3.91632	0	
2.7700	22.6478	-6.64325	0	
2.7707	28.1542	-10.6176	0	
2.7713	39.7431	-9.10908	0	
2.7720	44.3279	-7.57156	0	
2.7727	39.4435	-10.0084	0	
2.7733	37.9229	-9.10908	0	
2.7740	37.6004	-6.64325	0	
2.7747	31.4949	-9.39918	0	
2.7753	25.712	-10.9367	0	
2.7760	19.6066	-7.57156	0	
2.7767	7.69518	-6.64325	0	
2.7773	-2.97209	-6.64325	0	
2.7780	-7.85645	-3.59722	0	
2.7787	-11.2202	-1.4795	0	
2.7793	-13.3629	-3.59722	0	
2.7800	-13.9619	-3.91632	0	
2.7807	-15.183	-1.16039	0	
2.7813	-13.3629	0.377128	0	
2.7820	-5.11476	-1.4795	0	
2.7827	6.7736	-1.4795	0	
2.7833	14.1001	1.59554	0	
2.7840	12.8791	3.42316	0	
2.7847	7.09615	3.10405	0	
2.7853	3.13337	2.20475	0	
2.7860	-0.529907	1.59554	0	
2.7867	-6.03634	1.59554	0	
2.7873	-10.9207	0.667226	0	
2.7880	-17.6252	-2.3788	0	
2.7887	-27.0944	-3.91632	0	
2.7893	-35.02	-1.16039	0	
2.7900	-41.7475	-0.261088	0	
2.7907	-48.1525	-0.261088	0	
2.7913	-50.8941	4.32246	0	
2.7920	-52.1152	8.90601	0	
2.7927	-57.2991	7.36849	0	
2.7933	-60.3634	7.6876	0	
2.7940	-56.078	11.6619	0	
2.7947	-49.6731	11.0527	0	
2.7953	-43.5676	7.07839	0	
2.7960	-35.3195	4.64157	0	
2.7967	-27.0944	3.42316	0	
2.7973	-20.0674	4.32246	0	
2.7980	-14.2614	6.15008	0	
2.7987	-9.99912	5.25078	0	
2.7993	-6.63536	5.25078	0	
2.8000	-4.19318	6.75929	0	
2.8007	-2.37306	4.93167	0	
2.8013	0.368631	2.20475	0	
2.8020	3.43288	2.81395	0	
2.8027	5.25299	0.986334	0	
2.8033	6.17457	-2.69791	0	
2.8040	6.7736	-1.7696	0	
2.8047	8.61675	-0.261088	0	
2.8053	13.5011	-2.3788	0	
2.8060	15.9433	-1.4795	0	
2.8067	14.4227	1.27643	0	
2.8073	14.1001	-0.261088	0	
2.8080	16.8649	-3.91632	0	
2.8087	19.3071	-6.64325	0	
2.8093	20.5282	-7.89067	0	
2.8100	19.9061	-6.64325	0	
2.8107	20.5282	-6.35315	0	
2.8113	24.4909	-8.49988	0	
2.8120	28.1542	-8.49988	0	
2.8127	28.4537	-7.57156	0	
2.8133	27.8317	-9.71829	0	
2.8140	27.8317	-9.71829	0	
2.8147	26.9331	-5.74394	0	
2.8153	25.712	-5.13474	0	
2.8160	23.8689	-8.49988	0	
2.8167	20.5282	-9.71829	0	
2.8173	16.5423	-8.49988	0	
2.8180	15.9433	-7.57156	0	
2.8187	16.2428	-5.42484	0	
2.8193	12.28	-1.16039	0	
2.8200	5.87506	2.20475	0	
2.8207	5.25299	0.667226	0	
2.8213	7.99469	-1.7696	0	
2.8220	10.4369	-1.7696	0	
2.8227	14.7222	-2.08871	0	
2.8233	18.086	-3.91632	0	
2.8240	15.3212	-1.7696	0	
2.8247	12.28	1.88564	0	
2.8253	14.1001	2.20475	0	
2.8260	15.0217	0.0580196	0	
2.8267	14.1001	-1.16039	0	
2.8273	16.8649	-1.7696	0	
2.8280	22.3483	-3.91632	0	
2.8287	28.7532	-5.74394	0	
2.8293	35.1582	-6.64325	0	
2.8300	34.8587	-7.57156	0	
2.8307	28.4537	-6.64325	0	
2.8313	24.7904	-4.81563	0	
2.8320	20.5282	-3.91632	0	
2.8327	11.0589	-3.91632	0	
2.8333	3.43288	-2.98801	0	
2.8340	-2.67258	-0.551186	0	
2.8347	-14.2614	0.377128	0	
2.8353	-24.0301	-0.261088	0	
2.8360	-29.8361	-0.870294	0	
2.8367	-39.6048	-1.16039	0	
2.8373	-50.2721	-0.551186	0	
2.8380	-56.3775	1.59554	0	
2.8387	-62.1835	4.64157	0	
2.8393	-67.3674	8.00671	0	
2.8400	-65.5472	10.7336	0	
2.8407	-60.6629	11.6619	0	
2.8413	-57.2991	11.6619	0	
2.8420	-53.9354	12.2712	0	
2.8427	-48.452	11.6619	0	
2.8433	-40.8259	9.83433	0	
2.8440	-32.8773	8.90601	0	
2.8447	-27.0944	8.29681	0	
2.8453	-21.588	6.15008	0	
2.8460	-17.9247	5.85998	0	
2.8467	-14.2614	7.6876	0	
2.8473	-9.4001	9.22512	0	
2.8480	-5.73682	10.7336	0	
2.8487	-3.59415	11.952	0	
2.8493	0.0691184	12.2712	0	
2.8500	3.43288	8.00671	0	
2.8507	3.43288	0.667226	0	
2.8513	3.73239	-3.59722	0	
2.8520	5.25299	-2.08871	0	
2.8527	7.09615	-2.69791	0	
2.8533	9.83785	-4.81563	0	
2.8540	10.7594	-3.91632	0	
2.8547	9.21578	-2.69791	0	
2.8553	9.21578	-3.30712	0	
2.8560	10.7594	-2.98801	0	
2.8567	12.28	-1.4795	0	
2.8573	12.5795	-1.7696	0	
2.8580	11.3584	-2.08871	0	
2.8587	12.28	-2.3788	0	
2.8593	14.1001	-2.98801	0	
2.8600	14.1001	-1.4795	0	
2.8607	15.9433	0.0580196	0	
2.8613	17.4639	-2.3788	0	
2.8620	14.4227	-5.13474	0	
2.8627	14.1001	-2.98801	0	
2.8633	18.086	-1.4795	0	
2.8640	16.8649	-3.91632	0	
2.8647	12.5795	-3.91632	0	
2.8653	14.1001	-2.98801	0	
2.8660	15.0217	-5.13474	0	
2.8667	13.5011	-4.20642	0	
2.8673	15.9433	-2.69791	0	
2.8680	19.6066	-6.35315	0	
2.8687	20.5282	-8.49988	0	
2.8693	22.3483	-6.64325	0	
2.8700	26.9331	-8.78997	0	
2.8707	30.8959	-9.71829	0	
2.8713	32.117	-8.49988	0	
2.8720	32.4165	-11.5459	0	
2.8727	36.7018	-13.3735	0	
2.8733	43.4063	-11.2268	0	
2.8740	46.4475	-12.1551	0	
2.8747	46.4475	-13.0544	0	
2.8753	47.0696	-9.39918	0	
2.8760	45.8485	-8.49988	0	
2.8767	43.7058	-8.49988	0	
2.8773	42.1852	-6.64325	0	
2.8780	38.8215	-7.57156	0	
2.8787	33.3381	-7.57156	0	
2.8793	23.2698	-3.30712	0	
2.8800	8.31724	-2.98801	0	
2.8807	-2.37306	-4.52553	0	
2.8813	-7.85645	-2.69791	0	
2.8820	-16.4041	0.667226	0	
2.8827	-29.5366	4.32246	0	
2.8833	-42.047	7.36849	0	
2.8840	-53.0368	7.07839	0	
2.8847	-60.3634	6.46919	0	
2.8853	-64.0266	9.22512	0	
2.8860	-67.3674	11.6619	0	
2.8867	-65.2477	11.952	0	
2.8873	-56.3775	11.0527	0	
2.8880	-50.8941	8.90601	0	
2.8887	-49.051	7.07839	0	
2.8893	-43.2681	6.75929	0	
2.8900	-35.9415	6.46919	0	
2.8907	-32.5778	8.00671	0	
2.8913	-29.8361	9.22512	0	
2.8920	-25.2512	6.15008	0	
2.8927	-20.3669	4.03236	0	
2.8933	-17.3257	5.85998	0	
2.8940	-17.9247	6.15008	0	
2.8947	-18.5468	4.03236	0	
2.8953	-16.1046	4.03236	0	
2.8960	-12.1418	3.42316	0	
2.8967	-7.85645	0.377128	0	
2.8973	-3.29464	-2.3788	0	
2.8980	-0.85246	-4.52553	0	
2.8987	-0.529907	-5.74394	0	
2.8993	2.5113	-2.69791	0	
2.9000	8.31724	0.0580196	0	
2.9007	10.4369	-1.16039	0	
2.9013	8.61675	-0.261088	0	
2.9020	7.69518	2.49484	0	
2.9027	8.91627	3.42316	0	
2.9033	8.61675	4.32246	0	
2.9040	7.69518	5.85998	0	
2.9047	5.87506	3.42316	0	
2.9053	1.29021	-0.261088	0	
2.9060	-2.67258	-0.261088	0	
2.9067	-3.89367	-1.16039	0	
2.9073	-6.63536	-2.69791	0	
2.9080	-8.77803	-1.16039	0	
2.9087	-6.95791	0.667226	0	
2.9093	-5.11476	1.59554	0	
2.9100	-2.97209	0.377128	0	
2.9107	-0.529907	-2.69791	0	
2.9113	0.368631	-2.98801	0	
2.9120	3.13337	-2.08871	0	
2.9127	8.61675	-3.30712	0	
2.9133	10.4369	-2.98801	0	
2.9140	8.91627	-2.08871	0	
2.9147	8.61675	-2.98801	0	
2.9153	9.21578	-3.59722	0	
2.9160	10.4369	-3.59722	0	
2.9167	11.3584	-3.91632	0	
2.9173	9.21578	-1.7696	0	
2.9180	7.69518	0.0580196	0	
2.9187	10.1374	-3.59722	0	
2.9193	12.28	-3.30712	0	
2.9200	13.5011	-0.261088	0	
2.9207	15.0217	-2.08871	0	
2.9213	14.1001	-2.98801	0	
2.9220	13.8006	-0.551186	0	
2.9227	16.8649	-2.98801	0	
2.9233	16.8649	-5.74394	0	
2.9240	14.4227	-5.74394	0	
2.9247	15.6438	-6.35315	0	
2.9253	18.685	-6.64325	0	
2.9260	18.9845	-6.35315	0	
2.9267	21.4267	-6.64325	0	
2.9273	26.0115	-4.81563	0	
2.9280	26.6106	-4.20642	0	
2.9287	25.712	-6.64325	0	
2.9293	30.5964	-6.35315	0	
2.9300	33.6376	-5.74394	0	
2.9307	30.5964	-9.10908	0	
2.9313	32.4165	-7.89067	0	
2.9320	37.3009	-4.81563	0	
2.9327	35.1582	-5.74394	0	
2.9333	30.8959	-6.35315	0	
2.9340	30.5964	-6.35315	0	
2.9347	28.4537	-7.57156	0	
2.9353	25.09	-5.74394	0	
2.9360	27.5321	-5.74394	0	
2.9367	31.4949	-10.9367	0	
2.9373	28.7532	-11.836	0	
2.9380	22.6478	-7.57156	0	
2.9387	14.7222	-5.42484	0	
2.9393	4.65397	-4.52553	0	
2.9400	-6.03634	-4.20642	0	
2.9407	-15.4825	-5.13474	0	
2.9413	-24.6522	-3.59722	0	
2.9420	-32.5778	-0.261088	0	
2.9427	-38.0842	0.667226	0	
2.9433	-43.5676	2.20475	0	
2.9440	-49.6731	6.15008	0	
2.9447	-54.2579	10.1244	0	
2.9453	-60.3634	12.5612	0	
2.9460	-64.6257	12.8804	0	
2.9467	-60.9624	12.5612	0	
2.9473	-56.078	12.5612	0	
2.9480	-57.9212	13.4896	0	
2.9487	-57.2991	14.3889	0	
2.9493	-47.2309	14.3889	0	
2.9500	-36.5406	13.4896	0	
2.9507	-29.2371	12.8804	0	
2.9513	-23.4311	11.6619	0	
2.9520	-16.1046	7.07839	0	
