0.0007	29.7169	-4.85908	0	
0.0013	17.8132	-2.70868	0	
0.0020	1.33918	-1.79889	0	
0.0027	-13.328	-2.70868	0	
0.0033	-24.9129	-2.10905	0	
0.0040	-36.2003	-2.10905	0	
0.0047	-46.5736	-2.10905	0	
0.0053	-55.1188	1.55077	0	
0.0060	-63.0688	5.52075	0	
0.0067	-68.8506	5.8309	0	
0.0073	-70.7	6.74069	0	
0.0080	-69.1695	9.18056	0	
0.0087	-63.3664	10.7107	0	
0.0093	-55.4376	11.9306	0	
0.0100	-49.6345	13.7708	0	
0.0107	-43.2362	11.6204	0	
0.0113	-34.9886	8.89109	0	
0.0120	-27.0599	10.111	0	
0.0127	-20.3427	9.49072	0	
0.0133	-15.7513	4.61096	0	
0.0140	-14.8372	2.77071	0	
0.0147	-13.0091	3.39102	0	
0.0153	-10.267	0.640985	0	
0.0160	-9.65057	-0.578955	0	
0.0167	-5.37796	2.17108	0	
0.0173	3.46485	2.48123	0	
0.0180	8.03505	1.26129	0	
0.0187	8.9491	2.48123	0	
0.0193	13.8381	1.86093	0	
0.0200	19.3436	-2.4192	0	
0.0207	22.0858	-4.23877	0	
0.0213	22.9998	-3.63914	0	
0.0220	23.6163	-2.70868	0	
0.0227	24.8279	-1.19926	0	
0.0233	26.3584	-1.19926	0	
0.0240	25.4443	-2.10905	0	
0.0247	22.9998	-2.4192	0	
0.0253	21.1717	-2.70868	0	
0.0260	19.9388	-3.32899	0	
0.0267	18.7272	-2.70868	0	
0.0273	15.071	-2.10905	0	
0.0280	11.3936	-1.79889	0	
0.0287	10.182	-1.48874	0	
0.0293	7.12101	-0.889109	0	
0.0300	1.33918	-0.889109	0	
0.0307	0.72273	-1.19926	0	
0.0313	2.55081	-2.10905	0	
0.0320	1.93436	-1.79889	0	
0.0327	2.55081	-1.79889	0	
0.0333	5.90938	-2.4192	0	
0.0340	5.29293	-1.79889	0	
0.0347	2.84841	-0.578955	0	
0.0353	3.46485	0.640985	0	
0.0360	3.46485	0.95114	0	
0.0367	1.93436	-1.79889	0	
0.0373	1.93436	-3.32899	0	
0.0380	2.84841	-0.578955	0	
0.0387	2.55081	-0.578955	0	
0.0393	0.106284	-3.63914	0	
0.0400	-1.4242	-3.01883	0	
0.0407	-1.10535	-0.889109	0	
0.0413	1.63677	-1.79889	0	
0.0420	4.37889	-0.2688	0	
0.0427	5.29293	1.86093	0	
0.0433	5.29293	-0.889109	0	
0.0440	5.61178	-3.63914	0	
0.0447	5.29293	-1.48874	0	
0.0453	2.55081	0.0413539	0	
0.0460	-0.807757	0.330831	0	
0.0467	-1.10535	3.08087	0	
0.0473	0.403878	3.70117	0	
0.0480	-0.510162	2.77071	0	
0.0487	-2.63584	2.17108	0	
0.0493	-3.86873	0.95114	0	
0.0500	-4.78277	-0.578955	0	
0.0507	-3.86873	0.330831	0	
0.0513	-2.33824	0.640985	0	
0.0520	-0.510162	-1.79889	0	
0.0527	1.93436	-2.10905	0	
0.0533	1.02032	-0.889109	0	
0.0540	-2.93343	0.0413539	0	
0.0547	-2.33824	-0.2688	0	
0.0553	1.02032	-1.79889	0	
0.0560	0.72273	-2.70868	0	
0.0567	-0.191311	-2.10905	0	
0.0573	1.63677	-3.01883	0	
0.0580	3.16726	-3.92862	0	
0.0587	2.84841	-1.48874	0	
0.0593	1.63677	2.17108	0	
0.0600	-0.191311	2.17108	0	
0.0607	1.63677	0.0413539	0	
0.0613	5.29293	-0.2688	0	
0.0620	4.0813	0.95114	0	
0.0627	2.84841	1.26129	0	
0.0633	6.20697	0.95114	0	
0.0640	9.56554	1.55077	0	
0.0647	9.88439	1.86093	0	
0.0653	10.182	0.95114	0	
0.0660	12.6265	-1.79889	0	
0.0667	17.4943	-3.63914	0	
0.0673	22.7022	-2.10905	0	
0.0680	24.5303	0.330831	0	
0.0687	23.2974	-0.889109	0	
0.0693	21.1717	-3.01883	0	
0.0700	18.7272	-3.32899	0	
0.0707	14.157	-2.10905	0	
0.0713	9.56554	-1.79889	0	
0.0720	6.82342	-2.4192	0	
0.0727	2.25322	-3.32899	0	
0.0733	-6.61085	-3.63914	0	
0.0740	-12.3927	-4.54893	0	
0.0747	-11.1811	-4.54893	0	
0.0753	-7.52489	-1.19926	0	
0.0760	-5.99441	-0.578955	0	
0.0767	-8.43893	-3.63914	0	
0.0773	-11.1811	-3.92862	0	
0.0780	-11.1811	-3.01883	0	
0.0787	-10.8835	-3.63914	0	
0.0793	-10.8835	-2.4192	0	
0.0800	-9.65057	-0.889109	0	
0.0807	-9.65057	-1.48874	0	
0.0813	-10.8835	0.95114	0	
0.0820	-9.65057	3.99065	0	
0.0827	-9.35297	2.77071	0	
0.0833	-12.7115	4.30081	0	
0.0840	-12.7115	7.96063	0	
0.0847	-9.65057	6.74069	0	
0.0853	-9.65057	4.61096	0	
0.0860	-10.8835	5.52075	0	
0.0867	-13.0091	5.8309	0	
0.0873	-16.0701	3.70117	0	
0.0880	-14.8372	2.77071	0	
0.0887	-10.8835	3.08087	0	
0.0893	-11.1811	2.48123	0	
0.0900	-12.3927	-0.889109	0	
0.0907	-10.8835	-1.48874	0	
0.0913	-10.8835	0.95114	0	
0.0920	-11.1811	1.86093	0	
0.0927	-7.82249	0.95114	0	
0.0933	-6.61085	0.95114	0	
0.0940	-9.35297	0.640985	0	
0.0947	-8.73653	1.55077	0	
0.0953	-6.61085	4.61096	0	
0.0960	-6.61085	3.70117	0	
0.0967	-4.78277	0.0413539	0	
0.0973	-0.807757	-1.48874	0	
0.0980	1.93436	-0.889109	0	
0.0987	3.76245	-0.889109	0	
0.0993	6.82342	-0.2688	0	
0.1000	8.6515	-1.48874	0	
0.1007	9.26795	-4.54893	0	
0.1013	12.6265	-5.76887	0	
0.1020	17.1967	-3.01883	0	
0.1027	17.1967	-0.889109	0	
0.1033	15.3686	-1.48874	0	
0.1040	12.9241	-1.48874	0	
0.1047	8.9491	-1.79889	0	
0.1053	7.43987	-3.63914	0	
0.1060	8.9491	-3.32899	0	
0.1067	6.82342	0.95114	0	
0.1073	1.63677	1.86093	0	
0.1080	-0.191311	-0.889109	0	
0.1087	-0.807757	0.95114	0	
0.1093	-2.33824	2.48123	0	
0.1100	-1.4242	0.0413539	0	
0.1107	-0.510162	0.0413539	0	
0.1113	-2.01939	2.48123	0	
0.1120	-1.10535	1.86093	0	
0.1127	4.67649	0.95114	0	
0.1133	7.12101	2.77071	0	
0.1140	3.46485	1.55077	0	
0.1147	1.63677	-1.79889	0	
0.1153	5.90938	-1.79889	0	
0.1160	8.9491	0.330831	0	
0.1167	8.03505	0.330831	0	
0.1173	9.56554	-0.889109	0	
0.1180	11.7125	-1.79889	0	
0.1187	10.7984	-1.79889	0	
0.1193	9.88439	-0.889109	0	
0.1200	9.26795	-0.889109	0	
0.1207	6.20697	-0.578955	0	
0.1213	3.46485	0.95114	0	
0.1220	3.46485	0.95114	0	
0.1227	2.55081	0.0413539	0	
0.1233	1.93436	1.26129	0	
0.1240	3.46485	1.55077	0	
0.1247	6.52582	-1.79889	0	
0.1253	9.26795	-4.85908	0	
0.1260	10.7984	-4.54893	0	
0.1267	9.56554	-3.63914	0	
0.1273	7.73746	-3.63914	0	
0.1280	6.20697	-4.54893	0	
0.1287	3.76245	-4.23877	0	
0.1293	-0.191311	-3.63914	0	
0.1300	-6.61085	-3.63914	0	
0.1307	-12.7115	-1.19926	0	
0.1313	-16.0701	2.77071	0	
0.1320	-18.5146	2.48123	0	
0.1327	-20.9379	-1.48874	0	
0.1333	-21.5544	-3.32899	0	
0.1340	-21.2568	-3.63914	0	
0.1347	-22.4684	-3.32899	0	
0.1353	-24.6153	-0.2688	0	
0.1360	-25.827	1.86093	0	
0.1367	-24.9129	1.86093	0	
0.1373	-22.1708	1.86093	0	
0.1380	-21.2568	1.86093	0	
0.1387	-21.2568	2.77071	0	
0.1393	-16.9841	5.21059	0	
0.1400	-9.35297	7.05084	0	
0.1407	-2.93343	7.65047	0	
0.1413	3.46485	8.27078	0	
0.1420	7.73746	8.58093	0	
0.1427	8.9491	7.96063	0	
0.1433	12.0101	6.74069	0	
0.1440	16.2827	4.92111	0	
0.1447	14.7522	4.61096	0	
0.1453	11.096	4.30081	0	
0.1460	11.3936	1.86093	0	
0.1467	9.56554	0.330831	0	
0.1473	5.29293	2.17108	0	
0.1480	4.99534	3.99065	0	
0.1487	5.29293	2.77071	0	
0.1493	0.403878	1.26129	0	
0.1500	-5.37796	0.95114	0	
0.1507	-6.61085	-0.578955	0	
0.1513	-6.61085	-1.79889	0	
0.1520	-7.52489	-0.889109	0	
0.1527	-8.73653	0.330831	0	
0.1533	-9.35297	-0.889109	0	
0.1540	-6.61085	-2.70868	0	
0.1547	-2.01939	-3.32899	0	
0.1553	-0.191311	-2.70868	0	
0.1560	1.33918	-2.4192	0	
0.1567	5.61178	-3.01883	0	
0.1573	8.35391	-4.85908	0	
0.1580	8.35391	-5.76887	0	
0.1587	8.9491	-5.45871	0	
0.1593	9.26795	-5.14856	0	
0.1600	8.9491	-6.07902	0	
0.1607	9.26795	-6.07902	0	
0.1613	6.82342	-3.32899	0	
0.1620	3.76245	-2.70868	0	
0.1627	4.67649	-5.45871	0	
0.1633	5.29293	-4.85908	0	
0.1640	2.55081	-0.578955	0	
0.1647	2.55081	0.95114	0	
0.1653	2.55081	0.0413539	0	
0.1660	-1.10535	-0.578955	0	
0.1667	-2.93343	-0.889109	0	
0.1673	-2.01939	0.95114	0	
0.1680	-3.86873	3.70117	0	
0.1687	-7.20604	2.77071	0	
0.1693	-7.52489	0.95114	0	
0.1700	-7.52489	0.330831	0	
0.1707	-9.35297	1.55077	0	
0.1713	-11.1811	3.70117	0	
0.1720	-10.8835	2.77071	0	
0.1727	-8.73653	-0.2688	0	
0.1733	-4.46392	0.95114	0	
0.1740	1.33918	3.99065	0	
0.1747	5.90938	3.70117	0	
0.1753	8.9491	3.70117	0	
0.1760	11.3936	4.30081	0	
0.1767	14.4546	2.77071	0	
0.1773	14.157	0.95114	0	
0.1780	9.88439	-0.2688	0	
0.1787	7.12101	-2.10905	0	
0.1793	6.52582	0.0413539	0	
0.1800	3.46485	2.17108	0	
0.1807	0.72273	-0.889109	0	
0.1813	-0.191311	-2.4192	0	
0.1820	-4.16632	0.640985	0	
0.1827	-11.1811	0.95114	0	
0.1833	-13.328	-0.578955	0	
0.1840	-12.7115	0.640985	0	
0.1847	-12.7115	1.86093	0	
0.1853	-11.1811	0.0413539	0	
0.1860	-9.96942	-0.889109	0	
0.1867	-8.73653	-1.48874	0	
0.1873	-2.63584	-1.79889	0	
0.1880	2.55081	0.0413539	0	
0.1887	2.25322	1.86093	0	
0.1893	4.0813	0.0413539	0	
0.1900	9.88439	-2.10905	0	
0.1907	11.096	-1.48874	0	
0.1913	11.3936	-1.48874	0	
0.1920	15.6662	-3.63914	0	
0.1927	20.2577	-3.92862	0	
0.1933	23.2974	-3.92862	0	
0.1940	26.3584	-3.63914	0	
0.1947	29.1005	-2.70868	0	
0.1953	31.8426	-3.01883	0	
0.1960	30.0145	-4.54893	0	
0.1967	20.5553	-4.85908	0	
0.1973	10.7984	-4.23877	0	
0.1980	6.20697	-3.63914	0	
0.1987	1.02032	-3.63914	0	
0.1993	-6.61085	-3.63914	0	
0.2000	-12.3927	-1.48874	0	
0.2007	-17.8982	0.330831	0	
0.2013	-24.9129	-0.889109	0	
0.2020	-30.0996	-1.19926	0	
0.2027	-32.2465	1.86093	0	
0.2033	-32.5441	4.61096	0	
0.2040	-32.2465	3.70117	0	
0.2047	-31.9277	3.99065	0	
0.2053	-30.4184	6.74069	0	
0.2060	-27.3574	7.96063	0	
0.2067	-23.7013	5.52075	0	
0.2073	-18.8122	3.70117	0	
0.2080	-13.0091	3.70117	0	
0.2087	-7.82249	2.48123	0	
0.2093	-4.16632	0.640985	0	
0.2100	-2.33824	0.640985	0	
0.2107	-2.01939	0.0413539	0	
0.2113	-0.807757	-1.79889	0	
0.2120	1.93436	-2.4192	0	
0.2127	2.55081	-1.48874	0	
0.2133	3.16726	-1.19926	0	
0.2140	8.9491	-3.01883	0	
0.2147	15.9851	-3.63914	0	
0.2153	17.4943	-3.63914	0	
0.2160	18.1108	-3.63914	0	
0.2167	20.2577	-4.54893	0	
0.2173	19.0248	-3.92862	0	
0.2180	16.2827	-4.54893	0	
0.2187	17.1967	-5.45871	0	
0.2193	18.1108	-4.23877	0	
0.2200	17.1967	-2.70868	0	
0.2207	17.4943	-2.70868	0	
0.2213	16.2827	-3.01883	0	
0.2220	12.6265	-1.79889	0	
0.2227	13.5406	-2.10905	0	
0.2233	16.8991	-3.63914	0	
0.2240	14.4546	-1.79889	0	
0.2247	8.6515	1.86093	0	
0.2253	6.20697	0.95114	0	
0.2260	5.61178	-0.578955	0	
0.2267	0.106284	2.77071	0	
0.2273	-6.90845	5.52075	0	
0.2280	-9.96942	3.70117	0	
0.2287	-11.4786	2.77071	0	
0.2293	-15.1561	2.48123	0	
0.2300	-17.2817	1.26129	0	
0.2307	-17.2817	2.48123	0	
0.2313	-16.9841	1.86093	0	
0.2320	-16.9841	-2.4192	0	
0.2327	-19.4287	-1.19926	0	
0.2333	-23.9989	3.39102	0	
0.2340	-23.9989	2.48123	0	
0.2347	-20.9379	1.55077	0	
0.2353	-21.5544	6.14105	0	
0.2360	-20.6403	7.05084	0	
0.2367	-15.7513	3.08087	0	
0.2373	-14.242	1.86093	0	
0.2380	-15.1561	4.30081	0	
0.2387	-10.8835	5.52075	0	
0.2393	-6.61085	4.30081	0	
0.2400	-6.61085	2.17108	0	
0.2407	-3.54988	2.77071	0	
0.2413	1.63677	4.92111	0	
0.2420	1.63677	4.92111	0	
0.2427	2.55081	4.30081	0	
0.2433	6.20697	4.92111	0	
0.2440	6.20697	3.70117	0	
0.2447	5.61178	0.330831	0	
0.2453	12.3077	-1.79889	0	
0.2460	19.3436	-3.63914	0	
0.2467	20.8529	-5.45871	0	
0.2473	20.2577	-5.45871	0	
0.2480	21.1717	-3.32899	0	
0.2487	24.5303	-2.70868	0	
0.2493	28.1865	-4.54893	0	
0.2500	27.57	-4.23877	0	
0.2507	25.7419	-1.79889	0	
0.2513	25.1255	-2.70868	0	
0.2520	20.2577	-5.76887	0	
0.2527	12.9241	-6.07902	0	
0.2533	8.9491	-3.01883	0	
0.2540	4.67649	-1.48874	0	
0.2547	-0.191311	-0.578955	0	
0.2553	-4.46392	-1.19926	0	
0.2560	-8.73653	-3.01883	0	
0.2567	-13.0091	-1.79889	0	
0.2573	-13.328	0.640985	0	
0.2580	-12.7115	-0.578955	0	
0.2587	-14.5396	0.640985	0	
0.2593	-15.7513	3.70117	0	
0.2600	-15.7513	2.77071	0	
0.2607	-15.7513	1.86093	0	
0.2613	-16.6653	3.70117	0	
0.2620	-15.7513	1.55077	0	
0.2627	-9.35297	0.0413539	0	
0.2633	-4.78277	4.30081	0	
0.2640	-5.99441	4.61096	0	
0.2647	-6.292	0.640985	0	
0.2653	-2.93343	0.330831	0	
0.2660	-1.4242	0.95114	0	
0.2667	-1.10535	-0.2688	0	
0.2673	0.403878	0.0413539	0	
0.2680	1.33918	-0.578955	0	
0.2687	3.16726	-2.70868	0	
0.2693	8.03505	-1.79889	0	
0.2700	12.3077	-1.48874	0	
0.2707	14.157	-3.63914	0	
0.2713	15.3686	-4.54893	0	
0.2720	14.4546	-5.14856	0	
0.2727	12.3077	-6.3685	0	
0.2733	13.8381	-5.76887	0	
0.2740	14.7522	-5.14856	0	
0.2747	9.88439	-5.76887	0	
0.2753	4.99534	-5.14856	0	
0.2760	3.16726	-4.54893	0	
0.2767	-0.191311	-6.07902	0	
0.2773	-4.78277	-4.54893	0	
0.2780	-4.78277	-0.889109	0	
0.2787	-2.93343	-1.79889	0	
0.2793	-3.86873	-3.63914	0	
0.2800	-6.90845	-1.79889	0	
0.2807	-11.4786	0.95114	0	
0.2813	-14.242	2.77071	0	
0.2820	-13.328	5.52075	0	
0.2827	-11.7975	6.43053	0	
0.2833	-12.3927	4.92111	0	
0.2840	-12.0951	5.52075	0	
0.2847	-9.05538	6.43053	0	
0.2853	-7.20604	3.99065	0	
0.2860	-4.78277	0.95114	0	
0.2867	0.72273	0.95114	0	
0.2873	5.90938	1.86093	0	
0.2880	6.20697	2.77071	0	
0.2887	5.61178	3.08087	0	
0.2893	8.03505	2.77071	0	
0.2900	8.03505	3.39102	0	
0.2907	4.37889	3.70117	0	
0.2913	2.84841	2.77071	0	
0.2920	4.37889	2.48123	0	
0.2927	3.46485	1.26129	0	
0.2933	1.02032	-1.48874	0	
0.2940	2.55081	-2.4192	0	
0.2947	3.16726	-1.79889	0	
0.2953	0.72273	-3.32899	0	
0.2960	-0.191311	-4.54893	0	
0.2967	-1.10535	-3.01883	0	
0.2973	-3.86873	-1.19926	0	
0.2980	-2.93343	-1.19926	0	
0.2987	0.72273	-1.48874	0	
0.2993	0.106284	-1.48874	0	
0.3000	0.72273	-1.19926	0	
0.3007	2.84841	0.0413539	0	
0.3013	1.63677	-0.578955	0	
0.3020	-0.807757	-1.19926	0	
0.3027	0.106284	0.95114	0	
0.3033	0.403878	3.70117	0	
0.3040	-1.10535	3.70117	0	
0.3047	-1.10535	3.39102	0	
0.3053	1.33918	1.86093	0	
0.3060	3.46485	-1.79889	0	
0.3067	6.20697	-2.4192	0	
0.3073	8.03505	-0.889109	0	
0.3080	7.12101	-2.70868	0	
0.3087	6.20697	-2.70868	0	
0.3093	8.35391	0.95114	0	
0.3100	10.7984	0.0413539	0	
0.3107	10.4796	-1.79889	0	
0.3113	7.43987	-1.19926	0	
0.3120	4.37889	-2.70868	0	
0.3127	3.46485	-3.63914	0	
0.3133	4.37889	-1.79889	0	
0.3140	2.55081	-2.70868	0	
0.3147	-1.10535	-4.85908	0	
0.3153	-2.93343	-2.70868	0	
0.3160	-2.93343	-0.578955	0	
0.3167	-5.69681	-1.48874	0	
0.3173	-7.52489	0.330831	0	
0.3180	-6.61085	1.86093	0	
0.3187	-4.16632	-0.889109	0	
0.3193	-4.46392	-3.32899	0	
0.3200	-7.20604	-2.70868	0	
0.3207	-8.43893	-2.4192	0	
0.3213	-8.43893	-0.578955	0	
0.3220	-11.1811	3.08087	0	
0.3227	-13.6256	3.99065	0	
0.3233	-13.6256	2.17108	0	
0.3240	-13.6256	3.08087	0	
0.3247	-11.4786	4.61096	0	
0.3253	-7.82249	2.77071	0	
0.3260	-9.96942	0.95114	0	
0.3267	-13.0091	3.08087	0	
0.3273	-10.267	3.70117	0	
0.3280	-9.96942	3.08087	0	
0.3287	-10.8835	3.99065	0	
0.3293	-4.16632	3.99065	0	
0.3300	3.16726	3.39102	0	
0.3307	4.37889	3.39102	0	
0.3313	4.99534	2.48123	0	
0.3320	6.20697	0.95114	0	
0.3327	5.29293	0.0413539	0	
0.3333	4.0813	-1.79889	0	
0.3340	4.67649	-3.92862	0	
0.3347	4.0813	-2.70868	0	
0.3353	1.63677	1.86093	0	
0.3360	-1.7218	3.70117	0	
0.3367	-3.54988	1.55077	0	
0.3373	-2.01939	-0.2688	0	
0.3380	1.33918	0.0413539	0	
0.3387	2.25322	0.95114	0	
0.3393	1.33918	0.330831	0	
0.3400	1.33918	-0.889109	0	
0.3407	2.55081	-0.889109	0	
0.3413	4.67649	0.0413539	0	
0.3420	5.90938	0.640985	0	
0.3427	4.99534	0.640985	0	
0.3433	3.46485	0.95114	0	
0.3440	3.76245	2.77071	0	
0.3447	4.99534	3.39102	0	
0.3453	5.29293	1.86093	0	
0.3460	5.29293	0.330831	0	
0.3467	7.12101	0.95114	0	
0.3473	10.7984	1.26129	0	
0.3480	9.88439	1.86093	0	
0.3487	6.20697	1.86093	0	
0.3493	5.29293	0.0413539	0	
0.3500	7.12101	-0.578955	0	
0.3507	6.52582	0.640985	0	
0.3513	3.76245	-1.19926	0	
0.3520	3.16726	-3.01883	0	
0.3527	2.55081	-0.578955	0	
0.3533	0.106284	0.0413539	0	
0.3540	-3.54988	-2.4192	0	
0.3547	-6.61085	-1.79889	0	
0.3553	-8.73653	0.640985	0	
0.3560	-11.1811	0.0413539	0	
0.3567	-11.4786	0.95114	0	
0.3573	-9.65057	4.61096	0	
0.3580	-5.69681	4.61096	0	
0.3587	0.72273	2.48123	0	
0.3593	4.99534	0.95114	0	
0.3600	4.37889	-0.2688	0	
0.3607	4.0813	-0.889109	0	
0.3613	7.12101	0.0413539	0	
0.3620	7.12101	0.330831	0	
0.3627	2.84841	0.95114	0	
0.3633	0.403878	3.70117	0	
0.3640	1.63677	4.61096	0	
0.3647	1.63677	1.86093	0	
0.3653	-1.7218	-0.2688	0	
0.3660	-6.61085	-0.2688	0	
0.3667	-7.52489	0.95114	0	
0.3673	-7.52489	2.17108	0	
0.3680	-10.267	0.95114	0	
0.3687	-10.267	0.0413539	0	
0.3693	-7.82249	0.0413539	0	
0.3700	-6.90845	-0.889109	0	
0.3707	-6.61085	-2.70868	0	
0.3713	-3.86873	-3.63914	0	
0.3720	-1.10535	-3.63914	0	
0.3727	0.72273	-3.63914	0	
0.3733	1.63677	-5.45871	0	
0.3740	2.55081	-6.67865	0	
0.3747	6.52582	-5.76887	0	
0.3753	11.7125	-6.3685	0	
0.3760	14.4546	-8.5189	0	
0.3767	16.5803	-8.5189	0	
0.3773	18.1108	-7.29896	0	
0.3780	17.4943	-5.45871	0	
0.3787	16.2827	-3.01883	0	
0.3793	15.6662	-2.70868	0	
0.3800	15.6662	-3.63914	0	
0.3807	13.8381	-3.32899	0	
0.3813	7.73746	-3.01883	0	
0.3820	1.63677	-2.70868	0	
0.3827	-1.10535	0.640985	0	
0.3833	-5.99441	1.86093	0	
0.3840	-12.0951	0.330831	0	
0.3847	-13.328	1.86093	0	
0.3853	-15.7513	4.61096	0	
0.3860	-20.3427	3.99065	0	
0.3867	-20.9379	2.77071	0	
0.3873	-20.3427	3.70117	0	
0.3880	-20.9379	3.70117	0	
0.3887	-16.6653	3.08087	0	
0.3893	-11.7975	2.77071	0	
0.3900	-11.1811	2.48123	0	
0.3907	-5.99441	1.86093	0	
0.3913	4.0813	0.95114	0	
0.3920	8.6515	-0.578955	0	
0.3927	9.56554	-2.4192	0	
0.3933	11.7125	-3.01883	0	
0.3940	12.0101	-0.889109	0	
0.3947	10.182	0.640985	0	
0.3953	9.56554	-0.578955	0	
0.3960	7.12101	-0.889109	0	
0.3967	2.55081	0.640985	0	
0.3973	-0.510162	-0.2688	0	
0.3980	-1.10535	-1.48874	0	
0.3987	-3.54988	-1.48874	0	
0.3993	-6.61085	-0.889109	0	
0.4000	-7.52489	0.640985	0	
0.4007	-8.43893	0.95114	0	
0.4013	-11.1811	-0.2688	0	
0.4020	-13.0091	1.26129	0	
0.4027	-9.35297	3.39102	0	
0.4033	-3.86873	2.17108	0	
0.4040	1.02032	1.86093	0	
0.4047	4.99534	2.77071	0	
0.4053	5.90938	1.55077	0	
0.4060	4.37889	1.26129	0	
0.4067	4.99534	2.77071	0	
0.4073	6.20697	3.08087	0	
0.4080	4.67649	3.08087	0	
0.4087	3.16726	1.86093	0	
0.4093	1.33918	-0.578955	0	
0.4100	-3.54988	0.330831	0	
0.4107	-5.37796	0.330831	0	
0.4113	-2.01939	-2.10905	0	
0.4120	-0.191311	-0.889109	0	
0.4127	0.403878	1.26129	0	
0.4133	3.46485	-3.32899	0	
0.4140	6.82342	-5.76887	0	
0.4147	8.6515	-3.63914	0	
0.4153	8.9491	-4.54893	0	
0.4160	7.12101	-5.14856	0	
0.4167	8.03505	-1.48874	0	
0.4173	12.6265	0.0413539	0	
0.4180	12.6265	-1.79889	0	
0.4187	8.9491	-2.70868	0	
0.4193	6.20697	-2.70868	0	
0.4200	2.55081	-0.578955	0	
0.4207	-0.510162	1.86093	0	
0.4213	-1.10535	0.0413539	0	
0.4220	-5.37796	-3.63914	0	
0.4227	-9.65057	-2.70868	0	
0.4233	-9.35297	0.330831	0	
0.4240	-11.1811	1.86093	0	
0.4247	-15.7513	2.77071	0	
0.4253	-17.6006	4.61096	0	
0.4260	-18.8122	5.52075	0	
0.4267	-16.6653	4.61096	0	
0.4273	-11.4786	4.61096	0	
0.4280	-13.328	4.61096	0	
0.4287	-16.9841	3.08087	0	
0.4293	-11.7975	2.77071	0	
0.4300	-5.69681	2.48123	0	
0.4307	-3.86873	1.86093	0	
0.4313	-0.807757	0.95114	0	
0.4320	3.76245	-1.48874	0	
0.4327	7.43987	-3.63914	0	
0.4333	10.7984	-1.79889	0	
0.4340	11.3936	-1.79889	0	
0.4347	8.9491	-4.54893	0	
0.4353	8.03505	-2.70868	0	
0.4360	8.03505	0.330831	0	
0.4367	5.29293	0.0413539	0	
0.4373	1.63677	-0.2688	0	
0.4380	-0.191311	-1.48874	0	
0.4387	-0.191311	-2.4192	0	
0.4393	-0.807757	-0.2688	0	
0.4400	-1.4242	-1.19926	0	
0.4407	0.106284	-5.14856	0	
0.4413	0.403878	-3.92862	0	
0.4420	0.106284	-1.48874	0	
0.4427	2.55081	-2.70868	0	
0.4433	3.46485	-1.79889	0	
0.4440	0.72273	0.95114	0	
0.4447	0.72273	-0.578955	0	
0.4453	2.55081	-1.79889	0	
0.4460	3.76245	-0.889109	0	
0.4467	7.73746	-0.2688	0	
0.4473	9.88439	0.0413539	0	
0.4480	6.20697	0.0413539	0	
0.4487	2.84841	-2.70868	0	
0.4493	1.93436	-3.01883	0	
0.4500	1.02032	-1.48874	0	
0.4507	2.55081	-2.70868	0	
0.4513	4.0813	-3.32899	0	
0.4520	2.84841	-1.79889	0	
0.4527	3.16726	-1.79889	0	
0.4533	6.20697	-2.4192	0	
0.4540	6.20697	-0.2688	0	
0.4547	3.76245	1.86093	0	
0.4553	5.29293	2.77071	0	
0.4560	4.99534	3.70117	0	
0.4567	-0.191311	3.70117	0	
0.4573	-4.78277	3.99065	0	
0.4580	-5.69681	2.48123	0	
0.4587	-5.99441	-0.889109	0	
0.4593	-5.37796	0.330831	0	
0.4600	-1.10535	2.17108	0	
0.4607	1.02032	-0.578955	0	
0.4613	0.106284	-0.889109	0	
0.4620	1.93436	3.70117	0	
0.4627	4.37889	6.43053	0	
0.4633	3.16726	4.92111	0	
0.4640	2.55081	2.17108	0	
0.4647	7.43987	-0.889109	0	
0.4653	11.3936	-0.889109	0	
0.4660	8.03505	0.330831	0	
0.4667	2.84841	-0.2688	0	
0.4673	0.72273	0.640985	0	
0.4680	-3.86873	3.08087	0	
0.4687	-9.35297	1.86093	0	
0.4693	-10.5646	0.0413539	0	
0.4700	-13.328	0.330831	0	
0.4707	-19.7263	0.640985	0	
0.4713	-21.2568	2.17108	0	
0.4720	-20.0239	5.52075	0	
0.4727	-21.8732	5.52075	0	
0.4733	-21.5544	1.86093	0	
0.4740	-17.6006	0.95114	0	
0.4747	-17.2817	1.86093	0	
0.4753	-14.5396	-0.578955	0	
0.4760	-5.08037	-3.63914	0	
0.4767	1.93436	-3.92862	0	
0.4773	4.67649	-3.01883	0	
0.4780	9.26795	-2.70868	0	
0.4787	14.157	-3.63914	0	
0.4793	17.8132	-4.85908	0	
0.4800	19.9388	-5.14856	0	
0.4807	18.1108	-3.32899	0	
0.4813	15.071	-2.4192	0	
0.4820	14.4546	-3.63914	0	
0.4827	12.0101	-4.23877	0	
0.4833	8.03505	-2.4192	0	
0.4840	6.52582	-0.889109	0	
0.4847	3.46485	-1.48874	0	
0.4853	-2.33824	-2.4192	0	
0.4860	-7.52489	-1.19926	0	
0.4867	-10.8835	1.26129	0	
0.4873	-13.9232	1.55077	0	
0.4880	-14.5396	0.95114	0	
0.4887	-14.8372	1.55077	0	
0.4893	-16.6653	1.86093	0	
0.4900	-16.0701	0.640985	0	
0.4907	-10.8835	0.640985	0	
0.4913	-5.37796	1.26129	0	
0.4920	-2.33824	0.330831	0	
0.4927	0.106284	-0.578955	0	
0.4933	4.37889	-1.48874	0	
0.4940	10.7984	-3.63914	0	
0.4947	17.1967	-3.92862	0	
0.4953	22.9998	-1.79889	0	
0.4960	27.2724	-3.63914	0	
0.4967	28.4841	-5.45871	0	
0.4973	26.656	-2.10905	0	
0.4980	22.7022	0.95114	0	
0.4987	16.2827	-0.889109	0	
0.4993	9.56554	-2.10905	0	
0.5000	5.29293	-1.19926	0	
0.5007	0.72273	-1.79889	0	
0.5013	-6.61085	-2.70868	0	
0.5020	-12.0951	0.0413539	0	
0.5027	-16.3677	3.39102	0	
0.5033	-21.2568	4.92111	0	
0.5040	-24.6153	3.70117	0	
0.5047	-24.9129	3.70117	0	
0.5053	-25.2105	7.65047	0	
0.5060	-25.827	10.111	0	
0.5067	-23.9989	7.65047	0	
0.5073	-20.3427	6.74069	0	
0.5080	-16.0701	7.05084	0	
0.5087	-12.0951	4.61096	0	
0.5093	-8.73653	2.77071	0	
0.5100	-7.20604	3.70117	0	
0.5107	-4.78277	1.26129	0	
0.5113	-1.4242	-1.79889	0	
0.5120	-0.510162	-0.889109	0	
0.5127	-0.191311	-0.889109	0	
0.5133	0.106284	-2.70868	0	
0.5140	-1.10535	-3.63914	0	
0.5147	-1.10535	-3.92862	0	
0.5153	0.72273	-3.63914	0	
0.5160	2.55081	-0.889109	0	
0.5167	7.43987	-1.19926	0	
0.5173	14.157	-3.92862	0	
0.5180	16.8991	-3.63914	0	
0.5187	19.3436	-2.70868	0	
0.5193	22.7022	-4.54893	0	
0.5200	21.4693	-3.92862	0	
0.5207	18.4296	-3.63914	0	
0.5213	17.8132	-5.14856	0	
0.5220	16.5803	-3.63914	0	
0.5227	13.5406	-0.2688	0	
0.5233	9.56554	-0.578955	0	
0.5240	3.16726	-0.889109	0	
0.5247	-2.93343	1.55077	0	
0.5253	-5.08037	2.77071	0	
0.5260	-5.08037	1.55077	0	
0.5267	-5.69681	0.330831	0	
0.5273	-6.292	1.55077	0	
0.5280	-8.12008	1.86093	0	
0.5287	-11.1811	0.95114	0	
0.5293	-10.5646	0.0413539	0	
0.5300	-5.08037	0.0413539	0	
0.5307	-0.807757	-0.2688	0	
0.5313	0.72273	-0.889109	0	
0.5320	3.16726	-2.4192	0	
0.5327	6.52582	-4.54893	0	
0.5333	8.6515	-4.85908	0	
0.5340	9.88439	-4.23877	0	
0.5347	10.7984	-3.63914	0	
0.5353	12.0101	-3.63914	0	
0.5360	15.3686	-4.85908	0	
0.5367	17.1967	-5.45871	0	
0.5373	13.2217	-2.70868	0	
0.5380	7.12101	-0.889109	0	
0.5387	2.84841	-1.79889	0	
0.5393	-0.807757	-0.578955	0	
0.5400	-3.86873	2.77071	0	
0.5407	-4.78277	2.48123	0	
0.5413	-7.82249	1.86093	0	
0.5420	-11.1811	2.77071	0	
0.5427	-12.0951	1.86093	0	
0.5433	-14.8372	0.640985	0	
0.5440	-18.1958	1.86093	0	
0.5447	-17.2817	2.48123	0	
0.5453	-15.7513	2.48123	0	
0.5460	-15.7513	3.08087	0	
0.5467	-10.5646	2.77071	0	
0.5473	-0.510162	1.26129	0	
0.5480	8.03505	0.0413539	0	
0.5487	12.3077	-0.2688	0	
0.5493	12.9241	0.0413539	0	
0.5500	11.7125	0.0413539	0	
0.5507	11.096	-0.2688	0	
0.5513	10.4796	0.95114	0	
0.5520	9.88439	2.48123	0	
0.5527	8.9491	1.55077	0	
0.5533	6.20697	0.0413539	0	
0.5540	3.16726	-0.889109	0	
0.5547	1.33918	-1.79889	0	
0.5553	-2.93343	-2.10905	0	
0.5560	-7.20604	-0.578955	0	
0.5567	-9.05538	1.26129	0	
0.5573	-10.267	2.77071	0	
0.5580	-9.35297	2.17108	0	
0.5587	-4.78277	0.0413539	0	
0.5593	-4.16632	-0.2688	0	
0.5600	-5.37796	0.95114	0	
0.5607	-2.93343	0.95114	0	
0.5613	-1.7218	0.0413539	0	
0.5620	-4.16632	0.330831	0	
0.5627	-5.69681	1.55077	0	
0.5633	-8.12008	3.70117	0	
0.5640	-11.1811	4.61096	0	
0.5647	-11.7975	3.70117	0	
0.5653	-11.7975	3.39102	0	
0.5660	-13.9232	1.86093	0	
0.5667	-13.0091	0.95114	0	
0.5673	-11.7975	3.39102	0	
0.5680	-14.242	5.21059	0	
0.5687	-16.6653	3.08087	0	
0.5693	-16.0701	2.77071	0	
0.5700	-16.6653	3.99065	0	
0.5707	-16.9841	1.86093	0	
0.5713	-13.9232	-1.79889	0	
0.5720	-8.73653	-2.70868	0	
0.5727	-4.78277	-1.79889	0	
0.5733	-1.4242	0.0413539	0	
0.5740	2.55081	0.0413539	0	
0.5747	4.37889	-2.70868	0	
0.5753	5.90938	-2.70868	0	
0.5760	10.7984	-0.889109	0	
0.5767	14.4546	-2.70868	0	
0.5773	14.4546	-3.63914	0	
0.5780	17.4943	-2.10905	0	
0.5787	22.7022	-3.63914	0	
0.5793	21.7669	-6.3685	0	
0.5800	21.4693	-3.63914	0	
0.5807	25.4443	-2.4192	0	
0.5813	23.6163	-6.67865	0	
0.5820	16.8991	-6.3685	0	
0.5827	15.6662	-2.4192	0	
0.5833	15.3686	-1.79889	0	
0.5840	9.88439	-1.79889	0	
0.5847	7.12101	-0.889109	0	
0.5853	5.90938	-2.10905	0	
0.5860	0.72273	-2.70868	0	
0.5867	-4.16632	0.640985	0	
0.5873	-5.69681	0.95114	0	
0.5880	-7.82249	-2.10905	0	
0.5887	-9.65057	-2.70868	0	
0.5893	-9.35297	-1.19926	0	
0.5900	-7.52489	-1.79889	0	
0.5907	-6.292	-3.01883	0	
0.5913	-4.78277	-3.92862	0	
0.5920	-2.93343	-6.07902	0	
0.5927	-1.10535	-6.3685	0	
0.5933	0.403878	-3.32899	0	
0.5940	0.72273	-1.79889	0	
0.5947	-1.10535	-2.70868	0	
0.5953	-3.86873	-1.48874	0	
0.5960	-2.01939	0.0413539	0	
0.5967	1.63677	-1.19926	0	
0.5973	2.55081	-0.889109	0	
0.5980	2.55081	0.95114	0	
0.5987	4.37889	-0.889109	0	
0.5993	5.29293	-1.79889	0	
0.6000	6.52582	1.86093	0	
0.6007	10.7984	2.77071	0	
0.6013	14.4546	0.330831	0	
0.6020	13.2217	0.95114	0	
0.6027	10.182	4.61096	0	
0.6033	8.35391	6.43053	0	
0.6040	4.37889	6.74069	0	
0.6047	-1.10535	5.21059	0	
0.6053	-4.46392	3.39102	0	
0.6060	-4.78277	2.77071	0	
0.6067	-7.82249	2.48123	0	
0.6073	-11.4786	0.95114	0	
0.6080	-12.0951	2.17108	0	
0.6087	-11.4786	2.77071	0	
0.6093	-11.4786	0.330831	0	
0.6100	-10.8835	-0.578955	0	
0.6107	-9.65057	0.95114	0	
0.6113	-7.52489	0.0413539	0	
0.6120	-4.78277	-1.48874	0	
0.6127	-1.4242	-0.2688	0	
0.6133	2.25322	-1.48874	0	
0.6140	3.76245	-2.70868	0	
0.6147	4.37889	0.0413539	0	
0.6153	8.03505	0.95114	0	
0.6160	12.6265	-1.79889	0	
0.6167	13.5406	-1.19926	0	
0.6173	13.5406	1.55077	0	
0.6180	13.5406	0.0413539	0	
0.6187	12.9241	-2.4192	0	
0.6193	12.6265	-0.889109	0	
0.6200	8.03505	1.55077	0	
0.6207	1.63677	1.55077	0	
0.6213	0.72273	0.330831	0	
0.6220	1.93436	0.640985	0	
0.6227	-2.01939	2.77071	0	
0.6233	-6.61085	3.70117	0	
0.6240	-8.12008	3.08087	0	
0.6247	-9.35297	3.08087	0	
0.6253	-10.267	4.61096	0	
0.6260	-9.35297	3.70117	0	
0.6267	-5.99441	0.640985	0	
0.6273	-1.10535	-1.19926	0	
0.6280	0.72273	-0.889109	0	
0.6287	-1.4242	-0.889109	0	
0.6293	-3.54988	-1.79889	0	
0.6300	-4.16632	-3.01883	0	
0.6307	-4.46392	-3.63914	0	
0.6313	-2.01939	-4.54893	0	
0.6320	3.46485	-5.14856	0	
0.6327	7.12101	-5.76887	0	
0.6333	5.61178	-5.45871	0	
0.6340	2.55081	-4.54893	0	
0.6347	1.02032	-3.01883	0	
0.6353	-1.10535	-2.10905	0	
0.6360	-5.99441	-3.01883	0	
0.6367	-11.1811	-2.70868	0	
0.6373	-13.9232	0.95114	0	
0.6380	-15.7513	4.61096	0	
0.6387	-16.9841	5.52075	0	
0.6393	-17.6006	4.92111	0	
0.6400	-18.1958	4.92111	0	
0.6407	-18.8122	6.74069	0	
0.6413	-17.8982	7.65047	0	
0.6420	-14.8372	5.52075	0	
0.6427	-12.0951	3.70117	0	
0.6433	-10.5646	3.99065	0	
0.6440	-5.69681	4.92111	0	
0.6447	1.63677	4.61096	0	
0.6453	4.0813	2.77071	0	
0.6460	3.76245	0.330831	0	
0.6467	5.90938	0.640985	0	
0.6473	8.03505	1.86093	0	
0.6480	8.9491	0.0413539	0	
0.6487	10.7984	-2.10905	0	
0.6493	11.3936	-1.79889	0	
0.6500	10.182	-2.70868	0	
0.6507	10.7984	-6.67865	0	
0.6513	12.0101	-7.29896	0	
0.6520	14.7522	-3.63914	0	
0.6527	16.2827	-2.10905	0	
0.6533	12.6265	-4.23877	0	
0.6540	11.3936	-6.67865	0	
0.6547	17.4943	-5.45871	0	
0.6553	21.1717	-3.63914	0	
0.6560	18.4296	-3.92862	0	
0.6567	17.1967	-6.3685	0	
0.6573	19.9388	-4.54893	0	
0.6580	22.0858	-1.19926	0	
0.6587	22.0858	-0.889109	0	
0.6593	19.0248	-0.2688	0	
0.6600	15.6662	0.330831	0	
0.6607	14.157	-2.70868	0	
0.6613	11.096	-4.54893	0	
0.6620	7.12101	-1.19926	0	
0.6627	2.55081	1.26129	0	
0.6633	-4.46392	0.95114	0	
0.6640	-12.0951	2.17108	0	
0.6647	-15.7513	4.92111	0	
0.6653	-18.5146	5.8309	0	
0.6660	-22.1708	6.14105	0	
0.6667	-25.827	5.52075	0	
0.6673	-28.2715	3.99065	0	
0.6680	-27.9739	2.48123	0	
0.6687	-23.0848	1.26129	0	
0.6693	-15.7513	1.26129	0	
0.6700	-9.35297	1.86093	0	
0.6707	-3.86873	1.55077	0	
0.6713	1.63677	1.26129	0	
0.6720	4.99534	0.95114	0	
0.6727	7.12101	-0.578955	0	
0.6733	11.7125	-1.79889	0	
0.6740	14.7522	-2.10905	0	
0.6747	12.9241	-3.32899	0	
0.6753	10.7984	-3.92862	0	
0.6760	10.7984	-3.01883	0	
0.6767	7.12101	-2.4192	0	
0.6773	1.93436	-2.70868	0	
0.6780	-3.86873	-2.70868	0	
0.6787	-11.1811	-0.889109	0	
0.6793	-15.1561	1.55077	0	
0.6800	-17.2817	2.77071	0	
0.6807	-24.6153	3.70117	0	
0.6813	-28.8879	5.52075	0	
0.6820	-24.9129	7.05084	0	
0.6827	-24.9129	6.43053	0	
0.6833	-28.5691	6.43053	0	
0.6840	-25.827	8.58093	0	
0.6847	-21.2568	7.96063	0	
0.6853	-17.2817	4.30081	0	
0.6860	-12.0951	1.26129	0	
0.6867	-10.5646	2.17108	0	
0.6873	-8.73653	2.77071	0	
0.6880	-1.10535	0.0413539	0	
0.6887	4.37889	-2.4192	0	
0.6893	6.20697	-3.92862	0	
0.6900	8.9491	-6.98881	0	
0.6907	11.096	-7.29896	0	
0.6913	11.096	-5.76887	0	
0.6920	13.5406	-7.29896	0	
0.6927	15.3686	-9.11853	0	
0.6933	15.3686	-8.5189	0	
0.6940	17.4943	-7.29896	0	
0.6947	16.5803	-5.45871	0	
0.6953	10.7984	-3.01883	0	
0.6960	6.82342	-2.4192	0	
0.6967	4.67649	-1.79889	0	
0.6973	0.72273	0.95114	0	
0.6980	-2.63584	1.26129	0	
0.6987	-3.86873	0.0413539	0	
0.6993	-5.99441	0.0413539	0	
0.7000	-8.43893	-0.2688	0	
0.7007	-7.52489	-2.4192	0	
0.7013	-6.61085	-2.10905	0	
0.7020	-6.61085	0.95114	0	
0.7027	-3.86873	3.39102	0	
0.7033	1.63677	3.08087	0	
0.7040	6.20697	1.86093	0	
0.7047	9.88439	2.77071	0	
0.7053	10.7984	3.39102	0	
0.7060	8.6515	1.86093	0	
0.7067	7.43987	0.640985	0	
0.7073	7.73746	1.86093	0	
0.7080	5.29293	2.48123	0	
0.7087	2.25322	0.95114	0	
0.7093	1.02032	0.95114	0	
0.7100	-1.10535	1.86093	0	
0.7107	-2.93343	2.77071	0	
0.7113	0.403878	3.39102	0	
0.7120	8.6515	1.55077	0	
0.7127	14.4546	-0.889109	0	
0.7133	15.6662	-0.889109	0	
0.7140	17.4943	-0.889109	0	
0.7147	22.9998	-4.54893	0	
0.7153	26.0395	-7.58844	0	
0.7160	24.5303	-5.14856	0	
0.7167	22.3834	-2.70868	0	
0.7173	18.1108	-3.92862	0	
0.7180	12.0101	-5.45871	0	
0.7187	10.4796	-5.14856	0	
0.7193	13.2217	-3.92862	0	
0.7200	12.6265	-2.70868	0	
0.7207	6.52582	-2.10905	0	
0.7213	-1.10535	-2.10905	0	
0.7220	-8.12008	-2.10905	0	
0.7227	-14.242	-1.19926	0	
0.7233	-18.5146	0.95114	0	
0.7240	-18.5146	2.77071	0	
0.7247	-16.6653	1.55077	0	
0.7253	-18.5146	-0.889109	0	
0.7260	-20.0239	0.0413539	0	
0.7267	-18.5146	2.48123	0	
0.7273	-18.1958	2.17108	0	
0.7280	-19.4287	2.17108	0	
0.7287	-16.6653	3.70117	0	
0.7293	-15.7513	3.08087	0	
0.7300	-17.6006	2.77071	0	
0.7307	-14.8372	7.36099	0	
0.7313	-9.35297	11.0208	0	
0.7320	-5.69681	10.4005	0	
0.7327	-2.01939	8.58093	0	
0.7333	0.72273	7.65047	0	
0.7340	-0.191311	6.43053	0	
0.7347	-0.191311	4.61096	0	
0.7353	1.93436	2.17108	0	
0.7360	4.37889	0.0413539	0	
0.7367	6.52582	-0.889109	0	
0.7373	5.29293	-0.2688	0	
0.7380	2.55081	-0.2688	0	
0.7387	1.63677	-1.19926	0	
0.7393	1.63677	-0.889109	0	
0.7400	1.02032	0.330831	0	
0.7407	0.72273	-0.889109	0	
0.7413	0.72273	-3.32899	0	
0.7420	3.16726	-3.32899	0	
0.7427	6.20697	-1.19926	0	
0.7433	3.46485	0.330831	0	
0.7440	1.33918	0.95114	0	
0.7447	2.55081	0.95114	0	
0.7453	1.33918	0.0413539	0	
0.7460	-0.191311	0.0413539	0	
0.7467	-0.510162	0.95114	0	
0.7473	-4.78277	0.95114	0	
0.7480	-9.35297	-0.2688	0	
0.7487	-7.52489	-1.19926	0	
0.7493	-7.82249	-1.48874	0	
0.7500	-11.7975	-0.889109	0	
0.7507	-12.0951	-0.578955	0	
0.7513	-10.8835	-2.70868	0	
0.7520	-11.4786	-4.85908	0	
0.7527	-10.8835	-2.70868	0	
0.7533	-7.82249	0.95114	0	
0.7540	-4.46392	-0.889109	0	
0.7547	-2.93343	-2.10905	0	
0.7553	-3.86873	1.26129	0	
0.7560	-2.93343	3.08087	0	
0.7567	1.02032	1.86093	0	
0.7573	2.55081	1.55077	0	
0.7580	3.16726	1.86093	0	
0.7587	4.99534	0.0413539	0	
0.7593	6.20697	-2.70868	0	
0.7600	5.90938	-3.32899	0	
0.7607	7.43987	-3.01883	0	
0.7613	9.88439	-4.85908	0	
0.7620	10.4796	-6.67865	0	
0.7627	9.88439	-3.63914	0	
0.7633	10.7984	-0.889109	0	
0.7640	11.7125	-2.70868	0	
0.7647	10.182	-3.63914	0	
0.7653	8.03505	-2.70868	0	
0.7660	7.43987	-3.01883	0	
0.7667	7.12101	-1.79889	0	
0.7673	4.99534	0.0413539	0	
0.7680	1.63677	0.640985	0	
0.7687	-2.01939	2.48123	0	
0.7693	-5.69681	3.70117	0	
0.7700	-4.46392	1.86093	0	
0.7707	1.02032	1.86093	0	
0.7713	6.20697	1.86093	0	
0.7720	10.4796	-1.79889	0	
0.7727	15.3686	-3.63914	0	
0.7733	18.1108	-3.63914	0	
0.7740	18.4296	-6.3685	0	
0.7747	18.1108	-8.5189	0	
0.7753	17.1967	-7.29896	0	
0.7760	17.4943	-6.3685	0	
0.7767	22.3834	-6.07902	0	
0.7773	26.3584	-7.29896	0	
0.7780	25.4443	-9.11853	0	
0.7787	23.6163	-7.89859	0	
0.7793	21.7669	-5.45871	0	
0.7800	15.3686	-5.45871	0	
0.7807	6.20697	-4.85908	0	
0.7813	-0.191311	-1.79889	0	
0.7820	-4.78277	0.640985	0	
0.7827	-9.96942	0.640985	0	
0.7833	-16.6653	0.95114	0	
0.7840	-23.0848	2.48123	0	
0.7847	-28.5691	4.61096	0	
0.7853	-33.1605	6.43053	0	
0.7860	-36.5191	8.58093	0	
0.7867	-38.6448	10.111	0	
0.7873	-40.7917	9.49072	0	
0.7880	-40.7917	9.80087	0	
0.7887	-35.9027	10.111	0	
0.7893	-29.4831	8.27078	0	
0.7900	-25.2105	8.89109	0	
0.7907	-20.9379	12.2408	0	
0.7913	-15.1561	10.7107	0	
0.7920	-9.65057	5.8309	0	
0.7927	-5.69681	4.61096	0	
0.7933	-2.93343	4.61096	0	
0.7940	-1.10535	3.70117	0	
0.7947	-0.807757	4.92111	0	
0.7953	-1.10535	3.39102	0	
0.7960	-1.10535	-1.79889	0	
0.7967	-1.7218	-0.889109	0	
0.7973	-2.93343	3.08087	0	
0.7980	-2.63584	-0.2688	0	
0.7987	0.72273	-3.32899	0	
0.7993	2.25322	0.0413539	0	
0.8000	2.55081	0.330831	0	
0.8007	4.99534	-2.4192	0	
0.8013	5.29293	-0.578955	0	
0.8020	2.84841	0.330831	0	
0.8027	2.84841	-1.48874	0	
0.8033	4.99534	1.55077	0	
0.8040	6.20697	4.92111	0	
0.8047	5.90938	2.17108	0	
0.8053	5.29293	-0.2688	0	
0.8060	4.37889	0.330831	0	
0.8067	2.84841	0.95114	0	
0.8073	1.33918	0.330831	0	
0.8080	2.25322	0.0413539	0	
0.8087	4.0813	-1.48874	0	
0.8093	4.37889	-3.32899	0	
0.8100	6.20697	-3.63914	0	
0.8107	8.9491	-2.4192	0	
0.8113	7.73746	-1.48874	0	
0.8120	4.67649	-3.32899	0	
0.8127	5.61178	-5.76887	0	
0.8133	6.20697	-5.76887	0	
0.8140	6.20697	-4.54893	0	
0.8147	8.35391	-3.32899	0	
0.8153	7.43987	-2.70868	0	
0.8160	4.99534	-2.70868	0	
0.8167	5.90938	-3.63914	0	
0.8173	8.03505	-3.32899	0	
0.8180	11.096	-3.01883	0	
0.8187	14.7522	-4.54893	0	
0.8193	15.9851	-3.92862	0	
0.8200	15.071	-0.889109	0	
0.8207	12.6265	-0.889109	0	
0.8213	8.03505	-2.70868	0	
0.8220	4.37889	-0.578955	0	
0.8227	1.63677	0.0413539	0	
0.8233	-3.86873	-1.79889	0	
0.8240	-5.69681	-1.79889	0	
0.8247	-4.16632	-2.10905	0	
0.8253	-8.43893	-3.01883	0	
0.8260	-13.6256	-0.889109	0	
0.8267	-11.7975	1.26129	0	
0.8273	-9.35297	1.26129	0	
0.8280	-10.267	1.55077	0	
0.8287	-8.43893	-0.2688	0	
0.8293	-5.69681	-2.70868	0	
0.8300	-4.78277	-0.889109	0	
0.8307	-2.33824	0.0413539	0	
0.8313	3.46485	-3.63914	0	
0.8320	9.88439	-6.07902	0	
0.8327	9.56554	-5.45871	0	
0.8333	4.99534	-3.92862	0	
0.8340	4.37889	-2.10905	0	
0.8347	5.29293	-0.2688	0	
0.8353	2.55081	0.640985	0	
0.8360	0.403878	0.95114	0	
0.8367	-1.7218	0.0413539	0	
0.8373	-8.43893	0.95114	0	
0.8380	-15.4537	4.61096	0	
0.8387	-16.9841	7.36099	0	
0.8393	-16.3677	7.36099	0	
0.8400	-16.6653	5.52075	0	
0.8407	-15.1561	3.39102	0	
0.8413	-10.267	2.77071	0	
0.8420	-2.93343	6.14105	0	
0.8427	1.93436	8.27078	0	
0.8433	2.55081	6.43053	0	
0.8440	4.67649	5.52075	0	
0.8447	7.43987	5.52075	0	
0.8453	8.03505	5.21059	0	
0.8460	8.03505	5.52075	0	
0.8467	9.88439	4.61096	0	
0.8473	10.182	2.17108	0	
0.8480	8.9491	3.08087	0	
0.8487	7.12101	3.70117	0	
0.8493	1.63677	0.95114	0	
0.8500	-4.46392	0.640985	0	
0.8507	-4.16632	2.48123	0	
0.8513	-4.78277	0.95114	0	
0.8520	-10.8835	-0.889109	0	
0.8527	-15.1561	-0.578955	0	
0.8533	-12.3927	-2.70868	0	
0.8540	-9.96942	-4.85908	0	
0.8547	-9.96942	-4.54893	0	
0.8553	-9.96942	-3.92862	0	
0.8560	-8.73653	-3.63914	0	
0.8567	-5.99441	-3.63914	0	
0.8573	-4.46392	-4.23877	0	
0.8580	-5.37796	-2.70868	0	
0.8587	-5.99441	-1.79889	0	
0.8593	-5.69681	-3.63914	0	
0.8600	-7.82249	-2.4192	0	
0.8607	-10.8835	1.55077	0	
0.8613	-10.5646	0.640985	0	
0.8620	-8.43893	-0.889109	0	
0.8627	-5.37796	1.55077	0	
0.8633	-3.54988	2.17108	0	
0.8640	-3.86873	1.55077	0	
0.8647	-2.63584	2.17108	0	
0.8653	-0.191311	1.86093	0	
0.8660	-0.191311	1.86093	0	
0.8667	-1.7218	3.99065	0	
0.8673	-0.191311	3.99065	0	
0.8680	2.55081	0.95114	0	
0.8687	4.37889	0.95114	0	
0.8693	5.90938	1.86093	0	
0.8700	7.12101	-0.889109	0	
0.8707	4.0813	-3.63914	0	
0.8713	1.93436	-3.63914	0	
0.8720	6.20697	-4.85908	0	
0.8727	11.7125	-7.29896	0	
0.8733	12.6265	-8.82906	0	
0.8740	12.3077	-8.82906	0	
0.8747	13.5406	-6.67865	0	
0.8753	14.4546	-3.63914	0	
0.8760	16.8991	-3.92862	0	
0.8767	20.5553	-8.82906	0	
0.8773	21.4693	-9.11853	0	
0.8780	20.5553	-5.76887	0	
0.8787	21.4693	-6.67865	0	
0.8793	19.6412	-8.20875	0	
0.8800	12.6265	-5.76887	0	
0.8807	9.26795	-4.23877	0	
0.8813	12.6265	-4.85908	0	
0.8820	13.5406	-3.92862	0	
0.8827	11.7125	-3.01883	0	
0.8833	12.6265	-3.01883	0	
0.8840	11.096	-0.578955	0	
0.8847	5.61178	2.48123	0	
0.8853	2.55081	0.330831	0	
0.8860	-1.10535	-0.889109	0	
0.8867	-6.90845	3.70117	0	
0.8873	-10.5646	4.92111	0	
0.8880	-13.0091	0.0413539	0	
0.8887	-17.6006	0.640985	0	
0.8893	-19.4287	2.77071	0	
0.8900	-19.7263	0.0413539	0	
0.8907	-20.6403	-1.48874	0	
0.8913	-18.5146	0.0413539	0	
0.8920	-14.8372	-1.79889	0	
0.8927	-15.7513	-2.70868	0	
0.8933	-18.1958	-0.889109	0	
0.8940	-18.8122	-1.79889	0	
0.8947	-18.5146	-2.70868	0	
0.8953	-15.7513	-0.889109	0	
0.8960	-13.0091	1.86093	0	
0.8967	-13.328	3.99065	0	
0.8973	-10.5646	4.61096	0	
0.8980	-5.69681	4.61096	0	
0.8987	-5.37796	6.43053	0	
0.8993	-5.08037	5.52075	0	
0.9000	-0.807757	0.95114	0	
0.9007	3.46485	0.640985	0	
0.9013	8.9491	1.55077	0	
0.9020	15.3686	-1.48874	0	
0.9027	16.5803	-2.10905	0	
0.9033	16.8991	0.95114	0	
0.9040	19.0248	1.86093	0	
0.9047	17.4943	0.0413539	0	
0.9053	15.3686	-0.889109	0	
0.9060	15.9851	-0.889109	0	
0.9067	13.5406	0.95114	0	
0.9073	7.43987	0.640985	0	
0.9080	6.20697	-2.10905	0	
0.9087	6.82342	-1.79889	0	
0.9093	4.37889	0.0413539	0	
0.9100	-0.191311	0.0413539	0	
0.9107	-4.46392	-0.2688	0	
0.9113	-9.35297	-0.889109	0	
0.9120	-13.9232	0.640985	0	
0.9127	-16.9841	3.70117	0	
0.9133	-16.6653	3.70117	0	
0.9140	-14.5396	0.330831	0	
0.9147	-12.3927	-0.889109	0	
0.9153	-11.4786	-2.4192	0	
0.9160	-11.7975	-3.63914	0	
0.9167	-13.0091	-0.2688	0	
0.9173	-14.5396	2.77071	0	
0.9180	-13.9232	0.95114	0	
0.9187	-12.7115	1.26129	0	
0.9193	-11.7975	3.70117	0	
0.9200	-10.267	3.70117	0	
0.9207	-7.52489	3.08087	0	
0.9213	-4.16632	3.70117	0	
0.9220	-1.10535	3.70117	0	
0.9227	3.46485	4.30081	0	
0.9233	8.6515	5.52075	0	
0.9240	9.88439	4.30081	0	
0.9247	9.88439	0.95114	0	
0.9253	13.5406	-0.2688	0	
0.9260	17.8132	-0.2688	0	
0.9267	19.0248	-2.10905	0	
0.9273	17.8132	-3.63914	0	
0.9280	16.2827	-3.63914	0	
0.9287	16.2827	-3.32899	0	
0.9293	16.2827	-3.63914	0	
0.9300	14.4546	-2.70868	0	
0.9307	11.7125	-1.79889	0	
0.9313	7.12101	-2.70868	0	
0.9320	2.55081	-2.70868	0	
0.9327	-0.191311	-2.70868	0	
0.9333	-2.01939	-2.70868	0	
0.9340	-5.69681	-1.19926	0	
0.9347	-7.52489	0.0413539	0	
0.9353	-7.52489	-0.578955	0	
0.9360	-9.05538	1.55077	0	
0.9367	-8.43893	4.61096	0	
0.9373	-6.61085	3.39102	0	
0.9380	-7.82249	0.330831	0	
0.9387	-9.35297	-0.2688	0	
0.9393	-5.69681	-1.19926	0	
0.9400	-2.01939	-1.79889	0	
0.9407	-1.7218	-1.19926	0	
0.9413	-1.10535	-1.19926	0	
0.9420	0.72273	0.640985	0	
0.9427	3.16726	3.08087	0	
0.9433	5.29293	2.17108	0	
0.9440	7.73746	-0.2688	0	
0.9447	12.3077	-0.2688	0	
0.9453	18.1108	-1.19926	0	
0.9460	20.8529	-3.01883	0	
0.9467	20.2577	-1.79889	0	
0.9473	17.4943	0.0413539	0	
0.9480	15.6662	-1.48874	0	
0.9487	15.9851	-2.10905	0	
0.9493	14.4546	-2.4192	0	
0.9500	9.88439	-3.92862	0	
0.9507	5.61178	-4.54893	0	
0.9513	3.16726	-3.63914	0	
0.9520	-1.10535	-3.92862	0	
0.9527	-4.16632	-4.54893	0	
0.9533	-2.63584	-3.32899	0	
0.9540	0.403878	-2.70868	0	
0.9547	1.63677	-3.32899	0	
0.9553	2.25322	-3.63914	0	
0.9560	2.55081	-4.85908	0	
0.9567	4.0813	-5.45871	0	
0.9573	5.61178	-3.01883	0	
0.9580	5.90938	-0.889109	0	
0.9587	7.12101	-2.10905	0	
0.9593	7.73746	-1.79889	0	
0.9600	2.84841	0.95114	0	
0.9607	-2.33824	1.86093	0	
0.9613	-2.93343	2.17108	0	
0.9620	-5.37796	5.8309	0	
0.9627	-13.9232	9.18056	0	
0.9633	-18.8122	8.27078	0	
0.9640	-18.5146	7.36099	0	
0.9647	-19.4287	8.89109	0	
0.9653	-20.0239	8.58093	0	
0.9660	-17.8982	5.21059	0	
0.9667	-15.7513	3.70117	0	
0.9673	-15.4537	5.21059	0	
0.9680	-14.8372	6.43053	0	
0.9687	-10.5646	6.43053	0	
0.9693	-0.510162	4.92111	0	
0.9700	9.56554	1.26129	0	
0.9707	12.9241	-0.889109	0	
0.9713	11.3936	-1.19926	0	
0.9720	10.7984	-2.10905	0	
0.9727	11.7125	-2.4192	0	
0.9733	11.096	-1.79889	0	
0.9740	8.9491	-3.63914	0	
0.9747	6.82342	-6.3685	0	
0.9753	3.76245	-5.14856	0	
0.9760	-0.807757	-2.4192	0	
0.9767	-5.69681	-2.70868	0	
0.9773	-9.35297	-3.63914	0	
0.9780	-10.5646	-1.48874	0	
0.9787	-9.65057	0.0413539	0	
0.9793	-12.3927	0.0413539	0	
0.9800	-16.9841	0.330831	0	
0.9807	-14.8372	0.95114	0	
0.9813	-9.35297	1.26129	0	
0.9820	-7.20604	3.08087	0	
0.9827	-2.33824	4.61096	0	
0.9833	3.76245	2.48123	0	
0.9840	4.37889	0.640985	0	
0.9847	1.63677	1.86093	0	
0.9853	0.72273	1.86093	0	
0.9860	-1.4242	0.0413539	0	
0.9867	-3.86873	-1.19926	0	
0.9873	-4.16632	-1.48874	0	
0.9880	-4.46392	0.0413539	0	
0.9887	-7.20604	2.77071	0	
0.9893	-12.0951	2.77071	0	
0.9900	-17.2817	2.48123	0	
0.9907	-19.1098	1.26129	0	
0.9913	-15.7513	-1.79889	0	
0.9920	-13.0091	-1.48874	0	
0.9927	-14.242	1.86093	0	
0.9933	-13.9232	0.95114	0	
0.9940	-9.65057	-0.2688	0	
0.9947	-7.52489	2.17108	0	
0.9953	-7.52489	3.70117	0	
0.9960	-6.90845	2.77071	0	
0.9967	-6.61085	2.77071	0	
0.9973	-5.69681	3.99065	0	
0.9980	-1.4242	4.92111	0	
0.9987	1.33918	5.52075	0	
0.9993	0.72273	3.70117	0	
1.0000	3.46485	2.77071	0	
1.0007	8.9491	3.99065	0	
1.0013	8.9491	3.99065	0	
1.0020	6.20697	3.39102	0	
1.0027	9.88439	4.61096	0	
1.0033	14.4546	3.99065	0	
1.0040	14.4546	1.86093	0	
1.0047	14.4546	1.86093	0	
1.0053	16.5803	2.17108	0	
1.0060	16.5803	0.0413539	0	
1.0067	14.7522	-0.578955	0	
1.0073	14.4546	0.95114	0	
1.0080	14.157	0.330831	0	
1.0087	12.6265	-1.79889	0	
1.0093	10.4796	-2.70868	0	
1.0100	9.88439	-3.92862	0	
1.0107	10.182	-6.98881	0	
1.0113	9.88439	-7.58844	0	
1.0120	8.03505	-4.54893	0	
1.0127	8.03505	-3.63914	0	
1.0133	11.096	-6.07902	0	
1.0140	11.3936	-7.89859	0	
1.0147	8.03505	-6.3685	0	
1.0153	5.90938	-4.23877	0	
1.0160	6.20697	-3.01883	0	
1.0167	5.29293	-1.48874	0	
1.0173	4.0813	-0.889109	0	
1.0180	3.76245	-0.2688	0	
1.0187	2.84841	1.26129	0	
1.0193	1.02032	0.95114	0	
1.0200	-1.10535	0.0413539	0	
1.0207	-3.86873	1.86093	0	
1.0213	-4.78277	2.17108	0	
1.0220	-2.93343	0.640985	0	
1.0227	-2.01939	0.0413539	0	
1.0233	-2.63584	-0.889109	0	
1.0240	-0.191311	-2.70868	0	
1.0247	2.84841	-3.32899	0	
1.0253	2.55081	-2.70868	0	
1.0260	1.93436	-1.19926	0	
1.0267	5.29293	-0.578955	0	
1.0273	6.20697	-2.70868	0	
1.0280	1.93436	-3.92862	0	
1.0287	2.25322	-1.79889	0	
1.0293	5.90938	-0.578955	0	
1.0300	3.16726	-2.70868	0	
1.0307	-0.807757	-2.70868	0	
1.0313	-0.191311	-0.889109	0	
1.0320	-4.46392	-1.19926	0	
1.0327	-11.7975	-2.70868	0	
1.0333	-13.0091	-1.19926	0	
1.0340	-13.6256	1.86093	0	
1.0347	-17.6006	4.92111	0	
1.0353	-17.6006	6.14105	0	
1.0360	-17.6006	6.43053	0	
1.0367	-21.2568	7.65047	0	
1.0373	-20.6403	6.43053	0	
1.0380	-16.0701	2.77071	0	
1.0387	-15.4537	1.55077	0	
1.0393	-13.0091	3.99065	0	
1.0400	-6.292	3.70117	0	
1.0407	-3.54988	0.640985	0	
1.0413	-4.78277	0.0413539	0	
1.0420	-3.54988	0.95114	0	
1.0427	-1.10535	1.26129	0	
1.0433	2.55081	-0.2688	0	
1.0440	10.4796	-1.48874	0	
1.0447	18.1108	-1.48874	0	
1.0453	22.7022	-2.70868	0	
1.0460	22.7022	-5.45871	0	
1.0467	19.0248	-4.54893	0	
1.0473	17.4943	-2.10905	0	
1.0480	19.3436	-1.79889	0	
1.0487	19.0248	-3.63914	0	
1.0493	15.3686	-3.92862	0	
1.0500	12.3077	-2.4192	0	
1.0507	8.35391	-1.79889	0	
1.0513	2.84841	-3.63914	0	
1.0520	-1.7218	-3.32899	0	
1.0527	-5.69681	-0.889109	0	
1.0533	-9.05538	-0.578955	0	
1.0540	-11.4786	0.330831	0	
1.0547	-13.9232	3.70117	0	
1.0553	-15.1561	3.70117	0	
1.0560	-16.3677	1.26129	0	
1.0567	-16.9841	0.95114	0	
1.0573	-14.8372	1.26129	0	
1.0580	-12.7115	0.95114	0	
1.0587	-14.242	2.77071	0	
1.0593	-13.6256	3.99065	0	
1.0600	-7.82249	2.77071	0	
1.0607	-4.78277	2.17108	0	
1.0613	-4.78277	2.77071	0	
1.0620	-1.10535	3.70117	0	
1.0627	2.55081	4.61096	0	
1.0633	2.25322	2.77071	0	
1.0640	-0.191311	0.95114	0	
1.0647	-0.191311	2.17108	0	
1.0653	-0.510162	3.08087	0	
1.0660	-2.01939	2.17108	0	
1.0667	-1.4242	0.330831	0	
1.0673	0.72273	0.0413539	0	
1.0680	-0.510162	1.55077	0	
1.0687	-5.37796	1.55077	0	
1.0693	-9.65057	0.95114	0	
1.0700	-9.65057	2.77071	0	
1.0707	-7.52489	3.39102	0	
1.0713	-9.35297	0.95114	0	
1.0720	-11.7975	1.86093	0	
1.0727	-10.267	3.39102	0	
1.0733	-8.43893	1.26129	0	
1.0740	-8.12008	-0.2688	0	
1.0747	-5.69681	0.0413539	0	
1.0753	-4.16632	0.0413539	0	
1.0760	-6.61085	-0.2688	0	
1.0767	-6.90845	-0.889109	0	
1.0773	-3.54988	0.0413539	0	
1.0780	-0.510162	2.17108	0	
1.0787	2.84841	-0.2688	0	
1.0793	8.03505	-3.32899	0	
1.0800	10.7984	-2.70868	0	
1.0807	12.6265	-5.45871	0	
1.0813	18.1108	-10.049	0	
1.0820	22.9998	-5.45871	0	
1.0827	21.7669	0.0413539	0	
1.0833	20.2577	-3.01883	0	
1.0840	22.7022	-4.54893	0	
1.0847	22.7022	-3.63914	0	
1.0853	17.8132	-4.54893	0	
1.0860	12.9241	-3.63914	0	
1.0867	9.26795	-1.48874	0	
1.0873	5.61178	-1.19926	0	
1.0880	2.55081	-0.2688	0	
1.0887	-1.4242	1.26129	0	
1.0893	-6.292	0.640985	0	
1.0900	-9.35297	1.55077	0	
1.0907	-10.5646	4.61096	0	
1.0913	-11.7975	3.39102	0	
1.0920	-12.0951	1.86093	0	
1.0927	-10.267	2.17108	0	
1.0933	-6.292	0.640985	0	
1.0940	2.25322	-1.79889	0	
1.0947	14.4546	-2.4192	0	
1.0953	22.9998	-3.63914	0	
1.0960	25.4443	-5.45871	0	
1.0967	26.9748	-5.76887	0	
1.0973	29.3981	-6.3685	0	
1.0980	27.2724	-7.58844	0	
1.0987	22.0858	-6.3685	0	
1.0993	15.3686	-5.45871	0	
1.1000	6.20697	-5.45871	0	
1.1007	-2.01939	-4.23877	0	
1.1013	-5.99441	-2.70868	0	
1.1020	-9.35297	-2.4192	0	
1.1027	-16.0701	0.95114	0	
1.1033	-22.1708	3.70117	0	
1.1040	-24.2965	1.55077	0	
1.1047	-27.0599	0.0413539	0	
1.1053	-32.2465	1.86093	0	
1.1060	-35.2862	1.55077	0	
1.1067	-34.9886	1.86093	0	
1.1073	-34.3722	6.43053	0	
1.1080	-32.5441	8.58093	0	
1.1087	-27.3574	6.43053	0	
1.1093	-22.4684	6.14105	0	
1.1100	-18.8122	5.8309	0	
1.1107	-13.6256	3.99065	0	
1.1113	-7.52489	3.39102	0	
1.1120	-3.54988	0.640985	0	
1.1127	-1.10535	-3.32899	0	
1.1133	1.63677	-1.79889	0	
1.1140	5.29293	1.26129	0	
1.1147	9.88439	1.55077	0	
1.1153	13.5406	1.55077	0	
1.1160	16.5803	0.330831	0	
1.1167	18.7272	-5.14856	0	
1.1173	19.0248	-8.20875	0	
1.1180	21.4693	-4.23877	0	
1.1187	26.0395	-1.79889	0	
1.1193	27.2724	-5.76887	0	
1.1200	25.4443	-10.3385	0	
1.1207	23.2974	-9.11853	0	
1.1213	19.3436	-4.54893	0	
1.1220	12.6265	-1.79889	0	
1.1227	7.12101	-1.48874	0	
1.1233	4.67649	-0.889109	0	
1.1240	2.55081	0.95114	0	
1.1247	-2.63584	1.26129	0	
1.1253	-8.43893	0.0413539	0	
1.1260	-10.8835	0.0413539	0	
1.1267	-10.267	1.86093	0	
1.1273	-13.9232	4.30081	0	
1.1280	-18.5146	4.61096	0	
1.1287	-16.6653	3.08087	0	
1.1293	-13.0091	2.17108	0	
1.1300	-10.8835	3.08087	0	
1.1307	-8.12008	3.08087	0	
1.1313	-6.61085	1.86093	0	
1.1320	-4.78277	0.95114	0	
1.1327	0.403878	-1.19926	0	
1.1333	2.55081	-5.45871	0	
1.1340	-0.191311	-6.07902	0	
1.1347	-0.510162	-2.70868	0	
1.1353	1.02032	-2.4192	0	
1.1360	2.55081	-5.45871	0	
1.1367	5.61178	-5.45871	0	
1.1373	8.9491	-2.70868	0	
1.1380	8.9491	-1.79889	0	
1.1387	7.43987	-2.4192	0	
1.1393	7.12101	-1.79889	0	
1.1400	8.03505	-0.889109	0	
1.1407	7.12101	-0.889109	0	
1.1413	2.84841	-0.578955	0	
1.1420	-0.510162	1.86093	0	
1.1427	-2.01939	2.77071	0	
1.1433	-6.292	0.95114	0	
1.1440	-10.5646	-0.889109	0	
1.1447	-12.3927	-0.889109	0	
1.1453	-14.242	0.0413539	0	
1.1460	-14.8372	0.95114	0	
1.1467	-13.0091	0.95114	0	
1.1473	-15.1561	0.330831	0	
1.1480	-18.1958	1.86093	0	
1.1487	-16.6653	3.70117	0	
1.1493	-14.8372	2.17108	0	
1.1500	-14.8372	-0.578955	0	
1.1507	-9.35297	0.330831	0	
1.1513	-1.10535	2.17108	0	
1.1520	2.55081	0.330831	0	
1.1527	2.84841	-2.70868	0	
1.1533	3.76245	-4.54893	0	
1.1540	4.67649	-4.23877	0	
1.1547	7.12101	-3.63914	0	
1.1553	12.3077	-3.32899	0	
1.1560	14.7522	-4.54893	0	
1.1567	15.071	-5.45871	0	
1.1573	18.4296	-4.54893	0	
1.1580	21.4693	-2.4192	0	
1.1587	19.3436	-1.79889	0	
1.1593	17.1967	-3.63914	0	
1.1600	17.8132	-5.14856	0	
1.1607	15.6662	-1.79889	0	
1.1613	11.7125	2.77071	0	
1.1620	10.182	3.08087	0	
1.1627	8.6515	0.640985	0	
1.1633	5.90938	0.95114	0	
1.1640	3.16726	2.77071	0	
1.1647	-1.10535	1.55077	0	
1.1653	-5.69681	-2.70868	0	
1.1660	-6.61085	-3.63914	0	
1.1667	-7.82249	-2.10905	0	
1.1673	-14.5396	-0.2688	0	
1.1680	-19.1098	1.86093	0	
1.1687	-17.8982	0.95114	0	
1.1693	-18.1958	-2.4192	0	
1.1700	-20.6403	-0.578955	0	
1.1707	-20.3427	4.61096	0	
1.1713	-19.7263	2.48123	0	
1.1720	-21.5544	-2.10905	0	
1.1727	-19.4287	0.95114	0	
1.1733	-15.1561	4.61096	0	
1.1740	-13.9232	3.08087	0	
1.1747	-10.8835	1.55077	0	
1.1753	-5.37796	1.55077	0	
1.1760	-2.93343	0.640985	0	
1.1767	-1.10535	-0.889109	0	
1.1773	2.55081	-2.70868	0	
1.1780	3.76245	-3.32899	0	
1.1787	5.90938	-1.79889	0	
1.1793	8.9491	-1.79889	0	
1.1800	10.7984	-5.45871	0	
1.1807	13.2217	-6.07902	0	
1.1813	15.3686	-1.19926	0	
1.1820	12.6265	0.640985	0	
1.1827	10.182	-2.70868	0	
1.1833	9.56554	-2.70868	0	
1.1840	7.12101	2.77071	0	
1.1847	5.29293	5.8309	0	
1.1853	5.29293	3.70117	0	
1.1860	3.46485	1.26129	0	
1.1867	0.403878	1.55077	0	
1.1873	-2.01939	2.17108	0	
1.1880	-2.63584	1.86093	0	
1.1887	1.93436	0.640985	0	
1.1893	9.26795	0.0413539	0	
1.1900	13.5406	0.640985	0	
1.1907	13.2217	0.0413539	0	
1.1913	11.7125	-1.79889	0	
1.1920	9.26795	-2.10905	0	
1.1927	8.03505	-1.79889	0	
1.1933	7.43987	-3.63914	0	
1.1940	3.76245	-4.85908	0	
1.1947	-0.807757	-3.63914	0	
1.1953	-2.93343	-2.70868	0	
1.1960	-5.08037	-2.10905	0	
1.1967	-10.267	-0.578955	0	
1.1973	-13.6256	0.0413539	0	
1.1980	-13.0091	-0.578955	0	
1.1987	-13.0091	1.26129	0	
1.1993	-15.4537	3.08087	0	
1.2000	-15.7513	3.99065	0	
1.2007	-14.242	5.21059	0	
1.2013	-13.9232	5.52075	0	
1.2020	-10.8835	3.70117	0	
1.2027	-6.61085	2.17108	0	
1.2033	-4.78277	3.39102	0	
1.2040	-1.4242	4.61096	0	
1.2047	6.20697	2.48123	0	
1.2053	15.9851	-1.79889	0	
1.2060	23.6163	-0.889109	0	
1.2067	26.0395	1.26129	0	
1.2073	23.6163	-0.889109	0	
1.2080	23.9139	-3.32899	0	
1.2087	25.7419	-2.70868	0	
1.2093	22.0858	-2.70868	0	
1.2100	17.1967	-3.63914	0	
1.2107	15.3686	-2.70868	0	
1.2113	12.6265	-3.63914	0	
1.2120	8.03505	-4.85908	0	
1.2127	3.46485	-3.63914	0	
1.2133	-2.01939	-3.01883	0	
1.2140	-4.78277	-4.23877	0	
1.2147	-6.61085	-4.23877	0	
1.2153	-12.7115	-3.32899	0	
1.2160	-17.2817	-3.63914	0	
1.2167	-17.2817	-1.79889	0	
1.2173	-20.0239	3.08087	0	
1.2180	-23.9989	4.92111	0	
1.2187	-23.9989	3.70117	0	
1.2193	-23.3824	3.99065	0	
1.2200	-21.8732	5.52075	0	
1.2207	-15.1561	2.48123	0	
1.2213	-10.267	-0.2688	0	
1.2220	-9.05538	1.86093	0	
1.2227	-5.69681	5.52075	0	
1.2233	-4.16632	4.61096	0	
1.2240	-6.90845	0.330831	0	
1.2247	-4.16632	-2.10905	0	
1.2253	0.72273	-1.19926	0	
1.2260	0.106284	0.640985	0	
1.2267	-1.10535	0.0413539	0	
1.2273	-1.10535	-0.889109	0	
1.2280	-3.86873	-0.889109	0	
1.2287	-3.86873	-1.19926	0	
1.2293	-3.86873	-1.19926	0	
1.2300	-8.43893	0.640985	0	
1.2307	-10.8835	1.55077	0	
1.2313	-7.52489	-1.19926	0	
1.2320	-6.61085	-2.70868	0	
1.2327	-5.69681	0.95114	0	
1.2333	0.72273	2.77071	0	
1.2340	4.67649	0.0413539	0	
1.2347	4.99534	-1.48874	0	
1.2353	5.29293	0.0413539	0	
1.2360	6.20697	0.95114	0	
1.2367	6.52582	0.0413539	0	
1.2373	5.90938	-1.48874	0	
1.2380	2.84841	-3.63914	0	
1.2387	0.72273	-3.32899	0	
1.2393	2.25322	0.0413539	0	
1.2400	3.46485	1.86093	0	
1.2407	6.52582	0.0413539	0	
1.2413	13.5406	-1.79889	0	
1.2420	19.9388	-1.48874	0	
1.2427	23.6163	-1.79889	0	
1.2433	26.3584	-3.32899	0	
1.2440	23.9139	-3.63914	0	
1.2447	17.4943	-3.63914	0	
1.2453	12.6265	-2.10905	0	
1.2460	9.88439	0.330831	0	
1.2467	8.9491	-0.2688	0	
1.2473	7.43987	-1.79889	0	
1.2480	3.16726	-0.2688	0	
1.2487	-0.510162	0.330831	0	
1.2493	-0.807757	-1.79889	0	
1.2500	-2.93343	-1.48874	0	
1.2507	-8.12008	0.0413539	0	
1.2513	-10.267	0.640985	0	
1.2520	-12.0951	2.17108	0	
1.2527	-15.7513	3.70117	0	
1.2533	-16.6653	3.39102	0	
1.2540	-13.6256	4.61096	0	
1.2547	-10.267	4.61096	0	
1.2553	-9.35297	1.26129	0	
1.2560	-9.35297	0.640985	0	
1.2567	-7.52489	2.48123	0	
1.2573	-5.37796	0.95114	0	
1.2580	-3.86873	0.0413539	0	
1.2587	-0.191311	0.95114	0	
1.2593	3.16726	1.86093	0	
1.2600	2.84841	3.70117	0	
1.2607	3.76245	4.92111	0	
1.2613	6.20697	4.30081	0	
1.2620	5.29293	4.30081	0	
1.2627	3.16726	5.52075	0	
1.2633	3.46485	4.92111	0	
1.2640	2.84841	3.70117	0	
1.2647	1.33918	2.77071	0	
1.2653	-1.10535	1.26129	0	
1.2660	-5.99441	2.48123	0	
1.2667	-9.96942	3.39102	0	
1.2673	-8.73653	0.640985	0	
1.2680	-8.12008	-0.578955	0	
1.2687	-10.267	0.640985	0	
1.2693	-10.5646	-2.4192	0	
1.2700	-8.43893	-5.14856	0	
1.2707	-5.99441	-3.63914	0	
1.2713	-2.33824	-2.70868	0	
1.2720	1.33918	-2.70868	0	
1.2727	2.55081	-2.10905	0	
1.2733	3.46485	-3.32899	0	
1.2740	7.12101	-6.07902	0	
1.2747	9.88439	-6.98881	0	
1.2753	9.26795	-6.3685	0	
1.2760	10.7984	-6.3685	0	
1.2767	15.3686	-5.45871	0	
1.2773	17.8132	-4.85908	0	
1.2780	16.2827	-5.76887	0	
1.2787	15.6662	-4.85908	0	
1.2793	16.8991	-2.4192	0	
1.2800	17.4943	-2.70868	0	
1.2807	17.4943	-4.23877	0	
1.2813	16.2827	-3.63914	0	
1.2820	13.8381	-2.4192	0	
1.2827	11.3936	-0.578955	0	
1.2833	9.88439	2.48123	0	
1.2840	6.20697	2.48123	0	
1.2847	1.93436	0.330831	0	
1.2853	-0.191311	1.26129	0	
1.2860	-4.78277	1.86093	0	
1.2867	-13.0091	-1.79889	0	
1.2873	-17.6006	-1.19926	0	
1.2880	-20.6403	4.61096	0	
1.2887	-25.2105	5.21059	0	
1.2893	-26.4434	1.26129	0	
1.2900	-25.5294	2.48123	0	
1.2907	-27.9739	5.21059	0	
1.2913	-28.2715	3.39102	0	
1.2920	-23.9989	3.08087	0	
1.2927	-22.4684	5.21059	0	
1.2933	-19.4287	5.52075	0	
1.2940	-8.12008	7.36099	0	
1.2947	2.84841	9.18056	0	
1.2953	9.26795	4.30081	0	
1.2960	12.9241	0.95114	0	
1.2967	11.7125	3.08087	0	
1.2973	7.43987	0.330831	0	
1.2980	9.26795	-4.85908	0	
1.2987	12.6265	-3.01883	0	
1.2993	11.096	-1.19926	0	
1.3000	11.096	-4.85908	0	
1.3007	11.096	-4.54893	0	
1.3013	6.82342	0.0413539	0	
1.3020	5.61178	0.0413539	0	
1.3027	7.43987	-2.4192	0	
1.3033	1.93436	-2.70868	0	
1.3040	-4.78277	-2.70868	0	
1.3047	-3.86873	-0.889109	0	
1.3053	-4.16632	1.86093	0	
1.3060	-8.43893	0.95114	0	
1.3067	-8.73653	0.330831	0	
1.3073	-8.73653	2.77071	0	
1.3080	-12.0951	3.39102	0	
1.3087	-13.9232	2.48123	0	
1.3093	-12.0951	3.39102	0	
1.3100	-11.7975	3.39102	0	
1.3107	-12.3927	1.86093	0	
1.3113	-11.4786	1.86093	0	
1.3120	-8.12008	3.08087	0	
1.3127	-4.16632	2.77071	0	
1.3133	-0.191311	-0.578955	0	
1.3140	4.37889	-3.63914	0	
1.3147	7.12101	-2.10905	0	
1.3153	8.35391	0.0413539	0	
1.3160	10.4796	-1.79889	0	
1.3167	13.5406	-3.32899	0	
1.3173	15.9851	-1.48874	0	
1.3180	16.8991	-1.48874	0	
1.3187	15.3686	-0.889109	0	
1.3193	13.8381	2.77071	0	
1.3200	13.5406	3.39102	0	
1.3207	9.56554	1.26129	0	
1.3213	3.46485	4.61096	0	
1.3220	0.403878	7.36099	0	
1.3227	-3.25228	4.30081	0	
1.3233	-7.20604	1.55077	0	
1.3240	-9.05538	2.17108	0	
1.3247	-11.7975	2.77071	0	
1.3253	-14.242	1.26129	0	
1.3260	-13.0091	0.95114	0	
1.3267	-10.267	2.77071	0	
1.3273	-7.52489	2.48123	0	
1.3280	-2.93343	-0.889109	0	
1.3287	0.403878	-0.578955	0	
1.3293	1.63677	1.86093	0	
1.3300	5.29293	0.330831	0	
1.3307	7.43987	-0.889109	0	
1.3313	4.99534	-0.2688	0	
1.3320	3.76245	-2.4192	0	
1.3327	5.61178	-4.54893	0	
1.3333	8.6515	-3.63914	0	
1.3340	15.3686	-4.85908	0	
1.3347	20.8529	-6.98881	0	
1.3353	16.8991	-5.45871	0	
1.3360	10.7984	-4.23877	0	
1.3367	9.56554	-4.23877	0	
1.3373	6.82342	-4.54893	0	
1.3380	1.33918	-4.85908	0	
1.3387	0.106284	-3.63914	0	
1.3393	-0.191311	-1.19926	0	
1.3400	-4.78277	-0.578955	0	
1.3407	-7.52489	-0.889109	0	
1.3413	-7.20604	1.86093	0	
1.3420	-9.05538	5.52075	0	
1.3427	-11.1811	6.14105	0	
1.3433	-10.8835	4.61096	0	
1.3440	-13.9232	3.99065	0	
1.3447	-18.8122	4.30081	0	
1.3453	-17.8982	5.52075	0	
1.3460	-13.9232	7.36099	0	
1.3467	-11.7975	7.96063	0	
1.3473	-9.05538	7.96063	0	
1.3480	-5.37796	8.58093	0	
1.3487	-3.86873	7.36099	0	
1.3493	-4.78277	4.92111	0	
1.3500	-3.86873	4.92111	0	
1.3507	-2.63584	4.61096	0	
1.3513	-2.93343	1.86093	0	
1.3520	-2.01939	0.0413539	0	
1.3527	0.72273	-0.578955	0	
1.3533	2.25322	-1.48874	0	
1.3540	2.55081	-2.10905	0	
1.3547	3.16726	-1.19926	0	
1.3553	2.55081	0.0413539	0	
1.3560	1.63677	-0.889109	0	
1.3567	2.55081	-2.70868	0	
1.3573	3.76245	-3.32899	0	
1.3580	5.90938	-3.92862	0	
1.3587	8.03505	-5.14856	0	
1.3593	9.88439	-4.23877	0	
1.3600	11.7125	-3.92862	0	
1.3607	9.56554	-5.45871	0	
1.3613	5.29293	-4.23877	0	
1.3620	6.20697	-0.889109	0	
1.3627	9.26795	0.95114	0	
1.3633	7.12101	1.26129	0	
1.3640	6.82342	2.77071	0	
1.3647	8.35391	3.99065	0	
1.3653	5.29293	2.77071	0	
1.3660	2.84841	2.17108	0	
1.3667	4.67649	2.17108	0	
1.3673	2.84841	1.26129	0	
1.3680	1.33918	0.0413539	0	
1.3687	2.25322	0.95114	0	
1.3693	-1.4242	1.26129	0	
1.3700	-6.61085	0.640985	0	
1.3707	-5.99441	0.0413539	0	
1.3713	-7.52489	-0.578955	0	
1.3720	-11.4786	0.0413539	0	
1.3727	-11.4786	1.55077	0	
1.3733	-11.1811	-0.889109	0	
1.3740	-13.9232	-3.63914	0	
1.3747	-14.8372	-2.10905	0	
1.3753	-12.7115	-2.4192	0	
1.3760	-10.267	-3.92862	0	
1.3767	-9.05538	-3.32899	0	
1.3773	-9.05538	-2.70868	0	
1.3780	-5.99441	-3.01883	0	
1.3787	-0.807757	-0.889109	0	
1.3793	0.72273	0.330831	0	
1.3800	0.106284	-1.48874	0	
1.3807	0.72273	-0.2688	0	
1.3813	1.63677	0.0413539	0	
1.3820	4.99534	-2.4192	0	
1.3827	8.9491	-1.19926	0	
1.3833	8.35391	0.640985	0	
1.3840	8.9491	-1.79889	0	
1.3847	10.7984	-3.01883	0	
1.3853	8.6515	-2.4192	0	
1.3860	5.90938	-2.70868	0	
1.3867	4.99534	-1.79889	0	
1.3873	2.55081	0.95114	0	
1.3880	0.72273	0.0413539	0	
1.3887	0.403878	-2.70868	0	
1.3893	-1.10535	-2.4192	0	
1.3900	-1.10535	-0.2688	0	
1.3907	0.72273	-0.2688	0	
1.3913	-0.510162	-0.889109	0	
1.3920	-0.191311	-1.48874	0	
1.3927	6.52582	-3.63914	0	
1.3933	13.5406	-5.45871	0	
1.3940	14.4546	-3.92862	0	
1.3947	15.6662	-2.70868	0	
1.3953	19.9388	-3.63914	0	
1.3960	21.1717	-5.76887	0	
1.3967	16.2827	-6.3685	0	
1.3973	12.6265	-5.76887	0	
1.3980	12.0101	-3.63914	0	
1.3987	9.26795	-0.889109	0	
1.3993	5.29293	-1.48874	0	
1.4000	4.99534	-3.92862	0	
1.4007	4.99534	-1.79889	0	
1.4013	1.93436	3.08087	0	
1.4020	-1.4242	2.17108	0	
1.4027	-4.16632	-1.79889	0	
1.4033	-9.05538	-0.889109	0	
1.4040	-13.0091	2.48123	0	
1.4047	-12.7115	2.77071	0	
1.4053	-11.7975	1.26129	0	
1.4060	-12.0951	0.640985	0	
1.4067	-11.4786	0.95114	0	
1.4073	-11.1811	1.55077	0	
1.4080	-11.4786	0.95114	0	
1.4087	-11.7975	1.26129	0	
1.4093	-13.0091	0.95114	0	
1.4100	-14.5396	-0.2688	0	
1.4107	-15.4537	0.330831	0	
1.4113	-15.1561	1.26129	0	
1.4120	-11.4786	-1.79889	0	
1.4127	-4.78277	-3.01883	0	
1.4133	-1.7218	-0.889109	0	
1.4140	-0.191311	-0.889109	0	
1.4147	5.29293	-1.19926	0	
1.4153	10.7984	0.95114	0	
1.4160	12.6265	0.640985	0	
1.4167	14.7522	-2.10905	0	
1.4173	15.9851	-1.48874	0	
1.4180	13.5406	0.330831	0	
1.4187	11.096	-1.19926	0	
1.4193	10.182	-3.63914	0	
1.4200	7.73746	-3.01883	0	
1.4207	3.46485	-0.578955	0	
1.4213	-0.807757	0.330831	0	
1.4220	-5.08037	0.0413539	0	
1.4227	-8.43893	0.640985	0	
1.4233	-11.1811	1.55077	0	
1.4240	-14.5396	0.640985	0	
1.4247	-16.6653	-0.578955	0	
1.4253	-15.7513	1.86093	0	
1.4260	-15.4537	5.21059	0	
1.4267	-16.6653	5.52075	0	
1.4273	-14.8372	4.92111	0	
1.4280	-9.96942	5.52075	0	
1.4287	-7.20604	6.14105	0	
1.4293	-5.37796	4.61096	0	
1.4300	-2.93343	1.55077	0	
1.4307	-1.4242	0.0413539	0	
1.4313	1.63677	1.55077	0	
1.4320	4.37889	0.95114	0	
1.4327	2.55081	-4.54893	0	
1.4333	0.403878	-7.29896	0	
1.4340	2.55081	-3.92862	0	
1.4347	4.67649	-3.32899	0	
1.4353	4.0813	-5.45871	0	
1.4360	2.84841	-4.85908	0	
1.4367	0.72273	-3.63914	0	
1.4373	0.403878	-4.54893	0	
1.4380	5.29293	-4.54893	0	
1.4387	8.6515	-2.4192	0	
1.4393	5.29293	-1.48874	0	
1.4400	3.16726	-1.79889	0	
1.4407	6.82342	-1.79889	0	
1.4413	8.9491	-2.4192	0	
1.4420	6.20697	-3.32899	0	
1.4427	3.46485	-2.4192	0	
1.4433	2.55081	-0.2688	0	
1.4440	1.93436	0.330831	0	
1.4447	1.63677	-0.2688	0	
1.4453	1.33918	0.95114	0	
1.4460	-0.510162	2.17108	0	
1.4467	-1.7218	0.330831	0	
1.4473	0.106284	-0.889109	0	
1.4480	-0.510162	0.0413539	0	
1.4487	-5.99441	0.95114	0	
1.4493	-9.05538	-0.578955	0	
1.4500	-7.20604	-1.79889	0	
1.4507	-8.12008	-1.79889	0	
1.4513	-11.1811	-1.19926	0	
1.4520	-8.73653	-1.79889	0	
1.4527	-3.86873	-2.70868	0	
1.4533	-1.4242	-2.70868	0	
1.4540	1.33918	-2.10905	0	
1.4547	4.37889	-1.19926	0	
1.4553	4.0813	0.330831	0	
1.4560	2.84841	-0.2688	0	
1.4567	5.90938	-3.01883	0	
1.4573	8.6515	-2.4192	0	
1.4580	7.43987	1.26129	0	
1.4587	4.99534	1.55077	0	
1.4593	4.37889	0.330831	0	
1.4600	7.12101	1.26129	0	
1.4607	10.7984	-0.2688	0	
1.4613	10.7984	-4.23877	0	
1.4620	8.03505	-2.10905	0	
1.4627	6.20697	4.92111	0	
1.4633	2.55081	6.14105	0	
1.4640	-2.01939	2.77071	0	
1.4647	-2.63584	2.48123	0	
1.4653	-1.10535	3.99065	0	
1.4660	-0.807757	3.08087	0	
1.4667	-0.191311	0.95114	0	
1.4673	0.72273	0.330831	0	
1.4680	0.403878	0.95114	0	
1.4687	-0.191311	1.55077	0	
1.4693	-0.807757	1.86093	0	
1.4700	-0.807757	0.95114	0	
1.4707	-0.807757	-0.889109	0	
1.4713	-3.25228	-0.578955	0	
1.4720	-5.99441	0.95114	0	
1.4727	-5.99441	1.26129	0	
1.4733	-6.61085	1.86093	0	
1.4740	-8.12008	2.48123	0	
1.4747	-6.90845	1.26129	0	
1.4753	-6.61085	1.86093	0	
1.4760	-10.267	5.52075	0	
1.4767	-12.0951	5.52075	0	
1.4773	-11.1811	2.77071	0	
1.4780	-13.328	3.08087	0	
1.4787	-14.5396	3.39102	0	
1.4793	-10.8835	1.55077	0	
1.4800	-6.90845	1.86093	0	
1.4807	-5.69681	2.77071	0	
1.4813	-2.93343	1.86093	0	
1.4820	1.02032	1.86093	0	
1.4827	2.55081	2.77071	0	
1.4833	3.46485	1.86093	0	
1.4840	5.29293	0.0413539	0	
1.4847	4.67649	-0.889109	0	
1.4853	2.55081	-0.578955	0	
1.4860	2.55081	1.26129	0	
1.4867	3.46485	2.17108	0	
1.4873	3.46485	1.86093	0	
1.4880	1.93436	1.86093	0	
1.4887	-0.191311	0.0413539	0	
1.4893	-1.10535	-3.01883	0	
1.4900	-0.510162	-1.79889	0	
1.4907	0.106284	0.95114	0	
1.4913	3.46485	-1.79889	0	
1.4920	8.9491	-5.45871	0	
1.4927	10.7984	-5.45871	0	
1.4933	10.7984	-5.45871	0	
1.4940	9.26795	-6.3685	0	
1.4947	5.90938	-5.14856	0	
1.4953	5.29293	-6.07902	0	
1.4960	7.73746	-8.20875	0	
1.4967	5.29293	-6.3685	0	
1.4973	0.403878	-3.92862	0	
1.4980	-1.4242	-4.54893	0	
1.4987	-0.807757	-5.14856	0	
1.4993	-0.807757	-3.63914	0	
1.5000	-1.7218	-0.2688	0	
1.5007	-2.01939	0.330831	0	
1.5013	0.106284	-1.79889	0	
1.5020	1.63677	-3.63914	0	
1.5027	-0.510162	-2.10905	0	
1.5033	-2.33824	0.0413539	0	
1.5040	-3.54988	2.77071	0	
1.5047	-5.69681	6.14105	0	
1.5053	-5.37796	5.21059	0	
1.5060	-3.54988	1.86093	0	
1.5067	-5.69681	3.08087	0	
1.5073	-6.90845	6.74069	0	
1.5080	-3.54988	6.43053	0	
1.5087	-2.01939	3.70117	0	
1.5093	-1.7218	3.08087	0	
1.5100	4.37889	3.39102	0	
1.5107	10.7984	2.77071	0	
1.5113	11.7125	2.17108	0	
1.5120	10.4796	-0.578955	0	
1.5127	11.096	-3.63914	0	
1.5133	13.5406	-4.54893	0	
1.5140	15.6662	-4.23877	0	
1.5147	15.071	-3.63914	0	
1.5153	13.2217	-3.63914	0	
1.5160	12.6265	-4.23877	0	
1.5167	12.6265	-5.76887	0	
1.5173	13.5406	-5.76887	0	
1.5180	14.4546	-5.45871	0	
1.5187	14.4546	-5.76887	0	
1.5193	9.88439	-4.54893	0	
1.5200	2.25322	-3.63914	0	
1.5207	-3.86873	-3.63914	0	
1.5213	-5.99441	-1.48874	0	
1.5220	-8.73653	1.26129	0	
1.5227	-11.1811	2.48123	0	
1.5233	-10.5646	4.92111	0	
1.5240	-12.0951	6.43053	0	
1.5247	-15.1561	1.86093	0	
1.5253	-16.0701	-0.578955	0	
1.5260	-14.242	4.92111	0	
1.5267	-13.6256	6.74069	0	
1.5273	-13.9232	1.86093	0	
1.5280	-14.8372	0.95114	0	
1.5287	-14.8372	3.70117	0	
1.5293	-13.328	3.70117	0	
1.5300	-10.267	2.48123	0	
1.5307	-7.20604	2.77071	0	
1.5313	-4.78277	3.70117	0	
1.5320	-3.54988	4.30081	0	
1.5327	-0.191311	2.77071	0	
1.5333	4.37889	1.86093	0	
1.5340	7.43987	2.48123	0	
1.5347	7.73746	1.55077	0	
1.5353	6.20697	1.26129	0	
1.5360	5.29293	2.17108	0	
1.5367	8.03505	0.330831	0	
1.5373	11.7125	-2.10905	0	
1.5380	10.7984	-1.19926	0	
1.5387	7.12101	-0.889109	0	
1.5393	4.0813	-2.10905	0	
1.5400	1.63677	-0.578955	0	
1.5407	-2.63584	1.86093	0	
1.5413	-5.69681	0.95114	0	
1.5420	-5.69681	0.0413539	0	
1.5427	-5.99441	1.26129	0	
1.5433	-6.90845	1.86093	0	
1.5440	-7.52489	0.640985	0	
1.5447	-9.35297	-0.889109	0	
1.5453	-9.35297	0.95114	0	
1.5460	-4.16632	2.48123	0	
1.5467	-0.191311	0.640985	0	
1.5473	-3.86873	-0.578955	0	
1.5480	-5.99441	1.55077	0	
1.5487	-2.93343	0.95114	0	
1.5493	-2.01939	-2.70868	0	
1.5500	-4.78277	-3.63914	0	
1.5507	-4.78277	-3.32899	0	
1.5513	-3.86873	-4.54893	0	
1.5520	-6.292	-4.54893	0	
1.5527	-9.05538	-3.92862	0	
1.5533	-7.20604	-5.45871	0	
1.5540	-3.86873	-4.54893	0	
1.5547	-4.46392	-1.48874	0	
1.5553	-6.61085	1.86093	0	
1.5560	-6.61085	3.99065	0	
1.5567	-3.86873	3.70117	0	
1.5573	-1.4242	-0.2688	0	
1.5580	0.72273	-0.889109	0	
1.5587	3.46485	1.55077	0	
1.5593	3.76245	1.86093	0	
1.5600	0.403878	1.26129	0	
1.5607	-2.33824	1.26129	0	
1.5613	-3.25228	0.330831	0	
1.5620	-5.08037	0.95114	0	
1.5627	-5.69681	1.26129	0	
1.5633	-3.86873	-1.19926	0	
1.5640	-5.69681	-2.4192	0	
1.5647	-8.73653	-0.2688	0	
1.5653	-5.69681	1.26129	0	
1.5660	-0.510162	0.0413539	0	
1.5667	3.46485	-3.63914	0	
1.5673	9.88439	-3.92862	0	
1.5680	16.5803	0.0413539	0	
1.5687	19.0248	-0.578955	0	
1.5693	19.9388	-6.3685	0	
1.5700	21.1717	-6.3685	0	
1.5707	20.2577	-2.10905	0	
1.5713	19.9388	-3.63914	0	
1.5720	20.5553	-6.98881	0	
1.5727	17.4943	-5.45871	0	
1.5733	9.26795	-3.63914	0	
1.5740	3.46485	-4.54893	0	
1.5747	1.33918	-3.92862	0	
1.5753	-2.01939	-2.4192	0	
1.5760	-4.16632	-2.70868	0	
1.5767	-4.16632	-4.54893	0	
1.5773	-6.61085	-5.45871	0	
1.5780	-11.1811	-4.23877	0	
1.5787	-12.3927	-2.10905	0	
1.5793	-11.1811	0.640985	0	
1.5800	-10.5646	2.48123	0	
1.5807	-10.267	2.77071	0	
1.5813	-9.65057	4.30081	0	
1.5820	-7.20604	6.74069	0	
1.5827	-4.46392	7.05084	0	
1.5833	-4.78277	7.36099	0	
1.5840	-5.08037	9.80087	0	
1.5847	-2.01939	10.111	0	
1.5853	1.33918	8.58093	0	
1.5860	1.63677	6.43053	0	
1.5867	2.25322	3.70117	0	
1.5873	3.16726	3.70117	0	
1.5880	3.46485	5.21059	0	
1.5887	3.16726	3.39102	0	
1.5893	2.55081	0.0413539	0	
1.5900	3.76245	0.0413539	0	
1.5907	6.20697	0.0413539	0	
1.5913	5.29293	-1.19926	0	
1.5920	-0.191311	-0.889109	0	
1.5927	-3.54988	-0.578955	0	
1.5933	-1.4242	-1.19926	0	
1.5940	-2.33824	-0.2688	0	
1.5947	-5.08037	0.95114	0	
1.5953	-5.08037	0.95114	0	
1.5960	-6.61085	1.86093	0	
1.5967	-9.35297	1.55077	0	
1.5973	-6.61085	-0.578955	0	
1.5980	-1.4242	-0.889109	0	
1.5987	-0.191311	-0.889109	0	
1.5993	0.72273	-2.4192	0	
1.6000	2.55081	-0.578955	0	
1.6007	1.33918	1.55077	0	
1.6013	0.403878	-0.2688	0	
1.6020	1.33918	-1.19926	0	
1.6027	0.403878	1.86093	0	
1.6033	-1.10535	2.77071	0	
1.6040	-1.4242	1.86093	0	
1.6047	-2.01939	1.86093	0	
1.6053	-2.01939	0.95114	0	
1.6060	1.02032	0.0413539	0	
1.6067	2.55081	0.640985	0	
1.6073	1.33918	-0.889109	0	
1.6080	2.55081	-3.32899	0	
1.6087	7.12101	-2.70868	0	
1.6093	11.3936	-3.32899	0	
1.6100	13.5406	-3.63914	0	
1.6107	16.2827	-1.79889	0	
1.6113	20.5553	-3.32899	0	
1.6120	22.3834	-7.29896	0	
1.6127	20.5553	-6.67865	0	
1.6133	18.7272	-3.63914	0	
1.6140	17.1967	-4.54893	0	
1.6147	13.2217	-5.45871	0	
1.6153	7.73746	-3.92862	0	
1.6160	4.99534	-3.63914	0	
1.6167	1.93436	-3.92862	0	
1.6173	-3.54988	-2.70868	0	
1.6180	-7.82249	-0.2688	0	
1.6187	-9.96942	1.26129	0	
1.6193	-11.7975	3.08087	0	
1.6200	-11.1811	4.30081	0	
1.6207	-9.35297	2.48123	0	
1.6213	-6.90845	0.0413539	0	
1.6220	-5.08037	1.26129	0	
1.6227	-2.63584	3.99065	0	
1.6233	0.72273	4.92111	0	
1.6240	2.55081	4.61096	0	
1.6247	1.93436	4.61096	0	
1.6253	1.63677	4.30081	0	
1.6260	0.72273	1.55077	0	
1.6267	-2.01939	0.640985	0	
1.6273	-4.16632	2.48123	0	
1.6280	-3.54988	2.48123	0	
1.6287	-2.01939	-0.578955	0	
1.6293	-2.33824	-0.889109	0	
1.6300	-4.78277	0.640985	0	
1.6307	-7.52489	-0.889109	0	
1.6313	-7.82249	-3.32899	0	
1.6320	-8.43893	-3.63914	0	
1.6327	-10.267	-3.63914	0	
1.6333	-8.43893	-2.4192	0	
1.6340	-5.37796	0.0413539	0	
1.6347	-6.292	-1.19926	0	
1.6353	-7.52489	-4.54893	0	
1.6360	-5.69681	-5.14856	0	
1.6367	-5.37796	-1.48874	0	
1.6373	-8.43893	1.26129	0	
1.6380	-10.267	0.95114	0	
1.6387	-8.73653	0.0413539	0	
1.6393	-7.20604	1.55077	0	
1.6400	-5.69681	1.86093	0	
1.6407	-3.86873	1.26129	0	
1.6413	-0.191311	1.26129	0	
1.6420	5.90938	1.86093	0	
1.6427	14.4546	2.77071	0	
1.6433	19.9388	1.86093	0	
1.6440	21.1717	-0.2688	0	
1.6447	21.7669	0.95114	0	
1.6453	21.7669	2.48123	0	
1.6460	18.4296	-0.578955	0	
1.6467	14.7522	-1.79889	0	
1.6473	12.3077	0.330831	0	
1.6480	8.03505	-1.48874	0	
1.6487	4.37889	-3.32899	0	
1.6493	2.55081	0.95114	0	
1.6500	-0.191311	2.77071	0	
1.6507	-4.46392	0.0413539	0	
1.6513	-9.05538	-0.578955	0	
1.6520	-13.6256	-0.578955	0	
1.6527	-18.8122	-1.79889	0	
1.6533	-23.0848	-0.578955	0	
1.6540	-24.9129	2.17108	0	
1.6547	-23.3824	3.08087	0	
1.6553	-20.3427	4.61096	0	
1.6560	-17.6006	4.61096	0	
1.6567	-14.8372	1.86093	0	
1.6573	-12.0951	0.0413539	0	
1.6580	-7.52489	0.330831	0	
1.6587	-0.510162	0.0413539	0	
1.6593	5.90938	-0.889109	0	
1.6600	10.4796	-1.79889	0	
1.6607	13.8381	-1.19926	0	
1.6613	15.3686	0.95114	0	
1.6620	13.8381	1.55077	0	
1.6627	10.182	0.640985	0	
1.6633	6.20697	1.86093	0	
1.6640	5.61178	2.48123	0	
1.6647	7.12101	-1.79889	0	
1.6653	4.0813	-3.63914	0	
1.6660	-2.63584	0.95114	0	
1.6667	-6.292	2.77071	0	
1.6673	-5.69681	2.48123	0	
1.6680	-6.61085	3.99065	0	
1.6687	-6.61085	3.70117	0	
1.6693	-3.86873	0.95114	0	
1.6700	-1.4242	-0.578955	0	
1.6707	0.106284	0.0413539	0	
1.6713	2.25322	0.640985	0	
1.6720	0.72273	0.0413539	0	
1.6727	-1.10535	-0.889109	0	
1.6733	2.55081	-0.889109	0	
1.6740	4.37889	-0.578955	0	
1.6747	-0.191311	-1.79889	0	
1.6753	-4.78277	-2.70868	0	
1.6760	-8.12008	-2.70868	0	
1.6767	-10.5646	-2.70868	0	
1.6773	-7.82249	-3.01883	0	
1.6780	-3.54988	-2.70868	0	
1.6787	-4.16632	-1.79889	0	
1.6793	-4.78277	0.0413539	0	
1.6800	-2.01939	2.48123	0	
1.6807	0.403878	3.70117	0	
1.6813	1.63677	3.39102	0	
1.6820	4.67649	1.86093	0	
1.6827	8.03505	0.640985	0	
1.6833	8.6515	0.95114	0	
1.6840	8.9491	1.26129	0	
1.6847	8.03505	0.0413539	0	
1.6853	5.29293	0.0413539	0	
1.6860	4.37889	1.26129	0	
1.6867	5.29293	0.330831	0	
1.6873	3.76245	-2.70868	0	
1.6880	1.33918	-3.01883	0	
1.6887	-0.191311	-0.889109	0	
1.6893	-1.7218	0.0413539	0	
1.6900	-4.78277	0.95114	0	
1.6907	-6.90845	2.48123	0	
1.6913	-8.43893	1.86093	0	
1.6920	-8.12008	0.0413539	0	
1.6927	-7.52489	-0.889109	0	
1.6933	-7.52489	-1.79889	0	
1.6940	-6.292	-1.79889	0	
1.6947	-4.78277	-1.19926	0	
1.6953	-3.86873	-1.48874	0	
1.6960	0.72273	-1.79889	0	
1.6967	6.20697	-1.79889	0	
1.6973	6.52582	-3.63914	0	
1.6980	8.9491	-4.54893	0	
1.6987	12.6265	-0.889109	0	
1.6993	10.4796	-0.578955	0	
1.7000	7.12101	-3.92862	0	
1.7007	7.73746	-3.01883	0	
1.7013	6.20697	-1.19926	0	
1.7020	3.46485	-3.32899	0	
1.7027	2.55081	-2.70868	0	
1.7033	0.72273	0.95114	0	
1.7040	-1.4242	1.26129	0	
1.7047	-2.01939	0.0413539	0	
1.7053	-2.63584	0.0413539	0	
1.7060	-2.93343	-0.578955	0	
1.7067	-2.01939	-1.48874	0	
1.7073	0.72273	0.330831	0	
1.7080	4.99534	2.17108	0	
1.7087	8.9491	0.640985	0	
1.7093	13.5406	-2.70868	0	
1.7100	21.4693	-2.10905	0	
1.7107	27.57	0.0413539	0	
1.7113	26.9748	-2.4192	0	
1.7120	24.5303	-4.54893	0	
1.7127	25.1255	-3.92862	0	
1.7133	24.5303	-3.92862	0	
1.7140	19.6412	-4.54893	0	
1.7147	13.5406	-2.4192	0	
1.7153	6.82342	-1.79889	0	
1.7160	-1.10535	-2.4192	0	
1.7167	-9.65057	-1.19926	0	
1.7173	-15.7513	0.0413539	0	
1.7180	-19.4287	0.330831	0	
1.7187	-24.6153	1.86093	0	
1.7193	-30.716	3.70117	0	
1.7200	-34.9886	5.52075	0	
1.7207	-36.5191	5.52075	0	
1.7213	-38.0283	5.52075	0	
1.7220	-38.6448	7.65047	0	
1.7227	-34.3722	11.0208	0	
1.7233	-25.5294	10.111	0	
1.7240	-19.7263	7.05084	0	
1.7247	-19.1098	7.96063	0	
1.7253	-14.8372	9.18056	0	
1.7260	-5.08037	7.36099	0	
1.7267	0.72273	4.61096	0	
1.7273	1.63677	3.99065	0	
1.7280	5.90938	2.48123	0	
1.7287	13.2217	-0.889109	0	
1.7293	17.8132	-2.70868	0	
1.7300	18.4296	-3.01883	0	
1.7307	18.7272	-4.54893	0	
1.7313	20.5553	-6.07902	0	
1.7320	22.0858	-5.14856	0	
1.7327	19.3436	-4.54893	0	
1.7333	14.157	-5.76887	0	
1.7340	10.7984	-6.3685	0	
1.7347	8.03505	-5.76887	0	
1.7353	1.63677	-4.23877	0	
1.7360	-2.93343	-2.70868	0	
1.7367	-2.93343	-3.32899	0	
1.7373	-5.69681	-2.70868	0	
1.7380	-11.7975	0.95114	0	
1.7387	-15.4537	3.08087	0	
1.7393	-17.6006	1.26129	0	
1.7400	-21.2568	2.17108	0	
1.7407	-22.1708	5.52075	0	
1.7413	-21.2568	4.61096	0	
1.7420	-19.4287	1.26129	0	
1.7427	-13.9232	1.55077	0	
1.7433	-9.35297	1.55077	0	
1.7440	-8.43893	0.95114	0	
1.7447	-6.292	3.70117	0	
1.7453	-2.01939	4.92111	0	
1.7460	-1.10535	1.86093	0	
1.7467	-1.10535	0.95114	0	
1.7473	2.25322	2.48123	0	
1.7480	4.67649	1.86093	0	
1.7487	5.29293	1.55077	0	
1.7493	4.99534	3.70117	0	
1.7500	7.12101	1.86093	0	
1.7507	11.7125	-1.79889	0	
1.7513	14.4546	-1.48874	0	
1.7520	13.2217	0.0413539	0	
1.7527	12.9241	-0.578955	0	
1.7533	14.4546	-2.70868	0	
1.7540	17.1967	-6.07902	0	
1.7547	20.8529	-8.82906	0	
1.7553	20.5553	-8.82906	0	
1.7560	17.8132	-9.42869	0	
1.7567	16.2827	-9.73884	0	
1.7573	13.2217	-6.3685	0	
1.7580	8.6515	-4.54893	0	
1.7587	9.56554	-5.76887	0	
1.7593	9.88439	-3.92862	0	
1.7600	2.55081	-1.79889	0	
1.7607	-2.93343	-2.70868	0	
1.7613	-2.93343	-1.48874	0	
1.7620	-7.52489	2.17108	0	
1.7627	-13.9232	3.70117	0	
1.7633	-15.1561	5.8309	0	
1.7640	-16.6653	8.27078	0	
1.7647	-19.1098	6.43053	0	
1.7653	-16.6653	4.92111	0	
1.7660	-12.0951	5.52075	0	
1.7667	-11.1811	3.70117	0	
1.7673	-8.43893	2.77071	0	
1.7680	-1.4242	3.99065	0	
1.7687	2.25322	1.26129	0	
1.7693	0.106284	-2.10905	0	
1.7700	-0.191311	-0.578955	0	
1.7707	3.46485	1.86093	0	
1.7713	6.82342	0.0413539	0	
1.7720	7.73746	-2.70868	0	
1.7727	7.43987	-3.63914	0	
1.7733	9.26795	-2.70868	0	
1.7740	13.8381	-2.4192	0	
1.7747	17.1967	-3.63914	0	
1.7753	16.2827	-3.63914	0	
1.7760	12.6265	-1.79889	0	
1.7767	9.56554	-0.578955	0	
1.7773	8.03505	-0.889109	0	
1.7780	5.61178	-1.48874	0	
1.7787	2.55081	0.95114	0	
1.7793	4.0813	4.61096	0	
1.7800	4.37889	2.77071	0	
1.7807	-1.10535	0.0413539	0	
1.7813	-4.16632	1.86093	0	
1.7820	-3.54988	3.70117	0	
1.7827	-5.69681	2.17108	0	
1.7833	-8.43893	1.86093	0	
1.7840	-8.12008	2.77071	0	
1.7847	-10.5646	0.95114	0	
1.7853	-12.7115	-1.48874	0	
1.7860	-12.0951	0.0413539	0	
1.7867	-15.1561	1.26129	0	
1.7873	-16.0701	-0.578955	0	
1.7880	-10.8835	-1.48874	0	
1.7887	-9.05538	0.95114	0	
1.7893	-10.267	1.86093	0	
1.7900	-7.82249	-0.889109	0	
1.7907	-6.61085	-2.10905	0	
1.7913	-8.12008	-1.79889	0	
1.7920	-8.43893	-2.70868	0	
1.7927	-8.73653	-3.32899	0	
1.7933	-9.65057	-2.70868	0	
1.7940	-10.8835	-1.48874	0	
1.7947	-13.6256	-0.2688	0	
1.7953	-13.6256	1.55077	0	
1.7960	-9.35297	2.77071	0	
1.7967	-7.52489	2.77071	0	
1.7973	-5.99441	2.17108	0	
1.7980	-2.01939	1.55077	0	
1.7987	-1.10535	0.330831	0	
1.7993	-2.63584	-0.889109	0	
1.8000	0.72273	-1.48874	0	
1.8007	5.29293	-2.10905	0	
1.8013	9.88439	-2.4192	0	
1.8020	11.096	-1.79889	0	
1.8027	7.73746	-0.889109	0	
1.8033	7.12101	1.26129	0	
1.8040	12.3077	1.86093	0	
1.8047	12.6265	0.0413539	0	
1.8053	8.6515	-1.79889	0	
1.8060	10.7984	-0.889109	0	
1.8067	15.6662	0.0413539	0	
1.8073	18.1108	-0.889109	0	
1.8080	20.2577	-1.79889	0	
1.8087	18.7272	-0.2688	0	
1.8093	13.8381	2.17108	0	
1.8100	15.3686	-0.889109	0	
1.8107	19.3436	-5.76887	0	
1.8113	17.1967	-3.63914	0	
1.8120	10.7984	0.640985	0	
1.8127	5.29293	-0.889109	0	
1.8133	0.403878	-3.01883	0	
1.8140	-2.33824	-0.2688	0	
1.8147	-2.93343	1.26129	0	
1.8153	-7.52489	-1.19926	0	
1.8160	-12.3927	-2.70868	0	
1.8167	-9.65057	-0.889109	0	
1.8173	-7.82249	-0.578955	0	
1.8180	-12.3927	-1.79889	0	
1.8187	-13.9232	0.95114	0	
1.8193	-9.96942	2.77071	0	
1.8200	-8.73653	-0.2688	0	
1.8207	-9.65057	0.0413539	0	
1.8213	-8.43893	5.52075	0	
1.8220	-8.73653	5.8309	0	
1.8227	-9.35297	3.70117	0	
1.8233	-6.90845	5.52075	0	
1.8240	-5.37796	7.05084	0	
1.8247	-5.99441	4.61096	0	
1.8253	-6.61085	3.39102	0	
1.8260	-8.73653	3.70117	0	
1.8267	-9.05538	3.08087	0	
1.8273	-4.78277	2.77071	0	
1.8280	-4.16632	3.08087	0	
1.8287	-6.61085	4.92111	0	
1.8293	-2.93343	4.61096	0	
1.8300	1.02032	0.330831	0	
1.8307	-0.191311	-1.79889	0	
1.8313	-1.4242	-0.889109	0	
1.8320	-0.510162	-2.70868	0	
1.8327	-1.10535	-3.63914	0	
1.8333	-1.4242	-2.10905	0	
1.8340	-1.10535	-3.01883	0	
1.8347	-1.10535	-3.63914	0	
1.8353	-1.10535	-1.79889	0	
1.8360	-1.10535	-1.79889	0	
1.8367	-1.7218	-3.32899	0	
1.8373	1.33918	-2.70868	0	
1.8380	5.90938	-1.19926	0	
1.8387	7.73746	-1.48874	0	
1.8393	7.43987	-2.70868	0	
1.8400	7.73746	-3.63914	0	
1.8407	10.182	-2.70868	0	
1.8413	14.157	-3.32899	0	
1.8420	17.8132	-4.85908	0	
1.8427	18.4296	-3.01883	0	
1.8433	17.1967	-0.578955	0	
1.8440	19.0248	-3.01883	0	
1.8447	25.7419	-3.63914	0	
1.8453	29.1005	-1.48874	0	
1.8460	25.4443	-2.70868	0	
1.8467	21.7669	-3.63914	0	
1.8473	19.9388	-3.01883	0	
1.8480	14.7522	-4.54893	0	
1.8487	9.88439	-5.45871	0	
1.8493	6.82342	-2.70868	0	
1.8500	1.63677	-2.10905	0	
1.8507	-2.63584	-3.63914	0	
1.8513	-4.16632	-2.70868	0	
1.8520	-8.73653	-1.79889	0	
1.8527	-13.0091	-3.32899	0	
1.8533	-14.242	-2.4192	0	
1.8540	-17.6006	0.0413539	0	
1.8547	-21.8732	-2.10905	0	
1.8553	-21.8732	-5.45871	0	
1.8560	-20.9379	-3.63914	0	
1.8567	-21.8732	-0.578955	0	
1.8573	-21.8732	-1.79889	0	
1.8580	-20.3427	-1.48874	0	
1.8587	-18.8122	1.86093	0	
1.8593	-18.8122	2.77071	0	
1.8600	-16.9841	2.77071	0	
1.8607	-10.267	3.39102	0	
1.8613	-5.99441	0.95114	0	
1.8620	-8.43893	-0.2688	0	
1.8627	-8.43893	3.70117	0	
1.8633	-4.78277	7.65047	0	
1.8640	-5.37796	7.36099	0	
1.8647	-6.61085	6.43053	0	
1.8653	-5.69681	5.8309	0	
1.8660	-6.61085	4.61096	0	
1.8667	-7.20604	4.61096	0	
1.8673	-4.78277	3.99065	0	
1.8680	-2.93343	1.26129	0	
1.8687	-1.4242	0.0413539	0	
1.8693	2.25322	-0.2688	0	
1.8700	6.20697	-0.889109	0	
1.8707	9.56554	-1.48874	0	
1.8713	10.7984	-1.79889	0	
1.8720	10.7984	-1.79889	0	
1.8727	14.157	-3.63914	0	
1.8733	17.1967	-7.29896	0	
1.8740	12.6265	-7.89859	0	
1.8747	7.73746	-4.54893	0	
1.8753	9.26795	-4.54893	0	
1.8760	9.56554	-6.07902	0	
1.8767	5.29293	-3.63914	0	
1.8773	5.90938	-2.70868	0	
1.8780	7.12101	-3.63914	0	
1.8787	2.84841	-0.889109	0	
1.8793	0.72273	2.77071	0	
1.8800	2.55081	0.640985	0	
1.8807	1.33918	-1.19926	0	
1.8813	-4.16632	-0.889109	0	
1.8820	-7.52489	0.640985	0	
1.8827	-9.35297	2.77071	0	
1.8833	-7.20604	3.70117	0	
1.8840	-2.93343	2.17108	0	
1.8847	-2.01939	2.17108	0	
1.8853	-2.01939	3.08087	0	
1.8860	1.63677	2.48123	0	
1.8867	4.0813	2.77071	0	
1.8873	4.37889	3.39102	0	
1.8880	6.20697	1.55077	0	
1.8887	7.73746	0.640985	0	
1.8893	6.20697	2.77071	0	
1.8900	4.67649	2.77071	0	
1.8907	3.46485	0.330831	0	
1.8913	0.403878	-0.889109	0	
1.8920	-2.33824	0.330831	0	
1.8927	-3.54988	0.640985	0	
1.8933	-5.69681	-0.889109	0	
1.8940	-6.61085	-2.10905	0	
1.8947	-5.99441	-2.70868	0	
1.8953	-7.52489	-4.23877	0	
1.8960	-6.61085	-6.07902	0	
1.8967	-2.93343	-6.3685	0	
1.8973	-2.93343	-5.45871	0	
1.8980	-6.61085	-4.54893	0	
1.8987	-4.78277	-3.32899	0	
1.8993	1.33918	-2.10905	0	
1.9000	3.46485	-2.10905	0	
1.9007	3.76245	-1.79889	0	
1.9013	2.55081	-0.889109	0	
1.9020	1.63677	0.640985	0	
1.9027	2.55081	2.48123	0	
1.9033	4.99534	2.17108	0	
1.9040	4.67649	-0.2688	0	
1.9047	3.46485	-1.19926	0	
1.9053	4.0813	0.0413539	0	
1.9060	7.12101	0.0413539	0	
1.9067	9.88439	-0.889109	0	
1.9073	9.88439	0.95114	0	
1.9080	7.43987	1.86093	0	
1.9087	6.82342	-0.2688	0	
1.9093	7.12101	-2.10905	0	
1.9100	6.82342	-0.889109	0	
1.9107	5.29293	0.0413539	0	
1.9113	3.76245	-1.79889	0	
1.9120	3.16726	-1.48874	0	
1.9127	1.63677	-0.2688	0	
1.9133	-0.807757	-1.79889	0	
1.9140	-0.191311	-3.63914	0	
1.9147	1.63677	-3.63914	0	
1.9153	2.55081	-2.70868	0	
1.9160	4.99534	0.0413539	0	
1.9167	9.56554	0.0413539	0	
1.9173	10.7984	-3.32899	0	
1.9180	10.182	-4.54893	0	
1.9187	11.3936	-3.01883	0	
1.9193	11.7125	-3.63914	0	
1.9200	9.26795	-5.14856	0	
1.9207	7.73746	-3.01883	0	
1.9213	4.67649	-2.10905	0	
1.9220	-1.4242	-3.01883	0	
1.9227	-5.37796	-1.19926	0	
1.9233	-5.69681	0.640985	0	
1.9240	-10.5646	-0.578955	0	
1.9247	-18.5146	0.0413539	0	
1.9253	-19.7263	1.86093	0	
1.9260	-16.6653	1.55077	0	
1.9267	-16.6653	2.17108	0	
1.9273	-16.6653	5.52075	0	
1.9280	-14.5396	5.8309	0	
1.9287	-13.9232	4.30081	0	
1.9293	-13.0091	5.21059	0	
1.9300	-9.96942	5.21059	0	
1.9307	-9.05538	4.30081	0	
1.9313	-10.267	5.8309	0	
1.9320	-9.35297	6.14105	0	
1.9327	-4.78277	2.77071	0	
1.9333	-0.191311	0.640985	0	
1.9340	1.63677	0.95114	0	
1.9347	0.72273	0.640985	0	
1.9353	-0.510162	-1.48874	0	
1.9360	1.02032	-1.79889	0	
1.9367	0.72273	-0.2688	0	
1.9373	-1.4242	0.95114	0	
1.9380	-2.01939	1.55077	0	
1.9387	-3.25228	1.55077	0	
1.9393	-5.69681	0.640985	0	
1.9400	-5.69681	2.77071	0	
1.9407	-4.78277	6.14105	0	
1.9413	-5.99441	3.99065	0	
1.9420	-5.69681	1.86093	0	
1.9427	-3.25228	4.61096	0	
1.9433	-2.01939	4.92111	0	
1.9440	-0.191311	2.17108	0	
1.9447	-0.191311	2.77071	0	
1.9453	-1.10535	3.70117	0	
1.9460	1.33918	0.95114	0	
1.9467	4.99534	-0.578955	0	
1.9473	6.20697	-1.19926	0	
1.9480	7.43987	-2.10905	0	
1.9487	9.56554	-1.19926	0	
1.9493	10.7984	-1.48874	0	
1.9500	13.5406	-3.63914	0	
1.9507	15.6662	-4.54893	0	
1.9513	13.8381	-5.14856	0	
1.9520	12.0101	-6.67865	0	
1.9527	12.6265	-6.67865	0	
1.9533	11.3936	-6.07902	0	
1.9540	8.03505	-6.3685	0	
1.9547	5.61178	-6.07902	0	
1.9553	4.67649	-3.32899	0	
1.9560	4.67649	-2.4192	0	
1.9567	2.55081	-4.54893	0	
1.9573	-1.10535	-3.63914	0	
1.9580	-2.93343	1.26129	0	
1.9587	-3.86873	3.99065	0	
1.9593	-9.35297	2.77071	0	
1.9600	-13.9232	2.48123	0	
1.9607	-13.328	2.17108	0	
1.9613	-12.3927	0.330831	0	
1.9620	-13.6256	0.640985	0	
1.9627	-12.7115	2.48123	0	
1.9633	-9.65057	1.86093	0	
1.9640	-8.12008	0.95114	0	
1.9647	-7.52489	2.48123	0	
1.9653	-4.78277	4.30081	0	
1.9660	-1.4242	3.70117	0	
1.9667	-0.191311	2.77071	0	
1.9673	0.106284	3.08087	0	
1.9680	-1.4242	4.92111	0	
1.9687	-4.78277	6.43053	0	
1.9693	-4.16632	6.14105	0	
1.9700	-0.807757	2.48123	0	
1.9707	-0.807757	-1.79889	0	
1.9713	-1.7218	-0.2688	0	
1.9720	0.72273	1.86093	0	
1.9727	2.55081	-0.889109	0	
1.9733	3.76245	-3.01883	0	
1.9740	5.61178	-2.70868	0	
1.9747	4.37889	-4.23877	0	
1.9753	3.46485	-5.76887	0	
1.9760	8.03505	-3.63914	0	
1.9767	11.7125	-0.889109	0	
1.9773	10.182	-0.889109	0	
1.9780	9.26795	-1.79889	0	
1.9787	10.182	-2.70868	0	
1.9793	9.56554	-1.79889	0	
1.9800	6.82342	-0.889109	0	
1.9807	3.76245	-1.48874	0	
1.9813	2.55081	-1.19926	0	
1.9820	2.55081	0.0413539	0	
1.9827	1.63677	-0.889109	0	
1.9833	1.63677	-2.10905	0	
1.9840	6.20697	-2.70868	0	
1.9847	13.2217	-3.63914	0	
1.9853	18.1108	-3.92862	0	
1.9860	19.3436	-3.63914	0	
1.9867	17.1967	-3.32899	0	
1.9873	13.8381	-3.63914	0	
1.9880	11.3936	-3.32899	0	
1.9887	8.03505	-2.70868	0	
1.9893	3.16726	-4.23877	0	
1.9900	1.33918	-6.07902	0	
1.9907	0.72273	-4.85908	0	
1.9913	-2.93343	-2.70868	0	
1.9920	-7.82249	-3.63914	0	
1.9927	-8.43893	-4.85908	0	
1.9933	-9.05538	-5.14856	0	
1.9940	-11.7975	-4.54893	0	
1.9947	-11.1811	-2.10905	0	
1.9953	-8.43893	0.330831	0	
1.9960	-6.90845	-0.2688	0	
1.9967	-5.37796	-0.889109	0	
1.9973	-0.510162	0.330831	0	
1.9980	3.46485	0.0413539	0	
1.9987	2.55081	-1.79889	0	
1.9993	0.106284	-0.889109	0	
2.0000	-1.10535	2.77071	0	
2.0007	-2.63584	3.70117	0	
2.0013	-5.99441	3.70117	0	
2.0020	-10.267	4.92111	0	
2.0027	-13.328	6.14105	0	
2.0033	-14.8372	5.21059	0	
2.0040	-14.8372	3.70117	0	
2.0047	-14.242	3.70117	0	
2.0053	-15.7513	4.30081	0	
2.0060	-18.5146	3.70117	0	
2.0067	-20.0239	1.86093	0	
2.0073	-19.4287	0.0413539	0	
2.0080	-18.5146	0.330831	0	
2.0087	-17.6006	2.48123	0	
2.0093	-14.8372	1.86093	0	
2.0100	-11.4786	-0.889109	0	
2.0107	-11.1811	-1.79889	0	
2.0113	-13.0091	0.330831	0	
2.0120	-12.3927	2.48123	0	
2.0127	-9.96942	2.77071	0	
2.0133	-7.52489	2.48123	0	
2.0140	-5.37796	3.70117	0	
2.0147	-1.10535	5.52075	0	
2.0153	2.55081	5.21059	0	
2.0160	3.46485	3.99065	0	
2.0167	4.67649	2.77071	0	
2.0173	7.43987	0.95114	0	
2.0180	10.182	-0.889109	0	
2.0187	11.7125	-1.19926	0	
2.0193	12.3077	-0.889109	0	
2.0200	14.4546	-2.70868	0	
2.0207	19.0248	-3.32899	0	
2.0213	20.8529	-1.79889	0	
2.0220	20.2577	0.95114	0	
2.0227	21.4693	3.99065	0	
2.0233	19.0248	2.77071	0	
2.0240	12.9241	-1.19926	0	
2.0247	14.157	-1.19926	0	
2.0253	18.7272	0.330831	0	
2.0260	15.071	-0.2688	0	
2.0267	8.9491	0.330831	0	
2.0273	8.9491	1.86093	0	
2.0280	7.73746	-0.889109	0	
2.0287	2.84841	-1.79889	0	
2.0293	-2.01939	1.86093	0	
2.0300	-6.90845	2.17108	0	
2.0307	-10.5646	-0.889109	0	
2.0313	-13.0091	-1.79889	0	
2.0320	-14.8372	-0.2688	0	
2.0327	-13.0091	-0.889109	0	
2.0333	-7.52489	-1.79889	0	
2.0340	-7.52489	-2.10905	0	
2.0347	-9.65057	-3.01883	0	
2.0353	-8.73653	-3.63914	0	
2.0360	-8.43893	-3.63914	0	
2.0367	-9.96942	-2.4192	0	
2.0373	-7.52489	0.0413539	0	
2.0380	-3.86873	1.55077	0	
2.0387	-2.33824	1.26129	0	
2.0393	-0.191311	2.77071	0	
2.0400	2.55081	4.30081	0	
2.0407	4.37889	2.17108	0	
2.0413	5.29293	1.55077	0	
2.0420	7.73746	3.70117	0	
2.0427	12.3077	2.77071	0	
2.0433	18.1108	1.26129	0	
2.0440	20.8529	2.77071	0	
2.0447	21.7669	2.77071	0	
2.0453	21.1717	2.48123	0	
2.0460	16.8991	4.92111	0	
2.0467	11.3936	3.70117	0	
2.0473	7.73746	-1.19926	0	
2.0480	2.25322	-0.889109	0	
2.0487	-5.08037	2.48123	0	
2.0493	-8.43893	0.95114	0	
2.0500	-9.96942	-1.79889	0	
2.0507	-13.0091	-2.4192	0	
2.0513	-15.7513	-2.4192	0	
2.0520	-16.9841	-1.79889	0	
2.0527	-19.4287	0.0413539	0	
2.0533	-21.8732	1.55077	0	
2.0540	-21.5544	1.26129	0	
2.0547	-20.6403	0.0413539	0	
2.0553	-19.4287	0.330831	0	
2.0560	-15.7513	0.640985	0	
2.0567	-11.4786	-2.4192	0	
2.0573	-8.12008	-4.85908	0	
2.0580	-3.25228	-3.63914	0	
2.0587	3.46485	-3.63914	0	
2.0593	8.9491	-6.98881	0	
2.0600	11.7125	-7.58844	0	
2.0607	15.3686	-4.23877	0	
2.0613	19.6412	-1.48874	0	
2.0620	22.9998	-0.889109	0	
2.0627	23.9139	-1.79889	0	
2.0633	24.8279	-1.79889	0	
2.0640	26.656	-0.578955	0	
2.0647	25.7419	0.0413539	0	
2.0653	21.7669	0.0413539	0	
2.0660	18.7272	0.0413539	0	
2.0667	13.5406	0.640985	0	
2.0673	5.29293	3.39102	0	
2.0680	-0.510162	4.61096	0	
2.0687	-3.86873	1.26129	0	
2.0693	-8.43893	-1.19926	0	
2.0700	-14.5396	-0.578955	0	
2.0707	-20.3427	-0.889109	0	
2.0713	-25.5294	-0.2688	0	
2.0720	-26.1458	1.86093	0	
2.0727	-25.827	1.86093	0	
2.0733	-30.4184	1.86093	0	
2.0740	-32.2465	4.30081	0	
2.0747	-23.7013	3.70117	0	
2.0753	-16.6653	1.55077	0	
2.0760	-16.9841	2.48123	0	
2.0767	-15.1561	2.48123	0	
2.0773	-9.96942	0.0413539	0	
2.0780	-7.52489	1.55077	0	
2.0787	-6.90845	3.70117	0	
2.0793	-7.52489	1.26129	0	
2.0800	-9.05538	0.330831	0	
2.0807	-8.12008	3.70117	0	
2.0813	-4.46392	3.39102	0	
2.0820	-2.33824	0.0413539	0	
2.0827	-2.01939	0.330831	0	
2.0833	-1.10535	2.17108	0	
2.0840	0.106284	0.0413539	0	
2.0847	2.55081	-2.70868	0	
2.0853	5.29293	-2.10905	0	
2.0860	8.03505	0.0413539	0	
2.0867	10.4796	1.26129	0	
2.0873	10.182	1.86093	0	
2.0880	8.03505	2.17108	0	
2.0887	8.03505	1.86093	0	
2.0893	8.6515	0.330831	0	
2.0900	6.20697	0.0413539	0	
2.0907	4.0813	-1.19926	0	
2.0913	4.0813	-2.70868	0	
2.0920	4.37889	-0.889109	0	
2.0927	3.46485	0.0413539	0	
2.0933	0.106284	-2.4192	0	
2.0940	-2.93343	-3.32899	0	
2.0947	0.106284	-1.19926	0	
2.0953	6.20697	-1.79889	0	
2.0960	10.4796	-3.63914	0	
2.0967	15.071	-3.63914	0	
2.0973	21.7669	-5.45871	0	
2.0980	28.1865	-6.07902	0	
2.0987	35.52	-3.92862	0	
2.0993	44.3629	-6.3685	0	
2.1000	48.019	-10.049	0	
2.1007	44.3629	-7.29896	0	
2.1013	38.5598	-5.45871	0	
2.1020	34.2872	-8.20875	0	
2.1027	28.8029	-9.11853	0	
2.1033	22.9998	-8.5189	0	
2.1040	18.7272	-8.20875	0	
2.1047	11.7125	-4.23877	0	
2.1053	0.403878	-0.2688	0	
2.1060	-11.1811	-0.2688	0	
2.1067	-19.7263	0.0413539	0	
2.1073	-25.827	2.77071	0	
2.1080	-30.4184	4.61096	0	
2.1087	-35.9027	5.52075	0	
2.1093	-43.5338	7.36099	0	
2.1100	-49.0181	9.80087	0	
2.1107	-48.7205	13.1505	0	
2.1113	-44.4479	14.9908	0	
2.1120	-41.0893	12.8404	0	
2.1127	-38.3472	9.18056	0	
2.1133	-34.0746	7.36099	0	
2.1140	-26.4434	6.43053	0	
2.1147	-17.6006	4.61096	0	
2.1153	-11.4786	2.77071	0	
2.1160	-7.52489	2.48123	0	
2.1167	-4.78277	2.77071	0	
2.1173	-4.16632	1.86093	0	
2.1180	-3.86873	0.330831	0	
2.1187	-2.63584	0.0413539	0	
2.1193	-0.191311	-0.889109	0	
2.1200	2.55081	-1.79889	0	
2.1207	4.37889	-0.889109	0	
2.1213	2.55081	-0.2688	0	
2.1220	0.72273	-1.48874	0	
2.1227	1.93436	-0.889109	0	
2.1233	2.25322	-0.889109	0	
2.1240	0.72273	-2.70868	0	
2.1247	1.02032	-3.63914	0	
2.1253	2.55081	-2.70868	0	
2.1260	1.63677	-1.79889	0	
2.1267	0.72273	-2.4192	0	
2.1273	1.93436	-3.63914	0	
2.1280	1.93436	-3.32899	0	
2.1287	0.106284	-0.889109	0	
2.1293	0.72273	-0.2688	0	
2.1300	2.55081	-0.578955	0	
2.1307	0.72273	0.95114	0	
2.1313	1.02032	1.26129	0	
2.1320	5.29293	0.330831	0	
2.1327	7.12101	1.86093	0	
2.1333	6.20697	1.86093	0	
2.1340	9.56554	-1.79889	0	
2.1347	12.0101	-2.4192	0	
2.1353	9.88439	0.95114	0	
2.1360	8.9491	0.95114	0	
2.1367	9.88439	-2.4192	0	
2.1373	8.03505	-4.85908	0	
2.1380	7.73746	-4.23877	0	
2.1387	10.182	-2.70868	0	
2.1393	7.73746	-3.63914	0	
2.1400	3.16726	-5.14856	0	
2.1407	2.25322	-2.10905	0	
2.1413	2.25322	1.55077	0	
2.1420	1.63677	3.08087	0	
2.1427	-0.191311	3.70117	0	
2.1433	-2.93343	2.77071	0	
2.1440	0.72273	1.55077	0	
2.1447	5.61178	0.640985	0	
2.1453	2.25322	-0.578955	0	
2.1460	-1.7218	-0.2688	0	
2.1467	1.02032	1.86093	0	
2.1473	0.72273	1.26129	0	
2.1480	-2.63584	-1.79889	0	
2.1487	-0.191311	-3.01883	0	
2.1493	1.63677	-2.70868	0	
2.1500	-2.63584	-2.4192	0	
2.1507	-5.99441	-1.79889	0	
2.1513	-5.08037	-3.63914	0	
2.1520	-3.86873	-4.85908	0	
2.1527	-4.78277	-3.01883	0	
2.1533	-6.90845	-2.70868	0	
2.1540	-6.61085	-5.45871	0	
2.1547	-5.37796	-4.54893	0	
2.1553	-4.78277	-0.889109	0	
2.1560	-3.54988	2.48123	0	
2.1567	-2.01939	4.30081	0	
2.1573	-2.93343	3.70117	0	
2.1580	-4.46392	1.26129	0	
2.1587	-3.86873	0.330831	0	
2.1593	-2.93343	0.95114	0	
2.1600	-2.93343	1.86093	0	
2.1607	-2.33824	3.70117	0	
2.1613	0.106284	3.08087	0	
2.1620	2.84841	0.0413539	0	
2.1627	4.67649	0.95114	0	
2.1633	5.61178	5.21059	0	
2.1640	6.20697	5.52075	0	
2.1647	5.29293	2.48123	0	
2.1653	4.37889	-0.889109	0	
2.1660	4.37889	-2.4192	0	
2.1667	5.90938	-1.19926	0	
2.1673	11.096	-0.578955	0	
2.1680	17.8132	-1.79889	0	
2.1687	19.0248	-2.70868	0	
2.1693	16.5803	-3.63914	0	
2.1700	17.1967	-5.76887	0	
2.1707	20.5553	-5.45871	0	
2.1713	22.7022	-4.85908	0	
2.1720	23.9139	-5.45871	0	
2.1727	22.0858	-5.45871	0	
2.1733	15.6662	-5.45871	0	
2.1740	11.3936	-5.14856	0	
2.1747	9.88439	-4.23877	0	
2.1753	4.0813	-5.14856	0	
2.1760	-3.25228	-6.3685	0	
2.1767	-7.20604	-2.70868	0	
2.1773	-11.1811	-0.889109	0	
2.1780	-16.6653	-3.01883	0	
2.1787	-21.2568	0.640985	0	
2.1793	-26.4434	6.74069	0	
2.1800	-26.4434	5.8309	0	
2.1807	-21.2568	3.70117	0	
2.1813	-20.9379	6.43053	0	
2.1820	-23.7013	8.58093	0	
2.1827	-20.6403	9.80087	0	
2.1833	-17.6006	10.111	0	
2.1840	-18.1958	7.36099	0	
2.1847	-14.5396	4.61096	0	
2.1853	-11.7975	5.21059	0	
2.1860	-13.9232	5.52075	0	
2.1867	-14.5396	3.99065	0	
2.1873	-12.0951	2.17108	0	
2.1880	-9.96942	0.0413539	0	
2.1887	-7.20604	-0.578955	0	
2.1893	-5.08037	-0.2688	0	
2.1900	-4.16632	-2.10905	0	
2.1907	-1.10535	-3.63914	0	
2.1913	2.25322	-2.70868	0	
2.1920	3.46485	-2.70868	0	
2.1927	4.99534	-4.23877	0	
2.1933	5.29293	-5.76887	0	
2.1940	5.29293	-6.67865	0	
2.1947	9.88439	-6.3685	0	
2.1953	14.4546	-4.54893	0	
2.1960	12.9241	-3.32899	0	
2.1967	10.4796	-3.01883	0	
2.1973	11.7125	-3.63914	0	
2.1980	11.3936	-2.70868	0	
2.1987	8.03505	-0.889109	0	
2.1993	7.73746	-1.48874	0	
2.2000	7.73746	-3.63914	0	
2.2007	4.0813	-2.10905	0	
2.2013	2.55081	0.640985	0	
2.2020	6.20697	0.95114	0	
2.2027	9.56554	1.26129	0	
2.2033	10.7984	0.95114	0	
2.2040	8.9491	-1.19926	0	
2.2047	4.99534	0.0413539	0	
2.2053	4.0813	3.70117	0	
2.2060	7.73746	3.70117	0	
2.2067	10.7984	0.0413539	0	
2.2073	10.7984	0.0413539	0	
2.2080	9.88439	0.330831	0	
2.2087	9.26795	-1.19926	0	
2.2093	8.9491	-2.70868	0	
2.2100	8.9491	-2.70868	0	
2.2107	7.43987	-3.63914	0	
2.2113	5.29293	-4.85908	0	
2.2120	3.16726	-6.3685	0	
2.2127	0.106284	-5.45871	0	
2.2133	-4.16632	-3.92862	0	
2.2140	-7.82249	-3.92862	0	
2.2147	-11.4786	-3.63914	0	
2.2153	-15.7513	-2.70868	0	
2.2160	-18.1958	-1.79889	0	
2.2167	-19.4287	0.0413539	0	
2.2173	-22.1708	2.17108	0	
2.2180	-25.5294	2.77071	0	
2.2187	-25.827	3.39102	0	
2.2193	-22.7872	4.61096	0	
2.2200	-18.5146	3.08087	0	
2.2207	-13.9232	2.77071	0	
2.2213	-9.96942	6.74069	0	
2.2220	-7.52489	6.14105	0	
2.2227	-4.46392	0.95114	0	
2.2233	-1.7218	1.86093	0	
2.2240	-0.191311	4.92111	0	
2.2247	2.55081	3.99065	0	
2.2253	4.99534	3.39102	0	
2.2260	4.67649	1.86093	0	
2.2267	3.76245	-0.2688	0	
2.2273	6.20697	2.48123	0	
2.2280	7.43987	3.70117	0	
2.2287	6.20697	-0.2688	0	
2.2293	4.37889	-0.2688	0	
2.2300	1.63677	2.17108	0	
2.2307	-0.807757	-0.2688	0	
2.2313	1.93436	-1.48874	0	
2.2320	4.37889	0.0413539	0	
2.2327	-0.191311	-2.4192	0	
2.2333	-1.7218	-5.14856	0	
2.2340	4.67649	-3.92862	0	
2.2347	7.12101	-1.79889	0	
2.2353	1.63677	0.0413539	0	
2.2360	-0.510162	-0.2688	0	
2.2367	2.55081	-3.63914	0	
2.2373	4.0813	-3.92862	0	
2.2380	3.46485	-2.10905	0	
2.2387	1.93436	-1.79889	0	
2.2393	-1.4242	-2.4192	0	
2.2400	-2.01939	-3.32899	0	
2.2407	0.403878	-3.63914	0	
2.2413	-1.7218	-1.79889	0	
2.2420	-6.61085	0.330831	0	
2.2427	-6.61085	1.86093	0	
2.2433	-3.86873	4.30081	0	
2.2440	-3.54988	5.8309	0	
2.2447	-2.93343	3.39102	0	
2.2453	-2.93343	0.640985	0	
2.2460	-6.90845	1.26129	0	
2.2467	-8.43893	2.17108	0	
2.2473	-4.78277	0.95114	0	
2.2480	-2.93343	0.640985	0	
2.2487	-4.46392	0.640985	0	
2.2493	-3.86873	-0.2688	0	
2.2500	-3.54988	0.330831	0	
2.2507	-3.86873	2.77071	0	
2.2513	-1.4242	2.48123	0	
2.2520	2.55081	0.330831	0	
2.2527	4.37889	0.0413539	0	
2.2533	4.99534	-0.578955	0	
2.2540	5.61178	-2.4192	0	
2.2547	5.90938	-2.4192	0	
2.2553	5.61178	-1.79889	0	
2.2560	5.90938	-4.23877	0	
2.2567	7.12101	-6.3685	0	
2.2573	6.82342	-4.85908	0	
2.2580	6.20697	-3.63914	0	
2.2587	5.61178	-3.92862	0	
2.2593	4.67649	-3.92862	0	
2.2600	6.20697	-3.32899	0	
2.2607	8.35391	-3.01883	0	
2.2613	7.12101	-3.32899	0	
2.2620	3.76245	-2.4192	0	
2.2627	2.84841	1.26129	0	
2.2633	2.55081	3.99065	0	
2.2640	2.55081	3.08087	0	
2.2647	2.55081	2.17108	0	
2.2653	1.63677	2.77071	0	
2.2660	0.72273	1.86093	0	
2.2667	0.72273	0.95114	0	
2.2673	-1.4242	1.86093	0	
2.2680	-2.93343	1.26129	0	
2.2687	-1.7218	-0.889109	0	
2.2693	-3.86873	-1.48874	0	
2.2700	-7.52489	0.95114	0	
2.2707	-2.93343	0.0413539	0	
2.2713	3.46485	-3.32899	0	
2.2720	4.37889	-2.70868	0	
2.2727	5.29293	-0.2688	0	
2.2733	8.35391	-3.63914	0	
2.2740	8.9491	-7.89859	0	
2.2747	9.56554	-3.63914	0	
2.2753	11.096	-1.79889	0	
2.2760	8.9491	-5.45871	0	
2.2767	4.99534	-4.85908	0	
2.2773	5.29293	-2.10905	0	
2.2780	5.29293	-3.92862	0	
2.2787	2.25322	-2.70868	0	
2.2793	0.403878	1.26129	0	
2.2800	-2.33824	-0.578955	0	
2.2807	-8.12008	-2.70868	0	
2.2813	-9.65057	0.0413539	0	
2.2820	-7.52489	1.55077	0	
2.2827	-5.69681	1.86093	0	
2.2833	1.63677	2.17108	0	
2.2840	12.0101	-1.19926	0	
2.2847	15.3686	-3.01883	0	
2.2853	14.4546	-0.889109	0	
2.2860	15.3686	-0.2688	0	
2.2867	14.4546	-1.79889	0	
2.2873	9.88439	-1.48874	0	
2.2880	6.20697	0.0413539	0	
2.2887	2.55081	0.0413539	0	
2.2893	-2.63584	0.0413539	0	
2.2900	-9.35297	0.95114	0	
2.2907	-14.8372	1.55077	0	
2.2913	-17.6006	1.26129	0	
2.2920	-18.5146	-0.889109	0	
2.2927	-23.9989	-2.70868	0	
2.2933	-28.8879	-3.01883	0	
2.2940	-27.655	-0.889109	0	
2.2947	-25.2105	1.86093	0	
2.2953	-26.1458	3.08087	0	
2.2960	-27.655	3.70117	0	
2.2967	-25.5294	4.61096	0	
2.2973	-18.1958	3.39102	0	
2.2980	-8.73653	-1.19926	0	
2.2987	-2.01939	-4.85908	0	
2.2993	2.84841	-4.54893	0	
2.3000	8.03505	-1.19926	0	
2.3007	10.182	0.330831	0	
2.3013	12.6265	-1.19926	0	
2.3020	17.4943	0.0413539	0	
2.3027	17.4943	3.39102	0	
2.3033	13.5406	1.86093	0	
2.3040	14.4546	-0.578955	0	
2.3047	16.2827	2.17108	0	
2.3053	12.9241	3.39102	0	
2.3060	10.4796	-0.2688	0	
2.3067	10.182	-2.70868	0	
2.3073	7.43987	-3.32899	0	
2.3080	3.46485	-3.63914	0	
2.3087	1.93436	-2.70868	0	
2.3093	0.72273	-1.79889	0	
2.3100	-3.54988	-0.578955	0	
2.3107	-8.73653	2.77071	0	
2.3113	-7.82249	3.39102	0	
2.3120	-2.93343	0.640985	0	
2.3127	-2.33824	0.0413539	0	
2.3133	-3.25228	-0.2688	0	
2.3140	1.63677	-2.70868	0	
2.3147	5.90938	-3.63914	0	
2.3153	5.29293	-2.10905	0	
2.3160	4.99534	-0.889109	0	
2.3167	5.29293	0.0413539	0	
2.3173	2.25322	1.55077	0	
2.3180	-1.10535	2.17108	0	
2.3187	-2.33824	1.26129	0	
2.3193	-4.16632	1.26129	0	
2.3200	-8.12008	4.61096	0	
2.3207	-10.267	5.8309	0	
2.3213	-9.65057	3.08087	0	
2.3220	-10.267	2.48123	0	
2.3227	-13.9232	6.43053	0	
2.3233	-17.6006	8.89109	0	
2.3240	-17.6006	6.74069	0	
2.3247	-16.9841	3.39102	0	
2.3253	-16.9841	2.17108	0	
2.3260	-16.0701	3.70117	0	
2.3267	-13.0091	5.52075	0	
2.3273	-7.52489	6.43053	0	
2.3280	-1.10535	6.74069	0	
2.3287	3.46485	4.61096	0	
2.3293	6.20697	1.26129	0	
2.3300	10.4796	1.26129	0	
2.3307	13.5406	2.17108	0	
2.3313	11.7125	-0.2688	0	
2.3320	11.3936	-2.70868	0	
2.3327	13.8381	-1.79889	0	
2.3333	12.6265	-0.889109	0	
2.3340	9.56554	-1.79889	0	
2.3347	9.26795	-2.4192	0	
2.3353	8.6515	-1.79889	0	
2.3360	5.61178	-2.70868	0	
2.3367	3.76245	-3.63914	0	
2.3373	2.84841	-2.70868	0	
2.3380	3.16726	-2.70868	0	
2.3387	5.90938	-3.63914	0	
2.3393	8.03505	-3.92862	0	
2.3400	8.03505	-3.92862	0	
2.3407	9.88439	-2.4192	0	
2.3413	13.5406	-0.2688	0	
2.3420	14.157	-0.889109	0	
2.3427	11.7125	-0.889109	0	
2.3433	11.7125	1.26129	0	
2.3440	9.26795	1.86093	0	
2.3447	2.25322	0.95114	0	
2.3453	-0.191311	1.26129	0	
2.3460	0.72273	1.55077	0	
2.3467	-3.86873	0.640985	0	
2.3473	-5.69681	-1.19926	0	
2.3480	-2.01939	-3.01883	0	
2.3487	-3.86873	-3.32899	0	
2.3493	-7.52489	-2.70868	0	
2.3500	-4.78277	-3.63914	0	
2.3507	-5.08037	-3.92862	0	
2.3513	-9.35297	-3.01883	0	
2.3520	-8.43893	-3.63914	0	
2.3527	-6.61085	-4.85908	0	
2.3533	-8.43893	-5.14856	0	
2.3540	-6.292	-4.23877	0	
2.3547	-1.7218	-4.54893	0	
2.3553	-0.807757	-4.54893	0	
2.3560	-2.01939	-3.01883	0	
2.3567	-2.33824	-0.889109	0	
2.3573	-3.25228	0.0413539	0	
2.3580	-4.16632	1.26129	0	
2.3587	-4.78277	3.70117	0	
2.3593	-5.69681	4.92111	0	
2.3600	-7.52489	5.52075	0	
2.3607	-10.5646	6.43053	0	
2.3613	-13.6256	5.52075	0	
2.3620	-11.4786	3.08087	0	
2.3627	-7.20604	3.08087	0	
2.3633	-7.52489	6.43053	0	
2.3640	-8.73653	6.43053	0	
2.3647	-3.86873	3.39102	0	
2.3653	2.55081	4.30081	0	
2.3660	6.52582	7.05084	0	
2.3667	11.7125	4.30081	0	
2.3673	18.1108	0.0413539	0	
2.3680	21.4693	-1.79889	0	
2.3687	22.7022	-2.70868	0	
2.3693	23.9139	-2.4192	0	
2.3700	22.0858	-0.578955	0	
2.3707	18.1108	-0.889109	0	
2.3713	15.3686	-2.70868	0	
2.3720	14.4546	-4.23877	0	
2.3727	10.7984	-6.07902	0	
2.3733	6.20697	-6.3685	0	
2.3740	3.16726	-4.23877	0	
2.3747	-2.01939	-1.48874	0	
2.3753	-7.52489	0.0413539	0	
2.3760	-8.43893	-0.889109	0	
2.3767	-9.35297	-2.4192	0	
2.3773	-13.0091	-2.4192	0	
2.3780	-13.0091	-0.889109	0	
2.3787	-10.267	0.0413539	0	
2.3793	-10.8835	0.0413539	0	
2.3800	-10.5646	0.0413539	0	
2.3807	-7.52489	0.640985	0	
2.3813	-6.292	3.70117	0	
2.3820	-6.292	4.30081	0	
2.3827	-4.78277	0.95114	0	
2.3833	-3.25228	-0.889109	0	
2.3840	-5.08037	0.95114	0	
2.3847	-10.8835	3.39102	0	
2.3853	-15.7513	6.43053	0	
2.3860	-15.7513	7.36099	0	
2.3867	-15.1561	6.43053	0	
2.3873	-15.4537	7.05084	0	
2.3880	-13.328	7.65047	0	
2.3887	-9.35297	5.21059	0	
2.3893	-6.61085	2.77071	0	
2.3900	-6.292	2.77071	0	
2.3907	-5.69681	3.39102	0	
2.3913	-2.93343	0.95114	0	
2.3920	0.72273	-0.889109	0	
2.3927	3.16726	0.330831	0	
2.3933	4.0813	0.95114	0	
2.3940	3.16726	-2.70868	0	
2.3947	2.84841	-4.54893	0	
2.3953	3.76245	-2.70868	0	
2.3960	2.55081	-1.48874	0	
2.3967	2.55081	-2.70868	0	
2.3973	5.90938	-2.4192	0	
2.3980	6.20697	-1.19926	0	
2.3987	4.67649	-1.79889	0	
2.3993	7.12101	-2.70868	0	
2.4000	8.03505	-2.70868	0	
2.4007	7.12101	-1.79889	0	
2.4013	10.4796	-2.10905	0	
2.4020	12.6265	-1.48874	0	
2.4027	9.26795	-0.2688	0	
2.4033	6.20697	-1.48874	0	
2.4040	5.61178	-2.10905	0	
2.4047	3.76245	0.0413539	0	
2.4053	0.72273	0.95114	0	
2.4060	-0.510162	-0.578955	0	
2.4067	0.403878	-0.889109	0	
2.4073	-0.191311	0.0413539	0	
2.4080	-2.01939	-0.2688	0	
2.4087	0.403878	-0.889109	0	
2.4093	4.99534	-2.10905	0	
2.4100	5.61178	-1.79889	0	
2.4107	3.46485	0.95114	0	
2.4113	2.55081	1.86093	0	
2.4120	1.93436	-1.79889	0	
2.4127	1.93436	-5.45871	0	
2.4133	2.84841	-5.14856	0	
2.4140	3.16726	-4.54893	0	
2.4147	4.0813	-5.45871	0	
2.4153	4.37889	-3.63914	0	
2.4160	2.55081	-0.2688	0	
2.4167	0.72273	0.0413539	0	
2.4173	-2.01939	-3.32899	0	
2.4180	-5.99441	-3.63914	0	
2.4187	-6.61085	-2.70868	0	
2.4193	-6.292	-3.01883	0	
2.4200	-11.7975	-3.32899	0	
2.4207	-17.6006	-1.48874	0	
2.4213	-16.6653	0.95114	0	
2.4220	-16.3677	3.08087	0	
2.4227	-18.1958	5.52075	0	
2.4233	-15.7513	5.52075	0	
2.4240	-11.1811	3.70117	0	
2.4247	-12.7115	2.77071	0	
2.4253	-15.7513	1.86093	0	
2.4260	-13.6256	1.55077	0	
2.4267	-8.73653	1.55077	0	
2.4273	-7.52489	0.0413539	0	
2.4280	-2.63584	-1.79889	0	
2.4287	8.6515	-1.79889	0	
2.4293	16.2827	-0.889109	0	
2.4300	16.5803	-1.48874	0	
2.4307	16.2827	-1.48874	0	
2.4313	16.2827	-1.79889	0	
2.4320	13.8381	-2.4192	0	
2.4327	11.7125	-3.01883	0	
2.4333	8.9491	-3.63914	0	
2.4340	6.20697	-3.32899	0	
2.4347	3.76245	-2.4192	0	
2.4353	-0.510162	-2.4192	0	
2.4360	-4.78277	-0.889109	0	
2.4367	-5.37796	2.77071	0	
2.4373	-8.43893	2.77071	0	
2.4380	-12.0951	2.77071	0	
2.4387	-10.267	5.52075	0	
2.4393	-10.267	6.43053	0	
2.4400	-14.8372	3.70117	0	
2.4407	-12.3927	5.52075	0	
2.4413	-5.99441	7.65047	0	
2.4420	-5.99441	5.52075	0	
2.4427	-6.61085	5.8309	0	
2.4433	-4.46392	7.36099	0	
2.4440	-4.78277	5.21059	0	
2.4447	-5.08037	3.70117	0	
2.4453	-1.4242	5.21059	0	
2.4460	1.63677	3.70117	0	
2.4467	1.63677	2.48123	0	
2.4473	3.16726	3.08087	0	
2.4480	8.03505	1.55077	0	
2.4487	9.88439	-0.578955	0	
2.4493	8.03505	0.0413539	0	
2.4500	9.26795	-0.889109	0	
2.4507	15.3686	-3.63914	0	
2.4513	17.1967	-5.45871	0	
2.4520	15.6662	-7.29896	0	
2.4527	17.8132	-7.29896	0	
2.4533	20.5553	-6.3685	0	
2.4540	21.1717	-5.45871	0	
2.4547	22.7022	-5.45871	0	
2.4553	23.6163	-5.45871	0	
2.4560	21.7669	-6.07902	0	
2.4567	18.1108	-5.76887	0	
2.4573	12.9241	-5.14856	0	
2.4580	9.56554	-5.45871	0	
2.4587	9.26795	-4.54893	0	
2.4593	5.29293	-0.578955	0	
2.4600	-2.01939	2.17108	0	
2.4607	-3.86873	0.95114	0	
2.4613	-6.292	0.0413539	0	
2.4620	-12.0951	3.39102	0	
2.4627	-13.9232	6.74069	0	
2.4633	-13.9232	4.61096	0	
2.4640	-16.0701	1.55077	0	
2.4647	-15.1561	3.70117	0	
2.4653	-13.9232	7.05084	0	
2.4660	-16.6653	4.92111	0	
2.4667	-16.0701	0.640985	0	
2.4673	-11.1811	0.0413539	0	
2.4680	-10.267	1.55077	0	
2.4687	-10.267	1.26129	0	
2.4693	-7.82249	0.95114	0	
2.4700	-9.05538	2.77071	0	
2.4707	-9.35297	3.70117	0	
2.4713	-5.08037	1.86093	0	
2.4720	-2.01939	-1.19926	0	
2.4727	-1.10535	-3.63914	0	
2.4733	0.72273	-4.54893	0	
2.4740	1.33918	-3.63914	0	
2.4747	2.55081	-3.63914	0	
2.4753	7.43987	-4.54893	0	
2.4760	11.3936	-2.70868	0	
2.4767	12.6265	-3.32899	0	
2.4773	15.071	-5.45871	0	
2.4780	15.071	-5.45871	0	
2.4787	12.3077	-4.54893	0	
2.4793	11.3936	-4.85908	0	
2.4800	10.7984	-5.14856	0	
2.4807	8.03505	-5.45871	0	
2.4813	5.29293	-3.63914	0	
2.4820	3.16726	-0.2688	0	
2.4827	-0.191311	0.640985	0	
2.4833	-3.86873	0.640985	0	
2.4840	-5.99441	3.70117	0	
2.4847	-4.78277	6.43053	0	
2.4853	-4.16632	4.61096	0	
2.4860	-6.61085	2.77071	0	
2.4867	-7.82249	2.77071	0	
2.4873	-3.86873	1.26129	0	
2.4880	1.02032	0.95114	0	
2.4887	3.76245	2.48123	0	
2.4893	6.52582	1.55077	0	
2.4900	8.6515	-0.889109	0	
2.4907	6.82342	-1.48874	0	
2.4913	2.55081	-3.63914	0	
2.4920	0.72273	-6.3685	0	
2.4927	1.63677	-3.92862	0	
2.4933	1.02032	-0.578955	0	
2.4940	-2.93343	-3.01883	0	
2.4947	-5.99441	-6.3685	0	
2.4953	-8.43893	-6.3685	0	
2.4960	-11.4786	-3.92862	0	
2.4967	-13.9232	-2.10905	0	
2.4973	-15.4537	-1.79889	0	
2.4980	-16.0701	-0.889109	0	
2.4987	-13.0091	0.95114	0	
2.4993	-9.05538	-0.2688	0	
2.5000	-9.35297	-2.10905	0	
2.5007	-10.267	0.95114	0	
2.5013	-9.96942	3.39102	0	
2.5020	-10.8835	1.55077	0	
2.5027	-8.73653	3.08087	0	
2.5033	-4.78277	8.58093	0	
2.5040	-5.37796	10.4005	0	
2.5047	-3.86873	8.58093	0	
2.5053	2.55081	6.74069	0	
2.5060	5.29293	4.92111	0	
2.5067	4.0813	4.61096	0	
2.5073	6.52582	5.52075	0	
2.5080	7.12101	3.70117	0	
2.5087	4.67649	0.95114	0	
2.5093	4.37889	1.55077	0	
2.5100	2.84841	2.77071	0	
2.5107	-0.191311	0.95114	0	
2.5113	0.72273	-1.19926	0	
2.5120	3.76245	-1.79889	0	
2.5127	5.90938	-0.889109	0	
2.5133	7.43987	0.0413539	0	
2.5140	7.73746	-2.4192	0	
2.5147	6.52582	-6.3685	0	
2.5153	6.52582	-6.07902	0	
2.5160	6.82342	-1.48874	0	
2.5167	4.67649	0.0413539	0	
2.5173	2.55081	-1.79889	0	
2.5180	1.63677	-1.79889	0	
2.5187	-0.191311	0.95114	0	
2.5193	-1.7218	2.17108	0	
2.5200	0.106284	0.0413539	0	
2.5207	2.55081	-2.4192	0	
2.5213	2.55081	-1.79889	0	
2.5220	2.25322	-0.2688	0	
2.5227	2.25322	0.95114	0	
2.5233	-0.510162	1.26129	0	
2.5240	-1.10535	0.330831	0	
2.5247	2.55081	1.55077	0	
2.5253	3.76245	1.86093	0	
2.5260	3.46485	-1.79889	0	
2.5267	3.16726	-3.63914	0	
2.5273	0.72273	-1.79889	0	
2.5280	-2.93343	-1.79889	0	
2.5287	-4.16632	-2.70868	0	
2.5293	-7.20604	-0.578955	0	
2.5300	-8.12008	-0.578955	0	
2.5307	-4.16632	-2.10905	0	
2.5313	-5.08037	0.0413539	0	
2.5320	-10.8835	0.95114	0	
2.5327	-9.65057	-1.79889	0	
2.5333	-4.78277	-2.70868	0	
2.5340	-4.78277	-1.48874	0	
2.5347	-3.54988	-0.889109	0	
2.5353	1.63677	-2.10905	0	
2.5360	5.29293	-4.54893	0	
2.5367	5.29293	-4.85908	0	
2.5373	4.67649	-1.79889	0	
2.5380	6.82342	0.0413539	0	
2.5387	10.7984	-1.79889	0	
2.5393	11.096	-3.32899	0	
2.5400	10.182	-2.70868	0	
2.5407	14.4546	-3.01883	0	
2.5413	19.6412	-4.54893	0	
2.5420	21.1717	-5.45871	0	
2.5427	24.8279	-4.85908	0	
2.5433	27.2724	-3.63914	0	
2.5440	21.4693	-2.70868	0	
2.5447	16.2827	-0.889109	0	
2.5453	14.7522	0.640985	0	
2.5460	8.03505	-1.48874	0	
2.5467	-2.01939	-4.23877	0	
2.5473	-8.43893	-3.32899	0	
2.5480	-12.3927	-0.578955	0	
2.5487	-16.0701	0.640985	0	
2.5493	-18.8122	0.640985	0	
2.5500	-21.2568	-0.578955	0	
2.5507	-22.4684	-1.19926	0	
2.5513	-21.5544	-0.2688	0	
2.5520	-20.3427	0.330831	0	
2.5527	-19.1098	2.17108	0	
2.5533	-18.5146	4.61096	0	
2.5540	-19.1098	3.70117	0	
2.5547	-16.6653	1.86093	0	
2.5553	-12.0951	3.99065	0	
2.5560	-9.96942	3.70117	0	
2.5567	-6.61085	0.640985	0	
2.5573	-1.10535	1.26129	0	
2.5580	-0.510162	1.86093	0	
2.5587	-2.63584	-0.2688	0	
2.5593	-3.25228	0.640985	0	
2.5600	-7.20604	1.86093	0	
2.5607	-11.4786	0.0413539	0	
2.5613	-10.267	0.95114	0	
2.5620	-10.5646	3.70117	0	
2.5627	-14.242	3.70117	0	
2.5633	-11.7975	2.48123	0	
2.5640	-6.61085	2.77071	0	
2.5647	-8.43893	3.70117	0	
2.5653	-9.35297	4.61096	0	
2.5660	-4.78277	4.30081	0	
2.5667	-1.10535	4.61096	0	
2.5673	-1.4242	6.43053	0	
2.5680	-1.10535	7.05084	0	
2.5687	0.106284	5.52075	0	
2.5693	2.25322	3.70117	0	
2.5700	5.29293	1.86093	0	
2.5707	5.29293	0.0413539	0	
2.5713	3.16726	-0.2688	0	
2.5720	4.0813	-2.70868	0	
2.5727	5.29293	-4.54893	0	
2.5733	4.0813	-3.63914	0	
2.5740	4.37889	-2.10905	0	
2.5747	4.99534	-4.23877	0	
2.5753	3.16726	-5.14856	0	
2.5760	4.37889	-3.63914	0	
2.5767	12.3077	-4.54893	0	
2.5773	20.2577	-7.29896	0	
2.5780	22.9998	-8.82906	0	
2.5787	25.4443	-8.20875	0	
2.5793	26.9748	-6.67865	0	
2.5800	23.6163	-6.07902	0	
2.5807	19.9388	-6.07902	0	
2.5813	19.9388	-4.85908	0	
2.5820	16.8991	-3.63914	0	
2.5827	11.7125	-3.63914	0	
2.5833	9.56554	-3.63914	0	
2.5840	4.37889	-3.01883	0	
2.5847	-4.78277	-2.70868	0	
2.5853	-8.12008	0.330831	0	
2.5860	-9.96942	3.39102	0	
2.5867	-16.3677	1.26129	0	
2.5873	-20.0239	0.95114	0	
2.5880	-21.2568	6.14105	0	
2.5887	-25.827	7.96063	0	
2.5893	-26.741	5.8309	0	
2.5900	-21.8732	7.65047	0	
2.5907	-23.0848	9.18056	0	
2.5913	-25.827	6.43053	0	
2.5920	-18.8122	4.61096	0	
2.5927	-10.267	2.17108	0	
2.5933	-8.12008	-1.48874	0	
2.5940	-5.69681	-1.19926	0	
2.5947	-3.86873	0.330831	0	
2.5953	-3.86873	0.95114	0	
2.5960	-2.01939	1.86093	0	
2.5967	0.106284	1.55077	0	
2.5973	-0.191311	0.0413539	0	
2.5980	2.55081	0.95114	0	
2.5987	8.03505	1.55077	0	
2.5993	7.12101	-0.889109	0	
2.6000	4.37889	-2.70868	0	
2.6007	5.90938	-2.4192	0	
2.6013	5.90938	-1.19926	0	
2.6020	5.29293	-1.19926	0	
2.6027	8.03505	-1.48874	0	
2.6033	8.9491	1.86093	0	
2.6040	5.29293	4.30081	0	
2.6047	3.46485	1.86093	0	
2.6053	6.82342	-0.2688	0	
2.6060	12.0101	0.640985	0	
2.6067	13.8381	-0.889109	0	
2.6073	13.5406	-3.63914	0	
2.6080	18.4296	-3.92862	0	
2.6087	25.7419	-4.23877	0	
2.6093	25.4443	-3.63914	0	
2.6100	21.4693	-2.10905	0	
2.6107	21.7669	-4.54893	0	
2.6113	20.8529	-7.29896	0	
2.6120	16.5803	-4.54893	0	
2.6127	12.3077	-3.01883	0	
2.6133	6.52582	-6.07902	0	
2.6140	0.106284	-6.07902	0	
2.6147	-5.08037	-1.79889	0	
2.6153	-10.267	2.48123	0	
2.6160	-15.7513	3.08087	0	
2.6167	-18.1958	1.55077	0	
2.6173	-20.3427	-0.889109	0	
2.6180	-26.1458	-0.889109	0	
2.6187	-31.6301	1.86093	0	
2.6193	-32.8417	3.99065	0	
2.6200	-30.4184	6.43053	0	
2.6207	-26.741	10.111	0	
2.6213	-23.0848	11.0208	0	
2.6220	-19.4287	7.65047	0	
2.6227	-14.8372	5.21059	0	
2.6233	-9.35297	6.43053	0	
2.6240	-3.25228	8.89109	0	
2.6247	2.55081	8.27078	0	
2.6253	9.56554	4.92111	0	
2.6260	19.9388	0.95114	0	
2.6267	27.2724	-1.19926	0	
2.6273	26.3584	-0.889109	0	
2.6280	23.2974	-2.70868	0	
2.6287	23.2974	-5.45871	0	
2.6293	19.9388	-4.23877	0	
2.6300	13.2217	0.0413539	0	
2.6307	8.9491	-1.79889	0	
2.6313	7.12101	-6.67865	0	
2.6320	4.67649	-5.45871	0	
2.6327	1.02032	-2.10905	0	
2.6333	-3.86873	-3.92862	0	
2.6340	-8.12008	-6.67865	0	
2.6347	-10.267	-4.54893	0	
2.6353	-12.3927	-2.70868	0	
2.6360	-15.7513	-1.79889	0	
2.6367	-16.6653	0.95114	0	
2.6373	-15.4537	2.17108	0	
2.6380	-14.242	0.95114	0	
2.6387	-14.242	1.86093	0	
2.6393	-14.242	2.77071	0	
2.6400	-12.7115	1.86093	0	
2.6407	-10.267	1.55077	0	
2.6413	-8.43893	2.48123	0	
2.6420	-6.61085	0.640985	0	
2.6427	-4.16632	0.0413539	0	
2.6433	-3.86873	2.77071	0	
2.6440	-4.16632	4.30081	0	
2.6447	-2.93343	3.39102	0	
2.6453	-2.33824	5.52075	0	
2.6460	-2.93343	9.18056	0	
2.6467	-2.63584	7.36099	0	
2.6473	-2.01939	1.86093	0	
2.6480	-1.7218	-0.889109	0	
2.6487	-1.4242	0.330831	0	
2.6493	-0.510162	1.55077	0	
2.6500	4.0813	0.0413539	0	
2.6507	11.7125	-2.70868	0	
2.6513	14.157	-3.32899	0	
2.6520	11.096	-3.32899	0	
2.6527	10.4796	-3.63914	0	
2.6533	12.0101	-4.85908	0	
2.6540	12.3077	-6.3685	0	
2.6547	12.0101	-8.20875	0	
2.6553	11.7125	-6.98881	0	
2.6560	10.182	-3.92862	0	
2.6567	8.6515	-2.4192	0	
2.6573	7.12101	-1.79889	0	
2.6580	4.37889	-1.79889	0	
2.6587	0.72273	-3.32899	0	
2.6593	-1.4242	-5.76887	0	
2.6600	-0.191311	-6.3685	0	
2.6607	2.84841	-5.14856	0	
2.6613	5.90938	-4.85908	0	
2.6620	8.03505	-4.23877	0	
2.6627	9.88439	-1.79889	0	
2.6633	9.88439	0.0413539	0	
2.6640	8.9491	-0.889109	0	
2.6647	5.29293	-3.63914	0	
2.6653	-2.01939	-3.01883	0	
2.6660	-6.292	0.330831	0	
2.6667	-5.69681	0.95114	0	
2.6673	-5.69681	-0.2688	0	
2.6680	-7.82249	1.86093	0	
2.6687	-9.05538	4.30081	0	
2.6693	-9.65057	2.17108	0	
2.6700	-9.35297	0.330831	0	
2.6707	-8.12008	1.86093	0	
2.6713	-9.96942	4.30081	0	
2.6720	-13.9232	5.52075	0	
2.6727	-13.0091	4.92111	0	
2.6733	-8.43893	3.39102	0	
2.6740	-6.61085	2.17108	0	
2.6747	-6.61085	1.86093	0	
2.6753	-3.25228	1.26129	0	
2.6760	-0.510162	0.95114	0	
2.6767	1.02032	1.26129	0	
2.6773	5.29293	0.95114	0	
2.6780	9.88439	-0.2688	0	
2.6787	10.7984	-0.889109	0	
2.6793	12.6265	-0.2688	0	
2.6800	15.6662	-1.48874	0	
2.6807	13.5406	-3.32899	0	
2.6813	7.73746	-3.01883	0	
2.6820	7.12101	-1.48874	0	
2.6827	9.26795	-0.889109	0	
2.6833	7.73746	-1.19926	0	
2.6840	3.46485	-0.889109	0	
2.6847	1.93436	0.0413539	0	
2.6853	3.16726	1.26129	0	
2.6860	3.46485	0.95114	0	
2.6867	0.72273	0.95114	0	
2.6873	-3.25228	1.55077	0	
2.6880	-5.69681	0.95114	0	
2.6887	-6.61085	0.0413539	0	
2.6893	-4.46392	0.95114	0	
2.6900	0.72273	0.95114	0	
2.6907	4.37889	-1.19926	0	
2.6913	4.37889	-3.63914	0	
2.6920	2.25322	-2.70868	0	
2.6927	1.02032	-0.2688	0	
2.6933	0.72273	-1.19926	0	
2.6940	-2.01939	-3.32899	0	
2.6947	-5.69681	-3.63914	0	
2.6953	-5.99441	-3.32899	0	
2.6960	-3.54988	-3.63914	0	
2.6967	-1.7218	-3.01883	0	
2.6973	-2.33824	-2.10905	0	
2.6980	-3.86873	-3.63914	0	
2.6987	-2.33824	-5.45871	0	
2.6993	1.02032	-4.54893	0	
2.7000	2.55081	-3.63914	0	
2.7007	4.0813	-4.85908	0	
2.7013	7.43987	-3.32899	0	
2.7020	8.35391	-0.889109	0	
2.7027	6.20697	-2.4192	0	
2.7033	4.0813	-1.79889	0	
2.7040	1.33918	3.70117	0	
2.7047	-3.25228	3.99065	0	
2.7053	-7.52489	-0.578955	0	
2.7060	-10.267	0.0413539	0	
2.7067	-10.267	4.61096	0	
2.7073	-9.65057	4.92111	0	
2.7080	-12.0951	2.77071	0	
2.7087	-13.9232	2.17108	0	
2.7093	-8.43893	1.86093	0	
2.7100	-2.01939	0.0413539	0	
2.7107	-2.93343	-0.2688	0	
2.7113	-5.69681	0.640985	0	
2.7120	-4.78277	0.0413539	0	
2.7127	-2.93343	-1.79889	0	
2.7133	-2.93343	-1.19926	0	
2.7140	-4.46392	0.330831	0	
2.7147	-5.08037	0.330831	0	
2.7153	-5.69681	1.26129	0	
2.7160	-6.90845	3.70117	0	
2.7167	-8.43893	3.70117	0	
2.7173	-8.12008	0.95114	0	
2.7180	-7.52489	0.95114	0	
2.7187	-8.12008	2.48123	0	
2.7193	-6.90845	0.95114	0	
2.7200	-3.54988	0.95114	0	
2.7207	1.02032	3.99065	0	
2.7213	6.20697	1.86093	0	
2.7220	8.9491	-1.79889	0	
2.7227	7.43987	1.86093	0	
2.7233	3.76245	3.70117	0	
2.7240	2.84841	1.26129	0	
2.7247	4.0813	1.26129	0	
2.7253	3.16726	1.26129	0	
2.7260	0.72273	-0.889109	0	
2.7267	-0.807757	-0.2688	0	
2.7273	-1.4242	0.95114	0	
2.7280	-4.16632	0.95114	0	
2.7287	-7.52489	3.99065	0	
2.7293	-8.43893	6.43053	0	
2.7300	-8.43893	3.70117	0	
2.7307	-8.12008	2.77071	0	
2.7313	-7.82249	4.61096	0	
2.7320	-6.90845	1.86093	0	
2.7327	-4.78277	0.0413539	0	
2.7333	-2.01939	1.86093	0	
2.7340	2.55081	1.26129	0	
2.7347	6.82342	1.26129	0	
2.7353	5.29293	3.70117	0	
2.7360	2.25322	2.17108	0	
2.7367	3.76245	-1.79889	0	
2.7373	8.03505	-1.79889	0	
2.7380	8.9491	-0.889109	0	
2.7387	9.26795	-1.79889	0	
2.7393	12.0101	-2.70868	0	
2.7400	12.9241	-3.01883	0	
2.7407	8.9491	-3.01883	0	
2.7413	5.61178	-1.79889	0	
2.7420	9.56554	-1.48874	0	
2.7427	12.9241	-1.79889	0	
2.7433	9.88439	-1.19926	0	
2.7440	7.12101	-1.79889	0	
2.7447	6.20697	-2.4192	0	
2.7453	3.46485	-0.578955	0	
2.7460	1.63677	-0.889109	0	
2.7467	3.16726	-2.4192	0	
2.7473	1.93436	-0.578955	0	
2.7480	-3.86873	0.95114	0	
2.7487	-7.52489	-1.48874	0	
2.7493	-6.90845	-1.79889	0	
2.7500	-7.52489	-0.2688	0	
2.7507	-10.5646	1.26129	0	
2.7513	-9.35297	2.77071	0	
2.7520	-5.08037	0.95114	0	
2.7527	-4.16632	-2.70868	0	
2.7533	-3.86873	-1.79889	0	
2.7540	-0.807757	-0.578955	0	
2.7547	0.403878	-2.4192	0	
2.7553	0.72273	-2.70868	0	
2.7560	3.16726	-2.10905	0	
2.7567	4.37889	-2.70868	0	
2.7573	3.76245	-2.10905	0	
2.7580	4.0813	-1.48874	0	
2.7587	3.16726	-1.79889	0	
2.7593	1.63677	0.0413539	0	
2.7600	1.33918	2.48123	0	
2.7607	0.106284	1.55077	0	
2.7613	-2.01939	0.0413539	0	
2.7620	-0.510162	0.0413539	0	
2.7627	1.63677	0.0413539	0	
2.7633	0.106284	1.26129	0	
2.7640	0.106284	0.640985	0	
2.7647	2.55081	-1.79889	0	
2.7653	2.84841	0.0413539	0	
2.7660	2.55081	2.77071	0	
2.7667	6.20697	1.55077	0	
2.7673	12.3077	0.95114	0	
2.7680	15.3686	2.17108	0	
2.7687	16.2827	0.640985	0	
2.7693	19.0248	-1.48874	0	
2.7700	21.7669	-3.32899	0	
2.7707	22.0858	-5.45871	0	
2.7713	21.7669	-6.3685	0	
2.7720	20.8529	-7.29896	0	
2.7727	18.7272	-9.73884	0	
2.7733	17.1967	-7.58844	0	
2.7740	14.157	-4.54893	0	
2.7747	7.43987	-5.14856	0	
2.7753	2.84841	-4.54893	0	
2.7760	0.106284	-3.63914	0	
2.7767	-6.292	-5.14856	0	
2.7773	-13.0091	-2.70868	0	
2.7780	-16.3677	-0.578955	0	
2.7787	-19.4287	-3.63914	0	
2.7793	-22.4684	-0.578955	0	
2.7800	-22.1708	7.36099	0	
2.7807	-23.0848	7.05084	0	
2.7813	-26.1458	4.92111	0	
2.7820	-26.1458	7.96063	0	
2.7827	-24.2965	8.89109	0	
2.7833	-21.8732	7.96063	0	
2.7840	-16.3677	9.18056	0	
2.7847	-12.0951	7.65047	0	
2.7853	-12.0951	4.30081	0	
2.7860	-11.1811	3.08087	0	
2.7867	-7.20604	1.86093	0	
2.7873	-3.25228	0.0413539	0	
2.7880	-1.7218	0.330831	0	
2.7887	-2.01939	2.17108	0	
2.7893	-2.01939	2.17108	0	
2.7900	0.72273	0.95114	0	
2.7907	-1.10535	0.330831	0	
2.7913	-6.61085	-0.889109	0	
2.7920	-8.43893	-0.889109	0	
2.7927	-6.292	0.95114	0	
2.7933	-4.78277	1.55077	0	
2.7940	-4.46392	-1.48874	0	
2.7947	-5.37796	-1.79889	0	
2.7953	-5.69681	0.0413539	0	
2.7960	-4.16632	-0.578955	0	
2.7967	-2.93343	-2.4192	0	
2.7973	-2.33824	-1.79889	0	
2.7980	-1.10535	-1.19926	0	
2.7987	-0.191311	-0.578955	0	
2.7993	0.403878	0.95114	0	
2.8000	-1.4242	1.86093	0	
2.8007	-4.78277	0.0413539	0	
2.8013	-3.54988	-1.19926	0	
2.8020	0.72273	0.330831	0	
2.8027	1.63677	2.77071	0	
2.8033	2.55081	2.48123	0	
2.8040	7.12101	0.640985	0	
2.8047	8.6515	-0.2688	0	
2.8053	7.12101	-1.19926	0	
2.8060	7.73746	-2.70868	0	
2.8067	12.6265	-1.79889	0	
2.8073	18.1108	1.26129	0	
2.8080	18.7272	2.17108	0	
2.8087	15.3686	-0.2688	0	
2.8093	13.2217	-2.4192	0	
2.8100	11.7125	-1.79889	0	
2.8107	8.6515	-1.19926	0	
2.8113	4.67649	-2.70868	0	
2.8120	-0.191311	-4.54893	0	
2.8127	-5.69681	-3.63914	0	
2.8133	-7.52489	-2.4192	0	
2.8140	-7.82249	-2.70868	0	
2.8147	-11.1811	-3.01883	0	
2.8153	-13.6256	-2.70868	0	
2.8160	-11.1811	-2.4192	0	
2.8167	-7.52489	0.0413539	0	
2.8173	-5.69681	0.330831	0	
2.8180	-5.69681	-2.4192	0	
2.8187	-3.86873	-1.48874	0	
2.8193	1.33918	2.17108	0	
2.8200	5.61178	0.0413539	0	
2.8207	8.35391	-3.01883	0	
2.8213	12.9241	-1.48874	0	
2.8220	16.2827	0.330831	0	
2.8227	17.8132	-0.578955	0	
2.8233	19.0248	0.0413539	0	
2.8240	15.9851	2.17108	0	
2.8247	8.6515	0.95114	0	
2.8253	5.29293	-3.01883	0	
2.8260	5.29293	-3.92862	0	
2.8267	1.63677	-2.10905	0	
2.8273	-2.93343	-2.70868	0	
2.8280	-4.46392	-4.23877	0	
2.8287	-4.78277	-3.32899	0	
2.8293	-5.69681	-2.70868	0	
2.8300	-5.08037	-3.32899	0	
2.8307	-3.86873	-2.4192	0	
2.8313	-2.33824	-2.10905	0	
2.8320	-2.01939	-2.70868	0	
2.8327	-3.25228	-3.32899	0	
2.8333	-3.54988	-5.45871	0	
2.8340	-3.54988	-4.85908	0	
2.8347	-7.82249	-0.889109	0	
2.8353	-13.9232	1.26129	0	
2.8360	-16.6653	3.39102	0	
2.8367	-14.8372	6.14105	0	
2.8373	-12.3927	4.30081	0	
2.8380	-11.1811	1.26129	0	
2.8387	-9.96942	2.77071	0	
2.8393	-8.73653	4.30081	0	
2.8400	-8.12008	2.77071	0	
2.8407	-8.43893	1.55077	0	
2.8413	-7.52489	1.86093	0	
2.8420	-3.86873	3.70117	0	
2.8427	0.403878	3.99065	0	
2.8433	1.63677	2.77071	0	
2.8440	1.63677	3.39102	0	
2.8447	1.33918	3.99065	0	
2.8453	-0.191311	1.55077	0	
2.8460	-2.63584	1.55077	0	
2.8467	-3.86873	3.39102	0	
2.8473	-3.86873	1.86093	0	
2.8480	-5.69681	2.17108	0	
2.8487	-8.43893	5.52075	0	
2.8493	-9.35297	4.61096	0	
2.8500	-7.82249	0.640985	0	
2.8507	-8.43893	1.55077	0	
2.8513	-10.5646	5.52075	0	
2.8520	-11.1811	5.8309	0	
2.8527	-7.82249	3.70117	0	
2.8533	-4.78277	1.86093	0	
2.8540	-3.86873	1.86093	0	
2.8547	-2.33824	2.48123	0	
2.8553	0.403878	0.95114	0	
2.8560	2.55081	-1.79889	0	
2.8567	4.37889	-2.70868	0	
2.8573	5.90938	-1.19926	0	
2.8580	6.52582	-1.79889	0	
2.8587	8.03505	-3.32899	0	
2.8593	10.7984	-2.4192	0	
2.8600	13.8381	-1.79889	0	
2.8607	19.0248	-3.32899	0	
2.8613	25.1255	-3.63914	0	
2.8620	27.2724	-2.70868	0	
2.8627	27.2724	-3.63914	0	
2.8633	27.8889	-4.54893	0	
2.8640	27.8889	-3.32899	0	
2.8647	23.6163	-1.79889	0	
2.8653	16.8991	-2.70868	0	
2.8660	12.0101	-3.01883	0	
2.8667	9.88439	-1.79889	0	
2.8673	6.20697	-0.889109	0	
2.8680	1.02032	-0.889109	0	
2.8687	-4.78277	-3.01883	0	
2.8693	-9.05538	-3.63914	0	
2.8700	-12.3927	-0.889109	0	
2.8707	-16.0701	1.86093	0	
2.8713	-20.3427	-0.889109	0	
2.8720	-20.3427	-1.79889	0	
2.8727	-16.6653	1.86093	0	
2.8733	-16.3677	2.17108	0	
2.8740	-16.0701	-0.2688	0	
2.8747	-12.0951	0.330831	0	
2.8753	-9.05538	1.86093	0	
2.8760	-7.52489	0.640985	0	
2.8767	-4.78277	-0.2688	0	
2.8773	-2.93343	-0.889109	0	
2.8780	-2.01939	-1.79889	0	
2.8787	-0.191311	-0.578955	0	
2.8793	0.72273	1.26129	0	
2.8800	1.02032	1.26129	0	
2.8807	1.93436	-0.889109	0	
2.8813	2.25322	-2.70868	0	
2.8820	2.55081	-0.2688	0	
2.8827	4.37889	3.08087	0	
2.8833	3.76245	1.55077	0	
2.8840	0.403878	-1.48874	0	
2.8847	0.72273	0.95114	0	
2.8853	4.67649	2.77071	0	
2.8860	7.12101	-0.2688	0	
2.8867	6.82342	-0.889109	0	
2.8873	4.99534	0.330831	0	
2.8880	3.46485	-3.32899	0	
2.8887	3.46485	-5.45871	0	
2.8893	5.29293	-1.79889	0	
2.8900	7.73746	-0.578955	0	
2.8907	12.0101	-3.92862	0	
2.8913	17.1967	-4.85908	0	
2.8920	17.8132	-3.92862	0	
2.8927	12.6265	-4.54893	0	
2.8933	9.26795	-4.54893	0	
2.8940	9.88439	-3.92862	0	
2.8947	6.82342	-4.54893	0	
2.8953	-1.10535	-3.63914	0	
2.8960	-5.37796	-2.4192	0	
2.8967	-6.292	-3.32899	0	
2.8973	-8.43893	-3.63914	0	
2.8980	-11.1811	-1.19926	0	
2.8987	-15.1561	1.26129	0	
2.8993	-21.2568	2.17108	0	
2.9000	-23.0848	4.30081	0	
2.9007	-21.2568	6.14105	0	
2.9013	-20.0239	4.61096	0	
2.9020	-16.3677	2.48123	0	
2.9027	-10.267	0.640985	0	
2.9033	-6.61085	0.640985	0	
2.9040	-2.33824	3.99065	0	
2.9047	5.29293	5.8309	0	
2.9053	9.56554	2.48123	0	
2.9060	9.56554	0.0413539	0	
2.9067	11.7125	1.86093	0	
2.9073	14.4546	0.95114	0	
2.9080	15.3686	-3.92862	0	
2.9087	13.5406	-3.63914	0	
2.9093	8.9491	0.0413539	0	
2.9100	4.99534	-0.2688	0	
2.9107	1.63677	-3.32899	0	
2.9113	-5.37796	-2.10905	0	
2.9120	-13.9232	0.640985	0	
2.9127	-17.6006	0.0413539	0	
2.9133	-20.0239	-0.889109	0	
2.9140	-23.7013	1.86093	0	
2.9147	-25.827	4.30081	0	
2.9153	-25.5294	3.39102	0	
2.9160	-23.9989	4.30081	0	
2.9167	-20.0239	5.8309	0	
2.9173	-13.6256	3.08087	0	
2.9180	-5.69681	0.0413539	0	
2.9187	-0.191311	0.0413539	0	
2.9193	0.403878	-0.578955	0	
2.9200	0.403878	-2.10905	0	
2.9207	3.46485	-0.889109	0	
2.9213	7.12101	0.330831	0	
2.9220	8.6515	-0.889109	0	
2.9227	9.26795	-2.10905	0	
2.9233	6.20697	-2.4192	0	
2.9240	2.84841	-0.889109	0	
2.9247	5.29293	1.86093	0	
2.9253	7.12101	2.17108	0	
2.9260	1.93436	-1.19926	0	
2.9267	-0.807757	-1.79889	0	
2.9273	3.16726	0.330831	0	
2.9280	2.55081	-1.79889	0	
2.9287	-3.25228	-4.54893	0	
2.9293	-5.08037	-2.4192	0	
2.9300	-2.63584	-0.2688	0	
2.9307	0.403878	-1.48874	0	
2.9313	2.55081	-2.10905	0	
2.9320	1.63677	-3.63914	0	
2.9327	0.72273	-6.07902	0	
2.9333	5.90938	-5.76887	0	
2.9340	10.182	-5.14856	0	
2.9347	9.88439	-8.20875	0	
2.9353	9.56554	-8.82906	0	
2.9360	8.9491	-3.32899	0	
2.9367	6.20697	-0.578955	0	
2.9373	6.82342	-2.70868	0	
2.9380	9.88439	-1.79889	0	
2.9387	8.9491	1.26129	0	
2.9393	8.03505	0.0413539	0	
2.9400	8.9491	-1.48874	0	
2.9407	7.12101	0.0413539	0	
2.9413	4.37889	0.95114	0	
2.9420	3.46485	0.0413539	0	
2.9427	4.0813	0.330831	0	
2.9433	3.46485	3.08087	0	
2.9440	2.84841	3.70117	0	
2.9447	1.02032	0.95114	0	
2.9453	-1.10535	-0.2688	0	
2.9460	-1.7218	3.08087	0	
2.9467	-1.4242	4.61096	0	
2.9473	-1.7218	0.95114	0	
2.9480	-1.4242	-1.79889	0	
2.9487	-1.7218	0.640985	0	
2.9493	-4.46392	2.77071	0	
