0.0007	0.590024	-2.86963	0	
0.0013	0.283211	-4.37547	0	
0.0020	0.283211	-3.15375	0	
0.0027	-0.637226	-1.02284	0	
0.0033	-1.53406	-1.93203	0	
0.0040	0.590024	-2.86963	0	
0.0047	3.94136	-1.02284	0	
0.0053	5.47542	-1.93203	0	
0.0060	5.78223	-2.86963	0	
0.0067	4.24817	1.42061	0	
0.0073	2.12409	3.86405	0	
0.0080	2.12409	1.73314	0	
0.0087	3.04452	1.73314	0	
0.0093	2.4309	4.46071	0	
0.0100	1.51046	4.46071	0	
0.0107	1.20365	2.3298	0	
0.0113	1.20365	1.73314	0	
0.0120	1.51046	2.3298	0	
0.0127	-0.0236009	2.64233	0	
0.0133	-0.637226	3.55152	0	
0.0140	2.4309	2.95486	0	
0.0147	3.94136	2.64233	0	
0.0153	0.896836	2.3298	0	
0.0160	1.51046	-0.426182	0	
0.0167	3.04452	-2.55709	0	
0.0173	1.20365	-1.02284	0	
0.0180	0.590024	-0.426182	0	
0.0187	2.12409	-3.46628	0	
0.0193	0.283211	-4.37547	0	
0.0200	-0.330413	-2.24456	0	
0.0207	2.12409	-1.33537	0	
0.0213	2.12409	-1.02284	0	
0.0220	2.12409	-0.113649	0	
0.0227	6.39586	-2.24456	0	
0.0233	13.4053	-4.68801	0	
0.0240	17.9839	-3.46628	0	
0.0247	18.5975	-2.55709	0	
0.0253	18.9044	-4.68801	0	
0.0260	22.2557	-4.68801	0	
0.0267	24.0966	-3.46628	0	
0.0273	22.5625	-4.68801	0	
0.0280	23.1761	-5.00054	0	
0.0287	24.4034	-3.77882	0	
0.0293	21.3353	-4.68801	0	
0.0300	13.0985	-4.37547	0	
0.0307	3.63455	-1.93203	0	
0.0313	-2.76131	1.42061	0	
0.0320	-7.03308	3.55152	0	
0.0327	-12.5321	2.3298	0	
0.0333	-18.6211	-0.426182	0	
0.0340	-20.7688	2.64233	0	
0.0347	-21.0756	7.52922	0	
0.0353	-20.7688	7.21669	0	
0.0360	-16.1903	4.17659	0	
0.0367	-9.77079	4.46071	0	
0.0373	-8.56714	5.3699	0	
0.0380	-9.77079	2.64233	0	
0.0387	-7.64671	0.511419	0	
0.0393	-5.49902	-0.113649	0	
0.0400	-4.60219	-0.113649	0	
0.0407	-4.60219	0.511419	0	
0.0413	-5.80583	1.42061	0	
0.0420	-7.64671	-0.113649	0	
0.0427	-8.56714	-1.02284	0	
0.0433	-8.56714	0.511419	0	
0.0440	-7.3399	0.79554	0	
0.0447	-8.56714	-0.426182	0	
0.0453	-13.7594	0.79554	0	
0.0460	-16.8039	2.64233	0	
0.0467	-15.2698	2.64233	0	
0.0473	-15.2698	3.55152	0	
0.0480	-16.8039	3.86405	0	
0.0487	-14.963	1.10807	0	
0.0493	-12.2253	-0.710304	0	
0.0500	-10.3844	-0.426182	0	
0.0507	-7.64671	1.10807	0	
0.0513	-3.98856	3.23899	0	
0.0520	0.590024	2.01726	0	
0.0527	6.08904	-0.113649	0	
0.0533	9.13357	0.511419	0	
0.0540	7.90632	0.511419	0	
0.0547	6.39586	-1.02284	0	
0.0553	8.21313	0.198885	0	
0.0560	11.5881	1.10807	0	
0.0567	12.4849	-1.02284	0	
0.0573	11.8949	-2.24456	0	
0.0580	11.8949	-2.86963	0	
0.0587	10.054	-3.46628	0	
0.0593	7.90632	-1.02284	0	
0.0600	7.90632	-0.113649	0	
0.0607	7.90632	-2.86963	0	
0.0613	5.16861	-3.15375	0	
0.0620	4.24817	0.198885	0	
0.0627	6.39586	-0.113649	0	
0.0633	5.47542	-2.86963	0	
0.0640	0.590024	-2.86963	0	
0.0647	0.590024	-3.77882	0	
0.0653	8.21313	-6.22226	0	
0.0660	12.4849	-5.28466	0	
0.0667	9.13357	-2.86963	0	
0.0673	9.74719	-1.64791	0	
0.0680	12.2017	-1.33537	0	
0.0687	8.21313	-2.24456	0	
0.0693	4.24817	-1.02284	0	
0.0700	5.47542	0.79554	0	
0.0707	2.4309	-0.113649	0	
0.0713	-4.909	-1.02284	0	
0.0720	-7.03308	-0.426182	0	
0.0727	-3.98856	-0.113649	0	
0.0733	-1.22725	-0.426182	0	
0.0740	-1.53406	-0.710304	0	
0.0747	-4.60219	-1.64791	0	
0.0753	-5.21581	-1.02284	0	
0.0760	-2.14769	1.10807	0	
0.0767	-2.14769	1.73314	0	
0.0773	-7.64671	0.198885	0	
0.0780	-10.0776	-0.113649	0	
0.0787	-7.64671	0.79554	0	
0.0793	-7.64671	0.79554	0	
0.0800	-10.6912	-1.33537	0	
0.0807	-13.1457	-2.24456	0	
0.0813	-13.4525	-0.113649	0	
0.0820	-11.6117	1.42061	0	
0.0827	-10.3844	1.73314	0	
0.0833	-11.3049	2.95486	0	
0.0840	-11.3049	4.46071	0	
0.0847	-8.26033	4.77324	0	
0.0853	-5.80583	5.08578	0	
0.0860	-3.37494	2.95486	0	
0.0867	0.896836	-0.113649	0	
0.0873	2.4309	0.511419	0	
0.0880	-0.944038	2.01726	0	
0.0887	-3.06812	0.79554	0	
0.0893	-1.53406	0.79554	0	
0.0900	1.20365	1.10807	0	
0.0907	3.35133	-0.113649	0	
0.0913	4.24817	-0.113649	0	
0.0920	6.08904	3.55152	0	
0.0927	10.054	3.23899	0	
0.0933	11.5881	-0.710304	0	
0.0940	8.82675	-1.33537	0	
0.0947	7.90632	-0.113649	0	
0.0953	8.82675	-1.33537	0	
0.0960	7.62311	-2.55709	0	
0.0967	6.08904	-1.93203	0	
0.0973	5.78223	-1.93203	0	
0.0980	6.08904	-3.15375	0	
0.0987	6.08904	-5.90973	0	
0.0993	4.55498	-8.35317	0	
0.1000	5.78223	-5.90973	0	
0.1007	10.054	-2.24456	0	
0.1013	11.5881	-2.55709	0	
0.1020	8.82675	-3.15375	0	
0.1027	6.70267	-2.55709	0	
0.1033	5.16861	-3.77882	0	
0.1040	1.81727	-3.77882	0	
0.1047	-0.944038	0.198885	0	
0.1053	-2.14769	2.3298	0	
0.1060	-2.14769	0.511419	0	
0.1067	-3.37494	0.198885	0	
0.1073	-6.72627	2.3298	0	
0.1080	-9.48758	2.64233	0	
0.1087	-12.2253	2.64233	0	
0.1093	-15.8834	2.64233	0	
0.1100	-15.8834	2.64233	0	
0.1107	-14.0662	2.95486	0	
0.1113	-16.4971	3.23899	0	
0.1120	-14.963	2.01726	0	
0.1127	-6.41946	1.10807	0	
0.1133	-1.22725	0.198885	0	
0.1140	-0.944038	-1.33537	0	
0.1147	3.35133	-1.33537	0	
0.1153	8.51994	-1.33537	0	
0.1160	9.13357	-3.15375	0	
0.1167	7.31629	-2.86963	0	
0.1173	6.08904	-0.113649	0	
0.1180	5.47542	0.79554	0	
0.1187	3.94136	-1.33537	0	
0.1193	2.4309	-2.86963	0	
0.1200	6.39586	-3.77882	0	
0.1207	14.3258	-4.68801	0	
0.1213	18.2907	-2.55709	0	
0.1220	16.1667	-1.33537	0	
0.1227	13.7122	-3.46628	0	
0.1233	12.7917	-3.77882	0	
0.1240	10.6676	-2.86963	0	
0.1247	5.47542	-2.86963	0	
0.1253	2.4309	-3.77882	0	
0.1260	4.24817	-2.86963	0	
0.1267	5.47542	-2.86963	0	
0.1273	3.04452	-3.77882	0	
0.1280	0.590024	-2.86963	0	
0.1287	-0.944038	-0.710304	0	
0.1293	-4.29537	-1.02284	0	
0.1300	-8.87396	-2.55709	0	
0.1307	-9.18077	-2.24456	0	
0.1313	-7.03308	0.198885	0	
0.1320	-7.64671	2.95486	0	
0.1327	-8.56714	2.01726	0	
0.1333	-7.3399	-0.426182	0	
0.1340	-7.95352	-1.02284	0	
0.1347	-10.6912	-1.02284	0	
0.1353	-11.6117	-1.33537	0	
0.1360	-12.2253	-1.02284	0	
0.1367	-11.6117	0.79554	0	
0.1373	-9.77079	2.64233	0	
0.1380	-11.3049	5.3699	0	
0.1387	-14.963	7.52922	0	
0.1393	-12.5321	6.3075	0	
0.1400	-7.64671	3.55152	0	
0.1407	-5.80583	4.17659	0	
0.1413	-6.72627	5.99497	0	
0.1420	-7.64671	5.3699	0	
0.1427	-8.26033	3.23899	0	
0.1433	-6.72627	1.73314	0	
0.1440	-5.21581	0.79554	0	
0.1447	-5.49902	0.511419	0	
0.1453	-5.21581	1.10807	0	
0.1460	-3.68175	0.79554	0	
0.1467	-1.84087	-0.113649	0	
0.1473	-1.22725	0.511419	0	
0.1480	-2.14769	0.198885	0	
0.1487	-3.06812	-0.426182	0	
0.1493	-1.84087	0.511419	0	
0.1500	-0.0236009	0.198885	0	
0.1507	0.590024	-1.64791	0	
0.1513	0.283211	0.198885	0	
0.1520	0.896836	3.23899	0	
0.1527	2.4309	2.64233	0	
0.1533	3.94136	2.64233	0	
0.1540	6.08904	1.73314	0	
0.1547	8.51994	-1.33537	0	
0.1553	10.054	-1.02284	0	
0.1560	11.5881	0.511419	0	
0.1567	11.5881	-2.24456	0	
0.1573	7.90632	-3.77882	0	
0.1580	7.00948	-1.93203	0	
0.1587	11.8949	-3.77882	0	
0.1593	15.2462	-5.5972	0	
0.1600	14.019	-4.68801	0	
0.1607	16.7567	-5.28466	0	
0.1613	22.2557	-8.35317	0	
0.1620	21.3353	-7.13145	0	
0.1627	17.0635	-3.15375	0	
0.1633	17.0635	-2.86963	0	
0.1640	15.8598	-5.28466	0	
0.1647	9.13357	-4.37547	0	
0.1653	4.55498	-1.33537	0	
0.1660	3.35133	-1.93203	0	
0.1667	-2.14769	-2.86963	0	
0.1673	-8.26033	0.79554	0	
0.1680	-9.48758	3.86405	0	
0.1687	-10.3844	2.01726	0	
0.1693	-12.2253	-0.113649	0	
0.1700	-10.3844	0.79554	0	
0.1707	-9.77079	2.3298	0	
0.1713	-13.1457	0.79554	0	
0.1720	-14.963	0.198885	0	
0.1727	-13.1457	2.64233	0	
0.1733	-11.3049	3.55152	0	
0.1740	-10.3844	1.73314	0	
0.1747	-8.56714	1.73314	0	
0.1753	-4.60219	1.10807	0	
0.1760	-2.14769	-1.64791	0	
0.1767	-4.60219	-1.93203	0	
0.1773	-6.41946	-1.93203	0	
0.1780	-3.06812	-3.77882	0	
0.1787	-2.14769	-3.77882	0	
0.1793	-3.68175	-3.15375	0	
0.1800	-1.22725	-1.33537	0	
0.1807	3.94136	0.79554	0	
0.1813	7.00948	-1.93203	0	
0.1820	9.13357	-4.68801	0	
0.1827	9.74719	-1.64791	0	
0.1833	10.054	-1.33537	0	
0.1840	11.5881	-5.90973	0	
0.1847	11.2813	-3.77882	0	
0.1853	7.90632	0.198885	0	
0.1860	6.08904	-2.55709	0	
0.1867	4.55498	-1.93203	0	
0.1873	-1.22725	2.3298	0	
0.1880	-8.26033	0.79554	0	
0.1887	-12.8389	-0.426182	0	
0.1893	-15.8834	2.64233	0	
0.1900	-16.8039	3.23899	0	
0.1907	-15.8834	4.46071	0	
0.1913	-16.8039	7.52922	0	
0.1920	-20.462	7.21669	0	
0.1927	-21.0756	7.52922	0	
0.1933	-18.6211	9.97267	0	
0.1940	-16.1903	8.12588	0	
0.1947	-14.0662	5.99497	0	
0.1953	-11.9185	5.3699	0	
0.1960	-9.77079	2.64233	0	
0.1967	-6.41946	1.73314	0	
0.1973	-3.68175	3.55152	0	
0.1980	-3.98856	2.01726	0	
0.1987	-4.60219	-0.710304	0	
0.1993	-3.68175	0.198885	0	
0.2000	-0.330413	-0.113649	0	
0.2007	3.04452	-3.77882	0	
0.2013	3.63455	-4.68801	0	
0.2020	4.8618	-2.86963	0	
0.2027	8.51994	-3.15375	0	
0.2033	8.82675	-3.46628	0	
0.2040	7.90632	-1.93203	0	
0.2047	11.5881	-2.24456	0	
0.2053	13.4053	-6.22226	0	
0.2060	10.6676	-8.35317	0	
0.2067	11.5881	-5.90973	0	
0.2073	12.2017	-2.86963	0	
0.2080	10.9744	-2.55709	0	
0.2087	14.6326	-2.86963	0	
0.2093	16.1667	-1.33537	0	
0.2100	10.3608	0.79554	0	
0.2107	7.90632	2.64233	0	
0.2113	11.5881	4.46071	0	
0.2120	11.8949	4.46071	0	
0.2127	10.3608	1.73314	0	
0.2133	7.90632	-1.33537	0	
0.2140	2.73771	-0.710304	0	
0.2147	-0.0236009	0.511419	0	
0.2153	-1.53406	-0.113649	0	
0.2160	-5.49902	0.511419	0	
0.2167	-5.49902	2.3298	0	
0.2173	-2.14769	1.42061	0	
0.2180	-4.60219	-0.710304	0	
0.2187	-9.48758	-0.426182	0	
0.2193	-8.87396	-0.113649	0	
0.2200	-7.64671	-1.33537	0	
0.2207	-10.0776	-2.86963	0	
0.2213	-11.6117	-2.86963	0	
0.2220	-12.2253	-2.86963	0	
0.2227	-11.9185	-1.93203	0	
0.2233	-8.56714	0.79554	0	
0.2240	-3.06812	2.01726	0	
0.2247	2.12409	-0.113649	0	
0.2253	5.16861	-1.93203	0	
0.2260	5.47542	-1.93203	0	
0.2267	7.00948	-2.86963	0	
0.2273	12.2017	-0.113649	0	
0.2280	14.3258	2.95486	0	
0.2287	12.4849	2.01726	0	
0.2293	14.3258	0.79554	0	
0.2300	17.0635	3.55152	0	
0.2307	16.1667	4.17659	0	
0.2313	16.7567	1.10807	0	
0.2320	18.5975	-0.426182	0	
0.2327	15.2462	0.198885	0	
0.2333	10.3608	-0.710304	0	
0.2340	7.62311	-2.55709	0	
0.2347	5.16861	-3.15375	0	
0.2353	2.4309	-1.02284	0	
0.2360	1.51046	0.79554	0	
0.2367	-1.22725	-1.93203	0	
0.2373	-6.11265	-6.50638	0	
0.2380	-7.95352	-8.04064	0	
0.2387	-8.26033	-5.28466	0	
0.2393	-10.0776	-3.15375	0	
0.2400	-11.9185	-3.77882	0	
0.2407	-12.8389	-6.22226	0	
0.2413	-16.8039	-5.5972	0	
0.2420	-19.8484	-1.64791	0	
0.2427	-19.5416	-0.113649	0	
0.2433	-21.0756	-1.02284	0	
0.2440	-23.8134	0.511419	0	
0.2447	-20.462	3.55152	0	
0.2453	-14.6562	3.55152	0	
0.2460	-11.9185	3.86405	0	
0.2467	-8.56714	5.08578	0	
0.2473	-3.98856	4.46071	0	
0.2480	-0.944038	4.17659	0	
0.2487	2.12409	4.46071	0	
0.2493	3.35133	2.95486	0	
0.2500	2.4309	2.3298	0	
0.2507	3.94136	2.64233	0	
0.2513	6.39586	1.10807	0	
0.2520	3.63455	0.511419	0	
0.2527	-0.0236009	1.73314	0	
0.2533	0.590024	1.10807	0	
0.2540	0.283211	-1.02284	0	
0.2547	-3.37494	-0.426182	0	
0.2553	-6.41946	0.79554	0	
0.2560	-7.95352	-0.426182	0	
0.2567	-7.95352	-1.93203	0	
0.2573	-4.29537	-0.710304	0	
0.2580	-0.330413	0.79554	0	
0.2587	-1.53406	-1.02284	0	
0.2593	-2.4545	-2.86963	0	
0.2600	1.51046	-1.64791	0	
0.2607	2.4309	0.198885	0	
0.2613	-0.330413	-1.02284	0	
0.2620	0.896836	-2.86963	0	
0.2627	5.16861	-2.55709	0	
0.2633	5.47542	-1.33537	0	
0.2640	4.24817	-1.33537	0	
0.2647	5.16861	-1.33537	0	
0.2653	4.24817	-0.710304	0	
0.2660	3.04452	-0.113649	0	
0.2667	3.63455	0.198885	0	
0.2673	2.4309	0.511419	0	
0.2680	1.81727	-0.113649	0	
0.2687	5.47542	-1.02284	0	
0.2693	8.82675	-0.710304	0	
0.2700	10.3608	0.79554	0	
0.2707	11.8949	2.95486	0	
0.2713	11.5881	2.01726	0	
0.2720	11.8949	-0.426182	0	
0.2727	13.7122	-0.426182	0	
0.2733	13.0985	-0.113649	0	
0.2740	11.5881	-1.93203	0	
0.2747	10.9744	-1.93203	0	
0.2753	7.62311	-1.64791	0	
0.2760	6.39586	-3.15375	0	
0.2767	11.8949	-2.86963	0	
0.2773	13.7122	-1.02284	0	
0.2780	9.74719	-2.55709	0	
0.2787	7.31629	-3.77882	0	
0.2793	3.94136	-3.77882	0	
0.2800	-1.53406	-2.86963	0	
0.2807	-4.29537	-1.93203	0	
0.2813	-6.72627	-1.93203	0	
0.2820	-8.56714	-1.93203	0	
0.2827	-8.26033	0.79554	0	
0.2833	-8.56714	2.3298	0	
0.2840	-10.3844	-0.113649	0	
0.2847	-11.3049	0.198885	0	
0.2853	-12.5321	0.198885	0	
0.2860	-13.1457	-3.15375	0	
0.2867	-12.8389	-3.46628	0	
0.2873	-13.1457	-0.113649	0	
0.2880	-11.6117	-0.710304	0	
0.2887	-6.72627	-1.93203	0	
0.2893	-4.909	0.511419	0	
0.2900	-4.909	1.73314	0	
0.2907	-2.76131	1.73314	0	
0.2913	-1.22725	1.10807	0	
0.2920	-2.14769	-0.113649	0	
0.2927	-2.14769	0.198885	0	
0.2933	-3.37494	2.95486	0	
0.2940	-6.72627	3.55152	0	
0.2947	-8.26033	2.64233	0	
0.2953	-8.26033	3.23899	0	
0.2960	-9.48758	1.42061	0	
0.2967	-9.77079	-2.86963	0	
0.2973	-6.72627	-3.77882	0	
0.2980	-3.68175	-1.02284	0	
0.2987	-3.98856	-1.02284	0	
0.2993	-3.37494	-2.86963	0	
0.3000	1.20365	-3.46628	0	
0.3007	6.08904	-2.86963	0	
0.3013	8.82675	-1.64791	0	
0.3020	9.74719	-1.64791	0	
0.3027	9.74719	-4.68801	0	
0.3033	10.3608	-5.5972	0	
0.3040	11.5881	-2.55709	0	
0.3047	11.2813	-0.113649	0	
0.3053	10.3608	-1.64791	0	
0.3060	11.5881	-3.15375	0	
0.3067	10.9744	-3.46628	0	
0.3073	6.08904	-2.86963	0	
0.3080	2.73771	0.79554	0	
0.3087	2.4309	4.77324	0	
0.3093	-2.14769	5.68243	0	
0.3100	-4.60219	4.46071	0	
0.3107	-1.53406	3.86405	0	
0.3113	-3.06812	4.46071	0	
0.3120	-7.64671	3.86405	0	
0.3127	-6.11265	1.73314	0	
0.3133	-3.06812	1.42061	0	
0.3140	-2.76131	2.3298	0	
0.3147	1.51046	1.42061	0	
0.3153	7.00948	1.73314	0	
0.3160	8.82675	2.95486	0	
0.3167	5.16861	2.64233	0	
0.3173	-0.0236009	1.42061	0	
0.3180	-0.637226	-1.93203	0	
0.3187	2.73771	-5.90973	0	
0.3193	2.4309	-5.5972	0	
0.3200	-1.22725	-3.77882	0	
0.3207	-1.84087	-5.28466	0	
0.3213	-2.14769	-5.5972	0	
0.3220	-3.98856	-3.15375	0	
0.3227	-4.60219	-1.93203	0	
0.3233	-6.11265	0.511419	0	
0.3240	-8.56714	3.86405	0	
0.3247	-8.56714	2.64233	0	
0.3253	-9.18077	1.73314	0	
0.3260	-10.3844	4.77324	0	
0.3267	-9.77079	5.68243	0	
0.3273	-10.6912	5.3699	0	
0.3280	-13.4525	7.21669	0	
0.3287	-12.8389	5.99497	0	
0.3293	-8.56714	3.55152	0	
0.3300	-4.29537	3.55152	0	
0.3307	0.283211	2.01726	0	
0.3313	6.39586	-0.113649	0	
0.3320	10.6676	0.79554	0	
0.3327	11.5881	2.01726	0	
0.3333	12.4849	-0.426182	0	
0.3340	14.3258	-3.15375	0	
0.3347	14.3258	-1.02284	0	
0.3353	11.8949	2.3298	0	
0.3360	9.74719	1.42061	0	
0.3367	9.44038	-1.02284	0	
0.3373	7.90632	-0.710304	0	
0.3380	2.4309	0.79554	0	
0.3387	-1.53406	0.79554	0	
0.3393	-2.76131	0.198885	0	
0.3400	-7.3399	-0.710304	0	
0.3407	-14.6562	-1.93203	0	
0.3413	-17.7243	-2.24456	0	
0.3420	-17.1107	-0.426182	0	
0.3427	-15.5766	2.01726	0	
0.3433	-13.1457	0.79554	0	
0.3440	-11.3049	-2.86963	0	
0.3447	-10.0776	-0.710304	0	
0.3453	-7.64671	3.55152	0	
0.3460	-4.909	1.10807	0	
0.3467	-0.0236009	-1.93203	0	
0.3473	5.16861	0.79554	0	
0.3480	5.16861	1.10807	0	
0.3487	2.73771	-2.86963	0	
0.3493	6.08904	-1.93203	0	
0.3500	10.6676	2.64233	0	
0.3507	10.6676	2.64233	0	
0.3513	9.13357	1.10807	0	
0.3520	7.62311	1.10807	0	
0.3527	6.39586	0.79554	0	
0.3533	6.08904	0.511419	0	
0.3540	4.24817	0.198885	0	
0.3547	2.12409	-2.24456	0	
0.3553	0.896836	-3.77882	0	
0.3560	-0.944038	-1.93203	0	
0.3567	-1.53406	-1.02284	0	
0.3573	-0.330413	-3.77882	0	
0.3580	-0.944038	-4.68801	0	
0.3587	-1.84087	-1.64791	0	
0.3593	-1.84087	2.3298	0	
0.3600	-3.06812	1.73314	0	
0.3607	-1.22725	-2.86963	0	
0.3613	4.24817	-3.15375	0	
0.3620	6.70267	-1.02284	0	
0.3627	8.82675	-1.93203	0	
0.3633	14.3258	-3.15375	0	
0.3640	14.6326	-1.64791	0	
0.3647	11.5881	-1.02284	0	
0.3653	13.0985	-2.86963	0	
0.3660	13.4053	-2.86963	0	
0.3667	9.74719	-2.24456	0	
0.3673	6.70267	-4.09135	0	
0.3680	5.16861	-5.5972	0	
0.3687	2.73771	-2.86963	0	
0.3693	-0.637226	-0.113649	0	
0.3700	-4.29537	-0.710304	0	
0.3707	-5.49902	-1.02284	0	
0.3713	-4.29537	0.79554	0	
0.3720	-7.03308	1.73314	0	
0.3727	-12.5321	2.95486	0	
0.3733	-12.5321	5.08578	0	
0.3740	-7.64671	3.23899	0	
0.3747	-3.37494	-0.710304	0	
0.3753	-2.14769	-0.113649	0	
0.3760	-1.22725	1.10807	0	
0.3767	-0.330413	-1.02284	0	
0.3773	0.283211	-1.64791	0	
0.3780	-1.22725	-0.113649	0	
0.3787	-4.909	-0.426182	0	
0.3793	-7.95352	-1.33537	0	
0.3800	-8.26033	-1.93203	0	
0.3807	-7.95352	-1.33537	0	
0.3813	-7.95352	-1.02284	0	
0.3820	-7.95352	-2.86963	0	
0.3827	-8.56714	-2.86963	0	
0.3833	-8.56714	1.10807	0	
0.3840	-7.64671	3.23899	0	
0.3847	-7.03308	1.10807	0	
0.3853	-6.11265	1.42061	0	
0.3860	-4.909	2.64233	0	
0.3867	-4.909	1.73314	0	
0.3873	-4.909	2.3298	0	
0.3880	-3.37494	4.46071	0	
0.3887	-2.14769	4.17659	0	
0.3893	-1.22725	2.64233	0	
0.3900	0.590024	3.23899	0	
0.3907	1.20365	2.64233	0	
0.3913	-1.22725	0.511419	0	
0.3920	-2.4545	0.198885	0	
0.3927	-1.22725	0.79554	0	
0.3933	0.590024	0.79554	0	
0.3940	2.4309	-0.113649	0	
0.3947	2.4309	-1.64791	0	
0.3953	1.20365	-1.64791	0	
0.3960	2.4309	0.79554	0	
0.3967	6.39586	0.79554	0	
0.3973	8.82675	-2.55709	0	
0.3980	7.62311	-4.68801	0	
0.3987	7.31629	-6.50638	0	
0.3993	7.00948	-8.04064	0	
0.4000	6.70267	-6.22226	0	
0.4007	9.13357	-4.37547	0	
0.4013	11.8949	-6.22226	0	
0.4020	7.90632	-7.13145	0	
0.4027	3.35133	-5.00054	0	
0.4033	5.47542	-4.37547	0	
0.4040	7.00948	-5.5972	0	
0.4047	3.94136	-5.00054	0	
0.4053	2.4309	-2.86963	0	
0.4060	3.94136	-1.02284	0	
0.4067	4.24817	-0.113649	0	
0.4073	3.35133	0.198885	0	
0.4080	5.16861	-0.113649	0	
0.4087	7.31629	0.511419	0	
0.4093	7.00948	1.10807	0	
0.4100	2.4309	-1.64791	0	
0.4107	-1.53406	-3.77882	0	
0.4113	-2.14769	-1.02284	0	
0.4120	-2.76131	2.3298	0	
0.4127	-5.49902	1.73314	0	
0.4133	-4.60219	0.198885	0	
0.4140	0.590024	-0.426182	0	
0.4147	2.4309	-0.710304	0	
0.4153	-0.0236009	1.42061	0	
0.4160	-0.330413	0.511419	0	
0.4167	0.590024	-2.24456	0	
0.4173	-1.22725	-0.710304	0	
0.4180	-3.06812	0.79554	0	
0.4187	-3.06812	-1.93203	0	
0.4193	-3.37494	-0.710304	0	
0.4200	-6.11265	0.511419	0	
0.4207	-6.72627	-3.77882	0	
0.4213	-3.98856	-4.68801	0	
0.4220	-3.98856	-1.33537	0	
0.4227	-6.41946	-2.24456	0	
0.4233	-6.72627	-3.15375	0	
0.4240	-4.909	-0.710304	0	
0.4247	-4.60219	-1.02284	0	
0.4253	-5.21581	-3.46628	0	
0.4260	-3.68175	-5.00054	0	
0.4267	-1.22725	-3.77882	0	
0.4273	-1.22725	1.10807	0	
0.4280	-2.14769	4.77324	0	
0.4287	-4.29537	3.55152	0	
0.4293	-6.72627	2.64233	0	
0.4300	-6.72627	4.17659	0	
0.4307	-4.909	4.46071	0	
0.4313	-6.72627	5.3699	0	
0.4320	-10.3844	6.59162	0	
0.4327	-11.9185	5.3699	0	
0.4333	-12.8389	4.46071	0	
0.4340	-13.4525	3.55152	0	
0.4347	-9.18077	2.64233	0	
0.4353	-3.98856	3.86405	0	
0.4360	-4.60219	4.17659	0	
0.4367	-3.98856	0.198885	0	
0.4373	2.12409	-1.02284	0	
0.4380	5.47542	1.10807	0	
0.4387	5.16861	-0.426182	0	
0.4393	6.39586	-3.77882	0	
0.4400	7.62311	-4.09135	0	
0.4407	6.70267	-2.86963	0	
0.4413	8.82675	-1.93203	0	
0.4420	11.2813	-0.710304	0	
0.4427	10.6676	-0.710304	0	
0.4433	9.13357	-1.02284	0	
0.4440	7.62311	0.79554	0	
0.4447	5.47542	0.511419	0	
0.4453	2.73771	-1.64791	0	
0.4460	-1.53406	-0.113649	0	
0.4467	-3.98856	3.55152	0	
0.4473	-0.637226	4.46071	0	
0.4480	3.04452	4.17659	0	
0.4487	4.55498	3.86405	0	
0.4493	7.62311	3.55152	0	
0.4500	7.31629	2.01726	0	
0.4507	2.4309	1.42061	0	
0.4513	0.590024	1.42061	0	
0.4520	2.73771	1.73314	0	
0.4527	3.35133	0.79554	0	
0.4533	3.94136	-0.710304	0	
0.4540	6.39586	-1.93203	0	
0.4547	7.62311	-2.55709	0	
0.4553	7.90632	-0.426182	0	
0.4560	7.90632	1.10807	0	
0.4567	3.35133	-1.64791	0	
0.4573	-2.4545	-4.37547	0	
0.4580	-3.98856	-2.86963	0	
0.4587	-3.68175	-0.710304	0	
0.4593	-4.909	-2.24456	0	
0.4600	-6.41946	-3.77882	0	
0.4607	-9.48758	-1.64791	0	
0.4613	-13.7594	0.511419	0	
0.4620	-11.9185	-1.93203	0	
0.4627	-7.95352	-2.86963	0	
0.4633	-9.77079	-0.113649	0	
0.4640	-12.2253	1.10807	0	
0.4647	-11.3049	-0.113649	0	
0.4653	-11.6117	-0.113649	0	
0.4660	-10.0776	0.79554	0	
0.4667	-4.909	2.64233	0	
0.4673	-3.37494	4.77324	0	
0.4680	-4.29537	3.86405	0	
0.4687	-1.22725	0.511419	0	
0.4693	-0.0236009	-0.113649	0	
0.4700	-1.84087	1.42061	0	
0.4707	-0.637226	2.01726	0	
0.4713	1.81727	1.42061	0	
0.4720	1.20365	0.198885	0	
0.4727	0.896836	1.42061	0	
0.4733	1.51046	2.95486	0	
0.4740	-0.944038	2.01726	0	
0.4747	-3.37494	0.511419	0	
0.4753	-1.22725	-1.02284	0	
0.4760	1.81727	-2.55709	0	
0.4767	2.12409	-1.02284	0	
0.4773	2.4309	-0.113649	0	
0.4780	3.94136	-1.93203	0	
0.4787	6.08904	-1.02284	0	
0.4793	7.31629	0.511419	0	
0.4800	7.00948	-1.93203	0	
0.4807	7.62311	-1.93203	0	
0.4813	9.44038	0.79554	0	
0.4820	8.51994	-1.33537	0	
0.4827	5.78223	-3.77882	0	
0.4833	6.39586	-2.86963	0	
0.4840	7.31629	-2.55709	0	
0.4847	3.04452	-2.24456	0	
0.4853	1.51046	-0.113649	0	
0.4860	6.08904	-0.113649	0	
0.4867	6.08904	-1.02284	0	
0.4873	2.4309	1.42061	0	
0.4880	5.16861	3.55152	0	
0.4887	9.74719	2.3298	0	
0.4893	6.39586	1.42061	0	
0.4900	3.04452	2.3298	0	
0.4907	3.04452	2.01726	0	
0.4913	1.51046	-0.426182	0	
0.4920	0.590024	-1.93203	0	
0.4927	2.4309	-1.33537	0	
0.4933	0.283211	-1.33537	0	
0.4940	-3.06812	-3.46628	0	
0.4947	-3.37494	-3.77882	0	
0.4953	-4.909	-1.02284	0	
0.4960	-8.56714	0.198885	0	
0.4967	-9.77079	-1.93203	0	
0.4973	-9.48758	-3.46628	0	
0.4980	-9.18077	-2.55709	0	
0.4987	-7.64671	-1.02284	0	
0.4993	-5.49902	-1.93203	0	
0.5000	-3.98856	-3.77882	0	
0.5007	-2.76131	-4.68801	0	
0.5013	0.283211	-4.37547	0	
0.5020	5.16861	-4.09135	0	
0.5027	9.74719	-3.77882	0	
0.5033	12.2017	-3.77882	0	
0.5040	13.7122	-3.15375	0	
0.5047	14.6326	-1.33537	0	
0.5053	13.4053	-1.93203	0	
0.5060	11.8949	-3.77882	0	
0.5067	9.13357	-2.86963	0	
0.5073	5.16861	0.198885	0	
0.5080	3.04452	1.10807	0	
0.5087	0.590024	0.79554	0	
0.5093	-4.909	1.42061	0	
0.5100	-7.95352	2.64233	0	
0.5107	-8.87396	3.55152	0	
0.5113	-13.7594	4.17659	0	
0.5120	-19.2348	5.08578	0	
0.5127	-19.2348	5.68243	0	
0.5133	-18.0311	3.55152	0	
0.5140	-16.8039	-0.113649	0	
0.5147	-11.3049	1.42061	0	
0.5153	-3.98856	4.77324	0	
0.5160	-0.944038	3.86405	0	
0.5167	-0.0236009	1.10807	0	
0.5173	2.4309	0.79554	0	
0.5180	6.39586	-1.02284	0	
0.5187	10.6676	-5.00054	0	
0.5193	11.8949	-7.44399	0	
0.5200	8.82675	-7.44399	0	
0.5207	5.16861	-6.81892	0	
0.5213	4.24817	-5.28466	0	
0.5220	3.04452	-3.77882	0	
0.5227	0.590024	-5.00054	0	
0.5233	-0.330413	-4.37547	0	
0.5240	0.283211	-0.113649	0	
0.5247	-0.330413	1.42061	0	
0.5253	-1.84087	-1.33537	0	
0.5260	-2.14769	-2.86963	0	
0.5267	-2.14769	-2.86963	0	
0.5273	-3.68175	-3.15375	0	
0.5280	-6.11265	-0.710304	0	
0.5287	-7.3399	2.3298	0	
0.5293	-7.3399	1.73314	0	
0.5300	-9.18077	1.42061	0	
0.5307	-10.3844	3.86405	0	
0.5313	-7.95352	6.59162	0	
0.5320	-7.64671	5.68243	0	
0.5327	-9.18077	3.55152	0	
0.5333	-7.64671	2.95486	0	
0.5340	-5.80583	2.64233	0	
0.5347	-5.80583	0.79554	0	
0.5353	-4.29537	0.198885	0	
0.5360	-2.4545	1.10807	0	
0.5367	-3.68175	0.79554	0	
0.5373	-2.76131	-1.33537	0	
0.5380	1.20365	-1.93203	0	
0.5387	2.4309	0.198885	0	
0.5393	0.283211	0.511419	0	
0.5400	-1.53406	-2.86963	0	
0.5407	-1.84087	-5.5972	0	
0.5413	-0.330413	-5.5972	0	
0.5420	2.4309	-5.90973	0	
0.5427	3.04452	-6.50638	0	
0.5433	2.4309	-5.00054	0	
0.5440	3.63455	-3.77882	0	
0.5447	4.8618	-3.46628	0	
0.5453	3.35133	-3.15375	0	
0.5460	3.63455	-1.93203	0	
0.5467	7.00948	-0.113649	0	
0.5473	7.31629	2.01726	0	
0.5480	4.24817	2.64233	0	
0.5487	2.4309	3.86405	0	
0.5493	2.4309	5.3699	0	
0.5500	2.4309	6.90415	0	
0.5507	2.12409	8.75095	0	
0.5513	-1.53406	8.43841	0	
0.5520	-5.21581	6.59162	0	
0.5527	-6.72627	6.90415	0	
0.5533	-8.26033	7.21669	0	
0.5540	-6.72627	5.08578	0	
0.5547	0.590024	2.95486	0	
0.5553	5.16861	1.42061	0	
0.5560	8.21313	-0.113649	0	
0.5567	14.6326	-0.426182	0	
0.5573	17.6771	-0.426182	0	
0.5580	14.6326	-1.33537	0	
0.5587	14.019	-1.64791	0	
0.5593	15.2462	-1.93203	0	
0.5600	13.4053	-3.15375	0	
0.5607	10.6676	-3.77882	0	
0.5613	7.62311	-3.77882	0	
0.5620	4.24817	-5.00054	0	
0.5627	1.51046	-4.68801	0	
0.5633	-2.14769	-2.86963	0	
0.5640	-6.41946	-1.64791	0	
0.5647	-8.87396	-0.113649	0	
0.5653	-10.3844	0.198885	0	
0.5660	-12.8389	0.198885	0	
0.5667	-14.963	1.73314	0	
0.5673	-15.2698	2.01726	0	
0.5680	-14.0662	-0.113649	0	
0.5687	-13.7594	0.198885	0	
0.5693	-12.8389	2.01726	0	
0.5700	-8.56714	2.64233	0	
0.5707	-6.41946	3.55152	0	
0.5713	-8.56714	4.17659	0	
0.5720	-7.64671	3.86405	0	
0.5727	-3.98856	4.17659	0	
0.5733	-3.98856	2.95486	0	
0.5740	-3.98856	-0.426182	0	
0.5747	-3.06812	0.511419	0	
0.5753	-3.37494	3.86405	0	
0.5760	-2.76131	3.55152	0	
0.5767	-0.637226	1.73314	0	
0.5773	-2.14769	0.511419	0	
0.5780	-3.98856	-1.93203	0	
0.5787	-2.14769	-2.86963	0	
0.5793	-1.22725	-1.02284	0	
0.5800	-1.84087	-0.710304	0	
0.5807	-0.330413	-2.24456	0	
0.5813	1.81727	-3.77882	0	
0.5820	3.63455	-3.77882	0	
0.5827	7.31629	-1.64791	0	
0.5833	10.6676	-0.426182	0	
0.5840	13.7122	-2.86963	0	
0.5847	19.8248	-4.68801	0	
0.5853	27.1411	-4.68801	0	
0.5860	28.6752	-4.68801	0	
0.5867	25.3238	-4.68801	0	
0.5873	23.1761	-4.37547	0	
0.5880	24.4034	-4.68801	0	
0.5887	21.9489	-4.37547	0	
0.5893	11.8949	-2.86963	0	
0.5900	3.35133	-1.02284	0	
0.5907	-0.0236009	-1.64791	0	
0.5913	-6.41946	-2.55709	0	
0.5920	-13.7594	-1.33537	0	
0.5927	-13.4525	-0.426182	0	
0.5933	-11.3049	-1.93203	0	
0.5940	-15.2698	-2.86963	0	
0.5947	-19.5416	-0.426182	0	
0.5953	-21.6893	2.64233	0	
0.5960	-24.1202	4.46071	0	
0.5967	-25.3474	3.86405	0	
0.5973	-23.5065	2.3298	0	
0.5980	-22.3029	1.42061	0	
0.5987	-23.1997	2.01726	0	
0.5993	-22.3029	3.55152	0	
0.6000	-16.8039	2.95486	0	
0.6007	-11.3049	0.198885	0	
0.6013	-8.87396	-1.02284	0	
0.6020	-5.80583	-0.426182	0	
0.6027	-3.98856	-0.426182	0	
0.6033	-3.37494	-0.113649	0	
0.6040	0.283211	-0.113649	0	
0.6047	5.16861	-1.33537	0	
0.6053	5.16861	-0.113649	0	
0.6060	4.24817	0.79554	0	
0.6067	7.00948	-1.33537	0	
0.6073	9.13357	-1.02284	0	
0.6080	9.13357	2.64233	0	
0.6087	7.00948	3.23899	0	
0.6093	4.55498	2.01726	0	
0.6100	7.00948	3.23899	0	
0.6107	9.74719	1.42061	0	
0.6113	6.08904	-1.93203	0	
0.6120	2.4309	-0.710304	0	
0.6127	4.24817	0.511419	0	
0.6133	7.31629	-0.426182	0	
0.6140	7.31629	-0.426182	0	
0.6147	4.8618	-1.02284	0	
0.6153	4.8618	-2.86963	0	
0.6160	8.82675	-3.15375	0	
0.6167	8.82675	-2.86963	0	
0.6173	4.55498	-1.93203	0	
0.6180	3.63455	0.198885	0	
0.6187	3.35133	-0.113649	0	
0.6193	-0.944038	-1.93203	0	
0.6200	-4.60219	-0.113649	0	
0.6207	-8.26033	1.73314	0	
0.6213	-11.9185	-1.93203	0	
0.6220	-11.3049	-2.86963	0	
0.6227	-10.3844	2.3298	0	
0.6233	-11.9185	4.77324	0	
0.6240	-10.998	3.23899	0	
0.6247	-9.18077	2.64233	0	
0.6253	-8.56714	0.79554	0	
0.6260	-5.49902	-1.33537	0	
0.6267	-2.14769	0.79554	0	
0.6273	-1.22725	5.3699	0	
0.6280	0.590024	5.68243	0	
0.6287	2.4309	4.46071	0	
0.6293	3.04452	4.46071	0	
0.6300	4.8618	3.23899	0	
0.6307	5.47542	2.01726	0	
0.6313	7.00948	0.79554	0	
0.6320	16.1667	-1.64791	0	
0.6327	22.8693	-1.93203	0	
0.6333	20.7452	0.198885	0	
0.6340	20.1316	-0.113649	0	
0.6347	20.7452	-1.64791	0	
0.6353	15.2462	-1.02284	0	
0.6360	9.74719	0.198885	0	
0.6367	6.70267	-0.426182	0	
0.6373	0.590024	-2.24456	0	
0.6380	-4.29537	-2.86963	0	
0.6387	-2.76131	-1.93203	0	
0.6393	-2.4545	-1.93203	0	
0.6400	-7.03308	-3.77882	0	
0.6407	-10.3844	-3.77882	0	
0.6413	-10.0776	-3.77882	0	
0.6420	-11.3049	-3.77882	0	
0.6427	-14.3494	-1.02284	0	
0.6433	-13.4525	0.198885	0	
0.6440	-10.0776	-1.33537	0	
0.6447	-10.0776	-1.02284	0	
0.6453	-10.3844	1.73314	0	
0.6460	-8.26033	1.10807	0	
0.6467	-7.64671	-1.02284	0	
0.6473	-5.21581	0.79554	0	
0.6480	-0.0236009	3.86405	0	
0.6487	2.73771	1.73314	0	
0.6493	5.47542	-1.93203	0	
0.6500	11.2813	-1.93203	0	
0.6507	13.0985	-1.02284	0	
0.6513	11.8949	-1.93203	0	
0.6520	14.3258	-2.86963	0	
0.6527	16.1667	-3.15375	0	
0.6533	13.7122	-3.77882	0	
0.6540	11.2813	-3.77882	0	
0.6547	7.90632	-2.86963	0	
0.6553	3.35133	-3.77882	0	
0.6560	0.896836	-3.77882	0	
0.6567	-0.944038	-2.86963	0	
0.6573	-4.29537	-3.77882	0	
0.6580	-8.56714	-4.68801	0	
0.6587	-11.6117	-3.15375	0	
0.6593	-13.1457	-1.33537	0	
0.6600	-13.4525	-1.02284	0	
0.6607	-14.3494	-0.710304	0	
0.6613	-15.2698	0.198885	0	
0.6620	-14.963	-0.113649	0	
0.6627	-14.0662	-1.02284	0	
0.6633	-12.2253	-1.33537	0	
0.6640	-9.48758	-1.02284	0	
0.6647	-7.64671	0.511419	0	
0.6653	-3.06812	2.3298	0	
0.6660	0.590024	1.73314	0	
0.6667	0.590024	0.511419	0	
0.6673	1.20365	0.79554	0	
0.6680	3.35133	2.01726	0	
0.6687	2.12409	1.73314	0	
0.6693	0.590024	0.79554	0	
0.6700	5.16861	1.42061	0	
0.6707	10.3608	2.3298	0	
0.6713	9.74719	1.73314	0	
0.6720	7.00948	0.79554	0	
0.6727	4.55498	1.42061	0	
0.6733	3.35133	0.79554	0	
0.6740	1.51046	-1.93203	0	
0.6747	-1.22725	-2.55709	0	
0.6753	0.590024	-0.710304	0	
0.6760	4.55498	-0.710304	0	
0.6767	2.4309	-2.86963	0	
0.6773	-3.98856	-3.46628	0	
0.6780	-3.98856	-1.93203	0	
0.6787	-0.330413	-0.710304	0	
0.6793	-1.22725	-1.02284	0	
0.6800	-3.06812	-1.33537	0	
0.6807	-3.06812	-1.02284	0	
0.6813	-3.98856	-1.33537	0	
0.6820	-2.76131	-1.02284	0	
0.6827	0.283211	-0.113649	0	
0.6833	-0.330413	1.73314	0	
0.6840	-2.14769	3.55152	0	
0.6847	0.283211	2.3298	0	
0.6853	1.51046	0.511419	0	
0.6860	1.51046	1.73314	0	
0.6867	5.78223	1.73314	0	
0.6873	10.6676	-0.113649	0	
0.6880	9.13357	-0.113649	0	
0.6887	9.13357	1.10807	0	
0.6893	13.0985	1.42061	0	
0.6900	11.5881	0.511419	0	
0.6907	8.82675	-1.64791	0	
0.6913	12.4849	-1.93203	0	
0.6920	13.0985	0.79554	0	
0.6927	7.62311	2.01726	0	
0.6933	3.94136	-0.426182	0	
0.6940	2.4309	-1.93203	0	
0.6947	-0.330413	-1.02284	0	
0.6953	-3.98856	-0.710304	0	
0.6960	-10.3844	-0.710304	0	
0.6967	-16.4971	-1.02284	0	
0.6973	-15.2698	-1.93203	0	
0.6980	-13.1457	-1.33537	0	
0.6987	-14.3494	-0.710304	0	
0.6993	-11.9185	-1.02284	0	
0.7000	-9.48758	-1.33537	0	
0.7007	-11.6117	-1.02284	0	
0.7013	-9.48758	1.10807	0	
0.7020	-3.06812	3.55152	0	
0.7027	-2.14769	3.55152	0	
0.7033	-3.06812	0.511419	0	
0.7040	-3.37494	-1.02284	0	
0.7047	-7.3399	-0.710304	0	
0.7053	-9.18077	-2.55709	0	
0.7060	-6.72627	-3.15375	0	
0.7067	-8.26033	-0.113649	0	
0.7073	-7.95352	1.42061	0	
0.7080	-2.14769	1.42061	0	
0.7087	-0.330413	2.01726	0	
0.7093	-0.330413	2.01726	0	
0.7100	3.35133	1.42061	0	
0.7107	3.35133	1.73314	0	
0.7113	-0.330413	0.198885	0	
0.7120	2.12409	-1.64791	0	
0.7127	4.24817	-0.426182	0	
0.7133	2.4309	0.79554	0	
0.7140	2.73771	0.79554	0	
0.7147	2.4309	1.42061	0	
0.7153	-0.0236009	0.198885	0	
0.7160	1.81727	-1.02284	0	
0.7167	5.16861	-0.113649	0	
0.7173	3.04452	-1.93203	0	
0.7180	1.81727	-4.37547	0	
0.7187	3.63455	-2.86963	0	
0.7193	3.94136	-1.33537	0	
0.7200	2.4309	-2.86963	0	
0.7207	0.896836	-2.86963	0	
0.7213	-1.53406	-2.55709	0	
0.7220	-1.53406	-3.77882	0	
0.7227	1.20365	-3.15375	0	
0.7233	3.04452	-1.02284	0	
0.7240	4.24817	-1.02284	0	
0.7247	4.55498	-2.86963	0	
0.7253	3.04452	-3.15375	0	
0.7260	1.81727	-2.86963	0	
0.7267	1.20365	-1.64791	0	
0.7273	0.283211	0.79554	0	
0.7280	-2.14769	0.79554	0	
0.7287	-4.909	-0.426182	0	
0.7293	-6.11265	0.198885	0	
0.7300	-5.80583	0.511419	0	
0.7307	-5.80583	-1.33537	0	
0.7313	-4.60219	-0.113649	0	
0.7320	-2.76131	4.17659	0	
0.7327	-3.68175	4.46071	0	
0.7333	-3.98856	1.73314	0	
0.7340	-2.14769	0.79554	0	
0.7347	-2.4545	0.79554	0	
0.7353	-2.14769	1.10807	0	
0.7360	-0.637226	1.73314	0	
0.7367	-2.14769	0.511419	0	
0.7373	-0.330413	-0.113649	0	
0.7380	5.16861	0.79554	0	
0.7387	4.55498	-1.64791	0	
0.7393	-0.0236009	-3.77882	0	
0.7400	-0.0236009	-1.02284	0	
0.7407	0.283211	0.79554	0	
0.7413	-2.4545	-0.426182	0	
0.7420	-2.4545	-1.93203	0	
0.7427	-1.84087	-2.55709	0	
0.7433	-3.06812	-2.24456	0	
0.7440	-1.22725	-1.93203	0	
0.7447	0.283211	-2.86963	0	
0.7453	-1.84087	-1.93203	0	
0.7460	-3.06812	-0.426182	0	
0.7467	-2.14769	0.79554	0	
0.7473	-1.22725	1.42061	0	
0.7480	0.590024	0.79554	0	
0.7487	3.04452	-1.93203	0	
0.7493	3.63455	-1.93203	0	
0.7500	4.24817	1.73314	0	
0.7507	7.90632	3.55152	0	
0.7513	10.054	1.73314	0	
0.7520	7.90632	0.198885	0	
0.7527	6.08904	1.10807	0	
0.7533	6.70267	2.01726	0	
0.7540	7.31629	1.73314	0	
0.7547	6.70267	1.73314	0	
0.7553	3.94136	2.01726	0	
0.7560	0.283211	0.198885	0	
0.7567	-2.14769	-1.02284	0	
0.7573	-3.06812	-0.113649	0	
0.7580	-4.909	-1.02284	0	
0.7587	-8.26033	-1.93203	0	
0.7593	-9.48758	0.511419	0	
0.7600	-9.48758	-0.426182	0	
0.7607	-10.6912	-3.77882	0	
0.7613	-10.0776	-2.86963	0	
0.7620	-7.03308	-1.33537	0	
0.7627	-7.64671	-2.86963	0	
0.7633	-10.998	-3.46628	0	
0.7640	-10.998	-2.24456	0	
0.7647	-9.48758	-0.113649	0	
0.7653	-8.56714	1.73314	0	
0.7660	-5.80583	0.79554	0	
0.7667	-4.909	-0.113649	0	
0.7673	-5.80583	1.73314	0	
0.7680	-3.06812	2.95486	0	
0.7687	1.20365	1.73314	0	
0.7693	3.35133	2.01726	0	
0.7700	6.39586	3.23899	0	
0.7707	8.21313	3.55152	0	
0.7713	7.00948	3.86405	0	
0.7720	6.70267	2.01726	0	
0.7727	6.08904	-1.02284	0	
0.7733	5.16861	-1.02284	0	
0.7740	4.8618	0.79554	0	
0.7747	4.24817	-0.113649	0	
0.7753	3.35133	-1.64791	0	
0.7760	4.55498	-1.02284	0	
0.7767	6.08904	-0.710304	0	
0.7773	6.70267	-2.55709	0	
0.7780	8.51994	-3.15375	0	
0.7787	7.00948	-0.113649	0	
0.7793	3.04452	2.3298	0	
0.7800	2.4309	1.73314	0	
0.7807	1.81727	1.42061	0	
0.7813	-2.76131	0.79554	0	
0.7820	-3.06812	-1.33537	0	
0.7827	1.51046	-1.64791	0	
0.7833	3.35133	-1.02284	0	
0.7840	3.35133	-2.86963	0	
0.7847	2.4309	-2.86963	0	
0.7853	-0.330413	-0.426182	0	
0.7860	-2.76131	-0.113649	0	
0.7867	-3.06812	0.198885	0	
0.7873	-4.909	0.79554	0	
0.7880	-5.80583	1.10807	0	
0.7887	-4.60219	4.17659	0	
0.7893	-5.49902	5.3699	0	
0.7900	-5.49902	1.10807	0	
0.7907	-0.330413	0.198885	0	
0.7913	2.4309	3.23899	0	
0.7920	2.12409	1.10807	0	
0.7927	6.08904	-1.02284	0	
0.7933	10.3608	1.42061	0	
0.7940	7.90632	1.10807	0	
0.7947	3.63455	-0.426182	0	
0.7953	0.896836	2.01726	0	
0.7960	-3.06812	1.73314	0	
0.7967	-6.11265	-2.24456	0	
0.7973	-5.80583	-1.93203	0	
0.7980	-3.37494	0.198885	0	
0.7987	-0.944038	-1.93203	0	
0.7993	1.51046	-3.77882	0	
0.8000	4.8618	-3.77882	0	
0.8007	7.00948	-3.77882	0	
0.8013	4.8618	-3.46628	0	
0.8020	1.20365	-1.93203	0	
0.8027	-1.22725	-0.426182	0	
0.8033	-3.68175	-0.113649	0	
0.8040	-3.98856	-1.02284	0	
0.8047	-3.06812	-2.24456	0	
0.8053	-4.909	-2.24456	0	
0.8060	-7.3399	-0.710304	0	
0.8067	-6.41946	0.198885	0	
0.8073	-6.72627	-0.113649	0	
0.8080	-11.3049	0.79554	0	
0.8087	-14.0662	3.55152	0	
0.8093	-12.2253	4.17659	0	
0.8100	-11.3049	1.73314	0	
0.8107	-13.1457	1.73314	0	
0.8113	-14.6562	4.17659	0	
0.8120	-13.1457	3.55152	0	
0.8127	-8.26033	1.73314	0	
0.8133	-2.4545	2.01726	0	
0.8140	2.4309	1.73314	0	
0.8147	6.39586	0.79554	0	
0.8153	11.2813	0.79554	0	
0.8160	14.6326	-1.02284	0	
0.8167	13.7122	-2.86963	0	
0.8173	11.5881	-1.02284	0	
0.8180	11.5881	-0.710304	0	
0.8187	11.5881	-2.86963	0	
0.8193	9.74719	-3.77882	0	
0.8200	8.51994	-3.77882	0	
0.8207	7.00948	-4.37547	0	
0.8213	3.94136	-3.15375	0	
0.8220	0.590024	-1.93203	0	
0.8227	-1.22725	-3.77882	0	
0.8233	-1.22725	-5.28466	0	
0.8240	-2.14769	-3.77882	0	
0.8247	-4.909	-1.64791	0	
0.8253	-5.49902	-1.93203	0	
0.8260	-4.60219	-2.24456	0	
0.8267	-6.72627	-2.24456	0	
0.8273	-8.56714	-1.93203	0	
0.8280	-7.03308	-0.113649	0	
0.8287	-5.80583	1.42061	0	
0.8293	-5.80583	0.79554	0	
0.8300	-4.60219	2.3298	0	
0.8307	-3.68175	3.55152	0	
0.8313	-3.98856	2.3298	0	
0.8320	-3.37494	1.42061	0	
0.8327	-3.06812	2.64233	0	
0.8333	-0.944038	1.10807	0	
0.8340	3.35133	0.198885	0	
0.8347	3.94136	2.64233	0	
0.8353	2.4309	3.23899	0	
0.8360	2.4309	0.511419	0	
0.8367	2.12409	-0.710304	0	
0.8373	-0.0236009	-0.710304	0	
0.8380	1.51046	-1.93203	0	
0.8387	4.24817	-1.33537	0	
0.8393	2.73771	0.79554	0	
0.8400	0.590024	-0.113649	0	
0.8407	1.81727	-2.86963	0	
0.8413	4.24817	-1.93203	0	
0.8420	5.16861	-1.33537	0	
0.8427	3.94136	-3.77882	0	
0.8433	2.4309	-5.00054	0	
0.8440	3.35133	-2.86963	0	
0.8447	6.08904	-1.33537	0	
0.8453	7.00948	-1.93203	0	
0.8460	5.78223	-1.33537	0	
0.8467	6.39586	1.73314	0	
0.8473	7.00948	3.55152	0	
0.8480	5.47542	2.64233	0	
0.8487	6.08904	0.79554	0	
0.8493	7.90632	1.73314	0	
0.8500	7.00948	2.64233	0	
0.8507	7.90632	1.73314	0	
0.8513	13.4053	1.42061	0	
0.8520	15.2462	1.73314	0	
0.8527	13.0985	-1.02284	0	
0.8533	13.4053	-3.46628	0	
0.8540	13.7122	-1.02284	0	
0.8547	10.9744	0.511419	0	
0.8553	7.90632	-1.64791	0	
0.8560	5.47542	-1.93203	0	
0.8567	1.81727	-0.426182	0	
0.8573	-3.06812	-2.24456	0	
0.8580	-5.80583	-4.37547	0	
0.8587	-6.72627	-3.77882	0	
0.8593	-7.64671	-3.77882	0	
0.8600	-10.998	-4.09135	0	
0.8607	-13.4525	-4.37547	0	
0.8613	-14.0662	-3.77882	0	
0.8620	-14.0662	-1.02284	0	
0.8627	-14.963	2.3298	0	
0.8633	-15.8834	2.64233	0	
0.8640	-16.8039	2.3298	0	
0.8647	-17.1107	3.23899	0	
0.8653	-17.1107	3.86405	0	
0.8660	-16.8039	3.55152	0	
0.8667	-14.963	3.55152	0	
0.8673	-11.6117	3.23899	0	
0.8680	-9.77079	3.55152	0	
0.8687	-8.56714	3.86405	0	
0.8693	-6.11265	4.77324	0	
0.8700	-2.14769	5.68243	0	
0.8707	0.590024	5.3699	0	
0.8713	1.81727	3.55152	0	
0.8720	2.73771	3.23899	0	
0.8727	3.94136	3.55152	0	
0.8733	2.4309	1.42061	0	
0.8740	3.04452	0.511419	0	
0.8747	7.62311	1.42061	0	
0.8753	8.51994	-0.113649	0	
0.8760	3.94136	-3.15375	0	
0.8767	3.35133	-3.15375	0	
0.8773	5.16861	-2.55709	0	
0.8780	3.63455	-3.46628	0	
0.8787	3.04452	-3.46628	0	
0.8793	3.35133	-2.86963	0	
0.8800	0.590024	-1.93203	0	
0.8807	-3.68175	-0.113649	0	
0.8813	-6.72627	0.511419	0	
0.8820	-10.3844	-1.02284	0	
0.8827	-12.2253	-1.02284	0	
0.8833	-10.998	0.511419	0	
0.8840	-9.48758	1.73314	0	
0.8847	-9.77079	2.3298	0	
0.8853	-11.3049	0.79554	0	
0.8860	-11.3049	-0.426182	0	
0.8867	-9.48758	0.79554	0	
0.8873	-8.26033	1.73314	0	
0.8880	-8.56714	1.73314	0	
0.8887	-5.80583	2.3298	0	
0.8893	-2.4545	1.73314	0	
0.8900	-3.06812	-0.113649	0	
0.8907	-0.944038	-0.113649	0	
0.8913	4.24817	-0.426182	0	
0.8920	3.35133	-2.86963	0	
0.8927	-0.0236009	-1.02284	0	
0.8933	2.4309	1.73314	0	
0.8940	3.63455	0.79554	0	
0.8947	2.12409	-1.33537	0	
0.8953	3.04452	-2.55709	0	
0.8960	5.16861	-3.77882	0	
0.8967	3.63455	-3.15375	0	
0.8973	3.35133	-3.15375	0	
0.8980	7.00948	-4.68801	0	
0.8987	9.44038	-3.77882	0	
0.8993	8.21313	-2.86963	0	
0.9000	5.16861	-2.86963	0	
0.9007	3.35133	-1.02284	0	
0.9013	3.63455	-0.113649	0	
0.9020	2.4309	-2.55709	0	
0.9027	1.20365	-3.77882	0	
0.9033	3.35133	-2.86963	0	
0.9040	5.47542	-3.15375	0	
0.9047	2.73771	-3.77882	0	
0.9053	1.51046	-3.15375	0	
0.9060	3.35133	-1.93203	0	
0.9067	3.35133	-1.93203	0	
0.9073	2.12409	-3.46628	0	
0.9080	2.4309	-3.77882	0	
0.9087	1.51046	-1.64791	0	
0.9093	-2.14769	-0.710304	0	
0.9100	-1.22725	-3.15375	0	
0.9107	1.81727	-3.77882	0	
0.9113	1.20365	-0.710304	0	
0.9120	0.590024	0.79554	0	
0.9127	2.4309	-1.64791	0	
0.9133	3.94136	-3.77882	0	
0.9140	1.81727	-3.15375	0	
0.9147	-1.22725	-1.64791	0	
0.9153	-1.22725	1.73314	0	
0.9160	0.896836	5.08578	0	
0.9167	1.20365	2.95486	0	
0.9173	0.590024	-0.426182	0	
0.9180	1.51046	0.511419	0	
0.9187	2.4309	2.64233	0	
0.9193	1.20365	1.73314	0	
0.9200	2.4309	-0.710304	0	
0.9207	5.16861	-1.93203	0	
0.9213	4.8618	-0.710304	0	
0.9220	2.4309	-1.02284	0	
0.9227	2.12409	-2.86963	0	
0.9233	1.81727	-2.24456	0	
0.9240	-2.4545	-2.86963	0	
0.9247	-6.72627	-6.81892	0	
0.9253	-2.76131	-7.44399	0	
0.9260	4.24817	-2.55709	0	
0.9267	5.16861	-1.33537	0	
0.9273	2.4309	-3.15375	0	
0.9280	1.81727	-0.113649	0	
0.9287	0.896836	2.64233	0	
0.9293	-2.14769	0.79554	0	
0.9300	-4.909	-0.426182	0	
0.9307	-5.80583	0.79554	0	
0.9313	-4.29537	-0.113649	0	
0.9320	-1.22725	-1.02284	0	
0.9327	-1.22725	0.511419	0	
0.9333	-4.60219	1.73314	0	
0.9340	-5.80583	0.79554	0	
0.9347	-5.80583	0.511419	0	
0.9353	-7.95352	1.73314	0	
0.9360	-9.18077	1.73314	0	
0.9367	-9.18077	-1.33537	0	
0.9373	-7.95352	-3.77882	0	
0.9380	-3.98856	-1.33537	0	
0.9387	-0.944038	-0.426182	0	
0.9393	-1.22725	-3.77882	0	
0.9400	-0.944038	-4.68801	0	
0.9407	2.4309	-2.55709	0	
0.9413	4.8618	-2.86963	0	
0.9420	5.47542	-2.24456	0	
0.9427	5.16861	1.10807	0	
0.9433	4.24817	0.511419	0	
0.9440	4.24817	-0.710304	0	
0.9447	5.16861	1.73314	0	
0.9453	4.8618	0.511419	0	
0.9460	2.73771	-1.64791	0	
0.9467	2.4309	0.79554	0	
0.9473	3.35133	0.511419	0	
0.9480	3.35133	-2.86963	0	
0.9487	3.35133	0.198885	0	
0.9493	3.94136	2.95486	0	
0.9500	2.73771	-0.113649	0	
0.9507	-1.22725	-1.64791	0	
0.9513	-4.29537	0.511419	0	
0.9520	-5.21581	0.198885	0	
0.9527	-5.49902	-1.02284	0	
0.9533	-5.80583	0.79554	0	
0.9540	-5.49902	1.73314	0	
0.9547	-6.41946	0.198885	0	
0.9553	-9.18077	1.10807	0	
0.9560	-9.48758	4.77324	0	
0.9567	-7.03308	4.46071	0	
0.9573	-7.64671	-0.113649	0	
0.9580	-10.6912	-1.93203	0	
0.9587	-10.6912	-1.02284	0	
0.9593	-7.64671	-0.426182	0	
0.9600	-4.909	-0.710304	0	
0.9607	-1.53406	-2.86963	0	
0.9613	0.590024	-4.09135	0	
0.9620	1.20365	-2.55709	0	
0.9627	2.4309	-2.86963	0	
0.9633	5.47542	-4.68801	0	
0.9640	5.16861	-3.46628	0	
0.9647	3.63455	-1.93203	0	
0.9653	4.24817	-4.68801	0	
0.9660	6.08904	-5.5972	0	
0.9667	6.08904	-3.77882	0	
0.9673	3.94136	-2.55709	0	
0.9680	2.4309	-0.710304	0	
0.9687	1.51046	1.10807	0	
0.9693	0.590024	1.10807	0	
0.9700	-0.944038	1.73314	0	
0.9707	-0.0236009	4.17659	0	
0.9713	1.81727	5.3699	0	
0.9720	0.283211	3.55152	0	
0.9727	-1.53406	2.64233	0	
0.9733	1.20365	4.46071	0	
0.9740	4.24817	4.77324	0	
0.9747	1.81727	2.64233	0	
0.9753	-0.637226	1.73314	0	
0.9760	2.12409	3.23899	0	
0.9767	5.16861	2.64233	0	
0.9773	7.00948	0.198885	0	
0.9780	12.4849	-1.93203	0	
0.9787	19.8248	-1.93203	0	
0.9793	25.3238	-2.24456	0	
0.9800	28.0615	-3.46628	0	
0.9807	27.1411	-4.37547	0	
0.9813	24.4034	-3.77882	0	
0.9820	22.5625	-3.77882	0	
0.9827	18.9044	-4.37547	0	
0.9833	12.7917	-3.77882	0	
0.9840	7.62311	-2.86963	0	
0.9847	3.35133	-2.86963	0	
0.9853	0.590024	-3.15375	0	
0.9860	-2.4545	-3.46628	0	
0.9867	-10.3844	-3.77882	0	
0.9873	-18.3379	-3.15375	0	
0.9880	-18.928	-0.113649	0	
0.9887	-18.6211	2.95486	0	
0.9893	-24.1202	4.77324	0	
0.9900	-28.6988	5.3699	0	
0.9907	-28.6988	5.3699	0	
0.9913	-25.3474	6.59162	0	
0.9920	-21.3825	8.43841	0	
0.9927	-20.462	7.21669	0	
0.9933	-20.1552	3.23899	0	
0.9940	-17.4175	2.64233	0	
0.9947	-13.7594	5.99497	0	
0.9953	-11.9185	5.3699	0	
0.9960	-10.6912	1.73314	0	
0.9967	-8.87396	1.73314	0	
0.9973	-5.80583	2.01726	0	
0.9980	-3.06812	-1.02284	0	
0.9987	-2.14769	-2.55709	0	
0.9993	-0.330413	-1.64791	0	
1.0000	4.55498	-2.86963	0	
1.0007	7.90632	-3.77882	0	
1.0013	7.90632	-2.24456	0	
1.0020	8.51994	-2.86963	0	
1.0027	11.5881	-4.68801	0	
1.0033	12.7917	-1.93203	0	
1.0040	11.5881	-0.710304	0	
1.0047	11.5881	-4.68801	0	
1.0053	12.4849	-6.22226	0	
1.0060	13.4053	-2.24456	0	
1.0067	14.9394	-0.710304	0	
1.0073	13.4053	-1.64791	0	
1.0080	7.62311	0.511419	0	
1.0087	3.35133	1.73314	0	
1.0093	4.55498	0.511419	0	
1.0100	6.70267	1.42061	0	
1.0107	4.24817	2.95486	0	
1.0113	0.590024	1.73314	0	
1.0120	0.283211	-0.113649	0	
1.0127	-0.330413	-0.113649	0	
1.0133	-3.37494	-0.710304	0	
1.0140	-4.909	-1.02284	0	
1.0147	-3.68175	-0.710304	0	
1.0153	-4.909	-1.93203	0	
1.0160	-6.72627	-2.24456	0	
1.0167	-3.98856	-1.64791	0	
1.0173	-1.84087	-2.24456	0	
1.0180	-3.37494	-3.15375	0	
1.0187	-2.14769	-1.64791	0	
1.0193	0.590024	0.79554	0	
1.0200	-0.944038	-0.113649	0	
1.0207	-2.76131	-1.93203	0	
1.0213	-2.14769	-1.93203	0	
1.0220	-4.29537	-2.55709	0	
1.0227	-8.87396	-3.46628	0	
1.0233	-10.0776	-2.24456	0	
1.0240	-9.77079	-0.710304	0	
1.0247	-8.87396	-1.02284	0	
1.0253	-5.80583	-1.93203	0	
1.0260	-4.29537	-0.426182	0	
1.0267	-5.80583	1.10807	0	
1.0273	-4.60219	0.511419	0	
1.0280	-1.53406	1.10807	0	
1.0287	-3.06812	5.08578	0	
1.0293	-5.80583	5.3699	0	
1.0300	-4.909	1.73314	0	
1.0307	-3.68175	3.23899	0	
1.0313	-4.909	7.21669	0	
1.0320	-3.98856	6.3075	0	
1.0327	-0.0236009	4.17659	0	
1.0333	2.73771	3.23899	0	
1.0340	4.8618	0.511419	0	
1.0347	7.90632	-1.93203	0	
1.0353	10.6676	-1.02284	0	
1.0360	12.2017	1.42061	0	
1.0367	11.8949	2.3298	0	
1.0373	10.054	-0.113649	0	
1.0380	9.13357	-3.15375	0	
1.0387	10.054	-1.93203	0	
1.0393	11.5881	1.10807	0	
1.0400	11.2813	-1.02284	0	
1.0407	7.90632	-2.86963	0	
1.0413	3.94136	-0.710304	0	
1.0420	2.4309	-0.426182	0	
1.0427	2.4309	-2.86963	0	
1.0433	2.12409	-1.93203	0	
1.0440	1.51046	1.10807	0	
1.0447	-2.14769	0.511419	0	
1.0453	-5.49902	-3.15375	0	
1.0460	-4.29537	-4.37547	0	
1.0467	-3.68175	-3.77882	0	
1.0473	-6.41946	-1.93203	0	
1.0480	-8.56714	1.73314	0	
1.0487	-8.56714	2.95486	0	
1.0493	-7.64671	2.95486	0	
1.0500	-5.49902	6.3075	0	
1.0507	-3.98856	7.21669	0	
1.0513	-5.49902	3.55152	0	
1.0520	-6.72627	4.46071	0	
1.0527	-4.29537	5.08578	0	
1.0533	1.51046	0.79554	0	
1.0540	5.16861	0.79554	0	
1.0547	6.70267	5.08578	0	
1.0553	10.054	3.86405	0	
1.0560	12.4849	-0.113649	0	
1.0567	11.8949	-1.02284	0	
1.0573	13.4053	-1.93203	0	
1.0580	17.3703	-4.09135	0	
1.0587	17.0635	-5.90973	0	
1.0593	13.4053	-5.5972	0	
1.0600	12.2017	-4.68801	0	
1.0607	9.74719	-5.00054	0	
1.0613	3.94136	-3.77882	0	
1.0620	-0.330413	-1.02284	0	
1.0627	-1.22725	-1.93203	0	
1.0633	-5.80583	-4.09135	0	
1.0640	-13.4525	-3.77882	0	
1.0647	-14.963	-2.86963	0	
1.0653	-10.6912	-1.93203	0	
1.0660	-9.48758	1.10807	0	
1.0667	-11.6117	2.01726	0	
1.0673	-11.6117	1.73314	0	
1.0680	-10.998	4.77324	0	
1.0687	-10.3844	5.68243	0	
1.0693	-7.64671	4.46071	0	
1.0700	-6.72627	5.3699	0	
1.0707	-10.998	4.46071	0	
1.0713	-14.0662	2.64233	0	
1.0720	-14.0662	4.46071	0	
1.0727	-15.5766	4.17659	0	
1.0733	-18.3379	0.79554	0	
1.0740	-18.6211	0.79554	0	
1.0747	-16.8039	1.42061	0	
1.0753	-12.2253	-1.02284	0	
1.0760	-7.03308	-1.33537	0	
1.0767	-5.21581	-1.64791	0	
1.0773	-3.68175	-4.09135	0	
1.0780	0.590024	-3.77882	0	
1.0787	2.4309	-2.55709	0	
1.0793	2.4309	-3.46628	0	
1.0800	2.4309	-3.77882	0	
1.0807	2.4309	-3.46628	0	
1.0813	3.63455	-5.00054	0	
1.0820	5.16861	-4.68801	0	
1.0827	2.4309	-3.15375	0	
1.0833	-0.330413	-2.55709	0	
1.0840	2.12409	-1.93203	0	
1.0847	2.4309	-2.24456	0	
1.0853	1.51046	-2.24456	0	
1.0860	1.20365	2.3298	0	
1.0867	-1.53406	2.64233	0	
1.0873	-3.06812	-2.24456	0	
1.0880	-0.330413	-0.710304	0	
1.0887	1.51046	3.55152	0	
1.0893	3.04452	0.198885	0	
1.0900	5.47542	-1.64791	0	
1.0907	4.24817	2.64233	0	
1.0913	1.51046	3.86405	0	
1.0920	2.4309	1.73314	0	
1.0927	3.04452	0.79554	0	
1.0933	1.20365	-0.426182	0	
1.0940	1.51046	-2.55709	0	
1.0947	3.94136	-3.77882	0	
1.0953	4.55498	-3.77882	0	
1.0960	4.24817	-2.55709	0	
1.0967	5.16861	-1.93203	0	
1.0973	5.78223	-4.37547	0	
1.0980	2.4309	-4.68801	0	
1.0987	-1.84087	-1.93203	0	
1.0993	-2.14769	-1.64791	0	
1.1000	0.283211	-3.77882	0	
1.1007	0.896836	-3.77882	0	
1.1013	0.590024	-1.33537	0	
1.1020	0.590024	-1.64791	0	
1.1027	0.590024	-1.64791	0	
1.1033	-0.637226	0.198885	0	
1.1040	-2.14769	-0.113649	0	
1.1047	-2.4545	-1.64791	0	
1.1053	-0.637226	-1.02284	0	
1.1060	2.4309	-1.02284	0	
1.1067	4.24817	-1.33537	0	
1.1073	6.08904	-0.113649	0	
1.1080	9.44038	0.511419	0	
1.1087	8.82675	0.79554	0	
1.1093	3.35133	2.64233	0	
1.1100	1.51046	2.95486	0	
1.1107	4.55498	0.198885	0	
1.1113	5.47542	-0.426182	0	
1.1120	4.24817	1.42061	0	
1.1127	3.35133	1.73314	0	
1.1133	3.35133	0.198885	0	
1.1140	5.78223	-1.33537	0	
1.1147	8.51994	-1.02284	0	
1.1153	10.054	0.511419	0	
1.1160	14.019	-1.64791	0	
1.1167	18.2907	-5.5972	0	
1.1173	18.9044	-5.28466	0	
1.1180	19.8248	-3.46628	0	
1.1187	22.5625	-5.5972	0	
1.1193	23.4829	-8.94983	0	
1.1200	21.9489	-8.94983	0	
1.1207	19.518	-7.72811	0	
1.1213	16.7567	-5.90973	0	
1.1220	15.2462	-3.15375	0	
1.1227	10.054	-1.93203	0	
1.1233	-0.0236009	-2.86963	0	
1.1240	-7.64671	-0.113649	0	
1.1247	-12.2253	4.17659	0	
1.1253	-18.928	5.08578	0	
1.1260	-23.8134	3.86405	0	
1.1267	-27.7783	3.86405	0	
1.1273	-32.6637	6.3075	0	
1.1280	-32.9705	9.03507	0	
1.1287	-31.7669	9.03507	0	
1.1293	-32.3569	7.52922	0	
1.1300	-29.3124	7.21669	0	
1.1307	-24.427	7.21669	0	
1.1313	-23.1997	5.3699	0	
1.1320	-19.5416	4.46071	0	
1.1327	-14.0662	4.77324	0	
1.1333	-10.3844	3.55152	0	
1.1340	-6.72627	-0.113649	0	
1.1347	-3.06812	-1.02284	0	
1.1353	-1.22725	0.79554	0	
1.1360	1.51046	2.64233	0	
1.1367	3.94136	1.10807	0	
1.1373	4.24817	-3.15375	0	
1.1380	6.08904	-5.28466	0	
1.1387	7.31629	-3.77882	0	
1.1393	4.24817	-3.77882	0	
1.1400	1.51046	-4.68801	0	
1.1407	-0.0236009	-4.09135	0	
1.1413	-1.84087	-4.09135	0	
1.1420	-1.84087	-6.50638	0	
1.1427	-0.944038	-6.50638	0	
1.1433	-1.84087	-2.86963	0	
1.1440	-3.06812	-0.426182	0	
1.1447	-3.68175	-0.710304	0	
1.1453	-4.909	-0.113649	0	
1.1460	-3.98856	-0.113649	0	
1.1467	-0.330413	-1.93203	0	
1.1473	1.51046	-1.33537	0	
1.1480	-0.944038	1.10807	0	
1.1487	-1.84087	2.64233	0	
1.1493	-0.637226	3.86405	0	
1.1500	-0.0236009	5.68243	0	
1.1507	-0.944038	5.68243	0	
1.1513	-1.22725	4.77324	0	
1.1520	-0.944038	3.86405	0	
1.1527	-0.0236009	2.01726	0	
1.1533	1.51046	1.10807	0	
1.1540	2.4309	2.3298	0	
1.1547	2.4309	0.79554	0	
1.1553	2.12409	-0.710304	0	
1.1560	-0.330413	2.95486	0	
1.1567	-3.06812	3.55152	0	
1.1573	-3.06812	-1.02284	0	
1.1580	-2.14769	-1.02284	0	
1.1587	-2.14769	1.42061	0	
1.1593	-2.4545	-1.02284	0	
1.1600	-2.14769	-2.86963	0	
1.1607	-1.84087	-1.02284	0	
1.1613	-2.14769	-1.33537	0	
1.1620	-4.909	-2.86963	0	
1.1627	-5.21581	-2.55709	0	
1.1633	0.896836	-2.55709	0	
1.1640	6.70267	-3.77882	0	
1.1647	6.39586	-3.15375	0	
1.1653	6.08904	-1.02284	0	
1.1660	7.90632	0.198885	0	
1.1667	8.82675	-1.02284	0	
1.1673	8.82675	-2.86963	0	
1.1680	9.74719	-0.710304	0	
1.1687	7.90632	2.3298	0	
1.1693	6.08904	0.79554	0	
1.1700	5.78223	-0.426182	0	
1.1707	3.63455	0.511419	0	
1.1713	0.590024	-0.113649	0	
1.1720	0.590024	-1.93203	0	
1.1727	0.590024	-1.93203	0	
1.1733	-1.53406	-0.710304	0	
1.1740	-0.944038	-0.113649	0	
1.1747	1.81727	-1.64791	0	
1.1753	1.20365	-2.86963	0	
1.1760	1.20365	-1.33537	0	
1.1767	3.63455	-1.02284	0	
1.1773	5.16861	-3.15375	0	
1.1780	5.16861	-2.55709	0	
1.1787	6.08904	1.10807	0	
1.1793	4.8618	-0.710304	0	
1.1800	6.08904	-5.90973	0	
1.1807	11.5881	-6.50638	0	
1.1813	12.4849	-3.46628	0	
1.1820	9.74719	-3.15375	0	
1.1827	8.82675	-4.09135	0	
1.1833	5.16861	-4.09135	0	
1.1840	1.51046	-3.77882	0	
1.1847	1.51046	-1.64791	0	
1.1853	1.81727	-0.426182	0	
1.1860	-0.0236009	-2.55709	0	
1.1867	-0.0236009	-1.93203	0	
1.1873	1.51046	2.64233	0	
1.1880	3.04452	2.64233	0	
1.1887	4.24817	-1.93203	0	
1.1893	2.4309	-1.33537	0	
1.1900	-0.637226	2.01726	0	
1.1907	-3.68175	2.64233	0	
1.1913	-8.26033	2.01726	0	
1.1920	-12.5321	1.73314	0	
1.1927	-14.0662	2.64233	0	
1.1933	-15.8834	4.17659	0	
1.1940	-16.8039	2.95486	0	
1.1947	-14.963	0.511419	0	
1.1953	-14.0662	1.42061	0	
1.1960	-13.4525	4.17659	0	
1.1967	-13.1457	4.46071	0	
1.1973	-14.963	2.95486	0	
1.1980	-15.5766	1.10807	0	
1.1987	-12.2253	2.01726	0	
1.1993	-9.48758	5.3699	0	
1.2000	-7.64671	5.08578	0	
1.2007	-6.11265	0.79554	0	
1.2013	-7.64671	0.79554	0	
1.2020	-8.26033	1.73314	0	
1.2027	-4.909	-0.113649	0	
1.2033	-1.53406	-0.113649	0	
1.2040	-0.637226	1.10807	0	
1.2047	-0.944038	1.73314	0	
1.2053	-2.4545	1.73314	0	
1.2060	-2.14769	0.511419	0	
1.2067	0.283211	1.10807	0	
1.2073	0.283211	4.46071	0	
1.2080	-0.330413	4.77324	0	
1.2087	1.51046	2.3298	0	
1.2093	1.51046	4.46071	0	
1.2100	0.590024	7.81334	0	
1.2107	1.51046	6.3075	0	
1.2113	-0.330413	3.55152	0	
1.2120	-3.98856	0.79554	0	
1.2127	-1.84087	-0.710304	0	
1.2133	3.04452	1.42061	0	
1.2140	5.16861	2.64233	0	
1.2147	6.70267	0.198885	0	
1.2153	7.31629	-1.33537	0	
1.2160	6.39586	-2.24456	0	
1.2167	9.74719	-2.86963	0	
1.2173	16.1667	-2.86963	0	
1.2180	17.0635	-3.77882	0	
1.2187	14.9394	-4.09135	0	
1.2193	16.1667	-4.68801	0	
1.2200	16.4735	-6.81892	0	
1.2207	11.8949	-6.81892	0	
1.2213	8.21313	-3.77882	0	
1.2220	8.21313	-3.77882	0	
1.2227	7.62311	-4.37547	0	
1.2233	4.24817	-1.64791	0	
1.2240	0.590024	0.511419	0	
1.2247	-0.0236009	-0.113649	0	
1.2253	0.590024	-0.113649	0	
1.2260	-0.330413	-1.64791	0	
1.2267	-3.06812	-3.15375	0	
1.2273	-6.41946	-1.64791	0	
1.2280	-8.26033	-0.113649	0	
1.2287	-5.80583	-1.02284	0	
1.2293	-2.76131	0.511419	0	
1.2300	-5.49902	2.64233	0	
1.2307	-10.3844	2.01726	0	
1.2313	-10.0776	0.198885	0	
1.2320	-4.909	-0.113649	0	
1.2327	-1.84087	0.79554	0	
1.2333	-2.14769	1.10807	0	
1.2340	-2.4545	0.198885	0	
1.2347	-0.330413	-0.710304	0	
1.2353	3.35133	0.511419	0	
1.2360	3.94136	1.73314	0	
1.2367	2.12409	-0.113649	0	
1.2373	1.51046	-3.15375	0	
1.2380	1.51046	-4.37547	0	
1.2387	-0.0236009	-4.68801	0	
1.2393	0.896836	-4.68801	0	
1.2400	3.35133	-3.77882	0	
1.2407	3.35133	-3.77882	0	
1.2413	3.63455	-4.68801	0	
1.2420	7.00948	-4.68801	0	
1.2427	10.9744	-3.46628	0	
1.2433	14.9394	-2.86963	0	
1.2440	17.6771	-2.86963	0	
1.2447	17.9839	-1.93203	0	
1.2453	17.0635	-1.02284	0	
1.2460	14.9394	-1.64791	0	
1.2467	12.2017	-2.55709	0	
1.2473	13.7122	0.198885	0	
1.2480	17.3703	5.08578	0	
1.2487	15.2462	4.77324	0	
1.2493	9.44038	0.79554	0	
1.2500	4.24817	0.79554	0	
1.2507	-2.14769	2.01726	0	
1.2513	-10.998	-0.426182	0	
1.2520	-18.6211	-2.55709	0	
1.2527	-24.7338	-1.33537	0	
1.2533	-27.7783	-1.64791	0	
1.2540	-28.3919	-1.93203	0	
1.2547	-27.7783	-0.426182	0	
1.2553	-27.4715	-0.710304	0	
1.2560	-25.961	-2.55709	0	
1.2567	-22.6097	-1.64791	0	
1.2573	-16.1903	-0.113649	0	
1.2580	-8.87396	-0.426182	0	
1.2587	-6.11265	-0.113649	0	
1.2593	-5.80583	0.79554	0	
1.2600	-3.68175	-0.113649	0	
1.2607	-1.22725	-1.02284	0	
1.2613	-1.84087	0.511419	0	
1.2620	-0.0236009	-0.113649	0	
1.2627	3.35133	-1.02284	0	
1.2633	2.73771	-0.710304	0	
1.2640	-0.330413	-1.93203	0	
1.2647	1.20365	-3.77882	0	
1.2653	5.47542	-3.15375	0	
1.2660	8.21313	-1.64791	0	
1.2667	7.90632	-1.33537	0	
1.2673	8.21313	-1.02284	0	
1.2680	10.3608	-2.55709	0	
1.2687	9.13357	-2.86963	0	
1.2693	2.4309	-0.113649	0	
1.2700	-1.53406	2.3298	0	
1.2707	-0.944038	1.73314	0	
1.2713	-3.98856	0.79554	0	
1.2720	-9.48758	2.01726	0	
1.2727	-8.56714	3.23899	0	
1.2733	-6.72627	2.3298	0	
1.2740	-9.18077	1.73314	0	
1.2747	-8.87396	4.17659	0	
1.2753	-5.21581	4.46071	0	
1.2760	-5.80583	1.10807	0	
1.2767	-8.56714	-0.113649	0	
1.2773	-7.64671	0.511419	0	
1.2780	-5.80583	-0.710304	0	
1.2787	-2.76131	-1.02284	0	
1.2793	1.20365	-1.02284	0	
1.2800	0.283211	-2.55709	0	
1.2807	-1.53406	-1.93203	0	
1.2813	1.51046	0.511419	0	
1.2820	3.94136	0.79554	0	
1.2827	3.04452	-1.02284	0	
1.2833	3.94136	-1.64791	0	
1.2840	8.51994	-0.710304	0	
1.2847	12.4849	0.79554	0	
1.2853	14.9394	-1.02284	0	
1.2860	15.8598	-4.37547	0	
1.2867	16.4735	-5.5972	0	
1.2873	17.3703	-3.77882	0	
1.2880	17.9839	-2.55709	0	
1.2887	17.9839	-2.24456	0	
1.2893	16.7567	-1.02284	0	
1.2900	14.3258	0.198885	0	
1.2907	11.5881	0.79554	0	
1.2913	7.00948	1.10807	0	
1.2920	0.590024	-0.113649	0	
1.2927	-2.14769	-1.33537	0	
1.2933	-2.14769	0.511419	0	
1.2940	-5.80583	3.55152	0	
1.2947	-9.48758	2.95486	0	
1.2953	-7.95352	1.10807	0	
1.2960	-10.0776	0.79554	0	
1.2967	-17.7243	-1.33537	0	
1.2973	-17.7243	-3.77882	0	
1.2980	-14.0662	-3.46628	0	
1.2987	-17.7243	-2.86963	0	
1.2993	-19.5416	-2.86963	0	
1.3000	-15.5766	-1.02284	0	
1.3007	-16.1903	0.198885	0	
1.3013	-16.8039	-1.33537	0	
1.3020	-9.18077	-1.93203	0	
1.3027	-5.21581	-1.33537	0	
1.3033	-7.3399	-1.02284	0	
1.3040	-3.37494	-0.113649	0	
1.3047	4.24817	-0.113649	0	
1.3053	8.21313	-1.33537	0	
1.3060	10.9744	-1.93203	0	
1.3067	14.6326	-2.86963	0	
1.3073	17.3703	-2.86963	0	
1.3080	17.9839	-0.113649	0	
1.3087	17.3703	1.42061	0	
1.3093	16.1667	-0.113649	0	
1.3100	11.5881	0.79554	0	
1.3107	5.16861	3.23899	0	
1.3113	3.04452	2.95486	0	
1.3120	3.35133	2.64233	0	
1.3127	0.590024	2.01726	0	
1.3133	-3.06812	-0.113649	0	
1.3140	-3.68175	-1.33537	0	
1.3147	-6.72627	-0.426182	0	
1.3153	-10.998	-0.426182	0	
1.3160	-9.48758	-1.33537	0	
1.3167	-5.80583	-2.55709	0	
1.3173	-3.98856	-3.15375	0	
1.3180	-2.4545	-2.55709	0	
1.3187	-0.330413	-1.93203	0	
1.3193	1.51046	-2.55709	0	
1.3200	3.35133	-2.24456	0	
1.3207	4.55498	-1.93203	0	
1.3213	5.47542	-1.33537	0	
1.3220	3.94136	-1.93203	0	
1.3227	0.590024	-3.15375	0	
1.3233	-0.330413	-2.55709	0	
1.3240	1.20365	-0.113649	0	
1.3247	-0.330413	-1.33537	0	
1.3253	-3.68175	-3.46628	0	
1.3260	-6.72627	-0.426182	0	
1.3267	-12.8389	1.42061	0	
1.3273	-16.1903	-0.113649	0	
1.3280	-14.963	2.3298	0	
1.3287	-16.8039	4.46071	0	
1.3293	-18.6211	2.01726	0	
1.3300	-13.1457	2.3298	0	
1.3307	-5.80583	5.3699	0	
1.3313	-2.4545	4.46071	0	
1.3320	-1.22725	1.73314	0	
1.3327	-0.330413	2.01726	0	
1.3333	0.283211	2.3298	0	
1.3340	1.51046	0.79554	0	
1.3347	2.4309	-0.113649	0	
1.3353	2.4309	0.511419	0	
1.3360	2.73771	0.198885	0	
1.3367	5.16861	-0.113649	0	
1.3373	6.08904	-1.02284	0	
1.3380	4.24817	-2.86963	0	
1.3387	1.51046	-3.46628	0	
1.3393	0.283211	-1.93203	0	
1.3400	-0.0236009	-2.86963	0	
1.3407	-0.330413	-3.15375	0	
1.3413	-0.944038	-1.33537	0	
1.3420	0.283211	-1.93203	0	
1.3427	3.63455	-4.68801	0	
1.3433	4.24817	-3.46628	0	
1.3440	2.4309	-0.113649	0	
1.3447	3.94136	-0.113649	0	
1.3453	5.47542	-1.64791	0	
1.3460	4.24817	-3.46628	0	
1.3467	5.16861	-4.37547	0	
1.3473	7.90632	-2.86963	0	
1.3480	6.39586	0.198885	0	
1.3487	3.94136	-0.426182	0	
1.3493	3.94136	-2.86963	0	
1.3500	2.12409	-1.93203	0	
1.3507	-2.4545	0.511419	0	
1.3513	-4.909	-1.02284	0	
1.3520	-6.72627	-3.77882	0	
1.3527	-7.95352	-2.86963	0	
1.3533	-7.03308	-0.113649	0	
1.3540	-4.60219	-0.113649	0	
1.3547	-3.06812	0.79554	0	
1.3553	-3.06812	2.64233	0	
1.3560	-2.76131	1.73314	0	
1.3567	-1.53406	0.79554	0	
1.3573	-0.637226	0.79554	0	
1.3580	0.896836	-0.113649	0	
1.3587	2.12409	-1.33537	0	
1.3593	2.12409	-1.64791	0	
1.3600	3.35133	-2.55709	0	
1.3607	6.08904	-2.86963	0	
1.3613	7.00948	-2.86963	0	
1.3620	7.62311	-2.86963	0	
1.3627	8.51994	-1.33537	0	
1.3633	6.39586	0.511419	0	
1.3640	3.35133	-1.93203	0	
1.3647	4.55498	-3.77882	0	
1.3653	7.00948	-1.02284	0	
1.3660	7.90632	-0.710304	0	
1.3667	9.13357	-2.86963	0	
1.3673	8.21313	-1.02284	0	
1.3680	4.24817	2.3298	0	
1.3687	3.04452	1.42061	0	
1.3693	3.35133	1.42061	0	
1.3700	0.283211	3.23899	0	
1.3707	-5.49902	1.73314	0	
1.3713	-9.77079	0.79554	0	
1.3720	-11.6117	3.23899	0	
1.3727	-11.3049	2.64233	0	
1.3733	-10.3844	-0.426182	0	
1.3740	-6.72627	-0.113649	0	
1.3747	0.896836	-0.113649	0	
1.3753	6.39586	-3.46628	0	
1.3760	10.054	-6.22226	0	
1.3767	16.1667	-8.35317	0	
1.3773	18.5975	-8.94983	0	
1.3780	13.7122	-7.44399	0	
1.3787	8.82675	-7.44399	0	
1.3793	7.31629	-9.5749	0	
1.3800	7.62311	-8.35317	0	
1.3807	7.00948	-4.68801	0	
1.3813	2.4309	-3.77882	0	
1.3820	-3.98856	-4.37547	0	
1.3827	-7.64671	-3.46628	0	
1.3833	-10.6912	-1.02284	0	
1.3840	-17.1107	3.55152	0	
1.3847	-24.427	7.21669	0	
1.3853	-27.7783	5.68243	0	
1.3860	-25.0406	6.3075	0	
1.3867	-21.3825	12.4161	0	
1.3873	-21.0756	15.1437	0	
1.3880	-21.3825	12.1036	0	
1.3887	-16.8039	10.5693	0	
1.3893	-12.2253	9.66013	0	
1.3900	-11.3049	9.03507	0	
1.3907	-9.18077	9.97267	0	
1.3913	-5.80583	8.12588	0	
1.3920	-5.49902	4.17659	0	
1.3927	-6.11265	3.86405	0	
1.3933	-3.68175	5.08578	0	
1.3940	-0.0236009	2.01726	0	
1.3947	1.20365	0.198885	0	
1.3953	1.51046	2.3298	0	
1.3960	3.35133	2.64233	0	
1.3967	3.94136	1.73314	0	
1.3973	3.35133	2.64233	0	
1.3980	3.35133	2.64233	0	
1.3987	4.24817	-0.710304	0	
1.3993	4.24817	-3.77882	0	
1.4000	3.63455	-4.37547	0	
1.4007	2.4309	-3.46628	0	
1.4013	2.4309	-1.02284	0	
1.4020	3.35133	0.79554	0	
1.4027	2.73771	0.511419	0	
1.4033	2.4309	-1.33537	0	
1.4040	5.16861	-1.33537	0	
1.4047	8.82675	-1.93203	0	
1.4053	8.21313	-3.77882	0	
1.4060	6.08904	-4.68801	0	
1.4067	7.62311	-4.68801	0	
1.4073	8.82675	-4.68801	0	
1.4080	7.00948	-2.86963	0	
1.4087	5.16861	-1.02284	0	
1.4093	4.24817	-1.02284	0	
1.4100	4.8618	0.198885	0	
1.4107	4.55498	3.55152	0	
1.4113	5.47542	2.64233	0	
1.4120	10.6676	-1.33537	0	
1.4127	13.7122	-1.93203	0	
1.4133	9.74719	0.79554	0	
1.4140	7.00948	1.10807	0	
1.4147	7.62311	-0.710304	0	
1.4153	3.63455	-0.113649	0	
1.4160	-1.53406	1.73314	0	
1.4167	-1.22725	0.79554	0	
1.4173	-1.22725	-0.113649	0	
1.4180	-5.80583	-0.710304	0	
1.4187	-7.64671	-2.86963	0	
1.4193	-4.909	-4.68801	0	
1.4200	-2.14769	-4.37547	0	
1.4207	-2.14769	-3.77882	0	
1.4213	-1.84087	-2.55709	0	
1.4220	0.283211	-1.93203	0	
1.4227	2.12409	-3.77882	0	
1.4233	2.73771	-4.09135	0	
1.4240	5.47542	-1.64791	0	
1.4247	8.82675	-1.02284	0	
1.4253	9.74719	-3.46628	0	
1.4260	7.90632	-2.86963	0	
1.4267	3.94136	1.42061	0	
1.4273	0.896836	3.55152	0	
1.4280	-2.14769	1.42061	0	
1.4287	-6.72627	-0.113649	0	
1.4293	-10.3844	2.64233	0	
1.4300	-13.1457	3.86405	0	
1.4307	-15.8834	1.73314	0	
1.4313	-18.3379	1.10807	0	
1.4320	-18.6211	2.64233	0	
1.4327	-17.7243	1.73314	0	
1.4333	-17.4175	-0.113649	0	
1.4340	-16.4971	0.79554	0	
1.4347	-11.9185	2.3298	0	
1.4353	-3.98856	2.3298	0	
1.4360	-0.637226	2.3298	0	
1.4367	-0.944038	3.55152	0	
1.4373	3.35133	3.86405	0	
1.4380	7.31629	2.3298	0	
1.4387	6.08904	1.73314	0	
1.4393	4.24817	2.3298	0	
1.4400	2.4309	0.79554	0	
1.4407	-1.84087	-1.64791	0	
1.4413	-2.14769	-1.64791	0	
1.4420	-0.330413	-0.710304	0	
1.4427	-0.944038	-1.02284	0	
1.4433	-1.22725	-1.93203	0	
1.4440	-1.53406	-1.02284	0	
1.4447	-3.68175	0.79554	0	
1.4453	-4.29537	0.79554	0	
1.4460	-4.60219	-0.113649	0	
1.4467	-4.909	1.42061	0	
1.4473	-3.98856	3.23899	0	
1.4480	-3.98856	2.64233	0	
1.4487	-3.06812	2.64233	0	
1.4493	2.4309	2.64233	0	
1.4500	7.31629	0.79554	0	
1.4507	7.90632	-0.710304	0	
1.4513	9.74719	-0.113649	0	
1.4520	12.2017	-0.113649	0	
1.4527	11.2813	-1.02284	0	
1.4533	11.5881	-1.02284	0	
1.4540	11.8949	-1.33537	0	
1.4547	8.82675	-1.93203	0	
1.4553	6.70267	-1.33537	0	
1.4560	5.16861	-0.113649	0	
1.4567	2.73771	1.42061	0	
1.4573	0.896836	1.73314	0	
1.4580	-1.53406	0.79554	0	
1.4587	-4.909	-1.33537	0	
1.4593	-6.72627	-4.37547	0	
1.4600	-7.03308	-5.28466	0	
1.4607	-5.49902	-3.77882	0	
1.4613	-1.53406	-4.09135	0	
1.4620	2.4309	-5.90973	0	
1.4627	3.94136	-3.46628	0	
1.4633	4.24817	-1.33537	0	
1.4640	5.16861	-3.77882	0	
1.4647	6.08904	-3.77882	0	
1.4653	3.35133	-1.64791	0	
1.4660	0.283211	-2.24456	0	
1.4667	-0.330413	-3.77882	0	
1.4673	-0.330413	-1.64791	0	
1.4680	-0.637226	0.79554	0	
1.4687	-1.22725	2.01726	0	
1.4693	-3.98856	1.73314	0	
1.4700	-6.72627	1.42061	0	
1.4707	-7.3399	2.01726	0	
1.4713	-9.48758	2.64233	0	
1.4720	-11.3049	3.55152	0	
1.4727	-9.18077	6.90415	0	
1.4733	-7.64671	7.52922	0	
1.4740	-8.56714	4.46071	0	
1.4747	-7.3399	3.86405	0	
1.4753	-5.80583	5.3699	0	
1.4760	-6.11265	3.55152	0	
1.4767	-4.60219	1.73314	0	
1.4773	-2.4545	1.10807	0	
1.4780	-3.68175	-0.426182	0	
1.4787	-2.76131	-1.33537	0	
1.4793	0.896836	-0.113649	0	
1.4800	2.12409	-0.710304	0	
1.4807	2.73771	-3.15375	0	
1.4813	5.78223	-5.28466	0	
1.4820	7.00948	-5.00054	0	
1.4827	7.00948	-3.46628	0	
1.4833	7.90632	-2.86963	0	
1.4840	6.39586	-3.77882	0	
1.4847	3.94136	-3.77882	0	
1.4853	7.62311	-2.55709	0	
1.4860	11.2813	-0.710304	0	
1.4867	6.08904	2.3298	0	
1.4873	1.51046	3.55152	0	
1.4880	0.283211	1.42061	0	
1.4887	-2.76131	-0.426182	0	
1.4893	-4.60219	0.79554	0	
1.4900	-3.68175	3.55152	0	
1.4907	-4.909	5.99497	0	
1.4913	-5.80583	5.3699	0	
1.4920	-3.68175	2.95486	0	
1.4927	-2.76131	1.10807	0	
1.4933	-2.14769	-0.113649	0	
1.4940	0.283211	-1.93203	0	
1.4947	1.51046	-1.93203	0	
1.4953	2.4309	-1.02284	0	
1.4960	5.47542	-1.33537	0	
1.4967	8.21313	-1.02284	0	
1.4973	7.90632	-0.113649	0	
1.4980	7.31629	-2.24456	0	
1.4987	6.08904	-3.46628	0	
1.4993	3.35133	-0.113649	0	
1.5000	0.283211	0.511419	0	
1.5007	0.283211	-2.86963	0	
1.5013	4.55498	-3.77882	0	
1.5020	7.00948	-3.77882	0	
1.5027	4.24817	-4.09135	0	
1.5033	0.590024	-1.64791	0	
1.5040	-3.06812	1.42061	0	
1.5047	-5.49902	0.198885	0	
1.5053	-2.4545	-1.64791	0	
1.5060	1.20365	-1.33537	0	
1.5067	-2.14769	-0.426182	0	
1.5073	-6.41946	0.511419	0	
1.5080	-6.72627	1.73314	0	
1.5087	-7.64671	3.23899	0	
1.5093	-10.3844	5.3699	0	
1.5100	-11.6117	5.68243	0	
1.5107	-14.963	5.3699	0	
1.5113	-17.7243	7.52922	0	
1.5120	-17.1107	7.21669	0	
1.5127	-16.8039	2.64233	0	
1.5133	-16.4971	-0.113649	0	
1.5140	-14.0662	1.73314	0	
1.5147	-11.3049	3.55152	0	
1.5153	-9.77079	2.64233	0	
1.5160	-7.64671	0.79554	0	
1.5167	-5.21581	0.79554	0	
1.5173	-3.06812	0.79554	0	
1.5180	0.590024	0.511419	0	
1.5187	3.35133	-0.113649	0	
1.5193	5.16861	-1.02284	0	
1.5200	9.13357	-1.93203	0	
1.5207	14.6326	-2.86963	0	
1.5213	15.2462	-3.46628	0	
1.5220	10.3608	-2.86963	0	
1.5227	7.00948	-1.93203	0	
1.5233	8.82675	-1.33537	0	
1.5240	8.82675	-1.64791	0	
1.5247	3.63455	-2.86963	0	
1.5253	-0.944038	-4.68801	0	
1.5260	-3.37494	-4.68801	0	
1.5267	-5.49902	-1.93203	0	
1.5273	-7.03308	-0.710304	0	
1.5280	-8.26033	-2.55709	0	
1.5287	-7.95352	-2.55709	0	
1.5293	-6.72627	0.198885	0	
1.5300	-4.909	0.198885	0	
1.5307	-1.53406	-1.93203	0	
1.5313	1.20365	-1.64791	0	
1.5320	-0.330413	-0.113649	0	
1.5327	-1.22725	-1.33537	0	
1.5333	1.51046	-2.86963	0	
1.5340	2.4309	-1.33537	0	
1.5347	-0.944038	0.79554	0	
1.5353	-1.53406	2.3298	0	
1.5360	0.590024	0.79554	0	
1.5367	0.590024	-1.02284	0	
1.5373	-0.637226	-1.33537	0	
1.5380	-0.0236009	-1.64791	0	
1.5387	2.4309	-2.86963	0	
1.5393	3.35133	-3.77882	0	
1.5400	2.4309	-4.68801	0	
1.5407	2.73771	-6.50638	0	
1.5413	3.63455	-5.28466	0	
1.5420	3.63455	-3.77882	0	
1.5427	4.24817	-5.00054	0	
1.5433	5.78223	-5.00054	0	
1.5440	6.70267	-2.86963	0	
1.5447	6.08904	-1.33537	0	
1.5453	3.63455	-0.113649	0	
1.5460	-0.0236009	0.511419	0	
1.5467	-3.37494	0.198885	0	
1.5473	-4.909	3.23899	0	
1.5480	-3.98856	5.99497	0	
1.5487	-1.22725	3.55152	0	
1.5493	2.4309	1.10807	0	
1.5500	6.08904	1.10807	0	
1.5507	9.13357	0.198885	0	
1.5513	10.054	0.79554	0	
1.5520	10.054	2.01726	0	
1.5527	10.054	0.198885	0	
1.5533	8.82675	-0.710304	0	
1.5540	7.90632	0.79554	0	
1.5547	6.08904	0.79554	0	
1.5553	1.20365	-0.113649	0	
1.5560	-2.76131	1.10807	0	
1.5567	-2.4545	4.46071	0	
1.5573	-2.76131	4.46071	0	
1.5580	-4.29537	-0.113649	0	
1.5587	-3.98856	-2.55709	0	
1.5593	-4.909	0.511419	0	
1.5600	-9.18077	0.79554	0	
1.5607	-11.3049	-2.55709	0	
1.5613	-8.56714	-1.93203	0	
1.5620	-3.98856	-1.02284	0	
1.5627	-3.06812	-3.77882	0	
1.5633	-4.60219	-3.77882	0	
1.5640	-3.98856	-1.02284	0	
1.5647	-2.14769	0.511419	0	
1.5653	0.590024	0.79554	0	
1.5660	4.24817	-0.113649	0	
1.5667	7.00948	-1.64791	0	
1.5673	7.31629	-1.02284	0	
1.5680	7.90632	-0.113649	0	
1.5687	9.13357	0.511419	0	
1.5693	7.90632	3.23899	0	
1.5700	4.24817	3.86405	0	
1.5707	1.51046	1.73314	0	
1.5713	-0.330413	2.3298	0	
1.5720	-3.37494	2.64233	0	
1.5727	-7.64671	0.79554	0	
1.5733	-9.48758	-0.113649	0	
1.5740	-8.26033	-1.02284	0	
1.5747	-9.18077	-1.33537	0	
1.5753	-10.6912	0.79554	0	
1.5760	-9.48758	0.511419	0	
1.5767	-8.87396	-1.93203	0	
1.5773	-8.56714	0.79554	0	
1.5780	-4.909	2.64233	0	
1.5787	-1.84087	-0.113649	0	
1.5793	-0.944038	-0.426182	0	
1.5800	3.63455	-0.426182	0	
1.5807	7.90632	-3.15375	0	
1.5813	7.00948	-3.77882	0	
1.5820	8.82675	-2.55709	0	
1.5827	10.6676	-2.55709	0	
1.5833	4.24817	-1.02284	0	
1.5840	0.283211	0.198885	0	
1.5847	1.51046	-1.64791	0	
1.5853	-2.4545	-0.710304	0	
1.5860	-5.80583	-0.113649	0	
1.5867	-1.84087	-3.15375	0	
1.5873	-1.22725	-1.93203	0	
1.5880	-5.21581	3.55152	0	
1.5887	-5.49902	3.55152	0	
1.5893	-5.49902	2.64233	0	
1.5900	-5.49902	4.17659	0	
1.5907	-3.06812	3.55152	0	
1.5913	-4.29537	1.42061	0	
1.5920	-5.80583	2.01726	0	
1.5927	-2.4545	3.55152	0	
1.5933	-0.944038	2.64233	0	
1.5940	-3.37494	-1.02284	0	
1.5947	-1.22725	-1.93203	0	
1.5953	2.4309	-0.426182	0	
1.5960	2.4309	-0.710304	0	
1.5967	1.20365	-3.46628	0	
1.5973	1.51046	-3.77882	0	
1.5980	0.590024	-3.77882	0	
1.5987	-1.84087	-4.68801	0	
1.5993	-1.84087	-5.5972	0	
1.6000	-0.330413	-3.77882	0	
1.6007	1.51046	-3.46628	0	
1.6013	2.4309	-5.28466	0	
1.6020	3.63455	-5.28466	0	
1.6027	6.08904	-1.93203	0	
1.6033	9.74719	-1.33537	0	
1.6040	14.019	-4.09135	0	
1.6047	15.2462	-5.00054	0	
1.6053	14.019	-3.77882	0	
1.6060	11.8949	-3.77882	0	
1.6067	10.6676	-2.86963	0	
1.6073	7.90632	-1.64791	0	
1.6080	5.78223	-1.02284	0	
1.6087	5.16861	0.79554	0	
1.6093	1.51046	2.3298	0	
1.6100	-4.909	0.198885	0	
1.6107	-7.64671	-0.426182	0	
1.6113	-9.48758	2.01726	0	
1.6120	-13.1457	2.64233	0	
1.6127	-14.963	2.95486	0	
1.6133	-14.963	4.77324	0	
1.6140	-16.4971	4.46071	0	
1.6147	-13.1457	2.95486	0	
1.6153	-5.49902	4.46071	0	
1.6160	-2.4545	3.55152	0	
1.6167	-2.14769	1.10807	0	
1.6173	2.4309	2.3298	0	
1.6180	6.08904	3.55152	0	
1.6187	4.8618	0.198885	0	
1.6193	4.8618	-1.02284	0	
1.6200	6.70267	1.73314	0	
1.6207	4.8618	2.01726	0	
1.6213	3.04452	-1.02284	0	
1.6220	4.8618	-2.86963	0	
1.6227	6.08904	-2.86963	0	
1.6233	6.08904	-1.64791	0	
1.6240	7.00948	-1.02284	0	
1.6247	6.70267	-2.55709	0	
1.6253	5.16861	-2.86963	0	
1.6260	7.00948	-0.113649	0	
1.6267	6.39586	0.79554	0	
1.6273	1.51046	-0.426182	0	
1.6280	0.283211	0.79554	0	
1.6287	1.81727	3.23899	0	
1.6293	-1.53406	0.511419	0	
1.6300	-7.64671	-2.24456	0	
1.6307	-10.6912	1.10807	0	
1.6313	-10.6912	4.46071	0	
1.6320	-8.87396	2.64233	0	
1.6327	-7.3399	0.198885	0	
1.6333	-7.3399	1.73314	0	
1.6340	-7.3399	1.73314	0	
1.6347	-5.80583	-0.113649	0	
1.6353	-3.98856	0.511419	0	
1.6360	-4.60219	0.511419	0	
1.6367	-6.72627	-1.64791	0	
1.6373	-4.29537	-2.86963	0	
1.6380	1.51046	-1.93203	0	
1.6387	4.24817	-2.55709	0	
1.6393	7.00948	-3.77882	0	
1.6400	10.6676	-5.5972	0	
1.6407	11.2813	-7.44399	0	
1.6413	10.6676	-6.50638	0	
1.6420	11.5881	-5.5972	0	
1.6427	8.82675	-6.50638	0	
1.6433	3.94136	-4.68801	0	
1.6440	1.20365	-2.86963	0	
1.6447	-1.22725	-2.86963	0	
1.6453	-3.68175	-2.55709	0	
1.6460	-5.80583	-1.93203	0	
1.6467	-9.48758	-2.86963	0	
1.6473	-11.6117	-0.113649	0	
1.6480	-9.77079	2.64233	0	
1.6487	-7.95352	-0.113649	0	
1.6493	-10.998	-1.33537	0	
1.6500	-14.6562	0.79554	0	
1.6507	-12.8389	0.79554	0	
1.6513	-8.87396	2.01726	0	
1.6520	-7.95352	5.68243	0	
1.6527	-6.11265	5.3699	0	
1.6533	-3.06812	1.73314	0	
1.6540	-3.37494	1.73314	0	
1.6547	-3.37494	4.46071	0	
1.6553	0.590024	5.3699	0	
1.6560	2.12409	3.86405	0	
1.6567	1.81727	1.73314	0	
1.6573	4.55498	-1.93203	0	
1.6580	6.70267	-5.00054	0	
1.6587	5.78223	-4.37547	0	
1.6593	5.16861	-2.24456	0	
1.6600	4.8618	-3.77882	0	
1.6607	6.39586	-5.00054	0	
1.6613	7.90632	-3.77882	0	
1.6620	6.39586	-3.46628	0	
1.6627	5.47542	-3.77882	0	
1.6633	7.31629	-3.15375	0	
1.6640	6.70267	-4.09135	0	
1.6647	5.47542	-3.77882	0	
1.6653	7.00948	-0.710304	0	
1.6660	3.63455	-0.113649	0	
1.6667	-1.22725	-2.24456	0	
1.6673	0.283211	-1.64791	0	
1.6680	2.4309	0.198885	0	
1.6687	-0.0236009	-1.02284	0	
1.6693	0.283211	-1.02284	0	
1.6700	2.4309	1.42061	0	
1.6707	2.4309	3.55152	0	
1.6713	2.4309	3.55152	0	
1.6720	2.4309	2.64233	0	
1.6727	0.896836	1.73314	0	
1.6733	1.51046	2.01726	0	
1.6740	-0.330413	2.64233	0	
1.6747	-3.98856	1.10807	0	
1.6753	-2.14769	-0.426182	0	
1.6760	2.4309	-0.113649	0	
1.6767	2.4309	-1.93203	0	
1.6773	5.47542	-5.5972	0	
1.6780	14.9394	-5.90973	0	
1.6787	16.4735	-5.5972	0	
1.6793	9.13357	-7.13145	0	
1.6800	5.78223	-5.90973	0	
1.6807	6.08904	-3.77882	0	
1.6813	3.63455	-3.77882	0	
1.6820	-1.22725	-3.46628	0	
1.6827	-5.21581	-2.24456	0	
1.6833	-8.56714	-2.86963	0	
1.6840	-13.1457	-1.02284	0	
1.6847	-16.8039	0.79554	0	
1.6853	-19.2348	-1.02284	0	
1.6860	-21.6893	0.198885	0	
1.6867	-24.427	3.55152	0	
1.6873	-25.6542	3.55152	0	
1.6880	-25.0406	3.55152	0	
1.6887	-24.1202	5.3699	0	
1.6893	-20.7688	5.08578	0	
1.6900	-14.963	6.3075	0	
1.6907	-9.77079	9.66013	0	
1.6913	-8.56714	9.3476	0	
1.6920	-6.72627	6.3075	0	
1.6927	-2.76131	5.3699	0	
1.6933	1.51046	5.68243	0	
1.6940	5.16861	5.3699	0	
1.6947	8.51994	4.46071	0	
1.6953	9.13357	1.42061	0	
1.6960	8.51994	-1.02284	0	
1.6967	9.74719	-1.64791	0	
1.6973	11.2813	-1.33537	0	
1.6980	10.9744	0.198885	0	
1.6987	11.5881	-1.02284	0	
1.6993	11.8949	-5.5972	0	
1.7000	8.82675	-6.50638	0	
1.7007	6.70267	-1.93203	0	
1.7013	7.90632	-1.02284	0	
1.7020	6.70267	-3.77882	0	
1.7027	1.81727	-4.09135	0	
1.7033	-1.53406	-2.55709	0	
1.7040	-3.06812	-1.33537	0	
1.7047	-5.21581	-0.426182	0	
1.7053	-4.909	0.198885	0	
1.7060	-3.06812	0.198885	0	
1.7067	-4.29537	0.79554	0	
1.7073	-5.80583	1.73314	0	
1.7080	-4.60219	1.42061	0	
1.7087	-3.37494	1.10807	0	
1.7093	-2.14769	0.79554	0	
1.7100	0.896836	0.198885	0	
1.7107	3.35133	0.511419	0	
1.7113	5.78223	0.511419	0	
1.7120	6.08904	-1.02284	0	
1.7127	4.24817	-0.113649	0	
1.7133	5.16861	1.73314	0	
1.7140	9.13357	-0.426182	0	
1.7147	10.6676	-1.64791	0	
1.7153	8.21313	1.42061	0	
1.7160	6.08904	0.511419	0	
1.7167	6.39586	-2.55709	0	
1.7173	7.00948	-1.02284	0	
1.7180	6.39586	-0.710304	0	
1.7187	3.94136	-1.93203	0	
1.7193	0.896836	-1.93203	0	
1.7200	-0.0236009	-4.09135	0	
1.7207	2.4309	-7.44399	0	
1.7213	1.81727	-2.86963	0	
1.7220	-3.98856	2.64233	0	
1.7227	-4.60219	0.79554	0	
1.7233	-0.944038	-1.02284	0	
1.7240	-3.06812	0.79554	0	
1.7247	-5.49902	1.42061	0	
1.7253	-3.68175	1.10807	0	
1.7260	-5.21581	2.3298	0	
1.7267	-8.56714	1.73314	0	
1.7273	-9.18077	0.79554	0	
1.7280	-10.3844	2.01726	0	
1.7287	-12.2253	3.55152	0	
1.7293	-11.3049	4.17659	0	
1.7300	-9.48758	4.46071	0	
1.7307	-7.3399	2.95486	0	
1.7313	-4.60219	0.79554	0	
1.7320	-2.76131	2.3298	0	
1.7327	0.590024	4.77324	0	
1.7333	4.55498	3.55152	0	
1.7340	3.63455	1.10807	0	
1.7347	2.4309	-0.426182	0	
1.7353	5.78223	-1.33537	0	
1.7360	7.90632	-0.426182	0	
1.7367	7.90632	0.79554	0	
1.7373	10.054	0.79554	0	
1.7380	11.5881	-0.710304	0	
1.7387	8.82675	-3.15375	0	
1.7393	7.62311	-4.37547	0	
1.7400	10.3608	-3.77882	0	
1.7407	13.0985	-5.28466	0	
1.7413	11.5881	-7.44399	0	
1.7420	7.90632	-4.68801	0	
1.7427	4.24817	-1.64791	0	
1.7433	0.283211	-1.93203	0	
1.7440	-5.49902	-1.93203	0	
1.7447	-14.0662	-1.33537	0	
1.7453	-21.0756	-4.09135	0	
1.7460	-21.3825	-4.09135	0	
1.7467	-22.6097	2.3298	0	
1.7473	-28.0851	5.3699	0	
1.7480	-27.7783	2.3298	0	
1.7487	-22.9165	0.79554	0	
1.7493	-21.3825	2.01726	0	
1.7500	-19.5416	3.86405	0	
1.7507	-14.963	5.68243	0	
1.7513	-14.963	6.3075	0	
1.7520	-12.5321	5.99497	0	
1.7527	-4.909	5.99497	0	
1.7533	0.283211	3.55152	0	
1.7540	2.73771	0.79554	0	
1.7547	7.00948	1.10807	0	
1.7553	9.13357	0.79554	0	
1.7560	8.21313	-1.93203	0	
1.7567	7.00948	-2.24456	0	
1.7573	6.08904	-1.93203	0	
1.7580	7.00948	-4.68801	0	
1.7587	9.74719	-6.81892	0	
1.7593	9.13357	-5.5972	0	
1.7600	7.90632	-3.77882	0	
1.7607	7.90632	-1.93203	0	
1.7613	6.08904	-1.02284	0	
1.7620	4.8618	-2.24456	0	
1.7627	5.16861	-3.46628	0	
1.7633	2.73771	-0.710304	0	
1.7640	-0.944038	2.64233	0	
1.7647	-3.37494	1.10807	0	
1.7653	-4.909	-0.426182	0	
1.7660	-5.21581	2.64233	0	
1.7667	-4.909	2.01726	0	
1.7673	-3.06812	-1.33537	0	
1.7680	0.590024	0.79554	0	
1.7687	2.12409	3.55152	0	
1.7693	-0.637226	-0.113649	0	
1.7700	-1.22725	-1.93203	0	
1.7707	-0.0236009	-1.02284	0	
1.7713	1.51046	-1.02284	0	
1.7720	5.16861	-0.426182	0	
1.7727	8.51994	0.79554	0	
1.7733	7.00948	-1.64791	0	
1.7740	5.16861	-2.24456	0	
1.7747	6.39586	-0.113649	0	
1.7753	5.78223	-0.113649	0	
1.7760	3.63455	-3.15375	0	
1.7767	3.04452	-6.22226	0	
1.7773	3.35133	-6.81892	0	
1.7780	3.63455	-4.09135	0	
1.7787	3.35133	-2.24456	0	
1.7793	2.73771	-3.77882	0	
1.7800	2.4309	-5.00054	0	
1.7807	2.73771	-4.68801	0	
1.7813	3.63455	-3.77882	0	
1.7820	6.08904	-2.55709	0	
1.7827	7.90632	-2.86963	0	
1.7833	8.82675	-4.68801	0	
1.7840	9.74719	-3.77882	0	
1.7847	10.9744	1.42061	0	
1.7853	10.3608	2.3298	0	
1.7860	8.82675	-0.113649	0	
1.7867	9.13357	1.42061	0	
1.7873	8.51994	2.95486	0	
1.7880	4.24817	1.73314	0	
1.7887	1.51046	2.64233	0	
1.7893	3.63455	3.55152	0	
1.7900	5.16861	1.42061	0	
1.7907	5.16861	0.198885	0	
1.7913	5.47542	2.01726	0	
1.7920	5.16861	0.79554	0	
1.7927	3.63455	-2.24456	0	
1.7933	2.4309	-1.93203	0	
1.7940	-0.944038	1.42061	0	
1.7947	-5.21581	3.23899	0	
1.7953	-7.3399	1.73314	0	
1.7960	-7.64671	-0.113649	0	
1.7967	-10.3844	1.42061	0	
1.7973	-14.6562	1.10807	0	
1.7980	-16.1903	-0.710304	0	
1.7987	-17.1107	0.79554	0	
1.7993	-20.462	1.73314	0	
1.8000	-21.3825	-0.426182	0	
1.8007	-19.2348	0.198885	0	
1.8013	-18.6211	0.79554	0	
1.8020	-17.4175	-2.24456	0	
1.8027	-13.1457	-2.86963	0	
1.8033	-11.6117	-1.93203	0	
1.8040	-11.6117	-2.86963	0	
1.8047	-7.03308	-2.24456	0	
1.8053	-1.22725	-0.710304	0	
1.8060	0.590024	-2.86963	0	
1.8067	0.896836	-3.77882	0	
1.8073	1.51046	-3.77882	0	
1.8080	3.35133	-5.00054	0	
1.8087	5.47542	-3.15375	0	
1.8093	5.47542	2.3298	0	
1.8100	5.16861	2.64233	0	
1.8107	4.24817	-0.113649	0	
1.8113	0.283211	0.79554	0	
1.8120	-1.22725	2.01726	0	
1.8127	0.590024	2.64233	0	
1.8133	0.590024	3.86405	0	
1.8140	-0.637226	4.17659	0	
1.8147	-1.53406	3.55152	0	
1.8153	-2.4545	2.3298	0	
1.8160	-1.22725	1.42061	0	
1.8167	1.51046	1.73314	0	
1.8173	3.35133	2.01726	0	
1.8180	6.39586	1.42061	0	
1.8187	9.44038	1.73314	0	
1.8193	8.82675	0.198885	0	
1.8200	8.82675	-3.77882	0	
1.8207	11.2813	-3.77882	0	
1.8213	9.13357	-0.710304	0	
1.8220	3.94136	-0.113649	0	
1.8227	3.04452	-0.710304	0	
1.8233	4.55498	-1.33537	0	
1.8240	2.73771	-2.55709	0	
1.8247	-1.22725	-1.64791	0	
1.8253	-4.909	-1.02284	0	
1.8260	-7.03308	-2.86963	0	
1.8267	-7.3399	-2.24456	0	
1.8273	-7.3399	-1.64791	0	
1.8280	-10.3844	-1.64791	0	
1.8287	-14.0662	0.79554	0	
1.8293	-13.7594	3.23899	0	
1.8300	-10.6912	2.01726	0	
1.8307	-8.56714	0.79554	0	
1.8313	-3.68175	0.511419	0	
1.8320	2.4309	-1.02284	0	
1.8327	3.63455	-1.93203	0	
1.8333	3.35133	-1.02284	0	
1.8340	7.00948	1.73314	0	
1.8347	10.3608	1.73314	0	
1.8353	7.90632	0.198885	0	
1.8360	3.94136	-0.113649	0	
1.8367	2.4309	1.10807	0	
1.8373	0.590024	0.198885	0	
1.8380	-1.53406	-0.426182	0	
1.8387	-0.0236009	0.511419	0	
1.8393	2.4309	-0.426182	0	
1.8400	3.94136	-2.24456	0	
1.8407	6.08904	-2.55709	0	
1.8413	7.90632	-2.86963	0	
1.8420	8.82675	-4.37547	0	
1.8427	10.6676	-4.37547	0	
1.8433	10.6676	-3.15375	0	
1.8440	9.13357	-2.86963	0	
1.8447	8.82675	-4.68801	0	
1.8453	8.82675	-5.90973	0	
1.8460	7.90632	-3.15375	0	
1.8467	6.39586	0.79554	0	
1.8473	2.73771	2.3298	0	
1.8480	-2.76131	1.73314	0	
1.8487	-7.64671	1.42061	0	
1.8493	-12.2253	4.46071	0	
1.8500	-17.1107	7.52922	0	
1.8507	-19.8484	5.99497	0	
1.8513	-20.1552	1.10807	0	
1.8520	-21.3825	1.10807	0	
1.8527	-24.7338	4.17659	0	
1.8533	-25.961	3.55152	0	
1.8540	-23.1997	1.10807	0	
1.8547	-18.6211	-0.113649	0	
1.8553	-16.8039	-0.113649	0	
1.8560	-15.5766	-0.113649	0	
1.8567	-11.9185	-0.113649	0	
1.8573	-6.72627	-0.113649	0	
1.8580	-0.944038	-0.710304	0	
1.8587	6.08904	-1.93203	0	
1.8593	11.5881	-3.46628	0	
1.8600	15.2462	-4.68801	0	
1.8607	17.3703	-5.90973	0	
1.8613	18.2907	-6.50638	0	
1.8620	18.9044	-6.22226	0	
1.8627	20.7452	-5.28466	0	
1.8633	20.7452	-4.09135	0	
1.8640	17.9839	-3.77882	0	
1.8647	15.553	-5.28466	0	
1.8653	12.2017	-6.22226	0	
1.8660	7.00948	-5.00054	0	
1.8667	1.81727	-4.68801	0	
1.8673	-3.06812	-4.68801	0	
1.8680	-7.03308	-1.64791	0	
1.8687	-9.18077	2.01726	0	
1.8693	-10.998	3.55152	0	
1.8700	-12.5321	3.55152	0	
1.8707	-13.1457	3.55152	0	
1.8713	-15.8834	3.55152	0	
1.8720	-17.7243	2.01726	0	
1.8727	-15.5766	1.10807	0	
1.8733	-13.1457	3.23899	0	
1.8740	-12.2253	5.08578	0	
1.8747	-11.3049	3.55152	0	
1.8753	-10.3844	1.73314	0	
1.8760	-7.95352	3.55152	0	
1.8767	-3.68175	3.55152	0	
1.8773	-0.637226	1.42061	0	
1.8780	-0.0236009	-1.02284	0	
1.8787	1.51046	-2.55709	0	
1.8793	2.4309	-1.93203	0	
1.8800	2.4309	-1.33537	0	
1.8807	2.73771	-4.68801	0	
1.8813	3.94136	-5.5972	0	
1.8820	3.63455	-1.02284	0	
1.8827	3.35133	0.511419	0	
1.8833	5.47542	-1.93203	0	
1.8840	8.82675	-1.93203	0	
1.8847	10.054	-1.02284	0	
1.8853	11.5881	-1.33537	0	
1.8860	13.4053	-2.55709	0	
1.8867	13.4053	-4.68801	0	
1.8873	13.4053	-5.00054	0	
1.8880	16.1667	-2.55709	0	
1.8887	15.2462	-0.113649	0	
1.8893	11.2813	0.79554	0	
1.8900	10.6676	0.511419	0	
1.8907	10.3608	-1.93203	0	
1.8913	7.00948	-2.55709	0	
1.8920	4.24817	0.511419	0	
1.8927	2.4309	0.198885	0	
1.8933	1.20365	-1.64791	0	
1.8940	0.590024	0.198885	0	
1.8947	-1.84087	0.79554	0	
1.8953	-4.60219	-0.426182	0	
1.8960	-4.60219	2.64233	0	
1.8967	-5.80583	5.08578	0	
1.8973	-8.87396	2.3298	0	
1.8980	-8.87396	-0.113649	0	
1.8987	-7.64671	0.511419	0	
1.8993	-7.03308	0.198885	0	
1.9000	-2.76131	-1.93203	0	
1.9007	2.12409	-1.93203	0	
1.9013	2.4309	-0.426182	0	
1.9020	4.24817	-0.113649	0	
1.9027	9.13357	-0.113649	0	
1.9033	8.82675	1.42061	0	
1.9040	6.08904	2.64233	0	
1.9047	7.00948	2.64233	0	
1.9053	7.31629	1.73314	0	
1.9060	3.35133	0.79554	0	
1.9067	0.590024	2.64233	0	
1.9073	1.51046	3.86405	0	
1.9080	1.20365	1.42061	0	
1.9087	-3.68175	1.10807	0	
1.9093	-8.87396	4.46071	0	
1.9100	-11.9185	3.86405	0	
1.9107	-13.4525	1.73314	0	
1.9113	-14.6562	3.55152	0	
1.9120	-15.5766	4.17659	0	
1.9127	-14.0662	2.3298	0	
1.9133	-10.3844	2.95486	0	
1.9140	-6.41946	2.95486	0	
1.9147	-2.76131	-0.710304	0	
1.9153	-0.330413	-1.93203	0	
1.9160	1.81727	-1.64791	0	
1.9167	5.16861	-3.77882	0	
1.9173	7.90632	-4.68801	0	
1.9180	7.90632	-4.37547	0	
1.9187	7.62311	-4.09135	0	
1.9193	6.39586	-3.46628	0	
1.9200	4.55498	-2.86963	0	
1.9207	6.08904	-4.68801	0	
1.9213	7.31629	-4.37547	0	
1.9220	2.4309	-1.93203	0	
1.9227	-0.944038	-1.93203	0	
1.9233	-0.637226	-3.15375	0	
1.9240	-3.06812	-2.24456	0	
1.9247	-3.37494	-1.93203	0	
1.9253	0.590024	-2.86963	0	
1.9260	0.283211	-3.46628	0	
1.9267	-3.98856	-2.55709	0	
1.9273	-4.909	0.511419	0	
1.9280	-2.14769	3.23899	0	
1.9287	3.35133	3.55152	0	
1.9293	9.74719	3.55152	0	
1.9300	11.8949	3.55152	0	
1.9307	11.5881	1.73314	0	
1.9313	10.6676	-0.113649	0	
1.9320	8.21313	0.79554	0	
1.9327	5.78223	1.42061	0	
1.9333	3.35133	0.198885	0	
1.9340	-1.22725	-0.113649	0	
1.9347	-5.21581	-0.426182	0	
1.9353	-7.95352	-0.113649	0	
1.9360	-11.9185	0.79554	0	
1.9367	-9.77079	-0.426182	0	
1.9373	-4.29537	-2.86963	0	
1.9380	-7.03308	-3.15375	0	
1.9387	-10.3844	-1.33537	0	
1.9393	-3.68175	-0.113649	0	
1.9400	1.51046	-0.710304	0	
1.9407	-0.330413	-1.02284	0	
1.9413	-0.330413	0.511419	0	
1.9420	1.20365	1.10807	0	
1.9427	-0.330413	0.511419	0	
1.9433	-0.637226	0.511419	0	
1.9440	-2.14769	-1.02284	0	
1.9447	-5.80583	-1.02284	0	
1.9453	-6.11265	2.95486	0	
1.9460	-5.80583	3.86405	0	
1.9467	-9.48758	-0.113649	0	
1.9473	-12.2253	-0.710304	0	
1.9480	-10.998	1.42061	0	
1.9487	-8.56714	1.10807	0	
1.9493	-5.49902	2.01726	0	
1.9500	-3.06812	1.73314	0	
1.9507	-2.76131	-1.93203	0	
1.9513	-1.84087	-2.86963	0	
1.9520	0.283211	-1.33537	0	
1.9527	2.4309	-1.93203	0	
1.9533	2.4309	-1.02284	0	
1.9540	-0.330413	1.10807	0	
1.9547	-3.98856	0.79554	0	
1.9553	-4.909	0.198885	0	
1.9560	-5.21581	-0.113649	0	
1.9567	-4.909	-0.710304	0	
1.9573	-1.53406	-1.02284	0	
1.9580	-0.330413	-1.33537	0	
1.9587	-3.98856	-1.64791	0	
1.9593	-3.68175	0.198885	0	
1.9600	0.896836	0.198885	0	
1.9607	1.51046	-1.93203	0	
1.9613	-0.330413	-2.24456	0	
1.9620	2.4309	-2.86963	0	
1.9627	4.8618	-4.37547	0	
1.9633	4.8618	-2.86963	0	
1.9640	8.82675	-1.33537	0	
1.9647	14.9394	-4.09135	0	
1.9653	17.0635	-4.09135	0	
1.9660	17.6771	-1.02284	0	
1.9667	18.2907	-1.02284	0	
1.9673	14.9394	-1.02284	0	
1.9680	10.3608	0.511419	0	
1.9687	9.44038	-0.113649	0	
1.9693	9.74719	-1.02284	0	
1.9700	6.70267	0.79554	0	
1.9707	2.12409	1.10807	0	
1.9713	-0.944038	-3.15375	0	
1.9720	-3.06812	-5.28466	0	
1.9727	-6.11265	-2.24456	0	
1.9733	-7.64671	0.79554	0	
1.9740	-7.64671	0.79554	0	
1.9747	-9.77079	0.79554	0	
1.9753	-11.3049	0.198885	0	
1.9760	-8.87396	0.511419	0	
1.9767	-4.909	0.79554	0	
1.9773	-3.98856	-1.02284	0	
1.9780	-3.98856	-1.64791	0	
1.9787	-2.14769	0.79554	0	
1.9793	-2.4545	1.42061	0	
1.9800	-4.909	-1.02284	0	
1.9807	-4.909	-1.02284	0	
1.9813	-3.98856	1.10807	0	
1.9820	-4.909	0.198885	0	
1.9827	-6.41946	-1.93203	0	
1.9833	-7.64671	-1.93203	0	
1.9840	-9.48758	-0.426182	0	
1.9847	-8.56714	1.73314	0	
1.9853	-6.11265	5.08578	0	
1.9860	-6.11265	4.46071	0	
1.9867	-4.909	2.01726	0	
1.9873	-2.14769	2.95486	0	
1.9880	-3.06812	4.46071	0	
1.9887	-4.29537	3.86405	0	
1.9893	-3.37494	4.17659	0	
1.9900	-2.14769	4.46071	0	
1.9907	0.590024	2.95486	0	
1.9913	4.24817	2.64233	0	
1.9920	5.16861	2.64233	0	
1.9927	6.39586	0.79554	0	
1.9933	8.82675	0.79554	0	
1.9940	7.31629	1.10807	0	
1.9947	5.16861	-1.02284	0	
1.9953	7.31629	-1.33537	0	
1.9960	9.74719	-0.710304	0	
1.9967	9.74719	-1.64791	0	
1.9973	9.44038	-2.86963	0	
1.9980	10.6676	-4.68801	0	
1.9987	11.8949	-5.5972	0	
1.9993	9.74719	-4.68801	0	
2.0000	4.8618	-5.00054	0	
2.0007	4.8618	-6.81892	0	
2.0013	7.00948	-4.37547	0	
2.0020	4.24817	-2.55709	0	
2.0027	1.81727	-5.00054	0	
2.0033	2.4309	-4.68801	0	
2.0040	-1.53406	-1.02284	0	
2.0047	-8.26033	0.79554	0	
2.0053	-10.3844	0.198885	0	
2.0060	-10.3844	-1.02284	0	
2.0067	-10.6912	-0.113649	0	
2.0073	-10.998	3.86405	0	
2.0080	-14.0662	3.86405	0	
2.0087	-17.1107	0.511419	0	
2.0093	-15.5766	1.73314	0	
2.0100	-14.0662	3.86405	0	
2.0107	-15.2698	1.73314	0	
2.0113	-13.4525	0.79554	0	
2.0120	-9.18077	2.64233	0	
2.0127	-6.72627	1.73314	0	
2.0133	-1.84087	-1.64791	0	
2.0140	5.78223	-2.86963	0	
2.0147	7.00948	-1.64791	0	
2.0153	3.35133	0.79554	0	
2.0160	3.35133	0.79554	0	
2.0167	5.16861	-1.64791	0	
2.0173	4.24817	-2.86963	0	
2.0180	-0.330413	-1.93203	0	
2.0187	-3.37494	-1.64791	0	
2.0193	-2.14769	-2.86963	0	
2.0200	-1.53406	-4.09135	0	
2.0207	-6.41946	-3.77882	0	
2.0213	-9.18077	-1.93203	0	
2.0220	-6.11265	-2.55709	0	
2.0227	-2.76131	-3.77882	0	
2.0233	0.590024	-2.55709	0	
2.0240	3.63455	0.79554	0	
2.0247	3.94136	3.23899	0	
2.0253	3.63455	1.73314	0	
2.0260	5.78223	-1.93203	0	
2.0267	5.16861	-1.93203	0	
2.0273	3.35133	-0.426182	0	
2.0280	4.55498	-0.113649	0	
2.0287	4.24817	0.511419	0	
2.0293	2.4309	0.79554	0	
2.0300	5.16861	-2.55709	0	
2.0307	8.82675	-3.46628	0	
2.0313	9.74719	-0.710304	0	
2.0320	10.3608	-0.113649	0	
2.0327	9.74719	-0.710304	0	
2.0333	7.90632	1.10807	0	
2.0340	7.00948	1.42061	0	
2.0347	6.08904	-0.113649	0	
2.0353	2.12409	-0.426182	0	
2.0360	0.590024	-0.113649	0	
2.0367	4.24817	0.511419	0	
2.0373	6.08904	-0.710304	0	
2.0380	2.4309	-3.77882	0	
2.0387	-0.637226	-4.09135	0	
2.0393	-0.637226	-1.02284	0	
2.0400	0.590024	-1.33537	0	
2.0407	2.4309	-4.09135	0	
2.0413	1.51046	-4.68801	0	
2.0420	-2.4545	-3.77882	0	
2.0427	-4.909	-2.55709	0	
2.0433	-6.11265	-1.02284	0	
2.0440	-7.64671	-1.33537	0	
2.0447	-7.3399	-1.02284	0	
2.0453	-7.64671	0.79554	0	
2.0460	-10.6912	0.511419	0	
2.0467	-11.9185	-1.02284	0	
2.0473	-10.6912	1.73314	0	
2.0480	-11.3049	4.17659	0	
2.0487	-10.3844	4.17659	0	
2.0493	-6.72627	5.08578	0	
2.0500	-5.80583	3.86405	0	
2.0507	-5.80583	1.73314	0	
2.0513	-2.14769	4.17659	0	
2.0520	2.12409	6.3075	0	
2.0527	5.16861	3.23899	0	
2.0533	6.70267	1.10807	0	
2.0540	4.24817	2.01726	0	
2.0547	4.24817	0.511419	0	
2.0553	7.00948	-2.55709	0	
2.0560	6.08904	-1.93203	0	
2.0567	4.24817	-0.426182	0	
2.0573	6.39586	-2.24456	0	
2.0580	7.31629	-4.37547	0	
2.0587	5.47542	-2.86963	0	
2.0593	4.55498	0.198885	0	
2.0600	1.20365	-1.02284	0	
2.0607	-3.06812	-3.46628	0	
2.0613	-1.53406	-2.86963	0	
2.0620	-1.22725	-0.710304	0	
2.0627	-3.37494	-0.113649	0	
2.0633	-1.53406	-0.426182	0	
2.0640	1.20365	-0.710304	0	
2.0647	0.590024	-1.02284	0	
2.0653	3.35133	-1.02284	0	
2.0660	8.51994	-0.113649	0	
2.0667	8.82675	-0.426182	0	
2.0673	7.00948	-1.93203	0	
2.0680	5.78223	-0.113649	0	
2.0687	2.4309	3.23899	0	
2.0693	-0.637226	2.64233	0	
2.0700	-1.53406	1.73314	0	
2.0707	-1.22725	4.46071	0	
2.0713	-2.14769	4.46071	0	
2.0720	-5.80583	2.3298	0	
2.0727	-10.998	5.3699	0	
2.0733	-13.4525	9.03507	0	
2.0740	-13.1457	7.21669	0	
2.0747	-10.6912	4.77324	0	
2.0753	-6.72627	4.46071	0	
2.0760	-4.60219	2.95486	0	
2.0767	-4.909	2.64233	0	
2.0773	-4.60219	2.64233	0	
2.0780	-3.68175	-0.113649	0	
2.0787	-1.53406	-2.86963	0	
2.0793	2.4309	-2.55709	0	
2.0800	4.55498	-3.15375	0	
2.0807	3.35133	-4.37547	0	
2.0813	3.04452	-2.86963	0	
2.0820	3.63455	-1.02284	0	
2.0827	2.4309	-2.86963	0	
2.0833	1.51046	-4.68801	0	
2.0840	-0.0236009	-3.77882	0	
2.0847	-2.4545	-3.15375	0	
2.0853	-4.909	-2.86963	0	
2.0860	-5.80583	-1.33537	0	
2.0867	-5.21581	-0.113649	0	
2.0873	-3.06812	-0.113649	0	
2.0880	-0.330413	-0.113649	0	
2.0887	1.20365	-0.426182	0	
2.0893	1.20365	-0.426182	0	
2.0900	-0.0236009	2.01726	0	
2.0907	-1.53406	3.55152	0	
2.0913	-1.22725	1.10807	0	
2.0920	0.590024	-0.426182	0	
2.0927	-0.330413	-1.02284	0	
2.0933	-3.68175	-1.02284	0	
2.0940	-4.909	0.198885	0	
2.0947	-2.76131	-0.113649	0	
2.0953	0.590024	-2.24456	0	
2.0960	3.35133	-1.93203	0	
2.0967	4.8618	-1.02284	0	
2.0973	5.16861	-3.46628	0	
2.0980	6.08904	-3.77882	0	
2.0987	7.31629	-3.46628	0	
2.0993	8.51994	-5.00054	0	
2.1000	9.74719	-5.28466	0	
2.1007	8.82675	-3.77882	0	
2.1013	4.24817	-5.90973	0	
2.1020	2.73771	-6.50638	0	
2.1027	5.16861	-2.86963	0	
2.1033	3.35133	-2.24456	0	
2.1040	-0.330413	-4.09135	0	
2.1047	2.4309	-3.15375	0	
2.1053	6.39586	-2.55709	0	
2.1060	4.55498	-2.86963	0	
2.1067	4.24817	-1.02284	0	
2.1073	8.51994	-1.02284	0	
2.1080	10.054	-2.86963	0	
2.1087	8.21313	-1.02284	0	
2.1093	7.62311	2.3298	0	
2.1100	7.90632	1.73314	0	
2.1107	5.78223	0.198885	0	
2.1113	2.12409	0.79554	0	
2.1120	-0.330413	0.79554	0	
2.1127	-3.98856	1.42061	0	
2.1133	-10.3844	1.73314	0	
2.1140	-13.4525	0.511419	0	
2.1147	-10.0776	-1.02284	0	
2.1153	-7.64671	-1.64791	0	
2.1160	-9.77079	-1.02284	0	
2.1167	-11.6117	-0.710304	0	
2.1173	-11.9185	-2.86963	0	
2.1180	-11.6117	-4.68801	0	
2.1187	-10.998	-2.86963	0	
2.1193	-10.3844	-0.710304	0	
2.1200	-9.18077	-2.55709	0	
2.1207	-7.64671	-3.46628	0	
2.1213	-6.41946	-1.02284	0	
2.1220	-6.72627	-1.64791	0	
2.1227	-8.26033	-2.86963	0	
2.1233	-8.56714	0.79554	0	
2.1240	-7.03308	2.64233	0	
2.1247	-5.80583	0.198885	0	
2.1253	-4.60219	-0.113649	0	
2.1260	-1.84087	1.73314	0	
2.1267	0.590024	-0.710304	0	
2.1273	3.04452	-3.15375	0	
2.1280	7.00948	-1.33537	0	
2.1287	9.74719	1.73314	0	
2.1293	12.4849	2.95486	0	
2.1300	15.553	1.42061	0	
2.1307	14.6326	-0.710304	0	
2.1313	11.5881	0.79554	0	
2.1320	12.4849	2.3298	0	
2.1327	14.019	1.42061	0	
2.1333	11.5881	0.79554	0	
2.1340	9.13357	-0.426182	0	
2.1347	7.90632	-2.86963	0	
2.1353	6.08904	-1.02284	0	
2.1360	3.63455	1.73314	0	
2.1367	2.4309	-1.02284	0	
2.1373	1.51046	-2.86963	0	
2.1380	-1.53406	-1.02284	0	
2.1387	-6.41946	-1.02284	0	
2.1393	-7.64671	-1.64791	0	
2.1400	-3.06812	-1.02284	0	
2.1407	1.51046	-2.86963	0	
2.1413	1.51046	-3.77882	0	
2.1420	1.51046	-1.93203	0	
2.1427	2.4309	-1.93203	0	
2.1433	1.51046	-3.77882	0	
2.1440	-0.637226	-1.64791	0	
2.1447	-4.60219	0.511419	0	
2.1453	-9.77079	-0.426182	0	
2.1460	-12.2253	1.42061	0	
2.1467	-11.3049	5.3699	0	
2.1473	-14.3494	5.99497	0	
2.1480	-18.6211	5.3699	0	
2.1487	-19.2348	7.21669	0	
2.1493	-20.1552	6.59162	0	
2.1500	-23.1997	3.86405	0	
2.1507	-23.1997	5.08578	0	
2.1513	-19.2348	7.81334	0	
2.1520	-14.963	7.52922	0	
2.1527	-9.48758	3.86405	0	
2.1533	-5.21581	0.511419	0	
2.1540	-3.98856	0.79554	0	
2.1547	-2.14769	2.3298	0	
2.1553	1.20365	0.79554	0	
2.1560	1.51046	-0.113649	0	
2.1567	0.590024	0.511419	0	
2.1573	2.4309	-2.24456	0	
2.1580	4.24817	-4.37547	0	
2.1587	3.94136	-1.33537	0	
2.1593	5.16861	-0.113649	0	
2.1600	9.44038	-3.77882	0	
2.1607	14.019	-5.5972	0	
2.1613	17.6771	-5.00054	0	
2.1620	19.8248	-5.5972	0	
2.1627	19.2112	-6.22226	0	
2.1633	18.9044	-4.09135	0	
2.1640	19.8248	-3.15375	0	
2.1647	19.8248	-3.77882	0	
2.1653	16.7567	-2.86963	0	
2.1660	12.2017	-1.64791	0	
2.1667	7.90632	-1.93203	0	
2.1673	4.24817	-2.24456	0	
2.1680	1.51046	-0.710304	0	
2.1687	0.283211	0.511419	0	
2.1693	-0.330413	1.10807	0	
2.1700	-3.98856	2.64233	0	
2.1707	-7.64671	4.46071	0	
2.1713	-6.11265	5.3699	0	
2.1720	-3.98856	5.3699	0	
2.1727	-6.11265	3.55152	0	
2.1733	-7.3399	2.01726	0	
2.1740	-4.909	1.73314	0	
2.1747	-2.14769	1.73314	0	
2.1753	-1.84087	2.64233	0	
2.1760	-4.909	4.17659	0	
2.1767	-7.03308	3.23899	0	
2.1773	-3.37494	-0.113649	0	
2.1780	-0.330413	-2.55709	0	
2.1787	-3.98856	-2.55709	0	
2.1793	-6.72627	-2.86963	0	
2.1800	-5.21581	-5.90973	0	
2.1807	-4.60219	-7.72811	0	
2.1813	-6.72627	-4.68801	0	
2.1820	-7.03308	-1.02284	0	
2.1827	-3.98856	-1.93203	0	
2.1833	-0.637226	-3.77882	0	
2.1840	-2.14769	-3.46628	0	
2.1847	-5.21581	-3.46628	0	
2.1853	-4.29537	-2.86963	0	
2.1860	-3.37494	-1.33537	0	
2.1867	-5.80583	-0.113649	0	
2.1873	-4.909	-0.710304	0	
2.1880	-0.330413	-1.33537	0	
2.1887	0.896836	-0.113649	0	
2.1893	-2.14769	2.64233	0	
2.1900	-3.06812	4.17659	0	
2.1907	-0.944038	3.55152	0	
2.1913	1.81727	2.64233	0	
2.1920	3.63455	2.3298	0	
2.1927	4.8618	2.01726	0	
2.1933	5.16861	0.79554	0	
2.1940	5.16861	-2.24456	0	
2.1947	5.47542	-2.24456	0	
2.1953	5.78223	2.01726	0	
2.1960	6.08904	2.3298	0	
2.1967	6.08904	-2.24456	0	
2.1973	4.55498	-3.46628	0	
2.1980	2.12409	-1.33537	0	
2.1987	-1.22725	-3.77882	0	
2.1993	-3.98856	-6.22226	0	
2.2000	-5.80583	-4.09135	0	
2.2007	-8.87396	-2.24456	0	
2.2013	-10.998	-2.86963	0	
2.2020	-8.26033	-2.86963	0	
2.2027	-6.41946	-0.113649	0	
2.2033	-9.48758	0.198885	0	
2.2040	-11.3049	-0.710304	0	
2.2047	-8.87396	0.79554	0	
2.2053	-6.72627	2.64233	0	
2.2060	-6.72627	0.79554	0	
2.2067	-4.909	-0.426182	0	
2.2073	-0.330413	2.01726	0	
2.2080	4.24817	4.17659	0	
2.2087	5.47542	2.01726	0	
2.2093	4.24817	1.10807	0	
2.2100	5.78223	2.95486	0	
2.2107	6.39586	0.79554	0	
2.2113	2.73771	-1.64791	0	
2.2120	0.283211	3.23899	0	
2.2127	0.590024	5.68243	0	
2.2133	1.51046	0.511419	0	
2.2140	1.51046	-1.93203	0	
2.2147	-0.0236009	0.79554	0	
2.2153	-1.84087	-0.426182	0	
2.2160	-2.14769	-1.33537	0	
2.2167	-0.0236009	-0.426182	0	
2.2173	3.94136	-2.55709	0	
2.2180	7.90632	-3.77882	0	
2.2187	8.51994	-1.93203	0	
2.2193	9.13357	-1.02284	0	
2.2200	10.9744	-1.93203	0	
2.2207	10.6676	-1.33537	0	
2.2213	11.8949	-1.02284	0	
2.2220	17.3703	-1.64791	0	
2.2227	21.0284	-2.55709	0	
2.2233	22.5625	-2.86963	0	
2.2240	23.1761	-1.02284	0	
2.2247	19.518	0.511419	0	
2.2253	12.4849	-0.710304	0	
2.2260	5.78223	-0.113649	0	
2.2267	-0.637226	1.73314	0	
2.2273	-3.98856	2.64233	0	
2.2280	-7.03308	3.55152	0	
2.2287	-14.963	4.46071	0	
2.2293	-22.3029	2.3298	0	
2.2300	-23.5065	0.79554	0	
2.2307	-24.427	3.55152	0	
2.2313	-25.0406	6.90415	0	
2.2320	-21.3825	5.3699	0	
2.2327	-19.5416	2.3298	0	
2.2333	-21.3825	1.73314	0	
2.2340	-20.462	0.79554	0	
2.2347	-16.4971	-1.02284	0	
2.2353	-13.1457	1.10807	0	
2.2360	-11.6117	5.3699	0	
2.2367	-10.3844	3.55152	0	
2.2373	-8.56714	-1.02284	0	
2.2380	-6.11265	-1.02284	0	
2.2387	-5.21581	0.198885	0	
2.2393	-4.29537	-0.426182	0	
2.2400	-2.4545	-1.93203	0	
2.2407	-1.22725	-3.15375	0	
2.2413	0.283211	-4.09135	0	
2.2420	2.4309	-5.00054	0	
2.2427	4.8618	-4.09135	0	
2.2433	6.39586	-1.02284	0	
2.2440	8.21313	-0.710304	0	
2.2447	10.6676	-3.46628	0	
2.2453	12.4849	-1.93203	0	
2.2460	12.4849	0.511419	0	
2.2467	11.2813	-1.64791	0	
2.2473	7.62311	-3.77882	0	
2.2480	4.8618	-2.55709	0	
2.2487	6.08904	-1.93203	0	
2.2493	8.21313	-0.710304	0	
2.2500	7.31629	1.73314	0	
2.2507	6.39586	0.79554	0	
2.2513	6.70267	-1.93203	0	
2.2520	4.55498	-1.93203	0	
2.2527	1.81727	-1.64791	0	
2.2533	-0.0236009	-1.33537	0	
2.2540	-2.4545	1.42061	0	
2.2547	-3.06812	2.64233	0	
2.2553	-0.944038	0.511419	0	
2.2560	-1.53406	-1.33537	0	
2.2567	-4.29537	-3.77882	0	
2.2573	-3.98856	-5.5972	0	
2.2580	-3.68175	-3.77882	0	
2.2587	-5.49902	-2.86963	0	
2.2593	-4.29537	-5.90973	0	
2.2600	-2.14769	-5.5972	0	
2.2607	-1.84087	-3.46628	0	
2.2613	0.590024	-5.00054	0	
2.2620	4.24817	-5.5972	0	
2.2627	3.35133	-3.77882	0	
2.2633	1.51046	-5.5972	0	
2.2640	2.73771	-6.50638	0	
2.2647	3.63455	-3.15375	0	
2.2653	3.63455	-3.46628	0	
2.2660	7.31629	-5.00054	0	
2.2667	11.2813	-1.64791	0	
2.2673	11.2813	0.79554	0	
2.2680	10.6676	0.511419	0	
2.2687	8.21313	2.01726	0	
2.2693	4.55498	2.95486	0	
2.2700	6.39586	2.3298	0	
2.2707	10.6676	2.3298	0	
2.2713	8.21313	0.511419	0	
2.2720	3.04452	-1.33537	0	
2.2727	2.73771	1.73314	0	
2.2733	2.73771	2.3298	0	
2.2740	1.51046	-1.02284	0	
2.2747	2.4309	-0.426182	0	
2.2753	1.51046	1.42061	0	
2.2760	-3.06812	0.198885	0	
2.2767	-6.72627	2.3298	0	
2.2773	-5.80583	4.17659	0	
2.2780	-5.80583	-0.426182	0	
2.2787	-8.26033	-1.02284	0	
2.2793	-9.48758	2.64233	0	
2.2800	-7.64671	0.511419	0	
2.2807	-6.41946	-1.93203	0	
2.2813	-7.3399	0.79554	0	
2.2820	-7.64671	0.511419	0	
2.2827	-8.26033	-0.426182	0	
2.2833	-9.77079	1.73314	0	
2.2840	-10.6912	1.42061	0	
2.2847	-11.3049	0.79554	0	
2.2853	-12.2253	4.46071	0	
2.2860	-10.6912	4.46071	0	
2.2867	-8.87396	2.3298	0	
2.2873	-9.18077	3.55152	0	
2.2880	-7.64671	4.17659	0	
2.2887	-5.49902	3.23899	0	
2.2893	-6.41946	4.77324	0	
2.2900	-3.98856	4.46071	0	
2.2907	0.896836	3.55152	0	
2.2913	-0.330413	6.3075	0	
2.2920	-2.4545	6.59162	0	
2.2927	-0.330413	0.79554	0	
2.2933	-1.22725	-1.64791	0	
2.2940	-2.76131	-0.113649	0	
2.2947	0.590024	-1.64791	0	
2.2953	0.896836	-3.77882	0	
2.2960	-1.84087	-3.77882	0	
2.2967	-0.0236009	-3.77882	0	
2.2973	2.12409	-2.86963	0	
2.2980	1.51046	-2.86963	0	
2.2987	3.04452	-4.09135	0	
2.2993	5.47542	-6.22226	0	
2.3000	6.70267	-5.90973	0	
2.3007	8.82675	-4.37547	0	
2.3013	7.62311	-4.68801	0	
2.3020	5.78223	-5.28466	0	
2.3027	9.13357	-1.02284	0	
2.3033	12.2017	2.01726	0	
2.3040	9.74719	-2.86963	0	
2.3047	7.00948	-5.5972	0	
2.3053	7.00948	-2.86963	0	
2.3060	6.08904	-2.86963	0	
2.3067	4.8618	-4.09135	0	
2.3073	5.16861	-3.15375	0	
2.3080	6.08904	-1.93203	0	
2.3087	3.63455	-0.113649	0	
2.3093	0.896836	3.23899	0	
2.3100	3.04452	1.73314	0	
2.3107	5.16861	-0.426182	0	
2.3113	2.4309	0.511419	0	
2.3120	-0.330413	0.79554	0	
2.3127	-2.76131	1.42061	0	
2.3133	-7.64671	5.3699	0	
2.3140	-8.56714	6.3075	0	
2.3147	-4.29537	2.01726	0	
2.3153	-0.330413	0.79554	0	
2.3160	0.896836	2.64233	0	
2.3167	0.283211	2.64233	0	
2.3173	0.590024	-0.426182	0	
2.3180	2.4309	-2.24456	0	
2.3187	1.51046	-1.02284	0	
2.3193	-1.22725	-1.02284	0	
2.3200	-2.76131	-2.24456	0	
2.3207	-3.06812	-0.426182	0	
2.3213	-3.06812	2.01726	0	
2.3220	-3.98856	0.79554	0	
2.3227	-8.56714	-0.426182	0	
2.3233	-10.3844	1.73314	0	
2.3240	-6.72627	1.73314	0	
2.3247	-6.72627	-0.113649	0	
2.3253	-9.77079	0.79554	0	
2.3260	-9.18077	0.79554	0	
2.3267	-8.26033	-0.710304	0	
2.3273	-9.48758	1.10807	0	
2.3280	-7.3399	3.55152	0	
2.3287	-3.98856	1.73314	0	
2.3293	-1.22725	0.198885	0	
2.3300	3.35133	0.79554	0	
2.3307	8.82675	0.511419	0	
2.3313	9.44038	-0.113649	0	
2.3320	10.3608	0.79554	0	
2.3327	14.6326	0.79554	0	
2.3333	16.7567	-1.33537	0	
2.3340	16.4735	-3.77882	0	
2.3347	17.9839	-3.77882	0	
2.3353	18.9044	-0.710304	0	
2.3360	15.553	-0.426182	0	
2.3367	10.6676	-4.68801	0	
2.3373	7.31629	-6.50638	0	
2.3380	3.63455	-3.77882	0	
2.3387	-1.22725	-2.86963	0	
2.3393	-5.49902	-3.77882	0	
2.3400	-10.3844	-2.24456	0	
2.3407	-15.8834	-1.93203	0	
2.3413	-19.2348	-4.68801	0	
2.3420	-19.8484	-5.00054	0	
2.3427	-21.9961	-3.77882	0	
2.3433	-23.5065	-2.55709	0	
2.3440	-21.0756	-0.426182	0	
2.3447	-16.8039	2.3298	0	
2.3453	-14.6562	2.64233	0	
2.3460	-13.1457	2.3298	0	
2.3467	-10.3844	2.95486	0	
2.3473	-6.72627	2.95486	0	
2.3480	-4.29537	1.73314	0	
2.3487	-4.909	2.01726	0	
2.3493	-3.68175	3.86405	0	
2.3500	1.20365	5.08578	0	
2.3507	3.63455	2.64233	0	
2.3513	2.73771	-0.113649	0	
2.3520	2.73771	-0.113649	0	
2.3527	4.24817	1.10807	0	
2.3533	5.16861	-0.113649	0	
2.3540	6.08904	-1.02284	0	
2.3547	5.78223	-0.426182	0	
2.3553	3.35133	-0.113649	0	
2.3560	1.51046	0.511419	0	
2.3567	0.590024	-0.426182	0	
2.3573	-1.53406	-2.86963	0	
2.3580	-2.4545	-2.55709	0	
2.3587	-0.330413	0.198885	0	
2.3593	0.590024	-0.710304	0	
2.3600	-0.330413	-1.93203	0	
2.3607	-0.637226	0.511419	0	
2.3613	-0.0236009	0.79554	0	
2.3620	0.283211	-1.64791	0	
2.3627	0.590024	-0.113649	0	
2.3633	0.283211	1.73314	0	
2.3640	0.590024	-0.710304	0	
2.3647	2.73771	-3.77882	0	
2.3653	4.8618	-3.77882	0	
2.3660	3.35133	-4.09135	0	
2.3667	1.51046	-3.15375	0	
2.3673	1.51046	-0.710304	0	
2.3680	3.63455	0.79554	0	
2.3687	5.16861	0.198885	0	
2.3693	4.55498	-0.710304	0	
2.3700	3.35133	-1.02284	0	
2.3707	2.73771	0.79554	0	
2.3713	2.12409	2.3298	0	
2.3720	-0.330413	1.73314	0	
2.3727	-2.14769	-0.113649	0	
2.3733	-2.14769	-1.02284	0	
2.3740	-0.330413	0.79554	0	
2.3747	-0.330413	4.17659	0	
2.3753	-0.637226	3.86405	0	
2.3760	-0.637226	0.511419	0	
2.3767	1.20365	-0.710304	0	
2.3773	4.24817	-0.426182	0	
2.3780	5.16861	-3.15375	0	
2.3787	5.47542	-4.68801	0	
2.3793	7.90632	-2.86963	0	
2.3800	9.44038	-2.86963	0	
2.3807	7.00948	-5.5972	0	
2.3813	4.24817	-5.90973	0	
2.3820	2.4309	-3.77882	0	
2.3827	2.4309	-2.86963	0	
2.3833	2.4309	-3.15375	0	
2.3840	-0.330413	-4.09135	0	
2.3847	-4.29537	-2.86963	0	
2.3853	-3.68175	-0.710304	0	
2.3860	-0.330413	-1.02284	0	
2.3867	0.590024	-2.24456	0	
2.3873	1.20365	-0.426182	0	
2.3880	2.12409	1.42061	0	
2.3887	-0.0236009	-0.113649	0	
2.3893	-2.14769	-1.93203	0	
2.3900	-1.53406	-1.02284	0	
2.3907	-0.637226	0.79554	0	
2.3913	1.51046	0.79554	0	
2.3920	6.08904	-0.113649	0	
2.3927	6.39586	-1.02284	0	
2.3933	4.8618	-2.55709	0	
2.3940	8.51994	-1.93203	0	
2.3947	13.4053	0.79554	0	
2.3953	11.5881	1.73314	0	
2.3960	7.00948	0.79554	0	
2.3967	2.4309	2.3298	0	
2.3973	-1.22725	3.55152	0	
2.3980	-2.76131	1.73314	0	
2.3987	-3.68175	-0.113649	0	
2.3993	-7.3399	-0.113649	0	
2.4000	-10.0776	-0.710304	0	
2.4007	-9.18077	-0.426182	0	
2.4013	-7.3399	-0.710304	0	
2.4020	-5.21581	-3.46628	0	
2.4027	-2.14769	-3.77882	0	
2.4033	-0.944038	-2.24456	0	
2.4040	-3.06812	-2.24456	0	
2.4047	-5.21581	0.511419	0	
2.4053	-4.29537	4.46071	0	
2.4060	-2.76131	2.64233	0	
2.4067	-2.14769	0.511419	0	
2.4073	-2.14769	1.73314	0	
2.4080	-3.06812	-0.113649	0	
2.4087	-5.80583	-0.426182	0	
2.4093	-7.64671	5.08578	0	
2.4100	-7.64671	5.08578	0	
2.4107	-6.41946	2.3298	0	
2.4113	-4.60219	5.3699	0	
2.4120	-4.909	5.3699	0	
2.4127	-5.49902	-0.113649	0	
2.4133	-5.49902	-1.64791	0	
2.4140	-5.80583	-1.33537	0	
2.4147	-4.29537	-2.55709	0	
2.4153	-0.637226	-1.64791	0	
2.4160	0.283211	-1.02284	0	
2.4167	-0.330413	-1.93203	0	
2.4173	0.896836	-0.113649	0	
2.4180	1.51046	1.42061	0	
2.4187	1.51046	-0.710304	0	
2.4193	2.4309	-2.86963	0	
2.4200	3.04452	-3.15375	0	
2.4207	2.4309	-2.86963	0	
2.4213	1.51046	-1.33537	0	
2.4220	-0.944038	-0.113649	0	
2.4227	-0.637226	-1.02284	0	
2.4233	1.81727	-1.93203	0	
2.4240	1.81727	-1.64791	0	
2.4247	1.81727	-2.24456	0	
2.4253	6.08904	-2.24456	0	
2.4260	9.44038	1.10807	0	
2.4267	9.74719	2.3298	0	
2.4273	11.8949	-1.02284	0	
2.4280	14.9394	-1.02284	0	
2.4287	14.3258	1.10807	0	
2.4293	12.7917	-0.426182	0	
2.4300	11.5881	-1.02284	0	
2.4307	8.51994	0.511419	0	
2.4313	6.08904	-1.33537	0	
2.4320	5.16861	-1.93203	0	
2.4327	3.63455	1.73314	0	
2.4333	-0.944038	2.3298	0	
2.4340	-6.72627	1.10807	0	
2.4347	-9.77079	2.64233	0	
2.4353	-9.77079	1.73314	0	
2.4360	-9.77079	-0.426182	0	
2.4367	-11.3049	-0.426182	0	
2.4373	-12.2253	-1.02284	0	
2.4380	-9.48758	-3.15375	0	
2.4387	-4.909	-1.93203	0	
2.4393	-3.06812	2.01726	0	
2.4400	-2.14769	1.73314	0	
2.4407	-0.330413	-0.710304	0	
2.4413	-0.330413	-0.710304	0	
2.4420	-2.14769	-1.02284	0	
2.4427	-1.22725	-2.55709	0	
2.4433	-0.637226	-1.02284	0	
2.4440	-2.4545	1.42061	0	
2.4447	-2.14769	0.198885	0	
2.4453	1.51046	-0.113649	0	
2.4460	4.24817	0.79554	0	
2.4467	7.90632	-0.426182	0	
2.4473	10.6676	-1.02284	0	
2.4480	8.21313	-0.113649	0	
2.4487	5.47542	-0.113649	0	
2.4493	5.16861	2.01726	0	
2.4500	2.4309	2.64233	0	
2.4507	-0.637226	-1.33537	0	
2.4513	0.283211	-1.93203	0	
2.4520	-0.330413	1.10807	0	
2.4527	-3.98856	1.10807	0	
2.4533	-4.909	-0.710304	0	
2.4540	-5.49902	-1.02284	0	
2.4547	-9.48758	-1.02284	0	
2.4553	-10.998	0.511419	0	
2.4560	-9.48758	1.42061	0	
2.4567	-10.0776	-1.33537	0	
2.4573	-10.3844	-3.15375	0	
2.4580	-6.41946	-2.55709	0	
2.4587	-2.14769	-2.86963	0	
2.4593	-0.637226	-3.77882	0	
2.4600	3.04452	-2.86963	0	
2.4607	7.00948	-3.15375	0	
2.4613	7.62311	-4.68801	0	
2.4620	6.70267	-5.5972	0	
2.4627	5.47542	-5.28466	0	
2.4633	4.24817	-4.09135	0	
2.4640	2.4309	-2.55709	0	
2.4647	-3.37494	-0.710304	0	
2.4653	-8.87396	-0.113649	0	
2.4660	-7.03308	-1.02284	0	
2.4667	-6.41946	-2.24456	0	
2.4673	-11.3049	-0.710304	0	
2.4680	-11.9185	2.64233	0	
2.4687	-9.48758	3.86405	0	
2.4693	-12.2253	2.64233	0	
2.4700	-12.2253	2.64233	0	
2.4707	-8.87396	3.55152	0	
2.4713	-11.3049	4.46071	0	
2.4720	-13.4525	5.68243	0	
2.4727	-10.0776	7.21669	0	
2.4733	-7.95352	5.3699	0	
2.4740	-8.56714	2.64233	0	
2.4747	-7.64671	2.95486	0	
2.4753	-6.11265	2.3298	0	
2.4760	-2.76131	-0.113649	0	
2.4767	2.4309	-0.113649	0	
2.4773	4.24817	0.511419	0	
2.4780	6.08904	-0.426182	0	
2.4787	9.74719	-1.64791	0	
2.4793	12.2017	-3.15375	0	
2.4800	14.9394	-3.77882	0	
2.4807	17.0635	-2.55709	0	
2.4813	15.2462	-1.33537	0	
2.4820	13.7122	-3.77882	0	
2.4827	16.1667	-5.28466	0	
2.4833	14.3258	-4.09135	0	
2.4840	8.51994	-1.93203	0	
2.4847	5.47542	-1.02284	0	
2.4853	2.4309	-1.64791	0	
2.4860	-1.22725	-2.86963	0	
2.4867	-0.330413	-2.86963	0	
2.4873	-1.84087	-1.93203	0	
2.4880	-7.95352	-1.33537	0	
2.4887	-10.6912	0.79554	0	
2.4893	-10.998	3.55152	0	
2.4900	-13.1457	1.73314	0	
2.4907	-11.9185	-0.113649	0	
2.4913	-7.95352	1.73314	0	
2.4920	-5.80583	2.3298	0	
2.4927	-1.22725	-0.113649	0	
2.4933	2.4309	0.511419	0	
2.4940	-1.22725	2.64233	0	
2.4947	-2.14769	2.64233	0	
2.4953	1.51046	1.73314	0	
2.4960	1.20365	1.42061	0	
2.4967	-0.330413	-0.113649	0	
2.4973	2.4309	-0.710304	0	
2.4980	2.4309	-1.64791	0	
2.4987	-0.330413	-3.77882	0	
2.4993	-0.944038	-3.77882	0	
2.5000	0.590024	-4.09135	0	
2.5007	2.12409	-3.46628	0	
2.5013	3.35133	0.79554	0	
2.5020	2.4309	1.73314	0	
2.5027	2.12409	-2.55709	0	
2.5033	7.00948	-4.09135	0	
2.5040	10.9744	-1.93203	0	
2.5047	7.90632	-0.426182	0	
2.5053	3.63455	-1.02284	0	
2.5060	3.94136	-1.02284	0	
2.5067	5.47542	1.10807	0	
2.5073	4.55498	2.3298	0	
2.5080	3.04452	-0.113649	0	
2.5087	2.73771	0.79554	0	
2.5093	4.24817	4.77324	0	
2.5100	4.55498	3.55152	0	
2.5107	2.12409	0.79554	0	
2.5113	-0.944038	0.79554	0	
2.5120	-1.22725	1.10807	0	
2.5127	-1.53406	0.79554	0	
2.5133	-3.06812	0.79554	0	
2.5140	-4.60219	-0.113649	0	
2.5147	-5.21581	-0.426182	0	
2.5153	-5.21581	-0.113649	0	
2.5160	-5.80583	-1.64791	0	
2.5167	-6.72627	-1.02284	0	
2.5173	-6.72627	-0.113649	0	
2.5180	-3.98856	-2.86963	0	
2.5187	-0.944038	-3.77882	0	
2.5193	0.590024	-0.426182	0	
2.5200	-1.22725	-0.113649	0	
2.5207	-3.98856	-1.02284	0	
2.5213	-0.637226	-0.426182	0	
2.5220	4.8618	-1.02284	0	
2.5227	4.55498	-1.93203	0	
2.5233	0.283211	-1.02284	0	
2.5240	-3.37494	-0.113649	0	
2.5247	-6.11265	1.73314	0	
2.5253	-5.80583	3.23899	0	
2.5260	-2.4545	0.511419	0	
2.5267	-1.53406	-1.02284	0	
2.5273	-1.53406	1.73314	0	
2.5280	1.20365	0.79554	0	
2.5287	4.24817	-1.64791	0	
2.5293	6.39586	1.42061	0	
2.5300	6.08904	3.55152	0	
2.5307	3.04452	1.73314	0	
2.5313	1.81727	1.42061	0	
2.5320	1.51046	2.64233	0	
2.5327	-1.22725	0.79554	0	
2.5333	-4.60219	-0.113649	0	
2.5340	-5.80583	0.198885	0	
2.5347	-8.26033	-1.64791	0	
2.5353	-9.77079	-3.15375	0	
2.5360	-9.48758	-1.93203	0	
2.5367	-8.56714	-1.93203	0	
2.5373	-5.80583	-3.77882	0	
2.5380	-0.330413	-4.68801	0	
2.5387	2.73771	-5.28466	0	
2.5393	2.4309	-7.13145	0	
2.5400	2.12409	-7.72811	0	
2.5407	3.63455	-7.13145	0	
2.5413	5.16861	-6.81892	0	
2.5420	3.63455	-5.5972	0	
2.5427	1.51046	-3.15375	0	
2.5433	-0.0236009	-0.710304	0	
2.5440	-0.944038	-0.113649	0	
2.5447	-1.22725	-1.02284	0	
2.5453	-0.944038	-1.02284	0	
2.5460	-1.53406	0.198885	0	
2.5467	-4.29537	1.73314	0	
2.5473	-7.64671	3.55152	0	
2.5480	-10.998	4.77324	0	
2.5487	-13.4525	4.77324	0	
2.5493	-12.2253	4.46071	0	
2.5500	-7.64671	3.55152	0	
2.5507	-4.60219	2.01726	0	
2.5513	-4.909	2.95486	0	
2.5520	-5.21581	3.55152	0	
2.5527	-3.98856	0.198885	0	
2.5533	-3.37494	-1.02284	0	
2.5540	-4.29537	1.73314	0	
2.5547	-5.49902	3.23899	0	
2.5553	-5.80583	2.3298	0	
2.5560	-5.49902	2.01726	0	
2.5567	-4.60219	2.64233	0	
2.5573	-3.37494	2.01726	0	
2.5580	-1.22725	-1.02284	0	
2.5587	2.73771	-4.09135	0	
2.5593	5.16861	-2.86963	0	
2.5600	5.16861	-1.33537	0	
2.5607	5.47542	-5.00054	0	
2.5613	6.39586	-7.44399	0	
2.5620	6.08904	-3.77882	0	
2.5627	5.47542	-0.710304	0	
2.5633	7.00948	-1.02284	0	
2.5640	8.51994	-2.86963	0	
2.5647	8.82675	-3.77882	0	
2.5653	9.44038	-3.46628	0	
2.5660	8.82675	-2.24456	0	
2.5667	8.82675	-0.113649	0	
2.5673	11.5881	3.55152	0	
2.5680	11.5881	3.55152	0	
2.5687	6.39586	1.73314	0	
2.5693	4.8618	1.73314	0	
2.5700	5.47542	1.73314	0	
2.5707	2.4309	0.79554	0	
2.5713	1.20365	2.3298	0	
2.5720	3.35133	3.23899	0	
2.5727	2.12409	1.73314	0	
2.5733	-1.22725	1.73314	0	
2.5740	0.590024	1.73314	0	
2.5747	2.12409	-0.710304	0	
2.5753	-1.22725	1.10807	0	
2.5760	-3.98856	4.46071	0	
2.5767	-5.80583	1.42061	0	
2.5773	-5.80583	-2.24456	0	
2.5780	-4.909	0.511419	0	
2.5787	-5.80583	3.55152	0	
2.5793	-8.26033	2.01726	0	
2.5800	-7.03308	-0.113649	0	
2.5807	-6.72627	-1.02284	0	
2.5813	-10.0776	-1.93203	0	
2.5820	-9.77079	-3.77882	0	
2.5827	-6.72627	-5.5972	0	
2.5833	-5.21581	-5.90973	0	
2.5840	-1.53406	-4.68801	0	
2.5847	4.24817	-2.55709	0	
2.5853	6.39586	-1.02284	0	
2.5860	7.00948	-0.710304	0	
2.5867	6.70267	-0.426182	0	
2.5873	5.16861	0.79554	0	
2.5880	6.08904	2.3298	0	
2.5887	8.51994	3.23899	0	
2.5893	7.90632	2.01726	0	
2.5900	7.90632	-0.426182	0	
2.5907	9.74719	-1.33537	0	
2.5913	10.054	-0.426182	0	
2.5920	11.5881	-0.426182	0	
2.5927	14.3258	-1.02284	0	
2.5933	11.2813	-1.33537	0	
2.5940	7.00948	-1.93203	0	
2.5947	7.00948	-2.55709	0	
2.5953	7.00948	-2.55709	0	
2.5960	4.8618	-3.77882	0	
2.5967	3.63455	-3.77882	0	
2.5973	0.590024	-3.77882	0	
2.5980	-4.909	-5.28466	0	
2.5987	-7.64671	-7.13145	0	
2.5993	-10.3844	-6.22226	0	
2.6000	-15.2698	-4.68801	0	
2.6007	-18.6211	-2.86963	0	
2.6013	-18.6211	-0.426182	0	
2.6020	-18.0311	0.79554	0	
2.6027	-14.963	0.79554	0	
2.6033	-10.998	-0.113649	0	
2.6040	-10.6912	-2.24456	0	
2.6047	-11.6117	-2.24456	0	
2.6053	-8.87396	-0.113649	0	
2.6060	-6.41946	-0.113649	0	
2.6067	-6.72627	0.198885	0	
2.6073	-5.49902	1.42061	0	
2.6080	-2.4545	1.42061	0	
2.6087	-1.22725	2.3298	0	
2.6093	-0.330413	4.46071	0	
2.6100	1.81727	4.17659	0	
2.6107	3.04452	2.64233	0	
2.6113	3.35133	2.64233	0	
2.6120	5.16861	2.01726	0	
2.6127	8.21313	0.79554	0	
2.6133	8.82675	0.511419	0	
2.6140	8.51994	0.79554	0	
2.6147	10.054	0.79554	0	
2.6153	10.9744	0.79554	0	
2.6160	9.44038	2.64233	0	
2.6167	10.3608	1.73314	0	
2.6173	10.9744	-2.86963	0	
2.6180	7.62311	-5.5972	0	
2.6187	3.35133	-5.00054	0	
2.6193	2.4309	-5.5972	0	
2.6200	3.63455	-7.44399	0	
2.6207	3.35133	-7.13145	0	
2.6213	0.590024	-4.37547	0	
2.6220	-3.06812	-1.02284	0	
2.6227	-4.29537	1.42061	0	
2.6233	-3.68175	-1.02284	0	
2.6240	-3.98856	-3.77882	0	
2.6247	-3.37494	-1.93203	0	
2.6253	-0.944038	0.79554	0	
2.6260	2.4309	-0.426182	0	
2.6267	2.12409	-1.02284	0	
2.6273	-2.4545	2.01726	0	
2.6280	-5.80583	4.46071	0	
2.6287	-5.80583	4.17659	0	
2.6293	-6.11265	2.95486	0	
2.6300	-7.95352	2.64233	0	
2.6307	-9.18077	2.64233	0	
2.6313	-10.998	2.3298	0	
2.6320	-13.4525	3.23899	0	
2.6327	-13.1457	4.46071	0	
2.6333	-12.2253	4.17659	0	
2.6340	-14.0662	4.17659	0	
2.6347	-15.5766	5.3699	0	
2.6353	-14.0662	4.46071	0	
2.6360	-13.7594	0.79554	0	
2.6367	-12.2253	0.79554	0	
2.6373	-4.29537	5.08578	0	
2.6380	3.35133	4.46071	0	
2.6387	5.16861	-0.113649	0	
2.6393	3.63455	-1.64791	0	
2.6400	2.73771	-1.93203	0	
2.6407	5.16861	-5.00054	0	
2.6413	7.31629	-6.22226	0	
2.6420	4.24817	-3.77882	0	
2.6427	1.20365	-1.64791	0	
2.6433	1.51046	-1.33537	0	
2.6440	-0.0236009	-3.15375	0	
2.6447	-0.0236009	-4.68801	0	
2.6453	4.55498	-3.77882	0	
2.6460	7.00948	-3.77882	0	
2.6467	5.16861	-3.77882	0	
2.6473	5.47542	-0.426182	0	
2.6480	7.31629	2.64233	0	
2.6487	8.51994	0.79554	0	
2.6493	9.13357	-1.02284	0	
2.6500	9.74719	0.198885	0	
2.6507	10.3608	0.198885	0	
2.6513	8.51994	-1.02284	0	
2.6520	3.94136	-1.64791	0	
2.6527	3.04452	-2.24456	0	
2.6533	3.35133	-2.86963	0	
2.6540	0.590024	-2.55709	0	
2.6547	-0.330413	-1.64791	0	
2.6553	0.590024	-1.93203	0	
2.6560	-3.98856	-1.64791	0	
2.6567	-7.3399	-0.710304	0	
2.6573	-5.21581	-1.93203	0	
2.6580	-3.68175	-3.77882	0	
2.6587	-1.53406	-3.77882	0	
2.6593	-0.330413	-3.46628	0	
2.6600	-3.98856	-5.28466	0	
2.6607	-5.80583	-5.5972	0	
2.6613	-3.98856	-3.46628	0	
2.6620	-5.80583	-2.55709	0	
2.6627	-8.56714	-1.33537	0	
2.6633	-6.72627	-0.113649	0	
2.6640	-5.49902	-0.426182	0	
2.6647	-7.03308	-1.02284	0	
2.6653	-8.56714	0.79554	0	
2.6660	-8.56714	3.86405	0	
2.6667	-7.03308	7.21669	0	
2.6673	-5.21581	7.52922	0	
2.6680	-5.21581	6.3075	0	
2.6687	-6.41946	8.12588	0	
2.6693	-6.72627	9.03507	0	
2.6700	-7.95352	5.99497	0	
2.6707	-10.0776	3.55152	0	
2.6713	-8.87396	5.3699	0	
2.6720	-3.68175	4.46071	0	
2.6727	1.51046	-0.113649	0	
2.6733	2.4309	-0.426182	0	
2.6740	-0.330413	1.73314	0	
2.6747	-1.53406	-0.113649	0	
2.6753	1.51046	-1.93203	0	
2.6760	5.16861	-0.113649	0	
2.6767	5.78223	-0.113649	0	
2.6773	7.62311	-3.77882	0	
2.6780	11.5881	-4.37547	0	
2.6787	10.6676	-1.64791	0	
2.6793	7.90632	-0.710304	0	
2.6800	9.74719	-3.46628	0	
2.6807	12.7917	-6.22226	0	
2.6813	12.4849	-5.90973	0	
2.6820	9.74719	-3.77882	0	
2.6827	7.90632	-3.46628	0	
2.6833	6.39586	-4.37547	0	
2.6840	5.16861	-2.86963	0	
2.6847	4.55498	0.511419	0	
2.6853	4.24817	-0.113649	0	
2.6860	2.4309	-1.93203	0	
2.6867	0.590024	-0.113649	0	
2.6873	0.283211	1.73314	0	
2.6880	-0.637226	0.79554	0	
2.6887	-1.53406	0.79554	0	
2.6893	-0.637226	0.79554	0	
2.6900	-1.22725	1.73314	0	
2.6907	-4.29537	3.55152	0	
2.6913	-3.37494	3.55152	0	
2.6920	1.51046	3.55152	0	
2.6927	3.94136	6.59162	0	
2.6933	4.24817	6.3075	0	
2.6940	5.16861	1.73314	0	
2.6947	4.55498	-0.113649	0	
2.6953	2.4309	0.198885	0	
2.6960	1.20365	1.73314	0	
2.6967	0.590024	3.23899	0	
2.6973	-0.944038	-0.113649	0	
2.6980	-2.4545	-4.68801	0	
2.6987	-3.98856	-4.37547	0	
2.6993	-4.909	-2.86963	0	
2.7000	-3.98856	-4.09135	0	
2.7007	-2.4545	-3.46628	0	
2.7013	-1.22725	-2.24456	0	
2.7020	-0.330413	-4.68801	0	
2.7027	-0.330413	-7.13145	0	
2.7033	-1.22725	-6.22226	0	
2.7040	-0.0236009	-3.77882	0	
2.7047	1.51046	-1.02284	0	
2.7053	1.51046	0.79554	0	
2.7060	1.20365	2.3298	0	
2.7067	1.20365	3.23899	0	
2.7073	-1.53406	1.42061	0	
2.7080	-3.98856	0.198885	0	
2.7087	-1.84087	2.01726	0	
2.7093	0.590024	2.3298	0	
2.7100	1.20365	0.79554	0	
2.7107	4.24817	2.01726	0	
2.7113	7.62311	3.23899	0	
2.7120	5.16861	2.3298	0	
2.7127	2.12409	1.73314	0	
2.7133	3.04452	0.198885	0	
2.7140	3.63455	-1.02284	0	
2.7147	3.35133	-0.113649	0	
2.7153	6.39586	-1.02284	0	
2.7160	7.90632	-2.86963	0	
2.7167	5.47542	-2.86963	0	
2.7173	4.24817	-3.77882	0	
2.7180	4.8618	-5.00054	0	
2.7187	2.4309	-3.15375	0	
2.7193	-1.53406	-2.86963	0	
2.7200	-5.49902	-4.68801	0	
2.7207	-7.3399	-2.86963	0	
2.7213	-8.87396	-0.426182	0	
2.7220	-13.1457	-1.64791	0	
2.7227	-17.7243	-0.113649	0	
2.7233	-19.5416	2.64233	0	
2.7240	-20.1552	2.64233	0	
2.7247	-18.928	3.86405	0	
2.7253	-17.1107	5.68243	0	
2.7260	-16.8039	5.08578	0	
2.7267	-15.8834	4.17659	0	
2.7273	-11.9185	3.55152	0	
2.7280	-8.56714	2.64233	0	
2.7287	-5.80583	3.55152	0	
2.7293	-0.637226	3.55152	0	
2.7300	3.35133	0.198885	0	
2.7307	3.94136	-1.02284	0	
2.7313	5.16861	0.511419	0	
2.7320	8.21313	1.73314	0	
2.7327	10.6676	1.10807	0	
2.7333	10.9744	-0.113649	0	
2.7340	10.9744	-1.93203	0	
2.7347	9.74719	-1.93203	0	
2.7353	8.82675	-0.113649	0	
2.7360	8.82675	1.10807	0	
2.7367	9.13357	-0.426182	0	
2.7373	7.31629	-1.33537	0	
2.7380	4.24817	-0.710304	0	
2.7387	0.283211	-2.86963	0	
2.7393	-3.98856	-4.68801	0	
2.7400	-6.41946	-2.86963	0	
2.7407	-8.56714	-1.93203	0	
2.7413	-8.56714	-3.77882	0	
2.7420	-6.41946	-1.33537	0	
2.7427	-5.49902	-0.426182	0	
2.7433	-5.80583	-2.86963	0	
2.7440	-0.944038	-2.24456	0	
2.7447	5.78223	-1.93203	0	
2.7453	8.82675	-2.86963	0	
2.7460	10.6676	-0.426182	0	
2.7467	9.74719	0.79554	0	
2.7473	5.16861	-0.113649	0	
2.7480	3.35133	2.64233	0	
2.7487	5.78223	2.95486	0	
2.7493	6.08904	-1.33537	0	
2.7500	6.39586	0.198885	0	
2.7507	7.62311	4.77324	0	
2.7513	3.94136	2.95486	0	
2.7520	-1.84087	0.79554	0	
2.7527	-3.68175	1.42061	0	
2.7533	-4.909	-0.710304	0	
2.7540	-7.64671	-1.33537	0	
2.7547	-8.26033	1.73314	0	
2.7553	-7.64671	-0.426182	0	
2.7560	-9.18077	-4.37547	0	
2.7567	-8.56714	-3.77882	0	
2.7573	-4.60219	-2.86963	0	
2.7580	-0.944038	-3.46628	0	
2.7587	1.51046	-1.93203	0	
2.7593	1.20365	-1.93203	0	
2.7600	-0.330413	-4.68801	0	
2.7607	0.590024	-6.22226	0	
2.7613	3.35133	-5.5972	0	
2.7620	2.4309	-4.68801	0	
2.7627	-0.944038	-2.24456	0	
2.7633	0.590024	-1.02284	0	
2.7640	3.35133	-2.86963	0	
2.7647	1.81727	-3.77882	0	
2.7653	-0.330413	-2.86963	0	
2.7660	0.283211	-1.64791	0	
2.7667	-2.14769	0.511419	0	
2.7673	-5.49902	0.79554	0	
2.7680	-5.21581	-0.113649	0	
2.7687	-3.98856	1.73314	0	
2.7693	-3.68175	4.17659	0	
2.7700	-1.22725	2.64233	0	
2.7707	1.20365	2.01726	0	
2.7713	0.283211	4.17659	0	
2.7720	0.590024	2.95486	0	
2.7727	4.24817	-0.113649	0	
2.7733	5.16861	0.79554	0	
2.7740	2.4309	1.73314	0	
2.7747	1.81727	0.198885	0	
2.7753	-0.0236009	0.79554	0	
2.7760	-3.37494	2.01726	0	
2.7767	-1.22725	-1.02284	0	
2.7773	1.51046	-3.77882	0	
2.7780	-2.14769	-2.86963	0	
2.7787	-3.98856	-2.24456	0	
2.7793	-2.14769	-3.77882	0	
2.7800	-3.06812	-3.77882	0	
2.7807	-5.21581	-3.46628	0	
2.7813	-4.60219	-2.55709	0	
2.7820	-3.68175	-1.93203	0	
2.7827	-2.4545	-1.33537	0	
2.7833	-0.944038	-1.33537	0	
2.7840	-0.944038	-1.33537	0	
2.7847	-1.22725	-1.33537	0	
2.7853	0.590024	-1.33537	0	
2.7860	4.24817	-1.93203	0	
2.7867	7.31629	-1.64791	0	
2.7873	5.16861	0.198885	0	
2.7880	5.16861	1.73314	0	
2.7887	11.5881	1.42061	0	
2.7893	16.1667	-0.113649	0	
2.7900	14.019	0.198885	0	
2.7907	10.9744	0.511419	0	
2.7913	8.51994	-0.710304	0	
2.7920	5.16861	-0.113649	0	
2.7927	2.12409	2.64233	0	
2.7933	-3.06812	2.64233	0	
2.7940	-6.11265	3.23899	0	
2.7947	-4.909	5.08578	0	
2.7953	-5.49902	4.77324	0	
2.7960	-8.87396	3.23899	0	
2.7967	-7.03308	1.10807	0	
2.7973	-3.98856	-1.93203	0	
2.7980	-5.49902	-4.09135	0	
2.7987	-3.06812	-3.77882	0	
2.7993	2.73771	-2.55709	0	
2.8000	2.73771	-2.24456	0	
2.8007	0.590024	-3.77882	0	
2.8013	1.51046	-4.09135	0	
2.8020	0.590024	-0.710304	0	
2.8027	-0.637226	1.73314	0	
2.8033	-0.637226	-0.113649	0	
2.8040	-1.84087	-1.64791	0	
2.8047	-5.80583	-1.93203	0	
2.8053	-10.3844	-1.33537	0	
2.8060	-14.0662	0.511419	0	
2.8067	-14.6562	2.01726	0	
2.8073	-14.0662	3.55152	0	
2.8080	-13.1457	5.99497	0	
2.8087	-10.0776	4.77324	0	
2.8093	-7.64671	0.79554	0	
2.8100	-8.56714	0.79554	0	
2.8107	-9.48758	2.64233	0	
2.8113	-8.87396	2.01726	0	
2.8120	-6.72627	1.73314	0	
2.8127	-5.80583	1.73314	0	
2.8133	-6.72627	1.42061	0	
2.8140	-5.80583	1.73314	0	
2.8147	-2.4545	-0.113649	0	
2.8153	-0.330413	-3.46628	0	
2.8160	-0.330413	-1.33537	0	
2.8167	1.20365	0.79554	0	
2.8173	2.4309	-1.02284	0	
2.8180	3.63455	-1.64791	0	
2.8187	3.63455	-1.02284	0	
2.8193	2.4309	-2.55709	0	
2.8200	2.73771	-2.86963	0	
2.8207	6.70267	-2.86963	0	
2.8213	9.13357	-3.46628	0	
2.8220	8.82675	-2.86963	0	
2.8227	9.13357	-3.77882	0	
2.8233	10.6676	-6.50638	0	
2.8240	10.6676	-4.68801	0	
2.8247	10.3608	-3.77882	0	
2.8253	10.9744	-6.50638	0	
2.8260	10.6676	-5.5972	0	
2.8267	6.39586	-2.24456	0	
2.8273	2.4309	-2.86963	0	
2.8280	2.4309	-1.93203	0	
2.8287	1.51046	1.73314	0	
2.8293	-0.637226	2.01726	0	
2.8300	-0.637226	-0.426182	0	
2.8307	-1.22725	-1.64791	0	
2.8313	-4.909	-0.113649	0	
2.8320	-8.87396	2.95486	0	
2.8327	-10.0776	4.17659	0	
2.8333	-11.3049	2.3298	0	
2.8340	-13.4525	-0.426182	0	
2.8347	-13.7594	-1.33537	0	
2.8353	-11.3049	1.73314	0	
2.8360	-11.3049	5.08578	0	
2.8367	-10.0776	2.95486	0	
2.8373	-4.60219	-0.426182	0	
2.8380	-0.0236009	-2.55709	0	
2.8387	-0.0236009	-5.5972	0	
2.8393	-0.330413	-5.5972	0	
2.8400	0.590024	-2.86963	0	
2.8407	1.81727	-3.77882	0	
2.8413	4.55498	-5.00054	0	
2.8420	6.70267	-2.24456	0	
2.8427	6.08904	-1.33537	0	
2.8433	6.70267	-3.46628	0	
2.8440	6.39586	-2.55709	0	
2.8447	4.8618	-1.02284	0	
2.8453	6.08904	-1.93203	0	
2.8460	7.62311	-1.93203	0	
2.8467	4.8618	-1.64791	0	
2.8473	2.4309	-1.64791	0	
2.8480	5.16861	-1.02284	0	
2.8487	7.31629	-1.33537	0	
2.8493	7.90632	-2.55709	0	
2.8500	10.054	-1.93203	0	
2.8507	11.5881	-1.33537	0	
2.8513	9.44038	-1.64791	0	
2.8520	6.08904	-0.113649	0	
2.8527	5.78223	0.198885	0	
2.8533	7.31629	-2.24456	0	
2.8540	8.82675	-2.86963	0	
2.8547	9.74719	-1.64791	0	
2.8553	8.82675	-0.426182	0	
2.8560	3.35133	1.73314	0	
2.8567	-1.22725	2.01726	0	
2.8573	-1.22725	-0.710304	0	
2.8580	-0.0236009	-0.710304	0	
2.8587	-1.22725	2.95486	0	
2.8593	-2.14769	3.23899	0	
2.8600	-4.909	0.511419	0	
2.8607	-10.3844	-0.113649	0	
2.8613	-14.0662	1.73314	0	
2.8620	-14.963	2.95486	0	
2.8627	-16.4971	1.42061	0	
2.8633	-16.8039	-0.113649	0	
2.8640	-16.1903	2.01726	0	
2.8647	-16.8039	3.55152	0	
2.8653	-12.8389	1.42061	0	
2.8660	-3.06812	0.79554	0	
2.8667	3.35133	1.10807	0	
2.8673	5.78223	-0.113649	0	
2.8680	11.5881	0.79554	0	
2.8687	15.2462	1.73314	0	
2.8693	9.74719	-1.93203	0	
2.8700	6.08904	-2.55709	0	
2.8707	7.90632	1.10807	0	
2.8713	7.00948	-0.426182	0	
2.8720	5.78223	-3.46628	0	
2.8727	6.08904	-0.710304	0	
2.8733	0.283211	1.73314	0	
2.8740	-6.41946	0.198885	0	
2.8747	-5.80583	-0.426182	0	
2.8753	-9.18077	0.198885	0	
2.8760	-15.5766	0.511419	0	
2.8767	-13.4525	0.198885	0	
2.8773	-13.1457	-0.113649	0	
2.8780	-19.8484	0.511419	0	
2.8787	-18.6211	1.73314	0	
2.8793	-13.1457	3.55152	0	
2.8800	-11.9185	2.64233	0	
2.8807	-7.95352	-0.710304	0	
2.8813	-3.98856	-2.55709	0	
2.8820	-4.909	0.79554	0	
2.8827	-3.06812	2.3298	0	
2.8833	1.51046	-1.93203	0	
2.8840	1.51046	-3.77882	0	
2.8847	1.51046	0.198885	0	
2.8853	4.24817	1.73314	0	
2.8860	5.16861	-1.02284	0	
2.8867	2.73771	0.198885	0	
2.8873	1.51046	3.23899	0	
2.8880	0.590024	2.64233	0	
2.8887	-1.53406	2.64233	0	
2.8893	-2.14769	4.46071	0	
2.8900	2.4309	3.55152	0	
2.8907	7.00948	1.73314	0	
2.8913	7.00948	1.10807	0	
2.8920	7.90632	-0.113649	0	
2.8927	10.9744	-1.33537	0	
2.8933	10.6676	-1.02284	0	
2.8940	8.21313	-0.426182	0	
2.8947	7.00948	-1.02284	0	
2.8953	4.8618	-1.02284	0	
2.8960	2.73771	-0.113649	0	
2.8967	0.283211	-1.02284	0	
2.8973	-3.06812	-3.77882	0	
2.8980	-3.37494	-5.00054	0	
2.8987	-2.14769	-3.46628	0	
2.8993	-3.98856	-2.55709	0	
2.9000	-5.80583	-2.24456	0	
2.9007	-4.909	-0.113649	0	
2.9013	-3.37494	0.198885	0	
2.9020	-2.4545	-1.02284	0	
2.9027	-2.14769	-0.113649	0	
2.9033	-2.4545	0.79554	0	
2.9040	0.283211	0.198885	0	
2.9047	2.4309	1.73314	0	
2.9053	-0.0236009	3.23899	0	
2.9060	1.20365	1.73314	0	
2.9067	6.70267	0.511419	0	
2.9073	5.47542	-0.113649	0	
2.9080	3.04452	-0.426182	0	
2.9087	7.00948	0.79554	0	
2.9093	8.21313	0.79554	0	
2.9100	3.63455	0.511419	0	
2.9107	3.35133	2.95486	0	
2.9113	5.47542	3.55152	0	
2.9120	5.47542	0.511419	0	
2.9127	7.62311	-1.02284	0	
2.9133	9.74719	-1.02284	0	
2.9140	8.82675	-1.93203	0	
2.9147	7.90632	-1.64791	0	
2.9153	7.00948	-0.113649	0	
2.9160	5.16861	-0.113649	0	
2.9167	4.24817	-2.55709	0	
2.9173	4.55498	-4.09135	0	
2.9180	2.4309	-2.55709	0	
2.9187	-0.330413	-1.02284	0	
2.9193	-0.944038	-3.77882	0	
2.9200	-1.22725	-5.5972	0	
2.9207	-3.37494	-3.77882	0	
2.9213	-4.60219	-2.24456	0	
2.9220	-6.72627	-1.02284	0	
2.9227	-10.3844	-1.02284	0	
2.9233	-11.3049	-1.02284	0	
2.9240	-9.48758	0.198885	0	
2.9247	-10.0776	1.42061	0	
2.9253	-11.3049	1.73314	0	
2.9260	-10.998	4.17659	0	
2.9267	-13.1457	4.17659	0	
2.9273	-14.6562	2.3298	0	
2.9280	-10.3844	3.23899	0	
2.9287	-5.49902	3.55152	0	
2.9293	-3.06812	1.73314	0	
2.9300	-0.0236009	3.23899	0	
2.9307	2.73771	3.55152	0	
2.9313	2.4309	-0.113649	0	
2.9320	0.896836	0.511419	0	
2.9327	1.20365	2.64233	0	
2.9333	3.35133	0.79554	0	
2.9340	5.16861	0.79554	0	
2.9347	4.8618	1.42061	0	
2.9353	5.47542	-2.24456	0	
2.9360	7.00948	-4.37547	0	
2.9367	7.00948	-5.28466	0	
2.9373	7.00948	-7.13145	0	
2.9380	9.74719	-5.28466	0	
2.9387	11.2813	-3.77882	0	
2.9393	8.82675	-7.72811	0	
2.9400	6.08904	-8.04064	0	
