0.0007	-2.43977	-0.0409022	0	
0.0013	-0.291938	-0.0409022	0	
0.0020	5.19233	-0.961201	0	
0.0027	7.63209	-2.8018	0	
0.0033	5.19233	-1.26797	0	
0.0040	6.10984	1.47248	0	
0.0047	8.8624	-0.0409022	0	
0.0053	7.94488	-1.8815	0	
0.0060	6.10984	-1.26797	0	
0.0067	7.34015	-0.961201	0	
0.0073	8.25767	-0.347668	0	
0.0080	8.25767	0.879396	0	
0.0087	9.77992	0.879396	0	
0.0093	11.5941	-0.961201	0	
0.0100	11.9069	-1.26797	0	
0.0107	11.5941	0.879396	0	
0.0113	11.3022	3.61984	0	
0.0120	10.9894	2.39278	0	
0.0127	9.46713	-1.26797	0	
0.0133	3.35729	-0.654434	0	
0.0140	-4.87953	0.265864	0	
0.0147	-9.15434	-1.8815	0	
0.0153	-11.2813	0.57263	0	
0.0160	-15.5561	3.61984	0	
0.0167	-17.0784	-0.654434	0	
0.0173	-14.0339	-2.8018	0	
0.0180	-12.5116	1.47248	0	
0.0187	-14.9514	1.16571	0	
0.0193	-16.1609	-0.654434	0	
0.0200	-14.9514	3.00631	0	
0.0207	-11.5941	5.43999	0	
0.0213	-7.92403	4.84691	0	
0.0220	-5.79705	6.36028	0	
0.0227	-3.96202	6.36028	0	
0.0233	-3.0445	3.92661	0	
0.0240	-3.96202	3.92661	0	
0.0247	-1.20946	5.43999	0	
0.0253	3.35729	4.54014	0	
0.0260	6.10984	2.39278	0	
0.0267	6.71457	0.879396	0	
0.0273	7.94488	-0.0409022	0	
0.0280	8.8624	-0.961201	0	
0.0287	10.0719	-0.347668	0	
0.0293	11.5941	0.57263	0	
0.0300	11.3022	-0.0409022	0	
0.0307	10.6974	-1.8815	0	
0.0313	11.5941	-2.49503	0	
0.0320	10.0719	-3.70164	0	
0.0327	6.42264	-5.23548	0	
0.0333	4.27481	-4.31518	0	
0.0340	3.06535	-1.8815	0	
0.0347	3.06535	-1.8815	0	
0.0353	4.27481	-4.62194	0	
0.0360	4.5876	-6.46254	0	
0.0367	6.10984	-4.62194	0	
0.0373	7.63209	-3.39488	0	
0.0380	5.19233	-3.70164	0	
0.0387	2.14783	-3.08811	0	
0.0393	3.35729	-0.961201	0	
0.0400	5.50512	-1.8815	0	
0.0407	6.10984	-1.57473	0	
0.0413	6.10984	1.77924	0	
0.0420	3.98287	1.16571	0	
0.0427	1.23031	-2.18827	0	
0.0433	0.625581	0.265864	0	
0.0440	-2.12698	3.61984	0	
0.0447	-5.79705	3.31307	0	
0.0453	-7.61124	3.00631	0	
0.0460	-10.9685	2.39278	0	
0.0467	-14.6386	1.16571	0	
0.0473	-14.9514	2.39278	0	
0.0480	-16.7864	2.69954	0	
0.0487	-19.5181	0.265864	0	
0.0493	-14.9514	-0.654434	0	
0.0500	-8.84155	-0.654434	0	
0.0507	-8.23682	-1.57473	0	
0.0513	-8.52876	-0.961201	0	
0.0520	-6.40178	-1.26797	0	
0.0527	-3.64922	-4.31518	0	
0.0533	-0.604729	-5.84901	0	
0.0540	0.625581	-5.54224	0	
0.0547	-1.52225	-5.23548	0	
0.0553	-3.0445	-4.00841	0	
0.0560	0	-2.8018	0	
0.0567	2.43977	-3.08811	0	
0.0573	1.83504	-3.39488	0	
0.0580	0.312791	-0.961201	0	
0.0587	0	0.879396	0	
0.0593	-0.291938	0.879396	0	
0.0600	-2.43977	0.57263	0	
0.0607	-6.40178	0.265864	0	
0.0613	-8.84155	0.57263	0	
0.0620	-8.23682	1.16571	0	
0.0627	-6.71457	1.16571	0	
0.0633	-5.79705	1.47248	0	
0.0640	-3.35729	3.31307	0	
0.0647	-0.604729	3.00631	0	
0.0653	1.83504	0.879396	0	
0.0660	3.98287	-0.654434	0	
0.0667	6.10984	-0.961201	0	
0.0673	9.15434	-0.347668	0	
0.0680	13.1372	-0.0409022	0	
0.0687	15.8689	-2.18827	0	
0.0693	15.577	-3.70164	0	
0.0700	14.6595	-1.8815	0	
0.0707	11.9069	-1.26797	0	
0.0713	7.63209	-2.49503	0	
0.0720	4.5876	-0.961201	0	
0.0727	4.27481	-0.654434	0	
0.0733	4.90039	-3.70164	0	
0.0740	5.50512	-4.92871	0	
0.0747	5.50512	-2.8018	0	
0.0753	4.5876	-0.961201	0	
0.0760	2.75256	-1.8815	0	
0.0767	0.312791	-3.08811	0	
0.0773	-2.73171	-1.8815	0	
0.0780	-4.87953	-1.26797	0	
0.0787	-6.40178	-2.8018	0	
0.0793	-7.00651	-2.18827	0	
0.0800	-7.00651	2.08601	0	
0.0807	-7.61124	3.61984	0	
0.0813	-9.15434	3.92661	0	
0.0820	-9.75907	6.97382	0	
0.0827	-9.15434	8.20088	0	
0.0833	-7.00651	6.36028	0	
0.0840	-6.40178	6.36028	0	
0.0847	-6.71457	8.20088	0	
0.0853	-5.79705	9.10073	0	
0.0860	-3.96202	8.50765	0	
0.0867	-2.73171	5.43999	0	
0.0873	-1.20946	1.47248	0	
0.0880	0.625581	1.47248	0	
0.0887	1.83504	2.69954	0	
0.0893	0.625581	1.47248	0	
0.0900	-2.12698	0.265864	0	
0.0907	-2.43977	0.879396	0	
0.0913	-1.52225	1.16571	0	
0.0920	-2.12698	-0.654434	0	
0.0927	-2.73171	-1.8815	0	
0.0933	-1.52225	-2.49503	0	
0.0940	-1.52225	-3.70164	0	
0.0947	-3.0445	-3.70164	0	
0.0953	-3.96202	-0.961201	0	
0.0960	-4.27481	0.57263	0	
0.0967	-3.0445	-0.654434	0	
0.0973	-0.917519	-0.347668	0	
0.0980	-0.291938	-0.347668	0	
0.0987	-0.291938	-2.8018	0	
0.0993	2.75256	-1.57473	0	
0.1000	6.10984	2.08601	0	
0.1007	7.02736	2.69954	0	
0.1013	6.10984	1.77924	0	
0.1020	3.35729	3.31307	0	
0.1027	1.23031	3.31307	0	
0.1033	3.06535	2.39278	0	
0.1040	4.27481	1.77924	0	
0.1047	1.23031	2.39278	0	
0.1053	0.625581	4.54014	0	
0.1060	4.27481	4.23337	0	
0.1067	3.98287	0.879396	0	
0.1073	0.625581	1.47248	0	
0.1080	0.917519	4.54014	0	
0.1087	1.5431	0.879396	0	
0.1093	0.625581	-2.8018	0	
0.1100	2.75256	-0.961201	0	
0.1107	6.10984	-1.8815	0	
0.1113	7.02736	-5.54224	0	
0.1120	7.94488	-4.31518	0	
0.1127	8.54961	-3.70164	0	
0.1133	7.94488	-6.46254	0	
0.1140	6.10984	-5.54224	0	
0.1147	0.625581	-2.49503	0	
0.1153	-5.79705	-2.8018	0	
0.1160	-4.87953	-2.18827	0	
0.1167	-1.81419	-0.654434	0	
0.1173	-3.96202	-1.57473	0	
0.1180	-6.40178	-1.8815	0	
0.1187	-5.79705	-0.0409022	0	
0.1193	-6.40178	1.47248	0	
0.1200	-6.71457	0.57263	0	
0.1207	-2.73171	0.265864	0	
0.1213	2.14783	0.879396	0	
0.1220	6.10984	0.57263	0	
0.1227	8.8624	-0.0409022	0	
0.1233	5.79705	1.47248	0	
0.1240	1.5431	3.00631	0	
0.1247	0.917519	2.39278	0	
0.1253	1.23031	1.16571	0	
0.1260	1.5431	1.16571	0	
0.1267	0.625581	2.08601	0	
0.1273	-3.64922	2.08601	0	
0.1280	-6.71457	-0.0409022	0	
0.1287	-6.08899	-0.961201	0	
0.1293	-9.15434	0.879396	0	
0.1300	-11.2813	0.879396	0	
0.1307	-5.79705	-1.8815	0	
0.1313	-5.79705	-2.18827	0	
0.1320	-14.3258	-1.8815	0	
0.1327	-14.3258	-2.8018	0	
0.1333	-8.23682	-3.70164	0	
0.1340	-9.75907	-3.70164	0	
0.1347	-11.2813	-2.49503	0	
0.1353	-4.87953	-1.8815	0	
0.1360	-1.20946	-2.8018	0	
0.1367	-1.20946	-2.18827	0	
0.1373	2.43977	-0.347668	0	
0.1380	6.10984	-0.961201	0	
0.1387	11.5941	-2.8018	0	
0.1393	18.0167	-2.8018	0	
0.1400	20.1437	-2.8018	0	
0.1407	18.0167	-2.18827	0	
0.1413	17.0992	0.265864	0	
0.1420	13.7419	2.39278	0	
0.1427	7.94488	3.61984	0	
0.1433	3.98287	5.13322	0	
0.1440	0.312791	5.74675	0	
0.1447	-4.87953	5.74675	0	
0.1453	-4.87953	4.84691	0	
0.1460	-1.20946	3.61984	0	
0.1467	-1.81419	6.05352	0	
0.1473	-3.96202	8.50765	0	
0.1480	-2.43977	4.54014	0	
0.1487	-1.20946	-0.961201	0	
0.1493	-0.604729	-0.0409022	0	
0.1500	3.06535	-0.0409022	0	
0.1507	6.71457	-2.8018	0	
0.1513	4.27481	-4.00841	0	
0.1520	1.23031	-5.23548	0	
0.1527	2.14783	-5.54224	0	
0.1533	0.625581	-4.31518	0	
0.1540	-3.64922	-5.54224	0	
0.1547	-3.96202	-6.76931	0	
0.1553	-2.12698	-3.39488	0	
0.1560	-2.73171	-0.961201	0	
0.1567	-6.40178	-3.08811	0	
0.1573	-10.3638	-4.00841	0	
0.1580	-10.6766	-3.70164	0	
0.1587	-8.52876	-3.70164	0	
0.1593	-6.71457	-2.18827	0	
0.1600	-6.71457	1.77924	0	
0.1607	-7.61124	5.74675	0	
0.1613	-9.44628	5.43999	0	
0.1620	-9.15434	2.08601	0	
0.1627	-7.92403	3.61984	0	
0.1633	-8.52876	8.20088	0	
0.1640	-7.61124	7.89412	0	
0.1647	-7.3193	5.74675	0	
0.1653	-9.44628	5.74675	0	
0.1660	-10.6766	5.13322	0	
0.1667	-10.6766	5.43999	0	
0.1673	-10.9685	7.89412	0	
0.1680	-10.3638	6.36028	0	
0.1687	-8.52876	2.08601	0	
0.1693	-7.3193	1.16571	0	
0.1700	-6.71457	0.265864	0	
0.1707	-6.08899	-3.70164	0	
0.1713	-3.0445	-5.54224	0	
0.1720	2.43977	-4.92871	0	
0.1727	5.79705	-4.62194	0	
0.1733	8.54961	-4.62194	0	
0.1740	14.6595	-5.84901	0	
0.1747	18.0167	-7.36239	0	
0.1753	17.0992	-7.66915	0	
0.1760	16.4945	-7.66915	0	
0.1767	17.0992	-7.05562	0	
0.1773	15.8689	-4.31518	0	
0.1780	15.2642	-1.8815	0	
0.1787	15.2642	-1.8815	0	
0.1793	14.9514	-2.18827	0	
0.1800	15.2642	-1.8815	0	
0.1807	15.2642	-2.18827	0	
0.1813	11.5941	-2.18827	0	
0.1820	5.79705	-0.0409022	0	
0.1827	1.5431	1.77924	0	
0.1833	-0.291938	3.31307	0	
0.1840	-2.43977	4.54014	0	
0.1847	-5.79705	3.61984	0	
0.1853	-7.92403	2.69954	0	
0.1860	-10.9685	1.77924	0	
0.1867	-15.8689	-0.654434	0	
0.1873	-17.6831	-1.8815	0	
0.1880	-15.5561	-0.347668	0	
0.1887	-14.3258	-0.654434	0	
0.1893	-13.4291	-1.26797	0	
0.1900	-8.52876	0.57263	0	
0.1907	-3.64922	-0.961201	0	
0.1913	-2.12698	-4.62194	0	
0.1920	-3.0445	-2.8018	0	
0.1927	-2.12698	-0.347668	0	
0.1933	1.5431	-3.70164	0	
0.1940	3.67008	-4.31518	0	
0.1947	2.43977	-1.26797	0	
0.1953	1.23031	-2.8018	0	
0.1960	2.43977	-4.92871	0	
0.1967	1.83504	-3.70164	0	
0.1973	-0.291938	-3.39488	0	
0.1980	0.917519	-3.08811	0	
0.1987	2.43977	0.57263	0	
0.1993	0.625581	1.47248	0	
0.2000	-1.52225	-0.961201	0	
0.2007	-5.48426	0.57263	0	
0.2013	-10.9685	4.23337	0	
0.2020	-11.2813	4.54014	0	
0.2027	-6.71457	2.69954	0	
0.2033	-3.0445	3.61984	0	
0.2040	-2.12698	4.84691	0	
0.2047	-0.604729	2.69954	0	
0.2053	3.06535	-0.0409022	0	
0.2060	9.46713	-0.654434	0	
0.2067	14.6595	-2.18827	0	
0.2073	18.0167	-4.00841	0	
0.2080	19.8518	-4.00841	0	
0.2087	19.8518	-3.70164	0	
0.2093	18.3087	-2.8018	0	
0.2100	16.1817	-0.654434	0	
0.2107	11.5941	-0.347668	0	
0.2113	6.10984	-3.70164	0	
0.2120	2.43977	-4.62194	0	
0.2127	-2.12698	-1.8815	0	
0.2133	-5.79705	-1.8815	0	
0.2140	-6.40178	-3.39488	0	
0.2147	-7.61124	-3.08811	0	
0.2153	-9.15434	-1.57473	0	
0.2160	-8.23682	0.265864	0	
0.2167	-8.52876	0.57263	0	
0.2173	-9.44628	-0.961201	0	
0.2180	-7.3193	-0.654434	0	
0.2187	-4.87953	2.08601	0	
0.2193	-4.87953	3.61984	0	
0.2200	-3.0445	3.31307	0	
0.2207	0.625581	4.23337	0	
0.2213	1.83504	5.74675	0	
0.2220	-0.604729	5.43999	0	
0.2227	-2.12698	4.23337	0	
0.2233	-1.81419	3.61984	0	
0.2240	-1.52225	2.69954	0	
0.2247	-1.20946	2.69954	0	
0.2253	-0.604729	3.61984	0	
0.2260	-0.917519	3.31307	0	
0.2267	0	1.16571	0	
0.2273	2.75256	0.57263	0	
0.2280	5.50512	0.57263	0	
0.2287	7.63209	-0.347668	0	
0.2293	11.5941	-2.18827	0	
0.2300	12.8244	-3.08811	0	
0.2307	10.6974	-2.18827	0	
0.2313	7.34015	-2.8018	0	
0.2320	4.5876	-4.62194	0	
0.2327	4.27481	-4.00841	0	
0.2333	5.79705	-3.08811	0	
0.2340	4.27481	-3.70164	0	
0.2347	-0.291938	-1.8815	0	
0.2353	-4.27481	0.879396	0	
0.2360	-6.71457	-1.26797	0	
0.2367	-9.44628	-3.08811	0	
0.2373	-13.7211	0.265864	0	
0.2380	-16.4736	1.77924	0	
0.2387	-16.4736	1.16571	0	
0.2393	-16.7864	2.39278	0	
0.2400	-18.9134	4.23337	0	
0.2407	-17.6831	4.84691	0	
0.2413	-12.1988	4.54014	0	
0.2420	-11.5941	4.54014	0	
0.2427	-12.8036	3.92661	0	
0.2433	-8.52876	3.61984	0	
0.2440	-2.43977	4.23337	0	
0.2447	1.5431	5.13322	0	
0.2453	7.34015	3.61984	0	
0.2460	10.6974	0.57263	0	
0.2467	7.02736	-0.654434	0	
0.2473	3.06535	-0.961201	0	
0.2480	4.90039	-0.961201	0	
0.2487	7.02736	1.16571	0	
0.2493	5.19233	3.61984	0	
0.2500	2.75256	1.47248	0	
0.2507	3.35729	-1.8815	0	
0.2513	5.19233	-2.18827	0	
0.2520	6.42264	-3.08811	0	
0.2527	8.54961	-4.62194	0	
0.2533	11.3022	-4.31518	0	
0.2540	8.54961	-2.8018	0	
0.2547	1.5431	-3.08811	0	
0.2553	0.312791	-4.62194	0	
0.2560	2.43977	-6.46254	0	
0.2567	-0.291938	-6.46254	0	
0.2573	-3.96202	-3.70164	0	
0.2580	-2.73171	-2.18827	0	
0.2587	-4.56674	-2.49503	0	
0.2593	-8.23682	-0.961201	0	
0.2600	-4.27481	-0.0409022	0	
0.2607	2.43977	-0.0409022	0	
0.2613	2.43977	1.16571	0	
0.2620	-1.20946	1.16571	0	
0.2627	-2.12698	1.16571	0	
0.2633	-2.43977	5.43999	0	
0.2640	-5.48426	6.36028	0	
0.2647	-9.15434	2.69954	0	
0.2653	-7.61124	2.39278	0	
0.2660	-3.96202	2.69954	0	
0.2667	-3.0445	-0.961201	0	
0.2673	-2.12698	0.265864	0	
0.2680	1.5431	4.84691	0	
0.2687	4.5876	3.61984	0	
0.2693	3.98287	0.879396	0	
0.2700	2.43977	0.879396	0	
0.2707	3.06535	-2.49503	0	
0.2713	5.19233	-6.15577	0	
0.2720	6.10984	-4.62194	0	
0.2727	8.54961	-2.49503	0	
0.2733	12.5116	-3.70164	0	
0.2740	12.2197	-5.23548	0	
0.2747	7.63209	-4.62194	0	
0.2753	3.35729	-1.8815	0	
0.2760	2.43977	-0.961201	0	
0.2767	3.06535	-1.57473	0	
0.2773	2.75256	-0.347668	0	
0.2780	0.625581	-0.654434	0	
0.2787	-2.43977	-3.08811	0	
0.2793	-5.48426	-2.49503	0	
0.2800	-6.71457	-0.0409022	0	
0.2807	-4.87953	0.879396	0	
0.2813	-4.87953	1.16571	0	
0.2820	-8.23682	1.77924	0	
0.2827	-8.52876	0.879396	0	
0.2833	-5.17147	1.16571	0	
0.2840	-3.64922	0.879396	0	
0.2847	-3.0445	-1.57473	0	
0.2853	-3.0445	-2.18827	0	
0.2860	-4.27481	0.879396	0	
0.2867	-4.87953	4.54014	0	
0.2873	-4.87953	5.43999	0	
0.2880	-6.71457	4.84691	0	
0.2887	-6.71457	4.54014	0	
0.2893	-4.27481	2.69954	0	
0.2900	-3.64922	-0.0409022	0	
0.2907	-2.73171	-1.26797	0	
0.2913	0	-1.8815	0	
0.2920	0	-4.00841	0	
0.2927	-1.52225	-5.54224	0	
0.2933	-0.291938	-5.54224	0	
0.2940	1.5431	-4.62194	0	
0.2947	2.14783	-2.8018	0	
0.2953	2.43977	-2.8018	0	
0.2960	4.5876	-3.70164	0	
0.2967	7.94488	-3.70164	0	
0.2973	10.9894	-3.39488	0	
0.2980	12.2197	-3.70164	0	
0.2987	9.77992	-1.8815	0	
0.2993	7.94488	0.879396	0	
0.3000	8.25767	-0.961201	0	
0.3007	8.8624	-3.39488	0	
0.3013	7.94488	-0.347668	0	
0.3020	8.54961	2.39278	0	
0.3027	9.15434	0.879396	0	
0.3033	6.42264	-0.0409022	0	
0.3040	3.98287	2.08601	0	
0.3047	3.67008	2.08601	0	
0.3053	1.5431	-1.57473	0	
0.3060	-3.0445	-1.57473	0	
0.3067	-4.87953	1.47248	0	
0.3073	-4.56674	-0.961201	0	
0.3080	-9.75907	-3.70164	0	
0.3087	-17.3912	-0.347668	0	
0.3093	-18.6006	3.00631	0	
0.3100	-17.9959	0.879396	0	
0.3107	-19.5181	-0.961201	0	
0.3113	-17.0784	-0.0409022	0	
0.3120	-12.5116	-0.654434	0	
0.3127	-13.1164	-1.57473	0	
0.3133	-12.8036	-0.961201	0	
0.3140	-8.23682	-0.347668	0	
0.3147	-3.0445	-0.961201	0	
0.3153	3.67008	-1.8815	0	
0.3160	10.9894	-1.26797	0	
0.3167	13.4291	-0.654434	0	
0.3173	13.4291	-2.18827	0	
0.3180	14.0547	-2.8018	0	
0.3187	11.3022	-0.0409022	0	
0.3193	7.94488	1.77924	0	
0.3200	7.02736	2.69954	0	
0.3207	3.98287	2.69954	0	
0.3213	0.917519	1.47248	0	
0.3220	1.23031	2.39278	0	
0.3227	0.625581	5.43999	0	
0.3233	-2.12698	5.43999	0	
0.3240	-3.0445	1.77924	0	
0.3247	-1.52225	-0.347668	0	
0.3253	0	-0.0409022	0	
0.3260	-2.12698	0.879396	0	
0.3267	-5.17147	0.879396	0	
0.3273	-3.0445	0.57263	0	
0.3280	0.917519	-1.26797	0	
0.3287	0.625581	-2.18827	0	
0.3293	0.625581	-1.57473	0	
0.3300	1.5431	-2.18827	0	
0.3307	0	-3.70164	0	
0.3313	2.43977	-3.70164	0	
0.3320	7.02736	-3.39488	0	
0.3327	7.02736	-4.62194	0	
0.3333	8.54961	-3.70164	0	
0.3340	13.7419	-0.961201	0	
0.3347	12.5116	-1.26797	0	
0.3353	6.10984	-0.961201	0	
0.3360	5.19233	1.77924	0	
0.3367	5.19233	1.77924	0	
0.3373	2.75256	-0.347668	0	
0.3380	3.06535	-1.8815	0	
0.3387	3.98287	-2.8018	0	
0.3393	2.43977	-1.26797	0	
0.3400	1.5431	2.69954	0	
0.3407	-0.291938	3.61984	0	
0.3413	-3.96202	1.47248	0	
0.3420	-4.27481	0.879396	0	
0.3427	-4.87953	0.57263	0	
0.3433	-9.75907	-0.0409022	0	
0.3440	-11.886	1.77924	0	
0.3447	-10.0719	2.69954	0	
0.3453	-9.44628	2.69954	0	
0.3460	-7.61124	4.23337	0	
0.3467	-5.48426	4.84691	0	
0.3473	-8.52876	2.69954	0	
0.3480	-8.23682	1.77924	0	
0.3487	-0.917519	0.879396	0	
0.3493	2.43977	-1.26797	0	
0.3500	1.83504	-2.8018	0	
0.3507	2.75256	-1.8815	0	
0.3513	1.83504	-0.961201	0	
0.3520	0.312791	-0.0409022	0	
0.3527	3.67008	0.57263	0	
0.3533	4.27481	-0.961201	0	
0.3540	-0.604729	-0.961201	0	
0.3547	-1.81419	0.265864	0	
0.3553	0.625581	-0.0409022	0	
0.3560	-0.291938	-0.0409022	0	
0.3567	-1.20946	0.879396	0	
0.3573	-0.291938	-0.0409022	0	
0.3580	-1.52225	-0.961201	0	
0.3587	-4.27481	0.879396	0	
0.3593	-3.96202	1.77924	0	
0.3600	-3.0445	1.16571	0	
0.3607	-3.64922	2.69954	0	
0.3613	-3.0445	3.00631	0	
0.3620	-0.917519	0.879396	0	
0.3627	0.625581	0.57263	0	
0.3633	1.5431	2.39278	0	
0.3640	4.5876	1.77924	0	
0.3647	7.02736	0.879396	0	
0.3653	4.27481	0.57263	0	
0.3660	2.14783	-0.347668	0	
0.3667	4.27481	-0.961201	0	
0.3673	5.79705	0.57263	0	
0.3680	4.27481	0.879396	0	
0.3687	3.67008	0.879396	0	
0.3693	3.06535	1.16571	0	
0.3700	1.83504	0.879396	0	
0.3707	2.43977	-1.57473	0	
0.3713	3.06535	-3.70164	0	
0.3720	1.5431	-3.39488	0	
0.3727	-1.20946	-3.39488	0	
0.3733	-4.87953	-6.15577	0	
0.3740	-6.71457	-7.05562	0	
0.3747	-3.96202	-3.39488	0	
0.3753	-1.52225	-2.18827	0	
0.3760	-3.0445	-3.70164	0	
0.3767	-4.27481	-2.8018	0	
0.3773	-4.27481	-1.8815	0	
0.3780	-3.64922	-3.70164	0	
0.3787	-0.917519	-2.8018	0	
0.3793	1.23031	0.57263	0	
0.3800	0.312791	0.879396	0	
0.3807	0	1.77924	0	
0.3813	2.43977	3.61984	0	
0.3820	3.35729	1.77924	0	
0.3827	3.06535	0.57263	0	
0.3833	4.5876	2.69954	0	
0.3840	6.42264	2.69954	0	
0.3847	6.10984	1.16571	0	
0.3853	4.27481	-0.0409022	0	
0.3860	3.06535	0.265864	0	
0.3867	2.14783	2.39278	0	
0.3873	-0.291938	1.47248	0	
0.3880	-1.81419	-2.49503	0	
0.3887	-2.12698	-2.8018	0	
0.3893	-3.0445	-1.8815	0	
0.3900	-3.96202	-2.49503	0	
0.3907	-3.35729	-1.57473	0	
0.3913	-4.87953	-1.57473	0	
0.3920	-8.23682	-4.00841	0	
0.3927	-10.0719	-3.39488	0	
0.3933	-10.3638	-0.0409022	0	
0.3940	-10.6766	-0.961201	0	
0.3947	-7.3193	-2.49503	0	
0.3953	-3.0445	0.265864	0	
0.3960	-3.96202	0.879396	0	
0.3967	-5.48426	-2.49503	0	
0.3973	-2.12698	-4.00841	0	
0.3980	1.5431	-3.70164	0	
0.3987	1.23031	-3.70164	0	
0.3993	0.312791	-2.8018	0	
0.4000	-0.291938	0.879396	0	
0.4007	1.23031	2.69954	0	
0.4013	4.27481	1.47248	0	
0.4020	1.83504	0.265864	0	
0.4027	-4.56674	1.77924	0	
0.4033	-4.56674	2.69954	0	
0.4040	0.312791	-0.347668	0	
0.4047	1.83504	-3.08811	0	
0.4053	3.35729	-1.57473	0	
0.4060	7.94488	1.47248	0	
0.4067	12.5116	1.16571	0	
0.4073	16.1817	-0.961201	0	
0.4080	18.3087	-0.961201	0	
0.4087	19.2262	-0.0409022	0	
0.4093	18.9343	-0.0409022	0	
0.4100	16.1817	-0.961201	0	
0.4107	10.6974	-2.18827	0	
0.4113	6.42264	-2.8018	0	
0.4120	3.35729	-2.49503	0	
0.4127	0.625581	-2.49503	0	
0.4133	-1.20946	-3.70164	0	
0.4140	-4.56674	-4.62194	0	
0.4147	-11.2813	-2.49503	0	
0.4153	-16.7864	-0.347668	0	
0.4160	-17.3912	-0.654434	0	
0.4167	-14.6386	-0.0409022	0	
0.4173	-12.5116	0.265864	0	
0.4180	-12.8036	0.265864	0	
0.4187	-14.6386	2.69954	0	
0.4193	-14.0339	5.13322	0	
0.4200	-11.2813	4.54014	0	
0.4207	-9.75907	4.54014	0	
0.4213	-7.61124	5.74675	0	
0.4220	-4.87953	7.89412	0	
0.4227	-3.96202	10.021	0	
0.4233	-3.96202	10.021	0	
0.4240	-3.64922	7.58735	0	
0.4247	-3.96202	5.74675	0	
0.4253	-3.0445	3.61984	0	
0.4260	0.625581	0.879396	0	
0.4267	2.75256	0.879396	0	
0.4273	2.43977	1.47248	0	
0.4280	1.23031	-0.0409022	0	
0.4287	-0.291938	-0.654434	0	
0.4293	0	1.47248	0	
0.4300	-0.291938	2.69954	0	
0.4307	-2.12698	0.879396	0	
0.4313	-0.291938	-1.8815	0	
0.4320	1.23031	-3.70164	0	
0.4327	-1.81419	-4.92871	0	
0.4333	-0.291938	-6.15577	0	
0.4340	6.71457	-6.15577	0	
0.4347	6.71457	-5.23548	0	
0.4353	1.5431	-3.70164	0	
0.4360	2.43977	-3.08811	0	
0.4367	7.02736	-3.70164	0	
0.4373	8.25767	-4.92871	0	
0.4380	7.94488	-3.70164	0	
0.4387	9.15434	-1.8815	0	
0.4393	11.5941	-1.8815	0	
0.4400	13.4291	-3.39488	0	
0.4407	14.0547	-2.49503	0	
0.4413	14.0547	0.265864	0	
0.4420	13.4291	-0.0409022	0	
0.4427	12.5116	-0.961201	0	
0.4433	13.4291	1.77924	0	
0.4440	12.5116	3.00631	0	
0.4447	8.54961	0.57263	0	
0.4453	5.19233	0.879396	0	
0.4460	2.43977	2.08601	0	
0.4467	-1.81419	-0.0409022	0	
0.4473	-4.87953	0.265864	0	
0.4480	-6.40178	1.16571	0	
0.4487	-10.9685	-0.347668	0	
0.4493	-14.9514	-0.347668	0	
0.4500	-15.5561	-0.0409022	0	
0.4507	-15.5561	-2.8018	0	
0.4513	-14.9514	-3.08811	0	
0.4520	-10.6766	-1.8815	0	
0.4527	-7.92403	-3.70164	0	
0.4533	-7.61124	-5.54224	0	
0.4540	-3.96202	-5.54224	0	
0.4547	0.625581	-6.15577	0	
0.4553	-0.917519	-4.92871	0	
0.4560	-2.12698	-2.18827	0	
0.4567	-0.291938	-0.654434	0	
0.4573	0.625581	-1.57473	0	
0.4580	-2.12698	-3.08811	0	
0.4587	-6.40178	-2.8018	0	
0.4593	-9.44628	-0.0409022	0	
0.4600	-8.52876	0.879396	0	
0.4607	-5.17147	-0.961201	0	
0.4613	-6.71457	0.879396	0	
0.4620	-11.2813	4.23337	0	
0.4627	-12.1988	4.54014	0	
0.4633	-8.84155	3.61984	0	
0.4640	-7.00651	3.61984	0	
0.4647	-6.71457	4.54014	0	
0.4653	-3.96202	5.43999	0	
0.4660	-0.917519	5.43999	0	
0.4667	1.23031	4.84691	0	
0.4673	1.23031	3.61984	0	
0.4680	-0.291938	-0.347668	0	
0.4687	-0.291938	-1.57473	0	
0.4693	1.5431	0.879396	0	
0.4700	-0.917519	0.57263	0	
0.4707	-3.96202	-1.57473	0	
0.4713	-1.52225	-1.57473	0	
0.4720	0.625581	-3.08811	0	
0.4727	0	-6.46254	0	
0.4733	2.43977	-6.15577	0	
0.4740	4.27481	-4.31518	0	
0.4747	6.10984	-5.54224	0	
0.4753	13.4291	-7.36239	0	
0.4760	19.8518	-7.66915	0	
0.4767	19.2262	-6.15577	0	
0.4773	20.7693	-3.39488	0	
0.4780	23.501	-2.49503	0	
0.4787	20.7693	-3.70164	0	
0.4793	18.9343	-2.8018	0	
0.4800	18.9343	-0.0409022	0	
0.4807	14.9514	-0.347668	0	
0.4813	12.2197	-1.26797	0	
0.4820	10.6974	0.265864	0	
0.4827	3.98287	0.879396	0	
0.4833	-1.52225	0.265864	0	
0.4840	-3.96202	1.47248	0	
0.4847	-10.3638	2.69954	0	
0.4853	-14.0339	2.39278	0	
0.4860	-12.1988	4.54014	0	
0.4867	-13.7211	6.97382	0	
0.4873	-18.3087	4.23337	0	
0.4880	-18.9134	2.69954	0	
0.4887	-19.5181	6.97382	0	
0.4893	-18.6006	9.4075	0	
0.4900	-14.0339	6.05352	0	
0.4907	-14.0339	3.00631	0	
0.4913	-19.5181	2.69954	0	
0.4920	-19.5181	2.69954	0	
0.4927	-18.3087	2.39278	0	
0.4933	-20.4357	1.16571	0	
0.4940	-19.5181	0.879396	0	
0.4947	-14.0339	0.879396	0	
0.4953	-9.15434	-0.961201	0	
0.4960	-3.64922	-3.39488	0	
0.4967	2.14783	-3.39488	0	
0.4973	4.27481	-2.49503	0	
0.4980	8.25767	-1.8815	0	
0.4987	14.3467	-2.18827	0	
0.4993	16.1817	-2.8018	0	
0.5000	15.8689	-1.8815	0	
0.5007	15.2642	2.08601	0	
0.5013	13.1372	5.74675	0	
0.5020	11.5941	5.13322	0	
0.5027	11.5941	1.77924	0	
0.5033	9.77992	1.77924	0	
0.5040	5.79705	5.13322	0	
0.5047	2.43977	3.61984	0	
0.5053	-1.20946	0.265864	0	
0.5060	-2.12698	2.69954	0	
0.5067	-1.20946	5.13322	0	
0.5073	-2.73171	1.77924	0	
0.5080	-4.56674	0.879396	0	
0.5087	-2.12698	5.13322	0	
0.5093	-0.291938	5.74675	0	
0.5100	-2.43977	3.92661	0	
0.5107	-1.20946	2.69954	0	
0.5113	3.35729	0.879396	0	
0.5120	5.50512	-0.654434	0	
0.5127	5.19233	0.879396	0	
0.5133	7.02736	1.16571	0	
0.5140	8.54961	-0.961201	0	
0.5147	6.10984	-2.8018	0	
0.5153	4.27481	-2.8018	0	
0.5160	4.90039	-3.08811	0	
0.5167	4.5876	-4.62194	0	
0.5173	0.917519	-5.23548	0	
0.5180	-2.73171	-3.39488	0	
0.5187	-3.0445	-2.18827	0	
0.5193	-2.43977	-2.18827	0	
0.5200	-3.96202	-0.961201	0	
0.5207	-5.48426	-0.0409022	0	
0.5213	-4.87953	0.57263	0	
0.5220	-3.64922	2.08601	0	
0.5227	-1.52225	2.69954	0	
0.5233	1.5431	0.57263	0	
0.5240	3.35729	-0.347668	0	
0.5247	4.90039	0.879396	0	
0.5253	4.27481	1.77924	0	
0.5260	0.625581	1.16571	0	
0.5267	-2.12698	1.16571	0	
0.5273	-1.20946	1.77924	0	
0.5280	-0.604729	2.69954	0	
0.5287	-2.12698	2.39278	0	
0.5293	-3.35729	1.47248	0	
0.5300	-2.43977	-0.347668	0	
0.5307	-0.291938	-0.961201	0	
0.5313	1.5431	-0.961201	0	
0.5320	0.917519	-3.08811	0	
0.5327	-1.20946	-4.92871	0	
0.5333	-3.0445	-4.92871	0	
0.5340	-3.35729	-3.70164	0	
0.5347	-3.64922	-2.18827	0	
0.5353	-5.48426	-1.57473	0	
0.5360	-6.71457	-2.18827	0	
0.5367	-3.35729	-2.49503	0	
0.5373	0	-0.961201	0	
0.5380	-0.604729	-0.0409022	0	
0.5387	-1.20946	-0.961201	0	
0.5393	-1.81419	-2.49503	0	
0.5400	-3.64922	-0.347668	0	
0.5407	-2.73171	3.61984	0	
0.5413	0.625581	4.54014	0	
0.5420	0.312791	4.84691	0	
0.5427	-1.52225	6.36028	0	
0.5433	-2.12698	5.43999	0	
0.5440	-3.96202	3.61984	0	
0.5447	-4.27481	4.23337	0	
0.5453	1.83504	3.00631	0	
0.5460	8.25767	0.57263	0	
0.5467	7.94488	0.57263	0	
0.5473	4.5876	-0.654434	0	
0.5480	3.35729	-3.08811	0	
0.5487	1.5431	-0.961201	0	
0.5493	-2.43977	-0.0409022	0	
0.5500	-3.0445	-2.8018	0	
0.5507	0.917519	-2.18827	0	
0.5513	3.98287	1.16571	0	
0.5520	3.67008	-2.8018	0	
0.5527	2.75256	-7.05562	0	
0.5533	3.35729	-5.23548	0	
0.5540	3.98287	-3.70164	0	
0.5547	3.06535	-5.23548	0	
0.5553	2.75256	-5.23548	0	
0.5560	3.06535	-4.62194	0	
0.5567	1.83504	-5.84901	0	
0.5573	1.83504	-6.15577	0	
0.5580	4.90039	-4.31518	0	
0.5587	4.27481	-3.70164	0	
0.5593	1.23031	-3.39488	0	
0.5600	2.14783	-2.8018	0	
0.5607	4.27481	-0.961201	0	
0.5613	3.35729	1.47248	0	
0.5620	2.14783	2.39278	0	
0.5627	-0.291938	2.69954	0	
0.5633	-5.48426	5.43999	0	
0.5640	-7.92403	6.97382	0	
0.5647	-6.71457	4.84691	0	
0.5653	-9.44628	5.13322	0	
0.5660	-13.1164	7.28058	0	
0.5667	-12.1988	7.28058	0	
0.5673	-10.0719	6.05352	0	
0.5680	-9.75907	4.84691	0	
0.5687	-9.75907	2.69954	0	
0.5693	-10.3638	1.77924	0	
0.5700	-10.3638	1.16571	0	
0.5707	-6.71457	-0.961201	0	
0.5713	-4.27481	-3.70164	0	
0.5720	-4.87953	-4.00841	0	
0.5727	-4.56674	-3.39488	0	
0.5733	-5.17147	-0.347668	0	
0.5740	-8.52876	0.879396	0	
0.5747	-6.71457	-2.49503	0	
0.5753	-0.917519	-3.70164	0	
0.5760	-0.291938	-0.654434	0	
0.5767	-2.73171	-0.0409022	0	
0.5773	-0.604729	-2.49503	0	
0.5780	1.5431	-2.18827	0	
0.5787	0	-1.8815	0	
0.5793	1.5431	-3.70164	0	
0.5800	5.50512	-2.8018	0	
0.5807	6.42264	-0.347668	0	
0.5813	7.34015	-0.347668	0	
0.5820	10.6974	-0.0409022	0	
0.5827	10.3847	1.77924	0	
0.5833	4.90039	0.879396	0	
0.5840	1.5431	-0.0409022	0	
0.5847	-0.604729	0.879396	0	
0.5853	-3.0445	1.47248	0	
0.5860	-4.27481	0.57263	0	
0.5867	-5.48426	-0.654434	0	
0.5873	-8.84155	-0.0409022	0	
0.5880	-11.2813	2.39278	0	
0.5887	-10.6766	3.00631	0	
0.5893	-9.15434	-0.0409022	0	
0.5900	-4.87953	-3.08811	0	
0.5907	0.312791	-3.08811	0	
0.5913	3.35729	-4.00841	0	
0.5920	5.50512	-6.15577	0	
0.5927	7.94488	-4.00841	0	
0.5933	6.71457	-2.49503	0	
0.5940	2.75256	-5.23548	0	
0.5947	1.5431	-5.84901	0	
0.5953	2.14783	-3.08811	0	
0.5960	0.312791	-3.70164	0	
0.5967	-0.291938	-4.92871	0	
0.5973	2.43977	-2.8018	0	
0.5980	5.19233	-2.8018	0	
0.5987	8.8624	-4.62194	0	
0.5993	12.5116	-3.08811	0	
0.6000	14.0547	-2.49503	0	
0.6007	12.5116	-2.8018	0	
0.6013	10.6974	0.57263	0	
0.6020	10.9894	1.77924	0	
0.6027	10.6974	-1.26797	0	
0.6033	9.15434	-2.18827	0	
0.6040	10.3847	-0.961201	0	
0.6047	14.6595	-1.57473	0	
0.6053	14.9514	-1.8815	0	
0.6060	11.5941	-1.8815	0	
0.6067	9.77992	-3.08811	0	
0.6073	7.94488	-1.8815	0	
0.6080	4.27481	-0.347668	0	
0.6087	1.83504	-3.08811	0	
0.6093	-3.0445	-4.92871	0	
0.6100	-11.2813	-2.8018	0	
0.6107	-14.0339	-1.8815	0	
0.6113	-11.2813	-2.8018	0	
0.6120	-10.3638	-2.49503	0	
0.6127	-10.3638	-0.961201	0	
0.6133	-10.3638	-1.57473	0	
0.6140	-11.2813	-2.49503	0	
0.6147	-8.84155	-2.18827	0	
0.6153	-4.87953	-0.0409022	0	
0.6160	-5.79705	3.61984	0	
0.6167	-7.3193	5.43999	0	
0.6173	-3.64922	3.92661	0	
0.6180	-0.917519	3.92661	0	
0.6187	1.23031	5.43999	0	
0.6193	6.71457	3.92661	0	
0.6200	8.8624	2.08601	0	
0.6207	6.10984	3.00631	0	
0.6213	3.98287	4.84691	0	
0.6220	3.06535	5.74675	0	
0.6227	0.625581	6.05352	0	
0.6233	-0.291938	5.43999	0	
0.6240	-1.20946	4.84691	0	
0.6247	-5.79705	4.23337	0	
0.6253	-9.75907	2.39278	0	
0.6260	-10.6766	1.47248	0	
0.6267	-11.5941	1.77924	0	
0.6273	-13.1164	1.47248	0	
0.6280	-12.1988	1.77924	0	
0.6287	-10.3638	3.00631	0	
0.6293	-9.44628	2.39278	0	
0.6300	-6.71457	0.265864	0	
0.6307	-1.81419	-2.18827	0	
0.6313	0.917519	-3.70164	0	
0.6320	0.917519	-3.70164	0	
0.6327	0.625581	-2.8018	0	
0.6333	-0.604729	-2.8018	0	
0.6340	0.917519	-3.70164	0	
0.6347	5.19233	-3.70164	0	
0.6353	3.35729	-2.8018	0	
0.6360	-2.43977	-0.347668	0	
0.6367	-1.81419	-0.961201	0	
0.6373	1.23031	-3.70164	0	
0.6380	-0.604729	-3.70164	0	
0.6387	-3.0445	-0.961201	0	
0.6393	-1.81419	-1.26797	0	
0.6400	-0.604729	-2.8018	0	
0.6407	-0.604729	-0.961201	0	
0.6413	-0.291938	3.61984	0	
0.6420	1.83504	5.43999	0	
0.6427	3.98287	5.43999	0	
0.6433	5.19233	6.36028	0	
0.6440	9.77992	4.23337	0	
0.6447	16.1817	0.265864	0	
0.6453	20.7693	-0.0409022	0	
0.6460	21.9788	1.77924	0	
0.6467	20.1437	0.879396	0	
0.6473	14.3467	0.265864	0	
0.6480	7.94488	1.16571	0	
0.6487	3.98287	0.265864	0	
0.6493	0	-0.961201	0	
0.6500	-3.0445	-0.654434	0	
0.6507	-3.96202	-0.0409022	0	
0.6513	-4.27481	-0.0409022	0	
0.6520	-6.71457	-1.57473	0	
0.6527	-9.15434	-3.39488	0	
0.6533	-8.52876	-2.8018	0	
0.6540	-6.71457	-2.49503	0	
0.6547	-7.00651	-3.70164	0	
0.6553	-7.61124	-3.39488	0	
0.6560	-5.79705	-2.8018	0	
0.6567	-3.96202	-4.62194	0	
0.6573	-2.12698	-4.62194	0	
0.6580	0.312791	-2.49503	0	
0.6587	1.83504	-2.49503	0	
0.6593	1.83504	-1.26797	0	
0.6600	1.5431	0.879396	0	
0.6607	2.43977	-0.0409022	0	
0.6613	2.75256	-0.0409022	0	
0.6620	3.67008	1.47248	0	
0.6627	7.02736	-0.654434	0	
0.6633	11.3022	-0.654434	0	
0.6640	11.5941	4.23337	0	
0.6647	9.77992	4.23337	0	
0.6653	9.77992	-0.0409022	0	
0.6660	9.15434	-0.0409022	0	
0.6667	7.02736	1.47248	0	
0.6673	7.94488	-0.0409022	0	
0.6680	9.46713	-0.654434	0	
0.6687	7.94488	-0.0409022	0	
0.6693	3.35729	-0.961201	0	
0.6700	-0.291938	-3.08811	0	
0.6707	-4.27481	-3.39488	0	
0.6713	-7.92403	-2.49503	0	
0.6720	-9.75907	-2.49503	0	
0.6727	-9.15434	-3.39488	0	
0.6733	-7.61124	-3.70164	0	
0.6740	-7.3193	-5.54224	0	
0.6747	-4.87953	-7.36239	0	
0.6753	-2.73171	-7.36239	0	
0.6760	-5.17147	-4.62194	0	
0.6767	-7.61124	-2.49503	0	
0.6773	-7.61124	-1.8815	0	
0.6780	-9.75907	-0.347668	0	
0.6787	-11.5941	1.16571	0	
0.6793	-12.1988	-0.347668	0	
0.6800	-15.2433	-1.8815	0	
0.6807	-14.9514	1.47248	0	
0.6813	-7.92403	4.84691	0	
0.6820	-7.00651	3.92661	0	
0.6827	-10.3638	4.54014	0	
0.6833	-4.87953	7.89412	0	
0.6840	2.75256	7.28058	0	
0.6847	3.98287	4.54014	0	
0.6853	4.90039	5.43999	0	
0.6860	7.34015	8.50765	0	
0.6867	6.42264	8.20088	0	
0.6873	4.27481	5.43999	0	
0.6880	2.75256	4.23337	0	
0.6887	3.35729	3.92661	0	
0.6893	5.50512	2.08601	0	
0.6900	6.10984	0.265864	0	
0.6907	5.19233	-0.0409022	0	
0.6913	6.10984	-1.8815	0	
0.6920	6.10984	-4.62194	0	
0.6927	3.35729	-4.62194	0	
0.6933	2.43977	-4.31518	0	
0.6940	3.35729	-3.70164	0	
0.6947	0.917519	-2.8018	0	
0.6953	-1.81419	-2.8018	0	
0.6960	-0.291938	-4.62194	0	
0.6967	0.625581	-4.92871	0	
0.6973	0	-3.39488	0	
0.6980	1.5431	-2.18827	0	
0.6987	1.5431	-2.49503	0	
0.6993	-1.20946	-1.8815	0	
0.7000	-3.0445	-1.57473	0	
0.7007	-3.0445	-1.57473	0	
0.7013	-3.0445	0.879396	0	
0.7020	-2.43977	3.00631	0	
0.7027	-2.43977	1.77924	0	
0.7033	-2.43977	2.69954	0	
0.7040	0	3.92661	0	
0.7047	0.312791	0.57263	0	
0.7053	-3.0445	-0.654434	0	
0.7060	-3.64922	3.61984	0	
0.7067	-0.604729	4.54014	0	
0.7073	1.5431	2.69954	0	
0.7080	2.43977	3.61984	0	
0.7087	2.75256	2.08601	0	
0.7093	2.14783	-0.0409022	0	
0.7100	3.06535	0.265864	0	
0.7107	5.19233	-2.8018	0	
0.7113	6.10984	-5.84901	0	
0.7120	7.94488	-3.39488	0	
0.7127	8.54961	-1.26797	0	
0.7133	6.71457	-2.8018	0	
0.7140	5.50512	-2.8018	0	
0.7147	4.90039	-3.70164	0	
0.7153	3.67008	-5.23548	0	
0.7160	5.19233	-2.49503	0	
0.7167	5.79705	0.265864	0	
0.7173	2.43977	-0.961201	0	
0.7180	1.23031	-1.8815	0	
0.7187	3.35729	-0.961201	0	
0.7193	0.312791	-0.0409022	0	
0.7200	-3.64922	0.879396	0	
0.7207	-3.0445	1.77924	0	
0.7213	-4.87953	2.69954	0	
0.7220	-9.15434	3.61984	0	
0.7227	-10.3638	4.54014	0	
0.7233	-12.1988	4.54014	0	
0.7240	-14.9514	4.23337	0	
0.7247	-14.0339	3.61984	0	
0.7253	-9.75907	2.08601	0	
0.7260	-7.3193	0.879396	0	
0.7267	-8.84155	1.16571	0	
0.7273	-11.2813	1.77924	0	
0.7280	-9.15434	2.08601	0	
0.7287	-4.87953	1.77924	0	
0.7293	-3.96202	0.265864	0	
0.7300	-2.12698	-1.57473	0	
0.7307	2.14783	-1.57473	0	
0.7313	3.35729	-1.57473	0	
0.7320	4.27481	-3.39488	0	
0.7327	7.94488	-4.62194	0	
0.7333	6.71457	-4.62194	0	
0.7340	2.75256	-3.70164	0	
0.7347	3.98287	-3.08811	0	
0.7353	3.98287	-3.70164	0	
0.7360	0.625581	-4.62194	0	
0.7367	1.83504	-3.08811	0	
0.7373	5.19233	-1.8815	0	
0.7380	2.43977	-3.08811	0	
0.7387	0	-3.70164	0	
0.7393	1.5431	-3.70164	0	
0.7400	2.75256	-3.08811	0	
0.7407	3.35729	-0.961201	0	
0.7413	3.67008	1.47248	0	
0.7420	1.5431	0.57263	0	
0.7427	1.5431	0.57263	0	
0.7433	3.35729	3.92661	0	
0.7440	0.917519	5.13322	0	
0.7447	-6.40178	2.39278	0	
0.7453	-9.44628	1.16571	0	
0.7460	-7.61124	2.08601	0	
0.7467	-4.87953	1.16571	0	
0.7473	-3.35729	-0.654434	0	
0.7480	-5.17147	-0.0409022	0	
0.7487	-6.71457	2.39278	0	
0.7493	-5.48426	2.69954	0	
0.7500	-6.40178	1.16571	0	
0.7507	-8.52876	-0.0409022	0	
0.7513	-7.00651	-0.961201	0	
0.7520	-5.79705	-1.8815	0	
0.7527	-7.00651	-1.8815	0	
0.7533	-3.96202	-1.26797	0	
0.7540	0.312791	-3.08811	0	
0.7547	-1.52225	-4.31518	0	
0.7553	-1.52225	-1.8815	0	
0.7560	2.14783	0.57263	0	
0.7567	2.75256	-1.57473	0	
0.7573	2.43977	-4.62194	0	
0.7580	2.75256	-4.62194	0	
0.7587	2.43977	-3.39488	0	
0.7593	2.43977	-2.8018	0	
0.7600	2.43977	-0.961201	0	
0.7607	0.312791	1.77924	0	
0.7613	0	2.39278	0	
0.7620	2.43977	0.879396	0	
0.7627	3.98287	1.77924	0	
0.7633	4.90039	4.54014	0	
0.7640	5.50512	2.69954	0	
0.7647	4.27481	-0.0409022	0	
0.7653	3.67008	1.16571	0	
0.7660	4.27481	3.31307	0	
0.7667	4.27481	3.61984	0	
0.7673	3.98287	3.61984	0	
0.7680	3.35729	0.879396	0	
0.7687	3.35729	-1.8815	0	
0.7693	5.19233	-0.961201	0	
0.7700	7.02736	-0.0409022	0	
0.7707	5.19233	-2.8018	0	
0.7713	1.83504	-4.31518	0	
0.7720	0.625581	-3.70164	0	
0.7727	2.43977	-3.70164	0	
0.7733	5.50512	-3.08811	0	
0.7740	6.42264	-2.18827	0	
0.7747	4.90039	-3.39488	0	
0.7753	4.27481	-4.00841	0	
0.7760	4.5876	-2.49503	0	
0.7767	3.67008	-1.26797	0	
0.7773	3.35729	-2.18827	0	
0.7780	4.27481	-0.347668	0	
0.7787	5.19233	3.31307	0	
0.7793	3.98287	2.39278	0	
0.7800	2.43977	1.47248	0	
0.7807	-2.43977	4.54014	0	
0.7813	-8.52876	4.54014	0	
0.7820	-9.15434	2.69954	0	
0.7827	-7.92403	4.84691	0	
0.7833	-10.3638	6.36028	0	
0.7840	-11.2813	4.84691	0	
0.7847	-10.6766	6.36028	0	
0.7853	-12.1988	5.74675	0	
0.7860	-12.8036	2.39278	0	
0.7867	-10.6766	2.69954	0	
0.7873	-10.3638	3.61984	0	
0.7880	-9.44628	0.879396	0	
0.7887	-6.40178	-0.347668	0	
0.7893	-5.48426	0.57263	0	
0.7900	-4.27481	-1.57473	0	
0.7907	0	-1.8815	0	
0.7913	2.14783	0.879396	0	
0.7920	4.5876	-0.347668	0	
0.7927	10.6974	-4.62194	0	
0.7933	11.9069	-6.15577	0	
0.7940	8.54961	-4.62194	0	
0.7947	9.77992	-6.15577	0	
0.7953	12.8244	-7.97592	0	
0.7960	10.9894	-5.54224	0	
0.7967	8.54961	-2.49503	0	
0.7973	9.77992	-2.8018	0	
0.7980	8.8624	-2.49503	0	
0.7987	4.5876	-0.654434	0	
0.7993	3.06535	-0.961201	0	
0.8000	4.27481	-2.18827	0	
0.8007	2.43977	-0.961201	0	
0.8013	-1.52225	0.879396	0	
0.8020	-4.27481	1.77924	0	
0.8027	-8.84155	3.31307	0	
0.8033	-14.0339	5.43999	0	
0.8040	-14.0339	7.28058	0	
0.8047	-10.9685	7.28058	0	
0.8053	-10.0719	3.61984	0	
0.8060	-9.44628	0.879396	0	
0.8067	-6.71457	1.77924	0	
0.8073	-5.48426	1.77924	0	
0.8080	-4.87953	0.265864	0	
0.8087	-2.43977	-1.57473	0	
0.8093	-0.291938	-1.8815	0	
0.8100	-1.81419	-1.8815	0	
0.8107	-2.12698	-0.961201	0	
0.8113	-0.291938	-0.0409022	0	
0.8120	0.625581	-0.961201	0	
0.8127	-1.20946	-3.70164	0	
0.8133	0	-3.70164	0	
0.8140	2.43977	-1.8815	0	
0.8147	2.43977	-2.49503	0	
0.8153	0.312791	-2.18827	0	
0.8160	-0.604729	1.16571	0	
0.8167	-0.604729	0.57263	0	
0.8173	-1.20946	-3.70164	0	
0.8180	-3.0445	-3.70164	0	
0.8187	-5.17147	-2.49503	0	
0.8193	-5.79705	-2.8018	0	
0.8200	-4.87953	-2.18827	0	
0.8207	-4.27481	-1.26797	0	
0.8213	-5.48426	-1.57473	0	
0.8220	-7.3193	0.57263	0	
0.8227	-8.52876	2.69954	0	
0.8233	-8.84155	3.31307	0	
0.8240	-9.44628	5.13322	0	
0.8247	-9.44628	7.28058	0	
0.8253	-8.84155	5.43999	0	
0.8260	-8.84155	3.61984	0	
0.8267	-7.00651	3.00631	0	
0.8273	-3.96202	3.31307	0	
0.8280	-2.73171	4.23337	0	
0.8287	-1.20946	2.69954	0	
0.8293	3.06535	-0.0409022	0	
0.8300	7.94488	-1.26797	0	
0.8307	10.0719	-1.8815	0	
0.8313	9.77992	-4.00841	0	
0.8320	7.94488	-4.62194	0	
0.8327	9.46713	-4.62194	0	
0.8333	11.9069	-4.62194	0	
0.8340	12.2197	-2.8018	0	
0.8347	13.7419	-0.654434	0	
0.8353	15.8689	-0.961201	0	
0.8360	13.4291	-1.26797	0	
0.8367	12.5116	-0.961201	0	
0.8373	14.9514	-2.49503	0	
0.8380	13.4291	-3.70164	0	
0.8387	9.46713	-1.26797	0	
0.8393	8.8624	1.16571	0	
0.8400	8.54961	1.77924	0	
0.8407	6.10984	0.879396	0	
0.8413	4.90039	-0.347668	0	
0.8420	2.43977	0.265864	0	
0.8427	-1.20946	2.39278	0	
0.8433	-0.291938	1.77924	0	
0.8440	3.35729	0.879396	0	
0.8447	2.75256	2.69954	0	
0.8453	-0.604729	4.23337	0	
0.8460	-0.917519	4.54014	0	
0.8467	-0.291938	6.05352	0	
0.8473	-6.08899	5.43999	0	
0.8480	-12.1988	2.39278	0	
0.8487	-10.3638	2.39278	0	
0.8493	-7.92403	4.84691	0	
0.8500	-10.3638	3.92661	0	
0.8507	-10.9685	0.57263	0	
0.8513	-7.61124	-0.347668	0	
0.8520	-7.61124	-0.654434	0	
0.8527	-9.44628	-2.8018	0	
0.8533	-7.00651	-3.70164	0	
0.8540	-3.96202	-1.8815	0	
0.8547	-3.0445	0.265864	0	
0.8553	-1.20946	-2.49503	0	
0.8560	3.98287	-5.84901	0	
0.8567	6.71457	-4.92871	0	
0.8573	2.75256	-3.08811	0	
0.8580	0.312791	-2.49503	0	
0.8587	0.312791	-0.961201	0	
0.8593	-3.0445	-0.654434	0	
0.8600	-7.3193	-2.49503	0	
0.8607	-8.52876	-0.961201	0	
0.8613	-11.5941	2.39278	0	
0.8620	-16.7864	1.77924	0	
0.8627	-18.6006	2.39278	0	
0.8633	-17.0784	6.05352	0	
0.8640	-15.5561	6.36028	0	
0.8647	-13.4291	3.61984	0	
0.8653	-10.9685	1.77924	0	
0.8660	-9.75907	0.879396	0	
0.8667	-8.23682	0.265864	0	
0.8673	-4.87953	0.879396	0	
0.8680	-1.20946	1.77924	0	
0.8687	1.83504	0.879396	0	
0.8693	5.79705	-2.49503	0	
0.8700	10.0719	-5.23548	0	
0.8707	10.6974	-4.31518	0	
0.8713	10.0719	-4.62194	0	
0.8720	11.9069	-6.76931	0	
0.8727	12.5116	-6.46254	0	
0.8733	10.9894	-6.76931	0	
0.8740	11.5941	-9.81652	0	
0.8747	12.8244	-7.66915	0	
0.8753	11.9069	-3.70164	0	
0.8760	10.6974	-4.92871	0	
0.8767	10.6974	-5.54224	0	
0.8773	10.6974	-3.70164	0	
0.8780	9.77992	-4.92871	0	
0.8787	10.3847	-5.54224	0	
0.8793	10.6974	-1.8815	0	
0.8800	8.8624	-0.961201	0	
0.8807	5.79705	-2.18827	0	
0.8813	3.06535	0.57263	0	
0.8820	0.625581	2.69954	0	
0.8827	-0.917519	-0.654434	0	
0.8833	-2.73171	-2.18827	0	
0.8840	-4.87953	0.57263	0	
0.8847	-4.27481	1.77924	0	
0.8853	-1.20946	2.08601	0	
0.8860	1.5431	3.00631	0	
0.8867	3.35729	1.77924	0	
0.8873	3.06535	0.265864	0	
0.8880	0	1.47248	0	
0.8887	-1.20946	0.879396	0	
0.8893	-2.12698	-2.49503	0	
0.8900	-4.56674	-2.49503	0	
0.8907	-5.79705	-3.08811	0	
0.8913	-6.71457	-6.76931	0	
0.8920	-8.84155	-6.46254	0	
0.8927	-8.84155	-3.70164	0	
0.8933	-9.15434	-4.00841	0	
0.8940	-12.8036	-3.70164	0	
0.8947	-13.7211	1.16571	0	
0.8953	-12.1988	4.23337	0	
0.8960	-13.4291	2.08601	0	
0.8967	-14.9514	0.879396	0	
0.8973	-11.886	2.39278	0	
0.8980	-8.23682	3.61984	0	
0.8987	-8.52876	3.61984	0	
0.8993	-10.3638	4.54014	0	
0.9000	-8.23682	5.13322	0	
0.9007	-5.17147	3.92661	0	
0.9013	-7.00651	4.23337	0	
0.9020	-9.15434	6.05352	0	
0.9027	-5.79705	4.54014	0	
0.9033	-2.73171	1.47248	0	
0.9040	-2.12698	1.77924	0	
0.9047	0.312791	3.61984	0	
0.9053	2.43977	3.00631	0	
0.9060	2.14783	2.69954	0	
0.9067	2.43977	2.39278	0	
0.9073	4.5876	-0.0409022	0	
0.9080	6.42264	-1.26797	0	
0.9087	8.54961	-0.347668	0	
0.9093	10.3847	-0.654434	0	
0.9100	9.77992	-2.8018	0	
0.9107	9.77992	-3.70164	0	
0.9113	10.6974	-3.08811	0	
0.9120	10.3847	-3.70164	0	
0.9127	9.77992	-5.23548	0	
0.9133	10.3847	-5.23548	0	
0.9140	10.6974	-4.62194	0	
0.9147	8.25767	-5.54224	0	
0.9153	3.98287	-5.23548	0	
0.9160	1.83504	-3.08811	0	
0.9167	3.06535	-0.961201	0	
0.9173	3.06535	-0.961201	0	
0.9180	-0.291938	-0.654434	0	
0.9187	-2.73171	-0.654434	0	
0.9193	-0.917519	-1.26797	0	
0.9200	-0.917519	-0.0409022	0	
0.9207	-2.73171	1.77924	0	
0.9213	-2.43977	1.16571	0	
0.9220	0	-0.0409022	0	
0.9227	1.5431	1.77924	0	
0.9233	1.23031	4.54014	0	
0.9240	-1.20946	4.84691	0	
0.9247	-4.56674	3.00631	0	
0.9253	-6.71457	-0.0409022	0	
0.9260	-6.71457	-1.8815	0	
0.9267	-6.71457	0.265864	0	
0.9273	-5.48426	3.31307	0	
0.9280	-3.35729	1.77924	0	
0.9287	-2.73171	-0.0409022	0	
0.9293	-3.64922	2.08601	0	
0.9300	-4.27481	1.16571	0	
0.9307	-4.27481	-3.08811	0	
0.9313	-5.17147	-3.70164	0	
0.9320	-6.08899	-2.8018	0	
0.9327	-4.27481	-3.08811	0	
0.9333	0.625581	-3.08811	0	
0.9340	2.43977	-3.70164	0	
0.9347	0.917519	-3.70164	0	
0.9353	0	-1.8815	0	
0.9360	2.43977	-0.961201	0	
0.9367	4.90039	-1.8815	0	
0.9373	4.27481	-1.57473	0	
0.9380	4.5876	-1.8815	0	
0.9387	6.10984	-2.49503	0	
0.9393	5.50512	-0.0409022	0	
0.9400	4.27481	1.16571	0	
0.9407	3.67008	1.16571	0	
0.9413	2.75256	3.61984	0	
0.9420	3.06535	4.84691	0	
0.9427	4.27481	2.69954	0	
0.9433	4.5876	1.47248	0	
0.9440	3.67008	0.265864	0	
0.9447	1.5431	-0.347668	0	
0.9453	0.625581	1.16571	0	
0.9460	2.75256	0.879396	0	
0.9467	4.27481	-0.654434	0	
0.9473	2.14783	2.69954	0	
0.9480	2.43977	4.84691	0	
0.9487	4.27481	-0.0409022	0	
0.9493	2.14783	-3.70164	0	
0.9500	-0.604729	-2.8018	0	
0.9507	1.23031	-3.08811	0	
0.9513	2.43977	-4.62194	0	
0.9520	1.83504	-3.70164	0	
0.9527	3.06535	-1.8815	0	
0.9533	5.79705	-2.8018	0	
0.9540	8.8624	-3.70164	0	
0.9547	12.5116	-3.70164	0	
0.9553	14.6595	-5.54224	0	
0.9560	15.8689	-6.15577	0	
0.9567	15.8689	-4.31518	0	
0.9573	13.7419	-2.8018	0	
0.9580	12.5116	-3.70164	0	
0.9587	11.5941	-4.00841	0	
0.9593	9.77992	-2.8018	0	
0.9600	7.02736	-0.0409022	0	
0.9607	3.35729	1.77924	0	
0.9613	0.625581	1.16571	0	
0.9620	0.625581	-0.0409022	0	
0.9627	-2.12698	1.16571	0	
0.9633	-8.52876	4.54014	0	
0.9640	-10.3638	5.13322	0	
0.9647	-12.1988	3.00631	0	
0.9653	-19.5181	2.39278	0	
0.9660	-24.3977	3.61984	0	
0.9667	-22.8754	3.31307	0	
0.9673	-19.5181	2.69954	0	
0.9680	-15.2433	3.61984	0	
0.9687	-12.8036	2.69954	0	
0.9693	-13.1164	-0.0409022	0	
0.9700	-9.44628	-0.0409022	0	
0.9707	-4.87953	0.57263	0	
0.9713	-6.40178	-0.961201	0	
0.9720	-8.84155	-0.0409022	0	
0.9727	-9.15434	2.08601	0	
0.9733	-10.3638	-0.347668	0	
0.9740	-9.15434	-2.49503	0	
0.9747	-6.71457	0.57263	0	
0.9753	-7.61124	1.47248	0	
0.9760	-6.40178	-1.57473	0	
0.9767	-2.73171	-1.57473	0	
0.9773	-2.73171	-0.347668	0	
0.9780	-3.0445	-1.8815	0	
0.9787	0	-2.8018	0	
0.9793	-0.291938	-0.961201	0	
0.9800	-4.27481	1.47248	0	
0.9807	-3.96202	2.69954	0	
0.9813	-0.291938	1.77924	0	
0.9820	1.23031	0.879396	0	
0.9827	0.625581	2.39278	0	
0.9833	-0.917519	1.77924	0	
0.9840	-1.52225	-0.0409022	0	
0.9847	0.917519	2.39278	0	
0.9853	2.43977	5.43999	0	
0.9860	-0.291938	2.69954	0	
0.9867	-3.0445	-0.347668	0	
0.9873	-4.87953	1.16571	0	
0.9880	-6.71457	0.879396	0	
0.9887	-7.00651	-1.57473	0	
0.9893	-4.27481	-0.0409022	0	
0.9900	-0.917519	1.47248	0	
0.9907	0.917519	-0.654434	0	
0.9913	1.5431	-0.961201	0	
0.9920	5.19233	-0.0409022	0	
0.9927	10.6974	-3.39488	0	
0.9933	13.1372	-6.15577	0	
0.9940	18.6215	-4.62194	0	
0.9947	28.6933	-3.70164	0	
0.9953	30.5284	-6.15577	0	
0.9960	25.0233	-7.66915	0	
0.9967	23.2091	-6.76931	0	
0.9973	22.2916	-5.54224	0	
0.9980	18.6215	-3.70164	0	
0.9987	15.8689	-3.39488	0	
0.9993	10.6974	-3.70164	0	
1.0000	3.06535	-2.8018	0	
1.0007	-1.52225	-0.654434	0	
1.0013	-4.27481	0.265864	0	
1.0020	-8.84155	1.16571	0	
1.0027	-12.1988	2.69954	0	
1.0033	-13.1164	2.69954	0	
1.0040	-14.9514	1.16571	0	
1.0047	-16.7864	1.16571	0	
1.0053	-18.6006	1.77924	0	
1.0060	-20.4357	3.31307	0	
1.0067	-20.7484	4.54014	0	
1.0073	-16.4736	3.92661	0	
1.0080	-12.8036	3.61984	0	
1.0087	-12.5116	2.39278	0	
1.0093	-11.2813	-0.961201	0	
1.0100	-8.52876	-1.8815	0	
1.0107	-9.75907	-0.0409022	0	
1.0113	-10.3638	-1.26797	0	
1.0120	-7.61124	-2.49503	0	
1.0127	-6.71457	-0.0409022	0	
1.0133	-7.92403	0.57263	0	
1.0140	-7.3193	-1.57473	0	
1.0147	-5.17147	-0.961201	0	
1.0153	-4.56674	-0.654434	0	
1.0160	-5.79705	-2.18827	0	
1.0167	-7.61124	-2.49503	0	
1.0173	-6.08899	-1.57473	0	
1.0180	-2.43977	-0.0409022	0	
1.0187	-0.604729	1.47248	0	
1.0193	-0.291938	0.879396	0	
1.0200	-0.917519	-0.961201	0	
1.0207	-2.73171	1.47248	0	
1.0213	-1.52225	5.74675	0	
1.0220	1.83504	5.43999	0	
1.0227	2.43977	3.31307	0	
1.0233	1.83504	2.69954	0	
1.0240	2.14783	2.69954	0	
1.0247	2.43977	1.77924	0	
1.0253	3.98287	1.47248	0	
1.0260	6.10984	1.16571	0	
1.0267	6.42264	0.265864	0	
1.0273	4.90039	1.77924	0	
1.0280	2.75256	2.69954	0	
1.0287	2.43977	-0.0409022	0	
1.0293	3.35729	-2.18827	0	
1.0300	6.42264	-0.961201	0	
1.0307	8.8624	-0.0409022	0	
1.0313	7.94488	-2.18827	0	
1.0320	7.02736	-4.00841	0	
1.0327	7.34015	-4.31518	0	
1.0333	7.94488	-3.39488	0	
1.0340	9.77992	-2.8018	0	
1.0347	12.5116	-2.8018	0	
1.0353	11.5941	-1.8815	0	
1.0360	10.9894	-2.49503	0	
1.0367	12.5116	-4.31518	0	
1.0373	12.5116	-3.08811	0	
1.0380	12.8244	-0.347668	0	
1.0387	13.7419	-0.961201	0	
1.0393	12.8244	-2.8018	0	
1.0400	11.5941	-2.18827	0	
1.0407	9.77992	-0.961201	0	
1.0413	5.79705	-0.961201	0	
1.0420	3.67008	-0.961201	0	
1.0427	2.75256	0.57263	0	
1.0433	0.625581	1.77924	0	
1.0440	2.43977	0.879396	0	
1.0447	6.42264	1.16571	0	
1.0453	6.42264	2.39278	0	
1.0460	8.25767	-0.347668	0	
1.0467	10.0719	-3.08811	0	
1.0473	5.79705	-0.961201	0	
1.0480	3.98287	0.879396	0	
1.0487	7.02736	-0.961201	0	
1.0493	4.27481	-0.961201	0	
1.0500	-0.291938	-0.961201	0	
1.0507	-1.20946	-3.08811	0	
1.0513	-3.64922	-2.8018	0	
1.0520	-7.61124	-1.26797	0	
1.0527	-8.52876	-2.8018	0	
1.0533	-9.15434	-3.70164	0	
1.0540	-9.75907	-3.39488	0	
1.0547	-10.3638	-1.57473	0	
1.0553	-12.8036	0.879396	0	
1.0560	-14.6386	2.39278	0	
1.0567	-15.2433	0.879396	0	
1.0573	-17.3912	1.16571	0	
1.0580	-17.3912	4.54014	0	
1.0587	-13.4291	6.05352	0	
1.0593	-10.6766	5.13322	0	
1.0600	-11.5941	5.43999	0	
1.0607	-11.2813	6.05352	0	
1.0613	-6.71457	4.84691	0	
1.0620	-1.52225	4.54014	0	
1.0627	-1.20946	5.43999	0	
1.0633	-0.604729	7.58735	0	
1.0640	2.75256	8.20088	0	
1.0647	4.90039	6.66705	0	
1.0653	4.27481	5.43999	0	
1.0660	4.5876	4.54014	0	
1.0667	5.79705	3.61984	0	
1.0673	6.10984	2.69954	0	
1.0680	5.79705	2.69954	0	
1.0687	4.90039	1.77924	0	
1.0693	4.5876	0.879396	0	
1.0700	3.35729	0.879396	0	
1.0707	0.625581	-1.26797	0	
1.0713	-2.43977	-3.70164	0	
1.0720	-4.56674	-3.08811	0	
1.0727	-5.79705	-2.18827	0	
1.0733	-4.56674	-4.62194	0	
1.0740	-4.87953	-6.46254	0	
1.0747	-7.61124	-4.62194	0	
1.0753	-7.92403	-3.70164	0	
1.0760	-4.87953	-3.70164	0	
1.0767	-2.12698	-2.49503	0	
1.0773	0	-3.08811	0	
1.0780	3.35729	-5.54224	0	
1.0787	6.10984	-4.92871	0	
1.0793	6.10984	-2.8018	0	
1.0800	6.42264	-3.39488	0	
1.0807	10.6974	-4.62194	0	
1.0813	14.6595	-4.00841	0	
1.0820	14.3467	-3.70164	0	
1.0827	15.2642	-3.70164	0	
1.0833	19.8518	-2.49503	0	
1.0840	18.0167	-1.26797	0	
1.0847	11.3022	-1.26797	0	
1.0853	5.79705	-0.654434	0	
1.0860	-0.604729	-0.347668	0	
1.0867	-7.3193	-1.8815	0	
1.0873	-9.15434	-1.57473	0	
1.0880	-10.3638	2.39278	0	
1.0887	-14.6386	3.00631	0	
1.0893	-15.8689	-0.347668	0	
1.0900	-14.0339	-1.8815	0	
1.0907	-13.1164	-0.0409022	0	
1.0913	-12.1988	-0.0409022	0	
1.0920	-10.3638	-2.18827	0	
1.0927	-8.84155	-2.8018	0	
1.0933	-8.84155	-1.8815	0	
1.0940	-8.52876	-1.57473	0	
1.0947	-7.00651	-1.57473	0	
1.0953	-3.64922	-1.26797	0	
1.0960	-0.291938	-1.57473	0	
1.0967	0	-2.18827	0	
1.0973	0.625581	-1.8815	0	
1.0980	2.43977	-0.347668	0	
1.0987	2.43977	0.57263	0	
1.0993	0.917519	-0.654434	0	
1.1000	0.917519	-0.347668	0	
1.1007	3.35729	2.39278	0	
1.1013	4.27481	3.92661	0	
1.1020	1.5431	3.61984	0	
1.1027	0	5.43999	0	
1.1033	0.625581	8.20088	0	
1.1040	-1.20946	7.28058	0	
1.1047	-4.87953	3.61984	0	
1.1053	-4.87953	3.92661	0	
1.1060	-5.17147	4.54014	0	
1.1067	-7.00651	3.00631	0	
1.1073	-7.61124	1.77924	0	
1.1080	-6.40178	0.879396	0	
1.1087	-5.79705	-0.961201	0	
1.1093	-5.79705	-1.57473	0	
1.1100	-6.71457	-0.347668	0	
1.1107	-5.79705	-1.57473	0	
1.1113	-2.43977	-2.8018	0	
1.1120	-1.20946	-0.961201	0	
1.1127	-3.35729	-0.654434	0	
1.1133	-3.64922	-3.08811	0	
1.1140	-1.52225	-4.62194	0	
1.1147	-0.291938	-3.70164	0	
1.1153	-0.604729	-2.8018	0	
1.1160	-1.20946	-4.62194	0	
1.1167	-0.291938	-5.54224	0	
1.1173	1.5431	-3.39488	0	
1.1180	2.75256	-1.26797	0	
1.1187	2.14783	-0.961201	0	
1.1193	0.625581	0.265864	0	
1.1200	3.35729	-0.0409022	0	
1.1207	6.42264	-0.961201	0	
1.1213	5.19233	1.16571	0	
1.1220	5.19233	2.39278	0	
1.1227	10.0719	0.265864	0	
1.1233	12.5116	0.879396	0	
1.1240	13.4291	1.47248	0	
1.1247	17.412	-0.347668	0	
1.1253	17.0992	-1.26797	0	
1.1260	13.1372	-0.347668	0	
1.1267	12.5116	-0.961201	0	
1.1273	11.9069	-0.0409022	0	
1.1280	9.46713	0.879396	0	
1.1287	8.8624	-0.347668	0	
1.1293	7.94488	-1.8815	0	
1.1300	1.83504	-1.8815	0	
1.1307	-4.87953	-4.31518	0	
1.1313	-4.87953	-7.05562	0	
1.1320	-2.12698	-6.76931	0	
1.1327	-4.56674	-6.46254	0	
1.1333	-8.52876	-6.46254	0	
1.1340	-8.52876	-5.54224	0	
1.1347	-8.52876	-4.31518	0	
1.1353	-9.15434	-4.31518	0	
1.1360	-6.40178	-3.70164	0	
1.1367	-4.87953	-1.8815	0	
1.1373	-7.61124	-1.26797	0	
1.1380	-8.52876	-2.49503	0	
1.1387	-8.52876	-0.654434	0	
1.1393	-8.84155	3.31307	0	
1.1400	-7.92403	2.69954	0	
1.1407	-7.92403	0.879396	0	
1.1413	-9.15434	1.77924	0	
1.1420	-8.52876	4.23337	0	
1.1427	-7.61124	7.28058	0	
1.1433	-6.40178	9.10073	0	
1.1440	-5.48426	7.28058	0	
1.1447	-7.00651	6.66705	0	
1.1453	-6.71457	7.89412	0	
1.1460	-1.81419	3.00631	0	
1.1467	0.312791	-1.26797	0	
1.1473	0.917519	1.77924	0	
1.1480	3.67008	3.00631	0	
1.1487	4.27481	0.57263	0	
1.1493	1.5431	1.77924	0	
1.1500	-0.604729	0.265864	0	
1.1507	-2.12698	-3.70164	0	
1.1513	-2.43977	-2.8018	0	
1.1520	-1.81419	-1.57473	0	
1.1527	-3.64922	-4.92871	0	
1.1533	-4.87953	-5.23548	0	
1.1540	-3.0445	-3.70164	0	
1.1547	-2.43977	-5.54224	0	
1.1553	-2.12698	-5.54224	0	
1.1560	0.625581	-4.31518	0	
1.1567	1.5431	-4.62194	0	
1.1573	0.625581	-2.8018	0	
1.1580	2.43977	-0.961201	0	
1.1587	5.19233	-4.62194	0	
1.1593	7.63209	-4.92871	0	
1.1600	8.8624	-1.8815	0	
1.1607	8.8624	-1.57473	0	
1.1613	8.8624	0.265864	0	
1.1620	9.46713	3.61984	0	
1.1627	7.34015	2.69954	0	
1.1633	4.5876	3.31307	0	
1.1640	5.50512	6.97382	0	
1.1647	6.42264	5.43999	0	
1.1653	3.35729	3.61984	0	
1.1660	-1.52225	5.43999	0	
1.1667	-3.64922	4.84691	0	
1.1673	-3.0445	2.39278	0	
1.1680	-3.0445	2.69954	0	
1.1687	-2.43977	1.77924	0	
1.1693	-1.20946	-0.0409022	0	
1.1700	-4.27481	0.265864	0	
1.1707	-7.00651	-0.0409022	0	
1.1713	-3.96202	-0.0409022	0	
1.1720	-2.73171	-0.0409022	0	
1.1727	-6.08899	-1.8815	0	
1.1733	-6.71457	-3.70164	0	
1.1740	-3.64922	-2.49503	0	
1.1747	-1.52225	-1.8815	0	
1.1753	-0.291938	-2.8018	0	
1.1760	-3.0445	-3.70164	0	
1.1767	-7.92403	-4.62194	0	
1.1773	-4.87953	-3.70164	0	
1.1780	1.5431	-0.347668	0	
1.1787	2.43977	0.57263	0	
1.1793	2.75256	-0.0409022	0	
1.1800	3.67008	-0.347668	0	
1.1807	2.43977	-0.347668	0	
1.1813	3.98287	0.879396	0	
1.1820	7.02736	1.77924	0	
1.1827	6.10984	1.77924	0	
1.1833	6.10984	1.47248	0	
1.1840	7.94488	0.879396	0	
1.1847	5.19233	-0.961201	0	
1.1853	2.43977	-0.961201	0	
1.1860	3.35729	1.77924	0	
1.1867	2.14783	4.54014	0	
1.1873	0.917519	3.31307	0	
1.1880	2.43977	-0.961201	0	
1.1887	1.5431	-0.961201	0	
1.1893	0.312791	3.31307	0	
1.1900	1.83504	2.08601	0	
1.1907	3.06535	-2.8018	0	
1.1913	3.06535	-3.39488	0	
1.1920	3.67008	-1.8815	0	
1.1927	2.75256	-1.26797	0	
1.1933	-0.604729	-1.57473	0	
1.1940	-3.0445	-3.70164	0	
1.1947	-2.12698	-6.46254	0	
1.1953	-1.52225	-6.46254	0	
1.1960	-4.87953	-3.70164	0	
1.1967	-8.23682	-1.57473	0	
1.1973	-6.71457	0.57263	0	
1.1980	-1.52225	0.879396	0	
1.1987	2.43977	-0.961201	0	
1.1993	2.43977	-1.57473	0	
1.2000	1.5431	-0.961201	0	
1.2007	3.35729	-0.347668	0	
1.2013	6.10984	0.879396	0	
1.2020	8.54961	2.08601	0	
1.2027	11.5941	1.77924	0	
1.2033	14.3467	1.16571	0	
1.2040	12.8244	2.39278	0	
1.2047	10.3847	2.69954	0	
1.2053	9.15434	1.47248	0	
1.2060	7.34015	0.879396	0	
1.2067	6.42264	-0.0409022	0	
1.2073	5.79705	-1.57473	0	
1.2080	1.5431	0.265864	0	
1.2087	-4.87953	2.69954	0	
1.2093	-9.15434	0.57263	0	
1.2100	-14.0339	-1.57473	0	
1.2107	-19.2262	-1.26797	0	
1.2113	-18.3087	-1.8815	0	
1.2120	-14.9514	-2.49503	0	
1.2127	-15.8689	-2.8018	0	
1.2133	-15.8689	-2.49503	0	
1.2140	-12.1988	-0.654434	0	
1.2147	-9.44628	-0.347668	0	
1.2153	-10.3638	-1.8815	0	
1.2160	-10.0719	-1.26797	0	
1.2167	-7.61124	0.265864	0	
1.2173	-3.96202	-0.0409022	0	
1.2180	-2.12698	1.16571	0	
1.2187	-1.81419	0.879396	0	
1.2193	-2.12698	-1.26797	0	
1.2200	-1.20946	0.879396	0	
1.2207	0.312791	4.84691	0	
1.2213	0.625581	3.00631	0	
1.2220	1.23031	-0.0409022	0	
1.2227	3.35729	1.77924	0	
1.2233	4.27481	4.54014	0	
1.2240	0.625581	5.13322	0	
1.2247	-0.917519	5.13322	0	
1.2253	2.43977	3.61984	0	
1.2260	3.35729	2.69954	0	
1.2267	0.625581	3.61984	0	
1.2273	0.917519	2.69954	0	
1.2280	3.35729	-0.347668	0	
1.2287	3.35729	-0.961201	0	
1.2293	3.06535	-0.0409022	0	
1.2300	5.79705	-3.08811	0	
1.2307	7.94488	-5.23548	0	
1.2313	7.34015	-3.70164	0	
1.2320	7.34015	-2.49503	0	
1.2327	8.8624	-2.8018	0	
1.2333	8.8624	-4.62194	0	
1.2340	8.54961	-5.54224	0	
1.2347	9.77992	-3.70164	0	
1.2353	10.6974	-0.654434	0	
1.2360	10.6974	-2.18827	0	
1.2367	11.9069	-4.31518	0	
1.2373	13.1372	-2.18827	0	
1.2380	11.5941	-0.654434	0	
1.2387	8.8624	-1.26797	0	
1.2393	7.63209	-0.961201	0	
1.2400	6.71457	0.57263	0	
1.2407	4.5876	1.47248	0	
1.2413	2.14783	1.77924	0	
1.2420	-1.81419	2.39278	0	
1.2427	-7.61124	3.92661	0	
1.2433	-12.1988	5.43999	0	
1.2440	-12.1988	2.69954	0	
1.2447	-9.75907	-0.961201	0	
1.2453	-9.44628	0.57263	0	
1.2460	-10.9685	3.92661	0	
1.2467	-11.2813	4.23337	0	
1.2473	-9.44628	0.879396	0	
1.2480	-8.23682	-1.8815	0	
1.2487	-8.52876	-2.18827	0	
1.2493	-8.84155	-1.26797	0	
1.2500	-8.23682	-0.654434	0	
1.2507	-8.84155	-0.0409022	0	
1.2513	-11.2813	-1.8815	0	
1.2520	-12.5116	-6.15577	0	
1.2527	-11.2813	-6.46254	0	
1.2533	-11.2813	-3.70164	0	
1.2540	-12.1988	-5.54224	0	
1.2547	-8.84155	-7.05562	0	
1.2553	-6.71457	-3.70164	0	
1.2560	-8.52876	-3.70164	0	
1.2567	-9.44628	-4.62194	0	
1.2573	-5.79705	-0.961201	0	
1.2580	-3.0445	0.57263	0	
1.2587	-2.12698	-2.8018	0	
1.2593	-0.291938	-2.49503	0	
1.2600	3.67008	-0.0409022	0	
1.2607	7.02736	0.879396	0	
1.2613	5.19233	2.69954	0	
1.2620	4.27481	6.36028	0	
1.2627	7.02736	6.36028	0	
1.2633	6.42264	5.43999	0	
1.2640	3.67008	6.36028	0	
1.2647	4.5876	5.13322	0	
1.2653	6.10984	2.69954	0	
1.2660	4.27481	2.69954	0	
1.2667	2.75256	4.54014	0	
1.2673	2.43977	3.61984	0	
1.2680	0.625581	2.69954	0	
1.2687	-2.12698	2.69954	0	
1.2693	-1.20946	1.16571	0	
1.2700	1.23031	-1.26797	0	
1.2707	1.23031	-0.961201	0	
1.2713	0.917519	-0.654434	0	
1.2720	3.98287	-2.8018	0	
1.2727	5.50512	-3.70164	0	
1.2733	3.06535	-1.57473	0	
1.2740	1.5431	-2.18827	0	
1.2747	2.43977	-4.92871	0	
1.2753	3.67008	-4.62194	0	
1.2760	2.75256	-3.70164	0	
1.2767	0.625581	-3.39488	0	
1.2773	-1.20946	-0.961201	0	
1.2780	-3.0445	0.879396	0	
1.2787	-5.79705	-0.0409022	0	
1.2793	-7.92403	-0.347668	0	
1.2800	-7.61124	1.77924	0	
1.2807	-6.71457	3.92661	0	
1.2813	-5.79705	3.61984	0	
1.2820	-2.73171	1.16571	0	
1.2827	0.625581	0.57263	0	
1.2833	1.23031	2.69954	0	
1.2840	0.312791	2.69954	0	
1.2847	0.625581	0.879396	0	
1.2853	2.43977	0.879396	0	
1.2860	5.19233	-0.0409022	0	
1.2867	6.71457	-1.57473	0	
1.2873	7.02736	-0.961201	0	
1.2880	6.71457	-0.0409022	0	
1.2887	9.46713	0.265864	0	
1.2893	13.4291	0.57263	0	
1.2900	14.3467	-1.8815	0	
1.2907	12.5116	-3.70164	0	
1.2913	10.3847	-2.8018	0	
1.2920	5.79705	-3.70164	0	
1.2927	1.5431	-5.23548	0	
1.2933	1.5431	-4.62194	0	
1.2940	1.5431	-4.62194	0	
1.2947	-1.52225	-4.62194	0	
1.2953	-3.64922	-1.57473	0	
1.2960	-2.12698	0.879396	0	
1.2967	-1.81419	-0.0409022	0	
1.2973	-4.87953	-0.0409022	0	
1.2980	-9.15434	-0.654434	0	
1.2987	-10.9685	-0.961201	0	
1.2993	-11.5941	0.879396	0	
1.3000	-14.3258	2.69954	0	
1.3007	-15.8689	0.879396	0	
1.3013	-13.1164	-0.347668	0	
1.3020	-9.15434	1.47248	0	
1.3027	-8.23682	2.69954	0	
1.3033	-6.71457	1.16571	0	
1.3040	-1.81419	-0.0409022	0	
1.3047	1.83504	2.69954	0	
1.3053	2.43977	4.23337	0	
1.3060	2.43977	1.77924	0	
1.3067	3.35729	-0.0409022	0	
1.3073	5.50512	1.16571	0	
1.3080	7.94488	-0.347668	0	
1.3087	10.9894	-3.70164	0	
1.3093	12.5116	-3.70164	0	
1.3100	8.8624	-2.8018	0	
1.3107	3.98287	-4.00841	0	
1.3113	3.67008	-3.70164	0	
1.3120	4.27481	-3.70164	0	
1.3127	-1.81419	-5.54224	0	
1.3133	-10.6766	-4.92871	0	
1.3140	-12.5116	-2.49503	0	
1.3147	-12.5116	-2.18827	0	
1.3153	-18.3087	-0.961201	0	
1.3160	-21.666	1.16571	0	
1.3167	-17.6831	0.57263	0	
1.3173	-13.1164	-0.654434	0	
1.3180	-13.1164	-0.0409022	0	
1.3187	-14.9514	1.77924	0	
1.3193	-14.9514	4.23337	0	
1.3200	-11.5941	3.61984	0	
1.3207	-7.92403	1.16571	0	
1.3213	-4.87953	2.69954	0	
1.3220	0.312791	4.54014	0	
1.3227	4.5876	2.39278	0	
1.3233	3.67008	1.77924	0	
1.3240	2.43977	3.00631	0	
1.3247	3.35729	2.69954	0	
1.3253	2.43977	3.61984	0	
1.3260	2.43977	4.23337	0	
1.3267	5.19233	2.08601	0	
1.3273	5.79705	0.57263	0	
1.3280	7.34015	-0.0409022	0	
1.3287	14.0547	-0.961201	0	
1.3293	17.412	-1.8815	0	
1.3300	15.2642	-2.8018	0	
1.3307	15.8689	-2.8018	0	
1.3313	17.704	-2.49503	0	
1.3320	16.1817	-4.92871	0	
1.3327	14.9514	-7.66915	0	
1.3333	13.4291	-4.92871	0	
1.3340	9.77992	-3.39488	0	
1.3347	7.94488	-4.62194	0	
1.3353	9.46713	-3.70164	0	
1.3360	8.54961	-2.8018	0	
1.3367	3.98287	-2.8018	0	
1.3373	-0.917519	-0.961201	0	
1.3380	-2.43977	0.57263	0	
1.3387	-1.20946	0.879396	0	
1.3393	-1.81419	1.77924	0	
1.3400	-6.40178	1.77924	0	
1.3407	-12.8036	1.77924	0	
1.3413	-19.5181	2.69954	0	
1.3420	-22.5835	2.69954	0	
1.3427	-20.7484	3.31307	0	
1.3433	-19.5181	6.05352	0	
1.3440	-21.0404	6.05352	0	
1.3447	-21.3532	3.00631	0	
1.3453	-18.6006	2.39278	0	
1.3460	-13.1164	2.39278	0	
1.3467	-6.71457	1.16571	0	
1.3473	-1.52225	0.265864	0	
1.3480	2.14783	-0.347668	0	
1.3487	6.10984	-0.961201	0	
1.3493	10.6974	-0.0409022	0	
1.3500	11.5941	-0.0409022	0	
1.3507	8.8624	-2.49503	0	
1.3513	6.71457	-5.54224	0	
1.3520	5.79705	-7.36239	0	
1.3527	3.35729	-7.66915	0	
1.3533	1.23031	-7.36239	0	
1.3540	0	-6.46254	0	
1.3547	0.625581	-8.28269	0	
1.3553	1.83504	-8.89622	0	
1.3560	1.5431	-5.84901	0	
1.3567	2.14783	-3.70164	0	
1.3573	6.10984	-4.62194	0	
1.3580	7.02736	-3.70164	0	
1.3587	3.35729	-2.49503	0	
1.3593	3.06535	-2.8018	0	
1.3600	3.35729	0.265864	0	
1.3607	-0.291938	3.92661	0	
1.3613	-1.20946	3.61984	0	
1.3620	0.625581	3.61984	0	
1.3627	-1.20946	6.36028	0	
1.3633	-0.604729	5.43999	0	
1.3640	1.5431	3.92661	0	
1.3647	-3.0445	3.61984	0	
1.3653	-4.87953	3.61984	0	
1.3660	-0.917519	3.31307	0	
1.3667	-0.917519	2.69954	0	
1.3673	-3.0445	2.39278	0	
1.3680	0.312791	2.69954	0	
1.3687	2.14783	2.39278	0	
1.3693	1.5431	1.16571	0	
1.3700	3.67008	1.16571	0	
1.3707	5.19233	-0.654434	0	
1.3713	5.19233	-3.70164	0	
1.3720	7.02736	-4.00841	0	
1.3727	7.94488	-2.49503	0	
1.3733	5.79705	-3.08811	0	
1.3740	4.27481	-3.39488	0	
1.3747	3.06535	-2.8018	0	
1.3753	1.83504	-3.70164	0	
1.3760	3.67008	-3.39488	0	
1.3767	6.10984	-0.0409022	0	
1.3773	3.06535	0.879396	0	
1.3780	0.625581	-0.0409022	0	
1.3787	2.14783	-0.347668	0	
1.3793	2.14783	0.879396	0	
1.3800	0	3.61984	0	
1.3807	-0.291938	6.66705	0	
1.3813	-1.81419	6.36028	0	
1.3820	-5.17147	4.84691	0	
1.3827	-7.61124	5.43999	0	
1.3833	-9.44628	5.43999	0	
1.3840	-12.5116	1.77924	0	
1.3847	-14.6386	-1.26797	0	
1.3853	-16.7864	-0.961201	0	
1.3860	-20.4357	0.57263	0	
1.3867	-22.5835	1.47248	0	
1.3873	-22.2707	1.77924	0	
1.3880	-19.2262	1.77924	0	
1.3887	-14.9514	2.39278	0	
1.3893	-13.1164	2.69954	0	
1.3900	-11.886	0.57263	0	
1.3907	-6.71457	-0.654434	0	
1.3913	-3.0445	1.77924	0	
1.3920	-3.0445	-0.0409022	0	
1.3927	0.625581	-6.15577	0	
1.3933	7.34015	-6.46254	0	
1.3940	11.9069	-2.8018	0	
1.3947	12.2197	-3.70164	0	
1.3953	8.8624	-4.00841	0	
1.3960	4.27481	0.57263	0	
1.3967	3.35729	2.69954	0	
1.3973	4.5876	-0.347668	0	
1.3980	6.10984	-3.08811	0	
1.3987	5.50512	-3.70164	0	
1.3993	2.75256	-2.8018	0	
1.4000	1.5431	0.265864	0	
1.4007	1.5431	3.61984	0	
1.4013	-0.604729	4.23337	0	
1.4020	-2.73171	1.77924	0	
1.4027	-0.917519	-0.654434	0	
1.4033	-0.917519	1.77924	0	
1.4040	-2.43977	3.61984	0	
1.4047	2.14783	1.77924	0	
1.4053	8.25767	0.879396	0	
1.4060	9.77992	2.39278	0	
1.4067	12.5116	0.879396	0	
1.4073	17.0992	-2.49503	0	
1.4080	17.412	-4.31518	0	
1.4087	14.9514	-3.70164	0	
1.4093	14.3467	-2.18827	0	
1.4100	16.1817	-2.8018	0	
1.4107	20.7693	-4.62194	0	
1.4113	24.1266	-3.39488	0	
1.4120	22.5835	-2.49503	0	
1.4127	19.8518	-5.54224	0	
1.4133	18.9343	-8.89622	0	
1.4140	16.1817	-7.66915	0	
1.4147	12.5116	-5.54224	0	
1.4153	8.8624	-3.39488	0	
1.4160	1.83504	-2.18827	0	
1.4167	-6.71457	-2.8018	0	
1.4173	-12.1988	-3.08811	0	
1.4180	-16.7864	-1.57473	0	
1.4187	-19.8309	0.879396	0	
1.4193	-20.4357	0.879396	0	
1.4200	-21.9579	0.57263	0	
1.4207	-23.1882	2.69954	0	
1.4213	-21.3532	5.74675	0	
1.4220	-20.1437	6.36028	0	
1.4227	-20.1437	6.36028	0	
1.4233	-17.9959	6.05352	0	
1.4240	-15.2433	4.54014	0	
1.4247	-12.5116	2.69954	0	
1.4253	-10.3638	2.39278	0	
1.4260	-10.6766	4.23337	0	
1.4267	-8.84155	5.74675	0	
1.4273	-5.17147	5.13322	0	
1.4280	-5.48426	3.31307	0	
1.4287	-5.79705	0.879396	0	
1.4293	-1.81419	-1.26797	0	
1.4300	-0.604729	-0.961201	0	
1.4307	-2.12698	-0.654434	0	
1.4313	1.5431	-3.08811	0	
1.4320	5.19233	-4.62194	0	
1.4327	4.5876	-3.39488	0	
1.4333	4.27481	-2.49503	0	
1.4340	7.02736	-3.70164	0	
1.4347	10.9894	-4.92871	0	
1.4353	12.8244	-5.23548	0	
1.4360	11.9069	-4.00841	0	
1.4367	11.3022	-3.39488	0	
1.4373	11.5941	-4.31518	0	
1.4380	11.5941	-4.00841	0	
1.4387	12.5116	-0.961201	0	
1.4393	13.7419	1.77924	0	
1.4400	10.9894	2.08601	0	
1.4407	5.19233	1.77924	0	
1.4413	0.625581	1.16571	0	
1.4420	-3.35729	0.265864	0	
1.4427	-5.79705	-0.961201	0	
1.4433	-4.56674	-1.8815	0	
1.4440	-3.35729	-0.0409022	0	
1.4447	-4.56674	3.31307	0	
1.4453	-4.87953	3.00631	0	
1.4460	-5.79705	1.16571	0	
1.4467	-9.75907	1.16571	0	
1.4473	-11.5941	1.16571	0	
1.4480	-7.3193	0.879396	0	
1.4487	-3.96202	1.16571	0	
1.4493	-5.17147	0.879396	0	
1.4500	-5.79705	1.77924	0	
1.4507	-5.48426	2.69954	0	
1.4513	-7.3193	1.16571	0	
1.4520	-7.92403	-1.26797	0	
1.4527	-4.87953	-1.8815	0	
1.4533	-4.27481	-1.26797	0	
1.4540	-4.87953	-1.57473	0	
1.4547	-2.12698	-2.8018	0	
1.4553	0.917519	-3.70164	0	
1.4560	1.5431	-2.49503	0	
1.4567	2.43977	-2.18827	0	
1.4573	5.19233	-2.8018	0	
1.4580	7.02736	-1.8815	0	
1.4587	6.42264	-0.347668	0	
1.4593	4.5876	-0.347668	0	
1.4600	3.35729	-0.0409022	0	
1.4607	4.27481	1.77924	0	
1.4613	4.5876	2.08601	0	
1.4620	4.27481	0.265864	0	
1.4627	3.98287	-0.0409022	0	
1.4633	3.06535	1.16571	0	
1.4640	3.06535	2.69954	0	
1.4647	3.35729	3.00631	0	
1.4653	1.23031	2.69954	0	
1.4660	-0.291938	1.77924	0	
1.4667	2.43977	-0.0409022	0	
1.4673	3.98287	-0.654434	0	
1.4680	1.23031	-0.347668	0	
1.4687	-0.291938	-1.8815	0	
1.4693	2.75256	-3.70164	0	
1.4700	5.79705	-3.08811	0	
1.4707	4.5876	-0.0409022	0	
1.4713	2.43977	1.77924	0	
1.4720	2.43977	0.265864	0	
1.4727	2.14783	-3.70164	0	
1.4733	2.14783	-5.54224	0	
1.4740	1.83504	-1.57473	0	
1.4747	0.625581	1.47248	0	
1.4753	-1.20946	-0.961201	0	
1.4760	-3.35729	-1.8815	0	
1.4767	-4.87953	-0.961201	0	
1.4773	-3.96202	-2.49503	0	
1.4780	-2.73171	-3.08811	0	
1.4787	-3.35729	-0.0409022	0	
1.4793	-2.43977	1.77924	0	
1.4800	0.625581	1.16571	0	
1.4807	0.625581	1.47248	0	
1.4813	-1.81419	2.69954	0	
1.4820	-1.52225	4.54014	0	
1.4827	-0.917519	7.28058	0	
1.4833	-1.81419	8.20088	0	
1.4840	-1.20946	6.05352	0	
1.4847	-1.20946	3.00631	0	
1.4853	-3.96202	3.00631	0	
1.4860	-5.79705	3.92661	0	
1.4867	-4.56674	2.39278	0	
1.4873	-5.17147	1.47248	0	
1.4880	-8.52876	3.61984	0	
1.4887	-11.886	4.54014	0	
1.4893	-14.0339	2.08601	0	
1.4900	-12.5116	0.265864	0	
1.4907	-10.0719	-0.0409022	0	
1.4913	-10.3638	-2.49503	0	
1.4920	-10.3638	-4.31518	0	
1.4927	-7.3193	-3.39488	0	
1.4933	-6.71457	-2.49503	0	
1.4940	-7.00651	-3.70164	0	
1.4947	-3.0445	-4.00841	0	
1.4953	0.625581	-3.39488	0	
1.4960	1.23031	-1.8815	0	
1.4967	2.75256	-1.26797	0	
1.4973	5.50512	-0.654434	0	
1.4980	5.79705	-0.347668	0	
1.4987	4.27481	-0.0409022	0	
1.4993	4.27481	0.879396	0	
1.5000	6.42264	3.31307	0	
1.5007	10.6974	4.23337	0	
1.5013	13.1372	1.77924	0	
1.5020	16.1817	0.57263	0	
1.5027	20.1437	3.00631	0	
1.5033	18.9343	4.84691	0	
1.5040	11.3022	3.00631	0	
1.5047	7.02736	1.47248	0	
1.5053	8.8624	0.879396	0	
1.5060	9.77992	-0.0409022	0	
1.5067	7.34015	-0.0409022	0	
1.5073	5.19233	0.57263	0	
1.5080	3.67008	-0.347668	0	
1.5087	1.23031	-0.654434	0	
1.5093	-0.917519	-0.961201	0	
1.5100	0.625581	-3.70164	0	
1.5107	3.35729	-5.54224	0	
1.5113	4.27481	-4.31518	0	
1.5120	2.43977	-3.08811	0	
1.5127	0.312791	-3.70164	0	
1.5133	2.43977	-4.00841	0	
1.5140	2.43977	-3.70164	0	
1.5147	-1.20946	-3.39488	0	
1.5153	-1.20946	-3.70164	0	
1.5160	2.43977	-3.70164	0	
1.5167	0.312791	-3.39488	0	
1.5173	-3.0445	-2.49503	0	
1.5180	-2.43977	-2.49503	0	
1.5187	-3.35729	-2.18827	0	
1.5193	-5.17147	-0.961201	0	
1.5200	-5.17147	-0.0409022	0	
1.5207	-6.40178	-0.654434	0	
1.5213	-7.00651	0.57263	0	
1.5220	-5.48426	4.54014	0	
1.5227	-4.87953	6.66705	0	
1.5233	-4.27481	6.05352	0	
1.5240	-1.20946	5.74675	0	
1.5247	-1.20946	3.61984	0	
1.5253	-3.96202	0.879396	0	
1.5260	-6.40178	1.16571	0	
1.5267	-6.40178	0.879396	0	
1.5273	-4.87953	-1.8815	0	
1.5280	-6.08899	-0.0409022	0	
1.5287	-9.15434	2.39278	0	
1.5293	-7.92403	-0.347668	0	
1.5300	-4.87953	-1.26797	0	
1.5307	-5.17147	-0.0409022	0	
1.5313	-4.27481	-2.18827	0	
1.5320	1.83504	-2.8018	0	
1.5327	7.02736	-2.18827	0	
1.5333	6.10984	-3.70164	0	
1.5340	5.19233	-2.8018	0	
1.5347	8.8624	-2.49503	0	
1.5353	11.5941	-4.62194	0	
1.5360	8.25767	-3.08811	0	
1.5367	5.19233	-0.347668	0	
1.5373	6.10984	-3.70164	0	
1.5380	4.27481	-3.70164	0	
1.5387	0.625581	-0.961201	0	
1.5393	-1.20946	-2.18827	0	
1.5400	-4.87953	-1.8815	0	
1.5407	-11.5941	1.77924	0	
1.5413	-14.0339	0.57263	0	
1.5420	-13.1164	-0.0409022	0	
1.5427	-13.1164	4.23337	0	
1.5433	-14.3258	3.61984	0	
1.5440	-14.9514	1.77924	0	
1.5447	-14.3258	3.92661	0	
1.5453	-13.7211	4.54014	0	
1.5460	-12.1988	2.69954	0	
1.5467	-7.92403	5.13322	0	
1.5473	-2.73171	8.20088	0	
1.5480	0.625581	8.20088	0	
1.5487	0.625581	6.05352	0	
1.5493	0.312791	2.39278	0	
1.5500	0.625581	-0.0409022	0	
1.5507	0.917519	-0.0409022	0	
1.5513	0.917519	-1.57473	0	
1.5520	0.625581	-2.18827	0	
1.5527	-0.291938	-0.961201	0	
1.5533	0.312791	-3.08811	0	
1.5540	1.23031	-5.54224	0	
1.5547	-1.20946	-3.70164	0	
1.5553	-4.87953	-1.57473	0	
1.5560	-3.64922	-0.654434	0	
1.5567	-2.43977	0.265864	0	
1.5573	-4.56674	-0.961201	0	
1.5580	-6.40178	-2.49503	0	
1.5587	-7.92403	-0.654434	0	
1.5593	-9.15434	0.265864	0	
1.5600	-5.17147	-1.8815	0	
1.5607	-0.291938	-1.57473	0	
1.5613	-1.20946	2.08601	0	
1.5620	-4.27481	3.31307	0	
1.5627	-3.96202	2.39278	0	
1.5633	-2.12698	1.77924	0	
1.5640	1.23031	-0.961201	0	
1.5647	6.42264	-1.8815	0	
1.5653	13.1372	0.879396	0	
1.5660	19.8518	1.47248	0	
1.5667	25.6488	-2.49503	0	
1.5673	28.3805	-2.49503	0	
1.5680	26.8583	0.57263	0	
1.5687	23.501	-0.347668	0	
1.5693	20.1437	-2.49503	0	
1.5700	15.577	-2.8018	0	
1.5707	9.77992	-4.31518	0	
1.5713	4.27481	-6.46254	0	
1.5720	1.5431	-5.84901	0	
1.5727	-1.20946	-3.70164	0	
1.5733	-3.0445	-3.70164	0	
1.5740	-2.73171	-4.31518	0	
1.5747	-2.73171	-3.70164	0	
1.5753	-4.56674	-4.31518	0	
1.5760	-6.08899	-6.15577	0	
1.5767	-6.71457	-4.92871	0	
1.5773	-6.08899	-1.26797	0	
1.5780	-4.87953	0.57263	0	
1.5787	-4.87953	0.879396	0	
1.5793	-4.27481	-0.0409022	0	
1.5800	-2.43977	0.57263	0	
1.5807	-4.27481	4.23337	0	
1.5813	-7.00651	6.36028	0	
1.5820	-3.96202	4.23337	0	
1.5827	-1.20946	5.13322	0	
1.5833	-1.81419	8.20088	0	
1.5840	-0.291938	5.43999	0	
1.5847	1.5431	1.16571	0	
1.5853	0	1.16571	0	
1.5860	0.625581	2.69954	0	
1.5867	3.06535	3.31307	0	
1.5873	2.43977	2.69954	0	
1.5880	2.43977	-0.0409022	0	
1.5887	4.90039	-0.347668	0	
1.5893	4.27481	-0.0409022	0	
1.5900	1.5431	-2.8018	0	
1.5907	3.06535	-4.62194	0	
1.5913	7.02736	-4.31518	0	
1.5920	7.02736	-4.62194	0	
1.5927	6.42264	-5.23548	0	
1.5933	6.71457	-4.92871	0	
1.5940	3.35729	-4.62194	0	
1.5947	-2.73171	-3.70164	0	
1.5953	-2.73171	-2.8018	0	
1.5960	2.43977	-2.8018	0	
1.5967	3.98287	-2.18827	0	
1.5973	2.14783	-3.39488	0	
1.5980	0.625581	-2.8018	0	
1.5987	0.312791	0.57263	0	
1.5993	0.625581	2.69954	0	
1.6000	-0.917519	3.31307	0	
1.6007	-3.64922	5.13322	0	
1.6013	-3.96202	5.74675	0	
1.6020	-1.81419	5.43999	0	
1.6027	-2.73171	7.28058	0	
1.6033	-7.3193	7.58735	0	
1.6040	-9.44628	5.43999	0	
1.6047	-7.00651	3.61984	0	
1.6053	-5.79705	1.77924	0	
1.6060	-7.61124	1.16571	0	
1.6067	-6.71457	2.08601	0	
1.6073	-2.73171	2.39278	0	
1.6080	-2.73171	2.08601	0	
1.6087	-7.61124	1.47248	0	
1.6093	-9.15434	-1.8815	0	
1.6100	-4.87953	-4.62194	0	
1.6107	-2.73171	-5.23548	0	
1.6113	-3.96202	-4.62194	0	
1.6120	-2.43977	-3.70164	0	
1.6127	1.23031	-3.08811	0	
1.6133	2.14783	-2.8018	0	
1.6140	0.917519	-2.8018	0	
1.6147	1.23031	-2.8018	0	
1.6153	3.06535	-2.8018	0	
1.6160	2.43977	-1.26797	0	
1.6167	0	0.57263	0	
1.6173	-1.20946	1.77924	0	
1.6180	-0.291938	3.31307	0	
1.6187	-0.291938	2.39278	0	
1.6193	-0.604729	1.16571	0	
1.6200	-0.917519	3.00631	0	
1.6207	-1.52225	5.13322	0	
1.6213	-2.73171	5.43999	0	
1.6220	-2.73171	5.74675	0	
1.6227	-0.291938	5.43999	0	
1.6233	1.83504	4.54014	0	
1.6240	0.625581	3.92661	0	
1.6247	-1.52225	3.61984	0	
1.6253	-1.20946	3.00631	0	
1.6260	-1.52225	1.77924	0	
1.6267	-2.12698	0.265864	0	
1.6273	0.312791	0.265864	0	
1.6280	1.23031	-0.0409022	0	
1.6287	-1.81419	-0.961201	0	
1.6293	-2.43977	-0.961201	0	
1.6300	-1.81419	-0.347668	0	
1.6307	-2.43977	-1.8815	0	
1.6313	-1.81419	-2.49503	0	
1.6320	-0.604729	-3.08811	0	
1.6327	-0.604729	-6.46254	0	
1.6333	2.14783	-8.89622	0	
1.6340	5.19233	-7.05562	0	
1.6347	4.27481	-4.92871	0	
1.6353	4.90039	-5.54224	0	
1.6360	7.34015	-6.46254	0	
1.6367	6.42264	-4.62194	0	
1.6373	5.19233	-1.8815	0	
1.6380	6.10984	-1.8815	0	
1.6387	5.19233	-2.18827	0	
1.6393	3.67008	-2.18827	0	
1.6400	3.06535	-2.49503	0	
1.6407	-0.291938	-0.654434	0	
1.6413	-3.96202	2.69954	0	
1.6420	-2.43977	3.00631	0	
1.6427	-0.291938	1.77924	0	
1.6433	0.625581	1.77924	0	
1.6440	0.625581	1.77924	0	
1.6447	0.625581	3.00631	0	
1.6453	1.83504	5.43999	0	
1.6460	2.43977	4.84691	0	
1.6467	-0.291938	2.39278	0	
1.6473	-0.917519	0.57263	0	
1.6480	1.23031	-0.961201	0	
1.6487	1.23031	-0.961201	0	
1.6493	2.14783	-0.0409022	0	
1.6500	6.10984	-2.49503	0	
1.6507	7.94488	-5.54224	0	
1.6513	7.02736	-5.54224	0	
1.6520	4.27481	-4.00841	0	
1.6527	-0.291938	-3.70164	0	
1.6533	-5.17147	-4.62194	0	
1.6540	-5.48426	-4.62194	0	
1.6547	-4.87953	-2.49503	0	
1.6553	-6.08899	0.57263	0	
1.6560	-7.61124	-0.0409022	0	
1.6567	-7.61124	-0.654434	0	
1.6573	-7.92403	-0.0409022	0	
1.6580	-8.52876	-1.8815	0	
1.6587	-8.84155	-3.70164	0	
1.6593	-8.52876	-1.57473	0	
1.6600	-8.52876	1.77924	0	
1.6607	-9.15434	4.84691	0	
1.6613	-7.61124	4.84691	0	
1.6620	-6.08899	2.69954	0	
1.6627	-4.87953	4.23337	0	
1.6633	-1.52225	7.28058	0	
1.6640	-0.291938	4.54014	0	
1.6647	-0.917519	0.879396	0	
1.6653	1.5431	1.77924	0	
1.6660	4.5876	1.77924	0	
1.6667	5.50512	1.16571	0	
1.6673	7.02736	3.31307	0	
1.6680	8.25767	3.00631	0	
1.6687	6.42264	-0.0409022	0	
1.6693	7.02736	-1.57473	0	
1.6700	9.77992	-3.70164	0	
1.6707	10.6974	-6.46254	0	
1.6713	10.0719	-5.84901	0	
1.6720	7.94488	-5.54224	0	
1.6727	4.27481	-6.46254	0	
1.6733	3.98287	-3.39488	0	
1.6740	4.27481	-0.961201	0	
1.6747	2.43977	-3.70164	0	
1.6753	1.23031	-4.92871	0	
1.6760	0.917519	-2.49503	0	
1.6767	-0.917519	-1.26797	0	
1.6773	-3.0445	-1.8815	0	
1.6780	-3.64922	-1.26797	0	
1.6787	-3.0445	-1.57473	0	
1.6793	-1.20946	-1.8815	0	
1.6800	0	0.57263	0	
1.6807	1.23031	1.77924	0	
1.6813	3.06535	1.16571	0	
1.6820	3.67008	3.61984	0	
1.6827	1.83504	6.36028	0	
1.6833	0.312791	5.74675	0	
1.6840	0.625581	4.54014	0	
1.6847	0.917519	2.69954	0	
1.6853	-2.43977	1.77924	0	
1.6860	-8.52876	2.69954	0	
1.6867	-10.0719	2.69954	0	
1.6873	-4.87953	-0.0409022	0	
1.6880	-1.20946	-0.961201	0	
1.6887	-3.96202	-1.8815	0	
1.6893	-3.96202	-3.39488	0	
1.6900	-0.917519	-0.961201	0	
1.6907	-3.0445	1.77924	0	
1.6913	-8.52876	-0.0409022	0	
1.6920	-8.52876	-1.8815	0	
1.6927	-4.87953	-2.49503	0	
1.6933	-3.96202	-3.39488	0	
1.6940	-3.64922	-2.18827	0	
1.6947	-2.73171	0.265864	0	
1.6953	-2.73171	0.265864	0	
1.6960	-3.0445	-0.347668	0	
1.6967	-2.12698	-0.0409022	0	
1.6973	-1.81419	-0.961201	0	
1.6980	-3.0445	-1.8815	0	
1.6987	-5.17147	-0.347668	0	
1.6993	-6.71457	-0.347668	0	
1.7000	-5.79705	-0.961201	0	
1.7007	-4.27481	-0.961201	0	
1.7013	-3.0445	-0.0409022	0	
1.7020	-0.291938	0.879396	0	
1.7027	1.23031	1.16571	0	
1.7033	1.5431	1.77924	0	
1.7040	3.67008	2.69954	0	
1.7047	7.94488	1.77924	0	
1.7053	8.25767	-0.0409022	0	
1.7060	6.71457	-0.0409022	0	
1.7067	7.94488	1.77924	0	
1.7073	8.25767	3.00631	0	
1.7080	7.63209	3.00631	0	
1.7087	8.25767	0.879396	0	
1.7093	8.8624	-1.8815	0	
1.7100	8.25767	-2.8018	0	
1.7107	9.46713	-3.70164	0	
1.7113	8.8624	-4.92871	0	
1.7120	4.5876	-5.54224	0	
1.7127	2.43977	-5.84901	0	
1.7133	2.43977	-5.23548	0	
1.7140	0.312791	-3.08811	0	
1.7147	-0.604729	-0.961201	0	
1.7153	-0.291938	-0.654434	0	
1.7160	-0.604729	0.265864	0	
1.7167	0.312791	1.16571	0	
1.7173	0.625581	-0.0409022	0	
1.7180	-2.73171	-0.654434	0	
1.7187	-6.08899	1.77924	0	
1.7193	-9.44628	1.47248	0	
1.7200	-14.9514	-0.347668	0	
1.7207	-17.6831	1.77924	0	
1.7213	-17.0784	5.43999	0	
1.7220	-18.6006	6.66705	0	
1.7227	-19.5181	6.66705	0	
1.7233	-18.3087	6.66705	0	
1.7240	-16.7864	5.43999	0	
1.7247	-14.9514	4.54014	0	
1.7253	-12.1988	4.54014	0	
1.7260	-10.3638	4.54014	0	
1.7267	-7.61124	6.05352	0	
1.7273	-4.27481	8.50765	0	
1.7280	-2.43977	7.89412	0	
1.7287	-0.604729	3.92661	0	
1.7293	3.06535	0.879396	0	
1.7300	5.50512	-1.26797	0	
1.7307	5.79705	-2.18827	0	
1.7313	7.94488	-1.57473	0	
1.7320	11.3022	-2.49503	0	
1.7327	10.6974	-3.70164	0	
1.7333	6.71457	-2.8018	0	
1.7340	5.50512	-1.57473	0	
1.7347	7.63209	-4.31518	0	
1.7353	8.54961	-5.54224	0	
1.7360	6.10984	-2.8018	0	
1.7367	2.43977	-1.8815	0	
1.7373	0.312791	-0.961201	0	
1.7380	-1.20946	1.16571	0	
1.7387	-3.64922	0.265864	0	
1.7393	-4.87953	-1.57473	0	
1.7400	-5.17147	0.57263	0	
1.7407	-7.3193	1.16571	0	
1.7413	-7.61124	-0.961201	0	
1.7420	-4.27481	-0.0409022	0	
1.7427	-3.35729	2.39278	0	
1.7433	-7.3193	1.77924	0	
1.7440	-7.3193	-0.347668	0	
1.7447	-3.64922	-2.49503	0	
1.7453	-4.87953	-2.18827	0	
1.7460	-6.71457	0.57263	0	
1.7467	-2.12698	1.16571	0	
1.7473	3.35729	-0.0409022	0	
1.7480	3.35729	0.57263	0	
1.7487	2.43977	0.879396	0	
1.7493	2.75256	-2.49503	0	
1.7500	2.43977	-3.70164	0	
1.7507	1.5431	-3.08811	0	
1.7513	3.98287	-3.70164	0	
1.7520	7.94488	-3.70164	0	
1.7527	9.77992	-2.8018	0	
1.7533	9.77992	-5.23548	0	
1.7540	8.54961	-8.58945	0	
1.7547	6.71457	-5.54224	0	
1.7553	9.77992	-3.39488	0	
1.7560	10.9894	-4.00841	0	
1.7567	2.43977	-2.49503	0	
1.7573	-4.87953	-0.347668	0	
1.7580	-3.35729	-2.18827	0	
1.7587	-3.0445	-1.8815	0	
1.7593	-4.87953	0.57263	0	
1.7600	-2.12698	-0.654434	0	
1.7607	1.5431	0.879396	0	
1.7613	3.67008	4.54014	0	
1.7620	7.02736	1.77924	0	
1.7627	7.34015	-0.0409022	0	
1.7633	6.71457	5.13322	0	
1.7640	11.5941	4.54014	0	
1.7647	17.0992	-1.57473	0	
1.7653	17.0992	-0.654434	0	
1.7660	13.4291	2.39278	0	
1.7667	8.8624	0.57263	0	
1.7673	5.79705	-0.0409022	0	
1.7680	3.35729	-0.0409022	0	
1.7687	1.83504	-3.08811	0	
1.7693	2.75256	-3.70164	0	
1.7700	4.27481	-2.8018	0	
1.7707	0.625581	-4.00841	0	
1.7713	-2.73171	-4.00841	0	
1.7720	-2.12698	-1.57473	0	
1.7727	-3.96202	-2.18827	0	
1.7733	-5.79705	-4.00841	0	
1.7740	-3.96202	-3.08811	0	
1.7747	-2.12698	-1.57473	0	
1.7753	-0.291938	-3.39488	0	
1.7760	3.06535	-5.54224	0	
1.7767	5.19233	-5.23548	0	
1.7773	4.27481	-4.62194	0	
1.7780	1.83504	-3.70164	0	
1.7787	0.917519	-1.26797	0	
1.7793	3.06535	0.879396	0	
1.7800	2.43977	0.879396	0	
1.7807	-2.12698	0.57263	0	
1.7813	-3.96202	1.16571	0	
1.7820	-3.96202	2.39278	0	
1.7827	-3.96202	3.92661	0	
1.7833	-2.12698	4.54014	0	
1.7840	-0.291938	5.13322	0	
1.7847	-2.43977	6.36028	0	
1.7853	-3.0445	4.84691	0	
1.7860	-1.52225	3.31307	0	
1.7867	-2.12698	6.05352	0	
1.7873	-3.0445	6.97382	0	
1.7880	-3.0445	3.00631	0	
1.7887	-4.87953	1.77924	0	
1.7893	-6.08899	2.69954	0	
1.7900	-7.61124	1.77924	0	
1.7907	-10.6766	0.57263	0	
1.7913	-10.3638	-1.57473	0	
1.7920	-8.84155	-3.70164	0	
1.7927	-9.75907	-1.26797	0	
1.7933	-8.84155	-0.347668	0	
1.7940	-5.48426	-2.8018	0	
1.7947	-5.48426	-1.26797	0	
1.7953	-6.40178	2.39278	0	
1.7960	-4.87953	0.879396	0	
1.7967	-4.27481	-0.0409022	0	
1.7973	-2.12698	0.879396	0	
1.7980	1.83504	0.265864	0	
1.7987	1.83504	0.57263	0	
1.7993	1.83504	1.47248	0	
1.8000	7.02736	0.879396	0	
1.8007	7.94488	1.47248	0	
1.8013	3.35729	3.61984	0	
1.8020	3.35729	3.00631	0	
1.8027	5.19233	2.39278	0	
1.8033	4.5876	3.61984	0	
1.8040	5.19233	1.47248	0	
1.8047	5.19233	-2.49503	0	
1.8053	1.5431	-0.961201	0	
1.8060	-0.291938	4.54014	0	
1.8067	-0.291938	5.74675	0	
1.8073	-2.43977	1.77924	0	
1.8080	-3.64922	-0.347668	0	
1.8087	-4.87953	-0.961201	0	
1.8093	-6.71457	-2.8018	0	
1.8100	-4.56674	-3.08811	0	
1.8107	-2.43977	-0.961201	0	
1.8113	-5.79705	-1.8815	0	
1.8120	-6.08899	-3.70164	0	
1.8127	-1.20946	-3.70164	0	
1.8133	-0.917519	-6.76931	0	
1.8140	-3.0445	-7.05562	0	
1.8147	-1.81419	-2.8018	0	
1.8153	-2.12698	-3.08811	0	
1.8160	-4.56674	-6.76931	0	
1.8167	-5.79705	-4.31518	0	
1.8173	-6.40178	-1.26797	0	
1.8180	-5.17147	-2.8018	0	
1.8187	-2.12698	-2.18827	0	
1.8193	-0.291938	-0.0409022	0	
1.8200	1.5431	0.879396	0	
1.8207	2.43977	4.23337	0	
1.8213	0.625581	6.36028	0	
1.8220	-2.12698	4.23337	0	
1.8227	-0.917519	3.31307	0	
1.8233	-0.291938	3.31307	0	
1.8240	-0.917519	1.77924	0	
1.8247	1.5431	2.39278	0	
1.8253	5.19233	3.31307	0	
1.8260	6.10984	-0.0409022	0	
1.8267	6.10984	-0.347668	0	
1.8273	6.42264	2.08601	0	
1.8280	4.27481	-0.654434	0	
1.8287	2.14783	-3.08811	0	
1.8293	5.79705	0.57263	0	
1.8300	10.9894	-0.347668	0	
1.8307	9.46713	-5.54224	0	
1.8313	6.42264	-6.15577	0	
1.8320	8.25767	-5.54224	0	
1.8327	11.5941	-6.46254	0	
1.8333	13.4291	-4.62194	0	
1.8340	14.3467	-5.54224	0	
1.8347	13.1372	-10.1233	0	
1.8353	13.7419	-10.43	0	
1.8360	15.577	-8.58945	0	
1.8367	15.2642	-7.97592	0	
1.8373	15.577	-6.46254	0	
1.8380	18.0167	-5.84901	0	
1.8387	16.7864	-6.46254	0	
1.8393	14.9514	-4.92871	0	
1.8400	16.1817	-5.54224	0	
1.8407	13.4291	-4.92871	0	
1.8413	4.27481	0.265864	0	
1.8420	-3.64922	4.23337	0	
1.8427	-7.92403	4.23337	0	
1.8433	-11.2813	5.74675	0	
1.8440	-14.9514	6.36028	0	
1.8447	-20.7484	4.84691	0	
1.8453	-25.9408	6.66705	0	
1.8460	-28.3805	10.021	0	
1.8467	-30.1947	9.71426	0	
1.8473	-32.0298	8.50765	0	
1.8480	-33.552	8.81441	0	
1.8487	-31.425	7.58735	0	
1.8493	-23.501	4.84691	0	
1.8500	-16.7864	1.77924	0	
1.8507	-14.9514	0.879396	0	
1.8513	-13.4291	0.265864	0	
1.8520	-9.44628	-0.961201	0	
1.8527	-7.00651	-1.8815	0	
1.8533	-5.79705	0.265864	0	
1.8540	-4.87953	1.77924	0	
1.8547	-3.0445	1.16571	0	
1.8553	1.83504	0.57263	0	
1.8560	5.79705	-0.0409022	0	
1.8567	5.79705	-1.8815	0	
1.8573	6.10984	-1.57473	0	
1.8580	7.02736	-0.0409022	0	
1.8587	5.19233	-0.0409022	0	
1.8593	3.35729	0.879396	0	
1.8600	4.5876	2.08601	0	
1.8607	2.43977	1.77924	0	
1.8613	-2.43977	1.16571	0	
1.8620	-4.27481	3.61984	0	
1.8627	-6.71457	4.54014	0	
1.8633	-9.44628	1.77924	0	
1.8640	-7.61124	0.265864	0	
1.8647	-4.56674	3.00631	0	
1.8653	-3.96202	3.92661	0	
1.8660	-2.12698	1.16571	0	
1.8667	0.312791	0.265864	0	
1.8673	-1.81419	0.265864	0	
1.8680	-3.96202	-3.08811	0	
1.8687	-3.64922	-4.31518	0	
1.8693	-3.96202	-2.49503	0	
1.8700	-4.87953	-2.49503	0	
1.8707	-0.604729	-3.70164	0	
1.8713	3.06535	-2.49503	0	
1.8720	2.14783	-2.49503	0	
1.8727	1.5431	-3.70164	0	
1.8733	6.10984	-1.57473	0	
1.8740	9.15434	-0.961201	0	
1.8747	6.42264	-5.54224	0	
1.8753	7.02736	-7.36239	0	
1.8760	13.4291	-3.70164	0	
1.8767	13.7419	-0.347668	0	
1.8773	8.25767	-0.347668	0	
1.8780	7.02736	-3.70164	0	
1.8787	8.8624	-4.31518	0	
1.8793	7.94488	-0.0409022	0	
1.8800	7.34015	1.77924	0	
1.8807	6.10984	-0.0409022	0	
1.8813	2.43977	0.879396	0	
1.8820	0.917519	3.00631	0	
1.8827	-0.291938	3.61984	0	
1.8833	-3.96202	3.61984	0	
1.8840	-3.96202	3.92661	0	
1.8847	-0.604729	3.00631	0	
1.8853	-1.81419	2.69954	0	
1.8860	-2.73171	2.08601	0	
1.8867	-1.20946	0.265864	0	
1.8873	-2.12698	-0.347668	0	
1.8880	-3.0445	-0.0409022	0	
1.8887	-1.20946	-0.961201	0	
1.8893	0.312791	-1.8815	0	
1.8900	2.43977	-0.654434	0	
1.8907	5.19233	0.57263	0	
1.8913	4.90039	-2.18827	0	
1.8920	6.10984	-6.15577	0	
1.8927	9.46713	-6.76931	0	
1.8933	8.25767	-4.62194	0	
1.8940	7.94488	-3.08811	0	
1.8947	8.54961	-4.00841	0	
1.8953	3.67008	-5.84901	0	
1.8960	-0.291938	-5.54224	0	
1.8967	1.83504	-3.70164	0	
1.8973	1.23031	-4.00841	0	
1.8980	-1.20946	-4.92871	0	
1.8987	0.625581	-4.62194	0	
1.8993	1.5431	-2.49503	0	
1.9000	-0.604729	0.879396	0	
1.9007	-0.291938	1.77924	0	
1.9013	0.625581	2.69954	0	
1.9020	-1.20946	5.13322	0	
1.9027	-1.81419	6.36028	0	
1.9033	-1.20946	3.61984	0	
1.9040	-0.917519	3.61984	0	
1.9047	-0.291938	4.84691	0	
1.9053	0.312791	2.69954	0	
1.9060	0.625581	-0.0409022	0	
1.9067	2.43977	2.08601	0	
1.9073	3.35729	5.43999	0	
1.9080	2.43977	4.54014	0	
1.9087	1.83504	2.69954	0	
1.9093	0.312791	2.39278	0	
1.9100	-2.12698	-0.347668	0	
1.9107	-3.35729	-3.70164	0	
1.9113	-3.0445	-3.70164	0	
1.9120	-3.0445	-3.08811	0	
1.9127	-3.0445	-3.70164	0	
1.9133	-4.56674	-3.39488	0	
1.9140	-7.61124	-2.18827	0	
1.9147	-8.52876	-4.31518	0	
1.9153	-7.00651	-5.84901	0	
1.9160	-6.40178	-3.70164	0	
1.9167	-3.35729	-0.347668	0	
1.9173	1.23031	-0.347668	0	
1.9180	3.06535	-2.8018	0	
1.9187	3.06535	-2.8018	0	
1.9193	4.27481	-0.654434	0	
1.9200	5.79705	1.16571	0	
1.9207	6.71457	0.879396	0	
1.9213	7.63209	0.57263	0	
1.9220	7.02736	2.69954	0	
1.9227	6.10984	6.97382	0	
1.9233	7.02736	6.36028	0	
1.9240	9.77992	2.08601	0	
1.9247	11.5941	1.47248	0	
1.9253	12.2197	1.77924	0	
1.9260	13.7419	-1.57473	0	
1.9267	14.3467	-3.70164	0	
1.9273	11.9069	-3.39488	0	
1.9280	11.5941	-4.00841	0	
1.9287	10.6974	-2.8018	0	
1.9293	4.90039	-0.0409022	0	
1.9300	-1.81419	-1.26797	0	
1.9307	-3.96202	-4.00841	0	
1.9313	-5.79705	-3.39488	0	
1.9320	-8.84155	-1.8815	0	
1.9327	-8.52876	-3.70164	0	
1.9333	-8.52876	-6.46254	0	
1.9340	-13.4291	-5.23548	0	
1.9347	-17.6831	-2.49503	0	
1.9353	-18.6006	-1.26797	0	
1.9360	-20.4357	-0.0409022	0	
1.9367	-22.2707	2.69954	0	
1.9373	-20.7484	3.31307	0	
1.9380	-18.6006	3.31307	0	
1.9387	-17.9959	4.54014	0	
1.9393	-17.9959	4.54014	0	
1.9400	-14.9514	3.31307	0	
1.9407	-8.52876	5.43999	0	
1.9413	-5.79705	8.50765	0	
1.9420	-10.3638	8.20088	0	
1.9427	-13.1164	7.28058	0	
1.9433	-10.3638	8.20088	0	
1.9440	-9.44628	8.81441	0	
1.9447	-8.84155	7.28058	0	
1.9453	-6.40178	4.54014	0	
1.9460	-6.71457	1.47248	0	
1.9467	-7.3193	0.879396	0	
1.9473	-3.35729	1.77924	0	
1.9480	-0.917519	0.265864	0	
1.9487	0.312791	-2.18827	0	
1.9493	5.19233	-2.8018	0	
1.9500	11.5941	-4.00841	0	
1.9507	13.4291	-6.46254	0	
1.9513	11.5941	-6.15577	0	
1.9520	9.77992	-4.00841	0	
1.9527	10.0719	-3.08811	0	
1.9533	10.6974	-4.00841	0	
1.9540	9.46713	-5.54224	0	
1.9547	7.63209	-4.62194	0	
1.9553	6.10984	-3.70164	0	
1.9560	3.06535	-4.31518	0	
1.9567	2.43977	-3.08811	0	
1.9573	4.27481	-3.08811	0	
1.9580	3.67008	-5.54224	0	
1.9587	1.83504	-4.62194	0	
1.9593	2.75256	-0.347668	0	
1.9600	6.10984	0.265864	0	
1.9607	8.54961	-0.0409022	0	
1.9613	10.6974	1.77924	0	
1.9620	14.3467	1.77924	0	
1.9627	17.704	0.879396	0	
1.9633	18.0167	0.879396	0	
1.9640	15.2642	-0.0409022	0	
1.9647	11.3022	-0.654434	0	
1.9653	6.71457	0.879396	0	
1.9660	2.43977	1.77924	0	
1.9667	1.5431	1.77924	0	
1.9673	0.312791	1.77924	0	
1.9680	-3.64922	3.00631	0	
1.9687	-7.61124	4.23337	0	
1.9693	-9.15434	4.23337	0	
1.9700	-10.3638	2.08601	0	
1.9707	-11.2813	-0.654434	0	
1.9713	-10.3638	-1.8815	0	
1.9720	-10.0719	-1.8815	0	
1.9727	-9.44628	-1.8815	0	
1.9733	-5.17147	-1.8815	0	
1.9740	-0.291938	-1.57473	0	
1.9747	0.625581	-2.8018	0	
1.9753	1.23031	-3.70164	0	
1.9760	2.43977	-2.49503	0	
1.9767	1.83504	-1.57473	0	
1.9773	2.14783	-1.8815	0	
1.9780	4.27481	-0.961201	0	
1.9787	4.27481	-0.0409022	0	
1.9793	4.27481	1.16571	0	
1.9800	7.94488	1.77924	0	
1.9807	7.94488	2.39278	0	
1.9813	3.35729	2.69954	0	
1.9820	4.5876	3.00631	0	
1.9827	7.94488	3.00631	0	
1.9833	5.79705	2.69954	0	
1.9840	3.06535	2.39278	0	
1.9847	3.06535	1.77924	0	
1.9853	1.5431	-0.0409022	0	
1.9860	-0.917519	-0.0409022	0	
1.9867	-1.52225	2.39278	0	
1.9873	-3.64922	2.39278	0	
1.9880	-5.79705	-0.654434	0	
1.9887	-6.08899	-1.26797	0	
1.9893	-7.3193	-0.961201	0	
1.9900	-7.61124	-2.8018	0	
1.9907	-5.17147	-3.70164	0	
1.9913	-6.08899	-2.18827	0	
1.9920	-9.75907	-1.57473	0	
1.9927	-8.52876	-0.961201	0	
1.9933	-5.48426	-0.347668	0	
1.9940	-5.79705	-1.8815	0	
1.9947	-3.96202	-3.08811	0	
1.9953	0.625581	-2.18827	0	
1.9960	1.5431	-0.654434	0	
1.9967	0.917519	0.879396	0	
1.9973	0.312791	0.57263	0	
1.9980	-0.291938	-1.57473	0	
1.9987	2.43977	-1.8815	0	
1.9993	5.19233	-1.57473	0	
2.0000	3.67008	-2.49503	0	
2.0007	4.27481	0.879396	0	
2.0013	6.71457	4.84691	0	
2.0020	3.98287	1.77924	0	
2.0027	1.83504	-0.654434	0	
2.0033	3.98287	3.00631	0	
2.0040	3.35729	3.92661	0	
2.0047	1.23031	1.16571	0	
2.0053	1.83504	0.879396	0	
2.0060	1.83504	0.879396	0	
2.0067	-0.291938	-0.0409022	0	
2.0073	-1.20946	-0.0409022	0	
2.0080	-2.43977	0.265864	0	
2.0087	-3.0445	-0.0409022	0	
2.0093	-2.43977	1.77924	0	
2.0100	-3.64922	0.879396	0	
2.0107	-4.87953	-3.39488	0	
2.0113	-4.27481	-3.70164	0	
2.0120	-3.35729	-2.18827	0	
2.0127	-3.0445	-3.70164	0	
2.0133	-3.64922	-4.31518	0	
2.0140	-4.56674	-3.70164	0	
2.0147	-3.64922	-5.84901	0	
2.0153	-1.20946	-6.46254	0	
2.0160	-1.20946	-4.00841	0	
2.0167	-3.0445	-3.70164	0	
2.0173	-3.96202	-3.70164	0	
2.0180	-3.35729	-1.8815	0	
2.0187	-4.27481	0.57263	0	
2.0193	-6.71457	-0.0409022	0	
2.0200	-7.00651	-0.961201	0	
2.0207	-4.56674	1.47248	0	
2.0213	-4.27481	4.84691	0	
2.0220	-7.00651	5.43999	0	
2.0227	-7.61124	4.23337	0	
2.0233	-7.3193	4.54014	0	
2.0240	-10.0719	3.00631	0	
2.0247	-10.3638	-0.0409022	0	
2.0253	-7.3193	0.879396	0	
2.0260	-5.79705	3.00631	0	
2.0267	-3.96202	2.08601	0	
2.0273	-1.20946	2.39278	0	
2.0280	-1.52225	2.39278	0	
2.0287	-2.43977	1.47248	0	
2.0293	-2.73171	1.77924	0	
2.0300	-4.87953	1.77924	0	
2.0307	-4.87953	0.57263	0	
2.0313	-0.291938	1.16571	0	
2.0320	0.917519	-0.654434	0	
2.0327	0.917519	-4.62194	0	
2.0333	4.90039	-4.62194	0	
2.0340	6.42264	-2.8018	0	
2.0347	3.35729	-2.8018	0	
2.0353	2.75256	-2.8018	0	
2.0360	3.06535	-1.8815	0	
2.0367	3.06535	-1.8815	0	
2.0373	4.27481	-0.961201	0	
2.0380	5.50512	-0.0409022	0	
2.0387	6.10984	-0.0409022	0	
2.0393	6.10984	1.16571	0	
2.0400	0.625581	0.879396	0	
2.0407	-5.17147	-0.654434	0	
2.0413	-4.87953	1.47248	0	
2.0420	-5.79705	2.69954	0	
2.0427	-8.52876	1.47248	0	
2.0433	-6.71457	3.00631	0	
2.0440	-5.48426	6.05352	0	
2.0447	-9.15434	6.05352	0	
2.0453	-8.52876	4.23337	0	
2.0460	-4.27481	1.16571	0	
2.0467	-2.12698	-0.961201	0	
2.0473	2.14783	0.57263	0	
2.0480	6.10984	-0.961201	0	
2.0487	3.06535	-3.70164	0	
2.0493	-2.12698	-1.8815	0	
2.0500	-3.35729	0.265864	0	
2.0507	-2.73171	-2.8018	0	
2.0513	-1.52225	-3.70164	0	
2.0520	-0.917519	-2.8018	0	
2.0527	-1.20946	-4.00841	0	
2.0533	-0.604729	-3.70164	0	
2.0540	1.5431	-0.961201	0	
2.0547	0.625581	-2.8018	0	
2.0553	-0.917519	-5.23548	0	
2.0560	2.43977	-4.00841	0	
2.0567	6.10984	-3.08811	0	
2.0573	2.43977	-3.39488	0	
2.0580	-2.12698	-2.8018	0	
2.0587	-0.604729	-3.39488	0	
2.0593	1.5431	-3.39488	0	
2.0600	1.23031	-0.0409022	0	
2.0607	3.35729	3.00631	0	
2.0613	7.02736	3.31307	0	
2.0620	6.42264	3.31307	0	
2.0627	6.10984	3.31307	0	
2.0633	9.77992	3.31307	0	
2.0640	11.9069	4.23337	0	
2.0647	9.46713	3.92661	0	
2.0653	6.10984	1.47248	0	
2.0660	5.50512	0.265864	0	
2.0667	7.34015	1.47248	0	
2.0673	7.63209	1.77924	0	
2.0680	6.10984	2.69954	0	
2.0687	3.67008	1.77924	0	
2.0693	0.625581	-1.26797	0	
2.0700	-1.20946	-2.8018	0	
2.0707	-2.12698	-2.8018	0	
2.0713	-4.87953	-4.62194	0	
2.0720	-5.79705	-5.54224	0	
2.0727	-1.52225	-4.00841	0	
2.0733	0	-5.23548	0	
2.0740	-2.43977	-5.84901	0	
2.0747	-2.43977	-3.70164	0	
2.0753	0	-1.26797	0	
2.0760	1.83504	-0.0409022	0	
2.0767	2.43977	0.879396	0	
2.0773	3.35729	1.16571	0	
2.0780	4.27481	-0.0409022	0	
2.0787	5.50512	-2.49503	0	
2.0793	5.19233	-1.57473	0	
2.0800	4.5876	2.08601	0	
2.0807	3.06535	0.57263	0	
2.0813	2.43977	-3.70164	0	
2.0820	4.27481	-0.961201	0	
2.0827	4.90039	3.00631	0	
2.0833	2.75256	1.77924	0	
2.0840	1.5431	2.08601	0	
2.0847	-0.604729	4.54014	0	
2.0853	-3.96202	2.08601	0	
2.0860	-4.87953	-0.347668	0	
2.0867	-3.96202	-0.961201	0	
2.0873	-2.73171	-3.08811	0	
2.0880	-0.291938	-4.00841	0	
2.0887	-0.291938	-1.57473	0	
2.0893	-2.12698	-1.8815	0	
2.0900	-0.291938	-4.62194	0	
2.0907	1.5431	-4.92871	0	
2.0913	0.625581	-4.31518	0	
2.0920	2.43977	-4.62194	0	
2.0927	4.5876	-2.8018	0	
2.0933	0	-1.26797	0	
2.0940	-2.43977	-2.8018	0	
2.0947	0.625581	-3.70164	0	
2.0953	1.5431	-2.18827	0	
2.0960	-1.20946	-1.8815	0	
2.0967	-3.96202	-0.0409022	0	
2.0973	-7.00651	0.879396	0	
2.0980	-7.00651	-1.8815	0	
2.0987	-6.40178	-1.57473	0	
2.0993	-9.75907	2.39278	0	
2.1000	-12.8036	3.61984	0	
2.1007	-10.0719	3.92661	0	
2.1013	-5.48426	5.43999	0	
2.1020	-2.73171	3.61984	0	
2.1027	-1.81419	3.61984	0	
2.1033	-0.917519	7.28058	0	
2.1040	0.625581	7.28058	0	
2.1047	1.23031	2.69954	0	
2.1053	-0.917519	1.16571	0	
2.1060	-3.35729	0.57263	0	
2.1067	-3.64922	-0.961201	0	
2.1073	-1.20946	-1.57473	0	
2.1080	-1.20946	-1.8815	0	
2.1087	-4.87953	-1.57473	0	
2.1093	-6.71457	-0.654434	0	
2.1100	-5.79705	-0.961201	0	
2.1107	-9.15434	-1.8815	0	
2.1113	-12.1988	-1.26797	0	
2.1120	-9.44628	-0.347668	0	
2.1127	-7.61124	-0.654434	0	
2.1133	-8.52876	-2.49503	0	
2.1140	-4.87953	-4.31518	0	
2.1147	-2.12698	-4.62194	0	
2.1153	-3.96202	-2.49503	0	
2.1160	-3.64922	-0.347668	0	
2.1167	1.23031	-0.961201	0	
2.1173	3.06535	-2.8018	0	
2.1180	1.83504	-0.961201	0	
2.1187	2.43977	2.69954	0	
2.1193	3.06535	2.39278	0	
2.1200	1.83504	-1.57473	0	
2.1207	1.23031	-1.8815	0	
2.1213	5.19233	3.00631	0	
2.1220	7.94488	5.43999	0	
2.1227	4.5876	3.61984	0	
2.1233	3.35729	2.39278	0	
2.1240	6.10984	2.69954	0	
2.1247	5.79705	1.77924	0	
2.1253	3.67008	0.879396	0	
2.1260	3.35729	1.77924	0	
2.1267	2.43977	2.08601	0	
2.1273	1.5431	0.265864	0	
2.1280	3.06535	-0.0409022	0	
2.1287	2.43977	0.879396	0	
2.1293	-0.291938	-2.49503	0	
2.1300	-0.291938	-6.46254	0	
2.1307	0.917519	-3.70164	0	
2.1313	-0.291938	-0.961201	0	
2.1320	-1.81419	-5.54224	0	
2.1327	-0.604729	-8.28269	0	
2.1333	0.312791	-4.00841	0	
2.1340	0.625581	-3.70164	0	
2.1347	2.43977	-4.62194	0	
2.1353	4.5876	-2.49503	0	
2.1360	7.94488	-0.961201	0	
2.1367	13.7419	-3.39488	0	
2.1373	16.1817	-4.00841	0	
2.1380	10.9894	-2.18827	0	
2.1387	3.98287	0.57263	0	
2.1393	1.23031	1.77924	0	
2.1400	-0.917519	1.77924	0	
2.1407	-4.56674	4.54014	0	
2.1413	-6.71457	7.58735	0	
2.1420	-5.79705	6.66705	0	
2.1427	-5.48426	4.84691	0	
2.1433	-5.48426	4.54014	0	
2.1440	-4.27481	3.00631	0	
2.1447	-2.73171	2.39278	0	
2.1453	-3.0445	3.61984	0	
2.1460	-4.56674	2.69954	0	
2.1467	-5.17147	1.77924	0	
2.1473	-3.96202	3.31307	0	
2.1480	0	2.08601	0	
2.1487	2.43977	-0.654434	0	
2.1493	1.83504	-0.0409022	0	
2.1500	2.75256	1.16571	0	
2.1507	6.42264	-1.8815	0	
2.1513	7.34015	-4.00841	0	
2.1520	6.42264	-3.70164	0	
2.1527	6.10984	-2.8018	0	
2.1533	4.5876	-2.18827	0	
2.1540	4.27481	-1.26797	0	
2.1547	5.50512	-0.347668	0	
2.1553	3.98287	0.265864	0	
2.1560	0.625581	-0.0409022	0	
2.1567	-0.604729	-0.961201	0	
2.1573	-0.917519	-0.961201	0	
2.1580	-0.917519	-0.347668	0	
2.1587	1.5431	0.265864	0	
2.1593	2.43977	3.00631	0	
2.1600	-0.917519	4.54014	0	
2.1607	-2.12698	2.69954	0	
2.1613	0.625581	1.77924	0	
2.1620	2.14783	1.47248	0	
2.1627	1.5431	0.879396	0	
2.1633	0.625581	3.00631	0	
2.1640	-0.291938	4.54014	0	
2.1647	-1.52225	0.879396	0	
2.1653	-1.81419	0.265864	0	
2.1660	-3.0445	1.77924	0	
2.1667	-3.0445	-0.961201	0	
2.1673	0.625581	-0.961201	0	
2.1680	2.43977	3.00631	0	
2.1687	1.5431	2.69954	0	
2.1693	1.83504	-0.0409022	0	
2.1700	3.67008	-0.0409022	0	
2.1707	4.5876	-1.26797	0	
2.1713	3.98287	-1.26797	0	
2.1720	0.625581	-0.347668	0	
2.1727	-3.0445	-4.00841	0	
2.1733	-1.52225	-6.46254	0	
2.1740	0.312791	-2.8018	0	
2.1747	-2.12698	-0.961201	0	
2.1753	-2.43977	-2.49503	0	
2.1760	0	-1.8815	0	
2.1767	-1.20946	-1.26797	0	
2.1773	-3.0445	-0.0409022	0	
2.1780	-2.43977	1.16571	0	
2.1787	-3.96202	-1.57473	0	
2.1793	-5.48426	-3.70164	0	
2.1800	-2.43977	-0.961201	0	
2.1807	-1.81419	1.47248	0	
2.1813	-5.48426	2.69954	0	
2.1820	-7.00651	5.13322	0	
2.1827	-6.71457	6.36028	0	
2.1833	-7.3193	6.36028	0	
2.1840	-6.71457	5.74675	0	
2.1847	-7.61124	4.23337	0	
2.1853	-8.52876	1.77924	0	
2.1860	-7.3193	0.265864	0	
2.1867	-7.92403	-0.0409022	0	
2.1873	-9.15434	-0.0409022	0	
2.1880	-4.87953	-0.0409022	0	
2.1887	-3.64922	-0.961201	0	
2.1893	-7.92403	-1.57473	0	
2.1900	-4.87953	-1.26797	0	
2.1907	2.14783	-2.18827	0	
2.1913	3.06535	-4.31518	0	
2.1920	4.27481	-5.54224	0	
2.1927	7.02736	-4.62194	0	
2.1933	5.19233	-3.08811	0	
2.1940	4.90039	-3.70164	0	
2.1947	7.02736	-4.62194	0	
2.1953	5.19233	-3.70164	0	
2.1960	4.27481	-2.8018	0	
2.1967	7.02736	-4.00841	0	
2.1973	6.10984	-5.23548	0	
2.1980	4.27481	-3.70164	0	
2.1987	6.10984	-1.8815	0	
2.1993	5.50512	-2.8018	0	
2.2000	2.14783	-2.8018	0	
2.2007	0.625581	1.47248	0	
2.2013	-0.917519	4.23337	0	
2.2020	-2.43977	3.61984	0	
2.2027	-2.43977	3.61984	0	
2.2033	-3.0445	2.69954	0	
2.2040	-3.0445	1.77924	0	
2.2047	-3.96202	2.69954	0	
2.2053	-7.61124	2.39278	0	
2.2060	-8.23682	-0.0409022	0	
2.2067	-3.35729	-0.347668	0	
2.2073	-3.0445	0.265864	0	
2.2080	-4.87953	-0.961201	0	
2.2087	-2.12698	-0.961201	0	
2.2093	-0.917519	-1.8815	0	
2.2100	-3.96202	-4.00841	0	
2.2107	-2.12698	-3.70164	0	
2.2113	0.625581	-2.8018	0	
2.2120	-1.20946	-2.8018	0	
2.2127	-0.917519	-2.8018	0	
2.2133	1.83504	-3.70164	0	
2.2140	2.14783	-5.54224	0	
2.2147	1.5431	-4.62194	0	
2.2153	0.625581	-3.08811	0	
2.2160	-0.604729	-3.70164	0	
2.2167	0.917519	-2.18827	0	
2.2173	1.83504	0.879396	0	
2.2180	-1.52225	0.57263	0	
2.2187	-3.0445	-1.26797	0	
2.2193	-2.43977	-0.347668	0	
2.2200	-3.96202	0.879396	0	
2.2207	-5.17147	0.57263	0	
2.2213	-3.0445	1.16571	0	
2.2220	-3.0445	1.77924	0	
2.2227	-3.96202	0.879396	0	
2.2233	-0.917519	2.39278	0	
2.2240	3.35729	4.54014	0	
2.2247	4.5876	3.31307	0	
2.2253	4.90039	1.16571	0	
2.2260	6.10984	0.57263	0	
2.2267	7.02736	0.879396	0	
2.2273	6.42264	3.31307	0	
2.2280	5.19233	3.61984	0	
2.2287	4.5876	0.879396	0	
2.2293	4.27481	0.879396	0	
2.2300	3.98287	1.77924	0	
2.2307	3.98287	-2.18827	0	
2.2313	3.35729	-4.31518	0	
2.2320	1.5431	-2.49503	0	
2.2327	2.43977	-3.39488	0	
2.2333	3.67008	-6.46254	0	
2.2340	-0.291938	-5.54224	0	
2.2347	-4.56674	-3.08811	0	
2.2353	-3.64922	-1.8815	0	
2.2360	-3.0445	-0.961201	0	
2.2367	-4.87953	-1.8815	0	
2.2373	-5.17147	-2.18827	0	
2.2380	-5.48426	-0.347668	0	
2.2387	-5.79705	0.57263	0	
2.2393	-4.87953	-0.347668	0	
2.2400	-4.27481	-0.0409022	0	
2.2407	-5.17147	1.16571	0	
2.2413	-4.27481	1.47248	0	
2.2420	-3.0445	0.879396	0	
2.2427	-3.96202	1.77924	0	
2.2433	-3.35729	3.61984	0	
2.2440	-1.20946	3.00631	0	
2.2447	-1.20946	0.879396	0	
2.2453	-0.291938	-0.0409022	0	
2.2460	1.5431	0.57263	0	
2.2467	1.5431	-0.0409022	0	
2.2473	0.625581	-0.654434	0	
2.2480	2.14783	0.57263	0	
2.2487	3.98287	1.77924	0	
2.2493	4.27481	-0.0409022	0	
2.2500	3.98287	-2.8018	0	
2.2507	3.35729	-2.8018	0	
2.2513	2.43977	-1.57473	0	
2.2520	2.75256	-3.70164	0	
2.2527	2.43977	-6.46254	0	
2.2533	0	-4.62194	0	
2.2540	0	-3.70164	0	
2.2547	3.98287	-4.62194	0	
2.2553	6.10984	-3.39488	0	
2.2560	3.06535	-0.961201	0	
2.2567	0	-2.18827	0	
2.2573	-0.291938	-4.31518	0	
2.2580	0	-4.00841	0	
2.2587	-0.291938	-2.8018	0	
2.2593	-1.20946	-0.347668	0	
2.2600	-1.20946	1.16571	0	
2.2607	-1.20946	1.77924	0	
2.2613	-2.43977	2.69954	0	
2.2620	-1.81419	3.92661	0	
2.2627	0.625581	2.69954	0	
2.2633	2.43977	2.39278	0	
2.2640	3.35729	3.61984	0	
2.2647	5.50512	2.69954	0	
2.2653	5.79705	0.879396	0	
2.2660	5.79705	0.265864	0	
2.2667	7.02736	-0.347668	0	
2.2673	6.42264	0.265864	0	
2.2680	5.19233	3.00631	0	
2.2687	7.94488	1.16571	0	
2.2693	9.46713	-3.70164	0	
2.2700	4.27481	-3.39488	0	
2.2707	0.917519	-0.961201	0	
2.2713	3.35729	-2.18827	0	
2.2720	4.27481	-4.62194	0	
2.2727	2.43977	-5.84901	0	
2.2733	2.43977	-4.92871	0	
2.2740	4.27481	-2.8018	0	
2.2747	3.98287	-3.39488	0	
2.2753	3.06535	-5.54224	0	
2.2760	2.43977	-4.31518	0	
2.2767	1.5431	-0.654434	0	
2.2773	0.312791	0.879396	0	
2.2780	-0.291938	-0.0409022	0	
2.2787	-2.12698	-0.347668	0	
2.2793	-3.96202	3.31307	0	
2.2800	-5.79705	6.66705	0	
2.2807	-7.00651	7.28058	0	
2.2813	-8.84155	7.89412	0	
2.2820	-12.8036	6.36028	0	
2.2827	-16.1609	4.54014	0	
2.2833	-15.2433	7.28058	0	
2.2840	-14.3258	10.6346	0	
2.2847	-16.4736	8.20088	0	
2.2853	-15.2433	5.13322	0	
2.2860	-11.5941	5.43999	0	
2.2867	-11.886	6.36028	0	
2.2873	-10.9685	4.54014	0	
2.2880	-5.79705	1.77924	0	
2.2887	-3.0445	1.77924	0	
2.2893	-3.0445	3.61984	0	
2.2900	-1.81419	1.16571	0	
2.2907	-1.20946	-0.961201	0	
2.2913	-2.12698	2.08601	0	
2.2920	-0.291938	0.879396	0	
2.2927	2.43977	-5.23548	0	
2.2933	2.43977	-4.00841	0	
2.2940	1.83504	-0.961201	0	
2.2947	-0.291938	-3.70164	0	
2.2953	-1.20946	-4.62194	0	
2.2960	0.917519	-2.18827	0	
2.2967	0.917519	-0.961201	0	
2.2973	-2.12698	-0.961201	0	
2.2980	-2.12698	-1.26797	0	
2.2987	0.625581	-1.8815	0	
2.2993	-0.917519	0.879396	0	
2.3000	-3.0445	3.61984	0	
2.3007	-1.81419	4.23337	0	
2.3013	-0.291938	3.00631	0	
2.3020	-0.604729	0.879396	0	
2.3027	-1.20946	-0.0409022	0	
2.3033	-1.52225	3.61984	0	
2.3040	-1.20946	4.23337	0	
2.3047	0.625581	-0.0409022	0	
2.3053	2.43977	-0.961201	0	
2.3060	1.5431	0.879396	0	
2.3067	-0.291938	-0.654434	0	
2.3073	0.625581	-3.70164	0	
2.3080	2.43977	-1.8815	0	
2.3087	2.43977	0.57263	0	
2.3093	0.625581	-0.654434	0	
2.3100	0.625581	-3.08811	0	
2.3107	1.5431	-3.70164	0	
2.3113	0.625581	-2.49503	0	
2.3120	-2.73171	-1.8815	0	
2.3127	-3.35729	-3.70164	0	
2.3133	-1.52225	-7.66915	0	
2.3140	-0.291938	-7.36239	0	
2.3147	1.83504	-3.70164	0	
2.3153	4.90039	-3.08811	0	
2.3160	6.71457	-4.31518	0	
2.3167	4.27481	-1.8815	0	
2.3173	-0.291938	-1.8815	0	
2.3180	-0.604729	-4.92871	0	
2.3187	3.98287	-3.70164	0	
2.3193	7.02736	-0.347668	0	
2.3200	7.02736	-0.654434	0	
2.3207	6.10984	-0.654434	0	
2.3213	5.19233	-0.347668	0	
2.3220	3.67008	-0.654434	0	
2.3227	5.19233	1.16571	0	
2.3233	7.02736	2.08601	0	
2.3240	3.98287	0.57263	0	
2.3247	0.625581	1.16571	0	
2.3253	1.83504	0.57263	0	
2.3260	4.90039	-2.18827	0	
2.3267	5.50512	-0.347668	0	
2.3273	5.19233	2.69954	0	
2.3280	4.27481	0.879396	0	
2.3287	5.19233	-0.961201	0	
2.3293	7.94488	-0.347668	0	
2.3300	7.34015	-0.654434	0	
2.3307	4.27481	-0.961201	0	
2.3313	4.27481	-1.57473	0	
2.3320	5.50512	-3.39488	0	
2.3327	5.79705	-4.62194	0	
2.3333	7.94488	-4.62194	0	
2.3340	7.94488	-4.31518	0	
2.3347	3.35729	-4.31518	0	
2.3353	3.35729	-4.31518	0	
2.3360	5.50512	-4.62194	0	
2.3367	3.98287	-3.70164	0	
2.3373	4.5876	-1.8815	0	
2.3380	7.94488	-0.347668	0	
2.3387	5.19233	0.265864	0	
2.3393	-0.291938	1.16571	0	
2.3400	-2.12698	3.00631	0	
2.3407	-3.96202	5.43999	0	
2.3413	-7.00651	6.66705	0	
2.3420	-9.15434	6.97382	0	
2.3427	-12.1988	7.89412	0	
2.3433	-15.8689	7.28058	0	
2.3440	-17.9959	4.23337	0	
2.3447	-18.6006	3.61984	0	
2.3453	-19.8309	5.13322	0	
2.3460	-19.8309	4.23337	0	
2.3467	-20.7484	3.00631	0	
2.3473	-22.8754	4.23337	0	
2.3480	-22.8754	4.54014	0	
2.3487	-20.7484	3.00631	0	
2.3493	-17.9959	0.57263	0	
2.3500	-14.0339	-1.8815	0	
2.3507	-8.52876	-2.49503	0	
2.3513	-4.87953	-1.26797	0	
2.3520	-1.20946	-1.8815	0	
2.3527	2.43977	-4.31518	0	
2.3533	4.5876	-5.54224	0	
2.3540	4.90039	-3.39488	0	
2.3547	3.98287	-0.961201	0	
2.3553	5.19233	-2.8018	0	
2.3560	7.94488	-5.54224	0	
2.3567	8.25767	-3.70164	0	
2.3573	7.34015	-0.654434	0	
2.3580	9.15434	-1.26797	0	
2.3587	7.94488	-1.57473	0	
2.3593	4.27481	0.879396	0	
2.3600	7.02736	0.57263	0	
2.3607	11.5941	-0.961201	0	
2.3613	9.77992	-0.347668	0	
2.3620	7.02736	0.879396	0	
2.3627	5.79705	1.16571	0	
2.3633	0.625581	2.08601	0	
2.3640	-1.52225	1.77924	0	
2.3647	2.43977	0.879396	0	
2.3653	0.625581	2.08601	0	
2.3660	-6.08899	2.08601	0	
2.3667	-9.44628	-0.961201	0	
2.3673	-10.3638	-1.8815	0	
2.3680	-10.3638	-0.961201	0	
2.3687	-7.00651	-2.8018	0	
2.3693	-4.27481	-4.31518	0	
2.3700	-3.35729	-3.39488	0	
2.3707	-1.52225	-4.00841	0	
2.3713	0	-6.15577	0	
2.3720	1.83504	-5.54224	0	
2.3727	5.50512	-4.92871	0	
2.3733	9.15434	-4.92871	0	
2.3740	9.77992	-4.62194	0	
2.3747	9.77992	-4.62194	0	
2.3753	10.0719	-3.39488	0	
2.3760	9.15434	-0.654434	0	
2.3767	7.63209	-0.961201	0	
2.3773	7.94488	-2.49503	0	
2.3780	7.63209	-0.347668	0	
2.3787	3.06535	0.879396	0	
2.3793	0.625581	-0.0409022	0	
2.3800	2.43977	0.879396	0	
2.3807	0.312791	3.31307	0	
2.3813	-5.48426	4.84691	0	
2.3820	-5.79705	6.05352	0	
2.3827	-4.56674	7.58735	0	
2.3833	-8.52876	7.89412	0	
2.3840	-11.886	4.23337	0	
2.3847	-9.44628	0.879396	0	
2.3853	-7.92403	4.23337	0	
2.3860	-8.52876	6.97382	0	
2.3867	-5.79705	3.31307	0	
2.3873	-0.917519	0.879396	0	
2.3880	1.83504	1.77924	0	
2.3887	3.06535	-1.26797	0	
2.3893	5.19233	-3.70164	0	
2.3900	7.94488	-2.8018	0	
2.3907	8.8624	-3.70164	0	
2.3913	7.94488	-6.76931	0	
2.3920	6.10984	-5.54224	0	
2.3927	5.50512	-3.70164	0	
2.3933	3.67008	-5.54224	0	
2.3940	0.625581	-4.92871	0	
2.3947	-0.604729	-3.08811	0	
2.3953	-0.604729	-3.08811	0	
2.3960	-3.35729	-3.39488	0	
2.3967	-6.71457	-1.8815	0	
2.3973	-7.3193	-0.961201	0	
2.3980	-5.79705	-0.0409022	0	
2.3987	-2.73171	1.16571	0	
2.3993	-2.12698	3.61984	0	
2.4000	-4.56674	5.13322	0	
2.4007	-3.35729	5.43999	0	
2.4013	0.625581	5.13322	0	
2.4020	2.43977	5.74675	0	
2.4027	4.27481	4.84691	0	
2.4033	5.79705	2.69954	0	
2.4040	4.90039	2.69954	0	
2.4047	5.50512	3.00631	0	
2.4053	5.79705	3.31307	0	
2.4060	2.43977	2.69954	0	
2.4067	1.5431	2.69954	0	
2.4073	4.27481	2.08601	0	
2.4080	3.67008	0.265864	0	
2.4087	-0.291938	-1.26797	0	
2.4093	-3.0445	-2.8018	0	
2.4100	-3.0445	-3.70164	0	
2.4107	-2.73171	-4.31518	0	
2.4113	-1.52225	-4.31518	0	
2.4120	-0.291938	-5.54224	0	
2.4127	-0.917519	-5.84901	0	
2.4133	-2.12698	-3.70164	0	
2.4140	-1.20946	-2.8018	0	
2.4147	-0.291938	-3.39488	0	
2.4153	-0.917519	-1.8815	0	
2.4160	1.5431	-0.654434	0	
2.4167	6.10984	-1.26797	0	
2.4173	5.50512	-1.26797	0	
2.4180	0	-0.961201	0	
2.4187	-2.12698	0.879396	0	
2.4193	-1.20946	4.54014	0	
2.4200	-2.12698	5.43999	0	
2.4207	-5.17147	2.69954	0	
2.4213	-5.79705	3.31307	0	
2.4220	-4.27481	6.66705	0	
2.4227	-3.0445	6.97382	0	
2.4233	-2.43977	5.43999	0	
2.4240	-1.20946	5.13322	0	
2.4247	-1.20946	3.61984	0	
2.4253	-1.20946	2.69954	0	
2.4260	0.625581	3.00631	0	
2.4267	2.14783	0.879396	0	
2.4273	0.625581	-1.57473	0	
2.4280	-1.20946	0.265864	0	
2.4287	0.312791	1.77924	0	
2.4293	2.43977	-0.347668	0	
2.4300	3.06535	-1.8815	0	
2.4307	2.14783	-2.8018	0	
2.4313	0.625581	-6.46254	0	
2.4320	-0.917519	-8.28269	0	
2.4327	-1.52225	-6.76931	0	
2.4333	-1.20946	-7.36239	0	
2.4340	-1.20946	-7.36239	0	
2.4347	-1.20946	-3.70164	0	
2.4353	-1.81419	-2.8018	0	
2.4360	-2.43977	-3.70164	0	
2.4367	-2.73171	-2.49503	0	
2.4373	-3.64922	-1.57473	0	
2.4380	-5.79705	-1.8815	0	
2.4387	-6.40178	-1.8815	0	
2.4393	-4.56674	-1.57473	0	
2.4400	-4.27481	-1.8815	0	
2.4407	-3.96202	0.265864	0	
2.4413	-3.35729	2.39278	0	
2.4420	-4.87953	1.77924	0	
2.4427	-4.87953	1.47248	0	
2.4433	-1.52225	1.77924	0	
2.4440	1.23031	1.47248	0	
2.4447	2.43977	0.879396	0	
2.4453	5.19233	1.16571	0	
2.4460	5.19233	2.08601	0	
2.4467	2.75256	2.69954	0	
2.4473	4.27481	0.879396	0	
2.4480	7.02736	-1.8815	0	
2.4487	5.79705	-2.49503	0	
2.4493	3.67008	-0.961201	0	
2.4500	4.27481	-0.961201	0	
2.4507	5.19233	-3.08811	0	
2.4513	4.90039	-3.70164	0	
2.4520	3.35729	-3.39488	0	
2.4527	2.43977	-2.18827	0	
2.4533	0.917519	-1.57473	0	
2.4540	-1.52225	-2.8018	0	
2.4547	-3.96202	-4.62194	0	
2.4553	-5.48426	-4.31518	0	
2.4560	-4.87953	-1.8815	0	
2.4567	-3.0445	-0.347668	0	
2.4573	-1.52225	-0.0409022	0	
2.4580	-0.291938	0.57263	0	
2.4587	2.43977	1.77924	0	
2.4593	5.79705	3.00631	0	
2.4600	8.8624	3.00631	0	
2.4607	9.77992	1.77924	0	
2.4613	8.54961	1.16571	0	
2.4620	7.94488	0.879396	0	
2.4627	8.8624	0.879396	0	
2.4633	8.25767	2.69954	0	
2.4640	7.34015	3.00631	0	
2.4647	8.25767	0.265864	0	
2.4653	9.46713	-0.347668	0	
2.4660	9.15434	1.77924	0	
2.4667	7.02736	2.69954	0	
2.4673	2.43977	2.08601	0	
2.4680	-3.0445	0.879396	0	
2.4687	-7.00651	-0.654434	0	
2.4693	-10.3638	-1.26797	0	
2.4700	-12.8036	-1.57473	0	
2.4707	-11.886	-2.49503	0	
2.4713	-10.9685	-2.18827	0	
2.4720	-12.1988	-1.8815	0	
2.4727	-12.8036	-3.70164	0	
2.4733	-11.886	-4.31518	0	
2.4740	-10.6766	-2.8018	0	
2.4747	-7.92403	-3.70164	0	
2.4753	-4.56674	-5.54224	0	
2.4760	-3.64922	-4.62194	0	
2.4767	-3.35729	-2.49503	0	
2.4773	-2.12698	-2.49503	0	
2.4780	-0.917519	-3.39488	0	
2.4787	-0.291938	-1.26797	0	
2.4793	-1.52225	0.879396	0	
2.4800	-2.73171	-0.347668	0	
2.4807	-2.73171	-2.8018	0	
2.4813	-3.0445	0.57263	0	
2.4820	-3.0445	5.13322	0	
2.4827	-1.20946	6.05352	0	
2.4833	-0.917519	5.43999	0	
2.4840	-2.12698	6.36028	0	
2.4847	-1.20946	6.66705	0	
2.4853	-0.291938	5.43999	0	
2.4860	0	3.31307	0	
2.4867	0.625581	0.879396	0	
2.4873	0.625581	-0.654434	0	
2.4880	1.5431	0.57263	0	
2.4887	3.06535	1.47248	0	
2.4893	2.43977	0.265864	0	
2.4900	1.5431	-0.961201	0	
2.4907	1.83504	-1.57473	0	
2.4913	1.23031	-2.18827	0	
2.4920	-0.604729	-3.39488	0	
2.4927	0.625581	-4.92871	0	
2.4933	2.43977	-4.92871	0	
2.4940	2.75256	-2.18827	0	
2.4947	2.43977	0.265864	0	
2.4953	0.625581	-0.347668	0	
2.4960	-0.291938	-0.961201	0	
2.4967	2.43977	-0.347668	0	
2.4973	3.35729	-1.8815	0	
2.4980	1.5431	-1.8815	0	
2.4987	0	0.265864	0	
2.4993	-0.291938	-0.0409022	0	
2.5000	-1.52225	-1.57473	0	
2.5007	-1.52225	0.879396	0	
2.5013	-2.43977	3.61984	0	
2.5020	-5.48426	3.92661	0	
2.5027	-5.79705	4.23337	0	
2.5033	-4.87953	4.54014	0	
2.5040	-4.87953	4.23337	0	
2.5047	-3.96202	5.13322	0	
2.5053	-3.0445	4.84691	0	
2.5060	-3.0445	2.08601	0	
2.5067	-0.604729	1.77924	0	
2.5073	2.14783	3.61984	0	
2.5080	-0.291938	3.31307	0	
2.5087	-2.43977	-0.654434	0	
2.5093	-1.20946	-2.8018	0	
2.5100	0.625581	-1.57473	0	
2.5107	2.14783	-1.57473	0	
2.5113	3.06535	-3.08811	0	
2.5120	1.5431	-2.49503	0	
2.5127	-0.291938	-0.961201	0	
2.5133	1.5431	-1.8815	0	
2.5140	2.75256	-2.8018	0	
2.5147	2.75256	-3.70164	0	
2.5153	2.43977	-4.92871	0	
2.5160	2.14783	-2.49503	0	
2.5167	0.312791	1.16571	0	
2.5173	-1.20946	0.265864	0	
2.5180	-0.604729	-1.57473	0	
2.5187	2.14783	-0.961201	0	
2.5193	3.98287	-0.0409022	0	
2.5200	5.79705	0.879396	0	
2.5207	7.94488	0.57263	0	
2.5213	8.54961	-0.961201	0	
2.5220	9.15434	0.265864	0	
2.5227	12.2197	1.47248	0	
2.5233	13.7419	-1.8815	0	
2.5240	13.1372	-1.57473	0	
2.5247	14.9514	2.08601	0	
2.5253	16.1817	-0.961201	0	
2.5260	11.5941	-3.39488	0	
2.5267	6.71457	0.879396	0	
2.5273	5.79705	0.265864	0	
2.5280	5.79705	-4.00841	0	
2.5287	3.35729	-3.08811	0	
2.5293	-1.20946	-1.26797	0	
2.5300	-6.71457	-3.39488	0	
2.5307	-9.44628	-2.8018	0	
2.5313	-12.5116	0.57263	0	
2.5320	-16.7864	-0.0409022	0	
2.5327	-17.6831	-1.8815	0	
2.5333	-15.8689	-1.26797	0	
2.5340	-16.4736	-1.57473	0	
2.5347	-14.9514	-3.39488	0	
2.5353	-10.9685	-1.8815	0	
2.5360	-10.6766	0.879396	0	
2.5367	-10.3638	-0.0409022	0	
2.5373	-5.79705	-1.26797	0	
2.5380	-3.0445	-0.961201	0	
2.5387	-6.71457	-0.961201	0	
2.5393	-9.15434	-0.0409022	0	
2.5400	-6.71457	2.39278	0	
2.5407	-3.64922	2.39278	0	
2.5413	-3.0445	0.879396	0	
2.5420	-3.0445	1.77924	0	
2.5427	-1.81419	2.69954	0	
2.5433	-0.917519	4.54014	0	
2.5440	-3.0445	6.36028	0	
2.5447	-5.17147	3.61984	0	
2.5453	-4.27481	0.879396	0	
2.5460	-2.12698	3.00631	0	
2.5467	-2.43977	5.43999	0	
2.5473	-3.96202	4.54014	0	
2.5480	-3.96202	4.23337	0	
2.5487	-1.81419	5.13322	0	
2.5493	1.23031	3.00631	0	
2.5500	2.43977	-1.8815	0	
2.5507	2.14783	-2.8018	0	
2.5513	0.625581	0.879396	0	
2.5520	0.625581	0.265864	0	
2.5527	0	-2.8018	0	
2.5533	-0.604729	-2.8018	0	
2.5540	-0.291938	-3.39488	0	
2.5547	0.917519	-4.00841	0	
2.5553	4.27481	-1.8815	0	
2.5560	11.9069	-1.8815	0	
2.5567	16.4945	-5.54224	0	
2.5573	15.2642	-5.23548	0	
2.5580	16.7864	-4.00841	0	
2.5587	18.0167	-4.92871	0	
2.5593	14.6595	-3.70164	0	
2.5600	13.7419	-1.26797	0	
2.5607	14.3467	0.265864	0	
2.5613	9.15434	2.39278	0	
2.5620	2.43977	0.57263	0	
2.5627	-0.291938	-2.8018	0	
2.5633	-3.96202	0.879396	0	
2.5640	-8.52876	3.00631	0	
2.5647	-12.5116	-0.347668	0	
2.5653	-16.7864	-0.0409022	0	
2.5660	-19.8309	3.00631	0	
2.5667	-19.5181	1.47248	0	
2.5673	-19.8309	-0.347668	0	
2.5680	-20.4357	-0.0409022	0	
2.5687	-16.7864	0.57263	0	
2.5693	-13.1164	0.879396	0	
2.5700	-13.1164	0.879396	0	
2.5707	-12.1988	-0.961201	0	
2.5713	-7.61124	-1.8815	0	
2.5720	-6.40178	-1.8815	0	
2.5727	-6.40178	-3.70164	0	
2.5733	-1.20946	-4.00841	0	
2.5740	2.14783	-2.49503	0	
2.5747	0.625581	-2.8018	0	
2.5753	1.83504	-3.70164	0	
2.5760	3.98287	-2.8018	0	
2.5767	3.06535	-1.26797	0	
2.5773	3.67008	-1.57473	0	
2.5780	5.19233	-0.654434	0	
2.5787	3.98287	1.77924	0	
2.5793	4.27481	2.69954	0	
2.5800	5.79705	2.39278	0	
2.5807	3.98287	1.77924	0	
2.5813	3.06535	1.77924	0	
2.5820	3.98287	1.77924	0	
2.5827	3.06535	0.879396	0	
2.5833	2.75256	0.265864	0	
2.5840	3.35729	0.879396	0	
2.5847	3.67008	1.47248	0	
2.5853	4.27481	-0.0409022	0	
2.5860	4.5876	-0.0409022	0	
2.5867	2.75256	1.77924	0	
2.5873	0.917519	1.16571	0	
2.5880	-0.291938	-1.57473	0	
2.5887	0.917519	-1.8815	0	
2.5893	3.67008	0.57263	0	
2.5900	3.98287	-0.0409022	0	
2.5907	1.83504	-3.70164	0	
2.5913	0.625581	-4.31518	0	
2.5920	0.917519	-4.92871	0	
2.5927	3.06535	-5.84901	0	
2.5933	5.19233	-2.8018	0	
2.5940	5.19233	-0.347668	0	
2.5947	6.10984	-4.00841	0	
2.5953	7.94488	-6.15577	0	
2.5960	7.94488	-3.08811	0	
2.5967	7.94488	-2.18827	0	
2.5973	10.6974	-3.70164	0	
2.5980	12.5116	-3.70164	0	
2.5987	12.5116	-1.8815	0	
2.5993	13.1372	-0.961201	0	
2.6000	13.7419	-1.8815	0	
2.6007	14.0547	-1.8815	0	
2.6013	11.9069	1.16571	0	
2.6020	7.63209	2.69954	0	
2.6027	3.06535	2.69954	0	
2.6033	-1.20946	4.84691	0	
2.6040	-3.96202	5.43999	0	
2.6047	-3.35729	3.00631	0	
2.6053	-4.56674	2.69954	0	
2.6060	-8.84155	1.77924	0	
2.6067	-10.6766	-1.8815	0	
2.6073	-10.3638	-2.49503	0	
2.6080	-11.2813	0.879396	0	
2.6087	-11.2813	0.879396	0	
2.6093	-10.9685	-2.49503	0	
2.6100	-11.2813	-4.62194	0	
2.6107	-9.44628	-4.92871	0	
2.6113	-7.3193	-3.70164	0	
2.6120	-7.61124	-1.8815	0	
2.6127	-8.23682	-1.8815	0	
2.6133	-6.71457	-2.18827	0	
2.6140	-6.40178	-2.8018	0	
2.6147	-6.71457	-2.8018	0	
2.6153	-7.61124	-3.08811	0	
2.6160	-8.52876	-2.49503	0	
2.6167	-7.61124	-0.0409022	0	
2.6173	-4.56674	0.879396	0	
2.6180	-3.35729	1.77924	0	
2.6187	-4.27481	3.61984	0	
2.6193	-5.17147	3.92661	0	
2.6200	-4.56674	2.69954	0	
2.6207	-2.73171	3.92661	0	
2.6213	-2.73171	5.43999	0	
2.6220	-4.87953	3.61984	0	
2.6227	-3.0445	3.61984	0	
2.6233	-0.291938	4.54014	0	
2.6240	-2.43977	2.08601	0	
2.6247	-4.87953	0.57263	0	
2.6253	-1.20946	3.00631	0	
2.6260	3.06535	4.54014	0	
2.6267	3.35729	3.00631	0	
2.6273	4.5876	2.39278	0	
2.6280	7.94488	1.16571	0	
2.6287	10.9894	-0.347668	0	
2.6293	14.0547	-1.57473	0	
2.6300	17.412	-2.49503	0	
2.6307	18.3087	-2.49503	0	
2.6313	16.1817	-3.08811	0	
2.6320	14.6595	-5.54224	0	
2.6327	14.3467	-7.97592	0	
2.6333	12.2197	-6.46254	0	
2.6340	6.71457	-4.31518	0	
2.6347	0.625581	-3.70164	0	
2.6353	-5.79705	-4.62194	0	
2.6360	-11.2813	-4.00841	0	
2.6367	-13.1164	-2.18827	0	
2.6373	-11.886	-0.654434	0	
2.6380	-11.5941	-0.347668	0	
2.6387	-10.6766	-1.26797	0	
2.6393	-7.00651	-2.49503	0	
2.6400	-4.56674	-0.0409022	0	
2.6407	-3.96202	3.31307	0	
2.6413	-1.52225	1.77924	0	
2.6420	0.625581	-0.961201	0	
2.6427	-2.12698	0.57263	0	
2.6433	-2.73171	1.47248	0	
2.6440	1.23031	-0.0409022	0	
2.6447	1.5431	1.16571	0	
2.6453	-1.81419	2.39278	0	
2.6460	-2.73171	1.47248	0	
2.6467	-3.0445	0.57263	0	
2.6473	-4.27481	-0.347668	0	
2.6480	-3.96202	-0.961201	0	
2.6487	-2.73171	0.879396	0	
2.6493	-1.52225	0.879396	0	
2.6500	-0.917519	-1.8815	0	
2.6507	-3.96202	-1.8815	0	
2.6513	-6.71457	-1.26797	0	
2.6520	-5.79705	-2.18827	0	
2.6527	-4.87953	-1.8815	0	
2.6533	-3.96202	-0.0409022	0	
2.6540	-0.917519	-0.0409022	0	
2.6547	-0.291938	-1.26797	0	
2.6553	-3.96202	-2.49503	0	
2.6560	-6.71457	-2.8018	0	
2.6567	-6.71457	-1.8815	0	
2.6573	-6.71457	-0.654434	0	
2.6580	-7.00651	-1.26797	0	
2.6587	-6.08899	-0.654434	0	
2.6593	-4.87953	1.77924	0	
2.6600	-4.27481	2.69954	0	
2.6607	-2.43977	2.69954	0	
2.6613	1.5431	3.00631	0	
2.6620	4.27481	3.00631	0	
2.6627	6.71457	3.92661	0	
2.6633	10.3847	6.66705	0	
2.6640	11.5941	8.50765	0	
2.6647	10.6974	6.05352	0	
2.6653	11.3022	1.47248	0	
2.6660	13.1372	-0.0409022	0	
2.6667	12.2197	0.879396	0	
2.6673	10.3847	0.879396	0	
2.6680	8.8624	-0.961201	0	
2.6687	6.10984	-1.8815	0	
2.6693	3.35729	-0.0409022	0	
2.6700	0	-0.0409022	0	
2.6707	-3.96202	-2.8018	0	
2.6713	-8.52876	-4.92871	0	
2.6720	-10.0719	-4.62194	0	
2.6727	-8.52876	-2.49503	0	
2.6733	-6.71457	-0.347668	0	
2.6740	-6.40178	-0.654434	0	
2.6747	-6.71457	-2.49503	0	
2.6753	-6.08899	-2.8018	0	
2.6760	-6.40178	-0.0409022	0	
2.6767	-6.71457	0.879396	0	
2.6773	-6.08899	-2.49503	0	
2.6780	-4.27481	-3.70164	0	
2.6787	-1.52225	-0.654434	0	
2.6793	-1.20946	1.16571	0	
2.6800	-3.64922	-0.961201	0	
2.6807	-4.87953	-0.347668	0	
2.6813	-1.20946	3.31307	0	
2.6820	2.75256	4.23337	0	
2.6827	3.67008	3.61984	0	
2.6833	3.06535	3.31307	0	
2.6840	5.19233	1.16571	0	
2.6847	8.25767	1.47248	0	
2.6853	9.15434	3.92661	0	
2.6860	11.3022	3.31307	0	
2.6867	13.4291	1.77924	0	
2.6873	11.5941	3.00631	0	
2.6880	7.94488	3.31307	0	
2.6887	5.50512	2.39278	0	
2.6893	1.5431	3.31307	0	
2.6900	-3.35729	2.69954	0	
2.6907	-4.27481	-0.654434	0	
2.6913	-3.35729	-1.8815	0	
2.6920	-3.96202	-2.8018	0	
2.6927	-3.96202	-6.46254	0	
2.6933	-3.0445	-7.66915	0	
2.6940	-3.96202	-5.23548	0	
2.6947	-3.35729	-3.08811	0	
2.6953	-0.604729	-3.39488	0	
2.6960	0	-3.70164	0	
2.6967	0	-3.39488	0	
2.6973	2.75256	-1.26797	0	
2.6980	3.35729	-0.347668	0	
2.6987	1.83504	-0.654434	0	
2.6993	4.27481	-0.347668	0	
2.7000	6.71457	1.16571	0	
2.7007	5.50512	2.39278	0	
2.7013	5.79705	2.39278	0	
2.7020	7.02736	2.69954	0	
2.7027	4.5876	3.92661	0	
2.7033	1.5431	4.23337	0	
2.7040	-1.20946	3.61984	0	
2.7047	-3.0445	3.31307	0	
2.7053	-4.87953	2.39278	0	
2.7060	-8.52876	2.39278	0	
2.7067	-13.7211	1.77924	0	
2.7073	-14.9514	-0.0409022	0	
2.7080	-14.3258	-0.347668	0	
2.7087	-14.6386	-0.0409022	0	
2.7093	-12.5116	-1.8815	0	
2.7100	-6.71457	-2.8018	0	
2.7107	-1.52225	-2.49503	0	
2.7113	-1.20946	-3.08811	0	
2.7120	-1.52225	-4.31518	0	
2.7127	1.23031	-5.23548	0	
2.7133	4.5876	-5.23548	0	
2.7140	6.10984	-5.23548	0	
2.7147	7.02736	-6.46254	0	
2.7153	7.63209	-5.54224	0	
2.7160	8.54961	-3.39488	0	
2.7167	9.77992	-3.70164	0	
2.7173	9.15434	-3.70164	0	
2.7180	8.8624	-0.961201	0	
2.7187	10.3847	-0.654434	0	
2.7193	9.77992	-0.961201	0	
2.7200	7.34015	1.77924	0	
2.7207	7.02736	2.69954	0	
2.7213	5.19233	0.57263	0	
2.7220	1.5431	2.08601	0	
2.7227	-0.291938	4.54014	0	
2.7233	-0.291938	3.92661	0	
2.7240	-1.20946	5.13322	0	
2.7247	-0.917519	6.36028	0	
2.7253	-1.20946	5.13322	0	
2.7260	-3.96202	5.43999	0	
2.7267	-4.87953	5.74675	0	
2.7273	-6.08899	3.61984	0	
2.7280	-8.23682	3.00631	0	
2.7287	-5.79705	4.54014	0	
2.7293	-0.604729	3.31307	0	
2.7300	1.23031	0.57263	0	
2.7307	0.625581	-0.347668	0	
2.7313	0.625581	-0.961201	0	
2.7320	1.5431	-2.49503	0	
2.7327	3.35729	-4.00841	0	
2.7333	6.10984	-4.31518	0	
2.7340	6.42264	-3.39488	0	
2.7347	4.27481	-2.18827	0	
2.7353	3.35729	-1.57473	0	
2.7360	3.35729	-0.961201	0	
2.7367	2.75256	-1.8815	0	
2.7373	3.06535	-2.49503	0	
2.7380	3.98287	-2.18827	0	
2.7387	1.83504	-1.8815	0	
2.7393	-1.20946	-0.961201	0	
2.7400	-0.291938	0.879396	0	
2.7407	-0.291938	0.879396	0	
2.7413	-4.27481	2.08601	0	
2.7420	-5.79705	3.92661	0	
2.7427	-5.48426	3.61984	0	
2.7433	-7.3193	2.69954	0	
2.7440	-7.00651	3.00631	0	
2.7447	-3.64922	2.08601	0	
2.7453	-4.27481	1.47248	0	
2.7460	-5.79705	0.879396	0	
2.7467	-5.17147	-0.961201	0	
2.7473	-7.3193	-0.347668	0	
2.7480	-9.44628	0.57263	0	
2.7487	-5.79705	-2.18827	0	
2.7493	-3.64922	-3.70164	0	
2.7500	-3.35729	-2.18827	0	
2.7507	0	-1.8815	0	
2.7513	2.43977	-3.70164	0	
2.7520	0.917519	-6.76931	0	
2.7527	1.83504	-8.58945	0	
2.7533	3.35729	-6.15577	0	
2.7540	3.35729	-2.18827	0	
2.7547	4.27481	-1.8815	0	
2.7553	4.27481	-2.8018	0	
2.7560	1.23031	-0.961201	0	
2.7567	-0.917519	-0.0409022	0	
2.7573	-2.12698	-0.0409022	0	
2.7580	-4.87953	-0.654434	0	
2.7587	-5.17147	-1.26797	0	
2.7593	-3.64922	0.879396	0	
2.7600	-3.96202	3.92661	0	
2.7607	-2.43977	3.00631	0	
2.7613	0.625581	0.879396	0	
2.7620	-0.604729	2.08601	0	
2.7627	-1.20946	5.43999	0	
2.7633	3.35729	5.43999	0	
2.7640	4.27481	3.61984	0	
2.7647	1.83504	3.31307	0	
2.7653	2.43977	5.43999	0	
2.7660	2.43977	5.43999	0	
2.7667	-1.20946	2.69954	0	
2.7673	-4.27481	-0.654434	0	
2.7680	-5.79705	-2.49503	0	
2.7687	-6.71457	-0.961201	0	
2.7693	-3.96202	2.08601	0	
2.7700	0	0.265864	0	
2.7707	0.625581	-3.70164	0	
2.7713	0.625581	-2.8018	0	
2.7720	1.23031	-1.26797	0	
2.7727	1.83504	-3.08811	0	
2.7733	4.90039	-4.31518	0	
2.7740	7.94488	-5.23548	0	
2.7747	7.34015	-5.54224	0	
2.7753	7.02736	-4.00841	0	
2.7760	7.63209	-2.18827	0	
2.7767	6.10984	-1.26797	0	
2.7773	3.35729	-1.57473	0	
2.7780	1.83504	-2.49503	0	
2.7787	1.5431	-0.961201	0	
2.7793	1.23031	1.47248	0	
2.7800	0.625581	0.879396	0	
2.7807	0.625581	0.879396	0	
2.7813	2.43977	2.39278	0	
2.7820	2.43977	1.47248	0	
2.7827	2.43977	-0.0409022	0	
2.7833	4.5876	1.77924	0	
2.7840	4.90039	3.00631	0	
2.7847	0.625581	2.69954	0	
2.7853	-1.81419	3.31307	0	
2.7860	-2.12698	2.69954	0	
2.7867	-5.79705	0.879396	0	
2.7873	-10.0719	0.879396	0	
2.7880	-9.75907	1.77924	0	
2.7887	-10.0719	0.57263	0	
2.7893	-12.1988	-0.347668	0	
2.7900	-10.6766	-0.0409022	0	
2.7907	-6.71457	-0.961201	0	
2.7913	-3.96202	-1.57473	0	
2.7920	-2.73171	-2.49503	0	
2.7927	-0.291938	-4.31518	0	
2.7933	0.312791	-4.62194	0	
2.7940	-0.291938	-2.8018	0	
2.7947	2.43977	-2.18827	0	
2.7953	4.5876	-3.39488	0	
2.7960	3.06535	-2.18827	0	
2.7967	2.43977	-1.26797	0	
2.7973	3.67008	-0.961201	0	
2.7980	4.27481	0.879396	0	
2.7987	3.98287	0.879396	0	
2.7993	4.5876	-0.0409022	0	
2.8000	4.27481	3.31307	0	
2.8007	3.35729	5.74675	0	
2.8013	2.43977	3.00631	0	
2.8020	0.625581	2.39278	0	
2.8027	-2.73171	4.54014	0	
2.8033	-4.27481	5.13322	0	
2.8040	-3.35729	5.13322	0	
2.8047	-2.73171	4.23337	0	
2.8053	-4.27481	2.69954	0	
2.8060	-8.52876	2.39278	0	
2.8067	-10.3638	1.16571	0	
2.8073	-7.00651	0.879396	0	
2.8080	-3.35729	1.77924	0	
2.8087	-1.81419	0.879396	0	
2.8093	0.312791	-0.961201	0	
2.8100	1.5431	-0.0409022	0	
2.8107	1.23031	-1.8815	0	
2.8113	2.43977	-4.62194	0	
2.8120	4.27481	-3.70164	0	
2.8127	3.06535	-3.08811	0	
2.8133	-0.291938	-4.62194	0	
2.8140	-2.43977	-2.8018	0	
2.8147	-0.291938	0.57263	0	
2.8153	3.67008	-0.654434	0	
2.8160	4.27481	-2.8018	0	
2.8167	2.75256	-2.8018	0	
2.8173	3.35729	-2.8018	0	
2.8180	3.35729	-3.08811	0	
2.8187	1.23031	-3.08811	0	
2.8193	0.312791	-1.8815	0	
2.8200	2.14783	-0.0409022	0	
2.8207	1.5431	0.265864	0	
2.8213	-1.20946	-0.0409022	0	
2.8220	-1.81419	1.16571	0	
2.8227	0.625581	2.69954	0	
2.8233	1.5431	0.57263	0	
2.8240	-0.604729	-0.961201	0	
2.8247	-4.56674	0.265864	0	
2.8253	-8.23682	2.08601	0	
2.8260	-9.44628	3.00631	0	
2.8267	-8.52876	3.61984	0	
2.8273	-9.44628	1.77924	0	
2.8280	-9.44628	-0.654434	0	
2.8287	-7.61124	-0.961201	0	
2.8293	-6.71457	-0.654434	0	
2.8300	-7.61124	-2.18827	0	
2.8307	-6.08899	-4.00841	0	
2.8313	-4.56674	-4.31518	0	
2.8320	-4.87953	-3.39488	0	
2.8327	-5.48426	-2.8018	0	
2.8333	-3.64922	-3.39488	0	
2.8340	-0.917519	-3.08811	0	
2.8347	-0.917519	-1.26797	0	
2.8353	-3.96202	1.47248	0	
2.8360	-6.71457	1.77924	0	
2.8367	-7.61124	-0.654434	0	
2.8373	-5.17147	-1.8815	0	
2.8380	-0.917519	-0.0409022	0	
2.8387	1.23031	1.77924	0	
2.8393	-0.291938	1.77924	0	
2.8400	-1.20946	2.69954	0	
2.8407	1.5431	3.61984	0	
2.8413	3.35729	2.08601	0	
2.8420	4.27481	0.57263	0	
2.8427	5.19233	2.69954	0	
2.8433	5.19233	6.05352	0	
2.8440	4.90039	4.23337	0	
2.8447	4.27481	-0.0409022	0	
2.8453	5.19233	0.879396	0	
2.8460	7.34015	3.00631	0	
2.8467	7.02736	1.16571	0	
2.8473	4.90039	-0.0409022	0	
2.8480	3.98287	0.265864	0	
2.8487	5.50512	-0.961201	0	
2.8493	8.8624	-2.18827	0	
2.8500	11.3022	-2.8018	0	
2.8507	10.9894	-2.8018	0	
2.8513	8.54961	-3.70164	0	
2.8520	5.19233	-6.46254	0	
2.8527	3.35729	-7.66915	0	
2.8533	2.43977	-4.62194	0	
2.8540	2.14783	-3.70164	0	
2.8547	0.917519	-5.54224	0	
2.8553	-1.20946	-4.31518	0	
2.8560	-3.0445	-2.49503	0	
2.8567	0	-3.70164	0	
2.8573	2.75256	-3.70164	0	
2.8580	1.83504	-2.8018	0	
2.8587	1.23031	-3.08811	0	
2.8593	2.43977	-3.70164	0	
2.8600	-0.291938	-1.8815	0	
2.8607	-2.73171	-0.0409022	0	
2.8613	-0.291938	-0.0409022	0	
2.8620	-1.52225	-0.0409022	0	
2.8627	-4.87953	3.31307	0	
2.8633	-1.20946	4.54014	0	
2.8640	1.83504	0.879396	0	
2.8647	-2.12698	-0.0409022	0	
2.8653	-3.0445	1.47248	0	
2.8660	0.312791	0.879396	0	
2.8667	0.625581	1.77924	0	
2.8673	-0.291938	3.00631	0	
2.8680	0.625581	0.57263	0	
2.8687	0	-1.26797	0	
2.8693	-2.12698	-0.961201	0	
2.8700	-2.43977	-2.18827	0	
2.8707	-0.291938	-3.70164	0	
2.8713	2.14783	-5.23548	0	
2.8720	1.83504	-7.36239	0	
2.8727	-1.20946	-5.54224	0	
2.8733	-2.12698	-2.49503	0	
2.8740	-0.604729	-3.39488	0	
2.8747	0.312791	-3.70164	0	
2.8753	0.917519	-1.8815	0	
2.8760	1.5431	-3.39488	0	
2.8767	0.625581	-3.08811	0	
2.8773	-0.291938	-0.654434	0	
2.8780	0.312791	0.57263	0	
2.8787	1.5431	2.39278	0	
2.8793	2.43977	4.54014	0	
2.8800	0.625581	3.61984	0	
2.8807	-2.12698	2.69954	0	
2.8813	-2.12698	3.31307	0	
2.8820	-0.291938	2.69954	0	
2.8827	0.312791	2.69954	0	
2.8833	-1.20946	4.54014	0	
2.8840	-0.917519	2.69954	0	
2.8847	0	0.879396	0	
2.8853	-2.43977	2.39278	0	
2.8860	-4.87953	2.39278	0	
2.8867	-4.27481	-0.654434	0	
2.8873	-4.56674	-0.961201	0	
2.8880	-7.00651	-0.654434	0	
2.8887	-7.92403	-0.654434	0	
2.8893	-7.3193	-0.0409022	0	
2.8900	-5.79705	-0.961201	0	
2.8907	-1.20946	-3.39488	0	
2.8913	2.43977	-2.8018	0	
2.8920	2.43977	-3.08811	0	
2.8927	1.23031	-6.46254	0	
2.8933	3.06535	-6.15577	0	
2.8940	6.71457	-2.49503	0	
2.8947	7.02736	-2.8018	0	
2.8953	4.27481	-4.00841	0	
2.8960	4.90039	-2.8018	0	
2.8967	7.02736	-1.8815	0	
2.8973	5.19233	-2.49503	0	
2.8980	2.43977	-0.961201	0	
2.8987	2.14783	-0.0409022	0	
2.8993	-0.291938	-0.0409022	0	
2.9000	-2.43977	1.16571	0	
2.9007	-1.20946	0.57263	0	
2.9013	-1.81419	0.265864	0	
2.9020	-3.96202	4.84691	0	
2.9027	-3.0445	7.89412	0	
2.9033	-2.43977	4.54014	0	
2.9040	-4.87953	2.39278	0	
2.9047	-5.17147	4.54014	0	
2.9053	0	4.54014	0	
2.9060	2.43977	2.69954	0	
2.9067	-0.604729	2.08601	0	
2.9073	-0.291938	2.39278	0	
2.9080	4.27481	0.879396	0	
2.9087	2.43977	0.265864	0	
2.9093	-3.0445	-0.961201	0	
2.9100	-2.12698	-2.8018	0	
2.9107	1.5431	-2.8018	0	
2.9113	0.625581	-2.18827	0	
2.9120	-1.52225	-3.08811	0	
2.9127	-2.43977	-4.31518	0	
2.9133	-3.96202	-2.18827	0	
2.9140	-3.64922	1.16571	0	
2.9147	-0.291938	-0.0409022	0	
2.9153	2.43977	-3.39488	0	
2.9160	3.06535	-2.49503	0	
2.9167	3.98287	-0.0409022	0	
2.9173	3.35729	-0.961201	0	
2.9180	3.06535	-0.654434	0	
2.9187	3.98287	0.265864	0	
2.9193	3.67008	-1.57473	0	
2.9200	1.5431	-0.654434	0	
2.9207	0.625581	4.23337	0	
2.9213	2.43977	4.84691	0	
2.9220	2.43977	3.61984	0	
2.9227	-0.291938	4.54014	0	
2.9233	-3.64922	3.61984	0	
2.9240	-5.17147	2.08601	0	
2.9247	-7.61124	3.92661	0	
2.9253	-10.9685	4.54014	0	
2.9260	-9.44628	3.00631	0	
2.9267	-6.40178	3.61984	0	
2.9273	-8.52876	3.61984	0	
2.9280	-9.44628	1.47248	0	
2.9287	-4.87953	0.57263	0	
2.9293	-3.0445	-0.0409022	0	
2.9300	-3.0445	-2.49503	0	
2.9307	-1.81419	-3.70164	0	
2.9313	-2.12698	-3.70164	0	
2.9320	-2.43977	-4.92871	0	
2.9327	0.625581	-5.23548	0	
2.9333	1.23031	-3.70164	0	
2.9340	-0.917519	-3.39488	0	
2.9347	-1.20946	-2.8018	0	
2.9353	-1.81419	-1.8815	0	
2.9360	-2.12698	-2.8018	0	
2.9367	-0.604729	-3.70164	0	
2.9373	0.312791	-1.8815	0	
2.9380	-0.291938	-0.0409022	0	
