0.0000	0.225656	0.975881	1	
0.0007	-2.52734	4.94137	0	
0.0013	-0.992885	2.49392	0	
0.0020	0.225656	-2.07568	0	
0.0027	-1.91055	-0.247843	0	
0.0033	-2.82822	0.371764	0	
0.0040	0.225656	-2.38549	0	
0.0047	1.74507	-2.38549	0	
0.0053	0.225656	-0.85196	0	
0.0060	-0.0752186	-1.16176	0	
0.0067	0.225656	-2.6798	0	
0.0073	-1.29376	-5.73137	0	
0.0080	0.225656	-5.73137	0	
0.0087	3.5804	0.371764	0	
0.0093	2.06099	3.11353	0	
0.0100	-0.692011	-1.16176	0	
0.0107	0.225656	-3.90353	0	
0.0113	0.842448	-4.21333	0	
0.0120	0.225656	-3.90353	0	
0.0127	0.52653	-2.38549	0	
0.0133	-1.29376	-1.16176	0	
0.0140	-4.04676	-3.90353	0	
0.0147	-2.21143	-7.86901	0	
0.0153	1.14332	-7.86901	0	
0.0160	0.842448	-5.12725	0	
0.0167	1.14332	-2.6798	0	
0.0173	1.4442	-0.85196	0	
0.0180	-0.692011	1.28568	0	
0.0187	-1.91055	1.28568	0	
0.0193	0.52653	-0.247843	0	
0.0200	4.1972	0.666078	0	
0.0207	6.63428	3.71764	0	
0.0213	6.63428	4.63156	0	
0.0220	4.1972	3.71764	0	
0.0227	2.97866	3.42333	0	
0.0233	1.74507	2.80372	0	
0.0240	-1.60968	0.371764	0	
0.0247	-1.91055	0.371764	0	
0.0253	-0.391137	1.8898	0	
0.0260	-0.692011	2.80372	0	
0.0267	-1.60968	3.11353	0	
0.0273	-1.91055	3.11353	0	
0.0280	-1.29376	0.666078	0	
0.0287	-0.0752186	-1.47157	0	
0.0293	-0.692011	-1.16176	0	
0.0300	-2.52734	-2.38549	0	
0.0307	-2.21143	-4.21333	0	
0.0313	-3.42997	-2.6798	0	
0.0320	-6.18297	2.19961	0	
0.0327	-4.96443	7.68313	0	
0.0333	-1.91055	9.21666	0	
0.0340	-1.60968	6.76921	0	
0.0347	-1.29376	6.4749	0	
0.0353	-1.60968	6.4749	0	
0.0360	-4.34763	2.19961	0	
0.0367	-5.2653	-2.9896	0	
0.0373	-3.74589	-2.07568	0	
0.0380	-1.91055	0.0619607	0	
0.0387	-0.692011	-1.76588	0	
0.0393	-2.52734	-4.21333	0	
0.0400	-2.52734	-3.29941	0	
0.0407	1.14332	-2.07568	0	
0.0413	1.74507	-2.07568	0	
0.0420	-0.692011	-1.47157	0	
0.0427	-0.692011	2.49392	0	
0.0433	-0.0752186	6.16509	0	
0.0440	0.225656	4.94137	0	
0.0447	1.74507	2.19961	0	
0.0453	2.06099	1.8898	0	
0.0460	2.36186	0.666078	0	
0.0467	3.5804	-1.76588	0	
0.0473	0.225656	-2.6798	0	
0.0480	-2.52734	-2.38549	0	
0.0487	1.14332	-0.557646	0	
0.0493	2.97866	1.28568	0	
0.0500	0.52653	1.58	0	
0.0507	2.97866	1.28568	0	
0.0513	3.5804	1.28568	0	
0.0520	-1.60968	-1.16176	0	
0.0527	-2.52734	-3.90353	0	
0.0533	0.52653	-5.12725	0	
0.0540	0.225656	-5.12725	0	
0.0547	-0.992885	-4.52313	0	
0.0553	-0.992885	-6.35097	0	
0.0560	-1.29376	-9.09274	0	
0.0567	1.14332	-5.43705	0	
0.0573	3.5804	0.371764	0	
0.0580	2.06099	-1.47157	0	
0.0587	1.74507	-4.81745	0	
0.0593	2.36186	-4.81745	0	
0.0600	0.52653	-5.12725	0	
0.0607	1.14332	-3.29941	0	
0.0613	3.88128	-0.557646	0	
0.0620	2.36186	-2.38549	0	
0.0627	-0.692011	-3.90353	0	
0.0633	0.52653	-2.07568	0	
0.0640	0.842448	-0.557646	0	
0.0647	-3.42997	0.666078	0	
0.0653	-4.66355	1.28568	0	
0.0660	-2.21143	-1.47157	0	
0.0667	-0.692011	-1.76588	0	
0.0673	-0.992885	-1.16176	0	
0.0680	-2.52734	-3.60921	0	
0.0687	-3.74589	-4.21333	0	
0.0693	-1.60968	-2.07568	0	
0.0700	0.842448	-2.9896	0	
0.0707	-0.992885	-2.9896	0	
0.0713	-2.82822	-1.47157	0	
0.0720	-0.692011	-3.60921	0	
0.0727	-0.0752186	-5.43705	0	
0.0733	-2.52734	-6.04117	0	
0.0740	-1.60968	-9.71234	0	
0.0747	0.842448	-9.71234	0	
0.0753	0.52653	-4.81745	0	
0.0760	0.225656	-6.95509	0	
0.0767	1.14332	-10.6263	0	
0.0773	-0.391137	-5.73137	0	
0.0780	-1.60968	-2.07568	0	
0.0787	-0.391137	-2.9896	0	
0.0793	-0.0752186	-0.557646	0	
0.0800	-0.0752186	1.58	0	
0.0807	0.225656	1.28568	0	
0.0813	0.225656	5.25117	0	
0.0820	1.14332	7.99293	0	
0.0827	1.74507	7.38882	0	
0.0833	-0.692011	9.82077	0	
0.0840	-1.91055	10.4404	0	
0.0847	0.842448	4.63156	0	
0.0853	1.4442	2.19961	0	
0.0860	-0.992885	4.33725	0	
0.0867	-0.692011	3.11353	0	
0.0873	1.14332	1.58	0	
0.0880	0.842448	0.666078	0	
0.0887	0.52653	-0.247843	0	
0.0893	-0.0752186	0.371764	0	
0.0900	-2.52734	1.28568	0	
0.0907	-2.21143	0.0619607	0	
0.0913	1.14332	-2.07568	0	
0.0920	1.4442	-2.38549	0	
0.0927	-0.391137	0.0619607	0	
0.0933	-0.692011	0.666078	0	
0.0940	-0.692011	-2.38549	0	
0.0947	-0.391137	-2.9896	0	
0.0953	3.27953	-0.557646	0	
0.0960	4.79895	-0.557646	0	
0.0967	0.225656	-0.85196	0	
0.0973	-2.52734	2.19961	0	
0.0980	-0.992885	4.94137	0	
0.0987	0.52653	4.94137	0	
0.0993	1.4442	4.02745	0	
0.1000	2.06099	4.02745	0	
0.1007	2.06099	4.02745	0	
0.1013	2.06099	4.33725	0	
0.1020	-0.0752186	6.76921	0	
0.1027	-3.42997	10.7347	0	
0.1033	-2.82822	11.9584	0	
0.1040	-1.29376	10.4404	0	
0.1047	-2.52734	7.68313	0	
0.1053	-4.34763	3.11353	0	
0.1060	-3.42997	1.8898	0	
0.1067	-0.692011	4.63156	0	
0.1073	0.225656	3.11353	0	
0.1080	-0.692011	-0.85196	0	
0.1087	-1.60968	-1.47157	0	
0.1093	-1.60968	-1.47157	0	
0.1100	-2.21143	-1.47157	0	
0.1107	-3.42997	-0.557646	0	
0.1113	-3.12909	-3.29941	0	
0.1120	-0.692011	-6.35097	0	
0.1127	1.14332	-6.04117	0	
0.1133	0.52653	-5.73137	0	
0.1140	0.842448	-6.35097	0	
0.1147	2.36186	-6.66078	0	
0.1153	1.14332	-6.35097	0	
0.1160	-2.21143	-3.29941	0	
0.1167	-0.992885	1.8898	0	
0.1173	1.4442	4.02745	0	
0.1180	1.4442	3.42333	0	
0.1187	1.4442	0.975881	0	
0.1193	2.06099	-2.07568	0	
0.1200	2.06099	-0.557646	0	
0.1207	1.14332	1.28568	0	
0.1213	-0.0752186	0.0619607	0	
0.1220	-1.60968	1.58	0	
0.1227	-3.12909	4.02745	0	
0.1233	-4.34763	-1.47157	0	
0.1240	-3.12909	-5.12725	0	
0.1247	-3.42997	1.28568	0	
0.1253	-5.2653	7.38882	0	
0.1260	-3.74589	4.02745	0	
0.1267	-2.52734	-0.557646	0	
0.1273	-5.2653	-2.38549	0	
0.1280	-4.34763	-5.12725	0	
0.1287	-0.692011	-7.26489	0	
0.1293	-2.52734	-4.52313	0	
0.1300	-2.52734	-2.07568	0	
0.1307	0.52653	-3.29941	0	
0.1313	-0.0752186	-2.38549	0	
0.1320	-1.91055	3.11353	0	
0.1327	-1.60968	4.33725	0	
0.1333	-3.42997	1.28568	0	
0.1340	-4.66355	-1.47157	0	
0.1347	-2.21143	-4.21333	0	
0.1353	-0.692011	-6.95509	0	
0.1360	-0.992885	-6.04117	0	
0.1367	-0.692011	-2.9896	0	
0.1373	-3.42997	-1.76588	0	
0.1380	-4.96443	-2.38549	0	
0.1387	-2.52734	-1.47157	0	
0.1393	-1.60968	0.371764	0	
0.1400	-4.96443	0.371764	0	
0.1407	-5.88209	-2.07568	0	
0.1413	-3.12909	-2.38549	0	
0.1420	-2.21143	-0.557646	0	
0.1427	-1.91055	0.371764	0	
0.1433	0.842448	0.371764	0	
0.1440	1.74507	0.666078	0	
0.1447	-0.391137	3.11353	0	
0.1453	-0.692011	3.11353	0	
0.1460	2.06099	-0.85196	0	
0.1467	4.49807	-3.29941	0	
0.1473	5.71661	-3.29941	0	
0.1480	4.49807	-5.12725	0	
0.1487	2.06099	-6.66078	0	
0.1493	2.06099	-5.12725	0	
0.1500	3.88128	-2.38549	0	
0.1507	2.06099	-0.247843	0	
0.1513	0.225656	-0.247843	0	
0.1520	2.06099	-2.07568	0	
0.1527	2.36186	-1.76588	0	
0.1533	0.52653	0.371764	0	
0.1540	1.14332	0.371764	0	
0.1547	3.5804	0.0619607	0	
0.1553	2.97866	0.371764	0	
0.1560	0.225656	-0.85196	0	
0.1567	-0.692011	-4.52313	0	
0.1573	1.14332	-6.95509	0	
0.1580	3.5804	-4.81745	0	
0.1587	4.79895	-1.47157	0	
0.1593	4.79895	-1.76588	0	
0.1600	3.88128	-3.60921	0	
0.1607	4.1972	-3.29941	0	
0.1613	6.01749	-1.47157	0	
0.1620	5.11486	0.371764	0	
0.1627	2.97866	2.80372	0	
0.1633	3.88128	4.94137	0	
0.1640	3.5804	4.33725	0	
0.1647	1.14332	3.11353	0	
0.1653	1.4442	3.11353	0	
0.1660	1.14332	3.42333	0	
0.1667	-3.12909	2.19961	0	
0.1673	-3.74589	-0.247843	0	
0.1680	-1.91055	-4.21333	0	
0.1687	-4.96443	-5.12725	0	
0.1693	-6.18297	-2.07568	0	
0.1700	-1.60968	-0.557646	0	
0.1707	-0.0752186	-2.9896	0	
0.1713	-3.74589	-1.76588	0	
0.1720	-5.56617	2.80372	0	
0.1727	-4.34763	4.02745	0	
0.1733	-4.04676	2.49392	0	
0.1740	-3.74589	0.371764	0	
0.1747	-2.52734	-3.60921	0	
0.1753	-2.52734	-6.35097	0	
0.1760	-4.04676	-4.21333	0	
0.1767	-2.21143	-1.76588	0	
0.1773	0.842448	-2.07568	0	
0.1780	-0.692011	-3.29941	0	
0.1787	-2.52734	-3.60921	0	
0.1793	-0.992885	-2.9896	0	
0.1800	-0.692011	-2.6798	0	
0.1807	-2.52734	-1.76588	0	
0.1813	-2.21143	0.371764	0	
0.1820	-0.692011	0.666078	0	
0.1827	1.14332	-1.47157	0	
0.1833	1.4442	-2.07568	0	
0.1840	0.52653	-1.16176	0	
0.1847	-0.0752186	0.371764	0	
0.1853	-0.0752186	2.80372	0	
0.1860	-0.692011	2.19961	0	
0.1867	0.225656	-0.557646	0	
0.1873	2.66274	-1.47157	0	
0.1880	0.842448	-2.38549	0	
0.1887	-1.91055	-5.12725	0	
0.1893	0.225656	-4.81745	0	
0.1900	1.14332	-1.16176	0	
0.1907	-2.21143	-0.85196	0	
0.1913	-2.52734	-0.557646	0	
0.1920	-0.0752186	3.71764	0	
0.1927	-1.60968	3.11353	0	
0.1933	-2.52734	-0.557646	0	
0.1940	1.14332	0.666078	0	
0.1947	2.06099	3.11353	0	
0.1953	-1.29376	3.42333	0	
0.1960	-0.0752186	5.25117	0	
0.1967	3.88128	6.76921	0	
0.1973	2.66274	4.63156	0	
0.1980	1.4442	5.25117	0	
0.1987	3.5804	8.30274	0	
0.1993	2.06099	9.21666	0	
0.2000	-0.992885	11.3543	0	
0.2007	0.842448	13.4919	0	
0.2013	1.4442	10.4404	0	
0.2020	-1.60968	8.59705	0	
0.2027	0.52653	7.99293	0	
0.2033	4.1972	4.02745	0	
0.2040	-0.692011	2.19961	0	
0.2047	-4.34763	3.71764	0	
0.2053	-0.692011	0.666078	0	
0.2060	0.225656	-0.557646	0	
0.2067	-3.42997	0.975881	0	
0.2073	-4.04676	-3.29941	0	
0.2080	-3.12909	-7.5747	0	
0.2087	-4.04676	-4.81745	0	
0.2093	-4.66355	-3.29941	0	
0.2100	-4.34763	-5.12725	0	
0.2107	-3.42997	-3.60921	0	
0.2113	-1.91055	-1.47157	0	
0.2120	-1.60968	-2.38549	0	
0.2127	-1.60968	-4.81745	0	
0.2133	-0.692011	-8.48862	0	
0.2140	0.842448	-10.6263	0	
0.2147	0.842448	-8.79842	0	
0.2153	-1.60968	-4.52313	0	
0.2160	-3.42997	-2.38549	0	
0.2167	-0.992885	-4.21333	0	
0.2173	0.52653	-4.21333	0	
0.2180	-1.60968	0.975881	0	
0.2187	-0.391137	3.42333	0	
0.2193	2.36186	1.58	0	
0.2200	2.06099	2.80372	0	
0.2207	3.5804	7.68313	0	
0.2213	4.79895	9.52646	0	
0.2220	0.842448	7.07901	0	
0.2227	1.14332	4.94137	0	
0.2233	6.01749	5.54548	0	
0.2240	3.27953	6.76921	0	
0.2247	-1.29376	7.68313	0	
0.2253	-0.692011	7.68313	0	
0.2260	-1.29376	3.11353	0	
0.2267	-1.60968	-0.557646	0	
0.2273	0.52653	0.371764	0	
0.2280	-0.692011	-0.85196	0	
0.2287	-3.42997	-5.73137	0	
0.2293	-2.82822	-4.21333	0	
0.2300	-3.42997	-2.38549	0	
0.2307	-4.66355	-5.12725	0	
0.2313	-4.34763	-3.60921	0	
0.2320	-4.04676	-0.557646	0	
0.2327	-2.52734	-6.04117	0	
0.2333	-0.391137	-8.79842	0	
0.2340	-1.91055	-3.90353	0	
0.2347	-3.42997	-1.76588	0	
0.2353	-0.692011	-2.38549	0	
0.2360	2.06099	0.0619607	0	
0.2367	1.14332	1.28568	0	
0.2373	-0.0752186	0.666078	0	
0.2380	-0.692011	0.666078	0	
0.2387	0.225656	0.975881	0	
0.2393	3.27953	2.19961	0	
0.2400	4.49807	2.19961	0	
0.2407	2.97866	-0.85196	0	
0.2413	2.06099	-4.21333	0	
0.2420	1.74507	-5.43705	0	
0.2427	0.225656	-4.21333	0	
0.2433	0.842448	-1.16176	0	
0.2440	2.36186	1.28568	0	
0.2447	2.66274	0.371764	0	
0.2453	3.27953	0.975881	0	
0.2460	4.1972	0.666078	0	
0.2467	2.97866	-4.21333	0	
0.2473	2.36186	-8.48862	0	
0.2480	1.4442	-8.48862	0	
0.2487	-0.692011	-7.86901	0	
0.2493	0.225656	-6.35097	0	
0.2500	2.97866	-5.12725	0	
0.2507	1.14332	-3.60921	0	
0.2513	-0.992885	-0.85196	0	
0.2520	0.52653	-2.07568	0	
0.2527	1.14332	-6.04117	0	
0.2533	-0.992885	-5.73137	0	
0.2540	-2.52734	-5.12725	0	
0.2547	-2.82822	-6.95509	0	
0.2553	-2.52734	-6.35097	0	
0.2560	-1.60968	-6.35097	0	
0.2567	-0.692011	-8.48862	0	
0.2573	-1.60968	-5.43705	0	
0.2580	-1.91055	-1.76588	0	
0.2587	-0.0752186	-2.9896	0	
0.2593	1.14332	-2.38549	0	
0.2600	-0.692011	0.666078	0	
0.2607	-1.29376	1.8898	0	
0.2613	-0.391137	2.19961	0	
0.2620	-0.992885	1.28568	0	
0.2627	-2.52734	-1.47157	0	
0.2633	-1.60968	-2.6798	0	
0.2640	-2.52734	-0.557646	0	
0.2647	-4.96443	3.11353	0	
0.2653	-5.2653	6.16509	0	
0.2660	-1.60968	4.63156	0	
0.2667	1.14332	0.666078	0	
0.2673	-2.21143	0.371764	0	
0.2680	-4.96443	0.0619607	0	
0.2687	-2.82822	-2.38549	0	
0.2693	-1.91055	-2.6798	0	
0.2700	-4.34763	-1.47157	0	
0.2707	-3.12909	-2.6798	0	
0.2713	-0.692011	-4.81745	0	
0.2720	-2.52734	-5.43705	0	
0.2727	-3.74589	-6.35097	0	
0.2733	-2.52734	-6.35097	0	
0.2740	-0.692011	-4.52313	0	
0.2747	2.66274	-3.60921	0	
0.2753	3.88128	-4.21333	0	
0.2760	0.842448	-2.38549	0	
0.2767	-0.692011	2.19961	0	
0.2773	-0.391137	6.16509	0	
0.2780	-1.29376	7.07901	0	
0.2787	-0.391137	5.85529	0	
0.2793	1.14332	4.02745	0	
0.2800	0.225656	4.02745	0	
0.2807	1.74507	4.33725	0	
0.2813	2.97866	4.02745	0	
0.2820	0.842448	4.94137	0	
0.2827	-0.0752186	6.76921	0	
0.2833	2.06099	6.76921	0	
0.2840	1.14332	5.25117	0	
0.2847	-0.0752186	4.02745	0	
0.2853	1.14332	3.11353	0	
0.2860	1.14332	1.28568	0	
0.2867	-0.0752186	-0.557646	0	
0.2873	-0.692011	-2.38549	0	
0.2880	-0.391137	-4.81745	0	
0.2887	0.225656	-5.73137	0	
0.2893	1.14332	-4.81745	0	
0.2900	1.14332	-3.29941	0	
0.2907	-0.992885	-4.21333	0	
0.2913	-3.42997	-5.12725	0	
0.2920	-1.91055	-3.29941	0	
0.2927	0.225656	-1.76588	0	
0.2933	-2.21143	-2.38549	0	
0.2940	-4.66355	-2.38549	0	
0.2947	-3.42997	-3.29941	0	
0.2953	-1.60968	-6.66078	0	
0.2960	-0.391137	-6.35097	0	
0.2967	0.225656	-2.6798	0	
0.2973	-1.29376	-1.76588	0	
0.2980	-3.12909	-1.47157	0	
0.2987	-2.52734	1.8898	0	
0.2993	-3.42997	2.49392	0	
0.3000	-4.96443	1.28568	0	
0.3007	-3.12909	4.63156	0	
0.3013	-0.391137	9.21666	0	
0.3020	-0.0752186	7.07901	0	
0.3027	-0.391137	2.19961	0	
0.3033	1.14332	2.19961	0	
0.3040	1.14332	4.63156	0	
0.3047	-0.692011	1.8898	0	
0.3053	-2.21143	-2.6798	0	
0.3060	-0.692011	-0.557646	0	
0.3067	0.225656	4.33725	0	
0.3073	-1.29376	1.8898	0	
0.3080	-1.60968	-1.47157	0	
0.3087	1.4442	0.371764	0	
0.3093	2.06099	-0.557646	0	
0.3100	-2.52734	-6.35097	0	
0.3107	-3.42997	-7.5747	0	
0.3113	-0.692011	-3.60921	0	
0.3120	-0.391137	-1.47157	0	
0.3127	-0.992885	-3.29941	0	
0.3133	-0.692011	-7.26489	0	
0.3140	-1.91055	-7.26489	0	
0.3147	-1.60968	-3.90353	0	
0.3153	1.14332	-2.9896	0	
0.3160	1.14332	-4.21333	0	
0.3167	-0.692011	-2.9896	0	
0.3173	1.4442	-0.557646	0	
0.3180	3.5804	0.0619607	0	
0.3187	1.74507	0.666078	0	
0.3193	1.14332	0.666078	0	
0.3200	2.06099	-1.16176	0	
0.3207	2.97866	-1.47157	0	
0.3213	3.88128	1.58	0	
0.3220	4.49807	5.25117	0	
0.3227	5.71661	5.54548	0	
0.3233	7.55194	4.02745	0	
0.3240	6.63428	4.02745	0	
0.3247	4.49807	4.02745	0	
0.3253	2.97866	2.19961	0	
0.3260	1.14332	0.0619607	0	
0.3267	1.14332	0.666078	0	
0.3273	3.27953	0.371764	0	
0.3280	2.06099	-1.76588	0	
0.3287	-1.60968	-2.6798	0	
0.3293	-1.60968	-2.6798	0	
0.3300	1.14332	-3.60921	0	
0.3307	2.06099	-4.21333	0	
0.3313	0.225656	-4.21333	0	
0.3320	0.225656	-6.35097	0	
0.3327	2.66274	-8.79842	0	
0.3333	3.27953	-8.79842	0	
0.3340	2.97866	-6.66078	0	
0.3347	3.88128	-6.04117	0	
0.3353	2.66274	-6.95509	0	
0.3360	-0.391137	-6.95509	0	
0.3367	1.14332	-4.81745	0	
0.3373	2.97866	-2.07568	0	
0.3380	1.14332	-1.47157	0	
0.3387	0.225656	-1.47157	0	
0.3393	1.74507	-2.07568	0	
0.3400	2.06099	-3.29941	0	
0.3407	0.225656	-0.557646	0	
0.3413	-1.60968	6.76921	0	
0.3420	-3.42997	9.52646	0	
0.3427	-3.42997	4.33725	0	
0.3433	-2.52734	-0.557646	0	
0.3440	-2.82822	1.28568	0	
0.3447	-3.42997	2.49392	0	
0.3453	-3.42997	-1.47157	0	
0.3460	-3.12909	-2.9896	0	
0.3467	-2.52734	1.58	0	
0.3473	-2.52734	3.42333	0	
0.3480	-1.91055	0.371764	0	
0.3487	-0.692011	-1.76588	0	
0.3493	-0.692011	-0.247843	0	
0.3500	-0.391137	3.11353	0	
0.3507	-0.0752186	3.11353	0	
0.3513	-1.91055	-2.9896	0	
0.3520	-3.12909	-7.5747	0	
0.3527	-2.21143	-6.04117	0	
0.3533	-1.29376	-4.81745	0	
0.3540	-0.391137	-3.29941	0	
0.3547	0.52653	0.0619607	0	
0.3553	0.225656	0.666078	0	
0.3560	-1.29376	0.0619607	0	
0.3567	-1.60968	1.28568	0	
0.3573	-2.52734	1.8898	0	
0.3580	-1.91055	0.975881	0	
0.3587	-0.0752186	0.0619607	0	
0.3593	0.225656	-1.47157	0	
0.3600	-2.21143	-1.16176	0	
0.3607	-4.34763	0.666078	0	
0.3613	-3.12909	-0.247843	0	
0.3620	0.225656	0.0619607	0	
0.3627	-0.692011	5.25117	0	
0.3633	-4.96443	9.21666	0	
0.3640	-5.2653	8.30274	0	
0.3647	-1.91055	7.68313	0	
0.3653	-1.60968	6.16509	0	
0.3660	-2.52734	0.666078	0	
0.3667	-0.692011	-2.6798	0	
0.3673	-0.0752186	-2.38549	0	
0.3680	-1.91055	-2.38549	0	
0.3687	-0.992885	-2.9896	0	
0.3693	2.36186	-2.07568	0	
0.3700	3.27953	-2.38549	0	
0.3707	1.74507	-4.21333	0	
0.3713	1.4442	-2.9896	0	
0.3720	0.52653	-2.9896	0	
0.3727	-1.60968	-8.79842	0	
0.3733	0.225656	-10.9206	0	
0.3740	2.36186	-6.66078	0	
0.3747	0.52653	-3.60921	0	
0.3753	0.225656	-5.12725	0	
0.3760	2.66274	-6.35097	0	
0.3767	2.36186	-6.04117	0	
0.3773	-0.391137	-4.21333	0	
0.3780	-1.60968	-1.16176	0	
0.3787	-0.692011	-0.247843	0	
0.3793	0.225656	0.0619607	0	
0.3800	-0.391137	2.19961	0	
0.3807	-1.60968	4.02745	0	
0.3813	-0.391137	3.42333	0	
0.3820	1.14332	3.42333	0	
0.3827	-0.992885	5.54548	0	
0.3833	-3.42997	7.07901	0	
0.3840	-4.34763	6.16509	0	
0.3847	-4.34763	4.94137	0	
0.3853	-3.42997	4.02745	0	
0.3860	-1.91055	2.19961	0	
0.3867	-2.21143	-0.557646	0	
0.3873	-2.52734	-0.247843	0	
0.3880	-3.12909	-0.557646	0	
0.3887	-4.04676	-4.52313	0	
0.3893	-2.82822	-6.95509	0	
0.3900	-0.692011	-4.81745	0	
0.3907	-0.692011	-1.47157	0	
0.3913	-1.60968	1.58	0	
0.3920	-1.91055	3.11353	0	
0.3927	-3.12909	0.666078	0	
0.3933	-2.52734	-1.16176	0	
0.3940	-0.391137	0.371764	0	
0.3947	-1.60968	1.28568	0	
0.3953	-2.82822	0.975881	0	
0.3960	-0.391137	0.371764	0	
0.3967	-0.0752186	-0.85196	0	
0.3973	-2.52734	-0.85196	0	
0.3980	-1.60968	-0.557646	0	
0.3987	-1.91055	-1.47157	0	
0.3993	-3.42997	1.28568	0	
0.4000	-1.60968	5.25117	0	
0.4007	0.225656	3.71764	0	
0.4013	-0.992885	1.8898	0	
0.4020	0.225656	4.02745	0	
0.4027	0.225656	4.02745	0	
0.4033	-1.60968	4.33725	0	
0.4040	-0.0752186	6.76921	0	
0.4047	0.52653	5.85529	0	
0.4053	-1.60968	5.85529	0	
0.4060	-1.91055	7.68313	0	
0.4067	-1.60968	3.11353	0	
0.4073	-1.60968	-1.47157	0	
0.4080	-1.29376	1.28568	0	
0.4087	-3.12909	0.975881	0	
0.4093	-4.34763	-3.60921	0	
0.4100	-1.60968	-4.52313	0	
0.4107	-0.391137	-3.90353	0	
0.4113	-2.82822	-3.60921	0	
0.4120	-3.74589	-1.16176	0	
0.4127	-3.74589	-1.47157	0	
0.4133	-4.04676	-4.52313	0	
0.4140	-1.60968	-5.12725	0	
0.4147	-1.60968	-3.60921	0	
0.4153	-3.42997	-2.9896	0	
0.4160	-0.692011	-2.07568	0	
0.4167	3.27953	-0.557646	0	
0.4173	2.97866	-0.557646	0	
0.4180	3.88128	-0.557646	0	
0.4187	5.71661	1.28568	0	
0.4193	2.97866	3.11353	0	
0.4200	-0.0752186	3.11353	0	
0.4207	0.842448	1.8898	0	
0.4213	2.97866	-0.247843	0	
0.4220	2.97866	-1.47157	0	
0.4227	1.74507	0.371764	0	
0.4233	-0.0752186	1.58	0	
0.4240	1.14332	-0.247843	0	
0.4247	3.27953	0.0619607	0	
0.4253	1.14332	2.49392	0	
0.4260	0.225656	3.11353	0	
0.4267	2.06099	2.49392	0	
0.4273	0.842448	3.11353	0	
0.4280	-1.60968	1.28568	0	
0.4287	0.225656	-0.557646	0	
0.4293	1.4442	-2.38549	0	
0.4300	0.52653	-4.21333	0	
0.4307	0.225656	-5.12725	0	
0.4313	-0.992885	-5.73137	0	
0.4320	-1.60968	-8.79842	0	
0.4327	-0.391137	-10.6263	0	
0.4333	0.225656	-7.86901	0	
0.4340	1.74507	-5.12725	0	
0.4347	2.97866	-4.81745	0	
0.4353	2.06099	-6.04117	0	
0.4360	1.14332	-6.95509	0	
0.4367	1.14332	-5.12725	0	
0.4373	0.225656	-0.557646	0	
0.4380	-1.60968	3.11353	0	
0.4387	-1.60968	5.85529	0	
0.4393	-1.29376	7.68313	0	
0.4400	-0.391137	5.25117	0	
0.4407	1.74507	1.58	0	
0.4413	1.14332	3.11353	0	
0.4420	-2.52734	5.25117	0	
0.4427	-2.52734	3.11353	0	
0.4433	1.14332	3.11353	0	
0.4440	0.225656	4.63156	0	
0.4447	-1.60968	2.19961	0	
0.4453	2.36186	0.975881	0	
0.4460	5.71661	2.19961	0	
0.4467	3.88128	0.0619607	0	
0.4473	2.36186	-1.16176	0	
0.4480	2.36186	-0.247843	0	
0.4487	0.52653	-2.9896	0	
0.4493	0.225656	-5.12725	0	
0.4500	1.14332	-2.9896	0	
0.4507	0.52653	-2.38549	0	
0.4513	0.52653	-3.29941	0	
0.4520	1.14332	-1.76588	0	
0.4527	0.225656	-1.47157	0	
0.4533	1.14332	-2.07568	0	
0.4540	3.27953	-0.247843	0	
0.4547	1.4442	0.666078	0	
0.4553	-0.692011	-1.16176	0	
0.4560	0.52653	-0.557646	0	
0.4567	0.225656	1.28568	0	
0.4573	-1.29376	0.371764	0	
0.4580	0.52653	-0.247843	0	
0.4587	0.52653	1.28568	0	
0.4593	-2.52734	4.02745	0	
0.4600	-3.74589	4.94137	0	
0.4607	-3.42997	3.11353	0	
0.4613	-1.29376	2.19961	0	
0.4620	2.97866	3.11353	0	
0.4627	3.5804	2.49392	0	
0.4633	1.14332	-1.16176	0	
0.4640	1.4442	-3.29941	0	
0.4647	2.06099	-0.557646	0	
0.4653	0.842448	3.42333	0	
0.4660	1.4442	3.71764	0	
0.4667	1.14332	0.0619607	0	
0.4673	-1.91055	-2.9896	0	
0.4680	-2.52734	-2.9896	0	
0.4687	0.225656	-2.38549	0	
0.4693	1.14332	-2.6798	0	
0.4700	0.225656	-2.9896	0	
0.4707	-1.60968	-3.29941	0	
0.4713	-1.91055	-3.29941	0	
0.4720	1.4442	-4.21333	0	
0.4727	2.06099	-7.86901	0	
0.4733	-2.21143	-10.3165	0	
0.4740	-3.42997	-9.09274	0	
0.4747	-0.992885	-6.35097	0	
0.4753	-2.21143	-5.12725	0	
0.4760	-3.42997	-5.43705	0	
0.4767	-1.60968	-5.43705	0	
0.4773	-1.29376	-3.29941	0	
0.4780	-1.29376	0.666078	0	
0.4787	-0.391137	3.71764	0	
0.4793	-0.0752186	4.94137	0	
0.4800	-0.0752186	3.71764	0	
0.4807	1.14332	2.19961	0	
0.4813	1.4442	3.11353	0	
0.4820	-0.992885	2.80372	0	
0.4827	-4.34763	-0.557646	0	
0.4833	-1.91055	-1.16176	0	
0.4840	3.27953	2.19961	0	
0.4847	2.97866	4.63156	0	
0.4853	-0.0752186	3.71764	0	
0.4860	0.225656	2.49392	0	
0.4867	-0.692011	1.28568	0	
0.4873	-2.52734	-1.47157	0	
0.4880	-1.60968	-2.38549	0	
0.4887	-1.60968	-1.16176	0	
0.4893	-2.52734	0.0619607	0	
0.4900	-1.60968	-1.47157	0	
0.4907	-1.60968	-2.9896	0	
0.4913	-3.42997	-3.60921	0	
0.4920	-3.42997	-4.21333	0	
0.4927	-2.21143	-4.21333	0	
0.4933	-1.91055	-2.6798	0	
0.4940	-1.60968	-2.38549	0	
0.4947	-1.60968	-4.52313	0	
0.4953	-2.52734	-6.95509	0	
0.4960	-2.52734	-6.35097	0	
0.4967	-0.391137	-3.29941	0	
0.4973	1.14332	-2.38549	0	
0.4980	-0.0752186	-2.38549	0	
0.4987	-0.992885	2.49392	0	
0.4993	1.14332	8.30274	0	
0.5000	1.74507	8.30274	0	
0.5007	-1.60968	6.76921	0	
0.5013	-1.91055	7.68313	0	
0.5020	0.52653	4.33725	0	
0.5027	-0.0752186	-3.29941	0	
0.5033	-0.692011	-6.04117	0	
0.5040	-0.0752186	-4.21333	0	
0.5047	-1.60968	-3.29941	0	
0.5053	-1.29376	-2.9896	0	
0.5060	2.36186	-0.247843	0	
0.5067	2.97866	2.49392	0	
0.5073	0.842448	2.49392	0	
0.5080	-1.29376	-0.85196	0	
0.5087	-2.52734	-5.12725	0	
0.5093	-2.52734	-5.73137	0	
0.5100	-1.91055	-3.29941	0	
0.5107	-3.12909	-1.76588	0	
0.5113	-0.692011	-2.38549	0	
0.5120	1.74507	-4.21333	0	
0.5127	-1.60968	-4.21333	0	
0.5133	-1.29376	-2.6798	0	
0.5140	4.79895	-2.6798	0	
0.5147	3.88128	-2.38549	0	
0.5153	-0.992885	-0.557646	0	
0.5160	2.06099	-0.85196	0	
0.5167	4.1972	-2.07568	0	
0.5173	2.06099	-0.557646	0	
0.5180	2.97866	0.666078	0	
0.5187	3.5804	-0.557646	0	
0.5193	0.52653	0.0619607	0	
0.5200	-0.692011	1.8898	0	
0.5207	-1.60968	2.49392	0	
0.5213	-5.2653	2.80372	0	
0.5220	-4.34763	2.49392	0	
0.5227	-0.692011	2.19961	0	
0.5233	-0.692011	2.19961	0	
0.5240	1.14332	1.28568	0	
0.5247	3.88128	1.28568	0	
0.5253	3.27953	0.371764	0	
0.5260	2.66274	-0.85196	0	
0.5267	5.71661	-0.557646	0	
0.5273	6.63428	0.0619607	0	
0.5280	2.06099	-0.557646	0	
0.5287	-1.60968	-1.16176	0	
0.5293	-0.692011	-0.557646	0	
0.5300	1.14332	0.0619607	0	
0.5307	0.842448	1.28568	0	
0.5313	0.225656	2.19961	0	
0.5320	0.225656	3.11353	0	
0.5327	-0.692011	1.28568	0	
0.5333	-1.91055	-1.47157	0	
0.5340	-3.12909	-1.47157	0	
0.5347	-4.04676	1.28568	0	
0.5353	-4.04676	1.58	0	
0.5360	-3.42997	1.58	0	
0.5367	-1.60968	3.71764	0	
0.5373	2.66274	4.02745	0	
0.5380	3.5804	2.19961	0	
0.5387	1.14332	3.11353	0	
0.5393	-0.0752186	3.11353	0	
0.5400	0.225656	1.28568	0	
0.5407	0.225656	1.28568	0	
0.5413	0.842448	0.975881	0	
0.5420	0.225656	-0.557646	0	
0.5427	-2.52734	-0.557646	0	
0.5433	-1.91055	0.0619607	0	
0.5440	0.842448	0.666078	0	
0.5447	1.4442	3.71764	0	
0.5453	0.225656	3.11353	0	
0.5460	0.225656	-1.16176	0	
0.5467	0.842448	-2.38549	0	
0.5473	0.225656	-3.29941	0	
0.5480	-1.29376	-7.5747	0	
0.5487	-0.391137	-6.66078	0	
0.5493	1.4442	-2.6798	0	
0.5500	0.225656	-3.90353	0	
0.5507	-0.692011	-5.12725	0	
0.5513	0.842448	-3.60921	0	
0.5520	-0.992885	-5.73137	0	
0.5527	-2.21143	-6.66078	0	
0.5533	0.225656	-3.60921	0	
0.5540	-0.992885	-3.60921	0	
0.5547	-4.04676	-4.52313	0	
0.5553	-0.992885	-2.07568	0	
0.5560	1.14332	-2.07568	0	
0.5567	-0.692011	-4.81745	0	
0.5573	-0.992885	-2.07568	0	
0.5580	-0.0752186	2.19961	0	
0.5587	-1.60968	1.58	0	
0.5593	-2.52734	0.975881	0	
0.5600	-2.82822	3.11353	0	
0.5607	-2.82822	4.02745	0	
0.5613	-0.692011	2.19961	0	
0.5620	1.14332	1.28568	0	
0.5627	-0.692011	2.80372	0	
0.5633	0.225656	4.02745	0	
0.5640	1.74507	2.49392	0	
0.5647	-0.391137	0.371764	0	
0.5653	-0.692011	1.28568	0	
0.5660	2.06099	3.42333	0	
0.5667	0.225656	3.42333	0	
0.5673	-3.12909	4.02745	0	
0.5680	-2.21143	3.42333	0	
0.5687	-2.21143	0.371764	0	
0.5693	-4.04676	-1.16176	0	
0.5700	-2.21143	1.58	0	
0.5707	-0.692011	2.19961	0	
0.5713	-1.60968	-0.557646	0	
0.5720	-0.992885	-0.85196	0	
0.5727	0.52653	0.666078	0	
0.5733	-0.692011	0.371764	0	
0.5740	-0.391137	-0.247843	0	
0.5747	1.14332	0.975881	0	
0.5753	0.842448	2.49392	0	
0.5760	0.225656	2.49392	0	
0.5767	0.225656	1.28568	0	
0.5773	-2.21143	1.28568	0	
0.5780	-4.66355	4.02745	0	
0.5787	-4.34763	4.94137	0	
0.5793	-4.34763	2.80372	0	
0.5800	-3.74589	2.19961	0	
0.5807	0.225656	4.94137	0	
0.5813	2.06099	5.54548	0	
0.5820	-1.60968	2.49392	0	
0.5827	-2.52734	1.58	0	
0.5833	0.842448	2.19961	0	
0.5840	0.842448	1.8898	0	
0.5847	-0.391137	1.58	0	
0.5853	0.842448	3.11353	0	
0.5860	-0.692011	3.71764	0	
0.5867	-2.82822	1.58	0	
0.5873	-0.992885	-1.16176	0	
0.5880	-1.91055	-2.6798	0	
0.5887	-5.88209	-2.9896	0	
0.5893	-4.04676	-3.29941	0	
0.5900	-0.692011	-4.21333	0	
0.5907	-1.60968	-6.04117	0	
0.5913	-1.29376	-6.04117	0	
0.5920	0.225656	-6.04117	0	
0.5927	-0.0752186	-6.04117	0	
0.5933	0.225656	-5.12725	0	
0.5940	1.4442	-3.60921	0	
0.5947	-0.0752186	-6.04117	0	
0.5953	-0.992885	-9.09274	0	
0.5960	-1.29376	-6.35097	0	
0.5967	-2.82822	-2.07568	0	
0.5973	-2.52734	-2.6798	0	
0.5980	0.225656	-3.29941	0	
0.5987	1.4442	0.975881	0	
0.5993	0.225656	4.02745	0	
0.6000	-0.992885	1.58	0	
0.6007	-1.60968	0.975881	0	
0.6013	-1.60968	4.02745	0	
0.6020	-0.391137	5.85529	0	
0.6027	0.225656	4.94137	0	
0.6033	-0.692011	2.19961	0	
0.6040	-1.29376	1.28568	0	
0.6047	-1.29376	3.11353	0	
0.6053	-0.692011	1.8898	0	
0.6060	-0.391137	-2.6798	0	
0.6067	-0.992885	-5.12725	0	
0.6073	-1.60968	-5.43705	0	
0.6080	-1.60968	-6.04117	0	
0.6087	-0.692011	-4.21333	0	
0.6093	1.4442	-2.38549	0	
0.6100	3.88128	-3.90353	0	
0.6107	2.66274	-6.35097	0	
0.6113	-0.391137	-7.86901	0	
0.6120	-0.0752186	-9.09274	0	
0.6127	1.14332	-9.09274	0	
0.6133	-0.692011	-6.95509	0	
0.6140	-2.52734	-6.35097	0	
0.6147	-0.692011	-7.86901	0	
0.6153	0.52653	-6.04117	0	
0.6160	-0.391137	-1.16176	0	
0.6167	1.74507	0.371764	0	
0.6173	4.49807	-2.6798	0	
0.6180	2.06099	-3.90353	0	
0.6187	-0.992885	-2.38549	0	
0.6193	1.14332	-0.557646	0	
0.6200	4.79895	2.19961	0	
0.6207	4.49807	4.94137	0	
0.6213	2.66274	6.16509	0	
0.6220	2.97866	5.85529	0	
0.6227	4.49807	4.02745	0	
0.6233	2.97866	2.80372	0	
0.6240	-0.692011	1.28568	0	
0.6247	-0.391137	-0.247843	0	
0.6253	2.36186	0.371764	0	
0.6260	0.225656	2.49392	0	
0.6267	-3.12909	2.80372	0	
0.6273	-2.21143	1.58	0	
0.6280	-1.60968	0.975881	0	
0.6287	-4.66355	1.28568	0	
0.6293	-6.18297	4.02745	0	
0.6300	-4.04676	4.02745	0	
0.6307	-3.12909	-3.60921	0	
0.6313	-2.52734	-8.79842	0	
0.6320	-1.60968	-5.73137	0	
0.6327	-0.692011	-4.81745	0	
0.6333	0.225656	-4.52313	0	
0.6340	0.52653	0.0619607	0	
0.6347	-0.391137	1.58	0	
0.6353	0.225656	-1.76588	0	
0.6360	1.74507	-1.76588	0	
0.6367	0.225656	-1.47157	0	
0.6373	-0.692011	-3.29941	0	
0.6380	1.4442	-1.16176	0	
0.6387	2.97866	4.33725	0	
0.6393	1.74507	4.94137	0	
0.6400	0.225656	2.19961	0	
0.6407	0.225656	0.371764	0	
0.6413	1.4442	1.28568	0	
0.6420	1.74507	3.11353	0	
0.6427	0.52653	4.63156	0	
0.6433	0.842448	4.63156	0	
0.6440	2.06099	3.42333	0	
0.6447	1.74507	0.975881	0	
0.6453	1.14332	-1.47157	0	
0.6460	1.74507	-4.21333	0	
0.6467	1.14332	-7.5747	0	
0.6473	-1.91055	-10.9206	0	
0.6480	-2.52734	-12.7639	0	
0.6487	0.225656	-10.6263	0	
0.6493	-0.0752186	-7.86901	0	
0.6500	-1.29376	-7.86901	0	
0.6507	1.14332	-7.86901	0	
0.6513	3.27953	-6.35097	0	
0.6520	1.14332	-7.86901	0	
0.6527	-0.391137	-10.6263	0	
0.6533	1.14332	-9.09274	0	
0.6540	2.36186	-7.26489	0	
0.6547	1.4442	-8.79842	0	
0.6553	-1.60968	-6.66078	0	
0.6560	-4.66355	-1.47157	0	
0.6567	-4.34763	-0.247843	0	
0.6573	-2.52734	-0.557646	0	
0.6580	-3.12909	0.371764	0	
0.6587	-5.2653	3.42333	0	
0.6593	-7.10063	7.38882	0	
0.6600	-6.18297	6.76921	0	
0.6607	-2.82822	1.28568	0	
0.6613	-1.60968	0.371764	0	
0.6620	-2.82822	3.11353	0	
0.6627	-1.91055	3.11353	0	
0.6633	0.225656	2.80372	0	
0.6640	-1.29376	4.94137	0	
0.6647	-2.52734	4.94137	0	
0.6653	0.52653	2.80372	0	
0.6660	2.36186	0.975881	0	
0.6667	-0.992885	-0.247843	0	
0.6673	-2.21143	-1.16176	0	
0.6680	-0.692011	-2.38549	0	
0.6687	-3.42997	-4.21333	0	
0.6693	-6.18297	-3.29941	0	
0.6700	-2.21143	0.975881	0	
0.6707	1.74507	1.8898	0	
0.6713	-0.692011	-1.76588	0	
0.6720	-3.12909	-2.38549	0	
0.6727	-1.91055	0.371764	0	
0.6733	-1.60968	1.58	0	
0.6740	-1.60968	0.666078	0	
0.6747	0.842448	0.371764	0	
0.6753	2.66274	-0.557646	0	
0.6760	2.97866	-0.85196	0	
0.6767	2.97866	1.58	0	
0.6773	2.97866	4.33725	0	
0.6780	2.36186	3.71764	0	
0.6787	1.74507	1.58	0	
0.6793	0.842448	2.49392	0	
0.6800	-0.391137	5.25117	0	
0.6807	-0.0752186	4.02745	0	
0.6813	2.06099	3.11353	0	
0.6820	2.06099	4.94137	0	
0.6827	1.14332	4.94137	0	
0.6833	2.66274	4.33725	0	
0.6840	2.97866	5.85529	0	
0.6847	-0.992885	5.85529	0	
0.6853	-2.82822	4.33725	0	
0.6860	-0.391137	5.25117	0	
0.6867	-1.60968	5.54548	0	
0.6873	-4.66355	4.63156	0	
0.6880	-3.42997	4.02745	0	
0.6887	-3.42997	2.19961	0	
0.6893	-3.74589	1.28568	0	
0.6900	-0.692011	0.666078	0	
0.6907	0.842448	-3.29941	0	
0.6913	-2.21143	-6.04117	0	
0.6920	-3.42997	-4.21333	0	
0.6927	-2.52734	-2.6798	0	
0.6933	-2.21143	-5.43705	0	
0.6940	-0.692011	-7.86901	0	
0.6947	0.225656	-6.04117	0	
0.6953	0.842448	-2.38549	0	
0.6960	1.14332	-1.76588	0	
0.6967	-0.391137	-2.38549	0	
0.6973	-1.91055	1.58	0	
0.6980	-0.0752186	3.11353	0	
0.6987	0.225656	1.8898	0	
0.6993	-0.992885	4.33725	0	
0.7000	1.14332	5.54548	0	
0.7007	4.79895	0.371764	0	
0.7013	4.1972	-1.16176	0	
0.7020	4.49807	1.8898	0	
0.7027	5.71661	3.11353	0	
0.7033	4.79895	4.02745	0	
0.7040	2.97866	4.02745	0	
0.7047	2.36186	2.80372	0	
0.7053	1.74507	4.02745	0	
0.7060	-0.0752186	4.94137	0	
0.7067	-0.692011	3.71764	0	
0.7073	0.225656	4.33725	0	
0.7080	-0.391137	3.42333	0	
0.7087	-1.91055	-1.16176	0	
0.7093	-2.21143	-2.6798	0	
0.7100	-1.60968	-2.07568	0	
0.7107	-0.992885	-5.73137	0	
0.7113	-0.992885	-8.48862	0	
0.7120	-1.60968	-6.04117	0	
0.7127	-0.692011	-3.60921	0	
0.7133	1.14332	-5.73137	0	
0.7140	0.225656	-6.66078	0	
0.7147	-0.992885	-3.60921	0	
0.7153	0.225656	-2.38549	0	
0.7160	0.225656	-5.12725	0	
0.7167	-0.992885	-5.43705	0	
0.7173	-1.91055	-3.29941	0	
0.7180	-2.21143	-2.9896	0	
0.7187	-0.692011	-1.47157	0	
0.7193	2.36186	1.58	0	
0.7200	2.06099	0.371764	0	
0.7207	-0.992885	-2.9896	0	
0.7213	0.225656	-3.29941	0	
0.7220	3.27953	-2.07568	0	
0.7227	2.36186	-2.38549	0	
0.7233	-0.992885	-1.76588	0	
0.7240	-2.52734	0.0619607	0	
0.7247	-1.29376	1.28568	0	
0.7253	-0.0752186	0.371764	0	
0.7260	0.225656	-1.16176	0	
0.7267	-0.0752186	-2.38549	0	
0.7273	0.225656	-4.21333	0	
0.7280	0.842448	-6.04117	0	
0.7287	0.225656	-5.73137	0	
0.7293	-1.60968	-5.12725	0	
0.7300	-2.21143	-4.81745	0	
0.7307	-1.91055	-3.60921	0	
0.7313	-2.21143	-3.60921	0	
0.7320	-2.52734	-6.04117	0	
0.7327	-1.29376	-6.35097	0	
0.7333	-1.29376	-4.81745	0	
0.7340	-4.04676	-4.52313	0	
0.7347	-5.2653	-5.43705	0	
0.7353	-1.91055	-5.12725	0	
0.7360	1.14332	-2.38549	0	
0.7367	-0.0752186	2.49392	0	
0.7373	-2.52734	6.4749	0	
0.7380	-0.992885	6.76921	0	
0.7387	2.97866	5.25117	0	
0.7393	5.71661	4.02745	0	
0.7400	6.01749	3.11353	0	
0.7407	5.11486	2.19961	0	
0.7413	3.88128	1.28568	0	
0.7420	4.1972	0.371764	0	
0.7427	6.63428	-0.557646	0	
0.7433	6.01749	-0.85196	0	
0.7440	3.5804	-0.85196	0	
0.7447	4.49807	0.0619607	0	
0.7453	6.3334	2.49392	0	
0.7460	2.36186	3.71764	0	
0.7467	-2.52734	0.975881	0	
0.7473	-2.52734	-0.85196	0	
0.7480	-1.60968	0.975881	0	
0.7487	-1.60968	4.02745	0	
0.7493	-0.692011	4.02745	0	
0.7500	-0.992885	0.975881	0	
0.7507	-2.82822	-2.38549	0	
0.7513	-2.52734	-2.38549	0	
0.7520	-0.992885	0.975881	0	
0.7527	-2.21143	3.42333	0	
0.7533	-4.04676	2.19961	0	
0.7540	-4.96443	-1.47157	0	
0.7547	-3.12909	-5.12725	0	
0.7553	-0.0752186	-5.43705	0	
0.7560	-0.692011	-1.47157	0	
0.7567	-1.91055	0.975881	0	
0.7573	-0.692011	0.371764	0	
0.7580	-1.91055	0.666078	0	
0.7587	-4.34763	2.80372	0	
0.7593	-2.21143	4.02745	0	
0.7600	-1.60968	4.94137	0	
0.7607	-3.12909	6.16509	0	
0.7613	-1.29376	4.02745	0	
0.7620	0.52653	2.19961	0	
0.7627	-1.29376	3.11353	0	
0.7633	-1.91055	4.02745	0	
0.7640	-1.60968	4.02745	0	
0.7647	-0.992885	6.4749	0	
0.7653	1.14332	8.59705	0	
0.7660	-0.692011	7.68313	0	
0.7667	-4.04676	5.85529	0	
0.7673	-0.992885	1.28568	0	
0.7680	2.97866	-2.38549	0	
0.7687	2.06099	-0.557646	0	
0.7693	0.225656	0.975881	0	
0.7700	-0.0752186	-5.12725	0	
0.7707	-1.60968	-10.6263	0	
0.7713	-2.52734	-9.40254	0	
0.7720	-1.29376	-6.04117	0	
0.7727	-0.0752186	-3.90353	0	
0.7733	0.225656	-3.60921	0	
0.7740	-1.60968	-4.81745	0	
0.7747	-2.52734	-4.81745	0	
0.7753	-1.60968	-6.04117	0	
0.7760	-0.992885	-7.86901	0	
0.7767	-1.91055	-4.21333	0	
0.7773	-1.29376	-0.557646	0	
0.7780	0.225656	-2.38549	0	
0.7787	-1.29376	-0.247843	0	
0.7793	-4.96443	9.82077	0	
0.7800	-6.18297	15.01	0	
0.7807	-4.66355	12.2682	0	
0.7813	-4.04676	8.30274	0	
0.7820	-5.2653	5.25117	0	
0.7827	-3.42997	3.71764	0	
0.7833	-0.391137	4.02745	0	
0.7840	-1.29376	5.25117	0	
0.7847	-3.42997	4.94137	0	
0.7853	-2.52734	2.80372	0	
0.7860	-2.52734	0.371764	0	
0.7867	-3.12909	-1.76588	0	
0.7873	-0.692011	-3.29941	0	
0.7880	1.4442	-5.43705	0	
0.7887	-0.391137	-7.86901	0	
0.7893	-1.29376	-7.26489	0	
0.7900	-0.0752186	-2.38549	0	
0.7907	-0.0752186	1.28568	0	
0.7913	-1.60968	-1.47157	0	
0.7920	-1.60968	-5.12725	0	
0.7927	0.52653	-3.29941	0	
0.7933	2.06099	-2.07568	0	
0.7940	1.4442	-3.90353	0	
0.7947	0.225656	-2.38549	0	
0.7953	0.225656	1.28568	0	
0.7960	1.14332	1.28568	0	
0.7967	1.14332	-2.38549	0	
0.7973	1.14332	-4.81745	0	
0.7980	1.14332	-3.29941	0	
0.7987	2.06099	-1.76588	0	
0.7993	2.97866	-2.9896	0	
0.8000	2.36186	-1.76588	0	
0.8007	1.14332	0.371764	0	
0.8013	-0.0752186	-3.29941	0	
0.8020	-1.60968	-5.43705	0	
0.8027	-2.52734	0.975881	0	
0.8033	-2.21143	4.94137	0	
0.8040	-1.60968	3.11353	0	
0.8047	-1.60968	3.11353	0	
0.8053	0.225656	4.33725	0	
0.8060	1.14332	1.8898	0	
0.8067	0.225656	0.371764	0	
0.8073	-0.0752186	0.371764	0	
0.8080	1.4442	-0.247843	0	
0.8087	1.74507	1.28568	0	
0.8093	-0.692011	3.71764	0	
0.8100	-2.52734	3.42333	0	
0.8107	-2.82822	2.80372	0	
0.8113	-2.21143	3.11353	0	
0.8120	-2.52734	1.8898	0	
0.8127	-3.12909	-0.557646	0	
0.8133	-2.52734	-3.60921	0	
0.8140	-1.91055	-6.04117	0	
0.8147	-0.0752186	-6.04117	0	
0.8153	0.52653	-4.81745	0	
0.8160	-1.60968	-2.38549	0	
0.8167	-0.992885	-0.247843	0	
0.8173	2.36186	-0.85196	0	
0.8180	1.14332	-1.47157	0	
0.8187	-1.60968	-0.557646	0	
0.8193	-0.0752186	-1.47157	0	
0.8200	0.225656	-0.85196	0	
0.8207	-0.391137	1.8898	0	
0.8213	1.74507	2.19961	0	
0.8220	1.14332	2.19961	0	
0.8227	-0.692011	3.11353	0	
0.8233	1.14332	-0.247843	0	
0.8240	1.14332	-2.6798	0	
0.8247	-2.52734	1.28568	0	
0.8253	-1.60968	2.49392	0	
0.8260	1.14332	-2.6798	0	
0.8267	-0.391137	-3.29941	0	
0.8273	-2.21143	0.371764	0	
0.8280	-1.29376	-0.247843	0	
0.8287	-0.0752186	-4.81745	0	
0.8293	-0.391137	-6.04117	0	
0.8300	-0.992885	-4.52313	0	
0.8307	-0.692011	-5.12725	0	
0.8313	-1.60968	-7.86901	0	
0.8320	-4.34763	-8.48862	0	
0.8327	-4.66355	-6.04117	0	
0.8333	-1.60968	-5.12725	0	
0.8340	-0.692011	-5.12725	0	
0.8347	0.225656	-4.81745	0	
0.8353	1.14332	-4.81745	0	
0.8360	0.225656	-4.52313	0	
0.8367	-0.692011	-2.38549	0	
0.8373	1.74507	0.975881	0	
0.8380	2.97866	3.11353	0	
0.8387	0.52653	2.19961	0	
0.8393	-0.692011	0.371764	0	
0.8400	1.74507	0.371764	0	
0.8407	2.06099	1.28568	0	
0.8413	-1.29376	1.58	0	
0.8420	-1.29376	4.94137	0	
0.8427	0.225656	7.68313	0	
0.8433	-2.52734	5.54548	0	
0.8440	-3.74589	4.02745	0	
0.8447	-0.0752186	5.85529	0	
0.8453	3.5804	4.94137	0	
0.8460	3.88128	0.975881	0	
0.8467	2.97866	-1.47157	0	
0.8473	2.36186	-2.38549	0	
0.8480	2.06099	-2.07568	0	
0.8487	-0.391137	-0.85196	0	
0.8493	-1.60968	-1.16176	0	
0.8500	0.225656	-1.47157	0	
0.8507	0.52653	0.0619607	0	
0.8513	-1.60968	-0.557646	0	
0.8520	-0.692011	-2.38549	0	
0.8527	1.4442	-2.38549	0	
0.8533	1.14332	-1.76588	0	
0.8540	1.14332	-1.76588	0	
0.8547	0.225656	-0.557646	0	
0.8553	-2.21143	1.58	0	
0.8560	-2.52734	2.80372	0	
0.8567	-1.91055	3.11353	0	
0.8573	-2.21143	4.02745	0	
0.8580	-0.692011	4.94137	0	
0.8587	0.225656	3.42333	0	
0.8593	-1.91055	1.8898	0	
0.8600	-2.82822	2.49392	0	
0.8607	-1.60968	3.11353	0	
0.8613	-1.29376	3.11353	0	
0.8620	-1.60968	4.33725	0	
0.8627	-0.992885	4.94137	0	
0.8633	-0.692011	4.94137	0	
0.8640	0.225656	7.07901	0	
0.8647	0.225656	8.30274	0	
0.8653	-0.0752186	5.85529	0	
0.8660	1.4442	2.49392	0	
0.8667	2.66274	0.0619607	0	
0.8673	0.842448	-3.29941	0	
0.8680	-2.52734	-6.04117	0	
0.8687	-2.21143	-7.5747	0	
0.8693	0.52653	-7.5747	0	
0.8700	1.14332	-6.66078	0	
0.8707	0.225656	-6.95509	0	
0.8713	0.52653	-5.12725	0	
0.8720	-0.992885	0.0619607	0	
0.8727	-2.21143	0.975881	0	
0.8733	0.842448	-2.38549	0	
0.8740	2.36186	-4.21333	0	
0.8747	0.225656	-6.35097	0	
0.8753	0.52653	-9.71234	0	
0.8760	0.225656	-9.71234	0	
0.8767	-2.21143	-7.5747	0	
0.8773	-0.692011	-7.26489	0	
0.8780	2.06099	-6.95509	0	
0.8787	0.225656	-3.90353	0	
0.8793	-1.91055	0.371764	0	
0.8800	-1.60968	0.371764	0	
0.8807	-0.692011	-2.38549	0	
0.8813	-0.0752186	-2.6798	0	
0.8820	0.225656	-1.47157	0	
0.8827	0.225656	-2.9896	0	
0.8833	2.66274	-5.12725	0	
0.8840	4.1972	-6.04117	0	
0.8847	1.74507	-6.95509	0	
0.8853	0.842448	-8.79842	0	
0.8860	1.4442	-10.0067	0	
0.8867	0.225656	-8.48862	0	
0.8873	0.225656	-4.52313	0	
0.8880	2.06099	-5.43705	0	
0.8887	1.74507	-10.9206	0	
0.8893	-1.29376	-10.6263	0	
0.8900	-2.52734	-6.04117	0	
0.8907	-0.992885	-6.04117	0	
0.8913	-0.391137	-7.5747	0	
0.8920	-1.60968	-7.26489	0	
0.8927	-2.21143	-7.26489	0	
0.8933	-0.992885	-4.52313	0	
0.8940	-1.60968	-0.247843	0	
0.8947	-2.21143	-1.16176	0	
0.8953	-1.29376	-3.60921	0	
0.8960	-0.992885	-2.38549	0	
0.8967	-0.0752186	-0.85196	0	
0.8973	1.14332	1.28568	0	
0.8980	1.14332	3.11353	0	
0.8987	0.225656	0.975881	0	
0.8993	-1.29376	1.28568	0	
0.9000	-2.82822	5.25117	0	
0.9007	-1.60968	4.33725	0	
0.9013	0.52653	1.58	0	
0.9020	-1.60968	3.71764	0	
0.9027	-2.52734	4.02745	0	
0.9033	0.225656	1.8898	0	
0.9040	-0.692011	2.19961	0	
0.9047	-2.52734	4.33725	0	
0.9053	-0.0752186	5.85529	0	
0.9060	0.225656	6.16509	0	
0.9067	-3.42997	4.63156	0	
0.9073	-4.34763	4.02745	0	
0.9080	-1.91055	4.63156	0	
0.9087	-1.60968	-0.247843	0	
0.9093	-3.74589	-6.35097	0	
0.9100	-3.42997	-6.35097	0	
0.9107	-0.0752186	-4.21333	0	
0.9113	1.4442	-4.81745	0	
0.9120	-0.692011	-4.52313	0	
0.9127	-1.60968	-2.9896	0	
0.9133	-1.60968	-1.47157	0	
0.9140	-1.91055	-1.47157	0	
0.9147	-0.692011	-4.52313	0	
0.9153	2.36186	-4.21333	0	
0.9160	2.36186	0.975881	0	
0.9167	0.225656	3.71764	0	
0.9173	0.225656	0.975881	0	
0.9180	0.842448	-1.47157	0	
0.9187	-0.692011	-1.47157	0	
0.9193	-0.0752186	-1.47157	0	
0.9200	2.36186	-2.38549	0	
0.9207	2.36186	-1.76588	0	
0.9213	0.52653	1.28568	0	
0.9220	0.52653	5.85529	0	
0.9227	1.14332	7.68313	0	
0.9233	-0.391137	7.38882	0	
0.9240	-0.692011	6.76921	0	
0.9247	0.225656	6.4749	0	
0.9253	-0.391137	5.25117	0	
0.9260	-1.91055	3.42333	0	
0.9267	-1.60968	0.975881	0	
0.9273	0.225656	-0.557646	0	
0.9280	0.842448	-0.557646	0	
0.9287	0.225656	-0.247843	0	
0.9293	-0.391137	0.371764	0	
0.9300	-0.0752186	1.8898	0	
0.9307	1.14332	2.19961	0	
0.9313	1.14332	2.19961	0	
0.9320	0.225656	3.11353	0	
0.9327	0.842448	1.8898	0	
0.9333	1.4442	1.28568	0	
0.9340	1.4442	3.11353	0	
0.9347	0.842448	2.80372	0	
0.9353	0.225656	1.8898	0	
0.9360	-0.692011	5.25117	0	
0.9367	-0.692011	7.99293	0	
0.9373	-0.692011	6.4749	0	
0.9380	0.52653	7.07901	0	
0.9387	3.5804	8.90685	0	
0.9393	4.1972	6.76921	0	
0.9400	2.36186	4.94137	0	
0.9407	1.4442	5.85529	0	
0.9413	2.06099	4.94137	0	
0.9420	2.36186	2.49392	0	
0.9427	3.27953	1.8898	0	
0.9433	3.88128	2.19961	0	
0.9440	0.52653	2.19961	0	
0.9447	-2.21143	2.19961	0	
0.9453	0.225656	2.19961	0	
0.9460	2.36186	4.02745	0	
0.9467	-0.391137	4.33725	0	
0.9473	-2.82822	2.80372	0	
0.9480	-2.52734	2.19961	0	
0.9487	-3.12909	1.8898	0	
0.9493	-3.42997	-0.557646	0	
0.9500	-1.91055	-1.16176	0	
0.9507	-2.52734	0.371764	0	
0.9513	-3.42997	-0.557646	0	
0.9520	-0.992885	-2.38549	0	
0.9527	-0.692011	-1.76588	0	
0.9533	-4.04676	-0.557646	0	
0.9540	-4.34763	-1.76588	0	
0.9547	-4.34763	-2.38549	0	
0.9553	-4.96443	-1.47157	0	
0.9560	-2.82822	-1.47157	0	
0.9567	-2.21143	-1.47157	0	
0.9573	-5.88209	0.371764	0	
0.9580	-5.2653	2.19961	0	
0.9587	-1.60968	1.58	0	
0.9593	-2.52734	1.8898	0	
0.9600	-3.74589	5.25117	0	
0.9607	-0.992885	6.76921	0	
0.9613	0.842448	4.94137	0	
0.9620	1.14332	3.11353	0	
0.9627	0.842448	1.58	0	
0.9633	-1.29376	-2.07568	0	
0.9640	-1.60968	-5.12725	0	
0.9647	1.74507	-5.12725	0	
0.9653	1.14332	-2.6798	0	
0.9660	-1.60968	-2.38549	0	
0.9667	-0.391137	-3.60921	0	
0.9673	1.14332	-3.60921	0	
0.9680	1.4442	-2.9896	0	
0.9687	3.27953	-3.29941	0	
0.9693	3.27953	-2.6798	0	
0.9700	0.225656	-4.21333	0	
0.9707	-1.29376	-7.26489	0	
0.9713	-2.52734	-6.35097	0	
0.9720	-4.34763	-3.60921	0	
0.9727	-2.52734	-7.26489	0	
0.9733	-0.992885	-10.9206	0	
0.9740	-1.91055	-8.48862	0	
0.9747	-0.391137	-6.04117	0	
0.9753	0.52653	-8.79842	0	
0.9760	-3.12909	-8.79842	0	
0.9767	-2.52734	-7.26489	0	
0.9773	2.66274	-8.79842	0	
0.9780	2.66274	-8.79842	0	
0.9787	1.74507	-6.35097	0	
0.9793	5.41574	-4.81745	0	
0.9800	5.71661	-2.07568	0	
0.9807	2.36186	0.371764	0	
0.9813	2.06099	-1.76588	0	
0.9820	0.842448	-2.9896	0	
0.9827	-2.52734	0.975881	0	
0.9833	-2.52734	1.28568	0	
0.9840	-1.60968	-1.16176	0	
0.9847	-2.21143	0.371764	0	
0.9853	-0.391137	0.666078	0	
0.9860	1.74507	-0.85196	0	
0.9867	0.52653	0.0619607	0	
0.9873	-1.91055	-0.557646	0	
0.9880	-3.42997	-5.12725	0	
0.9887	-2.52734	-5.43705	0	
0.9893	-0.992885	-3.29941	0	
0.9900	-0.992885	-3.60921	0	
0.9907	-1.60968	-4.81745	0	
0.9913	-0.692011	-5.12725	0	
0.9920	-1.60968	-5.43705	0	
0.9927	-2.21143	-3.29941	0	
0.9933	0.225656	-2.38549	0	
0.9940	0.225656	-5.12725	0	
0.9947	-1.60968	-5.12725	0	
0.9953	-0.0752186	-2.38549	0	
0.9960	1.14332	-1.76588	0	
0.9967	0.842448	-3.29941	0	
0.9973	1.4442	-3.60921	0	
0.9980	0.842448	-1.16176	0	
0.9987	-1.60968	2.19961	0	
0.9993	0.52653	1.8898	0	
1.0000	2.36186	0.371764	0	
1.0007	-1.60968	1.8898	0	
1.0013	-2.52734	2.19961	0	
1.0020	1.14332	0.975881	0	
1.0027	1.14332	2.19961	0	
1.0033	-1.60968	3.11353	0	
1.0040	-0.692011	2.19961	0	
1.0047	-0.692011	2.19961	0	
1.0053	-0.992885	1.58	0	
1.0060	1.14332	-0.247843	0	
1.0067	2.06099	0.666078	0	
1.0073	0.225656	2.49392	0	
1.0080	-0.692011	2.19961	0	
1.0087	0.52653	0.975881	0	
1.0093	-0.391137	-0.247843	0	
1.0100	-1.91055	0.371764	0	
1.0107	-1.91055	2.19961	0	
1.0113	-1.60968	0.371764	0	
1.0120	-2.52734	-1.47157	0	
1.0127	-3.42997	0.666078	0	
1.0133	-2.52734	1.58	0	
1.0140	-2.52734	-0.557646	0	
1.0147	-3.42997	0.666078	0	
1.0153	-3.42997	3.11353	0	
1.0160	-2.21143	-0.85196	0	
1.0167	-2.52734	-5.73137	0	
1.0173	-1.91055	-4.21333	0	
1.0180	0.842448	-2.07568	0	
1.0187	0.842448	0.371764	0	
1.0193	-1.91055	4.33725	0	
1.0200	-0.692011	3.42333	0	
1.0207	2.66274	0.371764	0	
1.0213	1.74507	3.11353	0	
1.0220	0.225656	5.85529	0	
1.0227	0.225656	4.02745	0	
1.0233	-1.29376	5.25117	0	
1.0240	-2.82822	9.21666	0	
1.0247	-1.60968	8.90685	0	
1.0253	-0.0752186	7.07901	0	
1.0260	-0.992885	6.16509	0	
1.0267	-2.52734	4.94137	0	
1.0273	-3.42997	3.42333	0	
1.0280	-2.52734	-0.247843	0	
1.0287	-1.91055	-4.21333	0	
1.0293	-3.12909	-3.29941	0	
1.0300	-3.42997	-2.38549	0	
1.0307	-1.29376	-3.60921	0	
1.0313	-0.992885	-3.90353	0	
1.0320	-1.91055	-2.38549	0	
1.0327	-1.60968	-2.6798	0	
1.0333	-2.21143	-2.07568	0	
1.0340	-4.04676	-0.557646	0	
1.0347	-3.42997	-1.76588	0	
1.0353	-2.52734	-1.47157	0	
1.0360	-4.34763	-0.247843	0	
1.0367	-3.74589	-2.07568	0	
1.0373	0.842448	-2.38549	0	
1.0380	2.97866	1.8898	0	
1.0387	0.842448	3.11353	0	
1.0393	0.225656	0.371764	0	
1.0400	1.14332	2.19961	0	
1.0407	-0.992885	5.25117	0	
1.0413	-4.04676	1.8898	0	
1.0420	-2.52734	-1.16176	0	
1.0427	-0.692011	2.49392	0	
1.0433	-2.21143	5.85529	0	
1.0440	-3.42997	4.63156	0	
1.0447	-2.52734	1.58	0	
1.0453	0.52653	0.0619607	0	
1.0460	2.06099	-0.557646	0	
1.0467	-0.391137	-0.557646	0	
1.0473	-1.91055	-0.85196	0	
1.0480	2.97866	-3.29941	0	
1.0487	6.93515	-6.04117	0	
1.0493	3.5804	-5.12725	0	
1.0500	1.74507	-3.60921	0	
1.0507	4.79895	-4.52313	0	
1.0513	3.88128	-5.12725	0	
1.0520	0.225656	-4.21333	0	
1.0527	1.4442	-4.21333	0	
1.0533	4.79895	-5.12725	0	
1.0540	4.79895	-5.12725	0	
1.0547	3.27953	-3.60921	0	
1.0553	2.66274	-2.9896	0	
1.0560	3.5804	-4.52313	0	
1.0567	4.79895	-6.35097	0	
1.0573	3.5804	-6.04117	0	
1.0580	2.06099	-5.12725	0	
1.0587	2.66274	-4.81745	0	
1.0593	4.1972	-2.38549	0	
1.0600	4.1972	-0.557646	0	
1.0607	4.1972	-0.85196	0	
1.0613	6.3334	1.28568	0	
1.0620	6.93515	3.11353	0	
1.0627	4.49807	1.8898	0	
1.0633	3.27953	2.19961	0	
1.0640	4.1972	5.85529	0	
1.0647	2.66274	8.59705	0	
1.0653	1.4442	8.90685	0	
1.0660	2.36186	7.68313	0	
1.0667	0.52653	5.85529	0	
1.0673	-1.91055	5.54548	0	
1.0680	-2.52734	5.54548	0	
1.0687	-4.34763	4.63156	0	
1.0693	-5.2653	4.94137	0	
1.0700	-1.29376	6.16509	0	
1.0707	0.225656	5.25117	0	
1.0713	-2.82822	2.80372	0	
1.0720	-3.12909	3.11353	0	
1.0727	-2.21143	7.07901	0	
1.0733	-2.82822	7.38882	0	
1.0740	-2.21143	2.49392	0	
1.0747	-2.52734	0.975881	0	
1.0753	-4.34763	2.19961	0	
1.0760	-2.82822	-2.07568	0	
1.0767	-0.391137	-5.12725	0	
1.0773	0.225656	-2.38549	0	
1.0780	2.06099	-0.247843	0	
1.0787	2.97866	0.666078	0	
1.0793	0.225656	3.71764	0	
1.0800	-0.692011	5.85529	0	
1.0807	-1.29376	4.02745	0	
1.0813	-3.12909	0.666078	0	
1.0820	-1.91055	-1.76588	0	
1.0827	0.225656	-2.38549	0	
1.0833	-1.60968	-0.85196	0	
1.0840	-4.04676	2.19961	0	
1.0847	-4.96443	3.71764	0	
1.0853	-3.42997	0.975881	0	
1.0860	-2.52734	-2.07568	0	
1.0867	-3.74589	-2.38549	0	
1.0873	-4.04676	-2.9896	0	
1.0880	-1.91055	-4.21333	0	
1.0887	-3.74589	-4.21333	0	
1.0893	-6.79976	-6.95509	0	
1.0900	-5.2653	-10.0067	0	
1.0907	-4.96443	-8.17881	0	
1.0913	-5.2653	-5.73137	0	
1.0920	-1.91055	-8.17881	0	
1.0927	-0.391137	-10.6263	0	
1.0933	-2.52734	-9.71234	0	
1.0940	-4.34763	-6.66078	0	
1.0947	-5.2653	-3.90353	0	
1.0953	-5.88209	-3.29941	0	
1.0960	-3.42997	-5.12725	0	
1.0967	-1.60968	-5.43705	0	
1.0973	-0.0752186	-2.38549	0	
1.0980	2.06099	-1.16176	0	
1.0987	0.52653	-2.9896	0	
1.0993	-3.12909	-2.6798	0	
1.1000	-1.60968	0.371764	0	
1.1007	0.225656	2.19961	0	
1.1013	-1.60968	3.11353	0	
1.1020	-3.74589	4.02745	0	
1.1027	-4.34763	2.19961	0	
1.1033	-4.96443	0.666078	0	
1.1040	-3.42997	1.28568	0	
1.1047	-1.29376	1.28568	0	
1.1053	-1.60968	1.28568	0	
1.1060	-0.0752186	2.49392	0	
1.1067	2.66274	1.28568	0	
1.1073	1.14332	-0.557646	0	
1.1080	-0.692011	-1.16176	0	
1.1087	0.842448	-4.81745	0	
1.1093	-0.692011	-9.71234	0	
1.1100	-3.12909	-7.86901	0	
1.1107	-2.52734	-3.60921	0	
1.1113	-3.12909	-4.52313	0	
1.1120	-2.52734	-5.43705	0	
1.1127	2.06099	-4.21333	0	
1.1133	2.97866	-5.12725	0	
1.1140	-0.0752186	-5.12725	0	
1.1147	1.74507	-3.29941	0	
1.1153	3.88128	-2.38549	0	
1.1160	2.06099	-2.6798	0	
1.1167	5.41574	-1.16176	0	
1.1173	8.77049	-0.247843	0	
1.1180	4.49807	-3.29941	0	
1.1187	2.97866	-4.52313	0	
1.1193	7.25107	-0.85196	0	
1.1200	6.93515	0.666078	0	
1.1207	3.88128	-1.76588	0	
1.1213	4.79895	-2.38549	0	
1.1220	4.79895	-2.07568	0	
1.1227	1.4442	-3.29941	0	
1.1233	2.97866	-3.60921	0	
1.1240	6.01749	-2.9896	0	
1.1247	4.79895	-2.9896	0	
1.1253	2.97866	-1.76588	0	
1.1260	4.79895	-1.47157	0	
1.1267	4.49807	-4.52313	0	
1.1273	2.97866	-6.35097	0	
1.1280	3.5804	-5.12725	0	
1.1287	3.88128	-4.81745	0	
1.1293	2.06099	-5.73137	0	
1.1300	1.4442	-5.73137	0	
1.1307	2.97866	-5.73137	0	
1.1313	2.97866	-4.21333	0	
1.1320	-1.60968	-2.38549	0	
1.1327	-6.18297	-3.29941	0	
1.1333	-6.18297	-4.21333	0	
1.1340	-3.42997	-1.47157	0	
1.1347	-3.12909	-0.557646	0	
1.1353	-2.82822	-2.38549	0	
1.1360	-0.992885	-2.6798	0	
1.1367	0.52653	-1.47157	0	
1.1373	0.225656	0.666078	0	
1.1380	0.225656	2.19961	0	
1.1387	2.66274	0.666078	0	
1.1393	2.06099	-0.557646	0	
1.1400	-1.60968	1.28568	0	
1.1407	-0.992885	1.58	0	
1.1413	2.06099	0.371764	0	
1.1420	1.14332	0.975881	0	
1.1427	0.225656	0.371764	0	
1.1433	3.27953	-1.47157	0	
1.1440	4.79895	-0.557646	0	
1.1447	3.88128	1.58	0	
1.1453	2.06099	3.42333	0	
1.1460	-0.992885	5.25117	0	
1.1467	-1.60968	3.42333	0	
1.1473	-0.992885	-2.6798	0	
1.1480	-3.12909	-5.43705	0	
1.1487	-3.42997	-3.29941	0	
1.1493	0.225656	-1.47157	0	
1.1500	1.14332	-2.38549	0	
1.1507	-0.391137	-3.29941	0	
1.1513	-0.692011	-3.29941	0	
1.1520	-0.692011	-3.29941	0	
1.1527	-1.91055	-1.47157	0	
1.1533	-2.82822	1.28568	0	
1.1540	-1.60968	-0.85196	0	
1.1547	-1.60968	-4.21333	0	
1.1553	-3.42997	-2.07568	0	
1.1560	-3.12909	-0.85196	0	
1.1567	-2.52734	-2.9896	0	
1.1573	-4.34763	-0.85196	0	
1.1580	-3.42997	2.19961	0	
1.1587	-0.692011	1.8898	0	
1.1593	-0.992885	4.94137	0	
1.1600	-1.60968	6.4749	0	
1.1607	0.225656	1.28568	0	
1.1613	0.225656	-0.85196	0	
1.1620	0.225656	3.11353	0	
1.1627	1.14332	5.85529	0	
1.1633	0.52653	6.16509	0	
1.1640	-1.29376	4.94137	0	
1.1647	-1.29376	3.11353	0	
1.1653	-0.692011	3.42333	0	
1.1660	-0.992885	3.11353	0	
1.1667	-3.42997	0.371764	0	
1.1673	-4.34763	0.371764	0	
1.1680	-2.21143	3.11353	0	
1.1687	0.52653	4.02745	0	
1.1693	0.225656	3.42333	0	
1.1700	-1.60968	0.975881	0	
1.1707	-2.82822	-2.6798	0	
1.1713	-2.21143	-2.07568	0	
1.1720	-1.60968	0.0619607	0	
1.1727	-4.96443	-1.47157	0	
1.1733	-7.10063	-2.6798	0	
1.1740	-2.21143	-1.76588	0	
1.1747	2.06099	-3.29941	0	
1.1753	-0.692011	-5.43705	0	
1.1760	-1.91055	-5.43705	0	
1.1767	0.52653	-4.21333	0	
1.1773	-0.0752186	-2.07568	0	
1.1780	-0.692011	-0.247843	0	
1.1787	1.14332	-1.16176	0	
1.1793	1.74507	-1.47157	0	
1.1800	0.52653	2.19961	0	
1.1807	0.225656	6.4749	0	
1.1813	-2.21143	4.94137	0	
1.1820	-2.21143	2.49392	0	
1.1827	1.4442	4.63156	0	
1.1833	1.74507	7.68313	0	
1.1840	0.225656	6.76921	0	
1.1847	1.14332	5.54548	0	
1.1853	1.14332	6.76921	0	
1.1860	-0.0752186	8.90685	0	
1.1867	-0.992885	10.4404	0	
1.1873	-2.52734	8.59705	0	
1.1880	-3.12909	3.11353	0	
1.1887	-0.692011	2.80372	0	
1.1893	-0.692011	5.85529	0	
1.1900	-1.60968	4.02745	0	
1.1907	-0.992885	0.371764	0	
1.1913	-2.21143	1.28568	0	
1.1920	-2.52734	2.49392	0	
1.1927	0.225656	1.8898	0	
1.1933	-0.0752186	1.28568	0	
1.1940	-2.21143	-1.76588	0	
1.1947	-0.692011	-6.35097	0	
1.1953	0.842448	-7.86901	0	
1.1960	-0.0752186	-5.43705	0	
1.1967	1.14332	-2.38549	0	
1.1973	1.14332	-1.16176	0	
1.1980	-1.60968	-1.16176	0	
1.1987	-0.992885	-1.47157	0	
1.1993	0.225656	-1.76588	0	
1.2000	-1.60968	-1.76588	0	
1.2007	-0.391137	-0.557646	0	
1.2013	2.06099	-0.247843	0	
1.2020	-0.0752186	-1.16176	0	
1.2027	-0.992885	-0.247843	0	
1.2033	-0.692011	0.371764	0	
1.2040	-2.82822	-1.47157	0	
1.2047	-1.60968	-1.47157	0	
1.2053	1.74507	-1.16176	0	
1.2060	1.14332	-4.21333	0	
1.2067	0.225656	-6.04117	0	
1.2073	0.52653	-4.52313	0	
1.2080	-0.391137	-3.60921	0	
1.2087	0.52653	-3.29941	0	
1.2093	1.4442	-3.60921	0	
1.2100	-0.692011	-3.60921	0	
1.2107	-1.60968	-0.247843	0	
1.2113	-1.60968	3.42333	0	
1.2120	-3.42997	1.58	0	
1.2127	-4.04676	-2.6798	0	
1.2133	-4.04676	-3.29941	0	
1.2140	-5.2653	-2.07568	0	
1.2147	-2.21143	-1.47157	0	
1.2153	1.4442	-0.85196	0	
1.2160	-0.0752186	-0.557646	0	
1.2167	-1.60968	0.0619607	0	
1.2173	0.225656	2.19961	0	
1.2180	1.14332	4.33725	0	
1.2187	-0.0752186	4.63156	0	
1.2193	-0.992885	4.02745	0	
1.2200	-0.992885	2.19961	0	
1.2207	-0.692011	0.371764	0	
1.2213	-0.692011	0.371764	0	
1.2220	-0.0752186	1.8898	0	
1.2227	0.842448	2.49392	0	
1.2233	0.225656	1.8898	0	
1.2240	-0.0752186	2.19961	0	
1.2247	0.225656	3.42333	0	
1.2253	0.225656	3.11353	0	
1.2260	1.14332	4.02745	0	
1.2267	1.14332	7.68313	0	
1.2273	-1.60968	8.30274	0	
1.2280	-3.74589	4.33725	0	
1.2287	-3.42997	3.71764	0	
1.2293	-3.42997	4.94137	0	
1.2300	-3.12909	3.42333	0	
1.2307	-2.82822	3.11353	0	
1.2313	-3.12909	4.63156	0	
1.2320	-1.60968	3.11353	0	
1.2327	-1.91055	-0.557646	0	
1.2333	-5.88209	-3.60921	0	
1.2340	-3.74589	-8.48862	0	
1.2347	0.225656	-12.4541	0	
1.2353	-2.82822	-11.2304	0	
1.2360	-4.66355	-6.95509	0	
1.2367	-0.391137	-5.12725	0	
1.2373	-0.992885	-6.66078	0	
1.2380	-2.82822	-5.73137	0	
1.2387	0.842448	-1.47157	0	
1.2393	2.06099	-0.557646	0	
1.2400	-0.992885	-1.76588	0	
1.2407	-1.91055	2.19961	0	
1.2413	-1.91055	5.54548	0	
1.2420	-2.52734	0.975881	0	
1.2427	-2.21143	-1.47157	0	
1.2433	-3.42997	1.8898	0	
1.2440	-4.34763	-0.557646	0	
1.2447	-2.21143	-6.04117	0	
1.2453	-0.692011	-3.29941	0	
1.2460	-3.42997	-0.557646	0	
1.2467	-3.12909	-1.76588	0	
1.2473	1.14332	-2.38549	0	
1.2480	2.36186	-3.29941	0	
1.2487	-1.29376	-7.26489	0	
1.2493	-3.42997	-8.79842	0	
1.2500	-2.52734	-8.79842	0	
1.2507	-1.91055	-9.71234	0	
1.2513	-2.21143	-7.86901	0	
1.2520	-4.04676	-3.29941	0	
1.2527	-8.0183	-2.6798	0	
1.2533	-8.93597	-3.60921	0	
1.2540	-6.48384	-1.16176	0	
1.2547	-5.2653	1.28568	0	
1.2553	-3.74589	0.666078	0	
1.2560	-1.60968	-0.247843	0	
1.2567	-4.34763	-2.6798	0	
1.2573	-6.48384	-5.43705	0	
1.2580	-2.21143	-6.35097	0	
1.2587	0.225656	-6.66078	0	
1.2593	-1.60968	-6.04117	0	
1.2600	-0.0752186	-3.90353	0	
1.2607	1.14332	-2.6798	0	
1.2613	-2.21143	-1.16176	0	
1.2620	-3.42997	2.19961	0	
1.2627	1.14332	1.28568	0	
1.2633	3.88128	0.0619607	0	
1.2640	0.842448	4.02745	0	
1.2647	-2.52734	6.4749	0	
1.2653	-2.21143	4.94137	0	
1.2660	-0.992885	7.07901	0	
1.2667	-2.21143	8.90685	0	
1.2673	-1.60968	6.4749	0	
1.2680	0.52653	4.94137	0	
1.2687	-0.391137	2.19961	0	
1.2693	-0.992885	-4.52313	0	
1.2700	0.225656	-6.95509	0	
1.2707	0.842448	-4.81745	0	
1.2713	-0.0752186	-5.12725	0	
1.2720	0.225656	-5.12725	0	
1.2727	2.06099	-1.47157	0	
1.2733	2.36186	-0.247843	0	
1.2740	1.74507	-1.76588	0	
1.2747	2.66274	-4.21333	0	
1.2753	3.88128	-7.26489	0	
1.2760	1.14332	-6.66078	0	
1.2767	-1.60968	-4.21333	0	
1.2773	2.36186	-9.40254	0	
1.2780	4.79895	-15.5057	0	
1.2787	1.14332	-11.5402	0	
1.2793	0.225656	-4.52313	0	
1.2800	2.97866	-3.29941	0	
1.2807	3.88128	-2.38549	0	
1.2813	3.5804	1.28568	0	
1.2820	3.88128	2.80372	0	
1.2827	2.66274	3.11353	0	
1.2833	0.842448	4.02745	0	
1.2840	1.14332	4.63156	0	
1.2847	2.36186	4.94137	0	
1.2853	2.66274	4.02745	0	
1.2860	1.4442	1.28568	0	
1.2867	1.4442	-2.9896	0	
1.2873	3.27953	-4.81745	0	
1.2880	2.36186	-2.6798	0	
1.2887	-1.29376	-1.47157	0	
1.2893	-1.29376	-3.90353	0	
1.2900	1.74507	-4.21333	0	
1.2907	2.97866	-1.47157	0	
1.2913	2.36186	-0.247843	0	
1.2920	0.52653	-1.47157	0	
1.2927	-0.391137	-2.07568	0	
1.2933	0.52653	-1.76588	0	
1.2940	0.842448	-1.76588	0	
1.2947	0.52653	-3.29941	0	
1.2953	1.74507	-6.04117	0	
1.2960	1.4442	-5.12725	0	
1.2967	-0.992885	-0.557646	0	
1.2973	-0.391137	2.19961	0	
1.2980	2.97866	2.49392	0	
1.2987	2.97866	2.80372	0	
1.2993	1.74507	4.63156	0	
1.3000	2.36186	6.4749	0	
1.3007	3.88128	4.33725	0	
1.3013	4.49807	1.58	0	
1.3020	3.88128	3.42333	0	
1.3027	4.1972	4.94137	0	
1.3033	6.93515	2.19961	0	
1.3040	8.46961	1.8898	0	
1.3047	5.11486	4.33725	0	
1.3053	2.97866	0.975881	0	
1.3060	5.11486	-4.81745	0	
1.3067	3.27953	-5.12725	0	
1.3073	-2.21143	-1.47157	0	
1.3080	-3.42997	2.49392	0	
1.3087	-1.29376	4.33725	0	
1.3093	-0.692011	2.19961	0	
1.3100	-0.0752186	0.666078	0	
1.3107	-0.692011	1.28568	0	
1.3113	-1.60968	0.975881	0	
1.3120	1.14332	0.0619607	0	
1.3127	2.66274	0.975881	0	
1.3133	-0.0752186	2.80372	0	
1.3140	-0.692011	4.02745	0	
1.3147	1.14332	4.02745	0	
1.3153	0.225656	3.11353	0	
1.3160	-0.391137	4.02745	0	
1.3167	1.4442	4.94137	0	
1.3173	2.06099	4.02745	0	
1.3180	1.74507	4.02745	0	
1.3187	0.52653	4.94137	0	
1.3193	-1.29376	5.25117	0	
1.3200	-0.692011	6.16509	0	
1.3207	2.06099	7.38882	0	
1.3213	2.06099	5.54548	0	
1.3220	0.842448	4.02745	0	
1.3227	2.06099	4.63156	0	
1.3233	2.06099	5.54548	0	
1.3240	-0.0752186	7.68313	0	
1.3247	-2.21143	10.1306	0	
1.3253	-2.52734	9.82077	0	
1.3260	-2.21143	7.38882	0	
1.3267	-2.52734	5.85529	0	
1.3273	-2.52734	4.94137	0	
1.3280	-2.52734	3.42333	0	
1.3287	-2.52734	2.19961	0	
1.3293	-2.52734	2.49392	0	
1.3300	-1.29376	1.8898	0	
1.3307	-1.29376	-1.47157	0	
1.3313	-2.82822	-3.29941	0	
1.3320	-4.34763	-1.76588	0	
1.3327	-5.88209	-0.85196	0	
1.3333	-7.10063	-2.6798	0	
1.3340	-5.2653	-3.60921	0	
1.3347	-1.29376	-0.85196	0	
1.3353	0.52653	1.28568	0	
1.3360	-1.60968	0.371764	0	
1.3367	-3.74589	0.0619607	0	
1.3373	-2.82822	2.49392	0	
1.3380	0.225656	4.02745	0	
1.3387	1.14332	0.371764	0	
1.3393	-0.0752186	-3.90353	0	
1.3400	0.52653	-5.12725	0	
1.3407	0.52653	-3.29941	0	
1.3413	-1.60968	-0.557646	0	
1.3420	-1.91055	0.975881	0	
1.3427	-1.91055	-0.247843	0	
1.3433	-2.82822	-2.9896	0	
1.3440	0.225656	-2.38549	0	
1.3447	3.27953	0.975881	0	
1.3453	0.52653	2.19961	0	
1.3460	-1.60968	0.371764	0	
1.3467	-0.0752186	-0.557646	0	
1.3473	-0.692011	-1.76588	0	
1.3480	-1.91055	-4.21333	0	
1.3487	-0.391137	-3.90353	0	
1.3493	-0.692011	-2.38549	0	
1.3500	-1.60968	-2.6798	0	
1.3507	0.225656	-3.29941	0	
1.3513	2.06099	-2.38549	0	
1.3520	-0.992885	-2.07568	0	
1.3527	-4.96443	0.0619607	0	
1.3533	-1.60968	2.19961	0	
1.3540	4.1972	0.975881	0	
1.3547	3.88128	-1.76588	0	
1.3553	0.842448	-2.38549	0	
1.3560	2.06099	-3.29941	0	
1.3567	2.36186	-3.29941	0	
1.3573	-0.391137	-2.38549	0	
1.3580	0.842448	-2.38549	0	
1.3587	2.06099	-1.47157	0	
1.3593	-0.0752186	0.666078	0	
1.3600	0.842448	0.975881	0	
1.3607	2.97866	-1.16176	0	
1.3613	-1.91055	-1.47157	0	
1.3620	-8.93597	-1.47157	0	
1.3627	-7.70238	-2.9896	0	
1.3633	-0.992885	-2.38549	0	
1.3640	2.36186	-0.557646	0	
1.3647	1.4442	-1.47157	0	
1.3653	2.97866	-2.38549	0	
1.3660	6.63428	0.666078	0	
1.3667	6.63428	6.76921	0	
1.3673	3.88128	9.21666	0	
1.3680	2.06099	6.16509	0	
1.3687	-1.29376	0.666078	0	
1.3693	-1.29376	-2.6798	0	
1.3700	8.15369	-3.29941	0	
1.3707	12.1252	-2.38549	0	
1.3713	3.5804	-2.6798	0	
1.3720	-2.52734	-2.6798	0	
1.3727	-3.74589	-0.85196	0	
1.3733	-8.31917	0.975881	0	
1.3740	-10.1545	0.371764	0	
1.3747	-6.79976	-1.47157	0	
1.3753	-8.31917	-5.12725	0	
1.3760	-12.8925	-10.3165	0	
1.3767	-10.4554	-12.4541	0	
1.3773	-3.42997	-9.09274	0	
1.3780	1.4442	-2.6798	0	
1.3787	2.66274	3.11353	0	
1.3793	0.842448	5.85529	0	
1.3800	-0.391137	6.4749	0	
1.3807	-2.52734	4.02745	0	
1.3813	-5.88209	-1.76588	0	
1.3820	-4.66355	-8.79842	0	
1.3827	-1.60968	-10.6263	0	
1.3833	-3.12909	-8.48862	0	
1.3840	-4.66355	-7.86901	0	
1.3847	-3.12909	-7.86901	0	
1.3853	-4.04676	-6.04117	0	
1.3860	-5.88209	-6.35097	0	
1.3867	-3.74589	-7.5747	0	
1.3873	-1.60968	-6.04117	0	
1.3880	-1.60968	-8.48862	0	
1.3887	-2.52734	-13.0582	0	
1.3893	-1.60968	-11.5402	0	
1.3900	-0.992885	-8.48862	0	
1.3907	-3.12909	-10.0067	0	
1.3913	-5.2653	-10.6263	0	
1.3920	-3.42997	-7.26489	0	
1.3927	-1.91055	-6.95509	0	
1.3933	-3.12909	-8.48862	0	
1.3940	-2.52734	-6.95509	0	
1.3947	-0.692011	-6.04117	0	
1.3953	-0.391137	-6.04117	0	
1.3960	1.14332	-1.47157	0	
1.3967	3.5804	2.19961	0	
1.3973	2.97866	-0.557646	0	
1.3980	1.14332	-2.38549	0	
1.3987	2.36186	1.28568	0	
1.3993	4.79895	4.63156	0	
1.4000	4.49807	7.38882	0	
1.4007	2.97866	10.7347	0	
1.4013	2.66274	11.0445	0	
1.4020	3.88128	8.30274	0	
1.4027	5.11486	7.68313	0	
1.4033	5.11486	5.54548	0	
1.4040	3.5804	0.371764	0	
1.4047	0.842448	-0.85196	0	
1.4053	0.225656	1.8898	0	
1.4060	2.36186	3.11353	0	
1.4067	2.36186	1.8898	0	
1.4073	1.14332	0.371764	0	
1.4080	1.14332	0.371764	0	
1.4087	0.52653	0.371764	0	
1.4093	-2.52734	-2.07568	0	
1.4100	-2.82822	-2.9896	0	
1.4107	-0.391137	0.0619607	0	
1.4113	-1.29376	0.371764	0	
1.4120	-1.29376	-2.9896	0	
1.4127	1.4442	-2.6798	0	
1.4133	1.74507	0.371764	0	
1.4140	0.225656	0.666078	0	
1.4147	2.06099	1.58	0	
1.4153	0.842448	4.02745	0	
1.4160	-2.82822	2.80372	0	
1.4167	-2.52734	-0.85196	0	
1.4173	-0.692011	-0.557646	0	
1.4180	-1.60968	3.11353	0	
1.4187	-1.60968	4.02745	0	
1.4193	-0.692011	2.49392	0	
1.4200	-0.692011	3.11353	0	
1.4207	-0.692011	4.02745	0	
1.4213	-1.60968	5.25117	0	
1.4220	-2.52734	7.38882	0	
1.4227	-0.992885	5.54548	0	
1.4233	1.74507	2.80372	0	
1.4240	0.842448	4.94137	0	
1.4247	-0.692011	4.63156	0	
1.4253	1.14332	-2.07568	0	
1.4260	2.06099	-2.38549	0	
1.4267	-0.0752186	5.54548	0	
1.4273	0.225656	9.82077	0	
1.4280	1.14332	6.76921	0	
1.4287	-0.992885	2.19961	0	
1.4293	-4.34763	0.371764	0	
1.4300	-4.34763	1.8898	0	
1.4307	-4.96443	3.11353	0	
1.4313	-6.18297	1.58	0	
1.4320	-4.96443	2.19961	0	
1.4327	-2.52734	2.19961	0	
1.4333	-1.60968	-0.85196	0	
1.4340	-2.52734	-2.6798	0	
1.4347	-4.34763	-1.47157	0	
1.4353	-4.34763	-3.60921	0	
1.4360	-1.29376	-6.66078	0	
1.4367	-0.391137	-6.04117	0	
1.4373	-2.21143	-5.43705	0	
1.4380	-2.21143	-6.04117	0	
1.4387	-1.60968	-2.9896	0	
1.4393	-3.12909	0.0619607	0	
1.4400	-3.42997	0.371764	0	
1.4407	-1.91055	2.19961	0	
1.4413	0.225656	4.33725	0	
1.4420	1.74507	3.11353	0	
1.4427	1.4442	1.28568	0	
1.4433	0.842448	3.11353	0	
1.4440	0.225656	4.94137	0	
1.4447	0.225656	4.94137	0	
1.4453	3.27953	4.63156	0	
1.4460	4.49807	1.28568	0	
1.4467	-0.692011	-3.29941	0	
1.4473	-2.82822	-6.66078	0	
1.4480	1.14332	-6.95509	0	
1.4487	1.14332	-4.21333	0	
1.4493	-0.692011	-2.6798	0	
1.4500	2.06099	-4.81745	0	
1.4507	2.36186	-6.04117	0	
1.4513	-2.21143	-2.9896	0	
1.4520	-3.42997	-1.16176	0	
1.4527	-2.52734	-3.29941	0	
1.4533	-4.34763	-5.12725	0	
1.4540	-3.42997	-3.29941	0	
1.4547	-1.29376	-0.85196	0	
1.4553	-0.391137	0.666078	0	
1.4560	-0.692011	2.80372	0	
1.4567	-3.12909	4.33725	0	
1.4573	-5.88209	4.94137	0	
1.4580	-6.18297	6.16509	0	
1.4587	-7.10063	8.59705	0	
1.4593	-9.23684	9.52646	0	
1.4600	-4.34763	8.59705	0	
1.4607	4.79895	8.90685	0	
1.4613	6.93515	9.52646	0	
1.4620	3.27953	4.94137	0	
1.4627	2.97866	-2.38549	0	
1.4633	5.71661	-7.5747	0	
1.4640	5.71661	-9.71234	0	
1.4647	2.97866	-10.0067	0	
1.4653	2.36186	-7.5747	0	
1.4660	2.97866	-2.38549	0	
1.4667	2.66274	0.0619607	0	
1.4673	2.97866	-1.47157	0	
1.4680	3.5804	-2.38549	0	
1.4687	2.97866	-2.38549	0	
1.4693	0.52653	-4.52313	0	
1.4700	-3.12909	-6.04117	0	
1.4707	-6.48384	-6.04117	0	
1.4713	-7.40151	-7.86901	0	
1.4720	-5.2653	-7.86901	0	
1.4727	-3.42997	-5.73137	0	
1.4733	-2.82822	-7.26489	0	
1.4740	-0.692011	-7.86901	0	
1.4747	0.842448	-3.60921	0	
1.4753	-2.21143	-4.81745	0	
1.4760	-5.56617	-9.09274	0	
1.4767	-2.52734	-6.35097	0	
1.4773	0.52653	-3.90353	0	
1.4780	-0.992885	-5.73137	0	
1.4787	-1.91055	-3.90353	0	
1.4793	-1.29376	-2.9896	0	
1.4800	-0.391137	-6.95509	0	
1.4807	2.36186	-4.81745	0	
1.4813	2.97866	-0.557646	0	
1.4820	0.225656	-3.60921	0	
1.4827	0.225656	-5.73137	0	
1.4833	1.74507	-2.07568	0	
1.4840	-1.29376	-0.557646	0	
1.4847	-5.2653	-0.557646	0	
1.4853	-4.34763	0.371764	0	
1.4860	1.74507	1.8898	0	
1.4867	6.01749	3.11353	0	
1.4873	1.4442	3.71764	0	
1.4880	-5.88209	1.28568	0	
1.4887	-6.18297	-1.76588	0	
1.4893	-3.74589	-1.47157	0	
1.4900	-5.88209	0.0619607	0	
1.4907	-7.10063	0.371764	0	
1.4913	-6.18297	-1.47157	0	
1.4920	-6.18297	-2.6798	0	
1.4927	-5.56617	-0.557646	0	
1.4933	-2.82822	2.19961	0	
1.4940	-0.0752186	1.8898	0	
1.4947	1.74507	2.19961	0	
1.4953	2.66274	4.02745	0	
1.4960	3.5804	4.02745	0	
1.4967	4.79895	3.71764	0	
1.4973	6.63428	3.11353	0	
1.4980	12.742	4.02745	0	
1.4987	20.986	6.76921	0	
1.4993	25.5593	7.68313	0	
1.5000	24.0248	4.94137	0	
1.5007	16.7136	3.42333	0	
1.5013	5.41574	4.02745	0	
1.5020	-1.29376	2.19961	0	
1.5027	-6.48384	0.975881	0	
1.5033	-18.6993	4.02745	0	
1.5040	-29.9821	5.85529	0	
1.5047	-34.5705	3.71764	0	
1.5053	-37.3084	1.8898	0	
1.5060	-32.4342	0.666078	0	
1.5067	-12.8925	1.28568	0	
1.5073	5.41574	4.33725	0	
1.5080	8.15369	6.16509	0	
1.5087	2.36186	4.94137	0	
1.5093	-0.992885	3.11353	0	
1.5100	2.36186	-0.247843	0	
1.5107	9.07136	-2.07568	0	
1.5113	9.38728	-0.557646	0	
1.5120	3.88128	-1.47157	0	
1.5127	-1.60968	-3.60921	0	
1.5133	-3.42997	-2.07568	0	
1.5140	-1.60968	0.371764	0	
1.5147	1.4442	-0.247843	0	
1.5153	1.4442	-2.6798	0	
1.5160	0.225656	-4.21333	0	
1.5167	2.06099	-3.29941	0	
1.5173	3.5804	-2.38549	0	
1.5180	2.66274	-1.47157	0	
1.5187	0.52653	0.975881	0	
1.5193	0.52653	3.11353	0	
1.5200	1.4442	3.11353	0	
1.5207	1.14332	2.49392	0	
1.5213	0.225656	2.19961	0	
1.5220	-0.391137	0.975881	0	
1.5227	-2.52734	1.58	0	
1.5233	-3.42997	1.28568	0	
1.5240	2.66274	-1.76588	0	
1.5247	7.85282	-2.07568	0	
1.5253	5.41574	-0.247843	0	
1.5260	2.97866	-0.557646	0	
1.5267	3.88128	0.371764	0	
1.5273	2.97866	1.58	0	
1.5280	1.74507	-1.76588	0	
1.5287	1.74507	-4.81745	0	
1.5293	0.52653	-4.81745	0	
1.5300	0.225656	-6.95509	0	
1.5307	1.14332	-9.40254	0	
1.5313	1.14332	-6.95509	0	
1.5320	3.27953	-3.90353	0	
1.5327	7.55194	-4.21333	0	
1.5333	6.01749	-5.12725	0	
1.5340	2.97866	-5.12725	0	
1.5347	4.1972	-4.81745	0	
1.5353	4.1972	-5.12725	0	
1.5360	1.4442	-5.12725	0	
1.5367	2.36186	-4.21333	0	
1.5373	4.79895	-2.07568	0	
1.5380	2.97866	0.371764	0	
1.5387	0.52653	0.975881	0	
1.5393	1.74507	0.975881	0	
1.5400	3.27953	2.19961	0	
1.5407	3.27953	-0.247843	0	
1.5413	2.97866	-4.21333	0	
1.5420	2.06099	-3.29941	0	
1.5427	2.06099	-0.85196	0	
1.5433	0.842448	-1.76588	0	
1.5440	-0.692011	-2.38549	0	
1.5447	-0.391137	-1.47157	0	
1.5453	0.225656	-4.21333	0	
1.5460	-0.0752186	-7.86901	0	
1.5467	-0.0752186	-6.95509	0	
1.5473	-1.60968	-6.66078	0	
1.5480	-3.74589	-9.40254	0	
1.5487	-1.60968	-8.79842	0	
1.5493	0.52653	-5.73137	0	
1.5500	-0.692011	-4.81745	0	
1.5507	-0.0752186	-5.73137	0	
1.5513	1.14332	-6.95509	0	
1.5520	-0.692011	-8.79842	0	
1.5527	-1.91055	-7.5747	0	
1.5533	-1.60968	-3.60921	0	
1.5540	-3.42997	-2.6798	0	
1.5547	-3.12909	-4.21333	0	
1.5553	0.842448	-4.52313	0	
1.5560	2.66274	-2.6798	0	
1.5567	2.06099	-0.247843	0	
1.5573	2.66274	0.371764	0	
1.5580	2.97866	0.0619607	0	
1.5587	2.06099	2.80372	0	
1.5593	2.97866	6.76921	0	
1.5600	3.88128	7.68313	0	
1.5607	2.97866	8.59705	0	
1.5613	0.842448	11.6486	0	
1.5620	-1.60968	13.4919	0	
1.5627	-1.60968	13.7863	0	
1.5633	-0.0752186	15.6296	0	
1.5640	0.842448	16.8378	0	
1.5647	-0.0752186	15.01	0	
1.5653	-2.21143	13.4919	0	
1.5660	-1.60968	13.1821	0	
1.5667	-0.692011	9.21666	0	
1.5673	-2.21143	3.11353	0	
1.5680	-2.21143	0.975881	0	
1.5687	0.52653	0.371764	0	
1.5693	0.225656	-2.07568	0	
1.5700	-2.52734	-2.38549	0	
1.5707	-2.21143	-0.247843	0	
1.5713	-1.60968	0.0619607	0	
1.5720	-1.60968	-2.38549	0	
1.5727	0.225656	-4.81745	0	
1.5733	2.36186	-6.35097	0	
1.5740	0.52653	-7.5747	0	
1.5747	-0.692011	-7.86901	0	
1.5753	0.225656	-8.79842	0	
1.5760	0.842448	-10.0067	0	
1.5767	-0.992885	-9.71234	0	
1.5773	-2.21143	-5.12725	0	
1.5780	-1.60968	-0.557646	0	
1.5787	-0.0752186	-0.557646	0	
1.5793	0.842448	-2.38549	0	
1.5800	2.06099	-0.247843	0	
1.5807	2.06099	1.8898	0	
1.5813	-0.692011	2.19961	0	
1.5820	-2.21143	5.54548	0	
1.5827	-0.391137	9.52646	0	
1.5833	1.14332	10.4404	0	
1.5840	-0.391137	9.21666	0	
1.5847	-0.992885	6.4749	0	
1.5853	1.14332	2.80372	0	
1.5860	2.06099	1.28568	0	
1.5867	-0.692011	-0.247843	0	
1.5873	-0.692011	-3.29941	0	
1.5880	3.27953	-2.9896	0	
1.5887	4.79895	-1.47157	0	
1.5893	1.14332	-4.21333	0	
1.5900	-1.60968	-7.86901	0	
1.5907	-1.60968	-8.79842	0	
1.5913	-0.692011	-8.79842	0	
1.5920	-0.0752186	-7.86901	0	
1.5927	0.225656	-4.21333	0	
1.5933	-0.692011	-1.47157	0	
1.5940	-1.29376	-0.557646	0	
1.5947	-2.21143	-0.557646	0	
1.5953	-3.12909	-0.247843	0	
1.5960	-1.91055	-1.47157	0	
1.5967	-0.391137	-3.60921	0	
1.5973	-0.692011	-4.52313	0	
1.5980	-0.692011	-4.81745	0	
1.5987	0.52653	-5.12725	0	
1.5993	1.14332	-2.6798	0	
1.6000	-0.992885	0.371764	0	
1.6007	-2.52734	-2.38549	0	
1.6013	-0.992885	-6.95509	0	
1.6020	0.52653	-6.04117	0	
1.6027	0.225656	-4.21333	0	
1.6033	1.14332	-3.60921	0	
1.6040	2.06099	-2.9896	0	
1.6047	-1.91055	-2.38549	0	
1.6053	-4.34763	-2.38549	0	
1.6060	-0.692011	1.28568	0	
1.6067	-0.992885	4.94137	0	
1.6073	-7.10063	4.02745	0	
1.6080	-7.70238	0.371764	0	
1.6087	-5.56617	-3.29941	0	
1.6093	-5.2653	-6.04117	0	
1.6100	-2.82822	-5.12725	0	
1.6107	-1.60968	-3.29941	0	
1.6113	-4.04676	-2.38549	0	
1.6120	-3.12909	-1.47157	0	
1.6127	-0.391137	-3.60921	0	
1.6133	-1.60968	-9.71234	0	
1.6140	-3.42997	-11.2304	0	
1.6147	-5.88209	-9.09274	0	
1.6153	-9.83859	-8.79842	0	
1.6160	-9.83859	-6.95509	0	
1.6167	-8.0183	-6.66078	0	
1.6173	-7.70238	-11.5402	0	
1.6180	-3.74589	-11.5402	0	
1.6187	1.4442	-5.73137	0	
1.6193	1.14332	-4.21333	0	
1.6200	-0.692011	-3.29941	0	
1.6207	2.06099	0.666078	0	
1.6213	3.88128	0.0619607	0	
1.6220	1.74507	-2.38549	0	
1.6227	-3.42997	2.19961	0	
1.6233	-6.48384	7.99293	0	
1.6240	-3.42997	9.52646	0	
1.6247	2.06099	10.7347	0	
1.6253	5.41574	12.2682	0	
1.6260	6.63428	10.7347	0	
1.6267	4.1972	5.85529	0	
1.6273	-0.391137	2.19961	0	
1.6280	-0.992885	2.19961	0	
1.6287	-0.992885	1.28568	0	
1.6293	-1.60968	-2.9896	0	
1.6300	2.97866	-6.66078	0	
1.6307	9.38728	-8.17881	0	
1.6313	6.3334	-7.26489	0	
1.6320	-0.992885	-4.21333	0	
1.6327	-3.42997	-3.29941	0	
1.6333	-5.88209	-6.04117	0	
1.6340	-11.6739	-6.95509	0	
1.6347	-15.9463	-4.52313	0	
1.6353	-13.2084	-2.38549	0	
1.6360	-3.74589	-0.557646	0	
1.6367	3.88128	0.371764	0	
1.6373	2.06099	-0.247843	0	
1.6380	-2.82822	0.371764	0	
1.6387	-0.992885	0.975881	0	
1.6393	1.4442	1.28568	0	
1.6400	0.842448	4.63156	0	
1.6407	2.06099	7.99293	0	
1.6413	2.66274	6.76921	0	
1.6420	0.225656	5.85529	0	
1.6427	1.14332	8.90685	0	
1.6433	2.06099	9.52646	0	
1.6440	1.14332	7.68313	0	
1.6447	7.55194	7.68313	0	
1.6453	17.0144	9.21666	0	
1.6460	17.0144	10.4404	0	
1.6467	12.742	11.6486	0	
1.6473	9.38728	10.4404	0	
1.6480	3.5804	7.68313	0	
1.6487	-0.992885	7.68313	0	
1.6493	-0.0752186	9.82077	0	
1.6500	-1.29376	8.90685	0	
1.6507	-6.79976	7.38882	0	
1.6513	-10.7563	7.07901	0	
1.6520	-9.83859	4.63156	0	
1.6527	-7.10063	-0.557646	0	
1.6533	-8.0183	-3.29941	0	
1.6540	-8.93597	-6.35097	0	
1.6547	-10.7563	-11.85	0	
1.6553	-16.2472	-13.368	0	
1.6560	-19.617	-9.09274	0	
1.6567	-14.111	-8.17881	0	
1.6573	-8.93597	-8.79842	0	
1.6580	-10.7563	-3.60921	0	
1.6587	-13.5093	-0.557646	0	
1.6593	-11.6739	-4.21333	0	
1.6600	-7.70238	-4.52313	0	
1.6607	-5.56617	-1.47157	0	
1.6613	-3.42997	-0.85196	0	
1.6620	0.52653	-0.557646	0	
1.6627	2.06099	2.19961	0	
1.6633	-1.60968	3.11353	0	
1.6640	-3.42997	3.71764	0	
1.6647	-3.12909	6.76921	0	
1.6653	-4.04676	7.68313	0	
1.6660	-3.12909	3.42333	0	
1.6667	-0.391137	3.11353	0	
1.6673	-0.692011	8.30274	0	
1.6680	-1.60968	6.76921	0	
1.6687	-0.391137	0.666078	0	
1.6693	-0.0752186	0.371764	0	
1.6700	-1.29376	1.28568	0	
1.6707	-0.692011	-4.81745	0	
1.6713	2.06099	-10.0067	0	
1.6720	1.74507	-9.71234	0	
1.6727	-0.692011	-8.79842	0	
1.6733	0.225656	-9.40254	0	
1.6740	2.66274	-8.79842	0	
1.6747	1.14332	-6.66078	0	
1.6753	0.225656	-4.21333	0	
1.6760	4.79895	-3.29941	0	
1.6767	7.55194	-2.9896	0	
1.6773	5.71661	-0.557646	0	
1.6780	4.79895	0.666078	0	
1.6787	5.71661	-1.16176	0	
1.6793	7.55194	-0.557646	0	
1.6800	9.07136	3.71764	0	
1.6807	7.55194	4.94137	0	
1.6813	6.63428	3.11353	0	
1.6820	8.46961	3.42333	0	
1.6827	9.07136	4.02745	0	
1.6833	7.55194	0.666078	0	
1.6840	6.93515	-2.6798	0	
1.6847	6.63428	0.371764	0	
1.6853	5.71661	5.85529	0	
1.6860	4.79895	4.02745	0	
1.6867	4.1972	-0.557646	0	
1.6873	3.88128	0.666078	0	
1.6880	2.06099	3.42333	0	
1.6887	-0.992885	3.11353	0	
1.6893	-1.29376	3.71764	0	
1.6900	0.52653	4.33725	0	
1.6907	0.225656	3.71764	0	
1.6913	-0.692011	3.71764	0	
1.6920	0.225656	4.94137	0	
1.6927	0.225656	5.25117	0	
1.6933	-0.692011	3.11353	0	
1.6940	1.14332	-0.557646	0	
1.6947	2.36186	-2.6798	0	
1.6953	0.225656	-2.9896	0	
1.6960	-1.29376	-3.90353	0	
1.6967	0.225656	-5.12725	0	
1.6973	2.06099	-4.21333	0	
1.6980	1.74507	-3.60921	0	
1.6987	0.52653	-4.21333	0	
1.6993	1.74507	-3.90353	0	
1.7000	3.88128	-3.90353	0	
1.7007	4.1972	-4.21333	0	
1.7013	3.88128	-3.29941	0	
1.7020	4.1972	-0.557646	0	
1.7027	4.1972	3.11353	0	
1.7033	3.5804	7.38882	0	
1.7040	2.06099	6.76921	0	
1.7047	0.225656	4.02745	0	
1.7053	-1.29376	4.02745	0	
1.7060	-0.992885	4.02745	0	
1.7067	0.52653	1.58	0	
1.7073	1.14332	0.371764	0	
1.7080	-1.29376	1.28568	0	
1.7087	-2.21143	-0.557646	0	
1.7093	0.225656	-3.90353	0	
1.7100	0.842448	-5.73137	0	
1.7107	-1.29376	-6.95509	0	
1.7113	-0.992885	-8.79842	0	
1.7120	-0.391137	-8.79842	0	
1.7127	-0.692011	-4.81745	0	
1.7133	-0.992885	-1.47157	0	
1.7140	-1.60968	-2.6798	0	
1.7147	-1.29376	-4.81745	0	
1.7153	0.225656	-4.81745	0	
1.7160	0.225656	-3.29941	0	
1.7167	0.225656	-3.29941	0	
1.7173	0.225656	-4.21333	0	
1.7180	-0.692011	-2.9896	0	
1.7187	-0.692011	0.666078	0	
1.7193	1.4442	2.19961	0	
1.7200	1.14332	2.19961	0	
1.7207	0.225656	3.71764	0	
1.7213	1.14332	2.19961	0	
1.7220	2.36186	-1.16176	0	
1.7227	2.06099	-1.16176	0	
1.7233	-0.692011	-1.16176	0	
1.7240	-2.82822	-4.21333	0	
1.7247	-0.692011	-3.29941	0	
1.7253	-0.692011	3.11353	0	
1.7260	-7.70238	4.63156	0	
1.7267	-11.373	1.8898	0	
1.7273	-11.6739	0.371764	0	
1.7280	-14.7278	-1.16176	0	
1.7287	-11.373	-2.07568	0	
1.7293	0.52653	-0.557646	0	
1.7300	6.93515	-0.247843	0	
1.7307	6.63428	-1.47157	0	
1.7313	6.01749	-0.557646	0	
1.7320	4.49807	0.975881	0	
1.7327	2.06099	2.19961	0	
1.7333	1.14332	4.02745	0	
1.7340	1.14332	1.58	0	
1.7347	1.74507	-3.90353	0	
1.7353	2.06099	-5.12725	0	
1.7360	1.14332	-5.43705	0	
1.7367	1.4442	-7.86901	0	
1.7373	1.74507	-6.04117	0	
1.7380	0.842448	-1.76588	0	
1.7387	2.06099	-0.247843	0	
1.7393	2.97866	1.58	0	
1.7400	0.52653	5.25117	0	
1.7407	1.14332	7.38882	0	
1.7413	4.79895	7.68313	0	
1.7420	2.97866	4.94137	0	
1.7427	-0.692011	1.58	0	
1.7433	1.14332	3.42333	0	
1.7440	4.1972	4.94137	0	
1.7447	2.06099	1.8898	0	
1.7453	-2.52734	0.666078	0	
1.7460	-4.66355	1.28568	0	
1.7467	-5.88209	0.0619607	0	
1.7473	-8.0183	0.371764	0	
1.7480	-9.53772	1.28568	0	
1.7487	-9.23684	-2.07568	0	
1.7493	-9.23684	-2.38549	0	
1.7500	-7.10063	0.0619607	0	
1.7507	-2.52734	-2.07568	0	
1.7513	-1.29376	-3.29941	0	
1.7520	-3.74589	1.8898	0	
1.7527	-1.91055	2.80372	0	
1.7533	0.842448	-2.38549	0	
1.7540	-2.52734	-3.29941	0	
1.7547	-3.42997	-2.6798	0	
1.7553	0.225656	-2.6798	0	
1.7560	-0.0752186	0.371764	0	
1.7567	-3.12909	2.49392	0	
1.7573	-0.992885	-0.557646	0	
1.7580	1.14332	0.975881	0	
1.7587	0.225656	6.76921	0	
1.7593	-0.692011	4.33725	0	
1.7600	-0.992885	-2.38549	0	
1.7607	-0.992885	-2.9896	0	
1.7613	1.14332	-1.76588	0	
1.7620	1.14332	-3.90353	0	
1.7627	-0.692011	-4.21333	0	
1.7633	0.52653	-4.21333	0	
1.7640	2.06099	-6.35097	0	
1.7647	0.225656	-6.04117	0	
1.7653	-1.29376	-2.9896	0	
1.7660	-0.0752186	-3.29941	0	
1.7667	1.14332	-4.81745	0	
1.7673	0.842448	-3.29941	0	
1.7680	-0.992885	-2.38549	0	
1.7687	-3.12909	-3.29941	0	
1.7693	-7.70238	-3.29941	0	
1.7700	-14.111	-4.21333	0	
1.7707	-16.864	-6.35097	0	
1.7713	-14.7278	-5.12725	0	
1.7720	-15.0287	-2.9896	0	
1.7727	-17.4808	-3.29941	0	
1.7733	-15.3446	-3.90353	0	
1.7740	-6.79976	-2.6798	0	
1.7747	6.01749	-2.9896	0	
1.7753	14.8782	-5.12725	0	
1.7760	14.2614	-6.04117	0	
1.7767	12.4412	-5.12725	0	
1.7773	14.8782	-2.6798	0	
1.7780	14.8782	-0.557646	0	
1.7787	10.3049	1.28568	0	
1.7793	7.55194	2.49392	0	
1.7800	5.71661	2.19961	0	
1.7807	-0.692011	1.28568	0	
1.7813	-7.70238	2.19961	0	
1.7820	-9.53772	4.33725	0	
1.7827	-8.0183	4.94137	0	
1.7833	-7.70238	3.42333	0	
1.7840	-7.40151	2.19961	0	
1.7847	-6.18297	2.19961	0	
1.7853	-4.66355	3.42333	0	
1.7860	-1.91055	4.94137	0	
1.7867	3.27953	4.02745	0	
1.7873	4.79895	2.19961	0	
1.7880	0.225656	-0.247843	0	
1.7887	-3.42997	-0.557646	0	
1.7893	-2.21143	-0.557646	0	
1.7900	-0.992885	-4.21333	0	
1.7907	-1.91055	-6.35097	0	
1.7913	0.52653	-3.60921	0	
1.7920	6.63428	-2.38549	0	
1.7927	11.8244	-4.21333	0	
1.7933	13.0429	-3.29941	0	
1.7940	10.3049	-2.38549	0	
1.7947	6.93515	-6.95509	0	
1.7953	8.15369	-10.6263	0	
1.7960	13.0429	-8.17881	0	
1.7967	15.48	-5.12725	0	
1.7973	9.68815	-4.21333	0	
1.7980	-2.21143	-3.90353	0	
1.7987	-11.373	-1.47157	0	
1.7993	-11.9748	-0.247843	0	
1.8000	-8.93597	-1.47157	0	
1.8007	-7.70238	-2.38549	0	
1.8013	-12.5916	1.28568	0	
1.8020	-18.0825	5.85529	0	
1.8027	-16.2472	6.76921	0	
1.8033	-8.0183	6.16509	0	
1.8040	-1.29376	6.16509	0	
1.8047	0.225656	3.11353	0	
1.8053	-1.29376	-0.247843	0	
1.8060	-2.82822	1.28568	0	
1.8067	-2.82822	3.71764	0	
1.8073	-3.74589	4.02745	0	
1.8080	-7.10063	3.71764	0	
1.8087	-8.93597	2.49392	0	
1.8093	-7.40151	0.371764	0	
1.8100	-5.2653	0.666078	0	
1.8107	-3.42997	0.371764	0	
1.8113	-3.12909	-2.38549	0	
1.8120	-3.42997	-3.29941	0	
1.8127	-0.992885	-2.9896	0	
1.8133	-0.692011	-2.38549	0	
1.8140	-4.04676	-0.85196	0	
1.8147	-3.42997	-0.557646	0	
1.8153	-0.692011	-0.557646	0	
1.8160	-2.52734	-0.247843	0	
1.8167	-2.52734	-0.557646	0	
1.8173	1.14332	-1.76588	0	
1.8180	-0.391137	-1.47157	0	
1.8187	-3.42997	1.8898	0	
1.8193	-2.21143	6.16509	0	
1.8200	-1.91055	8.59705	0	
1.8207	-4.04676	8.59705	0	
1.8213	-3.12909	8.59705	0	
1.8220	0.842448	7.99293	0	
1.8227	5.41574	2.80372	0	
1.8233	9.98903	-2.07568	0	
1.8240	9.98903	-0.85196	0	
1.8247	5.71661	2.19961	0	
1.8253	2.06099	1.8898	0	
1.8260	0.842448	1.28568	0	
1.8267	0.52653	3.11353	0	
1.8273	1.14332	5.85529	0	
1.8280	1.14332	3.42333	0	
1.8287	0.52653	-2.38549	0	
1.8293	0.842448	-1.47157	0	
1.8300	0.225656	4.02745	0	
1.8307	0.225656	1.58	0	
1.8313	2.66274	-3.29941	0	
1.8320	1.14332	-0.247843	0	
1.8327	-0.0752186	4.63156	0	
1.8333	4.1972	2.49392	0	
1.8340	6.01749	-0.557646	0	
1.8347	2.97866	-0.85196	0	
1.8353	2.06099	-0.247843	0	
1.8360	2.97866	1.28568	0	
1.8367	1.4442	2.19961	0	
1.8373	2.36186	1.8898	0	
1.8380	3.88128	2.19961	0	
1.8387	1.74507	1.28568	0	
1.8393	1.14332	-1.47157	0	
1.8400	4.1972	-0.557646	0	
1.8407	5.11486	2.19961	0	
1.8413	3.88128	1.28568	0	
1.8420	2.66274	-0.557646	0	
1.8427	2.06099	-1.47157	0	
1.8433	2.06099	-3.90353	0	
1.8440	0.842448	-0.557646	0	
1.8447	-1.29376	7.68313	0	
1.8453	-1.60968	6.76921	0	
1.8460	-0.391137	0.371764	0	
1.8467	0.225656	1.58	0	
1.8473	0.225656	3.42333	0	
1.8480	-0.391137	-0.247843	0	
1.8487	-1.60968	-1.76588	0	
1.8493	-0.692011	-2.38549	0	
1.8500	-0.692011	-2.9896	0	
1.8507	-1.29376	-2.38549	0	
1.8513	0.842448	-6.04117	0	
1.8520	1.74507	-12.1443	0	
1.8527	0.225656	-11.5402	0	
1.8533	1.14332	-9.09274	0	
1.8540	1.14332	-9.71234	0	
1.8547	-2.21143	-7.86901	0	
1.8553	-1.91055	-5.12725	0	
1.8560	1.14332	-5.73137	0	
1.8567	-0.692011	-4.21333	0	
1.8573	-2.82822	-3.29941	0	
1.8580	-0.0752186	-5.12725	0	
1.8587	2.06099	-1.76588	0	
1.8593	0.52653	3.11353	0	
1.8600	-0.692011	3.11353	0	
1.8607	-2.21143	1.8898	0	
1.8613	-4.04676	3.11353	0	
1.8620	-3.12909	4.33725	0	
1.8627	2.06099	5.85529	0	
1.8633	5.71661	4.94137	0	
1.8640	4.49807	1.28568	0	
1.8647	1.14332	-1.47157	0	
1.8653	1.74507	-2.07568	0	
1.8660	2.97866	0.0619607	0	
1.8667	0.842448	2.49392	0	
1.8673	-1.60968	1.28568	0	
1.8680	-1.60968	-0.85196	0	
1.8687	-1.60968	-1.47157	0	
1.8693	-1.60968	-2.6798	0	
1.8700	-1.29376	-2.38549	0	
1.8707	-1.91055	0.371764	0	
1.8713	-1.91055	0.975881	0	
1.8720	-0.992885	0.371764	0	
1.8727	-1.60968	1.28568	0	
1.8733	-1.60968	0.666078	0	
1.8740	-0.692011	-0.557646	0	
1.8747	-1.60968	0.666078	0	
1.8753	-2.82822	0.666078	0	
1.8760	0.225656	-3.29941	0	
1.8767	4.49807	-7.86901	0	
1.8773	3.88128	-11.5402	0	
1.8780	1.14332	-10.9206	0	
1.8787	2.06099	-3.60921	0	
1.8793	3.88128	2.19961	0	
1.8800	1.14332	1.58	0	
1.8807	-2.52734	0.0619607	0	
1.8813	-2.52734	-2.38549	0	
1.8820	-1.60968	-4.21333	0	
1.8827	-1.29376	-1.16176	0	
1.8833	-1.29376	2.19961	0	
1.8840	-3.12909	1.8898	0	
1.8847	-5.2653	0.371764	0	
1.8853	-4.66355	-2.6798	0	
1.8860	-1.60968	-6.66078	0	
1.8867	0.842448	-7.5747	0	
1.8873	0.52653	-5.73137	0	
1.8880	-1.60968	-3.90353	0	
1.8887	-1.91055	-4.21333	0	
1.8893	-0.391137	-6.35097	0	
1.8900	0.225656	-5.12725	0	
1.8907	-0.391137	-2.07568	0	
1.8913	-0.692011	-3.90353	0	
1.8920	-1.29376	-6.95509	0	
1.8927	0.225656	-5.12725	0	
1.8933	1.4442	-2.07568	0	
1.8940	0.52653	0.371764	0	
1.8947	-0.0752186	3.11353	0	
1.8953	1.14332	3.71764	0	
1.8960	2.06099	0.371764	0	
1.8967	1.14332	-4.52313	0	
1.8973	0.225656	-6.95509	0	
1.8980	0.225656	-5.12725	0	
1.8987	-1.29376	-2.38549	0	
1.8993	-1.91055	-2.9896	0	
1.9000	-0.692011	-2.9896	0	
1.9007	-0.692011	0.666078	0	
1.9013	-3.74589	4.02745	0	
1.9020	-4.04676	7.07901	0	
1.9027	-0.692011	9.52646	0	
1.9033	1.74507	8.30274	0	
1.9040	0.52653	5.25117	0	
1.9047	-2.21143	2.49392	0	
1.9053	-3.42997	-1.47157	0	
1.9060	-2.82822	-5.12725	0	
1.9067	0.225656	-4.21333	0	
1.9073	1.74507	-0.557646	0	
1.9080	-1.60968	2.19961	0	
1.9087	-5.88209	3.11353	0	
1.9093	-7.10063	-0.557646	0	
1.9100	-7.10063	-6.04117	0	
1.9107	-6.18297	-6.04117	0	
1.9113	-2.82822	-2.6798	0	
1.9120	2.06099	-1.76588	0	
1.9127	4.49807	-2.9896	0	
1.9133	2.66274	-3.29941	0	
1.9140	-0.391137	-2.6798	0	
1.9147	0.842448	-2.38549	0	
1.9153	2.97866	-3.29941	0	
1.9160	2.06099	-3.29941	0	
1.9167	1.74507	-1.47157	0	
1.9173	0.842448	-1.16176	0	
1.9180	-4.04676	-0.557646	0	
1.9187	-7.10063	3.42333	0	
1.9193	-7.10063	7.07901	0	
1.9200	-8.93597	5.25117	0	
1.9207	-11.373	0.666078	0	
1.9213	-10.7563	-4.52313	0	
1.9220	-5.2653	-6.95509	0	
1.9227	5.41574	-2.6798	0	
1.9233	13.9606	3.71764	0	
1.9240	13.9606	3.71764	0	
1.9247	9.38728	0.371764	0	
1.9253	6.63428	-0.557646	0	
1.9260	5.41574	-0.557646	0	
1.9267	5.71661	0.371764	0	
1.9273	6.3334	0.666078	0	
1.9280	5.71661	0.371764	0	
1.9287	3.27953	1.8898	0	
1.9293	-0.692011	4.02745	0	
1.9300	-1.60968	1.28568	0	
1.9307	0.842448	-6.04117	0	
1.9313	0.225656	-9.71234	0	
1.9320	-1.91055	-8.48862	0	
1.9327	-0.692011	-6.35097	0	
1.9333	2.06099	-4.21333	0	
1.9340	4.79895	-2.9896	0	
1.9347	7.55194	-2.38549	0	
1.9353	6.3334	-0.557646	0	
1.9360	2.36186	0.975881	0	
1.9367	-1.29376	2.49392	0	
1.9373	-5.2653	3.71764	0	
1.9380	-7.10063	3.11353	0	
1.9387	-5.56617	2.19961	0	
1.9393	-6.18297	3.42333	0	
1.9400	-8.93597	4.33725	0	
1.9407	-9.23684	3.71764	0	
1.9413	-5.2653	6.4749	0	
1.9420	0.225656	9.52646	0	
1.9427	2.36186	7.99293	0	
1.9433	-0.0752186	7.07901	0	
1.9440	-4.04676	8.30274	0	
1.9447	-6.18297	5.85529	0	
1.9453	-7.70238	3.71764	0	
1.9460	-8.31917	6.16509	0	
1.9467	-4.34763	7.07901	0	
1.9473	1.4442	2.80372	0	
1.9480	3.27953	-1.76588	0	
1.9487	3.5804	-4.21333	0	
1.9493	3.27953	-4.52313	0	
1.9500	2.06099	-1.16176	0	
1.9507	1.14332	1.28568	0	
1.9513	0.842448	-1.16176	0	
1.9520	-0.0752186	-5.43705	0	
1.9527	2.06099	-7.5747	0	
1.9533	6.01749	-7.86901	0	
1.9540	5.11486	-6.35097	0	
1.9547	3.27953	-2.9896	0	
1.9553	5.71661	-2.07568	0	
1.9560	4.79895	-3.60921	0	
1.9567	-0.0752186	-3.29941	0	
1.9573	-0.692011	-2.38549	0	
1.9580	0.225656	-2.9896	0	
1.9587	-1.29376	-3.60921	0	
1.9593	-1.60968	-1.47157	0	
1.9600	-2.52734	2.19961	0	
1.9607	-7.40151	3.11353	0	
1.9613	-8.93597	0.371764	0	
1.9620	-7.70238	-1.76588	0	
1.9627	-6.18297	-0.247843	0	
1.9633	2.06099	1.8898	0	
1.9640	16.7136	3.11353	0	
1.9647	23.1222	4.94137	0	
1.9653	18.5339	6.16509	0	
1.9660	15.1791	4.94137	0	
1.9667	13.0429	2.80372	0	
1.9673	4.79895	-1.76588	0	
1.9680	-3.42997	-5.43705	0	
1.9687	-5.2653	-2.38549	0	
1.9693	-7.10063	-0.557646	0	
1.9700	-11.6739	-6.04117	0	
1.9707	-13.2084	-6.95509	0	
1.9713	-9.53772	-2.6798	0	
1.9720	-7.10063	-4.21333	0	
1.9727	-6.48384	-8.17881	0	
1.9733	-6.18297	-6.66078	0	
1.9740	-6.18297	-5.43705	0	
1.9747	-7.10063	-8.17881	0	
1.9753	-6.79976	-7.86901	0	
1.9760	-2.21143	-4.21333	0	
1.9767	-0.391137	-2.38549	0	
1.9773	-5.56617	-1.76588	0	
1.9780	-7.10063	0.371764	0	
1.9787	-0.692011	2.19961	0	
1.9793	1.14332	3.42333	0	
1.9800	-0.692011	4.02745	0	
1.9807	1.14332	4.94137	0	
1.9813	2.06099	6.76921	0	
1.9820	1.14332	6.4749	0	
1.9827	2.06099	1.28568	0	
1.9833	0.842448	-0.85196	0	
1.9840	-1.29376	2.19961	0	
1.9847	1.14332	2.49392	0	
1.9853	1.4442	0.0619607	0	
1.9860	-1.29376	0.0619607	0	
1.9867	1.14332	-0.557646	0	
1.9873	2.97866	-3.90353	0	
1.9880	0.225656	-5.12725	0	
1.9887	1.14332	-3.29941	0	
1.9893	3.88128	-5.73137	0	
1.9900	2.06099	-8.48862	0	
1.9907	0.225656	-5.43705	0	
1.9913	1.74507	-3.29941	0	
1.9920	1.14332	-6.95509	0	
1.9927	-1.60968	-7.86901	0	
1.9933	-2.52734	-4.21333	0	
1.9940	-2.52734	-1.47157	0	
1.9947	-2.52734	-1.47157	0	
1.9953	-1.29376	-3.29941	0	
1.9960	1.14332	-5.43705	0	
1.9967	0.842448	-3.90353	0	
1.9973	-1.60968	-2.38549	0	
1.9980	-2.21143	-3.29941	0	
1.9987	-0.992885	0.371764	0	
1.9993	-1.60968	4.94137	0	
2.0000	-2.21143	3.11353	0	
2.0007	-1.60968	1.58	0	
2.0013	-1.29376	4.94137	0	
2.0020	0.225656	5.85529	0	
2.0027	0.225656	5.25117	0	
2.0033	-1.60968	4.94137	0	
2.0040	-1.60968	3.11353	0	
2.0047	0.225656	3.71764	0	
2.0053	0.52653	5.85529	0	
2.0060	-0.0752186	3.11353	0	
2.0067	-1.60968	-0.557646	0	
2.0073	-2.82822	-0.85196	0	
2.0080	-0.391137	-2.38549	0	
2.0087	1.14332	-4.52313	0	
2.0093	-2.82822	-2.38549	0	
2.0100	-4.34763	-0.247843	0	
2.0107	-0.992885	-0.557646	0	
2.0113	-1.60968	-0.247843	0	
2.0120	-2.82822	1.28568	0	
2.0127	-0.692011	0.0619607	0	
2.0133	0.842448	-3.60921	0	
2.0140	-0.391137	-6.04117	0	
2.0147	-1.60968	-5.73137	0	
2.0153	-4.34763	-4.52313	0	
2.0160	-3.42997	-4.52313	0	
2.0167	-0.992885	-4.81745	0	
2.0173	-3.42997	-4.52313	0	
2.0180	-5.56617	-3.29941	0	
2.0187	-0.992885	-2.38549	0	
2.0193	0.225656	-1.16176	0	
2.0200	-3.12909	1.58	0	
2.0207	-1.60968	4.02745	0	
2.0213	-0.0752186	3.42333	0	
2.0220	-1.60968	1.8898	0	
2.0227	0.842448	2.80372	0	
2.0233	3.88128	3.42333	0	
2.0240	2.06099	0.975881	0	
2.0247	2.66274	-1.76588	0	
2.0253	6.3334	-1.47157	0	
2.0260	4.1972	0.975881	0	
2.0267	0.842448	3.11353	0	
2.0273	1.74507	3.42333	0	
2.0280	1.4442	3.42333	0	
2.0287	1.14332	3.11353	0	
2.0293	3.88128	0.0619607	0	
2.0300	2.36186	-2.6798	0	
2.0307	-2.52734	-1.47157	0	
2.0313	0.225656	-0.557646	0	
2.0320	3.5804	-1.47157	0	
2.0327	-0.692011	-0.557646	0	
2.0333	-1.91055	0.371764	0	
2.0340	2.06099	-0.85196	0	
2.0347	1.4442	-3.60921	0	
2.0353	-1.29376	-8.48862	0	
2.0360	0.52653	-12.4541	0	
2.0367	2.36186	-9.71234	0	
2.0373	1.74507	-4.21333	0	
2.0380	0.842448	-2.6798	0	
2.0387	-0.692011	-0.557646	0	
2.0393	-1.29376	3.42333	0	
2.0400	0.225656	3.11353	0	
2.0407	0.52653	3.11353	0	
2.0413	-0.0752186	6.76921	0	
2.0420	-0.992885	9.52646	0	
2.0427	-3.12909	8.59705	0	
2.0433	-4.34763	7.68313	0	
2.0440	-2.82822	8.59705	0	
2.0447	-2.52734	8.90685	0	
2.0453	-4.34763	5.85529	0	
2.0460	-3.12909	3.42333	0	
2.0467	-0.0752186	3.71764	0	
2.0473	-0.0752186	4.02745	0	
2.0480	-2.52734	2.80372	0	
2.0487	-4.34763	4.94137	0	
2.0493	-3.42997	8.30274	0	
2.0500	-2.82822	5.85529	0	
2.0507	-4.34763	0.371764	0	
2.0513	-4.04676	0.371764	0	
2.0520	-0.0752186	3.11353	0	
2.0527	0.225656	1.8898	0	
2.0533	-4.04676	1.28568	0	
2.0540	-3.42997	4.02745	0	
2.0547	0.225656	2.19961	0	
2.0553	-1.91055	-2.9896	0	
2.0560	-3.42997	-3.29941	0	
2.0567	0.52653	0.371764	0	
2.0573	0.842448	1.58	0	
2.0580	-3.12909	3.11353	0	
2.0587	-3.74589	4.94137	0	
2.0593	-3.74589	4.63156	0	
2.0600	-1.60968	0.0619607	0	
2.0607	6.93515	-4.21333	0	
2.0613	12.1252	-2.6798	0	
2.0620	8.15369	1.28568	0	
2.0627	4.49807	-0.247843	0	
2.0633	4.49807	-2.38549	0	
2.0640	3.88128	0.371764	0	
2.0647	3.88128	0.666078	0	
2.0653	1.4442	-2.38549	0	
2.0660	-1.29376	-3.29941	0	
2.0667	2.06099	-2.38549	0	
2.0673	6.63428	-2.6798	0	
2.0680	5.11486	-2.38549	0	
2.0687	2.97866	-1.76588	0	
2.0693	2.36186	-2.38549	0	
2.0700	2.66274	-2.9896	0	
2.0707	3.88128	-3.90353	0	
2.0713	3.5804	-4.21333	0	
2.0720	-0.0752186	-2.07568	0	
2.0727	-2.21143	-2.38549	0	
2.0733	-2.52734	-5.12725	0	
2.0740	-3.12909	-2.6798	0	
2.0747	-2.21143	1.28568	0	
2.0753	-0.992885	-0.557646	0	
2.0760	-0.0752186	-1.76588	0	
2.0767	2.97866	1.28568	0	
2.0773	5.71661	2.19961	0	
2.0780	5.71661	0.0619607	0	
2.0787	4.1972	-0.557646	0	
2.0793	2.06099	0.666078	0	
2.0800	1.74507	3.11353	0	
2.0807	2.97866	8.59705	0	
2.0813	3.88128	13.1821	0	
2.0820	8.77049	9.52646	0	
2.0827	15.7959	3.11353	0	
2.0833	15.7959	2.49392	0	
2.0840	13.6597	4.33725	0	
2.0847	18.8498	2.49392	0	
2.0853	22.2045	-0.247843	0	
2.0860	16.7136	-0.247843	0	
2.0867	9.38728	2.19961	0	
2.0873	4.79895	1.8898	0	
2.0880	0.842448	-3.29941	0	
2.0887	-1.60968	-7.5747	0	
2.0893	-6.18297	-4.21333	0	
2.0900	-12.2907	-2.38549	0	
2.0907	-10.7563	-6.66078	0	
2.0913	-6.18297	-6.95509	0	
2.0920	-8.0183	-4.21333	0	
2.0927	-10.7563	-4.81745	0	
2.0933	-8.0183	-4.21333	0	
2.0940	-6.18297	-2.38549	0	
2.0947	-8.93597	-4.52313	0	
2.0953	-9.83859	-6.04117	0	
2.0960	-10.7563	-5.73137	0	
2.0967	-12.8925	-5.43705	0	
2.0973	-10.1545	-2.38549	0	
2.0980	-3.74589	-0.247843	0	
2.0987	-1.60968	-1.76588	0	
2.0993	-5.56617	-1.47157	0	
2.1000	-10.7563	0.666078	0	
2.1007	-13.8101	1.28568	0	
2.1013	-14.4269	2.19961	0	
2.1020	-13.5093	2.80372	0	
2.1027	-15.0287	1.8898	0	
2.1033	-14.4269	3.71764	0	
2.1040	-5.2653	4.63156	0	
2.1047	6.01749	1.58	0	
2.1053	8.15369	0.975881	0	
2.1060	2.97866	3.71764	0	
2.1067	-0.692011	5.54548	0	
2.1073	-0.692011	6.16509	0	
2.1080	-0.391137	4.02745	0	
2.1087	-0.692011	1.28568	0	
2.1093	0.225656	3.11353	0	
2.1100	-0.0752186	4.94137	0	
2.1107	-3.42997	0.371764	0	
2.1113	-2.21143	-1.47157	0	
2.1120	4.79895	0.0619607	0	
2.1127	6.93515	-3.60921	0	
2.1133	3.88128	-7.26489	0	
2.1140	2.06099	-2.9896	0	
2.1147	0.225656	0.371764	0	
2.1153	-4.34763	-4.21333	0	
2.1160	-9.23684	-5.73137	0	
2.1167	-12.8925	-0.85196	0	
2.1173	-15.3446	-0.247843	0	
2.1180	-16.5631	-1.47157	0	
2.1187	-16.5631	3.11353	0	
2.1193	-14.7278	7.38882	0	
2.1200	-10.1545	3.11353	0	
2.1207	-7.10063	-1.47157	0	
2.1213	-8.0183	0.0619607	0	
2.1220	-8.31917	0.371764	0	
2.1227	-6.18297	-2.38549	0	
2.1233	-5.2653	-4.81745	0	
2.1240	-4.04676	-4.52313	0	
2.1247	-0.692011	-2.6798	0	
2.1253	-1.29376	-2.6798	0	
2.1260	-3.42997	-7.86901	0	
2.1267	-2.52734	-11.2304	0	
2.1273	-0.391137	-8.79842	0	
2.1280	-0.0752186	-7.86901	0	
2.1287	0.52653	-9.71234	0	
2.1293	1.4442	-6.95509	0	
2.1300	0.225656	-4.21333	0	
2.1307	-1.60968	-4.21333	0	
2.1313	-3.42997	-1.47157	0	
2.1320	-2.82822	-0.557646	0	
2.1327	-1.60968	-3.90353	0	
2.1333	-2.52734	-5.12725	0	
2.1340	-2.21143	-3.29941	0	
2.1347	2.06099	-1.76588	0	
2.1353	2.66274	-1.16176	0	
2.1360	-0.692011	-1.47157	0	
2.1367	-0.692011	-0.557646	0	
2.1373	0.225656	3.42333	0	
2.1380	-0.992885	5.25117	0	
2.1387	-0.692011	0.666078	0	
2.1393	2.06099	-1.16176	0	
2.1400	3.88128	1.58	0	
2.1407	5.71661	1.8898	0	
2.1413	6.3334	1.58	0	
2.1420	3.5804	5.54548	0	
2.1427	2.06099	8.59705	0	
2.1433	4.79895	7.68313	0	
2.1440	8.46961	5.85529	0	
2.1447	7.55194	6.16509	0	
2.1453	5.41574	7.07901	0	
2.1460	3.88128	7.68313	0	
2.1467	2.06099	5.85529	0	
2.1473	2.97866	-1.47157	0	
2.1480	5.41574	-7.86901	0	
2.1487	3.88128	-6.04117	0	
2.1493	0.52653	-2.6798	0	
2.1500	1.4442	-6.35097	0	
2.1507	2.97866	-10.3165	0	
2.1513	2.06099	-9.40254	0	
2.1520	2.97866	-6.95509	0	
2.1527	5.41574	-6.04117	0	
2.1533	3.88128	-4.21333	0	
2.1540	1.74507	-2.38549	0	
2.1547	2.06099	-1.16176	0	
2.1553	2.06099	-1.16176	0	
2.1560	0.52653	-3.29941	0	
2.1567	0.225656	-3.60921	0	
2.1573	1.14332	-2.07568	0	
2.1580	0.52653	-1.47157	0	
2.1587	-0.692011	-0.85196	0	
2.1593	-3.42997	0.371764	0	
2.1600	-5.2653	-0.557646	0	
2.1607	-4.66355	0.0619607	0	
2.1613	-5.88209	2.19961	0	
2.1620	-7.10063	1.58	0	
2.1627	-2.82822	1.28568	0	
2.1633	3.88128	5.25117	0	
2.1640	5.11486	6.76921	0	
2.1647	2.06099	4.02745	0	
2.1653	0.225656	2.80372	0	
2.1660	0.225656	4.02745	0	
2.1667	-0.692011	4.94137	0	
2.1673	-1.60968	5.25117	0	
2.1680	-0.692011	4.02745	0	
2.1687	-0.0752186	1.28568	0	
2.1693	-1.29376	0.371764	0	
2.1700	-4.34763	-0.557646	0	
2.1707	-4.66355	-2.9896	0	
2.1713	-0.692011	-4.52313	0	
2.1720	2.06099	-3.60921	0	
2.1727	-0.692011	-2.38549	0	
2.1733	-0.692011	-2.38549	0	
2.1740	3.5804	-3.29941	0	
2.1747	4.79895	-3.29941	0	
2.1753	2.66274	-4.21333	0	
2.1760	2.06099	-6.95509	0	
2.1767	2.06099	-8.17881	0	
2.1773	2.36186	-6.66078	0	
2.1780	2.06099	-3.60921	0	
2.1787	0.225656	0.0619607	0	
2.1793	-1.29376	1.8898	0	
2.1800	0.225656	1.28568	0	
2.1807	1.14332	1.58	0	
2.1813	2.06099	2.49392	0	
2.1820	3.88128	3.42333	0	
2.1827	2.66274	4.63156	0	
2.1833	-1.91055	4.02745	0	
2.1840	-2.52734	2.19961	0	
2.1847	0.842448	3.11353	0	
2.1853	2.06099	1.8898	0	
2.1860	-0.692011	0.0619607	0	
2.1867	-2.82822	3.11353	0	
2.1873	-1.91055	5.54548	0	
2.1880	-0.0752186	1.28568	0	
2.1887	0.52653	-2.9896	0	
2.1893	0.225656	-6.04117	0	
2.1900	-0.0752186	-9.40254	0	
2.1907	0.225656	-6.95509	0	
2.1913	0.842448	-0.85196	0	
2.1920	1.14332	0.666078	0	
2.1927	2.36186	-1.16176	0	
2.1933	2.06099	-2.07568	0	
2.1940	2.06099	-0.85196	0	
2.1947	3.88128	0.0619607	0	
2.1953	2.97866	-2.07568	0	
2.1960	-0.692011	-2.6798	0	
2.1967	-0.391137	1.28568	0	
2.1973	1.14332	3.11353	0	
2.1980	-0.391137	2.80372	0	
2.1987	-0.692011	6.4749	0	
2.1993	0.225656	9.82077	0	
2.2000	-2.52734	7.99293	0	
2.2007	-4.04676	5.54548	0	
2.2013	-2.52734	4.63156	0	
2.2020	-0.692011	1.8898	0	
2.2027	1.74507	0.0619607	0	
2.2033	3.27953	1.58	0	
2.2040	2.36186	2.49392	0	
2.2047	3.27953	0.666078	0	
2.2053	4.79895	0.975881	0	
2.2060	1.14332	4.02745	0	
2.2067	-1.60968	3.42333	0	
2.2073	2.06099	-0.247843	0	
2.2080	2.06099	0.371764	0	
2.2087	-1.91055	3.11353	0	
2.2093	-1.60968	2.19961	0	
2.2100	-0.692011	-0.557646	0	
2.2107	-2.52734	-2.07568	0	
2.2113	-2.82822	-4.52313	0	
2.2120	-2.21143	-7.86901	0	
2.2127	-2.52734	-8.48862	0	
2.2133	-0.992885	-7.86901	0	
2.2140	1.4442	-6.95509	0	
2.2147	1.14332	-4.21333	0	
2.2153	-1.60968	-0.85196	0	
2.2160	-4.34763	-0.247843	0	
2.2167	-1.91055	-1.16176	0	
2.2173	3.5804	-1.76588	0	
2.2180	3.88128	-2.07568	0	
2.2187	0.842448	0.0619607	0	
2.2193	0.52653	3.71764	0	
2.2200	2.06099	4.33725	0	
2.2207	2.97866	4.02745	0	
2.2213	3.5804	5.25117	0	
2.2220	2.97866	4.02745	0	
2.2227	0.52653	1.8898	0	
2.2233	0.225656	2.80372	0	
2.2240	1.14332	1.28568	0	
2.2247	0.52653	-0.557646	0	
2.2253	-0.692011	3.11353	0	
2.2260	-3.12909	4.02745	0	
2.2267	-5.2653	-1.76588	0	
2.2273	-4.34763	-3.90353	0	
2.2280	-3.42997	-2.6798	0	
2.2287	-2.52734	-4.21333	0	
2.2293	2.06099	-4.21333	0	
2.2300	4.79895	-3.29941	0	
2.2307	0.842448	-4.21333	0	
2.2313	-2.21143	-3.29941	0	
2.2320	-0.0752186	-4.81745	0	
2.2327	-0.692011	-9.71234	0	
2.2333	-5.2653	-10.6263	0	
2.2340	-8.31917	-10.0067	0	
2.2347	-8.93597	-10.6263	0	
2.2353	-9.83859	-7.86901	0	
2.2360	-11.6739	-4.21333	0	
2.2367	-8.0183	-4.52313	0	
2.2373	4.49807	-2.38549	0	
2.2380	15.7959	-0.85196	0	
2.2387	13.3438	-2.38549	0	
2.2393	4.49807	1.28568	0	
2.2400	1.14332	4.94137	0	
2.2407	1.14332	0.666078	0	
2.2413	1.74507	-0.557646	0	
2.2420	3.88128	3.42333	0	
2.2427	4.79895	3.11353	0	
2.2433	3.88128	3.11353	0	
2.2440	4.1972	5.54548	0	
2.2447	2.97866	3.11353	0	
2.2453	0.52653	2.49392	0	
2.2460	1.74507	6.76921	0	
2.2467	1.74507	4.94137	0	
2.2473	-2.21143	-0.557646	0	
2.2480	-2.52734	0.666078	0	
2.2487	-1.60968	0.666078	0	
2.2493	-5.2653	-2.9896	0	
2.2500	-5.88209	-1.16176	0	
2.2507	2.06099	1.28568	0	
2.2513	9.07136	-1.47157	0	
2.2520	9.38728	-2.07568	0	
2.2527	6.3334	-0.85196	0	
2.2533	2.97866	-1.16176	0	
2.2540	1.74507	-0.247843	0	
2.2547	-0.692011	-0.85196	0	
2.2553	-3.42997	-4.81745	0	
2.2560	-5.2653	-4.81745	0	
2.2567	-9.83859	-3.29941	0	
2.2573	-14.111	-4.52313	0	
2.2580	-12.5916	-2.38549	0	
2.2587	-8.93597	0.0619607	0	
2.2593	-5.2653	-2.38549	0	
2.2600	-1.60968	-2.38549	0	
2.2607	-0.692011	-1.16176	0	
2.2613	-2.52734	-2.38549	0	
2.2620	-0.391137	-1.47157	0	
2.2627	1.14332	2.49392	0	
2.2633	-0.692011	3.71764	0	
2.2640	-0.391137	4.02745	0	
2.2647	0.842448	3.11353	0	
2.2653	-0.692011	0.0619607	0	
2.2660	-0.391137	-1.47157	0	
2.2667	0.225656	-2.6798	0	
2.2673	-1.60968	-6.95509	0	
2.2680	-3.12909	-7.5747	0	
2.2687	-1.29376	-4.21333	0	
2.2693	-0.0752186	-4.21333	0	
2.2700	-0.692011	-6.35097	0	
2.2707	-2.52734	-6.04117	0	
2.2713	-1.29376	-3.29941	0	
2.2720	2.66274	-1.47157	0	
2.2727	2.97866	-2.38549	0	
2.2733	0.52653	-5.12725	0	
2.2740	0.52653	-5.73137	0	
2.2747	-0.0752186	-4.21333	0	
2.2753	-1.91055	-2.38549	0	
2.2760	1.4442	-2.38549	0	
2.2767	5.41574	-3.90353	0	
2.2773	1.74507	-2.38549	0	
2.2780	-0.992885	3.11353	0	
2.2787	1.14332	5.85529	0	
2.2793	1.14332	5.85529	0	
2.2800	0.52653	5.25117	0	
2.2807	3.27953	3.71764	0	
2.2813	2.97866	2.19961	0	
2.2820	1.14332	4.02745	0	
2.2827	4.1972	5.54548	0	
2.2833	6.63428	5.85529	0	
2.2840	3.27953	8.59705	0	
2.2847	1.14332	8.59705	0	
2.2853	2.97866	1.28568	0	
2.2860	3.27953	-2.38549	0	
2.2867	2.36186	2.19961	0	
2.2873	2.97866	3.42333	0	
2.2880	3.27953	0.666078	0	
2.2887	0.842448	2.19961	0	
2.2893	-1.29376	4.94137	0	
2.2900	-0.692011	3.11353	0	
2.2907	1.14332	0.975881	0	
2.2913	0.52653	-0.85196	0	
2.2920	-1.60968	-3.29941	0	
2.2927	-3.74589	-2.38549	0	
2.2933	-4.34763	-2.07568	0	
2.2940	-2.82822	-6.04117	0	
2.2947	-2.21143	-9.40254	0	
2.2953	-2.52734	-6.95509	0	
2.2960	-4.96443	-3.29941	0	
2.2967	-7.40151	-2.6798	0	
2.2973	-6.48384	-4.21333	0	
2.2980	-1.91055	-2.07568	0	
2.2987	2.36186	2.49392	0	
2.2993	5.11486	3.42333	0	
2.3000	4.79895	2.80372	0	
2.3007	1.14332	5.85529	0	
2.3013	-0.0752186	6.16509	0	
2.3020	2.06099	0.666078	0	
2.3027	3.5804	-1.47157	0	
2.3033	2.97866	0.666078	0	
2.3040	1.74507	-0.557646	0	
2.3047	0.842448	-4.21333	0	
2.3053	1.74507	-7.5747	0	
2.3060	2.66274	-8.79842	0	
2.3067	1.14332	-6.04117	0	
2.3073	1.14332	-1.76588	0	
2.3080	2.36186	-3.29941	0	
2.3087	-0.0752186	-7.86901	0	
2.3093	-3.42997	-8.17881	0	
2.3100	-1.91055	-6.95509	0	
2.3107	-1.60968	-8.17881	0	
2.3113	-5.56617	-8.79842	0	
2.3120	-5.2653	-5.73137	0	
2.3127	-0.391137	-2.9896	0	
2.3133	0.52653	-4.81745	0	
2.3140	-1.60968	-6.04117	0	
2.3147	-0.0752186	-3.29941	0	
2.3153	0.225656	-1.47157	0	
2.3160	-4.04676	-2.38549	0	
2.3167	-5.88209	-1.16176	0	
2.3173	-4.34763	0.975881	0	
2.3180	-5.56617	2.19961	0	
2.3187	-7.10063	4.02745	0	
2.3193	-4.66355	4.94137	0	
2.3200	-3.12909	3.42333	0	
2.3207	-3.42997	2.19961	0	
2.3213	-2.21143	1.28568	0	
2.3220	-0.992885	1.28568	0	
2.3227	-0.692011	3.71764	0	
2.3233	0.225656	6.76921	0	
2.3240	-1.60968	8.30274	0	
2.3247	-5.2653	9.21666	0	
2.3253	-3.42997	10.7347	0	
2.3260	1.74507	10.4404	0	
2.3267	0.225656	8.30274	0	
2.3273	-3.42997	4.94137	0	
2.3280	-1.60968	1.8898	0	
2.3287	3.88128	1.28568	0	
2.3293	4.79895	2.19961	0	
2.3300	1.4442	0.371764	0	
2.3307	-1.29376	-0.247843	0	
2.3313	-0.391137	2.80372	0	
2.3320	1.14332	3.42333	0	
2.3327	-1.60968	0.975881	0	
2.3333	-4.34763	1.58	0	
2.3340	-1.60968	2.19961	0	
2.3347	2.66274	-0.247843	0	
2.3353	2.97866	0.371764	0	
2.3360	2.06099	2.19961	0	
2.3367	2.06099	0.371764	0	
2.3373	0.52653	-1.76588	0	
2.3380	-0.391137	-1.76588	0	
2.3387	1.14332	-1.76588	0	
2.3393	0.52653	1.28568	0	
2.3400	0.225656	4.63156	0	
2.3407	2.97866	1.28568	0	
2.3413	3.88128	-2.38549	0	
2.3420	2.97866	2.19961	0	
2.3427	5.71661	5.25117	0	
2.3433	5.71661	2.19961	0	
2.3440	0.225656	2.19961	0	
2.3447	-2.82822	5.25117	0	
2.3453	-2.52734	4.94137	0	
2.3460	-3.74589	4.33725	0	
2.3467	-4.96443	4.94137	0	
2.3473	-6.18297	2.49392	0	
2.3480	-4.96443	0.371764	0	
2.3487	1.74507	0.666078	0	
2.3493	7.55194	-1.47157	0	
2.3500	5.41574	-5.12725	0	
2.3507	0.52653	-4.21333	0	
2.3513	-2.21143	-2.07568	0	
2.3520	-4.66355	-2.38549	0	
2.3527	-6.18297	-2.38549	0	
2.3533	-4.34763	-1.76588	0	
2.3540	-2.52734	-1.47157	0	
2.3547	-5.2653	-3.90353	0	
2.3553	-3.42997	-5.43705	0	
2.3560	7.55194	-3.29941	0	
2.3567	15.7959	-2.38549	0	
2.3573	13.9606	-4.52313	0	
2.3580	9.68815	-2.6798	0	
2.3587	4.49807	2.19961	0	
2.3593	-2.52734	2.80372	0	
2.3600	-4.04676	2.19961	0	
2.3607	-1.60968	4.94137	0	
2.3613	-0.992885	5.54548	0	
2.3620	-0.0752186	0.975881	0	
2.3627	0.842448	-3.29941	0	
2.3633	-0.0752186	-4.81745	0	
2.3640	-0.992885	-3.29941	0	
2.3647	-3.42997	-0.85196	0	
2.3653	-6.48384	-0.557646	0	
2.3660	-5.2653	-0.557646	0	
2.3667	-3.42997	-0.557646	0	
2.3673	-4.04676	-2.07568	0	
2.3680	-0.692011	-3.60921	0	
2.3687	5.71661	-4.52313	0	
2.3693	7.55194	-5.73137	0	
2.3700	6.63428	-6.04117	0	
2.3707	4.79895	-5.73137	0	
2.3713	2.06099	-6.95509	0	
2.3720	-0.692011	-7.86901	0	
2.3727	-4.04676	-6.04117	0	
2.3733	-8.62005	-5.12725	0	
2.3740	-14.7278	-6.04117	0	
2.3747	-20.8355	-5.43705	0	
2.3753	-23.8894	-4.21333	0	
2.3760	-21.7532	-6.04117	0	
2.3767	-15.3446	-9.71234	0	
2.3773	-7.10063	-11.2304	0	
2.3780	-0.692011	-11.5402	0	
2.3787	0.842448	-9.71234	0	
2.3793	-0.992885	-4.21333	0	
2.3800	-1.60968	0.371764	0	
2.3807	-1.29376	1.8898	0	
2.3813	-1.91055	0.371764	0	
2.3820	-2.82822	-1.16176	0	
2.3827	-1.60968	-0.557646	0	
2.3833	0.52653	0.0619607	0	
2.3840	0.52653	-2.6798	0	
2.3847	-0.992885	-5.73137	0	
2.3853	-0.992885	-3.60921	0	
2.3860	0.842448	-0.247843	0	
2.3867	0.842448	0.371764	0	
2.3873	0.842448	-0.557646	0	
2.3880	2.36186	-1.47157	0	
2.3887	2.36186	-0.247843	0	
2.3893	0.225656	3.11353	0	
2.3900	-0.692011	3.71764	0	
2.3907	-2.21143	-0.557646	0	
2.3913	-3.74589	-3.90353	0	
2.3920	-0.992885	-2.38549	0	
2.3927	1.14332	-1.47157	0	
2.3933	-0.692011	-2.07568	0	
2.3940	-0.692011	-0.557646	0	
2.3947	1.4442	0.371764	0	
2.3953	1.14332	-1.76588	0	
2.3960	1.14332	-4.21333	0	
2.3967	2.97866	-5.73137	0	
2.3973	3.27953	-7.86901	0	
2.3980	2.97866	-5.12725	0	
2.3987	2.97866	2.19961	0	
2.3993	3.88128	4.94137	0	
2.4000	5.41574	4.33725	0	
2.4007	2.97866	7.68313	0	
2.4013	0.225656	11.6486	0	
2.4020	3.27953	10.4404	0	
2.4027	6.63428	9.21666	0	
2.4033	4.79895	9.52646	0	
2.4040	3.88128	9.82077	0	
2.4047	4.1972	9.21666	0	
2.4053	1.14332	6.16509	0	
2.4060	-0.692011	1.58	0	
2.4067	1.74507	0.666078	0	
2.4073	2.97866	1.28568	0	
2.4080	2.06099	-1.47157	0	
2.4087	0.52653	-2.38549	0	
2.4093	0.225656	0.371764	0	
2.4100	-0.0752186	1.58	0	
2.4107	-1.91055	1.58	0	
2.4113	-3.74589	0.371764	0	
2.4120	-2.52734	-1.16176	0	
2.4127	-0.992885	-0.85196	0	
2.4133	-2.52734	0.371764	0	
2.4140	-2.82822	0.0619607	0	
2.4147	-1.91055	0.371764	0	
2.4153	-2.52734	-0.247843	0	
2.4160	-3.12909	-1.47157	0	
2.4167	-1.60968	0.666078	0	
2.4173	-0.992885	2.19961	0	
2.4180	-2.82822	-0.557646	0	
2.4187	-4.96443	-2.6798	0	
2.4193	-4.04676	-0.85196	0	
2.4200	-1.60968	1.28568	0	
2.4207	-1.29376	3.11353	0	
2.4213	-1.91055	4.02745	0	
2.4220	-0.692011	3.42333	0	
2.4227	-1.29376	3.71764	0	
2.4233	-1.91055	2.80372	0	
2.4240	1.4442	-2.07568	0	
2.4247	3.88128	-4.21333	0	
2.4253	2.06099	0.371764	0	
2.4260	0.52653	4.33725	0	
2.4267	1.14332	3.42333	0	
2.4273	1.14332	2.80372	0	
2.4280	-0.0752186	2.19961	0	
2.4287	0.225656	-2.9896	0	
2.4293	2.66274	-7.5747	0	
2.4300	3.88128	-6.04117	0	
2.4307	1.14332	-3.29941	0	
2.4313	-0.391137	-2.38549	0	
2.4320	1.4442	-2.07568	0	
2.4327	1.74507	-2.6798	0	
2.4333	0.52653	-5.43705	0	
2.4340	1.74507	-6.95509	0	
2.4347	2.97866	-6.04117	0	
2.4353	0.225656	-2.9896	0	
2.4360	-3.42997	-0.557646	0	
2.4367	-2.82822	-1.47157	0	
2.4373	-1.29376	-2.07568	0	
2.4380	-0.992885	1.8898	0	
2.4387	0.225656	5.85529	0	
2.4393	-1.29376	6.4749	0	
2.4400	-2.82822	7.38882	0	
2.4407	1.14332	6.76921	0	
2.4413	4.1972	4.33725	0	
2.4420	1.14332	4.63156	0	
2.4427	-0.391137	5.54548	0	
2.4433	0.225656	2.49392	0	
2.4440	-1.60968	0.371764	0	
2.4447	-0.992885	3.11353	0	
2.4453	0.225656	4.02745	0	
2.4460	-2.21143	3.11353	0	
2.4467	-1.29376	4.94137	0	
2.4473	1.74507	5.85529	0	
2.4480	0.225656	4.02745	0	
2.4487	-1.60968	3.71764	0	
2.4493	-0.692011	3.71764	0	
2.4500	-0.692011	3.11353	0	
2.4507	0.225656	3.42333	0	
2.4513	2.06099	3.42333	0	
2.4520	1.14332	0.975881	0	
2.4527	-2.82822	0.0619607	0	
2.4533	-5.2653	1.28568	0	
2.4540	-4.04676	0.371764	0	
2.4547	-2.21143	-0.557646	0	
2.4553	-3.74589	2.19961	0	
2.4560	-4.04676	4.02745	0	
2.4567	-0.692011	1.8898	0	
2.4573	-2.52734	1.28568	0	
2.4580	-10.1545	4.33725	0	
2.4587	-14.4269	3.71764	0	
2.4593	-13.5093	1.28568	0	
2.4600	-9.53772	1.8898	0	
2.4607	-6.79976	1.28568	0	
2.4613	-7.40151	-0.557646	0	
2.4620	-0.0752186	0.371764	0	
2.4627	17.6162	1.8898	0	
2.4633	28.2972	0.666078	0	
2.4640	22.8063	-0.247843	0	
2.4647	13.6597	-0.557646	0	
2.4653	9.07136	-0.85196	0	
2.4660	10.3049	0.371764	0	
2.4667	14.8782	1.28568	0	
2.4673	12.1252	1.58	0	
2.4680	1.74507	1.8898	0	
2.4687	-4.34763	0.975881	0	
2.4693	-7.70238	0.0619607	0	
2.4700	-14.7278	0.371764	0	
2.4707	-13.5093	-2.9896	0	
2.4713	-1.29376	-8.17881	0	
2.4720	5.71661	-9.71234	0	
2.4727	4.79895	-9.40254	0	
2.4733	5.71661	-8.79842	0	
2.4740	5.11486	-5.12725	0	
2.4747	2.97866	-3.90353	0	
2.4753	3.5804	-8.17881	0	
2.4760	0.842448	-12.4541	0	
2.4767	-0.992885	-11.85	0	
2.4773	3.88128	-9.71234	0	
2.4780	6.3334	-6.04117	0	
2.4787	1.14332	0.0619607	0	
2.4793	-1.29376	4.63156	0	
2.4800	-1.91055	4.94137	0	
2.4807	-3.42997	5.85529	0	
2.4813	-1.60968	8.30274	0	
2.4820	-0.0752186	8.59705	0	
2.4827	-0.692011	6.16509	0	
2.4833	-0.391137	5.85529	0	
2.4840	-2.52734	7.07901	0	
2.4847	-4.04676	5.85529	0	
2.4853	3.88128	3.71764	0	
2.4860	12.1252	0.0619607	0	
2.4867	10.3049	-4.81745	0	
2.4873	6.3334	-3.29941	0	
2.4880	2.66274	2.49392	0	
2.4887	-3.42997	1.58	0	
2.4893	-6.18297	-1.76588	0	
2.4900	-5.2653	-0.557646	0	
2.4907	-8.0183	-1.16176	0	
2.4913	-14.4269	-6.04117	0	
2.4920	-18.0825	-9.71234	0	
2.4927	-16.2472	-10.3165	0	
2.4933	-9.53772	-9.71234	0	
2.4940	-3.42997	-8.79842	0	
2.4947	-2.82822	-8.17881	0	
2.4953	-4.96443	-7.86901	0	
2.4960	-4.34763	-8.79842	0	
2.4967	-4.04676	-9.71234	0	
2.4973	-4.66355	-7.26489	0	
2.4980	-3.74589	-4.52313	0	
2.4987	-3.12909	-4.21333	0	
2.4993	-4.04676	1.28568	0	
2.5000	-2.21143	6.76921	0	
2.5007	0.52653	1.58	0	
2.5013	-0.992885	-5.43705	0	
2.5020	-2.52734	-3.29941	0	
2.5027	-0.992885	-0.557646	0	
2.5033	-2.52734	-0.85196	0	
2.5040	-3.74589	1.28568	0	
2.5047	-0.0752186	2.19961	0	
2.5053	1.74507	0.371764	0	
2.5060	-0.992885	-1.16176	0	
2.5067	-2.82822	-1.47157	0	
2.5073	-2.52734	0.666078	0	
2.5080	-1.91055	3.42333	0	
2.5087	-1.60968	-0.85196	0	
2.5093	-2.52734	-6.66078	0	
2.5100	-2.52734	-5.73137	0	
2.5107	-0.992885	-6.04117	0	
2.5113	-0.692011	-10.9206	0	
2.5120	-0.0752186	-10.6263	0	
2.5127	1.14332	-6.35097	0	
2.5133	0.225656	-6.95509	0	
2.5140	-2.82822	-7.26489	0	
2.5147	-3.74589	-7.86901	0	
2.5153	-0.992885	-13.0582	0	
2.5160	2.66274	-13.9721	0	
2.5167	2.06099	-8.48862	0	
2.5173	-0.992885	-6.04117	0	
2.5180	-0.391137	-6.04117	0	
2.5187	3.5804	-2.6798	0	
2.5193	2.97866	-1.16176	0	
2.5200	-0.0752186	-2.38549	0	
2.5207	0.225656	-1.47157	0	
2.5213	3.5804	-0.557646	0	
2.5220	5.11486	-1.76588	0	
2.5227	4.1972	-3.60921	0	
2.5233	3.88128	-4.21333	0	
2.5240	3.88128	-2.38549	0	
2.5247	2.36186	-1.47157	0	
2.5253	2.06099	-1.76588	0	
2.5260	3.5804	-1.16176	0	
2.5267	3.27953	0.666078	0	
2.5273	2.36186	0.975881	0	
2.5280	2.97866	-0.557646	0	
2.5287	2.66274	-2.07568	0	
2.5293	2.06099	-2.07568	0	
2.5300	1.4442	0.371764	0	
2.5307	-0.692011	2.49392	0	
2.5313	-2.52734	0.371764	0	
2.5320	-1.60968	-1.76588	0	
2.5327	-1.91055	-2.38549	0	
2.5333	-4.34763	-0.557646	0	
2.5340	-3.12909	3.11353	0	
2.5347	1.14332	3.11353	0	
2.5353	2.66274	-0.247843	0	
2.5360	1.4442	0.0619607	0	
2.5367	0.52653	3.11353	0	
2.5373	0.225656	3.11353	0	
2.5380	1.14332	3.71764	0	
2.5387	1.74507	6.76921	0	
2.5393	0.52653	5.85529	0	
2.5400	1.74507	4.02745	0	
2.5407	5.11486	4.94137	0	
2.5413	3.88128	3.11353	0	
2.5420	0.225656	1.8898	0	
2.5427	1.74507	4.02745	0	
2.5433	3.5804	2.19961	0	
2.5440	1.14332	-0.557646	0	
2.5447	-0.692011	2.80372	0	
2.5453	0.52653	6.76921	0	
2.5460	2.66274	5.54548	0	
2.5467	3.88128	4.94137	0	
2.5473	0.52653	4.63156	0	
2.5480	-3.12909	4.02745	0	
2.5487	-0.692011	4.02745	0	
2.5493	0.225656	1.58	0	
2.5500	-4.34763	-1.47157	0	
2.5507	-4.34763	0.371764	0	
2.5513	-0.692011	0.371764	0	
2.5520	-2.52734	-1.76588	0	
2.5527	-4.96443	0.371764	0	
2.5533	-2.52734	3.42333	0	
2.5540	-1.60968	2.19961	0	
2.5547	-1.91055	0.371764	0	
2.5553	0.225656	-0.85196	0	
2.5560	0.225656	-2.9896	0	
2.5567	-1.60968	-2.6798	0	
2.5573	-0.391137	-2.6798	0	
2.5580	2.06099	-2.38549	0	
2.5587	1.74507	2.19961	0	
2.5593	2.06099	6.4749	0	
2.5600	2.66274	5.54548	0	
2.5607	-0.0752186	4.94137	0	
2.5613	-1.91055	6.16509	0	
2.5620	1.14332	5.85529	0	
2.5627	4.79895	5.25117	0	
2.5633	3.88128	4.94137	0	
2.5640	1.14332	3.71764	0	
2.5647	0.842448	3.42333	0	
2.5653	1.14332	4.02745	0	
2.5660	2.06099	3.42333	0	
2.5667	2.06099	2.49392	0	
2.5673	-1.60968	3.11353	0	
2.5680	-4.04676	4.02745	0	
2.5687	-0.0752186	2.80372	0	
2.5693	0.842448	0.0619607	0	
2.5700	-6.48384	-0.247843	0	
2.5707	-11.6739	1.28568	0	
2.5713	-11.6739	1.28568	0	
2.5720	-12.2907	0.666078	0	
2.5727	-10.7563	-0.247843	0	
2.5733	-7.70238	-2.07568	0	
2.5740	-5.2653	-3.29941	0	
2.5747	2.06099	-4.81745	0	
2.5753	9.38728	-6.95509	0	
2.5760	8.77049	-6.95509	0	
2.5767	6.63428	-5.43705	0	
2.5773	7.25107	-4.21333	0	
2.5780	5.41574	-4.21333	0	
2.5787	3.88128	-4.52313	0	
2.5793	6.3334	-3.90353	0	
2.5800	6.63428	-1.16176	0	
2.5807	2.66274	-0.247843	0	
2.5813	0.52653	-1.76588	0	
2.5820	1.14332	-2.38549	0	
2.5827	-0.692011	-1.16176	0	
2.5833	-4.34763	0.666078	0	
2.5840	-6.18297	2.19961	0	
2.5847	-7.10063	0.371764	0	
2.5853	-9.83859	-2.07568	0	
2.5860	-8.0183	-0.557646	0	
2.5867	-1.29376	0.371764	0	
2.5873	0.52653	-0.557646	0	
2.5880	-4.04676	-0.247843	0	
2.5887	-6.48384	-1.16176	0	
2.5893	-2.52734	-3.60921	0	
2.5900	4.79895	-3.29941	0	
2.5907	7.55194	-0.85196	0	
2.5913	3.5804	-0.557646	0	
2.5920	0.225656	-2.07568	0	
2.5927	2.06099	-5.12725	0	
2.5933	2.97866	-6.95509	0	
2.5940	2.06099	-6.35097	0	
2.5947	3.5804	-8.48862	0	
2.5953	4.49807	-11.5402	0	
2.5960	0.52653	-10.3165	0	
2.5967	-1.91055	-6.66078	0	
2.5973	2.97866	-3.90353	0	
2.5980	9.38728	-2.07568	0	
2.5987	8.77049	-4.21333	0	
2.5993	5.71661	-8.48862	0	
2.6000	3.27953	-4.52313	0	
2.6007	-0.0752186	2.80372	0	
2.6013	-3.42997	2.80372	0	
2.6020	-4.04676	0.666078	0	
2.6027	-7.70238	2.80372	0	
2.6033	-13.5093	4.63156	0	
2.6040	-15.3446	4.94137	0	
2.6047	-15.3446	6.16509	0	
2.6053	-15.9463	5.54548	0	
2.6060	-14.4269	2.80372	0	
2.6067	-11.373	1.58	0	
2.6073	-8.93597	3.11353	0	
2.6080	-8.31917	6.4749	0	
2.6087	-8.93597	8.30274	0	
2.6093	-9.83859	6.16509	0	
2.6100	-12.2907	2.80372	0	
2.6107	-15.3446	0.0619607	0	
2.6113	-11.373	-5.43705	0	
2.6120	0.52653	-11.2304	0	
2.6127	8.46961	-12.1443	0	
2.6133	7.55194	-13.0582	0	
2.6140	5.71661	-15.8155	0	
2.6147	6.63428	-13.0582	0	
2.6153	5.71661	-6.66078	0	
2.6160	2.66274	-4.81745	0	
2.6167	-0.0752186	-6.04117	0	
2.6173	-0.692011	-5.43705	0	
2.6180	-2.82822	-4.81745	0	
2.6187	-7.40151	-3.60921	0	
2.6193	-9.23684	-2.38549	0	
2.6200	-5.2653	-2.9896	0	
2.6207	-1.29376	-2.38549	0	
2.6213	-1.29376	-0.557646	0	
2.6220	-0.692011	-1.16176	0	
2.6227	0.52653	-2.38549	0	
2.6233	-0.692011	-1.47157	0	
2.6240	-1.60968	-0.85196	0	
2.6247	0.225656	-1.47157	0	
2.6253	-0.0752186	-1.76588	0	
2.6260	-1.29376	0.0619607	0	
2.6267	-0.692011	2.80372	0	
2.6273	0.225656	5.54548	0	
2.6280	-0.0752186	6.76921	0	
2.6287	1.4442	7.68313	0	
2.6293	2.36186	6.76921	0	
2.6300	0.225656	4.94137	0	
2.6307	-1.60968	6.4749	0	
2.6313	-1.60968	9.82077	0	
2.6320	-2.21143	8.90685	0	
2.6327	-4.34763	4.02745	0	
2.6333	-4.66355	-0.557646	0	
2.6340	-3.74589	-0.557646	0	
2.6347	-3.12909	2.19961	0	
2.6353	-1.91055	2.49392	0	
2.6360	-0.0752186	-2.38549	0	
2.6367	1.14332	-5.12725	0	
2.6373	2.66274	-4.21333	0	
2.6380	3.5804	-2.9896	0	
2.6387	2.97866	-0.557646	0	
2.6393	2.36186	1.28568	0	
2.6400	2.97866	-0.557646	0	
2.6407	2.66274	-2.38549	0	
2.6413	2.06099	0.666078	0	
2.6420	2.66274	2.49392	0	
2.6427	2.97866	0.975881	0	
2.6433	2.36186	2.19961	0	
2.6440	2.06099	4.63156	0	
2.6447	2.36186	1.8898	0	
2.6453	1.4442	0.371764	0	
2.6460	0.225656	4.02745	0	
2.6467	1.74507	4.94137	0	
2.6473	4.79895	2.19961	0	
2.6480	3.88128	2.19961	0	
2.6487	0.225656	1.28568	0	
2.6493	1.14332	-3.60921	0	
2.6500	4.49807	-4.21333	0	
2.6507	1.14332	-0.557646	0	
2.6513	-2.82822	-2.38549	0	
2.6520	0.225656	-5.43705	0	
2.6527	2.06099	-3.29941	0	
2.6533	0.842448	-0.85196	0	
2.6540	1.4442	0.666078	0	
2.6547	1.14332	4.02745	0	
2.6553	-2.21143	5.85529	0	
2.6560	-1.60968	5.85529	0	
2.6567	1.74507	5.54548	0	
2.6573	2.97866	4.63156	0	
2.6580	3.88128	4.63156	0	
2.6587	2.66274	5.54548	0	
2.6593	-0.391137	4.94137	0	
2.6600	0.52653	4.63156	0	
2.6607	1.74507	5.54548	0	
2.6613	0.225656	5.54548	0	
2.6620	2.06099	6.76921	0	
2.6627	3.88128	9.21666	0	
2.6633	0.842448	6.4749	0	
2.6640	-0.692011	2.49392	0	
2.6647	2.36186	2.49392	0	
2.6653	1.74507	1.58	0	
2.6660	-1.60968	-0.247843	0	
2.6667	-1.60968	0.666078	0	
2.6673	-1.60968	0.371764	0	
2.6680	-0.391137	-2.38549	0	
2.6687	2.06099	-3.29941	0	
2.6693	1.14332	-3.29941	0	
2.6700	-0.992885	-4.52313	0	
2.6707	-1.60968	-6.04117	0	
2.6713	-2.52734	-7.26489	0	
2.6720	-5.2653	-7.5747	0	
2.6727	-8.0183	-3.60921	0	
2.6733	-12.5916	1.58	0	
2.6740	-16.2472	3.71764	0	
2.6747	-16.2472	3.11353	0	
2.6753	-14.7278	2.49392	0	
2.6760	-9.53772	1.28568	0	
2.6767	1.74507	3.11353	0	
2.6773	9.38728	7.68313	0	
2.6780	8.46961	8.90685	0	
2.6787	5.11486	6.4749	0	
2.6793	2.06099	4.02745	0	
2.6800	1.4442	1.28568	0	
2.6807	2.66274	-1.47157	0	
2.6813	1.14332	0.975881	0	
2.6820	0.842448	4.94137	0	
2.6827	2.66274	3.42333	0	
2.6833	-0.692011	-0.247843	0	
2.6840	-4.34763	-1.47157	0	
2.6847	-1.91055	-0.85196	0	
2.6853	-0.391137	-0.247843	0	
2.6860	0.225656	0.371764	0	
2.6867	5.11486	-1.16176	0	
2.6873	8.77049	-3.29941	0	
2.6880	6.93515	-2.07568	0	
2.6887	3.27953	-1.16176	0	
2.6893	-0.692011	-3.90353	0	
2.6900	-0.692011	-6.95509	0	
2.6907	2.97866	-6.35097	0	
2.6913	4.79895	-5.12725	0	
2.6920	4.1972	-6.04117	0	
2.6927	3.88128	-5.43705	0	
2.6933	-0.0752186	-2.38549	0	
2.6940	-1.60968	-1.16176	0	
2.6947	2.66274	-2.9896	0	
2.6953	2.66274	-2.9896	0	
2.6960	-3.42997	-1.47157	0	
2.6967	-4.96443	-2.07568	0	
2.6973	-3.12909	-2.6798	0	
2.6980	-2.21143	-1.76588	0	
2.6987	-0.692011	-1.47157	0	
2.6993	0.225656	-2.07568	0	
2.7000	-0.391137	-1.47157	0	
2.7007	1.74507	1.28568	0	
2.7013	4.79895	1.58	0	
2.7020	4.49807	-1.76588	0	
2.7027	2.36186	-4.52313	0	
2.7033	2.06099	-3.29941	0	
2.7040	3.88128	-1.16176	0	
2.7047	5.41574	0.371764	0	
2.7053	2.06099	2.19961	0	
2.7060	-2.21143	1.8898	0	
2.7067	-3.74589	0.371764	0	
2.7073	-4.34763	1.8898	0	
2.7080	-4.04676	1.8898	0	
2.7087	-3.42997	-2.38549	0	
2.7093	-4.34763	-4.21333	0	
2.7100	-2.21143	-3.29941	0	
2.7107	4.1972	-6.04117	0	
2.7113	8.77049	-12.4541	0	
2.7120	11.2076	-14.2819	0	
2.7127	11.5235	-9.71234	0	
2.7133	7.85282	-5.12725	0	
2.7140	3.88128	-3.29941	0	
2.7147	3.88128	-3.60921	0	
2.7153	2.36186	-6.04117	0	
2.7160	-4.34763	-7.26489	0	
2.7167	-11.6739	-6.04117	0	
2.7173	-14.7278	-4.81745	0	
2.7180	-16.864	-3.90353	0	
2.7187	-17.7817	-2.38549	0	
2.7193	-9.83859	-1.47157	0	
2.7200	5.71661	0.666078	0	
2.7207	14.8782	4.94137	0	
2.7213	12.1252	5.25117	0	
2.7220	6.63428	3.71764	0	
2.7227	2.97866	4.63156	0	
2.7233	1.14332	1.8898	0	
2.7240	1.14332	-4.21333	0	
2.7247	-1.91055	-2.9896	0	
2.7253	-8.93597	3.11353	0	
2.7260	-15.0287	3.71764	0	
2.7267	-17.7817	3.11353	0	
2.7273	-17.4808	4.94137	0	
2.7280	-14.4269	1.8898	0	
2.7287	-11.0722	-5.43705	0	
2.7293	-8.31917	-6.04117	0	
2.7300	-3.42997	-2.6798	0	
2.7307	0.225656	-4.21333	0	
2.7313	-0.391137	-6.95509	0	
2.7320	-0.692011	-5.43705	0	
2.7327	1.14332	-4.81745	0	
2.7333	1.4442	-5.12725	0	
2.7340	1.74507	-3.29941	0	
2.7347	4.79895	-1.47157	0	
2.7353	4.79895	-3.29941	0	
2.7360	-0.692011	-3.29941	0	
2.7367	-3.42997	-0.85196	0	
2.7373	-2.21143	2.19961	0	
2.7380	-1.29376	5.54548	0	
2.7387	-0.992885	7.07901	0	
2.7393	0.52653	4.02745	0	
2.7400	2.06099	0.666078	0	
2.7407	2.97866	2.19961	0	
2.7413	3.88128	2.80372	0	
2.7420	3.88128	1.58	0	
2.7427	4.49807	1.28568	0	
2.7433	4.49807	1.8898	0	
2.7440	2.97866	1.8898	0	
2.7447	1.4442	3.71764	0	
2.7453	1.74507	4.02745	0	
2.7460	2.66274	0.0619607	0	
2.7467	2.66274	-3.29941	0	
2.7473	1.14332	-0.557646	0	
2.7480	0.225656	0.0619607	0	
2.7487	0.52653	-4.21333	0	
2.7493	-0.692011	-4.21333	0	
2.7500	-2.82822	-0.557646	0	
2.7507	-2.21143	-1.76588	0	
2.7513	-0.692011	-6.04117	0	
2.7520	-2.21143	-6.35097	0	
2.7527	-1.29376	-5.12725	0	
2.7533	0.52653	-2.9896	0	
2.7540	-1.60968	-1.47157	0	
2.7547	-3.42997	-3.60921	0	
2.7553	-0.391137	-5.12725	0	
2.7560	1.14332	-2.6798	0	
2.7567	-0.692011	-0.557646	0	
2.7573	-0.992885	-1.16176	0	
2.7580	2.06099	-1.16176	0	
2.7587	4.79895	-2.07568	0	
2.7593	3.88128	-4.21333	0	
2.7600	2.36186	-2.9896	0	
2.7607	3.88128	1.8898	0	
2.7613	3.88128	4.94137	0	
2.7620	2.06099	4.33725	0	
2.7627	4.79895	2.80372	0	
2.7633	10.3049	4.02745	0	
2.7640	13.3438	4.94137	0	
2.7647	12.4412	3.11353	0	
2.7653	8.77049	0.666078	0	
2.7660	6.01749	0.371764	0	
2.7667	6.63428	-1.16176	0	
2.7673	4.79895	-3.90353	0	
2.7680	-0.391137	-3.60921	0	
2.7687	-2.82822	-1.47157	0	
2.7693	-4.04676	-1.76588	0	
2.7700	-10.4554	-4.21333	0	
2.7707	-15.9463	-5.12725	0	
2.7713	-14.4269	-4.52313	0	
2.7720	-11.9748	-4.21333	0	
2.7727	-12.5916	-4.52313	0	
2.7733	-10.1545	-6.66078	0	
2.7740	-1.60968	-8.48862	0	
2.7747	6.93515	-6.35097	0	
2.7753	9.68815	-4.21333	0	
2.7760	8.46961	-6.04117	0	
2.7767	6.63428	-7.86901	0	
2.7773	3.5804	-6.04117	0	
2.7780	2.97866	-4.52313	0	
2.7787	5.71661	-4.21333	0	
2.7793	5.41574	-1.47157	0	
2.7800	2.66274	1.8898	0	
2.7807	2.66274	2.49392	0	
2.7813	2.66274	2.49392	0	
2.7820	1.4442	2.19961	0	
2.7827	2.06099	0.666078	0	
2.7833	0.842448	2.19961	0	
2.7840	-1.60968	5.25117	0	
2.7847	-0.0752186	4.94137	0	
2.7853	2.06099	2.19961	0	
2.7860	2.36186	1.28568	0	
2.7867	4.79895	2.19961	0	
2.7873	5.41574	1.58	0	
2.7880	1.14332	0.371764	0	
2.7887	-0.692011	0.975881	0	
2.7893	-0.0752186	0.371764	0	
2.7900	-0.391137	-2.07568	0	
2.7907	-0.692011	-1.47157	0	
2.7913	-1.60968	1.28568	0	
2.7920	-3.42997	0.0619607	0	
2.7927	-1.60968	-2.38549	0	
2.7933	-0.0752186	-0.557646	0	
2.7940	-2.52734	1.58	0	
2.7947	-4.04676	1.28568	0	
2.7953	-2.21143	1.8898	0	
2.7960	-1.91055	1.28568	0	
2.7967	-3.42997	-1.47157	0	
2.7973	-3.74589	-3.29941	0	
2.7980	-3.42997	-3.29941	0	
2.7987	-2.82822	-2.38549	0	
2.7993	-2.21143	-0.247843	0	
2.8000	-0.692011	2.19961	0	
2.8007	0.52653	2.19961	0	
2.8013	-0.692011	2.19961	0	
2.8020	-3.74589	1.28568	0	
2.8027	-5.2653	1.28568	0	
2.8033	-4.04676	4.02745	0	
2.8040	-1.91055	5.85529	0	
2.8047	-1.91055	3.11353	0	
2.8053	-4.34763	2.19961	0	
2.8060	-6.48384	5.25117	0	
2.8067	-5.88209	6.76921	0	
2.8073	-4.96443	6.76921	0	
2.8080	-3.42997	6.4749	0	
2.8087	-0.692011	4.02745	0	
2.8093	-1.91055	2.49392	0	
2.8100	-6.48384	2.49392	0	
2.8107	-5.56617	1.28568	0	
2.8113	-2.21143	0.371764	0	
2.8120	-3.42997	0.666078	0	
2.8127	-4.66355	1.28568	0	
2.8133	-1.91055	0.371764	0	
2.8140	0.225656	-4.81745	0	
2.8147	-0.992885	-9.40254	0	
2.8153	-3.42997	-6.66078	0	
2.8160	-3.42997	-2.6798	0	
2.8167	-4.66355	-3.60921	0	
2.8173	-8.0183	-3.60921	0	
2.8180	-6.48384	-1.47157	0	
2.8187	2.36186	-1.16176	0	
2.8193	6.93515	0.0619607	0	
2.8200	4.79895	1.58	0	
2.8207	3.5804	1.28568	0	
2.8213	2.97866	0.975881	0	
2.8220	2.66274	0.371764	0	
2.8227	2.97866	-0.247843	0	
2.8233	1.74507	0.975881	0	
2.8240	0.842448	3.42333	0	
2.8247	1.4442	5.25117	0	
2.8253	0.52653	7.07901	0	
2.8260	-0.692011	9.52646	0	
2.8267	-0.0752186	10.1306	0	
2.8273	-0.391137	6.76921	0	
2.8280	0.225656	1.28568	0	
2.8287	2.06099	0.371764	0	
2.8293	1.14332	3.71764	0	
2.8300	0.842448	4.02745	0	
2.8307	2.97866	0.0619607	0	
2.8313	2.06099	-1.47157	0	
2.8320	1.14332	0.666078	0	
2.8327	2.97866	1.58	0	
2.8333	1.74507	-1.47157	0	
2.8340	1.14332	-4.81745	0	
2.8347	4.49807	-3.29941	0	
2.8353	4.49807	-1.76588	0	
2.8360	2.66274	-5.73137	0	
2.8367	6.01749	-9.71234	0	
2.8373	6.63428	-6.95509	0	
2.8380	2.97866	-3.29941	0	
2.8387	4.49807	-2.6798	0	
2.8393	5.41574	-0.85196	0	
2.8400	0.842448	4.33725	0	
2.8407	1.14332	5.85529	0	
2.8413	7.55194	2.80372	0	
2.8420	8.46961	2.49392	0	
2.8427	3.88128	4.63156	0	
2.8433	0.842448	4.33725	0	
2.8440	-0.0752186	6.16509	0	
2.8447	-0.391137	10.7347	0	
2.8453	-1.60968	11.3543	0	
2.8460	-2.52734	10.4404	0	
2.8467	-0.692011	10.1306	0	
2.8473	1.14332	7.99293	0	
2.8480	-0.692011	4.02745	0	
2.8487	-2.21143	1.28568	0	
2.8493	-0.692011	0.0619607	0	
2.8500	0.225656	-2.07568	0	
2.8507	-0.391137	-4.81745	0	
2.8513	-0.992885	-7.26489	0	
2.8520	-1.91055	-6.95509	0	
2.8527	-4.04676	-4.52313	0	
2.8533	-5.2653	-2.9896	0	
2.8540	-3.74589	-2.38549	0	
2.8547	-0.692011	-2.07568	0	
2.8553	-0.992885	-0.557646	0	
2.8560	-4.66355	2.19961	0	
2.8567	-5.2653	1.28568	0	
2.8573	-2.82822	-0.85196	0	
2.8580	-3.42997	2.19961	0	
2.8587	-6.79976	5.25117	0	
2.8593	-6.79976	1.58	0	
2.8600	-4.96443	-1.76588	0	
2.8607	-2.52734	-0.557646	0	
2.8613	0.225656	0.371764	0	
2.8620	-0.0752186	-0.85196	0	
2.8627	-1.29376	-0.247843	0	
2.8633	-0.0752186	1.58	0	
2.8640	-0.992885	1.8898	0	
2.8647	-2.52734	1.28568	0	
2.8653	0.52653	1.28568	0	
2.8660	2.66274	3.11353	0	
2.8667	-1.60968	6.16509	0	
2.8673	-3.12909	6.76921	0	
2.8680	-0.391137	4.02745	0	
2.8687	-0.992885	-0.557646	0	
2.8693	-3.74589	-5.12725	0	
2.8700	-2.52734	-8.79842	0	
2.8707	-0.992885	-8.48862	0	
2.8713	-2.52734	-6.66078	0	
2.8720	-2.52734	-6.04117	0	
2.8727	-0.992885	-5.12725	0	
2.8733	-0.992885	-1.76588	0	
2.8740	-2.21143	-1.47157	0	
2.8747	-2.21143	-1.16176	0	
2.8753	-2.21143	2.49392	0	
2.8760	-1.60968	3.42333	0	
2.8767	-0.692011	-0.247843	0	
2.8773	-0.0752186	-2.38549	0	
2.8780	2.66274	-1.76588	0	
2.8787	4.49807	-2.9896	0	
2.8793	1.14332	-5.12725	0	
2.8800	-3.12909	-6.04117	0	
2.8807	-2.52734	-6.04117	0	
2.8813	-1.29376	-3.60921	0	
2.8820	-0.692011	-1.16176	0	
2.8827	0.842448	-1.47157	0	
2.8833	0.52653	-4.21333	0	
2.8840	-0.992885	-5.12725	0	
2.8847	-0.692011	-3.60921	0	
2.8853	-1.60968	-4.21333	0	
2.8860	-4.34763	-5.12725	0	
2.8867	-4.04676	-2.6798	0	
2.8873	-2.21143	-1.76588	0	
2.8880	-3.42997	-6.04117	0	
2.8887	-4.34763	-7.86901	0	
2.8893	-1.29376	-3.29941	0	
2.8900	-1.91055	-1.47157	0	
2.8907	-6.18297	-5.12725	0	
2.8913	-6.18297	-7.86901	0	
2.8920	-4.96443	-8.79842	0	
2.8927	-4.96443	-10.0067	0	
2.8933	1.14332	-8.48862	0	
2.8940	8.46961	-5.43705	0	
2.8947	9.98903	-4.52313	0	
2.8953	11.8244	-4.52313	0	
2.8960	17.3153	-3.29941	0	
2.8967	15.48	-2.9896	0	
2.8973	8.77049	-2.38549	0	
2.8980	5.11486	-1.16176	0	
2.8987	-3.12909	-1.16176	0	
2.8993	-19.3011	-1.16176	0	
2.9000	-30.5989	0.371764	0	
2.9007	-32.7351	-0.247843	0	
2.9013	-36.0899	-1.47157	0	
2.9020	-42.7994	-1.76588	0	
2.9027	-40.0614	-2.6798	0	
2.9033	-20.5196	-4.21333	0	
2.9040	2.06099	-2.9896	0	
2.9047	7.55194	-0.557646	0	
2.9053	2.97866	-0.557646	0	
2.9060	3.88128	-0.247843	0	
2.9067	7.55194	1.28568	0	
2.9073	3.88128	2.80372	0	
2.9080	-1.60968	3.71764	0	
2.9087	-2.52734	4.63156	0	
2.9093	-1.29376	2.19961	0	
2.9100	0.225656	-2.6798	0	
2.9107	3.27953	-4.21333	0	
2.9113	6.63428	-2.6798	0	
2.9120	6.93515	-3.29941	0	
2.9127	4.79895	-3.90353	0	
2.9133	1.14332	-2.38549	0	
2.9140	0.225656	-2.38549	0	
2.9147	1.14332	-3.90353	0	
2.9153	1.14332	-2.38549	0	
2.9160	0.225656	-1.16176	0	
2.9167	-0.0752186	-1.47157	0	
2.9173	-0.992885	0.371764	0	
2.9180	-1.29376	4.02745	0	
2.9187	-1.60968	5.25117	0	
2.9193	-2.21143	6.16509	0	
2.9200	-1.60968	7.07901	0	
2.9207	-0.391137	4.94137	0	
2.9213	-0.0752186	2.19961	0	
2.9220	1.14332	1.58	0	
2.9227	2.36186	0.975881	0	
2.9233	2.06099	1.8898	0	
