0.0000	-1.29915	2.92147	1
0.0007	-1.59441	0.472999	0	
0.0013	1.74204	0.472999	0	
0.0020	3.89745	1.39117	0	
0.0027	2.98214	-0.751234	0	
0.0033	2.06683	-1.97547	0	
0.0040	3.2774	0.166941	0	
0.0047	5.10802	0.472999	0	
0.0053	4.81276	0.472999	0	
0.0060	2.65735	6.90022	0	
0.0067	2.06683	10.5451	0	
0.0073	4.48797	4.1457	0	
0.0080	6.64338	-0.751234	0	
0.0087	7.55869	0.779058	0	
0.0093	8.17874	-0.445176	0	
0.0100	8.17874	-3.17188	0	
0.0107	7.55869	-0.445176	0	
0.0113	6.02333	0.472999	0	
0.0120	4.19271	-2.86582	0	
0.0127	4.81276	-1.97547	0	
0.0133	6.64338	2.30935	0	
0.0140	6.64338	2.30935	0	
0.0147	4.81276	0.472999	0	
0.0153	2.98214	-1.36335	0	
0.0160	2.65735	-4.09005	0	
0.0167	2.98214	-3.17188	0	
0.0173	2.65735	1.69723	0	
0.0180	0.826732	5.98205	0	
0.0187	0.826732	5.98205	0	
0.0193	3.89745	3.22752	0	
0.0200	4.81276	-1.36335	0	
0.0207	2.36209	-5.9264	0	
0.0213	-0.0885784	-6.53852	0	
0.0220	-0.679101	-5.31429	0	
0.0227	-1.29915	-5.9264	0	
0.0233	-1.59441	-7.76275	0	
0.0240	-2.50972	-7.76275	0	
0.0247	-3.12977	-6.84458	0	
0.0253	-1.59441	-6.84458	0	
0.0260	-0.679101	-7.15064	0	
0.0267	-3.42503	-5.00823	0	
0.0273	-4.34034	-2.28153	0	
0.0280	-1.59441	-2.55976	0	
0.0287	-1.59441	-4.39611	0	
0.0293	-5.58044	-3.47794	0	
0.0300	-7.08627	0.472999	0	
0.0307	-6.17096	5.06387	0	
0.0313	-6.17096	7.79058	0	
0.0320	-7.08627	7.79058	0	
0.0327	-8.32637	6.28811	0	
0.0333	-8.62163	5.06387	0	
0.0340	-5.25565	3.22752	0	
0.0347	-5.25565	3.22752	0	
0.0353	-8.91689	5.67599	0	
0.0360	-6.79101	8.40269	0	
0.0367	-3.42503	9.62693	0	
0.0373	-4.34034	6.28811	0	
0.0380	-2.50972	1.08512	0	
0.0387	0.53147	-0.445176	0	
0.0393	-2.21446	-0.445176	0	
0.0400	-4.04508	-2.28153	0	
0.0407	-1.29915	-3.17188	0	
0.0413	-1.29915	-4.09005	0	
0.0420	-2.50972	-7.15064	0	
0.0427	-0.679101	-9.90516	0	
0.0433	1.44678	-10.8233	0	
0.0440	1.74204	-9.5991	0	
0.0447	0.826732	-7.15064	0	
0.0453	0.826732	-8.06881	0	
0.0460	2.65735	-9.90516	0	
0.0467	2.65735	-5.9264	0	
0.0473	0.53147	-2.55976	0	
0.0480	0.53147	-3.17188	0	
0.0487	0.236209	0.779058	0	
0.0493	-0.679101	2.30935	0	
0.0500	1.15152	-3.47794	0	
0.0507	0.236209	-4.39611	0	
0.0513	-1.29915	-1.36335	0	
0.0520	2.98214	-4.39611	0	
0.0527	4.81276	-5.9264	0	
0.0533	-0.38384	-3.17188	0	
0.0540	-2.21446	-2.55976	0	
0.0547	0.236209	1.39117	0	
0.0553	-2.50972	5.98205	0	
0.0560	-4.96039	3.53358	0	
0.0567	-2.21446	2.00329	0	
0.0573	-1.29915	5.06387	0	
0.0580	-2.83451	5.06387	0	
0.0587	-3.42503	4.75782	0	
0.0593	-3.74982	4.1457	0	
0.0600	-3.42503	1.08512	0	
0.0607	-2.50972	0.779058	0	
0.0613	-2.83451	2.30935	0	
0.0620	-3.42503	-2.28153	0	
0.0627	-4.66513	-4.39611	0	
0.0633	-6.49575	-0.139117	0	
0.0640	-5.25565	1.69723	0	
0.0647	-2.50972	2.30935	0	
0.0653	-3.12977	5.67599	0	
0.0660	-2.83451	3.83964	0	
0.0667	0.826732	0.472999	0	
0.0673	1.74204	1.69723	0	
0.0680	0.236209	-0.445176	0	
0.0687	0.53147	-4.70217	0	
0.0693	1.15152	-1.05729	0	
0.0700	-0.38384	4.1457	0	
0.0707	-1.9192	3.53358	0	
0.0713	-1.59441	2.30935	0	
0.0720	-0.38384	0.779058	0	
0.0727	0.236209	-2.28153	0	
0.0733	-1.29915	-1.05729	0	
0.0740	-1.00389	1.39117	0	
0.0747	0.236209	0.166941	0	
0.0753	0.236209	-1.66941	0	
0.0760	-0.0885784	-2.86582	0	
0.0767	0.53147	-4.39611	0	
0.0773	2.06683	-3.17188	0	
0.0780	5.10802	-0.445176	0	
0.0787	6.64338	-1.97547	0	
0.0793	3.57266	-4.70217	0	
0.0800	1.74204	-3.47794	0	
0.0807	3.57266	-2.28153	0	
0.0813	4.48797	-3.47794	0	
0.0820	4.19271	-3.47794	0	
0.0827	5.40328	-0.751234	0	
0.0833	5.72807	-0.445176	0	
0.0840	2.65735	-1.36335	0	
0.0847	-0.38384	-0.139117	0	
0.0853	0.236209	2.00329	0	
0.0860	-0.679101	3.53358	0	
0.0867	-5.58044	6.90022	0	
0.0873	-7.41106	7.79058	0	
0.0880	-5.8757	3.22752	0	
0.0887	-6.79101	1.69723	0	
0.0893	-6.79101	5.06387	0	
0.0900	-2.50972	6.28811	0	
0.0907	0.236209	4.1457	0	
0.0913	-0.679101	4.45176	0	
0.0920	-1.00389	6.28811	0	
0.0927	-1.59441	6.59417	0	
0.0933	-3.12977	5.06387	0	
0.0940	-2.50972	3.22752	0	
0.0947	-2.21446	2.30935	0	
0.0953	-4.04508	1.08512	0	
0.0960	-2.83451	-0.139117	0	
0.0967	-0.38384	0.472999	0	
0.0973	-1.29915	-0.139117	0	
0.0980	-4.34034	-1.36335	0	
0.0987	-4.34034	-1.36335	0	
0.0993	-1.59441	-0.751234	0	
0.1000	0.236209	-0.751234	0	
0.1007	-0.38384	0.472999	0	
0.1013	-0.679101	0.472999	0	
0.1020	1.15152	-0.751234	0	
0.1027	3.57266	-0.139117	0	
0.1033	4.81276	-0.139117	0	
0.1040	5.10802	-2.86582	0	
0.1047	5.40328	-2.28153	0	
0.1053	6.02333	-0.751234	0	
0.1060	5.72807	-3.17188	0	
0.1067	4.81276	-5.00823	0	
0.1073	2.36209	-2.55976	0	
0.1080	0.236209	-0.445176	0	
0.1087	-1.29915	0.779058	0	
0.1093	-3.42503	2.00329	0	
0.1100	-6.17096	3.22752	0	
0.1107	-6.79101	4.75782	0	
0.1113	-4.34034	5.98205	0	
0.1120	-4.34034	5.06387	0	
0.1127	-4.04508	4.1457	0	
0.1133	-1.59441	3.53358	0	
0.1140	-1.9192	1.39117	0	
0.1147	-3.42503	-1.05729	0	
0.1153	-1.59441	-2.55976	0	
0.1160	-0.679101	-3.47794	0	
0.1167	-4.34034	-2.28153	0	
0.1173	-6.17096	-1.36335	0	
0.1180	-4.34034	-2.28153	0	
0.1187	-5.58044	-1.66941	0	
0.1193	-6.49575	-0.139117	0	
0.1200	-2.83451	-2.28153	0	
0.1207	0.236209	-3.78399	0	
0.1213	-0.679101	-1.36335	0	
0.1220	-2.21446	-0.139117	0	
0.1227	-2.21446	-2.86582	0	
0.1233	-2.50972	-3.47794	0	
0.1240	-2.83451	-1.36335	0	
0.1247	-2.21446	-1.05729	0	
0.1253	-2.50972	-1.36335	0	
0.1260	-2.50972	-0.139117	0	
0.1267	-0.0885784	-0.139117	0	
0.1273	1.15152	-3.78399	0	
0.1280	2.06683	-6.84458	0	
0.1287	3.57266	-5.00823	0	
0.1293	1.74204	-2.86582	0	
0.1300	-3.42503	-5.00823	0	
0.1307	-2.83451	-6.23246	0	
0.1313	2.36209	-4.09005	0	
0.1320	3.2774	-4.09005	0	
0.1327	0.236209	-5.9264	0	
0.1333	0.236209	-4.70217	0	
0.1340	2.98214	-2.86582	0	
0.1347	3.57266	-2.55976	0	
0.1353	2.65735	-4.09005	0	
0.1360	3.57266	-7.76275	0	
0.1367	4.81276	-8.68093	0	
0.1373	2.65735	-5.9264	0	
0.1380	0.236209	-5.9264	0	
0.1387	1.15152	-7.76275	0	
0.1393	1.74204	-8.06881	0	
0.1400	2.06683	-7.15064	0	
0.1407	4.81276	-4.39611	0	
0.1413	4.48797	-1.05729	0	
0.1420	-0.0885784	-1.97547	0	
0.1427	-2.50972	-4.09005	0	
0.1433	-1.00389	-2.86582	0	
0.1440	-1.00389	-1.97547	0	
0.1447	-2.50972	-1.36335	0	
0.1453	-2.50972	1.69723	0	
0.1460	-2.50972	2.61541	0	
0.1467	-2.83451	0.472999	0	
0.1473	-0.679101	-0.445176	0	
0.1480	2.98214	-1.36335	0	
0.1487	2.06683	-1.36335	0	
0.1493	-0.38384	0.779058	0	
0.1500	-0.38384	0.779058	0	
0.1507	-0.679101	0.779058	0	
0.1513	-2.21446	4.1457	0	
0.1520	-1.9192	5.06387	0	
0.1527	-2.50972	3.22752	0	
0.1533	-4.66513	5.06387	0	
0.1540	-3.42503	5.06387	0	
0.1547	-0.679101	-1.05729	0	
0.1553	-1.59441	-3.78399	0	
0.1560	-2.50972	-2.86582	0	
0.1567	-1.59441	-4.39611	0	
0.1573	-1.59441	-4.70217	0	
0.1580	-1.59441	-2.55976	0	
0.1587	1.15152	-2.28153	0	
0.1593	2.06683	-0.139117	0	
0.1600	1.15152	3.83964	0	
0.1607	3.89745	3.22752	0	
0.1613	5.10802	0.472999	0	
0.1620	2.65735	-1.05729	0	
0.1627	2.06683	-3.17188	0	
0.1633	3.2774	-3.17188	0	
0.1640	2.65735	0.472999	0	
0.1647	2.36209	2.61541	0	
0.1653	3.89745	2.61541	0	
0.1660	4.81276	3.83964	0	
0.1667	5.72807	5.06387	0	
0.1673	5.10802	4.1457	0	
0.1680	1.44678	2.92147	0	
0.1687	0.826732	2.30935	0	
0.1693	3.89745	2.92147	0	
0.1700	2.06683	3.83964	0	
0.1707	-1.59441	4.1457	0	
0.1713	-1.29915	3.22752	0	
0.1720	-1.9192	0.472999	0	
0.1727	-6.17096	-0.445176	0	
0.1733	-5.58044	3.22752	0	
0.1740	-1.59441	5.98205	0	
0.1747	-1.00389	5.98205	0	
0.1753	-3.12977	5.67599	0	
0.1760	-4.04508	6.28811	0	
0.1767	-3.12977	6.28811	0	
0.1773	-1.29915	6.90022	0	
0.1780	-2.21446	6.59417	0	
0.1787	-4.66513	5.06387	0	
0.1793	-2.83451	4.1457	0	
0.1800	-0.679101	2.61541	0	
0.1807	-3.12977	-1.97547	0	
0.1813	-4.66513	-7.76275	0	
0.1820	-1.9192	-9.5991	0	
0.1827	-0.0885784	-8.06881	0	
0.1833	-0.0885784	-6.53852	0	
0.1840	0.236209	-5.9264	0	
0.1847	0.236209	-5.9264	0	
0.1853	-1.00389	-3.78399	0	
0.1860	-1.59441	-2.28153	0	
0.1867	-2.21446	-3.47794	0	
0.1873	-2.50972	-2.28153	0	
0.1880	-3.12977	3.22752	0	
0.1887	-3.42503	4.1457	0	
0.1893	-1.00389	1.39117	0	
0.1900	2.06683	0.779058	0	
0.1907	1.44678	1.39117	0	
0.1913	-0.38384	0.472999	0	
0.1920	1.44678	2.00329	0	
0.1927	3.2774	2.00329	0	
0.1933	3.89745	-0.445176	0	
0.1940	5.10802	0.779058	0	
0.1947	2.98214	2.30935	0	
0.1953	-0.679101	0.166941	0	
0.1960	1.74204	-2.28153	0	
0.1967	4.81276	-2.28153	0	
0.1973	0.826732	-3.17188	0	
0.1980	-1.59441	-2.86582	0	
0.1987	0.53147	-1.66941	0	
0.1993	1.15152	-2.55976	0	
0.2000	0.236209	-2.55976	0	
0.2007	1.15152	-2.28153	0	
0.2013	1.74204	-3.47794	0	
0.2020	2.06683	-3.78399	0	
0.2027	2.65735	0.472999	0	
0.2033	1.74204	3.22752	0	
0.2040	2.65735	0.779058	0	
0.2047	3.57266	-1.36335	0	
0.2053	-0.0885784	-0.139117	0	
0.2060	-2.50972	1.39117	0	
0.2067	0.236209	2.30935	0	
0.2073	0.53147	3.22752	0	
0.2080	-1.59441	2.92147	0	
0.2087	0.826732	3.53358	0	
0.2093	3.89745	5.98205	0	
0.2100	1.74204	5.06387	0	
0.2107	-1.29915	1.39117	0	
0.2113	0.826732	0.779058	0	
0.2120	3.2774	2.61541	0	
0.2127	2.98214	3.83964	0	
0.2133	2.65735	3.22752	0	
0.2140	3.57266	3.83964	0	
0.2147	4.81276	5.36993	0	
0.2153	4.81276	4.1457	0	
0.2160	3.2774	0.472999	0	
0.2167	2.36209	-0.139117	0	
0.2173	2.36209	0.472999	0	
0.2180	1.15152	-0.445176	0	
0.2187	-1.9192	-0.139117	0	
0.2193	-2.21446	-0.445176	0	
0.2200	-0.0885784	-1.36335	0	
0.2207	-1.59441	0.166941	0	
0.2213	-2.83451	1.39117	0	
0.2220	-0.679101	-1.36335	0	
0.2227	0.53147	-2.86582	0	
0.2233	-0.0885784	-3.78399	0	
0.2240	-0.679101	-4.09005	0	
0.2247	-1.59441	-2.28153	0	
0.2253	-0.679101	-1.97547	0	
0.2260	0.826732	-4.39611	0	
0.2267	-1.00389	-2.28153	0	
0.2273	-2.21446	3.22752	0	
0.2280	0.236209	2.30935	0	
0.2287	1.15152	-1.36335	0	
0.2293	-1.59441	-0.445176	0	
0.2300	-3.42503	2.61541	0	
0.2307	-4.04508	2.30935	0	
0.2313	-4.04508	1.69723	0	
0.2320	-3.42503	2.92147	0	
0.2327	-3.42503	1.08512	0	
0.2333	-3.42503	-1.66941	0	
0.2340	-0.679101	0.472999	0	
0.2347	-0.679101	1.39117	0	
0.2353	-2.83451	-2.28153	0	
0.2360	-1.00389	-3.17188	0	
0.2367	1.44678	-1.36335	0	
0.2373	-0.679101	-2.28153	0	
0.2380	-1.9192	-4.09005	0	
0.2387	2.36209	-5.62034	0	
0.2393	5.10802	-5.9264	0	
0.2400	2.98214	-5.9264	0	
0.2407	0.53147	-7.15064	0	
0.2413	1.15152	-6.23246	0	
0.2420	2.98214	-0.751234	0	
0.2427	2.65735	1.39117	0	
0.2433	1.15152	-1.36335	0	
0.2440	1.15152	-0.751234	0	
0.2447	2.65735	3.22752	0	
0.2453	1.44678	4.75782	0	
0.2460	-0.38384	5.67599	0	
0.2467	-1.59441	5.06387	0	
0.2473	-4.34034	4.75782	0	
0.2480	-4.66513	5.98205	0	
0.2487	-1.00389	4.45176	0	
0.2493	-0.679101	0.166941	0	
0.2500	-4.34034	-0.139117	0	
0.2507	-5.8757	2.61541	0	
0.2513	-4.66513	2.61541	0	
0.2520	-4.34034	1.08512	0	
0.2527	-2.50972	0.472999	0	
0.2533	0.236209	-0.445176	0	
0.2540	1.74204	-1.05729	0	
0.2547	2.06683	-0.445176	0	
0.2553	1.74204	-0.445176	0	
0.2560	1.74204	0.472999	0	
0.2567	2.98214	0.472999	0	
0.2573	2.98214	-1.36335	0	
0.2580	2.98214	-2.55976	0	
0.2587	4.81276	-2.28153	0	
0.2593	4.81276	-1.97547	0	
0.2600	4.48797	-1.97547	0	
0.2607	8.17874	-1.66941	0	
0.2613	10.0094	-2.55976	0	
0.2620	7.55869	-3.17188	0	
0.2627	6.64338	-1.97547	0	
0.2633	4.81276	-1.36335	0	
0.2640	2.36209	-1.36335	0	
0.2647	2.98214	-0.139117	0	
0.2653	3.89745	1.69723	0	
0.2660	3.2774	4.1457	0	
0.2667	5.72807	6.28811	0	
0.2673	8.17874	5.67599	0	
0.2680	6.02333	3.22752	0	
0.2687	2.06683	3.22752	0	
0.2693	-0.679101	4.75782	0	
0.2700	0.53147	5.06387	0	
0.2707	3.2774	3.53358	0	
0.2713	2.06683	2.92147	0	
0.2720	-0.0885784	4.1457	0	
0.2727	0.236209	5.06387	0	
0.2733	-1.59441	4.75782	0	
0.2740	-4.04508	3.53358	0	
0.2747	-2.21446	1.69723	0	
0.2753	-1.59441	0.472999	0	
0.2760	-3.42503	-0.445176	0	
0.2767	-4.34034	-1.97547	0	
0.2773	-5.25565	-3.47794	0	
0.2780	-5.25565	-4.09005	0	
0.2787	-2.50972	-3.78399	0	
0.2793	-3.42503	-2.55976	0	
0.2800	-5.58044	-3.78399	0	
0.2807	-2.83451	-5.9264	0	
0.2813	0.53147	-2.86582	0	
0.2820	0.236209	0.472999	0	
0.2827	1.15152	-3.17188	0	
0.2833	2.65735	-5.9264	0	
0.2840	1.15152	-5.31429	0	
0.2847	0.236209	-5.62034	0	
0.2853	2.36209	-3.17188	0	
0.2860	3.89745	1.08512	0	
0.2867	3.57266	-1.36335	0	
0.2873	2.98214	-4.39611	0	
0.2880	2.98214	-1.05729	0	
0.2887	0.236209	-0.139117	0	
0.2893	-2.83451	-3.47794	0	
0.2900	-2.83451	-5.00823	0	
0.2907	-2.50972	-5.9264	0	
0.2913	-5.25565	-7.15064	0	
0.2920	-6.17096	-4.39611	0	
0.2927	-2.50972	-2.86582	0	
0.2933	-0.679101	-4.09005	0	
0.2940	-3.42503	-3.78399	0	
0.2947	-7.08627	-2.28153	0	
0.2953	-7.70632	-3.17188	0	
0.2960	-6.17096	-4.39611	0	
0.2967	-5.25565	-5.00823	0	
0.2973	-3.12977	-4.09005	0	
0.2980	-0.38384	-2.55976	0	
0.2987	-1.9192	-3.78399	0	
0.2993	-4.96039	-3.47794	0	
0.3000	-3.12977	-1.05729	0	
0.3007	-2.21446	-2.86582	0	
0.3013	-4.34034	-6.53852	0	
0.3020	-2.83451	-5.9264	0	
0.3027	-1.59441	-5.31429	0	
0.3033	-4.34034	-6.84458	0	
0.3040	-3.42503	-5.9264	0	
0.3047	-0.679101	-3.17188	0	
0.3053	0.236209	-0.445176	0	
0.3060	1.15152	1.08512	0	
0.3067	0.236209	0.472999	0	
0.3073	-1.59441	-0.139117	0	
0.3080	2.06683	1.69723	0	
0.3087	3.57266	2.92147	0	
0.3093	-0.679101	2.61541	0	
0.3100	0.236209	3.53358	0	
0.3107	4.81276	5.67599	0	
0.3113	2.98214	7.79058	0	
0.3120	-0.38384	9.62693	0	
0.3127	0.826732	9.93298	0	
0.3133	0.826732	9.62693	0	
0.3140	-1.00389	9.01481	0	
0.3147	-0.0885784	5.36993	0	
0.3153	0.236209	2.00329	0	
0.3160	-1.9192	1.69723	0	
0.3167	-2.21446	0.779058	0	
0.3173	-1.59441	-2.28153	0	
0.3180	-2.50972	-4.09005	0	
0.3187	-4.34034	-2.86582	0	
0.3193	-5.58044	-1.66941	0	
0.3200	-7.70632	-0.751234	0	
0.3207	-8.91689	1.39117	0	
0.3213	-6.17096	4.75782	0	
0.3220	-1.59441	5.36993	0	
0.3227	-0.38384	2.92147	0	
0.3233	-2.21446	1.39117	0	
0.3240	-2.50972	1.39117	0	
0.3247	-2.50972	0.472999	0	
0.3253	-3.74982	1.08512	0	
0.3260	-1.9192	3.22752	0	
0.3267	2.06683	4.75782	0	
0.3273	0.826732	5.06387	0	
0.3280	-3.74982	3.83964	0	
0.3287	-4.66513	2.30935	0	
0.3293	-3.12977	4.45176	0	
0.3300	-2.50972	8.09663	0	
0.3307	-2.50972	8.70875	0	
0.3313	-2.50972	7.79058	0	
0.3320	-2.83451	6.59417	0	
0.3327	-2.21446	5.98205	0	
0.3333	-0.38384	6.59417	0	
0.3340	1.74204	5.67599	0	
0.3347	0.826732	1.69723	0	
0.3353	-1.29915	-0.445176	0	
0.3360	-0.38384	-1.66941	0	
0.3367	2.65735	-5.00823	0	
0.3373	3.57266	-5.00823	0	
0.3380	4.19271	-2.28153	0	
0.3387	3.89745	-4.39611	0	
0.3393	0.236209	-8.68093	0	
0.3400	-1.9192	-8.68093	0	
0.3407	1.15152	-6.84458	0	
0.3413	2.06683	-5.9264	0	
0.3420	-0.679101	-5.31429	0	
0.3427	-0.679101	-3.47794	0	
0.3433	2.98214	0.166941	0	
0.3440	4.81276	1.39117	0	
0.3447	3.89745	-0.445176	0	
0.3453	2.06683	-0.751234	0	
0.3460	4.81276	-1.05729	0	
0.3467	8.76926	-1.97547	0	
0.3473	5.72807	0.472999	0	
0.3480	0.236209	3.22752	0	
0.3487	2.36209	1.69723	0	
0.3493	5.72807	1.39117	0	
0.3500	3.2774	1.69723	0	
0.3507	1.15152	-1.36335	0	
0.3513	1.74204	-0.751234	0	
0.3520	1.15152	5.06387	0	
0.3527	-0.679101	6.90022	0	
0.3533	-1.59441	6.28811	0	
0.3540	-3.12977	5.06387	0	
0.3547	-4.04508	1.08512	0	
0.3553	-1.59441	-1.66941	0	
0.3560	2.06683	1.39117	0	
0.3567	2.36209	3.83964	0	
0.3573	-0.679101	2.30935	0	
0.3580	-1.59441	0.166941	0	
0.3587	1.44678	-1.05729	0	
0.3593	2.98214	-1.97547	0	
0.3600	1.44678	-1.97547	0	
0.3607	1.44678	-1.05729	0	
0.3613	2.98214	-0.445176	0	
0.3620	3.89745	-2.28153	0	
0.3627	3.2774	-5.00823	0	
0.3633	2.06683	-6.53852	0	
0.3640	2.98214	-6.23246	0	
0.3647	5.72807	-6.53852	0	
0.3653	6.64338	-6.84458	0	
0.3660	5.40328	-5.31429	0	
0.3667	6.02333	-4.70217	0	
0.3673	6.93864	-5.9264	0	
0.3680	4.81276	-5.31429	0	
0.3687	2.36209	-2.28153	0	
0.3693	2.65735	-0.445176	0	
0.3700	3.89745	0.166941	0	
0.3707	4.48797	0.472999	0	
0.3713	4.81276	-0.445176	0	
0.3720	4.81276	-0.445176	0	
0.3727	2.98214	2.30935	0	
0.3733	0.236209	2.30935	0	
0.3740	-0.38384	0.472999	0	
0.3747	-2.21446	2.00329	0	
0.3753	-5.25565	3.22752	0	
0.3760	-4.34034	0.779058	0	
0.3767	-1.9192	1.39117	0	
0.3773	-4.96039	3.83964	0	
0.3780	-7.70632	0.779058	0	
0.3787	-6.79101	-2.86582	0	
0.3793	-5.8757	-2.28153	0	
0.3800	-4.34034	-2.28153	0	
0.3807	-2.83451	-2.86582	0	
0.3813	-4.34034	-0.751234	0	
0.3820	-4.96039	3.53358	0	
0.3827	-2.50972	6.90022	0	
0.3833	-2.21446	6.28811	0	
0.3840	-3.42503	2.92147	0	
0.3847	-2.50972	-0.139117	0	
0.3853	-2.83451	-0.139117	0	
0.3860	-4.66513	1.69723	0	
0.3867	-5.25565	2.92147	0	
0.3873	-4.04508	3.83964	0	
0.3880	-2.50972	4.1457	0	
0.3887	-2.83451	2.00329	0	
0.3893	-4.34034	-1.36335	0	
0.3900	-2.50972	-1.05729	0	
0.3907	1.74204	1.69723	0	
0.3913	2.36209	0.472999	0	
0.3920	1.74204	-1.36335	0	
0.3927	1.15152	-1.36335	0	
0.3933	-1.00389	-3.17188	0	
0.3940	-1.00389	-4.39611	0	
0.3947	1.15152	-2.55976	0	
0.3953	-0.38384	-2.28153	0	
0.3960	-2.21446	-3.17188	0	
0.3967	-0.679101	-2.28153	0	
0.3973	-1.29915	-2.55976	0	
0.3980	-2.21446	-3.78399	0	
0.3987	-0.0885784	-1.97547	0	
0.3993	1.74204	-0.139117	0	
0.4000	2.98214	-1.05729	0	
0.4007	4.19271	-2.28153	0	
0.4013	2.98214	-1.97547	0	
0.4020	2.06683	0.166941	0	
0.4027	3.57266	2.92147	0	
0.4033	2.36209	2.00329	0	
0.4040	0.826732	-0.445176	0	
0.4047	1.74204	0.472999	0	
0.4053	0.236209	0.779058	0	
0.4060	-3.74982	-2.28153	0	
0.4067	-4.04508	-2.86582	0	
0.4073	-3.74982	-1.97547	0	
0.4080	-3.74982	-3.78399	0	
0.4087	-2.21446	-2.86582	0	
0.4093	-3.42503	1.39117	0	
0.4100	-6.17096	0.472999	0	
0.4107	-4.34034	-2.55976	0	
0.4113	-1.9192	-2.28153	0	
0.4120	-2.21446	-3.78399	0	
0.4127	-1.59441	-5.00823	0	
0.4133	-1.59441	-1.36335	0	
0.4140	-4.66513	0.472999	0	
0.4147	-5.25565	-1.36335	0	
0.4153	-2.83451	-1.05729	0	
0.4160	-3.12977	-2.55976	0	
0.4167	-3.74982	-6.23246	0	
0.4173	-0.679101	-3.78399	0	
0.4180	2.65735	0.472999	0	
0.4187	2.06683	-0.445176	0	
0.4193	1.15152	-1.36335	0	
0.4200	1.74204	1.08512	0	
0.4207	3.2774	0.472999	0	
0.4213	5.10802	-2.28153	0	
0.4220	4.19271	-2.28153	0	
0.4227	1.15152	-2.28153	0	
0.4233	0.236209	-3.17188	0	
0.4240	-0.0885784	-1.36335	0	
0.4247	-1.59441	2.00329	0	
0.4253	-1.59441	2.92147	0	
0.4260	0.236209	2.61541	0	
0.4267	-0.0885784	2.30935	0	
0.4273	-0.679101	1.39117	0	
0.4280	0.236209	2.30935	0	
0.4287	0.236209	5.06387	0	
0.4293	0.826732	5.67599	0	
0.4300	0.236209	5.98205	0	
0.4307	-1.9192	6.90022	0	
0.4313	-1.29915	5.36993	0	
0.4320	0.53147	4.45176	0	
0.4327	-1.29915	5.06387	0	
0.4333	-4.04508	3.53358	0	
0.4340	-3.42503	2.30935	0	
0.4347	-1.59441	4.1457	0	
0.4353	0.236209	3.22752	0	
0.4360	2.36209	0.472999	0	
0.4367	2.98214	0.472999	0	
0.4373	1.15152	0.166941	0	
0.4380	-0.38384	-1.66941	0	
0.4387	-0.38384	-0.445176	0	
0.4393	1.15152	0.779058	0	
0.4400	2.98214	-1.36335	0	
0.4407	2.65735	-1.36335	0	
0.4413	1.44678	-0.139117	0	
0.4420	3.2774	-1.36335	0	
0.4427	6.31859	-3.47794	0	
0.4433	5.72807	-3.17188	0	
0.4440	2.36209	-3.47794	0	
0.4447	2.06683	-3.17188	0	
0.4453	3.2774	-1.05729	0	
0.4460	1.15152	-0.445176	0	
0.4467	-1.59441	-1.66941	0	
0.4473	-0.679101	-1.36335	0	
0.4480	0.236209	-1.97547	0	
0.4487	-0.679101	-4.70217	0	
0.4493	-0.38384	-4.70217	0	
0.4500	-0.0885784	-0.445176	0	
0.4507	-1.00389	0.779058	0	
0.4513	-0.679101	-1.36335	0	
0.4520	1.15152	-1.36335	0	
0.4527	1.44678	-0.139117	0	
0.4533	-0.679101	-0.139117	0	
0.4540	-1.29915	1.08512	0	
0.4547	-0.679101	2.92147	0	
0.4553	-1.59441	1.08512	0	
0.4560	-2.83451	-1.36335	0	
0.4567	-4.04508	-0.445176	0	
0.4573	-4.34034	0.472999	0	
0.4580	-4.34034	0.166941	0	
0.4587	-6.49575	1.39117	0	
0.4593	-8.00158	2.92147	0	
0.4600	-5.8757	1.39117	0	
0.4607	-3.42503	-1.05729	0	
0.4613	-3.12977	-1.66941	0	
0.4620	-3.74982	-1.05729	0	
0.4627	-3.74982	-0.139117	0	
0.4633	-1.9192	-0.139117	0	
0.4640	-0.679101	-2.28153	0	
0.4647	-1.59441	-5.9264	0	
0.4653	-0.679101	-7.15064	0	
0.4660	3.89745	-3.47794	0	
0.4667	6.64338	1.39117	0	
0.4673	6.31859	4.45176	0	
0.4680	2.98214	4.75782	0	
0.4687	-0.0885784	3.83964	0	
0.4693	2.98214	3.83964	0	
0.4700	6.93864	4.75782	0	
0.4707	3.89745	4.1457	0	
0.4713	0.236209	2.00329	0	
0.4720	0.236209	1.39117	0	
0.4727	-0.0885784	1.69723	0	
0.4733	0.236209	-0.139117	0	
0.4740	1.15152	-2.55976	0	
0.4747	-0.679101	-3.78399	0	
0.4753	-1.9192	-4.09005	0	
0.4760	0.236209	-4.39611	0	
0.4767	0.826732	-5.00823	0	
0.4773	0.236209	-5.62034	0	
0.4780	-0.0885784	-2.86582	0	
0.4787	-3.42503	-0.445176	0	
0.4793	-5.25565	-2.28153	0	
0.4800	-2.50972	-3.47794	0	
0.4807	-2.21446	-1.66941	0	
0.4813	-3.74982	-1.36335	0	
0.4820	-1.29915	-2.55976	0	
0.4827	-1.00389	-1.97547	0	
0.4833	-5.25565	0.166941	0	
0.4840	-4.34034	0.472999	0	
0.4847	-0.679101	-1.36335	0	
0.4853	-0.38384	-2.28153	0	
0.4860	-0.679101	-2.86582	0	
0.4867	0.53147	-5.62034	0	
0.4873	0.53147	-5.9264	0	
0.4880	0.236209	-1.66941	0	
0.4887	-1.00389	1.39117	0	
0.4893	-2.50972	1.08512	0	
0.4900	-1.59441	2.92147	0	
0.4907	-1.9192	3.53358	0	
0.4913	-6.17096	1.69723	0	
0.4920	-8.00158	2.61541	0	
0.4927	-5.25565	2.61541	0	
0.4933	-4.34034	-0.139117	0	
0.4940	-7.08627	-0.751234	0	
0.4947	-8.00158	-2.28153	0	
0.4953	-6.17096	-5.9264	0	
0.4960	-6.17096	-4.09005	0	
0.4967	-8.91689	1.39117	0	
0.4973	-9.24168	-0.139117	0	
0.4980	-5.58044	-1.36335	0	
0.4987	-3.42503	1.39117	0	
0.4993	-4.96039	1.39117	0	
0.5000	-6.17096	-0.751234	0	
0.5007	-4.04508	-0.445176	0	
0.5013	-0.0885784	-2.86582	0	
0.5020	2.06683	-5.00823	0	
0.5027	1.74204	-0.751234	0	
0.5033	0.826732	2.30935	0	
0.5040	-0.0885784	2.30935	0	
0.5047	1.15152	4.1457	0	
0.5053	2.98214	5.98205	0	
0.5060	2.98214	6.59417	0	
0.5067	2.65735	7.79058	0	
0.5073	2.98214	7.79058	0	
0.5080	2.98214	3.53358	0	
0.5087	2.98214	-0.445176	0	
0.5093	4.48797	-0.751234	0	
0.5100	4.19271	0.472999	0	
0.5107	2.36209	-0.445176	0	
0.5113	1.15152	-1.97547	0	
0.5120	2.06683	-1.36335	0	
0.5127	3.89745	-1.05729	0	
0.5133	4.19271	-2.28153	0	
0.5140	2.36209	-1.97547	0	
0.5147	2.06683	-1.05729	0	
0.5153	3.89745	-3.78399	0	
0.5160	2.06683	-6.53852	0	
0.5167	-1.29915	-5.31429	0	
0.5173	-1.9192	-6.23246	0	
0.5180	-1.59441	-6.84458	0	
0.5187	-1.59441	-1.97547	0	
0.5193	1.15152	-0.139117	0	
0.5200	2.98214	-4.70217	0	
0.5207	1.44678	-4.09005	0	
0.5213	0.826732	-0.139117	0	
0.5220	2.36209	-1.36335	0	
0.5227	3.2774	-2.28153	0	
0.5233	2.06683	-1.05729	0	
0.5240	0.53147	-2.86582	0	
0.5247	2.06683	-2.28153	0	
0.5253	4.81276	3.22752	0	
0.5260	3.89745	2.61541	0	
0.5267	2.06683	-0.445176	0	
0.5273	3.2774	1.69723	0	
0.5280	4.48797	2.92147	0	
0.5287	2.98214	-0.445176	0	
0.5293	1.15152	-1.97547	0	
0.5300	0.53147	-1.36335	0	
0.5307	-0.0885784	-1.05729	0	
0.5313	-2.21446	-1.97547	0	
0.5320	-4.34034	-5.31429	0	
0.5327	-6.17096	-7.15064	0	
0.5333	-7.08627	-4.09005	0	
0.5340	-8.00158	-2.55976	0	
0.5347	-8.91689	-5.00823	0	
0.5353	-8.91689	-7.76275	0	
0.5360	-8.32637	-7.76275	0	
0.5367	-8.00158	-4.09005	0	
0.5373	-9.53694	-1.36335	0	
0.5380	-8.32637	-3.47794	0	
0.5387	-5.25565	-6.84458	0	
0.5393	-5.58044	-5.62034	0	
0.5400	-8.91689	-4.09005	0	
0.5407	-8.00158	-4.09005	0	
0.5413	-5.25565	-1.97547	0	
0.5420	-4.34034	-1.05729	0	
0.5427	-4.04508	-3.17188	0	
0.5433	-2.83451	-4.09005	0	
0.5440	-3.42503	-3.47794	0	
0.5447	-4.66513	-2.55976	0	
0.5453	-3.42503	-0.139117	0	
0.5460	-0.679101	1.39117	0	
0.5467	-1.29915	0.779058	0	
0.5473	-3.42503	2.00329	0	
0.5480	-1.9192	3.83964	0	
0.5487	-0.679101	2.61541	0	
0.5493	-3.42503	2.30935	0	
0.5500	-3.74982	3.53358	0	
0.5507	-0.0885784	4.1457	0	
0.5513	0.53147	3.22752	0	
0.5520	-0.38384	3.22752	0	
0.5527	2.65735	2.61541	0	
0.5533	5.72807	2.30935	0	
0.5540	5.40328	2.30935	0	
0.5547	4.19271	1.69723	0	
0.5553	2.36209	-0.445176	0	
0.5560	1.44678	0.472999	0	
0.5567	3.2774	3.22752	0	
0.5573	3.89745	2.61541	0	
0.5580	1.44678	0.472999	0	
0.5587	0.826732	-0.445176	0	
0.5593	2.98214	-0.445176	0	
0.5600	3.89745	1.08512	0	
0.5607	3.89745	1.08512	0	
0.5613	5.72807	-1.36335	0	
0.5620	8.17874	-2.28153	0	
0.5627	8.76926	-2.86582	0	
0.5633	9.38931	-6.53852	0	
0.5640	10.0094	-6.84458	0	
0.5647	8.76926	-2.86582	0	
0.5653	7.55869	-1.66941	0	
0.5660	5.40328	-2.86582	0	
0.5667	4.81276	-0.139117	0	
0.5673	8.17874	3.22752	0	
0.5680	12.7553	2.30935	0	
0.5687	12.4305	-1.36335	0	
0.5693	10.5999	-1.66941	0	
0.5700	9.38931	2.00329	0	
0.5707	5.72807	3.22752	0	
0.5713	3.89745	2.30935	0	
0.5720	4.81276	2.61541	0	
0.5727	5.10802	2.61541	0	
0.5733	4.48797	-0.445176	0	
0.5740	5.72807	-2.86582	0	
0.5747	7.26343	-3.17188	0	
0.5753	7.55869	-4.70217	0	
0.5760	8.474	-5.00823	0	
0.5767	9.38931	-3.17188	0	
0.5773	8.474	-2.55976	0	
0.5780	7.26343	-4.09005	0	
0.5787	5.72807	-4.70217	0	
0.5793	5.40328	-4.09005	0	
0.5800	5.72807	-3.17188	0	
0.5807	6.02333	-1.97547	0	
0.5813	6.93864	0.472999	0	
0.5820	8.17874	0.166941	0	
0.5827	7.85395	-2.28153	0	
0.5833	6.02333	-1.66941	0	
0.5840	3.89745	-0.445176	0	
0.5847	2.65735	-0.445176	0	
0.5853	2.98214	-1.05729	0	
0.5860	4.19271	-1.97547	0	
0.5867	4.19271	-1.97547	0	
0.5873	1.44678	0.166941	0	
0.5880	-0.38384	1.08512	0	
0.5887	0.236209	0.472999	0	
0.5893	1.15152	-0.139117	0	
0.5900	1.15152	-2.28153	0	
0.5907	0.826732	-4.09005	0	
0.5913	-0.679101	-4.09005	0	
0.5920	-1.29915	-4.09005	0	
0.5927	-0.679101	0.166941	0	
0.5933	-2.83451	6.59417	0	
0.5940	-5.25565	6.90022	0	
0.5947	-5.25565	2.00329	0	
0.5953	-5.58044	1.08512	0	
0.5960	-6.49575	2.30935	0	
0.5967	-4.96039	1.39117	0	
0.5973	-5.25565	1.39117	0	
0.5980	-8.62163	2.30935	0	
0.5987	-8.32637	1.69723	0	
0.5993	-5.8757	-0.445176	0	
0.6000	-7.70632	-2.28153	0	
0.6007	-9.24168	-2.86582	0	
0.6013	-6.17096	-2.55976	0	
0.6020	-4.34034	-1.97547	0	
0.6027	-5.58044	-1.66941	0	
0.6033	-4.66513	-2.28153	0	
0.6040	-2.83451	-2.86582	0	
0.6047	-4.66513	-0.751234	0	
0.6053	-9.53694	1.39117	0	
0.6060	-10.4522	0.779058	0	
0.6067	-4.96039	-0.445176	0	
0.6073	-2.21446	-0.139117	0	
0.6080	-6.79101	0.166941	0	
0.6087	-8.32637	0.472999	0	
0.6093	-4.04508	1.08512	0	
0.6100	-3.74982	1.39117	0	
0.6107	-6.79101	1.08512	0	
0.6113	-6.49575	3.83964	0	
0.6120	-6.79101	7.48452	0	
0.6127	-7.70632	7.79058	0	
0.6133	-6.17096	5.06387	0	
0.6140	-5.8757	5.06387	0	
0.6147	-5.8757	5.98205	0	
0.6153	-4.96039	4.45176	0	
0.6160	-5.25565	1.69723	0	
0.6167	-4.34034	1.39117	0	
0.6173	-1.00389	2.00329	0	
0.6180	0.826732	0.472999	0	
0.6187	1.15152	-1.36335	0	
0.6193	0.826732	1.08512	0	
0.6200	-1.29915	3.83964	0	
0.6207	-0.679101	1.39117	0	
0.6213	2.06683	0.779058	0	
0.6220	0.53147	6.90022	0	
0.6227	-0.0885784	8.40269	0	
0.6233	3.89745	2.30935	0	
0.6240	4.19271	1.39117	0	
0.6247	2.06683	6.59417	0	
0.6253	3.2774	7.17846	0	
0.6260	2.36209	5.36993	0	
0.6267	-0.38384	4.75782	0	
0.6273	1.15152	2.30935	0	
0.6280	2.98214	1.08512	0	
0.6287	2.06683	3.83964	0	
0.6293	3.89745	4.1457	0	
0.6300	6.64338	0.779058	0	
0.6307	4.81276	-1.05729	0	
0.6313	3.89745	-0.751234	0	
0.6320	3.89745	1.39117	0	
0.6327	2.36209	3.83964	0	
0.6333	1.44678	2.92147	0	
0.6340	3.2774	2.30935	0	
0.6347	3.57266	4.1457	0	
0.6353	2.98214	2.61541	0	
0.6360	1.15152	0.472999	0	
0.6367	-2.50972	1.39117	0	
0.6373	-3.42503	1.08512	0	
0.6380	0.826732	-0.445176	0	
0.6387	1.74204	0.472999	0	
0.6393	-2.21446	1.08512	0	
0.6400	-3.42503	-0.445176	0	
0.6407	-1.59441	-0.445176	0	
0.6413	-0.679101	0.472999	0	
0.6420	-0.679101	-0.751234	0	
0.6427	-1.29915	-2.28153	0	
0.6433	-0.679101	-1.36335	0	
0.6440	1.15152	0.472999	0	
0.6447	1.15152	1.08512	0	
0.6453	0.53147	0.779058	0	
0.6460	2.65735	0.166941	0	
0.6467	3.57266	0.472999	0	
0.6473	1.44678	1.69723	0	
0.6480	-0.38384	1.08512	0	
0.6487	-0.38384	-1.36335	0	
0.6493	2.06683	-1.36335	0	
0.6500	4.81276	1.08512	0	
0.6507	3.2774	-0.139117	0	
0.6513	-0.38384	-2.28153	0	
0.6520	-1.00389	-1.36335	0	
0.6527	-1.00389	0.472999	0	
0.6533	-0.679101	-1.05729	0	
0.6540	1.74204	-3.78399	0	
0.6547	0.236209	-4.39611	0	
0.6553	-4.34034	-2.55976	0	
0.6560	-4.96039	0.166941	0	
0.6567	-4.34034	1.39117	0	
0.6573	-7.08627	0.472999	0	
0.6580	-5.25565	0.779058	0	
0.6587	-1.00389	1.39117	0	
0.6593	-1.59441	1.08512	0	
0.6600	-3.12977	-0.139117	0	
0.6607	-0.0885784	-0.445176	0	
0.6613	0.53147	-0.751234	0	
0.6620	-1.59441	-1.66941	0	
0.6627	-1.9192	-2.28153	0	
0.6633	-1.59441	-4.09005	0	
0.6640	-1.9192	-5.9264	0	
0.6647	-0.679101	-4.39611	0	
0.6653	0.236209	-0.751234	0	
0.6660	-0.679101	2.00329	0	
0.6667	-0.679101	3.22752	0	
0.6673	-0.679101	3.83964	0	
0.6680	-1.9192	4.1457	0	
0.6687	-3.12977	5.06387	0	
0.6693	-4.34034	5.67599	0	
0.6700	-6.17096	3.83964	0	
0.6707	-6.17096	1.39117	0	
0.6713	-5.25565	3.83964	0	
0.6720	-7.08627	6.90022	0	
0.6727	-8.00158	4.1457	0	
0.6733	-6.49575	-0.445176	0	
0.6740	-6.49575	0.779058	0	
0.6747	-6.79101	2.92147	0	
0.6753	-4.96039	-0.445176	0	
0.6760	-4.66513	-3.47794	0	
0.6767	-5.25565	-2.55976	0	
0.6773	-2.50972	-1.36335	0	
0.6780	-1.29915	-2.28153	0	
0.6787	-3.74982	-4.09005	0	
0.6793	-4.34034	-3.17188	0	
0.6800	-2.50972	-0.445176	0	
0.6807	-3.42503	-1.36335	0	
0.6813	-4.66513	-4.09005	0	
0.6820	-3.42503	-4.39611	0	
0.6827	-2.21446	-3.78399	0	
0.6833	-2.21446	-3.17188	0	
0.6840	0.236209	-1.66941	0	
0.6847	2.36209	-0.445176	0	
0.6853	0.826732	0.472999	0	
0.6860	-1.59441	3.53358	0	
0.6867	0.53147	4.75782	0	
0.6873	1.15152	1.39117	0	
0.6880	-2.83451	0.166941	0	
0.6887	-4.66513	2.00329	0	
0.6893	-1.29915	0.472999	0	
0.6900	2.06683	-3.47794	0	
0.6907	1.44678	-2.28153	0	
0.6913	-0.679101	1.39117	0	
0.6920	-2.50972	-0.139117	0	
0.6927	-1.9192	-4.70217	0	
0.6933	-0.0885784	-4.09005	0	
0.6940	0.826732	-1.36335	0	
0.6947	0.236209	-1.36335	0	
0.6953	0.236209	-0.445176	0	
0.6960	1.74204	0.166941	0	
0.6967	3.89745	-4.09005	0	
0.6973	3.89745	-8.68093	0	
0.6980	3.89745	-7.45669	0	
0.6987	5.40328	-3.78399	0	
0.6993	6.02333	-2.55976	0	
0.7000	4.19271	-3.47794	0	
0.7007	4.19271	-4.70217	0	
0.7013	3.89745	-4.09005	0	
0.7020	0.53147	-2.28153	0	
0.7027	-0.679101	-2.28153	0	
0.7033	2.65735	-3.17188	0	
0.7040	3.89745	0.779058	0	
0.7047	2.36209	4.45176	0	
0.7053	2.06683	2.61541	0	
0.7060	1.15152	1.39117	0	
0.7067	-0.38384	3.53358	0	
0.7073	-0.679101	5.06387	0	
0.7080	1.44678	5.06387	0	
0.7087	4.19271	3.83964	0	
0.7093	5.10802	1.69723	0	
0.7100	4.81276	0.779058	0	
0.7107	4.81276	2.00329	0	
0.7113	5.72807	2.30935	0	
0.7120	6.31859	2.00329	0	
0.7127	7.55869	2.00329	0	
0.7133	6.64338	3.22752	0	
0.7140	3.2774	3.53358	0	
0.7147	0.826732	1.39117	0	
0.7153	0.53147	-0.445176	0	
0.7160	1.44678	-0.139117	0	
0.7167	4.48797	-0.445176	0	
0.7173	6.02333	-2.28153	0	
0.7180	4.19271	-1.66941	0	
0.7187	2.06683	-1.36335	0	
0.7193	1.74204	-4.09005	0	
0.7200	2.98214	-4.70217	0	
0.7207	3.57266	-1.36335	0	
0.7213	2.98214	-1.66941	0	
0.7220	2.06683	-5.62034	0	
0.7227	2.98214	-6.84458	0	
0.7233	4.19271	-5.9264	0	
0.7240	2.36209	-5.00823	0	
0.7247	0.826732	-4.09005	0	
0.7253	0.826732	-3.17188	0	
0.7260	-1.00389	-3.17188	0	
0.7267	-2.50972	-3.17188	0	
0.7273	-0.0885784	-4.09005	0	
0.7280	1.74204	-5.00823	0	
0.7287	0.236209	-4.70217	0	
0.7293	-1.29915	-3.17188	0	
0.7300	-2.50972	-1.66941	0	
0.7307	-4.34034	-1.36335	0	
0.7313	-4.34034	-2.55976	0	
0.7320	-4.04508	-3.78399	0	
0.7327	-3.12977	-3.78399	0	
0.7333	-1.00389	-3.78399	0	
0.7340	-1.59441	-5.00823	0	
0.7347	-4.04508	-5.9264	0	
0.7353	-3.74982	-5.00823	0	
0.7360	-2.21446	-3.17188	0	
0.7367	-2.50972	-2.55976	0	
0.7373	-1.00389	-3.78399	0	
0.7380	1.74204	-4.09005	0	
0.7387	0.236209	-3.17188	0	
0.7393	-4.04508	-4.09005	0	
0.7400	-4.34034	-6.53852	0	
0.7407	-1.9192	-6.53852	0	
0.7413	-0.679101	-5.9264	0	
0.7420	0.236209	-7.15064	0	
0.7427	2.06683	-5.9264	0	
0.7433	1.15152	-3.17188	0	
0.7440	-0.38384	-4.09005	0	
0.7447	-0.38384	-5.31429	0	
0.7453	0.236209	-2.55976	0	
0.7460	0.236209	-0.139117	0	
0.7467	1.44678	0.472999	0	
0.7473	2.65735	2.30935	0	
0.7480	2.06683	3.22752	0	
0.7487	-0.679101	1.39117	0	
0.7493	-3.42503	-0.139117	0	
0.7500	-2.50972	0.166941	0	
0.7507	0.236209	1.69723	0	
0.7513	0.236209	4.1457	0	
0.7520	-1.59441	5.06387	0	
0.7527	0.236209	3.83964	0	
0.7533	0.826732	2.61541	0	
0.7540	-2.50972	2.00329	0	
0.7547	-2.83451	0.472999	0	
0.7553	0.236209	-1.05729	0	
0.7560	-1.29915	-0.751234	0	
0.7567	-5.25565	2.61541	0	
0.7573	-4.34034	4.45176	0	
0.7580	-0.679101	2.30935	0	
0.7587	0.53147	0.472999	0	
0.7593	-0.38384	2.30935	0	
0.7600	-0.679101	2.30935	0	
0.7607	-0.679101	-0.445176	0	
0.7613	-0.679101	-1.66941	0	
0.7620	-0.38384	-0.445176	0	
0.7627	2.98214	0.779058	0	
0.7633	6.64338	0.472999	0	
0.7640	6.02333	0.472999	0	
0.7647	4.19271	2.61541	0	
0.7653	4.81276	2.61541	0	
0.7660	5.72807	2.30935	0	
0.7667	4.81276	5.06387	0	
0.7673	3.89745	5.36993	0	
0.7680	2.98214	1.39117	0	
0.7687	3.2774	-0.751234	0	
0.7693	5.72807	-0.139117	0	
0.7700	5.72807	-1.05729	0	
0.7707	2.98214	-0.139117	0	
0.7713	2.06683	2.61541	0	
0.7720	4.81276	2.00329	0	
0.7727	4.81276	-0.445176	0	
0.7733	2.36209	-0.751234	0	
0.7740	1.15152	-1.05729	0	
0.7747	-1.00389	-2.28153	0	
0.7753	-4.34034	-3.17188	0	
0.7760	-5.25565	-3.17188	0	
0.7767	-6.17096	-1.05729	0	
0.7773	-8.00158	2.00329	0	
0.7780	-8.62163	2.30935	0	
0.7787	-10.7475	-0.139117	0	
0.7793	-14.7335	-0.445176	0	
0.7800	-15.0288	2.00329	0	
0.7807	-11.6628	2.30935	0	
0.7813	-9.8322	0.779058	0	
0.7820	-8.00158	0.779058	0	
0.7827	-4.96039	1.08512	0	
0.7833	-4.66513	0.472999	0	
0.7840	-4.96039	1.08512	0	
0.7847	-2.50972	1.69723	0	
0.7853	-2.50972	1.69723	0	
0.7860	-4.34034	4.1457	0	
0.7867	-2.50972	5.67599	0	
0.7873	1.15152	3.22752	0	
0.7880	-0.0885784	2.30935	0	
0.7887	-1.29915	4.75782	0	
0.7893	1.15152	4.45176	0	
0.7900	1.44678	1.39117	0	
0.7907	-0.38384	1.39117	0	
0.7913	0.53147	2.61541	0	
0.7920	2.06683	1.69723	0	
0.7927	1.74204	2.30935	0	
0.7933	0.236209	5.36993	0	
0.7940	-1.59441	5.67599	0	
0.7947	-1.9192	2.92147	0	
0.7953	0.236209	2.30935	0	
0.7960	2.36209	2.30935	0	
0.7967	3.2774	-1.36335	0	
0.7973	4.19271	-2.86582	0	
0.7980	4.19271	0.779058	0	
0.7987	2.06683	2.30935	0	
0.7993	-1.00389	-0.751234	0	
0.8000	-3.42503	-1.36335	0	
0.8007	-4.34034	-1.05729	0	
0.8013	-4.96039	-4.09005	0	
0.8020	-4.96039	-4.70217	0	
0.8027	-4.04508	-1.36335	0	
0.8033	-4.34034	-1.97547	0	
0.8040	-4.34034	-4.09005	0	
0.8047	-1.9192	-4.70217	0	
0.8053	-0.0885784	-5.00823	0	
0.8060	0.236209	-2.55976	0	
0.8067	0.826732	5.06387	0	
0.8073	1.44678	7.79058	0	
0.8080	2.06683	5.36993	0	
0.8087	1.44678	5.67599	0	
0.8093	0.236209	5.98205	0	
0.8100	2.06683	2.00329	0	
0.8107	4.48797	0.472999	0	
0.8113	2.65735	2.30935	0	
0.8120	0.236209	2.61541	0	
0.8127	-0.0885784	1.69723	0	
0.8133	-0.679101	0.779058	0	
0.8140	0.236209	-0.445176	0	
0.8147	2.98214	-1.05729	0	
0.8153	2.06683	-0.445176	0	
0.8160	-1.59441	-0.445176	0	
0.8167	-2.50972	0.472999	0	
0.8173	-1.9192	1.69723	0	
0.8180	-1.59441	1.39117	0	
0.8187	-0.679101	-0.751234	0	
0.8193	0.53147	-1.97547	0	
0.8200	0.236209	-1.05729	0	
0.8207	-0.38384	-1.36335	0	
0.8213	-0.38384	-2.28153	0	
0.8220	1.15152	-1.66941	0	
0.8227	2.98214	-1.36335	0	
0.8233	2.36209	-3.17188	0	
0.8240	1.15152	-4.70217	0	
0.8247	1.44678	-5.00823	0	
0.8253	2.06683	-2.55976	0	
0.8260	1.44678	0.472999	0	
0.8267	2.65735	0.472999	0	
0.8273	3.89745	-1.36335	0	
0.8280	2.36209	-0.139117	0	
0.8287	0.236209	1.08512	0	
0.8293	-0.679101	0.166941	0	
0.8300	-0.679101	-0.445176	0	
0.8307	-0.38384	1.08512	0	
0.8313	-1.59441	2.30935	0	
0.8320	-4.66513	1.08512	0	
0.8327	-6.49575	-1.36335	0	
0.8333	-6.17096	-0.445176	0	
0.8340	-4.34034	0.472999	0	
0.8347	-0.679101	-1.05729	0	
0.8353	-0.0885784	-1.36335	0	
0.8360	-4.04508	-1.36335	0	
0.8367	-3.74982	-4.39611	0	
0.8373	-1.00389	-4.39611	0	
0.8380	-2.50972	-2.86582	0	
0.8387	-4.34034	-4.09005	0	
0.8393	-4.34034	-1.66941	0	
0.8400	-6.17096	0.779058	0	
0.8407	-6.17096	-2.55976	0	
0.8413	-2.50972	-3.17188	0	
0.8420	-2.21446	0.472999	0	
0.8427	-3.42503	-0.139117	0	
0.8433	-1.59441	-0.445176	0	
0.8440	-2.21446	2.30935	0	
0.8447	-4.04508	1.08512	0	
0.8453	-2.21446	-0.139117	0	
0.8460	-1.9192	1.69723	0	
0.8467	-4.96039	1.39117	0	
0.8473	-5.58044	2.30935	0	
0.8480	-4.34034	5.36993	0	
0.8487	-2.83451	5.98205	0	
0.8493	0.826732	5.98205	0	
0.8500	2.06683	5.36993	0	
0.8507	-1.29915	2.30935	0	
0.8513	-2.50972	2.30935	0	
0.8520	-1.59441	3.22752	0	
0.8527	-2.50972	-0.139117	0	
0.8533	-2.83451	-1.05729	0	
0.8540	-2.83451	2.61541	0	
0.8547	-5.25565	3.22752	0	
0.8553	-5.8757	2.30935	0	
0.8560	-3.12977	4.1457	0	
0.8567	-2.50972	4.1457	0	
0.8573	-3.12977	1.39117	0	
0.8580	-1.59441	-1.05729	0	
0.8587	-0.679101	-1.36335	0	
0.8593	-2.50972	1.39117	0	
0.8600	-2.83451	3.22752	0	
0.8607	-1.29915	1.39117	0	
0.8613	1.15152	1.39117	0	
0.8620	1.74204	2.61541	0	
0.8627	0.826732	0.472999	0	
0.8633	2.06683	-1.36335	0	
0.8640	4.48797	-0.751234	0	
0.8647	2.65735	-1.66941	0	
0.8653	0.236209	-3.17188	0	
0.8660	0.53147	-0.445176	0	
0.8667	1.74204	-0.139117	0	
0.8673	3.89745	-4.39611	0	
0.8680	5.10802	-5.9264	0	
0.8687	1.74204	-3.78399	0	
0.8693	-0.38384	-5.00823	0	
0.8700	2.06683	-6.84458	0	
0.8707	2.65735	-4.70217	0	
0.8713	1.15152	-3.47794	0	
0.8720	2.06683	-3.78399	0	
0.8727	1.15152	-0.751234	0	
0.8733	-1.00389	2.00329	0	
0.8740	1.74204	1.08512	0	
0.8747	3.89745	-0.139117	0	
0.8753	0.826732	-0.139117	0	
0.8760	-0.679101	0.166941	0	
0.8767	0.53147	-0.139117	0	
0.8773	0.53147	-2.28153	0	
0.8780	1.15152	-3.78399	0	
0.8787	3.89745	-1.66941	0	
0.8793	2.98214	-1.66941	0	
0.8800	-0.679101	-4.70217	0	
0.8807	-1.59441	-4.09005	0	
0.8813	1.44678	-3.17188	0	
0.8820	3.2774	-2.55976	0	
0.8827	2.06683	1.39117	0	
0.8833	1.74204	0.472999	0	
0.8840	3.89745	-4.09005	0	
0.8847	5.10802	0.166941	0	
0.8853	4.48797	5.06387	0	
0.8860	5.72807	-0.445176	0	
0.8867	4.81276	-3.47794	0	
0.8873	2.06683	-1.05729	0	
0.8880	3.89745	-4.09005	0	
0.8887	7.55869	-6.84458	0	
0.8893	5.72807	-4.09005	0	
0.8900	3.57266	-4.70217	0	
0.8907	5.72807	-4.70217	0	
0.8913	6.31859	-1.36335	0	
0.8920	6.64338	-2.55976	0	
0.8927	7.26343	-5.00823	0	
0.8933	4.19271	-3.17188	0	
0.8940	2.36209	-2.86582	0	
0.8947	5.72807	-3.47794	0	
0.8953	6.31859	-1.36335	0	
0.8960	2.36209	0.166941	0	
0.8967	0.826732	-0.751234	0	
0.8973	1.15152	0.472999	0	
0.8980	0.236209	1.39117	0	
0.8987	-0.0885784	-1.36335	0	
0.8993	0.236209	-2.55976	0	
0.9000	-1.59441	-0.445176	0	
0.9007	-4.34034	-0.751234	0	
0.9013	-5.8757	-3.17188	0	
0.9020	-4.04508	-3.17188	0	
0.9027	-3.12977	-1.66941	0	
0.9033	-3.74982	-3.17188	0	
0.9040	-0.679101	-5.00823	0	
0.9047	2.36209	-4.09005	0	
0.9053	0.236209	-1.36335	0	
0.9060	-0.0885784	2.30935	0	
0.9067	3.57266	5.06387	0	
0.9073	3.89745	4.45176	0	
0.9080	4.48797	2.30935	0	
0.9087	6.64338	1.39117	0	
0.9093	4.19271	1.69723	0	
0.9100	2.06683	1.69723	0	
0.9107	5.72807	0.166941	0	
0.9113	6.64338	-0.751234	0	
0.9120	3.57266	1.69723	0	
0.9127	2.98214	2.30935	0	
0.9133	2.98214	1.08512	0	
0.9140	1.15152	2.00329	0	
0.9147	-1.00389	2.61541	0	
0.9153	-3.42503	1.39117	0	
0.9160	-3.74982	1.08512	0	
0.9167	-3.12977	0.779058	0	
0.9173	-3.74982	-0.139117	0	
0.9180	-4.34034	0.166941	0	
0.9187	-4.34034	0.779058	0	
0.9193	-6.17096	1.39117	0	
0.9200	-6.17096	3.22752	0	
0.9207	-1.59441	4.1457	0	
0.9213	-0.38384	2.30935	0	
0.9220	-3.74982	1.08512	0	
0.9227	-5.25565	-0.139117	0	
0.9233	-4.04508	-1.36335	0	
0.9240	-3.12977	-0.139117	0	
0.9247	-3.42503	1.39117	0	
0.9253	-5.25565	0.779058	0	
0.9260	-6.49575	-0.139117	0	
0.9267	-3.42503	-1.05729	0	
0.9273	-0.0885784	-1.97547	0	
0.9280	-2.21446	-1.05729	0	
0.9287	-2.83451	1.39117	0	
0.9293	1.15152	3.53358	0	
0.9300	2.06683	3.22752	0	
0.9307	-0.0885784	2.92147	0	
0.9313	-0.679101	4.1457	0	
0.9320	-0.679101	3.22752	0	
0.9327	-1.00389	-0.445176	0	
0.9333	-0.0885784	0.472999	0	
0.9340	0.236209	3.22752	0	
0.9347	-1.29915	2.61541	0	
0.9353	-1.29915	2.92147	0	
0.9360	-0.679101	5.36993	0	
0.9367	0.236209	2.92147	0	
0.9373	2.06683	-1.05729	0	
0.9380	1.44678	-0.445176	0	
0.9387	-1.59441	0.472999	0	
0.9393	0.53147	0.166941	0	
0.9400	3.89745	0.472999	0	
0.9407	2.98214	-0.751234	0	
0.9413	2.06683	-2.28153	0	
0.9420	1.44678	-0.445176	0	
0.9427	0.236209	0.166941	0	
0.9433	1.44678	-2.55976	0	
0.9440	2.06683	-2.86582	0	
0.9447	-1.00389	0.166941	0	
0.9453	-2.83451	3.22752	0	
0.9460	-1.59441	5.67599	0	
0.9467	-0.679101	5.67599	0	
0.9473	-0.679101	5.06387	0	
0.9480	-1.29915	6.90022	0	
0.9487	-2.50972	6.90022	0	
0.9493	-2.50972	4.75782	0	
0.9500	-2.83451	4.75782	0	
0.9507	-3.74982	5.67599	0	
0.9513	-1.00389	4.75782	0	
0.9520	1.15152	3.53358	0	
0.9527	-0.679101	3.83964	0	
0.9533	-1.59441	4.1457	0	
0.9540	-2.50972	2.92147	0	
0.9547	-4.96039	-0.445176	0	
0.9553	-5.25565	-3.17188	0	
0.9560	-4.34034	-2.86582	0	
0.9567	-3.74982	-3.47794	0	
0.9573	-1.59441	-7.76275	0	
0.9580	2.06683	-9.5991	0	
0.9587	0.53147	-6.84458	0	
0.9593	-4.34034	-3.78399	0	
0.9600	-4.96039	-2.28153	0	
0.9607	-1.29915	-2.55976	0	
0.9613	0.826732	-5.31429	0	
0.9620	0.236209	-6.84458	0	
0.9627	-0.0885784	-4.39611	0	
0.9633	0.236209	-3.17188	0	
0.9640	0.236209	-2.55976	0	
0.9647	0.236209	-0.445176	0	
0.9653	0.236209	1.39117	0	
0.9660	0.236209	0.472999	0	
0.9667	2.36209	0.166941	0	
0.9673	3.89745	2.61541	0	
0.9680	2.06683	4.75782	0	
0.9687	0.53147	3.22752	0	
0.9693	0.53147	0.779058	0	
0.9700	-0.0885784	3.22752	0	
0.9707	-1.9192	6.28811	0	
0.9713	-1.00389	5.36993	0	
0.9720	0.236209	3.22752	0	
0.9727	-0.679101	3.22752	0	
0.9733	0.236209	2.92147	0	
0.9740	1.44678	1.08512	0	
0.9747	-2.21446	-0.445176	0	
0.9753	-5.58044	-1.97547	0	
0.9760	-1.59441	-2.86582	0	
0.9767	2.98214	-2.86582	0	
0.9773	1.74204	-5.00823	0	
0.9780	-0.679101	-6.23246	0	
0.9787	-0.38384	-3.17188	0	
0.9793	-0.679101	-0.139117	0	
0.9800	-0.38384	-1.05729	0	
0.9807	0.236209	0.779058	0	
0.9813	0.236209	4.45176	0	
0.9820	1.44678	3.22752	0	
0.9827	2.06683	-0.445176	0	
0.9833	3.2774	0.472999	0	
0.9840	6.31859	2.61541	0	
0.9847	8.474	2.00329	0	
0.9853	7.26343	2.30935	0	
0.9860	6.02333	3.83964	0	
0.9867	5.72807	4.75782	0	
0.9873	4.19271	5.67599	0	
0.9880	2.06683	5.06387	0	
0.9887	0.826732	0.472999	0	
0.9893	0.236209	-1.97547	0	
0.9900	-0.679101	-1.36335	0	
0.9907	-2.21446	-2.55976	0	
0.9913	-4.34034	-4.39611	0	
0.9920	-4.04508	-2.28153	0	
0.9927	-2.50972	-0.139117	0	
0.9933	-2.50972	-0.445176	0	
0.9940	-1.29915	-1.36335	0	
0.9947	0.236209	-2.55976	0	
0.9953	-3.42503	-3.78399	0	
0.9960	-6.49575	-4.09005	0	
0.9967	-3.12977	-3.17188	0	
0.9973	-0.0885784	-1.36335	0	
0.9980	-3.42503	-1.05729	0	
0.9987	-4.96039	-3.17188	0	
0.9993	-2.50972	-5.00823	0	
1.0000	-2.21446	-3.78399	0	
1.0007	-3.42503	-4.09005	0	
1.0013	-1.59441	-6.23246	0	
1.0020	-0.679101	-4.39611	0	
1.0027	-2.50972	-1.36335	0	
1.0033	-2.50972	-1.36335	0	
1.0040	-0.679101	-1.66941	0	
1.0047	0.53147	-0.445176	0	
1.0053	0.53147	-2.28153	0	
1.0060	-0.679101	-4.39611	0	
1.0067	-2.50972	-3.47794	0	
1.0073	-2.21446	-0.445176	0	
1.0080	0.236209	3.22752	0	
1.0087	-0.679101	5.06387	0	
1.0093	-2.21446	3.53358	0	
1.0100	-0.0885784	2.92147	0	
1.0107	2.06683	2.30935	0	
1.0113	1.15152	-3.17188	0	
1.0120	-0.679101	-4.70217	0	
1.0127	-1.59441	1.39117	0	
1.0133	-2.50972	-0.139117	0	
1.0140	-2.50972	-6.53852	0	
1.0147	-1.9192	-3.17188	0	
1.0153	-0.38384	0.166941	0	
1.0160	0.826732	-4.70217	0	
1.0167	-0.38384	-5.00823	0	
1.0173	-2.21446	-1.05729	0	
1.0180	-3.42503	-0.445176	0	
1.0187	-4.34034	0.472999	0	
1.0193	-3.74982	1.69723	0	
1.0200	-3.12977	0.472999	0	
1.0207	-3.42503	0.472999	0	
1.0213	-3.42503	-0.445176	0	
1.0220	-5.25565	-4.09005	0	
1.0227	-6.79101	-4.70217	0	
1.0233	-4.04508	-2.55976	0	
1.0240	-1.59441	-2.28153	0	
1.0247	-3.74982	-1.97547	0	
1.0253	-5.58044	-0.445176	0	
1.0260	-5.58044	0.472999	0	
1.0267	-6.49575	-1.05729	0	
1.0273	-5.25565	-2.86582	0	
1.0280	-3.12977	-0.445176	0	
1.0287	-4.96039	-0.445176	0	
1.0293	-4.66513	-6.53852	0	
1.0300	-1.29915	-3.78399	0	
1.0307	-1.59441	7.48452	0	
1.0313	-2.50972	9.01481	0	
1.0320	0.236209	3.22752	0	
1.0327	-0.38384	0.472999	0	
1.0333	-2.83451	-2.28153	0	
1.0340	-0.679101	-5.62034	0	
1.0347	1.44678	-5.31429	0	
1.0353	-0.679101	-4.09005	0	
1.0360	-0.679101	-3.17188	0	
1.0367	0.236209	-0.445176	0	
1.0373	-2.83451	-0.445176	0	
1.0380	-4.04508	-1.36335	0	
1.0387	-1.9192	-0.445176	0	
1.0393	-2.50972	-0.751234	0	
1.0400	-4.04508	-2.28153	0	
1.0407	-3.42503	-2.28153	0	
1.0413	-3.42503	-1.36335	0	
1.0420	-4.96039	-1.66941	0	
1.0427	-4.66513	-1.36335	0	
1.0433	-4.04508	1.69723	0	
1.0440	-1.9192	4.1457	0	
1.0447	2.06683	2.00329	0	
1.0453	4.48797	-1.36335	0	
1.0460	3.89745	-0.445176	0	
1.0467	2.98214	1.39117	0	
1.0473	2.98214	-0.139117	0	
1.0480	2.98214	-0.751234	0	
1.0487	3.89745	2.92147	0	
1.0493	4.48797	4.75782	0	
1.0500	2.98214	4.1457	0	
1.0507	2.65735	5.98205	0	
1.0513	5.10802	6.59417	0	
1.0520	6.02333	3.22752	0	
1.0527	3.89745	3.22752	0	
1.0533	3.89745	5.06387	0	
1.0540	6.31859	4.45176	0	
1.0547	5.72807	2.30935	0	
1.0553	2.06683	0.472999	0	
1.0560	1.44678	-1.05729	0	
1.0567	3.89745	-1.36335	0	
1.0573	5.40328	-0.139117	0	
1.0580	6.64338	0.166941	0	
1.0587	6.31859	-1.05729	0	
1.0593	3.2774	-2.55976	0	
1.0600	2.06683	-3.78399	0	
1.0607	4.48797	-3.17188	0	
1.0613	4.81276	-4.39611	0	
1.0620	2.36209	-7.76275	0	
1.0627	2.06683	-7.45669	0	
1.0633	4.81276	-4.09005	0	
1.0640	4.48797	-2.86582	0	
1.0647	0.826732	-3.17188	0	
1.0653	-1.59441	-1.66941	0	
1.0660	-0.0885784	-0.139117	0	
1.0667	2.06683	1.08512	0	
1.0673	2.36209	1.39117	0	
1.0680	1.44678	0.779058	0	
1.0687	2.06683	2.00329	0	
1.0693	4.19271	5.06387	0	
1.0700	6.02333	4.75782	0	
1.0707	6.93864	1.69723	0	
1.0713	7.55869	-0.139117	0	
1.0720	5.40328	-1.36335	0	
1.0727	1.15152	-2.55976	0	
1.0733	1.44678	-2.28153	0	
1.0740	3.2774	-2.28153	0	
1.0747	2.06683	-3.78399	0	
1.0753	0.53147	-5.00823	0	
1.0760	1.44678	-3.17188	0	
1.0767	1.44678	0.472999	0	
1.0773	-0.38384	1.39117	0	
1.0780	-0.679101	0.166941	0	
1.0787	-0.0885784	-0.445176	0	
1.0793	0.236209	-0.445176	0	
1.0800	1.15152	-1.36335	0	
1.0807	0.236209	-2.28153	0	
1.0813	-2.50972	-3.17188	0	
1.0820	-1.9192	-5.62034	0	
1.0827	2.06683	-8.98699	0	
1.0833	3.57266	-9.5991	0	
1.0840	2.06683	-5.00823	0	
1.0847	2.65735	-0.139117	0	
1.0853	3.2774	-0.139117	0	
1.0860	2.06683	-2.55976	0	
1.0867	1.15152	-4.39611	0	
1.0873	3.2774	-4.09005	0	
1.0880	4.81276	-2.55976	0	
1.0887	3.89745	-0.445176	0	
1.0893	3.89745	1.08512	0	
1.0900	6.02333	1.39117	0	
1.0907	6.64338	-0.751234	0	
1.0913	3.89745	-2.28153	0	
1.0920	1.74204	0.166941	0	
1.0927	1.15152	0.779058	0	
1.0933	-0.0885784	-2.28153	0	
1.0940	-2.83451	-2.55976	0	
1.0947	-5.25565	-1.05729	0	
1.0953	-5.58044	-1.36335	0	
1.0960	-4.34034	-1.36335	0	
1.0967	-4.96039	0.472999	0	
1.0973	-5.58044	0.779058	0	
1.0980	-4.66513	-0.445176	0	
1.0987	-4.04508	-0.139117	0	
1.0993	-3.74982	0.779058	0	
1.1000	-1.59441	2.30935	0	
1.1007	-1.59441	5.06387	0	
1.1013	-3.42503	5.67599	0	
1.1020	-0.679101	0.779058	0	
1.1027	1.74204	-1.66941	0	
1.1033	-1.9192	2.00329	0	
1.1040	-4.66513	4.75782	0	
1.1047	-1.59441	3.22752	0	
1.1053	0.826732	2.00329	0	
1.1060	-0.38384	1.39117	0	
1.1067	-1.00389	1.08512	0	
1.1073	-1.29915	2.30935	0	
1.1080	-1.29915	5.06387	0	
1.1087	-1.59441	5.36993	0	
1.1093	-5.58044	2.61541	0	
1.1100	-7.41106	1.08512	0	
1.1107	-4.34034	2.30935	0	
1.1113	-4.96039	5.06387	0	
1.1120	-9.53694	4.75782	0	
1.1127	-8.00158	2.61541	0	
1.1133	-4.96039	2.61541	0	
1.1140	-7.41106	5.67599	0	
1.1147	-10.157	7.48452	0	
1.1153	-9.24168	6.28811	0	
1.1160	-8.62163	4.1457	0	
1.1167	-7.70632	2.61541	0	
1.1173	-5.58044	0.779058	0	
1.1180	-6.17096	-1.36335	0	
1.1187	-7.08627	-1.66941	0	
1.1193	-6.17096	-1.05729	0	
1.1200	-4.96039	-1.97547	0	
1.1207	-4.96039	-3.47794	0	
1.1213	-2.83451	-3.17188	0	
1.1220	-1.00389	-4.09005	0	
1.1227	-0.679101	-7.76275	0	
1.1233	2.06683	-7.45669	0	
1.1240	4.48797	-2.55976	0	
1.1247	1.74204	0.779058	0	
1.1253	0.236209	0.166941	0	
1.1260	2.36209	0.472999	0	
1.1267	2.36209	3.53358	0	
1.1273	1.15152	4.45176	0	
1.1280	2.06683	1.39117	0	
1.1287	0.53147	-1.36335	0	
1.1293	-2.83451	-3.47794	0	
1.1300	-2.21446	-4.09005	0	
1.1307	-0.0885784	0.166941	0	
1.1313	-1.29915	5.98205	0	
1.1320	-1.29915	6.90022	0	
1.1327	0.236209	5.98205	0	
1.1333	-1.59441	5.36993	0	
1.1340	-4.96039	3.53358	0	
1.1347	-4.66513	2.00329	0	
1.1353	-1.9192	1.08512	0	
1.1360	-1.29915	-1.36335	0	
1.1367	-2.21446	-2.28153	0	
1.1373	-2.50972	-1.66941	0	
1.1380	-1.9192	-1.36335	0	
1.1387	-0.679101	0.779058	0	
1.1393	1.44678	1.69723	0	
1.1400	2.36209	-1.66941	0	
1.1407	-0.0885784	-2.28153	0	
1.1413	-2.50972	1.39117	0	
1.1420	-1.29915	0.472999	0	
1.1427	-0.38384	-1.05729	0	
1.1433	-0.679101	2.30935	0	
1.1440	0.826732	3.22752	0	
1.1447	2.36209	1.39117	0	
1.1453	0.826732	2.30935	0	
1.1460	-1.00389	1.08512	0	
1.1467	-0.0885784	-2.28153	0	
1.1473	1.44678	-1.36335	0	
1.1480	0.236209	0.779058	0	
1.1487	-2.50972	-1.05729	0	
1.1493	-2.21446	-1.36335	0	
1.1500	-0.679101	1.39117	0	
1.1507	-1.29915	4.1457	0	
1.1513	-0.38384	5.98205	0	
1.1520	1.74204	6.28811	0	
1.1527	0.53147	3.83964	0	
1.1533	-1.29915	4.1457	0	
1.1540	1.15152	6.90022	0	
1.1547	3.89745	5.36993	0	
1.1553	2.98214	1.08512	0	
1.1560	1.74204	0.166941	0	
1.1567	1.44678	-0.445176	0	
1.1573	1.74204	-2.86582	0	
1.1580	2.36209	-2.86582	0	
1.1587	2.06683	-0.445176	0	
1.1593	2.06683	-0.139117	0	
1.1600	3.89745	-1.05729	0	
1.1607	3.89745	-1.05729	0	
1.1613	3.57266	-1.66941	0	
1.1620	6.02333	-2.86582	0	
1.1627	6.31859	-1.36335	0	
1.1633	1.44678	0.472999	0	
1.1640	-0.679101	-0.139117	0	
1.1647	0.826732	-0.139117	0	
1.1653	0.236209	0.472999	0	
1.1660	-0.38384	-1.66941	0	
1.1667	0.826732	-2.28153	0	
1.1673	0.236209	-0.445176	0	
1.1680	-0.679101	-2.86582	0	
1.1687	1.15152	-6.84458	0	
1.1693	0.236209	-6.23246	0	
1.1700	-1.9192	-3.47794	0	
1.1707	-1.29915	-1.97547	0	
1.1713	-0.38384	-3.17188	0	
1.1720	-1.9192	-7.76275	0	
1.1727	-3.74982	-10.5173	0	
1.1733	-3.12977	-9.29304	0	
1.1740	-0.0885784	-10.8233	0	
1.1747	2.36209	-14.1622	0	
1.1753	2.06683	-13.244	0	
1.1760	0.236209	-11.4355	0	
1.1767	-1.9192	-13.244	0	
1.1773	-2.50972	-13.244	0	
1.1780	-1.9192	-9.5991	0	
1.1787	-4.34034	-4.70217	0	
1.1793	-6.79101	-1.05729	0	
1.1800	-3.12977	-1.36335	0	
1.1807	-0.679101	-3.78399	0	
1.1813	-3.42503	-4.09005	0	
1.1820	-3.74982	-3.78399	0	
1.1827	-1.59441	-4.39611	0	
1.1833	-1.9192	-4.09005	0	
1.1840	-3.42503	-4.09005	0	
1.1847	-4.66513	-5.00823	0	
1.1853	-5.8757	-4.70217	0	
1.1860	-2.50972	-2.28153	0	
1.1867	2.06683	-1.05729	0	
1.1873	2.06683	-1.66941	0	
1.1880	0.236209	-2.28153	0	
1.1887	-1.9192	-2.86582	0	
1.1893	-3.42503	-2.28153	0	
1.1900	-1.00389	-1.36335	0	
1.1907	0.826732	-0.445176	0	
1.1913	-0.0885784	-0.445176	0	
1.1920	0.826732	-2.28153	0	
1.1927	0.826732	-3.78399	0	
1.1933	-2.21446	-1.36335	0	
1.1940	-2.50972	2.00329	0	
1.1947	-1.9192	0.472999	0	
1.1953	-1.59441	-0.445176	0	
1.1960	0.236209	0.166941	0	
1.1967	1.44678	-1.36335	0	
1.1973	0.53147	0.472999	0	
1.1980	1.15152	4.45176	0	
1.1987	1.15152	3.83964	0	
1.1993	-0.0885784	3.22752	0	
1.2000	2.65735	5.06387	0	
1.2007	4.81276	3.22752	0	
1.2013	2.36209	1.39117	0	
1.2020	2.98214	4.75782	0	
1.2027	6.64338	4.1457	0	
1.2033	6.02333	1.08512	0	
1.2040	2.98214	2.00329	0	
1.2047	3.57266	2.92147	0	
1.2053	4.81276	2.30935	0	
1.2060	4.48797	4.45176	0	
1.2067	3.89745	6.90022	0	
1.2073	2.36209	6.90022	0	
1.2080	0.826732	5.98205	0	
1.2087	2.06683	5.98205	0	
1.2093	3.89745	6.90022	0	
1.2100	3.57266	5.98205	0	
1.2107	3.57266	3.53358	0	
1.2113	6.02333	2.61541	0	
1.2120	6.31859	4.45176	0	
1.2127	3.57266	4.45176	0	
1.2133	2.06683	2.30935	0	
1.2140	2.36209	0.472999	0	
1.2147	3.89745	-0.445176	0	
1.2153	4.48797	-0.139117	0	
1.2160	2.36209	1.08512	0	
1.2167	-1.00389	2.61541	0	
1.2173	-2.83451	3.83964	0	
1.2180	-1.9192	4.45176	0	
1.2187	0.236209	4.45176	0	
1.2193	0.53147	3.22752	0	
1.2200	-0.679101	3.22752	0	
1.2207	-0.0885784	5.98205	0	
1.2213	0.236209	6.59417	0	
1.2220	-0.38384	2.30935	0	
1.2227	2.06683	-0.445176	0	
1.2233	4.81276	2.92147	0	
1.2240	2.98214	5.67599	0	
1.2247	2.98214	3.22752	0	
1.2253	5.72807	1.39117	0	
1.2260	5.40328	1.39117	0	
1.2267	3.89745	0.472999	0	
1.2273	6.31859	-1.05729	0	
1.2280	6.64338	-0.139117	0	
1.2287	4.81276	2.30935	0	
1.2293	4.81276	4.75782	0	
1.2300	4.48797	5.98205	0	
1.2307	2.65735	6.90022	0	
1.2313	1.74204	7.48452	0	
1.2320	1.15152	5.98205	0	
1.2327	0.826732	2.61541	0	
1.2333	1.15152	4.1457	0	
1.2340	-1.29915	6.28811	0	
1.2347	-3.42503	2.30935	0	
1.2353	-1.59441	-0.445176	0	
1.2360	-1.59441	1.69723	0	
1.2367	-2.83451	1.39117	0	
1.2373	-0.679101	-1.36335	0	
1.2380	0.826732	-2.55976	0	
1.2387	-1.59441	-4.09005	0	
1.2393	-1.9192	-4.09005	0	
1.2400	-1.29915	-1.97547	0	
1.2407	-3.12977	-2.86582	0	
1.2413	-2.50972	-5.00823	0	
1.2420	1.44678	-3.17188	0	
1.2427	3.57266	-2.86582	0	
1.2433	1.74204	-5.9264	0	
1.2440	0.236209	-6.84458	0	
1.2447	-0.38384	-4.39611	0	
1.2453	-1.29915	-4.39611	0	
1.2460	-2.21446	-6.23246	0	
1.2467	-1.59441	-5.62034	0	
1.2473	-3.42503	-5.31429	0	
1.2480	-6.17096	-8.37487	0	
1.2487	-4.66513	-8.68093	0	
1.2493	-3.12977	-6.23246	0	
1.2500	-4.34034	-5.9264	0	
1.2507	-4.34034	-5.62034	0	
1.2513	-1.59441	-2.86582	0	
1.2520	-1.29915	-1.97547	0	
1.2527	-2.50972	-3.17188	0	
1.2533	-2.50972	-2.86582	0	
1.2540	0.236209	-1.97547	0	
1.2547	0.53147	-3.47794	0	
1.2553	-1.9192	-6.53852	0	
1.2560	-1.59441	-7.76275	0	
1.2567	2.06683	-5.31429	0	
1.2573	2.06683	-4.09005	0	
1.2580	0.236209	-5.9264	0	
1.2587	1.44678	-4.70217	0	
1.2593	2.06683	-1.36335	0	
1.2600	2.06683	-1.05729	0	
1.2607	4.19271	-1.05729	0	
1.2613	3.57266	1.08512	0	
1.2620	0.826732	-0.445176	0	
1.2627	2.98214	-3.17188	0	
1.2633	6.02333	-2.55976	0	
1.2640	3.2774	-1.66941	0	
1.2647	0.826732	-2.28153	0	
1.2653	3.2774	-1.36335	0	
1.2660	4.81276	-0.445176	0	
1.2667	3.89745	-1.05729	0	
1.2673	4.81276	-1.36335	0	
1.2680	5.72807	-2.28153	0	
1.2687	3.89745	-2.55976	0	
1.2693	2.06683	-1.05729	0	
1.2700	2.36209	-0.751234	0	
1.2707	2.06683	-2.28153	0	
1.2713	-1.59441	-1.36335	0	
1.2720	-4.04508	0.166941	0	
1.2727	-2.50972	0.472999	0	
1.2733	-0.0885784	0.472999	0	
1.2740	-0.38384	-1.36335	0	
1.2747	-1.00389	-3.17188	0	
1.2753	-2.21446	-1.05729	0	
1.2760	-5.25565	2.30935	0	
1.2767	-6.79101	2.00329	0	
1.2773	-3.74982	2.92147	0	
1.2780	-3.42503	3.22752	0	
1.2787	-6.79101	-1.36335	0	
1.2793	-7.70632	-4.70217	0	
1.2800	-5.25565	-4.09005	0	
1.2807	-4.66513	-5.00823	0	
1.2813	-4.96039	-5.62034	0	
1.2820	-4.66513	-1.36335	0	
1.2827	-4.34034	2.00329	0	
1.2833	-3.42503	-0.139117	0	
1.2840	-3.12977	-3.78399	0	
1.2847	-4.04508	-3.47794	0	
1.2853	-3.42503	-1.36335	0	
1.2860	-2.50972	-0.751234	0	
1.2867	-5.25565	-0.445176	0	
1.2873	-8.62163	1.39117	0	
1.2880	-4.96039	1.08512	0	
1.2887	-0.0885784	-1.05729	0	
1.2893	-1.59441	-2.28153	0	
1.2900	-4.66513	-3.47794	0	
1.2907	-3.42503	-2.86582	0	
1.2913	-3.74982	-0.445176	0	
1.2920	-7.08627	0.166941	0	
1.2927	-8.32637	0.472999	0	
1.2933	-7.08627	0.779058	0	
1.2940	-6.17096	-1.66941	0	
1.2947	-6.17096	-2.55976	0	
1.2953	-6.49575	0.779058	0	
1.2960	-7.08627	1.39117	0	
1.2967	-6.17096	-1.05729	0	
1.2973	-6.17096	-1.66941	0	
1.2980	-6.49575	-2.55976	0	
1.2987	-5.25565	-1.97547	0	
1.2993	-4.04508	2.30935	0	
1.3000	-3.74982	3.22752	0	
1.3007	-1.59441	1.08512	0	
1.3013	2.06683	1.08512	0	
1.3020	2.06683	0.166941	0	
1.3027	1.15152	-1.66941	0	
1.3033	2.06683	-0.445176	0	
1.3040	0.53147	1.08512	0	
1.3047	-1.29915	1.08512	0	
1.3053	1.15152	2.30935	0	
1.3060	3.2774	1.69723	0	
1.3067	0.236209	-0.139117	0	
1.3073	-1.00389	2.30935	0	
1.3080	0.826732	3.22752	0	
1.3087	0.236209	0.472999	0	
1.3093	1.15152	0.779058	0	
1.3100	5.72807	1.39117	0	
1.3107	4.81276	-1.97547	0	
1.3113	-0.679101	-1.36335	0	
1.3120	-1.9192	1.69723	0	
1.3127	0.236209	-0.139117	0	
1.3133	0.236209	-2.28153	0	
1.3140	0.236209	-1.36335	0	
1.3147	-0.0885784	-2.28153	0	
1.3153	0.236209	-1.36335	0	
1.3160	0.826732	2.92147	0	
1.3167	0.826732	2.92147	0	
1.3173	0.236209	0.779058	0	
1.3180	-0.679101	0.472999	0	
1.3187	-1.59441	1.08512	0	
1.3193	-2.21446	2.92147	0	
1.3200	-1.59441	6.28811	0	
1.3207	0.236209	6.28811	0	
1.3213	3.2774	4.1457	0	
1.3220	4.81276	3.53358	0	
1.3227	3.2774	3.53358	0	
1.3233	4.81276	1.39117	0	
1.3240	8.17874	1.08512	0	
1.3247	4.19271	3.22752	0	
1.3253	-2.50972	5.36993	0	
1.3260	-1.29915	5.36993	0	
1.3267	2.65735	5.06387	0	
1.3273	2.06683	4.1457	0	
1.3280	1.15152	4.1457	0	
1.3287	2.36209	3.83964	0	
1.3293	2.98214	2.30935	0	
1.3300	1.74204	1.08512	0	
1.3307	-0.38384	2.61541	0	
1.3313	-0.0885784	4.1457	0	
1.3320	1.44678	3.22752	0	
1.3327	0.236209	1.08512	0	
1.3333	-0.679101	0.472999	0	
1.3340	1.15152	0.779058	0	
1.3347	1.44678	0.472999	0	
1.3353	0.826732	-2.28153	0	
1.3360	2.36209	-3.17188	0	
1.3367	1.15152	-1.36335	0	
1.3373	-3.42503	-0.751234	0	
1.3380	-3.74982	-2.28153	0	
1.3387	-1.9192	-1.36335	0	
1.3393	-2.83451	0.472999	0	
1.3400	-2.50972	-0.445176	0	
1.3407	-2.21446	-1.36335	0	
1.3413	-4.04508	1.08512	0	
1.3420	-5.25565	3.22752	0	
1.3427	-4.04508	4.1457	0	
1.3433	-2.50972	5.98205	0	
1.3440	-2.83451	6.59417	0	
1.3447	-4.96039	5.98205	0	
1.3453	-5.25565	7.17846	0	
1.3460	-3.42503	8.70875	0	
1.3467	-1.59441	7.17846	0	
1.3473	0.826732	4.45176	0	
1.3480	2.06683	4.1457	0	
1.3487	1.15152	6.28811	0	
1.3493	3.57266	5.98205	0	
1.3500	6.64338	2.30935	0	
1.3507	3.89745	1.39117	0	
1.3513	2.06683	4.1457	0	
1.3520	5.72807	3.22752	0	
1.3527	4.19271	0.472999	0	
1.3533	-0.679101	3.83964	0	
1.3540	-1.00389	6.59417	0	
1.3547	-1.00389	3.53358	0	
1.3553	-3.74982	3.22752	0	
1.3560	-3.12977	5.67599	0	
1.3567	-2.50972	2.30935	0	
1.3573	-5.25565	-1.66941	0	
1.3580	-5.25565	0.472999	0	
1.3587	-5.58044	2.92147	0	
1.3593	-8.00158	0.166941	0	
1.3600	-7.08627	-3.78399	0	
1.3607	-3.42503	-4.39611	0	
1.3613	-3.12977	-2.28153	0	
1.3620	-3.12977	-0.139117	0	
1.3627	-2.21446	-1.36335	0	
1.3633	-1.29915	-2.86582	0	
1.3640	0.826732	-2.55976	0	
1.3647	0.236209	-4.39611	0	
1.3653	-3.42503	-7.45669	0	
1.3660	-2.83451	-7.45669	0	
1.3667	1.74204	-6.84458	0	
1.3673	1.15152	-7.15064	0	
1.3680	-2.83451	-6.53852	0	
1.3687	-2.50972	-4.70217	0	
1.3693	0.53147	-4.39611	0	
1.3700	2.06683	-6.53852	0	
1.3707	3.2774	-7.76275	0	
1.3713	4.48797	-5.00823	0	
1.3720	3.2774	-2.86582	0	
1.3727	0.53147	-4.39611	0	
1.3733	-0.679101	-4.70217	0	
1.3740	0.236209	-2.86582	0	
1.3747	2.06683	-4.09005	0	
1.3753	2.65735	-6.23246	0	
1.3760	1.15152	-5.9264	0	
1.3767	0.826732	-4.39611	0	
1.3773	2.98214	-1.36335	0	
1.3780	3.2774	1.39117	0	
1.3787	-1.00389	0.472999	0	
1.3793	-3.42503	-0.751234	0	
1.3800	-1.00389	-0.751234	0	
1.3807	1.15152	-3.17188	0	
1.3813	0.236209	-5.31429	0	
1.3820	-0.679101	-4.09005	0	
1.3827	-1.9192	-5.00823	0	
1.3833	-3.42503	-5.9264	0	
1.3840	0.236209	-4.09005	0	
1.3847	4.48797	-1.36335	0	
1.3853	2.06683	0.472999	0	
1.3860	-2.50972	3.22752	0	
1.3867	-0.0885784	3.22752	0	
1.3873	3.89745	1.69723	0	
1.3880	3.89745	2.30935	0	
1.3887	2.06683	0.779058	0	
1.3893	1.74204	-0.445176	0	
1.3900	3.2774	1.39117	0	
1.3907	5.10802	3.22752	0	
1.3913	2.98214	1.39117	0	
1.3920	-1.59441	0.472999	0	
1.3927	-1.59441	2.00329	0	
1.3933	0.826732	2.30935	0	
1.3940	0.53147	1.08512	0	
1.3947	-1.29915	-2.28153	0	
1.3953	-2.21446	-5.00823	0	
1.3960	-1.29915	-6.23246	0	
1.3967	0.236209	-6.84458	0	
1.3973	-2.50972	-7.15064	0	
1.3980	-6.49575	-6.23246	0	
1.3987	-4.34034	-6.53852	0	
1.3993	0.236209	-8.68093	0	
1.4000	-1.00389	-8.37487	0	
1.4007	-3.42503	-7.15064	0	
1.4013	-1.59441	-8.06881	0	
1.4020	1.44678	-6.84458	0	
1.4027	2.36209	-1.36335	0	
1.4033	3.57266	4.1457	0	
1.4040	3.89745	5.67599	0	
1.4047	2.06683	5.67599	0	
1.4053	1.15152	5.67599	0	
1.4060	2.06683	5.06387	0	
1.4067	1.44678	3.53358	0	
1.4073	0.236209	2.00329	0	
1.4080	1.15152	0.472999	0	
1.4087	3.57266	1.39117	0	
1.4093	5.72807	4.45176	0	
1.4100	5.10802	5.98205	0	
1.4107	2.36209	3.53358	0	
1.4113	2.98214	0.779058	0	
1.4120	5.72807	2.00329	0	
1.4127	4.81276	3.22752	0	
1.4133	4.19271	3.22752	0	
1.4140	6.93864	2.00329	0	
1.4147	7.26343	-0.139117	0	
1.4153	3.89745	-1.05729	0	
1.4160	3.57266	2.30935	0	
1.4167	4.48797	4.1457	0	
1.4173	2.65735	0.472999	0	
1.4180	0.53147	-3.47794	0	
1.4187	-0.0885784	-4.09005	0	
1.4193	-0.679101	-3.17188	0	
1.4200	-1.29915	-1.36335	0	
1.4207	-1.9192	0.779058	0	
1.4213	-2.21446	0.472999	0	
1.4220	-1.59441	-1.36335	0	
1.4227	-2.50972	-1.36335	0	
1.4233	-2.50972	-1.05729	0	
1.4240	-1.59441	-2.28153	0	
1.4247	-3.42503	-3.17188	0	
1.4253	-4.66513	-2.55976	0	
1.4260	-1.9192	0.166941	0	
1.4267	-2.21446	1.39117	0	
1.4273	-4.66513	0.472999	0	
1.4280	-2.21446	0.472999	0	
1.4287	-0.679101	1.39117	0	
1.4293	-4.04508	0.472999	0	
1.4300	-2.50972	0.472999	0	
1.4307	0.236209	2.30935	0	
1.4313	-3.42503	2.30935	0	
1.4320	-5.25565	2.00329	0	
1.4327	-2.50972	4.75782	0	
1.4333	-3.12977	6.28811	0	
1.4340	-3.12977	4.1457	0	
1.4347	0.236209	1.08512	0	
1.4353	0.236209	-0.751234	0	
1.4360	1.15152	-3.17188	0	
1.4367	3.89745	-5.00823	0	
1.4373	2.06683	-4.09005	0	
1.4380	-1.9192	-3.78399	0	
1.4387	-1.9192	-5.62034	0	
1.4393	-2.21446	-5.31429	0	
1.4400	-3.12977	-4.39611	0	
1.4407	-2.21446	-7.15064	0	
1.4413	-1.59441	-8.68093	0	
1.4420	-1.59441	-5.9264	0	
1.4427	-0.679101	-5.31429	0	
1.4433	-1.00389	-6.84458	0	
1.4440	-0.0885784	-6.23246	0	
1.4447	3.57266	-5.9264	0	
1.4453	3.89745	-5.9264	0	
1.4460	0.236209	-2.86582	0	
1.4467	-0.38384	-0.751234	0	
1.4473	2.36209	-1.66941	0	
1.4480	3.57266	-0.445176	0	
1.4487	2.36209	1.69723	0	
1.4493	1.15152	0.166941	0	
1.4500	0.826732	-1.05729	0	
1.4507	1.44678	-0.751234	0	
1.4513	2.65735	-3.17188	0	
1.4520	2.65735	-6.84458	0	
1.4527	1.44678	-5.9264	0	
1.4533	-0.679101	-2.86582	0	
1.4540	-2.50972	-1.66941	0	
1.4547	-2.83451	-3.17188	0	
1.4553	-1.29915	-2.86582	0	
1.4560	-0.38384	-0.445176	0	
1.4567	-0.679101	1.39117	0	
1.4573	-1.59441	3.22752	0	
1.4580	-0.679101	4.1457	0	
1.4587	1.44678	3.83964	0	
1.4593	1.44678	3.22752	0	
1.4600	-0.0885784	2.92147	0	
1.4607	0.826732	-0.445176	0	
1.4613	2.98214	-3.78399	0	
1.4620	2.65735	-2.86582	0	
1.4627	3.2774	-0.445176	0	
1.4633	6.02333	0.779058	0	
1.4640	4.81276	2.30935	0	
1.4647	-0.38384	5.36993	0	
1.4653	-2.21446	8.09663	0	
1.4660	-1.00389	8.70875	0	
1.4667	-2.21446	6.90022	0	
1.4673	-3.42503	6.28811	0	
1.4680	-0.0885784	8.70875	0	
1.4687	3.89745	9.62693	0	
1.4693	2.98214	8.09663	0	
1.4700	1.15152	6.90022	0	
1.4707	4.19271	7.17846	0	
1.4713	4.48797	6.59417	0	
1.4720	-0.0885784	4.1457	0	
1.4727	-0.679101	2.61541	0	
1.4733	4.19271	3.83964	0	
1.4740	6.64338	2.30935	0	
1.4747	3.89745	-1.05729	0	
1.4753	2.65735	-1.66941	0	
1.4760	3.2774	-0.751234	0	
1.4767	3.2774	-0.139117	0	
1.4773	3.2774	1.08512	0	
1.4780	2.06683	0.166941	0	
1.4787	-0.0885784	-0.445176	0	
1.4793	1.15152	3.22752	0	
1.4800	3.89745	4.75782	0	
1.4807	2.98214	2.30935	0	
1.4813	0.53147	3.22752	0	
1.4820	1.15152	4.45176	0	
1.4827	3.2774	0.779058	0	
1.4833	5.72807	-1.05729	0	
1.4840	5.40328	1.08512	0	
1.4847	2.98214	2.30935	0	
1.4853	3.89745	2.30935	0	
1.4860	6.93864	2.30935	0	
1.4867	6.31859	2.30935	0	
1.4873	4.19271	3.22752	0	
1.4880	4.19271	2.30935	0	
1.4887	3.2774	1.69723	0	
1.4893	0.53147	2.30935	0	
1.4900	-1.29915	-0.445176	0	
1.4907	-2.21446	-5.00823	0	
1.4913	-1.59441	-5.00823	0	
1.4920	-0.679101	-5.9264	0	
1.4927	-1.00389	-6.23246	0	
1.4933	-3.74982	-3.17188	0	
1.4940	-5.25565	-3.17188	0	
1.4947	-3.42503	-5.00823	0	
1.4953	-1.29915	-1.36335	0	
1.4960	-2.50972	1.08512	0	
1.4967	-3.42503	0.779058	0	
1.4973	-2.21446	4.1457	0	
1.4980	-0.679101	5.67599	0	
1.4987	0.236209	2.00329	0	
1.4993	0.236209	1.69723	0	
1.5000	-3.42503	3.83964	0	
1.5007	-5.58044	1.08512	0	
1.5013	-2.21446	-2.28153	0	
1.5020	-0.679101	-1.66941	0	
1.5027	-3.74982	-2.55976	0	
1.5033	-4.96039	-6.23246	0	
1.5040	-4.34034	-6.84458	0	
1.5047	-4.34034	-3.17188	0	
1.5053	-3.42503	-0.445176	0	
1.5060	-2.50972	-0.445176	0	
1.5067	-1.9192	-1.05729	0	
1.5073	-0.0885784	-1.97547	0	
1.5080	0.236209	-1.66941	0	
1.5087	-1.00389	0.472999	0	
1.5093	-3.12977	0.472999	0	
1.5100	-4.96039	-1.05729	0	
1.5107	-5.58044	-0.751234	0	
1.5113	-5.25565	-0.445176	0	
1.5120	-4.96039	-1.36335	0	
1.5127	-3.74982	0.472999	0	
1.5133	-3.42503	2.30935	0	
1.5140	-4.96039	-1.66941	0	
1.5147	-5.25565	-5.00823	0	
1.5153	-3.74982	-4.09005	0	
1.5160	-4.96039	-3.78399	0	
1.5167	-5.58044	-5.00823	0	
1.5173	-5.58044	-5.00823	0	
1.5180	-7.08627	-4.09005	0	
1.5187	-6.17096	-2.55976	0	
1.5193	-1.59441	-3.17188	0	
1.5200	-0.38384	-5.9264	0	
1.5207	-1.00389	-5.00823	0	
1.5213	-0.679101	-0.751234	0	
1.5220	-1.00389	-0.445176	0	
1.5227	-1.00389	-2.86582	0	
1.5233	-0.38384	-2.28153	0	
1.5240	-1.00389	-0.445176	0	
1.5247	-1.59441	0.472999	0	
1.5253	-1.9192	1.39117	0	
1.5260	-2.50972	2.00329	0	
1.5267	-0.679101	-0.445176	0	
1.5273	1.74204	-1.36335	0	
1.5280	-0.0885784	-0.445176	0	
1.5287	-2.21446	-1.36335	0	
1.5293	-0.679101	-4.09005	0	
1.5300	-0.679101	-2.28153	0	
1.5307	-2.21446	1.08512	0	
1.5313	-1.29915	-0.751234	0	
1.5320	-2.21446	-2.55976	0	
1.5327	-4.66513	0.779058	0	
1.5333	-4.34034	2.30935	0	
1.5340	-2.50972	-0.445176	0	
1.5347	-3.12977	-0.751234	0	
1.5353	-4.34034	0.779058	0	
1.5360	-4.34034	-0.445176	0	
1.5367	-3.12977	-1.66941	0	
1.5373	-2.21446	-1.66941	0	
1.5380	-1.00389	-2.28153	0	
1.5387	-0.679101	-3.17188	0	
1.5393	-2.50972	-2.28153	0	
1.5400	-2.83451	-1.97547	0	
1.5407	-2.83451	-3.17188	0	
1.5413	-5.58044	-2.55976	0	
1.5420	-7.08627	-0.445176	0	
1.5427	-4.34034	0.166941	0	
1.5433	-3.74982	2.00329	0	
1.5440	-3.42503	5.06387	0	
1.5447	2.06683	4.45176	0	
1.5453	3.89745	2.61541	0	
1.5460	-2.21446	3.22752	0	
1.5467	-4.04508	4.1457	0	
1.5473	-1.9192	4.1457	0	
1.5480	-1.59441	5.98205	0	
1.5487	-0.0885784	7.17846	0	
1.5493	-0.38384	7.17846	0	
1.5500	-3.74982	7.17846	0	
1.5507	-3.42503	5.06387	0	
1.5513	-1.29915	1.39117	0	
1.5520	-4.66513	1.69723	0	
1.5527	-4.96039	5.06387	0	
1.5533	0.53147	5.67599	0	
1.5540	1.44678	3.83964	0	
1.5547	-2.50972	3.22752	0	
1.5553	-2.83451	4.1457	0	
1.5560	-0.679101	3.22752	0	
1.5567	-1.00389	0.472999	0	
1.5573	-2.50972	-0.751234	0	
1.5580	-0.679101	0.472999	0	
1.5587	2.36209	0.166941	0	
1.5593	1.15152	-2.28153	0	
1.5600	0.236209	-2.28153	0	
1.5607	3.89745	-1.66941	0	
1.5613	5.72807	-3.47794	0	
1.5620	3.89745	-5.00823	0	
1.5627	3.89745	-4.09005	0	
1.5633	3.89745	-1.66941	0	
1.5640	2.65735	-0.445176	0	
1.5647	2.36209	-0.139117	0	
1.5653	2.06683	2.00329	0	
1.5660	1.44678	5.98205	0	
1.5667	2.65735	8.09663	0	
1.5673	3.89745	8.09663	0	
1.5680	2.36209	6.90022	0	
1.5687	-0.0885784	5.98205	0	
1.5693	-0.679101	5.67599	0	
1.5700	0.236209	4.1457	0	
1.5707	-0.679101	2.30935	0	
1.5713	-2.50972	3.53358	0	
1.5720	-0.679101	6.28811	0	
1.5727	1.74204	4.75782	0	
1.5733	1.15152	2.00329	0	
1.5740	0.53147	2.00329	0	
1.5747	1.15152	-0.445176	0	
1.5753	2.36209	-4.09005	0	
1.5760	3.89745	-5.9264	0	
1.5767	4.19271	-5.9264	0	
1.5773	3.89745	-2.55976	0	
1.5780	5.72807	-0.139117	0	
1.5787	8.474	-5.00823	0	
1.5793	7.55869	-7.76275	0	
1.5800	5.72807	-3.17188	0	
1.5807	4.48797	-2.86582	0	
1.5813	2.65735	-7.15064	0	
1.5820	2.98214	-5.9264	0	
1.5827	4.48797	-3.17188	0	
1.5833	2.06683	-3.78399	0	
1.5840	-0.679101	-3.17188	0	
1.5847	-1.00389	-1.66941	0	
1.5853	-2.21446	-2.55976	0	
1.5860	-3.42503	-2.28153	0	
1.5867	-1.59441	-1.36335	0	
1.5873	0.236209	-3.78399	0	
1.5880	-1.59441	-5.62034	0	
1.5887	-2.50972	-4.39611	0	
1.5893	-1.00389	-4.09005	0	
1.5900	-3.42503	-5.31429	0	
1.5907	-7.41106	-5.9264	0	
1.5913	-6.17096	-4.09005	0	
1.5920	-2.83451	-1.05729	0	
1.5927	-1.9192	0.472999	0	
1.5933	-2.50972	-0.445176	0	
1.5940	-1.9192	-0.445176	0	
1.5947	-0.679101	-0.751234	0	
1.5953	-1.59441	-2.28153	0	
1.5960	-5.58044	-1.66941	0	
1.5967	-6.17096	0.472999	0	
1.5973	-3.12977	-0.751234	0	
1.5980	-4.04508	-2.28153	0	
1.5987	-7.08627	-1.97547	0	
1.5993	-5.8757	-5.00823	0	
1.6000	-3.12977	-8.37487	0	
1.6007	-2.83451	-8.37487	0	
1.6013	-2.50972	-7.45669	0	
1.6020	-2.50972	-5.62034	0	
1.6027	-4.04508	-4.09005	0	
1.6033	-4.34034	-6.23246	0	
1.6040	-3.74982	-7.45669	0	
1.6047	-2.50972	-4.09005	0	
1.6053	0.826732	-3.17188	0	
1.6060	2.65735	-3.78399	0	
1.6067	1.44678	0.779058	0	
1.6073	2.06683	5.67599	0	
1.6080	2.98214	5.06387	0	
1.6087	1.44678	2.61541	0	
1.6093	0.236209	2.92147	0	
1.6100	1.44678	4.1457	0	
1.6107	2.36209	3.83964	0	
1.6113	1.15152	2.92147	0	
1.6120	1.15152	2.92147	0	
1.6127	2.98214	2.00329	0	
1.6133	1.44678	-1.36335	0	
1.6140	-1.9192	-4.39611	0	
1.6147	-2.21446	-4.70217	0	
1.6153	-0.679101	-3.17188	0	
1.6160	-0.679101	-1.66941	0	
1.6167	-2.50972	0.166941	0	
1.6173	-5.58044	1.69723	0	
1.6180	-5.25565	0.779058	0	
1.6187	-1.29915	-1.36335	0	
1.6193	0.236209	-0.751234	0	
1.6200	-0.38384	1.39117	0	
1.6207	1.15152	1.08512	0	
1.6213	0.236209	1.39117	0	
1.6220	-2.50972	1.69723	0	
1.6227	-0.0885784	-1.05729	0	
1.6233	0.826732	-1.36335	0	
1.6240	-1.29915	1.39117	0	
1.6247	1.15152	0.166941	0	
1.6253	4.81276	-2.28153	0	
1.6260	3.57266	-0.445176	0	
1.6267	0.236209	-0.139117	0	
1.6273	-1.29915	-1.36335	0	
1.6280	-1.9192	1.08512	0	
1.6287	-1.59441	2.30935	0	
1.6293	0.236209	0.472999	0	
1.6300	2.36209	2.00329	0	
1.6307	2.06683	4.1457	0	
1.6313	-0.38384	2.61541	0	
1.6320	-0.679101	2.61541	0	
1.6327	0.53147	4.75782	0	
1.6333	-1.9192	5.36993	0	
1.6340	-3.42503	4.1457	0	
1.6347	0.826732	2.00329	0	
1.6353	2.36209	1.08512	0	
1.6360	0.236209	0.779058	0	
1.6367	1.15152	-1.97547	0	
1.6373	1.44678	-5.9264	0	
1.6380	0.236209	-5.00823	0	
1.6387	1.44678	-1.66941	0	
1.6393	4.19271	-2.28153	0	
1.6400	3.89745	-4.70217	0	
1.6407	3.89745	-4.09005	0	
1.6413	7.26343	-2.28153	0	
1.6420	8.474	-2.86582	0	
1.6427	6.31859	-4.09005	0	
1.6433	4.81276	-3.78399	0	
1.6440	4.81276	-2.28153	0	
1.6447	4.81276	-0.751234	0	
1.6453	4.81276	0.472999	0	
1.6460	3.89745	-0.139117	0	
1.6467	2.36209	-0.445176	0	
1.6473	1.44678	1.08512	0	
1.6480	2.06683	0.472999	0	
1.6487	2.98214	-2.55976	0	
1.6493	2.06683	-4.09005	0	
1.6500	-0.0885784	-1.97547	0	
1.6507	-0.679101	0.779058	0	
1.6513	2.65735	1.69723	0	
1.6520	5.10802	2.30935	0	
1.6527	2.65735	4.1457	0	
1.6533	-1.00389	5.06387	0	
1.6540	0.53147	4.45176	0	
1.6547	2.65735	3.22752	0	
1.6553	-0.679101	4.1457	0	
1.6560	-2.83451	3.53358	0	
1.6567	0.53147	-0.751234	0	
1.6573	2.65735	-5.31429	0	
1.6580	-0.679101	-5.31429	0	
1.6587	-3.42503	-5.62034	0	
1.6593	-1.9192	-7.45669	0	
1.6600	-0.38384	-5.31429	0	
1.6607	-1.9192	-2.55976	0	
1.6613	-2.50972	-4.39611	0	
1.6620	-1.59441	-4.39611	0	
1.6627	-1.59441	-3.17188	0	
1.6633	-1.59441	-5.00823	0	
1.6640	-1.29915	-2.28153	0	
1.6647	-2.21446	4.45176	0	
1.6653	-4.34034	4.1457	0	
1.6660	-5.58044	-1.36335	0	
1.6667	-6.79101	-2.55976	0	
1.6673	-6.17096	-1.97547	0	
1.6680	-2.50972	-1.05729	0	
1.6687	-0.679101	0.779058	0	
1.6693	-3.12977	-0.139117	0	
1.6700	-4.34034	-1.36335	0	
1.6707	-2.50972	0.779058	0	
1.6713	-0.38384	2.00329	0	
1.6720	1.15152	-0.751234	0	
1.6727	3.57266	-2.28153	0	
1.6733	4.81276	-0.445176	0	
1.6740	1.74204	1.69723	0	
1.6747	-3.12977	1.08512	0	
1.6753	-2.83451	-0.445176	0	
1.6760	0.236209	0.166941	0	
1.6767	1.44678	1.39117	0	
1.6773	2.06683	-0.445176	0	
1.6780	1.15152	-2.28153	0	
1.6787	-1.9192	-2.55976	0	
1.6793	-2.83451	-2.55976	0	
1.6800	-0.0885784	-2.28153	0	
1.6807	1.15152	-0.139117	0	
1.6813	1.44678	0.472999	0	
1.6820	2.06683	-1.97547	0	
1.6827	1.44678	-2.28153	0	
1.6833	0.53147	-0.139117	0	
1.6840	-0.38384	1.69723	0	
1.6847	-2.50972	2.61541	0	
1.6853	-2.50972	4.75782	0	
1.6860	-0.0885784	6.90022	0	
1.6867	0.236209	6.90022	0	
1.6873	-0.38384	5.98205	0	
1.6880	0.53147	7.79058	0	
1.6887	0.236209	9.32087	0	
1.6893	-1.29915	5.06387	0	
1.6900	-0.679101	0.166941	0	
1.6907	1.44678	-0.445176	0	
1.6913	1.15152	0.166941	0	
1.6920	-1.9192	0.779058	0	
1.6927	-3.12977	2.61541	0	
1.6933	-0.38384	0.472999	0	
1.6940	1.44678	-4.09005	0	
1.6947	-0.0885784	-4.09005	0	
1.6953	0.236209	-0.445176	0	
1.6960	2.36209	1.69723	0	
1.6967	-0.38384	2.30935	0	
1.6973	-4.04508	1.69723	0	
1.6980	-1.00389	-0.445176	0	
1.6987	2.65735	-1.66941	0	
1.6993	0.236209	-0.139117	0	
1.7000	-1.29915	0.472999	0	
1.7007	0.53147	-1.66941	0	
1.7013	0.236209	-3.17188	0	
1.7020	0.53147	-3.17188	0	
1.7027	3.89745	-4.70217	0	
1.7033	4.48797	-5.00823	0	
1.7040	2.65735	-2.28153	0	
1.7047	2.06683	-1.66941	0	
1.7053	0.236209	-1.05729	0	
1.7060	-1.29915	3.22752	0	
1.7067	-0.679101	4.1457	0	
1.7073	-0.0885784	0.779058	0	
1.7080	0.53147	0.166941	0	
1.7087	1.44678	1.69723	0	
1.7093	1.15152	3.22752	0	
1.7100	2.06683	6.90022	0	
1.7107	3.2774	7.79058	0	
1.7113	-0.0885784	5.06387	0	
1.7120	-4.34034	4.45176	0	
1.7127	-3.42503	5.98205	0	
1.7133	-2.83451	4.1457	0	
1.7140	-5.25565	1.08512	0	
1.7147	-6.17096	1.69723	0	
1.7153	-5.25565	2.61541	0	
1.7160	-4.34034	2.30935	0	
1.7167	-4.04508	2.30935	0	
1.7173	-5.25565	2.61541	0	
1.7180	-6.49575	2.00329	0	
1.7187	-4.34034	0.779058	0	
1.7193	-1.59441	-0.445176	0	
1.7200	-2.83451	-0.751234	0	
1.7207	-4.34034	-0.445176	0	
1.7213	-2.83451	-2.28153	0	
1.7220	-2.50972	-3.17188	0	
1.7227	-3.42503	-1.66941	0	
1.7233	-1.9192	-0.445176	0	
1.7240	0.236209	-0.751234	0	
1.7247	0.236209	0.472999	0	
1.7253	-1.59441	2.00329	0	
1.7260	-2.50972	0.472999	0	
1.7267	-1.9192	-0.445176	0	
1.7273	-2.50972	0.166941	0	
1.7280	-2.21446	0.166941	0	
1.7287	-1.00389	0.472999	0	
1.7293	-1.9192	1.08512	0	
1.7300	-2.50972	0.166941	0	
1.7307	0.236209	-0.445176	0	
1.7313	0.53147	-0.445176	0	
1.7320	-0.38384	-0.445176	0	
1.7327	0.236209	-0.139117	0	
1.7333	-1.9192	0.472999	0	
1.7340	-4.34034	0.166941	0	
1.7347	-1.59441	-0.445176	0	
1.7353	-2.21446	-1.36335	0	
1.7360	-7.08627	-3.17188	0	
1.7367	-6.17096	-3.78399	0	
1.7373	-2.50972	-3.17188	0	
1.7380	-3.42503	-3.17188	0	
1.7387	-4.34034	-3.17188	0	
1.7393	-4.96039	-2.55976	0	
1.7400	-5.8757	-3.17188	0	
1.7407	-3.42503	-4.39611	0	
1.7413	-2.21446	-4.09005	0	
1.7420	-5.8757	-2.86582	0	
1.7427	-7.08627	-3.17188	0	
1.7433	-3.42503	-3.17188	0	
1.7440	-0.0885784	0.472999	0	
1.7447	1.44678	2.00329	0	
1.7453	2.98214	-0.445176	0	
1.7460	3.89745	-0.139117	0	
1.7467	4.19271	2.30935	0	
1.7473	3.2774	2.30935	0	
1.7480	3.57266	2.61541	0	
1.7487	3.57266	5.98205	0	
1.7493	1.15152	5.67599	0	
1.7500	1.44678	2.30935	0	
1.7507	5.72807	1.39117	0	
1.7513	5.10802	2.00329	0	
1.7520	1.44678	0.166941	0	
1.7527	2.98214	0.472999	0	
1.7533	4.81276	1.69723	0	
1.7540	3.57266	-0.445176	0	
1.7547	6.02333	-2.55976	0	
1.7553	9.09405	-3.47794	0	
1.7560	7.26343	-5.31429	0	
1.7567	7.26343	-6.84458	0	
1.7573	9.38931	-5.62034	0	
1.7580	7.85395	-5.9264	0	
1.7587	6.31859	-7.15064	0	
1.7593	7.26343	-7.76275	0	
1.7600	5.40328	-8.68093	0	
1.7607	4.19271	-9.5991	0	
1.7613	6.64338	-7.45669	0	
1.7620	5.72807	-6.23246	0	
1.7627	2.36209	-7.45669	0	
1.7633	3.57266	-6.84458	0	
1.7640	2.98214	-4.09005	0	
1.7647	0.236209	-2.55976	0	
1.7653	1.74204	-2.55976	0	
1.7660	2.98214	-2.28153	0	
1.7667	-0.38384	-1.66941	0	
1.7673	-0.679101	-2.86582	0	
1.7680	2.98214	-3.47794	0	
1.7687	4.48797	-1.36335	0	
1.7693	3.57266	-1.36335	0	
1.7700	3.57266	-2.55976	0	
1.7707	1.15152	-1.05729	0	
1.7713	-1.59441	1.39117	0	
1.7720	-1.29915	0.472999	0	
1.7727	0.236209	0.166941	0	
1.7733	-2.83451	2.00329	0	
1.7740	-7.08627	2.61541	0	
1.7747	-7.41106	2.30935	0	
1.7753	-4.96039	2.61541	0	
1.7760	-3.12977	2.30935	0	
1.7767	-3.42503	1.08512	0	
1.7773	-4.04508	1.69723	0	
1.7780	-3.12977	2.92147	0	
1.7787	-1.59441	2.00329	0	
1.7793	-1.59441	1.69723	0	
1.7800	0.236209	2.61541	0	
1.7807	2.98214	2.00329	0	
1.7813	3.2774	1.39117	0	
1.7820	1.74204	1.39117	0	
1.7827	-0.38384	-1.66941	0	
1.7833	-2.50972	-4.09005	0	
1.7840	-1.9192	-1.66941	0	
1.7847	0.826732	-0.445176	0	
1.7853	-1.00389	-0.445176	0	
1.7860	-4.34034	2.30935	0	
1.7867	-0.679101	3.22752	0	
1.7873	3.2774	2.30935	0	
1.7880	2.06683	3.22752	0	
1.7887	1.44678	2.92147	0	
1.7893	2.06683	1.39117	0	
1.7900	1.15152	4.1457	0	
1.7907	1.15152	4.1457	0	
1.7913	2.06683	0.472999	0	
1.7920	0.236209	2.61541	0	
1.7927	0.236209	5.06387	0	
1.7933	2.65735	2.61541	0	
1.7940	3.57266	1.39117	0	
1.7947	2.06683	0.472999	0	
1.7953	-0.679101	-1.66941	0	
1.7960	-2.21446	-1.36335	0	
1.7967	-2.21446	-1.66941	0	
1.7973	-3.42503	-3.17188	0	
1.7980	-3.12977	-1.66941	0	
1.7987	-1.59441	-0.445176	0	
1.7993	-2.50972	-1.36335	0	
1.8000	-2.50972	-0.139117	0	
1.8007	-0.679101	1.39117	0	
1.8013	-1.00389	0.472999	0	
1.8020	-0.679101	-1.36335	0	
1.8027	1.44678	-3.17188	0	
1.8033	0.236209	-2.55976	0	
1.8040	0.53147	1.39117	0	
1.8047	4.19271	2.30935	0	
1.8053	1.74204	0.472999	0	
1.8060	-1.59441	1.39117	0	
1.8067	0.236209	2.61541	0	
1.8073	1.15152	0.472999	0	
1.8080	-0.679101	-1.36335	0	
1.8087	-0.0885784	-1.36335	0	
1.8093	-0.679101	-2.28153	0	
1.8100	-2.83451	-1.36335	0	
1.8107	-2.50972	3.22752	0	
1.8113	-0.679101	6.90022	0	
1.8120	-1.29915	5.67599	0	
1.8127	-4.34034	1.39117	0	
1.8133	-6.17096	-1.97547	0	
1.8140	-3.42503	-3.47794	0	
1.8147	-0.679101	-4.39611	0	
1.8153	-1.59441	-4.39611	0	
1.8160	-3.42503	-4.39611	0	
1.8167	-3.12977	-4.70217	0	
1.8173	-3.42503	-3.17188	0	
1.8180	-4.96039	-1.36335	0	
1.8187	-5.25565	-1.66941	0	
1.8193	-5.25565	-2.86582	0	
1.8200	-5.58044	-1.66941	0	
1.8207	-6.79101	-0.445176	0	
1.8213	-6.79101	-1.66941	0	
1.8220	-3.74982	-3.78399	0	
1.8227	-1.29915	-5.00823	0	
1.8233	-2.50972	-5.00823	0	
1.8240	-3.42503	-3.47794	0	
1.8247	-3.12977	0.166941	0	
1.8253	-2.21446	1.39117	0	
1.8260	0.53147	0.779058	0	
1.8267	3.57266	1.39117	0	
1.8273	2.65735	3.22752	0	
1.8280	0.53147	3.22752	0	
1.8287	0.236209	2.61541	0	
1.8293	0.236209	2.92147	0	
1.8300	1.15152	0.779058	0	
1.8307	1.15152	-1.66941	0	
1.8313	-2.50972	-1.36335	0	
1.8320	-5.25565	-0.445176	0	
1.8327	-3.42503	-1.05729	0	
1.8333	-3.12977	0.472999	0	
1.8340	-3.74982	2.92147	0	
1.8347	-2.50972	2.00329	0	
1.8353	-4.34034	1.39117	0	
1.8360	-8.91689	2.92147	0	
1.8367	-7.70632	1.08512	0	
1.8373	-4.96039	-1.05729	0	
1.8380	-5.25565	1.39117	0	
1.8387	-4.34034	2.30935	0	
1.8393	-5.25565	-3.17188	0	
1.8400	-8.62163	-5.31429	0	
1.8407	-8.00158	-2.86582	0	
1.8413	-6.17096	-2.55976	0	
1.8420	-7.70632	-3.47794	0	
1.8427	-7.70632	-2.28153	0	
1.8433	-5.25565	-1.97547	0	
1.8440	-4.66513	-2.28153	0	
1.8447	-5.25565	-0.445176	0	
1.8453	-4.66513	0.472999	0	
1.8460	-4.66513	1.39117	0	
1.8467	-4.04508	3.22752	0	
1.8473	-2.21446	3.53358	0	
1.8480	-1.29915	2.30935	0	
1.8487	-2.21446	2.00329	0	
1.8493	-3.42503	1.39117	0	
1.8500	-4.34034	2.00329	0	
1.8507	-5.58044	2.92147	0	
1.8513	-5.8757	2.30935	0	
1.8520	-3.42503	1.08512	0	
1.8527	-2.21446	1.08512	0	
1.8533	-1.29915	0.472999	0	
1.8540	1.44678	-1.36335	0	
1.8547	2.06683	-1.36335	0	
1.8553	0.236209	0.472999	0	
1.8560	1.15152	0.472999	0	
1.8567	1.74204	0.166941	0	
1.8573	1.44678	1.39117	0	
1.8580	3.89745	1.39117	0	
1.8587	3.57266	-1.36335	0	
1.8593	1.15152	-3.47794	0	
1.8600	3.57266	-3.78399	0	
1.8607	3.89745	-2.28153	0	
1.8613	-1.00389	-0.445176	0	
1.8620	1.15152	0.166941	0	
1.8627	6.64338	-1.97547	0	
1.8633	3.57266	-1.97547	0	
1.8640	1.15152	0.779058	0	
1.8647	4.48797	-0.139117	0	
1.8653	6.02333	-4.39611	0	
1.8660	6.64338	-4.09005	0	
1.8667	8.17874	-0.445176	0	
1.8673	7.85395	-1.05729	0	
1.8680	10.3046	-2.86582	0	
1.8687	14.2611	-2.55976	0	
1.8693	11.5152	-3.17188	0	
1.8700	8.76926	-5.00823	0	
1.8707	10.3046	-5.00823	0	
1.8713	8.76926	-2.86582	0	
1.8720	6.31859	-1.36335	0	
1.8727	8.474	-1.36335	0	
1.8733	10.3046	-3.17188	0	
1.8740	7.55869	-5.31429	0	
1.8747	5.40328	-4.39611	0	
1.8753	3.57266	-1.36335	0	
1.8760	2.06683	-2.28153	0	
1.8767	2.65735	-4.39611	0	
1.8773	2.98214	-3.17188	0	
1.8780	4.81276	-1.05729	0	
1.8787	7.85395	-1.36335	0	
1.8793	6.93864	-2.55976	0	
1.8800	3.89745	-2.28153	0	
1.8807	1.74204	0.166941	0	
1.8813	-0.38384	2.92147	0	
1.8820	-2.21446	0.779058	0	
1.8827	-1.59441	-1.66941	0	
1.8833	-2.50972	1.39117	0	
1.8840	-5.25565	2.30935	0	
1.8847	-4.96039	-2.28153	0	
1.8853	-2.83451	-3.47794	0	
1.8860	-2.50972	-0.445176	0	
1.8867	-3.42503	-0.751234	0	
1.8873	-4.34034	-0.445176	0	
1.8880	-4.34034	3.83964	0	
1.8887	-1.9192	2.61541	0	
1.8893	-0.679101	-1.97547	0	
1.8900	-1.00389	-1.66941	0	
1.8907	0.236209	-0.445176	0	
1.8913	1.15152	-1.97547	0	
1.8920	0.53147	-2.86582	0	
1.8927	0.826732	-2.28153	0	
1.8933	2.36209	-1.36335	0	
1.8940	4.81276	-0.445176	0	
1.8947	3.89745	-1.05729	0	
1.8953	-1.59441	-0.445176	0	
1.8960	-3.42503	2.00329	0	
1.8967	-1.29915	1.69723	0	
1.8973	-3.12977	0.166941	0	
1.8980	-3.42503	1.08512	0	
1.8987	1.15152	1.39117	0	
1.8993	1.74204	-1.36335	0	
1.9000	0.826732	-2.28153	0	
1.9007	2.98214	-1.05729	0	
1.9013	1.15152	-1.97547	0	
1.9020	-1.59441	-2.86582	0	
1.9027	1.15152	-1.36335	0	
1.9033	0.236209	-0.445176	0	
1.9040	-4.34034	-0.445176	0	
1.9047	-2.83451	1.39117	0	
1.9053	-1.00389	3.83964	0	
1.9060	-3.12977	3.53358	0	
1.9067	-1.29915	2.30935	0	
1.9073	1.15152	2.92147	0	
1.9080	-1.59441	5.06387	0	
1.9087	-3.42503	6.90022	0	
1.9093	-1.00389	6.90022	0	
1.9100	-0.38384	7.17846	0	
1.9107	-1.00389	7.79058	0	
1.9113	-2.50972	8.09663	0	
1.9120	-5.25565	7.79058	0	
1.9127	-6.17096	6.90022	0	
1.9133	-4.96039	5.36993	0	
1.9140	-6.17096	2.92147	0	
1.9147	-6.49575	-0.139117	0	
1.9153	-3.42503	-0.445176	0	
1.9160	-2.50972	2.00329	0	
1.9167	-4.66513	1.08512	0	
1.9173	-4.34034	-4.09005	0	
1.9180	-2.21446	-4.70217	0	
1.9187	-1.00389	-2.55976	0	
1.9193	-1.59441	-5.31429	0	
1.9200	-4.96039	-4.09005	0	
1.9207	-7.70632	4.1457	0	
1.9213	-5.8757	5.98205	0	
1.9220	-3.74982	1.39117	0	
1.9227	-5.8757	-1.36335	0	
1.9233	-4.66513	-2.28153	0	
1.9240	1.15152	-1.36335	0	
1.9247	3.89745	1.39117	0	
1.9253	2.06683	1.08512	0	
1.9260	0.53147	-0.751234	0	
1.9267	0.53147	0.472999	0	
1.9273	0.236209	-0.445176	0	
1.9280	-0.38384	-2.28153	0	
1.9287	-0.679101	1.08512	0	
1.9293	-1.59441	2.30935	0	
1.9300	-1.59441	-1.97547	0	
1.9307	-0.38384	-0.445176	0	
1.9313	0.53147	6.28811	0	
1.9320	-1.59441	5.98205	0	
1.9327	-2.83451	1.39117	0	
1.9333	-1.59441	1.39117	0	
1.9340	-1.00389	2.61541	0	
1.9347	-0.679101	0.472999	0	
1.9353	0.236209	-1.05729	0	
1.9360	-0.0885784	-1.66941	0	
1.9367	-1.00389	-3.47794	0	
1.9373	0.826732	-2.55976	0	
1.9380	1.74204	-0.445176	0	
1.9387	1.15152	-2.55976	0	
1.9393	2.06683	-3.78399	0	
1.9400	2.98214	-0.445176	0	
1.9407	-0.38384	-0.445176	0	
1.9413	-2.50972	-2.55976	0	
1.9420	-2.21446	-1.36335	0	
1.9427	-3.74982	-1.66941	0	
1.9433	-5.25565	-4.09005	0	
1.9440	-4.04508	-2.86582	0	
1.9447	-1.59441	-1.97547	0	
1.9453	-0.38384	-3.47794	0	
1.9460	-0.38384	-1.97547	0	
1.9467	-1.59441	1.39117	0	
1.9473	-2.83451	1.39117	0	
1.9480	-4.04508	-0.445176	0	
1.9487	-4.66513	-1.05729	0	
1.9493	-4.04508	0.166941	0	
1.9500	-3.12977	-0.445176	0	
1.9507	-3.42503	-4.09005	0	
1.9513	-3.74982	-4.39611	0	
1.9520	-2.21446	-1.05729	0	
1.9527	0.236209	-0.445176	0	
1.9533	-0.38384	0.166941	0	
1.9540	-2.50972	1.69723	0	
1.9547	-0.679101	-1.36335	0	
1.9553	1.15152	-4.39611	0	
1.9560	-2.50972	-2.28153	0	
1.9567	-5.58044	-1.66941	0	
1.9573	-4.34034	-3.17188	0	
1.9580	-3.42503	-1.66941	0	
1.9587	-4.34034	-1.05729	0	
1.9593	-3.12977	-2.86582	0	
1.9600	-4.04508	-2.86582	0	
1.9607	-5.25565	-1.36335	0	
1.9613	-2.83451	-2.55976	0	
1.9620	-1.9192	-2.86582	0	
1.9627	-2.83451	-1.36335	0	
1.9633	-0.38384	-0.445176	0	
1.9640	2.06683	-1.05729	0	
1.9647	1.74204	0.779058	0	
1.9653	3.89745	4.1457	0	
1.9660	6.64338	5.06387	0	
1.9667	4.81276	4.75782	0	
1.9673	3.89745	3.53358	0	
1.9680	6.93864	2.30935	0	
1.9687	8.474	1.69723	0	
1.9693	6.93864	1.39117	0	
1.9700	5.40328	0.779058	0	
1.9707	3.2774	1.39117	0	
1.9713	2.65735	2.30935	0	
1.9720	4.19271	2.00329	0	
1.9727	2.65735	3.83964	0	
1.9733	-1.00389	5.06387	0	
1.9740	1.15152	3.22752	0	
1.9747	5.40328	2.00329	0	
1.9753	3.89745	2.30935	0	
1.9760	2.65735	0.779058	0	
1.9767	5.72807	1.08512	0	
1.9773	5.10802	2.61541	0	
1.9780	-0.0885784	1.39117	0	
1.9787	-3.12977	-1.05729	0	
1.9793	-2.50972	-1.36335	0	
1.9800	-3.42503	-2.28153	0	
1.9807	-7.08627	-3.17188	0	
1.9813	-9.24168	-3.17188	0	
1.9820	-8.00158	-3.17188	0	
1.9827	-5.25565	-3.17188	0	
1.9833	-2.50972	-2.28153	0	
1.9840	-1.59441	-2.28153	0	
1.9847	-2.50972	-3.47794	0	
1.9853	-2.50972	-3.17188	0	
1.9860	1.44678	-1.36335	0	
1.9867	4.19271	0.472999	0	
1.9873	3.2774	0.472999	0	
1.9880	3.89745	-1.97547	0	
1.9887	2.98214	-3.47794	0	
1.9893	-0.679101	-1.66941	0	
1.9900	-0.38384	-0.445176	0	
1.9907	3.89745	-0.445176	0	
1.9913	2.98214	-0.751234	0	
1.9920	1.15152	-1.66941	0	
1.9927	2.36209	-3.47794	0	
1.9933	2.36209	-3.17188	0	
1.9940	0.53147	-1.66941	0	
1.9947	1.44678	-1.97547	0	
1.9953	2.65735	-2.86582	0	
1.9960	2.98214	-5.31429	0	
1.9967	3.57266	-7.76275	0	
1.9973	3.2774	-6.23246	0	
1.9980	2.06683	-2.28153	0	
1.9987	2.98214	0.472999	0	
1.9993	4.19271	2.30935	0	
2.0000	2.98214	2.30935	0	
2.0007	2.06683	0.166941	0	
2.0013	2.06683	-1.36335	0	
2.0020	2.98214	-1.66941	0	
2.0027	5.72807	-1.05729	0	
2.0033	4.81276	1.08512	0	
2.0040	1.74204	2.30935	0	
2.0047	3.2774	0.472999	0	
2.0053	4.81276	-1.36335	0	
2.0060	1.15152	-1.36335	0	
2.0067	1.74204	-1.36335	0	
2.0073	5.10802	-1.05729	0	
2.0080	3.89745	-1.05729	0	
2.0087	2.65735	-2.55976	0	
2.0093	6.02333	-2.28153	0	
2.0100	6.64338	1.08512	0	
2.0107	3.89745	3.53358	0	
2.0113	2.06683	3.22752	0	
2.0120	-0.0885784	2.61541	0	
2.0127	-1.00389	1.69723	0	
2.0133	-0.0885784	-0.139117	0	
2.0140	0.236209	-0.445176	0	
2.0147	1.15152	1.69723	0	
2.0153	3.2774	4.45176	0	
2.0160	1.74204	4.45176	0	
2.0167	-1.00389	0.779058	0	
2.0173	-0.679101	0.166941	0	
2.0180	-2.21446	3.22752	0	
2.0187	-3.42503	1.69723	0	
2.0193	1.44678	-2.28153	0	
2.0200	4.48797	-1.05729	0	
2.0207	0.53147	0.472999	0	
2.0213	-1.59441	-1.36335	0	
2.0220	-0.0885784	0.166941	0	
2.0227	-1.59441	2.30935	0	
2.0233	-1.59441	-0.445176	0	
2.0240	1.44678	-1.36335	0	
2.0247	0.236209	1.69723	0	
2.0253	-3.12977	2.61541	0	
2.0260	-1.59441	1.39117	0	
2.0267	-0.0885784	0.472999	0	
2.0273	0.236209	-0.751234	0	
2.0280	2.65735	-0.445176	0	
2.0287	2.98214	1.39117	0	
2.0293	1.15152	2.00329	0	
2.0300	1.44678	2.61541	0	
2.0307	1.15152	2.30935	0	
2.0313	-1.59441	1.39117	0	
2.0320	0.236209	1.39117	0	
2.0327	1.74204	2.30935	0	
2.0333	-0.679101	2.30935	0	
2.0340	-2.50972	2.30935	0	
2.0347	-3.12977	1.39117	0	
2.0353	-1.9192	-0.139117	0	
2.0360	0.236209	1.39117	0	
2.0367	-1.9192	2.92147	0	
2.0373	-3.42503	0.472999	0	
2.0380	0.53147	-1.36335	0	
2.0387	-0.0885784	0.472999	0	
2.0393	-6.17096	1.69723	0	
2.0400	-5.25565	2.30935	0	
2.0407	-3.42503	1.39117	0	
2.0413	-5.25565	-2.55976	0	
2.0420	-3.12977	-4.09005	0	
2.0427	0.53147	-1.66941	0	
2.0433	-0.679101	-1.05729	0	
2.0440	0.53147	-0.139117	0	
2.0447	2.06683	2.61541	0	
2.0453	0.236209	2.30935	0	
2.0460	2.06683	1.69723	0	
2.0467	6.31859	4.1457	0	
2.0473	4.81276	4.75782	0	
2.0480	0.53147	4.1457	0	
2.0487	-1.00389	5.98205	0	
2.0493	-1.9192	4.1457	0	
2.0500	-0.38384	0.779058	0	
2.0507	3.57266	2.30935	0	
2.0513	3.89745	5.06387	0	
2.0520	1.74204	4.45176	0	
2.0527	1.15152	2.30935	0	
2.0533	0.53147	-0.751234	0	
2.0540	0.826732	-3.17188	0	
2.0547	1.44678	-3.17188	0	
2.0553	1.44678	-3.47794	0	
2.0560	1.74204	-4.09005	0	
2.0567	2.06683	-3.17188	0	
2.0573	1.15152	-2.28153	0	
2.0580	-0.38384	-2.55976	0	
2.0587	-1.59441	-1.36335	0	
2.0593	-3.42503	-0.751234	0	
2.0600	-4.34034	-2.28153	0	
2.0607	-4.04508	-1.36335	0	
2.0613	-4.66513	-1.05729	0	
2.0620	-5.58044	-4.09005	0	
2.0627	-5.8757	-5.31429	0	
2.0633	-6.49575	-1.36335	0	
2.0640	-8.91689	1.39117	0	
2.0647	-10.157	-0.139117	0	
2.0653	-8.32637	-1.36335	0	
2.0660	-5.25565	-0.445176	0	
2.0667	-4.96039	-0.751234	0	
2.0673	-5.25565	-2.28153	0	
2.0680	-5.25565	-2.55976	0	
2.0687	-7.70632	-1.66941	0	
2.0693	-9.53694	-1.36335	0	
2.0700	-6.79101	-2.55976	0	
2.0707	-7.41106	-2.55976	0	
2.0713	-11.9876	-1.36335	0	
2.0720	-12.2829	-1.36335	0	
2.0727	-9.8322	-0.445176	0	
2.0733	-10.7475	5.06387	0	
2.0740	-10.4522	7.79058	0	
2.0747	-7.08627	2.30935	0	
2.0753	-6.49575	-2.28153	0	
2.0760	-8.00158	-2.28153	0	
2.0767	-5.25565	-5.00823	0	
2.0773	-1.9192	-8.98699	0	
2.0780	-1.59441	-6.23246	0	
2.0787	-1.59441	-3.17188	0	
2.0793	1.15152	-5.62034	0	
2.0800	4.81276	-5.9264	0	
2.0807	6.31859	-3.47794	0	
2.0813	5.40328	-4.70217	0	
2.0820	5.40328	-6.53852	0	
2.0827	7.55869	-5.9264	0	
2.0833	6.02333	-5.9264	0	
2.0840	1.74204	-5.9264	0	
2.0847	1.74204	-4.39611	0	
2.0853	4.81276	-4.09005	0	
2.0860	4.81276	-3.47794	0	
2.0867	3.57266	-1.36335	0	
2.0873	6.02333	-2.28153	0	
2.0880	6.02333	-4.39611	0	
2.0887	1.74204	-2.28153	0	
2.0893	-0.679101	-1.05729	0	
2.0900	1.74204	-3.17188	0	
2.0907	3.89745	-3.17188	0	
2.0913	2.06683	-2.28153	0	
2.0920	-0.679101	-2.86582	0	
2.0927	-0.38384	-1.36335	0	
2.0933	1.15152	-0.445176	0	
2.0940	1.15152	-1.97547	0	
2.0947	-1.29915	-0.751234	0	
2.0953	-3.74982	1.39117	0	
2.0960	-2.83451	-0.445176	0	
2.0967	-0.679101	-1.36335	0	
2.0973	-3.12977	-0.445176	0	
2.0980	-4.34034	-3.17188	0	
2.0987	0.236209	-4.70217	0	
2.0993	2.36209	-0.139117	0	
2.1000	-0.0885784	3.22752	0	
2.1007	1.15152	2.92147	0	
2.1013	2.06683	3.53358	0	
2.1020	-0.38384	2.61541	0	
2.1027	-1.59441	-0.445176	0	
2.1033	-0.38384	0.472999	0	
2.1040	0.53147	3.83964	0	
2.1047	0.826732	2.30935	0	
2.1053	-1.29915	1.39117	0	
2.1060	-3.42503	3.22752	0	
2.1067	-0.38384	2.61541	0	
2.1073	3.57266	2.00329	0	
2.1080	2.98214	2.61541	0	
2.1087	0.826732	1.39117	0	
2.1093	0.53147	0.472999	0	
2.1100	2.65735	3.53358	0	
2.1107	3.2774	4.1457	0	
2.1113	1.15152	1.39117	0	
2.1120	0.236209	-0.139117	0	
2.1127	1.15152	-0.139117	0	
2.1133	0.826732	-1.36335	0	
2.1140	1.15152	-2.55976	0	
2.1147	3.57266	-2.28153	0	
2.1153	3.57266	-1.36335	0	
2.1160	2.36209	-2.86582	0	
2.1167	2.98214	-4.09005	0	
2.1173	2.06683	-3.78399	0	
2.1180	-1.00389	-3.47794	0	
2.1187	-2.50972	-3.47794	0	
2.1193	0.236209	-2.55976	0	
2.1200	2.98214	-2.86582	0	
2.1207	2.98214	-3.17188	0	
2.1213	0.826732	-0.445176	0	
2.1220	-1.59441	1.08512	0	
2.1227	-1.9192	-2.28153	0	
2.1233	-0.0885784	-4.39611	0	
2.1240	0.826732	-1.66941	0	
2.1247	-0.38384	-0.445176	0	
2.1253	1.15152	-2.28153	0	
2.1260	4.81276	-1.66941	0	
2.1267	6.64338	0.472999	0	
2.1273	5.40328	-1.05729	0	
2.1280	4.81276	-1.66941	0	
2.1287	6.64338	0.166941	0	
2.1293	6.93864	-0.445176	0	
2.1300	2.06683	-1.66941	0	
2.1307	-1.29915	0.779058	0	
2.1313	0.826732	2.00329	0	
2.1320	1.15152	1.39117	0	
2.1327	-1.00389	2.92147	0	
2.1333	1.15152	3.22752	0	
2.1340	3.2774	-0.445176	0	
2.1347	1.15152	-1.36335	0	
2.1353	-1.00389	0.779058	0	
2.1360	-2.21446	-0.139117	0	
2.1367	-3.74982	-1.36335	0	
2.1373	-2.50972	-1.05729	0	
2.1380	-0.679101	-1.97547	0	
2.1387	-2.50972	-1.36335	0	
2.1393	-3.42503	2.30935	0	
2.1400	-0.679101	1.69723	0	
2.1407	0.53147	-2.28153	0	
2.1413	-3.42503	-2.28153	0	
2.1420	-5.8757	-0.139117	0	
2.1427	-4.04508	0.472999	0	
2.1433	-3.42503	0.166941	0	
2.1440	-4.66513	0.472999	0	
2.1447	-4.66513	1.69723	0	
2.1453	-4.04508	1.69723	0	
2.1460	-3.42503	1.69723	0	
2.1467	-1.59441	2.30935	0	
2.1473	-0.679101	2.61541	0	
2.1480	-0.0885784	3.53358	0	
2.1487	2.98214	4.75782	0	
2.1493	2.98214	3.22752	0	
2.1500	-1.00389	2.61541	0	
2.1507	-1.59441	5.06387	0	
2.1513	0.826732	4.75782	0	
2.1520	0.236209	4.1457	0	
2.1527	-3.42503	5.98205	0	
2.1533	-4.66513	5.36993	0	
2.1540	-3.74982	2.92147	0	
2.1547	-2.83451	3.22752	0	
2.1553	-3.42503	3.22752	0	
2.1560	-4.66513	1.39117	0	
2.1567	-4.34034	2.30935	0	
2.1573	-3.12977	2.30935	0	
2.1580	-1.9192	-0.751234	0	
2.1587	-1.59441	-2.55976	0	
2.1593	-2.21446	-3.47794	0	
2.1600	-1.9192	-4.39611	0	
2.1607	-0.0885784	-4.09005	0	
2.1613	0.826732	-4.09005	0	
2.1620	0.236209	-5.62034	0	
2.1627	-1.00389	-4.70217	0	
2.1633	-0.679101	-3.17188	0	
2.1640	-0.0885784	-2.55976	0	
2.1647	-0.0885784	-1.66941	0	
2.1653	0.826732	-1.36335	0	
2.1660	2.06683	-2.86582	0	
2.1667	1.44678	-4.39611	0	
2.1673	1.74204	-5.00823	0	
2.1680	4.81276	-4.09005	0	
2.1687	5.72807	-1.66941	0	
2.1693	4.19271	1.39117	0	
2.1700	4.81276	2.92147	0	
2.1707	4.81276	2.92147	0	
2.1713	2.98214	2.92147	0	
2.1720	2.98214	3.22752	0	
2.1727	4.19271	4.1457	0	
2.1733	3.2774	5.67599	0	
2.1740	1.44678	5.06387	0	
2.1747	1.15152	2.61541	0	
2.1753	1.44678	1.39117	0	
2.1760	0.236209	0.472999	0	
2.1767	-1.9192	-0.445176	0	
2.1773	-1.59441	0.472999	0	
2.1780	-1.29915	2.30935	0	
2.1787	-3.42503	2.30935	0	
2.1793	-4.34034	3.22752	0	
2.1800	-1.59441	3.22752	0	
2.1807	-1.29915	0.779058	0	
2.1813	-3.42503	-0.751234	0	
2.1820	-2.50972	0.166941	0	
2.1827	-0.38384	0.472999	0	
2.1833	-2.21446	0.779058	0	
2.1840	-3.42503	1.39117	0	
2.1847	-0.679101	0.166941	0	
2.1853	0.826732	-0.445176	0	
2.1860	-1.59441	2.30935	0	
2.1867	-0.679101	3.22752	0	
2.1873	1.44678	-1.05729	0	
2.1880	-2.21446	-4.09005	0	
2.1887	-3.74982	-0.445176	0	
2.1893	-0.679101	4.1457	0	
2.1900	-2.50972	4.75782	0	
2.1907	-5.8757	3.22752	0	
2.1913	-4.34034	3.53358	0	
2.1920	-1.59441	4.1457	0	
2.1927	-0.679101	1.69723	0	
2.1933	0.236209	0.472999	0	
2.1940	0.53147	2.30935	0	
2.1947	0.826732	1.08512	0	
2.1953	2.98214	-1.36335	0	
2.1960	3.89745	-0.139117	0	
2.1967	4.48797	1.08512	0	
2.1973	5.40328	-1.36335	0	
2.1980	5.10802	-1.97547	0	
2.1987	2.65735	0.166941	0	
2.1993	0.53147	-0.445176	0	
2.2000	-0.679101	-1.97547	0	
2.2007	-1.59441	-2.28153	0	
2.2013	-0.38384	-1.36335	0	
2.2020	0.826732	0.472999	0	
2.2027	0.826732	0.472999	0	
2.2033	2.98214	-2.86582	0	
2.2040	4.48797	-2.55976	0	
2.2047	1.15152	1.69723	0	
2.2053	0.53147	2.30935	0	
2.2060	4.81276	0.166941	0	
2.2067	4.19271	0.472999	0	
2.2073	1.15152	2.00329	0	
2.2080	2.98214	2.00329	0	
2.2087	5.40328	-0.139117	0	
2.2093	2.98214	-1.05729	0	
2.2100	1.15152	-0.139117	0	
2.2107	0.53147	-0.139117	0	
2.2113	1.15152	-1.36335	0	
2.2120	3.2774	-0.751234	0	
2.2127	2.98214	1.39117	0	
2.2133	-1.59441	2.30935	0	
2.2140	-3.12977	0.472999	0	
2.2147	-0.679101	-3.17188	0	
2.2153	1.15152	-5.00823	0	
2.2160	0.826732	-2.28153	0	
2.2167	0.236209	-1.36335	0	
2.2173	-1.00389	-3.47794	0	
2.2180	-1.9192	-4.09005	0	
2.2187	-2.50972	-1.66941	0	
2.2193	-2.50972	-1.36335	0	
2.2200	0.826732	-1.66941	0	
2.2207	2.36209	-0.445176	0	
2.2213	-0.679101	0.166941	0	
2.2220	-2.83451	-0.751234	0	
2.2227	-1.59441	-1.05729	0	
2.2233	-4.34034	-0.445176	0	
2.2240	-8.00158	-1.36335	0	
2.2247	-6.17096	-2.28153	0	
2.2253	-3.12977	-1.36335	0	
2.2260	-4.34034	0.472999	0	
2.2267	-5.25565	0.166941	0	
2.2273	-0.679101	0.472999	0	
2.2280	3.2774	0.472999	0	
2.2287	1.15152	-0.445176	0	
2.2293	-2.50972	0.472999	0	
2.2300	-2.83451	1.69723	0	
2.2307	-3.12977	2.00329	0	
2.2313	-5.25565	3.22752	0	
2.2320	-5.8757	2.30935	0	
2.2327	-4.66513	-1.36335	0	
2.2333	-3.42503	-2.28153	0	
2.2340	-1.9192	-0.751234	0	
2.2347	-1.59441	-2.55976	0	
2.2353	-4.34034	-3.78399	0	
2.2360	-6.49575	-1.66941	0	
2.2367	-7.08627	-1.36335	0	
2.2373	-7.70632	-3.17188	0	
2.2380	-5.8757	-5.00823	0	
2.2387	-2.50972	-4.09005	0	
2.2393	-1.29915	-1.36335	0	
2.2400	-0.679101	-1.36335	0	
2.2407	-0.38384	-6.84458	0	
2.2413	-0.38384	-8.68093	0	
2.2420	-0.38384	-4.09005	0	
2.2427	-0.0885784	-1.36335	0	
2.2433	-0.38384	-3.17188	0	
2.2440	0.236209	-4.09005	0	
2.2447	0.236209	-3.47794	0	
2.2453	-1.29915	-3.78399	0	
2.2460	-1.59441	-5.62034	0	
2.2467	0.236209	-6.84458	0	
2.2473	1.15152	-5.00823	0	
2.2480	0.236209	-1.97547	0	
2.2487	-0.0885784	-1.66941	0	
2.2493	-0.38384	-2.28153	0	
2.2500	-1.00389	-0.445176	0	
2.2507	0.236209	2.30935	0	
2.2513	0.826732	3.83964	0	
2.2520	-1.9192	4.75782	0	
2.2527	-4.04508	4.75782	0	
2.2533	-3.12977	5.06387	0	
2.2540	-3.74982	6.28811	0	
2.2547	-4.34034	5.36993	0	
2.2553	-0.679101	2.30935	0	
2.2560	-0.0885784	2.30935	0	
2.2567	-3.74982	4.1457	0	
2.2573	-2.50972	1.69723	0	
2.2580	1.15152	-1.97547	0	
2.2587	0.826732	-1.97547	0	
2.2593	-0.0885784	-2.86582	0	
2.2600	-2.21446	-4.09005	0	
2.2607	-5.25565	-1.36335	0	
2.2613	-3.42503	1.39117	0	
2.2620	-0.38384	-0.445176	0	
2.2627	-0.679101	-0.751234	0	
2.2633	1.15152	0.472999	0	
2.2640	4.19271	-1.36335	0	
2.2647	2.65735	-1.97547	0	
2.2653	2.65735	4.1457	0	
2.2660	6.64338	6.59417	0	
2.2667	6.02333	2.30935	0	
2.2673	1.74204	1.08512	0	
2.2680	0.826732	2.00329	0	
2.2687	2.98214	-0.751234	0	
2.2693	3.2774	-1.97547	0	
2.2700	2.06683	1.39117	0	
2.2707	0.236209	2.30935	0	
2.2713	-0.679101	-0.445176	0	
2.2720	-0.38384	-1.66941	0	
2.2727	0.236209	-2.28153	0	
2.2733	-0.38384	-3.17188	0	
2.2740	-1.9192	-1.66941	0	
2.2747	-2.83451	-1.36335	0	
2.2753	-1.59441	-4.70217	0	
2.2760	1.44678	-7.15064	0	
2.2767	2.98214	-7.45669	0	
2.2773	1.74204	-6.84458	0	
2.2780	2.36209	-5.9264	0	
2.2787	5.72807	-5.9264	0	
2.2793	6.93864	-7.76275	0	
2.2800	5.72807	-9.90516	0	
2.2807	5.40328	-10.5173	0	
2.2813	6.64338	-9.29304	0	
2.2820	6.64338	-6.23246	0	
2.2827	6.31859	-4.09005	0	
2.2833	5.40328	-2.28153	0	
2.2840	5.72807	-0.445176	0	
2.2847	5.72807	1.08512	0	
2.2853	5.10802	2.92147	0	
2.2860	6.64338	4.1457	0	
2.2867	7.55869	2.30935	0	
2.2873	3.57266	0.472999	0	
2.2880	-0.0885784	1.69723	0	
2.2887	0.236209	2.30935	0	
2.2893	0.53147	0.166941	0	
2.2900	-0.679101	-0.445176	0	
2.2907	-0.0885784	2.61541	0	
2.2913	0.236209	3.53358	0	
2.2920	-0.0885784	3.22752	0	
2.2927	-0.679101	3.83964	0	
2.2933	-0.0885784	2.30935	0	
2.2940	1.15152	0.472999	0	
2.2947	1.15152	2.00329	0	
2.2953	-0.0885784	2.61541	0	
2.2960	0.236209	1.39117	0	
2.2967	0.236209	2.30935	0	
2.2973	-0.679101	4.45176	0	
2.2980	0.236209	4.45176	0	
2.2987	3.89745	4.75782	0	
2.2993	6.02333	5.06387	0	
2.3000	5.72807	3.53358	0	
2.3007	3.89745	2.92147	0	
2.3013	2.98214	1.69723	0	
2.3020	4.81276	0.166941	0	
2.3027	4.81276	0.472999	0	
2.3033	3.89745	-0.445176	0	
2.3040	5.40328	-1.97547	0	
2.3047	4.48797	1.39117	0	
2.3053	0.236209	5.06387	0	
2.3060	-0.38384	2.61541	0	
2.3067	0.236209	-0.751234	0	
2.3073	-1.59441	-1.66941	0	
2.3080	-1.29915	-1.97547	0	
2.3087	0.236209	-2.28153	0	
2.3093	-0.679101	-1.36335	0	
2.3100	0.236209	-0.445176	0	
2.3107	2.06683	1.39117	0	
2.3113	1.15152	1.08512	0	
2.3120	-2.21446	-1.66941	0	
2.3127	-5.25565	-0.445176	0	
2.3133	-5.8757	3.53358	0	
2.3140	-3.74982	2.00329	0	
2.3147	-3.42503	-0.445176	0	
2.3153	-4.34034	2.30935	0	
2.3160	-3.74982	4.1457	0	
2.3167	-4.34034	3.22752	0	
2.3173	-5.8757	1.39117	0	
2.3180	-2.83451	-1.36335	0	
2.3187	-1.59441	-2.28153	0	
2.3193	-6.17096	1.08512	0	
2.3200	-6.17096	2.30935	0	
2.3207	-1.9192	1.08512	0	
2.3213	-4.34034	1.39117	0	
2.3220	-6.17096	2.61541	0	
2.3227	-2.21446	2.30935	0	
2.3233	-2.50972	1.69723	0	
2.3240	-5.58044	2.30935	0	
2.3247	-4.96039	3.53358	0	
2.3253	-5.8757	3.83964	0	
2.3260	-8.00158	2.30935	0	
2.3267	-5.8757	2.00329	0	
2.3273	-5.25565	3.53358	0	
2.3280	-7.08627	3.22752	0	
2.3287	-4.66513	3.53358	0	
2.3293	-3.42503	5.36993	0	
2.3300	-8.00158	4.45176	0	
2.3307	-8.32637	2.61541	0	
2.3313	-3.74982	4.1457	0	
2.3320	-1.9192	4.1457	0	
2.3327	-2.83451	1.08512	0	
2.3333	-1.9192	1.08512	0	
2.3340	0.236209	3.22752	0	
2.3347	2.06683	1.69723	0	
2.3353	2.98214	0.472999	0	
2.3360	1.15152	2.00329	0	
2.3367	0.826732	1.39117	0	
2.3373	2.98214	-2.28153	0	
2.3380	2.06683	-2.55976	0	
2.3387	-0.679101	-0.445176	0	
2.3393	1.74204	-1.05729	0	
2.3400	2.98214	-3.17188	0	
2.3407	0.236209	-3.47794	0	
2.3413	0.53147	-3.17188	0	
2.3420	4.48797	-3.47794	0	
2.3427	4.81276	-3.17188	0	
2.3433	3.2774	-1.36335	0	
2.3440	2.65735	0.779058	0	
2.3447	2.06683	2.30935	0	
2.3453	2.06683	1.39117	0	
2.3460	4.19271	0.472999	0	
2.3467	4.81276	1.39117	0	
2.3473	3.2774	2.30935	0	
2.3480	1.74204	-0.139117	0	
2.3487	2.98214	-1.97547	0	
2.3493	4.81276	1.39117	0	
2.3500	3.57266	4.1457	0	
2.3507	2.06683	1.69723	0	
2.3513	2.06683	-1.05729	0	
2.3520	1.15152	0.166941	0	
2.3527	1.44678	1.39117	0	
2.3533	4.48797	0.472999	0	
2.3540	3.89745	-1.05729	0	
2.3547	-1.00389	0.166941	0	
2.3553	-2.50972	2.30935	0	
2.3560	-2.83451	0.779058	0	
2.3567	-3.42503	-2.28153	0	
2.3573	-1.59441	-1.66941	0	
2.3580	0.236209	-1.66941	0	
2.3587	-0.679101	-4.39611	0	
2.3593	0.826732	-2.28153	0	
2.3600	4.81276	3.22752	0	
2.3607	4.19271	2.61541	0	
2.3613	-0.0885784	-0.445176	0	
2.3620	0.236209	1.08512	0	
2.3627	2.06683	2.30935	0	
2.3633	-0.0885784	-1.05729	0	
2.3640	-2.50972	-2.28153	0	
2.3647	-0.38384	-0.139117	0	
2.3653	2.98214	0.472999	0	
2.3660	2.65735	-2.28153	0	
2.3667	0.826732	-4.39611	0	
2.3673	0.53147	-3.47794	0	
2.3680	-0.38384	-2.28153	0	
2.3687	-1.00389	-2.55976	0	
2.3693	0.826732	-3.78399	0	
2.3700	1.15152	-4.39611	0	
2.3707	-1.00389	-2.55976	0	
2.3713	0.53147	0.779058	0	
2.3720	2.06683	1.08512	0	
2.3727	-0.679101	0.166941	0	
2.3733	-1.9192	0.166941	0	
2.3740	1.15152	-1.36335	0	
2.3747	2.06683	-3.78399	0	
2.3753	-0.0885784	-3.17188	0	
2.3760	-1.29915	-2.86582	0	
2.3767	-0.0885784	-4.70217	0	
2.3773	3.89745	-6.84458	0	
2.3780	6.02333	-9.5991	0	
2.3787	3.89745	-9.5991	0	
2.3793	2.36209	-7.76275	0	
2.3800	1.74204	-8.37487	0	
2.3807	-0.679101	-10.8233	0	
2.3813	0.236209	-11.4355	0	
2.3820	2.06683	-9.5991	0	
2.3827	-0.0885784	-8.06881	0	
2.3833	1.15152	-7.76275	0	
2.3840	5.40328	-8.68093	0	
2.3847	3.57266	-8.06881	0	
2.3853	0.236209	-5.31429	0	
2.3860	0.236209	-3.17188	0	
2.3867	-0.679101	-2.86582	0	
2.3873	-1.9192	-0.445176	0	
2.3880	0.236209	5.36993	0	
2.3887	-0.38384	7.17846	0	
2.3893	-1.00389	3.53358	0	
2.3900	1.74204	5.06387	0	
2.3907	0.236209	10.5451	0	
2.3913	-6.49575	9.62693	0	
2.3920	-7.70632	5.67599	0	
2.3927	-3.12977	5.36993	0	
2.3933	-1.00389	4.75782	0	
2.3940	-3.42503	3.22752	0	
2.3947	-4.66513	3.22752	0	
2.3953	-2.21446	2.61541	0	
2.3960	0.236209	0.779058	0	
2.3967	-1.59441	-1.36335	0	
2.3973	-4.96039	-3.78399	0	
2.3980	-5.25565	-3.17188	0	
2.3987	-4.34034	-1.36335	0	
2.3993	-5.58044	-2.28153	0	
2.4000	-5.58044	-2.28153	0	
2.4007	-4.04508	2.00329	0	
2.4013	-4.66513	3.22752	0	
2.4020	-5.25565	1.39117	0	
2.4027	-0.679101	2.61541	0	
2.4033	1.74204	4.1457	0	
2.4040	0.236209	1.39117	0	
2.4047	0.53147	0.166941	0	
2.4053	1.74204	2.00329	0	
2.4060	0.826732	2.30935	0	
2.4067	0.236209	2.30935	0	
2.4073	0.236209	1.39117	0	
2.4080	0.826732	-0.751234	0	
2.4087	2.06683	0.779058	0	
2.4093	2.65735	3.83964	0	
2.4100	2.98214	2.92147	0	
2.4107	1.15152	2.30935	0	
2.4113	-3.74982	3.53358	0	
2.4120	-4.66513	3.22752	0	
2.4127	-0.679101	3.22752	0	
2.4133	0.236209	4.1457	0	
2.4140	-1.59441	3.83964	0	
2.4147	-0.679101	3.22752	0	
2.4153	-0.679101	3.53358	0	
2.4160	-2.50972	2.30935	0	
2.4167	-1.59441	0.472999	0	
2.4173	-1.29915	-0.139117	0	
2.4180	-3.42503	0.779058	0	
2.4187	-4.34034	3.53358	0	
2.4193	-0.679101	4.75782	0	
2.4200	3.2774	2.92147	0	
2.4207	2.65735	1.39117	0	
2.4213	-0.38384	0.472999	0	
2.4220	0.826732	0.472999	0	
2.4227	3.2774	3.53358	0	
2.4233	2.65735	4.75782	0	
2.4240	3.57266	1.08512	0	
2.4247	4.81276	0.472999	0	
2.4253	0.53147	3.53358	0	
2.4260	-2.21446	3.53358	0	
2.4267	-0.38384	2.92147	0	
2.4273	-0.0885784	2.92147	0	
2.4280	-0.679101	1.08512	0	
2.4287	0.236209	0.472999	0	
2.4293	-1.00389	1.69723	0	
2.4300	-1.00389	0.472999	0	
2.4307	0.236209	-0.751234	0	
2.4313	-2.50972	-0.445176	0	
2.4320	-5.25565	-2.28153	0	
2.4327	-4.96039	-4.09005	0	
2.4333	-4.34034	-2.28153	0	
2.4340	-3.42503	-1.66941	0	
2.4347	-1.29915	-3.17188	0	
2.4353	-2.21446	-1.97547	0	
2.4360	-2.21446	-3.17188	0	
2.4367	0.236209	-6.84458	0	
2.4373	-1.59441	-3.17188	0	
2.4380	-5.8757	2.30935	0	
2.4387	-6.17096	1.08512	0	
2.4393	-4.66513	1.39117	0	
2.4400	-2.50972	3.53358	0	
2.4407	-0.679101	0.472999	0	
2.4413	-1.9192	-0.445176	0	
2.4420	-3.42503	3.53358	0	
2.4427	-1.9192	2.61541	0	
2.4433	-1.59441	-0.445176	0	
2.4440	-1.9192	0.472999	0	
2.4447	0.236209	1.39117	0	
2.4453	1.74204	0.779058	0	
2.4460	1.44678	1.08512	0	
2.4467	1.44678	1.39117	0	
2.4473	0.236209	0.779058	0	
2.4480	-1.29915	0.779058	0	
2.4487	0.53147	1.69723	0	
2.4493	1.15152	2.00329	0	
2.4500	-0.0885784	0.472999	0	
2.4507	1.15152	-0.445176	0	
2.4513	3.2774	-1.36335	0	
2.4520	2.98214	-2.28153	0	
2.4527	3.57266	-1.36335	0	
2.4533	3.89745	-0.445176	0	
2.4540	0.236209	-2.28153	0	
2.4547	-2.50972	-5.00823	0	
2.4553	-1.59441	-5.9264	0	
2.4560	-1.59441	-6.23246	0	
2.4567	-2.50972	-7.76275	0	
2.4573	-1.59441	-9.29304	0	
2.4580	-2.50972	-8.37487	0	
2.4587	-4.66513	-5.00823	0	
2.4593	-3.42503	-2.55976	0	
2.4600	-2.50972	-4.09005	0	
2.4607	-4.34034	-4.09005	0	
2.4613	-2.83451	-3.78399	0	
2.4620	-0.38384	-5.62034	0	
2.4627	-1.00389	-5.9264	0	
2.4633	-2.83451	-2.86582	0	
2.4640	-3.42503	-3.17188	0	
2.4647	-2.21446	-4.09005	0	
2.4653	0.236209	-1.66941	0	
2.4660	0.826732	-0.445176	0	
2.4667	0.236209	-0.445176	0	
2.4673	-1.00389	0.779058	0	
2.4680	-2.50972	0.472999	0	
2.4687	0.236209	-2.55976	0	
2.4693	4.19271	-5.00823	0	
2.4700	2.65735	-5.9264	0	
2.4707	1.15152	-3.17188	0	
2.4713	3.89745	0.166941	0	
2.4720	1.15152	-1.97547	0	
2.4727	-4.66513	-4.39611	0	
2.4733	-4.04508	-1.97547	0	
2.4740	-0.679101	-0.445176	0	
2.4747	-0.679101	-0.445176	0	
2.4753	-1.59441	2.61541	0	
2.4760	-1.59441	2.92147	0	
2.4767	-0.0885784	-1.36335	0	
2.4773	2.65735	-4.09005	0	
2.4780	1.74204	-4.09005	0	
2.4787	-1.00389	-5.00823	0	
2.4793	0.236209	-5.31429	0	
2.4800	0.53147	-3.78399	0	
2.4807	-1.00389	-5.00823	0	
2.4813	-0.679101	-9.5991	0	
2.4820	0.826732	-9.90516	0	
2.4827	1.74204	-5.9264	0	
2.4833	2.06683	-5.00823	0	
2.4840	0.53147	-5.9264	0	
2.4847	0.53147	-3.78399	0	
2.4853	2.98214	-3.47794	0	
2.4860	2.36209	-5.00823	0	
2.4867	0.826732	-1.05729	0	
2.4873	2.36209	2.30935	0	
2.4880	1.15152	-2.28153	0	
2.4887	-3.12977	-5.00823	0	
2.4893	-4.04508	-0.445176	0	
2.4900	-4.34034	1.69723	0	
2.4907	-6.17096	0.166941	0	
2.4913	-6.17096	1.39117	0	
2.4920	-7.08627	3.22752	0	
2.4927	-8.91689	3.83964	0	
2.4933	-8.91689	4.45176	0	
2.4940	-7.08627	4.1457	0	
2.4947	-5.25565	2.00329	0	
2.4953	-6.17096	3.22752	0	
2.4960	-9.8322	5.98205	0	
2.4967	-10.4522	5.67599	0	
2.4973	-7.70632	3.22752	0	
2.4980	-8.62163	2.92147	0	
2.4987	-9.8322	4.1457	0	
2.4993	-5.58044	5.36993	0	
2.5000	-3.74982	4.45176	0	
2.5007	-5.58044	2.30935	0	
2.5013	-4.96039	2.61541	0	
2.5020	-3.42503	4.45176	0	
2.5027	-4.34034	2.30935	0	
2.5033	-4.04508	0.472999	0	
2.5040	-3.12977	3.22752	0	
2.5047	-1.59441	3.53358	0	
2.5053	0.236209	0.166941	0	
2.5060	-0.0885784	-1.05729	0	
2.5067	-1.59441	0.166941	0	
2.5073	0.53147	-1.05729	0	
2.5080	2.98214	-2.28153	0	
2.5087	2.98214	-1.36335	0	
2.5093	5.10802	-0.445176	0	
2.5100	9.09405	-1.36335	0	
2.5107	9.09405	-2.86582	0	
2.5113	7.55869	-1.36335	0	
2.5120	8.76926	0.779058	0	
2.5127	10.3046	-1.05729	0	
2.5133	9.09405	-4.09005	0	
2.5140	7.55869	-3.78399	0	
2.5147	7.55869	-3.47794	0	
2.5153	7.26343	-5.00823	0	
2.5160	7.26343	-4.39611	0	
2.5167	6.93864	-3.17188	0	
2.5173	6.02333	-1.66941	0	
2.5180	6.31859	2.00329	0	
2.5187	8.474	2.30935	0	
2.5193	6.93864	-1.36335	0	
2.5200	2.98214	-2.86582	0	
2.5207	2.36209	-1.36335	0	
2.5213	5.10802	-1.97547	0	
2.5220	6.64338	-3.17188	0	
2.5227	6.31859	-2.55976	0	
2.5233	4.19271	-0.751234	0	
2.5240	1.15152	0.472999	0	
2.5247	0.236209	0.472999	0	
2.5253	1.44678	-0.445176	0	
2.5260	1.44678	-0.445176	0	
2.5267	-0.38384	0.166941	0	
2.5273	-1.00389	1.69723	0	
2.5280	-0.679101	2.92147	0	
2.5287	-0.679101	0.779058	0	
2.5293	-1.00389	-0.751234	0	
2.5300	0.236209	0.779058	0	
2.5307	2.06683	3.22752	0	
2.5313	2.36209	4.45176	0	
2.5320	1.15152	3.83964	0	
2.5327	0.826732	0.779058	0	
2.5333	-0.0885784	-1.36335	0	
2.5340	-2.50972	-1.36335	0	
2.5347	-2.50972	-1.66941	0	
2.5353	-0.679101	-3.78399	0	
2.5360	-1.59441	-4.09005	0	
2.5367	-3.42503	-2.28153	0	
2.5373	-2.50972	-3.47794	0	
2.5380	-2.21446	-4.39611	0	
2.5387	-2.83451	-1.36335	0	
2.5393	-1.59441	-0.445176	0	
2.5400	-0.38384	-4.09005	0	
2.5407	0.236209	-4.09005	0	
2.5413	3.57266	-0.751234	0	
2.5420	6.64338	-0.445176	0	
2.5427	6.31859	1.39117	0	
2.5433	5.72807	5.06387	0	
2.5440	4.81276	5.36993	0	
2.5447	2.98214	4.45176	0	
2.5453	2.65735	4.1457	0	
2.5460	2.36209	2.30935	0	
2.5467	2.06683	3.22752	0	
2.5473	1.44678	6.90022	0	
2.5480	0.236209	8.09663	0	
2.5487	0.236209	7.79058	0	
2.5493	2.98214	7.79058	0	
2.5500	3.57266	7.48452	0	
2.5507	2.98214	8.09663	0	
2.5513	3.89745	8.09663	0	
2.5520	4.19271	5.06387	0	
2.5527	4.81276	2.61541	0	
2.5533	5.72807	1.39117	0	
2.5540	2.36209	-0.445176	0	
2.5547	-2.21446	2.61541	0	
2.5553	-1.00389	7.79058	0	
2.5560	0.236209	5.98205	0	
2.5567	-1.9192	2.30935	0	
2.5573	-1.9192	2.92147	0	
2.5580	-0.38384	4.1457	0	
2.5587	0.53147	1.69723	0	
2.5593	-0.0885784	-0.445176	0	
2.5600	-2.83451	0.472999	0	
2.5607	-3.42503	3.53358	0	
2.5613	-0.38384	5.06387	0	
2.5620	-0.38384	3.53358	0	
2.5627	-2.50972	3.22752	0	
2.5633	-1.9192	5.06387	0	
2.5640	-2.50972	5.06387	0	
2.5647	-5.25565	4.75782	0	
2.5653	-5.25565	4.1457	0	
2.5660	-4.04508	3.83964	0	
2.5667	-5.25565	5.06387	0	
2.5673	-7.08627	5.98205	0	
2.5680	-7.08627	4.1457	0	
2.5687	-6.79101	2.30935	0	
2.5693	-6.49575	2.30935	0	
2.5700	-6.17096	0.779058	0	
2.5707	-4.96039	0.166941	0	
2.5713	-4.96039	2.92147	0	
2.5720	-7.08627	5.06387	0	
2.5727	-7.08627	4.45176	0	
2.5733	-4.66513	3.22752	0	
2.5740	-3.42503	2.61541	0	
2.5747	-3.42503	1.69723	0	
2.5753	1.15152	-0.445176	0	
2.5760	5.72807	-1.36335	0	
2.5767	4.81276	-0.445176	0	
2.5773	2.36209	-2.28153	0	
2.5780	3.57266	-4.09005	0	
2.5787	3.89745	-0.139117	0	
2.5793	1.74204	1.08512	0	
2.5800	1.44678	-5.00823	0	
2.5807	2.36209	-6.53852	0	
2.5813	0.826732	-2.55976	0	
2.5820	-0.679101	-3.47794	0	
2.5827	-1.00389	-5.00823	0	
2.5833	-2.50972	-2.55976	0	
2.5840	-1.9192	-2.86582	0	
2.5847	1.44678	-4.09005	0	
2.5853	2.06683	-1.05729	0	
2.5860	1.44678	0.472999	0	
2.5867	4.19271	-1.36335	0	
2.5873	6.31859	-2.28153	0	
2.5880	5.72807	-2.86582	0	
2.5887	4.48797	-1.66941	0	
2.5893	2.98214	-1.05729	0	
2.5900	1.15152	-3.17188	0	
2.5907	2.06683	-2.86582	0	
2.5913	3.2774	0.779058	0	
2.5920	2.36209	-0.751234	0	
2.5927	0.53147	-2.86582	0	
2.5933	-0.679101	0.166941	0	
2.5940	-0.679101	0.472999	0	
2.5947	0.53147	-1.05729	0	
2.5953	1.44678	0.472999	0	
2.5960	2.65735	0.472999	0	
2.5967	3.57266	-1.97547	0	
2.5973	2.06683	-3.17188	0	
2.5980	1.44678	-5.00823	0	
2.5987	4.19271	-6.23246	0	
2.5993	4.81276	-3.47794	0	
2.6000	2.06683	-2.86582	0	
2.6007	0.826732	-4.39611	0	
2.6013	1.15152	-3.47794	0	
2.6020	0.236209	-4.09005	0	
2.6027	-1.9192	-6.23246	0	
2.6033	-3.74982	-3.78399	0	
2.6040	-4.66513	0.166941	0	
2.6047	-4.34034	-1.36335	0	
2.6053	-4.66513	-1.36335	0	
2.6060	-3.74982	2.30935	0	
2.6067	-0.679101	4.45176	0	
2.6073	0.236209	3.83964	0	
2.6080	-2.21446	3.22752	0	
2.6087	-2.21446	2.61541	0	
2.6093	-1.59441	1.08512	0	
2.6100	-4.04508	1.08512	0	
2.6107	-6.17096	2.30935	0	
2.6113	-4.66513	-0.139117	0	
2.6120	-3.12977	-3.47794	0	
2.6127	-3.42503	-2.28153	0	
2.6133	-4.04508	0.166941	0	
2.6140	-2.50972	-3.17188	0	
2.6147	-1.59441	-5.31429	0	
2.6153	-3.42503	-1.36335	0	
2.6160	-6.49575	0.472999	0	
2.6167	-8.00158	-2.28153	0	
2.6173	-8.62163	-2.28153	0	
2.6180	-8.32637	-1.36335	0	
2.6187	-5.8757	-4.70217	0	
2.6193	-5.25565	-5.9264	0	
2.6200	-6.79101	-3.78399	0	
2.6207	-5.25565	-5.00823	0	
2.6213	-2.83451	-9.90516	0	
2.6220	-3.74982	-11.1294	0	
2.6227	-3.74982	-8.68093	0	
2.6233	-2.21446	-6.23246	0	
2.6240	-3.12977	-6.53852	0	
2.6247	-3.42503	-9.29304	0	
2.6253	-1.59441	-9.29304	0	
2.6260	-3.42503	-4.70217	0	
2.6267	-6.79101	-1.36335	0	
2.6273	-1.9192	-1.05729	0	
2.6280	2.36209	0.472999	0	
2.6287	-2.50972	2.30935	0	
2.6293	-5.25565	1.08512	0	
2.6300	-1.59441	-0.751234	0	
2.6307	-1.59441	-1.66941	0	
2.6313	-3.42503	-4.09005	0	
2.6320	0.236209	-4.39611	0	
2.6327	1.74204	-0.751234	0	
2.6333	-1.59441	-0.445176	0	
2.6340	-1.00389	-3.17188	0	
2.6347	0.826732	-4.39611	0	
2.6353	-1.29915	-5.31429	0	
2.6360	-1.59441	-6.84458	0	
2.6367	1.15152	-3.47794	0	
2.6373	1.15152	0.166941	0	
2.6380	0.236209	-0.445176	0	
2.6387	2.65735	0.166941	0	
2.6393	3.2774	1.39117	0	
2.6400	2.06683	-1.36335	0	
2.6407	3.2774	-2.86582	0	
2.6413	3.89745	0.472999	0	
2.6420	2.36209	2.30935	0	
2.6427	2.98214	1.08512	0	
2.6433	4.48797	0.472999	0	
2.6440	2.06683	0.779058	0	
2.6447	-0.679101	1.39117	0	
2.6453	1.74204	2.00329	0	
2.6460	4.81276	2.00329	0	
2.6467	1.74204	1.69723	0	
2.6473	-1.9192	0.472999	0	
2.6480	-1.29915	-1.66941	0	
2.6487	-0.679101	-1.36335	0	
2.6493	-2.83451	0.472999	0	
2.6500	-3.74982	1.69723	0	
2.6507	-3.74982	0.472999	0	
2.6513	-4.66513	-0.751234	0	
2.6520	-3.12977	0.472999	0	
2.6527	-1.9192	3.83964	0	
2.6533	-4.34034	4.1457	0	
2.6540	-3.42503	1.08512	0	
2.6547	0.236209	-0.751234	0	
2.6553	1.44678	-2.28153	0	
2.6560	0.826732	-2.28153	0	
2.6567	0.236209	-0.445176	0	
2.6573	-1.00389	-1.05729	0	
2.6580	-0.0885784	-3.17188	0	
2.6587	2.06683	-0.751234	0	
2.6593	2.36209	1.08512	0	
2.6600	3.89745	-3.17188	0	
2.6607	4.81276	-3.47794	0	
2.6613	2.65735	2.92147	0	
2.6620	4.81276	5.06387	0	
2.6627	10.9247	2.30935	0	
2.6633	10.5999	3.83964	0	
2.6640	6.64338	5.98205	0	
2.6647	6.31859	3.83964	0	
2.6653	6.93864	3.53358	0	
2.6660	7.55869	5.67599	0	
2.6667	7.85395	3.22752	0	
2.6673	4.81276	0.472999	0	
2.6680	2.98214	2.61541	0	
2.6687	4.81276	2.92147	0	
2.6693	5.10802	0.779058	0	
2.6700	1.74204	1.69723	0	
2.6707	-0.38384	3.22752	0	
2.6713	-0.679101	1.69723	0	
2.6720	-0.38384	1.39117	0	
2.6727	-0.679101	3.22752	0	
2.6733	-0.38384	3.22752	0	
2.6740	1.15152	2.30935	0	
2.6747	2.06683	2.30935	0	
2.6753	1.15152	4.1457	0	
2.6760	2.06683	5.06387	0	
2.6767	2.06683	4.45176	0	
2.6773	-1.59441	4.1457	0	
2.6780	-3.42503	3.53358	0	
2.6787	-2.50972	1.39117	0	
2.6793	-3.42503	0.166941	0	
2.6800	-2.50972	1.39117	0	
2.6807	0.53147	3.53358	0	
2.6813	1.15152	4.75782	0	
2.6820	-1.00389	4.45176	0	
2.6827	-3.42503	3.22752	0	
2.6833	-5.8757	2.30935	0	
2.6840	-5.25565	1.39117	0	
2.6847	-1.59441	-0.445176	0	
2.6853	0.53147	0.472999	0	
2.6860	0.826732	2.92147	0	
2.6867	1.15152	3.22752	0	
2.6873	2.36209	3.53358	0	
2.6880	2.98214	4.1457	0	
2.6887	2.06683	2.92147	0	
2.6893	1.15152	1.08512	0	
2.6900	2.36209	1.08512	0	
2.6907	2.98214	2.30935	0	
2.6913	1.15152	2.00329	0	
2.6920	-0.38384	1.08512	0	
2.6927	0.236209	1.08512	0	
2.6933	2.06683	-0.445176	0	
2.6940	1.74204	-5.00823	0	
2.6947	-0.679101	-6.23246	0	
2.6953	-0.679101	-1.97547	0	
2.6960	2.36209	-1.05729	0	
2.6967	3.57266	-4.39611	0	
2.6973	2.06683	-4.39611	0	
2.6980	3.2774	-3.47794	0	
2.6987	4.48797	-5.9264	0	
2.6993	2.98214	-6.53852	0	
2.7000	1.15152	-5.00823	0	
2.7007	2.06683	-7.15064	0	
2.7013	2.98214	-8.68093	0	
2.7020	1.44678	-5.62034	0	
2.7027	0.236209	-3.78399	0	
2.7033	2.06683	-5.31429	0	
2.7040	2.98214	-4.09005	0	
2.7047	0.826732	-1.36335	0	
2.7053	-0.38384	-2.28153	0	
2.7060	2.06683	-1.36335	0	
2.7067	3.2774	3.22752	0	
2.7073	1.15152	4.75782	0	
2.7080	-0.679101	-0.139117	0	
2.7087	-0.38384	-3.17188	0	
2.7093	0.826732	-1.05729	0	
2.7100	0.236209	1.08512	0	
2.7107	-1.59441	-0.751234	0	
2.7113	-2.83451	-3.47794	0	
2.7120	-4.96039	-4.09005	0	
2.7127	-7.41106	-2.86582	0	
2.7133	-7.08627	-1.97547	0	
2.7140	-4.34034	-2.28153	0	
2.7147	-2.50972	-3.47794	0	
2.7153	-3.42503	-3.47794	0	
2.7160	-5.58044	-1.97547	0	
2.7167	-5.25565	-2.28153	0	
2.7173	-2.50972	-3.17188	0	
2.7180	-1.9192	-1.97547	0	
2.7187	-1.9192	-1.36335	0	
2.7193	-0.0885784	-2.86582	0	
2.7200	-1.59441	-3.47794	0	
2.7207	-4.66513	-2.28153	0	
2.7213	-1.59441	-0.751234	0	
2.7220	1.74204	-0.445176	0	
2.7227	-0.679101	-0.139117	0	
2.7233	-1.9192	2.30935	0	
2.7240	-0.0885784	5.06387	0	
2.7247	-0.679101	3.83964	0	
2.7253	-0.38384	-0.139117	0	
2.7260	1.44678	-0.445176	0	
2.7267	0.53147	-0.445176	0	
2.7273	-0.38384	-0.445176	0	
2.7280	0.826732	1.69723	0	
2.7287	0.53147	2.92147	0	
2.7293	0.236209	0.166941	0	
2.7300	0.236209	-1.97547	0	
2.7307	-0.679101	-2.55976	0	
2.7313	-0.38384	-3.17188	0	
2.7320	2.06683	-2.86582	0	
2.7327	1.74204	-2.86582	0	
2.7333	-0.679101	-2.28153	0	
2.7340	0.236209	0.472999	0	
2.7347	1.15152	0.166941	0	
2.7353	0.826732	-1.36335	0	
2.7360	1.44678	0.472999	0	
2.7367	1.74204	2.30935	0	
2.7373	0.236209	-0.445176	0	
2.7380	-0.679101	-1.97547	0	
2.7387	-1.9192	0.472999	0	
2.7393	-5.25565	3.53358	0	
2.7400	-5.25565	3.22752	0	
2.7407	-3.42503	0.779058	0	
2.7413	-3.42503	0.472999	0	
2.7420	-2.83451	0.472999	0	
2.7427	-2.21446	-2.86582	0	
2.7433	-3.42503	-3.47794	0	
2.7440	-2.83451	0.779058	0	
2.7447	0.826732	2.30935	0	
2.7453	2.36209	1.08512	0	
2.7460	1.15152	1.39117	0	
2.7467	0.236209	2.61541	0	
2.7473	1.44678	3.22752	0	
2.7480	3.89745	2.92147	0	
2.7487	4.81276	1.69723	0	
2.7493	3.89745	1.39117	0	
2.7500	2.98214	1.69723	0	
2.7507	2.65735	2.00329	0	
2.7513	0.826732	2.30935	0	
2.7520	-1.00389	2.00329	0	
2.7527	-0.679101	0.472999	0	
2.7533	-0.679101	-0.445176	0	
2.7540	-2.21446	-1.05729	0	
2.7547	-2.50972	-3.47794	0	
2.7553	-1.00389	-3.78399	0	
2.7560	0.236209	-1.66941	0	
2.7567	1.15152	-1.36335	0	
2.7573	2.06683	-1.97547	0	
2.7580	0.236209	-0.751234	0	
2.7587	-1.00389	-0.139117	0	
2.7593	0.53147	-0.751234	0	
2.7600	2.06683	0.166941	0	
2.7607	-0.0885784	0.472999	0	
2.7613	-1.59441	-1.66941	0	
2.7620	-1.29915	-2.55976	0	
2.7627	-2.83451	-2.28153	0	
2.7633	-4.66513	-3.47794	0	
2.7640	-3.42503	-3.78399	0	
2.7647	-1.00389	-2.55976	0	
2.7653	0.53147	-3.17188	0	
2.7660	1.15152	-3.17188	0	
2.7667	-0.679101	-1.36335	0	
2.7673	-2.21446	-1.36335	0	
2.7680	-1.29915	-0.445176	0	
2.7687	-1.59441	0.472999	0	
2.7693	-3.42503	-2.55976	0	
2.7700	-3.42503	-4.70217	0	
2.7707	-2.21446	1.39117	0	
2.7713	-3.42503	7.79058	0	
2.7720	-6.17096	5.67599	0	
2.7727	-6.17096	0.779058	0	
2.7733	-2.50972	-0.445176	0	
2.7740	2.06683	0.472999	0	
2.7747	1.15152	0.472999	0	
2.7753	-1.59441	-0.445176	0	
2.7760	-1.59441	-2.28153	0	
2.7767	-3.42503	-2.86582	0	
2.7773	-6.17096	-2.28153	0	
2.7780	-2.83451	-1.36335	0	
2.7787	2.06683	1.08512	0	
2.7793	1.15152	3.22752	0	
2.7800	0.236209	2.92147	0	
2.7807	1.74204	3.22752	0	
2.7813	0.236209	5.36993	0	
2.7820	-0.0885784	6.28811	0	
2.7827	1.74204	3.83964	0	
2.7833	1.15152	3.53358	0	
2.7840	-0.0885784	7.17846	0	
2.7847	0.826732	8.40269	0	
2.7853	0.53147	5.36993	0	
2.7860	-1.29915	2.30935	0	
2.7867	-3.42503	1.39117	0	
2.7873	-4.34034	0.779058	0	
2.7880	-2.21446	0.166941	0	
2.7887	0.53147	-0.139117	0	
2.7893	-1.00389	-1.36335	0	
2.7900	-1.59441	-2.28153	0	
2.7907	-0.679101	-0.139117	0	
2.7913	-3.42503	5.98205	0	
2.7920	-6.17096	9.32087	0	
2.7927	-3.42503	7.48452	0	
2.7933	-0.679101	4.45176	0	
2.7940	-1.59441	2.92147	0	
2.7947	-2.83451	2.00329	0	
2.7953	-1.59441	0.166941	0	
2.7960	0.236209	-1.66941	0	
2.7967	-1.59441	-2.28153	0	
2.7973	-2.50972	-2.28153	0	
2.7980	-0.679101	-1.66941	0	
2.7987	-1.00389	-0.751234	0	
2.7993	-2.21446	-2.28153	0	
2.8000	0.236209	-1.97547	0	
2.8007	0.826732	-0.139117	0	
2.8013	-0.679101	-1.66941	0	
2.8020	2.65735	-3.47794	0	
2.8027	5.72807	-2.28153	0	
2.8033	2.65735	-3.47794	0	
2.8040	-0.0885784	-4.70217	0	
2.8047	2.06683	-1.36335	0	
2.8053	2.98214	-0.445176	0	
2.8060	2.06683	-1.05729	0	
2.8067	0.53147	3.22752	0	
2.8073	0.236209	2.30935	0	
2.8080	0.53147	-2.55976	0	
2.8087	-0.0885784	-1.36335	0	
2.8093	-0.679101	1.69723	0	
2.8100	0.826732	-0.139117	0	
2.8107	1.15152	-0.445176	0	
2.8113	-0.679101	-0.445176	0	
2.8120	-1.59441	-2.86582	0	
2.8127	-1.59441	-4.09005	0	
2.8133	-0.38384	-3.17188	0	
2.8140	1.44678	-4.09005	0	
2.8147	0.53147	-5.9264	0	
2.8153	-1.59441	-7.76275	0	
2.8160	-0.679101	-6.23246	0	
2.8167	0.236209	-5.62034	0	
2.8173	-1.59441	-7.45669	0	
2.8180	-0.679101	-6.84458	0	
2.8187	2.98214	-2.86582	0	
2.8193	4.81276	-2.28153	0	
2.8200	2.65735	-3.47794	0	
2.8207	1.15152	-3.17188	0	
2.8213	2.65735	-3.17188	0	
2.8220	6.93864	-1.97547	0	
2.8227	10.3046	0.779058	0	
2.8233	7.55869	0.472999	0	
2.8240	3.89745	0.472999	0	
2.8247	3.89745	2.30935	0	
2.8253	4.48797	1.69723	0	
2.8260	1.44678	1.69723	0	
2.8267	0.236209	4.75782	0	
2.8273	1.15152	4.1457	0	
2.8280	-0.0885784	0.166941	0	
2.8287	-1.59441	0.472999	0	
2.8293	-0.679101	3.22752	0	
2.8300	-0.38384	5.06387	0	
2.8307	-1.59441	6.28811	0	
2.8313	-1.59441	4.45176	0	
2.8320	-1.29915	1.08512	0	
2.8327	-1.9192	1.39117	0	
2.8333	-0.38384	4.1457	0	
2.8340	0.236209	5.06387	0	
2.8347	-2.21446	4.45176	0	
2.8353	-1.00389	1.69723	0	
2.8360	4.19271	-0.751234	0	
2.8367	5.10802	-0.445176	0	
2.8373	0.53147	0.472999	0	
2.8380	-1.59441	-1.36335	0	
2.8387	-0.38384	-2.28153	0	
2.8393	-0.0885784	-1.66941	0	
2.8400	-1.00389	-1.36335	0	
2.8407	-1.59441	-1.97547	0	
2.8413	-1.9192	-3.17188	0	
2.8420	-0.38384	-5.00823	0	
2.8427	2.65735	-4.09005	0	
2.8433	4.81276	-0.139117	0	
2.8440	3.89745	2.61541	0	
2.8447	0.826732	1.39117	0	
2.8453	-0.679101	0.779058	0	
2.8460	-1.59441	3.22752	0	
2.8467	-2.21446	3.83964	0	
2.8473	-0.679101	1.08512	0	
2.8480	0.53147	-0.751234	0	
2.8487	-0.0885784	-1.66941	0	
2.8493	0.236209	-2.55976	0	
2.8500	2.98214	-2.55976	0	
2.8507	3.89745	-2.28153	0	
2.8513	4.48797	-1.36335	0	
2.8520	5.40328	1.39117	0	
2.8527	3.57266	2.00329	0	
2.8533	1.15152	0.166941	0	
2.8540	2.98214	0.472999	0	
2.8547	2.98214	0.166941	0	
2.8553	-0.679101	-3.47794	0	
2.8560	-0.679101	-5.00823	0	
2.8567	2.65735	-4.09005	0	
2.8573	0.236209	-5.00823	0	
2.8580	-3.12977	-5.00823	0	
2.8587	-2.50972	-2.28153	0	
2.8593	-2.50972	-4.09005	0	
2.8600	-3.42503	-7.76275	0	
2.8607	-3.12977	-5.9264	0	
2.8613	-4.34034	-5.00823	0	
2.8620	-4.96039	-8.68093	0	
2.8627	-2.83451	-9.5991	0	
2.8633	-1.9192	-6.84458	0	
2.8640	-0.679101	-5.31429	0	
2.8647	1.44678	-5.62034	0	
2.8653	-0.38384	-3.78399	0	
2.8660	-3.42503	-0.139117	0	
2.8667	-2.83451	2.30935	0	
2.8673	-3.12977	0.779058	0	
2.8680	-4.66513	-1.05729	0	
2.8687	-4.34034	-0.445176	0	
2.8693	-4.34034	0.166941	0	
2.8700	-5.8757	0.472999	0	
2.8707	-4.34034	2.30935	0	
2.8713	-4.34034	2.61541	0	
2.8720	-5.58044	1.69723	0	
2.8727	-3.12977	1.39117	0	
2.8733	0.826732	-0.139117	0	
2.8740	0.236209	-1.36335	0	
2.8747	-1.29915	-0.445176	0	
2.8753	0.826732	-0.751234	0	
2.8760	3.89745	-1.66941	0	
2.8767	3.2774	-0.139117	0	
2.8773	1.15152	-0.751234	0	
2.8780	0.236209	-3.47794	0	
2.8787	-1.00389	-1.36335	0	
2.8793	-2.50972	-0.445176	0	
2.8800	-2.50972	-4.39611	0	
2.8807	-2.83451	-5.00823	0	
2.8813	-3.12977	-2.55976	0	
2.8820	-1.59441	-3.17188	0	
2.8827	-1.00389	-1.36335	0	
2.8833	-2.50972	4.75782	0	
2.8840	-2.83451	5.98205	0	
2.8847	-4.96039	3.22752	0	
2.8853	-6.17096	0.166941	0	
2.8860	-3.42503	-1.66941	0	
2.8867	-2.50972	-0.445176	0	
2.8873	-4.34034	1.08512	0	
2.8880	-2.83451	1.39117	0	
2.8887	-2.21446	3.22752	0	
2.8893	-4.96039	5.36993	0	
2.8900	-3.42503	3.83964	0	
2.8907	-1.59441	3.83964	0	
2.8913	-5.8757	5.06387	0	
2.8920	-7.41106	3.83964	0	
2.8927	-3.42503	3.22752	0	
2.8933	-1.29915	4.75782	0	
2.8940	-0.0885784	3.53358	0	
2.8947	2.06683	0.166941	0	
2.8953	1.15152	-1.97547	0	
2.8960	2.06683	-1.36335	0	
2.8967	4.81276	-0.139117	0	
2.8973	3.2774	-1.36335	0	
2.8980	1.44678	-4.70217	0	
2.8987	4.81276	-3.17188	0	
2.8993	4.19271	0.472999	0	
2.9000	-0.679101	1.39117	0	
2.9007	-0.0885784	1.39117	0	
2.9013	2.65735	1.08512	0	
2.9020	0.53147	-1.36335	0	
2.9027	-0.679101	-2.28153	0	
2.9033	-0.38384	0.472999	0	
2.9040	-2.50972	2.61541	0	
2.9047	-5.58044	2.61541	0	
2.9053	-5.58044	4.1457	0	
2.9060	-3.12977	4.45176	0	
2.9067	-1.00389	1.08512	0	
2.9073	-1.59441	0.472999	0	
2.9080	-5.25565	3.83964	0	
2.9087	-7.08627	4.75782	0	
2.9093	-5.58044	4.75782	0	
2.9100	-3.12977	6.28811	0	
2.9107	-2.50972	4.1457	0	
2.9113	-2.50972	0.472999	0	
2.9120	-2.50972	0.472999	0	
2.9127	-0.679101	0.472999	0	
2.9133	0.236209	0.472999	0	
2.9140	-0.0885784	2.30935	0	
2.9147	0.826732	1.69723	0	
2.9153	1.74204	-0.445176	0	
2.9160	1.15152	0.472999	0	
2.9167	0.53147	0.166941	0	
2.9173	-0.679101	-2.86582	0	
2.9180	-2.83451	-1.97547	0	
2.9187	-3.12977	1.39117	0	
2.9193	-0.679101	-0.139117	0	
2.9200	0.53147	-3.47794	0	
2.9207	2.06683	-3.78399	0	
2.9213	4.48797	-4.09005	0	
