0.0000	-1.24872	-0.197509	1
0.0007	-1.5609	1.92571	0	
0.0013	-0.343398	1.33318	0	
0.0020	-0.93654	-0.493772	0	
0.0027	-2.7784	1.33318	0	
0.0033	-3.37154	3.16014	0	
0.0040	-3.37154	2.86388	0	
0.0047	-2.46622	2.51824	0	
0.0053	-1.5609	0.0987544	0	
0.0060	-2.7784	-4.19706	0	
0.0067	-5.21341	-4.19706	0	
0.0073	-4.62026	-2.02446	0	
0.0080	-3.37154	-1.43194	0	
0.0087	-4.30808	0.395018	0	
0.0093	-5.21341	2.51824	0	
0.0100	-3.37154	4.04893	0	
0.0107	-1.5609	4.9871	0	
0.0113	-1.5609	4.9871	0	
0.0120	-0.62436	4.9871	0	
0.0127	3.02815	5.87589	0	
0.0133	4.83879	4.04893	0	
0.0140	3.93347	1.62945	0	
0.0147	3.93347	3.4564	0	
0.0153	4.83879	3.4564	0	
0.0160	3.93347	-1.43194	0	
0.0167	3.02815	-2.66637	0	
0.0173	5.15097	1.03692	0	
0.0180	7.58597	2.22197	0	
0.0187	6.99283	2.22197	0	
0.0193	4.55783	4.04893	0	
0.0200	3.93347	4.39457	0	
0.0207	6.36847	-0.493772	0	
0.0213	10.3332	-4.19706	0	
0.0220	11.8628	-1.43194	0	
0.0227	8.83469	0.395018	0	
0.0233	3.62129	-0.839412	0	
0.0240	1.49846	1.03692	0	
0.0247	3.02815	2.22197	0	
0.0253	3.02815	-1.13568	0	
0.0260	2.09161	-2.32073	0	
0.0267	3.02815	0.395018	0	
0.0273	2.71597	-1.43194	0	
0.0280	1.18628	-6.02402	0	
0.0287	2.71597	-5.08585	0	
0.0293	3.34033	-2.96263	0	
0.0300	0.874104	-4.19706	0	
0.0307	1.81064	-4.19706	0	
0.0313	4.83879	-4.19706	0	
0.0320	4.55783	-5.08585	0	
0.0327	3.02815	-4.19706	0	
0.0333	3.02815	-1.43194	0	
0.0340	3.93347	-0.493772	0	
0.0347	4.55783	-1.43194	0	
0.0353	3.93347	-1.7282	0	
0.0360	3.34033	-1.43194	0	
0.0367	5.46315	-0.197509	0	
0.0373	6.68065	0.395018	0	
0.0380	4.83879	-0.493772	0	
0.0387	5.46315	-0.493772	0	
0.0393	6.99283	2.22197	0	
0.0400	4.24565	2.22197	0	
0.0407	2.40379	-1.43194	0	
0.0413	4.24565	-1.43194	0	
0.0420	4.55783	0.691281	0	
0.0427	2.71597	0.395018	0	
0.0433	2.40379	1.33318	0	
0.0440	2.09161	4.04893	0	
0.0447	1.18628	2.51824	0	
0.0453	3.02815	-1.43194	0	
0.0460	4.83879	-3.25889	0	
0.0467	3.62129	-3.55516	0	
0.0473	2.09161	-3.85142	0	
0.0480	3.34033	-3.85142	0	
0.0487	3.93347	-5.08585	0	
0.0493	2.09161	-7.50533	0	
0.0500	1.81064	-8.14724	0	
0.0507	1.81064	-7.85097	0	
0.0513	-0.62436	-8.14724	0	
0.0520	-1.87308	-10.2705	0	
0.0527	1.18628	-11.5049	0	
0.0533	-0.031218	-7.85097	0	
0.0540	-6.43091	0.0987544	0	
0.0547	-7.96059	1.33318	0	
0.0553	-5.21341	-2.96263	0	
0.0560	-6.43091	-1.7282	0	
0.0567	-6.11873	1.92571	0	
0.0573	-2.15404	1.33318	0	
0.0580	-2.7784	1.33318	0	
0.0587	-5.52559	4.39457	0	
0.0593	-4.62026	4.69083	0	
0.0600	-5.52559	1.33318	0	
0.0607	-7.64841	-1.13568	0	
0.0613	-6.11873	-2.66637	0	
0.0620	-4.62026	-3.55516	0	
0.0627	-5.83777	-2.32073	0	
0.0633	-4.62026	-1.43194	0	
0.0640	-4.30808	-0.493772	0	
0.0647	-6.74309	4.9871	0	
0.0653	-6.11873	8.64101	0	
0.0660	-2.46622	6.51779	0	
0.0667	-0.93654	4.9871	0	
0.0673	-2.15404	5.87589	0	
0.0680	-3.9959	4.9871	0	
0.0687	-3.68372	4.04893	0	
0.0693	-2.7784	4.04893	0	
0.0700	-4.30808	2.22197	0	
0.0707	-4.30808	-2.02446	0	
0.0713	0.280962	-6.32028	0	
0.0720	3.02815	-9.38167	0	
0.0727	2.09161	-9.03603	0	
0.0733	3.02815	-7.85097	0	
0.0740	5.46315	-6.91281	0	
0.0747	5.15097	-5.08585	0	
0.0753	3.02815	-4.19706	0	
0.0760	2.09161	-2.32073	0	
0.0767	2.40379	1.62945	0	
0.0773	2.09161	4.04893	0	
0.0780	-0.031218	3.75267	0	
0.0787	-0.62436	4.04893	0	
0.0793	1.81064	2.22197	0	
0.0800	3.02815	-1.7282	0	
0.0807	1.18628	-0.493772	0	
0.0813	1.81064	4.9871	0	
0.0820	2.71597	7.11032	0	
0.0827	-2.15404	6.22153	0	
0.0833	-7.36745	4.04893	0	
0.0840	-7.64841	-0.839412	0	
0.0847	-7.05527	-6.02402	0	
0.0853	-7.05527	-6.91281	0	
0.0860	-6.11873	-4.49332	0	
0.0867	-7.36745	-1.43194	0	
0.0873	-9.17809	3.75267	0	
0.0880	-6.11873	7.75222	0	
0.0887	-4.30808	4.9871	0	
0.0893	-6.43091	-0.493772	0	
0.0900	-5.52559	1.33318	0	
0.0907	-2.7784	6.51779	0	
0.0913	-2.7784	4.9871	0	
0.0920	-3.37154	1.33318	0	
0.0927	-3.37154	3.16014	0	
0.0933	-4.30808	4.39457	0	
0.0940	-3.37154	3.4564	0	
0.0947	-2.7784	4.04893	0	
0.0953	-2.46622	3.75267	0	
0.0960	-0.93654	2.51824	0	
0.0967	-0.62436	2.22197	0	
0.0973	0.280962	1.92571	0	
0.0980	2.09161	1.92571	0	
0.0987	2.09161	2.51824	0	
0.0993	1.18628	1.03692	0	
0.1000	3.93347	-0.493772	0	
0.1007	4.83879	0.395018	0	
0.1013	1.49846	-1.13568	0	
0.1020	-0.62436	-1.43194	0	
0.1027	-0.62436	2.22197	0	
0.1033	-0.031218	2.51824	0	
0.1040	1.49846	-0.839412	0	
0.1047	1.81064	-1.43194	0	
0.1053	-1.87308	-0.839412	0	
0.1060	-3.9959	-2.96263	0	
0.1067	-2.46622	-1.43194	0	
0.1073	-1.87308	1.62945	0	
0.1080	-3.68372	-0.493772	0	
0.1087	-3.37154	-2.02446	0	
0.1093	-2.15404	1.33318	0	
0.1100	-2.46622	1.92571	0	
0.1107	-2.46622	-0.839412	0	
0.1113	-0.343398	-2.32073	0	
0.1120	-1.24872	-4.78959	0	
0.1127	-2.46622	-7.85097	0	
0.1133	-0.031218	-6.91281	0	
0.1140	2.09161	-4.19706	0	
0.1147	0.593142	-2.66637	0	
0.1153	-0.62436	-0.493772	0	
0.1160	-0.62436	-0.197509	0	
0.1167	-1.24872	-2.66637	0	
0.1173	-1.87308	-4.19706	0	
0.1180	-1.87308	-2.66637	0	
0.1187	-2.46622	-0.493772	0	
0.1193	-3.9959	0.395018	0	
0.1200	-3.09058	-1.43194	0	
0.1207	-0.93654	-4.19706	0	
0.1213	-3.09058	-3.25889	0	
0.1220	-3.37154	-0.197509	0	
0.1227	1.81064	1.33318	0	
0.1233	3.02815	0.395018	0	
0.1240	0.874104	-1.13568	0	
0.1247	2.09161	-3.25889	0	
0.1253	3.62129	-4.49332	0	
0.1260	3.93347	-3.25889	0	
0.1267	5.77533	-2.02446	0	
0.1273	4.55783	-3.25889	0	
0.1280	1.18628	-5.08585	0	
0.1287	2.09161	-3.25889	0	
0.1293	3.93347	-1.43194	0	
0.1300	3.02815	0.395018	0	
0.1307	2.40379	2.86388	0	
0.1313	0.280962	2.86388	0	
0.1320	-0.62436	-0.839412	0	
0.1327	2.71597	-1.43194	0	
0.1333	4.83879	0.0987544	0	
0.1340	3.34033	-0.493772	0	
0.1347	2.09161	-1.13568	0	
0.1353	1.18628	-0.493772	0	
0.1360	2.09161	-0.493772	0	
0.1367	4.83879	1.62945	0	
0.1373	3.62129	4.04893	0	
0.1380	2.40379	2.86388	0	
0.1387	5.15097	1.62945	0	
0.1393	6.68065	2.86388	0	
0.1400	6.36847	1.33318	0	
0.1407	6.68065	0.0987544	0	
0.1413	6.99283	0.0987544	0	
0.1420	7.58597	-2.66637	0	
0.1427	7.58597	-4.49332	0	
0.1433	3.62129	-2.02446	0	
0.1440	1.81064	-1.43194	0	
0.1447	6.36847	-3.25889	0	
0.1453	8.21033	-3.25889	0	
0.1460	4.55783	-4.78959	0	
0.1467	3.62129	-6.91281	0	
0.1473	6.08751	-5.08585	0	
0.1480	6.08751	-5.67838	0	
0.1487	3.62129	-8.73976	0	
0.1493	3.02815	-6.02402	0	
0.1500	5.15097	-3.25889	0	
0.1507	5.77533	-4.78959	0	
0.1513	4.55783	-3.85142	0	
0.1520	5.46315	-2.32073	0	
0.1527	5.77533	-2.96263	0	
0.1533	2.71597	0.0987544	0	
0.1540	2.09161	3.16014	0	
0.1547	4.24565	2.86388	0	
0.1553	3.34033	5.28336	0	
0.1560	1.49846	9.23353	0	
0.1567	3.02815	7.75222	0	
0.1573	3.02815	7.40658	0	
0.1580	0.280962	7.75222	0	
0.1587	0.280962	2.51824	0	
0.1593	2.71597	-0.493772	0	
0.1600	3.62129	3.16014	0	
0.1607	3.62129	4.9871	0	
0.1613	3.02815	4.04893	0	
0.1620	0.280962	3.75267	0	
0.1627	-0.031218	1.33318	0	
0.1633	1.81064	-1.13568	0	
0.1640	1.18628	-1.7282	0	
0.1647	-1.5609	-3.25889	0	
0.1653	-4.30808	-2.32073	0	
0.1660	-6.11873	1.92571	0	
0.1667	-6.43091	3.16014	0	
0.1673	-6.43091	2.22197	0	
0.1680	-6.11873	2.22197	0	
0.1687	-4.30808	-0.839412	0	
0.1693	-4.30808	-3.55516	0	
0.1700	-5.52559	-1.7282	0	
0.1707	-6.11873	-0.197509	0	
0.1713	-7.05527	-0.493772	0	
0.1720	-7.05527	0.395018	0	
0.1727	-6.43091	0.395018	0	
0.1733	-7.64841	-1.7282	0	
0.1740	-8.27277	-3.55516	0	
0.1747	-6.11873	-6.02402	0	
0.1753	-7.05527	-5.38211	0	
0.1760	-9.17809	-1.43194	0	
0.1767	-7.64841	0.0987544	0	
0.1773	-6.11873	-0.197509	0	
0.1780	-6.74309	1.03692	0	
0.1787	-4.30808	-0.493772	0	
0.1793	-2.15404	-2.32073	0	
0.1800	-2.7784	-1.13568	0	
0.1807	-3.37154	1.33318	0	
0.1813	-4.90123	2.22197	0	
0.1820	-7.05527	2.51824	0	
0.1827	-3.9959	1.62945	0	
0.1833	-0.031218	0.0987544	0	
0.1840	-1.24872	0.395018	0	
0.1847	-1.5609	2.22197	0	
0.1853	0.874104	4.04893	0	
0.1860	1.18628	5.57962	0	
0.1867	-0.343398	4.9871	0	
0.1873	0.280962	2.22197	0	
0.1880	1.18628	0.691281	0	
0.1887	2.09161	2.86388	0	
0.1893	4.24565	3.4564	0	
0.1900	4.24565	-1.13568	0	
0.1907	1.81064	-5.38211	0	
0.1913	1.81064	-6.02402	0	
0.1920	4.83879	-5.38211	0	
0.1927	6.08751	-2.96263	0	
0.1933	5.46315	2.22197	0	
0.1940	3.93347	1.92571	0	
0.1947	1.18628	0.0987544	0	
0.1953	-0.62436	3.75267	0	
0.1960	-0.62436	6.81405	0	
0.1967	-0.62436	5.57962	0	
0.1973	-3.37154	4.04893	0	
0.1980	-5.83777	3.75267	0	
0.1987	-6.43091	4.04893	0	
0.1993	-4.30808	5.28336	0	
0.2000	-2.7784	4.9871	0	
0.2007	-4.62026	4.04893	0	
0.2013	-5.83777	3.16014	0	
0.2020	-2.46622	0.691281	0	
0.2027	0.593142	2.22197	0	
0.2033	-0.93654	7.75222	0	
0.2040	-2.7784	8.93727	0	
0.2047	-2.7784	4.04893	0	
0.2053	-1.24872	2.51824	0	
0.2060	0.280962	4.04893	0	
0.2067	-0.031218	3.16014	0	
0.2073	-1.87308	0.395018	0	
0.2080	-1.5609	-1.43194	0	
0.2087	-1.5609	-1.43194	0	
0.2093	-2.15404	-1.43194	0	
0.2100	-1.24872	-3.25889	0	
0.2107	-0.031218	-4.78959	0	
0.2113	-0.62436	-4.19706	0	
0.2120	1.18628	-1.43194	0	
0.2127	4.24565	1.33318	0	
0.2133	3.93347	-0.197509	0	
0.2140	4.55783	-4.49332	0	
0.2147	6.68065	-7.50533	0	
0.2153	5.15097	-6.91281	0	
0.2160	1.81064	-4.19706	0	
0.2167	3.02815	-2.96263	0	
0.2173	4.83879	-4.78959	0	
0.2180	4.24565	-5.38211	0	
0.2187	3.93347	-4.19706	0	
0.2193	4.83879	-5.08585	0	
0.2200	5.46315	-4.78959	0	
0.2207	5.77533	-1.43194	0	
0.2213	6.08751	0.0987544	0	
0.2220	5.77533	-0.493772	0	
0.2227	3.93347	-0.493772	0	
0.2233	1.18628	0.395018	0	
0.2240	0.280962	1.62945	0	
0.2247	2.09161	2.86388	0	
0.2253	2.09161	2.51824	0	
0.2260	0.593142	1.62945	0	
0.2267	0.593142	2.22197	0	
0.2273	1.49846	1.33318	0	
0.2280	1.81064	-2.32073	0	
0.2287	3.02815	-4.49332	0	
0.2293	4.55783	-4.49332	0	
0.2300	3.02815	-5.38211	0	
0.2307	1.18628	-5.67838	0	
0.2313	2.09161	-4.19706	0	
0.2320	3.34033	-4.19706	0	
0.2327	2.09161	-3.25889	0	
0.2333	1.81064	-1.43194	0	
0.2340	2.09161	-2.32073	0	
0.2347	0.280962	-4.19706	0	
0.2353	-0.62436	-2.32073	0	
0.2360	1.18628	-0.493772	0	
0.2367	1.18628	-0.493772	0	
0.2373	-1.5609	-0.197509	0	
0.2380	-3.37154	-1.43194	0	
0.2387	-3.09058	-3.25889	0	
0.2393	-3.68372	-1.13568	0	
0.2400	-6.11873	2.51824	0	
0.2407	-7.96059	1.92571	0	
0.2413	-8.86591	1.33318	0	
0.2420	-8.86591	4.04893	0	
0.2427	-8.58495	6.81405	0	
0.2433	-8.58495	5.87589	0	
0.2440	-10.1146	4.04893	0	
0.2447	-12.5496	3.75267	0	
0.2453	-13.7671	4.04893	0	
0.2460	-12.5496	2.22197	0	
0.2467	-9.80245	1.33318	0	
0.2473	-9.80245	1.33318	0	
0.2480	-11.6131	1.33318	0	
0.2487	-11.9253	0.0987544	0	
0.2493	-9.80245	-1.7282	0	
0.2500	-8.27277	-4.19706	0	
0.2507	-7.05527	-6.32028	0	
0.2513	-5.21341	-6.61654	0	
0.2520	-5.21341	-6.61654	0	
0.2527	-5.21341	-6.91281	0	
0.2533	-4.30808	-4.49332	0	
0.2540	-4.30808	-1.7282	0	
0.2547	-3.37154	-3.55516	0	
0.2553	-1.87308	-5.08585	0	
0.2560	-2.46622	-2.32073	0	
0.2567	-3.37154	-1.43194	0	
0.2573	-0.93654	-2.32073	0	
0.2580	1.18628	-0.839412	0	
0.2587	0.280962	-1.43194	0	
0.2593	-0.62436	-3.85142	0	
0.2600	-1.5609	-0.197509	0	
0.2607	-1.87308	2.22197	0	
0.2613	-0.343398	-2.02446	0	
0.2620	3.02815	-2.02446	0	
0.2627	4.55783	3.16014	0	
0.2633	3.93347	3.4564	0	
0.2640	2.40379	3.75267	0	
0.2647	1.49846	6.81405	0	
0.2653	2.09161	5.57962	0	
0.2660	3.62129	0.395018	0	
0.2667	4.55783	-1.43194	0	
0.2673	3.02815	-1.7282	0	
0.2680	1.49846	-3.25889	0	
0.2687	3.62129	-6.91281	0	
0.2693	6.08751	-9.38167	0	
0.2700	2.71597	-5.67838	0	
0.2707	-1.24872	-1.43194	0	
0.2713	-0.031218	-1.43194	0	
0.2720	1.18628	-0.197509	0	
0.2727	-0.031218	1.92571	0	
0.2733	0.280962	0.691281	0	
0.2740	2.09161	2.22197	0	
0.2747	2.40379	5.87589	0	
0.2753	1.81064	4.04893	0	
0.2760	-0.343398	2.51824	0	
0.2767	-0.031218	3.4564	0	
0.2773	3.02815	1.03692	0	
0.2780	3.93347	-2.32073	0	
0.2787	3.62129	-0.839412	0	
0.2793	5.46315	0.691281	0	
0.2800	4.83879	-0.493772	0	
0.2807	3.93347	-1.13568	0	
0.2813	6.68065	0.0987544	0	
0.2820	7.58597	1.92571	0	
0.2827	5.46315	4.39457	0	
0.2833	5.46315	4.9871	0	
0.2840	6.36847	2.22197	0	
0.2847	6.08751	1.33318	0	
0.2853	5.77533	2.86388	0	
0.2860	3.93347	1.33318	0	
0.2867	3.02815	-1.43194	0	
0.2873	3.93347	0.395018	0	
0.2880	2.09161	3.75267	0	
0.2887	0.874104	1.03692	0	
0.2893	3.62129	-4.49332	0	
0.2900	3.93347	-6.32028	0	
0.2907	1.18628	-3.85142	0	
0.2913	2.09161	-1.13568	0	
0.2920	3.02815	0.395018	0	
0.2927	0.280962	1.62945	0	
0.2933	-0.031218	3.16014	0	
0.2940	1.81064	4.9871	0	
0.2947	1.18628	4.39457	0	
0.2953	1.81064	0.395018	0	
0.2960	6.68065	-2.32073	0	
0.2967	6.68065	1.03692	0	
0.2973	1.18628	3.75267	0	
0.2980	-0.62436	0.691281	0	
0.2987	1.81064	-0.839412	0	
0.2993	1.49846	1.33318	0	
0.3000	1.18628	1.33318	0	
0.3007	3.02815	0.0987544	0	
0.3013	3.02815	2.22197	0	
0.3020	2.71597	4.39457	0	
0.3027	2.09161	4.39457	0	
0.3033	2.09161	3.16014	0	
0.3040	4.83879	2.22197	0	
0.3047	6.08751	2.22197	0	
0.3053	3.02815	4.04893	0	
0.3060	0.280962	6.81405	0	
0.3067	-0.62436	8.93727	0	
0.3073	-2.46622	6.51779	0	
0.3080	-2.46622	0.0987544	0	
0.3087	0.280962	-3.85142	0	
0.3093	1.18628	-4.19706	0	
0.3100	-1.5609	-5.08585	0	
0.3107	-2.7784	-4.78959	0	
0.3113	-2.46622	-2.32073	0	
0.3120	-2.7784	-1.7282	0	
0.3127	-3.9959	-2.96263	0	
0.3133	-3.37154	-2.96263	0	
0.3140	-2.15404	-2.32073	0	
0.3147	-0.93654	-1.7282	0	
0.3153	-0.031218	-2.66637	0	
0.3160	-1.24872	-5.38211	0	
0.3167	-3.37154	-5.08585	0	
0.3173	-3.37154	-1.43194	0	
0.3180	-2.46622	-2.02446	0	
0.3187	-4.90123	-4.78959	0	
0.3193	-7.05527	-2.96263	0	
0.3200	-5.83777	-2.32073	0	
0.3207	-2.46622	-5.08585	0	
0.3213	-1.5609	-4.19706	0	
0.3220	-3.09058	-1.43194	0	
0.3227	-5.21341	-3.25889	0	
0.3233	-6.74309	-3.25889	0	
0.3240	-8.58495	0.395018	0	
0.3247	-10.7078	2.51824	0	
0.3253	-10.7078	3.16014	0	
0.3260	-7.05527	4.39457	0	
0.3267	-4.30808	1.62945	0	
0.3273	-3.68372	-3.25889	0	
0.3280	-2.15404	-5.08585	0	
0.3287	-0.62436	-4.19706	0	
0.3293	-2.7784	-4.19706	0	
0.3300	-5.52559	-3.85142	0	
0.3307	-3.9959	-3.85142	0	
0.3313	-0.62436	-7.20907	0	
0.3320	-1.24872	-11.5049	0	
0.3327	-2.46622	-13.0356	0	
0.3333	-1.5609	-13.6281	0	
0.3340	-1.5609	-14.5663	0	
0.3347	-3.37154	-10.5667	0	
0.3353	-3.09058	-1.13568	0	
0.3360	-0.62436	4.9871	0	
0.3367	-0.93654	4.9871	0	
0.3373	-1.87308	1.62945	0	
0.3380	1.18628	-1.7282	0	
0.3387	4.24565	-1.43194	0	
0.3393	1.49846	0.691281	0	
0.3400	-2.46622	-1.13568	0	
0.3407	-1.5609	-2.02446	0	
0.3413	1.18628	2.51824	0	
0.3420	1.81064	5.28336	0	
0.3427	1.49846	3.16014	0	
0.3433	2.40379	2.86388	0	
0.3440	2.40379	3.16014	0	
0.3447	1.18628	1.62945	0	
0.3453	-0.031218	2.86388	0	
0.3460	-0.62436	4.39457	0	
0.3467	-0.343398	1.92571	0	
0.3473	1.81064	0.0987544	0	
0.3480	3.34033	2.86388	0	
0.3487	2.40379	6.81405	0	
0.3493	1.49846	7.75222	0	
0.3500	2.40379	6.22153	0	
0.3507	3.62129	3.16014	0	
0.3513	3.93347	0.691281	0	
0.3520	4.83879	-0.493772	0	
0.3527	5.77533	-2.32073	0	
0.3533	4.24565	-2.66637	0	
0.3540	3.34033	-0.197509	0	
0.3547	4.83879	0.395018	0	
0.3553	5.46315	-2.32073	0	
0.3560	4.83879	-2.96263	0	
0.3567	5.46315	-0.197509	0	
0.3573	4.55783	1.62945	0	
0.3580	1.49846	2.86388	0	
0.3587	0.280962	4.04893	0	
0.3593	-0.031218	2.86388	0	
0.3600	0.280962	0.395018	0	
0.3607	0.280962	1.33318	0	
0.3613	-1.24872	2.86388	0	
0.3620	-2.46622	1.33318	0	
0.3627	-3.37154	0.395018	0	
0.3633	-6.43091	-0.493772	0	
0.3640	-8.86591	-0.839412	0	
0.3647	-7.36745	1.62945	0	
0.3653	-6.74309	3.16014	0	
0.3660	-7.05527	0.395018	0	
0.3667	-3.68372	-2.02446	0	
0.3673	-2.46622	-1.43194	0	
0.3680	-6.43091	-1.43194	0	
0.3687	-7.64841	-0.197509	0	
0.3693	-3.9959	4.04893	0	
0.3700	-0.62436	5.28336	0	
0.3707	-0.343398	3.4564	0	
0.3713	-0.93654	1.03692	0	
0.3720	-1.5609	-2.32073	0	
0.3727	-1.5609	-4.49332	0	
0.3733	-1.5609	-4.19706	0	
0.3740	2.09161	-5.08585	0	
0.3747	6.08751	-6.02402	0	
0.3753	5.77533	-4.19706	0	
0.3760	3.02815	-2.02446	0	
0.3767	3.62129	-2.32073	0	
0.3773	5.77533	-2.66637	0	
0.3780	6.68065	-2.02446	0	
0.3787	7.30501	1.92571	0	
0.3793	6.08751	5.57962	0	
0.3800	3.93347	1.33318	0	
0.3807	3.93347	-6.02402	0	
0.3813	5.15097	-6.32028	0	
0.3820	4.24565	-2.32073	0	
0.3827	3.62129	1.03692	0	
0.3833	6.08751	3.16014	0	
0.3840	6.08751	1.92571	0	
0.3847	1.18628	-2.32073	0	
0.3853	-0.343398	-3.25889	0	
0.3860	2.40379	-0.493772	0	
0.3867	1.49846	-0.839412	0	
0.3873	-0.62436	-6.02402	0	
0.3880	2.09161	-9.38167	0	
0.3887	3.93347	-6.02402	0	
0.3893	1.18628	-3.25889	0	
0.3900	0.593142	-5.67838	0	
0.3907	2.71597	-6.32028	0	
0.3913	2.40379	-1.7282	0	
0.3920	-0.031218	1.33318	0	
0.3927	-2.46622	0.395018	0	
0.3933	-3.37154	-1.43194	0	
0.3940	-3.37154	0.395018	0	
0.3947	-5.21341	2.86388	0	
0.3953	-7.05527	2.51824	0	
0.3960	-6.74309	1.33318	0	
0.3967	-6.11873	3.4564	0	
0.3973	-5.83777	5.87589	0	
0.3980	-5.21341	6.22153	0	
0.3987	-6.11873	6.81405	0	
0.3993	-6.11873	6.51779	0	
0.4000	-3.37154	4.69083	0	
0.4007	-2.46622	3.4564	0	
0.4013	-4.30808	0.395018	0	
0.4020	-3.37154	-2.96263	0	
0.4027	-0.031218	-0.493772	0	
0.4033	1.49846	2.51824	0	
0.4040	1.18628	3.16014	0	
0.4047	0.280962	5.87589	0	
0.4053	0.593142	8.04848	0	
0.4060	-0.031218	4.04893	0	
0.4067	-1.5609	-0.197509	0	
0.4073	-1.5609	-2.66637	0	
0.4080	-0.93654	-6.32028	0	
0.4087	-2.46622	-7.20907	0	
0.4093	-1.5609	-4.49332	0	
0.4100	0.593142	-5.08585	0	
0.4107	-0.031218	-7.20907	0	
0.4113	-1.5609	-4.49332	0	
0.4120	-1.5609	-1.43194	0	
0.4127	-2.46622	-2.32073	0	
0.4133	-3.9959	-1.43194	0	
0.4140	-4.30808	1.33318	0	
0.4147	-3.9959	1.03692	0	
0.4153	-3.9959	-0.493772	0	
0.4160	-3.68372	-0.197509	0	
0.4167	-1.87308	-0.493772	0	
0.4173	0.280962	-0.197509	0	
0.4180	0.593142	2.22197	0	
0.4187	0.280962	2.51824	0	
0.4193	0.280962	1.03692	0	
0.4200	-1.87308	1.33318	0	
0.4207	-3.68372	0.395018	0	
0.4213	-2.46622	-1.13568	0	
0.4220	-1.5609	0.395018	0	
0.4227	-0.62436	1.62945	0	
0.4233	0.593142	0.395018	0	
0.4240	-0.93654	2.22197	0	
0.4247	-3.09058	5.57962	0	
0.4253	-0.93654	5.57962	0	
0.4260	1.18628	4.69083	0	
0.4267	2.09161	6.81405	0	
0.4273	3.62129	8.64101	0	
0.4280	4.24565	3.4564	0	
0.4287	3.02815	-6.91281	0	
0.4293	1.49846	-11.2086	0	
0.4300	2.40379	-7.85097	0	
0.4307	4.24565	-5.08585	0	
0.4313	3.34033	-6.91281	0	
0.4320	0.593142	-8.14724	0	
0.4327	0.593142	-7.85097	0	
0.4333	0.280962	-7.20907	0	
0.4340	-2.46622	-4.78959	0	
0.4347	-1.5609	-2.32073	0	
0.4353	0.280962	-1.7282	0	
0.4360	-1.87308	-2.32073	0	
0.4367	-2.15404	-1.43194	0	
0.4373	1.49846	2.22197	0	
0.4380	3.62129	4.69083	0	
0.4387	3.34033	4.39457	0	
0.4393	2.09161	4.04893	0	
0.4400	0.280962	2.22197	0	
0.4407	2.09161	-2.66637	0	
0.4413	3.93347	-5.67838	0	
0.4420	0.874104	-5.08585	0	
0.4427	-0.62436	-2.32073	0	
0.4433	1.18628	-0.197509	0	
0.4440	0.874104	0.0987544	0	
0.4447	0.593142	-0.839412	0	
0.4453	1.49846	-1.13568	0	
0.4460	0.874104	-1.7282	0	
0.4467	1.49846	-2.02446	0	
0.4473	2.40379	-1.43194	0	
0.4480	-0.93654	-3.25889	0	
0.4487	-2.46622	-6.02402	0	
0.4493	-0.031218	-4.19706	0	
0.4500	-1.5609	-0.197509	0	
0.4507	-4.90123	1.62945	0	
0.4513	-4.30808	1.33318	0	
0.4520	-4.30808	-0.493772	0	
0.4527	-4.90123	-2.32073	0	
0.4533	-3.37154	-0.493772	0	
0.4540	-2.7784	3.16014	0	
0.4547	-3.09058	3.4564	0	
0.4553	-2.15404	3.16014	0	
0.4560	-3.68372	4.39457	0	
0.4567	-5.83777	3.75267	0	
0.4573	-4.30808	1.92571	0	
0.4580	-2.46622	2.86388	0	
0.4587	-2.46622	4.04893	0	
0.4593	-1.24872	2.22197	0	
0.4600	-1.5609	0.0987544	0	
0.4607	-4.30808	-2.02446	0	
0.4613	-5.21341	-2.96263	0	
0.4620	-4.62026	1.33318	0	
0.4627	-3.37154	4.9871	0	
0.4633	-1.5609	3.16014	0	
0.4640	-1.87308	0.395018	0	
0.4647	-3.68372	1.92571	0	
0.4653	-3.09058	4.69083	0	
0.4660	-3.37154	6.51779	0	
0.4667	-6.11873	6.81405	0	
0.4673	-4.62026	4.9871	0	
0.4680	-1.24872	1.33318	0	
0.4687	-0.62436	-2.32073	0	
0.4693	-0.62436	-3.85142	0	
0.4700	0.280962	-1.43194	0	
0.4707	1.18628	1.03692	0	
0.4713	3.02815	1.03692	0	
0.4720	3.93347	2.22197	0	
0.4727	2.40379	5.87589	0	
0.4733	3.93347	5.87589	0	
0.4740	7.89815	0.395018	0	
0.4747	8.21033	-3.25889	0	
0.4753	6.08751	-0.493772	0	
0.4760	5.77533	4.9871	0	
0.4767	6.99283	7.75222	0	
0.4773	8.21033	8.64101	0	
0.4780	8.83469	7.75222	0	
0.4787	8.21033	4.9871	0	
0.4793	6.36847	4.04893	0	
0.4800	5.77533	3.75267	0	
0.4807	7.30501	0.395018	0	
0.4813	6.99283	-1.7282	0	
0.4820	3.62129	1.62945	0	
0.4827	2.09161	5.28336	0	
0.4833	3.62129	3.75267	0	
0.4840	2.40379	1.33318	0	
0.4847	-1.5609	1.62945	0	
0.4853	-1.24872	3.16014	0	
0.4860	2.09161	3.16014	0	
0.4867	0.874104	1.33318	0	
0.4873	-1.5609	-1.43194	0	
0.4880	1.18628	-4.49332	0	
0.4887	2.09161	-5.08585	0	
0.4893	-0.343398	-2.66637	0	
0.4900	2.09161	-1.43194	0	
0.4907	6.68065	-2.66637	0	
0.4913	4.83879	-2.96263	0	
0.4920	2.09161	-0.493772	0	
0.4927	3.34033	1.92571	0	
0.4933	1.49846	2.51824	0	
0.4940	-2.15404	2.22197	0	
0.4947	-0.031218	2.51824	0	
0.4953	2.09161	1.62945	0	
0.4960	0.593142	-1.13568	0	
0.4967	1.18628	1.03692	0	
0.4973	3.02815	5.28336	0	
0.4980	0.874104	4.04893	0	
0.4987	0.280962	2.22197	0	
0.4993	3.34033	4.9871	0	
0.5000	3.34033	6.22153	0	
0.5007	0.280962	4.9871	0	
0.5013	0.280962	2.22197	0	
0.5020	2.40379	-1.43194	0	
0.5027	2.40379	-0.493772	0	
0.5033	1.18628	4.69083	0	
0.5040	1.49846	4.39457	0	
0.5047	3.02815	0.691281	0	
0.5053	3.34033	-1.43194	0	
0.5060	3.02815	-6.32028	0	
0.5067	4.24565	-11.5049	0	
0.5073	3.93347	-10.863	0	
0.5080	0.874104	-9.67793	0	
0.5087	-0.031218	-9.67793	0	
0.5093	2.71597	-8.4435	0	
0.5100	3.02815	-7.85097	0	
0.5107	2.09161	-9.67793	0	
0.5113	3.34033	-9.67793	0	
0.5120	3.93347	-6.61654	0	
0.5127	2.71597	-2.96263	0	
0.5133	2.40379	-5.08585	0	
0.5140	2.09161	-10.5667	0	
0.5147	-0.031218	-10.863	0	
0.5153	-0.343398	-7.85097	0	
0.5160	1.18628	-4.19706	0	
0.5167	0.280962	0.395018	0	
0.5173	-2.15404	0.395018	0	
0.5180	-3.37154	-2.66637	0	
0.5187	-1.5609	-1.43194	0	
0.5193	1.49846	1.33318	0	
0.5200	1.18628	-1.13568	0	
0.5207	-0.93654	-2.32073	0	
0.5213	-1.5609	2.22197	0	
0.5220	-1.5609	4.9871	0	
0.5227	-0.343398	3.4564	0	
0.5233	0.593142	4.04893	0	
0.5240	-0.343398	6.22153	0	
0.5247	-1.24872	4.9871	0	
0.5253	-0.93654	1.03692	0	
0.5260	-1.24872	-0.839412	0	
0.5267	-1.87308	0.395018	0	
0.5273	-2.7784	-0.197509	0	
0.5280	-3.9959	-4.49332	0	
0.5287	-3.37154	-9.03603	0	
0.5293	-3.09058	-9.67793	0	
0.5300	-4.90123	-6.91281	0	
0.5307	-4.90123	-4.78959	0	
0.5313	-2.46622	-3.25889	0	
0.5320	-1.24872	-3.25889	0	
0.5327	0.280962	-6.02402	0	
0.5333	1.18628	-7.50533	0	
0.5340	-0.93654	-5.38211	0	
0.5347	-2.7784	-3.25889	0	
0.5353	-1.87308	-1.43194	0	
0.5360	-3.37154	2.22197	0	
0.5367	-6.43091	5.87589	0	
0.5373	-7.64841	6.51779	0	
0.5380	-6.11873	4.69083	0	
0.5387	-5.83777	1.62945	0	
0.5393	-7.05527	-0.197509	0	
0.5400	-7.96059	1.33318	0	
0.5407	-7.05527	4.39457	0	
0.5413	-5.21341	7.11032	0	
0.5420	-3.9959	7.11032	0	
0.5427	-4.30808	5.57962	0	
0.5433	-5.21341	4.9871	0	
0.5440	-4.90123	1.92571	0	
0.5447	-4.90123	-4.49332	0	
0.5453	-5.83777	-6.91281	0	
0.5460	-4.30808	-3.25889	0	
0.5467	-2.46622	-0.493772	0	
0.5473	-4.62026	-3.55516	0	
0.5480	-5.83777	-9.38167	0	
0.5487	-4.90123	-10.2705	0	
0.5493	-6.74309	-6.02402	0	
0.5500	-7.05527	-3.25889	0	
0.5507	-4.30808	-4.49332	0	
0.5513	-4.30808	-4.49332	0	
0.5520	-7.05527	-4.19706	0	
0.5527	-8.86591	-6.02402	0	
0.5533	-7.64841	-6.91281	0	
0.5540	-4.30808	-7.20907	0	
0.5547	-3.37154	-8.73976	0	
0.5553	-5.52559	-7.85097	0	
0.5560	-4.62026	-4.78959	0	
0.5567	-1.87308	-2.96263	0	
0.5573	-3.68372	-3.25889	0	
0.5580	-5.21341	-3.25889	0	
0.5587	-3.37154	-2.96263	0	
0.5593	-3.37154	-2.66637	0	
0.5600	-4.30808	-2.32073	0	
0.5607	-0.343398	-4.19706	0	
0.5613	2.71597	-7.20907	0	
0.5620	0.874104	-6.02402	0	
0.5627	0.280962	-2.32073	0	
0.5633	1.18628	-1.43194	0	
0.5640	1.18628	-1.13568	0	
0.5647	1.18628	1.92571	0	
0.5653	1.49846	2.86388	0	
0.5660	-1.5609	1.92571	0	
0.5667	-4.30808	1.33318	0	
0.5673	-2.7784	0.395018	0	
0.5680	-3.37154	2.22197	0	
0.5687	-5.83777	4.39457	0	
0.5693	-4.30808	1.62945	0	
0.5700	-2.46622	0.0987544	0	
0.5707	-0.343398	3.16014	0	
0.5713	2.71597	3.75267	0	
0.5720	2.09161	2.22197	0	
0.5727	-0.031218	4.04893	0	
0.5733	2.71597	4.39457	0	
0.5740	6.36847	2.51824	0	
0.5747	5.77533	3.75267	0	
0.5753	3.62129	7.75222	0	
0.5760	2.09161	8.64101	0	
0.5767	2.40379	7.75222	0	
0.5773	5.15097	7.75222	0	
0.5780	3.93347	8.34475	0	
0.5787	0.280962	5.57962	0	
0.5793	1.49846	1.62945	0	
0.5800	3.93347	1.03692	0	
0.5807	1.81064	1.03692	0	
0.5813	0.593142	1.03692	0	
0.5820	2.09161	1.62945	0	
0.5827	1.18628	1.03692	0	
0.5833	0.874104	0.395018	0	
0.5840	2.40379	0.691281	0	
0.5847	2.40379	-0.839412	0	
0.5853	2.09161	-4.19706	0	
0.5860	4.83879	-5.08585	0	
0.5867	5.77533	-4.19706	0	
0.5873	3.02815	-1.13568	0	
0.5880	1.49846	2.51824	0	
0.5887	3.02815	1.03692	0	
0.5893	3.93347	0.0987544	0	
0.5900	3.02815	4.69083	0	
0.5907	0.280962	4.9871	0	
0.5913	-0.031218	1.03692	0	
0.5920	1.81064	2.22197	0	
0.5927	1.81064	4.04893	0	
0.5933	0.874104	2.22197	0	
0.5940	2.09161	2.22197	0	
0.5947	2.71597	1.92571	0	
0.5953	1.18628	0.395018	0	
0.5960	2.40379	2.22197	0	
0.5967	5.15097	3.4564	0	
0.5973	5.77533	1.33318	0	
0.5980	4.83879	1.33318	0	
0.5987	3.02815	3.16014	0	
0.5993	1.18628	4.39457	0	
0.6000	0.874104	4.04893	0	
0.6007	2.09161	1.33318	0	
0.6013	3.02815	-0.839412	0	
0.6020	3.62129	0.395018	0	
0.6027	3.02815	1.03692	0	
0.6033	2.40379	-0.197509	0	
0.6040	2.40379	2.22197	0	
0.6047	2.09161	4.9871	0	
0.6053	2.40379	4.9871	0	
0.6060	2.40379	5.57962	0	
0.6067	1.18628	7.11032	0	
0.6073	0.280962	7.40658	0	
0.6080	-1.5609	7.75222	0	
0.6087	-5.21341	8.04848	0	
0.6093	-7.05527	6.81405	0	
0.6100	-6.11873	7.11032	0	
0.6107	-6.11873	4.69083	0	
0.6113	-5.83777	-4.19706	0	
0.6120	-4.62026	-9.67793	0	
0.6127	-3.9959	-6.02402	0	
0.6133	-2.7784	-1.43194	0	
0.6140	-1.5609	-0.493772	0	
0.6147	-2.7784	-2.96263	0	
0.6153	-1.87308	-5.08585	0	
0.6160	1.81064	-2.96263	0	
0.6167	0.874104	1.33318	0	
0.6173	-2.46622	0.395018	0	
0.6180	-1.87308	-1.13568	0	
0.6187	-3.09058	0.395018	0	
0.6193	-5.83777	0.691281	0	
0.6200	-2.15404	-0.493772	0	
0.6207	1.18628	-1.13568	0	
0.6213	-1.5609	-0.839412	0	
0.6220	-1.5609	0.395018	0	
0.6227	1.18628	-0.197509	0	
0.6233	-1.24872	-3.55516	0	
0.6240	-3.9959	-3.85142	0	
0.6247	-3.68372	-1.43194	0	
0.6253	-3.9959	-3.55516	0	
0.6260	-3.68372	-6.02402	0	
0.6267	-2.15404	-3.25889	0	
0.6273	-2.46622	-2.02446	0	
0.6280	-3.37154	-4.49332	0	
0.6287	-1.5609	-6.61654	0	
0.6293	0.280962	-6.61654	0	
0.6300	-1.24872	-4.49332	0	
0.6307	-1.24872	-1.43194	0	
0.6313	3.02815	-2.32073	0	
0.6320	5.46315	-4.19706	0	
0.6327	2.09161	-3.25889	0	
0.6333	-0.031218	0.395018	0	
0.6340	2.40379	1.92571	0	
0.6347	3.93347	-0.197509	0	
0.6353	1.18628	-2.32073	0	
0.6360	-1.24872	-0.493772	0	
0.6367	0.874104	0.691281	0	
0.6373	3.93347	-2.02446	0	
0.6380	3.34033	-1.7282	0	
0.6387	1.18628	1.03692	0	
0.6393	0.280962	0.395018	0	
0.6400	0.280962	-0.493772	0	
0.6407	-0.343398	0.395018	0	
0.6413	0.593142	2.22197	0	
0.6420	1.18628	2.51824	0	
0.6427	0.593142	-0.493772	0	
0.6433	1.18628	-5.08585	0	
0.6440	2.71597	-3.25889	0	
0.6447	2.40379	1.33318	0	
0.6453	0.593142	1.62945	0	
0.6460	0.280962	0.395018	0	
0.6467	0.593142	2.22197	0	
0.6473	-1.24872	1.33318	0	
0.6480	-3.9959	-3.25889	0	
0.6487	-3.37154	-4.49332	0	
0.6493	-1.5609	-4.19706	0	
0.6500	-1.87308	-6.02402	0	
0.6507	-1.5609	-6.91281	0	
0.6513	-2.46622	-5.08585	0	
0.6520	-5.52559	-3.25889	0	
0.6527	-5.52559	-2.32073	0	
0.6533	-3.9959	-1.13568	0	
0.6540	-6.43091	-0.493772	0	
0.6547	-9.17809	-1.43194	0	
0.6553	-9.17809	0.395018	0	
0.6560	-11.02	4.04893	0	
0.6567	-12.2375	7.11032	0	
0.6573	-7.96059	8.04848	0	
0.6580	-3.9959	6.81405	0	
0.6587	-3.9959	5.28336	0	
0.6593	-4.30808	5.28336	0	
0.6600	-4.62026	5.57962	0	
0.6607	-6.11873	5.28336	0	
0.6613	-6.74309	6.81405	0	
0.6620	-4.90123	8.64101	0	
0.6627	-3.09058	8.64101	0	
0.6633	-1.5609	8.93727	0	
0.6640	-0.62436	6.22153	0	
0.6647	-1.24872	-1.7282	0	
0.6653	-2.46622	-5.67838	0	
0.6660	-0.93654	-4.19706	0	
0.6667	1.18628	-2.96263	0	
0.6673	1.49846	-2.96263	0	
0.6680	1.49846	-3.25889	0	
0.6687	3.02815	-5.08585	0	
0.6693	2.09161	-4.78959	0	
0.6700	-0.031218	-2.32073	0	
0.6707	0.280962	-2.02446	0	
0.6713	1.49846	-3.55516	0	
0.6720	1.49846	-4.49332	0	
0.6727	3.62129	-3.85142	0	
0.6733	6.08751	-2.02446	0	
0.6740	7.89815	-2.66637	0	
0.6747	9.74002	-5.08585	0	
0.6753	11.2697	-6.02402	0	
0.6760	10.6453	-4.49332	0	
0.6767	9.42784	-3.85142	0	
0.6773	9.11566	-4.49332	0	
0.6780	10.3332	-4.19706	0	
0.6787	11.2697	-2.32073	0	
0.6793	9.42784	-1.43194	0	
0.6800	7.30501	0.691281	0	
0.6807	5.46315	5.87589	0	
0.6813	3.93347	7.40658	0	
0.6820	5.46315	4.04893	0	
0.6827	6.99283	3.16014	0	
0.6833	3.02815	3.75267	0	
0.6840	-1.5609	3.16014	0	
0.6847	-0.62436	4.69083	0	
0.6853	1.49846	4.69083	0	
0.6860	1.49846	2.22197	0	
0.6867	1.18628	1.92571	0	
0.6873	1.49846	2.51824	0	
0.6880	1.18628	1.62945	0	
0.6887	0.280962	1.92571	0	
0.6893	-1.24872	0.395018	0	
0.6900	-0.62436	-2.32073	0	
0.6907	0.280962	-1.43194	0	
0.6913	-1.5609	-1.43194	0	
0.6920	-3.37154	-6.61654	0	
0.6927	-1.5609	-7.50533	0	
0.6933	0.280962	-2.32073	0	
0.6940	-0.031218	-0.197509	0	
0.6947	-0.031218	-0.493772	0	
0.6953	0.874104	1.03692	0	
0.6960	2.09161	1.33318	0	
0.6967	3.62129	0.395018	0	
0.6973	4.55783	0.395018	0	
0.6980	6.68065	0.0987544	0	
0.6987	8.52251	-1.13568	0	
0.6993	5.15097	-2.02446	0	
0.7000	0.280962	-2.32073	0	
0.7007	0.874104	-1.43194	0	
0.7013	3.93347	-0.493772	0	
0.7020	1.81064	-1.43194	0	
0.7027	-1.24872	-2.66637	0	
0.7033	-0.62436	-1.43194	0	
0.7040	-0.62436	-0.493772	0	
0.7047	-2.7784	-2.32073	0	
0.7053	-2.7784	-2.66637	0	
0.7060	-1.87308	0.395018	0	
0.7067	-1.5609	2.22197	0	
0.7073	-0.62436	1.92571	0	
0.7080	0.280962	1.03692	0	
0.7087	0.874104	-2.66637	0	
0.7093	1.81064	-5.38211	0	
0.7100	2.09161	-2.66637	0	
0.7107	3.34033	-1.13568	0	
0.7113	5.46315	-4.19706	0	
0.7120	4.83879	-4.78959	0	
0.7127	4.83879	-4.78959	0	
0.7133	6.68065	-8.14724	0	
0.7140	4.55783	-9.03603	0	
0.7147	-0.343398	-5.08585	0	
0.7153	1.18628	-0.493772	0	
0.7160	3.02815	1.33318	0	
0.7167	0.280962	-0.493772	0	
0.7173	0.874104	-3.25889	0	
0.7180	4.83879	-2.32073	0	
0.7187	4.83879	1.62945	0	
0.7193	3.02815	1.92571	0	
0.7200	2.09161	-0.197509	0	
0.7207	0.280962	-0.197509	0	
0.7213	-0.343398	1.62945	0	
0.7220	0.280962	2.86388	0	
0.7227	-0.031218	2.22197	0	
0.7233	-1.24872	0.691281	0	
0.7240	-2.46622	-2.02446	0	
0.7247	-2.46622	-6.61654	0	
0.7253	1.81064	-10.2705	0	
0.7260	5.77533	-9.67793	0	
0.7267	5.77533	-7.20907	0	
0.7273	3.62129	-5.38211	0	
0.7280	3.02815	-5.08585	0	
0.7287	4.83879	-5.67838	0	
0.7293	6.36847	-4.78959	0	
0.7300	4.24565	-3.25889	0	
0.7307	2.71597	-1.7282	0	
0.7313	3.34033	0.691281	0	
0.7320	1.18628	2.86388	0	
0.7327	-3.9959	1.92571	0	
0.7333	-7.05527	3.4564	0	
0.7340	-7.05527	8.34475	0	
0.7347	-5.83777	8.64101	0	
0.7353	-6.43091	4.9871	0	
0.7360	-7.64841	4.9871	0	
0.7367	-6.11873	5.87589	0	
0.7373	-3.37154	3.4564	0	
0.7380	-3.9959	4.04893	0	
0.7387	-4.30808	10.1717	0	
0.7393	-1.5609	11.4061	0	
0.7400	0.280962	7.75222	0	
0.7407	-0.62436	7.75222	0	
0.7413	-0.62436	11.4061	0	
0.7420	0.280962	7.40658	0	
0.7427	1.18628	1.03692	0	
0.7433	0.593142	1.62945	0	
0.7440	1.81064	4.39457	0	
0.7447	3.93347	2.51824	0	
0.7453	3.02815	1.92571	0	
0.7460	1.49846	5.28336	0	
0.7467	1.49846	5.57962	0	
0.7473	-1.5609	-0.197509	0	
0.7480	-3.37154	-5.38211	0	
0.7487	-2.46622	-5.67838	0	
0.7493	-4.30808	-3.25889	0	
0.7500	-5.21341	-0.493772	0	
0.7507	-0.93654	0.395018	0	
0.7513	-1.5609	0.0987544	0	
0.7520	-4.30808	-1.7282	0	
0.7527	-0.343398	-3.25889	0	
0.7533	2.40379	-3.85142	0	
0.7540	1.18628	-4.19706	0	
0.7547	3.02815	-4.78959	0	
0.7553	2.40379	-4.19706	0	
0.7560	-1.5609	-2.66637	0	
0.7567	0.874104	-2.66637	0	
0.7573	4.24565	-1.7282	0	
0.7580	2.09161	1.33318	0	
0.7587	1.81064	3.16014	0	
0.7593	1.18628	2.22197	0	
0.7600	-1.87308	1.62945	0	
0.7607	-0.031218	2.22197	0	
0.7613	1.18628	2.51824	0	
0.7620	-3.9959	2.22197	0	
0.7627	-4.90123	-0.197509	0	
0.7633	-1.5609	-3.85142	0	
0.7640	-0.62436	-3.25889	0	
0.7647	-0.031218	0.0987544	0	
0.7653	0.280962	-0.197509	0	
0.7660	-1.87308	-2.02446	0	
0.7667	-2.46622	-1.43194	0	
0.7673	-4.30808	-1.43194	0	
0.7680	-7.36745	-2.32073	0	
0.7687	-6.43091	-1.43194	0	
0.7693	-5.21341	1.03692	0	
0.7700	-9.17809	1.03692	0	
0.7707	-11.6131	-0.197509	0	
0.7713	-11.02	-0.493772	0	
0.7720	-9.80245	1.33318	0	
0.7727	-7.05527	3.16014	0	
0.7733	-5.21341	3.4564	0	
0.7740	-4.90123	0.691281	0	
0.7747	-0.62436	-3.25889	0	
0.7753	3.02815	-3.85142	0	
0.7760	0.593142	-3.55516	0	
0.7767	-0.93654	-7.20907	0	
0.7773	-0.343398	-8.4435	0	
0.7780	0.280962	-1.43194	0	
0.7787	1.49846	1.92571	0	
0.7793	3.62129	-0.839412	0	
0.7800	4.83879	1.03692	0	
0.7807	5.77533	4.04893	0	
0.7813	4.24565	0.395018	0	
0.7820	2.09161	-1.13568	0	
0.7827	1.49846	1.92571	0	
0.7833	-0.031218	2.86388	0	
0.7840	-2.46622	4.04893	0	
0.7847	-0.93654	7.40658	0	
0.7853	0.593142	5.57962	0	
0.7860	-1.24872	1.92571	0	
0.7867	-1.5609	-0.197509	0	
0.7873	1.18628	-4.49332	0	
0.7880	0.280962	-7.20907	0	
0.7887	-4.30808	-3.85142	0	
0.7893	-7.05527	-1.43194	0	
0.7900	-6.11873	-3.85142	0	
0.7907	-3.9959	-6.02402	0	
0.7913	-4.30808	-4.19706	0	
0.7920	-4.30808	-1.43194	0	
0.7927	-2.7784	-1.43194	0	
0.7933	-4.90123	-2.02446	0	
0.7940	-7.36745	-0.493772	0	
0.7947	-5.21341	-0.197509	0	
0.7953	-3.37154	-0.839412	0	
0.7960	-6.11873	0.691281	0	
0.7967	-6.11873	0.395018	0	
0.7973	-4.30808	-1.43194	0	
0.7980	-5.21341	-1.13568	0	
0.7987	-7.05527	-1.43194	0	
0.7993	-5.83777	-1.13568	0	
0.8000	-3.9959	1.33318	0	
0.8007	-1.24872	-1.43194	0	
0.8013	1.81064	-6.02402	0	
0.8020	2.09161	-3.55516	0	
0.8027	1.49846	0.0987544	0	
0.8033	3.34033	-2.02446	0	
0.8040	3.93347	-2.32073	0	
0.8047	1.81064	-2.02446	0	
0.8053	0.874104	-4.19706	0	
0.8060	3.02815	-2.02446	0	
0.8067	4.55783	1.03692	0	
0.8073	3.93347	-0.197509	0	
0.8080	4.55783	1.33318	0	
0.8087	5.77533	5.57962	0	
0.8093	3.34033	6.22153	0	
0.8100	-0.343398	7.11032	0	
0.8107	-0.62436	7.75222	0	
0.8113	0.874104	5.87589	0	
0.8120	3.34033	6.81405	0	
0.8127	5.77533	7.75222	0	
0.8133	4.83879	2.51824	0	
0.8140	3.93347	-0.839412	0	
0.8147	4.83879	0.0987544	0	
0.8153	3.02815	-0.493772	0	
0.8160	0.280962	-1.7282	0	
0.8167	1.49846	-2.66637	0	
0.8173	3.62129	-4.78959	0	
0.8180	3.62129	-2.32073	0	
0.8187	3.93347	1.92571	0	
0.8193	3.62129	1.33318	0	
0.8200	2.71597	1.03692	0	
0.8207	3.93347	4.04893	0	
0.8213	3.02815	4.69083	0	
0.8220	-0.62436	2.51824	0	
0.8227	-0.62436	2.22197	0	
0.8233	-0.031218	3.4564	0	
0.8240	-2.46622	3.4564	0	
0.8247	-2.46622	0.395018	0	
0.8253	0.280962	-1.7282	0	
0.8260	-1.24872	-0.493772	0	
0.8267	-5.21341	-0.197509	0	
0.8273	-6.11873	-2.32073	0	
0.8280	-6.11873	-1.43194	0	
0.8287	-5.21341	0.395018	0	
0.8293	-5.21341	-1.7282	0	
0.8300	-6.11873	-4.19706	0	
0.8307	-4.90123	-3.25889	0	
0.8313	-2.46622	-2.32073	0	
0.8320	-4.30808	-3.85142	0	
0.8327	-8.27277	-5.38211	0	
0.8333	-8.27277	-4.19706	0	
0.8340	-5.21341	-2.32073	0	
0.8347	-4.30808	-2.66637	0	
0.8353	-7.05527	-3.25889	0	
0.8360	-8.86591	-2.02446	0	
0.8367	-6.11873	-0.493772	0	
0.8373	-3.37154	-1.43194	0	
0.8380	-2.15404	-3.85142	0	
0.8387	-0.031218	-2.96263	0	
0.8393	-0.62436	0.395018	0	
0.8400	-3.37154	-1.13568	0	
0.8407	-2.7784	-5.67838	0	
0.8413	0.280962	-4.19706	0	
0.8420	-0.031218	1.33318	0	
0.8427	-0.93654	3.16014	0	
0.8433	-0.93654	5.87589	0	
0.8440	-2.46622	10.7642	0	
0.8447	-3.37154	10.468	0	
0.8453	-2.46622	6.81405	0	
0.8460	-2.15404	4.04893	0	
0.8467	-2.46622	1.33318	0	
0.8473	-2.7784	-5.08585	0	
0.8480	-5.21341	-10.2705	0	
0.8487	-7.36745	-8.73976	0	
0.8493	-7.64841	-3.25889	0	
0.8500	-5.83777	-2.32073	0	
0.8507	-2.15404	-2.32073	0	
0.8513	-0.62436	1.62945	0	
0.8520	-2.46622	3.75267	0	
0.8527	-1.87308	2.86388	0	
0.8533	0.280962	2.86388	0	
0.8540	1.49846	-1.43194	0	
0.8547	3.93347	-6.02402	0	
0.8553	6.36847	-2.02446	0	
0.8560	4.83879	0.395018	0	
0.8567	2.09161	-5.08585	0	
0.8573	2.09161	-4.19706	0	
0.8580	2.09161	1.33318	0	
0.8587	0.280962	-0.839412	0	
0.8593	1.18628	-6.32028	0	
0.8600	4.24565	-10.2705	0	
0.8607	5.46315	-10.5667	0	
0.8613	3.93347	-4.49332	0	
0.8620	4.83879	2.22197	0	
0.8627	7.58597	-0.197509	0	
0.8633	6.99283	-2.96263	0	
0.8640	4.24565	-1.43194	0	
0.8647	3.02815	0.395018	0	
0.8653	3.02815	2.22197	0	
0.8660	3.62129	3.16014	0	
0.8667	7.58597	1.33318	0	
0.8673	11.2697	1.33318	0	
0.8680	10.0522	1.92571	0	
0.8687	7.58597	-0.839412	0	
0.8693	7.30501	-1.7282	0	
0.8700	7.30501	1.03692	0	
0.8707	6.08751	-0.197509	0	
0.8713	3.93347	-3.25889	0	
0.8720	1.81064	-2.02446	0	
0.8727	0.593142	0.395018	0	
0.8733	0.280962	-1.7282	0	
0.8740	1.18628	-3.25889	0	
0.8747	1.18628	1.03692	0	
0.8753	-0.62436	4.9871	0	
0.8760	-1.5609	4.04893	0	
0.8767	0.280962	2.22197	0	
0.8773	1.18628	0.691281	0	
0.8780	-0.62436	-1.43194	0	
0.8787	-1.5609	-2.32073	0	
0.8793	-0.62436	-0.839412	0	
0.8800	0.280962	0.395018	0	
0.8807	1.18628	-0.197509	0	
0.8813	1.18628	-1.43194	0	
0.8820	1.49846	-1.7282	0	
0.8827	2.09161	-2.02446	0	
0.8833	-1.87308	-2.32073	0	
0.8840	-6.11873	-1.43194	0	
0.8847	-5.21341	-1.43194	0	
0.8853	-2.7784	-2.02446	0	
0.8860	-2.46622	-2.32073	0	
0.8867	-0.62436	-3.25889	0	
0.8873	1.18628	-4.19706	0	
0.8880	1.18628	-2.66637	0	
0.8887	1.81064	-1.43194	0	
0.8893	1.81064	-4.19706	0	
0.8900	0.280962	-5.38211	0	
0.8907	0.280962	-3.85142	0	
0.8913	0.593142	-4.49332	0	
0.8920	1.18628	-6.02402	0	
0.8927	1.18628	-6.02402	0	
0.8933	-1.5609	-6.02402	0	
0.8940	-6.43091	-6.02402	0	
0.8947	-6.11873	-5.08585	0	
0.8953	-3.09058	-5.67838	0	
0.8960	-3.37154	-3.85142	0	
0.8967	-3.37154	-0.839412	0	
0.8973	-0.62436	-1.43194	0	
0.8980	-0.62436	-1.43194	0	
0.8987	-3.09058	1.33318	0	
0.8993	-1.5609	1.03692	0	
0.9000	2.40379	-1.43194	0	
0.9007	3.93347	-0.839412	0	
0.9013	2.40379	-0.493772	0	
0.9020	0.593142	-0.493772	0	
0.9027	1.81064	2.86388	0	
0.9033	3.93347	5.57962	0	
0.9040	4.83879	4.9871	0	
0.9047	3.34033	3.4564	0	
0.9053	3.02815	2.51824	0	
0.9060	5.15097	2.22197	0	
0.9067	6.68065	3.4564	0	
0.9073	3.93347	1.92571	0	
0.9080	2.09161	-3.25889	0	
0.9087	1.81064	-3.85142	0	
0.9093	0.593142	0.395018	0	
0.9100	-0.343398	2.51824	0	
0.9107	-0.343398	2.22197	0	
0.9113	-1.5609	4.9871	0	
0.9120	-2.7784	8.34475	0	
0.9127	-1.87308	7.75222	0	
0.9133	-0.031218	4.39457	0	
0.9140	1.18628	3.16014	0	
0.9147	1.49846	2.22197	0	
0.9153	2.40379	-3.55516	0	
0.9160	4.24565	-8.73976	0	
0.9167	5.15097	-5.08585	0	
0.9173	3.62129	1.62945	0	
0.9180	0.874104	4.39457	0	
0.9187	-0.031218	7.40658	0	
0.9193	2.71597	10.468	0	
0.9200	4.24565	8.64101	0	
0.9207	1.18628	5.87589	0	
0.9213	-0.62436	3.16014	0	
0.9220	3.93347	-2.32073	0	
0.9227	5.46315	-4.19706	0	
0.9233	1.49846	-1.43194	0	
0.9240	0.280962	-2.96263	0	
0.9247	0.593142	-6.91281	0	
0.9253	-0.93654	-6.02402	0	
0.9260	-1.87308	-4.49332	0	
0.9267	-1.5609	-6.02402	0	
0.9273	-3.37154	-4.19706	0	
0.9280	-2.46622	-1.7282	0	
0.9287	1.18628	-4.49332	0	
0.9293	-0.343398	-6.61654	0	
0.9300	-5.52559	-2.96263	0	
0.9307	-6.74309	-0.197509	0	
0.9313	-5.52559	-1.43194	0	
0.9320	-5.21341	-1.7282	0	
0.9327	-5.21341	-1.43194	0	
0.9333	-4.62026	-4.19706	0	
0.9340	-1.87308	-4.19706	0	
0.9347	0.280962	1.62945	0	
0.9353	-1.5609	4.9871	0	
0.9360	-4.30808	1.33318	0	
0.9367	-3.68372	-1.43194	0	
0.9373	-3.09058	0.395018	0	
0.9380	-1.24872	1.33318	0	
0.9387	2.09161	0.0987544	0	
0.9393	0.280962	2.22197	0	
0.9400	-4.30808	6.22153	0	
0.9407	-3.37154	5.87589	0	
0.9413	-0.62436	1.62945	0	
0.9420	0.593142	2.22197	0	
0.9427	2.40379	4.69083	0	
0.9433	1.18628	1.92571	0	
0.9440	-1.5609	-1.43194	0	
0.9447	1.81064	0.691281	0	
0.9453	3.93347	3.75267	0	
0.9460	-1.5609	5.28336	0	
0.9467	-4.30808	6.81405	0	
0.9473	-1.87308	4.9871	0	
0.9480	-1.87308	1.03692	0	
0.9487	-2.46622	0.395018	0	
0.9493	-0.62436	0.395018	0	
0.9500	0.280962	-4.78959	0	
0.9507	1.18628	-7.20907	0	
0.9513	3.62129	-2.96263	0	
0.9520	3.62129	-2.32073	0	
0.9527	0.280962	-5.08585	0	
0.9533	-0.62436	-4.19706	0	
0.9540	2.09161	-3.25889	0	
0.9547	4.24565	-4.19706	0	
0.9553	2.09161	-2.02446	0	
0.9560	1.18628	1.33318	0	
0.9567	4.24565	2.86388	0	
0.9573	5.15097	5.28336	0	
0.9580	3.02815	4.9871	0	
0.9587	0.280962	0.691281	0	
0.9593	-2.46622	0.691281	0	
0.9600	-3.37154	3.4564	0	
0.9607	-2.46622	1.92571	0	
0.9613	-2.46622	1.92571	0	
0.9620	-2.7784	6.51779	0	
0.9627	-1.5609	7.11032	0	
0.9633	-1.87308	1.92571	0	
0.9640	-4.30808	-0.493772	0	
0.9647	-3.37154	3.16014	0	
0.9653	-0.031218	3.16014	0	
0.9660	1.18628	-1.43194	0	
0.9667	-0.62436	-3.25889	0	
0.9673	-0.62436	-1.43194	0	
0.9680	2.40379	-1.7282	0	
0.9687	2.40379	-3.25889	0	
0.9693	-0.93654	-2.66637	0	
0.9700	-0.62436	-1.13568	0	
0.9707	0.280962	2.22197	0	
0.9713	-2.46622	7.11032	0	
0.9720	-6.11873	7.75222	0	
0.9727	-7.64841	4.04893	0	
0.9733	-7.96059	0.0987544	0	
0.9740	-7.64841	-1.43194	0	
0.9747	-7.05527	0.0987544	0	
0.9753	-7.96059	3.16014	0	
0.9760	-7.05527	3.4564	0	
0.9767	-5.21341	1.33318	0	
0.9773	-5.21341	1.33318	0	
0.9780	-6.74309	2.22197	0	
0.9787	-5.52559	0.691281	0	
0.9793	-2.46622	-1.43194	0	
0.9800	-1.87308	-2.32073	0	
0.9807	-3.37154	-2.32073	0	
0.9813	-3.68372	-3.85142	0	
0.9820	-4.30808	-4.19706	0	
0.9827	-5.52559	-3.55516	0	
0.9833	-3.68372	-3.85142	0	
0.9840	-2.46622	-5.08585	0	
0.9847	-4.90123	-6.91281	0	
0.9853	-4.62026	-7.50533	0	
0.9860	-1.5609	-2.96263	0	
0.9867	-2.46622	1.33318	0	
0.9873	-3.9959	0.0987544	0	
0.9880	-3.68372	-1.43194	0	
0.9887	-5.21341	0.395018	0	
0.9893	-4.90123	1.33318	0	
0.9900	-1.5609	-0.839412	0	
0.9907	-2.46622	-3.25889	0	
0.9913	-2.7784	-5.38211	0	
0.9920	1.18628	-7.20907	0	
0.9927	2.09161	-5.08585	0	
0.9933	-0.343398	0.0987544	0	
0.9940	1.18628	2.22197	0	
0.9947	5.15097	1.33318	0	
0.9953	5.46315	1.62945	0	
0.9960	2.71597	2.22197	0	
0.9967	0.874104	-0.493772	0	
0.9973	1.18628	-0.197509	0	
0.9980	1.18628	5.28336	0	
0.9987	-1.5609	5.57962	0	
0.9993	-4.30808	-0.493772	0	
1.0000	-2.15404	-1.43194	0	
1.0007	0.280962	1.33318	0	
1.0013	-1.5609	0.691281	0	
1.0020	-0.93654	-0.493772	0	
1.0027	1.18628	0.691281	0	
1.0033	-0.62436	1.33318	0	
1.0040	-2.15404	1.03692	0	
1.0047	0.593142	1.33318	0	
1.0053	2.40379	0.395018	0	
1.0060	1.49846	0.0987544	0	
1.0067	0.593142	1.33318	0	
1.0073	-0.343398	1.92571	0	
1.0080	-0.93654	0.691281	0	
1.0087	-0.031218	0.395018	0	
1.0093	2.09161	0.691281	0	
1.0100	4.83879	0.691281	0	
1.0107	7.89815	2.22197	0	
1.0113	6.99283	2.86388	0	
1.0120	3.93347	0.691281	0	
1.0127	3.34033	-0.493772	0	
1.0133	3.93347	1.92571	0	
1.0140	3.93347	4.04893	0	
1.0147	3.02815	3.75267	0	
1.0153	0.874104	3.4564	0	
1.0160	-0.62436	4.9871	0	
1.0167	-0.343398	5.28336	0	
1.0173	0.874104	2.51824	0	
1.0180	3.02815	2.22197	0	
1.0187	2.40379	6.81405	0	
1.0193	0.874104	6.51779	0	
1.0200	3.34033	0.395018	0	
1.0207	5.46315	-2.32073	0	
1.0213	2.71597	-1.43194	0	
1.0220	3.02815	-2.32073	0	
1.0227	4.83879	-1.7282	0	
1.0233	0.280962	0.691281	0	
1.0240	-3.09058	1.33318	0	
1.0247	-1.5609	2.51824	0	
1.0253	-2.46622	3.75267	0	
1.0260	-3.9959	2.51824	0	
1.0267	-1.87308	2.51824	0	
1.0273	-2.15404	2.22197	0	
1.0280	-4.30808	-1.43194	0	
1.0287	-4.90123	-0.493772	0	
1.0293	-4.30808	3.16014	0	
1.0300	-3.37154	0.395018	0	
1.0307	-1.5609	-1.7282	0	
1.0313	-1.87308	2.22197	0	
1.0320	-2.15404	3.16014	0	
1.0327	-0.62436	0.691281	0	
1.0333	-1.24872	3.4564	0	
1.0340	-2.7784	4.04893	0	
1.0347	-0.62436	-2.32073	0	
1.0353	3.02815	-7.50533	0	
1.0360	4.24565	-8.4435	0	
1.0367	4.55783	-7.85097	0	
1.0373	4.83879	-3.25889	0	
1.0380	3.93347	-0.493772	0	
1.0387	3.34033	-2.32073	0	
1.0393	3.02815	-3.25889	0	
1.0400	1.49846	-1.43194	0	
1.0407	1.18628	-0.197509	0	
1.0413	1.81064	1.03692	0	
1.0420	-0.031218	1.33318	0	
1.0427	-1.87308	-1.43194	0	
1.0433	-0.343398	-2.02446	0	
1.0440	1.18628	0.691281	0	
1.0447	-1.24872	3.16014	0	
1.0453	-1.87308	1.33318	0	
1.0460	0.280962	-2.32073	0	
1.0467	0.593142	-4.19706	0	
1.0473	-0.62436	-6.02402	0	
1.0480	-1.5609	-8.73976	0	
1.0487	-1.87308	-7.85097	0	
1.0493	-1.5609	-5.08585	0	
1.0500	-0.031218	-5.67838	0	
1.0507	-0.62436	-5.08585	0	
1.0513	-1.24872	-2.96263	0	
1.0520	-1.5609	-4.49332	0	
1.0527	-3.37154	-6.32028	0	
1.0533	-3.68372	-5.08585	0	
1.0540	-0.031218	-6.02402	0	
1.0547	0.280962	-6.61654	0	
1.0553	-2.46622	-2.32073	0	
1.0560	-0.62436	0.395018	0	
1.0567	3.02815	-1.43194	0	
1.0573	2.09161	-0.839412	0	
1.0580	1.18628	3.4564	0	
1.0587	3.02815	4.04893	0	
1.0593	3.62129	1.03692	0	
1.0600	2.09161	1.33318	0	
1.0607	1.18628	3.16014	0	
1.0613	-0.62436	0.395018	0	
1.0620	-0.62436	-2.02446	0	
1.0627	1.18628	-0.493772	0	
1.0633	-0.031218	-2.32073	0	
1.0640	-2.15404	-6.02402	0	
1.0647	-0.93654	-6.91281	0	
1.0653	-0.62436	-8.73976	0	
1.0660	-2.46622	-8.73976	0	
1.0667	-2.46622	-4.78959	0	
1.0673	-4.30808	-4.19706	0	
1.0680	-8.86591	-5.08585	0	
1.0687	-7.96059	-2.02446	0	
1.0693	-2.7784	0.395018	0	
1.0700	-2.46622	-2.02446	0	
1.0707	-1.87308	-3.85142	0	
1.0713	1.18628	-4.49332	0	
1.0720	1.81064	-5.08585	0	
1.0727	2.09161	-5.08585	0	
1.0733	3.93347	-5.08585	0	
1.0740	3.02815	-3.55516	0	
1.0747	2.40379	-0.839412	0	
1.0753	4.24565	1.62945	0	
1.0760	3.02815	4.04893	0	
1.0767	0.280962	4.39457	0	
1.0773	-0.343398	0.691281	0	
1.0780	-1.5609	-1.7282	0	
1.0787	-1.5609	-0.839412	0	
1.0793	0.280962	-0.197509	0	
1.0800	-1.24872	0.395018	0	
1.0807	-3.9959	1.62945	0	
1.0813	-3.37154	1.03692	0	
1.0820	-3.09058	-0.493772	0	
1.0827	-3.37154	-0.197509	0	
1.0833	-2.46622	-0.197509	0	
1.0840	-1.5609	-0.493772	0	
1.0847	-1.5609	-1.13568	0	
1.0853	-0.031218	-2.32073	0	
1.0860	1.18628	-4.19706	0	
1.0867	1.49846	-4.19706	0	
1.0873	0.593142	-2.02446	0	
1.0880	-0.031218	1.33318	0	
1.0887	1.49846	2.22197	0	
1.0893	4.24565	0.395018	0	
1.0900	6.08751	-0.493772	0	
1.0907	5.77533	1.92571	0	
1.0913	3.02815	4.04893	0	
1.0920	-0.62436	4.9871	0	
1.0927	-1.87308	4.04893	0	
1.0933	-0.93654	3.75267	0	
1.0940	0.280962	5.87589	0	
1.0947	1.81064	6.81405	0	
1.0953	3.02815	4.9871	0	
1.0960	3.02815	4.9871	0	
1.0967	3.34033	7.40658	0	
1.0973	3.62129	6.81405	0	
1.0980	4.24565	4.69083	0	
1.0987	4.83879	3.75267	0	
1.0993	4.83879	4.04893	0	
1.1000	3.93347	3.75267	0	
1.1007	4.83879	1.33318	0	
1.1013	4.83879	-2.32073	0	
1.1020	4.55783	-4.49332	0	
1.1027	6.68065	-4.19706	0	
1.1033	8.52251	-1.7282	0	
1.1040	6.68065	-0.493772	0	
1.1047	6.36847	-2.32073	0	
1.1053	7.30501	-3.85142	0	
1.1060	5.46315	-3.25889	0	
1.1067	4.83879	-4.78959	0	
1.1073	5.46315	-9.67793	0	
1.1080	3.93347	-10.5667	0	
1.1087	3.02815	-6.91281	0	
1.1093	2.71597	-4.19706	0	
1.1100	0.280962	-5.08585	0	
1.1107	-1.5609	-4.78959	0	
1.1113	-1.87308	-0.493772	0	
1.1120	-3.09058	2.51824	0	
1.1127	-3.09058	1.33318	0	
1.1133	-2.15404	2.51824	0	
1.1140	-3.68372	7.40658	0	
1.1147	-4.30808	8.34475	0	
1.1153	-3.37154	4.69083	0	
1.1160	-3.37154	1.33318	0	
1.1167	-3.37154	-0.197509	0	
1.1173	-3.68372	-0.493772	0	
1.1180	-4.30808	1.33318	0	
1.1187	-3.37154	3.16014	0	
1.1193	-3.09058	4.04893	0	
1.1200	-3.68372	4.04893	0	
1.1207	-1.5609	4.9871	0	
1.1213	-0.031218	6.51779	0	
1.1220	-2.7784	4.9871	0	
1.1227	-5.21341	1.33318	0	
1.1233	-4.90123	-0.197509	0	
1.1240	-4.90123	-1.43194	0	
1.1247	-4.30808	-1.7282	0	
1.1253	-4.62026	1.33318	0	
1.1260	-5.52559	3.16014	0	
1.1267	-5.83777	0.395018	0	
1.1273	-6.11873	-2.66637	0	
1.1280	-5.21341	-5.38211	0	
1.1287	-1.5609	-7.85097	0	
1.1293	-1.87308	-3.25889	0	
1.1300	-6.11873	1.62945	0	
1.1307	-5.21341	-1.43194	0	
1.1313	-2.15404	-2.96263	0	
1.1320	-3.9959	1.62945	0	
1.1327	-2.7784	1.62945	0	
1.1333	2.09161	-2.66637	0	
1.1340	0.280962	-2.32073	0	
1.1347	-4.62026	-0.493772	0	
1.1353	-3.68372	0.0987544	0	
1.1360	-2.46622	2.22197	0	
1.1367	-4.30808	3.16014	0	
1.1373	-3.37154	-0.197509	0	
1.1380	0.280962	-0.493772	0	
1.1387	-0.343398	1.33318	0	
1.1393	-2.46622	0.0987544	0	
1.1400	-2.46622	-1.7282	0	
1.1407	-1.87308	-1.7282	0	
1.1413	-2.7784	-1.43194	0	
1.1420	-3.37154	-0.493772	0	
1.1427	-0.62436	2.22197	0	
1.1433	3.62129	3.16014	0	
1.1440	3.93347	1.92571	0	
1.1447	-0.343398	-0.839412	0	
1.1453	-1.5609	-4.19706	0	
1.1460	2.09161	-4.49332	0	
1.1467	4.24565	-2.66637	0	
1.1473	3.62129	-3.25889	0	
1.1480	5.15097	-6.02402	0	
1.1487	6.36847	-5.67838	0	
1.1493	4.83879	-4.19706	0	
1.1500	3.02815	-4.78959	0	
1.1507	1.18628	-6.02402	0	
1.1513	-2.46622	-6.02402	0	
1.1520	-5.52559	-3.25889	0	
1.1527	-6.43091	1.33318	0	
1.1533	-6.11873	1.62945	0	
1.1540	-5.83777	-1.43194	0	
1.1547	-5.21341	-1.43194	0	
1.1553	-4.90123	1.33318	0	
1.1560	-4.30808	2.51824	0	
1.1567	-4.90123	2.86388	0	
1.1573	-6.43091	2.51824	0	
1.1580	-7.05527	2.22197	0	
1.1587	-6.43091	1.62945	0	
1.1593	-5.21341	0.395018	0	
1.1600	-1.5609	0.395018	0	
1.1607	2.09161	0.395018	0	
1.1613	3.02815	-0.493772	0	
1.1620	5.15097	0.395018	0	
1.1627	9.11566	1.33318	0	
1.1633	8.21033	-0.197509	0	
1.1640	4.83879	0.395018	0	
1.1647	5.77533	3.4564	0	
1.1653	7.58597	1.92571	0	
1.1660	5.77533	-1.43194	0	
1.1667	3.93347	-1.13568	0	
1.1673	2.40379	-0.493772	0	
1.1680	-0.93654	-0.493772	0	
1.1687	-1.5609	-0.197509	0	
1.1693	-0.031218	-1.13568	0	
1.1700	-1.5609	-2.02446	0	
1.1707	-1.5609	-0.839412	0	
1.1713	3.62129	0.0987544	0	
1.1720	6.68065	-0.197509	0	
1.1727	5.15097	-0.197509	0	
1.1733	3.02815	0.395018	0	
1.1740	1.81064	1.03692	0	
1.1747	2.40379	0.395018	0	
1.1753	4.83879	-0.493772	0	
1.1760	5.77533	0.691281	0	
1.1767	4.83879	1.92571	0	
1.1773	4.83879	1.33318	0	
1.1780	5.77533	1.33318	0	
1.1787	6.08751	1.92571	0	
1.1793	3.34033	2.86388	0	
1.1800	-0.031218	3.4564	0	
1.1807	-0.031218	3.16014	0	
1.1813	2.40379	3.16014	0	
1.1820	3.62129	2.86388	0	
1.1827	2.40379	-0.493772	0	
1.1833	-0.62436	-1.7282	0	
1.1840	-3.37154	4.9871	0	
1.1847	-2.46622	8.64101	0	
1.1853	-0.031218	6.51779	0	
1.1860	3.02815	8.64101	0	
1.1867	3.34033	9.87544	0	
1.1873	-0.031218	1.62945	0	
1.1880	-2.46622	-3.55516	0	
1.1887	-1.24872	-1.43194	0	
1.1893	-0.62436	-2.32073	0	
1.1900	-1.5609	-4.49332	0	
1.1907	-2.46622	-4.19706	0	
1.1913	-4.90123	-4.49332	0	
1.1920	-6.74309	-4.49332	0	
1.1927	-4.30808	-2.32073	0	
1.1933	-2.7784	-1.43194	0	
1.1940	-6.11873	-1.7282	0	
1.1947	-8.58495	-1.7282	0	
1.1953	-6.43091	-1.13568	0	
1.1960	-5.52559	1.33318	0	
1.1967	-8.86591	5.28336	0	
1.1973	-11.9253	7.40658	0	
1.1980	-11.6131	6.51779	0	
1.1987	-9.17809	5.87589	0	
1.1993	-7.96059	7.40658	0	
1.2000	-7.96059	5.28336	0	
1.2007	-8.86591	0.0987544	0	
1.2013	-8.86591	0.0987544	0	
1.2020	-8.86591	4.04893	0	
1.2027	-9.80245	2.86388	0	
1.2033	-11.02	-0.839412	0	
1.2040	-8.86591	-2.66637	0	
1.2047	-3.9959	-6.02402	0	
1.2053	-2.7784	-9.38167	0	
1.2060	-4.90123	-9.38167	0	
1.2067	-4.62026	-8.73976	0	
1.2073	-2.46622	-6.61654	0	
1.2080	0.280962	-4.19706	0	
1.2087	1.18628	-5.08585	0	
1.2093	1.18628	-6.02402	0	
1.2100	2.09161	-5.08585	0	
1.2107	3.34033	-3.25889	0	
1.2113	2.40379	-2.02446	0	
1.2120	1.18628	-1.43194	0	
1.2127	3.02815	-2.02446	0	
1.2133	2.71597	-2.66637	0	
1.2140	0.593142	-2.32073	0	
1.2147	1.49846	-0.839412	0	
1.2153	3.34033	1.33318	0	
1.2160	2.09161	0.691281	0	
1.2167	2.09161	-2.02446	0	
1.2173	5.15097	-2.32073	0	
1.2180	5.77533	-0.493772	0	
1.2187	3.02815	1.92571	0	
1.2193	1.49846	4.39457	0	
1.2200	2.09161	4.9871	0	
1.2207	3.62129	3.16014	0	
1.2213	5.15097	4.04893	0	
1.2220	4.83879	7.11032	0	
1.2227	1.81064	7.11032	0	
1.2233	-0.343398	6.51779	0	
1.2240	-0.343398	6.51779	0	
1.2247	-0.62436	0.395018	0	
1.2253	-1.5609	-9.38167	0	
1.2260	0.280962	-9.03603	0	
1.2267	4.24565	-4.19706	0	
1.2273	5.77533	-5.67838	0	
1.2280	4.55783	-6.91281	0	
1.2287	3.02815	-5.08585	0	
1.2293	2.09161	-6.91281	0	
1.2300	3.93347	-7.20907	0	
1.2307	6.08751	-2.32073	0	
1.2313	3.02815	-1.43194	0	
1.2320	-1.5609	-5.38211	0	
1.2327	-0.343398	-5.67838	0	
1.2333	2.09161	-6.02402	0	
1.2340	2.09161	-8.14724	0	
1.2347	3.34033	-5.38211	0	
1.2353	3.93347	-0.197509	0	
1.2360	1.18628	4.04893	0	
1.2367	0.280962	6.51779	0	
1.2373	-0.62436	4.04893	0	
1.2380	-3.37154	-0.197509	0	
1.2387	-1.5609	-0.493772	0	
1.2393	3.02815	0.0987544	0	
1.2400	2.40379	-1.43194	0	
1.2407	1.81064	-0.493772	0	
1.2413	3.93347	1.33318	0	
1.2420	4.24565	0.395018	0	
1.2427	1.18628	-0.197509	0	
1.2433	-1.5609	0.395018	0	
1.2440	-1.5609	-0.839412	0	
1.2447	-1.24872	-2.02446	0	
1.2453	-2.46622	-0.493772	0	
1.2460	-2.7784	1.33318	0	
1.2467	-1.5609	2.22197	0	
1.2473	-0.93654	3.4564	0	
1.2480	-0.93654	3.16014	0	
1.2487	0.280962	-1.43194	0	
1.2493	-0.62436	-3.85142	0	
1.2500	-1.5609	-1.43194	0	
1.2507	-0.031218	-1.43194	0	
1.2513	-0.343398	-4.19706	0	
1.2520	-2.15404	-1.43194	0	
1.2527	-0.343398	0.395018	0	
1.2533	1.81064	-3.55516	0	
1.2540	1.18628	-4.19706	0	
1.2547	2.09161	-2.02446	0	
1.2553	3.34033	-5.08585	0	
1.2560	2.71597	-6.61654	0	
1.2567	2.40379	-4.49332	0	
1.2573	2.09161	-3.25889	0	
1.2580	3.02815	0.395018	0	
1.2587	5.77533	4.9871	0	
1.2593	4.24565	3.16014	0	
1.2600	0.593142	0.0987544	0	
1.2607	1.49846	0.0987544	0	
1.2613	2.09161	-1.43194	0	
1.2620	-0.031218	-2.66637	0	
1.2627	1.49846	-2.02446	0	
1.2633	3.02815	-2.32073	0	
1.2640	1.81064	-1.43194	0	
1.2647	2.09161	1.33318	0	
1.2653	0.874104	0.691281	0	
1.2660	-2.15404	-1.43194	0	
1.2667	-1.24872	-2.32073	0	
1.2673	0.280962	-1.43194	0	
1.2680	-2.46622	0.395018	0	
1.2687	-3.9959	1.03692	0	
1.2693	-2.15404	-1.43194	0	
1.2700	-0.031218	-4.19706	0	
1.2707	0.874104	-3.55516	0	
1.2713	-0.62436	-2.32073	0	
1.2720	-1.24872	-2.32073	0	
1.2727	-0.031218	-1.43194	0	
1.2733	-3.09058	-1.43194	0	
1.2740	-4.90123	-1.43194	0	
1.2747	0.874104	0.395018	0	
1.2753	3.62129	3.75267	0	
1.2760	-0.031218	4.04893	0	
1.2767	-0.62436	1.92571	0	
1.2773	0.280962	1.62945	0	
1.2780	-0.62436	2.22197	0	
1.2787	1.18628	0.0987544	0	
1.2793	3.02815	-1.43194	0	
1.2800	0.280962	0.395018	0	
1.2807	0.874104	-0.493772	0	
1.2813	2.09161	-2.66637	0	
1.2820	-0.93654	-1.7282	0	
1.2827	-1.87308	-1.43194	0	
1.2833	0.593142	-4.19706	0	
1.2840	-1.87308	-4.49332	0	
1.2847	-6.11873	-1.7282	0	
1.2853	-5.21341	-0.839412	0	
1.2860	-4.62026	0.395018	0	
1.2867	-5.83777	2.22197	0	
1.2873	-5.21341	1.62945	0	
1.2880	-3.09058	0.395018	0	
1.2887	-3.37154	-0.197509	0	
1.2893	-4.62026	-3.55516	0	
1.2900	-2.46622	-3.25889	0	
1.2907	-0.343398	1.33318	0	
1.2913	-3.9959	-0.493772	0	
1.2920	-7.05527	-5.67838	0	
1.2927	-1.87308	-3.55516	0	
1.2933	2.09161	-0.493772	0	
1.2940	-0.62436	1.33318	0	
1.2947	-3.68372	6.51779	0	
1.2953	-2.7784	8.64101	0	
1.2960	-1.87308	4.69083	0	
1.2967	-1.24872	2.22197	0	
1.2973	1.18628	1.62945	0	
1.2980	3.62129	2.51824	0	
1.2987	3.62129	5.28336	0	
1.2993	3.02815	3.16014	0	
1.3000	4.24565	-3.25889	0	
1.3007	4.83879	-4.78959	0	
1.3013	5.15097	-4.78959	0	
1.3020	5.77533	-7.20907	0	
1.3027	6.36847	-6.02402	0	
1.3033	6.68065	-2.66637	0	
1.3040	6.99283	-5.08585	0	
1.3047	5.77533	-5.08585	0	
1.3053	3.62129	-0.197509	0	
1.3060	2.09161	0.395018	0	
1.3067	1.81064	-0.493772	0	
1.3073	2.09161	1.62945	0	
1.3080	3.34033	1.33318	0	
1.3087	4.83879	-0.197509	0	
1.3093	5.77533	3.16014	0	
1.3100	5.77533	4.9871	0	
1.3107	4.55783	4.04893	0	
1.3113	3.02815	6.51779	0	
1.3120	2.40379	4.9871	0	
1.3127	3.62129	-1.13568	0	
1.3133	5.77533	0.395018	0	
1.3140	4.24565	4.9871	0	
1.3147	1.81064	1.33318	0	
1.3153	3.93347	1.33318	0	
1.3160	7.30501	7.40658	0	
1.3167	5.15097	4.69083	0	
1.3173	1.49846	-2.66637	0	
1.3180	1.49846	-1.7282	0	
1.3187	1.49846	-0.197509	0	
1.3193	-0.62436	-3.85142	0	
1.3200	-1.87308	-6.91281	0	
1.3207	-2.15404	-5.08585	0	
1.3213	-0.62436	0.395018	0	
1.3220	0.874104	3.4564	0	
1.3227	0.874104	-1.13568	0	
1.3233	0.593142	-4.19706	0	
1.3240	1.18628	-1.43194	0	
1.3247	-0.343398	1.33318	0	
1.3253	-3.37154	3.16014	0	
1.3260	-4.30808	6.81405	0	
1.3267	-3.68372	5.28336	0	
1.3273	-2.46622	0.395018	0	
1.3280	-2.46622	-1.7282	0	
1.3287	-5.52559	-2.02446	0	
1.3293	-7.05527	-2.32073	0	
1.3300	-4.90123	-1.7282	0	
1.3307	-4.30808	-1.43194	0	
1.3313	-6.11873	-0.493772	0	
1.3320	-7.05527	0.691281	0	
1.3327	-6.11873	2.22197	0	
1.3333	-4.30808	6.22153	0	
1.3340	-4.62026	12.2949	0	
1.3347	-7.05527	14.1219	0	
1.3353	-5.52559	12.2949	0	
1.3360	-0.62436	12.2949	0	
1.3367	-0.93654	13.2331	0	
1.3373	-4.30808	10.468	0	
1.3380	-0.62436	4.39457	0	
1.3387	3.02815	1.33318	0	
1.3393	0.280962	2.22197	0	
1.3400	-1.5609	2.22197	0	
1.3407	0.280962	1.92571	0	
1.3413	1.81064	1.62945	0	
1.3420	3.34033	-0.839412	0	
1.3427	3.93347	-3.55516	0	
1.3433	-0.62436	-3.85142	0	
1.3440	-6.43091	-2.66637	0	
1.3447	-7.05527	-1.43194	0	
1.3453	-4.30808	-0.493772	0	
1.3460	-3.09058	-0.493772	0	
1.3467	-3.09058	-1.7282	0	
1.3473	-3.09058	-1.43194	0	
1.3480	-2.46622	-1.7282	0	
1.3487	-1.5609	-2.96263	0	
1.3493	-2.15404	-3.85142	0	
1.3500	-3.09058	-5.38211	0	
1.3507	-3.9959	-7.85097	0	
1.3513	-3.09058	-6.02402	0	
1.3520	0.593142	-2.66637	0	
1.3527	2.09161	-3.55516	0	
1.3533	0.280962	-6.32028	0	
1.3540	1.18628	-5.08585	0	
1.3547	3.02815	-5.08585	0	
1.3553	2.09161	-9.67793	0	
1.3560	1.18628	-10.5667	0	
1.3567	3.02815	-7.50533	0	
1.3573	5.77533	-6.32028	0	
1.3580	5.46315	-5.08585	0	
1.3587	1.49846	-2.66637	0	
1.3593	-1.5609	-3.25889	0	
1.3600	-1.87308	-4.78959	0	
1.3607	-2.15404	-2.66637	0	
1.3613	-2.15404	-0.493772	0	
1.3620	-1.87308	0.0987544	0	
1.3627	-2.15404	1.33318	0	
1.3633	-2.15404	2.22197	0	
1.3640	-2.15404	2.22197	0	
1.3647	-2.15404	1.33318	0	
1.3653	-1.5609	-1.13568	0	
1.3660	-2.15404	-2.66637	0	
1.3667	-1.5609	-1.13568	0	
1.3673	-0.343398	-0.493772	0	
1.3680	-2.46622	-2.66637	0	
1.3687	-2.46622	-3.25889	0	
1.3693	1.18628	-0.839412	0	
1.3700	-0.343398	0.691281	0	
1.3707	-5.21341	1.33318	0	
1.3713	-4.30808	1.62945	0	
1.3720	-1.5609	0.395018	0	
1.3727	-2.15404	-2.32073	0	
1.3733	-0.62436	-1.43194	0	
1.3740	-1.24872	2.51824	0	
1.3747	-3.68372	4.04893	0	
1.3753	-3.37154	2.22197	0	
1.3760	-2.7784	0.395018	0	
1.3767	-3.9959	0.0987544	0	
1.3773	-2.46622	0.395018	0	
1.3780	0.593142	1.33318	0	
1.3787	2.09161	2.22197	0	
1.3793	3.34033	2.51824	0	
1.3800	4.55783	2.22197	0	
1.3807	4.55783	1.62945	0	
1.3813	5.15097	1.33318	0	
1.3820	3.62129	2.22197	0	
1.3827	0.280962	3.16014	0	
1.3833	1.18628	1.33318	0	
1.3840	3.93347	-0.493772	0	
1.3847	3.02815	0.0987544	0	
1.3853	0.280962	0.395018	0	
1.3860	-1.5609	-0.493772	0	
1.3867	-1.24872	-1.43194	0	
1.3873	1.49846	-2.32073	0	
1.3880	2.09161	-3.25889	0	
1.3887	-1.5609	-3.25889	0	
1.3893	-2.7784	-4.19706	0	
1.3900	-0.343398	-4.49332	0	
1.3907	1.18628	-1.43194	0	
1.3913	1.49846	1.92571	0	
1.3920	1.49846	1.92571	0	
1.3927	-0.62436	1.33318	0	
1.3933	-0.031218	2.51824	0	
1.3940	2.71597	2.51824	0	
1.3947	1.18628	1.33318	0	
1.3953	-2.46622	-0.839412	0	
1.3960	-3.37154	-5.08585	0	
1.3967	-4.30808	-6.91281	0	
1.3973	-5.21341	-4.19706	0	
1.3980	-5.52559	-1.43194	0	
1.3987	-7.36745	-0.493772	0	
1.3993	-8.27277	1.92571	0	
1.4000	-5.83777	4.04893	0	
1.4007	-4.90123	2.51824	0	
1.4013	-6.11873	0.395018	0	
1.4020	-3.9959	1.33318	0	
1.4027	-2.46622	4.04893	0	
1.4033	-5.21341	5.57962	0	
1.4040	-6.43091	5.28336	0	
1.4047	-5.83777	4.39457	0	
1.4053	-8.27277	1.62945	0	
1.4060	-9.49027	-2.32073	0	
1.4067	-6.11873	-4.78959	0	
1.4073	-2.7784	-4.49332	0	
1.4080	-1.87308	-2.02446	0	
1.4087	-0.62436	-0.197509	0	
1.4093	0.874104	-3.25889	0	
1.4100	1.49846	-6.91281	0	
1.4107	1.81064	-7.20907	0	
1.4113	3.02815	-6.02402	0	
1.4120	5.77533	-5.08585	0	
1.4127	5.77533	-3.25889	0	
1.4133	5.15097	-1.7282	0	
1.4140	7.58597	-0.839412	0	
1.4147	9.42784	-0.493772	0	
1.4153	6.99283	-0.839412	0	
1.4160	4.55783	0.395018	0	
1.4167	4.55783	2.86388	0	
1.4173	5.77533	2.51824	0	
1.4180	5.46315	1.62945	0	
1.4187	1.81064	3.16014	0	
1.4193	-0.62436	0.691281	0	
1.4200	3.02815	-3.25889	0	
1.4207	4.24565	-0.197509	0	
1.4213	0.280962	4.04893	0	
1.4220	-0.031218	1.62945	0	
1.4227	3.93347	-2.02446	0	
1.4233	3.62129	-3.25889	0	
1.4240	0.593142	-3.55516	0	
1.4247	-0.343398	-2.66637	0	
1.4253	-0.031218	0.395018	0	
1.4260	-0.031218	4.04893	0	
1.4267	-1.87308	6.22153	0	
1.4273	-3.37154	5.57962	0	
1.4280	-1.5609	1.33318	0	
1.4287	-0.343398	-2.32073	0	
1.4293	-2.46622	-2.66637	0	
1.4300	-2.7784	-1.43194	0	
1.4307	-0.031218	-2.32073	0	
1.4313	2.71597	-5.08585	0	
1.4320	3.34033	-5.08585	0	
1.4327	1.18628	-0.197509	0	
1.4333	-1.24872	3.75267	0	
1.4340	0.280962	2.86388	0	
1.4347	2.09161	1.62945	0	
1.4353	0.593142	4.9871	0	
1.4360	-1.87308	8.34475	0	
1.4367	-3.09058	7.75222	0	
1.4373	-1.24872	5.28336	0	
1.4380	3.02815	4.9871	0	
1.4387	4.83879	3.75267	0	
1.4393	1.81064	0.0987544	0	
1.4400	-1.5609	-1.7282	0	
1.4407	-1.5609	-0.839412	0	
1.4413	-0.93654	-0.839412	0	
1.4420	-0.343398	-1.7282	0	
1.4427	0.874104	-0.493772	0	
1.4433	-0.93654	-0.839412	0	
1.4440	-4.30808	-4.19706	0	
1.4447	-3.09058	-6.02402	0	
1.4453	-0.62436	-3.85142	0	
1.4460	-1.24872	-3.25889	0	
1.4467	-2.7784	-4.19706	0	
1.4473	-4.30808	-4.78959	0	
1.4480	-7.05527	-4.19706	0	
1.4487	-7.05527	-4.49332	0	
1.4493	-3.37154	-3.55516	0	
1.4500	-0.93654	-2.32073	0	
1.4507	-0.62436	-1.7282	0	
1.4513	1.18628	-0.839412	0	
1.4520	2.09161	-0.493772	0	
1.4527	-0.62436	-2.66637	0	
1.4533	-3.37154	-2.32073	0	
1.4540	-2.15404	2.22197	0	
1.4547	0.280962	3.4564	0	
1.4553	-0.62436	1.03692	0	
1.4560	-5.21341	0.395018	0	
1.4567	-6.11873	3.16014	0	
1.4573	-3.37154	4.39457	0	
1.4580	-2.7784	4.39457	0	
1.4587	-5.21341	5.28336	0	
1.4593	-3.9959	5.28336	0	
1.4600	-0.62436	2.22197	0	
1.4607	0.280962	1.33318	0	
1.4613	-0.62436	4.04893	0	
1.4620	-0.93654	4.04893	0	
1.4627	-1.24872	1.03692	0	
1.4633	0.280962	3.16014	0	
1.4640	3.34033	4.39457	0	
1.4647	3.93347	0.395018	0	
1.4653	2.09161	0.0987544	0	
1.4660	2.71597	3.16014	0	
1.4667	3.93347	4.04893	0	
1.4673	4.83879	4.9871	0	
1.4680	4.24565	4.9871	0	
1.4687	2.09161	1.33318	0	
1.4693	0.874104	2.51824	0	
1.4700	2.71597	4.9871	0	
1.4707	3.93347	1.92571	0	
1.4713	2.09161	0.395018	0	
1.4720	1.18628	2.51824	0	
1.4727	2.09161	2.22197	0	
1.4733	1.18628	3.16014	0	
1.4740	-0.62436	6.81405	0	
1.4747	-1.87308	8.64101	0	
1.4753	-3.37154	7.11032	0	
1.4760	-4.30808	6.51779	0	
1.4767	-2.46622	5.57962	0	
1.4773	-1.24872	3.16014	0	
1.4780	-1.5609	2.22197	0	
1.4787	-0.62436	3.75267	0	
1.4793	0.593142	2.22197	0	
1.4800	-0.93654	-2.66637	0	
1.4807	-3.37154	-0.839412	0	
1.4813	-4.30808	4.9871	0	
1.4820	-5.21341	3.4564	0	
1.4827	-6.11873	1.03692	0	
1.4833	-2.15404	4.39457	0	
1.4840	3.02815	3.75267	0	
1.4847	3.02815	-0.493772	0	
1.4853	0.280962	-0.493772	0	
1.4860	0.593142	-1.13568	0	
1.4867	3.02815	-5.38211	0	
1.4873	3.02815	-6.91281	0	
1.4880	2.40379	-6.91281	0	
1.4887	3.02815	-8.73976	0	
1.4893	3.62129	-10.5667	0	
1.4900	3.62129	-10.5667	0	
1.4907	4.24565	-9.67793	0	
1.4913	6.68065	-7.20907	0	
1.4920	8.52251	-5.08585	0	
1.4927	7.58597	-2.02446	0	
1.4933	6.68065	1.03692	0	
1.4940	8.52251	-2.02446	0	
1.4947	10.0522	-6.91281	0	
1.4953	6.68065	-6.61654	0	
1.4960	3.02815	-3.25889	0	
1.4967	2.40379	-0.197509	0	
1.4973	-0.031218	1.03692	0	
1.4980	-3.09058	0.395018	0	
1.4987	-2.15404	0.691281	0	
1.4993	-0.62436	1.03692	0	
1.5000	-1.5609	-2.02446	0	
1.5007	-1.87308	-4.78959	0	
1.5013	-1.5609	-4.19706	0	
1.5020	-2.15404	-2.32073	0	
1.5027	-3.09058	-1.43194	0	
1.5033	-4.30808	-2.96263	0	
1.5040	-4.90123	-5.08585	0	
1.5047	-3.37154	-4.19706	0	
1.5053	-0.343398	-2.66637	0	
1.5060	0.280962	-2.32073	0	
1.5067	-0.343398	0.0987544	0	
1.5073	0.593142	1.03692	0	
1.5080	0.593142	-2.66637	0	
1.5087	-0.62436	-3.55516	0	
1.5093	-0.031218	-3.25889	0	
1.5100	-0.62436	-6.61654	0	
1.5107	-2.46622	-6.91281	0	
1.5113	-0.62436	-2.32073	0	
1.5120	1.49846	-2.02446	0	
1.5127	-0.62436	-4.49332	0	
1.5133	-2.46622	-4.19706	0	
1.5140	-2.15404	-4.49332	0	
1.5147	-2.46622	-4.78959	0	
1.5153	-1.5609	-0.839412	0	
1.5160	-0.93654	3.16014	0	
1.5167	-3.37154	3.4564	0	
1.5173	-3.9959	1.33318	0	
1.5180	-2.46622	-2.66637	0	
1.5187	-2.46622	-6.02402	0	
1.5193	-0.343398	-5.08585	0	
1.5200	3.02815	-2.96263	0	
1.5207	2.40379	-2.96263	0	
1.5213	1.18628	-3.25889	0	
1.5220	3.34033	-2.96263	0	
1.5227	4.24565	-2.66637	0	
1.5233	1.18628	1.33318	0	
1.5240	-1.5609	4.9871	0	
1.5247	-1.24872	1.92571	0	
1.5253	1.49846	-4.19706	0	
1.5260	2.71597	-7.20907	0	
1.5267	-0.031218	-8.73976	0	
1.5273	-2.15404	-7.20907	0	
1.5280	0.280962	-2.66637	0	
1.5287	2.71597	-1.43194	0	
1.5293	1.18628	-2.96263	0	
1.5300	-0.031218	-2.02446	0	
1.5307	0.280962	-2.66637	0	
1.5313	2.71597	-5.38211	0	
1.5320	5.15097	-3.85142	0	
1.5327	4.55783	0.0987544	0	
1.5333	1.49846	2.22197	0	
1.5340	1.49846	4.04893	0	
1.5347	3.02815	4.9871	0	
1.5353	1.81064	5.87589	0	
1.5360	0.280962	9.23353	0	
1.5367	2.09161	9.57918	0	
1.5373	2.09161	4.04893	0	
1.5380	-0.343398	2.51824	0	
1.5387	-0.62436	7.75222	0	
1.5393	1.18628	8.64101	0	
1.5400	0.874104	3.75267	0	
1.5407	-0.031218	-0.493772	0	
1.5413	2.09161	-0.493772	0	
1.5420	3.93347	2.51824	0	
1.5427	1.49846	5.57962	0	
1.5433	1.18628	4.69083	0	
1.5440	3.02815	2.51824	0	
1.5447	2.71597	3.75267	0	
1.5453	2.09161	5.57962	0	
1.5460	4.55783	4.9871	0	
1.5467	5.77533	4.04893	0	
1.5473	3.62129	3.4564	0	
1.5480	2.71597	1.62945	0	
1.5487	4.55783	-1.13568	0	
1.5493	4.83879	-2.02446	0	
1.5500	3.02815	-1.43194	0	
1.5507	2.09161	-3.25889	0	
1.5513	4.24565	-7.20907	0	
1.5520	5.15097	-7.85097	0	
1.5527	3.34033	-6.91281	0	
1.5533	0.593142	-8.14724	0	
1.5540	-2.46622	-6.91281	0	
1.5547	-4.30808	-3.25889	0	
1.5553	-3.9959	-3.85142	0	
1.5560	-4.30808	-6.91281	0	
1.5567	-6.11873	-6.02402	0	
1.5573	-6.11873	-4.19706	0	
1.5580	-3.09058	-2.66637	0	
1.5587	-2.46622	-1.43194	0	
1.5593	-4.30808	-2.32073	0	
1.5600	-3.37154	-4.49332	0	
1.5607	-1.5609	-4.19706	0	
1.5613	-2.46622	-1.7282	0	
1.5620	-2.7784	-1.43194	0	
1.5627	-1.5609	-2.66637	0	
1.5633	-4.30808	-2.66637	0	
1.5640	-7.36745	0.395018	0	
1.5647	-3.9959	4.04893	0	
1.5653	-3.37154	3.4564	0	
1.5660	-7.36745	-0.197509	0	
1.5667	-7.05527	-1.43194	0	
1.5673	-6.74309	1.92571	0	
1.5680	-9.80245	4.9871	0	
1.5687	-8.58495	3.4564	0	
1.5693	-6.11873	0.0987544	0	
1.5700	-7.36745	-2.66637	0	
1.5707	-6.43091	-3.25889	0	
1.5713	-3.37154	-2.32073	0	
1.5720	-3.09058	-1.43194	0	
1.5727	-1.87308	-0.197509	0	
1.5733	-0.62436	1.92571	0	
1.5740	-2.46622	2.22197	0	
1.5747	-2.46622	1.33318	0	
1.5753	0.280962	2.22197	0	
1.5760	-2.46622	4.04893	0	
1.5767	-6.11873	3.75267	0	
1.5773	-4.30808	1.33318	0	
1.5780	-1.5609	0.0987544	0	
1.5787	-1.24872	-1.7282	0	
1.5793	-1.24872	-4.19706	0	
1.5800	-1.87308	-3.55516	0	
1.5807	-2.46622	0.0987544	0	
1.5813	-2.7784	0.395018	0	
1.5820	-3.37154	-2.96263	0	
1.5827	-3.37154	-3.25889	0	
1.5833	-1.87308	-1.43194	0	
1.5840	-0.62436	-2.32073	0	
1.5847	-0.62436	-2.02446	0	
1.5853	1.81064	0.691281	0	
1.5860	4.24565	1.92571	0	
1.5867	3.02815	1.33318	0	
1.5873	1.18628	-0.197509	0	
1.5880	1.18628	-2.66637	0	
1.5887	1.18628	-2.32073	0	
1.5893	0.874104	-0.197509	0	
1.5900	-0.031218	0.0987544	0	
1.5907	-1.5609	2.22197	0	
1.5913	-0.93654	7.75222	0	
1.5920	0.593142	8.64101	0	
1.5927	0.280962	4.69083	0	
1.5933	-0.62436	2.51824	0	
1.5940	0.593142	1.92571	0	
1.5947	0.280962	1.03692	0	
1.5953	-2.46622	2.86388	0	
1.5960	-2.7784	6.81405	0	
1.5967	-1.87308	9.87544	0	
1.5973	-1.5609	10.1717	0	
1.5980	-1.5609	5.87589	0	
1.5987	-3.09058	0.395018	0	
1.5993	-5.21341	-2.02446	0	
1.6000	-3.37154	-2.32073	0	
1.6007	-0.343398	-2.32073	0	
1.6013	-0.62436	-2.02446	0	
1.6020	-0.031218	-1.43194	0	
1.6027	-0.343398	-1.43194	0	
1.6033	-2.7784	-0.493772	0	
1.6040	-2.46622	0.395018	0	
1.6047	-0.343398	0.0987544	0	
1.6053	-1.24872	0.0987544	0	
1.6060	-0.62436	-0.493772	0	
1.6067	0.874104	-0.839412	0	
1.6073	0.280962	1.62945	0	
1.6080	0.874104	4.04893	0	
1.6087	2.71597	2.22197	0	
1.6093	2.71597	0.395018	0	
1.6100	3.02815	2.22197	0	
1.6107	2.71597	3.16014	0	
1.6113	1.49846	1.33318	0	
1.6120	4.55783	-0.197509	0	
1.6127	5.77533	-0.493772	0	
1.6133	1.49846	0.395018	0	
1.6140	0.280962	1.33318	0	
1.6147	3.02815	1.03692	0	
1.6153	3.02815	0.395018	0	
1.6160	3.34033	1.03692	0	
1.6167	4.55783	0.395018	0	
1.6173	2.71597	-3.25889	0	
1.6180	1.18628	-4.78959	0	
1.6187	3.34033	-2.96263	0	
1.6193	5.15097	-4.19706	0	
1.6200	3.93347	-8.73976	0	
1.6207	1.81064	-7.20907	0	
1.6213	0.593142	-0.197509	0	
1.6220	-0.93654	1.03692	0	
1.6227	-2.46622	-1.7282	0	
1.6233	-2.46622	-1.43194	0	
1.6240	-2.15404	0.395018	0	
1.6247	-3.09058	0.395018	0	
1.6253	-2.46622	1.62945	0	
1.6260	-0.62436	2.51824	0	
1.6267	-0.93654	2.22197	0	
1.6273	-1.87308	2.22197	0	
1.6280	0.280962	-0.493772	0	
1.6287	3.02815	-3.85142	0	
1.6293	4.55783	-2.32073	0	
1.6300	6.68065	1.03692	0	
1.6307	8.52251	-1.43194	0	
1.6313	6.99283	-4.19706	0	
1.6320	4.55783	-1.43194	0	
1.6327	3.62129	1.33318	0	
1.6333	2.09161	1.33318	0	
1.6340	0.593142	1.62945	0	
1.6347	2.40379	1.03692	0	
1.6353	6.36847	-2.32073	0	
1.6360	6.99283	-3.55516	0	
1.6367	3.93347	-2.32073	0	
1.6373	2.40379	-2.32073	0	
1.6380	3.02815	-2.02446	0	
1.6387	2.09161	-1.7282	0	
1.6393	0.280962	-3.85142	0	
1.6400	1.49846	-3.25889	0	
1.6407	1.18628	1.33318	0	
1.6413	-0.62436	0.691281	0	
1.6420	1.18628	-4.78959	0	
1.6427	2.40379	-6.61654	0	
1.6433	-0.62436	-4.19706	0	
1.6440	-1.5609	-1.7282	0	
1.6447	-2.46622	-0.197509	0	
1.6453	-4.62026	0.691281	0	
1.6460	-1.87308	1.33318	0	
1.6467	0.280962	2.86388	0	
1.6473	-4.30808	2.22197	0	
1.6480	-5.52559	-3.25889	0	
1.6487	-2.15404	-8.4435	0	
1.6493	-2.46622	-6.91281	0	
1.6500	-4.30808	-3.85142	0	
1.6507	-3.37154	-1.7282	0	
1.6513	-3.37154	1.03692	0	
1.6520	-2.7784	3.16014	0	
1.6527	-0.343398	4.04893	0	
1.6533	0.874104	4.9871	0	
1.6540	0.874104	3.4564	0	
1.6547	0.593142	0.395018	0	
1.6553	0.593142	-0.493772	0	
1.6560	1.81064	-0.493772	0	
1.6567	2.09161	0.0987544	0	
1.6573	1.18628	4.69083	0	
1.6580	-0.343398	5.28336	0	
1.6587	-1.5609	0.395018	0	
1.6593	-0.343398	-0.839412	0	
1.6600	1.81064	2.22197	0	
1.6607	-0.93654	1.33318	0	
1.6613	-3.37154	0.395018	0	
1.6620	-2.15404	2.22197	0	
1.6627	-1.5609	2.22197	0	
1.6633	-2.46622	1.03692	0	
1.6640	-0.93654	2.51824	0	
1.6647	0.280962	3.4564	0	
1.6653	0.280962	2.22197	0	
1.6660	1.49846	1.33318	0	
1.6667	2.09161	1.03692	0	
1.6673	1.49846	1.03692	0	
1.6680	1.18628	0.395018	0	
1.6687	-0.93654	0.395018	0	
1.6693	-2.7784	-0.197509	0	
1.6700	-1.5609	-2.02446	0	
1.6707	-0.343398	-2.32073	0	
1.6713	-1.5609	-1.43194	0	
1.6720	-1.5609	-4.49332	0	
1.6727	-0.62436	-9.67793	0	
1.6733	-1.5609	-10.5667	0	
1.6740	-1.5609	-9.03603	0	
1.6747	1.18628	-6.61654	0	
1.6753	0.280962	-2.66637	0	
1.6760	-3.9959	-0.493772	0	
1.6767	-4.62026	-1.7282	0	
1.6773	-4.30808	-3.25889	0	
1.6780	-4.30808	-2.32073	0	
1.6787	-1.87308	-0.839412	0	
1.6793	-1.24872	0.395018	0	
1.6800	-3.9959	0.395018	0	
1.6807	-2.46622	-1.43194	0	
1.6813	-0.343398	-2.66637	0	
1.6820	-2.7784	-0.839412	0	
1.6827	-1.5609	-1.43194	0	
1.6833	1.49846	-4.49332	0	
1.6840	-1.87308	-3.85142	0	
1.6847	-4.62026	-1.43194	0	
1.6853	-1.5609	-2.96263	0	
1.6860	-2.46622	-5.38211	0	
1.6867	-5.21341	-4.78959	0	
1.6873	-4.62026	-4.19706	0	
1.6880	-5.52559	-3.25889	0	
1.6887	-8.86591	-0.839412	0	
1.6893	-8.58495	-0.197509	0	
1.6900	-5.21341	-1.7282	0	
1.6907	-1.5609	-3.25889	0	
1.6913	0.280962	-5.08585	0	
1.6920	-0.031218	-6.02402	0	
1.6927	0.280962	-4.19706	0	
1.6933	2.71597	-3.55516	0	
1.6940	1.18628	-3.55516	0	
1.6947	0.280962	-1.7282	0	
1.6953	2.09161	-0.493772	0	
1.6960	1.49846	-1.7282	0	
1.6967	0.593142	-2.32073	0	
1.6973	2.40379	0.0987544	0	
1.6980	1.49846	4.04893	0	
1.6987	-0.93654	5.87589	0	
1.6993	-0.62436	4.69083	0	
1.7000	-0.62436	2.86388	0	
1.7007	-1.5609	2.22197	0	
1.7013	3.62129	1.62945	0	
1.7020	6.08751	2.22197	0	
1.7027	1.49846	3.4564	0	
1.7033	0.280962	2.22197	0	
1.7040	2.40379	0.0987544	0	
1.7047	-0.93654	0.0987544	0	
1.7053	-4.90123	0.0987544	0	
1.7060	-3.37154	-0.197509	0	
1.7067	-3.37154	-0.197509	0	
1.7073	-6.43091	0.395018	0	
1.7080	-4.30808	1.62945	0	
1.7087	-0.62436	1.33318	0	
1.7093	-0.62436	1.33318	0	
1.7100	0.280962	5.87589	0	
1.7107	2.09161	7.75222	0	
1.7113	-0.62436	2.22197	0	
1.7120	-3.68372	0.0987544	0	
1.7127	-1.5609	3.16014	0	
1.7133	0.874104	1.33318	0	
1.7140	1.81064	-1.7282	0	
1.7147	2.71597	-0.493772	0	
1.7153	3.34033	-0.197509	0	
1.7160	3.02815	-1.13568	0	
1.7167	3.62129	-1.43194	0	
1.7173	6.36847	-2.32073	0	
1.7180	7.58597	-1.7282	0	
1.7187	4.83879	2.86388	0	
1.7193	3.34033	7.75222	0	
1.7200	4.55783	11.1099	0	
1.7207	3.02815	11.9987	0	
1.7213	1.18628	7.75222	0	
1.7220	3.02815	-0.493772	0	
1.7227	2.40379	-6.02402	0	
1.7233	-1.5609	-3.85142	0	
1.7240	-2.15404	-0.197509	0	
1.7247	-1.87308	3.4564	0	
1.7253	-3.68372	7.11032	0	
1.7260	-3.09058	5.28336	0	
1.7267	-1.24872	0.691281	0	
1.7273	-2.46622	1.33318	0	
1.7280	-4.30808	2.51824	0	
1.7287	-5.21341	1.33318	0	
1.7293	-6.11873	4.39457	0	
1.7300	-7.05527	6.81405	0	
1.7307	-7.05527	4.04893	0	
1.7313	-6.11873	2.86388	0	
1.7320	-6.11873	0.691281	0	
1.7327	-7.36745	-3.55516	0	
1.7333	-6.11873	-2.96263	0	
1.7340	-5.21341	0.0987544	0	
1.7347	-8.86591	-1.43194	0	
1.7353	-7.96059	-0.493772	0	
1.7360	-1.87308	4.04893	0	
1.7367	-0.343398	5.57962	0	
1.7373	-1.24872	4.04893	0	
1.7380	2.09161	4.39457	0	
1.7387	4.83879	4.69083	0	
1.7393	3.93347	4.04893	0	
1.7400	2.09161	4.39457	0	
1.7407	1.18628	4.39457	0	
1.7413	1.49846	2.51824	0	
1.7420	1.18628	0.691281	0	
1.7427	-0.62436	3.16014	0	
1.7433	-0.031218	4.9871	0	
1.7440	1.18628	1.62945	0	
1.7447	-0.62436	-0.839412	0	
1.7453	1.18628	0.395018	0	
1.7460	6.68065	-0.197509	0	
1.7467	5.77533	-2.32073	0	
1.7473	1.49846	-2.96263	0	
1.7480	-0.343398	-5.08585	0	
1.7487	1.18628	-6.02402	0	
1.7493	4.55783	-2.32073	0	
1.7500	4.83879	-1.43194	0	
1.7507	-0.031218	-3.85142	0	
1.7513	-2.15404	-3.55516	0	
1.7520	0.874104	-2.02446	0	
1.7527	0.593142	-2.02446	0	
1.7533	-1.5609	-1.43194	0	
1.7540	-0.031218	-0.493772	0	
1.7547	2.40379	-1.13568	0	
1.7553	2.40379	-2.02446	0	
1.7560	2.09161	-2.32073	0	
1.7567	3.02815	-1.43194	0	
1.7573	5.15097	-1.13568	0	
1.7580	6.68065	-3.55516	0	
1.7587	4.24565	-5.08585	0	
1.7593	2.40379	-4.19706	0	
1.7600	3.62129	-2.96263	0	
1.7607	4.55783	-1.43194	0	
1.7613	4.83879	1.03692	0	
1.7620	6.99283	2.22197	0	
1.7627	6.68065	3.4564	0	
1.7633	3.93347	4.04893	0	
1.7640	3.34033	3.16014	0	
1.7647	1.81064	2.86388	0	
1.7653	-1.5609	3.16014	0	
1.7660	-1.87308	2.22197	0	
1.7667	-0.343398	1.62945	0	
1.7673	-0.62436	-0.197509	0	
1.7680	-2.15404	-4.19706	0	
1.7687	-1.87308	-5.38211	0	
1.7693	-0.62436	-3.25889	0	
1.7700	-0.62436	-3.55516	0	
1.7707	0.874104	-5.67838	0	
1.7713	2.09161	-5.67838	0	
1.7720	0.593142	-2.96263	0	
1.7727	1.18628	-0.839412	0	
1.7733	3.02815	-0.493772	0	
1.7740	0.280962	0.0987544	0	
1.7747	-2.46622	0.395018	0	
1.7753	-0.93654	0.0987544	0	
1.7760	0.593142	0.395018	0	
1.7767	-0.343398	-0.839412	0	
1.7773	1.18628	-6.02402	0	
1.7780	3.02815	-8.73976	0	
1.7787	2.71597	-5.08585	0	
1.7793	0.280962	-1.43194	0	
1.7800	-2.46622	-1.43194	0	
1.7807	-0.62436	-0.493772	0	
1.7813	1.49846	0.691281	0	
1.7820	-0.93654	-0.493772	0	
1.7827	-4.90123	-0.493772	0	
1.7833	-5.21341	2.22197	0	
1.7840	-5.52559	2.86388	0	
1.7847	-6.43091	0.0987544	0	
1.7853	-4.90123	-3.55516	0	
1.7860	-2.7784	-5.08585	0	
1.7867	-2.15404	-4.19706	0	
1.7873	-3.37154	-2.96263	0	
1.7880	-6.43091	-2.02446	0	
1.7887	-8.27277	0.0987544	0	
1.7893	-7.96059	-0.197509	0	
1.7900	-7.96059	-2.32073	0	
1.7907	-7.05527	-1.43194	0	
1.7913	-4.90123	1.92571	0	
1.7920	-3.68372	2.22197	0	
1.7927	-3.9959	0.395018	0	
1.7933	-5.21341	-1.7282	0	
1.7940	-7.05527	-2.32073	0	
1.7947	-7.36745	-1.13568	0	
1.7953	-5.52559	-2.66637	0	
1.7960	-5.21341	-4.19706	0	
1.7967	-7.36745	0.395018	0	
1.7973	-5.83777	4.04893	0	
1.7980	-0.62436	1.62945	0	
1.7987	1.18628	0.691281	0	
1.7993	0.280962	0.395018	0	
1.8000	-0.62436	-2.32073	0	
1.8007	-1.87308	-2.66637	0	
1.8013	-2.7784	-0.839412	0	
1.8020	-0.62436	0.0987544	0	
1.8027	1.81064	2.51824	0	
1.8033	1.81064	1.33318	0	
1.8040	1.18628	-4.78959	0	
1.8047	1.18628	-3.85142	0	
1.8053	0.593142	1.62945	0	
1.8060	1.18628	-1.7282	0	
1.8067	0.874104	-5.67838	0	
1.8073	-0.343398	-2.96263	0	
1.8080	0.280962	-2.02446	0	
1.8087	1.81064	-2.32073	0	
1.8093	2.71597	0.395018	0	
1.8100	3.62129	0.395018	0	
1.8107	3.34033	-0.493772	0	
1.8113	1.81064	2.22197	0	
1.8120	2.09161	2.51824	0	
1.8127	3.93347	0.395018	0	
1.8133	2.09161	1.33318	0	
1.8140	1.49846	3.16014	0	
1.8147	4.24565	3.16014	0	
1.8153	4.55783	4.69083	0	
1.8160	2.40379	4.69083	0	
1.8167	3.62129	0.395018	0	
1.8173	5.15097	-1.7282	0	
1.8180	2.71597	1.33318	0	
1.8187	0.280962	4.69083	0	
1.8193	2.09161	4.04893	0	
1.8200	3.62129	1.62945	0	
1.8207	3.02815	3.16014	0	
1.8213	2.40379	5.87589	0	
1.8220	2.40379	3.75267	0	
1.8227	0.593142	-1.43194	0	
1.8233	-1.87308	-5.08585	0	
1.8240	-1.24872	-7.85097	0	
1.8247	-0.031218	-7.85097	0	
1.8253	-1.87308	-2.96263	0	
1.8260	-4.30808	3.16014	0	
1.8267	-3.37154	4.9871	0	
1.8273	-1.5609	3.16014	0	
1.8280	-1.24872	-2.02446	0	
1.8287	-2.46622	-6.61654	0	
1.8293	-1.5609	-7.50533	0	
1.8300	-0.031218	-5.08585	0	
1.8307	-1.5609	-2.02446	0	
1.8313	-3.37154	-2.02446	0	
1.8320	-1.5609	-5.08585	0	
1.8327	1.18628	-6.32028	0	
1.8333	0.593142	-4.78959	0	
1.8340	0.280962	-3.25889	0	
1.8347	0.593142	-2.32073	0	
1.8353	-0.62436	-2.32073	0	
1.8360	-2.15404	-2.96263	0	
1.8367	-2.7784	-2.96263	0	
1.8373	-3.37154	-4.78959	0	
1.8380	-1.5609	-8.4435	0	
1.8387	-0.343398	-5.38211	0	
1.8393	-0.62436	0.691281	0	
1.8400	1.18628	-0.197509	0	
1.8407	5.15097	-3.25889	0	
1.8413	5.77533	-1.13568	0	
1.8420	3.93347	1.33318	0	
1.8427	2.71597	-0.493772	0	
1.8433	0.280962	-3.55516	0	
1.8440	-3.09058	-5.08585	0	
1.8447	-4.30808	-3.25889	0	
1.8453	-3.37154	-0.493772	0	
1.8460	-1.5609	0.691281	0	
1.8467	-2.46622	-1.13568	0	
1.8473	-6.43091	-6.32028	0	
1.8480	-7.05527	-9.67793	0	
1.8487	-4.30808	-6.61654	0	
1.8493	-2.7784	-3.25889	0	
1.8500	-2.7784	-1.43194	0	
1.8507	-1.5609	-0.493772	0	
1.8513	-1.5609	-2.32073	0	
1.8520	-3.37154	-4.78959	0	
1.8527	-2.46622	-3.25889	0	
1.8533	-0.62436	-2.96263	0	
1.8540	-0.93654	-4.19706	0	
1.8547	-1.87308	-3.25889	0	
1.8553	-0.62436	-2.32073	0	
1.8560	2.40379	-0.839412	0	
1.8567	5.15097	1.03692	0	
1.8573	4.24565	-0.493772	0	
1.8580	3.02815	-0.197509	0	
1.8587	5.15097	4.69083	0	
1.8593	6.36847	4.69083	0	
1.8600	1.81064	0.691281	0	
1.8607	-1.24872	1.03692	0	
1.8613	1.49846	0.395018	0	
1.8620	2.71597	-2.02446	0	
1.8627	0.280962	-1.43194	0	
1.8633	-0.93654	0.395018	0	
1.8640	-0.62436	2.86388	0	
1.8647	-0.93654	5.87589	0	
1.8653	-1.5609	5.87589	0	
1.8660	-0.93654	2.86388	0	
1.8667	-0.62436	1.33318	0	
1.8673	-1.5609	2.22197	0	
1.8680	-2.15404	4.04893	0	
1.8687	-0.62436	5.28336	0	
1.8693	0.593142	2.51824	0	
1.8700	-0.62436	-0.493772	0	
1.8707	-1.24872	1.33318	0	
1.8713	-0.62436	6.51779	0	
1.8720	-0.93654	8.34475	0	
1.8727	-0.343398	6.22153	0	
1.8733	3.34033	2.86388	0	
1.8740	6.68065	-0.197509	0	
1.8747	8.21033	-2.32073	0	
1.8753	10.3332	-2.96263	0	
1.8760	11.8628	-1.7282	0	
1.8767	8.83469	-0.197509	0	
1.8773	4.83879	2.51824	0	
1.8780	3.34033	6.22153	0	
1.8787	1.49846	8.34475	0	
1.8793	-1.24872	8.93727	0	
1.8800	-2.46622	9.23353	0	
1.8807	-3.9959	8.34475	0	
1.8813	-6.74309	5.87589	0	
1.8820	-7.36745	2.86388	0	
1.8827	-7.05527	0.0987544	0	
1.8833	-7.05527	-0.493772	0	
1.8840	-8.58495	1.33318	0	
1.8847	-9.80245	1.92571	0	
1.8853	-8.86591	1.92571	0	
1.8860	-6.11873	3.75267	0	
1.8867	-7.36745	4.69083	0	
1.8873	-8.86591	2.22197	0	
1.8880	-5.21341	2.22197	0	
1.8887	-0.62436	5.57962	0	
1.8893	1.49846	3.4564	0	
1.8900	2.71597	-2.32073	0	
1.8907	1.49846	-2.32073	0	
1.8913	-1.24872	0.395018	0	
1.8920	-1.24872	1.33318	0	
1.8927	1.18628	-0.493772	0	
1.8933	0.593142	-5.67838	0	
1.8940	-0.62436	-9.67793	0	
1.8947	-0.031218	-7.20907	0	
1.8953	-0.62436	-7.50533	0	
1.8960	-1.5609	-12.3937	0	
1.8967	0.280962	-11.2086	0	
1.8973	2.09161	-5.67838	0	
1.8980	2.09161	-4.78959	0	
1.8987	2.09161	-4.78959	0	
1.8993	3.02815	-2.66637	0	
1.9000	2.09161	-2.32073	0	
1.9007	1.49846	-2.96263	0	
1.9013	2.09161	-3.25889	0	
1.9020	3.02815	-2.32073	0	
1.9027	4.24565	0.0987544	0	
1.9033	5.15097	-0.493772	0	
1.9040	3.02815	-3.25889	0	
1.9047	-0.343398	-3.25889	0	
1.9053	-0.62436	-1.7282	0	
1.9060	-0.62436	-2.32073	0	
1.9067	-3.37154	-1.7282	0	
1.9073	-4.62026	-0.493772	0	
1.9080	-3.09058	-0.839412	0	
1.9087	-2.7784	-2.32073	0	
1.9093	-3.68372	-4.49332	0	
1.9100	-3.37154	-5.08585	0	
1.9107	-2.7784	-2.32073	0	
1.9113	-2.46622	-0.197509	0	
1.9120	-0.93654	-0.197509	0	
1.9127	0.593142	-0.839412	0	
1.9133	2.71597	-2.96263	0	
1.9140	2.71597	-6.02402	0	
1.9147	0.593142	-4.78959	0	
1.9153	-0.343398	0.0987544	0	
1.9160	-1.24872	2.51824	0	
1.9167	-3.9959	2.22197	0	
1.9173	-3.37154	2.86388	0	
1.9180	-1.24872	4.69083	0	
1.9187	-2.15404	4.9871	0	
1.9193	-2.46622	4.69083	0	
1.9200	-2.15404	3.16014	0	
1.9207	-4.30808	-0.197509	0	
1.9213	-5.21341	0.395018	0	
1.9220	-2.46622	2.86388	0	
1.9227	-0.62436	2.22197	0	
1.9233	-1.87308	1.33318	0	
1.9240	-3.37154	3.16014	0	
1.9247	-5.83777	3.4564	0	
1.9253	-6.11873	3.16014	0	
1.9260	-1.87308	4.04893	0	
1.9267	1.18628	2.22197	0	
1.9273	-0.62436	-1.7282	0	
1.9280	-3.68372	-1.13568	0	
1.9287	-3.9959	1.33318	0	
1.9293	-3.37154	0.395018	0	
1.9300	-3.9959	-1.43194	0	
1.9307	-3.37154	0.691281	0	
1.9313	-1.24872	1.33318	0	
1.9320	0.593142	-2.32073	0	
1.9327	1.49846	-4.78959	0	
1.9333	3.02815	-4.49332	0	
1.9340	5.77533	-3.55516	0	
1.9347	9.11566	-2.02446	0	
1.9353	9.42784	-0.493772	0	
1.9360	6.68065	-0.839412	0	
1.9367	5.46315	-0.197509	0	
1.9373	6.99283	2.86388	0	
1.9380	6.68065	3.16014	0	
1.9387	4.55783	2.22197	0	
1.9393	5.15097	4.04893	0	
1.9400	7.89815	3.75267	0	
1.9407	9.11566	-0.197509	0	
1.9413	8.52251	-1.43194	0	
1.9420	9.11566	0.395018	0	
1.9427	9.11566	1.92571	0	
1.9433	6.36847	3.16014	0	
1.9440	3.62129	4.39457	0	
1.9447	4.55783	3.75267	0	
1.9453	4.55783	4.04893	0	
1.9460	1.49846	5.87589	0	
1.9467	-0.62436	5.87589	0	
1.9473	-1.5609	2.51824	0	
1.9480	-3.37154	2.51824	0	
1.9487	-3.68372	6.81405	0	
1.9493	-4.30808	7.75222	0	
1.9500	-7.05527	3.16014	0	
1.9507	-7.36745	0.691281	0	
1.9513	-5.52559	2.51824	0	
1.9520	-5.21341	3.16014	0	
1.9527	-5.21341	0.395018	0	
1.9533	-4.30808	-2.96263	0	
1.9540	-2.46622	-5.08585	0	
1.9547	0.593142	-3.25889	0	
1.9553	0.593142	0.395018	0	
1.9560	-2.46622	1.03692	0	
1.9567	-0.93654	-0.493772	0	
1.9573	1.81064	0.395018	0	
1.9580	0.593142	0.395018	0	
1.9587	0.593142	-0.493772	0	
1.9593	1.81064	1.03692	0	
1.9600	-0.93654	1.92571	0	
1.9607	-2.15404	0.691281	0	
1.9613	0.874104	1.33318	0	
1.9620	1.49846	1.03692	0	
1.9627	-0.343398	-2.66637	0	
1.9633	-1.5609	-3.55516	0	
1.9640	-1.5609	-0.493772	0	
1.9647	-0.62436	-0.197509	0	
1.9653	-2.15404	-2.32073	0	
1.9660	-4.90123	-4.49332	0	
1.9667	-4.30808	-6.91281	0	
1.9673	-1.24872	-7.85097	0	
1.9680	-0.93654	-7.20907	0	
1.9687	-1.87308	-8.73976	0	
1.9693	0.280962	-9.67793	0	
1.9700	2.71597	-4.49332	0	
1.9707	1.81064	-1.43194	0	
1.9713	0.280962	-2.96263	0	
1.9720	0.280962	-2.32073	0	
1.9727	0.280962	-1.43194	0	
1.9733	-0.93654	-5.08585	0	
1.9740	-0.031218	-6.61654	0	
1.9747	0.874104	-2.66637	0	
1.9753	-0.62436	-1.43194	0	
1.9760	-0.93654	-3.25889	0	
1.9767	-1.5609	-3.85142	0	
1.9773	-4.30808	-3.85142	0	
1.9780	-4.90123	-4.49332	0	
1.9787	-4.30808	-1.7282	0	
1.9793	-5.52559	2.22197	0	
1.9800	-6.74309	4.39457	0	
1.9807	-6.74309	6.51779	0	
1.9813	-8.58495	7.40658	0	
1.9820	-8.86591	4.04893	0	
1.9827	-6.11873	-0.493772	0	
1.9833	-5.21341	-1.13568	0	
1.9840	-6.43091	1.92571	0	
1.9847	-5.83777	4.39457	0	
1.9853	-4.62026	4.9871	0	
1.9860	-6.11873	4.9871	0	
1.9867	-6.11873	4.69083	0	
1.9873	-3.37154	1.03692	0	
1.9880	-2.7784	-0.839412	0	
1.9887	-4.62026	2.22197	0	
1.9893	-3.37154	2.22197	0	
1.9900	-0.93654	-1.43194	0	
1.9907	-2.46622	-1.13568	0	
1.9913	-3.68372	0.691281	0	
1.9920	-2.7784	0.395018	0	
1.9927	-3.37154	-0.197509	0	
1.9933	-4.62026	-3.55516	0	
1.9940	-1.87308	-6.91281	0	
1.9947	0.280962	-1.13568	0	
1.9953	-0.031218	7.11032	0	
1.9960	0.593142	7.40658	0	
1.9967	0.280962	5.87589	0	
1.9973	-2.15404	4.39457	0	
1.9980	-2.7784	-1.43194	0	
1.9987	0.280962	-2.32073	0	
1.9993	2.09161	3.16014	0	
2.0000	0.874104	3.16014	0	
2.0007	-2.46622	-2.02446	0	
2.0013	-2.15404	-4.19706	0	
2.0020	2.40379	-3.85142	0	
2.0027	3.93347	-2.66637	0	
2.0033	1.18628	0.395018	0	
2.0040	3.02815	1.92571	0	
2.0047	5.15097	0.0987544	0	
2.0053	1.81064	-1.43194	0	
2.0060	-0.62436	-1.43194	0	
2.0067	0.280962	-2.02446	0	
2.0073	-0.343398	-2.32073	0	
2.0080	-0.62436	-0.493772	0	
2.0087	0.593142	1.92571	0	
2.0093	-1.87308	2.86388	0	
2.0100	-2.7784	2.22197	0	
2.0107	1.49846	0.395018	0	
2.0113	3.93347	-0.839412	0	
2.0120	3.02815	0.395018	0	
2.0127	1.49846	4.9871	0	
2.0133	-0.031218	7.11032	0	
2.0140	1.18628	3.4564	0	
2.0147	3.93347	0.395018	0	
2.0153	3.02815	2.51824	0	
2.0160	2.40379	4.69083	0	
2.0167	3.02815	4.04893	0	
2.0173	0.280962	4.69083	0	
2.0180	-1.5609	4.04893	0	
2.0187	-0.031218	1.92571	0	
2.0193	-2.15404	2.51824	0	
2.0200	-3.37154	4.04893	0	
2.0207	0.280962	3.16014	0	
2.0213	1.18628	2.22197	0	
2.0220	-1.24872	1.62945	0	
2.0227	-0.343398	0.395018	0	
2.0233	1.18628	1.33318	0	
2.0240	1.18628	1.62945	0	
2.0247	1.49846	-1.7282	0	
2.0253	2.09161	-3.25889	0	
2.0260	3.02815	-0.197509	0	
2.0267	5.15097	1.33318	0	
2.0273	5.15097	0.691281	0	
2.0280	3.62129	-0.493772	0	
2.0287	3.34033	-2.32073	0	
2.0293	4.55783	-2.32073	0	
2.0300	5.46315	-1.43194	0	
2.0307	5.77533	-5.08585	0	
2.0313	3.93347	-9.03603	0	
2.0320	2.09161	-8.73976	0	
2.0327	2.09161	-7.85097	0	
2.0333	1.81064	-9.67793	0	
2.0340	1.18628	-10.863	0	
2.0347	0.874104	-10.2705	0	
2.0353	2.09161	-8.73976	0	
2.0360	5.77533	-8.14724	0	
2.0367	6.36847	-6.02402	0	
2.0373	3.02815	-2.66637	0	
2.0380	0.874104	-3.25889	0	
2.0387	0.593142	-6.32028	0	
2.0393	-2.15404	-4.78959	0	
2.0400	-4.30808	-1.43194	0	
2.0407	-3.9959	-2.66637	0	
2.0413	-6.11873	-6.02402	0	
2.0420	-7.36745	-7.50533	0	
2.0427	-3.37154	-6.61654	0	
2.0433	-1.5609	-2.02446	0	
2.0440	-5.21341	3.4564	0	
2.0447	-4.90123	4.9871	0	
2.0453	-1.5609	4.39457	0	
2.0460	-1.5609	3.16014	0	
2.0467	-2.15404	2.22197	0	
2.0473	-1.24872	2.22197	0	
2.0480	-2.15404	-0.197509	0	
2.0487	-2.46622	-4.78959	0	
2.0493	-1.24872	-5.08585	0	
2.0500	-3.09058	-1.43194	0	
2.0507	-4.30808	0.395018	0	
2.0513	-2.46622	0.395018	0	
2.0520	-2.46622	0.395018	0	
2.0527	-3.09058	0.395018	0	
2.0533	-0.031218	1.33318	0	
2.0540	0.593142	0.691281	0	
2.0547	-2.7784	-1.43194	0	
2.0553	-2.7784	-2.32073	0	
2.0560	-0.031218	-3.25889	0	
2.0567	-1.24872	-7.20907	0	
2.0573	-2.15404	-9.97419	0	
2.0580	0.280962	-8.73976	0	
2.0587	2.09161	-8.73976	0	
2.0593	1.49846	-8.73976	0	
2.0600	1.81064	-4.19706	0	
2.0607	2.40379	-0.839412	0	
2.0613	3.62129	-1.43194	0	
2.0620	4.55783	-0.493772	0	
2.0627	3.02815	1.03692	0	
2.0633	1.81064	1.33318	0	
2.0640	3.34033	3.75267	0	
2.0647	3.02815	4.9871	0	
2.0653	-0.62436	2.86388	0	
2.0660	-1.24872	3.16014	0	
2.0667	0.593142	4.9871	0	
2.0673	2.09161	2.86388	0	
2.0680	3.34033	0.395018	0	
2.0687	3.34033	-0.493772	0	
2.0693	2.71597	-3.25889	0	
2.0700	3.02815	-3.85142	0	
2.0707	3.34033	-1.7282	0	
2.0713	4.24565	-3.25889	0	
2.0720	6.68065	-5.08585	0	
2.0727	6.36847	-3.55516	0	
2.0733	4.83879	-2.32073	0	
2.0740	6.68065	-2.66637	0	
2.0747	7.89815	-3.85142	0	
2.0753	6.08751	-3.85142	0	
2.0760	5.77533	-1.43194	0	
2.0767	6.68065	0.395018	0	
2.0773	4.24565	-1.13568	0	
2.0780	2.09161	-4.19706	0	
2.0787	4.55783	-5.67838	0	
2.0793	6.68065	-6.02402	0	
2.0800	4.55783	-4.49332	0	
2.0807	2.40379	-0.839412	0	
2.0813	2.71597	2.22197	0	
2.0820	2.09161	2.51824	0	
2.0827	-0.343398	4.04893	0	
2.0833	-0.93654	5.87589	0	
2.0840	-1.5609	2.86388	0	
2.0847	-1.87308	-0.197509	0	
2.0853	-0.62436	3.16014	0	
2.0860	0.280962	4.69083	0	
2.0867	-0.031218	1.62945	0	
2.0873	0.874104	3.4564	0	
2.0880	0.874104	5.28336	0	
2.0887	-1.5609	1.92571	0	
2.0893	-1.5609	1.33318	0	
2.0900	0.280962	2.86388	0	
2.0907	-0.93654	0.691281	0	
2.0913	-2.46622	0.395018	0	
2.0920	-0.343398	4.39457	0	
2.0927	0.280962	5.28336	0	
2.0933	-1.5609	2.51824	0	
2.0940	-0.62436	2.22197	0	
2.0947	-0.031218	4.9871	0	
2.0953	-3.37154	4.9871	0	
2.0960	-6.43091	0.691281	0	
2.0967	-4.30808	0.395018	0	
2.0973	-2.15404	4.04893	0	
2.0980	-3.09058	4.9871	0	
2.0987	-2.46622	3.16014	0	
2.0993	-0.93654	2.22197	0	
2.1000	-1.5609	1.92571	0	
2.1007	-1.5609	1.92571	0	
2.1013	-0.62436	3.16014	0	
2.1020	-1.87308	3.16014	0	
2.1027	-1.5609	2.22197	0	
2.1033	-0.62436	3.16014	0	
2.1040	-5.21341	3.4564	0	
2.1047	-7.96059	1.62945	0	
2.1053	-3.37154	1.62945	0	
2.1060	-3.09058	2.86388	0	
2.1067	-7.05527	3.16014	0	
2.1073	-6.74309	4.9871	0	
2.1080	-6.11873	5.87589	0	
2.1087	-7.96059	2.22197	0	
2.1093	-6.11873	0.0987544	0	
2.1100	-3.9959	-0.839412	0	
2.1107	-4.90123	-6.02402	0	
2.1113	-3.09058	-9.67793	0	
2.1120	-1.5609	-7.20907	0	
2.1127	-4.30808	-6.02402	0	
2.1133	-5.21341	-6.32028	0	
2.1140	-1.87308	-6.61654	0	
2.1147	-0.93654	-8.73976	0	
2.1153	-3.37154	-8.73976	0	
2.1160	-4.90123	-3.25889	0	
2.1167	-5.83777	0.0987544	0	
2.1173	-6.11873	-0.493772	0	
2.1180	-6.74309	0.0987544	0	
2.1187	-7.96059	1.03692	0	
2.1193	-6.43091	1.03692	0	
2.1200	-3.09058	2.22197	0	
2.1207	-1.87308	3.16014	0	
2.1213	-0.62436	1.92571	0	
2.1220	1.18628	-0.197509	0	
2.1227	-0.62436	-1.43194	0	
2.1233	-1.5609	-1.13568	0	
2.1240	0.280962	2.22197	0	
2.1247	-1.24872	6.81405	0	
2.1253	-3.37154	7.40658	0	
2.1260	-1.5609	4.04893	0	
2.1267	-0.62436	2.51824	0	
2.1273	-3.09058	4.69083	0	
2.1280	-3.9959	4.9871	0	
2.1287	-2.7784	4.04893	0	
2.1293	-2.46622	4.9871	0	
2.1300	-2.46622	3.75267	0	
2.1307	-2.46622	-0.839412	0	
2.1313	-2.15404	-3.25889	0	
2.1320	-2.46622	-2.32073	0	
2.1327	-2.46622	-2.32073	0	
2.1333	-2.46622	-0.839412	0	
2.1340	-3.09058	4.04893	0	
2.1347	-1.5609	4.04893	0	
2.1353	1.81064	-2.32073	0	
2.1360	3.02815	-4.19706	0	
2.1367	2.40379	0.0987544	0	
2.1373	4.83879	1.33318	0	
2.1380	5.77533	0.395018	0	
2.1387	3.93347	1.62945	0	
2.1393	4.83879	-0.197509	0	
2.1400	7.30501	-2.66637	0	
2.1407	5.46315	-2.02446	0	
2.1413	3.93347	-0.493772	0	
2.1420	3.93347	0.395018	0	
2.1427	1.18628	4.04893	0	
2.1433	0.280962	4.9871	0	
2.1440	3.34033	2.51824	0	
2.1447	3.02815	2.22197	0	
2.1453	-0.031218	2.22197	0	
2.1460	2.71597	-0.197509	0	
2.1467	6.68065	0.395018	0	
2.1473	5.77533	3.75267	0	
2.1480	3.02815	1.92571	0	
2.1487	1.81064	-0.493772	0	
2.1493	3.02815	1.62945	0	
2.1500	5.15097	0.691281	0	
2.1507	3.93347	-3.25889	0	
2.1513	2.09161	-2.96263	0	
2.1520	3.62129	-1.13568	0	
2.1527	2.71597	-1.43194	0	
2.1533	-1.5609	1.03692	0	
2.1540	-3.09058	3.4564	0	
2.1547	-1.5609	0.395018	0	
2.1553	0.593142	-0.493772	0	
2.1560	1.18628	2.51824	0	
2.1567	-0.93654	3.16014	0	
2.1573	-2.46622	1.33318	0	
2.1580	-0.343398	1.03692	0	
2.1587	0.874104	0.395018	0	
2.1593	-1.5609	0.0987544	0	
2.1600	-2.7784	2.51824	0	
2.1607	-3.37154	4.39457	0	
2.1613	-4.30808	3.16014	0	
2.1620	-5.21341	1.92571	0	
2.1627	-4.30808	2.22197	0	
2.1633	-2.46622	2.22197	0	
2.1640	-2.46622	0.691281	0	
2.1647	-3.9959	0.395018	0	
2.1653	-4.30808	1.33318	0	
2.1660	-4.30808	2.86388	0	
2.1667	-4.30808	2.22197	0	
2.1673	-3.68372	-1.43194	0	
2.1680	-2.46622	-4.19706	0	
2.1687	-3.37154	-3.85142	0	
2.1693	-4.62026	-3.85142	0	
2.1700	-5.21341	-4.49332	0	
2.1707	-5.83777	-2.66637	0	
2.1713	-6.43091	-1.7282	0	
2.1720	-6.74309	-4.49332	0	
2.1727	-7.05527	-5.67838	0	
2.1733	-6.11873	-2.02446	0	
2.1740	-1.24872	-0.197509	0	
2.1747	3.93347	-1.7282	0	
2.1753	4.24565	-2.96263	0	
2.1760	3.93347	-2.32073	0	
2.1767	6.99283	-1.43194	0	
2.1773	5.46315	-0.197509	0	
2.1780	-0.93654	-0.493772	0	
2.1787	-0.93654	-2.02446	0	
2.1793	2.40379	-0.493772	0	
2.1800	1.18628	1.92571	0	
2.1807	-0.031218	1.33318	0	
2.1813	1.49846	-0.493772	0	
2.1820	-0.93654	0.395018	0	
2.1827	-4.30808	0.395018	0	
2.1833	-4.90123	-0.839412	0	
2.1840	-7.05527	-1.43194	0	
2.1847	-8.58495	-1.43194	0	
2.1853	-5.52559	-0.839412	0	
2.1860	-5.83777	1.33318	0	
2.1867	-8.86591	1.33318	0	
2.1873	-4.30808	-0.493772	0	
2.1880	0.874104	-1.43194	0	
2.1887	-4.62026	-0.493772	0	
2.1893	-8.27277	-0.839412	0	
2.1900	-2.46622	-3.25889	0	
2.1907	0.280962	-6.02402	0	
2.1913	-1.87308	-6.91281	0	
2.1920	-0.343398	-5.08585	0	
2.1927	1.18628	-5.08585	0	
2.1933	0.874104	-6.32028	0	
2.1940	1.18628	-6.32028	0	
2.1947	-1.5609	-4.49332	0	
2.1953	-4.62026	-2.02446	0	
2.1960	-1.5609	-2.32073	0	
2.1967	1.18628	-3.85142	0	
2.1973	1.18628	-1.43194	0	
2.1980	3.93347	1.33318	0	
2.1987	6.68065	-1.7282	0	
2.1993	4.83879	-2.32073	0	
2.2000	3.62129	2.86388	0	
2.2007	4.83879	3.75267	0	
2.2013	4.55783	0.395018	0	
2.2020	3.93347	0.691281	0	
2.2027	4.55783	2.22197	0	
2.2033	5.15097	1.62945	0	
2.2040	4.55783	-0.493772	0	
2.2047	3.62129	-3.25889	0	
2.2053	3.93347	-4.19706	0	
2.2060	5.46315	-4.78959	0	
2.2067	6.36847	-6.61654	0	
2.2073	5.77533	-6.61654	0	
2.2080	4.83879	-5.67838	0	
2.2087	4.55783	-7.20907	0	
2.2093	3.02815	-3.25889	0	
2.2100	1.18628	5.28336	0	
2.2107	1.81064	5.87589	0	
2.2113	3.62129	0.0987544	0	
2.2120	3.62129	-0.493772	0	
2.2127	3.02815	0.691281	0	
2.2133	3.34033	1.62945	0	
2.2140	3.34033	5.57962	0	
2.2147	3.93347	5.57962	0	
2.2153	4.83879	-1.7282	0	
2.2160	3.93347	-5.38211	0	
2.2167	0.874104	-0.493772	0	
2.2173	-0.62436	2.51824	0	
2.2180	1.18628	1.62945	0	
2.2187	2.40379	0.395018	0	
2.2193	1.18628	-1.7282	0	
2.2200	0.280962	-2.02446	0	
2.2207	0.874104	1.33318	0	
2.2213	0.874104	2.86388	0	
2.2220	1.18628	1.03692	0	
2.2227	2.09161	0.395018	0	
2.2233	1.49846	1.62945	0	
2.2240	1.18628	0.395018	0	
2.2247	2.71597	-0.493772	0	
2.2253	3.62129	-0.493772	0	
2.2260	2.71597	-1.7282	0	
2.2267	3.02815	-0.839412	0	
2.2273	4.55783	2.22197	0	
2.2280	3.93347	1.92571	0	
2.2287	1.18628	0.0987544	0	
2.2293	-0.343398	1.33318	0	
2.2300	-1.5609	4.39457	0	
2.2307	-3.9959	4.9871	0	
2.2313	-4.62026	5.28336	0	
2.2320	-3.37154	6.81405	0	
2.2327	-4.90123	8.04848	0	
2.2333	-7.36745	6.81405	0	
2.2340	-6.43091	3.4564	0	
2.2347	-3.9959	0.0987544	0	
2.2353	-2.15404	-0.493772	0	
2.2360	0.280962	1.92571	0	
2.2367	-1.24872	4.39457	0	
2.2373	-5.83777	2.86388	0	
2.2380	-5.83777	-1.13568	0	
2.2387	-2.7784	-1.13568	0	
2.2393	-3.9959	2.22197	0	
2.2400	-4.90123	3.16014	0	
2.2407	-3.37154	1.33318	0	
2.2413	-4.62026	1.33318	0	
2.2420	-6.11873	2.22197	0	
2.2427	-3.68372	1.33318	0	
2.2433	-3.68372	0.395018	0	
2.2440	-5.52559	-0.839412	0	
2.2447	-4.90123	-3.25889	0	
2.2453	-3.37154	-2.32073	0	
2.2460	-1.5609	-0.493772	0	
2.2467	0.874104	-0.493772	0	
2.2473	1.18628	-0.493772	0	
2.2480	-0.62436	0.691281	0	
2.2487	-2.46622	-0.493772	0	
2.2493	-5.83777	-2.32073	0	
2.2500	-7.05527	-2.66637	0	
2.2507	-3.09058	-2.32073	0	
2.2513	-1.5609	-0.197509	0	
2.2520	-2.46622	1.33318	0	
2.2527	-1.5609	-1.43194	0	
2.2533	-1.87308	-3.25889	0	
2.2540	-3.09058	-0.493772	0	
2.2547	-0.93654	-1.13568	0	
2.2553	0.280962	-6.02402	0	
2.2560	-0.93654	-7.20907	0	
2.2567	-0.031218	-5.08585	0	
2.2573	0.280962	-2.96263	0	
2.2580	-2.46622	0.395018	0	
2.2587	-2.7784	2.22197	0	
2.2593	-2.46622	0.395018	0	
2.2600	-5.83777	0.691281	0	
2.2607	-7.36745	3.4564	0	
2.2613	-5.52559	2.22197	0	
2.2620	-4.30808	0.0987544	0	
2.2627	-2.15404	-0.839412	0	
2.2633	0.280962	-3.55516	0	
2.2640	-0.62436	-5.38211	0	
2.2647	-2.7784	-3.25889	0	
2.2653	-3.9959	-2.02446	0	
2.2660	-3.09058	-3.85142	0	
2.2667	1.18628	-3.85142	0	
2.2673	3.02815	-2.66637	0	
2.2680	0.593142	-1.7282	0	
2.2687	0.874104	-1.43194	0	
2.2693	2.71597	-3.25889	0	
2.2700	1.81064	-5.08585	0	
2.2707	1.81064	-2.96263	0	
2.2713	3.62129	-1.43194	0	
2.2720	3.93347	-3.55516	0	
2.2727	5.77533	-5.67838	0	
2.2733	7.58597	-4.19706	0	
2.2740	5.77533	-1.13568	0	
2.2747	4.83879	1.03692	0	
2.2753	6.99283	1.03692	0	
2.2760	4.83879	0.395018	0	
2.2767	0.280962	2.22197	0	
2.2773	0.280962	3.75267	0	
2.2780	3.02815	3.16014	0	
2.2787	4.55783	4.9871	0	
2.2793	4.24565	7.75222	0	
2.2800	1.81064	4.04893	0	
2.2807	-0.031218	-3.25889	0	
2.2813	1.18628	-4.19706	0	
2.2820	2.09161	0.395018	0	
2.2827	0.593142	3.16014	0	
2.2833	1.18628	0.691281	0	
2.2840	1.49846	-1.7282	0	
2.2847	-1.87308	-2.96263	0	
2.2853	-2.46622	-4.19706	0	
2.2860	1.18628	-6.32028	0	
2.2867	0.874104	-9.97419	0	
2.2873	-1.24872	-12.3937	0	
2.2880	-0.031218	-10.5667	0	
2.2887	0.280962	-6.61654	0	
2.2893	-0.62436	-3.85142	0	
2.2900	0.874104	-1.43194	0	
2.2907	1.49846	0.395018	0	
2.2913	-2.46622	-0.493772	0	
2.2920	-4.62026	-2.32073	0	
2.2927	-0.93654	-1.43194	0	
2.2933	2.09161	-1.43194	0	
2.2940	2.40379	-1.43194	0	
2.2947	2.71597	0.0987544	0	
2.2953	2.40379	-0.493772	0	
2.2960	2.09161	-1.7282	0	
2.2967	5.15097	-0.493772	0	
2.2973	8.21033	-0.493772	0	
2.2980	5.77533	-1.7282	0	
2.2987	3.02815	0.395018	0	
2.2993	3.93347	3.16014	0	
2.3000	2.40379	1.03692	0	
2.3007	-0.031218	-1.43194	0	
2.3013	3.02815	-2.66637	0	
2.3020	5.15097	-6.02402	0	
2.3027	-0.031218	-6.32028	0	
2.3033	-1.5609	-2.96263	0	
2.3040	3.02815	-2.32073	0	
2.3047	3.34033	-2.32073	0	
2.3053	0.874104	-0.197509	0	
2.3060	2.09161	-0.839412	0	
2.3067	3.34033	-3.25889	0	
2.3073	2.40379	-1.13568	0	
2.3080	2.09161	2.22197	0	
2.3087	1.49846	0.0987544	0	
2.3093	0.874104	-1.7282	0	
2.3100	1.18628	2.22197	0	
2.3107	2.40379	3.16014	0	
2.3113	2.40379	-1.13568	0	
2.3120	1.49846	1.33318	0	
2.3127	-0.031218	6.81405	0	
2.3133	-1.5609	3.16014	0	
2.3140	-0.031218	-1.43194	0	
2.3147	2.09161	0.395018	0	
2.3153	3.02815	1.92571	0	
2.3160	3.02815	1.03692	0	
2.3167	2.40379	2.22197	0	
2.3173	-0.031218	3.4564	0	
2.3180	-1.5609	3.16014	0	
2.3187	0.280962	2.51824	0	
2.3193	0.280962	1.33318	0	
2.3200	-2.15404	0.691281	0	
2.3207	-1.5609	1.92571	0	
2.3213	-0.62436	3.4564	0	
2.3220	-2.7784	4.39457	0	
2.3227	-3.09058	3.4564	0	
2.3233	-1.87308	1.62945	0	
2.3240	-3.37154	1.33318	0	
2.3247	-3.68372	1.33318	0	
2.3253	-1.5609	0.395018	0	
2.3260	-3.09058	1.03692	0	
2.3267	-5.83777	2.22197	0	
2.3273	-4.30808	3.16014	0	
2.3280	-2.7784	1.03692	0	
2.3287	-3.9959	-1.7282	0	
2.3293	-5.83777	-0.493772	0	
2.3300	-7.96059	1.33318	0	
2.3307	-7.36745	-1.43194	0	
2.3313	-3.68372	-3.25889	0	
2.3320	-1.87308	-1.13568	0	
2.3327	-3.09058	-0.197509	0	
2.3333	-3.68372	0.0987544	0	
2.3340	-2.7784	0.395018	0	
2.3347	-1.87308	-2.02446	0	
2.3353	-0.93654	-3.55516	0	
2.3360	1.18628	-1.43194	0	
2.3367	2.71597	0.0987544	0	
2.3373	1.18628	1.33318	0	
2.3380	0.280962	3.16014	0	
2.3387	1.81064	2.86388	0	
2.3393	2.71597	1.33318	0	
2.3400	1.49846	1.92571	0	
2.3407	0.280962	1.33318	0	
2.3413	-1.5609	-0.839412	0	
2.3420	-2.15404	-0.493772	0	
2.3427	-1.87308	1.33318	0	
2.3433	-3.9959	1.33318	0	
2.3440	-6.11873	-0.493772	0	
2.3447	-3.9959	-1.43194	0	
2.3453	-1.5609	-0.493772	0	
2.3460	-3.68372	-0.493772	0	
2.3467	-7.36745	-1.13568	0	
2.3473	-7.36745	-0.493772	0	
2.3480	-3.37154	0.395018	0	
2.3487	-1.87308	1.03692	0	
2.3493	-4.90123	4.39457	0	
2.3500	-3.09058	8.93727	0	
2.3507	1.81064	8.64101	0	
2.3513	0.280962	3.16014	0	
2.3520	-1.87308	-2.66637	0	
2.3527	1.49846	-3.85142	0	
2.3533	3.02815	-2.02446	0	
2.3540	-1.5609	-2.66637	0	
2.3547	-3.68372	-5.08585	0	
2.3553	-2.46622	-5.38211	0	
2.3560	-3.37154	-3.85142	0	
2.3567	-4.90123	-1.7282	0	
2.3573	-3.09058	0.395018	0	
2.3580	-2.7784	1.33318	0	
2.3587	-3.9959	1.92571	0	
2.3593	-2.7784	2.51824	0	
2.3600	-3.37154	0.395018	0	
2.3607	-6.43091	-1.7282	0	
2.3613	-6.11873	1.03692	0	
2.3620	-5.83777	4.04893	0	
2.3627	-8.27277	3.75267	0	
2.3633	-6.11873	4.04893	0	
2.3640	-1.87308	1.92571	0	
2.3647	-3.09058	-3.25889	0	
2.3653	-1.5609	-4.19706	0	
2.3660	4.83879	-2.66637	0	
2.3667	5.77533	-4.49332	0	
2.3673	3.93347	-5.08585	0	
2.3680	5.46315	-2.32073	0	
2.3687	3.93347	-3.55516	0	
2.3693	1.18628	-6.02402	0	
2.3700	3.62129	-5.38211	0	
2.3707	6.68065	-5.38211	0	
2.3713	5.46315	-6.61654	0	
2.3720	4.83879	-6.02402	0	
2.3727	6.08751	-4.19706	0	
2.3733	8.21033	-3.55516	0	
2.3740	10.0522	-4.19706	0	
2.3747	9.74002	-4.78959	0	
2.3753	8.52251	-3.25889	0	
2.3760	8.52251	0.395018	0	
2.3767	9.11566	1.62945	0	
2.3773	8.83469	0.395018	0	
2.3780	8.52251	0.0987544	0	
2.3787	6.36847	1.62945	0	
2.3793	3.34033	4.04893	0	
2.3800	3.62129	4.69083	0	
2.3807	4.83879	3.75267	0	
2.3813	3.02815	4.04893	0	
2.3820	-0.343398	5.87589	0	
2.3827	-2.46622	6.81405	0	
2.3833	-1.5609	6.51779	0	
2.3840	1.18628	4.69083	0	
2.3847	1.18628	3.16014	0	
2.3853	-1.5609	4.04893	0	
2.3860	-4.30808	4.69083	0	
2.3867	-3.68372	2.22197	0	
2.3873	-0.62436	-0.493772	0	
2.3880	-0.031218	-2.32073	0	
2.3887	-4.90123	-2.96263	0	
2.3893	-6.43091	-1.7282	0	
2.3900	-3.09058	-3.25889	0	
2.3907	-3.37154	-6.02402	0	
2.3913	-7.05527	-6.02402	0	
2.3920	-6.11873	-7.85097	0	
2.3927	-2.46622	-10.5667	0	
2.3933	-1.87308	-7.85097	0	
2.3940	-1.5609	-6.61654	0	
2.3947	-1.87308	-9.38167	0	
2.3953	-3.68372	-7.85097	0	
2.3960	-1.87308	-4.19706	0	
2.3967	2.09161	-3.25889	0	
2.3973	2.09161	-1.43194	0	
2.3980	0.280962	1.03692	0	
2.3987	1.18628	0.691281	0	
2.3993	0.874104	0.395018	0	
2.4000	-1.24872	3.16014	0	
2.4007	-1.24872	4.39457	0	
2.4013	0.593142	1.33318	0	
2.4020	1.18628	-0.197509	0	
2.4027	-0.62436	1.03692	0	
2.4033	-3.37154	0.0987544	0	
2.4040	-5.83777	-2.32073	0	
2.4047	-5.21341	-1.7282	0	
2.4053	-3.68372	0.0987544	0	
2.4060	-4.30808	-0.493772	0	
2.4067	-5.21341	-0.493772	0	
2.4073	-3.37154	0.691281	0	
2.4080	-2.7784	0.395018	0	
2.4087	-4.90123	0.395018	0	
2.4093	-4.30808	0.691281	0	
2.4100	-1.5609	-1.13568	0	
2.4107	-1.24872	-3.25889	0	
2.4113	-1.5609	-4.19706	0	
2.4120	-2.15404	-4.19706	0	
2.4127	-4.30808	-0.493772	0	
2.4133	-4.90123	4.04893	0	
2.4140	-3.37154	2.22197	0	
2.4147	-2.15404	-0.493772	0	
2.4153	0.593142	0.691281	0	
2.4160	2.09161	2.22197	0	
2.4167	-1.87308	0.691281	0	
2.4173	-4.30808	-0.197509	0	
2.4180	-2.15404	0.691281	0	
2.4187	-1.5609	3.75267	0	
2.4193	-3.37154	5.87589	0	
2.4200	-2.15404	2.22197	0	
2.4207	-1.87308	-3.25889	0	
2.4213	-3.37154	-1.43194	0	
2.4220	-2.7784	4.04893	0	
2.4227	-2.46622	3.75267	0	
2.4233	-4.90123	0.395018	0	
2.4240	-6.11873	1.33318	0	
2.4247	-4.90123	1.33318	0	
2.4253	-6.74309	-1.7282	0	
2.4260	-9.17809	-2.32073	0	
2.4267	-6.43091	-1.7282	0	
2.4273	-3.9959	-5.08585	0	
2.4280	-5.52559	-4.78959	0	
2.4287	-4.30808	1.33318	0	
2.4293	-1.24872	3.4564	0	
2.4300	-2.15404	2.22197	0	
2.4307	-3.68372	2.86388	0	
2.4313	-1.5609	0.691281	0	
2.4320	1.49846	-2.32073	0	
2.4327	2.40379	0.395018	0	
2.4333	1.18628	2.22197	0	
2.4340	-0.031218	-0.839412	0	
2.4347	2.71597	0.691281	0	
2.4353	4.83879	4.04893	0	
2.4360	1.49846	3.4564	0	
2.4367	-0.343398	2.22197	0	
2.4373	2.09161	-0.197509	0	
2.4380	1.81064	-5.08585	0	
2.4387	-0.031218	-5.67838	0	
2.4393	1.81064	-1.43194	0	
2.4400	4.24565	0.395018	0	
2.4407	3.93347	-0.493772	0	
2.4413	2.09161	-0.839412	0	
2.4420	0.874104	0.395018	0	
2.4427	1.81064	2.22197	0	
2.4433	3.02815	4.04893	0	
2.4440	3.02815	5.87589	0	
2.4447	3.02815	4.69083	0	
2.4453	3.62129	1.62945	0	
2.4460	1.18628	0.395018	0	
2.4467	-0.62436	0.0987544	0	
2.4473	3.93347	0.0987544	0	
2.4480	8.21033	0.395018	0	
2.4487	4.83879	-0.197509	0	
2.4493	1.18628	-1.43194	0	
2.4500	2.40379	-0.493772	0	
2.4507	4.83879	1.62945	0	
2.4513	4.55783	1.33318	0	
2.4520	5.46315	0.0987544	0	
2.4527	6.99283	0.0987544	0	
2.4533	5.77533	0.395018	0	
2.4540	3.34033	0.691281	0	
2.4547	2.09161	1.62945	0	
2.4553	0.874104	4.39457	0	
2.4560	0.280962	5.87589	0	
2.4567	1.49846	3.16014	0	
2.4573	0.874104	0.395018	0	
2.4580	-0.343398	0.0987544	0	
2.4587	1.18628	1.92571	0	
2.4593	3.34033	2.22197	0	
2.4600	3.93347	-2.32073	0	
2.4607	3.02815	-6.32028	0	
2.4613	1.18628	-4.19706	0	
2.4620	1.18628	-0.493772	0	
2.4627	2.71597	-0.197509	0	
2.4633	2.09161	0.395018	0	
2.4640	1.18628	2.22197	0	
2.4647	1.81064	2.22197	0	
2.4653	1.18628	1.03692	0	
2.4660	-0.62436	-0.493772	0	
2.4667	-3.09058	-1.43194	0	
2.4673	-5.21341	-2.32073	0	
2.4680	-3.9959	-3.85142	0	
2.4687	-1.5609	-4.19706	0	
2.4693	-2.46622	-3.25889	0	
2.4700	-2.7784	-2.66637	0	
2.4707	-1.5609	-2.32073	0	
2.4713	-3.9959	-3.25889	0	
2.4720	-5.21341	-4.49332	0	
2.4727	-1.5609	-3.85142	0	
2.4733	-2.15404	-3.25889	0	
2.4740	-5.21341	-6.02402	0	
2.4747	-2.46622	-9.67793	0	
2.4753	0.280962	-8.14724	0	
2.4760	-1.24872	-4.49332	0	
2.4767	-0.62436	-3.25889	0	
2.4773	1.18628	-2.96263	0	
2.4780	-0.62436	-3.25889	0	
2.4787	-1.24872	-3.55516	0	
2.4793	-0.031218	-2.02446	0	
2.4800	-0.93654	-1.43194	0	
2.4807	-0.93654	-2.96263	0	
2.4813	0.593142	0.395018	0	
2.4820	-0.343398	7.75222	0	
2.4827	-1.87308	9.57918	0	
2.4833	-1.5609	9.57918	0	
2.4840	-2.46622	11.7024	0	
2.4847	-3.9959	8.64101	0	
2.4853	-4.30808	1.33318	0	
2.4860	-3.37154	0.395018	0	
2.4867	-1.5609	1.92571	0	
2.4873	-1.87308	0.395018	0	
2.4880	-4.30808	0.0987544	0	
2.4887	-1.87308	-0.197509	0	
2.4893	2.40379	-1.7282	0	
2.4900	1.18628	-1.7282	0	
2.4907	-1.87308	0.395018	0	
2.4913	-1.24872	1.33318	0	
2.4920	1.18628	-0.493772	0	
2.4927	3.62129	-3.25889	0	
2.4933	4.24565	-4.49332	0	
2.4940	3.02815	-4.19706	0	
2.4947	2.71597	-5.67838	0	
2.4953	3.34033	-6.02402	0	
2.4960	2.09161	-3.25889	0	
2.4967	3.02815	-3.25889	0	
2.4973	6.08751	-6.02402	0	
2.4980	5.77533	-3.55516	0	
2.4987	3.34033	0.395018	0	
2.4993	4.83879	-0.493772	0	
2.5000	6.68065	-1.43194	0	
2.5007	5.46315	1.62945	0	
2.5013	4.83879	3.16014	0	
2.5020	4.83879	2.22197	0	
2.5027	3.02815	1.33318	0	
2.5033	2.71597	1.03692	0	
2.5040	0.280962	1.33318	0	
2.5047	-2.7784	4.04893	0	
2.5053	-0.93654	4.9871	0	
2.5060	3.93347	2.22197	0	
2.5067	4.83879	-0.197509	0	
2.5073	2.71597	-2.66637	0	
2.5080	2.09161	-4.19706	0	
2.5087	1.81064	0.395018	0	
2.5093	2.09161	5.87589	0	
2.5100	1.49846	4.04893	0	
2.5107	0.280962	-1.43194	0	
2.5113	0.280962	-2.66637	0	
2.5120	1.18628	-1.7282	0	
2.5127	2.71597	-2.66637	0	
2.5133	3.93347	-2.32073	0	
2.5140	3.93347	0.691281	0	
2.5147	3.02815	0.691281	0	
2.5153	3.62129	-4.19706	0	
2.5160	3.93347	-5.08585	0	
2.5167	3.34033	-2.02446	0	
2.5173	2.40379	-1.43194	0	
2.5180	1.18628	-4.19706	0	
2.5187	-0.343398	-3.25889	0	
2.5193	0.280962	0.0987544	0	
2.5200	2.09161	0.395018	0	
2.5207	0.593142	-1.7282	0	
2.5213	-1.87308	-1.43194	0	
2.5220	-1.5609	0.395018	0	
2.5227	0.280962	-1.43194	0	
2.5233	-0.031218	-3.25889	0	
2.5240	-0.62436	-0.197509	0	
2.5247	0.593142	1.33318	0	
2.5253	1.18628	-0.839412	0	
2.5260	0.874104	-0.493772	0	
2.5267	3.02815	-0.197509	0	
2.5273	6.36847	-0.839412	0	
2.5280	4.83879	0.691281	0	
2.5287	1.18628	1.03692	0	
2.5293	0.593142	-0.493772	0	
2.5300	2.09161	-0.493772	0	
2.5307	3.93347	-1.7282	0	
2.5313	3.93347	-3.85142	0	
2.5320	0.593142	-1.13568	0	
2.5327	-2.46622	-0.839412	0	
2.5333	-2.7784	-6.91281	0	
2.5340	-5.21341	-7.85097	0	
2.5347	-8.27277	-2.66637	0	
2.5353	-7.36745	-2.32073	0	
2.5360	-6.11873	-5.38211	0	
2.5367	-8.27277	-3.25889	0	
2.5373	-7.36745	2.51824	0	
2.5380	-3.68372	6.81405	0	
2.5387	-3.37154	7.11032	0	
2.5393	-3.68372	3.16014	0	
2.5400	-1.24872	0.395018	0	
2.5407	-1.87308	1.03692	0	
2.5413	-6.11873	1.03692	0	
2.5420	-7.05527	-0.493772	0	
2.5427	-3.68372	0.691281	0	
2.5433	-2.15404	1.92571	0	
2.5440	-2.7784	-0.197509	0	
2.5447	-3.68372	-1.43194	0	
2.5453	-3.68372	1.03692	0	
2.5460	-3.37154	2.51824	0	
2.5467	-3.09058	1.33318	0	
2.5473	-2.46622	0.0987544	0	
2.5480	-3.37154	-0.839412	0	
2.5487	-6.11873	-0.493772	0	
2.5493	-7.96059	1.33318	0	
2.5500	-7.05527	2.86388	0	
2.5507	-6.11873	2.86388	0	
2.5513	-6.11873	1.03692	0	
2.5520	-5.21341	-3.25889	0	
2.5527	-1.24872	-6.02402	0	
2.5533	1.18628	-3.55516	0	
2.5540	2.40379	-2.02446	0	
2.5547	3.93347	-4.49332	0	
2.5553	2.09161	-5.67838	0	
2.5560	-2.7784	-4.49332	0	
2.5567	-2.15404	-5.08585	0	
2.5573	2.09161	-4.19706	0	
2.5580	0.280962	-1.43194	0	
2.5587	-3.09058	-2.02446	0	
2.5593	-0.62436	-2.32073	0	
2.5600	-0.62436	-0.493772	0	
2.5607	-3.68372	-1.13568	0	
2.5613	-2.46622	-2.32073	0	
2.5620	0.593142	1.33318	0	
2.5627	-0.031218	4.04893	0	
2.5633	-0.62436	3.75267	0	
2.5640	0.874104	4.69083	0	
2.5647	2.09161	4.04893	0	
2.5653	4.55783	1.33318	0	
2.5660	4.24565	1.92571	0	
2.5667	-0.62436	2.22197	0	
2.5673	-2.46622	-0.197509	0	
2.5680	-1.24872	-1.13568	0	
2.5687	-1.5609	-1.7282	0	
2.5693	-3.09058	-5.67838	0	
2.5700	-3.37154	-5.67838	0	
2.5707	-3.37154	0.395018	0	
2.5713	-3.68372	3.16014	0	
2.5720	-4.30808	0.691281	0	
2.5727	-3.37154	0.395018	0	
2.5733	-2.15404	1.92571	0	
2.5740	-3.37154	2.86388	0	
2.5747	-6.11873	4.9871	0	
2.5753	-6.11873	3.75267	0	
2.5760	-4.90123	0.691281	0	
2.5767	-4.62026	3.16014	0	
2.5773	-5.21341	5.87589	0	
2.5780	-5.21341	1.92571	0	
2.5787	-5.21341	-0.839412	0	
2.5793	-4.30808	0.0987544	0	
2.5800	-1.5609	-2.02446	0	
2.5807	3.02815	-3.55516	0	
2.5813	4.83879	-1.13568	0	
2.5820	1.49846	1.33318	0	
2.5827	-0.62436	1.62945	0	
2.5833	-0.343398	1.33318	0	
2.5840	-0.031218	-0.493772	0	
2.5847	1.18628	0.691281	0	
2.5853	2.09161	4.9871	0	
2.5860	-0.031218	5.57962	0	
2.5867	-0.93654	3.16014	0	
2.5873	0.280962	4.04893	0	
2.5880	-1.87308	4.04893	0	
2.5887	-5.21341	1.03692	0	
2.5893	-3.37154	-2.02446	0	
2.5900	0.874104	-3.55516	0	
2.5907	0.280962	-5.38211	0	
2.5913	-3.09058	-5.67838	0	
2.5920	-2.15404	-5.67838	0	
2.5927	2.09161	-7.20907	0	
2.5933	2.71597	-9.67793	0	
2.5940	3.02815	-11.5049	0	
2.5947	5.77533	-13.3318	0	
2.5953	4.83879	-12.3937	0	
2.5960	2.09161	-9.67793	0	
2.5967	2.09161	-7.85097	0	
2.5973	2.71597	-6.32028	0	
2.5980	3.02815	-2.96263	0	
2.5987	4.24565	-0.839412	0	
2.5993	2.09161	-2.02446	0	
2.6000	-0.343398	-2.32073	0	
2.6007	1.18628	1.03692	0	
2.6013	1.18628	3.16014	0	
2.6020	-1.5609	4.04893	0	
2.6027	-3.37154	5.87589	0	
2.6033	-5.21341	6.22153	0	
2.6040	-6.74309	3.4564	0	
2.6047	-4.30808	3.4564	0	
2.6053	-1.5609	4.69083	0	
2.6060	-2.7784	2.22197	0	
2.6067	-3.9959	1.33318	0	
2.6073	-2.46622	3.4564	0	
2.6080	0.280962	4.04893	0	
2.6087	2.40379	4.04893	0	
2.6093	3.93347	4.04893	0	
2.6100	3.93347	1.62945	0	
2.6107	3.34033	1.92571	0	
2.6113	4.55783	3.4564	0	
2.6120	5.77533	1.33318	0	
2.6127	3.93347	-0.839412	0	
2.6133	2.09161	0.395018	0	
2.6140	3.93347	0.395018	0	
2.6147	4.55783	-1.43194	0	
2.6153	2.71597	-1.43194	0	
2.6160	2.71597	-2.32073	0	
2.6167	4.55783	-2.02446	0	
2.6173	3.93347	-0.493772	0	
2.6180	2.71597	-0.493772	0	
2.6187	1.81064	-1.7282	0	
2.6193	-0.031218	0.395018	0	
2.6200	-0.62436	3.16014	0	
2.6207	1.18628	3.16014	0	
2.6213	1.18628	1.33318	0	
2.6220	-2.15404	0.395018	0	
2.6227	-3.68372	1.92571	0	
2.6233	-1.24872	3.16014	0	
2.6240	-0.031218	2.86388	0	
2.6247	-3.37154	3.16014	0	
2.6253	-4.30808	5.87589	0	
2.6260	-0.93654	9.57918	0	
2.6267	0.593142	8.64101	0	
2.6273	-1.24872	5.57962	0	
2.6280	-1.5609	5.28336	0	
2.6287	-0.031218	5.87589	0	
2.6293	-0.93654	4.04893	0	
2.6300	-3.37154	1.33318	0	
2.6307	-5.21341	-0.839412	0	
2.6313	-6.11873	-2.02446	0	
2.6320	-5.21341	-0.493772	0	
2.6327	-2.15404	2.22197	0	
2.6333	-0.62436	2.51824	0	
2.6340	-1.87308	1.03692	0	
2.6347	-0.031218	-0.493772	0	
2.6353	3.34033	0.395018	0	
2.6360	3.02815	2.86388	0	
2.6367	1.49846	4.04893	0	
2.6373	3.34033	4.04893	0	
2.6380	3.62129	6.81405	0	
2.6387	-0.343398	8.64101	0	
2.6393	-0.343398	3.4564	0	
2.6400	5.46315	-2.02446	0	
2.6407	6.68065	-0.197509	0	
2.6413	3.93347	2.22197	0	
2.6420	5.15097	-1.13568	0	
2.6427	5.15097	-2.96263	0	
2.6433	0.280962	-0.839412	0	
2.6440	-1.5609	-1.43194	0	
2.6447	-1.5609	-3.85142	0	
2.6453	-3.9959	-2.02446	0	
2.6460	-2.7784	0.691281	0	
2.6467	0.280962	-0.839412	0	
2.6473	-1.24872	-4.19706	0	
2.6480	-3.9959	-3.55516	0	
2.6487	-4.30808	0.0987544	0	
2.6493	-2.46622	-0.197509	0	
2.6500	0.280962	-4.19706	0	
2.6507	-1.5609	-6.02402	0	
2.6513	-6.11873	-7.20907	0	
2.6520	-3.37154	-11.5049	0	
2.6527	0.874104	-13.6281	0	
2.6533	0.280962	-10.863	0	
2.6540	1.49846	-8.4435	0	
2.6547	3.34033	-7.50533	0	
2.6553	-0.031218	-7.85097	0	
2.6560	-0.031218	-7.85097	0	
2.6567	6.68065	-6.91281	0	
2.6573	7.89815	-6.32028	0	
2.6580	3.02815	-6.02402	0	
2.6587	3.34033	-5.08585	0	
2.6593	5.15097	-4.49332	0	
2.6600	2.71597	-5.08585	0	
2.6607	2.71597	-6.32028	0	
2.6613	6.08751	-6.91281	0	
2.6620	5.77533	-3.55516	0	
2.6627	3.02815	0.0987544	0	
2.6633	1.18628	-0.493772	0	
2.6640	-2.7784	-1.13568	0	
2.6647	-6.43091	-1.13568	0	
2.6653	-6.43091	-3.55516	0	
2.6660	-4.62026	-2.96263	0	
2.6667	-1.5609	-0.197509	0	
2.6673	2.09161	-2.02446	0	
2.6680	2.09161	-2.32073	0	
2.6687	2.09161	1.33318	0	
2.6693	2.40379	1.33318	0	
2.6700	1.18628	1.03692	0	
2.6707	0.280962	2.51824	0	
2.6713	2.09161	0.691281	0	
2.6720	2.09161	-2.02446	0	
2.6727	0.280962	-0.197509	0	
2.6733	1.18628	1.62945	0	
2.6740	3.93347	1.33318	0	
2.6747	5.77533	1.33318	0	
2.6753	3.93347	1.62945	0	
2.6760	2.09161	1.03692	0	
2.6767	2.40379	-2.02446	0	
2.6773	2.09161	-3.55516	0	
2.6780	0.280962	-0.839412	0	
2.6787	0.593142	0.395018	0	
2.6793	2.09161	-0.493772	0	
2.6800	-1.87308	2.22197	0	
2.6807	-6.11873	2.51824	0	
2.6813	-3.9959	-1.13568	0	
2.6820	-2.46622	-1.13568	0	
2.6827	-3.9959	2.22197	0	
2.6833	-2.7784	1.62945	0	
2.6840	-0.93654	0.395018	0	
2.6847	-0.031218	0.395018	0	
2.6853	1.81064	0.395018	0	
2.6860	1.49846	-0.197509	0	
2.6867	-0.62436	-2.32073	0	
2.6873	-0.93654	-2.32073	0	
2.6880	-0.343398	0.395018	0	
2.6887	1.18628	1.03692	0	
2.6893	3.34033	-0.493772	0	
2.6900	3.93347	0.0987544	0	
2.6907	3.34033	0.691281	0	
2.6913	2.71597	-1.13568	0	
2.6920	-0.031218	-2.66637	0	
2.6927	-2.7784	-2.66637	0	
2.6933	-3.09058	-4.19706	0	
2.6940	-3.37154	-5.67838	0	
2.6947	-3.68372	-3.85142	0	
2.6953	-2.15404	-1.43194	0	
2.6960	-2.15404	-2.96263	0	
2.6967	-0.93654	-3.25889	0	
2.6973	3.34033	-1.43194	0	
2.6980	2.09161	-1.43194	0	
2.6987	-4.90123	-3.25889	0	
2.6993	-6.11873	-2.32073	0	
2.7000	-2.46622	-0.197509	0	
2.7007	-2.46622	1.33318	0	
2.7013	-4.62026	3.75267	0	
2.7020	-4.90123	3.16014	0	
2.7027	-4.62026	-0.839412	0	
2.7033	-3.37154	-1.43194	0	
2.7040	-1.5609	1.62945	0	
2.7047	-2.46622	4.04893	0	
2.7053	-1.87308	5.87589	0	
2.7060	0.874104	6.51779	0	
2.7067	0.874104	5.28336	0	
2.7073	-1.5609	2.51824	0	
2.7080	-1.87308	-0.197509	0	
2.7087	-1.24872	-1.43194	0	
2.7093	0.280962	-0.493772	0	
2.7100	2.09161	-1.13568	0	
2.7107	1.18628	-0.493772	0	
2.7113	-2.46622	3.16014	0	
2.7120	-2.46622	4.04893	0	
2.7127	0.280962	0.0987544	0	
2.7133	1.18628	-0.493772	0	
2.7140	-0.62436	1.62945	0	
2.7147	-2.46622	-0.493772	0	
2.7153	-1.87308	-1.7282	0	
2.7160	-0.343398	0.691281	0	
2.7167	1.18628	0.395018	0	
2.7173	0.593142	-0.493772	0	
2.7180	-0.343398	3.75267	0	
2.7187	-0.343398	5.28336	0	
2.7193	-0.62436	2.86388	0	
2.7200	-1.24872	4.39457	0	
2.7207	-1.87308	7.75222	0	
2.7213	-3.09058	5.28336	0	
2.7220	-3.9959	4.04893	0	
2.7227	-3.68372	7.75222	0	
2.7233	-2.46622	9.57918	0	
2.7240	-1.24872	7.75222	0	
2.7247	0.280962	7.11032	0	
2.7253	0.874104	8.64101	0	
2.7260	1.49846	6.22153	0	
2.7267	3.02815	1.33318	0	
2.7273	0.593142	0.395018	0	
2.7280	-3.37154	2.86388	0	
2.7287	-2.46622	5.28336	0	
2.7293	-0.343398	7.11032	0	
2.7300	-1.24872	8.64101	0	
2.7307	0.280962	6.22153	0	
2.7313	3.02815	0.0987544	0	
2.7320	0.874104	-4.78959	0	
2.7327	-1.24872	-6.02402	0	
2.7333	-0.62436	-7.50533	0	
2.7340	-1.5609	-10.2705	0	
2.7347	-0.62436	-9.97419	0	
2.7353	0.593142	-7.85097	0	
2.7360	-3.09058	-10.2705	0	
2.7367	-3.9959	-13.0356	0	
2.7373	-0.031218	-9.67793	0	
2.7380	-1.87308	-6.91281	0	
2.7387	-5.52559	-7.85097	0	
2.7393	-2.15404	-6.02402	0	
2.7400	-0.93654	-3.25889	0	
2.7407	-4.30808	-2.32073	0	
2.7413	-3.68372	1.33318	0	
2.7420	-1.5609	6.51779	0	
2.7427	-3.9959	5.28336	0	
2.7433	-4.90123	1.03692	0	
2.7440	-2.7784	-0.493772	0	
2.7447	-1.5609	-1.43194	0	
2.7453	-1.87308	-4.19706	0	
2.7460	-2.7784	-7.50533	0	
2.7467	-2.7784	-8.14724	0	
2.7473	-1.87308	-5.67838	0	
2.7480	-1.87308	-2.66637	0	
2.7487	-1.87308	-2.66637	0	
2.7493	-0.93654	-1.7282	0	
2.7500	-0.031218	1.33318	0	
2.7507	1.18628	0.395018	0	
2.7513	1.81064	-5.38211	0	
2.7520	1.18628	-7.85097	0	
2.7527	1.18628	-5.08585	0	
2.7533	0.874104	-5.38211	0	
2.7540	0.593142	-6.91281	0	
2.7547	3.34033	-6.61654	0	
2.7553	5.77533	-6.32028	0	
2.7560	3.62129	-6.32028	0	
2.7567	2.09161	-3.25889	0	
2.7573	3.02815	-0.839412	0	
2.7580	3.34033	-0.493772	0	
2.7587	5.46315	0.0987544	0	
2.7593	6.68065	0.395018	0	
2.7600	4.55783	0.691281	0	
2.7607	5.15097	2.22197	0	
2.7613	7.58597	2.22197	0	
2.7620	5.77533	-0.493772	0	
2.7627	4.83879	-1.7282	0	
2.7633	5.77533	-0.493772	0	
2.7640	3.02815	0.395018	0	
2.7647	2.71597	0.395018	0	
2.7653	6.08751	1.03692	0	
2.7660	4.55783	2.22197	0	
2.7667	0.280962	3.16014	0	
2.7673	-2.46622	2.86388	0	
2.7680	-3.09058	1.92571	0	
2.7687	0.593142	2.51824	0	
2.7693	3.34033	4.9871	0	
2.7700	-0.343398	5.57962	0	
2.7707	-1.24872	3.16014	0	
2.7713	1.81064	3.4564	0	
2.7720	-1.5609	7.75222	0	
2.7727	-4.90123	10.1717	0	
2.7733	-0.93654	8.04848	0	
2.7740	0.874104	5.87589	0	
2.7747	-0.031218	5.57962	0	
2.7753	2.09161	4.04893	0	
2.7760	4.24565	1.03692	0	
2.7767	4.55783	-1.13568	0	
2.7773	4.83879	-1.7282	0	
2.7780	4.24565	-1.7282	0	
2.7787	3.02815	0.0987544	0	
2.7793	2.09161	2.22197	0	
2.7800	1.18628	1.33318	0	
2.7807	0.593142	-1.7282	0	
2.7813	0.280962	-0.493772	0	
2.7820	-0.62436	2.22197	0	
2.7827	-0.62436	1.92571	0	
2.7833	-1.24872	0.395018	0	
2.7840	-1.5609	-0.493772	0	
2.7847	1.81064	-2.32073	0	
2.7853	3.93347	-3.85142	0	
2.7860	1.18628	-2.32073	0	
2.7867	-0.031218	0.395018	0	
2.7873	1.81064	1.33318	0	
2.7880	0.593142	0.0987544	0	
2.7887	-2.46622	-1.13568	0	
2.7893	-4.30808	-0.839412	0	
2.7900	-4.30808	-0.493772	0	
2.7907	-5.83777	-0.493772	0	
2.7913	-7.05527	-1.7282	0	
2.7920	-5.83777	-4.19706	0	
2.7927	-3.37154	-2.96263	0	
2.7933	-2.46622	2.22197	0	
2.7940	-2.15404	4.04893	0	
2.7947	-0.62436	2.51824	0	
2.7953	0.593142	4.04893	0	
2.7960	2.40379	4.9871	0	
2.7967	3.02815	3.16014	0	
2.7973	0.280962	1.92571	0	
2.7980	-3.09058	4.04893	0	
2.7987	-3.9959	5.28336	0	
2.7993	-3.68372	5.87589	0	
2.8000	-4.30808	6.81405	0	
2.8007	-6.11873	5.57962	0	
2.8013	-7.05527	4.69083	0	
2.8020	-6.74309	6.51779	0	
2.8027	-7.36745	8.64101	0	
2.8033	-7.96059	8.64101	0	
2.8040	-7.05527	7.11032	0	
2.8047	-6.11873	5.87589	0	
2.8053	-6.11873	4.04893	0	
2.8060	-4.90123	3.75267	0	
2.8067	-4.62026	4.04893	0	
2.8073	-5.52559	3.4564	0	
2.8080	-5.83777	1.03692	0	
2.8087	-6.11873	-3.25889	0	
2.8093	-5.52559	-5.67838	0	
2.8100	-4.30808	-4.49332	0	
2.8107	-3.37154	-4.49332	0	
2.8113	-2.7784	-4.49332	0	
2.8120	-3.37154	-0.493772	0	
2.8127	-4.30808	0.0987544	0	
2.8133	-2.7784	-7.50533	0	
2.8140	-0.343398	-9.97419	0	
2.8147	1.18628	-5.08585	0	
2.8153	1.18628	-4.78959	0	
2.8160	-0.62436	-5.67838	0	
2.8167	-1.24872	-2.96263	0	
2.8173	2.71597	-3.55516	0	
2.8180	3.93347	-6.02402	0	
2.8187	0.874104	-4.19706	0	
2.8193	1.81064	-2.96263	0	
2.8200	5.77533	-5.08585	0	
2.8207	5.15097	-3.85142	0	
2.8213	2.40379	-1.13568	0	
2.8220	3.02815	-0.839412	0	
2.8227	5.15097	1.33318	0	
2.8233	5.77533	3.4564	0	
2.8240	4.55783	-0.197509	0	
2.8247	3.62129	-4.19706	0	
2.8253	3.93347	-5.08585	0	
2.8260	3.93347	-6.61654	0	
2.8267	3.02815	-7.50533	0	
2.8273	2.71597	-5.08585	0	
2.8280	0.280962	-3.25889	0	
2.8287	-1.5609	-3.25889	0	
2.8293	2.09161	-3.25889	0	
2.8300	4.24565	-3.85142	0	
2.8307	3.34033	-4.19706	0	
2.8313	3.93347	-1.13568	0	
2.8320	3.93347	2.86388	0	
2.8327	1.81064	5.87589	0	
2.8333	3.02815	6.81405	0	
2.8340	4.83879	4.39457	0	
2.8347	3.62129	2.86388	0	
2.8353	3.93347	2.22197	0	
2.8360	6.68065	-2.32073	0	
2.8367	6.36847	-6.02402	0	
2.8373	4.24565	-1.7282	0	
2.8380	4.83879	3.16014	0	
2.8387	6.68065	2.22197	0	
2.8393	6.68065	-0.197509	0	
2.8400	6.68065	-0.493772	0	
2.8407	7.89815	0.395018	0	
2.8413	9.42784	-2.32073	0	
2.8420	8.83469	-8.73976	0	
2.8427	8.21033	-10.5667	0	
2.8433	7.58597	-5.38211	0	
2.8440	5.15097	-2.32073	0	
2.8447	2.71597	-3.25889	0	
2.8453	3.02815	-1.43194	0	
2.8460	2.71597	2.22197	0	
2.8467	0.280962	0.395018	0	
2.8473	-1.24872	-6.91281	0	
2.8480	-1.5609	-8.73976	0	
2.8487	-1.87308	-3.85142	0	
2.8493	-1.5609	-2.32073	0	
2.8500	0.593142	-4.19706	0	
2.8507	-0.031218	-2.02446	0	
2.8513	-3.37154	0.395018	0	
2.8520	-3.09058	-1.43194	0	
2.8527	0.280962	-1.13568	0	
2.8533	-0.93654	-0.493772	0	
2.8540	-2.7784	-2.96263	0	
2.8547	-0.62436	-2.66637	0	
2.8553	1.18628	0.395018	0	
2.8560	0.280962	1.03692	0	
2.8567	-0.62436	0.691281	0	
2.8573	-1.24872	-0.839412	0	
2.8580	-0.62436	-3.85142	0	
2.8587	0.593142	-1.43194	0	
2.8593	1.18628	3.16014	0	
2.8600	3.34033	-0.493772	0	
2.8607	4.55783	-3.55516	0	
2.8613	1.49846	0.395018	0	
2.8620	-1.5609	2.22197	0	
2.8627	-0.93654	-1.43194	0	
2.8633	-0.62436	-2.02446	0	
2.8640	-1.24872	0.0987544	0	
2.8647	-0.62436	0.0987544	0	
2.8653	-0.93654	-1.13568	0	
2.8660	-1.5609	-0.839412	0	
2.8667	-0.62436	-1.13568	0	
2.8673	2.09161	-0.493772	0	
2.8680	5.77533	0.395018	0	
2.8687	5.77533	-1.7282	0	
2.8693	2.09161	-2.66637	0	
2.8700	-0.62436	0.0987544	0	
2.8707	-2.46622	1.33318	0	
2.8713	-3.09058	-0.493772	0	
2.8720	-0.62436	-1.43194	0	
2.8727	2.09161	-4.19706	0	
2.8733	1.81064	-8.14724	0	
2.8740	-0.62436	-7.85097	0	
2.8747	-3.09058	-2.96263	0	
2.8753	-3.37154	-1.43194	0	
2.8760	-0.343398	-1.7282	0	
2.8767	-0.62436	0.0987544	0	
2.8773	-5.21341	0.395018	0	
2.8780	-5.21341	-0.493772	0	
2.8787	-3.9959	1.03692	0	
2.8793	-6.43091	1.62945	0	
2.8800	-6.11873	1.03692	0	
2.8807	-2.46622	1.92571	0	
2.8813	-3.37154	1.33318	0	
2.8820	-4.90123	-0.493772	0	
2.8827	-2.46622	0.395018	0	
2.8833	-3.09058	2.86388	0	
2.8840	-4.90123	4.04893	0	
2.8847	-3.37154	6.22153	0	
2.8853	-5.21341	6.51779	0	
2.8860	-9.17809	2.86388	0	
2.8867	-7.05527	1.92571	0	
2.8873	-5.21341	4.04893	0	
2.8880	-9.49027	4.04893	0	
2.8887	-11.6131	0.395018	0	
2.8893	-9.17809	-3.25889	0	
2.8900	-7.96059	-2.32073	0	
2.8907	-6.11873	1.33318	0	
2.8913	-1.87308	1.03692	0	
2.8920	-0.62436	-0.839412	0	
2.8927	-1.87308	1.33318	0	
2.8933	-2.7784	0.691281	0	
2.8940	-0.62436	-4.78959	0	
2.8947	3.34033	-5.38211	0	
2.8953	3.93347	-3.25889	0	
2.8960	1.49846	-3.25889	0	
2.8967	2.71597	0.691281	0	
2.8973	4.24565	5.57962	0	
2.8980	1.18628	1.62945	0	
2.8987	0.874104	-2.66637	0	
2.8993	3.34033	1.33318	0	
2.9000	0.874104	6.81405	0	
2.9007	-2.46622	8.34475	0	
2.9013	-0.62436	7.11032	0	
2.9020	0.874104	7.75222	0	
2.9027	-0.62436	10.468	0	
2.9033	-0.93654	9.87544	0	
2.9040	-2.46622	4.39457	0	
2.9047	-5.52559	1.33318	0	
2.9053	-5.52559	1.92571	0	
2.9060	-3.37154	1.92571	0	
2.9067	-4.30808	3.16014	0	
2.9073	-7.96059	4.04893	0	
2.9080	-7.96059	2.22197	0	
2.9087	-6.11873	0.395018	0	
2.9093	-6.74309	0.395018	0	
2.9100	-7.05527	0.691281	0	
2.9107	-4.62026	-0.197509	0	
2.9113	-3.9959	-3.25889	0	
2.9120	-5.21341	-6.91281	0	
2.9127	-2.7784	-7.20907	0	
2.9133	-0.343398	-3.25889	0	
2.9140	-0.343398	1.33318	0	
2.9147	0.280962	2.51824	0	
2.9153	1.49846	1.33318	0	
2.9160	2.09161	1.33318	0	
2.9167	3.02815	2.51824	0	
2.9173	2.71597	-0.493772	0	
2.9180	0.874104	-4.19706	0	
2.9187	-0.031218	-3.25889	0	
2.9193	-1.5609	-1.43194	0	
2.9200	-3.37154	-3.55516	0	
2.9207	-3.37154	-5.08585	0	
2.9213	-4.30808	-2.32073	0	
2.9220	-5.52559	3.16014	0	
2.9227	-4.62026	6.81405	0	
2.9233	-3.37154	4.69083	0	
2.9240	-2.7784	-1.13568	0	
2.9247	-2.46622	-3.85142	0	
2.9253	-1.5609	-4.78959	0	
2.9260	1.18628	-6.32028	0	
2.9267	4.55783	-5.38211	0	
2.9273	1.49846	-2.66637	0	
2.9280	-4.30808	-2.96263	0	
2.9287	-2.7784	-2.66637	0	
2.9293	1.18628	0.395018	0	
2.9300	0.280962	-1.13568	0	
2.9307	0.593142	-6.02402	0	
2.9313	3.02815	-6.32028	0	
2.9320	0.874104	-5.08585	0	
2.9327	-3.37154	-6.02402	0	
2.9333	-3.37154	-3.25889	0	
2.9340	-1.87308	-1.43194	0	
2.9347	-0.62436	-4.78959	0	
2.9353	1.49846	-3.55516	0	
