0.0000	-1.34321	1.31584	1
0.0007	-0.422864	4.97732	0	
0.0013	0.186558	4.36231	0	
0.0020	-0.733793	1.31584	0	
0.0027	-0.124372	4.06195	0	
0.0033	1.10691	6.5077	0	
0.0040	-0.124372	3.14658	0	
0.0047	-1.64171	1.31584	0	
0.0053	-2.56206	5.89269	0	
0.0060	-1.64171	5.89269	0	
0.0067	1.10691	1.93086	0	
0.0073	-0.422864	2.23121	0	
0.0080	-4.39032	3.44694	0	
0.0087	-4.39032	0.400474	0	
0.0093	-1.34321	0.400474	0	
0.0100	-0.422864	4.06195	0	
0.0107	-1.34321	2.23121	0	
0.0113	-2.86055	-4.17637	0	
0.0120	-3.17148	-6.62213	0	
0.0127	-0.733793	-5.09174	0	
0.0133	0.48505	-5.09174	0	
0.0140	-0.124372	-6.00711	0	
0.0147	0.186558	-7.83785	0	
0.0153	-0.124372	-7.83785	0	
0.0160	-2.56206	-6.00711	0	
0.0167	-2.56206	-6.00711	0	
0.0173	-1.34321	-7.83785	0	
0.0180	0.186558	-6.62213	0	
0.0187	1.10691	-3.261	0	
0.0193	-1.03229	-2.04528	0	
0.0200	-2.86055	-0.815251	0	
0.0207	-1.64171	1.01549	0	
0.0213	0.186558	-0.21454	0	
0.0220	1.4054	-1.43026	0	
0.0227	2.01482	0.400474	0	
0.0233	1.10691	3.14658	0	
0.0240	1.10691	2.23121	0	
0.0247	0.795979	1.01549	0	
0.0253	-0.422864	1.93086	0	
0.0260	-0.124372	1.6162	0	
0.0267	0.48505	0.400474	0	
0.0273	-2.86055	0.400474	0	
0.0280	-5.60917	1.01549	0	
0.0287	-4.39032	-0.514895	0	
0.0293	-3.7809	-2.34563	0	
0.0300	-3.17148	-4.79139	0	
0.0307	-1.64171	-5.70676	0	
0.0313	-2.25113	-4.47673	0	
0.0320	-2.86055	-3.261	0	
0.0327	-1.64171	-1.12991	0	
0.0333	-1.95264	1.31584	0	
0.0340	-2.25113	0.70083	0	
0.0347	-0.124372	-1.43026	0	
0.0353	-0.422864	0.70083	0	
0.0360	-2.56206	3.14658	0	
0.0367	-1.64171	3.14658	0	
0.0373	-1.34321	4.97732	0	
0.0380	-2.56206	7.10841	0	
0.0387	-1.64171	4.97732	0	
0.0393	0.186558	3.14658	0	
0.0400	0.795979	5.27768	0	
0.0407	1.71633	7.10841	0	
0.0413	0.186558	6.80806	0	
0.0420	-1.64171	7.72343	0	
0.0427	-0.124372	8.6388	0	
0.0433	0.186558	7.72343	0	
0.0440	-0.733793	5.89269	0	
0.0447	1.71633	4.06195	0	
0.0453	2.93517	2.53157	0	
0.0460	1.71633	3.7616	0	
0.0467	2.01482	4.06195	0	
0.0473	3.84309	1.31584	0	
0.0480	2.62424	1.6162	0	
0.0487	2.01482	3.14658	0	
0.0493	2.93517	1.31584	0	
0.0500	1.71633	-0.815251	0	
0.0507	-0.124372	-0.21454	0	
0.0513	-0.422864	-2.34563	0	
0.0520	-1.03229	-5.09174	0	
0.0527	-3.17148	-3.261	0	
0.0533	-3.46997	-0.815251	0	
0.0540	-1.34321	-0.514895	0	
0.0547	0.186558	-1.12991	0	
0.0553	-1.03229	-0.514895	0	
0.0560	-3.7809	1.93086	0	
0.0567	-5.92009	2.53157	0	
0.0573	-4.99974	-1.43026	0	
0.0580	-3.17148	-5.09174	0	
0.0587	-1.95264	-2.96065	0	
0.0593	-1.64171	0.400474	0	
0.0600	-1.95264	-0.21454	0	
0.0607	-2.25113	-1.73062	0	
0.0613	0.795979	-2.04528	0	
0.0620	3.23367	-2.34563	0	
0.0627	1.10691	-1.73062	0	
0.0633	0.186558	1.31584	0	
0.0640	3.54459	3.44694	0	
0.0647	1.4054	1.93086	0	
0.0653	-3.17148	0.400474	0	
0.0660	-1.64171	1.31584	0	
0.0667	0.48505	2.23121	0	
0.0673	-0.422864	3.7616	0	
0.0680	0.186558	5.27768	0	
0.0687	0.186558	3.14658	0	
0.0693	-3.46997	-0.815251	0	
0.0700	-3.17148	-1.12991	0	
0.0707	-0.733793	1.31584	0	
0.0713	-3.46997	1.31584	0	
0.0720	-4.39032	-2.34563	0	
0.0727	-0.733793	-5.3921	0	
0.0733	-0.733793	-5.09174	0	
0.0740	-2.56206	-3.56136	0	
0.0747	0.186558	-5.3921	0	
0.0753	0.186558	-7.22284	0	
0.0760	-2.56206	-6.92248	0	
0.0767	-1.03229	-6.92248	0	
0.0773	0.795979	-6.92248	0	
0.0780	-0.733793	-6.92248	0	
0.0787	-1.34321	-7.83785	0	
0.0793	0.186558	-6.62213	0	
0.0800	0.795979	-4.79139	0	
0.0807	1.71633	-5.09174	0	
0.0813	2.62424	-4.17637	0	
0.0820	1.10691	-2.04528	0	
0.0827	-0.422864	-1.73062	0	
0.0833	-0.124372	-3.261	0	
0.0840	-0.124372	-4.17637	0	
0.0847	-2.56206	-5.09174	0	
0.0853	-2.86055	-5.09174	0	
0.0860	-0.733793	-0.815251	0	
0.0867	-1.34321	3.44694	0	
0.0873	-3.46997	4.06195	0	
0.0880	-1.95264	3.44694	0	
0.0887	0.795979	3.7616	0	
0.0893	1.10691	2.84623	0	
0.0900	2.01482	0.100119	0	
0.0907	3.23367	-1.12991	0	
0.0913	-0.124372	-0.514895	0	
0.0920	-3.7809	-2.34563	0	
0.0927	-3.17148	-2.04528	0	
0.0933	-2.25113	2.84623	0	
0.0940	-2.25113	4.97732	0	
0.0947	-0.422864	2.23121	0	
0.0953	0.795979	0.70083	0	
0.0960	-0.733793	2.23121	0	
0.0967	-1.03229	1.01549	0	
0.0973	1.71633	-1.73062	0	
0.0980	2.32575	-0.514895	0	
0.0987	-0.124372	2.84623	0	
0.0993	-0.733793	4.67697	0	
0.1000	2.93517	4.36231	0	
0.1007	4.15402	2.53157	0	
0.1013	1.4054	1.93086	0	
0.1020	0.186558	2.53157	0	
0.1027	1.71633	1.31584	0	
0.1033	1.10691	-0.514895	0	
0.1040	0.186558	1.01549	0	
0.1047	1.4054	3.44694	0	
0.1053	2.62424	3.14658	0	
0.1060	2.32575	0.70083	0	
0.1067	3.23367	-0.514895	0	
0.1073	2.62424	1.6162	0	
0.1080	-1.64171	4.67697	0	
0.1087	-4.39032	2.84623	0	
0.1093	-2.56206	-0.514895	0	
0.1100	-0.124372	-1.12991	0	
0.1107	-0.733793	-0.514895	0	
0.1113	-1.95264	-2.34563	0	
0.1120	-0.124372	-2.96065	0	
0.1127	2.93517	-3.56136	0	
0.1133	2.62424	-5.70676	0	
0.1140	0.48505	-5.09174	0	
0.1147	0.186558	-2.04528	0	
0.1153	-0.124372	-0.514895	0	
0.1160	-0.733793	-2.96065	0	
0.1167	1.10691	-4.79139	0	
0.1173	3.23367	-3.56136	0	
0.1180	2.32575	-2.34563	0	
0.1187	1.10691	-2.34563	0	
0.1193	2.93517	-0.21454	0	
0.1200	2.93517	3.14658	0	
0.1207	0.795979	3.14658	0	
0.1213	-0.124372	3.14658	0	
0.1220	0.795979	4.67697	0	
0.1227	2.01482	4.06195	0	
0.1233	2.01482	4.36231	0	
0.1240	-0.124372	9.25381	0	
0.1247	-0.733793	10.4695	0	
0.1253	1.10691	7.10841	0	
0.1260	1.4054	6.19305	0	
0.1267	1.10691	8.93915	0	
0.1273	1.4054	10.1692	0	
0.1280	1.71633	8.93915	0	
0.1287	1.71633	6.19305	0	
0.1293	2.01482	3.14658	0	
0.1300	1.4054	2.84623	0	
0.1307	0.795979	4.36231	0	
0.1313	1.4054	4.06195	0	
0.1320	2.62424	3.14658	0	
0.1327	2.93517	2.84623	0	
0.1333	1.4054	1.6162	0	
0.1340	-0.124372	0.400474	0	
0.1347	-0.124372	2.53157	0	
0.1353	0.186558	4.06195	0	
0.1360	-0.733793	0.400474	0	
0.1367	-2.56206	-2.64599	0	
0.1373	-5.31067	-1.73062	0	
0.1380	-7.13894	-0.815251	0	
0.1387	-6.21859	0.400474	0	
0.1393	-4.39032	3.14658	0	
0.1400	-4.39032	3.7616	0	
0.1407	-4.99974	3.14658	0	
0.1413	-4.70125	4.67697	0	
0.1420	-4.39032	4.36231	0	
0.1427	-3.46997	2.84623	0	
0.1433	-1.34321	3.14658	0	
0.1440	0.186558	3.7616	0	
0.1447	0.795979	4.06195	0	
0.1453	-0.422864	4.97732	0	
0.1460	-2.56206	4.06195	0	
0.1467	-2.25113	3.7616	0	
0.1473	0.186558	4.67697	0	
0.1480	-0.733793	3.44694	0	
0.1487	-2.56206	-0.514895	0	
0.1493	-0.124372	-2.64599	0	
0.1500	1.71633	-3.56136	0	
0.1507	0.186558	-5.09174	0	
0.1513	0.186558	-6.62213	0	
0.1520	1.10691	-5.09174	0	
0.1527	-1.03229	-2.04528	0	
0.1533	-2.56206	-0.815251	0	
0.1540	-0.124372	-1.43026	0	
0.1547	2.62424	-1.43026	0	
0.1553	1.10691	-4.17637	0	
0.1560	-0.422864	-6.92248	0	
0.1567	1.10691	-5.70676	0	
0.1573	1.10691	-3.56136	0	
0.1580	-1.03229	-6.00711	0	
0.1587	-1.34321	-7.83785	0	
0.1593	-1.64171	-5.09174	0	
0.1600	-4.39032	-3.261	0	
0.1607	-2.56206	-1.73062	0	
0.1613	0.186558	-0.815251	0	
0.1620	-0.733793	-0.514895	0	
0.1627	-0.733793	0.70083	0	
0.1633	1.10691	2.23121	0	
0.1640	-0.124372	1.31584	0	
0.1647	-1.03229	1.31584	0	
0.1653	-0.733793	4.67697	0	
0.1660	-4.70125	6.19305	0	
0.1667	-8.05929	4.06195	0	
0.1673	-6.21859	3.44694	0	
0.1680	-6.21859	5.89269	0	
0.1687	-8.66871	3.7616	0	
0.1693	-6.21859	-2.64599	0	
0.1700	-3.46997	-2.34563	0	
0.1707	-4.70125	1.31584	0	
0.1713	-5.92009	-2.96065	0	
0.1720	-4.99974	-5.3921	0	
0.1727	-4.39032	0.400474	0	
0.1733	-3.7809	1.31584	0	
0.1740	-1.64171	-5.09174	0	
0.1747	0.48505	-7.22284	0	
0.1753	1.10691	-7.83785	0	
0.1760	0.186558	-8.45286	0	
0.1767	1.4054	-6.62213	0	
0.1773	2.32575	-6.30747	0	
0.1780	1.10691	-5.3921	0	
0.1787	2.01482	-0.21454	0	
0.1793	5.37286	1.93086	0	
0.1800	3.84309	-0.514895	0	
0.1807	0.186558	-1.73062	0	
0.1813	1.71633	-0.514895	0	
0.1820	3.54459	3.7616	0	
0.1827	1.71633	7.42307	0	
0.1833	0.48505	6.80806	0	
0.1840	0.186558	7.72343	0	
0.1847	-1.03229	10.4695	0	
0.1853	-1.64171	8.93915	0	
0.1860	-0.124372	8.6388	0	
0.1867	1.4054	9.85452	0	
0.1873	2.93517	6.80806	0	
0.1880	2.01482	4.36231	0	
0.1887	1.4054	5.89269	0	
0.1893	2.93517	5.27768	0	
0.1900	2.93517	4.06195	0	
0.1907	0.186558	4.36231	0	
0.1913	0.186558	2.23121	0	
0.1920	0.186558	1.31584	0	
0.1927	-3.17148	3.14658	0	
0.1933	-4.39032	2.23121	0	
0.1940	-1.34321	-0.514895	0	
0.1947	0.186558	-1.43026	0	
0.1953	1.4054	-3.56136	0	
0.1960	1.71633	-5.70676	0	
0.1967	-1.64171	-2.96065	0	
0.1973	-2.25113	0.100119	0	
0.1980	2.62424	0.400474	0	
0.1987	2.93517	-0.514895	0	
0.1993	-0.422864	-0.514895	0	
0.2000	1.4054	1.01549	0	
0.2007	3.84309	1.31584	0	
0.2013	0.186558	-0.21454	0	
0.2020	-0.733793	1.6162	0	
0.2027	2.32575	4.97732	0	
0.2033	2.32575	3.44694	0	
0.2040	0.795979	2.53157	0	
0.2047	2.32575	5.27768	0	
0.2053	3.23367	3.14658	0	
0.2060	1.10691	0.100119	0	
0.2067	2.01482	3.44694	0	
0.2073	3.54459	5.89269	0	
0.2080	0.48505	2.84623	0	
0.2087	-1.64171	0.400474	0	
0.2093	0.48505	-0.815251	0	
0.2100	0.795979	-1.43026	0	
0.2107	-0.733793	-0.514895	0	
0.2113	-0.422864	-2.34563	0	
0.2120	-0.733793	-5.3921	0	
0.2127	-2.25113	-4.47673	0	
0.2133	-1.64171	-4.17637	0	
0.2140	1.10691	-4.47673	0	
0.2147	3.23367	-4.17637	0	
0.2153	3.23367	-5.3921	0	
0.2160	1.4054	-4.79139	0	
0.2167	-0.733793	-1.12991	0	
0.2173	-0.733793	-2.34563	0	
0.2180	-0.124372	-4.79139	0	
0.2187	-0.124372	-0.815251	0	
0.2193	1.10691	2.23121	0	
0.2200	2.01482	2.53157	0	
0.2207	2.01482	3.44694	0	
0.2213	0.48505	2.23121	0	
0.2220	-0.733793	-0.21454	0	
0.2227	-0.124372	0.70083	0	
0.2233	2.01482	2.23121	0	
0.2240	1.71633	1.93086	0	
0.2247	-0.124372	2.23121	0	
0.2253	0.48505	0.400474	0	
0.2260	1.10691	-0.815251	0	
0.2267	1.10691	1.31584	0	
0.2273	1.71633	1.93086	0	
0.2280	-0.124372	0.400474	0	
0.2287	-3.7809	1.31584	0	
0.2293	-3.46997	1.31584	0	
0.2300	-1.03229	1.01549	0	
0.2307	-1.64171	1.31584	0	
0.2313	-1.64171	-1.12991	0	
0.2320	-1.34321	-4.79139	0	
0.2327	-3.46997	-5.09174	0	
0.2333	-2.86055	-2.64599	0	
0.2340	-0.733793	0.70083	0	
0.2347	-2.25113	2.84623	0	
0.2353	-2.56206	0.400474	0	
0.2360	-0.422864	-2.34563	0	
0.2367	-1.64171	-1.73062	0	
0.2373	-3.7809	0.100119	0	
0.2380	-1.03229	0.400474	0	
0.2387	2.32575	-0.21454	0	
0.2393	3.54459	-0.21454	0	
0.2400	2.93517	1.31584	0	
0.2407	0.186558	2.84623	0	
0.2413	-0.124372	2.23121	0	
0.2420	2.62424	3.44694	0	
0.2427	2.93517	5.89269	0	
0.2433	2.62424	4.06195	0	
0.2440	2.62424	1.93086	0	
0.2447	-1.03229	3.14658	0	
0.2453	-3.17148	2.23121	0	
0.2460	0.795979	-2.34563	0	
0.2467	2.01482	-3.56136	0	
0.2473	-0.733793	-2.34563	0	
0.2480	-0.422864	-3.56136	0	
0.2487	1.10691	-4.17637	0	
0.2493	-0.733793	-3.261	0	
0.2500	-1.95264	-4.17637	0	
0.2507	-0.124372	-5.09174	0	
0.2513	0.795979	-4.47673	0	
0.2520	-0.124372	-5.70676	0	
0.2527	-1.34321	-8.75322	0	
0.2533	-1.34321	-9.66859	0	
0.2540	-0.733793	-6.92248	0	
0.2547	0.48505	-3.56136	0	
0.2553	0.48505	-4.17637	0	
0.2560	0.48505	-6.92248	0	
0.2567	2.01482	-5.09174	0	
0.2573	2.93517	-2.96065	0	
0.2580	2.93517	-4.47673	0	
0.2587	4.76344	-4.47673	0	
0.2593	5.98228	-2.34563	0	
0.2600	2.32575	-1.12991	0	
0.2607	1.10691	1.31584	0	
0.2613	4.45251	2.23121	0	
0.2620	3.84309	-0.514895	0	
0.2627	0.186558	-1.43026	0	
0.2633	1.10691	-0.815251	0	
0.2640	2.01482	-2.96065	0	
0.2647	0.795979	-4.17637	0	
0.2653	1.10691	-1.43026	0	
0.2660	1.10691	1.31584	0	
0.2667	0.48505	1.31584	0	
0.2673	1.10691	1.01549	0	
0.2680	1.10691	-0.21454	0	
0.2687	0.186558	-0.514895	0	
0.2693	-0.422864	-1.12991	0	
0.2700	1.10691	-1.12991	0	
0.2707	2.93517	-0.21454	0	
0.2713	2.01482	0.400474	0	
0.2720	-1.64171	0.100119	0	
0.2727	-3.46997	2.23121	0	
0.2733	-4.09183	4.67697	0	
0.2740	-4.39032	3.14658	0	
0.2747	-0.422864	3.14658	0	
0.2753	2.93517	4.97732	0	
0.2760	2.01482	3.14658	0	
0.2767	1.10691	-0.21454	0	
0.2773	1.10691	-0.21454	0	
0.2780	-0.733793	-0.815251	0	
0.2787	0.186558	-3.87602	0	
0.2793	3.84309	-1.43026	0	
0.2800	4.76344	3.7616	0	
0.2807	4.76344	2.84623	0	
0.2813	3.84309	0.70083	0	
0.2820	1.4054	2.23121	0	
0.2827	3.23367	2.23121	0	
0.2833	5.98228	0.400474	0	
0.2840	3.54459	0.100119	0	
0.2847	2.32575	-0.514895	0	
0.2853	5.37286	-1.43026	0	
0.2860	5.07437	-1.12991	0	
0.2867	1.10691	-1.73062	0	
0.2873	-1.64171	-1.73062	0	
0.2880	0.186558	0.100119	0	
0.2887	1.10691	0.400474	0	
0.2893	-2.86055	0.400474	0	
0.2900	-6.21859	-0.514895	0	
0.2907	-3.46997	-2.64599	0	
0.2913	-2.56206	-3.261	0	
0.2920	-4.70125	-3.56136	0	
0.2927	-2.56206	-6.00711	0	
0.2933	-0.124372	-7.53749	0	
0.2940	-3.17148	-6.62213	0	
0.2947	-4.70125	-5.09174	0	
0.2953	-2.56206	-3.261	0	
0.2960	-0.124372	-4.79139	0	
0.2967	0.186558	-6.62213	0	
0.2973	-1.34321	-5.09174	0	
0.2980	-1.95264	-2.96065	0	
0.2987	0.186558	-1.43026	0	
0.2993	1.10691	1.31584	0	
0.3000	0.186558	1.6162	0	
0.3007	1.10691	-0.21454	0	
0.3013	2.93517	1.93086	0	
0.3020	1.4054	3.44694	0	
0.3027	0.186558	1.31584	0	
0.3033	2.32575	0.70083	0	
0.3040	5.68379	1.01549	0	
0.3047	5.68379	0.400474	0	
0.3053	4.76344	2.84623	0	
0.3060	3.84309	4.06195	0	
0.3067	1.71633	2.84623	0	
0.3073	-0.422864	5.59233	0	
0.3080	-1.64171	8.02378	0	
0.3087	-3.17148	4.67697	0	
0.3093	-2.25113	0.100119	0	
0.3100	0.795979	-2.64599	0	
0.3107	0.795979	-2.64599	0	
0.3113	-1.03229	0.400474	0	
0.3120	-1.03229	-0.815251	0	
0.3127	-1.34321	-2.96065	0	
0.3133	-1.64171	2.53157	0	
0.3140	1.10691	5.89269	0	
0.3147	2.01482	1.01549	0	
0.3153	-0.422864	-1.43026	0	
0.3160	0.186558	-0.514895	0	
0.3167	2.32575	-3.56136	0	
0.3173	0.48505	-5.09174	0	
0.3180	-1.03229	-3.261	0	
0.3187	1.4054	-2.64599	0	
0.3193	2.93517	-2.64599	0	
0.3200	0.186558	-2.34563	0	
0.3207	-0.733793	-2.04528	0	
0.3213	1.10691	0.100119	0	
0.3220	2.01482	1.31584	0	
0.3227	1.71633	0.70083	0	
0.3233	0.795979	2.23121	0	
0.3240	-1.03229	3.7616	0	
0.3247	-1.03229	1.6162	0	
0.3253	0.186558	1.01549	0	
0.3260	-0.422864	3.44694	0	
0.3267	-0.733793	4.97732	0	
0.3273	-0.733793	4.67697	0	
0.3280	-2.56206	4.97732	0	
0.3287	-3.46997	5.89269	0	
0.3293	-4.09183	6.80806	0	
0.3300	-6.82801	4.97732	0	
0.3307	-6.52952	1.93086	0	
0.3313	-2.25113	1.01549	0	
0.3320	-2.56206	2.23121	0	
0.3327	-6.52952	-0.21454	0	
0.3333	-4.99974	-4.17637	0	
0.3340	-0.733793	-5.09174	0	
0.3347	-1.64171	-4.47673	0	
0.3353	-4.09183	-5.70676	0	
0.3360	-3.17148	-4.79139	0	
0.3367	-3.46997	-2.04528	0	
0.3373	-4.99974	-2.04528	0	
0.3380	-3.46997	-2.96065	0	
0.3387	-2.25113	-0.514895	0	
0.3393	-3.7809	-0.21454	0	
0.3400	-2.86055	-2.34563	0	
0.3407	-1.64171	-2.34563	0	
0.3413	-2.86055	-0.514895	0	
0.3420	-0.733793	-1.73062	0	
0.3427	2.62424	-3.261	0	
0.3433	-1.34321	-2.04528	0	
0.3440	-5.31067	-2.04528	0	
0.3447	-2.25113	-4.47673	0	
0.3453	-2.56206	-5.70676	0	
0.3460	-6.82801	-4.79139	0	
0.3467	-5.92009	-6.00711	0	
0.3473	-3.46997	-7.22284	0	
0.3480	-4.70125	-6.30747	0	
0.3487	-6.21859	-8.13821	0	
0.3493	-6.21859	-12.4147	0	
0.3500	-4.99974	-14.2454	0	
0.3507	-5.31067	-13.6447	0	
0.3513	-7.13894	-13.3301	0	
0.3520	-5.60917	-10.2836	0	
0.3527	-2.56206	-4.17637	0	
0.3533	-4.99974	-2.34563	0	
0.3540	-8.66871	-4.17637	0	
0.3547	-8.05929	-3.87602	0	
0.3553	-6.21859	-3.87602	0	
0.3560	-4.99974	-6.92248	0	
0.3567	-3.17148	-6.00711	0	
0.3573	-4.70125	-1.43026	0	
0.3580	-5.92009	0.100119	0	
0.3587	-4.39032	0.100119	0	
0.3593	-6.52952	2.53157	0	
0.3600	-8.9672	3.7616	0	
0.3607	-5.60917	3.14658	0	
0.3613	-2.56206	2.23121	0	
0.3620	-2.56206	1.01549	0	
0.3627	-1.64171	1.31584	0	
0.3633	-2.56206	3.14658	0	
0.3640	-5.31067	3.44694	0	
0.3647	-4.99974	2.53157	0	
0.3653	-3.46997	1.01549	0	
0.3660	-4.09183	-0.514895	0	
0.3667	-2.56206	1.01549	0	
0.3673	-0.422864	4.67697	0	
0.3680	-1.64171	5.89269	0	
0.3687	-2.56206	4.06195	0	
0.3693	-0.733793	2.53157	0	
0.3700	1.10691	2.23121	0	
0.3707	0.795979	-0.514895	0	
0.3713	0.186558	-2.96065	0	
0.3720	1.71633	-3.261	0	
0.3727	2.93517	-3.87602	0	
0.3733	2.62424	-5.70676	0	
0.3740	2.93517	-6.92248	0	
0.3747	2.93517	-6.30747	0	
0.3753	1.10691	-5.09174	0	
0.3760	0.186558	-4.17637	0	
0.3767	2.62424	-4.17637	0	
0.3773	3.54459	-5.3921	0	
0.3780	2.62424	-7.83785	0	
0.3787	2.01482	-6.62213	0	
0.3793	1.10691	-1.73062	0	
0.3800	0.795979	-0.21454	0	
0.3807	3.23367	-3.261	0	
0.3813	3.84309	-2.96065	0	
0.3820	1.4054	0.100119	0	
0.3827	2.01482	-1.12991	0	
0.3833	5.07437	-4.79139	0	
0.3840	3.84309	-4.79139	0	
0.3847	0.186558	-3.56136	0	
0.3853	-0.733793	-2.64599	0	
0.3860	-0.422864	0.400474	0	
0.3867	-0.124372	2.23121	0	
0.3873	-0.124372	-0.21454	0	
0.3880	-1.34321	-2.96065	0	
0.3887	-2.25113	-4.47673	0	
0.3893	-0.733793	-6.00711	0	
0.3900	-1.03229	-5.09174	0	
0.3907	-4.70125	-3.87602	0	
0.3913	-6.21859	-4.17637	0	
0.3920	-4.70125	-5.09174	0	
0.3927	-4.70125	-3.87602	0	
0.3933	-6.21859	-1.43026	0	
0.3940	-6.21859	-0.514895	0	
0.3947	-3.7809	-1.73062	0	
0.3953	-2.25113	-2.96065	0	
0.3960	-3.17148	-1.73062	0	
0.3967	-2.56206	1.01549	0	
0.3973	-0.733793	4.06195	0	
0.3980	-0.733793	3.44694	0	
0.3987	-0.733793	0.100119	0	
0.3993	2.01482	0.70083	0	
0.4000	2.62424	5.27768	0	
0.4007	0.48505	6.19305	0	
0.4013	1.4054	4.06195	0	
0.4020	4.45251	4.67697	0	
0.4027	5.37286	5.89269	0	
0.4033	4.45251	5.59233	0	
0.4040	4.15402	4.36231	0	
0.4047	6.5917	4.67697	0	
0.4053	8.41997	5.59233	0	
0.4060	7.51205	4.06195	0	
0.4067	5.98228	1.93086	0	
0.4073	5.37286	4.06195	0	
0.4080	3.23367	6.80806	0	
0.4087	1.10691	6.19305	0	
0.4093	1.10691	4.97732	0	
0.4100	0.186558	4.67697	0	
0.4107	-1.64171	2.23121	0	
0.4113	-2.56206	-0.21454	0	
0.4120	-1.03229	0.400474	0	
0.4127	0.48505	0.100119	0	
0.4133	1.10691	-3.261	0	
0.4140	2.01482	-4.17637	0	
0.4147	3.54459	-4.17637	0	
0.4153	2.93517	-6.00711	0	
0.4160	1.10691	-3.261	0	
0.4167	0.795979	1.93086	0	
0.4173	-0.422864	1.31584	0	
0.4180	-1.34321	-1.43026	0	
0.4187	2.32575	1.6162	0	
0.4193	2.93517	5.59233	0	
0.4200	-1.64171	6.80806	0	
0.4207	-0.422864	7.72343	0	
0.4213	3.84309	6.80806	0	
0.4220	3.23367	4.97732	0	
0.4227	4.45251	3.14658	0	
0.4233	8.41997	1.31584	0	
0.4240	6.5917	2.23121	0	
0.4247	2.93517	5.59233	0	
0.4253	3.84309	8.93915	0	
0.4260	4.76344	12.3003	0	
0.4267	3.84309	11.0846	0	
0.4273	2.93517	5.27768	0	
0.4280	1.10691	4.06195	0	
0.4287	0.48505	4.36231	0	
0.4293	2.01482	1.31584	0	
0.4300	2.62424	1.01549	0	
0.4307	2.32575	3.14658	0	
0.4313	2.01482	1.31584	0	
0.4320	1.10691	-0.21454	0	
0.4327	-0.124372	0.70083	0	
0.4333	0.186558	-1.43026	0	
0.4340	1.10691	-2.96065	0	
0.4347	0.186558	-1.43026	0	
0.4353	-0.733793	-2.34563	0	
0.4360	0.186558	-3.56136	0	
0.4367	0.48505	-3.87602	0	
0.4373	-2.56206	-5.70676	0	
0.4380	-4.09183	-7.22284	0	
0.4387	-0.733793	-7.53749	0	
0.4393	1.10691	-6.92248	0	
0.4400	-2.25113	-5.09174	0	
0.4407	-4.39032	-6.00711	0	
0.4413	-2.25113	-7.53749	0	
0.4420	-0.124372	-3.87602	0	
0.4427	0.186558	1.31584	0	
0.4433	0.48505	1.93086	0	
0.4440	0.186558	1.6162	0	
0.4447	1.4054	1.93086	0	
0.4453	3.54459	-0.815251	0	
0.4460	2.01482	-2.34563	0	
0.4467	0.186558	0.400474	0	
0.4473	2.62424	1.6162	0	
0.4480	3.84309	0.100119	0	
0.4487	2.01482	-0.815251	0	
0.4493	2.01482	-0.815251	0	
0.4500	1.71633	-0.514895	0	
0.4507	-1.03229	-1.43026	0	
0.4513	-1.95264	-1.43026	0	
0.4520	-1.03229	1.31584	0	
0.4527	-1.34321	4.97732	0	
0.4533	-0.124372	4.06195	0	
0.4540	1.4054	2.53157	0	
0.4547	0.186558	2.53157	0	
0.4553	-0.422864	2.53157	0	
0.4560	0.795979	3.14658	0	
0.4567	2.62424	4.36231	0	
0.4573	3.23367	3.14658	0	
0.4580	2.93517	1.6162	0	
0.4587	1.71633	4.06195	0	
0.4593	1.71633	6.80806	0	
0.4600	2.01482	7.10841	0	
0.4607	2.93517	6.80806	0	
0.4613	2.93517	4.06195	0	
0.4620	0.186558	1.31584	0	
0.4627	-0.733793	1.31584	0	
0.4633	0.48505	3.14658	0	
0.4640	1.10691	3.14658	0	
0.4647	0.48505	2.53157	0	
0.4653	-0.733793	4.06195	0	
0.4660	-0.733793	4.06195	0	
0.4667	1.71633	2.84623	0	
0.4673	1.10691	3.7616	0	
0.4680	-1.34321	5.59233	0	
0.4687	1.10691	2.84623	0	
0.4693	2.93517	-0.21454	0	
0.4700	-1.95264	0.400474	0	
0.4707	-3.46997	0.70083	0	
0.4713	0.186558	1.01549	0	
0.4720	-2.25113	3.14658	0	
0.4727	-5.60917	0.400474	0	
0.4733	-3.46997	-4.47673	0	
0.4740	-2.56206	-2.34563	0	
0.4747	-3.46997	1.31584	0	
0.4753	-0.733793	-0.815251	0	
0.4760	0.186558	-3.261	0	
0.4767	-2.25113	-1.73062	0	
0.4773	-2.25113	-1.43026	0	
0.4780	-1.64171	-1.73062	0	
0.4787	-2.56206	0.400474	0	
0.4793	-0.733793	3.44694	0	
0.4800	2.32575	3.44694	0	
0.4807	2.32575	3.14658	0	
0.4813	1.71633	4.06195	0	
0.4820	2.32575	4.36231	0	
0.4827	2.32575	3.7616	0	
0.4833	2.01482	1.01549	0	
0.4840	2.93517	-2.34563	0	
0.4847	2.93517	-2.64599	0	
0.4853	1.71633	-1.12991	0	
0.4860	1.4054	-1.43026	0	
0.4867	0.795979	-1.12991	0	
0.4873	-0.124372	1.31584	0	
0.4880	0.795979	1.6162	0	
0.4887	-0.733793	1.6162	0	
0.4893	-5.60917	4.06195	0	
0.4900	-7.13894	4.06195	0	
0.4907	-5.31067	2.23121	0	
0.4913	-5.92009	0.70083	0	
0.4920	-5.92009	0.100119	0	
0.4927	-3.46997	-0.514895	0	
0.4933	-4.39032	-1.12991	0	
0.4940	-7.43743	-3.261	0	
0.4947	-5.92009	-5.3921	0	
0.4953	-3.17148	-4.79139	0	
0.4960	-4.39032	-2.34563	0	
0.4967	-6.21859	-1.12991	0	
0.4973	-6.52952	-2.34563	0	
0.4980	-5.31067	-2.96065	0	
0.4987	-4.09183	-1.43026	0	
0.4993	-4.09183	-0.514895	0	
0.5000	-4.09183	-1.43026	0	
0.5007	-2.56206	-0.514895	0	
0.5013	-2.56206	1.6162	0	
0.5020	-4.39032	4.06195	0	
0.5027	-1.95264	5.27768	0	
0.5033	0.186558	4.97732	0	
0.5040	-1.95264	2.23121	0	
0.5047	-2.86055	1.31584	0	
0.5053	0.48505	4.67697	0	
0.5060	2.32575	7.72343	0	
0.5067	1.10691	6.5077	0	
0.5073	0.48505	3.14658	0	
0.5080	0.186558	0.400474	0	
0.5087	-0.422864	-1.73062	0	
0.5093	2.01482	-2.64599	0	
0.5100	2.93517	-2.96065	0	
0.5107	1.10691	-4.17637	0	
0.5113	0.186558	-4.17637	0	
0.5120	2.32575	-2.34563	0	
0.5127	2.32575	-2.96065	0	
0.5133	2.62424	-5.3921	0	
0.5140	5.68379	-5.09174	0	
0.5147	4.76344	-2.34563	0	
0.5153	-0.124372	-1.12991	0	
0.5160	-0.422864	-2.04528	0	
0.5167	2.93517	-2.96065	0	
0.5173	1.4054	-4.17637	0	
0.5180	0.186558	-5.3921	0	
0.5187	3.23367	-6.62213	0	
0.5193	3.84309	-5.3921	0	
0.5200	3.84309	-3.261	0	
0.5207	7.20112	-2.34563	0	
0.5213	6.90263	-2.96065	0	
0.5220	3.54459	-3.261	0	
0.5227	4.15402	-1.73062	0	
0.5233	5.68379	0.400474	0	
0.5240	3.54459	1.6162	0	
0.5247	2.32575	2.23121	0	
0.5253	2.62424	2.23121	0	
0.5260	2.32575	0.400474	0	
0.5267	2.62424	-2.96065	0	
0.5273	2.93517	-3.87602	0	
0.5280	2.01482	-3.56136	0	
0.5287	1.10691	-5.70676	0	
0.5293	1.10691	-6.92248	0	
0.5300	0.186558	-3.261	0	
0.5307	-1.34321	0.100119	0	
0.5313	-2.86055	-1.43026	0	
0.5320	-3.46997	-2.96065	0	
0.5327	-1.95264	-3.261	0	
0.5333	-2.56206	-2.04528	0	
0.5340	-4.99974	1.93086	0	
0.5347	-4.39032	3.7616	0	
0.5353	-1.95264	1.31584	0	
0.5360	-1.95264	-1.12991	0	
0.5367	-4.39032	-1.12991	0	
0.5373	-5.31067	-0.21454	0	
0.5380	-3.7809	1.6162	0	
0.5387	-2.56206	2.23121	0	
0.5393	-2.86055	1.01549	0	
0.5400	-3.7809	0.70083	0	
0.5407	-2.56206	2.23121	0	
0.5413	-1.34321	3.7616	0	
0.5420	-4.39032	4.36231	0	
0.5427	-6.21859	4.36231	0	
0.5433	-2.56206	3.14658	0	
0.5440	1.10691	0.70083	0	
0.5447	-1.03229	-0.815251	0	
0.5453	-2.56206	-0.514895	0	
0.5460	-0.733793	-0.815251	0	
0.5467	-1.34321	-2.64599	0	
0.5473	-3.46997	-2.96065	0	
0.5480	-3.46997	-0.514895	0	
0.5487	-1.95264	0.400474	0	
0.5493	-2.56206	1.31584	0	
0.5500	-2.86055	2.53157	0	
0.5507	-0.733793	0.70083	0	
0.5513	-0.733793	-2.64599	0	
0.5520	-3.46997	-3.261	0	
0.5527	-3.7809	-4.17637	0	
0.5533	-2.25113	-5.70676	0	
0.5540	-2.56206	-4.17637	0	
0.5547	-3.17148	-2.96065	0	
0.5553	-1.64171	-5.09174	0	
0.5560	-2.56206	-4.47673	0	
0.5567	-2.56206	-3.261	0	
0.5573	-0.124372	-6.00711	0	
0.5580	1.10691	-6.00711	0	
0.5587	0.186558	-1.43026	0	
0.5593	1.10691	-2.34563	0	
0.5600	2.01482	-4.17637	0	
0.5607	1.71633	-0.514895	0	
0.5613	2.01482	0.400474	0	
0.5620	3.23367	-0.514895	0	
0.5627	1.4054	2.23121	0	
0.5633	-1.64171	3.14658	0	
0.5640	-1.03229	-0.514895	0	
0.5647	0.795979	0.100119	0	
0.5653	-0.124372	1.31584	0	
0.5660	0.795979	-1.43026	0	
0.5667	2.93517	-0.21454	0	
0.5673	0.795979	2.53157	0	
0.5680	-1.34321	-1.12991	0	
0.5687	1.4054	-4.17637	0	
0.5693	1.71633	-1.12991	0	
0.5700	-0.733793	1.31584	0	
0.5707	-1.34321	0.100119	0	
0.5713	-2.56206	-1.73062	0	
0.5720	-4.39032	-2.34563	0	
0.5727	-3.46997	-1.12991	0	
0.5733	-1.95264	-1.12991	0	
0.5740	-2.25113	-5.09174	0	
0.5747	-1.34321	-6.92248	0	
0.5753	-0.422864	-5.09174	0	
0.5760	-0.733793	-6.00711	0	
0.5767	-2.56206	-6.30747	0	
0.5773	-4.09183	-3.261	0	
0.5780	-2.86055	-2.04528	0	
0.5787	-0.733793	-0.815251	0	
0.5793	-0.733793	2.84623	0	
0.5800	-0.733793	2.23121	0	
0.5807	-1.64171	-0.21454	0	
0.5813	-3.46997	1.31584	0	
0.5820	-2.56206	1.31584	0	
0.5827	-1.64171	-1.73062	0	
0.5833	-4.99974	-1.43026	0	
0.5840	-4.99974	-0.21454	0	
0.5847	-0.733793	-0.514895	0	
0.5853	-1.03229	0.70083	0	
0.5860	-4.09183	2.53157	0	
0.5867	-2.56206	0.100119	0	
0.5873	0.186558	-4.17637	0	
0.5880	1.10691	-7.53749	0	
0.5887	-0.422864	-10.584	0	
0.5893	-2.25113	-11.4993	0	
0.5900	-1.34321	-9.36823	0	
0.5907	2.93517	-6.30747	0	
0.5913	3.54459	-6.00711	0	
0.5920	0.186558	-6.92248	0	
0.5927	-1.34321	-6.30747	0	
0.5933	0.186558	-2.96065	0	
0.5940	1.4054	0.100119	0	
0.5947	2.01482	1.31584	0	
0.5953	2.62424	3.14658	0	
0.5960	1.71633	5.27768	0	
0.5967	-0.733793	5.59233	0	
0.5973	0.48505	4.36231	0	
0.5980	4.45251	2.53157	0	
0.5987	4.76344	1.31584	0	
0.5993	2.01482	3.14658	0	
0.6000	2.62424	3.44694	0	
0.6007	4.15402	0.400474	0	
0.6013	2.93517	-1.43026	0	
0.6020	1.10691	0.70083	0	
0.6027	0.186558	2.84623	0	
0.6033	1.4054	2.53157	0	
0.6040	3.84309	-0.21454	0	
0.6047	4.45251	-2.64599	0	
0.6053	3.23367	2.23121	0	
0.6060	3.84309	9.55417	0	
0.6067	3.84309	8.6388	0	
0.6073	2.93517	4.36231	0	
0.6080	4.76344	4.36231	0	
0.6087	5.37286	2.23121	0	
0.6093	2.93517	-3.261	0	
0.6100	0.795979	-6.00711	0	
0.6107	1.10691	-5.09174	0	
0.6113	2.62424	-3.87602	0	
0.6120	2.01482	-3.87602	0	
0.6127	-0.733793	-6.00711	0	
0.6133	-1.64171	-8.45286	0	
0.6140	-0.733793	-9.36823	0	
0.6147	-0.733793	-9.36823	0	
0.6153	-1.64171	-6.92248	0	
0.6160	-1.64171	-2.64599	0	
0.6167	-1.64171	-2.34563	0	
0.6173	-1.03229	-3.87602	0	
0.6180	0.186558	-1.73062	0	
0.6187	1.10691	0.400474	0	
0.6193	2.93517	2.23121	0	
0.6200	3.84309	8.33844	0	
0.6207	1.4054	13.2156	0	
0.6213	1.10691	11.0846	0	
0.6220	5.37286	8.6388	0	
0.6227	5.37286	9.25381	0	
0.6233	1.10691	9.55417	0	
0.6240	1.4054	9.55417	0	
0.6247	3.84309	8.02378	0	
0.6253	2.01482	0.400474	0	
0.6260	0.186558	-4.17637	0	
0.6267	2.32575	-1.12991	0	
0.6273	1.4054	-3.87602	0	
0.6280	-1.34321	-17.3062	0	
0.6287	-0.124372	-26.1452	0	
0.6293	0.48505	-24.0141	0	
0.6300	-2.25113	-18.2216	0	
0.6307	-2.25113	-10.584	0	
0.6313	1.10691	-6.62213	0	
0.6320	1.4054	-7.83785	0	
0.6327	-0.733793	-1.43026	0	
0.6333	-1.03229	11.9999	0	
0.6340	-0.733793	18.4075	0	
0.6347	0.795979	22.9844	0	
0.6353	2.01482	30.007	0	
0.6360	0.48505	26.9462	0	
0.6367	-3.17148	15.9618	0	
0.6373	-2.86055	10.4695	0	
0.6380	0.795979	9.55417	0	
0.6387	-0.124372	8.6388	0	
0.6393	-3.7809	6.5077	0	
0.6400	-1.64171	2.23121	0	
0.6407	2.93517	1.31584	0	
0.6413	2.01482	4.67697	0	
0.6420	-0.124372	4.06195	0	
0.6427	1.10691	3.7616	0	
0.6433	2.93517	5.89269	0	
0.6440	3.84309	3.14658	0	
0.6447	3.54459	0.100119	0	
0.6453	1.10691	3.44694	0	
0.6460	1.10691	5.59233	0	
0.6467	5.37286	5.27768	0	
0.6473	6.90263	8.93915	0	
0.6480	2.62424	11.3849	0	
0.6487	0.795979	8.33844	0	
0.6493	4.15402	5.89269	0	
0.6500	4.76344	5.89269	0	
0.6507	2.93517	6.5077	0	
0.6513	2.32575	8.02378	0	
0.6520	2.01482	8.33844	0	
0.6527	2.93517	8.6388	0	
0.6533	4.45251	8.93915	0	
0.6540	2.01482	5.89269	0	
0.6547	0.795979	3.14658	0	
0.6553	3.23367	3.7616	0	
0.6560	3.54459	1.31584	0	
0.6567	2.93517	-2.34563	0	
0.6573	3.54459	-2.34563	0	
0.6580	1.10691	-0.514895	0	
0.6587	-1.03229	1.31584	0	
0.6593	1.4054	2.53157	0	
0.6600	1.71633	1.93086	0	
0.6607	-1.64171	0.70083	0	
0.6613	-0.422864	1.31584	0	
0.6620	2.32575	2.53157	0	
0.6627	-0.124372	2.23121	0	
0.6633	-2.86055	0.400474	0	
0.6640	-2.56206	-1.73062	0	
0.6647	-3.46997	-0.514895	0	
0.6653	-4.39032	2.23121	0	
0.6660	-2.86055	2.53157	0	
0.6667	-1.64171	1.31584	0	
0.6673	-2.56206	-0.21454	0	
0.6680	-3.17148	1.01549	0	
0.6687	-3.7809	3.44694	0	
0.6693	-4.70125	3.14658	0	
0.6700	-2.86055	2.23121	0	
0.6707	-1.34321	4.06195	0	
0.6713	-2.86055	2.53157	0	
0.6720	-2.56206	-0.815251	0	
0.6727	-1.64171	0.100119	0	
0.6733	-3.46997	-0.514895	0	
0.6740	-4.39032	-6.00711	0	
0.6747	-2.25113	-7.83785	0	
0.6753	-1.95264	-5.09174	0	
0.6760	-3.46997	-5.70676	0	
0.6767	-2.56206	-7.83785	0	
0.6773	-0.733793	-7.83785	0	
0.6780	-0.422864	-8.45286	0	
0.6787	-1.95264	-9.36823	0	
0.6793	-3.46997	-8.13821	0	
0.6800	-4.09183	-6.00711	0	
0.6807	-2.56206	-6.00711	0	
0.6813	0.186558	-6.92248	0	
0.6820	2.01482	-6.30747	0	
0.6827	0.186558	-5.09174	0	
0.6833	-1.03229	-6.00711	0	
0.6840	1.10691	-7.83785	0	
0.6847	2.01482	-6.00711	0	
0.6853	0.48505	-4.17637	0	
0.6860	0.795979	-6.30747	0	
0.6867	1.4054	-7.53749	0	
0.6873	0.795979	-5.09174	0	
0.6880	0.186558	-4.17637	0	
0.6887	-2.86055	-7.83785	0	
0.6893	-4.99974	-9.66859	0	
0.6900	-0.733793	-8.13821	0	
0.6907	1.10691	-9.66859	0	
0.6913	-2.86055	-13.0297	0	
0.6920	-3.17148	-13.0297	0	
0.6927	-1.03229	-10.584	0	
0.6933	-5.60917	-9.66859	0	
0.6940	-8.35778	-9.05357	0	
0.6947	-4.70125	-6.92248	0	
0.6953	-4.39032	-7.83785	0	
0.6960	-7.13894	-11.199	0	
0.6967	-6.21859	-10.8843	0	
0.6973	-4.99974	-7.53749	0	
0.6980	-3.7809	-3.56136	0	
0.6987	-0.733793	-0.815251	0	
0.6993	-1.64171	1.93086	0	
0.7000	-6.52952	2.84623	0	
0.7007	-6.52952	1.01549	0	
0.7013	-2.25113	0.70083	0	
0.7020	-2.56206	2.84623	0	
0.7027	-6.21859	2.23121	0	
0.7033	-4.99974	1.31584	0	
0.7040	-1.64171	5.27768	0	
0.7047	-1.34321	8.33844	0	
0.7053	-2.25113	4.97732	0	
0.7060	-1.03229	2.84623	0	
0.7067	-0.733793	5.59233	0	
0.7073	-3.46997	5.89269	0	
0.7080	-6.52952	3.14658	0	
0.7087	-7.13894	3.14658	0	
0.7093	-6.21859	3.14658	0	
0.7100	-5.31067	-0.514895	0	
0.7107	-4.39032	-2.34563	0	
0.7113	-4.39032	-1.12991	0	
0.7120	-6.21859	0.70083	0	
0.7127	-5.31067	3.44694	0	
0.7133	-1.95264	3.14658	0	
0.7140	0.186558	1.01549	0	
0.7147	-0.124372	2.23121	0	
0.7153	-0.422864	3.14658	0	
0.7160	0.186558	-0.21454	0	
0.7167	1.10691	-0.21454	0	
0.7173	2.32575	3.44694	0	
0.7180	2.62424	1.31584	0	
0.7187	1.4054	-2.34563	0	
0.7193	1.10691	-1.12991	0	
0.7200	1.71633	-1.43026	0	
0.7207	2.32575	-3.261	0	
0.7213	3.23367	0.100119	0	
0.7220	3.84309	2.53157	0	
0.7227	2.62424	1.01549	0	
0.7233	2.01482	1.93086	0	
0.7240	2.93517	4.67697	0	
0.7247	2.01482	4.06195	0	
0.7253	0.186558	3.14658	0	
0.7260	0.48505	4.06195	0	
0.7267	1.71633	3.14658	0	
0.7273	-0.733793	3.44694	0	
0.7280	-1.95264	6.80806	0	
0.7287	0.48505	7.72343	0	
0.7293	2.01482	5.59233	0	
0.7300	0.48505	7.42307	0	
0.7307	0.795979	9.55417	0	
0.7313	2.93517	5.89269	0	
0.7320	2.32575	1.01549	0	
0.7327	-0.124372	-0.514895	0	
0.7333	-1.95264	0.400474	0	
0.7340	-1.64171	2.23121	0	
0.7347	-0.124372	4.06195	0	
0.7353	-1.34321	2.53157	0	
0.7360	-3.46997	0.400474	0	
0.7367	-3.17148	2.23121	0	
0.7373	-1.95264	3.7616	0	
0.7380	-2.56206	1.01549	0	
0.7387	-1.34321	0.70083	0	
0.7393	-0.733793	4.97732	0	
0.7400	-2.56206	7.72343	0	
0.7407	-0.733793	9.55417	0	
0.7413	1.4054	14.131	0	
0.7420	-0.733793	15.9618	0	
0.7427	-0.124372	13.8307	0	
0.7433	3.84309	10.4695	0	
0.7440	3.84309	7.72343	0	
0.7447	0.186558	7.72343	0	
0.7453	-1.34321	9.55417	0	
0.7460	-0.733793	6.80806	0	
0.7467	1.10691	4.06195	0	
0.7473	2.01482	6.19305	0	
0.7480	0.795979	6.80806	0	
0.7487	1.10691	3.44694	0	
0.7493	1.71633	3.14658	0	
0.7500	0.48505	2.23121	0	
0.7507	1.4054	1.31584	0	
0.7513	2.93517	3.14658	0	
0.7520	0.186558	2.23121	0	
0.7527	-1.03229	-0.514895	0	
0.7533	0.48505	0.100119	0	
0.7540	0.795979	-1.43026	0	
0.7547	0.186558	-4.79139	0	
0.7553	-0.422864	-3.261	0	
0.7560	-1.34321	-2.34563	0	
0.7567	0.186558	-5.09174	0	
0.7573	2.01482	-5.3921	0	
0.7580	-0.733793	-7.53749	0	
0.7587	-1.03229	-11.4993	0	
0.7593	2.01482	-8.75322	0	
0.7600	0.795979	-1.43026	0	
0.7607	-1.64171	3.14658	0	
0.7613	-0.733793	5.27768	0	
0.7620	-2.56206	3.7616	0	
0.7627	-2.86055	-1.12991	0	
0.7633	2.32575	2.23121	0	
0.7640	4.45251	8.02378	0	
0.7647	0.186558	4.67697	0	
0.7653	-1.03229	-0.514895	0	
0.7660	2.62424	1.31584	0	
0.7667	5.68379	4.36231	0	
0.7673	3.23367	4.06195	0	
0.7680	-1.64171	4.36231	0	
0.7687	-1.95264	4.97732	0	
0.7693	0.795979	4.67697	0	
0.7700	0.48505	3.14658	0	
0.7707	-1.95264	2.23121	0	
0.7713	-2.25113	2.53157	0	
0.7720	-1.64171	2.23121	0	
0.7727	-1.95264	-0.514895	0	
0.7733	-1.64171	-1.43026	0	
0.7740	-1.34321	-1.12991	0	
0.7747	-1.64171	-2.34563	0	
0.7753	0.186558	-0.815251	0	
0.7760	1.10691	2.23121	0	
0.7767	-1.64171	-0.21454	0	
0.7773	-4.09183	-4.79139	0	
0.7780	-3.17148	-3.56136	0	
0.7787	-1.64171	-1.73062	0	
0.7793	-1.34321	-3.56136	0	
0.7800	-1.34321	-2.34563	0	
0.7807	-0.733793	1.6162	0	
0.7813	0.795979	0.400474	0	
0.7820	-0.733793	-2.96065	0	
0.7827	-4.70125	-3.56136	0	
0.7833	-5.92009	-3.56136	0	
0.7840	-4.09183	-4.17637	0	
0.7847	-2.86055	-3.56136	0	
0.7853	-1.95264	-2.34563	0	
0.7860	-0.733793	-0.815251	0	
0.7867	-0.422864	-0.21454	0	
0.7873	-1.95264	-1.43026	0	
0.7880	-3.46997	-2.34563	0	
0.7887	-3.46997	-3.56136	0	
0.7893	-1.34321	-6.00711	0	
0.7900	0.186558	-6.00711	0	
0.7907	-0.422864	-4.79139	0	
0.7913	-0.422864	-5.09174	0	
0.7920	-0.733793	-6.30747	0	
0.7927	-4.09183	-6.62213	0	
0.7933	-5.31067	-6.00711	0	
0.7940	-2.86055	-6.00711	0	
0.7947	-3.17148	-6.92248	0	
0.7953	-4.09183	-7.83785	0	
0.7960	-1.64171	-6.92248	0	
0.7967	-1.03229	-5.70676	0	
0.7973	-3.17148	-5.09174	0	
0.7980	-3.46997	-3.56136	0	
0.7987	-2.86055	-1.43026	0	
0.7993	-1.95264	-1.43026	0	
0.8000	-0.733793	-3.87602	0	
0.8007	-0.733793	-4.17637	0	
0.8013	-1.03229	3.14658	0	
0.8020	-0.733793	10.4695	0	
0.8027	1.10691	8.6388	0	
0.8033	2.93517	4.97732	0	
0.8040	1.10691	3.14658	0	
0.8047	-0.733793	-4.17637	0	
0.8053	-0.733793	-8.75322	0	
0.8060	-0.733793	-3.261	0	
0.8067	-1.64171	1.31584	0	
0.8073	-0.733793	-0.514895	0	
0.8080	1.10691	-2.64599	0	
0.8087	1.4054	-4.79139	0	
0.8093	1.10691	-9.66859	0	
0.8100	0.186558	-10.584	0	
0.8107	1.4054	-7.22284	0	
0.8113	2.93517	-2.64599	0	
0.8120	1.10691	0.400474	0	
0.8127	-0.422864	1.93086	0	
0.8133	0.795979	3.14658	0	
0.8140	1.71633	5.59233	0	
0.8147	3.23367	5.59233	0	
0.8153	5.68379	4.06195	0	
0.8160	5.07437	4.97732	0	
0.8167	4.76344	3.44694	0	
0.8173	6.5917	-0.815251	0	
0.8180	4.76344	-1.43026	0	
0.8187	2.93517	0.100119	0	
0.8193	4.76344	-2.64599	0	
0.8200	6.5917	-4.17637	0	
0.8207	5.68379	-1.73062	0	
0.8213	4.76344	1.01549	0	
0.8220	3.23367	2.84623	0	
0.8227	3.23367	1.93086	0	
0.8233	3.54459	-4.79139	0	
0.8240	2.01482	-10.584	0	
0.8247	2.01482	-11.7997	0	
0.8253	3.84309	-15.1608	0	
0.8260	2.93517	-16.9915	0	
0.8267	1.4054	-11.4993	0	
0.8273	1.10691	-4.79139	0	
0.8280	1.10691	-4.17637	0	
0.8287	2.01482	-8.13821	0	
0.8293	3.54459	-11.199	0	
0.8300	2.01482	-8.75322	0	
0.8307	-1.34321	-1.12991	0	
0.8313	-3.7809	4.97732	0	
0.8320	-3.46997	3.14658	0	
0.8327	-0.124372	-2.34563	0	
0.8333	0.186558	-3.87602	0	
0.8340	-2.56206	-2.64599	0	
0.8347	-2.86055	-3.56136	0	
0.8353	-0.733793	-4.17637	0	
0.8360	-0.422864	-2.64599	0	
0.8367	0.186558	-2.96065	0	
0.8373	0.48505	-6.00711	0	
0.8380	-0.733793	-5.70676	0	
0.8387	-0.124372	-0.514895	0	
0.8393	1.10691	1.31584	0	
0.8400	0.48505	-0.815251	0	
0.8407	1.4054	1.31584	0	
0.8413	1.10691	5.89269	0	
0.8420	-0.733793	4.97732	0	
0.8427	1.10691	1.31584	0	
0.8433	2.93517	0.70083	0	
0.8440	-0.733793	1.31584	0	
0.8447	-1.03229	1.31584	0	
0.8453	2.01482	2.84623	0	
0.8460	0.186558	4.97732	0	
0.8467	-2.56206	6.80806	0	
0.8473	0.48505	6.5077	0	
0.8480	2.32575	1.93086	0	
0.8487	-0.124372	-1.43026	0	
0.8493	-1.64171	-1.43026	0	
0.8500	-0.422864	-2.34563	0	
0.8507	-1.03229	-3.261	0	
0.8513	-3.46997	-1.43026	0	
0.8520	-4.09183	-2.34563	0	
0.8527	-1.95264	-4.17637	0	
0.8533	-0.422864	-2.64599	0	
0.8540	-1.64171	-2.34563	0	
0.8547	-3.46997	-5.09174	0	
0.8553	-3.17148	-5.3921	0	
0.8560	-1.64171	-3.261	0	
0.8567	-1.64171	-3.261	0	
0.8573	-0.733793	-3.87602	0	
0.8580	-0.124372	-1.73062	0	
0.8587	-1.34321	-0.815251	0	
0.8593	-0.733793	-0.514895	0	
0.8600	1.71633	2.23121	0	
0.8607	0.186558	3.14658	0	
0.8613	-3.46997	0.100119	0	
0.8620	-3.17148	-0.815251	0	
0.8627	-1.95264	2.23121	0	
0.8633	-2.56206	3.14658	0	
0.8640	-1.03229	1.93086	0	
0.8647	0.186558	3.14658	0	
0.8653	-0.733793	4.97732	0	
0.8660	-1.95264	4.06195	0	
0.8667	-2.56206	4.67697	0	
0.8673	-2.56206	6.19305	0	
0.8680	-2.56206	5.27768	0	
0.8687	-3.7809	2.53157	0	
0.8693	-4.70125	-0.514895	0	
0.8700	-3.46997	-1.73062	0	
0.8707	-2.56206	-0.815251	0	
0.8713	-3.17148	-1.43026	0	
0.8720	-3.17148	-4.17637	0	
0.8727	-1.95264	-4.17637	0	
0.8733	-1.95264	-2.34563	0	
0.8740	-2.56206	-3.261	0	
0.8747	-1.95264	-3.87602	0	
0.8753	-0.733793	-1.12991	0	
0.8760	0.48505	-1.12991	0	
0.8767	0.186558	-1.43026	0	
0.8773	-0.124372	2.84623	0	
0.8780	0.48505	4.06195	0	
0.8787	1.71633	0.400474	0	
0.8793	1.4054	1.31584	0	
0.8800	-0.124372	4.97732	0	
0.8807	-1.03229	3.7616	0	
0.8813	-1.03229	1.01549	0	
0.8820	-1.64171	0.70083	0	
0.8827	-1.95264	2.23121	0	
0.8833	-2.25113	2.23121	0	
0.8840	-3.46997	0.400474	0	
0.8847	-3.17148	1.31584	0	
0.8853	-0.733793	5.59233	0	
0.8860	-0.422864	4.97732	0	
0.8867	-0.422864	1.01549	0	
0.8873	0.186558	0.70083	0	
0.8880	-1.03229	-1.73062	0	
0.8887	-3.17148	-6.00711	0	
0.8893	-2.56206	-3.261	0	
0.8900	-2.56206	-0.514895	0	
0.8907	-3.7809	-3.261	0	
0.8913	-3.46997	-3.261	0	
0.8920	-1.95264	-1.43026	0	
0.8927	-2.56206	-3.261	0	
0.8933	-2.25113	-3.87602	0	
0.8940	-1.03229	-4.79139	0	
0.8947	-2.25113	-8.45286	0	
0.8953	-3.17148	-8.13821	0	
0.8960	-0.124372	-6.30747	0	
0.8967	0.48505	-7.53749	0	
0.8973	-1.64171	-5.70676	0	
0.8980	-0.733793	-1.73062	0	
0.8987	0.186558	-3.261	0	
0.8993	-3.17148	-4.47673	0	
0.9000	-4.39032	-2.34563	0	
0.9007	-2.56206	-2.34563	0	
0.9013	-4.39032	-3.87602	0	
0.9020	-6.52952	-3.87602	0	
0.9027	-3.46997	-5.09174	0	
0.9033	-1.03229	-6.30747	0	
0.9040	-2.56206	-6.00711	0	
0.9047	-4.09183	-5.70676	0	
0.9053	-2.56206	-6.00711	0	
0.9060	0.186558	-5.3921	0	
0.9067	1.10691	-4.79139	0	
0.9073	-0.124372	-2.34563	0	
0.9080	-1.03229	0.100119	0	
0.9087	0.186558	-2.34563	0	
0.9093	0.186558	-6.62213	0	
0.9100	-2.25113	-6.62213	0	
0.9107	-3.46997	-7.22284	0	
0.9113	-2.86055	-9.36823	0	
0.9120	-2.56206	-5.3921	0	
0.9127	-3.46997	-1.43026	0	
0.9133	-1.95264	-5.70676	0	
0.9140	2.93517	-8.13821	0	
0.9147	5.68379	-1.43026	0	
0.9153	4.76344	4.06195	0	
0.9160	4.45251	2.23121	0	
0.9167	5.68379	-2.04528	0	
0.9173	6.29321	-4.17637	0	
0.9180	5.68379	-3.87602	0	
0.9187	6.29321	-3.261	0	
0.9193	6.5917	-3.87602	0	
0.9200	3.54459	-3.56136	0	
0.9207	-0.422864	-1.73062	0	
0.9213	0.795979	-0.21454	0	
0.9220	2.93517	1.93086	0	
0.9227	1.71633	3.7616	0	
0.9233	0.48505	4.97732	0	
0.9240	-0.124372	7.42307	0	
0.9247	-3.17148	9.85452	0	
0.9253	-4.09183	9.25381	0	
0.9260	-1.95264	7.10841	0	
0.9267	-2.56206	6.80806	0	
0.9273	-3.46997	8.6388	0	
0.9280	-0.733793	10.4695	0	
0.9287	1.10691	9.25381	0	
0.9293	-0.422864	6.19305	0	
0.9300	-1.64171	4.97732	0	
0.9307	-2.56206	4.97732	0	
0.9313	-1.64171	5.89269	0	
0.9320	0.795979	8.33844	0	
0.9327	0.48505	8.6388	0	
0.9333	-1.64171	7.72343	0	
0.9340	-0.733793	8.6388	0	
0.9347	0.795979	9.85452	0	
0.9353	0.795979	8.6388	0	
0.9360	0.186558	5.89269	0	
0.9367	0.186558	1.93086	0	
0.9373	0.186558	-2.34563	0	
0.9380	1.4054	-2.34563	0	
0.9387	2.32575	0.100119	0	
0.9393	1.10691	0.400474	0	
0.9400	-0.422864	1.6162	0	
0.9407	-0.733793	5.89269	0	
0.9413	0.186558	9.55417	0	
0.9420	0.48505	9.55417	0	
0.9427	-1.64171	7.72343	0	
0.9433	-3.46997	8.6388	0	
0.9440	-0.733793	11.0846	0	
0.9447	0.795979	11.0846	0	
0.9453	-0.422864	8.93915	0	
0.9460	-0.422864	6.80806	0	
0.9467	0.795979	4.06195	0	
0.9473	-0.124372	1.31584	0	
0.9480	-1.34321	-2.04528	0	
0.9487	-0.733793	-6.62213	0	
0.9493	0.795979	-5.70676	0	
0.9500	1.71633	-0.21454	0	
0.9507	2.32575	-0.514895	0	
0.9513	3.84309	-5.3921	0	
0.9520	4.45251	-5.09174	0	
0.9527	2.01482	-2.04528	0	
0.9533	0.48505	-0.514895	0	
0.9540	2.62424	4.06195	0	
0.9547	4.15402	9.25381	0	
0.9553	2.32575	8.6388	0	
0.9560	1.4054	6.5077	0	
0.9567	2.93517	7.10841	0	
0.9573	2.62424	5.27768	0	
0.9580	1.10691	1.31584	0	
0.9587	2.01482	2.23121	0	
0.9593	2.01482	2.84623	0	
0.9600	0.795979	-1.43026	0	
0.9607	2.01482	-3.56136	0	
0.9613	3.84309	-5.09174	0	
0.9620	2.93517	-8.75322	0	
0.9627	2.01482	-7.83785	0	
0.9633	2.01482	-4.79139	0	
0.9640	1.10691	-5.09174	0	
0.9647	0.795979	-5.09174	0	
0.9653	0.48505	-5.09174	0	
0.9660	-1.34321	-6.92248	0	
0.9667	-1.03229	-4.47673	0	
0.9673	1.10691	-1.12991	0	
0.9680	2.62424	-3.87602	0	
0.9687	2.32575	-5.09174	0	
0.9693	0.48505	-3.87602	0	
0.9700	1.10691	-4.79139	0	
0.9707	2.93517	-5.09174	0	
0.9713	1.4054	-3.261	0	
0.9720	-2.25113	-3.87602	0	
0.9727	-1.64171	-3.261	0	
0.9733	0.186558	-2.34563	0	
0.9740	1.10691	-5.09174	0	
0.9747	2.62424	-6.00711	0	
0.9753	2.01482	-3.56136	0	
0.9760	-0.124372	-4.47673	0	
0.9767	1.10691	-7.53749	0	
0.9773	3.23367	-6.30747	0	
0.9780	2.93517	-1.43026	0	
0.9787	1.10691	2.23121	0	
0.9793	-0.733793	1.6162	0	
0.9800	-1.03229	0.70083	0	
0.9807	1.71633	3.44694	0	
0.9813	3.54459	5.89269	0	
0.9820	2.62424	6.80806	0	
0.9827	2.32575	7.10841	0	
0.9833	2.93517	4.97732	0	
0.9840	2.01482	3.44694	0	
0.9847	0.48505	4.67697	0	
0.9853	-1.03229	4.67697	0	
0.9860	1.10691	4.67697	0	
0.9867	3.54459	6.5077	0	
0.9873	-1.03229	5.59233	0	
0.9880	-6.82801	3.7616	0	
0.9887	-4.39032	6.19305	0	
0.9893	-1.64171	7.42307	0	
0.9900	-3.46997	4.06195	0	
0.9907	-2.56206	2.23121	0	
0.9913	-1.64171	2.23121	0	
0.9920	-4.09183	0.100119	0	
0.9927	-2.56206	-1.43026	0	
0.9933	0.186558	-1.73062	0	
0.9940	-2.56206	-3.261	0	
0.9947	-3.46997	-4.17637	0	
0.9953	-1.34321	-2.96065	0	
0.9960	-1.64171	-1.73062	0	
0.9967	-1.95264	-0.514895	0	
0.9973	-1.95264	0.70083	0	
0.9980	-2.56206	1.31584	0	
0.9987	-0.733793	1.31584	0	
0.9993	1.10691	0.70083	0	
1.0000	-2.56206	-1.12991	0	
1.0007	-3.46997	-2.04528	0	
1.0013	2.01482	-0.815251	0	
1.0020	4.15402	-1.43026	0	
1.0027	2.01482	-4.17637	0	
1.0033	0.48505	-3.261	0	
1.0040	0.795979	-0.514895	0	
1.0047	2.62424	-0.815251	0	
1.0053	4.15402	-2.04528	0	
1.0060	2.93517	-1.43026	0	
1.0067	2.01482	-2.04528	0	
1.0073	3.23367	-2.34563	0	
1.0080	3.84309	-0.514895	0	
1.0087	2.01482	-0.815251	0	
1.0093	1.4054	-0.815251	0	
1.0100	2.93517	1.6162	0	
1.0107	3.23367	1.31584	0	
1.0113	1.4054	-0.21454	0	
1.0120	2.32575	1.31584	0	
1.0127	5.37286	-1.43026	0	
1.0133	5.07437	-6.92248	0	
1.0140	3.23367	-7.83785	0	
1.0147	2.62424	-6.92248	0	
1.0153	1.10691	-8.13821	0	
1.0160	0.186558	-6.92248	0	
1.0167	0.48505	-4.47673	0	
1.0173	-0.422864	-2.34563	0	
1.0180	-0.124372	0.100119	0	
1.0187	1.10691	0.400474	0	
1.0193	-0.733793	0.400474	0	
1.0200	-1.95264	1.31584	0	
1.0207	0.186558	-2.34563	0	
1.0213	-0.733793	-4.79139	0	
1.0220	-1.64171	-0.21454	0	
1.0227	1.71633	0.400474	0	
1.0233	2.01482	-4.47673	0	
1.0240	-2.25113	-1.43026	0	
1.0247	-2.56206	3.7616	0	
1.0253	-0.733793	1.31584	0	
1.0260	-0.422864	-0.514895	0	
1.0267	-0.124372	1.31584	0	
1.0273	-0.124372	2.23121	0	
1.0280	-1.64171	1.31584	0	
1.0287	-2.56206	-0.514895	0	
1.0293	-1.95264	-2.04528	0	
1.0300	-2.56206	-2.34563	0	
1.0307	-4.70125	-4.17637	0	
1.0313	-5.31067	-6.00711	0	
1.0320	-5.31067	-5.09174	0	
1.0327	-8.05929	-4.79139	0	
1.0333	-7.13894	-7.22284	0	
1.0340	-2.86055	-8.75322	0	
1.0347	-3.17148	-8.75322	0	
1.0353	-6.21859	-7.83785	0	
1.0360	-5.92009	-3.87602	0	
1.0367	-6.21859	0.100119	0	
1.0373	-8.05929	-1.43026	0	
1.0380	-6.21859	-2.34563	0	
1.0387	-4.70125	1.31584	0	
1.0393	-6.21859	0.100119	0	
1.0400	-3.46997	-3.87602	0	
1.0407	0.186558	-0.514895	0	
1.0413	-2.56206	3.14658	0	
1.0420	-5.31067	-1.43026	0	
1.0427	-4.39032	-6.00711	0	
1.0433	-5.31067	-5.09174	0	
1.0440	-6.52952	-3.56136	0	
1.0447	-5.60917	-2.34563	0	
1.0453	-5.60917	0.70083	0	
1.0460	-6.21859	2.53157	0	
1.0467	-3.46997	3.7616	0	
1.0473	0.186558	4.36231	0	
1.0480	0.186558	2.84623	0	
1.0487	-1.64171	1.6162	0	
1.0493	-2.86055	1.93086	0	
1.0500	-2.56206	-0.514895	0	
1.0507	-0.733793	-2.64599	0	
1.0513	-0.733793	-1.43026	0	
1.0520	-2.86055	0.100119	0	
1.0527	-2.25113	-1.43026	0	
1.0533	0.48505	-1.43026	0	
1.0540	0.48505	0.70083	0	
1.0547	-0.422864	0.70083	0	
1.0553	0.795979	-1.43026	0	
1.0560	1.10691	-1.12991	0	
1.0567	-0.733793	1.31584	0	
1.0573	-1.95264	2.23121	0	
1.0580	-1.64171	2.23121	0	
1.0587	-0.124372	3.7616	0	
1.0593	1.4054	4.06195	0	
1.0600	0.795979	2.23121	0	
1.0607	0.186558	2.23121	0	
1.0613	2.01482	2.53157	0	
1.0620	2.01482	1.6162	0	
1.0627	-0.124372	0.400474	0	
1.0633	-0.422864	1.31584	0	
1.0640	1.4054	2.84623	0	
1.0647	1.10691	1.01549	0	
1.0653	0.186558	-2.04528	0	
1.0660	1.71633	-1.43026	0	
1.0667	2.62424	-0.514895	0	
1.0673	0.795979	-2.04528	0	
1.0680	-0.422864	-2.64599	0	
1.0687	1.10691	-1.12991	0	
1.0693	2.93517	-1.43026	0	
1.0700	2.62424	-3.261	0	
1.0707	0.186558	-3.87602	0	
1.0713	-2.56206	-2.96065	0	
1.0720	-0.733793	-4.17637	0	
1.0727	3.84309	-7.83785	0	
1.0733	4.76344	-10.584	0	
1.0740	0.186558	-8.45286	0	
1.0747	-0.733793	-3.56136	0	
1.0753	1.71633	-1.43026	0	
1.0760	1.10691	-1.12991	0	
1.0767	2.01482	0.70083	0	
1.0773	5.37286	4.97732	0	
1.0780	4.76344	7.10841	0	
1.0787	1.4054	4.97732	0	
1.0793	0.186558	2.53157	0	
1.0800	-0.124372	4.06195	0	
1.0807	-0.422864	4.36231	0	
1.0813	1.4054	0.70083	0	
1.0820	2.01482	-0.514895	0	
1.0827	1.10691	2.23121	0	
1.0833	3.54459	2.53157	0	
1.0840	5.98228	-1.12991	0	
1.0847	4.76344	-1.73062	0	
1.0853	1.71633	0.400474	0	
1.0860	0.186558	2.23121	0	
1.0867	0.48505	2.53157	0	
1.0873	1.4054	1.01549	0	
1.0880	0.186558	-3.56136	0	
1.0887	-1.03229	-6.00711	0	
1.0893	-1.03229	-4.17637	0	
1.0900	-2.86055	-4.79139	0	
1.0907	-5.92009	-7.53749	0	
1.0913	-6.21859	-6.00711	0	
1.0920	-5.31067	-1.12991	0	
1.0927	-4.99974	1.01549	0	
1.0933	-4.39032	0.100119	0	
1.0940	-4.39032	1.01549	0	
1.0947	-4.39032	3.44694	0	
1.0953	-2.56206	4.36231	0	
1.0960	-1.64171	4.97732	0	
1.0967	-3.17148	6.80806	0	
1.0973	-3.7809	6.80806	0	
1.0980	-3.7809	5.59233	0	
1.0987	-4.39032	5.89269	0	
1.0993	-2.86055	6.80806	0	
1.1000	-1.95264	8.33844	0	
1.1007	-3.46997	10.7699	0	
1.1013	-2.56206	11.3849	0	
1.1020	-0.124372	11.3849	0	
1.1027	-0.733793	13.8307	0	
1.1033	-1.34321	10.7699	0	
1.1040	0.795979	1.6162	0	
1.1047	2.01482	-0.514895	0	
1.1053	2.93517	2.84623	0	
1.1060	4.76344	1.93086	0	
1.1067	2.93517	1.31584	0	
1.1073	-1.03229	2.23121	0	
1.1080	-0.422864	-1.43026	0	
1.1087	3.23367	-5.3921	0	
1.1093	3.54459	-3.56136	0	
1.1100	1.10691	-3.261	0	
1.1107	0.795979	-5.09174	0	
1.1113	2.01482	-5.09174	0	
1.1120	2.32575	-5.09174	0	
1.1127	1.4054	-5.09174	0	
1.1133	1.4054	-3.261	0	
1.1140	1.10691	-3.261	0	
1.1147	0.186558	-4.17637	0	
1.1153	1.10691	-0.815251	0	
1.1160	3.54459	2.23121	0	
1.1167	4.76344	-1.73062	0	
1.1173	3.54459	-6.62213	0	
1.1180	3.23367	-6.00711	0	
1.1187	4.15402	-4.17637	0	
1.1193	2.93517	-5.09174	0	
1.1200	1.4054	-5.09174	0	
1.1207	4.76344	-3.261	0	
1.1213	6.5917	-4.79139	0	
1.1220	3.23367	-6.00711	0	
1.1227	0.48505	-4.17637	0	
1.1233	1.10691	-0.21454	0	
1.1240	1.10691	4.36231	0	
1.1247	1.10691	8.6388	0	
1.1253	1.71633	8.02378	0	
1.1260	-1.03229	4.97732	0	
1.1267	-2.56206	4.97732	0	
1.1273	-1.64171	5.89269	0	
1.1280	-2.86055	5.59233	0	
1.1287	-3.46997	7.42307	0	
1.1293	-1.95264	8.33844	0	
1.1300	-5.31067	4.97732	0	
1.1307	-10.497	2.23121	0	
1.1313	-8.05929	0.400474	0	
1.1320	-2.56206	-3.261	0	
1.1327	-3.17148	-1.73062	0	
1.1333	-5.31067	5.27768	0	
1.1340	-3.17148	6.80806	0	
1.1347	-2.25113	3.14658	0	
1.1353	-5.31067	0.400474	0	
1.1360	-4.99974	-0.815251	0	
1.1367	-0.422864	-2.34563	0	
1.1373	0.48505	-1.12991	0	
1.1380	-0.422864	-0.21454	0	
1.1387	2.01482	-0.21454	0	
1.1393	3.84309	2.84623	0	
1.1400	3.23367	6.19305	0	
1.1407	3.23367	4.97732	0	
1.1413	3.23367	1.01549	0	
1.1420	3.23367	-0.514895	0	
1.1427	3.84309	0.400474	0	
1.1433	2.93517	1.93086	0	
1.1440	2.01482	2.23121	0	
1.1447	2.62424	1.31584	0	
1.1453	4.15402	1.31584	0	
1.1460	5.07437	2.84623	0	
1.1467	3.54459	2.23121	0	
1.1473	0.48505	-0.514895	0	
1.1480	-1.34321	-0.815251	0	
1.1487	-2.56206	-1.12991	0	
1.1493	-2.86055	-2.34563	0	
1.1500	-1.64171	-1.12991	0	
1.1507	-1.95264	1.01549	0	
1.1513	-3.17148	-1.73062	0	
1.1520	-2.25113	-3.56136	0	
1.1527	-2.25113	-2.34563	0	
1.1533	-5.31067	-2.04528	0	
1.1540	-5.92009	-3.261	0	
1.1547	-3.7809	-2.34563	0	
1.1553	-2.86055	-1.43026	0	
1.1560	-3.46997	-1.43026	0	
1.1567	-4.99974	-2.04528	0	
1.1573	-4.39032	-3.261	0	
1.1580	-3.46997	-3.56136	0	
1.1587	-4.39032	-1.43026	0	
1.1593	-4.99974	0.400474	0	
1.1600	-2.25113	1.31584	0	
1.1607	-2.25113	1.93086	0	
1.1613	-4.39032	1.31584	0	
1.1620	-3.46997	1.6162	0	
1.1627	-0.733793	1.31584	0	
1.1633	0.48505	-2.34563	0	
1.1640	1.71633	-5.70676	0	
1.1647	1.10691	-3.87602	0	
1.1653	-1.34321	-0.514895	0	
1.1660	-1.64171	0.70083	0	
1.1667	-0.733793	1.31584	0	
1.1673	-1.64171	2.84623	0	
1.1680	-2.25113	1.31584	0	
1.1687	-0.733793	-0.514895	0	
1.1693	-0.733793	-0.514895	0	
1.1700	-3.17148	-1.43026	0	
1.1707	-4.70125	-4.17637	0	
1.1713	-4.99974	-3.56136	0	
1.1720	-3.17148	-1.73062	0	
1.1727	-1.95264	-4.17637	0	
1.1733	-4.09183	-7.53749	0	
1.1740	-5.92009	-6.00711	0	
1.1747	-5.92009	-3.261	0	
1.1753	-6.82801	-5.3921	0	
1.1760	-5.31067	-6.62213	0	
1.1767	-1.64171	-2.64599	0	
1.1773	-2.56206	-0.514895	0	
1.1780	-5.92009	-1.43026	0	
1.1787	-7.13894	-0.815251	0	
1.1793	-8.9672	0.100119	0	
1.1800	-8.05929	-1.12991	0	
1.1807	-3.17148	-0.514895	0	
1.1813	-1.95264	1.6162	0	
1.1820	-4.39032	2.84623	0	
1.1827	-3.46997	4.36231	0	
1.1833	-2.25113	5.27768	0	
1.1840	-3.46997	3.14658	0	
1.1847	-2.56206	1.01549	0	
1.1853	-1.03229	-1.73062	0	
1.1860	-2.56206	-4.17637	0	
1.1867	-3.17148	-3.87602	0	
1.1873	-2.56206	-4.17637	0	
1.1880	-2.86055	-6.30747	0	
1.1887	-2.25113	-5.09174	0	
1.1893	-0.733793	-2.64599	0	
1.1900	-1.03229	-3.56136	0	
1.1907	-0.733793	-3.261	0	
1.1913	0.795979	-2.04528	0	
1.1920	1.10691	-3.261	0	
1.1927	0.48505	-3.261	0	
1.1933	2.01482	-0.815251	0	
1.1940	3.84309	0.100119	0	
1.1947	1.4054	0.100119	0	
1.1953	-1.03229	0.400474	0	
1.1960	1.71633	-1.43026	0	
1.1967	4.15402	-2.04528	0	
1.1973	0.48505	-1.73062	0	
1.1980	-1.95264	-2.34563	0	
1.1987	2.32575	0.70083	0	
1.1993	5.07437	4.06195	0	
1.2000	1.10691	1.93086	0	
1.2007	-1.64171	0.400474	0	
1.2013	2.01482	2.53157	0	
1.2020	4.76344	2.53157	0	
1.2027	3.84309	1.93086	0	
1.2033	2.01482	4.67697	0	
1.2040	1.71633	4.97732	0	
1.2047	1.10691	1.93086	0	
1.2053	0.795979	0.100119	0	
1.2060	0.795979	-1.12991	0	
1.2067	0.795979	-0.815251	0	
1.2073	0.186558	1.31584	0	
1.2080	-0.733793	2.23121	0	
1.2087	-0.124372	1.01549	0	
1.2093	1.10691	1.31584	0	
1.2100	0.795979	0.400474	0	
1.2107	-0.422864	-2.96065	0	
1.2113	-2.56206	-2.04528	0	
1.2120	-3.7809	0.400474	0	
1.2127	-0.422864	-0.514895	0	
1.2133	1.4054	-1.73062	0	
1.2140	-2.56206	-1.43026	0	
1.2147	-3.7809	-2.34563	0	
1.2153	-1.64171	-2.34563	0	
1.2160	-0.124372	0.400474	0	
1.2167	0.186558	1.01549	0	
1.2173	0.186558	-0.21454	0	
1.2180	0.186558	0.100119	0	
1.2187	2.01482	0.400474	0	
1.2193	3.54459	-1.12991	0	
1.2200	2.93517	-1.43026	0	
1.2207	3.84309	-1.12991	0	
1.2213	4.45251	-0.21454	0	
1.2220	2.93517	2.23121	0	
1.2227	3.84309	3.44694	0	
1.2233	4.76344	2.84623	0	
1.2240	2.93517	4.97732	0	
1.2247	2.93517	10.4695	0	
1.2253	5.07437	12.6006	0	
1.2260	4.76344	11.3849	0	
1.2267	3.23367	10.4695	0	
1.2273	2.93517	11.6853	0	
1.2280	3.54459	14.131	0	
1.2287	3.84309	12.9153	0	
1.2293	3.84309	7.42307	0	
1.2300	3.23367	2.53157	0	
1.2307	2.32575	1.93086	0	
1.2313	2.01482	0.70083	0	
1.2320	2.01482	-4.47673	0	
1.2327	0.795979	-9.05357	0	
1.2333	-1.64171	-7.53749	0	
1.2340	-2.56206	-6.00711	0	
1.2347	-1.64171	-9.96894	0	
1.2353	-0.733793	-12.4147	0	
1.2360	-1.34321	-10.2836	0	
1.2367	-2.56206	-9.66859	0	
1.2373	-2.25113	-10.2836	0	
1.2380	-1.34321	-6.00711	0	
1.2387	-1.64171	-1.12991	0	
1.2393	-0.733793	-0.21454	0	
1.2400	1.10691	-1.43026	0	
1.2407	0.795979	-1.12991	0	
1.2413	-0.124372	0.400474	0	
1.2420	0.48505	-0.514895	0	
1.2427	1.4054	-2.34563	0	
1.2433	1.10691	-2.34563	0	
1.2440	0.795979	-1.12991	0	
1.2447	0.795979	-1.12991	0	
1.2453	-1.03229	-0.21454	0	
1.2460	-2.86055	-0.21454	0	
1.2467	-2.25113	-1.73062	0	
1.2473	-1.64171	-1.73062	0	
1.2480	-3.46997	-1.43026	0	
1.2487	-2.56206	-3.261	0	
1.2493	-0.124372	-2.64599	0	
1.2500	-0.422864	-1.73062	0	
1.2507	-0.733793	-5.3921	0	
1.2513	0.186558	-6.92248	0	
1.2520	-3.46997	-3.56136	0	
1.2527	-6.52952	-2.96065	0	
1.2533	-3.46997	-3.56136	0	
1.2540	-1.03229	-2.34563	0	
1.2547	-2.56206	-3.261	0	
1.2553	-1.64171	-3.261	0	
1.2560	0.186558	-0.514895	0	
1.2567	-0.733793	-0.815251	0	
1.2573	-1.34321	-3.261	0	
1.2580	1.10691	-0.815251	0	
1.2587	3.84309	1.31584	0	
1.2593	1.4054	0.400474	0	
1.2600	-4.39032	1.31584	0	
1.2607	-5.60917	3.44694	0	
1.2613	-1.64171	3.14658	0	
1.2620	-1.34321	1.6162	0	
1.2627	-2.56206	0.400474	0	
1.2633	-0.124372	0.400474	0	
1.2640	2.93517	1.6162	0	
1.2647	2.01482	1.31584	0	
1.2653	0.186558	1.01549	0	
1.2660	-0.733793	2.84623	0	
1.2667	-1.64171	3.7616	0	
1.2673	-2.56206	3.44694	0	
1.2680	-1.95264	4.97732	0	
1.2687	-0.124372	4.67697	0	
1.2693	0.186558	1.6162	0	
1.2700	-0.733793	-0.21454	0	
1.2707	0.186558	-0.514895	0	
1.2713	2.32575	-0.21454	0	
1.2720	1.71633	1.93086	0	
1.2727	0.48505	2.84623	0	
1.2733	0.48505	0.70083	0	
1.2740	0.48505	-2.64599	0	
1.2747	-0.124372	-2.64599	0	
1.2753	-0.733793	1.01549	0	
1.2760	-0.124372	1.6162	0	
1.2767	-0.124372	-1.73062	0	
1.2773	-1.95264	-2.34563	0	
1.2780	-2.56206	-0.514895	0	
1.2787	0.186558	-1.43026	0	
1.2793	2.32575	-1.73062	0	
1.2800	1.71633	0.70083	0	
1.2807	0.48505	0.400474	0	
1.2813	-0.733793	-0.21454	0	
1.2820	-0.124372	3.44694	0	
1.2827	1.4054	7.72343	0	
1.2833	0.795979	5.89269	0	
1.2840	-0.733793	-1.12991	0	
1.2847	0.186558	-5.09174	0	
1.2853	1.10691	-1.12991	0	
1.2860	-0.733793	5.27768	0	
1.2867	-1.34321	7.10841	0	
1.2873	-1.34321	6.19305	0	
1.2880	-0.422864	5.89269	0	
1.2887	1.4054	4.06195	0	
1.2893	0.795979	0.400474	0	
1.2900	-1.03229	-1.73062	0	
1.2907	0.186558	-0.514895	0	
1.2913	1.10691	0.400474	0	
1.2920	-0.733793	-0.815251	0	
1.2927	-0.733793	-2.04528	0	
1.2933	0.48505	-2.04528	0	
1.2940	0.186558	-2.04528	0	
1.2947	0.48505	-1.43026	0	
1.2953	1.10691	0.400474	0	
1.2960	0.795979	0.400474	0	
1.2967	1.71633	0.100119	0	
1.2973	3.54459	3.14658	0	
1.2980	4.76344	5.59233	0	
1.2987	5.07437	2.23121	0	
1.2993	4.76344	0.400474	0	
1.3000	4.76344	3.44694	0	
1.3007	5.37286	4.06195	0	
1.3013	5.68379	1.31584	0	
1.3020	5.68379	-0.514895	0	
1.3027	5.68379	-1.43026	0	
1.3033	4.45251	-1.43026	0	
1.3040	3.84309	-0.815251	0	
1.3047	5.68379	-2.34563	0	
1.3053	5.37286	-5.09174	0	
1.3060	3.23367	-3.87602	0	
1.3067	3.23367	-1.12991	0	
1.3073	2.93517	-0.815251	0	
1.3080	1.10691	-3.261	0	
1.3087	1.4054	-4.47673	0	
1.3093	1.4054	-3.56136	0	
1.3100	-0.733793	-1.43026	0	
1.3107	-2.25113	-1.43026	0	
1.3113	-3.17148	-3.56136	0	
1.3120	-4.39032	-5.09174	0	
1.3127	-3.46997	-4.47673	0	
1.3133	-1.95264	-4.79139	0	
1.3140	-2.86055	-6.62213	0	
1.3147	-4.70125	-7.22284	0	
1.3153	-4.70125	-5.09174	0	
1.3160	-4.99974	-4.17637	0	
1.3167	-4.99974	-6.00711	0	
1.3173	-4.39032	-5.09174	0	
1.3180	-4.39032	-0.514895	0	
1.3187	-5.31067	2.23121	0	
1.3193	-4.09183	2.23121	0	
1.3200	-1.34321	1.31584	0	
1.3207	-0.733793	-1.12991	0	
1.3213	-1.64171	-2.64599	0	
1.3220	-1.64171	-1.43026	0	
1.3227	-0.733793	-1.12991	0	
1.3233	-1.34321	-1.43026	0	
1.3240	-1.64171	-0.514895	0	
1.3247	-1.64171	-0.21454	0	
1.3253	-2.86055	-1.43026	0	
1.3260	-3.7809	-3.261	0	
1.3267	-3.46997	-2.96065	0	
1.3273	-3.46997	0.400474	0	
1.3280	-2.56206	1.93086	0	
1.3287	-2.25113	-0.21454	0	
1.3293	-4.39032	0.400474	0	
1.3300	-4.09183	2.84623	0	
1.3307	-0.733793	-1.12991	0	
1.3313	-1.34321	-3.56136	0	
1.3320	-5.31067	0.400474	0	
1.3327	-6.21859	2.23121	0	
1.3333	-6.52952	0.400474	0	
1.3340	-6.82801	2.23121	0	
1.3347	-4.09183	3.14658	0	
1.3353	-1.64171	1.6162	0	
1.3360	-0.733793	3.14658	0	
1.3367	0.48505	3.14658	0	
1.3373	0.48505	-1.12991	0	
1.3380	-0.733793	-0.514895	0	
1.3387	1.10691	3.44694	0	
1.3393	2.01482	2.23121	0	
1.3400	0.48505	-1.73062	0	
1.3407	2.93517	-1.43026	0	
1.3413	4.15402	-0.21454	0	
1.3420	0.795979	-0.514895	0	
1.3427	0.48505	-0.815251	0	
1.3433	3.84309	-2.04528	0	
1.3440	2.32575	-5.09174	0	
1.3447	2.01482	-7.22284	0	
1.3453	6.29321	-7.22284	0	
1.3460	6.5917	-6.30747	0	
1.3467	2.01482	-6.00711	0	
1.3473	0.186558	-6.00711	0	
1.3480	1.10691	-7.83785	0	
1.3487	1.10691	-9.05357	0	
1.3493	1.10691	-7.83785	0	
1.3500	1.10691	-6.30747	0	
1.3507	1.71633	-6.30747	0	
1.3513	1.10691	-6.00711	0	
1.3520	0.186558	-6.30747	0	
1.3527	0.48505	-7.53749	0	
1.3533	0.186558	-6.92248	0	
1.3540	-1.64171	-4.17637	0	
1.3547	0.186558	-2.34563	0	
1.3553	2.62424	-2.34563	0	
1.3560	1.10691	-3.87602	0	
1.3567	-0.733793	-3.87602	0	
1.3573	-1.03229	0.400474	0	
1.3580	-1.03229	4.67697	0	
1.3587	0.186558	4.97732	0	
1.3593	1.71633	4.97732	0	
1.3600	-0.124372	5.89269	0	
1.3607	-1.64171	5.27768	0	
1.3613	1.10691	5.89269	0	
1.3620	4.76344	7.72343	0	
1.3627	6.5917	8.93915	0	
1.3633	4.76344	10.4695	0	
1.3640	1.10691	11.3849	0	
1.3647	0.795979	11.3849	0	
1.3653	2.93517	10.7699	0	
1.3660	2.93517	8.02378	0	
1.3667	2.01482	5.59233	0	
1.3673	1.71633	6.80806	0	
1.3680	1.10691	8.02378	0	
1.3687	0.186558	6.80806	0	
1.3693	0.186558	7.72343	0	
1.3700	0.186558	9.25381	0	
1.3707	-0.422864	7.10841	0	
1.3713	-0.124372	3.14658	0	
1.3720	0.48505	1.93086	0	
1.3727	0.186558	2.23121	0	
1.3733	0.48505	1.31584	0	
1.3740	2.01482	-1.12991	0	
1.3747	2.01482	-1.43026	0	
1.3753	0.186558	0.100119	0	
1.3760	-0.733793	2.53157	0	
1.3767	-0.124372	4.97732	0	
1.3773	0.186558	6.5077	0	
1.3780	0.186558	7.10841	0	
1.3787	0.186558	7.10841	0	
1.3793	-1.64171	6.19305	0	
1.3800	-3.7809	6.5077	0	
1.3807	-2.56206	7.72343	0	
1.3813	0.795979	4.67697	0	
1.3820	2.01482	-0.514895	0	
1.3827	0.795979	-0.514895	0	
1.3833	0.186558	1.31584	0	
1.3840	1.10691	0.400474	0	
1.3847	1.10691	0.100119	0	
1.3853	-0.422864	0.100119	0	
1.3860	-1.64171	-1.73062	0	
1.3867	-0.733793	-2.34563	0	
1.3873	0.48505	-1.43026	0	
1.3880	-1.34321	-0.815251	0	
1.3887	-4.39032	-0.21454	0	
1.3893	-4.39032	-1.43026	0	
1.3900	-2.56206	-5.09174	0	
1.3907	-1.64171	-7.22284	0	
1.3913	-2.86055	-5.70676	0	
1.3920	-4.09183	-3.87602	0	
1.3927	-5.31067	-2.34563	0	
1.3933	-5.92009	-1.73062	0	
1.3940	-4.39032	-4.17637	0	
1.3947	-4.39032	-6.92248	0	
1.3953	-5.31067	-7.53749	0	
1.3960	-5.31067	-9.05357	0	
1.3967	-4.39032	-11.4993	0	
1.3973	-1.64171	-10.8843	0	
1.3980	1.4054	-9.66859	0	
1.3987	1.10691	-8.13821	0	
1.3993	-1.03229	-5.70676	0	
1.4000	-1.03229	-5.09174	0	
1.4007	-1.95264	-3.56136	0	
1.4013	-2.86055	2.53157	0	
1.4020	1.10691	3.7616	0	
1.4027	4.15402	-0.514895	0	
1.4033	2.01482	3.14658	0	
1.4040	0.186558	8.93915	0	
1.4047	0.186558	5.89269	0	
1.4053	-1.64171	2.84623	0	
1.4060	-2.25113	4.36231	0	
1.4067	-1.64171	2.23121	0	
1.4073	-2.56206	0.100119	0	
1.4080	-2.86055	1.93086	0	
1.4087	-1.34321	-0.514895	0	
1.4093	-0.733793	-8.45286	0	
1.4100	-0.422864	-12.4147	0	
1.4107	0.186558	-9.36823	0	
1.4113	-1.03229	-6.00711	0	
1.4120	-1.95264	-9.05357	0	
1.4127	-0.124372	-11.4993	0	
1.4133	0.795979	-8.75322	0	
1.4140	0.795979	-7.83785	0	
1.4147	1.4054	-8.75322	0	
1.4153	2.01482	-5.3921	0	
1.4160	2.01482	-5.09174	0	
1.4167	2.01482	-11.199	0	
1.4173	0.48505	-9.96894	0	
1.4180	-0.124372	-2.34563	0	
1.4187	2.01482	-2.34563	0	
1.4193	2.93517	-4.79139	0	
1.4200	1.4054	-2.04528	0	
1.4207	1.10691	-0.21454	0	
1.4213	0.795979	-0.815251	0	
1.4220	0.186558	-1.73062	0	
1.4227	2.01482	-4.17637	0	
1.4233	1.10691	-6.62213	0	
1.4240	-2.25113	-5.3921	0	
1.4247	-0.733793	-4.17637	0	
1.4253	2.93517	-2.64599	0	
1.4260	0.795979	0.100119	0	
1.4267	-3.17148	-0.21454	0	
1.4273	-3.17148	-2.96065	0	
1.4280	-0.124372	-3.56136	0	
1.4287	1.10691	-4.79139	0	
1.4293	0.186558	-8.75322	0	
1.4300	0.795979	-8.75322	0	
1.4307	1.4054	-4.17637	0	
1.4313	-0.733793	-3.261	0	
1.4320	-2.25113	-6.30747	0	
1.4327	-0.733793	-6.92248	0	
1.4333	-0.124372	-3.261	0	
1.4340	0.48505	-0.815251	0	
1.4347	0.48505	-2.96065	0	
1.4353	-1.64171	-6.00711	0	
1.4360	-3.46997	-6.30747	0	
1.4367	-2.56206	-6.30747	0	
1.4373	-2.56206	-4.47673	0	
1.4380	-3.46997	-0.21454	0	
1.4387	-2.86055	2.53157	0	
1.4393	-1.64171	3.14658	0	
1.4400	-1.64171	3.44694	0	
1.4407	-0.422864	-0.514895	0	
1.4413	1.10691	-3.87602	0	
1.4420	1.10691	-0.21454	0	
1.4427	-0.733793	4.06195	0	
1.4433	-2.56206	4.06195	0	
1.4440	-3.46997	6.5077	0	
1.4447	-3.7809	10.7699	0	
1.4453	-2.86055	11.3849	0	
1.4460	-1.64171	10.4695	0	
1.4467	-2.25113	10.1692	0	
1.4473	-3.17148	8.93915	0	
1.4480	-1.64171	7.10841	0	
1.4487	-1.95264	6.19305	0	
1.4493	-4.39032	7.42307	0	
1.4500	-4.39032	8.6388	0	
1.4507	-1.34321	6.19305	0	
1.4513	-0.733793	4.06195	0	
1.4520	-2.56206	4.06195	0	
1.4527	-2.56206	1.01549	0	
1.4533	-1.64171	-2.04528	0	
1.4540	-2.86055	1.31584	0	
1.4547	-2.56206	3.7616	0	
1.4553	-2.25113	2.23121	0	
1.4560	-3.7809	4.97732	0	
1.4567	-4.39032	8.93915	0	
1.4573	-1.34321	7.72343	0	
1.4580	-0.124372	8.6388	0	
1.4587	-1.03229	13.516	0	
1.4593	-1.03229	15.0464	0	
1.4600	-2.25113	12.6006	0	
1.4607	-2.86055	11.3849	0	
1.4613	0.186558	10.7699	0	
1.4620	1.10691	7.72343	0	
1.4627	-0.733793	4.06195	0	
1.4633	-0.733793	2.23121	0	
1.4640	-1.64171	2.23121	0	
1.4647	-3.7809	2.53157	0	
1.4653	-3.17148	2.84623	0	
1.4660	-2.56206	2.53157	0	
1.4667	-2.86055	3.14658	0	
1.4673	-1.64171	5.59233	0	
1.4680	-1.64171	4.97732	0	
1.4687	-3.7809	1.31584	0	
1.4693	-1.64171	0.400474	0	
1.4700	0.186558	0.400474	0	
1.4707	-2.86055	-1.12991	0	
1.4713	-3.46997	-1.73062	0	
1.4720	-0.422864	-1.43026	0	
1.4727	-0.422864	-1.73062	0	
1.4733	-0.733793	-1.12991	0	
1.4740	1.10691	1.6162	0	
1.4747	1.10691	4.06195	0	
1.4753	-0.124372	3.7616	0	
1.4760	-0.124372	1.6162	0	
1.4767	0.48505	1.31584	0	
1.4773	1.71633	4.97732	0	
1.4780	2.32575	7.42307	0	
1.4787	0.48505	4.06195	0	
1.4793	-1.64171	-0.514895	0	
1.4800	-1.64171	-2.34563	0	
1.4807	1.10691	-1.43026	0	
1.4813	2.01482	-0.21454	0	
1.4820	0.186558	-0.514895	0	
1.4827	1.10691	-2.04528	0	
1.4833	3.84309	-2.34563	0	
1.4840	2.32575	-3.261	0	
1.4847	0.186558	-2.64599	0	
1.4853	2.93517	0.400474	0	
1.4860	4.76344	0.400474	0	
1.4867	2.32575	-2.04528	0	
1.4873	1.10691	-0.514895	0	
1.4880	1.4054	1.31584	0	
1.4887	0.795979	-1.73062	0	
1.4893	-1.95264	-5.09174	0	
1.4900	-4.99974	-5.09174	0	
1.4907	-4.09183	-6.00711	0	
1.4913	-0.733793	-8.45286	0	
1.4920	-0.124372	-10.584	0	
1.4927	-1.64171	-9.66859	0	
1.4933	-0.733793	-6.92248	0	
1.4940	-0.422864	-7.53749	0	
1.4947	-1.34321	-9.96894	0	
1.4953	-0.733793	-9.05357	0	
1.4960	-2.56206	-6.00711	0	
1.4967	-4.70125	-4.47673	0	
1.4973	-4.09183	-4.17637	0	
1.4980	-2.86055	-3.261	0	
1.4987	-2.56206	-1.73062	0	
1.4993	-0.124372	-1.43026	0	
1.5000	1.10691	-1.43026	0	
1.5007	0.186558	-0.514895	0	
1.5013	1.10691	-1.43026	0	
1.5020	1.10691	-2.96065	0	
1.5027	1.10691	-1.43026	0	
1.5033	4.76344	-0.815251	0	
1.5040	4.76344	-4.79139	0	
1.5047	0.48505	-4.47673	0	
1.5053	-0.124372	-0.21454	0	
1.5060	0.795979	-0.815251	0	
1.5067	-0.422864	-4.17637	0	
1.5073	0.795979	-3.56136	0	
1.5080	2.01482	-2.64599	0	
1.5087	-1.64171	-4.47673	0	
1.5093	-4.39032	-4.79139	0	
1.5100	-3.7809	-2.34563	0	
1.5107	-2.56206	-0.514895	0	
1.5113	-3.46997	-2.64599	0	
1.5120	-5.31067	-4.47673	0	
1.5127	-5.92009	-2.96065	0	
1.5133	-3.46997	-2.64599	0	
1.5140	-4.09183	-6.00711	0	
1.5147	-5.31067	-5.3921	0	
1.5153	-2.86055	-1.43026	0	
1.5160	-1.95264	-0.815251	0	
1.5167	-4.09183	-2.34563	0	
1.5173	-2.56206	-1.43026	0	
1.5180	-0.733793	-0.514895	0	
1.5187	-3.46997	0.100119	0	
1.5193	-2.86055	3.14658	0	
1.5200	0.186558	3.7616	0	
1.5207	-0.733793	2.23121	0	
1.5213	-1.34321	4.97732	0	
1.5220	2.01482	7.10841	0	
1.5227	2.32575	4.67697	0	
1.5233	0.48505	3.44694	0	
1.5240	0.186558	4.67697	0	
1.5247	1.4054	3.44694	0	
1.5253	1.4054	2.84623	0	
1.5260	-0.124372	3.7616	0	
1.5267	-1.03229	1.93086	0	
1.5273	0.186558	-0.514895	0	
1.5280	-0.422864	1.01549	0	
1.5287	-2.86055	2.53157	0	
1.5293	-2.25113	1.6162	0	
1.5300	-1.64171	1.01549	0	
1.5307	-2.25113	2.23121	0	
1.5313	1.10691	2.23121	0	
1.5320	2.62424	1.6162	0	
1.5327	-0.733793	3.14658	0	
1.5333	-1.03229	4.06195	0	
1.5340	2.01482	3.14658	0	
1.5347	0.186558	2.23121	0	
1.5353	-2.25113	2.23121	0	
1.5360	-1.64171	0.100119	0	
1.5367	-1.64171	-2.04528	0	
1.5373	-0.733793	-1.43026	0	
1.5380	1.10691	1.31584	0	
1.5387	0.186558	4.36231	0	
1.5393	-2.25113	4.97732	0	
1.5400	-1.34321	2.53157	0	
1.5407	1.10691	2.23121	0	
1.5413	1.10691	4.97732	0	
1.5420	0.186558	4.67697	0	
1.5427	3.23367	3.44694	0	
1.5433	5.68379	4.67697	0	
1.5440	2.01482	4.36231	0	
1.5447	-0.733793	2.23121	0	
1.5453	2.01482	1.31584	0	
1.5460	3.54459	1.6162	0	
1.5467	2.93517	3.14658	0	
1.5473	2.62424	4.67697	0	
1.5480	0.186558	2.53157	0	
1.5487	0.186558	-1.43026	0	
1.5493	2.93517	-3.261	0	
1.5500	1.71633	-5.09174	0	
1.5507	-1.34321	-6.62213	0	
1.5513	-0.422864	-6.30747	0	
1.5520	0.48505	-6.00711	0	
1.5527	0.48505	-5.3921	0	
1.5533	2.93517	-3.87602	0	
1.5540	2.01482	-4.79139	0	
1.5547	-2.56206	-6.30747	0	
1.5553	-1.34321	-5.09174	0	
1.5560	2.32575	-4.79139	0	
1.5567	2.01482	-6.00711	0	
1.5573	1.10691	-5.09174	0	
1.5580	2.62424	-3.56136	0	
1.5587	3.23367	-2.96065	0	
1.5593	4.45251	-2.04528	0	
1.5600	6.5917	-3.87602	0	
1.5607	5.68379	-6.30747	0	
1.5613	3.84309	-3.56136	0	
1.5620	4.15402	0.100119	0	
1.5627	5.07437	0.400474	0	
1.5633	4.45251	1.31584	0	
1.5640	3.84309	3.7616	0	
1.5647	3.84309	4.36231	0	
1.5653	3.54459	5.59233	0	
1.5660	2.32575	6.80806	0	
1.5667	2.01482	4.97732	0	
1.5673	2.01482	3.14658	0	
1.5680	0.186558	3.44694	0	
1.5687	-2.56206	1.31584	0	
1.5693	-2.56206	-2.64599	0	
1.5700	0.186558	-3.261	0	
1.5707	2.01482	-1.12991	0	
1.5713	0.48505	-0.815251	0	
1.5720	-1.03229	-3.87602	0	
1.5727	-0.124372	-4.47673	0	
1.5733	0.186558	-1.73062	0	
1.5740	-0.422864	-2.34563	0	
1.5747	0.186558	-5.09174	0	
1.5753	-1.34321	-2.96065	0	
1.5760	-4.39032	-0.21454	0	
1.5767	-4.09183	-2.64599	0	
1.5773	-0.733793	-2.96065	0	
1.5780	1.10691	1.6162	0	
1.5787	1.4054	2.53157	0	
1.5793	1.10691	1.6162	0	
1.5800	1.10691	4.67697	0	
1.5807	1.71633	5.27768	0	
1.5813	1.71633	2.53157	0	
1.5820	2.01482	4.06195	0	
1.5827	3.84309	7.72343	0	
1.5833	3.84309	7.72343	0	
1.5840	1.10691	7.10841	0	
1.5847	-0.733793	6.80806	0	
1.5853	-0.422864	5.89269	0	
1.5860	1.10691	5.59233	0	
1.5867	0.795979	4.97732	0	
1.5873	-1.64171	3.14658	0	
1.5880	-2.56206	1.93086	0	
1.5887	-1.95264	1.31584	0	
1.5893	-2.56206	0.70083	0	
1.5900	-1.64171	2.23121	0	
1.5907	0.186558	2.84623	0	
1.5913	0.186558	0.400474	0	
1.5920	-1.03229	-1.43026	0	
1.5927	-2.25113	-1.43026	0	
1.5933	-2.25113	-1.43026	0	
1.5940	-0.422864	-1.43026	0	
1.5947	1.10691	0.400474	0	
1.5953	-0.124372	0.400474	0	
1.5960	-1.34321	-3.261	0	
1.5967	-0.422864	-5.09174	0	
1.5973	1.4054	-3.56136	0	
1.5980	2.01482	-2.64599	0	
1.5987	1.10691	-2.34563	0	
1.5993	0.186558	1.01549	0	
1.6000	1.10691	1.6162	0	
1.6007	1.10691	-1.73062	0	
1.6013	0.48505	-2.34563	0	
1.6020	2.01482	-3.56136	0	
1.6027	1.10691	-9.36823	0	
1.6033	-1.64171	-9.96894	0	
1.6040	-0.733793	-6.00711	0	
1.6047	3.23367	-8.45286	0	
1.6053	3.84309	-10.584	0	
1.6060	4.76344	-6.62213	0	
1.6067	7.20112	-3.261	0	
1.6073	5.98228	-3.56136	0	
1.6080	2.62424	-4.17637	0	
1.6087	2.32575	-6.00711	0	
1.6093	3.84309	-7.22284	0	
1.6100	4.76344	-4.17637	0	
1.6107	5.07437	-2.96065	0	
1.6113	4.76344	-3.261	0	
1.6120	2.93517	-0.514895	0	
1.6127	1.10691	2.23121	0	
1.6133	1.10691	1.31584	0	
1.6140	1.10691	1.6162	0	
1.6147	-1.64171	1.93086	0	
1.6153	-3.7809	-0.815251	0	
1.6160	-1.03229	-1.43026	0	
1.6167	1.10691	1.31584	0	
1.6173	-0.733793	2.23121	0	
1.6180	-0.733793	0.400474	0	
1.6187	0.795979	2.23121	0	
1.6193	-1.64171	5.89269	0	
1.6200	-4.39032	8.33844	0	
1.6207	-3.7809	9.55417	0	
1.6213	-1.64171	8.02378	0	
1.6220	-0.422864	6.80806	0	
1.6227	0.186558	7.72343	0	
1.6233	-1.95264	5.89269	0	
1.6240	-3.46997	4.06195	0	
1.6247	-2.56206	7.72343	0	
1.6253	-3.7809	7.10841	0	
1.6260	-5.92009	1.31584	0	
1.6267	-4.39032	2.23121	0	
1.6273	-2.86055	5.59233	0	
1.6280	-4.70125	3.14658	0	
1.6287	-4.39032	2.23121	0	
1.6293	-1.95264	2.23121	0	
1.6300	-1.64171	-0.514895	0	
1.6307	-1.64171	2.23121	0	
1.6313	-3.46997	5.27768	0	
1.6320	-4.39032	0.400474	0	
1.6327	-2.86055	-0.514895	0	
1.6333	-2.56206	3.7616	0	
1.6340	-4.09183	-0.815251	0	
1.6347	-4.39032	-6.00711	0	
1.6353	-3.7809	-5.09174	0	
1.6360	-4.39032	-5.70676	0	
1.6367	-6.21859	-5.09174	0	
1.6373	-7.13894	-1.73062	0	
1.6380	-4.09183	-4.17637	0	
1.6387	-1.03229	-7.83785	0	
1.6393	-0.733793	-6.00711	0	
1.6400	-0.124372	-5.09174	0	
1.6407	0.795979	-6.92248	0	
1.6413	-0.733793	-6.30747	0	
1.6420	-1.64171	-4.47673	0	
1.6427	-1.03229	-5.3921	0	
1.6433	-2.56206	-5.3921	0	
1.6440	-3.7809	-2.34563	0	
1.6447	-3.17148	0.400474	0	
1.6453	-2.25113	0.400474	0	
1.6460	-1.64171	-0.21454	0	
1.6467	1.10691	0.70083	0	
1.6473	3.54459	0.70083	0	
1.6480	2.32575	0.400474	0	
1.6487	0.186558	-0.815251	0	
1.6493	-0.124372	-4.17637	0	
1.6500	-0.124372	-4.79139	0	
1.6507	-0.733793	-0.815251	0	
1.6513	-1.64171	-0.21454	0	
1.6520	-2.56206	-3.87602	0	
1.6527	-3.46997	-5.09174	0	
1.6533	-1.34321	-4.79139	0	
1.6540	0.186558	-6.00711	0	
1.6547	-1.64171	-6.30747	0	
1.6553	-1.64171	-6.00711	0	
1.6560	-0.124372	-6.30747	0	
1.6567	-1.03229	-6.92248	0	
1.6573	-0.422864	-7.22284	0	
1.6580	1.71633	-4.17637	0	
1.6587	0.795979	1.01549	0	
1.6593	-1.34321	1.6162	0	
1.6600	-0.422864	-1.73062	0	
1.6607	1.71633	-2.64599	0	
1.6613	2.32575	-0.514895	0	
1.6620	2.62424	0.400474	0	
1.6627	3.54459	-2.34563	0	
1.6633	3.84309	-4.17637	0	
1.6640	2.93517	-0.514895	0	
1.6647	2.01482	3.14658	0	
1.6653	3.23367	1.6162	0	
1.6660	2.93517	-1.43026	0	
1.6667	0.48505	-3.261	0	
1.6673	-0.733793	-5.09174	0	
1.6680	-0.733793	-5.3921	0	
1.6687	-0.733793	-4.17637	0	
1.6693	-1.34321	-5.70676	0	
1.6700	-1.03229	-8.13821	0	
1.6707	-1.64171	-6.92248	0	
1.6713	-2.86055	-5.70676	0	
1.6720	-2.86055	-6.00711	0	
1.6727	-0.733793	-4.47673	0	
1.6733	-0.733793	-2.34563	0	
1.6740	-1.03229	-2.34563	0	
1.6747	1.10691	-3.87602	0	
1.6753	1.4054	-4.17637	0	
1.6760	-1.64171	-2.34563	0	
1.6767	-1.95264	-2.04528	0	
1.6773	2.01482	-2.64599	0	
1.6780	2.93517	-2.34563	0	
1.6787	2.01482	-1.12991	0	
1.6793	4.15402	1.31584	0	
1.6800	4.45251	3.14658	0	
1.6807	0.48505	3.14658	0	
1.6813	-0.733793	3.14658	0	
1.6820	2.01482	2.23121	0	
1.6827	3.23367	0.400474	0	
1.6833	3.23367	0.100119	0	
1.6840	2.01482	2.53157	0	
1.6847	0.186558	3.14658	0	
1.6853	-0.124372	0.400474	0	
1.6860	-0.733793	1.6162	0	
1.6867	-3.46997	6.5077	0	
1.6873	-3.17148	5.89269	0	
1.6880	0.48505	1.31584	0	
1.6887	0.186558	0.100119	0	
1.6893	-1.95264	0.400474	0	
1.6900	-0.733793	-0.514895	0	
1.6907	-0.733793	2.23121	0	
1.6913	-1.95264	6.19305	0	
1.6920	-4.09183	5.59233	0	
1.6927	-6.82801	2.23121	0	
1.6933	-6.82801	-0.21454	0	
1.6940	-4.39032	-1.43026	0	
1.6947	-4.70125	-1.43026	0	
1.6953	-4.39032	1.31584	0	
1.6960	-1.64171	4.67697	0	
1.6967	-1.64171	6.19305	0	
1.6973	-1.95264	5.59233	0	
1.6980	-0.733793	4.67697	0	
1.6987	-2.56206	6.19305	0	
1.6993	-4.39032	7.72343	0	
1.7000	-2.25113	7.10841	0	
1.7007	-0.124372	6.80806	0	
1.7013	0.186558	8.6388	0	
1.7020	0.795979	8.6388	0	
1.7027	1.10691	7.42307	0	
1.7033	0.795979	6.80806	0	
1.7040	1.4054	6.5077	0	
1.7047	2.62424	6.80806	0	
1.7053	2.62424	8.93915	0	
1.7060	1.4054	9.55417	0	
1.7067	1.10691	7.10841	0	
1.7073	2.01482	5.89269	0	
1.7080	2.01482	6.5077	0	
1.7087	1.10691	4.67697	0	
1.7093	1.71633	0.70083	0	
1.7100	2.01482	-2.64599	0	
1.7107	2.01482	-3.56136	0	
1.7113	2.01482	-1.73062	0	
1.7120	0.186558	-1.43026	0	
1.7127	-1.95264	-3.261	0	
1.7133	-0.733793	-3.87602	0	
1.7140	1.4054	-4.79139	0	
1.7147	2.01482	-6.92248	0	
1.7153	2.01482	-7.22284	0	
1.7160	1.10691	-4.47673	0	
1.7167	1.71633	-2.96065	0	
1.7173	2.62424	-2.96065	0	
1.7180	-0.733793	-4.17637	0	
1.7187	-2.86055	-5.09174	0	
1.7193	0.48505	-4.79139	0	
1.7200	3.84309	-2.34563	0	
1.7207	3.84309	-1.12991	0	
1.7213	4.15402	-1.43026	0	
1.7220	3.84309	-1.43026	0	
1.7227	3.54459	0.70083	0	
1.7233	3.54459	2.23121	0	
1.7240	2.01482	0.100119	0	
1.7247	1.10691	-1.43026	0	
1.7253	1.4054	-1.43026	0	
1.7260	1.10691	-0.21454	0	
1.7267	2.62424	4.06195	0	
1.7273	3.54459	7.72343	0	
1.7280	0.186558	5.89269	0	
1.7287	-0.733793	2.84623	0	
1.7293	1.4054	1.6162	0	
1.7300	-1.95264	-0.21454	0	
1.7307	-7.43743	-2.34563	0	
1.7313	-6.21859	-4.17637	0	
1.7320	-2.56206	-5.3921	0	
1.7327	-1.64171	-6.30747	0	
1.7333	-2.56206	-6.62213	0	
1.7340	-3.7809	-4.17637	0	
1.7347	-3.46997	-0.815251	0	
1.7353	-1.64171	-2.96065	0	
1.7360	-1.95264	-7.83785	0	
1.7367	-0.422864	-8.13821	0	
1.7373	2.01482	-6.30747	0	
1.7380	-0.422864	-3.261	0	
1.7387	-3.7809	2.84623	0	
1.7393	-1.34321	5.27768	0	
1.7400	0.186558	2.53157	0	
1.7407	-4.70125	2.84623	0	
1.7413	-6.82801	4.67697	0	
1.7420	-2.86055	4.97732	0	
1.7427	-1.34321	6.5077	0	
1.7433	-3.46997	7.72343	0	
1.7440	-2.86055	6.19305	0	
1.7447	-1.34321	7.72343	0	
1.7453	-2.25113	9.25381	0	
1.7460	-1.64171	6.80806	0	
1.7467	2.62424	6.19305	0	
1.7473	2.32575	7.72343	0	
1.7480	-1.64171	4.97732	0	
1.7487	-0.733793	0.70083	0	
1.7493	2.01482	-0.514895	0	
1.7500	-1.03229	-0.815251	0	
1.7507	-4.09183	0.100119	0	
1.7513	-1.64171	1.6162	0	
1.7520	-0.124372	2.53157	0	
1.7527	-0.422864	3.14658	0	
1.7533	0.48505	2.84623	0	
1.7540	-0.124372	0.400474	0	
1.7547	-1.34321	-1.12991	0	
1.7553	0.186558	-2.34563	0	
1.7560	0.48505	-4.79139	0	
1.7567	-1.03229	-4.47673	0	
1.7573	-1.34321	-1.12991	0	
1.7580	-1.03229	0.400474	0	
1.7587	-0.733793	0.400474	0	
1.7593	0.186558	1.31584	0	
1.7600	-0.733793	2.84623	0	
1.7607	-0.422864	4.06195	0	
1.7613	0.795979	6.80806	0	
1.7620	-1.64171	10.4695	0	
1.7627	-3.7809	11.0846	0	
1.7633	-1.64171	8.02378	0	
1.7640	-0.733793	7.72343	0	
1.7647	-2.56206	11.0846	0	
1.7653	-3.17148	9.85452	0	
1.7660	-3.17148	5.27768	0	
1.7667	-4.39032	4.97732	0	
1.7673	-4.39032	4.67697	0	
1.7680	-2.56206	1.31584	0	
1.7687	-1.64171	0.400474	0	
1.7693	-5.31067	-0.514895	0	
1.7700	-7.43743	-5.09174	0	
1.7707	-3.17148	-7.22284	0	
1.7713	-1.34321	-5.70676	0	
1.7720	-4.70125	-6.92248	0	
1.7727	-3.7809	-8.13821	0	
1.7733	0.186558	-6.00711	0	
1.7740	-1.34321	-5.70676	0	
1.7747	-2.56206	-7.53749	0	
1.7753	-1.34321	-5.09174	0	
1.7760	-2.56206	-2.64599	0	
1.7767	-3.17148	-4.47673	0	
1.7773	-0.733793	-5.09174	0	
1.7780	1.10691	-3.56136	0	
1.7787	1.71633	-5.70676	0	
1.7793	2.01482	-6.92248	0	
1.7800	0.795979	-4.17637	0	
1.7807	0.186558	-3.261	0	
1.7813	2.62424	-3.56136	0	
1.7820	2.62424	-2.34563	0	
1.7827	-0.124372	-2.34563	0	
1.7833	-0.733793	-3.56136	0	
1.7840	0.48505	-1.73062	0	
1.7847	-1.34321	0.100119	0	
1.7853	-4.09183	1.31584	0	
1.7860	-4.39032	3.14658	0	
1.7867	-4.39032	1.6162	0	
1.7873	-4.39032	-2.04528	0	
1.7880	-3.46997	-2.04528	0	
1.7887	-3.17148	-0.815251	0	
1.7893	-4.39032	-3.261	0	
1.7900	-3.46997	-4.17637	0	
1.7907	-2.56206	-1.43026	0	
1.7913	-2.56206	-1.12991	0	
1.7920	-3.46997	-2.96065	0	
1.7927	-4.09183	-2.34563	0	
1.7933	-4.09183	-1.12991	0	
1.7940	-3.7809	-2.04528	0	
1.7947	-4.09183	-4.17637	0	
1.7953	-2.86055	-5.09174	0	
1.7960	-0.733793	-5.70676	0	
1.7967	1.10691	-6.00711	0	
1.7973	2.01482	-5.09174	0	
1.7980	2.62424	-3.261	0	
1.7987	1.71633	-2.04528	0	
1.7993	2.62424	-2.96065	0	
1.8000	5.07437	-4.17637	0	
1.8007	4.76344	-5.09174	0	
1.8013	2.93517	-5.3921	0	
1.8020	2.93517	-3.56136	0	
1.8027	2.93517	-0.514895	0	
1.8033	3.84309	-1.73062	0	
1.8040	6.29321	-3.87602	0	
1.8047	7.20112	-1.43026	0	
1.8053	5.68379	-0.514895	0	
1.8060	5.98228	-1.43026	0	
1.8067	6.29321	2.84623	0	
1.8073	4.15402	4.06195	0	
1.8080	2.93517	0.100119	0	
1.8087	3.23367	0.400474	0	
1.8093	2.93517	1.01549	0	
1.8100	1.4054	-3.261	0	
1.8107	0.48505	-3.261	0	
1.8113	1.10691	-1.43026	0	
1.8120	2.62424	-2.96065	0	
1.8127	2.93517	-1.43026	0	
1.8133	2.01482	1.31584	0	
1.8140	2.93517	-0.514895	0	
1.8147	3.23367	-1.73062	0	
1.8153	3.54459	-0.514895	0	
1.8160	5.98228	0.400474	0	
1.8167	6.5917	3.44694	0	
1.8173	4.45251	4.97732	0	
1.8180	4.76344	2.23121	0	
1.8187	7.51205	2.53157	0	
1.8193	6.5917	4.97732	0	
1.8200	3.54459	4.36231	0	
1.8207	1.4054	3.14658	0	
1.8213	1.71633	2.53157	0	
1.8220	3.84309	2.53157	0	
1.8227	5.68379	4.67697	0	
1.8233	6.29321	5.27768	0	
1.8240	5.68379	4.06195	0	
1.8247	2.93517	5.89269	0	
1.8253	0.48505	8.93915	0	
1.8260	0.186558	5.89269	0	
1.8267	1.10691	1.01549	0	
1.8273	2.01482	1.31584	0	
1.8280	2.01482	3.7616	0	
1.8287	-1.03229	2.23121	0	
1.8293	-2.86055	-0.514895	0	
1.8300	-1.03229	-0.21454	0	
1.8307	0.186558	1.31584	0	
1.8313	-0.124372	1.31584	0	
1.8320	0.186558	1.31584	0	
1.8327	-0.422864	0.400474	0	
1.8333	0.186558	-0.514895	0	
1.8340	2.62424	0.400474	0	
1.8347	3.23367	2.23121	0	
1.8353	3.23367	1.6162	0	
1.8360	3.54459	0.400474	0	
1.8367	2.32575	0.70083	0	
1.8373	2.62424	-0.514895	0	
1.8380	4.45251	-3.87602	0	
1.8387	3.23367	-2.96065	0	
1.8393	0.48505	1.6162	0	
1.8400	1.10691	2.23121	0	
1.8407	1.71633	0.400474	0	
1.8413	0.795979	2.53157	0	
1.8420	0.186558	4.06195	0	
1.8427	0.186558	1.31584	0	
1.8433	1.10691	1.01549	0	
1.8440	0.186558	1.31584	0	
1.8447	-2.86055	-2.34563	0	
1.8453	-3.46997	-6.00711	0	
1.8460	-0.422864	-6.00711	0	
1.8467	-0.733793	-4.79139	0	
1.8473	-1.64171	-3.87602	0	
1.8480	-0.422864	-4.17637	0	
1.8487	-2.25113	-7.83785	0	
1.8493	-6.52952	-9.36823	0	
1.8500	-7.74836	-5.09174	0	
1.8507	-7.13894	-1.12991	0	
1.8513	-6.52952	-1.73062	0	
1.8520	-5.92009	-1.73062	0	
1.8527	-6.82801	0.70083	0	
1.8533	-7.43743	0.400474	0	
1.8540	-5.31067	-4.17637	0	
1.8547	-3.46997	-9.66859	0	
1.8553	-3.7809	-12.4147	0	
1.8560	-4.70125	-7.83785	0	
1.8567	-4.99974	-0.514895	0	
1.8573	-3.46997	1.31584	0	
1.8580	-1.95264	-2.96065	0	
1.8587	-1.64171	-4.47673	0	
1.8593	-0.124372	-1.43026	0	
1.8600	-0.422864	0.70083	0	
1.8607	-2.56206	0.400474	0	
1.8613	-1.64171	-0.21454	0	
1.8620	-0.422864	-0.21454	0	
1.8627	-1.34321	-0.514895	0	
1.8633	0.795979	-0.21454	0	
1.8640	2.32575	1.31584	0	
1.8647	-1.03229	1.31584	0	
1.8653	-1.03229	0.400474	0	
1.8660	2.93517	0.400474	0	
1.8667	2.32575	1.93086	0	
1.8673	-1.64171	2.23121	0	
1.8680	-2.86055	0.400474	0	
1.8687	-1.64171	-1.43026	0	
1.8693	0.795979	-2.96065	0	
1.8700	2.01482	-3.87602	0	
1.8707	0.186558	-3.56136	0	
1.8713	-1.64171	-0.815251	0	
1.8720	-2.86055	1.6162	0	
1.8727	-2.56206	1.31584	0	
1.8733	-0.733793	0.100119	0	
1.8740	-0.733793	-0.21454	0	
1.8747	-1.95264	-2.34563	0	
1.8753	-2.25113	-2.64599	0	
1.8760	-1.95264	1.31584	0	
1.8767	-1.64171	2.23121	0	
1.8773	-1.64171	0.400474	0	
1.8780	-2.86055	4.06195	0	
1.8787	-2.56206	7.10841	0	
1.8793	-0.124372	4.06195	0	
1.8800	0.186558	1.6162	0	
1.8807	-0.124372	2.23121	0	
1.8813	1.71633	3.14658	0	
1.8820	1.10691	4.36231	0	
1.8827	-1.03229	3.7616	0	
1.8833	0.795979	2.53157	0	
1.8840	2.32575	4.36231	0	
1.8847	0.186558	3.44694	0	
1.8853	-0.733793	-1.12991	0	
1.8860	0.186558	-1.12991	0	
1.8867	-2.86055	0.400474	0	
1.8873	-5.60917	-4.17637	0	
1.8880	-4.39032	-6.62213	0	
1.8887	-3.17148	-2.96065	0	
1.8893	-2.86055	-2.04528	0	
1.8900	-2.56206	-6.00711	0	
1.8907	-3.46997	-6.92248	0	
1.8913	-5.60917	-4.47673	0	
1.8920	-3.46997	-5.3921	0	
1.8927	-1.03229	-7.83785	0	
1.8933	-1.95264	-7.83785	0	
1.8940	-0.422864	-8.13821	0	
1.8947	2.62424	-8.13821	0	
1.8953	-0.124372	-3.87602	0	
1.8960	-4.39032	-1.12991	0	
1.8967	-5.31067	-3.87602	0	
1.8973	-5.60917	-3.261	0	
1.8980	-4.39032	1.01549	0	
1.8987	-1.64171	1.01549	0	
1.8993	-2.86055	-0.514895	0	
1.9000	-4.39032	1.93086	0	
1.9007	-1.64171	4.06195	0	
1.9013	-0.733793	3.14658	0	
1.9020	-2.56206	0.400474	0	
1.9027	-1.64171	-0.815251	0	
1.9033	-0.733793	0.400474	0	
1.9040	-1.95264	1.31584	0	
1.9047	-1.95264	1.6162	0	
1.9053	-1.64171	1.6162	0	
1.9060	-2.56206	0.400474	0	
1.9067	-1.34321	-0.514895	0	
1.9073	-1.64171	-0.514895	0	
1.9080	-4.70125	0.100119	0	
1.9087	-4.39032	0.70083	0	
1.9093	-1.03229	-0.815251	0	
1.9100	-2.56206	-6.00711	0	
1.9107	-4.70125	-6.30747	0	
1.9113	-3.46997	-1.12991	0	
1.9120	-2.56206	0.100119	0	
1.9127	-2.25113	-4.17637	0	
1.9133	-0.422864	-4.79139	0	
1.9140	1.71633	-1.12991	0	
1.9147	1.10691	0.400474	0	
1.9153	-1.03229	-0.815251	0	
1.9160	-1.03229	-2.64599	0	
1.9167	1.4054	-3.261	0	
1.9173	1.4054	-2.34563	0	
1.9180	0.186558	-0.514895	0	
1.9187	1.71633	2.23121	0	
1.9193	2.01482	4.67697	0	
1.9200	-1.34321	3.14658	0	
1.9207	-0.733793	0.400474	0	
1.9213	2.01482	-1.43026	0	
1.9220	1.10691	-2.34563	0	
1.9227	0.48505	-1.43026	0	
1.9233	1.4054	1.31584	0	
1.9240	0.186558	1.93086	0	
1.9247	0.186558	1.31584	0	
1.9253	2.93517	0.400474	0	
1.9260	2.01482	-0.514895	0	
1.9267	-2.25113	-1.43026	0	
1.9273	-1.34321	-1.43026	0	
1.9280	1.10691	-1.73062	0	
1.9287	-0.124372	-1.73062	0	
1.9293	-0.733793	-1.12991	0	
1.9300	1.10691	0.100119	0	
1.9307	0.48505	1.31584	0	
1.9313	-1.64171	1.93086	0	
1.9320	-1.34321	1.93086	0	
1.9327	-1.03229	0.400474	0	
1.9333	-1.03229	-3.261	0	
1.9340	-0.124372	-4.79139	0	
1.9347	0.795979	-1.73062	0	
1.9353	1.71633	-1.43026	0	
1.9360	3.54459	-3.261	0	
1.9367	3.23367	-0.514895	0	
1.9373	0.795979	0.400474	0	
1.9380	-0.733793	-2.64599	0	
1.9387	-0.124372	-2.04528	0	
1.9393	0.795979	-0.514895	0	
1.9400	1.4054	-2.34563	0	
1.9407	0.186558	-3.261	0	
1.9413	-1.03229	-1.43026	0	
1.9420	1.4054	0.100119	0	
1.9427	3.54459	3.14658	0	
1.9433	0.48505	5.89269	0	
1.9440	-1.95264	6.80806	0	
1.9447	-1.64171	6.80806	0	
1.9453	-2.86055	7.42307	0	
1.9460	-3.7809	7.72343	0	
1.9467	-1.03229	8.02378	0	
1.9473	-0.124372	3.14658	0	
1.9480	-1.03229	-3.87602	0	
1.9487	-0.124372	-5.70676	0	
1.9493	-0.422864	-3.261	0	
1.9500	-1.64171	-2.64599	0	
1.9507	0.186558	-2.96065	0	
1.9513	0.48505	1.01549	0	
1.9520	-1.64171	5.89269	0	
1.9527	-1.34321	4.97732	0	
1.9533	0.795979	1.6162	0	
1.9540	1.10691	2.23121	0	
1.9547	0.186558	3.14658	0	
1.9553	-0.733793	1.01549	0	
1.9560	-0.733793	-0.815251	0	
1.9567	0.186558	-1.43026	0	
1.9573	-0.124372	-1.43026	0	
1.9580	0.48505	-2.04528	0	
1.9587	0.186558	-3.56136	0	
1.9593	-2.56206	-2.96065	0	
1.9600	-2.56206	0.100119	0	
1.9607	-0.733793	-0.21454	0	
1.9613	-2.56206	-1.43026	0	
1.9620	-3.7809	0.400474	0	
1.9627	-0.422864	0.400474	0	
1.9633	1.10691	-2.04528	0	
1.9640	-0.124372	-1.12991	0	
1.9647	-0.124372	1.01549	0	
1.9653	0.186558	1.31584	0	
1.9660	0.795979	1.93086	0	
1.9667	1.10691	1.31584	0	
1.9673	-0.733793	-1.12991	0	
1.9680	-1.03229	-3.261	0	
1.9687	2.01482	-4.17637	0	
1.9693	2.32575	-4.79139	0	
1.9700	2.01482	-5.3921	0	
1.9707	3.23367	-5.70676	0	
1.9713	2.93517	-3.56136	0	
1.9720	1.71633	-1.43026	0	
1.9727	2.62424	-2.34563	0	
1.9733	2.01482	-1.73062	0	
1.9740	0.48505	1.93086	0	
1.9747	1.4054	3.14658	0	
1.9753	2.01482	2.23121	0	
1.9760	2.01482	2.53157	0	
1.9767	2.32575	3.44694	0	
1.9773	1.10691	5.59233	0	
1.9780	0.48505	7.10841	0	
1.9787	3.84309	4.67697	0	
1.9793	4.15402	3.44694	0	
1.9800	0.48505	6.80806	0	
1.9807	0.795979	5.89269	0	
1.9813	3.23367	1.31584	0	
1.9820	2.93517	1.31584	0	
1.9827	2.01482	3.44694	0	
1.9833	2.93517	3.14658	0	
1.9840	1.10691	3.14658	0	
1.9847	-1.95264	4.97732	0	
1.9853	-0.733793	6.5077	0	
1.9860	2.93517	8.02378	0	
1.9867	4.45251	6.80806	0	
1.9873	2.93517	3.44694	0	
1.9880	1.10691	2.23121	0	
1.9887	1.71633	0.70083	0	
1.9893	4.76344	-1.12991	0	
1.9900	5.07437	-1.12991	0	
1.9907	2.01482	-0.815251	0	
1.9913	2.01482	-1.43026	0	
1.9920	3.23367	-0.514895	0	
1.9927	1.71633	0.100119	0	
1.9933	1.71633	-2.34563	0	
1.9940	3.54459	-4.47673	0	
1.9947	2.01482	-5.3921	0	
1.9953	0.186558	-7.22284	0	
1.9960	2.01482	-7.83785	0	
1.9967	3.23367	-4.79139	0	
1.9973	3.23367	-3.56136	0	
1.9980	3.84309	-3.261	0	
1.9987	3.54459	-0.514895	0	
1.9993	0.186558	1.31584	0	
2.0000	-3.17148	0.70083	0	
2.0007	-3.17148	2.84623	0	
2.0013	-2.56206	4.67697	0	
2.0020	-4.39032	2.53157	0	
2.0027	-3.46997	3.14658	0	
2.0033	-1.64171	5.59233	0	
2.0040	-2.86055	3.44694	0	
2.0047	-4.39032	2.23121	0	
2.0053	-1.64171	3.14658	0	
2.0060	-1.34321	0.400474	0	
2.0067	-4.09183	-0.514895	0	
2.0073	-5.31067	2.23121	0	
2.0080	-5.92009	-1.43026	0	
2.0087	-6.82801	-6.92248	0	
2.0093	-4.70125	-6.30747	0	
2.0100	-3.46997	-6.92248	0	
2.0107	-2.56206	-8.45286	0	
2.0113	-0.733793	-6.62213	0	
2.0120	-0.422864	-6.92248	0	
2.0127	-2.56206	-8.45286	0	
2.0133	-3.17148	-3.87602	0	
2.0140	-1.03229	1.93086	0	
2.0147	1.10691	0.100119	0	
2.0153	2.93517	-3.261	0	
2.0160	2.93517	-3.261	0	
2.0167	3.84309	-4.17637	0	
2.0173	3.84309	-4.17637	0	
2.0180	0.48505	-0.514895	0	
2.0187	-1.34321	1.31584	0	
2.0193	2.32575	0.100119	0	
2.0200	3.84309	1.93086	0	
2.0207	0.795979	3.14658	0	
2.0213	0.186558	-0.514895	0	
2.0220	2.62424	-2.34563	0	
2.0227	2.62424	-1.43026	0	
2.0233	1.10691	-3.261	0	
2.0240	0.186558	-2.96065	0	
2.0247	0.48505	1.01549	0	
2.0253	-0.733793	0.400474	0	
2.0260	-1.95264	-2.96065	0	
2.0267	-0.733793	-2.34563	0	
2.0273	0.186558	-1.12991	0	
2.0280	-0.733793	-1.12991	0	
2.0287	-0.733793	0.400474	0	
2.0293	-0.733793	-0.514895	0	
2.0300	-3.46997	-3.56136	0	
2.0307	-4.39032	-3.87602	0	
2.0313	-3.46997	-2.04528	0	
2.0320	-4.99974	-0.514895	0	
2.0327	-7.13894	0.100119	0	
2.0333	-5.31067	0.100119	0	
2.0340	-3.46997	0.400474	0	
2.0347	-4.70125	1.01549	0	
2.0353	-3.7809	-0.21454	0	
2.0360	-3.46997	-3.261	0	
2.0367	-6.21859	-2.04528	0	
2.0373	-3.46997	1.93086	0	
2.0380	2.01482	3.7616	0	
2.0387	0.186558	3.7616	0	
2.0393	-2.56206	5.27768	0	
2.0400	0.48505	6.80806	0	
2.0407	2.01482	4.36231	0	
2.0413	1.10691	1.01549	0	
2.0420	2.93517	-0.21454	0	
2.0427	3.84309	-0.514895	0	
2.0433	2.32575	-1.73062	0	
2.0440	2.93517	-1.73062	0	
2.0447	4.15402	-0.514895	0	
2.0453	1.71633	0.400474	0	
2.0460	-1.34321	2.23121	0	
2.0467	0.186558	2.84623	0	
2.0473	2.01482	0.400474	0	
2.0480	-0.422864	-1.73062	0	
2.0487	-0.422864	-1.12991	0	
2.0493	2.32575	0.400474	0	
2.0500	1.71633	2.23121	0	
2.0507	0.795979	2.23121	0	
2.0513	2.62424	-0.514895	0	
2.0520	1.71633	-3.261	0	
2.0527	-1.64171	-2.64599	0	
2.0533	-1.03229	0.70083	0	
2.0540	-0.124372	3.44694	0	
2.0547	-0.422864	3.14658	0	
2.0553	-0.422864	1.31584	0	
2.0560	-2.25113	0.400474	0	
2.0567	-3.17148	0.400474	0	
2.0573	-1.64171	-0.21454	0	
2.0580	-2.56206	0.400474	0	
2.0587	-5.31067	1.6162	0	
2.0593	-3.7809	1.31584	0	
2.0600	-0.733793	2.23121	0	
2.0607	-1.03229	4.97732	0	
2.0613	-1.64171	6.5077	0	
2.0620	-0.422864	7.72343	0	
2.0627	1.4054	9.55417	0	
2.0633	1.10691	9.25381	0	
2.0640	-0.124372	6.5077	0	
2.0647	-0.733793	4.67697	0	
2.0653	-0.733793	3.7616	0	
2.0660	-2.56206	3.14658	0	
2.0667	-4.39032	3.44694	0	
2.0673	-4.39032	0.70083	0	
2.0680	-4.39032	-5.3921	0	
2.0687	-5.60917	-8.13821	0	
2.0693	-5.31067	-6.92248	0	
2.0700	-4.09183	-6.92248	0	
2.0707	-3.7809	-6.00711	0	
2.0713	-3.7809	-2.34563	0	
2.0720	-3.46997	-2.96065	0	
2.0727	-4.99974	-7.53749	0	
2.0733	-6.82801	-7.83785	0	
2.0740	-4.39032	-7.53749	0	
2.0747	-0.733793	-12.1143	0	
2.0753	-2.56206	-15.4755	0	
2.0760	-6.21859	-14.2454	0	
2.0767	-5.31067	-13.9451	0	
2.0773	-4.70125	-12.4147	0	
2.0780	-6.21859	-8.45286	0	
2.0787	-4.99974	-5.3921	0	
2.0793	-3.17148	-6.00711	0	
2.0800	-3.46997	-7.22284	0	
2.0807	-1.03229	-6.92248	0	
2.0813	1.10691	-7.22284	0	
2.0820	-1.64171	-8.75322	0	
2.0827	-3.17148	-8.75322	0	
2.0833	-1.64171	-5.09174	0	
2.0840	-1.95264	-3.261	0	
2.0847	-0.124372	-5.3921	0	
2.0853	3.54459	-6.92248	0	
2.0860	2.01482	-3.56136	0	
2.0867	-1.34321	-0.815251	0	
2.0873	-1.34321	-2.34563	0	
2.0880	-2.86055	-3.56136	0	
2.0887	-4.70125	-2.96065	0	
2.0893	-2.86055	-4.17637	0	
2.0900	-2.56206	-5.09174	0	
2.0907	-4.09183	-3.87602	0	
2.0913	-3.17148	-3.261	0	
2.0920	-1.34321	-3.56136	0	
2.0927	-0.124372	-3.261	0	
2.0933	1.4054	-3.261	0	
2.0940	0.795979	-1.73062	0	
2.0947	-1.34321	0.400474	0	
2.0953	-0.422864	1.01549	0	
2.0960	2.01482	1.93086	0	
2.0967	2.32575	1.31584	0	
2.0973	-0.124372	-1.43026	0	
2.0980	-2.56206	0.70083	0	
2.0987	-0.733793	6.80806	0	
2.0993	2.62424	8.33844	0	
2.1000	3.54459	6.5077	0	
2.1007	2.93517	7.42307	0	
2.1013	1.71633	6.80806	0	
2.1020	1.10691	4.36231	0	
2.1027	2.93517	5.59233	0	
2.1033	3.84309	8.6388	0	
2.1040	2.32575	9.25381	0	
2.1047	1.4054	10.4695	0	
2.1053	3.84309	13.8307	0	
2.1060	5.07437	15.0464	0	
2.1067	4.15402	12.6006	0	
2.1073	2.93517	11.3849	0	
2.1080	2.93517	12.3003	0	
2.1087	4.45251	10.1692	0	
2.1093	4.15402	4.97732	0	
2.1100	2.32575	1.31584	0	
2.1107	2.93517	0.100119	0	
2.1113	4.76344	-0.514895	0	
2.1120	5.37286	-1.43026	0	
2.1127	5.68379	-2.64599	0	
2.1133	5.07437	-2.04528	0	
2.1140	2.93517	-2.34563	0	
2.1147	0.48505	-5.09174	0	
2.1153	-0.124372	-4.47673	0	
2.1160	0.186558	-1.12991	0	
2.1167	2.32575	-1.73062	0	
2.1173	4.45251	-2.64599	0	
2.1180	3.23367	0.70083	0	
2.1187	1.10691	-0.514895	0	
2.1193	2.01482	-4.79139	0	
2.1200	2.93517	-3.56136	0	
2.1207	2.01482	-1.73062	0	
2.1213	2.01482	-2.64599	0	
2.1220	2.93517	-1.73062	0	
2.1227	3.84309	0.400474	0	
2.1233	5.07437	0.100119	0	
2.1240	5.68379	-0.21454	0	
2.1247	3.84309	-0.21454	0	
2.1253	1.10691	0.400474	0	
2.1260	-0.422864	1.93086	0	
2.1267	-0.733793	2.23121	0	
2.1273	-0.422864	0.400474	0	
2.1280	0.795979	-0.514895	0	
2.1287	0.186558	-1.12991	0	
2.1293	-0.733793	-0.815251	0	
2.1300	-0.422864	0.100119	0	
2.1307	-1.34321	-1.12991	0	
2.1313	-4.09183	-2.96065	0	
2.1320	-5.31067	-2.34563	0	
2.1327	-4.39032	0.100119	0	
2.1333	-3.46997	1.93086	0	
2.1340	-3.17148	2.23121	0	
2.1347	-3.17148	1.6162	0	
2.1353	-2.56206	1.93086	0	
2.1360	-3.17148	1.93086	0	
2.1367	-5.60917	0.400474	0	
2.1373	-5.92009	-0.514895	0	
2.1380	-3.7809	-0.514895	0	
2.1387	-4.70125	0.70083	0	
2.1393	-5.31067	2.23121	0	
2.1400	-1.95264	2.53157	0	
2.1407	-1.64171	2.23121	0	
2.1413	-4.70125	2.53157	0	
2.1420	-4.09183	1.31584	0	
2.1427	-1.03229	1.93086	0	
2.1433	-0.733793	5.59233	0	
2.1440	-1.34321	5.59233	0	
2.1447	-1.34321	2.53157	0	
2.1453	-1.03229	3.44694	0	
2.1460	0.795979	5.89269	0	
2.1467	1.10691	5.59233	0	
2.1473	-2.86055	4.97732	0	
2.1480	-5.92009	3.7616	0	
2.1487	-5.92009	0.100119	0	
2.1493	-5.31067	-1.12991	0	
2.1500	-3.46997	1.31584	0	
2.1507	-1.64171	4.06195	0	
2.1513	-1.95264	4.06195	0	
2.1520	-0.733793	2.23121	0	
2.1527	1.71633	1.31584	0	
2.1533	-0.733793	1.6162	0	
2.1540	-2.56206	3.44694	0	
2.1547	-0.124372	4.97732	0	
2.1553	0.186558	3.14658	0	
2.1560	-0.733793	-1.43026	0	
2.1567	2.32575	-2.34563	0	
2.1573	4.76344	0.70083	0	
2.1580	3.54459	2.23121	0	
2.1587	2.93517	0.70083	0	
2.1593	3.23367	0.400474	0	
2.1600	2.01482	2.84623	0	
2.1607	0.795979	4.97732	0	
2.1613	-0.124372	4.06195	0	
2.1620	-0.733793	3.7616	0	
2.1627	-1.64171	5.59233	0	
2.1633	-2.56206	6.80806	0	
2.1640	-0.733793	7.10841	0	
2.1647	2.01482	8.33844	0	
2.1653	3.84309	8.6388	0	
2.1660	3.23367	4.97732	0	
2.1667	2.01482	0.70083	0	
2.1673	1.4054	3.14658	0	
2.1680	0.795979	4.06195	0	
2.1687	-1.34321	-2.34563	0	
2.1693	-1.95264	-6.30747	0	
2.1700	-1.03229	-3.261	0	
2.1707	-1.34321	-2.34563	0	
2.1713	-2.25113	-4.79139	0	
2.1720	-2.25113	-4.79139	0	
2.1727	-2.25113	-4.79139	0	
2.1733	-1.34321	-5.09174	0	
2.1740	-0.733793	-1.43026	0	
2.1747	-3.17148	-0.21454	0	
2.1753	-5.31067	-3.87602	0	
2.1760	-4.39032	-4.79139	0	
2.1767	-3.46997	-2.04528	0	
2.1773	-2.25113	-3.261	0	
2.1780	0.795979	-5.3921	0	
2.1787	2.62424	-2.96065	0	
2.1793	2.01482	-0.21454	0	
2.1800	0.48505	-1.12991	0	
2.1807	0.186558	-2.64599	0	
2.1813	-0.733793	-4.17637	0	
2.1820	-0.733793	-5.09174	0	
2.1827	2.01482	-4.17637	0	
2.1833	3.84309	-1.43026	0	
2.1840	1.10691	-1.12991	0	
2.1847	-1.95264	-1.43026	0	
2.1853	0.186558	-0.514895	0	
2.1860	3.84309	-0.815251	0	
2.1867	4.45251	-2.34563	0	
2.1873	1.10691	-2.64599	0	
2.1880	-1.03229	-2.64599	0	
2.1887	-0.733793	-3.261	0	
2.1893	0.186558	-2.96065	0	
2.1900	1.10691	-4.47673	0	
2.1907	0.186558	-6.62213	0	
2.1913	0.186558	-5.09174	0	
2.1920	1.71633	-2.96065	0	
2.1927	0.186558	-3.261	0	
2.1933	-3.17148	-4.47673	0	
2.1940	-1.64171	-6.00711	0	
2.1947	1.10691	-7.83785	0	
2.1953	-0.124372	-5.70676	0	
2.1960	-0.733793	-3.56136	0	
2.1967	0.795979	-6.62213	0	
2.1973	0.186558	-6.92248	0	
2.1980	0.795979	-0.815251	0	
2.1987	2.01482	2.53157	0	
2.1993	1.10691	1.93086	0	
2.2000	0.48505	2.23121	0	
2.2007	1.4054	2.84623	0	
2.2013	2.01482	1.31584	0	
2.2020	3.54459	0.400474	0	
2.2027	3.84309	1.01549	0	
2.2033	2.01482	1.01549	0	
2.2040	2.32575	-1.12991	0	
2.2047	3.23367	-5.09174	0	
2.2053	0.186558	-5.70676	0	
2.2060	-1.64171	-3.261	0	
2.2067	1.71633	-5.09174	0	
2.2073	2.32575	-10.584	0	
2.2080	-0.733793	-12.1143	0	
2.2087	-2.56206	-9.36823	0	
2.2093	-2.56206	-7.53749	0	
2.2100	-1.34321	-6.00711	0	
2.2107	-0.733793	-3.56136	0	
2.2113	-3.46997	-2.96065	0	
2.2120	-5.60917	-1.73062	0	
2.2127	-1.34321	0.70083	0	
2.2133	1.10691	1.01549	0	
2.2140	-1.64171	0.70083	0	
2.2147	-0.422864	1.93086	0	
2.2153	2.32575	2.23121	0	
2.2160	0.186558	2.84623	0	
2.2167	0.186558	4.67697	0	
2.2173	2.93517	5.89269	0	
2.2180	1.10691	8.33844	0	
2.2187	1.10691	11.3849	0	
2.2193	5.68379	11.3849	0	
2.2200	4.45251	8.6388	0	
2.2207	0.48505	6.80806	0	
2.2213	1.10691	4.36231	0	
2.2220	1.4054	2.84623	0	
2.2227	-0.733793	4.06195	0	
2.2233	-0.733793	5.59233	0	
2.2240	-0.124372	6.19305	0	
2.2247	-1.34321	7.72343	0	
2.2253	-2.56206	7.72343	0	
2.2260	-3.46997	6.19305	0	
2.2267	-4.39032	6.80806	0	
2.2273	-3.46997	5.89269	0	
2.2280	-2.25113	1.93086	0	
2.2287	-1.64171	1.01549	0	
2.2293	-0.733793	4.06195	0	
2.2300	-1.03229	5.59233	0	
2.2307	-1.95264	4.06195	0	
2.2313	-1.95264	1.31584	0	
2.2320	-1.64171	0.100119	0	
2.2327	-3.17148	1.31584	0	
2.2333	-4.39032	2.23121	0	
2.2340	-2.25113	1.6162	0	
2.2347	1.10691	0.400474	0	
2.2353	1.4054	-0.21454	0	
2.2360	1.10691	0.400474	0	
2.2367	0.186558	2.53157	0	
2.2373	-1.64171	4.36231	0	
2.2380	-1.34321	2.84623	0	
2.2387	1.10691	-0.21454	0	
2.2393	-0.733793	-0.514895	0	
2.2400	-4.39032	1.01549	0	
2.2407	-3.7809	1.6162	0	
2.2413	0.48505	2.84623	0	
2.2420	2.93517	4.06195	0	
2.2427	2.62424	3.14658	0	
2.2433	2.01482	1.31584	0	
2.2440	2.93517	0.70083	0	
2.2447	2.01482	1.01549	0	
2.2453	-1.34321	1.93086	0	
2.2460	-1.34321	3.14658	0	
2.2467	0.186558	1.6162	0	
2.2473	-1.34321	-0.21454	0	
2.2480	-3.7809	2.23121	0	
2.2487	-4.09183	4.06195	0	
2.2493	-4.09183	0.400474	0	
2.2500	-4.99974	-2.96065	0	
2.2507	-5.92009	-2.34563	0	
2.2513	-6.82801	-2.96065	0	
2.2520	-5.31067	-4.47673	0	
2.2527	-3.7809	-4.79139	0	
2.2533	-5.92009	-5.09174	0	
2.2540	-8.05929	-4.47673	0	
2.2547	-5.31067	-4.79139	0	
2.2553	-0.733793	-7.53749	0	
2.2560	-0.124372	-9.66859	0	
2.2567	-3.17148	-8.13821	0	
2.2573	-4.70125	-6.30747	0	
2.2580	-2.25113	-6.00711	0	
2.2587	-0.124372	-7.22284	0	
2.2593	1.10691	-9.05357	0	
2.2600	3.84309	-7.22284	0	
2.2607	3.54459	-4.47673	0	
2.2613	0.48505	-6.00711	0	
2.2620	2.01482	-6.92248	0	
2.2627	3.23367	-5.09174	0	
2.2633	-0.124372	-6.00711	0	
2.2640	-0.733793	-7.83785	0	
2.2647	1.71633	-4.17637	0	
2.2653	0.795979	-1.12991	0	
2.2660	-1.64171	-2.04528	0	
2.2667	-2.56206	-2.64599	0	
2.2673	-2.25113	-0.514895	0	
2.2680	1.10691	-0.21454	0	
2.2687	3.54459	-3.261	0	
2.2693	-0.733793	-5.3921	0	
2.2700	-4.99974	-5.09174	0	
2.2707	-2.56206	-6.92248	0	
2.2713	-0.733793	-8.45286	0	
2.2720	-4.09183	-6.92248	0	
2.2727	-6.21859	-7.22284	0	
2.2733	-1.95264	-7.53749	0	
2.2740	2.01482	-3.261	0	
2.2747	0.186558	-2.34563	0	
2.2753	-2.86055	-6.30747	0	
2.2760	-1.95264	-5.3921	0	
2.2767	1.71633	-1.43026	0	
2.2773	3.23367	-1.43026	0	
2.2780	1.4054	-1.43026	0	
2.2787	-0.422864	0.70083	0	
2.2793	-0.422864	1.93086	0	
2.2800	0.186558	3.7616	0	
2.2807	-0.124372	5.59233	0	
2.2813	-0.733793	4.36231	0	
2.2820	-1.64171	3.14658	0	
2.2827	-2.56206	4.06195	0	
2.2833	-1.34321	6.80806	0	
2.2840	2.32575	8.33844	0	
2.2847	3.54459	5.59233	0	
2.2853	0.795979	2.23121	0	
2.2860	-1.03229	4.97732	0	
2.2867	-0.124372	6.80806	0	
2.2873	-0.124372	2.53157	0	
2.2880	-1.34321	-0.815251	0	
2.2887	-1.34321	-0.21454	0	
2.2893	-0.422864	-1.43026	0	
2.2900	0.795979	-3.261	0	
2.2907	2.01482	-2.34563	0	
2.2913	1.10691	-1.12991	0	
2.2920	0.186558	-3.261	0	
2.2927	1.10691	-3.56136	0	
2.2933	2.01482	0.400474	0	
2.2940	1.10691	1.6162	0	
2.2947	1.4054	-2.34563	0	
2.2953	1.10691	-2.34563	0	
2.2960	-0.733793	2.53157	0	
2.2967	0.48505	3.7616	0	
2.2973	2.93517	4.06195	0	
2.2980	1.71633	8.02378	0	
2.2987	-0.422864	9.55417	0	
2.2993	2.01482	7.72343	0	
2.3000	5.07437	7.72343	0	
2.3007	3.84309	6.80806	0	
2.3013	1.71633	5.27768	0	
2.3020	1.4054	7.72343	0	
2.3027	1.71633	9.55417	0	
2.3033	0.795979	7.72343	0	
2.3040	-0.733793	7.72343	0	
2.3047	-0.733793	7.72343	0	
2.3053	-0.422864	3.7616	0	
2.3060	0.48505	1.6162	0	
2.3067	2.01482	3.14658	0	
2.3073	2.01482	2.53157	0	
2.3080	0.186558	-1.43026	0	
2.3087	-0.733793	-2.34563	0	
2.3093	0.48505	-0.815251	0	
2.3100	1.10691	0.100119	0	
2.3107	-0.733793	0.400474	0	
2.3113	-3.46997	-0.815251	0	
2.3120	-2.86055	-2.64599	0	
2.3127	0.186558	-1.43026	0	
2.3133	2.01482	-0.514895	0	
2.3140	0.186558	-2.64599	0	
2.3147	0.186558	-4.17637	0	
2.3153	3.23367	-2.34563	0	
2.3160	4.76344	-1.12991	0	
2.3167	2.62424	-2.34563	0	
2.3173	2.01482	-3.261	0	
2.3180	3.84309	-1.43026	0	
2.3187	3.54459	2.23121	0	
2.3193	2.01482	3.14658	0	
2.3200	2.93517	3.14658	0	
2.3207	4.76344	2.23121	0	
2.3213	5.68379	0.400474	0	
2.3220	5.37286	-0.815251	0	
2.3227	4.45251	2.23121	0	
2.3233	3.23367	5.59233	0	
2.3240	3.23367	4.06195	0	
2.3247	2.32575	1.93086	0	
2.3253	0.186558	2.53157	0	
2.3260	-0.124372	3.14658	0	
2.3267	1.10691	1.93086	0	
2.3273	1.10691	2.23121	0	
2.3280	-0.733793	4.06195	0	
2.3287	-1.64171	2.23121	0	
2.3293	-1.03229	0.400474	0	
2.3300	0.186558	3.14658	0	
2.3307	0.186558	4.06195	0	
2.3313	1.10691	1.01549	0	
2.3320	2.93517	1.31584	0	
2.3327	1.10691	4.06195	0	
2.3333	-1.03229	2.23121	0	
2.3340	1.4054	-2.34563	0	
2.3347	3.23367	-2.34563	0	
2.3353	1.10691	-1.12991	0	
2.3360	0.795979	-3.261	0	
2.3367	1.10691	-6.92248	0	
2.3373	0.186558	-6.00711	0	
2.3380	0.186558	-1.43026	0	
2.3387	1.10691	-0.21454	0	
2.3393	1.71633	-2.34563	0	
2.3400	1.10691	-2.96065	0	
2.3407	0.186558	-1.43026	0	
2.3413	-0.124372	-0.815251	0	
2.3420	0.186558	-2.34563	0	
2.3427	-1.95264	-4.17637	0	
2.3433	-4.39032	-5.09174	0	
2.3440	-3.46997	-4.47673	0	
2.3447	-1.64171	-2.34563	0	
2.3453	-0.733793	1.01549	0	
2.3460	-2.56206	2.23121	0	
2.3467	-4.39032	-0.815251	0	
2.3473	-3.7809	-6.62213	0	
2.3480	-4.39032	-7.83785	0	
2.3487	-6.82801	-3.87602	0	
2.3493	-5.31067	-1.43026	0	
2.3500	-2.86055	-2.64599	0	
2.3507	-5.92009	-2.96065	0	
2.3513	-7.74836	-2.64599	0	
2.3520	-4.99974	-3.261	0	
2.3527	-4.70125	-3.261	0	
2.3533	-6.82801	-3.56136	0	
2.3540	-6.21859	-6.30747	0	
2.3547	-4.70125	-6.92248	0	
2.3553	-4.39032	-4.17637	0	
2.3560	-2.86055	-2.96065	0	
2.3567	-1.64171	-5.3921	0	
2.3573	-2.56206	-7.22284	0	
2.3580	-2.86055	-6.00711	0	
2.3587	-0.733793	-5.09174	0	
2.3593	0.48505	-4.17637	0	
2.3600	0.795979	-2.64599	0	
2.3607	2.01482	-3.261	0	
2.3613	1.10691	-5.70676	0	
2.3620	-1.64171	-4.47673	0	
2.3627	-2.25113	-0.514895	0	
2.3633	-2.56206	1.01549	0	
2.3640	-3.7809	-0.514895	0	
2.3647	-2.86055	-0.815251	0	
2.3653	-0.733793	-0.514895	0	
2.3660	-0.124372	0.400474	0	
2.3667	-1.64171	0.70083	0	
2.3673	-4.09183	-1.12991	0	
2.3680	-6.21859	-3.261	0	
2.3687	-5.31067	-3.261	0	
2.3693	-4.09183	-3.261	0	
2.3700	-3.17148	-5.70676	0	
2.3707	-1.95264	-7.22284	0	
2.3713	-1.34321	-6.92248	0	
2.3720	-1.03229	-6.92248	0	
2.3727	-0.733793	-6.30747	0	
2.3733	-1.64171	-5.70676	0	
2.3740	-3.46997	-7.22284	0	
2.3747	-0.422864	-6.30747	0	
2.3753	2.93517	-1.73062	0	
2.3760	1.10691	-0.815251	0	
2.3767	-1.64171	-3.56136	0	
2.3773	0.186558	-3.56136	0	
2.3780	3.23367	-1.73062	0	
2.3787	2.93517	-0.514895	0	
2.3793	2.32575	0.400474	0	
2.3800	3.23367	-0.514895	0	
2.3807	1.71633	-1.12991	0	
2.3813	-2.86055	1.93086	0	
2.3820	-5.31067	4.06195	0	
2.3827	-3.17148	1.6162	0	
2.3833	-1.03229	1.31584	0	
2.3840	0.186558	4.36231	0	
2.3847	1.10691	4.97732	0	
2.3853	1.10691	1.93086	0	
2.3860	0.186558	1.93086	0	
2.3867	-0.422864	2.84623	0	
2.3873	-0.733793	1.6162	0	
2.3880	-2.56206	0.400474	0	
2.3887	-3.7809	-1.43026	0	
2.3893	-2.56206	-2.96065	0	
2.3900	-1.34321	-1.12991	0	
2.3907	-1.64171	0.70083	0	
2.3913	-2.25113	-2.04528	0	
2.3920	-1.95264	-2.34563	0	
2.3927	-1.34321	-0.514895	0	
2.3933	-1.95264	-1.43026	0	
2.3940	-3.46997	-1.43026	0	
2.3947	-2.56206	0.70083	0	
2.3953	1.10691	-1.73062	0	
2.3960	1.71633	-5.09174	0	
2.3967	-0.422864	-3.261	0	
2.3973	-0.124372	-1.12991	0	
2.3980	2.01482	1.01549	0	
2.3987	2.93517	4.97732	0	
2.3993	4.15402	6.5077	0	
2.4000	5.37286	4.97732	0	
2.4007	2.62424	4.67697	0	
2.4013	-1.64171	4.06195	0	
2.4020	-1.34321	4.67697	0	
2.4027	1.71633	7.10841	0	
2.4033	0.795979	7.42307	0	
2.4040	-2.56206	6.80806	0	
2.4047	-1.64171	7.42307	0	
2.4053	0.186558	5.89269	0	
2.4060	-3.17148	5.27768	0	
2.4067	-5.60917	8.93915	0	
2.4073	-2.56206	9.55417	0	
2.4080	-3.7809	5.89269	0	
2.4087	-7.13894	4.67697	0	
2.4093	-6.21859	5.27768	0	
2.4100	-5.31067	3.44694	0	
2.4107	-6.21859	2.84623	0	
2.4113	-2.56206	4.67697	0	
2.4120	-2.25113	3.44694	0	
2.4127	-6.21859	0.400474	0	
2.4133	-4.99974	-0.514895	0	
2.4140	-2.56206	0.70083	0	
2.4147	-4.99974	0.100119	0	
2.4153	-5.31067	-1.73062	0	
2.4160	-4.39032	-1.73062	0	
2.4167	-6.21859	0.100119	0	
2.4173	-4.39032	1.93086	0	
2.4180	-3.17148	0.400474	0	
2.4187	-5.31067	-3.87602	0	
2.4193	-3.17148	-4.17637	0	
2.4200	1.4054	1.01549	0	
2.4207	1.10691	3.44694	0	
2.4213	0.186558	0.70083	0	
2.4220	2.01482	-0.514895	0	
2.4227	1.4054	1.93086	0	
2.4233	2.01482	1.6162	0	
2.4240	3.84309	-1.12991	0	
2.4247	1.71633	-2.34563	0	
2.4253	-1.64171	-2.34563	0	
2.4260	-0.124372	-2.04528	0	
2.4267	2.01482	-2.34563	0	
2.4273	1.4054	-3.261	0	
2.4280	-1.64171	-2.96065	0	
2.4287	-2.56206	-2.34563	0	
2.4293	-1.64171	-2.96065	0	
2.4300	-2.56206	-3.261	0	
2.4307	-4.09183	-4.47673	0	
2.4313	-1.34321	-10.2836	0	
2.4320	1.10691	-14.8604	0	
2.4327	-0.422864	-11.199	0	
2.4333	-2.25113	-6.00711	0	
2.4340	-1.34321	-7.22284	0	
2.4347	0.186558	-9.05357	0	
2.4353	0.186558	-6.92248	0	
2.4360	-1.03229	-6.30747	0	
2.4367	-0.422864	-6.92248	0	
2.4373	1.4054	-5.09174	0	
2.4380	2.01482	-5.3921	0	
2.4387	2.93517	-7.83785	0	
2.4393	3.54459	-6.62213	0	
2.4400	1.10691	-3.261	0	
2.4407	1.10691	-1.43026	0	
2.4413	3.23367	-1.43026	0	
2.4420	2.93517	-2.64599	0	
2.4427	2.32575	-2.04528	0	
2.4433	5.07437	0.100119	0	
2.4440	5.98228	-0.815251	0	
2.4447	4.45251	-1.73062	0	
2.4453	4.45251	0.70083	0	
2.4460	5.07437	1.01549	0	
2.4467	4.15402	-1.12991	0	
2.4473	3.23367	2.23121	0	
2.4480	3.84309	6.5077	0	
2.4487	5.37286	4.06195	0	
2.4493	5.68379	1.31584	0	
2.4500	4.76344	1.6162	0	
2.4507	3.84309	-0.815251	0	
2.4513	4.15402	-2.34563	0	
2.4520	5.68379	2.23121	0	
2.4527	5.68379	4.36231	0	
2.4533	2.01482	2.23121	0	
2.4540	-1.03229	3.14658	0	
2.4547	0.795979	4.06195	0	
2.4553	2.32575	1.01549	0	
2.4560	2.01482	0.100119	0	
2.4567	3.54459	3.14658	0	
2.4573	3.54459	3.7616	0	
2.4580	0.795979	4.06195	0	
2.4587	1.10691	5.59233	0	
2.4593	2.62424	4.97732	0	
2.4600	1.4054	4.36231	0	
2.4607	1.4054	8.6388	0	
2.4613	4.15402	11.3849	0	
2.4620	3.23367	9.55417	0	
2.4627	0.186558	8.93915	0	
2.4633	0.795979	9.25381	0	
2.4640	3.84309	6.19305	0	
2.4647	2.93517	2.23121	0	
2.4653	1.10691	2.23121	0	
2.4660	2.93517	3.44694	0	
2.4667	2.93517	3.44694	0	
2.4673	-0.124372	4.06195	0	
2.4680	-0.124372	4.36231	0	
2.4687	0.48505	3.14658	0	
2.4693	-1.64171	2.84623	0	
2.4700	-0.733793	3.14658	0	
2.4707	1.10691	1.93086	0	
2.4713	-1.95264	0.400474	0	
2.4720	-3.46997	1.31584	0	
2.4727	-1.95264	2.23121	0	
2.4733	-3.46997	2.53157	0	
2.4740	-3.46997	3.14658	0	
2.4747	-0.733793	2.23121	0	
2.4753	-0.124372	-0.21454	0	
2.4760	-0.733793	-2.64599	0	
2.4767	0.795979	-5.09174	0	
2.4773	1.4054	-5.70676	0	
2.4780	1.4054	-3.87602	0	
2.4787	2.62424	-2.34563	0	
2.4793	2.01482	-0.514895	0	
2.4800	-0.422864	2.23121	0	
2.4807	-0.124372	2.23121	0	
2.4813	1.4054	0.100119	0	
2.4820	2.01482	0.70083	0	
2.4827	2.01482	0.400474	0	
2.4833	-0.422864	-0.514895	0	
2.4840	-3.46997	1.01549	0	
2.4847	-2.56206	0.400474	0	
2.4853	-1.34321	-1.43026	0	
2.4860	-3.7809	1.31584	0	
2.4867	-1.95264	1.31584	0	
2.4873	2.62424	-3.87602	0	
2.4880	-0.124372	-5.09174	0	
2.4887	-3.46997	-3.56136	0	
2.4893	-0.422864	-6.00711	0	
2.4900	0.186558	-7.53749	0	
2.4907	-3.46997	-7.53749	0	
2.4913	-4.39032	-8.75322	0	
2.4920	-6.21859	-8.45286	0	
2.4927	-8.9672	-6.92248	0	
2.4933	-7.43743	-6.30747	0	
2.4940	-6.21859	-6.00711	0	
2.4947	-6.52952	-5.09174	0	
2.4953	-4.09183	-6.00711	0	
2.4960	-2.25113	-8.45286	0	
2.4967	-3.46997	-9.96894	0	
2.4973	-2.25113	-9.36823	0	
2.4980	0.186558	-7.53749	0	
2.4987	0.795979	-5.70676	0	
2.4993	0.186558	-5.09174	0	
2.5000	-1.03229	-6.00711	0	
2.5007	-2.86055	-5.3921	0	
2.5013	-1.03229	-3.261	0	
2.5020	2.01482	-2.34563	0	
2.5027	1.71633	-2.96065	0	
2.5033	0.186558	-0.514895	0	
2.5040	-1.03229	1.6162	0	
2.5047	-2.86055	-1.43026	0	
2.5053	-3.17148	-3.261	0	
2.5060	-0.124372	0.400474	0	
2.5067	1.71633	3.14658	0	
2.5073	-1.03229	3.7616	0	
2.5080	-4.39032	6.5077	0	
2.5087	-4.39032	9.55417	0	
2.5093	-2.56206	7.42307	0	
2.5100	-4.70125	4.36231	0	
2.5107	-6.82801	4.36231	0	
2.5113	-2.56206	4.97732	0	
2.5120	1.4054	4.97732	0	
2.5127	-2.25113	4.97732	0	
2.5133	-5.31067	3.7616	0	
2.5140	-1.95264	1.01549	0	
2.5147	0.795979	-1.43026	0	
2.5153	0.186558	-4.47673	0	
2.5160	-0.422864	-7.83785	0	
2.5167	-1.64171	-6.92248	0	
2.5173	-0.733793	-2.96065	0	
2.5180	3.84309	-2.64599	0	
2.5187	5.68379	-3.56136	0	
2.5193	4.45251	-1.43026	0	
2.5200	3.84309	-0.514895	0	
2.5207	1.71633	-3.87602	0	
2.5213	0.186558	-4.17637	0	
2.5220	2.01482	-0.815251	0	
2.5227	2.01482	0.70083	0	
2.5233	0.186558	1.01549	0	
2.5240	0.186558	0.400474	0	
2.5247	-0.124372	-0.514895	0	
2.5253	-1.03229	-1.73062	0	
2.5260	0.186558	-1.43026	0	
2.5267	2.01482	-0.815251	0	
2.5273	1.4054	-0.514895	0	
2.5280	0.186558	-0.815251	0	
2.5287	0.795979	-0.514895	0	
2.5293	-0.124372	-0.514895	0	
2.5300	-1.64171	-3.261	0	
2.5307	-0.733793	-5.70676	0	
2.5313	0.48505	-4.79139	0	
2.5320	0.48505	-2.34563	0	
2.5327	1.10691	-2.64599	0	
2.5333	2.01482	-6.30747	0	
2.5340	2.01482	-6.92248	0	
2.5347	2.62424	-1.43026	0	
2.5353	2.01482	1.01549	0	
2.5360	-0.422864	-2.96065	0	
2.5367	-0.124372	-6.62213	0	
2.5373	3.23367	-4.47673	0	
2.5380	3.23367	-0.815251	0	
2.5387	-0.124372	-0.21454	0	
2.5393	-1.95264	0.400474	0	
2.5400	-1.64171	2.84623	0	
2.5407	-1.34321	3.14658	0	
2.5413	-2.56206	-0.21454	0	
2.5420	-3.46997	-0.514895	0	
2.5427	-1.03229	1.6162	0	
2.5433	1.71633	2.23121	0	
2.5440	-0.124372	4.67697	0	
2.5447	-1.64171	7.72343	0	
2.5453	-0.422864	6.80806	0	
2.5460	0.186558	4.97732	0	
2.5467	0.48505	4.97732	0	
2.5473	0.795979	3.44694	0	
2.5480	-0.733793	3.14658	0	
2.5487	-1.64171	4.67697	0	
2.5493	-1.03229	4.36231	0	
2.5500	-2.56206	4.36231	0	
2.5507	-4.09183	4.67697	0	
2.5513	-2.56206	3.44694	0	
2.5520	-1.64171	4.36231	0	
2.5527	-1.64171	5.59233	0	
2.5533	-1.03229	2.84623	0	
2.5540	-2.56206	2.53157	0	
2.5547	-3.17148	6.80806	0	
2.5553	-1.34321	5.89269	0	
2.5560	-1.64171	2.23121	0	
2.5567	-4.09183	4.36231	0	
2.5573	-4.39032	6.80806	0	
2.5580	-3.46997	5.27768	0	
2.5587	-3.17148	4.06195	0	
2.5593	-4.09183	4.67697	0	
2.5600	-4.99974	3.44694	0	
2.5607	-5.31067	2.53157	0	
2.5613	-4.39032	3.44694	0	
2.5620	-1.64171	4.06195	0	
2.5627	1.10691	3.14658	0	
2.5633	0.795979	2.84623	0	
2.5640	-0.422864	3.14658	0	
2.5647	1.10691	3.14658	0	
2.5653	1.4054	2.84623	0	
2.5660	0.186558	3.14658	0	
2.5667	0.795979	0.400474	0	
2.5673	0.186558	-2.34563	0	
2.5680	-2.56206	-2.34563	0	
2.5687	-1.03229	-2.34563	0	
2.5693	1.4054	-3.87602	0	
2.5700	-0.733793	-4.17637	0	
2.5707	-2.25113	-5.09174	0	
2.5713	-0.422864	-7.53749	0	
2.5720	-0.124372	-6.92248	0	
2.5727	-0.733793	-5.70676	0	
2.5733	0.795979	-5.70676	0	
2.5740	1.10691	-4.17637	0	
2.5747	-0.124372	-2.64599	0	
2.5753	1.4054	-3.87602	0	
2.5760	3.84309	-3.261	0	
2.5767	2.01482	-1.43026	0	
2.5773	0.186558	-4.17637	0	
2.5780	3.54459	-7.83785	0	
2.5787	5.37286	-5.70676	0	
2.5793	2.93517	-2.64599	0	
2.5800	1.4054	-0.815251	0	
2.5807	1.10691	2.23121	0	
2.5813	0.186558	2.84623	0	
2.5820	1.10691	1.93086	0	
2.5827	2.32575	3.14658	0	
2.5833	2.01482	4.67697	0	
2.5840	1.10691	4.97732	0	
2.5847	-0.733793	7.72343	0	
2.5853	-2.86055	7.72343	0	
2.5860	-2.86055	4.67697	0	
2.5867	-2.25113	7.42307	0	
2.5873	-3.17148	10.4695	0	
2.5880	-2.86055	4.36231	0	
2.5887	-1.03229	-1.43026	0	
2.5893	1.4054	1.01549	0	
2.5900	3.84309	2.23121	0	
2.5907	2.01482	-0.514895	0	
2.5913	-2.25113	-2.64599	0	
2.5920	-1.95264	-3.261	0	
2.5927	0.186558	-3.261	0	
2.5933	-0.733793	-3.261	0	
2.5940	-1.03229	-3.261	0	
2.5947	-0.124372	-3.261	0	
2.5953	2.01482	-3.261	0	
2.5960	4.45251	-5.3921	0	
2.5967	4.45251	-7.22284	0	
2.5973	2.62424	-6.62213	0	
2.5980	3.84309	-4.79139	0	
2.5987	5.07437	-3.261	0	
2.5993	3.23367	-3.261	0	
2.6000	2.62424	-4.17637	0	
2.6007	2.93517	-3.261	0	
2.6013	2.62424	-1.73062	0	
2.6020	2.01482	-2.96065	0	
2.6027	0.48505	-5.70676	0	
2.6033	-0.422864	-3.261	0	
2.6040	0.48505	1.6162	0	
2.6047	0.48505	1.31584	0	
2.6053	-1.03229	-2.34563	0	
2.6060	-1.03229	-0.21454	0	
2.6067	-0.422864	2.53157	0	
2.6073	-0.733793	-0.21454	0	
2.6080	-1.34321	-1.43026	0	
2.6087	-3.17148	2.84623	0	
2.6093	-5.31067	4.97732	0	
2.6100	-5.60917	3.14658	0	
2.6107	-6.21859	3.44694	0	
2.6113	-6.52952	4.36231	0	
2.6120	-5.31067	3.44694	0	
2.6127	-4.70125	3.44694	0	
2.6133	-5.92009	4.97732	0	
2.6140	-3.7809	4.97732	0	
2.6147	-0.733793	1.31584	0	
2.6153	-1.64171	-2.34563	0	
2.6160	-4.09183	-3.261	0	
2.6167	-3.17148	-1.73062	0	
2.6173	-1.95264	1.6162	0	
2.6180	-2.56206	4.06195	0	
2.6187	-1.64171	4.97732	0	
2.6193	-1.34321	6.80806	0	
2.6200	-4.39032	8.93915	0	
2.6207	-4.99974	8.33844	0	
2.6213	-0.124372	4.97732	0	
2.6220	2.01482	4.97732	0	
2.6227	0.795979	8.02378	0	
2.6233	3.84309	8.6388	0	
2.6240	5.98228	6.5077	0	
2.6247	1.10691	3.7616	0	
2.6253	-0.733793	1.31584	0	
2.6260	3.84309	-0.514895	0	
2.6267	4.45251	0.100119	0	
2.6273	2.01482	0.70083	0	
2.6280	3.23367	-0.815251	0	
2.6287	3.54459	-2.34563	0	
2.6293	2.01482	-1.43026	0	
2.6300	0.48505	-2.96065	0	
2.6307	-1.34321	-5.09174	0	
2.6313	-0.124372	-2.34563	0	
2.6320	3.23367	0.400474	0	
2.6327	2.93517	-1.43026	0	
2.6333	1.4054	-2.34563	0	
2.6340	4.76344	-1.43026	0	
2.6347	6.5917	-3.87602	0	
2.6353	3.84309	-4.47673	0	
2.6360	3.54459	-3.261	0	
2.6367	5.68379	-5.70676	0	
2.6373	5.98228	-7.22284	0	
2.6380	5.37286	-4.17637	0	
2.6387	5.68379	-2.34563	0	
2.6393	6.29321	-1.73062	0	
2.6400	5.07437	0.400474	0	
2.6407	2.93517	-0.815251	0	
2.6413	2.62424	-2.64599	0	
2.6420	4.76344	-0.514895	0	
2.6427	5.98228	0.100119	0	
2.6433	4.45251	-1.12991	0	
2.6440	2.01482	1.01549	0	
2.6447	0.186558	2.53157	0	
2.6453	0.795979	1.31584	0	
2.6460	2.01482	3.14658	0	
2.6467	2.01482	6.19305	0	
2.6473	-0.422864	4.36231	0	
2.6480	-2.56206	1.31584	0	
2.6487	-3.46997	1.31584	0	
2.6493	-5.31067	2.23121	0	
2.6500	-6.21859	0.100119	0	
2.6507	-4.39032	-3.261	0	
2.6513	-2.25113	-4.17637	0	
2.6520	-1.64171	-3.261	0	
2.6527	-1.95264	-2.64599	0	
2.6533	-3.46997	-2.96065	0	
2.6540	-7.43743	-2.34563	0	
2.6547	-9.27813	-2.04528	0	
2.6553	-6.52952	-3.87602	0	
2.6560	-3.46997	-6.00711	0	
2.6567	-3.17148	-5.09174	0	
2.6573	-3.17148	-2.96065	0	
2.6580	-2.25113	-2.34563	0	
2.6587	-1.34321	-3.261	0	
2.6593	-2.56206	-1.73062	0	
2.6600	-3.17148	-0.815251	0	
2.6607	-2.25113	-1.43026	0	
2.6613	-3.17148	-0.514895	0	
2.6620	-5.60917	0.70083	0	
2.6627	-6.21859	1.31584	0	
2.6633	-7.13894	2.84623	0	
2.6640	-8.05929	4.97732	0	
2.6647	-5.60917	6.19305	0	
2.6653	-4.39032	6.5077	0	
2.6660	-7.13894	5.27768	0	
2.6667	-6.52952	3.14658	0	
2.6673	-4.39032	2.23121	0	
2.6680	-5.92009	3.14658	0	
2.6687	-5.31067	2.84623	0	
2.6693	-1.64171	1.31584	0	
2.6700	-2.56206	0.400474	0	
2.6707	-6.21859	0.400474	0	
2.6713	-6.21859	-0.815251	0	
2.6720	-4.39032	-2.04528	0	
2.6727	-2.25113	-1.43026	0	
2.6733	0.795979	-0.514895	0	
2.6740	1.10691	-1.43026	0	
2.6747	1.10691	-1.43026	0	
2.6753	1.71633	-2.34563	0	
2.6760	1.10691	-5.3921	0	
2.6767	0.48505	-6.00711	0	
2.6773	2.32575	-2.96065	0	
2.6780	3.84309	-1.43026	0	
2.6787	3.84309	-2.96065	0	
2.6793	3.84309	-2.96065	0	
2.6800	3.54459	-0.514895	0	
2.6807	2.93517	-1.73062	0	
2.6813	1.4054	-6.00711	0	
2.6820	-0.422864	-6.00711	0	
2.6827	0.795979	-2.04528	0	
2.6833	2.01482	0.400474	0	
2.6840	0.795979	1.31584	0	
2.6847	0.48505	1.6162	0	
2.6853	1.10691	0.70083	0	
2.6860	0.48505	0.400474	0	
2.6867	1.10691	0.70083	0	
2.6873	0.48505	-0.815251	0	
2.6880	-1.03229	-2.96065	0	
2.6887	0.186558	-5.3921	0	
2.6893	0.48505	-6.92248	0	
2.6900	-1.64171	-4.17637	0	
2.6907	-2.56206	-1.43026	0	
2.6913	-2.56206	-4.17637	0	
2.6920	-3.7809	-5.70676	0	
2.6927	-3.17148	-2.96065	0	
2.6933	-1.64171	-2.34563	0	
2.6940	-2.56206	-2.34563	0	
2.6947	-3.46997	-1.12991	0	
2.6953	-2.56206	-2.96065	0	
2.6960	-1.64171	-5.3921	0	
2.6967	-0.124372	-5.09174	0	
2.6973	1.10691	-6.00711	0	
2.6980	2.01482	-6.92248	0	
2.6987	2.62424	-5.09174	0	
2.6993	2.32575	-3.261	0	
2.7000	-0.124372	-1.73062	0	
2.7007	-1.95264	-0.815251	0	
2.7013	-1.64171	-3.87602	0	
2.7020	0.186558	-6.00711	0	
2.7027	2.32575	-5.70676	0	
2.7033	2.62424	-7.53749	0	
2.7040	0.795979	-9.36823	0	
2.7047	1.10691	-6.00711	0	
2.7053	2.93517	-3.87602	0	
2.7060	2.01482	-5.3921	0	
2.7067	0.186558	-4.17637	0	
2.7073	-0.733793	-2.96065	0	
2.7080	-1.03229	-6.00711	0	
2.7087	0.186558	-9.05357	0	
2.7093	-0.733793	-7.83785	0	
2.7100	-4.09183	-4.79139	0	
2.7107	-2.86055	-3.87602	0	
2.7113	-0.733793	-6.62213	0	
2.7120	-3.46997	-9.66859	0	
2.7127	-4.09183	-8.75322	0	
2.7133	-0.422864	-8.45286	0	
2.7140	-1.64171	-9.36823	0	
2.7147	-3.46997	-7.83785	0	
2.7153	-0.124372	-5.09174	0	
2.7160	0.48505	-3.56136	0	
2.7167	-2.56206	-2.34563	0	
2.7173	-3.17148	-2.34563	0	
2.7180	-1.03229	-2.96065	0	
2.7187	0.186558	-0.514895	0	
2.7193	-0.733793	1.31584	0	
2.7200	-2.86055	2.23121	0	
2.7207	-2.56206	6.19305	0	
2.7213	-0.422864	8.93915	0	
2.7220	0.186558	6.19305	0	
2.7227	1.10691	4.97732	0	
2.7233	2.62424	6.80806	0	
2.7240	-0.422864	7.10841	0	
2.7247	-1.95264	6.80806	0	
2.7253	0.795979	6.5077	0	
2.7260	2.01482	5.89269	0	
2.7267	1.10691	6.80806	0	
2.7273	1.10691	7.72343	0	
2.7280	0.48505	6.5077	0	
2.7287	1.10691	4.36231	0	
2.7293	2.93517	4.06195	0	
2.7300	0.186558	4.06195	0	
2.7307	-3.46997	3.14658	0	
2.7313	-1.95264	1.01549	0	
2.7320	-0.124372	-0.514895	0	
2.7327	0.186558	1.93086	0	
2.7333	1.10691	4.97732	0	
2.7340	0.795979	3.14658	0	
2.7347	-0.124372	-0.514895	0	
2.7353	1.10691	0.100119	0	
2.7360	1.10691	0.400474	0	
2.7367	-0.733793	0.70083	0	
2.7373	0.186558	3.14658	0	
2.7380	2.62424	4.67697	0	
2.7387	1.71633	2.23121	0	
2.7393	0.186558	1.93086	0	
2.7400	1.4054	3.14658	0	
2.7407	3.84309	3.7616	0	
2.7413	3.84309	5.59233	0	
2.7420	2.01482	7.72343	0	
2.7427	-0.733793	8.02378	0	
2.7433	-1.34321	10.1692	0	
2.7440	0.186558	12.9153	0	
2.7447	0.48505	10.7699	0	
2.7453	-1.95264	8.6388	0	
2.7460	-2.56206	10.4695	0	
2.7467	0.186558	11.3849	0	
2.7473	2.32575	9.85452	0	
2.7480	2.01482	8.33844	0	
2.7487	1.71633	5.27768	0	
2.7493	1.4054	3.14658	0	
2.7500	0.795979	2.84623	0	
2.7507	0.186558	1.31584	0	
2.7513	0.48505	1.31584	0	
2.7520	0.186558	3.7616	0	
2.7527	-1.64171	3.44694	0	
2.7533	-3.46997	1.93086	0	
2.7540	-2.86055	1.31584	0	
2.7547	-1.34321	-1.43026	0	
2.7553	0.48505	-3.261	0	
2.7560	1.4054	-0.815251	0	
2.7567	0.48505	-1.43026	0	
2.7573	-1.03229	-4.79139	0	
2.7580	-0.733793	-2.64599	0	
2.7587	0.795979	1.31584	0	
2.7593	1.4054	1.6162	0	
2.7600	2.32575	2.53157	0	
2.7607	2.93517	3.14658	0	
2.7613	1.4054	-0.21454	0	
2.7620	-0.124372	-1.43026	0	
2.7627	-1.03229	2.23121	0	
2.7633	-1.64171	4.67697	0	
2.7640	-1.03229	2.53157	0	
2.7647	-0.422864	1.6162	0	
2.7653	-0.124372	3.14658	0	
2.7660	0.186558	4.06195	0	
2.7667	1.10691	2.53157	0	
2.7673	2.01482	1.6162	0	
2.7680	1.71633	-0.514895	0	
2.7687	-0.733793	-3.87602	0	
2.7693	-1.64171	-5.09174	0	
2.7700	0.186558	-4.79139	0	
2.7707	0.186558	-4.17637	0	
2.7713	-2.25113	-0.514895	0	
2.7720	-3.46997	0.100119	0	
2.7727	-4.09183	-3.87602	0	
2.7733	-3.7809	-4.17637	0	
2.7740	-1.34321	-2.34563	0	
2.7747	-0.124372	-3.87602	0	
2.7753	-1.64171	-3.87602	0	
2.7760	-2.56206	-3.261	0	
2.7767	-1.64171	-8.75322	0	
2.7773	-0.124372	-11.4993	0	
2.7780	1.71633	-6.30747	0	
2.7787	2.01482	-3.56136	0	
2.7793	0.48505	-5.3921	0	
2.7800	0.48505	-3.56136	0	
2.7807	1.4054	-2.34563	0	
2.7813	-0.124372	-4.17637	0	
2.7820	-2.56206	-1.73062	0	
2.7827	-1.03229	0.400474	0	
2.7833	0.48505	-1.43026	0	
2.7840	-1.95264	0.100119	0	
2.7847	-4.70125	1.31584	0	
2.7853	-3.17148	-2.34563	0	
2.7860	-1.64171	-1.73062	0	
2.7867	-3.17148	2.84623	0	
2.7873	-3.7809	0.400474	0	
2.7880	-3.46997	-3.261	0	
2.7887	-4.99974	-1.43026	0	
2.7893	-4.99974	-0.514895	0	
2.7900	-2.56206	-2.34563	0	
2.7907	-3.17148	-0.815251	0	
2.7913	-4.99974	0.100119	0	
2.7920	-1.95264	-3.261	0	
2.7927	0.186558	-4.47673	0	
2.7933	-1.34321	-2.64599	0	
2.7940	-0.733793	-3.261	0	
2.7947	0.48505	-3.261	0	
2.7953	-1.64171	0.70083	0	
2.7960	-2.56206	2.84623	0	
2.7967	-2.56206	0.400474	0	
2.7973	-2.56206	-0.514895	0	
2.7980	-0.422864	-0.514895	0	
2.7987	0.186558	-1.43026	0	
2.7993	-2.56206	1.01549	0	
2.8000	-1.03229	3.7616	0	
2.8007	2.01482	4.06195	0	
2.8013	1.10691	6.80806	0	
2.8020	-0.422864	8.6388	0	
2.8027	-0.733793	3.44694	0	
2.8033	-0.733793	1.01549	0	
2.8040	1.4054	4.06195	0	
2.8047	1.10691	4.06195	0	
2.8053	-1.64171	2.84623	0	
2.8060	0.48505	4.06195	0	
2.8067	3.84309	2.84623	0	
2.8073	1.4054	0.400474	0	
2.8080	-0.422864	1.01549	0	
2.8087	0.795979	0.400474	0	
2.8093	0.48505	-0.815251	0	
2.8100	0.186558	1.31584	0	
2.8107	0.48505	2.53157	0	
2.8113	-0.733793	0.70083	0	
2.8120	-0.733793	1.01549	0	
2.8127	0.48505	3.44694	0	
2.8133	0.186558	3.14658	0	
2.8140	-0.422864	0.70083	0	
2.8147	-1.03229	-0.815251	0	
2.8153	-2.25113	-0.21454	0	
2.8160	-0.124372	2.23121	0	
2.8167	3.54459	3.7616	0	
2.8173	2.32575	4.06195	0	
2.8180	0.186558	4.36231	0	
2.8187	2.01482	4.97732	0	
2.8193	3.54459	4.97732	0	
2.8200	2.93517	4.06195	0	
2.8207	2.01482	3.14658	0	
2.8213	1.71633	3.14658	0	
2.8220	2.32575	3.14658	0	
2.8227	2.01482	0.400474	0	
2.8233	0.48505	-3.261	0	
2.8240	2.01482	-6.00711	0	
2.8247	3.54459	-6.92248	0	
2.8253	-0.124372	-7.22284	0	
2.8260	-2.56206	-6.92248	0	
2.8267	-0.733793	-6.92248	0	
2.8273	1.10691	-8.45286	0	
2.8280	1.4054	-7.53749	0	
2.8287	2.32575	-4.47673	0	
2.8293	2.01482	-4.79139	0	
2.8300	1.4054	-5.09174	0	
2.8307	0.795979	-1.73062	0	
2.8313	0.186558	-0.514895	0	
2.8320	1.10691	-2.34563	0	
2.8327	2.01482	-1.43026	0	
2.8333	-0.124372	-0.815251	0	
2.8340	-1.03229	-2.96065	0	
2.8347	1.10691	-1.43026	0	
2.8353	2.93517	1.01549	0	
2.8360	1.10691	-1.43026	0	
2.8367	-1.95264	-3.261	0	
2.8373	-1.03229	-3.261	0	
2.8380	3.84309	-4.17637	0	
2.8387	5.07437	-2.96065	0	
2.8393	3.84309	-0.514895	0	
2.8400	5.68379	-2.04528	0	
2.8407	5.37286	-2.34563	0	
2.8413	0.795979	0.70083	0	
2.8420	0.186558	3.14658	0	
2.8427	2.01482	2.23121	0	
2.8433	0.186558	0.400474	0	
2.8440	-1.95264	-1.73062	0	
2.8447	-1.34321	-3.87602	0	
2.8453	-0.733793	-4.47673	0	
2.8460	0.186558	-1.73062	0	
2.8467	0.186558	1.01549	0	
2.8473	-1.95264	0.100119	0	
2.8480	-3.46997	0.100119	0	
2.8487	-3.46997	4.06195	0	
2.8493	-3.17148	5.27768	0	
2.8500	-2.25113	3.14658	0	
2.8507	-2.56206	4.06195	0	
2.8513	-4.09183	6.19305	0	
2.8520	-2.56206	4.67697	0	
2.8527	-0.733793	1.6162	0	
2.8533	-2.86055	2.53157	0	
2.8540	-4.99974	5.89269	0	
2.8547	-4.39032	4.06195	0	
2.8553	-4.99974	-0.21454	0	
2.8560	-4.99974	1.31584	0	
2.8567	-2.56206	3.14658	0	
2.8573	-1.64171	-0.815251	0	
2.8580	-1.34321	-2.34563	0	
2.8587	0.186558	0.400474	0	
2.8593	-0.733793	-1.73062	0	
2.8600	-2.56206	-4.47673	0	
2.8607	-1.64171	-2.04528	0	
2.8613	-0.733793	-0.815251	0	
2.8620	-1.03229	-2.34563	0	
2.8627	0.186558	-2.34563	0	
2.8633	1.10691	-2.34563	0	
2.8640	0.186558	-1.43026	0	
2.8647	-1.34321	-0.21454	0	
2.8653	-2.25113	-1.73062	0	
2.8660	-1.03229	-4.17637	0	
2.8667	1.4054	-3.56136	0	
2.8673	-0.422864	-2.96065	0	
2.8680	-4.99974	-3.261	0	
2.8687	-3.46997	-3.261	0	
2.8693	0.186558	-5.3921	0	
2.8700	0.186558	-8.75322	0	
2.8707	-1.64171	-9.96894	0	
2.8713	-1.34321	-8.13821	0	
2.8720	-3.7809	-5.3921	0	
2.8727	-8.05929	-4.17637	0	
2.8733	-6.82801	-5.09174	0	
2.8740	-3.46997	-6.30747	0	
2.8747	-4.70125	-6.92248	0	
2.8753	-6.21859	-7.83785	0	
2.8760	-4.39032	-7.22284	0	
2.8767	-2.25113	-5.3921	0	
2.8773	-1.34321	-3.56136	0	
2.8780	-0.733793	0.100119	0	
2.8787	-2.56206	4.97732	0	
2.8793	-4.09183	5.89269	0	
2.8800	-2.56206	3.44694	0	
2.8807	-0.733793	3.14658	0	
2.8813	0.48505	2.53157	0	
2.8820	1.4054	1.6162	0	
2.8827	-0.124372	2.53157	0	
2.8833	-2.56206	1.31584	0	
2.8840	-1.34321	-1.43026	0	
2.8847	0.186558	0.400474	0	
2.8853	0.48505	4.67697	0	
2.8860	0.48505	1.93086	0	
2.8867	1.10691	-2.34563	0	
2.8873	0.795979	-0.21454	0	
2.8880	-0.422864	1.31584	0	
2.8887	0.186558	-2.34563	0	
2.8893	2.32575	-4.17637	0	
2.8900	1.10691	-3.261	0	
2.8907	-2.56206	-4.17637	0	
2.8913	-1.34321	-4.17637	0	
2.8920	0.48505	-2.96065	0	
2.8927	-1.64171	-4.79139	0	
2.8933	-2.25113	-5.09174	0	
2.8940	1.10691	-1.73062	0	
2.8947	2.93517	-0.815251	0	
2.8953	1.4054	-1.43026	0	
2.8960	0.795979	1.01549	0	
2.8967	2.01482	1.01549	0	
2.8973	2.32575	-1.12991	0	
2.8980	1.10691	1.31584	0	
2.8987	0.186558	6.80806	0	
2.8993	1.4054	7.42307	0	
2.9000	1.10691	6.19305	0	
2.9007	-0.124372	7.72343	0	
2.9013	1.4054	8.6388	0	
2.9020	3.54459	7.42307	0	
2.9027	2.93517	7.42307	0	
2.9033	1.10691	8.93915	0	
2.9040	-1.03229	8.02378	0	
2.9047	-1.64171	5.89269	0	
2.9053	-0.733793	6.80806	0	
2.9060	-1.64171	7.72343	0	
2.9067	-2.25113	5.89269	0	
2.9073	0.186558	5.89269	0	
2.9080	-0.422864	6.5077	0	
2.9087	-3.17148	4.97732	0	
2.9093	0.48505	4.97732	0	
2.9100	4.15402	4.97732	0	
2.9107	-0.124372	1.31584	0	
2.9113	-1.64171	-1.73062	0	
2.9120	2.62424	-2.34563	0	
2.9127	2.32575	-3.56136	0	
2.9133	0.48505	-2.96065	0	
2.9140	2.32575	1.01549	0	
2.9147	3.23367	1.31584	0	
2.9153	4.15402	-2.04528	0	
2.9160	5.37286	-1.12991	0	
2.9167	2.93517	3.14658	0	
2.9173	1.71633	4.97732	0	
2.9180	3.84309	5.59233	0	
2.9187	3.23367	7.10841	0	
2.9193	2.01482	6.80806	0	
2.9200	3.84309	3.14658	0	
2.9207	2.01482	0.400474	0	
2.9213	-0.124372	0.400474	0	
2.9220	2.93517	4.67697	0	
2.9227	5.37286	6.5077	0	
2.9233	2.93517	2.84623	0	
2.9240	-0.733793	-0.21454	0	
2.9247	-1.64171	1.31584	0	
2.9253	0.186558	1.93086	0	
2.9260	2.01482	-0.514895	0	
2.9267	0.795979	-3.261	0	
2.9273	-1.34321	-6.00711	0	
2.9280	-1.64171	-6.30747	0	
2.9287	0.186558	-6.62213	0	
2.9293	0.795979	-10.2836	0	
2.9300	-3.17148	-12.4147	0	
2.9307	-4.70125	-9.66859	0	
2.9313	-1.64171	-8.45286	0	
2.9320	-3.17148	-8.13821	0	
2.9327	-6.52952	-6.00711	0	
2.9333	-3.46997	-6.92248	0	
2.9340	-1.03229	-8.13821	0	
2.9347	-5.31067	-4.47673	0	
2.9353	-4.99974	-2.04528	0	
2.9360	-0.733793	-3.56136	0	
2.9367	-1.34321	-5.09174	0	
