0.0000	6.27945	2.1492	1
0.0007	5.36728	6.41294	0	
0.0013	3.83377	5.82364	0	
0.0020	3.52971	-0.589297	0	
0.0027	3.52971	-2.11454	0	
0.0033	2.00942	0.311981	0	
0.0040	0.475916	1.52524	0	
0.0047	0.475916	6.10096	0	
0.0053	0.171859	11.6126	0	
0.0060	0.475916	8.87412	0	
0.0067	1.70537	2.77316	0	
0.0073	1.08403	2.1492	0	
0.0080	2.00942	3.05048	0	
0.0087	4.74594	2.1492	0	
0.0093	3.83377	2.1492	0	
0.0100	0.171859	2.46118	0	
0.0107	-1.04437	2.1492	0	
0.0113	-0.436257	1.24792	0	
0.0120	1.08403	-0.277316	0	
0.0127	0.171859	0	0	
0.0133	-2.88194	0.311981	0	
0.0140	-2.57788	-2.7385	0	
0.0147	-0.740314	-4.26374	0	
0.0153	-3.49005	0	0	
0.0160	-2.27382	0.935943	0	
0.0167	2.00942	-1.52524	0	
0.0173	-1.65249	-0.901278	0	
0.0180	-5.01034	-0.589297	0	
0.0187	-0.740314	-2.42652	0	
0.0193	1.08403	-1.21326	0	
0.0200	-1.95655	0.311981	0	
0.0207	-2.27382	0	0	
0.0213	-1.65249	0.311981	0	
0.0220	-1.34843	-0.589297	0	
0.0227	-0.740314	-2.7385	0	
0.0233	-1.34843	-2.42652	0	
0.0240	-2.57788	-2.11454	0	
0.0247	-3.49005	-2.42652	0	
0.0253	-4.40223	-2.42652	0	
0.0260	-2.27382	-3.05048	0	
0.0267	-0.740314	-3.63978	0	
0.0273	-2.57788	-3.36246	0	
0.0280	-4.40223	-3.95176	0	
0.0287	-4.70628	-4.26374	0	
0.0293	-2.57788	-2.42652	0	
0.0300	1.08403	-1.52524	0	
0.0307	0.171859	-1.83722	0	
0.0313	-4.40223	-3.36246	0	
0.0320	-4.40223	-4.8877	0	
0.0327	-2.57788	-4.26374	0	
0.0333	-1.65249	-2.42652	0	
0.0340	-0.436257	-1.52524	0	
0.0347	-1.34843	-0.589297	0	
0.0353	-3.79411	0.623962	0	
0.0360	-4.40223	0.623962	0	
0.0367	-4.40223	0.623962	0	
0.0373	-4.70628	-1.21326	0	
0.0380	-2.57788	-3.63978	0	
0.0387	0.171859	-3.05048	0	
0.0393	1.08403	-2.42652	0	
0.0400	0.779974	-3.36246	0	
0.0407	1.38809	-0.589297	0	
0.0413	2.9216	3.05048	0	
0.0420	0.779974	3.05048	0	
0.0427	-1.34843	3.98642	0	
0.0433	2.00942	6.41294	0	
0.0440	4.74594	5.51166	0	
0.0447	4.74594	2.46118	0	
0.0453	5.97539	1.83722	0	
0.0460	4.74594	3.67444	0	
0.0467	1.08403	5.19968	0	
0.0473	1.08403	3.05048	0	
0.0480	2.61754	1.52524	0	
0.0487	1.38809	4.2984	0	
0.0493	1.70537	4.8877	0	
0.0500	2.9216	2.77316	0	
0.0507	1.38809	2.1492	0	
0.0513	1.08403	1.24792	0	
0.0520	2.61754	-0.901278	0	
0.0527	3.83377	-2.42652	0	
0.0533	4.74594	-4.26374	0	
0.0540	4.13783	-4.8877	0	
0.0547	1.08403	-1.52524	0	
0.0553	-1.04437	0.311981	0	
0.0560	-0.436257	-2.11454	0	
0.0567	-0.132199	-3.95176	0	
0.0573	-1.34843	-4.57572	0	
0.0580	-0.132199	-5.78898	0	
0.0587	3.83377	-5.16502	0	
0.0593	5.05	-4.26374	0	
0.0600	2.9216	-5.16502	0	
0.0607	1.08403	-5.477	0	
0.0613	0.171859	-3.63978	0	
0.0620	-0.436257	-0.589297	0	
0.0627	-1.34843	0.311981	0	
0.0633	-2.27382	-0.589297	0	
0.0640	-1.65249	-0.589297	0	
0.0647	-1.65249	-2.42652	0	
0.0653	-1.34843	-7.00224	0	
0.0660	-0.132199	-5.78898	0	
0.0667	-0.740314	1.24792	0	
0.0673	-2.57788	2.1492	0	
0.0680	-1.34843	-1.21326	0	
0.0687	-0.740314	0.311981	0	
0.0693	-4.40223	2.77316	0	
0.0700	-4.70628	0.935943	0	
0.0707	-0.740314	-1.83722	0	
0.0713	1.08403	-2.42652	0	
0.0720	-1.34843	-1.52524	0	
0.0727	-2.57788	-0.277316	0	
0.0733	-2.27382	-0.589297	0	
0.0740	0.475916	-0.589297	0	
0.0747	3.83377	1.24792	0	
0.0753	4.74594	0.311981	0	
0.0760	4.74594	-2.7385	0	
0.0767	3.52971	-0.589297	0	
0.0773	-0.132199	3.67444	0	
0.0780	-1.65249	1.83722	0	
0.0787	1.70537	-0.589297	0	
0.0793	2.00942	2.46118	0	
0.0800	0.171859	3.98642	0	
0.0807	2.9216	1.52524	0	
0.0813	4.74594	0	0	
0.0820	0.171859	-0.277316	0	
0.0827	-0.132199	1.24792	0	
0.0833	3.22566	3.36246	0	
0.0840	1.08403	3.98642	0	
0.0847	-1.34843	4.57572	0	
0.0853	-0.436257	6.72492	0	
0.0860	-1.65249	8.56214	0	
0.0867	-2.57788	9.46342	0	
0.0873	0.171859	10.9887	0	
0.0880	1.08403	10.3994	0	
0.0887	0.171859	8.56214	0	
0.0893	-0.436257	7.0369	0	
0.0900	0.171859	4.8877	0	
0.0907	1.70537	2.77316	0	
0.0913	2.00942	1.24792	0	
0.0920	0.779974	-1.21326	0	
0.0927	0.475916	-2.7385	0	
0.0933	1.70537	-3.05048	0	
0.0940	1.38809	-2.7385	0	
0.0947	2.00942	-2.42652	0	
0.0953	2.31348	-3.36246	0	
0.0960	0.171859	-5.477	0	
0.0967	-1.04437	-6.10096	0	
0.0973	0.475916	-7.00224	0	
0.0980	0.171859	-9.15144	0	
0.0987	-0.740314	-8.2155	0	
0.0993	0.475916	-5.16502	0	
0.1000	2.00942	-3.95176	0	
0.1007	1.70537	-3.95176	0	
0.1013	2.00942	-3.95176	0	
0.1020	2.00942	-2.42652	0	
0.1027	0.171859	0.311981	0	
0.1033	-3.49005	-0.277316	0	
0.1040	-4.70628	-1.83722	0	
0.1047	-5.3144	-0.277316	0	
0.1053	-4.70628	-0.901278	0	
0.1060	-1.34843	-4.57572	0	
0.1067	0.779974	-2.42652	0	
0.1073	-1.65249	2.1492	0	
0.1080	-3.186	1.52524	0	
0.1087	-1.04437	0.623962	0	
0.1093	-0.132199	2.1492	0	
0.1100	0.171859	0.311981	0	
0.1107	1.08403	-0.277316	0	
0.1113	-0.436257	1.24792	0	
0.1120	-1.95655	-1.52524	0	
0.1127	-1.65249	-5.78898	0	
0.1133	-1.34843	-3.36246	0	
0.1140	-0.436257	-0.901278	0	
0.1147	2.00942	-2.42652	0	
0.1153	2.9216	-0.589297	0	
0.1160	2.61754	2.1492	0	
0.1167	2.31348	-0.277316	0	
0.1173	2.00942	-2.11454	0	
0.1180	2.00942	-0.589297	0	
0.1187	2.00942	-0.901278	0	
0.1193	0.171859	-1.52524	0	
0.1200	-1.04437	-0.277316	0	
0.1207	-0.436257	-1.21326	0	
0.1213	1.08403	-3.05048	0	
0.1220	2.61754	-1.21326	0	
0.1227	2.00942	0.623962	0	
0.1233	-0.132199	0.935943	0	
0.1240	-0.740314	3.67444	0	
0.1247	0.171859	7.0369	0	
0.1253	-0.740314	7.34888	0	
0.1260	-2.57788	5.82364	0	
0.1267	-2.57788	4.8877	0	
0.1273	-2.57788	4.8877	0	
0.1280	-3.49005	3.98642	0	
0.1287	-2.88194	1.83722	0	
0.1293	0.475916	1.24792	0	
0.1300	1.08403	3.98642	0	
0.1307	-1.34843	3.98642	0	
0.1313	-0.436257	-0.277316	0	
0.1320	3.52971	-3.36246	0	
0.1327	4.44189	-3.63978	0	
0.1333	2.9216	-2.7385	0	
0.1340	2.9216	-2.7385	0	
0.1347	2.9216	-4.26374	0	
0.1353	3.83377	-3.63978	0	
0.1360	7.49568	-1.52524	0	
0.1367	11.7657	-3.05048	0	
0.1373	11.1576	-4.26374	0	
0.1380	7.79974	-2.11454	0	
0.1387	4.74594	-0.589297	0	
0.1393	2.31348	-0.901278	0	
0.1400	1.08403	1.52524	0	
0.1407	2.00942	3.05048	0	
0.1413	2.00942	1.83722	0	
0.1420	2.00942	3.05048	0	
0.1427	3.22566	5.82364	0	
0.1433	2.9216	4.2984	0	
0.1440	0.171859	0.623962	0	
0.1447	2.00942	-1.52524	0	
0.1453	4.74594	-1.52524	0	
0.1460	2.61754	-1.21326	0	
0.1467	2.00942	-0.901278	0	
0.1473	3.52971	-1.52524	0	
0.1480	0.171859	-2.42652	0	
0.1487	-2.57788	-3.36246	0	
0.1493	0.475916	-4.26374	0	
0.1500	1.08403	-3.95176	0	
0.1507	-1.95655	-1.83722	0	
0.1513	-3.49005	0.311981	0	
0.1520	-4.70628	0.311981	0	
0.1527	-6.23979	-1.52524	0	
0.1533	-6.23979	-0.589297	0	
0.1540	-5.3144	1.83722	0	
0.1547	-4.40223	2.1492	0	
0.1553	-4.40223	3.05048	0	
0.1560	-5.63168	3.67444	0	
0.1567	-6.23979	-0.277316	0	
0.1573	-6.23979	-2.42652	0	
0.1580	-5.3144	0.311981	0	
0.1587	-0.740314	0	0	
0.1593	1.08403	-2.11454	0	
0.1600	-2.27382	-1.83722	0	
0.1607	-2.57788	-3.36246	0	
0.1613	-1.04437	-4.26374	0	
0.1620	-1.65249	-1.52524	0	
0.1627	-0.740314	-1.52524	0	
0.1633	2.00942	-3.05048	0	
0.1640	2.00942	0.623962	0	
0.1647	2.9216	2.46118	0	
0.1653	5.67134	-0.589297	0	
0.1660	5.05	-0.589297	0	
0.1667	2.9216	0.311981	0	
0.1673	2.9216	0.311981	0	
0.1680	1.70537	2.46118	0	
0.1687	0.171859	3.05048	0	
0.1693	1.38809	1.52524	0	
0.1700	2.31348	3.05048	0	
0.1707	1.08403	3.05048	0	
0.1713	1.08403	-1.83722	0	
0.1720	2.61754	-3.63978	0	
0.1727	1.38809	-2.42652	0	
0.1733	-2.27382	-2.42652	0	
0.1740	-1.65249	-1.52524	0	
0.1747	2.00942	-1.52524	0	
0.1753	2.00942	-2.11454	0	
0.1760	1.08403	-0.277316	0	
0.1767	3.22566	0.311981	0	
0.1773	4.13783	-2.42652	0	
0.1780	2.9216	-3.95176	0	
0.1787	3.22566	-4.8877	0	
0.1793	1.70537	-5.16502	0	
0.1800	-0.740314	-2.42652	0	
0.1807	-0.132199	-0.901278	0	
0.1813	0.171859	-3.05048	0	
0.1820	-3.49005	-2.42652	0	
0.1827	-4.70628	-0.901278	0	
0.1833	-2.27382	-1.52524	0	
0.1840	-1.65249	-1.21326	0	
0.1847	-2.88194	-1.83722	0	
0.1853	-2.57788	-4.8877	0	
0.1860	-1.65249	-4.26374	0	
0.1867	-2.88194	-2.42652	0	
0.1873	-3.186	-3.63978	0	
0.1880	-0.740314	-3.95176	0	
0.1887	-0.132199	-2.7385	0	
0.1893	-2.27382	-4.8877	0	
0.1900	-3.49005	-6.10096	0	
0.1907	-4.40223	-3.95176	0	
0.1913	-3.79411	-2.42652	0	
0.1920	-2.57788	-1.83722	0	
0.1927	-3.49005	-1.83722	0	
0.1933	-4.40223	-3.36246	0	
0.1940	-2.27382	-5.16502	0	
0.1947	0.171859	-6.10096	0	
0.1953	-0.132199	-6.10096	0	
0.1960	-0.132199	-4.57572	0	
0.1967	2.31348	-2.7385	0	
0.1973	4.13783	-5.16502	0	
0.1980	2.9216	-7.6262	0	
0.1987	1.70537	-3.63978	0	
0.1993	2.00942	-0.589297	0	
0.2000	2.00942	-3.63978	0	
0.2007	0.475916	-3.36246	0	
0.2013	1.08403	3.05048	0	
0.2020	2.9216	5.51166	0	
0.2027	2.9216	4.8877	0	
0.2033	1.38809	5.82364	0	
0.2040	0.171859	6.72492	0	
0.2047	0.779974	7.6262	0	
0.2053	4.13783	7.93818	0	
0.2060	4.13783	4.8877	0	
0.2067	-0.436257	3.98642	0	
0.2073	-0.436257	7.6262	0	
0.2080	2.00942	7.6262	0	
0.2087	0.171859	3.98642	0	
0.2093	-1.95655	3.67444	0	
0.2100	-1.04437	3.98642	0	
0.2107	-0.740314	1.24792	0	
0.2113	-1.34843	0.311981	0	
0.2120	-0.740314	2.1492	0	
0.2127	-1.34843	0.311981	0	
0.2133	-1.65249	-3.05048	0	
0.2140	-2.27382	-2.7385	0	
0.2147	-3.49005	-0.277316	0	
0.2153	-1.65249	0.623962	0	
0.2160	0.171859	0	0	
0.2167	-1.65249	-0.277316	0	
0.2173	-2.57788	-0.277316	0	
0.2180	-2.88194	-0.589297	0	
0.2187	-5.3144	1.24792	0	
0.2193	-4.40223	3.05048	0	
0.2200	-1.04437	1.24792	0	
0.2207	-3.49005	0.311981	0	
0.2213	-5.3144	3.67444	0	
0.2220	-2.88194	4.8877	0	
0.2227	-3.49005	2.1492	0	
0.2233	-4.40223	1.24792	0	
0.2240	-0.740314	2.1492	0	
0.2247	1.38809	2.46118	0	
0.2253	1.08403	3.67444	0	
0.2260	2.00942	5.51166	0	
0.2267	2.00942	3.98642	0	
0.2273	1.70537	1.24792	0	
0.2280	2.00942	0.623962	0	
0.2287	-0.132199	0.311981	0	
0.2293	-3.49005	-3.05048	0	
0.2300	-2.88194	-7.6262	0	
0.2307	-2.57788	-8.83946	0	
0.2313	-2.57788	-8.83946	0	
0.2320	-0.132199	-7.93818	0	
0.2327	-1.34843	-5.16502	0	
0.2333	-6.23979	-2.42652	0	
0.2340	-7.15197	-2.42652	0	
0.2347	-6.23979	-2.42652	0	
0.2353	-8.06414	-3.36246	0	
0.2360	-7.15197	-6.10096	0	
0.2367	-5.01034	-6.41294	0	
0.2373	-5.63168	-4.26374	0	
0.2380	-6.23979	-3.36246	0	
0.2387	-5.63168	-2.42652	0	
0.2393	-6.23979	0	0	
0.2400	-6.23979	0	0	
0.2407	-6.84791	-0.901278	0	
0.2413	-8.06414	0	0	
0.2420	-5.3144	1.52524	0	
0.2427	-2.88194	2.46118	0	
0.2433	-5.3144	2.1492	0	
0.2440	-5.93574	0.935943	0	
0.2447	-2.88194	1.24792	0	
0.2453	-3.49005	0.623962	0	
0.2460	-6.54385	-2.11454	0	
0.2467	-7.15197	0	0	
0.2473	-6.23979	3.67444	0	
0.2480	-5.3144	2.1492	0	
0.2487	-4.40223	1.52524	0	
0.2493	-2.88194	4.8877	0	
0.2500	-1.34843	2.1492	0	
0.2507	-1.65249	-5.16502	0	
0.2513	-4.40223	-7.6262	0	
0.2520	-5.01034	-7.93818	0	
0.2527	-3.49005	-10.6767	0	
0.2533	-2.57788	-11.266	0	
0.2540	-2.88194	-8.52748	0	
0.2547	-5.01034	-5.16502	0	
0.2553	-7.45602	-3.63978	0	
0.2560	-8.67225	-4.57572	0	
0.2567	-6.84791	-5.16502	0	
0.2573	-5.01034	-5.16502	0	
0.2580	-5.93574	-6.41294	0	
0.2587	-6.23979	-6.10096	0	
0.2593	-5.01034	-3.05048	0	
0.2600	-3.49005	-2.7385	0	
0.2607	-2.27382	-4.26374	0	
0.2613	-1.04437	-3.36246	0	
0.2620	-1.65249	-3.95176	0	
0.2627	-1.65249	-4.8877	0	
0.2633	-0.132199	-1.52524	0	
0.2640	0.475916	2.1492	0	
0.2647	0.779974	2.46118	0	
0.2653	1.08403	3.98642	0	
0.2660	0.171859	6.10096	0	
0.2667	1.70537	3.98642	0	
0.2673	3.83377	1.24792	0	
0.2680	1.08403	1.83722	0	
0.2687	-2.27382	1.52524	0	
0.2693	-0.740314	-1.83722	0	
0.2700	0.475916	-3.63978	0	
0.2707	0.171859	-1.52524	0	
0.2713	1.08403	-0.901278	0	
0.2720	0.171859	-3.05048	0	
0.2727	-2.27382	-5.16502	0	
0.2733	-0.436257	-4.57572	0	
0.2740	3.22566	-1.21326	0	
0.2747	2.31348	1.24792	0	
0.2753	-1.04437	0.623962	0	
0.2760	-1.65249	-0.277316	0	
0.2767	1.08403	-0.277316	0	
0.2773	2.61754	-1.52524	0	
0.2780	1.08403	-0.901278	0	
0.2787	-1.34843	1.24792	0	
0.2793	-0.740314	0	0	
0.2800	0.475916	-1.21326	0	
0.2807	1.70537	0.935943	0	
0.2813	2.9216	2.46118	0	
0.2820	4.74594	4.2984	0	
0.2827	6.27945	5.82364	0	
0.2833	6.27945	3.98642	0	
0.2840	5.67134	3.05048	0	
0.2847	6.88757	6.41294	0	
0.2853	7.49568	7.0369	0	
0.2860	6.58351	4.2984	0	
0.2867	7.19163	0.935943	0	
0.2873	10.2454	-0.901278	0	
0.2880	10.5495	-1.21326	0	
0.2887	9.33325	-1.21326	0	
0.2893	9.33325	-0.589297	0	
0.2900	9.02919	2.46118	0	
0.2907	5.97539	3.98642	0	
0.2913	4.44189	0.311981	0	
0.2920	5.36728	-0.901278	0	
0.2927	4.74594	1.24792	0	
0.2933	3.22566	-0.277316	0	
0.2940	4.74594	-3.36246	0	
0.2947	6.58351	-1.52524	0	
0.2953	5.67134	0.623962	0	
0.2960	6.58351	-0.589297	0	
0.2967	8.71191	-0.589297	0	
0.2973	7.49568	2.46118	0	
0.2980	5.36728	3.05048	0	
0.2987	4.74594	3.05048	0	
0.2993	3.52971	4.57572	0	
0.3000	1.08403	3.67444	0	
0.3007	1.70537	1.24792	0	
0.3013	3.22566	0.311981	0	
0.3020	2.00942	0.623962	0	
0.3027	-0.132199	2.1492	0	
0.3033	-1.04437	3.36246	0	
0.3040	-1.04437	2.1492	0	
0.3047	-1.65249	2.46118	0	
0.3053	-3.79411	4.2984	0	
0.3060	-5.3144	2.77316	0	
0.3067	-4.09817	1.52524	0	
0.3073	-2.57788	3.98642	0	
0.3080	-4.09817	3.05048	0	
0.3087	-5.3144	0.935943	0	
0.3093	-5.3144	2.1492	0	
0.3100	-6.84791	0.623962	0	
0.3107	-7.15197	-0.277316	0	
0.3113	-4.70628	3.05048	0	
0.3120	-5.01034	3.05048	0	
0.3127	-7.15197	0.935943	0	
0.3133	-7.15197	3.05048	0	
0.3140	-6.54385	3.36246	0	
0.3147	-6.54385	1.24792	0	
0.3153	-5.3144	3.05048	0	
0.3160	-5.01034	3.05048	0	
0.3167	-4.40223	0.935943	0	
0.3173	-3.186	3.05048	0	
0.3180	-5.01034	3.98642	0	
0.3187	-7.15197	1.24792	0	
0.3193	-4.40223	1.52524	0	
0.3200	-2.27382	2.46118	0	
0.3207	-4.09817	-0.589297	0	
0.3213	-5.01034	-2.42652	0	
0.3220	-4.40223	-1.21326	0	
0.3227	-5.93574	-1.83722	0	
0.3233	-6.54385	-2.7385	0	
0.3240	-5.3144	-1.21326	0	
0.3247	-6.23979	-1.52524	0	
0.3253	-8.06414	-4.26374	0	
0.3260	-6.54385	-4.26374	0	
0.3267	-5.3144	-1.52524	0	
0.3273	-6.23979	-2.42652	0	
0.3280	-5.3144	-5.16502	0	
0.3287	-3.49005	-3.36246	0	
0.3293	-3.186	0	0	
0.3300	-3.79411	0.623962	0	
0.3307	-4.40223	0	0	
0.3313	-4.40223	0	0	
0.3320	-3.186	0.935943	0	
0.3327	-3.186	1.24792	0	
0.3333	-6.23979	-0.901278	0	
0.3340	-7.15197	-3.05048	0	
0.3347	-3.49005	-2.7385	0	
0.3353	-1.34843	-3.36246	0	
0.3360	-1.95655	-4.57572	0	
0.3367	-2.57788	-5.16502	0	
0.3373	-2.57788	-8.52748	0	
0.3380	-2.88194	-11.8899	0	
0.3387	-1.04437	-10.6767	0	
0.3393	0.475916	-7.00224	0	
0.3400	-1.95655	-4.8877	0	
0.3407	-5.63168	-4.26374	0	
0.3413	-4.09817	-5.16502	0	
0.3420	0.779974	-4.26374	0	
0.3427	1.08403	-0.589297	0	
0.3433	0.779974	-0.901278	0	
0.3440	3.22566	-3.63978	0	
0.3447	3.52971	-1.83722	0	
0.3453	0.171859	1.24792	0	
0.3460	-0.740314	0.935943	0	
0.3467	0.475916	-0.277316	0	
0.3473	1.08403	0.623962	0	
0.3480	3.83377	3.98642	0	
0.3487	6.27945	7.0369	0	
0.3493	4.74594	6.10096	0	
0.3500	4.13783	5.51166	0	
0.3507	4.44189	6.41294	0	
0.3513	2.9216	3.05048	0	
0.3520	2.31348	-0.901278	0	
0.3527	3.83377	0	0	
0.3533	2.9216	0	0	
0.3540	1.08403	-0.901278	0	
0.3547	1.70537	1.83722	0	
0.3553	3.83377	2.77316	0	
0.3560	3.83377	-0.277316	0	
0.3567	2.9216	-1.21326	0	
0.3573	2.00942	-2.7385	0	
0.3580	2.00942	-5.16502	0	
0.3587	1.38809	-3.63978	0	
0.3593	0.475916	-2.11454	0	
0.3600	0.779974	-3.95176	0	
0.3607	1.08403	-2.11454	0	
0.3613	1.70537	0.623962	0	
0.3620	4.74594	-1.21326	0	
0.3627	7.49568	-2.11454	0	
0.3633	7.19163	1.83722	0	
0.3640	6.58351	3.67444	0	
0.3647	6.27945	0	0	
0.3653	5.67134	-3.36246	0	
0.3660	4.74594	-0.901278	0	
0.3667	3.22566	2.1492	0	
0.3673	1.70537	0	0	
0.3680	2.31348	-1.52524	0	
0.3687	3.52971	3.98642	0	
0.3693	2.9216	6.72492	0	
0.3700	3.52971	1.24792	0	
0.3707	5.05	-1.52524	0	
0.3713	2.9216	1.52524	0	
0.3720	-0.740314	0.623962	0	
0.3727	-0.740314	-3.36246	0	
0.3733	2.00942	-2.7385	0	
0.3740	2.61754	-0.589297	0	
0.3747	2.61754	-1.52524	0	
0.3753	3.22566	-3.63978	0	
0.3760	3.83377	-4.26374	0	
0.3767	3.83377	-3.63978	0	
0.3773	4.74594	-2.42652	0	
0.3780	5.67134	-2.42652	0	
0.3787	5.05	-3.36246	0	
0.3793	4.74594	-3.63978	0	
0.3800	5.67134	-3.36246	0	
0.3807	5.67134	-3.05048	0	
0.3813	4.74594	-2.42652	0	
0.3820	5.05	-2.42652	0	
0.3827	3.22566	-1.52524	0	
0.3833	0.171859	0.311981	0	
0.3840	1.08403	1.83722	0	
0.3847	3.83377	1.52524	0	
0.3853	3.52971	0.623962	0	
0.3860	3.83377	-3.36246	0	
0.3867	7.49568	-7.93818	0	
0.3873	7.79974	-8.2155	0	
0.3880	2.9216	-6.10096	0	
0.3887	-0.436257	-5.16502	0	
0.3893	1.08403	-5.78898	0	
0.3900	-0.132199	-5.477	0	
0.3907	-5.01034	-2.42652	0	
0.3913	-5.63168	-0.589297	0	
0.3920	-2.88194	-3.36246	0	
0.3927	-3.49005	-2.7385	0	
0.3933	-3.49005	2.46118	0	
0.3940	-0.132199	3.05048	0	
0.3947	-0.132199	-0.589297	0	
0.3953	-3.186	0	0	
0.3960	-2.27382	1.83722	0	
0.3967	-0.740314	0.623962	0	
0.3973	-2.57788	0.623962	0	
0.3980	-3.79411	0.311981	0	
0.3987	-0.436257	-2.42652	0	
0.3993	2.00942	-2.42652	0	
0.4000	0.475916	-2.11454	0	
0.4007	-0.740314	-3.05048	0	
0.4013	0.171859	-0.589297	0	
0.4020	1.08403	2.1492	0	
0.4027	0.779974	0.311981	0	
0.4033	0.475916	-0.589297	0	
0.4040	-0.132199	2.77316	0	
0.4047	-0.740314	2.1492	0	
0.4053	-1.04437	-0.901278	0	
0.4060	-1.65249	-0.277316	0	
0.4067	-2.88194	1.24792	0	
0.4073	-4.09817	-0.589297	0	
0.4080	-4.09817	-1.52524	0	
0.4087	-2.57788	-0.901278	0	
0.4093	-0.740314	-0.589297	0	
0.4100	-0.436257	-2.11454	0	
0.4107	-1.65249	-4.57572	0	
0.4113	-2.57788	-5.78898	0	
0.4120	-2.88194	-4.26374	0	
0.4127	-2.57788	-2.42652	0	
0.4133	-3.49005	-2.42652	0	
0.4140	-3.79411	-1.52524	0	
0.4147	-2.57788	-0.589297	0	
0.4153	-2.57788	-0.901278	0	
0.4160	-4.40223	-0.901278	0	
0.4167	-3.79411	-0.277316	0	
0.4173	-3.186	0.935943	0	
0.4180	-5.3144	1.52524	0	
0.4187	-5.01034	1.24792	0	
0.4193	-1.95655	1.24792	0	
0.4200	-1.65249	3.05048	0	
0.4207	-3.186	3.98642	0	
0.4213	-2.57788	3.67444	0	
0.4220	-0.740314	3.05048	0	
0.4227	-0.740314	2.46118	0	
0.4233	-1.34843	2.1492	0	
0.4240	0.171859	0.935943	0	
0.4247	2.31348	-2.11454	0	
0.4253	2.00942	-1.52524	0	
0.4260	2.00942	2.77316	0	
0.4267	3.83377	4.8877	0	
0.4273	2.9216	4.2984	0	
0.4280	-0.740314	4.57572	0	
0.4287	-0.132199	4.57572	0	
0.4293	0.779974	6.41294	0	
0.4300	-1.04437	9.46342	0	
0.4307	-0.740314	8.25016	0	
0.4313	2.31348	5.19968	0	
0.4320	3.83377	4.57572	0	
0.4327	2.61754	3.05048	0	
0.4333	1.70537	-0.277316	0	
0.4340	2.31348	-1.52524	0	
0.4347	2.31348	-0.589297	0	
0.4353	2.31348	-0.901278	0	
0.4360	2.9216	-0.589297	0	
0.4367	1.38809	0.623962	0	
0.4373	-0.740314	1.24792	0	
0.4380	1.08403	1.83722	0	
0.4387	2.00942	3.05048	0	
0.4393	-1.65249	0.935943	0	
0.4400	-0.740314	-2.42652	0	
0.4407	2.00942	-1.52524	0	
0.4413	-0.436257	0.623962	0	
0.4420	-0.436257	0.311981	0	
0.4427	5.05	-1.21326	0	
0.4433	4.74594	-0.901278	0	
0.4440	0.171859	-0.277316	0	
0.4447	2.00942	0.311981	0	
0.4453	5.67134	0.935943	0	
0.4460	4.13783	0	0	
0.4467	2.00942	-0.589297	0	
0.4473	2.00942	1.52524	0	
0.4480	2.61754	2.1492	0	
0.4487	2.31348	-0.901278	0	
0.4493	0.171859	-3.05048	0	
0.4500	-2.57788	-4.57572	0	
0.4507	-3.49005	-8.52748	0	
0.4513	-2.57788	-8.2155	0	
0.4520	-1.34843	-2.7385	0	
0.4527	-1.95655	-2.11454	0	
0.4533	-3.79411	-5.16502	0	
0.4540	-5.01034	-4.26374	0	
0.4547	-5.3144	-2.11454	0	
0.4553	-5.3144	-1.83722	0	
0.4560	-5.3144	-0.901278	0	
0.4567	-5.3144	-2.42652	0	
0.4573	-5.63168	-7.00224	0	
0.4580	-4.40223	-7.00224	0	
0.4587	-3.79411	-3.36246	0	
0.4593	-3.79411	-2.7385	0	
0.4600	-4.09817	-2.7385	0	
0.4607	-5.3144	0.935943	0	
0.4613	-3.79411	4.57572	0	
0.4620	0.779974	5.51166	0	
0.4627	1.70537	6.10096	0	
0.4633	-2.27382	6.72492	0	
0.4640	-2.57788	6.41294	0	
0.4647	-0.740314	4.8877	0	
0.4653	-1.04437	3.05048	0	
0.4660	-1.95655	-0.589297	0	
0.4667	-0.740314	-3.36246	0	
0.4673	-0.740314	-1.52524	0	
0.4680	-0.740314	0.311981	0	
0.4687	0.779974	-0.277316	0	
0.4693	1.38809	-0.277316	0	
0.4700	0.171859	0	0	
0.4707	-3.49005	-1.83722	0	
0.4713	-5.01034	-1.83722	0	
0.4720	-1.95655	0.935943	0	
0.4727	-1.04437	2.46118	0	
0.4733	-5.63168	3.05048	0	
0.4740	-8.06414	1.83722	0	
0.4747	-4.70628	-0.901278	0	
0.4753	-2.88194	-1.52524	0	
0.4760	-5.3144	-0.901278	0	
0.4767	-5.93574	-2.42652	0	
0.4773	-2.88194	-3.63978	0	
0.4780	-1.04437	-3.95176	0	
0.4787	-1.65249	-3.95176	0	
0.4793	-1.95655	-1.21326	0	
0.4800	-4.09817	0.311981	0	
0.4807	-6.84791	-3.63978	0	
0.4813	-5.63168	-4.8877	0	
0.4820	-3.49005	-1.21326	0	
0.4827	-4.70628	-1.21326	0	
0.4833	-5.01034	-2.42652	0	
0.4840	-3.186	0	0	
0.4847	-1.34843	-0.277316	0	
0.4853	1.70537	-2.42652	0	
0.4860	2.9216	-0.901278	0	
0.4867	1.08403	1.83722	0	
0.4873	0.779974	2.1492	0	
0.4880	0.475916	0.623962	0	
0.4887	-2.57788	0.311981	0	
0.4893	-3.79411	3.67444	0	
0.4900	-2.88194	7.0369	0	
0.4907	-2.88194	2.46118	0	
0.4913	-1.65249	-5.16502	0	
0.4920	0.779974	-7.6262	0	
0.4927	-1.34843	-6.69026	0	
0.4933	-4.70628	-7.6262	0	
0.4940	-3.79411	-7.93818	0	
0.4947	-0.740314	-7.00224	0	
0.4953	-0.740314	-5.78898	0	
0.4960	-1.65249	-3.05048	0	
0.4967	-0.740314	0	0	
0.4973	-0.740314	0.623962	0	
0.4980	-1.04437	1.52524	0	
0.4987	-1.04437	3.98642	0	
0.4993	-0.740314	4.2984	0	
0.5000	-1.65249	1.24792	0	
0.5007	0.171859	0	0	
0.5013	4.44189	1.24792	0	
0.5020	5.36728	1.52524	0	
0.5027	2.00942	2.1492	0	
0.5033	1.38809	3.98642	0	
0.5040	3.83377	4.57572	0	
0.5047	2.9216	3.98642	0	
0.5053	0.475916	3.67444	0	
0.5060	2.31348	0.623962	0	
0.5067	3.83377	-2.42652	0	
0.5073	0.779974	-1.21326	0	
0.5080	-1.95655	1.24792	0	
0.5087	-2.88194	2.1492	0	
0.5093	-3.186	4.2984	0	
0.5100	-1.65249	5.82364	0	
0.5107	0.475916	2.77316	0	
0.5113	1.70537	-1.52524	0	
0.5120	2.61754	-2.11454	0	
0.5127	3.83377	1.24792	0	
0.5133	3.83377	2.77316	0	
0.5140	2.00942	1.83722	0	
0.5147	1.70537	0.311981	0	
0.5153	2.61754	-0.589297	0	
0.5160	3.22566	-5.16502	0	
0.5167	3.22566	-10.0527	0	
0.5173	2.9216	-8.52748	0	
0.5180	3.83377	-4.26374	0	
0.5187	5.05	-3.36246	0	
0.5193	5.67134	-0.901278	0	
0.5200	3.83377	3.36246	0	
0.5207	2.61754	5.19968	0	
0.5213	2.61754	5.82364	0	
0.5220	1.08403	6.72492	0	
0.5227	-0.740314	5.19968	0	
0.5233	1.08403	3.98642	0	
0.5240	4.13783	3.98642	0	
0.5247	2.9216	3.05048	0	
0.5253	-0.436257	2.1492	0	
0.5260	-0.132199	2.1492	0	
0.5267	1.08403	0	0	
0.5273	1.08403	-3.95176	0	
0.5280	2.31348	-6.10096	0	
0.5287	2.00942	-2.42652	0	
0.5293	0.171859	5.82364	0	
0.5300	-0.436257	9.46342	0	
0.5307	0.171859	5.51166	0	
0.5313	0.171859	1.52524	0	
0.5320	2.9216	0.311981	0	
0.5327	3.83377	0	0	
0.5333	1.08403	0.935943	0	
0.5340	0.779974	0.311981	0	
0.5347	1.08403	-3.36246	0	
0.5353	-1.95655	-5.78898	0	
0.5360	-0.740314	-3.36246	0	
0.5367	3.83377	-0.589297	0	
0.5373	0.475916	0	0	
0.5380	-1.65249	-1.52524	0	
0.5387	3.22566	-3.63978	0	
0.5393	2.31348	-5.16502	0	
0.5400	-4.09817	-4.26374	0	
0.5407	-3.49005	-2.42652	0	
0.5413	-0.132199	-0.589297	0	
0.5420	-1.04437	-1.21326	0	
0.5427	-2.57788	-1.52524	0	
0.5433	-2.88194	-0.901278	0	
0.5440	-1.95655	0.623962	0	
0.5447	-0.436257	0.623962	0	
0.5453	-1.65249	-0.589297	0	
0.5460	-2.88194	-0.901278	0	
0.5467	-1.34843	-0.589297	0	
0.5473	-2.27382	-1.52524	0	
0.5480	-5.3144	-1.21326	0	
0.5487	-6.23979	0.311981	0	
0.5493	-7.76008	-1.52524	0	
0.5500	-8.97631	-3.05048	0	
0.5507	-4.70628	-3.36246	0	
0.5513	-1.65249	-4.26374	0	
0.5520	-3.49005	-3.95176	0	
0.5527	-5.3144	-1.52524	0	
0.5533	-6.23979	-2.42652	0	
0.5540	-7.15197	-3.63978	0	
0.5547	-7.15197	-2.42652	0	
0.5553	-7.15197	-0.901278	0	
0.5560	-6.54385	-1.52524	0	
0.5567	-5.3144	-1.83722	0	
0.5573	-5.3144	-2.11454	0	
0.5580	-4.70628	-1.83722	0	
0.5587	-3.49005	-3.63978	0	
0.5593	-3.49005	-7.00224	0	
0.5600	-5.01034	-6.10096	0	
0.5607	-5.93574	-1.21326	0	
0.5613	-7.15197	0.311981	0	
0.5620	-7.15197	-0.589297	0	
0.5627	-6.23979	-0.277316	0	
0.5633	-6.23979	0.311981	0	
0.5640	-5.3144	0	0	
0.5647	-2.88194	-0.277316	0	
0.5653	-2.57788	1.24792	0	
0.5660	-2.27382	2.46118	0	
0.5667	0.171859	1.24792	0	
0.5673	0.171859	0.311981	0	
0.5680	-1.65249	1.24792	0	
0.5687	-3.186	0.311981	0	
0.5693	-1.95655	-0.277316	0	
0.5700	-0.132199	0	0	
0.5707	-0.436257	-0.589297	0	
0.5713	-0.740314	-0.589297	0	
0.5720	1.08403	-1.83722	0	
0.5727	0.475916	-5.78898	0	
0.5733	-1.34843	-6.69026	0	
0.5740	-0.132199	-3.95176	0	
0.5747	1.08403	-1.83722	0	
0.5753	-0.436257	0.311981	0	
0.5760	-0.436257	0.311981	0	
0.5767	1.08403	-3.36246	0	
0.5773	1.38809	-3.05048	0	
0.5780	1.38809	2.1492	0	
0.5787	2.00942	1.83722	0	
0.5793	2.00942	-3.05048	0	
0.5800	2.61754	-1.52524	0	
0.5807	2.9216	2.1492	0	
0.5813	2.00942	2.1492	0	
0.5820	2.9216	2.1492	0	
0.5827	4.74594	4.8877	0	
0.5833	4.74594	5.51166	0	
0.5840	5.97539	2.1492	0	
0.5847	8.1038	-0.589297	0	
0.5853	5.67134	-1.21326	0	
0.5860	2.61754	1.24792	0	
0.5867	4.44189	5.19968	0	
0.5873	4.13783	7.6262	0	
0.5880	-0.132199	6.41294	0	
0.5887	-1.65249	2.77316	0	
0.5893	-2.27382	0	0	
0.5900	-4.70628	0.311981	0	
0.5907	-4.09817	1.24792	0	
0.5913	-1.34843	-1.52524	0	
0.5920	-2.57788	-4.57572	0	
0.5927	-5.3144	-1.83722	0	
0.5933	-4.09817	-0.277316	0	
0.5940	-2.57788	-2.42652	0	
0.5947	-2.57788	-1.21326	0	
0.5953	-3.49005	1.24792	0	
0.5960	-3.49005	-0.589297	0	
0.5967	-2.57788	-1.21326	0	
0.5973	-1.65249	-0.901278	0	
0.5980	-1.95655	-4.26374	0	
0.5987	-3.49005	-4.26374	0	
0.5993	-2.88194	0.935943	0	
0.6000	-1.95655	1.24792	0	
0.6007	-4.09817	-1.52524	0	
0.6013	-5.01034	1.24792	0	
0.6020	-2.57788	2.1492	0	
0.6027	-1.65249	-3.05048	0	
0.6033	-2.88194	-5.78898	0	
0.6040	-0.740314	-4.26374	0	
0.6047	1.70537	-5.16502	0	
0.6053	-0.436257	-5.78898	0	
0.6060	-0.132199	-5.16502	0	
0.6067	3.52971	-5.16502	0	
0.6073	5.05	-2.42652	0	
0.6080	4.13783	3.05048	0	
0.6087	3.52971	1.24792	0	
0.6093	2.9216	-3.95176	0	
0.6100	2.00942	-2.42652	0	
0.6107	1.70537	0.311981	0	
0.6113	1.08403	-0.589297	0	
0.6120	0.475916	-0.589297	0	
0.6127	0.475916	0.311981	0	
0.6133	0.171859	-0.901278	0	
0.6140	-1.65249	0	0	
0.6147	-1.65249	1.83722	0	
0.6153	-0.132199	0.311981	0	
0.6160	-0.436257	-2.7385	0	
0.6167	-0.132199	-4.57572	0	
0.6173	2.9216	-4.8877	0	
0.6180	4.44189	-3.95176	0	
0.6187	0.475916	-3.63978	0	
0.6193	-0.740314	-2.42652	0	
0.6200	2.9216	0.935943	0	
0.6207	5.36728	0.623962	0	
0.6213	4.13783	-1.52524	0	
0.6220	2.9216	2.1492	0	
0.6227	3.22566	5.51166	0	
0.6233	5.67134	3.05048	0	
0.6240	6.88757	2.77316	0	
0.6247	6.58351	4.8877	0	
0.6253	7.49568	2.77316	0	
0.6260	7.19163	1.24792	0	
0.6267	4.44189	1.24792	0	
0.6273	4.13783	-0.589297	0	
0.6280	5.67134	-0.901278	0	
0.6287	5.36728	2.1492	0	
0.6293	3.83377	2.1492	0	
0.6300	3.22566	0.935943	0	
0.6307	4.44189	0	0	
0.6313	5.67134	-2.7385	0	
0.6320	4.74594	-3.05048	0	
0.6327	2.9216	0.311981	0	
0.6333	3.22566	-0.589297	0	
0.6340	2.61754	-1.52524	0	
0.6347	0.475916	3.98642	0	
0.6353	1.08403	8.25016	0	
0.6360	0.171859	6.72492	0	
0.6367	-3.49005	6.72492	0	
0.6373	-3.186	7.6262	0	
0.6380	-1.34843	4.8877	0	
0.6387	-3.186	1.24792	0	
0.6393	-4.09817	-2.11454	0	
0.6400	-2.27382	-2.42652	0	
0.6407	-2.27382	1.24792	0	
0.6413	-2.57788	3.67444	0	
0.6420	-0.740314	3.05048	0	
0.6427	1.38809	4.8877	0	
0.6433	1.08403	6.41294	0	
0.6440	-1.65249	4.8877	0	
0.6447	-3.79411	4.8877	0	
0.6453	-2.57788	6.72492	0	
0.6460	-1.34843	6.72492	0	
0.6467	-1.65249	7.0369	0	
0.6473	-0.132199	5.51166	0	
0.6480	0.171859	0.623962	0	
0.6487	-1.65249	-1.83722	0	
0.6493	-0.436257	-0.277316	0	
0.6500	2.31348	-0.277316	0	
0.6507	-1.04437	-3.05048	0	
0.6513	-2.57788	-6.10096	0	
0.6520	1.08403	-7.6262	0	
0.6527	0.171859	-7.00224	0	
0.6533	-6.23979	-6.10096	0	
0.6540	-5.3144	-6.10096	0	
0.6547	-2.88194	-5.16502	0	
0.6553	-5.63168	-5.16502	0	
0.6560	-5.63168	-6.10096	0	
0.6567	-1.95655	-4.26374	0	
0.6573	-1.65249	-3.05048	0	
0.6580	-0.740314	-4.26374	0	
0.6587	1.38809	-3.95176	0	
0.6593	0.171859	-3.95176	0	
0.6600	-1.04437	-6.10096	0	
0.6607	1.08403	-5.477	0	
0.6613	2.00942	-1.83722	0	
0.6620	3.52971	-0.901278	0	
0.6627	4.74594	-0.589297	0	
0.6633	1.38809	2.1492	0	
0.6640	-1.04437	3.98642	0	
0.6647	1.08403	3.67444	0	
0.6653	0.779974	2.77316	0	
0.6660	-0.740314	1.24792	0	
0.6667	2.31348	-1.52524	0	
0.6673	2.00942	-4.8877	0	
0.6680	-1.65249	-5.477	0	
0.6687	-2.27382	-1.52524	0	
0.6693	-1.95655	0.311981	0	
0.6700	-1.95655	-2.42652	0	
0.6707	1.70537	-3.36246	0	
0.6713	3.52971	-0.901278	0	
0.6720	-0.740314	-3.05048	0	
0.6727	-2.57788	-6.10096	0	
0.6733	-0.132199	-5.16502	0	
0.6740	2.00942	-2.7385	0	
0.6747	3.22566	-3.36246	0	
0.6753	4.44189	-5.16502	0	
0.6760	3.83377	-5.477	0	
0.6767	3.22566	-2.7385	0	
0.6773	4.13783	-0.589297	0	
0.6780	4.13783	-1.52524	0	
0.6787	2.9216	-3.95176	0	
0.6793	2.00942	-3.36246	0	
0.6800	2.00942	-0.589297	0	
0.6807	3.52971	0	0	
0.6813	4.74594	-1.21326	0	
0.6820	3.52971	0	0	
0.6827	1.08403	0.623962	0	
0.6833	0.171859	-2.11454	0	
0.6840	1.38809	-2.42652	0	
0.6847	0.171859	-0.277316	0	
0.6853	-2.57788	-1.52524	0	
0.6860	-1.34843	-4.26374	0	
0.6867	2.00942	-4.26374	0	
0.6873	1.08403	-3.63978	0	
0.6880	-1.65249	-5.477	0	
0.6887	-2.57788	-7.00224	0	
0.6893	-3.186	-5.16502	0	
0.6900	-2.27382	-3.63978	0	
0.6907	-0.740314	-5.78898	0	
0.6913	-1.04437	-8.52748	0	
0.6920	-1.95655	-7.6262	0	
0.6927	-0.740314	-4.57572	0	
0.6933	-1.65249	-3.36246	0	
0.6940	-3.79411	-3.05048	0	
0.6947	-2.27382	-1.52524	0	
0.6953	0.171859	0.623962	0	
0.6960	-1.34843	0.935943	0	
0.6967	-3.79411	1.24792	0	
0.6973	-3.49005	1.52524	0	
0.6980	-3.186	-1.83722	0	
0.6987	-4.70628	-6.10096	0	
0.6993	-5.3144	-5.78898	0	
0.7000	-1.65249	-5.16502	0	
0.7007	1.70537	-7.31422	0	
0.7013	0.475916	-2.42652	0	
0.7020	-3.186	7.34888	0	
0.7027	-5.01034	9.15144	0	
0.7033	-4.40223	6.41294	0	
0.7040	-1.65249	8.25016	0	
0.7047	-0.740314	9.46342	0	
0.7053	-1.95655	6.72492	0	
0.7060	-2.57788	4.8877	0	
0.7067	-2.88194	5.19968	0	
0.7073	-2.57788	4.57572	0	
0.7080	-0.740314	5.82364	0	
0.7087	-0.132199	9.46342	0	
0.7093	-1.34843	11.3006	0	
0.7100	-1.34843	8.56214	0	
0.7107	-3.79411	4.8877	0	
0.7113	-6.23979	3.05048	0	
0.7120	-1.95655	3.98642	0	
0.7127	1.38809	4.57572	0	
0.7133	-1.34843	1.52524	0	
0.7140	-2.57788	-1.83722	0	
0.7147	-1.65249	-1.21326	0	
0.7153	-2.27382	0	0	
0.7160	0.171859	-0.589297	0	
0.7167	2.61754	-1.52524	0	
0.7173	0.171859	-2.7385	0	
0.7180	-1.34843	-2.42652	0	
0.7187	1.08403	0.311981	0	
0.7193	1.70537	0.311981	0	
0.7200	-0.132199	-3.36246	0	
0.7207	-0.740314	-3.05048	0	
0.7213	-1.04437	-0.277316	0	
0.7220	-0.436257	-2.42652	0	
0.7227	2.00942	-6.10096	0	
0.7233	2.00942	-4.8877	0	
0.7240	0.171859	-2.11454	0	
0.7247	0.475916	-2.42652	0	
0.7253	0.171859	-3.36246	0	
0.7260	-2.57788	-1.52524	0	
0.7267	-3.49005	1.24792	0	
0.7273	-2.57788	1.83722	0	
0.7280	-5.01034	0.311981	0	
0.7287	-5.3144	0	0	
0.7293	0.171859	0.311981	0	
0.7300	3.83377	1.83722	0	
0.7307	2.9216	3.05048	0	
0.7313	2.00942	0.623962	0	
0.7320	2.00942	-3.95176	0	
0.7327	2.00942	-3.36246	0	
0.7333	2.9216	0.935943	0	
0.7340	2.9216	-0.589297	0	
0.7347	1.08403	-3.95176	0	
0.7353	2.61754	-2.11454	0	
0.7360	4.44189	0.935943	0	
0.7367	2.9216	-1.21326	0	
0.7373	1.70537	-3.95176	0	
0.7380	2.61754	-2.7385	0	
0.7387	1.08403	-1.52524	0	
0.7393	-0.740314	-1.21326	0	
0.7400	0.475916	0.311981	0	
0.7407	0.779974	1.52524	0	
0.7413	-0.740314	2.1492	0	
0.7420	0.171859	4.2984	0	
0.7427	-0.132199	5.82364	0	
0.7433	-2.57788	3.05048	0	
0.7440	-0.740314	2.77316	0	
0.7447	4.44189	4.2984	0	
0.7453	4.44189	0.311981	0	
0.7460	2.00942	-4.26374	0	
0.7467	2.9216	-2.7385	0	
0.7473	3.22566	-1.83722	0	
0.7480	2.00942	-3.36246	0	
0.7487	1.70537	-0.589297	0	
0.7493	0.171859	2.77316	0	
0.7500	-1.65249	1.24792	0	
0.7507	0.171859	0.311981	0	
0.7513	2.31348	2.46118	0	
0.7520	2.00942	3.05048	0	
0.7527	2.00942	3.36246	0	
0.7533	0.779974	4.8877	0	
0.7540	-1.95655	4.57572	0	
0.7547	-2.57788	3.05048	0	
0.7553	-2.88194	2.77316	0	
0.7560	-4.40223	2.1492	0	
0.7567	-5.01034	0.311981	0	
0.7573	-5.3144	-1.52524	0	
0.7580	-3.79411	-0.901278	0	
0.7587	0.171859	-2.11454	0	
0.7593	2.00942	-4.8877	0	
0.7600	0.171859	-3.95176	0	
0.7607	0.171859	-0.589297	0	
0.7613	-1.34843	0.623962	0	
0.7620	-4.09817	3.05048	0	
0.7627	-3.79411	3.05048	0	
0.7633	-4.40223	-1.83722	0	
0.7640	-5.3144	-3.36246	0	
0.7647	-1.04437	2.1492	0	
0.7653	3.52971	4.2984	0	
0.7660	2.9216	1.52524	0	
0.7667	2.61754	3.05048	0	
0.7673	2.61754	5.82364	0	
0.7680	-0.740314	3.05048	0	
0.7687	-1.65249	1.83722	0	
0.7693	1.08403	3.67444	0	
0.7700	-0.132199	1.24792	0	
0.7707	-4.40223	-1.83722	0	
0.7713	-5.3144	0	0	
0.7720	-4.40223	1.24792	0	
0.7727	-3.49005	0.311981	0	
0.7733	-1.95655	1.24792	0	
0.7740	-0.740314	1.83722	0	
0.7747	-0.132199	0.311981	0	
0.7753	-0.740314	1.52524	0	
0.7760	-2.88194	4.57572	0	
0.7767	-5.01034	3.67444	0	
0.7773	-3.49005	-0.277316	0	
0.7780	-1.65249	-2.42652	0	
0.7787	-2.57788	-2.11454	0	
0.7793	-2.57788	-2.42652	0	
0.7800	-0.132199	-3.05048	0	
0.7807	-0.436257	-0.277316	0	
0.7813	-2.57788	1.52524	0	
0.7820	-3.49005	-0.277316	0	
0.7827	-3.79411	-1.21326	0	
0.7833	-2.27382	-1.52524	0	
0.7840	-0.740314	-2.42652	0	
0.7847	-3.79411	-0.589297	0	
0.7853	-5.93574	0.311981	0	
0.7860	-2.27382	-1.21326	0	
0.7867	-0.740314	-0.589297	0	
0.7873	-2.57788	-0.277316	0	
0.7880	-1.65249	-1.52524	0	
0.7887	-0.740314	1.24792	0	
0.7893	-2.27382	2.1492	0	
0.7900	-1.65249	-3.36246	0	
0.7907	-0.740314	-6.10096	0	
0.7913	-2.27382	-3.36246	0	
0.7920	-0.740314	-4.26374	0	
0.7927	2.9216	-6.10096	0	
0.7933	2.00942	-4.26374	0	
0.7940	-0.436257	-3.36246	0	
0.7947	0.475916	-4.26374	0	
0.7953	0.779974	-4.8877	0	
0.7960	-1.95655	-5.477	0	
0.7967	-1.95655	-5.16502	0	
0.7973	-1.04437	-3.05048	0	
0.7980	-2.57788	-2.42652	0	
0.7987	-3.186	-5.78898	0	
0.7993	-2.57788	-7.31422	0	
0.8000	-4.40223	-5.78898	0	
0.8007	-5.3144	-4.26374	0	
0.8013	-3.186	-3.63978	0	
0.8020	-1.65249	0.311981	0	
0.8027	-1.34843	3.36246	0	
0.8033	-0.436257	3.36246	0	
0.8040	-0.740314	5.51166	0	
0.8047	-1.04437	7.0369	0	
0.8053	-0.132199	2.77316	0	
0.8060	-0.436257	-0.901278	0	
0.8067	-1.65249	1.83722	0	
0.8073	-1.65249	3.98642	0	
0.8080	-1.04437	3.36246	0	
0.8087	-0.740314	3.05048	0	
0.8093	-1.65249	2.1492	0	
0.8100	-2.57788	-0.901278	0	
0.8107	-2.57788	-2.11454	0	
0.8113	-0.436257	-1.52524	0	
0.8120	0.779974	-3.36246	0	
0.8127	0.475916	-6.10096	0	
0.8133	1.08403	-4.26374	0	
0.8140	2.61754	-0.589297	0	
0.8147	1.08403	-2.42652	0	
0.8153	-2.27382	-5.477	0	
0.8160	-1.65249	-2.42652	0	
0.8167	-0.132199	0.623962	0	
0.8173	-1.34843	-1.83722	0	
0.8180	-1.04437	-3.63978	0	
0.8187	-0.132199	-2.7385	0	
0.8193	-1.95655	-2.42652	0	
0.8200	-2.88194	0.311981	0	
0.8207	-1.04437	5.19968	0	
0.8213	-0.132199	4.8877	0	
0.8220	2.31348	0.311981	0	
0.8227	4.74594	-0.589297	0	
0.8233	2.31348	3.67444	0	
0.8240	-1.65249	3.98642	0	
0.8247	-0.436257	1.52524	0	
0.8253	2.00942	3.98642	0	
0.8260	3.83377	6.72492	0	
0.8267	2.31348	4.8877	0	
0.8273	-0.740314	3.98642	0	
0.8280	1.08403	3.98642	0	
0.8287	7.19163	1.24792	0	
0.8293	8.1038	0.311981	0	
0.8300	6.58351	1.24792	0	
0.8307	6.88757	0.623962	0	
0.8313	5.67134	0.935943	0	
0.8320	2.9216	1.24792	0	
0.8327	2.9216	-0.901278	0	
0.8333	3.83377	-1.83722	0	
0.8340	4.13783	1.24792	0	
0.8347	3.83377	2.1492	0	
0.8353	1.08403	0.311981	0	
0.8360	0.171859	-2.42652	0	
0.8367	2.9216	-2.7385	0	
0.8373	2.9216	-3.05048	0	
0.8380	2.9216	-4.26374	0	
0.8387	6.27945	-4.26374	0	
0.8393	6.27945	-1.83722	0	
0.8400	2.31348	-0.589297	0	
0.8407	2.9216	-0.277316	0	
0.8413	6.58351	1.52524	0	
0.8420	6.27945	3.98642	0	
0.8427	3.83377	4.57572	0	
0.8433	1.38809	4.2984	0	
0.8440	1.08403	4.8877	0	
0.8447	5.36728	4.57572	0	
0.8453	6.88757	3.05048	0	
0.8460	3.83377	2.77316	0	
0.8467	5.05	1.83722	0	
0.8473	8.40786	-1.83722	0	
0.8480	5.67134	-2.11454	0	
0.8487	3.52971	1.83722	0	
0.8493	6.27945	1.24792	0	
0.8500	7.49568	-3.05048	0	
0.8507	7.49568	-3.36246	0	
0.8513	7.49568	-2.42652	0	
0.8520	3.83377	-3.95176	0	
0.8527	0.475916	-4.26374	0	
0.8533	0.475916	-2.7385	0	
0.8540	-0.132199	-3.63978	0	
0.8547	-1.04437	-3.63978	0	
0.8553	-0.740314	-0.277316	0	
0.8560	-1.34843	1.24792	0	
0.8567	-0.436257	-1.83722	0	
0.8573	2.31348	-3.95176	0	
0.8580	3.52971	-2.42652	0	
0.8587	3.83377	-1.21326	0	
0.8593	3.83377	0.311981	0	
0.8600	1.38809	0.311981	0	
0.8607	0.171859	-0.901278	0	
0.8613	2.00942	0	0	
0.8620	2.61754	2.77316	0	
0.8627	1.38809	2.77316	0	
0.8633	-0.436257	0.311981	0	
0.8640	-2.88194	-0.589297	0	
0.8647	-3.79411	-0.277316	0	
0.8653	-4.09817	-1.52524	0	
0.8660	-5.3144	-3.63978	0	
0.8667	-5.93574	-4.26374	0	
0.8673	-6.23979	-3.36246	0	
0.8680	-6.84791	-4.57572	0	
0.8687	-6.84791	-5.78898	0	
0.8693	-7.15197	-3.36246	0	
0.8700	-7.76008	-1.21326	0	
0.8707	-5.63168	-2.7385	0	
0.8713	-4.09817	-4.26374	0	
0.8720	-4.70628	-3.36246	0	
0.8727	-4.09817	-3.63978	0	
0.8733	-3.49005	-6.10096	0	
0.8740	-5.3144	-6.69026	0	
0.8747	-6.54385	-4.8877	0	
0.8753	-6.23979	-5.477	0	
0.8760	-5.93574	-8.83946	0	
0.8767	-4.70628	-7.31422	0	
0.8773	-4.40223	-3.36246	0	
0.8780	-5.01034	-3.95176	0	
0.8787	-3.79411	-7.00224	0	
0.8793	-2.88194	-6.41294	0	
0.8800	-2.57788	-4.8877	0	
0.8807	-1.65249	-3.63978	0	
0.8813	-3.49005	-3.36246	0	
0.8820	-6.54385	-4.8877	0	
0.8827	-5.01034	-6.69026	0	
0.8833	-2.88194	-6.69026	0	
0.8840	-4.40223	-7.31422	0	
0.8847	-3.186	-9.74074	0	
0.8853	-1.34843	-10.9887	0	
0.8860	-3.49005	-9.74074	0	
0.8867	-4.70628	-7.6262	0	
0.8873	-2.57788	-6.10096	0	
0.8880	-3.186	-5.16502	0	
0.8887	-4.70628	-3.36246	0	
0.8893	-4.09817	-2.11454	0	
0.8900	-2.88194	0	0	
0.8907	-2.57788	2.77316	0	
0.8913	-2.57788	1.83722	0	
0.8920	-3.49005	0	0	
0.8927	-4.40223	1.83722	0	
0.8933	-3.186	2.1492	0	
0.8940	-2.57788	-0.589297	0	
0.8947	-2.88194	-1.83722	0	
0.8953	-1.65249	-1.83722	0	
0.8960	1.08403	-2.42652	0	
0.8967	-0.436257	-2.11454	0	
0.8973	-3.186	-2.7385	0	
0.8980	-1.34843	-3.63978	0	
0.8987	1.70537	-2.42652	0	
0.8993	0.171859	-1.52524	0	
0.9000	-1.65249	-2.11454	0	
0.9007	-0.740314	-0.589297	0	
0.9013	-1.95655	-0.277316	0	
0.9020	-5.01034	0	0	
0.9027	-5.3144	2.1492	0	
0.9033	-4.40223	3.98642	0	
0.9040	-5.3144	3.05048	0	
0.9047	-6.54385	3.05048	0	
0.9053	-6.84791	3.36246	0	
0.9060	-6.84791	4.2984	0	
0.9067	-5.01034	7.0369	0	
0.9073	-2.57788	7.6262	0	
0.9080	-1.95655	3.67444	0	
0.9087	-2.57788	1.24792	0	
0.9093	-3.49005	2.46118	0	
0.9100	-4.70628	3.98642	0	
0.9107	-5.01034	3.98642	0	
0.9113	-3.79411	4.8877	0	
0.9120	-3.49005	3.98642	0	
0.9127	-2.57788	-1.52524	0	
0.9133	-2.57788	-3.05048	0	
0.9140	-4.40223	1.24792	0	
0.9147	-4.09817	1.52524	0	
0.9153	-0.740314	-1.83722	0	
0.9160	-2.57788	-3.36246	0	
0.9167	-7.15197	-3.05048	0	
0.9173	-6.84791	-1.21326	0	
0.9180	-2.57788	2.1492	0	
0.9187	-2.57788	3.36246	0	
0.9193	-3.49005	1.52524	0	
0.9200	-0.740314	1.83722	0	
0.9207	1.08403	3.98642	0	
0.9213	0.779974	4.8877	0	
0.9220	2.31348	4.8877	0	
0.9227	5.05	5.82364	0	
0.9233	3.52971	8.56214	0	
0.9240	1.08403	10.3994	0	
0.9247	2.9216	9.15144	0	
0.9253	4.13783	6.72492	0	
0.9260	2.31348	5.82364	0	
0.9267	0.779974	6.41294	0	
0.9273	2.00942	8.56214	0	
0.9280	3.52971	9.46342	0	
0.9287	2.9216	8.87412	0	
0.9293	2.31348	9.46342	0	
0.9300	4.13783	9.15144	0	
0.9307	3.22566	7.34888	0	
0.9313	0.779974	6.41294	0	
0.9320	0.475916	6.41294	0	
0.9327	-0.740314	3.36246	0	
0.9333	-3.186	1.24792	0	
0.9340	-0.740314	1.52524	0	
0.9347	1.70537	0.935943	0	
0.9353	1.08403	-0.589297	0	
0.9360	2.9216	0.311981	0	
0.9367	4.13783	0	0	
0.9373	0.779974	-0.589297	0	
0.9380	-0.740314	3.05048	0	
0.9387	1.08403	5.51166	0	
0.9393	0.779974	2.1492	0	
0.9400	1.08403	0.311981	0	
0.9407	5.05	0.935943	0	
0.9413	7.19163	-0.901278	0	
0.9420	4.74594	-1.52524	0	
0.9427	2.9216	1.52524	0	
0.9433	3.22566	2.77316	0	
0.9440	4.13783	1.24792	0	
0.9447	3.83377	0.623962	0	
0.9453	3.83377	0.935943	0	
0.9460	2.9216	-0.277316	0	
0.9467	1.70537	-0.589297	0	
0.9473	3.22566	0.623962	0	
0.9480	4.74594	2.1492	0	
0.9487	2.61754	2.46118	0	
0.9493	1.38809	3.36246	0	
0.9500	2.9216	3.67444	0	
0.9507	3.22566	2.77316	0	
0.9513	1.38809	1.52524	0	
0.9520	-0.740314	1.24792	0	
0.9527	-1.65249	1.52524	0	
0.9533	1.38809	0.935943	0	
0.9540	4.74594	-0.901278	0	
0.9547	2.9216	-2.11454	0	
0.9553	-0.740314	-2.42652	0	
0.9560	-1.34843	-3.36246	0	
0.9567	0.171859	-3.95176	0	
0.9573	1.08403	-4.26374	0	
0.9580	-0.436257	-5.477	0	
0.9587	-0.740314	-6.41294	0	
0.9593	1.08403	-6.10096	0	
0.9600	2.00942	-5.16502	0	
0.9607	1.70537	-4.26374	0	
0.9613	3.83377	-3.36246	0	
0.9620	4.13783	-4.26374	0	
0.9627	0.779974	-4.26374	0	
0.9633	1.08403	-1.83722	0	
0.9640	4.74594	0.623962	0	
0.9647	5.36728	3.05048	0	
0.9653	3.83377	3.67444	0	
0.9660	2.9216	2.77316	0	
0.9667	0.475916	1.83722	0	
0.9673	-0.740314	0.935943	0	
0.9680	2.9216	-2.42652	0	
0.9687	3.83377	-4.26374	0	
0.9693	-0.740314	-1.52524	0	
0.9700	-1.95655	2.1492	0	
0.9707	-1.34843	2.1492	0	
0.9713	-4.40223	0.623962	0	
0.9720	-6.84791	-0.589297	0	
0.9727	-5.3144	-1.52524	0	
0.9733	-3.49005	-1.52524	0	
0.9740	-3.49005	-1.52524	0	
0.9747	-3.49005	-4.26374	0	
0.9753	-4.40223	-6.41294	0	
0.9760	-3.49005	-5.16502	0	
0.9767	-1.04437	-3.36246	0	
0.9773	-1.04437	-2.11454	0	
0.9780	-2.88194	0	0	
0.9787	-3.49005	0.935943	0	
0.9793	-2.57788	-2.42652	0	
0.9800	0.171859	-4.26374	0	
0.9807	2.31348	-0.589297	0	
0.9813	1.70537	2.77316	0	
0.9820	2.00942	0.935943	0	
0.9827	3.83377	-0.589297	0	
0.9833	3.52971	0.311981	0	
0.9840	0.779974	-0.901278	0	
0.9847	0.171859	-1.52524	0	
0.9853	0.475916	1.24792	0	
0.9860	-0.132199	2.77316	0	
0.9867	-1.04437	0.623962	0	
0.9873	-1.34843	0.623962	0	
0.9880	-1.65249	3.05048	0	
0.9887	-3.186	3.67444	0	
0.9893	-5.63168	1.83722	0	
0.9900	-8.3682	0.935943	0	
0.9907	-9.29359	1.24792	0	
0.9913	-7.76008	2.1492	0	
0.9920	-6.84791	2.1492	0	
0.9927	-8.3682	0.623962	0	
0.9933	-9.59765	-0.277316	0	
0.9940	-8.67225	2.1492	0	
0.9947	-6.23979	3.36246	0	
0.9953	-3.49005	-2.42652	0	
0.9960	-2.88194	-6.41294	0	
0.9967	-2.27382	-2.11454	0	
0.9973	0.171859	0.935943	0	
0.9980	2.00942	-3.05048	0	
0.9987	2.31348	-4.8877	0	
0.9993	2.00942	-2.42652	0	
1.0000	0.171859	-1.52524	0	
1.0007	-1.65249	-1.52524	0	
1.0013	-2.27382	-1.52524	0	
1.0020	-1.04437	-2.11454	0	
1.0027	-0.436257	-1.21326	0	
1.0033	0.171859	-1.52524	0	
1.0040	1.38809	-6.10096	0	
1.0047	2.31348	-7.6262	0	
1.0053	2.00942	-3.05048	0	
1.0060	1.70537	-0.589297	0	
1.0067	2.61754	-1.52524	0	
1.0073	3.83377	-0.589297	0	
1.0080	4.13783	-1.21326	0	
1.0087	2.00942	-3.36246	0	
1.0093	-0.740314	-3.36246	0	
1.0100	1.38809	-3.95176	0	
1.0107	5.36728	-7.00224	0	
1.0113	2.31348	-7.6262	0	
1.0120	-0.740314	-7.31422	0	
1.0127	2.9216	-6.10096	0	
1.0133	2.00942	-2.11454	0	
1.0140	-3.49005	-0.589297	0	
1.0147	-1.65249	-4.8877	0	
1.0153	2.00942	-7.93818	0	
1.0160	0.171859	-7.31422	0	
1.0167	-0.740314	-8.83946	0	
1.0173	1.08403	-10.6767	0	
1.0180	1.70537	-7.6262	0	
1.0187	2.9216	-2.11454	0	
1.0193	4.74594	-1.21326	0	
1.0200	2.9216	-3.36246	0	
1.0207	0.779974	-1.52524	0	
1.0213	0.171859	1.24792	0	
1.0220	1.08403	1.24792	0	
1.0227	2.31348	0.311981	0	
1.0233	2.00942	0.311981	0	
1.0240	2.00942	0.311981	0	
1.0247	3.52971	1.24792	0	
1.0253	2.31348	0.623962	0	
1.0260	0.779974	-1.21326	0	
1.0267	2.00942	-1.52524	0	
1.0273	2.31348	-3.05048	0	
1.0280	1.38809	-5.477	0	
1.0287	1.70537	-3.36246	0	
1.0293	-1.34843	-0.589297	0	
1.0300	-5.63168	-2.11454	0	
1.0307	-4.40223	-1.52524	0	
1.0313	-2.88194	1.24792	0	
1.0320	-5.93574	-0.589297	0	
1.0327	-6.84791	-1.52524	0	
1.0333	-5.01034	1.83722	0	
1.0340	-3.79411	0.311981	0	
1.0347	-2.57788	-4.57572	0	
1.0353	-2.88194	-5.16502	0	
1.0360	-6.54385	-3.36246	0	
1.0367	-7.45602	-1.52524	0	
1.0373	-5.3144	0.935943	0	
1.0380	-6.23979	-0.277316	0	
1.0387	-7.15197	-2.11454	0	
1.0393	-4.40223	-0.589297	0	
1.0400	-3.49005	-0.589297	0	
1.0407	-5.3144	-2.42652	0	
1.0413	-5.63168	-0.277316	0	
1.0420	-3.49005	1.83722	0	
1.0427	-2.57788	0.935943	0	
1.0433	-3.186	1.52524	0	
1.0440	-2.57788	2.46118	0	
1.0447	-0.740314	1.83722	0	
1.0453	-0.740314	2.77316	0	
1.0460	-2.57788	3.98642	0	
1.0467	-1.65249	1.83722	0	
1.0473	0.779974	0.935943	0	
1.0480	0.171859	3.05048	0	
1.0487	-1.95655	2.77316	0	
1.0493	-2.57788	-2.7385	0	
1.0500	-2.27382	-4.8877	0	
1.0507	-2.88194	-1.83722	0	
1.0513	-3.49005	-1.21326	0	
1.0520	-2.57788	-1.52524	0	
1.0527	-2.27382	2.77316	0	
1.0533	-3.79411	5.19968	0	
1.0540	-4.40223	0.311981	0	
1.0547	-3.79411	-3.36246	0	
1.0553	-3.49005	-1.52524	0	
1.0560	-2.88194	-1.52524	0	
1.0567	-1.04437	-3.36246	0	
1.0573	-1.34843	-3.36246	0	
1.0580	-1.65249	-1.52524	0	
1.0587	-1.65249	-0.589297	0	
1.0593	-2.88194	-0.589297	0	
1.0600	-2.88194	-1.21326	0	
1.0607	0.171859	0.311981	0	
1.0613	2.31348	2.77316	0	
1.0620	1.38809	5.51166	0	
1.0627	0.475916	8.56214	0	
1.0633	1.08403	8.56214	0	
1.0640	0.171859	5.82364	0	
1.0647	-0.740314	3.05048	0	
1.0653	0.779974	1.24792	0	
1.0660	3.52971	1.83722	0	
1.0667	4.74594	3.98642	0	
1.0673	3.83377	4.8877	0	
1.0680	3.52971	3.05048	0	
1.0687	2.9216	-0.277316	0	
1.0693	3.22566	-0.277316	0	
1.0700	2.9216	2.46118	0	
1.0707	2.00942	2.77316	0	
1.0713	2.9216	0.935943	0	
1.0720	5.67134	1.83722	0	
1.0727	3.83377	1.83722	0	
1.0733	1.38809	0.623962	0	
1.0740	2.31348	3.98642	0	
1.0747	0.171859	6.72492	0	
1.0753	-3.186	2.46118	0	
1.0760	-1.65249	-0.589297	0	
1.0767	-1.04437	3.05048	0	
1.0773	-4.40223	5.82364	0	
1.0780	-3.186	5.82364	0	
1.0787	-0.740314	6.72492	0	
1.0793	-1.65249	5.82364	0	
1.0800	1.08403	3.36246	0	
1.0807	4.44189	3.05048	0	
1.0813	1.70537	4.2984	0	
1.0820	2.00942	4.57572	0	
1.0827	4.74594	4.57572	0	
1.0833	2.00942	4.2984	0	
1.0840	0.779974	2.1492	0	
1.0847	2.00942	0.311981	0	
1.0853	0.171859	0.935943	0	
1.0860	0.475916	1.24792	0	
1.0867	3.52971	0	0	
1.0873	2.00942	0	0	
1.0880	0.171859	3.05048	0	
1.0887	2.9216	6.72492	0	
1.0893	2.9216	7.34888	0	
1.0900	0.171859	3.67444	0	
1.0907	-0.740314	3.67444	0	
1.0913	-0.132199	7.6262	0	
1.0920	0.475916	6.72492	0	
1.0927	0.171859	3.05048	0	
1.0933	-0.740314	3.05048	0	
1.0940	-1.04437	4.2984	0	
1.0947	-0.436257	2.1492	0	
1.0953	0.475916	-1.21326	0	
1.0960	1.08403	-2.7385	0	
1.0967	1.38809	-3.05048	0	
1.0973	1.08403	-3.95176	0	
1.0980	-0.132199	-5.477	0	
1.0987	-1.65249	-4.8877	0	
1.0993	-0.436257	-4.57572	0	
1.1000	1.70537	-6.69026	0	
1.1007	1.08403	-7.6262	0	
1.1013	3.22566	-7.6262	0	
1.1020	6.58351	-9.74074	0	
1.1027	5.36728	-9.74074	0	
1.1033	3.83377	-7.93818	0	
1.1040	3.83377	-6.41294	0	
1.1047	2.9216	-3.36246	0	
1.1053	4.74594	-0.589297	0	
1.1060	7.19163	-4.26374	0	
1.1067	2.00942	-7.00224	0	
1.1073	-1.95655	-5.78898	0	
1.1080	1.70537	-7.93818	0	
1.1087	2.9216	-10.6767	0	
1.1093	-0.132199	-7.93818	0	
1.1100	-1.65249	-3.36246	0	
1.1107	-2.27382	-1.83722	0	
1.1113	-3.49005	-2.42652	0	
1.1120	-2.57788	-4.8877	0	
1.1127	-2.27382	-5.16502	0	
1.1133	-2.57788	-3.36246	0	
1.1140	-0.740314	-2.42652	0	
1.1147	0.171859	-2.7385	0	
1.1153	-2.57788	-3.36246	0	
1.1160	-2.57788	-4.26374	0	
1.1167	0.475916	-3.95176	0	
1.1173	-0.132199	-2.42652	0	
1.1180	-1.34843	-3.63978	0	
1.1187	1.08403	-4.8877	0	
1.1193	1.08403	-4.26374	0	
1.1200	-1.95655	-4.26374	0	
1.1207	-1.95655	-3.63978	0	
1.1213	-1.34843	-2.42652	0	
1.1220	-2.27382	-1.52524	0	
1.1227	-0.436257	0.311981	0	
1.1233	2.9216	0.935943	0	
1.1240	3.83377	-2.42652	0	
1.1247	2.9216	-0.901278	0	
1.1253	1.08403	4.8877	0	
1.1260	-1.34843	3.05048	0	
1.1267	0.171859	-2.42652	0	
1.1273	1.08403	-1.52524	0	
1.1280	-0.132199	0	0	
1.1287	0.475916	-0.901278	0	
1.1293	1.38809	0.311981	0	
1.1300	-0.740314	3.05048	0	
1.1307	-3.186	4.8877	0	
1.1313	-4.40223	3.67444	0	
1.1320	-5.63168	1.24792	0	
1.1327	-4.70628	2.1492	0	
1.1333	-2.57788	1.24792	0	
1.1340	-2.27382	-5.477	0	
1.1347	-2.88194	-7.31422	0	
1.1353	-1.65249	-3.63978	0	
1.1360	-1.04437	-3.95176	0	
1.1367	-1.95655	-4.26374	0	
1.1373	-2.88194	-0.901278	0	
1.1380	-1.95655	1.24792	0	
1.1387	-0.132199	2.1492	0	
1.1393	-0.436257	3.05048	0	
1.1400	-1.34843	1.24792	0	
1.1407	0.171859	0.311981	0	
1.1413	2.9216	2.77316	0	
1.1420	0.171859	2.1492	0	
1.1427	-4.40223	-1.52524	0	
1.1433	-4.09817	-1.52524	0	
1.1440	-1.65249	2.1492	0	
1.1447	-3.79411	4.57572	0	
1.1453	-6.23979	3.67444	0	
1.1460	-5.01034	2.1492	0	
1.1467	-3.49005	2.1492	0	
1.1473	-4.40223	0.623962	0	
1.1480	-3.79411	-0.589297	0	
1.1487	-1.95655	1.52524	0	
1.1493	-2.57788	3.98642	0	
1.1500	-4.40223	1.83722	0	
1.1507	-4.09817	0	0	
1.1513	-1.04437	1.52524	0	
1.1520	0.171859	3.05048	0	
1.1527	-1.34843	0.935943	0	
1.1533	-2.57788	-3.05048	0	
1.1540	-2.88194	-1.83722	0	
1.1547	-2.57788	2.77316	0	
1.1553	-0.740314	1.83722	0	
1.1560	-0.436257	-2.7385	0	
1.1567	-0.132199	-1.52524	0	
1.1573	1.08403	0.311981	0	
1.1580	0.171859	-1.52524	0	
1.1587	-2.57788	0.311981	0	
1.1593	-2.57788	4.8877	0	
1.1600	-0.436257	4.8877	0	
1.1607	-0.132199	4.2984	0	
1.1613	-0.740314	4.8877	0	
1.1620	1.08403	3.98642	0	
1.1627	4.74594	1.24792	0	
1.1633	6.27945	-3.36246	0	
1.1640	3.22566	-7.6262	0	
1.1647	-0.436257	-7.00224	0	
1.1653	0.171859	-3.63978	0	
1.1660	1.70537	-1.21326	0	
1.1667	0.779974	0.623962	0	
1.1673	-0.740314	-0.277316	0	
1.1680	-2.27382	-2.42652	0	
1.1687	-4.40223	1.24792	0	
1.1693	-3.186	5.51166	0	
1.1700	-0.436257	3.05048	0	
1.1707	-1.65249	0.623962	0	
1.1713	-5.3144	3.05048	0	
1.1720	-5.93574	3.05048	0	
1.1727	-4.40223	0.311981	0	
1.1733	-3.79411	0.935943	0	
1.1740	-4.40223	3.98642	0	
1.1747	-5.3144	3.67444	0	
1.1753	-5.3144	0.311981	0	
1.1760	-4.70628	-0.277316	0	
1.1767	-1.65249	-0.277316	0	
1.1773	2.9216	-1.21326	0	
1.1780	3.83377	0.311981	0	
1.1787	3.22566	2.46118	0	
1.1793	4.13783	0.623962	0	
1.1800	4.44189	-2.42652	0	
1.1807	2.9216	-2.7385	0	
1.1813	3.22566	-2.42652	0	
1.1820	5.67134	-1.83722	0	
1.1827	5.97539	0.935943	0	
1.1833	5.36728	2.1492	0	
1.1840	5.67134	0	0	
1.1847	6.27945	-0.277316	0	
1.1853	4.74594	3.05048	0	
1.1860	0.779974	3.98642	0	
1.1867	-0.740314	2.1492	0	
1.1873	0.171859	0	0	
1.1880	-1.04437	-0.901278	0	
1.1887	-2.57788	-2.7385	0	
1.1893	-1.65249	-3.36246	0	
1.1900	-1.34843	-1.52524	0	
1.1907	-5.01034	-1.52524	0	
1.1913	-7.15197	-3.36246	0	
1.1920	-5.63168	-5.16502	0	
1.1927	-3.79411	-4.8877	0	
1.1933	-4.09817	-1.52524	0	
1.1940	-4.40223	-0.589297	0	
1.1947	-2.88194	-4.57572	0	
1.1953	0.171859	-5.16502	0	
1.1960	1.08403	-2.11454	0	
1.1967	-0.132199	-3.36246	0	
1.1973	0.779974	-5.477	0	
1.1980	1.38809	-2.7385	0	
1.1987	-0.132199	-1.52524	0	
1.1993	-0.436257	-3.63978	0	
1.2000	1.70537	-3.05048	0	
1.2007	0.171859	-2.42652	0	
1.2013	-2.27382	-5.16502	0	
1.2020	-1.65249	-5.78898	0	
1.2027	-0.436257	-4.57572	0	
1.2033	-1.34843	-4.26374	0	
1.2040	0.475916	-2.7385	0	
1.2047	4.13783	-2.42652	0	
1.2053	4.74594	-4.26374	0	
1.2060	2.9216	-3.05048	0	
1.2067	2.9216	0	0	
1.2073	4.74594	-0.277316	0	
1.2080	4.74594	-1.52524	0	
1.2087	2.31348	-1.21326	0	
1.2093	1.70537	-1.83722	0	
1.2100	3.22566	-1.52524	0	
1.2107	2.00942	1.52524	0	
1.2113	-2.27382	3.67444	0	
1.2120	-1.65249	1.24792	0	
1.2127	1.38809	-0.901278	0	
1.2133	0.779974	-0.589297	0	
1.2140	-1.65249	-0.589297	0	
1.2147	-0.740314	-2.42652	0	
1.2153	-0.740314	-3.36246	0	
1.2160	-1.65249	-3.95176	0	
1.2167	-0.740314	-6.10096	0	
1.2173	-0.436257	-6.10096	0	
1.2180	-2.57788	-2.42652	0	
1.2187	-2.27382	0.311981	0	
1.2193	-0.436257	-0.589297	0	
1.2200	-1.95655	-0.901278	0	
1.2207	-5.01034	0.311981	0	
1.2213	-5.63168	1.83722	0	
1.2220	-6.54385	4.2984	0	
1.2227	-7.45602	5.19968	0	
1.2233	-6.23979	2.77316	0	
1.2240	-5.01034	0.935943	0	
1.2247	-5.3144	1.24792	0	
1.2253	-3.49005	1.24792	0	
1.2260	-0.740314	-0.277316	0	
1.2267	-0.436257	-1.52524	0	
1.2273	-1.04437	-0.589297	0	
1.2280	0.475916	0.935943	0	
1.2287	2.61754	1.24792	0	
1.2293	2.00942	0.935943	0	
1.2300	0.171859	1.24792	0	
1.2307	-0.436257	0	0	
1.2313	-0.740314	-2.42652	0	
1.2320	-0.132199	-3.05048	0	
1.2327	1.08403	-3.36246	0	
1.2333	1.70537	-5.16502	0	
1.2340	1.70537	-2.42652	0	
1.2347	0.171859	3.98642	0	
1.2353	-1.65249	5.82364	0	
1.2360	-0.740314	3.05048	0	
1.2367	1.38809	0.935943	0	
1.2373	1.08403	-3.36246	0	
1.2380	0.779974	-10.3647	0	
1.2387	0.475916	-11.578	0	
1.2393	-0.436257	-7.00224	0	
1.2400	1.08403	-3.95176	0	
1.2407	3.22566	-4.26374	0	
1.2413	-0.132199	-3.05048	0	
1.2420	-2.88194	0.311981	0	
1.2427	-0.740314	1.24792	0	
1.2433	-0.132199	0.623962	0	
1.2440	-1.65249	0.311981	0	
1.2447	-0.740314	0.311981	0	
1.2453	1.70537	0.935943	0	
1.2460	3.22566	0.623962	0	
1.2467	3.52971	-2.7385	0	
1.2473	-0.436257	-5.477	0	
1.2480	-4.40223	-2.42652	0	
1.2487	-4.09817	2.46118	0	
1.2493	-1.65249	1.24792	0	
1.2500	-1.65249	-1.83722	0	
1.2507	-2.57788	1.24792	0	
1.2513	-1.65249	4.8877	0	
1.2520	1.08403	1.52524	0	
1.2527	2.9216	-0.589297	0	
1.2533	2.9216	1.24792	0	
1.2540	0.779974	0.311981	0	
1.2547	-0.740314	-1.52524	0	
1.2553	-0.436257	0.935943	0	
1.2560	0.171859	3.98642	0	
1.2567	1.08403	3.05048	0	
1.2573	2.00942	2.46118	0	
1.2580	0.475916	2.77316	0	
1.2587	-1.04437	3.05048	0	
1.2593	-0.132199	3.98642	0	
1.2600	1.08403	2.1492	0	
1.2607	1.08403	-1.21326	0	
1.2613	1.38809	-1.21326	0	
1.2620	3.22566	1.24792	0	
1.2627	4.44189	0.311981	0	
1.2633	2.00942	0.623962	0	
1.2640	0.171859	2.77316	0	
1.2647	2.00942	1.24792	0	
1.2653	4.74594	-1.21326	0	
1.2660	4.74594	1.52524	0	
1.2667	5.67134	3.98642	0	
1.2673	5.97539	1.24792	0	
1.2680	3.83377	-0.589297	0	
1.2687	2.9216	1.52524	0	
1.2693	4.74594	3.05048	0	
1.2700	3.83377	1.52524	0	
1.2707	2.00942	1.24792	0	
1.2713	1.70537	2.1492	0	
1.2720	0.171859	0.623962	0	
1.2727	0.171859	-1.52524	0	
1.2733	1.70537	-0.901278	0	
1.2740	1.38809	1.83722	0	
1.2747	-0.436257	0.623962	0	
1.2753	0.475916	-3.36246	0	
1.2760	2.00942	-3.36246	0	
1.2767	2.00942	-0.589297	0	
1.2773	2.31348	-1.52524	0	
1.2780	2.31348	-4.26374	0	
1.2787	-0.740314	-4.57572	0	
1.2793	-3.186	-5.16502	0	
1.2800	-1.65249	-6.10096	0	
1.2807	-0.132199	-5.16502	0	
1.2813	-3.186	-2.42652	0	
1.2820	-5.3144	-0.589297	0	
1.2827	-3.49005	-1.52524	0	
1.2833	-4.09817	-2.42652	0	
1.2840	-5.63168	0	0	
1.2847	-3.79411	0.935943	0	
1.2853	-2.57788	-2.11454	0	
1.2860	-3.186	-4.26374	0	
1.2867	-0.740314	-3.36246	0	
1.2873	-1.04437	-1.21326	0	
1.2880	-5.63168	-0.277316	0	
1.2887	-6.23979	-1.83722	0	
1.2893	-3.186	-2.7385	0	
1.2900	-3.49005	-0.901278	0	
1.2907	-5.3144	-3.36246	0	
1.2913	-4.09817	-9.15144	0	
1.2920	-1.65249	-8.83946	0	
1.2927	-0.740314	-4.26374	0	
1.2933	-1.95655	-1.52524	0	
1.2940	-2.88194	-1.21326	0	
1.2947	-1.34843	-3.36246	0	
1.2953	1.08403	-5.477	0	
1.2960	1.38809	-3.36246	0	
1.2967	2.00942	-3.36246	0	
1.2973	3.22566	-5.78898	0	
1.2980	2.9216	-3.36246	0	
1.2987	-1.34843	-0.589297	0	
1.2993	-3.49005	-1.52524	0	
1.3000	-1.65249	-1.52524	0	
1.3007	-0.740314	-1.52524	0	
1.3013	-0.740314	-2.11454	0	
1.3020	0.475916	2.1492	0	
1.3027	-0.436257	4.2984	0	
1.3033	-2.57788	0.623962	0	
1.3040	-0.132199	0.311981	0	
1.3047	2.61754	3.05048	0	
1.3053	2.9216	2.77316	0	
1.3060	2.9216	1.83722	0	
1.3067	2.00942	2.1492	0	
1.3073	0.171859	0	0	
1.3080	-0.436257	-0.277316	0	
1.3087	-1.34843	3.05048	0	
1.3093	-2.57788	4.8877	0	
1.3100	-1.95655	3.98642	0	
1.3107	-1.95655	3.05048	0	
1.3113	-3.186	1.24792	0	
1.3120	-3.49005	0.311981	0	
1.3127	-4.40223	0.311981	0	
1.3133	-5.3144	0.311981	0	
1.3140	-3.79411	0.311981	0	
1.3147	-4.09817	0.623962	0	
1.3153	-6.54385	-0.589297	0	
1.3160	-6.23979	-1.21326	0	
1.3167	-4.70628	0	0	
1.3173	-4.40223	2.1492	0	
1.3180	-4.09817	4.57572	0	
1.3187	-1.65249	4.57572	0	
1.3193	-0.436257	2.1492	0	
1.3200	-1.65249	1.52524	0	
1.3207	-2.57788	1.83722	0	
1.3213	0.779974	0	0	
1.3220	2.00942	-0.277316	0	
1.3227	-1.34843	0.935943	0	
1.3233	-1.65249	0.623962	0	
1.3240	2.9216	2.46118	0	
1.3247	3.52971	4.8877	0	
1.3253	1.08403	2.46118	0	
1.3260	0.475916	-0.589297	0	
1.3267	-0.740314	0.311981	0	
1.3273	-2.57788	1.52524	0	
1.3280	-1.65249	2.1492	0	
1.3287	0.779974	2.77316	0	
1.3293	0.779974	3.98642	0	
1.3300	1.08403	5.51166	0	
1.3307	2.9216	4.8877	0	
1.3313	3.22566	2.1492	0	
1.3320	1.70537	-0.589297	0	
1.3327	1.08403	-2.7385	0	
1.3333	2.31348	-2.42652	0	
1.3340	2.61754	0.623962	0	
1.3347	1.38809	3.05048	0	
1.3353	1.08403	1.83722	0	
1.3360	0.171859	0.311981	0	
1.3367	-2.57788	0.311981	0	
1.3373	-3.79411	2.1492	0	
1.3380	-1.95655	3.05048	0	
1.3387	-0.740314	-0.589297	0	
1.3393	0.779974	-3.95176	0	
1.3400	3.22566	-2.42652	0	
1.3407	2.9216	-0.589297	0	
1.3413	2.00942	-2.7385	0	
1.3420	5.36728	-3.36246	0	
1.3427	6.88757	-1.21326	0	
1.3433	5.67134	1.24792	0	
1.3440	6.58351	1.83722	0	
1.3447	6.58351	0.311981	0	
1.3453	3.83377	1.24792	0	
1.3460	4.13783	3.67444	0	
1.3467	5.05	1.83722	0	
1.3473	2.31348	-0.901278	0	
1.3480	1.08403	1.24792	0	
1.3487	2.00942	1.24792	0	
1.3493	0.171859	-1.21326	0	
1.3500	-0.132199	-0.277316	0	
1.3507	2.31348	-0.589297	0	
1.3513	2.9216	-4.26374	0	
1.3520	1.70537	-3.36246	0	
1.3527	1.70537	-1.52524	0	
1.3533	3.52971	-2.42652	0	
1.3540	5.67134	-1.52524	0	
1.3547	6.27945	0.935943	0	
1.3553	2.61754	-0.277316	0	
1.3560	0.171859	-1.83722	0	
1.3567	2.31348	-3.36246	0	
1.3573	3.22566	-6.41294	0	
1.3580	0.475916	-6.69026	0	
1.3587	-0.132199	-3.05048	0	
1.3593	0.779974	-2.42652	0	
1.3600	-0.740314	-4.26374	0	
1.3607	-1.65249	-3.36246	0	
1.3613	-0.740314	-1.83722	0	
1.3620	-1.65249	-2.7385	0	
1.3627	-4.09817	-3.36246	0	
1.3633	-3.79411	-1.83722	0	
1.3640	-2.88194	-2.7385	0	
1.3647	-3.79411	-6.41294	0	
1.3653	-3.49005	-6.41294	0	
1.3660	-2.57788	-1.52524	0	
1.3667	-4.09817	2.1492	0	
1.3673	-3.49005	0.623962	0	
1.3680	-0.740314	0.311981	0	
1.3687	-2.57788	1.24792	0	
1.3693	-7.15197	1.24792	0	
1.3700	-8.97631	1.83722	0	
1.3707	-8.97631	1.83722	0	
1.3713	-8.3682	0.935943	0	
1.3720	-7.76008	1.52524	0	
1.3727	-7.45602	0.311981	0	
1.3733	-7.15197	-3.05048	0	
1.3740	-6.23979	-1.52524	0	
1.3747	-5.3144	-0.589297	0	
1.3753	-4.40223	-5.78898	0	
1.3760	-5.3144	-5.78898	0	
1.3767	-7.15197	-0.589297	0	
1.3773	-6.84791	-2.7385	0	
1.3780	-3.79411	-7.00224	0	
1.3787	-3.49005	-2.7385	0	
1.3793	-6.23979	0.311981	0	
1.3800	-7.15197	-3.05048	0	
1.3807	-5.01034	-3.63978	0	
1.3813	-3.49005	0.935943	0	
1.3820	-4.40223	3.05048	0	
1.3827	-4.70628	-0.277316	0	
1.3833	-4.40223	-2.7385	0	
1.3840	-3.186	0.935943	0	
1.3847	-0.740314	3.98642	0	
1.3853	1.08403	0	0	
1.3860	2.31348	-3.36246	0	
1.3867	3.83377	1.24792	0	
1.3873	3.22566	6.72492	0	
1.3880	1.08403	4.8877	0	
1.3887	3.22566	1.83722	0	
1.3893	7.19163	2.1492	0	
1.3900	5.36728	3.36246	0	
1.3907	1.08403	3.98642	0	
1.3913	0.171859	2.46118	0	
1.3920	1.38809	-0.901278	0	
1.3927	1.08403	-0.589297	0	
1.3933	-0.740314	1.24792	0	
1.3940	-1.65249	-0.589297	0	
1.3947	-0.436257	-1.52524	0	
1.3953	-0.132199	1.24792	0	
1.3960	-2.57788	0.935943	0	
1.3967	-2.57788	0.311981	0	
1.3973	-1.65249	2.77316	0	
1.3980	-2.57788	4.8877	0	
1.3987	-1.65249	3.98642	0	
1.3993	0.171859	1.24792	0	
1.4000	-0.740314	-2.42652	0	
1.4007	-1.95655	-2.11454	0	
1.4013	-0.436257	1.52524	0	
1.4020	0.475916	4.2984	0	
1.4027	-0.132199	5.19968	0	
1.4033	1.08403	2.1492	0	
1.4040	2.00942	-2.7385	0	
1.4047	0.475916	-2.42652	0	
1.4053	-1.65249	1.24792	0	
1.4060	-1.65249	1.24792	0	
1.4067	0.171859	1.52524	0	
1.4073	2.61754	2.1492	0	
1.4080	2.9216	0.623962	0	
1.4087	1.08403	-0.901278	0	
1.4093	1.38809	-1.83722	0	
1.4100	2.00942	-3.36246	0	
1.4107	0.475916	-2.42652	0	
1.4113	1.08403	-0.901278	0	
1.4120	2.00942	-1.83722	0	
1.4127	-1.65249	-1.83722	0	
1.4133	-5.01034	-0.589297	0	
1.4140	-1.95655	-0.901278	0	
1.4147	1.08403	0	0	
1.4153	0.779974	0.623962	0	
1.4160	-0.132199	-2.42652	0	
1.4167	-0.436257	-5.78898	0	
1.4173	0.779974	-4.26374	0	
1.4180	4.13783	-1.52524	0	
1.4187	5.36728	-2.7385	0	
1.4193	5.36728	-6.10096	0	
1.4200	7.49568	-4.26374	0	
1.4207	8.71191	-0.277316	0	
1.4213	5.97539	0.623962	0	
1.4220	4.74594	1.83722	0	
1.4227	5.67134	3.67444	0	
1.4233	4.44189	2.46118	0	
1.4240	3.83377	0	0	
1.4247	3.83377	-0.901278	0	
1.4253	2.31348	-0.589297	0	
1.4260	3.83377	-0.901278	0	
1.4267	7.19163	-1.52524	0	
1.4273	5.36728	-1.52524	0	
1.4280	2.00942	0.311981	0	
1.4287	2.61754	-0.589297	0	
1.4293	2.61754	-3.63978	0	
1.4300	1.70537	-4.26374	0	
1.4307	2.61754	-4.26374	0	
1.4313	1.08403	-7.00224	0	
1.4320	-1.65249	-8.83946	0	
1.4327	0.171859	-7.6262	0	
1.4333	0.475916	-7.6262	0	
1.4340	-4.40223	-9.74074	0	
1.4347	-4.40223	-11.578	0	
1.4353	0.171859	-9.74074	0	
1.4360	0.779974	-5.16502	0	
1.4367	-1.34843	-3.36246	0	
1.4373	0.171859	-5.16502	0	
1.4380	1.38809	-6.69026	0	
1.4387	0.475916	-5.16502	0	
1.4393	0.475916	-3.36246	0	
1.4400	1.08403	-2.11454	0	
1.4407	3.52971	-2.42652	0	
1.4413	6.27945	-3.36246	0	
1.4420	4.74594	-0.277316	0	
1.4427	2.31348	3.67444	0	
1.4433	2.9216	2.1492	0	
1.4440	2.9216	-0.589297	0	
1.4447	-0.740314	0.311981	0	
1.4453	-2.88194	1.83722	0	
1.4460	-2.27382	2.1492	0	
1.4467	-2.27382	2.77316	0	
1.4473	-3.186	2.77316	0	
1.4480	-2.88194	3.36246	0	
1.4487	-1.65249	3.36246	0	
1.4493	-1.04437	1.24792	0	
1.4500	-1.65249	2.46118	0	
1.4507	-3.49005	6.41294	0	
1.4513	-6.84791	3.98642	0	
1.4520	-9.90171	0.935943	0	
1.4527	-8.06414	4.2984	0	
1.4533	-5.63168	5.82364	0	
1.4540	-6.23979	0.935943	0	
1.4547	-6.23979	-1.52524	0	
1.4553	-6.23979	-0.277316	0	
1.4560	-7.15197	-0.277316	0	
1.4567	-4.40223	0.623962	0	
1.4573	-3.186	1.24792	0	
1.4580	-7.76008	-0.589297	0	
1.4587	-8.97631	-2.42652	0	
1.4593	-5.01034	-1.52524	0	
1.4600	-5.3144	-2.11454	0	
1.4607	-6.23979	-2.7385	0	
1.4613	-3.49005	-0.277316	0	
1.4620	-2.57788	2.77316	0	
1.4627	-2.27382	3.98642	0	
1.4633	-1.34843	4.57572	0	
1.4640	-4.09817	4.57572	0	
1.4647	-4.70628	4.8877	0	
1.4653	-1.65249	7.0369	0	
1.4660	-1.65249	7.6262	0	
1.4667	-1.34843	5.82364	0	
1.4673	2.00942	4.8877	0	
1.4680	2.9216	7.0369	0	
1.4687	2.31348	7.93818	0	
1.4693	2.00942	5.82364	0	
1.4700	-1.04437	2.46118	0	
1.4707	-0.740314	1.52524	0	
1.4713	3.52971	3.05048	0	
1.4720	2.00942	2.77316	0	
1.4727	-1.95655	1.24792	0	
1.4733	0.779974	0.311981	0	
1.4740	4.44189	1.24792	0	
1.4747	3.22566	3.05048	0	
1.4753	0.171859	3.98642	0	
1.4760	-2.57788	1.83722	0	
1.4767	-4.40223	0.311981	0	
1.4773	-3.79411	0.311981	0	
1.4780	-2.57788	-0.277316	0	
1.4787	-0.740314	0.311981	0	
1.4793	-0.740314	0.935943	0	
1.4800	-1.95655	-0.589297	0	
1.4807	-2.57788	-2.11454	0	
1.4813	-0.132199	-4.26374	0	
1.4820	0.171859	-8.52748	0	
1.4827	-1.95655	-8.52748	0	
1.4833	-2.57788	-3.05048	0	
1.4840	0.171859	-0.277316	0	
1.4847	1.38809	-2.42652	0	
1.4853	0.475916	-3.36246	0	
1.4860	0.171859	-1.52524	0	
1.4867	-1.34843	0.311981	0	
1.4873	-3.49005	0	0	
1.4880	-3.49005	-0.277316	0	
1.4887	-1.04437	0.623962	0	
1.4893	-0.436257	0.311981	0	
1.4900	-0.740314	0.623962	0	
1.4907	0.475916	1.83722	0	
1.4913	2.00942	0.623962	0	
1.4920	1.70537	-1.52524	0	
1.4927	0.779974	0	0	
1.4933	1.08403	0.935943	0	
1.4940	1.70537	-1.83722	0	
1.4947	1.08403	-2.42652	0	
1.4953	1.38809	-0.589297	0	
1.4960	1.08403	-1.52524	0	
1.4967	-1.04437	-3.63978	0	
1.4973	-0.740314	-3.05048	0	
1.4980	2.9216	-2.11454	0	
1.4987	3.83377	-2.11454	0	
1.4993	1.38809	-0.901278	0	
1.5000	-0.436257	0	0	
1.5007	-0.436257	-1.21326	0	
1.5013	1.08403	0.311981	0	
1.5020	4.13783	3.98642	0	
1.5027	5.67134	4.8877	0	
1.5033	2.9216	5.82364	0	
1.5040	1.08403	7.6262	0	
1.5047	2.9216	5.51166	0	
1.5053	2.61754	2.1492	0	
1.5060	-0.132199	1.24792	0	
1.5067	0.171859	-1.21326	0	
1.5073	1.08403	-0.589297	0	
1.5080	-1.04437	4.57572	0	
1.5087	-3.49005	5.19968	0	
1.5093	-3.186	2.46118	0	
1.5100	-2.57788	2.46118	0	
1.5107	-2.88194	1.52524	0	
1.5113	-2.27382	-1.52524	0	
1.5120	-2.88194	-1.21326	0	
1.5127	-5.63168	0.935943	0	
1.5133	-6.23979	1.83722	0	
1.5140	-4.09817	3.67444	0	
1.5147	-2.57788	3.98642	0	
1.5153	-1.65249	0.623962	0	
1.5160	-1.65249	-1.83722	0	
1.5167	-3.49005	-1.52524	0	
1.5173	-3.79411	-1.52524	0	
1.5180	-3.186	-3.95176	0	
1.5187	-4.40223	-4.26374	0	
1.5193	-1.34843	-2.42652	0	
1.5200	3.22566	-2.11454	0	
1.5207	1.38809	-3.05048	0	
1.5213	-0.132199	-2.42652	0	
1.5220	2.9216	-2.11454	0	
1.5227	2.61754	-2.11454	0	
1.5233	1.38809	-1.21326	0	
1.5240	2.9216	-0.901278	0	
1.5247	0.171859	-1.52524	0	
1.5253	-2.57788	-1.83722	0	
1.5260	0.171859	-2.11454	0	
1.5267	-0.132199	-0.901278	0	
1.5273	-2.57788	0.623962	0	
1.5280	-0.436257	-0.589297	0	
1.5287	-1.65249	-1.52524	0	
1.5293	-4.70628	0.311981	0	
1.5300	-1.95655	1.24792	0	
1.5307	0.475916	-0.589297	0	
1.5313	-1.65249	-1.52524	0	
1.5320	-2.27382	-0.589297	0	
1.5327	-3.186	1.24792	0	
1.5333	-4.40223	2.1492	0	
1.5340	-2.27382	0.311981	0	
1.5347	-1.65249	-0.589297	0	
1.5353	-4.70628	0	0	
1.5360	-5.01034	-1.52524	0	
1.5367	-1.95655	-3.63978	0	
1.5373	-0.740314	-4.8877	0	
1.5380	-0.132199	-6.41294	0	
1.5387	1.08403	-6.69026	0	
1.5393	1.08403	-1.52524	0	
1.5400	0.475916	1.83722	0	
1.5407	1.38809	-0.901278	0	
1.5413	2.9216	-2.11454	0	
1.5420	2.31348	1.83722	0	
1.5427	-0.132199	5.19968	0	
1.5433	-0.740314	6.72492	0	
1.5440	0.475916	6.10096	0	
1.5447	1.70537	3.98642	0	
1.5453	1.08403	3.05048	0	
1.5460	2.00942	2.77316	0	
1.5467	3.83377	0.623962	0	
1.5473	0.779974	0.311981	0	
1.5480	-4.09817	1.24792	0	
1.5487	-3.49005	0	0	
1.5493	-1.34843	-1.21326	0	
1.5500	-2.57788	0.311981	0	
1.5507	-3.49005	0	0	
1.5513	-2.88194	-0.901278	0	
1.5520	-2.88194	-1.52524	0	
1.5527	-3.49005	-5.16502	0	
1.5533	-5.63168	-6.10096	0	
1.5540	-6.54385	-2.42652	0	
1.5547	-4.40223	-1.52524	0	
1.5553	-5.01034	-0.901278	0	
1.5560	-8.97631	3.98642	0	
1.5567	-7.45602	4.57572	0	
1.5573	-2.88194	2.1492	0	
1.5580	-2.57788	3.05048	0	
1.5587	-2.57788	3.05048	0	
1.5593	0.779974	0.935943	0	
1.5600	2.9216	1.24792	0	
1.5607	2.00942	0.935943	0	
1.5613	1.38809	-1.83722	0	
1.5620	2.9216	-1.52524	0	
1.5627	4.13783	-1.21326	0	
1.5633	2.9216	-3.95176	0	
1.5640	2.00942	-5.16502	0	
1.5647	2.9216	-3.95176	0	
1.5653	4.44189	-2.11454	0	
1.5660	4.74594	1.52524	0	
1.5667	3.83377	3.67444	0	
1.5673	2.00942	2.1492	0	
1.5680	1.38809	2.1492	0	
1.5687	2.31348	3.98642	0	
1.5693	1.70537	3.98642	0	
1.5700	0.779974	2.46118	0	
1.5707	1.70537	2.46118	0	
1.5713	1.08403	3.98642	0	
1.5720	0.171859	4.57572	0	
1.5727	3.52971	3.05048	0	
1.5733	3.83377	0.623962	0	
1.5740	0.475916	-0.901278	0	
1.5747	2.9216	-1.21326	0	
1.5753	7.19163	-0.589297	0	
1.5760	3.52971	0	0	
1.5767	-1.65249	-0.277316	0	
1.5773	-0.436257	-1.21326	0	
1.5780	1.08403	-0.277316	0	
1.5787	-1.95655	2.1492	0	
1.5793	-5.3144	2.1492	0	
1.5800	-4.40223	0	0	
1.5807	-0.436257	0	0	
1.5813	2.00942	1.24792	0	
1.5820	2.9216	2.46118	0	
1.5827	3.22566	3.98642	0	
1.5833	1.38809	5.19968	0	
1.5840	-0.132199	6.41294	0	
1.5847	2.31348	7.0369	0	
1.5853	3.83377	4.8877	0	
1.5860	1.38809	0.623962	0	
1.5867	1.70537	-1.52524	0	
1.5873	4.74594	-2.42652	0	
1.5880	4.13783	-3.63978	0	
1.5887	2.9216	-2.42652	0	
1.5893	2.9216	-0.589297	0	
1.5900	2.31348	0	0	
1.5907	2.61754	0	0	
1.5913	2.61754	-0.589297	0	
1.5920	0.475916	-1.21326	0	
1.5927	2.00942	-1.21326	0	
1.5933	5.97539	-0.589297	0	
1.5940	5.05	1.24792	0	
1.5947	3.52971	0	0	
1.5953	6.88757	-4.8877	0	
1.5960	7.49568	-6.10096	0	
1.5967	4.74594	-3.05048	0	
1.5973	4.44189	-4.26374	0	
1.5980	2.61754	-7.6262	0	
1.5987	0.171859	-7.93818	0	
1.5993	2.00942	-8.52748	0	
1.6000	3.52971	-7.00224	0	
1.6007	2.31348	-1.83722	0	
1.6013	2.31348	-0.589297	0	
1.6020	0.475916	-4.26374	0	
1.6027	-1.95655	-5.477	0	
1.6033	1.08403	-6.41294	0	
1.6040	2.9216	-7.93818	0	
1.6047	-0.740314	-4.8877	0	
1.6053	-1.65249	-2.7385	0	
1.6060	0.779974	-4.26374	0	
1.6067	2.00942	-2.42652	0	
1.6073	4.74594	0.935943	0	
1.6080	5.36728	0.311981	0	
1.6087	1.08403	0.311981	0	
1.6093	0.171859	1.83722	0	
1.6100	2.00942	1.52524	0	
1.6107	-0.740314	2.1492	0	
1.6113	-4.09817	3.36246	0	
1.6120	-3.186	2.1492	0	
1.6127	-2.88194	2.1492	0	
1.6133	-2.57788	3.98642	0	
1.6140	-1.65249	1.83722	0	
1.6147	-2.57788	-4.26374	0	
1.6153	-3.79411	-7.00224	0	
1.6160	-2.88194	-7.93818	0	
1.6167	-2.57788	-10.0527	0	
1.6173	-2.27382	-10.6767	0	
1.6180	-1.65249	-7.93818	0	
1.6187	-1.34843	-6.41294	0	
1.6193	1.38809	-6.69026	0	
1.6200	1.08403	-6.10096	0	
1.6207	-3.49005	-4.26374	0	
1.6213	-3.186	-0.589297	0	
1.6220	0.475916	3.36246	0	
1.6227	-1.65249	4.57572	0	
1.6233	-3.49005	3.98642	0	
1.6240	-0.740314	4.8877	0	
1.6247	-0.740314	3.98642	0	
1.6253	-1.34843	1.24792	0	
1.6260	0.475916	-0.901278	0	
1.6267	0.779974	-2.11454	0	
1.6273	-1.65249	-2.42652	0	
1.6280	-2.57788	-0.589297	0	
1.6287	-1.04437	1.24792	0	
1.6293	0.171859	0	0	
1.6300	-2.57788	-2.42652	0	
1.6307	-5.01034	-1.83722	0	
1.6313	-3.79411	-0.901278	0	
1.6320	-5.01034	-2.11454	0	
1.6327	-7.45602	-1.83722	0	
1.6333	-4.40223	-1.52524	0	
1.6340	-1.34843	-2.42652	0	
1.6347	-4.09817	-1.21326	0	
1.6353	-5.3144	0.311981	0	
1.6360	-4.40223	-0.277316	0	
1.6367	-5.3144	-1.52524	0	
1.6373	-5.01034	-1.52524	0	
1.6380	-3.49005	-2.11454	0	
1.6387	-2.57788	-2.11454	0	
1.6393	-1.65249	-3.05048	0	
1.6400	-2.57788	-5.477	0	
1.6407	-4.40223	-6.10096	0	
1.6413	-2.57788	-4.57572	0	
1.6420	-0.132199	-2.42652	0	
1.6427	-0.740314	0	0	
1.6433	-0.436257	1.24792	0	
1.6440	0.171859	0	0	
1.6447	-0.436257	-0.277316	0	
1.6453	2.61754	0.935943	0	
1.6460	4.13783	1.83722	0	
1.6467	1.08403	3.67444	0	
1.6473	0.171859	5.19968	0	
1.6480	2.31348	4.57572	0	
1.6487	0.779974	3.36246	0	
1.6493	-0.740314	3.05048	0	
1.6500	1.08403	2.77316	0	
1.6507	2.00942	2.77316	0	
1.6513	0.171859	2.77316	0	
1.6520	0.171859	1.24792	0	
1.6527	-1.34843	0.311981	0	
1.6533	-2.57788	0.935943	0	
1.6540	0.779974	-1.21326	0	
1.6547	1.70537	-4.26374	0	
1.6553	-2.57788	-3.36246	0	
1.6560	-2.57788	0.311981	0	
1.6567	0.779974	1.24792	0	
1.6573	0.475916	1.52524	0	
1.6580	0.171859	3.05048	0	
1.6587	0.475916	0.623962	0	
1.6593	-1.04437	-2.42652	0	
1.6600	0.171859	-0.589297	0	
1.6607	3.83377	2.46118	0	
1.6613	2.9216	1.24792	0	
1.6620	2.31348	-0.277316	0	
1.6627	3.83377	0.623962	0	
1.6633	2.00942	0.623962	0	
1.6640	2.9216	0.311981	0	
1.6647	6.88757	0.935943	0	
1.6653	5.05	0.935943	0	
1.6660	2.9216	0.623962	0	
1.6667	5.67134	3.05048	0	
1.6673	2.61754	5.82364	0	
1.6680	-4.09817	4.8877	0	
1.6687	-4.70628	3.05048	0	
1.6693	-4.40223	3.05048	0	
1.6700	-6.23979	1.83722	0	
1.6707	-5.3144	0.311981	0	
1.6713	-4.09817	0.311981	0	
1.6720	-3.49005	0	0	
1.6727	-1.65249	0	0	
1.6733	-2.27382	1.24792	0	
1.6740	-4.40223	-0.901278	0	
1.6747	-2.57788	-4.26374	0	
1.6753	-1.04437	-3.63978	0	
1.6760	-2.57788	-3.36246	0	
1.6767	-2.27382	-4.57572	0	
1.6773	-1.04437	-2.42652	0	
1.6780	-1.95655	0.311981	0	
1.6787	-3.186	0.623962	0	
1.6793	-3.49005	0.623962	0	
1.6800	-4.09817	-0.277316	0	
1.6807	-2.27382	-0.901278	0	
1.6813	-0.740314	0.311981	0	
1.6820	-2.27382	-0.901278	0	
1.6827	-0.740314	-4.26374	0	
1.6833	3.83377	-3.36246	0	
1.6840	2.9216	0.311981	0	
1.6847	-1.65249	-0.589297	0	
1.6853	-0.132199	-4.26374	0	
1.6860	2.9216	-3.95176	0	
1.6867	-0.132199	-1.52524	0	
1.6873	-1.65249	-1.83722	0	
1.6880	0.779974	-3.36246	0	
1.6887	-0.740314	-1.21326	0	
1.6893	-3.79411	0.311981	0	
1.6900	-2.57788	-0.277316	0	
1.6907	-1.65249	0.311981	0	
1.6913	-2.57788	0	0	
1.6920	-2.57788	-3.36246	0	
1.6927	-2.57788	-4.57572	0	
1.6933	-2.57788	-2.42652	0	
1.6940	-2.88194	-2.11454	0	
1.6947	-5.01034	-2.7385	0	
1.6953	-5.63168	-2.7385	0	
1.6960	-3.49005	-2.11454	0	
1.6967	-1.34843	-1.52524	0	
1.6973	-1.34843	-4.26374	0	
1.6980	-1.34843	-7.93818	0	
1.6987	-0.436257	-4.26374	0	
1.6993	0.171859	0.311981	0	
1.7000	0.475916	-1.52524	0	
1.7007	0.475916	-1.83722	0	
1.7013	0.171859	2.1492	0	
1.7020	-0.436257	3.98642	0	
1.7027	-0.740314	4.8877	0	
1.7033	-0.740314	5.82364	0	
1.7040	-0.436257	3.67444	0	
1.7047	-1.04437	3.67444	0	
1.7053	-1.34843	6.72492	0	
1.7060	-0.132199	6.72492	0	
1.7067	0.779974	4.8877	0	
1.7073	2.00942	3.67444	0	
1.7080	2.61754	-0.277316	0	
1.7087	0.171859	-6.10096	0	
1.7093	-3.186	-8.52748	0	
1.7100	-0.740314	-8.2155	0	
1.7107	3.83377	-7.93818	0	
1.7113	4.44189	-8.83946	0	
1.7120	2.31348	-8.83946	0	
1.7127	1.70537	-7.93818	0	
1.7133	-0.436257	-6.41294	0	
1.7140	-1.65249	-4.26374	0	
1.7147	-1.04437	-2.11454	0	
1.7153	-2.88194	-1.21326	0	
1.7160	-5.3144	-1.52524	0	
1.7167	-4.70628	-3.05048	0	
1.7173	-3.49005	-3.05048	0	
1.7180	-2.57788	-0.589297	0	
1.7187	-0.740314	1.24792	0	
1.7193	-0.740314	0	0	
1.7200	-1.65249	-0.901278	0	
1.7207	-1.04437	-1.21326	0	
1.7213	-1.95655	-3.05048	0	
1.7220	-4.09817	-2.42652	0	
1.7227	-1.95655	0.935943	0	
1.7233	0.475916	3.05048	0	
1.7240	-1.95655	3.05048	0	
1.7247	-4.09817	3.67444	0	
1.7253	-2.27382	3.05048	0	
1.7260	-1.65249	2.1492	0	
1.7267	-2.57788	1.24792	0	
1.7273	0.475916	0.935943	0	
1.7280	4.74594	0	0	
1.7287	4.13783	0.311981	0	
1.7293	0.779974	1.83722	0	
1.7300	1.08403	1.83722	0	
1.7307	2.61754	0.935943	0	
1.7313	1.08403	2.46118	0	
1.7320	0.171859	5.51166	0	
1.7327	0.779974	5.19968	0	
1.7333	-0.132199	1.24792	0	
1.7340	-1.04437	-0.589297	0	
1.7347	-0.132199	1.24792	0	
1.7353	-0.740314	1.83722	0	
1.7360	-2.57788	-1.21326	0	
1.7367	-2.57788	-1.52524	0	
1.7373	-0.132199	0.623962	0	
1.7380	0.779974	0.935943	0	
1.7387	-1.04437	0.311981	0	
1.7393	-0.740314	-0.589297	0	
1.7400	1.08403	-1.83722	0	
1.7407	1.08403	0.623962	0	
1.7413	0.171859	4.57572	0	
1.7420	1.08403	4.2984	0	
1.7427	2.31348	2.77316	0	
1.7433	1.70537	-0.277316	0	
1.7440	0.779974	-4.57572	0	
1.7447	0.171859	-4.8877	0	
1.7453	0.475916	-2.42652	0	
1.7460	1.70537	-2.42652	0	
1.7467	2.9216	-1.52524	0	
1.7473	2.61754	-1.21326	0	
1.7480	1.38809	-3.36246	0	
1.7487	-0.436257	-3.36246	0	
1.7493	-1.34843	-0.277316	0	
1.7500	0.779974	1.52524	0	
1.7507	3.83377	3.36246	0	
1.7513	5.05	4.2984	0	
1.7520	4.74594	0.623962	0	
1.7527	3.83377	-1.83722	0	
1.7533	2.9216	0	0	
1.7540	2.00942	1.83722	0	
1.7547	1.08403	0.935943	0	
1.7553	1.38809	0.311981	0	
1.7560	2.00942	0.311981	0	
1.7567	0.779974	0	0	
1.7573	1.08403	0.311981	0	
1.7580	3.22566	2.46118	0	
1.7587	3.83377	3.98642	0	
1.7593	2.00942	1.24792	0	
1.7600	1.38809	-1.52524	0	
1.7607	1.08403	-2.42652	0	
1.7613	-0.132199	-1.52524	0	
1.7620	-0.740314	-0.589297	0	
1.7627	-0.740314	0.935943	0	
1.7633	-3.186	2.46118	0	
1.7640	-5.3144	3.36246	0	
1.7647	-4.40223	3.05048	0	
1.7653	-2.57788	1.52524	0	
1.7660	-3.49005	0.311981	0	
1.7667	-2.88194	0.623962	0	
1.7673	-1.65249	0.935943	0	
1.7680	-2.27382	0.311981	0	
1.7687	-3.186	0.935943	0	
1.7693	-3.186	2.1492	0	
1.7700	-3.186	0.311981	0	
1.7707	-0.740314	-1.52524	0	
1.7713	1.70537	0.935943	0	
1.7720	0.779974	1.24792	0	
1.7727	-0.132199	-1.21326	0	
1.7733	2.00942	-1.21326	0	
1.7740	2.00942	0.311981	0	
1.7747	-1.34843	0.623962	0	
1.7753	-2.27382	1.24792	0	
1.7760	-1.34843	3.67444	0	
1.7767	-0.132199	4.57572	0	
1.7773	2.00942	0.311981	0	
1.7780	3.83377	-5.477	0	
1.7787	2.61754	-6.10096	0	
1.7793	-0.132199	-3.36246	0	
1.7800	-0.436257	-2.42652	0	
1.7807	0.779974	-0.901278	0	
1.7813	0.475916	0	0	
1.7820	0.171859	-1.83722	0	
1.7827	1.08403	-3.36246	0	
1.7833	1.38809	-5.16502	0	
1.7840	0.779974	-8.52748	0	
1.7847	0.475916	-8.52748	0	
1.7853	0.475916	-3.63978	0	
1.7860	0.171859	0.311981	0	
1.7867	-0.132199	0.311981	0	
1.7873	-1.34843	-1.52524	0	
1.7880	-2.57788	-2.11454	0	
1.7887	-3.186	-1.52524	0	
1.7893	-1.65249	-1.52524	0	
1.7900	-0.132199	-2.42652	0	
1.7907	0.171859	-2.42652	0	
1.7913	-0.740314	-0.277316	0	
1.7920	-1.65249	0.311981	0	
1.7927	-2.57788	-1.21326	0	
1.7933	-2.88194	-1.21326	0	
1.7940	-2.88194	-0.589297	0	
1.7947	-3.79411	-0.901278	0	
1.7953	-5.3144	-0.589297	0	
1.7960	-4.40223	0.311981	0	
1.7967	-1.04437	-1.52524	0	
1.7973	0.779974	-3.36246	0	
1.7980	-0.436257	-1.52524	0	
1.7987	-2.57788	0.623962	0	
1.7993	-2.57788	0.623962	0	
1.8000	-0.740314	3.36246	0	
1.8007	0.779974	5.82364	0	
1.8013	1.08403	4.2984	0	
1.8020	1.70537	3.05048	0	
1.8027	1.08403	3.36246	0	
1.8033	1.08403	3.36246	0	
1.8040	1.70537	4.8877	0	
1.8047	2.00942	4.57572	0	
1.8053	2.31348	2.1492	0	
1.8060	5.67134	4.57572	0	
1.8067	5.97539	6.41294	0	
1.8073	2.31348	3.98642	0	
1.8080	0.779974	4.8877	0	
1.8087	0.779974	6.72492	0	
1.8093	-1.34843	2.46118	0	
1.8100	-2.57788	-2.7385	0	
1.8107	-2.57788	-3.95176	0	
1.8113	-2.57788	-4.57572	0	
1.8120	-1.04437	-4.26374	0	
1.8127	-0.436257	-3.05048	0	
1.8133	-1.95655	-3.36246	0	
1.8140	-2.57788	-4.26374	0	
1.8147	-2.88194	-4.26374	0	
1.8153	-3.49005	-3.36246	0	
1.8160	-1.34843	-2.42652	0	
1.8167	-1.34843	-3.36246	0	
1.8173	-5.63168	-5.78898	0	
1.8180	-6.54385	-3.95176	0	
1.8187	-2.88194	-3.05048	0	
1.8193	-1.04437	-6.10096	0	
1.8200	-0.740314	-5.78898	0	
1.8207	-1.65249	-2.42652	0	
1.8213	-4.09817	-2.7385	0	
1.8220	-2.88194	-6.10096	0	
1.8227	-1.34843	-6.41294	0	
1.8233	-3.49005	-6.10096	0	
1.8240	-6.23979	-7.00224	0	
1.8247	-6.23979	-6.10096	0	
1.8253	-5.3144	-3.36246	0	
1.8260	-4.09817	-0.589297	0	
1.8267	-3.186	0.623962	0	
1.8273	-4.09817	1.24792	0	
1.8280	-4.09817	-0.589297	0	
1.8287	-2.57788	-3.63978	0	
1.8293	-2.57788	-2.42652	0	
1.8300	-1.95655	0.623962	0	
1.8307	-0.740314	0.935943	0	
1.8313	-0.740314	2.1492	0	
1.8320	-1.04437	3.98642	0	
1.8327	0.171859	0.623962	0	
1.8333	0.171859	-1.83722	0	
1.8340	0.171859	1.24792	0	
1.8347	2.00942	2.1492	0	
1.8353	3.22566	-1.52524	0	
1.8360	2.9216	0	0	
1.8367	3.22566	2.1492	0	
1.8373	2.9216	-1.21326	0	
1.8380	1.08403	-2.11454	0	
1.8387	1.70537	0.623962	0	
1.8393	4.74594	-2.11454	0	
1.8400	5.36728	-5.16502	0	
1.8407	4.74594	-1.52524	0	
1.8413	5.97539	-0.901278	0	
1.8420	6.58351	-4.8877	0	
1.8427	6.58351	-2.42652	0	
1.8433	5.67134	2.77316	0	
1.8440	4.74594	2.1492	0	
1.8447	3.22566	-0.277316	0	
1.8453	2.9216	-1.52524	0	
1.8460	4.74594	-2.7385	0	
1.8467	9.02919	-2.11454	0	
1.8473	10.2454	-0.901278	0	
1.8480	5.05	-1.21326	0	
1.8487	0.779974	-0.901278	0	
1.8493	2.31348	-1.52524	0	
1.8500	4.74594	-3.05048	0	
1.8507	4.74594	-1.83722	0	
1.8513	4.44189	-0.277316	0	
1.8520	4.74594	-1.21326	0	
1.8527	3.83377	-1.52524	0	
1.8533	4.13783	-2.11454	0	
1.8540	6.58351	-4.26374	0	
1.8547	6.27945	-5.16502	0	
1.8553	1.70537	-3.36246	0	
1.8560	-0.740314	-2.42652	0	
1.8567	-0.436257	-2.7385	0	
1.8573	-2.57788	-2.42652	0	
1.8580	-3.49005	-0.589297	0	
1.8587	0.171859	0.623962	0	
1.8593	2.9216	-1.83722	0	
1.8600	2.00942	-5.16502	0	
1.8607	1.38809	-6.10096	0	
1.8613	1.70537	-5.477	0	
1.8620	1.70537	-3.36246	0	
1.8627	2.31348	-0.589297	0	
1.8633	0.779974	0.311981	0	
1.8640	-1.65249	0.935943	0	
1.8647	-0.436257	2.77316	0	
1.8653	1.08403	0.311981	0	
1.8660	0.171859	-3.63978	0	
1.8667	1.08403	-1.52524	0	
1.8673	-0.740314	3.05048	0	
1.8680	-5.3144	3.05048	0	
1.8687	-4.09817	2.46118	0	
1.8693	-1.34843	3.98642	0	
1.8700	-2.88194	1.83722	0	
1.8707	-3.49005	-1.52524	0	
1.8713	-1.95655	-0.589297	0	
1.8720	-4.40223	2.1492	0	
1.8727	-7.15197	1.24792	0	
1.8733	-7.76008	-0.589297	0	
1.8740	-9.90171	-1.52524	0	
1.8747	-9.29359	0	0	
1.8753	-6.54385	1.83722	0	
1.8760	-8.3682	2.46118	0	
1.8767	-9.90171	2.1492	0	
1.8773	-5.93574	3.98642	0	
1.8780	-3.49005	6.10096	0	
1.8787	-3.49005	5.82364	0	
1.8793	-2.27382	3.67444	0	
1.8800	-2.88194	3.05048	0	
1.8807	-5.01034	3.98642	0	
1.8813	-3.49005	5.51166	0	
1.8820	-1.34843	7.34888	0	
1.8827	-3.49005	8.56214	0	
1.8833	-5.3144	10.9887	0	
1.8840	-5.01034	12.5139	0	
1.8847	-5.3144	10.3994	0	
1.8853	-5.93574	7.93818	0	
1.8860	-6.23979	8.56214	0	
1.8867	-6.54385	10.0874	0	
1.8873	-4.40223	8.25016	0	
1.8880	-3.186	6.10096	0	
1.8887	-5.01034	6.41294	0	
1.8893	-5.93574	5.82364	0	
1.8900	-5.93574	3.98642	0	
1.8907	-5.3144	4.8877	0	
1.8913	-2.57788	5.51166	0	
1.8920	-2.57788	1.83722	0	
1.8927	-4.70628	-1.21326	0	
1.8933	-3.49005	-0.589297	0	
1.8940	-0.740314	-2.42652	0	
1.8947	-1.65249	-3.36246	0	
1.8953	-0.740314	-0.901278	0	
1.8960	1.08403	-2.7385	0	
1.8967	-1.65249	-7.93818	0	
1.8973	-1.65249	-5.477	0	
1.8980	2.61754	1.83722	0	
1.8987	3.52971	3.36246	0	
1.8993	3.22566	-0.589297	0	
1.9000	5.67134	-3.36246	0	
1.9007	6.58351	-4.26374	0	
1.9013	4.13783	-3.36246	0	
1.9020	2.31348	-0.589297	0	
1.9027	2.9216	0.935943	0	
1.9033	5.67134	0.311981	0	
1.9040	8.1038	1.83722	0	
1.9047	7.79974	1.24792	0	
1.9053	6.27945	-3.63978	0	
1.9060	5.67134	-4.26374	0	
1.9067	7.19163	1.24792	0	
1.9073	10.2454	0.935943	0	
1.9080	10.2454	-2.7385	0	
1.9087	6.58351	-0.589297	0	
1.9093	5.05	1.24792	0	
1.9100	5.97539	-1.52524	0	
1.9107	4.13783	-2.7385	0	
1.9113	1.08403	-2.42652	0	
1.9120	2.9216	-4.26374	0	
1.9127	5.97539	-7.31422	0	
1.9133	4.74594	-9.46342	0	
1.9140	2.61754	-8.83946	0	
1.9147	3.52971	-5.78898	0	
1.9153	3.83377	-3.36246	0	
1.9160	2.00942	-3.36246	0	
1.9167	2.61754	-2.7385	0	
1.9173	2.9216	-1.52524	0	
1.9180	0.779974	-1.83722	0	
1.9187	0.779974	-0.901278	0	
1.9193	2.00942	2.77316	0	
1.9200	-0.132199	3.67444	0	
1.9207	-2.27382	1.52524	0	
1.9213	-1.65249	1.24792	0	
1.9220	-0.132199	2.1492	0	
1.9227	0.475916	2.46118	0	
1.9233	0.171859	2.1492	0	
1.9240	-1.04437	2.46118	0	
1.9247	0.475916	1.83722	0	
1.9253	2.31348	0.311981	0	
1.9260	0.779974	1.24792	0	
1.9267	1.08403	2.46118	0	
1.9273	3.52971	-0.277316	0	
1.9280	1.70537	-3.36246	0	
1.9287	-1.04437	-3.05048	0	
1.9293	0.171859	-2.11454	0	
1.9300	-0.740314	-3.36246	0	
1.9307	-2.57788	-3.05048	0	
1.9313	-1.04437	-2.11454	0	
1.9320	-1.34843	-5.16502	0	
1.9327	-5.3144	-8.2155	0	
1.9333	-4.70628	-8.83946	0	
1.9340	-1.95655	-9.15144	0	
1.9347	-1.95655	-8.83946	0	
1.9353	-2.27382	-6.69026	0	
1.9360	-1.65249	-7.00224	0	
1.9367	-1.95655	-9.74074	0	
1.9373	-1.95655	-9.74074	0	
1.9380	-1.65249	-7.6262	0	
1.9387	-0.740314	-5.16502	0	
1.9393	0.171859	-3.36246	0	
1.9400	0.779974	-4.26374	0	
1.9407	-0.740314	-5.78898	0	
1.9413	-2.57788	-3.36246	0	
1.9420	-3.49005	-0.589297	0	
1.9427	-2.27382	-1.83722	0	
1.9433	-1.04437	-2.42652	0	
1.9440	-3.79411	-0.277316	0	
1.9447	-6.84791	0.311981	0	
1.9453	-6.23979	-1.52524	0	
1.9460	-4.40223	-2.42652	0	
1.9467	-1.65249	-2.42652	0	
1.9473	0.171859	-2.42652	0	
1.9480	-1.95655	-0.277316	0	
1.9487	-5.63168	1.83722	0	
1.9493	-4.40223	0.623962	0	
1.9500	-1.04437	-0.589297	0	
1.9507	-0.740314	1.52524	0	
1.9513	-2.27382	4.8877	0	
1.9520	-2.57788	6.10096	0	
1.9527	-1.65249	4.8877	0	
1.9533	-2.27382	3.98642	0	
1.9540	-3.186	3.05048	0	
1.9547	-0.740314	0.623962	0	
1.9553	0.779974	-3.36246	0	
1.9560	-1.34843	-4.8877	0	
1.9567	-2.27382	-2.7385	0	
1.9573	-1.65249	-0.589297	0	
1.9580	-2.88194	0.311981	0	
1.9587	-2.57788	1.24792	0	
1.9593	-2.27382	2.1492	0	
1.9600	-3.186	2.46118	0	
1.9607	-1.65249	3.05048	0	
1.9613	1.08403	2.77316	0	
1.9620	1.08403	1.83722	0	
1.9627	2.61754	1.83722	0	
1.9633	3.83377	3.05048	0	
1.9640	1.08403	2.77316	0	
1.9647	-0.132199	0.311981	0	
1.9653	1.38809	0.623962	0	
1.9660	-0.436257	2.77316	0	
1.9667	-3.186	1.52524	0	
1.9673	-2.88194	-0.589297	0	
1.9680	-1.95655	-1.52524	0	
1.9687	-1.65249	-4.26374	0	
1.9693	-1.65249	-9.74074	0	
1.9700	-3.79411	-9.15144	0	
1.9707	-4.40223	-3.36246	0	
1.9713	-3.186	-3.63978	0	
1.9720	-4.09817	-7.00224	0	
1.9727	-3.186	-5.16502	0	
1.9733	-0.740314	-2.7385	0	
1.9740	-2.88194	-5.16502	0	
1.9747	-3.49005	-6.10096	0	
1.9753	-0.740314	-3.63978	0	
1.9760	-4.40223	-2.7385	0	
1.9767	-7.15197	-1.52524	0	
1.9773	-1.65249	0.311981	0	
1.9780	-0.436257	-0.901278	0	
1.9787	-2.57788	-2.7385	0	
1.9793	0.779974	-1.52524	0	
1.9800	2.31348	0	0	
1.9807	-2.27382	0.623962	0	
1.9813	-3.49005	2.1492	0	
1.9820	-1.65249	3.05048	0	
1.9827	-0.740314	2.77316	0	
1.9833	-1.04437	1.24792	0	
1.9840	-3.49005	-0.277316	0	
1.9847	-4.40223	0.311981	0	
1.9853	-2.27382	1.52524	0	
1.9860	-4.40223	0.311981	0	
1.9867	-8.06414	-3.05048	0	
1.9873	-6.23979	-3.36246	0	
1.9880	-4.09817	-2.42652	0	
1.9887	-4.70628	-2.42652	0	
1.9893	-3.49005	-2.11454	0	
1.9900	-2.57788	-0.589297	0	
1.9907	-4.70628	0.311981	0	
1.9913	-8.06414	0	0	
1.9920	-8.3682	-0.589297	0	
1.9927	-5.01034	-1.21326	0	
1.9933	-3.49005	-1.83722	0	
1.9940	-5.3144	-1.83722	0	
1.9947	-3.79411	-2.42652	0	
1.9953	0.475916	-3.36246	0	
1.9960	-0.132199	-0.277316	0	
1.9967	-2.57788	2.1492	0	
1.9973	-1.65249	-0.589297	0	
1.9980	-0.436257	-2.42652	0	
1.9987	0.779974	0.311981	0	
1.9993	1.38809	0.311981	0	
2.0000	1.08403	-1.52524	0	
2.0007	1.38809	-0.901278	0	
2.0013	1.38809	-1.21326	0	
2.0020	1.70537	-2.11454	0	
2.0027	4.44189	0.311981	0	
2.0033	4.74594	2.46118	0	
2.0040	1.38809	0.311981	0	
2.0047	1.38809	-1.52524	0	
2.0053	3.83377	-0.901278	0	
2.0060	3.83377	-0.901278	0	
2.0067	4.74594	-1.52524	0	
2.0073	3.22566	-0.277316	0	
2.0080	-0.740314	0.935943	0	
2.0087	1.70537	0.623962	0	
2.0093	6.58351	0.623962	0	
2.0100	4.44189	-0.589297	0	
2.0107	2.00942	-0.589297	0	
2.0113	4.44189	3.05048	0	
2.0120	4.44189	2.77316	0	
2.0127	2.31348	-0.901278	0	
2.0133	2.00942	0.935943	0	
2.0140	1.38809	3.05048	0	
2.0147	-0.132199	0.311981	0	
2.0153	0.171859	-0.277316	0	
2.0160	2.00942	2.1492	0	
2.0167	2.9216	0	0	
2.0173	2.31348	-2.42652	0	
2.0180	0.171859	-2.11454	0	
2.0187	1.08403	-0.589297	0	
2.0193	4.44189	1.24792	0	
2.0200	5.67134	-0.277316	0	
2.0207	5.67134	-2.42652	0	
2.0213	5.05	-0.277316	0	
2.0220	4.13783	1.24792	0	
2.0227	4.44189	-1.21326	0	
2.0233	5.36728	0.623962	0	
2.0240	3.83377	4.8877	0	
2.0247	2.9216	1.52524	0	
2.0253	4.74594	-1.52524	0	
2.0260	6.58351	1.24792	0	
2.0267	5.97539	1.24792	0	
2.0273	4.44189	0.311981	0	
2.0280	2.61754	2.1492	0	
2.0287	2.00942	0	0	
2.0293	3.83377	-2.42652	0	
2.0300	4.74594	1.24792	0	
2.0307	4.44189	1.24792	0	
2.0313	5.36728	-3.63978	0	
2.0320	5.67134	-2.42652	0	
2.0327	5.67134	0.311981	0	
2.0333	6.58351	-2.42652	0	
2.0340	5.97539	-4.26374	0	
2.0347	4.44189	-7.00224	0	
2.0353	2.9216	-11.578	0	
2.0360	2.00942	-8.83946	0	
2.0367	2.00942	-1.52524	0	
2.0373	3.52971	-0.589297	0	
2.0380	4.13783	-1.52524	0	
2.0387	4.74594	0.311981	0	
2.0393	5.36728	-0.901278	0	
2.0400	4.13783	-4.26374	0	
2.0407	2.31348	-4.57572	0	
2.0413	2.00942	-3.63978	0	
2.0420	1.70537	-2.42652	0	
2.0427	0.171859	-0.277316	0	
2.0433	-0.740314	0.623962	0	
2.0440	0.779974	1.24792	0	
2.0447	2.00942	4.8877	0	
2.0453	0.171859	7.34888	0	
2.0460	-1.34843	5.19968	0	
2.0467	-0.740314	2.46118	0	
2.0473	-1.34843	3.05048	0	
2.0480	-2.27382	3.05048	0	
2.0487	-2.57788	2.46118	0	
2.0493	-2.57788	3.98642	0	
2.0500	-2.57788	5.82364	0	
2.0507	-3.186	4.8877	0	
2.0513	-5.93574	3.98642	0	
2.0520	-5.63168	4.8877	0	
2.0527	-2.57788	3.36246	0	
2.0533	-2.88194	0.311981	0	
2.0540	-3.49005	1.24792	0	
2.0547	-1.34843	2.77316	0	
2.0553	-1.65249	-0.277316	0	
2.0560	-3.186	-2.7385	0	
2.0567	-1.65249	0.311981	0	
2.0573	-1.04437	0.623962	0	
2.0580	-1.34843	-2.42652	0	
2.0587	0.171859	-1.21326	0	
2.0593	1.08403	0.311981	0	
2.0600	1.38809	-3.05048	0	
2.0607	1.38809	-2.42652	0	
2.0613	-0.740314	1.24792	0	
2.0620	-2.88194	-1.52524	0	
2.0627	-2.57788	-2.11454	0	
2.0633	-2.27382	3.67444	0	
2.0640	-1.65249	6.72492	0	
2.0647	-2.27382	6.41294	0	
2.0653	-4.40223	7.34888	0	
2.0660	-4.09817	5.51166	0	
2.0667	-2.57788	3.67444	0	
2.0673	-4.70628	6.41294	0	
2.0680	-5.3144	6.72492	0	
2.0687	-2.57788	2.77316	0	
2.0693	-3.49005	3.67444	0	
2.0700	-5.63168	6.10096	0	
2.0707	-4.40223	1.24792	0	
2.0713	-4.09817	-3.36246	0	
2.0720	-5.3144	-1.21326	0	
2.0727	-3.79411	1.24792	0	
2.0733	-0.740314	0.623962	0	
2.0740	0.171859	0.935943	0	
2.0747	0.779974	1.52524	0	
2.0753	-0.132199	0.935943	0	
2.0760	-1.34843	2.46118	0	
2.0767	0.171859	3.67444	0	
2.0773	1.08403	0.311981	0	
2.0780	-0.740314	-0.901278	0	
2.0787	-1.65249	4.2984	0	
2.0793	0.171859	6.10096	0	
2.0800	-0.436257	1.24792	0	
2.0807	-2.27382	-0.589297	0	
2.0813	-0.436257	3.36246	0	
2.0820	4.13783	1.83722	0	
2.0827	5.97539	-3.36246	0	
2.0833	3.83377	-3.36246	0	
2.0840	2.9216	-1.52524	0	
2.0847	2.9216	-3.63978	0	
2.0853	2.9216	-4.26374	0	
2.0860	3.52971	-0.901278	0	
2.0867	4.44189	0.311981	0	
2.0873	2.9216	-1.83722	0	
2.0880	2.61754	-1.52524	0	
2.0887	3.83377	-0.589297	0	
2.0893	3.22566	-2.11454	0	
2.0900	2.00942	-2.7385	0	
2.0907	2.31348	-1.83722	0	
2.0913	2.00942	-0.589297	0	
2.0920	-0.436257	0.623962	0	
2.0927	-2.27382	0	0	
2.0933	-2.27382	-3.95176	0	
2.0940	-1.65249	-6.10096	0	
2.0947	-3.49005	-5.16502	0	
2.0953	-5.3144	-5.16502	0	
2.0960	-4.09817	-5.477	0	
2.0967	-3.49005	-5.16502	0	
2.0973	-5.3144	-5.477	0	
2.0980	-6.23979	-4.26374	0	
2.0987	-4.40223	-0.901278	0	
2.0993	-4.70628	-1.83722	0	
2.1000	-7.15197	-6.10096	0	
2.1007	-7.15197	-7.00224	0	
2.1013	-5.93574	-4.26374	0	
2.1020	-7.15197	-3.36246	0	
2.1027	-7.76008	-3.63978	0	
2.1033	-5.3144	-4.26374	0	
2.1040	-3.49005	-4.26374	0	
2.1047	-4.70628	-4.26374	0	
2.1053	-4.40223	-4.26374	0	
2.1060	-2.57788	-3.95176	0	
2.1067	-3.49005	-3.36246	0	
2.1073	-6.84791	-3.63978	0	
2.1080	-8.67225	-3.05048	0	
2.1087	-7.45602	-0.901278	0	
2.1093	-7.76008	-0.589297	0	
2.1100	-8.97631	0.311981	0	
2.1107	-7.76008	1.24792	0	
2.1113	-5.3144	-1.83722	0	
2.1120	-5.3144	-3.63978	0	
2.1127	-5.3144	-1.83722	0	
2.1133	-5.01034	-1.52524	0	
2.1140	-3.49005	0	0	
2.1147	-3.49005	3.36246	0	
2.1153	-6.23979	2.46118	0	
2.1160	-8.06414	-1.52524	0	
2.1167	-5.3144	-0.589297	0	
2.1173	-2.88194	1.24792	0	
2.1180	-3.186	-1.52524	0	
2.1187	-2.57788	-5.477	0	
2.1193	-0.740314	-7.00224	0	
2.1200	1.38809	-5.16502	0	
2.1207	4.13783	-2.42652	0	
2.1213	3.83377	-1.52524	0	
2.1220	1.70537	0.623962	0	
2.1227	3.22566	2.77316	0	
2.1233	5.67134	0.311981	0	
2.1240	3.83377	-0.589297	0	
2.1247	1.38809	2.1492	0	
2.1253	2.31348	2.1492	0	
2.1260	3.83377	-2.11454	0	
2.1267	3.22566	-2.7385	0	
2.1273	0.779974	-0.589297	0	
2.1280	-1.95655	2.1492	0	
2.1287	-3.49005	4.8877	0	
2.1293	-2.57788	3.98642	0	
2.1300	0.171859	2.1492	0	
2.1307	2.00942	4.2984	0	
2.1313	2.00942	5.51166	0	
2.1320	2.00942	2.46118	0	
2.1327	2.61754	-0.589297	0	
2.1333	2.61754	-1.52524	0	
2.1340	2.00942	0.311981	0	
2.1347	2.00942	2.1492	0	
2.1353	2.00942	0.935943	0	
2.1360	1.08403	0.311981	0	
2.1367	1.38809	2.1492	0	
2.1373	2.00942	1.24792	0	
2.1380	0.171859	-2.7385	0	
2.1387	-1.95655	-3.36246	0	
2.1393	-1.65249	-0.589297	0	
2.1400	-0.740314	-0.901278	0	
2.1407	-1.95655	-5.16502	0	
2.1413	-1.95655	-5.78898	0	
2.1420	-1.65249	-1.52524	0	
2.1427	-2.27382	1.52524	0	
2.1433	-0.132199	3.05048	0	
2.1440	2.61754	3.67444	0	
2.1447	0.779974	3.05048	0	
2.1453	0.171859	1.83722	0	
2.1460	2.61754	0.311981	0	
2.1467	1.38809	0	0	
2.1473	-0.132199	2.46118	0	
2.1480	2.31348	3.98642	0	
2.1487	2.9216	2.46118	0	
2.1493	2.9216	1.52524	0	
2.1500	4.13783	3.98642	0	
2.1507	1.08403	5.19968	0	
2.1513	-2.27382	3.05048	0	
2.1520	0.171859	1.52524	0	
2.1527	1.08403	4.2984	0	
2.1533	-1.65249	5.51166	0	
2.1540	0.171859	1.24792	0	
2.1547	1.70537	0.311981	0	
2.1553	0.171859	3.67444	0	
2.1560	1.08403	2.77316	0	
2.1567	3.22566	1.24792	0	
2.1573	1.08403	3.67444	0	
2.1580	-1.04437	3.05048	0	
2.1587	-1.34843	1.24792	0	
2.1593	-2.88194	3.98642	0	
2.1600	-2.57788	3.98642	0	
2.1607	-0.436257	0	0	
2.1613	-2.57788	0.311981	0	
2.1620	-6.84791	1.24792	0	
2.1627	-5.01034	-1.83722	0	
2.1633	0.171859	-1.83722	0	
2.1640	0.475916	0.935943	0	
2.1647	-0.740314	-1.21326	0	
2.1653	0.779974	-3.63978	0	
2.1660	0.475916	-0.589297	0	
2.1667	-1.95655	2.1492	0	
2.1673	-2.27382	3.05048	0	
2.1680	-0.740314	6.41294	0	
2.1687	-0.132199	6.10096	0	
2.1693	-0.436257	0.935943	0	
2.1700	-0.740314	1.83722	0	
2.1707	0.171859	6.10096	0	
2.1713	2.00942	2.77316	0	
2.1720	2.00942	-2.42652	0	
2.1727	1.08403	-2.42652	0	
2.1733	2.9216	-4.8877	0	
2.1740	3.83377	-7.00224	0	
2.1747	1.08403	-4.8877	0	
2.1753	-0.740314	-6.41294	0	
2.1760	-0.436257	-8.83946	0	
2.1767	-0.740314	-6.10096	0	
2.1773	-2.57788	-6.10096	0	
2.1780	-2.88194	-8.52748	0	
2.1787	-1.04437	-6.69026	0	
2.1793	1.38809	-7.00224	0	
2.1800	1.38809	-10.3647	0	
2.1807	0.475916	-6.41294	0	
2.1813	1.08403	-1.52524	0	
2.1820	1.08403	-0.277316	0	
2.1827	-0.132199	2.77316	0	
2.1833	0.171859	2.46118	0	
2.1840	0.779974	-0.901278	0	
2.1847	-0.740314	3.05048	0	
2.1853	-1.95655	6.10096	0	
2.1860	-3.49005	2.46118	0	
2.1867	-4.09817	3.67444	0	
2.1873	-3.186	6.10096	0	
2.1880	-3.49005	0.935943	0	
2.1887	-5.3144	-0.589297	0	
2.1893	-5.01034	2.1492	0	
2.1900	-1.34843	0	0	
2.1907	1.38809	-2.11454	0	
2.1913	1.38809	-0.277316	0	
2.1920	1.08403	-1.52524	0	
2.1927	0.171859	-2.7385	0	
2.1933	-2.88194	-0.277316	0	
2.1940	-4.40223	1.24792	0	
2.1947	-1.65249	2.1492	0	
2.1953	-1.04437	2.77316	0	
2.1960	-2.27382	-0.901278	0	
2.1967	0.171859	-5.78898	0	
2.1973	2.9216	-6.10096	0	
2.1980	2.9216	-4.26374	0	
2.1987	2.9216	-2.11454	0	
2.1993	4.74594	-1.52524	0	
2.2000	5.05	-2.42652	0	
2.2007	4.74594	-2.11454	0	
2.2013	5.05	-1.21326	0	
2.2020	5.36728	-1.83722	0	
2.2027	4.74594	-3.95176	0	
2.2033	2.9216	-4.57572	0	
2.2040	1.08403	-3.95176	0	
2.2047	2.00942	-3.36246	0	
2.2053	2.31348	-4.26374	0	
2.2060	3.52971	-4.26374	0	
2.2067	6.58351	-3.36246	0	
2.2073	6.27945	-0.901278	0	
2.2080	2.9216	1.24792	0	
2.2087	3.83377	0.311981	0	
2.2093	4.44189	-1.52524	0	
2.2100	0.779974	-0.589297	0	
2.2107	-0.740314	1.24792	0	
2.2113	0.475916	0.311981	0	
2.2120	1.08403	0	0	
2.2127	1.08403	0.311981	0	
2.2133	0.779974	-2.11454	0	
2.2140	0.779974	-5.16502	0	
2.2147	2.00942	-5.78898	0	
2.2153	1.38809	-4.26374	0	
2.2160	-0.740314	-3.05048	0	
2.2167	0.779974	-1.52524	0	
2.2173	2.31348	-2.42652	0	
2.2180	2.00942	-4.26374	0	
2.2187	3.52971	-5.78898	0	
2.2193	4.13783	-7.6262	0	
2.2200	2.61754	-8.83946	0	
2.2207	1.38809	-7.93818	0	
2.2213	-0.740314	-3.36246	0	
2.2220	-1.95655	1.52524	0	
2.2227	-0.740314	1.52524	0	
2.2233	-0.740314	-2.42652	0	
2.2240	-1.65249	-1.52524	0	
2.2247	1.70537	1.83722	0	
2.2253	2.00942	1.24792	0	
2.2260	-0.740314	0	0	
2.2267	2.00942	1.83722	0	
2.2273	5.97539	0.623962	0	
2.2280	5.67134	-1.83722	0	
2.2287	6.58351	-0.589297	0	
2.2293	7.79974	0.935943	0	
2.2300	6.27945	1.24792	0	
2.2307	5.05	3.05048	0	
2.2313	5.67134	1.24792	0	
2.2320	4.44189	-3.05048	0	
2.2327	2.61754	-1.52524	0	
2.2333	2.61754	0.935943	0	
2.2340	3.83377	-2.42652	0	
2.2347	2.00942	-4.26374	0	
2.2353	-2.88194	-1.52524	0	
2.2360	-4.09817	0	0	
2.2367	-1.95655	0.311981	0	
2.2373	-2.57788	2.1492	0	
2.2380	-4.40223	5.19968	0	
2.2387	-3.49005	6.72492	0	
2.2393	-3.49005	4.8877	0	
2.2400	-4.40223	3.05048	0	
2.2407	-4.09817	3.36246	0	
2.2413	-4.70628	4.8877	0	
2.2420	-8.97631	6.10096	0	
2.2427	-11.1179	4.8877	0	
2.2433	-8.06414	2.1492	0	
2.2440	-5.3144	2.1492	0	
2.2447	-6.23979	2.77316	0	
2.2453	-6.84791	0.623962	0	
2.2460	-4.70628	-1.21326	0	
2.2467	-4.40223	0.311981	0	
2.2473	-7.45602	1.24792	0	
2.2480	-8.06414	-0.277316	0	
2.2487	-5.3144	0	0	
2.2493	-5.63168	3.05048	0	
2.2500	-10.2058	5.19968	0	
2.2507	-11.422	6.41294	0	
2.2513	-7.15197	7.6262	0	
2.2520	-3.49005	6.41294	0	
2.2527	-2.88194	3.05048	0	
2.2533	-3.186	2.77316	0	
2.2540	-2.57788	1.24792	0	
2.2547	-0.436257	-1.21326	0	
2.2553	0.171859	1.52524	0	
2.2560	-2.27382	2.77316	0	
2.2567	-3.49005	-2.42652	0	
2.2573	-2.27382	-4.26374	0	
2.2580	-2.57788	-2.42652	0	
2.2587	-1.65249	-3.36246	0	
2.2593	-0.132199	-2.7385	0	
2.2600	-1.95655	-0.589297	0	
2.2607	-4.40223	-5.477	0	
2.2613	-3.49005	-9.74074	0	
2.2620	-2.88194	-5.477	0	
2.2627	-3.49005	-1.52524	0	
2.2633	-1.65249	-2.7385	0	
2.2640	-1.95655	-3.36246	0	
2.2647	-4.09817	-2.42652	0	
2.2653	-2.88194	-2.42652	0	
2.2660	-1.34843	-2.42652	0	
2.2667	-1.95655	-2.11454	0	
2.2673	-0.740314	-2.42652	0	
2.2680	0.475916	-2.11454	0	
2.2687	-1.65249	0	0	
2.2693	-2.57788	2.1492	0	
2.2700	-3.49005	4.57572	0	
2.2707	-6.54385	6.72492	0	
2.2713	-5.63168	5.82364	0	
2.2720	-2.57788	2.46118	0	
2.2727	-4.09817	1.83722	0	
2.2733	-3.49005	2.46118	0	
2.2740	0.779974	1.24792	0	
2.2747	1.08403	0	0	
2.2753	-0.436257	1.24792	0	
2.2760	0.171859	1.83722	0	
2.2767	-1.34843	0.311981	0	
2.2773	-2.57788	-0.901278	0	
2.2780	1.08403	-1.83722	0	
2.2787	4.13783	-3.36246	0	
2.2793	2.31348	-4.26374	0	
2.2800	-0.740314	-3.63978	0	
2.2807	0.171859	-3.95176	0	
2.2813	2.9216	-6.69026	0	
2.2820	2.00942	-6.69026	0	
2.2827	-0.436257	-2.42652	0	
2.2833	0.171859	1.24792	0	
2.2840	-0.740314	0.935943	0	
2.2847	-0.740314	0.311981	0	
2.2853	2.31348	1.24792	0	
2.2860	1.70537	2.1492	0	
2.2867	-0.436257	1.24792	0	
2.2873	3.83377	-1.52524	0	
2.2880	4.44189	-2.11454	0	
2.2887	-1.34843	1.24792	0	
2.2893	-0.132199	3.98642	0	
2.2900	3.83377	2.77316	0	
2.2907	1.08403	-1.21326	0	
2.2913	-2.27382	-2.11454	0	
2.2920	-1.65249	-0.589297	0	
2.2927	-2.57788	-1.83722	0	
2.2933	-4.40223	-2.7385	0	
2.2940	-4.40223	0.311981	0	
2.2947	-4.09817	2.77316	0	
2.2953	-2.57788	-0.589297	0	
2.2960	-0.740314	-3.95176	0	
2.2967	-0.740314	-5.16502	0	
2.2973	-1.65249	-3.63978	0	
2.2980	-0.740314	-0.901278	0	
2.2987	1.70537	0.311981	0	
2.2993	2.31348	-1.52524	0	
2.3000	1.08403	-0.901278	0	
2.3007	0.171859	0.623962	0	
2.3013	0.171859	0.311981	0	
2.3020	2.9216	0.623962	0	
2.3027	6.58351	2.46118	0	
2.3033	7.19163	1.24792	0	
2.3040	5.36728	-2.42652	0	
2.3047	5.36728	-3.05048	0	
2.3053	5.97539	-0.277316	0	
2.3060	5.67134	0.311981	0	
2.3067	6.58351	1.24792	0	
2.3073	5.36728	3.98642	0	
2.3080	2.61754	4.2984	0	
2.3087	3.52971	1.24792	0	
2.3093	5.67134	1.83722	0	
2.3100	3.83377	2.77316	0	
2.3107	2.00942	-0.589297	0	
2.3113	3.52971	-2.42652	0	
2.3120	5.97539	-2.42652	0	
2.3127	6.88757	-5.78898	0	
2.3133	5.05	-6.69026	0	
2.3140	3.22566	-3.36246	0	
2.3147	4.74594	-2.7385	0	
2.3153	5.97539	-2.11454	0	
2.3160	2.61754	0.935943	0	
2.3167	-1.34843	0.311981	0	
2.3173	-1.34843	-3.05048	0	
2.3180	0.779974	-3.36246	0	
2.3187	1.38809	-3.36246	0	
2.3193	0.779974	-5.16502	0	
2.3200	1.38809	-6.69026	0	
2.3207	2.00942	-6.10096	0	
2.3213	1.38809	-3.95176	0	
2.3220	1.08403	-1.83722	0	
2.3227	-0.740314	-1.52524	0	
2.3233	-3.49005	0.311981	0	
2.3240	-4.09817	1.52524	0	
2.3247	-3.79411	0.311981	0	
2.3253	-5.3144	1.24792	0	
2.3260	-4.70628	5.51166	0	
2.3267	-2.88194	5.51166	0	
2.3273	-4.70628	2.1492	0	
2.3280	-6.23979	1.83722	0	
2.3287	-4.70628	2.1492	0	
2.3293	-4.40223	1.52524	0	
2.3300	-5.3144	2.46118	0	
2.3307	-5.01034	3.05048	0	
2.3313	-4.40223	0.311981	0	
2.3320	-4.09817	-2.11454	0	
2.3327	-3.49005	-3.36246	0	
2.3333	-3.186	-5.16502	0	
2.3340	-2.57788	-4.26374	0	
2.3347	0.171859	-1.21326	0	
2.3353	2.9216	-1.52524	0	
2.3360	1.70537	-4.26374	0	
2.3367	1.08403	-4.57572	0	
2.3373	4.13783	-4.26374	0	
2.3380	5.05	-4.26374	0	
2.3387	2.31348	-4.57572	0	
2.3393	2.9216	-5.477	0	
2.3400	3.83377	-6.10096	0	
2.3407	0.171859	-5.16502	0	
2.3413	-1.95655	-5.78898	0	
2.3420	-0.436257	-4.8877	0	
2.3427	-0.436257	-1.21326	0	
2.3433	-0.132199	0	0	
2.3440	2.00942	-2.11454	0	
2.3447	0.779974	-3.63978	0	
2.3453	-1.95655	-4.26374	0	
2.3460	0.475916	-5.477	0	
2.3467	3.83377	-3.95176	0	
2.3473	2.9216	-2.42652	0	
2.3480	1.08403	-3.63978	0	
2.3487	1.38809	-4.26374	0	
2.3493	2.9216	-0.589297	0	
2.3500	4.13783	4.2984	0	
2.3507	4.74594	6.41294	0	
2.3513	4.13783	5.82364	0	
2.3520	4.13783	3.98642	0	
2.3527	3.22566	2.77316	0	
2.3533	-0.132199	1.83722	0	
2.3540	-1.95655	1.83722	0	
2.3547	-0.740314	3.05048	0	
2.3553	-1.34843	4.57572	0	
2.3560	-3.186	4.8877	0	
2.3567	-2.27382	3.98642	0	
2.3573	-0.436257	4.2984	0	
2.3580	0.171859	4.57572	0	
2.3587	0.779974	2.1492	0	
2.3593	0.475916	1.24792	0	
2.3600	-0.132199	1.83722	0	
2.3607	0.171859	0.311981	0	
2.3613	0.779974	-2.11454	0	
2.3620	0.475916	0	0	
2.3627	2.61754	3.36246	0	
2.3633	4.74594	3.36246	0	
2.3640	2.9216	1.83722	0	
2.3647	1.70537	1.24792	0	
2.3653	3.83377	1.83722	0	
2.3660	4.74594	2.77316	0	
2.3667	2.9216	1.52524	0	
2.3673	3.52971	-1.83722	0	
2.3680	3.83377	-3.63978	0	
2.3687	-0.436257	-1.83722	0	
2.3693	-3.49005	0	0	
2.3700	-2.27382	-0.589297	0	
2.3707	-1.04437	-1.52524	0	
2.3713	-1.65249	-0.901278	0	
2.3720	-3.49005	-2.42652	0	
2.3727	-4.40223	-5.16502	0	
2.3733	-3.186	-5.16502	0	
2.3740	-3.186	-3.95176	0	
2.3747	-4.40223	-4.57572	0	
2.3753	-4.09817	-5.16502	0	
2.3760	-4.40223	-3.36246	0	
2.3767	-5.01034	-1.52524	0	
2.3773	-2.57788	-1.21326	0	
2.3780	-0.740314	-1.52524	0	
2.3787	-1.95655	-1.21326	0	
2.3793	-0.436257	-0.277316	0	
2.3800	2.00942	0.311981	0	
2.3807	0.171859	0.623962	0	
2.3813	-1.34843	1.52524	0	
2.3820	-1.04437	1.83722	0	
2.3827	-3.186	2.77316	0	
2.3833	-5.3144	4.8877	0	
2.3840	-4.40223	5.82364	0	
2.3847	-2.57788	6.72492	0	
2.3853	-1.65249	9.46342	0	
2.3860	-1.04437	10.3994	0	
2.3867	-0.132199	7.0369	0	
2.3873	0.171859	3.98642	0	
2.3880	-3.49005	3.05048	0	
2.3887	-7.76008	3.36246	0	
2.3893	-5.3144	4.8877	0	
2.3900	-3.49005	4.8877	0	
2.3907	-5.63168	2.77316	0	
2.3913	-3.79411	1.52524	0	
2.3920	-1.04437	0.311981	0	
2.3927	-4.40223	-0.277316	0	
2.3933	-5.3144	1.52524	0	
2.3940	-2.57788	3.36246	0	
2.3947	-4.70628	2.77316	0	
2.3953	-7.15197	2.1492	0	
2.3960	-4.40223	1.52524	0	
2.3967	-4.40223	0.311981	0	
2.3973	-8.06414	-1.83722	0	
2.3980	-7.76008	-4.57572	0	
2.3987	-5.3144	-6.10096	0	
2.3993	-5.3144	-6.10096	0	
2.4000	-5.01034	-6.69026	0	
2.4007	-4.09817	-7.00224	0	
2.4013	-4.70628	-4.26374	0	
2.4020	-4.40223	-0.901278	0	
2.4027	-2.27382	-0.901278	0	
2.4033	-1.04437	-1.83722	0	
2.4040	-1.95655	-0.277316	0	
2.4047	-2.88194	0.935943	0	
2.4053	-1.65249	1.52524	0	
2.4060	1.08403	4.57572	0	
2.4067	0.171859	6.72492	0	
2.4073	-1.95655	3.05048	0	
2.4080	-1.34843	-1.21326	0	
2.4087	-1.65249	-0.901278	0	
2.4093	-3.186	2.1492	0	
2.4100	-0.740314	3.36246	0	
2.4107	1.38809	1.52524	0	
2.4113	-0.740314	-2.11454	0	
2.4120	0.779974	-4.8877	0	
2.4127	4.44189	-6.10096	0	
2.4133	2.00942	-5.16502	0	
2.4140	-0.740314	-3.95176	0	
2.4147	1.38809	-3.95176	0	
2.4153	1.08403	-3.36246	0	
2.4160	-1.65249	-0.589297	0	
2.4167	-0.436257	0.311981	0	
2.4173	2.00942	-0.589297	0	
2.4180	2.00942	-0.277316	0	
2.4187	1.70537	0	0	
2.4193	0.779974	-0.589297	0	
2.4200	0.779974	1.24792	0	
2.4207	3.22566	2.1492	0	
2.4213	3.83377	0	0	
2.4220	1.70537	-0.901278	0	
2.4227	2.31348	-0.589297	0	
2.4233	4.74594	-2.7385	0	
2.4240	5.05	-3.63978	0	
2.4247	6.58351	-2.42652	0	
2.4253	7.79974	-2.7385	0	
2.4260	6.27945	-2.42652	0	
2.4267	4.74594	1.83722	0	
2.4273	4.44189	2.1492	0	
2.4280	2.61754	-0.277316	0	
2.4287	1.38809	-0.277316	0	
2.4293	1.38809	-0.589297	0	
2.4300	0.779974	-2.42652	0	
2.4307	0.779974	0	0	
2.4313	0.171859	1.52524	0	
2.4320	-1.95655	-1.52524	0	
2.4327	-2.57788	-2.7385	0	
2.4333	-2.27382	0.311981	0	
2.4340	-4.40223	2.46118	0	
2.4347	-5.93574	2.46118	0	
2.4353	-5.3144	0.623962	0	
2.4360	-4.40223	-1.21326	0	
2.4367	-3.49005	-0.901278	0	
2.4373	-3.186	-0.589297	0	
2.4380	-5.93574	-1.52524	0	
2.4387	-6.23979	0.311981	0	
2.4393	-1.95655	0.623962	0	
2.4400	-2.57788	-2.42652	0	
2.4407	-6.54385	-3.36246	0	
2.4413	-5.93574	-1.52524	0	
2.4420	-3.79411	-2.11454	0	
2.4427	-5.3144	-1.52524	0	
2.4433	-6.23979	-0.277316	0	
2.4440	-3.186	-1.21326	0	
2.4447	-2.88194	-0.589297	0	
2.4453	-4.40223	0	0	
2.4460	-1.34843	-4.26374	0	
2.4467	3.52971	-6.10096	0	
2.4473	2.61754	-2.11454	0	
2.4480	-0.436257	-1.83722	0	
2.4487	-1.34843	-5.477	0	
2.4493	-1.65249	-5.16502	0	
2.4500	-1.04437	-4.57572	0	
2.4507	0.779974	-5.477	0	
2.4513	1.08403	-1.52524	0	
2.4520	0.171859	3.05048	0	
2.4527	-0.132199	0.623962	0	
2.4533	0.475916	-2.42652	0	
2.4540	0.779974	-1.52524	0	
2.4547	-0.436257	0.623962	0	
2.4553	-1.04437	0.623962	0	
2.4560	1.08403	-1.21326	0	
2.4567	2.31348	-2.7385	0	
2.4573	0.779974	-2.11454	0	
2.4580	1.08403	-2.42652	0	
2.4587	2.9216	-4.26374	0	
2.4593	1.38809	-4.8877	0	
2.4600	0.779974	-3.95176	0	
2.4607	3.83377	-3.36246	0	
2.4613	7.19163	-1.21326	0	
2.4620	7.49568	1.52524	0	
2.4627	6.27945	1.52524	0	
2.4633	5.36728	1.83722	0	
2.4640	7.49568	2.46118	0	
2.4647	10.8535	-0.277316	0	
2.4653	8.40786	-0.901278	0	
2.4660	5.05	3.36246	0	
2.4667	5.67134	5.51166	0	
2.4673	5.67134	3.05048	0	
2.4680	2.00942	2.1492	0	
2.4687	3.52971	2.77316	0	
2.4693	7.49568	2.77316	0	
2.4700	6.58351	2.77316	0	
2.4707	4.74594	1.52524	0	
2.4713	4.74594	1.52524	0	
2.4720	2.31348	2.46118	0	
2.4727	0.475916	-1.52524	0	
2.4733	2.61754	-6.10096	0	
2.4740	2.31348	-5.477	0	
2.4747	-0.132199	-4.8877	0	
2.4753	2.00942	-5.16502	0	
2.4760	4.13783	-3.36246	0	
2.4767	1.38809	-2.42652	0	
2.4773	-0.132199	-3.36246	0	
2.4780	0.171859	-2.42652	0	
2.4787	0.171859	-2.42652	0	
2.4793	1.08403	-2.11454	0	
2.4800	2.9216	1.24792	0	
2.4807	2.00942	1.24792	0	
2.4813	0.779974	-3.95176	0	
2.4820	2.31348	-6.41294	0	
2.4827	4.44189	-3.95176	0	
2.4833	2.9216	-2.42652	0	
2.4840	0.171859	-1.83722	0	
2.4847	0.475916	0	0	
2.4853	2.9216	0.311981	0	
2.4860	2.00942	-3.36246	0	
2.4867	-0.436257	-4.26374	0	
2.4873	-0.740314	-1.21326	0	
2.4880	-0.740314	-0.589297	0	
2.4887	-0.740314	0.311981	0	
2.4893	-0.436257	3.05048	0	
2.4900	-1.04437	3.05048	0	
2.4907	-3.186	1.24792	0	
2.4913	-3.186	2.1492	0	
2.4920	-2.27382	2.46118	0	
2.4927	-3.186	0.311981	0	
2.4933	-3.49005	1.24792	0	
2.4940	-3.186	2.77316	0	
2.4947	-2.57788	0.623962	0	
2.4953	-1.04437	0.311981	0	
2.4960	1.08403	1.24792	0	
2.4967	1.08403	0	0	
2.4973	1.08403	-1.21326	0	
2.4980	1.38809	0.623962	0	
2.4987	1.38809	2.1492	0	
2.4993	0.779974	0.623962	0	
2.5000	-1.65249	-3.05048	0	
2.5007	-3.79411	-4.26374	0	
2.5013	-3.49005	-1.21326	0	
2.5020	-2.27382	1.24792	0	
2.5027	-1.34843	1.83722	0	
2.5033	-0.132199	1.83722	0	
2.5040	0.171859	3.05048	0	
2.5047	0.779974	5.51166	0	
2.5053	1.38809	7.6262	0	
2.5060	0.171859	5.82364	0	
2.5067	0.171859	3.98642	0	
2.5073	2.9216	3.98642	0	
2.5080	2.00942	3.98642	0	
2.5087	0.171859	3.98642	0	
2.5093	2.31348	3.98642	0	
2.5100	2.9216	3.36246	0	
2.5107	-0.740314	1.24792	0	
2.5113	-2.88194	-0.589297	0	
2.5120	-5.01034	0	0	
2.5127	-7.15197	1.83722	0	
2.5133	-5.3144	1.83722	0	
2.5140	-3.186	0.935943	0	
2.5147	-3.79411	1.24792	0	
2.5153	-1.65249	2.1492	0	
2.5160	-0.132199	0.935943	0	
2.5167	-6.23979	-0.277316	0	
2.5173	-11.422	0.311981	0	
2.5180	-8.67225	2.1492	0	
2.5187	-5.01034	3.36246	0	
2.5193	-5.63168	1.24792	0	
2.5200	-5.3144	-2.42652	0	
2.5207	-2.57788	-0.589297	0	
2.5213	-5.3144	5.82364	0	
2.5220	-15.0839	7.93818	0	
2.5227	-26.6778	7.0369	0	
2.5233	-35.231	7.93818	0	
2.5240	-33.3935	7.0369	0	
2.5247	-20.8874	2.46118	0	
2.5253	-8.3682	-0.589297	0	
2.5260	-1.65249	-0.901278	0	
2.5267	4.13783	-1.21326	0	
2.5273	9.63731	-1.52524	0	
2.5280	8.71191	-0.589297	0	
2.5287	4.74594	1.24792	0	
2.5293	4.44189	0.311981	0	
2.5300	5.67134	-2.7385	0	
2.5307	3.83377	-2.42652	0	
2.5313	1.08403	0.311981	0	
2.5320	0.475916	-1.52524	0	
2.5327	-0.740314	-3.36246	0	
2.5333	-3.79411	-2.11454	0	
2.5340	-4.09817	-1.83722	0	
2.5347	-1.34843	-4.57572	0	
2.5353	-0.132199	-7.31422	0	
2.5360	0.171859	-8.52748	0	
2.5367	2.9216	-7.00224	0	
2.5373	3.83377	-6.10096	0	
2.5380	1.38809	-7.93818	0	
2.5387	0.475916	-8.83946	0	
2.5393	1.70537	-6.69026	0	
2.5400	1.38809	-6.10096	0	
2.5407	2.00942	-7.00224	0	
2.5413	3.22566	-7.00224	0	
2.5420	2.61754	-7.00224	0	
2.5427	2.00942	-5.16502	0	
2.5433	1.70537	0.311981	0	
2.5440	-0.740314	2.1492	0	
2.5447	-1.65249	-0.901278	0	
2.5453	1.38809	-2.7385	0	
2.5460	2.9216	-2.42652	0	
2.5467	0.171859	-2.11454	0	
2.5473	-2.57788	-1.52524	0	
2.5480	-1.95655	-1.21326	0	
2.5487	0.779974	0.311981	0	
2.5493	1.08403	2.1492	0	
2.5500	-1.65249	2.46118	0	
2.5507	-3.49005	2.1492	0	
2.5513	-3.49005	1.24792	0	
2.5520	-2.88194	-1.52524	0	
2.5527	-0.740314	-5.16502	0	
2.5533	0.171859	-7.00224	0	
2.5540	-2.57788	-7.6262	0	
2.5547	-2.88194	-6.69026	0	
2.5553	-1.34843	-4.26374	0	
2.5560	-3.49005	-4.57572	0	
2.5567	-5.3144	-6.10096	0	
2.5573	-3.49005	-5.477	0	
2.5580	-3.79411	-5.16502	0	
2.5587	-5.93574	-6.10096	0	
2.5593	-4.09817	-5.16502	0	
2.5600	-1.65249	-2.42652	0	
2.5607	-3.186	-2.11454	0	
2.5613	-3.186	-0.589297	0	
2.5620	-0.436257	1.24792	0	
2.5627	0.779974	0.311981	0	
2.5633	1.08403	-2.42652	0	
2.5640	1.08403	-3.36246	0	
2.5647	-0.740314	-2.42652	0	
2.5653	1.08403	-0.589297	0	
2.5660	4.74594	-1.21326	0	
2.5667	4.74594	-3.63978	0	
2.5673	3.83377	-1.83722	0	
2.5680	5.67134	2.1492	0	
2.5687	2.9216	0.311981	0	
2.5693	-1.95655	-2.42652	0	
2.5700	-2.27382	1.24792	0	
2.5707	-1.34843	4.57572	0	
2.5713	-2.57788	2.1492	0	
2.5720	-1.95655	1.24792	0	
2.5727	-0.740314	3.05048	0	
2.5733	-0.436257	2.1492	0	
2.5740	1.38809	-0.589297	0	
2.5747	1.38809	-1.52524	0	
2.5753	-1.34843	-0.277316	0	
2.5760	-1.65249	0	0	
2.5767	0.171859	-1.52524	0	
2.5773	0.475916	-2.42652	0	
2.5780	0.475916	-1.52524	0	
2.5787	-0.436257	0	0	
2.5793	-1.34843	-3.63978	0	
2.5800	-1.04437	-8.2155	0	
2.5807	0.171859	-6.41294	0	
2.5813	1.38809	-2.7385	0	
2.5820	2.00942	-2.7385	0	
2.5827	1.08403	-2.11454	0	
2.5833	2.00942	-0.589297	0	
2.5840	3.22566	-1.83722	0	
2.5847	2.00942	-2.11454	0	
2.5853	0.779974	-0.589297	0	
2.5860	2.00942	-0.589297	0	
2.5867	2.31348	0.311981	0	
2.5873	1.08403	1.24792	0	
2.5880	1.08403	0.311981	0	
2.5887	1.08403	1.24792	0	
2.5893	-0.436257	3.98642	0	
2.5900	-0.740314	3.05048	0	
2.5907	0.171859	0.935943	0	
2.5913	0.171859	3.98642	0	
2.5920	0.779974	7.93818	0	
2.5927	2.31348	5.51166	0	
2.5933	1.08403	1.24792	0	
2.5940	-1.65249	0.623962	0	
2.5947	-1.65249	1.24792	0	
2.5953	-0.740314	0.623962	0	
2.5960	-0.740314	1.24792	0	
2.5967	1.08403	2.1492	0	
2.5973	2.00942	1.24792	0	
2.5980	-0.740314	0.623962	0	
2.5987	-1.34843	0.623962	0	
2.5993	-1.34843	-0.277316	0	
2.6000	-3.49005	0	0	
2.6007	-1.34843	1.24792	0	
2.6013	2.31348	1.83722	0	
2.6020	0.171859	2.46118	0	
2.6027	-1.34843	3.36246	0	
2.6033	2.00942	1.24792	0	
2.6040	1.38809	-0.277316	0	
2.6047	-0.740314	2.1492	0	
2.6053	2.9216	3.98642	0	
2.6060	5.67134	1.83722	0	
2.6067	3.83377	-0.277316	0	
2.6073	2.00942	0	0	
2.6080	2.61754	-1.52524	0	
2.6087	3.83377	-3.05048	0	
2.6093	4.74594	-3.36246	0	
2.6100	3.83377	-4.26374	0	
2.6107	2.31348	-3.63978	0	
2.6113	3.52971	-0.277316	0	
2.6120	5.05	1.24792	0	
2.6127	3.83377	-1.83722	0	
2.6133	2.00942	-3.63978	0	
2.6140	1.08403	-3.36246	0	
2.6147	1.38809	-2.7385	0	
2.6153	2.00942	-1.52524	0	
2.6160	0.475916	-0.277316	0	
2.6167	-1.65249	-2.7385	0	
2.6173	-1.34843	-4.8877	0	
2.6180	-1.34843	-4.26374	0	
2.6187	-2.88194	-4.8877	0	
2.6193	-1.04437	-5.16502	0	
2.6200	2.00942	-1.83722	0	
2.6207	-1.65249	-0.589297	0	
2.6213	-5.3144	-3.63978	0	
2.6220	-1.65249	-6.10096	0	
2.6227	1.08403	-6.41294	0	
2.6233	-0.740314	-6.10096	0	
2.6240	-1.65249	-6.41294	0	
2.6247	-1.34843	-7.31422	0	
2.6253	0.779974	-5.477	0	
2.6260	3.83377	-0.277316	0	
2.6267	3.83377	1.83722	0	
2.6273	2.61754	1.24792	0	
2.6280	4.74594	1.24792	0	
2.6287	5.36728	-0.589297	0	
2.6293	4.13783	-3.36246	0	
2.6300	6.27945	0.311981	0	
2.6307	7.19163	3.67444	0	
2.6313	2.61754	0.623962	0	
2.6320	-0.740314	0.311981	0	
2.6327	0.475916	3.98642	0	
2.6333	1.70537	3.67444	0	
2.6340	0.475916	1.24792	0	
2.6347	0.171859	2.77316	0	
2.6353	2.9216	2.77316	0	
2.6360	5.05	-1.21326	0	
2.6367	2.61754	-1.21326	0	
2.6373	-1.65249	4.57572	0	
2.6380	-1.34843	7.34888	0	
2.6387	0.475916	6.10096	0	
2.6393	-0.132199	5.51166	0	
2.6400	-1.65249	4.57572	0	
2.6407	0.171859	3.98642	0	
2.6413	1.08403	4.57572	0	
2.6420	-1.95655	3.98642	0	
2.6427	-3.49005	2.46118	0	
2.6433	-1.34843	2.77316	0	
2.6440	-1.34843	2.77316	0	
2.6447	-1.95655	3.98642	0	
2.6453	-0.740314	6.41294	0	
2.6460	-1.95655	5.82364	0	
2.6467	-2.57788	3.36246	0	
2.6473	-0.132199	5.82364	0	
2.6480	0.171859	7.0369	0	
2.6487	-2.57788	3.67444	0	
2.6493	-3.79411	3.98642	0	
2.6500	-5.3144	8.87412	0	
2.6507	-6.23979	9.46342	0	
2.6513	-5.93574	6.72492	0	
2.6520	-5.01034	5.51166	0	
2.6527	-3.49005	4.57572	0	
2.6533	-3.49005	0.623962	0	
2.6540	-5.93574	-3.63978	0	
2.6547	-3.49005	-5.16502	0	
2.6553	-0.132199	-2.42652	0	
2.6560	-2.57788	1.24792	0	
2.6567	-3.186	2.1492	0	
2.6573	-0.436257	1.24792	0	
2.6580	-0.132199	0.311981	0	
2.6587	0.171859	-2.42652	0	
2.6593	2.9216	-3.36246	0	
2.6600	2.00942	0	0	
2.6607	1.08403	0	0	
2.6613	2.9216	-5.78898	0	
2.6620	2.00942	-7.00224	0	
2.6627	0.171859	-4.26374	0	
2.6633	0.171859	-5.78898	0	
2.6640	-1.65249	-7.93818	0	
2.6647	-0.740314	-7.93818	0	
2.6653	2.31348	-8.2155	0	
2.6660	2.31348	-7.00224	0	
2.6667	0.779974	-2.7385	0	
2.6673	1.08403	-2.42652	0	
2.6680	2.00942	-3.63978	0	
2.6687	2.31348	-3.36246	0	
2.6693	2.9216	-5.16502	0	
2.6700	3.22566	-7.00224	0	
2.6707	3.83377	-4.26374	0	
2.6713	3.83377	-1.21326	0	
2.6720	2.31348	-1.52524	0	
2.6727	2.00942	-2.42652	0	
2.6733	3.22566	-5.16502	0	
2.6740	2.9216	-5.78898	0	
2.6747	2.9216	-2.11454	0	
2.6753	3.22566	-2.42652	0	
2.6760	2.9216	-8.52748	0	
2.6767	3.83377	-10.9887	0	
2.6773	3.83377	-8.83946	0	
2.6780	1.70537	-6.10096	0	
2.6787	1.38809	-3.05048	0	
2.6793	2.9216	1.83722	0	
2.6800	2.00942	4.2984	0	
2.6807	2.61754	4.8877	0	
2.6813	4.13783	5.19968	0	
2.6820	1.38809	4.57572	0	
2.6827	-3.49005	3.98642	0	
2.6833	-3.79411	5.19968	0	
2.6840	-1.34843	5.82364	0	
2.6847	0.475916	3.67444	0	
2.6853	1.08403	2.1492	0	
2.6860	0.779974	0.935943	0	
2.6867	-0.132199	0.935943	0	
2.6873	-1.65249	3.36246	0	
2.6880	-3.49005	6.72492	0	
2.6887	-4.70628	6.72492	0	
2.6893	-5.93574	3.98642	0	
2.6900	-6.54385	1.24792	0	
2.6907	-5.3144	0.623962	0	
2.6913	-3.186	0.311981	0	
2.6920	-3.186	-0.277316	0	
2.6927	-4.09817	1.24792	0	
2.6933	-4.09817	3.05048	0	
2.6940	-3.186	0.935943	0	
2.6947	-1.04437	-0.589297	0	
2.6953	0.171859	1.24792	0	
2.6960	-0.132199	-0.589297	0	
2.6967	0.171859	-3.36246	0	
2.6973	1.70537	-2.7385	0	
2.6980	-0.436257	-3.05048	0	
2.6987	-4.40223	-2.42652	0	
2.6993	-4.70628	2.1492	0	
2.7000	-4.09817	1.24792	0	
2.7007	-7.45602	-5.16502	0	
2.7013	-8.06414	-5.16502	0	
2.7020	-3.49005	0.311981	0	
2.7027	-4.40223	3.05048	0	
2.7033	-7.76008	3.05048	0	
2.7040	-5.01034	3.98642	0	
2.7047	-3.186	3.67444	0	
2.7053	-6.23979	3.05048	0	
2.7060	-6.23979	2.1492	0	
2.7067	-4.09817	1.24792	0	
2.7073	-4.40223	3.05048	0	
2.7080	-4.40223	3.98642	0	
2.7087	-5.3144	0.623962	0	
2.7093	-6.23979	-2.7385	0	
2.7100	-3.49005	-1.83722	0	
2.7107	-2.57788	0	0	
2.7113	-4.40223	0.935943	0	
2.7120	-3.49005	1.24792	0	
2.7127	-3.186	0	0	
2.7133	-4.09817	-2.7385	0	
2.7140	-1.34843	-4.26374	0	
2.7147	0.779974	-6.10096	0	
2.7153	-1.04437	-8.52748	0	
2.7160	-1.04437	-7.00224	0	
2.7167	1.08403	-3.95176	0	
2.7173	1.08403	-3.36246	0	
2.7180	1.38809	-3.36246	0	
2.7187	2.9216	-3.63978	0	
2.7193	3.83377	-3.36246	0	
2.7200	3.83377	-1.52524	0	
2.7207	2.9216	-0.277316	0	
2.7213	2.00942	-1.21326	0	
2.7220	2.31348	1.24792	0	
2.7227	1.08403	4.57572	0	
2.7233	-0.740314	3.67444	0	
2.7240	0.779974	1.24792	0	
2.7247	1.08403	2.46118	0	
2.7253	-1.65249	3.36246	0	
2.7260	-2.88194	2.46118	0	
2.7267	-1.65249	1.24792	0	
2.7273	-0.740314	-0.277316	0	
2.7280	-0.740314	0	0	
2.7287	-0.740314	2.46118	0	
2.7293	-2.57788	2.1492	0	
2.7300	-3.49005	-0.277316	0	
2.7307	-1.65249	0.623962	0	
2.7313	0.171859	0.311981	0	
2.7320	-1.04437	-3.95176	0	
2.7327	0.171859	-3.36246	0	
2.7333	3.83377	-0.277316	0	
2.7340	4.44189	-3.95176	0	
2.7347	3.52971	-6.69026	0	
2.7353	5.05	-3.36246	0	
2.7360	5.67134	-1.52524	0	
2.7367	2.00942	-4.26374	0	
2.7373	-1.34843	-6.10096	0	
2.7380	-1.65249	-7.31422	0	
2.7387	-1.04437	-6.69026	0	
2.7393	-1.34843	-3.36246	0	
2.7400	-1.65249	-2.42652	0	
2.7407	-3.49005	-3.95176	0	
2.7413	-5.3144	-3.36246	0	
2.7420	-4.40223	-0.277316	0	
2.7427	-2.27382	-0.277316	0	
2.7433	-1.95655	-3.36246	0	
2.7440	-2.57788	-3.36246	0	
2.7447	-0.740314	-0.901278	0	
2.7453	0.475916	-1.83722	0	
2.7460	-1.04437	-3.63978	0	
2.7467	-0.740314	-2.42652	0	
2.7473	1.70537	0.311981	0	
2.7480	2.00942	1.83722	0	
2.7487	-0.740314	1.83722	0	
2.7493	-1.04437	-0.277316	0	
2.7500	-0.740314	-0.901278	0	
2.7507	-3.49005	2.46118	0	
2.7513	-4.40223	6.72492	0	
2.7520	-2.57788	6.72492	0	
2.7527	-1.95655	5.82364	0	
2.7533	-2.57788	6.72492	0	
2.7540	-2.27382	6.72492	0	
2.7547	-1.65249	3.67444	0	
2.7553	0.171859	3.05048	0	
2.7560	0.475916	4.57572	0	
2.7567	-2.27382	3.98642	0	
2.7573	-2.27382	2.77316	0	
2.7580	2.61754	1.24792	0	
2.7587	4.74594	-0.901278	0	
2.7593	3.52971	-0.589297	0	
2.7600	3.22566	-0.901278	0	
2.7607	1.70537	-7.00224	0	
2.7613	-0.740314	-9.15144	0	
2.7620	0.475916	-4.57572	0	
2.7627	2.00942	-2.11454	0	
2.7633	-1.95655	-0.901278	0	
2.7640	-4.40223	1.24792	0	
2.7647	1.08403	0.935943	0	
2.7653	4.74594	0.623962	0	
2.7660	2.00942	3.98642	0	
2.7667	1.08403	4.8877	0	
2.7673	3.83377	3.67444	0	
2.7680	3.22566	5.82364	0	
2.7687	-0.132199	6.72492	0	
2.7693	-0.740314	3.98642	0	
2.7700	1.08403	2.1492	0	
2.7707	2.61754	0.623962	0	
2.7713	3.22566	-0.277316	0	
2.7720	2.00942	-0.901278	0	
2.7727	1.08403	-3.63978	0	
2.7733	2.61754	-6.10096	0	
2.7740	2.61754	-4.57572	0	
2.7747	0.171859	-3.36246	0	
2.7753	0.171859	-4.57572	0	
2.7760	1.08403	-3.63978	0	
2.7767	-0.132199	-1.52524	0	
2.7773	-1.95655	-0.277316	0	
2.7780	-2.57788	0	0	
2.7787	-0.740314	-1.52524	0	
2.7793	1.70537	-4.57572	0	
2.7800	2.00942	-5.16502	0	
2.7807	1.08403	-4.8877	0	
2.7813	1.08403	-5.78898	0	
2.7820	0.171859	-2.42652	0	
2.7827	-1.65249	3.98642	0	
2.7833	-1.34843	1.83722	0	
2.7840	1.38809	-3.05048	0	
2.7847	2.61754	-0.277316	0	
2.7853	0.171859	2.1492	0	
2.7860	-0.740314	0	0	
2.7867	2.31348	0.935943	0	
2.7873	2.00942	2.1492	0	
2.7880	-2.57788	-1.52524	0	
2.7887	-0.436257	-3.36246	0	
2.7893	4.74594	-0.589297	0	
2.7900	3.83377	1.24792	0	
2.7907	0.779974	-0.277316	0	
2.7913	1.08403	-3.36246	0	
2.7920	2.00942	-5.477	0	
2.7927	2.00942	-5.16502	0	
2.7933	0.171859	-4.26374	0	
2.7940	-1.04437	-4.26374	0	
2.7947	0.171859	-4.57572	0	
2.7953	1.08403	-4.57572	0	
2.7960	0.171859	-3.36246	0	
2.7967	0.171859	-1.83722	0	
2.7973	0.779974	-1.83722	0	
2.7980	-1.04437	-1.52524	0	
2.7987	-0.740314	-0.589297	0	
2.7993	1.08403	-3.05048	0	
2.8000	0.475916	-3.05048	0	
2.8007	-0.132199	2.1492	0	
2.8013	1.08403	3.05048	0	
2.8020	1.70537	-1.21326	0	
2.8027	2.31348	-0.589297	0	
2.8033	2.31348	2.1492	0	
2.8040	-0.740314	1.24792	0	
2.8047	-1.34843	1.83722	0	
2.8053	1.08403	3.05048	0	
2.8060	-0.436257	0.311981	0	
2.8067	-2.57788	-1.21326	0	
2.8073	-0.436257	0.935943	0	
2.8080	0.171859	1.24792	0	
2.8087	-2.57788	0.623962	0	
2.8093	-3.49005	1.52524	0	
2.8100	-2.27382	2.1492	0	
2.8107	-1.65249	3.36246	0	
2.8113	0.779974	3.98642	0	
2.8120	2.00942	-1.52524	0	
2.8127	-1.65249	-4.57572	0	
2.8133	-2.57788	-0.277316	0	
2.8140	1.08403	-0.901278	0	
2.8147	2.31348	-6.10096	0	
2.8153	2.00942	-2.7385	0	
2.8160	3.52971	0.623962	0	
2.8167	2.00942	-3.63978	0	
2.8173	-1.95655	-4.26374	0	
2.8180	-2.88194	0.311981	0	
2.8187	-0.740314	1.83722	0	
2.8193	1.08403	2.46118	0	
2.8200	3.52971	3.98642	0	
2.8207	2.61754	3.98642	0	
2.8213	-1.65249	2.1492	0	
2.8220	-1.65249	-2.42652	0	
2.8227	1.38809	-4.26374	0	
2.8233	1.08403	0.935943	0	
2.8240	2.31348	4.2984	0	
2.8247	5.05	1.24792	0	
2.8253	2.9216	1.24792	0	
2.8260	-0.436257	3.67444	0	
2.8267	0.779974	0.935943	0	
2.8273	2.31348	-2.7385	0	
2.8280	0.779974	-0.901278	0	
2.8287	-2.27382	2.46118	0	
2.8293	-4.09817	2.77316	0	
2.8300	-1.95655	0.623962	0	
2.8307	1.08403	-1.52524	0	
2.8313	1.08403	-3.36246	0	
2.8320	-1.65249	-3.63978	0	
2.8327	-2.57788	-2.11454	0	
2.8333	-2.88194	-1.21326	0	
2.8340	-2.57788	-2.42652	0	
2.8347	-1.65249	-2.42652	0	
2.8353	-1.65249	-0.901278	0	
2.8360	-3.49005	0.311981	0	
2.8367	-3.49005	0.311981	0	
2.8373	-1.34843	-0.589297	0	
2.8380	-0.740314	0.623962	0	
2.8387	-1.04437	-0.277316	0	
2.8393	-0.132199	-6.10096	0	
2.8400	-0.132199	-7.6262	0	
2.8407	-1.95655	-0.901278	0	
2.8413	-2.57788	2.46118	0	
2.8420	-1.95655	0.935943	0	
2.8427	-2.27382	3.05048	0	
2.8433	-2.88194	4.2984	0	
2.8440	-3.186	0	0	
2.8447	-3.49005	-1.21326	0	
2.8453	-2.57788	1.83722	0	
2.8460	-2.57788	0.623962	0	
2.8467	-4.70628	0.311981	0	
2.8473	-5.63168	3.98642	0	
2.8480	-5.3144	3.36246	0	
2.8487	-5.01034	0.311981	0	
2.8493	-4.09817	1.52524	0	
2.8500	-3.186	3.05048	0	
2.8507	-3.49005	0.311981	0	
2.8513	-3.49005	0	0	
2.8520	-5.01034	2.77316	0	
2.8527	-8.06414	3.05048	0	
2.8533	-7.76008	1.52524	0	
2.8540	-5.01034	0.311981	0	
2.8547	-5.3144	-0.901278	0	
2.8553	-5.3144	-0.277316	0	
2.8560	-4.40223	2.1492	0	
2.8567	-7.15197	4.8877	0	
2.8573	-7.76008	4.8877	0	
2.8580	-3.186	1.83722	0	
2.8587	-2.27382	0.311981	0	
2.8593	-4.09817	2.1492	0	
2.8600	-2.57788	0.311981	0	
2.8607	-1.65249	-3.05048	0	
2.8613	-4.40223	-0.589297	0	
2.8620	-5.63168	-0.589297	0	
2.8627	-3.49005	-2.42652	0	
2.8633	-1.95655	2.1492	0	
2.8640	-1.04437	5.82364	0	
2.8647	-2.27382	1.24792	0	
2.8653	-3.186	-1.52524	0	
2.8660	1.08403	1.52524	0	
2.8667	4.74594	1.83722	0	
2.8673	1.08403	0.935943	0	
2.8680	-5.3144	2.1492	0	
2.8687	-3.49005	2.1492	0	
2.8693	0.779974	0.935943	0	
2.8700	-0.740314	2.77316	0	
2.8707	-1.04437	5.19968	0	
2.8713	2.00942	5.19968	0	
2.8720	2.00942	3.98642	0	
2.8727	0.171859	3.05048	0	
2.8733	1.70537	1.24792	0	
2.8740	0.779974	-2.11454	0	
2.8747	-1.34843	-3.36246	0	
2.8753	-0.436257	-3.05048	0	
2.8760	-1.65249	-2.7385	0	
2.8767	-4.40223	-1.21326	0	
2.8773	-1.65249	1.52524	0	
2.8780	0.171859	-0.277316	0	
2.8787	-3.186	-4.26374	0	
2.8793	-3.49005	-4.26374	0	
2.8800	-1.65249	-1.52524	0	
2.8807	-3.79411	-1.21326	0	
2.8813	-3.49005	-1.83722	0	
2.8820	0.779974	0	0	
2.8827	0.779974	3.05048	0	
2.8833	-1.65249	3.05048	0	
2.8840	-0.132199	2.1492	0	
2.8847	1.08403	3.98642	0	
2.8853	-0.436257	3.98642	0	
2.8860	-0.436257	0.935943	0	
2.8867	-1.04437	1.52524	0	
2.8873	-3.49005	4.2984	0	
2.8880	-2.88194	2.1492	0	
2.8887	-0.436257	0.311981	0	
2.8893	-1.04437	2.1492	0	
2.8900	-0.740314	3.05048	0	
2.8907	1.08403	1.52524	0	
2.8913	1.08403	-0.589297	0	
2.8920	-0.436257	-1.52524	0	
2.8927	1.08403	0.623962	0	
2.8933	1.08403	2.1492	0	
2.8940	-2.27382	0.623962	0	
2.8947	-2.88194	-1.21326	0	
2.8953	0.171859	-2.7385	0	
2.8960	1.08403	-4.26374	0	
2.8967	-0.132199	-1.52524	0	
2.8973	-1.04437	1.52524	0	
2.8980	-1.34843	0.311981	0	
2.8987	-1.95655	-1.52524	0	
2.8993	-2.57788	-2.42652	0	
2.9000	-1.04437	-4.57572	0	
2.9007	2.00942	-6.41294	0	
2.9013	3.83377	-7.00224	0	
2.9020	3.83377	-7.6262	0	
2.9027	3.22566	-4.8877	0	
2.9033	4.74594	-3.05048	0	
2.9040	8.40786	-5.16502	0	
2.9047	10.2454	-6.10096	0	
2.9053	10.2454	-3.63978	0	
2.9060	9.02919	-1.21326	0	
2.9067	7.49568	2.46118	0	
2.9073	5.97539	1.83722	0	
2.9080	5.36728	-3.63978	0	
2.9087	3.83377	-2.42652	0	
2.9093	0.475916	0	0	
2.9100	-1.65249	-6.10096	0	
2.9107	-1.04437	-7.6262	0	
2.9113	0.171859	-1.52524	0	
2.9120	1.08403	-2.11454	0	
2.9127	3.22566	-6.10096	0	
2.9133	4.44189	-4.8877	0	
2.9140	2.00942	-5.78898	0	
2.9147	-0.740314	-9.15144	0	
2.9153	-1.34843	-10.0527	0	
2.9160	-0.436257	-11.266	0	
2.9167	0.171859	-11.578	0	
2.9173	0.171859	-8.83946	0	
2.9180	-0.740314	-8.52748	0	
2.9187	-1.65249	-10.6767	0	
2.9193	-0.132199	-9.74074	0	
2.9200	2.00942	-7.93818	0	
2.9207	3.22566	-8.52748	0	
2.9213	2.00942	-9.74074	0	
2.9220	1.08403	-8.83946	0	
2.9227	2.00942	-5.477	0	
2.9233	2.9216	-2.42652	0	
2.9240	2.61754	-0.277316	0	
2.9247	3.83377	2.77316	0	
2.9253	5.67134	3.36246	0	
2.9260	6.27945	1.52524	0	
2.9267	5.67134	1.83722	0	
2.9273	4.44189	3.36246	0	
2.9280	2.9216	3.67444	0	
2.9287	2.31348	3.05048	0	
2.9293	1.08403	2.46118	0	
2.9300	1.38809	2.1492	0	
2.9307	2.9216	3.05048	0	
2.9313	0.779974	4.2984	0	
2.9320	-1.95655	4.57572	0	
2.9327	-0.740314	3.67444	0	
2.9333	-0.436257	1.24792	0	
2.9340	-2.27382	-0.589297	0	
2.9347	-0.740314	-0.589297	0	
2.9353	0.171859	-1.52524	0	
2.9360	-2.57788	-2.7385	0	
2.9367	-3.49005	-3.36246	0	
2.9373	-3.49005	-5.16502	0	
2.9380	-4.40223	-5.16502	0	
2.9387	-2.88194	-1.52524	0	
2.9393	-2.57788	2.77316	0	
2.9400	-5.93574	3.05048	0	
2.9407	-5.3144	2.1492	0	
2.9413	-2.57788	2.46118	0	
2.9420	-2.88194	3.98642	0	
2.9427	-4.40223	5.82364	0	
2.9433	-4.70628	6.41294	0	
2.9440	-5.3144	5.82364	0	
2.9447	-5.01034	4.2984	0	
2.9453	-4.40223	2.46118	0	
2.9460	-4.40223	1.83722	0	
2.9467	-3.186	2.46118	0	
2.9473	-2.27382	3.05048	0	
2.9480	-4.09817	2.77316	0	
2.9487	-3.79411	3.98642	0	
2.9493	-1.65249	5.51166	0	
2.9500	-3.49005	5.82364	0	
2.9507	-4.40223	3.36246	0	
2.9513	-1.04437	0.311981	0	
2.9520	1.08403	-1.21326	0	
2.9527	-0.436257	-1.52524	0	
2.9533	0.171859	-2.42652	0	
2.9540	1.70537	-4.26374	0	
2.9547	0.779974	-5.16502	0	
2.9553	-1.65249	-3.36246	0	
