0.0000	-0.64593	2.55331	1
0.0007	-0.0379959	-1.12646	0	
0.0013	-0.341963	-0.187743	0	
0.0020	-0.949897	4.99397	0	
0.0027	-3.3943	4.99397	0	
0.0033	-4.3062	2.25292	0	
0.0040	-0.949897	5.29436	0	
0.0047	-0.0379959	4.99397	0	
0.0053	-1.8618	0.112646	0	
0.0060	-2.4824	-0.788521	0	
0.0067	-4.00223	-2.32801	0	
0.0073	-4.61017	-6.90895	0	
0.0080	-2.78637	-6.00778	0	
0.0087	-3.09033	-2.6284	0	
0.0093	-4.91414	-3.86751	0	
0.0100	-1.55783	-3.22918	0	
0.0107	-0.341963	-0.488132	0	
0.0113	-4.61017	-0.187743	0	
0.0120	-7.05457	0.112646	0	
0.0127	-6.44664	0.413035	0	
0.0133	-6.44664	0.713424	0	
0.0140	-5.2181	1.35175	0	
0.0147	-2.78637	0.713424	0	
0.0153	-3.3943	0.112646	0	
0.0160	-3.69827	1.35175	0	
0.0167	-2.16577	2.8537	0	
0.0173	-1.25386	4.0928	0	
0.0180	-1.55783	5.59475	0	
0.0187	0.265971	1.65214	0	
0.0193	2.71037	-5.36945	0	
0.0200	1.49451	-6.00778	0	
0.0207	0.886571	-2.6284	0	
0.0213	3.01434	-2.02763	0	
0.0220	3.92624	-1.72724	0	
0.0227	4.85081	0.112646	0	
0.0233	7.59918	3.15408	0	
0.0240	7.59918	4.99397	0	
0.0247	4.54684	3.15408	0	
0.0253	2.10244	1.35175	0	
0.0260	-0.949897	4.0928	0	
0.0267	-4.00223	5.59475	0	
0.0273	-4.00223	3.15408	0	
0.0280	-3.3943	1.35175	0	
0.0287	-2.4824	2.8537	0	
0.0293	-0.0379959	2.55331	0	
0.0300	1.79847	-2.32801	0	
0.0307	0.265971	-6.00778	0	
0.0313	-0.64593	-3.22918	0	
0.0320	1.19054	-0.488132	0	
0.0327	3.01434	-2.32801	0	
0.0333	1.49451	-0.488132	0	
0.0340	-0.0379959	4.0928	0	
0.0347	-0.341963	1.65214	0	
0.0353	-2.4824	-3.22918	0	
0.0360	-3.69827	-4.46829	0	
0.0367	-1.25386	-4.76868	0	
0.0373	0.886571	-6.60856	0	
0.0380	1.19054	-6.00778	0	
0.0387	1.79847	-2.32801	0	
0.0393	-0.64593	1.01381	0	
0.0400	-2.78637	0.413035	0	
0.0407	-0.0379959	-2.02763	0	
0.0413	0.265971	-1.12646	0	
0.0420	-0.64593	2.55331	0	
0.0427	3.01434	3.15408	0	
0.0433	5.76271	1.35175	0	
0.0440	3.92624	0.413035	0	
0.0447	2.71037	1.95253	0	
0.0453	1.49451	2.8537	0	
0.0460	-0.949897	2.25292	0	
0.0467	-0.64593	1.35175	0	
0.0473	-0.64593	2.25292	0	
0.0480	-4.00223	2.25292	0	
0.0487	-4.3062	1.35175	0	
0.0493	-1.8618	2.8537	0	
0.0500	-1.55783	3.79241	0	
0.0507	-1.55783	-1.12646	0	
0.0513	-0.341963	-5.06906	0	
0.0520	-1.55783	-3.22918	0	
0.0527	-3.3943	-2.02763	0	
0.0533	-1.8618	-0.488132	0	
0.0540	0.265971	4.39319	0	
0.0547	0.265971	6.53346	0	
0.0553	-1.25386	6.83385	0	
0.0560	-1.25386	9.5749	0	
0.0567	-2.16577	9.5749	0	
0.0573	-4.91414	5.89513	0	
0.0580	-4.91414	4.99397	0	
0.0587	-1.55783	2.55331	0	
0.0593	-1.25386	-0.788521	0	
0.0600	-2.16577	1.01381	0	
0.0607	-1.25386	1.95253	0	
0.0613	-1.8618	-3.22918	0	
0.0620	-1.55783	-6.90895	0	
0.0627	2.40641	-5.06906	0	
0.0633	2.40641	-2.6284	0	
0.0640	-0.64593	-0.187743	0	
0.0647	0.265971	1.35175	0	
0.0653	1.49451	1.35175	0	
0.0660	-0.0379959	1.35175	0	
0.0667	1.19054	-0.488132	0	
0.0673	3.31831	-2.6284	0	
0.0680	3.92624	-3.86751	0	
0.0687	4.54684	-4.76868	0	
0.0693	3.92624	-5.66984	0	
0.0700	3.62228	-5.06906	0	
0.0707	7.29521	-2.32801	0	
0.0713	8.81505	0.713424	0	
0.0720	5.45874	0.413035	0	
0.0727	3.31831	-1.12646	0	
0.0733	3.62228	0.112646	0	
0.0740	3.01434	1.35175	0	
0.0747	4.24288	2.55331	0	
0.0753	5.76271	5.89513	0	
0.0760	4.24288	9.5749	0	
0.0767	2.71037	11.7152	0	
0.0773	2.71037	13.2171	0	
0.0780	1.79847	12.3159	0	
0.0787	0.886571	10.4761	0	
0.0793	1.19054	13.2171	0	
0.0800	0.265971	14.1558	0	
0.0807	-1.25386	10.4761	0	
0.0813	-0.0379959	7.13424	0	
0.0820	2.10244	6.53346	0	
0.0827	0.265971	8.03541	0	
0.0833	-4.00223	10.1757	0	
0.0840	-5.52207	8.67373	0	
0.0847	-6.44664	3.15408	0	
0.0853	-7.05457	-2.6284	0	
0.0860	-6.14267	-7.50973	0	
0.0867	-6.7506	-9.04922	0	
0.0873	-6.14267	-5.36945	0	
0.0880	-1.55783	-0.488132	0	
0.0887	-1.55783	0.713424	0	
0.0893	-5.52207	-1.72724	0	
0.0900	-3.69827	-5.36945	0	
0.0907	-0.0379959	-6.60856	0	
0.0913	-0.341963	-3.86751	0	
0.0920	0.265971	-1.42685	0	
0.0927	0.886571	-0.488132	0	
0.0933	-1.55783	-0.187743	0	
0.0940	-1.55783	1.65214	0	
0.0947	0.265971	3.79241	0	
0.0953	-0.949897	3.15408	0	
0.0960	-1.25386	1.35175	0	
0.0967	1.79847	1.65214	0	
0.0973	3.62228	2.25292	0	
0.0980	3.01434	2.25292	0	
0.0987	2.71037	4.0928	0	
0.0993	2.10244	4.39319	0	
0.1000	1.19054	3.79241	0	
0.1007	-0.64593	5.59475	0	
0.1013	-0.341963	6.83385	0	
0.1020	0.569938	1.65214	0	
0.1027	-0.949897	-1.72724	0	
0.1033	-2.4824	-0.187743	0	
0.1040	-1.55783	0.413035	0	
0.1047	-0.64593	-1.42685	0	
0.1053	-1.55783	-2.32801	0	
0.1060	-1.55783	-2.92879	0	
0.1067	-0.341963	-5.06906	0	
0.1073	-0.0379959	-7.20934	0	
0.1080	-0.64593	-6.90895	0	
0.1087	-2.16577	-5.06906	0	
0.1093	-2.78637	-6.00778	0	
0.1100	-2.16577	-7.50973	0	
0.1107	-2.4824	-7.20934	0	
0.1113	-1.55783	-7.50973	0	
0.1120	1.79847	-7.50973	0	
0.1127	1.19054	-6.60856	0	
0.1133	-1.8618	-7.50973	0	
0.1140	0.265971	-7.81011	0	
0.1147	3.62228	-5.66984	0	
0.1153	1.19054	-5.36945	0	
0.1160	0.569938	-5.36945	0	
0.1167	3.92624	-2.6284	0	
0.1173	3.01434	0.112646	0	
0.1180	0.886571	1.95253	0	
0.1187	3.92624	2.25292	0	
0.1193	6.37065	0.713424	0	
0.1200	3.92624	2.25292	0	
0.1207	0.569938	4.99397	0	
0.1213	0.265971	3.79241	0	
0.1220	-0.64593	3.79241	0	
0.1227	-3.3943	4.69358	0	
0.1233	-3.3943	-1.42685	0	
0.1240	0.265971	-4.1679	0	
0.1247	-0.949897	5.59475	0	
0.1253	-4.91414	12.3159	0	
0.1260	-1.8618	6.83385	0	
0.1267	2.40641	2.55331	0	
0.1273	1.19054	3.15408	0	
0.1280	0.265971	4.0928	0	
0.1287	1.19054	3.15408	0	
0.1293	-0.949897	1.95253	0	
0.1300	-0.341963	1.35175	0	
0.1307	3.31831	1.35175	0	
0.1313	2.71037	-1.12646	0	
0.1320	0.569938	-2.32801	0	
0.1327	2.10244	-0.788521	0	
0.1333	3.62228	1.01381	0	
0.1340	2.71037	2.8537	0	
0.1347	2.40641	4.99397	0	
0.1353	3.01434	5.59475	0	
0.1360	3.01434	4.99397	0	
0.1367	3.01434	5.89513	0	
0.1373	3.31831	6.53346	0	
0.1380	3.92624	5.59475	0	
0.1387	3.01434	4.39319	0	
0.1393	1.49451	3.15408	0	
0.1400	3.92624	-1.12646	0	
0.1407	7.90315	-6.30817	0	
0.1413	6.67461	-7.20934	0	
0.1420	3.92624	-5.06906	0	
0.1427	6.06668	-4.1679	0	
0.1433	6.97858	-3.22918	0	
0.1440	3.01434	-1.42685	0	
0.1447	-0.64593	-2.02763	0	
0.1453	-0.64593	-2.92879	0	
0.1460	2.10244	-0.788521	0	
0.1467	3.92624	-0.187743	0	
0.1473	2.10244	-1.12646	0	
0.1480	-0.341963	1.35175	0	
0.1487	0.886571	3.45447	0	
0.1493	1.19054	1.35175	0	
0.1500	-1.25386	1.65214	0	
0.1507	-1.55783	2.55331	0	
0.1513	-0.949897	-1.42685	0	
0.1520	-3.09033	-3.56712	0	
0.1527	-3.69827	-2.92879	0	
0.1533	-0.341963	-6.00778	0	
0.1540	0.569938	-9.65	0	
0.1547	-0.64593	-8.74883	0	
0.1553	0.265971	-8.44844	0	
0.1560	-0.0379959	-7.20934	0	
0.1567	-4.3062	-4.1679	0	
0.1573	-4.61017	-4.76868	0	
0.1580	-2.4824	-5.06906	0	
0.1587	-2.4824	-0.788521	0	
0.1593	-2.4824	1.35175	0	
0.1600	-1.8618	0.413035	0	
0.1607	-3.69827	2.25292	0	
0.1613	-2.4824	2.55331	0	
0.1620	0.569938	-1.12646	0	
0.1627	-0.949897	0.112646	0	
0.1633	-3.3943	7.13424	0	
0.1640	-2.4824	7.43463	0	
0.1647	-1.55783	-0.788521	0	
0.1653	-1.8618	-6.30817	0	
0.1660	0.265971	-4.1679	0	
0.1667	1.19054	-0.788521	0	
0.1673	-2.4824	-0.488132	0	
0.1680	-5.8387	0.413035	0	
0.1687	-4.3062	3.15408	0	
0.1693	-1.55783	5.89513	0	
0.1700	-1.55783	5.89513	0	
0.1707	-2.78637	4.99397	0	
0.1713	-1.55783	5.59475	0	
0.1720	-2.16577	6.53346	0	
0.1727	-4.3062	3.15408	0	
0.1733	-4.3062	-4.46829	0	
0.1740	-2.16577	-9.65	0	
0.1747	-0.949897	-7.81011	0	
0.1753	-2.16577	-6.00778	0	
0.1760	-6.44664	-9.34961	0	
0.1767	-9.80294	-9.04922	0	
0.1773	-7.35854	-3.86751	0	
0.1780	-5.52207	-1.42685	0	
0.1787	-7.05457	0.413035	0	
0.1793	-6.7506	4.0928	0	
0.1800	-5.2181	4.0928	0	
0.1807	-5.8387	0.413035	0	
0.1813	-7.96647	0.413035	0	
0.1820	-7.96647	1.01381	0	
0.1827	-4.91414	-2.02763	0	
0.1833	-3.3943	-3.22918	0	
0.1840	-5.2181	-0.488132	0	
0.1847	-4.61017	-1.12646	0	
0.1853	-1.25386	-3.22918	0	
0.1860	-0.0379959	-3.22918	0	
0.1867	-1.25386	-3.22918	0	
0.1873	-1.8618	-3.22918	0	
0.1880	-1.55783	-1.72724	0	
0.1887	-1.25386	-2.32801	0	
0.1893	-0.64593	-5.36945	0	
0.1900	-0.64593	-5.66984	0	
0.1907	-0.64593	-3.22918	0	
0.1913	-1.55783	-2.92879	0	
0.1920	-3.09033	-6.00778	0	
0.1927	-3.3943	-7.20934	0	
0.1933	-3.69827	-3.22918	0	
0.1940	-3.3943	1.65214	0	
0.1947	-0.341963	2.25292	0	
0.1953	1.19054	2.25292	0	
0.1960	-0.949897	5.29436	0	
0.1967	-0.64593	4.39319	0	
0.1973	2.10244	2.25292	0	
0.1980	1.79847	4.99397	0	
0.1987	-0.0379959	6.23307	0	
0.1993	-0.341963	2.25292	0	
0.2000	0.265971	1.35175	0	
0.2007	1.19054	4.99397	0	
0.2013	2.10244	4.99397	0	
0.2020	0.569938	3.15408	0	
0.2027	-0.64593	3.45447	0	
0.2033	-0.949897	4.69358	0	
0.2040	-1.25386	6.23307	0	
0.2047	-0.949897	8.03541	0	
0.2053	0.265971	5.89513	0	
0.2060	-0.341963	3.15408	0	
0.2067	-1.25386	4.0928	0	
0.2073	0.886571	3.79241	0	
0.2080	2.10244	2.8537	0	
0.2087	1.49451	4.0928	0	
0.2093	2.71037	1.35175	0	
0.2100	3.62228	-5.36945	0	
0.2107	1.49451	-6.00778	0	
0.2113	1.49451	-3.22918	0	
0.2120	4.24288	-4.1679	0	
0.2127	4.85081	-2.02763	0	
0.2133	3.92624	1.35175	0	
0.2140	4.85081	-2.32801	0	
0.2147	4.54684	-5.36945	0	
0.2153	3.31831	-1.42685	0	
0.2160	3.01434	-0.488132	0	
0.2167	3.62228	-4.1679	0	
0.2173	3.92624	-4.1679	0	
0.2180	3.62228	-1.12646	0	
0.2187	2.71037	-1.42685	0	
0.2193	3.01434	-2.92879	0	
0.2200	3.92624	-2.32801	0	
0.2207	3.31831	-2.32801	0	
0.2213	2.71037	-3.56712	0	
0.2220	3.01434	-6.00778	0	
0.2227	1.79847	-5.06906	0	
0.2233	0.569938	-0.187743	0	
0.2240	1.19054	1.35175	0	
0.2247	1.19054	0.112646	0	
0.2253	1.79847	2.25292	0	
0.2260	4.85081	2.8537	0	
0.2267	6.37065	-0.488132	0	
0.2273	2.10244	0.413035	0	
0.2280	-1.25386	1.65214	0	
0.2287	2.10244	-0.488132	0	
0.2293	4.85081	0.413035	0	
0.2300	2.71037	2.8537	0	
0.2307	0.886571	-0.187743	0	
0.2313	3.01434	-2.02763	0	
0.2320	2.71037	0.713424	0	
0.2327	0.569938	1.95253	0	
0.2333	1.19054	1.35175	0	
0.2340	1.19054	2.8537	0	
0.2347	-0.64593	4.0928	0	
0.2353	1.19054	2.8537	0	
0.2360	4.54684	1.35175	0	
0.2367	2.10244	0.112646	0	
0.2373	-0.949897	-0.488132	0	
0.2380	0.886571	-0.187743	0	
0.2387	1.79847	0.413035	0	
0.2393	-0.341963	0.413035	0	
0.2400	-0.0379959	-2.02763	0	
0.2407	2.10244	-2.32801	0	
0.2413	3.31831	0.413035	0	
0.2420	4.24288	-1.42685	0	
0.2427	3.92624	-3.86751	0	
0.2433	0.569938	-0.488132	0	
0.2440	-0.64593	1.35175	0	
0.2447	2.10244	-1.42685	0	
0.2453	3.31831	0.713424	0	
0.2460	1.49451	1.35175	0	
0.2467	1.19054	-5.06906	0	
0.2473	3.01434	-8.1105	0	
0.2480	2.71037	-5.06906	0	
0.2487	2.10244	-6.00778	0	
0.2493	2.40641	-6.00778	0	
0.2500	1.79847	-5.06906	0	
0.2507	0.265971	-8.1105	0	
0.2513	-1.55783	-8.74883	0	
0.2520	-1.55783	-5.06906	0	
0.2527	1.19054	-4.76868	0	
0.2533	1.79847	-3.86751	0	
0.2540	-0.0379959	-0.187743	0	
0.2547	1.19054	0.413035	0	
0.2553	3.01434	0.112646	0	
0.2560	0.265971	2.25292	0	
0.2567	-0.64593	3.15408	0	
0.2573	-0.64593	4.99397	0	
0.2580	-3.69827	3.45447	0	
0.2587	-3.69827	-3.56712	0	
0.2593	-0.64593	-7.20934	0	
0.2600	-1.25386	-4.76868	0	
0.2607	-0.64593	-4.1679	0	
0.2613	2.10244	-5.06906	0	
0.2620	-0.0379959	-2.32801	0	
0.2627	-4.91414	-0.788521	0	
0.2633	-5.52207	-1.42685	0	
0.2640	-6.14267	-3.86751	0	
0.2647	-7.66251	-4.76868	0	
0.2653	-6.14267	-0.788521	0	
0.2660	-4.00223	-0.488132	0	
0.2667	-4.61017	-5.36945	0	
0.2673	-7.05457	-5.06906	0	
0.2680	-7.05457	-2.32801	0	
0.2687	-4.3062	-8.44844	0	
0.2693	-4.00223	-12.9918	0	
0.2700	-5.8387	-11.4899	0	
0.2707	-4.3062	-11.7903	0	
0.2713	-3.09033	-12.9918	0	
0.2720	-4.00223	-11.7903	0	
0.2727	-3.69827	-9.04922	0	
0.2733	-2.16577	-2.32801	0	
0.2740	-0.64593	2.55331	0	
0.2747	-0.0379959	1.35175	0	
0.2753	-0.64593	0.713424	0	
0.2760	-0.64593	4.0928	0	
0.2767	-1.55783	4.39319	0	
0.2773	-3.69827	2.25292	0	
0.2780	-4.61017	1.35175	0	
0.2787	-3.09033	-0.488132	0	
0.2793	-1.8618	-1.42685	0	
0.2800	-0.949897	-0.488132	0	
0.2807	0.265971	1.35175	0	
0.2813	1.19054	1.95253	0	
0.2820	1.19054	-0.488132	0	
0.2827	-0.341963	-6.30817	0	
0.2833	-1.55783	-9.34961	0	
0.2840	-0.64593	-7.81011	0	
0.2847	1.49451	-7.81011	0	
0.2853	3.31831	-10.2508	0	
0.2860	3.31831	-9.95039	0	
0.2867	0.569938	-8.74883	0	
0.2873	-1.8618	-8.74883	0	
0.2880	-0.64593	-7.20934	0	
0.2887	-0.341963	-5.06906	0	
0.2893	-1.25386	-4.46829	0	
0.2900	-1.55783	-0.488132	0	
0.2907	-3.09033	6.83385	0	
0.2913	-5.2181	7.43463	0	
0.2920	-5.2181	5.59475	0	
0.2927	-4.91414	7.43463	0	
0.2933	-7.05457	6.53346	0	
0.2940	-7.66251	3.15408	0	
0.2947	-3.09033	5.89513	0	
0.2953	2.40641	8.97412	0	
0.2960	3.92624	6.83385	0	
0.2967	3.31831	6.53346	0	
0.2973	3.92624	8.03541	0	
0.2980	4.54684	7.13424	0	
0.2987	4.54684	7.43463	0	
0.2993	5.45874	10.7765	0	
0.3000	6.37065	12.3159	0	
0.3007	6.06668	9.5749	0	
0.3013	6.67461	7.13424	0	
0.3020	7.29521	7.13424	0	
0.3027	4.54684	9.27451	0	
0.3033	3.01434	9.5749	0	
0.3040	4.24288	7.43463	0	
0.3047	4.85081	4.99397	0	
0.3053	3.92624	4.69358	0	
0.3060	3.31831	4.99397	0	
0.3067	2.71037	4.99397	0	
0.3073	2.40641	3.15408	0	
0.3080	2.10244	0.713424	0	
0.3087	1.19054	0.413035	0	
0.3093	2.71037	0.413035	0	
0.3100	3.01434	-1.42685	0	
0.3107	-0.64593	-0.488132	0	
0.3113	-2.4824	2.8537	0	
0.3120	0.265971	4.0928	0	
0.3127	-0.0379959	3.45447	0	
0.3133	-2.4824	4.0928	0	
0.3140	-1.55783	2.8537	0	
0.3147	-1.55783	0.413035	0	
0.3153	-4.00223	1.65214	0	
0.3160	-3.69827	4.0928	0	
0.3167	-2.78637	4.99397	0	
0.3173	-3.09033	7.13424	0	
0.3180	-1.55783	9.5749	0	
0.3187	-0.64593	7.73502	0	
0.3193	-1.55783	5.89513	0	
0.3200	-2.16577	9.27451	0	
0.3207	-3.09033	11.4148	0	
0.3213	-4.00223	12.3159	0	
0.3220	-2.4824	12.6163	0	
0.3227	-1.55783	9.27451	0	
0.3233	-4.61017	5.89513	0	
0.3240	-6.14267	6.83385	0	
0.3247	-5.8387	5.29436	0	
0.3253	-5.52207	1.65214	0	
0.3260	-3.69827	4.39319	0	
0.3267	-4.3062	6.23307	0	
0.3273	-7.05457	3.15408	0	
0.3280	-5.2181	4.0928	0	
0.3287	-0.949897	8.97412	0	
0.3293	-3.69827	11.4148	0	
0.3300	-5.8387	10.4761	0	
0.3307	-2.4824	6.53346	0	
0.3313	-2.4824	4.0928	0	
0.3320	-5.52207	8.03541	0	
0.3327	-4.61017	9.27451	0	
0.3333	-2.16577	2.25292	0	
0.3340	-1.55783	-5.66984	0	
0.3347	-2.78637	-9.65	0	
0.3353	-4.3062	-11.1895	0	
0.3360	-4.61017	-12.391	0	
0.3367	-2.78637	-12.391	0	
0.3373	-2.4824	-6.90895	0	
0.3380	-3.3943	-0.788521	0	
0.3387	-3.09033	-2.6284	0	
0.3393	-3.3943	-4.76868	0	
0.3400	-5.52207	-1.12646	0	
0.3407	-5.2181	1.35175	0	
0.3413	-3.3943	1.35175	0	
0.3420	-5.2181	1.65214	0	
0.3427	-6.14267	1.35175	0	
0.3433	-3.09033	1.95253	0	
0.3440	-1.8618	2.25292	0	
0.3447	-3.69827	1.35175	0	
0.3453	-3.69827	1.65214	0	
0.3460	-3.69827	3.15408	0	
0.3467	-6.7506	2.25292	0	
0.3473	-7.05457	1.95253	0	
0.3480	-4.3062	1.65214	0	
0.3487	-2.4824	-2.92879	0	
0.3493	-3.3943	-8.74883	0	
0.3500	-3.3943	-9.04922	0	
0.3507	-2.16577	-6.90895	0	
0.3513	-0.0379959	-6.60856	0	
0.3520	-0.64593	-6.00778	0	
0.3527	-4.00223	-4.76868	0	
0.3533	-3.3943	-6.00778	0	
0.3540	-0.0379959	-6.60856	0	
0.3547	-1.55783	-2.02763	0	
0.3553	-4.00223	0.413035	0	
0.3560	-1.55783	-2.32801	0	
0.3567	0.569938	-2.6284	0	
0.3573	0.886571	-0.488132	0	
0.3580	1.79847	-2.02763	0	
0.3587	3.31831	-3.22918	0	
0.3593	4.24288	-1.42685	0	
0.3600	4.85081	-1.12646	0	
0.3607	3.92624	-2.32801	0	
0.3613	2.40641	-2.32801	0	
0.3620	1.19054	-2.32801	0	
0.3627	0.886571	-2.32801	0	
0.3633	3.01434	-1.12646	0	
0.3640	6.67461	0.413035	0	
0.3647	5.76271	-1.72724	0	
0.3653	3.62228	-5.36945	0	
0.3660	3.62228	-4.46829	0	
0.3667	3.01434	-1.42685	0	
0.3673	3.62228	-0.488132	0	
0.3680	4.85081	-1.42685	0	
0.3687	1.19054	-0.788521	0	
0.3693	-1.25386	1.01381	0	
0.3700	3.01434	2.8537	0	
0.3707	6.06668	1.35175	0	
0.3713	5.76271	-1.42685	0	
0.3720	5.45874	-2.02763	0	
0.3727	2.71037	-3.22918	0	
0.3733	1.19054	-6.90895	0	
0.3740	4.54684	-6.90895	0	
0.3747	4.85081	-3.56712	0	
0.3753	0.886571	-2.32801	0	
0.3760	0.265971	-0.788521	0	
0.3767	0.569938	1.01381	0	
0.3773	0.886571	0.413035	0	
0.3780	2.10244	-0.488132	0	
0.3787	3.01434	-0.788521	0	
0.3793	4.85081	-3.22918	0	
0.3800	7.29521	-3.22918	0	
0.3807	5.45874	0.413035	0	
0.3813	3.31831	1.35175	0	
0.3820	6.67461	-1.12646	0	
0.3827	9.11902	-2.6284	0	
0.3833	6.37065	-4.1679	0	
0.3840	3.92624	-4.46829	0	
0.3847	5.45874	-3.56712	0	
0.3853	5.76271	-2.92879	0	
0.3860	3.92624	-1.42685	0	
0.3867	3.92624	-0.187743	0	
0.3873	5.15478	-1.12646	0	
0.3880	5.15478	-1.42685	0	
0.3887	5.76271	-2.02763	0	
0.3893	4.85081	-4.76868	0	
0.3900	1.49451	-4.76868	0	
0.3907	1.79847	-2.02763	0	
0.3913	5.15478	-3.56712	0	
0.3920	5.76271	-7.50973	0	
0.3927	4.85081	-6.60856	0	
0.3933	5.15478	-3.22918	0	
0.3940	3.92624	-3.22918	0	
0.3947	2.10244	-5.06906	0	
0.3953	3.01434	-4.1679	0	
0.3960	3.62228	0.112646	0	
0.3967	2.10244	1.01381	0	
0.3973	-1.8618	-1.72724	0	
0.3980	-3.3943	-1.42685	0	
0.3987	0.569938	0.713424	0	
0.3993	0.886571	-0.488132	0	
0.4000	-5.2181	0.112646	0	
0.4007	-5.2181	1.65214	0	
0.4013	-1.8618	-0.187743	0	
0.4020	-5.2181	-1.12646	0	
0.4027	-5.8387	-0.488132	0	
0.4033	-0.64593	-2.92879	0	
0.4040	-2.4824	-4.1679	0	
0.4047	-6.44664	-1.42685	0	
0.4053	-3.3943	-2.32801	0	
0.4060	-2.78637	-4.46829	0	
0.4067	-8.27044	-3.56712	0	
0.4073	-7.96647	-3.22918	0	
0.4080	-4.3062	-2.92879	0	
0.4087	-4.3062	-0.488132	0	
0.4093	-4.61017	-2.02763	0	
0.4100	-4.00223	-4.46829	0	
0.4107	-6.7506	-2.32801	0	
0.4113	-9.19501	0.112646	0	
0.4120	-7.35854	-1.42685	0	
0.4127	-4.91414	-2.32801	0	
0.4133	-4.91414	-2.92879	0	
0.4140	-3.3943	-3.22918	0	
0.4147	1.19054	-1.42685	0	
0.4153	2.71037	1.35175	0	
0.4160	1.49451	1.95253	0	
0.4167	2.71037	1.95253	0	
0.4173	3.62228	3.15408	0	
0.4180	1.19054	4.0928	0	
0.4187	1.49451	3.45447	0	
0.4193	5.45874	3.15408	0	
0.4200	3.92624	3.15408	0	
0.4207	-0.64593	3.45447	0	
0.4213	0.886571	4.99397	0	
0.4220	3.62228	5.59475	0	
0.4227	3.01434	2.25292	0	
0.4233	3.01434	-1.42685	0	
0.4240	2.40641	-0.187743	0	
0.4247	0.569938	2.8537	0	
0.4253	1.49451	3.15408	0	
0.4260	2.71037	2.25292	0	
0.4267	-0.64593	2.55331	0	
0.4273	-0.341963	2.8537	0	
0.4280	3.31831	1.35175	0	
0.4287	2.10244	-1.42685	0	
0.4293	-0.64593	-2.32801	0	
0.4300	2.10244	0.112646	0	
0.4307	4.54684	4.0928	0	
0.4313	3.62228	4.69358	0	
0.4320	3.92624	0.413035	0	
0.4327	3.92624	-1.42685	0	
0.4333	2.10244	1.35175	0	
0.4340	1.49451	3.45447	0	
0.4347	1.79847	3.15408	0	
0.4353	0.886571	3.45447	0	
0.4360	-0.949897	2.8537	0	
0.4367	-2.16577	1.01381	0	
0.4373	-2.4824	1.65214	0	
0.4380	-2.78637	3.45447	0	
0.4387	-2.16577	4.0928	0	
0.4393	-0.341963	4.0928	0	
0.4400	0.265971	3.15408	0	
0.4407	1.49451	1.65214	0	
0.4413	4.85081	1.65214	0	
0.4420	4.24288	1.35175	0	
0.4427	-0.341963	-0.788521	0	
0.4433	-0.341963	-0.788521	0	
0.4440	2.10244	-1.42685	0	
0.4447	2.10244	-4.76868	0	
0.4453	2.10244	-5.66984	0	
0.4460	2.71037	-2.92879	0	
0.4467	-0.341963	-4.76868	0	
0.4473	-2.4824	-8.74883	0	
0.4480	-0.64593	-6.90895	0	
0.4487	1.19054	-4.46829	0	
0.4493	0.886571	-4.76868	0	
0.4500	0.265971	-1.42685	0	
0.4507	-0.341963	0.713424	0	
0.4513	0.265971	-2.92879	0	
0.4520	1.49451	-4.1679	0	
0.4527	2.40641	-1.42685	0	
0.4533	3.31831	-1.42685	0	
0.4540	4.54684	-0.488132	0	
0.4547	3.92624	2.55331	0	
0.4553	3.92624	3.15408	0	
0.4560	5.45874	3.15408	0	
0.4567	5.76271	6.53346	0	
0.4573	3.01434	5.89513	0	
0.4580	1.19054	-0.187743	0	
0.4587	3.62228	-3.86751	0	
0.4593	3.92624	-2.92879	0	
0.4600	0.886571	-2.02763	0	
0.4607	-0.0379959	-3.86751	0	
0.4613	1.79847	-7.20934	0	
0.4620	1.19054	-8.1105	0	
0.4627	0.265971	-5.36945	0	
0.4633	3.01434	-3.56712	0	
0.4640	3.92624	-4.1679	0	
0.4647	3.01434	-2.02763	0	
0.4653	3.62228	1.35175	0	
0.4660	1.19054	-0.187743	0	
0.4667	-2.78637	-2.02763	0	
0.4673	-0.949897	-0.488132	0	
0.4680	0.569938	-0.488132	0	
0.4687	-3.3943	-2.32801	0	
0.4693	-3.3943	-4.1679	0	
0.4700	0.569938	-9.04922	0	
0.4707	0.265971	-15.1321	0	
0.4713	-1.55783	-14.2309	0	
0.4720	-1.55783	-11.1895	0	
0.4727	-1.55783	-12.9918	0	
0.4733	-0.64593	-14.2309	0	
0.4740	-0.64593	-9.65	0	
0.4747	-2.16577	-4.1679	0	
0.4753	-0.949897	-2.32801	0	
0.4760	-0.0379959	-3.22918	0	
0.4767	-1.8618	-4.46829	0	
0.4773	-0.949897	-4.46829	0	
0.4780	2.10244	-2.6284	0	
0.4787	0.265971	0.112646	0	
0.4793	-2.16577	0.413035	0	
0.4800	-3.09033	-0.788521	0	
0.4807	-6.14267	1.35175	0	
0.4813	-7.96647	3.79241	0	
0.4820	-4.00223	0.713424	0	
0.4827	-0.64593	-0.488132	0	
0.4833	-4.3062	3.45447	0	
0.4840	-8.27044	4.39319	0	
0.4847	-5.8387	3.15408	0	
0.4853	-2.16577	4.0928	0	
0.4860	-2.78637	2.25292	0	
0.4867	-3.3943	-1.12646	0	
0.4873	-1.8618	-0.488132	0	
0.4880	-2.16577	0.112646	0	
0.4887	-3.69827	0.413035	0	
0.4893	-2.4824	1.35175	0	
0.4900	-0.64593	0.413035	0	
0.4907	-1.8618	-0.187743	0	
0.4913	-1.8618	1.95253	0	
0.4920	-1.55783	1.95253	0	
0.4927	-4.3062	1.35175	0	
0.4933	-5.2181	3.15408	0	
0.4940	-1.55783	3.15408	0	
0.4947	-0.64593	2.55331	0	
0.4953	-0.949897	4.0928	0	
0.4960	2.10244	4.0928	0	
0.4967	4.24288	3.15408	0	
0.4973	2.40641	5.29436	0	
0.4980	1.19054	4.0928	0	
0.4987	1.79847	0.413035	0	
0.4993	2.10244	1.65214	0	
0.5000	2.40641	3.79241	0	
0.5007	1.49451	2.25292	0	
0.5013	1.49451	1.01381	0	
0.5020	3.31831	2.55331	0	
0.5027	2.10244	4.99397	0	
0.5033	0.569938	6.83385	0	
0.5040	1.49451	9.5749	0	
0.5047	-1.55783	11.1144	0	
0.5053	-6.44664	9.5749	0	
0.5060	-6.7506	7.13424	0	
0.5067	-5.8387	6.83385	0	
0.5073	-8.57441	6.83385	0	
0.5080	-9.80294	4.99397	0	
0.5087	-8.57441	2.25292	0	
0.5093	-7.05457	0.413035	0	
0.5100	-4.00223	2.8537	0	
0.5107	-2.78637	6.53346	0	
0.5113	-3.3943	6.23307	0	
0.5120	-1.8618	4.99397	0	
0.5127	0.886571	8.3358	0	
0.5133	0.265971	8.67373	0	
0.5140	-0.0379959	4.0928	0	
0.5147	2.71037	1.35175	0	
0.5153	4.85081	0.112646	0	
0.5160	3.92624	-2.32801	0	
0.5167	2.40641	-0.788521	0	
0.5173	0.886571	1.65214	0	
0.5180	0.265971	1.95253	0	
0.5187	1.19054	4.0928	0	
0.5193	0.886571	4.69358	0	
0.5200	-0.0379959	-0.187743	0	
0.5207	0.886571	-1.42685	0	
0.5213	0.569938	1.65214	0	
0.5220	-1.55783	-0.488132	0	
0.5227	-0.0379959	-5.06906	0	
0.5233	3.01434	-5.36945	0	
0.5240	3.92624	-5.36945	0	
0.5247	2.71037	-4.1679	0	
0.5253	1.19054	-1.12646	0	
0.5260	0.265971	-3.22918	0	
0.5267	-0.0379959	-6.60856	0	
0.5273	-2.4824	-3.22918	0	
0.5280	-4.3062	-1.72724	0	
0.5287	-2.16577	-5.36945	0	
0.5293	-2.4824	-5.06906	0	
0.5300	-4.3062	-2.02763	0	
0.5307	-1.25386	-1.12646	0	
0.5313	0.886571	0.112646	0	
0.5320	-2.78637	1.35175	0	
0.5327	-4.00223	2.55331	0	
0.5333	-1.55783	4.0928	0	
0.5340	-2.16577	2.8537	0	
0.5347	-2.4824	0.413035	0	
0.5353	0.265971	1.95253	0	
0.5360	1.19054	4.0928	0	
0.5367	-0.64593	1.95253	0	
0.5373	-0.341963	-0.488132	0	
0.5380	3.01434	0.413035	0	
0.5387	3.92624	0.713424	0	
0.5393	3.01434	-0.788521	0	
0.5400	3.31831	-2.32801	0	
0.5407	3.62228	-2.32801	0	
0.5413	2.71037	-0.488132	0	
0.5420	3.62228	1.01381	0	
0.5427	3.31831	-0.788521	0	
0.5433	0.886571	-1.42685	0	
0.5440	3.01434	3.15408	0	
0.5447	5.76271	5.29436	0	
0.5453	2.10244	2.25292	0	
0.5460	-1.25386	3.45447	0	
0.5467	-0.64593	6.83385	0	
0.5473	-1.55783	4.39319	0	
0.5480	-1.8618	1.95253	0	
0.5487	-1.8618	3.79241	0	
0.5493	-4.00223	1.65214	0	
0.5500	-4.3062	-0.788521	0	
0.5507	-2.4824	1.65214	0	
0.5513	-3.09033	4.0928	0	
0.5520	-4.3062	4.39319	0	
0.5527	-2.4824	3.15408	0	
0.5533	-0.949897	-2.32801	0	
0.5540	-1.25386	-7.20934	0	
0.5547	-0.949897	-4.76868	0	
0.5553	0.265971	-1.42685	0	
0.5560	0.265971	-2.02763	0	
0.5567	0.265971	-1.42685	0	
0.5573	-0.0379959	-1.42685	0	
0.5580	-0.64593	-2.6284	0	
0.5587	-1.25386	-2.6284	0	
0.5593	-0.64593	-2.32801	0	
0.5600	-1.55783	-4.46829	0	
0.5607	-2.4824	-4.1679	0	
0.5613	-1.25386	0.713424	0	
0.5620	-0.0379959	2.25292	0	
0.5627	0.265971	-1.42685	0	
0.5633	2.71037	-1.72724	0	
0.5640	1.79847	2.55331	0	
0.5647	-1.8618	3.15408	0	
0.5653	-0.64593	-0.187743	0	
0.5660	1.79847	-4.1679	0	
0.5667	-0.949897	-5.36945	0	
0.5673	-2.4824	-0.788521	0	
0.5680	-0.0379959	3.79241	0	
0.5687	0.265971	1.95253	0	
0.5693	-2.16577	0.413035	0	
0.5700	-4.00223	1.65214	0	
0.5707	-4.91414	-1.42685	0	
0.5713	-4.61017	-5.36945	0	
0.5720	-4.3062	-5.06906	0	
0.5727	-3.69827	-4.46829	0	
0.5733	-4.3062	-4.76868	0	
0.5740	-6.14267	-4.1679	0	
0.5747	-5.2181	-6.00778	0	
0.5753	-0.64593	-7.81011	0	
0.5760	-2.78637	-6.00778	0	
0.5767	-8.89104	-4.46829	0	
0.5773	-6.7506	-4.46829	0	
0.5780	-1.8618	-2.92879	0	
0.5787	-3.3943	-1.42685	0	
0.5793	-5.2181	-1.72724	0	
0.5800	-4.91414	-1.42685	0	
0.5807	-5.2181	1.35175	0	
0.5813	-5.2181	2.25292	0	
0.5820	-2.78637	0.413035	0	
0.5827	-0.64593	0.112646	0	
0.5833	-1.55783	-0.488132	0	
0.5840	-3.09033	-4.1679	0	
0.5847	-1.55783	-4.46829	0	
0.5853	-0.64593	0.112646	0	
0.5860	-4.3062	1.95253	0	
0.5867	-4.3062	0.413035	0	
0.5873	-1.25386	0.413035	0	
0.5880	-1.55783	1.01381	0	
0.5887	-2.4824	0.112646	0	
0.5893	0.265971	-1.72724	0	
0.5900	1.19054	-2.32801	0	
0.5907	-0.64593	-1.72724	0	
0.5913	-0.64593	-2.6284	0	
0.5920	-1.55783	-2.32801	0	
0.5927	-3.69827	1.95253	0	
0.5933	-3.69827	3.45447	0	
0.5940	-1.25386	1.95253	0	
0.5947	2.10244	2.25292	0	
0.5953	3.62228	3.15408	0	
0.5960	1.49451	3.15408	0	
0.5967	0.569938	5.29436	0	
0.5973	3.01434	6.23307	0	
0.5980	4.54684	4.99397	0	
0.5987	4.24288	5.89513	0	
0.5993	2.71037	4.99397	0	
0.6000	1.19054	2.55331	0	
0.6007	3.01434	2.8537	0	
0.6013	6.67461	3.15408	0	
0.6020	6.67461	0.413035	0	
0.6027	4.85081	-2.32801	0	
0.6033	4.54684	-2.32801	0	
0.6040	4.85081	1.35175	0	
0.6047	5.15478	4.0928	0	
0.6053	4.24288	2.55331	0	
0.6060	1.49451	1.35175	0	
0.6067	1.19054	0.112646	0	
0.6073	2.40641	-2.6284	0	
0.6080	2.10244	-2.6284	0	
0.6087	3.01434	-0.788521	0	
0.6093	4.54684	-1.42685	0	
0.6100	2.10244	-1.12646	0	
0.6107	0.265971	-0.187743	0	
0.6113	3.01434	-3.22918	0	
0.6120	4.24288	-5.06906	0	
0.6127	3.01434	-3.86751	0	
0.6133	4.54684	-4.46829	0	
0.6140	6.06668	-5.36945	0	
0.6147	3.62228	-6.00778	0	
0.6153	1.49451	-6.90895	0	
0.6160	0.569938	-2.32801	0	
0.6167	-0.64593	3.45447	0	
0.6173	1.19054	3.15408	0	
0.6180	3.92624	1.01381	0	
0.6187	3.62228	0.413035	0	
0.6193	2.10244	-1.12646	0	
0.6200	1.19054	-0.488132	0	
0.6207	1.79847	3.15408	0	
0.6213	3.01434	3.79241	0	
0.6220	3.92624	3.15408	0	
0.6227	2.40641	3.15408	0	
0.6233	1.19054	-0.488132	0	
0.6240	1.19054	-4.1679	0	
0.6247	1.19054	-3.56712	0	
0.6253	0.569938	-5.06906	0	
0.6260	-1.55783	-6.90895	0	
0.6267	-2.4824	-1.12646	0	
0.6273	-1.25386	3.15408	0	
0.6280	-0.64593	-2.6284	0	
0.6287	-1.55783	-6.90895	0	
0.6293	-0.64593	-5.36945	0	
0.6300	-0.341963	-5.06906	0	
0.6307	-1.25386	-4.46829	0	
0.6313	-2.16577	-1.72724	0	
0.6320	-3.3943	-2.02763	0	
0.6327	-2.4824	-3.56712	0	
0.6333	-1.25386	-4.1679	0	
0.6340	-2.16577	-6.00778	0	
0.6347	-2.16577	-5.66984	0	
0.6353	0.265971	-1.72724	0	
0.6360	0.886571	-1.72724	0	
0.6367	-0.64593	-3.86751	0	
0.6373	-0.64593	-2.92879	0	
0.6380	-0.64593	-0.488132	0	
0.6387	-0.0379959	0.413035	0	
0.6393	1.49451	-0.488132	0	
0.6400	1.49451	-2.32801	0	
0.6407	0.265971	-1.72724	0	
0.6413	0.886571	1.01381	0	
0.6420	1.79847	1.01381	0	
0.6427	1.19054	-1.42685	0	
0.6433	-0.64593	-0.788521	0	
0.6440	-4.3062	0.413035	0	
0.6447	-6.44664	1.01381	0	
0.6453	-4.3062	2.55331	0	
0.6460	-1.55783	2.8537	0	
0.6467	-1.8618	0.413035	0	
0.6473	-3.3943	-1.72724	0	
0.6480	-4.00223	-3.22918	0	
0.6487	-4.3062	-5.66984	0	
0.6493	-4.61017	-5.36945	0	
0.6500	-4.00223	-2.92879	0	
0.6507	-5.2181	-0.187743	0	
0.6513	-7.05457	1.35175	0	
0.6520	-6.14267	0.413035	0	
0.6527	-5.2181	-1.72724	0	
0.6533	-6.14267	-0.187743	0	
0.6540	-4.61017	3.45447	0	
0.6547	-2.16577	5.89513	0	
0.6553	-3.69827	8.3358	0	
0.6560	-5.2181	12.3159	0	
0.6567	-4.3062	14.1558	0	
0.6573	-3.3943	10.4761	0	
0.6580	-0.341963	6.23307	0	
0.6587	2.10244	7.43463	0	
0.6593	-0.341963	10.1757	0	
0.6600	-3.3943	7.73502	0	
0.6607	-1.8618	4.0928	0	
0.6613	0.265971	4.99397	0	
0.6620	1.79847	4.0928	0	
0.6627	1.49451	1.01381	0	
0.6633	-0.0379959	1.65214	0	
0.6640	1.19054	3.15408	0	
0.6647	3.01434	1.35175	0	
0.6653	1.79847	1.35175	0	
0.6660	0.569938	2.55331	0	
0.6667	1.19054	-0.488132	0	
0.6673	1.19054	-4.1679	0	
0.6680	0.569938	-4.1679	0	
0.6687	0.569938	-1.42685	0	
0.6693	1.19054	1.01381	0	
0.6700	3.92624	1.01381	0	
0.6707	4.85081	-2.6284	0	
0.6713	1.49451	-4.1679	0	
0.6720	-0.64593	-1.42685	0	
0.6727	-1.55783	-0.488132	0	
0.6733	-2.78637	-2.32801	0	
0.6740	-1.25386	-1.12646	0	
0.6747	2.10244	1.35175	0	
0.6753	2.40641	2.8537	0	
0.6760	2.10244	4.0928	0	
0.6767	1.49451	4.0928	0	
0.6773	-0.64593	1.95253	0	
0.6780	-1.25386	1.95253	0	
0.6787	1.19054	4.0928	0	
0.6793	2.10244	5.59475	0	
0.6800	2.10244	5.29436	0	
0.6807	2.10244	3.15408	0	
0.6813	3.01434	1.95253	0	
0.6820	6.06668	3.15408	0	
0.6827	7.59918	4.99397	0	
0.6833	4.85081	4.0928	0	
0.6840	3.01434	3.45447	0	
0.6847	2.71037	2.25292	0	
0.6853	1.19054	-0.788521	0	
0.6860	1.19054	-2.92879	0	
0.6867	3.31831	-2.02763	0	
0.6873	1.79847	-2.32801	0	
0.6880	-0.341963	-3.86751	0	
0.6887	0.569938	-1.12646	0	
0.6893	2.40641	1.01381	0	
0.6900	3.01434	-2.6284	0	
0.6907	4.24288	-6.90895	0	
0.6913	4.85081	-8.1105	0	
0.6920	4.85081	-8.1105	0	
0.6927	3.92624	-6.60856	0	
0.6933	3.01434	-3.22918	0	
0.6940	4.85081	-2.32801	0	
0.6947	5.76271	-2.02763	0	
0.6953	4.24288	-0.488132	0	
0.6960	3.92624	-2.32801	0	
0.6967	4.24288	-9.34961	0	
0.6973	2.71037	-14.5313	0	
0.6980	1.19054	-12.9918	0	
0.6987	1.79847	-8.1105	0	
0.6993	3.31831	-8.74883	0	
0.7000	5.15478	-12.0907	0	
0.7007	6.67461	-8.44844	0	
0.7013	5.45874	-2.32801	0	
0.7020	3.01434	-1.42685	0	
0.7027	0.265971	0.112646	0	
0.7033	-0.64593	2.25292	0	
0.7040	1.19054	0.713424	0	
0.7047	3.01434	1.35175	0	
0.7053	-0.341963	5.29436	0	
0.7060	-3.3943	5.59475	0	
0.7067	-2.4824	2.25292	0	
0.7073	-1.55783	1.01381	0	
0.7080	-4.61017	0.413035	0	
0.7087	-5.8387	-0.187743	0	
0.7093	-2.78637	0.413035	0	
0.7100	-1.55783	1.01381	0	
0.7107	-4.00223	-0.488132	0	
0.7113	-7.05457	-3.22918	0	
0.7120	-8.57441	-3.22918	0	
0.7127	-7.35854	-1.12646	0	
0.7133	-6.14267	-0.788521	0	
0.7140	-4.91414	-1.12646	0	
0.7147	-2.16577	0.413035	0	
0.7153	-1.25386	0.112646	0	
0.7160	-5.2181	-0.488132	0	
0.7167	-7.35854	1.95253	0	
0.7173	-5.52207	3.15408	0	
0.7180	-5.2181	2.55331	0	
0.7187	-6.14267	3.45447	0	
0.7193	-6.14267	3.15408	0	
0.7200	-5.52207	1.65214	0	
0.7207	-4.3062	3.79241	0	
0.7213	-4.3062	5.59475	0	
0.7220	-5.52207	4.0928	0	
0.7227	-4.61017	1.95253	0	
0.7233	-4.00223	-0.187743	0	
0.7240	-5.8387	-0.488132	0	
0.7247	-6.14267	0.413035	0	
0.7253	-3.3943	0.413035	0	
0.7260	-3.09033	0.413035	0	
0.7267	-5.2181	1.01381	0	
0.7273	-6.14267	0.112646	0	
0.7280	-4.3062	-0.187743	0	
0.7287	-1.55783	0.413035	0	
0.7293	-1.55783	-1.12646	0	
0.7300	-1.55783	-0.788521	0	
0.7307	1.19054	1.65214	0	
0.7313	-0.64593	1.65214	0	
0.7320	-3.3943	0.713424	0	
0.7327	-0.64593	2.25292	0	
0.7333	1.49451	1.35175	0	
0.7340	-0.949897	-3.86751	0	
0.7347	0.265971	-6.60856	0	
0.7353	4.54684	-3.86751	0	
0.7360	4.54684	0.112646	0	
0.7367	1.19054	0.112646	0	
0.7373	1.19054	-1.42685	0	
0.7380	3.01434	-0.187743	0	
0.7387	4.24288	0.413035	0	
0.7393	3.92624	-0.488132	0	
0.7400	3.92624	2.25292	0	
0.7407	3.62228	5.89513	0	
0.7413	0.886571	4.0928	0	
0.7420	0.265971	2.25292	0	
0.7427	4.24288	4.0928	0	
0.7433	6.37065	2.25292	0	
0.7440	4.85081	-0.187743	0	
0.7447	3.62228	0.413035	0	
0.7453	2.71037	0.413035	0	
0.7460	2.40641	-1.42685	0	
0.7467	2.40641	-2.02763	0	
0.7473	0.265971	-3.22918	0	
0.7480	-0.0379959	-5.06906	0	
0.7487	1.19054	-4.1679	0	
0.7493	-0.0379959	-1.12646	0	
0.7500	-0.64593	-1.42685	0	
0.7507	0.886571	-4.46829	0	
0.7513	0.569938	-6.60856	0	
0.7520	-0.64593	-6.90895	0	
0.7527	-0.949897	-6.30817	0	
0.7533	-2.4824	-4.1679	0	
0.7540	-2.78637	-0.788521	0	
0.7547	-0.341963	0.413035	0	
0.7553	-0.0379959	0.112646	0	
0.7560	-1.55783	-0.788521	0	
0.7567	-1.55783	-0.488132	0	
0.7573	-1.25386	4.0928	0	
0.7580	-1.55783	9.5749	0	
0.7587	-0.341963	7.43463	0	
0.7593	1.19054	4.0928	0	
0.7600	0.265971	5.89513	0	
0.7607	-3.3943	6.23307	0	
0.7613	-6.14267	1.35175	0	
0.7620	-4.3062	-0.488132	0	
0.7627	-0.64593	0.413035	0	
0.7633	-1.25386	-0.488132	0	
0.7640	-2.4824	-0.488132	0	
0.7647	-1.55783	-0.788521	0	
0.7653	-1.25386	-5.06906	0	
0.7660	-0.341963	-7.81011	0	
0.7667	0.265971	-6.00778	0	
0.7673	-1.55783	-4.76868	0	
0.7680	-1.55783	-4.46829	0	
0.7687	0.265971	-3.56712	0	
0.7693	-2.16577	-5.66984	0	
0.7700	-6.44664	-7.81011	0	
0.7707	-5.52207	-4.46829	0	
0.7713	-2.4824	-2.32801	0	
0.7720	-2.78637	-4.1679	0	
0.7727	-3.3943	-3.56712	0	
0.7733	-1.25386	-1.72724	0	
0.7740	0.265971	-2.92879	0	
0.7747	-0.64593	-3.22918	0	
0.7753	-0.64593	-2.32801	0	
0.7760	-0.949897	-4.1679	0	
0.7767	-1.55783	-6.30817	0	
0.7773	1.19054	-5.06906	0	
0.7780	3.92624	-3.86751	0	
0.7787	2.71037	-3.22918	0	
0.7793	2.10244	-1.72724	0	
0.7800	4.24288	-1.42685	0	
0.7807	4.85081	-4.1679	0	
0.7813	3.62228	-5.36945	0	
0.7820	4.54684	-3.22918	0	
0.7827	6.37065	-2.92879	0	
0.7833	5.15478	-6.00778	0	
0.7840	1.49451	-6.00778	0	
0.7847	-0.64593	-3.22918	0	
0.7853	-1.55783	-3.56712	0	
0.7860	-1.8618	-6.00778	0	
0.7867	-1.55783	-5.36945	0	
0.7873	-0.341963	-3.56712	0	
0.7880	1.19054	-3.22918	0	
0.7887	3.01434	-2.92879	0	
0.7893	3.92624	-2.02763	0	
0.7900	1.49451	-1.12646	0	
0.7907	0.569938	1.01381	0	
0.7913	2.40641	3.15408	0	
0.7920	2.71037	4.0928	0	
0.7927	3.31831	4.39319	0	
0.7933	7.29521	3.45447	0	
0.7940	7.59918	1.95253	0	
0.7947	5.76271	2.8537	0	
0.7953	6.67461	4.39319	0	
0.7960	6.67461	4.69358	0	
0.7967	4.24288	5.59475	0	
0.7973	5.76271	6.23307	0	
0.7980	8.51108	5.29436	0	
0.7987	6.37065	4.0928	0	
0.7993	4.85081	2.8537	0	
0.8000	5.76271	1.35175	0	
0.8007	5.45874	1.65214	0	
0.8013	5.15478	2.25292	0	
0.8020	6.06668	1.95253	0	
0.8027	4.85081	1.65214	0	
0.8033	2.71037	-0.187743	0	
0.8040	0.265971	-1.42685	0	
0.8047	-3.69827	1.35175	0	
0.8053	-7.05457	3.15408	0	
0.8060	-7.05457	2.55331	0	
0.8067	-7.05457	2.55331	0	
0.8073	-7.96647	2.55331	0	
0.8080	-8.27044	2.55331	0	
0.8087	-7.35854	5.89513	0	
0.8093	-7.05457	8.67373	0	
0.8100	-6.7506	5.29436	0	
0.8107	-6.14267	1.35175	0	
0.8113	-6.7506	1.35175	0	
0.8120	-7.35854	2.25292	0	
0.8127	-5.8387	2.55331	0	
0.8133	-4.00223	2.25292	0	
0.8140	-5.2181	0.413035	0	
0.8147	-5.8387	-0.788521	0	
0.8153	-3.09033	0.413035	0	
0.8160	-1.8618	1.95253	0	
0.8167	-3.3943	1.35175	0	
0.8173	-2.78637	-0.187743	0	
0.8180	-0.64593	-0.488132	0	
0.8187	-0.341963	0.713424	0	
0.8193	0.265971	1.65214	0	
0.8200	2.40641	0.413035	0	
0.8207	2.71037	-1.42685	0	
0.8213	0.886571	-2.32801	0	
0.8220	0.886571	-3.22918	0	
0.8227	2.10244	-2.32801	0	
0.8233	2.10244	1.01381	0	
0.8240	2.71037	2.25292	0	
0.8247	4.54684	-0.488132	0	
0.8253	4.85081	-3.56712	0	
0.8260	4.54684	-2.32801	0	
0.8267	5.76271	-1.42685	0	
0.8273	5.45874	-1.72724	0	
0.8280	3.62228	-0.488132	0	
0.8287	4.85081	0.112646	0	
0.8293	5.76271	-0.488132	0	
0.8300	2.10244	0.713424	0	
0.8307	-0.341963	1.65214	0	
0.8313	0.265971	-0.488132	0	
0.8320	0.265971	-1.42685	0	
0.8327	1.19054	-0.788521	0	
0.8333	2.10244	-3.22918	0	
0.8340	0.265971	-3.22918	0	
0.8347	-1.55783	0.112646	0	
0.8353	0.265971	0.413035	0	
0.8360	1.19054	-0.187743	0	
0.8367	-1.55783	0.713424	0	
0.8373	-1.25386	-1.72724	0	
0.8380	3.92624	-6.90895	0	
0.8387	5.76271	-6.90895	0	
0.8393	2.10244	-4.46829	0	
0.8400	1.49451	-5.06906	0	
0.8407	3.01434	-3.22918	0	
0.8413	1.19054	0.713424	0	
0.8420	0.569938	-0.788521	0	
0.8427	1.49451	-4.1679	0	
0.8433	1.19054	-1.42685	0	
0.8440	1.79847	1.35175	0	
0.8447	4.85081	-0.488132	0	
0.8453	4.24288	-4.1679	0	
0.8460	2.10244	-6.00778	0	
0.8467	1.49451	-5.06906	0	
0.8473	-1.55783	-2.92879	0	
0.8480	-3.3943	-4.1679	0	
0.8487	-0.0379959	-6.90895	0	
0.8493	-0.341963	-6.90895	0	
0.8500	-5.52207	-5.66984	0	
0.8507	-6.14267	-4.1679	0	
0.8513	-3.69827	-0.788521	0	
0.8520	-3.3943	-0.488132	0	
0.8527	-3.3943	-4.1679	0	
0.8533	-4.00223	-4.76868	0	
0.8540	-7.66251	-1.12646	0	
0.8547	-8.89104	1.01381	0	
0.8553	-7.66251	2.25292	0	
0.8560	-6.7506	4.0928	0	
0.8567	-5.8387	3.79241	0	
0.8573	-6.14267	3.45447	0	
0.8580	-6.7506	3.45447	0	
0.8587	-4.61017	3.15408	0	
0.8593	-2.4824	3.15408	0	
0.8600	-4.00223	2.25292	0	
0.8607	-4.00223	0.413035	0	
0.8613	-0.341963	0.112646	0	
0.8620	1.79847	0.713424	0	
0.8627	0.569938	2.25292	0	
0.8633	0.265971	4.39319	0	
0.8640	0.886571	4.39319	0	
0.8647	1.19054	4.99397	0	
0.8653	2.10244	8.67373	0	
0.8660	0.265971	8.03541	0	
0.8667	-4.00223	1.35175	0	
0.8673	-2.78637	-2.02763	0	
0.8680	2.10244	-1.42685	0	
0.8687	3.92624	-1.12646	0	
0.8693	4.85081	0.112646	0	
0.8700	3.31831	-1.72724	0	
0.8707	-0.341963	-5.06906	0	
0.8713	0.569938	-2.32801	0	
0.8720	3.92624	0.413035	0	
0.8727	1.19054	-4.1679	0	
0.8733	-0.341963	-5.36945	0	
0.8740	4.85081	-1.42685	0	
0.8747	6.37065	0.112646	0	
0.8753	3.01434	-0.187743	0	
0.8760	3.01434	0.413035	0	
0.8767	6.06668	-1.72724	0	
0.8773	6.67461	-2.02763	0	
0.8780	6.37065	0.112646	0	
0.8787	5.45874	0.713424	0	
0.8793	4.24288	2.25292	0	
0.8800	3.92624	4.99397	0	
0.8807	2.10244	4.99397	0	
0.8813	-2.16577	4.69358	0	
0.8820	-3.3943	6.83385	0	
0.8827	-1.25386	8.03541	0	
0.8833	-0.949897	4.99397	0	
0.8840	-1.55783	1.95253	0	
0.8847	-1.25386	2.25292	0	
0.8853	-2.16577	2.25292	0	
0.8860	-3.09033	1.95253	0	
0.8867	-3.09033	4.0928	0	
0.8873	-4.91414	5.89513	0	
0.8880	-5.2181	4.0928	0	
0.8887	-2.16577	2.8537	0	
0.8893	-2.4824	3.79241	0	
0.8900	-4.3062	1.35175	0	
0.8907	-2.4824	-1.12646	0	
0.8913	-3.69827	1.65214	0	
0.8920	-7.05457	4.69358	0	
0.8927	-6.7506	3.45447	0	
0.8933	-4.00223	1.01381	0	
0.8940	-2.16577	1.01381	0	
0.8947	-0.341963	2.25292	0	
0.8953	0.265971	3.15408	0	
0.8960	1.19054	3.15408	0	
0.8967	1.19054	3.15408	0	
0.8973	0.265971	1.01381	0	
0.8980	2.10244	-3.86751	0	
0.8987	7.29521	-6.30817	0	
0.8993	7.59918	-6.00778	0	
0.9000	4.85081	-5.06906	0	
0.9007	4.24288	-3.56712	0	
0.9013	3.92624	-2.6284	0	
0.9020	2.10244	-2.02763	0	
0.9027	-0.64593	-0.488132	0	
0.9033	-2.4824	0.413035	0	
0.9040	-0.64593	0.413035	0	
0.9047	1.79847	0.413035	0	
0.9053	0.886571	-2.02763	0	
0.9060	-0.64593	-4.1679	0	
0.9067	-1.55783	-2.92879	0	
0.9073	-2.4824	-2.32801	0	
0.9080	-1.25386	-4.46829	0	
0.9087	0.265971	-4.76868	0	
0.9093	-1.55783	-3.86751	0	
0.9100	-2.16577	-3.22918	0	
0.9107	-0.64593	1.01381	0	
0.9113	-2.4824	5.89513	0	
0.9120	-4.91414	4.99397	0	
0.9127	-5.2181	1.01381	0	
0.9133	-4.3062	-1.72724	0	
0.9140	-1.25386	-3.86751	0	
0.9147	2.10244	-3.86751	0	
0.9153	0.265971	-1.72724	0	
0.9160	-1.8618	1.35175	0	
0.9167	0.569938	4.99397	0	
0.9173	3.01434	6.23307	0	
0.9180	3.01434	7.13424	0	
0.9187	1.49451	8.3358	0	
0.9193	-0.64593	3.45447	0	
0.9200	-1.8618	-1.12646	0	
0.9207	0.265971	2.25292	0	
0.9213	0.886571	1.65214	0	
0.9220	-1.55783	-5.06906	0	
0.9227	-3.3943	-2.6284	0	
0.9233	-4.3062	1.35175	0	
0.9240	-4.3062	-1.72724	0	
0.9247	-4.3062	0.413035	0	
0.9253	-6.14267	4.99397	0	
0.9260	-7.05457	0.713424	0	
0.9267	-5.8387	-0.788521	0	
0.9273	-4.3062	2.25292	0	
0.9280	-3.3943	-1.42685	0	
0.9287	-4.3062	-3.22918	0	
0.9293	-5.2181	1.95253	0	
0.9300	-1.55783	2.8537	0	
0.9307	2.71037	-0.488132	0	
0.9313	2.10244	-1.42685	0	
0.9320	2.71037	0.112646	0	
0.9327	4.54684	3.15408	0	
0.9333	2.40641	4.0928	0	
0.9340	0.265971	0.713424	0	
0.9347	3.01434	-0.187743	0	
0.9353	4.85081	1.95253	0	
0.9360	4.54684	1.01381	0	
0.9367	3.31831	-1.42685	0	
0.9373	2.71037	-2.32801	0	
0.9380	4.24288	-4.46829	0	
0.9387	5.15478	-6.00778	0	
0.9393	1.19054	-4.1679	0	
0.9400	-2.4824	-0.488132	0	
0.9407	-1.25386	2.25292	0	
0.9413	-0.0379959	1.95253	0	
0.9420	-1.8618	-0.788521	0	
0.9427	-2.4824	-3.22918	0	
0.9433	-1.55783	-2.32801	0	
0.9440	-2.4824	-0.788521	0	
0.9447	-5.2181	-1.72724	0	
0.9453	-3.3943	-3.86751	0	
0.9460	0.265971	-3.22918	0	
0.9467	-1.55783	-2.02763	0	
0.9473	-2.4824	-2.6284	0	
0.9480	0.569938	-3.22918	0	
0.9487	-0.0379959	-2.6284	0	
0.9493	-3.3943	-2.32801	0	
0.9500	-2.78637	-2.32801	0	
0.9507	-2.4824	-2.6284	0	
0.9513	-3.09033	-5.06906	0	
0.9520	-0.949897	-5.36945	0	
0.9527	1.19054	-3.22918	0	
0.9533	1.79847	-1.42685	0	
0.9540	3.31831	-0.187743	0	
0.9547	4.85081	-1.12646	0	
0.9553	4.85081	-4.1679	0	
0.9560	6.37065	-2.6284	0	
0.9567	7.90315	1.35175	0	
0.9573	8.51108	1.95253	0	
0.9580	7.59918	3.45447	0	
0.9587	5.15478	4.99397	0	
0.9593	3.92624	0.413035	0	
0.9600	4.54684	-3.86751	0	
0.9607	5.15478	-1.42685	0	
0.9613	6.06668	-0.187743	0	
0.9620	7.29521	-2.92879	0	
0.9627	4.85081	-4.1679	0	
0.9633	-0.341963	-3.22918	0	
0.9640	-1.55783	-0.788521	0	
0.9647	-0.0379959	2.25292	0	
0.9653	0.265971	1.35175	0	
0.9660	0.569938	-2.92879	0	
0.9667	-0.64593	-3.22918	0	
0.9673	-2.4824	0.413035	0	
0.9680	-1.25386	3.15408	0	
0.9687	2.71037	3.15408	0	
0.9693	3.92624	1.95253	0	
0.9700	2.40641	2.25292	0	
0.9707	1.49451	4.69358	0	
0.9713	1.79847	2.55331	0	
0.9720	1.19054	-4.1679	0	
0.9727	-0.64593	-6.00778	0	
0.9733	-1.8618	-3.22918	0	
0.9740	1.19054	-3.22918	0	
0.9747	2.71037	-3.86751	0	
0.9753	-0.64593	-2.32801	0	
0.9760	-2.16577	-2.32801	0	
0.9767	-0.0379959	-4.1679	0	
0.9773	0.265971	-3.86751	0	
0.9780	-1.55783	-2.32801	0	
0.9787	-1.25386	-2.02763	0	
0.9793	-1.25386	-2.32801	0	
0.9800	-3.3943	-2.02763	0	
0.9807	-4.3062	-1.42685	0	
0.9813	-2.4824	-2.02763	0	
0.9820	-2.4824	-0.788521	0	
0.9827	-4.3062	1.01381	0	
0.9833	-5.2181	-1.42685	0	
0.9840	-4.3062	-3.86751	0	
0.9847	-2.4824	-2.6284	0	
0.9853	-3.09033	-2.92879	0	
0.9860	-6.44664	-5.36945	0	
0.9867	-7.35854	-5.36945	0	
0.9873	-4.00223	-4.46829	0	
0.9880	-2.4824	-3.56712	0	
0.9887	-4.3062	-3.22918	0	
0.9893	-6.14267	-5.06906	0	
0.9900	-5.2181	-5.06906	0	
0.9907	-4.3062	-0.187743	0	
0.9913	-4.00223	2.8537	0	
0.9920	-3.69827	0.713424	0	
0.9927	-4.91414	-0.187743	0	
0.9933	-7.66251	0.112646	0	
0.9940	-6.14267	0.413035	0	
0.9947	-2.4824	1.01381	0	
0.9953	-3.09033	1.35175	0	
0.9960	-4.91414	0.413035	0	
0.9967	-0.341963	-0.488132	0	
0.9973	4.54684	-0.488132	0	
0.9980	3.92624	-1.12646	0	
0.9987	3.31831	-1.72724	0	
0.9993	6.37065	-2.6284	0	
1.0000	8.81505	-3.22918	0	
1.0007	5.76271	-2.6284	0	
1.0013	-0.341963	-2.92879	0	
1.0020	-0.0379959	-5.06906	0	
1.0027	3.92624	-4.76868	0	
1.0033	2.71037	-0.488132	0	
1.0040	-0.64593	1.35175	0	
1.0047	-0.0379959	-1.72724	0	
1.0053	1.19054	-3.86751	0	
1.0060	0.886571	-3.86751	0	
1.0067	-0.341963	-5.06906	0	
1.0073	-1.55783	-6.00778	0	
1.0080	-2.4824	-4.1679	0	
1.0087	-3.09033	-3.56712	0	
1.0093	-3.3943	-2.92879	0	
1.0100	-2.4824	-0.488132	0	
1.0107	-1.55783	0.713424	0	
1.0113	-0.64593	0.413035	0	
1.0120	-0.64593	-0.488132	0	
1.0127	-0.949897	-1.72724	0	
1.0133	2.10244	-2.32801	0	
1.0140	6.67461	-0.788521	0	
1.0147	6.37065	0.413035	0	
1.0153	4.54684	-0.187743	0	
1.0160	6.06668	-0.788521	0	
1.0167	5.76271	2.25292	0	
1.0173	3.62228	6.83385	0	
1.0180	3.92624	8.03541	0	
1.0187	3.62228	6.83385	0	
1.0193	3.31831	5.29436	0	
1.0200	5.76271	4.99397	0	
1.0207	5.15478	5.29436	0	
1.0213	2.40641	5.59475	0	
1.0220	2.40641	4.39319	0	
1.0227	3.01434	2.55331	0	
1.0233	1.49451	1.65214	0	
1.0240	0.265971	3.15408	0	
1.0247	-1.55783	4.99397	0	
1.0253	-2.4824	4.0928	0	
1.0260	-3.09033	4.0928	0	
1.0267	-5.2181	5.89513	0	
1.0273	-5.2181	4.0928	0	
1.0280	-1.25386	1.65214	0	
1.0287	-1.55783	2.8537	0	
1.0293	-3.3943	3.15408	0	
1.0300	-1.8618	-0.187743	0	
1.0307	-0.949897	-1.42685	0	
1.0313	-1.25386	-1.42685	0	
1.0320	0.265971	-3.22918	0	
1.0327	-0.0379959	-2.6284	0	
1.0333	-2.16577	1.35175	0	
1.0340	-1.55783	2.25292	0	
1.0347	-0.64593	1.35175	0	
1.0353	-0.0379959	2.25292	0	
1.0360	1.19054	0.413035	0	
1.0367	0.569938	-1.72724	0	
1.0373	-0.64593	1.65214	0	
1.0380	0.886571	5.29436	0	
1.0387	2.10244	3.45447	0	
1.0393	-0.341963	3.79241	0	
1.0400	-2.4824	6.83385	0	
1.0407	-3.3943	5.89513	0	
1.0413	-3.3943	4.39319	0	
1.0420	-2.4824	7.43463	0	
1.0427	-1.8618	7.43463	0	
1.0433	-1.8618	4.0928	0	
1.0440	-1.8618	3.45447	0	
1.0447	-2.4824	3.45447	0	
1.0453	-2.4824	1.95253	0	
1.0460	-2.16577	3.15408	0	
1.0467	-3.3943	5.59475	0	
1.0473	-4.3062	4.0928	0	
1.0480	-3.09033	2.8537	0	
1.0487	-1.55783	4.69358	0	
1.0493	-0.949897	4.39319	0	
1.0500	-1.25386	3.15408	0	
1.0507	-1.55783	4.39319	0	
1.0513	-0.949897	4.39319	0	
1.0520	0.265971	1.35175	0	
1.0527	0.569938	0.713424	0	
1.0533	0.569938	1.01381	0	
1.0540	2.10244	-1.72724	0	
1.0547	3.01434	-3.22918	0	
1.0553	2.10244	-0.488132	0	
1.0560	0.569938	1.01381	0	
1.0567	0.265971	-0.187743	0	
1.0573	-0.0379959	1.01381	0	
1.0580	-2.16577	3.15408	0	
1.0587	-3.3943	1.35175	0	
1.0593	-1.25386	-2.02763	0	
1.0600	0.265971	-2.32801	0	
1.0607	-1.25386	1.35175	0	
1.0613	-4.00223	4.99397	0	
1.0620	-5.2181	5.59475	0	
1.0627	-5.52207	4.0928	0	
1.0633	-4.3062	3.15408	0	
1.0640	-2.16577	1.65214	0	
1.0647	-2.16577	-1.12646	0	
1.0653	-2.78637	-2.32801	0	
1.0660	-1.25386	-0.488132	0	
1.0667	-1.55783	-0.187743	0	
1.0673	-4.3062	-4.76868	0	
1.0680	-3.3943	-6.30817	0	
1.0687	-0.64593	-3.86751	0	
1.0693	1.19054	-4.1679	0	
1.0700	3.92624	-3.56712	0	
1.0707	6.06668	0.713424	0	
1.0713	2.40641	1.35175	0	
1.0720	-1.8618	-2.32801	0	
1.0727	-2.4824	-2.02763	0	
1.0733	-2.4824	-0.488132	0	
1.0740	-1.25386	-2.32801	0	
1.0747	0.569938	-1.72724	0	
1.0753	-0.341963	2.55331	0	
1.0760	-1.25386	2.55331	0	
1.0767	-0.949897	0.112646	0	
1.0773	-1.55783	-1.42685	0	
1.0780	-1.25386	-2.32801	0	
1.0787	-0.341963	-0.788521	0	
1.0793	-1.8618	3.15408	0	
1.0800	-3.3943	4.39319	0	
1.0807	-1.55783	4.0928	0	
1.0813	-1.55783	3.79241	0	
1.0820	-2.4824	1.35175	0	
1.0827	-1.55783	2.8537	0	
1.0833	0.569938	7.13424	0	
1.0840	0.265971	5.59475	0	
1.0847	-0.341963	0.112646	0	
1.0853	0.886571	-0.488132	0	
1.0860	1.19054	0.713424	0	
1.0867	0.265971	1.35175	0	
1.0873	0.265971	0.413035	0	
1.0880	1.19054	-4.1679	0	
1.0887	0.265971	-7.50973	0	
1.0893	-0.64593	-5.36945	0	
1.0900	-0.341963	-2.6284	0	
1.0907	2.10244	-2.02763	0	
1.0913	2.10244	-0.187743	0	
1.0920	-1.55783	-0.488132	0	
1.0927	-2.4824	-5.66984	0	
1.0933	2.71037	-9.95039	0	
1.0940	4.24288	-9.95039	0	
1.0947	0.886571	-7.81011	0	
1.0953	-0.341963	-8.44844	0	
1.0960	0.265971	-8.74883	0	
1.0967	-0.0379959	-5.06906	0	
1.0973	0.886571	-3.22918	0	
1.0980	0.886571	-6.00778	0	
1.0987	-0.64593	-8.74883	0	
1.0993	-0.64593	-7.81011	0	
1.1000	-0.64593	-6.90895	0	
1.1007	-1.55783	-5.06906	0	
1.1013	0.265971	-3.22918	0	
1.1020	1.49451	-1.42685	0	
1.1027	0.265971	-0.488132	0	
1.1033	0.569938	-1.12646	0	
1.1040	1.49451	-0.488132	0	
1.1047	0.886571	1.35175	0	
1.1053	0.886571	-0.187743	0	
1.1060	0.886571	-4.1679	0	
1.1067	0.265971	-6.60856	0	
1.1073	0.886571	-6.90895	0	
1.1080	1.79847	-5.36945	0	
1.1087	0.265971	-2.92879	0	
1.1093	0.265971	-6.30817	0	
1.1100	4.85081	-9.95039	0	
1.1107	7.59918	-6.30817	0	
1.1113	3.62228	-2.92879	0	
1.1120	-0.64593	-3.22918	0	
1.1127	1.79847	-1.12646	0	
1.1133	3.92624	-0.488132	0	
1.1140	3.01434	-5.06906	0	
1.1147	3.62228	-6.60856	0	
1.1153	3.01434	-4.46829	0	
1.1160	-0.949897	-6.90895	0	
1.1167	-1.8618	-9.65	0	
1.1173	2.10244	-6.90895	0	
1.1180	5.15478	-2.92879	0	
1.1187	5.45874	-0.187743	0	
1.1193	3.92624	3.15408	0	
1.1200	3.01434	4.39319	0	
1.1207	4.85081	2.8537	0	
1.1213	6.06668	3.15408	0	
1.1220	3.92624	4.99397	0	
1.1227	1.19054	4.39319	0	
1.1233	1.19054	4.99397	0	
1.1240	3.01434	5.89513	0	
1.1247	5.15478	2.25292	0	
1.1253	3.31831	-0.488132	0	
1.1260	0.265971	0.713424	0	
1.1267	0.265971	0.713424	0	
1.1273	1.19054	0.112646	0	
1.1280	0.265971	2.25292	0	
1.1287	1.19054	0.413035	0	
1.1293	3.01434	-3.22918	0	
1.1300	2.10244	-0.488132	0	
1.1307	1.49451	1.35175	0	
1.1313	1.19054	-2.6284	0	
1.1320	-0.0379959	-3.56712	0	
1.1327	1.19054	-1.12646	0	
1.1333	4.85081	-3.22918	0	
1.1340	6.06668	-5.06906	0	
1.1347	5.76271	-2.32801	0	
1.1353	4.54684	-1.42685	0	
1.1360	3.01434	-0.488132	0	
1.1367	2.40641	3.15408	0	
1.1373	2.71037	4.99397	0	
1.1380	1.79847	4.99397	0	
1.1387	2.10244	6.83385	0	
1.1393	2.10244	6.23307	0	
1.1400	0.265971	3.15408	0	
1.1407	2.40641	3.15408	0	
1.1413	5.45874	4.99397	0	
1.1420	1.79847	3.45447	0	
1.1427	-1.55783	2.8537	0	
1.1433	-0.0379959	5.59475	0	
1.1440	-0.949897	4.0928	0	
1.1447	-1.25386	-2.32801	0	
1.1453	0.886571	-5.66984	0	
1.1460	-1.8618	-3.22918	0	
1.1467	-5.8387	-2.32801	0	
1.1473	-4.00223	-1.12646	0	
1.1480	-3.3943	3.15408	0	
1.1487	-5.8387	4.39319	0	
1.1493	-5.2181	1.95253	0	
1.1500	-5.2181	3.45447	0	
1.1507	-8.89104	7.73502	0	
1.1513	-11.6267	4.99397	0	
1.1520	-10.7148	-3.22918	0	
1.1527	-8.27044	-5.66984	0	
1.1533	-8.27044	-2.32801	0	
1.1540	-11.6267	-1.42685	0	
1.1547	-11.0188	-2.6284	0	
1.1553	-6.44664	-1.42685	0	
1.1560	-5.8387	0.713424	0	
1.1567	-7.35854	1.35175	0	
1.1573	-7.35854	1.01381	0	
1.1580	-6.14267	2.8537	0	
1.1587	-4.00223	5.29436	0	
1.1593	-2.4824	5.59475	0	
1.1600	-4.3062	4.99397	0	
1.1607	-4.00223	6.23307	0	
1.1613	-1.8618	5.89513	0	
1.1620	-4.00223	4.99397	0	
1.1627	-7.35854	8.67373	0	
1.1633	-7.05457	10.1757	0	
1.1640	-5.8387	3.15408	0	
1.1647	-4.3062	-1.72724	0	
1.1653	-1.55783	0.112646	0	
1.1660	-0.949897	-1.42685	0	
1.1667	-3.09033	-4.46829	0	
1.1673	-4.00223	-1.72724	0	
1.1680	-3.69827	1.35175	0	
1.1687	-4.00223	0.112646	0	
1.1693	-4.3062	-1.72724	0	
1.1700	-4.3062	-3.56712	0	
1.1707	-2.78637	-4.76868	0	
1.1713	-1.25386	-3.22918	0	
1.1720	-1.55783	-1.42685	0	
1.1727	-2.4824	-3.22918	0	
1.1733	-2.4824	-3.22918	0	
1.1740	-1.8618	-1.12646	0	
1.1747	-0.341963	1.35175	0	
1.1753	0.265971	3.45447	0	
1.1760	-1.55783	4.0928	0	
1.1767	-0.64593	3.79241	0	
1.1773	1.19054	3.15408	0	
1.1780	0.569938	2.25292	0	
1.1787	0.265971	2.25292	0	
1.1793	2.10244	5.59475	0	
1.1800	2.40641	4.69358	0	
1.1807	1.79847	0.713424	0	
1.1813	2.10244	0.713424	0	
1.1820	2.10244	2.25292	0	
1.1827	2.10244	1.01381	0	
1.1833	3.62228	2.25292	0	
1.1840	4.85081	2.8537	0	
1.1847	5.15478	-0.187743	0	
1.1853	3.01434	-0.488132	0	
1.1860	1.49451	1.01381	0	
1.1867	3.92624	0.112646	0	
1.1873	5.76271	1.35175	0	
1.1880	4.85081	2.25292	0	
1.1887	5.15478	-2.02763	0	
1.1893	6.37065	-5.06906	0	
1.1900	5.45874	-2.6284	0	
1.1907	4.24288	-0.187743	0	
1.1913	3.01434	-0.488132	0	
1.1920	1.49451	-1.42685	0	
1.1927	3.31831	-0.788521	0	
1.1933	4.54684	0.413035	0	
1.1940	3.01434	-0.187743	0	
1.1947	3.62228	-2.02763	0	
1.1953	5.76271	-3.86751	0	
1.1960	5.45874	-4.1679	0	
1.1967	2.71037	-1.72724	0	
1.1973	1.79847	-0.488132	0	
1.1980	3.92624	-1.12646	0	
1.1987	4.24288	-0.187743	0	
1.1993	1.19054	1.65214	0	
1.2000	1.19054	0.413035	0	
1.2007	2.71037	-0.488132	0	
1.2013	-1.55783	0.413035	0	
1.2020	-6.14267	0.413035	0	
1.2027	-3.09033	-1.12646	0	
1.2033	-0.64593	-2.32801	0	
1.2040	-2.4824	-4.1679	0	
1.2047	-4.3062	-5.06906	0	
1.2053	-4.00223	-4.1679	0	
1.2060	-4.3062	-3.22918	0	
1.2067	-5.8387	-5.06906	0	
1.2073	-7.05457	-8.44844	0	
1.2080	-7.35854	-7.50973	0	
1.2087	-7.66251	-4.1679	0	
1.2093	-6.7506	-5.06906	0	
1.2100	-3.3943	-6.30817	0	
1.2107	-1.8618	-4.1679	0	
1.2113	-3.3943	-3.22918	0	
1.2120	-3.3943	-6.00778	0	
1.2127	-3.09033	-5.06906	0	
1.2133	-4.3062	-1.42685	0	
1.2140	-4.61017	-2.02763	0	
1.2147	-3.3943	-5.66984	0	
1.2153	-1.55783	-6.90895	0	
1.2160	0.569938	-3.22918	0	
1.2167	-0.0379959	0.413035	0	
1.2173	-1.8618	-0.488132	0	
1.2180	-0.949897	-2.02763	0	
1.2187	-0.0379959	-2.02763	0	
1.2193	0.265971	-1.72724	0	
1.2200	4.24288	-2.02763	0	
1.2207	5.76271	-0.488132	0	
1.2213	3.01434	0.413035	0	
1.2220	3.62228	-2.02763	0	
1.2227	5.76271	-3.56712	0	
1.2233	3.01434	-3.86751	0	
1.2240	-0.0379959	-4.1679	0	
1.2247	-0.0379959	-2.6284	0	
1.2253	-0.949897	-0.488132	0	
1.2260	-2.16577	-0.488132	0	
1.2267	-0.949897	0.112646	0	
1.2273	-0.64593	0.713424	0	
1.2280	-2.4824	0.713424	0	
1.2287	-3.3943	1.95253	0	
1.2293	-2.16577	3.15408	0	
1.2300	-0.64593	1.65214	0	
1.2307	-0.64593	0.713424	0	
1.2313	-0.0379959	-0.488132	0	
1.2320	0.886571	-3.22918	0	
1.2327	-0.341963	-3.22918	0	
1.2333	-0.949897	-0.488132	0	
1.2340	1.19054	1.35175	0	
1.2347	2.10244	2.8537	0	
1.2353	0.886571	4.39319	0	
1.2360	1.19054	4.0928	0	
1.2367	1.49451	4.0928	0	
1.2373	0.265971	4.39319	0	
1.2380	-0.64593	2.8537	0	
1.2387	0.265971	3.15408	0	
1.2393	2.40641	4.99397	0	
1.2400	5.15478	5.29436	0	
1.2407	5.45874	5.89513	0	
1.2413	3.92624	6.23307	0	
1.2420	1.79847	4.39319	0	
1.2427	-0.0379959	2.8537	0	
1.2433	-0.0379959	1.95253	0	
1.2440	-1.25386	0.413035	0	
1.2447	-4.00223	1.65214	0	
1.2453	-2.78637	2.55331	0	
1.2460	1.19054	0.413035	0	
1.2467	-0.0379959	0.713424	0	
1.2473	-4.3062	3.15408	0	
1.2480	-3.69827	0.413035	0	
1.2487	-2.16577	-2.6284	0	
1.2493	-4.00223	0.112646	0	
1.2500	-4.3062	2.25292	0	
1.2507	-1.55783	0.713424	0	
1.2513	-0.949897	2.25292	0	
1.2520	-2.4824	4.0928	0	
1.2527	-2.78637	1.35175	0	
1.2533	-3.3943	-0.488132	0	
1.2540	-4.3062	1.35175	0	
1.2547	-3.69827	2.25292	0	
1.2553	-2.4824	1.35175	0	
1.2560	-3.69827	1.35175	0	
1.2567	-3.3943	0.713424	0	
1.2573	0.265971	0.413035	0	
1.2580	1.79847	1.35175	0	
1.2587	-0.341963	1.35175	0	
1.2593	-1.8618	0.413035	0	
1.2600	-2.4824	0.413035	0	
1.2607	-3.09033	-0.488132	0	
1.2613	-1.55783	-1.72724	0	
1.2620	0.886571	1.65214	0	
1.2627	1.19054	5.29436	0	
1.2633	0.886571	4.0928	0	
1.2640	1.79847	2.55331	0	
1.2647	1.79847	2.25292	0	
1.2653	-0.64593	-1.42685	0	
1.2660	-2.16577	-3.22918	0	
1.2667	-0.64593	-1.42685	0	
1.2673	0.265971	-1.42685	0	
1.2680	-3.3943	-1.42685	0	
1.2687	-5.8387	0.713424	0	
1.2693	-2.4824	1.95253	0	
1.2700	-1.8618	1.35175	0	
1.2707	-7.05457	2.8537	0	
1.2713	-7.96647	4.0928	0	
1.2720	-2.4824	3.15408	0	
1.2727	-1.55783	1.65214	0	
1.2733	-4.3062	1.35175	0	
1.2740	-1.8618	2.55331	0	
1.2747	1.49451	2.55331	0	
1.2753	1.19054	1.35175	0	
1.2760	2.10244	2.25292	0	
1.2767	3.92624	3.15408	0	
1.2773	3.01434	2.25292	0	
1.2780	2.40641	0.713424	0	
1.2787	3.62228	1.35175	0	
1.2793	4.85081	1.35175	0	
1.2800	6.67461	1.35175	0	
1.2807	7.59918	1.65214	0	
1.2813	5.76271	1.35175	0	
1.2820	5.45874	0.713424	0	
1.2827	6.06668	2.25292	0	
1.2833	3.92624	3.79241	0	
1.2840	0.886571	1.65214	0	
1.2847	-1.25386	-0.488132	0	
1.2853	-0.64593	0.112646	0	
1.2860	1.19054	0.112646	0	
1.2867	1.19054	-2.32801	0	
1.2873	-0.64593	-4.1679	0	
1.2880	0.265971	-4.1679	0	
1.2887	0.569938	-4.46829	0	
1.2893	-2.4824	-3.22918	0	
1.2900	-2.4824	-2.6284	0	
1.2907	0.265971	-6.00778	0	
1.2913	-0.0379959	-7.81011	0	
1.2920	-1.55783	-4.46829	0	
1.2927	-0.64593	-5.06906	0	
1.2933	-0.64593	-9.95039	0	
1.2940	-0.949897	-10.5512	0	
1.2947	-0.0379959	-6.90895	0	
1.2953	1.19054	-7.20934	0	
1.2960	2.40641	-10.5512	0	
1.2967	3.01434	-10.5512	0	
1.2973	2.10244	-8.74883	0	
1.2980	2.71037	-6.90895	0	
1.2987	4.85081	-4.46829	0	
1.2993	3.01434	-3.22918	0	
1.3000	2.40641	-5.06906	0	
1.3007	5.45874	-4.76868	0	
1.3013	3.92624	-1.72724	0	
1.3020	-0.341963	-2.02763	0	
1.3027	0.569938	-3.22918	0	
1.3033	2.10244	-1.42685	0	
1.3040	0.569938	0.413035	0	
1.3047	-0.341963	0.112646	0	
1.3053	-0.64593	0.413035	0	
1.3060	-2.16577	1.01381	0	
1.3067	-2.4824	-0.187743	0	
1.3073	-0.64593	-2.02763	0	
1.3080	1.49451	-2.6284	0	
1.3087	1.19054	-2.02763	0	
1.3093	-0.64593	-1.42685	0	
1.3100	-0.64593	-2.02763	0	
1.3107	1.49451	-1.42685	0	
1.3113	3.31831	0.413035	0	
1.3120	3.92624	0.713424	0	
1.3127	3.62228	-0.488132	0	
1.3133	1.49451	-2.6284	0	
1.3140	-0.949897	-3.86751	0	
1.3147	0.569938	-1.42685	0	
1.3153	3.92624	2.25292	0	
1.3160	4.54684	5.59475	0	
1.3167	3.92624	8.03541	0	
1.3173	3.92624	7.43463	0	
1.3180	2.40641	3.45447	0	
1.3187	0.265971	1.01381	0	
1.3193	-0.64593	1.35175	0	
1.3200	-1.8618	3.15408	0	
1.3207	-1.55783	4.99397	0	
1.3213	-0.949897	5.89513	0	
1.3220	-2.16577	7.13424	0	
1.3227	-4.3062	8.03541	0	
1.3233	-4.00223	6.23307	0	
1.3240	-2.4824	4.99397	0	
1.3247	-2.78637	4.99397	0	
1.3253	-3.69827	3.45447	0	
1.3260	-2.78637	1.01381	0	
1.3267	-1.25386	0.713424	0	
1.3273	-1.8618	2.55331	0	
1.3280	-3.3943	3.45447	0	
1.3287	-0.949897	2.25292	0	
1.3293	2.10244	0.713424	0	
1.3300	1.19054	1.35175	0	
1.3307	-0.0379959	1.01381	0	
1.3313	1.19054	-1.12646	0	
1.3320	1.19054	0.413035	0	
1.3327	-1.55783	2.55331	0	
1.3333	-1.55783	-0.488132	0	
1.3340	-0.64593	-0.187743	0	
1.3347	-1.8618	5.89513	0	
1.3353	-2.4824	5.29436	0	
1.3360	-2.16577	-2.32801	0	
1.3367	-2.4824	-4.1679	0	
1.3373	-2.16577	-1.42685	0	
1.3380	-1.25386	0.413035	0	
1.3387	-0.949897	2.55331	0	
1.3393	-0.949897	3.15408	0	
1.3400	-0.64593	0.713424	0	
1.3407	-0.949897	2.8537	0	
1.3413	-2.16577	4.0928	0	
1.3420	-3.3943	0.413035	0	
1.3427	-3.3943	0.713424	0	
1.3433	-0.949897	4.69358	0	
1.3440	0.569938	4.99397	0	
1.3447	-2.16577	5.29436	0	
1.3453	-5.2181	5.89513	0	
1.3460	-4.3062	2.8537	0	
1.3467	-3.69827	-0.488132	0	
1.3473	-4.3062	-4.1679	0	
1.3480	-1.8618	-10.5512	0	
1.3487	0.265971	-12.0907	0	
1.3493	-1.55783	-9.65	0	
1.3500	-0.949897	-9.65	0	
1.3507	2.40641	-8.74883	0	
1.3513	1.79847	-6.00778	0	
1.3520	-2.16577	-7.81011	0	
1.3527	-1.55783	-9.04922	0	
1.3533	2.40641	-6.90895	0	
1.3540	3.01434	-4.1679	0	
1.3547	2.10244	-2.32801	0	
1.3553	3.31831	-0.488132	0	
1.3560	3.92624	1.35175	0	
1.3567	1.49451	1.35175	0	
1.3573	0.265971	1.01381	0	
1.3580	0.886571	1.65214	0	
1.3587	0.886571	0.713424	0	
1.3593	0.886571	-1.42685	0	
1.3600	0.569938	0.413035	0	
1.3607	-0.64593	3.79241	0	
1.3613	-1.25386	0.413035	0	
1.3620	-0.0379959	-3.56712	0	
1.3627	0.265971	-2.6284	0	
1.3633	-0.949897	-1.42685	0	
1.3640	-1.55783	-1.12646	0	
1.3647	-0.341963	-1.42685	0	
1.3653	0.265971	-5.66984	0	
1.3660	-0.64593	-10.2508	0	
1.3667	-0.64593	-8.74883	0	
1.3673	0.265971	-5.06906	0	
1.3680	-0.0379959	-6.60856	0	
1.3687	-0.64593	-8.44844	0	
1.3693	1.49451	-7.81011	0	
1.3700	3.92624	-8.1105	0	
1.3707	3.92624	-6.90895	0	
1.3713	2.40641	-1.42685	0	
1.3720	1.19054	1.35175	0	
1.3727	3.92624	-0.187743	0	
1.3733	6.67461	1.35175	0	
1.3740	5.76271	6.53346	0	
1.3747	4.85081	6.83385	0	
1.3753	6.37065	3.15408	0	
1.3760	5.76271	2.25292	0	
1.3767	5.45874	2.55331	0	
1.3773	6.06668	1.35175	0	
1.3780	3.92624	0.413035	0	
1.3787	3.01434	0.413035	0	
1.3793	4.54684	0.112646	0	
1.3800	2.40641	0.713424	0	
1.3807	1.19054	3.15408	0	
1.3813	3.31831	5.59475	0	
1.3820	1.19054	5.89513	0	
1.3827	-3.69827	4.0928	0	
1.3833	-2.4824	3.15408	0	
1.3840	0.265971	4.39319	0	
1.3847	-0.341963	4.0928	0	
1.3853	1.79847	1.65214	0	
1.3860	5.76271	-0.488132	0	
1.3867	5.15478	-1.12646	0	
1.3873	3.01434	-0.488132	0	
1.3880	5.76271	-0.187743	0	
1.3887	7.59918	-2.32801	0	
1.3893	3.92624	-3.22918	0	
1.3900	1.79847	0.413035	0	
1.3907	1.19054	4.99397	0	
1.3913	-1.55783	6.83385	0	
1.3920	-2.4824	4.39319	0	
1.3927	-0.64593	1.35175	0	
1.3933	-1.55783	2.25292	0	
1.3940	-2.4824	5.29436	0	
1.3947	-0.0379959	4.0928	0	
1.3953	-0.0379959	0.413035	0	
1.3960	-2.4824	-0.488132	0	
1.3967	-1.25386	-0.187743	0	
1.3973	-0.64593	1.01381	0	
1.3980	-1.55783	3.45447	0	
1.3987	0.265971	4.99397	0	
1.3993	0.569938	2.55331	0	
1.4000	-0.341963	-0.187743	0	
1.4007	1.49451	0.413035	0	
1.4013	2.71037	3.79241	0	
1.4020	0.886571	3.45447	0	
1.4027	-1.25386	-0.788521	0	
1.4033	-1.25386	-3.86751	0	
1.4040	-1.25386	-5.06906	0	
1.4047	-4.00223	-5.66984	0	
1.4053	-6.44664	-2.6284	0	
1.4060	-4.00223	1.95253	0	
1.4067	-1.55783	2.25292	0	
1.4073	-4.61017	1.65214	0	
1.4080	-7.05457	1.35175	0	
1.4087	-6.14267	-0.488132	0	
1.4093	-7.96647	-1.72724	0	
1.4100	-9.80294	-2.32801	0	
1.4107	-7.96647	-3.22918	0	
1.4113	-6.7506	-1.42685	0	
1.4120	-7.96647	0.713424	0	
1.4127	-7.96647	-0.187743	0	
1.4133	-7.35854	0.413035	0	
1.4140	-6.44664	1.35175	0	
1.4147	-4.3062	-1.12646	0	
1.4153	-4.3062	-1.72724	0	
1.4160	-5.8387	0.413035	0	
1.4167	-4.91414	1.01381	0	
1.4173	-3.3943	2.55331	0	
1.4180	-4.61017	5.89513	0	
1.4187	-5.52207	6.23307	0	
1.4193	-3.3943	4.99397	0	
1.4200	-3.3943	3.45447	0	
1.4207	-4.3062	-0.488132	0	
1.4213	-1.55783	-4.1679	0	
1.4220	-0.341963	-2.92879	0	
1.4227	-4.91414	-0.187743	0	
1.4233	-6.14267	-0.488132	0	
1.4240	-1.55783	-2.02763	0	
1.4247	0.265971	-2.92879	0	
1.4253	-0.64593	-5.36945	0	
1.4260	-0.64593	-6.60856	0	
1.4267	-0.949897	-3.86751	0	
1.4273	-0.0379959	-2.6284	0	
1.4280	2.10244	-6.60856	0	
1.4287	-0.341963	-8.74883	0	
1.4293	-3.3943	-6.90895	0	
1.4300	-2.4824	-6.90895	0	
1.4307	-1.55783	-7.81011	0	
1.4313	-1.8618	-7.20934	0	
1.4320	-0.64593	-8.1105	0	
1.4327	-1.55783	-9.34961	0	
1.4333	-3.3943	-9.65	0	
1.4340	-1.8618	-11.1895	0	
1.4347	-0.64593	-10.5512	0	
1.4353	-0.341963	-4.1679	0	
1.4360	3.31831	1.01381	0	
1.4367	6.37065	-0.788521	0	
1.4373	3.62228	-1.72724	0	
1.4380	2.10244	3.79241	0	
1.4387	3.92624	8.67373	0	
1.4393	1.49451	7.73502	0	
1.4400	-2.78637	8.03541	0	
1.4407	-0.949897	14.1558	0	
1.4413	1.79847	12.6163	0	
1.4420	1.19054	3.45447	0	
1.4427	1.79847	2.25292	0	
1.4433	0.886571	6.23307	0	
1.4440	-1.8618	4.69358	0	
1.4447	-2.16577	4.0928	0	
1.4453	-1.55783	8.3358	0	
1.4460	-4.00223	6.83385	0	
1.4467	-4.3062	0.713424	0	
1.4473	-2.16577	-2.92879	0	
1.4480	-0.341963	-6.90895	0	
1.4487	0.569938	-9.95039	0	
1.4493	-0.64593	-6.30817	0	
1.4500	-0.0379959	-1.42685	0	
1.4507	4.54684	-2.02763	0	
1.4513	5.15478	-1.42685	0	
1.4520	-0.64593	2.55331	0	
1.4527	-3.09033	3.15408	0	
1.4533	-1.55783	-0.187743	0	
1.4540	-0.949897	0.112646	0	
1.4547	-0.0379959	3.15408	0	
1.4553	-0.64593	2.8537	0	
1.4560	-3.3943	1.35175	0	
1.4567	-3.09033	1.65214	0	
1.4573	0.265971	1.01381	0	
1.4580	1.19054	1.01381	0	
1.4587	0.886571	4.39319	0	
1.4593	0.265971	4.99397	0	
1.4600	-1.55783	1.65214	0	
1.4607	-0.949897	3.15408	0	
1.4613	1.19054	4.39319	0	
1.4620	1.19054	0.713424	0	
1.4627	-0.64593	-0.788521	0	
1.4633	-0.949897	1.95253	0	
1.4640	-0.341963	1.01381	0	
1.4647	-0.64593	-2.32801	0	
1.4653	-1.55783	-2.32801	0	
1.4660	-2.4824	-2.32801	0	
1.4667	-1.8618	-3.56712	0	
1.4673	-1.55783	-3.56712	0	
1.4680	-1.8618	-5.36945	0	
1.4687	-1.25386	-8.74883	0	
1.4693	0.265971	-8.44844	0	
1.4700	0.265971	-6.00778	0	
1.4707	-0.341963	-5.66984	0	
1.4713	0.265971	-6.30817	0	
1.4720	0.886571	-5.36945	0	
1.4727	-0.0379959	-3.56712	0	
1.4733	0.265971	-3.22918	0	
1.4740	3.31831	-3.86751	0	
1.4747	5.76271	-3.22918	0	
1.4753	3.92624	-2.32801	0	
1.4760	1.79847	-3.86751	0	
1.4767	2.10244	-2.92879	0	
1.4773	3.01434	0.713424	0	
1.4780	2.40641	2.25292	0	
1.4787	1.19054	4.0928	0	
1.4793	0.569938	6.53346	0	
1.4800	0.569938	5.59475	0	
1.4807	1.19054	2.55331	0	
1.4813	-0.0379959	1.01381	0	
1.4820	-0.64593	1.01381	0	
1.4827	3.01434	3.15408	0	
1.4833	6.06668	5.29436	0	
1.4840	3.01434	2.8537	0	
1.4847	-0.0379959	-0.788521	0	
1.4853	1.49451	-0.488132	0	
1.4860	3.01434	1.35175	0	
1.4867	3.31831	1.95253	0	
1.4873	3.92624	2.55331	0	
1.4880	1.49451	3.15408	0	
1.4887	0.265971	1.35175	0	
1.4893	3.01434	-2.02763	0	
1.4900	3.92624	-0.788521	0	
1.4907	2.10244	2.25292	0	
1.4913	3.01434	1.35175	0	
1.4920	3.92624	-1.72724	0	
1.4927	3.01434	-2.02763	0	
1.4933	3.31831	0.413035	0	
1.4940	2.71037	2.8537	0	
1.4947	-0.341963	4.0928	0	
1.4953	-0.64593	4.0928	0	
1.4960	-0.0379959	5.89513	0	
1.4967	-1.25386	7.73502	0	
1.4973	0.265971	4.99397	0	
1.4980	2.40641	3.15408	0	
1.4987	0.265971	4.0928	0	
1.4993	-0.64593	3.45447	0	
1.5000	1.79847	2.25292	0	
1.5007	1.79847	3.15408	0	
1.5013	1.19054	2.25292	0	
1.5020	2.10244	0.413035	0	
1.5027	0.265971	1.95253	0	
1.5033	-1.55783	2.8537	0	
1.5040	-0.341963	2.25292	0	
1.5047	0.265971	2.25292	0	
1.5053	-1.25386	0.713424	0	
1.5060	-1.55783	-1.42685	0	
1.5067	-0.949897	-2.32801	0	
1.5073	0.265971	-4.1679	0	
1.5080	2.40641	-5.66984	0	
1.5087	3.01434	-5.36945	0	
1.5093	0.265971	-5.06906	0	
1.5100	-0.0379959	-3.22918	0	
1.5107	1.49451	-1.12646	0	
1.5113	-0.0379959	-1.42685	0	
1.5120	-3.3943	-1.42685	0	
1.5127	-2.4824	0.112646	0	
1.5133	0.265971	-0.488132	0	
1.5140	-0.64593	-3.22918	0	
1.5147	-0.64593	-3.22918	0	
1.5153	2.71037	-2.32801	0	
1.5160	2.40641	-2.32801	0	
1.5167	0.265971	-4.76868	0	
1.5173	1.79847	-5.06906	0	
1.5180	1.49451	0.112646	0	
1.5187	-0.0379959	2.55331	0	
1.5193	2.10244	-0.788521	0	
1.5200	3.92624	-3.22918	0	
1.5207	3.01434	-2.32801	0	
1.5213	5.15478	-0.187743	0	
1.5220	5.76271	1.35175	0	
1.5227	1.19054	1.35175	0	
1.5233	-0.64593	1.35175	0	
1.5240	0.569938	1.35175	0	
1.5247	-0.64593	-0.187743	0	
1.5253	-1.55783	-2.32801	0	
1.5260	-1.25386	-4.1679	0	
1.5267	-2.78637	-3.56712	0	
1.5273	-4.61017	-0.187743	0	
1.5280	-4.00223	2.25292	0	
1.5287	-2.4824	1.65214	0	
1.5293	-0.64593	3.15408	0	
1.5300	1.19054	3.15408	0	
1.5307	0.569938	-0.788521	0	
1.5313	-0.64593	-2.32801	0	
1.5320	-0.64593	-4.1679	0	
1.5327	-1.55783	-10.5512	0	
1.5333	-1.8618	-14.2309	0	
1.5340	-1.55783	-11.7903	0	
1.5347	-0.64593	-6.90895	0	
1.5353	-0.64593	-2.32801	0	
1.5360	-2.78637	0.413035	0	
1.5367	-4.91414	0.413035	0	
1.5373	-2.78637	1.35175	0	
1.5380	-0.341963	0.112646	0	
1.5387	-2.16577	-2.32801	0	
1.5393	-2.4824	-1.42685	0	
1.5400	-0.64593	-0.187743	0	
1.5407	-3.3943	1.01381	0	
1.5413	-6.14267	2.55331	0	
1.5420	-2.78637	1.35175	0	
1.5427	-1.55783	-2.32801	0	
1.5433	-4.3062	-3.22918	0	
1.5440	-4.3062	-2.32801	0	
1.5447	-2.4824	-2.6284	0	
1.5453	-3.3943	-2.32801	0	
1.5460	-1.55783	0.713424	0	
1.5467	-0.0379959	2.55331	0	
1.5473	-1.8618	-2.92879	0	
1.5480	-2.4824	-9.95039	0	
1.5487	-0.949897	-8.1105	0	
1.5493	-0.949897	-3.86751	0	
1.5500	-1.8618	-5.06906	0	
1.5507	-1.55783	-4.46829	0	
1.5513	-1.55783	-0.187743	0	
1.5520	-3.3943	-1.42685	0	
1.5527	-2.16577	-6.90895	0	
1.5533	1.79847	-7.81011	0	
1.5540	0.265971	-4.1679	0	
1.5547	-5.52207	-2.32801	0	
1.5553	-4.61017	-4.1679	0	
1.5560	-0.64593	-5.06906	0	
1.5567	-1.25386	-2.32801	0	
1.5573	-0.0379959	-0.788521	0	
1.5580	3.31831	-1.42685	0	
1.5587	1.49451	-0.488132	0	
1.5593	-2.4824	1.65214	0	
1.5600	-2.4824	4.0928	0	
1.5607	-2.4824	6.83385	0	
1.5613	-3.3943	7.73502	0	
1.5620	-3.3943	7.43463	0	
1.5627	-4.61017	7.73502	0	
1.5633	-5.52207	7.73502	0	
1.5640	-2.78637	6.53346	0	
1.5647	0.886571	6.83385	0	
1.5653	2.40641	7.73502	0	
1.5660	2.71037	7.43463	0	
1.5667	1.79847	7.13424	0	
1.5673	0.265971	5.59475	0	
1.5680	-0.0379959	1.65214	0	
1.5687	-0.949897	0.413035	0	
1.5693	-3.69827	1.95253	0	
1.5700	-4.3062	3.15408	0	
1.5707	-2.4824	4.69358	0	
1.5713	-2.78637	4.99397	0	
1.5720	-3.69827	2.25292	0	
1.5727	-1.55783	-0.187743	0	
1.5733	0.265971	-0.488132	0	
1.5740	0.265971	-1.42685	0	
1.5747	0.569938	-2.02763	0	
1.5753	1.19054	-0.488132	0	
1.5760	-0.0379959	0.713424	0	
1.5767	-0.0379959	3.15408	0	
1.5773	1.19054	4.99397	0	
1.5780	2.10244	1.65214	0	
1.5787	3.62228	-0.488132	0	
1.5793	4.54684	1.95253	0	
1.5800	3.01434	3.15408	0	
1.5807	1.49451	2.55331	0	
1.5813	3.01434	2.8537	0	
1.5820	3.01434	3.79241	0	
1.5827	0.886571	4.99397	0	
1.5833	-0.64593	4.0928	0	
1.5840	0.265971	0.413035	0	
1.5847	1.79847	-1.12646	0	
1.5853	1.49451	-0.488132	0	
1.5860	2.10244	-2.02763	0	
1.5867	4.24288	-1.42685	0	
1.5873	3.62228	1.01381	0	
1.5880	-0.341963	0.413035	0	
1.5887	-0.64593	-1.72724	0	
1.5893	0.886571	-1.12646	0	
1.5900	-0.0379959	-0.488132	0	
1.5907	0.265971	-1.12646	0	
1.5913	3.31831	-2.6284	0	
1.5920	2.40641	-5.06906	0	
1.5927	1.49451	-6.90895	0	
1.5933	5.15478	-7.20934	0	
1.5940	6.37065	-5.66984	0	
1.5947	4.54684	-3.56712	0	
1.5953	6.37065	-4.1679	0	
1.5960	6.37065	-5.06906	0	
1.5967	3.01434	-4.76868	0	
1.5973	3.92624	-5.06906	0	
1.5980	6.97858	-6.90895	0	
1.5987	5.76271	-5.36945	0	
1.5993	4.85081	-2.6284	0	
1.6000	6.37065	-1.42685	0	
1.6007	6.06668	-1.12646	0	
1.6013	4.54684	-1.42685	0	
1.6020	3.62228	-2.32801	0	
1.6027	3.92624	-2.6284	0	
1.6033	5.15478	-2.32801	0	
1.6040	4.54684	-1.12646	0	
1.6047	1.49451	-1.42685	0	
1.6053	0.569938	-5.06906	0	
1.6060	1.19054	-5.06906	0	
1.6067	1.19054	-1.12646	0	
1.6073	1.19054	-1.42685	0	
1.6080	-0.64593	-3.86751	0	
1.6087	-3.09033	-1.72724	0	
1.6093	-1.55783	-0.488132	0	
1.6100	0.265971	-2.02763	0	
1.6107	-0.64593	-2.32801	0	
1.6113	-2.4824	-1.72724	0	
1.6120	-2.4824	-0.788521	0	
1.6127	-1.8618	-0.788521	0	
1.6133	-2.4824	-1.72724	0	
1.6140	-4.61017	-0.488132	0	
1.6147	-6.14267	3.79241	0	
1.6153	-3.09033	6.53346	0	
1.6160	0.265971	5.89513	0	
1.6167	-0.0379959	5.29436	0	
1.6173	0.265971	4.39319	0	
1.6180	1.79847	4.0928	0	
1.6187	1.19054	6.23307	0	
1.6193	-0.0379959	8.67373	0	
1.6200	-0.64593	10.4761	0	
1.6207	-2.4824	10.7765	0	
1.6213	-2.4824	7.73502	0	
1.6220	-0.341963	4.0928	0	
1.6227	-0.0379959	5.59475	0	
1.6233	-1.55783	6.83385	0	
1.6240	-1.55783	3.15408	0	
1.6247	-1.25386	0.413035	0	
1.6253	-0.64593	2.55331	0	
1.6260	1.19054	3.79241	0	
1.6267	0.886571	4.39319	0	
1.6273	-2.16577	5.59475	0	
1.6280	-3.69827	4.39319	0	
1.6287	-3.3943	3.15408	0	
1.6293	-2.4824	2.25292	0	
1.6300	-2.4824	-1.72724	0	
1.6307	-3.09033	-4.1679	0	
1.6313	-2.78637	-0.488132	0	
1.6320	-2.16577	2.55331	0	
1.6327	-1.8618	2.8537	0	
1.6333	-1.55783	4.0928	0	
1.6340	-1.55783	3.15408	0	
1.6347	-2.4824	1.01381	0	
1.6353	-3.3943	4.69358	0	
1.6360	-2.4824	7.13424	0	
1.6367	-1.8618	0.713424	0	
1.6373	-1.55783	-4.1679	0	
1.6380	-0.341963	-3.56712	0	
1.6387	-0.64593	-4.46829	0	
1.6393	-2.16577	-4.46829	0	
1.6400	-0.64593	-1.42685	0	
1.6407	2.10244	-2.02763	0	
1.6413	1.19054	-3.56712	0	
1.6420	-0.64593	-1.72724	0	
1.6427	-0.0379959	0.413035	0	
1.6433	1.49451	2.25292	0	
1.6440	-0.341963	4.0928	0	
1.6447	-1.55783	3.79241	0	
1.6453	2.10244	3.15408	0	
1.6460	6.37065	2.8537	0	
1.6467	3.62228	-1.12646	0	
1.6473	1.19054	-4.46829	0	
1.6480	3.31831	-3.56712	0	
1.6487	3.01434	-3.56712	0	
1.6493	0.569938	-4.46829	0	
1.6500	3.01434	-2.92879	0	
1.6507	4.24288	-2.32801	0	
1.6513	2.71037	-3.56712	0	
1.6520	3.62228	-3.56712	0	
1.6527	5.15478	-4.76868	0	
1.6533	3.92624	-7.20934	0	
1.6540	4.85081	-6.90895	0	
1.6547	7.90315	-5.36945	0	
1.6553	8.51108	-4.46829	0	
1.6560	5.76271	-2.32801	0	
1.6567	3.92624	-2.32801	0	
1.6573	5.45874	-5.06906	0	
1.6580	9.72695	-6.00778	0	
1.6587	10.9555	-5.06906	0	
1.6593	8.51108	-3.86751	0	
1.6600	9.42298	-1.72724	0	
1.6607	11.5634	0.413035	0	
1.6613	9.42298	0.112646	0	
1.6620	4.85081	-0.187743	0	
1.6627	2.40641	4.0928	0	
1.6633	2.10244	10.4761	0	
1.6640	0.569938	10.7765	0	
1.6647	-3.09033	5.89513	0	
1.6653	-5.52207	4.99397	0	
1.6660	-5.2181	7.13424	0	
1.6667	-6.14267	2.8537	0	
1.6673	-7.96647	-1.42685	0	
1.6680	-6.44664	0.713424	0	
1.6687	-5.8387	1.95253	0	
1.6693	-9.49897	0.413035	0	
1.6700	-10.1069	1.95253	0	
1.6707	-6.14267	2.25292	0	
1.6713	-5.52207	0.112646	0	
1.6720	-6.14267	1.95253	0	
1.6727	-4.3062	3.79241	0	
1.6733	-5.2181	1.35175	0	
1.6740	-7.66251	2.25292	0	
1.6747	-4.3062	4.99397	0	
1.6753	-0.64593	4.0928	0	
1.6760	-2.4824	2.8537	0	
1.6767	-4.00223	3.45447	0	
1.6773	-1.55783	4.99397	0	
1.6780	-0.64593	5.59475	0	
1.6787	-0.64593	2.25292	0	
1.6793	0.265971	-1.42685	0	
1.6800	0.265971	0.413035	0	
1.6807	-1.25386	3.15408	0	
1.6813	-1.25386	1.35175	0	
1.6820	-1.55783	-1.72724	0	
1.6827	-1.8618	-4.1679	0	
1.6833	0.265971	-4.76868	0	
1.6840	0.886571	-3.22918	0	
1.6847	-1.8618	-2.32801	0	
1.6853	-3.69827	-1.12646	0	
1.6860	-2.78637	1.35175	0	
1.6867	-2.78637	1.95253	0	
1.6873	-4.00223	-1.42685	0	
1.6880	-2.78637	-4.1679	0	
1.6887	0.265971	-5.36945	0	
1.6893	1.79847	-6.60856	0	
1.6900	-0.341963	-7.20934	0	
1.6907	-1.8618	-4.46829	0	
1.6913	-1.55783	-1.72724	0	
1.6920	-0.64593	-3.22918	0	
1.6927	-0.0379959	-5.06906	0	
1.6933	-0.0379959	-3.22918	0	
1.6940	-0.949897	-2.02763	0	
1.6947	-0.341963	-1.12646	0	
1.6953	1.19054	3.15408	0	
1.6960	-0.64593	5.89513	0	
1.6967	-1.55783	4.39319	0	
1.6973	0.569938	4.69358	0	
1.6980	0.265971	4.99397	0	
1.6987	-1.55783	1.35175	0	
1.6993	2.10244	-0.187743	0	
1.7000	5.76271	0.413035	0	
1.7007	4.24288	-3.56712	0	
1.7013	2.10244	-5.66984	0	
1.7020	2.71037	0.413035	0	
1.7027	0.569938	4.39319	0	
1.7033	-2.16577	2.25292	0	
1.7040	-0.949897	0.413035	0	
1.7047	0.569938	-2.6284	0	
1.7053	-1.55783	-7.20934	0	
1.7060	-3.3943	-6.90895	0	
1.7067	-1.25386	-2.6284	0	
1.7073	0.569938	-3.22918	0	
1.7080	-0.0379959	-6.00778	0	
1.7087	-1.55783	-6.00778	0	
1.7093	-2.16577	-4.46829	0	
1.7100	-1.8618	-4.46829	0	
1.7107	-1.25386	-6.00778	0	
1.7113	0.265971	-6.30817	0	
1.7120	2.10244	-5.06906	0	
1.7127	0.265971	-6.00778	0	
1.7133	-4.00223	-9.04922	0	
1.7140	-5.2181	-6.90895	0	
1.7147	-3.3943	-2.32801	0	
1.7153	-2.4824	-3.22918	0	
1.7160	-3.09033	-5.06906	0	
1.7167	-4.3062	-3.56712	0	
1.7173	-3.3943	-3.22918	0	
1.7180	-0.341963	-1.42685	0	
1.7187	-0.64593	1.01381	0	
1.7193	-2.4824	-4.76868	0	
1.7200	-0.0379959	-9.34961	0	
1.7207	0.886571	-4.1679	0	
1.7213	-1.8618	-0.187743	0	
1.7220	-0.949897	-1.42685	0	
1.7227	0.265971	-0.788521	0	
1.7233	-3.69827	-1.72724	0	
1.7240	-4.91414	-4.1679	0	
1.7247	-3.69827	-2.02763	0	
1.7253	-4.00223	-1.72724	0	
1.7260	-0.64593	-4.1679	0	
1.7267	1.49451	-1.42685	0	
1.7273	-1.55783	-1.42685	0	
1.7280	-0.949897	-8.1105	0	
1.7287	3.01434	-9.34961	0	
1.7293	0.569938	-4.1679	0	
1.7300	-4.3062	-3.86751	0	
1.7307	-5.52207	-3.56712	0	
1.7313	-4.00223	1.01381	0	
1.7320	-2.4824	1.65214	0	
1.7327	-4.3062	-1.72724	0	
1.7333	-6.14267	-3.86751	0	
1.7340	-2.4824	-6.00778	0	
1.7347	1.19054	-6.30817	0	
1.7353	-0.64593	-3.22918	0	
1.7360	-0.0379959	-2.6284	0	
1.7367	0.569938	-2.6284	0	
1.7373	-3.3943	0.413035	0	
1.7380	-4.3062	2.55331	0	
1.7387	0.886571	2.8537	0	
1.7393	2.40641	1.95253	0	
1.7400	0.265971	-0.488132	0	
1.7407	0.265971	-4.1679	0	
1.7413	2.10244	-5.06906	0	
1.7420	3.01434	-4.46829	0	
1.7427	3.62228	-3.86751	0	
1.7433	3.01434	-1.42685	0	
1.7440	0.569938	1.65214	0	
1.7447	-1.25386	4.0928	0	
1.7453	-0.341963	4.0928	0	
1.7460	-0.64593	0.713424	0	
1.7467	-4.3062	-2.02763	0	
1.7473	-5.2181	-0.488132	0	
1.7480	-1.55783	3.45447	0	
1.7487	-0.341963	4.0928	0	
1.7493	-2.78637	4.39319	0	
1.7500	-2.4824	9.5749	0	
1.7507	-0.341963	13.2171	0	
1.7513	-1.8618	9.5749	0	
1.7520	-4.61017	5.59475	0	
1.7527	-3.3943	6.53346	0	
1.7533	-0.341963	5.89513	0	
1.7540	0.265971	3.15408	0	
1.7547	1.49451	2.8537	0	
1.7553	3.62228	3.15408	0	
1.7560	3.31831	1.35175	0	
1.7567	1.49451	-0.187743	0	
1.7573	1.19054	0.713424	0	
1.7580	1.49451	3.45447	0	
1.7587	2.10244	5.89513	0	
1.7593	3.01434	4.99397	0	
1.7600	-0.64593	4.99397	0	
1.7607	-4.61017	7.73502	0	
1.7613	-3.3943	5.29436	0	
1.7620	-0.64593	0.112646	0	
1.7627	-0.341963	0.413035	0	
1.7633	1.19054	1.95253	0	
1.7640	0.265971	0.713424	0	
1.7647	-4.00223	1.95253	0	
1.7653	-4.3062	2.25292	0	
1.7660	-3.09033	-0.488132	0	
1.7667	-5.2181	-1.42685	0	
1.7673	-4.91414	-1.12646	0	
1.7680	-3.3943	-3.22918	0	
1.7687	-5.8387	-1.42685	0	
1.7693	-7.05457	2.55331	0	
1.7700	-4.61017	2.55331	0	
1.7707	-4.3062	1.35175	0	
1.7713	-4.00223	3.15408	0	
1.7720	-1.55783	5.29436	0	
1.7727	-0.64593	8.3358	0	
1.7733	0.265971	9.87529	0	
1.7740	1.49451	9.27451	0	
1.7747	0.265971	8.67373	0	
1.7753	-1.55783	5.29436	0	
1.7760	-0.949897	-2.32801	0	
1.7767	-0.949897	-6.00778	0	
1.7773	-0.0379959	-2.92879	0	
1.7780	1.19054	-0.788521	0	
1.7787	-1.8618	-0.488132	0	
1.7793	-5.2181	1.35175	0	
1.7800	-2.78637	1.35175	0	
1.7807	0.265971	0.112646	0	
1.7813	-0.341963	2.25292	0	
1.7820	-2.16577	3.79241	0	
1.7827	-2.78637	1.65214	0	
1.7833	-0.949897	2.25292	0	
1.7840	2.40641	4.99397	0	
1.7847	4.24288	2.55331	0	
1.7853	3.01434	-0.488132	0	
1.7860	1.49451	0.713424	0	
1.7867	3.01434	2.55331	0	
1.7873	3.92624	3.15408	0	
1.7880	2.40641	2.55331	0	
1.7887	2.10244	1.35175	0	
1.7893	3.31831	-0.488132	0	
1.7900	2.71037	-2.02763	0	
1.7907	2.10244	-4.46829	0	
1.7913	3.92624	-2.32801	0	
1.7920	5.15478	3.79241	0	
1.7927	3.92624	4.39319	0	
1.7933	1.79847	1.95253	0	
1.7940	1.19054	2.25292	0	
1.7947	1.49451	-0.788521	0	
1.7953	-0.0379959	-6.30817	0	
1.7960	-2.78637	-6.00778	0	
1.7967	-2.4824	-3.56712	0	
1.7973	-0.64593	-5.06906	0	
1.7980	-1.55783	-2.6284	0	
1.7987	-1.8618	3.15408	0	
1.7993	-1.8618	1.35175	0	
1.8000	-2.4824	-3.56712	0	
1.8007	-1.8618	-2.32801	0	
1.8013	-2.16577	-1.42685	0	
1.8020	-5.2181	-4.1679	0	
1.8027	-5.2181	-4.1679	0	
1.8033	-1.55783	-3.22918	0	
1.8040	-3.3943	-4.1679	0	
1.8047	-6.7506	-3.22918	0	
1.8053	-3.69827	-0.488132	0	
1.8060	-1.55783	0.413035	0	
1.8067	-4.3062	-0.488132	0	
1.8073	-2.78637	-2.32801	0	
1.8080	0.886571	-2.6284	0	
1.8087	0.265971	-0.488132	0	
1.8093	0.265971	2.55331	0	
1.8100	2.10244	3.79241	0	
1.8107	0.569938	2.25292	0	
1.8113	-1.55783	1.35175	0	
1.8120	-1.8618	3.15408	0	
1.8127	-0.0379959	3.79241	0	
1.8133	3.62228	1.01381	0	
1.8140	4.24288	-0.187743	0	
1.8147	-0.64593	1.65214	0	
1.8153	-0.949897	2.55331	0	
1.8160	3.92624	3.45447	0	
1.8167	4.85081	3.45447	0	
1.8173	3.62228	2.25292	0	
1.8180	3.92624	2.8537	0	
1.8187	3.92624	3.15408	0	
1.8193	4.54684	1.01381	0	
1.8200	4.85081	1.65214	0	
1.8207	2.71037	4.39319	0	
1.8213	0.265971	4.39319	0	
1.8220	-1.8618	5.29436	0	
1.8227	-2.4824	8.03541	0	
1.8233	-2.16577	6.83385	0	
1.8240	-3.09033	5.59475	0	
1.8247	-4.3062	7.43463	0	
1.8253	-1.8618	7.73502	0	
1.8260	1.19054	7.43463	0	
1.8267	1.19054	7.73502	0	
1.8273	0.569938	4.99397	0	
1.8280	-0.64593	0.413035	0	
1.8287	-2.16577	-2.32801	0	
1.8293	0.265971	-2.32801	0	
1.8300	2.71037	0.112646	0	
1.8307	-0.64593	1.95253	0	
1.8313	-3.3943	1.65214	0	
1.8320	-3.09033	1.35175	0	
1.8327	-4.61017	0.112646	0	
1.8333	-6.14267	-2.6284	0	
1.8340	-2.4824	-6.30817	0	
1.8347	1.49451	-9.04922	0	
1.8353	1.19054	-9.34961	0	
1.8360	1.19054	-6.90895	0	
1.8367	2.71037	-4.46829	0	
1.8373	3.92624	-4.76868	0	
1.8380	6.37065	-5.36945	0	
1.8387	8.51108	-3.86751	0	
1.8393	8.81505	-1.42685	0	
1.8400	9.72695	-2.32801	0	
1.8407	10.0309	-5.06906	0	
1.8413	7.59918	-4.1679	0	
1.8420	7.29521	-0.788521	0	
1.8427	9.42298	-1.12646	0	
1.8433	8.20711	-2.6284	0	
1.8440	6.37065	-2.32801	0	
1.8447	5.76271	-2.92879	0	
1.8453	1.79847	-5.06906	0	
1.8460	-0.64593	-3.86751	0	
1.8467	3.01434	-1.42685	0	
1.8473	3.62228	-2.02763	0	
1.8480	-1.55783	-4.1679	0	
1.8487	-1.25386	-3.56712	0	
1.8493	2.71037	-3.22918	0	
1.8500	1.19054	-5.06906	0	
1.8507	-2.4824	-6.30817	0	
1.8513	-2.16577	-6.00778	0	
1.8520	0.265971	-5.36945	0	
1.8527	1.19054	-4.46829	0	
1.8533	-0.341963	-5.06906	0	
1.8540	-2.4824	-5.06906	0	
1.8547	-2.4824	-1.72724	0	
1.8553	-0.949897	1.35175	0	
1.8560	-1.55783	3.15408	0	
1.8567	-4.61017	5.89513	0	
1.8573	-5.52207	4.39319	0	
1.8580	-3.09033	-0.187743	0	
1.8587	-1.55783	1.01381	0	
1.8593	-4.3062	2.8537	0	
1.8600	-6.14267	-0.488132	0	
1.8607	-4.61017	-1.42685	0	
1.8613	-5.2181	1.95253	0	
1.8620	-5.52207	2.25292	0	
1.8627	-1.8618	3.15408	0	
1.8633	-1.8618	6.83385	0	
1.8640	-5.2181	7.43463	0	
1.8647	-4.3062	5.29436	0	
1.8653	-3.69827	3.45447	0	
1.8660	-7.66251	0.413035	0	
1.8667	-7.96647	-2.32801	0	
1.8673	-4.91414	-2.32801	0	
1.8680	-4.00223	-3.56712	0	
1.8687	-1.55783	-4.46829	0	
1.8693	0.265971	-4.1679	0	
1.8700	-0.64593	-5.06906	0	
1.8707	-0.949897	-8.1105	0	
1.8713	-0.949897	-9.65	0	
1.8720	-4.00223	-9.34961	0	
1.8727	-4.00223	-8.1105	0	
1.8733	-1.55783	-5.66984	0	
1.8740	-1.8618	-5.66984	0	
1.8747	-3.3943	-7.50973	0	
1.8753	-3.69827	-6.00778	0	
1.8760	-4.00223	-4.1679	0	
1.8767	-2.4824	-5.06906	0	
1.8773	-1.55783	-3.22918	0	
1.8780	-3.09033	-0.488132	0	
1.8787	-3.3943	-0.788521	0	
1.8793	-0.341963	0.112646	0	
1.8800	2.40641	2.25292	0	
1.8807	3.92624	-1.72724	0	
1.8813	3.62228	-4.76868	0	
1.8820	2.10244	-2.32801	0	
1.8827	1.19054	-4.1679	0	
1.8833	0.886571	-6.90895	0	
1.8840	0.265971	-2.6284	0	
1.8847	-0.64593	-0.488132	0	
1.8853	-0.949897	-3.22918	0	
1.8860	1.19054	-2.32801	0	
1.8867	3.01434	-2.6284	0	
1.8873	-0.341963	-6.00778	0	
1.8880	-4.3062	-5.06906	0	
1.8887	-3.3943	-4.46829	0	
1.8893	-1.55783	-6.00778	0	
1.8900	-0.64593	-1.72724	0	
1.8907	1.49451	0.413035	0	
1.8913	1.19054	-3.56712	0	
1.8920	-1.55783	-3.22918	0	
1.8927	0.569938	0.713424	0	
1.8933	3.31831	-0.187743	0	
1.8940	-0.341963	-1.12646	0	
1.8947	-3.3943	0.112646	0	
1.8953	-2.4824	-1.12646	0	
1.8960	-3.69827	-0.788521	0	
1.8967	-3.09033	1.35175	0	
1.8973	2.10244	2.25292	0	
1.8980	2.10244	3.45447	0	
1.8987	-1.25386	6.23307	0	
1.8993	1.19054	5.59475	0	
1.9000	5.45874	0.413035	0	
1.9007	6.67461	-2.92879	0	
1.9013	7.90315	-0.788521	0	
1.9020	8.51108	1.65214	0	
1.9027	6.67461	1.01381	0	
1.9033	6.06668	-0.488132	0	
1.9040	6.67461	-1.42685	0	
1.9047	6.97858	-4.46829	0	
1.9053	7.59918	-2.92879	0	
1.9060	8.20711	4.0928	0	
1.9067	6.67461	5.59475	0	
1.9073	3.62228	2.25292	0	
1.9080	1.79847	1.65214	0	
1.9087	3.92624	1.35175	0	
1.9093	5.45874	-3.22918	0	
1.9100	3.92624	-6.90895	0	
1.9107	3.01434	-7.81011	0	
1.9113	4.54684	-6.00778	0	
1.9120	4.85081	-4.1679	0	
1.9127	4.85081	-4.46829	0	
1.9133	5.45874	-4.1679	0	
1.9140	4.85081	-0.788521	0	
1.9147	3.31831	-0.788521	0	
1.9153	2.10244	-4.1679	0	
1.9160	1.19054	-3.22918	0	
1.9167	0.265971	1.35175	0	
1.9173	1.19054	3.15408	0	
1.9180	3.01434	3.15408	0	
1.9187	3.92624	3.45447	0	
1.9193	2.71037	3.15408	0	
1.9200	0.265971	2.25292	0	
1.9207	-0.949897	2.25292	0	
1.9213	-0.341963	3.79241	0	
1.9220	-0.341963	6.23307	0	
1.9227	-1.55783	4.99397	0	
1.9233	-2.16577	0.413035	0	
1.9240	-1.55783	-1.12646	0	
1.9247	-2.4824	2.25292	0	
1.9253	-3.3943	3.79241	0	
1.9260	-3.09033	1.35175	0	
1.9267	-4.91414	-0.488132	0	
1.9273	-8.89104	1.35175	0	
1.9280	-8.89104	3.45447	0	
1.9287	-7.05457	4.0928	0	
1.9293	-7.66251	3.15408	0	
1.9300	-9.80294	2.25292	0	
1.9307	-9.80294	0.413035	0	
1.9313	-8.89104	-2.02763	0	
1.9320	-7.96647	-1.72724	0	
1.9327	-6.14267	1.65214	0	
1.9333	-4.61017	2.55331	0	
1.9340	-3.69827	0.112646	0	
1.9347	-3.3943	-0.488132	0	
1.9353	-2.4824	1.95253	0	
1.9360	0.265971	3.15408	0	
1.9367	2.10244	1.35175	0	
1.9373	-0.0379959	-0.187743	0	
1.9380	-2.4824	0.713424	0	
1.9387	-1.8618	3.15408	0	
1.9393	-0.949897	4.0928	0	
1.9400	-2.78637	2.25292	0	
1.9407	-3.3943	0.713424	0	
1.9413	-1.55783	1.65214	0	
1.9420	0.265971	1.65214	0	
1.9427	1.79847	-0.788521	0	
1.9433	3.62228	-0.488132	0	
1.9440	3.31831	2.25292	0	
1.9447	-0.341963	0.713424	0	
1.9453	-1.8618	-1.42685	0	
1.9460	-0.64593	-0.788521	0	
1.9467	-0.64593	-1.12646	0	
1.9473	0.265971	-2.32801	0	
1.9480	1.19054	-0.788521	0	
1.9487	-2.4824	-0.187743	0	
1.9493	-6.14267	0.413035	0	
1.9500	-5.52207	1.95253	0	
1.9507	-5.2181	-0.187743	0	
1.9513	-7.96647	-2.6284	0	
1.9520	-8.57441	-2.32801	0	
1.9527	-6.14267	-4.1679	0	
1.9533	-3.09033	-5.06906	0	
1.9540	-0.0379959	-1.42685	0	
1.9547	0.265971	-0.788521	0	
1.9553	-2.16577	-1.42685	0	
1.9560	-4.3062	4.0928	0	
1.9567	-3.3943	6.23307	0	
1.9573	-0.949897	1.65214	0	
1.9580	-1.55783	1.35175	0	
1.9587	-4.3062	3.15408	0	
1.9593	-1.8618	3.15408	0	
1.9600	0.886571	4.69358	0	
1.9607	-1.55783	4.0928	0	
1.9613	-1.55783	2.8537	0	
1.9620	1.79847	6.53346	0	
1.9627	1.19054	6.83385	0	
1.9633	-1.55783	1.95253	0	
1.9640	-1.25386	2.25292	0	
1.9647	-1.8618	4.99397	0	
1.9653	-3.69827	3.15408	0	
1.9660	-0.64593	1.35175	0	
1.9667	0.569938	2.25292	0	
1.9673	-5.2181	1.65214	0	
1.9680	-7.66251	-0.187743	0	
1.9687	-4.61017	-2.32801	0	
1.9693	-6.14267	-2.92879	0	
1.9700	-7.35854	-1.12646	0	
1.9707	-2.4824	-0.187743	0	
1.9713	-2.4824	-2.32801	0	
1.9720	-5.8387	-3.56712	0	
1.9727	-1.55783	-3.22918	0	
1.9733	0.569938	-5.06906	0	
1.9740	-2.16577	-7.20934	0	
1.9747	0.886571	-6.30817	0	
1.9753	3.62228	-3.22918	0	
1.9760	1.79847	0.112646	0	
1.9767	3.31831	1.35175	0	
1.9773	4.54684	0.413035	0	
1.9780	0.886571	-1.12646	0	
1.9787	2.40641	-0.187743	0	
1.9793	5.15478	1.01381	0	
1.9800	1.79847	-1.12646	0	
1.9807	1.19054	-2.6284	0	
1.9813	4.24288	0.112646	0	
1.9820	2.10244	2.25292	0	
1.9827	0.569938	1.35175	0	
1.9833	2.10244	2.8537	0	
1.9840	1.49451	5.59475	0	
1.9847	-0.64593	4.39319	0	
1.9853	-1.55783	0.713424	0	
1.9860	-2.16577	-0.187743	0	
1.9867	-0.341963	1.95253	0	
1.9873	3.01434	4.0928	0	
1.9880	2.10244	3.45447	0	
1.9887	-0.0379959	1.35175	0	
1.9893	0.569938	0.713424	0	
1.9900	1.19054	0.713424	0	
1.9907	-0.0379959	-0.488132	0	
1.9913	-0.64593	-1.42685	0	
1.9920	1.19054	-0.788521	0	
1.9927	3.31831	0.713424	0	
1.9933	3.31831	-0.488132	0	
1.9940	3.31831	-3.56712	0	
1.9947	4.54684	-4.1679	0	
1.9953	4.85081	-2.32801	0	
1.9960	5.15478	-0.187743	0	
1.9967	5.76271	1.35175	0	
1.9973	5.45874	-0.187743	0	
1.9980	4.54684	-3.56712	0	
1.9987	4.24288	-2.6284	0	
1.9993	3.01434	-1.42685	0	
2.0000	0.569938	-5.66984	0	
2.0007	0.886571	-6.90895	0	
2.0013	1.19054	-2.6284	0	
2.0020	0.569938	-2.92879	0	
2.0027	0.886571	-6.30817	0	
2.0033	2.40641	-4.46829	0	
2.0040	3.31831	-2.02763	0	
2.0047	2.10244	-4.46829	0	
2.0053	-1.55783	-6.90895	0	
2.0060	-2.16577	-5.06906	0	
2.0067	1.19054	-1.72724	0	
2.0073	2.10244	-1.12646	0	
2.0080	-1.25386	-1.42685	0	
2.0087	-3.3943	-0.488132	0	
2.0093	-2.4824	0.713424	0	
2.0100	-2.78637	0.713424	0	
2.0107	-4.00223	1.65214	0	
2.0113	-3.3943	1.65214	0	
2.0120	-2.4824	-1.72724	0	
2.0127	-1.55783	-3.22918	0	
2.0133	0.265971	-0.488132	0	
2.0140	1.19054	-2.32801	0	
2.0147	-0.64593	-6.60856	0	
2.0153	-1.55783	-4.1679	0	
2.0160	-0.64593	-1.42685	0	
2.0167	0.265971	-3.22918	0	
2.0173	0.265971	-2.32801	0	
2.0180	1.19054	0.413035	0	
2.0187	3.01434	-0.187743	0	
2.0193	1.49451	1.35175	0	
2.0200	-2.16577	3.15408	0	
2.0207	-0.341963	2.8537	0	
2.0213	4.54684	3.79241	0	
2.0220	2.10244	4.0928	0	
2.0227	-4.00223	0.713424	0	
2.0233	-4.3062	1.01381	0	
2.0240	-2.4824	3.45447	0	
2.0247	-5.52207	1.35175	0	
2.0253	-7.35854	-2.02763	0	
2.0260	-3.3943	-2.32801	0	
2.0267	-0.64593	-2.32801	0	
2.0273	-2.16577	-3.22918	0	
2.0280	-1.55783	-5.66984	0	
2.0287	1.49451	-8.44844	0	
2.0293	0.265971	-9.04922	0	
2.0300	-2.78637	-7.81011	0	
2.0307	-1.55783	-5.66984	0	
2.0313	-0.0379959	-2.02763	0	
2.0320	-1.25386	-2.6284	0	
2.0327	-0.64593	-4.76868	0	
2.0333	-0.64593	-2.02763	0	
2.0340	-1.55783	-1.42685	0	
2.0347	-0.64593	-4.1679	0	
2.0353	-0.0379959	-3.22918	0	
2.0360	-1.55783	-0.187743	0	
2.0367	-0.64593	0.713424	0	
2.0373	0.569938	2.55331	0	
2.0380	-0.341963	3.15408	0	
2.0387	-0.64593	1.95253	0	
2.0393	0.265971	2.55331	0	
2.0400	-2.16577	4.0928	0	
2.0407	-3.69827	4.99397	0	
2.0413	-1.8618	8.03541	0	
2.0420	-0.0379959	9.5749	0	
2.0427	1.19054	7.73502	0	
2.0433	2.71037	7.43463	0	
2.0440	2.10244	6.23307	0	
2.0447	0.265971	-0.788521	0	
2.0453	1.49451	-6.00778	0	
2.0460	3.31831	-1.72724	0	
2.0467	3.92624	4.0928	0	
2.0473	4.54684	3.15408	0	
2.0480	4.85081	-1.12646	0	
2.0487	2.71037	0.413035	0	
2.0493	1.19054	4.0928	0	
2.0500	1.49451	4.39319	0	
2.0507	1.79847	4.69358	0	
2.0513	0.265971	3.79241	0	
2.0520	-1.55783	-1.42685	0	
2.0527	-1.55783	-3.56712	0	
2.0533	-1.55783	-2.02763	0	
2.0540	-1.55783	-2.32801	0	
2.0547	-0.64593	-1.42685	0	
2.0553	-1.8618	2.25292	0	
2.0560	-4.00223	1.35175	0	
2.0567	-3.3943	-2.32801	0	
2.0573	-1.55783	-2.02763	0	
2.0580	-2.16577	-0.187743	0	
2.0587	-4.00223	0.413035	0	
2.0593	-5.52207	-0.788521	0	
2.0600	-4.91414	-3.56712	0	
2.0607	-2.78637	-2.32801	0	
2.0613	-3.69827	0.413035	0	
2.0620	-5.2181	-0.488132	0	
2.0627	-1.55783	0.413035	0	
2.0633	-0.0379959	3.79241	0	
2.0640	-3.09033	1.95253	0	
2.0647	-3.09033	-1.42685	0	
2.0653	-0.949897	0.413035	0	
2.0660	-1.55783	2.55331	0	
2.0667	-0.64593	1.35175	0	
2.0673	0.886571	1.95253	0	
2.0680	-1.25386	2.25292	0	
2.0687	-1.55783	-1.42685	0	
2.0693	-0.341963	-2.32801	0	
2.0700	-1.25386	2.8537	0	
2.0707	-1.8618	3.15408	0	
2.0713	-1.25386	-3.86751	0	
2.0720	-3.09033	-7.50973	0	
2.0727	-2.16577	-6.90895	0	
2.0733	2.10244	-7.20934	0	
2.0740	0.569938	-7.20934	0	
2.0747	-2.4824	-6.00778	0	
2.0753	0.569938	-6.00778	0	
2.0760	3.31831	-6.90895	0	
2.0767	1.19054	-8.44844	0	
2.0773	2.10244	-8.1105	0	
2.0780	4.54684	-2.32801	0	
2.0787	3.01434	1.35175	0	
2.0793	2.40641	-0.488132	0	
2.0800	3.92624	-0.488132	0	
2.0807	5.45874	2.25292	0	
2.0813	7.59918	0.413035	0	
2.0820	9.72695	0.112646	0	
2.0827	7.90315	4.69358	0	
2.0833	6.67461	7.13424	0	
2.0840	8.20711	5.89513	0	
2.0847	6.67461	5.29436	0	
2.0853	2.71037	6.83385	0	
2.0860	3.62228	7.73502	0	
2.0867	6.37065	4.69358	0	
2.0873	7.29521	-1.12646	0	
2.0880	8.51108	-2.92879	0	
2.0887	6.97858	0.413035	0	
2.0893	2.10244	2.25292	0	
2.0900	0.886571	0.713424	0	
2.0907	3.62228	0.413035	0	
2.0913	4.85081	2.55331	0	
2.0920	3.92624	2.8537	0	
2.0927	3.01434	-0.788521	0	
2.0933	2.10244	-1.72724	0	
2.0940	2.10244	0.413035	0	
2.0947	1.19054	-0.187743	0	
2.0953	-1.25386	-1.42685	0	
2.0960	-1.8618	0.413035	0	
2.0967	-0.64593	1.01381	0	
2.0973	-2.4824	-1.42685	0	
2.0980	-4.61017	-0.488132	0	
2.0987	-3.3943	2.25292	0	
2.0993	-2.4824	1.01381	0	
2.1000	-3.3943	-0.488132	0	
2.1007	-4.3062	3.15408	0	
2.1013	-3.3943	6.83385	0	
2.1020	-1.8618	7.73502	0	
2.1027	-0.64593	7.43463	0	
2.1033	-1.55783	5.29436	0	
2.1040	-4.3062	3.15408	0	
2.1047	-4.3062	1.35175	0	
2.1053	-2.16577	-1.42685	0	
2.1060	-2.16577	-2.6284	0	
2.1067	-4.91414	-2.32801	0	
2.1073	-5.2181	-4.76868	0	
2.1080	-4.3062	-5.06906	0	
2.1087	-5.8387	-0.788521	0	
2.1093	-6.14267	-3.22918	0	
2.1100	-3.3943	-9.95039	0	
2.1107	-1.8618	-6.90895	0	
2.1113	-3.3943	-0.488132	0	
2.1120	-4.91414	-3.22918	0	
2.1127	-4.61017	-6.90895	0	
2.1133	-5.52207	-5.06906	0	
2.1140	-7.35854	-6.00778	0	
2.1147	-5.8387	-6.00778	0	
2.1153	-3.09033	-1.42685	0	
2.1160	-4.3062	-2.92879	0	
2.1167	-6.14267	-7.50973	0	
2.1173	-4.3062	-6.00778	0	
2.1180	-0.64593	-5.06906	0	
2.1187	0.265971	-5.36945	0	
2.1193	-0.341963	-0.187743	0	
2.1200	-0.64593	4.99397	0	
2.1207	-1.55783	4.99397	0	
2.1213	-5.2181	6.83385	0	
2.1220	-6.14267	9.5749	0	
2.1227	-1.8618	7.73502	0	
2.1233	-0.64593	5.89513	0	
2.1240	-4.00223	4.99397	0	
2.1247	-1.8618	4.39319	0	
2.1253	-0.0379959	5.29436	0	
2.1260	-2.78637	6.23307	0	
2.1267	-1.8618	5.89513	0	
2.1273	0.886571	6.83385	0	
2.1280	-0.64593	8.67373	0	
2.1287	-0.64593	8.67373	0	
2.1293	3.01434	6.23307	0	
2.1300	3.92624	1.01381	0	
2.1307	4.54684	-2.32801	0	
2.1313	4.54684	0.112646	0	
2.1320	2.10244	0.112646	0	
2.1327	3.01434	-2.6284	0	
2.1333	5.76271	-2.02763	0	
2.1340	5.15478	-3.22918	0	
2.1347	5.45874	-7.20934	0	
2.1353	7.59918	-5.06906	0	
2.1360	5.45874	0.112646	0	
2.1367	4.54684	0.413035	0	
2.1373	5.45874	0.413035	0	
2.1380	2.40641	2.25292	0	
2.1387	0.265971	3.15408	0	
2.1393	0.886571	4.99397	0	
2.1400	-2.4824	6.83385	0	
2.1407	-5.8387	6.23307	0	
2.1413	-4.61017	5.89513	0	
2.1420	-2.78637	6.23307	0	
2.1427	-0.64593	4.39319	0	
2.1433	1.19054	4.0928	0	
2.1440	-0.341963	4.39319	0	
2.1447	-3.3943	1.35175	0	
2.1453	-4.61017	-0.788521	0	
2.1460	-4.3062	2.25292	0	
2.1467	-2.4824	4.39319	0	
2.1473	-0.949897	3.15408	0	
2.1480	-2.78637	3.15408	0	
2.1487	-3.09033	5.29436	0	
2.1493	-0.64593	5.29436	0	
2.1500	-1.25386	1.95253	0	
2.1507	-3.09033	-4.1679	0	
2.1513	-1.25386	-6.90895	0	
2.1520	-2.16577	-2.6284	0	
2.1527	-4.61017	0.413035	0	
2.1533	-2.16577	-3.22918	0	
2.1540	1.19054	-4.1679	0	
2.1547	0.265971	-1.12646	0	
2.1553	0.569938	-2.32801	0	
2.1560	-0.0379959	-3.56712	0	
2.1567	-2.4824	1.01381	0	
2.1573	0.265971	2.8537	0	
2.1580	4.54684	-0.488132	0	
2.1587	1.19054	0.413035	0	
2.1593	-2.4824	4.99397	0	
2.1600	-0.341963	5.59475	0	
2.1607	2.10244	4.0928	0	
2.1613	1.19054	2.8537	0	
2.1620	-0.949897	0.413035	0	
2.1627	-1.55783	0.413035	0	
2.1633	0.886571	2.25292	0	
2.1640	1.49451	2.25292	0	
2.1647	-1.25386	3.15408	0	
2.1653	-1.55783	2.8537	0	
2.1660	-0.0379959	-0.788521	0	
2.1667	-2.4824	-1.72724	0	
2.1673	-5.2181	-1.42685	0	
2.1680	-2.4824	-5.36945	0	
2.1687	-0.341963	-8.44844	0	
2.1693	-3.09033	-6.00778	0	
2.1700	-3.3943	-3.86751	0	
2.1707	-0.64593	-4.1679	0	
2.1713	-2.16577	-4.46829	0	
2.1720	-5.2181	-4.76868	0	
2.1727	-3.3943	-6.30817	0	
2.1733	-0.949897	-9.65	0	
2.1740	-1.55783	-9.65	0	
2.1747	-3.69827	-4.1679	0	
2.1753	-6.7506	-0.187743	0	
2.1760	-8.57441	-2.02763	0	
2.1767	-6.7506	-2.32801	0	
2.1773	-4.91414	0.112646	0	
2.1780	-4.61017	-2.92879	0	
2.1787	-4.3062	-6.90895	0	
2.1793	-4.00223	-6.90895	0	
2.1800	-3.3943	-6.60856	0	
2.1807	-0.949897	-7.81011	0	
2.1813	-1.25386	-6.90895	0	
2.1820	-4.00223	-4.1679	0	
2.1827	-3.3943	-2.92879	0	
2.1833	-1.55783	-3.56712	0	
2.1840	-2.16577	-4.46829	0	
2.1847	-1.55783	-3.86751	0	
2.1853	-0.0379959	-2.32801	0	
2.1860	-0.341963	-2.32801	0	
2.1867	0.265971	-5.06906	0	
2.1873	2.10244	-5.66984	0	
2.1880	3.01434	-1.42685	0	
2.1887	3.31831	0.713424	0	
2.1893	4.54684	-2.02763	0	
2.1900	5.15478	-4.76868	0	
2.1907	4.54684	-4.46829	0	
2.1913	3.01434	-0.788521	0	
2.1920	3.62228	3.15408	0	
2.1927	5.76271	1.35175	0	
2.1933	4.85081	-2.02763	0	
2.1940	4.24288	-1.42685	0	
2.1947	7.29521	-2.92879	0	
2.1953	7.90315	-6.30817	0	
2.1960	4.85081	-4.1679	0	
2.1967	4.85081	-3.22918	0	
2.1973	8.20711	-6.00778	0	
2.1980	8.51108	-3.86751	0	
2.1987	6.06668	0.413035	0	
2.1993	3.92624	-0.187743	0	
2.2000	3.62228	-0.488132	0	
2.2007	2.10244	0.112646	0	
2.2013	-0.64593	0.413035	0	
2.2020	-0.64593	5.89513	0	
2.2027	0.569938	11.1144	0	
2.2033	0.886571	8.67373	0	
2.2040	3.31831	5.59475	0	
2.2047	6.67461	5.89513	0	
2.2053	6.06668	2.8537	0	
2.2060	4.24288	-0.488132	0	
2.2067	3.01434	1.35175	0	
2.2073	2.10244	2.55331	0	
2.2080	3.92624	-1.42685	0	
2.2087	4.24288	-4.1679	0	
2.2093	0.886571	-2.32801	0	
2.2100	1.79847	-0.488132	0	
2.2107	4.85081	-2.32801	0	
2.2113	1.19054	-3.56712	0	
2.2120	-1.8618	-2.02763	0	
2.2127	0.569938	-0.788521	0	
2.2133	1.19054	-1.42685	0	
2.2140	1.19054	0.112646	0	
2.2147	5.15478	2.25292	0	
2.2153	6.06668	3.45447	0	
2.2160	2.40641	6.83385	0	
2.2167	1.19054	6.83385	0	
2.2173	2.10244	0.112646	0	
2.2180	3.01434	-1.42685	0	
2.2187	3.01434	4.99397	0	
2.2193	1.19054	3.79241	0	
2.2200	-1.8618	-2.6284	0	
2.2207	-0.64593	-2.02763	0	
2.2213	0.569938	1.01381	0	
2.2220	-2.4824	1.01381	0	
2.2227	-4.91414	1.01381	0	
2.2233	-4.3062	-0.788521	0	
2.2240	-3.3943	-2.92879	0	
2.2247	-4.3062	-1.42685	0	
2.2253	-4.3062	-2.02763	0	
2.2260	-3.69827	-5.06906	0	
2.2267	-2.4824	-6.00778	0	
2.2273	-2.16577	-6.00778	0	
2.2280	-2.4824	-6.30817	0	
2.2287	-2.16577	-5.66984	0	
2.2293	-0.0379959	-4.1679	0	
2.2300	0.569938	-1.72724	0	
2.2307	-1.55783	-0.488132	0	
2.2313	-2.4824	-3.56712	0	
2.2320	0.265971	-5.06906	0	
2.2327	1.19054	-2.6284	0	
2.2333	-2.16577	-1.42685	0	
2.2340	-3.69827	-1.42685	0	
2.2347	-2.16577	-0.488132	0	
2.2353	-1.25386	-0.187743	0	
2.2360	-1.55783	1.65214	0	
2.2367	-1.55783	4.99397	0	
2.2373	-2.4824	4.0928	0	
2.2380	-4.3062	1.65214	0	
2.2387	-4.61017	1.65214	0	
2.2393	-3.3943	1.95253	0	
2.2400	-1.25386	2.25292	0	
2.2407	1.19054	3.45447	0	
2.2413	1.79847	2.25292	0	
2.2420	-0.0379959	-2.02763	0	
2.2427	0.265971	-2.02763	0	
2.2433	2.71037	1.35175	0	
2.2440	1.49451	2.25292	0	
2.2447	-1.55783	4.39319	0	
2.2453	-3.09033	5.89513	0	
2.2460	-5.2181	-0.187743	0	
2.2467	-8.57441	-6.00778	0	
2.2473	-8.89104	-4.1679	0	
2.2480	-6.7506	-5.06906	0	
2.2487	-6.14267	-8.1105	0	
2.2493	-9.49897	-1.42685	0	
2.2500	-12.2473	5.89513	0	
2.2507	-10.1069	4.99397	0	
2.2513	-7.05457	2.8537	0	
2.2520	-7.05457	1.35175	0	
2.2527	-7.05457	0.413035	0	
2.2533	-5.8387	1.95253	0	
2.2540	-4.3062	1.65214	0	
2.2547	-2.16577	-2.32801	0	
2.2553	-1.8618	-2.92879	0	
2.2560	-2.4824	-1.72724	0	
2.2567	-0.64593	-1.42685	0	
2.2573	1.79847	1.35175	0	
2.2580	2.40641	2.8537	0	
2.2587	3.01434	1.35175	0	
2.2593	2.71037	1.95253	0	
2.2600	3.31831	1.35175	0	
2.2607	4.85081	-0.488132	0	
2.2613	3.92624	0.713424	0	
2.2620	2.10244	2.25292	0	
2.2627	3.01434	1.01381	0	
2.2633	4.54684	1.65214	0	
2.2640	5.76271	2.25292	0	
2.2647	5.76271	1.35175	0	
2.2653	4.54684	1.95253	0	
2.2660	5.76271	3.79241	0	
2.2667	8.81505	3.79241	0	
2.2673	8.20711	3.15408	0	
2.2680	4.54684	2.55331	0	
2.2687	0.886571	0.413035	0	
2.2693	-1.25386	-0.488132	0	
2.2700	-0.0379959	2.55331	0	
2.2707	1.79847	4.39319	0	
2.2713	0.265971	1.65214	0	
2.2720	-1.25386	1.01381	0	
2.2727	-3.09033	2.25292	0	
2.2733	-6.44664	1.01381	0	
2.2740	-5.52207	0.413035	0	
2.2747	-0.949897	4.69358	0	
2.2753	0.569938	4.39319	0	
2.2760	0.886571	-1.12646	0	
2.2767	3.62228	-2.92879	0	
2.2773	5.76271	-1.12646	0	
2.2780	5.45874	-0.187743	0	
2.2787	4.54684	0.112646	0	
2.2793	4.24288	-0.788521	0	
2.2800	4.54684	-3.56712	0	
2.2807	3.62228	-5.06906	0	
2.2813	0.886571	-2.92879	0	
2.2820	-0.64593	-0.187743	0	
2.2827	0.265971	0.112646	0	
2.2833	-0.341963	-0.187743	0	
2.2840	-2.16577	0.112646	0	
2.2847	-1.55783	-3.22918	0	
2.2853	-1.25386	-7.81011	0	
2.2860	-2.4824	-6.90895	0	
2.2867	-2.16577	-4.1679	0	
2.2873	-0.341963	-3.22918	0	
2.2880	-2.16577	-4.1679	0	
2.2887	-3.3943	-7.20934	0	
2.2893	-1.25386	-8.74883	0	
2.2900	-0.949897	-5.06906	0	
2.2907	-2.16577	-4.1679	0	
2.2913	-0.64593	-7.81011	0	
2.2920	-0.64593	-6.00778	0	
2.2927	-2.16577	-2.92879	0	
2.2933	-1.25386	-3.86751	0	
2.2940	1.19054	-5.06906	0	
2.2947	2.10244	-4.76868	0	
2.2953	2.10244	-6.90895	0	
2.2960	2.10244	-6.90895	0	
2.2967	2.10244	-4.1679	0	
2.2973	1.19054	-2.92879	0	
2.2980	1.49451	-4.1679	0	
2.2987	3.31831	-3.22918	0	
2.2993	4.54684	-0.187743	0	
2.3000	3.92624	-1.42685	0	
2.3007	3.92624	-4.46829	0	
2.3013	3.31831	-1.42685	0	
2.3020	2.10244	2.8537	0	
2.3027	2.71037	-0.488132	0	
2.3033	1.19054	-6.30817	0	
2.3040	-2.4824	-6.90895	0	
2.3047	-1.25386	-4.1679	0	
2.3053	1.19054	-1.42685	0	
2.3060	-1.8618	-2.32801	0	
2.3067	-4.3062	-6.90895	0	
2.3073	-3.09033	-7.20934	0	
2.3080	-2.4824	-3.22918	0	
2.3087	-4.00223	-0.788521	0	
2.3093	-4.61017	0.112646	0	
2.3100	-3.3943	1.95253	0	
2.3107	-1.55783	1.01381	0	
2.3113	-2.4824	-0.488132	0	
2.3120	-5.52207	2.8537	0	
2.3127	-3.69827	4.39319	0	
2.3133	-0.949897	1.95253	0	
2.3140	-1.25386	0.713424	0	
2.3147	0.265971	0.413035	0	
2.3153	3.01434	1.35175	0	
2.3160	2.10244	5.59475	0	
2.3167	0.265971	6.83385	0	
2.3173	0.569938	3.15408	0	
2.3180	0.886571	2.8537	0	
2.3187	0.569938	5.29436	0	
2.3193	1.49451	4.99397	0	
2.3200	2.10244	5.29436	0	
2.3207	2.10244	8.03541	0	
2.3213	0.569938	7.43463	0	
2.3220	-1.8618	4.69358	0	
2.3227	-2.4824	3.45447	0	
2.3233	-1.8618	2.8537	0	
2.3240	-1.55783	2.55331	0	
2.3247	-0.64593	2.55331	0	
2.3253	0.886571	0.713424	0	
2.3260	-0.341963	-0.488132	0	
2.3267	-1.25386	0.713424	0	
2.3273	0.265971	2.8537	0	
2.3280	-1.55783	3.79241	0	
2.3287	-6.14267	2.8537	0	
2.3293	-5.2181	2.25292	0	
2.3300	-3.3943	4.69358	0	
2.3307	-5.8387	6.53346	0	
2.3313	-7.96647	4.99397	0	
2.3320	-7.05457	4.69358	0	
2.3327	-7.05457	6.23307	0	
2.3333	-6.14267	4.0928	0	
2.3340	-5.8387	-0.488132	0	
2.3347	-7.35854	-0.187743	0	
2.3353	-6.7506	4.39319	0	
2.3360	-3.3943	6.83385	0	
2.3367	-2.4824	5.89513	0	
2.3373	-3.69827	3.15408	0	
2.3380	-4.3062	-0.488132	0	
2.3387	-3.3943	0.112646	0	
2.3393	-0.0379959	1.01381	0	
2.3400	2.10244	-2.02763	0	
2.3407	0.886571	-2.92879	0	
2.3413	-0.949897	1.35175	0	
2.3420	-2.78637	5.29436	0	
2.3427	-3.3943	7.13424	0	
2.3433	0.886571	8.03541	0	
2.3440	5.76271	4.69358	0	
2.3447	4.24288	-2.32801	0	
2.3453	0.886571	-7.50973	0	
2.3460	2.10244	-8.74883	0	
2.3467	2.71037	-6.00778	0	
2.3473	1.79847	-0.488132	0	
2.3480	2.71037	0.713424	0	
2.3487	2.71037	-1.12646	0	
2.3493	0.265971	0.413035	0	
2.3500	2.10244	2.25292	0	
2.3507	5.76271	0.413035	0	
2.3513	4.24288	-2.92879	0	
2.3520	1.19054	-3.22918	0	
2.3527	2.71037	-3.22918	0	
2.3533	3.01434	-5.06906	0	
2.3540	0.265971	-4.76868	0	
2.3547	-0.949897	-1.42685	0	
2.3553	-0.64593	-0.788521	0	
2.3560	-0.341963	-2.6284	0	
2.3567	1.19054	-0.788521	0	
2.3573	1.19054	3.45447	0	
2.3580	-0.64593	3.79241	0	
2.3587	1.79847	2.55331	0	
2.3593	4.85081	3.15408	0	
2.3600	3.01434	3.15408	0	
2.3607	3.31831	2.55331	0	
2.3613	7.29521	2.8537	0	
2.3620	6.37065	3.15408	0	
2.3627	4.85081	3.45447	0	
2.3633	8.51108	4.99397	0	
2.3640	10.0309	4.99397	0	
2.3647	7.59918	2.25292	0	
2.3653	7.59918	-1.12646	0	
2.3660	6.67461	-3.22918	0	
2.3667	5.15478	-4.46829	0	
2.3673	7.90315	-3.22918	0	
2.3680	8.51108	-1.42685	0	
2.3687	4.85081	-1.12646	0	
2.3693	5.76271	0.413035	0	
2.3700	6.06668	4.0928	0	
2.3707	2.10244	4.99397	0	
2.3713	1.19054	4.0928	0	
2.3720	4.24288	2.55331	0	
2.3727	4.54684	-0.187743	0	
2.3733	4.85081	-2.02763	0	
2.3740	6.97858	-0.788521	0	
2.3747	6.97858	-2.32801	0	
2.3753	6.67461	-4.46829	0	
2.3760	8.20711	-1.12646	0	
2.3767	6.97858	1.65214	0	
2.3773	3.01434	-0.187743	0	
2.3780	0.265971	1.35175	0	
2.3787	-1.55783	2.55331	0	
2.3793	-1.25386	-2.6284	0	
2.3800	0.886571	-6.00778	0	
2.3807	0.569938	-2.02763	0	
2.3813	-3.3943	-0.488132	0	
2.3820	-5.2181	-2.6284	0	
2.3827	-5.2181	-2.02763	0	
2.3833	-6.7506	-0.187743	0	
2.3840	-7.35854	-0.187743	0	
2.3847	-7.05457	0.713424	0	
2.3853	-9.49897	0.413035	0	
2.3860	-9.19501	-4.1679	0	
2.3867	-6.14267	-8.1105	0	
2.3873	-7.05457	-10.5512	0	
2.3880	-6.44664	-13.3298	0	
2.3887	-2.4824	-13.6302	0	
2.3893	-2.78637	-11.4899	0	
2.3900	-5.2181	-9.04922	0	
2.3907	-4.3062	-6.60856	0	
2.3913	-3.3943	-6.30817	0	
2.3920	-4.00223	-7.81011	0	
2.3927	-2.16577	-7.50973	0	
2.3933	-2.16577	-6.00778	0	
2.3940	-3.3943	-5.06906	0	
2.3947	-2.4824	-4.1679	0	
2.3953	-2.16577	-4.1679	0	
2.3960	-3.09033	-5.36945	0	
2.3967	-1.25386	-2.32801	0	
2.3973	0.265971	2.25292	0	
2.3980	0.569938	3.79241	0	
2.3987	2.10244	3.15408	0	
2.3993	0.886571	3.15408	0	
2.4000	-2.78637	2.55331	0	
2.4007	-3.3943	2.25292	0	
2.4013	-3.69827	2.8537	0	
2.4020	-7.05457	4.0928	0	
2.4027	-8.89104	4.99397	0	
2.4033	-6.14267	4.69358	0	
2.4040	-4.91414	2.55331	0	
2.4047	-8.27044	1.35175	0	
2.4053	-11.6267	2.8537	0	
2.4060	-8.89104	4.99397	0	
2.4067	-5.2181	4.69358	0	
2.4073	-5.2181	2.55331	0	
2.4080	-4.3062	1.35175	0	
2.4087	-1.55783	1.65214	0	
2.4093	-2.16577	0.413035	0	
2.4100	-3.3943	-1.42685	0	
2.4107	-1.55783	-1.72724	0	
2.4113	-0.949897	-1.42685	0	
2.4120	-1.55783	-3.22918	0	
2.4127	-0.64593	-6.00778	0	
2.4133	-0.949897	-6.60856	0	
2.4140	-3.3943	-4.76868	0	
2.4147	-3.69827	-4.1679	0	
2.4153	-3.69827	-4.1679	0	
2.4160	-4.91414	-2.02763	0	
2.4167	-2.4824	0.713424	0	
2.4173	1.19054	1.35175	0	
2.4180	0.265971	2.25292	0	
2.4187	-0.949897	4.0928	0	
2.4193	1.19054	6.53346	0	
2.4200	1.49451	6.83385	0	
2.4207	-0.341963	3.45447	0	
2.4213	0.265971	0.413035	0	
2.4220	3.01434	2.8537	0	
2.4227	3.62228	3.79241	0	
2.4233	1.19054	1.35175	0	
2.4240	-2.4824	2.8537	0	
2.4247	-4.3062	5.89513	0	
2.4253	-4.00223	6.23307	0	
2.4260	-2.4824	6.53346	0	
2.4267	-3.69827	4.99397	0	
2.4273	-6.14267	2.55331	0	
2.4280	-4.91414	3.15408	0	
2.4287	-0.949897	4.0928	0	
2.4293	-1.25386	3.79241	0	
2.4300	-4.61017	6.23307	0	
2.4307	-1.55783	5.89513	0	
2.4313	4.24288	0.413035	0	
2.4320	2.71037	-2.32801	0	
2.4327	-0.64593	-1.42685	0	
2.4333	0.886571	-1.42685	0	
2.4340	1.49451	-1.72724	0	
2.4347	1.79847	-2.32801	0	
2.4353	3.01434	-4.1679	0	
2.4360	1.19054	-3.22918	0	
2.4367	-1.25386	0.413035	0	
2.4373	0.886571	2.25292	0	
2.4380	1.19054	2.25292	0	
2.4387	-0.0379959	2.55331	0	
2.4393	3.01434	1.65214	0	
2.4400	5.15478	0.713424	0	
2.4407	3.01434	-0.488132	0	
2.4413	4.24288	-1.12646	0	
2.4420	6.06668	0.112646	0	
2.4427	4.85081	-0.488132	0	
2.4433	3.62228	-1.42685	0	
2.4440	2.71037	1.01381	0	
2.4447	0.569938	4.39319	0	
2.4453	0.569938	5.89513	0	
2.4460	1.19054	5.89513	0	
2.4467	-0.0379959	4.39319	0	
2.4473	0.265971	1.35175	0	
2.4480	2.10244	0.112646	0	
2.4487	0.265971	0.112646	0	
2.4493	-0.64593	-2.02763	0	
2.4500	3.01434	-2.92879	0	
2.4507	3.62228	-0.488132	0	
2.4513	-0.64593	0.713424	0	
2.4520	-3.3943	-0.187743	0	
2.4527	-0.949897	-1.42685	0	
2.4533	-0.64593	-2.6284	0	
2.4540	-4.3062	-2.32801	0	
2.4547	-4.00223	-0.187743	0	
2.4553	-0.0379959	1.65214	0	
2.4560	0.265971	1.65214	0	
2.4567	-0.0379959	0.112646	0	
2.4573	2.40641	-2.02763	0	
2.4580	0.886571	-0.788521	0	
2.4587	-2.4824	4.99397	0	
2.4593	0.265971	8.67373	0	
2.4600	1.49451	5.59475	0	
2.4607	-3.3943	1.95253	0	
2.4613	-4.00223	1.65214	0	
2.4620	0.265971	0.413035	0	
2.4627	0.886571	-4.1679	0	
2.4633	0.265971	-8.44844	0	
2.4640	-0.0379959	-10.2508	0	
2.4647	-1.8618	-8.74883	0	
2.4653	-1.55783	-6.30817	0	
2.4660	0.569938	-5.66984	0	
2.4667	-0.341963	-6.30817	0	
2.4673	-0.949897	-6.30817	0	
2.4680	1.79847	-6.00778	0	
2.4687	3.01434	-5.66984	0	
2.4693	1.19054	-4.1679	0	
2.4700	0.569938	-2.92879	0	
2.4707	1.79847	-4.1679	0	
2.4713	2.71037	-6.90895	0	
2.4720	2.10244	-6.00778	0	
2.4727	1.49451	-4.1679	0	
2.4733	5.15478	-5.66984	0	
2.4740	9.11902	-7.20934	0	
2.4747	8.51108	-6.90895	0	
2.4753	7.29521	-5.06906	0	
2.4760	7.29521	-4.76868	0	
2.4767	5.45874	-4.1679	0	
2.4773	3.92624	-0.488132	0	
2.4780	3.62228	2.8537	0	
2.4787	0.886571	-0.488132	0	
2.4793	-0.949897	-2.6284	0	
2.4800	-0.949897	1.35175	0	
2.4807	-3.3943	3.15408	0	
2.4813	-5.8387	0.713424	0	
2.4820	-4.3062	0.713424	0	
2.4827	-1.8618	2.25292	0	
2.4833	-0.64593	0.713424	0	
2.4840	-3.3943	-0.187743	0	
2.4847	-7.66251	1.95253	0	
2.4853	-6.44664	3.79241	0	
2.4860	-4.00223	3.15408	0	
2.4867	-6.7506	3.79241	0	
2.4873	-7.35854	4.99397	0	
2.4880	-3.09033	1.35175	0	
2.4887	-2.4824	-4.46829	0	
2.4893	-5.2181	-4.1679	0	
2.4900	-4.61017	-1.42685	0	
2.4907	-4.3062	-4.46829	0	
2.4913	-4.91414	-6.30817	0	
2.4920	-3.09033	-4.1679	0	
2.4927	-1.55783	-4.76868	0	
2.4933	-1.25386	-7.81011	0	
2.4940	-0.0379959	-7.20934	0	
2.4947	0.265971	-2.6284	0	
2.4953	0.265971	1.35175	0	
2.4960	1.19054	1.65214	0	
2.4967	2.71037	1.35175	0	
2.4973	2.40641	2.25292	0	
2.4980	1.19054	2.25292	0	
2.4987	-0.0379959	0.413035	0	
2.4993	-1.55783	1.35175	0	
2.5000	-2.4824	3.15408	0	
2.5007	-1.8618	4.0928	0	
2.5013	-1.55783	4.0928	0	
2.5020	-3.3943	3.79241	0	
2.5027	-5.52207	2.25292	0	
2.5033	-4.00223	2.8537	0	
2.5040	-2.4824	5.59475	0	
2.5047	-1.8618	5.59475	0	
2.5053	-0.0379959	2.55331	0	
2.5060	1.79847	0.713424	0	
2.5067	2.10244	0.413035	0	
2.5073	2.40641	-0.187743	0	
2.5080	2.40641	-0.488132	0	
2.5087	1.49451	-1.42685	0	
2.5093	0.265971	-3.56712	0	
2.5100	-1.25386	-1.72724	0	
2.5107	-0.64593	0.112646	0	
2.5113	0.265971	-3.22918	0	
2.5120	-0.949897	-5.06906	0	
2.5127	-1.8618	-3.22918	0	
2.5133	0.569938	-6.00778	0	
2.5140	2.40641	-8.1105	0	
2.5147	2.10244	-6.60856	0	
2.5153	2.10244	-6.90895	0	
2.5160	2.10244	-7.50973	0	
2.5167	2.10244	-4.46829	0	
2.5173	1.19054	-2.32801	0	
2.5180	-1.8618	-0.788521	0	
2.5187	-3.3943	3.15408	0	
2.5193	-0.64593	4.99397	0	
2.5200	0.886571	5.29436	0	
2.5207	-1.55783	8.3358	0	
2.5213	-2.4824	11.4148	0	
2.5220	0.265971	14.1558	0	
2.5227	2.10244	14.4562	0	
2.5233	2.40641	9.5749	0	
2.5240	3.62228	5.29436	0	
2.5247	2.40641	5.29436	0	
2.5253	-2.16577	3.15408	0	
2.5260	-3.69827	2.25292	0	
2.5267	-0.341963	3.79241	0	
2.5273	1.19054	1.35175	0	
2.5280	0.265971	0.112646	0	
2.5287	2.10244	2.8537	0	
2.5293	1.79847	1.35175	0	
2.5300	-1.55783	-1.72724	0	
2.5307	-1.55783	1.35175	0	
2.5313	1.79847	3.79241	0	
2.5320	2.40641	1.95253	0	
2.5327	1.19054	0.413035	0	
2.5333	-1.25386	-0.788521	0	
2.5340	-1.8618	-2.32801	0	
2.5347	0.569938	-2.92879	0	
2.5353	1.19054	-3.86751	0	
2.5360	-0.341963	-6.00778	0	
2.5367	1.49451	-8.1105	0	
2.5373	2.40641	-8.74883	0	
2.5380	0.569938	-5.06906	0	
2.5387	1.19054	-0.488132	0	
2.5393	1.79847	2.25292	0	
2.5400	-0.341963	5.29436	0	
2.5407	1.49451	6.53346	0	
2.5413	6.37065	2.55331	0	
2.5420	6.37065	-0.187743	0	
2.5427	4.24288	-1.72724	0	
2.5433	4.85081	-4.46829	0	
2.5440	5.15478	-5.06906	0	
2.5447	3.92624	-3.22918	0	
2.5453	4.24288	-2.32801	0	
2.5460	6.37065	-0.788521	0	
2.5467	6.67461	-2.02763	0	
2.5473	4.54684	-4.76868	0	
2.5480	3.92624	-1.42685	0	
2.5487	3.31831	2.25292	0	
2.5493	0.265971	-1.12646	0	
2.5500	-2.4824	-3.22918	0	
2.5507	-4.00223	-2.02763	0	
2.5513	-3.69827	-2.92879	0	
2.5520	-0.0379959	-2.92879	0	
2.5527	1.79847	-2.32801	0	
2.5533	-0.341963	-2.6284	0	
2.5540	0.265971	0.713424	0	
2.5547	2.10244	3.45447	0	
2.5553	-0.0379959	-0.187743	0	
2.5560	-1.55783	-3.22918	0	
2.5567	-0.64593	-1.42685	0	
2.5573	-2.4824	-0.788521	0	
2.5580	-3.3943	-2.92879	0	
2.5587	-1.25386	-2.32801	0	
2.5593	-0.64593	1.65214	0	
2.5600	-2.4824	3.45447	0	
2.5607	-4.00223	2.8537	0	
2.5613	-3.3943	3.79241	0	
2.5620	-0.64593	4.99397	0	
2.5627	1.19054	2.55331	0	
2.5633	0.569938	1.65214	0	
2.5640	0.886571	3.45447	0	
2.5647	3.01434	1.35175	0	
2.5653	3.31831	-2.02763	0	
2.5660	3.01434	0.413035	0	
2.5667	3.62228	2.25292	0	
2.5673	3.62228	-1.42685	0	
2.5680	3.01434	-3.22918	0	
2.5687	2.71037	-2.32801	0	
2.5693	0.569938	-3.22918	0	
2.5700	-1.8618	-6.00778	0	
2.5707	-0.949897	-6.00778	0	
2.5713	-0.341963	-5.06906	0	
2.5720	-3.3943	-5.66984	0	
2.5727	-5.2181	-5.36945	0	
2.5733	-3.09033	-6.90895	0	
2.5740	-1.8618	-11.1895	0	
2.5747	-2.78637	-10.5512	0	
2.5753	-4.00223	-3.86751	0	
2.5760	-4.91414	-2.02763	0	
2.5767	-3.3943	-5.06906	0	
2.5773	-0.341963	-4.1679	0	
2.5780	-2.4824	-1.12646	0	
2.5787	-5.8387	-1.12646	0	
2.5793	-4.91414	-2.32801	0	
2.5800	-3.69827	-2.32801	0	
2.5807	-3.69827	-0.788521	0	
2.5813	-2.16577	1.35175	0	
2.5820	-2.4824	2.25292	0	
2.5827	-3.3943	2.55331	0	
2.5833	-0.341963	2.25292	0	
2.5840	0.886571	3.45447	0	
2.5847	-1.55783	9.27451	0	
2.5853	-1.55783	13.2171	0	
2.5860	-0.64593	10.4761	0	
2.5867	-2.4824	8.67373	0	
2.5873	-2.16577	6.83385	0	
2.5880	-1.55783	-1.42685	0	
2.5887	-3.09033	-7.20934	0	
2.5893	-2.16577	-4.46829	0	
2.5900	-0.341963	-2.02763	0	
2.5907	0.569938	-2.32801	0	
2.5913	2.10244	-3.86751	0	
2.5920	2.71037	-8.1105	0	
2.5927	2.10244	-10.5512	0	
2.5933	2.10244	-6.00778	0	
2.5940	3.01434	-2.32801	0	
2.5947	3.31831	-2.92879	0	
2.5953	3.92624	0.413035	0	
2.5960	3.92624	4.99397	0	
2.5967	2.71037	4.39319	0	
2.5973	0.265971	4.39319	0	
2.5980	-1.55783	4.0928	0	
2.5987	0.265971	-1.42685	0	
2.5993	1.49451	-3.56712	0	
2.6000	-0.0379959	-0.488132	0	
2.6007	0.265971	0.112646	0	
2.6013	1.79847	0.413035	0	
2.6020	1.19054	3.15408	0	
2.6027	-0.341963	2.25292	0	
2.6033	-0.64593	1.35175	0	
2.6040	-0.0379959	4.69358	0	
2.6047	-0.0379959	4.0928	0	
2.6053	-1.55783	0.413035	0	
2.6060	-2.16577	1.35175	0	
2.6067	-0.64593	3.15408	0	
2.6073	-0.64593	0.713424	0	
2.6080	-2.78637	0.713424	0	
2.6087	-2.4824	3.15408	0	
2.6093	-1.55783	2.25292	0	
2.6100	-2.16577	1.01381	0	
2.6107	-1.25386	1.35175	0	
2.6113	-0.64593	3.15408	0	
2.6120	-2.16577	4.0928	0	
2.6127	-2.4824	3.15408	0	
2.6133	-0.64593	3.15408	0	
2.6140	0.265971	5.59475	0	
2.6147	1.19054	6.83385	0	
2.6153	3.01434	4.99397	0	
2.6160	1.79847	4.69358	0	
2.6167	0.265971	6.83385	0	
2.6173	2.10244	8.03541	0	
2.6180	3.92624	6.23307	0	
2.6187	2.40641	1.35175	0	
2.6193	1.49451	-1.42685	0	
2.6200	0.886571	0.413035	0	
2.6207	-0.64593	3.79241	0	
2.6213	0.265971	4.0928	0	
2.6220	1.19054	3.15408	0	
2.6227	-0.64593	2.8537	0	
2.6233	-2.4824	1.35175	0	
2.6240	-1.8618	-0.488132	0	
2.6247	-1.8618	-1.42685	0	
2.6253	-2.78637	-1.42685	0	
2.6260	-2.4824	-1.42685	0	
2.6267	0.265971	-3.22918	0	
2.6273	2.71037	-5.36945	0	
2.6280	2.40641	-4.76868	0	
2.6287	2.40641	-4.1679	0	
2.6293	3.92624	-5.36945	0	
2.6300	2.10244	-4.1679	0	
2.6307	-2.78637	-4.1679	0	
2.6313	-3.3943	-8.1105	0	
2.6320	0.569938	-7.81011	0	
2.6327	0.886571	-4.1679	0	
2.6333	-2.16577	-5.06906	0	
2.6340	-0.64593	-6.90895	0	
2.6347	3.31831	-5.36945	0	
2.6353	2.40641	-6.90895	0	
2.6360	0.569938	-8.1105	0	
2.6367	4.24288	-5.06906	0	
2.6373	5.45874	-2.32801	0	
2.6380	0.265971	-0.187743	0	
2.6387	-1.55783	3.45447	0	
2.6393	0.569938	3.45447	0	
2.6400	-0.341963	0.713424	0	
2.6407	-1.55783	0.413035	0	
2.6413	-0.64593	-1.12646	0	
2.6420	-1.25386	-4.46829	0	
2.6427	-2.4824	-4.1679	0	
2.6433	-2.78637	-2.6284	0	
2.6440	-3.3943	-3.22918	0	
2.6447	-3.09033	-3.56712	0	
2.6453	-1.55783	-2.6284	0	
2.6460	-2.4824	-2.02763	0	
2.6467	-4.3062	-2.02763	0	
2.6473	-3.09033	-3.22918	0	
2.6480	-0.949897	-4.1679	0	
2.6487	-3.09033	-2.92879	0	
2.6493	-4.3062	-2.92879	0	
2.6500	-0.64593	-4.76868	0	
2.6507	1.79847	-6.00778	0	
2.6513	-0.0379959	-6.00778	0	
2.6520	-1.55783	-6.90895	0	
2.6527	-1.25386	-9.65	0	
2.6533	-3.3943	-9.65	0	
2.6540	-5.8387	-6.00778	0	
2.6547	-6.14267	-4.46829	0	
2.6553	-5.8387	-5.06906	0	
2.6560	-4.00223	-4.76868	0	
2.6567	-3.3943	-5.66984	0	
2.6573	-5.2181	-6.60856	0	
2.6580	-4.00223	-3.22918	0	
2.6587	1.49451	-0.788521	0	
2.6593	3.01434	-4.46829	0	
2.6600	1.19054	-6.30817	0	
2.6607	1.19054	-4.46829	0	
2.6613	1.79847	-3.86751	0	
2.6620	0.886571	-4.1679	0	
2.6627	1.19054	-4.46829	0	
2.6633	-0.64593	-4.46829	0	
2.6640	-4.61017	-4.1679	0	
2.6647	-4.3062	-4.46829	0	
2.6653	-0.341963	-3.22918	0	
2.6660	-0.341963	2.55331	0	
2.6667	-2.4824	5.89513	0	
2.6673	-3.69827	3.79241	0	
2.6680	-5.8387	2.8537	0	
2.6687	-6.44664	4.0928	0	
2.6693	-4.3062	3.79241	0	
2.6700	-5.2181	4.99397	0	
2.6707	-7.96647	4.69358	0	
2.6713	-4.61017	1.65214	0	
2.6720	-2.16577	1.35175	0	
2.6727	-4.3062	4.39319	0	
2.6733	-1.8618	4.0928	0	
2.6740	2.10244	1.65214	0	
2.6747	0.265971	1.65214	0	
2.6753	-1.55783	2.25292	0	
2.6760	-1.25386	1.65214	0	
2.6767	-4.61017	-0.187743	0	
2.6773	-4.3062	-0.788521	0	
2.6780	0.569938	-0.788521	0	
2.6787	-0.341963	-0.488132	0	
2.6793	-2.4824	3.15408	0	
2.6800	0.886571	6.83385	0	
2.6807	0.886571	5.59475	0	
2.6813	-3.3943	3.15408	0	
2.6820	-3.69827	2.8537	0	
2.6827	-0.64593	-1.12646	0	
2.6833	3.01434	-5.06906	0	
2.6840	5.45874	-0.788521	0	
2.6847	3.01434	3.79241	0	
2.6853	-0.0379959	2.8537	0	
2.6860	1.49451	4.69358	0	
2.6867	3.01434	6.83385	0	
2.6873	2.40641	1.95253	0	
2.6880	2.40641	-3.86751	0	
2.6887	2.10244	-6.00778	0	
2.6893	1.19054	-7.20934	0	
2.6900	0.265971	-6.00778	0	
2.6907	-0.64593	-1.42685	0	
2.6913	-0.949897	-0.788521	0	
2.6920	-0.64593	-2.32801	0	
2.6927	1.49451	-2.02763	0	
2.6933	2.71037	-2.02763	0	
2.6940	1.79847	-1.72724	0	
2.6947	2.10244	0.112646	0	
2.6953	3.92624	-0.488132	0	
2.6960	2.10244	-0.488132	0	
2.6967	1.19054	3.15408	0	
2.6973	4.85081	3.15408	0	
2.6980	5.45874	-1.42685	0	
2.6987	2.10244	-1.12646	0	
2.6993	1.49451	1.65214	0	
2.7000	1.79847	1.65214	0	
2.7007	-0.64593	4.0928	0	
2.7013	-1.8618	10.7765	0	
2.7020	-1.55783	12.0156	0	
2.7027	-0.64593	7.43463	0	
2.7033	0.569938	5.59475	0	
2.7040	1.19054	4.99397	0	
2.7047	0.265971	2.25292	0	
2.7053	-0.64593	1.01381	0	
2.7060	-1.55783	3.15408	0	
2.7067	-0.949897	4.99397	0	
2.7073	1.19054	5.59475	0	
2.7080	1.19054	5.89513	0	
2.7087	-0.341963	4.99397	0	
2.7093	0.886571	4.39319	0	
2.7100	1.79847	4.39319	0	
2.7107	0.265971	4.0928	0	
2.7113	0.265971	4.39319	0	
2.7120	0.265971	5.89513	0	
2.7127	-0.341963	3.15408	0	
2.7133	-0.341963	-2.32801	0	
2.7140	-1.55783	-2.32801	0	
2.7147	-4.3062	0.413035	0	
2.7153	-3.09033	0.713424	0	
2.7160	-0.64593	-1.12646	0	
2.7167	-1.55783	-2.02763	0	
2.7173	-1.25386	-1.72724	0	
2.7180	1.49451	-1.42685	0	
2.7187	2.40641	-2.92879	0	
2.7193	0.886571	-3.56712	0	
2.7200	1.19054	-1.12646	0	
2.7207	3.92624	1.65214	0	
2.7213	4.85081	2.25292	0	
2.7220	2.71037	2.25292	0	
2.7227	1.49451	1.65214	0	
2.7233	2.10244	0.413035	0	
2.7240	2.40641	3.15408	0	
2.7247	3.31831	6.53346	0	
2.7253	3.92624	3.45447	0	
2.7260	3.31831	-0.788521	0	
2.7267	2.40641	0.413035	0	
2.7273	-0.0379959	1.35175	0	
2.7280	-2.4824	-2.92879	0	
2.7287	-0.949897	-5.06906	0	
2.7293	1.19054	-5.06906	0	
2.7300	1.79847	-6.30817	0	
2.7307	3.31831	-4.76868	0	
2.7313	3.62228	-1.42685	0	
2.7320	-0.341963	-3.56712	0	
2.7327	-0.64593	-6.30817	0	
2.7333	2.71037	-2.32801	0	
2.7340	1.49451	2.25292	0	
2.7347	0.265971	2.8537	0	
2.7353	3.01434	2.25292	0	
2.7360	2.10244	3.15408	0	
2.7367	-2.4824	3.15408	0	
2.7373	-2.4824	2.25292	0	
2.7380	-0.64593	0.413035	0	
2.7387	-1.55783	-2.02763	0	
2.7393	-0.64593	-2.92879	0	
2.7400	3.01434	-2.6284	0	
2.7407	3.31831	-1.42685	0	
2.7413	-0.341963	0.413035	0	
2.7420	-3.09033	1.35175	0	
2.7427	-2.4824	0.413035	0	
2.7433	-1.55783	1.35175	0	
2.7440	-1.8618	4.99397	0	
2.7447	-1.8618	7.73502	0	
2.7453	-2.4824	8.3358	0	
2.7460	-3.69827	5.59475	0	
2.7467	-1.55783	2.25292	0	
2.7473	2.10244	1.95253	0	
2.7480	0.265971	1.35175	0	
2.7487	-1.55783	-0.488132	0	
2.7493	-0.949897	0.413035	0	
2.7500	-0.0379959	2.25292	0	
2.7507	1.49451	0.713424	0	
2.7513	2.71037	0.413035	0	
2.7520	0.569938	1.35175	0	
2.7527	0.265971	0.112646	0	
2.7533	3.01434	-0.187743	0	
2.7540	1.49451	0.413035	0	
2.7547	-2.4824	0.713424	0	
2.7553	-3.3943	1.95253	0	
2.7560	-1.55783	1.35175	0	
2.7567	1.49451	0.413035	0	
2.7573	4.85081	2.55331	0	
2.7580	3.62228	3.15408	0	
2.7587	-0.64593	-0.187743	0	
2.7593	-2.78637	-1.42685	0	
2.7600	-3.3943	-1.12646	0	
2.7607	-2.78637	-0.788521	0	
2.7613	-3.3943	1.65214	0	
2.7620	-4.91414	1.95253	0	
2.7627	-4.61017	-1.12646	0	
2.7633	-4.61017	0.713424	0	
2.7640	-7.66251	4.39319	0	
2.7647	-8.89104	4.39319	0	
2.7653	-7.35854	4.99397	0	
2.7660	-7.96647	3.15408	0	
2.7667	-9.19501	-0.488132	0	
2.7673	-9.49897	1.01381	0	
2.7680	-9.19501	3.79241	0	
2.7687	-8.27044	0.713424	0	
2.7693	-6.14267	-1.72724	0	
2.7700	-4.91414	1.35175	0	
2.7707	-4.91414	4.0928	0	
2.7713	-4.91414	2.25292	0	
2.7720	-4.3062	-0.488132	0	
2.7727	-4.00223	-1.72724	0	
2.7733	-4.3062	-1.42685	0	
2.7740	-3.3943	-1.42685	0	
2.7747	-3.69827	-1.12646	0	
2.7753	-6.44664	-0.788521	0	
2.7760	-5.8387	-1.42685	0	
2.7767	-2.16577	-1.72724	0	
2.7773	-1.55783	-0.788521	0	
2.7780	-2.16577	-0.488132	0	
2.7787	0.265971	-0.187743	0	
2.7793	1.49451	0.413035	0	
2.7800	2.10244	1.65214	0	
2.7807	3.01434	3.45447	0	
2.7813	2.71037	3.15408	0	
2.7820	1.49451	1.01381	0	
2.7827	2.71037	-0.488132	0	
2.7833	4.24288	-2.32801	0	
2.7840	4.85081	-3.86751	0	
2.7847	4.85081	-3.22918	0	
2.7853	4.24288	-2.92879	0	
2.7860	3.92624	-5.66984	0	
2.7867	3.92624	-9.95039	0	
2.7873	4.85081	-13.6302	0	
2.7880	5.15478	-13.9305	0	
2.7887	6.06668	-11.7903	0	
2.7893	6.67461	-12.391	0	
2.7900	5.45874	-10.5512	0	
2.7907	4.24288	-4.76868	0	
2.7913	4.85081	-3.56712	0	
2.7920	3.92624	-3.22918	0	
2.7927	2.40641	2.25292	0	
2.7933	6.37065	1.35175	0	
2.7940	10.3349	-7.50973	0	
2.7947	9.42298	-9.95039	0	
2.7953	8.81505	-6.90895	0	
2.7960	10.3349	-6.00778	0	
2.7967	8.51108	-5.06906	0	
2.7973	6.67461	-5.06906	0	
2.7980	7.29521	-7.81011	0	
2.7987	6.97858	-8.1105	0	
2.7993	6.97858	-5.66984	0	
2.8000	8.51108	-3.56712	0	
2.8007	6.67461	-1.72724	0	
2.8013	3.01434	0.413035	0	
2.8020	2.10244	-0.187743	0	
2.8027	2.10244	-1.72724	0	
2.8033	0.265971	-0.488132	0	
2.8040	-0.949897	2.8537	0	
2.8047	-0.949897	4.0928	0	
2.8053	-0.0379959	4.99397	0	
2.8060	2.40641	6.53346	0	
2.8067	2.10244	4.99397	0	
2.8073	-0.949897	3.15408	0	
2.8080	-0.64593	3.15408	0	
2.8087	-0.64593	0.413035	0	
2.8093	-5.52207	-2.32801	0	
2.8100	-6.14267	-0.187743	0	
2.8107	0.265971	0.413035	0	
2.8113	2.10244	-4.1679	0	
2.8120	-0.64593	-4.1679	0	
2.8127	-0.341963	0.112646	0	
2.8133	0.265971	1.35175	0	
2.8140	-3.3943	1.65214	0	
2.8147	-5.2181	2.55331	0	
2.8153	-1.55783	2.25292	0	
2.8160	1.19054	1.95253	0	
2.8167	-0.64593	0.713424	0	
2.8173	-1.25386	-2.92879	0	
2.8180	1.19054	-2.32801	0	
2.8187	2.10244	2.25292	0	
2.8193	-0.341963	2.25292	0	
2.8200	-1.25386	-0.488132	0	
2.8207	-1.25386	0.413035	0	
2.8213	-2.16577	3.15408	0	
2.8220	-1.8618	4.99397	0	
2.8227	0.569938	6.83385	0	
2.8233	3.31831	6.53346	0	
2.8240	3.62228	2.25292	0	
2.8247	3.01434	-2.32801	0	
2.8253	3.01434	-2.32801	0	
2.8260	3.92624	-0.488132	0	
2.8267	3.92624	-1.12646	0	
2.8273	1.19054	-2.32801	0	
2.8280	-2.4824	-2.32801	0	
2.8287	-3.09033	-0.187743	0	
2.8293	-0.949897	0.413035	0	
2.8300	0.886571	-2.32801	0	
2.8307	2.10244	-2.32801	0	
2.8313	1.49451	-0.788521	0	
2.8320	-0.64593	-2.92879	0	
2.8327	-0.64593	-4.46829	0	
2.8333	-0.64593	-3.22918	0	
2.8340	-2.78637	-3.86751	0	
2.8347	-3.3943	-3.56712	0	
2.8353	-1.55783	-1.42685	0	
2.8360	-1.25386	-1.42685	0	
2.8367	-3.69827	-0.488132	0	
2.8373	-6.14267	0.713424	0	
2.8380	-4.3062	-0.488132	0	
2.8387	-0.64593	-0.187743	0	
2.8393	-2.16577	2.25292	0	
2.8400	-6.14267	0.112646	0	
2.8407	-5.52207	-2.6284	0	
2.8413	-3.3943	-2.02763	0	
2.8420	-4.00223	-2.92879	0	
2.8427	-3.69827	-4.46829	0	
2.8433	-4.00223	-3.22918	0	
2.8440	-7.05457	-2.92879	0	
2.8447	-6.7506	-3.22918	0	
2.8453	-3.3943	-2.02763	0	
2.8460	-3.3943	-3.22918	0	
2.8467	-4.3062	-6.90895	0	
2.8473	-1.8618	-7.20934	0	
2.8480	-2.16577	-3.56712	0	
2.8487	-6.14267	-2.02763	0	
2.8493	-7.96647	-3.86751	0	
2.8500	-6.7506	-5.36945	0	
2.8507	-5.52207	-4.1679	0	
2.8513	-5.2181	-2.6284	0	
2.8520	-4.3062	-3.22918	0	
2.8527	-4.00223	-4.76868	0	
2.8533	-4.3062	-6.00778	0	
2.8540	-3.3943	-7.81011	0	
2.8547	-2.16577	-5.66984	0	
2.8553	-3.09033	-0.488132	0	
2.8560	-4.91414	-0.488132	0	
2.8567	-5.8387	-4.1679	0	
2.8573	-5.52207	-1.12646	0	
2.8580	-3.3943	4.39319	0	
2.8587	0.886571	4.69358	0	
2.8593	3.01434	1.35175	0	
2.8600	0.886571	-0.187743	0	
2.8607	-2.16577	1.95253	0	
2.8613	-3.3943	4.99397	0	
2.8620	-1.8618	4.99397	0	
2.8627	-1.55783	1.35175	0	
2.8633	-4.00223	0.112646	0	
2.8640	-2.4824	3.15408	0	
2.8647	2.71037	6.83385	0	
2.8653	1.79847	7.43463	0	
2.8660	-3.09033	7.13424	0	
2.8667	-1.8618	8.03541	0	
2.8673	-0.64593	6.83385	0	
2.8680	-5.2181	4.0928	0	
2.8687	-7.96647	2.55331	0	
2.8693	-5.2181	-0.488132	0	
2.8700	-3.3943	-5.06906	0	
2.8707	-3.3943	-3.56712	0	
2.8713	-3.09033	1.01381	0	
2.8720	-2.4824	1.65214	0	
2.8727	-1.55783	1.35175	0	
2.8733	-0.64593	1.65214	0	
2.8740	0.265971	0.112646	0	
2.8747	-0.0379959	-0.788521	0	
2.8753	-0.64593	0.713424	0	
2.8760	-0.341963	2.25292	0	
2.8767	-2.4824	1.65214	0	
2.8773	-6.14267	1.35175	0	
2.8780	-4.3062	1.35175	0	
2.8787	-1.25386	0.413035	0	
2.8793	-4.61017	-0.488132	0	
2.8800	-6.7506	0.112646	0	
2.8807	-3.69827	-0.187743	0	
2.8813	-2.16577	-1.42685	0	
2.8820	-1.25386	-0.788521	0	
2.8827	-0.341963	-1.12646	0	
2.8833	-3.09033	-4.76868	0	
2.8840	-4.61017	-7.81011	0	
2.8847	-0.949897	-2.92879	0	
2.8853	1.49451	4.39319	0	
2.8860	0.265971	5.89513	0	
2.8867	-1.55783	2.25292	0	
2.8873	-2.78637	1.95253	0	
2.8880	-1.55783	1.65214	0	
2.8887	1.19054	-3.86751	0	
2.8893	0.265971	-7.50973	0	
2.8900	-1.25386	-4.46829	0	
2.8907	1.19054	-1.72724	0	
2.8913	2.10244	-1.42685	0	
2.8920	1.79847	1.35175	0	
2.8927	3.92624	2.8537	0	
2.8933	3.31831	-2.32801	0	
2.8940	-1.25386	-9.04922	0	
2.8947	-0.949897	-10.5512	0	
2.8953	2.10244	-9.65	0	
2.8960	0.569938	-9.95039	0	
2.8967	0.886571	-8.1105	0	
2.8973	5.76271	-4.1679	0	
2.8980	6.97858	-3.22918	0	
2.8987	3.01434	-5.36945	0	
2.8993	-0.0379959	-5.06906	0	
2.9000	-0.64593	-3.22918	0	
2.9007	-0.64593	-4.1679	0	
2.9013	-0.64593	-6.90895	0	
2.9020	-0.0379959	-6.00778	0	
2.9027	2.71037	-2.6284	0	
2.9033	3.92624	-1.12646	0	
2.9040	1.49451	-1.72724	0	
2.9047	2.40641	-0.788521	0	
2.9053	6.67461	-0.488132	0	
2.9060	5.45874	-3.56712	0	
2.9067	2.40641	-5.06906	0	
2.9073	4.54684	-2.32801	0	
2.9080	7.29521	-2.02763	0	
2.9087	7.59918	-2.92879	0	
2.9093	7.59918	-0.187743	0	
2.9100	6.37065	1.35175	0	
2.9107	4.54684	-1.42685	0	
2.9113	4.85081	-1.42685	0	
2.9120	6.37065	0.413035	0	
2.9127	6.67461	0.413035	0	
2.9133	5.76271	0.713424	0	
2.9140	3.92624	3.45447	0	
2.9147	2.71037	3.79241	0	
2.9153	3.31831	4.0928	0	
2.9160	2.10244	7.73502	0	
2.9167	-0.0379959	8.97412	0	
2.9173	1.79847	4.69358	0	
2.9180	4.85081	3.15408	0	
2.9187	3.31831	5.59475	0	
2.9193	0.886571	5.59475	0	
2.9200	2.10244	4.69358	0	
2.9207	2.40641	5.89513	0	
2.9213	-0.64593	7.43463	0	
2.9220	-2.78637	6.53346	0	
2.9227	-2.4824	4.39319	0	
2.9233	-2.4824	5.29436	0	
2.9240	-2.78637	7.73502	0	
2.9247	-2.4824	6.83385	0	
2.9253	-1.55783	4.99397	0	
2.9260	-2.4824	5.59475	0	
2.9267	-4.3062	6.53346	0	
2.9273	-3.3943	3.45447	0	
2.9280	-0.64593	-1.72724	0	
2.9287	-0.64593	-5.06906	0	
2.9293	-2.16577	-4.76868	0	
2.9300	-1.25386	-2.32801	0	
2.9307	-1.55783	-0.187743	0	
2.9313	-4.61017	0.413035	0	
2.9320	-3.3943	-2.6284	0	
2.9327	0.569938	-4.1679	0	
2.9333	1.19054	-2.32801	0	
2.9340	0.886571	-2.32801	0	
2.9347	1.19054	-5.36945	0	
2.9353	-0.64593	-5.06906	0	
2.9360	-2.4824	-3.22918	0	
2.9367	-0.64593	-5.06906	0	
2.9373	-1.55783	-7.81011	0	
2.9380	-4.3062	-7.20934	0	
2.9387	-4.00223	-5.06906	0	
2.9393	-2.16577	-5.06906	0	
2.9400	-1.55783	-7.50973	0	
2.9407	-2.16577	-9.34961	0	
2.9413	-2.16577	-7.81011	0	
2.9420	-0.949897	-4.1679	0	
2.9427	-0.64593	-1.12646	0	
2.9433	-1.8618	0.413035	0	
2.9440	-3.09033	1.35175	0	
