0.0007	1.54037	0.080217	0	
0.0013	-3.95664	0.681844	0	
0.0020	-2.41627	3.12846	0	
0.0027	1.54037	3.42928	0	
0.0033	0.936304	2.20597	0	
0.0040	-0.906101	1.90515	0	
0.0047	-2.74851	1.60434	0	
0.0053	-4.25867	2.50678	0	
0.0060	-3.95664	5.25421	0	
0.0067	-3.35257	5.57508	0	
0.0073	-4.86274	4.35177	0	
0.0080	-4.25867	3.42928	0	
0.0087	-1.51017	1.60434	0	
0.0093	-0.906101	-0.541465	0	
0.0100	-1.20813	-0.240651	0	
0.0107	0.936304	1.60434	0	
0.0113	5.19498	0.681844	0	
0.0120	8.24552	-2.96803	0	
0.0127	7.94348	-4.81302	0	
0.0133	4.89295	-4.81302	0	
0.0140	2.44647	-3.89052	0	
0.0147	0.634271	-5.71546	0	
0.0153	-1.20813	-9.08457	0	
0.0160	-4.86274	-8.46289	0	
0.0167	-10.3598	-2.96803	0	
0.0173	-11.9001	1.90515	0	
0.0180	-8.21532	2.20597	0	
0.0187	-5.79905	1.90515	0	
0.0193	-7.30921	1.90515	0	
0.0200	-6.70515	0.681844	0	
0.0207	-4.86274	1.60434	0	
0.0213	-5.79905	4.9534	0	
0.0220	-7.00718	4.65259	0	
0.0227	-4.56071	2.82765	0	
0.0233	-0.302034	4.35177	0	
0.0240	1.23834	3.42928	0	
0.0247	2.14444	0.982658	0	
0.0253	3.98684	2.50678	0	
0.0260	5.19498	4.05096	0	
0.0267	4.89295	2.82765	0	
0.0273	3.68481	4.35177	0	
0.0280	3.05054	5.57508	0	
0.0287	4.28888	3.12846	0	
0.0293	3.68481	2.50678	0	
0.0300	0.634271	4.05096	0	
0.0307	-1.51017	2.20597	0	
0.0313	-1.51017	0.080217	0	
0.0320	-3.05054	-0.240651	0	
0.0327	-3.65461	-1.14309	0	
0.0333	-2.11424	-2.66721	0	
0.0340	-3.05054	-3.89052	0	
0.0347	-2.11424	-3.58971	0	
0.0353	2.44647	-0.541465	0	
0.0360	2.44647	-1.14309	0	
0.0367	-2.41627	-3.58971	0	
0.0373	-1.20813	-2.66721	0	
0.0380	3.05054	-3.2889	0	
0.0387	3.38278	-4.51221	0	
0.0393	3.05054	-1.76477	0	
0.0400	4.59091	-1.76477	0	
0.0407	3.38278	-5.41465	0	
0.0413	-0.906101	-3.89052	0	
0.0420	-2.41627	-2.06559	0	
0.0427	0.634271	-2.96803	0	
0.0433	3.38278	-0.240651	0	
0.0440	2.44647	4.65259	0	
0.0447	2.44647	3.73009	0	
0.0453	3.38278	1.30353	0	
0.0460	0.936304	1.30353	0	
0.0467	-4.25867	1.60434	0	
0.0473	-5.79905	2.82765	0	
0.0480	-7.61125	3.42928	0	
0.0487	-12.8062	2.50678	0	
0.0493	-14.0144	1.60434	0	
0.0500	-10.3598	-0.842278	0	
0.0507	-5.79905	-2.96803	0	
0.0513	-1.51017	-2.06559	0	
0.0520	1.54037	-1.14309	0	
0.0527	2.44647	-2.3664	0	
0.0533	4.89295	-3.58971	0	
0.0540	6.10108	-3.89052	0	
0.0547	2.44647	-3.2889	0	
0.0553	0	-2.96803	0	
0.0560	3.98684	-2.96803	0	
0.0567	7.33942	-2.06559	0	
0.0573	5.19498	-1.76477	0	
0.0580	2.14444	-2.66721	0	
0.0587	0.634271	-1.44391	0	
0.0593	0.634271	0.982658	0	
0.0600	0.634271	0.982658	0	
0.0607	-0.302034	1.60434	0	
0.0613	-2.11424	5.25421	0	
0.0620	-6.70515	7.0992	0	
0.0627	-9.15162	4.65259	0	
0.0633	-4.56071	0.381031	0	
0.0640	-0.906101	-1.14309	0	
0.0647	-3.05054	0.381031	0	
0.0653	-1.20813	-1.14309	0	
0.0660	3.98684	-4.19134	0	
0.0667	2.44647	-2.66721	0	
0.0673	0	-1.44391	0	
0.0680	4.59091	-4.19134	0	
0.0687	8.24552	-3.89052	0	
0.0693	7.03738	-0.842278	0	
0.0700	7.64145	-2.96803	0	
0.0707	7.94348	-4.51221	0	
0.0713	3.38278	-1.76477	0	
0.0720	0.302034	-0.842278	0	
0.0727	2.44647	-2.66721	0	
0.0733	4.28888	-3.58971	0	
0.0740	4.28888	-4.51221	0	
0.0747	4.28888	-4.81302	0	
0.0753	4.28888	-3.89052	0	
0.0760	4.28888	-3.89052	0	
0.0767	6.10108	-3.89052	0	
0.0773	7.03738	-1.14309	0	
0.0780	7.94348	-0.240651	0	
0.0787	9.15162	-1.76477	0	
0.0793	7.03738	-2.96803	0	
0.0800	4.89295	-2.06559	0	
0.0807	7.03738	1.60434	0	
0.0813	6.43332	3.42928	0	
0.0820	2.44647	2.20597	0	
0.0827	0.634271	0.982658	0	
0.0833	-0.302034	3.42928	0	
0.0840	-2.74851	4.65259	0	
0.0847	-2.74851	2.20597	0	
0.0853	-4.86274	-0.240651	0	
0.0860	-9.45365	0.681844	0	
0.0867	-9.45365	2.50678	0	
0.0873	-7.61125	2.50678	0	
0.0880	-8.21532	1.60434	0	
0.0887	-5.79905	0.681844	0	
0.0893	-2.11424	1.90515	0	
0.0900	-1.20813	3.42928	0	
0.0907	-1.20813	2.50678	0	
0.0913	-1.20813	0.681844	0	
0.0920	-0.906101	0.080217	0	
0.0927	0	0.080217	0	
0.0933	-1.20813	0.681844	0	
0.0940	-3.95664	0.080217	0	
0.0947	-5.79905	-3.2889	0	
0.0953	-6.40311	-2.96803	0	
0.0960	-7.30921	0.681844	0	
0.0967	-6.70515	-2.06559	0	
0.0973	-4.86274	-6.03633	0	
0.0980	-2.41627	-4.19134	0	
0.0987	-0.604067	-3.58971	0	
0.0993	-0.302034	-5.11383	0	
0.1000	1.23834	-3.2889	0	
0.1007	2.44647	0.681844	0	
0.1013	-0.302034	0.982658	0	
0.1020	-3.95664	0.982658	0	
0.1027	-4.86274	1.90515	0	
0.1033	-3.95664	0.381031	0	
0.1040	-3.65461	-0.541465	0	
0.1047	-3.35257	2.50678	0	
0.1053	-3.05054	4.35177	0	
0.1060	-3.05054	1.90515	0	
0.1067	-1.51017	0.681844	0	
0.1073	-0.302034	4.9534	0	
0.1080	0.634271	7.40002	0	
0.1087	1.84241	4.35177	0	
0.1093	1.84241	2.50678	0	
0.1100	0.634271	3.73009	0	
0.1107	2.44647	2.20597	0	
0.1113	5.49701	-0.541465	0	
0.1120	4.59091	-2.06559	0	
0.1127	0.936304	-4.51221	0	
0.1133	0.634271	-5.71546	0	
0.1140	0.302034	-2.66721	0	
0.1147	-0.302034	-1.14309	0	
0.1153	2.44647	-3.58971	0	
0.1160	4.28888	-3.58971	0	
0.1167	1.54037	-2.06559	0	
0.1173	0.302034	-2.96803	0	
0.1180	1.84241	-3.58971	0	
0.1187	0.634271	-1.76477	0	
0.1193	-2.74851	1.30353	0	
0.1200	-3.35257	1.60434	0	
0.1207	-1.20813	-0.842278	0	
0.1213	0.936304	-1.14309	0	
0.1220	0	1.60434	0	
0.1227	-2.74851	2.82765	0	
0.1233	-2.74851	3.12846	0	
0.1240	-2.41627	4.35177	0	
0.1247	-3.65461	2.50678	0	
0.1253	-3.35257	-0.541465	0	
0.1260	-3.05054	-0.240651	0	
0.1267	-3.95664	-0.541465	0	
0.1273	-3.65461	-2.66721	0	
0.1280	-1.20813	0.080217	0	
0.1287	0.634271	2.50678	0	
0.1293	-0.302034	-1.14309	0	
0.1300	-1.51017	-4.81302	0	
0.1307	0.634271	-3.89052	0	
0.1313	2.44647	-3.58971	0	
0.1320	0.936304	-4.81302	0	
0.1327	0.634271	-5.71546	0	
0.1333	3.98684	-4.51221	0	
0.1340	4.59091	-3.58971	0	
0.1347	4.28888	-4.81302	0	
0.1353	5.49701	-5.41465	0	
0.1360	2.74851	-2.96803	0	
0.1367	-0.906101	-2.66721	0	
0.1373	-1.20813	-4.81302	0	
0.1380	-2.41627	-5.11383	0	
0.1387	-4.56071	-3.58971	0	
0.1393	-3.35257	-3.58971	0	
0.1400	-3.35257	-3.2889	0	
0.1407	-4.56071	-0.541465	0	
0.1413	-2.11424	2.50678	0	
0.1420	-0.604067	2.82765	0	
0.1427	-1.51017	2.50678	0	
0.1433	-3.05054	4.9534	0	
0.1440	-5.79905	6.17671	0	
0.1447	-5.79905	2.82765	0	
0.1453	-1.51017	1.30353	0	
0.1460	-0.604067	3.73009	0	
0.1467	-3.05054	3.73009	0	
0.1473	-0.302034	1.30353	0	
0.1480	2.44647	0.681844	0	
0.1487	0.936304	0.681844	0	
0.1493	1.54037	0.681844	0	
0.1500	3.05054	0.080217	0	
0.1507	0.634271	-0.842278	0	
0.1513	-1.20813	-1.14309	0	
0.1520	0.936304	-0.541465	0	
0.1527	2.44647	-1.44391	0	
0.1533	1.54037	-3.2889	0	
0.1540	1.54037	-2.06559	0	
0.1547	1.54037	-0.240651	0	
0.1553	-0.302034	-0.541465	0	
0.1560	-3.95664	-0.240651	0	
0.1567	-4.86274	0.080217	0	
0.1573	-1.8122	-2.96803	0	
0.1580	0.634271	-4.51221	0	
0.1587	1.23834	-2.96803	0	
0.1593	1.54037	-2.96803	0	
0.1600	0	-2.66721	0	
0.1607	-2.11424	1.60434	0	
0.1613	-3.35257	3.12846	0	
0.1620	-2.11424	0.381031	0	
0.1627	2.44647	-1.14309	0	
0.1633	6.10108	-0.240651	0	
0.1640	3.38278	0.381031	0	
0.1647	0.634271	0.681844	0	
0.1653	2.44647	-0.842278	0	
0.1660	3.98684	-0.541465	0	
0.1667	3.38278	1.60434	0	
0.1673	2.44647	0.681844	0	
0.1680	1.23834	-1.44391	0	
0.1687	-1.20813	-1.14309	0	
0.1693	-2.11424	-0.842278	0	
0.1700	-0.906101	-0.842278	0	
0.1707	1.54037	-0.240651	0	
0.1713	2.74851	-1.76477	0	
0.1720	1.54037	-4.81302	0	
0.1727	1.23834	-6.63796	0	
0.1733	2.74851	-5.41465	0	
0.1740	3.38278	-3.89052	0	
0.1747	3.38278	-4.81302	0	
0.1753	2.74851	-7.56045	0	
0.1760	2.44647	-6.93877	0	
0.1767	3.38278	-4.81302	0	
0.1773	4.59091	-5.11383	0	
0.1780	3.98684	-4.81302	0	
0.1787	2.44647	-2.96803	0	
0.1793	0.634271	-1.44391	0	
0.1800	0.302034	-1.14309	0	
0.1807	1.54037	-1.44391	0	
0.1813	0.634271	-0.541465	0	
0.1820	-2.11424	0.381031	0	
0.1827	-1.20813	-0.240651	0	
0.1833	-1.20813	0.381031	0	
0.1840	-4.86274	1.30353	0	
0.1847	-6.70515	0.080217	0	
0.1853	-4.25867	-0.541465	0	
0.1860	-3.35257	1.30353	0	
0.1867	-3.65461	0.681844	0	
0.1873	-2.74851	-1.14309	0	
0.1880	-1.20813	-1.14309	0	
0.1887	1.54037	-1.76477	0	
0.1893	2.44647	-2.3664	0	
0.1900	0	-0.541465	0	
0.1907	-2.11424	-0.240651	0	
0.1913	0.634271	-0.541465	0	
0.1920	1.54037	0.381031	0	
0.1927	-0.906101	-1.76477	0	
0.1933	0.302034	-4.81302	0	
0.1940	2.44647	-3.58971	0	
0.1947	1.84241	-1.76477	0	
0.1953	0.302034	-2.66721	0	
0.1960	0.302034	-2.3664	0	
0.1967	0.936304	-2.06559	0	
0.1973	1.84241	-3.89052	0	
0.1980	2.44647	-2.06559	0	
0.1987	2.14444	1.30353	0	
0.1993	0	1.60434	0	
0.2000	-2.41627	1.30353	0	
0.2007	-3.95664	2.82765	0	
0.2013	-5.79905	2.82765	0	
0.2020	-6.70515	3.12846	0	
0.2027	-4.86274	4.65259	0	
0.2033	-3.95664	4.35177	0	
0.2040	-4.86274	4.65259	0	
0.2047	-3.95664	7.70083	0	
0.2053	-1.20813	7.0992	0	
0.2060	-1.8122	4.65259	0	
0.2067	-2.41627	7.0992	0	
0.2073	-0.302034	8.62333	0	
0.2080	1.23834	4.65259	0	
0.2087	0.302034	4.05096	0	
0.2093	0.634271	5.57508	0	
0.2100	0	4.35177	0	
0.2107	-1.20813	4.05096	0	
0.2113	1.84241	4.65259	0	
0.2120	6.10108	3.12846	0	
0.2127	6.43332	2.50678	0	
0.2133	4.28888	2.20597	0	
0.2140	4.28888	-0.240651	0	
0.2147	3.68481	-0.240651	0	
0.2153	2.74851	2.20597	0	
0.2160	3.05054	0.982658	0	
0.2167	2.14444	-1.14309	0	
0.2173	1.54037	-0.240651	0	
0.2180	4.59091	0.681844	0	
0.2187	6.73535	0.681844	0	
0.2193	4.89295	0.681844	0	
0.2200	3.98684	-0.240651	0	
0.2207	4.89295	-1.14309	0	
0.2213	4.59091	0.381031	0	
0.2220	3.38278	2.50678	0	
0.2227	2.14444	4.35177	0	
0.2233	0.634271	5.25421	0	
0.2240	-1.20813	4.65259	0	
0.2247	-3.35257	4.35177	0	
0.2253	-4.56071	4.35177	0	
0.2260	-7.61125	4.65259	0	
0.2267	-12.8062	6.47752	0	
0.2273	-11.2659	8.92414	0	
0.2280	-4.86274	5.87589	0	
0.2287	-4.56071	0.080217	0	
0.2293	-7.91328	0.080217	0	
0.2300	-8.84959	4.05096	0	
0.2307	-9.75569	5.25421	0	
0.2313	-8.21532	3.12846	0	
0.2320	-2.74851	0.982658	0	
0.2327	0.936304	-1.76477	0	
0.2333	4.89295	-4.19134	0	
0.2340	10.0879	-4.81302	0	
0.2347	7.03738	-3.89052	0	
0.2353	0.634271	-3.89052	0	
0.2360	4.28888	-3.89052	0	
0.2367	9.48386	-2.96803	0	
0.2373	6.43332	-0.541465	0	
0.2380	3.98684	1.30353	0	
0.2387	3.98684	0.681844	0	
0.2393	0.634271	-1.76477	0	
0.2400	-3.05054	-3.2889	0	
0.2407	-2.41627	-2.96803	0	
0.2413	-1.51017	0.681844	0	
0.2420	-0.604067	2.50678	0	
0.2427	0	1.60434	0	
0.2433	-3.05054	3.12846	0	
0.2440	-6.70515	6.17671	0	
0.2447	-7.00718	4.05096	0	
0.2453	-6.10108	1.60434	0	
0.2460	-6.70515	5.25421	0	
0.2467	-5.79905	5.57508	0	
0.2473	-3.95664	3.12846	0	
0.2480	-5.46681	4.65259	0	
0.2487	-6.70515	4.65259	0	
0.2493	-1.8122	0.080217	0	
0.2500	2.44647	-0.541465	0	
0.2507	3.05054	0.982658	0	
0.2513	3.38278	0.080217	0	
0.2520	3.38278	-0.240651	0	
0.2527	0.936304	-2.3664	0	
0.2533	0.302034	-7.56045	0	
0.2540	1.54037	-9.38539	0	
0.2547	0.936304	-6.93877	0	
0.2553	1.54037	-6.03633	0	
0.2560	3.05054	-4.81302	0	
0.2567	0.302034	-2.06559	0	
0.2573	-3.95664	-2.06559	0	
0.2580	-3.95664	-3.89052	0	
0.2587	-1.8122	-3.89052	0	
0.2593	-1.20813	-3.58971	0	
0.2600	-0.906101	-3.89052	0	
0.2607	0	-4.19134	0	
0.2613	0.302034	-2.66721	0	
0.2620	-0.302034	1.60434	0	
0.2627	0	2.50678	0	
0.2633	-0.302034	-0.842278	0	
0.2640	-1.20813	-2.06559	0	
0.2647	-0.302034	-2.06559	0	
0.2653	1.84241	-3.89052	0	
0.2660	-0.302034	-3.2889	0	
0.2667	-2.11424	-0.240651	0	
0.2673	-0.604067	-2.06559	0	
0.2680	-1.20813	-3.89052	0	
0.2687	-3.05054	-2.06559	0	
0.2693	-1.20813	-2.66721	0	
0.2700	0.634271	-4.81302	0	
0.2707	1.23834	-3.58971	0	
0.2713	2.44647	-3.89052	0	
0.2720	3.38278	-5.71546	0	
0.2727	2.44647	-4.19134	0	
0.2733	3.38278	-3.89052	0	
0.2740	5.49701	-5.71546	0	
0.2747	7.64145	-3.89052	0	
0.2753	7.03738	-2.3664	0	
0.2760	5.19498	-5.11383	0	
0.2767	4.59091	-6.93877	0	
0.2773	2.44647	-5.11383	0	
0.2780	0.302034	-4.81302	0	
0.2787	1.54037	-6.63796	0	
0.2793	1.84241	-7.56045	0	
0.2800	-0.906101	-4.51221	0	
0.2807	-1.20813	-1.14309	0	
0.2813	-1.8122	-1.44391	0	
0.2820	-4.86274	-2.66721	0	
0.2827	-3.95664	-0.842278	0	
0.2833	-1.8122	-0.842278	0	
0.2840	-3.95664	-2.96803	0	
0.2847	-5.79905	-0.240651	0	
0.2853	-6.10108	4.05096	0	
0.2860	-5.79905	2.20597	0	
0.2867	-2.74851	-0.240651	0	
0.2873	-0.302034	1.60434	0	
0.2880	-3.35257	3.12846	0	
0.2887	-3.05054	0.982658	0	
0.2893	1.54037	0.681844	0	
0.2900	2.14444	2.20597	0	
0.2907	1.54037	0.681844	0	
0.2913	2.74851	-0.842278	0	
0.2920	2.14444	0.982658	0	
0.2927	0.634271	1.60434	0	
0.2933	0.936304	-0.541465	0	
0.2940	-0.906101	-1.14309	0	
0.2947	-2.11424	-1.14309	0	
0.2953	0.302034	-2.06559	0	
0.2960	-0.302034	-2.3664	0	
0.2967	-2.74851	-1.14309	0	
0.2973	-2.41627	-1.76477	0	
0.2980	-1.20813	-2.06559	0	
0.2987	-0.302034	-0.541465	0	
0.2993	2.44647	1.60434	0	
0.3000	3.68481	2.50678	0	
0.3007	2.44647	1.60434	0	
0.3013	2.44647	0.381031	0	
0.3020	3.38278	1.60434	0	
0.3027	3.38278	4.35177	0	
0.3033	4.59091	4.35177	0	
0.3040	4.89295	3.42928	0	
0.3047	1.84241	3.73009	0	
0.3053	1.23834	4.9534	0	
0.3060	4.28888	4.35177	0	
0.3067	5.19498	1.60434	0	
0.3073	3.98684	0.681844	0	
0.3080	5.49701	1.90515	0	
0.3087	7.94348	1.30353	0	
0.3093	7.03738	-1.14309	0	
0.3100	5.49701	-1.44391	0	
0.3107	7.94348	0.681844	0	
0.3113	10.692	1.60434	0	
0.3120	9.78589	0.080217	0	
0.3127	9.78589	-3.2889	0	
0.3133	12.5344	-4.81302	0	
0.3140	10.692	-3.58971	0	
0.3147	4.28888	-3.58971	0	
0.3153	0.302034	-5.41465	0	
0.3160	-1.20813	-3.89052	0	
0.3167	-3.65461	-1.76477	0	
0.3173	-3.05054	-2.66721	0	
0.3180	-0.906101	-2.66721	0	
0.3187	-3.35257	-0.240651	0	
0.3193	-7.00718	0.080217	0	
0.3200	-5.79905	-0.240651	0	
0.3207	-5.79905	1.60434	0	
0.3213	-9.45365	1.60434	0	
0.3220	-10.3598	0.381031	0	
0.3227	-8.54755	0.681844	0	
0.3233	-9.15162	3.42928	0	
0.3240	-10.3598	4.65259	0	
0.3247	-9.45365	2.50678	0	
0.3253	-7.30921	-0.842278	0	
0.3260	-6.40311	-0.240651	0	
0.3267	-6.10108	2.82765	0	
0.3273	-4.86274	3.42928	0	
0.3280	-2.41627	0.982658	0	
0.3287	-0.906101	0.080217	0	
0.3293	-2.11424	2.50678	0	
0.3300	-1.51017	3.42928	0	
0.3307	1.84241	-0.541465	0	
0.3313	2.44647	-2.66721	0	
0.3320	0	-0.842278	0	
0.3327	0.634271	-0.240651	0	
0.3333	0.634271	-2.06559	0	
0.3340	-0.604067	-1.44391	0	
0.3347	2.74851	-0.541465	0	
0.3353	7.64145	-2.06559	0	
0.3360	6.10108	-3.2889	0	
0.3367	5.19498	-3.89052	0	
0.3373	6.73535	-5.41465	0	
0.3380	3.38278	-4.81302	0	
0.3387	-1.20813	-1.14309	0	
0.3393	0	1.30353	0	
0.3400	2.44647	0.681844	0	
0.3407	0.936304	0.681844	0	
0.3413	-2.11424	1.60434	0	
0.3420	-5.79905	3.12846	0	
0.3427	-8.54755	4.9534	0	
0.3433	-8.84959	4.35177	0	
0.3440	-9.45365	3.42928	0	
0.3447	-9.75569	4.9534	0	
0.3453	-7.61125	5.87589	0	
0.3460	-3.95664	4.35177	0	
0.3467	-2.11424	4.35177	0	
0.3473	-2.11424	2.82765	0	
0.3480	-3.05054	0.681844	0	
0.3487	-2.11424	1.60434	0	
0.3493	0.634271	2.50678	0	
0.3500	-2.11424	3.12846	0	
0.3507	-6.70515	3.42928	0	
0.3513	-6.40311	0.080217	0	
0.3520	-3.95664	-2.3664	0	
0.3527	-3.05054	0.080217	0	
0.3533	-0.302034	-1.44391	0	
0.3540	1.54037	-5.71546	0	
0.3547	0.634271	-2.96803	0	
0.3553	1.84241	-0.240651	0	
0.3560	4.28888	-3.89052	0	
0.3567	4.28888	-4.81302	0	
0.3573	4.28888	-3.2889	0	
0.3580	5.19498	-3.89052	0	
0.3587	4.89295	-2.96803	0	
0.3593	2.44647	0.381031	0	
0.3600	-1.20813	0.381031	0	
0.3607	-4.86274	0.080217	0	
0.3613	-6.70515	1.60434	0	
0.3620	-7.30921	2.50678	0	
0.3627	-7.61125	3.12846	0	
0.3633	-5.16478	4.35177	0	
0.3640	-2.74851	4.35177	0	
0.3647	-4.86274	3.42928	0	
0.3653	-8.84959	2.20597	0	
0.3660	-9.45365	0.681844	0	
0.3667	-5.79905	0.681844	0	
0.3673	-3.35257	1.90515	0	
0.3680	-3.95664	1.60434	0	
0.3687	-3.05054	2.50678	0	
0.3693	-1.20813	4.9534	0	
0.3700	-0.906101	2.50678	0	
0.3707	0.634271	-2.96803	0	
0.3713	2.44647	-2.06559	0	
0.3720	2.14444	0.982658	0	
0.3727	4.28888	-1.76477	0	
0.3733	7.94348	-5.71546	0	
0.3740	5.79905	-4.19134	0	
0.3747	3.68481	-2.3664	0	
0.3753	6.10108	-2.3664	0	
0.3760	5.19498	-2.66721	0	
0.3767	2.44647	-4.19134	0	
0.3773	0.634271	-6.33714	0	
0.3780	-2.41627	-3.89052	0	
0.3787	-5.46681	-0.541465	0	
0.3793	-3.95664	-0.541465	0	
0.3800	-2.11424	-0.541465	0	
0.3807	-3.95664	0.982658	0	
0.3813	-2.74851	1.60434	0	
0.3820	1.54037	1.60434	0	
0.3827	2.74851	2.20597	0	
0.3833	0.634271	2.82765	0	
0.3840	-2.11424	2.82765	0	
0.3847	-3.35257	1.90515	0	
0.3853	-2.41627	2.50678	0	
0.3860	-1.51017	4.9534	0	
0.3867	-0.302034	4.65259	0	
0.3873	0.936304	1.60434	0	
0.3880	0.936304	-1.14309	0	
0.3887	-0.906101	0.080217	0	
0.3893	-2.11424	3.12846	0	
0.3900	-0.906101	2.50678	0	
0.3907	1.84241	-1.44391	0	
0.3913	3.68481	-2.06559	0	
0.3920	2.74851	-0.541465	0	
0.3927	2.44647	-2.06559	0	
0.3933	4.28888	-2.96803	0	
0.3940	6.73535	-2.06559	0	
0.3947	6.10108	-2.3664	0	
0.3953	5.19498	-3.58971	0	
0.3960	6.10108	-3.2889	0	
0.3967	7.94348	-2.66721	0	
0.3973	7.94348	-2.66721	0	
0.3980	5.19498	-2.66721	0	
0.3987	2.74851	-2.06559	0	
0.3993	2.14444	-1.14309	0	
0.4000	1.84241	-1.44391	0	
0.4007	1.84241	-1.44391	0	
0.4013	0.302034	0.982658	0	
0.4020	-2.11424	2.20597	0	
0.4027	-2.11424	0.681844	0	
0.4033	-3.05054	0.080217	0	
0.4040	-7.30921	0.681844	0	
0.4047	-7.61125	-0.240651	0	
0.4053	-4.86274	0.681844	0	
0.4060	-4.86274	2.50678	0	
0.4067	-3.05054	1.60434	0	
0.4073	2.14444	0.681844	0	
0.4080	1.84241	2.50678	0	
0.4087	0	3.12846	0	
0.4093	1.84241	0.681844	0	
0.4100	1.23834	-1.76477	0	
0.4107	-2.11424	-4.19134	0	
0.4113	-0.604067	-5.71546	0	
0.4120	3.38278	-4.81302	0	
0.4127	4.89295	-5.71546	0	
0.4133	3.38278	-8.46289	0	
0.4140	2.14444	-7.25964	0	
0.4147	2.44647	-2.96803	0	
0.4153	2.44647	-2.06559	0	
0.4160	1.54037	-5.71546	0	
0.4167	2.44647	-6.63796	0	
0.4173	5.19498	-3.89052	0	
0.4180	2.74851	-2.3664	0	
0.4187	0.302034	-1.44391	0	
0.4193	1.84241	-1.14309	0	
0.4200	2.44647	-1.14309	0	
0.4207	0.302034	-0.240651	0	
0.4213	-1.51017	1.30353	0	
0.4220	-3.95664	0.681844	0	
0.4227	-5.46681	1.60434	0	
0.4233	-3.95664	3.73009	0	
0.4240	-3.05054	2.82765	0	
0.4247	-3.35257	0.982658	0	
0.4253	-4.25867	1.60434	0	
0.4260	-5.79905	0.381031	0	
0.4267	-5.46681	-1.14309	0	
0.4273	-1.8122	0.080217	0	
0.4280	0	-0.541465	0	
0.4287	-0.604067	-3.89052	0	
0.4293	0.634271	-3.89052	0	
0.4300	3.38278	-2.3664	0	
0.4307	4.28888	-2.06559	0	
0.4313	3.98684	-1.14309	0	
0.4320	3.38278	-2.66721	0	
0.4327	3.68481	-5.41465	0	
0.4333	4.28888	-5.41465	0	
0.4340	4.89295	-3.89052	0	
0.4347	3.98684	-3.2889	0	
0.4353	2.44647	-2.3664	0	
0.4360	2.44647	-2.96803	0	
0.4367	3.38278	-4.81302	0	
0.4373	3.68481	-3.89052	0	
0.4380	3.05054	-2.06559	0	
0.4387	2.44647	-2.96803	0	
0.4393	1.54037	-1.14309	0	
0.4400	0.634271	1.60434	0	
0.4407	-0.302034	-0.541465	0	
0.4413	-0.906101	-2.06559	0	
0.4420	-1.8122	0.381031	0	
0.4427	-4.25867	1.30353	0	
0.4433	-7.61125	1.90515	0	
0.4440	-8.54755	4.35177	0	
0.4447	-7.30921	3.42928	0	
0.4453	-4.25867	1.60434	0	
0.4460	-2.11424	2.20597	0	
0.4467	-2.74851	3.42928	0	
0.4473	-4.25867	4.05096	0	
0.4480	-4.86274	2.20597	0	
0.4487	-5.16478	-0.240651	0	
0.4493	-5.79905	1.30353	0	
0.4500	-7.00718	4.9534	0	
0.4507	-6.70515	3.73009	0	
0.4513	-3.35257	0.681844	0	
0.4520	0	-0.240651	0	
0.4527	2.14444	-0.240651	0	
0.4533	3.68481	-1.14309	0	
0.4540	4.59091	-2.06559	0	
0.4547	3.68481	-1.14309	0	
0.4553	2.74851	1.90515	0	
0.4560	2.44647	2.20597	0	
0.4567	0.302034	0.080217	0	
0.4573	-1.20813	-0.541465	0	
0.4580	-0.604067	-2.06559	0	
0.4587	-0.906101	-4.51221	0	
0.4593	-4.86274	-3.89052	0	
0.4600	-9.15162	-2.3664	0	
0.4607	-9.45365	-2.3664	0	
0.4613	-9.45365	-0.240651	0	
0.4620	-11.2659	0.982658	0	
0.4627	-11.2659	0.681844	0	
0.4633	-9.45365	2.50678	0	
0.4640	-7.61125	3.42928	0	
0.4647	-4.86274	1.90515	0	
0.4653	-0.906101	4.05096	0	
0.4660	1.54037	5.25421	0	
0.4667	2.44647	2.20597	0	
0.4673	4.28888	2.50678	0	
0.4680	6.73535	3.42928	0	
0.4687	7.03738	-0.240651	0	
0.4693	6.43332	-1.76477	0	
0.4700	6.43332	-0.240651	0	
0.4707	6.10108	-1.44391	0	
0.4713	4.28888	-3.58971	0	
0.4720	3.98684	-2.96803	0	
0.4727	5.49701	-2.66721	0	
0.4733	6.10108	-3.89052	0	
0.4740	5.19498	-2.96803	0	
0.4747	3.38278	-0.240651	0	
0.4753	3.38278	0.080217	0	
0.4760	4.28888	-4.51221	0	
0.4767	2.44647	-6.63796	0	
0.4773	2.14444	-2.66721	0	
0.4780	5.49701	0.681844	0	
0.4787	4.89295	0.982658	0	
0.4793	0.634271	1.60434	0	
0.4800	0.634271	1.60434	0	
0.4807	2.14444	0.681844	0	
0.4813	0.936304	0.681844	0	
0.4820	-0.302034	0.681844	0	
0.4827	-2.74851	0.982658	0	
0.4833	-3.95664	1.60434	0	
0.4840	-1.20813	-0.240651	0	
0.4847	0	-1.14309	0	
0.4853	-0.906101	0.982658	0	
0.4860	-1.51017	1.30353	0	
0.4867	-4.86274	-0.240651	0	
0.4873	-7.30921	0.080217	0	
0.4880	-6.40311	0.381031	0	
0.4887	-5.16478	0.381031	0	
0.4893	-2.11424	1.90515	0	
0.4900	3.38278	3.42928	0	
0.4907	4.59091	2.50678	0	
0.4913	2.14444	1.90515	0	
0.4920	1.54037	1.60434	0	
0.4927	2.44647	-1.14309	0	
0.4933	4.59091	-2.96803	0	
0.4940	4.89295	-1.76477	0	
0.4947	1.23834	-1.14309	0	
0.4953	-0.302034	-2.3664	0	
0.4960	2.44647	-2.3664	0	
0.4967	2.44647	-2.96803	0	
0.4973	0.634271	-5.11383	0	
0.4980	-0.906101	-4.51221	0	
0.4987	-3.35257	-1.76477	0	
0.4993	-5.79905	-2.06559	0	
0.5000	-4.86274	-2.96803	0	
0.5007	-1.8122	-2.06559	0	
0.5013	-2.11424	-0.842278	0	
0.5020	-4.86274	0.080217	0	
0.5027	-3.35257	2.50678	0	
0.5033	-0.906101	4.35177	0	
0.5040	-4.56071	3.42928	0	
0.5047	-7.61125	1.60434	0	
0.5053	-3.05054	0.982658	0	
0.5060	-0.302034	2.50678	0	
0.5067	-2.11424	3.12846	0	
0.5073	-3.05054	1.60434	0	
0.5080	-2.11424	-0.240651	0	
0.5087	-2.41627	0.381031	0	
0.5093	-2.74851	0.681844	0	
0.5100	-3.35257	0.080217	0	
0.5107	-4.86274	0.681844	0	
0.5113	-3.05054	2.20597	0	
0.5120	0.634271	0.681844	0	
0.5127	0.936304	-0.240651	0	
0.5133	-0.906101	0.681844	0	
0.5140	2.14444	-2.06559	0	
0.5147	7.03738	-4.81302	0	
0.5153	5.19498	-1.44391	0	
0.5160	-0.302034	-0.541465	0	
0.5167	-1.51017	-3.89052	0	
0.5173	-0.906101	-2.06559	0	
0.5180	-0.906101	1.60434	0	
0.5187	0.936304	-0.842278	0	
0.5193	0.302034	-1.14309	0	
0.5200	-2.41627	1.30353	0	
0.5207	-1.20813	0.681844	0	
0.5213	-0.906101	2.50678	0	
0.5220	-5.16478	4.65259	0	
0.5227	-6.70515	0.681844	0	
0.5233	-3.05054	-2.96803	0	
0.5240	-0.604067	-0.541465	0	
0.5247	0.634271	0.982658	0	
0.5253	2.44647	2.50678	0	
0.5260	4.89295	3.73009	0	
0.5267	6.10108	2.20597	0	
0.5273	5.79905	2.50678	0	
0.5280	4.28888	4.35177	0	
0.5287	4.59091	-0.240651	0	
0.5293	4.28888	-2.66721	0	
0.5300	2.74851	2.50678	0	
0.5307	3.38278	2.50678	0	
0.5313	2.44647	-2.06559	0	
0.5320	-1.20813	-1.76477	0	
0.5327	-0.302034	-1.14309	0	
0.5333	4.28888	-2.06559	0	
0.5340	3.38278	-1.76477	0	
0.5347	1.84241	-2.66721	0	
0.5353	3.38278	-3.89052	0	
0.5360	5.19498	-1.44391	0	
0.5367	3.68481	-1.14309	0	
0.5373	2.44647	-4.81302	0	
0.5380	2.44647	-3.58971	0	
0.5387	1.54037	1.60434	0	
0.5393	-1.51017	1.90515	0	
0.5400	-2.11424	-1.14309	0	
0.5407	-0.302034	-1.76477	0	
0.5413	-2.11424	0.381031	0	
0.5420	-5.79905	1.60434	0	
0.5427	-7.91328	1.60434	0	
0.5433	-9.45365	2.20597	0	
0.5440	-9.15162	1.60434	0	
0.5447	-3.95664	1.30353	0	
0.5453	0.634271	2.20597	0	
0.5460	-1.51017	2.50678	0	
0.5467	-4.56071	0.681844	0	
0.5473	-2.74851	-0.240651	0	
0.5480	-0.604067	-1.14309	0	
0.5487	-1.20813	-2.96803	0	
0.5493	0.634271	-0.842278	0	
0.5500	5.19498	2.20597	0	
0.5507	5.19498	0.381031	0	
0.5513	2.44647	-3.2889	0	
0.5520	5.79905	-5.71546	0	
0.5527	10.0879	-6.03633	0	
0.5533	7.94348	-3.58971	0	
0.5540	5.79905	-0.541465	0	
0.5547	5.79905	-2.96803	0	
0.5553	4.89295	-4.81302	0	
0.5560	5.19498	-1.76477	0	
0.5567	5.79905	-0.240651	0	
0.5573	4.28888	-1.76477	0	
0.5580	3.68481	-2.06559	0	
0.5587	4.28888	-1.44391	0	
0.5593	2.44647	-2.06559	0	
0.5600	0.634271	-2.96803	0	
0.5607	0	-3.58971	0	
0.5613	0.634271	-1.76477	0	
0.5620	3.05054	0.681844	0	
0.5627	2.44647	1.60434	0	
0.5633	-3.05054	2.82765	0	
0.5640	-5.79905	4.65259	0	
0.5647	-4.56071	3.42928	0	
0.5653	-1.8122	1.30353	0	
0.5660	0.302034	1.30353	0	
0.5667	-0.604067	0.080217	0	
0.5673	-2.11424	-1.44391	0	
0.5680	-2.41627	-0.240651	0	
0.5687	-3.95664	0.381031	0	
0.5693	-6.70515	-0.842278	0	
0.5700	-7.30921	0.080217	0	
0.5707	-6.70515	2.20597	0	
0.5713	-5.79905	1.30353	0	
0.5720	-2.41627	-0.240651	0	
0.5727	-1.51017	-1.14309	0	
0.5733	-3.05054	-2.96803	0	
0.5740	-4.86274	-6.63796	0	
0.5747	-5.46681	-5.71546	0	
0.5753	-4.86274	-2.66721	0	
0.5760	-5.16478	-2.66721	0	
0.5767	-4.56071	-3.89052	0	
0.5773	-0.604067	-2.66721	0	
0.5780	0.302034	-1.44391	0	
0.5787	-2.74851	-2.96803	0	
0.5793	0.302034	-4.19134	0	
0.5800	4.28888	-3.58971	0	
0.5807	0	-2.06559	0	
0.5813	-3.05054	-1.14309	0	
0.5820	-0.302034	-1.14309	0	
0.5827	-0.302034	-2.06559	0	
0.5833	-0.302034	-2.06559	0	
0.5840	3.38278	0.080217	0	
0.5847	4.28888	1.90515	0	
0.5853	3.38278	0.982658	0	
0.5860	4.89295	-1.44391	0	
0.5867	3.05054	-0.240651	0	
0.5873	1.54037	4.65259	0	
0.5880	3.38278	5.87589	0	
0.5887	0.936304	2.50678	0	
0.5893	-4.86274	0.381031	0	
0.5900	-7.61125	0.080217	0	
0.5907	-9.45365	-0.541465	0	
0.5913	-10.0577	-0.541465	0	
0.5920	-5.79905	-0.842278	0	
0.5927	-2.74851	-2.3664	0	
0.5933	-1.20813	-2.3664	0	
0.5940	2.44647	-1.14309	0	
0.5947	3.38278	-0.541465	0	
0.5953	-0.604067	0.080217	0	
0.5960	-0.906101	0.681844	0	
0.5967	2.44647	-1.76477	0	
0.5973	0.634271	-2.66721	0	
0.5980	-2.74851	-0.240651	0	
0.5987	-2.11424	-0.541465	0	
0.5993	0.634271	-2.66721	0	
0.6000	-0.302034	-0.240651	0	
0.6007	-2.74851	1.60434	0	
0.6013	-0.604067	-0.842278	0	
0.6020	2.44647	0.080217	0	
0.6027	-0.302034	3.12846	0	
0.6033	-3.95664	2.50678	0	
0.6040	-3.05054	2.82765	0	
0.6047	-2.11424	4.65259	0	
0.6053	-2.41627	2.82765	0	
0.6060	-0.302034	-0.240651	0	
0.6067	2.44647	0.080217	0	
0.6073	2.44647	0.681844	0	
0.6080	0.936304	1.30353	0	
0.6087	-1.20813	2.20597	0	
0.6093	0.302034	2.20597	0	
0.6100	4.28888	1.60434	0	
0.6107	4.89295	1.60434	0	
0.6113	1.54037	0.381031	0	
0.6120	0.634271	-1.14309	0	
0.6127	1.84241	-1.14309	0	
0.6133	2.14444	-2.96803	0	
0.6140	3.38278	-3.89052	0	
0.6147	4.59091	-2.96803	0	
0.6153	2.44647	-3.89052	0	
0.6160	1.54037	-2.96803	0	
0.6167	3.38278	1.90515	0	
0.6173	4.89295	1.30353	0	
0.6180	3.98684	-3.2889	0	
0.6187	2.44647	-2.66721	0	
0.6193	2.44647	0.080217	0	
0.6200	3.68481	-0.541465	0	
0.6207	4.28888	0.381031	0	
0.6213	2.44647	2.50678	0	
0.6220	0.936304	1.60434	0	
0.6227	0	0.681844	0	
0.6233	-3.05054	3.12846	0	
0.6240	-5.46681	4.05096	0	
0.6247	-6.70515	1.90515	0	
0.6253	-10.3598	3.12846	0	
0.6260	-12.5042	6.17671	0	
0.6267	-9.75569	4.65259	0	
0.6273	-6.10108	0.982658	0	
0.6280	-3.95664	0.681844	0	
0.6287	-3.95664	3.42928	0	
0.6293	-6.40311	4.65259	0	
0.6300	-4.86274	2.50678	0	
0.6307	0.302034	-0.541465	0	
0.6313	2.44647	0.681844	0	
0.6320	1.54037	2.20597	0	
0.6327	2.44647	-0.240651	0	
0.6333	4.28888	-2.06559	0	
0.6340	6.43332	-0.541465	0	
0.6347	7.94348	-1.14309	0	
0.6353	7.03738	-2.06559	0	
0.6360	5.79905	-0.541465	0	
0.6367	5.49701	-0.240651	0	
0.6373	4.28888	-1.14309	0	
0.6380	2.14444	-1.76477	0	
0.6387	-0.302034	-0.842278	0	
0.6393	-1.8122	0.681844	0	
0.6400	-1.8122	1.30353	0	
0.6407	-0.906101	0.681844	0	
0.6413	-2.11424	0.681844	0	
0.6420	-4.25867	1.60434	0	
0.6427	-3.65461	1.30353	0	
0.6433	-0.604067	0.681844	0	
0.6440	0.634271	1.60434	0	
0.6447	-0.604067	2.50678	0	
0.6453	-1.20813	2.50678	0	
0.6460	1.23834	2.20597	0	
0.6467	3.68481	2.82765	0	
0.6473	3.68481	3.73009	0	
0.6480	1.84241	2.50678	0	
0.6487	0.634271	-0.240651	0	
0.6493	2.14444	-1.14309	0	
0.6500	3.38278	0.681844	0	
0.6507	2.44647	0.681844	0	
0.6513	1.54037	-0.541465	0	
0.6520	2.44647	-0.541465	0	
0.6527	1.84241	-1.14309	0	
0.6533	-0.302034	-2.96803	0	
0.6540	-0.906101	-3.89052	0	
0.6547	-1.20813	-3.58971	0	
0.6553	-2.11424	-2.06559	0	
0.6560	-3.35257	0.080217	0	
0.6567	-4.86274	1.30353	0	
0.6573	-3.95664	-1.14309	0	
0.6580	-1.20813	-2.96803	0	
0.6587	-1.51017	-1.14309	0	
0.6593	-2.11424	2.50678	0	
0.6600	1.54037	2.20597	0	
0.6607	1.54037	-0.240651	0	
0.6613	-2.41627	0.381031	0	
0.6620	-3.05054	2.50678	0	
0.6627	-3.05054	1.90515	0	
0.6633	-5.79905	1.30353	0	
0.6640	-5.46681	1.60434	0	
0.6647	-3.05054	0.681844	0	
0.6653	-3.35257	-0.240651	0	
0.6660	-3.05054	0.681844	0	
0.6667	-0.302034	1.60434	0	
0.6673	1.54037	0.381031	0	
0.6680	2.14444	-1.44391	0	
0.6687	2.44647	-1.44391	0	
0.6693	1.54037	-2.06559	0	
0.6700	0.634271	-3.89052	0	
0.6707	1.54037	-3.89052	0	
0.6713	2.44647	-0.240651	0	
0.6720	1.23834	-0.240651	0	
0.6727	0	-4.81302	0	
0.6733	1.23834	-6.63796	0	
0.6740	1.54037	-4.81302	0	
0.6747	1.54037	-6.03633	0	
0.6753	3.05054	-8.16208	0	
0.6760	1.54037	-6.03633	0	
0.6767	-2.41627	-3.89052	0	
0.6773	-1.20813	-4.19134	0	
0.6780	2.74851	-3.58971	0	
0.6787	0.936304	-1.14309	0	
0.6793	-2.11424	0.381031	0	
0.6800	-0.302034	-0.240651	0	
0.6807	1.54037	-2.06559	0	
0.6813	0.634271	-2.06559	0	
0.6820	-2.11424	0.982658	0	
0.6827	-6.10108	3.42928	0	
0.6833	-8.21532	2.20597	0	
0.6840	-6.70515	0.982658	0	
0.6847	-5.46681	1.90515	0	
0.6853	-6.10108	1.90515	0	
0.6860	-6.40311	1.90515	0	
0.6867	-4.56071	2.50678	0	
0.6873	-3.05054	1.30353	0	
0.6880	-3.95664	0.681844	0	
0.6887	-4.86274	1.60434	0	
0.6893	-3.95664	-0.240651	0	
0.6900	-2.41627	-2.96803	0	
0.6907	-0.906101	-2.3664	0	
0.6913	1.54037	-2.66721	0	
0.6920	3.68481	-5.11383	0	
0.6927	5.19498	-3.89052	0	
0.6933	7.33942	-1.14309	0	
0.6940	9.48386	-2.3664	0	
0.6947	8.84959	-3.89052	0	
0.6953	7.03738	-2.3664	0	
0.6960	5.19498	-0.541465	0	
0.6967	5.49701	-1.14309	0	
0.6973	7.33942	-2.96803	0	
0.6980	7.03738	-2.96803	0	
0.6987	4.28888	-2.06559	0	
0.6993	3.38278	-2.06559	0	
0.7000	3.38278	-0.842278	0	
0.7007	2.44647	0.982658	0	
0.7013	0.634271	0.381031	0	
0.7020	0.634271	-0.842278	0	
0.7027	-0.604067	-0.240651	0	
0.7033	-3.95664	0.681844	0	
0.7040	-4.56071	1.60434	0	
0.7047	-1.8122	1.60434	0	
0.7053	0.634271	0.681844	0	
0.7060	0.634271	0.982658	0	
0.7067	-0.302034	3.12846	0	
0.7073	-2.41627	3.12846	0	
0.7080	-4.56071	2.20597	0	
0.7087	-4.25867	2.50678	0	
0.7093	-2.74851	1.30353	0	
0.7100	-2.74851	-0.842278	0	
0.7107	-4.56071	0.381031	0	
0.7113	-4.56071	0.681844	0	
0.7120	-2.11424	-1.76477	0	
0.7127	-0.302034	-2.06559	0	
0.7133	1.23834	-0.240651	0	
0.7140	1.84241	-0.842278	0	
0.7147	0.634271	-1.44391	0	
0.7153	0	-0.240651	0	
0.7160	1.23834	0.381031	0	
0.7167	1.54037	-0.541465	0	
0.7173	2.14444	-0.240651	0	
0.7180	1.84241	0.982658	0	
0.7187	-1.20813	2.20597	0	
0.7193	-2.11424	2.20597	0	
0.7200	0.634271	0.681844	0	
0.7207	-0.906101	0.681844	0	
0.7213	-4.86274	0.982658	0	
0.7220	-4.86274	0.681844	0	
0.7227	-4.86274	-0.240651	0	
0.7233	-5.16478	0.080217	0	
0.7240	-3.35257	0.681844	0	
0.7247	-3.65461	1.30353	0	
0.7253	-4.25867	2.50678	0	
0.7260	-0.604067	2.50678	0	
0.7267	1.23834	1.90515	0	
0.7273	-0.604067	1.30353	0	
0.7280	-0.906101	1.30353	0	
0.7287	-1.20813	2.82765	0	
0.7293	-1.20813	3.42928	0	
0.7300	1.54037	1.30353	0	
0.7307	3.38278	1.30353	0	
0.7313	4.28888	3.42928	0	
0.7320	4.59091	2.50678	0	
0.7327	3.05054	0.681844	0	
0.7333	2.44647	0.080217	0	
0.7340	5.19498	-2.96803	0	
0.7347	6.10108	-5.71546	0	
0.7353	4.59091	-4.81302	0	
0.7360	4.28888	-3.89052	0	
0.7367	3.38278	-2.96803	0	
0.7373	2.44647	0.080217	0	
0.7380	2.14444	0.381031	0	
0.7387	0.302034	-3.2889	0	
0.7393	0.634271	-3.89052	0	
0.7400	1.54037	-1.44391	0	
0.7407	-2.41627	-0.541465	0	
0.7413	-5.79905	0.681844	0	
0.7420	-2.41627	1.90515	0	
0.7427	-1.20813	0.681844	0	
0.7433	-3.65461	-0.240651	0	
0.7440	-4.86274	1.30353	0	
0.7447	-3.95664	1.60434	0	
0.7453	-2.11424	0.982658	0	
0.7460	-0.302034	0.681844	0	
0.7467	-0.302034	0.681844	0	
0.7473	-0.302034	0.982658	0	
0.7480	0.634271	0.681844	0	
0.7487	-0.302034	-0.541465	0	
0.7493	-1.8122	0.982658	0	
0.7500	-0.604067	2.50678	0	
0.7507	0	0.381031	0	
0.7513	-0.302034	-2.66721	0	
0.7520	0.634271	-3.2889	0	
0.7527	0.936304	-2.06559	0	
0.7533	0	-0.842278	0	
0.7540	0.936304	-2.66721	0	
0.7547	1.54037	-4.19134	0	
0.7553	0.302034	-2.96803	0	
0.7560	-0.302034	-2.3664	0	
0.7567	0	-3.89052	0	
0.7573	0.936304	-4.81302	0	
0.7580	1.84241	-5.11383	0	
0.7587	0.634271	-5.41465	0	
0.7593	0	-3.2889	0	
0.7600	3.38278	-1.76477	0	
0.7607	2.44647	-1.76477	0	
0.7613	-3.05054	1.30353	0	
0.7620	-3.95664	4.35177	0	
0.7627	-2.74851	3.42928	0	
0.7633	-3.95664	2.20597	0	
0.7640	-3.35257	2.50678	0	
0.7647	-1.51017	2.50678	0	
0.7653	-4.86274	1.30353	0	
0.7660	-6.70515	-0.240651	0	
0.7667	-3.35257	-1.14309	0	
0.7673	0.302034	0.080217	0	
0.7680	-0.906101	1.30353	0	
0.7687	-3.35257	0.381031	0	
0.7693	-3.35257	-0.240651	0	
0.7700	-2.74851	0.381031	0	
0.7707	-3.05054	-0.240651	0	
0.7713	-0.302034	-1.14309	0	
0.7720	4.28888	-1.14309	0	
0.7727	5.49701	-2.06559	0	
0.7733	4.89295	-3.89052	0	
0.7740	5.19498	-4.51221	0	
0.7747	3.68481	-3.89052	0	
0.7753	2.14444	-3.58971	0	
0.7760	4.28888	-3.58971	0	
0.7767	5.49701	-1.14309	0	
0.7773	4.28888	-0.240651	0	
0.7780	4.28888	-2.06559	0	
0.7787	4.59091	-1.44391	0	
0.7793	2.74851	0.080217	0	
0.7800	0.634271	-2.66721	0	
0.7807	-0.302034	-3.2889	0	
0.7813	1.54037	2.20597	0	
0.7820	4.59091	4.35177	0	
0.7827	5.19498	1.90515	0	
0.7833	2.44647	3.73009	0	
0.7840	1.54037	6.17671	0	
0.7847	2.14444	5.25421	0	
0.7853	-0.604067	5.25421	0	
0.7860	-3.95664	5.57508	0	
0.7867	-3.95664	3.73009	0	
0.7873	-6.10108	3.42928	0	
0.7880	-8.84959	3.73009	0	
0.7887	-6.70515	3.42928	0	
0.7893	-5.79905	4.9534	0	
0.7900	-8.54755	6.47752	0	
0.7907	-6.10108	3.42928	0	
0.7913	-1.20813	0.982658	0	
0.7920	0.302034	1.60434	0	
0.7927	2.14444	-0.842278	0	
0.7933	2.74851	-4.51221	0	
0.7940	3.05054	-3.58971	0	
0.7947	6.10108	-0.240651	0	
0.7953	6.10108	0.681844	0	
0.7960	2.74851	-1.14309	0	
0.7967	4.28888	-2.06559	0	
0.7973	6.43332	-1.14309	0	
0.7980	3.98684	-0.842278	0	
0.7987	2.44647	-4.19134	0	
0.7993	3.05054	-4.51221	0	
0.8000	1.54037	0.381031	0	
0.8007	0.936304	1.30353	0	
0.8013	0.634271	-1.14309	0	
0.8020	-1.20813	-0.842278	0	
0.8027	0.936304	2.20597	0	
0.8033	2.74851	4.05096	0	
0.8040	0	4.35177	0	
0.8047	-0.906101	3.12846	0	
0.8053	1.54037	2.82765	0	
0.8060	-1.20813	3.42928	0	
0.8067	-3.65461	1.90515	0	
0.8073	-0.302034	1.60434	0	
0.8080	0.634271	2.50678	0	
0.8087	-1.20813	1.60434	0	
0.8093	2.14444	1.60434	0	
0.8100	4.28888	3.12846	0	
0.8107	1.54037	1.90515	0	
0.8113	1.54037	-0.240651	0	
0.8120	4.28888	0.681844	0	
0.8127	4.28888	0.080217	0	
0.8133	4.28888	-3.58971	0	
0.8140	6.10108	-2.96803	0	
0.8147	4.59091	-0.240651	0	
0.8153	2.14444	-1.44391	0	
0.8160	1.54037	-2.96803	0	
0.8167	-0.604067	-1.14309	0	
0.8173	-4.86274	-1.44391	0	
0.8180	-7.00718	-3.89052	0	
0.8187	-8.54755	-4.51221	0	
0.8193	-12.2022	-3.89052	0	
0.8200	-11.2659	-2.96803	0	
0.8207	-4.86274	-2.06559	0	
0.8213	-2.41627	-3.58971	0	
0.8220	-4.25867	-4.81302	0	
0.8227	-3.65461	-1.44391	0	
0.8233	-3.05054	1.30353	0	
0.8240	-4.56071	0.681844	0	
0.8247	-3.95664	0.080217	0	
0.8253	-6.10108	-0.541465	0	
0.8260	-9.15162	-1.14309	0	
0.8267	-3.95664	0.681844	0	
0.8273	2.14444	2.82765	0	
0.8280	0.936304	2.20597	0	
0.8287	1.84241	2.20597	0	
0.8293	6.43332	1.60434	0	
0.8300	5.19498	-0.842278	0	
0.8307	2.44647	-1.14309	0	
0.8313	5.19498	-2.06559	0	
0.8320	8.84959	-4.19134	0	
0.8327	10.692	-4.81302	0	
0.8333	10.39	-6.63796	0	
0.8340	8.54755	-8.78376	0	
0.8347	6.10108	-6.33714	0	
0.8353	4.28888	-4.19134	0	
0.8360	3.98684	-5.71546	0	
0.8367	4.28888	-4.51221	0	
0.8373	2.74851	-2.96803	0	
0.8380	0.936304	-3.89052	0	
0.8387	0.936304	-2.06559	0	
0.8393	1.23834	2.82765	0	
0.8400	0	1.60434	0	
0.8407	0.302034	-2.66721	0	
0.8413	1.84241	-2.06559	0	
0.8420	2.14444	0.381031	0	
0.8427	-0.302034	1.90515	0	
0.8433	-5.46681	2.50678	0	
0.8440	-10.3598	1.60434	0	
0.8447	-10.6618	0.681844	0	
0.8453	-7.91328	3.12846	0	
0.8460	-7.00718	5.87589	0	
0.8467	-6.10108	3.73009	0	
0.8473	-2.41627	0.982658	0	
0.8480	-0.604067	1.60434	0	
0.8487	-1.8122	1.30353	0	
0.8493	-2.11424	-2.66721	0	
0.8500	-3.35257	-3.2889	0	
0.8507	-6.40311	-0.842278	0	
0.8513	-4.56071	-0.240651	0	
0.8520	1.54037	-0.541465	0	
0.8527	3.38278	-0.240651	0	
0.8533	3.05054	-2.66721	0	
0.8540	3.68481	-4.51221	0	
0.8547	3.38278	-2.06559	0	
0.8553	1.54037	-1.14309	0	
0.8560	1.84241	-4.51221	0	
0.8567	3.05054	-6.33714	0	
0.8573	2.44647	-4.19134	0	
0.8580	1.23834	-2.96803	0	
0.8587	0.634271	-2.06559	0	
0.8593	-1.51017	-1.76477	0	
0.8600	-5.79905	-3.2889	0	
0.8607	-7.61125	-2.66721	0	
0.8613	-6.40311	0.681844	0	
0.8620	-5.16478	1.60434	0	
0.8627	-6.40311	0.982658	0	
0.8633	-8.54755	2.82765	0	
0.8640	-9.75569	3.42928	0	
0.8647	-9.15162	1.60434	0	
0.8653	-5.79905	1.60434	0	
0.8660	-2.41627	1.90515	0	
0.8667	-3.05054	0.080217	0	
0.8673	-4.25867	0.381031	0	
0.8680	-1.20813	0.681844	0	
0.8687	2.44647	-1.44391	0	
0.8693	0	-2.06559	0	
0.8700	-2.41627	-1.14309	0	
0.8707	0	-3.89052	0	
0.8713	3.05054	-5.11383	0	
0.8720	3.68481	-2.3664	0	
0.8727	3.05054	-1.14309	0	
0.8733	1.54037	-2.3664	0	
0.8740	1.54037	-2.66721	0	
0.8747	2.74851	-0.541465	0	
0.8753	4.28888	-0.240651	0	
0.8760	5.79905	-2.66721	0	
0.8767	5.79905	-4.19134	0	
0.8773	2.44647	-3.89052	0	
0.8780	-1.20813	-3.89052	0	
0.8787	-0.302034	-3.58971	0	
0.8793	2.44647	-1.14309	0	
0.8800	4.28888	0.381031	0	
0.8807	1.84241	-0.842278	0	
0.8813	-2.41627	-0.240651	0	
0.8820	-3.05054	1.30353	0	
0.8827	-0.302034	2.50678	0	
0.8833	0.634271	4.35177	0	
0.8840	-1.8122	3.42928	0	
0.8847	-3.05054	0.982658	0	
0.8853	-2.11424	1.60434	0	
0.8860	-1.51017	3.12846	0	
0.8867	-2.11424	0.982658	0	
0.8873	-3.95664	-0.240651	0	
0.8880	-4.86274	0.681844	0	
0.8887	-3.95664	0.681844	0	
0.8893	-1.20813	0.681844	0	
0.8900	0.634271	1.90515	0	
0.8907	0.634271	0.681844	0	
0.8913	0.302034	-1.14309	0	
0.8920	0	-2.06559	0	
0.8927	0	-2.06559	0	
0.8933	0.936304	-3.58971	0	
0.8940	2.44647	-4.51221	0	
0.8947	5.19498	-3.89052	0	
0.8953	7.64145	-1.76477	0	
0.8960	6.43332	-1.14309	0	
0.8967	1.54037	-2.06559	0	
0.8973	-3.05054	-2.3664	0	
0.8980	-2.11424	-3.89052	0	
0.8987	1.54037	-4.81302	0	
0.8993	3.38278	-2.3664	0	
0.9000	2.44647	-0.240651	0	
0.9007	1.54037	0.080217	0	
0.9013	1.54037	0.381031	0	
0.9020	1.54037	0.681844	0	
0.9027	-0.302034	0.080217	0	
0.9033	-3.05054	0.381031	0	
0.9040	-2.74851	0.080217	0	
0.9047	-0.302034	0.681844	0	
0.9053	-1.20813	2.50678	0	
0.9060	-3.95664	1.90515	0	
0.9067	-5.46681	-0.541465	0	
0.9073	-5.79905	-0.240651	0	
0.9080	-4.56071	0.681844	0	
0.9087	-1.51017	-0.240651	0	
0.9093	-3.05054	-1.14309	0	
0.9100	-7.61125	-0.240651	0	
0.9107	-6.70515	-0.842278	0	
0.9113	-2.11424	-0.541465	0	
0.9120	1.23834	-0.240651	0	
0.9127	3.38278	-1.44391	0	
0.9133	4.28888	-2.06559	0	
0.9140	2.44647	-1.44391	0	
0.9147	0	-1.76477	0	
0.9153	-1.20813	-0.842278	0	
0.9160	-0.302034	0.681844	0	
0.9167	2.14444	0.681844	0	
0.9173	2.44647	0.080217	0	
0.9180	0.936304	0.982658	0	
0.9187	-0.302034	1.60434	0	
0.9193	-0.302034	1.60434	0	
0.9200	-0.604067	0.982658	0	
0.9207	-2.41627	0.381031	0	
0.9213	-4.86274	0.982658	0	
0.9220	-4.25867	1.90515	0	
0.9227	-2.74851	2.50678	0	
0.9233	-3.65461	3.73009	0	
0.9240	-5.16478	4.65259	0	
0.9247	-5.79905	3.42928	0	
0.9253	-4.86274	3.73009	0	
0.9260	-0.302034	6.17671	0	
0.9267	4.28888	6.47752	0	
0.9273	1.54037	4.35177	0	
0.9280	-3.95664	2.20597	0	
0.9287	-3.05054	2.82765	0	
0.9293	0	4.35177	0	
0.9300	0.634271	2.50678	0	
0.9307	1.23834	0.681844	0	
0.9313	1.54037	0.681844	0	
0.9320	2.44647	-2.06559	0	
0.9327	5.19498	-3.2889	0	
0.9333	7.94348	-0.240651	0	
0.9340	9.78589	0.681844	0	
0.9347	9.78589	-2.06559	0	
0.9353	7.94348	-1.44391	0	
0.9360	5.79905	-0.240651	0	
0.9367	3.98684	-1.44391	0	
0.9373	1.54037	-2.06559	0	
0.9380	2.44647	-2.06559	0	
0.9387	5.49701	-1.44391	0	
0.9393	4.28888	0.381031	0	
0.9400	-1.20813	0.681844	0	
0.9407	-3.95664	0.982658	0	
0.9413	-2.41627	3.12846	0	
0.9420	-2.11424	4.35177	0	
0.9427	-4.86274	3.73009	0	
0.9433	-8.21532	4.65259	0	
0.9440	-8.54755	6.17671	0	
0.9447	-6.40311	6.17671	0	
0.9453	-3.35257	4.9534	0	
0.9460	-2.11424	3.12846	0	
0.9467	-2.11424	2.50678	0	
0.9473	-2.41627	2.50678	0	
0.9480	-1.20813	2.20597	0	
0.9487	1.54037	3.12846	0	
0.9493	3.38278	3.73009	0	
0.9500	3.05054	3.42928	0	
0.9507	3.38278	1.90515	0	
0.9513	3.38278	-0.240651	0	
0.9520	2.44647	-0.842278	0	
0.9527	2.44647	1.30353	0	
0.9533	3.38278	1.60434	0	
0.9540	2.74851	-0.240651	0	
0.9547	2.44647	-0.240651	0	
0.9553	1.23834	0.381031	0	
0.9560	-2.11424	0.080217	0	
0.9567	-2.74851	0.080217	0	
0.9573	-2.11424	-1.14309	0	
0.9580	-2.41627	-1.76477	0	
0.9587	-2.11424	-0.541465	0	
0.9593	-3.95664	-0.240651	0	
0.9600	-7.61125	-1.14309	0	
0.9607	-5.79905	-1.76477	0	
0.9613	-1.51017	-1.44391	0	
0.9620	-1.20813	-1.14309	0	
0.9627	-1.51017	0.080217	0	
0.9633	-0.302034	1.30353	0	
0.9640	0.936304	1.60434	0	
0.9647	3.38278	1.60434	0	
0.9653	6.10108	0.681844	0	
0.9660	6.10108	-0.240651	0	
0.9667	6.10108	-0.240651	0	
0.9673	6.43332	-0.240651	0	
0.9680	4.28888	-1.14309	0	
0.9687	2.44647	-2.66721	0	
0.9693	-0.302034	-2.96803	0	
0.9700	-3.35257	-2.96803	0	
0.9707	-6.70515	-3.89052	0	
0.9713	-12.2022	-3.89052	0	
0.9720	-14.3466	-2.3664	0	
0.9727	-8.54755	-1.14309	0	
0.9733	-3.95664	-0.842278	0	
0.9740	-3.95664	-2.96803	0	
0.9747	-1.51017	-4.81302	0	
0.9753	1.54037	-3.89052	0	
0.9760	1.23834	-2.96803	0	
0.9767	2.14444	-2.96803	0	
0.9773	2.44647	-2.06559	0	
0.9780	0	-1.44391	0	
0.9787	0.936304	-2.06559	0	
0.9793	2.44647	-2.06559	0	
0.9800	0.634271	-2.06559	0	
0.9807	-0.906101	-1.14309	0	
0.9813	-1.20813	0.681844	0	
0.9820	-1.51017	1.30353	0	
0.9827	0	1.30353	0	
0.9833	-1.8122	2.20597	0	
0.9840	-7.61125	2.82765	0	
0.9847	-7.61125	2.50678	0	
0.9853	-1.51017	1.60434	0	
0.9860	-0.302034	0.681844	0	
0.9867	-1.20813	2.20597	0	
0.9873	0.634271	2.82765	0	
0.9880	0.302034	-1.44391	0	
0.9887	-1.51017	-2.3664	0	
0.9893	0	2.50678	0	
0.9900	1.23834	2.50678	0	
0.9907	-1.20813	-0.240651	0	
0.9913	-1.20813	-0.842278	0	
0.9920	2.44647	-2.96803	0	
0.9927	4.89295	-4.81302	0	
0.9933	4.28888	-3.89052	0	
0.9940	2.44647	-4.51221	0	
0.9947	0.302034	-5.11383	0	
0.9953	0.634271	-2.3664	0	
0.9960	2.14444	-2.06559	0	
0.9967	0.634271	-5.71546	0	
0.9973	-0.302034	-7.56045	0	
0.9980	1.84241	-6.63796	0	
0.9987	2.44647	-3.89052	0	
0.9993	0.634271	-3.2889	0	
1.0000	1.23834	-3.89052	0	
1.0007	2.44647	-3.89052	0	
1.0013	0.936304	-3.2889	0	
1.0020	-0.302034	-2.06559	0	
1.0027	-0.302034	1.60434	0	
1.0033	-1.8122	3.42928	0	
1.0040	-4.86274	0.080217	0	
1.0047	-5.79905	-0.842278	0	
1.0053	-5.46681	1.90515	0	
1.0060	-3.65461	1.60434	0	
1.0067	-1.20813	-1.14309	0	
1.0073	-1.20813	-1.44391	0	
1.0080	-3.35257	-1.14309	0	
1.0087	-2.74851	-1.76477	0	
1.0093	-0.604067	-1.14309	0	
1.0100	-1.8122	-0.842278	0	
1.0107	-3.05054	-2.06559	0	
1.0113	-0.302034	-3.2889	0	
1.0120	2.44647	-4.51221	0	
1.0127	3.05054	-3.89052	0	
1.0133	3.68481	-4.51221	0	
1.0140	4.28888	-7.25964	0	
1.0147	5.79905	-6.33714	0	
1.0153	7.94348	-2.3664	0	
1.0160	6.73535	-2.06559	0	
1.0167	6.10108	-3.2889	0	
1.0173	8.54755	-1.76477	0	
1.0180	7.03738	-1.14309	0	
1.0187	3.38278	-2.06559	0	
1.0193	4.59091	-0.842278	0	
1.0200	4.89295	-0.240651	0	
1.0207	0.936304	-2.06559	0	
1.0213	-0.302034	-2.66721	0	
1.0220	0.302034	-1.14309	0	
1.0227	-0.604067	-0.240651	0	
1.0233	-0.302034	0.681844	0	
1.0240	-0.906101	2.20597	0	
1.0247	-4.25867	0.982658	0	
1.0253	-4.56071	-1.14309	0	
1.0260	-1.51017	1.30353	0	
1.0267	-1.51017	4.35177	0	
1.0273	-2.11424	3.73009	0	
1.0280	-1.20813	3.42928	0	
1.0287	-0.302034	3.42928	0	
1.0293	0.936304	0.681844	0	
1.0300	2.44647	-1.76477	0	
1.0307	3.98684	-1.44391	0	
1.0313	4.59091	-1.44391	0	
1.0320	5.79905	-2.96803	0	
1.0327	6.73535	-4.19134	0	
1.0333	6.73535	-4.19134	0	
1.0340	5.79905	-2.96803	0	
1.0347	5.19498	-1.44391	0	
1.0353	2.44647	-1.14309	0	
1.0360	-1.8122	-1.76477	0	
1.0367	-1.20813	-0.842278	0	
1.0373	1.54037	1.60434	0	
1.0380	-1.20813	1.90515	0	
1.0387	-1.8122	-1.44391	0	
1.0393	0.634271	-2.66721	0	
1.0400	-1.20813	0.982658	0	
1.0407	-3.35257	2.82765	0	
1.0413	-0.906101	2.20597	0	
1.0420	-3.35257	2.50678	0	
1.0427	-9.15162	2.82765	0	
1.0433	-7.30921	4.05096	0	
1.0440	-4.56071	4.9534	0	
1.0447	-5.79905	3.42928	0	
1.0453	-5.46681	2.50678	0	
1.0460	-3.05054	4.35177	0	
1.0467	-3.35257	4.35177	0	
1.0473	-3.95664	3.73009	0	
1.0480	-3.05054	3.12846	0	
1.0487	-2.41627	1.60434	0	
1.0493	-4.25867	1.60434	0	
1.0500	-5.16478	3.12846	0	
1.0507	-3.95664	0.681844	0	
1.0513	-2.41627	-1.14309	0	
1.0520	0.634271	0.681844	0	
1.0527	5.19498	0.681844	0	
1.0533	7.03738	-2.06559	0	
1.0540	3.38278	-2.06559	0	
1.0547	0.634271	-0.842278	0	
1.0553	-2.11424	-0.240651	0	
1.0560	-5.79905	-0.842278	0	
1.0567	-6.70515	-2.06559	0	
1.0573	-5.79905	-2.66721	0	
1.0580	-4.86274	-1.44391	0	
1.0587	-3.05054	-1.44391	0	
1.0593	-4.25867	-2.06559	0	
1.0600	-8.54755	-1.76477	0	
1.0607	-8.84959	-2.06559	0	
1.0613	-7.91328	-2.96803	0	
1.0620	-10.3598	-0.240651	0	
1.0627	-10.9638	2.50678	0	
1.0633	-9.15162	2.20597	0	
1.0640	-7.91328	2.82765	0	
1.0647	-4.86274	5.57508	0	
1.0653	-1.20813	6.17671	0	
1.0660	-0.906101	4.35177	0	
1.0667	0.936304	3.12846	0	
1.0673	3.38278	2.82765	0	
1.0680	2.44647	1.90515	0	
1.0687	4.28888	-0.240651	0	
1.0693	7.03738	-0.240651	0	
1.0700	4.28888	1.90515	0	
1.0707	1.84241	-0.240651	0	
1.0713	6.10108	-2.96803	0	
1.0720	7.94348	-2.06559	0	
1.0727	6.73535	-2.96803	0	
1.0733	9.15162	-4.19134	0	
1.0740	8.84959	-1.14309	0	
1.0747	5.79905	-0.240651	0	
1.0753	7.33942	-3.2889	0	
1.0760	8.84959	-2.66721	0	
1.0767	5.49701	-1.14309	0	
1.0773	4.59091	-2.66721	0	
1.0780	6.10108	-2.3664	0	
1.0787	4.28888	-1.14309	0	
1.0793	1.23834	-1.14309	0	
1.0800	-0.302034	2.20597	0	
1.0807	-2.11424	4.05096	0	
1.0813	-3.05054	1.90515	0	
1.0820	-1.20813	1.60434	0	
1.0827	-2.11424	3.42928	0	
1.0833	-4.25867	3.73009	0	
1.0840	-3.95664	3.42928	0	
1.0847	-3.05054	3.42928	0	
1.0853	-5.46681	2.82765	0	
1.0860	-7.61125	2.20597	0	
1.0867	-5.46681	2.82765	0	
1.0873	0	4.05096	0	
1.0880	2.14444	2.82765	0	
1.0887	0.634271	0.982658	0	
1.0893	0.302034	2.20597	0	
1.0900	2.44647	3.42928	0	
1.0907	1.84241	1.90515	0	
1.0913	0.634271	0.982658	0	
1.0920	2.44647	-0.240651	0	
1.0927	4.59091	-3.2889	0	
1.0933	2.74851	-2.3664	0	
1.0940	1.23834	0.080217	0	
1.0947	1.23834	-2.06559	0	
1.0953	2.44647	-3.89052	0	
1.0960	5.79905	-2.66721	0	
1.0967	6.10108	-2.96803	0	
1.0973	-0.604067	-3.2889	0	
1.0980	-3.65461	-1.14309	0	
1.0987	-2.11424	-1.14309	0	
1.0993	-5.16478	-3.58971	0	
1.1000	-8.21532	-3.89052	0	
1.1007	-6.70515	-2.3664	0	
1.1013	-5.79905	-1.44391	0	
1.1020	-4.25867	-0.240651	0	
1.1027	-0.302034	2.50678	0	
1.1033	-2.41627	5.25421	0	
1.1040	-6.40311	4.9534	0	
1.1047	-3.65461	1.60434	0	
1.1053	-0.604067	-0.541465	0	
1.1060	0.936304	-0.240651	0	
1.1067	4.28888	0.982658	0	
1.1073	2.14444	3.42928	0	
1.1080	-4.25867	4.05096	0	
1.1087	-5.79905	2.82765	0	
1.1093	-4.86274	3.42928	0	
1.1100	-6.40311	4.35177	0	
1.1107	-5.16478	0.982658	0	
1.1113	-4.25867	-2.96803	0	
1.1120	-5.16478	-2.96803	0	
1.1127	-3.95664	-1.14309	0	
1.1133	-3.95664	-1.44391	0	
1.1140	-5.46681	-2.96803	0	
1.1147	-1.51017	-2.96803	0	
1.1153	0.936304	-0.541465	0	
1.1160	-1.20813	0.080217	0	
1.1167	0.634271	-2.66721	0	
1.1173	4.28888	-2.96803	0	
1.1180	1.54037	0.681844	0	
1.1187	0.302034	0.681844	0	
1.1193	1.54037	-2.66721	0	
1.1200	-1.51017	-2.06559	0	
1.1207	-3.65461	0.681844	0	
1.1213	-2.74851	-0.240651	0	
1.1220	-5.16478	-0.240651	0	
1.1227	-3.95664	2.50678	0	
1.1233	2.44647	2.20597	0	
1.1240	2.74851	-0.541465	0	
1.1247	0.302034	0.982658	0	
1.1253	3.38278	3.42928	0	
1.1260	4.89295	3.42928	0	
1.1267	0	3.42928	0	
1.1273	-4.25867	1.60434	0	
1.1280	-4.56071	-0.842278	0	
1.1287	-1.8122	1.30353	0	
1.1293	0.302034	3.12846	0	
1.1300	-0.906101	-1.14309	0	
1.1307	0.634271	-4.19134	0	
1.1313	6.43332	-3.2889	0	
1.1320	8.84959	-3.89052	0	
1.1327	8.24552	-5.71546	0	
1.1333	8.54755	-4.81302	0	
1.1340	4.59091	-2.06559	0	
1.1347	-0.906101	-0.541465	0	
1.1353	-0.302034	-1.14309	0	
1.1360	2.74851	-2.66721	0	
1.1367	3.38278	-2.06559	0	
1.1373	3.38278	-2.96803	0	
1.1380	3.38278	-6.63796	0	
1.1387	5.79905	-7.25964	0	
1.1393	7.94348	-4.19134	0	
1.1400	5.19498	-3.89052	0	
1.1407	2.44647	-4.19134	0	
1.1413	5.19498	-2.06559	0	
1.1420	5.49701	-1.14309	0	
1.1427	2.44647	-0.842278	0	
1.1433	1.54037	1.30353	0	
1.1440	0.634271	1.60434	0	
1.1447	-2.11424	0.681844	0	
1.1453	-1.20813	1.60434	0	
1.1460	-0.302034	1.60434	0	
1.1467	-2.11424	-1.14309	0	
1.1473	-0.906101	-2.3664	0	
1.1480	2.44647	-2.06559	0	
1.1487	1.84241	-1.14309	0	
1.1493	0.634271	-1.76477	0	
1.1500	0.302034	-3.2889	0	
1.1507	-0.604067	-3.89052	0	
1.1513	0.936304	-3.2889	0	
1.1520	3.38278	-2.66721	0	
1.1527	2.44647	-2.96803	0	
1.1533	0.936304	-3.89052	0	
1.1540	4.28888	-4.19134	0	
1.1547	4.89295	-4.51221	0	
1.1553	0.634271	-5.71546	0	
1.1560	-1.20813	-6.63796	0	
1.1567	1.54037	-4.19134	0	
1.1573	2.44647	-2.96803	0	
1.1580	3.98684	-2.96803	0	
1.1587	6.10108	-0.240651	0	
1.1593	6.43332	1.60434	0	
1.1600	4.59091	-1.76477	0	
1.1607	3.68481	-3.89052	0	
1.1613	3.38278	-0.842278	0	
1.1620	0.936304	1.60434	0	
1.1627	-3.95664	2.50678	0	
1.1633	-7.00718	3.12846	0	
1.1640	-9.75569	3.42928	0	
1.1647	-11.9001	2.82765	0	
1.1653	-9.15162	1.60434	0	
1.1660	-5.16478	1.60434	0	
1.1667	-4.86274	3.42928	0	
1.1673	-5.46681	2.50678	0	
1.1680	-5.79905	0.681844	0	
1.1687	-4.86274	1.30353	0	
1.1693	-2.74851	1.30353	0	
1.1700	-3.05054	1.30353	0	
1.1707	-5.46681	3.42928	0	
1.1713	-1.20813	2.50678	0	
1.1720	4.28888	0.080217	0	
1.1727	2.44647	0.982658	0	
1.1733	0.634271	0.080217	0	
1.1740	4.28888	-4.51221	0	
1.1747	6.10108	-3.89052	0	
1.1753	3.05054	-1.14309	0	
1.1760	1.23834	-4.81302	0	
1.1767	2.14444	-5.71546	0	
1.1773	4.59091	-2.06559	0	
1.1780	7.33942	-2.06559	0	
1.1787	7.64145	-4.51221	0	
1.1793	5.19498	-5.11383	0	
1.1800	3.38278	-4.81302	0	
1.1807	1.54037	-2.96803	0	
1.1813	-2.11424	-0.842278	0	
1.1820	-5.79905	0.681844	0	
1.1827	-5.46681	2.82765	0	
1.1833	-5.46681	4.05096	0	
1.1840	-7.61125	1.90515	0	
1.1847	-8.84959	1.60434	0	
1.1853	-8.21532	2.50678	0	
1.1860	-8.84959	0.681844	0	
1.1867	-7.91328	0.681844	0	
1.1873	-5.46681	3.42928	0	
1.1880	-5.46681	2.82765	0	
1.1887	-6.70515	-1.44391	0	
1.1893	-5.16478	-3.58971	0	
1.1900	-2.41627	-1.44391	0	
1.1907	0.302034	-0.240651	0	
1.1913	2.44647	-0.541465	0	
1.1920	1.54037	0.080217	0	
1.1927	1.54037	-0.240651	0	
1.1933	3.98684	-3.89052	0	
1.1940	5.19498	-4.81302	0	
1.1947	3.38278	-2.06559	0	
1.1953	2.74851	-1.14309	0	
1.1960	2.44647	-1.14309	0	
1.1967	0.634271	1.90515	0	
1.1973	-1.20813	3.12846	0	
1.1980	-0.302034	-0.541465	0	
1.1987	1.54037	-2.96803	0	
1.1993	0.634271	-0.842278	0	
1.2000	-3.05054	-0.240651	0	
1.2007	-2.74851	-0.842278	0	
1.2013	-0.302034	0.681844	0	
1.2020	-2.74851	2.50678	0	
1.2027	-4.56071	2.50678	0	
1.2033	-3.05054	3.42928	0	
1.2040	-5.79905	4.35177	0	
1.2047	-9.15162	4.35177	0	
1.2053	-6.10108	4.35177	0	
1.2060	-3.65461	4.05096	0	
1.2067	-3.95664	1.90515	0	
1.2073	-1.8122	1.30353	0	
1.2080	0.634271	0.681844	0	
1.2087	1.23834	-0.541465	0	
1.2093	1.84241	0.681844	0	
1.2100	3.68481	3.42928	0	
1.2107	5.79905	2.50678	0	
1.2113	6.73535	0.982658	0	
1.2120	5.19498	2.50678	0	
1.2127	5.19498	2.50678	0	
1.2133	5.49701	0.681844	0	
1.2140	3.38278	0.080217	0	
1.2147	0.634271	0.681844	0	
1.2153	-1.8122	-0.842278	0	
1.2160	-5.46681	-2.96803	0	
1.2167	-7.61125	-2.96803	0	
1.2173	-5.79905	-0.541465	0	
1.2180	-3.05054	1.30353	0	
1.2187	-2.41627	2.50678	0	
1.2193	-3.05054	2.20597	0	
1.2200	-3.95664	-0.240651	0	
1.2207	-3.95664	0.681844	0	
1.2213	-3.05054	3.42928	0	
1.2220	-3.95664	2.82765	0	
1.2227	-4.86274	0.982658	0	
1.2233	-3.65461	1.30353	0	
1.2240	-3.05054	1.60434	0	
1.2247	-2.74851	1.30353	0	
1.2253	-2.11424	1.30353	0	
1.2260	-2.41627	0.080217	0	
1.2267	-3.95664	-1.14309	0	
1.2273	-3.65461	0.681844	0	
1.2280	-1.20813	2.50678	0	
1.2287	1.84241	0.681844	0	
1.2293	2.44647	-4.19134	0	
1.2300	2.44647	-6.93877	0	
1.2307	3.98684	-5.71546	0	
1.2313	7.64145	-3.2889	0	
1.2320	9.78589	-2.06559	0	
1.2327	12.5344	-2.66721	0	
1.2333	13.7425	-3.89052	0	
1.2340	9.78589	-3.2889	0	
1.2347	7.33942	-2.96803	0	
1.2353	10.994	-3.2889	0	
1.2360	12.5344	-1.44391	0	
1.2367	8.84959	-0.842278	0	
1.2373	5.49701	-3.89052	0	
1.2380	3.05054	-5.41465	0	
1.2387	-1.51017	-2.96803	0	
1.2393	-4.86274	-1.44391	0	
1.2400	-3.65461	-0.240651	0	
1.2407	-2.11424	0.681844	0	
1.2413	-2.11424	0.681844	0	
1.2420	-3.05054	2.82765	0	
1.2427	-4.86274	4.65259	0	
1.2433	-7.00718	2.50678	0	
1.2440	-10.3598	0.982658	0	
1.2447	-13.1083	1.60434	0	
1.2453	-13.4103	0.681844	0	
1.2460	-11.9001	0.080217	0	
1.2467	-9.45365	2.50678	0	
1.2473	-5.16478	3.12846	0	
1.2480	-3.05054	1.60434	0	
1.2487	-4.86274	0.681844	0	
1.2493	-3.65461	-1.14309	0	
1.2500	-0.302034	-1.76477	0	
1.2507	0.302034	0.080217	0	
1.2513	1.23834	1.30353	0	
1.2520	1.84241	0.080217	0	
1.2527	0.634271	-2.06559	0	
1.2533	1.54037	-3.89052	0	
1.2540	3.38278	-3.89052	0	
1.2547	2.44647	-2.06559	0	
1.2553	1.54037	-2.06559	0	
1.2560	2.14444	-3.58971	0	
1.2567	2.44647	-4.51221	0	
1.2573	5.19498	-4.19134	0	
1.2580	6.73535	-2.66721	0	
1.2587	2.74851	-1.76477	0	
1.2593	1.54037	-2.66721	0	
1.2600	4.28888	-2.66721	0	
1.2607	6.10108	-1.14309	0	
1.2613	7.03738	-0.240651	0	
1.2620	5.19498	-0.240651	0	
1.2627	0	0.681844	0	
1.2633	-3.65461	2.20597	0	
1.2640	-3.95664	2.50678	0	
1.2647	-4.56071	1.30353	0	
1.2653	-3.95664	-0.240651	0	
1.2660	-2.11424	0.681844	0	
1.2667	-1.51017	3.42928	0	
1.2673	0.302034	4.35177	0	
1.2680	1.54037	1.90515	0	
1.2687	1.23834	0.080217	0	
1.2693	3.38278	-0.240651	0	
1.2700	6.10108	-1.76477	0	
1.2707	4.89295	-2.96803	0	
1.2713	5.49701	-0.541465	0	
1.2720	8.24552	1.60434	0	
1.2727	6.10108	-1.14309	0	
1.2733	3.68481	-3.89052	0	
1.2740	5.49701	-2.3664	0	
1.2747	4.28888	-1.76477	0	
1.2753	-0.302034	-2.3664	0	
1.2760	-0.302034	-1.14309	0	
1.2767	2.14444	0.080217	0	
1.2773	1.23834	-2.3664	0	
1.2780	0.634271	-3.2889	0	
1.2787	1.84241	-1.14309	0	
1.2793	0.936304	-1.14309	0	
1.2800	-1.20813	-1.14309	0	
1.2807	-0.604067	1.60434	0	
1.2813	0	2.20597	0	
1.2820	-0.906101	0.381031	0	
1.2827	-2.11424	0.080217	0	
1.2833	-3.65461	-0.240651	0	
1.2840	-4.25867	-1.14309	0	
1.2847	-4.86274	0.681844	0	
1.2853	-7.61125	2.50678	0	
1.2860	-8.84959	0.381031	0	
1.2867	-6.40311	-0.240651	0	
1.2873	-3.65461	0.681844	0	
1.2880	-2.11424	0.681844	0	
1.2887	0.634271	1.60434	0	
1.2893	3.38278	0.381031	0	
1.2900	4.28888	-2.96803	0	
1.2907	4.89295	-2.66721	0	
1.2913	5.19498	-0.240651	0	
1.2920	5.49701	-2.3664	0	
1.2927	7.03738	-3.89052	0	
1.2933	6.10108	-1.76477	0	
1.2940	4.28888	-1.44391	0	
1.2947	3.68481	-3.58971	0	
1.2953	2.14444	-2.96803	0	
1.2960	-1.20813	-2.3664	0	
1.2967	-0.302034	-2.06559	0	
1.2973	1.54037	-0.240651	0	
1.2980	-0.604067	-0.842278	0	
1.2987	-0.302034	-2.3664	0	
1.2993	3.38278	-0.541465	0	
1.3000	2.44647	0.381031	0	
1.3007	-0.604067	-1.44391	0	
1.3013	-0.906101	-0.240651	0	
1.3020	-1.20813	2.20597	0	
1.3027	-3.65461	1.60434	0	
1.3033	-5.79905	2.50678	0	
1.3040	-7.91328	4.9534	0	
1.3047	-8.84959	4.35177	0	
1.3053	-7.30921	3.42928	0	
1.3060	-4.86274	2.50678	0	
1.3067	-1.8122	0.681844	0	
1.3073	0.634271	-0.240651	0	
1.3080	-1.20813	1.30353	0	
1.3087	-3.95664	2.20597	0	
1.3093	-2.41627	1.60434	0	
1.3100	-0.604067	2.20597	0	
1.3107	-3.65461	1.60434	0	
1.3113	-5.46681	-2.96803	0	
1.3120	-3.95664	-5.71546	0	
1.3127	-4.86274	-3.89052	0	
1.3133	-5.79905	-3.89052	0	
1.3140	-2.74851	-4.81302	0	
1.3147	0.302034	-2.66721	0	
1.3153	1.54037	-1.14309	0	
1.3160	0.936304	-4.19134	0	
1.3167	-2.11424	-5.71546	0	
1.3173	-3.65461	-4.51221	0	
1.3180	-2.11424	-5.41465	0	
1.3187	-1.20813	-4.81302	0	
1.3193	0	-2.96803	0	
1.3200	1.23834	-2.66721	0	
1.3207	-1.51017	0.080217	0	
1.3213	-3.65461	4.35177	0	
1.3220	-2.11424	4.9534	0	
1.3227	-2.74851	3.12846	0	
1.3233	-5.79905	1.30353	0	
1.3240	-3.95664	0.681844	0	
1.3247	-1.51017	3.12846	0	
1.3253	-5.16478	4.35177	0	
1.3260	-7.91328	2.20597	0	
1.3267	-3.05054	0.080217	0	
1.3273	3.05054	-1.14309	0	
1.3280	3.98684	-2.3664	0	
1.3287	0.634271	-0.240651	0	
1.3293	-1.8122	1.90515	0	
1.3300	-0.906101	0.982658	0	
1.3307	1.54037	0.080217	0	
1.3313	1.84241	1.30353	0	
1.3320	2.44647	1.30353	0	
1.3327	6.10108	-0.240651	0	
1.3333	7.64145	-1.14309	0	
1.3340	5.19498	0.080217	0	
1.3347	4.89295	1.60434	0	
1.3353	5.19498	0.080217	0	
1.3360	3.05054	-2.06559	0	
1.3367	2.44647	-2.06559	0	
1.3373	1.54037	-2.06559	0	
1.3380	-2.11424	-3.2889	0	
1.3387	-3.05054	-2.06559	0	
1.3393	0.634271	-0.541465	0	
1.3400	1.54037	-1.14309	0	
1.3407	-0.906101	0.381031	0	
1.3413	-2.11424	1.30353	0	
1.3420	-1.8122	-0.240651	0	
1.3427	0	0.681844	0	
1.3433	0.634271	2.82765	0	
1.3440	0.634271	1.90515	0	
1.3447	2.44647	0.982658	0	
1.3453	3.38278	1.60434	0	
1.3460	1.54037	0.982658	0	
1.3467	0.302034	0.681844	0	
1.3473	0.634271	0.080217	0	
1.3480	0.302034	-1.14309	0	
1.3487	-0.302034	0.080217	0	
1.3493	0.302034	2.20597	0	
1.3500	2.44647	0.681844	0	
1.3507	2.44647	-1.76477	0	
1.3513	0.302034	-1.44391	0	
1.3520	1.54037	-0.541465	0	
1.3527	4.28888	0.381031	0	
1.3533	1.54037	0.681844	0	
1.3540	-3.35257	-1.44391	0	
1.3547	-2.11424	-2.66721	0	
1.3553	-2.41627	-0.541465	0	
1.3560	-5.79905	1.30353	0	
1.3567	-4.86274	0.982658	0	
1.3573	-1.51017	-0.240651	0	
1.3580	-2.11424	-0.240651	0	
1.3587	-2.74851	1.30353	0	
1.3593	-0.906101	2.50678	0	
1.3600	-1.51017	1.60434	0	
1.3607	-3.95664	0.982658	0	
1.3613	-4.25867	0.982658	0	
1.3620	-2.11424	1.60434	0	
1.3627	0.634271	2.50678	0	
1.3633	1.84241	2.50678	0	
1.3640	-0.906101	3.12846	0	
1.3647	-4.86274	4.65259	0	
1.3653	-4.56071	3.73009	0	
1.3660	-1.20813	0.982658	0	
1.3667	-0.906101	1.30353	0	
1.3673	-1.20813	1.60434	0	
1.3680	-0.302034	-0.842278	0	
1.3687	0.634271	-1.14309	0	
1.3693	0.634271	-0.240651	0	
1.3700	-0.302034	-2.06559	0	
1.3707	-1.8122	-2.06559	0	
1.3713	-1.51017	-0.541465	0	
1.3720	0.936304	-2.06559	0	
1.3727	1.54037	-3.89052	0	
1.3733	1.23834	-3.89052	0	
1.3740	3.05054	-3.89052	0	
1.3747	4.89295	-3.2889	0	
1.3753	3.68481	-1.76477	0	
1.3760	3.68481	-3.58971	0	
1.3767	4.59091	-4.51221	0	
1.3773	2.44647	-2.3664	0	
1.3780	0.936304	0.080217	0	
1.3787	1.84241	-0.240651	0	
1.3793	0	-1.44391	0	
1.3800	-4.86274	-2.06559	0	
1.3807	-6.70515	-1.14309	0	
1.3813	-5.79905	-1.14309	0	
1.3820	-5.46681	-2.66721	0	
1.3827	-5.79905	-1.14309	0	
1.3833	-6.10108	1.60434	0	
1.3840	-5.16478	2.50678	0	
1.3847	-3.65461	2.20597	0	
1.3853	-3.95664	-0.240651	0	
1.3860	-2.41627	-2.96803	0	
1.3867	1.54037	-2.96803	0	
1.3873	1.54037	-2.96803	0	
1.3880	-2.11424	-3.89052	0	
1.3887	-4.56071	-1.44391	0	
1.3893	-5.46681	1.30353	0	
1.3900	-2.41627	-1.76477	0	
1.3907	3.05054	-3.2889	0	
1.3913	4.28888	-0.842278	0	
1.3920	3.38278	-1.14309	0	
1.3927	7.33942	-3.89052	0	
1.3933	8.84959	-3.89052	0	
1.3940	3.98684	-2.66721	0	
1.3947	2.44647	-2.06559	0	
1.3953	3.05054	-1.76477	0	
1.3960	0	-2.66721	0	
1.3967	-2.11424	-3.2889	0	
1.3973	-1.20813	-2.96803	0	
1.3980	-1.20813	-2.06559	0	
1.3987	-0.906101	-2.06559	0	
1.3993	-0.302034	-3.89052	0	
1.4000	-0.906101	-4.81302	0	
1.4007	-0.302034	-3.2889	0	
1.4013	-0.302034	-1.44391	0	
1.4020	-2.11424	0.080217	0	
1.4027	-1.8122	3.42928	0	
1.4033	-2.41627	5.57508	0	
1.4040	-6.10108	3.73009	0	
1.4047	-4.86274	2.50678	0	
1.4053	-1.8122	3.42928	0	
1.4060	-3.65461	2.82765	0	
1.4067	-4.86274	1.30353	0	
1.4073	-2.41627	1.60434	0	
1.4080	-1.20813	3.42928	0	
1.4087	-0.302034	3.42928	0	
1.4093	1.54037	0.681844	0	
1.4100	0.634271	-1.14309	0	
1.4107	1.23834	-2.06559	0	
1.4113	3.05054	-4.19134	0	
1.4120	3.38278	-4.81302	0	
1.4127	4.28888	-2.06559	0	
1.4133	6.10108	-1.76477	0	
1.4140	5.19498	-3.89052	0	
1.4147	4.28888	-2.96803	0	
1.4153	5.19498	-0.541465	0	
1.4160	3.98684	-1.44391	0	
1.4167	3.68481	-2.66721	0	
1.4173	4.28888	-2.06559	0	
1.4180	2.44647	-1.44391	0	
1.4187	0.936304	-0.842278	0	
1.4193	0.936304	-0.240651	0	
1.4200	-0.302034	-3.89052	0	
1.4207	-3.05054	-5.71546	0	
1.4213	-3.05054	-1.14309	0	
1.4220	-3.05054	2.82765	0	
1.4227	-5.79905	0.982658	0	
1.4233	-7.30921	1.60434	0	
1.4240	-4.56071	4.35177	0	
1.4247	-1.51017	2.50678	0	
1.4253	-1.8122	-0.240651	0	
1.4260	-2.11424	0.080217	0	
1.4267	-0.302034	0.381031	0	
1.4273	1.23834	0.381031	0	
1.4280	1.54037	1.60434	0	
1.4287	2.44647	1.60434	0	
1.4293	2.74851	0.681844	0	
1.4300	4.28888	0.681844	0	
1.4307	7.94348	1.30353	0	
1.4313	10.692	-0.541465	0	
1.4320	9.15162	-2.06559	0	
1.4327	3.38278	-0.240651	0	
1.4333	-1.20813	0.080217	0	
1.4340	-0.302034	-2.06559	0	
1.4347	4.28888	-1.14309	0	
1.4353	4.28888	0.681844	0	
1.4360	0.936304	-0.541465	0	
1.4367	0.302034	-1.14309	0	
1.4373	1.54037	0.982658	0	
1.4380	-0.302034	1.30353	0	
1.4387	-3.95664	0.080217	0	
1.4393	-5.16478	-0.240651	0	
1.4400	-3.35257	-1.76477	0	
1.4407	-0.604067	-2.96803	0	
1.4413	0.302034	-0.240651	0	
1.4420	-0.302034	2.50678	0	
1.4427	-1.8122	2.20597	0	
1.4433	-3.05054	0.681844	0	
1.4440	-1.8122	0.681844	0	
1.4447	0.936304	1.30353	0	
1.4453	-0.302034	0.681844	0	
1.4460	-2.41627	0.681844	0	
1.4467	0.634271	2.82765	0	
1.4473	3.05054	4.65259	0	
1.4480	1.54037	4.35177	0	
1.4487	-1.51017	4.35177	0	
1.4493	-5.16478	3.42928	0	
1.4500	-8.54755	1.30353	0	
1.4507	-8.54755	0.381031	0	
1.4513	-8.54755	0.681844	0	
1.4520	-9.15162	-1.14309	0	
1.4527	-7.91328	-1.14309	0	
1.4533	-6.10108	0.982658	0	
1.4540	-4.86274	0.681844	0	
1.4547	-2.74851	-2.06559	0	
1.4553	-0.302034	-1.76477	0	
1.4560	0.634271	0.681844	0	
1.4567	1.54037	0.681844	0	
1.4573	1.23834	-0.842278	0	
1.4580	1.54037	-0.240651	0	
1.4587	2.14444	0.681844	0	
1.4593	1.84241	-0.842278	0	
1.4600	3.05054	-1.44391	0	
1.4607	4.59091	-0.240651	0	
1.4613	1.54037	-0.240651	0	
1.4620	-0.604067	0.080217	0	
1.4627	2.44647	1.60434	0	
1.4633	1.54037	2.82765	0	
1.4640	-1.20813	4.05096	0	
1.4647	1.54037	5.25421	0	
1.4653	2.44647	6.17671	0	
1.4660	0.634271	6.17671	0	
1.4667	3.05054	4.35177	0	
1.4673	4.28888	1.60434	0	
1.4680	-0.302034	2.20597	0	
1.4687	-2.11424	4.35177	0	
1.4693	0	1.60434	0	
1.4700	-0.604067	-2.96803	0	
1.4707	-0.302034	-2.96803	0	
1.4713	1.54037	-1.76477	0	
1.4720	2.14444	-1.44391	0	
1.4727	4.28888	-1.44391	0	
1.4733	4.59091	-3.2889	0	
1.4740	1.54037	-4.51221	0	
1.4747	3.05054	-2.96803	0	
1.4753	6.73535	-2.96803	0	
1.4760	3.98684	-4.19134	0	
1.4767	1.54037	-4.51221	0	
1.4773	2.44647	-3.58971	0	
1.4780	-0.302034	-2.3664	0	
1.4787	-6.10108	-0.240651	0	
1.4793	-6.40311	0.681844	0	
1.4800	-3.65461	-0.842278	0	
1.4807	-4.56071	0.381031	0	
1.4813	-6.40311	2.50678	0	
1.4820	-3.05054	1.30353	0	
1.4827	0.936304	-0.541465	0	
1.4833	-0.604067	0.681844	0	
1.4840	-0.906101	2.20597	0	
1.4847	2.44647	1.90515	0	
1.4853	0.302034	0.681844	0	
1.4860	-4.25867	-0.842278	0	
1.4867	-1.8122	-0.240651	0	
1.4873	1.54037	1.60434	0	
1.4880	-0.302034	0.080217	0	
1.4887	-1.20813	-3.89052	0	
1.4893	-0.302034	-4.19134	0	
1.4900	-0.906101	-4.81302	0	
1.4907	0	-8.46289	0	
1.4913	1.84241	-6.63796	0	
1.4920	1.54037	-2.3664	0	
1.4927	2.44647	-5.11383	0	
1.4933	4.28888	-7.86126	0	
1.4940	3.38278	-5.41465	0	
1.4947	-0.302034	-4.81302	0	
1.4953	-1.8122	-4.51221	0	
1.4960	-3.35257	-0.842278	0	
1.4967	-6.70515	0.681844	0	
1.4973	-7.61125	-1.14309	0	
1.4980	-5.16478	-1.14309	0	
1.4987	-2.11424	-0.541465	0	
1.4993	2.44647	0.381031	0	
1.5000	6.10108	2.20597	0	
1.5007	4.89295	0.982658	0	
1.5013	3.68481	-0.240651	0	
1.5020	3.68481	1.60434	0	
1.5027	-1.20813	1.90515	0	
1.5033	-6.70515	0.080217	0	
1.5040	-6.70515	0.681844	0	
1.5047	-5.16478	3.73009	0	
1.5053	-7.00718	5.25421	0	
1.5060	-9.45365	4.35177	0	
1.5067	-11.2659	3.12846	0	
1.5073	-12.2022	4.05096	0	
1.5080	-9.45365	4.9534	0	
1.5087	-5.79905	3.42928	0	
1.5093	-4.86274	2.20597	0	
1.5100	-3.95664	2.82765	0	
1.5107	-0.906101	3.73009	0	
1.5113	1.23834	2.82765	0	
1.5120	3.05054	0.681844	0	
1.5127	6.43332	-1.14309	0	
1.5133	7.94348	-2.96803	0	
1.5140	4.89295	-4.51221	0	
1.5147	2.44647	-3.89052	0	
1.5153	2.44647	-1.44391	0	
1.5160	1.84241	-0.240651	0	
1.5167	1.84241	-2.06559	0	
1.5173	2.44647	-5.71546	0	
1.5180	2.44647	-6.63796	0	
1.5187	2.14444	-2.96803	0	
1.5193	2.44647	0.080217	0	
1.5200	3.38278	0.681844	0	
1.5207	2.74851	-0.240651	0	
1.5213	0.302034	-0.240651	0	
1.5220	-1.51017	0.681844	0	
1.5227	1.54037	-0.541465	0	
1.5233	4.59091	-2.06559	0	
1.5240	2.44647	0.681844	0	
1.5247	-0.906101	3.12846	0	
1.5253	-0.302034	0.681844	0	
1.5260	1.23834	-0.240651	0	
1.5267	0.634271	2.82765	0	
1.5273	-1.20813	2.20597	0	
1.5280	-3.95664	-0.541465	0	
1.5287	-4.86274	-0.842278	0	
1.5293	-2.74851	-0.541465	0	
1.5300	-1.20813	-0.240651	0	
1.5307	-0.906101	0.080217	0	
1.5313	0.634271	-2.66721	0	
1.5320	3.38278	-3.2889	0	
1.5327	3.38278	-0.842278	0	
1.5333	0.302034	-1.44391	0	
1.5340	-2.11424	-3.89052	0	
1.5347	-0.302034	-2.66721	0	
1.5353	0.634271	-2.06559	0	
1.5360	-0.906101	-5.41465	0	
1.5367	0.634271	-6.03633	0	
1.5373	2.44647	-2.3664	0	
1.5380	1.84241	-1.14309	0	
1.5387	3.05054	-2.96803	0	
1.5393	5.79905	-1.76477	0	
1.5400	4.28888	-0.842278	0	
1.5407	1.23834	-1.44391	0	
1.5413	-0.604067	0.681844	0	
1.5420	-0.302034	1.90515	0	
1.5427	0.936304	-0.541465	0	
1.5433	0.302034	-0.842278	0	
1.5440	-4.25867	0.681844	0	
1.5447	-6.70515	-0.240651	0	
1.5453	-3.95664	1.30353	0	
1.5460	-2.11424	5.25421	0	
1.5467	-2.11424	4.05096	0	
1.5473	-1.20813	-1.14309	0	
1.5480	-0.302034	-3.58971	0	
1.5487	0	-1.76477	0	
1.5493	1.54037	-0.541465	0	
1.5500	2.74851	-1.44391	0	
1.5507	2.74851	-1.76477	0	
1.5513	3.68481	-2.96803	0	
1.5520	5.49701	-4.81302	0	
1.5527	6.73535	-2.3664	0	
1.5533	7.33942	0.681844	0	
1.5540	6.43332	-1.76477	0	
1.5547	4.28888	-2.06559	0	
1.5553	3.98684	-0.240651	0	
1.5560	5.49701	-2.3664	0	
1.5567	3.98684	-3.89052	0	
1.5573	-0.302034	-1.44391	0	
1.5580	-0.604067	-1.14309	0	
1.5587	0.936304	-1.14309	0	
1.5593	-1.20813	0.080217	0	
1.5600	-6.70515	-0.240651	0	
1.5607	-10.6618	-0.240651	0	
1.5613	-11.2659	1.90515	0	
1.5620	-11.2659	2.50678	0	
1.5627	-10.6618	2.20597	0	
1.5633	-7.30921	3.42928	0	
1.5640	-3.65461	4.35177	0	
1.5647	-3.05054	5.25421	0	
1.5653	-4.56071	4.9534	0	
1.5660	-5.16478	0.681844	0	
1.5667	-4.25867	-0.541465	0	
1.5673	-2.11424	2.20597	0	
1.5680	-2.11424	2.82765	0	
1.5687	-3.05054	2.50678	0	
1.5693	-2.41627	4.35177	0	
1.5700	-0.302034	4.35177	0	
1.5707	0.936304	2.50678	0	
1.5713	0.302034	1.30353	0	
1.5720	0	0.080217	0	
1.5727	0.936304	-1.14309	0	
1.5733	0.634271	-1.76477	0	
1.5740	-1.51017	-2.3664	0	
1.5747	-2.74851	-2.3664	0	
1.5753	-2.11424	-1.76477	0	
1.5760	-2.11424	-1.14309	0	
1.5767	-1.20813	-1.76477	0	
1.5773	0.634271	-1.44391	0	
1.5780	0.936304	-1.14309	0	
1.5787	0.634271	-1.76477	0	
1.5793	0.302034	-2.96803	0	
1.5800	-1.8122	-2.3664	0	
1.5807	-2.11424	-0.842278	0	
1.5813	0.302034	-1.14309	0	
1.5820	-0.604067	-0.842278	0	
1.5827	-3.65461	2.20597	0	
1.5833	-2.41627	1.30353	0	
1.5840	-2.11424	-1.44391	0	
1.5847	-5.16478	1.30353	0	
1.5853	-3.95664	3.73009	0	
1.5860	0	0.381031	0	
1.5867	0	-1.14309	0	
1.5873	0.936304	0.681844	0	
1.5880	7.03738	0.381031	0	
1.5887	9.78589	-0.240651	0	
1.5893	7.33942	-0.842278	0	
1.5900	7.33942	-3.89052	0	
1.5907	10.39	-5.11383	0	
1.5913	10.692	-2.66721	0	
1.5920	7.94348	-1.76477	0	
1.5927	7.94348	-2.96803	0	
1.5933	7.64145	-3.89052	0	
1.5940	3.68481	-3.89052	0	
1.5947	-1.8122	-2.06559	0	
1.5953	-3.95664	0.080217	0	
1.5960	-0.906101	-0.541465	0	
1.5967	2.44647	-2.06559	0	
1.5973	2.44647	-2.06559	0	
1.5980	0.634271	-2.96803	0	
1.5987	-0.604067	-3.89052	0	
1.5993	-0.906101	-2.66721	0	
1.6000	0.302034	-0.541465	0	
1.6007	-0.302034	-0.240651	0	
1.6013	-3.65461	0.080217	0	
1.6020	-7.30921	0.982658	0	
1.6027	-9.15162	1.60434	0	
1.6033	-8.54755	1.60434	0	
1.6040	-5.16478	2.82765	0	
1.6047	-4.56071	3.12846	0	
1.6053	-7.61125	1.30353	0	
1.6060	-5.79905	1.90515	0	
1.6067	-2.11424	4.05096	0	
1.6073	-5.16478	1.60434	0	
1.6080	-4.86274	-1.14309	0	
1.6087	3.05054	0.080217	0	
1.6093	7.03738	1.60434	0	
1.6100	6.43332	0.982658	0	
1.6107	7.33942	1.90515	0	
1.6113	6.73535	2.20597	0	
1.6120	4.28888	-1.14309	0	
1.6127	3.38278	-3.58971	0	
1.6133	4.28888	-3.89052	0	
1.6140	5.19498	-5.11383	0	
1.6147	7.03738	-3.89052	0	
1.6153	7.03738	-1.14309	0	
1.6160	5.19498	-2.66721	0	
1.6167	2.44647	-4.51221	0	
1.6173	-1.20813	-1.44391	0	
1.6180	-2.11424	1.60434	0	
1.6187	0.634271	-1.14309	0	
1.6193	1.23834	-3.89052	0	
1.6200	-2.11424	-0.541465	0	
1.6207	-3.05054	3.73009	0	
1.6213	-3.05054	1.90515	0	
1.6220	-4.86274	-0.541465	0	
1.6227	-6.10108	2.50678	0	
1.6233	-5.16478	5.25421	0	
1.6240	-4.86274	2.50678	0	
1.6247	-3.95664	2.20597	0	
1.6253	-2.41627	4.05096	0	
1.6260	-2.74851	2.20597	0	
1.6267	-1.20813	0.080217	0	
1.6273	2.14444	1.30353	0	
1.6280	2.44647	2.20597	0	
1.6287	2.74851	1.30353	0	
1.6293	6.10108	0.681844	0	
1.6300	7.03738	-0.240651	0	
1.6307	5.79905	-0.842278	0	
1.6313	7.33942	0.681844	0	
1.6320	7.03738	0.681844	0	
1.6327	4.28888	-2.06559	0	
1.6333	4.59091	-3.2889	0	
1.6340	4.28888	-2.06559	0	
1.6347	-0.302034	-1.14309	0	
1.6353	-2.41627	-2.06559	0	
1.6360	-1.20813	-1.14309	0	
1.6367	-2.11424	-0.541465	0	
1.6373	-2.74851	-1.76477	0	
1.6380	-2.11424	-2.06559	0	
1.6387	-3.95664	-2.06559	0	
1.6393	-3.05054	-3.89052	0	
1.6400	1.54037	-3.2889	0	
1.6407	1.84241	0.681844	0	
1.6413	-0.604067	0.681844	0	
1.6420	-0.604067	-1.14309	0	
1.6427	-3.05054	0.982658	0	
1.6433	-7.61125	3.73009	0	
1.6440	-7.91328	3.42928	0	
1.6447	-7.61125	4.05096	0	
1.6453	-9.45365	5.57508	0	
1.6460	-7.91328	3.73009	0	
1.6467	-5.16478	2.20597	0	
1.6473	-7.61125	2.50678	0	
1.6480	-8.54755	0.681844	0	
1.6487	-3.95664	-1.44391	0	
1.6493	-1.20813	0.681844	0	
1.6500	-3.05054	1.90515	0	
1.6507	-4.86274	-0.541465	0	
1.6513	-4.56071	-1.44391	0	
1.6520	-2.11424	-0.541465	0	
1.6527	0	-2.96803	0	
1.6533	-0.302034	-5.71546	0	
1.6540	0.936304	-4.81302	0	
1.6547	2.74851	-2.96803	0	
1.6553	1.23834	-2.06559	0	
1.6560	-2.41627	-1.44391	0	
1.6567	-2.11424	-2.06559	0	
1.6573	0.634271	-2.06559	0	
1.6580	2.44647	-2.06559	0	
1.6587	4.28888	-3.2889	0	
1.6593	3.98684	-3.89052	0	
1.6600	2.44647	-1.44391	0	
1.6607	1.54037	-1.14309	0	
1.6613	-0.302034	-2.66721	0	
1.6620	-3.35257	-0.842278	0	
1.6627	-4.56071	0.681844	0	
1.6633	-3.95664	-0.240651	0	
1.6640	-3.35257	0.681844	0	
1.6647	-1.51017	3.42928	0	
1.6653	-0.302034	1.90515	0	
1.6660	-1.20813	0.080217	0	
1.6667	-0.604067	2.50678	0	
1.6673	0.936304	3.42928	0	
1.6680	1.54037	0.080217	0	
1.6687	1.54037	-1.14309	0	
1.6693	0.634271	-0.541465	0	
1.6700	-1.20813	-1.14309	0	
1.6707	0.634271	-1.14309	0	
1.6713	3.38278	-0.240651	0	
1.6720	3.68481	-0.240651	0	
1.6727	5.79905	-1.44391	0	
1.6733	7.03738	-4.19134	0	
1.6740	3.98684	-7.25964	0	
1.6747	2.44647	-6.03633	0	
1.6753	4.28888	-2.96803	0	
1.6760	3.05054	-2.66721	0	
1.6767	0.634271	-2.3664	0	
1.6773	0.634271	-0.240651	0	
1.6780	0.302034	0.681844	0	
1.6787	-0.302034	-0.240651	0	
1.6793	0.634271	-0.240651	0	
1.6800	0.302034	-0.541465	0	
1.6807	-1.20813	-1.44391	0	
1.6813	-3.05054	-0.240651	0	
1.6820	-2.41627	1.60434	0	
1.6827	-0.906101	0.681844	0	
1.6833	-1.8122	0.681844	0	
1.6840	-3.35257	2.50678	0	
1.6847	-0.906101	2.82765	0	
1.6853	1.54037	2.50678	0	
1.6860	-0.302034	4.35177	0	
1.6867	-3.65461	4.05096	0	
1.6873	-3.35257	2.50678	0	
1.6880	0.936304	2.82765	0	
1.6887	3.38278	3.42928	0	
1.6893	-0.302034	0.681844	0	
1.6900	-3.95664	-1.76477	0	
1.6907	-2.41627	-0.842278	0	
1.6913	-2.11424	0.681844	0	
1.6920	-4.56071	-0.240651	0	
1.6927	-5.16478	-2.06559	0	
1.6933	-3.95664	-2.3664	0	
1.6940	-1.20813	-3.89052	0	
1.6947	0.936304	-3.89052	0	
1.6953	0.634271	-2.06559	0	
1.6960	2.44647	-2.66721	0	
1.6967	8.54755	-3.89052	0	
1.6973	8.54755	-2.06559	0	
1.6980	3.98684	-1.44391	0	
1.6987	2.14444	-4.19134	0	
1.6993	-1.20813	-2.3664	0	
1.7000	-6.10108	0.982658	0	
1.7007	-4.25867	-0.842278	0	
1.7013	-2.11424	-0.842278	0	
1.7020	-7.00718	1.60434	0	
1.7027	-8.54755	-0.240651	0	
1.7033	-4.86274	-0.541465	0	
1.7040	-2.74851	3.42928	0	
1.7047	-0.604067	2.82765	0	
1.7053	2.14444	-0.240651	0	
1.7060	0	0.681844	0	
1.7067	-2.41627	1.60434	0	
1.7073	-0.302034	0.681844	0	
1.7080	2.14444	1.90515	0	
1.7087	1.54037	1.60434	0	
1.7093	1.54037	-1.44391	0	
1.7100	1.23834	-1.44391	0	
1.7107	-0.906101	-0.541465	0	
1.7113	-1.8122	-1.76477	0	
1.7120	-1.20813	-2.06559	0	
1.7127	-0.302034	-2.06559	0	
1.7133	0.936304	-2.96803	0	
1.7140	2.44647	-2.3664	0	
1.7147	2.44647	-2.3664	0	
1.7153	1.54037	-2.66721	0	
1.7160	0	-0.240651	0	
1.7167	0.634271	-1.14309	0	
1.7173	0.634271	-5.11383	0	
1.7180	-1.20813	-3.89052	0	
1.7187	-0.906101	-0.541465	0	
1.7193	1.84241	-3.58971	0	
1.7200	2.74851	-5.71546	0	
1.7207	1.84241	-1.44391	0	
1.7213	0.634271	1.60434	0	
1.7220	0.634271	0.681844	0	
1.7227	0	1.30353	0	
1.7233	-0.906101	1.90515	0	
1.7240	-0.604067	1.60434	0	
1.7247	1.23834	1.60434	0	
1.7253	2.44647	0.982658	0	
1.7260	2.44647	1.30353	0	
1.7267	1.54037	2.82765	0	
1.7273	0.936304	1.60434	0	
1.7280	0.634271	0.381031	0	
1.7287	1.54037	2.50678	0	
1.7293	1.54037	4.05096	0	
1.7300	-0.302034	2.20597	0	
1.7307	-1.8122	0.681844	0	
1.7313	0	-0.842278	0	
1.7320	2.74851	-2.96803	0	
1.7327	3.68481	-4.19134	0	
1.7333	3.38278	-2.96803	0	
1.7340	5.49701	-2.06559	0	
1.7347	8.54755	-2.06559	0	
1.7353	5.19498	-2.06559	0	
1.7360	0.634271	-0.842278	0	
1.7367	0	-0.240651	0	
1.7373	-0.302034	0.080217	0	
1.7380	-1.51017	1.30353	0	
1.7387	0.634271	2.82765	0	
1.7393	0.634271	3.42928	0	
1.7400	-3.95664	1.60434	0	
1.7407	-3.05054	-1.14309	0	
1.7413	0.936304	-1.76477	0	
1.7420	1.54037	-0.240651	0	
1.7427	1.54037	0.681844	0	
1.7433	2.74851	0.681844	0	
1.7440	1.54037	0.381031	0	
1.7447	-0.604067	1.30353	0	
1.7453	-0.604067	3.12846	0	
1.7460	1.54037	3.73009	0	
1.7467	3.98684	5.25421	0	
1.7473	2.44647	6.17671	0	
1.7480	-2.11424	1.90515	0	
1.7487	-1.20813	-2.06559	0	
1.7493	0.302034	-0.240651	0	
1.7500	-1.8122	-0.541465	0	
1.7507	2.44647	-2.66721	0	
1.7513	9.48386	-0.842278	0	
1.7520	8.84959	-0.240651	0	
1.7527	6.10108	-2.66721	0	
1.7533	7.94348	-1.44391	0	
1.7540	6.10108	-0.240651	0	
1.7547	2.14444	-3.58971	0	
1.7553	3.05054	-6.03633	0	
1.7560	5.79905	-5.71546	0	
1.7567	4.28888	-3.89052	0	
1.7573	1.84241	-0.541465	0	
1.7580	-0.906101	1.90515	0	
1.7587	-5.16478	0.381031	0	
1.7593	-10.3598	-0.240651	0	
1.7600	-12.5042	1.60434	0	
1.7607	-12.2022	2.50678	0	
1.7613	-11.9001	3.42928	0	
1.7620	-10.9638	3.73009	0	
1.7627	-10.0577	2.20597	0	
1.7633	-11.2659	2.50678	0	
1.7640	-12.2022	5.25421	0	
1.7647	-9.15162	2.82765	0	
1.7653	-7.91328	-0.240651	0	
1.7660	-8.54755	2.50678	0	
1.7667	-4.56071	3.73009	0	
1.7673	-0.906101	-0.240651	0	
1.7680	-2.11424	-1.14309	0	
1.7687	-3.35257	0.681844	0	
1.7693	-3.95664	-0.240651	0	
1.7700	-6.70515	-1.14309	0	
1.7707	-8.21532	-0.240651	0	
1.7713	-6.70515	0.080217	0	
1.7720	-6.40311	-0.240651	0	
1.7727	-7.61125	-1.14309	0	
1.7733	-7.91328	-1.76477	0	
1.7740	-4.86274	-3.2889	0	
1.7747	-1.51017	-5.11383	0	
1.7753	-0.302034	-4.19134	0	
1.7760	1.54037	-2.66721	0	
1.7767	6.43332	-3.89052	0	
1.7773	8.84959	-3.2889	0	
1.7780	7.94348	-0.240651	0	
1.7787	8.84959	0.381031	0	
1.7793	9.15162	-1.44391	0	
1.7800	5.79905	-3.2889	0	
1.7807	2.74851	-6.63796	0	
1.7813	1.54037	-6.33714	0	
1.7820	0.302034	-1.14309	0	
1.7827	1.54037	0.080217	0	
1.7833	3.05054	-1.44391	0	
1.7840	2.44647	-0.240651	0	
1.7847	1.54037	1.90515	0	
1.7853	1.84241	1.60434	0	
1.7860	0.936304	0.982658	0	
1.7867	-0.302034	1.30353	0	
1.7873	2.14444	2.50678	0	
1.7880	5.79905	1.30353	0	
1.7887	6.10108	-2.3664	0	
1.7893	4.28888	-1.44391	0	
1.7900	2.44647	3.42928	0	
1.7907	1.84241	2.82765	0	
1.7913	2.74851	-2.06559	0	
1.7920	4.59091	-3.2889	0	
1.7927	4.59091	-1.76477	0	
1.7933	4.59091	-2.66721	0	
1.7940	6.43332	-4.51221	0	
1.7947	8.54755	-4.81302	0	
1.7953	8.84959	-4.19134	0	
1.7960	7.03738	-3.2889	0	
1.7967	2.44647	-0.541465	0	
1.7973	-2.11424	0.982658	0	
1.7980	-5.79905	0.080217	0	
1.7987	-7.61125	-0.240651	0	
1.7993	-4.86274	0.381031	0	
1.8000	-0.302034	-0.240651	0	
1.8007	-1.20813	0.381031	0	
1.8013	-5.16478	2.82765	0	
1.8020	-6.40311	3.73009	0	
1.8027	-6.70515	3.12846	0	
1.8033	-7.61125	2.50678	0	
1.8040	-7.30921	2.20597	0	
1.8047	-6.70515	2.50678	0	
1.8053	-7.30921	2.50678	0	
1.8060	-7.00718	1.90515	0	
1.8067	-4.86274	1.90515	0	
1.8073	-3.05054	2.20597	0	
1.8080	-1.51017	-0.240651	0	
1.8087	0.302034	-0.842278	0	
1.8093	2.44647	1.60434	0	
1.8100	3.98684	1.60434	0	
1.8107	5.19498	-2.66721	0	
1.8113	6.10108	-3.89052	0	
1.8120	5.19498	-2.06559	0	
1.8127	1.84241	-1.14309	0	
1.8133	1.54037	-1.76477	0	
1.8140	4.28888	-2.06559	0	
1.8147	4.89295	-2.96803	0	
1.8153	2.74851	-3.58971	0	
1.8160	3.68481	-2.96803	0	
1.8167	5.79905	-1.14309	0	
1.8173	4.59091	-0.240651	0	
1.8180	5.19498	-1.76477	0	
1.8187	7.03738	-2.3664	0	
1.8193	5.49701	-1.14309	0	
1.8200	2.44647	-1.14309	0	
1.8207	3.98684	-2.06559	0	
1.8213	3.98684	-1.14309	0	
1.8220	1.54037	2.20597	0	
1.8227	2.44647	3.73009	0	
1.8233	3.68481	3.12846	0	
1.8240	0.302034	1.30353	0	
1.8247	-2.11424	0.681844	0	
1.8253	-0.906101	0.080217	0	
1.8260	-3.05054	-0.541465	0	
1.8267	-6.70515	0.381031	0	
1.8273	-6.10108	2.50678	0	
1.8280	-1.8122	2.50678	0	
1.8287	-1.20813	-0.240651	0	
1.8293	-3.65461	-1.44391	0	
1.8300	-0.906101	-1.44391	0	
1.8307	3.68481	-1.14309	0	
1.8313	3.38278	-1.44391	0	
1.8320	2.44647	-2.06559	0	
1.8327	3.68481	-2.66721	0	
1.8333	2.44647	-3.58971	0	
1.8340	1.23834	-3.89052	0	
1.8347	3.05054	-3.89052	0	
1.8353	3.98684	-5.11383	0	
1.8360	4.28888	-5.71546	0	
1.8367	6.73535	-3.89052	0	
1.8373	7.03738	-3.89052	0	
1.8380	5.19498	-5.41465	0	
1.8387	4.28888	-4.19134	0	
1.8393	2.14444	-0.842278	0	
1.8400	-2.41627	0.381031	0	
1.8407	-7.61125	-2.3664	0	
1.8413	-12.5042	-3.58971	0	
1.8420	-14.3466	0.080217	0	
1.8427	-15.5547	1.60434	0	
1.8433	-17.0649	-1.14309	0	
1.8440	-14.0144	-0.240651	0	
1.8447	-9.15162	2.20597	0	
1.8453	-8.54755	0.080217	0	
1.8460	-8.84959	-1.44391	0	
1.8467	-4.86274	-0.240651	0	
1.8473	-1.20813	-0.541465	0	
1.8480	0.634271	-0.240651	0	
1.8487	3.68481	0.381031	0	
1.8493	3.68481	-2.06559	0	
1.8500	-0.302034	-3.89052	0	
1.8507	-1.51017	-2.96803	0	
1.8513	1.54037	-2.96803	0	
1.8520	1.54037	-2.66721	0	
1.8527	0.302034	-1.14309	0	
1.8533	1.54037	-1.14309	0	
1.8540	2.44647	-0.240651	0	
1.8547	0	2.20597	0	
1.8553	-3.05054	0.381031	0	
1.8560	-3.05054	-2.66721	0	
1.8567	-2.41627	-1.76477	0	
1.8573	-2.41627	-1.14309	0	
1.8580	-0.906101	-2.96803	0	
1.8587	3.38278	-2.96803	0	
1.8593	7.03738	-2.96803	0	
1.8600	5.19498	-2.66721	0	
1.8607	1.84241	-0.541465	0	
1.8613	-0.604067	0.681844	0	
1.8620	-2.11424	0.681844	0	
1.8627	-3.05054	2.50678	0	
1.8633	-3.65461	4.35177	0	
1.8640	-4.56071	3.42928	0	
1.8647	-3.05054	3.12846	0	
1.8653	-0.906101	3.12846	0	
1.8660	-1.51017	1.60434	0	
1.8667	-3.05054	1.90515	0	
1.8673	-0.906101	3.12846	0	
1.8680	2.44647	0.982658	0	
1.8687	3.38278	-1.14309	0	
1.8693	2.14444	0.080217	0	
1.8700	0.302034	0.982658	0	
1.8707	0.936304	1.30353	0	
1.8713	3.38278	4.65259	0	
1.8720	5.19498	6.47752	0	
1.8727	5.79905	2.20597	0	
1.8733	4.28888	-2.06559	0	
1.8740	0.634271	-2.96803	0	
1.8747	-1.51017	-2.3664	0	
1.8753	1.23834	-1.76477	0	
1.8760	3.38278	-2.06559	0	
1.8767	1.23834	-4.51221	0	
1.8773	-1.51017	-3.89052	0	
1.8780	-3.95664	-1.14309	0	
1.8787	-8.54755	-1.14309	0	
1.8793	-10.3598	-0.240651	0	
1.8800	-6.40311	2.82765	0	
1.8807	-2.74851	2.50678	0	
1.8813	-3.05054	-0.240651	0	
1.8820	-3.95664	0.681844	0	
1.8827	-2.41627	2.50678	0	
1.8833	1.23834	3.12846	0	
1.8840	3.68481	4.05096	0	
1.8847	3.05054	4.9534	0	
1.8853	3.68481	4.35177	0	
1.8860	4.28888	3.42928	0	
1.8867	-1.51017	1.90515	0	
1.8873	-6.70515	1.30353	0	
1.8880	-4.25867	1.60434	0	
1.8887	-3.35257	1.90515	0	
1.8893	-3.35257	0.080217	0	
1.8900	1.54037	-0.240651	0	
1.8907	3.68481	2.20597	0	
1.8913	2.44647	1.60434	0	
1.8920	4.59091	-2.06559	0	
1.8927	5.49701	-2.06559	0	
1.8933	0.634271	-1.14309	0	
1.8940	-0.604067	-3.58971	0	
1.8947	0.634271	-3.58971	0	
1.8953	-3.05054	-0.541465	0	
1.8960	-6.40311	-1.76477	0	
1.8967	-3.65461	-2.96803	0	
1.8973	-2.11424	1.60434	0	
1.8980	-3.35257	5.25421	0	
1.8987	-2.41627	2.20597	0	
1.8993	-0.302034	-2.06559	0	
1.9000	0.936304	-1.76477	0	
1.9007	0.634271	0.681844	0	
1.9013	-1.20813	1.30353	0	
1.9020	-0.604067	2.20597	0	
1.9027	1.23834	4.05096	0	
1.9033	1.54037	1.60434	0	
1.9040	1.84241	-1.14309	0	
1.9047	2.44647	1.90515	0	
1.9053	0	4.9534	0	
1.9060	-0.906101	4.05096	0	
1.9067	2.14444	3.73009	0	
1.9073	3.98684	2.50678	0	
1.9080	4.28888	-0.541465	0	
1.9087	5.19498	0.080217	0	
1.9093	4.28888	0.681844	0	
1.9100	3.68481	-2.96803	0	
1.9107	4.89295	-3.58971	0	
1.9113	3.68481	-1.14309	0	
1.9120	0	-0.240651	0	
1.9127	-2.11424	1.60434	0	
1.9133	-1.20813	0.982658	0	
1.9140	1.54037	-2.96803	0	
1.9147	2.44647	-4.81302	0	
1.9153	0	-3.89052	0	
1.9160	-1.20813	-5.11383	0	
1.9167	1.54037	-5.11383	0	
1.9173	0.634271	-3.58971	0	
1.9180	-3.05054	-2.96803	0	
1.9187	-1.20813	-2.06559	0	
1.9193	3.05054	0.080217	0	
1.9200	3.38278	0.681844	0	
1.9207	3.38278	-1.76477	0	
1.9213	5.19498	-3.89052	0	
1.9220	4.59091	-4.81302	0	
1.9227	3.38278	-2.66721	0	
1.9233	3.05054	0.982658	0	
1.9240	1.54037	2.20597	0	
1.9247	0.634271	0.681844	0	
1.9253	0.302034	-0.240651	0	
1.9260	0.634271	0.681844	0	
1.9267	0.936304	1.30353	0	
1.9273	0.634271	0.681844	0	
1.9280	-0.302034	0.681844	0	
1.9287	-1.51017	1.90515	0	
1.9293	-2.41627	2.50678	0	
1.9300	-3.05054	0.681844	0	
1.9307	-1.8122	-2.3664	0	
1.9313	-0.302034	-3.58971	0	
1.9320	0.302034	-2.66721	0	
1.9327	1.23834	-3.58971	0	
1.9333	1.84241	-5.11383	0	
1.9340	0.634271	-5.11383	0	
1.9347	-0.302034	-4.19134	0	
1.9353	1.54037	-3.89052	0	
1.9360	2.44647	-3.89052	0	
1.9367	1.54037	-4.81302	0	
1.9373	2.44647	-3.58971	0	
1.9380	3.38278	-2.06559	0	
1.9387	1.84241	-3.2889	0	
1.9393	2.44647	-2.96803	0	
1.9400	5.49701	-0.240651	0	
1.9407	3.68481	-1.14309	0	
1.9413	-0.302034	-2.66721	0	
1.9420	-1.20813	-0.541465	0	
1.9427	-2.11424	0.381031	0	
1.9433	-7.30921	-0.240651	0	
1.9440	-10.3598	0.982658	0	
1.9447	-7.91328	1.30353	0	
1.9453	-5.16478	1.30353	0	
1.9460	-6.10108	2.50678	0	
1.9467	-7.30921	2.20597	0	
1.9473	-6.10108	-0.240651	0	
1.9480	-3.65461	-2.66721	0	
1.9487	-0.302034	-2.66721	0	
1.9493	0	-0.240651	0	
1.9500	-4.25867	1.60434	0	
1.9507	-5.79905	0.681844	0	
1.9513	-1.20813	0.982658	0	
1.9520	0.634271	0.381031	0	
1.9527	-0.302034	-2.06559	0	
1.9533	1.84241	-0.842278	0	
1.9540	3.68481	2.20597	0	
1.9547	2.74851	0.681844	0	
1.9553	0.634271	-0.541465	0	
1.9560	0.302034	0.681844	0	
1.9567	1.84241	-0.541465	0	
1.9573	1.54037	-2.96803	0	
1.9580	-2.11424	-1.14309	0	
1.9587	-2.74851	0.681844	0	
1.9593	-0.302034	0.381031	0	
1.9600	-0.906101	-1.14309	0	
1.9607	-1.20813	-3.2889	0	
1.9613	-0.906101	-2.96803	0	
1.9620	-3.95664	-0.842278	0	
1.9627	-4.56071	-0.240651	0	
1.9633	-1.20813	-0.240651	0	
1.9640	-2.41627	0.381031	0	
1.9647	-6.70515	-0.541465	0	
1.9653	-5.16478	-0.240651	0	
1.9660	-3.35257	3.73009	0	
1.9667	-4.56071	5.57508	0	
1.9673	-3.05054	3.12846	0	
1.9680	0.302034	1.60434	0	
1.9687	0.936304	0.681844	0	
1.9693	0.936304	-0.842278	0	
1.9700	2.44647	-0.541465	0	
1.9707	3.38278	1.30353	0	
1.9713	2.74851	2.50678	0	
1.9720	4.28888	1.60434	0	
1.9727	6.10108	-1.14309	0	
1.9733	3.98684	-2.06559	0	
1.9740	2.44647	-0.842278	0	
1.9747	2.74851	0.080217	0	
1.9753	1.54037	-0.541465	0	
1.9760	-1.8122	-1.44391	0	
1.9767	-1.20813	-2.06559	0	
1.9773	0.634271	-1.44391	0	
1.9780	0.634271	-0.541465	0	
1.9787	2.44647	-1.14309	0	
1.9793	2.74851	-1.14309	0	
1.9800	0	-1.44391	0	
1.9807	-1.8122	-2.3664	0	
1.9813	-2.11424	0.681844	0	
1.9820	-3.95664	3.42928	0	
1.9827	-6.10108	-0.240651	0	
1.9833	-5.79905	-2.96803	0	
1.9840	-5.79905	2.20597	0	
1.9847	-4.86274	5.25421	0	
1.9853	-2.11424	3.73009	0	
1.9860	-2.11424	3.73009	0	
1.9867	-3.05054	4.35177	0	
1.9873	-1.20813	4.05096	0	
1.9880	0	3.42928	0	
1.9887	-2.74851	2.50678	0	
1.9893	-3.65461	1.60434	0	
1.9900	-1.20813	2.82765	0	
1.9907	-0.302034	3.73009	0	
1.9913	0.634271	1.30353	0	
1.9920	5.19498	-1.14309	0	
1.9927	9.78589	-1.14309	0	
1.9933	13.4405	-1.44391	0	
1.9940	16.7931	-2.06559	0	
1.9947	16.7931	-0.240651	0	
1.9953	10.39	2.20597	0	
1.9960	2.44647	-0.240651	0	
1.9967	-0.302034	-4.81302	0	
1.9973	1.54037	-4.19134	0	
1.9980	2.44647	0.080217	0	
1.9987	-0.906101	2.20597	0	
1.9993	-3.95664	0.080217	0	
2.0000	-5.79905	-0.240651	0	
2.0007	-7.91328	1.60434	0	
2.0013	-10.3598	1.30353	0	
2.0020	-12.5042	-2.06559	0	
2.0027	-14.3466	-2.06559	0	
2.0033	-13.1083	2.20597	0	
2.0040	-8.54755	3.12846	0	
2.0047	-4.86274	0.080217	0	
2.0053	-3.05054	0.681844	0	
2.0060	-3.05054	4.35177	0	
2.0067	-3.05054	3.42928	0	
2.0073	0.634271	-0.842278	0	
2.0080	4.89295	-1.14309	0	
2.0087	4.28888	2.20597	0	
2.0093	3.68481	2.50678	0	
2.0100	5.19498	-1.14309	0	
2.0107	5.19498	-2.06559	0	
2.0113	5.19498	0.080217	0	
2.0120	5.79905	0.982658	0	
2.0127	3.38278	-1.76477	0	
2.0133	1.54037	-3.89052	0	
2.0140	1.54037	-3.58971	0	
2.0147	0	-2.96803	0	
2.0153	-0.604067	-4.19134	0	
2.0160	1.54037	-3.89052	0	
2.0167	2.44647	-2.06559	0	
2.0173	0.634271	-3.2889	0	
2.0180	-0.604067	-3.89052	0	
2.0187	-0.302034	-0.842278	0	
2.0193	-0.906101	0.381031	0	
2.0200	-0.302034	-2.96803	0	
2.0207	1.23834	-3.89052	0	
2.0213	1.54037	-1.44391	0	
2.0220	0	0.381031	0	
2.0227	-0.302034	0.681844	0	
2.0233	-1.51017	2.20597	0	
2.0240	-3.95664	2.82765	0	
2.0247	-3.95664	0.080217	0	
2.0253	-3.05054	-1.76477	0	
2.0260	-3.05054	-0.240651	0	
2.0267	-1.8122	0.681844	0	
2.0273	-0.302034	1.30353	0	
2.0280	-2.11424	3.12846	0	
2.0287	-3.35257	1.60434	0	
2.0293	-3.65461	-2.96803	0	
2.0300	-4.86274	-2.96803	0	
2.0307	-0.302034	-0.240651	0	
2.0313	7.03738	0.681844	0	
2.0320	8.24552	-0.240651	0	
2.0327	6.73535	-2.96803	0	
2.0333	7.64145	-3.89052	0	
2.0340	6.10108	-1.76477	0	
2.0347	2.44647	-1.76477	0	
2.0353	2.14444	-3.58971	0	
2.0360	3.05054	-0.842278	0	
2.0367	1.23834	1.90515	0	
2.0373	-0.906101	-0.240651	0	
2.0380	-1.51017	-1.14309	0	
2.0387	-3.05054	0.381031	0	
2.0393	-4.56071	-0.240651	0	
2.0400	-3.35257	-0.240651	0	
2.0407	-1.20813	1.60434	0	
2.0413	-1.20813	2.50678	0	
2.0420	-1.51017	3.42928	0	
2.0427	1.54037	2.50678	0	
2.0433	3.68481	1.30353	0	
2.0440	2.14444	2.50678	0	
2.0447	0.634271	2.82765	0	
2.0453	1.54037	2.20597	0	
2.0460	-0.604067	5.25421	0	
2.0467	-5.79905	6.77834	0	
2.0473	-8.54755	3.42928	0	
2.0480	-6.70515	1.60434	0	
2.0487	-3.95664	1.90515	0	
2.0493	-3.05054	0.982658	0	
2.0500	-3.95664	1.30353	0	
2.0507	-3.05054	0.381031	0	
2.0513	-1.20813	-3.89052	0	
2.0520	-2.11424	-4.19134	0	
2.0527	-3.65461	-2.06559	0	
2.0533	1.23834	-2.3664	0	
2.0540	5.19498	-2.06559	0	
2.0547	3.38278	-2.06559	0	
2.0553	3.38278	-3.89052	0	
2.0560	6.10108	-3.89052	0	
2.0567	5.19498	-2.06559	0	
2.0573	3.98684	-3.2889	0	
2.0580	4.89295	-1.76477	0	
2.0587	2.14444	1.60434	0	
2.0593	-1.8122	1.30353	0	
2.0600	-1.20813	0.982658	0	
2.0607	-0.302034	4.05096	0	
2.0613	-1.20813	3.42928	0	
2.0620	-3.05054	0.982658	0	
2.0627	-4.86274	1.90515	0	
2.0633	-5.16478	3.42928	0	
2.0640	-4.25867	3.42928	0	
2.0647	-4.56071	3.73009	0	
2.0653	-3.95664	3.42928	0	
2.0660	-2.41627	1.60434	0	
2.0667	-2.74851	0.681844	0	
2.0673	-2.11424	1.90515	0	
2.0680	-1.8122	3.42928	0	
2.0687	-3.05054	3.42928	0	
2.0693	-2.11424	0.982658	0	
2.0700	-1.20813	-0.240651	0	
2.0707	-3.95664	0.381031	0	
2.0713	-5.46681	0.080217	0	
2.0720	-4.86274	-0.842278	0	
2.0727	-7.00718	-2.66721	0	
2.0733	-6.70515	-5.11383	0	
2.0740	-0.906101	-6.33714	0	
2.0747	1.84241	-5.71546	0	
2.0753	0.634271	-4.51221	0	
2.0760	-1.20813	-3.89052	0	
2.0767	-2.74851	-5.71546	0	
2.0773	-2.74851	-7.56045	0	
2.0780	-0.604067	-5.11383	0	
2.0787	0.936304	-2.3664	0	
2.0793	1.54037	-2.96803	0	
2.0800	0.634271	-3.89052	0	
2.0807	-0.604067	-5.11383	0	
2.0813	-0.604067	-4.19134	0	
2.0820	1.54037	-0.240651	0	
2.0827	4.89295	0.681844	0	
2.0833	5.49701	-2.06559	0	
2.0840	2.44647	0.381031	0	
2.0847	0.302034	4.35177	0	
2.0853	-0.302034	4.35177	0	
2.0860	-1.20813	2.82765	0	
2.0867	-1.20813	3.12846	0	
2.0873	-0.604067	3.12846	0	
2.0880	-2.41627	3.73009	0	
2.0887	-4.25867	3.42928	0	
2.0893	-3.05054	1.30353	0	
2.0900	0	-0.240651	0	
2.0907	3.38278	0.080217	0	
2.0913	8.24552	0.681844	0	
2.0920	12.2324	-1.76477	0	
2.0927	12.2324	-4.19134	0	
2.0933	10.692	-3.89052	0	
2.0940	10.994	-2.96803	0	
2.0947	10.0879	-4.51221	0	
2.0953	6.10108	-4.81302	0	
2.0960	0.936304	-2.96803	0	
2.0967	-3.65461	-3.2889	0	
2.0973	-5.79905	-3.89052	0	
2.0980	-5.79905	-1.14309	0	
2.0987	-7.91328	0.681844	0	
2.0993	-10.9638	-0.240651	0	
2.1000	-9.75569	-0.541465	0	
2.1007	-5.46681	-0.541465	0	
2.1013	-3.95664	-0.842278	0	
2.1020	-3.95664	0.080217	0	
2.1027	-2.41627	0.982658	0	
2.1033	-1.51017	0.381031	0	
2.1040	-2.74851	0.080217	0	
2.1047	-1.20813	2.20597	0	
2.1053	2.74851	2.82765	0	
2.1060	4.28888	1.30353	0	
2.1067	2.14444	1.60434	0	
2.1073	0	4.65259	0	
2.1080	-0.604067	3.42928	0	
2.1087	-0.906101	-0.240651	0	
2.1093	-0.906101	0.681844	0	
2.1100	-3.05054	2.50678	0	
2.1107	-5.46681	1.60434	0	
2.1113	-3.95664	0.982658	0	
2.1120	-1.8122	0.681844	0	
2.1127	-1.51017	-0.541465	0	
2.1133	-0.604067	-0.240651	0	
2.1140	1.54037	-1.14309	0	
2.1147	4.89295	-4.19134	0	
2.1153	6.73535	-3.2889	0	
2.1160	2.44647	0.681844	0	
2.1167	-1.20813	-0.240651	0	
2.1173	1.54037	-3.89052	0	
2.1180	6.10108	-3.89052	0	
2.1187	6.73535	-2.66721	0	
2.1193	4.28888	-1.44391	0	
2.1200	1.23834	0.381031	0	
2.1207	-1.20813	0.681844	0	
2.1213	-2.41627	1.60434	0	
2.1220	-4.56071	3.42928	0	
2.1227	-5.46681	3.42928	0	
2.1233	-4.86274	2.50678	0	
2.1240	-4.86274	3.12846	0	
2.1247	-3.35257	2.82765	0	
2.1253	-1.20813	1.60434	0	
2.1260	-1.51017	1.60434	0	
2.1267	-0.302034	-0.240651	0	
2.1273	3.38278	-0.541465	0	
2.1280	3.98684	2.50678	0	
2.1287	2.44647	3.42928	0	
2.1293	3.05054	0.982658	0	
2.1300	4.28888	0.681844	0	
2.1307	2.44647	0.681844	0	
2.1313	-0.302034	-0.842278	0	
2.1320	-0.302034	-2.3664	0	
2.1327	0	-4.19134	0	
2.1333	0.302034	-4.81302	0	
2.1340	0	-2.96803	0	
2.1347	0.302034	-2.96803	0	
2.1353	0.634271	-2.96803	0	
2.1360	1.54037	-1.14309	0	
2.1367	0.936304	-2.06559	0	
2.1373	0.634271	-5.11383	0	
2.1380	0.634271	-3.89052	0	
2.1387	-0.604067	0.681844	0	
2.1393	-2.41627	0.982658	0	
2.1400	-2.11424	-1.14309	0	
2.1407	-1.8122	-0.240651	0	
2.1413	-1.8122	0.982658	0	
2.1420	-0.906101	0.681844	0	
2.1427	-0.906101	1.90515	0	
2.1433	-1.51017	1.90515	0	
2.1440	0.936304	-1.14309	0	
2.1447	2.74851	0.381031	0	
2.1453	0.634271	3.12846	0	
2.1460	-2.11424	0.982658	0	
2.1467	-3.95664	1.60434	0	
2.1473	-7.61125	6.17671	0	
2.1480	-8.21532	5.25421	0	
2.1487	-5.79905	0.982658	0	
2.1493	-5.79905	0.681844	0	
2.1500	-5.79905	0.381031	0	
2.1507	-0.604067	-0.240651	0	
2.1513	4.28888	-0.240651	0	
2.1520	4.89295	-3.2889	0	
2.1527	4.59091	-5.71546	0	
2.1533	6.43332	-4.19134	0	
2.1540	9.78589	-3.89052	0	
2.1547	12.8364	-4.81302	0	
2.1553	14.6486	-3.58971	0	
2.1560	12.8364	-1.76477	0	
2.1567	6.43332	-3.58971	0	
2.1573	0.302034	-3.89052	0	
2.1580	-2.11424	-1.44391	0	
2.1587	-2.41627	-0.240651	0	
2.1593	-3.05054	-0.240651	0	
2.1600	-2.74851	0.681844	0	
2.1607	-3.05054	1.90515	0	
2.1613	-4.56071	2.20597	0	
2.1620	-4.86274	1.60434	0	
2.1627	-6.10108	1.60434	0	
2.1633	-10.0577	1.60434	0	
2.1640	-10.3598	0.080217	0	
2.1647	-4.86274	0.681844	0	
2.1653	-2.11424	3.42928	0	
2.1660	-2.11424	3.42928	0	
2.1667	-0.302034	0.080217	0	
2.1673	0.634271	-0.842278	0	
2.1680	-1.20813	1.60434	0	
2.1687	-0.302034	1.90515	0	
2.1693	2.44647	1.30353	0	
2.1700	3.68481	1.60434	0	
2.1707	3.38278	1.90515	0	
2.1713	3.98684	1.90515	0	
2.1720	4.89295	0.982658	0	
2.1727	5.49701	-2.96803	0	
2.1733	5.79905	-5.41465	0	
2.1740	6.73535	-3.2889	0	
2.1747	7.03738	-0.240651	0	
2.1753	5.19498	-0.541465	0	
2.1760	2.44647	-1.76477	0	
2.1767	0.302034	-1.14309	0	
2.1773	-0.906101	-1.14309	0	
2.1780	-1.20813	-1.14309	0	
2.1787	0.936304	-0.240651	0	
2.1793	3.38278	-1.14309	0	
2.1800	3.05054	-2.96803	0	
2.1807	2.14444	-2.06559	0	
2.1813	2.44647	0.681844	0	
2.1820	2.44647	2.50678	0	
2.1827	-1.20813	3.42928	0	
2.1833	-5.79905	3.12846	0	
2.1840	-9.75569	2.50678	0	
2.1847	-10.9638	3.42928	0	
2.1853	-8.54755	3.42928	0	
2.1860	-8.54755	2.82765	0	
2.1867	-11.2659	2.50678	0	
2.1873	-8.54755	1.60434	0	
2.1880	-2.11424	-0.842278	0	
2.1887	-2.11424	-0.240651	0	
2.1893	-1.51017	1.60434	0	
2.1900	4.28888	-0.842278	0	
2.1907	6.10108	-3.58971	0	
2.1913	2.74851	-1.76477	0	
2.1920	2.44647	0.681844	0	
2.1927	1.54037	0.381031	0	
2.1933	0.302034	-0.541465	0	
2.1940	4.28888	-2.96803	0	
2.1947	5.19498	-2.96803	0	
2.1953	-2.11424	1.60434	0	
2.1960	-4.25867	1.60434	0	
2.1967	0.302034	-2.06559	0	
2.1973	0.936304	-1.14309	0	
2.1980	-0.906101	-1.44391	0	
2.1987	1.54037	-2.96803	0	
2.1993	3.98684	-0.240651	0	
2.2000	2.44647	1.30353	0	
2.2007	1.54037	-2.06559	0	
2.2013	1.54037	-1.14309	0	
2.2020	0	-0.541465	0	
2.2027	-2.74851	-2.96803	0	
2.2033	-3.95664	-2.06559	0	
2.2040	-3.95664	-0.240651	0	
2.2047	-5.79905	-0.842278	0	
2.2053	-7.91328	0.982658	0	
2.2060	-9.15162	4.35177	0	
2.2067	-9.45365	3.42928	0	
2.2073	-8.54755	2.50678	0	
2.2080	-7.61125	3.42928	0	
2.2087	-7.61125	2.82765	0	
2.2093	-4.86274	0.080217	0	
2.2100	1.54037	-0.541465	0	
2.2107	5.79905	1.60434	0	
2.2113	6.10108	1.30353	0	
2.2120	5.19498	-2.3664	0	
2.2127	6.10108	-3.2889	0	
2.2133	7.94348	-1.44391	0	
2.2140	8.84959	-1.14309	0	
2.2147	7.33942	-1.44391	0	
2.2153	7.03738	-1.44391	0	
2.2160	7.03738	-2.96803	0	
2.2167	4.28888	-3.89052	0	
2.2173	2.44647	-2.3664	0	
2.2180	3.38278	-1.14309	0	
2.2187	3.38278	-1.76477	0	
2.2193	1.23834	-2.06559	0	
2.2200	-1.8122	-0.541465	0	
2.2207	-3.65461	0.381031	0	
2.2213	-1.20813	-2.06559	0	
2.2220	2.44647	-3.58971	0	
2.2227	1.84241	-2.3664	0	
2.2233	-0.302034	-2.06559	0	
2.2240	0.634271	-2.06559	0	
2.2247	-1.20813	-0.541465	0	
2.2253	-5.16478	0.681844	0	
2.2260	-4.86274	0.381031	0	
2.2267	-2.11424	0.080217	0	
2.2273	-1.51017	-1.44391	0	
2.2280	-1.20813	-2.3664	0	
2.2287	-1.8122	-0.541465	0	
2.2293	-2.41627	-0.240651	0	
2.2300	-0.604067	-1.76477	0	
2.2307	1.54037	-0.842278	0	
2.2313	0.634271	0.982658	0	
2.2320	-2.11424	-0.240651	0	
2.2327	-3.05054	-2.96803	0	
2.2333	-0.906101	-2.96803	0	
2.2340	4.28888	-1.14309	0	
2.2347	7.33942	-2.06559	0	
2.2353	4.59091	-3.89052	0	
2.2360	2.44647	-4.81302	0	
2.2367	3.38278	-4.81302	0	
2.2373	3.05054	-3.58971	0	
2.2380	0.302034	-2.06559	0	
2.2387	-0.302034	-2.3664	0	
2.2393	-0.604067	-1.44391	0	
2.2400	-3.05054	0.080217	0	
2.2407	-4.56071	-1.76477	0	
2.2413	-5.46681	-3.89052	0	
2.2420	-6.70515	-1.44391	0	
2.2427	-6.40311	1.30353	0	
2.2433	-5.79905	0.681844	0	
2.2440	-7.61125	-0.541465	0	
2.2447	-6.70515	-0.842278	0	
2.2453	-3.95664	-0.240651	0	
2.2460	-3.95664	-1.44391	0	
2.2467	-3.65461	-2.96803	0	
2.2473	-1.51017	-0.240651	0	
2.2480	0.634271	1.90515	0	
2.2487	4.89295	-1.44391	0	
2.2493	7.94348	-2.66721	0	
2.2500	6.10108	0.381031	0	
2.2507	5.19498	-1.14309	0	
2.2513	6.10108	-2.96803	0	
2.2520	5.19498	-1.14309	0	
2.2527	5.19498	-2.96803	0	
2.2533	7.64145	-5.11383	0	
2.2540	6.10108	-1.44391	0	
2.2547	1.54037	0.681844	0	
2.2553	-1.20813	-2.3664	0	
2.2560	-0.302034	-3.89052	0	
2.2567	2.44647	-2.96803	0	
2.2573	4.28888	-1.14309	0	
2.2580	3.38278	0.681844	0	
2.2587	3.05054	-1.14309	0	
2.2593	4.59091	-3.58971	0	
2.2600	3.38278	-1.14309	0	
2.2607	-0.604067	-0.240651	0	
2.2613	-4.86274	-2.06559	0	
2.2620	-9.15162	0.681844	0	
2.2627	-13.4103	4.35177	0	
2.2633	-14.9507	2.82765	0	
2.2640	-14.6486	0.681844	0	
2.2647	-14.0144	2.50678	0	
2.2653	-10.6618	3.12846	0	
2.2660	-6.10108	1.60434	0	
2.2667	-4.86274	1.60434	0	
2.2673	-5.79905	4.05096	0	
2.2680	-6.70515	4.65259	0	
2.2687	-6.70515	3.12846	0	
2.2693	-5.16478	3.42928	0	
2.2700	-3.05054	4.05096	0	
2.2707	-2.11424	2.20597	0	
2.2713	-0.302034	1.30353	0	
2.2720	3.38278	0.982658	0	
2.2727	8.24552	-1.14309	0	
2.2733	11.2961	-3.89052	0	
2.2740	9.78589	-5.41465	0	
2.2747	7.33942	-6.63796	0	
2.2753	8.84959	-5.41465	0	
2.2760	9.48386	-3.58971	0	
2.2767	6.43332	-3.58971	0	
2.2773	5.19498	-4.19134	0	
2.2780	7.03738	-3.89052	0	
2.2787	6.73535	-2.06559	0	
2.2793	3.38278	-1.14309	0	
2.2800	0.634271	-2.3664	0	
2.2807	-1.51017	-2.3664	0	
2.2813	-3.05054	0.381031	0	
2.2820	-3.05054	1.60434	0	
2.2827	-1.8122	-0.240651	0	
2.2833	-1.51017	-0.240651	0	
2.2840	-1.20813	1.30353	0	
2.2847	-0.906101	0.982658	0	
2.2853	-1.20813	0.681844	0	
2.2860	-1.20813	3.12846	0	
2.2867	-0.302034	3.42928	0	
2.2873	0.634271	2.20597	0	
2.2880	0.634271	4.05096	0	
2.2887	1.54037	4.65259	0	
2.2893	2.44647	1.90515	0	
2.2900	3.38278	1.90515	0	
2.2907	2.44647	3.42928	0	
2.2913	2.44647	0.681844	0	
2.2920	6.10108	-2.06559	0	
2.2927	7.33942	-0.240651	0	
2.2933	3.98684	-0.240651	0	
2.2940	0.936304	-1.44391	0	
2.2947	-0.906101	-0.541465	0	
2.2953	-2.11424	-0.541465	0	
2.2960	-1.51017	-0.541465	0	
2.2967	-0.906101	0.982658	0	
2.2973	-2.11424	-0.240651	0	
2.2980	-0.906101	-2.96803	0	
2.2987	-1.20813	0.080217	0	
2.2993	-5.16478	2.50678	0	
2.3000	-4.86274	-1.76477	0	
2.3007	-0.604067	-3.58971	0	
2.3013	-0.302034	-0.240651	0	
2.3020	-0.302034	0.982658	0	
2.3027	2.44647	-0.240651	0	
2.3033	1.54037	1.30353	0	
2.3040	-0.604067	2.82765	0	
2.3047	-0.906101	2.82765	0	
2.3053	0.634271	2.82765	0	
2.3060	2.14444	2.20597	0	
2.3067	1.54037	1.30353	0	
2.3073	-1.8122	0.681844	0	
2.3080	-2.11424	-0.240651	0	
2.3087	-0.302034	-2.66721	0	
2.3093	0	-2.96803	0	
2.3100	0.936304	-0.240651	0	
2.3107	2.44647	1.60434	0	
2.3113	0.302034	0.080217	0	
2.3120	-0.604067	-2.3664	0	
2.3127	2.44647	-2.66721	0	
2.3133	3.05054	-2.66721	0	
2.3140	0.302034	-3.89052	0	
2.3147	0.634271	-4.19134	0	
2.3153	2.44647	-3.89052	0	
2.3160	0.302034	-2.96803	0	
2.3167	-1.20813	-1.76477	0	
2.3173	0.634271	-2.06559	0	
2.3180	2.44647	-4.19134	0	
2.3187	2.44647	-5.11383	0	
2.3193	2.44647	-3.2889	0	
2.3200	4.28888	-1.14309	0	
2.3207	4.28888	-0.541465	0	
2.3213	3.05054	0.080217	0	
2.3220	1.54037	0.681844	0	
2.3227	-0.604067	0.982658	0	
2.3233	-4.56071	2.50678	0	
2.3240	-8.54755	3.73009	0	
2.3247	-11.2659	3.42928	0	
2.3253	-11.2659	1.90515	0	
2.3260	-10.3598	0.080217	0	
2.3267	-9.45365	-1.14309	0	
2.3273	-7.91328	-0.240651	0	
2.3280	-7.30921	2.20597	0	
2.3287	-7.61125	2.20597	0	
2.3293	-5.46681	0.080217	0	
2.3300	-0.302034	-0.541465	0	
2.3307	0.936304	-0.240651	0	
2.3313	1.23834	-0.842278	0	
2.3320	3.68481	-1.14309	0	
2.3327	4.89295	-2.3664	0	
2.3333	4.59091	-5.11383	0	
2.3340	5.79905	-6.63796	0	
2.3347	3.68481	-3.89052	0	
2.3353	2.14444	-2.96803	0	
2.3360	4.28888	-5.71546	0	
2.3367	3.68481	-6.93877	0	
2.3373	0.634271	-6.33714	0	
2.3380	2.44647	-5.71546	0	
2.3387	3.05054	-4.51221	0	
2.3393	-3.05054	-3.89052	0	
2.3400	-7.61125	-2.96803	0	
2.3407	-6.40311	-0.842278	0	
2.3413	-5.16478	-0.240651	0	
2.3420	-5.79905	-1.76477	0	
2.3427	-5.46681	-2.06559	0	
2.3433	-3.05054	-2.06559	0	
2.3440	-1.51017	-2.66721	0	
2.3447	-3.65461	0.681844	0	
2.3453	-5.16478	4.05096	0	
2.3460	-4.56071	2.20597	0	
2.3467	-4.86274	-0.240651	0	
2.3473	-5.16478	0.381031	0	
2.3480	-3.65461	2.20597	0	
2.3487	-2.41627	4.65259	0	
2.3493	-1.20813	4.35177	0	
2.3500	1.84241	0.982658	0	
2.3507	2.44647	0.681844	0	
2.3513	2.14444	3.12846	0	
2.3520	2.44647	2.50678	0	
2.3527	2.14444	-1.14309	0	
2.3533	1.54037	-3.2889	0	
2.3540	2.44647	-3.89052	0	
2.3547	2.44647	-2.96803	0	
2.3553	2.44647	-2.66721	0	
2.3560	2.44647	-3.58971	0	
2.3567	1.54037	-2.3664	0	
2.3573	3.98684	1.60434	0	
2.3580	6.43332	3.12846	0	
2.3587	5.49701	0.681844	0	
2.3593	6.73535	-1.14309	0	
2.3600	8.84959	-1.76477	0	
2.3607	4.59091	-1.14309	0	
2.3613	0	1.30353	0	
2.3620	0.634271	4.05096	0	
2.3627	0	3.73009	0	
2.3633	-1.8122	3.73009	0	
2.3640	-2.74851	5.25421	0	
2.3647	-7.91328	4.35177	0	
2.3653	-13.4103	3.42928	0	
2.3660	-10.6618	4.65259	0	
2.3667	-6.10108	3.42928	0	
2.3673	-5.79905	2.50678	0	
2.3680	-4.86274	6.17671	0	
2.3687	-6.10108	7.70083	0	
2.3693	-11.5981	4.35177	0	
2.3700	-12.8062	3.12846	0	
2.3707	-5.16478	3.12846	0	
2.3713	0.936304	2.50678	0	
2.3720	0.936304	2.82765	0	
2.3727	1.54037	1.30353	0	
2.3733	3.68481	-2.3664	0	
2.3740	5.19498	-2.66721	0	
2.3747	7.94348	-2.96803	0	
2.3753	9.48386	-5.11383	0	
2.3760	7.03738	-4.81302	0	
2.3767	6.10108	-3.2889	0	
2.3773	8.24552	-2.96803	0	
2.3780	5.79905	-2.06559	0	
2.3787	2.44647	-1.44391	0	
2.3793	2.44647	-0.541465	0	
2.3800	1.54037	2.20597	0	
2.3807	0	2.50678	0	
2.3813	1.54037	1.60434	0	
2.3820	1.23834	2.50678	0	
2.3827	-1.8122	1.90515	0	
2.3833	-2.41627	-0.240651	0	
2.3840	-3.05054	0.080217	0	
2.3847	-3.95664	2.50678	0	
2.3853	-1.51017	5.25421	0	
2.3860	0.302034	5.57508	0	
2.3867	-1.20813	2.50678	0	
2.3873	-1.8122	-0.240651	0	
2.3880	-0.906101	0.982658	0	
2.3887	0.634271	0.681844	0	
2.3893	2.14444	-0.240651	0	
2.3900	0.634271	0.982658	0	
2.3907	-0.302034	0.681844	0	
2.3913	4.28888	-1.44391	0	
2.3920	5.19498	-2.06559	0	
2.3927	-0.302034	-2.96803	0	
2.3933	-1.51017	-3.2889	0	
2.3940	2.14444	-1.76477	0	
2.3947	1.84241	-2.66721	0	
2.3953	1.84241	-5.41465	0	
2.3960	4.59091	-4.51221	0	
2.3967	2.74851	-2.3664	0	
2.3973	-2.41627	-2.96803	0	
2.3980	-3.35257	-2.96803	0	
2.3987	-1.20813	-1.44391	0	
2.3993	-1.20813	-0.842278	0	
2.4000	-3.95664	-1.14309	0	
2.4007	-3.95664	0.080217	0	
2.4013	-1.51017	2.50678	0	
2.4020	-1.20813	2.20597	0	
2.4027	-2.41627	1.60434	0	
2.4033	-3.05054	3.12846	0	
2.4040	-3.05054	2.50678	0	
2.4047	-0.302034	1.60434	0	
2.4053	2.44647	3.12846	0	
2.4060	0	4.05096	0	
2.4067	-2.74851	1.90515	0	
2.4073	1.54037	0.982658	0	
2.4080	5.19498	2.20597	0	
2.4087	2.44647	1.60434	0	
2.4093	-0.604067	-0.842278	0	
2.4100	-0.302034	-1.44391	0	
2.4107	1.54037	-0.240651	0	
2.4113	0.634271	0.681844	0	
2.4120	-3.05054	-0.240651	0	
2.4127	-4.86274	-2.06559	0	
2.4133	-2.74851	-3.89052	0	
2.4140	-0.302034	-2.66721	0	
2.4147	2.44647	-1.44391	0	
2.4153	3.68481	-3.89052	0	
2.4160	2.44647	-6.63796	0	
2.4167	1.54037	-6.33714	0	
2.4173	2.44647	-4.81302	0	
2.4180	2.44647	-4.51221	0	
2.4187	3.38278	-3.2889	0	
2.4193	4.28888	-2.06559	0	
2.4200	1.54037	-1.76477	0	
2.4207	-0.906101	0.982658	0	
2.4213	1.23834	4.35177	0	
2.4220	0.634271	3.42928	0	
2.4227	-3.05054	1.90515	0	
2.4233	-3.65461	4.35177	0	
2.4240	-0.302034	5.25421	0	
2.4247	2.44647	0.982658	0	
2.4253	3.38278	-1.14309	0	
2.4260	2.74851	1.60434	0	
2.4267	0.936304	3.42928	0	
2.4273	0.302034	2.82765	0	
2.4280	0.634271	1.60434	0	
2.4287	0.634271	-0.240651	0	
2.4293	-3.05054	-0.541465	0	
2.4300	-9.45365	1.60434	0	
2.4307	-10.9638	0.681844	0	
2.4313	-7.30921	-3.58971	0	
2.4320	-4.86274	-3.89052	0	
2.4327	-3.05054	-2.06559	0	
2.4333	0.634271	-2.96803	0	
2.4340	1.54037	-3.89052	0	
2.4347	1.54037	-4.19134	0	
2.4353	3.38278	-3.89052	0	
2.4360	3.68481	-1.44391	0	
2.4367	1.84241	0.681844	0	
2.4373	1.54037	-2.66721	0	
2.4380	2.44647	-5.11383	0	
2.4387	3.98684	-3.2889	0	
2.4393	2.74851	-2.06559	0	
2.4400	-1.8122	-2.06559	0	
2.4407	-4.56071	-0.541465	0	
2.4413	-2.11424	-1.14309	0	
2.4420	-0.302034	-2.06559	0	
2.4427	-1.20813	-1.76477	0	
2.4433	-2.41627	-2.96803	0	
2.4440	-2.74851	-1.76477	0	
2.4447	-2.11424	3.42928	0	
2.4453	-2.74851	4.35177	0	
2.4460	-2.11424	0.080217	0	
2.4467	0	0.982658	0	
2.4473	0.634271	4.05096	0	
2.4480	-1.20813	2.82765	0	
2.4487	-2.11424	0.982658	0	
2.4493	-3.05054	0.381031	0	
2.4500	-3.35257	-1.14309	0	
2.4507	0.634271	-1.76477	0	
2.4513	5.19498	-2.06559	0	
2.4520	5.49701	-3.58971	0	
2.4527	5.19498	-3.89052	0	
2.4533	6.43332	-2.96803	0	
2.4540	5.19498	-2.06559	0	
2.4547	2.44647	-1.44391	0	
2.4553	0.936304	-2.06559	0	
2.4560	-1.51017	-4.19134	0	
2.4567	-3.35257	-4.51221	0	
2.4573	-1.8122	-1.76477	0	
2.4580	0	-0.240651	0	
2.4587	-0.604067	-1.14309	0	
2.4593	-0.906101	-1.14309	0	
2.4600	-0.906101	-1.44391	0	
2.4607	-0.604067	-4.81302	0	
2.4613	0.936304	-5.41465	0	
2.4620	-0.906101	-0.240651	0	
2.4627	-4.86274	2.20597	0	
2.4633	-4.86274	-0.842278	0	
2.4640	-4.25867	-2.3664	0	
2.4647	-4.25867	-1.44391	0	
2.4653	-0.604067	-1.14309	0	
2.4660	0	0.681844	0	
2.4667	-3.35257	2.50678	0	
2.4673	-3.05054	1.60434	0	
2.4680	-1.20813	-0.240651	0	
2.4687	-1.20813	-1.14309	0	
2.4693	0.634271	-0.240651	0	
2.4700	2.14444	0.681844	0	
2.4707	2.14444	-2.06559	0	
2.4713	3.38278	-3.58971	0	
2.4720	3.68481	-1.76477	0	
2.4727	3.38278	-2.3664	0	
2.4733	4.28888	-4.51221	0	
2.4740	4.28888	-2.3664	0	
2.4747	3.68481	-0.240651	0	
2.4753	3.38278	-2.96803	0	
2.4760	-0.302034	-3.89052	0	
2.4767	-6.40311	-2.3664	0	
2.4773	-8.54755	-1.14309	0	
2.4780	-6.10108	-1.14309	0	
2.4787	-3.05054	-1.44391	0	
2.4793	-0.302034	-2.96803	0	
2.4800	0.936304	-2.06559	0	
2.4807	1.54037	0.982658	0	
2.4813	1.54037	2.50678	0	
2.4820	0.302034	2.20597	0	
2.4827	-2.11424	4.35177	0	
2.4833	-3.65461	7.0992	0	
2.4840	-3.95664	6.17671	0	
2.4847	-2.74851	4.35177	0	
2.4853	-1.20813	3.73009	0	
2.4860	-1.8122	4.35177	0	
2.4867	-4.86274	4.65259	0	
2.4873	-7.00718	4.05096	0	
2.4880	-3.95664	1.90515	0	
2.4887	0.936304	2.50678	0	
2.4893	0.302034	4.35177	0	
2.4900	-1.8122	2.82765	0	
2.4907	0.302034	1.30353	0	
2.4913	0.936304	1.90515	0	
2.4920	1.54037	1.30353	0	
2.4927	5.19498	-0.240651	0	
2.4933	6.10108	-1.14309	0	
2.4940	3.38278	-2.66721	0	
2.4947	2.74851	-3.89052	0	
2.4953	3.68481	-3.58971	0	
2.4960	3.38278	-2.66721	0	
2.4967	3.68481	-3.89052	0	
2.4973	2.74851	-5.71546	0	
2.4980	0.302034	-4.51221	0	
2.4987	-0.302034	-1.76477	0	
2.4993	-0.604067	-2.06559	0	
2.5000	-2.41627	-4.19134	0	
2.5007	-1.20813	-2.3664	0	
2.5013	0.634271	0.381031	0	
2.5020	-1.20813	0.681844	0	
2.5027	-3.95664	0.681844	0	
2.5033	-3.35257	1.30353	0	
2.5040	-3.05054	2.82765	0	
2.5047	-4.56071	5.57508	0	
2.5053	-3.05054	4.65259	0	
2.5060	-0.604067	0.681844	0	
2.5067	-1.51017	0.681844	0	
2.5073	-0.906101	2.50678	0	
2.5080	2.14444	3.42928	0	
2.5087	0.302034	4.35177	0	
2.5093	-2.74851	2.82765	0	
2.5100	0	0.681844	0	
2.5107	2.74851	1.30353	0	
2.5113	2.44647	-1.14309	0	
2.5120	3.68481	-5.11383	0	
2.5127	4.89295	-4.51221	0	
2.5133	4.28888	-2.06559	0	
2.5140	5.49701	-2.3664	0	
2.5147	4.89295	-2.06559	0	
2.5153	2.44647	-1.14309	0	
2.5160	2.44647	-3.89052	0	
2.5167	2.44647	-5.71546	0	
2.5173	-0.906101	-3.89052	0	
2.5180	-1.20813	-2.3664	0	
2.5187	-0.302034	-1.14309	0	
2.5193	-2.41627	-0.842278	0	
2.5200	-0.906101	-1.14309	0	
2.5207	4.28888	-0.541465	0	
2.5213	2.44647	1.30353	0	
2.5220	-2.11424	4.35177	0	
2.5227	-2.11424	7.0992	0	
2.5233	-2.11424	5.25421	0	
2.5240	-6.10108	0.381031	0	
2.5247	-6.70515	-0.842278	0	
2.5253	-3.05054	0.982658	0	
2.5260	-1.8122	1.30353	0	
2.5267	-1.51017	1.90515	0	
2.5273	0.302034	2.82765	0	
2.5280	1.23834	2.50678	0	
2.5287	1.84241	2.20597	0	
2.5293	0.936304	2.20597	0	
2.5300	-2.11424	1.60434	0	
2.5307	-2.11424	0.681844	0	
2.5313	2.44647	-0.240651	0	
2.5320	3.98684	-2.06559	0	
2.5327	4.28888	-2.66721	0	
2.5333	7.03738	-1.14309	0	
2.5340	6.10108	0.681844	0	
2.5347	2.44647	-0.842278	0	
2.5353	1.84241	-3.89052	0	
2.5360	2.74851	-2.3664	0	
2.5367	-0.604067	0.381031	0	
2.5373	-6.40311	-1.14309	0	
2.5380	-9.75569	-2.06559	0	
2.5387	-11.2659	-0.541465	0	
2.5393	-8.54755	-1.76477	0	
2.5400	-0.604067	-2.66721	0	
2.5407	3.68481	-0.842278	0	
2.5413	2.14444	-0.240651	0	
2.5420	-0.906101	0.080217	0	
2.5427	-2.74851	2.82765	0	
2.5433	-4.25867	3.42928	0	
2.5440	-2.11424	4.35177	0	
2.5447	0.634271	7.40002	0	
2.5453	-1.20813	4.05096	0	
2.5460	-3.05054	-2.06559	0	
2.5467	-0.906101	0.681844	0	
2.5473	-1.20813	4.35177	0	
2.5480	-4.86274	2.50678	0	
2.5487	-4.86274	1.60434	0	
2.5493	-2.41627	2.20597	0	
2.5500	-2.74851	2.20597	0	
2.5507	-3.05054	1.30353	0	
2.5513	0.302034	-1.14309	0	
2.5520	2.44647	-3.89052	0	
2.5527	2.44647	-3.89052	0	
2.5533	3.98684	-3.89052	0	
2.5540	6.10108	-3.89052	0	
2.5547	4.28888	-2.06559	0	
2.5553	1.84241	-2.06559	0	
2.5560	1.23834	-3.58971	0	
2.5567	1.54037	-2.96803	0	
2.5573	1.54037	-3.89052	0	
2.5580	1.23834	-5.11383	0	
2.5587	0	-3.89052	0	
2.5593	0.302034	-2.06559	0	
2.5600	0.936304	-3.2889	0	
2.5607	-0.302034	-3.58971	0	
2.5613	-1.51017	-1.44391	0	
2.5620	-1.51017	-0.541465	0	
2.5627	-1.20813	-0.240651	0	
2.5633	-0.302034	1.30353	0	
2.5640	0.634271	0.982658	0	
2.5647	0.634271	0.381031	0	
2.5653	-0.302034	0.681844	0	
2.5660	-0.906101	0.681844	0	
2.5667	-2.41627	-0.541465	0	
2.5673	-4.56071	-0.541465	0	
2.5680	-5.79905	0.080217	0	
2.5687	-6.70515	-0.842278	0	
2.5693	-6.70515	-2.96803	0	
2.5700	-4.86274	-3.2889	0	
2.5707	-1.8122	0.381031	0	
2.5713	-1.20813	1.60434	0	
2.5720	-2.74851	-2.3664	0	
2.5727	-1.51017	-4.81302	0	
2.5733	-0.302034	-4.19134	0	
2.5740	-2.11424	-3.89052	0	
2.5747	-2.11424	-3.89052	0	
2.5753	1.23834	-2.96803	0	
2.5760	2.74851	-2.96803	0	
2.5767	3.38278	-4.51221	0	
2.5773	4.89295	-5.11383	0	
2.5780	2.74851	-3.89052	0	
2.5787	-0.604067	-0.541465	0	
2.5793	-0.302034	0.681844	0	
2.5800	0.634271	-1.14309	0	
2.5807	-2.11424	-2.06559	0	
2.5813	-2.74851	-0.240651	0	
2.5820	-0.302034	-0.240651	0	
2.5827	-0.302034	-1.14309	0	
2.5833	-1.20813	0.080217	0	
2.5840	-1.51017	2.20597	0	
2.5847	-2.74851	2.50678	0	
2.5853	-2.74851	2.20597	0	
2.5860	-1.20813	2.82765	0	
2.5867	-2.74851	2.82765	0	
2.5873	-2.74851	0.080217	0	
2.5880	1.84241	-1.76477	0	
2.5887	4.28888	-0.240651	0	
2.5893	2.44647	0.681844	0	
2.5900	1.84241	0.982658	0	
2.5907	2.44647	3.42928	0	
2.5913	2.44647	4.35177	0	
2.5920	3.38278	0.381031	0	
2.5927	4.89295	-1.76477	0	
2.5933	1.84241	-0.541465	0	
2.5940	-2.11424	-1.44391	0	
2.5947	-3.35257	-3.2889	0	
2.5953	-4.86274	-3.58971	0	
2.5960	-5.16478	-3.89052	0	
2.5967	-0.302034	-2.3664	0	
2.5973	4.89295	2.50678	0	
2.5980	3.38278	2.50678	0	
2.5987	0	-2.66721	0	
2.5993	-0.604067	-3.89052	0	
2.6000	0	-1.14309	0	
2.6007	2.44647	-0.541465	0	
2.6013	4.28888	-2.06559	0	
2.6020	2.44647	0.381031	0	
2.6027	-1.8122	4.05096	0	
2.6033	-3.95664	2.50678	0	
2.6040	-5.79905	0.381031	0	
2.6047	-6.10108	2.82765	0	
2.6053	-3.95664	4.35177	0	
2.6060	-3.05054	2.20597	0	
2.6067	-2.41627	-0.541465	0	
2.6073	0.634271	-2.3664	0	
2.6080	0.634271	-1.76477	0	
2.6087	-2.41627	1.90515	0	
2.6093	-4.25867	1.60434	0	
2.6100	-3.95664	-1.44391	0	
2.6107	-2.11424	-1.14309	0	
2.6113	0.634271	0.381031	0	
2.6120	2.14444	-1.44391	0	
2.6127	2.74851	-3.58971	0	
2.6133	4.28888	-3.2889	0	
2.6140	4.28888	-2.06559	0	
2.6147	4.28888	-2.66721	0	
2.6153	6.43332	-3.89052	0	
2.6160	7.94348	-3.89052	0	
2.6167	7.33942	-3.58971	0	
2.6173	6.73535	-3.89052	0	
2.6180	5.79905	-3.2889	0	
2.6187	6.43332	-1.14309	0	
2.6193	6.10108	0.080217	0	
2.6200	3.38278	2.50678	0	
2.6207	3.38278	3.42928	0	
2.6213	3.68481	1.30353	0	
2.6220	0	1.30353	0	
2.6227	-3.05054	3.73009	0	
2.6233	-2.11424	3.42928	0	
2.6240	-3.05054	2.20597	0	
2.6247	-3.95664	2.82765	0	
2.6253	-3.95664	3.73009	0	
2.6260	-3.95664	3.12846	0	
2.6267	-4.25867	2.82765	0	
2.6273	-5.16478	3.73009	0	
2.6280	-7.00718	4.05096	0	
2.6287	-7.91328	3.42928	0	
2.6293	-8.54755	3.42928	0	
2.6300	-7.91328	2.20597	0	
2.6307	-4.86274	0.681844	0	
2.6313	-1.8122	0.080217	0	
2.6320	1.54037	-0.842278	0	
2.6327	4.28888	-2.3664	0	
2.6333	3.98684	-2.3664	0	
2.6340	3.38278	-1.76477	0	
2.6347	6.43332	-2.3664	0	
2.6353	7.94348	-2.96803	0	
2.6360	5.49701	-2.96803	0	
2.6367	4.28888	-1.76477	0	
2.6373	3.68481	1.30353	0	
2.6380	5.49701	2.20597	0	
2.6387	7.64145	0.080217	0	
2.6393	4.59091	-0.541465	0	
2.6400	1.54037	1.60434	0	
2.6407	1.54037	2.50678	0	
2.6413	-2.11424	3.42928	0	
2.6420	-8.54755	4.05096	0	
2.6427	-9.45365	2.50678	0	
2.6433	-9.15162	2.20597	0	
2.6440	-11.2659	3.42928	0	
2.6447	-10.3598	2.82765	0	
2.6453	-7.30921	1.60434	0	
2.6460	-7.30921	2.50678	0	
2.6467	-6.10108	5.25421	0	
2.6473	-2.41627	5.57508	0	
2.6480	-0.604067	2.50678	0	
2.6487	-2.11424	-0.240651	0	
2.6493	-2.11424	-0.240651	0	
2.6500	1.54037	1.60434	0	
2.6507	3.05054	1.90515	0	
2.6513	0.302034	1.60434	0	
2.6520	-0.302034	0.381031	0	
2.6527	2.44647	-2.96803	0	
2.6533	2.14444	-6.33714	0	
2.6540	-0.604067	-4.51221	0	
2.6547	-0.906101	-1.76477	0	
2.6553	0.634271	-2.66721	0	
2.6560	1.84241	-3.89052	0	
2.6567	1.84241	-2.3664	0	
2.6573	1.54037	-1.76477	0	
2.6580	1.84241	-2.06559	0	
2.6587	2.74851	-0.842278	0	
2.6593	3.68481	0.080217	0	
2.6600	2.44647	-0.541465	0	
2.6607	0.634271	-0.842278	0	
2.6613	0.634271	0.080217	0	
2.6620	1.84241	1.30353	0	
2.6627	1.23834	1.60434	0	
2.6633	0	0.982658	0	
2.6640	-1.20813	1.90515	0	
2.6647	-4.25867	4.35177	0	
2.6653	-6.40311	4.35177	0	
2.6660	-5.79905	1.30353	0	
2.6667	-3.95664	0.080217	0	
2.6673	-2.11424	0.681844	0	
2.6680	-2.41627	1.30353	0	
2.6687	-5.79905	1.60434	0	
2.6693	-4.56071	0.681844	0	
2.6700	0.634271	-0.541465	0	
2.6707	2.14444	0.080217	0	
2.6713	3.38278	-0.240651	0	
2.6720	9.78589	-2.66721	0	
2.6727	13.4405	-2.96803	0	
2.6733	10.994	-2.06559	0	
2.6740	9.78589	-2.3664	0	
2.6747	7.03738	-1.44391	0	
2.6753	0.634271	-0.240651	0	
2.6760	-1.20813	-0.240651	0	
2.6767	0.302034	1.60434	0	
2.6773	-3.35257	1.90515	0	
2.6780	-6.70515	-1.76477	0	
2.6787	-3.95664	-2.06559	0	
2.6793	-0.906101	1.60434	0	
2.6800	-2.11424	0.982658	0	
2.6807	-4.86274	-0.842278	0	
2.6813	-7.61125	1.60434	0	
2.6820	-9.45365	2.82765	0	
2.6827	-6.40311	-0.541465	0	
2.6833	-3.65461	-1.14309	0	
2.6840	-5.79905	1.60434	0	
2.6847	-7.30921	2.20597	0	
2.6853	-3.05054	2.50678	0	
2.6860	-0.302034	3.12846	0	
2.6867	-2.11424	0.982658	0	
2.6873	-2.11424	-0.240651	0	
2.6880	0	1.30353	0	
2.6887	2.44647	2.20597	0	
2.6893	5.19498	3.12846	0	
2.6900	6.10108	1.90515	0	
2.6907	5.19498	-1.44391	0	
2.6913	5.79905	-1.76477	0	
2.6920	7.64145	-0.240651	0	
2.6927	7.03738	-2.3664	0	
2.6933	6.10108	-3.89052	0	
2.6940	3.38278	-2.06559	0	
2.6947	-3.95664	-1.14309	0	
2.6953	-9.15162	-2.96803	0	
2.6960	-7.61125	-2.3664	0	
2.6967	-4.86274	0.080217	0	
2.6973	-5.16478	0.080217	0	
2.6980	-5.79905	-3.2889	0	
2.6987	-4.86274	-3.89052	0	
2.6993	-3.65461	-0.240651	0	
2.7000	-2.11424	1.90515	0	
2.7007	-0.906101	0.080217	0	
2.7013	-0.302034	-0.541465	0	
2.7020	-1.20813	-0.541465	0	
2.7027	-2.11424	-1.76477	0	
2.7033	-1.51017	-2.3664	0	
2.7040	-2.11424	-2.66721	0	
2.7047	-4.56071	0.381031	0	
2.7053	-7.30921	6.17671	0	
2.7060	-8.54755	5.25421	0	
2.7067	-7.91328	-1.14309	0	
2.7073	-4.86274	-0.541465	0	
2.7080	-3.35257	3.42928	0	
2.7087	-3.35257	2.20597	0	
2.7093	0.634271	-1.14309	0	
2.7100	4.89295	-2.06559	0	
2.7107	6.43332	-1.14309	0	
2.7113	8.84959	-0.240651	0	
2.7120	8.84959	-1.76477	0	
2.7127	5.19498	-3.2889	0	
2.7133	5.19498	-2.3664	0	
2.7140	8.84959	-2.06559	0	
2.7147	6.10108	-4.19134	0	
2.7153	2.44647	-5.71546	0	
2.7160	5.19498	-5.41465	0	
2.7167	7.33942	-4.19134	0	
2.7173	3.98684	-3.89052	0	
2.7180	1.84241	-4.51221	0	
2.7187	3.05054	-3.58971	0	
2.7193	3.38278	-2.3664	0	
2.7200	2.44647	-2.3664	0	
2.7207	1.54037	-1.14309	0	
2.7213	0	0.381031	0	
2.7220	-2.11424	-1.76477	0	
2.7227	-1.20813	-1.76477	0	
2.7233	0.634271	1.90515	0	
2.7240	1.23834	2.50678	0	
2.7247	2.44647	1.60434	0	
2.7253	5.79905	2.50678	0	
2.7260	6.73535	2.50678	0	
2.7267	3.38278	2.20597	0	
2.7273	0.634271	1.60434	0	
2.7280	-0.906101	0.381031	0	
2.7287	-1.8122	1.90515	0	
2.7293	-0.906101	3.73009	0	
2.7300	-2.11424	0.681844	0	
2.7307	-4.86274	-1.14309	0	
2.7313	-4.25867	0.681844	0	
2.7320	-2.11424	-1.76477	0	
2.7327	-2.74851	-4.81302	0	
2.7333	-0.906101	-3.89052	0	
2.7340	1.84241	-3.89052	0	
2.7347	0.634271	-6.33714	0	
2.7353	2.14444	-6.93877	0	
2.7360	6.43332	-5.41465	0	
2.7367	6.10108	-3.89052	0	
2.7373	2.44647	-3.89052	0	
2.7380	0.634271	-3.89052	0	
2.7387	0.302034	-2.96803	0	
2.7393	0	-2.96803	0	
2.7400	-0.302034	-3.89052	0	
2.7407	-1.20813	-3.2889	0	
2.7413	-1.51017	-2.06559	0	
2.7420	-1.51017	-0.240651	0	
2.7427	-5.16478	2.20597	0	
2.7433	-8.54755	4.35177	0	
2.7440	-7.61125	4.35177	0	
2.7447	-4.86274	4.35177	0	
2.7453	-2.41627	2.50678	0	
2.7460	-0.906101	-0.240651	0	
2.7467	-1.20813	-0.240651	0	
2.7473	-1.20813	0.080217	0	
2.7480	0.302034	-1.14309	0	
2.7487	0.634271	-1.76477	0	
2.7493	0	-2.96803	0	
2.7500	-0.302034	-2.96803	0	
2.7507	-1.20813	-0.541465	0	
2.7513	-1.8122	0.982658	0	
2.7520	2.44647	-0.541465	0	
2.7527	8.54755	-3.89052	0	
2.7533	7.94348	-4.81302	0	
2.7540	4.59091	-2.96803	0	
2.7547	5.79905	-1.14309	0	
2.7553	5.19498	-1.44391	0	
2.7560	1.54037	-2.96803	0	
2.7567	-1.20813	-2.66721	0	
2.7573	-2.41627	-0.842278	0	
2.7580	-3.05054	1.60434	0	
2.7587	-1.20813	0.681844	0	
2.7593	-1.20813	-2.3664	0	
2.7600	-3.05054	-2.96803	0	
2.7607	-2.11424	-0.240651	0	
2.7613	-3.95664	1.90515	0	
2.7620	-8.54755	3.42928	0	
2.7627	-7.30921	2.50678	0	
2.7633	-4.25867	2.50678	0	
2.7640	-6.70515	5.25421	0	
2.7647	-6.70515	6.77834	0	
2.7653	0.634271	5.25421	0	
2.7660	3.05054	6.17671	0	
2.7667	-0.302034	5.87589	0	
2.7673	-1.20813	0.982658	0	
2.7680	1.54037	-1.14309	0	
2.7687	2.14444	0.381031	0	
2.7693	0.634271	0.080217	0	
2.7700	-0.302034	-1.14309	0	
2.7707	-1.51017	-0.240651	0	
2.7713	-4.25867	-1.44391	0	
2.7720	-6.40311	-2.66721	0	
2.7727	-6.10108	-1.14309	0	
2.7733	-4.86274	-1.14309	0	
2.7740	-3.65461	-3.89052	0	
2.7747	-0.302034	-3.89052	0	
2.7753	4.28888	-1.14309	0	
2.7760	7.94348	-0.240651	0	
2.7767	8.54755	-3.2889	0	
2.7773	5.79905	-4.81302	0	
2.7780	0.634271	-2.96803	0	
2.7787	-4.56071	0.381031	0	
2.7793	-7.00718	-0.240651	0	
2.7800	-6.10108	-2.06559	0	
2.7807	-4.56071	-1.14309	0	
2.7813	-5.46681	0.681844	0	
2.7820	-7.00718	1.60434	0	
2.7827	-4.86274	4.9534	0	
2.7833	-3.05054	7.0992	0	
2.7840	-5.46681	4.05096	0	
2.7847	-7.30921	-0.240651	0	
2.7853	-2.74851	0.381031	0	
2.7860	1.84241	3.73009	0	
2.7867	-0.906101	3.42928	0	
2.7873	-3.95664	0.681844	0	
2.7880	-0.302034	0.381031	0	
2.7887	3.38278	-0.240651	0	
2.7893	2.74851	-1.44391	0	
2.7900	2.44647	-1.44391	0	
2.7907	2.14444	-1.76477	0	
2.7913	0	-2.66721	0	
2.7920	-0.604067	-1.76477	0	
2.7927	0.634271	-0.541465	0	
2.7933	2.44647	-0.842278	0	
2.7940	5.19498	-1.76477	0	
2.7947	6.73535	-3.2889	0	
2.7953	5.49701	-3.89052	0	
2.7960	7.03738	-2.3664	0	
2.7967	7.94348	-2.06559	0	
2.7973	5.19498	-3.89052	0	
2.7980	2.74851	-2.96803	0	
2.7987	2.44647	-2.96803	0	
2.7993	0.634271	-3.89052	0	
2.8000	-0.302034	-1.44391	0	
2.8007	0.634271	0.080217	0	
2.8013	0.302034	-2.96803	0	
2.8020	0	-2.96803	0	
2.8027	-1.51017	-0.240651	0	
2.8033	-4.86274	-1.14309	0	
2.8040	-3.05054	-2.06559	0	
2.8047	3.38278	0.080217	0	
2.8053	6.10108	1.60434	0	
2.8060	5.49701	3.12846	0	
2.8067	5.79905	3.42928	0	
2.8073	4.59091	0.080217	0	
2.8080	0.936304	-1.44391	0	
2.8087	-1.20813	0.080217	0	
2.8093	-0.906101	0.681844	0	
2.8100	-2.11424	1.30353	0	
2.8107	-3.35257	0.982658	0	
2.8113	-2.11424	-1.14309	0	
2.8120	0	-3.2889	0	
2.8127	1.84241	-3.89052	0	
2.8133	3.38278	-4.51221	0	
2.8140	4.28888	-4.19134	0	
2.8147	3.38278	-3.89052	0	
2.8153	2.44647	-3.89052	0	
2.8160	1.84241	-2.96803	0	
2.8167	2.44647	-1.14309	0	
2.8173	3.05054	0.080217	0	
2.8180	3.05054	1.60434	0	
2.8187	1.84241	0.080217	0	
2.8193	1.54037	-2.66721	0	
2.8200	2.44647	-1.76477	0	
2.8207	1.84241	1.30353	0	
2.8213	0.302034	1.60434	0	
2.8220	0.634271	-0.240651	0	
2.8227	0.936304	-0.240651	0	
2.8233	-1.51017	2.20597	0	
2.8240	-2.41627	2.50678	0	
2.8247	-2.11424	0.982658	0	
2.8253	-2.41627	1.60434	0	
2.8260	-0.604067	2.20597	0	
2.8267	1.54037	-0.240651	0	
2.8273	-1.51017	-0.240651	0	
2.8280	-3.95664	4.05096	0	
2.8287	-3.05054	4.35177	0	
2.8293	-4.86274	0.381031	0	
2.8300	-6.70515	-0.240651	0	
2.8307	-6.70515	3.12846	0	
2.8313	-6.10108	1.30353	0	
2.8320	-5.79905	-3.58971	0	
2.8327	-3.35257	-2.96803	0	
2.8333	-0.906101	-1.44391	0	
2.8340	1.23834	-4.19134	0	
2.8347	0.634271	-3.89052	0	
2.8353	-2.41627	0.381031	0	
2.8360	-3.05054	-0.541465	0	
2.8367	0.634271	-2.06559	0	
2.8373	2.44647	1.60434	0	
2.8380	1.54037	0.681844	0	
2.8387	0	-3.89052	0	
2.8393	-2.41627	-2.06559	0	
2.8400	-4.86274	0.381031	0	
2.8407	-4.86274	-2.06559	0	
2.8413	-3.65461	-0.541465	0	
2.8420	-2.74851	3.42928	0	
2.8427	-0.604067	1.60434	0	
2.8433	0.302034	0.381031	0	
2.8440	-0.604067	3.42928	0	
2.8447	0	3.73009	0	
2.8453	1.54037	2.82765	0	
2.8460	1.23834	3.73009	0	
2.8467	2.44647	3.42928	0	
2.8473	5.19498	2.82765	0	
2.8480	2.14444	3.42928	0	
2.8487	-3.35257	2.50678	0	
2.8493	-5.79905	1.30353	0	
2.8500	-6.70515	1.60434	0	
2.8507	-6.70515	-0.240651	0	
2.8513	-4.25867	-2.96803	0	
2.8520	-2.11424	-2.96803	0	
2.8527	2.44647	-1.76477	0	
2.8533	6.43332	-3.2889	0	
2.8540	4.28888	-3.89052	0	
2.8547	0.634271	-1.14309	0	
2.8553	0.302034	-0.240651	0	
2.8560	0.936304	-1.44391	0	
2.8567	2.44647	-2.06559	0	
2.8573	4.59091	-3.2889	0	
2.8580	3.68481	-4.51221	0	
2.8587	2.44647	-3.58971	0	
2.8593	0.634271	-3.2889	0	
2.8600	-4.25867	-4.81302	0	
2.8607	-7.91328	-2.3664	0	
2.8613	-7.61125	0.681844	0	
2.8620	-9.15162	-1.14309	0	
2.8627	-12.2022	-1.76477	0	
2.8633	-13.1083	1.60434	0	
2.8640	-11.2659	2.20597	0	
2.8647	-8.54755	2.20597	0	
2.8653	-3.95664	4.65259	0	
2.8660	0.936304	3.73009	0	
2.8667	2.44647	0.982658	0	
2.8673	0.936304	1.60434	0	
2.8680	-0.302034	1.60434	0	
2.8687	0.634271	1.90515	0	
2.8693	1.84241	4.35177	0	
2.8700	2.44647	3.42928	0	
2.8707	2.44647	0.080217	0	
2.8713	2.14444	0.080217	0	
2.8720	2.14444	-1.44391	0	
2.8727	2.44647	-4.51221	0	
2.8733	2.74851	-3.2889	0	
2.8740	3.38278	-2.06559	0	
2.8747	3.38278	-3.58971	0	
2.8753	3.38278	-2.06559	0	
2.8760	5.19498	-2.06559	0	
2.8767	5.49701	-4.19134	0	
2.8773	3.05054	-2.96803	0	
2.8780	1.54037	-2.06559	0	
2.8787	3.05054	-5.71546	0	
2.8793	3.68481	-4.81302	0	
2.8800	0.302034	-2.06559	0	
2.8807	-3.05054	-2.3664	0	
2.8813	-3.05054	0.080217	0	
2.8820	-3.95664	5.25421	0	
2.8827	-5.79905	4.9534	0	
2.8833	-3.95664	1.90515	0	
2.8840	-1.8122	0.681844	0	
2.8847	-3.35257	1.60434	0	
2.8853	-6.70515	4.35177	0	
2.8860	-7.91328	4.35177	0	
2.8867	-6.40311	1.30353	0	
2.8873	-5.16478	0.381031	0	
2.8880	-5.16478	1.90515	0	
2.8887	-4.25867	2.50678	0	
2.8893	-1.8122	1.60434	0	
2.8900	0	-1.14309	0	
2.8907	3.05054	-3.89052	0	
2.8913	8.84959	-4.51221	0	
2.8920	12.2324	-4.19134	0	
2.8927	10.692	-4.81302	0	
2.8933	6.73535	-4.81302	0	
2.8940	3.68481	-4.81302	0	
2.8947	3.38278	-5.41465	0	
2.8953	4.89295	-4.19134	0	
2.8960	7.94348	-2.96803	0	
2.8967	10.994	-2.3664	0	
2.8973	11.2961	-1.76477	0	
2.8980	6.43332	-1.14309	0	
2.8987	3.68481	-1.44391	0	
2.8993	6.43332	-0.240651	0	
2.9000	6.43332	0.681844	0	
2.9007	2.14444	-1.14309	0	
2.9013	0.302034	-1.76477	0	
2.9020	-0.302034	0.681844	0	
2.9027	-6.40311	2.50678	0	
2.9033	-13.1083	3.73009	0	
2.9040	-14.6486	3.73009	0	
2.9047	-11.2659	0.982658	0	
2.9053	-4.86274	-0.842278	0	
2.9060	-0.906101	0.681844	0	
2.9067	-1.8122	2.20597	0	
2.9073	-2.74851	3.12846	0	
2.9080	-2.41627	4.9534	0	
2.9087	-3.95664	5.25421	0	
2.9093	-4.56071	2.20597	0	
2.9100	-3.95664	-2.06559	0	
2.9107	-3.95664	-3.89052	0	
2.9113	-4.86274	-2.96803	0	
2.9120	-5.16478	-2.06559	0	
2.9127	-5.79905	-2.96803	0	
2.9133	-5.16478	-4.81302	0	
2.9140	-4.56071	-4.81302	0	
2.9147	-4.25867	-3.89052	0	
2.9153	-3.35257	-3.89052	0	
2.9160	-2.74851	-3.2889	0	
2.9167	-1.51017	-1.76477	0	
2.9173	3.05054	-1.76477	0	
2.9180	8.84959	-2.96803	0	
2.9187	11.2961	-2.06559	0	
2.9193	9.15162	-2.96803	0	
2.9200	7.94348	-4.81302	0	
2.9207	8.24552	-3.58971	0	
2.9213	5.79905	-1.14309	0	
2.9220	0.302034	-3.58971	0	
2.9227	-2.11424	-4.51221	0	
2.9233	-2.11424	-1.14309	0	
2.9240	-3.05054	1.60434	0	
2.9247	-2.11424	2.50678	0	
2.9253	-0.302034	1.60434	0	
2.9260	-0.302034	-1.14309	0	
2.9267	0.936304	-0.541465	0	
2.9273	1.23834	0.982658	0	
2.9280	-1.20813	-0.541465	0	
2.9287	-0.906101	-0.541465	0	
2.9293	1.84241	2.50678	0	
2.9300	1.23834	1.30353	0	
2.9307	-0.906101	-1.14309	0	
2.9313	0	-0.541465	0	
