0.0007	-4.90658	5.69006	0	
0.0013	-7.34142	3.53435	0	
0.0020	-8.26371	4.16101	0	
0.0027	-6.124	6.29165	0	
0.0033	-5.82887	5.69006	0	
0.0040	-7.63656	3.53435	0	
0.0047	-7.63656	2.63196	0	
0.0053	-6.124	3.23356	0	
0.0060	-4.90658	5.0634	0	
0.0067	-4.27942	5.36419	0	
0.0073	-4.61145	3.23356	0	
0.0080	-5.53374	1.70451	0	
0.0087	-5.53374	2.93276	0	
0.0093	-3.98429	2.93276	0	
0.0100	0.295133	-0.125332	0	
0.0107	4.24253	-2.25597	0	
0.0113	6.08711	-3.78502	0	
0.0120	7.0094	-4.38661	0	
0.0127	8.81709	-2.25597	0	
0.0133	8.52195	-1.95517	0	
0.0140	6.08711	-6.84311	0	
0.0147	6.08711	-10.8036	0	
0.0153	7.0094	-6.21645	0	
0.0160	5.16482	-1.32852	0	
0.0167	4.24253	-1.95517	0	
0.0173	3.32024	-3.48422	0	
0.0180	2.39795	-2.85756	0	
0.0187	5.16482	-1.95517	0	
0.0193	7.30453	1.10292	0	
0.0200	2.39795	3.53435	0	
0.0207	-2.1766	4.46181	0	
0.0213	-1.25431	7.19404	0	
0.0220	-2.76687	9.02388	0	
0.0227	-5.20171	6.29165	0	
0.0233	-3.062	3.53435	0	
0.0240	-2.47174	5.36419	0	
0.0247	-4.90658	5.36419	0	
0.0253	-3.98429	3.53435	0	
0.0260	-1.25431	4.16101	0	
0.0267	-0.332024	4.46181	0	
0.0273	-0.627157	1.40371	0	
0.0280	0.295133	-1.02772	0	
0.0287	0.590265	-0.426128	0	
0.0293	-0.332024	1.70451	0	
0.0300	-0.332024	1.40371	0	
0.0307	1.51255	-2.85756	0	
0.0313	1.80769	-5.61486	0	
0.0320	2.39795	-5.61486	0	
0.0327	6.08711	-5.91565	0	
0.0333	7.0094	-5.91565	0	
0.0340	3.32024	-4.6874	0	
0.0347	2.39795	-3.78502	0	
0.0353	1.51255	-2.85756	0	
0.0360	-2.1766	-1.02772	0	
0.0367	-3.062	-1.95517	0	
0.0373	-1.54945	-1.65438	0	
0.0380	-1.25431	0.802122	0	
0.0387	-0.627157	-0.125332	0	
0.0393	-0.332024	-1.32852	0	
0.0400	-1.84458	0.802122	0	
0.0407	-1.25431	1.70451	0	
0.0413	-0.627157	2.33117	0	
0.0420	-3.68916	5.36419	0	
0.0427	-3.68916	6.29165	0	
0.0433	1.18053	2.93276	0	
0.0440	2.10282	2.00531	0	
0.0447	-0.0368916	2.63196	0	
0.0453	-0.332024	2.33117	0	
0.0460	-1.84458	3.23356	0	
0.0467	-3.062	5.36419	0	
0.0473	-0.332024	6.29165	0	
0.0480	1.18053	4.46181	0	
0.0487	-1.25431	2.63196	0	
0.0493	-1.25431	0.802122	0	
0.0500	1.80769	-0.125332	0	
0.0507	2.39795	-1.65438	0	
0.0513	-0.0368916	-3.78502	0	
0.0520	0.885398	-4.38661	0	
0.0527	5.16482	-3.78502	0	
0.0533	5.16482	-3.78502	0	
0.0540	-0.0368916	-3.18342	0	
0.0547	-1.25431	-1.95517	0	
0.0553	3.02511	-2.25597	0	
0.0560	3.32024	-3.48422	0	
0.0567	0.590265	-3.18342	0	
0.0573	2.72998	-1.95517	0	
0.0580	7.8948	-1.65438	0	
0.0587	9.73938	-2.25597	0	
0.0593	7.59966	-2.25597	0	
0.0600	5.75509	-0.125332	0	
0.0607	3.32024	1.10292	0	
0.0613	0.590265	1.40371	0	
0.0620	-3.062	4.7626	0	
0.0627	-6.75116	7.82069	0	
0.0633	-8.89087	4.7626	0	
0.0640	-10.4034	1.40371	0	
0.0647	-12.5431	2.00531	0	
0.0653	-11.3257	2.63196	0	
0.0660	-6.124	0.802122	0	
0.0667	-2.1766	-0.426128	0	
0.0673	-0.332024	-1.02772	0	
0.0680	2.39795	-0.125332	0	
0.0687	2.39795	-0.426128	0	
0.0693	0.590265	-1.95517	0	
0.0700	2.39795	-1.32852	0	
0.0707	5.16482	-1.65438	0	
0.0713	1.80769	-4.38661	0	
0.0720	-1.84458	-4.6874	0	
0.0727	-1.25431	-2.85756	0	
0.0733	-0.627157	-3.18342	0	
0.0740	0.590265	-4.38661	0	
0.0747	2.39795	-5.01327	0	
0.0753	1.18053	-5.01327	0	
0.0760	-0.627157	-3.78502	0	
0.0767	0.295133	-3.18342	0	
0.0773	-0.922289	-4.38661	0	
0.0780	-2.47174	-3.78502	0	
0.0787	-1.25431	-2.25597	0	
0.0793	-1.84458	-1.95517	0	
0.0800	-4.27942	1.40371	0	
0.0807	-4.90658	5.69006	0	
0.0813	-4.90658	4.7626	0	
0.0820	-4.90658	2.33117	0	
0.0827	-3.062	3.53435	0	
0.0833	-2.47174	5.69006	0	
0.0840	-2.1766	5.36419	0	
0.0847	-0.922289	4.46181	0	
0.0853	-2.1766	3.83515	0	
0.0860	-4.90658	3.23356	0	
0.0867	-3.98429	2.33117	0	
0.0873	-1.54945	-0.125332	0	
0.0880	-0.922289	-2.25597	0	
0.0887	0.295133	-1.65438	0	
0.0893	3.02511	-1.02772	0	
0.0900	5.16482	-1.95517	0	
0.0907	6.08711	-1.65438	0	
0.0913	6.38224	-1.95517	0	
0.0920	8.81709	-3.78502	0	
0.0927	10.6617	-3.78502	0	
0.0933	8.52195	-1.32852	0	
0.0940	6.08711	-2.25597	0	
0.0947	7.0094	-3.78502	0	
0.0953	6.67738	-2.25597	0	
0.0960	3.32024	-2.25597	0	
0.0967	-2.1766	-4.6874	0	
0.0973	-8.55885	-3.78502	0	
0.0980	-10.4034	0.802122	0	
0.0987	-5.20171	1.40371	0	
0.0993	-0.332024	-1.02772	0	
0.1000	-0.0368916	0.802122	0	
0.1007	-1.25431	4.46181	0	
0.1013	-1.54945	4.16101	0	
0.1020	-1.25431	2.93276	0	
0.1027	-2.1766	4.16101	0	
0.1033	-3.39402	3.53435	0	
0.1040	-0.922289	1.40371	0	
0.1047	2.10282	1.70451	0	
0.1053	0.885398	2.33117	0	
0.1060	1.51255	2.00531	0	
0.1067	4.24253	2.00531	0	
0.1073	4.24253	1.10292	0	
0.1080	2.39795	-1.02772	0	
0.1087	1.51255	-3.48422	0	
0.1093	-0.627157	-3.78502	0	
0.1100	0.590265	-2.85756	0	
0.1107	3.9474	-3.78502	0	
0.1113	4.24253	-6.51724	0	
0.1120	4.24253	-7.4447	0	
0.1127	6.38224	-8.04629	0	
0.1133	5.16482	-7.74549	0	
0.1140	3.32024	-5.61486	0	
0.1147	5.45995	-5.31406	0	
0.1153	7.30453	-5.61486	0	
0.1160	8.52195	-4.08581	0	
0.1167	7.8948	-2.85756	0	
0.1173	2.39795	-2.55677	0	
0.1180	-0.332024	-1.65438	0	
0.1187	-0.332024	-1.32852	0	
0.1193	-1.25431	-0.125332	0	
0.1200	-0.332024	2.63196	0	
0.1207	2.39795	3.23356	0	
0.1213	0.885398	1.40371	0	
0.1220	-2.76687	2.00531	0	
0.1227	-0.922289	3.83515	0	
0.1233	0.590265	3.23356	0	
0.1240	-1.25431	2.00531	0	
0.1247	-2.1766	0.802122	0	
0.1253	-1.54945	-1.32852	0	
0.1260	-1.54945	-1.65438	0	
0.1267	-0.332024	-0.125332	0	
0.1273	1.51255	0.802122	0	
0.1280	-0.0368916	0.501327	0	
0.1287	-3.39402	0.175464	0	
0.1293	-4.61145	-1.32852	0	
0.1300	-2.1766	-3.18342	0	
0.1307	-0.332024	-3.48422	0	
0.1313	-0.332024	-3.78502	0	
0.1320	0.590265	-4.6874	0	
0.1327	1.51255	-3.78502	0	
0.1333	-0.0368916	-3.78502	0	
0.1340	-1.25431	-5.01327	0	
0.1347	-0.0368916	-4.38661	0	
0.1353	1.51255	-1.95517	0	
0.1360	0.590265	-0.426128	0	
0.1367	-1.54945	-1.02772	0	
0.1373	-2.1766	-1.95517	0	
0.1380	-0.332024	0.175464	0	
0.1387	-0.0368916	3.53435	0	
0.1393	-1.54945	3.53435	0	
0.1400	-4.61145	2.00531	0	
0.1407	-8.89087	3.53435	0	
0.1413	-11.3257	5.0634	0	
0.1420	-10.4034	5.69006	0	
0.1427	-8.89087	7.82069	0	
0.1433	-10.1083	7.5199	0	
0.1440	-10.4034	3.53435	0	
0.1447	-7.04629	2.63196	0	
0.1453	-2.76687	5.36419	0	
0.1460	-2.1766	5.36419	0	
0.1467	-3.39402	2.63196	0	
0.1473	-1.25431	0.802122	0	
0.1480	0.885398	2.63196	0	
0.1487	-0.922289	3.83515	0	
0.1493	-2.1766	1.40371	0	
0.1500	-0.0368916	-1.02772	0	
0.1507	1.51255	-1.02772	0	
0.1513	-0.332024	-2.25597	0	
0.1520	-2.1766	-3.78502	0	
0.1527	-1.25431	-3.78502	0	
0.1533	1.18053	-3.78502	0	
0.1540	2.10282	-3.78502	0	
0.1547	0.590265	-1.02772	0	
0.1553	-1.54945	1.70451	0	
0.1560	-2.76687	0.175464	0	
0.1567	-2.1766	-1.95517	0	
0.1573	-0.627157	-1.32852	0	
0.1580	-0.922289	-0.726923	0	
0.1587	-1.54945	-1.02772	0	
0.1593	-1.25431	0.175464	0	
0.1600	-1.25431	2.00531	0	
0.1607	-1.54945	2.63196	0	
0.1613	-2.76687	5.36419	0	
0.1620	-3.062	8.12149	0	
0.1627	-1.25431	6.29165	0	
0.1633	0.590265	3.53435	0	
0.1640	-0.332024	4.46181	0	
0.1647	-0.627157	6.29165	0	
0.1653	-0.0368916	5.99085	0	
0.1660	-0.332024	3.53435	0	
0.1667	-0.627157	2.00531	0	
0.1673	0.590265	2.63196	0	
0.1680	1.51255	3.53435	0	
0.1687	2.39795	2.33117	0	
0.1693	3.02511	-0.726923	0	
0.1700	3.02511	-3.78502	0	
0.1707	5.16482	-4.38661	0	
0.1713	7.0094	-3.48422	0	
0.1720	4.86969	-4.6874	0	
0.1727	2.72998	-8.04629	0	
0.1733	4.24253	-8.37215	0	
0.1740	5.45995	-6.21645	0	
0.1747	4.86969	-6.21645	0	
0.1753	6.08711	-5.61486	0	
0.1760	8.52195	-3.78502	0	
0.1767	7.0094	-3.78502	0	
0.1773	2.10282	-3.78502	0	
0.1780	2.39795	-3.48422	0	
0.1787	7.0094	-2.25597	0	
0.1793	5.16482	-0.125332	0	
0.1800	1.18053	2.63196	0	
0.1807	0.590265	2.63196	0	
0.1813	-1.25431	1.10292	0	
0.1820	-4.90658	1.70451	0	
0.1827	-3.68916	4.16101	0	
0.1833	-2.47174	5.36419	0	
0.1840	-4.61145	4.7626	0	
0.1847	-2.76687	4.16101	0	
0.1853	0.885398	2.63196	0	
0.1860	-0.332024	0.802122	0	
0.1867	-2.1766	-0.125332	0	
0.1873	-2.1766	-0.125332	0	
0.1880	-2.47174	-0.426128	0	
0.1887	-2.76687	-0.125332	0	
0.1893	-2.1766	0.802122	0	
0.1900	-2.47174	0.802122	0	
0.1907	-3.68916	-0.125332	0	
0.1913	-4.61145	-3.18342	0	
0.1920	-4.90658	-5.61486	0	
0.1927	-5.53374	-2.85756	0	
0.1933	-6.75116	-1.02772	0	
0.1940	-5.82887	-3.48422	0	
0.1947	-3.68916	-2.85756	0	
0.1953	-2.47174	-1.65438	0	
0.1960	-1.25431	-4.38661	0	
0.1967	2.39795	-3.78502	0	
0.1973	5.16482	0.501327	0	
0.1980	4.24253	-1.02772	0	
0.1987	3.65227	-1.95517	0	
0.1993	3.32024	1.70451	0	
0.2000	2.72998	0.802122	0	
0.2007	3.32024	-0.426128	0	
0.2013	4.24253	3.53435	0	
0.2020	4.24253	4.16101	0	
0.2027	5.16482	2.93276	0	
0.2033	4.24253	5.36419	0	
0.2040	-0.627157	4.7626	0	
0.2047	-3.68916	2.93276	0	
0.2053	0.295133	6.29165	0	
0.2060	2.72998	5.36419	0	
0.2067	0.590265	0.802122	0	
0.2073	-0.332024	2.00531	0	
0.2080	1.51255	3.23356	0	
0.2087	3.32024	-1.02772	0	
0.2093	3.32024	-0.426128	0	
0.2100	1.80769	2.33117	0	
0.2107	1.51255	-0.726923	0	
0.2113	3.32024	-3.78502	0	
0.2120	2.39795	-4.6874	0	
0.2127	0.590265	-5.61486	0	
0.2133	0.590265	-3.78502	0	
0.2140	-1.25431	-1.95517	0	
0.2147	-4.27942	-2.25597	0	
0.2153	-5.82887	0.802122	0	
0.2160	-7.63656	2.33117	0	
0.2167	-8.89087	-1.95517	0	
0.2173	-6.75116	-4.08581	0	
0.2180	-4.90658	-2.25597	0	
0.2187	-5.82887	-2.25597	0	
0.2193	-5.82887	-1.02772	0	
0.2200	-5.82887	1.70451	0	
0.2207	-7.63656	1.40371	0	
0.2213	-9.48114	1.10292	0	
0.2220	-7.34142	3.23356	0	
0.2227	-4.90658	3.53435	0	
0.2233	-4.90658	4.16101	0	
0.2240	-5.20171	3.53435	0	
0.2247	-4.90658	0.175464	0	
0.2253	-4.90658	-0.426128	0	
0.2260	-3.98429	3.23356	0	
0.2267	-1.84458	3.83515	0	
0.2273	-0.332024	0.802122	0	
0.2280	-1.25431	-0.125332	0	
0.2287	-2.1766	-0.125332	0	
0.2293	-0.922289	-1.95517	0	
0.2300	2.39795	-3.48422	0	
0.2307	3.32024	-4.38661	0	
0.2313	2.72998	-5.91565	0	
0.2320	4.86969	-5.61486	0	
0.2327	7.8948	-4.6874	0	
0.2333	6.08711	-5.01327	0	
0.2340	2.39795	-5.61486	0	
0.2347	2.39795	-4.6874	0	
0.2353	1.80769	-3.18342	0	
0.2360	-0.922289	-1.95517	0	
0.2367	-1.25431	-0.125332	0	
0.2373	0.885398	-1.02772	0	
0.2380	1.51255	-2.85756	0	
0.2387	-0.627157	-0.426128	0	
0.2393	-3.68916	3.23356	0	
0.2400	-5.20171	3.53435	0	
0.2407	-5.82887	3.53435	0	
0.2413	-6.75116	3.83515	0	
0.2420	-7.63656	2.93276	0	
0.2427	-6.41913	2.93276	0	
0.2433	-6.124	3.53435	0	
0.2440	-7.63656	3.83515	0	
0.2447	-7.04629	3.53435	0	
0.2453	-4.27942	0.802122	0	
0.2460	-0.922289	-0.125332	0	
0.2467	0.295133	1.10292	0	
0.2473	-1.25431	-1.02772	0	
0.2480	-2.1766	-3.78502	0	
0.2487	-0.332024	-1.95517	0	
0.2493	1.18053	-0.426128	0	
0.2500	1.80769	-3.78502	0	
0.2507	2.72998	-5.01327	0	
0.2513	2.39795	-2.85756	0	
0.2520	2.39795	-2.85756	0	
0.2527	2.72998	-5.31406	0	
0.2533	3.65227	-6.84311	0	
0.2540	3.32024	-7.1439	0	
0.2547	3.02511	-6.84311	0	
0.2553	3.65227	-6.51724	0	
0.2560	6.38224	-4.38661	0	
0.2567	6.67738	-1.95517	0	
0.2573	2.39795	-0.726923	0	
0.2580	-0.332024	-0.426128	0	
0.2587	1.18053	0.175464	0	
0.2593	1.18053	1.40371	0	
0.2600	-1.25431	1.70451	0	
0.2607	-3.98429	1.10292	0	
0.2613	-4.90658	2.63196	0	
0.2620	-3.39402	5.0634	0	
0.2627	-0.922289	5.69006	0	
0.2633	-0.627157	3.83515	0	
0.2640	-1.25431	1.70451	0	
0.2647	0.295133	-0.125332	0	
0.2653	1.80769	-0.125332	0	
0.2660	4.24253	0.501327	0	
0.2667	7.0094	0.501327	0	
0.2673	5.75509	1.70451	0	
0.2680	4.53766	0.802122	0	
0.2687	4.86969	-3.18342	0	
0.2693	2.39795	-4.38661	0	
0.2700	-1.54945	-3.18342	0	
0.2707	-2.47174	-4.6874	0	
0.2713	-1.25431	-5.01327	0	
0.2720	0.885398	-1.95517	0	
0.2727	1.18053	-1.95517	0	
0.2733	-3.062	-4.6874	0	
0.2740	-3.68916	-3.78502	0	
0.2747	-0.332024	-2.55677	0	
0.2753	-2.1766	-2.25597	0	
0.2760	-3.98429	-1.65438	0	
0.2767	2.39795	-1.02772	0	
0.2773	6.38224	-0.726923	0	
0.2780	2.39795	1.10292	0	
0.2787	-0.922289	2.00531	0	
0.2793	-1.54945	1.70451	0	
0.2800	-2.1766	3.23356	0	
0.2807	0.885398	3.83515	0	
0.2813	4.53766	3.83515	0	
0.2820	4.86969	7.19404	0	
0.2827	2.39795	9.65054	0	
0.2833	-1.54945	7.19404	0	
0.2840	-4.27942	5.0634	0	
0.2847	-3.39402	5.36419	0	
0.2853	-1.25431	5.69006	0	
0.2860	1.51255	5.99085	0	
0.2867	3.65227	6.59244	0	
0.2873	3.65227	4.16101	0	
0.2880	2.39795	1.10292	0	
0.2887	2.39795	1.10292	0	
0.2893	1.80769	1.10292	0	
0.2900	1.18053	-1.02772	0	
0.2907	2.72998	-1.95517	0	
0.2913	5.45995	-2.85756	0	
0.2920	7.8948	-4.08581	0	
0.2927	9.11222	-3.78502	0	
0.2933	7.0094	-3.18342	0	
0.2940	4.53766	-4.38661	0	
0.2947	6.08711	-5.61486	0	
0.2953	7.8948	-5.31406	0	
0.2960	8.81709	-5.31406	0	
0.2967	9.73938	-3.78502	0	
0.2973	10.9568	-1.95517	0	
0.2980	12.8014	-2.25597	0	
0.2987	13.3916	-3.78502	0	
0.2993	9.73938	-1.95517	0	
0.3000	6.67738	1.10292	0	
0.3007	6.08711	1.70451	0	
0.3013	3.9474	-0.426128	0	
0.3020	3.9474	-1.02772	0	
0.3027	7.0094	1.70451	0	
0.3033	5.16482	3.83515	0	
0.3040	2.10282	2.93276	0	
0.3047	5.45995	0.802122	0	
0.3053	9.73938	-1.02772	0	
0.3060	9.73938	-1.02772	0	
0.3067	9.44424	1.70451	0	
0.3073	8.22682	2.33117	0	
0.3080	6.08711	-2.55677	0	
0.3087	7.0094	-4.6874	0	
0.3093	9.73938	-3.78502	0	
0.3100	10.6617	-3.78502	0	
0.3107	10.9568	-4.6874	0	
0.3113	9.44424	-4.6874	0	
0.3120	7.30453	-5.61486	0	
0.3127	7.30453	-5.61486	0	
0.3133	6.08711	-3.78502	0	
0.3140	2.39795	-4.08581	0	
0.3147	-0.332024	-5.01327	0	
0.3153	-1.54945	-3.18342	0	
0.3160	-0.332024	-1.65438	0	
0.3167	1.80769	-2.25597	0	
0.3173	-0.0368916	-2.25597	0	
0.3180	-1.84458	-2.55677	0	
0.3187	1.51255	-1.65438	0	
0.3193	3.9474	0.802122	0	
0.3200	0.885398	0.802122	0	
0.3207	-3.68916	0.802122	0	
0.3213	-3.68916	2.93276	0	
0.3220	-1.25431	3.83515	0	
0.3227	-1.25431	3.83515	0	
0.3233	-4.27942	5.69006	0	
0.3240	-3.98429	5.36419	0	
0.3247	-2.1766	2.33117	0	
0.3253	-3.39402	0.802122	0	
0.3260	-2.1766	2.00531	0	
0.3267	3.02511	3.23356	0	
0.3273	3.02511	3.53435	0	
0.3280	-2.47174	2.00531	0	
0.3287	-5.20171	1.10292	0	
0.3293	-3.98429	0.802122	0	
0.3300	-1.54945	-2.25597	0	
0.3307	1.51255	-5.61486	0	
0.3313	3.32024	-5.61486	0	
0.3320	2.10282	-4.6874	0	
0.3327	-0.627157	-6.21645	0	
0.3333	-1.54945	-7.4447	0	
0.3340	-0.627157	-6.21645	0	
0.3347	-2.47174	-4.6874	0	
0.3353	-9.48114	-3.78502	0	
0.3360	-14.0557	-0.125332	0	
0.3367	-13.1334	2.00531	0	
0.3373	-9.48114	-0.726923	0	
0.3380	-5.20171	-2.85756	0	
0.3387	-5.53374	-0.426128	0	
0.3393	-10.9937	1.70451	0	
0.3400	-12.248	-0.726923	0	
0.3407	-8.55885	-0.426128	0	
0.3413	-10.1083	4.46181	0	
0.3420	-12.5431	6.29165	0	
0.3427	-9.48114	2.63196	0	
0.3433	-10.1083	1.70451	0	
0.3440	-14.3508	3.53435	0	
0.3447	-12.8383	2.93276	0	
0.3453	-7.63656	1.70451	0	
0.3460	-6.41913	2.33117	0	
0.3467	-7.34142	2.33117	0	
0.3473	-8.55885	3.53435	0	
0.3480	-10.1083	4.7626	0	
0.3487	-9.186	1.40371	0	
0.3493	-8.55885	-1.95517	0	
0.3500	-11.3257	-2.55677	0	
0.3507	-10.4034	-4.38661	0	
0.3513	-5.53374	-5.31406	0	
0.3520	-4.27942	-2.25597	0	
0.3527	-5.53374	-1.02772	0	
0.3533	-3.98429	-1.65438	0	
0.3540	-4.61145	-2.25597	0	
0.3547	-7.63656	-3.78502	0	
0.3553	-7.63656	-3.78502	0	
0.3560	-5.20171	-1.02772	0	
0.3567	-6.124	-0.125332	0	
0.3573	-7.96858	-0.726923	0	
0.3580	-7.63656	1.70451	0	
0.3587	-7.34142	3.53435	0	
0.3593	-8.26371	2.63196	0	
0.3600	-8.89087	2.63196	0	
0.3607	-9.186	4.16101	0	
0.3613	-9.77627	5.0634	0	
0.3620	-11.3257	4.7626	0	
0.3627	-10.4034	2.63196	0	
0.3633	-7.04629	0.802122	0	
0.3640	-6.124	1.40371	0	
0.3647	-8.55885	2.63196	0	
0.3653	-7.34142	2.00531	0	
0.3660	-2.1766	1.70451	0	
0.3667	-2.1766	2.33117	0	
0.3673	-4.90658	2.63196	0	
0.3680	-3.062	2.63196	0	
0.3687	-0.627157	1.10292	0	
0.3693	-3.062	-2.25597	0	
0.3700	-2.1766	-2.85756	0	
0.3707	2.39795	-1.02772	0	
0.3713	5.45995	-2.85756	0	
0.3720	7.0094	-5.91565	0	
0.3727	7.8948	-5.61486	0	
0.3733	8.52195	-4.6874	0	
0.3740	9.73938	-4.6874	0	
0.3747	8.52195	-1.65438	0	
0.3753	3.65227	-0.726923	0	
0.3760	2.39795	-3.78502	0	
0.3767	2.10282	-2.55677	0	
0.3773	-2.1766	-1.02772	0	
0.3780	-5.53374	-3.78502	0	
0.3787	-6.41913	-2.85756	0	
0.3793	-7.34142	1.40371	0	
0.3800	-7.96858	1.10292	0	
0.3807	-7.63656	2.00531	0	
0.3813	-7.04629	5.36419	0	
0.3820	-4.61145	3.83515	0	
0.3827	-3.062	3.53435	0	
0.3833	-3.39402	7.82069	0	
0.3840	-2.47174	7.19404	0	
0.3847	-2.1766	2.63196	0	
0.3853	-1.84458	2.00531	0	
0.3860	2.10282	2.63196	0	
0.3867	4.24253	1.70451	0	
0.3873	2.10282	1.10292	0	
0.3880	2.39795	0.802122	0	
0.3887	6.08711	0.802122	0	
0.3893	7.0094	0.175464	0	
0.3900	6.08711	-2.25597	0	
0.3907	7.0094	-3.18342	0	
0.3913	7.59966	-2.25597	0	
0.3920	8.22682	-4.38661	0	
0.3927	10.3665	-8.67295	0	
0.3933	11.584	-8.67295	0	
0.3940	10.9568	-5.61486	0	
0.3947	9.11222	-4.08581	0	
0.3953	5.16482	-4.6874	0	
0.3960	1.18053	-6.51724	0	
0.3967	1.18053	-7.4447	0	
0.3973	2.39795	-5.01327	0	
0.3980	2.39795	-1.95517	0	
0.3987	0.295133	-1.65438	0	
0.3993	-1.54945	-1.95517	0	
0.4000	-2.47174	-0.426128	0	
0.4007	-2.1766	0.802122	0	
0.4013	-3.39402	1.40371	0	
0.4020	-3.39402	2.93276	0	
0.4027	1.18053	4.16101	0	
0.4033	5.16482	2.63196	0	
0.4040	4.53766	1.70451	0	
0.4047	4.24253	2.63196	0	
0.4053	5.16482	2.33117	0	
0.4060	4.24253	0.175464	0	
0.4067	4.86969	-2.55677	0	
0.4073	6.08711	-3.78502	0	
0.4080	6.08711	-0.125332	0	
0.4087	7.59966	2.63196	0	
0.4093	8.52195	-1.95517	0	
0.4100	7.59966	-5.01327	0	
0.4107	6.67738	-3.78502	0	
0.4113	5.16482	-4.08581	0	
0.4120	3.32024	-4.6874	0	
0.4127	5.75509	-3.78502	0	
0.4133	6.67738	-5.01327	0	
0.4140	4.24253	-6.51724	0	
0.4147	3.65227	-3.78502	0	
0.4153	3.02511	-1.95517	0	
0.4160	0.590265	-2.55677	0	
0.4167	0.590265	-2.25597	0	
0.4173	0.885398	-1.02772	0	
0.4180	-3.39402	-0.426128	0	
0.4187	-4.27942	-0.726923	0	
0.4193	-1.84458	0.501327	0	
0.4200	-3.98429	3.53435	0	
0.4207	-7.63656	5.36419	0	
0.4213	-5.82887	3.53435	0	
0.4220	-3.39402	3.83515	0	
0.4227	-2.76687	5.36419	0	
0.4233	-0.332024	6.59244	0	
0.4240	1.51255	8.12149	0	
0.4247	-0.0368916	5.69006	0	
0.4253	-1.25431	1.10292	0	
0.4260	-0.627157	2.00531	0	
0.4267	-0.332024	3.83515	0	
0.4273	-0.0368916	0.802122	0	
0.4280	-0.332024	-0.125332	0	
0.4287	-2.76687	1.70451	0	
0.4293	-2.47174	0.501327	0	
0.4300	0.885398	-0.125332	0	
0.4307	2.10282	-0.125332	0	
0.4313	1.80769	-2.85756	0	
0.4320	2.72998	-4.6874	0	
0.4327	2.39795	-4.38661	0	
0.4333	1.18053	-4.6874	0	
0.4340	2.10282	-3.78502	0	
0.4347	2.39795	-1.95517	0	
0.4353	0.590265	-1.95517	0	
0.4360	0.590265	-1.95517	0	
0.4367	2.39795	-1.02772	0	
0.4373	1.18053	-1.32852	0	
0.4380	-1.25431	-0.125332	0	
0.4387	-1.25431	2.93276	0	
0.4393	-0.332024	3.53435	0	
0.4400	-2.1766	3.23356	0	
0.4407	-5.20171	2.63196	0	
0.4413	-8.55885	1.70451	0	
0.4420	-9.48114	3.83515	0	
0.4427	-3.98429	8.12149	0	
0.4433	2.10282	9.02388	0	
0.4440	3.9474	7.19404	0	
0.4447	4.24253	5.36419	0	
0.4453	4.86969	2.63196	0	
0.4460	3.32024	1.10292	0	
0.4467	1.51255	2.33117	0	
0.4473	1.51255	2.33117	0	
0.4480	2.72998	1.40371	0	
0.4487	3.9474	2.33117	0	
0.4493	3.32024	3.23356	0	
0.4500	2.39795	1.40371	0	
0.4507	3.32024	-2.25597	0	
0.4513	2.39795	-4.08581	0	
0.4520	-0.332024	-4.6874	0	
0.4527	1.51255	-4.6874	0	
0.4533	3.32024	-4.6874	0	
0.4540	1.80769	-3.78502	0	
0.4547	1.51255	-1.95517	0	
0.4553	3.02511	-0.426128	0	
0.4560	3.32024	0.501327	0	
0.4567	3.9474	-1.02772	0	
0.4573	4.53766	-3.18342	0	
0.4580	2.39795	-2.25597	0	
0.4587	2.10282	-1.02772	0	
0.4593	3.32024	-3.18342	0	
0.4600	2.10282	-5.31406	0	
0.4607	-0.627157	-2.25597	0	
0.4613	-0.627157	2.63196	0	
0.4620	-1.25431	5.0634	0	
0.4627	-6.124	4.46181	0	
0.4633	-13.4654	2.33117	0	
0.4640	-16.8226	1.70451	0	
0.4647	-12.5431	3.83515	0	
0.4653	-6.124	3.23356	0	
0.4660	-3.68916	-1.95517	0	
0.4667	-4.61145	-1.95517	0	
0.4673	-5.20171	2.63196	0	
0.4680	-3.68916	1.10292	0	
0.4687	-2.76687	-3.78502	0	
0.4693	-3.68916	-2.85756	0	
0.4700	-1.54945	-1.02772	0	
0.4707	1.80769	-3.78502	0	
0.4713	1.51255	-5.91565	0	
0.4720	-0.332024	-5.31406	0	
0.4727	-1.54945	-4.6874	0	
0.4733	-4.27942	-4.6874	0	
0.4740	-5.20171	-3.18342	0	
0.4747	-3.062	-0.726923	0	
0.4753	-4.61145	-1.32852	0	
0.4760	-8.89087	-4.38661	0	
0.4767	-8.55885	-3.78502	0	
0.4773	-5.82887	-1.32852	0	
0.4780	-5.53374	-2.55677	0	
0.4787	-6.75116	-2.25597	0	
0.4793	-8.55885	0.802122	0	
0.4800	-9.77627	0.802122	0	
0.4807	-9.48114	-1.02772	0	
0.4813	-8.26371	0.175464	0	
0.4820	-6.124	2.63196	0	
0.4827	-3.98429	5.0634	0	
0.4833	-3.68916	6.29165	0	
0.4840	-3.68916	4.46181	0	
0.4847	-1.25431	3.53435	0	
0.4853	-0.332024	5.99085	0	
0.4860	-3.062	4.16101	0	
0.4867	-4.27942	0.175464	0	
0.4873	-3.98429	0.175464	0	
0.4880	-2.47174	1.70451	0	
0.4887	0.590265	1.70451	0	
0.4893	2.39795	-0.125332	0	
0.4900	3.02511	-2.85756	0	
0.4907	5.45995	-1.95517	0	
0.4913	7.30453	-0.726923	0	
0.4920	5.75509	-3.48422	0	
0.4927	3.65227	-4.6874	0	
0.4933	2.39795	-2.85756	0	
0.4940	1.51255	-3.48422	0	
0.4947	1.80769	-3.78502	0	
0.4953	1.18053	-2.55677	0	
0.4960	-0.627157	-2.55677	0	
0.4967	-1.25431	-1.02772	0	
0.4973	-1.84458	1.70451	0	
0.4980	-2.76687	0.501327	0	
0.4987	-2.1766	-1.65438	0	
0.4993	-0.332024	-1.02772	0	
0.5000	0.590265	-0.426128	0	
0.5007	-0.922289	1.40371	0	
0.5013	-4.90658	4.16101	0	
0.5020	-7.63656	4.7626	0	
0.5027	-5.82887	6.29165	0	
0.5033	-0.922289	9.65054	0	
0.5040	0.885398	8.12149	0	
0.5047	-1.25431	3.53435	0	
0.5053	-1.84458	2.93276	0	
0.5060	1.51255	3.23356	0	
0.5067	2.39795	1.40371	0	
0.5073	0.590265	1.10292	0	
0.5080	-2.1766	2.33117	0	
0.5087	-5.20171	1.70451	0	
0.5093	-5.53374	0.802122	0	
0.5100	-0.332024	-1.32852	0	
0.5107	1.51255	-4.6874	0	
0.5113	-1.25431	-5.61486	0	
0.5120	0.590265	-3.78502	0	
0.5127	3.02511	-4.38661	0	
0.5133	1.51255	-6.51724	0	
0.5140	2.39795	-6.21645	0	
0.5147	2.39795	-4.6874	0	
0.5153	-0.922289	-3.18342	0	
0.5160	0.885398	-2.55677	0	
0.5167	7.0094	-2.85756	0	
0.5173	5.75509	-1.02772	0	
0.5180	2.39795	-0.125332	0	
0.5187	4.24253	-3.18342	0	
0.5193	3.32024	-2.55677	0	
0.5200	-0.0368916	3.23356	0	
0.5207	0.885398	4.46181	0	
0.5213	1.18053	2.00531	0	
0.5220	-2.47174	3.23356	0	
0.5227	-3.98429	4.46181	0	
0.5233	-1.84458	3.83515	0	
0.5240	0.590265	4.46181	0	
0.5247	2.39795	3.83515	0	
0.5253	2.39795	1.40371	0	
0.5260	3.32024	-0.426128	0	
0.5267	5.16482	-0.426128	0	
0.5273	4.24253	0.501327	0	
0.5280	2.72998	0.175464	0	
0.5287	3.32024	-1.02772	0	
0.5293	2.39795	-3.18342	0	
0.5300	0.885398	-5.61486	0	
0.5307	3.32024	-6.51724	0	
0.5313	4.24253	-3.78502	0	
0.5320	1.51255	-2.55677	0	
0.5327	1.80769	-4.6874	0	
0.5333	5.45995	-4.6874	0	
0.5340	7.30453	-4.08581	0	
0.5347	7.8948	-5.61486	0	
0.5353	8.81709	-4.6874	0	
0.5360	8.81709	-2.25597	0	
0.5367	6.08711	-2.55677	0	
0.5373	1.80769	-3.78502	0	
0.5380	-1.25431	-2.25597	0	
0.5387	-0.922289	-0.125332	0	
0.5393	-0.922289	-0.125332	0	
0.5400	-7.34142	0.802122	0	
0.5407	-16.8226	2.63196	0	
0.5413	-21.6922	2.63196	0	
0.5420	-20.1797	3.23356	0	
0.5427	-15.9003	4.16101	0	
0.5433	-12.5431	2.63196	0	
0.5440	-11.3257	0.802122	0	
0.5447	-10.4034	1.70451	0	
0.5453	-7.63656	2.63196	0	
0.5460	-4.90658	1.70451	0	
0.5467	-5.82887	1.70451	0	
0.5473	-7.34142	2.63196	0	
0.5480	-4.90658	1.70451	0	
0.5487	-1.54945	-1.02772	0	
0.5493	-1.84458	-2.55677	0	
0.5500	-1.84458	-1.95517	0	
0.5507	0.590265	-2.85756	0	
0.5513	2.39795	-4.38661	0	
0.5520	3.65227	-4.6874	0	
0.5527	4.24253	-4.38661	0	
0.5533	3.65227	-5.01327	0	
0.5540	4.53766	-5.31406	0	
0.5547	7.0094	-4.38661	0	
0.5553	6.08711	-4.6874	0	
0.5560	3.32024	-6.51724	0	
0.5567	3.32024	-5.61486	0	
0.5573	1.18053	-1.65438	0	
0.5580	-3.062	-0.125332	0	
0.5587	-1.84458	-1.95517	0	
0.5593	2.39795	-0.125332	0	
0.5600	2.39795	3.53435	0	
0.5607	-0.922289	3.53435	0	
0.5613	-3.062	2.93276	0	
0.5620	-3.98429	5.36419	0	
0.5627	-3.39402	7.19404	0	
0.5633	-0.627157	7.19404	0	
0.5640	-0.0368916	7.19404	0	
0.5647	-3.062	5.0634	0	
0.5653	-4.90658	3.23356	0	
0.5660	-2.1766	2.93276	0	
0.5667	0.295133	2.33117	0	
0.5673	-1.84458	1.70451	0	
0.5680	-5.20171	1.70451	0	
0.5687	-5.20171	0.802122	0	
0.5693	-1.54945	1.70451	0	
0.5700	1.80769	2.63196	0	
0.5707	2.72998	-0.726923	0	
0.5713	5.16482	-5.31406	0	
0.5720	7.8948	-5.61486	0	
0.5727	7.30453	-3.78502	0	
0.5733	6.08711	-2.85756	0	
0.5740	6.67738	-3.78502	0	
0.5747	4.24253	-5.01327	0	
0.5753	1.51255	-3.78502	0	
0.5760	2.39795	-2.25597	0	
0.5767	2.39795	-2.25597	0	
0.5773	1.18053	-1.65438	0	
0.5780	2.39795	-1.02772	0	
0.5787	1.51255	-1.32852	0	
0.5793	-0.627157	-0.125332	0	
0.5800	0.590265	2.63196	0	
0.5807	0.885398	3.53435	0	
0.5813	-0.922289	3.83515	0	
0.5820	-1.25431	5.99085	0	
0.5827	-1.84458	6.29165	0	
0.5833	-3.39402	4.46181	0	
0.5840	-2.47174	5.36419	0	
0.5847	-0.332024	6.29165	0	
0.5853	-1.54945	4.46181	0	
0.5860	-5.20171	4.46181	0	
0.5867	-4.90658	5.99085	0	
0.5873	-1.25431	3.53435	0	
0.5880	0.590265	-0.125332	0	
0.5887	1.80769	-0.125332	0	
0.5893	4.53766	0.501327	0	
0.5900	6.38224	-1.32852	0	
0.5907	7.30453	-3.18342	0	
0.5913	10.0345	-3.78502	0	
0.5920	11.584	-5.01327	0	
0.5927	12.4694	-5.61486	0	
0.5933	14.9411	-4.6874	0	
0.5940	12.1742	-4.38661	0	
0.5947	4.86969	-4.38661	0	
0.5953	3.32024	-3.78502	0	
0.5960	6.08711	-2.85756	0	
0.5967	4.53766	-1.95517	0	
0.5973	4.53766	-2.25597	0	
0.5980	5.16482	-2.55677	0	
0.5987	1.51255	-0.726923	0	
0.5993	-0.627157	2.00531	0	
0.6000	-1.84458	4.7626	0	
0.6007	-6.75116	5.69006	0	
0.6013	-6.75116	4.46181	0	
0.6020	0.590265	3.53435	0	
0.6027	1.51255	5.36419	0	
0.6033	-2.1766	5.36419	0	
0.6040	1.80769	3.53435	0	
0.6047	3.9474	4.16101	0	
0.6053	0.295133	4.16101	0	
0.6060	-0.0368916	1.70451	0	
0.6067	1.51255	-0.125332	0	
0.6073	0.295133	-0.125332	0	
0.6080	2.72998	-0.426128	0	
0.6087	6.67738	-0.125332	0	
0.6093	6.08711	-0.726923	0	
0.6100	6.08711	-3.48422	0	
0.6107	7.30453	-3.78502	0	
0.6113	6.08711	-2.55677	0	
0.6120	5.75509	-2.25597	0	
0.6127	7.30453	-5.01327	0	
0.6133	7.59966	-7.4447	0	
0.6140	7.8948	-5.91565	0	
0.6147	7.8948	-2.85756	0	
0.6153	6.08711	-1.95517	0	
0.6160	5.45995	-1.95517	0	
0.6167	5.45995	-0.125332	0	
0.6173	3.9474	1.10292	0	
0.6180	2.39795	-0.125332	0	
0.6187	1.80769	-0.726923	0	
0.6193	1.51255	-0.726923	0	
0.6200	2.10282	1.40371	0	
0.6207	1.51255	4.46181	0	
0.6213	-0.332024	4.46181	0	
0.6220	-0.627157	2.63196	0	
0.6227	-0.627157	3.53435	0	
0.6233	-1.25431	5.36419	0	
0.6240	-0.627157	5.0634	0	
0.6247	-0.332024	4.16101	0	
0.6253	-2.1766	3.23356	0	
0.6260	-0.922289	2.33117	0	
0.6267	1.18053	2.63196	0	
0.6273	-0.332024	2.63196	0	
0.6280	-1.25431	1.10292	0	
0.6287	-0.332024	-1.02772	0	
0.6293	-0.332024	-3.18342	0	
0.6300	2.39795	-3.78502	0	
0.6307	7.0094	-3.48422	0	
0.6313	8.81709	-4.08581	0	
0.6320	8.81709	-6.51724	0	
0.6327	9.44424	-5.91565	0	
0.6333	7.8948	-5.61486	0	
0.6340	6.67738	-5.91565	0	
0.6347	7.30453	-4.6874	0	
0.6353	5.75509	-3.78502	0	
0.6360	3.02511	-3.78502	0	
0.6367	3.32024	-2.85756	0	
0.6373	4.24253	0.501327	0	
0.6380	4.24253	0.802122	0	
0.6387	3.9474	-0.125332	0	
0.6393	2.39795	-0.426128	0	
0.6400	-0.332024	-0.125332	0	
0.6407	-1.54945	1.70451	0	
0.6413	-1.84458	5.0634	0	
0.6420	-2.1766	5.99085	0	
0.6427	-3.39402	3.53435	0	
0.6433	-4.90658	2.93276	0	
0.6440	-4.61145	2.33117	0	
0.6447	-1.84458	-0.426128	0	
0.6453	0.295133	0.175464	0	
0.6460	0.590265	4.46181	0	
0.6467	-1.54945	5.36419	0	
0.6473	-4.61145	2.63196	0	
0.6480	-4.27942	2.33117	0	
0.6487	-1.84458	4.16101	0	
0.6493	-2.76687	2.33117	0	
0.6500	-5.20171	-0.726923	0	
0.6507	-3.062	-1.32852	0	
0.6513	2.72998	-2.85756	0	
0.6520	6.08711	-5.61486	0	
0.6527	4.53766	-6.21645	0	
0.6533	2.10282	-3.78502	0	
0.6540	2.39795	-2.55677	0	
0.6547	4.53766	-2.85756	0	
0.6553	3.02511	-1.95517	0	
0.6560	-0.332024	-1.95517	0	
0.6567	-1.25431	-3.78502	0	
0.6573	-0.332024	-1.95517	0	
0.6580	0.590265	-1.02772	0	
0.6587	1.80769	-3.48422	0	
0.6593	0.590265	-3.78502	0	
0.6600	-3.39402	-0.426128	0	
0.6607	-4.90658	2.63196	0	
0.6613	-3.98429	3.83515	0	
0.6620	-3.39402	3.83515	0	
0.6627	-3.062	2.93276	0	
0.6633	-3.062	2.63196	0	
0.6640	-3.39402	3.23356	0	
0.6647	-3.98429	2.63196	0	
0.6653	-3.062	1.40371	0	
0.6660	-0.627157	0.501327	0	
0.6667	0.590265	0.175464	0	
0.6673	-1.54945	1.70451	0	
0.6680	-2.1766	3.53435	0	
0.6687	-0.0368916	3.53435	0	
0.6693	1.51255	1.70451	0	
0.6700	1.18053	-3.18342	0	
0.6707	2.72998	-7.4447	0	
0.6713	5.16482	-5.61486	0	
0.6720	7.0094	-2.55677	0	
0.6727	8.52195	-4.6874	0	
0.6733	8.52195	-7.4447	0	
0.6740	7.8948	-6.21645	0	
0.6747	7.30453	-4.6874	0	
0.6753	6.08711	-5.91565	0	
0.6760	7.59966	-5.61486	0	
0.6767	11.2519	-3.78502	0	
0.6773	10.6617	-3.18342	0	
0.6780	6.08711	-2.85756	0	
0.6787	3.32024	-1.02772	0	
0.6793	-0.627157	1.40371	0	
0.6800	-8.55885	3.23356	0	
0.6807	-14.0557	3.53435	0	
0.6813	-14.3508	2.63196	0	
0.6820	-11.3257	2.63196	0	
0.6827	-7.63656	4.46181	0	
0.6833	-7.63656	5.99085	0	
0.6840	-9.48114	5.36419	0	
0.6847	-6.41913	4.16101	0	
0.6853	-1.54945	2.33117	0	
0.6860	-1.25431	-0.125332	0	
0.6867	-3.062	-0.426128	0	
0.6873	-3.39402	1.10292	0	
0.6880	-5.53374	2.93276	0	
0.6887	-7.63656	3.23356	0	
0.6893	-7.04629	0.802122	0	
0.6900	-4.27942	-2.85756	0	
0.6907	-1.25431	-5.91565	0	
0.6913	-0.0368916	-5.91565	0	
0.6920	-0.627157	-3.78502	0	
0.6927	-0.332024	-3.78502	0	
0.6933	1.51255	-6.21645	0	
0.6940	0.885398	-5.91565	0	
0.6947	-1.25431	-4.08581	0	
0.6953	-2.1766	-3.78502	0	
0.6960	-0.332024	-3.78502	0	
0.6967	2.10282	-4.38661	0	
0.6973	2.72998	-5.61486	0	
0.6980	1.18053	-5.01327	0	
0.6987	-0.922289	-2.85756	0	
0.6993	-3.68916	-1.32852	0	
0.7000	-7.96858	-0.426128	0	
0.7007	-10.4034	1.10292	0	
0.7013	-10.1083	2.33117	0	
0.7020	-7.96858	2.00531	0	
0.7027	-5.82887	1.70451	0	
0.7033	-7.96858	3.53435	0	
0.7040	-10.9937	4.46181	0	
0.7047	-8.55885	2.63196	0	
0.7053	-4.61145	0.802122	0	
0.7060	-4.90658	1.70451	0	
0.7067	-3.68916	2.63196	0	
0.7073	-0.627157	2.00531	0	
0.7080	-3.062	0.501327	0	
0.7087	-4.90658	0.175464	0	
0.7093	-1.54945	-0.726923	0	
0.7100	-0.332024	-3.48422	0	
0.7107	-1.84458	-5.61486	0	
0.7113	-0.332024	-4.6874	0	
0.7120	-0.332024	-3.78502	0	
0.7127	-2.1766	-3.78502	0	
0.7133	-1.54945	-5.61486	0	
0.7140	-0.332024	-6.21645	0	
0.7147	-0.627157	-4.08581	0	
0.7153	-0.627157	-2.25597	0	
0.7160	-1.25431	-2.55677	0	
0.7167	-1.54945	-2.55677	0	
0.7173	2.39795	-2.55677	0	
0.7180	3.65227	-3.78502	0	
0.7187	-2.1766	-4.38661	0	
0.7193	-6.124	-1.32852	0	
0.7200	-3.98429	2.63196	0	
0.7207	-1.84458	3.83515	0	
0.7213	-2.76687	2.63196	0	
0.7220	-4.27942	2.33117	0	
0.7227	-4.90658	3.53435	0	
0.7233	-2.1766	3.53435	0	
0.7240	1.80769	2.63196	0	
0.7247	0.590265	3.53435	0	
0.7253	-2.47174	2.63196	0	
0.7260	-0.332024	-0.726923	0	
0.7267	3.65227	-2.85756	0	
0.7273	4.53766	-3.18342	0	
0.7280	2.10282	-3.78502	0	
0.7287	0.590265	-2.85756	0	
0.7293	3.65227	-1.95517	0	
0.7300	7.0094	-3.78502	0	
0.7307	4.53766	-6.21645	0	
0.7313	2.39795	-7.74549	0	
0.7320	4.86969	-8.04629	0	
0.7327	6.08711	-8.37215	0	
0.7333	3.32024	-7.4447	0	
0.7340	2.39795	-5.31406	0	
0.7347	2.39795	-5.31406	0	
0.7353	1.51255	-6.51724	0	
0.7360	1.51255	-4.6874	0	
0.7367	0.590265	-3.48422	0	
0.7373	-1.84458	-4.6874	0	
0.7380	-0.922289	-3.78502	0	
0.7387	-0.332024	-1.95517	0	
0.7393	-3.68916	-3.18342	0	
0.7400	-3.062	-4.6874	0	
0.7407	3.65227	-2.85756	0	
0.7413	7.59966	-1.02772	0	
0.7420	7.0094	-1.02772	0	
0.7427	6.67738	-0.125332	0	
0.7433	7.0094	1.40371	0	
0.7440	6.67738	-0.125332	0	
0.7447	7.8948	-1.65438	0	
0.7453	8.52195	-1.02772	0	
0.7460	6.08711	-1.65438	0	
0.7467	3.9474	-2.85756	0	
0.7473	4.86969	-1.32852	0	
0.7480	6.67738	-0.125332	0	
0.7487	6.67738	-2.85756	0	
0.7493	4.53766	-5.01327	0	
0.7500	1.51255	-5.61486	0	
0.7507	-3.062	-5.61486	0	
0.7513	-7.63656	-4.6874	0	
0.7520	-7.96858	-3.78502	0	
0.7527	-4.61145	-5.01327	0	
0.7533	-2.1766	-5.31406	0	
0.7540	-3.68916	-4.6874	0	
0.7547	-4.61145	-5.01327	0	
0.7553	-3.39402	-2.55677	0	
0.7560	-1.25431	0.175464	0	
0.7567	0.590265	-1.65438	0	
0.7573	0.590265	-2.85756	0	
0.7580	-0.627157	-1.95517	0	
0.7587	-0.922289	-2.25597	0	
0.7593	-1.54945	-0.426128	0	
0.7600	-3.98429	4.16101	0	
0.7607	-5.82887	5.36419	0	
0.7613	-4.90658	4.7626	0	
0.7620	-3.98429	6.29165	0	
0.7627	-6.75116	6.89324	0	
0.7633	-8.26371	6.29165	0	
0.7640	-2.76687	5.99085	0	
0.7647	2.39795	5.0634	0	
0.7653	2.39795	4.46181	0	
0.7660	0.885398	3.83515	0	
0.7667	-0.332024	2.63196	0	
0.7673	-2.47174	4.46181	0	
0.7680	-3.98429	5.99085	0	
0.7687	-3.98429	2.63196	0	
0.7693	-3.062	0.175464	0	
0.7700	0.295133	-0.125332	0	
0.7707	0.885398	-1.32852	0	
0.7713	-1.25431	-1.02772	0	
0.7720	-1.25431	-0.125332	0	
0.7727	0.590265	-1.65438	0	
0.7733	0.295133	-2.25597	0	
0.7740	-1.25431	0.175464	0	
0.7747	-3.98429	0.802122	0	
0.7753	-5.20171	-0.726923	0	
0.7760	-3.98429	-0.125332	0	
0.7767	-7.63656	0.802122	0	
0.7773	-14.978	1.10292	0	
0.7780	-13.1334	3.83515	0	
0.7787	-6.41913	4.46181	0	
0.7793	-5.20171	2.33117	0	
0.7800	-6.41913	2.93276	0	
0.7807	-4.90658	5.36419	0	
0.7813	-6.75116	6.29165	0	
0.7820	-8.55885	7.19404	0	
0.7827	-4.61145	7.19404	0	
0.7833	-0.332024	6.29165	0	
0.7840	-1.54945	6.89324	0	
0.7847	-4.61145	7.19404	0	
0.7853	-3.68916	5.69006	0	
0.7860	-2.1766	5.99085	0	
0.7867	-2.76687	6.59244	0	
0.7873	-1.84458	4.16101	0	
0.7880	-0.0368916	2.00531	0	
0.7887	-0.0368916	1.70451	0	
0.7893	1.18053	0.501327	0	
0.7900	3.65227	-0.726923	0	
0.7907	3.9474	-1.02772	0	
0.7913	2.72998	-0.125332	0	
0.7920	3.65227	0.802122	0	
0.7927	3.9474	-1.65438	0	
0.7933	1.80769	-4.6874	0	
0.7940	0.590265	-2.85756	0	
0.7947	1.51255	0.175464	0	
0.7953	0.885398	0.802122	0	
0.7960	-0.332024	1.40371	0	
0.7967	-1.84458	1.70451	0	
0.7973	-4.27942	1.70451	0	
0.7980	-3.98429	2.33117	0	
0.7987	-0.922289	2.00531	0	
0.7993	-1.54945	0.802122	0	
0.8000	-5.20171	1.70451	0	
0.8007	-4.90658	3.83515	0	
0.8013	-3.98429	5.0634	0	
0.8020	-5.82887	5.69006	0	
0.8027	-7.34142	5.0634	0	
0.8033	-7.34142	4.7626	0	
0.8040	-8.89087	7.19404	0	
0.8047	-9.48114	9.02388	0	
0.8053	-7.63656	8.42229	0	
0.8060	-7.96858	6.29165	0	
0.8067	-10.9937	2.63196	0	
0.8073	-9.48114	1.70451	0	
0.8080	-1.54945	3.83515	0	
0.8087	2.39795	4.16101	0	
0.8093	-0.627157	2.63196	0	
0.8100	-2.47174	2.63196	0	
0.8107	-1.25431	1.70451	0	
0.8113	-2.47174	-1.02772	0	
0.8120	-2.47174	-1.95517	0	
0.8127	-0.627157	-0.125332	0	
0.8133	-1.84458	1.40371	0	
0.8140	-3.39402	1.10292	0	
0.8147	-1.25431	0.175464	0	
0.8153	1.18053	0.175464	0	
0.8160	2.39795	-1.02772	0	
0.8167	6.08711	-2.55677	0	
0.8173	9.73938	-1.95517	0	
0.8180	9.73938	0.175464	0	
0.8187	5.45995	0.501327	0	
0.8193	2.72998	-0.125332	0	
0.8200	3.65227	-0.125332	0	
0.8207	2.72998	0.802122	0	
0.8213	-0.627157	4.7626	0	
0.8220	-0.332024	8.12149	0	
0.8227	3.65227	5.99085	0	
0.8233	5.45995	4.46181	0	
0.8240	4.86969	6.89324	0	
0.8247	2.39795	7.19404	0	
0.8253	0.590265	5.36419	0	
0.8260	1.51255	5.36419	0	
0.8267	3.02511	4.46181	0	
0.8273	0.590265	2.63196	0	
0.8280	-4.90658	2.93276	0	
0.8287	-7.34142	2.33117	0	
0.8293	-3.062	0.175464	0	
0.8300	0.590265	0.175464	0	
0.8307	-0.332024	-0.726923	0	
0.8313	0.590265	-3.78502	0	
0.8320	4.24253	-4.08581	0	
0.8327	3.02511	-2.85756	0	
0.8333	-0.332024	-2.25597	0	
0.8340	0.590265	-3.18342	0	
0.8347	1.80769	-5.01327	0	
0.8353	0.885398	-5.61486	0	
0.8360	2.10282	-2.55677	0	
0.8367	3.32024	-0.726923	0	
0.8373	1.51255	-2.85756	0	
0.8380	-0.627157	-2.85756	0	
0.8387	0.590265	0.501327	0	
0.8393	1.80769	1.40371	0	
0.8400	-0.332024	1.70451	0	
0.8407	-3.68916	3.23356	0	
0.8413	-4.61145	4.16101	0	
0.8420	-3.68916	3.53435	0	
0.8427	-2.1766	2.33117	0	
0.8433	-1.84458	2.00531	0	
0.8440	-2.1766	3.53435	0	
0.8447	-2.1766	5.36419	0	
0.8453	-2.1766	4.7626	0	
0.8460	-3.062	1.70451	0	
0.8467	-0.922289	-0.125332	0	
0.8473	1.18053	0.802122	0	
0.8480	0.590265	0.175464	0	
0.8487	-0.332024	-1.95517	0	
0.8493	-0.627157	-1.32852	0	
0.8500	-0.627157	-1.02772	0	
0.8507	1.80769	-3.18342	0	
0.8513	3.65227	-4.38661	0	
0.8520	2.39795	-3.48422	0	
0.8527	1.80769	-3.18342	0	
0.8533	3.32024	-5.01327	0	
0.8540	3.32024	-8.04629	0	
0.8547	3.02511	-7.74549	0	
0.8553	3.65227	-5.01327	0	
0.8560	3.32024	-5.01327	0	
0.8567	2.10282	-6.51724	0	
0.8573	1.51255	-5.61486	0	
0.8580	0.885398	-3.78502	0	
0.8587	-1.54945	-3.48422	0	
0.8593	-4.90658	-2.55677	0	
0.8600	-6.41913	-0.726923	0	
0.8607	-8.55885	0.802122	0	
0.8613	-11.916	1.70451	0	
0.8620	-11.3257	1.70451	0	
0.8627	-6.75116	1.70451	0	
0.8633	-4.90658	2.33117	0	
0.8640	-4.61145	3.53435	0	
0.8647	-1.25431	3.23356	0	
0.8653	1.51255	-0.125332	0	
0.8660	0.590265	-1.95517	0	
0.8667	1.18053	0.175464	0	
0.8673	3.32024	0.175464	0	
0.8680	4.53766	-2.55677	0	
0.8687	3.9474	-3.78502	0	
0.8693	3.32024	-4.6874	0	
0.8700	7.0094	-7.4447	0	
0.8707	14.3139	-7.1439	0	
0.8713	16.1585	-6.84311	0	
0.8720	9.73938	-8.37215	0	
0.8727	6.08711	-9.27454	0	
0.8733	6.08711	-9.27454	0	
0.8740	3.32024	-9.57534	0	
0.8747	1.51255	-7.1439	0	
0.8753	2.39795	-3.78502	0	
0.8760	1.80769	-3.18342	0	
0.8767	1.80769	-3.78502	0	
0.8773	4.24253	-2.85756	0	
0.8780	4.24253	-1.65438	0	
0.8787	2.10282	-1.65438	0	
0.8793	0.295133	-0.426128	0	
0.8800	-0.922289	2.33117	0	
0.8807	-2.76687	2.63196	0	
0.8813	-4.90658	1.40371	0	
0.8820	-4.90658	2.33117	0	
0.8827	-3.39402	4.46181	0	
0.8833	-2.1766	4.16101	0	
0.8840	-2.76687	3.83515	0	
0.8847	-3.98429	4.46181	0	
0.8853	-2.76687	2.00531	0	
0.8860	1.51255	-0.726923	0	
0.8867	3.65227	-0.125332	0	
0.8873	0.590265	0.802122	0	
0.8880	-1.25431	-1.02772	0	
0.8887	2.10282	-1.95517	0	
0.8893	2.39795	-0.726923	0	
0.8900	2.10282	-1.02772	0	
0.8907	4.53766	-3.78502	0	
0.8913	4.53766	-7.4447	0	
0.8920	1.51255	-8.37215	0	
0.8927	3.32024	-6.21645	0	
0.8933	5.45995	-4.6874	0	
0.8940	1.51255	-4.08581	0	
0.8947	-0.922289	-3.18342	0	
0.8953	-0.0368916	-1.65438	0	
0.8960	-0.922289	-1.95517	0	
0.8967	-0.332024	-2.25597	0	
0.8973	3.65227	-1.02772	0	
0.8980	5.16482	-0.125332	0	
0.8987	3.32024	-0.125332	0	
0.8993	2.39795	1.40371	0	
0.9000	0.295133	3.23356	0	
0.9007	-1.84458	3.23356	0	
0.9013	-2.1766	2.93276	0	
0.9020	-3.062	4.46181	0	
0.9027	-4.61145	4.16101	0	
0.9033	-6.75116	2.00531	0	
0.9040	-7.34142	2.00531	0	
0.9047	-4.90658	3.23356	0	
0.9053	-2.76687	2.93276	0	
0.9060	-2.47174	2.00531	0	
0.9067	-0.0368916	1.40371	0	
0.9073	2.72998	0.175464	0	
0.9080	1.51255	-0.125332	0	
0.9087	0.590265	-1.02772	0	
0.9093	2.39795	-5.01327	0	
0.9100	2.39795	-6.84311	0	
0.9107	3.32024	-5.01327	0	
0.9113	7.8948	-5.01327	0	
0.9120	8.81709	-6.84311	0	
0.9127	6.38224	-7.74549	0	
0.9133	7.8948	-7.1439	0	
0.9140	9.73938	-5.61486	0	
0.9147	8.81709	-5.61486	0	
0.9153	7.8948	-8.97374	0	
0.9160	7.0094	-10.202	0	
0.9167	4.53766	-6.84311	0	
0.9173	0.885398	-3.78502	0	
0.9180	-0.922289	-5.61486	0	
0.9187	0.885398	-7.74549	0	
0.9193	2.10282	-4.38661	0	
0.9200	0.885398	0.802122	0	
0.9207	-0.0368916	0.802122	0	
0.9213	-0.332024	-1.32852	0	
0.9220	-1.25431	-0.125332	0	
0.9227	-0.922289	2.33117	0	
0.9233	-0.332024	2.00531	0	
0.9240	-0.922289	-0.125332	0	
0.9247	-0.922289	-1.32852	0	
0.9253	0.885398	0.802122	0	
0.9260	3.32024	2.33117	0	
0.9267	2.39795	-1.02772	0	
0.9273	-0.332024	-3.18342	0	
0.9280	2.39795	-1.02772	0	
0.9287	7.8948	-1.32852	0	
0.9293	7.8948	-5.31406	0	
0.9300	6.08711	-7.1439	0	
0.9307	6.08711	-6.84311	0	
0.9313	4.53766	-7.1439	0	
0.9320	3.02511	-7.1439	0	
0.9327	3.65227	-8.04629	0	
0.9333	3.65227	-9.57534	0	
0.9340	2.39795	-8.97374	0	
0.9347	3.32024	-7.1439	0	
0.9353	5.16482	-7.4447	0	
0.9360	4.86969	-7.4447	0	
0.9367	2.39795	-5.61486	0	
0.9373	1.18053	-3.78502	0	
0.9380	3.32024	-4.38661	0	
0.9387	3.65227	-5.31406	0	
0.9393	1.18053	-4.38661	0	
0.9400	-0.332024	-1.95517	0	
0.9407	-1.25431	-0.125332	0	
0.9413	-2.76687	-0.726923	0	
0.9420	-0.332024	-1.65438	0	
0.9427	4.53766	-2.25597	0	
0.9433	6.08711	-2.55677	0	
0.9440	6.08711	-0.726923	0	
0.9447	6.08711	0.802122	0	
0.9453	5.75509	0.802122	0	
0.9460	5.16482	0.501327	0	
0.9467	4.24253	-0.426128	0	
0.9473	3.32024	-2.85756	0	
0.9480	4.53766	-4.08581	0	
0.9487	7.59966	-4.6874	0	
0.9493	9.73938	-6.51724	0	
0.9500	10.6617	-7.1439	0	
0.9507	10.6617	-6.21645	0	
0.9513	11.584	-6.51724	0	
0.9520	11.2519	-8.67295	0	
0.9527	8.81709	-8.67295	0	
0.9533	7.0094	-5.91565	0	
0.9540	6.38224	-4.6874	0	
0.9547	6.08711	-6.51724	0	
0.9553	6.67738	-7.1439	0	
0.9560	8.52195	-6.51724	0	
0.9567	7.8948	-7.4447	0	
0.9573	7.0094	-8.37215	0	
0.9580	6.38224	-4.38661	0	
0.9587	4.24253	-1.02772	0	
0.9593	2.39795	-1.95517	0	
0.9600	0.885398	-1.02772	0	
0.9607	-1.54945	1.70451	0	
0.9613	-4.90658	2.00531	0	
0.9620	-8.89087	2.33117	0	
0.9627	-13.1334	1.70451	0	
0.9633	-13.4654	0.175464	0	
0.9640	-10.4034	1.10292	0	
0.9647	-9.186	2.93276	0	
0.9653	-9.48114	1.40371	0	
0.9660	-6.75116	0.802122	0	
0.9667	-3.39402	2.63196	0	
0.9673	-3.062	1.70451	0	
0.9680	-6.75116	0.501327	0	
0.9687	-10.6986	1.40371	0	
0.9693	-10.4034	0.802122	0	
0.9700	-8.26371	-0.426128	0	
0.9707	-8.55885	-0.125332	0	
0.9713	-8.55885	0.802122	0	
0.9720	-5.20171	-0.426128	0	
0.9727	-2.47174	-3.48422	0	
0.9733	-4.90658	-4.08581	0	
0.9740	-6.75116	-2.55677	0	
0.9747	-3.68916	-1.95517	0	
0.9753	-2.76687	-1.95517	0	
0.9760	-6.75116	0.501327	0	
0.9767	-7.63656	2.00531	0	
0.9773	-3.68916	0.802122	0	
0.9780	-0.0368916	2.33117	0	
0.9787	0.590265	4.46181	0	
0.9793	-1.84458	3.53435	0	
0.9800	-3.062	4.7626	0	
0.9807	-1.54945	8.12149	0	
0.9813	-2.1766	8.42229	0	
0.9820	-6.75116	8.12149	0	
0.9827	-8.55885	10.2521	0	
0.9833	-10.1083	9.65054	0	
0.9840	-14.6828	7.82069	0	
0.9847	-14.0557	10.5529	0	
0.9853	-8.55885	12.7086	0	
0.9860	-7.96858	9.02388	0	
0.9867	-8.55885	8.42229	0	
0.9873	-5.20171	9.95133	0	
0.9880	-3.98429	5.99085	0	
0.9887	-5.20171	3.23356	0	
0.9893	-2.76687	7.82069	0	
0.9900	0.885398	9.34974	0	
0.9907	-0.0368916	4.7626	0	
0.9913	-5.20171	4.46181	0	
0.9920	-10.6986	7.19404	0	
0.9927	-13.4654	5.99085	0	
0.9933	-12.8383	5.69006	0	
0.9940	-10.9937	8.12149	0	
0.9947	-10.4034	6.89324	0	
0.9953	-11.6208	4.46181	0	
0.9960	-12.8383	7.19404	0	
0.9967	-12.248	8.42229	0	
0.9973	-10.4034	5.99085	0	
0.9980	-10.4034	5.69006	0	
0.9987	-12.248	7.82069	0	
0.9993	-12.248	9.65054	0	
1.0000	-11.3257	12.7086	0	
1.0007	-13.1334	13.9118	0	
1.0013	-17.1177	12.7086	0	
1.0020	-17.4128	11.7812	0	
1.0027	-14.978	11.7812	0	
1.0033	-13.1334	10.8537	0	
1.0040	-8.55885	9.65054	0	
1.0047	-1.84458	8.12149	0	
1.0053	0.295133	6.29165	0	
1.0060	-3.39402	6.89324	0	
1.0067	-6.124	7.19404	0	
1.0073	-4.90658	6.29165	0	
1.0080	-3.98429	5.36419	0	
1.0087	-4.61145	4.46181	0	
1.0093	-2.1766	1.70451	0	
1.0100	1.51255	-0.125332	0	
1.0107	3.9474	-0.125332	0	
1.0113	4.53766	-1.32852	0	
1.0120	4.24253	-1.32852	0	
1.0127	3.65227	0.501327	0	
1.0133	5.16482	1.40371	0	
1.0140	5.16482	1.10292	0	
1.0147	3.32024	1.10292	0	
1.0153	3.32024	1.10292	0	
1.0160	4.24253	1.10292	0	
1.0167	2.39795	0.501327	0	
1.0173	-0.332024	0.175464	0	
1.0180	1.18053	2.00531	0	
1.0187	2.39795	3.23356	0	
1.0193	-0.332024	2.93276	0	
1.0200	-2.76687	4.7626	0	
1.0207	-2.1766	7.19404	0	
1.0213	-3.39402	7.19404	0	
1.0220	-8.26371	8.12149	0	
1.0227	-9.48114	8.12149	0	
1.0233	-7.34142	5.0634	0	
1.0240	-7.04629	4.46181	0	
1.0247	-6.75116	7.19404	0	
1.0253	-4.90658	7.19404	0	
1.0260	-4.90658	4.16101	0	
1.0267	-5.53374	4.46181	0	
1.0273	-3.98429	7.19404	0	
1.0280	-3.98429	7.5199	0	
1.0287	-5.82887	5.69006	0	
1.0293	-3.98429	4.16101	0	
1.0300	0.590265	2.93276	0	
1.0307	1.18053	1.10292	0	
1.0313	-1.54945	0.501327	0	
1.0320	-3.062	0.501327	0	
1.0327	-1.84458	-0.125332	0	
1.0333	-2.1766	-1.32852	0	
1.0340	-3.68916	-1.02772	0	
1.0347	-2.76687	-0.726923	0	
1.0353	-0.0368916	-0.726923	0	
1.0360	0.885398	-0.125332	0	
1.0367	1.18053	1.10292	0	
1.0373	-0.0368916	2.33117	0	
1.0380	-4.90658	2.00531	0	
1.0387	-8.89087	1.70451	0	
1.0393	-8.55885	4.16101	0	
1.0400	-6.75116	7.19404	0	
1.0407	-5.20171	9.65054	0	
1.0413	-4.61145	11.4804	0	
1.0420	-4.90658	10.2521	0	
1.0427	-3.062	7.19404	0	
1.0433	-0.627157	7.19404	0	
1.0440	-0.627157	8.12149	0	
1.0447	0.590265	6.29165	0	
1.0453	4.24253	4.16101	0	
1.0460	4.53766	3.53435	0	
1.0467	3.65227	2.93276	0	
1.0473	3.65227	2.93276	0	
1.0480	1.51255	3.53435	0	
1.0487	-1.25431	2.33117	0	
1.0493	-1.54945	-0.125332	0	
1.0500	-4.61145	-1.65438	0	
1.0507	-7.96858	-1.95517	0	
1.0513	-7.96858	-1.32852	0	
1.0520	-5.82887	-1.02772	0	
1.0527	-4.90658	-3.18342	0	
1.0533	-4.90658	-5.61486	0	
1.0540	-4.27942	-5.31406	0	
1.0547	-2.76687	-3.78502	0	
1.0553	-2.1766	-2.25597	0	
1.0560	-2.76687	-1.02772	0	
1.0567	-1.25431	0.501327	0	
1.0573	-0.627157	1.10292	0	
1.0580	-3.98429	-0.426128	0	
1.0587	-4.90658	-2.25597	0	
1.0593	-3.39402	-0.726923	0	
1.0600	-4.90658	2.63196	0	
1.0607	-6.124	4.46181	0	
1.0613	-2.1766	4.16101	0	
1.0620	0.590265	2.93276	0	
1.0627	-1.25431	2.93276	0	
1.0633	-1.84458	4.16101	0	
1.0640	-0.922289	3.53435	0	
1.0647	-2.1766	2.63196	0	
1.0653	-2.76687	2.93276	0	
1.0660	-1.54945	1.10292	0	
1.0667	-1.25431	-1.02772	0	
1.0673	-0.922289	0.802122	0	
1.0680	-1.25431	2.93276	0	
1.0687	-4.27942	1.10292	0	
1.0693	-6.124	-3.18342	0	
1.0700	-3.98429	-5.61486	0	
1.0707	-1.84458	-5.01327	0	
1.0713	0.885398	-3.78502	0	
1.0720	3.65227	-5.01327	0	
1.0727	3.32024	-6.84311	0	
1.0733	3.02511	-7.4447	0	
1.0740	5.16482	-8.37215	0	
1.0747	4.53766	-8.67295	0	
1.0753	3.32024	-7.74549	0	
1.0760	5.16482	-5.91565	0	
1.0767	6.67738	-3.78502	0	
1.0773	6.67738	-2.85756	0	
1.0780	7.30453	-5.61486	0	
1.0787	6.67738	-5.61486	0	
1.0793	4.86969	-1.95517	0	
1.0800	2.39795	-1.02772	0	
1.0807	0.590265	-0.426128	0	
1.0813	1.51255	3.53435	0	
1.0820	3.65227	3.83515	0	
1.0827	2.10282	-0.426128	0	
1.0833	0.590265	-1.65438	0	
1.0840	3.02511	0.501327	0	
1.0847	6.08711	-0.125332	0	
1.0853	7.0094	-1.95517	0	
1.0860	7.59966	-1.95517	0	
1.0867	6.08711	-1.65438	0	
1.0873	3.9474	-2.55677	0	
1.0880	3.9474	-4.38661	0	
1.0887	5.45995	-4.6874	0	
1.0893	6.67738	-3.78502	0	
1.0900	6.67738	-6.21645	0	
1.0907	7.0094	-8.04629	0	
1.0913	9.44424	-6.51724	0	
1.0920	11.584	-5.31406	0	
1.0927	11.584	-7.1439	0	
1.0933	10.3665	-8.97374	0	
1.0940	9.11222	-10.202	0	
1.0947	8.52195	-9.87613	0	
1.0953	8.81709	-8.04629	0	
1.0960	7.8948	-6.84311	0	
1.0967	6.08711	-6.51724	0	
1.0973	6.08711	-6.51724	0	
1.0980	6.08711	-6.84311	0	
1.0987	6.67738	-5.61486	0	
1.0993	9.11222	-3.78502	0	
1.1000	7.8948	-2.85756	0	
1.1007	4.53766	0.175464	0	
1.1013	4.86969	1.70451	0	
1.1020	3.02511	-1.95517	0	
1.1027	-0.627157	-3.48422	0	
1.1033	1.18053	-0.125332	0	
1.1040	1.80769	-0.125332	0	
1.1047	-1.25431	-2.25597	0	
1.1053	-0.0368916	-1.95517	0	
1.1060	0.885398	-1.95517	0	
1.1067	-1.54945	-3.78502	0	
1.1073	-0.0368916	-2.55677	0	
1.1080	2.39795	-2.55677	0	
1.1087	2.10282	-4.6874	0	
1.1093	3.65227	-4.38661	0	
1.1100	5.45995	-4.38661	0	
1.1107	4.86969	-7.1439	0	
1.1113	6.08711	-8.37215	0	
1.1120	7.0094	-8.37215	0	
1.1127	3.65227	-9.87613	0	
1.1133	4.24253	-8.37215	0	
1.1140	9.44424	-4.38661	0	
1.1147	10.3665	-4.6874	0	
1.1153	7.8948	-8.67295	0	
1.1160	6.08711	-8.67295	0	
1.1167	5.45995	-5.61486	0	
1.1173	4.86969	-4.6874	0	
1.1180	4.86969	-6.21645	0	
1.1187	6.08711	-6.21645	0	
1.1193	7.0094	-3.78502	0	
1.1200	6.67738	-1.32852	0	
1.1207	6.08711	-1.02772	0	
1.1213	7.0094	0.802122	0	
1.1220	7.8948	3.53435	0	
1.1227	7.8948	3.53435	0	
1.1233	5.16482	4.46181	0	
1.1240	3.32024	6.29165	0	
1.1247	2.39795	4.16101	0	
1.1253	3.02511	0.175464	0	
1.1260	3.32024	1.70451	0	
1.1267	3.65227	2.93276	0	
1.1273	3.32024	0.501327	0	
1.1280	1.18053	-1.32852	0	
1.1287	-0.627157	-1.95517	0	
1.1293	-0.332024	-2.55677	0	
1.1300	1.51255	-4.08581	0	
1.1307	4.24253	-6.51724	0	
1.1313	6.08711	-8.37215	0	
1.1320	6.08711	-7.74549	0	
1.1327	5.16482	-4.08581	0	
1.1333	4.53766	-3.78502	0	
1.1340	4.24253	-8.67295	0	
1.1347	2.10282	-10.202	0	
1.1353	0.885398	-6.51724	0	
1.1360	2.72998	-6.51724	0	
1.1367	3.32024	-7.74549	0	
1.1373	1.51255	-2.85756	0	
1.1380	1.80769	0.802122	0	
1.1387	3.32024	-0.125332	0	
1.1393	2.39795	0.175464	0	
1.1400	3.32024	0.501327	0	
1.1407	6.08711	0.501327	0	
1.1413	4.24253	2.93276	0	
1.1420	2.39795	5.0634	0	
1.1427	4.53766	5.36419	0	
1.1433	4.86969	5.36419	0	
1.1440	3.02511	5.0634	0	
1.1447	3.32024	5.36419	0	
1.1453	4.24253	7.5199	0	
1.1460	3.65227	7.19404	0	
1.1467	2.39795	4.46181	0	
1.1473	-0.332024	2.63196	0	
1.1480	-1.84458	-1.32852	0	
1.1487	-1.84458	-3.78502	0	
1.1493	-3.062	-1.95517	0	
1.1500	-2.1766	-3.18342	0	
1.1507	1.51255	-7.1439	0	
1.1513	1.51255	-7.1439	0	
1.1520	-0.627157	-6.51724	0	
1.1527	-0.922289	-8.97374	0	
1.1533	-3.062	-7.74549	0	
1.1540	-7.34142	-5.61486	0	
1.1547	-7.63656	-7.4447	0	
1.1553	-5.20171	-7.1439	0	
1.1560	-5.82887	-3.78502	0	
1.1567	-7.34142	-3.78502	0	
1.1573	-8.26371	-3.78502	0	
1.1580	-11.6208	-1.65438	0	
1.1587	-15.9003	-0.426128	0	
1.1593	-18.6302	-0.426128	0	
1.1600	-20.4748	1.10292	0	
1.1607	-20.4748	2.63196	0	
1.1613	-18.04	1.70451	0	
1.1620	-16.4905	-0.125332	0	
1.1627	-16.4905	0.802122	0	
1.1633	-18.04	4.46181	0	
1.1640	-19.5525	4.16101	0	
1.1647	-16.8226	-0.726923	0	
1.1653	-12.248	-1.32852	0	
1.1660	-13.1334	0.802122	0	
1.1667	-16.1954	-1.02772	0	
1.1673	-14.6828	-2.85756	0	
1.1680	-12.5431	-2.25597	0	
1.1687	-12.5431	-2.85756	0	
1.1693	-9.77627	-3.78502	0	
1.1700	-7.04629	-4.6874	0	
1.1707	-7.63656	-6.21645	0	
1.1713	-4.90658	-6.84311	0	
1.1720	0.590265	-6.51724	0	
1.1727	-0.332024	-7.74549	0	
1.1733	-2.47174	-7.4447	0	
1.1740	2.72998	-5.01327	0	
1.1747	7.0094	-5.31406	0	
1.1753	4.53766	-5.31406	0	
1.1760	3.32024	-2.55677	0	
1.1767	4.24253	-3.78502	0	
1.1773	3.32024	-6.84311	0	
1.1780	5.45995	-4.38661	0	
1.1787	7.0094	-0.125332	0	
1.1793	4.53766	-0.125332	0	
1.1800	5.16482	-0.726923	0	
1.1807	7.30453	1.70451	0	
1.1813	4.53766	2.93276	0	
1.1820	2.10282	1.10292	0	
1.1827	3.32024	0.802122	0	
1.1833	3.9474	3.53435	0	
1.1840	3.02511	4.46181	0	
1.1847	3.02511	2.63196	0	
1.1853	2.39795	3.23356	0	
1.1860	2.39795	4.46181	0	
1.1867	2.39795	3.23356	0	
1.1873	0.590265	2.93276	0	
1.1880	-1.25431	2.93276	0	
1.1887	0.590265	0.802122	0	
1.1893	1.51255	-1.02772	0	
1.1900	0.885398	-2.55677	0	
1.1907	3.02511	-4.38661	0	
1.1913	7.59966	-3.78502	0	
1.1920	9.73938	-3.18342	0	
1.1927	7.59966	-4.6874	0	
1.1933	6.08711	-4.6874	0	
1.1940	9.73938	-1.95517	0	
1.1947	10.3665	-2.85756	0	
1.1953	4.53766	-4.08581	0	
1.1960	2.39795	-0.426128	0	
1.1967	2.39795	1.70451	0	
1.1973	-3.98429	-1.32852	0	
1.1980	-10.1083	-1.95517	0	
1.1987	-9.186	2.63196	0	
1.1993	-9.48114	3.83515	0	
1.2000	-11.916	2.63196	0	
1.2007	-9.186	5.36419	0	
1.2013	-5.82887	7.82069	0	
1.2020	-4.27942	6.29165	0	
1.2027	-1.54945	5.99085	0	
1.2033	0.590265	6.29165	0	
1.2040	0.885398	4.46181	0	
1.2047	3.65227	4.16101	0	
1.2053	5.16482	5.36419	0	
1.2060	3.02511	5.36419	0	
1.2067	4.24253	5.36419	0	
1.2073	9.44424	5.36419	0	
1.2080	10.0345	5.99085	0	
1.2087	6.67738	6.29165	0	
1.2093	6.38224	3.23356	0	
1.2100	9.44424	-0.726923	0	
1.2107	9.73938	-1.02772	0	
1.2113	6.08711	0.175464	0	
1.2120	2.39795	0.802122	0	
1.2127	0.590265	1.40371	0	
1.2133	0.885398	1.10292	0	
1.2140	2.10282	1.10292	0	
1.2147	2.72998	2.63196	0	
1.2153	2.72998	2.00531	0	
1.2160	3.02511	1.10292	0	
1.2167	4.24253	2.33117	0	
1.2173	4.24253	1.70451	0	
1.2180	4.24253	-1.02772	0	
1.2187	5.75509	-0.125332	0	
1.2193	5.75509	2.63196	0	
1.2200	4.53766	1.70451	0	
1.2207	5.16482	1.10292	0	
1.2213	5.45995	3.23356	0	
1.2220	5.16482	4.7626	0	
1.2227	6.08711	3.83515	0	
1.2233	4.86969	2.33117	0	
1.2240	1.51255	1.70451	0	
1.2247	1.51255	0.802122	0	
1.2253	3.32024	-0.726923	0	
1.2260	2.39795	0.175464	0	
1.2267	1.51255	0.802122	0	
1.2273	2.10282	-1.95517	0	
1.2280	1.51255	-3.18342	0	
1.2287	1.51255	-1.32852	0	
1.2293	3.02511	-2.85756	0	
1.2300	4.53766	-5.61486	0	
1.2307	5.16482	-3.78502	0	
1.2313	5.16482	-2.85756	0	
1.2320	4.53766	-4.38661	0	
1.2327	7.0094	-4.08581	0	
1.2333	11.584	-3.18342	0	
1.2340	12.1742	-3.18342	0	
1.2347	9.11222	-2.55677	0	
1.2353	5.75509	-2.25597	0	
1.2360	2.39795	-3.78502	0	
1.2367	2.10282	-2.85756	0	
1.2373	3.02511	-0.426128	0	
1.2380	1.51255	-1.02772	0	
1.2387	-0.627157	-1.65438	0	
1.2393	0.295133	0.802122	0	
1.2400	-0.0368916	3.23356	0	
1.2407	-1.25431	4.16101	0	
1.2413	-1.25431	4.16101	0	
1.2420	-3.062	3.23356	0	
1.2427	-4.90658	3.53435	0	
1.2433	-3.98429	4.16101	0	
1.2440	-3.062	2.63196	0	
1.2447	-3.39402	0.802122	0	
1.2453	-2.1766	1.40371	0	
1.2460	-0.332024	2.63196	0	
1.2467	-0.332024	3.53435	0	
1.2473	-1.25431	2.93276	0	
1.2480	-1.25431	0.501327	0	
1.2487	0.590265	-1.32852	0	
1.2493	0.590265	-1.02772	0	
1.2500	-1.84458	-1.65438	0	
1.2507	-1.25431	-3.18342	0	
1.2513	1.51255	-4.38661	0	
1.2520	2.39795	-6.21645	0	
1.2527	1.80769	-7.1439	0	
1.2533	3.02511	-4.6874	0	
1.2540	4.24253	-3.78502	0	
1.2547	3.65227	-5.91565	0	
1.2553	3.32024	-4.6874	0	
1.2560	3.9474	-1.95517	0	
1.2567	3.02511	-1.32852	0	
1.2573	3.32024	-1.32852	0	
1.2580	4.53766	-1.02772	0	
1.2587	2.39795	-2.25597	0	
1.2593	-2.1766	-0.125332	0	
1.2600	-3.39402	4.46181	0	
1.2607	-4.61145	3.83515	0	
1.2613	-6.75116	0.802122	0	
1.2620	-6.75116	2.00531	0	
1.2627	-4.90658	4.46181	0	
1.2633	-3.98429	3.23356	0	
1.2640	-2.47174	2.63196	0	
1.2647	-0.332024	4.46181	0	
1.2653	2.10282	2.00531	0	
1.2660	2.39795	-1.65438	0	
1.2667	-1.84458	-0.426128	0	
1.2673	-2.47174	1.40371	0	
1.2680	2.72998	-0.726923	0	
1.2687	4.24253	-0.125332	0	
1.2693	0.590265	0.802122	0	
1.2700	-0.332024	-3.48422	0	
1.2707	1.18053	-5.31406	0	
1.2713	0.590265	-2.85756	0	
1.2720	0.590265	-3.48422	0	
1.2727	-1.54945	-4.38661	0	
1.2733	-5.82887	-2.25597	0	
1.2740	-7.04629	-3.18342	0	
1.2747	-4.90658	-5.31406	0	
1.2753	-4.61145	-2.85756	0	
1.2760	-5.20171	-1.02772	0	
1.2767	-5.82887	-1.65438	0	
1.2773	-4.61145	1.10292	0	
1.2780	-1.84458	3.53435	0	
1.2787	-0.922289	1.70451	0	
1.2793	-3.39402	1.40371	0	
1.2800	-4.90658	1.70451	0	
1.2807	-5.82887	2.63196	0	
1.2813	-7.63656	5.36419	0	
1.2820	-6.75116	7.5199	0	
1.2827	-3.98429	7.19404	0	
1.2833	-1.84458	7.5199	0	
1.2840	-0.332024	7.5199	0	
1.2847	0.590265	5.69006	0	
1.2853	0.295133	3.53435	0	
1.2860	1.51255	1.70451	0	
1.2867	3.32024	0.175464	0	
1.2873	3.32024	0.802122	0	
1.2880	2.39795	1.70451	0	
1.2887	3.65227	0.175464	0	
1.2893	4.53766	-2.25597	0	
1.2900	3.02511	-3.18342	0	
1.2907	0.885398	-3.78502	0	
1.2913	2.39795	-4.6874	0	
1.2920	3.65227	-3.48422	0	
1.2927	0.885398	-1.32852	0	
1.2933	-1.54945	-3.48422	0	
1.2940	-0.0368916	-4.6874	0	
1.2947	0.590265	-2.25597	0	
1.2953	-1.54945	-1.02772	0	
1.2960	-2.47174	-2.85756	0	
1.2967	-2.47174	-2.85756	0	
1.2973	-3.062	-0.726923	0	
1.2980	-4.90658	0.501327	0	
1.2987	-5.82887	-0.125332	0	
1.2993	-5.82887	-0.125332	0	
1.3000	-5.53374	2.63196	0	
1.3007	-6.75116	4.7626	0	
1.3013	-7.96858	5.99085	0	
1.3020	-7.63656	7.19404	0	
1.3027	-6.75116	6.89324	0	
1.3033	-6.75116	4.7626	0	
1.3040	-8.26371	4.16101	0	
1.3047	-7.63656	4.7626	0	
1.3053	-3.98429	5.99085	0	
1.3060	-2.1766	6.29165	0	
1.3067	-5.53374	4.46181	0	
1.3073	-8.55885	3.23356	0	
1.3080	-8.89087	6.29165	0	
1.3087	-8.55885	5.99085	0	
1.3093	-8.55885	-0.125332	0	
1.3100	-7.63656	-2.25597	0	
1.3107	-6.124	-1.95517	0	
1.3113	-3.98429	-5.61486	0	
1.3120	0.590265	-8.37215	0	
1.3127	2.39795	-7.4447	0	
1.3133	-0.627157	-7.1439	0	
1.3140	-2.1766	-5.61486	0	
1.3147	0.295133	-3.18342	0	
1.3153	-0.0368916	-3.78502	0	
1.3160	-0.627157	-3.78502	0	
1.3167	1.18053	-1.95517	0	
1.3173	0.295133	-2.85756	0	
1.3180	-1.84458	-3.18342	0	
1.3187	1.51255	-0.125332	0	
1.3193	3.32024	3.23356	0	
1.3200	-0.332024	4.46181	0	
1.3207	-3.062	3.53435	0	
1.3213	-2.1766	2.63196	0	
1.3220	-3.062	3.83515	0	
1.3227	-3.68916	4.7626	0	
1.3233	-1.54945	2.63196	0	
1.3240	-1.84458	1.10292	0	
1.3247	-2.1766	2.93276	0	
1.3253	2.39795	3.23356	0	
1.3260	6.08711	1.10292	0	
1.3267	1.51255	1.10292	0	
1.3273	-3.062	2.63196	0	
1.3280	2.10282	1.40371	0	
1.3287	5.45995	-0.426128	0	
1.3293	3.65227	-1.02772	0	
1.3300	5.16482	-1.65438	0	
1.3307	7.8948	-3.78502	0	
1.3313	5.16482	-6.51724	0	
1.3320	4.24253	-5.61486	0	
1.3327	7.30453	-3.48422	0	
1.3333	7.0094	-3.78502	0	
1.3340	5.16482	-5.91565	0	
1.3347	6.08711	-5.61486	0	
1.3353	6.38224	-5.61486	0	
1.3360	5.45995	-6.51724	0	
1.3367	6.08711	-5.31406	0	
1.3373	6.67738	-3.18342	0	
1.3380	6.08711	-1.65438	0	
1.3387	6.08711	1.70451	0	
1.3393	6.08711	2.33117	0	
1.3400	4.86969	-0.125332	0	
1.3407	5.16482	1.40371	0	
1.3413	7.0094	3.83515	0	
1.3420	8.81709	2.93276	0	
1.3427	7.8948	4.16101	0	
1.3433	7.0094	6.59244	0	
1.3440	8.52195	3.83515	0	
1.3447	8.81709	1.10292	0	
1.3453	7.0094	2.33117	0	
1.3460	4.53766	2.00531	0	
1.3467	-0.332024	1.10292	0	
1.3473	-6.75116	0.802122	0	
1.3480	-7.63656	-0.125332	0	
1.3487	-2.76687	-1.65438	0	
1.3493	0.590265	-3.78502	0	
1.3500	0.590265	-6.51724	0	
1.3507	0.590265	-6.51724	0	
1.3513	1.51255	-5.91565	0	
1.3520	1.51255	-7.4447	0	
1.3527	0.590265	-7.4447	0	
1.3533	-0.922289	-6.21645	0	
1.3540	-1.25431	-5.61486	0	
1.3547	-2.76687	-3.48422	0	
1.3553	-3.68916	-1.02772	0	
1.3560	-1.84458	-1.65438	0	
1.3567	0.295133	-0.125332	0	
1.3573	-0.332024	1.70451	0	
1.3580	-2.47174	-1.32852	0	
1.3587	-3.062	-2.85756	0	
1.3593	-3.062	0.501327	0	
1.3600	-3.39402	2.33117	0	
1.3607	-3.98429	2.63196	0	
1.3613	-3.68916	5.0634	0	
1.3620	-4.90658	5.36419	0	
1.3627	-8.55885	3.23356	0	
1.3633	-8.89087	2.00531	0	
1.3640	-6.124	1.70451	0	
1.3647	-6.124	1.70451	0	
1.3653	-7.04629	2.63196	0	
1.3660	-4.90658	2.63196	0	
1.3667	-1.54945	1.40371	0	
1.3673	2.39795	0.802122	0	
1.3680	4.24253	0.501327	0	
1.3687	3.9474	-1.02772	0	
1.3693	4.24253	-3.48422	0	
1.3700	6.38224	-4.6874	0	
1.3707	5.16482	-5.01327	0	
1.3713	0.885398	-4.6874	0	
1.3720	-0.922289	-4.08581	0	
1.3727	-0.0368916	-4.6874	0	
1.3733	-0.332024	-6.21645	0	
1.3740	-1.84458	-6.51724	0	
1.3747	-2.1766	-3.78502	0	
1.3753	-1.25431	-2.25597	0	
1.3760	-0.627157	-3.78502	0	
1.3767	-2.1766	-5.31406	0	
1.3773	-3.98429	-4.08581	0	
1.3780	-2.76687	-2.85756	0	
1.3787	-0.332024	-1.95517	0	
1.3793	-3.062	-1.02772	0	
1.3800	-7.04629	0.501327	0	
1.3807	-6.75116	1.70451	0	
1.3813	-8.89087	2.63196	0	
1.3820	-12.248	4.16101	0	
1.3827	-9.186	5.0634	0	
1.3833	-7.04629	3.53435	0	
1.3840	-11.3257	0.802122	0	
1.3847	-11.916	-0.125332	0	
1.3853	-8.55885	0.501327	0	
1.3860	-6.124	0.802122	0	
1.3867	-3.98429	1.10292	0	
1.3873	-3.98429	0.175464	0	
1.3880	-7.04629	-2.85756	0	
1.3887	-6.75116	-4.6874	0	
1.3893	-2.47174	-4.6874	0	
1.3900	-0.627157	-4.38661	0	
1.3907	-1.84458	-5.01327	0	
1.3913	-2.1766	-4.6874	0	
1.3920	-0.922289	-3.78502	0	
1.3927	-0.0368916	-5.31406	0	
1.3933	-0.627157	-7.1439	0	
1.3940	-2.1766	-5.61486	0	
1.3947	-4.61145	-3.78502	0	
1.3953	-5.82887	-4.6874	0	
1.3960	-4.61145	-3.18342	0	
1.3967	-3.062	0.175464	0	
1.3973	-3.98429	1.10292	0	
1.3980	-5.82887	1.70451	0	
1.3987	-5.82887	3.53435	0	
1.3993	-5.82887	3.53435	0	
1.4000	-6.75116	3.53435	0	
1.4007	-7.04629	4.7626	0	
1.4013	-6.124	5.0634	0	
1.4020	-4.61145	5.36419	0	
1.4027	-4.61145	6.29165	0	
1.4033	-7.04629	5.69006	0	
1.4040	-10.1083	4.7626	0	
1.4047	-12.248	4.7626	0	
1.4053	-10.6986	3.83515	0	
1.4060	-7.63656	3.23356	0	
1.4067	-7.63656	2.93276	0	
1.4073	-5.82887	0.175464	0	
1.4080	-0.332024	-2.85756	0	
1.4087	2.39795	-1.95517	0	
1.4093	2.39795	-2.25597	0	
1.4100	2.39795	-4.6874	0	
1.4107	1.80769	-4.38661	0	
1.4113	2.39795	-4.6874	0	
1.4120	5.75509	-8.04629	0	
1.4127	5.16482	-9.27454	0	
1.4133	3.32024	-8.37215	0	
1.4140	4.86969	-8.37215	0	
1.4147	5.16482	-7.74549	0	
1.4153	1.51255	-5.61486	0	
1.4160	1.80769	-4.6874	0	
1.4167	3.65227	-3.78502	0	
1.4173	0.590265	-3.48422	0	
1.4180	-3.062	-3.48422	0	
1.4187	-1.54945	-0.726923	0	
1.4193	-0.0368916	3.53435	0	
1.4200	-1.25431	3.53435	0	
1.4207	-2.1766	2.00531	0	
1.4213	-2.47174	4.46181	0	
1.4220	-2.47174	5.69006	0	
1.4227	-1.25431	3.23356	0	
1.4233	-0.332024	2.63196	0	
1.4240	-0.627157	5.99085	0	
1.4247	-0.627157	7.19404	0	
1.4253	0.590265	4.16101	0	
1.4260	1.18053	1.10292	0	
1.4267	0.885398	2.33117	0	
1.4273	0.590265	2.63196	0	
1.4280	2.39795	-0.426128	0	
1.4287	7.0094	-0.726923	0	
1.4293	8.22682	0.802122	0	
1.4300	6.08711	-2.55677	0	
1.4307	7.0094	-6.21645	0	
1.4313	10.3665	-4.6874	0	
1.4320	8.22682	-2.85756	0	
1.4327	4.24253	-4.08581	0	
1.4333	5.45995	-6.21645	0	
1.4340	7.0094	-6.51724	0	
1.4347	4.53766	-5.01327	0	
1.4353	4.24253	-2.85756	0	
1.4360	4.86969	-2.25597	0	
1.4367	2.10282	-3.78502	0	
1.4373	-1.54945	-2.55677	0	
1.4380	-1.84458	0.802122	0	
1.4387	-0.922289	2.33117	0	
1.4393	-1.25431	1.70451	0	
1.4400	-2.1766	2.00531	0	
1.4407	-1.84458	3.23356	0	
1.4413	0.590265	3.53435	0	
1.4420	0.590265	3.23356	0	
1.4427	-1.54945	5.36419	0	
1.4433	-2.47174	7.82069	0	
1.4440	-1.25431	5.0634	0	
1.4447	-0.0368916	1.40371	0	
1.4453	0.295133	2.63196	0	
1.4460	1.18053	3.83515	0	
1.4467	1.51255	-0.125332	0	
1.4473	-0.332024	-2.85756	0	
1.4480	0.590265	-0.726923	0	
1.4487	5.75509	0.802122	0	
1.4493	8.81709	-2.55677	0	
1.4500	8.81709	-5.61486	0	
1.4507	10.9568	-6.21645	0	
1.4513	10.0345	-5.61486	0	
1.4520	5.16482	-5.31406	0	
1.4527	3.9474	-3.78502	0	
1.4533	5.16482	-3.78502	0	
1.4540	5.16482	-5.61486	0	
1.4547	5.75509	-6.51724	0	
1.4553	5.45995	-4.6874	0	
1.4560	4.24253	-3.18342	0	
1.4567	6.38224	-2.55677	0	
1.4573	6.67738	-2.25597	0	
1.4580	3.02511	-1.02772	0	
1.4587	2.39795	1.40371	0	
1.4593	3.32024	3.23356	0	
1.4600	-0.332024	5.36419	0	
1.4607	-3.39402	6.89324	0	
1.4613	-3.68916	4.7626	0	
1.4620	-6.41913	2.33117	0	
1.4627	-7.96858	4.46181	0	
1.4633	-4.90658	5.99085	0	
1.4640	-2.1766	3.53435	0	
1.4647	-1.84458	1.70451	0	
1.4653	0.590265	2.63196	0	
1.4660	1.80769	1.10292	0	
1.4667	-0.627157	-1.32852	0	
1.4673	-1.25431	-0.125332	0	
1.4680	0.885398	2.63196	0	
1.4687	-1.25431	1.10292	0	
1.4693	-3.062	-1.65438	0	
1.4700	0.295133	-2.55677	0	
1.4707	2.39795	-1.95517	0	
1.4713	1.51255	-2.55677	0	
1.4720	2.39795	-3.78502	0	
1.4727	1.80769	-4.08581	0	
1.4733	-2.1766	-2.55677	0	
1.4740	-2.1766	-1.95517	0	
1.4747	-0.332024	-2.55677	0	
1.4753	-2.47174	-1.95517	0	
1.4760	-3.98429	-1.65438	0	
1.4767	-3.062	-1.65438	0	
1.4773	-3.98429	0.802122	0	
1.4780	-6.124	1.70451	0	
1.4787	-6.124	0.802122	0	
1.4793	-7.63656	2.93276	0	
1.4800	-10.4034	5.69006	0	
1.4807	-11.6208	3.53435	0	
1.4813	-10.1083	2.63196	0	
1.4820	-8.26371	4.46181	0	
1.4827	-6.75116	2.93276	0	
1.4833	-5.82887	1.70451	0	
1.4840	-6.75116	3.53435	0	
1.4847	-7.96858	5.0634	0	
1.4853	-6.75116	3.53435	0	
1.4860	-4.61145	1.40371	0	
1.4867	-3.062	0.802122	0	
1.4873	-2.1766	2.63196	0	
1.4880	-1.84458	3.53435	0	
1.4887	-3.062	2.00531	0	
1.4893	-4.27942	0.501327	0	
1.4900	-4.27942	-1.02772	0	
1.4907	-3.062	-2.55677	0	
1.4913	-0.0368916	-2.85756	0	
1.4920	1.80769	-3.48422	0	
1.4927	2.39795	-4.38661	0	
1.4933	2.72998	-3.78502	0	
1.4940	2.72998	-1.02772	0	
1.4947	2.10282	-0.426128	0	
1.4953	1.51255	-1.95517	0	
1.4960	2.39795	-1.95517	0	
1.4967	3.32024	0.175464	0	
1.4973	3.32024	0.802122	0	
1.4980	1.18053	-2.55677	0	
1.4987	-4.27942	-2.85756	0	
1.4993	-8.55885	2.63196	0	
1.5000	-7.34142	4.16101	0	
1.5007	-4.27942	1.10292	0	
1.5013	-4.61145	2.00531	0	
1.5020	-3.98429	4.16101	0	
1.5027	-2.1766	2.33117	0	
1.5033	-2.1766	0.501327	0	
1.5040	-1.54945	1.70451	0	
1.5047	0.295133	4.46181	0	
1.5053	-2.1766	5.69006	0	
1.5060	-4.27942	3.83515	0	
1.5067	-1.25431	1.40371	0	
1.5073	2.10282	1.10292	0	
1.5080	0.590265	0.175464	0	
1.5087	-0.0368916	-1.95517	0	
1.5093	1.80769	-0.726923	0	
1.5100	2.39795	0.175464	0	
1.5107	3.9474	-3.18342	0	
1.5113	7.8948	-5.61486	0	
1.5120	8.52195	-3.78502	0	
1.5127	5.16482	-2.85756	0	
1.5133	4.24253	-3.78502	0	
1.5140	5.45995	-3.18342	0	
1.5147	4.24253	-0.726923	0	
1.5153	4.24253	0.175464	0	
1.5160	3.9474	-1.02772	0	
1.5167	0.590265	-1.02772	0	
1.5173	1.18053	-1.02772	0	
1.5180	4.86969	-2.25597	0	
1.5187	0.885398	-1.95517	0	
1.5193	-4.27942	0.802122	0	
1.5200	-1.54945	2.63196	0	
1.5207	1.18053	2.63196	0	
1.5213	-0.332024	3.83515	0	
1.5220	-1.25431	5.99085	0	
1.5227	-0.332024	6.29165	0	
1.5233	0.590265	2.63196	0	
1.5240	1.51255	-0.125332	0	
1.5247	1.51255	1.70451	0	
1.5253	3.02511	3.83515	0	
1.5260	4.53766	2.63196	0	
1.5267	2.39795	-0.426128	0	
1.5273	1.18053	-3.18342	0	
1.5280	4.24253	-3.78502	0	
1.5287	6.38224	-3.48422	0	
1.5293	4.86969	-3.78502	0	
1.5300	4.24253	-3.78502	0	
1.5307	5.16482	-3.78502	0	
1.5313	3.9474	-4.08581	0	
1.5320	1.51255	-3.78502	0	
1.5327	0.590265	-1.95517	0	
1.5333	1.80769	-2.85756	0	
1.5340	3.32024	-5.61486	0	
1.5347	3.02511	-2.85756	0	
1.5353	0.885398	-0.125332	0	
1.5360	-1.54945	-1.95517	0	
1.5367	-2.1766	-1.65438	0	
1.5373	-1.84458	1.40371	0	
1.5380	-2.1766	0.802122	0	
1.5387	-1.25431	-0.426128	0	
1.5393	-0.0368916	1.70451	0	
1.5400	-2.47174	4.16101	0	
1.5407	-4.61145	6.29165	0	
1.5413	-3.062	7.19404	0	
1.5420	-2.1766	4.7626	0	
1.5427	-3.062	3.53435	0	
1.5433	-0.0368916	5.36419	0	
1.5440	2.39795	6.59244	0	
1.5447	1.51255	5.0634	0	
1.5453	3.02511	3.53435	0	
1.5460	8.22682	3.23356	0	
1.5467	7.8948	1.70451	0	
1.5473	4.86969	1.10292	0	
1.5480	5.45995	3.23356	0	
1.5487	5.45995	3.23356	0	
1.5493	3.32024	-0.426128	0	
1.5500	2.72998	-2.85756	0	
1.5507	1.51255	-3.48422	0	
1.5513	-0.627157	-4.6874	0	
1.5520	-0.627157	-4.6874	0	
1.5527	-1.25431	-2.25597	0	
1.5533	-3.68916	-3.18342	0	
1.5540	-4.90658	-4.38661	0	
1.5547	-6.124	-4.6874	0	
1.5553	-6.41913	-5.91565	0	
1.5560	-3.062	-2.25597	0	
1.5567	-1.54945	2.93276	0	
1.5573	-5.20171	-0.125332	0	
1.5580	-7.34142	-4.38661	0	
1.5587	-5.53374	-1.32852	0	
1.5593	-4.90658	2.63196	0	
1.5600	-3.98429	2.93276	0	
1.5607	-0.922289	3.83515	0	
1.5613	0.885398	4.46181	0	
1.5620	-0.922289	4.46181	0	
1.5627	-2.1766	4.7626	0	
1.5633	-1.54945	4.16101	0	
1.5640	-3.062	3.53435	0	
1.5647	-5.82887	3.53435	0	
1.5653	-5.20171	1.70451	0	
1.5660	-1.25431	0.501327	0	
1.5667	-0.0368916	1.70451	0	
1.5673	-2.1766	1.10292	0	
1.5680	-2.1766	-1.02772	0	
1.5687	1.80769	-1.02772	0	
1.5693	2.72998	-1.02772	0	
1.5700	1.51255	-3.78502	0	
1.5707	0.295133	-4.6874	0	
1.5713	-0.332024	-3.18342	0	
1.5720	0.590265	-2.85756	0	
1.5727	3.65227	-1.95517	0	
1.5733	4.24253	-1.65438	0	
1.5740	-0.332024	-2.85756	0	
1.5747	-4.27942	-3.78502	0	
1.5753	-3.68916	-3.48422	0	
1.5760	-1.54945	-2.85756	0	
1.5767	-2.76687	-1.65438	0	
1.5773	-6.75116	0.501327	0	
1.5780	-6.75116	1.70451	0	
1.5787	-3.062	2.33117	0	
1.5793	-2.76687	2.63196	0	
1.5800	-5.20171	4.16101	0	
1.5807	-5.53374	4.46181	0	
1.5813	-5.82887	3.23356	0	
1.5820	-7.04629	3.23356	0	
1.5827	-5.53374	5.0634	0	
1.5833	-3.98429	4.46181	0	
1.5840	-5.82887	3.23356	0	
1.5847	-6.75116	2.33117	0	
1.5853	-5.53374	-0.726923	0	
1.5860	-1.25431	-1.95517	0	
1.5867	6.08711	-0.726923	0	
1.5873	10.9568	-1.02772	0	
1.5880	8.22682	-0.426128	0	
1.5887	4.24253	-0.125332	0	
1.5893	4.24253	-2.85756	0	
1.5900	5.16482	-3.78502	0	
1.5907	4.86969	-0.726923	0	
1.5913	3.02511	-1.32852	0	
1.5920	4.24253	-4.08581	0	
1.5927	7.0094	-4.08581	0	
1.5933	6.67738	-4.08581	0	
1.5940	3.02511	-4.38661	0	
1.5947	2.10282	-3.78502	0	
1.5953	2.39795	-3.78502	0	
1.5960	0.590265	-3.78502	0	
1.5967	-5.20171	-0.726923	0	
1.5973	-12.8383	-0.125332	0	
1.5980	-14.0557	-1.95517	0	
1.5987	-9.186	-1.95517	0	
1.5993	-7.96858	-0.125332	0	
1.6000	-10.4034	2.63196	0	
1.6007	-10.1083	5.0634	0	
1.6013	-8.55885	4.7626	0	
1.6020	-6.75116	3.83515	0	
1.6027	-4.27942	5.0634	0	
1.6033	-3.39402	5.0634	0	
1.6040	-4.90658	1.70451	0	
1.6047	-6.124	0.175464	0	
1.6053	-7.04629	-0.125332	0	
1.6060	-4.61145	-0.726923	0	
1.6067	-0.922289	-1.02772	0	
1.6073	-1.84458	-0.426128	0	
1.6080	-3.062	-0.125332	0	
1.6087	0.590265	-1.32852	0	
1.6093	3.32024	-3.78502	0	
1.6100	3.02511	-6.51724	0	
1.6107	5.16482	-6.51724	0	
1.6113	9.44424	-3.78502	0	
1.6120	10.3665	-3.78502	0	
1.6127	7.59966	-6.51724	0	
1.6133	4.24253	-6.51724	0	
1.6140	1.18053	-4.38661	0	
1.6147	-2.76687	-4.6874	0	
1.6153	-4.61145	-6.51724	0	
1.6160	-3.98429	-4.6874	0	
1.6167	-3.98429	-1.95517	0	
1.6173	-3.68916	0.175464	0	
1.6180	-3.68916	1.40371	0	
1.6187	-5.53374	2.63196	0	
1.6193	-7.34142	4.46181	0	
1.6200	-7.04629	6.59244	0	
1.6207	-8.26371	5.99085	0	
1.6213	-9.77627	3.53435	0	
1.6220	-8.55885	2.63196	0	
1.6227	-6.124	2.63196	0	
1.6233	-4.90658	2.63196	0	
1.6240	-3.062	2.93276	0	
1.6247	1.18053	1.70451	0	
1.6253	3.02511	1.10292	0	
1.6260	2.39795	2.00531	0	
1.6267	3.32024	0.802122	0	
1.6273	5.16482	-0.726923	0	
1.6280	1.51255	1.40371	0	
1.6287	-2.1766	2.00531	0	
1.6293	-0.627157	-0.726923	0	
1.6300	0.295133	-1.95517	0	
1.6307	-0.0368916	-2.85756	0	
1.6313	1.18053	-4.6874	0	
1.6320	0.590265	-5.61486	0	
1.6327	-0.332024	-4.6874	0	
1.6333	0.885398	-4.08581	0	
1.6340	1.18053	-3.78502	0	
1.6347	-0.0368916	-3.18342	0	
1.6353	1.51255	-2.85756	0	
1.6360	2.72998	-1.95517	0	
1.6367	0.885398	-1.32852	0	
1.6373	-0.627157	-1.02772	0	
1.6380	-0.332024	1.70451	0	
1.6387	-1.25431	4.46181	0	
1.6393	-1.25431	3.83515	0	
1.6400	-0.332024	3.53435	0	
1.6407	-3.062	5.36419	0	
1.6413	-6.41913	3.53435	0	
1.6420	-3.98429	-1.02772	0	
1.6427	-0.627157	1.10292	0	
1.6433	-1.25431	5.36419	0	
1.6440	-1.25431	2.63196	0	
1.6447	2.39795	-0.426128	0	
1.6453	3.9474	0.802122	0	
1.6460	2.39795	-1.02772	0	
1.6467	1.51255	-2.85756	0	
1.6473	2.10282	0.501327	0	
1.6480	2.72998	-0.125332	0	
1.6487	3.32024	-5.01327	0	
1.6493	2.72998	-5.01327	0	
1.6500	3.32024	-2.55677	0	
1.6507	5.16482	-4.6874	0	
1.6513	6.08711	-8.37215	0	
1.6520	6.38224	-7.4447	0	
1.6527	7.0094	-5.31406	0	
1.6533	4.86969	-5.01327	0	
1.6540	2.39795	-3.78502	0	
1.6547	2.72998	-1.32852	0	
1.6553	2.39795	-0.125332	0	
1.6560	-1.25431	-0.125332	0	
1.6567	-1.25431	0.802122	0	
1.6573	2.10282	0.802122	0	
1.6580	1.80769	-1.02772	0	
1.6587	-1.84458	0.501327	0	
1.6593	-6.41913	4.46181	0	
1.6600	-8.89087	5.69006	0	
1.6607	-8.26371	4.16101	0	
1.6613	-8.26371	3.53435	0	
1.6620	-10.1083	3.83515	0	
1.6627	-7.63656	4.16101	0	
1.6633	-2.1766	5.36419	0	
1.6640	0.590265	5.69006	0	
1.6647	3.02511	2.00531	0	
1.6653	5.16482	-2.55677	0	
1.6660	3.32024	-3.78502	0	
1.6667	2.10282	-2.85756	0	
1.6673	4.24253	-3.78502	0	
1.6680	6.08711	-5.91565	0	
1.6687	8.22682	-5.31406	0	
1.6693	10.6617	-4.6874	0	
1.6700	10.3665	-7.1439	0	
1.6707	9.44424	-8.04629	0	
1.6713	9.73938	-6.21645	0	
1.6720	8.52195	-5.31406	0	
1.6727	6.38224	-6.51724	0	
1.6733	6.38224	-7.74549	0	
1.6740	7.8948	-7.74549	0	
1.6747	7.8948	-6.21645	0	
1.6753	6.08711	-3.78502	0	
1.6760	3.9474	-3.48422	0	
1.6767	4.24253	-4.38661	0	
1.6773	5.45995	-5.31406	0	
1.6780	4.53766	-4.08581	0	
1.6787	3.32024	-0.726923	0	
1.6793	1.18053	1.70451	0	
1.6800	-1.25431	1.70451	0	
1.6807	-2.1766	2.33117	0	
1.6813	-3.98429	4.16101	0	
1.6820	-5.53374	4.46181	0	
1.6827	-4.27942	3.53435	0	
1.6833	-1.25431	5.36419	0	
1.6840	2.39795	6.89324	0	
1.6847	6.08711	4.46181	0	
1.6853	5.16482	2.33117	0	
1.6860	1.51255	2.63196	0	
1.6867	-3.062	2.93276	0	
1.6873	-7.34142	2.00531	0	
1.6880	-6.124	0.501327	0	
1.6887	-0.332024	-1.65438	0	
1.6893	3.32024	-3.18342	0	
1.6900	6.08711	-5.61486	0	
1.6907	9.73938	-7.1439	0	
1.6913	10.0345	-5.91565	0	
1.6920	9.44424	-4.6874	0	
1.6927	9.73938	-5.31406	0	
1.6933	7.59966	-5.91565	0	
1.6940	4.24253	-5.31406	0	
1.6947	2.39795	-3.18342	0	
1.6953	0.590265	-1.65438	0	
1.6960	0.885398	-2.25597	0	
1.6967	4.24253	-2.85756	0	
1.6973	4.24253	-1.02772	0	
1.6980	0.885398	-0.726923	0	
1.6987	-1.84458	-1.95517	0	
1.6993	-3.68916	-1.95517	0	
1.7000	-3.98429	-1.65438	0	
1.7007	-3.98429	-1.02772	0	
1.7013	-5.82887	3.83515	0	
1.7020	-7.34142	8.72308	0	
1.7027	-6.124	7.19404	0	
1.7033	-5.53374	2.93276	0	
1.7040	-6.75116	0.802122	0	
1.7047	-6.124	1.70451	0	
1.7053	-2.47174	4.46181	0	
1.7060	-0.332024	5.0634	0	
1.7067	-2.76687	0.802122	0	
1.7073	-3.68916	-1.95517	0	
1.7080	-0.0368916	0.501327	0	
1.7087	2.10282	0.501327	0	
1.7093	1.80769	-4.38661	0	
1.7100	1.51255	-6.51724	0	
1.7107	1.18053	-3.48422	0	
1.7113	2.39795	-2.85756	0	
1.7120	4.86969	-5.91565	0	
1.7127	2.72998	-5.01327	0	
1.7133	1.18053	-1.02772	0	
1.7140	3.65227	0.501327	0	
1.7147	4.86969	-0.426128	0	
1.7153	0.885398	-1.95517	0	
1.7160	-3.062	-3.48422	0	
1.7167	-3.98429	-1.65438	0	
1.7173	-3.68916	1.70451	0	
1.7180	-5.53374	1.10292	0	
1.7187	-5.20171	0.802122	0	
1.7193	-0.332024	3.53435	0	
1.7200	-0.0368916	5.36419	0	
1.7207	-6.124	4.7626	0	
1.7213	-6.41913	4.16101	0	
1.7220	-0.332024	3.83515	0	
1.7227	0.885398	4.46181	0	
1.7233	-0.332024	4.46181	0	
1.7240	0.590265	2.63196	0	
1.7247	-1.54945	3.23356	0	
1.7253	-6.124	4.16101	0	
1.7260	-6.41913	4.16101	0	
1.7267	-3.68916	6.29165	0	
1.7273	-3.98429	7.82069	0	
1.7280	-3.98429	5.0634	0	
1.7287	-1.84458	2.93276	0	
1.7293	-1.84458	1.70451	0	
1.7300	-2.76687	-0.125332	0	
1.7307	0.295133	0.175464	0	
1.7313	0.590265	1.40371	0	
1.7320	-3.98429	-0.726923	0	
1.7327	-3.39402	-2.85756	0	
1.7333	-1.25431	-2.25597	0	
1.7340	-4.27942	-1.32852	0	
1.7347	-4.61145	-0.125332	0	
1.7353	-1.25431	-0.125332	0	
1.7360	-2.76687	-0.726923	0	
1.7367	-4.90658	-0.125332	0	
1.7373	-3.39402	1.70451	0	
1.7380	-1.54945	1.10292	0	
1.7387	-0.0368916	1.70451	0	
1.7393	-1.25431	4.46181	0	
1.7400	-7.04629	6.29165	0	
1.7407	-7.63656	5.69006	0	
1.7413	-4.61145	5.36419	0	
1.7420	-8.26371	5.99085	0	
1.7427	-11.6208	6.29165	0	
1.7433	-7.04629	5.69006	0	
1.7440	-4.27942	5.0634	0	
1.7447	-4.90658	3.83515	0	
1.7453	-2.76687	2.33117	0	
1.7460	-0.627157	1.70451	0	
1.7467	-2.1766	2.33117	0	
1.7473	-1.84458	0.802122	0	
1.7480	0.885398	-1.65438	0	
1.7487	4.24253	-1.95517	0	
1.7493	10.3665	-1.95517	0	
1.7500	13.3916	-2.55677	0	
1.7507	8.81709	-3.78502	0	
1.7513	3.32024	-4.08581	0	
1.7520	1.51255	-2.85756	0	
1.7527	1.51255	-1.95517	0	
1.7533	2.72998	-2.85756	0	
1.7540	4.24253	-2.85756	0	
1.7547	1.80769	-1.95517	0	
1.7553	-0.332024	-3.48422	0	
1.7560	1.80769	-3.78502	0	
1.7567	0.590265	-0.125332	0	
1.7573	-4.27942	2.93276	0	
1.7580	-3.062	0.802122	0	
1.7587	1.51255	-1.32852	0	
1.7593	-0.0368916	-0.125332	0	
1.7600	-3.062	2.63196	0	
1.7607	-3.98429	2.33117	0	
1.7613	-5.82887	1.40371	0	
1.7620	-6.75116	3.53435	0	
1.7627	-5.82887	5.0634	0	
1.7633	-8.26371	3.53435	0	
1.7640	-11.3257	2.63196	0	
1.7647	-11.3257	5.69006	0	
1.7653	-9.48114	6.89324	0	
1.7660	-7.04629	3.53435	0	
1.7667	-3.68916	0.501327	0	
1.7673	-2.1766	-0.125332	0	
1.7680	-1.54945	-0.726923	0	
1.7687	-0.0368916	-1.65438	0	
1.7693	1.51255	-1.65438	0	
1.7700	1.18053	-2.55677	0	
1.7707	1.80769	-5.01327	0	
1.7713	4.24253	-5.61486	0	
1.7720	6.38224	-4.08581	0	
1.7727	5.16482	-4.38661	0	
1.7733	2.39795	-5.31406	0	
1.7740	1.51255	-4.6874	0	
1.7747	1.51255	-4.08581	0	
1.7753	2.10282	-3.78502	0	
1.7760	4.86969	-3.48422	0	
1.7767	7.0094	-3.78502	0	
1.7773	5.16482	-3.78502	0	
1.7780	3.9474	-1.02772	0	
1.7787	4.53766	1.70451	0	
1.7793	3.65227	1.40371	0	
1.7800	2.39795	0.175464	0	
1.7807	0.590265	2.33117	0	
1.7813	-1.84458	5.36419	0	
1.7820	-4.27942	5.0634	0	
1.7827	-5.82887	3.83515	0	
1.7833	-3.98429	3.83515	0	
1.7840	3.02511	2.63196	0	
1.7847	9.11222	1.10292	0	
1.7853	9.44424	0.175464	0	
1.7860	9.73938	-0.726923	0	
1.7867	11.2519	-1.65438	0	
1.7873	9.44424	-1.95517	0	
1.7880	8.81709	-2.55677	0	
1.7887	11.8791	-4.08581	0	
1.7893	12.4694	-3.78502	0	
1.7900	10.6617	-1.95517	0	
1.7907	9.73938	-3.18342	0	
1.7913	7.8948	-4.6874	0	
1.7920	4.86969	-4.6874	0	
1.7927	2.39795	-3.78502	0	
1.7933	1.51255	-3.18342	0	
1.7940	0.590265	-2.85756	0	
1.7947	-2.76687	-3.78502	0	
1.7953	-4.27942	-4.6874	0	
1.7960	-1.54945	-3.78502	0	
1.7967	-0.922289	-1.95517	0	
1.7973	-4.27942	-0.426128	0	
1.7980	-4.90658	-1.02772	0	
1.7987	-3.062	-0.726923	0	
1.7993	-3.39402	1.70451	0	
1.8000	-3.98429	1.40371	0	
1.8007	-1.84458	-0.125332	0	
1.8013	0.590265	2.63196	0	
1.8020	1.80769	3.53435	0	
1.8027	1.51255	-0.125332	0	
1.8033	1.51255	-0.125332	0	
1.8040	4.86969	2.63196	0	
1.8047	6.38224	1.10292	0	
1.8053	3.65227	0.175464	0	
1.8060	3.02511	1.70451	0	
1.8067	5.75509	1.40371	0	
1.8073	4.53766	1.40371	0	
1.8080	2.72998	4.16101	0	
1.8087	5.16482	4.46181	0	
1.8093	7.0094	2.63196	0	
1.8100	5.45995	-1.32852	0	
1.8107	4.24253	-6.21645	0	
1.8113	2.39795	-9.27454	0	
1.8120	0.590265	-9.27454	0	
1.8127	1.51255	-10.5028	0	
1.8133	2.39795	-9.57534	0	
1.8140	-0.0368916	-5.61486	0	
1.8147	-3.98429	-5.01327	0	
1.8153	-6.75116	-6.84311	0	
1.8160	-7.04629	-4.6874	0	
1.8167	-4.27942	-2.25597	0	
1.8173	-3.98429	-3.48422	0	
1.8180	-6.75116	-2.85756	0	
1.8187	-7.34142	0.175464	0	
1.8193	-4.90658	-0.125332	0	
1.8200	-4.61145	-0.125332	0	
1.8207	-4.90658	2.63196	0	
1.8213	-3.062	1.70451	0	
1.8220	-2.47174	-1.02772	0	
1.8227	-2.1766	1.70451	0	
1.8233	-0.922289	3.83515	0	
1.8240	-0.332024	2.33117	0	
1.8247	-3.062	3.23356	0	
1.8253	-4.90658	4.16101	0	
1.8260	-3.98429	2.00531	0	
1.8267	-1.25431	2.63196	0	
1.8273	-0.627157	4.16101	0	
1.8280	-0.332024	0.802122	0	
1.8287	0.590265	-1.02772	0	
1.8293	0.885398	0.501327	0	
1.8300	1.18053	-0.426128	0	
1.8307	1.80769	-2.55677	0	
1.8313	1.80769	-0.726923	0	
1.8320	2.10282	-0.426128	0	
1.8327	3.9474	-4.6874	0	
1.8333	4.24253	-6.21645	0	
1.8340	2.39795	-1.32852	0	
1.8347	0.885398	2.63196	0	
1.8353	0.295133	2.63196	0	
1.8360	-1.25431	0.802122	0	
1.8367	-1.84458	-1.95517	0	
1.8373	-0.922289	-1.95517	0	
1.8380	-0.627157	0.501327	0	
1.8387	-2.1766	0.802122	0	
1.8393	-2.1766	0.802122	0	
1.8400	-1.25431	3.53435	0	
1.8407	-3.062	5.0634	0	
1.8413	-4.90658	2.93276	0	
1.8420	-4.61145	1.40371	0	
1.8427	-5.20171	3.23356	0	
1.8433	-5.53374	5.69006	0	
1.8440	-2.76687	4.46181	0	
1.8447	-1.25431	1.10292	0	
1.8453	-2.47174	0.802122	0	
1.8460	-0.627157	1.70451	0	
1.8467	1.80769	0.802122	0	
1.8473	-0.0368916	0.501327	0	
1.8480	-1.54945	-0.125332	0	
1.8487	-1.25431	-1.02772	0	
1.8493	-1.25431	-1.95517	0	
1.8500	-0.332024	-3.48422	0	
1.8507	1.80769	-3.78502	0	
1.8513	1.80769	-3.18342	0	
1.8520	0.885398	-4.6874	0	
1.8527	1.18053	-5.61486	0	
1.8533	0.885398	-3.78502	0	
1.8540	1.51255	-3.78502	0	
1.8547	1.51255	-4.6874	0	
1.8553	-1.25431	-3.78502	0	
1.8560	-3.062	-1.95517	0	
1.8567	-2.1766	-2.55677	0	
1.8573	-1.25431	-1.95517	0	
1.8580	-1.84458	-0.125332	0	
1.8587	-2.47174	1.70451	0	
1.8593	-4.27942	4.16101	0	
1.8600	-4.90658	5.36419	0	
1.8607	-2.76687	4.16101	0	
1.8613	-0.922289	2.93276	0	
1.8620	-0.922289	4.16101	0	
1.8627	-0.0368916	4.46181	0	
1.8633	2.10282	1.40371	0	
1.8640	2.39795	-0.125332	0	
1.8647	3.32024	2.33117	0	
1.8653	3.9474	2.93276	0	
1.8660	3.65227	-0.125332	0	
1.8667	3.32024	-0.426128	0	
1.8673	5.16482	1.40371	0	
1.8680	6.08711	-0.125332	0	
1.8687	5.16482	-3.78502	0	
1.8693	6.67738	-5.01327	0	
1.8700	7.8948	-4.6874	0	
1.8707	4.86969	-4.08581	0	
1.8713	4.24253	-2.55677	0	
1.8720	8.81709	-1.65438	0	
1.8727	8.81709	-2.85756	0	
1.8733	5.16482	-4.08581	0	
1.8740	5.45995	-3.78502	0	
1.8747	6.08711	-2.55677	0	
1.8753	3.32024	-2.55677	0	
1.8760	2.39795	-1.95517	0	
1.8767	3.32024	0.175464	0	
1.8773	2.39795	-0.125332	0	
1.8780	-0.627157	-1.95517	0	
1.8787	-4.90658	0.175464	0	
1.8793	-5.82887	5.0634	0	
1.8800	-4.61145	6.29165	0	
1.8807	-5.82887	5.36419	0	
1.8813	-6.75116	5.99085	0	
1.8820	-4.61145	5.69006	0	
1.8827	-4.61145	4.46181	0	
1.8833	-6.41913	5.36419	0	
1.8840	-4.27942	5.36419	0	
1.8847	-2.76687	2.63196	0	
1.8853	-4.27942	1.70451	0	
1.8860	-4.90658	2.93276	0	
1.8867	-5.53374	2.63196	0	
1.8873	-6.75116	1.70451	0	
1.8880	-5.20171	2.33117	0	
1.8887	-2.1766	3.53435	0	
1.8893	-0.627157	1.70451	0	
1.8900	0.590265	-1.65438	0	
1.8907	-0.0368916	-3.18342	0	
1.8913	-0.332024	-2.85756	0	
1.8920	0.590265	-2.85756	0	
1.8927	-0.627157	-2.25597	0	
1.8933	-4.61145	-1.95517	0	
1.8940	-3.98429	-1.95517	0	
1.8947	-2.47174	-1.95517	0	
1.8953	-4.61145	-2.55677	0	
1.8960	-5.53374	-1.32852	0	
1.8967	-3.39402	0.802122	0	
1.8973	-2.76687	0.175464	0	
1.8980	-3.39402	-1.02772	0	
1.8987	-3.98429	1.70451	0	
1.8993	-4.90658	5.0634	0	
1.9000	-5.53374	5.99085	0	
1.9007	-5.82887	5.99085	0	
1.9013	-5.53374	4.16101	0	
1.9020	-3.98429	2.63196	0	
1.9027	-3.39402	4.7626	0	
1.9033	-4.90658	5.36419	0	
1.9040	-6.124	2.93276	0	
1.9047	-4.27942	3.53435	0	
1.9053	-1.25431	3.23356	0	
1.9060	0.885398	0.802122	0	
1.9067	0.590265	2.33117	0	
1.9073	-1.25431	3.83515	0	
1.9080	-1.84458	1.70451	0	
1.9087	-0.0368916	1.10292	0	
1.9093	0.590265	1.70451	0	
1.9100	-0.0368916	-1.32852	0	
1.9107	2.10282	-2.55677	0	
1.9113	4.86969	-1.02772	0	
1.9120	3.65227	-1.95517	0	
1.9127	2.10282	-2.85756	0	
1.9133	3.32024	-1.65438	0	
1.9140	5.16482	-2.85756	0	
1.9147	3.9474	-4.08581	0	
1.9153	2.39795	-2.85756	0	
1.9160	2.39795	-1.95517	0	
1.9167	1.51255	-1.95517	0	
1.9173	0.590265	0.175464	0	
1.9180	0.590265	0.802122	0	
1.9187	2.39795	-0.125332	0	
1.9193	2.39795	2.63196	0	
1.9200	-1.25431	5.69006	0	
1.9207	-2.1766	4.46181	0	
1.9213	-0.627157	4.16101	0	
1.9220	-1.84458	6.59244	0	
1.9227	-3.062	6.59244	0	
1.9233	-0.627157	5.36419	0	
1.9240	2.10282	3.53435	0	
1.9247	2.39795	1.10292	0	
1.9253	2.39795	1.10292	0	
1.9260	2.72998	2.93276	0	
1.9267	4.24253	0.175464	0	
1.9273	6.38224	-1.65438	0	
1.9280	8.81709	2.33117	0	
1.9287	10.9568	2.33117	0	
1.9293	10.6617	-2.85756	0	
1.9300	7.8948	-4.08581	0	
1.9307	4.24253	-5.61486	0	
1.9313	0.885398	-8.97374	0	
1.9320	-2.1766	-6.51724	0	
1.9327	-3.062	-3.18342	0	
1.9333	-2.1766	-5.01327	0	
1.9340	-0.332024	-4.6874	0	
1.9347	-0.0368916	-1.32852	0	
1.9353	-0.332024	-2.55677	0	
1.9360	0.590265	-4.08581	0	
1.9367	1.51255	-2.25597	0	
1.9373	3.02511	-1.02772	0	
1.9380	5.45995	-1.32852	0	
1.9387	4.86969	-0.125332	0	
1.9393	1.18053	1.10292	0	
1.9400	-1.25431	1.10292	0	
1.9407	-3.062	2.33117	0	
1.9413	-5.82887	2.93276	0	
1.9420	-5.82887	2.63196	0	
1.9427	-3.062	2.63196	0	
1.9433	-1.54945	1.70451	0	
1.9440	-1.54945	-1.02772	0	
1.9447	-0.922289	-2.55677	0	
1.9453	2.39795	-2.25597	0	
1.9460	5.16482	-2.85756	0	
1.9467	4.24253	-3.78502	0	
1.9473	3.65227	-4.6874	0	
1.9480	6.08711	-4.08581	0	
1.9487	7.59966	-4.6874	0	
1.9493	7.0094	-7.1439	0	
1.9500	8.22682	-8.04629	0	
1.9507	10.6617	-6.51724	0	
1.9513	11.584	-8.04629	0	
1.9520	11.584	-8.97374	0	
1.9527	11.2519	-5.61486	0	
1.9533	10.3665	-4.6874	0	
1.9540	8.81709	-7.4447	0	
1.9547	6.08711	-7.74549	0	
1.9553	4.24253	-5.91565	0	
1.9560	4.24253	-5.91565	0	
1.9567	3.9474	-5.61486	0	
1.9573	2.10282	-3.78502	0	
1.9580	0.590265	-1.95517	0	
1.9587	0.295133	-1.32852	0	
1.9593	-0.332024	-0.426128	0	
1.9600	-2.1766	1.70451	0	
1.9607	-2.1766	4.46181	0	
1.9613	-0.332024	4.46181	0	
1.9620	0.590265	1.10292	0	
1.9627	0.295133	-0.426128	0	
1.9633	2.39795	0.175464	0	
1.9640	3.32024	-0.726923	0	
1.9647	2.72998	-1.02772	0	
1.9653	5.16482	1.40371	0	
1.9660	7.0094	2.00531	0	
1.9667	1.80769	-0.125332	0	
1.9673	-6.75116	-0.426128	0	
1.9680	-10.9937	-0.125332	0	
1.9687	-9.77627	-1.02772	0	
1.9693	-7.04629	-2.85756	0	
1.9700	-4.61145	-3.78502	0	
1.9707	-1.25431	-4.38661	0	
1.9713	2.10282	-3.78502	0	
1.9720	3.9474	-3.78502	0	
1.9727	3.32024	-5.61486	0	
1.9733	2.39795	-5.01327	0	
1.9740	2.39795	-3.78502	0	
1.9747	0.885398	-1.95517	0	
1.9753	-1.54945	-1.02772	0	
1.9760	-0.332024	-3.18342	0	
1.9767	3.02511	-3.78502	0	
1.9773	0.885398	0.802122	0	
1.9780	-2.1766	3.53435	0	
1.9787	0.295133	2.00531	0	
1.9793	0.885398	0.501327	0	
1.9800	-3.062	-0.125332	0	
1.9807	-4.90658	1.10292	0	
1.9813	-3.062	3.83515	0	
1.9820	-3.062	3.23356	0	
1.9827	-3.39402	2.33117	0	
1.9833	-1.54945	5.36419	0	
1.9840	0.590265	5.0634	0	
1.9847	1.51255	0.802122	0	
1.9853	-0.332024	0.802122	0	
1.9860	-1.84458	3.23356	0	
1.9867	-1.54945	2.63196	0	
1.9873	-1.84458	1.70451	0	
1.9880	-2.76687	1.40371	0	
1.9887	-2.1766	0.175464	0	
1.9893	-1.54945	-0.726923	0	
1.9900	-2.76687	-2.25597	0	
1.9907	-3.39402	-3.78502	0	
1.9913	-2.76687	-2.85756	0	
1.9920	-1.84458	-2.85756	0	
1.9927	-0.332024	-5.31406	0	
1.9933	2.39795	-6.21645	0	
1.9940	2.39795	-3.78502	0	
1.9947	0.295133	-2.85756	0	
1.9953	0.590265	-3.78502	0	
1.9960	2.39795	-3.48422	0	
1.9967	0.295133	-1.95517	0	
1.9973	-2.47174	-0.726923	0	
1.9980	-2.1766	1.40371	0	
1.9987	-2.47174	3.83515	0	
1.9993	-4.90658	5.69006	0	
2.0000	-4.90658	6.29165	0	
2.0007	-4.61145	5.36419	0	
2.0013	-7.04629	3.53435	0	
2.0020	-9.77627	5.0634	0	
2.0027	-9.77627	9.65054	0	
2.0033	-9.186	9.02388	0	
2.0040	-7.63656	4.16101	0	
2.0047	-3.98429	2.33117	0	
2.0053	-0.332024	2.00531	0	
2.0060	1.51255	-0.125332	0	
2.0067	2.39795	-0.426128	0	
2.0073	1.18053	-0.125332	0	
2.0080	-0.922289	-2.25597	0	
2.0087	2.39795	-3.78502	0	
2.0093	8.52195	-4.38661	0	
2.0100	9.73938	-5.31406	0	
2.0107	9.73938	-5.01327	0	
2.0113	13.0965	-5.61486	0	
2.0120	14.0188	-8.37215	0	
2.0127	8.22682	-7.4447	0	
2.0133	1.18053	-4.08581	0	
2.0140	-2.47174	-4.6874	0	
2.0147	-2.47174	-3.18342	0	
2.0153	-0.0368916	1.10292	0	
2.0160	3.02511	-0.726923	0	
2.0167	2.72998	-3.78502	0	
2.0173	-3.98429	-1.02772	0	
2.0180	-10.1083	0.802122	0	
2.0187	-10.4034	-0.125332	0	
2.0193	-9.48114	3.83515	0	
2.0200	-11.6208	7.82069	0	
2.0207	-12.248	4.7626	0	
2.0213	-10.6986	2.00531	0	
2.0220	-10.6986	3.53435	0	
2.0227	-10.6986	5.0634	0	
2.0233	-7.96858	3.53435	0	
2.0240	-5.20171	1.70451	0	
2.0247	-4.27942	1.10292	0	
2.0253	-3.98429	2.00531	0	
2.0260	-2.1766	2.63196	0	
2.0267	-0.332024	1.70451	0	
2.0273	-0.0368916	1.40371	0	
2.0280	1.51255	2.00531	0	
2.0287	4.53766	-0.426128	0	
2.0293	5.16482	-4.38661	0	
2.0300	4.53766	-5.61486	0	
2.0307	5.16482	-6.51724	0	
2.0313	4.24253	-8.37215	0	
2.0320	1.18053	-6.51724	0	
2.0327	-0.0368916	-3.18342	0	
2.0333	1.80769	-3.48422	0	
2.0340	0.885398	-4.6874	0	
2.0347	-3.062	-4.38661	0	
2.0353	-4.90658	-3.78502	0	
2.0360	-3.68916	-3.18342	0	
2.0367	-1.84458	-3.78502	0	
2.0373	-0.332024	-4.6874	0	
2.0380	0.590265	-3.78502	0	
2.0387	0.590265	-1.32852	0	
2.0393	0.885398	2.00531	0	
2.0400	-0.332024	3.83515	0	
2.0407	-3.68916	3.53435	0	
2.0413	-4.90658	5.0634	0	
2.0420	-4.61145	7.19404	0	
2.0427	-5.82887	4.46181	0	
2.0433	-3.98429	3.23356	0	
2.0440	-0.332024	5.0634	0	
2.0447	-2.47174	2.93276	0	
2.0453	-6.41913	2.33117	0	
2.0460	-7.63656	6.59244	0	
2.0467	-7.63656	5.36419	0	
2.0473	-6.75116	-1.32852	0	
2.0480	-5.82887	-3.18342	0	
2.0487	-6.75116	-1.95517	0	
2.0493	-6.41913	-2.85756	0	
2.0500	-5.82887	-3.18342	0	
2.0507	-5.82887	-2.55677	0	
2.0513	-1.25431	-2.25597	0	
2.0520	3.65227	-2.55677	0	
2.0527	2.39795	-3.78502	0	
2.0533	-0.332024	-4.6874	0	
2.0540	0.885398	-3.78502	0	
2.0547	0.590265	-3.18342	0	
2.0553	-0.922289	-3.78502	0	
2.0560	-0.627157	-3.18342	0	
2.0567	0.885398	-0.125332	0	
2.0573	4.86969	0.501327	0	
2.0580	7.8948	-1.95517	0	
2.0587	2.72998	-1.95517	0	
2.0593	-3.68916	1.40371	0	
2.0600	-4.61145	4.7626	0	
2.0607	-3.98429	6.59244	0	
2.0613	-3.98429	5.69006	0	
2.0620	-3.062	4.7626	0	
2.0627	-3.98429	7.19404	0	
2.0633	-6.75116	8.12149	0	
2.0640	-7.96858	4.16101	0	
2.0647	-6.75116	3.53435	0	
2.0653	-6.124	5.69006	0	
2.0660	-6.75116	3.53435	0	
2.0667	-7.63656	-0.125332	0	
2.0673	-8.55885	0.802122	0	
2.0680	-7.34142	1.70451	0	
2.0687	-4.90658	0.501327	0	
2.0693	-4.90658	-1.95517	0	
2.0700	-6.75116	-4.38661	0	
2.0707	-5.82887	-4.38661	0	
2.0713	-3.68916	-2.85756	0	
2.0720	-3.39402	-5.31406	0	
2.0727	-2.76687	-7.74549	0	
2.0733	-0.0368916	-5.61486	0	
2.0740	3.02511	-4.38661	0	
2.0747	4.24253	-5.31406	0	
2.0753	4.24253	-3.78502	0	
2.0760	4.24253	-3.48422	0	
2.0767	4.86969	-5.61486	0	
2.0773	3.9474	-4.38661	0	
2.0780	4.53766	-1.32852	0	
2.0787	7.0094	-1.32852	0	
2.0793	5.16482	-1.02772	0	
2.0800	0.590265	1.70451	0	
2.0807	-0.922289	1.70451	0	
2.0813	-1.84458	1.40371	0	
2.0820	-4.27942	2.33117	0	
2.0827	-4.27942	2.33117	0	
2.0833	-3.39402	2.00531	0	
2.0840	-3.98429	2.93276	0	
2.0847	-3.062	2.93276	0	
2.0853	-0.922289	2.63196	0	
2.0860	-1.54945	2.33117	0	
2.0867	-1.84458	1.10292	0	
2.0873	-0.332024	1.10292	0	
2.0880	-1.25431	1.70451	0	
2.0887	-1.54945	-0.125332	0	
2.0893	1.51255	-2.55677	0	
2.0900	3.9474	-3.18342	0	
2.0907	5.16482	-4.08581	0	
2.0913	6.67738	-5.31406	0	
2.0920	5.16482	-4.6874	0	
2.0927	2.39795	-3.18342	0	
2.0933	2.72998	-3.48422	0	
2.0940	3.32024	-3.48422	0	
2.0947	3.32024	-1.95517	0	
2.0953	3.65227	-1.02772	0	
2.0960	3.02511	-3.18342	0	
2.0967	2.39795	-2.85756	0	
2.0973	3.02511	-1.02772	0	
2.0980	3.32024	-1.32852	0	
2.0987	2.10282	-1.02772	0	
2.0993	0.590265	1.70451	0	
2.1000	-0.332024	2.33117	0	
2.1007	-0.332024	0.175464	0	
2.1013	0.590265	1.70451	0	
2.1020	-1.25431	4.46181	0	
2.1027	-4.90658	3.83515	0	
2.1033	-6.124	1.70451	0	
2.1040	-2.1766	1.40371	0	
2.1047	2.39795	1.10292	0	
2.1053	4.24253	-0.426128	0	
2.1060	2.39795	-1.32852	0	
2.1067	-3.39402	-1.02772	0	
2.1073	-9.77627	-0.726923	0	
2.1080	-9.48114	-1.32852	0	
2.1087	-5.82887	-1.95517	0	
2.1093	-5.20171	-2.25597	0	
2.1100	-3.98429	-3.78502	0	
2.1107	0.590265	-4.6874	0	
2.1113	0.885398	-4.6874	0	
2.1120	-1.25431	-5.01327	0	
2.1127	1.80769	-5.01327	0	
2.1133	1.51255	-2.85756	0	
2.1140	-3.39402	-1.95517	0	
2.1147	-3.062	-4.08581	0	
2.1153	-0.0368916	-5.91565	0	
2.1160	-2.1766	-4.6874	0	
2.1167	-3.062	-3.18342	0	
2.1173	-3.062	-3.18342	0	
2.1180	-4.90658	-3.78502	0	
2.1187	-5.82887	-2.25597	0	
2.1193	-7.04629	0.802122	0	
2.1200	-8.89087	1.70451	0	
2.1207	-7.63656	1.40371	0	
2.1213	-5.82887	1.70451	0	
2.1220	-6.75116	3.53435	0	
2.1227	-7.96858	5.36419	0	
2.1233	-10.4034	5.0634	0	
2.1240	-13.1334	1.70451	0	
2.1247	-10.4034	-0.426128	0	
2.1253	-4.90658	-0.426128	0	
2.1260	-2.1766	-1.02772	0	
2.1267	-0.627157	-2.25597	0	
2.1273	0.590265	-2.85756	0	
2.1280	1.51255	-3.78502	0	
2.1287	2.39795	-3.18342	0	
2.1293	2.39795	-2.55677	0	
2.1300	0.885398	-6.21645	0	
2.1307	-1.25431	-9.27454	0	
2.1313	-0.627157	-6.51724	0	
2.1320	1.80769	-4.38661	0	
2.1327	0.295133	-6.21645	0	
2.1333	-4.27942	-5.91565	0	
2.1340	-2.47174	-3.48422	0	
2.1347	1.80769	-3.48422	0	
2.1353	-1.54945	-4.6874	0	
2.1360	-6.75116	-3.78502	0	
2.1367	-5.20171	-0.125332	0	
2.1373	-3.39402	2.63196	0	
2.1380	-3.68916	2.63196	0	
2.1387	-3.062	2.93276	0	
2.1393	-3.39402	5.36419	0	
2.1400	-6.41913	7.19404	0	
2.1407	-7.96858	7.19404	0	
2.1413	-6.75116	5.36419	0	
2.1420	-4.90658	4.16101	0	
2.1427	-4.27942	3.53435	0	
2.1433	-2.76687	3.53435	0	
2.1440	-2.1766	3.53435	0	
2.1447	-3.68916	4.46181	0	
2.1453	-3.062	5.0634	0	
2.1460	-0.0368916	2.63196	0	
2.1467	-0.332024	1.10292	0	
2.1473	-1.54945	3.83515	0	
2.1480	1.18053	3.23356	0	
2.1487	2.39795	-1.02772	0	
2.1493	1.80769	-1.02772	0	
2.1500	3.32024	0.175464	0	
2.1507	4.86969	-1.02772	0	
2.1513	4.24253	-0.726923	0	
2.1520	4.24253	-0.726923	0	
2.1527	2.72998	-3.78502	0	
2.1533	2.39795	-4.6874	0	
2.1540	5.75509	-3.18342	0	
2.1547	5.16482	-2.55677	0	
2.1553	1.51255	-0.125332	0	
2.1560	0.885398	2.33117	0	
2.1567	1.51255	2.00531	0	
2.1573	0.590265	3.83515	0	
2.1580	-0.627157	6.59244	0	
2.1587	-6.124	5.36419	0	
2.1593	-14.0557	4.16101	0	
2.1600	-14.3508	5.36419	0	
2.1607	-8.55885	5.36419	0	
2.1613	-4.90658	4.7626	0	
2.1620	-4.90658	5.36419	0	
2.1627	-6.75116	5.69006	0	
2.1633	-5.53374	5.99085	0	
2.1640	-1.54945	5.36419	0	
2.1647	-1.25431	4.16101	0	
2.1653	-3.98429	4.46181	0	
2.1660	-2.1766	6.29165	0	
2.1667	2.10282	5.69006	0	
2.1673	1.51255	3.23356	0	
2.1680	-0.332024	0.175464	0	
2.1687	4.86969	-0.726923	0	
2.1693	13.0965	-1.32852	0	
2.1700	16.7488	-3.18342	0	
2.1707	16.1585	-3.78502	0	
2.1713	16.1585	-3.78502	0	
2.1720	17.3759	-4.08581	0	
2.1727	17.9662	-5.01327	0	
2.1733	17.6711	-3.78502	0	
2.1740	15.2362	-2.55677	0	
2.1747	12.1742	-2.85756	0	
2.1753	10.6617	-2.85756	0	
2.1760	7.8948	-2.25597	0	
2.1767	0.590265	-2.25597	0	
2.1773	-4.61145	-1.02772	0	
2.1780	-0.922289	0.501327	0	
2.1787	2.39795	0.175464	0	
2.1793	0.590265	-0.125332	0	
2.1800	-0.332024	0.802122	0	
2.1807	0.885398	2.63196	0	
2.1813	0.295133	3.83515	0	
2.1820	1.18053	3.53435	0	
2.1827	3.9474	1.70451	0	
2.1833	2.72998	1.10292	0	
2.1840	-0.0368916	1.70451	0	
2.1847	1.51255	2.00531	0	
2.1853	4.24253	2.33117	0	
2.1860	4.53766	2.33117	0	
2.1867	2.10282	2.63196	0	
2.1873	1.18053	2.63196	0	
2.1880	3.65227	0.802122	0	
2.1887	5.45995	-1.65438	0	
2.1893	6.38224	-1.95517	0	
2.1900	10.0345	-1.95517	0	
2.1907	10.9568	-3.78502	0	
2.1913	7.8948	-3.78502	0	
2.1920	8.22682	-3.48422	0	
2.1927	6.38224	-4.08581	0	
2.1933	-2.1766	-4.6874	0	
2.1940	-5.82887	-3.48422	0	
2.1947	-0.332024	-3.78502	0	
2.1953	2.72998	-3.78502	0	
2.1960	3.32024	-2.85756	0	
2.1967	5.45995	-3.48422	0	
2.1973	6.08711	-4.6874	0	
2.1980	7.0094	-2.85756	0	
2.1987	8.81709	-0.726923	0	
2.1993	9.73938	-0.426128	0	
2.2000	8.81709	1.70451	0	
2.2007	4.53766	4.16101	0	
2.2013	-0.332024	3.53435	0	
2.2020	-1.54945	2.00531	0	
2.2027	-0.0368916	1.70451	0	
2.2033	-0.922289	0.802122	0	
2.2040	-2.1766	0.175464	0	
2.2047	-1.54945	0.802122	0	
2.2053	-1.84458	0.802122	0	
2.2060	-1.84458	-0.125332	0	
2.2067	1.51255	-1.02772	0	
2.2073	5.45995	-1.32852	0	
2.2080	4.86969	-1.32852	0	
2.2087	2.39795	-2.85756	0	
2.2093	4.53766	-5.61486	0	
2.2100	8.81709	-5.61486	0	
2.2107	7.30453	-3.78502	0	
2.2113	5.16482	-4.08581	0	
2.2120	7.0094	-5.61486	0	
2.2127	6.67738	-4.6874	0	
2.2133	2.72998	-4.6874	0	
2.2140	1.51255	-6.21645	0	
2.2147	1.51255	-4.6874	0	
2.2153	-0.0368916	-1.95517	0	
2.2160	-0.332024	-2.25597	0	
2.2167	-0.332024	-3.18342	0	
2.2173	-4.27942	-1.95517	0	
2.2180	-7.63656	-1.02772	0	
2.2187	-6.75116	-0.426128	0	
2.2193	-8.26371	2.00531	0	
2.2200	-11.3257	4.46181	0	
2.2207	-8.26371	5.0634	0	
2.2213	-3.98429	5.0634	0	
2.2220	-3.39402	5.36419	0	
2.2227	-2.1766	4.16101	0	
2.2233	-1.25431	1.40371	0	
2.2240	-3.39402	0.802122	0	
2.2247	-2.76687	2.00531	0	
2.2253	2.39795	0.175464	0	
2.2260	3.65227	-2.25597	0	
2.2267	1.51255	-0.125332	0	
2.2273	0.885398	1.40371	0	
2.2280	0.295133	-1.02772	0	
2.2287	-1.25431	-1.95517	0	
2.2293	-1.84458	-2.85756	0	
2.2300	-3.062	-5.91565	0	
2.2307	-4.90658	-5.61486	0	
2.2313	-4.27942	-3.48422	0	
2.2320	-0.922289	-4.08581	0	
2.2327	0.590265	-3.78502	0	
2.2333	-1.25431	-2.55677	0	
2.2340	-2.47174	-2.85756	0	
2.2347	-2.76687	-2.25597	0	
2.2353	-3.39402	-1.32852	0	
2.2360	-4.90658	-2.25597	0	
2.2367	-4.27942	-1.95517	0	
2.2373	-2.1766	-1.65438	0	
2.2380	-3.39402	-3.78502	0	
2.2387	-7.63656	-0.426128	0	
2.2393	-8.55885	4.46181	0	
2.2400	-6.41913	4.16101	0	
2.2407	-7.04629	6.59244	0	
2.2413	-7.96858	10.2521	0	
2.2420	-5.53374	5.99085	0	
2.2427	-4.27942	2.93276	0	
2.2433	-5.82887	7.19404	0	
2.2440	-4.90658	6.59244	0	
2.2447	-3.98429	2.33117	0	
2.2453	-4.90658	2.63196	0	
2.2460	-2.1766	2.63196	0	
2.2467	2.39795	-0.125332	0	
2.2473	2.72998	-1.02772	0	
2.2480	1.51255	-1.65438	0	
2.2487	2.39795	-2.25597	0	
2.2493	3.9474	-2.85756	0	
2.2500	4.86969	-4.38661	0	
2.2507	4.24253	-5.01327	0	
2.2513	2.39795	-4.08581	0	
2.2520	2.39795	-3.78502	0	
2.2527	4.24253	-3.78502	0	
2.2533	2.72998	-2.25597	0	
2.2540	-0.0368916	-1.95517	0	
2.2547	-0.332024	-0.125332	0	
2.2553	-1.84458	2.63196	0	
2.2560	-3.98429	3.83515	0	
2.2567	-3.98429	3.53435	0	
2.2573	-5.20171	1.70451	0	
2.2580	-8.55885	0.175464	0	
2.2587	-9.48114	2.63196	0	
2.2593	-8.55885	7.19404	0	
2.2600	-7.63656	8.72308	0	
2.2607	-5.82887	7.82069	0	
2.2613	-5.20171	6.59244	0	
2.2620	-4.61145	5.99085	0	
2.2627	-2.47174	5.0634	0	
2.2633	-0.627157	3.53435	0	
2.2640	-1.25431	3.83515	0	
2.2647	-3.062	5.0634	0	
2.2653	-4.27942	3.53435	0	
2.2660	-2.76687	2.63196	0	
2.2667	-0.627157	4.16101	0	
2.2673	-1.54945	4.16101	0	
2.2680	-3.68916	3.83515	0	
2.2687	-4.27942	2.63196	0	
2.2693	-2.1766	-1.95517	0	
2.2700	0.590265	-5.01327	0	
2.2707	0.590265	-3.78502	0	
2.2713	-0.627157	-2.85756	0	
2.2720	-0.332024	-2.85756	0	
2.2727	-3.062	-2.85756	0	
2.2733	-6.41913	-3.78502	0	
2.2740	-5.20171	-3.78502	0	
2.2747	-2.1766	-3.48422	0	
2.2753	-1.54945	-4.6874	0	
2.2760	-2.1766	-3.78502	0	
2.2767	-3.062	-0.426128	0	
2.2773	-0.922289	-0.726923	0	
2.2780	4.24253	-2.55677	0	
2.2787	3.32024	0.501327	0	
2.2793	-2.1766	3.23356	0	
2.2800	-1.84458	3.53435	0	
2.2807	0.590265	4.7626	0	
2.2813	-0.332024	4.7626	0	
2.2820	-0.627157	2.63196	0	
2.2827	-0.922289	2.63196	0	
2.2833	-2.1766	3.83515	0	
2.2840	-0.0368916	2.63196	0	
2.2847	1.51255	1.10292	0	
2.2853	-2.1766	0.501327	0	
2.2860	-4.27942	-0.125332	0	
2.2867	-1.84458	0.802122	0	
2.2873	0.885398	0.501327	0	
2.2880	2.72998	-1.02772	0	
2.2887	4.24253	-0.426128	0	
2.2893	4.86969	-1.95517	0	
2.2900	6.38224	-5.91565	0	
2.2907	6.67738	-6.84311	0	
2.2913	2.39795	-4.6874	0	
2.2920	-1.25431	-5.31406	0	
2.2927	-1.54945	-7.74549	0	
2.2933	1.18053	-8.37215	0	
2.2940	4.53766	-7.1439	0	
2.2947	6.08711	-6.84311	0	
2.2953	3.32024	-8.04629	0	
2.2960	2.10282	-8.04629	0	
2.2967	3.65227	-5.91565	0	
2.2973	4.24253	-5.61486	0	
2.2980	2.10282	-5.01327	0	
2.2987	1.51255	-2.85756	0	
2.2993	2.10282	-1.02772	0	
2.3000	1.51255	0.175464	0	
2.3007	1.80769	2.63196	0	
2.3013	3.32024	3.23356	0	
2.3020	3.9474	2.33117	0	
2.3027	3.32024	1.70451	0	
2.3033	2.39795	1.40371	0	
2.3040	1.51255	1.10292	0	
2.3047	1.80769	0.802122	0	
2.3053	2.72998	-0.125332	0	
2.3060	3.32024	-0.125332	0	
2.3067	4.24253	-0.125332	0	
2.3073	5.16482	-2.25597	0	
2.3080	3.65227	-3.78502	0	
2.3087	3.9474	-3.78502	0	
2.3093	7.8948	-2.85756	0	
2.3100	10.0345	-1.95517	0	
2.3107	7.8948	-3.48422	0	
2.3113	7.59966	-6.51724	0	
2.3120	8.52195	-8.37215	0	
2.3127	7.8948	-8.37215	0	
2.3133	7.0094	-7.4447	0	
2.3140	5.16482	-5.91565	0	
2.3147	0.295133	-4.6874	0	
2.3153	-6.124	-3.78502	0	
2.3160	-8.89087	-1.02772	0	
2.3167	-8.55885	-0.426128	0	
2.3173	-8.26371	-1.95517	0	
2.3180	-8.89087	-0.726923	0	
2.3187	-9.48114	1.70451	0	
2.3193	-10.1083	2.63196	0	
2.3200	-10.4034	4.46181	0	
2.3207	-10.6986	6.59244	0	
2.3213	-10.4034	7.5199	0	
2.3220	-7.63656	7.82069	0	
2.3227	-3.68916	6.29165	0	
2.3233	-1.84458	4.7626	0	
2.3240	0.295133	5.36419	0	
2.3247	3.32024	3.53435	0	
2.3253	7.30453	-0.426128	0	
2.3260	11.2519	-1.02772	0	
2.3267	12.4694	0.175464	0	
2.3273	9.73938	-0.726923	0	
2.3280	7.8948	-1.65438	0	
2.3287	8.22682	-2.55677	0	
2.3293	6.67738	-2.85756	0	
2.3300	7.0094	-2.85756	0	
2.3307	8.81709	-4.6874	0	
2.3313	6.38224	-4.6874	0	
2.3320	3.65227	-2.85756	0	
2.3327	4.24253	-4.6874	0	
2.3333	3.65227	-7.1439	0	
2.3340	3.02511	-2.55677	0	
2.3347	5.16482	0.802122	0	
2.3353	4.53766	-1.65438	0	
2.3360	0.590265	-0.726923	0	
2.3367	-0.332024	3.53435	0	
2.3373	1.18053	2.63196	0	
2.3380	2.10282	0.802122	0	
2.3387	2.72998	4.16101	0	
2.3393	2.39795	7.19404	0	
2.3400	-0.627157	4.46181	0	
2.3407	-1.25431	2.93276	0	
2.3413	2.39795	7.19404	0	
2.3420	4.86969	8.72308	0	
2.3427	2.10282	4.46181	0	
2.3433	-1.54945	2.63196	0	
2.3440	-2.47174	4.46181	0	
2.3447	-3.39402	2.63196	0	
2.3453	-3.98429	0.175464	0	
2.3460	-2.1766	1.10292	0	
2.3467	-0.332024	2.33117	0	
2.3473	-1.25431	1.70451	0	
2.3480	-2.1766	1.70451	0	
2.3487	-1.84458	1.40371	0	
2.3493	-1.25431	0.175464	0	
2.3500	0.295133	-2.25597	0	
2.3507	0.885398	-3.78502	0	
2.3513	-0.922289	-3.18342	0	
2.3520	-3.062	-1.95517	0	
2.3527	-3.39402	-2.25597	0	
2.3533	-5.53374	-3.18342	0	
2.3540	-7.34142	-1.65438	0	
2.3547	-5.20171	0.501327	0	
2.3553	-3.98429	0.802122	0	
2.3560	-5.20171	-0.426128	0	
2.3567	-4.27942	-0.426128	0	
2.3573	-3.062	-0.426128	0	
2.3580	-2.47174	-0.426128	0	
2.3587	2.39795	1.70451	0	
2.3593	7.59966	3.23356	0	
2.3600	6.67738	2.63196	0	
2.3607	3.32024	1.10292	0	
2.3613	1.18053	1.10292	0	
2.3620	-0.627157	2.63196	0	
2.3627	0.295133	4.46181	0	
2.3633	-0.0368916	4.46181	0	
2.3640	-2.76687	2.00531	0	
2.3647	-1.25431	1.40371	0	
2.3653	0.295133	0.802122	0	
2.3660	-2.1766	-0.125332	0	
2.3667	-2.47174	1.70451	0	
2.3673	0.590265	3.83515	0	
2.3680	0.590265	0.175464	0	
2.3687	-1.25431	-1.95517	0	
2.3693	-1.54945	0.501327	0	
2.3700	-2.47174	-0.726923	0	
2.3707	-2.76687	-4.6874	0	
2.3713	-1.25431	-3.78502	0	
2.3720	-0.627157	-1.95517	0	
2.3727	-2.1766	-3.48422	0	
2.3733	-2.1766	-3.78502	0	
2.3740	-2.1766	-2.55677	0	
2.3747	-3.98429	-2.25597	0	
2.3753	-4.61145	-1.02772	0	
2.3760	-2.1766	-0.125332	0	
2.3767	-2.1766	-2.85756	0	
2.3773	-4.61145	-2.85756	0	
2.3780	-4.90658	1.40371	0	
2.3787	-4.90658	4.16101	0	
2.3793	-6.75116	2.93276	0	
2.3800	-6.124	1.40371	0	
2.3807	-5.20171	1.70451	0	
2.3813	-7.34142	3.83515	0	
2.3820	-10.4034	3.83515	0	
2.3827	-13.1334	2.00531	0	
2.3833	-13.1334	1.10292	0	
2.3840	-11.3257	1.70451	0	
2.3847	-10.4034	2.63196	0	
2.3853	-13.1334	2.63196	0	
2.3860	-12.5431	2.33117	0	
2.3867	-5.82887	3.53435	0	
2.3873	-0.627157	2.63196	0	
2.3880	-0.0368916	-1.02772	0	
2.3887	-0.627157	-2.85756	0	
2.3893	-0.922289	-3.78502	0	
2.3900	-1.84458	-5.61486	0	
2.3907	-1.84458	-4.6874	0	
2.3913	0.295133	-4.08581	0	
2.3920	1.18053	-6.51724	0	
2.3927	0.885398	-5.61486	0	
2.3933	2.10282	-3.78502	0	
2.3940	1.80769	-4.6874	0	
2.3947	-0.332024	-3.48422	0	
2.3953	-0.627157	-0.426128	0	
2.3960	-0.332024	-2.25597	0	
2.3967	-1.25431	-3.78502	0	
2.3973	0.885398	-0.726923	0	
2.3980	4.53766	0.802122	0	
2.3987	5.75509	0.802122	0	
2.3993	3.9474	3.23356	0	
2.4000	2.10282	6.29165	0	
2.4007	0.590265	6.29165	0	
2.4013	-3.062	5.99085	0	
2.4020	-7.04629	6.89324	0	
2.4027	-8.55885	6.89324	0	
2.4033	-6.41913	5.36419	0	
2.4040	-4.90658	5.36419	0	
2.4047	-3.062	5.99085	0	
2.4053	-2.1766	5.0634	0	
2.4060	-3.062	3.23356	0	
2.4067	-1.25431	1.70451	0	
2.4073	3.32024	0.802122	0	
2.4080	3.32024	0.802122	0	
2.4087	-0.0368916	-0.125332	0	
2.4093	-1.54945	-3.48422	0	
2.4100	-0.627157	-5.31406	0	
2.4107	0.590265	-4.6874	0	
2.4113	1.51255	-4.6874	0	
2.4120	0.590265	-4.08581	0	
2.4127	-1.84458	-2.25597	0	
2.4133	-1.84458	-3.48422	0	
2.4140	0.590265	-5.31406	0	
2.4147	0.590265	-1.95517	0	
2.4153	-1.54945	-0.125332	0	
2.4160	-0.332024	-3.78502	0	
2.4167	-0.0368916	-5.01327	0	
2.4173	-3.98429	-0.726923	0	
2.4180	-5.82887	1.10292	0	
2.4187	-3.98429	1.70451	0	
2.4193	-3.68916	4.7626	0	
2.4200	-3.98429	5.36419	0	
2.4207	-2.47174	1.70451	0	
2.4213	-0.332024	0.802122	0	
2.4220	2.39795	2.00531	0	
2.4227	4.24253	1.70451	0	
2.4233	1.18053	2.33117	0	
2.4240	1.18053	2.63196	0	
2.4247	4.53766	-0.426128	0	
2.4253	4.53766	-1.02772	0	
2.4260	3.32024	0.175464	0	
2.4267	4.24253	-1.65438	0	
2.4273	3.65227	-1.32852	0	
2.4280	3.32024	0.501327	0	
2.4287	6.08711	-2.85756	0	
2.4293	6.38224	-4.6874	0	
2.4300	5.16482	-3.78502	0	
2.4307	7.30453	-6.21645	0	
2.4313	9.73938	-9.27454	0	
2.4320	8.81709	-7.1439	0	
2.4327	7.8948	-6.51724	0	
2.4333	9.11222	-7.74549	0	
2.4340	8.81709	-6.21645	0	
2.4347	7.0094	-5.01327	0	
2.4353	5.75509	-3.78502	0	
2.4360	7.0094	-1.02772	0	
2.4367	5.45995	-1.95517	0	
2.4373	2.39795	-5.01327	0	
2.4380	2.39795	-3.78502	0	
2.4387	3.02511	0.802122	0	
2.4393	0.590265	3.83515	0	
2.4400	-3.062	5.0634	0	
2.4407	-5.53374	5.36419	0	
2.4413	-5.82887	4.7626	0	
2.4420	-5.82887	2.93276	0	
2.4427	-7.04629	1.70451	0	
2.4433	-5.82887	2.63196	0	
2.4440	-1.84458	2.93276	0	
2.4447	-1.25431	2.63196	0	
2.4453	-2.76687	2.33117	0	
2.4460	-2.1766	0.802122	0	
2.4467	-1.84458	0.175464	0	
2.4473	-2.1766	2.00531	0	
2.4480	-0.0368916	0.802122	0	
2.4487	2.39795	-2.85756	0	
2.4493	4.24253	-3.78502	0	
2.4500	3.9474	-3.78502	0	
2.4507	0.590265	-5.01327	0	
2.4513	-0.922289	-5.01327	0	
2.4520	2.10282	-2.85756	0	
2.4527	2.10282	-2.25597	0	
2.4533	-0.332024	-4.38661	0	
2.4540	0.885398	-4.6874	0	
2.4547	3.02511	-1.65438	0	
2.4553	1.80769	-0.125332	0	
2.4560	2.10282	-2.85756	0	
2.4567	4.24253	-3.78502	0	
2.4573	2.39795	-2.55677	0	
2.4580	-1.84458	-2.25597	0	
2.4587	-2.1766	-0.726923	0	
2.4593	-0.332024	3.53435	0	
2.4600	0.295133	6.89324	0	
2.4607	0.590265	7.19404	0	
2.4613	-0.627157	5.36419	0	
2.4620	-4.61145	2.63196	0	
2.4627	-4.90658	2.33117	0	
2.4633	-1.84458	3.23356	0	
2.4640	-0.627157	4.46181	0	
2.4647	-1.25431	5.36419	0	
2.4653	-1.25431	3.23356	0	
2.4660	-2.1766	0.802122	0	
2.4667	-3.98429	1.10292	0	
2.4673	-1.84458	0.802122	0	
2.4680	2.10282	-2.25597	0	
2.4687	2.39795	-3.78502	0	
2.4693	2.39795	-3.78502	0	
2.4700	2.72998	-3.78502	0	
2.4707	2.39795	-2.25597	0	
2.4713	3.32024	-1.32852	0	
2.4720	4.86969	-3.48422	0	
2.4727	1.18053	-5.31406	0	
2.4733	-1.54945	-5.01327	0	
2.4740	4.24253	-3.78502	0	
2.4747	10.0345	-1.95517	0	
2.4753	7.8948	-1.95517	0	
2.4760	5.16482	-1.95517	0	
2.4767	3.65227	0.501327	0	
2.4773	1.80769	1.10292	0	
2.4780	-0.0368916	0.501327	0	
2.4787	-1.25431	1.40371	0	
2.4793	-1.84458	0.802122	0	
2.4800	-1.54945	-1.02772	0	
2.4807	-3.68916	1.70451	0	
2.4813	-6.41913	4.46181	0	
2.4820	-6.41913	2.33117	0	
2.4827	-6.75116	1.70451	0	
2.4833	-8.89087	3.83515	0	
2.4840	-8.55885	2.63196	0	
2.4847	-7.04629	0.175464	0	
2.4853	-6.41913	-1.02772	0	
2.4860	-3.98429	-1.95517	0	
2.4867	-2.47174	-0.125332	0	
2.4873	-4.27942	1.40371	0	
2.4880	-3.68916	-1.95517	0	
2.4887	-0.332024	-3.78502	0	
2.4893	-1.54945	-1.95517	0	
2.4900	-4.90658	-2.25597	0	
2.4907	-3.062	-4.6874	0	
2.4913	-0.922289	-4.6874	0	
2.4920	-3.062	-3.78502	0	
2.4927	-5.53374	-3.78502	0	
2.4933	-5.53374	-3.78502	0	
2.4940	-3.062	-2.25597	0	
2.4947	-0.332024	-0.125332	0	
2.4953	-0.922289	0.175464	0	
2.4960	-4.61145	-0.726923	0	
2.4967	-5.53374	-0.426128	0	
2.4973	-5.53374	1.70451	0	
2.4980	-7.34142	2.33117	0	
2.4987	-6.41913	2.93276	0	
2.4993	-3.062	4.46181	0	
2.5000	-2.1766	2.93276	0	
2.5007	-2.1766	0.802122	0	
2.5013	-2.1766	3.23356	0	
2.5020	-3.98429	6.29165	0	
2.5027	-4.61145	5.36419	0	
2.5033	-3.062	4.7626	0	
2.5040	-3.062	5.36419	0	
2.5047	-3.98429	2.63196	0	
2.5053	-2.1766	-0.726923	0	
2.5060	-1.54945	-0.426128	0	
2.5067	-1.84458	-0.125332	0	
2.5073	0.295133	-1.65438	0	
2.5080	1.18053	-2.85756	0	
2.5087	-0.332024	-2.25597	0	
2.5093	0.590265	-2.85756	0	
2.5100	0.885398	-3.78502	0	
2.5107	-0.332024	-4.6874	0	
2.5113	1.80769	-4.6874	0	
2.5120	5.16482	-5.01327	0	
2.5127	4.24253	-3.78502	0	
2.5133	1.80769	-2.25597	0	
2.5140	-0.332024	-3.78502	0	
2.5147	-3.062	-5.31406	0	
2.5153	-1.84458	-3.78502	0	
2.5160	0.590265	-1.02772	0	
2.5167	-0.627157	-0.125332	0	
2.5173	-0.332024	-0.726923	0	
2.5180	1.51255	0.175464	0	
2.5187	-1.25431	1.70451	0	
2.5193	-3.39402	1.10292	0	
2.5200	-1.84458	1.10292	0	
2.5207	-3.062	4.7626	0	
2.5213	-3.98429	6.29165	0	
2.5220	-0.0368916	4.7626	0	
2.5227	1.80769	4.7626	0	
2.5233	-0.922289	4.46181	0	
2.5240	-3.39402	1.40371	0	
2.5247	-5.82887	1.10292	0	
2.5253	-5.20171	3.53435	0	
2.5260	-2.1766	3.23356	0	
2.5267	-1.84458	0.802122	0	
2.5273	-3.98429	-0.125332	0	
2.5280	-1.25431	0.501327	0	
2.5287	2.72998	0.501327	0	
2.5293	3.9474	-0.125332	0	
2.5300	2.39795	-1.95517	0	
2.5307	0.590265	-3.78502	0	
2.5313	1.51255	-5.01327	0	
2.5320	5.16482	-4.38661	0	
2.5327	4.24253	-3.78502	0	
2.5333	-1.54945	-5.61486	0	
2.5340	-1.84458	-5.61486	0	
2.5347	2.39795	-1.65438	0	
2.5353	3.02511	-0.125332	0	
2.5360	1.18053	-4.38661	0	
2.5367	-1.25431	-5.61486	0	
2.5373	-4.90658	-2.85756	0	
2.5380	-7.04629	-0.426128	0	
2.5387	-4.90658	0.802122	0	
2.5393	-2.47174	1.70451	0	
2.5400	-0.332024	2.93276	0	
2.5407	0.885398	4.16101	0	
2.5413	-2.47174	3.83515	0	
2.5420	-5.20171	2.63196	0	
2.5427	-2.1766	3.83515	0	
2.5433	-2.1766	5.0634	0	
2.5440	-6.41913	2.93276	0	
2.5447	-5.82887	1.10292	0	
2.5453	-3.39402	2.33117	0	
2.5460	-5.53374	3.23356	0	
2.5467	-5.53374	2.00531	0	
2.5473	-3.062	-0.125332	0	
2.5480	-3.062	-1.65438	0	
2.5487	1.18053	-1.95517	0	
2.5493	11.2519	-2.85756	0	
2.5500	13.7237	-2.85756	0	
2.5507	9.73938	-2.25597	0	
2.5513	12.4694	-2.85756	0	
2.5520	17.0808	-3.78502	0	
2.5527	15.2362	-4.38661	0	
2.5533	14.6091	-4.38661	0	
2.5540	15.8265	-2.85756	0	
2.5547	12.1742	-0.125332	0	
2.5553	9.11222	-0.426128	0	
2.5560	9.44424	-1.02772	0	
2.5567	7.59966	0.802122	0	
2.5573	4.86969	0.501327	0	
2.5580	4.86969	-0.125332	0	
2.5587	3.32024	3.83515	0	
2.5593	1.18053	4.7626	0	
2.5600	1.51255	2.93276	0	
2.5607	2.10282	5.69006	0	
2.5613	1.51255	6.89324	0	
2.5620	1.51255	0.501327	0	
2.5627	-0.0368916	-0.726923	0	
2.5633	-1.54945	3.83515	0	
2.5640	0.590265	4.46181	0	
2.5647	1.80769	2.93276	0	
2.5653	-0.0368916	3.83515	0	
2.5660	-1.25431	2.63196	0	
2.5667	-1.54945	1.10292	0	
2.5673	-3.98429	1.70451	0	
2.5680	-4.90658	0.501327	0	
2.5687	-3.98429	-1.02772	0	
2.5693	-3.39402	-0.726923	0	
2.5700	-1.54945	-2.85756	0	
2.5707	0.590265	-4.6874	0	
2.5713	0.590265	-3.78502	0	
2.5720	2.10282	-3.18342	0	
2.5727	6.08711	-4.6874	0	
2.5733	7.59966	-6.51724	0	
2.5740	6.08711	-5.61486	0	
2.5747	4.53766	-3.48422	0	
2.5753	2.10282	-2.25597	0	
2.5760	1.18053	-1.95517	0	
2.5767	4.53766	0.501327	0	
2.5773	5.45995	2.33117	0	
2.5780	1.80769	1.10292	0	
2.5787	0.590265	0.802122	0	
2.5793	-0.0368916	1.70451	0	
2.5800	-4.90658	1.40371	0	
2.5807	-5.82887	2.63196	0	
2.5813	-0.332024	4.46181	0	
2.5820	-0.332024	4.46181	0	
2.5827	-3.98429	4.16101	0	
2.5833	-2.47174	2.93276	0	
2.5840	-1.25431	-0.125332	0	
2.5847	-4.27942	-1.32852	0	
2.5853	-4.90658	1.70451	0	
2.5860	-3.062	3.53435	0	
2.5867	-2.76687	0.501327	0	
2.5873	-3.68916	-2.85756	0	
2.5880	-2.1766	-1.95517	0	
2.5887	0.295133	-1.02772	0	
2.5893	2.39795	-3.18342	0	
2.5900	4.53766	-4.38661	0	
2.5907	7.8948	-2.85756	0	
2.5913	9.44424	-2.85756	0	
2.5920	8.81709	-4.6874	0	
2.5927	9.73938	-4.6874	0	
2.5933	7.8948	-2.85756	0	
2.5940	2.39795	-4.08581	0	
2.5947	-0.0368916	-5.31406	0	
2.5953	0.885398	-2.85756	0	
2.5960	-0.922289	-0.125332	0	
2.5967	-2.1766	-0.125332	0	
2.5973	-1.25431	-0.726923	0	
2.5980	-2.1766	0.802122	0	
2.5987	-3.062	2.33117	0	
2.5993	-3.68916	3.23356	0	
2.6000	-4.90658	5.36419	0	
2.6007	-3.062	5.0634	0	
2.6013	-0.0368916	4.46181	0	
2.6020	0.295133	6.29165	0	
2.6027	0.590265	7.5199	0	
2.6033	0.295133	5.0634	0	
2.6040	-3.39402	3.53435	0	
2.6047	-7.04629	2.33117	0	
2.6053	-8.55885	-0.125332	0	
2.6060	-8.55885	-0.426128	0	
2.6067	-6.75116	0.802122	0	
2.6073	-4.90658	0.802122	0	
2.6080	-6.41913	-1.32852	0	
2.6087	-5.82887	-4.38661	0	
2.6093	-1.25431	-6.21645	0	
2.6100	0.885398	-5.61486	0	
2.6107	-0.627157	-5.91565	0	
2.6113	-1.54945	-4.6874	0	
2.6120	-3.062	-1.02772	0	
2.6127	-4.61145	-1.02772	0	
2.6133	-3.39402	-4.6874	0	
2.6140	-1.54945	-5.61486	0	
2.6147	-1.25431	-3.48422	0	
2.6153	-1.25431	-2.25597	0	
2.6160	-0.922289	-2.85756	0	
2.6167	-0.0368916	-4.08581	0	
2.6173	1.51255	-3.48422	0	
2.6180	0.885398	-0.125332	0	
2.6187	-2.1766	0.802122	0	
2.6193	-2.76687	0.802122	0	
2.6200	-1.25431	1.70451	0	
2.6207	-2.76687	2.00531	0	
2.6213	-7.04629	1.70451	0	
2.6220	-9.48114	4.16101	0	
2.6227	-7.63656	5.99085	0	
2.6233	-3.39402	4.16101	0	
2.6240	-1.84458	1.70451	0	
2.6247	-3.062	1.70451	0	
2.6253	-1.25431	2.93276	0	
2.6260	1.80769	3.23356	0	
2.6267	0.590265	3.23356	0	
2.6273	1.51255	2.00531	0	
2.6280	4.24253	-1.65438	0	
2.6287	3.32024	-4.08581	0	
2.6293	1.18053	-3.18342	0	
2.6300	1.51255	-3.18342	0	
2.6307	-0.332024	-5.01327	0	
2.6313	-2.1766	-4.38661	0	
2.6320	0.590265	-4.08581	0	
2.6327	2.39795	-5.31406	0	
2.6333	-1.25431	-2.55677	0	
2.6340	-3.68916	-1.02772	0	
2.6347	-1.54945	-3.78502	0	
2.6353	-0.0368916	-2.55677	0	
2.6360	-1.25431	0.175464	0	
2.6367	-0.922289	-2.85756	0	
2.6373	1.51255	-4.6874	0	
2.6380	2.39795	0.175464	0	
2.6387	2.39795	4.7626	0	
2.6393	2.39795	5.69006	0	
2.6400	1.80769	5.36419	0	
2.6407	2.10282	3.23356	0	
2.6413	0.885398	2.63196	0	
2.6420	-3.39402	5.99085	0	
2.6427	-4.61145	6.29165	0	
2.6433	0.590265	3.83515	0	
2.6440	4.24253	5.36419	0	
2.6447	2.39795	5.69006	0	
2.6453	1.18053	1.10292	0	
2.6460	1.80769	-1.95517	0	
2.6467	2.39795	0.501327	0	
2.6473	2.10282	0.802122	0	
2.6480	-0.332024	-2.55677	0	
2.6487	-0.922289	-5.01327	0	
2.6493	2.10282	-4.6874	0	
2.6500	3.65227	-3.78502	0	
2.6507	3.9474	-3.48422	0	
2.6513	5.16482	-3.78502	0	
2.6520	4.24253	-4.6874	0	
2.6527	2.72998	-5.31406	0	
2.6533	5.16482	-5.61486	0	
2.6540	7.0094	-5.61486	0	
2.6547	5.16482	-4.38661	0	
2.6553	6.08711	-3.48422	0	
2.6560	10.6617	-4.08581	0	
2.6567	10.6617	-2.55677	0	
2.6573	4.24253	1.40371	0	
2.6580	-0.922289	1.70451	0	
2.6587	-2.1766	0.802122	0	
2.6593	-2.47174	3.53435	0	
2.6600	-3.39402	4.46181	0	
2.6607	-3.98429	2.63196	0	
2.6613	-5.20171	2.63196	0	
2.6620	-6.41913	2.93276	0	
2.6627	-6.75116	1.70451	0	
2.6633	-7.04629	1.70451	0	
2.6640	-6.41913	2.00531	0	
2.6647	-3.062	0.802122	0	
2.6653	-0.922289	1.10292	0	
2.6660	1.18053	1.70451	0	
2.6667	4.24253	-0.726923	0	
2.6673	1.80769	-1.32852	0	
2.6680	-3.39402	-0.726923	0	
2.6687	3.9474	-3.48422	0	
2.6693	23.7951	-6.51724	0	
2.6700	41.4661	-6.84311	0	
2.6707	46.963	-6.51724	0	
2.6713	40.2487	-5.61486	0	
2.6720	29.587	-4.6874	0	
2.6727	20.7331	-5.61486	0	
2.6733	14.9411	-5.91565	0	
2.6740	14.0188	-4.38661	0	
2.6747	17.9662	-4.08581	0	
2.6753	15.2362	-3.48422	0	
2.6760	4.86969	-1.65438	0	
2.6767	-2.1766	-1.95517	0	
2.6773	-1.25431	-1.65438	0	
2.6780	1.51255	2.00531	0	
2.6787	0.590265	3.23356	0	
2.6793	0.590265	1.70451	0	
2.6800	5.16482	2.00531	0	
2.6807	10.0345	3.23356	0	
2.6813	7.30453	5.0634	0	
2.6820	-1.84458	5.99085	0	
2.6827	-9.186	2.93276	0	
2.6833	-10.4034	1.70451	0	
2.6840	-7.96858	3.83515	0	
2.6847	-6.75116	2.63196	0	
2.6853	-6.124	0.175464	0	
2.6860	-4.90658	0.501327	0	
2.6867	-5.53374	-0.726923	0	
2.6873	-10.4034	-1.02772	0	
2.6880	-14.3508	1.40371	0	
2.6887	-13.7606	-0.426128	0	
2.6893	-11.916	-3.18342	0	
2.6900	-10.4034	-1.65438	0	
2.6907	-7.63656	-3.18342	0	
2.6913	-5.82887	-7.1439	0	
2.6920	-6.124	-4.38661	0	
2.6927	-6.75116	-1.02772	0	
2.6933	-7.04629	-3.48422	0	
2.6940	-8.89087	-5.31406	0	
2.6947	-10.4034	-3.18342	0	
2.6953	-10.6986	-1.32852	0	
2.6960	-11.3257	-2.25597	0	
2.6967	-11.3257	-2.85756	0	
2.6973	-9.48114	-1.95517	0	
2.6980	-9.77627	-0.426128	0	
2.6987	-9.77627	-0.125332	0	
2.6993	-8.26371	1.10292	0	
2.7000	-9.186	2.93276	0	
2.7007	-10.9937	3.53435	0	
2.7013	-9.77627	2.63196	0	
2.7020	-9.77627	2.33117	0	
2.7027	-12.248	3.23356	0	
2.7033	-11.916	4.16101	0	
2.7040	-9.48114	2.63196	0	
2.7047	-8.55885	0.501327	0	
2.7053	-6.75116	1.70451	0	
2.7060	-5.82887	0.802122	0	
2.7067	-6.75116	-1.95517	0	
2.7073	-6.75116	-1.02772	0	
2.7080	-5.82887	1.70451	0	
2.7087	-4.90658	-0.125332	0	
2.7093	-3.68916	-3.48422	0	
2.7100	-3.39402	-2.85756	0	
2.7107	-5.20171	-1.32852	0	
2.7113	-6.41913	-1.95517	0	
2.7120	-5.82887	-1.65438	0	
2.7127	-7.04629	-1.95517	0	
2.7133	-9.186	-2.85756	0	
2.7140	-8.89087	-1.02772	0	
2.7147	-7.96858	0.802122	0	
2.7153	-8.55885	-1.95517	0	
2.7160	-8.55885	-3.78502	0	
2.7167	-6.75116	-1.02772	0	
2.7173	-7.04629	1.10292	0	
2.7180	-7.63656	1.10292	0	
2.7187	-6.75116	3.53435	0	
2.7193	-5.82887	5.69006	0	
2.7200	-5.82887	5.36419	0	
2.7207	-7.63656	6.29165	0	
2.7213	-11.3257	7.19404	0	
2.7220	-10.4034	6.29165	0	
2.7227	-4.90658	6.89324	0	
2.7233	-5.82887	6.59244	0	
2.7240	-9.48114	5.0634	0	
2.7247	-4.90658	3.53435	0	
2.7253	1.51255	2.33117	0	
2.7260	1.51255	2.33117	0	
2.7267	0.590265	2.33117	0	
2.7273	-0.0368916	-0.426128	0	
2.7280	-3.062	-3.18342	0	
2.7287	-1.54945	-2.25597	0	
2.7293	4.24253	-1.65438	0	
2.7300	4.86969	-3.18342	0	
2.7307	2.39795	-4.08581	0	
2.7313	2.39795	-5.31406	0	
2.7320	3.32024	-5.61486	0	
2.7327	7.59966	-3.78502	0	
2.7333	10.6617	-3.48422	0	
2.7340	8.52195	-4.6874	0	
2.7347	7.30453	-3.78502	0	
2.7353	8.81709	-1.95517	0	
2.7360	7.59966	-0.426128	0	
2.7367	5.75509	0.175464	0	
2.7373	5.16482	-0.726923	0	
2.7380	3.02511	-1.32852	0	
2.7387	0.590265	1.70451	0	
2.7393	-1.25431	4.16101	0	
2.7400	-3.062	2.33117	0	
2.7407	-3.98429	1.70451	0	
2.7413	-2.76687	5.0634	0	
2.7420	-2.1766	6.89324	0	
2.7427	-1.25431	6.59244	0	
2.7433	-0.332024	5.0634	0	
2.7440	-1.25431	1.70451	0	
2.7447	-0.922289	1.70451	0	
2.7453	1.18053	4.16101	0	
2.7460	2.39795	2.63196	0	
2.7467	3.32024	-1.02772	0	
2.7473	4.24253	-1.02772	0	
2.7480	3.32024	-1.02772	0	
2.7487	2.72998	-3.78502	0	
2.7493	3.32024	-5.61486	0	
2.7500	2.72998	-6.21645	0	
2.7507	2.39795	-6.21645	0	
2.7513	5.16482	-5.61486	0	
2.7520	8.81709	-4.6874	0	
2.7527	10.6617	-4.38661	0	
2.7533	9.11222	-3.48422	0	
2.7540	7.8948	-3.18342	0	
2.7547	7.30453	-2.85756	0	
2.7553	4.86969	-3.48422	0	
2.7560	1.80769	-3.78502	0	
2.7567	0.590265	-1.02772	0	
2.7573	-2.1766	2.00531	0	
2.7580	-3.68916	1.70451	0	
2.7587	-1.25431	3.83515	0	
2.7593	-0.922289	8.72308	0	
2.7600	-3.68916	7.82069	0	
2.7607	-2.1766	4.46181	0	
2.7613	1.51255	4.16101	0	
2.7620	-0.627157	3.53435	0	
2.7627	-3.062	2.93276	0	
2.7633	0.590265	3.83515	0	
2.7640	4.53766	2.63196	0	
2.7647	4.53766	-0.426128	0	
2.7653	4.24253	-0.426128	0	
2.7660	5.75509	0.175464	0	
2.7667	5.16482	0.802122	0	
2.7673	0.590265	1.40371	0	
2.7680	-1.25431	0.175464	0	
2.7687	1.51255	-3.18342	0	
2.7693	2.39795	-3.78502	0	
2.7700	2.39795	-1.95517	0	
2.7707	3.32024	-2.85756	0	
2.7713	1.51255	-4.6874	0	
2.7720	-1.54945	-3.78502	0	
2.7727	-0.922289	-1.65438	0	
2.7733	-0.922289	-3.78502	0	
2.7740	-3.062	-6.51724	0	
2.7747	-3.68916	-5.61486	0	
2.7753	-2.47174	-3.78502	0	
2.7760	-3.062	-3.78502	0	
2.7767	-3.98429	-2.25597	0	
2.7773	-3.062	-0.125332	0	
2.7780	-0.332024	1.70451	0	
2.7787	2.39795	4.46181	0	
2.7793	1.51255	4.46181	0	
2.7800	-2.1766	2.93276	0	
2.7807	-4.27942	4.46181	0	
2.7813	-3.98429	5.36419	0	
2.7820	-3.062	3.53435	0	
2.7827	-4.61145	2.93276	0	
2.7833	-4.61145	5.0634	0	
2.7840	-2.1766	6.29165	0	
2.7847	-2.47174	5.36419	0	
2.7853	-4.61145	3.23356	0	
2.7860	-3.39402	1.10292	0	
2.7867	-4.27942	1.70451	0	
2.7873	-9.186	1.40371	0	
2.7880	-10.4034	-1.02772	0	
2.7887	-6.41913	-1.95517	0	
2.7893	-2.76687	-1.32852	0	
2.7900	0.885398	-2.85756	0	
2.7907	4.24253	-3.48422	0	
2.7913	7.30453	-1.95517	0	
2.7920	10.0345	-3.18342	0	
2.7927	9.11222	-4.6874	0	
2.7933	7.8948	-3.18342	0	
2.7940	9.73938	-3.48422	0	
2.7947	8.22682	-5.01327	0	
2.7953	2.39795	-3.48422	0	
2.7960	0.885398	-0.125332	0	
2.7967	4.53766	0.802122	0	
2.7973	5.45995	0.802122	0	
2.7980	2.72998	0.175464	0	
2.7987	-0.332024	-0.125332	0	
2.7993	-2.76687	0.802122	0	
2.8000	-3.98429	2.33117	0	
2.8007	-5.82887	4.46181	0	
2.8013	-5.53374	6.29165	0	
2.8020	-2.1766	6.29165	0	
2.8027	-0.627157	4.7626	0	
2.8033	-3.062	3.83515	0	
2.8040	-4.90658	3.23356	0	
2.8047	-4.27942	3.23356	0	
2.8053	-4.90658	3.83515	0	
2.8060	-5.20171	3.53435	0	
2.8067	-3.98429	3.23356	0	
2.8073	-2.1766	2.63196	0	
2.8080	-2.1766	1.70451	0	
2.8087	-1.84458	0.175464	0	
2.8093	-0.0368916	-1.95517	0	
2.8100	-1.25431	-3.78502	0	
2.8107	-3.98429	-4.38661	0	
2.8113	-3.062	-5.01327	0	
2.8120	-0.922289	-6.21645	0	
2.8127	0.295133	-5.61486	0	
2.8133	1.80769	-4.6874	0	
2.8140	4.24253	-5.01327	0	
2.8147	6.38224	-5.61486	0	
2.8153	8.52195	-3.78502	0	
2.8160	7.30453	1.40371	0	
2.8167	5.16482	3.23356	0	
2.8173	4.86969	-0.726923	0	
2.8180	3.9474	-3.78502	0	
2.8187	3.32024	-1.95517	0	
2.8193	4.86969	-0.426128	0	
2.8200	6.08711	-0.125332	0	
2.8207	4.24253	2.63196	0	
2.8213	2.39795	5.36419	0	
2.8220	2.39795	4.46181	0	
2.8227	2.39795	2.93276	0	
2.8233	-0.922289	2.63196	0	
2.8240	-5.20171	2.93276	0	
2.8247	-2.47174	2.63196	0	
2.8253	2.39795	1.70451	0	
2.8260	2.39795	0.802122	0	
2.8267	2.39795	-0.726923	0	
2.8273	3.9474	-2.55677	0	
2.8280	-2.76687	-3.78502	0	
2.8287	-12.5431	-3.78502	0	
2.8293	-11.3257	-4.38661	0	
2.8300	-3.98429	-3.78502	0	
2.8307	-0.332024	-3.78502	0	
2.8313	1.51255	-4.38661	0	
2.8320	2.72998	-3.18342	0	
2.8327	2.10282	-2.25597	0	
2.8333	0.590265	-4.6874	0	
2.8340	0.885398	-5.61486	0	
2.8347	0.885398	-2.85756	0	
2.8353	-0.332024	-1.02772	0	
2.8360	-1.54945	-1.95517	0	
2.8367	-1.54945	-2.25597	0	
2.8373	-4.27942	-2.55677	0	
2.8380	-8.26371	-1.95517	0	
2.8387	-6.75116	0.802122	0	
2.8393	-3.062	1.10292	0	
2.8400	-3.98429	0.175464	0	
2.8407	-3.98429	2.63196	0	
2.8413	-0.332024	5.99085	0	
2.8420	0.295133	5.36419	0	
2.8427	-1.25431	2.63196	0	
2.8433	-0.332024	2.63196	0	
2.8440	-2.1766	4.7626	0	
2.8447	-4.90658	3.83515	0	
2.8453	-4.27942	0.802122	0	
2.8460	-2.76687	-1.02772	0	
2.8467	-1.25431	-1.02772	0	
2.8473	-0.627157	-1.65438	0	
2.8480	-1.54945	-3.48422	0	
2.8487	-0.332024	-3.78502	0	
2.8493	4.24253	-3.48422	0	
2.8500	5.75509	-3.78502	0	
2.8507	5.16482	-4.08581	0	
2.8513	5.16482	-4.08581	0	
2.8520	5.16482	-4.6874	0	
2.8527	5.75509	-3.78502	0	
2.8533	6.08711	-0.726923	0	
2.8540	3.9474	-0.426128	0	
2.8547	3.9474	-2.55677	0	
2.8553	5.16482	-1.65438	0	
2.8560	1.51255	-0.125332	0	
2.8567	-0.627157	-1.32852	0	
2.8573	1.80769	-1.95517	0	
2.8580	1.80769	0.501327	0	
2.8587	-0.627157	1.70451	0	
2.8593	-1.25431	-0.125332	0	
2.8600	-1.25431	0.175464	0	
2.8607	-2.1766	3.53435	0	
2.8613	-3.062	4.46181	0	
2.8620	-3.062	3.53435	0	
2.8627	-2.1766	3.53435	0	
2.8633	-1.25431	3.53435	0	
2.8640	-2.76687	2.63196	0	
2.8647	-2.1766	1.40371	0	
2.8653	-1.25431	-0.726923	0	
2.8660	-3.39402	-0.726923	0	
2.8667	-5.20171	2.93276	0	
2.8673	-3.98429	2.63196	0	
2.8680	-1.84458	-1.95517	0	
2.8687	-0.332024	-2.85756	0	
2.8693	-0.0368916	-1.95517	0	
2.8700	0.590265	-4.38661	0	
2.8707	5.75509	-6.51724	0	
2.8713	10.9568	-6.51724	0	
2.8720	10.6617	-8.37215	0	
2.8727	8.81709	-11.1044	0	
2.8733	7.0094	-11.4052	0	
2.8740	5.16482	-9.27454	0	
2.8747	3.32024	-6.51724	0	
2.8753	2.39795	-5.61486	0	
2.8760	2.39795	-6.51724	0	
2.8767	3.32024	-5.01327	0	
2.8773	3.32024	-3.48422	0	
2.8780	1.51255	-2.85756	0	
2.8787	1.18053	-1.32852	0	
2.8793	1.51255	1.40371	0	
2.8800	0.590265	2.33117	0	
2.8807	0.295133	1.10292	0	
2.8813	0.590265	1.10292	0	
2.8820	-0.332024	2.00531	0	
2.8827	0.590265	1.40371	0	
2.8833	1.51255	-0.426128	0	
2.8840	-0.332024	-1.02772	0	
2.8847	-1.25431	-0.426128	0	
2.8853	0.295133	-0.125332	0	
2.8860	-0.627157	-0.726923	0	
2.8867	-1.54945	-3.48422	0	
2.8873	2.39795	-5.61486	0	
2.8880	6.08711	-5.31406	0	
2.8887	9.44424	-5.61486	0	
2.8893	14.3139	-5.91565	0	
2.8900	16.7488	-6.21645	0	
2.8907	15.2362	-8.37215	0	
2.8913	13.7237	-8.04629	0	
2.8920	12.4694	-4.6874	0	
2.8927	9.73938	-5.01327	0	
2.8933	7.8948	-7.1439	0	
2.8940	6.67738	-5.31406	0	
2.8947	4.24253	-4.38661	0	
2.8953	4.24253	-6.21645	0	
2.8960	3.9474	-6.51724	0	
2.8967	0.590265	-4.38661	0	
2.8973	-0.922289	-1.95517	0	
2.8980	-0.627157	-0.426128	0	
2.8987	-4.27942	-1.95517	0	
2.8993	-5.53374	-0.726923	0	
2.9000	-1.25431	3.53435	0	
2.9007	-0.0368916	2.93276	0	
2.9013	-1.25431	1.70451	0	
2.9020	0.590265	4.46181	0	
2.9027	0.590265	6.29165	0	
2.9033	-3.68916	4.46181	0	
2.9040	-7.63656	3.53435	0	
2.9047	-11.916	0.802122	0	
2.9053	-11.916	0.175464	0	
2.9060	-8.26371	2.63196	0	
2.9067	-7.04629	1.40371	0	
2.9073	-5.82887	-1.95517	0	
2.9080	-0.922289	-0.125332	0	
2.9087	-0.922289	1.70451	0	
2.9093	-4.90658	-1.95517	0	
2.9100	-1.84458	-2.85756	0	
2.9107	3.32024	-2.85756	0	
2.9113	2.10282	-4.6874	0	
2.9120	0.295133	-5.01327	0	
2.9127	2.39795	-3.18342	0	
2.9133	2.39795	-3.48422	0	
2.9140	1.51255	-3.78502	0	
2.9147	4.53766	-2.55677	0	
2.9153	4.86969	-1.95517	0	
2.9160	0.295133	-1.32852	0	
2.9167	-0.0368916	-1.02772	0	
2.9173	0.590265	-2.85756	0	
2.9180	-3.39402	-3.48422	0	
2.9187	-3.98429	1.40371	0	
2.9193	-2.1766	5.69006	0	
2.9200	-6.75116	3.83515	0	
2.9207	-8.55885	0.501327	0	
2.9213	-3.98429	1.70451	0	
2.9220	-4.27942	3.53435	0	
2.9227	-7.04629	3.23356	0	
2.9233	-4.27942	2.93276	0	
2.9240	-2.47174	4.46181	0	
2.9247	-5.82887	4.46181	0	
2.9253	-7.96858	2.63196	0	
2.9260	-7.96858	2.33117	0	
2.9267	-7.34142	2.93276	0	
2.9273	-4.90658	3.83515	0	
2.9280	-1.25431	3.53435	0	
2.9287	0.885398	0.175464	0	
2.9293	1.51255	-2.55677	0	
2.9300	2.39795	-1.95517	0	
2.9307	3.02511	-4.08581	0	
2.9313	2.39795	-7.4447	0	
2.9320	2.72998	-4.38661	0	
2.9327	4.24253	-0.726923	0	
2.9333	3.9474	-1.95517	0	
2.9340	2.39795	-3.48422	0	
2.9347	0.590265	-2.25597	0	
2.9353	-2.1766	-1.02772	0	
2.9360	-6.41913	-0.125332	0	
2.9367	-8.55885	-0.125332	0	
2.9373	-4.27942	1.10292	0	
2.9380	0.590265	3.83515	0	
2.9387	-2.1766	4.46181	0	
2.9393	-8.26371	5.69006	0	
2.9400	-9.48114	9.34974	0	
2.9407	-9.48114	9.34974	0	
2.9413	-8.89087	7.19404	0	
2.9420	-6.41913	7.5199	0	
2.9427	-6.75116	5.0634	0	
2.9433	-9.48114	3.23356	0	
