0.0007	-1.41877	-2.75504	0	
0.0013	-1.71572	-5.80228	0	
0.0020	-0.49492	-5.19701	0	
0.0027	1.02283	-3.96559	0	
0.0033	2.83754	-4.88394	0	
0.0040	4.05834	-7.63898	0	
0.0047	4.05834	-5.80228	0	
0.0053	4.05834	-3.04724	0	
0.0060	2.83754	-3.04724	0	
0.0067	-2.63957	-3.96559	0	
0.0073	-5.37813	-3.04724	0	
0.0080	-5.08117	-0.918347	0	
0.0087	-5.08117	-0.313073	0	
0.0093	-2.93652	-2.1289	0	
0.0100	-0.49492	-3.04724	0	
0.0107	-1.12182	0.605274	0	
0.0113	-2.63957	3.96559	0	
0.0120	-3.56342	4.57086	0	
0.0127	-3.26647	6.09449	0	
0.0133	0.0989839	6.09449	0	
0.0140	1.94668	3.65252	0	
0.0147	-0.49492	3.65252	0	
0.0153	-1.12182	4.27866	0	
0.0160	-0.824866	2.44197	0	
0.0167	-2.34262	1.21055	0	
0.0173	-1.41877	2.1289	0	
0.0180	0.0989839	2.44197	0	
0.0187	-0.824866	3.36032	0	
0.0193	0.725882	5.17614	0	
0.0200	0.725882	3.65252	0	
0.0207	-2.63957	-0.313073	0	
0.0213	-2.34262	-3.04724	0	
0.0220	1.02283	-3.96559	0	
0.0227	0.0989839	-4.88394	0	
0.0233	0.0989839	-5.19701	0	
0.0240	1.02283	-4.27866	0	
0.0247	-0.824866	-4.57086	0	
0.0253	-0.197968	-6.72063	0	
0.0260	1.94668	-6.40756	0	
0.0267	1.61674	-3.96559	0	
0.0273	2.54059	-3.96559	0	
0.0280	4.98219	-3.67339	0	
0.0287	3.76139	-1.52362	0	
0.0293	1.02283	-0.605274	0	
0.0300	0.0989839	-0.313073	0	
0.0307	-0.197968	4.27866	0	
0.0313	-0.824866	7.93118	0	
0.0320	-2.34262	8.24425	0	
0.0327	-5.37813	10.0601	0	
0.0333	-6.59893	10.6862	0	
0.0340	-6.30198	5.80228	0	
0.0347	-6.30198	6.09449	0	
0.0353	-5.70807	10.9784	0	
0.0360	-4.15732	9.76787	0	
0.0367	-0.824866	4.88394	0	
0.0373	2.83754	3.65252	0	
0.0380	3.76139	2.75504	0	
0.0387	4.38829	2.44197	0	
0.0393	5.90604	3.36032	0	
0.0400	5.60909	1.21055	0	
0.0407	3.46444	-1.83669	0	
0.0413	3.46444	-2.75504	0	
0.0420	4.98219	-5.80228	0	
0.0427	6.49994	-10.0809	0	
0.0433	7.12684	-7.63898	0	
0.0440	5.90604	-5.80228	0	
0.0447	4.38829	-8.84953	0	
0.0453	3.46444	-7.63898	0	
0.0460	3.76139	-2.1289	0	
0.0467	5.60909	-2.1289	0	
0.0473	5.27914	-4.88394	0	
0.0480	1.94668	-1.83669	0	
0.0487	2.83754	2.1289	0	
0.0493	5.90604	0.605274	0	
0.0500	4.38829	0.918347	0	
0.0507	1.94668	4.27866	0	
0.0513	2.54059	5.17614	0	
0.0520	0.725882	4.88394	0	
0.0527	-2.63957	6.09449	0	
0.0533	-3.56342	7.93118	0	
0.0540	-3.86037	7.93118	0	
0.0547	-5.70807	5.17614	0	
0.0553	-5.37813	3.36032	0	
0.0560	-2.63957	4.27866	0	
0.0567	-0.824866	5.17614	0	
0.0573	-0.197968	3.65252	0	
0.0580	0.395936	0.605274	0	
0.0587	0.725882	-1.23142	0	
0.0593	2.54059	-0.313073	0	
0.0600	5.60909	0.605274	0	
0.0607	7.42379	-0.313073	0	
0.0613	8.05069	-3.04724	0	
0.0620	10.1623	-4.88394	0	
0.0627	11.0862	-5.48921	0	
0.0633	9.8654	-6.72063	0	
0.0640	10.1623	-9.4548	0	
0.0647	11.7131	-9.76787	0	
0.0653	12.01	-6.72063	0	
0.0660	11.0862	-4.88394	0	
0.0667	9.56845	-6.72063	0	
0.0673	10.1623	-7.32591	0	
0.0680	10.1623	-5.48921	0	
0.0687	7.42379	-4.88394	0	
0.0693	4.68524	-4.57086	0	
0.0700	4.38829	-2.1289	0	
0.0707	4.68524	2.44197	0	
0.0713	4.38829	4.57086	0	
0.0720	2.83754	2.75504	0	
0.0727	0.0989839	2.1289	0	
0.0733	-0.197968	4.57086	0	
0.0740	1.02283	6.40756	0	
0.0747	0.0989839	5.80228	0	
0.0753	-0.824866	5.48921	0	
0.0760	-1.71572	4.57086	0	
0.0767	-2.93652	1.52362	0	
0.0773	-3.86037	0.918347	0	
0.0780	-3.86037	2.44197	0	
0.0787	-2.34262	1.52362	0	
0.0793	-0.197968	-0.313073	0	
0.0800	-1.41877	1.21055	0	
0.0807	-4.48727	-0.313073	0	
0.0813	-2.63957	-6.72063	0	
0.0820	1.31979	-8.53645	0	
0.0827	4.38829	-5.80228	0	
0.0833	7.42379	-5.80228	0	
0.0840	9.27149	-7.63898	0	
0.0847	7.72075	-8.53645	0	
0.0853	7.72075	-8.24425	0	
0.0860	7.72075	-6.72063	0	
0.0867	4.68524	-6.40756	0	
0.0873	3.76139	-7.93118	0	
0.0880	5.60909	-8.53645	0	
0.0887	5.60909	-7.01283	0	
0.0893	3.76139	-5.19701	0	
0.0900	2.83754	-4.57086	0	
0.0907	2.24364	-3.96559	0	
0.0913	2.83754	-1.23142	0	
0.0920	2.83754	3.36032	0	
0.0927	0.0989839	4.57086	0	
0.0933	-2.34262	3.36032	0	
0.0940	1.02283	2.1289	0	
0.0947	3.16749	1.52362	0	
0.0953	1.02283	3.04724	0	
0.0960	0.0989839	5.17614	0	
0.0967	0.395936	3.04724	0	
0.0973	-0.49492	0.313073	0	
0.0980	-0.49492	1.52362	0	
0.0987	0.725882	3.36032	0	
0.0993	0.395936	1.21055	0	
0.1000	1.02283	-2.44197	0	
0.1007	2.24364	-4.27866	0	
0.1013	1.02283	-4.88394	0	
0.1020	1.94668	-4.88394	0	
0.1027	3.76139	-4.27866	0	
0.1033	1.94668	-4.88394	0	
0.1040	0.395936	-7.63898	0	
0.1047	1.31979	-9.4548	0	
0.1053	1.02283	-8.53645	0	
0.1060	1.31979	-8.24425	0	
0.1067	1.94668	-9.1626	0	
0.1073	-2.34262	-4.88394	0	
0.1080	-3.86037	-0.313073	0	
0.1087	1.02283	-3.04724	0	
0.1093	2.24364	-5.48921	0	
0.1100	-2.04567	-1.52362	0	
0.1107	-5.37813	3.04724	0	
0.1113	-7.22583	3.96559	0	
0.1120	-10.2613	6.09449	0	
0.1127	-11.4821	8.53645	0	
0.1133	-9.04053	6.09449	0	
0.1140	-7.22583	4.88394	0	
0.1147	-7.22583	7.93118	0	
0.1153	-6.30198	7.01283	0	
0.1160	-4.15732	3.04724	0	
0.1167	-3.26647	2.44197	0	
0.1173	-1.41877	3.65252	0	
0.1180	2.24364	3.36032	0	
0.1187	2.83754	3.36032	0	
0.1193	1.61674	3.36032	0	
0.1200	3.46444	1.52362	0	
0.1207	3.76139	-1.23142	0	
0.1213	2.54059	-3.67339	0	
0.1220	4.98219	-4.88394	0	
0.1227	8.34764	-6.72063	0	
0.1233	6.20299	-9.1626	0	
0.1240	4.68524	-9.1626	0	
0.1247	6.49994	-7.63898	0	
0.1253	5.27914	-7.01283	0	
0.1260	2.83754	-5.48921	0	
0.1267	2.83754	-3.96559	0	
0.1273	3.76139	-3.96559	0	
0.1280	3.16749	-3.04724	0	
0.1287	2.54059	-1.83669	0	
0.1293	1.94668	-3.67339	0	
0.1300	1.02283	-2.1289	0	
0.1307	-1.71572	3.36032	0	
0.1313	-4.78422	6.40756	0	
0.1320	-7.22583	7.01283	0	
0.1327	-8.14968	7.93118	0	
0.1333	-6.30198	7.93118	0	
0.1340	-3.86037	8.84953	0	
0.1347	-4.48727	7.01283	0	
0.1353	-6.92887	4.27866	0	
0.1360	-7.22583	5.17614	0	
0.1367	-6.30198	5.17614	0	
0.1373	-3.56342	2.75504	0	
0.1380	-1.71572	2.75504	0	
0.1387	-1.71572	2.1289	0	
0.1393	-0.824866	-0.918347	0	
0.1400	0.395936	-1.23142	0	
0.1407	1.94668	-1.23142	0	
0.1413	3.76139	-3.96559	0	
0.1420	6.49994	-3.96559	0	
0.1427	8.94155	-5.80228	0	
0.1433	10.4923	-9.76787	0	
0.1440	8.05069	-8.53645	0	
0.1447	3.16749	-4.88394	0	
0.1453	2.83754	-5.80228	0	
0.1460	4.98219	-6.40756	0	
0.1467	3.16749	-4.88394	0	
0.1473	1.94668	-3.96559	0	
0.1480	2.54059	-3.96559	0	
0.1487	1.94668	-3.04724	0	
0.1493	0.0989839	-1.23142	0	
0.1500	-1.71572	-0.313073	0	
0.1507	-2.93652	2.1289	0	
0.1513	-3.26647	4.88394	0	
0.1520	-2.63957	5.17614	0	
0.1527	-2.34262	5.17614	0	
0.1533	-2.93652	7.01283	0	
0.1540	-2.34262	6.40756	0	
0.1547	-1.41877	4.88394	0	
0.1553	-2.93652	5.48921	0	
0.1560	-6.30198	5.17614	0	
0.1567	-7.22583	3.04724	0	
0.1573	-6.00502	2.75504	0	
0.1580	-6.00502	1.83669	0	
0.1587	-6.30198	-0.313073	0	
0.1593	-5.37813	0.605274	0	
0.1600	-4.15732	0.918347	0	
0.1607	-5.08117	-2.1289	0	
0.1613	-5.37813	-3.67339	0	
0.1620	-1.41877	-3.67339	0	
0.1627	1.94668	-5.80228	0	
0.1633	1.31979	-8.24425	0	
0.1640	1.02283	-6.40756	0	
0.1647	2.83754	-4.27866	0	
0.1653	3.16749	-4.88394	0	
0.1660	1.02283	-3.96559	0	
0.1667	0.725882	-0.605274	0	
0.1673	0.725882	-0.918347	0	
0.1680	-1.71572	-3.04724	0	
0.1687	-3.26647	-2.44197	0	
0.1693	-2.63957	-2.1289	0	
0.1700	-1.41877	-3.04724	0	
0.1707	-0.824866	-0.605274	0	
0.1713	-2.34262	2.44197	0	
0.1720	-3.86037	2.75504	0	
0.1727	-2.63957	3.04724	0	
0.1733	-1.71572	3.36032	0	
0.1740	-2.93652	3.36032	0	
0.1747	-1.71572	4.88394	0	
0.1753	0.0989839	5.17614	0	
0.1760	-2.63957	3.36032	0	
0.1767	-3.56342	4.27866	0	
0.1773	-1.71572	5.17614	0	
0.1780	-2.63957	1.21055	0	
0.1787	-2.63957	-2.1289	0	
0.1793	0.725882	-0.313073	0	
0.1800	1.94668	0.605274	0	
0.1807	0.395936	-2.75504	0	
0.1813	1.61674	-6.11536	0	
0.1820	3.16749	-8.24425	0	
0.1827	3.46444	-9.1626	0	
0.1833	2.83754	-7.63898	0	
0.1840	1.61674	-4.27866	0	
0.1847	1.02283	-3.96559	0	
0.1853	2.24364	-5.80228	0	
0.1860	3.16749	-6.72063	0	
0.1867	3.76139	-5.19701	0	
0.1873	3.46444	-4.88394	0	
0.1880	1.02283	-3.96559	0	
0.1887	-1.41877	-2.1289	0	
0.1893	-0.197968	-2.1289	0	
0.1900	1.94668	-3.96559	0	
0.1907	1.31979	-3.04724	0	
0.1913	-1.71572	0.918347	0	
0.1920	-3.56342	3.36032	0	
0.1927	-3.86037	4.88394	0	
0.1933	-4.78422	6.09449	0	
0.1940	-4.48727	6.72063	0	
0.1947	-4.48727	6.09449	0	
0.1953	-5.70807	5.17614	0	
0.1960	-4.48727	4.57086	0	
0.1967	-1.71572	4.27866	0	
0.1973	-3.56342	3.36032	0	
0.1980	-4.15732	0.918347	0	
0.1987	0.725882	0.313073	0	
0.1993	2.83754	0.605274	0	
0.2000	2.24364	-0.313073	0	
0.2007	4.68524	-1.23142	0	
0.2013	6.20299	-0.313073	0	
0.2020	4.68524	-1.52362	0	
0.2027	6.49994	-3.04724	0	
0.2033	6.49994	-2.44197	0	
0.2040	2.83754	-3.96559	0	
0.2047	2.83754	-6.72063	0	
0.2053	6.20299	-4.57086	0	
0.2060	5.60909	-2.1289	0	
0.2067	3.46444	-2.1289	0	
0.2073	1.94668	-1.23142	0	
0.2080	-1.71572	-0.605274	0	
0.2087	-4.48727	-1.23142	0	
0.2093	-2.63957	-0.918347	0	
0.2100	-0.49492	0.605274	0	
0.2107	0.725882	1.83669	0	
0.2113	0.395936	4.27866	0	
0.2120	-0.824866	7.01283	0	
0.2127	-3.26647	6.72063	0	
0.2133	-5.37813	5.17614	0	
0.2140	-5.37813	6.09449	0	
0.2147	-2.63957	8.84953	0	
0.2153	-2.63957	10.6862	0	
0.2160	-5.08117	10.6862	0	
0.2167	-2.63957	8.84953	0	
0.2173	1.61674	5.17614	0	
0.2180	1.94668	0.605274	0	
0.2187	1.31979	0	0	
0.2193	1.94668	3.36032	0	
0.2200	2.24364	3.36032	0	
0.2207	2.83754	0.605274	0	
0.2213	2.24364	0	0	
0.2220	0.725882	-0.313073	0	
0.2227	2.83754	-3.36032	0	
0.2233	2.83754	-3.96559	0	
0.2240	0.0989839	-2.1289	0	
0.2247	1.94668	-3.04724	0	
0.2253	4.98219	-5.80228	0	
0.2260	3.46444	-4.88394	0	
0.2267	1.61674	-2.75504	0	
0.2273	0.725882	-2.1289	0	
0.2280	-1.71572	-1.23142	0	
0.2287	-1.71572	0.605274	0	
0.2293	-0.824866	2.44197	0	
0.2300	-2.93652	3.04724	0	
0.2307	-4.78422	3.04724	0	
0.2313	-4.48727	4.27866	0	
0.2320	-6.00502	5.17614	0	
0.2327	-6.59893	5.17614	0	
0.2333	-6.00502	7.93118	0	
0.2340	-8.44663	10.9784	0	
0.2347	-10.8882	8.53645	0	
0.2353	-7.22583	6.09449	0	
0.2360	-2.93652	8.53645	0	
0.2367	-4.48727	10.3731	0	
0.2373	-6.59893	7.61811	0	
0.2380	-5.37813	5.48921	0	
0.2387	-3.26647	4.88394	0	
0.2393	-2.63957	3.96559	0	
0.2400	-3.56342	3.04724	0	
0.2407	-2.93652	0.918347	0	
0.2413	1.31979	-3.04724	0	
0.2420	2.83754	-6.11536	0	
0.2427	0.725882	-6.40756	0	
0.2433	1.94668	-4.88394	0	
0.2440	4.38829	-3.67339	0	
0.2447	3.16749	-3.96559	0	
0.2453	4.38829	-6.11536	0	
0.2460	7.12684	-4.88394	0	
0.2467	4.68524	-3.04724	0	
0.2473	1.94668	-4.27866	0	
0.2480	3.16749	-5.48921	0	
0.2487	2.54059	-1.23142	0	
0.2493	0.0989839	2.75504	0	
0.2500	0.0989839	2.44197	0	
0.2507	-2.04567	4.88394	0	
0.2513	-5.70807	8.53645	0	
0.2520	-6.00502	7.32591	0	
0.2527	-4.48727	5.80228	0	
0.2533	-4.78422	7.01283	0	
0.2540	-5.37813	5.48921	0	
0.2547	-6.00502	3.04724	0	
0.2553	-6.92887	4.88394	0	
0.2560	-5.70807	5.80228	0	
0.2567	-2.93652	3.96559	0	
0.2573	-2.63957	4.27866	0	
0.2580	-3.26647	3.65252	0	
0.2587	-2.34262	0	0	
0.2593	-1.71572	-0.918347	0	
0.2600	-1.12182	-0.313073	0	
0.2607	1.31979	-2.1289	0	
0.2613	3.16749	-3.36032	0	
0.2620	2.83754	-3.96559	0	
0.2627	3.46444	-5.48921	0	
0.2633	3.76139	-5.80228	0	
0.2640	2.83754	-5.19701	0	
0.2647	2.83754	-5.48921	0	
0.2653	4.68524	-5.19701	0	
0.2660	4.98219	-4.88394	0	
0.2667	3.76139	-5.19701	0	
0.2673	4.38829	-4.88394	0	
0.2680	4.98219	-5.48921	0	
0.2687	2.83754	-5.48921	0	
0.2693	-0.49492	-3.96559	0	
0.2700	-0.197968	-2.44197	0	
0.2707	2.54059	-1.52362	0	
0.2713	1.61674	1.52362	0	
0.2720	-1.12182	4.27866	0	
0.2727	-0.197968	4.27866	0	
0.2733	1.61674	5.80228	0	
0.2740	0.0989839	6.72063	0	
0.2747	-1.71572	4.27866	0	
0.2753	-1.71572	3.04724	0	
0.2760	-2.34262	4.57086	0	
0.2767	-2.63957	4.88394	0	
0.2773	-2.04567	1.52362	0	
0.2780	-2.04567	-1.23142	0	
0.2787	-2.63957	-0.918347	0	
0.2793	-3.26647	0	0	
0.2800	-4.15732	-1.23142	0	
0.2807	-5.37813	-3.96559	0	
0.2813	-4.78422	-5.80228	0	
0.2820	-2.63957	-5.48921	0	
0.2827	-2.04567	-6.11536	0	
0.2833	0.0989839	-6.72063	0	
0.2840	2.54059	-5.80228	0	
0.2847	2.24364	-4.57086	0	
0.2853	2.24364	-4.27866	0	
0.2860	5.27914	-5.48921	0	
0.2867	7.72075	-5.80228	0	
0.2873	6.49994	-3.96559	0	
0.2880	4.98219	-3.04724	0	
0.2887	4.38829	-4.57086	0	
0.2893	2.54059	-5.48921	0	
0.2900	-0.49492	-2.1289	0	
0.2907	-2.93652	1.83669	0	
0.2913	-4.78422	3.04724	0	
0.2920	-5.37813	3.96559	0	
0.2927	-3.56342	4.27866	0	
0.2933	-2.04567	2.44197	0	
0.2940	-4.48727	1.83669	0	
0.2947	-8.14968	3.96559	0	
0.2953	-6.92887	6.09449	0	
0.2960	-2.93652	5.48921	0	
0.2967	0.0989839	3.65252	0	
0.2973	2.24364	3.65252	0	
0.2980	3.46444	3.36032	0	
0.2987	1.61674	1.52362	0	
0.2993	-0.824866	2.1289	0	
0.3000	1.61674	2.1289	0	
0.3007	5.90604	-3.04724	0	
0.3013	8.34764	-5.80228	0	
0.3020	8.6446	-3.96559	0	
0.3027	9.27149	-4.88394	0	
0.3033	10.1623	-8.53645	0	
0.3040	8.34764	-8.53645	0	
0.3047	7.12684	-7.93118	0	
0.3053	7.72075	-9.4548	0	
0.3060	8.6446	-8.53645	0	
0.3067	8.34764	-7.01283	0	
0.3073	7.42379	-6.11536	0	
0.3080	7.12684	-4.88394	0	
0.3087	7.42379	-3.96559	0	
0.3093	8.34764	-3.36032	0	
0.3100	8.05069	-1.52362	0	
0.3107	5.27914	-0.605274	0	
0.3113	1.94668	0.313073	0	
0.3120	0.0989839	5.17614	0	
0.3127	-0.824866	9.1626	0	
0.3133	-0.824866	6.72063	0	
0.3140	-0.824866	3.96559	0	
0.3147	0.0989839	3.65252	0	
0.3153	1.02283	3.65252	0	
0.3160	-0.824866	4.57086	0	
0.3167	-2.63957	4.57086	0	
0.3173	-2.63957	0.605274	0	
0.3180	-1.41877	-0.605274	0	
0.3187	0.0989839	3.36032	0	
0.3193	1.31979	3.65252	0	
0.3200	0.0989839	0.605274	0	
0.3207	-1.41877	-1.52362	0	
0.3213	2.24364	-3.36032	0	
0.3220	6.49994	-5.48921	0	
0.3227	6.20299	-5.80228	0	
0.3233	4.68524	-6.11536	0	
0.3240	4.98219	-7.01283	0	
0.3247	5.60909	-6.72063	0	
0.3253	4.68524	-6.40756	0	
0.3260	3.16749	-6.40756	0	
0.3267	2.83754	-5.48921	0	
0.3273	2.83754	-4.88394	0	
0.3280	0.0989839	-3.96559	0	
0.3287	-2.34262	-1.83669	0	
0.3293	-1.71572	0.605274	0	
0.3300	-2.63957	0.605274	0	
0.3307	-5.08117	0.918347	0	
0.3313	-4.15732	3.04724	0	
0.3320	-3.56342	6.09449	0	
0.3327	-6.30198	8.53645	0	
0.3333	-7.52278	7.93118	0	
0.3340	-5.37813	6.09449	0	
0.3347	-2.63957	7.93118	0	
0.3353	-3.56342	9.76787	0	
0.3360	-6.30198	7.01283	0	
0.3367	-7.22583	3.96559	0	
0.3373	-7.52278	3.65252	0	
0.3380	-6.92887	2.44197	0	
0.3387	-3.56342	1.21055	0	
0.3393	-2.34262	0.918347	0	
0.3400	-4.15732	0.918347	0	
0.3407	-3.56342	0	0	
0.3413	-1.41877	-2.1289	0	
0.3420	-1.12182	-5.19701	0	
0.3427	-0.197968	-6.72063	0	
0.3433	1.94668	-6.40756	0	
0.3440	2.83754	-7.01283	0	
0.3447	4.68524	-8.24425	0	
0.3453	6.49994	-8.53645	0	
0.3460	5.60909	-6.72063	0	
0.3467	4.98219	-3.96559	0	
0.3473	4.98219	-3.96559	0	
0.3480	2.83754	-5.80228	0	
0.3487	2.24364	-3.96559	0	
0.3493	2.54059	-0.313073	0	
0.3500	1.61674	-0.313073	0	
0.3507	1.02283	-0.918347	0	
0.3513	0.0989839	0.918347	0	
0.3520	-2.04567	3.36032	0	
0.3527	-3.26647	4.57086	0	
0.3533	-4.15732	4.57086	0	
0.3540	-5.70807	4.57086	0	
0.3547	-6.00502	6.09449	0	
0.3553	-4.48727	7.01283	0	
0.3560	-2.63957	4.88394	0	
0.3567	-0.824866	4.27866	0	
0.3573	-1.12182	7.61811	0	
0.3580	-3.56342	5.80228	0	
0.3587	-2.93652	0.313073	0	
0.3593	-1.71572	0.313073	0	
0.3600	-3.26647	2.1289	0	
0.3607	-2.34262	-1.52362	0	
0.3613	1.94668	-3.96559	0	
0.3620	3.16749	-3.04724	0	
0.3627	1.02283	-3.96559	0	
0.3633	-0.824866	-5.80228	0	
0.3640	0.0989839	-4.88394	0	
0.3647	2.54059	-4.88394	0	
0.3653	2.24364	-4.88394	0	
0.3660	0.0989839	-4.88394	0	
0.3667	-1.12182	-5.80228	0	
0.3673	-1.41877	-6.11536	0	
0.3680	-3.26647	-4.57086	0	
0.3687	-4.15732	-3.67339	0	
0.3693	-2.93652	-1.83669	0	
0.3700	-3.26647	0.605274	0	
0.3707	-3.86037	0.605274	0	
0.3713	-2.93652	0.605274	0	
0.3720	-2.93652	2.44197	0	
0.3727	-3.86037	3.96559	0	
0.3733	-4.48727	4.27866	0	
0.3740	-4.15732	3.96559	0	
0.3747	-2.93652	3.65252	0	
0.3753	-1.71572	3.36032	0	
0.3760	-0.197968	2.44197	0	
0.3767	0.725882	1.52362	0	
0.3773	0.0989839	3.36032	0	
0.3780	-0.824866	4.88394	0	
0.3787	-0.197968	1.52362	0	
0.3793	0.395936	-0.918347	0	
0.3800	1.94668	0.605274	0	
0.3807	4.68524	0.313073	0	
0.3813	4.38829	-3.04724	0	
0.3820	2.83754	-4.57086	0	
0.3827	4.98219	-4.88394	0	
0.3833	7.12684	-5.48921	0	
0.3840	3.76139	-4.88394	0	
0.3847	1.94668	-3.36032	0	
0.3853	3.16749	-3.04724	0	
0.3860	1.94668	-3.96559	0	
0.3867	-0.197968	-5.19701	0	
0.3873	-0.197968	-6.40756	0	
0.3880	-2.04567	-3.96559	0	
0.3887	-3.56342	-1.52362	0	
0.3893	-1.41877	-1.52362	0	
0.3900	-0.49492	-0.918347	0	
0.3907	-3.86037	0.313073	0	
0.3913	-7.52278	-0.313073	0	
0.3920	-8.14968	1.52362	0	
0.3927	-6.30198	5.48921	0	
0.3933	-6.30198	6.09449	0	
0.3940	-8.44663	6.09449	0	
0.3947	-8.74358	7.61811	0	
0.3953	-5.37813	6.72063	0	
0.3960	-3.86037	4.88394	0	
0.3967	-5.37813	4.27866	0	
0.3973	-3.26647	2.75504	0	
0.3980	0.0989839	0.605274	0	
0.3987	-1.12182	1.21055	0	
0.3993	-2.93652	1.83669	0	
0.4000	-1.71572	0.605274	0	
0.4007	0.0989839	-1.23142	0	
0.4013	0.725882	-2.44197	0	
0.4020	1.94668	-3.36032	0	
0.4027	1.94668	-3.96559	0	
0.4033	0.0989839	-4.88394	0	
0.4040	-1.12182	-5.80228	0	
0.4047	-1.12182	-4.88394	0	
0.4053	-1.41877	-2.44197	0	
0.4060	-2.63957	-0.918347	0	
0.4067	-5.37813	-1.23142	0	
0.4073	-7.52278	-0.605274	0	
0.4080	-6.92887	0.605274	0	
0.4087	-2.34262	0	0	
0.4093	1.94668	-0.313073	0	
0.4100	2.54059	0.605274	0	
0.4107	0.725882	1.83669	0	
0.4113	1.02283	3.96559	0	
0.4120	2.83754	6.40756	0	
0.4127	2.83754	6.40756	0	
0.4133	1.94668	4.27866	0	
0.4140	2.83754	3.96559	0	
0.4147	3.46444	6.09449	0	
0.4153	1.02283	7.01283	0	
0.4160	1.02283	5.80228	0	
0.4167	3.76139	6.09449	0	
0.4173	3.46444	7.32591	0	
0.4180	2.83754	5.48921	0	
0.4187	5.60909	2.75504	0	
0.4193	5.27914	3.36032	0	
0.4200	2.83754	3.36032	0	
0.4207	5.60909	1.83669	0	
0.4213	8.94155	0.313073	0	
0.4220	6.82989	-3.36032	0	
0.4227	6.82989	-6.11536	0	
0.4233	8.34764	-4.88394	0	
0.4240	6.20299	-3.04724	0	
0.4247	4.38829	-5.48921	0	
0.4253	2.83754	-5.19701	0	
0.4260	-0.824866	-1.23142	0	
0.4267	-2.63957	-0.313073	0	
0.4273	-1.71572	-3.67339	0	
0.4280	-2.04567	-2.1289	0	
0.4287	-2.93652	2.75504	0	
0.4293	-2.93652	3.96559	0	
0.4300	-3.56342	3.36032	0	
0.4307	-3.26647	5.17614	0	
0.4313	-4.15732	7.32591	0	
0.4320	-8.14968	8.24425	0	
0.4327	-10.5913	9.76787	0	
0.4333	-9.66743	11.6046	0	
0.4340	-9.37048	11.8968	0	
0.4347	-10.2613	10.9784	0	
0.4353	-7.81973	9.76787	0	
0.4360	-2.34262	7.93118	0	
0.4367	0.725882	5.17614	0	
0.4373	0.725882	4.27866	0	
0.4380	1.94668	4.88394	0	
0.4387	2.83754	2.44197	0	
0.4393	3.46444	-0.313073	0	
0.4400	4.05834	0.918347	0	
0.4407	5.60909	1.21055	0	
0.4413	6.49994	-0.918347	0	
0.4420	8.05069	-1.23142	0	
0.4427	9.8654	-1.83669	0	
0.4433	9.27149	-3.04724	0	
0.4440	9.27149	-2.75504	0	
0.4447	10.1623	-3.36032	0	
0.4453	10.1623	-6.72063	0	
0.4460	7.42379	-6.11536	0	
0.4467	4.38829	-1.23142	0	
0.4473	3.76139	0	0	
0.4480	4.98219	-1.52362	0	
0.4487	2.83754	-1.23142	0	
0.4493	-2.34262	-1.23142	0	
0.4500	-3.56342	-0.313073	0	
0.4507	-1.12182	3.36032	0	
0.4513	-2.63957	4.57086	0	
0.4520	-4.48727	3.65252	0	
0.4527	-2.04567	5.80228	0	
0.4533	-0.824866	6.72063	0	
0.4540	-4.48727	3.96559	0	
0.4547	-7.22583	4.27866	0	
0.4553	-6.59893	6.09449	0	
0.4560	-5.08117	4.27866	0	
0.4567	-2.63957	2.44197	0	
0.4573	1.61674	2.44197	0	
0.4580	2.83754	1.21055	0	
0.4587	-0.197968	-0.605274	0	
0.4593	-0.824866	-1.23142	0	
0.4600	1.94668	-3.36032	0	
0.4607	1.94668	-5.80228	0	
0.4613	2.83754	-6.72063	0	
0.4620	5.27914	-7.63898	0	
0.4627	5.60909	-8.53645	0	
0.4633	6.49994	-9.4548	0	
0.4640	7.42379	-11.2915	0	
0.4647	3.46444	-12.2098	0	
0.4653	1.02283	-10.3731	0	
0.4660	4.38829	-9.4548	0	
0.4667	5.60909	-11.2915	0	
0.4673	3.76139	-10.6862	0	
0.4680	3.16749	-8.53645	0	
0.4687	3.46444	-8.53645	0	
0.4693	4.68524	-8.53645	0	
0.4700	6.82989	-6.40756	0	
0.4707	6.82989	-5.80228	0	
0.4713	6.20299	-6.40756	0	
0.4720	4.68524	-4.57086	0	
0.4727	0.0989839	-3.04724	0	
0.4733	-0.824866	-3.04724	0	
0.4740	4.38829	-3.04724	0	
0.4747	6.49994	-3.04724	0	
0.4753	6.49994	-3.96559	0	
0.4760	7.72075	-3.96559	0	
0.4767	8.6446	-3.96559	0	
0.4773	9.27149	-6.40756	0	
0.4780	9.27149	-6.72063	0	
0.4787	6.49994	-3.96559	0	
0.4793	5.60909	-4.57086	0	
0.4800	8.34764	-9.76787	0	
0.4807	9.27149	-12.2098	0	
0.4813	8.34764	-12.8151	0	
0.4820	10.4923	-14.9649	0	
0.4827	12.01	-16.4885	0	
0.4833	10.1623	-14.6518	0	
0.4840	8.05069	-13.4204	0	
0.4847	8.34764	-16.4885	0	
0.4853	9.56845	-19.5357	0	
0.4860	7.12684	-18.6174	0	
0.4867	5.60909	-15.2571	0	
0.4873	8.34764	-15.5702	0	
0.4880	8.05069	-15.8624	0	
0.4887	4.68524	-13.1282	0	
0.4893	6.49994	-10.3731	0	
0.4900	9.27149	-10.0809	0	
0.4907	6.49994	-9.4548	0	
0.4913	3.76139	-8.53645	0	
0.4920	3.46444	-7.32591	0	
0.4927	2.24364	-4.57086	0	
0.4933	3.46444	-3.04724	0	
0.4940	4.98219	-4.27866	0	
0.4947	1.61674	-5.19701	0	
0.4953	-0.824866	-3.96559	0	
0.4960	2.54059	-4.27866	0	
0.4967	2.83754	-5.80228	0	
0.4973	1.31979	-5.19701	0	
0.4980	2.83754	-4.88394	0	
0.4987	2.54059	-5.80228	0	
0.4993	-0.824866	-6.72063	0	
0.5000	0.0989839	-6.72063	0	
0.5007	2.54059	-7.32591	0	
0.5013	3.46444	-9.4548	0	
0.5020	7.12684	-10.9784	0	
0.5027	10.1623	-11.6046	0	
0.5033	8.6446	-12.2098	0	
0.5040	8.6446	-13.1282	0	
0.5047	11.0862	-14.0465	0	
0.5053	10.1623	-14.9649	0	
0.5060	6.82989	-12.5229	0	
0.5067	4.05834	-8.53645	0	
0.5073	2.54059	-8.24425	0	
0.5080	3.46444	-10.3731	0	
0.5087	6.82989	-8.84953	0	
0.5093	7.42379	-6.11536	0	
0.5100	5.90604	-6.40756	0	
0.5107	3.46444	-4.57086	0	
0.5113	-1.71572	0	0	
0.5120	-4.48727	2.1289	0	
0.5127	-1.12182	4.57086	0	
0.5133	0.395936	8.53645	0	
0.5140	-1.71572	7.01283	0	
0.5147	-1.12182	4.57086	0	
0.5153	-0.197968	7.01283	0	
0.5160	-0.824866	7.32591	0	
0.5167	0.725882	3.36032	0	
0.5173	3.16749	2.44197	0	
0.5180	2.83754	4.57086	0	
0.5187	0.725882	5.17614	0	
0.5193	-1.12182	3.96559	0	
0.5200	-0.824866	1.21055	0	
0.5207	0.0989839	-1.83669	0	
0.5213	1.02283	-2.1289	0	
0.5220	1.94668	-1.23142	0	
0.5227	2.83754	-2.1289	0	
0.5233	2.54059	-3.04724	0	
0.5240	0.0989839	-1.52362	0	
0.5247	-1.71572	-0.605274	0	
0.5253	-2.63957	-1.52362	0	
0.5260	-3.86037	-1.83669	0	
0.5267	-5.37813	-0.313073	0	
0.5273	-6.30198	1.52362	0	
0.5280	-6.30198	1.52362	0	
0.5287	-6.59893	1.52362	0	
0.5293	-6.92887	3.96559	0	
0.5300	-6.92887	5.17614	0	
0.5307	-7.52278	4.57086	0	
0.5313	-7.81973	6.72063	0	
0.5320	-7.52278	10.3731	0	
0.5327	-8.44663	10.6862	0	
0.5333	-9.96438	10.9784	0	
0.5340	-9.66743	12.502	0	
0.5347	-9.04053	14.0465	0	
0.5353	-8.14968	13.7335	0	
0.5360	-7.22583	11.6046	0	
0.5367	-6.30198	9.4548	0	
0.5373	-4.78422	9.76787	0	
0.5380	-3.26647	8.84953	0	
0.5387	-1.71572	6.09449	0	
0.5393	-0.824866	4.88394	0	
0.5400	-1.41877	5.17614	0	
0.5407	-0.824866	2.1289	0	
0.5413	1.94668	-1.83669	0	
0.5420	3.76139	-2.44197	0	
0.5427	2.83754	-2.44197	0	
0.5433	2.54059	-4.88394	0	
0.5440	3.46444	-6.72063	0	
0.5447	4.38829	-5.48921	0	
0.5453	4.68524	-3.67339	0	
0.5460	3.46444	-3.96559	0	
0.5467	0.395936	-3.96559	0	
0.5473	-1.71572	-2.75504	0	
0.5480	-2.34262	-1.23142	0	
0.5487	-3.26647	-0.605274	0	
0.5493	-4.48727	-1.23142	0	
0.5500	-3.86037	-1.23142	0	
0.5507	-3.26647	0.605274	0	
0.5513	-4.48727	3.36032	0	
0.5520	-4.78422	5.17614	0	
0.5527	-3.86037	6.09449	0	
0.5533	-4.48727	5.17614	0	
0.5540	-3.86037	3.36032	0	
0.5547	0.0989839	3.36032	0	
0.5553	1.94668	2.75504	0	
0.5560	0.395936	0.918347	0	
0.5567	0.0989839	0.918347	0	
0.5573	0.725882	1.83669	0	
0.5580	2.54059	0.605274	0	
0.5587	4.05834	-2.1289	0	
0.5593	3.46444	-3.36032	0	
0.5600	4.05834	-4.27866	0	
0.5607	8.94155	-6.72063	0	
0.5613	11.3832	-9.76787	0	
0.5620	10.1623	-11.2915	0	
0.5627	10.4923	-12.5229	0	
0.5633	10.7892	-13.1282	0	
0.5640	9.27149	-12.2098	0	
0.5647	9.8654	-12.2098	0	
0.5653	11.0862	-15.2571	0	
0.5660	9.8654	-17.0938	0	
0.5667	9.27149	-15.5702	0	
0.5673	9.8654	-14.0465	0	
0.5680	8.34764	-13.1282	0	
0.5687	6.49994	-10.9784	0	
0.5693	6.20299	-10.3731	0	
0.5700	6.49994	-12.2098	0	
0.5707	7.42379	-11.2915	0	
0.5713	6.20299	-7.63898	0	
0.5720	4.68524	-5.48921	0	
0.5727	7.12684	-4.88394	0	
0.5733	11.7131	-6.40756	0	
0.5740	12.307	-9.76787	0	
0.5747	11.0862	-10.0809	0	
0.5753	11.3832	-6.72063	0	
0.5760	10.1623	-7.32591	0	
0.5767	9.27149	-10.0809	0	
0.5773	11.3832	-8.84953	0	
0.5780	10.4923	-7.32591	0	
0.5787	6.82989	-9.4548	0	
0.5793	6.49994	-10.6862	0	
0.5800	7.12684	-9.4548	0	
0.5807	5.60909	-10.6862	0	
0.5813	8.94155	-15.2571	0	
0.5820	13.8248	-17.0938	0	
0.5827	12.9339	-16.1754	0	
0.5833	11.0862	-18.6174	0	
0.5840	12.307	-21.3724	0	
0.5847	11.0862	-18.6174	0	
0.5853	8.94155	-15.5702	0	
0.5860	11.0862	-15.8624	0	
0.5867	12.01	-14.9649	0	
0.5873	7.42379	-14.0465	0	
0.5880	4.98219	-14.0465	0	
0.5887	7.42379	-13.4204	0	
0.5893	8.05069	-12.5229	0	
0.5900	5.60909	-11.6046	0	
0.5907	3.16749	-9.1626	0	
0.5913	1.94668	-6.72063	0	
0.5920	1.02283	-5.48921	0	
0.5927	-0.824866	-2.75504	0	
0.5933	-4.48727	-1.23142	0	
0.5940	-5.70807	-3.04724	0	
0.5947	-2.93652	-3.67339	0	
0.5953	-0.824866	-3.67339	0	
0.5960	-1.41877	-3.96559	0	
0.5967	-1.71572	-3.96559	0	
0.5973	-0.824866	-3.96559	0	
0.5980	0.395936	-3.96559	0	
0.5987	0.0989839	-3.67339	0	
0.5993	-1.41877	-2.75504	0	
0.6000	-1.71572	-3.04724	0	
0.6007	-0.824866	-5.80228	0	
0.6013	1.61674	-10.3731	0	
0.6020	4.68524	-11.2915	0	
0.6027	4.68524	-8.24425	0	
0.6033	3.76139	-9.4548	0	
0.6040	5.60909	-13.1282	0	
0.6047	5.90604	-10.6862	0	
0.6053	4.68524	-7.63898	0	
0.6060	3.46444	-9.76787	0	
0.6067	0.725882	-9.4548	0	
0.6073	-0.824866	-4.57086	0	
0.6080	1.94668	-3.96559	0	
0.6087	1.31979	-6.72063	0	
0.6093	-1.41877	-5.48921	0	
0.6100	-0.197968	-2.75504	0	
0.6107	-0.824866	-0.605274	0	
0.6113	-4.15732	2.44197	0	
0.6120	-4.15732	5.17614	0	
0.6127	-4.48727	5.17614	0	
0.6133	-7.52278	6.09449	0	
0.6140	-8.74358	8.24425	0	
0.6147	-6.92887	7.93118	0	
0.6153	-5.37813	7.61811	0	
0.6160	-4.48727	8.53645	0	
0.6167	-3.56342	7.32591	0	
0.6173	-4.48727	5.17614	0	
0.6180	-6.30198	4.57086	0	
0.6187	-6.59893	3.04724	0	
0.6193	-3.56342	2.44197	0	
0.6200	-0.197968	4.88394	0	
0.6207	-1.71572	3.96559	0	
0.6213	-4.48727	-0.918347	0	
0.6220	-1.41877	-2.44197	0	
0.6227	1.61674	-1.83669	0	
0.6233	-0.824866	-2.1289	0	
0.6240	-2.63957	-0.605274	0	
0.6247	-3.56342	-0.313073	0	
0.6253	-4.48727	-3.04724	0	
0.6260	-3.56342	-3.04724	0	
0.6267	-2.93652	0.313073	0	
0.6273	-5.37813	1.52362	0	
0.6280	-5.37813	3.36032	0	
0.6287	-3.56342	4.27866	0	
0.6293	-5.37813	3.36032	0	
0.6300	-8.74358	4.88394	0	
0.6307	-8.14968	10.0601	0	
0.6313	-9.37048	12.502	0	
0.6320	-12.109	11.6046	0	
0.6327	-12.7029	10.6862	0	
0.6333	-13.0329	10.6862	0	
0.6340	-13.0329	11.8968	0	
0.6347	-10.8882	13.4204	0	
0.6353	-11.8121	14.0465	0	
0.6360	-13.9237	13.4204	0	
0.6367	-11.4821	12.2098	0	
0.6373	-9.04053	11.2915	0	
0.6380	-11.1852	10.6862	0	
0.6387	-11.4821	9.1626	0	
0.6393	-10.5913	8.84953	0	
0.6400	-9.66743	10.0601	0	
0.6407	-6.30198	8.84953	0	
0.6413	-4.48727	4.88394	0	
0.6420	-6.00502	3.04724	0	
0.6427	-6.00502	2.44197	0	
0.6433	-6.30198	1.83669	0	
0.6440	-7.52278	1.52362	0	
0.6447	-4.48727	0.605274	0	
0.6453	-3.56342	0.605274	0	
0.6460	-9.04053	3.36032	0	
0.6467	-11.1852	5.17614	0	
0.6473	-8.44663	6.09449	0	
0.6480	-9.04053	7.61811	0	
0.6487	-9.37048	7.61811	0	
0.6493	-6.30198	6.09449	0	
0.6500	-5.37813	7.01283	0	
0.6507	-7.22583	10.0601	0	
0.6513	-8.14968	11.6046	0	
0.6520	-8.74358	12.8151	0	
0.6527	-9.96438	14.6518	0	
0.6533	-10.8882	16.1754	0	
0.6540	-12.109	18.0121	0	
0.6547	-11.8121	19.8279	0	
0.6553	-11.8121	18.6174	0	
0.6560	-13.0329	18.0121	0	
0.6567	-13.9237	18.0121	0	
0.6573	-13.9237	16.4676	0	
0.6580	-12.7029	13.4204	0	
0.6587	-10.5913	12.2098	0	
0.6593	-10.8882	12.8151	0	
0.6600	-12.406	14.3387	0	
0.6607	-9.66743	13.4204	0	
0.6613	-5.08117	10.6862	0	
0.6620	-4.48727	7.32591	0	
0.6627	-5.37813	7.01283	0	
0.6633	-5.37813	8.84953	0	
0.6640	-7.22583	8.24425	0	
0.6647	-9.04053	5.48921	0	
0.6653	-8.44663	7.61811	0	
0.6660	-8.14968	10.3731	0	
0.6667	-10.2613	8.53645	0	
0.6673	-11.8121	7.01283	0	
0.6680	-9.96438	9.76787	0	
0.6687	-8.44663	12.502	0	
0.6693	-10.2613	12.8151	0	
0.6700	-11.4821	12.8151	0	
0.6707	-9.04053	13.1282	0	
0.6713	-8.44663	15.2571	0	
0.6720	-9.96438	18.0121	0	
0.6727	-9.96438	19.2227	0	
0.6733	-9.37048	19.5357	0	
0.6740	-10.8882	18.9096	0	
0.6747	-9.96438	18.0121	0	
0.6753	-9.04053	18.0121	0	
0.6760	-9.66743	18.0121	0	
0.6767	-8.74358	18.6174	0	
0.6773	-6.59893	20.4541	0	
0.6780	-7.22583	19.2227	0	
0.6787	-6.30198	14.3387	0	
0.6793	-3.86037	10.6862	0	
0.6800	-2.04567	9.4548	0	
0.6807	1.94668	8.53645	0	
0.6813	6.20299	7.93118	0	
0.6820	7.42379	7.32591	0	
0.6827	7.42379	6.40756	0	
0.6833	7.42379	4.88394	0	
0.6840	3.76139	2.75504	0	
0.6847	2.24364	2.44197	0	
0.6853	4.05834	4.88394	0	
0.6860	3.16749	7.32591	0	
0.6867	0.0989839	8.84953	0	
0.6873	-1.12182	8.84953	0	
0.6880	-2.63957	9.1626	0	
0.6887	-3.86037	10.9784	0	
0.6893	-5.08117	11.8968	0	
0.6900	-7.22583	12.8151	0	
0.6907	-8.74358	15.2571	0	
0.6913	-7.81973	15.8624	0	
0.6920	-7.22583	14.3387	0	
0.6927	-10.2613	14.944	0	
0.6933	-12.7029	16.4676	0	
0.6940	-11.1852	17.0938	0	
0.6947	-9.04053	18.9096	0	
0.6953	-10.8882	19.2227	0	
0.6960	-14.2537	18.6174	0	
0.6967	-14.5506	18.9096	0	
0.6973	-12.7029	15.8624	0	
0.6980	-11.1852	12.502	0	
0.6987	-9.96438	14.6518	0	
0.6993	-9.04053	15.2571	0	
0.7000	-10.5913	11.2915	0	
0.7007	-11.8121	9.76787	0	
0.7013	-8.14968	11.2915	0	
0.7020	-2.63957	10.3731	0	
0.7027	-2.63957	7.93118	0	
0.7033	-4.78422	6.40756	0	
0.7040	-4.15732	6.72063	0	
0.7047	-3.86037	5.80228	0	
0.7053	-4.78422	3.04724	0	
0.7060	-3.26647	3.65252	0	
0.7067	-1.41877	5.80228	0	
0.7073	-2.04567	5.17614	0	
0.7080	-4.48727	7.93118	0	
0.7087	-7.22583	11.8968	0	
0.7093	-8.14968	9.76787	0	
0.7100	-6.30198	9.76787	0	
0.7107	-3.56342	16.1754	0	
0.7113	-3.86037	16.1754	0	
0.7120	-7.52278	12.502	0	
0.7127	-11.8121	17.0938	0	
0.7133	-10.8882	21.3516	0	
0.7140	-7.52278	17.386	0	
0.7147	-8.14968	16.1754	0	
0.7153	-9.66743	18.0121	0	
0.7160	-9.04053	15.5702	0	
0.7167	-8.44663	14.0465	0	
0.7173	-8.14968	17.386	0	
0.7180	-7.22583	18.0121	0	
0.7187	-8.44663	13.4204	0	
0.7193	-8.14968	11.6046	0	
0.7200	-7.52278	13.4204	0	
0.7207	-11.8121	12.2098	0	
0.7213	-14.2537	6.72063	0	
0.7220	-7.52278	2.1289	0	
0.7227	-2.63957	3.36032	0	
0.7233	-4.78422	6.40756	0	
0.7240	-4.48727	4.57086	0	
0.7247	-1.71572	2.44197	0	
0.7253	-1.71572	4.27866	0	
0.7260	-3.26647	5.48921	0	
0.7267	-4.15732	4.27866	0	
0.7273	-5.08117	5.17614	0	
0.7280	-4.48727	7.32591	0	
0.7287	-4.48727	7.61811	0	
0.7293	-7.22583	8.84953	0	
0.7300	-8.14968	10.6862	0	
0.7307	-9.37048	11.2915	0	
0.7313	-13.3298	13.1282	0	
0.7320	-14.2537	16.4676	0	
0.7327	-12.7029	18.0121	0	
0.7333	-13.9237	18.0121	0	
0.7340	-15.7714	17.0938	0	
0.7347	-15.7714	15.2571	0	
0.7353	-15.4745	14.3387	0	
0.7360	-13.6268	14.3387	0	
0.7367	-12.406	14.6518	0	
0.7373	-12.7029	15.2571	0	
0.7380	-9.96438	13.7335	0	
0.7387	-6.30198	11.2915	0	
0.7393	-4.78422	10.0601	0	
0.7400	-2.63957	10.0601	0	
0.7407	-1.71572	8.53645	0	
0.7413	-1.71572	6.09449	0	
0.7420	1.94668	5.17614	0	
0.7427	3.76139	4.27866	0	
0.7433	2.54059	3.36032	0	
0.7440	2.24364	2.1289	0	
0.7447	2.83754	1.83669	0	
0.7453	0.725882	2.44197	0	
0.7460	1.31979	1.83669	0	
0.7467	1.94668	0.918347	0	
0.7473	-2.34262	2.75504	0	
0.7480	-4.48727	6.09449	0	
0.7487	-1.71572	7.32591	0	
0.7493	-1.71572	5.80228	0	
0.7500	-2.34262	5.17614	0	
0.7507	-2.63957	8.53645	0	
0.7513	-5.37813	11.8968	0	
0.7520	-8.14968	12.502	0	
0.7527	-6.59893	12.2098	0	
0.7533	-6.30198	12.2098	0	
0.7540	-8.14968	11.6046	0	
0.7547	-7.22583	12.8151	0	
0.7553	-5.70807	13.4204	0	
0.7560	-6.92887	11.8968	0	
0.7567	-6.59893	13.1282	0	
0.7573	-5.08117	14.3387	0	
0.7580	-7.52278	10.6862	0	
0.7587	-10.2613	7.93118	0	
0.7593	-6.59893	9.1626	0	
0.7600	-3.56342	8.53645	0	
0.7607	-4.15732	4.88394	0	
0.7613	-1.71572	3.04724	0	
0.7620	1.02283	-0.313073	0	
0.7627	0.0989839	-3.36032	0	
0.7633	1.94668	-2.1289	0	
0.7640	3.76139	-0.605274	0	
0.7647	0.0989839	-2.1289	0	
0.7653	-1.41877	-3.36032	0	
0.7660	3.16749	-2.1289	0	
0.7667	6.20299	-0.313073	0	
0.7673	5.27914	0.605274	0	
0.7680	4.98219	-0.313073	0	
0.7687	5.60909	-2.1289	0	
0.7693	7.42379	-1.83669	0	
0.7700	8.34764	-0.313073	0	
0.7707	4.05834	0.918347	0	
0.7713	1.02283	2.75504	0	
0.7720	1.31979	4.88394	0	
0.7727	1.02283	5.17614	0	
0.7733	1.02283	5.17614	0	
0.7740	0.395936	5.17614	0	
0.7747	-0.49492	4.88394	0	
0.7753	0.395936	3.04724	0	
0.7760	1.94668	3.36032	0	
0.7767	1.31979	5.80228	0	
0.7773	1.02283	5.17614	0	
0.7780	1.31979	2.1289	0	
0.7787	0.725882	1.83669	0	
0.7793	-0.49492	3.36032	0	
0.7800	-0.824866	1.52362	0	
0.7807	0.0989839	-2.1289	0	
0.7813	3.16749	-4.27866	0	
0.7820	4.68524	-5.80228	0	
0.7827	5.27914	-8.53645	0	
0.7833	8.34764	-11.8968	0	
0.7840	9.8654	-12.8151	0	
0.7847	9.8654	-9.76787	0	
0.7853	12.01	-8.84953	0	
0.7860	14.1547	-12.2098	0	
0.7867	13.8248	-14.3387	0	
0.7873	13.8248	-14.0465	0	
0.7880	15.0456	-13.7335	0	
0.7887	17.4872	-12.2098	0	
0.7893	19.9288	-8.53645	0	
0.7900	18.708	-7.63898	0	
0.7907	14.4517	-6.72063	0	
0.7913	11.0862	-3.67339	0	
0.7920	8.05069	-1.52362	0	
0.7927	4.68524	-3.36032	0	
0.7933	3.76139	-3.96559	0	
0.7940	4.68524	-3.67339	0	
0.7947	4.68524	-4.88394	0	
0.7953	5.60909	-5.80228	0	
0.7960	9.56845	-4.27866	0	
0.7967	13.8248	-3.04724	0	
0.7973	13.8248	-3.96559	0	
0.7980	11.0862	-6.40756	0	
0.7987	11.0862	-7.63898	0	
0.7993	12.604	-8.24425	0	
0.8000	11.0862	-9.4548	0	
0.8007	9.27149	-10.0809	0	
0.8013	10.1623	-11.2915	0	
0.8020	12.01	-13.4204	0	
0.8027	12.9339	-14.6518	0	
0.8033	13.5278	-14.9649	0	
0.8040	13.8248	-15.8624	0	
0.8047	13.2309	-14.9649	0	
0.8053	11.3832	-13.7335	0	
0.8060	11.0862	-13.7335	0	
0.8067	12.307	-13.1282	0	
0.8073	12.9339	-12.8151	0	
0.8080	12.01	-13.1282	0	
0.8087	9.56845	-12.2098	0	
0.8093	8.05069	-11.2915	0	
0.8100	7.72075	-13.1282	0	
0.8107	7.72075	-11.6046	0	
0.8113	6.20299	-5.80228	0	
0.8120	5.27914	-3.36032	0	
0.8127	5.27914	-4.27866	0	
0.8133	3.16749	-4.88394	0	
0.8140	1.61674	-5.48921	0	
0.8147	2.24364	-4.88394	0	
0.8153	2.24364	-2.1289	0	
0.8160	1.02283	-2.44197	0	
0.8167	1.94668	-5.48921	0	
0.8173	3.16749	-6.40756	0	
0.8180	2.83754	-5.80228	0	
0.8187	3.46444	-5.80228	0	
0.8193	4.38829	-6.40756	0	
0.8200	4.68524	-8.84953	0	
0.8207	8.05069	-11.2915	0	
0.8213	11.0862	-12.2098	0	
0.8220	9.8654	-15.2571	0	
0.8227	9.27149	-17.6991	0	
0.8233	12.604	-16.7807	0	
0.8240	13.8248	-18.3043	0	
0.8247	12.01	-20.4541	0	
0.8253	12.01	-16.7807	0	
0.8260	12.9339	-14.0465	0	
0.8267	11.0862	-15.8624	0	
0.8273	7.12684	-13.4204	0	
0.8280	3.16749	-8.24425	0	
0.8287	2.54059	-8.53645	0	
0.8293	4.68524	-10.6862	0	
0.8300	4.68524	-8.24425	0	
0.8307	1.94668	-4.88394	0	
0.8313	2.54059	-4.57086	0	
0.8320	5.27914	-4.27866	0	
0.8327	3.76139	-2.44197	0	
0.8333	-0.824866	-0.313073	0	
0.8340	-4.15732	-0.313073	0	
0.8347	-6.30198	-2.44197	0	
0.8353	-6.30198	-2.1289	0	
0.8360	-3.26647	-0.605274	0	
0.8367	0.725882	-2.75504	0	
0.8373	1.31979	-6.11536	0	
0.8380	-0.824866	-5.19701	0	
0.8387	-0.824866	-3.67339	0	
0.8393	1.94668	-5.80228	0	
0.8400	3.46444	-8.24425	0	
0.8407	4.68524	-8.84953	0	
0.8413	7.42379	-10.3731	0	
0.8420	8.94155	-12.8151	0	
0.8427	9.27149	-14.9649	0	
0.8433	10.7892	-14.9649	0	
0.8440	11.0862	-14.0465	0	
0.8447	9.56845	-14.0465	0	
0.8453	8.6446	-13.1282	0	
0.8460	8.34764	-12.8151	0	
0.8467	7.72075	-13.7335	0	
0.8473	8.34764	-12.2098	0	
0.8480	7.72075	-9.4548	0	
0.8487	8.05069	-12.2098	0	
0.8493	9.27149	-15.8624	0	
0.8500	7.42379	-12.8151	0	
0.8507	4.05834	-8.24425	0	
0.8513	4.68524	-6.72063	0	
0.8520	5.27914	-3.36032	0	
0.8527	3.76139	0.605274	0	
0.8533	2.83754	0	0	
0.8540	2.54059	-3.96559	0	
0.8547	1.94668	-6.11536	0	
0.8553	3.46444	-4.27866	0	
0.8560	4.98219	-2.1289	0	
0.8567	2.83754	-3.04724	0	
0.8573	1.31979	-4.88394	0	
0.8580	3.46444	-3.96559	0	
0.8587	4.68524	-3.96559	0	
0.8593	2.83754	-7.32591	0	
0.8600	3.76139	-9.76787	0	
0.8607	8.05069	-9.4548	0	
0.8613	8.6446	-10.3731	0	
0.8620	8.34764	-14.6518	0	
0.8627	8.34764	-16.4885	0	
0.8633	6.20299	-13.7335	0	
0.8640	4.68524	-13.7335	0	
0.8647	7.72075	-17.6991	0	
0.8653	10.1623	-17.4069	0	
0.8660	11.0862	-14.9649	0	
0.8667	11.0862	-16.4885	0	
0.8673	8.94155	-17.6991	0	
0.8680	8.6446	-14.9649	0	
0.8687	10.4923	-13.4204	0	
0.8693	7.12684	-12.2098	0	
0.8700	2.83754	-10.0809	0	
0.8707	3.76139	-8.84953	0	
0.8713	2.54059	-7.63898	0	
0.8720	-0.197968	-5.48921	0	
0.8727	2.24364	-5.48921	0	
0.8733	1.94668	-5.19701	0	
0.8740	-1.71572	-2.1289	0	
0.8747	1.61674	-0.313073	0	
0.8753	3.76139	-3.04724	0	
0.8760	0.0989839	-4.57086	0	
0.8767	1.61674	-4.27866	0	
0.8773	6.49994	-5.48921	0	
0.8780	4.98219	-6.72063	0	
0.8787	4.05834	-7.32591	0	
0.8793	7.42379	-10.0809	0	
0.8800	8.6446	-13.1282	0	
0.8807	7.72075	-13.7335	0	
0.8813	8.34764	-14.0465	0	
0.8820	10.1623	-15.8624	0	
0.8827	12.9339	-16.7807	0	
0.8833	12.307	-17.0938	0	
0.8840	8.6446	-16.7807	0	
0.8847	8.34764	-14.9649	0	
0.8853	9.56845	-12.8151	0	
0.8860	6.82989	-13.1282	0	
0.8867	5.60909	-14.3387	0	
0.8873	7.42379	-14.9649	0	
0.8880	8.34764	-14.3387	0	
0.8887	8.6446	-12.2098	0	
0.8893	10.1623	-10.3731	0	
0.8900	8.34764	-10.3731	0	
0.8907	5.27914	-9.1626	0	
0.8913	5.60909	-5.19701	0	
0.8920	4.68524	-3.36032	0	
0.8927	2.24364	-4.88394	0	
0.8933	1.02283	-7.32591	0	
0.8940	1.02283	-7.63898	0	
0.8947	0.725882	-5.80228	0	
0.8953	1.31979	-4.27866	0	
0.8960	1.94668	-4.88394	0	
0.8967	1.02283	-6.11536	0	
0.8973	2.54059	-7.32591	0	
0.8980	4.68524	-7.93118	0	
0.8987	4.38829	-7.93118	0	
0.8993	4.98219	-8.24425	0	
0.9000	6.82989	-8.84953	0	
0.9007	5.60909	-10.0809	0	
0.9013	5.90604	-11.8968	0	
0.9020	9.8654	-13.4204	0	
0.9027	10.1623	-14.6518	0	
0.9033	7.72075	-15.8624	0	
0.9040	7.72075	-17.6991	0	
0.9047	6.82989	-16.7807	0	
0.9053	4.68524	-14.0465	0	
0.9060	3.76139	-13.1282	0	
0.9067	2.83754	-14.9649	0	
0.9073	1.94668	-14.6518	0	
0.9080	3.16749	-12.5229	0	
0.9087	2.83754	-11.8968	0	
0.9093	2.24364	-12.2098	0	
0.9100	5.60909	-11.2915	0	
0.9107	7.42379	-9.4548	0	
0.9113	3.76139	-6.72063	0	
0.9120	1.61674	-3.04724	0	
0.9127	2.24364	-0.313073	0	
0.9133	4.05834	-2.44197	0	
0.9140	6.49994	-3.96559	0	
0.9147	6.49994	-2.44197	0	
0.9153	6.82989	-3.04724	0	
0.9160	8.34764	-7.63898	0	
0.9167	7.12684	-8.53645	0	
0.9173	5.27914	-5.19701	0	
0.9180	7.12684	-4.57086	0	
0.9187	8.05069	-7.93118	0	
0.9193	8.94155	-10.0809	0	
0.9200	12.604	-9.1626	0	
0.9207	12.307	-7.63898	0	
0.9213	10.1623	-7.93118	0	
0.9220	12.9339	-9.76787	0	
0.9227	13.5278	-11.2915	0	
0.9233	9.27149	-13.1282	0	
0.9240	10.1623	-17.6991	0	
0.9247	14.1547	-18.6174	0	
0.9253	12.01	-14.3387	0	
0.9260	10.7892	-10.9784	0	
0.9267	12.604	-11.2915	0	
0.9273	12.01	-12.2098	0	
0.9280	11.3832	-13.1282	0	
0.9287	11.3832	-12.5229	0	
0.9293	6.49994	-10.9784	0	
0.9300	1.31979	-10.0809	0	
0.9307	-0.824866	-7.93118	0	
0.9313	-3.56342	-3.96559	0	
0.9320	-5.37813	-1.83669	0	
0.9327	-2.04567	-0.313073	0	
0.9333	-0.824866	1.52362	0	
0.9340	-4.15732	0.605274	0	
0.9347	-5.08117	0.313073	0	
0.9353	-2.63957	0.605274	0	
0.9360	-1.41877	-0.605274	0	
0.9367	-1.41877	-1.23142	0	
0.9373	0.0989839	0	0	
0.9380	2.24364	0	0	
0.9387	1.94668	-1.23142	0	
0.9393	0.0989839	-2.1289	0	
0.9400	1.94668	-4.27866	0	
0.9407	3.46444	-5.80228	0	
0.9413	1.94668	-5.80228	0	
0.9420	2.54059	-7.93118	0	
0.9427	5.27914	-9.4548	0	
0.9433	4.38829	-8.24425	0	
0.9440	2.83754	-8.53645	0	
0.9447	3.76139	-10.6862	0	
0.9453	3.46444	-9.76787	0	
0.9460	1.94668	-7.63898	0	
0.9467	-1.71572	-7.01283	0	
0.9473	-5.37813	-3.96559	0	
0.9480	-4.78422	-0.605274	0	
0.9487	-4.15732	-3.04724	0	
0.9493	-9.04053	-4.88394	0	
0.9500	-10.5913	-2.1289	0	
0.9507	-6.59893	1.83669	0	
0.9513	-8.14968	3.36032	0	
0.9520	-12.109	6.09449	0	
0.9527	-11.4821	8.84953	0	
0.9533	-9.96438	8.84953	0	
0.9540	-9.04053	8.53645	0	
0.9547	-5.08117	8.53645	0	
0.9553	-1.12182	7.01283	0	
0.9560	1.94668	6.40756	0	
0.9567	3.76139	7.01283	0	
0.9573	1.94668	6.40756	0	
0.9580	0.395936	4.88394	0	
0.9587	4.68524	2.75504	0	
0.9593	6.49994	1.52362	0	
0.9600	1.94668	1.52362	0	
0.9607	0.395936	-0.313073	0	
0.9613	2.24364	-2.1289	0	
0.9620	-1.12182	-2.44197	0	
0.9627	-3.56342	-4.27866	0	
0.9633	-1.12182	-7.32591	0	
0.9640	0.0989839	-5.19701	0	
0.9647	-0.824866	-1.83669	0	
0.9653	-1.71572	-3.04724	0	
0.9660	-3.56342	-2.44197	0	
0.9667	-5.37813	2.44197	0	
0.9673	-4.48727	2.44197	0	
0.9680	-2.63957	-1.23142	0	
0.9687	-1.71572	0.313073	0	
0.9693	-3.26647	4.27866	0	
0.9700	-4.78422	6.09449	0	
0.9707	-3.56342	6.09449	0	
0.9713	-4.15732	6.09449	0	
0.9720	-9.96438	8.84953	0	
0.9727	-12.406	11.8968	0	
0.9733	-10.8882	11.6046	0	
0.9740	-12.7029	10.0601	0	
0.9747	-14.5506	11.2915	0	
0.9753	-12.7029	11.8968	0	
0.9760	-12.109	11.6046	0	
0.9767	-12.109	12.8151	0	
0.9773	-10.2613	12.502	0	
0.9780	-9.04053	7.93118	0	
0.9787	-8.74358	5.17614	0	
0.9793	-9.96438	7.32591	0	
0.9800	-10.8882	8.24425	0	
0.9807	-9.04053	5.80228	0	
0.9813	-6.30198	3.04724	0	
0.9820	-4.78422	-0.313073	0	
0.9827	-2.93652	-3.96559	0	
0.9833	-2.04567	-3.96559	0	
0.9840	-4.48727	-2.1289	0	
0.9847	-4.15732	-2.44197	0	
0.9853	-1.71572	-1.23142	0	
0.9860	-3.56342	0.918347	0	
0.9867	-5.37813	-0.313073	0	
0.9873	-1.71572	-0.918347	0	
0.9880	1.02283	3.04724	0	
0.9887	-1.12182	4.57086	0	
0.9893	-3.26647	2.75504	0	
0.9900	-2.34262	3.36032	0	
0.9907	-0.197968	6.72063	0	
0.9913	-0.824866	9.4548	0	
0.9920	-4.78422	10.6862	0	
0.9927	-8.44663	10.6862	0	
0.9933	-9.04053	10.6862	0	
0.9940	-8.14968	12.502	0	
0.9947	-7.81973	12.502	0	
0.9953	-9.04053	10.6862	0	
0.9960	-9.96438	9.76787	0	
0.9967	-9.66743	8.53645	0	
0.9973	-9.04053	6.09449	0	
0.9980	-8.44663	6.72063	0	
0.9987	-6.59893	7.61811	0	
0.9993	-6.30198	6.09449	0	
1.0000	-8.14968	5.48921	0	
1.0007	-7.81973	5.17614	0	
1.0013	-4.48727	0.605274	0	
1.0020	-2.93652	-4.57086	0	
1.0027	-4.15732	-4.88394	0	
1.0033	-4.48727	-3.67339	0	
1.0040	-3.26647	-3.04724	0	
1.0047	-3.56342	-3.36032	0	
1.0053	-4.78422	-2.44197	0	
1.0060	-3.56342	0	0	
1.0067	-2.34262	1.83669	0	
1.0073	-3.56342	1.21055	0	
1.0080	-3.56342	0.605274	0	
1.0087	-1.12182	1.52362	0	
1.0093	-1.41877	1.52362	0	
1.0100	-2.63957	2.44197	0	
1.0107	-4.15732	3.96559	0	
1.0113	-5.70807	5.17614	0	
1.0120	-4.48727	7.93118	0	
1.0127	-2.93652	9.76787	0	
1.0133	-5.08117	7.93118	0	
1.0140	-5.70807	6.09449	0	
1.0147	-3.56342	6.40756	0	
1.0153	-3.56342	7.32591	0	
1.0160	-4.48727	8.53645	0	
1.0167	-3.56342	8.84953	0	
1.0173	-3.56342	6.09449	0	
1.0180	-3.56342	5.48921	0	
1.0187	-1.71572	6.09449	0	
1.0193	-1.41877	3.96559	0	
1.0200	0.0989839	1.21055	0	
1.0207	3.76139	-0.313073	0	
1.0213	7.72075	-4.57086	0	
1.0220	10.4923	-7.93118	0	
1.0227	10.1623	-5.80228	0	
1.0233	8.05069	-5.19701	0	
1.0240	10.4923	-8.84953	0	
1.0247	14.7486	-8.24425	0	
1.0253	12.01	-3.96559	0	
1.0260	8.05069	-3.04724	0	
1.0267	9.8654	-2.1289	0	
1.0273	9.56845	-1.23142	0	
1.0280	5.60909	-2.1289	0	
1.0287	3.76139	-2.44197	0	
1.0293	2.83754	-0.313073	0	
1.0300	1.02283	-0.313073	0	
1.0307	-0.49492	-0.313073	0	
1.0313	-2.63957	3.36032	0	
1.0320	-3.86037	5.80228	0	
1.0327	-2.34262	3.36032	0	
1.0333	-2.34262	3.36032	0	
1.0340	-2.63957	6.40756	0	
1.0347	0.0989839	6.72063	0	
1.0353	0.0989839	5.48921	0	
1.0360	-3.56342	4.57086	0	
1.0367	-5.70807	3.65252	0	
1.0373	-4.15732	4.57086	0	
1.0380	-2.93652	4.88394	0	
1.0387	-3.26647	0.605274	0	
1.0393	-3.86037	-0.605274	0	
1.0400	-3.56342	3.36032	0	
1.0407	-1.71572	1.83669	0	
1.0413	-0.824866	-3.96559	0	
1.0420	-0.824866	-4.27866	0	
1.0427	0.0989839	-3.96559	0	
1.0433	1.02283	-6.11536	0	
1.0440	-1.41877	-7.01283	0	
1.0447	-2.34262	-5.80228	0	
1.0453	1.02283	-5.80228	0	
1.0460	4.68524	-6.72063	0	
1.0467	5.60909	-6.11536	0	
1.0473	4.98219	-5.19701	0	
1.0480	5.90604	-4.88394	0	
1.0487	9.27149	-4.57086	0	
1.0493	10.7892	-3.36032	0	
1.0500	8.05069	-1.83669	0	
1.0507	4.68524	0.313073	0	
1.0513	2.83754	2.44197	0	
1.0520	0.725882	3.36032	0	
1.0527	-1.12182	5.48921	0	
1.0533	-0.49492	8.84953	0	
1.0540	0.0989839	9.4548	0	
1.0547	-0.824866	8.53645	0	
1.0553	-0.824866	9.76787	0	
1.0560	-0.824866	9.76787	0	
1.0567	-0.824866	6.09449	0	
1.0573	-1.12182	5.48921	0	
1.0580	-2.63957	7.32591	0	
1.0587	-3.56342	5.48921	0	
1.0593	-1.12182	2.1289	0	
1.0600	-1.12182	2.1289	0	
1.0607	-4.48727	1.52362	0	
1.0613	-2.93652	-2.1289	0	
1.0620	3.16749	-4.27866	0	
1.0627	5.90604	-3.96559	0	
1.0633	5.27914	-2.75504	0	
1.0640	5.90604	-1.52362	0	
1.0647	5.27914	-2.1289	0	
1.0653	3.76139	-3.36032	0	
1.0660	4.68524	-2.75504	0	
1.0667	3.76139	-1.23142	0	
1.0673	1.02283	0.313073	0	
1.0680	1.31979	0.918347	0	
1.0687	1.02283	-0.313073	0	
1.0693	-1.71572	0.313073	0	
1.0700	-0.824866	5.17614	0	
1.0707	-0.824866	6.72063	0	
1.0713	-2.63957	3.65252	0	
1.0720	-0.49492	3.96559	0	
1.0727	-0.49492	7.01283	0	
1.0733	-5.70807	7.01283	0	
1.0740	-6.30198	7.93118	0	
1.0747	-2.63957	8.84953	0	
1.0753	-3.56342	6.72063	0	
1.0760	-4.48727	6.09449	0	
1.0767	-3.86037	8.24425	0	
1.0773	-5.70807	7.32591	0	
1.0780	-6.30198	6.40756	0	
1.0787	-5.70807	9.1626	0	
1.0793	-7.52278	8.24425	0	
1.0800	-6.59893	3.96559	0	
1.0807	-3.56342	1.52362	0	
1.0813	-2.63957	-0.605274	0	
1.0820	0.0989839	-3.96559	0	
1.0827	4.05834	-3.96559	0	
1.0833	3.76139	-3.36032	0	
1.0840	3.76139	-5.48921	0	
1.0847	6.49994	-5.48921	0	
1.0853	6.20299	-3.36032	0	
1.0860	2.24364	-2.44197	0	
1.0867	1.02283	-1.52362	0	
1.0873	0.0989839	-0.313073	0	
1.0880	-2.34262	-2.44197	0	
1.0887	-1.71572	-3.96559	0	
1.0893	-0.824866	-0.313073	0	
1.0900	-2.93652	4.27866	0	
1.0907	-3.56342	3.96559	0	
1.0913	-2.63957	3.36032	0	
1.0920	-4.78422	7.01283	0	
1.0927	-6.59893	9.76787	0	
1.0933	-5.70807	7.93118	0	
1.0940	-7.81973	6.40756	0	
1.0947	-10.8882	7.61811	0	
1.0953	-10.8882	8.53645	0	
1.0960	-10.8882	8.84953	0	
1.0967	-10.8882	7.93118	0	
1.0973	-7.52278	6.09449	0	
1.0980	-6.30198	6.09449	0	
1.0987	-8.14968	5.17614	0	
1.0993	-7.22583	2.44197	0	
1.1000	-5.37813	0.313073	0	
1.1007	-6.30198	-0.313073	0	
1.1013	-6.30198	-0.605274	0	
1.1020	-4.48727	-1.23142	0	
1.1027	-4.15732	-2.1289	0	
1.1033	-3.26647	-3.04724	0	
1.1040	-2.63957	-2.1289	0	
1.1047	-2.63957	-0.918347	0	
1.1053	0.0989839	-1.52362	0	
1.1060	3.76139	-4.27866	0	
1.1067	4.38829	-6.72063	0	
1.1073	2.83754	-4.27866	0	
1.1080	1.61674	-1.23142	0	
1.1087	-0.824866	-1.23142	0	
1.1093	-0.824866	-0.605274	0	
1.1100	1.61674	2.75504	0	
1.1107	1.94668	3.65252	0	
1.1113	0.0989839	3.04724	0	
1.1120	-0.824866	4.27866	0	
1.1127	-1.12182	6.09449	0	
1.1133	-2.34262	7.93118	0	
1.1140	-4.48727	9.76787	0	
1.1147	-6.00502	10.3731	0	
1.1153	-4.48727	10.6862	0	
1.1160	-2.63957	9.76787	0	
1.1167	-2.34262	6.09449	0	
1.1173	-1.41877	3.36032	0	
1.1180	0.0989839	4.57086	0	
1.1187	-1.41877	6.09449	0	
1.1193	-4.15732	4.88394	0	
1.1200	-2.93652	3.36032	0	
1.1207	0.395936	2.44197	0	
1.1213	1.02283	-0.313073	0	
1.1220	1.02283	-3.67339	0	
1.1227	4.05834	-4.88394	0	
1.1233	5.27914	-4.57086	0	
1.1240	1.61674	-3.96559	0	
1.1247	-0.824866	-4.88394	0	
1.1253	1.31979	-6.72063	0	
1.1260	2.54059	-6.72063	0	
1.1267	2.83754	-3.67339	0	
1.1273	3.16749	0.605274	0	
1.1280	2.54059	1.83669	0	
1.1287	1.02283	-0.313073	0	
1.1293	0.0989839	-2.1289	0	
1.1300	-2.63957	-2.1289	0	
1.1307	-3.56342	-0.313073	0	
1.1313	-1.12182	4.27866	0	
1.1320	1.02283	7.32591	0	
1.1327	-0.197968	4.88394	0	
1.1333	-0.824866	3.36032	0	
1.1340	-0.824866	7.01283	0	
1.1347	-1.71572	9.1626	0	
1.1353	-4.15732	6.40756	0	
1.1360	-5.08117	5.17614	0	
1.1367	-4.15732	7.01283	0	
1.1373	-4.15732	7.93118	0	
1.1380	-4.78422	4.57086	0	
1.1387	-4.78422	2.44197	0	
1.1393	-5.08117	4.27866	0	
1.1400	-5.08117	3.36032	0	
1.1407	-2.34262	-2.1289	0	
1.1413	-0.197968	-2.75504	0	
1.1420	-1.12182	-1.83669	0	
1.1427	-0.49492	-5.80228	0	
1.1433	0.395936	-8.84953	0	
1.1440	-0.49492	-9.76787	0	
1.1447	0.725882	-10.0809	0	
1.1453	2.83754	-5.80228	0	
1.1460	1.02283	-1.52362	0	
1.1467	-0.824866	-3.96559	0	
1.1473	-0.197968	-4.27866	0	
1.1480	-0.49492	-0.605274	0	
1.1487	-1.71572	1.21055	0	
1.1493	-1.12182	0	0	
1.1500	0.725882	0	0	
1.1507	0.725882	1.52362	0	
1.1513	-4.48727	3.96559	0	
1.1520	-9.96438	4.57086	0	
1.1527	-8.74358	4.57086	0	
1.1533	-6.30198	6.72063	0	
1.1540	-6.00502	7.01283	0	
1.1547	-1.71572	4.57086	0	
1.1553	1.94668	3.36032	0	
1.1560	0.0989839	2.75504	0	
1.1567	0.0989839	1.21055	0	
1.1573	1.94668	0.605274	0	
1.1580	3.46444	0.605274	0	
1.1587	4.68524	-0.605274	0	
1.1593	3.76139	-1.23142	0	
1.1600	1.31979	-2.1289	0	
1.1607	1.02283	-4.27866	0	
1.1613	0.0989839	-4.88394	0	
1.1620	0.0989839	-4.88394	0	
1.1627	3.46444	-7.63898	0	
1.1633	2.83754	-8.53645	0	
1.1640	-1.12182	-6.40756	0	
1.1647	0.0989839	-6.40756	0	
1.1653	2.83754	-9.4548	0	
1.1660	1.61674	-8.53645	0	
1.1667	0.725882	-4.88394	0	
1.1673	0.395936	-4.88394	0	
1.1680	0.395936	-3.96559	0	
1.1687	2.54059	-1.83669	0	
1.1693	4.05834	-4.27866	0	
1.1700	4.68524	-5.48921	0	
1.1707	5.27914	0	0	
1.1713	5.60909	2.75504	0	
1.1720	4.68524	0	0	
1.1727	3.76139	0.605274	0	
1.1733	2.24364	2.1289	0	
1.1740	3.46444	0.313073	0	
1.1747	5.27914	0.605274	0	
1.1753	2.83754	3.36032	0	
1.1760	1.31979	4.27866	0	
1.1767	3.46444	3.04724	0	
1.1773	2.83754	0.918347	0	
1.1780	1.31979	-0.313073	0	
1.1787	3.46444	-0.918347	0	
1.1793	4.38829	-3.04724	0	
1.1800	3.76139	-3.96559	0	
1.1807	5.60909	-3.04724	0	
1.1813	7.12684	-3.96559	0	
1.1820	6.49994	-7.63898	0	
1.1827	5.27914	-9.1626	0	
1.1833	4.05834	-8.84953	0	
1.1840	4.05834	-9.4548	0	
1.1847	5.60909	-8.84953	0	
1.1853	5.60909	-6.40756	0	
1.1860	4.68524	-4.57086	0	
1.1867	4.98219	-4.27866	0	
1.1873	4.98219	-4.57086	0	
1.1880	4.05834	-2.75504	0	
1.1887	3.76139	0.918347	0	
1.1893	3.76139	0.605274	0	
1.1900	3.76139	-2.44197	0	
1.1907	2.54059	-1.23142	0	
1.1913	-2.04567	2.75504	0	
1.1920	-5.37813	3.36032	0	
1.1927	-3.86037	4.27866	0	
1.1933	-3.26647	6.40756	0	
1.1940	-5.37813	5.80228	0	
1.1947	-6.59893	6.72063	0	
1.1953	-5.70807	10.6862	0	
1.1960	-5.08117	10.0601	0	
1.1967	-4.48727	5.48921	0	
1.1973	-2.34262	3.96559	0	
1.1980	1.31979	4.27866	0	
1.1987	3.76139	3.36032	0	
1.1993	3.76139	3.36032	0	
1.2000	1.94668	1.83669	0	
1.2007	1.94668	-0.918347	0	
1.2013	2.83754	-2.75504	0	
1.2020	4.68524	-4.88394	0	
1.2027	6.49994	-8.53645	0	
1.2033	6.20299	-8.53645	0	
1.2040	4.38829	-6.11536	0	
1.2047	4.38829	-6.11536	0	
1.2053	4.68524	-6.40756	0	
1.2060	3.16749	-4.88394	0	
1.2067	2.83754	-3.96559	0	
1.2073	4.68524	-3.36032	0	
1.2080	4.38829	-2.75504	0	
1.2087	1.31979	-3.36032	0	
1.2093	0.0989839	-3.04724	0	
1.2100	0.725882	0	0	
1.2107	-1.41877	1.83669	0	
1.2113	-5.08117	4.27866	0	
1.2120	-4.78422	7.01283	0	
1.2127	-2.04567	7.01283	0	
1.2133	-2.63957	7.01283	0	
1.2140	-4.48727	7.93118	0	
1.2147	-3.86037	6.72063	0	
1.2153	-2.04567	6.09449	0	
1.2160	-0.824866	7.01283	0	
1.2167	-0.824866	4.88394	0	
1.2173	-2.34262	3.36032	0	
1.2180	-0.824866	3.96559	0	
1.2187	2.83754	0.605274	0	
1.2193	2.83754	-0.605274	0	
1.2200	1.02283	3.36032	0	
1.2207	1.94668	1.52362	0	
1.2213	2.54059	-3.96559	0	
1.2220	3.16749	-3.67339	0	
1.2227	5.60909	-3.04724	0	
1.2233	4.05834	-6.72063	0	
1.2240	0.0989839	-6.72063	0	
1.2247	2.83754	-4.57086	0	
1.2253	6.82989	-6.40756	0	
1.2260	1.94668	-7.63898	0	
1.2267	-1.71572	-5.19701	0	
1.2273	4.05834	-4.88394	0	
1.2280	6.49994	-5.80228	0	
1.2287	1.94668	-3.36032	0	
1.2293	-1.71572	1.52362	0	
1.2300	-2.34262	2.44197	0	
1.2307	-3.56342	0.605274	0	
1.2313	-3.56342	0.918347	0	
1.2320	-5.37813	3.36032	0	
1.2327	-9.37048	4.27866	0	
1.2333	-10.2613	4.88394	0	
1.2340	-6.92887	5.48921	0	
1.2347	-6.00502	6.72063	0	
1.2353	-9.04053	8.53645	0	
1.2360	-9.37048	7.61811	0	
1.2367	-7.52278	3.96559	0	
1.2373	-7.22583	2.44197	0	
1.2380	-6.59893	3.65252	0	
1.2387	-4.48727	3.04724	0	
1.2393	-4.15732	1.21055	0	
1.2400	-4.48727	1.21055	0	
1.2407	-2.63957	-0.313073	0	
1.2413	-2.34262	-3.96559	0	
1.2420	-2.63957	-5.48921	0	
1.2427	0.395936	-5.80228	0	
1.2433	2.83754	-5.80228	0	
1.2440	1.02283	-5.80228	0	
1.2447	2.24364	-5.80228	0	
1.2453	5.60909	-6.72063	0	
1.2460	4.68524	-5.19701	0	
1.2467	2.54059	-3.67339	0	
1.2473	2.54059	-3.96559	0	
1.2480	1.31979	-3.36032	0	
1.2487	0.725882	-2.1289	0	
1.2493	2.83754	-3.04724	0	
1.2500	2.54059	-1.83669	0	
1.2507	-0.49492	2.44197	0	
1.2513	-0.197968	1.83669	0	
1.2520	1.31979	0.605274	0	
1.2527	1.94668	4.27866	0	
1.2533	3.76139	6.40756	0	
1.2540	4.68524	5.80228	0	
1.2547	2.83754	6.09449	0	
1.2553	1.31979	5.17614	0	
1.2560	0.0989839	4.27866	0	
1.2567	-2.04567	5.48921	0	
1.2573	-0.824866	4.27866	0	
1.2580	3.16749	-0.313073	0	
1.2587	4.38829	0	0	
1.2593	2.83754	2.1289	0	
1.2600	1.94668	0.605274	0	
1.2607	1.02283	-3.04724	0	
1.2613	1.94668	-5.48921	0	
1.2620	4.98219	-7.01283	0	
1.2627	6.20299	-7.93118	0	
1.2633	5.27914	-9.4548	0	
1.2640	5.60909	-9.4548	0	
1.2647	5.60909	-7.01283	0	
1.2653	5.27914	-6.72063	0	
1.2660	6.20299	-7.63898	0	
1.2667	6.49994	-5.80228	0	
1.2673	5.27914	-4.27866	0	
1.2680	4.38829	-5.19701	0	
1.2687	3.46444	-3.96559	0	
1.2693	2.54059	-1.23142	0	
1.2700	2.83754	0.605274	0	
1.2707	2.83754	0.918347	0	
1.2713	-0.49492	0.313073	0	
1.2720	-3.56342	1.52362	0	
1.2727	-2.63957	5.17614	0	
1.2733	-1.41877	7.01283	0	
1.2740	-3.26647	7.01283	0	
1.2747	-4.48727	7.01283	0	
1.2753	-2.93652	7.01283	0	
1.2760	-2.63957	5.48921	0	
1.2767	-3.26647	4.27866	0	
1.2773	-1.71572	5.17614	0	
1.2780	-2.34262	4.57086	0	
1.2787	-5.70807	1.52362	0	
1.2793	-4.48727	0.918347	0	
1.2800	1.02283	1.83669	0	
1.2807	2.83754	-2.1289	0	
1.2813	2.83754	-6.11536	0	
1.2820	4.38829	-4.57086	0	
1.2827	3.76139	-4.27866	0	
1.2833	1.61674	-7.63898	0	
1.2840	3.76139	-6.72063	0	
1.2847	4.68524	-5.80228	0	
1.2853	0.725882	-7.63898	0	
1.2860	0.0989839	-6.72063	0	
1.2867	2.54059	-4.88394	0	
1.2873	1.94668	-5.19701	0	
1.2880	1.02283	-3.36032	0	
1.2887	1.94668	-1.83669	0	
1.2893	2.83754	-4.57086	0	
1.2900	2.83754	-3.96559	0	
1.2907	1.31979	1.21055	0	
1.2913	-1.41877	1.52362	0	
1.2920	0.0989839	0	0	
1.2927	0.0989839	3.36032	0	
1.2933	-1.41877	6.40756	0	
1.2940	0.395936	5.80228	0	
1.2947	1.94668	4.57086	0	
1.2953	-0.824866	4.57086	0	
1.2960	-1.41877	5.17614	0	
1.2967	-1.41877	5.17614	0	
1.2973	-2.93652	4.88394	0	
1.2980	-0.49492	4.27866	0	
1.2987	1.31979	3.65252	0	
1.2993	-3.86037	2.1289	0	
1.3000	-6.00502	0.605274	0	
1.3007	-2.63957	0.605274	0	
1.3013	-1.41877	-0.313073	0	
1.3020	-0.197968	-3.67339	0	
1.3027	2.24364	-5.48921	0	
1.3033	0.395936	-5.80228	0	
1.3040	-0.824866	-6.72063	0	
1.3047	1.94668	-5.80228	0	
1.3053	2.83754	-3.04724	0	
1.3060	2.24364	-3.96559	0	
1.3067	3.16749	-5.19701	0	
1.3073	1.31979	-1.23142	0	
1.3080	-2.34262	0	0	
1.3087	0.0989839	-3.04724	0	
1.3093	3.76139	-0.918347	0	
1.3100	3.16749	3.04724	0	
1.3107	1.94668	0.918347	0	
1.3113	0.395936	-0.313073	0	
1.3120	-2.63957	3.36032	0	
1.3127	-4.15732	5.17614	0	
1.3133	-2.34262	4.27866	0	
1.3140	-0.824866	4.27866	0	
1.3147	0.0989839	6.09449	0	
1.3153	-0.197968	7.01283	0	
1.3160	-3.56342	4.57086	0	
1.3167	-3.86037	2.1289	0	
1.3173	-1.12182	4.27866	0	
1.3180	-1.71572	4.57086	0	
1.3187	-4.15732	0.313073	0	
1.3193	-3.56342	0.313073	0	
1.3200	-3.56342	3.65252	0	
1.3207	-3.56342	1.52362	0	
1.3213	-0.824866	-3.96559	0	
1.3220	-0.824866	-4.27866	0	
1.3227	-2.34262	-2.75504	0	
1.3233	1.61674	-3.36032	0	
1.3240	3.76139	-5.80228	0	
1.3247	-0.197968	-5.80228	0	
1.3253	-1.12182	-2.1289	0	
1.3260	1.61674	-0.313073	0	
1.3267	0.0989839	-3.96559	0	
1.3273	-1.71572	-6.72063	0	
1.3280	-0.197968	-2.75504	0	
1.3287	-0.824866	1.52362	0	
1.3293	-3.56342	-0.918347	0	
1.3300	-5.37813	-2.1289	0	
1.3307	-5.37813	1.52362	0	
1.3313	-6.00502	4.27866	0	
1.3320	-7.81973	4.27866	0	
1.3327	-9.04053	5.17614	0	
1.3333	-7.81973	6.09449	0	
1.3340	-7.52278	6.72063	0	
1.3347	-8.74358	7.61811	0	
1.3353	-7.52278	5.48921	0	
1.3360	-6.92887	2.44197	0	
1.3367	-8.14968	4.88394	0	
1.3373	-8.44663	7.93118	0	
1.3380	-6.92887	4.88394	0	
1.3387	-4.48727	1.21055	0	
1.3393	-4.78422	1.52362	0	
1.3400	-7.22583	1.52362	0	
1.3407	-6.59893	-1.52362	0	
1.3413	-4.78422	-2.1289	0	
1.3420	-4.48727	-0.918347	0	
1.3427	-2.04567	-2.75504	0	
1.3433	1.02283	-4.88394	0	
1.3440	-0.197968	-5.80228	0	
1.3447	-2.34262	-7.32591	0	
1.3453	-1.71572	-7.63898	0	
1.3460	-2.63957	-4.27866	0	
1.3467	-4.48727	-2.44197	0	
1.3473	-3.56342	-3.67339	0	
1.3480	-2.93652	-3.67339	0	
1.3487	-4.15732	-2.75504	0	
1.3493	-4.15732	-3.04724	0	
1.3500	-3.56342	-3.04724	0	
1.3507	-2.93652	-1.52362	0	
1.3513	-2.34262	0.605274	0	
1.3520	-5.08117	3.96559	0	
1.3527	-8.74358	6.40756	0	
1.3533	-7.22583	6.09449	0	
1.3540	-3.26647	6.09449	0	
1.3547	-1.71572	7.01283	0	
1.3553	-2.63957	8.84953	0	
1.3560	-2.93652	8.84953	0	
1.3567	-0.824866	6.72063	0	
1.3573	2.24364	3.04724	0	
1.3580	2.83754	0.918347	0	
1.3587	1.94668	0.605274	0	
1.3593	2.83754	0.605274	0	
1.3600	2.83754	-1.23142	0	
1.3607	1.94668	-2.44197	0	
1.3613	2.54059	-2.1289	0	
1.3620	4.05834	-2.75504	0	
1.3627	4.68524	-5.19701	0	
1.3633	4.68524	-7.01283	0	
1.3640	3.76139	-6.11536	0	
1.3647	1.02283	-4.88394	0	
1.3653	-0.49492	-4.57086	0	
1.3660	3.46444	-3.96559	0	
1.3667	4.98219	-3.67339	0	
1.3673	1.31979	-3.04724	0	
1.3680	0.725882	0	0	
1.3687	4.98219	-0.313073	0	
1.3693	6.20299	-3.96559	0	
1.3700	3.46444	-3.36032	0	
1.3707	1.31979	1.52362	0	
1.3713	-0.49492	3.04724	0	
1.3720	-2.04567	2.75504	0	
1.3727	-1.71572	5.80228	0	
1.3733	-1.71572	7.93118	0	
1.3740	-2.63957	7.01283	0	
1.3747	-2.34262	5.80228	0	
1.3753	-1.12182	4.88394	0	
1.3760	-0.824866	5.17614	0	
1.3767	-0.824866	6.09449	0	
1.3773	-1.71572	4.57086	0	
1.3780	-2.34262	2.1289	0	
1.3787	-0.824866	0.918347	0	
1.3793	-1.71572	0.313073	0	
1.3800	-5.08117	-0.313073	0	
1.3807	-3.86037	-0.918347	0	
1.3813	1.94668	-2.1289	0	
1.3820	4.68524	-4.57086	0	
1.3827	6.20299	-6.40756	0	
1.3833	7.72075	-7.93118	0	
1.3840	8.05069	-8.53645	0	
1.3847	8.34764	-7.63898	0	
1.3853	10.1623	-5.48921	0	
1.3860	7.72075	-4.88394	0	
1.3867	5.60909	-5.19701	0	
1.3873	6.82989	-4.88394	0	
1.3880	6.20299	-2.44197	0	
1.3887	3.46444	-1.23142	0	
1.3893	3.16749	-2.1289	0	
1.3900	3.46444	-1.23142	0	
1.3907	2.54059	1.83669	0	
1.3913	0.725882	3.04724	0	
1.3920	-2.93652	4.27866	0	
1.3927	-4.78422	6.09449	0	
1.3933	-0.824866	5.17614	0	
1.3940	0.0989839	4.88394	0	
1.3947	-5.08117	7.01283	0	
1.3953	-5.08117	5.17614	0	
1.3960	-0.824866	3.04724	0	
1.3967	-0.824866	4.57086	0	
1.3973	-0.49492	4.88394	0	
1.3980	2.83754	2.44197	0	
1.3987	2.54059	2.75504	0	
1.3993	1.31979	2.44197	0	
1.4000	3.76139	-1.23142	0	
1.4007	4.68524	-2.44197	0	
1.4013	3.46444	-3.36032	0	
1.4020	5.60909	-5.80228	0	
1.4027	7.12684	-6.72063	0	
1.4033	5.27914	-6.72063	0	
1.4040	4.98219	-7.63898	0	
1.4047	6.49994	-6.72063	0	
1.4053	6.82989	-5.80228	0	
1.4060	7.12684	-7.01283	0	
1.4067	7.42379	-7.63898	0	
1.4073	7.12684	-4.27866	0	
1.4080	7.42379	-2.44197	0	
1.4087	5.60909	-3.04724	0	
1.4093	2.54059	-2.44197	0	
1.4100	2.54059	-0.918347	0	
1.4107	3.46444	0.605274	0	
1.4113	1.02283	1.83669	0	
1.4120	-2.34262	4.27866	0	
1.4127	-1.71572	6.72063	0	
1.4133	-1.12182	7.01283	0	
1.4140	-2.63957	6.40756	0	
1.4147	-5.70807	7.93118	0	
1.4153	-8.44663	9.4548	0	
1.4160	-9.04053	7.01283	0	
1.4167	-6.30198	3.36032	0	
1.4173	-3.56342	3.36032	0	
1.4180	-2.63957	3.36032	0	
1.4187	-1.71572	1.52362	0	
1.4193	1.61674	-0.918347	0	
1.4200	3.16749	-2.1289	0	
1.4207	3.16749	-2.1289	0	
1.4213	4.38829	-3.36032	0	
1.4220	7.42379	-7.01283	0	
1.4227	8.34764	-7.63898	0	
1.4233	5.90604	-6.72063	0	
1.4240	3.76139	-9.1626	0	
1.4247	3.76139	-10.3731	0	
1.4253	4.05834	-7.63898	0	
1.4260	3.46444	-7.32591	0	
1.4267	3.46444	-7.63898	0	
1.4273	3.46444	-4.88394	0	
1.4280	1.94668	-3.67339	0	
1.4287	1.02283	-2.75504	0	
1.4293	2.83754	-1.52362	0	
1.4300	3.76139	-3.96559	0	
1.4307	3.46444	-5.80228	0	
1.4313	2.24364	0.605274	0	
1.4320	1.02283	5.48921	0	
1.4327	-0.49492	3.65252	0	
1.4333	-0.197968	2.75504	0	
1.4340	0.0989839	5.17614	0	
1.4347	-0.824866	5.48921	0	
1.4353	-0.824866	3.65252	0	
1.4360	1.02283	2.1289	0	
1.4367	1.61674	2.44197	0	
1.4373	1.61674	2.75504	0	
1.4380	1.02283	1.83669	0	
1.4387	-2.34262	1.21055	0	
1.4393	-2.93652	0.605274	0	
1.4400	1.02283	-1.52362	0	
1.4407	2.83754	-3.04724	0	
1.4413	1.31979	-3.36032	0	
1.4420	1.31979	-5.80228	0	
1.4427	1.61674	-8.53645	0	
1.4433	2.83754	-6.72063	0	
1.4440	4.98219	-4.57086	0	
1.4447	3.76139	-5.80228	0	
1.4453	2.83754	-8.53645	0	
1.4460	5.60909	-7.01283	0	
1.4467	3.46444	-4.27866	0	
1.4473	-0.824866	-4.57086	0	
1.4480	1.94668	-3.96559	0	
1.4487	4.98219	-1.52362	0	
1.4493	3.16749	-1.23142	0	
1.4500	3.16749	-0.918347	0	
1.4507	4.68524	1.52362	0	
1.4513	1.94668	2.44197	0	
1.4520	-1.71572	3.04724	0	
1.4527	-2.63957	6.09449	0	
1.4533	-2.63957	6.40756	0	
1.4540	-4.15732	4.88394	0	
1.4547	-5.70807	6.72063	0	
1.4553	-6.30198	7.93118	0	
1.4560	-4.48727	5.80228	0	
1.4567	-3.86037	3.36032	0	
1.4573	-4.48727	2.44197	0	
1.4580	-4.48727	2.44197	0	
1.4587	-5.08117	2.44197	0	
1.4593	-6.30198	0.605274	0	
1.4600	-4.15732	-1.23142	0	
1.4607	-1.12182	-1.23142	0	
1.4613	-3.56342	-2.1289	0	
1.4620	-2.63957	-4.88394	0	
1.4627	3.76139	-4.88394	0	
1.4633	4.68524	-3.67339	0	
1.4640	0.0989839	-5.48921	0	
1.4647	0.725882	-6.72063	0	
1.4653	2.54059	-5.19701	0	
1.4660	1.02283	-5.19701	0	
1.4667	2.24364	-5.19701	0	
1.4673	4.68524	-3.04724	0	
1.4680	4.98219	-2.75504	0	
1.4687	5.90604	-4.88394	0	
1.4693	5.60909	-4.88394	0	
1.4700	2.24364	-2.44197	0	
1.4707	0.725882	-1.52362	0	
1.4713	-0.197968	-0.313073	0	
1.4720	-3.26647	3.04724	0	
1.4727	-3.56342	5.48921	0	
1.4733	-2.63957	5.48921	0	
1.4740	-2.93652	6.09449	0	
1.4747	-1.12182	7.61811	0	
1.4753	-0.824866	7.32591	0	
1.4760	-6.59893	4.88394	0	
1.4767	-9.96438	3.04724	0	
1.4773	-6.59893	2.75504	0	
1.4780	-3.56342	2.75504	0	
1.4787	-1.41877	1.83669	0	
1.4793	1.61674	-0.313073	0	
1.4800	1.94668	-2.1289	0	
1.4807	0.395936	-2.75504	0	
1.4813	1.31979	-5.48921	0	
1.4820	2.83754	-8.84953	0	
1.4827	2.54059	-6.40756	0	
1.4833	0.725882	-3.04724	0	
1.4840	-0.49492	-5.48921	0	
1.4847	1.31979	-7.93118	0	
1.4853	2.83754	-5.80228	0	
1.4860	1.02283	-4.27866	0	
1.4867	-0.49492	-3.36032	0	
1.4873	-1.71572	-1.23142	0	
1.4880	-3.56342	-2.1289	0	
1.4887	-3.26647	-3.96559	0	
1.4893	-1.71572	-2.75504	0	
1.4900	-2.34262	-0.313073	0	
1.4907	-2.63957	1.21055	0	
1.4913	-1.41877	4.57086	0	
1.4920	-4.15732	7.61811	0	
1.4927	-8.14968	7.32591	0	
1.4933	-6.59893	7.61811	0	
1.4940	-4.48727	8.53645	0	
1.4947	-5.37813	7.93118	0	
1.4953	-5.37813	6.72063	0	
1.4960	-3.86037	4.27866	0	
1.4967	-2.63957	1.21055	0	
1.4973	-0.824866	0.605274	0	
1.4980	1.94668	1.83669	0	
1.4987	3.46444	-0.313073	0	
1.4993	2.24364	-3.04724	0	
1.5000	-0.824866	-0.918347	0	
1.5007	-0.824866	0.605274	0	
1.5013	3.46444	-3.04724	0	
1.5020	4.68524	-4.27866	0	
1.5027	2.83754	-3.67339	0	
1.5033	4.38829	-5.80228	0	
1.5040	6.82989	-8.53645	0	
1.5047	6.82989	-8.84953	0	
1.5053	6.82989	-7.32591	0	
1.5060	7.72075	-3.67339	0	
1.5067	5.90604	-1.83669	0	
1.5073	2.24364	-3.96559	0	
1.5080	1.02283	-4.27866	0	
1.5087	2.24364	-3.04724	0	
1.5093	3.46444	-4.88394	0	
1.5100	3.76139	-3.96559	0	
1.5107	3.16749	1.83669	0	
1.5113	1.02283	5.48921	0	
1.5120	-1.71572	5.80228	0	
1.5127	-3.56342	6.40756	0	
1.5133	-5.37813	7.32591	0	
1.5140	-5.37813	7.01283	0	
1.5147	-2.63957	5.17614	0	
1.5153	-2.34262	5.17614	0	
1.5160	-4.78422	7.93118	0	
1.5167	-4.48727	7.61811	0	
1.5173	-0.824866	2.75504	0	
1.5180	1.02283	2.1289	0	
1.5187	-1.12182	3.36032	0	
1.5193	-2.93652	0.918347	0	
1.5200	-1.71572	0.605274	0	
1.5207	0.395936	1.52362	0	
1.5213	2.83754	-2.44197	0	
1.5220	4.68524	-4.88394	0	
1.5227	3.46444	-3.96559	0	
1.5233	2.24364	-6.72063	0	
1.5240	3.76139	-8.84953	0	
1.5247	4.05834	-6.11536	0	
1.5253	2.54059	-5.48921	0	
1.5260	2.83754	-6.72063	0	
1.5267	3.76139	-6.40756	0	
1.5273	1.02283	-6.72063	0	
1.5280	-0.49492	-6.11536	0	
1.5287	1.61674	-3.04724	0	
1.5293	0.0989839	-1.52362	0	
1.5300	-3.56342	-2.1289	0	
1.5307	-2.04567	-0.918347	0	
1.5313	0.0989839	1.52362	0	
1.5320	-2.63957	4.88394	0	
1.5327	-2.63957	7.01283	0	
1.5333	-1.71572	6.09449	0	
1.5340	-4.48727	4.88394	0	
1.5347	-5.37813	5.17614	0	
1.5353	-2.93652	5.80228	0	
1.5360	-4.48727	5.48921	0	
1.5367	-6.30198	3.65252	0	
1.5373	-2.63957	1.52362	0	
1.5380	0.0989839	0.605274	0	
1.5387	1.02283	1.52362	0	
1.5393	1.94668	1.21055	0	
1.5400	1.61674	0	0	
1.5407	3.76139	-1.83669	0	
1.5413	7.12684	-3.96559	0	
1.5420	6.49994	-5.48921	0	
1.5427	6.49994	-6.11536	0	
1.5433	9.8654	-5.48921	0	
1.5440	10.7892	-5.80228	0	
1.5447	8.6446	-7.63898	0	
1.5453	6.20299	-7.63898	0	
1.5460	3.46444	-5.48921	0	
1.5467	3.16749	-5.80228	0	
1.5473	3.76139	-5.80228	0	
1.5480	1.31979	-3.04724	0	
1.5487	1.31979	-1.83669	0	
1.5493	4.05834	-3.36032	0	
1.5500	3.76139	-3.04724	0	
1.5507	1.94668	0.605274	0	
1.5513	1.02283	2.44197	0	
1.5520	-0.49492	1.83669	0	
1.5527	-1.71572	1.52362	0	
1.5533	-2.04567	4.27866	0	
1.5540	-3.26647	7.32591	0	
1.5547	-3.56342	6.72063	0	
1.5553	-2.63957	3.96559	0	
1.5560	-2.63957	3.65252	0	
1.5567	-1.71572	5.48921	0	
1.5573	-0.824866	5.17614	0	
1.5580	-1.71572	2.44197	0	
1.5587	-1.41877	-0.313073	0	
1.5593	-1.71572	-1.23142	0	
1.5600	-2.93652	0	0	
1.5607	-0.824866	-0.313073	0	
1.5613	4.05834	-3.36032	0	
1.5620	5.60909	-7.01283	0	
1.5627	5.90604	-8.84953	0	
1.5633	6.49994	-7.32591	0	
1.5640	4.05834	-4.88394	0	
1.5647	1.31979	-6.72063	0	
1.5653	0.395936	-9.4548	0	
1.5660	-0.824866	-7.93118	0	
1.5667	-1.71572	-6.11536	0	
1.5673	-0.197968	-5.19701	0	
1.5680	2.83754	-3.96559	0	
1.5687	4.38829	-3.36032	0	
1.5693	1.94668	-3.36032	0	
1.5700	1.02283	-2.1289	0	
1.5707	3.46444	0	0	
1.5713	2.83754	2.75504	0	
1.5720	-0.824866	4.27866	0	
1.5727	0.725882	4.88394	0	
1.5733	0.725882	6.40756	0	
1.5740	-1.71572	5.48921	0	
1.5747	1.94668	1.52362	0	
1.5753	7.42379	0	0	
1.5760	6.49994	0	0	
1.5767	4.68524	-0.313073	0	
1.5773	4.38829	1.21055	0	
1.5780	2.24364	1.83669	0	
1.5787	0.0989839	0.313073	0	
1.5793	-1.12182	-0.918347	0	
1.5800	-1.71572	-2.1289	0	
1.5807	2.54059	-3.36032	0	
1.5813	7.12684	-3.67339	0	
1.5820	6.20299	-7.32591	0	
1.5827	3.76139	-10.0809	0	
1.5833	5.27914	-6.40756	0	
1.5840	6.20299	-5.48921	0	
1.5847	4.68524	-10.0809	0	
1.5853	4.68524	-9.1626	0	
1.5860	4.68524	-4.88394	0	
1.5867	2.83754	-5.80228	0	
1.5873	2.83754	-5.80228	0	
1.5880	3.16749	-1.23142	0	
1.5887	1.31979	0.605274	0	
1.5893	-0.49492	-2.1289	0	
1.5900	-1.41877	-3.04724	0	
1.5907	-3.56342	-2.1289	0	
1.5913	-5.08117	-0.313073	0	
1.5920	-5.37813	2.1289	0	
1.5927	-7.22583	5.48921	0	
1.5933	-8.14968	7.93118	0	
1.5940	-6.00502	6.72063	0	
1.5947	-5.37813	4.88394	0	
1.5953	-6.30198	5.17614	0	
1.5960	-6.30198	5.80228	0	
1.5967	-6.00502	5.48921	0	
1.5973	-3.56342	5.48921	0	
1.5980	0.0989839	3.65252	0	
1.5987	0.395936	0.918347	0	
1.5993	-0.49492	-0.313073	0	
1.6000	1.61674	-0.605274	0	
1.6007	4.05834	-0.313073	0	
1.6013	5.27914	-0.918347	0	
1.6020	5.90604	-3.96559	0	
1.6027	5.60909	-5.80228	0	
1.6033	5.60909	-5.19701	0	
1.6040	6.49994	-6.72063	0	
1.6047	5.90604	-7.32591	0	
1.6053	3.76139	-4.27866	0	
1.6060	2.83754	-3.96559	0	
1.6067	1.94668	-5.48921	0	
1.6073	-0.49492	-5.19701	0	
1.6080	-0.824866	-5.19701	0	
1.6087	0.725882	-4.88394	0	
1.6093	-1.41877	-1.83669	0	
1.6100	-5.08117	-0.313073	0	
1.6107	-4.15732	-0.313073	0	
1.6113	-2.34262	0.918347	0	
1.6120	-4.15732	1.83669	0	
1.6127	-6.30198	3.04724	0	
1.6133	-6.30198	5.17614	0	
1.6140	-6.59893	5.17614	0	
1.6147	-6.59893	5.17614	0	
1.6153	-5.08117	6.40756	0	
1.6160	-3.56342	6.09449	0	
1.6167	-2.93652	5.17614	0	
1.6173	-3.56342	5.17614	0	
1.6180	-4.48727	3.65252	0	
1.6187	-4.78422	1.83669	0	
1.6193	-2.63957	1.21055	0	
1.6200	-0.197968	-1.23142	0	
1.6207	1.02283	-3.04724	0	
1.6213	0.395936	-2.75504	0	
1.6220	0.0989839	-4.88394	0	
1.6227	0.0989839	-8.24425	0	
1.6233	-0.197968	-6.40756	0	
1.6240	-0.197968	-3.96559	0	
1.6247	-1.12182	-5.80228	0	
1.6253	-2.04567	-6.72063	0	
1.6260	-1.12182	-6.11536	0	
1.6267	-0.197968	-6.11536	0	
1.6273	-1.41877	-3.96559	0	
1.6280	-2.04567	-2.44197	0	
1.6287	-1.71572	-4.27866	0	
1.6293	-2.04567	-3.36032	0	
1.6300	-2.04567	1.21055	0	
1.6307	-1.71572	1.52362	0	
1.6313	-3.86037	2.44197	0	
1.6320	-6.92887	7.01283	0	
1.6327	-5.70807	8.84953	0	
1.6333	-3.26647	5.80228	0	
1.6340	-3.26647	3.96559	0	
1.6347	-3.56342	3.04724	0	
1.6353	-2.63957	3.36032	0	
1.6360	-1.41877	4.57086	0	
1.6367	-0.197968	2.44197	0	
1.6373	0.0989839	-0.313073	0	
1.6380	-2.34262	2.1289	0	
1.6387	-3.26647	4.88394	0	
1.6393	-1.71572	3.36032	0	
1.6400	-0.49492	2.75504	0	
1.6407	1.02283	3.36032	0	
1.6413	2.24364	-1.23142	0	
1.6420	0.0989839	-5.48921	0	
1.6427	-0.824866	-3.96559	0	
1.6433	1.61674	-2.1289	0	
1.6440	1.02283	-3.96559	0	
1.6447	-0.824866	-5.80228	0	
1.6453	-0.824866	-5.80228	0	
1.6460	-3.26647	-4.57086	0	
1.6467	-3.86037	-2.75504	0	
1.6473	0.395936	-2.75504	0	
1.6480	0.725882	-3.67339	0	
1.6487	-1.41877	-1.52362	0	
1.6493	1.94668	0.605274	0	
1.6500	2.24364	0.918347	0	
1.6507	-2.93652	3.65252	0	
1.6513	-4.48727	6.09449	0	
1.6520	-3.26647	4.57086	0	
1.6527	-4.15732	5.80228	0	
1.6533	-2.93652	9.4548	0	
1.6540	-2.34262	7.61811	0	
1.6547	-3.86037	5.48921	0	
1.6553	-3.86037	7.93118	0	
1.6560	-3.56342	8.53645	0	
1.6567	-5.37813	6.40756	0	
1.6573	-3.56342	5.17614	0	
1.6580	-1.12182	3.96559	0	
1.6587	-1.12182	2.75504	0	
1.6593	1.31979	3.36032	0	
1.6600	4.68524	1.52362	0	
1.6607	2.83754	-2.1289	0	
1.6613	0.725882	-1.23142	0	
1.6620	2.83754	-1.23142	0	
1.6627	4.38829	-4.88394	0	
1.6633	3.46444	-7.01283	0	
1.6640	2.83754	-4.57086	0	
1.6647	3.46444	-3.36032	0	
1.6653	2.83754	-3.96559	0	
1.6660	1.02283	-2.1289	0	
1.6667	-0.824866	0.605274	0	
1.6673	-1.71572	-0.605274	0	
1.6680	-3.56342	-3.67339	0	
1.6687	-4.15732	-2.1289	0	
1.6693	-3.86037	1.52362	0	
1.6700	-4.48727	0.918347	0	
1.6707	-4.48727	0.313073	0	
1.6713	-3.26647	3.36032	0	
1.6720	-4.48727	7.01283	0	
1.6727	-6.59893	7.01283	0	
1.6733	-6.30198	5.80228	0	
1.6740	-5.37813	6.72063	0	
1.6747	-5.37813	8.53645	0	
1.6753	-4.48727	8.84953	0	
1.6760	-3.26647	6.09449	0	
1.6767	-1.71572	3.36032	0	
1.6773	-0.824866	3.36032	0	
1.6780	-2.34262	4.27866	0	
1.6787	-2.63957	3.04724	0	
1.6793	0.0989839	2.75504	0	
1.6800	1.31979	3.04724	0	
1.6807	0.395936	-0.313073	0	
1.6813	1.31979	-3.96559	0	
1.6820	2.83754	-3.96559	0	
1.6827	2.83754	-3.96559	0	
1.6833	3.46444	-7.63898	0	
1.6840	5.60909	-7.93118	0	
1.6847	6.49994	-4.57086	0	
1.6853	6.20299	-3.96559	0	
1.6860	4.68524	-6.40756	0	
1.6867	1.94668	-5.80228	0	
1.6873	0.0989839	-4.27866	0	
1.6880	0.0989839	-3.36032	0	
1.6887	0.0989839	-1.52362	0	
1.6893	-0.824866	1.21055	0	
1.6900	-0.824866	3.36032	0	
1.6907	-0.49492	4.27866	0	
1.6913	-0.49492	4.27866	0	
1.6920	-1.41877	6.09449	0	
1.6927	-2.04567	8.84953	0	
1.6933	-0.197968	7.93118	0	
1.6940	1.94668	6.09449	0	
1.6947	1.94668	7.61811	0	
1.6953	2.54059	6.40756	0	
1.6960	4.38829	3.36032	0	
1.6967	3.46444	3.36032	0	
1.6973	1.31979	3.96559	0	
1.6980	2.54059	3.36032	0	
1.6987	3.76139	3.65252	0	
1.6993	1.94668	2.44197	0	
1.7000	0.0989839	0.313073	0	
1.7007	1.61674	0.605274	0	
1.7013	1.94668	-0.605274	0	
1.7020	1.31979	-4.88394	0	
1.7027	2.54059	-7.63898	0	
1.7033	3.76139	-7.01283	0	
1.7040	1.61674	-6.40756	0	
1.7047	-1.71572	-7.01283	0	
1.7053	-0.49492	-7.63898	0	
1.7060	-0.824866	-5.19701	0	
1.7067	-5.70807	-3.04724	0	
1.7073	-6.92887	-4.88394	0	
1.7080	-2.34262	-4.88394	0	
1.7087	-1.12182	-1.23142	0	
1.7093	-2.63957	-0.313073	0	
1.7100	-2.04567	-1.23142	0	
1.7107	-2.63957	0	0	
1.7113	-4.48727	0.918347	0	
1.7120	-1.71572	2.44197	0	
1.7127	-0.197968	4.88394	0	
1.7133	-3.56342	4.88394	0	
1.7140	-4.48727	5.17614	0	
1.7147	-3.26647	6.40756	0	
1.7153	-3.56342	6.40756	0	
1.7160	-2.63957	6.72063	0	
1.7167	-0.49492	7.32591	0	
1.7173	-0.824866	5.48921	0	
1.7180	0.725882	1.83669	0	
1.7187	3.76139	-1.23142	0	
1.7193	4.38829	-3.67339	0	
1.7200	5.60909	-3.36032	0	
1.7207	9.27149	-2.75504	0	
1.7213	9.56845	-3.96559	0	
1.7220	6.82989	-5.19701	0	
1.7227	5.60909	-5.19701	0	
1.7233	6.20299	-7.32591	0	
1.7240	7.12684	-8.84953	0	
1.7247	8.05069	-7.93118	0	
1.7253	8.6446	-7.63898	0	
1.7260	7.42379	-7.63898	0	
1.7267	4.05834	-6.40756	0	
1.7273	1.94668	-3.96559	0	
1.7280	2.83754	-1.23142	0	
1.7287	2.54059	-0.605274	0	
1.7293	0.0989839	-1.83669	0	
1.7300	-0.197968	0.605274	0	
1.7307	0.0989839	3.96559	0	
1.7313	-1.41877	3.36032	0	
1.7320	-2.63957	2.1289	0	
1.7327	-3.56342	3.36032	0	
1.7333	-3.86037	3.96559	0	
1.7340	-3.56342	4.88394	0	
1.7347	-4.78422	7.93118	0	
1.7353	-7.81973	8.53645	0	
1.7360	-7.81973	6.40756	0	
1.7367	-5.08117	4.27866	0	
1.7373	-4.78422	2.44197	0	
1.7380	-5.70807	1.83669	0	
1.7387	-3.86037	2.44197	0	
1.7393	-0.824866	2.1289	0	
1.7400	1.61674	0.605274	0	
1.7407	2.24364	-1.23142	0	
1.7413	1.94668	-3.04724	0	
1.7420	2.54059	-4.88394	0	
1.7427	3.76139	-4.88394	0	
1.7433	2.83754	-5.19701	0	
1.7440	2.83754	-7.32591	0	
1.7447	3.76139	-9.1626	0	
1.7453	1.94668	-8.53645	0	
1.7460	-0.824866	-5.19701	0	
1.7467	0.0989839	-3.04724	0	
1.7473	1.31979	-3.04724	0	
1.7480	1.94668	-3.96559	0	
1.7487	1.31979	-3.04724	0	
1.7493	-0.197968	-0.605274	0	
1.7500	0.0989839	1.52362	0	
1.7507	2.83754	2.44197	0	
1.7513	2.24364	1.52362	0	
1.7520	-2.34262	2.1289	0	
1.7527	-2.34262	3.04724	0	
1.7533	0.725882	4.27866	0	
1.7540	1.31979	7.01283	0	
1.7547	1.02283	8.53645	0	
1.7553	1.94668	7.01283	0	
1.7560	1.02283	7.01283	0	
1.7567	-2.63957	6.40756	0	
1.7573	-4.15732	3.96559	0	
1.7580	-2.93652	3.96559	0	
1.7587	-1.12182	3.65252	0	
1.7593	0.0989839	1.52362	0	
1.7600	0.725882	2.1289	0	
1.7607	-1.71572	1.21055	0	
1.7613	-3.56342	-4.88394	0	
1.7620	-0.824866	-7.32591	0	
1.7627	0.725882	-5.80228	0	
1.7633	-0.824866	-7.32591	0	
1.7640	1.31979	-7.32591	0	
1.7647	3.76139	-4.88394	0	
1.7653	3.76139	-7.63898	0	
1.7660	4.38829	-10.6862	0	
1.7667	3.76139	-6.72063	0	
1.7673	1.94668	-2.44197	0	
1.7680	4.38829	-4.27866	0	
1.7687	7.42379	-5.48921	0	
1.7693	2.83754	-3.04724	0	
1.7700	0.395936	-3.04724	0	
1.7707	2.83754	-2.75504	0	
1.7713	2.54059	2.1289	0	
1.7720	0.0989839	5.17614	0	
1.7727	-1.71572	3.96559	0	
1.7733	-2.93652	5.17614	0	
1.7740	-2.63957	6.72063	0	
1.7747	-1.71572	4.88394	0	
1.7753	-1.71572	5.17614	0	
1.7760	-1.71572	6.09449	0	
1.7767	-0.824866	3.04724	0	
1.7773	-1.12182	1.21055	0	
1.7780	0.395936	3.65252	0	
1.7787	2.54059	3.65252	0	
1.7793	1.61674	1.52362	0	
1.7800	0.0989839	-0.313073	0	
1.7807	0.395936	-2.1289	0	
1.7813	1.31979	-3.96559	0	
1.7820	2.83754	-4.88394	0	
1.7827	4.38829	-6.40756	0	
1.7833	5.27914	-6.40756	0	
1.7840	4.68524	-5.48921	0	
1.7847	1.94668	-6.72063	0	
1.7853	-1.12182	-7.63898	0	
1.7860	0.0989839	-5.80228	0	
1.7867	2.54059	-5.48921	0	
1.7873	1.94668	-6.72063	0	
1.7880	1.02283	-4.88394	0	
1.7887	2.54059	-3.04724	0	
1.7893	3.76139	-3.96559	0	
1.7900	2.83754	-3.96559	0	
1.7907	2.24364	0	0	
1.7913	2.24364	0.605274	0	
1.7920	1.61674	-1.83669	0	
1.7927	0.725882	0.918347	0	
1.7933	1.02283	6.40756	0	
1.7940	0.725882	5.17614	0	
1.7947	0.0989839	1.52362	0	
1.7953	1.02283	2.75504	0	
1.7960	1.02283	3.65252	0	
1.7967	-0.824866	3.36032	0	
1.7973	-2.63957	3.96559	0	
1.7980	-2.34262	1.52362	0	
1.7987	-1.12182	-2.1289	0	
1.7993	-1.71572	1.52362	0	
1.8000	-3.26647	2.44197	0	
1.8007	-2.63957	-3.96559	0	
1.8013	0.395936	-6.72063	0	
1.8020	2.83754	-3.96559	0	
1.8027	2.83754	-3.96559	0	
1.8033	1.94668	-5.48921	0	
1.8040	1.31979	-5.48921	0	
1.8047	1.02283	-7.32591	0	
1.8053	1.02283	-7.93118	0	
1.8060	1.94668	-5.80228	0	
1.8067	1.02283	-3.96559	0	
1.8073	-0.49492	-3.67339	0	
1.8080	0.725882	-2.75504	0	
1.8087	2.54059	-3.04724	0	
1.8093	2.54059	-2.1289	0	
1.8100	1.94668	-1.23142	0	
1.8107	2.54059	-2.1289	0	
1.8113	2.83754	-2.1289	0	
1.8120	2.24364	0.918347	0	
1.8127	-0.49492	4.57086	0	
1.8133	-2.63957	5.17614	0	
1.8140	-1.71572	5.17614	0	
1.8147	-0.49492	4.27866	0	
1.8153	-3.56342	3.36032	0	
1.8160	-7.22583	3.36032	0	
1.8167	-6.30198	5.17614	0	
1.8173	-2.04567	4.27866	0	
1.8180	-0.824866	1.83669	0	
1.8187	-3.86037	1.83669	0	
1.8193	-4.78422	2.75504	0	
1.8200	-2.34262	3.04724	0	
1.8207	-1.71572	3.04724	0	
1.8213	-0.824866	-0.313073	0	
1.8220	2.83754	-5.48921	0	
1.8227	4.05834	-5.19701	0	
1.8233	1.94668	-3.04724	0	
1.8240	3.46444	-4.88394	0	
1.8247	5.60909	-6.72063	0	
1.8253	2.54059	-5.19701	0	
1.8260	1.94668	-4.27866	0	
1.8267	3.76139	-4.27866	0	
1.8273	0.0989839	-3.67339	0	
1.8280	-3.26647	-3.04724	0	
1.8287	0.0989839	-3.04724	0	
1.8293	-0.197968	-3.67339	0	
1.8300	-3.56342	-3.96559	0	
1.8307	-1.71572	-0.918347	0	
1.8313	-1.71572	5.17614	0	
1.8320	-4.48727	6.72063	0	
1.8327	-1.12182	3.65252	0	
1.8333	-0.824866	3.36032	0	
1.8340	-6.30198	6.09449	0	
1.8347	-6.30198	6.72063	0	
1.8353	-1.71572	3.96559	0	
1.8360	-2.63957	4.57086	0	
1.8367	-2.34262	7.01283	0	
1.8373	-0.197968	4.57086	0	
1.8380	-1.41877	0	0	
1.8387	-2.63957	-0.918347	0	
1.8393	-0.824866	0.918347	0	
1.8400	0.0989839	1.83669	0	
1.8407	-0.197968	-0.313073	0	
1.8413	0.0989839	-2.44197	0	
1.8420	2.83754	-2.44197	0	
1.8427	5.90604	-3.96559	0	
1.8433	5.90604	-6.40756	0	
1.8440	3.76139	-5.19701	0	
1.8447	2.83754	-3.96559	0	
1.8453	2.83754	-4.27866	0	
1.8460	2.83754	-3.04724	0	
1.8467	1.94668	-1.52362	0	
1.8473	-0.197968	-4.88394	0	
1.8480	-0.197968	-6.72063	0	
1.8487	0.395936	-1.83669	0	
1.8493	-1.71572	1.52362	0	
1.8500	-2.63957	-0.605274	0	
1.8507	-1.12182	0.918347	0	
1.8513	-2.93652	7.01283	0	
1.8520	-7.22583	8.24425	0	
1.8527	-8.14968	5.48921	0	
1.8533	-6.30198	7.01283	0	
1.8540	-5.08117	8.24425	0	
1.8547	-5.70807	5.48921	0	
1.8553	-6.30198	5.48921	0	
1.8560	-3.56342	6.72063	0	
1.8567	-0.49492	3.36032	0	
1.8573	-0.824866	1.52362	0	
1.8580	-0.824866	2.75504	0	
1.8587	0.395936	1.52362	0	
1.8593	0.0989839	-0.313073	0	
1.8600	-1.12182	-0.313073	0	
1.8607	0.0989839	-1.23142	0	
1.8613	2.83754	-3.04724	0	
1.8620	5.90604	-4.27866	0	
1.8627	6.49994	-4.88394	0	
1.8633	5.90604	-4.57086	0	
1.8640	6.49994	-5.80228	0	
1.8647	8.05069	-8.53645	0	
1.8653	7.12684	-6.40756	0	
1.8660	4.98219	-4.27866	0	
1.8667	5.27914	-6.72063	0	
1.8673	6.49994	-6.72063	0	
1.8680	6.49994	-3.96559	0	
1.8687	4.98219	-2.75504	0	
1.8693	4.98219	-1.23142	0	
1.8700	5.60909	0.313073	0	
1.8707	4.68524	-0.918347	0	
1.8713	2.83754	0.313073	0	
1.8720	1.31979	4.27866	0	
1.8727	0.395936	6.09449	0	
1.8733	-0.197968	5.80228	0	
1.8740	-0.824866	4.88394	0	
1.8747	-1.71572	5.17614	0	
1.8753	-1.71572	5.80228	0	
1.8760	-2.93652	3.65252	0	
1.8767	-6.59893	1.21055	0	
1.8773	-8.44663	1.83669	0	
1.8780	-5.70807	2.1289	0	
1.8787	-4.15732	0.605274	0	
1.8793	-6.30198	-0.313073	0	
1.8800	-4.78422	-0.605274	0	
1.8807	0.0989839	-2.44197	0	
1.8813	1.94668	-4.88394	0	
1.8820	1.31979	-6.11536	0	
1.8827	1.61674	-5.48921	0	
1.8833	2.83754	-4.88394	0	
1.8840	4.05834	-6.40756	0	
1.8847	5.60909	-5.80228	0	
1.8853	4.68524	-4.57086	0	
1.8860	2.83754	-5.80228	0	
1.8867	1.31979	-6.11536	0	
1.8873	0.395936	-4.27866	0	
1.8880	1.02283	-3.96559	0	
1.8887	3.46444	-3.96559	0	
1.8893	3.76139	-3.96559	0	
1.8900	1.94668	-4.88394	0	
1.8907	1.94668	-3.04724	0	
1.8913	2.54059	1.52362	0	
1.8920	2.24364	2.44197	0	
1.8927	2.24364	0.918347	0	
1.8933	0.725882	2.75504	0	
1.8940	-0.197968	5.17614	0	
1.8947	1.94668	3.96559	0	
1.8953	2.83754	2.1289	0	
1.8960	2.83754	2.44197	0	
1.8967	5.60909	1.52362	0	
1.8973	5.27914	0	0	
1.8980	1.61674	0.605274	0	
1.8987	1.94668	1.52362	0	
1.8993	3.76139	0.918347	0	
1.9000	1.61674	-0.605274	0	
1.9007	1.02283	-2.1289	0	
1.9013	3.16749	-3.36032	0	
1.9020	4.38829	-4.88394	0	
1.9027	5.27914	-6.11536	0	
1.9033	4.98219	-7.32591	0	
1.9040	2.54059	-8.53645	0	
1.9047	1.61674	-9.4548	0	
1.9053	3.76139	-8.53645	0	
1.9060	3.46444	-7.63898	0	
1.9067	1.94668	-8.84953	0	
1.9073	2.83754	-7.63898	0	
1.9080	3.76139	-4.27866	0	
1.9087	1.61674	-3.96559	0	
1.9093	1.02283	-3.36032	0	
1.9100	2.83754	-1.23142	0	
1.9107	1.02283	0.605274	0	
1.9113	-2.63957	2.1289	0	
1.9120	-0.49492	4.27866	0	
1.9127	-0.197968	5.17614	0	
1.9133	-6.59893	7.01283	0	
1.9140	-8.74358	7.93118	0	
1.9147	-4.48727	6.09449	0	
1.9153	-5.37813	5.17614	0	
1.9160	-7.52278	6.09449	0	
1.9167	-5.37813	7.01283	0	
1.9173	-4.15732	6.72063	0	
1.9180	-4.48727	3.96559	0	
1.9187	-4.48727	1.52362	0	
1.9193	-7.22583	2.1289	0	
1.9200	-9.04053	2.1289	0	
1.9207	-6.00502	0	0	
1.9213	-2.63957	-2.1289	0	
1.9220	-1.12182	-3.67339	0	
1.9227	1.02283	-3.96559	0	
1.9233	2.24364	-5.48921	0	
1.9240	2.83754	-7.63898	0	
1.9247	5.27914	-8.84953	0	
1.9253	6.49994	-9.76787	0	
1.9260	5.90604	-10.9784	0	
1.9267	7.72075	-8.53645	0	
1.9273	10.1623	-4.88394	0	
1.9280	10.7892	-5.48921	0	
1.9287	11.0862	-5.80228	0	
1.9293	11.3832	-3.36032	0	
1.9300	10.7892	-1.23142	0	
1.9307	9.27149	0.605274	0	
1.9313	5.60909	2.44197	0	
1.9320	1.94668	3.65252	0	
1.9327	1.02283	5.17614	0	
1.9333	0.725882	6.09449	0	
1.9340	-1.71572	5.17614	0	
1.9347	-2.93652	6.72063	0	
1.9353	-1.71572	8.84953	0	
1.9360	-1.41877	6.72063	0	
1.9367	-2.63957	4.27866	0	
1.9373	-4.48727	5.17614	0	
1.9380	-6.92887	5.48921	0	
1.9387	-7.52278	2.44197	0	
1.9393	-6.30198	0	0	
1.9400	-4.78422	-0.605274	0	
1.9407	-1.71572	-0.313073	0	
1.9413	2.83754	-0.313073	0	
1.9420	7.42379	-1.52362	0	
1.9427	8.34764	-2.1289	0	
1.9433	5.60909	-3.67339	0	
1.9440	2.83754	-6.40756	0	
1.9447	1.02283	-6.72063	0	
1.9453	0.0989839	-4.88394	0	
1.9460	0.0989839	-3.96559	0	
1.9467	0.0989839	-3.04724	0	
1.9473	-1.12182	-2.1289	0	
1.9480	-3.56342	-1.83669	0	
1.9487	-4.48727	-0.605274	0	
1.9493	-5.08117	1.21055	0	
1.9500	-4.78422	2.44197	0	
1.9507	-4.15732	2.44197	0	
1.9513	-6.00502	2.75504	0	
1.9520	-6.92887	5.17614	0	
1.9527	-4.48727	7.93118	0	
1.9533	-2.93652	7.93118	0	
1.9540	-3.26647	7.61811	0	
1.9547	-3.56342	8.24425	0	
1.9553	-6.30198	6.09449	0	
1.9560	-7.22583	3.36032	0	
1.9567	-3.56342	4.27866	0	
1.9573	-1.71572	3.96559	0	
1.9580	-1.71572	1.52362	0	
1.9587	-0.197968	2.1289	0	
1.9593	-0.197968	2.75504	0	
1.9600	-1.12182	-1.23142	0	
1.9607	1.02283	-3.96559	0	
1.9613	1.94668	-3.67339	0	
1.9620	0.0989839	-3.96559	0	
1.9627	0.725882	-6.11536	0	
1.9633	3.16749	-6.72063	0	
1.9640	2.83754	-5.80228	0	
1.9647	1.02283	-5.19701	0	
1.9653	1.94668	-6.11536	0	
1.9660	1.94668	-7.01283	0	
1.9667	1.02283	-5.80228	0	
1.9673	1.02283	-3.67339	0	
1.9680	0.0989839	-3.04724	0	
1.9687	-1.71572	-3.04724	0	
1.9693	-2.63957	-3.04724	0	
1.9700	-2.34262	-2.1289	0	
1.9707	-2.63957	-1.52362	0	
1.9713	-3.86037	0.605274	0	
1.9720	-6.00502	4.57086	0	
1.9727	-7.22583	6.72063	0	
1.9733	-5.37813	4.27866	0	
1.9740	-4.15732	2.1289	0	
1.9747	-4.78422	3.65252	0	
1.9753	-4.48727	3.65252	0	
1.9760	-3.56342	2.1289	0	
1.9767	-5.37813	3.04724	0	
1.9773	-6.30198	3.96559	0	
1.9780	-3.56342	1.83669	0	
1.9787	-0.49492	1.21055	0	
1.9793	-1.71572	3.36032	0	
1.9800	-3.26647	3.04724	0	
1.9807	-2.34262	-0.605274	0	
1.9813	-0.197968	-3.04724	0	
1.9820	1.31979	-3.04724	0	
1.9827	1.94668	-4.88394	0	
1.9833	1.61674	-6.72063	0	
1.9840	1.31979	-5.80228	0	
1.9847	2.24364	-6.40756	0	
1.9853	3.16749	-8.53645	0	
1.9860	2.83754	-8.53645	0	
1.9867	1.94668	-6.72063	0	
1.9873	0.395936	-5.80228	0	
1.9880	-0.824866	-4.57086	0	
1.9887	-2.04567	-3.67339	0	
1.9893	-2.63957	-5.19701	0	
1.9900	-2.04567	-5.80228	0	
1.9907	-2.63957	-1.52362	0	
1.9913	-4.48727	2.44197	0	
1.9920	-5.08117	2.75504	0	
1.9927	-5.37813	1.83669	0	
1.9933	-5.08117	1.52362	0	
1.9940	-4.48727	2.44197	0	
1.9947	-4.48727	5.17614	0	
1.9953	-4.48727	6.72063	0	
1.9960	-3.56342	4.88394	0	
1.9967	-3.56342	4.27866	0	
1.9973	-3.56342	6.09449	0	
1.9980	-0.824866	6.09449	0	
1.9987	1.31979	2.1289	0	
1.9993	2.54059	-0.918347	0	
2.0000	4.98219	-2.1289	0	
2.0007	5.60909	-2.1289	0	
2.0013	3.76139	-2.44197	0	
2.0020	4.68524	-4.27866	0	
2.0027	6.49994	-4.88394	0	
2.0033	5.60909	-4.57086	0	
2.0040	4.98219	-6.40756	0	
2.0047	4.98219	-8.84953	0	
2.0053	4.68524	-9.1626	0	
2.0060	4.68524	-8.53645	0	
2.0067	3.46444	-7.63898	0	
2.0073	2.24364	-5.80228	0	
2.0080	2.83754	-3.96559	0	
2.0087	3.16749	-1.23142	0	
2.0093	2.54059	0.918347	0	
2.0100	3.16749	-0.313073	0	
2.0107	2.83754	-1.23142	0	
2.0113	1.02283	0	0	
2.0120	2.83754	2.75504	0	
2.0127	5.60909	4.57086	0	
2.0133	6.49994	4.27866	0	
2.0140	8.34764	3.36032	0	
2.0147	9.8654	3.36032	0	
2.0153	7.42379	3.36032	0	
2.0160	5.27914	3.04724	0	
2.0167	4.68524	2.75504	0	
2.0173	2.83754	2.44197	0	
2.0180	2.83754	2.75504	0	
2.0187	4.68524	2.1289	0	
2.0193	4.68524	-0.918347	0	
2.0200	4.38829	-1.83669	0	
2.0207	3.46444	0.313073	0	
2.0213	2.83754	-0.313073	0	
2.0220	5.27914	-3.36032	0	
2.0227	8.6446	-5.19701	0	
2.0233	6.82989	-4.88394	0	
2.0240	3.16749	-3.04724	0	
2.0247	2.83754	-3.04724	0	
2.0253	2.83754	-5.19701	0	
2.0260	3.46444	-4.88394	0	
2.0267	2.83754	-2.1289	0	
2.0273	-0.824866	-1.23142	0	
2.0280	-2.63957	-2.1289	0	
2.0287	-0.197968	-1.52362	0	
2.0293	0.725882	-0.313073	0	
2.0300	-0.49492	0.918347	0	
2.0307	-0.824866	1.83669	0	
2.0313	0.395936	2.75504	0	
2.0320	2.24364	4.57086	0	
2.0327	1.94668	6.09449	0	
2.0333	-0.49492	6.40756	0	
2.0340	-0.824866	5.80228	0	
2.0347	0.0989839	4.27866	0	
2.0353	-0.824866	2.75504	0	
2.0360	-1.41877	1.83669	0	
2.0367	-0.49492	2.1289	0	
2.0373	0.0989839	1.83669	0	
2.0380	-0.49492	0.605274	0	
2.0387	-2.34262	0.313073	0	
2.0393	-3.86037	2.1289	0	
2.0400	-2.63957	2.75504	0	
2.0407	-1.71572	0.605274	0	
2.0413	-0.824866	-2.75504	0	
2.0420	2.24364	-6.11536	0	
2.0427	2.54059	-5.80228	0	
2.0433	0.395936	-3.04724	0	
2.0440	1.61674	-4.27866	0	
2.0447	2.54059	-7.01283	0	
2.0453	1.31979	-5.80228	0	
2.0460	2.83754	-4.88394	0	
2.0467	4.68524	-6.11536	0	
2.0473	2.54059	-4.27866	0	
2.0480	-0.49492	-2.44197	0	
2.0487	-0.824866	-3.67339	0	
2.0493	-0.49492	-3.04724	0	
2.0500	-0.197968	-0.313073	0	
2.0507	-0.49492	0.605274	0	
2.0513	-2.63957	1.52362	0	
2.0520	-3.86037	2.44197	0	
2.0527	-2.63957	3.96559	0	
2.0533	-1.71572	6.09449	0	
2.0540	-2.63957	6.72063	0	
2.0547	-3.26647	5.48921	0	
2.0553	-2.34262	3.96559	0	
2.0560	-1.12182	4.27866	0	
2.0567	-1.71572	5.80228	0	
2.0573	-4.48727	5.80228	0	
2.0580	-7.22583	2.44197	0	
2.0587	-6.30198	0.605274	0	
2.0593	-3.26647	1.52362	0	
2.0600	-2.63957	1.52362	0	
2.0607	-3.86037	0.605274	0	
2.0613	-3.56342	-1.23142	0	
2.0620	-2.63957	-4.57086	0	
2.0627	-2.04567	-5.80228	0	
2.0633	-1.71572	-5.19701	0	
2.0640	-2.93652	-6.72063	0	
2.0647	-3.56342	-8.84953	0	
2.0653	-1.41877	-7.63898	0	
2.0660	0.0989839	-5.48921	0	
2.0667	0.725882	-5.19701	0	
2.0673	1.94668	-5.19701	0	
2.0680	3.16749	-5.80228	0	
2.0687	3.46444	-4.88394	0	
2.0693	3.76139	-1.83669	0	
2.0700	4.98219	-2.1289	0	
2.0707	5.27914	-2.75504	0	
2.0713	2.54059	2.1289	0	
2.0720	0.0989839	5.17614	0	
2.0727	1.02283	3.36032	0	
2.0733	1.61674	4.27866	0	
2.0740	-0.197968	6.09449	0	
2.0747	-0.824866	3.65252	0	
2.0753	-0.824866	3.04724	0	
2.0760	-2.34262	5.80228	0	
2.0767	-3.56342	4.88394	0	
2.0773	-2.34262	1.21055	0	
2.0780	-1.41877	0	0	
2.0787	-1.71572	1.52362	0	
2.0793	-1.71572	2.75504	0	
2.0800	-2.63957	1.52362	0	
2.0807	-2.93652	-1.83669	0	
2.0813	-1.12182	-3.67339	0	
2.0820	0.0989839	-5.19701	0	
2.0827	0.725882	-8.24425	0	
2.0833	-0.197968	-8.24425	0	
2.0840	-2.63957	-6.11536	0	
2.0847	-3.26647	-6.11536	0	
2.0853	-1.12182	-5.19701	0	
2.0860	0.0989839	-3.04724	0	
2.0867	-1.41877	-3.96559	0	
2.0873	-2.93652	-3.67339	0	
2.0880	-4.15732	-0.918347	0	
2.0887	-5.37813	-1.23142	0	
2.0893	-6.30198	-1.83669	0	
2.0900	-5.37813	1.52362	0	
2.0907	-5.37813	1.52362	0	
2.0913	-6.59893	-0.605274	0	
2.0920	-6.30198	3.36032	0	
2.0927	-4.15732	7.01283	0	
2.0933	-4.48727	6.40756	0	
2.0940	-5.70807	7.01283	0	
2.0947	-6.00502	8.24425	0	
2.0953	-7.52278	6.09449	0	
2.0960	-8.14968	5.17614	0	
2.0967	-4.48727	5.17614	0	
2.0973	-3.56342	3.36032	0	
2.0980	-5.08117	1.83669	0	
2.0987	-3.56342	2.75504	0	
2.0993	-2.04567	3.96559	0	
2.1000	-3.56342	2.44197	0	
2.1007	-0.824866	-1.52362	0	
2.1013	3.76139	-4.57086	0	
2.1020	4.38829	-4.88394	0	
2.1027	4.68524	-6.72063	0	
2.1033	4.68524	-10.3731	0	
2.1040	4.05834	-11.2915	0	
2.1047	4.68524	-7.63898	0	
2.1053	4.68524	-4.88394	0	
2.1060	1.94668	-7.93118	0	
2.1067	0.0989839	-9.4548	0	
2.1073	1.02283	-5.19701	0	
2.1080	-0.197968	-2.75504	0	
2.1087	-2.93652	-3.67339	0	
2.1093	-2.34262	-3.36032	0	
2.1100	-0.824866	-1.83669	0	
2.1107	-2.93652	1.21055	0	
2.1113	-5.37813	5.80228	0	
2.1120	-4.78422	6.09449	0	
2.1127	-4.15732	3.36032	0	
2.1133	-3.86037	4.27866	0	
2.1140	-4.78422	6.40756	0	
2.1147	-6.59893	8.24425	0	
2.1153	-8.14968	9.1626	0	
2.1160	-6.59893	7.32591	0	
2.1167	-3.86037	5.17614	0	
2.1173	-3.26647	5.17614	0	
2.1180	-3.86037	2.75504	0	
2.1187	-3.56342	0.605274	0	
2.1193	-1.71572	2.44197	0	
2.1200	-0.824866	1.21055	0	
2.1207	-1.12182	-3.96559	0	
2.1213	-0.49492	-4.57086	0	
2.1220	2.83754	-1.52362	0	
2.1227	5.90604	-0.313073	0	
2.1233	4.68524	-3.04724	0	
2.1240	1.94668	-7.63898	0	
2.1247	2.54059	-9.4548	0	
2.1253	4.68524	-8.24425	0	
2.1260	5.60909	-7.63898	0	
2.1267	5.90604	-7.01283	0	
2.1273	7.42379	-3.67339	0	
2.1280	9.56845	-1.83669	0	
2.1287	8.34764	-3.67339	0	
2.1293	5.60909	-3.96559	0	
2.1300	5.90604	-2.1289	0	
2.1307	5.60909	-0.313073	0	
2.1313	1.02283	2.44197	0	
2.1320	-0.824866	4.57086	0	
2.1327	2.24364	4.88394	0	
2.1333	3.46444	3.96559	0	
2.1340	2.24364	5.17614	0	
2.1347	1.94668	8.84953	0	
2.1353	1.94668	10.0601	0	
2.1360	1.02283	7.32591	0	
2.1367	1.02283	4.27866	0	
2.1373	0.725882	4.88394	0	
2.1380	1.94668	4.57086	0	
2.1387	4.98219	1.52362	0	
2.1393	4.68524	0.313073	0	
2.1400	0.395936	0.605274	0	
2.1407	0.725882	-0.313073	0	
2.1413	5.60909	-1.23142	0	
2.1420	5.60909	-1.52362	0	
2.1427	1.94668	-4.27866	0	
2.1433	1.31979	-6.72063	0	
2.1440	2.54059	-5.19701	0	
2.1447	1.61674	-4.57086	0	
2.1453	1.94668	-5.19701	0	
2.1460	2.24364	-2.1289	0	
2.1467	0.725882	0.313073	0	
2.1473	0.395936	-2.1289	0	
2.1480	1.94668	-1.23142	0	
2.1487	0.0989839	3.36032	0	
2.1493	-0.824866	2.1289	0	
2.1500	-0.197968	0.605274	0	
2.1507	-2.63957	3.96559	0	
2.1513	-4.48727	5.17614	0	
2.1520	-2.34262	3.96559	0	
2.1527	-1.12182	6.09449	0	
2.1533	-2.63957	8.84953	0	
2.1540	-4.48727	7.93118	0	
2.1547	-4.78422	5.80228	0	
2.1553	-2.34262	5.17614	0	
2.1560	-0.824866	5.48921	0	
2.1567	-3.26647	6.09449	0	
2.1573	-4.48727	4.57086	0	
2.1580	-1.71572	2.44197	0	
2.1587	-1.71572	2.1289	0	
2.1593	-4.48727	2.75504	0	
2.1600	-4.48727	2.75504	0	
2.1607	-2.93652	2.44197	0	
2.1613	-3.56342	0.605274	0	
2.1620	-3.56342	-3.04724	0	
2.1627	-2.63957	-4.88394	0	
2.1633	-2.34262	-5.19701	0	
2.1640	-1.41877	-5.48921	0	
2.1647	1.02283	-4.57086	0	
2.1653	2.83754	-3.04724	0	
2.1660	1.94668	-3.96559	0	
2.1667	0.725882	-4.88394	0	
2.1673	0.725882	-3.67339	0	
2.1680	0.395936	-3.04724	0	
2.1687	1.02283	-3.67339	0	
2.1693	3.46444	-1.83669	0	
2.1700	3.76139	0.605274	0	
2.1707	1.94668	-0.313073	0	
2.1713	1.31979	-0.313073	0	
2.1720	-0.824866	2.75504	0	
2.1727	-2.63957	5.17614	0	
2.1733	0.0989839	4.88394	0	
2.1740	0.0989839	5.48921	0	
2.1747	-5.08117	8.24425	0	
2.1753	-4.48727	7.61811	0	
2.1760	-0.49492	3.96559	0	
2.1767	-2.63957	3.96559	0	
2.1773	-4.78422	6.40756	0	
2.1780	-2.04567	5.17614	0	
2.1787	-0.824866	2.44197	0	
2.1793	-0.49492	1.52362	0	
2.1800	2.24364	-0.313073	0	
2.1807	2.24364	-3.04724	0	
2.1813	1.31979	-3.04724	0	
2.1820	4.68524	-3.67339	0	
2.1827	8.34764	-6.40756	0	
2.1833	8.05069	-5.80228	0	
2.1840	5.90604	-4.57086	0	
2.1847	5.27914	-7.63898	0	
2.1853	5.27914	-9.4548	0	
2.1860	4.05834	-7.32591	0	
2.1867	2.54059	-6.11536	0	
2.1873	1.94668	-4.88394	0	
2.1880	2.83754	-2.44197	0	
2.1887	2.83754	-3.96559	0	
2.1893	1.94668	-4.88394	0	
2.1900	1.61674	-1.23142	0	
2.1907	-0.197968	2.1289	0	
2.1913	-2.04567	2.44197	0	
2.1920	-2.04567	4.27866	0	
2.1927	-2.63957	5.17614	0	
2.1933	-4.15732	3.65252	0	
2.1940	-4.48727	5.17614	0	
2.1947	-2.63957	7.32591	0	
2.1953	-2.63957	7.01283	0	
2.1960	-4.48727	5.17614	0	
2.1967	-3.56342	3.96559	0	
2.1973	0.0989839	3.04724	0	
2.1980	1.31979	2.44197	0	
2.1987	-0.824866	1.21055	0	
2.1993	-1.12182	-0.313073	0	
2.2000	-0.49492	0	0	
2.2007	-1.41877	0.313073	0	
2.2013	-0.824866	-2.1289	0	
2.2020	1.61674	-5.19701	0	
2.2027	1.94668	-6.40756	0	
2.2033	1.02283	-6.40756	0	
2.2040	0.0989839	-5.80228	0	
2.2047	1.31979	-5.19701	0	
2.2053	3.46444	-5.80228	0	
2.2060	3.46444	-6.40756	0	
2.2067	2.54059	-5.80228	0	
2.2073	3.76139	-6.11536	0	
2.2080	4.68524	-8.24425	0	
2.2087	4.05834	-7.63898	0	
2.2093	4.68524	-4.27866	0	
2.2100	3.76139	-2.44197	0	
2.2107	1.94668	-0.918347	0	
2.2113	1.94668	0	0	
2.2120	1.94668	-0.313073	0	
2.2127	-0.824866	1.21055	0	
2.2133	-3.56342	4.88394	0	
2.2140	-4.48727	5.48921	0	
2.2147	-4.78422	5.17614	0	
2.2153	-4.48727	5.17614	0	
2.2160	-5.08117	3.36032	0	
2.2167	-6.30198	2.1289	0	
2.2173	-6.30198	3.36032	0	
2.2180	-5.37813	2.44197	0	
2.2187	-5.08117	-0.313073	0	
2.2193	-4.78422	-0.313073	0	
2.2200	-2.63957	-1.23142	0	
2.2207	-0.197968	-3.96559	0	
2.2213	1.94668	-5.80228	0	
2.2220	3.76139	-7.32591	0	
2.2227	4.68524	-9.4548	0	
2.2233	2.83754	-10.0809	0	
2.2240	1.94668	-10.3731	0	
2.2247	3.76139	-11.2915	0	
2.2253	4.68524	-9.76787	0	
2.2260	4.68524	-8.84953	0	
2.2267	4.98219	-8.84953	0	
2.2273	2.83754	-6.40756	0	
2.2280	0.725882	-4.88394	0	
2.2287	2.83754	-6.72063	0	
2.2293	4.68524	-7.32591	0	
2.2300	3.76139	-3.04724	0	
2.2307	4.38829	0.605274	0	
2.2313	4.05834	0.605274	0	
2.2320	2.24364	0	0	
2.2327	1.31979	1.52362	0	
2.2333	0.0989839	5.17614	0	
2.2340	-0.824866	7.01283	0	
2.2347	2.83754	7.32591	0	
2.2353	4.05834	5.48921	0	
2.2360	1.02283	2.44197	0	
2.2367	-0.824866	1.52362	0	
2.2373	0.0989839	1.52362	0	
2.2380	0.725882	-1.23142	0	
2.2387	1.94668	-1.23142	0	
2.2393	2.54059	2.44197	0	
2.2400	1.02283	1.21055	0	
2.2407	0.395936	-2.75504	0	
2.2413	0.395936	-3.36032	0	
2.2420	1.02283	-5.48921	0	
2.2427	2.83754	-9.4548	0	
2.2433	2.83754	-7.63898	0	
2.2440	1.02283	-3.96559	0	
2.2447	2.54059	-3.96559	0	
2.2453	4.05834	-6.40756	0	
2.2460	3.76139	-6.40756	0	
2.2467	2.83754	-4.88394	0	
2.2473	2.24364	-5.48921	0	
2.2480	2.24364	-7.63898	0	
2.2487	3.76139	-6.72063	0	
2.2493	3.16749	-3.96559	0	
2.2500	2.24364	-4.88394	0	
2.2507	3.46444	-3.96559	0	
2.2513	3.76139	-0.918347	0	
2.2520	2.83754	0.313073	0	
2.2527	3.46444	1.52362	0	
2.2533	3.16749	5.80228	0	
2.2540	1.94668	5.48921	0	
2.2547	2.54059	2.75504	0	
2.2553	3.46444	4.27866	0	
2.2560	2.83754	5.48921	0	
2.2567	2.83754	2.44197	0	
2.2573	2.83754	1.52362	0	
2.2580	2.83754	3.04724	0	
2.2587	1.31979	3.04724	0	
2.2593	1.02283	1.83669	0	
2.2600	1.61674	0.918347	0	
2.2607	1.94668	0	0	
2.2613	2.54059	-1.52362	0	
2.2620	2.83754	-3.96559	0	
2.2627	1.02283	-4.57086	0	
2.2633	2.83754	-4.88394	0	
2.2640	6.49994	-7.01283	0	
2.2647	4.05834	-8.53645	0	
2.2653	-0.197968	-7.32591	0	
2.2660	3.76139	-6.40756	0	
2.2667	9.27149	-6.11536	0	
2.2673	6.49994	-6.11536	0	
2.2680	3.46444	-7.63898	0	
2.2687	4.68524	-7.63898	0	
2.2693	3.76139	-4.57086	0	
2.2700	0.0989839	-2.75504	0	
2.2707	-1.71572	-1.83669	0	
2.2713	-2.34262	1.52362	0	
2.2720	-4.15732	5.17614	0	
2.2727	-5.70807	6.09449	0	
2.2733	-6.92887	4.88394	0	
2.2740	-6.30198	5.17614	0	
2.2747	-3.86037	6.40756	0	
2.2753	-4.48727	6.72063	0	
2.2760	-5.70807	6.09449	0	
2.2767	-2.63957	4.27866	0	
2.2773	-0.197968	0.605274	0	
2.2780	-0.824866	-0.605274	0	
2.2787	1.94668	-0.313073	0	
2.2793	4.98219	-1.23142	0	
2.2800	2.83754	-2.1289	0	
2.2807	3.76139	-2.1289	0	
2.2813	9.56845	-5.80228	0	
2.2820	8.6446	-9.4548	0	
2.2827	3.76139	-7.63898	0	
2.2833	4.98219	-5.80228	0	
2.2840	6.82989	-8.53645	0	
2.2847	5.27914	-10.3731	0	
2.2853	6.20299	-7.63898	0	
2.2860	7.72075	-3.96559	0	
2.2867	4.98219	-5.80228	0	
2.2873	2.83754	-7.93118	0	
2.2880	3.76139	-4.27866	0	
2.2887	4.05834	-0.313073	0	
2.2893	1.94668	-0.605274	0	
2.2900	1.02283	-0.313073	0	
2.2907	2.54059	1.21055	0	
2.2913	1.02283	2.1289	0	
2.2920	-2.63957	4.27866	0	
2.2927	-3.56342	7.32591	0	
2.2933	-2.34262	6.72063	0	
2.2940	-2.63957	5.80228	0	
2.2947	-3.56342	7.01283	0	
2.2953	-4.78422	7.93118	0	
2.2960	-6.30198	7.01283	0	
2.2967	-5.08117	5.48921	0	
2.2973	-2.04567	3.36032	0	
2.2980	-2.63957	2.1289	0	
2.2987	-3.56342	0.313073	0	
2.2993	-0.824866	-0.605274	0	
2.3000	-0.824866	2.1289	0	
2.3007	-3.56342	2.75504	0	
2.3013	-2.63957	-2.1289	0	
2.3020	1.02283	-3.36032	0	
2.3027	3.16749	-2.1289	0	
2.3033	2.83754	-4.88394	0	
2.3040	2.83754	-6.72063	0	
2.3047	3.16749	-4.88394	0	
2.3053	3.46444	-5.80228	0	
2.3060	3.76139	-7.63898	0	
2.3067	5.60909	-6.11536	0	
2.3073	5.90604	-5.48921	0	
2.3080	2.83754	-5.19701	0	
2.3087	2.54059	-3.36032	0	
2.3093	4.05834	-2.1289	0	
2.3100	2.83754	-2.1289	0	
2.3107	0.395936	-0.313073	0	
2.3113	0.395936	2.1289	0	
2.3120	0.725882	4.88394	0	
2.3127	-0.824866	7.32591	0	
2.3133	-0.824866	7.61811	0	
2.3140	1.02283	6.40756	0	
2.3147	2.83754	6.40756	0	
2.3153	1.94668	7.01283	0	
2.3160	-1.71572	5.17614	0	
2.3167	-1.71572	2.75504	0	
2.3173	2.24364	2.44197	0	
2.3180	2.83754	4.27866	0	
2.3187	-0.197968	4.57086	0	
2.3193	-0.49492	3.04724	0	
2.3200	2.54059	1.83669	0	
2.3207	2.83754	0.918347	0	
2.3213	2.24364	-1.23142	0	
2.3220	2.83754	-3.04724	0	
2.3227	2.83754	-3.04724	0	
2.3233	2.83754	-3.96559	0	
2.3240	4.38829	-6.40756	0	
2.3247	1.94668	-6.40756	0	
2.3253	-2.93652	-3.36032	0	
2.3260	-2.93652	-0.605274	0	
2.3267	-0.49492	-0.605274	0	
2.3273	-1.71572	-1.83669	0	
2.3280	-4.48727	-2.1289	0	
2.3287	-5.37813	-1.23142	0	
2.3293	-5.37813	1.52362	0	
2.3300	-6.00502	5.80228	0	
2.3307	-7.22583	5.80228	0	
2.3313	-7.22583	4.27866	0	
2.3320	-5.37813	6.40756	0	
2.3327	-5.37813	9.1626	0	
2.3333	-6.00502	8.84953	0	
2.3340	-4.78422	9.76787	0	
2.3347	-4.48727	10.3731	0	
2.3353	-6.30198	7.93118	0	
2.3360	-7.81973	7.61811	0	
2.3367	-7.52278	7.61811	0	
2.3373	-6.59893	5.17614	0	
2.3380	-5.08117	5.17614	0	
2.3387	-4.48727	7.61811	0	
2.3393	-3.56342	4.57086	0	
2.3400	-3.56342	0	0	
2.3407	-5.37813	1.83669	0	
2.3413	-6.00502	4.27866	0	
2.3420	-3.26647	0.313073	0	
2.3427	-1.71572	-3.36032	0	
2.3433	-1.12182	-2.1289	0	
2.3440	0.0989839	-0.605274	0	
2.3447	-0.49492	-3.04724	0	
2.3453	-1.12182	-5.19701	0	
2.3460	0.0989839	-4.88394	0	
2.3467	-0.824866	-2.44197	0	
2.3473	-3.26647	0.605274	0	
2.3480	-1.71572	1.52362	0	
2.3487	-1.12182	0.313073	0	
2.3493	-2.93652	0.313073	0	
2.3500	-1.71572	2.1289	0	
2.3507	-0.49492	3.04724	0	
2.3513	-4.15732	4.57086	0	
2.3520	-6.59893	6.40756	0	
2.3527	-5.70807	6.40756	0	
2.3533	-5.37813	7.61811	0	
2.3540	-5.70807	9.4548	0	
2.3547	-6.00502	9.1626	0	
2.3553	-6.30198	7.32591	0	
2.3560	-4.78422	6.40756	0	
2.3567	-2.34262	5.48921	0	
2.3573	-2.63957	5.17614	0	
2.3580	-4.15732	6.09449	0	
2.3587	-2.93652	5.48921	0	
2.3593	-0.824866	3.65252	0	
2.3600	1.02283	1.52362	0	
2.3607	0.0989839	0.605274	0	
2.3613	-0.824866	-0.313073	0	
2.3620	1.61674	-1.83669	0	
2.3627	3.76139	-3.96559	0	
2.3633	1.94668	-4.88394	0	
2.3640	1.31979	-5.19701	0	
2.3647	4.05834	-5.80228	0	
2.3653	3.76139	-6.72063	0	
2.3660	0.0989839	-5.48921	0	
2.3667	-1.71572	-2.1289	0	
2.3673	-0.824866	-1.52362	0	
2.3680	-0.197968	-3.96559	0	
2.3687	0.0989839	-2.44197	0	
2.3693	-0.197968	1.52362	0	
2.3700	1.02283	2.1289	0	
2.3707	1.94668	1.21055	0	
2.3713	0.395936	3.36032	0	
2.3720	-0.49492	7.01283	0	
2.3727	0.725882	7.93118	0	
2.3733	0.0989839	6.40756	0	
2.3740	-2.63957	5.17614	0	
2.3747	-4.48727	5.17614	0	
2.3753	-5.08117	7.01283	0	
2.3760	-4.48727	8.84953	0	
2.3767	-4.15732	6.72063	0	
2.3773	-3.86037	2.1289	0	
2.3780	-2.63957	0.605274	0	
2.3787	-0.197968	2.75504	0	
2.3793	-0.49492	3.36032	0	
2.3800	-3.56342	1.21055	0	
2.3807	-4.78422	-0.313073	0	
2.3813	-1.71572	-1.23142	0	
2.3820	2.83754	-3.36032	0	
2.3827	2.83754	-5.80228	0	
2.3833	-0.197968	-7.01283	0	
2.3840	-1.71572	-6.72063	0	
2.3847	-1.71572	-6.11536	0	
2.3853	-2.34262	-4.57086	0	
2.3860	-1.71572	-3.67339	0	
2.3867	0.0989839	-3.96559	0	
2.3873	-0.49492	-2.75504	0	
2.3880	-1.12182	0	0	
2.3887	-1.12182	1.52362	0	
2.3893	-2.04567	1.21055	0	
2.3900	-3.56342	1.21055	0	
2.3907	-6.00502	2.1289	0	
2.3913	-8.14968	4.27866	0	
2.3920	-7.52278	6.09449	0	
2.3927	-5.37813	7.61811	0	
2.3933	-5.70807	9.1626	0	
2.3940	-6.30198	9.76787	0	
2.3947	-5.08117	8.84953	0	
2.3953	-3.86037	8.24425	0	
2.3960	-2.63957	7.61811	0	
2.3967	-0.49492	5.80228	0	
2.3973	-1.12182	5.17614	0	
2.3980	-3.26647	5.17614	0	
2.3987	-2.63957	3.04724	0	
2.3993	-0.824866	0.605274	0	
2.4000	-1.12182	1.21055	0	
2.4007	-2.63957	1.52362	0	
2.4013	-1.41877	-1.23142	0	
2.4020	1.94668	-2.75504	0	
2.4027	1.94668	-3.96559	0	
2.4033	-0.824866	-6.40756	0	
2.4040	0.725882	-7.01283	0	
2.4047	1.61674	-6.72063	0	
2.4053	0.0989839	-7.93118	0	
2.4060	0.725882	-5.80228	0	
2.4067	0.725882	-3.04724	0	
2.4073	-2.63957	-4.57086	0	
2.4080	-0.824866	-5.80228	0	
2.4087	3.16749	-2.1289	0	
2.4093	1.02283	-0.313073	0	
2.4100	-1.12182	-1.23142	0	
2.4107	1.02283	0.313073	0	
2.4113	1.02283	2.44197	0	
2.4120	-2.93652	3.96559	0	
2.4127	-6.30198	6.40756	0	
2.4133	-7.22583	7.61811	0	
2.4140	-4.78422	5.80228	0	
2.4147	-3.26647	5.17614	0	
2.4153	-4.48727	5.48921	0	
2.4160	-4.48727	3.96559	0	
2.4167	-4.15732	2.1289	0	
2.4173	-6.00502	1.83669	0	
2.4180	-5.37813	1.52362	0	
2.4187	-3.56342	1.83669	0	
2.4193	-3.26647	1.52362	0	
2.4200	-2.63957	-0.605274	0	
2.4207	-0.49492	-1.52362	0	
2.4213	0.395936	-1.23142	0	
2.4220	1.94668	-3.36032	0	
2.4227	3.46444	-6.72063	0	
2.4233	2.24364	-7.32591	0	
2.4240	1.02283	-6.72063	0	
2.4247	2.83754	-8.24425	0	
2.4253	2.83754	-9.1626	0	
2.4260	1.61674	-6.72063	0	
2.4267	1.61674	-3.96559	0	
2.4273	0.395936	-3.67339	0	
2.4280	-1.71572	-3.96559	0	
2.4287	-0.824866	-2.75504	0	
2.4293	1.02283	-1.23142	0	
2.4300	2.83754	-1.23142	0	
2.4307	4.68524	-0.313073	0	
2.4313	5.60909	1.83669	0	
2.4320	5.60909	1.52362	0	
2.4327	6.49994	0.918347	0	
2.4333	8.05069	4.27866	0	
2.4340	8.05069	5.17614	0	
2.4347	6.49994	2.44197	0	
2.4353	4.05834	3.04724	0	
2.4360	3.76139	6.09449	0	
2.4367	4.05834	3.96559	0	
2.4373	1.94668	0.605274	0	
2.4380	-1.71572	3.36032	0	
2.4387	-2.63957	5.17614	0	
2.4393	0.0989839	0.313073	0	
2.4400	2.24364	-3.96559	0	
2.4407	2.83754	-2.75504	0	
2.4413	2.83754	-4.27866	0	
2.4420	4.68524	-7.63898	0	
2.4427	8.6446	-5.80228	0	
2.4433	10.7892	-6.40756	0	
2.4440	11.0862	-10.3731	0	
2.4447	8.94155	-9.4548	0	
2.4453	5.27914	-6.72063	0	
2.4460	5.27914	-6.72063	0	
2.4467	6.49994	-6.40756	0	
2.4473	2.83754	-5.19701	0	
2.4480	-0.197968	-4.27866	0	
2.4487	1.31979	-2.1289	0	
2.4493	2.83754	-1.23142	0	
2.4500	1.02283	-2.1289	0	
2.4507	-0.197968	-0.918347	0	
2.4513	-0.824866	0.313073	0	
2.4520	-0.49492	1.52362	0	
2.4527	1.02283	4.88394	0	
2.4533	1.31979	6.09449	0	
2.4540	0.0989839	4.57086	0	
2.4547	1.02283	6.40756	0	
2.4553	1.02283	6.40756	0	
2.4560	0.0989839	1.52362	0	
2.4567	0.725882	1.83669	0	
2.4573	2.54059	6.09449	0	
2.4580	1.94668	5.17614	0	
2.4587	0.725882	3.04724	0	
2.4593	1.61674	3.36032	0	
2.4600	1.31979	0.918347	0	
2.4607	-1.12182	-3.67339	0	
2.4613	0.0989839	-5.80228	0	
2.4620	4.38829	-7.01283	0	
2.4627	5.27914	-7.32591	0	
2.4633	4.68524	-7.01283	0	
2.4640	5.27914	-7.63898	0	
2.4647	4.38829	-7.63898	0	
2.4653	4.05834	-9.1626	0	
2.4660	7.72075	-11.2915	0	
2.4667	8.34764	-10.3731	0	
2.4673	4.38829	-7.01283	0	
2.4680	2.54059	-4.27866	0	
2.4687	1.31979	-3.04724	0	
2.4693	0.0989839	-2.1289	0	
2.4700	2.83754	-2.1289	0	
2.4707	5.90604	-1.52362	0	
2.4713	4.05834	0.918347	0	
2.4720	0.395936	4.27866	0	
2.4727	-1.71572	5.17614	0	
2.4733	-1.71572	2.75504	0	
2.4740	0.0989839	2.44197	0	
2.4747	0.725882	5.17614	0	
2.4753	0.395936	4.57086	0	
2.4760	1.02283	1.21055	0	
2.4767	0.725882	1.83669	0	
2.4773	-0.824866	3.36032	0	
2.4780	0.0989839	0.605274	0	
2.4787	0.725882	-0.918347	0	
2.4793	-0.197968	0.605274	0	
2.4800	2.54059	-2.1289	0	
2.4807	6.82989	-5.48921	0	
2.4813	9.27149	-5.48921	0	
2.4820	10.1623	-7.32591	0	
2.4827	10.1623	-10.0809	0	
2.4833	6.49994	-8.84953	0	
2.4840	3.76139	-7.93118	0	
2.4847	4.05834	-9.1626	0	
2.4853	4.05834	-8.53645	0	
2.4860	3.16749	-7.32591	0	
2.4867	1.94668	-6.40756	0	
2.4873	0.395936	-5.19701	0	
2.4880	1.02283	-5.80228	0	
2.4887	1.61674	-7.63898	0	
2.4893	1.02283	-7.93118	0	
2.4900	1.94668	-5.80228	0	
2.4907	3.76139	-2.1289	0	
2.4913	2.83754	1.83669	0	
2.4920	0.395936	2.1289	0	
2.4927	0.0989839	1.83669	0	
2.4933	0.0989839	3.96559	0	
2.4940	0.395936	3.96559	0	
2.4947	0.725882	3.36032	0	
2.4953	0.0989839	4.88394	0	
2.4960	1.02283	4.57086	0	
2.4967	4.05834	2.44197	0	
2.4973	3.76139	-0.313073	0	
2.4980	1.02283	-1.83669	0	
2.4987	1.94668	-1.52362	0	
2.4993	2.54059	-0.605274	0	
2.5000	0.0989839	-2.1289	0	
2.5007	1.94668	-4.57086	0	
2.5013	6.20299	-6.72063	0	
2.5020	4.68524	-9.4548	0	
2.5027	2.83754	-11.6046	0	
2.5033	5.90604	-11.6046	0	
2.5040	5.60909	-9.76787	0	
2.5047	2.83754	-7.63898	0	
2.5053	2.54059	-6.11536	0	
2.5060	1.31979	-5.80228	0	
2.5067	0.0989839	-6.72063	0	
2.5073	0.725882	-6.72063	0	
2.5080	-0.49492	-7.01283	0	
2.5087	-2.04567	-7.93118	0	
2.5093	0.395936	-6.11536	0	
2.5100	2.54059	-1.52362	0	
2.5107	-0.824866	0.918347	0	
2.5113	-4.48727	1.21055	0	
2.5120	-5.37813	2.44197	0	
2.5127	-4.15732	3.36032	0	
2.5133	-2.34262	4.88394	0	
2.5140	-2.04567	8.53645	0	
2.5147	-4.48727	7.93118	0	
2.5153	-5.08117	3.04724	0	
2.5160	-2.63957	0.918347	0	
2.5167	-1.71572	3.36032	0	
2.5173	-0.824866	4.88394	0	
2.5180	1.61674	3.96559	0	
2.5187	2.83754	0.918347	0	
2.5193	1.02283	-0.605274	0	
2.5200	1.02283	1.21055	0	
2.5207	2.24364	1.52362	0	
2.5213	3.16749	-2.1289	0	
2.5220	4.68524	-5.48921	0	
2.5227	6.49994	-5.80228	0	
2.5233	5.27914	-5.19701	0	
2.5240	3.76139	-5.80228	0	
2.5247	2.83754	-7.32591	0	
2.5253	1.02283	-8.24425	0	
2.5260	-0.824866	-7.63898	0	
2.5267	1.02283	-6.40756	0	
2.5273	1.94668	-5.19701	0	
2.5280	-0.197968	-3.96559	0	
2.5287	-0.49492	-2.44197	0	
2.5293	0.725882	-2.1289	0	
2.5300	-0.824866	-1.52362	0	
2.5307	-2.34262	0	0	
2.5313	-2.63957	1.52362	0	
2.5320	-5.70807	4.57086	0	
2.5327	-7.22583	8.24425	0	
2.5333	-4.48727	8.53645	0	
2.5340	-2.63957	7.93118	0	
2.5347	-4.48727	7.93118	0	
2.5353	-5.37813	6.09449	0	
2.5360	-4.78422	4.27866	0	
2.5367	-3.56342	5.17614	0	
2.5373	-1.71572	2.75504	0	
2.5380	-0.49492	-0.605274	0	
2.5387	-2.04567	0.313073	0	
2.5393	-2.63957	1.83669	0	
2.5400	-0.197968	0.605274	0	
2.5407	0.725882	-1.52362	0	
2.5413	0.0989839	-3.96559	0	
2.5420	2.24364	-7.32591	0	
2.5427	3.76139	-9.4548	0	
2.5433	2.83754	-9.4548	0	
2.5440	3.76139	-7.93118	0	
2.5447	4.98219	-6.11536	0	
2.5453	4.68524	-5.48921	0	
2.5460	4.68524	-6.40756	0	
2.5467	4.68524	-6.72063	0	
2.5473	0.395936	-5.80228	0	
2.5480	-3.26647	-4.27866	0	
2.5487	-3.56342	-4.57086	0	
2.5493	-3.56342	-3.96559	0	
2.5500	-4.48727	0.313073	0	
2.5507	-5.37813	3.36032	0	
2.5513	-5.70807	3.96559	0	
2.5520	-5.08117	5.48921	0	
2.5527	-8.14968	6.09449	0	
2.5533	-10.2613	4.27866	0	
2.5540	-4.78422	6.09449	0	
2.5547	-2.63957	8.84953	0	
2.5553	-5.70807	7.01283	0	
2.5560	-3.26647	5.17614	0	
2.5567	-0.824866	7.32591	0	
2.5573	-4.15732	8.84953	0	
2.5580	-3.26647	7.01283	0	
2.5587	0.0989839	2.75504	0	
2.5593	-1.12182	0.605274	0	
2.5600	1.31979	2.1289	0	
2.5607	5.60909	1.52362	0	
2.5613	3.46444	-3.04724	0	
2.5620	2.24364	-4.88394	0	
2.5627	5.27914	-3.96559	0	
2.5633	4.38829	-5.80228	0	
2.5640	2.83754	-6.11536	0	
2.5647	3.16749	-3.96559	0	
2.5653	1.94668	-3.96559	0	
2.5660	0.395936	-5.80228	0	
2.5667	1.94668	-4.88394	0	
2.5673	2.83754	-2.75504	0	
2.5680	1.94668	-1.23142	0	
2.5687	1.02283	-0.605274	0	
2.5693	-0.49492	0	0	
2.5700	-1.41877	0	0	
2.5707	-3.86037	0	0	
2.5713	-7.52278	1.52362	0	
2.5720	-7.22583	5.17614	0	
2.5727	-5.37813	8.84953	0	
2.5733	-6.59893	9.4548	0	
2.5740	-6.92887	8.84953	0	
2.5747	-5.70807	7.93118	0	
2.5753	-6.30198	6.40756	0	
2.5760	-6.30198	5.48921	0	
2.5767	-4.48727	5.48921	0	
2.5773	-4.78422	4.88394	0	
2.5780	-4.48727	4.27866	0	
2.5787	-1.71572	4.27866	0	
2.5793	-1.71572	2.44197	0	
2.5800	-3.86037	0.313073	0	
2.5807	-1.41877	-0.605274	0	
2.5813	1.94668	-1.52362	0	
2.5820	4.05834	-3.96559	0	
2.5827	6.20299	-6.72063	0	
2.5833	4.38829	-7.32591	0	
2.5840	2.54059	-7.63898	0	
2.5847	6.20299	-8.24425	0	
2.5853	8.34764	-5.19701	0	
2.5860	5.90604	-2.44197	0	
2.5867	5.90604	-4.57086	0	
2.5873	4.05834	-6.40756	0	
2.5880	-1.71572	-2.44197	0	
2.5887	-1.71572	0.918347	0	
2.5893	2.83754	-0.313073	0	
2.5900	2.83754	-0.605274	0	
2.5907	1.94668	1.52362	0	
2.5913	1.94668	2.75504	0	
2.5920	-1.41877	3.96559	0	
2.5927	-4.48727	4.27866	0	
2.5933	-3.86037	4.57086	0	
2.5940	-4.48727	6.72063	0	
2.5947	-5.70807	7.93118	0	
2.5953	-5.37813	6.40756	0	
2.5960	-3.86037	7.01283	0	
2.5967	-3.56342	8.24425	0	
2.5973	-5.37813	5.17614	0	
2.5980	-6.92887	2.75504	0	
2.5987	-6.59893	4.57086	0	
2.5993	-6.59893	4.27866	0	
2.6000	-6.59893	0	0	
2.6007	-3.86037	0.313073	0	
2.6013	-2.63957	1.83669	0	
2.6020	-2.63957	-2.44197	0	
2.6027	-1.12182	-5.80228	0	
2.6033	0.0989839	-3.96559	0	
2.6040	-1.41877	-3.67339	0	
2.6047	-0.197968	-6.40756	0	
2.6053	3.46444	-7.32591	0	
2.6060	6.49994	-7.01283	0	
2.6067	7.12684	-7.32591	0	
2.6073	4.38829	-5.19701	0	
2.6080	1.61674	-3.96559	0	
2.6087	1.02283	-3.96559	0	
2.6093	1.02283	-1.52362	0	
2.6100	-0.49492	2.44197	0	
2.6107	-2.63957	1.52362	0	
2.6113	-4.48727	0.313073	0	
2.6120	-5.37813	3.36032	0	
2.6127	-5.08117	6.09449	0	
2.6133	-5.37813	5.48921	0	
2.6140	-5.08117	6.40756	0	
2.6147	-3.56342	8.24425	0	
2.6153	-2.63957	7.93118	0	
2.6160	-1.41877	6.40756	0	
2.6167	-0.197968	5.17614	0	
2.6173	-0.824866	3.96559	0	
2.6180	-3.26647	2.1289	0	
2.6187	-5.37813	0.605274	0	
2.6193	-4.48727	0	0	
2.6200	0.725882	0	0	
2.6207	4.38829	-1.83669	0	
2.6213	3.16749	-5.80228	0	
2.6220	2.24364	-9.4548	0	
2.6227	1.31979	-10.6862	0	
2.6233	-0.197968	-9.4548	0	
2.6240	1.94668	-6.40756	0	
2.6247	5.27914	-4.27866	0	
2.6253	3.76139	-4.88394	0	
2.6260	2.54059	-7.32591	0	
2.6267	5.27914	-8.53645	0	
2.6273	5.60909	-5.80228	0	
2.6280	1.94668	-2.1289	0	
2.6287	-1.71572	-2.44197	0	
2.6293	-1.71572	-4.88394	0	
2.6300	-0.824866	-3.04724	0	
2.6307	-1.12182	0.605274	0	
2.6313	-3.56342	2.44197	0	
2.6320	-5.08117	3.36032	0	
2.6327	-5.08117	4.27866	0	
2.6333	-5.37813	5.48921	0	
2.6340	-6.59893	7.01283	0	
2.6347	-6.92887	7.32591	0	
2.6353	-7.22583	6.09449	0	
2.6360	-7.81973	6.09449	0	
2.6367	-8.74358	6.72063	0	
2.6373	-8.44663	6.72063	0	
2.6380	-7.22583	6.09449	0	
2.6387	-6.30198	5.80228	0	
2.6393	-5.70807	4.57086	0	
2.6400	-5.70807	2.75504	0	
2.6407	-6.92887	-0.313073	0	
2.6413	-5.37813	-2.75504	0	
2.6420	0.0989839	-3.36032	0	
2.6427	3.76139	-5.19701	0	
2.6433	3.46444	-8.53645	0	
2.6440	6.20299	-9.4548	0	
2.6447	11.0862	-8.53645	0	
2.6453	12.01	-8.84953	0	
2.6460	12.307	-8.53645	0	
2.6467	14.4517	-7.93118	0	
2.6473	12.9339	-8.53645	0	
2.6480	9.27149	-8.24425	0	
2.6487	8.05069	-4.27866	0	
2.6493	6.20299	-3.04724	0	
2.6500	3.76139	-3.96559	0	
2.6507	4.68524	-2.1289	0	
2.6513	4.68524	1.52362	0	
2.6520	1.94668	3.96559	0	
2.6527	0.395936	5.80228	0	
2.6533	0.0989839	4.57086	0	
2.6540	-2.34262	2.44197	0	
2.6547	-2.63957	4.27866	0	
2.6553	-0.824866	5.17614	0	
2.6560	-1.41877	3.65252	0	
2.6567	-2.63957	4.88394	0	
2.6573	-2.34262	6.09449	0	
2.6580	-2.04567	4.88394	0	
2.6587	-2.34262	3.36032	0	
2.6593	-1.12182	1.21055	0	
2.6600	-0.824866	-1.83669	0	
2.6607	-1.71572	-1.23142	0	
2.6613	0.0989839	-1.23142	0	
2.6620	2.54059	-5.48921	0	
2.6627	1.31979	-6.72063	0	
2.6633	-0.49492	-3.67339	0	
2.6640	0.725882	-4.57086	0	
2.6647	2.24364	-8.24425	0	
2.6653	2.54059	-7.32591	0	
2.6660	2.24364	-3.96559	0	
2.6667	1.02283	-3.96559	0	
2.6673	-0.197968	-3.04724	0	
2.6680	0.0989839	-1.52362	0	
2.6687	1.02283	-2.44197	0	
2.6693	0.725882	-3.36032	0	
2.6700	1.02283	-1.52362	0	
2.6707	2.83754	-0.313073	0	
2.6713	2.83754	-0.605274	0	
2.6720	2.83754	0.918347	0	
2.6727	3.46444	3.96559	0	
2.6733	2.54059	7.01283	0	
2.6740	0.0989839	7.93118	0	
2.6747	0.0989839	5.80228	0	
2.6753	0.725882	5.17614	0	
2.6760	-0.49492	7.01283	0	
2.6767	-2.63957	5.17614	0	
2.6773	-4.48727	1.52362	0	
2.6780	-3.86037	0.605274	0	
2.6787	-0.49492	1.21055	0	
2.6793	1.94668	1.52362	0	
2.6800	1.02283	0.313073	0	
2.6807	0.0989839	-2.1289	0	
2.6813	0.0989839	-2.75504	0	
2.6820	0.0989839	-2.75504	0	
2.6827	1.31979	-3.96559	0	
2.6833	3.46444	-4.27866	0	
2.6840	4.05834	-3.67339	0	
2.6847	1.94668	-5.19701	0	
2.6853	0.0989839	-6.72063	0	
2.6860	2.54059	-4.57086	0	
2.6867	3.46444	-3.96559	0	
2.6873	0.725882	-3.96559	0	
2.6880	-1.71572	-1.23142	0	
2.6887	-2.63957	3.04724	0	
2.6893	-3.86037	1.21055	0	
2.6900	-2.63957	-2.1289	0	
2.6907	-2.04567	1.21055	0	
2.6913	-4.48727	6.09449	0	
2.6920	-2.63957	6.09449	0	
2.6927	0.395936	4.88394	0	
2.6933	-2.04567	6.09449	0	
2.6940	-3.26647	7.01283	0	
2.6947	0.0989839	7.61811	0	
2.6953	0.725882	7.61811	0	
2.6960	1.94668	5.48921	0	
2.6967	5.60909	3.04724	0	
2.6973	5.27914	2.75504	0	
2.6980	4.05834	2.44197	0	
2.6987	7.12684	0.605274	0	
2.6993	6.49994	-0.605274	0	
2.7000	4.38829	-0.918347	0	
2.7007	7.72075	-2.44197	0	
2.7013	11.0862	-4.88394	0	
2.7020	8.34764	-6.11536	0	
2.7027	5.27914	-5.80228	0	
2.7033	3.76139	-6.40756	0	
2.7040	2.83754	-8.53645	0	
2.7047	4.38829	-9.4548	0	
2.7053	6.82989	-8.53645	0	
2.7060	6.49994	-6.72063	0	
2.7067	3.76139	-6.11536	0	
2.7073	3.16749	-4.57086	0	
2.7080	3.46444	-2.75504	0	
2.7087	2.24364	-0.918347	0	
2.7093	1.61674	-0.313073	0	
2.7100	3.76139	-0.313073	0	
2.7107	4.05834	1.21055	0	
2.7113	-2.04567	3.36032	0	
2.7120	-6.00502	5.17614	0	
2.7127	-3.56342	6.40756	0	
2.7133	-5.08117	7.01283	0	
2.7140	-9.04053	4.57086	0	
2.7147	-5.70807	3.36032	0	
2.7153	-1.41877	5.17614	0	
2.7160	-2.93652	4.88394	0	
2.7167	-3.56342	0.918347	0	
2.7173	-1.12182	0.605274	0	
2.7180	-2.04567	2.75504	0	
2.7187	-1.71572	2.75504	0	
2.7193	3.16749	1.52362	0	
2.7200	4.38829	0.605274	0	
2.7207	2.54059	-2.1289	0	
2.7213	3.76139	-3.96559	0	
2.7220	5.60909	-4.57086	0	
2.7227	4.38829	-5.48921	0	
2.7233	4.98219	-7.63898	0	
2.7240	5.90604	-9.4548	0	
2.7247	4.05834	-9.1626	0	
2.7253	2.83754	-7.01283	0	
2.7260	4.05834	-7.32591	0	
2.7267	4.68524	-8.53645	0	
2.7273	2.83754	-6.72063	0	
2.7280	1.94668	-4.27866	0	
2.7287	2.83754	-3.04724	0	
2.7293	2.24364	-1.83669	0	
2.7300	-1.12182	-0.605274	0	
2.7307	-1.12182	-0.313073	0	
2.7313	1.02283	1.52362	0	
2.7320	-1.71572	4.27866	0	
2.7327	-6.30198	5.48921	0	
2.7333	-6.00502	7.01283	0	
2.7340	-4.15732	7.32591	0	
2.7347	-3.56342	6.09449	0	
2.7353	-2.63957	6.72063	0	
2.7360	-2.63957	7.93118	0	
2.7367	-4.48727	5.48921	0	
2.7373	-5.37813	3.04724	0	
2.7380	-4.48727	4.27866	0	
2.7387	-2.93652	4.27866	0	
2.7393	-2.34262	0.605274	0	
2.7400	-2.63957	-0.605274	0	
2.7407	-2.93652	0.313073	0	
2.7413	-2.34262	-2.1289	0	
2.7420	-1.12182	-5.19701	0	
2.7427	1.02283	-4.88394	0	
2.7433	2.83754	-4.57086	0	
2.7440	2.83754	-6.40756	0	
2.7447	2.83754	-8.24425	0	
2.7453	2.54059	-8.24425	0	
2.7460	0.395936	-5.80228	0	
2.7467	-0.824866	-3.04724	0	
2.7473	-0.824866	-4.27866	0	
2.7480	-1.71572	-7.01283	0	
2.7487	-3.26647	-5.80228	0	
2.7493	-2.34262	-3.04724	0	
2.7500	-0.824866	-1.23142	0	
2.7507	-1.12182	-0.313073	0	
2.7513	-2.93652	0.605274	0	
2.7520	-2.63957	2.44197	0	
2.7527	-0.49492	4.27866	0	
2.7533	-1.12182	3.36032	0	
2.7540	-2.34262	2.44197	0	
2.7547	-1.12182	4.57086	0	
2.7553	-0.824866	4.88394	0	
2.7560	-3.56342	3.36032	0	
2.7567	-4.15732	4.57086	0	
2.7573	-1.41877	5.17614	0	
2.7580	-0.197968	3.04724	0	
2.7587	0.0989839	3.04724	0	
2.7593	2.83754	3.96559	0	
2.7600	3.76139	1.52362	0	
2.7607	2.24364	-0.313073	0	
2.7613	1.61674	-1.23142	0	
2.7620	3.76139	-3.96559	0	
2.7627	3.46444	-4.88394	0	
2.7633	1.61674	-3.96559	0	
2.7640	2.83754	-3.67339	0	
2.7647	4.05834	-4.88394	0	
2.7653	2.24364	-5.48921	0	
2.7660	1.31979	-4.88394	0	
2.7667	1.02283	-4.88394	0	
2.7673	-1.12182	-4.27866	0	
2.7680	-0.824866	-3.67339	0	
2.7687	1.94668	-3.04724	0	
2.7693	0.395936	-3.04724	0	
2.7700	-2.93652	-2.44197	0	
2.7707	-1.41877	-0.605274	0	
2.7713	1.61674	0.605274	0	
2.7720	-0.824866	1.21055	0	
2.7727	-5.08117	2.75504	0	
2.7733	-6.30198	5.17614	0	
2.7740	-6.59893	6.09449	0	
2.7747	-6.59893	7.32591	0	
2.7753	-5.70807	7.32591	0	
2.7760	-6.30198	5.48921	0	
2.7767	-9.04053	5.17614	0	
2.7773	-9.04053	7.93118	0	
2.7780	-7.52278	7.32591	0	
2.7787	-7.22583	2.44197	0	
2.7793	-5.37813	-0.918347	0	
2.7800	-2.34262	0.605274	0	
2.7807	-0.49492	1.83669	0	
2.7813	2.83754	-1.83669	0	
2.7820	7.42379	-6.11536	0	
2.7827	8.05069	-6.40756	0	
2.7833	7.12684	-4.88394	0	
2.7840	8.6446	-3.96559	0	
2.7847	11.0862	-4.88394	0	
2.7853	10.1623	-6.40756	0	
2.7860	6.49994	-6.72063	0	
2.7867	4.68524	-5.19701	0	
2.7873	8.34764	-4.88394	0	
2.7880	6.20299	-5.19701	0	
2.7887	-2.63957	-2.1289	0	
2.7893	-4.78422	1.52362	0	
2.7900	-0.824866	0.605274	0	
2.7907	-1.71572	0	0	
2.7913	-4.15732	3.65252	0	
2.7920	-1.41877	6.40756	0	
2.7927	0.0989839	5.17614	0	
2.7933	0.0989839	2.44197	0	
2.7940	1.02283	3.04724	0	
2.7947	-0.49492	7.32591	0	
2.7953	-2.04567	7.93118	0	
2.7960	-0.49492	4.88394	0	
2.7967	0.0989839	5.17614	0	
2.7973	-1.71572	7.01283	0	
2.7980	0.0989839	3.65252	0	
2.7987	2.83754	-0.605274	0	
2.7993	2.83754	-0.918347	0	
2.8000	1.94668	0.605274	0	
2.8007	1.94668	-0.313073	0	
2.8013	2.83754	-3.96559	0	
2.8020	4.05834	-6.40756	0	
2.8027	3.46444	-6.72063	0	
2.8033	2.83754	-7.32591	0	
2.8040	4.68524	-8.24425	0	
2.8047	4.98219	-7.01283	0	
2.8053	2.83754	-6.40756	0	
2.8060	3.46444	-7.32591	0	
2.8067	5.60909	-6.40756	0	
2.8073	6.49994	-3.96559	0	
2.8080	4.98219	-3.04724	0	
2.8087	2.83754	-3.04724	0	
2.8093	2.24364	-3.04724	0	
2.8100	2.54059	-3.36032	0	
2.8107	1.02283	-3.04724	0	
2.8113	-0.197968	0.313073	0	
2.8120	0.725882	3.36032	0	
2.8127	-1.12182	3.36032	0	
2.8133	-3.26647	3.36032	0	
2.8140	-1.12182	4.57086	0	
2.8147	0.395936	5.17614	0	
2.8153	-1.71572	4.88394	0	
2.8160	-2.93652	4.57086	0	
2.8167	-2.34262	3.96559	0	
2.8173	0.0989839	2.75504	0	
2.8180	1.94668	2.44197	0	
2.8187	1.94668	2.44197	0	
2.8193	1.31979	1.83669	0	
2.8200	1.31979	2.1289	0	
2.8207	1.02283	0.918347	0	
2.8213	1.94668	-2.44197	0	
2.8220	2.83754	-4.57086	0	
2.8227	2.83754	-3.96559	0	
2.8233	3.16749	-5.80228	0	
2.8240	2.24364	-8.24425	0	
2.8247	0.0989839	-6.11536	0	
2.8253	1.61674	-5.19701	0	
2.8260	2.24364	-8.53645	0	
2.8267	-1.41877	-7.93118	0	
2.8273	-4.78422	-4.88394	0	
2.8280	-7.22583	-3.96559	0	
2.8287	-8.14968	-3.36032	0	
2.8293	-5.37813	-1.23142	0	
2.8300	-4.15732	-2.1289	0	
2.8307	-7.52278	-1.52362	0	
2.8313	-9.04053	3.36032	0	
2.8320	-7.22583	4.27866	0	
2.8327	-7.81973	2.44197	0	
2.8333	-8.44663	4.27866	0	
2.8340	-5.70807	5.80228	0	
2.8347	-1.71572	3.96559	0	
2.8353	0.395936	4.27866	0	
2.8360	-0.197968	5.80228	0	
2.8367	-1.71572	5.17614	0	
2.8373	-1.71572	4.57086	0	
2.8380	-1.71572	3.36032	0	
2.8387	-2.63957	1.83669	0	
2.8393	-3.26647	1.52362	0	
2.8400	-2.04567	1.52362	0	
2.8407	-1.71572	-0.313073	0	
2.8413	-2.93652	-3.36032	0	
2.8420	-1.71572	-4.88394	0	
2.8427	1.31979	-3.96559	0	
2.8433	0.0989839	-4.88394	0	
2.8440	-2.63957	-7.93118	0	
2.8447	0.395936	-8.53645	0	
2.8453	1.61674	-6.72063	0	
2.8460	-3.56342	-7.63898	0	
2.8467	-5.37813	-7.32591	0	
2.8473	-3.56342	-2.44197	0	
2.8480	-4.78422	-0.313073	0	
2.8487	-5.37813	-2.1289	0	
2.8493	-3.56342	-0.605274	0	
2.8500	-3.56342	0.605274	0	
2.8507	-2.63957	-1.52362	0	
2.8513	-1.41877	-0.313073	0	
2.8520	-2.34262	4.27866	0	
2.8527	-2.04567	6.40756	0	
2.8533	-2.34262	5.80228	0	
2.8540	-2.93652	4.88394	0	
2.8547	-0.197968	4.57086	0	
2.8553	0.725882	4.88394	0	
2.8560	-2.63957	4.88394	0	
2.8567	-2.34262	4.88394	0	
2.8573	-0.197968	5.17614	0	
2.8580	-1.41877	4.27866	0	
2.8587	-1.71572	0.605274	0	
2.8593	-0.824866	-1.23142	0	
2.8600	-0.824866	-0.313073	0	
2.8607	0.0989839	-1.23142	0	
2.8613	0.395936	-4.27866	0	
2.8620	-1.41877	-6.72063	0	
2.8627	-0.197968	-6.40756	0	
2.8633	1.94668	-5.80228	0	
2.8640	0.725882	-6.72063	0	
2.8647	-0.49492	-7.32591	0	
2.8653	1.31979	-7.01283	0	
2.8660	2.83754	-6.40756	0	
2.8667	1.94668	-3.96559	0	
2.8673	-0.197968	-1.23142	0	
2.8680	-3.56342	-2.1289	0	
2.8687	-5.37813	-2.1289	0	
2.8693	-4.78422	-1.23142	0	
2.8700	-3.56342	-3.36032	0	
2.8707	-4.48727	-2.75504	0	
2.8713	-6.30198	3.96559	0	
2.8720	-5.70807	7.01283	0	
2.8727	-5.37813	6.09449	0	
2.8733	-7.52278	7.32591	0	
2.8740	-6.00502	7.01283	0	
2.8747	0.0989839	4.27866	0	
2.8753	1.94668	5.17614	0	
2.8760	-0.49492	6.09449	0	
2.8767	-1.71572	2.44197	0	
2.8773	-1.41877	4.27866	0	
2.8780	0.0989839	7.93118	0	
2.8787	1.61674	4.88394	0	
2.8793	-0.197968	1.52362	0	
2.8800	-3.86037	2.44197	0	
2.8807	-2.63957	0.605274	0	
2.8813	0.725882	-3.36032	0	
2.8820	-0.197968	-4.57086	0	
2.8827	-0.197968	-3.96559	0	
2.8833	2.54059	-3.67339	0	
2.8840	2.83754	-3.96559	0	
2.8847	2.24364	-6.72063	0	
2.8853	3.76139	-9.4548	0	
2.8860	6.20299	-9.4548	0	
2.8867	5.60909	-6.11536	0	
2.8873	4.68524	-3.04724	0	
2.8880	5.27914	-3.96559	0	
2.8887	7.72075	-4.88394	0	
2.8893	8.34764	-1.52362	0	
2.8900	6.49994	-0.918347	0	
2.8907	5.60909	-2.1289	0	
2.8913	4.98219	1.83669	0	
2.8920	2.83754	5.17614	0	
2.8927	0.0989839	4.88394	0	
2.8933	-0.197968	6.72063	0	
2.8940	-0.197968	9.76787	0	
2.8947	-0.49492	8.53645	0	
2.8953	-0.49492	6.09449	0	
2.8960	0.0989839	5.80228	0	
2.8967	-0.197968	5.17614	0	
2.8973	0.0989839	4.27866	0	
2.8980	1.02283	3.36032	0	
2.8987	0.0989839	3.65252	0	
2.8993	-2.63957	4.57086	0	
2.9000	-2.04567	2.75504	0	
2.9007	-0.197968	-1.52362	0	
2.9013	0.395936	-3.36032	0	
2.9020	2.54059	-3.04724	0	
2.9027	3.16749	-3.96559	0	
2.9033	1.61674	-4.88394	0	
2.9040	1.61674	-5.80228	0	
2.9047	4.38829	-6.11536	0	
2.9053	6.82989	-5.80228	0	
2.9060	8.34764	-5.80228	0	
2.9067	6.49994	-6.72063	0	
2.9073	4.38829	-5.48921	0	
2.9080	4.05834	-3.96559	0	
2.9087	3.16749	-3.96559	0	
2.9093	1.61674	-2.1289	0	
2.9100	1.94668	2.44197	0	
2.9107	1.02283	2.44197	0	
2.9113	-1.71572	1.52362	0	
2.9120	-1.12182	3.65252	0	
2.9127	0.725882	4.27866	0	
2.9133	1.02283	4.88394	0	
2.9140	0.395936	7.32591	0	
2.9147	-1.12182	8.24425	0	
2.9153	-2.34262	7.01283	0	
2.9160	0.725882	5.17614	0	
2.9167	2.54059	3.36032	0	
2.9173	0.725882	2.1289	0	
2.9180	0.395936	3.36032	0	
2.9187	1.94668	3.36032	0	
2.9193	2.83754	1.52362	0	
2.9200	3.76139	0.918347	0	
2.9207	4.38829	0.918347	0	
2.9213	4.98219	-2.44197	0	
2.9220	6.49994	-7.01283	0	
2.9227	4.98219	-7.01283	0	
2.9233	3.76139	-3.96559	0	
2.9240	5.27914	-5.80228	0	
2.9247	3.76139	-7.93118	0	
2.9253	0.725882	-5.19701	0	
2.9260	1.31979	-4.57086	0	
2.9267	1.94668	-7.63898	0	
2.9273	-0.824866	-6.11536	0	
2.9280	-3.26647	-2.44197	0	
2.9287	-2.63957	-2.75504	0	
2.9293	-0.824866	-3.67339	0	
2.9300	-0.824866	-1.23142	0	
2.9307	-3.26647	1.21055	0	
2.9313	-4.48727	2.44197	0	
2.9320	-4.48727	3.36032	0	
2.9327	-5.70807	4.27866	0	
2.9333	-6.30198	4.57086	0	
2.9340	-4.78422	5.48921	0	
2.9347	-6.00502	7.32591	0	
2.9353	-8.14968	7.01283	0	
2.9360	-7.81973	4.57086	0	
2.9367	-6.59893	4.27866	0	
2.9373	-5.37813	5.17614	0	
2.9380	-2.93652	3.36032	0	
2.9387	-2.63957	3.96559	0	
2.9393	-2.93652	5.48921	0	
2.9400	-0.824866	2.1289	0	
2.9407	0.395936	-1.52362	0	
2.9413	1.02283	-1.52362	0	
2.9420	1.94668	-3.67339	0	
2.9427	2.83754	-5.48921	0	
2.9433	3.76139	-3.96559	0	
2.9440	5.60909	-3.96559	0	
2.9447	3.76139	-5.80228	0	
2.9453	0.725882	-6.40756	0	
2.9460	1.02283	-5.80228	0	
2.9467	2.83754	-4.27866	0	
2.9473	0.395936	-3.67339	0	
2.9480	-2.63957	-3.96559	0	
2.9487	-2.93652	-4.27866	0	
2.9493	-1.71572	-5.80228	0	
2.9500	-1.71572	-6.72063	0	
