0.0007	3.53701	-8.31183	0	
0.0013	1.41481	-22.9624	0	
0.0020	2.64097	-19.608	0	
0.0027	5.0933	-13.7873	0	
0.0033	5.37626	-8.90377	0	
0.0040	5.37626	7.57191	0	
0.0047	4.48022	19.1641	0	
0.0053	5.70638	10.6056	0	
0.0060	9.9508	1.77582	0	
0.0067	12.6861	2.36776	0	
0.0073	14.2424	-0.0739926	0	
0.0080	16.3646	-3.10769	0	
0.0087	19.0999	-1.89914	0	
0.0093	21.8823	-1.89914	0	
0.0100	23.0613	-2.81172	0	
0.0107	19.0999	-1.28254	0	
0.0113	13.6293	-2.81172	0	
0.0120	11.79	-4.04493	0	
0.0127	12.073	-1.28254	0	
0.0133	12.6861	-0.369963	0	
0.0140	13.9123	-3.72429	0	
0.0147	12.6861	-4.9575	0	
0.0153	9.9508	-5.25347	0	
0.0160	9.9508	-6.78265	0	
0.0167	11.5071	-7.39926	0	
0.0173	12.073	-6.48668	0	
0.0180	14.5253	-5.54944	0	
0.0187	15.4685	-5.54944	0	
0.0193	12.4031	-6.16605	0	
0.0200	9.05476	-5.87008	0	
0.0207	6.31946	-5.54944	0	
0.0213	5.37626	-5.54944	0	
0.0220	6.31946	-3.10769	0	
0.0227	2.64097	-0.665933	0	
0.0233	-5.28194	0.246642	0	
0.0240	-6.83823	2.6884	0	
0.0247	-1.93357	5.42612	0	
0.0253	1.69777	3.60097	0	
0.0260	4.76318	0.542612	0	
0.0267	10.894	0.838582	0	
0.0273	14.5253	1.77582	0	
0.0280	14.8555	1.15922	0	
0.0287	12.6861	-0.665933	0	
0.0293	10.894	-3.72429	0	
0.0300	11.79	-5.25347	0	
0.0307	13.6293	-3.10769	0	
0.0313	11.177	-0.986567	0	
0.0320	6.60243	0.246642	0	
0.0327	2.02789	2.07179	0	
0.0333	-1.65061	2.6884	0	
0.0340	0.518762	3.28034	0	
0.0347	4.48022	4.51355	0	
0.0353	4.1501	4.21758	0	
0.0360	2.64097	2.98437	0	
0.0367	6.31946	1.77582	0	
0.0373	9.33772	-4.63687	0	
0.0380	8.44167	-9.22441	0	
0.0387	7.21551	3.60097	0	
0.0393	9.9508	16.1057	0	
0.0400	13.9123	1.15922	0	
0.0407	17.2606	-23.5543	0	
0.0413	18.8169	-25.7001	0	
0.0420	20.0431	-11.0496	0	
0.0427	21.5522	-2.51575	0	
0.0433	20.326	-3.72429	0	
0.0440	15.7515	-6.48668	0	
0.0447	10.2809	-6.16605	0	
0.0453	5.37626	-1.60317	0	
0.0460	1.69777	1.15922	0	
0.0467	-1.93357	-0.0739926	0	
0.0473	-5.61206	3.28034	0	
0.0480	-6.50811	13.0474	0	
0.0487	-4.66886	18.8434	0	
0.0493	-2.87677	18.8434	0	
0.0500	-2.26369	19.1641	0	
0.0507	0.801723	16.7223	0	
0.0513	5.37626	3.89694	0	
0.0520	9.33772	-11.9621	0	
0.0527	13.0162	-17.4622	0	
0.0533	11.79	-12.5787	0	
0.0540	4.1501	-9.22441	0	
0.0547	-2.26369	-9.84101	0	
0.0553	-3.48985	-7.69523	0	
0.0560	-2.54665	-5.87008	0	
0.0567	-0.0943204	-9.22441	0	
0.0573	3.25405	-11.6662	0	
0.0580	5.98934	-8.31183	0	
0.0587	7.21551	-5.54944	0	
0.0593	5.98934	-6.16605	0	
0.0600	1.69777	-5.54944	0	
0.0607	0.518762	-1.89914	0	
0.0613	2.64097	4.21758	0	
0.0620	3.53701	10.6056	0	
0.0627	3.86714	10.9262	0	
0.0633	4.48022	4.51355	0	
0.0640	4.48022	0.838582	0	
0.0647	4.48022	5.72209	0	
0.0653	4.1501	10.0137	0	
0.0660	2.64097	7.25127	0	
0.0667	4.1501	4.51355	0	
0.0673	5.98934	3.60097	0	
0.0680	4.1501	2.07179	0	
0.0687	1.69777	2.07179	0	
0.0693	2.31085	4.51355	0	
0.0700	4.48022	4.51355	0	
0.0707	8.11155	4.51355	0	
0.0713	9.9508	4.51355	0	
0.0720	8.44167	2.36776	0	
0.0727	6.31946	1.45519	0	
0.0733	5.37626	2.36776	0	
0.0740	5.37626	-0.369963	0	
0.0747	5.37626	-4.63687	0	
0.0753	5.37626	-5.54944	0	
0.0760	6.88539	-6.16605	0	
0.0767	9.33772	-6.48668	0	
0.0773	8.11155	-4.04493	0	
0.0780	5.37626	-3.72429	0	
0.0787	7.21551	-5.54944	0	
0.0793	9.05476	-3.72429	0	
0.0800	8.72463	3.60097	0	
0.0807	7.82859	8.16385	0	
0.0813	6.60243	4.51355	0	
0.0820	6.60243	1.15922	0	
0.0827	6.60243	6.04273	0	
0.0833	3.53701	10.6056	0	
0.0840	2.64097	9.10108	0	
0.0847	4.48022	12.7514	0	
0.0853	2.92393	20.9892	0	
0.0860	1.13184	18.5475	0	
0.0867	2.64097	8.78045	0	
0.0873	2.02789	3.60097	0	
0.0880	1.13184	-1.28254	0	
0.0887	6.60243	-8.31183	0	
0.0893	9.05476	-13.1953	0	
0.0900	4.48022	-14.4039	0	
0.0907	4.1501	-12.8747	0	
0.0913	7.49847	-11.0496	0	
0.0920	7.49847	-9.22441	0	
0.0927	7.21551	-4.63687	0	
0.0933	6.88539	-4.63687	0	
0.0940	4.48022	-22.0498	0	
0.0947	4.76318	-39.438	0	
0.0953	5.70638	-33.9379	0	
0.0960	3.53701	-22.0498	0	
0.0967	2.64097	-23.2583	0	
0.0973	3.53701	-36.0837	0	
0.0980	2.64097	-57.7389	0	
0.0987	2.64097	-72.0934	0	
0.0993	2.64097	-38.8214	0	
0.1000	0.801723	37.4649	0	
0.1007	-0.707403	91.4795	0	
0.1013	2.31085	97.8922	0	
0.1020	3.53701	93.3293	0	
0.1027	1.69777	85.6834	0	
0.1033	2.64097	49.3777	0	
0.1040	2.64097	6.9553	0	
0.1047	-2.26369	-5.54944	0	
0.1053	-3.77281	0.838582	0	
0.1060	-0.0943204	6.65933	0	
0.1067	-0.424442	11.5428	0	
0.1073	-4.66886	13.664	0	
0.1080	-4.99898	11.8388	0	
0.1087	-2.87677	10.0137	0	
0.1093	-1.93357	10.0137	0	
0.1100	-1.93357	15.4891	0	
0.1107	-1.93357	20.0766	0	
0.1113	-0.424442	14.5765	0	
0.1120	1.13184	6.9553	0	
0.1127	-0.424442	7.25127	0	
0.1133	-1.03752	6.3387	0	
0.1140	1.69777	0.838582	0	
0.1147	1.69777	0.838582	0	
0.1153	0.801723	3.60097	0	
0.1160	1.69777	2.36776	0	
0.1167	1.13184	2.07179	0	
0.1173	-0.0943204	2.6884	0	
0.1180	1.41481	0.838582	0	
0.1187	0.801723	2.6884	0	
0.1193	0.801723	7.25127	0	
0.1200	10.2809	8.48448	0	
0.1207	20.0431	5.42612	0	
0.1213	16.9777	-0.0739926	0	
0.1220	9.66784	-10.137	0	
0.1227	10.894	-19.608	0	
0.1233	15.4685	-19.608	0	
0.1240	14.8555	-13.4913	0	
0.1247	12.4031	-8.90377	0	
0.1253	12.6861	-7.39926	0	
0.1260	14.5253	-5.54944	0	
0.1267	15.7515	-4.04493	0	
0.1273	15.7515	-4.63687	0	
0.1280	12.6861	-5.54944	0	
0.1287	10.894	-4.9575	0	
0.1293	11.79	-4.63687	0	
0.1300	11.79	-2.51575	0	
0.1307	9.66784	-0.986567	0	
0.1313	8.72463	-9.52038	0	
0.1320	6.60243	-22.0498	0	
0.1327	2.64097	-23.5543	0	
0.1333	1.69777	-15.6371	0	
0.1340	3.25405	-9.22441	0	
0.1347	2.31085	-6.78265	0	
0.1353	0.801723	-7.9912	0	
0.1360	2.31085	-11.9621	0	
0.1367	4.76318	-13.1953	0	
0.1373	5.37626	-5.54944	0	
0.1380	3.53701	3.89694	0	
0.1387	3.53701	4.80952	0	
0.1393	8.72463	-1.89914	0	
0.1400	13.9123	-5.54944	0	
0.1407	15.1384	-4.9575	0	
0.1413	17.8737	-3.72429	0	
0.1420	23.6744	-3.42832	0	
0.1427	24.9006	-5.54944	0	
0.1433	18.8169	-8.90377	0	
0.1440	13.2992	-7.39926	0	
0.1447	11.79	-3.72429	0	
0.1453	6.60243	-3.72429	0	
0.1460	-1.32049	-6.48668	0	
0.1467	-4.10294	-6.78265	0	
0.1473	0.801723	-7.9912	0	
0.1480	4.48022	-10.137	0	
0.1487	5.37626	-6.48668	0	
0.1493	6.31946	-0.0739926	0	
0.1500	3.53701	-0.986567	0	
0.1507	-0.424442	-6.16605	0	
0.1513	0.518762	-8.90377	0	
0.1520	3.53701	-6.16605	0	
0.1527	4.48022	6.3387	0	
0.1533	4.1501	29.2271	0	
0.1540	4.48022	46.6153	0	
0.1547	5.37626	40.2273	0	
0.1553	4.76318	6.04273	0	
0.1560	2.64097	-34.8505	0	
0.1567	1.69777	-48.5884	0	
0.1573	3.25405	-33.9379	0	
0.1580	2.92393	-17.4622	0	
0.1587	0.518762	-11.0496	0	
0.1593	-0.707403	-11.9621	0	
0.1600	-1.93357	-18.6708	0	
0.1607	-5.61206	-22.0498	0	
0.1613	-7.45131	-22.0498	0	
0.1620	-4.66886	-24.1709	0	
0.1627	-3.48985	-22.9624	0	
0.1633	-4.66886	-21.1125	0	
0.1640	-3.48985	-15.9331	0	
0.1647	-1.03752	13.0474	0	
0.1653	-4.10294	50.9069	0	
0.1660	-8.34735	51.8195	0	
0.1667	-7.12119	27.6979	0	
0.1673	-4.99898	19.1641	0	
0.1680	-7.12119	20.0766	0	
0.1687	-7.12119	13.368	0	
0.1693	-5.61206	6.65933	0	
0.1700	-9.29056	3.89694	0	
0.1707	-13.535	1.15922	0	
0.1713	-12.3088	-1.89914	0	
0.1720	-10.1866	-4.63687	0	
0.1727	-9.85648	-3.72429	0	
0.1733	-11.6957	2.98437	0	
0.1740	-15.6572	10.0137	0	
0.1747	-17.4964	9.10108	0	
0.1753	-14.7611	3.60097	0	
0.1760	-14.1481	-0.0739926	0	
0.1767	-15.9873	-0.665933	0	
0.1773	-15.6572	0.838582	0	
0.1780	-14.1481	7.25127	0	
0.1787	-13.8651	16.4017	0	
0.1793	-13.8651	15.4891	0	
0.1800	-14.1481	7.25127	0	
0.1807	-15.6572	1.15922	0	
0.1813	-16.8833	-2.51575	0	
0.1820	-17.4964	-5.25347	0	
0.1827	-19.3357	-3.72429	0	
0.1833	-19.3357	-0.0739926	0	
0.1840	-15.3742	-0.0739926	0	
0.1847	-14.1481	-0.986567	0	
0.1853	-17.4964	-0.369963	0	
0.1860	-19.0527	-0.0739926	0	
0.1867	-17.4964	1.15922	0	
0.1873	-14.7611	1.45519	0	
0.1880	-12.9219	-0.369963	0	
0.1887	-14.7611	0.246642	0	
0.1893	-16.8833	2.6884	0	
0.1900	-12.9219	1.77582	0	
0.1907	-9.29056	0.542612	0	
0.1913	-12.9219	2.6884	0	
0.1920	-15.3742	2.36776	0	
0.1927	-14.1481	-1.28254	0	
0.1933	-14.7611	-2.81172	0	
0.1940	-18.7226	-2.81172	0	
0.1947	-23.0142	-2.51575	0	
0.1953	-24.8534	-1.89914	0	
0.1960	-21.788	-2.81172	0	
0.1967	-16.2703	-0.0739926	0	
0.1973	-12.9219	5.72209	0	
0.1980	-10.7997	-1.89914	0	
0.1987	-10.4696	-18.6708	0	
0.1993	-12.6389	-17.4622	0	
0.2000	-12.0258	-2.81172	0	
0.2007	-8.96044	-0.986567	0	
0.2013	-7.73427	-5.54944	0	
0.2020	-8.34735	-3.72429	0	
0.2027	-7.12119	-3.10769	0	
0.2033	-7.12119	-4.63687	0	
0.2040	-8.67747	-2.81172	0	
0.2047	-8.34735	-2.81172	0	
0.2053	-8.34735	-4.63687	0	
0.2060	-9.57352	-1.89914	0	
0.2067	-8.34735	1.77582	0	
0.2073	-7.45131	0.838582	0	
0.2080	-10.4696	2.07179	0	
0.2087	-11.0826	4.80952	0	
0.2093	-9.85648	-0.369963	0	
0.2100	-11.4128	-7.07862	0	
0.2107	-9.29056	-5.54944	0	
0.2113	-2.26369	-4.3409	0	
0.2120	-1.65061	-7.69523	0	
0.2127	-2.87677	-8.31183	0	
0.2133	2.02789	-5.87008	0	
0.2140	4.76318	-5.54944	0	
0.2147	3.25405	-5.25347	0	
0.2153	5.70638	-4.3409	0	
0.2160	9.66784	-0.0739926	0	
0.2167	9.05476	5.72209	0	
0.2173	8.44167	2.98437	0	
0.2180	9.05476	-3.72429	0	
0.2187	6.31946	-3.42832	0	
0.2193	4.1501	-1.28254	0	
0.2200	4.48022	-2.81172	0	
0.2207	1.69777	-0.369963	0	
0.2213	-1.03752	2.07179	0	
0.2220	1.69777	-0.0739926	0	
0.2227	3.86714	-0.986567	0	
0.2233	1.69777	-1.89914	0	
0.2240	-0.0943204	-4.9575	0	
0.2247	0.518762	-1.60317	0	
0.2253	0.518762	2.6884	0	
0.2260	-0.0943204	-2.81172	0	
0.2267	-0.424442	-4.04493	0	
0.2273	-0.424442	0.838582	0	
0.2280	-1.03752	0.838582	0	
0.2287	-2.54665	3.28034	0	
0.2293	-2.87677	12.7514	0	
0.2300	-0.707403	9.10108	0	
0.2307	1.69777	-10.433	0	
0.2313	3.86714	-17.7582	0	
0.2320	7.49847	-4.3409	0	
0.2327	6.60243	8.16385	0	
0.2333	2.02789	14.2806	0	
0.2340	2.64097	24.6642	0	
0.2347	6.60243	30.1396	0	
0.2353	6.88539	23.431	0	
0.2360	6.31946	21.9018	0	
0.2367	6.31946	27.4019	0	
0.2373	5.0933	15.4891	0	
0.2380	6.31946	-9.22441	0	
0.2387	9.9508	-15.3165	0	
0.2393	8.11155	-3.42832	0	
0.2400	3.53701	5.42612	0	
0.2407	5.37626	8.48448	0	
0.2413	9.33772	13.664	0	
0.2420	7.49847	17.6349	0	
0.2427	3.25405	8.48448	0	
0.2433	3.25405	-13.1953	0	
0.2440	4.48022	-32.1128	0	
0.2447	1.69777	-31.4962	0	
0.2453	-1.03752	-14.7245	0	
0.2460	0.801723	-3.72429	0	
0.2467	0.801723	-4.3409	0	
0.2473	-2.87677	-4.9575	0	
0.2480	-2.54665	-1.89914	0	
0.2487	-0.707403	3.28034	0	
0.2493	-1.03752	14.8972	0	
0.2500	1.69777	21.6058	0	
0.2507	4.48022	14.5765	0	
0.2513	3.25405	15.8097	0	
0.2520	2.92393	26.4893	0	
0.2527	4.48022	12.7514	0	
0.2533	3.25405	-19.904	0	
0.2540	2.64097	-32.7294	0	
0.2547	3.53701	-21.1125	0	
0.2553	4.1501	-8.31183	0	
0.2560	4.48022	-6.48668	0	
0.2567	5.37626	-9.84101	0	
0.2573	4.76318	-7.07862	0	
0.2580	5.37626	1.77582	0	
0.2587	4.76318	6.3387	0	
0.2593	4.1501	6.65933	0	
0.2600	8.11155	7.57191	0	
0.2607	9.9508	6.3387	0	
0.2613	5.0933	3.60097	0	
0.2620	2.92393	4.21758	0	
0.2627	3.86714	4.80952	0	
0.2633	4.76318	3.89694	0	
0.2640	9.66784	5.42612	0	
0.2647	5.37626	6.9553	0	
0.2653	-13.535	4.80952	0	
0.2660	-19.3357	2.6884	0	
0.2667	-8.34735	2.98437	0	
0.2673	-7.12119	4.21758	0	
0.2680	-9.29056	4.51355	0	
0.2687	-1.32049	3.28034	0	
0.2693	0.801723	1.77582	0	
0.2700	1.13184	2.6884	0	
0.2707	16.0816	4.51355	0	
0.2713	38.9543	2.07179	0	
0.2720	55.4132	-1.89914	0	
0.2727	61.827	-2.81172	0	
0.2733	59.7048	-2.51575	0	
0.2740	59.9878	-3.42832	0	
0.2747	62.4401	-2.81172	0	
0.2753	57.2525	-1.89914	0	
0.2760	51.4518	-3.42832	0	
0.2767	53.008	-4.9575	0	
0.2773	52.0648	-4.04493	0	
0.2780	46.8772	-3.42832	0	
0.2787	42.6328	-3.10769	0	
0.2793	37.1151	-1.89914	0	
0.2800	36.502	-2.19511	0	
0.2807	39.2373	-4.04493	0	
0.2813	33.7667	-4.63687	0	
0.2820	27.6359	-3.42832	0	
0.2827	35.6059	-3.42832	0	
0.2833	43.8118	-5.54944	0	
0.2840	40.7936	-7.07862	0	
0.2847	36.219	-4.63687	0	
0.2853	32.5405	-3.72429	0	
0.2860	26.4569	-4.9575	0	
0.2867	23.6744	-3.72429	0	
0.2873	23.6744	-3.10769	0	
0.2880	20.0431	-3.72429	0	
0.2887	16.9777	1.77582	0	
0.2893	16.9777	10.9262	0	
0.2900	10.5639	13.9599	0	
0.2907	-1.32049	10.9262	0	
0.2913	-6.50811	1.77582	0	
0.2920	-4.3859	-9.52038	0	
0.2927	-4.66886	-8.90377	0	
0.2933	-6.50811	-2.81172	0	
0.2940	-4.66886	-2.81172	0	
0.2947	-3.15973	2.6884	0	
0.2953	-6.50811	16.4017	0	
0.2960	-9.29056	21.2852	0	
0.2967	-10.1866	13.9599	0	
0.2973	-13.8651	4.51355	0	
0.2980	-17.4964	-3.72429	0	
0.2987	-18.1095	-5.54944	0	
0.2993	-21.4579	-1.60317	0	
0.3000	-27.8717	-1.89914	0	
0.3007	-31.5502	-4.3409	0	
0.3013	-32.7763	-3.72429	0	
0.3020	-34.0025	-1.89914	0	
0.3027	-34.8985	-0.665933	0	
0.3033	-34.8985	0.838582	0	
0.3040	-34.2855	-0.986567	0	
0.3047	-36.1247	-1.89914	0	
0.3053	-39.4731	-0.0739926	0	
0.3060	-40.6992	-0.0739926	0	
0.3067	-41.9254	-0.986567	0	
0.3073	-44.0476	-0.0739926	0	
0.3080	-43.4345	-0.0739926	0	
0.3087	-40.4163	-0.665933	0	
0.3093	-40.6992	-1.28254	0	
0.3100	-40.4163	-5.54944	0	
0.3107	-36.1247	-6.16605	0	
0.3113	-34.8985	-0.0739926	0	
0.3120	-37.6338	2.07179	0	
0.3127	-38.86	3.89694	0	
0.3133	-39.4731	13.664	0	
0.3140	-40.0862	13.368	0	
0.3147	-39.1901	-0.986567	0	
0.3153	-38.2469	-1.89914	0	
0.3160	-39.4731	9.10108	0	
0.3167	-40.4163	7.25127	0	
0.3173	-38.577	-0.986567	0	
0.3180	-36.7378	-4.9575	0	
0.3187	-36.7378	-11.9621	0	
0.3193	-37.0207	-12.5787	0	
0.3200	-36.7378	2.36776	0	
0.3207	-37.6338	9.10108	0	
0.3213	-37.9639	-8.31183	0	
0.3220	-37.3509	-25.4041	0	
0.3227	-36.1247	-22.9624	0	
0.3233	-36.7378	-13.4913	0	
0.3240	-38.2469	-9.22441	0	
0.3247	-38.86	-5.54944	0	
0.3253	-35.7946	2.6884	0	
0.3260	-30.324	12.1348	0	
0.3267	-26.6455	17.0183	0	
0.3273	-23.9102	13.664	0	
0.3280	-20.8448	7.25127	0	
0.3287	-19.0527	7.57191	0	
0.3293	-17.8266	10.9262	0	
0.3300	-16.8833	10.9262	0	
0.3307	-15.3742	11.5428	0	
0.3313	-13.8651	13.9599	0	
0.3320	-15.9873	14.5765	0	
0.3327	-19.3357	14.2806	0	
0.3333	-18.7226	10.0137	0	
0.3340	-15.9873	-3.72429	0	
0.3347	-16.6004	-19.904	0	
0.3353	-17.2135	-26.6127	0	
0.3360	-16.2703	-24.4915	0	
0.3367	-16.6004	-15.3165	0	
0.3373	-15.9873	-3.10769	0	
0.3380	-12.9219	0.246642	0	
0.3387	-11.4128	-4.9575	0	
0.3393	-10.7997	-8.31183	0	
0.3400	-6.50811	-8.6078	0	
0.3407	-4.66886	-7.39926	0	
0.3413	-8.34735	-4.9575	0	
0.3420	-12.0258	-6.16605	0	
0.3427	-10.1866	-8.90377	0	
0.3433	-8.96044	-7.39926	0	
0.3440	-9.57352	-5.87008	0	
0.3447	-8.34735	-6.16605	0	
0.3453	-6.22514	-2.19511	0	
0.3460	-7.12119	4.80952	0	
0.3467	-7.45131	6.9553	0	
0.3473	-5.61206	2.6884	0	
0.3480	-4.66886	-1.89914	0	
0.3487	-6.22514	0.246642	0	
0.3493	-5.28194	8.48448	0	
0.3500	-1.93357	10.9262	0	
0.3507	1.69777	4.51355	0	
0.3513	5.0933	1.45519	0	
0.3520	8.11155	2.6884	0	
0.3527	10.894	-0.986567	0	
0.3533	12.6861	-9.52038	0	
0.3540	14.5253	-13.4913	0	
0.3547	16.6947	-13.4913	0	
0.3553	18.4868	-16.5497	0	
0.3560	17.2606	-17.4622	0	
0.3567	15.1384	-9.84101	0	
0.3573	15.4685	-5.87008	0	
0.3580	15.4685	-11.9621	0	
0.3587	12.073	-13.1953	0	
0.3593	10.2809	-4.63687	0	
0.3600	12.4031	10.9262	0	
0.3607	15.4685	36.8483	0	
0.3613	15.4685	55.7904	0	
0.3620	13.6293	38.3775	0	
0.3627	11.177	2.07179	0	
0.3633	5.98934	-13.7873	0	
0.3640	0.801723	-11.9621	0	
0.3647	2.31085	-7.39926	0	
0.3653	8.11155	-0.0739926	0	
0.3660	11.79	8.48448	0	
0.3667	13.9123	10.9262	0	
0.3673	17.2606	10.0137	0	
0.3680	18.2038	9.10108	0	
0.3687	19.713	3.60097	0	
0.3693	25.2307	-1.89914	0	
0.3700	30.0882	0.838582	0	
0.3707	31.9274	4.51355	0	
0.3713	35.6059	-0.369963	0	
0.3720	40.1805	-4.9575	0	
0.3727	44.755	-2.81172	0	
0.3733	48.1034	-2.19511	0	
0.3740	46.5943	-3.72429	0	
0.3747	42.9158	-1.28254	0	
0.3753	44.4249	-9.22441	0	
0.3760	47.4903	-37.6129	0	
0.3767	43.8118	-58.3555	0	
0.3773	38.0111	-56.2097	0	
0.3780	37.4452	-51.9428	0	
0.3787	36.502	-53.472	0	
0.3793	32.2576	-49.2051	0	
0.3800	28.5791	-32.1128	0	
0.3807	27.6359	0.838582	0	
0.3813	29.4751	42.3484	0	
0.3820	31.9274	64.6202	0	
0.3827	32.8235	58.8241	0	
0.3833	32.2576	44.4942	0	
0.3840	30.4183	24.9602	0	
0.3847	26.4569	3.28034	0	
0.3853	22.7784	2.6884	0	
0.3860	21.8823	19.7807	0	
0.3867	20.326	23.7269	0	
0.3873	18.2038	13.664	0	
0.3880	18.2038	8.78045	0	
0.3887	16.3646	11.8388	0	
0.3893	12.4031	20.0766	0	
0.3900	11.79	26.7853	0	
0.3907	12.073	18.5475	0	
0.3913	6.31946	1.77582	0	
0.3920	2.64097	-3.42832	0	
0.3927	5.0933	2.6884	0	
0.3933	4.76318	4.80952	0	
0.3940	2.64097	-0.369963	0	
0.3947	5.98934	-4.9575	0	
0.3953	8.72463	-5.25347	0	
0.3960	8.72463	-4.63687	0	
0.3967	10.894	-4.9575	0	
0.3973	9.9508	-5.54944	0	
0.3980	7.21551	-6.78265	0	
0.3987	7.49847	-6.48668	0	
0.3993	6.31946	-3.72429	0	
0.4000	2.02789	-3.42832	0	
0.4007	1.13184	-3.42832	0	
0.4013	0.801723	-2.51575	0	
0.4020	-2.87677	-3.72429	0	
0.4027	-4.99898	-5.54944	0	
0.4033	-5.61206	-6.48668	0	
0.4040	-7.73427	-8.31183	0	
0.4047	-9.29056	-7.07862	0	
0.4053	-7.73427	-1.28254	0	
0.4060	-7.12119	-2.81172	0	
0.4067	-10.1866	-11.9621	0	
0.4073	-13.8651	-14.7245	0	
0.4080	-14.4782	-12.8747	0	
0.4087	-13.8651	-15.6371	0	
0.4093	-15.6572	-13.7873	0	
0.4100	-15.9873	-1.60317	0	
0.4107	-12.0258	8.16385	0	
0.4113	-9.29056	9.10108	0	
0.4120	-12.0258	6.65933	0	
0.4127	-15.0441	4.80952	0	
0.4133	-15.6572	2.36776	0	
0.4140	-16.8833	-1.60317	0	
0.4147	-21.788	-3.72429	0	
0.4153	-26.0324	-1.60317	0	
0.4160	-25.4193	-0.0739926	0	
0.4167	-22.4011	-4.3409	0	
0.4173	-22.4011	-5.54944	0	
0.4180	-25.7495	-1.28254	0	
0.4187	-27.8717	-1.89914	0	
0.4193	-27.5887	-6.48668	0	
0.4200	-26.9756	-4.9575	0	
0.4207	-28.4848	-1.89914	0	
0.4213	-28.4848	-3.42832	0	
0.4220	-26.9756	-2.81172	0	
0.4227	-26.3625	-0.369963	0	
0.4233	-26.6455	-2.19511	0	
0.4240	-27.8717	-1.89914	0	
0.4247	-31.22	1.77582	0	
0.4253	-34.2855	2.98437	0	
0.4260	-32.1632	1.45519	0	
0.4267	-27.2586	1.77582	0	
0.4273	-24.8534	1.45519	0	
0.4280	-23.0142	0.246642	0	
0.4287	-18.4396	0.246642	0	
0.4293	-15.0441	0.838582	0	
0.4300	-15.3742	2.07179	0	
0.4307	-15.3742	4.21758	0	
0.4313	-15.0441	6.3387	0	
0.4320	-15.9873	6.3387	0	
0.4327	-15.3742	3.28034	0	
0.4333	-13.8651	-1.89914	0	
0.4340	-16.6004	-3.72429	0	
0.4347	-20.2317	-3.72429	0	
0.4353	-20.2317	-5.54944	0	
0.4360	-20.8448	-15.6371	0	
0.4367	-23.2971	-29.0544	0	
0.4373	-22.4011	-31.2002	0	
0.4380	-17.4964	-19.904	0	
0.4387	-14.7611	-9.84101	0	
0.4393	-13.252	-1.89914	0	
0.4400	-9.29056	15.8097	0	
0.4407	-6.22514	32.5814	0	
0.4413	-6.22514	32.902	0	
0.4420	-6.22514	22.8144	0	
0.4427	-4.66886	17.9309	0	
0.4433	-4.99898	19.1641	0	
0.4440	-7.45131	14.2806	0	
0.4447	-8.96044	-6.48668	0	
0.4453	-10.7997	-33.0253	0	
0.4460	-13.535	-41.2632	0	
0.4467	-13.8651	-23.5543	0	
0.4473	-11.0826	3.28034	0	
0.4480	-9.29056	26.4893	0	
0.4487	-9.57352	43.261	0	
0.4493	-9.57352	43.8776	0	
0.4500	-8.06439	21.6058	0	
0.4507	-5.28194	-7.39926	0	
0.4513	-1.03752	-21.1125	0	
0.4520	1.13184	-16.229	0	
0.4527	-0.0943204	-6.78265	0	
0.4533	-1.03752	-3.72429	0	
0.4540	0.518762	-3.72429	0	
0.4547	2.64097	-1.89914	0	
0.4553	6.60243	-2.19511	0	
0.4560	9.05476	-4.63687	0	
0.4567	5.70638	-3.72429	0	
0.4573	6.60243	-5.87008	0	
0.4580	13.9123	-11.6662	0	
0.4587	16.6947	-15.6371	0	
0.4593	16.0816	-22.9624	0	
0.4600	18.4868	-32.4087	0	
0.4607	19.713	-33.6419	0	
0.4613	20.0431	-29.375	0	
0.4620	24.6176	-25.7001	0	
0.4627	27.3529	-21.4332	0	
0.4633	20.9391	-24.7875	0	
0.4640	12.6861	-23.8749	0	
0.4647	8.11155	9.39705	0	
0.4653	7.21551	58.5281	0	
0.4660	9.33772	79.8873	0	
0.4667	11.79	68.9117	0	
0.4673	9.9508	45.4068	0	
0.4680	4.76318	20.0766	0	
0.4687	1.69777	3.28034	0	
0.4693	-1.03752	-2.81172	0	
0.4700	-5.28194	-2.81172	0	
0.4707	-8.34735	-1.60317	0	
0.4713	-5.61206	-4.3409	0	
0.4720	0.518762	-4.3409	0	
0.4727	2.92393	5.42612	0	
0.4733	1.13184	5.13015	0	
0.4740	2.64097	-11.0496	0	
0.4747	10.894	-17.4622	0	
0.4753	16.9777	-18.3748	0	
0.4760	17.2606	-33.0253	0	
0.4767	16.3646	-45.8507	0	
0.4773	16.3646	-44.3215	0	
0.4780	14.5253	-35.4671	0	
0.4787	11.79	-11.9621	0	
0.4793	10.894	16.7223	0	
0.4800	11.177	15.8097	0	
0.4807	9.9508	-6.16605	0	
0.4813	8.44167	-8.31183	0	
0.4820	7.49847	24.0476	0	
0.4827	6.88539	78.0621	0	
0.4833	4.1501	118.043	0	
0.4840	-0.0943204	102.48	0	
0.4847	-2.87677	41.4358	0	
0.4853	1.13184	-7.69523	0	
0.4860	6.31946	-17.7582	0	
0.4867	6.60243	-4.63687	0	
0.4873	7.21551	9.10108	0	
0.4880	10.894	13.0474	0	
0.4887	10.894	10.9262	0	
0.4893	9.9508	11.5428	0	
0.4900	15.4685	11.8388	0	
0.4907	17.8737	8.16385	0	
0.4913	13.0162	4.21758	0	
0.4920	11.79	2.07179	0	
0.4927	12.6861	-0.369963	0	
0.4933	6.60243	-3.42832	0	
0.4940	0.188641	-4.3409	0	
0.4947	-1.03752	-7.69523	0	
0.4953	-3.77281	-17.1663	0	
0.4960	-8.34735	-27.8459	0	
0.4967	-4.10294	-31.4962	0	
0.4973	3.53701	-24.7875	0	
0.4980	1.13184	-11.0496	0	
0.4987	-8.34735	0.838582	0	
0.4993	-10.1866	6.3387	0	
0.5000	-4.99898	4.51355	0	
0.5007	-3.15973	-0.665933	0	
0.5013	-4.99898	-2.19511	0	
0.5020	-1.93357	2.36776	0	
0.5027	3.53701	6.04273	0	
0.5033	1.13184	2.6884	0	
0.5040	-7.12119	-3.72429	0	
0.5047	-11.0826	-4.63687	0	
0.5053	-11.0826	-0.665933	0	
0.5060	-10.7997	3.28034	0	
0.5067	-9.29056	2.07179	0	
0.5073	-7.12119	-3.72429	0	
0.5080	-6.22514	-11.3455	0	
0.5087	-7.73427	-18.0788	0	
0.5093	-8.96044	-20.2	0	
0.5100	-6.83823	-17.4622	0	
0.5107	-2.87677	-16.5497	0	
0.5113	-1.93357	-19.904	0	
0.5120	-5.89502	-18.3748	0	
0.5127	-9.29056	-9.84101	0	
0.5133	-6.83823	-0.0739926	0	
0.5140	-2.87677	16.1057	0	
0.5147	-3.48985	38.3775	0	
0.5153	-4.99898	39.29	0	
0.5160	-5.61206	7.25127	0	
0.5167	-9.85648	-22.6417	0	
0.5173	-13.8651	-25.0835	0	
0.5180	-12.0258	-17.1663	0	
0.5187	-10.4696	-11.9621	0	
0.5193	-13.8651	-5.25347	0	
0.5200	-17.8266	1.77582	0	
0.5207	-21.1749	2.07179	0	
0.5213	-18.4396	-4.3409	0	
0.5220	-11.0826	-9.84101	0	
0.5227	-12.9219	-8.90377	0	
0.5233	-19.0527	-3.72429	0	
0.5240	-18.7226	2.98437	0	
0.5247	-18.1095	7.25127	0	
0.5253	-20.5618	-1.89914	0	
0.5260	-20.5618	-14.7245	0	
0.5267	-22.071	-11.3455	0	
0.5273	-26.3625	-2.81172	0	
0.5280	-21.4579	-5.54944	0	
0.5287	-8.67747	-10.137	0	
0.5293	-1.65061	-9.22441	0	
0.5300	-0.0943204	-8.31183	0	
0.5307	2.92393	-7.39926	0	
0.5313	6.31946	-9.52038	0	
0.5320	6.60243	-12.8747	0	
0.5327	5.0933	-12.2828	0	
0.5333	2.31085	-20.8166	0	
0.5340	-1.03752	-33.3213	0	
0.5347	-1.32049	-26.6127	0	
0.5353	1.69777	-15.6371	0	
0.5360	2.64097	-17.4622	0	
0.5367	3.25405	-15.6371	0	
0.5373	7.21551	-12.2828	0	
0.5380	11.79	-10.433	0	
0.5387	12.073	9.69303	0	
0.5393	9.05476	20.6933	0	
0.5400	7.49847	-6.48668	0	
0.5407	9.9508	-28.4378	0	
0.5413	13.9123	-22.0498	0	
0.5420	15.4685	-18.6708	0	
0.5427	13.0162	-22.3458	0	
0.5433	9.9508	-16.229	0	
0.5440	9.9508	0.246642	0	
0.5447	12.4031	20.6933	0	
0.5453	13.0162	25.5768	0	
0.5460	10.5639	20.9892	0	
0.5467	9.66784	31.3728	0	
0.5473	13.2992	30.4603	0	
0.5480	15.4685	-6.48668	0	
0.5487	10.5639	-35.7631	0	
0.5493	4.48022	-30.8796	0	
0.5500	5.70638	-16.5497	0	
0.5507	8.11155	-2.81172	0	
0.5513	5.37626	12.7514	0	
0.5520	3.25405	26.7853	0	
0.5527	4.48022	45.4068	0	
0.5533	5.37626	54.2612	0	
0.5540	5.98934	35.9357	0	
0.5547	6.60243	11.5428	0	
0.5553	3.53701	3.28034	0	
0.5560	1.41481	6.3387	0	
0.5567	2.64097	11.8388	0	
0.5573	-0.707403	11.8388	0	
0.5580	-8.96044	5.72209	0	
0.5587	-11.6957	3.28034	0	
0.5593	-10.4696	4.21758	0	
0.5600	-8.67747	1.45519	0	
0.5607	-5.61206	2.36776	0	
0.5613	-3.77281	6.3387	0	
0.5620	-0.424442	3.60097	0	
0.5627	7.82859	1.15922	0	
0.5633	16.3646	3.60097	0	
0.5640	20.9391	-3.10769	0	
0.5647	20.0431	-12.2828	0	
0.5653	11.79	-14.1079	0	
0.5660	3.53701	-18.9914	0	
0.5667	2.31085	-23.8749	0	
0.5673	2.64097	-22.3458	0	
0.5680	2.02789	-29.967	0	
0.5687	2.02789	-36.6756	0	
0.5693	1.13184	-26.6127	0	
0.5700	0.801723	-22.9624	0	
0.5707	4.76318	-15.3165	0	
0.5713	9.05476	29.2271	0	
0.5720	13.6293	66.766	0	
0.5727	18.2038	57.6155	0	
0.5733	17.2606	47.5526	0	
0.5740	14.2424	45.7027	0	
0.5747	15.1384	21.2852	0	
0.5753	13.9123	-2.51575	0	
0.5760	9.05476	-0.369963	0	
0.5767	6.88539	5.42612	0	
0.5773	7.82859	3.28034	0	
0.5780	12.4031	-0.0739926	0	
0.5787	20.6562	-5.25347	0	
0.5793	19.0999	-11.0496	0	
0.5800	9.33772	-11.9621	0	
0.5807	11.5071	-7.69523	0	
0.5813	22.1653	-1.89914	0	
0.5820	25.5137	6.3387	0	
0.5827	24.6176	20.9892	0	
0.5833	26.4569	31.0522	0	
0.5840	25.5137	21.6058	0	
0.5847	21.2692	7.25127	0	
0.5853	18.2038	11.8388	0	
0.5860	15.4685	21.6058	0	
0.5867	10.2809	18.2515	0	
0.5873	2.64097	6.3387	0	
0.5880	-4.66886	-6.48668	0	
0.5887	-7.45131	-13.1953	0	
0.5893	-9.29056	-9.22441	0	
0.5900	-11.0826	-2.81172	0	
0.5907	-8.34735	-0.986567	0	
0.5913	-3.77281	-0.986567	0	
0.5920	-0.707403	-0.665933	0	
0.5927	0.801723	-0.369963	0	
0.5933	3.53701	-0.986567	0	
0.5940	9.33772	-6.78265	0	
0.5947	13.6293	-11.9621	0	
0.5953	11.177	-7.39926	0	
0.5960	7.21551	-3.10769	0	
0.5967	4.76318	-6.78265	0	
0.5973	0.801723	-8.31183	0	
0.5980	-4.66886	-5.54944	0	
0.5987	-9.85648	-5.54944	0	
0.5993	-15.6572	-3.72429	0	
0.6000	-19.0527	0.542612	0	
0.6007	-20.5618	-0.0739926	0	
0.6013	-23.9102	-3.42832	0	
0.6020	-23.0142	-3.72429	0	
0.6027	-16.6004	-3.72429	0	
0.6033	-13.535	-5.87008	0	
0.6040	-14.4782	-6.48668	0	
0.6047	-11.0826	-6.16605	0	
0.6053	-6.22514	-7.39926	0	
0.6060	-5.61206	-8.31183	0	
0.6067	-7.45131	-6.78265	0	
0.6073	-9.29056	-4.04493	0	
0.6080	-9.57352	-0.986567	0	
0.6087	-9.85648	-0.0739926	0	
0.6093	-9.29056	-1.60317	0	
0.6100	-7.45131	-2.51575	0	
0.6107	-5.28194	-3.72429	0	
0.6113	-4.66886	-7.9912	0	
0.6120	-6.50811	-10.433	0	
0.6127	-9.29056	-6.78265	0	
0.6133	-9.29056	-4.9575	0	
0.6140	-3.77281	-9.84101	0	
0.6147	2.64097	-11.9621	0	
0.6153	2.92393	-9.22441	0	
0.6160	-1.32049	-9.84101	0	
0.6167	-3.77281	-11.0496	0	
0.6173	-1.03752	-8.6078	0	
0.6180	3.53701	-5.87008	0	
0.6187	6.60243	-4.63687	0	
0.6193	5.98934	-3.10769	0	
0.6200	3.53701	-3.72429	0	
0.6207	4.48022	-7.39926	0	
0.6213	8.11155	-6.48668	0	
0.6220	9.9508	-2.51575	0	
0.6227	9.05476	-2.19511	0	
0.6233	9.05476	-4.04493	0	
0.6240	11.79	-1.89914	0	
0.6247	14.5253	-0.0739926	0	
0.6253	12.4031	-2.51575	0	
0.6260	6.60243	-2.19511	0	
0.6267	5.70638	-0.665933	0	
0.6273	8.11155	-2.81172	0	
0.6280	7.82859	-4.63687	0	
0.6287	5.0933	-2.81172	0	
0.6293	2.31085	-0.986567	0	
0.6300	-0.0943204	-1.60317	0	
0.6307	-0.424442	-3.10769	0	
0.6313	-1.03752	-4.04493	0	
0.6320	-1.93357	-3.72429	0	
0.6327	-1.03752	-1.89914	0	
0.6333	0.518762	-0.986567	0	
0.6340	1.41481	-0.0739926	0	
0.6347	4.1501	-0.665933	0	
0.6353	5.37626	-2.51575	0	
0.6360	4.1501	-2.81172	0	
0.6367	4.1501	-1.60317	0	
0.6373	4.48022	-0.986567	0	
0.6380	3.25405	-1.28254	0	
0.6387	3.25405	-1.60317	0	
0.6393	2.64097	-1.89914	0	
0.6400	2.92393	-3.72429	0	
0.6407	8.44167	-5.54944	0	
0.6413	12.6861	-5.54944	0	
0.6420	7.49847	-5.54944	0	
0.6427	1.69777	-2.51575	0	
0.6433	1.41481	4.51355	0	
0.6440	2.64097	6.9553	0	
0.6447	1.69777	4.51355	0	
0.6453	-1.03752	6.04273	0	
0.6460	-0.0943204	9.10108	0	
0.6467	1.69777	8.16385	0	
0.6473	-1.32049	6.04273	0	
0.6480	-5.61206	7.25127	0	
0.6487	-2.54665	7.25127	0	
0.6493	0.801723	3.89694	0	
0.6500	-4.3859	2.36776	0	
0.6507	-8.67747	4.51355	0	
0.6513	-4.66886	3.89694	0	
0.6520	-2.54665	-0.0739926	0	
0.6527	-5.28194	-0.0739926	0	
0.6533	-4.66886	2.6884	0	
0.6540	-0.424442	-0.369963	0	
0.6547	3.53701	-3.72429	0	
0.6553	8.72463	-2.51575	0	
0.6560	13.9123	-2.81172	0	
0.6567	16.0816	-5.25347	0	
0.6573	15.7515	-3.72429	0	
0.6580	14.2424	-0.0739926	0	
0.6587	9.05476	3.28034	0	
0.6593	1.69777	5.42612	0	
0.6600	-1.93357	6.04273	0	
0.6607	-1.03752	4.51355	0	
0.6613	-1.03752	1.77582	0	
0.6620	-6.50811	-0.986567	0	
0.6627	-12.6389	1.15922	0	
0.6633	-14.7611	3.89694	0	
0.6640	-16.6004	4.80952	0	
0.6647	-19.6658	8.78045	0	
0.6653	-20.2317	11.8388	0	
0.6660	-16.8833	10.0137	0	
0.6667	-10.1866	9.69303	0	
0.6673	-0.0943204	7.25127	0	
0.6680	5.37626	-5.54944	0	
0.6687	1.69777	-13.1953	0	
0.6693	-2.54665	-8.90377	0	
0.6700	1.69777	-6.48668	0	
0.6707	9.05476	-7.07862	0	
0.6713	11.177	-5.54944	0	
0.6720	9.9508	-5.54944	0	
0.6727	9.05476	-6.48668	0	
0.6733	7.49847	-7.39926	0	
0.6740	5.37626	-8.90377	0	
0.6747	5.37626	-4.3409	0	
0.6753	7.82859	7.25127	0	
0.6760	6.31946	19.7807	0	
0.6767	-1.03752	22.5184	0	
0.6773	-8.34735	13.9599	0	
0.6780	-10.1866	16.1057	0	
0.6787	-9.29056	30.4603	0	
0.6793	-10.1866	15.4891	0	
0.6800	-15.0441	-22.0498	0	
0.6807	-18.4396	-27.5252	0	
0.6813	-15.9873	-16.5497	0	
0.6820	-16.6004	-25.4041	0	
0.6827	-15.6572	-15.6371	0	
0.6833	-1.32049	21.6058	0	
0.6840	13.6293	28.3145	0	
0.6847	14.8555	0.542612	0	
0.6853	17.5907	-15.3165	0	
0.6860	27.966	-10.7536	0	
0.6867	28.5791	-0.986567	0	
0.6873	20.9391	5.42612	0	
0.6880	16.9777	6.9553	0	
0.6887	14.5253	11.8388	0	
0.6893	12.073	14.8972	0	
0.6900	12.073	5.72209	0	
0.6907	10.894	-2.51575	0	
0.6913	8.11155	-1.89914	0	
0.6920	6.31946	-5.54944	0	
0.6927	5.0933	-6.78265	0	
0.6933	2.64097	3.60097	0	
0.6940	0.518762	8.48448	0	
0.6947	0.801723	2.6884	0	
0.6953	0.518762	0.838582	0	
0.6960	-3.77281	2.36776	0	
0.6967	-5.89502	1.15922	0	
0.6973	-3.48985	1.45519	0	
0.6980	-2.26369	0.838582	0	
0.6987	-1.65061	-0.0739926	0	
0.6993	1.41481	2.07179	0	
0.7000	2.64097	2.6884	0	
0.7007	-0.0943204	-0.0739926	0	
0.7013	-2.54665	1.77582	0	
0.7020	-1.65061	4.51355	0	
0.7027	0.801723	2.6884	0	
0.7033	-2.54665	1.15922	0	
0.7040	-8.06439	-0.0739926	0	
0.7047	-7.73427	-1.89914	0	
0.7053	-9.57352	1.45519	0	
0.7060	-15.9873	3.60097	0	
0.7067	-16.6004	0.542612	0	
0.7073	-16.8833	1.77582	0	
0.7080	-21.1749	1.77582	0	
0.7087	-21.1749	-6.78265	0	
0.7093	-22.071	-8.31183	0	
0.7100	-22.4011	-1.89914	0	
0.7107	-15.0441	-1.89914	0	
0.7113	-4.3859	-0.0739926	0	
0.7120	15.4685	6.04273	0	
0.7127	34.3798	-0.986567	0	
0.7133	18.2038	-4.04493	0	
0.7140	2.92393	11.5428	0	
0.7147	33.7667	19.1641	0	
0.7153	49.3296	8.48448	0	
0.7160	16.3646	-1.89914	0	
0.7167	8.11155	-9.22441	0	
0.7173	34.3798	-11.0496	0	
0.7180	36.219	-4.04493	0	
0.7187	20.9391	-2.19511	0	
0.7193	18.2038	-4.63687	0	
0.7200	20.0431	2.98437	0	
0.7207	24.6176	11.5428	0	
0.7213	27.3529	5.72209	0	
0.7220	18.8169	-4.04493	0	
0.7227	9.9508	-7.39926	0	
0.7233	4.48022	-6.78265	0	
0.7240	-3.77281	-6.78265	0	
0.7247	-9.29056	-3.72429	0	
0.7253	-8.67747	7.25127	0	
0.7260	-8.06439	19.7807	0	
0.7267	-3.77281	21.9018	0	
0.7273	1.69777	15.8097	0	
0.7280	1.41481	10.0137	0	
0.7287	1.13184	4.51355	0	
0.7293	5.37626	0.246642	0	
0.7300	5.37626	1.15922	0	
0.7307	0.188641	11.2222	0	
0.7313	-4.66886	27.4019	0	
0.7320	-10.4696	24.3436	0	
0.7327	-16.6004	-16.229	0	
0.7333	-19.0527	-58.9721	0	
0.7340	-20.8448	-63.5349	0	
0.7347	-25.1364	-42.7924	0	
0.7353	-29.428	-13.7873	0	
0.7360	-29.428	22.2224	0	
0.7367	-28.4848	45.1108	0	
0.7373	-30.9371	35.9357	0	
0.7380	-35.2287	17.0183	0	
0.7387	-37.3509	9.10108	0	
0.7393	-40.4163	7.25127	0	
0.7400	-45.8869	5.13015	0	
0.7407	-46.7829	2.36776	0	
0.7413	-42.2084	0.542612	0	
0.7420	-36.7378	6.04273	0	
0.7427	-31.22	12.7514	0	
0.7433	-27.5887	9.10108	0	
0.7440	-28.8149	1.15922	0	
0.7447	-28.4848	0.838582	0	
0.7453	-24.2403	2.36776	0	
0.7460	-21.4579	-0.986567	0	
0.7467	-17.4964	-3.72429	0	
0.7473	-12.3088	-1.60317	0	
0.7480	-11.0826	-0.986567	0	
0.7487	-12.0258	-2.19511	0	
0.7493	-12.9219	-1.28254	0	
0.7500	-14.7611	0.246642	0	
0.7507	-15.3742	-1.60317	0	
0.7513	-13.535	-3.72429	0	
0.7520	-13.8651	-3.10769	0	
0.7527	-15.6572	-0.986567	0	
0.7533	-16.6004	-2.51575	0	
0.7540	-15.6572	-5.25347	0	
0.7547	-13.8651	-5.54944	0	
0.7553	-13.8651	-3.72429	0	
0.7560	-15.6572	-4.63687	0	
0.7567	-14.7611	-6.78265	0	
0.7573	-10.7997	-7.07862	0	
0.7580	-7.45131	-5.87008	0	
0.7587	-2.87677	-5.54944	0	
0.7593	1.69777	-7.39926	0	
0.7600	2.31085	-8.31183	0	
0.7607	1.41481	-6.16605	0	
0.7613	0.518762	-3.72429	0	
0.7620	0.801723	-4.9575	0	
0.7627	5.37626	-6.48668	0	
0.7633	11.177	-3.72429	0	
0.7640	10.894	-1.89914	0	
0.7647	9.33772	-3.72429	0	
0.7653	9.66784	-4.9575	0	
0.7660	3.53701	-4.04493	0	
0.7667	-9.57352	-3.72429	0	
0.7673	-19.9488	-3.72429	0	
0.7680	-25.1364	-3.72429	0	
0.7687	-26.6455	-3.72429	0	
0.7693	-24.8534	-4.3409	0	
0.7700	-21.4579	-6.16605	0	
0.7707	-17.2135	-5.25347	0	
0.7713	-9.29056	-2.81172	0	
0.7720	-3.77281	-2.81172	0	
0.7727	-1.93357	-2.81172	0	
0.7733	0.801723	-0.986567	0	
0.7740	2.02789	-1.28254	0	
0.7747	-0.424442	-4.04493	0	
0.7753	1.69777	-6.48668	0	
0.7760	6.31946	-7.39926	0	
0.7767	5.0933	-4.3409	0	
0.7773	2.31085	-0.0739926	0	
0.7780	4.76318	-1.89914	0	
0.7787	10.894	-5.87008	0	
0.7793	15.4685	-3.72429	0	
0.7800	18.2038	-3.72429	0	
0.7807	18.2038	-8.31183	0	
0.7813	16.3646	-8.90377	0	
0.7820	18.4868	-6.48668	0	
0.7827	27.3529	-9.84101	0	
0.7833	36.219	-11.9621	0	
0.7840	40.1805	-9.22441	0	
0.7847	46.2641	0.838582	0	
0.7853	53.6211	19.1641	0	
0.7860	48.4335	23.135	0	
0.7867	30.7013	0.838582	0	
0.7873	16.6947	-16.229	0	
0.7880	12.4031	-11.6662	0	
0.7887	10.2809	-7.69523	0	
0.7893	5.70638	-4.63687	0	
0.7900	-1.93357	10.0137	0	
0.7907	-8.06439	17.3389	0	
0.7913	-5.28194	10.6056	0	
0.7920	5.98934	4.21758	0	
0.7927	14.5253	-2.51575	0	
0.7933	12.4031	-10.137	0	
0.7940	5.37626	-9.22441	0	
0.7947	3.53701	-3.72429	0	
0.7953	3.53701	-0.986567	0	
0.7960	-1.65061	1.77582	0	
0.7967	-9.29056	1.77582	0	
0.7973	-14.7611	-3.42832	0	
0.7980	-19.3357	-6.16605	0	
0.7987	-22.071	-5.87008	0	
0.7993	-17.2135	-4.9575	0	
0.8000	-5.89502	-6.16605	0	
0.8007	1.69777	-7.9912	0	
0.8013	1.41481	-0.369963	0	
0.8020	0.801723	4.51355	0	
0.8027	5.70638	-18.9914	0	
0.8033	10.894	-44.6175	0	
0.8040	17.5907	-41.2632	0	
0.8047	32.5405	-39.1174	0	
0.8053	44.1419	-53.7679	0	
0.8060	40.1805	-55.9137	0	
0.8067	33.7667	-49.2051	0	
0.8073	36.502	-58.6514	0	
0.8080	39.8504	-76.0643	0	
0.8087	42.6328	-81.5398	0	
0.8093	47.8204	-63.239	0	
0.8100	41.6896	-34.8505	0	
0.8107	18.2038	-39.438	0	
0.8113	-1.93357	-66.8893	0	
0.8120	-7.45131	-30.2876	0	
0.8127	-9.57352	100.951	0	
0.8133	-15.6572	234.926	0	
0.8140	-14.7611	261.786	0	
0.8147	-4.66886	172.353	0	
0.8153	-5.61206	62.499	0	
0.8160	-27.5887	19.1641	0	
0.8167	-51.0745	37.1689	0	
0.8173	-60.8366	57.9115	0	
0.8180	-64.5151	47.5526	0	
0.8187	-64.7981	18.2515	0	
0.8193	-55.3661	3.89694	0	
0.8200	-44.9908	10.0137	0	
0.8207	-39.8032	13.9599	0	
0.8213	-33.6724	10.0137	0	
0.8220	-30.041	7.86788	0	
0.8227	-34.2855	5.42612	0	
0.8233	-37.6338	4.51355	0	
0.8240	-34.2855	7.86788	0	
0.8247	-29.428	7.86788	0	
0.8253	-25.7495	4.21758	0	
0.8260	-26.6455	2.36776	0	
0.8267	-29.0978	1.77582	0	
0.8273	-25.4193	8.48448	0	
0.8280	-18.4396	18.2515	0	
0.8287	-17.2135	13.664	0	
0.8293	-16.8833	2.36776	0	
0.8300	-11.4128	-0.0739926	0	
0.8307	-5.61206	0.542612	0	
0.8313	-6.83823	2.07179	0	
0.8320	-9.85648	8.78045	0	
0.8327	-8.34735	4.21758	0	
0.8333	-6.50811	-12.5787	0	
0.8340	-3.48985	-17.7582	0	
0.8347	2.64097	-12.8747	0	
0.8353	2.64097	-13.7873	0	
0.8360	-8.06439	-16.229	0	
0.8367	-17.8266	-15.6371	0	
0.8373	-15.9873	-18.3748	0	
0.8380	-5.89502	-21.1125	0	
0.8387	3.53701	-19.2874	0	
0.8393	6.88539	-15.3165	0	
0.8400	6.31946	-12.8747	0	
0.8407	4.48022	-13.4913	0	
0.8413	-0.0943204	-12.8747	0	
0.8420	-6.50811	-3.10769	0	
0.8427	-12.3088	10.6056	0	
0.8433	-17.2135	16.4017	0	
0.8440	-16.6004	15.4891	0	
0.8447	-12.6389	16.4017	0	
0.8453	-14.7611	16.4017	0	
0.8460	-20.5618	-0.665933	0	
0.8467	-15.6572	-24.7875	0	
0.8473	-3.15973	-26.6127	0	
0.8480	2.64097	-11.6662	0	
0.8487	1.69777	-11.9621	0	
0.8493	3.86714	-22.9624	0	
0.8500	9.9508	-19.904	0	
0.8507	14.2424	-11.9621	0	
0.8513	16.3646	-11.0496	0	
0.8520	18.8169	-9.22441	0	
0.8527	19.713	-7.39926	0	
0.8533	18.4868	-10.137	0	
0.8540	20.0431	-11.0496	0	
0.8547	25.8438	-6.48668	0	
0.8553	29.4751	-3.72429	0	
0.8560	26.7398	-7.39926	0	
0.8567	25.8438	-13.4913	0	
0.8573	30.4183	-16.229	0	
0.8580	30.7013	-22.0498	0	
0.8587	27.3529	-34.8505	0	
0.8593	31.9274	-43.0883	0	
0.8600	42.0197	-47.6759	0	
0.8607	51.1688	-63.8556	0	
0.8613	59.3747	-87.6565	0	
0.8620	60.6008	-98.3361	0	
0.8627	52.0648	-85.5107	0	
0.8633	42.0197	-57.7389	0	
0.8640	27.3529	-26.9333	0	
0.8647	10.894	17.6349	0	
0.8653	7.82859	75.3244	0	
0.8660	13.9123	100.63	0	
0.8667	11.79	85.0668	0	
0.8673	9.66784	78.3581	0	
0.8680	17.5907	74.7078	0	
0.8687	23.6744	40.8192	0	
0.8693	24.2875	13.9599	0	
0.8700	29.1922	21.6058	0	
0.8707	31.3144	24.6642	0	
0.8713	26.4569	16.7223	0	
0.8720	27.966	17.0183	0	
0.8727	36.502	14.8972	0	
0.8733	37.4452	10.6056	0	
0.8740	30.0882	16.4017	0	
0.8747	24.9006	14.2806	0	
0.8753	20.6562	-1.60317	0	
0.8760	14.5253	-5.25347	0	
0.8767	11.79	5.72209	0	
0.8773	10.894	12.1348	0	
0.8780	10.2809	7.57191	0	
0.8787	13.9123	-1.28254	0	
0.8793	20.9391	-2.81172	0	
0.8800	22.7784	2.6884	0	
0.8807	20.6562	2.98437	0	
0.8813	20.0431	-0.986567	0	
0.8820	19.713	-4.63687	0	
0.8827	16.6947	-14.7245	0	
0.8833	10.894	-25.7001	0	
0.8840	8.72463	-28.7584	0	
0.8847	16.3646	-35.4671	0	
0.8853	32.2576	-50.4136	0	
0.8860	43.8118	-60.7972	0	
0.8867	43.8118	-61.4138	0	
0.8873	36.502	-55.9137	0	
0.8880	27.3529	-46.7633	0	
0.8887	21.5522	-28.4378	0	
0.8893	25.2307	6.65933	0	
0.8900	31.0314	36.2564	0	
0.8907	19.43	41.1399	0	
0.8913	-4.66886	73.1786	0	
0.8920	-17.2135	146.407	0	
0.8927	-23.0142	152.523	0	
0.8933	-41.0294	47.5526	0	
0.8940	-53.1967	-37.6129	0	
0.8947	-45.8869	-21.7291	0	
0.8953	-39.8032	10.0137	0	
0.8960	-40.6992	-17.7582	0	
0.8967	-38.577	-71.4768	0	
0.8973	-38.577	-98.9527	0	
0.8980	-43.1516	-91.6275	0	
0.8987	-43.4345	-71.4768	0	
0.8993	-45.2738	-57.7389	0	
0.9000	-52.9137	-38.5255	0	
0.9007	-57.4883	10.9262	0	
0.9013	-55.0359	59.4407	0	
0.9020	-48.0091	50.9069	0	
0.9027	-36.7378	7.57191	0	
0.9033	-29.0978	-3.72429	0	
0.9040	-28.4848	21.9018	0	
0.9047	-27.5887	52.1154	0	
0.9053	-25.7495	80.5039	0	
0.9060	-24.5233	108.572	0	
0.9067	-18.1095	121.693	0	
0.9073	-9.85648	109.188	0	
0.9080	-7.73427	71.0329	0	
0.9087	-4.3859	19.1641	0	
0.9093	11.5071	-17.1663	0	
0.9100	37.1151	-27.5252	0	
0.9107	51.4518	-36.0837	0	
0.9113	40.4634	-58.6514	0	
0.9120	25.8438	-86.1273	0	
0.9127	33.7667	-106.574	0	
0.9133	52.0648	-109.632	0	
0.9140	60.3179	-91.6275	0	
0.9147	54.8001	-80.6272	0	
0.9153	30.0882	-82.773	0	
0.9160	-3.48985	-68.7391	0	
0.9167	-15.6572	-37.2922	0	
0.9173	-9.85648	18.8434	0	
0.9180	-11.6957	127.489	0	
0.9187	-11.0826	198.917	0	
0.9193	6.60243	121.397	0	
0.9200	16.6947	-0.0739926	0	
0.9207	-4.66886	-17.7582	0	
0.9213	-41.0294	14.2806	0	
0.9220	-60.5537	28.0185	0	
0.9227	-58.3843	63.1157	0	
0.9233	-55.9791	96.067	0	
0.9240	-69.3726	56.9989	0	
0.9247	-82.5303	-14.1079	0	
0.9253	-67.5334	-35.7631	0	
0.9260	-33.6724	-6.48668	0	
0.9267	-21.1749	30.1396	0	
0.9273	-37.9639	53.9406	0	
0.9280	-49.5654	55.1738	0	
0.9287	-42.5385	28.6105	0	
0.9293	-36.7378	-3.72429	0	
0.9300	-39.4731	-7.39926	0	
0.9307	-39.1901	11.8388	0	
0.9313	-34.8985	19.1641	0	
0.9320	-33.0593	13.368	0	
0.9327	-29.428	13.0474	0	
0.9333	-22.071	16.1057	0	
0.9340	-12.0258	10.6056	0	
0.9347	1.13184	-7.69523	0	
0.9353	15.4685	-38.5255	0	
0.9360	24.2875	-62.3264	0	
0.9367	28.249	-60.5012	0	
0.9373	30.0882	-50.4136	0	
0.9380	26.1267	-54.0886	0	
0.9387	20.326	-67.5059	0	
0.9393	27.3529	-79.7146	0	
0.9400	45.6511	-91.3068	0	
0.9407	56.6394	-96.1903	0	
0.9413	51.4518	-92.54	0	
0.9420	41.0765	-93.1566	0	
0.9427	35.6059	-88.8651	0	
0.9433	30.0882	-61.0932	0	
0.9440	17.5907	-29.375	0	
0.9447	6.88539	-1.89914	0	
0.9453	2.02789	50.5862	0	
0.9460	-7.73427	112.247	0	
0.9467	-18.4396	143.669	0	
0.9473	-17.4964	160.145	0	
0.9480	-17.4964	152.819	0	
0.9487	-21.788	79.5913	0	
0.9493	-12.6389	-3.72429	0	
0.9500	-1.03752	-14.7245	0	
0.9507	-14.7611	5.13015	0	
0.9513	-35.7946	-9.52038	0	
0.9520	-32.1632	-34.8505	0	
0.9527	-12.9219	-41.2632	0	
0.9533	7.21551	-36.0837	0	
0.9540	27.6359	-21.1125	0	
0.9547	34.3798	-2.51575	0	
0.9553	25.2307	2.98437	0	
0.9560	22.1653	-5.25347	0	
0.9567	23.3915	-8.31183	0	
0.9573	13.2992	5.72209	0	
0.9580	6.31946	22.2224	0	
0.9587	12.6861	18.2515	0	
0.9593	18.2038	1.77582	0	
0.9600	18.2038	-4.63687	0	
0.9607	16.3646	1.77582	0	
0.9613	7.21551	8.78045	0	
0.9620	-3.77281	0.542612	0	
0.9627	-7.12119	-11.6662	0	
0.9633	-8.67747	-2.81172	0	
0.9640	-6.83823	14.5765	0	
0.9647	0.518762	17.0183	0	
0.9653	-1.93357	12.4554	0	
0.9660	-13.8651	-11.0496	0	
0.9667	-15.6572	-68.7391	0	
0.9673	-8.34735	-100.457	0	
0.9680	-0.424442	-65.9767	0	
0.9687	7.21551	-29.375	0	
0.9693	13.2992	-31.2002	0	
0.9700	21.5522	-30.8796	0	
0.9707	35.6059	-12.8747	0	
0.9713	42.0197	-4.63687	0	
0.9720	31.9274	-14.4039	0	
0.9727	20.326	-32.1128	0	
0.9733	15.4685	-36.0837	0	
0.9740	9.05476	1.77582	0	
0.9747	1.41481	74.0912	0	
0.9753	1.69777	122.014	0	
0.9760	8.44167	94.8338	0	
0.9767	8.11155	19.7807	0	
0.9773	-0.707403	-22.9624	0	
0.9780	0.518762	-7.39926	0	
0.9787	11.79	13.368	0	
0.9793	4.48022	8.48448	0	
0.9800	-26.6455	2.6884	0	
0.9807	-50.1784	0.542612	0	
0.9813	-46.217	-9.52038	0	
0.9820	-28.2018	-11.9621	0	
0.9827	-12.3088	-5.25347	0	
0.9833	-7.12119	-8.90377	0	
0.9840	-6.50811	-4.9575	0	
0.9847	-0.424442	20.0766	0	
0.9853	2.02789	30.1396	0	
0.9860	-3.77281	14.2806	0	
0.9867	-2.26369	-1.89914	0	
0.9873	4.76318	-13.1953	0	
0.9880	0.188641	-23.8749	0	
0.9887	-1.93357	-24.7875	0	
0.9893	14.5253	-21.4332	0	
0.9900	31.9274	-20.5206	0	
0.9907	40.7936	-26.3167	0	
0.9913	52.0648	-51.9428	0	
0.9920	63.6663	-85.2148	0	
0.9927	68.2408	-80.3313	0	
0.9933	67.0146	-27.5252	0	
0.9940	61.827	9.69303	0	
0.9947	50.8387	-20.2	0	
0.9953	35.2758	-72.3894	0	
0.9960	20.326	-83.069	0	
0.9967	9.9508	-74.8311	0	
0.9973	2.64097	-65.9767	0	
0.9980	2.92393	-17.1663	0	
0.9987	12.6861	48.4651	0	
0.9993	15.1384	59.7367	0	
1.0000	-1.03752	40.8192	0	
1.0007	-23.6273	65.5574	0	
1.0013	-37.3509	115.28	0	
1.0020	-36.1247	119.572	0	
1.0027	-20.8448	80.5039	0	
1.0033	-4.99898	60.3533	0	
1.0040	2.31085	80.1833	0	
1.0047	5.70638	95.771	0	
1.0053	5.37626	75.9164	0	
1.0060	3.86714	46.6153	0	
1.0067	9.66784	33.494	0	
1.0073	9.9508	20.9892	0	
1.0080	-5.61206	-4.3409	0	
1.0087	-12.3088	-31.4962	0	
1.0093	-2.87677	-48.2925	0	
1.0100	-3.15973	-35.7631	0	
1.0107	-15.9873	-3.10769	0	
1.0113	-24.8534	-10.137	0	
1.0120	-27.5887	-52.5594	0	
1.0127	-19.6658	-32.1128	0	
1.0133	-5.61206	67.6785	0	
1.0140	-4.10294	156.494	0	
1.0147	-4.10294	166.557	0	
1.0153	4.76318	95.1544	0	
1.0160	-1.93357	0.542612	0	
1.0167	-26.6455	-36.6756	0	
1.0173	-41.9254	-19.608	0	
1.0180	-43.4345	1.77582	0	
1.0187	-34.2855	19.1641	0	
1.0193	-20.2317	20.0766	0	
1.0200	-20.5618	-11.0496	0	
1.0207	-25.7495	-40.9672	0	
1.0213	-13.8651	-47.3799	0	
1.0220	-4.10294	-45.8507	0	
1.0227	-9.57352	-41.2632	0	
1.0233	-11.6957	-23.8749	0	
1.0240	-4.10294	12.4554	0	
1.0247	3.53701	39.6107	0	
1.0253	1.13184	16.4017	0	
1.0260	-15.9873	-20.2	0	
1.0267	-29.7109	-7.9912	0	
1.0273	-31.22	17.6349	0	
1.0280	-34.8985	7.25127	0	
1.0287	-33.3894	-6.48668	0	
1.0293	-18.4396	-0.0739926	0	
1.0300	-7.45131	3.60097	0	
1.0307	-2.54665	0.246642	0	
1.0313	2.64097	-0.665933	0	
1.0320	-0.0943204	-1.28254	0	
1.0327	-3.77281	-3.72429	0	
1.0333	1.13184	-8.6078	0	
1.0340	4.76318	-12.2828	0	
1.0347	8.44167	-10.433	0	
1.0353	17.2606	-8.31183	0	
1.0360	21.5522	-9.22441	0	
1.0367	22.7784	-9.22441	0	
1.0373	23.3915	-12.8747	0	
1.0380	15.1384	-20.5206	0	
1.0387	7.21551	-22.0498	0	
1.0393	6.31946	-18.6708	0	
1.0400	1.69777	-19.608	0	
1.0407	-2.54665	-24.1709	0	
1.0413	2.92393	-29.375	0	
1.0420	8.72463	-27.2293	0	
1.0427	12.073	-3.72429	0	
1.0433	19.713	30.7562	0	
1.0440	20.326	37.7855	0	
1.0447	14.8555	16.1057	0	
1.0453	18.2038	4.51355	0	
1.0460	16.9777	12.7514	0	
1.0467	-3.15973	14.5765	0	
1.0473	-23.9102	4.51355	0	
1.0480	-26.9756	-0.986567	0	
1.0487	-18.4396	0.838582	0	
1.0493	-6.50811	1.45519	0	
1.0500	2.92393	5.13015	0	
1.0507	6.31946	15.4891	0	
1.0513	2.64097	18.2515	0	
1.0520	-9.29056	7.57191	0	
1.0527	-21.1749	-4.9575	0	
1.0533	-16.6004	-12.5787	0	
1.0540	-1.03752	-14.7245	0	
1.0547	1.13184	-12.2828	0	
1.0553	-4.66886	-9.22441	0	
1.0560	-0.0943204	-10.433	0	
1.0567	9.9508	-12.8747	0	
1.0573	12.6861	-12.2828	0	
1.0580	7.82859	-11.3455	0	
1.0587	1.41481	-11.0496	0	
1.0593	5.0933	-10.137	0	
1.0600	17.5907	-8.31183	0	
1.0607	18.2038	-6.48668	0	
1.0613	8.11155	-6.48668	0	
1.0620	9.9508	-11.6662	0	
1.0627	18.4868	-20.5206	0	
1.0633	10.2809	-24.1709	0	
1.0640	-11.0826	-22.9624	0	
1.0647	-27.5887	-23.8749	0	
1.0653	-38.577	-27.5252	0	
1.0660	-46.7829	-34.8505	0	
1.0667	-47.396	-33.9379	0	
1.0673	-42.2084	-7.07862	0	
1.0680	-37.3509	21.6058	0	
1.0687	-26.6455	15.1931	0	
1.0693	-13.535	-16.5497	0	
1.0700	-9.85648	-51.9428	0	
1.0707	-10.7997	-77.8895	0	
1.0713	-5.89502	-70.5642	0	
1.0720	0.801723	-47.6759	0	
1.0727	6.60243	-49.501	0	
1.0733	11.5071	-59.8846	0	
1.0740	15.4685	-47.3799	0	
1.0747	21.8823	-9.52038	0	
1.0753	20.6562	54.5572	0	
1.0760	-1.93357	106.451	0	
1.0767	-30.9371	94.2419	0	
1.0773	-46.7829	59.1447	0	
1.0780	-48.3392	52.1154	0	
1.0787	-39.4731	42.669	0	
1.0793	-29.7109	17.3389	0	
1.0800	-27.5887	8.16385	0	
1.0807	-26.0324	15.8097	0	
1.0813	-18.1095	29.5477	0	
1.0820	-8.96044	39.6107	0	
1.0827	-4.10294	24.6642	0	
1.0833	-1.03752	-3.72429	0	
1.0840	2.92393	-15.6371	0	
1.0847	3.53701	-21.7291	0	
1.0853	-7.73427	-33.3213	0	
1.0860	-20.2317	-35.4671	0	
1.0867	-18.4396	-26.6127	0	
1.0873	-7.73427	-23.2583	0	
1.0880	-0.0943204	-30.5836	0	
1.0887	-0.0943204	-25.0835	0	
1.0893	-5.28194	10.0137	0	
1.0900	-2.26369	38.3775	0	
1.0907	12.4031	28.3145	0	
1.0913	20.9391	20.9892	0	
1.0920	20.0431	35.6397	0	
1.0927	26.1267	22.5184	0	
1.0933	33.7667	-20.8166	0	
1.0940	31.9274	-46.4427	0	
1.0947	29.8052	-57.7389	0	
1.0953	34.0497	-70.2683	0	
1.0960	37.1151	-61.0932	0	
1.0967	35.6059	-43.7049	0	
1.0973	29.1922	-59.8846	0	
1.0980	17.8737	-74.2145	0	
1.0987	14.5253	-20.8166	0	
1.0993	22.1653	66.766	0	
1.1000	20.0431	100.334	0	
1.1007	9.9508	67.9992	0	
1.1013	14.8555	31.9894	0	
1.1020	27.0699	30.7562	0	
1.1027	21.2692	40.2273	0	
1.1033	5.37626	33.494	0	
1.1040	-3.77281	36.8483	0	
1.1047	-7.73427	59.1447	0	
1.1053	-13.535	50.9069	0	
1.1060	-18.4396	14.2806	0	
1.1067	-9.85648	4.51355	0	
1.1073	8.44167	19.1641	0	
1.1080	10.5639	34.7272	0	
1.1087	-6.50811	60.9699	0	
1.1093	-14.1481	64.0282	0	
1.1100	-6.50811	15.1931	0	
1.1107	-0.707403	-26.9333	0	
1.1113	-7.45131	-23.2583	0	
1.1120	-23.6273	-8.31183	0	
1.1127	-32.4462	-3.72429	0	
1.1133	-25.1364	-2.81172	0	
1.1140	-15.6572	-5.87008	0	
1.1147	-9.57352	-9.52038	0	
1.1153	-0.0943204	-11.6662	0	
1.1160	4.76318	-16.8456	0	
1.1167	3.53701	-19.2874	0	
1.1173	1.69777	-13.7873	0	
1.1180	-6.50811	-9.84101	0	
1.1187	-16.6004	-8.90377	0	
1.1193	-16.2703	-5.54944	0	
1.1200	-14.1481	-3.42832	0	
1.1207	-17.8266	-7.39926	0	
1.1213	-14.1481	-14.4039	0	
1.1220	1.69777	-20.5206	0	
1.1227	14.2424	-26.9333	0	
1.1233	10.2809	-31.2002	0	
1.1240	-1.03752	-33.6419	0	
1.1247	-1.65061	-38.5255	0	
1.1253	12.073	-50.4136	0	
1.1260	26.4569	-64.1515	0	
1.1267	31.9274	-54.6805	0	
1.1273	31.6445	-14.1079	0	
1.1280	36.502	10.0137	0	
1.1287	46.8772	-8.31183	0	
1.1293	43.8118	-33.9379	0	
1.1300	17.8737	-47.3799	0	
1.1307	-8.96044	-39.1174	0	
1.1313	-20.5618	8.48448	0	
1.1320	-25.7495	41.1399	0	
1.1327	-32.7763	6.9553	0	
1.1333	-39.1901	-8.31183	0	
1.1340	-46.217	40.8192	0	
1.1347	-49.5654	64.6202	0	
1.1353	-39.4731	42.669	0	
1.1360	-23.6273	33.8146	0	
1.1367	-15.3742	27.4019	0	
1.1373	-6.50811	13.368	0	
1.1380	7.82859	23.135	0	
1.1387	11.79	35.0231	0	
1.1393	2.92393	21.2852	0	
1.1400	-0.707403	4.51355	0	
1.1407	5.37626	-7.69523	0	
1.1413	11.5071	-21.1125	0	
1.1420	9.33772	-21.4332	0	
1.1427	-0.424442	-7.69523	0	
1.1433	-4.10294	4.80952	0	
1.1440	8.11155	9.10108	0	
1.1447	24.2875	6.04273	0	
1.1453	33.7667	6.65933	0	
1.1460	37.4452	17.3389	0	
1.1467	39.2373	22.8144	0	
1.1473	41.0765	8.78045	0	
1.1480	31.9274	-13.1953	0	
1.1487	-1.65061	-19.608	0	
1.1493	-37.9639	-6.16605	0	
1.1500	-37.3509	4.51355	0	
1.1507	-1.93357	2.6884	0	
1.1513	26.4569	0.838582	0	
1.1520	17.2606	1.45519	0	
1.1527	-13.252	-3.10769	0	
1.1533	-28.8149	-9.84101	0	
1.1540	-21.4579	-19.608	0	
1.1547	-21.1749	-35.1711	0	
1.1553	-35.7946	-44.6175	0	
1.1560	-35.7946	-45.2341	0	
1.1567	-17.4964	-47.0593	0	
1.1573	-12.9219	-47.6759	0	
1.1580	-21.1749	-46.4427	0	
1.1587	-13.8651	-49.501	0	
1.1593	3.53701	-33.9379	0	
1.1600	9.33772	11.8388	0	
1.1607	10.2809	28.6105	0	
1.1613	17.2606	-2.19511	0	
1.1620	22.4482	-15.0205	0	
1.1627	20.9391	-3.10769	0	
1.1633	16.9777	-11.3455	0	
1.1640	12.6861	-16.229	0	
1.1647	5.37626	3.60097	0	
1.1653	-4.3859	11.5428	0	
1.1660	-8.06439	14.5765	0	
1.1667	-3.77281	36.8483	0	
1.1673	-8.06439	46.3193	0	
1.1680	-19.3357	33.8146	0	
1.1687	-23.9102	29.2271	0	
1.1693	-22.4011	27.4019	0	
1.1700	-18.4396	14.5765	0	
1.1707	-7.12119	6.04273	0	
1.1713	1.69777	8.16385	0	
1.1720	-0.0943204	13.664	0	
1.1727	-2.87677	19.1641	0	
1.1733	-1.03752	18.2515	0	
1.1740	3.86714	10.6056	0	
1.1747	9.9508	2.98437	0	
1.1753	9.33772	3.60097	0	
1.1760	5.70638	10.9262	0	
1.1767	8.72463	17.3389	0	
1.1773	14.2424	16.7223	0	
1.1780	14.8555	8.16385	0	
1.1787	18.2038	-8.6078	0	
1.1793	31.0314	-19.608	0	
1.1800	36.8321	-14.1079	0	
1.1807	18.8169	-10.137	0	
1.1813	-7.45131	-14.4039	0	
1.1820	-17.2135	-11.9621	0	
1.1827	-18.4396	-6.78265	0	
1.1833	-24.8534	-6.16605	0	
1.1840	-23.9102	-3.10769	0	
1.1847	-12.3088	-2.51575	0	
1.1853	-5.61206	-10.433	0	
1.1860	-1.93357	-19.2874	0	
1.1867	4.48022	-24.7875	0	
1.1873	8.72463	-19.2874	0	
1.1880	10.894	-2.19511	0	
1.1887	16.9777	1.45519	0	
1.1893	24.6176	-12.8747	0	
1.1900	25.5137	-11.0496	0	
1.1907	14.5253	7.86788	0	
1.1913	-0.707403	17.3389	0	
1.1920	-3.15973	17.3389	0	
1.1927	8.11155	13.664	0	
1.1933	19.0999	2.07179	0	
1.1940	25.2307	-14.7245	0	
1.1947	29.1922	-45.8507	0	
1.1953	28.249	-98.3361	0	
1.1960	26.4569	-151.438	0	
1.1967	27.3529	-184.389	0	
1.1973	24.9006	-189.273	0	
1.1980	12.6861	-140.142	0	
1.1987	-10.4696	-27.2293	0	
1.1993	-34.2855	100.334	0	
1.2000	-42.2084	172.353	0	
1.2007	-35.5116	172.97	0	
1.2013	-25.7495	149.169	0	
1.2020	-10.1866	134.814	0	
1.2027	3.53701	110.718	0	
1.2033	-2.87677	62.1784	0	
1.2040	-19.3357	4.21758	0	
1.2047	-20.8448	-43.7049	0	
1.2053	-9.29056	-49.501	0	
1.2060	-1.32049	-14.7245	0	
1.2067	0.518762	-11.0496	0	
1.2073	1.13184	-30.2876	0	
1.2080	4.48022	28.3145	0	
1.2087	14.5253	118.659	0	
1.2093	25.5137	110.718	0	
1.2100	26.4569	52.1154	0	
1.2107	19.0999	35.3438	0	
1.2113	16.9777	25.8727	0	
1.2120	23.0613	7.25127	0	
1.2127	30.0882	12.4554	0	
1.2133	28.249	22.2224	0	
1.2140	7.21551	20.0766	0	
1.2147	-26.0324	19.1641	0	
1.2153	-46.217	10.3096	0	
1.2160	-40.6992	-3.10769	0	
1.2167	-23.6273	0.246642	0	
1.2173	-10.1866	8.16385	0	
1.2180	-4.3859	3.28034	0	
1.2187	-1.32049	-5.54944	0	
1.2193	2.92393	-9.84101	0	
1.2200	1.69777	-11.6662	0	
1.2207	-7.73427	-14.7245	0	
1.2213	-11.6957	-16.5497	0	
1.2220	-9.85648	-11.3455	0	
1.2227	-13.535	-9.52038	0	
1.2233	-15.3742	-14.7245	0	
1.2240	-9.57352	-15.3165	0	
1.2247	-5.28194	-13.1953	0	
1.2253	-1.03752	-17.4622	0	
1.2260	8.11155	-20.8166	0	
1.2267	14.2424	-19.608	0	
1.2273	14.2424	-22.0498	0	
1.2280	10.2809	-22.3458	0	
1.2287	0.801723	-8.6078	0	
1.2293	-12.0258	4.51355	0	
1.2300	-15.0441	-4.63687	0	
1.2307	-8.34735	-21.1125	0	
1.2313	-5.61206	-21.1125	0	
1.2320	-9.29056	-15.6371	0	
1.2327	-5.61206	-11.6662	0	
1.2333	2.64097	6.04273	0	
1.2340	-1.65061	24.3436	0	
1.2347	-12.9219	20.0766	0	
1.2353	-12.0258	-1.60317	0	
1.2360	-4.66886	-21.7291	0	
1.2367	-4.66886	-26.3167	0	
1.2373	-7.73427	-18.9914	0	
1.2380	-4.66886	-22.0498	0	
1.2387	1.13184	-31.2002	0	
1.2393	4.48022	-27.2293	0	
1.2400	4.1501	-13.4913	0	
1.2407	4.76318	4.21758	0	
1.2413	9.33772	17.6349	0	
1.2420	11.79	8.78045	0	
1.2427	7.82859	-7.39926	0	
1.2433	7.82859	-6.78265	0	
1.2440	13.9123	-4.63687	0	
1.2447	15.4685	-3.72429	0	
1.2453	10.5639	7.25127	0	
1.2460	5.98934	9.39705	0	
1.2467	4.48022	1.77582	0	
1.2473	11.177	12.1348	0	
1.2480	24.6176	22.8144	0	
1.2487	26.7398	7.25127	0	
1.2493	13.6293	-3.10769	0	
1.2500	-0.0943204	5.42612	0	
1.2507	-9.57352	-1.60317	0	
1.2513	-13.8651	-30.2876	0	
1.2520	-13.8651	-48.5884	0	
1.2527	-20.2317	-38.8214	0	
1.2533	-31.22	3.60097	0	
1.2540	-31.5502	64.0282	0	
1.2547	-24.5233	83.5623	0	
1.2553	-21.1749	32.5814	0	
1.2560	-16.8833	-24.1709	0	
1.2567	-8.06439	-33.9379	0	
1.2573	1.69777	-29.967	0	
1.2580	2.64097	-34.5545	0	
1.2587	-9.57352	-16.5497	0	
1.2593	-23.6273	23.431	0	
1.2600	-24.5233	49.3777	0	
1.2607	-21.4579	42.0524	0	
1.2613	-23.2971	8.48448	0	
1.2620	-19.6658	-25.0835	0	
1.2627	-4.66886	-35.1711	0	
1.2633	8.44167	-26.6127	0	
1.2640	7.21551	-11.0496	0	
1.2647	-1.32049	3.60097	0	
1.2653	-2.54665	-2.81172	0	
1.2660	-7.45131	-26.3167	0	
1.2667	-26.6455	-32.1128	0	
1.2673	-35.2287	-9.52038	0	
1.2680	-19.0527	12.7514	0	
1.2687	-2.54665	10.6056	0	
1.2693	3.53701	-12.8747	0	
1.2700	9.9508	-29.0544	0	
1.2707	14.5253	-14.4039	0	
1.2713	13.2992	24.0476	0	
1.2720	12.073	64.0282	0	
1.2727	9.66784	75.0038	0	
1.2733	4.48022	46.6153	0	
1.2740	1.13184	16.4017	0	
1.2747	-4.66886	13.368	0	
1.2753	-11.0826	9.39705	0	
1.2760	-9.85648	-6.48668	0	
1.2767	-8.34735	-8.31183	0	
1.2773	-14.7611	-2.81172	0	
1.2780	-17.4964	-5.87008	0	
1.2787	-12.6389	-8.31183	0	
1.2793	-9.29056	-6.78265	0	
1.2800	-11.0826	-7.39926	0	
1.2807	-13.8651	-5.25347	0	
1.2813	-12.9219	-1.89914	0	
1.2820	-8.34735	-1.28254	0	
1.2827	-12.0258	0.246642	0	
1.2833	-19.9488	0.246642	0	
1.2840	-19.0527	-2.81172	0	
1.2847	-16.8833	-2.51575	0	
1.2853	-24.8534	-1.89914	0	
1.2860	-31.5502	-5.87008	0	
1.2867	-31.22	-7.69523	0	
1.2873	-27.8717	-5.25347	0	
1.2880	-22.071	-7.39926	0	
1.2887	-20.2317	-11.0496	0	
1.2893	-26.0324	-11.3455	0	
1.2900	-26.6455	-13.4913	0	
1.2907	-17.4964	-16.8456	0	
1.2913	-8.34735	-17.1663	0	
1.2920	-3.77281	-11.3455	0	
1.2927	-1.65061	-0.0739926	0	
1.2933	2.31085	9.39705	0	
1.2940	7.21551	10.6056	0	
1.2947	4.1501	11.5428	0	
1.2953	-2.87677	13.664	0	
1.2960	-1.93357	7.25127	0	
1.2967	-0.0943204	-1.60317	0	
1.2973	-5.89502	-1.60317	0	
1.2980	-9.57352	-0.0739926	0	
1.2987	-6.50811	-1.60317	0	
1.2993	-7.45131	-0.665933	0	
1.3000	-14.7611	-1.89914	0	
1.3007	-16.6004	-6.48668	0	
1.3013	-15.0441	-6.78265	0	
1.3020	-17.4964	-5.54944	0	
1.3027	-12.9219	-8.6078	0	
1.3033	2.64097	-7.39926	0	
1.3040	9.9508	-1.60317	0	
1.3047	4.1501	-2.81172	0	
1.3053	0.188641	-7.39926	0	
1.3060	-5.89502	-4.63687	0	
1.3067	-15.3742	-0.986567	0	
1.3073	-12.0258	2.07179	0	
1.3080	-0.424442	8.16385	0	
1.3087	8.11155	8.16385	0	
1.3093	18.2038	-8.6078	0	
1.3100	19.0999	-33.9379	0	
1.3107	7.21551	-49.8217	0	
1.3113	-2.54665	-47.9718	0	
1.3120	-9.29056	-38.5255	0	
1.3127	-11.6957	-32.1128	0	
1.3133	1.69777	-28.1418	0	
1.3140	8.72463	-36.9963	0	
1.3147	-6.22514	-53.176	0	
1.3153	-16.2703	-17.7582	0	
1.3160	-12.6389	72.562	0	
1.3167	-12.9219	108.892	0	
1.3173	-8.34735	57.6155	0	
1.3180	3.53701	20.9892	0	
1.3187	5.98934	23.431	0	
1.3193	6.88539	-0.986567	0	
1.3200	16.9777	-39.1174	0	
1.3207	27.0699	-55.0011	0	
1.3213	35.8889	-65.9767	0	
1.3220	37.4452	-61.0932	0	
1.3227	16.0816	-53.176	0	
1.3233	-11.4128	-98.6321	0	
1.3240	-21.1749	-120.608	0	
1.3247	-19.9488	-16.229	0	
1.3253	-19.0527	107.955	0	
1.3260	-15.0441	137.577	0	
1.3267	-8.34735	125.047	0	
1.3273	-3.15973	99.7173	0	
1.3280	-6.22514	49.9943	0	
1.3287	-13.8651	26.4893	0	
1.3293	-13.252	32.902	0	
1.3300	-6.50811	21.9018	0	
1.3307	-9.85648	1.15922	0	
1.3313	-14.1481	-14.1079	0	
1.3320	-3.77281	-8.6078	0	
1.3327	12.4031	35.3438	0	
1.3333	20.6562	51.4988	0	
1.3340	18.2038	2.6884	0	
1.3347	11.5071	-19.904	0	
1.3353	10.894	8.48448	0	
1.3360	13.0162	15.4891	0	
1.3367	5.70638	-1.89914	0	
1.3373	-6.22514	-18.0788	0	
1.3380	-13.252	-36.0837	0	
1.3387	-12.9219	-25.4041	0	
1.3393	-3.15973	-0.986567	0	
1.3400	4.76318	-22.0498	0	
1.3407	0.518762	-37.9089	0	
1.3413	-1.93357	24.9602	0	
1.3420	8.44167	89.6543	0	
1.3427	13.6293	74.7078	0	
1.3433	9.33772	36.5523	0	
1.3440	10.894	36.5523	0	
1.3447	15.4685	45.7027	0	
1.3453	9.33772	32.902	0	
1.3460	-1.03752	15.8097	0	
1.3467	-1.03752	10.9262	0	
1.3473	11.5071	9.69303	0	
1.3480	20.0431	5.72209	0	
1.3487	14.8555	4.80952	0	
1.3493	13.9123	6.65933	0	
1.3500	27.966	5.72209	0	
1.3507	36.502	6.04273	0	
1.3513	24.0045	10.0137	0	
1.3520	8.11155	8.78045	0	
1.3527	7.21551	-0.0739926	0	
1.3533	16.9777	-6.48668	0	
1.3540	29.1922	-5.54944	0	
1.3547	37.1151	-2.81172	0	
1.3553	27.966	-3.42832	0	
1.3560	6.31946	-8.31183	0	
1.3567	-1.93357	-14.4039	0	
1.3573	5.37626	-17.4622	0	
1.3580	2.92393	-19.904	0	
1.3587	-11.0826	-23.8749	0	
1.3593	-18.4396	-19.904	0	
1.3600	-17.4964	-5.25347	0	
1.3607	-15.6572	4.51355	0	
1.3613	-9.29056	2.6884	0	
1.3620	3.25405	-0.369963	0	
1.3627	14.8555	1.15922	0	
1.3633	20.9391	1.45519	0	
1.3640	24.9006	-3.72429	0	
1.3647	27.3529	-8.90377	0	
1.3653	23.6744	-10.137	0	
1.3660	18.2038	-11.0496	0	
1.3667	15.4685	-15.0205	0	
1.3673	10.894	-16.8456	0	
1.3680	2.64097	-16.5497	0	
1.3687	-3.15973	-14.1079	0	
1.3693	-4.10294	-2.51575	0	
1.3700	-8.34735	10.6056	0	
1.3707	-17.2135	8.16385	0	
1.3713	-20.8448	-0.369963	0	
1.3720	-12.9219	-2.81172	0	
1.3727	1.13184	-5.87008	0	
1.3733	9.9508	-10.433	0	
1.3740	13.0162	-7.69523	0	
1.3747	14.2424	-3.72429	0	
1.3753	13.2992	-4.9575	0	
1.3760	7.21551	-5.54944	0	
1.3767	-1.93357	-4.9575	0	
1.3773	-11.0826	-7.39926	0	
1.3780	-11.6957	-11.9621	0	
1.3787	-1.03752	-11.9621	0	
1.3793	10.2809	-8.31183	0	
1.3800	10.2809	-8.31183	0	
1.3807	3.53701	-10.433	0	
1.3813	-1.03752	-8.90377	0	
1.3820	-6.50811	-7.69523	0	
1.3827	-11.0826	-7.69523	0	
1.3833	-7.12119	-2.81172	0	
1.3840	0.801723	3.28034	0	
1.3847	4.1501	1.77582	0	
1.3853	7.21551	2.07179	0	
1.3860	6.88539	8.16385	0	
1.3867	2.64097	6.65933	0	
1.3873	5.37626	0.838582	0	
1.3880	12.4031	3.89694	0	
1.3887	10.894	8.16385	0	
1.3893	5.0933	4.21758	0	
1.3900	4.48022	1.77582	0	
1.3907	6.31946	3.89694	0	
1.3913	9.05476	4.51355	0	
1.3920	11.177	1.77582	0	
1.3927	10.894	-2.81172	0	
1.3933	9.9508	-8.90377	0	
1.3940	7.21551	-15.0205	0	
1.3947	2.64097	-19.2874	0	
1.3953	2.64097	-16.229	0	
1.3960	4.1501	-11.0496	0	
1.3967	-4.10294	-15.6371	0	
1.3973	-6.83823	-19.2874	0	
1.3980	12.073	-13.1953	0	
1.3987	25.5137	-12.8747	0	
1.3993	16.0816	-13.7873	0	
1.4000	12.6861	2.36776	0	
1.4007	24.9006	16.1057	0	
1.4013	29.1922	4.21758	0	
1.4020	24.9006	-10.137	0	
1.4027	25.5137	-9.84101	0	
1.4033	19.0999	-8.31183	0	
1.4040	-0.424442	-8.6078	0	
1.4047	-16.8833	-1.89914	0	
1.4053	-15.6572	6.9553	0	
1.4060	-4.10294	10.0137	0	
1.4067	2.64097	17.6349	0	
1.4073	2.92393	30.1396	0	
1.4080	5.70638	19.1641	0	
1.4087	10.894	-17.4622	0	
1.4093	9.9508	-32.1128	0	
1.4100	8.44167	-13.4913	0	
1.4107	14.5253	-6.48668	0	
1.4113	23.3915	-17.1663	0	
1.4120	29.1922	-17.4622	0	
1.4127	25.8438	-18.0788	0	
1.4133	6.60243	-28.7584	0	
1.4140	-15.6572	-17.4622	0	
1.4147	-18.4396	20.0766	0	
1.4153	-4.3859	38.3775	0	
1.4160	5.70638	23.431	0	
1.4167	12.4031	8.78045	0	
1.4173	20.0431	4.51355	0	
1.4180	19.713	-1.28254	0	
1.4187	11.177	0.542612	0	
1.4193	5.70638	8.48448	0	
1.4200	0.801723	-0.986567	0	
1.4207	-10.1866	-13.7873	0	
1.4213	-21.1749	-11.9621	0	
1.4220	-24.8534	-19.904	0	
1.4227	-19.9488	-35.7631	0	
1.4233	-12.0258	-21.7291	0	
1.4240	-9.57352	7.25127	0	
1.4247	-10.7997	15.1931	0	
1.4253	-7.45131	12.7514	0	
1.4260	-5.89502	13.9599	0	
1.4267	-8.96044	19.1641	0	
1.4273	-4.10294	34.7272	0	
1.4280	5.70638	44.4942	0	
1.4287	9.33772	29.2271	0	
1.4293	12.073	12.7514	0	
1.4300	15.1384	9.39705	0	
1.4307	8.72463	6.3387	0	
1.4313	7.21551	1.45519	0	
1.4320	20.9391	0.838582	0	
1.4327	24.0045	0.246642	0	
1.4333	11.79	-4.63687	0	
1.4340	6.31946	-21.4332	0	
1.4347	4.48022	-45.2341	0	
1.4353	-3.77281	-60.1806	0	
1.4360	-8.34735	-66.8893	0	
1.4367	-11.0826	-75.1271	0	
1.4373	-17.4964	-88.8651	0	
1.4380	-13.252	-98.0155	0	
1.4387	6.60243	-63.8556	0	
1.4393	33.1536	20.9892	0	
1.4400	51.1688	75.0038	0	
1.4407	40.1805	46.6153	0	
1.4413	15.1384	-4.04493	0	
1.4420	11.5071	-19.904	0	
1.4427	18.2038	-11.0496	0	
1.4433	6.60243	13.0474	0	
1.4440	-9.29056	53.028	0	
1.4447	-20.2317	87.8292	0	
1.4453	-34.0025	100.951	0	
1.4460	-35.2287	86.004	0	
1.4467	-18.7226	53.028	0	
1.4473	-10.7997	32.5814	0	
1.4480	-13.8651	32.902	0	
1.4487	-10.4696	29.2271	0	
1.4493	-7.45131	18.8434	0	
1.4500	-8.06439	18.8434	0	
1.4507	0.188641	23.431	0	
1.4513	9.33772	17.9309	0	
1.4520	3.25405	8.48448	0	
1.4527	-5.61206	4.21758	0	
1.4533	-3.77281	5.42612	0	
1.4540	0.188641	6.9553	0	
1.4547	4.1501	2.36776	0	
1.4553	7.21551	-3.72429	0	
1.4560	-7.45131	-7.39926	0	
1.4567	-28.8149	-14.4039	0	
1.4573	-30.041	-19.904	0	
1.4580	-21.1749	-21.1125	0	
1.4587	-16.6004	-25.7001	0	
1.4593	-5.61206	-21.1125	0	
1.4600	2.64097	1.77582	0	
1.4607	-6.50811	8.48448	0	
1.4613	-10.1866	-13.4913	0	
1.4620	4.48022	-30.2876	0	
1.4627	10.894	-37.9089	0	
1.4633	-0.0943204	-44.9381	0	
1.4640	-12.3088	-39.438	0	
1.4647	-19.9488	-37.6129	0	
1.4653	-19.6658	-36.9963	0	
1.4660	-15.6572	8.48448	0	
1.4667	-19.3357	64.9408	0	
1.4673	-24.8534	53.3486	0	
1.4680	-21.1749	13.664	0	
1.4687	-16.8833	9.69303	0	
1.4693	-21.1749	8.48448	0	
1.4700	-25.1364	-13.4913	0	
1.4707	-25.7495	-21.7291	0	
1.4713	-30.324	-0.986567	0	
1.4720	-35.7946	37.7855	0	
1.4727	-28.8149	65.8534	0	
1.4733	-12.6389	46.9359	0	
1.4740	-1.03752	6.9553	0	
1.4747	3.53701	-0.986567	0	
1.4753	7.49847	12.1348	0	
1.4760	9.9508	15.1931	0	
1.4767	5.0933	15.1931	0	
1.4773	-9.85648	16.7223	0	
1.4780	-25.7495	11.2222	0	
1.4787	-24.5233	4.51355	0	
1.4793	-8.67747	-0.369963	0	
1.4800	-6.50811	-6.16605	0	
1.4807	-21.4579	-9.22441	0	
1.4813	-29.428	-9.52038	0	
1.4820	-23.9102	-14.7245	0	
1.4827	-19.0527	-16.8456	0	
1.4833	-16.8833	-8.90377	0	
1.4840	-10.4696	-1.89914	0	
1.4847	-6.22514	-2.81172	0	
1.4853	-7.73427	-1.28254	0	
1.4860	-6.50811	3.28034	0	
1.4867	-1.93357	-0.0739926	0	
1.4873	-3.15973	-1.28254	0	
1.4880	-2.26369	9.10108	0	
1.4887	7.21551	12.4554	0	
1.4893	10.894	2.6884	0	
1.4900	6.60243	3.60097	0	
1.4907	8.72463	12.4554	0	
1.4913	13.2992	6.3387	0	
1.4920	14.8555	-4.63687	0	
1.4927	16.3646	-5.25347	0	
1.4933	10.5639	-2.19511	0	
1.4940	-0.424442	-0.369963	0	
1.4947	-0.0943204	-1.28254	0	
1.4953	4.48022	-7.69523	0	
1.4960	2.64097	-10.137	0	
1.4967	7.21551	-3.42832	0	
1.4973	10.894	-0.0739926	0	
1.4980	-0.0943204	-3.72429	0	
1.4987	-8.06439	-8.31183	0	
1.4993	-2.26369	-14.7245	0	
1.5000	3.86714	-17.4622	0	
1.5007	13.2992	-9.22441	0	
1.5013	26.4569	-1.89914	0	
1.5020	23.3915	-1.89914	0	
1.5027	10.894	-2.81172	0	
1.5033	14.5253	-4.04493	0	
1.5040	26.4569	-4.63687	0	
1.5047	21.8823	-3.10769	0	
1.5053	5.70638	-6.78265	0	
1.5060	-6.22514	-11.6662	0	
1.5067	-12.3088	-6.48668	0	
1.5073	-10.1866	-9.84101	0	
1.5080	1.13184	-26.6127	0	
1.5087	9.05476	-30.2876	0	
1.5093	8.11155	-20.8166	0	
1.5100	4.48022	-16.8456	0	
1.5107	2.64097	-18.0788	0	
1.5113	2.31085	-24.7875	0	
1.5120	4.1501	-32.1128	0	
1.5127	7.49847	-14.7245	0	
1.5133	9.05476	18.8434	0	
1.5140	8.72463	30.4603	0	
1.5147	7.82859	17.9309	0	
1.5153	9.05476	5.42612	0	
1.5160	11.79	0.246642	0	
1.5167	12.4031	-4.9575	0	
1.5173	12.6861	-8.90377	0	
1.5180	16.0816	-1.60317	0	
1.5187	14.2424	9.39705	0	
1.5193	5.70638	6.65933	0	
1.5200	2.64097	-0.369963	0	
1.5207	4.76318	0.838582	0	
1.5213	3.25405	-1.60317	0	
1.5220	-1.03752	-11.3455	0	
1.5227	-3.77281	-18.0788	0	
1.5233	-4.66886	-18.3748	0	
1.5240	0.518762	-14.7245	0	
1.5247	9.05476	-14.1079	0	
1.5253	11.177	-11.0496	0	
1.5260	8.44167	10.6056	0	
1.5267	11.177	31.9894	0	
1.5273	16.0816	22.5184	0	
1.5280	14.5253	5.42612	0	
1.5287	9.05476	5.72209	0	
1.5293	8.72463	4.21758	0	
1.5300	16.3646	-4.63687	0	
1.5307	26.4569	-8.31183	0	
1.5313	30.0882	-7.9912	0	
1.5320	23.3915	-2.81172	0	
1.5327	10.5639	6.3387	0	
1.5333	0.188641	2.36776	0	
1.5340	-2.87677	-14.4039	0	
1.5347	-1.65061	-23.8749	0	
1.5353	0.188641	-21.4332	0	
1.5360	2.02789	-24.7875	0	
1.5367	1.69777	-40.3506	0	
1.5373	-1.93357	-40.0546	0	
1.5380	-0.424442	-3.42832	0	
1.5387	8.72463	36.8483	0	
1.5393	17.8737	46.6153	0	
1.5400	24.6176	42.965	0	
1.5407	30.0882	39.29	0	
1.5413	32.8235	19.7807	0	
1.5420	34.0497	-1.89914	0	
1.5427	31.9274	6.3387	0	
1.5433	19.43	28.9311	0	
1.5440	6.31946	31.0522	0	
1.5447	3.25405	16.4017	0	
1.5453	-8.34735	3.60097	0	
1.5460	-30.9371	-0.0739926	0	
1.5467	-35.7946	11.2222	0	
1.5473	-23.9102	25.2561	0	
1.5480	-14.4782	15.8097	0	
1.5487	-1.32049	-8.31183	0	
1.5493	14.5253	-18.3748	0	
1.5500	12.073	-14.7245	0	
1.5507	-2.87677	-11.6662	0	
1.5513	-12.3088	-7.9912	0	
1.5520	-15.6572	-3.72429	0	
1.5527	-8.96044	-7.07862	0	
1.5533	9.66784	-12.5787	0	
1.5540	24.6176	-3.72429	0	
1.5547	26.4569	13.664	0	
1.5553	24.2875	13.0474	0	
1.5560	21.5522	-7.39926	0	
1.5567	16.9777	-20.8166	0	
1.5573	11.5071	-22.9624	0	
1.5580	4.48022	-25.7001	0	
1.5587	-5.28194	-23.2583	0	
1.5593	-17.4964	-13.7873	0	
1.5600	-26.0324	-6.16605	0	
1.5607	-26.6455	1.77582	0	
1.5613	-22.071	12.4554	0	
1.5620	-15.9873	14.8972	0	
1.5627	-5.89502	8.48448	0	
1.5633	3.25405	5.42612	0	
1.5640	10.2809	14.5765	0	
1.5647	21.8823	26.4893	0	
1.5653	27.3529	24.3436	0	
1.5660	19.43	8.16385	0	
1.5667	17.2606	-6.48668	0	
1.5673	18.2038	-17.1663	0	
1.5680	2.92393	-23.2583	0	
1.5687	-14.1481	-22.6417	0	
1.5693	-14.7611	-17.1663	0	
1.5700	-7.12119	-5.25347	0	
1.5707	-0.0943204	8.48448	0	
1.5713	-0.0943204	1.77582	0	
1.5720	-11.0826	-22.3458	0	
1.5727	-13.8651	-39.438	0	
1.5733	-1.93357	-44.9381	0	
1.5740	0.801723	-29.0544	0	
1.5747	-3.15973	23.135	0	
1.5753	-1.03752	69.5037	0	
1.5760	-4.10294	65.2368	0	
1.5767	-14.4782	43.5816	0	
1.5773	-16.8833	34.7272	0	
1.5780	-17.4964	18.2515	0	
1.5787	-19.9488	-2.81172	0	
1.5793	-13.8651	-5.54944	0	
1.5800	-5.61206	-2.81172	0	
1.5807	-6.50811	-7.39926	0	
1.5813	-4.10294	-6.78265	0	
1.5820	9.05476	-0.986567	0	
1.5827	16.0816	1.77582	0	
1.5833	5.70638	4.51355	0	
1.5840	-7.12119	0.838582	0	
1.5847	-13.252	-9.84101	0	
1.5853	-14.7611	-7.9912	0	
1.5860	-11.6957	10.6056	0	
1.5867	-7.45131	17.3389	0	
1.5873	-5.61206	3.60097	0	
1.5880	-0.0943204	-6.78265	0	
1.5887	1.41481	-8.6078	0	
1.5893	-12.0258	-9.84101	0	
1.5900	-21.1749	-8.31183	0	
1.5907	-12.9219	-5.87008	0	
1.5913	-6.22514	-1.28254	0	
1.5920	-4.66886	11.5428	0	
1.5927	5.37626	13.368	0	
1.5933	15.4685	-10.433	0	
1.5940	14.8555	-37.2922	0	
1.5947	14.2424	-53.176	0	
1.5953	12.6861	-63.239	0	
1.5960	3.53701	-61.7098	0	
1.5967	-6.22514	-56.2097	0	
1.5973	-12.3088	-55.0011	0	
1.5980	-16.6004	-46.7633	0	
1.5987	-18.1095	-38.2048	0	
1.5993	-15.3742	-33.9379	0	
1.6000	-9.85648	-7.39926	0	
1.6007	-10.1866	27.6979	0	
1.6013	-18.4396	35.6397	0	
1.6020	-19.9488	42.0524	0	
1.6027	-10.4696	61.8824	0	
1.6033	-4.66886	56.703	0	
1.6040	-6.83823	32.902	0	
1.6047	-5.89502	24.3436	0	
1.6053	0.801723	24.3436	0	
1.6060	6.88539	30.4603	0	
1.6067	8.44167	50.5862	0	
1.6073	6.31946	57.6155	0	
1.6080	5.37626	38.3775	0	
1.6087	8.72463	18.5475	0	
1.6093	9.05476	10.0137	0	
1.6100	-1.03752	5.42612	0	
1.6107	-17.4964	2.98437	0	
1.6113	-26.6455	-0.0739926	0	
1.6120	-19.3357	-5.87008	0	
1.6127	-3.48985	-9.52038	0	
1.6133	3.25405	-11.3455	0	
1.6140	-1.32049	-14.4039	0	
1.6147	-6.22514	-17.7582	0	
1.6153	-5.89502	-17.1663	0	
1.6160	-0.707403	0.246642	0	
1.6167	8.72463	28.3145	0	
1.6173	13.2992	33.8146	0	
1.6180	8.11155	12.1348	0	
1.6187	2.92393	-9.22441	0	
1.6193	2.64097	-18.6708	0	
1.6200	2.64097	-19.608	0	
1.6207	2.64097	-10.137	0	
1.6213	2.64097	4.21758	0	
1.6220	4.48022	11.5428	0	
1.6227	7.82859	8.48448	0	
1.6233	8.44167	2.36776	0	
1.6240	4.1501	1.45519	0	
1.6247	1.69777	3.60097	0	
1.6253	3.25405	3.60097	0	
1.6260	4.1501	6.65933	0	
1.6267	1.69777	15.4891	0	
1.6273	-6.83823	18.2515	0	
1.6280	-18.7226	13.664	0	
1.6287	-23.9102	10.9262	0	
1.6293	-18.4396	6.3387	0	
1.6300	-7.45131	-5.25347	0	
1.6307	3.53701	-15.6371	0	
1.6313	12.6861	-14.4039	0	
1.6320	19.0999	-7.07862	0	
1.6327	22.4482	-5.54944	0	
1.6333	20.6562	-10.7536	0	
1.6340	16.3646	-11.0496	0	
1.6347	11.177	-6.16605	0	
1.6353	7.21551	-0.986567	0	
1.6360	5.0933	2.36776	0	
1.6367	0.801723	0.838582	0	
1.6373	-9.29056	-7.07862	0	
1.6380	-12.6389	-12.8747	0	
1.6387	-4.3859	-10.137	0	
1.6393	-0.0943204	-4.63687	0	
1.6400	-4.99898	-2.19511	0	
1.6407	-2.26369	-4.63687	0	
1.6413	12.4031	-9.22441	0	
1.6420	18.2038	-11.0496	0	
1.6427	5.70638	-12.8747	0	
1.6433	-1.93357	-19.2874	0	
1.6440	3.53701	-24.4915	0	
1.6447	4.48022	-22.6417	0	
1.6453	-4.10294	-16.229	0	
1.6460	-8.67747	-15.9331	0	
1.6467	-9.85648	-18.3748	0	
1.6473	-11.0826	-1.89914	0	
1.6480	-9.85648	26.1687	0	
1.6487	-13.535	28.3145	0	
1.6493	-20.5618	7.25127	0	
1.6500	-15.0441	-1.89914	0	
1.6507	0.801723	-0.665933	0	
1.6513	10.894	-4.04493	0	
1.6520	12.6861	-7.69523	0	
1.6527	4.48022	-10.137	0	
1.6533	-9.29056	-13.7873	0	
1.6540	-16.2703	-13.4913	0	
1.6547	-17.4964	-13.4913	0	
1.6553	-18.4396	-19.2874	0	
1.6560	-12.9219	-18.9914	0	
1.6567	-4.66886	-10.433	0	
1.6573	-0.0943204	-10.137	0	
1.6580	6.31946	-15.3165	0	
1.6587	8.11155	-6.48668	0	
1.6593	-1.32049	11.8388	0	
1.6600	-8.34735	15.4891	0	
1.6607	-6.50811	5.72209	0	
1.6613	-8.67747	-0.0739926	0	
1.6620	-10.7997	-2.51575	0	
1.6627	-2.87677	-0.369963	0	
1.6633	5.37626	9.39705	0	
1.6640	7.21551	11.8388	0	
1.6647	5.70638	4.21758	0	
1.6653	6.60243	7.25127	0	
1.6660	12.6861	18.5475	0	
1.6667	14.5253	26.1687	0	
1.6673	-3.15973	31.0522	0	
1.6680	-24.8534	22.5184	0	
1.6687	-21.788	-1.60317	0	
1.6693	-0.0943204	-12.2828	0	
1.6700	12.4031	-6.48668	0	
1.6707	7.21551	-8.31183	0	
1.6713	-7.12119	-16.229	0	
1.6720	-12.0258	-17.7582	0	
1.6727	3.25405	-23.8749	0	
1.6733	18.2038	-33.0253	0	
1.6740	9.9508	-27.5252	0	
1.6747	-11.0826	-18.9914	0	
1.6753	-25.7495	-22.0498	0	
1.6760	-28.2018	-15.6371	0	
1.6767	-20.2317	8.16385	0	
1.6773	-12.9219	25.5768	0	
1.6780	-12.0258	33.494	0	
1.6787	-10.7997	41.4358	0	
1.6793	-8.34735	31.0522	0	
1.6800	-7.73427	1.45519	0	
1.6807	-2.87677	-12.5787	0	
1.6813	2.64097	-7.69523	0	
1.6820	0.518762	-9.22441	0	
1.6827	-1.93357	-15.3165	0	
1.6833	4.48022	-18.3748	0	
1.6840	8.11155	-21.4332	0	
1.6847	1.69777	-8.31183	0	
1.6853	-2.54665	28.3145	0	
1.6860	0.801723	53.9406	0	
1.6867	2.92393	46.3193	0	
1.6873	3.53701	30.1396	0	
1.6880	6.88539	29.5477	0	
1.6887	7.82859	28.3145	0	
1.6893	3.25405	3.89694	0	
1.6900	-0.424442	-25.7001	0	
1.6907	-1.65061	-25.9961	0	
1.6913	-1.65061	-13.7873	0	
1.6920	-1.93357	-23.8749	0	
1.6927	-3.15973	-40.9672	0	
1.6933	-1.93357	-44.3215	0	
1.6940	2.64097	-42.1758	0	
1.6947	2.64097	-24.7875	0	
1.6953	-4.3859	8.78045	0	
1.6960	-5.61206	22.2224	0	
1.6967	4.1501	12.7514	0	
1.6973	15.4685	12.4554	0	
1.6980	18.8169	20.0766	0	
1.6987	13.2992	19.1641	0	
1.6993	6.60243	11.2222	0	
1.7000	6.31946	6.65933	0	
1.7007	2.64097	18.5475	0	
1.7013	-13.252	39.9067	0	
1.7020	-21.4579	37.1689	0	
1.7027	-7.73427	12.1348	0	
1.7033	0.801723	-3.10769	0	
1.7040	-8.96044	-9.84101	0	
1.7047	-8.67747	-18.0788	0	
1.7053	3.25405	-16.5497	0	
1.7060	1.41481	-7.07862	0	
1.7067	-8.34735	2.6884	0	
1.7073	-11.0826	21.9018	0	
1.7080	-14.7611	43.261	0	
1.7087	-23.0142	40.2273	0	
1.7093	-29.428	18.5475	0	
1.7100	-34.0025	5.13015	0	
1.7107	-30.607	3.60097	0	
1.7113	-23.6273	4.51355	0	
1.7120	-25.1364	8.78045	0	
1.7127	-27.5887	12.4554	0	
1.7133	-20.5618	10.0137	0	
1.7140	-9.85648	3.28034	0	
1.7147	1.41481	-6.16605	0	
1.7153	10.894	-12.8747	0	
1.7160	9.05476	-12.8747	0	
1.7167	0.801723	-14.1079	0	
1.7173	0.188641	-17.4622	0	
1.7180	5.37626	-21.7291	0	
1.7187	6.31946	-29.0544	0	
1.7193	5.70638	-18.3748	0	
1.7200	11.177	21.9018	0	
1.7207	18.8169	41.4358	0	
1.7213	19.43	13.0474	0	
1.7220	15.1384	-12.8747	0	
1.7227	13.9123	-14.7245	0	
1.7233	19.0999	-21.1125	0	
1.7240	23.3915	-24.1709	0	
1.7247	14.5253	-10.7536	0	
1.7253	-2.87677	-7.39926	0	
1.7260	-7.12119	-11.0496	0	
1.7267	4.76318	3.89694	0	
1.7273	12.6861	20.9892	0	
1.7280	9.33772	22.5184	0	
1.7287	6.31946	19.1641	0	
1.7293	6.31946	12.1348	0	
1.7300	2.92393	1.77582	0	
1.7307	-4.66886	-0.665933	0	
1.7313	-11.0826	3.60097	0	
1.7320	-9.29056	3.28034	0	
1.7327	-3.15973	-0.986567	0	
1.7333	1.41481	-4.63687	0	
1.7340	3.25405	-7.07862	0	
1.7347	2.92393	-7.69523	0	
1.7353	2.64097	-4.04493	0	
1.7360	4.1501	-0.0739926	0	
1.7367	3.53701	0.246642	0	
1.7373	2.02789	1.15922	0	
1.7380	1.41481	6.9553	0	
1.7387	-6.83823	6.3387	0	
1.7393	-19.0527	-1.89914	0	
1.7400	-13.535	-3.42832	0	
1.7407	5.37626	-2.51575	0	
1.7413	13.0162	-7.39926	0	
1.7420	6.31946	-9.52038	0	
1.7427	2.64097	-6.48668	0	
1.7433	8.11155	-2.81172	0	
1.7440	14.5253	0.542612	0	
1.7447	15.7515	-0.369963	0	
1.7453	20.0431	-2.81172	0	
1.7460	27.6359	1.15922	0	
1.7467	25.2307	-0.986567	0	
1.7473	7.82859	-15.6371	0	
1.7480	-11.6957	-22.3458	0	
1.7487	-19.6658	-15.3165	0	
1.7493	-10.7997	-15.6371	0	
1.7500	1.13184	-22.0498	0	
1.7507	-1.32049	-18.3748	0	
1.7513	-11.6957	-11.0496	0	
1.7520	-15.6572	-14.7245	0	
1.7527	-13.535	-26.9333	0	
1.7533	-5.89502	-27.5252	0	
1.7540	4.1501	-6.16605	0	
1.7547	2.92393	12.7514	0	
1.7553	-7.45131	14.2806	0	
1.7560	-10.1866	17.3389	0	
1.7567	-7.45131	20.9892	0	
1.7573	-9.29056	0.838582	0	
1.7580	-10.7997	-25.4041	0	
1.7587	-9.85648	-21.4332	0	
1.7593	-12.0258	4.51355	0	
1.7600	-14.1481	20.3726	0	
1.7607	-12.9219	16.4017	0	
1.7613	-9.29056	7.57191	0	
1.7620	-1.93357	4.51355	0	
1.7627	7.82859	6.04273	0	
1.7633	13.9123	17.3389	0	
1.7640	15.7515	33.198	0	
1.7647	14.2424	27.6979	0	
1.7653	9.9508	2.98437	0	
1.7660	5.70638	-11.9621	0	
1.7667	-0.0943204	-15.3165	0	
1.7673	-9.57352	-14.7245	0	
1.7680	-15.6572	-6.48668	0	
1.7687	-15.3742	-4.63687	0	
1.7693	-15.9873	-15.3165	0	
1.7700	-19.3357	-12.2828	0	
1.7707	-19.0527	9.69303	0	
1.7713	-15.6572	28.6105	0	
1.7720	-10.7997	29.2271	0	
1.7727	-1.65061	6.3387	0	
1.7733	9.05476	-19.2874	0	
1.7740	13.0162	-15.3165	0	
1.7747	9.33772	3.89694	0	
1.7753	3.53701	11.5428	0	
1.7760	-2.54665	13.0474	0	
1.7767	-7.73427	7.25127	0	
1.7773	-11.0826	-11.6662	0	
1.7780	-14.1481	-25.4041	0	
1.7787	-15.6572	-27.2293	0	
1.7793	-11.6957	-30.2876	0	
1.7800	-1.03752	-31.7921	0	
1.7807	12.4031	-29.671	0	
1.7813	18.8169	-33.0253	0	
1.7820	14.2424	-33.3213	0	
1.7827	6.60243	-25.9961	0	
1.7833	2.64097	-20.2	0	
1.7840	-0.0943204	-5.54944	0	
1.7847	-2.26369	23.135	0	
1.7853	-4.66886	32.5814	0	
1.7860	-6.50811	10.3096	0	
1.7867	-2.87677	-7.9912	0	
1.7873	-0.0943204	-12.5787	0	
1.7880	-4.99898	-19.2874	0	
1.7887	-4.3859	-9.52038	0	
1.7893	4.1501	27.1059	0	
1.7900	7.21551	52.1154	0	
1.7907	9.66784	44.1736	0	
1.7913	16.0816	28.6105	0	
1.7920	11.79	19.46	0	
1.7927	1.41481	13.0474	0	
1.7933	-0.0943204	15.8097	0	
1.7940	0.801723	22.8144	0	
1.7947	-1.93357	17.0183	0	
1.7953	-1.65061	1.45519	0	
1.7960	1.13184	-7.07862	0	
1.7967	1.13184	-7.07862	0	
1.7973	2.02789	-4.63687	0	
1.7980	4.76318	-4.3409	0	
1.7987	6.31946	-1.89914	0	
1.7993	6.60243	12.7514	0	
1.8000	8.11155	27.4019	0	
1.8007	7.82859	22.5184	0	
1.8013	6.60243	13.664	0	
1.8020	6.31946	18.2515	0	
1.8027	5.37626	16.1057	0	
1.8033	4.1501	-2.19511	0	
1.8040	4.1501	-15.6371	0	
1.8047	-1.32049	-18.3748	0	
1.8053	-17.2135	-22.6417	0	
1.8060	-28.4848	-35.7631	0	
1.8067	-23.0142	-55.2971	0	
1.8073	-12.0258	-68.7391	0	
1.8080	-8.96044	-69.9476	0	
1.8087	-9.29056	-55.9137	0	
1.8093	-5.61206	-14.7245	0	
1.8100	-0.424442	32.2854	0	
1.8107	1.69777	30.4603	0	
1.8113	2.64097	-3.10769	0	
1.8120	5.37626	10.0137	0	
1.8127	9.05476	66.1493	0	
1.8133	11.79	88.7417	0	
1.8140	9.9508	63.1157	0	
1.8147	9.9508	35.9357	0	
1.8153	15.4685	25.5768	0	
1.8160	16.3646	19.7807	0	
1.8167	11.177	21.2852	0	
1.8173	9.9508	30.1396	0	
1.8180	6.31946	18.8434	0	
1.8187	-3.48985	-16.229	0	
1.8193	-5.28194	-42.4964	0	
1.8200	-2.54665	-48.5884	0	
1.8207	-5.61206	-48.8844	0	
1.8213	0.188641	-40.6466	0	
1.8220	16.9777	-26.9333	0	
1.8227	20.9391	-27.2293	0	
1.8233	13.2992	-43.0883	0	
1.8240	14.5253	-58.0595	0	
1.8247	19.0999	-56.8263	0	
1.8253	14.8555	-34.2339	0	
1.8260	12.4031	9.10108	0	
1.8267	16.3646	72.8827	0	
1.8273	14.2424	123.518	0	
1.8280	1.41481	112.543	0	
1.8287	-12.0258	55.1738	0	
1.8293	-23.9102	14.2806	0	
1.8300	-38.577	3.28034	0	
1.8307	-43.1516	0.838582	0	
1.8313	-29.7109	4.80952	0	
1.8320	-11.0826	11.2222	0	
1.8327	-2.87677	8.48448	0	
1.8333	-4.10294	0.838582	0	
1.8340	-6.22514	-4.3409	0	
1.8347	-2.26369	-6.48668	0	
1.8353	2.64097	-6.16605	0	
1.8360	4.48022	-4.9575	0	
1.8367	6.31946	-4.63687	0	
1.8373	7.49847	-5.25347	0	
1.8380	3.53701	-7.39926	0	
1.8387	0.518762	-9.22441	0	
1.8393	0.188641	-10.137	0	
1.8400	-2.87677	-9.22441	0	
1.8407	-5.89502	-4.9575	0	
1.8413	-6.22514	-0.665933	0	
1.8420	-6.50811	-0.369963	0	
1.8427	-5.28194	-1.28254	0	
1.8433	-2.87677	-1.89914	0	
1.8440	-4.66886	-2.81172	0	
1.8447	-6.83823	-2.81172	0	
1.8453	-1.03752	-2.51575	0	
1.8460	7.49847	-4.9575	0	
1.8467	11.177	-8.31183	0	
1.8473	13.6293	-7.9912	0	
1.8480	16.3646	-5.87008	0	
1.8487	13.9123	-6.16605	0	
1.8493	11.79	-8.31183	0	
1.8500	14.5253	-7.39926	0	
1.8507	12.6861	-3.10769	0	
1.8513	2.92393	0.542612	0	
1.8520	-1.65061	-1.28254	0	
1.8527	3.53701	-6.48668	0	
1.8533	7.49847	-9.22441	0	
1.8540	5.98934	-8.31183	0	
1.8547	5.37626	-6.78265	0	
1.8553	8.44167	-7.07862	0	
1.8560	9.66784	-6.48668	0	
1.8567	5.0933	-3.42832	0	
1.8573	-1.65061	-0.369963	0	
1.8580	-4.10294	0.838582	0	
1.8587	-1.93357	0.542612	0	
1.8593	-0.424442	-0.986567	0	
1.8600	-1.93357	-2.19511	0	
1.8607	-1.32049	-0.986567	0	
1.8613	1.69777	-0.986567	0	
1.8620	0.518762	-6.48668	0	
1.8627	-7.45131	-10.137	0	
1.8633	-14.4782	-7.69523	0	
1.8640	-15.3742	-5.87008	0	
1.8647	-11.0826	-4.3409	0	
1.8653	-5.89502	-0.986567	0	
1.8660	-5.61206	-0.369963	0	
1.8667	-8.67747	-1.60317	0	
1.8673	-12.9219	-0.0739926	0	
1.8680	-19.3357	-0.0739926	0	
1.8687	-22.071	-1.60317	0	
1.8693	-12.6389	0.838582	0	
1.8700	-1.65061	2.6884	0	
1.8707	-1.32049	1.77582	0	
1.8713	-3.77281	2.07179	0	
1.8720	1.13184	2.6884	0	
1.8727	10.5639	2.6884	0	
1.8733	15.7515	5.72209	0	
1.8740	14.5253	10.3096	0	
1.8747	11.177	12.7514	0	
1.8753	5.37626	7.86788	0	
1.8760	-4.10294	-4.3409	0	
1.8767	-10.1866	-13.1953	0	
1.8773	-9.29056	-14.1079	0	
1.8780	-9.29056	-14.4039	0	
1.8787	-12.3088	-14.1079	0	
1.8793	-11.0826	-13.7873	0	
1.8800	-7.12119	-17.1663	0	
1.8807	-7.45131	-19.2874	0	
1.8813	-11.4128	-16.5497	0	
1.8820	-12.6389	-18.3748	0	
1.8827	-11.0826	-20.2	0	
1.8833	-9.57352	-12.8747	0	
1.8840	-0.0943204	-6.48668	0	
1.8847	21.5522	1.45519	0	
1.8853	41.0765	23.7269	0	
1.8860	39.8504	38.3775	0	
1.8867	20.0431	25.5768	0	
1.8873	2.02789	9.10108	0	
1.8880	-1.65061	7.25127	0	
1.8887	-6.83823	6.3387	0	
1.8893	-27.8717	-0.665933	0	
1.8900	-45.8869	-4.3409	0	
1.8907	-40.4163	-3.10769	0	
1.8913	-20.8448	-7.39926	0	
1.8920	-4.66886	-17.1663	0	
1.8927	-0.0943204	-18.3748	0	
1.8933	-4.3859	-9.22441	0	
1.8940	-4.3859	-3.42832	0	
1.8947	2.31085	-0.0739926	0	
1.8953	0.188641	4.21758	0	
1.8960	-8.06439	8.16385	0	
1.8967	-9.29056	12.7514	0	
1.8973	-6.83823	16.7223	0	
1.8980	-4.66886	9.69303	0	
1.8987	1.13184	-1.60317	0	
1.8993	5.37626	-3.72429	0	
1.9000	5.37626	-3.72429	0	
1.9007	3.25405	-5.54944	0	
1.9013	-0.424442	-3.10769	0	
1.9020	-2.54665	-0.986567	0	
1.9027	-0.0943204	-0.369963	0	
1.9033	-0.0943204	7.25127	0	
1.9040	-3.77281	19.1641	0	
1.9047	-2.87677	21.9018	0	
1.9053	0.188641	15.4891	0	
1.9060	2.02789	6.3387	0	
1.9067	4.48022	-3.42832	0	
1.9073	4.48022	-10.433	0	
1.9080	4.48022	-13.4913	0	
1.9087	12.6861	-11.6662	0	
1.9093	20.9391	-9.52038	0	
1.9100	21.5522	-11.0496	0	
1.9107	22.4482	-9.22441	0	
1.9113	24.2875	-4.63687	0	
1.9120	20.0431	-5.87008	0	
1.9127	9.9508	-4.9575	0	
1.9133	-8.67747	8.16385	0	
1.9140	-26.9756	19.1641	0	
1.9147	-25.7495	17.3389	0	
1.9153	-12.0258	12.7514	0	
1.9160	2.64097	6.65933	0	
1.9167	20.9391	-0.0739926	0	
1.9173	30.0882	-0.0739926	0	
1.9180	20.0431	4.21758	0	
1.9187	11.79	5.13015	0	
1.9193	13.9123	5.72209	0	
1.9200	9.33772	6.3387	0	
1.9207	0.518762	4.51355	0	
1.9213	-4.66886	1.77582	0	
1.9220	-8.67747	-5.87008	0	
1.9227	-9.57352	-15.6371	0	
1.9233	-8.34735	-19.2874	0	
1.9240	-9.29056	-22.9624	0	
1.9247	-7.45131	-29.967	0	
1.9253	-4.66886	-26.9333	0	
1.9260	-4.3859	-19.2874	0	
1.9267	0.188641	-20.5206	0	
1.9273	7.21551	-9.22441	0	
1.9280	10.894	17.3389	0	
1.9287	10.2809	16.1057	0	
1.9293	-0.707403	-9.22441	0	
1.9300	-21.1749	-9.22441	0	
1.9307	-30.9371	8.78045	0	
1.9313	-22.684	12.7514	0	
1.9320	-10.4696	13.368	0	
1.9327	-4.99898	25.2561	0	
1.9333	-3.77281	34.1106	0	
1.9340	-0.0943204	27.4019	0	
1.9347	2.64097	12.1348	0	
1.9353	-0.707403	3.89694	0	
1.9360	-0.0943204	3.60097	0	
1.9367	9.9508	-3.72429	0	
1.9373	17.2606	-8.90377	0	
1.9380	16.9777	1.45519	0	
1.9387	13.6293	8.78045	0	
1.9393	11.79	2.98437	0	
1.9400	12.073	1.15922	0	
1.9407	7.49847	2.6884	0	
1.9413	-2.54665	-1.89914	0	
1.9420	-7.12119	-3.72429	0	
1.9427	-7.12119	-3.42832	0	
1.9433	-12.0258	-5.25347	0	
1.9440	-10.4696	1.77582	0	
1.9447	-0.0943204	18.5475	0	
1.9453	-2.54665	20.3726	0	
1.9460	-15.0441	2.6884	0	
1.9467	-15.0441	-6.78265	0	
1.9473	-4.66886	2.6884	0	
1.9480	1.13184	10.9262	0	
1.9487	3.53701	6.04273	0	
1.9493	4.48022	0.838582	0	
1.9500	0.188641	0.542612	0	
1.9507	-4.3859	-2.81172	0	
1.9513	-3.77281	-4.63687	0	
1.9520	-0.707403	-2.51575	0	
1.9527	3.53701	-3.72429	0	
1.9533	8.72463	-8.31183	0	
1.9540	10.894	-6.48668	0	
1.9547	11.5071	-1.89914	0	
1.9553	9.33772	1.15922	0	
1.9560	2.64097	1.77582	0	
1.9567	-3.77281	-1.60317	0	
1.9573	-2.87677	-3.72429	0	
1.9580	0.801723	1.15922	0	
1.9587	1.41481	4.51355	0	
1.9593	-1.65061	-2.81172	0	
1.9600	-9.29056	-10.433	0	
1.9607	-12.6389	-9.22441	0	
1.9613	-4.99898	-1.89914	0	
1.9620	0.801723	5.72209	0	
1.9627	-0.707403	8.16385	0	
1.9633	0.801723	2.98437	0	
1.9640	4.48022	-2.81172	0	
1.9647	1.69777	-1.28254	0	
1.9653	-4.3859	0.246642	0	
1.9660	-6.50811	-5.87008	0	
1.9667	-1.93357	-14.4039	0	
1.9673	3.25405	-18.3748	0	
1.9680	0.801723	-21.1125	0	
1.9687	-2.87677	-24.7875	0	
1.9693	-0.0943204	-27.5252	0	
1.9700	1.41481	-28.4378	0	
1.9707	0.188641	-24.7875	0	
1.9713	0.518762	-19.608	0	
1.9720	-6.83823	-25.4041	0	
1.9727	-14.7611	-39.734	0	
1.9733	-5.89502	-40.6466	0	
1.9740	3.53701	-31.2002	0	
1.9747	1.69777	-38.2048	0	
1.9753	5.37626	-42.7924	0	
1.9760	16.6947	0.246642	0	
1.9767	15.4685	64.3242	0	
1.9773	1.13184	83.2416	0	
1.9780	-12.0258	59.4407	0	
1.9787	-18.4396	32.902	0	
1.9793	-14.7611	11.2222	0	
1.9800	-6.83823	-0.986567	0	
1.9807	-2.87677	1.15922	0	
1.9813	-2.26369	2.98437	0	
1.9820	1.69777	3.60097	0	
1.9827	6.88539	16.4017	0	
1.9833	4.48022	26.4893	0	
1.9840	-2.26369	20.0766	0	
1.9847	-3.48985	14.2806	0	
1.9853	-1.03752	14.5765	0	
1.9860	-2.54665	8.48448	0	
1.9867	-3.48985	-4.63687	0	
1.9873	0.801723	-18.3748	0	
1.9880	4.48022	-29.671	0	
1.9887	4.76318	-34.8505	0	
1.9893	-0.0943204	-41.2632	0	
1.9900	-8.06439	-50.4136	0	
1.9907	-11.0826	-46.7633	0	
1.9913	-8.96044	-25.0835	0	
1.9920	-7.12119	4.51355	0	
1.9927	-7.12119	36.2564	0	
1.9933	-5.89502	58.2321	0	
1.9940	-1.32049	57.9115	0	
1.9947	4.48022	36.5523	0	
1.9953	8.72463	10.6056	0	
1.9960	9.05476	6.3387	0	
1.9967	6.60243	28.3145	0	
1.9973	4.1501	36.5523	0	
1.9980	2.92393	9.69303	0	
1.9987	5.37626	-9.84101	0	
1.9993	7.49847	3.89694	0	
2.0000	3.53701	18.2515	0	
2.0007	0.188641	4.51355	0	
2.0013	4.76318	-16.8456	0	
2.0020	7.49847	-11.3455	0	
2.0027	3.53701	25.5768	0	
2.0033	4.1501	62.795	0	
2.0040	7.49847	67.3826	0	
2.0047	2.92393	41.1399	0	
2.0053	-0.0943204	6.9553	0	
2.0060	2.31085	-15.0205	0	
2.0067	-4.10294	-15.3165	0	
2.0073	-12.0258	-0.665933	0	
2.0080	-4.10294	10.3096	0	
2.0087	5.70638	7.86788	0	
2.0093	4.76318	2.07179	0	
2.0100	6.60243	2.07179	0	
2.0107	13.9123	0.542612	0	
2.0113	11.79	-8.31183	0	
2.0120	4.48022	-13.4913	0	
2.0127	7.49847	-9.52038	0	
2.0133	17.8737	-7.9912	0	
2.0140	20.326	-11.6662	0	
2.0147	13.2992	-12.8747	0	
2.0153	3.86714	-10.433	0	
2.0160	-3.77281	-6.48668	0	
2.0167	-8.34735	-3.42832	0	
2.0173	-6.22514	-6.48668	0	
2.0180	-3.15973	-11.9621	0	
2.0187	-2.26369	-7.39926	0	
2.0193	1.13184	-1.89914	0	
2.0200	3.53701	-4.63687	0	
2.0207	-0.0943204	-4.3409	0	
2.0213	-4.99898	2.36776	0	
2.0220	-5.61206	0.838582	0	
2.0227	-3.15973	-5.25347	0	
2.0233	0.801723	-7.9912	0	
2.0240	-0.0943204	-12.8747	0	
2.0247	-5.61206	-18.3748	0	
2.0253	-2.87677	-16.5497	0	
2.0260	2.64097	-14.4039	0	
2.0267	0.801723	-15.6371	0	
2.0273	-1.03752	-13.1953	0	
2.0280	-1.03752	-10.433	0	
2.0287	-5.28194	-10.433	0	
2.0293	-5.61206	-10.137	0	
2.0300	-2.87677	-8.31183	0	
2.0307	-5.89502	-7.39926	0	
2.0313	-4.10294	-6.16605	0	
2.0320	3.53701	-3.72429	0	
2.0327	6.31946	-3.72429	0	
2.0333	8.72463	-7.39926	0	
2.0340	11.5071	-11.9621	0	
2.0347	3.53701	-13.4913	0	
2.0353	-5.89502	-9.84101	0	
2.0360	-5.89502	-4.3409	0	
2.0367	-5.89502	-1.60317	0	
2.0373	-6.50811	-3.72429	0	
2.0380	-3.48985	-3.10769	0	
2.0387	-5.61206	2.6884	0	
2.0393	-12.0258	5.42612	0	
2.0400	-10.7997	2.6884	0	
2.0407	-5.61206	-0.986567	0	
2.0413	-6.50811	-4.63687	0	
2.0420	-9.29056	-4.04493	0	
2.0427	-10.1866	0.542612	0	
2.0433	-9.29056	1.77582	0	
2.0440	-6.50811	-0.665933	0	
2.0447	-2.87677	-0.665933	0	
2.0453	1.41481	1.15922	0	
2.0460	3.53701	2.07179	0	
2.0467	1.69777	2.98437	0	
2.0473	-1.03752	3.60097	0	
2.0480	-0.0943204	4.51355	0	
2.0487	-3.48985	5.42612	0	
2.0493	-14.1481	4.80952	0	
2.0500	-19.0527	4.80952	0	
2.0507	-9.29056	6.04273	0	
2.0513	5.37626	5.42612	0	
2.0520	19.713	0.838582	0	
2.0527	31.0314	-4.3409	0	
2.0533	30.7013	-8.90377	0	
2.0540	15.4685	-12.8747	0	
2.0547	-2.87677	-15.6371	0	
2.0553	-14.4782	-17.4622	0	
2.0560	-15.6572	-20.8166	0	
2.0567	-12.0258	-20.2	0	
2.0573	-11.0826	-10.137	0	
2.0580	-9.85648	-3.72429	0	
2.0587	-6.50811	-9.84101	0	
2.0593	-6.83823	-11.6662	0	
2.0600	-8.67747	-2.81172	0	
2.0607	-6.50811	-3.10769	0	
2.0613	-5.89502	-7.39926	0	
2.0620	-7.12119	3.60097	0	
2.0627	-1.93357	14.8972	0	
2.0633	5.37626	6.9553	0	
2.0640	7.82859	-9.22441	0	
2.0647	7.82859	-21.4332	0	
2.0653	7.21551	-26.6127	0	
2.0660	8.44167	-25.7001	0	
2.0667	14.2424	-23.5543	0	
2.0673	16.0816	-8.31183	0	
2.0680	10.894	27.6979	0	
2.0687	4.76318	53.028	0	
2.0693	-3.48985	41.1399	0	
2.0700	-11.6957	14.8972	0	
2.0707	-10.4696	0.838582	0	
2.0713	-8.06439	7.86788	0	
2.0720	-13.535	33.198	0	
2.0727	-14.4782	55.4698	0	
2.0733	-4.10294	51.2029	0	
2.0740	5.70638	21.9018	0	
2.0747	9.05476	-9.22441	0	
2.0753	6.88539	-15.0205	0	
2.0760	2.92393	4.80952	0	
2.0767	0.801723	15.1931	0	
2.0773	-3.15973	1.77582	0	
2.0780	-8.34735	0.542612	0	
2.0787	-6.50811	31.3728	0	
2.0793	-0.707403	57.2949	0	
2.0800	2.31085	39.29	0	
2.0807	2.64097	-6.48668	0	
2.0813	-1.03752	-30.2876	0	
2.0820	-11.4128	-18.3748	0	
2.0827	-19.3357	-7.07862	0	
2.0833	-17.4964	-16.229	0	
2.0840	-11.0826	-21.1125	0	
2.0847	-5.89502	-8.31183	0	
2.0853	-3.15973	-1.28254	0	
2.0860	-4.3859	-9.84101	0	
2.0867	-7.45131	-20.2	0	
2.0873	-8.67747	-23.8749	0	
2.0880	-7.73427	-17.1663	0	
2.0887	-7.12119	5.72209	0	
2.0893	-7.73427	28.3145	0	
2.0900	-10.1866	23.7269	0	
2.0907	-13.535	5.42612	0	
2.0913	-12.9219	4.21758	0	
2.0920	-4.66886	19.46	0	
2.0927	5.0933	27.1059	0	
2.0933	9.05476	17.9309	0	
2.0940	11.79	6.3387	0	
2.0947	21.5522	1.77582	0	
2.0953	32.2576	-2.81172	0	
2.0960	36.502	-6.16605	0	
2.0967	31.6445	-2.19511	0	
2.0973	16.3646	1.15922	0	
2.0980	-1.03752	-4.9575	0	
2.0987	-5.61206	-10.7536	0	
2.0993	2.64097	-9.22441	0	
2.1000	9.9508	-4.04493	0	
2.1007	7.49847	2.6884	0	
2.1013	-1.03752	9.69303	0	
2.1020	-5.61206	10.9262	0	
2.1027	-6.50811	8.16385	0	
2.1033	-12.3088	3.28034	0	
2.1040	-15.0441	-3.72429	0	
2.1047	-10.4696	-5.87008	0	
2.1053	-8.96044	-1.89914	0	
2.1060	-9.29056	-0.0739926	0	
2.1067	-2.87677	-3.42832	0	
2.1073	2.64097	-7.9912	0	
2.1080	4.48022	-10.137	0	
2.1087	7.82859	-9.52038	0	
2.1093	10.894	-7.39926	0	
2.1100	9.9508	-5.54944	0	
2.1107	6.31946	-3.72429	0	
2.1113	4.48022	-0.986567	0	
2.1120	0.801723	-0.986567	0	
2.1127	-12.3088	-4.3409	0	
2.1133	-23.2971	-8.31183	0	
2.1140	-15.9873	-8.90377	0	
2.1147	-3.15973	-8.31183	0	
2.1153	-1.32049	-9.52038	0	
2.1160	-2.87677	-9.22441	0	
2.1167	-2.26369	-5.54944	0	
2.1173	-1.93357	-4.04493	0	
2.1180	2.92393	-4.63687	0	
2.1187	7.21551	-3.72429	0	
2.1193	3.53701	-4.63687	0	
2.1200	2.92393	-11.0496	0	
2.1207	9.66784	-13.1953	0	
2.1213	9.9508	-7.69523	0	
2.1220	5.0933	-4.63687	0	
2.1227	3.25405	-3.72429	0	
2.1233	1.13184	1.15922	0	
2.1240	-0.0943204	6.04273	0	
2.1247	2.92393	5.42612	0	
2.1253	2.64097	4.21758	0	
2.1260	-3.48985	2.07179	0	
2.1267	-5.61206	-1.28254	0	
2.1273	-1.32049	-1.89914	0	
2.1280	-1.03752	-2.19511	0	
2.1287	-5.28194	-5.87008	0	
2.1293	-5.61206	-8.31183	0	
2.1300	-2.26369	-6.48668	0	
2.1307	-1.32049	-7.69523	0	
2.1313	-3.77281	-10.137	0	
2.1320	-7.73427	-2.51575	0	
2.1327	-11.0826	10.0137	0	
2.1333	-7.45131	9.10108	0	
2.1340	-0.424442	-0.665933	0	
2.1347	-0.424442	-3.72429	0	
2.1353	-1.32049	-0.369963	0	
2.1360	-5.61206	0.542612	0	
2.1367	-26.6455	-0.986567	0	
2.1373	-49.5654	-0.665933	0	
2.1380	-51.4046	0.246642	0	
2.1387	-41.3123	0.838582	0	
2.1393	-31.8331	0.246642	0	
2.1400	-16.2703	-1.89914	0	
2.1407	-0.424442	-4.63687	0	
2.1413	5.98934	-6.48668	0	
2.1420	6.88539	-3.72429	0	
2.1427	6.31946	1.15922	0	
2.1433	3.86714	-0.0739926	0	
2.1440	-0.0943204	-6.48668	0	
2.1447	-11.4128	-9.52038	0	
2.1453	-26.3625	-7.39926	0	
2.1460	-29.7109	-3.72429	0	
2.1467	-20.5618	2.98437	0	
2.1473	-12.0258	8.16385	0	
2.1480	-4.3859	5.13015	0	
2.1487	8.11155	2.98437	0	
2.1493	19.0999	10.0137	0	
2.1500	23.0613	10.6056	0	
2.1507	27.6359	-6.48668	0	
2.1513	29.1922	-18.6708	0	
2.1520	21.2692	-5.87008	0	
2.1527	13.6293	10.9262	0	
2.1533	7.21551	6.04273	0	
2.1540	-5.61206	-5.25347	0	
2.1547	-17.4964	-5.87008	0	
2.1553	-16.6004	-8.6078	0	
2.1560	-8.96044	-15.6371	0	
2.1567	-3.48985	-12.8747	0	
2.1573	-0.0943204	-6.78265	0	
2.1580	1.13184	-7.39926	0	
2.1587	1.13184	-2.51575	0	
2.1593	-0.0943204	10.3096	0	
2.1600	-1.93357	14.2806	0	
2.1607	0.518762	6.9553	0	
2.1613	2.64097	0.838582	0	
2.1620	1.13184	-0.0739926	0	
2.1627	-0.0943204	2.07179	0	
2.1633	2.64097	2.6884	0	
2.1640	3.25405	1.15922	0	
2.1647	0.801723	2.36776	0	
2.1653	0.801723	4.21758	0	
2.1660	9.05476	2.6884	0	
2.1667	18.4868	3.60097	0	
2.1673	18.2038	6.3387	0	
2.1680	14.2424	6.9553	0	
2.1687	20.326	14.8972	0	
2.1693	30.0882	24.6642	0	
2.1700	33.1536	12.4554	0	
2.1707	32.2576	-10.433	0	
2.1713	28.249	-13.7873	0	
2.1720	17.2606	-4.9575	0	
2.1727	12.4031	-3.10769	0	
2.1733	20.0431	-3.72429	0	
2.1740	21.8823	-4.63687	0	
2.1747	7.21551	-8.6078	0	
2.1753	-9.85648	-9.52038	0	
2.1760	-15.3742	-9.84101	0	
2.1767	-11.0826	-7.9912	0	
2.1773	-4.66886	4.80952	0	
2.1780	-1.03752	16.1057	0	
2.1787	0.188641	9.39705	0	
2.1793	4.76318	-1.60317	0	
2.1800	14.8555	-2.51575	0	
2.1807	21.8823	-0.0739926	0	
2.1813	20.9391	-0.369963	0	
2.1820	18.2038	4.51355	0	
2.1827	16.3646	15.1931	0	
2.1833	7.21551	18.5475	0	
2.1840	-7.45131	10.9262	0	
2.1847	-14.7611	2.07179	0	
2.1853	-9.29056	-11.0496	0	
2.1860	-1.93357	-31.4962	0	
2.1867	-1.93357	-41.2632	0	
2.1873	-4.99898	-35.7631	0	
2.1880	-5.89502	-35.4671	0	
2.1887	-2.54665	-39.438	0	
2.1893	2.64097	-40.9672	0	
2.1900	6.31946	-37.6129	0	
2.1907	9.05476	-7.39926	0	
2.1913	13.2992	49.3777	0	
2.1920	17.2606	83.2416	0	
2.1927	20.0431	66.47	0	
2.1933	20.0431	26.4893	0	
2.1940	17.2606	-7.07862	0	
2.1947	7.82859	-21.1125	0	
2.1953	-4.66886	-14.7245	0	
2.1960	-9.29056	1.77582	0	
2.1967	0.188641	23.7269	0	
2.1973	9.9508	34.4312	0	
2.1980	11.5071	14.8972	0	
2.1987	12.073	-8.6078	0	
2.1993	13.2992	-11.9621	0	
2.2000	6.88539	-14.7245	0	
2.2007	-1.32049	-17.7582	0	
2.2013	-2.87677	-3.72429	0	
2.2020	-5.89502	7.57191	0	
2.2027	-14.7611	4.80952	0	
2.2033	-21.1749	6.3387	0	
2.2040	-20.8448	5.42612	0	
2.2047	-16.6004	2.98437	0	
2.2053	-9.29056	22.2224	0	
2.2060	-5.89502	39.9067	0	
2.2067	-7.45131	19.7807	0	
2.2073	-7.45131	-10.137	0	
2.2080	-7.45131	-17.1663	0	
2.2087	-12.0258	-15.0205	0	
2.2093	-12.0258	-14.4039	0	
2.2100	-5.28194	-12.8747	0	
2.2107	-3.48985	-15.6371	0	
2.2113	-6.83823	-15.3165	0	
2.2120	-6.22514	-0.986567	0	
2.2127	-1.32049	10.9262	0	
2.2133	1.69777	10.9262	0	
2.2140	2.64097	13.9599	0	
2.2147	3.86714	15.8097	0	
2.2153	4.48022	7.86788	0	
2.2160	4.1501	6.3387	0	
2.2167	3.53701	14.8972	0	
2.2173	2.31085	16.4017	0	
2.2180	-0.0943204	13.368	0	
2.2187	-2.87677	12.4554	0	
2.2193	-4.66886	2.36776	0	
2.2200	-3.77281	-8.31183	0	
2.2207	1.69777	-5.25347	0	
2.2213	8.11155	-1.28254	0	
2.2220	11.177	-2.51575	0	
2.2227	10.2809	0.838582	0	
2.2233	9.33772	0.838582	0	
2.2240	10.894	-6.78265	0	
2.2247	9.9508	-11.9621	0	
2.2253	1.41481	-15.9331	0	
2.2260	-11.0826	-25.4041	0	
2.2267	-17.2135	-33.9379	0	
2.2273	-13.535	-33.0253	0	
2.2280	-8.34735	-22.0498	0	
2.2287	-8.96044	-18.3748	0	
2.2293	-10.1866	-34.5545	0	
2.2300	-7.12119	-42.1758	0	
2.2307	-3.15973	-27.5252	0	
2.2313	1.69777	-18.6708	0	
2.2320	7.21551	-8.31183	0	
2.2327	7.21551	28.3145	0	
2.2333	3.86714	53.028	0	
2.2340	1.69777	42.669	0	
2.2347	-5.61206	35.9357	0	
2.2353	-16.6004	37.4649	0	
2.2360	-17.4964	20.6933	0	
2.2367	-9.29056	4.21758	0	
2.2373	-5.89502	7.57191	0	
2.2380	-9.57352	13.368	0	
2.2387	-11.4128	14.8972	0	
2.2393	-7.45131	19.7807	0	
2.2400	-2.87677	20.9892	0	
2.2407	-4.66886	15.1931	0	
2.2413	-6.50811	10.3096	0	
2.2420	-2.87677	8.78045	0	
2.2427	-1.65061	8.48448	0	
2.2433	-4.66886	9.39705	0	
2.2440	-5.61206	10.9262	0	
2.2447	-3.77281	10.0137	0	
2.2453	-3.48985	7.86788	0	
2.2460	-0.0943204	7.25127	0	
2.2467	5.70638	6.9553	0	
2.2473	7.21551	3.60097	0	
2.2480	4.1501	-0.0739926	0	
2.2487	1.13184	-0.0739926	0	
2.2493	-0.707403	2.98437	0	
2.2500	-2.87677	4.80952	0	
2.2507	-4.3859	3.60097	0	
2.2513	-1.93357	1.45519	0	
2.2520	0.188641	0.246642	0	
2.2527	-2.87677	-1.89914	0	
2.2533	-3.48985	-5.25347	0	
2.2540	0.188641	-10.137	0	
2.2547	-3.15973	-14.1079	0	
2.2553	-14.1481	-11.9621	0	
2.2560	-18.4396	-8.6078	0	
2.2567	-12.3088	-9.84101	0	
2.2573	-4.66886	-9.52038	0	
2.2580	-0.0943204	-4.04493	0	
2.2587	0.518762	-0.0739926	0	
2.2593	-3.15973	1.45519	0	
2.2600	-2.87677	0.838582	0	
2.2607	0.518762	-3.42832	0	
2.2613	-1.93357	-6.78265	0	
2.2620	-6.22514	-6.48668	0	
2.2627	-4.3859	-6.16605	0	
2.2633	-3.48985	-6.48668	0	
2.2640	-5.61206	-4.9575	0	
2.2647	-3.77281	-3.72429	0	
2.2653	-1.03752	-2.81172	0	
2.2660	-1.65061	-1.60317	0	
2.2667	0.518762	-1.89914	0	
2.2673	2.92393	-0.986567	0	
2.2680	2.64097	1.77582	0	
2.2687	2.92393	0.542612	0	
2.2693	2.92393	-2.51575	0	
2.2700	1.69777	-3.10769	0	
2.2707	5.37626	-2.81172	0	
2.2713	7.49847	-3.42832	0	
2.2720	-0.0943204	-4.63687	0	
2.2727	-3.77281	-5.25347	0	
2.2733	0.801723	-4.63687	0	
2.2740	0.801723	-4.63687	0	
2.2747	0.188641	-4.3409	0	
2.2753	5.37626	-6.48668	0	
2.2760	7.21551	-11.0496	0	
2.2767	3.53701	-12.5787	0	
2.2773	3.53701	-11.9621	0	
2.2780	5.0933	-11.0496	0	
2.2787	2.31085	-10.137	0	
2.2793	-2.54665	-15.6371	0	
2.2800	-4.66886	-23.2583	0	
2.2807	0.518762	-15.9331	0	
2.2813	6.60243	-10.7536	0	
2.2820	3.53701	-24.7875	0	
2.2827	-5.28194	-25.9961	0	
2.2833	-10.7997	1.45519	0	
2.2840	-11.0826	38.3775	0	
2.2847	-6.22514	68.5911	0	
2.2853	-1.65061	67.6785	0	
2.2860	-7.73427	20.6933	0	
2.2867	-18.7226	-24.7875	0	
2.2873	-19.3357	-29.0544	0	
2.2880	-8.96044	-22.0498	0	
2.2887	1.41481	-29.375	0	
2.2893	3.53701	-30.5836	0	
2.2900	-1.32049	-14.4039	0	
2.2907	-4.3859	-1.89914	0	
2.2913	-0.707403	-1.28254	0	
2.2920	3.53701	-2.51575	0	
2.2927	2.64097	-3.10769	0	
2.2933	-0.0943204	8.16385	0	
2.2940	3.86714	42.965	0	
2.2947	13.0162	59.4407	0	
2.2953	16.3646	22.8144	0	
2.2960	15.4685	-14.7245	0	
2.2967	16.0816	-13.7873	0	
2.2973	18.2038	-2.81172	0	
2.2980	20.6562	8.78045	0	
2.2987	19.0999	19.1641	0	
2.2993	9.9508	3.89694	0	
2.3000	1.69777	-11.9621	0	
2.3007	0.801723	6.9553	0	
2.3013	2.02789	24.3436	0	
2.3020	0.801723	13.664	0	
2.3027	0.188641	5.72209	0	
2.3033	-3.77281	6.65933	0	
2.3040	-16.6004	-2.51575	0	
2.3047	-26.0324	-11.0496	0	
2.3053	-23.0142	-11.0496	0	
2.3060	-15.0441	-17.4622	0	
2.3067	-9.29056	-30.2876	0	
2.3073	-5.61206	-31.4962	0	
2.3080	-4.99898	-26.3167	0	
2.3087	-6.22514	-27.2293	0	
2.3093	-6.50811	-20.2	0	
2.3100	-7.45131	4.51355	0	
2.3107	-6.83823	21.9018	0	
2.3113	-2.54665	22.2224	0	
2.3120	1.13184	25.2561	0	
2.3127	2.92393	28.9311	0	
2.3133	6.31946	19.1641	0	
2.3140	7.82859	6.3387	0	
2.3147	6.88539	3.60097	0	
2.3153	5.0933	4.51355	0	
2.3160	3.25405	2.6884	0	
2.3167	1.69777	0.246642	0	
2.3173	0.801723	0.542612	0	
2.3180	0.518762	3.28034	0	
2.3187	0.801723	3.60097	0	
2.3193	0.518762	0.246642	0	
2.3200	0.518762	-1.28254	0	
2.3207	4.48022	-0.665933	0	
2.3213	9.9508	-0.0739926	0	
2.3220	9.33772	-0.986567	0	
2.3227	7.21551	-3.72429	0	
2.3233	6.88539	-5.54944	0	
2.3240	5.0933	-6.48668	0	
2.3247	1.13184	-8.31183	0	
2.3253	-3.15973	-12.8747	0	
2.3260	-8.96044	-17.4622	0	
2.3267	-10.7997	-20.2	0	
2.3273	-0.0943204	-15.9331	0	
2.3280	17.5907	-11.0496	0	
2.3287	29.8052	-15.6371	0	
2.3293	26.7398	-21.7291	0	
2.3300	11.79	-19.608	0	
2.3307	-1.93357	-14.1079	0	
2.3313	-5.89502	-2.81172	0	
2.3320	-7.45131	17.9309	0	
2.3327	-12.9219	26.7853	0	
2.3333	-17.4964	11.5428	0	
2.3340	-17.8266	-11.0496	0	
2.3347	-15.9873	-22.9624	0	
2.3353	-8.67747	-14.1079	0	
2.3360	2.64097	10.9262	0	
2.3367	6.60243	28.3145	0	
2.3373	2.64097	23.135	0	
2.3380	1.69777	17.3389	0	
2.3387	1.69777	26.4893	0	
2.3393	-1.93357	38.9941	0	
2.3400	-3.77281	36.5523	0	
2.3407	0.801723	16.4017	0	
2.3413	5.37626	-3.10769	0	
2.3420	9.05476	-3.42832	0	
2.3427	13.0162	5.13015	0	
2.3433	13.6293	4.51355	0	
2.3440	13.0162	1.77582	0	
2.3447	18.2038	2.6884	0	
2.3453	24.2875	2.36776	0	
2.3460	19.0999	2.98437	0	
2.3467	-0.707403	5.42612	0	
2.3473	-22.4011	4.21758	0	
2.3480	-28.2018	0.838582	0	
2.3487	-19.3357	0.838582	0	
2.3493	-15.0441	1.15922	0	
2.3500	-12.9219	-1.89914	0	
2.3507	0.801723	-3.72429	0	
2.3513	14.5253	-1.89914	0	
2.3520	15.1384	-3.72429	0	
2.3527	11.79	-9.84101	0	
2.3533	12.6861	-10.137	0	
2.3540	9.9508	-4.04493	0	
2.3547	2.64097	-0.665933	0	
2.3553	-4.3859	-0.665933	0	
2.3560	-9.29056	-2.51575	0	
2.3567	-14.1481	-6.78265	0	
2.3573	-18.7226	-10.137	0	
2.3580	-18.4396	-8.90377	0	
2.3587	-12.0258	-8.31183	0	
2.3593	-7.12119	-10.137	0	
2.3600	-7.73427	-10.7536	0	
2.3607	-7.45131	-10.7536	0	
2.3613	-0.707403	-11.9621	0	
2.3620	10.894	-12.8747	0	
2.3627	19.713	-9.84101	0	
2.3633	17.2606	-7.39926	0	
2.3640	7.82859	-11.6662	0	
2.3647	2.02789	-10.137	0	
2.3653	2.64097	8.16385	0	
2.3660	1.69777	20.9892	0	
2.3667	-5.61206	13.664	0	
2.3673	-11.0826	5.42612	0	
2.3680	-4.99898	4.80952	0	
2.3687	6.31946	1.77582	0	
2.3693	6.88539	1.77582	0	
2.3700	-0.424442	2.98437	0	
2.3707	-1.65061	-6.16605	0	
2.3713	1.41481	-14.7245	0	
2.3720	-0.0943204	-10.137	0	
2.3727	-1.32049	-6.48668	0	
2.3733	3.86714	-5.54944	0	
2.3740	10.894	1.77582	0	
2.3747	12.4031	5.42612	0	
2.3753	5.37626	-1.60317	0	
2.3760	-1.65061	-6.48668	0	
2.3767	-1.93357	-7.39926	0	
2.3773	-0.0943204	-9.52038	0	
2.3780	-2.87677	-9.84101	0	
2.3787	-3.77281	-9.84101	0	
2.3793	0.801723	-14.4039	0	
2.3800	6.31946	-12.8747	0	
2.3807	8.44167	-2.81172	0	
2.3813	8.44167	4.51355	0	
2.3820	9.9508	13.664	0	
2.3827	9.66784	32.902	0	
2.3833	4.76318	42.0524	0	
2.3840	-0.0943204	25.5768	0	
2.3847	-8.34735	3.60097	0	
2.3853	-22.071	-4.63687	0	
2.3860	-31.22	-3.72429	0	
2.3867	-27.8717	0.838582	0	
2.3873	-18.4396	6.3387	0	
2.3880	-10.4696	10.3096	0	
2.3887	-5.89502	9.10108	0	
2.3893	-4.10294	3.89694	0	
2.3900	-2.87677	2.07179	0	
2.3907	-3.77281	2.98437	0	
2.3913	-3.48985	-1.89914	0	
2.3920	0.518762	-11.3455	0	
2.3927	5.37626	-17.7582	0	
2.3933	6.31946	-24.1709	0	
2.3940	2.64097	-34.2339	0	
2.3947	-0.707403	-40.0546	0	
2.3953	1.69777	-36.6756	0	
2.3960	1.41481	-24.7875	0	
2.3967	-6.22514	-5.25347	0	
2.3973	-8.96044	17.3389	0	
2.3980	-3.77281	33.8146	0	
2.3987	-1.93357	29.5477	0	
2.3993	-3.77281	0.246642	0	
2.4000	0.518762	-18.3748	0	
2.4007	7.21551	2.6884	0	
2.4013	10.2809	28.0185	0	
2.4020	9.9508	19.46	0	
2.4027	8.44167	6.04273	0	
2.4033	4.48022	14.2806	0	
2.4040	0.801723	22.8144	0	
2.4047	1.41481	17.6349	0	
2.4053	2.64097	11.5428	0	
2.4060	-0.707403	7.57191	0	
2.4067	-4.99898	6.3387	0	
2.4073	-2.54665	16.1057	0	
2.4080	4.1501	28.6105	0	
2.4087	8.11155	22.5184	0	
2.4093	10.2809	-0.986567	0	
2.4100	16.9777	-15.6371	0	
2.4107	20.0431	-11.0496	0	
2.4113	8.44167	-0.369963	0	
2.4120	-5.61206	3.28034	0	
2.4127	-7.45131	-0.369963	0	
2.4133	-3.48985	-5.87008	0	
2.4140	-5.89502	-10.433	0	
2.4147	-9.57352	-11.0496	0	
2.4153	-4.10294	-4.63687	0	
2.4160	8.11155	4.51355	0	
2.4167	11.79	4.51355	0	
2.4173	4.1501	-3.10769	0	
2.4180	0.801723	-7.39926	0	
2.4187	3.86714	-6.78265	0	
2.4193	3.53701	-6.78265	0	
2.4200	2.02789	-5.87008	0	
2.4207	3.53701	-3.72429	0	
2.4213	3.86714	-5.25347	0	
2.4220	3.53701	-7.9912	0	
2.4227	4.1501	-7.39926	0	
2.4233	2.02789	-6.48668	0	
2.4240	0.518762	-9.22441	0	
2.4247	1.69777	-9.22441	0	
2.4253	2.64097	-2.19511	0	
2.4260	6.31946	-0.0739926	0	
2.4267	8.11155	-6.16605	0	
2.4273	2.92393	-6.78265	0	
2.4280	1.69777	1.45519	0	
2.4287	6.31946	7.86788	0	
2.4293	5.98934	12.1348	0	
2.4300	3.53701	16.7223	0	
2.4307	5.98934	13.368	0	
2.4313	3.86714	4.51355	0	
2.4320	-3.77281	1.15922	0	
2.4327	-4.66886	0.838582	0	
2.4333	0.801723	-2.19511	0	
2.4340	5.0933	-1.60317	0	
2.4347	8.72463	2.36776	0	
2.4353	10.894	1.15922	0	
2.4360	10.894	-1.89914	0	
2.4367	11.79	-2.81172	0	
2.4373	9.9508	-6.48668	0	
2.4380	2.31085	-14.1079	0	
2.4387	-7.12119	-22.9624	0	
2.4393	-15.0441	-30.5836	0	
2.4400	-15.6572	-34.5545	0	
2.4407	-7.45131	-33.9379	0	
2.4413	-4.3859	-30.2876	0	
2.4420	-7.45131	-24.1709	0	
2.4427	-2.87677	-22.9624	0	
2.4433	0.801723	-28.7584	0	
2.4440	-7.73427	-11.9621	0	
2.4447	-11.0826	41.4358	0	
2.4453	-9.29056	85.6834	0	
2.4460	-15.6572	80.1833	0	
2.4467	-18.7226	47.2319	0	
2.4473	-13.8651	19.1641	0	
2.4480	-12.6389	0.838582	0	
2.4487	-10.1866	-5.54944	0	
2.4493	-1.93357	-3.72429	0	
2.4500	-0.707403	-4.04493	0	
2.4507	-7.45131	-5.54944	0	
2.4513	-13.8651	-1.60317	0	
2.4520	-19.9488	4.51355	0	
2.4527	-19.9488	9.39705	0	
2.4533	-13.535	9.10108	0	
2.4540	-9.29056	-0.986567	0	
2.4547	-10.1866	-9.52038	0	
2.4553	-9.29056	-7.39926	0	
2.4560	-4.99898	-4.9575	0	
2.4567	-1.93357	-9.22441	0	
2.4573	-4.66886	-8.6078	0	
2.4580	-6.22514	-7.39926	0	
2.4587	-0.424442	-14.1079	0	
2.4593	2.64097	-18.6708	0	
2.4600	3.25405	-13.7873	0	
2.4607	9.9508	-11.9621	0	
2.4613	7.49847	-24.7875	0	
2.4620	-8.34735	-44.9381	0	
2.4627	-17.2135	-45.8507	0	
2.4633	-12.3088	-18.0788	0	
2.4640	-6.22514	1.15922	0	
2.4647	-4.3859	-20.2	0	
2.4653	-6.50811	-51.9428	0	
2.4660	-8.34735	-40.3506	0	
2.4667	-5.61206	15.4891	0	
2.4673	-4.3859	60.6739	0	
2.4680	-5.61206	52.732	0	
2.4687	0.801723	21.2852	0	
2.4693	13.0162	11.8388	0	
2.4700	19.713	13.0474	0	
2.4707	20.9391	2.6884	0	
2.4713	17.8737	-6.48668	0	
2.4720	10.2809	-3.42832	0	
2.4727	6.88539	12.1348	0	
2.4733	5.37626	35.3438	0	
2.4740	-5.61206	45.7027	0	
2.4747	-16.2703	33.8146	0	
2.4753	-12.0258	19.46	0	
2.4760	-5.61206	17.6349	0	
2.4767	-4.99898	24.0476	0	
2.4773	-0.0943204	29.2271	0	
2.4780	5.98934	22.8144	0	
2.4787	5.37626	10.3096	0	
2.4793	2.64097	5.42612	0	
2.4800	-0.707403	4.21758	0	
2.4807	-6.83823	0.542612	0	
2.4813	-11.4128	-3.72429	0	
2.4820	-9.29056	-5.54944	0	
2.4827	-2.87677	-1.60317	0	
2.4833	1.69777	8.16385	0	
2.4840	-0.707403	10.3096	0	
2.4847	-10.1866	5.13015	0	
2.4853	-15.9873	2.36776	0	
2.4860	-8.06439	0.246642	0	
2.4867	8.11155	-2.19511	0	
2.4873	22.4482	-0.369963	0	
2.4880	31.6445	-0.665933	0	
2.4887	31.9274	-4.63687	0	
2.4893	22.1653	-4.04493	0	
2.4900	11.5071	-0.986567	0	
2.4907	3.25405	-3.72429	0	
2.4913	-7.73427	-8.90377	0	
2.4920	-16.2703	-11.9621	0	
2.4927	-16.2703	-12.8747	0	
2.4933	-15.6572	-10.7536	0	
2.4940	-14.7611	-8.31183	0	
2.4947	-7.45131	-9.84101	0	
2.4953	-0.707403	-8.90377	0	
2.4960	0.801723	-4.9575	0	
2.4967	3.25405	-6.48668	0	
2.4973	5.98934	-10.137	0	
2.4980	4.76318	-9.22441	0	
2.4987	2.31085	-8.6078	0	
2.4993	0.801723	-7.69523	0	
2.5000	2.64097	-4.63687	0	
2.5007	4.48022	-5.87008	0	
2.5013	3.53701	-9.22441	0	
2.5020	2.92393	-7.9912	0	
2.5027	2.64097	-7.39926	0	
2.5033	-1.65061	-9.22441	0	
2.5040	-4.10294	-8.31183	0	
2.5047	-2.87677	-4.63687	0	
2.5053	-1.03752	-2.81172	0	
2.5060	2.64097	-3.72429	0	
2.5067	9.05476	-6.16605	0	
2.5073	11.79	-5.54944	0	
2.5080	12.6861	-1.89914	0	
2.5087	13.0162	1.77582	0	
2.5093	6.31946	3.60097	0	
2.5100	-1.93357	3.89694	0	
2.5107	-5.89502	-0.665933	0	
2.5113	-8.34735	-3.72429	0	
2.5120	-9.85648	-1.60317	0	
2.5127	-7.12119	-1.60317	0	
2.5133	-4.99898	-5.25347	0	
2.5140	-4.10294	-5.87008	0	
2.5147	-0.424442	-4.3409	0	
2.5153	4.48022	-4.63687	0	
2.5160	9.05476	-2.81172	0	
2.5167	11.177	1.77582	0	
2.5173	11.79	3.28034	0	
2.5180	14.8555	0.838582	0	
2.5187	16.9777	-1.89914	0	
2.5193	13.6293	-3.10769	0	
2.5200	11.79	-3.72429	0	
2.5207	9.66784	-5.54944	0	
2.5213	-1.32049	-7.39926	0	
2.5220	-14.1481	-6.78265	0	
2.5227	-16.6004	-5.87008	0	
2.5233	-14.7611	-4.3409	0	
2.5240	-10.7997	-0.0739926	0	
2.5247	-4.66886	3.60097	0	
2.5253	-3.77281	2.07179	0	
2.5260	-3.15973	-2.51575	0	
2.5267	6.60243	-3.72429	0	
2.5273	15.1384	0.838582	0	
2.5280	11.79	4.80952	0	
2.5287	6.31946	5.42612	0	
2.5293	2.92393	3.89694	0	
2.5300	1.69777	-0.0739926	0	
2.5307	5.37626	-3.72429	0	
2.5313	7.21551	-0.369963	0	
2.5320	-0.707403	6.65933	0	
2.5327	-8.34735	3.60097	0	
2.5333	-9.29056	-4.9575	0	
2.5340	-6.83823	-4.04493	0	
2.5347	1.69777	2.6884	0	
2.5353	11.5071	1.77582	0	
2.5360	7.82859	1.77582	0	
2.5367	-1.32049	16.1057	0	
2.5373	-1.93357	26.1687	0	
2.5380	-1.03752	9.10108	0	
2.5387	-3.15973	-13.7873	0	
2.5393	-0.707403	-15.9331	0	
2.5400	1.69777	-11.9621	0	
2.5407	-1.93357	-21.4332	0	
2.5413	-4.3859	-28.7584	0	
2.5420	0.518762	-25.9961	0	
2.5427	4.76318	-27.5252	0	
2.5433	2.64097	-29.375	0	
2.5440	-5.61206	-13.4913	0	
2.5447	-10.7997	12.4554	0	
2.5453	-4.66886	28.6105	0	
2.5460	0.801723	31.9894	0	
2.5467	-3.15973	22.8144	0	
2.5473	-3.77281	6.3387	0	
2.5480	7.82859	7.25127	0	
2.5487	16.6947	33.8146	0	
2.5493	12.6861	55.7904	0	
2.5500	8.72463	49.9943	0	
2.5507	12.6861	26.7853	0	
2.5513	16.3646	4.51355	0	
2.5520	13.6293	-6.48668	0	
2.5527	6.31946	-5.25347	0	
2.5533	-4.66886	1.45519	0	
2.5540	-13.252	3.60097	0	
2.5547	-11.0826	-2.19511	0	
2.5553	-2.54665	-9.84101	0	
2.5560	0.518762	-13.1953	0	
2.5567	-2.26369	-11.9621	0	
2.5573	-5.61206	-7.39926	0	
2.5580	-9.29056	-0.986567	0	
2.5587	-11.4128	-1.89914	0	
2.5593	-8.67747	-18.6708	0	
2.5600	-2.26369	-27.2293	0	
2.5607	4.48022	-3.72429	0	
2.5613	3.53701	19.1641	0	
2.5620	-5.61206	7.57191	0	
2.5627	-12.6389	-18.0788	0	
2.5633	-13.252	-32.7294	0	
2.5640	-16.6004	-37.9089	0	
2.5647	-16.8833	-34.5545	0	
2.5653	-8.96044	-30.8796	0	
2.5660	-4.66886	-33.6419	0	
2.5667	-8.96044	-16.8456	0	
2.5673	-10.4696	21.9018	0	
2.5680	-7.12119	43.5816	0	
2.5687	-4.99898	39.9067	0	
2.5693	-5.61206	33.198	0	
2.5700	-4.66886	24.0476	0	
2.5707	1.13184	12.4554	0	
2.5713	5.37626	8.16385	0	
2.5720	-0.707403	10.0137	0	
2.5727	-6.22514	16.1057	0	
2.5733	-0.707403	20.0766	0	
2.5740	2.92393	13.368	0	
2.5747	1.69777	7.25127	0	
2.5753	2.64097	10.9262	0	
2.5760	4.76318	10.9262	0	
2.5767	2.64097	5.13015	0	
2.5773	1.69777	3.28034	0	
2.5780	0.518762	2.98437	0	
2.5787	-0.0943204	4.51355	0	
2.5793	0.518762	10.9262	0	
2.5800	-1.65061	13.9599	0	
2.5807	-4.99898	9.69303	0	
2.5813	-2.54665	4.80952	0	
2.5820	2.02789	0.246642	0	
2.5827	1.41481	-5.25347	0	
2.5833	2.02789	-7.69523	0	
2.5840	8.44167	-7.39926	0	
2.5847	13.2992	-9.52038	0	
2.5853	12.6861	-11.0496	0	
2.5860	11.79	-7.69523	0	
2.5867	6.88539	-5.87008	0	
2.5873	-4.3859	-9.52038	0	
2.5880	-8.67747	-11.0496	0	
2.5887	-2.26369	-7.69523	0	
2.5893	-6.50811	-6.78265	0	
2.5900	-21.1749	-9.84101	0	
2.5907	-20.5618	-7.9912	0	
2.5913	-6.83823	-2.81172	0	
2.5920	-2.87677	-0.0739926	0	
2.5927	-8.96044	2.98437	0	
2.5933	-10.1866	7.57191	0	
2.5940	-4.10294	0.838582	0	
2.5947	2.64097	-14.4039	0	
2.5953	3.53701	-19.2874	0	
2.5960	3.25405	-15.9331	0	
2.5967	5.37626	-16.5497	0	
2.5973	3.53701	-17.1663	0	
2.5980	-4.10294	-12.8747	0	
2.5987	-8.34735	-10.137	0	
2.5993	-5.61206	-10.137	0	
2.6000	0.188641	-11.9621	0	
2.6007	6.60243	-17.7582	0	
2.6013	8.44167	-17.4622	0	
2.6020	4.48022	-6.78265	0	
2.6027	2.64097	2.07179	0	
2.6033	4.48022	6.04273	0	
2.6040	3.86714	6.3387	0	
2.6047	1.69777	3.89694	0	
2.6053	2.02789	6.3387	0	
2.6060	3.25405	13.9599	0	
2.6067	2.64097	15.1931	0	
2.6073	2.92393	10.3096	0	
2.6080	5.98934	7.25127	0	
2.6087	2.02789	6.04273	0	
2.6093	-8.06439	10.0137	0	
2.6100	-10.1866	10.9262	0	
2.6107	-6.50811	-2.51575	0	
2.6113	-6.50811	-14.4039	0	
2.6120	-3.77281	-9.84101	0	
2.6127	2.02789	-2.51575	0	
2.6133	4.1501	-3.72429	0	
2.6140	8.11155	-7.39926	0	
2.6147	12.4031	-3.10769	0	
2.6153	9.66784	9.10108	0	
2.6160	8.11155	19.1641	0	
2.6167	11.79	15.8097	0	
2.6173	9.9508	4.21758	0	
2.6180	8.72463	-3.72429	0	
2.6187	19.0999	-4.04493	0	
2.6193	25.5137	-0.369963	0	
2.6200	13.2992	-0.0739926	0	
2.6207	-5.89502	-3.42832	0	
2.6213	-15.6572	-3.42832	0	
2.6220	-12.0258	0.542612	0	
2.6227	-3.77281	3.28034	0	
2.6233	-4.10294	4.51355	0	
2.6240	-10.1866	2.98437	0	
2.6247	-12.0258	-0.0739926	0	
2.6253	-16.6004	-1.89914	0	
2.6260	-25.4193	-3.72429	0	
2.6267	-21.1749	-9.22441	0	
2.6273	-10.4696	-11.9621	0	
2.6280	-12.0258	-10.433	0	
2.6287	-13.535	-11.0496	0	
2.6293	-1.32049	-9.52038	0	
2.6300	8.11155	-0.665933	0	
2.6307	9.05476	8.78045	0	
2.6313	11.5071	15.8097	0	
2.6320	13.9123	21.9018	0	
2.6327	10.5639	17.3389	0	
2.6333	2.64097	-0.0739926	0	
2.6340	-4.3859	-11.3455	0	
2.6347	-4.10294	-10.137	0	
2.6353	1.41481	-4.63687	0	
2.6360	3.25405	2.07179	0	
2.6367	1.41481	6.3387	0	
2.6373	-1.32049	2.36776	0	
2.6380	-1.93357	-2.19511	0	
2.6387	2.02789	-0.986567	0	
2.6393	3.86714	-0.665933	0	
2.6400	-0.0943204	-3.72429	0	
2.6407	-1.93357	-5.87008	0	
2.6413	3.53701	-5.87008	0	
2.6420	9.9508	-3.10769	0	
2.6427	13.0162	5.13015	0	
2.6433	12.6861	7.86788	0	
2.6440	7.82859	-0.665933	0	
2.6447	3.86714	-7.39926	0	
2.6453	3.53701	-10.433	0	
2.6460	1.13184	-14.1079	0	
2.6467	-5.28194	-10.433	0	
2.6473	-10.1866	-10.137	0	
2.6480	-10.1866	-34.2339	0	
2.6487	-5.89502	-49.8217	0	
2.6493	-1.65061	-11.9621	0	
2.6500	-2.26369	34.7272	0	
2.6507	-6.50811	22.5184	0	
2.6513	-7.45131	-20.2	0	
2.6520	-3.48985	-36.6756	0	
2.6527	-3.15973	-36.6756	0	
2.6533	-5.61206	-25.0835	0	
2.6540	-0.707403	33.8146	0	
2.6547	7.21551	99.7173	0	
2.6553	7.82859	86.9166	0	
2.6560	3.53701	25.8727	0	
2.6567	-3.77281	1.15922	0	
2.6573	-15.6572	6.3387	0	
2.6580	-19.3357	6.65933	0	
2.6587	-9.29056	8.78045	0	
2.6593	0.518762	8.78045	0	
2.6600	3.53701	1.15922	0	
2.6607	6.31946	-2.81172	0	
2.6613	7.82859	-3.72429	0	
2.6620	7.49847	-3.72429	0	
2.6627	5.0933	2.98437	0	
2.6633	0.188641	7.57191	0	
2.6640	-1.65061	4.21758	0	
2.6647	-4.10294	2.6884	0	
2.6653	-15.9873	2.98437	0	
2.6660	-21.1749	6.65933	0	
2.6667	-9.29056	15.4891	0	
2.6673	-1.32049	9.10108	0	
2.6680	-6.83823	-12.5787	0	
2.6687	-12.0258	-14.7245	0	
2.6693	-15.0441	4.51355	0	
2.6700	-16.8833	15.4891	0	
2.6707	-12.0258	14.2806	0	
2.6713	-7.45131	11.8388	0	
2.6720	-7.45131	6.3387	0	
2.6727	-2.54665	3.28034	0	
2.6733	8.11155	7.25127	0	
2.6740	15.1384	9.69303	0	
2.6747	16.6947	12.7514	0	
2.6753	16.0816	15.8097	0	
2.6760	9.9508	2.36776	0	
2.6767	-0.0943204	-19.2874	0	
2.6773	-4.3859	-21.1125	0	
2.6780	0.801723	-9.22441	0	
2.6787	10.5639	-6.48668	0	
2.6793	18.2038	-8.31183	0	
2.6800	18.4868	-7.69523	0	
2.6807	14.5253	-8.6078	0	
2.6813	11.79	-9.22441	0	
2.6820	5.98934	-10.137	0	
2.6827	-5.61206	-12.5787	0	
2.6833	-12.0258	-5.54944	0	
2.6840	-8.67747	4.51355	0	
2.6847	-1.03752	1.45519	0	
2.6853	4.48022	-4.63687	0	
2.6860	-3.48985	-0.0739926	0	
2.6867	-21.1749	3.60097	0	
2.6873	-24.8534	2.36776	0	
2.6880	-12.6389	4.21758	0	
2.6887	-0.707403	2.6884	0	
2.6893	7.21551	-5.25347	0	
2.6900	9.05476	-8.90377	0	
2.6907	4.48022	-7.69523	0	
2.6913	6.88539	-9.22441	0	
2.6920	16.0816	-8.31183	0	
2.6927	18.2038	-5.54944	0	
2.6933	17.8737	-9.22441	0	
2.6940	19.43	-13.1953	0	
2.6947	11.177	-11.9621	0	
2.6953	-1.65061	-11.6662	0	
2.6960	-6.22514	-12.8747	0	
2.6967	-6.50811	-10.137	0	
2.6973	-8.96044	-8.90377	0	
2.6980	-9.57352	-9.52038	0	
2.6987	-8.96044	-5.87008	0	
2.6993	-6.50811	-1.28254	0	
2.7000	-1.32049	-0.986567	0	
2.7007	1.69777	-3.10769	0	
2.7013	0.801723	-5.54944	0	
2.7020	-0.0943204	-4.63687	0	
2.7027	-3.77281	-0.0739926	0	
2.7033	-11.6957	-0.665933	0	
2.7040	-15.3742	-4.3409	0	
2.7047	-11.0826	-3.72429	0	
2.7053	-5.89502	-3.72429	0	
2.7060	-4.3859	-8.31183	0	
2.7067	-3.77281	-7.9912	0	
2.7073	-0.0943204	-2.81172	0	
2.7080	6.31946	-3.10769	0	
2.7087	8.11155	-4.3409	0	
2.7093	5.37626	1.45519	0	
2.7100	5.70638	7.57191	0	
2.7107	10.894	2.6884	0	
2.7113	12.4031	-4.9575	0	
2.7120	8.11155	-5.87008	0	
2.7127	1.69777	-7.07862	0	
2.7133	-5.61206	-13.7873	0	
2.7140	-12.9219	-11.9621	0	
2.7147	-12.6389	3.89694	0	
2.7153	-7.12119	11.2222	0	
2.7160	-4.99898	0.838582	0	
2.7167	-4.66886	-10.137	0	
2.7173	2.92393	-12.2828	0	
2.7180	16.3646	-9.22441	0	
2.7187	24.2875	-1.60317	0	
2.7193	23.6744	5.72209	0	
2.7200	20.9391	10.0137	0	
2.7207	19.713	15.8097	0	
2.7213	18.4868	16.4017	0	
2.7220	18.2038	5.42612	0	
2.7227	21.8823	-0.0739926	0	
2.7233	22.4482	9.10108	0	
2.7240	13.9123	12.7514	0	
2.7247	4.48022	4.80952	0	
2.7253	-1.03752	4.21758	0	
2.7260	-8.34735	13.664	0	
2.7267	-17.8266	20.3726	0	
2.7273	-24.2403	18.2515	0	
2.7280	-26.6455	10.6056	0	
2.7287	-23.9102	3.60097	0	
2.7293	-18.7226	3.28034	0	
2.7300	-16.6004	3.89694	0	
2.7307	-12.0258	-1.89914	0	
2.7313	-7.12119	-7.9912	0	
2.7320	-9.29056	-7.69523	0	
2.7327	-12.0258	-7.07862	0	
2.7333	-6.22514	-8.31183	0	
2.7340	-1.03752	-9.22441	0	
2.7347	-0.0943204	-10.137	0	
2.7353	1.69777	-4.9575	0	
2.7360	1.69777	6.3387	0	
2.7367	1.69777	5.72209	0	
2.7373	6.31946	-7.07862	0	
2.7380	8.11155	-9.22441	0	
2.7387	3.25405	-0.0739926	0	
2.7393	0.518762	3.89694	0	
2.7400	-1.03752	1.77582	0	
2.7407	-5.89502	-3.42832	0	
2.7413	-10.4696	-10.137	0	
2.7420	-13.8651	-3.72429	0	
2.7427	-15.3742	16.4017	0	
2.7433	-10.1866	23.135	0	
2.7440	-3.15973	13.664	0	
2.7447	-4.66886	8.48448	0	
2.7453	-8.96044	10.6056	0	
2.7460	-7.45131	14.5765	0	
2.7467	-2.54665	21.2852	0	
2.7473	-1.03752	18.8434	0	
2.7480	-3.48985	-0.0739926	0	
2.7487	-5.61206	-17.7582	0	
2.7493	-5.61206	-23.8749	0	
2.7500	-1.93357	-19.2874	0	
2.7507	2.64097	-8.31183	0	
2.7513	2.31085	-8.31183	0	
2.7520	-1.65061	-22.9624	0	
2.7527	-1.93357	-21.1125	0	
2.7533	-1.32049	8.78045	0	
2.7540	0.188641	36.8483	0	
2.7547	8.11155	50.2903	0	
2.7553	13.0162	48.7611	0	
2.7560	6.60243	18.8434	0	
2.7567	2.31085	-19.2874	0	
2.7573	4.48022	-26.6127	0	
2.7580	2.02789	-13.1953	0	
2.7587	-3.77281	-9.84101	0	
2.7593	-5.61206	-11.0496	0	
2.7600	-7.12119	-5.25347	0	
2.7607	-7.45131	0.838582	0	
2.7613	-3.15973	2.36776	0	
2.7620	-1.03752	2.07179	0	
2.7627	-0.424442	1.77582	0	
2.7633	2.31085	0.246642	0	
2.7640	4.1501	-3.72429	0	
2.7647	7.82859	-6.16605	0	
2.7653	14.8555	-2.81172	0	
2.7660	15.4685	3.28034	0	
2.7667	8.11155	4.51355	0	
2.7673	5.98934	2.07179	0	
2.7680	10.5639	3.60097	0	
2.7687	12.6861	8.48448	0	
2.7693	9.05476	8.48448	0	
2.7700	2.92393	1.15922	0	
2.7707	-1.93357	-3.72429	0	
2.7713	-3.77281	-4.04493	0	
2.7720	-1.93357	-7.69523	0	
2.7727	3.86714	-12.5787	0	
2.7733	9.05476	-9.84101	0	
2.7740	9.66784	-6.48668	0	
2.7747	9.05476	-7.9912	0	
2.7753	8.72463	-6.78265	0	
2.7760	7.49847	-3.72429	0	
2.7767	5.70638	-4.3409	0	
2.7773	3.53701	-0.0739926	0	
2.7780	2.02789	7.86788	0	
2.7787	2.64097	0.838582	0	
2.7793	-0.424442	-11.6662	0	
2.7800	-5.61206	-8.90377	0	
2.7807	-1.32049	-1.28254	0	
2.7813	6.31946	-1.89914	0	
2.7820	8.11155	-0.986567	0	
2.7827	10.894	1.77582	0	
2.7833	10.894	-0.986567	0	
2.7840	-1.03752	-1.89914	0	
2.7847	-8.06439	3.60097	0	
2.7853	1.13184	5.42612	0	
2.7860	8.44167	0.246642	0	
2.7867	6.31946	-3.72429	0	
2.7873	5.37626	-4.3409	0	
2.7880	7.21551	-3.42832	0	
2.7887	6.31946	-2.51575	0	
2.7893	2.64097	-0.665933	0	
2.7900	-2.87677	3.28034	0	
2.7907	-7.12119	2.98437	0	
2.7913	-4.66886	-3.72429	0	
2.7920	-0.0943204	-9.22441	0	
2.7927	-0.424442	-10.137	0	
2.7933	-5.61206	-10.137	0	
2.7940	-7.45131	-11.9621	0	
2.7947	-4.66886	-15.3165	0	
2.7953	-0.707403	-18.0788	0	
2.7960	2.64097	-22.3458	0	
2.7967	6.31946	-29.671	0	
2.7973	8.11155	-30.2876	0	
2.7980	9.05476	-22.0498	0	
2.7987	7.82859	-15.6371	0	
2.7993	2.02789	-3.72429	0	
2.8000	-7.73427	24.6642	0	
2.8007	-14.7611	48.1445	0	
2.8013	-15.6572	47.2319	0	
2.8020	-13.535	33.8146	0	
2.8027	-11.0826	18.2515	0	
2.8033	-5.61206	-0.0739926	0	
2.8040	1.69777	-13.1953	0	
2.8047	2.92393	-15.6371	0	
2.8053	1.41481	-12.8747	0	
2.8060	2.64097	-12.2828	0	
2.8067	-0.0943204	-11.3455	0	
2.8073	-12.9219	-3.72429	0	
2.8080	-24.5233	7.57191	0	
2.8087	-23.9102	20.3726	0	
2.8093	-18.1095	34.1106	0	
2.8100	-14.1481	36.5523	0	
2.8107	-8.34735	21.9018	0	
2.8113	1.13184	9.69303	0	
2.8120	7.21551	9.39705	0	
2.8127	6.60243	6.9553	0	
2.8133	4.76318	-0.986567	0	
2.8140	2.31085	-4.63687	0	
2.8147	-4.66886	-5.25347	0	
2.8153	-13.535	-3.72429	0	
2.8160	-17.4964	-0.0739926	0	
2.8167	-15.0441	1.15922	0	
2.8173	-10.1866	-0.0739926	0	
2.8180	-7.12119	-0.369963	0	
2.8187	-1.03752	-0.0739926	0	
2.8193	5.70638	-0.369963	0	
2.8200	3.53701	-1.28254	0	
2.8207	-4.99898	-2.19511	0	
2.8213	-5.28194	-2.81172	0	
2.8220	2.02789	-3.42832	0	
2.8227	2.64097	-2.51575	0	
2.8233	-2.26369	-0.369963	0	
2.8240	-3.77281	-1.28254	0	
2.8247	-2.87677	-4.04493	0	
2.8253	-1.65061	-7.39926	0	
2.8260	1.13184	-12.5787	0	
2.8267	4.76318	-12.5787	0	
2.8273	9.66784	-9.84101	0	
2.8280	15.7515	-14.1079	0	
2.8287	16.3646	-12.8747	0	
2.8293	7.82859	1.15922	0	
2.8300	-1.03752	2.36776	0	
2.8307	-8.34735	-7.69523	0	
2.8313	-15.3742	-1.89914	0	
2.8320	-14.7611	13.0474	0	
2.8327	-8.34735	14.8972	0	
2.8333	-9.29056	6.65933	0	
2.8340	-15.6572	0.246642	0	
2.8347	-16.6004	7.25127	0	
2.8353	-15.6572	19.1641	0	
2.8360	-17.8266	10.9262	0	
2.8367	-17.2135	-5.25347	0	
2.8373	-13.8651	-3.10769	0	
2.8380	-8.34735	5.42612	0	
2.8387	-0.707403	9.10108	0	
2.8393	3.86714	12.7514	0	
2.8400	3.86714	13.664	0	
2.8407	3.53701	15.1931	0	
2.8413	3.53701	20.0766	0	
2.8420	4.76318	10.0137	0	
2.8427	8.11155	-11.6662	0	
2.8433	4.76318	-19.608	0	
2.8440	-0.707403	-14.7245	0	
2.8447	-0.0943204	-9.52038	0	
2.8453	-1.03752	-4.9575	0	
2.8460	-6.50811	-2.81172	0	
2.8467	-7.45131	-1.89914	0	
2.8473	-5.61206	0.838582	0	
2.8480	-6.50811	1.15922	0	
2.8487	-1.93357	0.838582	0	
2.8493	5.37626	2.36776	0	
2.8500	7.82859	0.838582	0	
2.8507	9.05476	0.246642	0	
2.8513	11.5071	2.6884	0	
2.8520	9.9508	0.246642	0	
2.8527	8.11155	-5.87008	0	
2.8533	12.4031	-7.39926	0	
2.8540	17.2606	-5.54944	0	
2.8547	18.4868	-7.69523	0	
2.8553	19.0999	-10.433	0	
2.8560	17.8737	-7.69523	0	
2.8567	11.5071	-6.48668	0	
2.8573	3.86714	-9.52038	0	
2.8580	4.1501	-1.89914	0	
2.8587	11.79	14.5765	0	
2.8593	13.2992	12.4554	0	
2.8600	3.86714	-7.39926	0	
2.8607	-3.77281	-18.3748	0	
2.8613	-3.77281	-16.229	0	
2.8620	-5.28194	-6.78265	0	
2.8627	-6.50811	3.60097	0	
2.8633	-2.87677	6.04273	0	
2.8640	1.13184	1.77582	0	
2.8647	-0.424442	4.80952	0	
2.8653	-4.10294	14.8972	0	
2.8660	-6.50811	19.1641	0	
2.8667	-7.12119	12.1348	0	
2.8673	-4.66886	-0.0739926	0	
2.8680	-2.26369	-2.81172	0	
2.8687	-1.03752	6.65933	0	
2.8693	0.801723	11.2222	0	
2.8700	4.48022	6.04273	0	
2.8707	4.76318	0.542612	0	
2.8713	-2.87677	-4.04493	0	
2.8720	-10.4696	-9.22441	0	
2.8727	-8.06439	-9.22441	0	
2.8733	-2.26369	-6.48668	0	
2.8740	-0.707403	-4.04493	0	
2.8747	2.64097	-0.986567	0	
2.8753	7.21551	-1.28254	0	
2.8760	9.9508	-6.78265	0	
2.8767	11.177	-12.5787	0	
2.8773	10.894	-14.7245	0	
2.8780	4.48022	-11.9621	0	
2.8787	-2.87677	-11.0496	0	
2.8793	-5.89502	-20.5206	0	
2.8800	-6.50811	-27.5252	0	
2.8807	-7.45131	-22.9624	0	
2.8813	-7.45131	-15.6371	0	
2.8820	-6.50811	5.42612	0	
2.8827	-7.12119	41.1399	0	
2.8833	-8.34735	50.5862	0	
2.8840	-5.28194	26.4893	0	
2.8847	-2.54665	9.39705	0	
2.8853	-6.83823	11.8388	0	
2.8860	-10.4696	16.7223	0	
2.8867	-8.06439	15.8097	0	
2.8873	-5.89502	1.77582	0	
2.8880	-7.45131	-12.2828	0	
2.8887	-8.34735	-5.25347	0	
2.8893	-8.67747	4.80952	0	
2.8900	-11.0826	-0.986567	0	
2.8907	-14.7611	-0.369963	0	
2.8913	-15.9873	18.2515	0	
2.8920	-13.8651	28.0185	0	
2.8927	-8.67747	14.8972	0	
2.8933	0.518762	-1.28254	0	
2.8940	13.2992	-4.63687	0	
2.8947	20.0431	-4.63687	0	
2.8953	13.2992	-11.9621	0	
2.8960	2.64097	-18.6708	0	
2.8967	-0.0943204	-19.2874	0	
2.8973	2.64097	-19.2874	0	
2.8980	3.53701	-16.8456	0	
2.8987	2.64097	-7.07862	0	
2.8993	3.25405	4.51355	0	
2.9000	4.1501	18.2515	0	
2.9007	-0.707403	34.1106	0	
2.9013	-6.22514	37.7855	0	
2.9020	-3.77281	26.1687	0	
2.9027	0.801723	18.8434	0	
2.9033	0.518762	18.2515	0	
2.9040	-1.03752	6.9553	0	
2.9047	-0.0943204	-10.433	0	
2.9053	-1.93357	-14.1079	0	
2.9060	-4.66886	-7.07862	0	
2.9067	-0.0943204	-4.04493	0	
2.9073	9.05476	-3.42832	0	
2.9080	9.9508	-0.0739926	0	
2.9087	5.0933	2.36776	0	
2.9093	8.44167	5.42612	0	
2.9100	13.6293	9.69303	0	
2.9107	5.70638	0.246642	0	
2.9113	-2.87677	-22.3458	0	
2.9120	1.41481	-38.5255	0	
2.9127	5.37626	-41.2632	0	
2.9133	3.53701	-39.438	0	
2.9140	5.98934	-36.9963	0	
2.9147	9.05476	-29.375	0	
2.9153	6.60243	-13.7873	0	
2.9160	4.1501	1.15922	0	
2.9167	1.41481	2.6884	0	
2.9173	-3.77281	2.98437	0	
2.9180	-4.10294	13.664	0	
2.9187	0.188641	14.5765	0	
2.9193	3.25405	2.6884	0	
2.9200	9.05476	1.45519	0	
2.9207	14.5253	8.16385	0	
2.9213	13.6293	6.04273	0	
2.9220	13.0162	2.07179	0	
2.9227	11.79	-0.369963	0	
2.9233	4.48022	-5.54944	0	
2.9240	-0.0943204	-3.72429	0	
2.9247	-0.0943204	7.25127	0	
2.9253	-5.28194	13.664	0	
2.9260	-12.9219	13.368	0	
2.9267	-14.7611	10.9262	0	
2.9273	-14.4782	6.65933	0	
2.9280	-11.0826	2.6884	0	
2.9287	-1.93357	-0.0739926	0	
2.9293	5.70638	-0.986567	0	
2.9300	9.05476	0.542612	0	
2.9307	8.44167	-1.60317	0	
2.9313	6.60243	-4.04493	0	
2.9320	8.72463	0.246642	0	
2.9327	13.2992	3.60097	0	
2.9333	12.073	-0.986567	0	
2.9340	6.31946	-2.81172	0	
2.9347	3.86714	0.246642	0	
2.9353	4.48022	-0.986567	0	
2.9360	4.48022	-1.28254	0	
2.9367	2.92393	0.838582	0	
2.9373	1.69777	-2.51575	0	
2.9380	1.13184	-5.54944	0	
2.9387	1.69777	-3.10769	0	
2.9393	1.41481	-1.60317	0	
2.9400	1.41481	-1.89914	0	
2.9407	5.37626	-0.369963	0	
2.9413	9.9508	-0.986567	0	
2.9420	9.9508	-3.10769	0	
2.9427	8.72463	-2.19511	0	
2.9433	7.21551	-0.0739926	0	
2.9440	5.70638	2.07179	0	
2.9447	6.31946	4.51355	0	
2.9453	3.53701	3.28034	0	
2.9460	-6.50811	-0.369963	0	
2.9467	-15.6572	-1.89914	0	
2.9473	-17.2135	-2.81172	0	
2.9480	-15.0441	-4.04493	0	
2.9487	-10.7997	-3.72429	0	
2.9493	-5.28194	-1.89914	0	
2.9500	-5.61206	-0.986567	0	
2.9507	-9.57352	-0.986567	0	
2.9513	-8.96044	-1.28254	0	
2.9520	-5.28194	-1.60317	0	
2.9527	-2.87677	-2.81172	0	
2.9533	-2.54665	-5.54944	0	
2.9540	-5.61206	-5.54944	0	
2.9547	-7.12119	-2.51575	0	
2.9553	-1.93357	-2.81172	0	
2.9560	0.518762	-4.9575	0	
2.9567	-7.12119	-4.3409	0	
2.9573	-12.6389	-1.60317	0	
2.9580	-11.0826	2.36776	0	
2.9587	-12.0258	5.13015	0	
