0.0007	-2.38262	0.490603	0	
0.0013	-2.98545	0.802805	0	
0.0020	-2.98545	-0.111501	0	
0.0027	-0.545419	-1.33801	0	
0.0033	1.57884	-1.94011	0	
0.0040	1.89461	-1.02581	0	
0.0047	2.49744	-0.111501	0	
0.0053	4.33465	0.802805	0	
0.0060	5.25325	-0.111501	0	
0.0067	4.65041	-2.25232	0	
0.0073	4.04758	-3.16662	0	
0.0080	1.57884	-1.94011	0	
0.0087	-2.38262	-1.33801	0	
0.0093	-3.58828	-1.02581	0	
0.0100	-2.98545	-0.111501	0	
0.0107	-4.21982	0.802805	0	
0.0113	-6.65985	0.802805	0	
0.0120	-8.78412	0.802805	0	
0.0127	-10.6213	2.63142	0	
0.0133	-9.38695	4.46003	0	
0.0140	-6.65985	2.94362	0	
0.0147	-8.46835	0.178401	0	
0.0153	-11.2241	-0.111501	0	
0.0160	-7.86552	0.802805	0	
0.0167	-3.90405	-0.111501	0	
0.0173	-3.90405	-2.25232	0	
0.0180	-1.46402	-3.47882	0	
0.0187	2.81321	-2.85442	0	
0.0193	4.33465	-2.85442	0	
0.0200	4.93748	-3.79103	0	
0.0207	5.56901	-1.94011	0	
0.0213	4.33465	0.802805	0	
0.0220	4.33465	-1.33801	0	
0.0227	6.48762	-3.16662	0	
0.0233	6.48762	-0.111501	0	
0.0240	5.25325	0.178401	0	
0.0247	4.33465	-2.85442	0	
0.0253	3.12898	-2.85442	0	
0.0260	3.73181	-1.02581	0	
0.0267	4.93748	-0.423703	0	
0.0273	2.21038	1.40491	0	
0.0280	-0.861188	1.09271	0	
0.0287	0.373181	-2.25232	0	
0.0293	1.57884	-2.85442	0	
0.0300	0.373181	-0.423703	0	
0.0307	-1.46402	0.178401	0	
0.0313	-3.58828	0.802805	0	
0.0320	-6.02831	1.71711	0	
0.0327	-6.65985	0.178401	0	
0.0333	-6.34408	0.178401	0	
0.0340	-6.34408	2.63142	0	
0.0347	-4.82265	2.31922	0	
0.0353	-2.66968	-0.111501	0	
0.0360	-2.06685	-0.111501	0	
0.0367	-2.98545	0.802805	0	
0.0373	-3.58828	2.63142	0	
0.0380	-5.10971	2.63142	0	
0.0387	-5.74125	0.490603	0	
0.0393	-3.90405	0.178401	0	
0.0400	-2.98545	1.40491	0	
0.0407	-4.21982	-1.94011	0	
0.0413	-4.21982	-2.85442	0	
0.0420	-2.06685	1.09271	0	
0.0427	-0.545419	0.490603	0	
0.0433	-1.14825	-3.16662	0	
0.0440	-2.66968	-2.56452	0	
0.0447	-2.06685	-2.85442	0	
0.0453	-0.22965	-3.79103	0	
0.0460	-0.545419	-1.33801	0	
0.0467	-1.14825	0.178401	0	
0.0473	-1.14825	-1.02581	0	
0.0480	-2.98545	-0.111501	0	
0.0487	-2.98545	2.31922	0	
0.0493	0.68895	2.31922	0	
0.0500	2.21038	0.802805	0	
0.0507	0.976013	-1.02581	0	
0.0513	1.29178	0.178401	0	
0.0520	0.68895	3.85793	0	
0.0527	-1.14825	3.54572	0	
0.0533	0.68895	-0.111501	0	
0.0540	3.73181	1.09271	0	
0.0547	3.73181	3.85793	0	
0.0553	3.41605	2.31922	0	
0.0560	6.17185	0.490603	0	
0.0567	7.09045	1.09271	0	
0.0573	3.73181	0.490603	0	
0.0580	0.68895	-1.65021	0	
0.0587	0.373181	-1.02581	0	
0.0593	2.49744	0.802805	0	
0.0600	4.65041	-1.02581	0	
0.0607	4.33465	-3.47882	0	
0.0613	2.21038	-2.56452	0	
0.0620	2.49744	-0.111501	0	
0.0627	3.73181	0.802805	0	
0.0633	4.33465	2.31922	0	
0.0640	5.25325	2.94362	0	
0.0647	5.56901	-0.111501	0	
0.0653	4.33465	-2.85442	0	
0.0660	4.65041	-2.25232	0	
0.0667	5.85608	-2.56452	0	
0.0673	3.73181	-4.08093	0	
0.0680	1.89461	-3.47882	0	
0.0687	1.89461	-0.111501	0	
0.0693	0.68895	0.490603	0	
0.0700	-0.22965	-1.02581	0	
0.0707	-0.22965	0.178401	0	
0.0713	-2.06685	1.40491	0	
0.0720	-3.90405	-0.423703	0	
0.0727	-3.90405	-1.02581	0	
0.0733	-4.50688	0.802805	0	
0.0740	-4.82265	1.71711	0	
0.0747	-3.90405	1.71711	0	
0.0753	-6.02831	3.23352	0	
0.0760	-8.18128	3.85793	0	
0.0767	-5.74125	3.23352	0	
0.0773	-2.98545	1.71711	0	
0.0780	-2.38262	-0.111501	0	
0.0787	-1.75108	-1.02581	0	
0.0793	-0.22965	0.802805	0	
0.0800	0.68895	1.09271	0	
0.0807	0.0574125	-2.25232	0	
0.0813	-1.14825	-3.16662	0	
0.0820	-0.22965	0.178401	0	
0.0827	0.68895	0.802805	0	
0.0833	0.373181	-2.85442	0	
0.0840	0.0574125	-2.85442	0	
0.0847	0.373181	0.178401	0	
0.0853	0.68895	0.802805	0	
0.0860	2.81321	-0.111501	0	
0.0867	4.33465	-1.02581	0	
0.0873	2.49744	-2.56452	0	
0.0880	-0.22965	-2.25232	0	
0.0887	-0.861188	-1.02581	0	
0.0893	-0.545419	-1.02581	0	
0.0900	0.373181	-0.111501	0	
0.0907	-0.545419	1.09271	0	
0.0913	-4.21982	-0.423703	0	
0.0920	-5.74125	-1.02581	0	
0.0927	-4.50688	-0.111501	0	
0.0933	-3.90405	-1.02581	0	
0.0940	-4.21982	-1.02581	0	
0.0947	-2.98545	2.00701	0	
0.0953	-2.66968	0.802805	0	
0.0960	-4.82265	-1.94011	0	
0.0967	-7.26268	0.490603	0	
0.0973	-6.02831	2.31922	0	
0.0980	-3.30122	-0.111501	0	
0.0987	-2.06685	-1.65021	0	
0.0993	-2.66968	-0.735905	0	
0.1000	-2.98545	-0.111501	0	
0.1007	-2.66968	-1.33801	0	
0.1013	-2.06685	-2.56452	0	
0.1020	-1.75108	-0.423703	0	
0.1027	-1.14825	2.63142	0	
0.1033	-1.46402	0.802805	0	
0.1040	-2.38262	-2.85442	0	
0.1047	-2.98545	-3.16662	0	
0.1053	-1.75108	-1.94011	0	
0.1060	1.29178	-1.33801	0	
0.1067	3.41605	-0.111501	0	
0.1073	2.49744	-0.735905	0	
0.1080	0.976013	-1.02581	0	
0.1087	2.49744	0.802805	0	
0.1093	4.04758	1.40491	0	
0.1100	1.29178	-0.111501	0	
0.1107	0.976013	0.178401	0	
0.1113	2.81321	2.00701	0	
0.1120	-0.545419	0.490603	0	
0.1127	-5.42548	-0.423703	0	
0.1133	-3.30122	2.63142	0	
0.1140	0.0574125	4.46003	0	
0.1147	0.373181	2.00701	0	
0.1153	0.0574125	0.802805	0	
0.1160	-0.861188	2.00701	0	
0.1167	-2.38262	0.802805	0	
0.1173	-2.06685	-2.25232	0	
0.1180	0.0574125	-1.02581	0	
0.1187	-0.22965	1.09271	0	
0.1193	-1.14825	-0.423703	0	
0.1200	-0.861188	-1.65021	0	
0.1207	-0.861188	0.802805	0	
0.1213	-1.75108	0.802805	0	
0.1220	-0.545419	-1.02581	0	
0.1227	0.373181	-0.111501	0	
0.1233	-2.06685	-0.111501	0	
0.1240	-2.06685	-2.56452	0	
0.1247	0.373181	-1.33801	0	
0.1253	-1.14825	-0.111501	0	
0.1260	-4.21982	-2.25232	0	
0.1267	-2.66968	-2.25232	0	
0.1273	-1.46402	0.490603	0	
0.1280	-4.50688	0.802805	0	
0.1287	-5.74125	-0.111501	0	
0.1293	-3.30122	-0.735905	0	
0.1300	-2.66968	-1.94011	0	
0.1307	-4.82265	-0.735905	0	
0.1313	-7.54975	1.71711	0	
0.1320	-8.46835	1.09271	0	
0.1327	-6.65985	0.178401	0	
0.1333	-7.26268	1.40491	0	
0.1340	-8.78412	2.00701	0	
0.1347	-7.54975	2.00701	0	
0.1353	-5.74125	1.71711	0	
0.1360	-6.02831	1.09271	0	
0.1367	-3.90405	1.40491	0	
0.1373	-1.14825	0.802805	0	
0.1380	-2.06685	-0.111501	0	
0.1387	-4.82265	0.802805	0	
0.1393	-4.82265	1.71711	0	
0.1400	-3.90405	0.490603	0	
0.1407	-2.98545	-0.735905	0	
0.1413	-2.06685	-1.94011	0	
0.1420	-2.06685	-1.65021	0	
0.1427	-4.21982	2.00701	0	
0.1433	-4.21982	2.00701	0	
0.1440	0.373181	-1.94011	0	
0.1447	2.49744	-1.65021	0	
0.1453	-0.545419	-0.111501	0	
0.1460	-2.06685	-2.56452	0	
0.1467	1.29178	-1.94011	0	
0.1473	2.49744	0.802805	0	
0.1480	0.373181	-0.735905	0	
0.1487	-1.14825	-1.33801	0	
0.1493	-1.14825	-1.02581	0	
0.1500	-1.14825	-2.85442	0	
0.1507	1.29178	-2.25232	0	
0.1513	2.49744	0.802805	0	
0.1520	0.68895	0.802805	0	
0.1527	-1.75108	-1.02581	0	
0.1533	-2.06685	-0.111501	0	
0.1540	-1.46402	2.63142	0	
0.1547	-0.22965	3.85793	0	
0.1553	0.68895	1.40491	0	
0.1560	0.0574125	-1.94011	0	
0.1567	0.68895	-0.735905	0	
0.1573	1.29178	1.71711	0	
0.1580	0.0574125	1.40491	0	
0.1587	-0.22965	2.94362	0	
0.1593	0.0574125	3.85793	0	
0.1600	-1.46402	1.09271	0	
0.1607	-2.06685	0.802805	0	
0.1613	-0.22965	2.00701	0	
0.1620	0.68895	0.802805	0	
0.1627	1.29178	0.802805	0	
0.1633	4.04758	2.00701	0	
0.1640	3.41605	0.178401	0	
0.1647	1.57884	-1.02581	0	
0.1653	4.04758	-0.111501	0	
0.1660	8.61188	0.490603	0	
0.1667	8.00905	-0.111501	0	
0.1673	5.25325	-0.111501	0	
0.1680	4.04758	-0.423703	0	
0.1687	1.57884	-0.111501	0	
0.1693	-1.14825	1.40491	0	
0.1700	0.976013	2.00701	0	
0.1707	4.33465	0.802805	0	
0.1713	0.976013	-1.02581	0	
0.1720	-3.90405	-0.111501	0	
0.1727	-1.14825	0.802805	0	
0.1733	2.49744	-0.423703	0	
0.1740	0.373181	0.802805	0	
0.1747	-3.90405	3.54572	0	
0.1753	-2.98545	2.00701	0	
0.1760	-0.22965	1.40491	0	
0.1767	-0.861188	2.94362	0	
0.1773	-3.30122	1.09271	0	
0.1780	-3.30122	-1.02581	0	
0.1787	-1.75108	0.802805	0	
0.1793	-1.46402	0.802805	0	
0.1800	-0.545419	-0.735905	0	
0.1807	2.49744	1.40491	0	
0.1813	4.04758	1.71711	0	
0.1820	5.25325	-0.423703	0	
0.1827	8.61188	-0.111501	0	
0.1833	10.7361	-1.65021	0	
0.1840	9.21471	-4.08093	0	
0.1847	7.69328	-3.16662	0	
0.1853	7.09045	-1.94011	0	
0.1860	6.48762	-4.08093	0	
0.1867	6.17185	-3.79103	0	
0.1873	6.17185	-1.33801	0	
0.1880	5.56901	-1.33801	0	
0.1887	4.93748	-2.85442	0	
0.1893	4.33465	-2.85442	0	
0.1900	3.12898	-2.56452	0	
0.1907	2.49744	-2.85442	0	
0.1913	5.56901	-2.25232	0	
0.1920	8.00905	0.178401	0	
0.1927	4.93748	1.09271	0	
0.1933	1.89461	-0.423703	0	
0.1940	2.21038	-1.02581	0	
0.1947	2.21038	-0.111501	0	
0.1953	0.68895	-0.111501	0	
0.1960	0.68895	-2.25232	0	
0.1967	3.41605	-2.85442	0	
0.1973	4.65041	-1.02581	0	
0.1980	4.65041	0.802805	0	
0.1987	4.93748	0.802805	0	
0.1993	4.33465	0.490603	0	
0.2000	4.33465	-0.111501	0	
0.2007	6.17185	-2.85442	0	
0.2013	6.17185	-3.47882	0	
0.2020	4.33465	-0.735905	0	
0.2027	5.25325	-1.02581	0	
0.2033	7.69328	-2.25232	0	
0.2040	6.17185	-0.111501	0	
0.2047	4.33465	-0.111501	0	
0.2053	3.73181	-2.56452	0	
0.2060	2.49744	-1.02581	0	
0.2067	2.49744	1.09271	0	
0.2073	1.89461	-1.33801	0	
0.2080	-0.545419	-2.85442	0	
0.2087	-1.46402	-1.94011	0	
0.2093	-1.75108	-1.94011	0	
0.2100	-4.50688	-0.735905	0	
0.2107	-5.42548	0.802805	0	
0.2113	-3.30122	-0.111501	0	
0.2120	-2.98545	-1.02581	0	
0.2127	-1.14825	-1.02581	0	
0.2133	2.49744	-1.65021	0	
0.2140	0.976013	-0.735905	0	
0.2147	-1.75108	-0.111501	0	
0.2153	2.49744	-2.85442	0	
0.2160	6.17185	-3.79103	0	
0.2167	5.56901	-2.56452	0	
0.2173	6.17185	-1.33801	0	
0.2180	8.61188	-0.111501	0	
0.2187	8.29611	-1.33801	0	
0.2193	7.09045	-6.22174	0	
0.2200	7.37751	-6.53394	0	
0.2207	8.00905	-3.79103	0	
0.2213	8.92765	-3.79103	0	
0.2220	8.00905	-4.08093	0	
0.2227	5.25325	-1.02581	0	
0.2233	4.65041	-1.02581	0	
0.2240	6.48762	-4.70533	0	
0.2247	7.09045	-4.70533	0	
0.2253	5.56901	-1.65021	0	
0.2260	3.73181	-1.02581	0	
0.2267	2.21038	-1.94011	0	
0.2273	1.57884	-1.65021	0	
0.2280	3.41605	-1.65021	0	
0.2287	2.81321	-2.56452	0	
0.2293	-2.66968	-2.85442	0	
0.2300	-4.82265	-2.85442	0	
0.2307	-1.46402	-3.16662	0	
0.2313	-1.46402	-1.02581	0	
0.2320	-4.82265	0.490603	0	
0.2327	-4.82265	-1.02581	0	
0.2333	-3.58828	-0.423703	0	
0.2340	-5.10971	2.31922	0	
0.2347	-5.42548	2.00701	0	
0.2353	-2.38262	-1.02581	0	
0.2360	-1.75108	-1.94011	0	
0.2367	-2.98545	0.178401	0	
0.2373	-3.58828	1.40491	0	
0.2380	-2.98545	-0.423703	0	
0.2387	-1.14825	-0.735905	0	
0.2393	0.68895	2.31922	0	
0.2400	1.57884	2.63142	0	
0.2407	2.49744	-0.111501	0	
0.2413	4.33465	-1.33801	0	
0.2420	3.73181	-1.02581	0	
0.2427	0.68895	-0.423703	0	
0.2433	-2.38262	0.802805	0	
0.2440	-2.06685	1.71711	0	
0.2447	0.373181	0.802805	0	
0.2453	-0.22965	-1.94011	0	
0.2460	-4.21982	-1.94011	0	
0.2467	-5.74125	0.490603	0	
0.2473	-2.98545	0.178401	0	
0.2480	-2.66968	-1.33801	0	
0.2487	-2.66968	-1.65021	0	
0.2493	-1.14825	-1.94011	0	
0.2500	-2.38262	-1.33801	0	
0.2507	-5.42548	1.09271	0	
0.2513	-5.74125	1.71711	0	
0.2520	-5.42548	-0.111501	0	
0.2527	-5.42548	0.802805	0	
0.2533	-4.21982	1.71711	0	
0.2540	-5.42548	-0.111501	0	
0.2547	-6.02831	-0.111501	0	
0.2553	-2.98545	1.71711	0	
0.2560	-4.21982	1.09271	0	
0.2567	-7.54975	-0.111501	0	
0.2573	-4.82265	-0.111501	0	
0.2580	-2.06685	1.09271	0	
0.2587	-5.10971	3.54572	0	
0.2593	-6.65985	4.77223	0	
0.2600	-4.82265	3.23352	0	
0.2607	-3.90405	0.178401	0	
0.2613	-3.90405	-1.94011	0	
0.2620	-4.82265	-1.02581	0	
0.2627	-6.02831	0.802805	0	
0.2633	-4.21982	-0.423703	0	
0.2640	-2.66968	-2.85442	0	
0.2647	-3.58828	-3.47882	0	
0.2653	-2.66968	-1.94011	0	
0.2660	-0.22965	-0.423703	0	
0.2667	0.373181	-0.111501	0	
0.2673	0.976013	-1.02581	0	
0.2680	1.57884	-1.94011	0	
0.2687	-0.545419	-0.111501	0	
0.2693	-1.75108	0.802805	0	
0.2700	1.29178	-0.735905	0	
0.2707	0.68895	0.490603	0	
0.2713	-3.90405	4.46003	0	
0.2720	-6.65985	3.54572	0	
0.2727	-7.26268	-0.423703	0	
0.2733	-7.26268	-0.735905	0	
0.2740	-6.94692	2.63142	0	
0.2747	-8.46835	3.54572	0	
0.2753	-9.38695	1.71711	0	
0.2760	-6.65985	0.490603	0	
0.2767	-4.21982	1.71711	0	
0.2773	-4.82265	1.40491	0	
0.2780	-3.90405	-2.25232	0	
0.2787	-2.98545	-2.56452	0	
0.2793	-2.98545	2.63142	0	
0.2800	-3.58828	2.00701	0	
0.2807	-5.42548	-3.16662	0	
0.2813	-6.94692	-2.56452	0	
0.2820	-3.90405	0.802805	0	
0.2827	0.68895	-1.02581	0	
0.2833	0.0574125	-3.16662	0	
0.2840	-1.75108	-3.79103	0	
0.2847	-1.14825	-6.22174	0	
0.2853	0.68895	-5.61964	0	
0.2860	1.57884	-2.85442	0	
0.2867	1.29178	-4.70533	0	
0.2873	0.976013	-5.90954	0	
0.2880	1.29178	-1.94011	0	
0.2887	0.373181	-1.02581	0	
0.2893	-0.22965	-3.47882	0	
0.2900	1.57884	0.178401	0	
0.2907	1.89461	6.28864	0	
0.2913	-0.861188	6.60084	0	
0.2920	-2.06685	4.46003	0	
0.2927	-2.98545	3.54572	0	
0.2933	-4.50688	2.31922	0	
0.2940	-2.06685	2.63142	0	
0.2947	0.68895	4.14783	0	
0.2953	-1.14825	3.54572	0	
0.2960	-2.98545	3.85793	0	
0.2967	-2.38262	5.06213	0	
0.2973	-2.38262	3.23352	0	
0.2980	-2.06685	1.71711	0	
0.2987	-1.14825	4.14783	0	
0.2993	-2.06685	4.46003	0	
0.3000	-2.38262	2.63142	0	
0.3007	-2.66968	4.14783	0	
0.3013	-3.90405	4.14783	0	
0.3020	-2.98545	-1.33801	0	
0.3027	-2.06685	-4.08093	0	
0.3033	-4.82265	-0.423703	0	
0.3040	-5.74125	1.40491	0	
0.3047	-2.98545	-1.65021	0	
0.3053	-2.06685	-2.56452	0	
0.3060	-3.90405	-1.02581	0	
0.3067	-4.82265	-0.111501	0	
0.3073	-4.82265	0.490603	0	
0.3080	-3.58828	0.802805	0	
0.3087	-2.98545	1.09271	0	
0.3093	-4.82265	0.802805	0	
0.3100	-4.50688	-0.111501	0	
0.3107	-2.06685	0.178401	0	
0.3113	-3.30122	2.63142	0	
0.3120	-5.74125	3.54572	0	
0.3127	-3.90405	2.31922	0	
0.3133	-1.14825	-0.111501	0	
0.3140	-0.861188	-1.02581	0	
0.3147	-0.545419	1.09271	0	
0.3153	-0.22965	4.46003	0	
0.3160	-0.22965	2.94362	0	
0.3167	1.57884	-0.111501	0	
0.3173	5.56901	-0.735905	0	
0.3180	7.09045	-0.423703	0	
0.3187	5.85608	-0.111501	0	
0.3193	7.09045	0.178401	0	
0.3200	8.61188	0.178401	0	
0.3207	7.09045	1.09271	0	
0.3213	6.17185	0.802805	0	
0.3220	7.09045	-2.85442	0	
0.3227	6.48762	-4.08093	0	
0.3233	5.25325	-1.02581	0	
0.3240	5.85608	-0.111501	0	
0.3247	4.93748	-1.33801	0	
0.3253	3.41605	-1.02581	0	
0.3260	4.04758	-0.111501	0	
0.3267	3.41605	-0.735905	0	
0.3273	0.68895	-0.735905	0	
0.3280	-1.14825	-1.02581	0	
0.3287	-1.75108	-3.79103	0	
0.3293	-2.66968	-3.79103	0	
0.3300	-1.75108	-0.111501	0	
0.3307	-1.14825	2.00701	0	
0.3313	-2.66968	2.00701	0	
0.3320	-1.46402	1.71711	0	
0.3327	1.29178	2.00701	0	
0.3333	-0.545419	1.71711	0	
0.3340	-2.98545	-0.111501	0	
0.3347	-0.545419	-1.94011	0	
0.3353	0.373181	-0.423703	0	
0.3360	-1.14825	1.71711	0	
0.3367	0.0574125	0.490603	0	
0.3373	1.89461	-0.735905	0	
0.3380	2.49744	-0.111501	0	
0.3387	4.33465	-0.735905	0	
0.3393	5.85608	-1.02581	0	
0.3400	4.93748	-0.111501	0	
0.3407	4.33465	-1.94011	0	
0.3413	6.48762	-4.70533	0	
0.3420	9.84625	-3.79103	0	
0.3427	11.0519	-1.94011	0	
0.3433	8.00905	-3.79103	0	
0.3440	6.17185	-5.30744	0	
0.3447	7.09045	-4.08093	0	
0.3453	4.93748	-2.56452	0	
0.3460	1.57884	-1.94011	0	
0.3467	1.89461	-2.85442	0	
0.3473	2.49744	-2.25232	0	
0.3480	0.976013	-1.02581	0	
0.3487	1.57884	-2.85442	0	
0.3493	3.12898	-4.39313	0	
0.3500	4.33465	-2.25232	0	
0.3507	6.48762	-1.33801	0	
0.3513	8.29611	-3.79103	0	
0.3520	5.85608	-3.47882	0	
0.3527	1.57884	-1.33801	0	
0.3533	0.0574125	-0.423703	0	
0.3540	1.57884	-0.111501	0	
0.3547	0.0574125	-0.423703	0	
0.3553	-4.21982	-1.33801	0	
0.3560	-3.30122	-1.02581	0	
0.3567	-0.545419	0.178401	0	
0.3573	-2.98545	-1.65021	0	
0.3580	-4.50688	-2.85442	0	
0.3587	-2.38262	-0.111501	0	
0.3593	-2.98545	1.71711	0	
0.3600	-4.50688	-0.423703	0	
0.3607	-1.75108	-1.94011	0	
0.3613	-0.22965	-0.735905	0	
0.3620	-2.06685	-0.111501	0	
0.3627	-0.861188	-0.735905	0	
0.3633	-0.22965	-1.02581	0	
0.3640	-3.90405	-1.94011	0	
0.3647	-4.82265	-2.25232	0	
0.3653	0.0574125	-1.65021	0	
0.3660	2.49744	-2.25232	0	
0.3667	1.57884	-3.47882	0	
0.3673	-0.22965	-2.56452	0	
0.3680	-1.14825	-1.02581	0	
0.3687	-2.38262	-1.02581	0	
0.3693	-2.66968	-1.94011	0	
0.3700	-0.22965	-1.65021	0	
0.3707	0.68895	0.178401	0	
0.3713	-3.90405	0.802805	0	
0.3720	-7.54975	-1.02581	0	
0.3727	-5.74125	-0.423703	0	
0.3733	-4.82265	2.63142	0	
0.3740	-5.74125	2.31922	0	
0.3747	-4.50688	-0.111501	0	
0.3753	-5.42548	0.178401	0	
0.3760	-6.65985	1.71711	0	
0.3767	-3.30122	0.802805	0	
0.3773	-1.75108	0.178401	0	
0.3780	-4.50688	1.40491	0	
0.3787	-3.90405	2.00701	0	
0.3793	-2.38262	1.09271	0	
0.3800	-4.82265	1.40491	0	
0.3807	-3.90405	1.09271	0	
0.3813	-0.22965	-1.65021	0	
0.3820	-1.14825	-3.16662	0	
0.3827	-2.06685	-1.33801	0	
0.3833	1.57884	-0.111501	0	
0.3840	1.57884	-1.02581	0	
0.3847	-2.06685	-1.65021	0	
0.3853	-1.75108	-1.65021	0	
0.3860	0.68895	0.178401	0	
0.3867	-0.545419	2.31922	0	
0.3873	-5.10971	2.63142	0	
0.3880	-7.26268	2.63142	0	
0.3887	-6.02831	2.63142	0	
0.3893	-4.50688	1.71711	0	
0.3900	-4.82265	2.63142	0	
0.3907	-4.82265	3.54572	0	
0.3913	-2.98545	2.63142	0	
0.3920	-2.06685	2.00701	0	
0.3927	-2.98545	3.85793	0	
0.3933	-4.50688	4.46003	0	
0.3940	-5.74125	2.94362	0	
0.3947	-6.65985	2.31922	0	
0.3953	-5.10971	2.63142	0	
0.3960	-2.06685	0.802805	0	
0.3967	-1.14825	-0.423703	0	
0.3973	-0.22965	1.09271	0	
0.3980	0.373181	2.00701	0	
0.3987	-0.545419	-0.111501	0	
0.3993	-0.861188	-0.423703	0	
0.4000	1.29178	1.09271	0	
0.4007	3.41605	-0.111501	0	
0.4013	6.17185	-1.02581	0	
0.4020	7.37751	-0.111501	0	
0.4027	5.25325	-0.111501	0	
0.4033	3.41605	-0.423703	0	
0.4040	3.73181	-0.111501	0	
0.4047	2.49744	-1.02581	0	
0.4053	1.57884	-1.94011	0	
0.4060	3.73181	-0.423703	0	
0.4067	4.33465	0.802805	0	
0.4073	0.68895	0.178401	0	
0.4080	-0.861188	-1.33801	0	
0.4087	0.976013	-1.02581	0	
0.4093	0.976013	-0.111501	0	
0.4100	-0.22965	-0.423703	0	
0.4107	0.0574125	-0.111501	0	
0.4113	-0.545419	2.00701	0	
0.4120	-2.66968	2.63142	0	
0.4127	-2.38262	1.40491	0	
0.4133	-2.06685	1.71711	0	
0.4140	-3.58828	1.71711	0	
0.4147	-4.50688	0.178401	0	
0.4153	-3.90405	-0.735905	0	
0.4160	-4.82265	0.490603	0	
0.4167	-4.50688	2.31922	0	
0.4173	-0.22965	1.40491	0	
0.4180	2.21038	-0.423703	0	
0.4187	2.49744	0.490603	0	
0.4193	5.56901	1.71711	0	
0.4200	7.09045	-0.111501	0	
0.4207	4.33465	-1.94011	0	
0.4213	3.41605	-1.65021	0	
0.4220	6.17185	-1.94011	0	
0.4227	7.09045	-1.65021	0	
0.4233	5.25325	0.802805	0	
0.4240	6.17185	1.09271	0	
0.4247	7.69328	-1.02581	0	
0.4253	6.17185	-1.33801	0	
0.4260	5.85608	-1.65021	0	
0.4267	8.92765	-2.56452	0	
0.4273	9.21471	-1.65021	0	
0.4280	7.37751	-0.735905	0	
0.4287	7.69328	-1.94011	0	
0.4293	6.17185	-1.94011	0	
0.4300	2.49744	-0.111501	0	
0.4307	1.57884	0.490603	0	
0.4313	3.12898	0.802805	0	
0.4320	2.49744	2.63142	0	
0.4327	0.68895	2.94362	0	
0.4333	-0.22965	1.71711	0	
0.4340	0.373181	-1.02581	0	
0.4347	0.68895	-1.33801	0	
0.4353	-1.75108	1.71711	0	
0.4360	-3.90405	3.54572	0	
0.4367	-1.14825	1.71711	0	
0.4373	2.21038	1.09271	0	
0.4380	0.976013	0.802805	0	
0.4387	0.0574125	-2.56452	0	
0.4393	0.0574125	-3.79103	0	
0.4400	-2.06685	-1.02581	0	
0.4407	-1.14825	-0.111501	0	
0.4413	1.57884	-1.02581	0	
0.4420	1.89461	-0.423703	0	
0.4427	0.68895	-1.94011	0	
0.4433	-0.22965	-2.85442	0	
0.4440	0.0574125	-0.735905	0	
0.4447	2.21038	0.490603	0	
0.4453	3.41605	-1.65021	0	
0.4460	2.49744	-2.85442	0	
0.4467	4.04758	-2.56452	0	
0.4473	6.48762	-3.16662	0	
0.4480	6.17185	-3.16662	0	
0.4487	5.25325	-1.94011	0	
0.4493	5.25325	-1.94011	0	
0.4500	4.33465	-3.16662	0	
0.4507	4.04758	-1.94011	0	
0.4513	2.49744	-1.02581	0	
0.4520	0.373181	-2.56452	0	
0.4527	0.976013	-1.33801	0	
0.4533	2.49744	1.09271	0	
0.4540	1.57884	0.490603	0	
0.4547	1.29178	-1.02581	0	
0.4553	0.976013	-1.02581	0	
0.4560	0.373181	-1.02581	0	
0.4567	0.68895	-0.111501	0	
0.4573	-0.22965	1.40491	0	
0.4580	-2.06685	-1.02581	0	
0.4587	-0.861188	-3.79103	0	
0.4593	0.373181	-1.65021	0	
0.4600	-2.06685	2.00701	0	
0.4607	-2.06685	0.802805	0	
0.4613	1.29178	-1.94011	0	
0.4620	0.976013	-3.16662	0	
0.4627	0.0574125	-4.39313	0	
0.4633	0.68895	-4.39313	0	
0.4640	-1.14825	-2.56452	0	
0.4647	-4.21982	-1.02581	0	
0.4653	-3.58828	-0.735905	0	
0.4660	-2.98545	-0.111501	0	
0.4667	-3.90405	1.09271	0	
0.4673	-4.82265	0.490603	0	
0.4680	-5.74125	-1.33801	0	
0.4687	-5.10971	-0.735905	0	
0.4693	-2.98545	1.40491	0	
0.4700	-2.06685	0.802805	0	
0.4707	-3.90405	0.802805	0	
0.4713	-5.74125	2.63142	0	
0.4720	-7.54975	3.23352	0	
0.4727	-7.86552	1.71711	0	
0.4733	-4.50688	1.40491	0	
0.4740	-2.66968	2.31922	0	
0.4747	-5.42548	2.31922	0	
0.4753	-5.74125	2.63142	0	
0.4760	-2.06685	2.00701	0	
0.4767	-0.861188	0.802805	0	
0.4773	-1.14825	0.802805	0	
0.4780	-1.14825	2.63142	0	
0.4787	-2.98545	1.40491	0	
0.4793	-2.98545	-1.02581	0	
0.4800	-1.14825	-0.735905	0	
0.4807	-1.75108	-0.111501	0	
0.4813	-2.38262	-1.02581	0	
0.4820	-0.22965	-1.65021	0	
0.4827	0.373181	-1.02581	0	
0.4833	0.0574125	-1.33801	0	
0.4840	0.373181	-1.33801	0	
0.4847	-1.75108	-1.65021	0	
0.4853	-1.75108	-2.85442	0	
0.4860	0.976013	-2.85442	0	
0.4867	-0.22965	-1.65021	0	
0.4873	-2.06685	-0.735905	0	
0.4880	0.68895	0.178401	0	
0.4887	1.29178	-0.735905	0	
0.4893	1.29178	-2.85442	0	
0.4900	3.12898	-1.65021	0	
0.4907	3.41605	0.802805	0	
0.4913	2.21038	-0.735905	0	
0.4920	1.89461	-1.94011	0	
0.4927	0.68895	-0.111501	0	
0.4933	-0.861188	-0.111501	0	
0.4940	-0.22965	0.178401	0	
0.4947	-1.14825	2.94362	0	
0.4953	-1.46402	3.85793	0	
0.4960	-2.06685	1.40491	0	
0.4967	-4.21982	-0.111501	0	
0.4973	-3.90405	0.802805	0	
0.4980	-2.98545	0.490603	0	
0.4987	-5.74125	-0.735905	0	
0.4993	-6.02831	1.71711	0	
0.5000	-2.06685	2.63142	0	
0.5007	-2.06685	-1.33801	0	
0.5013	-3.90405	-3.79103	0	
0.5020	-1.75108	-1.02581	0	
0.5027	-1.14825	1.71711	0	
0.5033	-3.58828	2.94362	0	
0.5040	-3.58828	2.63142	0	
0.5047	-2.06685	0.178401	0	
0.5053	-2.38262	-1.02581	0	
0.5060	-2.98545	0.178401	0	
0.5067	-1.14825	-0.111501	0	
0.5073	0.0574125	-1.02581	0	
0.5080	-1.14825	-0.735905	0	
0.5087	-2.38262	-0.423703	0	
0.5093	-2.98545	0.802805	0	
0.5100	-3.90405	2.63142	0	
0.5107	-2.06685	1.71711	0	
0.5113	0.976013	1.71711	0	
0.5120	0.0574125	2.63142	0	
0.5127	-3.30122	0.802805	0	
0.5133	-3.30122	-0.111501	0	
0.5140	-1.14825	2.00701	0	
0.5147	0.0574125	0.802805	0	
0.5153	0.373181	-1.02581	0	
0.5160	0.68895	1.71711	0	
0.5167	0.68895	3.54572	0	
0.5173	0.976013	0.802805	0	
0.5180	1.29178	0.490603	0	
0.5187	1.57884	0.802805	0	
0.5193	0.373181	0.802805	0	
0.5200	-1.14825	1.09271	0	
0.5207	0.0574125	0.802805	0	
0.5213	2.81321	-1.94011	0	
0.5220	3.41605	-2.85442	0	
0.5227	2.49744	-1.33801	0	
0.5233	1.57884	-1.94011	0	
0.5240	0.373181	-2.85442	0	
0.5247	0.68895	-0.111501	0	
0.5253	2.21038	1.09271	0	
0.5260	2.21038	-0.735905	0	
0.5267	2.81321	-1.65021	0	
0.5273	4.04758	-0.111501	0	
0.5280	0.68895	0.802805	0	
0.5287	-2.06685	-1.02581	0	
0.5293	0.68895	-3.16662	0	
0.5300	3.12898	-2.85442	0	
0.5307	2.49744	2.31922	0	
0.5313	0.976013	5.37434	0	
0.5320	-2.06685	2.00701	0	
0.5327	-2.38262	-1.65021	0	
0.5333	0.68895	-1.02581	0	
0.5340	0.68895	-0.111501	0	
0.5347	0.68895	0.490603	0	
0.5353	4.33465	0.802805	0	
0.5360	6.17185	-1.02581	0	
0.5367	5.25325	-1.94011	0	
0.5373	5.25325	-0.735905	0	
0.5380	6.17185	-0.423703	0	
0.5387	7.37751	-1.02581	0	
0.5393	8.92765	-1.02581	0	
0.5400	7.09045	-1.65021	0	
0.5407	5.85608	-1.94011	0	
0.5413	7.69328	-1.65021	0	
0.5420	6.48762	-1.65021	0	
0.5427	2.81321	-1.94011	0	
0.5433	1.57884	-2.85442	0	
0.5440	1.57884	-3.79103	0	
0.5447	3.73181	-3.79103	0	
0.5453	6.17185	-1.94011	0	
0.5460	4.33465	-1.65021	0	
0.5467	0.68895	-3.16662	0	
0.5473	-1.46402	-2.56452	0	
0.5480	-2.38262	-0.423703	0	
0.5487	-0.22965	-2.56452	0	
0.5493	2.49744	-4.70533	0	
0.5500	-1.14825	-2.25232	0	
0.5507	-6.34408	-0.735905	0	
0.5513	-5.10971	-3.47882	0	
0.5520	-2.98545	-2.85442	0	
0.5527	-4.21982	2.63142	0	
0.5533	-4.50688	4.46003	0	
0.5540	-4.21982	0.802805	0	
0.5547	-5.74125	-0.111501	0	
0.5553	-5.74125	1.40491	0	
0.5560	-4.21982	1.71711	0	
0.5567	-5.42548	0.490603	0	
0.5573	-5.74125	-1.02581	0	
0.5580	-3.58828	-1.94011	0	
0.5587	-2.38262	-2.85442	0	
0.5593	-3.30122	-1.94011	0	
0.5600	-3.90405	-1.02581	0	
0.5607	-4.21982	-2.56452	0	
0.5613	-3.30122	-3.79103	0	
0.5620	-0.22965	-1.94011	0	
0.5627	0.976013	-1.33801	0	
0.5633	-1.14825	-3.79103	0	
0.5640	-0.861188	-4.08093	0	
0.5647	0.0574125	-2.25232	0	
0.5653	-2.38262	-1.94011	0	
0.5660	-3.30122	-2.85442	0	
0.5667	0.68895	-2.85442	0	
0.5673	2.49744	-1.65021	0	
0.5680	-0.22965	-1.02581	0	
0.5687	0.68895	-1.02581	0	
0.5693	2.81321	-1.33801	0	
0.5700	1.89461	-1.02581	0	
0.5707	0.68895	-0.423703	0	
0.5713	2.21038	-0.111501	0	
0.5720	2.49744	-1.33801	0	
0.5727	0.373181	-1.94011	0	
0.5733	0.373181	0.178401	0	
0.5740	2.49744	2.00701	0	
0.5747	2.49744	1.71711	0	
0.5753	0.68895	1.71711	0	
0.5760	-0.22965	2.63142	0	
0.5767	0.373181	1.09271	0	
0.5773	0.68895	-1.65021	0	
0.5780	0.68895	-0.735905	0	
0.5787	-0.22965	0.802805	0	
0.5793	-2.66968	1.09271	0	
0.5800	-2.06685	1.40491	0	
0.5807	0.68895	1.71711	0	
0.5813	-1.75108	0.802805	0	
0.5820	-4.50688	1.09271	0	
0.5827	-2.66968	0.802805	0	
0.5833	-2.06685	-0.735905	0	
0.5840	-3.90405	-0.423703	0	
0.5847	-3.30122	0.802805	0	
0.5853	-2.98545	-0.423703	0	
0.5860	-2.98545	-1.02581	0	
0.5867	-1.14825	0.802805	0	
0.5873	-2.06685	1.09271	0	
0.5880	-4.82265	-0.735905	0	
0.5887	-3.90405	-1.65021	0	
0.5893	-5.10971	0.490603	0	
0.5900	-8.46835	2.63142	0	
0.5907	-6.02831	2.63142	0	
0.5913	-5.42548	1.40491	0	
0.5920	-9.38695	0.490603	0	
0.5927	-9.09989	-0.735905	0	
0.5933	-6.34408	-1.02581	0	
0.5940	-7.26268	1.40491	0	
0.5947	-6.34408	2.94362	0	
0.5953	-4.21982	2.63142	0	
0.5960	-6.34408	4.14783	0	
0.5967	-7.54975	4.46003	0	
0.5973	-6.94692	0.802805	0	
0.5980	-6.02831	-0.111501	0	
0.5987	-3.30122	1.40491	0	
0.5993	-1.14825	-0.111501	0	
0.6000	-2.66968	-1.94011	0	
0.6007	-3.90405	0.490603	0	
0.6013	-3.30122	1.40491	0	
0.6020	-0.545419	-1.94011	0	
0.6027	3.73181	-3.47882	0	
0.6033	3.41605	-1.65021	0	
0.6040	1.29178	0.178401	0	
0.6047	4.33465	-0.111501	0	
0.6053	5.56901	-1.94011	0	
0.6060	0.976013	-1.94011	0	
0.6067	2.49744	-1.02581	0	
0.6073	6.48762	-0.735905	0	
0.6080	2.21038	-0.735905	0	
0.6087	-2.06685	0.802805	0	
0.6093	-0.545419	1.71711	0	
0.6100	-2.06685	2.00701	0	
0.6107	-2.66968	1.71711	0	
0.6113	-1.14825	1.71711	0	
0.6120	-3.90405	2.63142	0	
0.6127	-6.65985	2.63142	0	
0.6133	-2.38262	2.00701	0	
0.6140	1.57884	2.31922	0	
0.6147	0.68895	0.802805	0	
0.6153	0.373181	-1.02581	0	
0.6160	0.68895	0.490603	0	
0.6167	0.0574125	1.71711	0	
0.6173	0.68895	-1.02581	0	
0.6180	1.57884	-1.33801	0	
0.6187	0.68895	1.71711	0	
0.6193	-0.545419	0.802805	0	
0.6200	1.89461	-0.111501	0	
0.6207	4.33465	1.40491	0	
0.6213	4.33465	-0.111501	0	
0.6220	6.48762	-2.25232	0	
0.6227	8.29611	-0.735905	0	
0.6233	6.17185	0.178401	0	
0.6240	6.17185	-1.33801	0	
0.6247	7.69328	-3.16662	0	
0.6253	5.56901	-3.79103	0	
0.6260	5.25325	-2.85442	0	
0.6267	6.48762	-1.02581	0	
0.6273	1.57884	-1.33801	0	
0.6280	-2.06685	-1.65021	0	
0.6287	1.89461	-1.02581	0	
0.6293	3.73181	-1.02581	0	
0.6300	2.49744	-0.423703	0	
0.6307	1.57884	0.490603	0	
0.6313	-0.22965	-1.65021	0	
0.6320	-1.14825	-2.85442	0	
0.6327	0.68895	1.40491	0	
0.6333	-0.22965	4.46003	0	
0.6340	-3.58828	1.71711	0	
0.6347	-2.38262	-1.33801	0	
0.6353	-0.861188	-0.111501	0	
0.6360	-1.46402	0.802805	0	
0.6367	-1.14825	-1.65021	0	
0.6373	-0.861188	-1.94011	0	
0.6380	-2.38262	-0.735905	0	
0.6387	-2.98545	-1.33801	0	
0.6393	-2.38262	-0.111501	0	
0.6400	-2.98545	2.63142	0	
0.6407	-2.06685	0.802805	0	
0.6413	0.976013	-2.85442	0	
0.6420	3.12898	-1.94011	0	
0.6427	1.57884	-0.111501	0	
0.6433	-0.22965	-0.111501	0	
0.6440	0.68895	0.802805	0	
0.6447	1.57884	1.09271	0	
0.6453	2.49744	-0.111501	0	
0.6460	3.73181	-1.02581	0	
0.6467	3.41605	-1.02581	0	
0.6473	2.81321	-0.735905	0	
0.6480	5.85608	1.71711	0	
0.6487	7.37751	2.94362	0	
0.6493	4.65041	-0.735905	0	
0.6500	2.21038	-2.25232	0	
0.6507	2.21038	1.40491	0	
0.6513	1.89461	2.63142	0	
0.6520	0.0574125	0.802805	0	
0.6527	-2.98545	0.802805	0	
0.6533	-3.58828	0.802805	0	
0.6540	-0.545419	-0.111501	0	
0.6547	1.57884	1.09271	0	
0.6553	0.0574125	2.31922	0	
0.6560	-2.06685	-0.111501	0	
0.6567	-1.46402	-2.25232	0	
0.6573	0.68895	-1.65021	0	
0.6580	1.57884	1.09271	0	
0.6587	0.68895	1.71711	0	
0.6593	0.68895	-0.735905	0	
0.6600	2.81321	-2.25232	0	
0.6607	3.12898	-0.735905	0	
0.6613	1.89461	-0.111501	0	
0.6620	3.41605	-1.65021	0	
0.6627	7.37751	-1.94011	0	
0.6633	6.17185	-1.02581	0	
0.6640	2.49744	-1.33801	0	
0.6647	2.21038	-2.56452	0	
0.6653	4.04758	-1.65021	0	
0.6660	4.33465	0.802805	0	
0.6667	2.49744	0.490603	0	
0.6673	1.89461	-1.94011	0	
0.6680	2.49744	-2.25232	0	
0.6687	2.49744	-0.111501	0	
0.6693	2.49744	-0.111501	0	
0.6700	1.57884	-1.02581	0	
0.6707	-0.861188	0.490603	0	
0.6713	-2.38262	0.490603	0	
0.6720	-1.75108	-0.423703	0	
0.6727	-1.75108	1.40491	0	
0.6733	-2.98545	2.63142	0	
0.6740	-2.98545	2.63142	0	
0.6747	-1.75108	3.23352	0	
0.6753	-1.14825	1.71711	0	
0.6760	-2.66968	-1.02581	0	
0.6767	-4.50688	-0.423703	0	
0.6773	-4.50688	0.802805	0	
0.6780	-3.58828	-1.02581	0	
0.6787	-2.66968	0.178401	0	
0.6793	-1.14825	2.31922	0	
0.6800	-1.14825	1.71711	0	
0.6807	-1.75108	-0.423703	0	
0.6813	-1.75108	-2.25232	0	
0.6820	-2.06685	-2.85442	0	
0.6827	-0.22965	-1.33801	0	
0.6833	3.12898	-1.65021	0	
0.6840	1.89461	-3.79103	0	
0.6847	0.0574125	-3.79103	0	
0.6853	1.57884	-3.47882	0	
0.6860	-1.14825	-2.25232	0	
0.6867	-4.82265	1.40491	0	
0.6873	-2.98545	2.63142	0	
0.6880	-2.06685	1.71711	0	
0.6887	-4.82265	2.00701	0	
0.6893	-4.50688	0.178401	0	
0.6900	-4.21982	-3.16662	0	
0.6907	-7.86552	-0.735905	0	
0.6913	-9.38695	3.54572	0	
0.6920	-8.18128	2.63142	0	
0.6927	-8.18128	1.71711	0	
0.6933	-8.46835	3.23352	0	
0.6940	-7.86552	1.71711	0	
0.6947	-7.26268	-0.111501	0	
0.6953	-6.65985	1.09271	0	
0.6960	-5.10971	1.71711	0	
0.6967	-1.75108	0.802805	0	
0.6973	0.373181	1.40491	0	
0.6980	1.57884	1.71711	0	
0.6987	6.17185	0.802805	0	
0.6993	7.69328	-0.423703	0	
0.7000	2.49744	-1.33801	0	
0.7007	0.0574125	-1.33801	0	
0.7013	1.57884	-1.33801	0	
0.7020	0.976013	-2.25232	0	
0.7027	-0.861188	-0.735905	0	
0.7033	0.0574125	2.31922	0	
0.7040	1.57884	1.09271	0	
0.7047	0.976013	-2.85442	0	
0.7053	-2.38262	-2.85442	0	
0.7060	-5.74125	-1.65021	0	
0.7067	-4.82265	-2.56452	0	
0.7073	-4.21982	-2.56452	0	
0.7080	-6.65985	-1.33801	0	
0.7087	-7.26268	-1.65021	0	
0.7093	-3.90405	-1.94011	0	
0.7100	-1.75108	-0.735905	0	
0.7107	-2.06685	-1.02581	0	
0.7113	-2.06685	-1.94011	0	
0.7120	-0.22965	-1.02581	0	
0.7127	2.49744	-1.02581	0	
0.7133	4.65041	-1.94011	0	
0.7140	6.77468	-1.33801	0	
0.7147	7.09045	-1.02581	0	
0.7153	3.73181	-2.85442	0	
0.7160	2.49744	-1.94011	0	
0.7167	5.56901	-0.111501	0	
0.7173	6.17185	-1.94011	0	
0.7180	3.73181	-4.70533	0	
0.7187	4.04758	-3.79103	0	
0.7193	4.65041	-1.33801	0	
0.7200	3.73181	-0.111501	0	
0.7207	4.04758	-1.02581	0	
0.7213	4.33465	-2.85442	0	
0.7220	4.04758	-1.65021	0	
0.7227	4.33465	0.178401	0	
0.7233	2.81321	-2.85442	0	
0.7240	1.57884	-4.08093	0	
0.7247	3.12898	-2.25232	0	
0.7253	4.33465	-1.94011	0	
0.7260	2.21038	-1.02581	0	
0.7267	1.29178	0.802805	0	
0.7273	0.976013	-0.111501	0	
0.7280	-2.06685	-1.33801	0	
0.7287	-2.06685	0.178401	0	
0.7293	1.57884	1.09271	0	
0.7300	0.68895	1.09271	0	
0.7307	-3.90405	2.94362	0	
0.7313	-3.90405	2.31922	0	
0.7320	-2.38262	0.178401	0	
0.7327	-3.90405	2.31922	0	
0.7333	-4.82265	4.14783	0	
0.7340	-4.21982	2.63142	0	
0.7347	-5.74125	4.46003	0	
0.7353	-7.86552	7.82735	0	
0.7360	-7.54975	6.28864	0	
0.7367	-6.65985	2.63142	0	
0.7373	-5.10971	0.802805	0	
0.7380	-3.90405	2.63142	0	
0.7387	-4.50688	3.85793	0	
0.7393	-6.02831	1.40491	0	
0.7400	-6.02831	-1.94011	0	
0.7407	-3.30122	-0.111501	0	
0.7413	1.57884	0.178401	0	
0.7420	4.93748	-2.56452	0	
0.7427	5.56901	-1.02581	0	
0.7433	5.25325	-0.111501	0	
0.7440	5.56901	-4.08093	0	
0.7447	6.17185	-5.61964	0	
0.7453	5.25325	-3.79103	0	
0.7460	3.12898	-4.99523	0	
0.7467	2.21038	-3.79103	0	
0.7473	1.89461	0.490603	0	
0.7480	0.976013	-1.33801	0	
0.7487	-1.14825	-4.08093	0	
0.7493	-2.66968	-2.25232	0	
0.7500	-1.75108	-1.02581	0	
0.7507	0.68895	-1.02581	0	
0.7513	1.29178	0.802805	0	
0.7520	0.68895	1.71711	0	
0.7527	-0.22965	2.94362	0	
0.7533	-2.06685	2.63142	0	
0.7540	-0.545419	-0.735905	0	
0.7547	1.57884	-0.111501	0	
0.7553	-1.14825	4.14783	0	
0.7560	-2.66968	4.46003	0	
0.7567	1.57884	2.00701	0	
0.7573	3.12898	1.09271	0	
0.7580	0.373181	0.178401	0	
0.7587	-0.861188	0.802805	0	
0.7593	-1.14825	2.63142	0	
0.7600	-1.75108	1.71711	0	
0.7607	-1.14825	-1.02581	0	
0.7613	0.68895	-1.02581	0	
0.7620	1.57884	-1.94011	0	
0.7627	1.89461	-4.39313	0	
0.7633	2.49744	-3.79103	0	
0.7640	1.29178	0.178401	0	
0.7647	-0.22965	1.40491	0	
0.7653	0.373181	-1.94011	0	
0.7660	1.57884	-3.79103	0	
0.7667	-0.22965	-2.25232	0	
0.7673	-2.98545	-1.02581	0	
0.7680	-2.38262	-0.735905	0	
0.7687	0.373181	2.00701	0	
0.7693	0.976013	2.94362	0	
0.7700	0.373181	-0.111501	0	
0.7707	0.0574125	-1.02581	0	
0.7713	0.373181	0.802805	0	
0.7720	-0.545419	1.40491	0	
0.7727	-2.38262	2.00701	0	
0.7733	-2.06685	2.94362	0	
0.7740	-0.22965	1.40491	0	
0.7747	0.0574125	-0.111501	0	
0.7753	1.89461	1.09271	0	
0.7760	4.04758	1.71711	0	
0.7767	0.68895	-0.111501	0	
0.7773	-3.30122	-1.02581	0	
0.7780	0.373181	-0.111501	0	
0.7787	3.41605	-0.111501	0	
0.7793	0.0574125	-1.02581	0	
0.7800	-2.06685	-0.111501	0	
0.7807	-0.545419	0.802805	0	
0.7813	-1.46402	-0.735905	0	
0.7820	-2.38262	-0.111501	0	
0.7827	-2.06685	2.63142	0	
0.7833	-2.38262	1.40491	0	
0.7840	-2.98545	-2.56452	0	
0.7847	-3.90405	-2.85442	0	
0.7853	-5.74125	-0.735905	0	
0.7860	-5.10971	1.09271	0	
0.7867	-3.90405	0.802805	0	
0.7873	-6.34408	-1.02581	0	
0.7880	-7.54975	-0.423703	0	
0.7887	-3.90405	2.63142	0	
0.7893	-1.14825	1.71711	0	
0.7900	-2.06685	-1.02581	0	
0.7907	-3.30122	-0.735905	0	
0.7913	-2.98545	0.490603	0	
0.7920	-2.66968	1.09271	0	
0.7927	-2.06685	2.31922	0	
0.7933	-1.46402	0.178401	0	
0.7940	-0.861188	-1.94011	0	
0.7947	0.0574125	-0.111501	0	
0.7953	1.57884	0.802805	0	
0.7960	2.21038	-0.735905	0	
0.7967	3.41605	0.178401	0	
0.7973	5.85608	1.71711	0	
0.7980	5.25325	0.178401	0	
0.7987	3.73181	-0.111501	0	
0.7993	5.25325	0.178401	0	
0.8000	7.37751	-1.33801	0	
0.8007	8.29611	-2.85442	0	
0.8013	8.29611	-2.85442	0	
0.8020	6.17185	-1.33801	0	
0.8027	5.85608	0.802805	0	
0.8033	10.7361	-0.423703	0	
0.8040	11.6547	-4.39313	0	
0.8047	5.25325	-4.70533	0	
0.8053	3.12898	-0.111501	0	
0.8060	5.56901	-0.735905	0	
0.8067	3.41605	-4.39313	0	
0.8073	-1.14825	-1.94011	0	
0.8080	-2.06685	2.63142	0	
0.8087	-0.22965	-0.111501	0	
0.8093	2.49744	-2.56452	0	
0.8100	3.12898	0.490603	0	
0.8107	-0.22965	1.40491	0	
0.8113	-3.58828	-1.02581	0	
0.8120	-4.82265	-1.02581	0	
0.8127	-5.10971	0.490603	0	
0.8133	-4.50688	0.490603	0	
0.8140	-3.90405	1.40491	0	
0.8147	-3.90405	2.00701	0	
0.8153	-2.98545	-0.423703	0	
0.8160	-3.90405	-1.65021	0	
0.8167	-5.74125	0.490603	0	
0.8173	-3.90405	0.802805	0	
0.8180	-2.38262	-0.111501	0	
0.8187	-4.21982	1.40491	0	
0.8193	-5.42548	2.00701	0	
0.8200	-4.82265	-1.65021	0	
0.8207	-4.50688	-1.94011	0	
0.8213	-2.98545	1.40491	0	
0.8220	-1.14825	0.490603	0	
0.8227	-1.14825	-2.56452	0	
0.8233	-0.22965	-0.111501	0	
0.8240	3.41605	1.40491	0	
0.8247	5.56901	-2.85442	0	
0.8253	4.04758	-4.99523	0	
0.8260	3.41605	-1.94011	0	
0.8267	4.04758	-0.111501	0	
0.8273	3.41605	-1.94011	0	
0.8280	2.81321	-2.56452	0	
0.8287	2.81321	-0.111501	0	
0.8293	1.89461	2.63142	0	
0.8300	1.29178	2.94362	0	
0.8307	0.68895	2.00701	0	
0.8313	-0.861188	1.71711	0	
0.8320	-2.38262	1.40491	0	
0.8327	-2.66968	0.802805	0	
0.8333	-3.90405	0.802805	0	
0.8340	-4.82265	0.490603	0	
0.8347	-2.98545	-0.111501	0	
0.8353	-2.06685	0.178401	0	
0.8360	-2.38262	-0.111501	0	
0.8367	0.68895	0.178401	0	
0.8373	4.04758	1.71711	0	
0.8380	4.04758	1.71711	0	
0.8387	2.49744	-0.423703	0	
0.8393	1.57884	-0.735905	0	
0.8400	-0.545419	-0.111501	0	
0.8407	0.0574125	-0.423703	0	
0.8413	4.33465	-1.02581	0	
0.8420	6.17185	-0.423703	0	
0.8427	2.81321	-0.111501	0	
0.8433	0.68895	-1.02581	0	
0.8440	0.373181	-2.25232	0	
0.8447	-2.38262	-2.25232	0	
0.8453	-2.98545	-1.94011	0	
0.8460	2.49744	-3.47882	0	
0.8467	5.25325	-2.85442	0	
0.8473	2.49744	-0.111501	0	
0.8480	-0.22965	0.178401	0	
0.8487	-1.75108	-2.56452	0	
0.8493	-2.66968	-2.85442	0	
0.8500	-0.545419	-0.423703	0	
0.8507	-0.545419	1.09271	0	
0.8513	-4.21982	1.71711	0	
0.8520	-3.90405	3.23352	0	
0.8527	-2.38262	3.54572	0	
0.8533	-4.50688	2.00701	0	
0.8540	-3.30122	2.00701	0	
0.8547	-1.14825	2.94362	0	
0.8553	-4.21982	0.802805	0	
0.8560	-5.42548	-0.735905	0	
0.8567	-2.38262	1.71711	0	
0.8573	-2.06685	3.23352	0	
0.8580	-1.75108	0.802805	0	
0.8587	0.0574125	-1.02581	0	
0.8593	-0.545419	-1.02581	0	
0.8600	-0.22965	-1.02581	0	
0.8607	2.49744	-0.735905	0	
0.8613	2.49744	-1.65021	0	
0.8620	1.57884	-3.47882	0	
0.8627	2.49744	-2.85442	0	
0.8633	1.89461	-1.02581	0	
0.8640	0.373181	-0.111501	0	
0.8647	-0.22965	-1.02581	0	
0.8653	-1.46402	-2.85442	0	
0.8660	-1.14825	-1.94011	0	
0.8667	0.976013	0.490603	0	
0.8673	1.57884	-0.735905	0	
0.8680	-0.22965	-3.79103	0	
0.8687	-0.545419	-1.65021	0	
0.8693	-0.861188	0.802805	0	
0.8700	-2.66968	-0.111501	0	
0.8707	-3.90405	0.490603	0	
0.8713	-3.90405	2.31922	0	
0.8720	-3.30122	0.802805	0	
0.8727	-2.66968	-1.02581	0	
0.8733	-1.14825	0.802805	0	
0.8740	-0.22965	2.31922	0	
0.8747	-1.46402	1.40491	0	
0.8753	-2.06685	0.802805	0	
0.8760	0.68895	-0.111501	0	
0.8767	0.68895	-1.94011	0	
0.8773	-2.98545	-2.56452	0	
0.8780	-2.98545	0.490603	0	
0.8787	0.373181	0.802805	0	
0.8793	0.0574125	-3.47882	0	
0.8800	-1.14825	-3.79103	0	
0.8807	0.0574125	0.802805	0	
0.8813	1.29178	0.490603	0	
0.8820	2.49744	-2.85442	0	
0.8827	4.33465	-1.33801	0	
0.8833	2.49744	1.71711	0	
0.8840	0.0574125	-0.111501	0	
0.8847	1.29178	-3.47882	0	
0.8853	2.49744	-2.85442	0	
0.8860	2.81321	-0.111501	0	
0.8867	3.41605	0.490603	0	
0.8873	1.57884	-1.33801	0	
0.8880	-0.545419	-0.111501	0	
0.8887	-0.22965	2.31922	0	
0.8893	-1.75108	-0.111501	0	
0.8900	-3.30122	-3.47882	0	
0.8907	-1.75108	-1.02581	0	
0.8913	-2.06685	1.09271	0	
0.8920	-6.34408	-0.111501	0	
0.8927	-6.65985	0.178401	0	
0.8933	-4.50688	2.63142	0	
0.8940	-4.82265	0.802805	0	
0.8947	-2.98545	-0.735905	0	
0.8953	-0.22965	2.31922	0	
0.8960	-1.46402	3.54572	0	
0.8967	-3.30122	0.490603	0	
0.8973	-1.75108	-1.65021	0	
0.8980	-0.545419	-0.735905	0	
0.8987	-0.22965	1.09271	0	
0.8993	1.57884	0.802805	0	
0.9000	2.81321	-1.33801	0	
0.9007	3.41605	-1.33801	0	
0.9013	2.81321	-0.111501	0	
0.9020	2.21038	-0.111501	0	
0.9027	2.49744	-0.111501	0	
0.9033	1.57884	-0.735905	0	
0.9040	-1.46402	-2.85442	0	
0.9047	-0.545419	-3.79103	0	
0.9053	3.12898	-0.735905	0	
0.9060	2.49744	0.490603	0	
0.9067	0.976013	-2.25232	0	
0.9073	2.81321	-3.79103	0	
0.9080	3.12898	-1.65021	0	
0.9087	-0.545419	0.802805	0	
0.9093	-3.58828	0.178401	0	
0.9100	-3.30122	-1.33801	0	
0.9107	-1.46402	-1.02581	0	
0.9113	-2.98545	2.00701	0	
0.9120	-7.26268	3.54572	0	
0.9127	-6.65985	0.178401	0	
0.9133	-4.50688	-1.65021	0	
0.9140	-6.65985	1.71711	0	
0.9147	-7.26268	3.23352	0	
0.9153	-5.42548	2.94362	0	
0.9160	-8.78412	5.06213	0	
0.9167	-12.1427	4.14783	0	
0.9173	-9.70272	-0.111501	0	
0.9180	-8.46835	-1.02581	0	
0.9187	-11.2241	0.802805	0	
0.9193	-11.5399	0.802805	0	
0.9200	-9.09989	1.40491	0	
0.9207	-6.94692	0.802805	0	
0.9213	-5.42548	-2.25232	0	
0.9220	-2.98545	-2.85442	0	
0.9227	-0.861188	-1.65021	0	
0.9233	0.0574125	-1.33801	0	
0.9240	0.976013	-1.33801	0	
0.9247	4.04758	-2.85442	0	
0.9253	6.77468	-5.30744	0	
0.9260	8.29611	-4.70533	0	
0.9267	10.7361	-3.79103	0	
0.9273	11.9705	-3.79103	0	
0.9280	10.1333	-3.47882	0	
0.9287	8.92765	-3.16662	0	
0.9293	11.0519	-4.39313	0	
0.9300	13.1762	-3.79103	0	
0.9307	11.6547	-1.65021	0	
0.9313	8.00905	-0.735905	0	
0.9320	6.17185	0.178401	0	
0.9327	5.25325	1.71711	0	
0.9333	1.57884	0.802805	0	
0.9340	-1.14825	-0.111501	0	
0.9347	-0.22965	0.802805	0	
0.9353	0.0574125	0.802805	0	
0.9360	0.373181	0.802805	0	
0.9367	2.81321	1.40491	0	
0.9373	2.81321	1.71711	0	
0.9380	2.21038	1.71711	0	
0.9387	4.65041	2.94362	0	
0.9393	5.25325	2.63142	0	
0.9400	2.49744	-0.111501	0	
0.9407	2.49744	-2.25232	0	
0.9413	4.33465	-1.02581	0	
0.9420	2.81321	0.802805	0	
0.9427	1.29178	-0.111501	0	
0.9433	0.68895	-0.423703	0	
0.9440	0.373181	1.40491	0	
0.9447	-2.06685	0.178401	0	
0.9453	-5.74125	-2.25232	0	
0.9460	-7.54975	-1.02581	0	
0.9467	-8.18128	0.178401	0	
0.9473	-9.38695	1.40491	0	
0.9480	-7.86552	2.00701	0	
0.9487	-5.74125	-1.33801	0	
0.9493	-7.26268	-2.25232	0	
0.9500	-6.94692	3.23352	0	
0.9507	-5.10971	4.77223	0	
0.9513	-6.94692	1.40491	0	
0.9520	-8.46835	1.71711	0	
0.9527	-5.42548	1.40491	0	
0.9533	-2.06685	-2.85442	0	
0.9540	0.68895	-2.56452	0	
0.9547	2.49744	-1.94011	0	
0.9553	3.12898	-2.56452	0	
0.9560	5.25325	0.178401	0	
0.9567	6.17185	1.71711	0	
0.9573	4.65041	-0.735905	0	
0.9580	4.33465	0.802805	0	
0.9587	4.65041	1.40491	0	
0.9593	4.33465	-2.25232	0	
0.9600	6.77468	-0.423703	0	
0.9607	8.61188	2.63142	0	
0.9613	5.85608	-1.94011	0	
0.9620	4.33465	-4.39313	0	
0.9627	5.56901	-0.735905	0	
0.9633	4.93748	1.71711	0	
0.9640	4.04758	-0.111501	0	
0.9647	3.12898	-2.85442	0	
0.9653	3.41605	-3.79103	0	
0.9660	6.17185	-3.47882	0	
0.9667	4.93748	-3.79103	0	
0.9673	-0.22965	-1.94011	0	
0.9680	-0.861188	0.802805	0	
0.9687	0.976013	0.490603	0	
0.9693	-0.22965	0.802805	0	
0.9700	-1.14825	1.71711	0	
0.9707	-2.38262	-1.65021	0	
0.9713	-6.02831	-0.423703	0	
0.9720	-6.94692	5.68654	0	
0.9727	-7.26268	4.46003	0	
0.9733	-9.70272	0.178401	0	
0.9740	-8.18128	2.00701	0	
0.9747	-5.74125	3.54572	0	
0.9753	-8.18128	1.71711	0	
0.9760	-10.3055	2.31922	0	
0.9767	-6.94692	1.71711	0	
0.9773	-4.82265	0.802805	0	
0.9780	-5.74125	1.40491	0	
0.9787	-6.65985	2.31922	0	
0.9793	-5.74125	2.31922	0	
0.9800	-3.30122	1.09271	0	
0.9807	-2.38262	-0.423703	0	
0.9813	-3.90405	-0.111501	0	
0.9820	-3.90405	-1.33801	0	
0.9827	-2.66968	-3.79103	0	
0.9833	-1.46402	-2.85442	0	
0.9840	-0.861188	0.490603	0	
0.9847	-2.06685	0.490603	0	
0.9853	-4.21982	-0.111501	0	
0.9860	-4.50688	0.178401	0	
0.9867	-3.58828	-0.111501	0	
0.9873	-2.06685	-0.735905	0	
0.9880	-0.22965	-0.423703	0	
0.9887	-0.545419	-0.423703	0	
0.9893	-2.66968	-0.111501	0	
0.9900	-1.75108	0.802805	0	
0.9907	-0.22965	-0.111501	0	
0.9913	0.976013	-1.94011	0	
0.9920	4.33465	-1.65021	0	
0.9927	7.09045	-1.65021	0	
0.9933	6.17185	-2.85442	0	
0.9940	4.04758	-2.56452	0	
0.9947	2.49744	-1.94011	0	
0.9953	0.68895	-1.94011	0	
0.9960	2.21038	-0.111501	0	
0.9967	3.12898	2.31922	0	
0.9973	1.29178	0.178401	0	
0.9980	-1.14825	-1.65021	0	
0.9987	-1.75108	0.802805	0	
0.9993	-1.14825	1.71711	0	
1.0000	0.0574125	-0.111501	0	
1.0007	0.976013	-0.735905	0	
1.0013	2.49744	-0.111501	0	
1.0020	5.85608	-0.111501	0	
1.0027	7.09045	-0.735905	0	
1.0033	4.33465	-1.33801	0	
1.0040	3.41605	-0.111501	0	
1.0047	4.04758	1.71711	0	
1.0053	2.81321	1.09271	0	
1.0060	2.49744	-1.33801	0	
1.0067	3.41605	-2.25232	0	
1.0073	0.373181	-1.33801	0	
1.0080	-2.06685	-0.735905	0	
1.0087	0.68895	0.802805	0	
1.0093	2.21038	2.63142	0	
1.0100	0.68895	1.71711	0	
1.0107	-0.22965	-0.111501	0	
1.0113	-0.22965	1.40491	0	
1.0120	0.68895	2.94362	0	
1.0127	3.12898	-0.111501	0	
1.0133	2.81321	-1.94011	0	
1.0140	0.68895	0.490603	0	
1.0147	-0.22965	-0.111501	0	
1.0153	-1.46402	-1.94011	0	
1.0160	-2.38262	-1.94011	0	
1.0167	-1.75108	-2.56452	0	
1.0173	-3.30122	-2.56452	0	
1.0180	-6.65985	-1.65021	0	
1.0187	-5.74125	-2.56452	0	
1.0193	-5.74125	-1.33801	0	
1.0200	-9.09989	1.40491	0	
1.0207	-8.78412	-0.735905	0	
1.0213	-5.42548	-2.85442	0	
1.0220	-3.90405	-1.65021	0	
1.0227	-4.82265	-2.25232	0	
1.0233	-6.65985	-3.47882	0	
1.0240	-5.74125	-2.85442	0	
1.0247	-1.46402	-4.39313	0	
1.0253	1.29178	-5.30744	0	
1.0260	1.89461	-1.02581	0	
1.0267	4.93748	0.490603	0	
1.0273	7.09045	-2.85442	0	
1.0280	6.77468	-2.85442	0	
1.0287	7.09045	-0.423703	0	
1.0293	5.25325	-1.02581	0	
1.0300	2.21038	-0.111501	0	
1.0307	4.33465	1.71711	0	
1.0313	9.21471	2.63142	0	
1.0320	6.17185	2.31922	0	
1.0327	1.89461	2.63142	0	
1.0333	2.81321	2.31922	0	
1.0340	3.41605	2.63142	0	
1.0347	0.68895	3.23352	0	
1.0353	-0.22965	3.23352	0	
1.0360	-0.22965	0.802805	0	
1.0367	-1.46402	-1.65021	0	
1.0373	0.68895	-1.94011	0	
1.0380	2.49744	-1.94011	0	
1.0387	0.68895	-3.79103	0	
1.0393	2.21038	-4.08093	0	
1.0400	4.65041	-4.08093	0	
1.0407	1.57884	-3.79103	0	
1.0413	-0.545419	-1.94011	0	
1.0420	2.49744	-0.111501	0	
1.0427	0.68895	-1.94011	0	
1.0433	-2.98545	-3.79103	0	
1.0440	-1.46402	-2.85442	0	
1.0447	-1.14825	-2.56452	0	
1.0453	-3.90405	-2.56452	0	
1.0460	-2.38262	-2.56452	0	
1.0467	0.68895	-3.47882	0	
1.0473	-2.06685	-2.56452	0	
1.0480	-4.82265	-1.02581	0	
1.0487	-3.58828	-0.735905	0	
1.0493	-1.46402	0.490603	0	
1.0500	1.57884	3.54572	0	
1.0507	5.56901	4.77223	0	
1.0513	6.17185	2.94362	0	
1.0520	3.41605	-2.56452	0	
1.0527	0.976013	-6.82385	0	
1.0533	-2.98545	-5.90954	0	
1.0540	-6.94692	-3.47882	0	
1.0547	-8.46835	-3.47882	0	
1.0553	-7.54975	-1.94011	0	
1.0560	-5.10971	0.802805	0	
1.0567	-4.82265	0.802805	0	
1.0573	-5.42548	-0.111501	0	
1.0580	-1.75108	-0.735905	0	
1.0587	4.33465	-1.02581	0	
1.0593	5.85608	1.09271	0	
1.0600	6.77468	4.46003	0	
1.0607	12.2863	7.20295	0	
1.0613	17.1663	10.8602	0	
1.0620	19.2906	11.7745	0	
1.0627	20.525	7.20295	0	
1.0633	20.525	2.31922	0	
1.0640	21.1278	1.71711	0	
1.0647	23.5678	1.40491	0	
1.0653	23.5678	-0.735905	0	
1.0660	21.1278	-2.85442	0	
1.0667	18.9748	-4.08093	0	
1.0673	15.3291	-3.79103	0	
1.0680	11.9705	-0.423703	0	
1.0687	13.4919	1.71711	0	
1.0693	13.4919	-0.423703	0	
1.0700	9.84625	-1.65021	0	
1.0707	8.61188	2.31922	0	
1.0713	8.00905	2.94362	0	
1.0720	4.33465	-3.16662	0	
1.0727	2.81321	-5.61964	0	
1.0733	6.77468	-2.85442	0	
1.0740	7.69328	-1.94011	0	
1.0747	4.93748	-4.70533	0	
1.0753	6.17185	-5.61964	0	
1.0760	8.00905	-5.61964	0	
1.0767	5.85608	-5.61964	0	
1.0773	3.73181	-5.61964	0	
1.0780	5.56901	-6.53394	0	
1.0787	6.77468	-6.53394	0	
1.0793	5.56901	-5.90954	0	
1.0800	5.85608	-4.99523	0	
1.0807	8.29611	-5.30744	0	
1.0813	8.92765	-4.99523	0	
1.0820	6.48762	-3.79103	0	
1.0827	3.41605	-1.94011	0	
1.0833	3.12898	-1.65021	0	
1.0840	4.04758	-2.85442	0	
1.0847	5.56901	-2.56452	0	
1.0853	6.17185	-2.56452	0	
1.0860	5.25325	-2.85442	0	
1.0867	4.33465	-1.94011	0	
1.0873	4.33465	-1.33801	0	
1.0880	2.81321	-1.94011	0	
1.0887	0.68895	-0.111501	0	
1.0893	1.57884	-0.423703	0	
1.0900	4.33465	-3.16662	0	
1.0907	4.65041	-3.79103	0	
1.0913	1.89461	-3.47882	0	
1.0920	0.0574125	-4.39313	0	
1.0927	0.0574125	-3.16662	0	
1.0933	-0.545419	0.178401	0	
1.0940	-2.06685	-0.111501	0	
1.0947	-2.06685	-1.65021	0	
1.0953	-0.22965	-0.423703	0	
1.0960	0.0574125	0.802805	0	
1.0967	-3.58828	0.178401	0	
1.0973	-5.74125	-0.111501	0	
1.0980	-2.38262	1.40491	0	
1.0987	0.68895	1.71711	0	
1.0993	-0.22965	1.09271	0	
1.1000	-0.861188	0.802805	0	
1.1007	0.976013	-1.02581	0	
1.1013	-1.14825	-3.47882	0	
1.1020	-8.46835	-1.65021	0	
1.1027	-12.1427	0.178401	0	
1.1033	-7.54975	-2.85442	0	
1.1040	-3.30122	-3.79103	0	
1.1047	-6.02831	-0.111501	0	
1.1053	-7.26268	0.802805	0	
1.1060	-2.66968	-1.33801	0	
1.1067	0.373181	-1.33801	0	
1.1073	-2.98545	1.09271	0	
1.1080	-7.86552	4.46003	0	
1.1087	-9.70272	3.54572	0	
1.1093	-8.78412	-0.111501	0	
1.1100	-6.94692	0.802805	0	
1.1107	-5.42548	3.54572	0	
1.1113	-6.65985	0.802805	0	
1.1120	-9.70272	-0.423703	0	
1.1127	-11.5399	3.85793	0	
1.1133	-13.0613	5.06213	0	
1.1140	-13.0613	3.54572	0	
1.1147	-10.3055	3.54572	0	
1.1153	-9.09989	2.00701	0	
1.1160	-10.3055	-0.111501	0	
1.1167	-8.46835	2.00701	0	
1.1173	-7.26268	4.14783	0	
1.1180	-9.38695	2.94362	0	
1.1187	-9.38695	1.71711	0	
1.1193	-8.78412	2.00701	0	
1.1200	-10.6213	1.71711	0	
1.1207	-9.70272	0.802805	0	
1.1213	-8.46835	1.71711	0	
1.1220	-9.70272	1.71711	0	
1.1227	-8.78412	-0.423703	0	
1.1233	-5.74125	-1.02581	0	
1.1240	-3.30122	1.40491	0	
1.1247	-1.14825	2.63142	0	
1.1253	-3.90405	2.63142	0	
1.1260	-11.2241	2.94362	0	
1.1267	-13.6642	2.63142	0	
1.1273	-10.3055	1.09271	0	
1.1280	-6.94692	0.802805	0	
1.1287	-6.34408	3.54572	0	
1.1293	-10.9084	4.46003	0	
1.1300	-16.707	3.54572	0	
1.1307	-18.5442	2.63142	0	
1.1313	-22.8215	1.40491	0	
1.1320	-28.0173	1.71711	0	
1.1327	-25.8643	4.77223	0	
1.1333	-20.9843	5.37434	0	
1.1340	-20.3814	1.71711	0	
1.1347	-18.5442	-0.111501	0	
1.1353	-14.5828	1.09271	0	
1.1360	-13.9799	0.802805	0	
1.1367	-13.6642	0.490603	0	
1.1373	-10.6213	1.71711	0	
1.1380	-9.70272	0.802805	0	
1.1387	-11.2241	0.178401	0	
1.1393	-10.3055	1.71711	0	
1.1400	-9.70272	0.802805	0	
1.1407	-12.4585	-1.02581	0	
1.1413	-14.5828	-0.735905	0	
1.1420	-12.7456	-0.111501	0	
1.1427	-9.38695	0.178401	0	
1.1433	-5.74125	0.802805	0	
1.1440	-1.46402	1.09271	0	
1.1447	-0.22965	0.802805	0	
1.1453	-1.75108	0.178401	0	
1.1460	0.373181	-0.735905	0	
1.1467	3.41605	-1.02581	0	
1.1473	3.73181	-1.02581	0	
1.1480	3.12898	-1.33801	0	
1.1487	3.12898	-0.423703	0	
1.1493	3.41605	2.63142	0	
1.1500	6.17185	4.14783	0	
1.1507	9.84625	2.94362	0	
1.1513	10.1333	1.71711	0	
1.1520	7.37751	2.31922	0	
1.1527	4.93748	2.94362	0	
1.1533	5.85608	1.40491	0	
1.1540	9.84625	-0.111501	0	
1.1547	11.6547	0.802805	0	
1.1553	8.00905	3.54572	0	
1.1560	5.56901	3.23352	0	
1.1567	6.48762	0.802805	0	
1.1573	8.00905	-0.735905	0	
1.1580	8.92765	0.178401	0	
1.1587	9.21471	1.40491	0	
1.1593	8.00905	1.40491	0	
1.1600	8.00905	0.490603	0	
1.1607	10.4491	0.490603	0	
1.1613	13.1762	1.71711	0	
1.1620	13.8077	2.31922	0	
1.1627	12.5733	0.802805	0	
1.1633	10.7361	0.490603	0	
1.1640	10.4491	2.00701	0	
1.1647	12.2863	2.31922	0	
1.1653	12.5733	1.71711	0	
1.1660	11.0519	2.94362	0	
1.1667	10.7361	3.23352	0	
1.1673	10.4491	-0.735905	0	
1.1680	10.1333	-1.33801	0	
1.1687	9.84625	2.31922	0	
1.1693	5.25325	1.71711	0	
1.1700	-0.22965	-1.65021	0	
1.1707	-1.14825	-0.423703	0	
1.1713	0.68895	1.09271	0	
1.1720	-0.861188	-0.111501	0	
1.1727	-2.66968	-0.423703	0	
1.1733	-2.66968	0.802805	0	
1.1740	-1.14825	0.490603	0	
1.1747	1.29178	-1.02581	0	
1.1753	2.49744	-1.94011	0	
1.1760	3.12898	-0.735905	0	
1.1767	5.25325	0.802805	0	
1.1773	7.09045	-0.111501	0	
1.1780	5.85608	-1.94011	0	
1.1787	3.73181	-1.94011	0	
1.1793	3.41605	-0.111501	0	
1.1800	4.33465	-0.111501	0	
1.1807	6.48762	-1.94011	0	
1.1813	8.61188	-2.85442	0	
1.1820	10.4491	-3.47882	0	
1.1827	10.1333	-5.30744	0	
1.1833	7.69328	-6.53394	0	
1.1840	7.09045	-4.70533	0	
1.1847	8.92765	-3.79103	0	
1.1853	8.00905	-3.79103	0	
1.1860	6.17185	-2.85442	0	
1.1867	6.17185	-2.25232	0	
1.1873	4.33465	-3.79103	0	
1.1880	1.57884	-5.30744	0	
1.1887	0.68895	-4.70533	0	
1.1893	-0.22965	-3.47882	0	
1.1900	-0.22965	-1.94011	0	
1.1907	-1.75108	0.178401	0	
1.1913	-5.74125	1.71711	0	
1.1920	-6.02831	1.09271	0	
1.1927	-2.38262	-0.111501	0	
1.1933	-2.06685	-1.94011	0	
1.1940	-3.90405	-2.25232	0	
1.1947	-4.21982	-0.735905	0	
1.1953	-6.94692	-0.111501	0	
1.1960	-8.46835	-0.423703	0	
1.1967	-4.82265	-1.02581	0	
1.1973	-1.75108	-1.94011	0	
1.1980	-2.66968	-3.47882	0	
1.1987	-2.38262	-4.08093	0	
1.1993	-2.06685	-3.79103	0	
1.2000	-2.38262	-2.25232	0	
1.2007	-0.861188	-1.94011	0	
1.2013	0.68895	-2.85442	0	
1.2020	-0.545419	-1.94011	0	
1.2027	-1.46402	0.178401	0	
1.2033	-2.06685	0.802805	0	
1.2040	-3.58828	-1.02581	0	
1.2047	-4.50688	-1.65021	0	
1.2053	-2.98545	-1.02581	0	
1.2060	-1.46402	-1.65021	0	
1.2067	-2.06685	-1.02581	0	
1.2073	-2.98545	0.802805	0	
1.2080	-4.21982	1.09271	0	
1.2087	-3.90405	-1.02581	0	
1.2093	-1.14825	-1.02581	0	
1.2100	-1.75108	0.490603	0	
1.2107	-6.02831	0.490603	0	
1.2113	-6.02831	-0.423703	0	
1.2120	-4.21982	0.178401	0	
1.2127	-7.86552	1.40491	0	
1.2133	-12.1427	2.00701	0	
1.2140	-13.0613	2.00701	0	
1.2147	-13.9799	1.09271	0	
1.2153	-13.0613	1.40491	0	
1.2160	-12.4585	2.63142	0	
1.2167	-12.1427	0.178401	0	
1.2173	-9.38695	-2.56452	0	
1.2180	-7.54975	-1.33801	0	
1.2187	-10.3055	-0.111501	0	
1.2193	-10.3055	-0.111501	0	
1.2200	-7.54975	0.802805	0	
1.2207	-8.46835	2.00701	0	
1.2213	-10.6213	1.09271	0	
1.2220	-9.38695	-0.111501	0	
1.2227	-8.46835	-1.02581	0	
1.2233	-9.09989	-0.111501	0	
1.2240	-10.0185	1.71711	0	
1.2247	-11.827	1.71711	0	
1.2253	-13.0613	-0.111501	0	
1.2260	-12.4585	-1.02581	0	
1.2267	-12.1427	-0.423703	0	
1.2273	-13.0613	0.802805	0	
1.2280	-13.3484	1.71711	0	
1.2287	-13.0613	1.71711	0	
1.2293	-13.0613	1.40491	0	
1.2300	-13.6642	1.71711	0	
1.2307	-13.9799	1.71711	0	
1.2313	-14.5828	1.71711	0	
1.2320	-13.9799	2.00701	0	
1.2327	-12.1427	2.31922	0	
1.2333	-11.2241	2.63142	0	
1.2340	-10.6213	2.31922	0	
1.2347	-11.5399	1.40491	0	
1.2353	-11.5399	1.40491	0	
1.2360	-10.3055	2.63142	0	
1.2367	-11.2241	3.54572	0	
1.2373	-11.827	4.46003	0	
1.2380	-9.09989	5.97644	0	
1.2387	-9.38695	4.77223	0	
1.2393	-11.5399	1.71711	0	
1.2400	-9.70272	0.802805	0	
1.2407	-8.46835	0.802805	0	
1.2413	-10.6213	-1.02581	0	
1.2420	-10.3055	-1.33801	0	
1.2427	-8.46835	1.40491	0	
1.2433	-7.26268	1.71711	0	
1.2440	-5.74125	-1.65021	0	
1.2447	-5.74125	-1.65021	0	
1.2453	-3.58828	1.71711	0	
1.2460	0.373181	1.40491	0	
1.2467	0.373181	-2.85442	0	
1.2473	1.57884	-4.70533	0	
1.2480	6.17185	-3.79103	0	
1.2487	6.77468	-2.85442	0	
1.2493	3.73181	-2.85442	0	
1.2500	4.33465	-3.47882	0	
1.2507	3.41605	-1.94011	0	
1.2513	-0.545419	1.09271	0	
1.2520	-0.861188	2.00701	0	
1.2527	0.0574125	1.71711	0	
1.2533	-2.38262	2.63142	0	
1.2540	-5.42548	2.31922	0	
1.2547	-6.94692	1.09271	0	
1.2553	-6.02831	1.71711	0	
1.2560	-4.50688	0.802805	0	
1.2567	-5.10971	-1.33801	0	
1.2573	-5.74125	0.802805	0	
1.2580	-5.74125	2.00701	0	
1.2587	-7.26268	-0.111501	0	
1.2593	-5.10971	-0.111501	0	
1.2600	-0.22965	0.178401	0	
1.2607	-0.22965	-1.94011	0	
1.2613	-2.06685	-2.85442	0	
1.2620	1.29178	-2.56452	0	
1.2627	2.21038	-2.85442	0	
1.2633	-1.75108	-1.02581	0	
1.2640	-2.06685	0.802805	0	
1.2647	0.0574125	-1.02581	0	
1.2653	1.29178	-1.94011	0	
1.2660	0.68895	-1.94011	0	
1.2667	-2.38262	-2.85442	0	
1.2673	-4.21982	-1.33801	0	
1.2680	-1.75108	1.71711	0	
1.2687	1.29178	0.802805	0	
1.2693	1.57884	-0.111501	0	
1.2700	2.49744	2.00701	0	
1.2707	2.49744	3.23352	0	
1.2713	1.57884	1.40491	0	
1.2720	2.21038	-0.111501	0	
1.2727	3.73181	0.490603	0	
1.2733	4.93748	1.09271	0	
1.2740	7.69328	0.178401	0	
1.2747	8.92765	-0.111501	0	
1.2753	5.25325	0.802805	0	
1.2760	4.04758	0.802805	0	
1.2767	4.93748	0.178401	0	
1.2773	3.41605	1.40491	0	
1.2780	2.81321	2.31922	0	
1.2787	5.25325	1.71711	0	
1.2793	5.25325	0.802805	0	
1.2800	2.21038	-0.735905	0	
1.2807	0.0574125	-1.02581	0	
1.2813	0.0574125	1.40491	0	
1.2820	1.29178	1.71711	0	
1.2827	2.49744	-0.423703	0	
1.2833	3.41605	-1.02581	0	
1.2840	4.65041	-0.111501	0	
1.2847	4.33465	-0.423703	0	
1.2853	4.33465	-1.33801	0	
1.2860	6.77468	-0.735905	0	
1.2867	8.61188	0.802805	0	
1.2873	7.37751	1.09271	0	
1.2880	4.33465	0.802805	0	
1.2887	1.57884	1.09271	0	
1.2893	0.68895	-0.111501	0	
1.2900	2.21038	-1.65021	0	
1.2907	2.49744	0.802805	0	
1.2913	1.29178	2.94362	0	
1.2920	0.68895	-0.735905	0	
1.2927	0.0574125	-2.85442	0	
1.2933	-2.98545	0.178401	0	
1.2940	-2.98545	2.00701	0	
1.2947	0.0574125	1.09271	0	
1.2953	0.68895	-0.111501	0	
1.2960	-1.14825	0.178401	0	
1.2967	-0.22965	2.63142	0	
1.2973	0.976013	3.54572	0	
1.2980	1.57884	1.40491	0	
1.2987	1.29178	-0.111501	0	
1.2993	0.0574125	1.40491	0	
1.3000	0.0574125	2.63142	0	
1.3007	1.57884	1.71711	0	
1.3013	2.21038	-0.735905	0	
1.3020	2.49744	-3.47882	0	
1.3027	5.25325	-3.79103	0	
1.3033	7.69328	-2.25232	0	
1.3040	7.69328	-1.33801	0	
1.3047	5.25325	-2.25232	0	
1.3053	1.57884	-4.08093	0	
1.3060	-0.545419	-4.70533	0	
1.3067	0.68895	-2.85442	0	
1.3073	2.49744	-1.02581	0	
1.3080	2.49744	-2.85442	0	
1.3087	2.49744	-3.79103	0	
1.3093	2.49744	-2.56452	0	
1.3100	0.68895	-0.735905	0	
1.3107	-2.06685	1.40491	0	
1.3113	-2.98545	2.94362	0	
1.3120	-2.06685	0.490603	0	
1.3127	-2.06685	-2.25232	0	
1.3133	-2.98545	-0.111501	0	
1.3140	-2.38262	1.09271	0	
1.3147	-0.861188	-2.25232	0	
1.3153	-0.22965	-2.56452	0	
1.3160	-0.22965	1.40491	0	
1.3167	0.976013	0.490603	0	
1.3173	1.57884	-2.56452	0	
1.3180	1.57884	-1.02581	0	
1.3187	3.73181	-0.111501	0	
1.3193	8.00905	-2.85442	0	
1.3200	8.92765	-3.47882	0	
1.3207	8.92765	-3.79103	0	
1.3213	11.3677	-5.61964	0	
1.3220	13.8077	-4.70533	0	
1.3227	15.0134	-2.25232	0	
1.3233	15.3291	-3.79103	0	
1.3240	13.4919	-4.99523	0	
1.3247	11.9705	-4.39313	0	
1.3253	12.8891	-4.39313	0	
1.3260	12.8891	-3.79103	0	
1.3267	11.3677	-3.16662	0	
1.3273	11.0519	-4.08093	0	
1.3280	12.2863	-4.39313	0	
1.3287	11.3677	-3.79103	0	
1.3293	8.92765	-3.47882	0	
1.3300	4.65041	-1.94011	0	
1.3307	2.49744	-1.94011	0	
1.3313	3.73181	-2.85442	0	
1.3320	4.04758	0.178401	0	
1.3327	-1.14825	2.94362	0	
1.3333	-4.21982	-0.111501	0	
1.3340	-1.14825	-1.94011	0	
1.3347	0.68895	0.178401	0	
1.3353	-2.06685	1.09271	0	
1.3360	-4.82265	1.40491	0	
1.3367	-2.66968	2.00701	0	
1.3373	1.57884	1.71711	0	
1.3380	3.12898	0.802805	0	
1.3387	3.73181	-1.02581	0	
1.3393	5.56901	-2.56452	0	
1.3400	5.56901	-1.94011	0	
1.3407	3.73181	-1.33801	0	
1.3413	4.33465	-3.16662	0	
1.3420	5.85608	-4.70533	0	
1.3427	4.33465	-3.16662	0	
1.3433	2.49744	-0.735905	0	
1.3440	3.41605	-0.735905	0	
1.3447	4.33465	-1.94011	0	
1.3453	5.25325	-1.02581	0	
1.3460	6.17185	0.802805	0	
1.3467	4.33465	0.802805	0	
1.3473	1.89461	1.40491	0	
1.3480	0.373181	0.490603	0	
1.3487	-1.75108	-3.79103	0	
1.3493	-3.30122	-4.39313	0	
1.3500	-2.06685	-1.94011	0	
1.3507	-0.545419	-2.25232	0	
1.3513	-1.46402	-1.94011	0	
1.3520	-1.14825	2.00701	0	
1.3527	-0.22965	1.71711	0	
1.3533	-4.82265	-2.25232	0	
1.3540	-8.18128	-2.56452	0	
1.3547	-4.82265	0.802805	0	
1.3553	-3.30122	1.71711	0	
1.3560	-6.94692	0.802805	0	
1.3567	-8.46835	0.802805	0	
1.3573	-7.54975	1.71711	0	
1.3580	-9.09989	0.802805	0	
1.3587	-7.54975	-0.423703	0	
1.3593	-2.66968	0.802805	0	
1.3600	-2.38262	0.802805	0	
1.3607	-5.10971	-1.65021	0	
1.3613	-3.90405	-1.33801	0	
1.3620	-2.66968	0.802805	0	
1.3627	-2.98545	-0.111501	0	
1.3633	-0.22965	-1.02581	0	
1.3640	1.57884	1.09271	0	
1.3647	-1.46402	1.71711	0	
1.3653	-2.98545	1.40491	0	
1.3660	-2.66968	2.63142	0	
1.3667	-3.58828	2.00701	0	
1.3673	-2.06685	0.802805	0	
1.3680	1.57884	1.09271	0	
1.3687	0.373181	2.94362	0	
1.3693	-2.38262	4.46003	0	
1.3700	0.0574125	3.54572	0	
1.3707	2.81321	1.71711	0	
1.3713	0.373181	3.23352	0	
1.3720	-3.30122	5.37434	0	
1.3727	-2.06685	3.23352	0	
1.3733	0.68895	1.71711	0	
1.3740	1.57884	2.94362	0	
1.3747	0.976013	2.31922	0	
1.3753	0.976013	0.802805	0	
1.3760	2.49744	1.71711	0	
1.3767	4.33465	2.63142	0	
1.3773	4.04758	3.54572	0	
1.3780	3.41605	4.14783	0	
1.3787	4.93748	1.71711	0	
1.3793	5.56901	-1.02581	0	
1.3800	5.85608	-1.33801	0	
1.3807	8.00905	-1.65021	0	
1.3813	8.92765	-1.33801	0	
1.3820	9.53048	-0.111501	0	
1.3827	11.6547	-1.02581	0	
1.3833	10.1333	-1.65021	0	
1.3840	7.37751	0.802805	0	
1.3847	8.61188	0.802805	0	
1.3853	8.92765	-2.56452	0	
1.3860	7.37751	-3.79103	0	
1.3867	7.09045	-1.65021	0	
1.3873	6.48762	-0.735905	0	
1.3880	4.65041	-3.79103	0	
1.3887	2.81321	-4.70533	0	
1.3893	0.976013	-2.56452	0	
1.3900	2.49744	-2.85442	0	
1.3907	6.17185	-4.99523	0	
1.3913	4.33465	-3.16662	0	
1.3920	-0.545419	-0.423703	0	
1.3927	-1.14825	-2.56452	0	
1.3933	-0.22965	-3.79103	0	
1.3940	-0.22965	-1.33801	0	
1.3947	1.57884	-1.33801	0	
1.3953	0.976013	-1.94011	0	
1.3960	-0.861188	-0.111501	0	
1.3967	0.68895	-0.735905	0	
1.3973	3.41605	-3.79103	0	
1.3980	4.04758	-4.70533	0	
1.3987	3.41605	-3.47882	0	
1.3993	3.41605	-2.85442	0	
1.4000	3.73181	-1.94011	0	
1.4007	5.25325	-0.735905	0	
1.4013	5.25325	-1.02581	0	
1.4020	4.93748	-1.94011	0	
1.4027	4.33465	-3.79103	0	
1.4033	4.33465	-4.08093	0	
1.4040	4.33465	-3.47882	0	
1.4047	3.41605	-2.85442	0	
1.4053	2.81321	-3.79103	0	
1.4060	4.33465	-4.70533	0	
1.4067	5.85608	-3.79103	0	
1.4073	3.41605	-3.47882	0	
1.4080	0.373181	-3.79103	0	
1.4087	-0.861188	-3.79103	0	
1.4093	0.68895	-1.33801	0	
1.4100	3.73181	-0.423703	0	
1.4107	4.33465	-2.25232	0	
1.4113	3.73181	-1.94011	0	
1.4120	7.69328	0.802805	0	
1.4127	11.3677	-0.735905	0	
1.4133	8.92765	-3.47882	0	
1.4140	5.85608	-2.25232	0	
1.4147	5.56901	-0.111501	0	
1.4153	3.12898	-0.735905	0	
1.4160	2.49744	-1.94011	0	
1.4167	4.33465	-1.94011	0	
1.4173	1.89461	-1.02581	0	
1.4180	-2.06685	0.490603	0	
1.4187	-1.14825	0.490603	0	
1.4193	0.373181	-0.111501	0	
1.4200	-0.545419	-1.94011	0	
1.4207	1.89461	-6.22174	0	
1.4213	4.93748	-7.44825	0	
1.4220	4.04758	-3.47882	0	
1.4227	3.41605	-1.94011	0	
1.4233	4.33465	-4.99523	0	
1.4240	1.57884	-5.61964	0	
1.4247	-1.14825	-1.65021	0	
1.4253	-0.861188	1.09271	0	
1.4260	-1.46402	-0.111501	0	
1.4267	-2.98545	-1.02581	0	
1.4273	-0.22965	1.40491	0	
1.4280	2.49744	2.63142	0	
1.4287	2.49744	-0.111501	0	
1.4293	2.21038	-1.94011	0	
1.4300	2.21038	-0.735905	0	
1.4307	1.57884	-0.423703	0	
1.4313	1.57884	-1.02581	0	
1.4320	1.29178	1.09271	0	
1.4327	0.373181	2.31922	0	
1.4333	-0.22965	0.490603	0	
1.4340	-1.46402	-0.111501	0	
1.4347	-3.58828	1.40491	0	
1.4353	-4.50688	2.31922	0	
1.4360	-3.58828	1.71711	0	
1.4367	-2.98545	2.00701	0	
1.4373	-4.21982	3.23352	0	
1.4380	-4.82265	2.31922	0	
1.4387	-5.10971	0.802805	0	
1.4393	-5.74125	2.63142	0	
1.4400	-5.10971	3.54572	0	
1.4407	-4.82265	0.490603	0	
1.4413	-6.65985	-0.423703	0	
1.4420	-5.74125	0.178401	0	
1.4427	-2.06685	-2.85442	0	
1.4433	-2.66968	-4.08093	0	
1.4440	-6.34408	-1.33801	0	
1.4447	-6.02831	-2.56452	0	
1.4453	-4.21982	-3.79103	0	
1.4460	-5.42548	0.178401	0	
1.4467	-7.86552	0.178401	0	
1.4473	-9.38695	-3.79103	0	
1.4480	-8.18128	-3.16662	0	
1.4487	-6.65985	-0.735905	0	
1.4493	-10.3055	-1.02581	0	
1.4500	-14.267	0.178401	0	
1.4507	-12.4585	1.40491	0	
1.4513	-12.1427	0.178401	0	
1.4520	-15.8172	0.490603	0	
1.4527	-16.707	2.94362	0	
1.4533	-16.1042	3.85793	0	
1.4540	-14.8985	3.54572	0	
1.4547	-10.3055	2.00701	0	
1.4553	-7.54975	0.802805	0	
1.4560	-7.54975	1.71711	0	
1.4567	-5.10971	2.31922	0	
1.4573	-1.14825	0.802805	0	
1.4580	1.29178	-1.02581	0	
1.4587	1.89461	-1.94011	0	
1.4593	1.57884	-2.85442	0	
1.4600	3.41605	-1.94011	0	
1.4607	7.09045	1.71711	0	
1.4613	8.29611	1.71711	0	
1.4620	7.69328	-1.02581	0	
1.4627	8.92765	0.490603	0	
1.4633	9.84625	2.31922	0	
1.4640	8.92765	0.802805	0	
1.4647	7.37751	1.71711	0	
1.4653	6.77468	5.97644	0	
1.4660	8.00905	7.20295	0	
1.4667	8.00905	7.51515	0	
1.4673	5.56901	8.11725	0	
1.4680	4.93748	7.20295	0	
1.4687	5.25325	6.28864	0	
1.4693	4.33465	4.14783	0	
1.4700	3.41605	0.490603	0	
1.4707	3.12898	1.09271	0	
1.4713	1.89461	3.23352	0	
1.4720	0.68895	1.71711	0	
1.4727	-1.14825	0.802805	0	
1.4733	-2.66968	0.802805	0	
1.4740	-1.46402	-1.02581	0	
1.4747	0.373181	-1.94011	0	
1.4753	-0.22965	-1.33801	0	
1.4760	-0.545419	-1.02581	0	
1.4767	-0.22965	-0.423703	0	
1.4773	0.0574125	-0.735905	0	
1.4780	0.373181	-2.25232	0	
1.4787	0.68895	0.178401	0	
1.4793	0.373181	1.71711	0	
1.4800	0.373181	-3.79103	0	
1.4807	2.81321	-6.53394	0	
1.4813	6.17185	-3.79103	0	
1.4820	6.48762	-4.08093	0	
1.4827	4.04758	-6.53394	0	
1.4833	2.49744	-5.90954	0	
1.4840	3.12898	-4.70533	0	
1.4847	3.41605	-4.08093	0	
1.4853	2.49744	-3.79103	0	
1.4860	2.49744	-3.79103	0	
1.4867	0.976013	-3.47882	0	
1.4873	-1.46402	-2.25232	0	
1.4880	-1.46402	-1.94011	0	
1.4887	-1.75108	-0.735905	0	
1.4893	-5.74125	0.490603	0	
1.4900	-7.26268	-0.423703	0	
1.4907	-5.42548	-0.111501	0	
1.4913	-6.94692	1.71711	0	
1.4920	-8.78412	1.09271	0	
1.4927	-4.82265	0.802805	0	
1.4933	-2.98545	0.802805	0	
1.4940	-3.30122	-0.111501	0	
1.4947	0.976013	0.490603	0	
1.4953	5.85608	0.802805	0	
1.4960	6.17185	-0.111501	0	
1.4967	7.09045	-0.111501	0	
1.4973	8.00905	-1.02581	0	
1.4980	6.48762	-2.85442	0	
1.4987	5.56901	-1.02581	0	
1.4993	4.33465	0.802805	0	
1.5000	1.29178	-1.94011	0	
1.5007	1.57884	-1.65021	0	
1.5013	3.41605	1.71711	0	
1.5020	2.21038	1.71711	0	
1.5027	1.57884	0.178401	0	
1.5033	4.33465	1.71711	0	
1.5040	5.25325	3.23352	0	
1.5047	3.73181	3.23352	0	
1.5053	3.41605	1.71711	0	
1.5060	2.49744	0.178401	0	
1.5067	0.373181	0.802805	0	
1.5073	-0.22965	0.490603	0	
1.5080	2.49744	-1.02581	0	
1.5087	2.81321	-0.111501	0	
1.5093	-0.22965	1.40491	0	
1.5100	-2.06685	0.178401	0	
1.5107	-2.06685	0.490603	0	
1.5113	-4.82265	3.54572	0	
1.5120	-8.18128	3.54572	0	
1.5127	-9.38695	1.71711	0	
1.5133	-11.2241	3.23352	0	
1.5140	-11.5399	5.06213	0	
1.5147	-11.2241	3.85793	0	
1.5153	-13.0613	3.54572	0	
1.5160	-13.0613	5.06213	0	
1.5167	-10.3055	4.46003	0	
1.5173	-7.54975	2.94362	0	
1.5180	-7.54975	0.802805	0	
1.5187	-8.46835	-0.423703	0	
1.5193	-6.94692	2.00701	0	
1.5200	-2.98545	4.46003	0	
1.5207	-1.75108	2.31922	0	
1.5213	-3.90405	0.490603	0	
1.5220	-4.21982	0.490603	0	
1.5227	-2.38262	-0.111501	0	
1.5233	-2.06685	1.09271	0	
1.5240	-2.38262	3.85793	0	
1.5247	-2.66968	2.63142	0	
1.5253	-2.66968	0.490603	0	
1.5260	-2.98545	1.71711	0	
1.5267	-2.98545	2.63142	0	
1.5273	-2.66968	1.09271	0	
1.5280	-3.30122	-0.111501	0	
1.5287	-5.74125	0.802805	0	
1.5293	-6.02831	2.00701	0	
1.5300	-4.50688	1.71711	0	
1.5307	-5.74125	-0.111501	0	
1.5313	-8.18128	-0.423703	0	
1.5320	-9.38695	2.63142	0	
1.5327	-8.46835	2.94362	0	
1.5333	-6.94692	-0.111501	0	
1.5340	-6.65985	-0.735905	0	
1.5347	-8.18128	2.31922	0	
1.5353	-7.26268	3.85793	0	
1.5360	-5.10971	1.40491	0	
1.5367	-5.10971	-0.735905	0	
1.5373	-5.10971	-0.111501	0	
1.5380	-4.50688	1.71711	0	
1.5387	-3.90405	3.54572	0	
1.5393	-2.38262	3.85793	0	
1.5400	-2.06685	1.71711	0	
1.5407	-3.90405	-1.02581	0	
1.5413	-4.21982	-2.85442	0	
1.5420	-0.861188	-2.85442	0	
1.5427	1.29178	-0.735905	0	
1.5433	0.0574125	-0.111501	0	
1.5440	-2.06685	-1.94011	0	
1.5447	-1.14825	0.490603	0	
1.5453	0.373181	2.00701	0	
1.5460	-0.545419	-1.94011	0	
1.5467	-1.75108	-2.56452	0	
1.5473	-0.545419	2.94362	0	
1.5480	-0.861188	2.94362	0	
1.5487	-1.14825	-0.423703	0	
1.5493	0.976013	0.802805	0	
1.5500	1.57884	1.09271	0	
1.5507	-0.545419	-1.02581	0	
1.5513	-1.14825	-0.423703	0	
1.5520	-1.46402	1.09271	0	
1.5527	-2.98545	2.00701	0	
1.5533	-2.98545	2.63142	0	
1.5540	-3.58828	1.40491	0	
1.5547	-3.30122	-0.735905	0	
1.5553	0.68895	-0.111501	0	
1.5560	3.12898	0.802805	0	
1.5567	2.49744	0.802805	0	
1.5573	4.04758	0.490603	0	
1.5580	5.56901	0.178401	0	
1.5587	2.49744	0.178401	0	
1.5593	1.89461	0.490603	0	
1.5600	4.65041	0.178401	0	
1.5607	5.25325	-1.02581	0	
1.5613	2.81321	-1.94011	0	
1.5620	1.57884	-1.94011	0	
1.5627	0.0574125	-0.735905	0	
1.5633	-0.545419	-0.423703	0	
1.5640	0.68895	-1.65021	0	
1.5647	1.89461	-1.33801	0	
1.5653	1.57884	-1.02581	0	
1.5660	0.68895	-1.94011	0	
1.5667	1.29178	-1.94011	0	
1.5673	1.57884	-0.735905	0	
1.5680	1.29178	0.490603	0	
1.5687	2.49744	1.09271	0	
1.5693	4.33465	0.802805	0	
1.5700	2.49744	-0.111501	0	
1.5707	0.68895	1.09271	0	
1.5713	3.12898	1.71711	0	
1.5720	6.17185	0.802805	0	
1.5727	5.25325	0.490603	0	
1.5733	2.21038	0.490603	0	
1.5740	2.49744	0.490603	0	
1.5747	4.33465	2.63142	0	
1.5753	4.04758	2.63142	0	
1.5760	2.49744	-0.111501	0	
1.5767	4.65041	-0.111501	0	
1.5773	7.37751	2.63142	0	
1.5780	6.48762	2.00701	0	
1.5787	6.48762	0.490603	0	
1.5793	10.7361	0.490603	0	
1.5800	11.6547	-0.735905	0	
1.5807	8.92765	-1.94011	0	
1.5813	7.69328	-3.47882	0	
1.5820	8.00905	-3.79103	0	
1.5827	7.09045	-2.25232	0	
1.5833	7.09045	-1.33801	0	
1.5840	5.85608	-2.56452	0	
1.5847	3.12898	-1.02581	0	
1.5853	3.73181	1.40491	0	
1.5860	7.09045	-1.02581	0	
1.5867	4.93748	-2.25232	0	
1.5873	0.68895	-1.33801	0	
1.5880	1.29178	-2.25232	0	
1.5887	2.49744	-2.56452	0	
1.5893	-0.22965	-0.735905	0	
1.5900	-2.98545	-0.735905	0	
1.5907	-2.06685	-1.65021	0	
1.5913	-2.06685	-1.02581	0	
1.5920	-2.98545	-1.02581	0	
1.5927	-1.14825	-1.02581	0	
1.5933	0.68895	0.802805	0	
1.5940	-1.14825	-0.111501	0	
1.5947	-2.66968	-2.85442	0	
1.5953	-1.75108	-1.94011	0	
1.5960	-0.861188	0.490603	0	
1.5967	-0.861188	0.490603	0	
1.5973	-1.75108	-0.423703	0	
1.5980	-2.06685	1.40491	0	
1.5987	-0.22965	2.31922	0	
1.5993	0.373181	0.178401	0	
1.6000	-2.06685	-1.02581	0	
1.6007	-2.06685	-1.02581	0	
1.6013	0.68895	-1.94011	0	
1.6020	0.68895	-2.85442	0	
1.6027	1.29178	-2.85442	0	
1.6033	2.49744	-2.85442	0	
1.6040	-0.22965	-2.85442	0	
1.6047	-3.30122	-3.16662	0	
1.6053	-0.545419	-4.99523	0	
1.6060	-1.14825	-5.61964	0	
1.6067	-6.02831	-2.85442	0	
1.6073	-5.10971	-0.111501	0	
1.6080	-4.50688	-0.111501	0	
1.6087	-7.54975	0.178401	0	
1.6093	-5.74125	0.802805	0	
1.6100	-2.98545	1.71711	0	
1.6107	-5.74125	2.94362	0	
1.6113	-6.65985	1.09271	0	
1.6120	-5.10971	-3.79103	0	
1.6127	-6.65985	-4.08093	0	
1.6133	-6.65985	-1.02581	0	
1.6140	-4.21982	-0.111501	0	
1.6147	-5.74125	-1.33801	0	
1.6153	-6.02831	-1.94011	0	
1.6160	-4.21982	-0.735905	0	
1.6167	-4.82265	0.178401	0	
1.6173	-4.82265	0.490603	0	
1.6180	-1.46402	-0.111501	0	
1.6187	-0.861188	-1.33801	0	
1.6193	-2.98545	-3.79103	0	
1.6200	-2.66968	-3.79103	0	
1.6207	-1.75108	-0.423703	0	
1.6213	-2.38262	1.09271	0	
1.6220	-2.06685	-0.423703	0	
1.6227	-1.14825	-1.02581	0	
1.6233	-1.14825	-0.111501	0	
1.6240	-4.21982	-0.423703	0	
1.6247	-6.34408	0.802805	0	
1.6253	-4.82265	1.71711	0	
1.6260	-4.50688	-0.111501	0	
1.6267	-6.65985	-1.94011	0	
1.6273	-5.74125	0.490603	0	
1.6280	-3.90405	1.71711	0	
1.6287	-6.65985	0.802805	0	
1.6293	-7.54975	0.178401	0	
1.6300	-6.02831	-1.33801	0	
1.6307	-8.18128	-2.56452	0	
1.6313	-10.3055	-0.111501	0	
1.6320	-7.86552	1.09271	0	
1.6327	-6.65985	-0.111501	0	
1.6333	-8.78412	2.00701	0	
1.6340	-8.78412	4.14783	0	
1.6347	-6.34408	2.31922	0	
1.6353	-4.82265	2.31922	0	
1.6360	-3.30122	3.54572	0	
1.6367	-1.46402	0.490603	0	
1.6373	0.68895	-2.25232	0	
1.6380	1.57884	-2.25232	0	
1.6387	1.89461	-1.94011	0	
1.6393	1.89461	-1.02581	0	
1.6400	2.81321	-0.423703	0	
1.6407	4.33465	-1.02581	0	
1.6413	4.33465	-0.423703	0	
1.6420	3.41605	-0.111501	0	
1.6427	3.73181	-2.85442	0	
1.6433	3.73181	-3.47882	0	
1.6440	2.49744	-1.02581	0	
1.6447	0.68895	-0.423703	0	
1.6453	-1.14825	-1.33801	0	
1.6460	-2.38262	0.178401	0	
1.6467	-1.14825	1.40491	0	
1.6473	0.373181	0.802805	0	
1.6480	-2.06685	-0.111501	0	
1.6487	-4.50688	-1.02581	0	
1.6493	-2.98545	-3.47882	0	
1.6500	-0.861188	-3.79103	0	
1.6507	-1.14825	-1.94011	0	
1.6513	-0.861188	-1.02581	0	
1.6520	0.68895	-1.33801	0	
1.6527	1.29178	0.490603	0	
1.6533	-1.14825	2.31922	0	
1.6540	-3.30122	2.00701	0	
1.6547	-2.98545	1.40491	0	
1.6553	-2.38262	0.802805	0	
1.6560	-2.66968	-0.423703	0	
1.6567	-1.75108	-0.423703	0	
1.6573	-0.861188	0.802805	0	
1.6580	-0.545419	2.00701	0	
1.6587	-0.545419	1.71711	0	
1.6593	-0.545419	-0.111501	0	
1.6600	-0.22965	-1.02581	0	
1.6607	0.68895	-1.94011	0	
1.6613	1.89461	-3.16662	0	
1.6620	2.49744	-2.85442	0	
1.6627	1.57884	-2.85442	0	
1.6633	1.57884	-5.61964	0	
1.6640	3.12898	-6.53394	0	
1.6647	3.41605	-3.79103	0	
1.6653	1.57884	-1.94011	0	
1.6660	1.57884	-2.85442	0	
1.6667	1.89461	-2.25232	0	
1.6673	1.29178	-2.25232	0	
1.6680	1.89461	-2.56452	0	
1.6687	1.29178	-1.65021	0	
1.6693	-1.46402	-1.33801	0	
1.6700	-0.22965	-1.94011	0	
1.6707	2.49744	-1.94011	0	
1.6713	1.29178	-1.02581	0	
1.6720	-1.46402	0.490603	0	
1.6727	-1.14825	1.40491	0	
1.6733	0.373181	0.802805	0	
1.6740	1.57884	-0.111501	0	
1.6747	2.49744	2.31922	0	
1.6753	1.89461	5.06213	0	
1.6760	0.68895	3.54572	0	
1.6767	2.81321	0.802805	0	
1.6773	7.09045	1.71711	0	
1.6780	6.77468	2.94362	0	
1.6787	4.33465	1.71711	0	
1.6793	5.56901	0.802805	0	
1.6800	5.85608	1.09271	0	
1.6807	4.04758	0.178401	0	
1.6813	4.93748	-0.111501	0	
1.6820	5.56901	0.178401	0	
1.6827	3.41605	0.490603	0	
1.6833	4.65041	-0.111501	0	
1.6840	6.77468	-1.02581	0	
1.6847	5.25325	-3.16662	0	
1.6853	6.17185	-3.47882	0	
1.6860	10.4491	-1.02581	0	
1.6867	8.92765	0.802805	0	
1.6873	2.81321	1.40491	0	
1.6880	1.29178	-0.111501	0	
1.6887	2.49744	-2.25232	0	
1.6893	1.57884	-1.02581	0	
1.6900	-1.46402	2.63142	0	
1.6907	-3.30122	2.94362	0	
1.6913	-4.82265	2.63142	0	
1.6920	-6.65985	3.54572	0	
1.6927	-8.46835	2.63142	0	
1.6933	-9.38695	1.09271	0	
1.6940	-7.26268	2.00701	0	
1.6947	-3.90405	2.00701	0	
1.6953	-1.75108	1.09271	0	
1.6960	-0.22965	1.40491	0	
1.6967	1.89461	-0.735905	0	
1.6973	3.73181	-3.47882	0	
1.6980	7.09045	-1.33801	0	
1.6987	8.29611	1.09271	0	
1.6993	4.33465	-0.735905	0	
1.7000	0.68895	-2.85442	0	
1.7007	0.68895	-2.85442	0	
1.7013	0.68895	-1.94011	0	
1.7020	-1.14825	-0.735905	0	
1.7027	-2.98545	-1.02581	0	
1.7033	-2.66968	-3.47882	0	
1.7040	-1.46402	-3.16662	0	
1.7047	-1.14825	-1.94011	0	
1.7053	-2.06685	-2.25232	0	
1.7060	-1.46402	0.178401	0	
1.7067	-0.22965	2.63142	0	
1.7073	-0.861188	-0.111501	0	
1.7080	-2.06685	-1.94011	0	
1.7087	-1.75108	0.178401	0	
1.7093	-0.545419	-0.423703	0	
1.7100	-1.14825	-1.65021	0	
1.7107	-3.30122	2.63142	0	
1.7113	-1.75108	4.46003	0	
1.7120	1.89461	0.490603	0	
1.7127	-0.22965	-1.65021	0	
1.7133	-4.50688	0.802805	0	
1.7140	-2.98545	2.31922	0	
1.7147	0.68895	0.490603	0	
1.7153	2.49744	-0.735905	0	
1.7160	4.65041	0.802805	0	
1.7167	5.25325	2.00701	0	
1.7173	4.33465	0.490603	0	
1.7180	5.56901	-1.65021	0	
1.7187	4.33465	-2.85442	0	
1.7193	-0.861188	-3.16662	0	
1.7200	-1.14825	-1.94011	0	
1.7207	3.41605	-1.02581	0	
1.7213	3.73181	-1.94011	0	
1.7220	3.12898	-2.56452	0	
1.7227	5.56901	-2.25232	0	
1.7233	4.33465	-3.79103	0	
1.7240	0.68895	-4.08093	0	
1.7247	0.68895	-3.79103	0	
1.7253	0.68895	-2.85442	0	
1.7260	-1.46402	-1.94011	0	
1.7267	-2.06685	-1.02581	0	
1.7273	-2.06685	-0.735905	0	
1.7280	-1.46402	0.802805	0	
1.7287	-0.22965	1.40491	0	
1.7293	-1.75108	-0.111501	0	
1.7300	-4.50688	-1.33801	0	
1.7307	-4.21982	-0.735905	0	
1.7313	-4.50688	0.490603	0	
1.7320	-7.54975	1.09271	0	
1.7327	-9.09989	1.09271	0	
1.7333	-9.70272	1.09271	0	
1.7340	-10.0185	1.71711	0	
1.7347	-8.46835	2.31922	0	
1.7353	-7.54975	1.71711	0	
1.7360	-9.70272	1.71711	0	
1.7367	-9.09989	2.63142	0	
1.7373	-6.02831	2.31922	0	
1.7380	-3.30122	2.00701	0	
1.7387	-1.14825	1.71711	0	
1.7393	-1.14825	0.802805	0	
1.7400	-2.38262	-0.111501	0	
1.7407	-1.46402	-0.423703	0	
1.7413	-0.22965	-2.25232	0	
1.7420	0.373181	-2.85442	0	
1.7427	1.89461	0.802805	0	
1.7433	2.49744	1.71711	0	
1.7440	0.0574125	-2.56452	0	
1.7447	-2.66968	-3.16662	0	
1.7453	-2.98545	0.490603	0	
1.7460	0.0574125	-1.02581	0	
1.7467	2.49744	-5.61964	0	
1.7473	2.81321	-5.61964	0	
1.7480	4.93748	-1.94011	0	
1.7487	5.85608	-0.735905	0	
1.7493	1.89461	-1.94011	0	
1.7500	-0.22965	-2.85442	0	
1.7507	0.976013	-2.85442	0	
1.7513	-1.14825	-2.56452	0	
1.7520	-3.30122	-1.65021	0	
1.7527	-1.46402	0.802805	0	
1.7533	-1.46402	1.71711	0	
1.7540	-2.38262	-0.111501	0	
1.7547	-1.46402	1.40491	0	
1.7553	-2.98545	5.06213	0	
1.7560	-4.21982	3.85793	0	
1.7567	-2.06685	2.63142	0	
1.7573	-1.75108	4.46003	0	
1.7580	-4.21982	3.54572	0	
1.7587	-4.50688	2.00701	0	
1.7593	-2.98545	2.94362	0	
1.7600	-1.14825	1.71711	0	
1.7607	0.0574125	-1.02581	0	
1.7613	-2.38262	-0.735905	0	
1.7620	-2.98545	0.802805	0	
1.7627	1.29178	1.71711	0	
1.7633	0.68895	0.490603	0	
1.7640	-3.58828	-3.16662	0	
1.7647	-3.30122	-4.39313	0	
1.7653	-0.545419	-1.94011	0	
1.7660	1.57884	-1.33801	0	
1.7667	4.33465	-1.33801	0	
1.7673	3.73181	0.802805	0	
1.7680	1.29178	1.09271	0	
1.7687	4.93748	-0.735905	0	
1.7693	8.61188	-1.02581	0	
1.7700	5.85608	-1.33801	0	
1.7707	4.33465	-1.02581	0	
1.7713	6.17185	-1.02581	0	
1.7720	4.33465	-2.85442	0	
1.7727	1.57884	-1.94011	0	
1.7733	1.29178	1.09271	0	
1.7740	-0.22965	-0.423703	0	
1.7747	-2.98545	-2.85442	0	
1.7753	-3.58828	-0.423703	0	
1.7760	-2.06685	1.71711	0	
1.7767	0.0574125	-0.423703	0	
1.7773	0.68895	-1.02581	0	
1.7780	0.0574125	-1.02581	0	
1.7787	0.0574125	-2.25232	0	
1.7793	-0.861188	-2.25232	0	
1.7800	-2.98545	-1.33801	0	
1.7807	-2.06685	-1.94011	0	
1.7813	1.29178	-2.85442	0	
1.7820	3.41605	-2.85442	0	
1.7827	5.85608	-3.79103	0	
1.7833	6.17185	-4.70533	0	
1.7840	4.33465	-5.90954	0	
1.7847	2.81321	-5.61964	0	
1.7853	3.12898	-4.08093	0	
1.7860	3.41605	-2.56452	0	
1.7867	4.04758	-1.94011	0	
1.7873	3.41605	-1.94011	0	
1.7880	0.976013	-2.85442	0	
1.7887	-0.861188	-2.25232	0	
1.7893	-0.22965	-1.02581	0	
1.7900	0.68895	-1.02581	0	
1.7907	1.89461	-1.02581	0	
1.7913	1.29178	1.09271	0	
1.7920	-1.46402	2.63142	0	
1.7927	-1.75108	1.71711	0	
1.7933	0.0574125	-0.111501	0	
1.7940	-0.22965	-1.33801	0	
1.7947	-0.545419	-1.33801	0	
1.7953	-0.861188	-0.111501	0	
1.7960	-2.38262	-0.111501	0	
1.7967	-1.46402	0.178401	0	
1.7973	1.89461	2.00701	0	
1.7980	1.89461	2.31922	0	
1.7987	-0.22965	0.802805	0	
1.7993	1.29178	0.178401	0	
1.8000	4.04758	-1.65021	0	
1.8007	4.65041	-1.94011	0	
1.8013	5.56901	-1.02581	0	
1.8020	8.29611	-1.94011	0	
1.8027	8.29611	-1.33801	0	
1.8033	4.04758	0.802805	0	
1.8040	1.57884	0.802805	0	
1.8047	2.81321	-1.02581	0	
1.8053	2.49744	-1.94011	0	
1.8060	2.49744	-2.25232	0	
1.8067	3.12898	-1.02581	0	
1.8073	2.49744	0.178401	0	
1.8080	0.68895	-1.02581	0	
1.8087	0.68895	-1.94011	0	
1.8093	0.0574125	-0.735905	0	
1.8100	-0.545419	0.490603	0	
1.8107	-1.14825	1.71711	0	
1.8113	-2.98545	2.63142	0	
1.8120	-2.98545	1.40491	0	
1.8127	-1.75108	0.802805	0	
1.8133	-3.90405	1.71711	0	
1.8140	-4.82265	2.63142	0	
1.8147	-2.06685	2.00701	0	
1.8153	-2.98545	2.00701	0	
1.8160	-6.34408	2.00701	0	
1.8167	-4.82265	1.71711	0	
1.8173	-3.30122	1.09271	0	
1.8180	-4.82265	1.71711	0	
1.8187	-4.82265	1.71711	0	
1.8193	-3.30122	-0.423703	0	
1.8200	-2.06685	-1.33801	0	
1.8207	0.373181	-0.423703	0	
1.8213	1.29178	-0.111501	0	
1.8220	0.976013	-0.111501	0	
1.8227	2.49744	-0.735905	0	
1.8233	2.21038	-2.25232	0	
1.8240	1.57884	-1.94011	0	
1.8247	3.41605	-0.111501	0	
1.8253	3.73181	-0.423703	0	
1.8260	1.89461	-1.94011	0	
1.8267	2.81321	-3.79103	0	
1.8273	2.81321	-3.16662	0	
1.8280	-0.22965	-0.111501	0	
1.8287	0.0574125	1.40491	0	
1.8293	1.89461	-0.423703	0	
1.8300	-0.861188	-1.94011	0	
1.8307	-4.82265	-1.94011	0	
1.8313	-6.94692	-0.735905	0	
1.8320	-8.18128	0.178401	0	
1.8327	-6.65985	-1.02581	0	
1.8333	-3.90405	-1.33801	0	
1.8340	-4.21982	1.71711	0	
1.8347	-5.74125	3.23352	0	
1.8353	-5.74125	0.490603	0	
1.8360	-6.94692	-1.33801	0	
1.8367	-9.38695	-0.423703	0	
1.8373	-12.1427	-0.735905	0	
1.8380	-13.9799	-1.33801	0	
1.8387	-13.9799	-0.111501	0	
1.8393	-12.4585	1.71711	0	
1.8400	-11.2241	1.09271	0	
1.8407	-9.38695	-1.33801	0	
1.8413	-5.74125	-1.02581	0	
1.8420	-3.58828	1.09271	0	
1.8427	-2.06685	1.40491	0	
1.8433	1.57884	0.802805	0	
1.8440	4.93748	-0.423703	0	
1.8447	4.93748	-2.85442	0	
1.8453	5.25325	-2.85442	0	
1.8460	6.17185	-1.33801	0	
1.8467	3.73181	-1.94011	0	
1.8473	2.49744	-2.85442	0	
1.8480	4.93748	-2.85442	0	
1.8487	5.25325	-2.56452	0	
1.8493	3.12898	-1.02581	0	
1.8500	1.89461	-0.111501	0	
1.8507	0.68895	-1.02581	0	
1.8513	0.0574125	0.802805	0	
1.8520	0.976013	3.23352	0	
1.8527	1.89461	0.490603	0	
1.8533	2.49744	-1.02581	0	
1.8540	2.49744	2.00701	0	
1.8547	0.68895	1.71711	0	
1.8553	-1.14825	-0.735905	0	
1.8560	-0.22965	-0.423703	0	
1.8567	1.57884	-0.735905	0	
1.8573	0.68895	-1.94011	0	
1.8580	-0.22965	-1.02581	0	
1.8587	1.57884	-0.735905	0	
1.8593	2.49744	-0.111501	0	
1.8600	1.57884	0.178401	0	
1.8607	2.49744	-0.735905	0	
1.8613	4.04758	0.490603	0	
1.8620	2.49744	2.63142	0	
1.8627	-0.22965	-1.02581	0	
1.8633	0.68895	-2.56452	0	
1.8640	0.68895	2.00701	0	
1.8647	-2.66968	2.63142	0	
1.8653	-4.82265	-1.02581	0	
1.8660	-3.30122	-0.111501	0	
1.8667	-0.545419	0.490603	0	
1.8673	-0.545419	-2.56452	0	
1.8680	-2.66968	-2.56452	0	
1.8687	-2.66968	-1.65021	0	
1.8693	-1.14825	-1.65021	0	
1.8700	-0.545419	1.09271	0	
1.8707	-2.38262	2.63142	0	
1.8713	-5.74125	0.178401	0	
1.8720	-6.65985	0.802805	0	
1.8727	-3.58828	2.94362	0	
1.8733	-2.06685	1.40491	0	
1.8740	-6.02831	1.40491	0	
1.8747	-7.54975	4.14783	0	
1.8753	-4.82265	3.85793	0	
1.8760	-4.21982	2.00701	0	
1.8767	-4.82265	2.31922	0	
1.8773	-3.58828	1.71711	0	
1.8780	-1.46402	1.09271	0	
1.8787	0.68895	0.802805	0	
1.8793	2.21038	-1.02581	0	
1.8800	2.81321	-1.02581	0	
1.8807	3.73181	2.63142	0	
1.8813	4.33465	4.14783	0	
1.8820	4.93748	1.71711	0	
1.8827	7.09045	-0.111501	0	
1.8833	7.09045	-1.33801	0	
1.8840	6.17185	-1.02581	0	
1.8847	7.37751	1.71711	0	
1.8853	8.61188	2.00701	0	
1.8860	7.09045	-1.33801	0	
1.8867	4.65041	-1.65021	0	
1.8873	2.21038	0.178401	0	
1.8880	1.29178	-0.111501	0	
1.8887	2.81321	-0.111501	0	
1.8893	4.33465	-0.111501	0	
1.8900	3.41605	0.490603	0	
1.8907	3.73181	2.00701	0	
1.8913	4.65041	2.00701	0	
1.8920	2.81321	-0.111501	0	
1.8927	0.373181	-0.735905	0	
1.8933	0.68895	-0.423703	0	
1.8940	2.21038	-0.111501	0	
1.8947	1.57884	1.09271	0	
1.8953	0.68895	0.802805	0	
1.8960	2.49744	-1.02581	0	
1.8967	3.12898	-0.111501	0	
1.8973	0.68895	2.63142	0	
1.8980	0.68895	1.71711	0	
1.8987	3.41605	-1.94011	0	
1.8993	3.41605	-1.94011	0	
1.9000	0.68895	0.178401	0	
1.9007	-0.545419	0.178401	0	
1.9013	-1.14825	-1.94011	0	
1.9020	0.0574125	-1.94011	0	
1.9027	3.41605	-1.65021	0	
1.9033	4.33465	-3.79103	0	
1.9040	1.29178	-5.61964	0	
1.9047	0.0574125	-5.30744	0	
1.9053	0.68895	-3.79103	0	
1.9060	-0.22965	-1.65021	0	
1.9067	-1.14825	-1.94011	0	
1.9073	-2.06685	-3.79103	0	
1.9080	-2.38262	-1.94011	0	
1.9087	0.68895	0.802805	0	
1.9093	2.81321	-0.111501	0	
1.9100	1.29178	-1.65021	0	
1.9107	0.0574125	-1.02581	0	
1.9113	0.373181	-1.65021	0	
1.9120	-0.861188	-3.16662	0	
1.9127	-2.06685	-3.16662	0	
1.9133	-2.66968	-2.25232	0	
1.9140	-3.30122	0.490603	0	
1.9147	-2.98545	3.54572	0	
1.9153	-2.06685	0.802805	0	
1.9160	-2.38262	-3.79103	0	
1.9167	-2.98545	-2.25232	0	
1.9173	-3.90405	0.802805	0	
1.9180	-4.21982	0.178401	0	
1.9187	-3.58828	-1.94011	0	
1.9193	-2.98545	-3.16662	0	
1.9200	-3.58828	-2.85442	0	
1.9207	-2.06685	-1.33801	0	
1.9213	0.373181	-3.47882	0	
1.9220	1.57884	-6.22174	0	
1.9227	0.976013	-4.08093	0	
1.9233	-0.22965	-1.94011	0	
1.9240	1.57884	-4.70533	0	
1.9247	4.93748	-6.53394	0	
1.9253	4.33465	-5.61964	0	
1.9260	1.89461	-4.70533	0	
1.9267	2.21038	-2.85442	0	
1.9273	1.89461	-1.02581	0	
1.9280	-0.22965	-2.85442	0	
1.9287	-0.22965	-3.79103	0	
1.9293	2.49744	-1.02581	0	
1.9300	3.73181	0.490603	0	
1.9307	3.41605	-1.94011	0	
1.9313	0.976013	-2.85442	0	
1.9320	-2.06685	-1.33801	0	
1.9327	-3.58828	-0.423703	0	
1.9333	-3.30122	-1.02581	0	
1.9340	-3.30122	-1.02581	0	
1.9347	-3.58828	1.09271	0	
1.9353	-3.90405	4.14783	0	
1.9360	-3.90405	3.54572	0	
1.9367	-4.82265	0.802805	0	
1.9373	-6.65985	0.178401	0	
1.9380	-5.74125	0.802805	0	
1.9387	-2.38262	1.09271	0	
1.9393	-2.98545	0.802805	0	
1.9400	-4.82265	-1.02581	0	
1.9407	-2.66968	-3.16662	0	
1.9413	-2.06685	-1.02581	0	
1.9420	-3.90405	3.23352	0	
1.9427	-2.98545	3.54572	0	
1.9433	-2.06685	-0.423703	0	
1.9440	-3.30122	-1.94011	0	
1.9447	-1.14825	0.490603	0	
1.9453	0.976013	0.802805	0	
1.9460	-0.545419	-1.02581	0	
1.9467	-0.22965	-0.735905	0	
1.9473	0.976013	0.802805	0	
1.9480	-3.58828	0.178401	0	
1.9487	-8.46835	-0.423703	0	
1.9493	-6.94692	-0.735905	0	
1.9500	-4.82265	-1.02581	0	
1.9507	-6.65985	0.490603	0	
1.9513	-7.86552	2.63142	0	
1.9520	-6.65985	2.94362	0	
1.9527	-6.34408	2.94362	0	
1.9533	-7.26268	2.63142	0	
1.9540	-5.74125	0.802805	0	
1.9547	-3.90405	0.802805	0	
1.9553	-4.21982	3.23352	0	
1.9560	-4.21982	2.31922	0	
1.9567	-2.98545	0.178401	0	
1.9573	-3.58828	1.09271	0	
1.9580	-3.30122	1.71711	0	
1.9587	0.68895	0.802805	0	
1.9593	2.49744	0.802805	0	
1.9600	0.976013	-0.111501	0	
1.9607	1.89461	-1.33801	0	
1.9613	5.56901	-0.111501	0	
1.9620	4.93748	0.802805	0	
1.9627	1.57884	-1.02581	0	
1.9633	0.976013	-1.02581	0	
1.9640	0.68895	-0.111501	0	
1.9647	-1.46402	0.490603	0	
1.9653	-1.14825	1.71711	0	
1.9660	-0.861188	2.00701	0	
1.9667	-3.90405	0.178401	0	
1.9673	-4.82265	0.490603	0	
1.9680	-1.46402	1.09271	0	
1.9687	0.68895	-1.02581	0	
1.9693	0.68895	-1.33801	0	
1.9700	1.89461	1.09271	0	
1.9707	2.21038	0.802805	0	
1.9713	0.0574125	0.178401	0	
1.9720	-1.14825	1.71711	0	
1.9727	0.68895	0.490603	0	
1.9733	2.49744	-0.735905	0	
1.9740	0.373181	1.71711	0	
1.9747	-2.06685	2.31922	0	
1.9753	0.68895	-0.423703	0	
1.9760	1.29178	0.178401	0	
1.9767	-0.861188	1.09271	0	
1.9773	0.373181	-0.423703	0	
1.9780	0.68895	0.178401	0	
1.9787	-2.06685	0.802805	0	
1.9793	-0.545419	-2.56452	0	
1.9800	1.89461	-2.85442	0	
1.9807	0.0574125	-0.111501	0	
1.9813	1.57884	-2.25232	0	
1.9820	4.65041	-4.39313	0	
1.9827	2.21038	-1.94011	0	
1.9833	-1.46402	-1.94011	0	
1.9840	-1.46402	-3.79103	0	
1.9847	-1.14825	-1.94011	0	
1.9853	-0.545419	-0.111501	0	
1.9860	0.373181	-1.94011	0	
1.9867	-2.06685	-1.94011	0	
1.9873	-3.90405	0.178401	0	
1.9880	-3.90405	0.802805	0	
1.9887	-5.74125	0.490603	0	
1.9893	-6.02831	1.40491	0	
1.9900	-4.82265	1.40491	0	
1.9907	-4.82265	0.802805	0	
1.9913	-4.82265	1.09271	0	
1.9920	-2.06685	1.09271	0	
1.9927	0.0574125	1.40491	0	
1.9933	-1.14825	2.63142	0	
1.9940	-2.06685	2.63142	0	
1.9947	1.57884	2.00701	0	
1.9953	4.33465	2.31922	0	
1.9960	1.89461	2.00701	0	
1.9967	0.68895	0.802805	0	
1.9973	3.73181	-0.111501	0	
1.9980	4.33465	0.490603	0	
1.9987	2.49744	1.71711	0	
1.9993	4.93748	0.802805	0	
2.0000	6.17185	-1.94011	0	
2.0007	2.49744	-1.94011	0	
2.0013	2.49744	1.09271	0	
2.0020	6.17185	0.802805	0	
2.0027	7.09045	-2.56452	0	
2.0033	4.33465	-2.25232	0	
2.0040	3.41605	-1.02581	0	
2.0047	3.41605	-2.56452	0	
2.0053	2.21038	-4.70533	0	
2.0060	1.29178	-4.70533	0	
2.0067	2.49744	-3.79103	0	
2.0073	0.373181	-3.16662	0	
2.0080	-4.50688	-3.16662	0	
2.0087	-5.42548	-2.85442	0	
2.0093	-5.10971	0.490603	0	
2.0100	-8.46835	2.63142	0	
2.0107	-9.38695	0.802805	0	
2.0113	-6.65985	-0.111501	0	
2.0120	-6.02831	2.63142	0	
2.0127	-5.74125	3.54572	0	
2.0133	-4.21982	1.71711	0	
2.0140	-3.90405	1.09271	0	
2.0147	-1.46402	2.00701	0	
2.0153	5.25325	2.31922	0	
2.0160	9.53048	2.00701	0	
2.0167	6.77468	1.71711	0	
2.0173	4.65041	1.71711	0	
2.0180	8.00905	1.71711	0	
2.0187	10.7361	1.09271	0	
2.0193	10.7361	0.802805	0	
2.0200	12.2863	0.490603	0	
2.0207	13.4919	-0.423703	0	
2.0213	11.9705	-3.47882	0	
2.0220	11.9705	-4.39313	0	
2.0227	12.2863	-2.85442	0	
2.0233	8.92765	-1.33801	0	
2.0240	7.37751	-2.56452	0	
2.0247	8.61188	-3.79103	0	
2.0253	6.77468	-2.85442	0	
2.0260	5.25325	-0.423703	0	
2.0267	5.85608	0.490603	0	
2.0273	2.49744	-1.94011	0	
2.0280	-0.22965	-3.16662	0	
2.0287	0.976013	-1.02581	0	
2.0293	-0.22965	0.802805	0	
2.0300	-2.06685	0.802805	0	
2.0307	0.0574125	1.40491	0	
2.0313	0.373181	1.40491	0	
2.0320	-2.98545	-0.111501	0	
2.0327	-3.90405	0.802805	0	
2.0333	-3.58828	2.94362	0	
2.0340	-3.90405	2.63142	0	
2.0347	-1.46402	0.490603	0	
2.0353	0.373181	-0.423703	0	
2.0360	-1.75108	-0.111501	0	
2.0367	-2.66968	-0.735905	0	
2.0373	-1.75108	-0.423703	0	
2.0380	-1.46402	1.09271	0	
2.0387	-2.06685	0.802805	0	
2.0393	-1.75108	-1.33801	0	
2.0400	-0.22965	-0.735905	0	
2.0407	-0.22965	1.71711	0	
2.0413	-1.75108	-0.111501	0	
2.0420	-1.14825	-2.85442	0	
2.0427	-0.545419	-2.85442	0	
2.0433	-3.90405	-1.33801	0	
2.0440	-5.74125	-0.111501	0	
2.0447	-1.14825	-0.735905	0	
2.0453	0.373181	-1.94011	0	
2.0460	-1.46402	-1.33801	0	
2.0467	-0.22965	-0.111501	0	
2.0473	-0.22965	-2.25232	0	
2.0480	-2.98545	-2.85442	0	
2.0487	-1.46402	-0.423703	0	
2.0493	0.976013	0.178401	0	
2.0500	0.0574125	-0.111501	0	
2.0507	-1.46402	1.71711	0	
2.0513	-2.38262	3.85793	0	
2.0520	-2.06685	3.23352	0	
2.0527	-1.14825	3.23352	0	
2.0533	-2.38262	4.46003	0	
2.0540	-2.98545	2.94362	0	
2.0547	0.373181	0.178401	0	
2.0553	0.976013	-1.02581	0	
2.0560	-2.06685	-0.111501	0	
2.0567	-1.14825	1.09271	0	
2.0573	2.49744	1.09271	0	
2.0580	1.89461	-0.735905	0	
2.0587	-1.14825	-1.33801	0	
2.0593	-2.38262	-0.735905	0	
2.0600	-2.38262	-1.02581	0	
2.0607	-1.14825	-1.94011	0	
2.0613	0.68895	-1.02581	0	
2.0620	1.29178	-1.02581	0	
2.0627	0.373181	-1.65021	0	
2.0633	-1.14825	-2.25232	0	
2.0640	-1.46402	-3.47882	0	
2.0647	0.68895	-3.47882	0	
2.0653	2.21038	-1.33801	0	
2.0660	-0.861188	-0.735905	0	
2.0667	-3.90405	-1.02581	0	
2.0673	-1.14825	-1.02581	0	
2.0680	-0.22965	-1.33801	0	
2.0687	-3.90405	-0.735905	0	
2.0693	-3.58828	0.490603	0	
2.0700	-0.22965	-1.65021	0	
2.0707	-2.06685	-1.94011	0	
2.0713	-3.90405	1.71711	0	
2.0720	-2.66968	1.40491	0	
2.0727	-3.90405	-1.33801	0	
2.0733	-7.54975	0.490603	0	
2.0740	-7.26268	2.31922	0	
2.0747	-6.94692	0.178401	0	
2.0753	-8.46835	-0.111501	0	
2.0760	-7.54975	1.71711	0	
2.0767	-6.65985	2.31922	0	
2.0773	-8.46835	0.802805	0	
2.0780	-8.18128	1.40491	0	
2.0787	-4.82265	2.94362	0	
2.0793	-5.42548	1.71711	0	
2.0800	-7.54975	0.178401	0	
2.0807	-5.42548	0.802805	0	
2.0813	-1.14825	1.09271	0	
2.0820	-0.545419	-0.735905	0	
2.0827	-0.22965	-3.16662	0	
2.0833	2.49744	-4.70533	0	
2.0840	6.17185	-3.16662	0	
2.0847	5.56901	-0.423703	0	
2.0853	5.25325	-1.94011	0	
2.0860	8.92765	-3.47882	0	
2.0867	11.3677	-1.02581	0	
2.0873	9.21471	-1.65021	0	
2.0880	6.17185	-4.08093	0	
2.0887	4.33465	-2.85442	0	
2.0893	2.49744	-0.111501	0	
2.0900	3.41605	0.178401	0	
2.0907	5.25325	1.40491	0	
2.0913	0.976013	3.23352	0	
2.0920	-4.82265	2.00701	0	
2.0927	-4.82265	-0.111501	0	
2.0933	-3.30122	0.178401	0	
2.0940	-3.90405	0.802805	0	
2.0947	-1.46402	-1.02581	0	
2.0953	0.68895	0.802805	0	
2.0960	0.0574125	3.54572	0	
2.0967	-0.545419	0.802805	0	
2.0973	-1.14825	-1.65021	0	
2.0980	-0.861188	2.63142	0	
2.0987	0.976013	3.54572	0	
2.0993	0.68895	0.802805	0	
2.1000	0.0574125	2.31922	0	
2.1007	1.57884	2.94362	0	
2.1013	0.0574125	-1.02581	0	
2.1020	-0.861188	-1.02581	0	
2.1027	4.04758	1.71711	0	
2.1033	4.33465	1.09271	0	
2.1040	-2.06685	-1.02581	0	
2.1047	-2.06685	-1.02581	0	
2.1053	1.57884	-0.735905	0	
2.1060	1.57884	-0.423703	0	
2.1067	2.49744	-1.02581	0	
2.1073	4.33465	-1.94011	0	
2.1080	1.89461	-1.33801	0	
2.1087	0.373181	-1.33801	0	
2.1093	2.21038	-1.33801	0	
2.1100	-0.22965	0.802805	0	
2.1107	-3.30122	2.31922	0	
2.1113	-3.30122	-0.111501	0	
2.1120	-5.42548	-1.65021	0	
2.1127	-9.38695	-0.735905	0	
2.1133	-7.54975	-0.423703	0	
2.1140	-1.46402	-0.735905	0	
2.1147	-0.22965	-0.735905	0	
2.1153	-2.98545	-1.02581	0	
2.1160	-2.66968	-0.735905	0	
2.1167	0.68895	-1.02581	0	
2.1173	2.49744	-1.02581	0	
2.1180	4.04758	1.09271	0	
2.1187	4.33465	2.63142	0	
2.1193	2.81321	-0.111501	0	
2.1200	3.41605	-2.25232	0	
2.1207	5.25325	-0.423703	0	
2.1213	5.25325	0.802805	0	
2.1220	3.73181	-1.02581	0	
2.1227	5.25325	-2.85442	0	
2.1233	5.85608	-2.25232	0	
2.1240	4.04758	-0.735905	0	
2.1247	3.41605	-0.111501	0	
2.1253	4.65041	-2.56452	0	
2.1260	5.56901	-3.79103	0	
2.1267	7.09045	-0.111501	0	
2.1273	6.48762	2.63142	0	
2.1280	4.04758	-1.02581	0	
2.1287	4.33465	-3.16662	0	
2.1293	6.17185	-1.02581	0	
2.1300	5.56901	-1.02581	0	
2.1307	4.04758	-0.735905	0	
2.1313	3.12898	2.31922	0	
2.1320	1.57884	1.71711	0	
2.1327	0.373181	0.802805	0	
2.1333	0.68895	2.00701	0	
2.1340	0.68895	1.09271	0	
2.1347	1.29178	-0.735905	0	
2.1353	0.68895	0.178401	0	
2.1360	-1.75108	-1.02581	0	
2.1367	-0.22965	-2.25232	0	
2.1373	3.41605	0.802805	0	
2.1380	1.57884	2.63142	0	
2.1387	-1.14825	-0.111501	0	
2.1393	1.89461	-0.111501	0	
2.1400	-0.22965	0.490603	0	
2.1407	-5.42548	-2.85442	0	
2.1413	-2.98545	-4.39313	0	
2.1420	-0.545419	-3.79103	0	
2.1427	-3.90405	-3.47882	0	
2.1433	-2.06685	-2.56452	0	
2.1440	0.373181	-1.02581	0	
2.1447	-3.90405	-0.111501	0	
2.1453	-5.74125	-0.111501	0	
2.1460	-4.50688	-1.65021	0	
2.1467	-6.94692	-3.16662	0	
2.1473	-5.74125	-1.94011	0	
2.1480	-1.14825	-0.111501	0	
2.1487	-2.98545	-1.65021	0	
2.1493	-5.10971	-2.85442	0	
2.1500	-2.66968	-1.94011	0	
2.1507	-3.58828	0.802805	0	
2.1513	-6.02831	2.63142	0	
2.1520	-2.98545	2.31922	0	
2.1527	-1.14825	1.71711	0	
2.1533	-3.90405	2.63142	0	
2.1540	-4.82265	1.71711	0	
2.1547	-3.90405	-1.94011	0	
2.1553	-3.58828	-1.65021	0	
2.1560	-2.98545	1.71711	0	
2.1567	-5.10971	-0.423703	0	
2.1573	-9.09989	-2.85442	0	
2.1580	-9.09989	0.178401	0	
2.1587	-6.94692	2.63142	0	
2.1593	-5.74125	0.802805	0	
2.1600	-3.90405	0.802805	0	
2.1607	-5.42548	0.802805	0	
2.1613	-7.26268	-0.423703	0	
2.1620	-4.21982	-0.423703	0	
2.1627	-2.98545	-0.735905	0	
2.1633	-5.74125	-1.94011	0	
2.1640	-4.21982	-0.423703	0	
2.1647	-0.545419	1.71711	0	
2.1653	-1.75108	0.802805	0	
2.1660	-2.98545	-0.735905	0	
2.1667	-0.861188	-1.02581	0	
2.1673	0.0574125	0.178401	0	
2.1680	-1.46402	1.40491	0	
2.1687	-2.98545	-0.735905	0	
2.1693	-2.98545	-1.94011	0	
2.1700	-1.75108	2.63142	0	
2.1707	-2.06685	4.14783	0	
2.1713	-4.82265	0.490603	0	
2.1720	-6.65985	1.71711	0	
2.1727	-6.02831	5.06213	0	
2.1733	-3.90405	2.63142	0	
2.1740	-2.06685	0.802805	0	
2.1747	-2.98545	2.94362	0	
2.1753	-6.02831	2.94362	0	
2.1760	-6.65985	0.802805	0	
2.1767	-4.50688	0.490603	0	
2.1773	-2.98545	1.71711	0	
2.1780	-2.98545	2.31922	0	
2.1787	-2.38262	1.09271	0	
2.1793	-1.14825	0.178401	0	
2.1800	0.373181	1.09271	0	
2.1807	-0.22965	1.09271	0	
2.1813	-1.14825	-0.111501	0	
2.1820	0.0574125	-0.423703	0	
2.1827	-0.22965	-0.735905	0	
2.1833	-0.861188	-0.423703	0	
2.1840	0.68895	1.71711	0	
2.1847	2.21038	1.09271	0	
2.1853	1.57884	-1.94011	0	
2.1860	1.89461	-1.65021	0	
2.1867	2.21038	-0.111501	0	
2.1873	-0.22965	-1.94011	0	
2.1880	-2.98545	-3.47882	0	
2.1887	-2.06685	-1.02581	0	
2.1893	1.57884	1.40491	0	
2.1900	1.89461	0.178401	0	
2.1907	-0.22965	-1.33801	0	
2.1913	0.0574125	-0.111501	0	
2.1920	1.29178	1.71711	0	
2.1927	-0.861188	0.802805	0	
2.1933	-1.14825	-0.735905	0	
2.1940	1.29178	-0.423703	0	
2.1947	0.68895	0.490603	0	
2.1953	0.68895	0.802805	0	
2.1960	2.49744	0.802805	0	
2.1967	2.21038	0.802805	0	
2.1973	0.0574125	-0.111501	0	
2.1980	-1.14825	-1.02581	0	
2.1987	-2.06685	-0.111501	0	
2.1993	-1.46402	-0.735905	0	
2.2000	-0.545419	-3.47882	0	
2.2007	-1.14825	-5.30744	0	
2.2013	0.68895	-4.08093	0	
2.2020	3.41605	-3.16662	0	
2.2027	3.12898	-3.47882	0	
2.2033	3.41605	-3.47882	0	
2.2040	4.65041	-4.39313	0	
2.2047	2.49744	-4.99523	0	
2.2053	1.57884	-3.16662	0	
2.2060	5.56901	-1.65021	0	
2.2067	8.00905	-3.16662	0	
2.2073	6.17185	-3.47882	0	
2.2080	6.77468	-0.735905	0	
2.2087	8.61188	1.09271	0	
2.2093	8.92765	0.178401	0	
2.2100	8.61188	-1.33801	0	
2.2107	8.61188	-0.423703	0	
2.2113	7.69328	2.63142	0	
2.2120	7.09045	3.23352	0	
2.2127	8.61188	2.63142	0	
2.2133	8.92765	2.63142	0	
2.2140	6.17185	1.40491	0	
2.2147	4.04758	1.40491	0	
2.2153	4.65041	2.00701	0	
2.2160	4.65041	-1.02581	0	
2.2167	1.89461	-2.85442	0	
2.2173	0.373181	-0.111501	0	
2.2180	0.976013	0.802805	0	
2.2187	1.57884	-2.25232	0	
2.2193	1.89461	-3.16662	0	
2.2200	1.57884	-2.85442	0	
2.2207	0.68895	-1.94011	0	
2.2213	2.81321	-1.94011	0	
2.2220	6.17185	-3.79103	0	
2.2227	4.33465	-4.70533	0	
2.2233	1.89461	-2.56452	0	
2.2240	2.49744	-2.25232	0	
2.2247	2.49744	-3.16662	0	
2.2253	0.68895	-1.94011	0	
2.2260	1.57884	-2.25232	0	
2.2267	2.49744	-3.79103	0	
2.2273	0.373181	-2.85442	0	
2.2280	-1.14825	-1.33801	0	
2.2287	-0.861188	-1.02581	0	
2.2293	-1.14825	-0.111501	0	
2.2300	-2.66968	1.40491	0	
2.2307	-3.30122	1.40491	0	
2.2313	-2.66968	1.40491	0	
2.2320	-2.06685	1.71711	0	
2.2327	-3.90405	1.71711	0	
2.2333	-4.50688	1.71711	0	
2.2340	-1.75108	2.63142	0	
2.2347	-2.06685	2.63142	0	
2.2353	-5.74125	1.71711	0	
2.2360	-4.21982	0.802805	0	
2.2367	0.976013	0.490603	0	
2.2373	2.21038	2.31922	0	
2.2380	-1.14825	3.54572	0	
2.2387	-3.30122	0.802805	0	
2.2393	-5.10971	-2.85442	0	
2.2400	-6.65985	-1.65021	0	
2.2407	-4.50688	-0.111501	0	
2.2413	-1.46402	-1.02581	0	
2.2420	-1.14825	-1.65021	0	
2.2427	-1.14825	-3.47882	0	
2.2433	-1.46402	-5.30744	0	
2.2440	-1.75108	-3.47882	0	
2.2447	-0.22965	-0.111501	0	
2.2453	0.68895	-0.735905	0	
2.2460	-0.22965	-3.16662	0	
2.2467	-1.75108	-3.47882	0	
2.2473	-0.861188	-1.65021	0	
2.2480	-0.22965	-1.02581	0	
2.2487	-0.22965	-1.02581	0	
2.2493	0.68895	-0.111501	0	
2.2500	0.0574125	0.490603	0	
2.2507	-2.06685	-0.111501	0	
2.2513	-3.30122	0.802805	0	
2.2520	-3.90405	2.63142	0	
2.2527	-5.42548	2.00701	0	
2.2533	-7.86552	1.71711	0	
2.2540	-8.46835	2.63142	0	
2.2547	-7.26268	2.94362	0	
2.2553	-7.54975	1.71711	0	
2.2560	-8.78412	-0.423703	0	
2.2567	-7.54975	-0.423703	0	
2.2573	-5.74125	0.802805	0	
2.2580	-5.42548	0.178401	0	
2.2587	-5.10971	-1.02581	0	
2.2593	-6.34408	-0.111501	0	
2.2600	-7.54975	0.490603	0	
2.2607	-5.42548	0.178401	0	
2.2613	-2.98545	-0.735905	0	
2.2620	-5.42548	-1.02581	0	
2.2627	-6.34408	-2.25232	0	
2.2633	-3.58828	-2.56452	0	
2.2640	-2.66968	0.490603	0	
2.2647	-2.06685	1.71711	0	
2.2653	2.49744	-1.33801	0	
2.2660	4.04758	-2.56452	0	
2.2667	2.21038	0.178401	0	
2.2673	1.89461	-1.02581	0	
2.2680	1.57884	-3.16662	0	
2.2687	-1.75108	-1.02581	0	
2.2693	-1.14825	-0.111501	0	
2.2700	1.89461	-1.02581	0	
2.2707	-0.22965	1.71711	0	
2.2713	-3.58828	4.46003	0	
2.2720	-2.66968	2.00701	0	
2.2727	-2.98545	-0.111501	0	
2.2733	-3.30122	0.802805	0	
2.2740	-1.14825	0.802805	0	
2.2747	-0.545419	1.40491	0	
2.2753	-2.38262	1.71711	0	
2.2760	-2.98545	0.178401	0	
2.2767	-2.66968	-1.02581	0	
2.2773	-1.14825	0.490603	0	
2.2780	0.976013	0.802805	0	
2.2787	1.29178	-1.02581	0	
2.2793	1.57884	-0.735905	0	
2.2800	3.12898	0.490603	0	
2.2807	4.33465	-0.735905	0	
2.2813	3.73181	-2.56452	0	
2.2820	4.33465	-1.94011	0	
2.2827	7.09045	-1.94011	0	
2.2833	6.77468	-2.56452	0	
2.2840	2.49744	-1.65021	0	
2.2847	0.976013	-1.33801	0	
2.2853	2.49744	-3.47882	0	
2.2860	0.68895	-2.56452	0	
2.2867	-0.861188	0.490603	0	
2.2873	2.49744	-1.02581	0	
2.2880	2.49744	-3.16662	0	
2.2887	-0.545419	-0.423703	0	
2.2893	1.57884	2.31922	0	
2.2900	2.49744	1.40491	0	
2.2907	-2.06685	-0.111501	0	
2.2913	-2.66968	0.178401	0	
2.2920	-0.861188	0.178401	0	
2.2927	-0.22965	-0.111501	0	
2.2933	-0.22965	0.490603	0	
2.2940	-0.545419	2.63142	0	
2.2947	-0.545419	3.54572	0	
2.2953	1.57884	1.71711	0	
2.2960	2.81321	1.09271	0	
2.2967	3.41605	1.71711	0	
2.2973	5.25325	0.178401	0	
2.2980	7.09045	-2.85442	0	
2.2987	8.92765	-3.16662	0	
2.2993	10.1333	-1.94011	0	
2.3000	9.84625	-1.02581	0	
2.3007	8.92765	-1.02581	0	
2.3013	10.4491	-1.94011	0	
2.3020	10.7361	-1.65021	0	
2.3027	9.84625	-0.735905	0	
2.3033	8.92765	-0.735905	0	
2.3040	8.00905	-1.65021	0	
2.3047	6.17185	-2.56452	0	
2.3053	4.33465	-1.94011	0	
2.3060	3.73181	-0.735905	0	
2.3067	4.65041	-1.94011	0	
2.3073	3.41605	-3.79103	0	
2.3080	0.68895	-1.94011	0	
2.3087	0.0574125	0.490603	0	
2.3093	1.57884	-1.02581	0	
2.3100	1.89461	-1.94011	0	
2.3107	0.373181	-0.111501	0	
2.3113	-1.75108	0.178401	0	
2.3120	-2.66968	-1.65021	0	
2.3127	-3.90405	-0.111501	0	
2.3133	-5.74125	2.31922	0	
2.3140	-5.42548	2.31922	0	
2.3147	-2.98545	1.09271	0	
2.3153	-2.66968	1.09271	0	
2.3160	-3.90405	2.63142	0	
2.3167	-4.21982	2.63142	0	
2.3173	-4.21982	0.802805	0	
2.3180	-4.50688	-0.111501	0	
2.3187	-2.98545	1.09271	0	
2.3193	-2.98545	0.802805	0	
2.3200	-4.21982	-0.111501	0	
2.3207	-3.90405	0.178401	0	
2.3213	-2.98545	-0.111501	0	
2.3220	-3.30122	-2.25232	0	
2.3227	-4.21982	-2.85442	0	
2.3233	-4.21982	-1.94011	0	
2.3240	-1.14825	-1.02581	0	
2.3247	1.57884	-1.02581	0	
2.3253	0.0574125	-1.33801	0	
2.3260	-0.545419	-1.02581	0	
2.3267	0.976013	-1.94011	0	
2.3273	0.68895	-2.56452	0	
2.3280	-0.545419	0.490603	0	
2.3287	-0.861188	2.63142	0	
2.3293	-1.46402	0.802805	0	
2.3300	0.0574125	-0.735905	0	
2.3307	0.68895	-0.423703	0	
2.3313	-3.58828	-0.111501	0	
2.3320	-4.50688	1.71711	0	
2.3327	-2.06685	2.00701	0	
2.3333	-2.98545	0.802805	0	
2.3340	-3.90405	0.490603	0	
2.3347	-2.06685	0.490603	0	
2.3353	-2.98545	-1.02581	0	
2.3360	-3.30122	-1.02581	0	
2.3367	-2.06685	0.490603	0	
2.3373	-3.30122	2.00701	0	
2.3380	-2.98545	2.63142	0	
2.3387	-1.14825	1.71711	0	
2.3393	-3.90405	-0.111501	0	
2.3400	-6.02831	-0.735905	0	
2.3407	-2.38262	1.40491	0	
2.3413	0.68895	0.802805	0	
2.3420	1.29178	-2.25232	0	
2.3427	3.12898	-1.94011	0	
2.3433	4.33465	-0.111501	0	
2.3440	1.89461	-1.94011	0	
2.3447	-2.06685	-1.94011	0	
2.3453	-3.30122	-0.423703	0	
2.3460	-2.06685	-1.94011	0	
2.3467	-2.06685	-1.94011	0	
2.3473	-2.98545	-0.111501	0	
2.3480	-2.98545	-1.94011	0	
2.3487	-4.21982	-2.85442	0	
2.3493	-5.10971	-1.02581	0	
2.3500	-0.861188	-2.85442	0	
2.3507	2.49744	-3.47882	0	
2.3513	-0.861188	0.802805	0	
2.3520	-4.21982	1.71711	0	
2.3527	-2.98545	-0.423703	0	
2.3533	-2.98545	-0.111501	0	
2.3540	-5.42548	0.802805	0	
2.3547	-6.02831	0.802805	0	
2.3553	-6.94692	1.40491	0	
2.3560	-8.46835	0.490603	0	
2.3567	-6.65985	-0.735905	0	
2.3573	-3.30122	0.802805	0	
2.3580	-4.21982	1.40491	0	
2.3587	-5.42548	-0.111501	0	
2.3593	-4.21982	-1.94011	0	
2.3600	-2.98545	-3.79103	0	
2.3607	-1.46402	-3.47882	0	
2.3613	0.0574125	-1.94011	0	
2.3620	1.57884	-1.94011	0	
2.3627	2.49744	-2.85442	0	
2.3633	1.29178	-3.79103	0	
2.3640	-0.22965	-4.70533	0	
2.3647	2.49744	-2.85442	0	
2.3653	3.73181	-1.65021	0	
2.3660	1.57884	-3.79103	0	
2.3667	0.68895	-3.79103	0	
2.3673	0.0574125	-0.735905	0	
2.3680	-2.06685	-0.111501	0	
2.3687	0.0574125	-1.02581	0	
2.3693	2.81321	-1.94011	0	
2.3700	1.57884	-3.79103	0	
2.3707	0.0574125	-1.33801	0	
2.3713	0.0574125	4.46003	0	
2.3720	-1.14825	5.06213	0	
2.3727	-2.66968	0.178401	0	
2.3733	-3.90405	-2.25232	0	
2.3740	-3.90405	-0.735905	0	
2.3747	-0.22965	1.40491	0	
2.3753	0.976013	2.63142	0	
2.3760	0.0574125	2.94362	0	
2.3767	2.49744	2.63142	0	
2.3773	3.41605	0.802805	0	
2.3780	0.373181	-0.735905	0	
2.3787	1.57884	-1.02581	0	
2.3793	2.81321	0.490603	0	
2.3800	-1.14825	1.71711	0	
2.3807	-1.75108	0.802805	0	
2.3813	3.41605	-0.111501	0	
2.3820	3.12898	-0.423703	0	
2.3827	0.68895	-0.423703	0	
2.3833	2.49744	-0.735905	0	
2.3840	2.81321	-1.02581	0	
2.3847	2.49744	-2.25232	0	
2.3853	3.12898	-1.94011	0	
2.3860	2.49744	-1.02581	0	
2.3867	1.89461	-1.94011	0	
2.3873	3.41605	-1.94011	0	
2.3880	1.89461	0.802805	0	
2.3887	-1.14825	1.09271	0	
2.3893	-0.545419	0.802805	0	
2.3900	-0.545419	2.00701	0	
2.3907	-2.06685	0.490603	0	
2.3913	-0.22965	-1.02581	0	
2.3920	2.21038	1.40491	0	
2.3927	1.89461	2.31922	0	
2.3933	1.89461	-0.111501	0	
2.3940	1.57884	0.178401	0	
2.3947	0.68895	0.178401	0	
2.3953	1.29178	-2.25232	0	
2.3960	1.89461	-1.94011	0	
2.3967	2.21038	0.490603	0	
2.3973	3.41605	-0.735905	0	
2.3980	4.04758	-1.33801	0	
2.3987	2.49744	0.490603	0	
2.3993	0.68895	-0.423703	0	
2.4000	1.57884	-2.56452	0	
2.4007	4.93748	-1.02581	0	
2.4013	8.00905	-0.111501	0	
2.4020	8.61188	-2.25232	0	
2.4027	5.25325	-2.25232	0	
2.4033	0.976013	-0.423703	0	
2.4040	0.0574125	-1.33801	0	
2.4047	2.49744	-1.94011	0	
2.4053	3.12898	0.178401	0	
2.4060	1.57884	1.71711	0	
2.4067	1.57884	1.71711	0	
2.4073	4.04758	-0.111501	0	
2.4080	5.56901	-2.85442	0	
2.4087	2.49744	-1.65021	0	
2.4093	0.68895	1.71711	0	
2.4100	3.12898	0.802805	0	
2.4107	4.04758	-1.33801	0	
2.4113	0.0574125	0.490603	0	
2.4120	-2.06685	1.71711	0	
2.4127	-2.38262	0.802805	0	
2.4133	-3.90405	1.40491	0	
2.4140	-3.58828	1.71711	0	
2.4147	-2.06685	1.09271	0	
2.4153	-4.82265	1.40491	0	
2.4160	-5.74125	1.40491	0	
2.4167	-2.98545	0.802805	0	
2.4173	-3.30122	-0.111501	0	
2.4180	-4.82265	-0.423703	0	
2.4187	-3.30122	0.490603	0	
2.4193	-2.06685	-0.735905	0	
2.4200	-2.06685	-3.16662	0	
2.4207	-0.861188	-2.85442	0	
2.4213	-2.06685	-1.94011	0	
2.4220	-4.21982	-1.65021	0	
2.4227	-2.98545	-0.111501	0	
2.4233	-2.06685	-1.02581	0	
2.4240	-3.30122	-2.56452	0	
2.4247	-2.98545	0.178401	0	
2.4253	-2.98545	2.00701	0	
2.4260	-5.10971	0.178401	0	
2.4267	-4.50688	0.802805	0	
2.4273	-4.21982	0.802805	0	
2.4280	-6.65985	-0.735905	0	
2.4287	-6.65985	0.802805	0	
2.4293	-5.74125	2.63142	0	
2.4300	-6.65985	1.09271	0	
2.4307	-5.74125	1.09271	0	
2.4313	-3.30122	1.71711	0	
2.4320	-2.98545	-0.735905	0	
2.4327	-1.46402	-0.735905	0	
2.4333	-0.22965	2.00701	0	
2.4340	-0.22965	1.71711	0	
2.4347	1.89461	-0.735905	0	
2.4353	4.65041	-1.02581	0	
2.4360	4.93748	1.71711	0	
2.4367	4.93748	2.63142	0	
2.4373	5.25325	0.802805	0	
2.4380	3.41605	0.178401	0	
2.4387	2.49744	1.71711	0	
2.4393	2.81321	0.802805	0	
2.4400	2.49744	-0.111501	0	
2.4407	3.12898	0.178401	0	
2.4413	5.25325	-2.85442	0	
2.4420	3.41605	-3.79103	0	
2.4427	1.29178	1.71711	0	
2.4433	0.976013	4.46003	0	
2.4440	-0.22965	1.09271	0	
2.4447	-2.06685	-0.111501	0	
2.4453	-1.75108	0.802805	0	
2.4460	-2.66968	-1.02581	0	
2.4467	-4.50688	-1.02581	0	
2.4473	-3.30122	1.09271	0	
2.4480	-2.98545	1.71711	0	
2.4487	-4.82265	1.71711	0	
2.4493	-4.82265	1.71711	0	
2.4500	-4.21982	0.490603	0	
2.4507	-4.82265	0.178401	0	
2.4513	-5.10971	2.31922	0	
2.4520	-5.10971	3.54572	0	
2.4527	-5.10971	2.63142	0	
2.4533	-2.98545	0.802805	0	
2.4540	0.373181	-1.94011	0	
2.4547	0.68895	-2.25232	0	
2.4553	-1.14825	0.178401	0	
2.4560	0.0574125	0.802805	0	
2.4567	1.89461	-1.02581	0	
2.4573	0.373181	-0.111501	0	
2.4580	-0.545419	1.09271	0	
2.4587	1.29178	-1.02581	0	
2.4593	2.49744	-1.02581	0	
2.4600	2.81321	1.09271	0	
2.4607	2.49744	-1.65021	0	
2.4613	1.29178	-3.16662	0	
2.4620	1.89461	-0.111501	0	
2.4627	3.12898	-0.735905	0	
2.4633	1.89461	-2.85442	0	
2.4640	-0.22965	-0.735905	0	
2.4647	0.976013	-1.02581	0	
2.4653	2.49744	-3.79103	0	
2.4660	2.21038	-2.85442	0	
2.4667	0.68895	-1.02581	0	
2.4673	0.976013	-1.02581	0	
2.4680	1.57884	-0.423703	0	
2.4687	-1.14825	-2.85442	0	
2.4693	-3.58828	-5.61964	0	
2.4700	-1.75108	-2.85442	0	
2.4707	-1.46402	0.802805	0	
2.4713	-3.90405	-0.111501	0	
2.4720	-4.50688	0.802805	0	
2.4727	-4.82265	1.71711	0	
2.4733	-5.74125	-0.423703	0	
2.4740	-1.75108	-0.423703	0	
2.4747	2.49744	2.00701	0	
2.4753	2.81321	2.63142	0	
2.4760	2.49744	2.31922	0	
2.4767	1.89461	1.40491	0	
2.4773	0.68895	-0.423703	0	
2.4780	0.976013	-1.94011	0	
2.4787	-0.22965	-1.65021	0	
2.4793	-2.66968	-1.94011	0	
2.4800	-2.06685	-2.85442	0	
2.4807	-0.545419	-2.85442	0	
2.4813	-0.545419	-1.65021	0	
2.4820	0.68895	-1.94011	0	
2.4827	2.21038	-3.16662	0	
2.4833	2.49744	-2.85442	0	
2.4840	2.49744	-2.56452	0	
2.4847	2.21038	-2.85442	0	
2.4853	3.41605	-2.85442	0	
2.4860	6.17185	-0.423703	0	
2.4867	5.85608	-0.111501	0	
2.4873	3.12898	-1.33801	0	
2.4880	0.976013	-0.111501	0	
2.4887	0.68895	3.54572	0	
2.4893	3.41605	4.77223	0	
2.4900	5.25325	2.00701	0	
2.4907	1.89461	-0.111501	0	
2.4913	-1.14825	1.09271	0	
2.4920	-1.14825	2.31922	0	
2.4927	-2.06685	1.40491	0	
2.4933	-2.98545	0.802805	0	
2.4940	-1.14825	0.802805	0	
2.4947	-2.06685	0.802805	0	
2.4953	-4.82265	-0.111501	0	
2.4960	-1.75108	-0.111501	0	
2.4967	2.49744	2.00701	0	
2.4973	2.49744	2.94362	0	
2.4980	2.49744	0.490603	0	
2.4987	4.33465	-1.65021	0	
2.4993	3.41605	-1.65021	0	
2.5000	2.81321	-2.25232	0	
2.5007	5.25325	-3.47882	0	
2.5013	4.33465	-2.56452	0	
2.5020	1.29178	-1.94011	0	
2.5027	1.89461	-1.94011	0	
2.5033	4.04758	-1.94011	0	
2.5040	4.04758	-2.85442	0	
2.5047	4.33465	-2.85442	0	
2.5053	3.41605	-1.02581	0	
2.5060	1.57884	-0.735905	0	
2.5067	1.57884	-1.02581	0	
2.5073	1.29178	0.178401	0	
2.5080	-0.861188	1.71711	0	
2.5087	-2.38262	0.802805	0	
2.5093	-2.98545	0.490603	0	
2.5100	-3.90405	0.178401	0	
2.5107	-4.21982	0.802805	0	
2.5113	-4.50688	2.63142	0	
2.5120	-3.90405	1.71711	0	
2.5127	-2.98545	-1.02581	0	
2.5133	-1.14825	-0.423703	0	
2.5140	1.57884	1.71711	0	
2.5147	2.81321	2.31922	0	
2.5153	1.57884	1.09271	0	
2.5160	1.57884	-0.111501	0	
2.5167	3.41605	0.490603	0	
2.5173	2.21038	0.802805	0	
2.5180	-0.22965	0.490603	0	
2.5187	-1.14825	0.802805	0	
2.5193	-1.75108	1.09271	0	
2.5200	-0.861188	-1.02581	0	
2.5207	0.68895	-2.56452	0	
2.5213	0.373181	-3.47882	0	
2.5220	0.68895	-4.08093	0	
2.5227	1.89461	-3.79103	0	
2.5233	0.0574125	-2.56452	0	
2.5240	-2.06685	-1.94011	0	
2.5247	-0.861188	-1.65021	0	
2.5253	-0.545419	-1.94011	0	
2.5260	-1.46402	-3.16662	0	
2.5267	-1.75108	-3.79103	0	
2.5273	-2.06685	-3.79103	0	
2.5280	-2.06685	-2.25232	0	
2.5287	-2.06685	-1.02581	0	
2.5293	-3.58828	-1.94011	0	
2.5300	-4.82265	-1.02581	0	
2.5307	-3.30122	2.31922	0	
2.5313	-1.75108	1.71711	0	
2.5320	-1.75108	0.802805	0	
2.5327	-5.10971	3.54572	0	
2.5333	-10.6213	3.85793	0	
2.5340	-10.9084	2.94362	0	
2.5347	-7.54975	3.54572	0	
2.5353	-9.38695	2.63142	0	
2.5360	-11.2241	1.71711	0	
2.5367	-6.94692	3.54572	0	
2.5373	-4.50688	3.85793	0	
2.5380	-4.82265	3.85793	0	
2.5387	-0.22965	5.06213	0	
2.5393	3.41605	3.54572	0	
2.5400	1.57884	0.802805	0	
2.5407	1.57884	2.31922	0	
2.5413	4.93748	2.94362	0	
2.5420	6.17185	1.71711	0	
2.5427	5.25325	1.71711	0	
2.5433	5.85608	0.490603	0	
2.5440	3.12898	-1.94011	0	
2.5447	0.0574125	-1.65021	0	
2.5453	1.89461	-0.111501	0	
2.5460	4.93748	-1.02581	0	
2.5467	4.33465	-2.85442	0	
2.5473	3.41605	-2.25232	0	
2.5480	3.73181	-1.94011	0	
2.5487	4.33465	-1.02581	0	
2.5493	4.33465	0.802805	0	
2.5500	2.21038	3.23352	0	
2.5507	-0.861188	4.14783	0	
2.5513	-2.06685	2.63142	0	
2.5520	-2.98545	2.00701	0	
2.5527	-3.90405	4.14783	0	
2.5533	-4.21982	2.63142	0	
2.5540	-4.21982	-1.65021	0	
2.5547	-4.82265	-0.111501	0	
2.5553	-2.98545	4.46003	0	
2.5560	-2.66968	3.85793	0	
2.5567	-6.34408	2.31922	0	
2.5573	-6.65985	2.63142	0	
2.5580	-2.06685	1.71711	0	
2.5587	-0.545419	2.00701	0	
2.5593	-2.06685	2.94362	0	
2.5600	-0.545419	1.71711	0	
2.5607	-0.22965	0.490603	0	
2.5613	-2.06685	0.178401	0	
2.5620	-0.22965	-1.33801	0	
2.5627	2.21038	-1.94011	0	
2.5633	0.68895	-1.94011	0	
2.5640	0.0574125	-3.79103	0	
2.5647	0.68895	-2.25232	0	
2.5653	0.373181	1.09271	0	
2.5660	0.0574125	-0.111501	0	
2.5667	0.373181	-2.85442	0	
2.5673	-0.22965	-0.735905	0	
2.5680	-0.22965	-0.111501	0	
2.5687	-0.861188	-1.94011	0	
2.5693	-1.46402	-1.02581	0	
2.5700	-0.861188	0.802805	0	
2.5707	1.57884	0.490603	0	
2.5713	0.68895	0.178401	0	
2.5720	-2.38262	1.09271	0	
2.5727	-2.98545	1.09271	0	
2.5733	0.68895	1.71711	0	
2.5740	3.73181	3.54572	0	
2.5747	2.49744	3.85793	0	
2.5753	0.68895	1.09271	0	
2.5760	3.41605	-1.02581	0	
2.5767	6.17185	-1.02581	0	
2.5773	3.41605	-1.02581	0	
2.5780	0.68895	-1.33801	0	
2.5787	0.976013	-0.735905	0	
2.5793	1.57884	-1.02581	0	
2.5800	2.49744	-2.85442	0	
2.5807	3.41605	-2.85442	0	
2.5813	0.68895	-3.47882	0	
2.5820	-2.38262	-4.08093	0	
2.5827	-0.22965	-2.85442	0	
2.5833	1.29178	-1.33801	0	
2.5840	-0.22965	-2.25232	0	
2.5847	0.68895	-2.85442	0	
2.5853	2.81321	-2.85442	0	
2.5860	2.81321	-2.85442	0	
2.5867	1.57884	-2.25232	0	
2.5873	2.21038	-2.25232	0	
2.5880	5.25325	-3.79103	0	
2.5887	6.48762	-1.94011	0	
2.5893	3.41605	-0.735905	0	
2.5900	3.12898	-2.56452	0	
2.5907	4.93748	-2.85442	0	
2.5913	1.57884	-0.423703	0	
2.5920	-2.66968	0.490603	0	
2.5927	-2.06685	0.178401	0	
2.5933	-1.14825	0.802805	0	
2.5940	-2.98545	-0.111501	0	
2.5947	-4.82265	-0.423703	0	
2.5953	-4.82265	1.71711	0	
2.5960	-3.30122	1.71711	0	
2.5967	-2.98545	-1.33801	0	
2.5973	-4.21982	-1.02581	0	
2.5980	-4.21982	-0.111501	0	
2.5987	-4.50688	-1.33801	0	
2.5993	-5.42548	-1.33801	0	
2.6000	-3.58828	0.490603	0	
2.6007	-0.22965	-0.423703	0	
2.6013	0.68895	-2.56452	0	
2.6020	0.373181	-1.94011	0	
2.6027	-0.861188	-1.65021	0	
2.6033	0.373181	-3.79103	0	
2.6040	4.04758	-6.22174	0	
2.6047	4.65041	-4.99523	0	
2.6053	0.976013	-0.735905	0	
2.6060	0.373181	1.09271	0	
2.6067	2.81321	-1.02581	0	
2.6073	2.49744	-1.65021	0	
2.6080	-0.22965	-0.735905	0	
2.6087	-0.22965	-1.33801	0	
2.6093	0.0574125	-1.94011	0	
2.6100	-0.545419	-1.02581	0	
2.6107	-0.861188	-1.02581	0	
2.6113	-1.75108	-0.423703	0	
2.6120	-2.98545	1.71711	0	
2.6127	-1.14825	1.71711	0	
2.6133	0.373181	1.71711	0	
2.6140	-2.06685	3.85793	0	
2.6147	-3.90405	4.46003	0	
2.6153	-3.58828	1.71711	0	
2.6160	-4.82265	-0.735905	0	
2.6167	-5.74125	-0.111501	0	
2.6173	-3.58828	2.00701	0	
2.6180	-2.98545	2.31922	0	
2.6187	-4.50688	1.71711	0	
2.6193	-5.74125	3.54572	0	
2.6200	-5.42548	2.63142	0	
2.6207	-1.14825	-2.25232	0	
2.6213	3.41605	-1.02581	0	
2.6220	3.41605	1.71711	0	
2.6227	1.89461	-1.94011	0	
2.6233	4.93748	-3.79103	0	
2.6240	7.09045	-1.33801	0	
2.6247	4.33465	-1.94011	0	
2.6253	2.49744	-4.39313	0	
2.6260	2.21038	-2.25232	0	
2.6267	-0.861188	-0.423703	0	
2.6273	-2.38262	-2.85442	0	
2.6280	-1.14825	-4.70533	0	
2.6287	-1.75108	-3.47882	0	
2.6293	-3.90405	-0.423703	0	
2.6300	-4.50688	1.09271	0	
2.6307	-4.21982	-0.111501	0	
2.6313	-6.02831	-0.423703	0	
2.6320	-6.94692	1.09271	0	
2.6327	-5.10971	1.71711	0	
2.6333	-2.38262	0.802805	0	
2.6340	-1.14825	1.09271	0	
2.6347	-1.46402	2.63142	0	
2.6353	-3.30122	2.63142	0	
2.6360	-5.42548	1.71711	0	
2.6367	-7.26268	1.09271	0	
2.6373	-7.26268	0.178401	0	
2.6380	-5.74125	0.178401	0	
2.6387	-4.82265	1.71711	0	
2.6393	-3.30122	2.63142	0	
2.6400	-1.75108	1.71711	0	
2.6407	-1.75108	1.71711	0	
2.6413	-0.22965	1.09271	0	
2.6420	3.41605	-1.33801	0	
2.6427	4.65041	-2.25232	0	
2.6433	4.65041	0.802805	0	
2.6440	6.17185	2.63142	0	
2.6447	5.25325	0.490603	0	
2.6453	2.49744	-1.02581	0	
2.6460	2.49744	-1.02581	0	
2.6467	2.49744	-0.735905	0	
2.6473	-0.861188	-0.735905	0	
2.6480	-0.861188	-0.735905	0	
2.6487	1.89461	-0.735905	0	
2.6493	1.57884	-1.02581	0	
2.6500	0.68895	-2.25232	0	
2.6507	0.68895	-1.02581	0	
2.6513	0.68895	1.71711	0	
2.6520	1.89461	1.71711	0	
2.6527	3.12898	-1.65021	0	
2.6533	2.21038	-1.02581	0	
2.6540	0.976013	2.63142	0	
2.6547	1.57884	2.00701	0	
2.6553	1.57884	-1.02581	0	
2.6560	1.57884	-1.94011	0	
2.6567	2.81321	-1.02581	0	
2.6573	4.04758	-0.735905	0	
2.6580	4.93748	0.490603	0	
2.6587	6.17185	0.802805	0	
2.6593	5.85608	-1.02581	0	
2.6600	4.65041	-1.65021	0	
2.6607	4.04758	-1.65021	0	
2.6613	2.49744	-2.85442	0	
2.6620	2.49744	-2.85442	0	
2.6627	5.25325	-0.423703	0	
2.6633	6.77468	0.178401	0	
2.6640	3.73181	-1.02581	0	
2.6647	0.373181	-0.735905	0	
2.6653	-1.75108	-0.111501	0	
2.6660	0.0574125	-1.94011	0	
2.6667	3.73181	-2.85442	0	
2.6673	2.49744	-1.02581	0	
2.6680	-2.06685	-1.02581	0	
2.6687	-2.06685	-2.56452	0	
2.6693	-0.545419	-1.02581	0	
2.6700	-2.06685	-0.111501	0	
2.6707	-3.90405	-0.735905	0	
2.6713	-5.74125	-0.111501	0	
2.6720	-7.54975	2.31922	0	
2.6727	-7.86552	2.63142	0	
2.6733	-7.86552	1.40491	0	
2.6740	-7.54975	0.490603	0	
2.6747	-4.82265	2.31922	0	
2.6753	-3.90405	4.46003	0	
2.6760	-5.74125	2.31922	0	
2.6767	-6.02831	0.802805	0	
2.6773	-4.50688	3.23352	0	
2.6780	-2.06685	2.63142	0	
2.6787	0.976013	-0.111501	0	
2.6793	1.89461	0.178401	0	
2.6800	-0.545419	1.09271	0	
2.6807	-1.46402	-0.111501	0	
2.6813	1.57884	-2.85442	0	
2.6820	4.33465	-4.70533	0	
2.6827	3.41605	-4.70533	0	
2.6833	1.29178	-3.79103	0	
2.6840	0.373181	-3.79103	0	
2.6847	0.68895	-3.16662	0	
2.6853	0.373181	-1.02581	0	
2.6860	1.29178	-1.65021	0	
2.6867	1.89461	-1.94011	0	
2.6873	0.0574125	-0.423703	0	
2.6880	0.0574125	0.178401	0	
2.6887	0.0574125	-0.735905	0	
2.6893	-2.98545	-0.111501	0	
2.6900	-2.38262	1.40491	0	
2.6907	-0.545419	3.54572	0	
2.6913	-6.02831	3.54572	0	
2.6920	-9.38695	1.71711	0	
2.6927	-4.82265	1.71711	0	
2.6933	-3.58828	2.94362	0	
2.6940	-6.65985	1.71711	0	
2.6947	-6.34408	0.802805	0	
2.6953	-6.02831	2.31922	0	
2.6960	-6.65985	2.63142	0	
2.6967	-2.98545	0.802805	0	
2.6973	-1.14825	-0.111501	0	
2.6980	-3.58828	-0.735905	0	
2.6987	-3.30122	-0.735905	0	
2.6993	-1.14825	0.802805	0	
2.7000	-0.545419	1.40491	0	
2.7007	-0.22965	0.490603	0	
2.7013	-1.14825	-0.423703	0	
2.7020	-0.545419	-1.02581	0	
2.7027	3.73181	-1.02581	0	
2.7033	4.93748	0.178401	0	
2.7040	2.21038	0.802805	0	
2.7047	2.21038	-1.02581	0	
2.7053	3.41605	-3.79103	0	
2.7060	2.81321	-2.85442	0	
2.7067	2.49744	-1.33801	0	
2.7073	0.976013	-2.85442	0	
2.7080	-0.22965	-3.47882	0	
2.7087	1.57884	-1.02581	0	
2.7093	2.21038	-0.111501	0	
2.7100	0.373181	-1.33801	0	
2.7107	0.68895	0.178401	0	
2.7113	1.57884	2.00701	0	
2.7120	-0.545419	-0.111501	0	
2.7127	-1.46402	-0.111501	0	
2.7133	-0.22965	2.31922	0	
2.7140	0.373181	2.00701	0	
2.7147	0.373181	0.802805	0	
2.7153	1.29178	1.71711	0	
2.7160	2.49744	1.40491	0	
2.7167	3.12898	-0.423703	0	
2.7173	2.49744	-0.111501	0	
2.7180	1.89461	1.40491	0	
2.7187	1.57884	2.31922	0	
2.7193	0.68895	1.71711	0	
2.7200	0.976013	-0.111501	0	
2.7207	1.57884	0.178401	0	
2.7213	0.68895	0.490603	0	
2.7220	0.0574125	-1.33801	0	
2.7227	0.68895	-1.65021	0	
2.7233	0.68895	0.490603	0	
2.7240	1.89461	-0.111501	0	
2.7247	3.12898	-2.85442	0	
2.7253	0.68895	-1.33801	0	
2.7260	-1.46402	0.802805	0	
2.7267	1.89461	-0.111501	0	
2.7273	3.41605	-1.33801	0	
2.7280	-0.545419	-1.02581	0	
2.7287	-1.75108	-0.735905	0	
2.7293	0.976013	0.490603	0	
2.7300	0.0574125	2.31922	0	
2.7307	-3.58828	2.94362	0	
2.7313	-4.21982	2.31922	0	
2.7320	-4.50688	-0.111501	0	
2.7327	-6.34408	-2.85442	0	
2.7333	-5.42548	-1.65021	0	
2.7340	-3.90405	0.802805	0	
2.7347	-4.82265	-0.423703	0	
2.7353	-4.82265	-1.33801	0	
2.7360	-3.58828	0.802805	0	
2.7367	-4.21982	1.71711	0	
2.7373	-2.98545	-0.111501	0	
2.7380	-1.46402	-0.111501	0	
2.7387	-1.46402	0.802805	0	
2.7393	0.976013	-1.02581	0	
2.7400	4.93748	-1.94011	0	
2.7407	6.17185	-0.423703	0	
2.7413	6.48762	-0.111501	0	
2.7420	7.69328	-3.47882	0	
2.7427	8.92765	-5.61964	0	
2.7433	9.84625	-3.79103	0	
2.7440	9.84625	-1.02581	0	
2.7447	8.00905	-0.423703	0	
2.7453	6.77468	-1.94011	0	
2.7460	4.65041	-3.79103	0	
2.7467	1.29178	-3.79103	0	
2.7473	0.68895	-1.02581	0	
2.7480	1.57884	0.802805	0	
2.7487	0.0574125	-0.111501	0	
2.7493	-1.46402	-0.735905	0	
2.7500	-1.14825	-0.111501	0	
2.7507	-2.06685	-1.02581	0	
2.7513	-4.50688	-1.65021	0	
2.7520	-6.65985	-0.111501	0	
2.7527	-6.34408	0.802805	0	
2.7533	-3.58828	0.802805	0	
2.7540	-2.66968	2.31922	0	
2.7547	-3.58828	3.54572	0	
2.7553	-2.38262	2.63142	0	
2.7560	-1.14825	0.178401	0	
2.7567	-2.06685	-0.735905	0	
2.7573	-2.66968	0.178401	0	
2.7580	-1.14825	-0.111501	0	
2.7587	0.373181	-0.735905	0	
2.7593	1.89461	1.09271	0	
2.7600	5.25325	1.71711	0	
2.7607	7.69328	-1.02581	0	
2.7613	7.09045	-1.94011	0	
2.7620	5.85608	-1.02581	0	
2.7627	6.17185	-1.02581	0	
2.7633	4.33465	0.178401	0	
2.7640	0.976013	2.00701	0	
2.7647	1.29178	-0.111501	0	
2.7653	3.41605	-2.25232	0	
2.7660	2.21038	-1.33801	0	
2.7667	0.0574125	-1.02581	0	
2.7673	2.49744	-1.94011	0	
2.7680	2.49744	-1.33801	0	
2.7687	-2.98545	0.802805	0	
2.7693	-4.50688	0.802805	0	
2.7700	0.373181	-1.94011	0	
2.7707	0.976013	-1.02581	0	
2.7713	-1.75108	1.40491	0	
2.7720	-1.46402	-0.735905	0	
2.7727	-0.22965	-2.25232	0	
2.7733	-0.861188	1.71711	0	
2.7740	-1.14825	2.94362	0	
2.7747	-1.14825	-0.111501	0	
2.7753	-3.30122	1.40491	0	
2.7760	-5.10971	3.54572	0	
2.7767	-4.50688	-0.111501	0	
2.7773	-2.06685	-2.25232	0	
2.7780	-0.545419	1.71711	0	
2.7787	-0.22965	2.63142	0	
2.7793	1.57884	-0.111501	0	
2.7800	1.29178	0.802805	0	
2.7807	-3.90405	2.31922	0	
2.7813	-5.74125	-1.02581	0	
2.7820	-0.22965	-4.70533	0	
2.7827	1.29178	-4.08093	0	
2.7833	-2.66968	-1.02581	0	
2.7840	-2.66968	-0.735905	0	
2.7847	-1.14825	-3.47882	0	
2.7853	-2.06685	-2.85442	0	
2.7860	-1.75108	0.802805	0	
2.7867	-0.545419	0.178401	0	
2.7873	-3.58828	-2.56452	0	
2.7880	-5.42548	-0.111501	0	
2.7887	-4.21982	1.71711	0	
2.7893	-4.21982	-1.02581	0	
2.7900	-3.58828	-1.02581	0	
2.7907	-1.46402	2.00701	0	
2.7913	-2.98545	1.40491	0	
2.7920	-4.82265	0.802805	0	
2.7927	-3.58828	2.63142	0	
2.7933	-2.98545	1.40491	0	
2.7940	-4.82265	0.490603	0	
2.7947	-5.10971	2.63142	0	
2.7953	-5.74125	3.23352	0	
2.7960	-5.74125	1.40491	0	
2.7967	-3.90405	0.802805	0	
2.7973	-3.30122	0.802805	0	
2.7980	-4.21982	1.71711	0	
2.7987	-2.66968	1.40491	0	
2.7993	-2.06685	0.802805	0	
2.8000	-3.90405	2.00701	0	
2.8007	-3.90405	2.63142	0	
2.8013	-0.861188	-1.02581	0	
2.8020	2.81321	-3.79103	0	
2.8027	4.93748	-2.85442	0	
2.8033	4.04758	-1.02581	0	
2.8040	2.49744	-1.94011	0	
2.8047	1.89461	-1.94011	0	
2.8053	0.976013	-0.423703	0	
2.8060	-1.14825	-0.111501	0	
2.8067	-2.06685	-1.02581	0	
2.8073	-1.14825	-2.85442	0	
2.8080	-0.545419	-1.94011	0	
2.8087	-1.14825	0.802805	0	
2.8093	-1.14825	-0.111501	0	
2.8100	-0.22965	-2.56452	0	
2.8107	-0.22965	-1.02581	0	
2.8113	-1.14825	1.71711	0	
2.8120	-3.90405	1.09271	0	
2.8127	-5.74125	0.178401	0	
2.8133	-3.90405	-0.111501	0	
2.8140	-2.98545	-1.33801	0	
2.8147	-3.90405	-0.735905	0	
2.8153	-2.06685	2.94362	0	
2.8160	0.68895	2.94362	0	
2.8167	-0.545419	-1.02581	0	
2.8173	-1.46402	-2.85442	0	
2.8180	0.373181	-1.65021	0	
2.8187	-0.22965	-1.02581	0	
2.8193	0.0574125	-2.56452	0	
2.8200	3.41605	-2.56452	0	
2.8207	3.41605	-1.33801	0	
2.8213	0.373181	-1.94011	0	
2.8220	-0.22965	-1.94011	0	
2.8227	2.49744	-0.111501	0	
2.8233	4.33465	-0.735905	0	
2.8240	3.73181	-3.79103	0	
2.8247	1.89461	-4.08093	0	
2.8253	1.89461	-2.25232	0	
2.8260	1.89461	-1.02581	0	
2.8267	1.29178	0.490603	0	
2.8273	1.57884	1.40491	0	
2.8280	1.57884	-0.735905	0	
2.8287	-0.22965	-2.85442	0	
2.8293	1.57884	-1.65021	0	
2.8300	2.49744	-0.735905	0	
2.8307	-1.14825	-1.02581	0	
2.8313	-4.21982	-0.111501	0	
2.8320	-2.98545	-0.111501	0	
2.8327	-2.38262	0.178401	0	
2.8333	-3.90405	2.00701	0	
2.8340	-3.90405	2.31922	0	
2.8347	-3.30122	0.802805	0	
2.8353	-4.82265	2.63142	0	
2.8360	-6.34408	3.54572	0	
2.8367	-4.82265	-0.111501	0	
2.8373	-1.14825	-1.65021	0	
2.8380	0.68895	0.490603	0	
2.8387	0.68895	0.802805	0	
2.8393	1.57884	1.09271	0	
2.8400	4.04758	1.71711	0	
2.8407	4.33465	-1.65021	0	
2.8413	4.33465	-3.79103	0	
2.8420	5.85608	-1.94011	0	
2.8427	6.77468	-1.94011	0	
2.8433	5.56901	-1.94011	0	
2.8440	5.25325	1.09271	0	
2.8447	5.85608	1.09271	0	
2.8453	5.25325	-2.25232	0	
2.8460	3.41605	-2.25232	0	
2.8467	2.49744	-0.735905	0	
2.8473	1.57884	-0.111501	0	
2.8480	0.0574125	-0.111501	0	
2.8487	1.29178	-0.735905	0	
2.8493	2.49744	-0.735905	0	
2.8500	-0.22965	1.40491	0	
2.8507	-2.66968	1.71711	0	
2.8513	0.0574125	0.802805	0	
2.8520	1.57884	0.802805	0	
2.8527	-1.14825	1.40491	0	
2.8533	-2.38262	0.802805	0	
2.8540	-3.30122	-0.735905	0	
2.8547	-5.10971	-1.02581	0	
2.8553	-3.58828	0.178401	0	
2.8560	-1.46402	0.802805	0	
2.8567	-4.21982	-0.111501	0	
2.8573	-6.34408	1.09271	0	
2.8580	-3.30122	0.490603	0	
2.8587	-0.545419	-1.65021	0	
2.8593	-2.38262	0.490603	0	
2.8600	-4.82265	1.71711	0	
2.8607	-3.90405	-2.25232	0	
2.8613	-1.75108	-3.79103	0	
2.8620	-1.14825	-1.65021	0	
2.8627	0.68895	-1.02581	0	
2.8633	4.33465	-1.65021	0	
2.8640	3.73181	-1.33801	0	
2.8647	1.57884	-1.33801	0	
2.8653	1.57884	0.178401	0	
2.8660	-1.14825	1.71711	0	
2.8667	-3.90405	-0.735905	0	
2.8673	-1.75108	-2.25232	0	
2.8680	-0.22965	0.802805	0	
2.8687	-2.98545	3.23352	0	
2.8693	-4.50688	2.00701	0	
2.8700	-2.98545	0.490603	0	
2.8707	-2.06685	0.178401	0	
2.8713	-2.98545	-0.111501	0	
2.8720	-4.82265	0.802805	0	
2.8727	-4.21982	1.09271	0	
2.8733	-2.06685	-1.94011	0	
2.8740	-3.30122	-3.16662	0	
2.8747	-6.65985	-1.33801	0	
2.8753	-7.54975	-1.02581	0	
2.8760	-6.65985	-1.94011	0	
2.8767	-7.54975	-1.02581	0	
2.8773	-8.18128	-1.94011	0	
2.8780	-6.02831	-2.85442	0	
2.8787	-2.06685	-1.02581	0	
2.8793	-0.22965	-0.423703	0	
2.8800	1.29178	-1.33801	0	
2.8807	3.12898	-2.25232	0	
2.8813	4.65041	-3.79103	0	
2.8820	6.17185	-2.85442	0	
2.8827	6.77468	-0.111501	0	
2.8833	4.33465	-1.65021	0	
2.8840	0.373181	-3.47882	0	
2.8847	0.68895	-1.65021	0	
2.8853	3.41605	-1.65021	0	
2.8860	2.49744	-2.56452	0	
2.8867	0.373181	0.802805	0	
2.8873	-0.22965	2.00701	0	
2.8880	1.29178	-0.111501	0	
2.8887	2.49744	-0.111501	0	
2.8893	2.21038	-0.111501	0	
2.8900	0.976013	-2.85442	0	
2.8907	-0.22965	-2.25232	0	
2.8913	-1.14825	0.490603	0	
2.8920	-1.14825	0.178401	0	
2.8927	-1.14825	-0.111501	0	
2.8933	-0.22965	0.802805	0	
2.8940	0.68895	0.178401	0	
2.8947	0.373181	-0.111501	0	
2.8953	-0.22965	1.71711	0	
2.8960	0.0574125	1.71711	0	
2.8967	1.29178	-0.111501	0	
2.8973	2.21038	0.802805	0	
2.8980	3.41605	2.63142	0	
2.8987	5.85608	1.40491	0	
2.8993	5.25325	-1.02581	0	
2.9000	2.49744	-1.94011	0	
2.9007	0.976013	-2.25232	0	
2.9013	-0.22965	-1.02581	0	
2.9020	-1.14825	0.802805	0	
2.9027	0.68895	-1.02581	0	
2.9033	1.57884	-3.79103	0	
