0.0007	-0.147915	-3.75702	0	
0.0013	2.62549	-4.67033	0	
0.0020	3.51298	-5.27229	0	
0.0027	1.99685	-3.75702	0	
0.0033	2.62549	0.830282	0	
0.0040	3.51298	4.79488	0	
0.0047	3.21715	5.39683	0	
0.0053	1.07238	2.96826	0	
0.0060	-1.66404	0.518926	0	
0.0067	0.776554	-0.0830282	0	
0.0073	5.95358	-0.0830282	0	
0.0080	4.14162	-1.61905	0	
0.0087	-1.66404	-1.93041	0	
0.0093	-2.2557	-0.705739	0	
0.0100	-1.03541	-0.394384	0	
0.0107	-3.18017	0.830282	0	
0.0113	-5.32494	2.6569	0	
0.0120	-4.6963	3.88157	0	
0.0127	-5.62077	4.17217	0	
0.0133	-7.76554	1.74359	0	
0.0140	-8.06137	-1.30769	0	
0.0147	-7.1369	1.74359	0	
0.0153	-7.46971	6.6215	0	
0.0160	-7.46971	3.25886	0	
0.0167	-5.62077	-1.93041	0	
0.0173	-4.40047	0.830282	0	
0.0180	-4.6963	3.25886	0	
0.0187	-4.40047	1.74359	0	
0.0193	-2.88434	1.43224	0	
0.0200	-3.80881	2.05495	0	
0.0207	-4.6963	0.830282	0	
0.0213	-0.739575	-0.0830282	0	
0.0220	5.36192	-0.996338	0	
0.0227	6.87805	-2.84371	0	
0.0233	5.36192	-3.44567	0	
0.0240	5.36192	-4.06838	0	
0.0247	6.28639	-4.06838	0	
0.0253	5.06609	-1.93041	0	
0.0260	3.84579	-1.30769	0	
0.0267	3.84579	-2.221	0	
0.0273	3.84579	-1.30769	0	
0.0280	4.43745	-1.30769	0	
0.0287	3.84579	-1.93041	0	
0.0293	0.776554	-0.0830282	0	
0.0300	-1.95987	0.518926	0	
0.0307	-0.443745	-1.61905	0	
0.0313	1.07238	-0.394384	0	
0.0320	-2.88434	1.74359	0	
0.0327	-6.84107	0.20757	0	
0.0333	-4.6963	-0.394384	0	
0.0340	-2.88434	1.43224	0	
0.0347	-6.54524	2.05495	0	
0.0353	-6.54524	1.74359	0	
0.0360	-3.80881	3.25886	0	
0.0367	-4.6963	3.88157	0	
0.0373	-3.80881	2.6569	0	
0.0380	-1.66404	1.74359	0	
0.0387	-4.40047	0.830282	0	
0.0393	-5.62077	-0.996338	0	
0.0400	-1.66404	-0.996338	0	
0.0407	0.776554	0.830282	0	
0.0413	0.776554	0.20757	0	
0.0420	1.99685	-0.996338	0	
0.0427	1.99685	-0.0830282	0	
0.0433	1.70102	-0.0830282	0	
0.0440	3.21715	-1.30769	0	
0.0447	3.51298	0.830282	0	
0.0453	3.21715	0.518926	0	
0.0460	4.14162	-2.84371	0	
0.0467	3.51298	-0.996338	0	
0.0473	2.29268	1.74359	0	
0.0480	2.92132	-0.0830282	0	
0.0487	2.29268	-0.0830282	0	
0.0493	0.184894	1.74359	0	
0.0500	1.70102	-0.0830282	0	
0.0507	2.29268	-1.93041	0	
0.0513	-0.443745	1.43224	0	
0.0520	-1.03541	2.6569	0	
0.0527	-1.03541	1.43224	0	
0.0533	-4.6963	2.96826	0	
0.0540	-5.9166	3.57021	0	
0.0547	-3.80881	0.830282	0	
0.0553	-3.476	1.43224	0	
0.0560	-3.476	3.57021	0	
0.0567	-1.36821	1.74359	0	
0.0573	0.184894	0.830282	0	
0.0580	-0.147915	3.57021	0	
0.0587	-1.03541	4.17217	0	
0.0593	-0.147915	1.74359	0	
0.0600	1.70102	-0.0830282	0	
0.0607	2.62549	-0.705739	0	
0.0613	3.84579	-1.93041	0	
0.0620	5.36192	-2.53236	0	
0.0627	5.95358	-2.84371	0	
0.0633	6.87805	-3.75702	0	
0.0640	9.02282	-3.75702	0	
0.0647	9.61448	-0.996338	0	
0.0653	9.02282	0.20757	0	
0.0660	7.17388	-0.394384	0	
0.0667	5.06609	-0.996338	0	
0.0673	5.36192	-0.705739	0	
0.0680	7.17388	-1.30769	0	
0.0687	5.06609	-2.84371	0	
0.0693	3.51298	-2.221	0	
0.0700	5.95358	-0.996338	0	
0.0707	5.95358	-1.61905	0	
0.0713	1.70102	-1.61905	0	
0.0720	-0.147915	-0.0830282	0	
0.0727	-0.147915	-1.61905	0	
0.0733	-1.66404	-4.35898	0	
0.0740	-2.88434	-4.35898	0	
0.0747	-2.58851	-1.93041	0	
0.0753	-2.88434	1.74359	0	
0.0760	-2.58851	4.79488	0	
0.0767	-0.443745	5.70819	0	
0.0773	0.776554	5.39683	0	
0.0780	0.776554	5.39683	0	
0.0787	1.70102	4.79488	0	
0.0793	2.62549	3.57021	0	
0.0800	2.62549	1.43224	0	
0.0807	2.29268	-0.0830282	0	
0.0813	2.62549	-0.0830282	0	
0.0820	4.14162	-0.705739	0	
0.0827	5.65775	-1.93041	0	
0.0833	5.95358	-0.705739	0	
0.0840	3.84579	0.830282	0	
0.0847	3.84579	-0.996338	0	
0.0853	6.28639	-3.44567	0	
0.0860	5.36192	-3.75702	0	
0.0867	3.21715	-3.44567	0	
0.0873	4.14162	-2.53236	0	
0.0880	4.73328	-2.221	0	
0.0887	3.51298	-2.84371	0	
0.0893	1.70102	-1.61905	0	
0.0900	-0.739575	-0.996338	0	
0.0907	-2.2557	-1.93041	0	
0.0913	-3.80881	-1.30769	0	
0.0920	-6.54524	-0.705739	0	
0.0927	-7.1369	-0.996338	0	
0.0933	-6.24941	0.830282	0	
0.0940	-6.54524	2.6569	0	
0.0947	-6.84107	2.05495	0	
0.0953	-5.9166	1.74359	0	
0.0960	-6.84107	1.12088	0	
0.0967	-4.10464	-0.705739	0	
0.0973	1.40519	-1.61905	0	
0.0980	1.07238	-0.705739	0	
0.0987	-1.36821	-0.0830282	0	
0.0993	0.776554	0.20757	0	
0.1000	1.70102	-1.30769	0	
0.1007	0.480724	-3.44567	0	
0.1013	1.70102	-3.13431	0	
0.1020	2.62549	-2.84371	0	
0.1027	1.99685	-3.44567	0	
0.1033	1.70102	-2.84371	0	
0.1040	1.99685	-3.13431	0	
0.1047	1.70102	-4.67033	0	
0.1053	1.70102	-4.67033	0	
0.1060	1.70102	-4.67033	0	
0.1067	1.40519	-3.75702	0	
0.1073	-1.03541	-1.30769	0	
0.1080	-4.10464	-1.30769	0	
0.1087	-2.2557	-2.84371	0	
0.1093	-0.147915	-0.0830282	0	
0.1100	-2.88434	1.12088	0	
0.1107	-2.58851	-0.996338	0	
0.1113	-0.147915	-0.996338	0	
0.1120	-2.58851	1.43224	0	
0.1127	-5.02911	1.74359	0	
0.1133	-3.80881	0.518926	0	
0.1140	-4.40047	0.518926	0	
0.1147	-5.32494	2.34555	0	
0.1153	-4.6963	3.57021	0	
0.1160	-5.62077	1.74359	0	
0.1167	-4.6963	0.518926	0	
0.1173	-2.88434	1.43224	0	
0.1180	-4.6963	0.830282	0	
0.1187	-3.80881	-0.0830282	0	
0.1193	-0.147915	1.12088	0	
0.1200	-2.88434	1.74359	0	
0.1207	-6.24941	0.830282	0	
0.1213	-1.66404	0.20757	0	
0.1220	0.776554	0.830282	0	
0.1227	-1.95987	1.74359	0	
0.1233	-1.36821	0.20757	0	
0.1240	0.776554	-2.221	0	
0.1247	-0.739575	-1.30769	0	
0.1253	-0.443745	0.830282	0	
0.1260	1.40519	-0.705739	0	
0.1267	0.776554	-1.61905	0	
0.1273	-1.36821	-0.996338	0	
0.1280	-2.88434	-1.93041	0	
0.1287	-2.88434	-2.84371	0	
0.1293	-1.03541	-2.53236	0	
0.1300	-1.03541	-1.93041	0	
0.1307	-2.58851	0.830282	0	
0.1313	-1.66404	3.57021	0	
0.1320	-0.443745	2.6569	0	
0.1327	-2.88434	0.518926	0	
0.1333	-5.32494	1.43224	0	
0.1340	-4.6963	1.12088	0	
0.1347	-3.80881	-1.93041	0	
0.1353	-5.9166	-0.996338	0	
0.1360	-7.1369	2.6569	0	
0.1367	-5.9166	1.74359	0	
0.1373	-6.54524	-0.705739	0	
0.1380	-6.84107	0.830282	0	
0.1387	-3.80881	1.74359	0	
0.1393	-1.36821	-0.394384	0	
0.1400	-1.03541	1.12088	0	
0.1407	0.776554	2.6569	0	
0.1413	3.21715	0.830282	0	
0.1420	3.51298	1.74359	0	
0.1427	3.51298	1.43224	0	
0.1433	4.73328	-3.75702	0	
0.1440	5.65775	-3.44567	0	
0.1447	6.58222	0.830282	0	
0.1453	6.58222	-3.13431	0	
0.1460	5.65775	-8.03298	0	
0.1467	5.36192	-5.895	0	
0.1473	4.43745	-4.67033	0	
0.1480	4.14162	-5.58364	0	
0.1487	4.14162	-2.84371	0	
0.1493	1.99685	-1.93041	0	
0.1500	-0.147915	-5.58364	0	
0.1507	0.184894	-4.98169	0	
0.1513	0.776554	-0.705739	0	
0.1520	0.184894	1.74359	0	
0.1527	-0.443745	5.39683	0	
0.1533	-2.2557	10.2955	0	
0.1540	-4.10464	9.07083	0	
0.1547	-5.32494	4.48352	0	
0.1553	-6.54524	4.17217	0	
0.1560	-5.32494	5.10623	0	
0.1567	-1.95987	4.48352	0	
0.1573	-1.03541	4.17217	0	
0.1580	-0.147915	3.57021	0	
0.1587	0.776554	2.34555	0	
0.1593	-1.95987	0.518926	0	
0.1600	-2.88434	-0.996338	0	
0.1607	-1.36821	0.518926	0	
0.1613	-3.80881	2.34555	0	
0.1620	-5.62077	-0.0830282	0	
0.1627	-0.739575	-1.93041	0	
0.1633	2.62549	0.20757	0	
0.1640	1.70102	0.830282	0	
0.1647	1.70102	-0.705739	0	
0.1653	-0.147915	-0.996338	0	
0.1660	-1.95987	-0.996338	0	
0.1667	0.776554	-0.0830282	0	
0.1673	1.70102	1.43224	0	
0.1680	0.776554	0.20757	0	
0.1687	1.99685	-2.84371	0	
0.1693	2.29268	-2.53236	0	
0.1700	0.184894	0.518926	0	
0.1707	1.70102	1.12088	0	
0.1713	2.62549	-0.0830282	0	
0.1720	1.07238	-0.0830282	0	
0.1727	0.776554	1.74359	0	
0.1733	0.184894	0.830282	0	
0.1740	-2.2557	-0.996338	0	
0.1747	-2.58851	-1.30769	0	
0.1753	-0.443745	-0.996338	0	
0.1760	0.776554	-0.705739	0	
0.1767	1.99685	-0.394384	0	
0.1773	1.07238	-0.0830282	0	
0.1780	-1.95987	-0.0830282	0	
0.1787	-2.88434	-0.0830282	0	
0.1793	-3.18017	0.518926	0	
0.1800	-5.62077	1.43224	0	
0.1807	-4.6963	1.74359	0	
0.1813	-0.443745	0.830282	0	
0.1820	1.70102	0.518926	0	
0.1827	2.92132	0.830282	0	
0.1833	3.51298	-1.61905	0	
0.1840	3.21715	-3.44567	0	
0.1847	4.43745	-1.93041	0	
0.1853	6.28639	-1.30769	0	
0.1860	5.06609	-2.84371	0	
0.1867	3.21715	-3.13431	0	
0.1873	3.21715	-3.13431	0	
0.1880	2.62549	-3.13431	0	
0.1887	2.62549	-1.30769	0	
0.1893	3.51298	-1.61905	0	
0.1900	2.62549	-2.84371	0	
0.1907	1.99685	-0.394384	0	
0.1913	1.99685	2.6569	0	
0.1920	-0.147915	1.43224	0	
0.1927	-1.95987	-0.0830282	0	
0.1933	-1.03541	0.830282	0	
0.1940	-1.95987	1.43224	0	
0.1947	-3.476	2.6569	0	
0.1953	-2.88434	3.25886	0	
0.1960	-1.03541	-0.0830282	0	
0.1967	-0.739575	-1.93041	0	
0.1973	-0.739575	-0.996338	0	
0.1980	0.480724	-2.84371	0	
0.1987	1.99685	-4.98169	0	
0.1993	1.40519	-0.996338	0	
0.2000	-1.03541	2.96826	0	
0.2007	-0.147915	-0.996338	0	
0.2013	2.62549	-3.75702	0	
0.2020	3.51298	-1.61905	0	
0.2027	3.51298	-0.996338	0	
0.2033	5.36192	-0.0830282	0	
0.2040	7.50669	1.12088	0	
0.2047	7.50669	-0.705739	0	
0.2053	7.17388	-2.53236	0	
0.2060	6.58222	-0.996338	0	
0.2067	5.36192	-0.705739	0	
0.2073	3.84579	-1.30769	0	
0.2080	3.84579	-0.394384	0	
0.2087	4.43745	0.20757	0	
0.2093	3.84579	0.20757	0	
0.2100	2.92132	1.43224	0	
0.2107	4.14162	0.20757	0	
0.2113	5.36192	-1.93041	0	
0.2120	3.51298	-0.705739	0	
0.2127	0.184894	1.43224	0	
0.2133	-0.739575	0.518926	0	
0.2140	-0.443745	0.20757	0	
0.2147	-1.95987	1.12088	0	
0.2153	-3.80881	1.74359	0	
0.2160	-3.80881	3.25886	0	
0.2167	-1.03541	3.57021	0	
0.2173	0.776554	-0.0830282	0	
0.2180	-0.443745	-0.996338	0	
0.2187	-1.95987	3.25886	0	
0.2193	-0.443745	3.57021	0	
0.2200	1.07238	0.518926	0	
0.2207	0.480724	0.518926	0	
0.2213	-0.443745	0.830282	0	
0.2220	1.07238	-1.30769	0	
0.2227	3.51298	-2.221	0	
0.2233	3.84579	-0.394384	0	
0.2240	1.70102	0.20757	0	
0.2247	-0.147915	-0.705739	0	
0.2253	-0.147915	-0.0830282	0	
0.2260	1.99685	1.12088	0	
0.2267	4.14162	-0.0830282	0	
0.2273	1.99685	-3.44567	0	
0.2280	-1.95987	-4.06838	0	
0.2287	-3.80881	-3.75702	0	
0.2293	-3.80881	-3.44567	0	
0.2300	-2.88434	-2.84371	0	
0.2307	-3.80881	-2.84371	0	
0.2313	-4.6963	-2.221	0	
0.2320	-2.88434	-0.0830282	0	
0.2327	-1.95987	-0.705739	0	
0.2333	-4.6963	-2.84371	0	
0.2340	-5.62077	-2.84371	0	
0.2347	-2.88434	-3.13431	0	
0.2353	-4.10464	-4.06838	0	
0.2360	-4.6963	-1.93041	0	
0.2367	-0.443745	2.6569	0	
0.2373	0.184894	5.39683	0	
0.2380	-1.95987	6.93285	0	
0.2387	-0.739575	6.31014	0	
0.2393	-0.147915	3.57021	0	
0.2400	-1.66404	0.830282	0	
0.2407	-0.147915	-1.30769	0	
0.2413	0.480724	-1.30769	0	
0.2420	-0.739575	0.518926	0	
0.2427	-0.147915	0.830282	0	
0.2433	-0.147915	-0.0830282	0	
0.2440	-0.443745	1.43224	0	
0.2447	1.07238	1.74359	0	
0.2453	0.776554	0.830282	0	
0.2460	-1.03541	-0.0830282	0	
0.2467	-0.147915	-0.996338	0	
0.2473	0.480724	-1.61905	0	
0.2480	-0.739575	-1.93041	0	
0.2487	-1.03541	-2.84371	0	
0.2493	-1.03541	-2.221	0	
0.2500	-1.66404	-0.0830282	0	
0.2507	0.480724	-0.0830282	0	
0.2513	0.776554	-1.61905	0	
0.2520	-1.95987	-2.53236	0	
0.2527	-3.476	-1.93041	0	
0.2533	-3.18017	0.830282	0	
0.2540	-3.80881	2.6569	0	
0.2547	-6.24941	1.43224	0	
0.2553	-8.3572	0.20757	0	
0.2560	-6.84107	1.12088	0	
0.2567	-3.80881	0.20757	0	
0.2573	-4.6963	-0.0830282	0	
0.2580	-6.24941	1.12088	0	
0.2587	-2.88434	-0.0830282	0	
0.2593	-1.95987	-0.0830282	0	
0.2600	-4.40047	2.05495	0	
0.2607	-2.88434	0.518926	0	
0.2613	-0.147915	-2.221	0	
0.2620	-1.36821	-0.996338	0	
0.2627	-1.95987	-0.394384	0	
0.2633	0.776554	-2.221	0	
0.2640	2.62549	-0.996338	0	
0.2647	2.62549	0.518926	0	
0.2653	2.62549	-0.705739	0	
0.2660	2.62549	-0.996338	0	
0.2667	1.40519	-0.996338	0	
0.2673	-1.03541	-0.996338	0	
0.2680	-1.95987	-0.0830282	0	
0.2687	-1.95987	0.20757	0	
0.2693	-1.95987	-0.996338	0	
0.2700	-1.95987	-0.996338	0	
0.2707	-2.58851	0.20757	0	
0.2713	-4.40047	0.518926	0	
0.2720	-3.476	0.518926	0	
0.2727	-1.36821	-0.0830282	0	
0.2733	-3.18017	-0.705739	0	
0.2740	-4.6963	0.518926	0	
0.2747	-3.80881	3.25886	0	
0.2753	-5.62077	5.39683	0	
0.2760	-7.1369	5.39683	0	
0.2767	-3.80881	2.34555	0	
0.2773	-2.88434	1.12088	0	
0.2780	-6.24941	3.25886	0	
0.2787	-4.10464	3.57021	0	
0.2793	1.07238	-0.0830282	0	
0.2800	1.70102	-1.93041	0	
0.2807	-0.147915	-0.996338	0	
0.2813	-1.36821	-0.0830282	0	
0.2820	-1.03541	0.20757	0	
0.2827	-0.147915	-0.705739	0	
0.2833	1.07238	-1.93041	0	
0.2840	1.99685	-2.53236	0	
0.2847	2.62549	-1.93041	0	
0.2853	3.51298	-1.93041	0	
0.2860	5.36192	-2.221	0	
0.2867	4.43745	-0.996338	0	
0.2873	2.29268	1.74359	0	
0.2880	1.99685	2.96826	0	
0.2887	2.62549	1.12088	0	
0.2893	1.40519	-0.705739	0	
0.2900	1.40519	-0.394384	0	
0.2907	1.99685	-0.0830282	0	
0.2913	0.776554	-0.0830282	0	
0.2920	-0.147915	0.20757	0	
0.2927	0.480724	-0.394384	0	
0.2933	-0.147915	-0.0830282	0	
0.2940	-0.443745	2.05495	0	
0.2947	-0.147915	2.6569	0	
0.2953	-0.739575	1.74359	0	
0.2960	-1.95987	2.6569	0	
0.2967	-0.739575	1.12088	0	
0.2973	2.62549	0.518926	0	
0.2980	5.36192	3.57021	0	
0.2987	3.51298	3.57021	0	
0.2993	-0.443745	0.830282	0	
0.3000	-0.739575	2.05495	0	
0.3007	2.92132	3.88157	0	
0.3013	5.95358	-0.394384	0	
0.3020	6.58222	-3.44567	0	
0.3027	6.28639	-0.0830282	0	
0.3033	5.06609	0.830282	0	
0.3040	5.36192	-3.44567	0	
0.3047	8.09835	-5.27229	0	
0.3053	9.31865	-2.53236	0	
0.3060	9.02282	-0.996338	0	
0.3067	10.5389	-3.13431	0	
0.3073	10.2431	-1.93041	0	
0.3080	7.17388	0.518926	0	
0.3087	7.50669	-1.61905	0	
0.3093	9.02282	-3.75702	0	
0.3100	6.28639	-2.84371	0	
0.3107	3.21715	-2.53236	0	
0.3113	4.43745	-2.53236	0	
0.3120	5.95358	0.518926	0	
0.3127	4.43745	1.12088	0	
0.3133	2.29268	-0.996338	0	
0.3140	1.70102	-0.394384	0	
0.3147	1.40519	-0.0830282	0	
0.3153	-0.147915	-2.53236	0	
0.3160	-0.443745	-3.44567	0	
0.3167	0.776554	-1.61905	0	
0.3173	1.70102	-0.996338	0	
0.3180	3.21715	-2.53236	0	
0.3187	5.06609	-2.53236	0	
0.3193	3.51298	-1.30769	0	
0.3200	2.62549	-1.30769	0	
0.3207	3.84579	-1.61905	0	
0.3213	4.73328	-0.0830282	0	
0.3220	4.73328	-0.394384	0	
0.3227	4.43745	-2.221	0	
0.3233	2.62549	-0.996338	0	
0.3240	2.62549	-0.0830282	0	
0.3247	5.36192	-1.93041	0	
0.3253	4.73328	-3.13431	0	
0.3260	1.70102	-2.84371	0	
0.3267	2.29268	-4.35898	0	
0.3273	4.43745	-4.35898	0	
0.3280	4.14162	-2.221	0	
0.3287	1.70102	-1.93041	0	
0.3293	0.480724	-1.93041	0	
0.3300	1.70102	-1.30769	0	
0.3307	1.07238	-3.13431	0	
0.3313	-0.147915	-5.27229	0	
0.3320	1.70102	-4.06838	0	
0.3327	0.776554	-0.0830282	0	
0.3333	-4.6963	3.57021	0	
0.3340	-6.54524	6.01954	0	
0.3347	-6.54524	7.22345	0	
0.3353	-10.2061	8.15752	0	
0.3360	-12.0551	6.31014	0	
0.3367	-8.3572	3.57021	0	
0.3373	-8.06137	4.48352	0	
0.3380	-10.8348	5.39683	0	
0.3387	-10.2061	3.57021	0	
0.3393	-8.3572	2.6569	0	
0.3400	-9.5775	2.6569	0	
0.3407	-11.1306	1.12088	0	
0.3413	-9.28167	0.830282	0	
0.3420	-7.46971	0.518926	0	
0.3427	-6.84107	-0.996338	0	
0.3433	-5.62077	-0.0830282	0	
0.3440	-5.02911	0.830282	0	
0.3447	-7.46971	-0.0830282	0	
0.3453	-8.69001	-0.394384	0	
0.3460	-4.6963	0.518926	0	
0.3467	-3.476	-0.0830282	0	
0.3473	-7.46971	-0.394384	0	
0.3480	-9.28167	-0.394384	0	
0.3487	-6.84107	-0.0830282	0	
0.3493	-7.1369	1.43224	0	
0.3500	-9.28167	1.43224	0	
0.3507	-8.3572	-0.996338	0	
0.3513	-6.24941	-0.996338	0	
0.3520	-6.54524	-0.0830282	0	
0.3527	-10.2061	-0.705739	0	
0.3533	-12.3509	1.74359	0	
0.3540	-10.2061	5.39683	0	
0.3547	-8.3572	4.17217	0	
0.3553	-9.28167	1.74359	0	
0.3560	-9.5775	0.20757	0	
0.3567	-8.69001	-1.93041	0	
0.3573	-7.76554	-0.996338	0	
0.3580	-5.9166	0.518926	0	
0.3587	-5.9166	-1.61905	0	
0.3593	-8.98584	0.20757	0	
0.3600	-7.46971	4.48352	0	
0.3607	-3.80881	0.830282	0	
0.3613	-4.6963	-1.93041	0	
0.3620	-4.6963	1.74359	0	
0.3627	-1.03541	0.20757	0	
0.3633	0.184894	-3.75702	0	
0.3640	0.184894	-3.13431	0	
0.3647	0.184894	-1.61905	0	
0.3653	-1.95987	-1.61905	0	
0.3660	-0.443745	0.20757	0	
0.3667	3.21715	-0.394384	0	
0.3673	0.776554	-2.53236	0	
0.3680	-3.80881	-1.93041	0	
0.3687	-1.95987	-1.30769	0	
0.3693	0.480724	-0.996338	0	
0.3700	-0.443745	-0.394384	0	
0.3707	-1.95987	-1.61905	0	
0.3713	-2.58851	-2.221	0	
0.3720	-2.2557	-0.394384	0	
0.3727	-1.36821	-0.394384	0	
0.3733	-2.2557	-0.996338	0	
0.3740	-3.18017	1.12088	0	
0.3747	-1.66404	0.830282	0	
0.3753	-0.739575	-0.996338	0	
0.3760	0.776554	-0.0830282	0	
0.3767	3.21715	0.518926	0	
0.3773	3.51298	-0.996338	0	
0.3780	3.51298	-1.30769	0	
0.3787	5.36192	-0.394384	0	
0.3793	5.36192	-0.0830282	0	
0.3800	3.51298	-1.61905	0	
0.3807	3.51298	-1.93041	0	
0.3813	7.17388	-1.30769	0	
0.3820	10.8348	-1.30769	0	
0.3827	9.31865	-0.996338	0	
0.3833	6.87805	0.518926	0	
0.3840	9.02282	-0.0830282	0	
0.3847	11.7592	-1.30769	0	
0.3853	12.0551	-0.705739	0	
0.3860	12.6837	-0.996338	0	
0.3867	12.6837	-1.93041	0	
0.3873	10.8348	-1.61905	0	
0.3880	10.8348	-1.93041	0	
0.3887	11.4634	-3.13431	0	
0.3893	8.72699	-2.53236	0	
0.3900	6.28639	-1.30769	0	
0.3907	4.73328	0.518926	0	
0.3913	3.21715	2.6569	0	
0.3920	3.51298	1.12088	0	
0.3927	4.14162	-2.84371	0	
0.3933	2.92132	-1.93041	0	
0.3940	3.51298	0.830282	0	
0.3947	3.84579	2.6569	0	
0.3953	0.776554	4.48352	0	
0.3960	0.776554	3.57021	0	
0.3967	3.51298	0.20757	0	
0.3973	2.92132	0.20757	0	
0.3980	2.62549	1.43224	0	
0.3987	6.28639	-0.996338	0	
0.3993	5.95358	-2.84371	0	
0.4000	3.51298	-1.61905	0	
0.4007	4.43745	-0.0830282	0	
0.4013	5.36192	0.518926	0	
0.4020	5.36192	-0.394384	0	
0.4027	8.09835	-1.93041	0	
0.4033	9.02282	-1.93041	0	
0.4040	5.95358	-0.705739	0	
0.4047	6.28639	-1.61905	0	
0.4053	7.80252	-3.13431	0	
0.4060	4.43745	-1.93041	0	
0.4067	2.62549	-0.394384	0	
0.4073	4.14162	-0.705739	0	
0.4080	3.51298	-0.0830282	0	
0.4087	0.776554	0.830282	0	
0.4093	-0.147915	0.20757	0	
0.4100	-0.147915	0.830282	0	
0.4107	1.40519	2.6569	0	
0.4113	2.29268	2.6569	0	
0.4120	-1.36821	1.74359	0	
0.4127	-4.6963	1.74359	0	
0.4133	-2.58851	-0.705739	0	
0.4140	-1.03541	-0.996338	0	
0.4147	-3.18017	1.74359	0	
0.4153	-2.88434	1.43224	0	
0.4160	-0.147915	-0.996338	0	
0.4167	-1.03541	-0.0830282	0	
0.4173	-3.80881	1.12088	0	
0.4180	-4.10464	-0.0830282	0	
0.4187	-3.18017	-1.30769	0	
0.4193	-2.88434	-2.221	0	
0.4200	-2.2557	-3.13431	0	
0.4207	-0.739575	-2.53236	0	
0.4213	-0.443745	-1.61905	0	
0.4220	-1.66404	-1.30769	0	
0.4227	-1.95987	-1.61905	0	
0.4233	-1.03541	-3.44567	0	
0.4240	-1.36821	-4.67033	0	
0.4247	-1.66404	-4.06838	0	
0.4253	-1.66404	-3.44567	0	
0.4260	-2.2557	-0.705739	0	
0.4267	-4.6963	4.48352	0	
0.4273	-6.54524	5.70819	0	
0.4280	-6.24941	2.05495	0	
0.4287	-6.54524	1.74359	0	
0.4293	-9.28167	3.25886	0	
0.4300	-10.8348	1.74359	0	
0.4307	-10.2061	-0.996338	0	
0.4313	-8.98584	-0.0830282	0	
0.4320	-8.98584	2.96826	0	
0.4327	-12.9426	4.17217	0	
0.4333	-15.716	1.74359	0	
0.4340	-11.1306	-0.0830282	0	
0.4347	-7.46971	2.34555	0	
0.4353	-9.28167	3.25886	0	
0.4360	-7.46971	-0.0830282	0	
0.4367	-2.88434	-0.705739	0	
0.4373	-3.80881	0.830282	0	
0.4380	-5.02911	-1.61905	0	
0.4387	-4.6963	-2.84371	0	
0.4393	-4.6963	0.830282	0	
0.4400	-2.58851	1.43224	0	
0.4407	-0.147915	-0.0830282	0	
0.4413	0.776554	1.74359	0	
0.4420	2.62549	1.74359	0	
0.4427	5.06609	-1.93041	0	
0.4433	3.84579	-2.84371	0	
0.4440	2.29268	-1.93041	0	
0.4447	2.62549	-3.75702	0	
0.4453	3.84579	-3.44567	0	
0.4460	3.21715	0.518926	0	
0.4467	0.184894	0.830282	0	
0.4473	-0.147915	-1.93041	0	
0.4480	1.70102	-2.221	0	
0.4487	-1.36821	0.830282	0	
0.4493	-4.40047	1.74359	0	
0.4500	-1.95987	-1.30769	0	
0.4507	-1.36821	-2.84371	0	
0.4513	-4.6963	-0.0830282	0	
0.4520	-4.10464	1.12088	0	
0.4527	-2.88434	0.830282	0	
0.4533	-5.02911	1.74359	0	
0.4540	-5.62077	1.74359	0	
0.4547	-5.62077	0.830282	0	
0.4553	-6.54524	2.05495	0	
0.4560	-5.62077	2.6569	0	
0.4567	-4.10464	1.74359	0	
0.4573	-4.6963	1.74359	0	
0.4580	-4.10464	2.6569	0	
0.4587	-0.739575	2.6569	0	
0.4593	0.776554	1.74359	0	
0.4600	-0.443745	-0.0830282	0	
0.4607	-0.147915	-0.705739	0	
0.4613	3.51298	-1.93041	0	
0.4620	6.28639	-3.13431	0	
0.4627	7.50669	-1.61905	0	
0.4633	8.09835	0.20757	0	
0.4640	8.72699	-0.705739	0	
0.4647	9.02282	-0.996338	0	
0.4653	9.02282	-0.394384	0	
0.4660	9.61448	-2.84371	0	
0.4667	9.94729	-3.75702	0	
0.4673	8.72699	-2.221	0	
0.4680	6.28639	-0.996338	0	
0.4687	5.36192	-2.84371	0	
0.4693	5.06609	-3.75702	0	
0.4700	4.43745	-1.61905	0	
0.4707	3.51298	1.74359	0	
0.4713	3.21715	2.05495	0	
0.4720	2.92132	0.830282	0	
0.4727	2.62549	0.830282	0	
0.4733	0.776554	-0.0830282	0	
0.4740	-0.147915	-0.0830282	0	
0.4747	0.776554	1.74359	0	
0.4753	1.40519	1.43224	0	
0.4760	-0.147915	-0.0830282	0	
0.4767	0.184894	-0.996338	0	
0.4773	1.70102	-1.61905	0	
0.4780	1.99685	0.518926	0	
0.4787	0.184894	2.6569	0	
0.4793	-1.95987	0.20757	0	
0.4800	-1.36821	-1.93041	0	
0.4807	2.29268	-0.0830282	0	
0.4813	1.70102	0.518926	0	
0.4820	-1.95987	-0.0830282	0	
0.4827	-0.443745	1.74359	0	
0.4833	4.73328	1.43224	0	
0.4840	7.50669	-0.394384	0	
0.4847	7.17388	-0.996338	0	
0.4853	5.06609	-0.996338	0	
0.4860	3.84579	-2.84371	0	
0.4867	5.06609	-1.93041	0	
0.4873	5.36192	1.12088	0	
0.4880	2.92132	1.74359	0	
0.4887	1.40519	-2.84371	0	
0.4893	1.07238	-4.35898	0	
0.4900	-0.147915	-0.0830282	0	
0.4907	-0.443745	3.88157	0	
0.4913	-0.147915	2.6569	0	
0.4920	-1.95987	0.518926	0	
0.4927	-5.32494	-0.996338	0	
0.4933	-5.9166	-1.93041	0	
0.4940	-5.9166	-0.996338	0	
0.4947	-6.54524	0.20757	0	
0.4953	-3.80881	-0.0830282	0	
0.4960	-1.36821	0.20757	0	
0.4967	-3.80881	-1.30769	0	
0.4973	-4.6963	-4.06838	0	
0.4980	-2.88434	-2.84371	0	
0.4987	-5.62077	-0.0830282	0	
0.4993	-9.28167	-0.705739	0	
0.5000	-8.06137	-0.996338	0	
0.5007	-5.02911	1.74359	0	
0.5013	-4.40047	4.79488	0	
0.5020	-1.95987	7.53481	0	
0.5027	-0.443745	8.15752	0	
0.5033	-2.58851	5.10623	0	
0.5040	-2.88434	3.25886	0	
0.5047	0.184894	3.25886	0	
0.5053	0.776554	2.05495	0	
0.5060	0.184894	1.74359	0	
0.5067	0.776554	1.12088	0	
0.5073	0.776554	-0.996338	0	
0.5080	-0.147915	-1.93041	0	
0.5087	0.776554	-1.61905	0	
0.5093	2.29268	-1.30769	0	
0.5100	2.92132	0.20757	0	
0.5107	2.92132	1.74359	0	
0.5113	0.776554	0.20757	0	
0.5120	-2.2557	-0.394384	0	
0.5127	-4.10464	-0.0830282	0	
0.5133	-4.10464	-0.394384	0	
0.5140	-1.95987	-0.0830282	0	
0.5147	-1.03541	2.05495	0	
0.5153	-4.6963	2.6569	0	
0.5160	-6.54524	0.830282	0	
0.5167	-3.18017	0.20757	0	
0.5173	-2.88434	1.74359	0	
0.5180	-3.80881	0.830282	0	
0.5187	-0.147915	-1.30769	0	
0.5193	0.776554	-0.394384	0	
0.5200	-2.2557	0.518926	0	
0.5207	-1.03541	-0.996338	0	
0.5213	0.776554	-0.996338	0	
0.5220	-0.147915	0.20757	0	
0.5227	-0.739575	-0.394384	0	
0.5233	0.776554	0.518926	0	
0.5240	1.70102	1.74359	0	
0.5247	2.92132	-0.394384	0	
0.5253	3.21715	-0.996338	0	
0.5260	2.62549	2.05495	0	
0.5267	4.14162	2.34555	0	
0.5273	4.43745	-0.0830282	0	
0.5280	0.776554	-0.996338	0	
0.5287	-0.443745	-1.61905	0	
0.5293	1.70102	-0.996338	0	
0.5300	-0.147915	-0.705739	0	
0.5307	-1.66404	-0.394384	0	
0.5313	-0.147915	1.12088	0	
0.5320	-1.36821	0.830282	0	
0.5327	-4.6963	-0.996338	0	
0.5333	-6.84107	1.74359	0	
0.5340	-8.3572	3.57021	0	
0.5347	-9.28167	0.20757	0	
0.5353	-7.76554	0.20757	0	
0.5360	-7.1369	2.34555	0	
0.5367	-5.9166	0.518926	0	
0.5373	-2.88434	0.518926	0	
0.5380	-1.03541	2.96826	0	
0.5387	-1.03541	0.518926	0	
0.5393	-0.739575	-1.61905	0	
0.5400	-0.147915	0.518926	0	
0.5407	0.480724	-1.61905	0	
0.5413	3.51298	-4.35898	0	
0.5420	5.95358	-2.53236	0	
0.5427	5.65775	-2.84371	0	
0.5433	5.95358	-5.58364	0	
0.5440	8.09835	-3.75702	0	
0.5447	9.61448	-1.30769	0	
0.5453	8.09835	-1.93041	0	
0.5460	6.28639	-1.93041	0	
0.5467	7.17388	-1.93041	0	
0.5473	6.28639	-2.221	0	
0.5480	3.21715	-2.221	0	
0.5487	2.62549	-2.84371	0	
0.5493	2.29268	-1.61905	0	
0.5500	-0.739575	1.12088	0	
0.5507	-0.739575	1.43224	0	
0.5513	-0.443745	2.34555	0	
0.5520	-3.18017	3.88157	0	
0.5527	-2.88434	0.20757	0	
0.5533	-0.443745	-2.84371	0	
0.5540	-1.95987	1.12088	0	
0.5547	-2.88434	3.57021	0	
0.5553	-2.2557	-0.0830282	0	
0.5560	-1.95987	-0.996338	0	
0.5567	-0.147915	0.518926	0	
0.5573	2.62549	-0.996338	0	
0.5580	3.21715	-2.221	0	
0.5587	3.51298	-0.996338	0	
0.5593	5.06609	-0.705739	0	
0.5600	5.06609	-2.221	0	
0.5607	4.43745	-1.93041	0	
0.5613	5.36192	-0.0830282	0	
0.5620	6.58222	-0.394384	0	
0.5627	6.28639	-1.61905	0	
0.5633	5.06609	-1.61905	0	
0.5640	6.28639	-1.93041	0	
0.5647	6.58222	-2.84371	0	
0.5653	4.43745	-2.84371	0	
0.5660	3.51298	-2.53236	0	
0.5667	5.36192	-1.93041	0	
0.5673	7.17388	-0.394384	0	
0.5680	6.28639	0.518926	0	
0.5687	4.14162	-0.996338	0	
0.5693	1.70102	-0.996338	0	
0.5700	0.184894	1.74359	0	
0.5707	-0.739575	2.6569	0	
0.5713	-0.443745	-0.0830282	0	
0.5720	0.776554	-1.30769	0	
0.5727	-0.443745	-0.0830282	0	
0.5733	-4.40047	0.830282	0	
0.5740	-6.54524	1.74359	0	
0.5747	-4.6963	1.74359	0	
0.5753	-2.2557	0.830282	0	
0.5760	-1.66404	0.518926	0	
0.5767	-2.58851	-0.0830282	0	
0.5773	-3.80881	-0.705739	0	
0.5780	-2.58851	1.12088	0	
0.5787	1.99685	2.96826	0	
0.5793	4.73328	0.830282	0	
0.5800	2.62549	-0.996338	0	
0.5807	1.99685	0.20757	0	
0.5813	3.51298	-0.705739	0	
0.5820	4.43745	-2.53236	0	
0.5827	4.73328	-1.93041	0	
0.5833	6.58222	-1.30769	0	
0.5840	6.28639	-1.93041	0	
0.5847	4.43745	-2.53236	0	
0.5853	4.14162	-2.53236	0	
0.5860	4.43745	-1.61905	0	
0.5867	2.62549	-0.996338	0	
0.5873	-0.739575	-0.394384	0	
0.5880	-1.03541	2.6569	0	
0.5887	-0.739575	3.25886	0	
0.5893	-1.95987	-0.996338	0	
0.5900	-1.95987	-3.75702	0	
0.5907	0.776554	-2.53236	0	
0.5913	-0.147915	-0.996338	0	
0.5920	-4.40047	0.20757	0	
0.5927	-4.10464	-0.996338	0	
0.5933	-1.95987	-2.84371	0	
0.5940	-5.02911	0.20757	0	
0.5947	-9.5775	2.6569	0	
0.5953	-8.3572	1.43224	0	
0.5960	-5.62077	3.25886	0	
0.5967	-5.62077	4.79488	0	
0.5973	-5.62077	0.20757	0	
0.5980	-5.9166	-0.705739	0	
0.5987	-5.62077	2.96826	0	
0.5993	-4.6963	0.830282	0	
0.6000	-6.24941	-1.93041	0	
0.6007	-5.62077	-0.0830282	0	
0.6013	-0.147915	-0.996338	0	
0.6020	1.40519	-3.44567	0	
0.6027	-1.95987	-2.53236	0	
0.6033	0.184894	-3.75702	0	
0.6040	3.21715	-6.1856	0	
0.6047	1.40519	-2.53236	0	
0.6053	1.40519	2.96826	0	
0.6060	4.14162	4.79488	0	
0.6067	2.62549	4.48352	0	
0.6073	-0.443745	1.74359	0	
0.6080	-0.147915	-1.61905	0	
0.6087	-0.147915	-1.93041	0	
0.6093	-2.88434	-0.0830282	0	
0.6100	-4.6963	1.74359	0	
0.6107	-3.18017	0.830282	0	
0.6113	-3.476	-0.996338	0	
0.6120	-4.6963	-0.996338	0	
0.6127	-3.80881	0.830282	0	
0.6133	-3.80881	1.74359	0	
0.6140	-6.54524	2.6569	0	
0.6147	-6.84107	2.96826	0	
0.6153	-5.62077	1.12088	0	
0.6160	-6.84107	0.830282	0	
0.6167	-6.54524	4.17217	0	
0.6173	-3.476	5.70819	0	
0.6180	-1.36821	3.88157	0	
0.6187	1.40519	3.25886	0	
0.6193	2.29268	3.25886	0	
0.6200	0.776554	1.74359	0	
0.6207	1.40519	-0.0830282	0	
0.6213	0.480724	-0.996338	0	
0.6220	-2.88434	-0.0830282	0	
0.6227	0.184894	1.43224	0	
0.6233	4.43745	-0.0830282	0	
0.6240	2.62549	-2.221	0	
0.6247	1.70102	-0.394384	0	
0.6253	3.51298	0.830282	0	
0.6260	3.51298	-2.221	0	
0.6267	2.62549	-2.84371	0	
0.6273	1.07238	0.518926	0	
0.6280	-1.03541	-0.705739	0	
0.6287	-0.147915	-3.44567	0	
0.6293	-0.147915	-1.30769	0	
0.6300	-1.95987	-0.0830282	0	
0.6307	0.480724	-1.61905	0	
0.6313	3.51298	-0.996338	0	
0.6320	1.07238	1.12088	0	
0.6327	-3.18017	1.12088	0	
0.6333	-3.80881	0.20757	0	
0.6340	-2.58851	-0.705739	0	
0.6347	-1.03541	-0.0830282	0	
0.6353	-2.58851	2.34555	0	
0.6360	-5.9166	2.96826	0	
0.6367	-4.6963	2.6569	0	
0.6373	-1.03541	1.74359	0	
0.6380	-0.443745	-0.394384	0	
0.6387	-0.739575	-0.996338	0	
0.6393	-0.443745	0.830282	0	
0.6400	-0.147915	0.20757	0	
0.6407	0.776554	-1.93041	0	
0.6413	1.40519	-1.61905	0	
0.6420	1.40519	-0.0830282	0	
0.6427	3.51298	-0.996338	0	
0.6433	5.95358	-1.93041	0	
0.6440	6.28639	-1.93041	0	
0.6447	5.95358	-2.221	0	
0.6453	5.06609	-3.13431	0	
0.6460	4.43745	-3.44567	0	
0.6467	4.43745	-2.53236	0	
0.6473	3.51298	-0.996338	0	
0.6480	1.70102	0.518926	0	
0.6487	0.184894	1.12088	0	
0.6493	0.480724	0.830282	0	
0.6500	1.07238	0.20757	0	
0.6507	1.07238	0.20757	0	
0.6513	-0.443745	0.518926	0	
0.6520	-1.95987	1.43224	0	
0.6527	-2.58851	1.12088	0	
0.6533	-3.476	-1.30769	0	
0.6540	-4.6963	-1.93041	0	
0.6547	-4.10464	0.518926	0	
0.6553	-1.95987	-0.0830282	0	
0.6560	-1.03541	-0.996338	0	
0.6567	-1.95987	0.518926	0	
0.6573	-1.95987	-0.0830282	0	
0.6580	-1.03541	-2.221	0	
0.6587	0.184894	-0.394384	0	
0.6593	-1.03541	1.74359	0	
0.6600	-2.58851	-0.0830282	0	
0.6607	-0.739575	-0.996338	0	
0.6613	2.62549	-0.705739	0	
0.6620	2.29268	-1.93041	0	
0.6627	1.70102	-3.13431	0	
0.6633	4.14162	-2.84371	0	
0.6640	5.95358	-3.44567	0	
0.6647	3.51298	-3.44567	0	
0.6653	2.62549	-2.221	0	
0.6660	3.21715	-2.84371	0	
0.6667	2.62549	-3.75702	0	
0.6673	1.99685	-2.84371	0	
0.6680	2.92132	-2.84371	0	
0.6687	2.62549	-3.44567	0	
0.6693	0.480724	-1.93041	0	
0.6700	-1.03541	-0.394384	0	
0.6707	-2.2557	-1.93041	0	
0.6713	-2.88434	-2.221	0	
0.6720	-3.476	-0.705739	0	
0.6727	-4.10464	-0.394384	0	
0.6733	-1.95987	-0.394384	0	
0.6740	-0.147915	-0.0830282	0	
0.6747	-3.18017	-1.30769	0	
0.6753	-5.9166	-2.84371	0	
0.6760	-4.10464	-2.84371	0	
0.6767	-2.88434	-3.75702	0	
0.6773	-3.476	-2.84371	0	
0.6780	-3.80881	2.6569	0	
0.6787	-3.80881	7.84616	0	
0.6793	-2.88434	7.22345	0	
0.6800	-1.03541	4.48352	0	
0.6807	-1.36821	2.96826	0	
0.6813	-1.95987	0.830282	0	
0.6820	0.184894	-1.61905	0	
0.6827	1.40519	-0.0830282	0	
0.6833	-0.147915	2.6569	0	
0.6840	-1.36821	0.830282	0	
0.6847	-1.95987	-2.53236	0	
0.6853	-1.95987	-2.84371	0	
0.6860	-1.66404	-0.996338	0	
0.6867	-0.739575	0.20757	0	
0.6873	-0.739575	-0.394384	0	
0.6880	-2.2557	-0.0830282	0	
0.6887	-3.80881	2.34555	0	
0.6893	-1.95987	2.6569	0	
0.6900	-0.147915	-0.394384	0	
0.6907	-1.03541	-0.0830282	0	
0.6913	-1.95987	2.96826	0	
0.6920	-1.95987	2.6569	0	
0.6927	-3.80881	1.74359	0	
0.6933	-5.32494	3.57021	0	
0.6940	-3.80881	3.25886	0	
0.6947	-1.95987	2.05495	0	
0.6953	-2.58851	3.25886	0	
0.6960	-2.88434	2.96826	0	
0.6967	-1.36821	0.518926	0	
0.6973	-0.147915	-0.394384	0	
0.6980	-0.443745	-0.0830282	0	
0.6987	0.480724	-0.996338	0	
0.6993	1.99685	-1.93041	0	
0.7000	2.62549	-2.84371	0	
0.7007	3.51298	-2.84371	0	
0.7013	5.06609	-1.61905	0	
0.7020	5.65775	-2.221	0	
0.7027	6.87805	-3.75702	0	
0.7033	7.50669	-3.44567	0	
0.7040	5.65775	-1.93041	0	
0.7047	5.06609	-1.61905	0	
0.7053	5.95358	-1.61905	0	
0.7060	5.36192	-1.93041	0	
0.7067	3.51298	-1.93041	0	
0.7073	3.51298	-0.996338	0	
0.7080	2.62549	-1.61905	0	
0.7087	1.07238	-3.13431	0	
0.7093	0.480724	-1.30769	0	
0.7100	-0.147915	0.830282	0	
0.7107	-0.443745	-0.394384	0	
0.7113	0.184894	-1.61905	0	
0.7120	-0.739575	0.830282	0	
0.7127	-5.02911	2.6569	0	
0.7133	-7.76554	0.830282	0	
0.7140	-6.54524	-1.30769	0	
0.7147	-5.62077	-0.996338	0	
0.7153	-5.9166	1.43224	0	
0.7160	-6.84107	3.88157	0	
0.7167	-8.98584	3.57021	0	
0.7173	-10.502	1.12088	0	
0.7180	-9.5775	-0.0830282	0	
0.7187	-6.84107	0.830282	0	
0.7193	-4.40047	2.05495	0	
0.7200	-3.476	2.05495	0	
0.7207	-3.80881	-0.996338	0	
0.7213	-4.6963	-3.75702	0	
0.7220	-3.80881	-1.93041	0	
0.7227	0.776554	0.20757	0	
0.7233	4.43745	-0.705739	0	
0.7240	4.43745	-0.996338	0	
0.7247	4.43745	0.830282	0	
0.7253	7.17388	-0.996338	0	
0.7260	8.09835	-3.75702	0	
0.7267	6.58222	-4.06838	0	
0.7273	5.36192	-2.84371	0	
0.7280	5.95358	-1.61905	0	
0.7287	6.87805	-0.705739	0	
0.7293	5.36192	-1.93041	0	
0.7300	1.07238	-3.13431	0	
0.7307	1.40519	-0.996338	0	
0.7313	3.84579	1.43224	0	
0.7320	0.184894	1.43224	0	
0.7327	-4.6963	-0.0830282	0	
0.7333	-2.88434	-0.705739	0	
0.7340	-2.88434	0.830282	0	
0.7347	-7.76554	1.74359	0	
0.7353	-7.46971	-0.0830282	0	
0.7360	-1.95987	-0.996338	0	
0.7367	-1.03541	-0.996338	0	
0.7373	-2.88434	-1.93041	0	
0.7380	-1.95987	-1.93041	0	
0.7387	0.776554	-0.394384	0	
0.7393	1.99685	0.518926	0	
0.7400	2.29268	0.830282	0	
0.7407	2.62549	1.43224	0	
0.7413	3.51298	0.20757	0	
0.7420	4.14162	-1.30769	0	
0.7427	3.21715	-1.93041	0	
0.7433	1.70102	-1.93041	0	
0.7440	0.776554	-1.93041	0	
0.7447	-0.147915	-2.53236	0	
0.7453	-0.147915	-4.35898	0	
0.7460	1.40519	-3.75702	0	
0.7467	1.99685	-1.93041	0	
0.7473	-0.147915	-4.35898	0	
0.7480	-1.36821	-5.27229	0	
0.7487	-1.66404	-0.705739	0	
0.7493	-2.88434	1.74359	0	
0.7500	-3.80881	-0.705739	0	
0.7507	-2.58851	-0.705739	0	
0.7513	-3.80881	0.830282	0	
0.7520	-6.24941	1.74359	0	
0.7527	-5.9166	2.34555	0	
0.7533	-4.10464	0.830282	0	
0.7540	-2.88434	-0.0830282	0	
0.7547	-3.80881	2.6569	0	
0.7553	-5.62077	3.88157	0	
0.7560	-4.10464	3.25886	0	
0.7567	-1.03541	2.6569	0	
0.7573	-1.95987	1.12088	0	
0.7580	-3.476	1.12088	0	
0.7587	-2.58851	2.6569	0	
0.7593	-1.95987	1.12088	0	
0.7600	-1.36821	-0.996338	0	
0.7607	1.99685	-0.996338	0	
0.7613	1.99685	-2.84371	0	
0.7620	-0.147915	-4.06838	0	
0.7627	2.62549	-2.221	0	
0.7633	5.36192	-0.0830282	0	
0.7640	2.62549	0.518926	0	
0.7647	2.29268	0.518926	0	
0.7653	5.95358	-0.996338	0	
0.7660	4.73328	-1.61905	0	
0.7667	1.70102	-0.0830282	0	
0.7673	1.70102	0.830282	0	
0.7680	1.99685	0.20757	0	
0.7687	-0.147915	-0.705739	0	
0.7693	-1.36821	0.20757	0	
0.7700	-2.58851	2.96826	0	
0.7707	-1.66404	3.25886	0	
0.7713	1.70102	0.830282	0	
0.7720	2.62549	0.518926	0	
0.7727	-0.739575	1.12088	0	
0.7733	-1.95987	0.518926	0	
0.7740	0.776554	0.830282	0	
0.7747	1.40519	1.74359	0	
0.7753	-0.147915	1.43224	0	
0.7760	0.480724	1.74359	0	
0.7767	1.99685	2.96826	0	
0.7773	1.70102	2.6569	0	
0.7780	-1.03541	1.74359	0	
0.7787	-2.2557	2.05495	0	
0.7793	-1.66404	0.830282	0	
0.7800	-1.03541	-1.30769	0	
0.7807	0.480724	-0.996338	0	
0.7813	2.62549	-0.0830282	0	
0.7820	2.62549	-1.93041	0	
0.7827	2.62549	-2.84371	0	
0.7833	4.43745	-1.61905	0	
0.7840	7.50669	-1.93041	0	
0.7847	7.80252	-2.84371	0	
0.7853	6.28639	-2.221	0	
0.7860	4.73328	-3.75702	0	
0.7867	4.14162	-4.67033	0	
0.7873	4.43745	-0.0830282	0	
0.7880	3.51298	4.79488	0	
0.7887	0.776554	5.10623	0	
0.7893	-1.03541	3.88157	0	
0.7900	-1.66404	2.96826	0	
0.7907	-0.739575	1.12088	0	
0.7913	0.480724	0.20757	0	
0.7920	-1.95987	0.830282	0	
0.7927	-5.02911	-0.0830282	0	
0.7933	-3.80881	-0.996338	0	
0.7940	-2.58851	-0.0830282	0	
0.7947	-5.32494	1.74359	0	
0.7953	-5.02911	2.34555	0	
0.7960	-2.58851	1.74359	0	
0.7967	-4.10464	1.74359	0	
0.7973	-5.32494	1.74359	0	
0.7980	-3.476	2.6569	0	
0.7987	-3.80881	5.10623	0	
0.7993	-5.32494	4.48352	0	
0.8000	-3.80881	1.43224	0	
0.8007	-2.88434	-0.705739	0	
0.8013	-1.66404	-1.93041	0	
0.8020	1.70102	-3.75702	0	
0.8027	2.92132	-2.84371	0	
0.8033	3.21715	0.830282	0	
0.8040	4.73328	1.74359	0	
0.8047	6.28639	-1.93041	0	
0.8053	5.95358	-4.06838	0	
0.8060	5.36192	-2.221	0	
0.8067	4.14162	0.830282	0	
0.8073	4.43745	-0.394384	0	
0.8080	5.06609	-3.44567	0	
0.8087	3.51298	-4.06838	0	
0.8093	3.21715	-2.84371	0	
0.8100	3.84579	-1.30769	0	
0.8107	1.40519	-0.0830282	0	
0.8113	-0.739575	2.05495	0	
0.8120	-0.147915	2.96826	0	
0.8127	-1.95987	1.74359	0	
0.8133	-3.80881	0.830282	0	
0.8140	-3.18017	0.830282	0	
0.8147	-4.6963	-0.0830282	0	
0.8153	-6.54524	0.20757	0	
0.8160	-6.54524	2.6569	0	
0.8167	-8.69001	1.74359	0	
0.8173	-10.502	-0.996338	0	
0.8180	-6.24941	1.43224	0	
0.8187	-2.88434	4.79488	0	
0.8193	-3.18017	2.6569	0	
0.8200	-2.2557	-0.0830282	0	
0.8207	-1.66404	0.20757	0	
0.8213	-4.6963	0.830282	0	
0.8220	-5.32494	-0.0830282	0	
0.8227	-1.03541	-0.996338	0	
0.8233	1.40519	-0.0830282	0	
0.8240	1.07238	0.20757	0	
0.8247	0.776554	-0.996338	0	
0.8253	1.70102	-2.221	0	
0.8260	3.51298	-2.53236	0	
0.8267	5.06609	-2.53236	0	
0.8273	1.99685	-1.30769	0	
0.8280	-1.36821	-1.30769	0	
0.8287	1.99685	-3.44567	0	
0.8293	4.73328	-3.13431	0	
0.8300	2.29268	-1.30769	0	
0.8307	-0.147915	-1.93041	0	
0.8313	-0.443745	-1.30769	0	
0.8320	-2.88434	-0.0830282	0	
0.8327	-5.02911	-1.61905	0	
0.8333	-5.62077	-1.93041	0	
0.8340	-6.84107	-1.93041	0	
0.8347	-6.24941	-2.53236	0	
0.8353	-5.32494	-0.0830282	0	
0.8360	-7.1369	2.05495	0	
0.8367	-7.46971	-0.996338	0	
0.8373	-4.6963	-0.996338	0	
0.8380	-4.6963	3.25886	0	
0.8387	-5.02911	1.74359	0	
0.8393	-3.476	-1.93041	0	
0.8400	-3.476	-0.705739	0	
0.8407	-3.80881	0.20757	0	
0.8413	-1.95987	-0.0830282	0	
0.8420	-0.147915	1.43224	0	
0.8427	1.70102	1.74359	0	
0.8433	5.36192	-0.705739	0	
0.8440	7.17388	-0.996338	0	
0.8447	7.80252	-0.394384	0	
0.8453	9.02282	-2.221	0	
0.8460	7.80252	-3.75702	0	
0.8467	4.14162	-3.44567	0	
0.8473	3.51298	-3.44567	0	
0.8480	4.73328	-2.221	0	
0.8487	4.43745	-0.705739	0	
0.8493	4.43745	-1.93041	0	
0.8500	5.65775	-3.44567	0	
0.8507	5.36192	-0.705739	0	
0.8513	2.62549	1.74359	0	
0.8520	1.70102	0.830282	0	
0.8527	1.99685	0.518926	0	
0.8533	0.776554	2.6569	0	
0.8540	-1.36821	4.17217	0	
0.8547	-1.66404	2.05495	0	
0.8553	-2.88434	0.20757	0	
0.8560	-4.6963	0.830282	0	
0.8567	-3.80881	-0.0830282	0	
0.8573	-0.739575	-0.705739	0	
0.8580	-0.147915	0.518926	0	
0.8587	-1.03541	-0.996338	0	
0.8593	-1.03541	-3.75702	0	
0.8600	-1.03541	-1.93041	0	
0.8607	-1.36821	0.830282	0	
0.8613	-1.95987	-0.394384	0	
0.8620	-0.739575	-1.93041	0	
0.8627	-0.147915	-1.93041	0	
0.8633	-1.36821	-3.13431	0	
0.8640	-1.95987	-2.84371	0	
0.8647	-0.739575	1.74359	0	
0.8653	-1.36821	7.53481	0	
0.8660	-1.95987	9.98414	0	
0.8667	-0.147915	6.01954	0	
0.8673	0.776554	1.12088	0	
0.8680	-1.95987	0.518926	0	
0.8687	-5.32494	-0.0830282	0	
0.8693	-4.10464	-2.221	0	
0.8700	-1.03541	-0.996338	0	
0.8707	-1.36821	1.74359	0	
0.8713	-3.80881	1.43224	0	
0.8720	-2.58851	-0.996338	0	
0.8727	-0.443745	-1.93041	0	
0.8733	-1.36821	1.12088	0	
0.8740	-2.2557	4.48352	0	
0.8747	-1.03541	2.05495	0	
0.8753	-0.739575	-1.93041	0	
0.8760	-1.95987	-0.0830282	0	
0.8767	-1.66404	1.74359	0	
0.8773	0.776554	-0.705739	0	
0.8780	1.07238	-1.30769	0	
0.8787	-1.36821	-0.996338	0	
0.8793	-0.739575	-3.13431	0	
0.8800	2.62549	-3.75702	0	
0.8807	1.99685	-2.84371	0	
0.8813	0.184894	-3.75702	0	
0.8820	1.70102	-2.53236	0	
0.8827	2.62549	0.20757	0	
0.8833	0.184894	-0.996338	0	
0.8840	0.184894	-2.53236	0	
0.8847	2.62549	-0.996338	0	
0.8853	2.29268	-1.61905	0	
0.8860	0.776554	-2.84371	0	
0.8867	0.776554	-1.30769	0	
0.8873	0.480724	-0.0830282	0	
0.8880	-0.739575	-0.0830282	0	
0.8887	0.480724	0.830282	0	
0.8893	1.07238	-0.0830282	0	
0.8900	0.480724	-1.61905	0	
0.8907	1.40519	-0.705739	0	
0.8913	1.99685	-0.0830282	0	
0.8920	1.70102	-0.996338	0	
0.8927	2.62549	-0.996338	0	
0.8933	1.70102	-0.705739	0	
0.8940	-0.147915	-0.0830282	0	
0.8947	1.70102	-0.0830282	0	
0.8953	3.51298	-1.30769	0	
0.8960	1.70102	-0.996338	0	
0.8967	0.776554	1.12088	0	
0.8973	2.92132	1.43224	0	
0.8980	2.62549	-0.0830282	0	
0.8987	1.40519	2.05495	0	
0.8993	1.40519	5.10623	0	
0.9000	-0.147915	2.34555	0	
0.9007	-1.95987	-2.53236	0	
0.9013	-0.739575	-2.53236	0	
0.9020	1.70102	-0.705739	0	
0.9027	1.99685	-0.996338	0	
0.9033	1.70102	-2.84371	0	
0.9040	2.62549	-4.06838	0	
0.9047	3.84579	-2.84371	0	
0.9053	3.84579	1.12088	0	
0.9060	2.62549	0.830282	0	
0.9067	1.70102	-3.44567	0	
0.9073	2.62549	-3.44567	0	
0.9080	4.73328	-1.61905	0	
0.9087	4.43745	-2.53236	0	
0.9093	2.62549	-2.221	0	
0.9100	2.62549	-0.705739	0	
0.9107	4.43745	-0.996338	0	
0.9113	5.36192	-0.0830282	0	
0.9120	2.92132	1.12088	0	
0.9127	0.184894	-0.394384	0	
0.9133	-0.443745	-0.394384	0	
0.9140	-1.03541	0.830282	0	
0.9147	-2.2557	-0.705739	0	
0.9153	-2.88434	-0.0830282	0	
0.9160	-2.2557	2.34555	0	
0.9167	-2.88434	0.830282	0	
0.9173	-3.18017	0.518926	0	
0.9180	-3.18017	2.6569	0	
0.9187	-3.80881	2.6569	0	
0.9193	-3.18017	1.74359	0	
0.9200	-1.03541	1.74359	0	
0.9207	-0.147915	-0.0830282	0	
0.9213	-1.03541	-0.0830282	0	
0.9220	-2.88434	1.74359	0	
0.9227	-2.88434	0.830282	0	
0.9233	-1.36821	0.830282	0	
0.9240	-0.443745	2.34555	0	
0.9247	-0.147915	-0.0830282	0	
0.9253	-0.147915	-2.84371	0	
0.9260	-0.443745	-0.394384	0	
0.9267	-0.739575	0.830282	0	
0.9273	-1.03541	-0.394384	0	
0.9280	-0.443745	-0.705739	0	
0.9287	1.40519	-0.996338	0	
0.9293	1.99685	-0.996338	0	
0.9300	1.40519	0.518926	0	
0.9307	1.70102	-0.0830282	0	
0.9313	1.40519	-1.30769	0	
0.9320	-1.03541	-0.705739	0	
0.9327	-2.58851	1.74359	0	
0.9333	-2.2557	1.74359	0	
0.9340	-2.2557	-0.996338	0	
0.9347	-0.739575	-1.93041	0	
0.9353	1.40519	3.57021	0	
0.9360	-0.147915	8.15752	0	
0.9367	-1.36821	7.84616	0	
0.9373	0.184894	6.31014	0	
0.9380	0.480724	3.88157	0	
0.9387	-1.03541	0.518926	0	
0.9393	-0.147915	-0.0830282	0	
0.9400	1.70102	0.830282	0	
0.9407	0.776554	0.518926	0	
0.9413	-1.03541	0.830282	0	
0.9420	0.184894	0.830282	0	
0.9427	2.62549	-0.996338	0	
0.9433	2.62549	-0.996338	0	
0.9440	2.62549	0.830282	0	
0.9447	3.51298	-0.394384	0	
0.9453	3.51298	-0.0830282	0	
0.9460	4.14162	0.830282	0	
0.9467	5.36192	-2.84371	0	
0.9473	3.21715	-4.35898	0	
0.9480	1.40519	-0.996338	0	
0.9487	3.51298	-0.0830282	0	
0.9493	5.36192	-3.75702	0	
0.9500	2.62549	-4.67033	0	
0.9507	0.776554	-3.13431	0	
0.9513	0.480724	-0.996338	0	
0.9520	-0.147915	1.12088	0	
0.9527	-1.66404	0.830282	0	
0.9533	-3.476	-0.0830282	0	
0.9540	-5.32494	-0.0830282	0	
0.9547	-5.62077	1.12088	0	
0.9553	-6.54524	1.74359	0	
0.9560	-6.84107	0.830282	0	
0.9567	-4.6963	1.74359	0	
0.9573	-2.88434	3.57021	0	
0.9580	-3.80881	2.34555	0	
0.9587	-3.80881	0.20757	0	
0.9593	-3.80881	1.74359	0	
0.9600	-4.6963	1.74359	0	
0.9607	-1.36821	-0.705739	0	
0.9613	2.62549	-0.705739	0	
0.9620	0.776554	0.830282	0	
0.9627	-1.66404	-0.705739	0	
0.9633	2.62549	-3.13431	0	
0.9640	6.58222	-3.75702	0	
0.9647	5.65775	-3.13431	0	
0.9653	4.73328	-2.84371	0	
0.9660	5.36192	-3.13431	0	
0.9667	3.84579	-3.13431	0	
0.9673	2.62549	-1.93041	0	
0.9680	2.92132	-1.93041	0	
0.9687	1.99685	-1.30769	0	
0.9693	0.776554	0.20757	0	
0.9700	1.40519	-1.30769	0	
0.9707	1.70102	-3.75702	0	
0.9713	0.184894	-2.53236	0	
0.9720	-1.36821	0.830282	0	
0.9727	-3.476	1.43224	0	
0.9733	-5.02911	0.830282	0	
0.9740	-4.40047	0.518926	0	
0.9747	-2.88434	-1.93041	0	
0.9753	-2.58851	-3.75702	0	
0.9760	-1.95987	-1.30769	0	
0.9767	0.184894	1.43224	0	
0.9773	1.99685	0.20757	0	
0.9780	2.62549	-2.84371	0	
0.9787	2.92132	-3.13431	0	
0.9793	2.29268	-1.61905	0	
0.9800	1.70102	-0.705739	0	
0.9807	1.70102	0.830282	0	
0.9813	1.07238	1.12088	0	
0.9820	2.29268	-0.996338	0	
0.9827	4.14162	-3.13431	0	
0.9833	2.62549	-3.13431	0	
0.9840	0.480724	-2.84371	0	
0.9847	2.62549	-3.44567	0	
0.9853	5.36192	-3.44567	0	
0.9860	4.73328	-3.44567	0	
0.9867	3.84579	-3.13431	0	
0.9873	3.21715	-2.221	0	
0.9880	2.62549	-2.84371	0	
0.9887	1.99685	-2.84371	0	
0.9893	1.70102	-0.394384	0	
0.9900	1.40519	0.830282	0	
0.9907	0.776554	0.518926	0	
0.9913	-1.36821	1.74359	0	
0.9920	-3.18017	2.05495	0	
0.9927	-3.80881	-0.996338	0	
0.9933	-4.40047	-0.394384	0	
0.9940	-5.62077	3.25886	0	
0.9947	-4.6963	4.17217	0	
0.9953	-4.10464	3.57021	0	
0.9960	-6.24941	4.48352	0	
0.9967	-6.54524	3.57021	0	
0.9973	-1.95987	2.6569	0	
0.9980	-0.739575	2.05495	0	
0.9987	-4.6963	1.12088	0	
0.9993	-5.9166	0.830282	0	
1.0000	-2.88434	0.830282	0	
1.0007	-2.2557	-0.0830282	0	
1.0013	-3.476	-0.0830282	0	
1.0020	-3.18017	1.43224	0	
1.0027	-1.66404	0.830282	0	
1.0033	-0.147915	-0.996338	0	
1.0040	0.184894	-0.996338	0	
1.0047	-0.147915	0.20757	0	
1.0053	1.40519	0.830282	0	
1.0060	2.62549	1.74359	0	
1.0067	0.776554	2.6569	0	
1.0073	-1.95987	1.43224	0	
1.0080	-1.95987	-0.394384	0	
1.0087	1.70102	-0.996338	0	
1.0093	2.92132	-0.996338	0	
1.0100	0.184894	-0.996338	0	
1.0107	-1.03541	-0.996338	0	
1.0113	-1.36821	0.20757	0	
1.0120	-3.476	1.74359	0	
1.0127	-2.88434	-0.0830282	0	
1.0133	-0.739575	-2.221	0	
1.0140	-2.2557	-0.996338	0	
1.0147	-4.10464	0.518926	0	
1.0153	-2.88434	-0.394384	0	
1.0160	-3.476	-0.394384	0	
1.0167	-2.2557	1.74359	0	
1.0173	-0.147915	1.74359	0	
1.0180	-1.03541	-0.0830282	0	
1.0187	-1.03541	0.20757	0	
1.0193	2.62549	2.34555	0	
1.0200	1.99685	1.43224	0	
1.0207	1.70102	-0.394384	0	
1.0213	5.36192	0.518926	0	
1.0220	5.36192	1.12088	0	
1.0227	2.62549	-0.996338	0	
1.0233	3.51298	-3.75702	0	
1.0240	5.06609	-3.75702	0	
1.0247	3.51298	-0.996338	0	
1.0253	3.51298	-0.996338	0	
1.0260	3.21715	-3.75702	0	
1.0267	0.776554	-4.67033	0	
1.0273	-0.147915	-1.93041	0	
1.0280	-0.739575	-1.93041	0	
1.0287	-1.95987	-3.75702	0	
1.0293	-2.58851	-1.30769	0	
1.0300	-2.88434	2.34555	0	
1.0307	-3.80881	2.34555	0	
1.0313	-3.80881	2.96826	0	
1.0320	-4.6963	3.88157	0	
1.0327	-6.24941	1.74359	0	
1.0333	-6.54524	-0.705739	0	
1.0340	-7.46971	-0.996338	0	
1.0347	-7.1369	-0.705739	0	
1.0353	-3.18017	0.518926	0	
1.0360	-1.03541	1.74359	0	
1.0367	-3.18017	1.74359	0	
1.0373	-3.80881	0.20757	0	
1.0380	-1.95987	-0.0830282	0	
1.0387	-0.147915	0.20757	0	
1.0393	-0.147915	1.43224	0	
1.0400	-0.147915	2.6569	0	
1.0407	-0.739575	2.34555	0	
1.0413	-0.147915	-0.996338	0	
1.0420	2.29268	-4.06838	0	
1.0427	4.43745	-3.75702	0	
1.0433	4.43745	-2.53236	0	
1.0440	2.62549	-4.35898	0	
1.0447	2.62549	-5.58364	0	
1.0453	3.21715	-4.67033	0	
1.0460	3.21715	-4.67033	0	
1.0467	3.21715	-3.75702	0	
1.0473	1.70102	-3.75702	0	
1.0480	-1.95987	-5.58364	0	
1.0487	-1.36821	-5.895	0	
1.0493	-0.147915	-4.35898	0	
1.0500	-2.2557	-2.221	0	
1.0507	-2.88434	1.12088	0	
1.0513	-0.739575	2.96826	0	
1.0520	-3.476	3.57021	0	
1.0527	-5.62077	4.17217	0	
1.0533	-2.2557	2.6569	0	
1.0540	-1.95987	-0.996338	0	
1.0547	-6.24941	-0.0830282	0	
1.0553	-7.46971	2.6569	0	
1.0560	-6.24941	3.57021	0	
1.0567	-4.10464	5.70819	0	
1.0573	-0.443745	8.44812	0	
1.0580	-0.443745	6.6215	0	
1.0587	-1.95987	2.96826	0	
1.0593	0.776554	1.74359	0	
1.0600	2.62549	2.34555	0	
1.0607	2.62549	2.34555	0	
1.0613	2.62549	1.43224	0	
1.0620	1.99685	-0.0830282	0	
1.0627	1.70102	-1.61905	0	
1.0633	3.21715	-1.93041	0	
1.0640	4.43745	-0.996338	0	
1.0647	5.36192	-0.394384	0	
1.0653	5.36192	-1.93041	0	
1.0660	4.43745	-2.84371	0	
1.0667	3.84579	-3.44567	0	
1.0673	4.14162	-3.44567	0	
1.0680	2.62549	-1.93041	0	
1.0687	2.62549	-1.30769	0	
1.0693	3.51298	-1.93041	0	
1.0700	2.62549	-1.61905	0	
1.0707	1.70102	-0.996338	0	
1.0713	1.40519	-0.0830282	0	
1.0720	0.480724	0.830282	0	
1.0727	0.776554	0.830282	0	
1.0733	1.07238	-0.0830282	0	
1.0740	-1.66404	-0.394384	0	
1.0747	-2.88434	-0.705739	0	
1.0753	-2.2557	0.20757	0	
1.0760	-3.80881	1.12088	0	
1.0767	-4.40047	-0.996338	0	
1.0773	-1.95987	-1.61905	0	
1.0780	-2.2557	0.20757	0	
1.0787	-2.88434	-0.394384	0	
1.0793	-2.2557	-0.705739	0	
1.0800	-3.18017	1.74359	0	
1.0807	-2.88434	-0.0830282	0	
1.0813	-1.66404	-2.84371	0	
1.0820	-3.80881	-0.996338	0	
1.0827	-5.62077	-1.93041	0	
1.0833	-2.58851	-4.06838	0	
1.0840	0.776554	-1.93041	0	
1.0847	2.29268	-2.53236	0	
1.0853	4.43745	-6.49695	0	
1.0860	4.43745	-3.13431	0	
1.0867	0.776554	0.518926	0	
1.0873	-0.147915	-3.75702	0	
1.0880	1.70102	-5.27229	0	
1.0887	1.99685	-1.93041	0	
1.0893	1.70102	-2.84371	0	
1.0900	2.62549	-3.75702	0	
1.0907	0.776554	-1.30769	0	
1.0913	-1.95987	0.830282	0	
1.0920	-1.95987	-0.394384	0	
1.0927	-1.95987	-1.93041	0	
1.0933	-1.03541	-1.61905	0	
1.0940	1.07238	0.20757	0	
1.0947	0.184894	1.74359	0	
1.0953	-0.443745	-0.0830282	0	
1.0960	1.70102	-2.221	0	
1.0967	1.99685	-0.996338	0	
1.0973	-0.147915	1.12088	0	
1.0980	0.184894	2.6569	0	
1.0987	2.29268	2.6569	0	
1.0993	2.29268	-0.705739	0	
1.1000	0.776554	-3.13431	0	
1.1007	-0.147915	-2.53236	0	
1.1013	1.07238	-0.0830282	0	
1.1020	3.21715	2.34555	0	
1.1027	2.62549	1.74359	0	
1.1033	1.40519	-1.30769	0	
1.1040	3.51298	-1.93041	0	
1.1047	4.73328	-0.0830282	0	
1.1053	2.92132	-0.394384	0	
1.1060	1.99685	-1.61905	0	
1.1067	2.62549	-1.30769	0	
1.1073	2.29268	-1.30769	0	
1.1080	1.07238	-3.13431	0	
1.1087	1.40519	-4.35898	0	
1.1093	1.99685	-2.84371	0	
1.1100	3.21715	0.830282	0	
1.1107	2.62549	1.43224	0	
1.1113	-0.443745	-0.996338	0	
1.1120	-2.2557	-0.996338	0	
1.1127	-2.88434	0.830282	0	
1.1133	-6.24941	1.74359	0	
1.1140	-8.3572	1.74359	0	
1.1147	-7.1369	0.830282	0	
1.1153	-7.76554	-0.0830282	0	
1.1160	-8.69001	0.830282	0	
1.1167	-6.24941	1.43224	0	
1.1173	-4.6963	1.74359	0	
1.1180	-3.80881	1.74359	0	
1.1187	-0.147915	0.518926	0	
1.1193	0.480724	-1.61905	0	
1.1200	-1.66404	-0.996338	0	
1.1207	-1.03541	1.12088	0	
1.1213	0.480724	0.830282	0	
1.1220	1.07238	0.518926	0	
1.1227	2.62549	1.43224	0	
1.1233	3.21715	-0.0830282	0	
1.1240	3.51298	-2.221	0	
1.1247	3.21715	-0.996338	0	
1.1253	2.29268	-0.394384	0	
1.1260	3.51298	-2.84371	0	
1.1267	5.65775	-1.93041	0	
1.1273	3.51298	1.74359	0	
1.1280	1.70102	1.43224	0	
1.1287	3.21715	-1.30769	0	
1.1293	1.70102	-0.0830282	0	
1.1300	-2.2557	1.74359	0	
1.1307	-1.03541	-0.0830282	0	
1.1313	0.776554	-0.705739	0	
1.1320	-2.58851	0.830282	0	
1.1327	-5.62077	1.12088	0	
1.1333	-6.24941	2.05495	0	
1.1340	-6.54524	3.57021	0	
1.1347	-8.3572	2.6569	0	
1.1353	-9.28167	1.43224	0	
1.1360	-7.46971	1.74359	0	
1.1367	-4.6963	2.34555	0	
1.1373	-2.88434	2.6569	0	
1.1380	-3.80881	1.12088	0	
1.1387	-4.6963	-0.996338	0	
1.1393	-3.476	-0.996338	0	
1.1400	-0.739575	0.830282	0	
1.1407	1.70102	2.05495	0	
1.1413	5.36192	1.43224	0	
1.1420	9.94729	-0.0830282	0	
1.1427	11.1676	-2.221	0	
1.1433	12.3879	-3.75702	0	
1.1440	14.4957	-3.75702	0	
1.1447	12.9795	-4.67033	0	
1.1453	10.2431	-4.67033	0	
1.1460	11.7592	-3.44567	0	
1.1467	12.0551	-2.221	0	
1.1473	8.09835	-2.221	0	
1.1480	5.36192	-3.44567	0	
1.1487	5.95358	-3.75702	0	
1.1493	6.28639	-2.84371	0	
1.1500	5.06609	-1.93041	0	
1.1507	3.51298	-0.705739	0	
1.1513	3.21715	0.518926	0	
1.1520	2.62549	-0.996338	0	
1.1527	0.480724	-1.93041	0	
1.1533	0.776554	0.830282	0	
1.1540	1.07238	2.34555	0	
1.1547	-1.66404	-0.0830282	0	
1.1553	-2.58851	-0.0830282	0	
1.1560	-0.147915	2.96826	0	
1.1567	-1.03541	3.88157	0	
1.1573	-3.80881	2.96826	0	
1.1580	-2.58851	2.34555	0	
1.1587	0.184894	0.830282	0	
1.1593	0.776554	0.830282	0	
1.1600	0.480724	2.05495	0	
1.1607	-0.147915	0.830282	0	
1.1613	-0.739575	-1.61905	0	
1.1620	0.480724	-0.394384	0	
1.1627	1.40519	-0.394384	0	
1.1633	0.184894	-1.93041	0	
1.1640	-0.739575	1.43224	0	
1.1647	-1.03541	3.88157	0	
1.1653	-0.147915	0.830282	0	
1.1660	1.99685	-1.61905	0	
1.1667	3.21715	-1.61905	0	
1.1673	1.07238	-1.93041	0	
1.1680	-1.95987	-1.61905	0	
1.1687	-1.95987	0.518926	0	
1.1693	-0.739575	1.43224	0	
1.1700	-0.147915	2.6569	0	
1.1707	-0.443745	3.57021	0	
1.1713	-1.66404	1.74359	0	
1.1720	-1.66404	-0.0830282	0	
1.1727	-1.95987	-0.0830282	0	
1.1733	-3.80881	0.830282	0	
1.1740	-3.80881	1.74359	0	
1.1747	-2.2557	0.830282	0	
1.1753	-2.58851	-0.0830282	0	
1.1760	-2.58851	2.05495	0	
1.1767	-1.03541	3.57021	0	
1.1773	-1.95987	1.74359	0	
1.1780	-4.40047	-0.0830282	0	
1.1787	-4.10464	0.830282	0	
1.1793	-2.88434	0.830282	0	
1.1800	-3.80881	1.74359	0	
1.1807	-5.02911	2.6569	0	
1.1813	-5.02911	1.12088	0	
1.1820	-4.10464	-0.996338	0	
1.1827	-4.6963	-0.705739	0	
1.1833	-5.62077	-0.996338	0	
1.1840	-3.18017	-3.44567	0	
1.1847	-1.95987	-2.84371	0	
1.1853	-4.6963	-0.0830282	0	
1.1860	-5.32494	-0.0830282	0	
1.1867	-3.18017	0.20757	0	
1.1873	-3.476	2.05495	0	
1.1880	-4.40047	1.43224	0	
1.1887	-4.6963	-0.996338	0	
1.1893	-5.32494	-0.996338	0	
1.1900	-2.88434	0.830282	0	
1.1907	-0.443745	0.830282	0	
1.1913	-2.88434	1.43224	0	
1.1920	-5.32494	1.12088	0	
1.1927	-4.6963	0.20757	0	
1.1933	-4.6963	0.830282	0	
1.1940	-4.6963	1.74359	0	
1.1947	-4.6963	0.830282	0	
1.1953	-4.40047	-0.394384	0	
1.1960	-1.95987	0.518926	0	
1.1967	0.776554	1.12088	0	
1.1973	-0.147915	1.12088	0	
1.1980	-0.739575	0.830282	0	
1.1987	0.480724	-0.0830282	0	
1.1993	0.480724	0.20757	0	
1.2000	0.776554	2.34555	0	
1.2007	1.70102	1.74359	0	
1.2013	2.29268	-1.93041	0	
1.2020	2.62549	-3.75702	0	
1.2027	2.62549	-2.84371	0	
1.2033	3.51298	-1.93041	0	
1.2040	4.43745	-2.84371	0	
1.2047	5.06609	-4.06838	0	
1.2053	5.36192	-4.67033	0	
1.2060	5.36192	-4.67033	0	
1.2067	3.21715	-4.67033	0	
1.2073	2.62549	-5.58364	0	
1.2080	2.92132	-3.75702	0	
1.2087	1.07238	1.12088	0	
1.2093	0.480724	4.48352	0	
1.2100	2.62549	4.48352	0	
1.2107	0.776554	3.57021	0	
1.2113	-3.80881	2.05495	0	
1.2120	-4.40047	-0.996338	0	
1.2127	-4.40047	-0.996338	0	
1.2133	-7.1369	1.12088	0	
1.2140	-7.46971	1.43224	0	
1.2147	-5.62077	0.830282	0	
1.2153	-4.6963	4.48352	0	
1.2160	-5.9166	7.53481	0	
1.2167	-6.84107	6.6215	0	
1.2173	-5.02911	6.31014	0	
1.2180	-2.88434	6.93285	0	
1.2187	-4.40047	3.57021	0	
1.2193	-5.32494	0.830282	0	
1.2200	-2.58851	2.6569	0	
1.2207	-0.147915	3.25886	0	
1.2213	-0.443745	-0.0830282	0	
1.2220	-0.147915	-0.996338	0	
1.2227	1.70102	0.20757	0	
1.2233	2.92132	-0.705739	0	
1.2240	1.40519	0.830282	0	
1.2247	-0.147915	2.6569	0	
1.2253	3.51298	-1.30769	0	
1.2260	6.28639	-2.84371	0	
1.2267	2.92132	1.74359	0	
1.2273	1.40519	2.05495	0	
1.2280	1.70102	-1.93041	0	
1.2287	-1.03541	-2.84371	0	
1.2293	-2.88434	-2.84371	0	
1.2300	-1.03541	-2.84371	0	
1.2307	-1.03541	-1.93041	0	
1.2313	-1.03541	-2.221	0	
1.2320	-0.147915	-2.84371	0	
1.2327	-2.2557	-0.996338	0	
1.2333	-5.62077	-0.0830282	0	
1.2340	-5.62077	0.830282	0	
1.2347	-5.62077	2.05495	0	
1.2353	-6.54524	-0.0830282	0	
1.2360	-5.02911	-1.93041	0	
1.2367	-3.80881	0.518926	0	
1.2373	-2.88434	1.74359	0	
1.2380	-1.03541	2.05495	0	
1.2387	0.184894	2.6569	0	
1.2393	0.184894	0.830282	0	
1.2400	0.776554	-1.93041	0	
1.2407	-0.739575	-1.30769	0	
1.2413	-1.95987	-0.394384	0	
1.2420	0.776554	-2.53236	0	
1.2427	3.51298	-3.13431	0	
1.2433	3.51298	-1.93041	0	
1.2440	4.73328	-1.30769	0	
1.2447	5.65775	-1.30769	0	
1.2453	2.92132	-0.996338	0	
1.2460	2.29268	-1.61905	0	
1.2467	3.21715	-3.13431	0	
1.2473	1.70102	-3.75702	0	
1.2480	-0.443745	-2.84371	0	
1.2487	-0.739575	-1.93041	0	
1.2493	-0.147915	-2.221	0	
1.2500	1.99685	-0.996338	0	
1.2507	4.73328	-0.996338	0	
1.2513	3.51298	-3.44567	0	
1.2520	0.776554	-2.84371	0	
1.2527	1.07238	0.830282	0	
1.2533	2.62549	2.34555	0	
1.2540	0.776554	0.830282	0	
1.2547	-2.58851	-1.93041	0	
1.2553	-1.36821	-2.84371	0	
1.2560	2.62549	-1.30769	0	
1.2567	2.92132	0.830282	0	
1.2573	1.70102	-0.0830282	0	
1.2580	2.92132	-1.93041	0	
1.2587	4.43745	-0.996338	0	
1.2593	2.62549	-0.0830282	0	
1.2600	0.776554	-0.0830282	0	
1.2607	-0.147915	-0.0830282	0	
1.2613	-0.443745	1.74359	0	
1.2620	0.776554	2.05495	0	
1.2627	1.40519	-0.705739	0	
1.2633	0.480724	-0.394384	0	
1.2640	1.99685	3.25886	0	
1.2647	4.43745	3.57021	0	
1.2653	3.84579	-0.394384	0	
1.2660	3.51298	-2.84371	0	
1.2667	5.36192	-1.61905	0	
1.2673	5.36192	-0.0830282	0	
1.2680	3.21715	-0.705739	0	
1.2687	2.62549	-0.705739	0	
1.2693	3.21715	0.518926	0	
1.2700	2.62549	-0.0830282	0	
1.2707	1.07238	-1.93041	0	
1.2713	0.480724	-0.996338	0	
1.2720	-0.147915	0.518926	0	
1.2727	-0.739575	-0.996338	0	
1.2733	-1.03541	-1.93041	0	
1.2740	-3.18017	-0.0830282	0	
1.2747	-4.40047	-0.0830282	0	
1.2753	-2.88434	-0.705739	0	
1.2760	-1.03541	0.20757	0	
1.2767	0.184894	0.830282	0	
1.2773	1.70102	-0.0830282	0	
1.2780	2.29268	-1.30769	0	
1.2787	2.62549	-2.84371	0	
1.2793	3.84579	-3.13431	0	
1.2800	4.14162	-3.44567	0	
1.2807	3.21715	-3.13431	0	
1.2813	2.62549	-0.0830282	0	
1.2820	1.70102	2.96826	0	
1.2827	1.40519	1.12088	0	
1.2833	2.62549	-0.996338	0	
1.2840	3.51298	-0.705739	0	
1.2847	3.21715	-1.93041	0	
1.2853	1.99685	-3.44567	0	
1.2860	-0.739575	-1.93041	0	
1.2867	-2.58851	0.518926	0	
1.2873	-3.476	0.518926	0	
1.2880	-5.62077	-0.996338	0	
1.2887	-5.9166	-1.30769	0	
1.2893	-2.88434	-0.705739	0	
1.2900	-1.95987	-1.61905	0	
1.2907	-1.03541	-2.53236	0	
1.2913	0.776554	-1.61905	0	
1.2920	0.776554	-0.996338	0	
1.2927	-0.147915	-1.30769	0	
1.2933	1.40519	0.830282	0	
1.2940	1.07238	1.74359	0	
1.2947	-0.147915	0.20757	0	
1.2953	1.40519	-0.0830282	0	
1.2960	-0.147915	0.518926	0	
1.2967	-2.88434	-0.0830282	0	
1.2973	-1.03541	-1.30769	0	
1.2980	0.776554	-1.93041	0	
1.2987	-2.88434	-0.394384	0	
1.2993	-4.10464	-0.705739	0	
1.3000	-1.66404	-4.35898	0	
1.3007	-1.03541	-4.67033	0	
1.3013	-0.739575	-0.0830282	0	
1.3020	0.480724	-0.0830282	0	
1.3027	-0.739575	-4.35898	0	
1.3033	-0.147915	-4.98169	0	
1.3040	3.21715	-3.75702	0	
1.3047	4.14162	-3.75702	0	
1.3053	2.29268	-3.75702	0	
1.3060	2.62549	-2.84371	0	
1.3067	2.29268	-1.30769	0	
1.3073	-1.95987	-1.93041	0	
1.3080	-2.88434	-3.75702	0	
1.3087	2.62549	-5.58364	0	
1.3093	4.43745	-4.98169	0	
1.3100	0.184894	-3.44567	0	
1.3107	-2.88434	-0.0830282	0	
1.3113	-1.03541	3.57021	0	
1.3120	-0.147915	6.01954	0	
1.3127	-2.88434	7.53481	0	
1.3133	-5.32494	6.93285	0	
1.3140	-5.9166	2.6569	0	
1.3147	-6.54524	-0.0830282	0	
1.3153	-6.84107	0.830282	0	
1.3160	-6.54524	3.57021	0	
1.3167	-7.1369	4.48352	0	
1.3173	-6.84107	2.34555	0	
1.3180	-1.95987	3.57021	0	
1.3187	1.70102	10.2955	0	
1.3193	0.776554	10.2955	0	
1.3200	1.99685	2.34555	0	
1.3207	4.73328	-0.996338	0	
1.3213	2.62549	-0.996338	0	
1.3220	0.184894	-4.67033	0	
1.3227	1.99685	-6.49695	0	
1.3233	3.84579	-2.84371	0	
1.3240	5.36192	-0.0830282	0	
1.3247	7.17388	-0.996338	0	
1.3253	7.17388	-2.221	0	
1.3260	4.73328	-1.93041	0	
1.3267	2.62549	-2.221	0	
1.3273	0.776554	-3.13431	0	
1.3280	0.776554	-3.13431	0	
1.3287	1.99685	-4.67033	0	
1.3293	1.70102	-5.895	0	
1.3300	0.776554	-1.61905	0	
1.3307	0.184894	3.57021	0	
1.3313	-1.66404	0.830282	0	
1.3320	-2.88434	-3.13431	0	
1.3327	-3.18017	-2.84371	0	
1.3333	-3.80881	-1.30769	0	
1.3340	-2.88434	-0.0830282	0	
1.3347	-2.88434	0.830282	0	
1.3353	-5.32494	-0.394384	0	
1.3360	-4.40047	-0.0830282	0	
1.3367	-1.36821	2.05495	0	
1.3373	-1.95987	1.43224	0	
1.3380	-4.6963	-0.0830282	0	
1.3387	-5.02911	0.830282	0	
1.3393	-4.6963	1.74359	0	
1.3400	-5.32494	0.830282	0	
1.3407	-6.54524	-0.0830282	0	
1.3413	-6.24941	-1.61905	0	
1.3420	-3.476	-2.53236	0	
1.3427	-1.03541	0.20757	0	
1.3433	-1.03541	2.05495	0	
1.3440	-1.03541	-0.705739	0	
1.3447	-0.147915	-2.53236	0	
1.3453	1.99685	-0.705739	0	
1.3460	3.21715	-1.93041	0	
1.3467	0.776554	-2.84371	0	
1.3473	-0.739575	-0.394384	0	
1.3480	2.62549	-0.996338	0	
1.3487	3.51298	-3.44567	0	
1.3493	1.99685	-1.61905	0	
1.3500	2.62549	-0.0830282	0	
1.3507	3.51298	-2.221	0	
1.3513	2.29268	-2.53236	0	
1.3520	1.40519	-1.30769	0	
1.3527	1.70102	-1.93041	0	
1.3533	1.70102	-0.394384	0	
1.3540	1.99685	1.43224	0	
1.3547	-0.147915	1.43224	0	
1.3553	-3.18017	2.34555	0	
1.3560	-1.95987	2.6569	0	
1.3567	-0.147915	-0.394384	0	
1.3573	-0.147915	-1.61905	0	
1.3580	0.776554	2.05495	0	
1.3587	1.07238	3.25886	0	
1.3593	1.07238	0.830282	0	
1.3600	3.51298	-0.394384	0	
1.3607	5.36192	0.830282	0	
1.3613	3.21715	0.830282	0	
1.3620	1.40519	0.830282	0	
1.3627	1.70102	2.05495	0	
1.3633	3.51298	1.74359	0	
1.3640	6.58222	-0.0830282	0	
1.3647	5.36192	0.518926	0	
1.3653	-0.147915	0.830282	0	
1.3660	-1.36821	-0.996338	0	
1.3667	-0.443745	-1.93041	0	
1.3673	-2.88434	-0.394384	0	
1.3680	-4.40047	-0.996338	0	
1.3687	-2.88434	-1.30769	0	
1.3693	-0.739575	0.518926	0	
1.3700	0.480724	0.830282	0	
1.3707	-0.443745	-0.0830282	0	
1.3713	-2.2557	-0.705739	0	
1.3720	-0.443745	-0.705739	0	
1.3727	1.70102	-0.394384	0	
1.3733	-1.95987	-0.0830282	0	
1.3740	-5.62077	1.12088	0	
1.3747	-4.6963	2.6569	0	
1.3753	-4.10464	0.830282	0	
1.3760	-3.80881	-0.705739	0	
1.3767	-1.95987	3.57021	0	
1.3773	0.184894	6.31014	0	
1.3780	1.70102	1.74359	0	
1.3787	1.07238	-1.93041	0	
1.3793	-1.36821	0.518926	0	
1.3800	-0.739575	0.830282	0	
1.3807	1.99685	-0.0830282	0	
1.3813	0.480724	1.43224	0	
1.3820	-2.88434	1.43224	0	
1.3827	-1.95987	-0.394384	0	
1.3833	0.776554	-0.705739	0	
1.3840	1.70102	-0.996338	0	
1.3847	2.62549	-2.221	0	
1.3853	2.62549	-1.61905	0	
1.3860	2.62549	-1.61905	0	
1.3867	2.29268	-3.44567	0	
1.3873	0.480724	-2.84371	0	
1.3880	-1.66404	-0.996338	0	
1.3887	-1.95987	-2.221	0	
1.3893	-1.03541	-3.44567	0	
1.3900	-1.03541	-1.61905	0	
1.3907	-1.95987	-0.0830282	0	
1.3913	-2.58851	1.43224	0	
1.3920	-3.80881	2.34555	0	
1.3927	-4.6963	0.830282	0	
1.3933	-3.80881	-0.705739	0	
1.3940	-1.95987	-0.0830282	0	
1.3947	-2.88434	0.830282	0	
1.3953	-5.62077	2.05495	0	
1.3960	-6.24941	2.34555	0	
1.3967	-3.18017	0.518926	0	
1.3973	-1.03541	0.518926	0	
1.3980	-1.95987	1.74359	0	
1.3987	-1.95987	0.830282	0	
1.3993	0.776554	-0.0830282	0	
1.4000	2.62549	0.20757	0	
1.4007	1.70102	-2.84371	0	
1.4013	0.776554	-2.84371	0	
1.4020	-0.147915	1.74359	0	
1.4027	1.99685	0.830282	0	
1.4033	4.73328	-1.93041	0	
1.4040	4.73328	0.518926	0	
1.4047	3.51298	0.20757	0	
1.4053	4.43745	-2.84371	0	
1.4060	4.14162	-0.996338	0	
1.4067	3.21715	2.6569	0	
1.4073	4.43745	1.74359	0	
1.4080	3.84579	0.518926	0	
1.4087	1.07238	0.518926	0	
1.4093	0.776554	-0.996338	0	
1.4100	2.62549	-2.221	0	
1.4107	2.62549	-1.30769	0	
1.4113	-0.147915	0.518926	0	
1.4120	-2.88434	-0.0830282	0	
1.4127	-1.95987	-2.221	0	
1.4133	-0.147915	-0.0830282	0	
1.4140	-1.36821	2.96826	0	
1.4147	-1.95987	3.25886	0	
1.4153	-0.147915	4.48352	0	
1.4160	-0.147915	6.31014	0	
1.4167	-2.2557	3.57021	0	
1.4173	-1.95987	0.830282	0	
1.4180	-0.147915	1.12088	0	
1.4187	2.29268	-0.0830282	0	
1.4193	2.92132	-0.996338	0	
1.4200	1.70102	0.518926	0	
1.4207	1.40519	0.518926	0	
1.4213	4.14162	-0.996338	0	
1.4220	5.65775	-1.61905	0	
1.4227	4.43745	-3.75702	0	
1.4233	3.51298	-3.75702	0	
1.4240	3.51298	0.20757	0	
1.4247	5.36192	-0.0830282	0	
1.4253	5.95358	-4.98169	0	
1.4260	3.21715	-5.58364	0	
1.4267	2.62549	-1.30769	0	
1.4273	3.51298	-0.0830282	0	
1.4280	3.21715	-1.93041	0	
1.4287	2.29268	-1.93041	0	
1.4293	3.21715	-0.996338	0	
1.4300	3.51298	-1.61905	0	
1.4307	2.62549	-3.13431	0	
1.4313	2.29268	-4.67033	0	
1.4320	0.480724	-4.67033	0	
1.4327	-1.95987	-3.13431	0	
1.4333	-2.58851	-2.84371	0	
1.4340	-2.88434	-3.13431	0	
1.4347	-5.62077	-3.75702	0	
1.4353	-5.62077	-4.67033	0	
1.4360	-1.95987	-3.44567	0	
1.4367	-1.03541	-0.705739	0	
1.4373	-2.88434	-1.61905	0	
1.4380	-2.58851	-1.61905	0	
1.4387	-1.95987	4.17217	0	
1.4393	-3.476	8.44812	0	
1.4400	-3.18017	6.6215	0	
1.4407	-1.66404	4.79488	0	
1.4413	-1.95987	5.10623	0	
1.4420	-1.95987	3.25886	0	
1.4427	-1.36821	0.830282	0	
1.4433	-1.03541	0.830282	0	
1.4440	-0.147915	1.43224	0	
1.4447	1.40519	-0.0830282	0	
1.4453	0.776554	-0.705739	0	
1.4460	-1.03541	1.74359	0	
1.4467	-1.03541	2.6569	0	
1.4473	-0.147915	-0.0830282	0	
1.4480	1.07238	-0.394384	0	
1.4487	0.184894	1.74359	0	
1.4493	-3.80881	0.20757	0	
1.4500	-5.62077	-2.84371	0	
1.4507	-3.80881	-1.61905	0	
1.4513	-2.88434	2.05495	0	
1.4520	-5.32494	3.25886	0	
1.4527	-8.06137	2.34555	0	
1.4533	-6.54524	1.74359	0	
1.4540	-1.95987	0.518926	0	
1.4547	-1.95987	-0.996338	0	
1.4553	-4.6963	-2.221	0	
1.4560	-3.80881	-1.93041	0	
1.4567	-1.36821	-1.93041	0	
1.4573	-1.03541	-3.75702	0	
1.4580	0.184894	-4.06838	0	
1.4587	1.40519	-1.93041	0	
1.4593	-0.739575	-1.61905	0	
1.4600	-1.95987	-4.06838	0	
1.4607	-0.739575	-4.67033	0	
1.4613	-0.147915	-3.75702	0	
1.4620	0.184894	-4.35898	0	
1.4627	1.40519	-4.06838	0	
1.4633	1.70102	-0.0830282	0	
1.4640	1.40519	3.57021	0	
1.4647	2.62549	4.48352	0	
1.4653	3.51298	4.79488	0	
1.4660	3.84579	4.17217	0	
1.4667	3.51298	1.12088	0	
1.4673	2.92132	-0.996338	0	
1.4680	2.62549	0.830282	0	
1.4687	1.70102	1.74359	0	
1.4693	0.776554	-0.705739	0	
1.4700	1.40519	-1.93041	0	
1.4707	1.70102	0.20757	0	
1.4713	1.70102	1.12088	0	
1.4720	3.51298	0.20757	0	
1.4727	4.43745	1.12088	0	
1.4733	-0.147915	2.6569	0	
1.4740	-3.18017	2.05495	0	
1.4747	-1.95987	0.830282	0	
1.4753	-5.32494	0.830282	0	
1.4760	-8.69001	0.830282	0	
1.4767	-3.80881	0.830282	0	
1.4773	-0.147915	1.74359	0	
1.4780	-5.02911	0.518926	0	
1.4787	-8.3572	-2.53236	0	
1.4793	-6.54524	-1.61905	0	
1.4800	-5.02911	1.74359	0	
1.4807	-3.80881	1.43224	0	
1.4813	-2.88434	-0.705739	0	
1.4820	-4.6963	0.20757	0	
1.4827	-3.476	0.830282	0	
1.4833	0.776554	-1.30769	0	
1.4840	1.07238	-3.13431	0	
1.4847	0.184894	-2.84371	0	
1.4853	1.70102	-1.61905	0	
1.4860	1.40519	-0.996338	0	
1.4867	0.776554	-1.30769	0	
1.4873	1.99685	-0.394384	0	
1.4880	2.62549	-1.61905	0	
1.4887	2.62549	-4.06838	0	
1.4893	2.62549	-3.44567	0	
1.4900	0.776554	-0.0830282	0	
1.4907	-0.739575	-1.93041	0	
1.4913	0.480724	-4.06838	0	
1.4920	1.70102	-2.84371	0	
1.4927	1.07238	-0.394384	0	
1.4933	-1.95987	1.74359	0	
1.4940	-6.54524	3.57021	0	
1.4947	-8.06137	2.6569	0	
1.4953	-5.32494	1.74359	0	
1.4960	-4.6963	1.74359	0	
1.4967	-5.9166	0.830282	0	
1.4973	-4.6963	0.20757	0	
1.4980	-3.18017	1.12088	0	
1.4987	-3.80881	0.830282	0	
1.4993	-5.02911	0.830282	0	
1.5000	-5.62077	1.74359	0	
1.5007	-3.80881	0.20757	0	
1.5013	-1.66404	-0.705739	0	
1.5020	0.776554	-0.0830282	0	
1.5027	2.62549	-0.996338	0	
1.5033	4.43745	-0.996338	0	
1.5040	4.14162	-0.705739	0	
1.5047	3.21715	-1.93041	0	
1.5053	2.92132	-0.996338	0	
1.5060	2.62549	0.830282	0	
1.5067	-0.147915	-0.996338	0	
1.5073	-1.03541	-0.996338	0	
1.5080	-0.147915	1.74359	0	
1.5087	0.480724	0.830282	0	
1.5093	-0.147915	-1.61905	0	
1.5100	0.184894	-0.996338	0	
1.5107	0.184894	-0.996338	0	
1.5113	-1.95987	-0.705739	0	
1.5120	-3.476	1.43224	0	
1.5127	-3.80881	1.43224	0	
1.5133	-4.10464	0.518926	0	
1.5140	-4.40047	0.518926	0	
1.5147	-3.80881	-0.0830282	0	
1.5153	-2.88434	-0.996338	0	
1.5160	-2.58851	-1.30769	0	
1.5167	-3.80881	-0.996338	0	
1.5173	-3.80881	0.518926	0	
1.5180	-1.03541	0.830282	0	
1.5187	0.480724	-0.705739	0	
1.5193	-0.147915	-1.93041	0	
1.5200	0.480724	-2.221	0	
1.5207	1.99685	-0.996338	0	
1.5213	1.07238	0.830282	0	
1.5220	-0.147915	-0.705739	0	
1.5227	1.07238	-3.13431	0	
1.5233	1.99685	-1.93041	0	
1.5240	1.99685	-0.394384	0	
1.5247	3.51298	-1.93041	0	
1.5253	4.14162	-3.75702	0	
1.5260	2.92132	-4.67033	0	
1.5267	4.14162	-4.67033	0	
1.5273	4.73328	-2.84371	0	
1.5280	3.21715	-1.93041	0	
1.5287	3.84579	-2.53236	0	
1.5293	3.84579	-2.53236	0	
1.5300	1.99685	0.518926	0	
1.5307	3.51298	5.39683	0	
1.5313	5.95358	8.15752	0	
1.5320	1.70102	7.22345	0	
1.5327	-1.95987	3.88157	0	
1.5333	-1.03541	-0.0830282	0	
1.5340	-1.36821	-0.0830282	0	
1.5347	-1.03541	3.57021	0	
1.5353	0.480724	6.01954	0	
1.5360	-1.66404	3.25886	0	
1.5367	-3.80881	0.518926	0	
1.5373	-1.66404	2.05495	0	
1.5380	1.40519	4.48352	0	
1.5387	0.776554	2.6569	0	
1.5393	-0.147915	0.518926	0	
1.5400	1.70102	0.518926	0	
1.5407	3.21715	-0.705739	0	
1.5413	2.62549	-2.84371	0	
1.5420	2.92132	-3.75702	0	
1.5427	4.73328	-2.84371	0	
1.5433	4.73328	-2.221	0	
1.5440	6.28639	-2.53236	0	
1.5447	8.09835	-3.13431	0	
1.5453	5.95358	-2.53236	0	
1.5460	5.36192	-0.0830282	0	
1.5467	6.58222	1.12088	0	
1.5473	2.92132	1.43224	0	
1.5480	-0.443745	1.74359	0	
1.5487	0.184894	1.74359	0	
1.5493	0.184894	2.6569	0	
1.5500	-0.147915	4.48352	0	
1.5507	1.40519	5.70819	0	
1.5513	1.07238	5.39683	0	
1.5520	0.184894	0.830282	0	
1.5527	1.40519	-5.58364	0	
1.5533	-0.443745	-8.03298	0	
1.5540	-4.40047	-3.75702	0	
1.5547	-3.476	-1.61905	0	
1.5553	-0.443745	-2.84371	0	
1.5560	-0.443745	-2.84371	0	
1.5567	-1.03541	0.20757	0	
1.5573	-1.36821	1.74359	0	
1.5580	-3.476	0.518926	0	
1.5587	-4.6963	-1.93041	0	
1.5593	-1.95987	-2.53236	0	
1.5600	-0.443745	-1.30769	0	
1.5607	-0.739575	-0.394384	0	
1.5613	1.99685	-1.93041	0	
1.5620	5.06609	-3.75702	0	
1.5627	2.62549	-2.53236	0	
1.5633	0.776554	-0.996338	0	
1.5640	2.62549	-3.13431	0	
1.5647	2.62549	-3.75702	0	
1.5653	1.70102	-0.996338	0	
1.5660	2.62549	-0.996338	0	
1.5667	3.51298	-2.221	0	
1.5673	2.92132	-0.0830282	0	
1.5680	3.84579	5.39683	0	
1.5687	3.51298	10.8974	0	
1.5693	1.70102	11.8108	0	
1.5700	1.99685	2.96826	0	
1.5707	1.07238	-6.1856	0	
1.5713	-1.95987	-4.35898	0	
1.5720	-2.2557	1.43224	0	
1.5727	-1.95987	3.25886	0	
1.5733	-3.80881	4.48352	0	
1.5740	-5.32494	6.31014	0	
1.5747	-4.10464	4.48352	0	
1.5753	-2.88434	3.88157	0	
1.5760	-2.88434	6.93285	0	
1.5767	-3.18017	8.15752	0	
1.5773	-2.88434	6.31014	0	
1.5780	-2.58851	3.88157	0	
1.5787	-3.476	-1.30769	0	
1.5793	-3.80881	-8.03298	0	
1.5800	-1.95987	-11.6862	0	
1.5807	-1.95987	-13.2222	0	
1.5813	-5.32494	-16.2735	0	
1.5820	-4.6963	-15.0489	0	
1.5827	-1.95987	-5.895	0	
1.5833	-0.147915	1.12088	0	
1.5840	3.51298	3.57021	0	
1.5847	7.17388	10.5861	0	
1.5853	6.28639	18.2247	0	
1.5860	5.36192	10.8974	0	
1.5867	7.17388	-3.13431	0	
1.5873	7.80252	-4.98169	0	
1.5880	7.80252	-0.996338	0	
1.5887	8.09835	-4.98169	0	
1.5893	4.73328	-14.4261	0	
1.5900	1.70102	-16.2735	0	
1.5907	2.62549	-12.2882	0	
1.5913	1.70102	-8.94629	0	
1.5920	-1.95987	-5.895	0	
1.5927	-3.80881	-3.75702	0	
1.5933	-3.476	-4.35898	0	
1.5940	-2.88434	-5.27229	0	
1.5947	-2.88434	-4.06838	0	
1.5953	-4.6963	-1.93041	0	
1.5960	-6.54524	-0.394384	0	
1.5967	-5.9166	-1.61905	0	
1.5973	-6.24941	-4.06838	0	
1.5980	-5.9166	-3.75702	0	
1.5987	-2.88434	-0.705739	0	
1.5993	-0.443745	-0.0830282	0	
1.6000	-1.03541	-2.84371	0	
1.6007	-1.66404	-4.35898	0	
1.6013	-1.36821	-5.27229	0	
1.6020	-1.03541	-5.895	0	
1.6027	-1.36821	-7.41026	0	
1.6033	-1.66404	-9.23688	0	
1.6040	-0.147915	-6.49695	0	
1.6047	2.62549	-2.84371	0	
1.6053	2.62549	-3.13431	0	
1.6060	0.480724	-1.61905	0	
1.6067	-0.147915	5.39683	0	
1.6073	0.184894	6.01954	0	
1.6080	-1.36821	2.6569	0	
1.6087	-1.03541	7.22345	0	
1.6093	2.62549	13.9487	0	
1.6100	1.70102	16.0867	0	
1.6107	-0.739575	15.464	0	
1.6113	0.776554	9.07083	0	
1.6120	0.776554	0.830282	0	
1.6127	-1.36821	2.6569	0	
1.6133	-1.03541	7.22345	0	
1.6140	-3.18017	7.22345	0	
1.6147	-9.5775	12.4127	0	
1.6153	-11.4264	20.0513	0	
1.6160	-8.3572	17.9133	0	
1.6167	-8.3572	10.2955	0	
1.6173	-8.98584	4.48352	0	
1.6180	-6.84107	1.12088	0	
1.6187	-4.40047	4.48352	0	
1.6193	-2.88434	9.98414	0	
1.6200	-1.95987	10.8974	0	
1.6207	-0.147915	5.39683	0	
1.6213	2.92132	-6.49695	0	
1.6220	3.51298	-18.4115	0	
1.6227	3.51298	-18.7021	0	
1.6233	6.87805	-12.2882	0	
1.6240	9.02282	-6.49695	0	
1.6247	7.80252	2.34555	0	
1.6253	9.02282	9.07083	0	
1.6260	11.7592	10.5861	0	
1.6267	10.2431	15.1734	0	
1.6273	7.17388	9.36143	0	
1.6280	4.73328	-22.0647	0	
1.6287	2.29268	-51.3529	0	
1.6293	1.70102	-44.0257	0	
1.6300	2.62549	-14.4261	0	
1.6307	1.07238	2.6569	0	
1.6313	-1.03541	4.48352	0	
1.6320	-1.95987	10.8974	0	
1.6327	-1.66404	14.862	0	
1.6333	-4.10464	-3.13431	0	
1.6340	-8.3572	-17.4774	0	
1.6347	-7.1369	1.74359	0	
1.6353	-1.36821	21.8779	0	
1.6360	-0.147915	9.98414	0	
1.6367	-0.443745	-12.2882	0	
1.6373	2.92132	-18.4115	0	
1.6380	5.36192	-12.2882	0	
1.6387	2.92132	-5.27229	0	
1.6393	1.70102	-3.13431	0	
1.6400	2.62549	-1.93041	0	
1.6407	3.21715	2.96826	0	
1.6413	3.51298	3.57021	0	
1.6420	2.92132	-2.84371	0	
1.6427	2.92132	-4.98169	0	
1.6433	2.92132	-1.93041	0	
1.6440	2.62549	0.20757	0	
1.6447	3.51298	-0.394384	0	
1.6453	4.73328	-0.394384	0	
1.6460	3.51298	0.518926	0	
1.6467	0.480724	-0.394384	0	
1.6473	-1.03541	1.74359	0	
1.6480	-1.03541	15.464	0	
1.6487	-1.66404	36.221	0	
1.6493	-2.88434	51.4775	0	
1.6500	-3.80881	58.2028	0	
1.6507	-1.95987	55.4421	0	
1.6513	0.776554	42.3236	0	
1.6520	2.62549	18.2247	0	
1.6527	5.36192	-17.1868	0	
1.6533	8.39418	-47.3883	0	
1.6540	9.02282	-51.9756	0	
1.6547	7.17388	-37.6325	0	
1.6553	4.14162	-21.1514	0	
1.6560	-0.443745	-6.1856	0	
1.6567	-3.18017	-1.93041	0	
1.6573	-2.88434	-14.7375	0	
1.6580	-3.476	-24.8047	0	
1.6587	-2.58851	-19.9268	0	
1.6593	0.480724	-9.23688	0	
1.6600	-0.443745	-0.0830282	0	
1.6607	-4.40047	2.05495	0	
1.6613	-6.24941	-8.03298	0	
1.6620	-7.1369	-14.7375	0	
1.6627	-6.54524	-5.58364	0	
1.6633	-2.88434	5.39683	0	
1.6640	-0.443745	6.93285	0	
1.6647	-0.443745	2.34555	0	
1.6653	2.92132	-2.84371	0	
1.6660	7.17388	-4.67033	0	
1.6667	5.95358	-3.75702	0	
1.6673	2.62549	-1.30769	0	
1.6680	3.84579	-2.53236	0	
1.6687	5.36192	-8.03298	0	
1.6693	3.21715	-11.0843	0	
1.6700	1.40519	-9.54824	0	
1.6707	1.07238	-11.9976	0	
1.6713	-0.147915	-15.6508	0	
1.6720	-1.36821	-13.8242	0	
1.6727	-1.95987	-13.8242	0	
1.6733	-3.80881	-19.3248	0	
1.6740	-4.40047	-25.718	0	
1.6747	-2.58851	-26.6313	0	
1.6753	-5.9166	-15.6508	0	
1.6760	-11.7223	1.12088	0	
1.6767	-11.4264	14.5507	0	
1.6773	-8.69001	31.9451	0	
1.6780	-7.1369	49.3395	0	
1.6787	-2.88434	42.9463	0	
1.6793	0.776554	18.2247	0	
1.6800	0.776554	3.57021	0	
1.6807	-1.03541	5.39683	0	
1.6813	-3.80881	16.0867	0	
1.6820	-7.46971	21.8779	0	
1.6827	-7.46971	9.98414	0	
1.6833	-5.9166	-5.895	0	
1.6840	-5.62077	-5.58364	0	
1.6847	-4.40047	3.57021	0	
1.6853	-1.03541	8.15752	0	
1.6860	1.40519	9.67278	0	
1.6867	2.29268	9.98414	0	
1.6873	1.99685	9.98414	0	
1.6880	0.776554	9.07083	0	
1.6887	1.70102	7.22345	0	
1.6893	3.51298	6.01954	0	
1.6900	2.92132	6.01954	0	
1.6907	1.40519	4.79488	0	
1.6913	1.07238	4.48352	0	
1.6920	1.40519	4.79488	0	
1.6927	1.70102	1.43224	0	
1.6933	2.92132	-1.93041	0	
1.6940	3.51298	-1.93041	0	
1.6947	3.21715	-1.61905	0	
1.6953	4.73328	0.20757	0	
1.6960	5.95358	3.57021	0	
1.6967	3.51298	1.43224	0	
1.6973	0.776554	-4.67033	0	
1.6980	1.70102	-7.72162	0	
1.6987	6.87805	-8.32357	0	
1.6993	9.31865	-10.171	0	
1.7000	7.50669	-11.3749	0	
1.7007	5.36192	-10.7729	0	
1.7013	5.06609	-9.8596	0	
1.7020	7.50669	-8.94629	0	
1.7027	11.4634	-7.11967	0	
1.7033	11.1676	-6.49695	0	
1.7040	8.39418	-7.72162	0	
1.7047	8.39418	-5.895	0	
1.7053	6.28639	4.17217	0	
1.7060	1.70102	21.8779	0	
1.7067	2.62549	35.3077	0	
1.7073	3.21715	31.9451	0	
1.7080	-1.66404	18.8266	0	
1.7087	-5.9166	14.5507	0	
1.7093	-8.69001	15.1734	0	
1.7100	-13.5712	9.36143	0	
1.7107	-13.867	6.6215	0	
1.7113	-8.98584	4.48352	0	
1.7120	-6.54524	-11.0843	0	
1.7127	-5.62077	-27.5654	0	
1.7133	-1.95987	-27.5654	0	
1.7140	1.07238	-22.0647	0	
1.7147	-0.147915	-17.4774	0	
1.7153	-3.80881	-7.41026	0	
1.7160	-5.9166	2.34555	0	
1.7167	-5.02911	4.48352	0	
1.7173	-4.6963	3.57021	0	
1.7180	-5.32494	1.74359	0	
1.7187	-4.10464	-1.61905	0	
1.7193	-4.6963	-3.75702	0	
1.7200	-6.54524	-3.75702	0	
1.7207	-4.10464	-2.53236	0	
1.7213	-3.476	-2.53236	0	
1.7220	-5.62077	-5.58364	0	
1.7227	-3.80881	-8.03298	0	
1.7233	-0.147915	-6.1856	0	
1.7240	0.184894	-5.58364	0	
1.7247	-0.147915	-7.41026	0	
1.7253	-2.88434	-6.1856	0	
1.7260	-5.9166	-3.44567	0	
1.7267	-3.18017	-2.84371	0	
1.7273	-1.36821	-2.84371	0	
1.7280	-5.02911	-1.93041	0	
1.7287	-4.40047	0.830282	0	
1.7293	-0.443745	4.79488	0	
1.7300	-2.88434	5.10623	0	
1.7307	-5.62077	2.05495	0	
1.7313	-2.2557	1.12088	0	
1.7320	-0.443745	1.43224	0	
1.7327	-2.88434	0.20757	0	
1.7333	-3.80881	0.20757	0	
1.7340	-1.95987	0.830282	0	
1.7347	0.776554	-0.0830282	0	
1.7353	3.51298	0.20757	0	
1.7360	5.36192	2.6569	0	
1.7367	3.21715	1.43224	0	
1.7373	-1.66404	-2.84371	0	
1.7380	-5.32494	-4.06838	0	
1.7387	-7.46971	-4.98169	0	
1.7393	-10.2061	-6.80831	0	
1.7400	-9.28167	-7.72162	0	
1.7407	-2.88434	-8.32357	0	
1.7413	0.480724	-6.1856	0	
1.7420	-1.03541	1.74359	0	
1.7427	-2.88434	9.36143	0	
1.7433	-1.66404	11.2088	0	
1.7440	2.62549	10.8974	0	
1.7447	5.06609	10.2955	0	
1.7453	4.43745	6.6215	0	
1.7460	5.36192	3.25886	0	
1.7467	6.28639	2.96826	0	
1.7473	5.65775	5.39683	0	
1.7480	7.50669	7.53481	0	
1.7487	7.17388	6.6215	0	
1.7493	3.51298	5.39683	0	
1.7500	2.92132	5.39683	0	
1.7507	2.29268	2.34555	0	
1.7513	-3.80881	-0.705739	0	
1.7520	-5.62077	0.830282	0	
1.7527	-2.2557	-0.705739	0	
1.7533	-2.2557	-6.49695	0	
1.7540	-2.58851	-11.0843	0	
1.7547	-1.03541	-15.3395	0	
1.7553	-3.80881	-17.4774	0	
1.7560	-7.1369	-12.2882	0	
1.7567	-7.46971	-5.58364	0	
1.7573	-7.46971	-5.58364	0	
1.7580	-5.62077	-9.23688	0	
1.7587	-2.58851	-9.54824	0	
1.7593	-2.88434	-4.98169	0	
1.7600	-3.18017	5.10623	0	
1.7607	-0.147915	17.602	0	
1.7613	1.99685	25.2406	0	
1.7620	3.51298	21.8779	0	
1.7627	5.95358	15.464	0	
1.7633	5.36192	14.5507	0	
1.7640	4.43745	14.5507	0	
1.7647	6.87805	9.07083	0	
1.7653	7.50669	6.31014	0	
1.7660	5.65775	9.98414	0	
1.7667	5.65775	9.07083	0	
1.7673	8.09835	3.57021	0	
1.7680	9.02282	-0.705739	0	
1.7687	5.36192	-6.80831	0	
1.7693	1.99685	-17.4774	0	
1.7700	4.14162	-26.0293	0	
1.7707	5.36192	-28.1673	0	
1.7713	1.70102	-20.5287	0	
1.7720	1.07238	-9.54824	0	
1.7727	4.43745	-5.58364	0	
1.7733	5.95358	-5.58364	0	
1.7740	6.28639	-3.75702	0	
1.7747	5.36192	-4.35898	0	
1.7753	3.21715	-2.221	0	
1.7760	6.28639	11.8108	0	
1.7767	9.94729	27.0672	0	
1.7773	8.72699	31.0318	0	
1.7780	8.72699	16.3981	0	
1.7787	10.8348	-23.8914	0	
1.7793	10.8348	-66.6094	0	
1.7800	11.4634	-74.5593	0	
1.7807	10.2431	-52.5776	0	
1.7813	6.28639	-24.8047	0	
1.7820	7.80252	-0.0830282	0	
1.7827	11.1676	15.464	0	
1.7833	9.94729	27.3785	0	
1.7840	11.7592	35.6191	0	
1.7847	15.4201	10.2955	0	
1.7853	11.7592	-39.4591	0	
1.7860	9.31865	-47.0977	0	
1.7867	13.2754	-1.61905	0	
1.7873	12.6837	46.9109	0	
1.7880	9.94729	69.7852	0	
1.7887	10.8348	60.6313	0	
1.7893	7.80252	29.8071	0	
1.7900	1.07238	12.4127	0	
1.7907	-1.03541	18.5153	0	
1.7913	-1.03541	25.2406	0	
1.7920	0.776554	27.3785	0	
1.7927	3.51298	34.7058	0	
1.7933	1.70102	34.0831	0	
1.7940	-1.03541	7.22345	0	
1.7947	1.07238	-40.3725	0	
1.7953	2.29268	-74.2479	0	
1.7960	-0.147915	-67.2321	0	
1.7967	-1.95987	-36.7192	0	
1.7973	-5.02911	-10.171	0	
1.7980	-12.0551	5.39683	0	
1.7987	-16.6035	11.4994	0	
1.7993	-16.9363	8.15752	0	
1.8000	-16.9363	3.88157	0	
1.8007	-15.716	6.01954	0	
1.8013	-14.4957	10.8974	0	
1.8020	-13.2754	13.6374	0	
1.8027	-11.7223	9.67278	0	
1.8033	-12.3509	4.48352	0	
1.8040	-13.2754	7.84616	0	
1.8047	-11.4264	14.2601	0	
1.8053	-9.91031	10.8974	0	
1.8060	-10.2061	-0.394384	0	
1.8067	-10.2061	-10.4616	0	
1.8073	-9.91031	-14.7375	0	
1.8080	-10.2061	-15.3395	0	
1.8087	-9.28167	-15.6508	0	
1.8093	-7.76554	-16.5641	0	
1.8100	-6.54524	-16.2735	0	
1.8107	-7.1369	-15.6508	0	
1.8113	-9.5775	-11.0843	0	
1.8120	-10.502	-2.84371	0	
1.8127	-8.3572	0.20757	0	
1.8133	-7.1369	-1.30769	0	
1.8140	-10.8348	-0.0830282	0	
1.8147	-14.4957	0.830282	0	
1.8153	-13.5712	0.20757	0	
1.8160	-12.3509	3.57021	0	
1.8167	-15.3832	6.93285	0	
1.8173	-16.6035	6.01954	0	
1.8180	-13.5712	5.39683	0	
1.8187	-11.7223	4.17217	0	
1.8193	-12.9426	-1.30769	0	
1.8200	-12.3509	-4.67033	0	
1.8207	-8.98584	-3.75702	0	
1.8213	-7.1369	-2.84371	0	
1.8220	-6.84107	-1.61905	0	
1.8227	-4.40047	0.518926	0	
1.8233	-1.03541	0.830282	0	
1.8240	-1.03541	-0.394384	0	
1.8247	-2.58851	-2.84371	0	
1.8253	-1.95987	-4.35898	0	
1.8260	-2.88434	-3.75702	0	
1.8267	-5.02911	-1.61905	0	
1.8273	-4.10464	-0.705739	0	
1.8280	-1.03541	-0.996338	0	
1.8287	-0.147915	0.518926	0	
1.8293	-0.147915	3.57021	0	
1.8300	0.480724	4.17217	0	
1.8307	0.776554	1.12088	0	
1.8313	-0.443745	-0.394384	0	
1.8320	-1.95987	3.25886	0	
1.8327	-3.18017	5.39683	0	
1.8333	-4.6963	2.6569	0	
1.8340	-3.80881	2.05495	0	
1.8347	-1.36821	4.79488	0	
1.8353	-2.58851	5.70819	0	
1.8360	-4.40047	6.93285	0	
1.8367	-1.95987	8.75947	0	
1.8373	0.480724	5.70819	0	
1.8380	0.776554	2.05495	0	
1.8387	2.62549	1.74359	0	
1.8393	3.84579	-1.61905	0	
1.8400	4.43745	-4.67033	0	
1.8407	5.36192	-0.0830282	0	
1.8413	4.43745	1.12088	0	
1.8420	2.29268	-4.67033	0	
1.8427	3.84579	-5.58364	0	
1.8433	8.09835	-2.84371	0	
1.8440	7.50669	-1.61905	0	
1.8447	6.28639	0.518926	0	
1.8453	10.5389	2.96826	0	
1.8460	12.3879	7.22345	0	
1.8467	7.80252	14.5507	0	
1.8473	5.36192	20.0513	0	
1.8480	8.39418	22.5006	0	
1.8487	8.09835	14.2601	0	
1.8493	7.17388	-11.0843	0	
1.8500	9.94729	-30.6166	0	
1.8507	10.8348	-24.2027	0	
1.8513	5.36192	-13.2222	0	
1.8520	0.776554	-7.41026	0	
1.8527	1.07238	1.74359	0	
1.8533	4.14162	3.25886	0	
1.8540	5.36192	-5.895	0	
1.8547	4.73328	-8.32357	0	
1.8553	6.58222	-0.996338	0	
1.8560	9.94729	5.70819	0	
1.8567	8.09835	3.88157	0	
1.8573	4.14162	-4.06838	0	
1.8580	6.28639	-1.93041	0	
1.8587	11.1676	9.36143	0	
1.8593	10.2431	7.53481	0	
1.8600	6.87805	-0.394384	0	
1.8607	8.09835	-2.84371	0	
1.8613	11.4634	-13.2222	0	
1.8620	11.1676	-25.4274	0	
1.8627	9.94729	-21.1514	0	
1.8633	12.6837	-14.1355	0	
1.8640	15.1243	-14.7375	0	
1.8647	14.4957	-12.2882	0	
1.8653	12.9795	-4.67033	0	
1.8660	13.904	2.34555	0	
1.8667	16.0488	8.15752	0	
1.8673	15.4201	9.07083	0	
1.8680	10.8348	6.93285	0	
1.8687	7.17388	8.75947	0	
1.8693	7.17388	9.36143	0	
1.8700	7.50669	2.6569	0	
1.8707	7.17388	-7.11967	0	
1.8713	8.09835	-13.8242	0	
1.8720	8.39418	-13.5128	0	
1.8727	7.80252	-7.41026	0	
1.8733	4.73328	-7.11967	0	
1.8740	0.480724	-15.0489	0	
1.8747	-0.147915	-12.2882	0	
1.8753	2.62549	-0.705739	0	
1.8760	2.92132	-12.9109	0	
1.8767	-1.03541	-44.0257	0	
1.8773	-2.88434	-40.9744	0	
1.8780	-0.739575	0.830282	0	
1.8787	0.480724	43.8596	0	
1.8793	-1.03541	79.5617	0	
1.8800	-1.03541	110.386	0	
1.8807	1.70102	107.646	0	
1.8813	3.51298	58.4933	0	
1.8820	2.92132	-10.171	0	
1.8827	2.62549	-54.4042	0	
1.8833	2.62549	-49.5263	0	
1.8840	2.92132	-20.5287	0	
1.8847	4.14162	-1.30769	0	
1.8853	3.84579	12.7241	0	
1.8860	2.29268	17.602	0	
1.8867	0.184894	-2.84371	0	
1.8873	-4.6963	-18.7021	0	
1.8880	-10.2061	-8.03298	0	
1.8887	-10.2061	-3.75702	0	
1.8893	-9.5775	-16.8755	0	
1.8900	-12.6467	-13.8242	0	
1.8907	-13.5712	5.39683	0	
1.8913	-12.6467	9.67278	0	
1.8920	-13.5712	-4.98169	0	
1.8927	-13.867	-16.5641	0	
1.8933	-14.7915	-12.5995	0	
1.8940	-18.1566	-0.0830282	0	
1.8947	-18.4524	9.98414	0	
1.8953	-16.3076	12.4127	0	
1.8960	-17.2321	5.39683	0	
1.8967	-16.3076	-4.06838	0	
1.8973	-13.867	-4.67033	0	
1.8980	-15.3832	0.830282	0	
1.8987	-16.6035	3.25886	0	
1.8993	-13.867	1.74359	0	
1.9000	-13.5712	-1.30769	0	
1.9007	-15.716	-3.75702	0	
1.9013	-15.716	-3.75702	0	
1.9020	-13.867	-2.84371	0	
1.9027	-12.0551	-3.75702	0	
1.9033	-10.2061	-3.75702	0	
1.9040	-10.2061	-1.30769	0	
1.9047	-10.8348	-0.705739	0	
1.9053	-11.1306	-0.996338	0	
1.9060	-11.1306	-1.93041	0	
1.9067	-10.2061	-3.75702	0	
1.9073	-10.8348	-2.53236	0	
1.9080	-12.0551	0.20757	0	
1.9087	-10.2061	-0.705739	0	
1.9093	-9.28167	-2.221	0	
1.9100	-9.5775	-1.30769	0	
1.9107	-6.24941	-1.93041	0	
1.9113	-4.40047	-4.35898	0	
1.9120	-8.06137	-3.75702	0	
1.9127	-11.1306	-1.93041	0	
1.9133	-12.3509	-2.84371	0	
1.9140	-12.0551	-3.75702	0	
1.9147	-9.5775	-1.93041	0	
1.9153	-9.91031	-0.394384	0	
1.9160	-11.4264	0.830282	0	
1.9167	-10.2061	2.05495	0	
1.9173	-9.91031	1.74359	0	
1.9180	-8.69001	-0.394384	0	
1.9187	-4.40047	-0.996338	0	
1.9193	-4.40047	-0.0830282	0	
1.9200	-6.54524	-0.0830282	0	
1.9207	-1.03541	-0.996338	0	
1.9213	4.73328	-1.30769	0	
1.9220	4.43745	-0.394384	0	
1.9227	5.06609	-1.30769	0	
1.9233	7.17388	-3.44567	0	
1.9240	6.87805	-3.75702	0	
1.9247	8.09835	-3.44567	0	
1.9253	10.2431	-4.06838	0	
1.9260	9.61448	-5.58364	0	
1.9267	8.72699	-3.75702	0	
1.9273	7.80252	-0.394384	0	
1.9280	4.43745	-0.996338	0	
1.9287	4.14162	-3.75702	0	
1.9293	6.87805	-3.75702	0	
1.9300	8.09835	-0.996338	0	
1.9307	7.17388	1.74359	0	
1.9313	6.28639	3.88157	0	
1.9320	5.95358	6.6215	0	
1.9327	8.72699	6.6215	0	
1.9333	11.4634	2.34555	0	
1.9340	9.94729	-0.0830282	0	
1.9347	8.72699	0.830282	0	
1.9353	8.39418	-0.996338	0	
1.9360	5.65775	-2.84371	0	
1.9367	2.92132	1.74359	0	
1.9373	4.14162	3.57021	0	
1.9380	7.50669	-1.61905	0	
1.9387	10.5389	-1.93041	0	
1.9393	11.7592	1.43224	0	
1.9400	13.6082	0.518926	0	
1.9407	16.3446	-0.996338	0	
1.9413	15.716	-4.35898	0	
1.9420	11.7592	-7.11967	0	
1.9427	10.8348	-2.221	0	
1.9433	9.94729	0.830282	0	
1.9440	7.17388	-1.93041	0	
1.9447	9.61448	9.67278	0	
1.9453	13.6082	27.3785	0	
1.9460	12.3879	20.9646	0	
1.9467	10.2431	2.05495	0	
1.9473	10.5389	-6.49695	0	
1.9480	8.09835	-12.9109	0	
1.9487	5.95358	-16.5641	0	
1.9493	7.17388	-7.41026	0	
1.9500	7.17388	-0.0830282	0	
1.9507	5.65775	-2.53236	0	
1.9513	6.28639	0.20757	0	
1.9520	7.17388	6.31014	0	
1.9527	5.65775	4.79488	0	
1.9533	2.92132	3.57021	0	
1.9540	2.62549	6.93285	0	
1.9547	5.36192	8.15752	0	
1.9553	5.95358	9.67278	0	
1.9560	4.14162	14.5507	0	
1.9567	3.84579	21.8779	0	
1.9573	4.14162	29.2052	0	
1.9580	3.51298	18.2247	0	
1.9587	3.84579	-19.0135	0	
1.9593	3.51298	-45.8731	0	
1.9600	1.70102	-32.1319	0	
1.9607	0.776554	-7.72162	0	
1.9613	-0.443745	-0.996338	0	
1.9620	-3.80881	0.830282	0	
1.9627	-4.6963	7.22345	0	
1.9633	-2.58851	8.44812	0	
1.9640	0.776554	0.830282	0	
1.9647	2.62549	-9.23688	0	
1.9653	1.99685	-13.5128	0	
1.9660	-0.147915	-11.0843	0	
1.9667	0.776554	-15.6508	0	
1.9673	1.40519	-28.1673	0	
1.9680	0.480724	-31.2186	0	
1.9687	0.776554	-22.3761	0	
1.9693	-0.443745	-12.9109	0	
1.9700	-4.10464	-1.61905	0	
1.9707	-4.6963	12.7241	0	
1.9713	-2.58851	21.5666	0	
1.9720	-2.58851	22.1893	0	
1.9727	-5.62077	18.2247	0	
1.9733	-8.69001	6.31014	0	
1.9740	-10.8348	-7.72162	0	
1.9747	-11.7223	-11.0843	0	
1.9753	-12.3509	-7.41026	0	
1.9760	-12.9426	-7.41026	0	
1.9767	-12.6467	-7.72162	0	
1.9773	-11.1306	-5.27229	0	
1.9780	-8.98584	-1.93041	0	
1.9787	-5.9166	4.17217	0	
1.9793	-2.88434	10.2955	0	
1.9800	-1.66404	6.01954	0	
1.9807	0.776554	-2.84371	0	
1.9813	4.43745	-4.35898	0	
1.9820	6.28639	-5.895	0	
1.9827	4.14162	-12.9109	0	
1.9833	1.70102	-14.1355	0	
1.9840	-0.443745	-10.171	0	
1.9847	-0.443745	-8.32357	0	
1.9853	1.70102	-12.5995	0	
1.9860	0.776554	-17.4774	0	
1.9867	-3.80881	-6.1856	0	
1.9873	-5.02911	19.4493	0	
1.9880	-3.476	33.1698	0	
1.9887	-4.6963	39.895	0	
1.9893	-5.62077	54.8401	0	
1.9900	-5.62077	48.1356	0	
1.9907	-7.1369	22.7912	0	
1.9913	-10.2061	34.0831	0	
1.9920	-11.1306	64.9073	0	
1.9927	-6.84107	51.1869	0	
1.9933	-2.88434	10.2955	0	
1.9940	-3.80881	-11.9976	0	
1.9947	-5.02911	-21.1514	0	
1.9953	-4.6963	-22.6667	0	
1.9960	-6.54524	-10.171	0	
1.9967	-7.46971	3.25886	0	
1.9973	-3.18017	9.07083	0	
1.9980	0.776554	9.98414	0	
1.9987	-0.739575	6.01954	0	
1.9993	-2.88434	-2.53236	0	
2.0000	-1.95987	-7.41026	0	
2.0007	0.776554	-0.996338	0	
2.0013	3.51298	9.36143	0	
2.0020	4.43745	13.0354	0	
2.0027	4.43745	11.4994	0	
2.0033	2.62549	-1.93041	0	
2.0040	2.62549	-34.8718	0	
2.0047	4.73328	-60.5068	0	
2.0053	4.73328	-54.1136	0	
2.0060	-0.147915	-35.8059	0	
2.0067	-4.10464	-22.6667	0	
2.0073	-7.46971	-13.5128	0	
2.0080	-11.4264	-12.9109	0	
2.0087	-12.9426	-8.63493	0	
2.0093	-11.7223	12.7241	0	
2.0100	-10.2061	28.2919	0	
2.0107	-9.28167	23.7045	0	
2.0113	-9.91031	15.7754	0	
2.0120	-11.1306	4.17217	0	
2.0127	-9.28167	-15.6508	0	
2.0133	-8.06137	-23.8914	0	
2.0140	-8.98584	-13.2222	0	
2.0147	-8.69001	-0.705739	0	
2.0153	-8.06137	6.31014	0	
2.0160	-9.28167	6.31014	0	
2.0167	-8.98584	3.25886	0	
2.0173	-7.46971	3.25886	0	
2.0180	-8.3572	3.57021	0	
2.0187	-10.2061	0.830282	0	
2.0193	-10.502	1.43224	0	
2.0200	-10.2061	3.25886	0	
2.0207	-9.91031	0.20757	0	
2.0213	-6.84107	-1.61905	0	
2.0220	-3.18017	1.74359	0	
2.0227	-1.03541	2.6569	0	
2.0233	0.776554	0.830282	0	
2.0240	2.92132	0.830282	0	
2.0247	3.51298	-0.996338	0	
2.0253	2.62549	-3.44567	0	
2.0260	5.06609	-0.705739	0	
2.0267	6.58222	2.05495	0	
2.0273	3.84579	-0.996338	0	
2.0280	3.51298	-3.13431	0	
2.0287	8.09835	-2.84371	0	
2.0293	8.09835	-2.84371	0	
2.0300	4.73328	-1.61905	0	
2.0307	7.17388	-0.394384	0	
2.0313	10.8348	-2.84371	0	
2.0320	9.61448	-1.93041	0	
2.0327	6.28639	3.25886	0	
2.0333	4.14162	3.57021	0	
2.0340	1.70102	-0.0830282	0	
2.0347	0.480724	-0.996338	0	
2.0353	1.70102	0.830282	0	
2.0360	2.62549	2.96826	0	
2.0367	2.62549	1.43224	0	
2.0373	3.51298	-1.93041	0	
2.0380	5.36192	-0.996338	0	
2.0387	6.28639	2.6569	0	
2.0393	3.84579	1.43224	0	
2.0400	2.62549	-1.93041	0	
2.0407	7.17388	-2.221	0	
2.0413	11.7592	-1.93041	0	
2.0420	9.31865	-1.93041	0	
2.0427	6.28639	-1.93041	0	
2.0433	9.02282	-2.84371	0	
2.0440	11.4634	-2.84371	0	
2.0447	10.8348	-1.61905	0	
2.0453	9.94729	-0.996338	0	
2.0460	8.39418	-1.93041	0	
2.0467	8.39418	-2.221	0	
2.0473	11.1676	-3.75702	0	
2.0480	11.7592	-5.27229	0	
2.0487	10.2431	-3.75702	0	
2.0493	9.94729	-1.61905	0	
2.0500	8.39418	-1.30769	0	
2.0507	6.58222	-2.84371	0	
2.0513	7.80252	-4.06838	0	
2.0520	8.09835	-2.84371	0	
2.0527	5.65775	0.518926	0	
2.0533	5.06609	1.12088	0	
2.0540	4.43745	0.20757	0	
2.0547	0.480724	1.74359	0	
2.0553	-4.40047	1.43224	0	
2.0560	-7.46971	-1.93041	0	
2.0567	-7.1369	-2.53236	0	
2.0573	-4.40047	-0.0830282	0	
2.0580	-1.03541	2.05495	0	
2.0587	2.29268	3.57021	0	
2.0593	4.43745	2.96826	0	
2.0600	4.43745	1.74359	0	
2.0607	2.62549	1.74359	0	
2.0613	2.29268	1.43224	0	
2.0620	1.99685	-1.30769	0	
2.0627	-0.147915	-1.93041	0	
2.0633	-1.03541	1.43224	0	
2.0640	1.99685	3.25886	0	
2.0647	5.65775	0.518926	0	
2.0653	5.06609	-2.53236	0	
2.0660	1.40519	-2.221	0	
2.0667	-0.443745	-1.93041	0	
2.0673	0.776554	-1.93041	0	
2.0680	1.40519	-0.394384	0	
2.0687	0.776554	1.12088	0	
2.0693	1.70102	0.830282	0	
2.0700	1.70102	0.830282	0	
2.0707	-0.739575	1.74359	0	
2.0713	-1.95987	-0.996338	0	
2.0720	0.776554	-2.84371	0	
2.0727	3.84579	0.830282	0	
2.0733	4.14162	3.88157	0	
2.0740	1.07238	1.74359	0	
2.0747	-3.476	1.74359	0	
2.0753	-5.32494	3.88157	0	
2.0760	-4.6963	1.74359	0	
2.0767	-5.32494	-1.61905	0	
2.0773	-6.24941	-0.996338	0	
2.0780	-5.9166	-1.61905	0	
2.0787	-6.24941	-2.84371	0	
2.0793	-5.9166	-0.0830282	0	
2.0800	-4.40047	-0.705739	0	
2.0807	-3.476	-4.67033	0	
2.0813	-3.476	-4.98169	0	
2.0820	-3.18017	-3.75702	0	
2.0827	-2.88434	-4.35898	0	
2.0833	-2.88434	-2.84371	0	
2.0840	-1.95987	-1.93041	0	
2.0847	-1.95987	-3.75702	0	
2.0853	-1.36821	-3.75702	0	
2.0860	1.70102	-3.44567	0	
2.0867	1.70102	-3.75702	0	
2.0873	-2.2557	-1.30769	0	
2.0880	-2.2557	-0.0830282	0	
2.0887	-0.147915	-2.221	0	
2.0893	-1.95987	-1.61905	0	
2.0900	-4.10464	-0.0830282	0	
2.0907	-3.80881	-0.705739	0	
2.0913	-4.6963	0.518926	0	
2.0920	-5.32494	-0.0830282	0	
2.0927	-5.62077	-2.84371	0	
2.0933	-9.5775	-1.61905	0	
2.0940	-10.502	-0.0830282	0	
2.0947	-6.54524	-1.93041	0	
2.0953	-7.1369	-0.996338	0	
2.0960	-9.28167	1.12088	0	
2.0967	-6.54524	0.830282	0	
2.0973	-4.10464	0.20757	0	
2.0980	-4.6963	-0.394384	0	
2.0987	-3.80881	-0.705739	0	
2.0993	-3.80881	1.74359	0	
2.1000	-5.02911	3.25886	0	
2.1007	-2.2557	1.74359	0	
2.1013	1.70102	1.74359	0	
2.1020	2.62549	1.12088	0	
2.1027	3.51298	-2.84371	0	
2.1033	5.36192	-3.75702	0	
2.1040	4.73328	-0.996338	0	
2.1047	4.73328	-0.394384	0	
2.1053	4.43745	-2.221	0	
2.1060	1.40519	-2.84371	0	
2.1067	-0.147915	-1.93041	0	
2.1073	0.184894	-0.394384	0	
2.1080	-2.58851	-0.0830282	0	
2.1087	-5.02911	-1.30769	0	
2.1093	-4.6963	-0.0830282	0	
2.1100	-4.40047	2.05495	0	
2.1107	-4.40047	0.20757	0	
2.1113	-4.40047	-2.53236	0	
2.1120	-5.9166	-1.30769	0	
2.1127	-5.32494	0.20757	0	
2.1133	-3.476	-0.0830282	0	
2.1140	-4.6963	-0.0830282	0	
2.1147	-3.80881	1.74359	0	
2.1153	0.776554	2.05495	0	
2.1160	2.62549	-0.0830282	0	
2.1167	0.776554	-1.61905	0	
2.1173	-1.03541	-0.996338	0	
2.1180	-1.03541	-0.394384	0	
2.1187	1.70102	-0.996338	0	
2.1193	2.62549	-1.30769	0	
2.1200	2.62549	-1.61905	0	
2.1207	4.14162	-0.996338	0	
2.1213	5.95358	1.74359	0	
2.1220	4.43745	2.05495	0	
2.1227	2.92132	-0.394384	0	
2.1233	3.51298	-0.0830282	0	
2.1240	3.21715	1.74359	0	
2.1247	2.62549	0.518926	0	
2.1253	3.21715	-1.61905	0	
2.1260	5.06609	-2.221	0	
2.1267	6.58222	-1.93041	0	
2.1273	6.87805	-0.0830282	0	
2.1280	4.73328	0.830282	0	
2.1287	2.62549	0.20757	0	
2.1293	2.29268	0.830282	0	
2.1300	3.21715	0.830282	0	
2.1307	4.43745	-0.996338	0	
2.1313	5.36192	-0.996338	0	
2.1320	5.36192	0.518926	0	
2.1327	2.62549	-0.996338	0	
2.1333	-0.739575	-2.84371	0	
2.1340	-0.443745	-1.61905	0	
2.1347	0.776554	1.74359	0	
2.1353	-0.147915	4.17217	0	
2.1360	-1.95987	3.88157	0	
2.1367	-0.739575	2.34555	0	
2.1373	1.07238	1.74359	0	
2.1380	2.29268	2.05495	0	
2.1387	2.62549	1.74359	0	
2.1393	4.43745	-0.0830282	0	
2.1400	6.28639	-0.0830282	0	
2.1407	4.73328	2.6569	0	
2.1413	2.92132	3.57021	0	
2.1420	4.73328	-0.0830282	0	
2.1427	9.61448	-2.53236	0	
2.1433	12.0551	-0.996338	0	
2.1440	10.8348	0.830282	0	
2.1447	8.39418	-0.0830282	0	
2.1453	8.72699	-1.30769	0	
2.1460	9.94729	-0.996338	0	
2.1467	9.94729	-0.0830282	0	
2.1473	8.72699	-1.93041	0	
2.1480	6.28639	-3.13431	0	
2.1487	4.73328	-2.221	0	
2.1493	5.06609	-0.996338	0	
2.1500	3.84579	-0.996338	0	
2.1507	3.21715	-0.996338	0	
2.1513	4.73328	-0.705739	0	
2.1520	2.92132	-0.0830282	0	
2.1527	-1.03541	-0.394384	0	
2.1533	-0.147915	-0.0830282	0	
2.1540	-0.147915	0.518926	0	
2.1547	-4.10464	0.830282	0	
2.1553	-3.80881	0.830282	0	
2.1560	-0.147915	1.74359	0	
2.1567	-0.147915	1.43224	0	
2.1573	0.184894	-0.394384	0	
2.1580	1.99685	-0.996338	0	
2.1587	0.184894	0.830282	0	
2.1593	-1.36821	2.05495	0	
2.1600	0.184894	1.74359	0	
2.1607	1.70102	-0.0830282	0	
2.1613	1.99685	-2.53236	0	
2.1620	3.21715	-3.75702	0	
2.1627	4.43745	-3.75702	0	
2.1633	3.21715	-3.13431	0	
2.1640	1.07238	-2.221	0	
2.1647	1.40519	-2.84371	0	
2.1653	4.14162	-3.75702	0	
2.1660	4.14162	-5.58364	0	
2.1667	0.776554	-5.27229	0	
2.1673	-0.443745	-2.84371	0	
2.1680	0.480724	0.518926	0	
2.1687	0.184894	-0.0830282	0	
2.1693	0.184894	-2.84371	0	
2.1700	-0.443745	-3.75702	0	
2.1707	-2.88434	-1.93041	0	
2.1713	-4.40047	-1.61905	0	
2.1720	-3.476	-0.996338	0	
2.1727	-3.80881	0.518926	0	
2.1733	-5.62077	0.830282	0	
2.1740	-8.3572	-0.0830282	0	
2.1747	-9.28167	0.518926	0	
2.1753	-6.54524	2.34555	0	
2.1760	-3.80881	1.74359	0	
2.1767	-3.80881	0.518926	0	
2.1773	-3.80881	-0.394384	0	
2.1780	-3.18017	-0.996338	0	
2.1787	-2.88434	-0.705739	0	
2.1793	-1.66404	-0.394384	0	
2.1800	-0.147915	-3.13431	0	
2.1807	1.07238	-4.98169	0	
2.1813	3.21715	-3.75702	0	
2.1820	2.92132	-3.75702	0	
2.1827	0.776554	-3.75702	0	
2.1833	1.07238	-1.93041	0	
2.1840	2.62549	0.830282	0	
2.1847	1.70102	3.57021	0	
2.1853	1.07238	5.39683	0	
2.1860	0.776554	4.48352	0	
2.1867	-1.95987	1.12088	0	
2.1873	-3.80881	-0.0830282	0	
2.1880	-1.95987	-0.394384	0	
2.1887	-0.147915	-0.0830282	0	
2.1893	-1.03541	2.6569	0	
2.1900	-3.80881	3.57021	0	
2.1907	-4.10464	3.25886	0	
2.1913	-4.40047	1.74359	0	
2.1920	-6.54524	0.20757	0	
2.1927	-6.84107	-0.705739	0	
2.1933	-6.54524	-0.0830282	0	
2.1940	-8.06137	2.34555	0	
2.1947	-8.98584	4.79488	0	
2.1953	-8.69001	6.01954	0	
2.1960	-10.502	4.48352	0	
2.1967	-12.0551	2.34555	0	
2.1973	-10.2061	4.79488	0	
2.1980	-7.46971	11.2088	0	
2.1987	-6.84107	14.5507	0	
2.1993	-7.46971	14.5507	0	
2.2000	-7.46971	11.8108	0	
2.2007	-6.24941	4.48352	0	
2.2013	-5.62077	-3.75702	0	
2.2020	-3.80881	-2.221	0	
2.2027	0.776554	2.34555	0	
2.2033	3.84579	-0.996338	0	
2.2040	4.73328	-5.895	0	
2.2047	5.36192	-5.58364	0	
2.2053	3.51298	-3.13431	0	
2.2060	1.07238	1.74359	0	
2.2067	2.62549	8.44812	0	
2.2073	3.51298	12.1221	0	
2.2080	2.62549	11.8108	0	
2.2087	3.84579	9.67278	0	
2.2093	3.84579	6.31014	0	
2.2100	1.40519	2.34555	0	
2.2107	1.99685	-0.996338	0	
2.2113	2.29268	-3.75702	0	
2.2120	-0.443745	-8.32357	0	
2.2127	0.480724	-14.4261	0	
2.2133	1.07238	-18.4115	0	
2.2140	-2.88434	-24.5141	0	
2.2147	-3.80881	-33.9585	0	
2.2153	-2.58851	-34.8718	0	
2.2160	-4.6963	-22.0647	0	
2.2167	-5.02911	-9.23688	0	
2.2173	-1.66404	-0.394384	0	
2.2180	-2.2557	9.98414	0	
2.2187	-6.24941	13.6374	0	
2.2193	-10.2061	4.48352	0	
2.2200	-13.867	-6.80831	0	
2.2207	-15.716	-14.7375	0	
2.2213	-12.9426	-17.4774	0	
2.2220	-8.06137	-11.9976	0	
2.2227	-6.54524	-4.67033	0	
2.2233	-10.502	-4.98169	0	
2.2240	-9.91031	-6.49695	0	
2.2247	-1.36821	-3.75702	0	
2.2253	1.07238	-1.93041	0	
2.2260	-4.40047	-3.75702	0	
2.2267	-6.84107	-3.44567	0	
2.2273	-6.24941	-0.0830282	0	
2.2280	-7.46971	-0.394384	0	
2.2287	-7.76554	-0.996338	0	
2.2293	-8.69001	3.88157	0	
2.2300	-8.3572	5.70819	0	
2.2307	-4.40047	1.74359	0	
2.2313	-5.02911	0.830282	0	
2.2320	-8.98584	2.6569	0	
2.2327	-5.9166	2.05495	0	
2.2333	-3.18017	2.05495	0	
2.2340	-6.84107	3.57021	0	
2.2347	-5.62077	3.88157	0	
2.2353	-0.147915	5.10623	0	
2.2360	-0.147915	6.31014	0	
2.2367	-3.476	4.48352	0	
2.2373	-2.88434	2.6569	0	
2.2380	-1.66404	3.57021	0	
2.2387	-2.88434	3.88157	0	
2.2393	-5.62077	3.88157	0	
2.2400	-3.476	5.39683	0	
2.2407	1.70102	4.48352	0	
2.2413	2.62549	2.6569	0	
2.2420	-0.147915	3.57021	0	
2.2427	-0.443745	4.48352	0	
2.2433	0.480724	3.57021	0	
2.2440	1.70102	2.6569	0	
2.2447	3.21715	1.74359	0	
2.2453	3.84579	-0.394384	0	
2.2460	4.73328	0.20757	0	
2.2467	6.28639	2.34555	0	
2.2473	5.06609	2.05495	0	
2.2480	4.43745	0.20757	0	
2.2487	6.58222	-0.0830282	0	
2.2493	5.36192	0.20757	0	
2.2500	2.62549	-0.394384	0	
2.2507	2.62549	-1.61905	0	
2.2513	0.776554	-0.996338	0	
2.2520	-1.03541	0.830282	0	
2.2527	-1.66404	2.05495	0	
2.2533	-6.54524	3.25886	0	
2.2540	-11.7223	4.48352	0	
2.2547	-9.28167	3.57021	0	
2.2553	-6.54524	1.43224	0	
2.2560	-6.54524	3.25886	0	
2.2567	-4.6963	6.31014	0	
2.2573	-2.88434	4.79488	0	
2.2580	-2.58851	2.34555	0	
2.2587	-1.03541	2.6569	0	
2.2593	-1.03541	3.57021	0	
2.2600	-1.95987	1.74359	0	
2.2607	0.776554	1.12088	0	
2.2613	2.62549	2.6569	0	
2.2620	1.70102	3.57021	0	
2.2627	3.51298	2.05495	0	
2.2633	8.09835	1.43224	0	
2.2640	8.72699	0.20757	0	
2.2647	6.28639	-2.221	0	
2.2653	6.28639	-1.61905	0	
2.2660	7.80252	0.830282	0	
2.2667	9.02282	0.20757	0	
2.2673	9.02282	1.12088	0	
2.2680	7.17388	4.79488	0	
2.2687	8.09835	3.88157	0	
2.2693	11.4634	1.74359	0	
2.2700	11.1676	3.57021	0	
2.2707	8.09835	3.88157	0	
2.2713	8.72699	1.12088	0	
2.2720	10.2431	-0.705739	0	
2.2727	7.80252	-1.61905	0	
2.2733	5.95358	-0.996338	0	
2.2740	6.28639	1.74359	0	
2.2747	5.95358	2.34555	0	
2.2753	6.28639	1.12088	0	
2.2760	8.72699	1.43224	0	
2.2767	9.61448	1.43224	0	
2.2773	8.09835	2.34555	0	
2.2780	6.87805	4.17217	0	
2.2787	6.58222	4.79488	0	
2.2793	7.17388	6.93285	0	
2.2800	8.09835	13.9487	0	
2.2807	8.09835	17	0	
2.2813	8.09835	8.75947	0	
2.2820	7.50669	-3.44567	0	
2.2827	8.09835	-7.11967	0	
2.2833	9.94729	-1.93041	0	
2.2840	10.8348	5.39683	0	
2.2847	9.61448	6.01954	0	
2.2853	8.72699	-0.705739	0	
2.2860	7.17388	-8.03298	0	
2.2867	5.36192	-10.171	0	
2.2873	4.43745	-8.03298	0	
2.2880	4.73328	-5.58364	0	
2.2887	5.36192	-3.75702	0	
2.2893	6.28639	-3.44567	0	
2.2900	6.28639	-3.13431	0	
2.2907	6.28639	-1.61905	0	
2.2913	8.09835	1.43224	0	
2.2920	9.02282	4.48352	0	
2.2927	7.17388	11.4994	0	
2.2933	6.28639	17.3114	0	
2.2940	7.80252	10.5861	0	
2.2947	6.28639	-4.35898	0	
2.2953	3.84579	-8.63493	0	
2.2960	5.06609	-1.30769	0	
2.2967	6.28639	3.25886	0	
2.2973	3.84579	1.74359	0	
2.2980	1.70102	1.43224	0	
2.2987	1.70102	0.830282	0	
2.2993	1.99685	0.830282	0	
2.3000	2.92132	1.74359	0	
2.3007	4.14162	-3.75702	0	
2.3013	4.14162	-17.4774	0	
2.3020	2.62549	-27.254	0	
2.3027	0.776554	-26.6313	0	
2.3033	0.776554	-21.1514	0	
2.3040	1.07238	-14.7375	0	
2.3047	-0.147915	-10.7729	0	
2.3053	-1.03541	-5.58364	0	
2.3060	-0.147915	3.88157	0	
2.3067	-0.147915	7.84616	0	
2.3073	-2.88434	10.8974	0	
2.3080	-4.40047	22.1893	0	
2.3087	-4.6963	18.2247	0	
2.3093	-4.40047	-9.54824	0	
2.3100	-3.476	-19.3248	0	
2.3107	-4.40047	0.830282	0	
2.3113	-7.1369	9.98414	0	
2.3120	-6.54524	-2.53236	0	
2.3127	-5.62077	-9.23688	0	
2.3133	-9.28167	-8.32357	0	
2.3140	-11.4264	-13.8242	0	
2.3147	-11.1306	-20.5287	0	
2.3153	-12.6467	-12.2882	0	
2.3160	-13.867	6.6215	0	
2.3167	-12.0551	17.3114	0	
2.3173	-10.2061	15.464	0	
2.3180	-8.3572	15.464	0	
2.3187	-7.1369	16.3981	0	
2.3193	-7.1369	5.39683	0	
2.3200	-7.1369	-9.23688	0	
2.3207	-7.46971	-7.72162	0	
2.3213	-8.3572	4.79488	0	
2.3220	-5.9166	10.2955	0	
2.3227	-2.58851	8.15752	0	
2.3233	-3.18017	7.22345	0	
2.3240	-3.80881	7.22345	0	
2.3247	-3.80881	7.22345	0	
2.3253	-5.32494	9.98414	0	
2.3260	-5.62077	11.2088	0	
2.3267	-5.02911	5.70819	0	
2.3273	-8.06137	-0.0830282	0	
2.3280	-11.1306	-1.93041	0	
2.3287	-9.28167	-0.996338	0	
2.3293	-6.24941	0.830282	0	
2.3300	-5.32494	2.6569	0	
2.3307	-7.46971	0.830282	0	
2.3313	-11.1306	-1.93041	0	
2.3320	-12.3509	-0.705739	0	
2.3327	-10.2061	0.830282	0	
2.3333	-8.3572	-0.0830282	0	
2.3340	-8.06137	-0.996338	0	
2.3347	-8.98584	1.12088	0	
2.3353	-10.8348	2.05495	0	
2.3360	-10.502	2.05495	0	
2.3367	-7.76554	2.34555	0	
2.3373	-6.54524	0.518926	0	
2.3380	-7.76554	-0.996338	0	
2.3387	-8.06137	1.12088	0	
2.3393	-8.3572	1.74359	0	
2.3400	-9.91031	-0.0830282	0	
2.3407	-9.28167	0.20757	0	
2.3413	-6.54524	-0.394384	0	
2.3420	-5.62077	-2.84371	0	
2.3427	-5.02911	-2.84371	0	
2.3433	-3.80881	-2.221	0	
2.3440	-3.80881	-4.67033	0	
2.3447	-4.40047	-5.895	0	
2.3453	-2.88434	-5.58364	0	
2.3460	-1.95987	-6.49695	0	
2.3467	-2.58851	-4.35898	0	
2.3473	-2.88434	-1.93041	0	
2.3480	-1.36821	-3.13431	0	
2.3487	0.776554	-4.06838	0	
2.3493	1.07238	-4.06838	0	
2.3500	0.480724	-5.895	0	
2.3507	2.92132	-5.58364	0	
2.3513	6.28639	-2.84371	0	
2.3520	3.21715	-1.93041	0	
2.3527	-0.443745	-1.93041	0	
2.3533	-0.147915	-0.394384	0	
2.3540	-1.03541	-2.53236	0	
2.3547	-3.18017	-4.67033	0	
2.3553	-2.2557	-3.44567	0	
2.3560	-1.95987	-2.221	0	
2.3567	-3.476	-2.53236	0	
2.3573	-2.88434	0.20757	0	
2.3580	-0.739575	2.05495	0	
2.3587	-0.147915	0.518926	0	
2.3593	0.776554	-0.996338	0	
2.3600	0.776554	-2.221	0	
2.3607	-0.443745	-3.44567	0	
2.3613	-0.739575	-2.84371	0	
2.3620	1.70102	-0.996338	0	
2.3627	2.62549	-0.394384	0	
2.3633	2.62549	-0.996338	0	
2.3640	2.62549	-3.75702	0	
2.3647	2.92132	-5.58364	0	
2.3653	2.92132	-3.75702	0	
2.3660	4.73328	-2.53236	0	
2.3667	6.58222	-1.93041	0	
2.3673	5.36192	-0.996338	0	
2.3680	3.84579	-2.84371	0	
2.3687	2.62549	-4.67033	0	
2.3693	-0.147915	-1.93041	0	
2.3700	-0.739575	0.830282	0	
2.3707	0.776554	0.518926	0	
2.3713	-1.03541	0.830282	0	
2.3720	-2.88434	0.830282	0	
2.3727	-2.58851	-0.394384	0	
2.3733	-3.80881	-0.996338	0	
2.3740	-5.02911	-1.93041	0	
2.3747	-4.40047	-2.53236	0	
2.3753	-5.62077	-1.30769	0	
2.3760	-6.54524	-0.996338	0	
2.3767	-5.02911	-0.394384	0	
2.3773	-4.40047	1.74359	0	
2.3780	-2.88434	0.20757	0	
2.3787	-0.739575	-4.35898	0	
2.3793	-1.66404	-4.35898	0	
2.3800	-2.58851	-0.0830282	0	
2.3807	1.07238	5.70819	0	
2.3813	5.36192	11.8108	0	
2.3820	7.80252	13.6374	0	
2.3827	9.94729	9.67278	0	
2.3833	11.4634	8.15752	0	
2.3840	14.1998	8.44812	0	
2.3847	16.3446	5.39683	0	
2.3853	15.4201	4.48352	0	
2.3860	15.4201	10.5861	0	
2.3867	15.4201	14.2601	0	
2.3873	8.72699	13.0354	0	
2.3880	3.84579	12.7241	0	
2.3887	6.87805	9.07083	0	
2.3893	8.72699	-2.53236	0	
2.3900	6.28639	-14.7375	0	
2.3907	5.36192	-17.7888	0	
2.3913	5.36192	-12.9109	0	
2.3920	2.92132	-9.23688	0	
2.3927	1.70102	-13.2222	0	
2.3933	1.70102	-19.6154	0	
2.3940	1.07238	-16.5641	0	
2.3947	0.776554	-9.54824	0	
2.3953	1.70102	-13.8242	0	
2.3960	1.99685	-19.3248	0	
2.3967	0.776554	-10.4616	0	
2.3973	-0.443745	-1.93041	0	
2.3980	2.62549	-5.58364	0	
2.3987	5.36192	-7.11967	0	
2.3993	3.21715	-2.53236	0	
2.4000	0.480724	-0.996338	0	
2.4007	1.70102	-2.84371	0	
2.4013	1.70102	-2.84371	0	
2.4020	0.776554	-1.93041	0	
2.4027	2.62549	-0.996338	0	
2.4033	4.43745	-0.996338	0	
2.4040	3.21715	-1.30769	0	
2.4047	3.51298	1.74359	0	
2.4053	3.84579	2.05495	0	
2.4060	2.92132	-1.30769	0	
2.4067	4.14162	0.20757	0	
2.4073	5.36192	4.17217	0	
2.4080	3.21715	4.17217	0	
2.4087	2.29268	4.17217	0	
2.4093	2.62549	5.39683	0	
2.4100	1.70102	5.70819	0	
2.4107	1.70102	7.53481	0	
2.4113	0.776554	7.84616	0	
2.4120	-2.58851	3.57021	0	
2.4127	-2.88434	-1.30769	0	
2.4133	-0.147915	-6.1856	0	
2.4140	-1.03541	-8.94629	0	
2.4147	-1.95987	-4.67033	0	
2.4153	-1.66404	-0.0830282	0	
2.4160	-3.80881	1.74359	0	
2.4167	-5.62077	4.48352	0	
2.4173	-3.18017	5.10623	0	
2.4180	-1.03541	2.96826	0	
2.4187	-1.95987	4.48352	0	
2.4193	-1.95987	6.6215	0	
2.4200	-1.66404	8.44812	0	
2.4207	-0.147915	10.8974	0	
2.4213	2.62549	3.88157	0	
2.4220	1.40519	-11.9976	0	
2.4227	-0.443745	-16.2735	0	
2.4233	2.62549	-8.63493	0	
2.4240	4.43745	-2.84371	0	
2.4247	1.99685	2.6569	0	
2.4253	2.92132	6.93285	0	
2.4260	7.17388	0.518926	0	
2.4267	5.65775	-6.1856	0	
2.4273	2.62549	-4.35898	0	
2.4280	4.43745	-4.67033	0	
2.4287	5.65775	-8.32357	0	
2.4293	5.36192	-6.49695	0	
2.4300	5.36192	-3.13431	0	
2.4307	3.84579	-3.75702	0	
2.4313	1.70102	-2.53236	0	
2.4320	1.07238	2.96826	0	
2.4327	0.480724	5.10623	0	
2.4333	-0.147915	2.96826	0	
2.4340	0.184894	-0.0830282	0	
2.4347	1.07238	-3.75702	0	
2.4353	1.70102	-2.84371	0	
2.4360	1.70102	6.93285	0	
2.4367	1.70102	11.8108	0	
2.4373	2.62549	7.22345	0	
2.4380	1.99685	4.48352	0	
2.4387	-1.03541	1.74359	0	
2.4393	-1.03541	-7.41026	0	
2.4400	1.70102	-13.2222	0	
2.4407	1.07238	-12.5995	0	
2.4413	-0.147915	-16.5641	0	
2.4420	0.776554	-14.7375	0	
2.4427	1.70102	3.88157	0	
2.4433	2.62549	20.0513	0	
2.4440	3.51298	18.2247	0	
2.4447	1.99685	10.5861	0	
2.4453	0.776554	9.36143	0	
2.4460	1.70102	12.7241	0	
2.4467	0.776554	13.6374	0	
2.4473	-1.03541	10.8974	0	
2.4480	-1.03541	4.48352	0	
2.4487	-2.58851	0.830282	0	
2.4493	-5.32494	3.57021	0	
2.4500	-4.10464	9.36143	0	
2.4507	-3.476	9.07083	0	
2.4513	-5.32494	4.48352	0	
2.4520	-4.6963	4.17217	0	
2.4527	-4.40047	4.79488	0	
2.4533	-6.54524	2.34555	0	
2.4540	-5.9166	2.96826	0	
2.4547	-3.80881	6.01954	0	
2.4553	-5.9166	5.39683	0	
2.4560	-4.10464	4.48352	0	
2.4567	1.70102	6.31014	0	
2.4573	1.40519	9.07083	0	
2.4580	-0.147915	11.8108	0	
2.4587	4.43745	11.4994	0	
2.4593	4.43745	9.07083	0	
2.4600	-0.739575	9.67278	0	
2.4607	0.776554	5.39683	0	
2.4613	4.73328	-10.171	0	
2.4620	4.73328	-23.58	0	
2.4627	5.06609	-22.3761	0	
2.4633	5.65775	-13.5128	0	
2.4640	4.14162	-5.27229	0	
2.4647	5.06609	-1.61905	0	
2.4653	7.17388	-2.221	0	
2.4660	6.28639	-2.221	0	
2.4667	4.43745	0.20757	0	
2.4673	3.84579	2.6569	0	
2.4680	3.21715	5.39683	0	
2.4687	3.84579	6.01954	0	
2.4693	4.14162	1.43224	0	
2.4700	2.29268	-5.27229	0	
2.4707	-0.147915	-14.1355	0	
2.4713	-1.95987	-21.4628	0	
2.4720	-4.40047	-18.7021	0	
2.4727	-5.02911	-8.63493	0	
2.4733	-3.476	-2.221	0	
2.4740	-2.88434	-0.0830282	0	
2.4747	-4.6963	1.12088	0	
2.4753	-6.84107	0.20757	0	
2.4760	-8.3572	0.518926	0	
2.4767	-7.46971	3.57021	0	
2.4773	-5.9166	4.48352	0	
2.4780	-5.9166	3.57021	0	
2.4787	-5.9166	4.79488	0	
2.4793	-5.62077	5.70819	0	
2.4800	-5.9166	2.34555	0	
2.4807	-5.62077	-4.35898	0	
2.4813	-2.58851	-10.171	0	
2.4820	1.40519	-12.2882	0	
2.4827	2.62549	-11.9976	0	
2.4833	1.40519	-9.8596	0	
2.4840	0.184894	-6.49695	0	
2.4847	2.92132	-4.98169	0	
2.4853	5.06609	-7.41026	0	
2.4860	2.29268	-9.8596	0	
2.4867	0.776554	-7.41026	0	
2.4873	1.70102	-4.35898	0	
2.4880	-0.147915	-3.75702	0	
2.4887	-2.88434	-2.84371	0	
2.4893	-3.476	2.6569	0	
2.4900	-4.6963	5.39683	0	
2.4907	-5.62077	-4.67033	0	
2.4913	-5.32494	-14.1355	0	
2.4920	-6.84107	-5.895	0	
2.4927	-9.91031	5.39683	0	
2.4933	-10.2061	4.17217	0	
2.4940	-9.28167	-1.30769	0	
2.4947	-8.98584	-1.30769	0	
2.4953	-9.5775	-0.0830282	0	
2.4960	-11.7223	0.518926	0	
2.4967	-12.6467	0.830282	0	
2.4973	-9.91031	0.518926	0	
2.4980	-7.76554	0.830282	0	
2.4987	-7.46971	1.12088	0	
2.4993	-7.46971	0.518926	0	
2.5000	-6.24941	1.74359	0	
2.5007	-4.6963	1.74359	0	
2.5013	-4.40047	-0.996338	0	
2.5020	-6.24941	-1.61905	0	
2.5027	-6.24941	0.830282	0	
2.5033	-1.03541	-0.0830282	0	
2.5040	2.62549	-2.84371	0	
2.5047	0.776554	-1.93041	0	
2.5053	-1.03541	-0.394384	0	
2.5060	-0.739575	-1.93041	0	
2.5067	-1.95987	-1.93041	0	
2.5073	-2.2557	-0.0830282	0	
2.5080	-1.66404	-1.30769	0	
2.5087	-3.80881	-3.13431	0	
2.5093	-5.9166	-2.221	0	
2.5100	-3.80881	-2.84371	0	
2.5107	-1.36821	-3.75702	0	
2.5113	-2.88434	-2.84371	0	
2.5120	-6.24941	-1.30769	0	
2.5127	-7.46971	-2.221	0	
2.5133	-8.3572	-0.996338	0	
2.5140	-8.69001	-0.0830282	0	
2.5147	-9.28167	0.20757	0	
2.5153	-10.8348	6.31014	0	
2.5160	-9.28167	13.6374	0	
2.5167	-5.32494	13.6374	0	
2.5173	-5.32494	11.8108	0	
2.5180	-6.54524	13.0354	0	
2.5187	-2.88434	13.0354	0	
2.5193	-1.36821	9.98414	0	
2.5200	-4.6963	6.93285	0	
2.5207	-3.80881	5.39683	0	
2.5213	-1.36821	1.12088	0	
2.5220	-2.88434	-7.41026	0	
2.5227	-2.58851	-12.2882	0	
2.5233	0.776554	-7.41026	0	
2.5240	2.62549	-2.84371	0	
2.5247	4.43745	-1.93041	0	
2.5253	5.36192	-1.61905	0	
2.5260	5.36192	-1.93041	0	
2.5267	6.58222	-2.84371	0	
2.5273	8.39418	0.518926	0	
2.5280	8.09835	2.05495	0	
2.5287	4.14162	-0.0830282	0	
2.5293	1.40519	2.6569	0	
2.5300	4.43745	6.93285	0	
2.5307	7.80252	4.17217	0	
2.5313	3.51298	-1.61905	0	
2.5320	-1.03541	-5.895	0	
2.5327	-1.36821	-7.41026	0	
2.5333	-0.147915	-2.221	0	
2.5340	2.92132	0.830282	0	
2.5347	5.06609	-6.1856	0	
2.5353	2.62549	-11.3749	0	
2.5360	1.70102	-8.32357	0	
2.5367	3.21715	-1.30769	0	
2.5373	2.62549	5.39683	0	
2.5380	3.51298	2.6569	0	
2.5387	5.95358	-8.63493	0	
2.5393	3.51298	-12.5995	0	
2.5400	3.51298	-3.75702	0	
2.5407	7.50669	11.2088	0	
2.5413	7.80252	31.0318	0	
2.5420	6.28639	43.5483	0	
2.5427	7.80252	37.1344	0	
2.5433	8.39418	21.8779	0	
2.5440	6.87805	4.48352	0	
2.5447	7.50669	-14.4261	0	
2.5453	7.80252	-16.5641	0	
2.5460	5.95358	2.34555	0	
2.5467	6.58222	12.7241	0	
2.5473	9.61448	3.25886	0	
2.5480	10.2431	-3.75702	0	
2.5487	9.02282	-0.0830282	0	
2.5493	8.39418	-3.75702	0	
2.5500	8.09835	-18.4115	0	
2.5507	6.87805	-31.2186	0	
2.5513	6.28639	-33.3566	0	
2.5520	6.28639	-28.1673	0	
2.5527	4.43745	-19.3248	0	
2.5533	2.62549	-11.6862	0	
2.5540	1.99685	-10.171	0	
2.5547	1.40519	-11.6862	0	
2.5553	-1.95987	-11.9976	0	
2.5560	-4.6963	-8.32357	0	
2.5567	-2.88434	1.12088	0	
2.5573	-0.147915	9.98414	0	
2.5580	-1.03541	14.2601	0	
2.5587	-2.2557	18.2247	0	
2.5593	-0.739575	17.602	0	
2.5600	1.70102	8.15752	0	
2.5607	1.70102	2.34555	0	
2.5613	0.776554	3.57021	0	
2.5620	0.776554	-0.996338	0	
2.5627	0.776554	-7.41026	0	
2.5633	0.184894	-3.75702	0	
2.5640	-0.147915	3.25886	0	
2.5647	1.70102	3.57021	0	
2.5653	3.51298	1.74359	0	
2.5660	4.73328	0.830282	0	
2.5667	3.51298	1.43224	0	
2.5673	1.07238	6.31014	0	
2.5680	-0.147915	11.8108	0	
2.5687	-0.443745	11.8108	0	
2.5693	-0.443745	7.53481	0	
2.5700	1.07238	3.25886	0	
2.5707	1.70102	3.88157	0	
2.5713	-0.443745	9.98414	0	
2.5720	-2.2557	17.9133	0	
2.5727	-3.18017	26.4652	0	
2.5733	-5.02911	29.2052	0	
2.5740	-4.6963	20.6533	0	
2.5747	-4.10464	9.36143	0	
2.5753	-6.84107	9.98414	0	
2.5760	-8.98584	24.6386	0	
2.5767	-8.3572	34.7058	0	
2.5773	-8.3572	11.4994	0	
2.5780	-8.3572	-36.4079	0	
2.5787	-7.1369	-61.4408	0	
2.5793	-7.76554	-46.475	0	
2.5800	-7.46971	-25.4274	0	
2.5807	-5.9166	-17.4774	0	
2.5813	-7.1369	-11.9976	0	
2.5820	-7.1369	-7.11967	0	
2.5827	-3.476	-8.03298	0	
2.5833	-2.2557	-9.23688	0	
2.5840	-2.88434	-6.49695	0	
2.5847	-1.66404	-4.67033	0	
2.5853	-1.66404	-5.27229	0	
2.5860	-3.476	-4.98169	0	
2.5867	-3.476	-4.67033	0	
2.5873	-2.88434	-5.58364	0	
2.5880	-1.95987	-4.67033	0	
2.5887	-1.66404	-3.13431	0	
2.5893	-1.36821	-3.75702	0	
2.5900	-1.03541	-2.84371	0	
2.5907	-1.95987	0.518926	0	
2.5913	-3.80881	-0.996338	0	
2.5920	-3.80881	-3.44567	0	
2.5927	-1.95987	-1.30769	0	
2.5933	-2.88434	0.518926	0	
2.5940	-3.80881	-0.0830282	0	
2.5947	-2.88434	-0.705739	0	
2.5953	-3.80881	-0.394384	0	
2.5960	-3.80881	-0.0830282	0	
2.5967	-1.36821	-0.394384	0	
2.5973	-1.36821	-2.84371	0	
2.5980	-4.6963	-3.13431	0	
2.5987	-5.9166	-0.705739	0	
2.5993	-4.10464	-0.394384	0	
2.6000	-2.88434	-1.61905	0	
2.6007	-2.88434	0.830282	0	
2.6013	-2.88434	2.6569	0	
2.6020	-1.36821	2.6569	0	
2.6027	0.776554	4.48352	0	
2.6033	2.29268	4.48352	0	
2.6040	2.92132	0.20757	0	
2.6047	2.92132	-2.84371	0	
2.6053	1.99685	-3.75702	0	
2.6060	2.62549	-2.84371	0	
2.6067	4.43745	0.518926	0	
2.6073	5.36192	4.17217	0	
2.6080	5.06609	5.39683	0	
2.6087	4.43745	7.22345	0	
2.6093	4.43745	9.07083	0	
2.6100	3.51298	8.15752	0	
2.6107	3.21715	7.84616	0	
2.6113	2.62549	10.5861	0	
2.6120	2.62549	12.1221	0	
2.6127	1.07238	14.5507	0	
2.6133	-1.03541	16.0867	0	
2.6140	-2.58851	4.48352	0	
2.6147	-4.10464	-14.1355	0	
2.6153	-5.62077	-16.8755	0	
2.6160	-6.54524	-8.03298	0	
2.6167	-5.9166	-4.67033	0	
2.6173	-3.80881	-3.44567	0	
2.6180	-2.58851	0.518926	0	
2.6187	-3.476	0.518926	0	
2.6193	-2.88434	-0.996338	0	
2.6200	-0.147915	-0.705739	0	
2.6207	-0.739575	-0.0830282	0	
2.6213	-0.443745	1.74359	0	
2.6220	2.62549	2.96826	0	
2.6227	1.99685	0.518926	0	
2.6233	1.07238	0.830282	0	
2.6240	4.43745	3.57021	0	
2.6247	6.28639	2.96826	0	
2.6253	4.73328	3.25886	0	
2.6260	4.43745	5.39683	0	
2.6267	3.51298	6.01954	0	
2.6273	1.40519	8.15752	0	
2.6280	-0.147915	9.36143	0	
2.6287	-1.95987	6.31014	0	
2.6293	-1.95987	2.6569	0	
2.6300	-0.443745	-3.13431	0	
2.6307	-1.95987	-14.7375	0	
2.6313	-2.88434	-21.7534	0	
2.6320	0.480724	-18.1001	0	
2.6327	-0.147915	-11.6862	0	
2.6333	-5.9166	-8.94629	0	
2.6340	-7.46971	-8.32357	0	
2.6347	-5.62077	-6.80831	0	
2.6353	-5.02911	-4.35898	0	
2.6360	-5.62077	2.6569	0	
2.6367	-5.32494	11.8108	0	
2.6373	-3.18017	8.15752	0	
2.6380	-0.443745	-6.49695	0	
2.6387	2.29268	-5.27229	0	
2.6393	4.43745	13.9487	0	
2.6400	3.84579	22.7912	0	
2.6407	0.480724	11.8108	0	
2.6413	0.184894	-3.44567	0	
2.6420	4.43745	-5.895	0	
2.6427	6.28639	4.79488	0	
2.6433	5.06609	10.2955	0	
2.6440	5.65775	3.25886	0	
2.6447	7.17388	2.05495	0	
2.6453	5.36192	5.39683	0	
2.6460	2.92132	3.88157	0	
2.6467	3.51298	11.4994	0	
2.6473	3.51298	18.2247	0	
2.6480	2.92132	-1.93041	0	
2.6487	3.51298	-26.0293	0	
2.6493	4.43745	-23.8914	0	
2.6500	4.73328	-10.7729	0	
2.6507	6.87805	-3.75702	0	
2.6513	7.50669	1.74359	0	
2.6520	6.28639	4.17217	0	
2.6527	5.36192	1.43224	0	
2.6533	4.73328	0.830282	0	
2.6540	3.84579	1.12088	0	
2.6547	2.92132	-0.705739	0	
2.6553	0.480724	-0.996338	0	
2.6560	-1.95987	-0.0830282	0	
2.6567	-3.476	0.830282	0	
2.6573	-5.62077	2.05495	0	
2.6580	-5.9166	3.88157	0	
2.6587	-3.80881	3.57021	0	
2.6593	-3.80881	1.43224	0	
2.6600	-3.80881	1.43224	0	
2.6607	-2.2557	2.34555	0	
2.6613	-3.80881	1.12088	0	
2.6620	-4.40047	-0.0830282	0	
2.6627	0.776554	0.830282	0	
2.6633	1.70102	2.05495	0	
2.6640	-2.88434	1.43224	0	
2.6647	-1.03541	-0.0830282	0	
2.6653	2.62549	-0.705739	0	
2.6660	1.70102	-0.0830282	0	
2.6667	0.480724	2.05495	0	
2.6673	1.40519	4.17217	0	
2.6680	0.776554	3.57021	0	
2.6687	-0.739575	2.05495	0	
2.6693	-1.95987	2.6569	0	
2.6700	-5.62077	2.6569	0	
2.6707	-7.1369	2.6569	0	
2.6713	-4.6963	5.70819	0	
2.6720	-4.6963	9.36143	0	
2.6727	-6.54524	8.44812	0	
2.6733	-6.54524	6.01954	0	
2.6740	-4.40047	2.34555	0	
2.6747	-3.80881	-6.1856	0	
2.6753	-5.62077	-9.8596	0	
2.6760	-6.54524	0.518926	0	
2.6767	-2.88434	9.07083	0	
2.6773	1.07238	5.70819	0	
2.6780	0.776554	1.74359	0	
2.6787	-0.147915	-2.84371	0	
2.6793	1.40519	-17.1868	0	
2.6800	2.62549	-27.5654	0	
2.6807	2.62549	-22.0647	0	
2.6813	0.776554	-14.7375	0	
2.6820	-0.147915	-12.9109	0	
2.6827	2.62549	-8.32357	0	
2.6833	3.51298	-1.61905	0	
2.6840	1.99685	1.74359	0	
2.6847	2.62549	2.96826	0	
2.6853	5.65775	5.39683	0	
2.6860	5.95358	7.84616	0	
2.6867	4.43745	10.2955	0	
2.6873	4.43745	12.1221	0	
2.6880	2.92132	15.7754	0	
2.6887	1.70102	22.5006	0	
2.6893	2.62549	23.7045	0	
2.6900	2.62549	20.6533	0	
2.6907	-1.03541	24.6386	0	
2.6913	-1.95987	24.0159	0	
2.6920	1.40519	-0.996338	0	
2.6927	1.99685	-35.8059	0	
2.6933	-3.18017	-51.0623	0	
2.6940	-5.9166	-40.6838	0	
2.6947	-3.476	-16.8755	0	
2.6953	-2.88434	5.10623	0	
2.6960	-4.6963	14.2601	0	
2.6967	-4.40047	14.5507	0	
2.6973	-4.40047	9.98414	0	
2.6980	-4.6963	-9.23688	0	
2.6987	-2.58851	-27.254	0	
2.6993	0.184894	-12.5995	0	
2.7000	0.776554	15.7754	0	
2.7007	1.99685	11.8108	0	
2.7013	3.51298	-13.5128	0	
2.7020	3.51298	-20.2381	0	
2.7027	2.62549	-8.32357	0	
2.7033	2.62549	-0.996338	0	
2.7040	5.36192	-0.996338	0	
2.7047	8.39418	-2.53236	0	
2.7053	7.80252	-5.58364	0	
2.7060	6.28639	-9.54824	0	
2.7067	7.80252	-8.32357	0	
2.7073	8.09835	-2.84371	0	
2.7080	6.87805	-0.394384	0	
2.7087	7.17388	-0.705739	0	
2.7093	5.36192	-4.67033	0	
2.7100	2.29268	-14.7375	0	
2.7107	1.07238	-17.7888	0	
2.7113	0.184894	-7.11967	0	
2.7120	-1.36821	-0.705739	0	
2.7127	-1.36821	-5.27229	0	
2.7133	-0.739575	-4.35898	0	
2.7140	-0.739575	6.31014	0	
2.7147	-0.739575	16.3981	0	
2.7153	-1.03541	22.7912	0	
2.7160	-1.95987	24.9292	0	
2.7167	-1.95987	21.8779	0	
2.7173	-1.03541	18.5153	0	
2.7180	0.480724	20.3627	0	
2.7187	1.70102	25.2406	0	
2.7193	1.70102	24.3273	0	
2.7200	1.70102	22.1893	0	
2.7207	2.29268	25.5519	0	
2.7213	2.62549	13.9487	0	
2.7220	1.70102	-22.978	0	
2.7227	-0.443745	-48.011	0	
2.7233	-1.95987	-39.4591	0	
2.7240	-1.03541	-22.6667	0	
2.7247	0.480724	-13.8242	0	
2.7253	-1.95987	-9.54824	0	
2.7260	-3.80881	-7.11967	0	
2.7267	-2.58851	-1.30769	0	
2.7273	-2.58851	6.31014	0	
2.7280	-4.10464	4.79488	0	
2.7287	-4.6963	-1.61905	0	
2.7293	-6.84107	-1.61905	0	
2.7300	-9.91031	1.43224	0	
2.7307	-8.69001	2.96826	0	
2.7313	-5.32494	2.6569	0	
2.7320	-4.40047	1.74359	0	
2.7327	-6.54524	3.57021	0	
2.7333	-9.91031	5.39683	0	
2.7340	-9.5775	4.48352	0	
2.7347	-5.32494	4.48352	0	
2.7353	-3.80881	5.10623	0	
2.7360	-5.9166	3.88157	0	
2.7367	-5.62077	1.74359	0	
2.7373	-4.10464	-0.0830282	0	
2.7380	-3.80881	0.20757	0	
2.7387	-0.443745	2.6569	0	
2.7393	3.84579	0.20757	0	
2.7400	4.43745	-3.75702	0	
2.7407	3.51298	-3.13431	0	
2.7413	4.43745	-0.394384	0	
2.7420	4.43745	-0.996338	0	
2.7427	4.43745	-2.84371	0	
2.7433	5.36192	-5.27229	0	
2.7440	4.43745	-9.23688	0	
2.7447	3.51298	-10.171	0	
2.7453	4.43745	-2.84371	0	
2.7460	3.84579	9.36143	0	
2.7467	2.62549	13.3468	0	
2.7473	2.62549	6.93285	0	
2.7480	1.07238	3.57021	0	
2.7487	-1.03541	5.39683	0	
2.7493	-0.147915	3.57021	0	
2.7500	0.480724	-0.0830282	0	
2.7507	-3.80881	-0.0830282	0	
2.7513	-4.6963	1.43224	0	
2.7520	-1.03541	1.74359	0	
2.7527	-0.443745	0.830282	0	
2.7533	-3.18017	-0.394384	0	
2.7540	-3.476	-0.0830282	0	
2.7547	-2.88434	1.74359	0	
2.7553	-4.10464	4.48352	0	
2.7560	-4.40047	6.31014	0	
2.7567	-2.88434	5.39683	0	
2.7573	-1.66404	2.6569	0	
2.7580	-3.476	2.34555	0	
2.7587	-5.32494	2.34555	0	
2.7593	-5.32494	4.48352	0	
2.7600	-5.62077	9.36143	0	
2.7607	-6.24941	12.7241	0	
2.7613	-4.6963	14.5507	0	
2.7620	-3.80881	13.0354	0	
2.7627	-3.18017	-0.996338	0	
2.7633	-1.03541	-17.4774	0	
2.7640	1.07238	-20.2381	0	
2.7647	0.776554	-13.8242	0	
2.7653	0.184894	-6.80831	0	
2.7660	-1.03541	-0.0830282	0	
2.7667	-1.95987	2.6569	0	
2.7673	0.480724	2.6569	0	
2.7680	1.40519	4.17217	0	
2.7687	-1.66404	-3.44567	0	
2.7693	-1.95987	-20.5287	0	
2.7700	0.776554	-26.6313	0	
2.7707	1.07238	-16.5641	0	
2.7713	-0.443745	-8.63493	0	
2.7720	-0.443745	-6.49695	0	
2.7727	-1.03541	-3.75702	0	
2.7733	-3.476	-0.996338	0	
2.7740	-4.6963	-0.0830282	0	
2.7747	-4.40047	0.830282	0	
2.7753	-2.88434	5.10623	0	
2.7760	-1.36821	9.98414	0	
2.7767	-0.443745	8.15752	0	
2.7773	0.480724	2.34555	0	
2.7780	1.70102	0.518926	0	
2.7787	2.62549	0.518926	0	
2.7793	1.70102	-0.394384	0	
2.7800	1.40519	-0.0830282	0	
2.7807	1.99685	-1.61905	0	
2.7813	2.62549	-5.27229	0	
2.7820	1.99685	-4.98169	0	
2.7827	2.29268	-2.53236	0	
2.7833	3.21715	-5.895	0	
2.7840	5.36192	-11.0843	0	
2.7847	6.87805	-10.171	0	
2.7853	5.36192	-5.895	0	
2.7860	3.51298	-4.06838	0	
2.7867	5.06609	-3.75702	0	
2.7873	5.95358	-3.44567	0	
2.7880	2.62549	-1.61905	0	
2.7887	1.07238	1.74359	0	
2.7893	2.92132	4.48352	0	
2.7900	3.51298	3.57021	0	
2.7907	0.776554	2.34555	0	
2.7913	-1.03541	1.12088	0	
2.7920	-1.03541	-0.394384	0	
2.7927	-1.36821	0.830282	0	
2.7933	-1.95987	5.10623	0	
2.7940	-2.58851	6.01954	0	
2.7947	-1.95987	4.48352	0	
2.7953	-2.88434	4.17217	0	
2.7960	-4.6963	4.17217	0	
2.7967	-4.40047	2.05495	0	
2.7973	-0.739575	0.830282	0	
2.7980	1.99685	2.34555	0	
2.7987	2.29268	2.96826	0	
2.7993	2.62549	0.830282	0	
2.8000	5.36192	-0.996338	0	
2.8007	6.28639	0.20757	0	
2.8013	5.95358	2.05495	0	
2.8020	7.80252	4.48352	0	
2.8027	9.61448	6.6215	0	
2.8033	8.09835	2.34555	0	
2.8040	8.09835	-8.32357	0	
2.8047	11.1676	-13.8242	0	
2.8053	10.8348	-14.7375	0	
2.8060	8.09835	-13.8242	0	
2.8067	5.36192	-7.41026	0	
2.8073	3.84579	-1.30769	0	
2.8080	2.92132	-1.30769	0	
2.8087	3.84579	0.830282	0	
2.8093	5.65775	6.31014	0	
2.8100	5.95358	3.88157	0	
2.8107	3.21715	-0.0830282	0	
2.8113	-0.147915	1.74359	0	
2.8120	-1.03541	4.17217	0	
2.8127	-0.147915	6.6215	0	
2.8133	-0.147915	14.5507	0	
2.8140	-0.739575	17.602	0	
2.8147	-1.66404	6.6215	0	
2.8153	-1.95987	-8.63493	0	
2.8160	-1.95987	-15.3395	0	
2.8167	-3.80881	-11.3749	0	
2.8173	-5.62077	-4.67033	0	
2.8180	-4.6963	-1.61905	0	
2.8187	-4.10464	-0.996338	0	
2.8193	-5.9166	-0.0830282	0	
2.8200	-4.6963	-0.0830282	0	
2.8207	-1.66404	-0.394384	0	
2.8213	-1.95987	0.20757	0	
2.8220	-4.10464	2.05495	0	
2.8227	-4.40047	5.10623	0	
2.8233	-4.10464	6.31014	0	
2.8240	-3.80881	3.57021	0	
2.8247	-2.88434	0.20757	0	
2.8253	-2.88434	0.830282	0	
2.8260	-2.88434	2.34555	0	
2.8267	-1.66404	1.74359	0	
2.8273	-2.88434	2.6569	0	
2.8280	-4.6963	2.05495	0	
2.8287	-4.6963	-8.32357	0	
2.8293	-4.40047	-20.5287	0	
2.8300	-5.02911	-20.5287	0	
2.8307	-7.1369	-11.3749	0	
2.8313	-9.91031	-3.75702	0	
2.8320	-8.69001	-0.0830282	0	
2.8327	-4.6963	1.12088	0	
2.8333	-5.62077	-0.394384	0	
2.8340	-8.3572	-1.30769	0	
2.8347	-5.62077	-0.394384	0	
2.8353	-3.80881	-0.0830282	0	
2.8360	-5.02911	1.12088	0	
2.8367	-3.80881	2.6569	0	
2.8373	-2.2557	1.12088	0	
2.8380	-3.80881	0.830282	0	
2.8387	-3.80881	3.25886	0	
2.8393	-1.95987	2.6569	0	
2.8400	-0.739575	0.20757	0	
2.8407	1.07238	1.43224	0	
2.8413	1.70102	3.57021	0	
2.8420	0.480724	1.74359	0	
2.8427	1.07238	-0.0830282	0	
2.8433	2.62549	0.20757	0	
2.8440	1.70102	0.830282	0	
2.8447	0.480724	-0.0830282	0	
2.8453	0.776554	-0.0830282	0	
2.8460	0.776554	2.05495	0	
2.8467	1.70102	1.43224	0	
2.8473	2.92132	-1.93041	0	
2.8480	2.62549	-2.53236	0	
2.8487	1.99685	-0.0830282	0	
2.8493	1.40519	0.20757	0	
2.8500	-0.443745	0.830282	0	
2.8507	0.776554	4.48352	0	
2.8513	2.62549	9.07083	0	
2.8520	-0.147915	11.8108	0	
2.8527	-2.88434	15.464	0	
2.8533	-2.58851	17.3114	0	
2.8540	-5.02911	8.15752	0	
2.8547	-8.3572	-2.221	0	
2.8553	-7.76554	6.31014	0	
2.8560	-7.1369	22.7912	0	
2.8567	-7.1369	24.3273	0	
2.8573	-3.80881	15.7754	0	
2.8580	-1.95987	5.70819	0	
2.8587	-2.88434	-9.8596	0	
2.8593	-2.88434	-19.0135	0	
2.8600	-1.03541	-5.58364	0	
2.8607	-1.03541	13.6374	0	
2.8613	-1.03541	12.7241	0	
2.8620	-0.147915	-12.5995	0	
2.8627	1.99685	-43.1124	0	
2.8633	3.51298	-52.2662	0	
2.8640	2.92132	-36.7192	0	
2.8647	3.51298	-19.6154	0	
2.8653	7.50669	-14.1355	0	
2.8660	9.94729	-10.7729	0	
2.8667	8.09835	-5.58364	0	
2.8673	6.87805	-4.67033	0	
2.8680	6.58222	-6.1856	0	
2.8687	4.14162	-3.75702	0	
2.8693	1.70102	0.830282	0	
2.8700	2.92132	0.20757	0	
2.8707	3.51298	-5.895	0	
2.8713	0.480724	-10.171	0	
2.8720	-1.66404	-8.32357	0	
2.8727	0.184894	-2.84371	0	
2.8733	1.70102	4.48352	0	
2.8740	1.07238	7.22345	0	
2.8747	0.776554	3.25886	0	
2.8753	1.07238	-0.705739	0	
2.8760	1.99685	-0.0830282	0	
2.8767	1.99685	-1.61905	0	
2.8773	1.70102	-4.67033	0	
2.8780	1.70102	-3.75702	0	
2.8787	0.480724	-1.30769	0	
2.8793	-1.03541	-0.996338	0	
2.8800	-0.443745	0.830282	0	
2.8807	0.184894	3.88157	0	
2.8813	-0.147915	4.17217	0	
2.8820	0.776554	5.39683	0	
2.8827	2.62549	9.07083	0	
2.8833	4.43745	11.2088	0	
2.8840	4.43745	9.67278	0	
2.8847	1.70102	6.6215	0	
2.8853	1.99685	3.25886	0	
2.8860	5.95358	-0.0830282	0	
2.8867	4.43745	-1.93041	0	
2.8873	-1.03541	0.518926	0	
2.8880	-1.03541	5.10623	0	
2.8887	-0.147915	6.01954	0	
2.8893	-4.10464	4.17217	0	
2.8900	-8.06137	2.6569	0	
2.8907	-8.98584	-0.0830282	0	
2.8913	-10.2061	-2.53236	0	
2.8920	-8.3572	-2.53236	0	
2.8927	-4.40047	-3.44567	0	
2.8933	-3.80881	-0.0830282	0	
2.8940	-5.02911	12.1221	0	
2.8947	-5.32494	20.3627	0	
2.8953	-5.62077	16.6887	0	
2.8960	-5.02911	10.2955	0	
2.8967	-2.58851	7.22345	0	
2.8973	-0.147915	6.31014	0	
2.8980	0.480724	9.98414	0	
2.8987	1.40519	16.3981	0	
2.8993	1.07238	16.3981	0	
2.9000	-1.03541	9.36143	0	
2.9007	-1.66404	1.74359	0	
2.9013	-0.443745	-1.30769	0	
2.9020	-0.147915	2.6569	0	
2.9027	-0.443745	9.07083	0	
2.9033	-1.03541	14.862	0	
2.9040	-1.66404	16.6887	0	
2.9047	-0.443745	10.5861	0	
2.9053	0.776554	-0.996338	0	
2.9060	-0.443745	-11.0843	0	
2.9067	-2.58851	-19.3248	0	
2.9073	-1.66404	-24.2027	0	
2.9080	1.07238	-21.4628	0	
2.9087	1.70102	-12.9109	0	
2.9093	0.184894	-6.49695	0	
2.9100	-0.147915	-4.06838	0	
2.9107	-0.147915	-3.75702	0	
2.9113	-0.147915	-3.75702	0	
2.9120	-0.443745	-2.84371	0	
2.9127	-1.36821	-1.61905	0	
2.9133	-1.66404	-0.394384	0	
2.9140	1.40519	-0.0830282	0	
2.9147	3.51298	-1.61905	0	
2.9153	0.776554	-3.13431	0	
2.9160	-1.36821	-2.84371	0	
2.9167	2.62549	-2.53236	0	
2.9173	7.17388	-1.61905	0	
2.9180	4.43745	-0.394384	0	
2.9187	0.480724	-1.93041	0	
2.9193	1.07238	-2.53236	0	
2.9200	5.06609	0.830282	0	
2.9207	8.09835	1.74359	0	
