0.0007	-0.53843	-1.76294	0	
0.0013	-1.76485	-2.36895	0	
0.0020	-2.66224	-2.05676	0	
0.0027	-0.239302	-3.89315	0	
0.0033	1.91442	-3.89315	0	
0.0040	-0.239302	-2.97495	0	
0.0047	-2.06398	-2.05676	0	
0.0053	-1.13669	-1.45075	0	
0.0060	-0.239302	-1.13856	0	
0.0067	-0.53843	-0.84474	0	
0.0073	-2.06398	0.0734557	0	
0.0080	-2.99128	-0.220367	0	
0.0087	-2.06398	-0.220367	0	
0.0093	-1.13669	1.90985	0	
0.0100	-1.13669	0.679465	0	
0.0107	-0.53843	-2.05676	0	
0.0113	-0.837557	-0.220367	0	
0.0120	-2.06398	1.30384	0	
0.0127	-1.13669	-1.76294	0	
0.0133	0.687994	-2.05676	0	
0.0140	-0.837557	0.0734557	0	
0.0147	-2.99128	-1.45075	0	
0.0153	-1.46573	-2.05676	0	
0.0160	2.21354	0.385642	0	
0.0167	4.33735	-0.220367	0	
0.0173	3.11093	-2.97495	0	
0.0180	0.388866	-3.28714	0	
0.0187	1.91442	-2.05676	0	
0.0193	5.26465	-2.05676	0	
0.0200	3.11093	-3.28714	0	
0.0207	-0.53843	-2.97495	0	
0.0213	0.0598255	-1.13856	0	
0.0220	1.58538	0.679465	0	
0.0227	0.0598255	0.679465	0	
0.0233	-2.66224	0.385642	0	
0.0240	-2.99128	0.0734557	0	
0.0247	-1.13669	-0.220367	0	
0.0253	-0.53843	-0.532554	0	
0.0260	-1.76485	1.30384	0	
0.0267	-1.13669	3.74624	0	
0.0273	-0.837557	3.43405	0	
0.0280	-2.06398	0.679465	0	
0.0287	-1.13669	0.679465	0	
0.0293	-0.239302	2.51586	0	
0.0300	-1.46573	2.51586	0	
0.0307	-2.36311	0.991652	0	
0.0313	-0.53843	0.385642	0	
0.0320	0.987121	-0.532554	0	
0.0327	1.58538	-0.84474	0	
0.0333	2.51267	-0.220367	0	
0.0340	2.21354	-1.45075	0	
0.0347	1.91442	-2.97495	0	
0.0353	3.43997	-1.45075	0	
0.0360	4.33735	0.679465	0	
0.0367	3.43997	0.679465	0	
0.0373	4.33735	-1.13856	0	
0.0380	5.8629	-2.97495	0	
0.0387	6.16203	-1.76294	0	
0.0393	4.63648	0.679465	0	
0.0400	1.58538	-0.220367	0	
0.0407	-1.13669	-2.05676	0	
0.0413	-1.76485	-2.05676	0	
0.0420	-1.76485	-0.84474	0	
0.0427	-2.99128	-0.220367	0	
0.0433	-3.58953	0.679465	0	
0.0440	-2.06398	0.385642	0	
0.0447	0.0598255	-1.13856	0	
0.0453	-2.06398	-1.45075	0	
0.0460	-5.71334	0.991652	0	
0.0467	-4.81596	3.12187	0	
0.0473	-2.99128	1.59766	0	
0.0480	-3.88866	-0.220367	0	
0.0487	-3.88866	-0.220367	0	
0.0493	-2.99128	0.679465	0	
0.0500	-2.99128	1.30384	0	
0.0507	-2.99128	0.991652	0	
0.0513	-2.06398	0.0734557	0	
0.0520	-1.76485	-0.532554	0	
0.0527	-0.239302	-1.13856	0	
0.0533	-0.239302	-2.66277	0	
0.0540	-1.46573	-1.76294	0	
0.0547	0.0598255	0.679465	0	
0.0553	2.51267	-0.220367	0	
0.0560	2.51267	-1.13856	0	
0.0567	1.58538	0.679465	0	
0.0573	1.58538	0.0734557	0	
0.0580	2.8118	-2.66277	0	
0.0587	3.43997	-1.13856	0	
0.0593	0.388866	1.59766	0	
0.0600	-1.76485	1.30384	0	
0.0607	0.687994	-0.532554	0	
0.0613	1.58538	-2.36895	0	
0.0620	-0.53843	-2.97495	0	
0.0627	-1.13669	-2.66277	0	
0.0633	-0.239302	-2.05676	0	
0.0640	-0.837557	-1.13856	0	
0.0647	-1.76485	0.0734557	0	
0.0653	-2.66224	0.385642	0	
0.0660	-4.81596	1.30384	0	
0.0667	-5.71334	2.51586	0	
0.0673	-3.2904	0.679465	0	
0.0680	-2.06398	-1.45075	0	
0.0687	-3.58953	-0.220367	0	
0.0693	-3.88866	1.59766	0	
0.0700	-1.76485	0.679465	0	
0.0707	0.687994	-0.220367	0	
0.0713	0.987121	0.0734557	0	
0.0720	-1.13669	-0.220367	0	
0.0727	-2.36311	-1.45075	0	
0.0733	-1.13669	-1.76294	0	
0.0740	-0.53843	-0.220367	0	
0.0747	-0.239302	0.991652	0	
0.0753	1.58538	0.0734557	0	
0.0760	2.51267	-0.532554	0	
0.0767	1.58538	1.30384	0	
0.0773	2.51267	1.90985	0	
0.0780	4.33735	-0.84474	0	
0.0787	3.43997	-1.76294	0	
0.0793	0.388866	0.679465	0	
0.0800	-0.239302	0.679465	0	
0.0807	1.28625	-0.220367	0	
0.0813	-0.239302	0.991652	0	
0.0820	-3.88866	1.59766	0	
0.0827	-3.58953	0.385642	0	
0.0833	-0.837557	0.679465	0	
0.0840	-1.13669	0.679465	0	
0.0847	-2.66224	-0.84474	0	
0.0853	-4.51683	0.679465	0	
0.0860	-6.64063	1.90985	0	
0.0867	-6.34151	0.385642	0	
0.0873	-3.88866	-0.220367	0	
0.0880	-2.99128	0.385642	0	
0.0887	-2.66224	-0.220367	0	
0.0893	-1.13669	0.991652	0	
0.0900	-1.46573	2.20367	0	
0.0907	-1.76485	0.991652	0	
0.0913	0.0598255	0.679465	0	
0.0920	0.0598255	0.385642	0	
0.0927	-2.66224	-2.36895	0	
0.0933	-2.66224	-0.532554	0	
0.0940	-0.239302	2.51586	0	
0.0947	-0.239302	0.385642	0	
0.0953	-0.837557	-1.76294	0	
0.0960	-0.239302	-1.45075	0	
0.0967	-1.13669	-3.28714	0	
0.0973	-0.53843	-2.97495	0	
0.0980	0.687994	-1.76294	0	
0.0987	-1.13669	-3.58096	0	
0.0993	-1.76485	-2.97495	0	
0.1000	0.987121	-0.220367	0	
0.1007	0.0598255	-2.05676	0	
0.1013	-3.58953	-2.97495	0	
0.1020	-2.99128	-3.28714	0	
0.1027	-2.06398	-5.72954	0	
0.1033	-3.88866	-2.97495	0	
0.1040	-4.81596	2.82804	0	
0.1047	-5.11508	1.59766	0	
0.1053	-6.93976	0.679465	0	
0.1060	-6.64063	3.43405	0	
0.1067	-4.18779	1.30384	0	
0.1073	-4.18779	-0.532554	0	
0.1080	-4.51683	1.59766	0	
0.1087	-4.81596	1.30384	0	
0.1093	-5.71334	0.679465	0	
0.1100	-4.81596	3.12187	0	
0.1107	-1.76485	0.679465	0	
0.1113	-1.76485	-2.05676	0	
0.1120	-2.99128	1.59766	0	
0.1127	-2.66224	3.12187	0	
0.1133	-2.06398	0.0734557	0	
0.1140	-2.99128	-1.13856	0	
0.1147	-2.99128	-2.97495	0	
0.1153	-1.13669	-4.81135	0	
0.1160	0.687994	-3.58096	0	
0.1167	2.51267	-0.220367	0	
0.1173	4.03822	-0.220367	0	
0.1180	4.33735	-2.05676	0	
0.1187	4.96552	-1.13856	0	
0.1193	4.63648	-0.532554	0	
0.1200	3.11093	-4.20534	0	
0.1207	3.11093	-6.62937	0	
0.1213	5.26465	-3.89315	0	
0.1220	5.56377	-0.532554	0	
0.1227	4.63648	-0.532554	0	
0.1233	3.43997	-2.05676	0	
0.1240	2.21354	-2.97495	0	
0.1247	0.687994	-1.13856	0	
0.1253	-1.46573	0.679465	0	
0.1260	-3.58953	-0.84474	0	
0.1267	-3.88866	-0.84474	0	
0.1273	-2.06398	2.51586	0	
0.1280	-1.13669	2.20367	0	
0.1287	-1.46573	0.679465	0	
0.1293	-1.13669	3.43405	0	
0.1300	0.687994	3.74624	0	
0.1307	1.58538	0.0734557	0	
0.1313	1.28625	-1.13856	0	
0.1320	1.58538	0.385642	0	
0.1327	2.51267	0.679465	0	
0.1333	0.987121	0.679465	0	
0.1340	0.687994	2.20367	0	
0.1347	3.7391	3.43405	0	
0.1353	6.16203	0.385642	0	
0.1360	6.16203	-2.66277	0	
0.1367	7.08933	-0.84474	0	
0.1373	8.01662	1.59766	0	
0.1380	6.49107	0.679465	0	
0.1387	5.56377	0.385642	0	
0.1393	6.16203	-0.220367	0	
0.1400	5.26465	-2.36895	0	
0.1407	3.43997	-1.76294	0	
0.1413	2.8118	0.679465	0	
0.1420	2.51267	-0.220367	0	
0.1427	1.58538	-2.05676	0	
0.1433	1.91442	0.679465	0	
0.1440	2.51267	2.51586	0	
0.1447	2.51267	1.90985	0	
0.1453	2.8118	2.51586	0	
0.1460	0.987121	2.51586	0	
0.1467	-3.88866	2.51586	0	
0.1473	-5.71334	2.82804	0	
0.1480	-3.88866	-0.220367	0	
0.1487	-2.99128	-2.66277	0	
0.1493	-3.58953	0.385642	0	
0.1500	-2.06398	2.51586	0	
0.1507	-1.76485	0.991652	0	
0.1513	-2.06398	2.82804	0	
0.1520	0.687994	4.35225	0	
0.1527	1.91442	0.679465	0	
0.1533	-2.06398	-0.532554	0	
0.1540	-3.2904	0.991652	0	
0.1547	-0.53843	0.0734557	0	
0.1553	-0.239302	-2.05676	0	
0.1560	-0.837557	-0.220367	0	
0.1567	0.0598255	2.20367	0	
0.1573	0.0598255	0.679465	0	
0.1580	-0.239302	-3.28714	0	
0.1587	-0.837557	-4.81135	0	
0.1593	-2.06398	-2.97495	0	
0.1600	-1.13669	0.385642	0	
0.1607	-0.837557	2.51586	0	
0.1613	-4.18779	2.20367	0	
0.1620	-5.41421	0.0734557	0	
0.1627	-2.99128	-0.532554	0	
0.1633	-4.81596	0.385642	0	
0.1640	-8.46531	0.679465	0	
0.1647	-7.23889	1.30384	0	
0.1653	-6.04238	0.991652	0	
0.1660	-7.56793	0.385642	0	
0.1667	-7.86706	1.90985	0	
0.1673	-6.64063	3.43405	0	
0.1680	-6.34151	1.30384	0	
0.1687	-6.04238	-0.84474	0	
0.1693	-6.93976	0.679465	0	
0.1700	-7.86706	0.679465	0	
0.1707	-5.71334	-0.532554	0	
0.1713	-3.58953	0.679465	0	
0.1720	-3.2904	2.51586	0	
0.1727	-3.2904	0.0734557	0	
0.1733	-2.36311	-2.97495	0	
0.1740	-2.36311	-2.05676	0	
0.1747	-1.76485	-0.220367	0	
0.1753	-1.46573	0.679465	0	
0.1760	-2.99128	2.20367	0	
0.1767	-2.06398	1.30384	0	
0.1773	1.91442	-2.97495	0	
0.1780	3.7391	-4.81135	0	
0.1787	2.51267	-4.20534	0	
0.1793	1.58538	-3.28714	0	
0.1800	0.687994	-0.220367	0	
0.1807	-2.99128	0.385642	0	
0.1813	-4.51683	-2.05676	0	
0.1820	-1.76485	-1.76294	0	
0.1827	-1.76485	-0.84474	0	
0.1833	-5.71334	-1.45075	0	
0.1840	-6.64063	-0.220367	0	
0.1847	-4.81596	-0.220367	0	
0.1853	-4.51683	-2.97495	0	
0.1860	-5.71334	-1.13856	0	
0.1867	-8.16618	0.679465	0	
0.1873	-11.2173	-3.28714	0	
0.1880	-9.69174	-4.20534	0	
0.1887	-5.71334	-0.220367	0	
0.1893	-6.04238	0.0734557	0	
0.1900	-8.16618	-2.66277	0	
0.1907	-6.64063	-1.45075	0	
0.1913	-4.18779	1.59766	0	
0.1920	-3.58953	2.51586	0	
0.1927	-3.58953	0.991652	0	
0.1933	-3.58953	-0.220367	0	
0.1940	-2.06398	0.679465	0	
0.1947	-0.837557	0.679465	0	
0.1953	-1.46573	-2.05676	0	
0.1960	-0.239302	-2.97495	0	
0.1967	2.51267	-1.45075	0	
0.1973	3.7391	-1.45075	0	
0.1980	4.96552	-3.28714	0	
0.1987	5.56377	-3.28714	0	
0.1993	2.51267	-1.45075	0	
0.2000	1.28625	-2.05676	0	
0.2007	4.03822	-4.20534	0	
0.2013	4.33735	-3.89315	0	
0.2020	2.51267	-0.84474	0	
0.2027	3.11093	-0.220367	0	
0.2033	3.43997	-0.532554	0	
0.2040	2.51267	-0.532554	0	
0.2047	3.43997	-0.532554	0	
0.2053	3.43997	0.679465	0	
0.2060	1.91442	2.51586	0	
0.2067	2.51267	1.90985	0	
0.2073	4.33735	0.679465	0	
0.2080	3.43997	0.0734557	0	
0.2087	3.43997	1.30384	0	
0.2093	5.26465	2.20367	0	
0.2100	5.26465	0.991652	0	
0.2107	4.63648	0.385642	0	
0.2113	4.63648	1.59766	0	
0.2120	5.26465	-0.84474	0	
0.2127	7.08933	-3.58096	0	
0.2133	8.914	-1.13856	0	
0.2140	8.914	1.59766	0	
0.2147	10.1404	-0.532554	0	
0.2153	11.3669	-1.45075	0	
0.2160	8.914	0.385642	0	
0.2167	7.38845	-1.13856	0	
0.2173	10.1404	-3.89315	0	
0.2180	12.2941	-3.28714	0	
0.2187	11.3669	-0.532554	0	
0.2193	9.8413	0.991652	0	
0.2200	7.68758	0.991652	0	
0.2207	7.38845	-0.220367	0	
0.2213	8.61488	-1.76294	0	
0.2220	6.16203	-2.05676	0	
0.2227	2.51267	-1.13856	0	
0.2233	1.91442	-0.220367	0	
0.2240	1.28625	-1.13856	0	
0.2247	-0.53843	-2.97495	0	
0.2253	-0.239302	-2.97495	0	
0.2260	1.58538	-0.532554	0	
0.2267	2.8118	0.991652	0	
0.2273	2.21354	-0.220367	0	
0.2280	-2.36311	-0.84474	0	
0.2287	-4.81596	0.991652	0	
0.2293	-2.36311	1.59766	0	
0.2300	-0.53843	-1.13856	0	
0.2307	-0.837557	-1.45075	0	
0.2313	-0.239302	1.90985	0	
0.2320	0.687994	1.59766	0	
0.2327	0.687994	-2.36895	0	
0.2333	1.28625	-3.89315	0	
0.2340	3.7391	-1.76294	0	
0.2347	7.68758	1.59766	0	
0.2353	8.914	2.51586	0	
0.2360	7.38845	-0.532554	0	
0.2367	7.68758	-2.97495	0	
0.2373	9.8413	-1.45075	0	
0.2380	12.8924	-0.220367	0	
0.2387	16.2426	-0.532554	0	
0.2393	15.3452	0.385642	0	
0.2400	10.7686	-0.84474	0	
0.2407	10.7686	-2.66277	0	
0.2413	13.4907	-0.220367	0	
0.2420	10.7686	1.90985	0	
0.2427	8.01662	-0.220367	0	
0.2433	9.24304	-1.13856	0	
0.2440	8.31575	-0.220367	0	
0.2447	6.16203	-0.220367	0	
0.2453	6.16203	0.991652	0	
0.2460	4.63648	3.43405	0	
0.2467	4.03822	3.12187	0	
0.2473	5.56377	0.679465	0	
0.2480	5.8629	-0.220367	0	
0.2487	4.33735	0.0734557	0	
0.2493	4.33735	-0.220367	0	
0.2500	5.26465	0.385642	0	
0.2507	6.49107	2.51586	0	
0.2513	5.56377	2.82804	0	
0.2520	1.28625	0.991652	0	
0.2527	0.687994	0.991652	0	
0.2533	4.96552	1.59766	0	
0.2540	5.8629	0.679465	0	
0.2547	3.43997	0.0734557	0	
0.2553	3.43997	0.385642	0	
0.2560	4.96552	-1.76294	0	
0.2567	5.8629	-3.58096	0	
0.2573	7.38845	-2.05676	0	
0.2580	6.49107	-0.84474	0	
0.2587	4.33735	-1.13856	0	
0.2593	4.33735	-2.05676	0	
0.2600	4.33735	-2.05676	0	
0.2607	2.51267	-0.84474	0	
0.2613	2.51267	-0.532554	0	
0.2620	1.58538	-2.36895	0	
0.2627	-0.239302	-0.220367	0	
0.2633	-1.13669	4.04006	0	
0.2640	-1.76485	0.679465	0	
0.2647	-1.76485	-3.89315	0	
0.2653	-1.13669	-0.532554	0	
0.2660	-2.99128	3.12187	0	
0.2667	-5.71334	0.991652	0	
0.2673	-6.64063	-0.84474	0	
0.2680	-6.04238	-0.532554	0	
0.2687	-4.81596	-0.84474	0	
0.2693	-4.18779	-0.220367	0	
0.2700	-3.88866	1.30384	0	
0.2707	-2.36311	0.679465	0	
0.2713	-1.76485	0.991652	0	
0.2720	-2.06398	2.51586	0	
0.2727	-2.36311	2.20367	0	
0.2733	-4.18779	0.0734557	0	
0.2740	-4.18779	0.0734557	0	
0.2747	-2.06398	0.679465	0	
0.2753	-2.99128	-0.220367	0	
0.2760	-3.2904	-1.13856	0	
0.2767	0.687994	-0.532554	0	
0.2773	-1.76485	-1.13856	0	
0.2780	-6.64063	-1.76294	0	
0.2787	-2.36311	-0.532554	0	
0.2793	0.687994	0.991652	0	
0.2800	-4.18779	1.59766	0	
0.2807	-6.64063	0.991652	0	
0.2813	-5.71334	-1.13856	0	
0.2820	-6.64063	-1.76294	0	
0.2827	-5.71334	1.30384	0	
0.2833	-4.81596	1.59766	0	
0.2840	-6.93976	0.0734557	0	
0.2847	-7.23889	1.30384	0	
0.2853	-7.23889	1.59766	0	
0.2860	-9.69174	-0.220367	0	
0.2867	-8.46531	0.0734557	0	
0.2873	-6.64063	0.991652	0	
0.2880	-8.46531	0.679465	0	
0.2887	-9.09348	0.679465	0	
0.2893	-6.64063	0.0734557	0	
0.2900	-5.41421	-2.36895	0	
0.2907	-3.58953	-2.05676	0	
0.2913	-0.837557	0.679465	0	
0.2920	-0.239302	0.679465	0	
0.2927	0.0598255	0.385642	0	
0.2933	0.687994	0.0734557	0	
0.2940	-0.53843	-2.05676	0	
0.2947	-0.837557	-3.89315	0	
0.2953	2.51267	-3.89315	0	
0.2960	2.8118	-2.36895	0	
0.2967	-0.53843	-1.76294	0	
0.2973	-1.13669	-2.36895	0	
0.2980	0.687994	-3.28714	0	
0.2987	-1.13669	-2.97495	0	
0.2993	-3.2904	-2.05676	0	
0.3000	-1.46573	-0.84474	0	
0.3007	-2.06398	-1.13856	0	
0.3013	-6.34151	-1.76294	0	
0.3020	-7.23889	-0.84474	0	
0.3027	-4.51683	-0.220367	0	
0.3033	-4.18779	-2.05676	0	
0.3040	-5.71334	-2.36895	0	
0.3047	-5.71334	1.59766	0	
0.3053	-6.93976	3.74624	0	
0.3060	-7.56793	3.12187	0	
0.3067	-5.11508	4.64607	0	
0.3073	-4.81596	5.27044	0	
0.3080	-7.86706	1.59766	0	
0.3087	-6.64063	0.385642	0	
0.3093	-3.2904	1.90985	0	
0.3100	-4.18779	2.51586	0	
0.3107	-4.51683	3.74624	0	
0.3113	-2.99128	4.64607	0	
0.3120	-3.58953	1.59766	0	
0.3127	-2.06398	0.385642	0	
0.3133	1.28625	2.82804	0	
0.3140	-1.13669	2.51586	0	
0.3147	-3.2904	-0.532554	0	
0.3153	1.58538	-1.13856	0	
0.3160	3.43997	-1.13856	0	
0.3167	0.987121	-0.220367	0	
0.3173	0.687994	1.30384	0	
0.3180	0.687994	0.679465	0	
0.3187	-0.53843	-0.84474	0	
0.3193	0.388866	-0.220367	0	
0.3200	1.58538	0.679465	0	
0.3207	0.0598255	-0.220367	0	
0.3213	-1.76485	-0.532554	0	
0.3220	-3.58953	-0.220367	0	
0.3227	-4.18779	-0.220367	0	
0.3233	-2.36311	-0.532554	0	
0.3240	-2.36311	-0.220367	0	
0.3247	-5.71334	0.679465	0	
0.3253	-6.34151	0.991652	0	
0.3260	-4.81596	0.991652	0	
0.3267	-4.51683	1.30384	0	
0.3273	-3.58953	0.0734557	0	
0.3280	-2.06398	-1.76294	0	
0.3287	-2.66224	-0.532554	0	
0.3293	-3.2904	1.90985	0	
0.3300	-2.66224	0.991652	0	
0.3307	-2.36311	-1.45075	0	
0.3313	-2.06398	-1.76294	0	
0.3320	-1.76485	-1.13856	0	
0.3327	-0.239302	-0.220367	0	
0.3333	0.687994	1.30384	0	
0.3340	-0.239302	1.59766	0	
0.3347	0.0598255	0.679465	0	
0.3353	2.21354	0.385642	0	
0.3360	2.51267	0.0734557	0	
0.3367	0.987121	-1.13856	0	
0.3373	1.91442	-1.76294	0	
0.3380	4.33735	-2.66277	0	
0.3387	5.26465	-4.20534	0	
0.3393	3.43997	-3.28714	0	
0.3400	2.8118	-1.76294	0	
0.3407	4.03822	-2.97495	0	
0.3413	4.33735	-2.05676	0	
0.3420	2.51267	0.385642	0	
0.3427	2.51267	-1.13856	0	
0.3433	2.8118	-2.66277	0	
0.3440	0.687994	-0.220367	0	
0.3447	-0.837557	1.30384	0	
0.3453	1.28625	-0.532554	0	
0.3460	2.51267	-1.13856	0	
0.3467	0.687994	2.20367	0	
0.3473	-1.13669	3.74624	0	
0.3480	-1.46573	0.991652	0	
0.3487	-0.53843	-1.13856	0	
0.3493	0.687994	0.0734557	0	
0.3500	2.51267	0.679465	0	
0.3507	5.26465	0.991652	0	
0.3513	5.26465	1.30384	0	
0.3520	5.26465	1.30384	0	
0.3527	6.16203	2.82804	0	
0.3533	5.56377	3.12187	0	
0.3540	4.03822	-0.532554	0	
0.3547	6.16203	-1.45075	0	
0.3553	9.8413	0.679465	0	
0.3560	11.3669	-1.13856	0	
0.3567	11.3669	-3.89315	0	
0.3573	10.4396	-1.76294	0	
0.3580	8.61488	0.0734557	0	
0.3587	8.61488	-1.45075	0	
0.3593	9.8413	-2.05676	0	
0.3600	9.8413	-1.13856	0	
0.3607	8.01662	-1.76294	0	
0.3613	6.7902	-2.97495	0	
0.3620	7.08933	-1.13856	0	
0.3627	8.01662	2.51586	0	
0.3633	5.26465	2.51586	0	
0.3640	1.58538	0.0734557	0	
0.3647	-0.53843	-1.45075	0	
0.3653	-1.46573	-1.45075	0	
0.3660	-1.13669	0.0734557	0	
0.3667	-0.239302	2.20367	0	
0.3673	-0.239302	1.59766	0	
0.3680	0.388866	-0.84474	0	
0.3687	1.58538	0.385642	0	
0.3693	1.91442	2.82804	0	
0.3700	2.21354	1.90985	0	
0.3707	0.687994	-0.84474	0	
0.3713	-2.06398	-0.84474	0	
0.3720	0.987121	0.679465	0	
0.3727	5.56377	0.0734557	0	
0.3733	4.33735	-0.532554	0	
0.3740	3.43997	-1.13856	0	
0.3747	6.49107	-1.76294	0	
0.3753	6.16203	-2.05676	0	
0.3760	5.26465	-2.97495	0	
0.3767	7.68758	-3.89315	0	
0.3773	5.8629	-2.05676	0	
0.3780	1.58538	-1.13856	0	
0.3787	3.7391	-2.97495	0	
0.3793	7.08933	-2.36895	0	
0.3800	5.26465	-1.76294	0	
0.3807	3.7391	-3.58096	0	
0.3813	3.43997	-2.66277	0	
0.3820	1.91442	-1.45075	0	
0.3827	-0.239302	-2.05676	0	
0.3833	-2.66224	0.385642	0	
0.3840	-4.81596	2.20367	0	
0.3847	-4.81596	-1.76294	0	
0.3853	-4.18779	-2.97495	0	
0.3860	-6.64063	0.679465	0	
0.3867	-6.64063	0.679465	0	
0.3873	-6.34151	-1.76294	0	
0.3880	-8.16618	-0.220367	0	
0.3887	-7.56793	1.30384	0	
0.3893	-4.81596	0.385642	0	
0.3900	-6.34151	0.679465	0	
0.3907	-7.23889	1.59766	0	
0.3913	-2.06398	1.59766	0	
0.3920	0.687994	2.20367	0	
0.3927	-2.36311	1.90985	0	
0.3933	-2.99128	-0.220367	0	
0.3940	-0.837557	-2.05676	0	
0.3947	-2.36311	-2.97495	0	
0.3953	-3.58953	-3.58096	0	
0.3960	-0.239302	-1.45075	0	
0.3967	2.51267	1.90985	0	
0.3973	3.43997	0.0734557	0	
0.3980	2.51267	-2.97495	0	
0.3987	-1.46573	-2.05676	0	
0.3993	-4.81596	-1.45075	0	
0.4000	-3.58953	-2.66277	0	
0.4007	-2.99128	-0.220367	0	
0.4013	-5.71334	1.59766	0	
0.4020	-5.71334	0.0734557	0	
0.4027	-4.81596	-1.76294	0	
0.4033	-7.56793	-1.13856	0	
0.4040	-7.86706	-0.532554	0	
0.4047	-5.71334	-0.220367	0	
0.4053	-6.64063	0.679465	0	
0.4060	-7.86706	-0.220367	0	
0.4067	-6.64063	-1.45075	0	
0.4073	-8.16618	-2.05676	0	
0.4080	-8.76444	-1.76294	0	
0.4087	-5.71334	-1.13856	0	
0.4093	-6.04238	-1.45075	0	
0.4100	-8.46531	0.0734557	0	
0.4107	-6.04238	1.30384	0	
0.4113	-2.99128	-0.532554	0	
0.4120	-2.66224	-2.05676	0	
0.4127	-3.2904	-0.532554	0	
0.4133	-3.88866	1.59766	0	
0.4140	-3.88866	1.90985	0	
0.4147	-2.36311	0.991652	0	
0.4153	0.687994	-1.13856	0	
0.4160	1.58538	-2.05676	0	
0.4167	-1.46573	-0.220367	0	
0.4173	-2.66224	-1.45075	0	
0.4180	1.28625	-2.97495	0	
0.4187	3.11093	0.0734557	0	
0.4193	0.388866	3.43405	0	
0.4200	-1.46573	1.30384	0	
0.4207	-0.53843	-1.13856	0	
0.4213	-0.53843	-1.45075	0	
0.4220	-1.76485	-1.13856	0	
0.4227	-3.58953	-0.220367	0	
0.4233	-4.18779	1.59766	0	
0.4240	-2.99128	1.90985	0	
0.4247	-3.58953	0.679465	0	
0.4253	-4.81596	0.679465	0	
0.4260	-5.71334	1.90985	0	
0.4267	-7.56793	2.51586	0	
0.4273	-7.56793	1.59766	0	
0.4280	-5.71334	0.991652	0	
0.4287	-6.64063	0.679465	0	
0.4293	-8.16618	0.991652	0	
0.4300	-6.64063	1.59766	0	
0.4307	-6.34151	1.59766	0	
0.4313	-6.64063	-0.220367	0	
0.4320	-4.81596	-1.45075	0	
0.4327	-6.04238	-1.13856	0	
0.4333	-9.39261	-0.220367	0	
0.4340	-8.76444	-0.220367	0	
0.4347	-7.23889	-1.76294	0	
0.4353	-6.93976	-2.05676	0	
0.4360	-5.71334	-2.05676	0	
0.4367	-5.11508	-2.66277	0	
0.4373	-6.93976	-2.97495	0	
0.4380	-8.46531	-1.76294	0	
0.4387	-9.09348	-0.84474	0	
0.4393	-10.29	-2.36895	0	
0.4400	-11.5164	-3.89315	0	
0.4407	-11.5164	-3.28714	0	
0.4413	-9.99086	-2.36895	0	
0.4420	-8.46531	-1.45075	0	
0.4427	-10.29	-0.220367	0	
0.4433	-14.2684	-0.220367	0	
0.4440	-14.8666	-1.13856	0	
0.4447	-14.2684	-0.84474	0	
0.4453	-15.7939	-0.220367	0	
0.4460	-17.9177	0.0734557	0	
0.4467	-18.2468	0.679465	0	
0.4473	-17.3195	0.679465	0	
0.4480	-16.7212	-1.13856	0	
0.4487	-17.6186	-3.89315	0	
0.4493	-16.7212	-3.89315	0	
0.4500	-13.9693	-1.13856	0	
0.4507	-12.4437	0.0734557	0	
0.4513	-12.7428	-2.05676	0	
0.4520	-9.39261	-1.13856	0	
0.4527	-3.88866	2.51586	0	
0.4533	-0.837557	0.385642	0	
0.4540	0.687994	-2.97495	0	
0.4547	2.21354	-1.13856	0	
0.4553	3.11093	1.30384	0	
0.4560	4.03822	1.59766	0	
0.4567	5.8629	0.385642	0	
0.4573	6.7902	-1.13856	0	
0.4580	5.8629	-1.13856	0	
0.4587	5.26465	1.59766	0	
0.4593	6.16203	3.43405	0	
0.4600	6.16203	1.59766	0	
0.4607	5.26465	0.0734557	0	
0.4613	4.63648	-0.220367	0	
0.4620	6.16203	1.30384	0	
0.4627	6.7902	2.51586	0	
0.4633	6.49107	0.679465	0	
0.4640	8.01662	-2.36895	0	
0.4647	8.914	-1.45075	0	
0.4653	7.68758	0.679465	0	
0.4660	6.7902	0.991652	0	
0.4667	7.08933	1.90985	0	
0.4673	7.38845	3.43405	0	
0.4680	6.49107	1.30384	0	
0.4687	6.16203	-0.220367	0	
0.4693	9.24304	3.12187	0	
0.4700	14.418	3.74624	0	
0.4707	17.1699	-0.220367	0	
0.4713	16.5418	-1.13856	0	
0.4720	15.3452	-0.220367	0	
0.4727	16.2426	-1.13856	0	
0.4733	16.2426	0.0734557	0	
0.4740	15.0162	1.90985	0	
0.4747	12.5933	0.679465	0	
0.4753	11.666	0.385642	0	
0.4760	13.4907	0.385642	0	
0.4767	15.3452	-1.76294	0	
0.4773	14.418	-1.13856	0	
0.4780	13.4907	1.59766	0	
0.4787	14.418	0.385642	0	
0.4793	12.8924	-2.05676	0	
0.4800	10.7686	-1.45075	0	
0.4807	11.666	-1.45075	0	
0.4813	13.1915	-2.66277	0	
0.4820	12.2941	-1.76294	0	
0.4827	10.7686	-0.532554	0	
0.4833	9.54217	-0.84474	0	
0.4840	4.63648	-0.84474	0	
0.4847	-2.06398	0.679465	0	
0.4853	-4.51683	1.59766	0	
0.4860	-1.13669	0.0734557	0	
0.4867	1.58538	0.679465	0	
0.4873	3.43997	3.74624	0	
0.4880	6.16203	4.35225	0	
0.4887	5.26465	3.43405	0	
0.4893	1.58538	4.04006	0	
0.4900	1.58538	2.82804	0	
0.4907	2.8118	-0.220367	0	
0.4913	1.58538	-0.532554	0	
0.4920	2.51267	1.59766	0	
0.4927	7.08933	0.679465	0	
0.4933	6.49107	-1.13856	0	
0.4940	3.43997	-1.13856	0	
0.4947	2.51267	-0.532554	0	
0.4953	1.58538	-1.76294	0	
0.4960	2.51267	-3.89315	0	
0.4967	5.26465	-4.81135	0	
0.4973	6.16203	-3.89315	0	
0.4980	2.8118	-2.05676	0	
0.4987	0.388866	-1.13856	0	
0.4993	0.0598255	-0.532554	0	
0.5000	0.0598255	0.679465	0	
0.5007	-1.13669	0.991652	0	
0.5013	-3.58953	-0.220367	0	
0.5020	-3.58953	-2.97495	0	
0.5027	-0.837557	-3.28714	0	
0.5033	0.987121	-1.13856	0	
0.5040	1.28625	-0.220367	0	
0.5047	2.51267	-1.13856	0	
0.5053	1.58538	-1.13856	0	
0.5060	-3.2904	-0.220367	0	
0.5067	-6.04238	-0.532554	0	
0.5073	-4.81596	-1.13856	0	
0.5080	-3.88866	0.0734557	0	
0.5087	-2.99128	1.30384	0	
0.5093	-2.36311	0.0734557	0	
0.5100	-3.88866	-2.05676	0	
0.5107	-3.88866	-2.05676	0	
0.5113	-1.76485	-1.45075	0	
0.5120	-2.99128	-1.45075	0	
0.5127	-5.71334	-0.84474	0	
0.5133	-4.81596	0.0734557	0	
0.5140	-2.99128	-0.220367	0	
0.5147	-4.51683	-0.220367	0	
0.5153	-4.81596	-0.532554	0	
0.5160	-3.58953	-3.89315	0	
0.5167	-2.99128	-4.49916	0	
0.5173	-3.88866	-1.76294	0	
0.5180	-3.88866	-1.13856	0	
0.5187	-3.88866	-3.89315	0	
0.5193	-5.71334	-3.58096	0	
0.5200	-9.39261	-2.05676	0	
0.5207	-10.9182	-2.97495	0	
0.5213	-8.46531	-3.28714	0	
0.5220	-6.64063	-2.36895	0	
0.5227	-7.23889	-3.89315	0	
0.5233	-9.39261	-5.41736	0	
0.5240	-10.29	-2.97495	0	
0.5247	-9.39261	-0.220367	0	
0.5253	-9.99086	-0.220367	0	
0.5260	-12.4437	-1.13856	0	
0.5267	-13.042	-0.532554	0	
0.5273	-10.29	1.30384	0	
0.5280	-8.46531	2.20367	0	
0.5287	-6.64063	1.30384	0	
0.5293	-3.2904	1.30384	0	
0.5300	-2.36311	2.51586	0	
0.5307	-4.51683	2.82804	0	
0.5313	-3.58953	0.991652	0	
0.5320	-0.239302	-0.220367	0	
0.5327	-0.239302	-0.84474	0	
0.5333	-2.06398	-2.36895	0	
0.5340	-1.46573	-2.66277	0	
0.5347	-0.837557	-0.84474	0	
0.5353	-0.837557	-1.76294	0	
0.5360	0.687994	-3.89315	0	
0.5367	2.51267	-3.28714	0	
0.5373	1.91442	-2.66277	0	
0.5380	1.28625	-2.97495	0	
0.5387	2.51267	-0.220367	0	
0.5393	2.51267	0.385642	0	
0.5400	-0.239302	-2.97495	0	
0.5407	-3.88866	-4.49916	0	
0.5413	-3.88866	-2.97495	0	
0.5420	-2.99128	-2.36895	0	
0.5427	-2.36311	-1.13856	0	
0.5433	-1.76485	0.385642	0	
0.5440	-2.99128	-1.13856	0	
0.5447	-5.41421	-2.05676	0	
0.5453	-5.71334	-0.220367	0	
0.5460	-5.71334	0.385642	0	
0.5467	-6.93976	-0.220367	0	
0.5473	-5.71334	0.385642	0	
0.5480	-3.2904	0.679465	0	
0.5487	-2.99128	1.59766	0	
0.5493	-1.76485	1.90985	0	
0.5500	-0.837557	0.991652	0	
0.5507	-2.36311	0.385642	0	
0.5513	-2.66224	1.59766	0	
0.5520	-0.53843	2.51586	0	
0.5527	-0.239302	2.82804	0	
0.5533	0.687994	2.20367	0	
0.5540	2.51267	0.991652	0	
0.5547	1.58538	-0.220367	0	
0.5553	2.21354	-2.36895	0	
0.5560	5.8629	-2.97495	0	
0.5567	5.56377	-0.84474	0	
0.5573	0.687994	0.385642	0	
0.5580	-1.13669	-0.220367	0	
0.5587	-0.53843	-1.13856	0	
0.5593	-2.06398	-3.28714	0	
0.5600	-1.46573	-3.89315	0	
0.5607	2.21354	-0.220367	0	
0.5613	3.11093	2.20367	0	
0.5620	1.91442	1.59766	0	
0.5627	1.58538	2.20367	0	
0.5633	0.687994	2.20367	0	
0.5640	-2.06398	-0.220367	0	
0.5647	-3.58953	0.385642	0	
0.5653	-3.88866	2.82804	0	
0.5660	-3.88866	2.51586	0	
0.5667	-3.58953	0.991652	0	
0.5673	-4.18779	0.991652	0	
0.5680	-4.81596	3.12187	0	
0.5687	-2.06398	5.27044	0	
0.5693	0.687994	3.74624	0	
0.5700	-1.13669	1.30384	0	
0.5707	-3.88866	1.30384	0	
0.5713	-1.13669	0.679465	0	
0.5720	3.43997	-1.13856	0	
0.5727	5.56377	0.679465	0	
0.5733	6.16203	2.51586	0	
0.5740	4.33735	0.0734557	0	
0.5747	1.58538	-1.76294	0	
0.5753	1.91442	-1.45075	0	
0.5760	4.03822	-1.76294	0	
0.5767	3.43997	-1.76294	0	
0.5773	2.21354	-1.76294	0	
0.5780	1.28625	-2.97495	0	
0.5787	-1.13669	-3.89315	0	
0.5793	-2.06398	-2.05676	0	
0.5800	0.687994	-1.45075	0	
0.5807	1.58538	-1.76294	0	
0.5813	-0.239302	-1.45075	0	
0.5820	1.28625	-1.13856	0	
0.5827	4.33735	-2.36895	0	
0.5833	3.43997	-2.97495	0	
0.5840	0.987121	-2.05676	0	
0.5847	-1.46573	-0.532554	0	
0.5853	-4.18779	0.991652	0	
0.5860	-4.81596	3.43405	0	
0.5867	-0.53843	4.35225	0	
0.5873	-0.239302	4.95826	0	
0.5880	-4.51683	5.56427	0	
0.5887	-3.58953	4.35225	0	
0.5893	1.58538	1.30384	0	
0.5900	1.58538	0.991652	0	
0.5907	0.0598255	1.59766	0	
0.5913	0.987121	0.679465	0	
0.5920	0.687994	1.59766	0	
0.5927	0.687994	2.51586	0	
0.5933	4.03822	-0.220367	0	
0.5940	5.56377	-1.13856	0	
0.5947	2.8118	1.59766	0	
0.5953	0.388866	0.991652	0	
0.5960	2.21354	-2.05676	0	
0.5967	7.08933	-1.13856	0	
0.5973	8.61488	0.679465	0	
0.5980	5.26465	-1.13856	0	
0.5987	4.96552	-2.66277	0	
0.5993	7.38845	-1.13856	0	
0.6000	4.33735	-0.220367	0	
0.6007	1.58538	-0.84474	0	
0.6013	2.51267	-1.45075	0	
0.6020	0.687994	-2.97495	0	
0.6027	-4.51683	-4.20534	0	
0.6033	-5.11508	-3.89315	0	
0.6040	-3.88866	-3.28714	0	
0.6047	-5.71334	-2.97495	0	
0.6053	-7.86706	-2.36895	0	
0.6060	-9.39261	-0.84474	0	
0.6067	-8.46531	0.385642	0	
0.6073	-3.2904	-0.220367	0	
0.6080	-1.13669	-1.13856	0	
0.6087	-2.66224	-0.532554	0	
0.6093	-0.239302	-0.220367	0	
0.6100	2.51267	-0.84474	0	
0.6107	-0.239302	-0.84474	0	
0.6113	-3.58953	0.385642	0	
0.6120	-1.46573	-0.220367	0	
0.6127	0.388866	-1.13856	0	
0.6133	-0.239302	-0.220367	0	
0.6140	-0.53843	-0.532554	0	
0.6147	0.687994	-2.36895	0	
0.6153	1.28625	-1.76294	0	
0.6160	1.58538	1.30384	0	
0.6167	1.91442	-0.532554	0	
0.6173	2.21354	-4.49916	0	
0.6180	1.58538	-3.89315	0	
0.6187	1.58538	-1.76294	0	
0.6193	1.28625	-2.36895	0	
0.6200	0.987121	-2.05676	0	
0.6207	0.687994	-1.13856	0	
0.6213	2.51267	-1.13856	0	
0.6220	3.43997	-1.13856	0	
0.6227	0.987121	-0.84474	0	
0.6233	-2.36311	-1.13856	0	
0.6240	-1.13669	-0.84474	0	
0.6247	1.58538	-0.84474	0	
0.6253	0.987121	-2.36895	0	
0.6260	-1.13669	-2.36895	0	
0.6267	-2.06398	-0.84474	0	
0.6273	-2.06398	-1.13856	0	
0.6280	0.388866	-1.76294	0	
0.6287	1.91442	-0.532554	0	
0.6293	0.388866	-0.220367	0	
0.6300	-0.239302	-2.05676	0	
0.6307	0.687994	-3.28714	0	
0.6313	0.0598255	-1.45075	0	
0.6320	-1.13669	0.385642	0	
0.6327	-1.13669	-0.220367	0	
0.6333	-2.36311	-1.76294	0	
0.6340	-2.66224	-2.05676	0	
0.6347	0.0598255	-2.05676	0	
0.6353	1.58538	-2.97495	0	
0.6360	0.0598255	-2.97495	0	
0.6367	0.388866	-2.05676	0	
0.6373	1.91442	-0.84474	0	
0.6380	0.987121	-0.220367	0	
0.6387	-0.239302	-1.13856	0	
0.6393	0.687994	-1.76294	0	
0.6400	1.58538	-1.13856	0	
0.6407	1.58538	-1.13856	0	
0.6413	1.91442	-2.97495	0	
0.6420	0.687994	-2.97495	0	
0.6427	-1.46573	-0.84474	0	
0.6433	-1.46573	-0.220367	0	
0.6440	-0.53843	-0.220367	0	
0.6447	-2.66224	1.30384	0	
0.6453	-4.81596	1.59766	0	
0.6460	-5.41421	0.991652	0	
0.6467	-6.04238	1.90985	0	
0.6473	-6.64063	1.90985	0	
0.6480	-3.88866	1.30384	0	
0.6487	-0.239302	1.59766	0	
0.6493	-1.13669	-0.220367	0	
0.6500	-4.51683	-2.36895	0	
0.6507	-5.11508	0.679465	0	
0.6513	-4.51683	3.43405	0	
0.6520	-4.18779	0.679465	0	
0.6527	-3.88866	-0.532554	0	
0.6533	-4.51683	2.82804	0	
0.6540	-5.71334	3.12187	0	
0.6547	-4.81596	-1.45075	0	
0.6553	-2.06398	-2.97495	0	
0.6560	-0.53843	1.30384	0	
0.6567	0.687994	3.43405	0	
0.6573	1.28625	-0.220367	0	
0.6580	-0.837557	-3.89315	0	
0.6587	-0.837557	-2.97495	0	
0.6593	1.28625	0.0734557	0	
0.6600	-0.837557	1.30384	0	
0.6607	-2.99128	-0.532554	0	
0.6613	-0.53843	-1.45075	0	
0.6620	0.0598255	0.0734557	0	
0.6627	-2.36311	-0.532554	0	
0.6633	-1.46573	-2.66277	0	
0.6640	-0.239302	0.0734557	0	
0.6647	-1.76485	3.43405	0	
0.6653	-0.837557	1.59766	0	
0.6660	-1.13669	1.90985	0	
0.6667	-4.81596	6.18864	0	
0.6673	-4.18779	5.27044	0	
0.6680	-2.66224	1.30384	0	
0.6687	-5.11508	0.0734557	0	
0.6693	-5.71334	1.59766	0	
0.6700	-2.06398	4.04006	0	
0.6707	-2.06398	3.43405	0	
0.6713	-3.58953	1.59766	0	
0.6720	-2.36311	2.82804	0	
0.6727	-0.239302	5.27044	0	
0.6733	-0.239302	3.43405	0	
0.6740	0.687994	1.30384	0	
0.6747	2.21354	0.991652	0	
0.6753	1.91442	0.0734557	0	
0.6760	1.28625	-1.13856	0	
0.6767	2.8118	-1.76294	0	
0.6773	4.96552	-1.13856	0	
0.6780	4.96552	0.385642	0	
0.6787	3.43997	1.90985	0	
0.6793	1.58538	0.991652	0	
0.6800	2.21354	-1.45075	0	
0.6807	2.8118	-1.45075	0	
0.6813	-0.239302	1.30384	0	
0.6820	-2.99128	0.679465	0	
0.6827	0.987121	-2.05676	0	
0.6833	4.33735	-0.532554	0	
0.6840	2.21354	1.90985	0	
0.6847	-0.239302	-0.84474	0	
0.6853	-0.837557	-2.36895	0	
0.6860	0.0598255	-0.220367	0	
0.6867	2.51267	0.679465	0	
0.6873	2.8118	1.90985	0	
0.6880	2.51267	3.74624	0	
0.6887	2.8118	1.59766	0	
0.6893	1.58538	-0.84474	0	
0.6900	-0.239302	-0.532554	0	
0.6907	1.58538	0.0734557	0	
0.6913	0.388866	0.679465	0	
0.6920	-5.71334	0.679465	0	
0.6927	-8.16618	-0.532554	0	
0.6933	-6.04238	-1.13856	0	
0.6940	-3.88866	-1.13856	0	
0.6947	-0.837557	-1.45075	0	
0.6953	-0.53843	0.679465	0	
0.6960	-0.53843	0.679465	0	
0.6967	4.63648	-2.66277	0	
0.6973	8.61488	-2.97495	0	
0.6980	6.7902	-0.532554	0	
0.6987	7.38845	-1.45075	0	
0.6993	8.61488	-3.89315	0	
0.7000	5.56377	-3.28714	0	
0.7007	4.33735	-0.84474	0	
0.7013	5.56377	0.991652	0	
0.7020	5.56377	-0.84474	0	
0.7027	5.26465	-4.20534	0	
0.7033	3.43997	-4.81135	0	
0.7040	1.28625	-2.05676	0	
0.7047	1.91442	0.679465	0	
0.7053	4.03822	1.90985	0	
0.7060	4.03822	2.20367	0	
0.7067	1.91442	1.90985	0	
0.7073	0.0598255	1.59766	0	
0.7080	0.388866	0.385642	0	
0.7087	1.58538	-0.532554	0	
0.7093	-0.239302	-1.13856	0	
0.7100	-1.46573	-0.532554	0	
0.7107	0.687994	1.59766	0	
0.7113	2.51267	1.90985	0	
0.7120	1.91442	-0.220367	0	
0.7127	0.687994	-0.220367	0	
0.7133	-0.53843	-0.532554	0	
0.7140	-0.53843	-2.97495	0	
0.7147	2.51267	-2.36895	0	
0.7153	3.7391	0.679465	0	
0.7160	1.91442	-0.532554	0	
0.7167	1.28625	-2.36895	0	
0.7173	2.51267	-1.45075	0	
0.7180	2.8118	-0.532554	0	
0.7187	2.51267	0.679465	0	
0.7193	2.8118	-0.532554	0	
0.7200	0.987121	-3.89315	0	
0.7207	-0.239302	-3.58096	0	
0.7213	1.58538	-0.220367	0	
0.7220	1.91442	-1.45075	0	
0.7227	-0.239302	-3.28714	0	
0.7233	-1.46573	-1.13856	0	
0.7240	-0.837557	0.679465	0	
0.7247	-0.239302	-0.220367	0	
0.7253	-0.837557	-2.05676	0	
0.7260	-2.36311	-2.36895	0	
0.7267	-2.99128	-0.220367	0	
0.7273	-3.88866	-0.220367	0	
0.7280	-5.41421	-3.58096	0	
0.7287	-5.71334	-2.97495	0	
0.7293	-4.18779	1.59766	0	
0.7300	-2.99128	3.43405	0	
0.7307	-2.06398	2.51586	0	
0.7313	-0.837557	2.20367	0	
0.7320	-2.99128	0.679465	0	
0.7327	-4.51683	0.0734557	0	
0.7333	-2.36311	1.59766	0	
0.7340	-2.66224	1.90985	0	
0.7347	-5.71334	0.679465	0	
0.7353	-4.18779	0.679465	0	
0.7360	-1.13669	0.991652	0	
0.7367	-1.13669	-0.84474	0	
0.7373	-1.13669	-2.97495	0	
0.7380	-2.06398	-2.97495	0	
0.7387	-3.88866	-1.45075	0	
0.7393	-2.66224	-2.05676	0	
0.7400	0.0598255	-2.66277	0	
0.7407	-1.13669	-2.05676	0	
0.7413	-1.46573	-2.05676	0	
0.7420	1.58538	-2.66277	0	
0.7427	2.21354	-1.45075	0	
0.7433	-1.13669	0.679465	0	
0.7440	-2.36311	0.679465	0	
0.7447	-2.36311	-1.76294	0	
0.7453	-4.81596	-2.97495	0	
0.7460	-6.64063	-1.76294	0	
0.7467	-4.81596	0.385642	0	
0.7473	-2.99128	0.0734557	0	
0.7480	-2.99128	-1.13856	0	
0.7487	-0.53843	-1.13856	0	
0.7493	2.21354	-0.220367	0	
0.7500	-0.239302	-0.220367	0	
0.7507	-2.66224	-0.84474	0	
0.7513	-2.06398	-2.36895	0	
0.7520	-0.53843	-2.05676	0	
0.7527	1.28625	0.679465	0	
0.7533	1.58538	0.679465	0	
0.7540	-1.13669	-1.13856	0	
0.7547	0.388866	-0.532554	0	
0.7553	4.63648	-0.532554	0	
0.7560	3.7391	-2.05676	0	
0.7567	2.21354	-1.13856	0	
0.7573	5.26465	-0.532554	0	
0.7580	7.08933	-2.05676	0	
0.7587	4.33735	-2.05676	0	
0.7593	3.43997	-1.13856	0	
0.7600	2.51267	-0.84474	0	
0.7607	0.388866	0.679465	0	
0.7613	-0.239302	0.991652	0	
0.7620	0.388866	-2.05676	0	
0.7627	1.28625	-3.89315	0	
0.7633	1.58538	-2.97495	0	
0.7640	-1.46573	-0.532554	0	
0.7647	-3.88866	0.679465	0	
0.7653	0.0598255	0.0734557	0	
0.7660	1.91442	-1.76294	0	
0.7667	-1.13669	-0.532554	0	
0.7673	-0.53843	1.59766	0	
0.7680	0.687994	-0.220367	0	
0.7687	-2.06398	-3.28714	0	
0.7693	-3.88866	-2.05676	0	
0.7700	-3.88866	-0.220367	0	
0.7707	-5.41421	-1.76294	0	
0.7713	-5.11508	-2.36895	0	
0.7720	-1.13669	-1.13856	0	
0.7727	0.987121	-0.84474	0	
0.7733	-1.13669	-1.13856	0	
0.7740	-3.2904	-0.532554	0	
0.7747	-2.06398	-0.532554	0	
0.7753	0.687994	-2.05676	0	
0.7760	2.51267	-2.97495	0	
0.7767	5.56377	-2.66277	0	
0.7773	8.01662	-2.66277	0	
0.7780	7.08933	-2.36895	0	
0.7787	7.68758	-1.13856	0	
0.7793	8.914	0.385642	0	
0.7800	6.49107	1.90985	0	
0.7807	4.33735	1.90985	0	
0.7813	6.16203	0.679465	0	
0.7820	6.7902	-1.45075	0	
0.7827	4.33735	-3.58096	0	
0.7833	2.51267	-3.89315	0	
0.7840	1.58538	-2.05676	0	
0.7847	0.987121	0.679465	0	
0.7853	-1.13669	0.679465	0	
0.7860	-3.58953	-1.76294	0	
0.7867	-2.36311	-1.45075	0	
0.7873	-1.13669	-0.220367	0	
0.7880	-3.88866	-1.45075	0	
0.7887	-3.58953	-2.05676	0	
0.7893	0.987121	-1.13856	0	
0.7900	1.58538	-0.84474	0	
0.7907	-1.13669	-0.220367	0	
0.7913	-0.239302	1.90985	0	
0.7920	0.0598255	1.30384	0	
0.7927	-1.13669	0.0734557	0	
0.7933	0.0598255	0.991652	0	
0.7940	0.987121	-0.220367	0	
0.7947	-0.239302	-2.36895	0	
0.7953	1.58538	-1.13856	0	
0.7960	4.33735	-0.84474	0	
0.7967	2.21354	-2.97495	0	
0.7973	1.58538	-2.05676	0	
0.7980	4.96552	-1.13856	0	
0.7987	4.96552	-2.36895	0	
0.7993	1.91442	-2.05676	0	
0.8000	2.51267	-2.05676	0	
0.8007	5.26465	-4.81135	0	
0.8013	3.43997	-4.20534	0	
0.8020	1.58538	-0.220367	0	
0.8027	0.987121	0.0734557	0	
0.8033	-1.46573	0.679465	0	
0.8040	-2.99128	3.43405	0	
0.8047	-1.76485	2.51586	0	
0.8053	-2.06398	-0.220367	0	
0.8060	-2.06398	0.679465	0	
0.8067	0.388866	1.59766	0	
0.8073	-0.239302	-0.220367	0	
0.8080	0.0598255	-0.84474	0	
0.8087	3.7391	-0.220367	0	
0.8093	1.58538	0.679465	0	
0.8100	-3.88866	2.51586	0	
0.8107	-2.06398	1.90985	0	
0.8113	0.0598255	-0.84474	0	
0.8120	-3.88866	0.679465	0	
0.8127	-5.41421	3.43405	0	
0.8133	-4.81596	2.51586	0	
0.8140	-5.41421	0.385642	0	
0.8147	-2.99128	-0.532554	0	
0.8153	-0.239302	-1.13856	0	
0.8160	-2.06398	-0.220367	0	
0.8167	-1.13669	-0.532554	0	
0.8173	0.987121	-3.58096	0	
0.8180	-0.239302	-3.89315	0	
0.8187	0.687994	-2.66277	0	
0.8193	4.63648	-1.76294	0	
0.8200	4.33735	-0.220367	0	
0.8207	3.43997	0.679465	0	
0.8213	5.26465	-1.76294	0	
0.8220	4.96552	-0.532554	0	
0.8227	3.43997	4.04006	0	
0.8233	5.26465	4.04006	0	
0.8240	6.16203	1.90985	0	
0.8247	4.96552	2.51586	0	
0.8253	3.11093	2.82804	0	
0.8260	-0.239302	2.20367	0	
0.8267	-1.46573	2.51586	0	
0.8273	0.388866	3.43405	0	
0.8280	-0.837557	4.04006	0	
0.8287	-2.99128	1.59766	0	
0.8293	-1.76485	-1.13856	0	
0.8300	0.0598255	-0.220367	0	
0.8307	0.687994	1.30384	0	
0.8313	1.58538	-2.66277	0	
0.8320	1.58538	-5.10517	0	
0.8327	0.687994	-2.66277	0	
0.8333	0.687994	0.679465	0	
0.8340	-0.53843	1.59766	0	
0.8347	-0.837557	1.59766	0	
0.8353	1.58538	0.679465	0	
0.8360	1.91442	-2.05676	0	
0.8367	0.987121	-4.49916	0	
0.8373	2.51267	-2.97495	0	
0.8380	3.43997	0.679465	0	
0.8387	0.987121	0.0734557	0	
0.8393	-0.239302	-2.05676	0	
0.8400	-0.53843	-1.13856	0	
0.8407	-1.13669	0.385642	0	
0.8413	0.388866	-0.532554	0	
0.8420	1.28625	-1.76294	0	
0.8427	0.0598255	-1.76294	0	
0.8433	-0.239302	-1.13856	0	
0.8440	-1.76485	-1.45075	0	
0.8447	-4.81596	-3.28714	0	
0.8453	-4.81596	-1.13856	0	
0.8460	-1.76485	2.51586	0	
0.8467	0.388866	0.679465	0	
0.8473	-1.13669	-1.45075	0	
0.8480	-3.88866	1.30384	0	
0.8487	-2.66224	1.59766	0	
0.8493	-1.13669	0.0734557	0	
0.8500	-3.88866	2.82804	0	
0.8507	-4.81596	4.04006	0	
0.8513	-2.36311	0.991652	0	
0.8520	-1.13669	1.59766	0	
0.8527	-1.76485	4.95826	0	
0.8533	-0.837557	4.95826	0	
0.8540	-0.239302	2.51586	0	
0.8547	0.687994	0.991652	0	
0.8553	3.11093	0.385642	0	
0.8560	4.03822	-1.13856	0	
0.8567	3.43997	-0.220367	0	
0.8573	2.8118	1.59766	0	
0.8580	2.21354	-0.220367	0	
0.8587	2.21354	-2.97495	0	
0.8593	4.03822	-1.76294	0	
0.8600	3.43997	-0.84474	0	
0.8607	0.987121	-1.13856	0	
0.8613	-0.239302	0.679465	0	
0.8620	1.58538	-0.220367	0	
0.8627	2.21354	-2.66277	0	
0.8633	-0.837557	-0.532554	0	
0.8640	-5.71334	1.90985	0	
0.8647	-4.81596	0.385642	0	
0.8653	-0.837557	-0.532554	0	
0.8660	-1.13669	-0.532554	0	
0.8667	-3.88866	0.0734557	0	
0.8673	-3.58953	1.59766	0	
0.8680	-3.88866	0.991652	0	
0.8687	-5.71334	-0.532554	0	
0.8693	-5.71334	1.30384	0	
0.8700	-4.51683	1.90985	0	
0.8707	-2.66224	0.0734557	0	
0.8713	0.388866	0.679465	0	
0.8720	0.987121	2.20367	0	
0.8727	-1.76485	2.20367	0	
0.8733	-1.46573	0.991652	0	
0.8740	2.21354	-0.84474	0	
0.8747	4.03822	-1.13856	0	
0.8753	2.51267	0.0734557	0	
0.8760	1.58538	0.385642	0	
0.8767	2.51267	0.385642	0	
0.8773	3.43997	0.991652	0	
0.8780	2.8118	-0.220367	0	
0.8787	2.51267	-1.13856	0	
0.8793	3.43997	0.679465	0	
0.8800	0.987121	0.679465	0	
0.8807	-1.13669	-1.76294	0	
0.8813	2.21354	-1.13856	0	
0.8820	4.33735	-0.220367	0	
0.8827	1.58538	-0.220367	0	
0.8833	-1.13669	1.30384	0	
0.8840	0.987121	3.12187	0	
0.8847	2.8118	4.04006	0	
0.8853	0.687994	4.95826	0	
0.8860	-4.81596	3.43405	0	
0.8867	-7.56793	1.30384	0	
0.8873	-6.64063	2.20367	0	
0.8880	-7.56793	3.43405	0	
0.8887	-8.16618	0.385642	0	
0.8893	-5.71334	-1.13856	0	
0.8900	-4.81596	1.30384	0	
0.8907	-4.18779	1.59766	0	
0.8913	1.91442	-0.220367	0	
0.8920	4.96552	0.991652	0	
0.8927	1.28625	2.51586	0	
0.8933	-0.239302	1.90985	0	
0.8940	0.687994	4.35225	0	
0.8947	-2.06398	5.56427	0	
0.8953	-2.99128	0.679465	0	
0.8960	0.687994	-1.13856	0	
0.8967	2.8118	3.43405	0	
0.8973	2.21354	2.51586	0	
0.8980	0.687994	-2.97495	0	
0.8987	1.58538	-1.76294	0	
0.8993	3.11093	0.679465	0	
0.9000	3.7391	-0.220367	0	
0.9007	3.43997	0.991652	0	
0.9013	3.43997	1.59766	0	
0.9020	5.8629	-1.13856	0	
0.9027	9.24304	-0.220367	0	
0.9033	10.4396	1.30384	0	
0.9040	8.914	-0.84474	0	
0.9047	8.01662	-1.76294	0	
0.9053	5.8629	1.90985	0	
0.9060	5.26465	3.74624	0	
0.9067	7.68758	2.20367	0	
0.9073	5.26465	2.20367	0	
0.9080	-0.53843	3.43405	0	
0.9087	0.687994	3.12187	0	
0.9093	4.03822	2.20367	0	
0.9100	2.8118	3.12187	0	
0.9107	2.21354	3.12187	0	
0.9113	1.28625	1.30384	0	
0.9120	-2.06398	1.30384	0	
0.9127	-2.06398	1.30384	0	
0.9133	2.21354	-0.220367	0	
0.9140	3.43997	0.0734557	0	
0.9147	2.21354	1.59766	0	
0.9153	2.51267	-0.220367	0	
0.9160	4.33735	-2.05676	0	
0.9167	4.33735	-2.05676	0	
0.9173	2.21354	-3.89315	0	
0.9180	2.21354	-4.81135	0	
0.9187	2.51267	-0.532554	0	
0.9193	0.687994	1.59766	0	
0.9200	0.0598255	-2.36895	0	
0.9207	1.28625	-4.81135	0	
0.9213	-0.239302	-2.05676	0	
0.9220	-1.76485	0.679465	0	
0.9227	-1.46573	0.0734557	0	
0.9233	-2.99128	-2.05676	0	
0.9240	-5.41421	-4.49916	0	
0.9247	-8.16618	-4.81135	0	
0.9253	-9.99086	0.385642	0	
0.9260	-9.39261	3.12187	0	
0.9267	-7.86706	-0.220367	0	
0.9273	-6.64063	-1.45075	0	
0.9280	-5.11508	1.30384	0	
0.9287	-6.34151	0.679465	0	
0.9293	-9.39261	-1.13856	0	
0.9300	-7.56793	0.991652	0	
0.9307	-4.18779	1.59766	0	
0.9313	-6.93976	-2.05676	0	
0.9320	-8.46531	-3.58096	0	
0.9327	-4.81596	-1.45075	0	
0.9333	-3.88866	-1.45075	0	
0.9340	-5.11508	-3.28714	0	
0.9347	-2.99128	-2.97495	0	
0.9353	-1.13669	-0.532554	0	
0.9360	-0.239302	-0.532554	0	
0.9367	1.28625	-2.05676	0	
0.9373	0.388866	-1.13856	0	
0.9380	-1.46573	0.991652	0	
0.9387	-1.46573	0.385642	0	
0.9393	-1.76485	-0.532554	0	
0.9400	-2.06398	-0.220367	0	
0.9407	-1.46573	-0.220367	0	
0.9413	-1.76485	-0.220367	0	
0.9420	-2.06398	0.0734557	0	
0.9427	-0.837557	-0.84474	0	
0.9433	-2.36311	-0.220367	0	
0.9440	-4.81596	1.30384	0	
0.9447	-4.51683	0.679465	0	
0.9453	-5.11508	0.991652	0	
0.9460	-8.46531	2.82804	0	
0.9467	-9.99086	1.59766	0	
0.9473	-9.99086	-0.220367	0	
0.9480	-10.29	0.679465	0	
0.9487	-8.46531	0.0734557	0	
0.9493	-7.23889	-1.76294	0	
0.9500	-7.56793	0.385642	0	
0.9507	-6.04238	2.51586	0	
0.9513	-5.71334	0.679465	0	
0.9520	-7.56793	-1.13856	0	
0.9527	-6.93976	-0.84474	0	
0.9533	-4.81596	-2.36895	0	
0.9540	-4.51683	-2.05676	0	
0.9547	-2.99128	3.12187	0	
0.9553	-0.53843	3.12187	0	
0.9560	-0.239302	-2.97495	0	
0.9567	0.388866	-3.89315	0	
0.9573	0.0598255	-1.76294	0	
0.9580	-0.837557	-1.45075	0	
0.9587	0.0598255	0.385642	0	
0.9593	0.388866	2.20367	0	
0.9600	-0.239302	-0.532554	0	
0.9607	1.28625	-2.05676	0	
0.9613	1.58538	-0.532554	0	
0.9620	-0.239302	0.0734557	0	
0.9627	0.0598255	0.991652	0	
0.9633	1.58538	2.51586	0	
0.9640	1.58538	-0.220367	0	
0.9647	0.987121	-2.05676	0	
0.9653	-1.76485	0.679465	0	
0.9660	-4.81596	2.51586	0	
0.9667	-3.88866	1.90985	0	
0.9673	-2.06398	2.20367	0	
0.9680	-3.58953	1.30384	0	
0.9687	-3.2904	-0.84474	0	
0.9693	-2.99128	-0.532554	0	
0.9700	-3.58953	1.30384	0	
0.9707	-0.239302	2.51586	0	
0.9713	3.11093	1.59766	0	
0.9720	1.28625	-0.220367	0	
0.9727	0.0598255	-1.13856	0	
0.9733	2.51267	-0.220367	0	
0.9740	2.8118	0.385642	0	
0.9747	1.91442	-0.220367	0	
0.9753	2.51267	-1.13856	0	
0.9760	5.56377	-2.36895	0	
0.9767	9.24304	-3.28714	0	
0.9773	8.914	-3.89315	0	
0.9780	5.56377	-2.36895	0	
0.9787	4.63648	0.679465	0	
0.9793	4.63648	1.30384	0	
0.9800	3.43997	-0.220367	0	
0.9807	2.8118	-0.220367	0	
0.9813	2.51267	0.0734557	0	
0.9820	1.58538	0.0734557	0	
0.9827	1.91442	1.30384	0	
0.9833	1.58538	1.59766	0	
0.9840	-1.13669	-0.220367	0	
0.9847	-1.76485	0.385642	0	
0.9853	-1.13669	2.51586	0	
0.9860	-2.99128	3.12187	0	
0.9867	-3.88866	2.20367	0	
0.9873	-3.2904	2.51586	0	
0.9880	-2.36311	4.35225	0	
0.9887	-1.46573	3.74624	0	
0.9893	-1.46573	2.20367	0	
0.9900	-2.36311	1.90985	0	
0.9907	-2.99128	3.43405	0	
0.9913	-3.88866	4.35225	0	
0.9920	-4.51683	2.82804	0	
0.9927	-3.58953	0.385642	0	
0.9933	-3.2904	-0.220367	0	
0.9940	-2.36311	1.59766	0	
0.9947	-0.239302	1.59766	0	
0.9953	-0.53843	-0.84474	0	
0.9960	-0.837557	-1.76294	0	
0.9967	2.51267	-1.13856	0	
0.9973	4.63648	-0.84474	0	
0.9980	1.58538	-2.05676	0	
0.9987	0.987121	-2.05676	0	
0.9993	4.63648	-1.13856	0	
1.0000	3.11093	-1.13856	0	
1.0007	-0.53843	-3.28714	0	
1.0013	1.28625	-4.81135	0	
1.0020	2.8118	-2.97495	0	
1.0027	-1.13669	-0.220367	0	
1.0033	-3.88866	-1.13856	0	
1.0040	-2.36311	-2.36895	0	
1.0047	-2.99128	-1.13856	0	
1.0053	-4.81596	-0.220367	0	
1.0060	-3.2904	-0.220367	0	
1.0067	-2.66224	1.30384	0	
1.0073	-4.81596	1.30384	0	
1.0080	-5.71334	-1.13856	0	
1.0087	-4.51683	-0.220367	0	
1.0093	-2.36311	3.43405	0	
1.0100	0.987121	2.82804	0	
1.0107	1.58538	0.0734557	0	
1.0113	-1.46573	-0.532554	0	
1.0120	-2.66224	-1.13856	0	
1.0127	-0.53843	-1.13856	0	
1.0133	-2.06398	0.991652	0	
1.0140	-3.88866	2.20367	0	
1.0147	-1.46573	0.679465	0	
1.0153	1.91442	-1.13856	0	
1.0160	2.51267	-2.05676	0	
1.0167	3.43997	-0.84474	0	
1.0173	5.26465	2.20367	0	
1.0180	4.63648	1.30384	0	
1.0187	2.21354	-1.76294	0	
1.0193	0.687994	-1.45075	0	
1.0200	0.987121	-0.220367	0	
1.0207	0.388866	-0.220367	0	
1.0213	0.987121	-0.220367	0	
1.0220	2.51267	-0.220367	0	
1.0227	0.687994	-0.220367	0	
1.0233	-2.06398	0.991652	0	
1.0240	-2.06398	1.59766	0	
1.0247	-2.66224	1.90985	0	
1.0253	-2.99128	1.59766	0	
1.0260	0.388866	0.679465	0	
1.0267	0.987121	2.51586	0	
1.0273	-2.99128	5.56427	0	
1.0280	-2.99128	4.95826	0	
1.0287	-0.53843	0.991652	0	
1.0293	-1.13669	-0.220367	0	
1.0300	0.0598255	1.30384	0	
1.0307	2.8118	1.59766	0	
1.0313	2.51267	1.90985	0	
1.0320	2.51267	3.43405	0	
1.0327	4.33735	4.04006	0	
1.0333	4.33735	1.30384	0	
1.0340	4.33735	-0.532554	0	
1.0347	5.8629	-0.220367	0	
1.0353	4.63648	-2.05676	0	
1.0360	4.33735	-4.81135	0	
1.0367	6.7902	-3.28714	0	
1.0373	6.7902	0.385642	0	
1.0380	5.26465	-0.220367	0	
1.0387	4.03822	-2.36895	0	
1.0393	1.28625	-2.66277	0	
1.0400	-2.06398	-2.97495	0	
1.0407	-2.36311	-3.89315	0	
1.0413	-1.76485	-2.97495	0	
1.0420	-2.99128	-2.05676	0	
1.0427	-3.58953	-3.89315	0	
1.0433	-2.99128	-4.49916	0	
1.0440	-4.51683	-1.45075	0	
1.0447	-5.71334	0.679465	0	
1.0453	-4.81596	-0.220367	0	
1.0460	-4.51683	-1.13856	0	
1.0467	-5.71334	-1.13856	0	
1.0473	-4.81596	-0.84474	0	
1.0480	-3.2904	-1.13856	0	
1.0487	-4.81596	-2.05676	0	
1.0493	-6.64063	-0.220367	0	
1.0500	-5.71334	1.59766	0	
1.0507	-2.36311	0.385642	0	
1.0513	-1.76485	-2.36895	0	
1.0520	-3.88866	-2.97495	0	
1.0527	-3.58953	-1.45075	0	
1.0533	-0.53843	-0.220367	0	
1.0540	1.58538	-1.13856	0	
1.0547	2.51267	-1.76294	0	
1.0553	2.51267	-0.220367	0	
1.0560	1.91442	-0.532554	0	
1.0567	2.51267	-1.45075	0	
1.0573	4.96552	-1.13856	0	
1.0580	4.63648	-1.45075	0	
1.0587	4.33735	-1.45075	0	
1.0593	4.03822	0.991652	0	
1.0600	0.687994	0.679465	0	
1.0607	-1.46573	-2.97495	0	
1.0613	0.987121	-3.58096	0	
1.0620	1.91442	-2.05676	0	
1.0627	-1.76485	-1.45075	0	
1.0633	-2.99128	0.991652	0	
1.0640	-2.66224	2.51586	0	
1.0647	-4.81596	0.0734557	0	
1.0653	-6.64063	-0.220367	0	
1.0660	-4.18779	1.59766	0	
1.0667	-1.46573	1.59766	0	
1.0673	0.0598255	1.30384	0	
1.0680	-0.53843	1.30384	0	
1.0687	-4.81596	-0.84474	0	
1.0693	-8.16618	-1.13856	0	
1.0700	-6.93976	-0.220367	0	
1.0707	-5.71334	-2.05676	0	
1.0713	-7.86706	-2.36895	0	
1.0720	-8.76444	1.90985	0	
1.0727	-7.56793	3.12187	0	
1.0733	-7.56793	0.385642	0	
1.0740	-7.23889	0.679465	0	
1.0747	-2.99128	1.30384	0	
1.0753	0.388866	-1.45075	0	
1.0760	0.388866	-2.36895	0	
1.0767	2.51267	-1.13856	0	
1.0773	5.8629	-2.97495	0	
1.0780	7.08933	-4.20534	0	
1.0787	6.16203	-1.13856	0	
1.0793	4.03822	1.90985	0	
1.0800	2.21354	0.991652	0	
1.0807	2.51267	-1.45075	0	
1.0813	4.33735	-3.89315	0	
1.0820	4.63648	-4.81135	0	
1.0827	2.51267	-2.97495	0	
1.0833	0.0598255	-1.76294	0	
1.0840	-0.837557	-2.66277	0	
1.0847	1.28625	-2.05676	0	
1.0853	1.91442	0.0734557	0	
1.0860	0.987121	1.59766	0	
1.0867	1.91442	1.59766	0	
1.0873	2.51267	0.385642	0	
1.0880	0.687994	-1.45075	0	
1.0887	0.687994	-1.13856	0	
1.0893	1.91442	0.679465	0	
1.0900	1.28625	0.0734557	0	
1.0907	0.0598255	-0.220367	0	
1.0913	0.687994	0.679465	0	
1.0920	-0.53843	-0.220367	0	
1.0927	-2.66224	-2.05676	0	
1.0933	-2.66224	-3.58096	0	
1.0940	-2.06398	-2.66277	0	
1.0947	-1.13669	0.385642	0	
1.0953	2.51267	0.0734557	0	
1.0960	4.96552	-2.97495	0	
1.0967	0.0598255	-3.28714	0	
1.0973	-2.99128	-2.97495	0	
1.0980	1.28625	-4.81135	0	
1.0987	3.7391	-3.89315	0	
1.0993	2.51267	-1.13856	0	
1.1000	2.21354	-1.45075	0	
1.1007	2.51267	-2.36895	0	
1.1013	2.8118	-2.05676	0	
1.1020	3.7391	-2.66277	0	
1.1027	3.43997	-2.05676	0	
1.1033	1.58538	-0.220367	0	
1.1040	-0.239302	0.991652	0	
1.1047	-1.46573	1.30384	0	
1.1053	-0.53843	0.679465	0	
1.1060	0.388866	0.0734557	0	
1.1067	-0.53843	2.51586	0	
1.1073	-0.239302	3.43405	0	
1.1080	2.21354	1.30384	0	
1.1087	2.51267	2.20367	0	
1.1093	0.687994	3.43405	0	
1.1100	-1.13669	0.679465	0	
1.1107	-1.13669	0.991652	0	
1.1113	0.388866	2.51586	0	
1.1120	0.687994	-0.220367	0	
1.1127	0.0598255	-0.84474	0	
1.1133	-1.13669	0.679465	0	
1.1140	0.0598255	-1.45075	0	
1.1147	2.51267	-2.05676	0	
1.1153	1.91442	0.679465	0	
1.1160	0.687994	-1.45075	0	
1.1167	2.51267	-3.58096	0	
1.1173	2.51267	-0.84474	0	
1.1180	1.28625	-0.220367	0	
1.1187	3.43997	-3.28714	0	
1.1193	6.16203	-2.36895	0	
1.1200	4.33735	0.0734557	0	
1.1207	3.11093	-0.220367	0	
1.1213	2.51267	-0.220367	0	
1.1220	0.687994	0.679465	0	
1.1227	0.987121	1.59766	0	
1.1233	2.51267	1.59766	0	
1.1240	0.687994	-0.84474	0	
1.1247	-1.13669	-1.13856	0	
1.1253	-0.239302	4.35225	0	
1.1260	0.0598255	8.00667	0	
1.1267	-0.239302	5.87645	0	
1.1273	-1.46573	4.35225	0	
1.1280	-2.99128	4.35225	0	
1.1287	-2.66224	1.59766	0	
1.1293	-2.06398	0.991652	0	
1.1300	-2.06398	3.12187	0	
1.1307	-2.06398	1.30384	0	
1.1313	-0.837557	-1.13856	0	
1.1320	1.28625	0.679465	0	
1.1327	1.58538	2.20367	0	
1.1333	-2.36311	1.30384	0	
1.1340	-3.58953	-1.13856	0	
1.1347	0.687994	-2.97495	0	
1.1353	1.58538	-1.76294	0	
1.1360	-1.13669	0.679465	0	
1.1367	1.58538	-0.84474	0	
1.1373	3.43997	-2.66277	0	
1.1380	1.28625	-1.76294	0	
1.1387	0.0598255	-0.84474	0	
1.1393	0.687994	-1.13856	0	
1.1400	0.687994	-1.45075	0	
1.1407	0.0598255	-2.05676	0	
1.1413	-0.239302	-1.76294	0	
1.1420	-1.13669	-1.13856	0	
1.1427	-3.58953	-2.36895	0	
1.1433	-5.71334	-3.28714	0	
1.1440	-4.18779	-2.05676	0	
1.1447	-2.06398	-1.45075	0	
1.1453	-5.41421	-2.97495	0	
1.1460	-6.64063	-2.36895	0	
1.1467	-5.71334	-0.532554	0	
1.1473	-8.76444	0.385642	0	
1.1480	-9.69174	0.385642	0	
1.1487	-4.81596	1.59766	0	
1.1493	-7.86706	2.51586	0	
1.1500	-14.5675	0.991652	0	
1.1507	-12.4437	0.679465	0	
1.1513	-9.69174	2.82804	0	
1.1520	-11.2173	4.04006	0	
1.1527	-8.46531	2.51586	0	
1.1533	-7.23889	1.59766	0	
1.1540	-10.29	3.12187	0	
1.1547	-8.76444	3.43405	0	
1.1553	-5.41421	0.0734557	0	
1.1560	-6.93976	-2.97495	0	
1.1567	-8.46531	-0.84474	0	
1.1573	-6.34151	1.59766	0	
1.1580	-4.81596	0.385642	0	
1.1587	-3.88866	-0.532554	0	
1.1593	-2.06398	0.0734557	0	
1.1600	-2.06398	-0.220367	0	
1.1607	-1.76485	-0.532554	0	
1.1613	-1.13669	0.0734557	0	
1.1620	-2.06398	-0.532554	0	
1.1627	-1.76485	-0.532554	0	
1.1633	0.0598255	0.385642	0	
1.1640	-0.837557	0.0734557	0	
1.1647	-1.76485	-0.220367	0	
1.1653	0.987121	-0.220367	0	
1.1660	2.8118	0.385642	0	
1.1667	0.687994	0.679465	0	
1.1673	-1.13669	0.0734557	0	
1.1680	0.388866	-0.220367	0	
1.1687	2.21354	0.0734557	0	
1.1693	1.91442	0.679465	0	
1.1700	0.687994	0.385642	0	
1.1707	0.388866	0.679465	0	
1.1713	0.987121	0.0734557	0	
1.1720	0.687994	-0.220367	0	
1.1727	-0.239302	0.679465	0	
1.1733	-0.53843	1.59766	0	
1.1740	-0.239302	0.679465	0	
1.1747	0.687994	-0.84474	0	
1.1753	3.11093	-1.45075	0	
1.1760	6.16203	-1.13856	0	
1.1767	6.7902	-2.05676	0	
1.1773	4.63648	-3.28714	0	
1.1780	2.8118	-2.97495	0	
1.1787	1.58538	-2.97495	0	
1.1793	-1.13669	-2.97495	0	
1.1800	-3.88866	-1.13856	0	
1.1807	-3.88866	-2.05676	0	
1.1813	-2.99128	-3.58096	0	
1.1820	-2.99128	-0.220367	0	
1.1827	-2.66224	0.0734557	0	
1.1833	-1.76485	-3.89315	0	
1.1840	-2.36311	-2.05676	0	
1.1847	-3.58953	0.991652	0	
1.1853	-2.36311	-2.66277	0	
1.1860	-0.53843	-1.45075	0	
1.1867	-0.837557	5.27044	0	
1.1873	-1.13669	6.18864	0	
1.1880	-1.13669	4.35225	0	
1.1887	-0.837557	6.18864	0	
1.1893	0.687994	4.95826	0	
1.1900	1.91442	1.30384	0	
1.1907	1.91442	1.30384	0	
1.1913	2.21354	2.20367	0	
1.1920	4.03822	0.385642	0	
1.1927	4.63648	-1.13856	0	
1.1933	3.43997	0.385642	0	
1.1940	1.91442	1.59766	0	
1.1947	1.28625	-0.532554	0	
1.1953	2.51267	-1.76294	0	
1.1960	4.63648	-0.220367	0	
1.1967	6.16203	-2.05676	0	
1.1973	4.63648	-6.33555	0	
1.1980	1.58538	-5.72954	0	
1.1987	0.687994	-2.97495	0	
1.1993	0.987121	-3.58096	0	
1.2000	-0.837557	-3.89315	0	
1.2007	-1.46573	-3.89315	0	
1.2013	0.987121	-4.49916	0	
1.2020	0.987121	-3.89315	0	
1.2027	-0.239302	-1.45075	0	
1.2033	2.51267	-0.220367	0	
1.2040	3.43997	-0.220367	0	
1.2047	-0.53843	0.679465	0	
1.2053	-3.58953	1.30384	0	
1.2060	-2.99128	0.679465	0	
1.2067	-2.66224	0.385642	0	
1.2073	-2.06398	1.90985	0	
1.2080	-1.76485	3.74624	0	
1.2087	-2.99128	4.04006	0	
1.2093	-2.99128	4.04006	0	
1.2100	-1.13669	4.95826	0	
1.2107	0.388866	3.74624	0	
1.2113	0.987121	2.20367	0	
1.2120	1.58538	3.12187	0	
1.2127	1.58538	2.82804	0	
1.2133	2.51267	0.385642	0	
1.2140	2.8118	0.385642	0	
1.2147	1.91442	1.59766	0	
1.2153	2.51267	-0.84474	0	
1.2160	5.8629	-2.66277	0	
1.2167	6.16203	-0.220367	0	
1.2173	4.63648	0.991652	0	
1.2180	4.33735	-0.84474	0	
1.2187	3.11093	-0.220367	0	
1.2193	0.687994	1.59766	0	
1.2200	0.987121	0.991652	0	
1.2207	1.58538	-1.45075	0	
1.2213	-0.837557	-2.97495	0	
1.2220	-0.837557	-2.36895	0	
1.2227	1.91442	-1.45075	0	
1.2233	0.987121	-2.05676	0	
1.2240	-1.13669	-3.28714	0	
1.2247	-0.53843	-2.97495	0	
1.2253	-0.239302	-2.05676	0	
1.2260	-1.76485	-2.05676	0	
1.2267	-2.06398	-1.76294	0	
1.2273	-1.13669	-1.76294	0	
1.2280	-1.13669	-1.45075	0	
1.2287	-0.837557	-0.220367	0	
1.2293	-0.239302	0.0734557	0	
1.2300	0.0598255	-1.45075	0	
1.2307	0.0598255	-1.13856	0	
1.2313	1.28625	0.991652	0	
1.2320	0.987121	0.385642	0	
1.2327	-2.06398	-1.76294	0	
1.2333	-4.18779	-1.13856	0	
1.2340	-2.06398	0.679465	0	
1.2347	1.91442	0.385642	0	
1.2353	3.7391	-1.13856	0	
1.2360	4.63648	-1.45075	0	
1.2367	5.26465	-2.05676	0	
1.2373	7.38845	-3.89315	0	
1.2380	10.4396	-3.58096	0	
1.2387	9.8413	-0.84474	0	
1.2393	6.16203	-2.05676	0	
1.2400	4.63648	-4.81135	0	
1.2407	5.8629	-3.28714	0	
1.2413	5.8629	-1.13856	0	
1.2420	6.49107	-3.89315	0	
1.2427	7.68758	-5.72954	0	
1.2433	4.33735	-3.89315	0	
1.2440	0.687994	-2.97495	0	
1.2447	1.58538	-3.28714	0	
1.2453	1.91442	-3.28714	0	
1.2460	-0.53843	-2.05676	0	
1.2467	-1.13669	-0.220367	0	
1.2473	-1.46573	0.679465	0	
1.2480	-4.51683	-1.13856	0	
1.2487	-6.34151	-2.36895	0	
1.2493	-3.88866	-2.97495	0	
1.2500	-2.66224	-2.97495	0	
1.2507	-2.36311	-2.36895	0	
1.2513	-0.837557	-2.36895	0	
1.2520	0.687994	-2.97495	0	
1.2527	-0.239302	-2.97495	0	
1.2533	-0.239302	-2.36895	0	
1.2540	0.687994	-1.45075	0	
1.2547	2.51267	-1.45075	0	
1.2553	2.51267	-2.97495	0	
1.2560	2.21354	-4.49916	0	
1.2567	3.7391	-5.72954	0	
1.2573	6.16203	-5.10517	0	
1.2580	8.01662	-2.05676	0	
1.2587	8.61488	-0.532554	0	
1.2593	7.38845	-1.76294	0	
1.2600	5.26465	-1.13856	0	
1.2607	5.26465	-0.220367	0	
1.2613	5.26465	-1.45075	0	
1.2620	3.43997	-0.220367	0	
1.2627	1.91442	0.991652	0	
1.2633	0.687994	-1.45075	0	
1.2640	-0.239302	-1.45075	0	
1.2647	0.388866	1.30384	0	
1.2653	0.0598255	-1.13856	0	
1.2660	-2.06398	-3.89315	0	
1.2667	-2.99128	1.90985	0	
1.2673	-1.76485	4.04006	0	
1.2680	-1.13669	-2.05676	0	
1.2687	-1.13669	-2.05676	0	
1.2693	0.388866	3.43405	0	
1.2700	1.91442	1.90985	0	
1.2707	2.51267	0.679465	0	
1.2713	2.21354	3.43405	0	
1.2720	1.58538	1.90985	0	
1.2727	0.388866	-1.45075	0	
1.2733	-1.13669	0.991652	0	
1.2740	-1.46573	1.30384	0	
1.2747	-0.837557	-2.97495	0	
1.2753	-0.53843	-2.97495	0	
1.2760	-1.13669	-1.13856	0	
1.2767	-2.06398	-0.84474	0	
1.2773	-2.06398	-1.13856	0	
1.2780	-1.46573	-2.05676	0	
1.2787	-1.13669	-2.66277	0	
1.2793	-2.36311	-1.76294	0	
1.2800	-2.66224	-2.05676	0	
1.2807	-0.239302	-1.76294	0	
1.2813	1.58538	0.679465	0	
1.2820	-0.239302	-0.220367	0	
1.2827	-0.837557	-3.28714	0	
1.2833	0.388866	-2.05676	0	
1.2840	1.28625	-0.220367	0	
1.2847	-0.837557	-0.84474	0	
1.2853	-3.88866	0.0734557	0	
1.2860	-3.88866	0.991652	0	
1.2867	-2.99128	2.51586	0	
1.2873	-4.18779	4.64607	0	
1.2880	-4.81596	2.51586	0	
1.2887	-2.99128	-1.45075	0	
1.2893	-2.66224	0.385642	0	
1.2900	-3.58953	3.12187	0	
1.2907	-2.99128	1.59766	0	
1.2913	-1.76485	-0.220367	0	
1.2920	-1.76485	-0.220367	0	
1.2927	-1.46573	0.0734557	0	
1.2933	0.987121	-1.13856	0	
1.2940	4.33735	-3.89315	0	
1.2947	5.26465	-6.02337	0	
1.2953	2.8118	-3.89315	0	
1.2960	2.8118	-1.45075	0	
1.2967	5.26465	-1.13856	0	
1.2973	5.8629	-2.05676	0	
1.2980	4.33735	-3.28714	0	
1.2987	3.7391	-3.89315	0	
1.2993	4.03822	-1.76294	0	
1.3000	1.58538	-0.84474	0	
1.3007	-1.13669	-2.05676	0	
1.3013	-1.13669	-1.13856	0	
1.3020	-1.13669	0.0734557	0	
1.3027	-2.99128	0.385642	0	
1.3033	-1.13669	1.59766	0	
1.3040	2.51267	2.20367	0	
1.3047	0.687994	1.30384	0	
1.3053	-1.76485	2.82804	0	
1.3060	0.0598255	4.35225	0	
1.3067	-0.239302	2.51586	0	
1.3073	-2.66224	2.51586	0	
1.3080	-1.13669	4.04006	0	
1.3087	-0.239302	3.12187	0	
1.3093	-0.53843	2.51586	0	
1.3100	0.687994	2.20367	0	
1.3107	1.58538	0.385642	0	
1.3113	-1.13669	-0.84474	0	
1.3120	-2.36311	-1.13856	0	
1.3127	-1.13669	-0.84474	0	
1.3133	0.388866	0.679465	0	
1.3140	0.987121	1.90985	0	
1.3147	1.91442	0.991652	0	
1.3153	3.11093	1.30384	0	
1.3160	5.26465	1.30384	0	
1.3167	5.26465	-1.13856	0	
1.3173	4.33735	-2.66277	0	
1.3180	4.33735	-1.13856	0	
1.3187	6.16203	-0.84474	0	
1.3193	5.26465	-1.45075	0	
1.3200	1.58538	-1.13856	0	
1.3207	-0.53843	-0.84474	0	
1.3213	0.388866	-1.76294	0	
1.3220	0.987121	-2.97495	0	
1.3227	0.0598255	-1.76294	0	
1.3233	-0.837557	1.30384	0	
1.3240	-0.837557	1.90985	0	
1.3247	-1.46573	0.679465	0	
1.3253	-2.06398	0.385642	0	
1.3260	-1.76485	2.51586	0	
1.3267	-2.06398	3.43405	0	
1.3273	-3.2904	0.679465	0	
1.3280	-1.76485	-1.13856	0	
1.3287	0.687994	1.59766	0	
1.3293	-1.46573	3.43405	0	
1.3300	-3.88866	1.59766	0	
1.3307	-1.76485	2.51586	0	
1.3313	-0.239302	4.35225	0	
1.3320	-2.99128	1.59766	0	
1.3327	-3.58953	-2.05676	0	
1.3333	-2.06398	-2.36895	0	
1.3340	-1.76485	-1.45075	0	
1.3347	-1.76485	-1.13856	0	
1.3353	-0.837557	-2.36895	0	
1.3360	-0.239302	-4.49916	0	
1.3367	1.58538	-4.20534	0	
1.3373	3.43997	-1.45075	0	
1.3380	2.21354	-0.220367	0	
1.3387	0.0598255	0.679465	0	
1.3393	-0.239302	1.59766	0	
1.3400	-1.13669	0.679465	0	
1.3407	-2.36311	-0.220367	0	
1.3413	-2.06398	-0.220367	0	
1.3420	-1.13669	-1.45075	0	
1.3427	0.388866	-1.45075	0	
1.3433	-0.239302	1.90985	0	
1.3440	-2.99128	3.43405	0	
1.3447	-3.58953	1.30384	0	
1.3453	-2.36311	1.30384	0	
1.3460	-4.81596	1.90985	0	
1.3467	-5.71334	0.679465	0	
1.3473	-3.2904	0.0734557	0	
1.3480	-4.51683	0.0734557	0	
1.3487	-6.64063	-0.84474	0	
1.3493	-4.51683	0.679465	0	
1.3500	-3.2904	3.43405	0	
1.3507	-3.88866	2.82804	0	
1.3513	-1.76485	0.991652	0	
1.3520	-0.53843	2.20367	0	
1.3527	-2.06398	4.04006	0	
1.3533	-1.46573	2.82804	0	
1.3540	0.388866	0.679465	0	
1.3547	2.21354	0.679465	0	
1.3553	4.63648	1.59766	0	
1.3560	4.33735	0.679465	0	
1.3567	2.8118	-1.13856	0	
1.3573	4.63648	-1.45075	0	
1.3580	4.33735	-1.13856	0	
1.3587	0.388866	-1.13856	0	
1.3593	0.687994	-1.13856	0	
1.3600	3.7391	0.0734557	0	
1.3607	3.11093	0.679465	0	
1.3613	0.388866	-1.45075	0	
1.3620	-0.239302	-3.89315	0	
1.3627	-0.239302	-2.05676	0	
1.3633	0.0598255	0.679465	0	
1.3640	-0.239302	-1.13856	0	
1.3647	-2.36311	-2.05676	0	
1.3653	-5.71334	2.20367	0	
1.3660	-9.39261	2.51586	0	
1.3667	-12.1446	-0.220367	0	
1.3673	-12.4437	-0.220367	0	
1.3680	-12.1446	-0.84474	0	
1.3687	-10.29	-0.84474	0	
1.3693	-5.41421	2.51586	0	
1.3700	-2.99128	2.82804	0	
1.3707	-6.93976	-0.220367	0	
1.3713	-8.46531	-0.532554	0	
1.3720	-3.88866	-0.220367	0	
1.3727	-0.239302	-0.220367	0	
1.3733	0.687994	1.59766	0	
1.3740	1.58538	0.385642	0	
1.3747	1.91442	-3.89315	0	
1.3753	-0.239302	-3.28714	0	
1.3760	-0.239302	-0.532554	0	
1.3767	4.03822	-0.220367	0	
1.3773	5.56377	-0.220367	0	
1.3780	3.11093	-0.84474	0	
1.3787	3.11093	-2.05676	0	
1.3793	4.33735	-1.45075	0	
1.3800	2.51267	-0.220367	0	
1.3807	2.51267	0.385642	0	
1.3813	4.33735	0.679465	0	
1.3820	2.51267	-0.84474	0	
1.3827	-1.46573	-2.66277	0	
1.3833	-2.36311	-1.76294	0	
1.3840	-1.13669	-1.13856	0	
1.3847	-2.06398	-1.45075	0	
1.3853	-1.76485	-0.220367	0	
1.3860	-0.53843	2.20367	0	
1.3867	-2.06398	4.35225	0	
1.3873	-4.51683	4.04006	0	
1.3880	-3.88866	1.30384	0	
1.3887	-2.99128	0.679465	0	
1.3893	-2.36311	2.82804	0	
1.3900	-1.13669	4.35225	0	
1.3907	-0.239302	3.43405	0	
1.3913	-2.06398	1.59766	0	
1.3920	-2.99128	-0.220367	0	
1.3927	-0.53843	0.679465	0	
1.3933	1.58538	0.991652	0	
1.3940	0.987121	-0.532554	0	
1.3947	0.987121	-1.13856	0	
1.3953	3.11093	-1.13856	0	
1.3960	4.33735	-3.89315	0	
1.3967	3.43997	-4.49916	0	
1.3973	4.33735	-3.28714	0	
1.3980	6.7902	-3.28714	0	
1.3987	5.8629	-2.97495	0	
1.3993	3.43997	-1.45075	0	
1.4000	3.7391	-2.66277	0	
1.4007	4.63648	-2.97495	0	
1.4013	3.43997	-1.45075	0	
1.4020	2.51267	-2.05676	0	
1.4027	2.8118	-2.97495	0	
1.4033	4.63648	-2.66277	0	
1.4040	6.49107	-2.05676	0	
1.4047	5.56377	-1.13856	0	
1.4053	2.51267	0.0734557	0	
1.4060	-0.53843	-0.532554	0	
1.4067	-2.36311	-0.532554	0	
1.4073	-2.66224	0.0734557	0	
1.4080	-1.76485	-2.05676	0	
1.4087	-1.46573	-3.28714	0	
1.4093	0.0598255	-0.220367	0	
1.4100	2.21354	1.90985	0	
1.4107	0.0598255	1.30384	0	
1.4113	-2.99128	0.679465	0	
1.4120	-0.239302	0.991652	0	
1.4127	4.33735	0.991652	0	
1.4133	4.33735	-0.220367	0	
1.4140	4.63648	-0.220367	0	
1.4147	6.7902	0.679465	0	
1.4153	5.8629	-0.220367	0	
1.4160	3.11093	-0.84474	0	
1.4167	2.8118	-1.45075	0	
1.4173	2.21354	-4.81135	0	
1.4180	-2.06398	-7.54757	0	
1.4187	-4.81596	-5.41736	0	
1.4193	-3.88866	-2.36895	0	
1.4200	-4.18779	-2.36895	0	
1.4207	-7.23889	-2.36895	0	
1.4213	-9.09348	-1.76294	0	
1.4220	-9.39261	-2.36895	0	
1.4227	-8.76444	-3.89315	0	
1.4233	-6.93976	-2.97495	0	
1.4240	-6.64063	-1.13856	0	
1.4247	-8.76444	-1.13856	0	
1.4253	-8.46531	-2.05676	0	
1.4260	-7.56793	-1.13856	0	
1.4267	-9.39261	2.20367	0	
1.4273	-9.09348	3.43405	0	
1.4280	-6.64063	1.30384	0	
1.4287	-6.64063	-0.220367	0	
1.4293	-7.23889	1.59766	0	
1.4300	-5.71334	2.20367	0	
1.4307	-6.64063	0.385642	0	
1.4313	-6.64063	-0.220367	0	
1.4320	-2.06398	-0.532554	0	
1.4327	0.687994	-1.13856	0	
1.4333	0.0598255	-0.532554	0	
1.4340	-0.239302	-0.220367	0	
1.4347	0.687994	-2.05676	0	
1.4353	2.51267	-3.58096	0	
1.4360	4.33735	-3.89315	0	
1.4367	5.26465	-3.28714	0	
1.4373	6.16203	-0.220367	0	
1.4380	7.08933	-0.532554	0	
1.4387	5.26465	-3.58096	0	
1.4393	1.58538	-2.05676	0	
1.4400	2.21354	0.991652	0	
1.4407	3.7391	-1.13856	0	
1.4413	3.43997	-2.05676	0	
1.4420	2.21354	0.679465	0	
1.4427	1.58538	0.679465	0	
1.4433	3.11093	-1.13856	0	
1.4440	3.7391	-0.532554	0	
1.4447	-0.239302	0.991652	0	
1.4453	-2.99128	0.991652	0	
1.4460	-1.13669	0.385642	0	
1.4467	-0.239302	1.90985	0	
1.4473	-1.13669	3.43405	0	
1.4480	-1.46573	0.385642	0	
1.4487	-3.58953	-2.05676	0	
1.4493	-3.88866	1.30384	0	
1.4500	0.687994	1.59766	0	
1.4507	0.687994	-1.76294	0	
1.4513	-2.36311	-0.220367	0	
1.4520	-0.53843	1.59766	0	
1.4527	2.21354	0.679465	0	
1.4533	2.21354	0.385642	0	
1.4540	4.03822	-0.84474	0	
1.4547	5.26465	-2.97495	0	
1.4553	2.8118	-2.66277	0	
1.4560	3.7391	-2.05676	0	
1.4567	8.01662	-3.89315	0	
1.4573	7.38845	-2.97495	0	
1.4580	6.16203	-0.220367	0	
1.4587	8.914	-0.220367	0	
1.4593	10.7686	-1.13856	0	
1.4600	8.61488	-2.05676	0	
1.4607	6.16203	-4.20534	0	
1.4613	4.63648	-5.10517	0	
1.4620	4.03822	-3.58096	0	
1.4627	4.33735	-0.220367	0	
1.4633	3.11093	1.59766	0	
1.4640	1.91442	0.0734557	0	
1.4647	2.51267	-1.76294	0	
1.4653	2.8118	-2.05676	0	
1.4660	4.33735	-2.36895	0	
1.4667	5.56377	-1.13856	0	
1.4673	4.33735	0.385642	0	
1.4680	2.51267	-1.13856	0	
1.4687	2.51267	-2.05676	0	
1.4693	2.8118	0.679465	0	
1.4700	2.51267	-0.84474	0	
1.4707	2.51267	-4.81135	0	
1.4713	1.91442	-3.28714	0	
1.4720	2.51267	-0.220367	0	
1.4727	6.16203	-2.66277	0	
1.4733	6.16203	-4.81135	0	
1.4740	2.51267	-3.89315	0	
1.4747	2.21354	-2.97495	0	
1.4753	4.33735	-2.97495	0	
1.4760	5.8629	-2.97495	0	
1.4767	6.16203	-4.20534	0	
1.4773	5.8629	-4.81135	0	
1.4780	4.33735	-2.36895	0	
1.4787	3.11093	-1.45075	0	
1.4793	1.58538	-4.81135	0	
1.4800	0.987121	-5.72954	0	
1.4807	1.58538	-3.89315	0	
1.4813	0.388866	-4.49916	0	
1.4820	-0.53843	-5.72954	0	
1.4827	0.687994	-4.49916	0	
1.4833	-0.239302	-3.89315	0	
1.4840	-0.837557	-4.20534	0	
1.4847	1.58538	-3.28714	0	
1.4853	1.58538	-2.36895	0	
1.4860	-1.46573	-1.45075	0	
1.4867	-2.06398	0.991652	0	
1.4873	-3.2904	1.59766	0	
1.4880	-5.11508	0.0734557	0	
1.4887	-2.99128	-0.220367	0	
1.4893	-0.239302	0.679465	0	
1.4900	-0.837557	0.679465	0	
1.4907	-0.239302	0.385642	0	
1.4913	0.687994	-0.220367	0	
1.4920	-0.53843	-0.532554	0	
1.4927	-2.66224	-0.84474	0	
1.4933	-2.66224	-2.05676	0	
1.4940	-1.46573	-2.66277	0	
1.4947	-1.76485	-2.05676	0	
1.4953	-2.36311	-2.36895	0	
1.4960	0.0598255	-2.97495	0	
1.4967	2.51267	-2.66277	0	
1.4973	0.687994	-2.05676	0	
1.4980	-1.76485	-2.66277	0	
1.4987	0.687994	-3.89315	0	
1.4993	2.21354	-4.20534	0	
1.5000	-0.53843	-3.89315	0	
1.5007	-2.06398	-3.28714	0	
1.5013	-2.66224	-3.89315	0	
1.5020	-5.41421	-4.49916	0	
1.5027	-7.23889	-2.97495	0	
1.5033	-5.41421	0.0734557	0	
1.5040	-6.04238	0.679465	0	
1.5047	-9.99086	0.679465	0	
1.5053	-10.29	1.59766	0	
1.5060	-7.86706	1.30384	0	
1.5067	-7.86706	0.679465	0	
1.5073	-7.56793	1.30384	0	
1.5080	-5.71334	1.59766	0	
1.5087	-5.71334	2.51586	0	
1.5093	-7.56793	4.35225	0	
1.5100	-6.64063	4.35225	0	
1.5107	-5.71334	3.43405	0	
1.5113	-6.64063	4.35225	0	
1.5120	-7.56793	2.51586	0	
1.5127	-7.86706	0.0734557	0	
1.5133	-11.5164	0.679465	0	
1.5140	-14.2684	0.679465	0	
1.5147	-8.76444	-1.13856	0	
1.5153	0.0598255	-1.13856	0	
1.5160	2.51267	-2.05676	0	
1.5167	-0.239302	-2.36895	0	
1.5173	-3.88866	0.385642	0	
1.5180	-4.81596	1.30384	0	
1.5187	-1.46573	-0.220367	0	
1.5193	2.21354	0.991652	0	
1.5200	0.687994	1.30384	0	
1.5207	-2.99128	-2.05676	0	
1.5213	-4.51683	-2.36895	0	
1.5220	-4.51683	0.385642	0	
1.5227	-2.99128	0.679465	0	
1.5233	-0.53843	0.0734557	0	
1.5240	-1.13669	2.20367	0	
1.5247	-2.06398	1.59766	0	
1.5253	-1.13669	-2.05676	0	
1.5260	-2.06398	-3.28714	0	
1.5267	-4.81596	0.0734557	0	
1.5273	-5.11508	3.74624	0	
1.5280	-3.88866	2.82804	0	
1.5287	-2.99128	0.679465	0	
1.5293	-2.06398	0.679465	0	
1.5300	-2.99128	0.0734557	0	
1.5307	-2.99128	-1.13856	0	
1.5313	0.687994	0.679465	0	
1.5320	2.21354	1.59766	0	
1.5327	-1.13669	-1.45075	0	
1.5333	-1.46573	-1.13856	0	
1.5340	1.28625	1.30384	0	
1.5347	2.51267	1.30384	0	
1.5353	2.51267	3.43405	0	
1.5360	2.51267	4.35225	0	
1.5367	1.58538	-1.13856	0	
1.5373	1.91442	-3.89315	0	
1.5380	2.51267	-1.76294	0	
1.5387	1.58538	-0.84474	0	
1.5393	1.28625	1.90985	0	
1.5400	0.987121	5.87645	0	
1.5407	0.987121	3.43405	0	
1.5413	0.987121	0.385642	0	
1.5420	-0.239302	1.90985	0	
1.5427	-2.99128	0.991652	0	
1.5433	-4.81596	-0.532554	0	
1.5440	-6.64063	2.51586	0	
1.5447	-7.56793	3.43405	0	
1.5453	-6.64063	1.59766	0	
1.5460	-4.81596	1.59766	0	
1.5467	-5.71334	2.51586	0	
1.5473	-9.39261	1.59766	0	
1.5480	-9.99086	0.0734557	0	
1.5487	-6.04238	0.679465	0	
1.5493	-4.18779	3.43405	0	
1.5500	-6.04238	4.04006	0	
1.5507	-4.81596	1.30384	0	
1.5513	-2.06398	0.0734557	0	
1.5520	-3.58953	0.991652	0	
1.5527	-5.11508	0.0734557	0	
1.5533	-3.88866	-0.220367	0	
1.5540	-2.36311	0.991652	0	
1.5547	-2.06398	0.679465	0	
1.5553	-2.66224	-0.84474	0	
1.5560	-2.06398	0.0734557	0	
1.5567	1.28625	1.90985	0	
1.5573	2.51267	0.679465	0	
1.5580	-0.239302	-1.45075	0	
1.5587	-1.13669	-0.532554	0	
1.5593	-0.837557	2.51586	0	
1.5600	-2.99128	3.43405	0	
1.5607	-3.58953	0.991652	0	
1.5613	-2.06398	0.679465	0	
1.5620	-2.06398	1.90985	0	
1.5627	-1.46573	2.51586	0	
1.5633	-0.53843	1.59766	0	
1.5640	-3.88866	-0.532554	0	
1.5647	-6.34151	-0.84474	0	
1.5653	-6.04238	2.20367	0	
1.5660	-8.46531	3.43405	0	
1.5667	-9.99086	0.991652	0	
1.5673	-6.93976	-0.220367	0	
1.5680	-6.34151	-0.220367	0	
1.5687	-7.86706	0.679465	0	
1.5693	-4.81596	2.20367	0	
1.5700	-0.239302	3.43405	0	
1.5707	-1.46573	4.04006	0	
1.5713	-2.99128	4.35225	0	
1.5720	-3.58953	2.51586	0	
1.5727	-4.51683	-0.84474	0	
1.5733	-2.99128	-2.97495	0	
1.5740	-0.837557	-2.05676	0	
1.5747	-1.76485	0.991652	0	
1.5753	-0.837557	1.90985	0	
1.5760	2.21354	0.0734557	0	
1.5767	2.51267	0.679465	0	
1.5773	1.58538	1.59766	0	
1.5780	1.58538	-0.532554	0	
1.5787	0.987121	0.385642	0	
1.5793	1.91442	2.20367	0	
1.5800	2.51267	-0.220367	0	
1.5807	0.687994	-0.220367	0	
1.5813	0.388866	2.20367	0	
1.5820	0.687994	0.679465	0	
1.5827	-0.53843	-0.220367	0	
1.5833	-1.13669	2.20367	0	
1.5840	-1.76485	1.30384	0	
1.5847	-3.2904	2.51586	0	
1.5853	-3.2904	5.27044	0	
1.5860	-4.18779	1.59766	0	
1.5867	-6.04238	-2.05676	0	
1.5873	-4.81596	1.90985	0	
1.5880	-2.99128	3.74624	0	
1.5887	-4.81596	1.59766	0	
1.5893	-5.41421	0.991652	0	
1.5900	-2.99128	1.30384	0	
1.5907	-1.46573	1.90985	0	
1.5913	-0.53843	3.43405	0	
1.5920	0.687994	2.51586	0	
1.5927	0.0598255	1.90985	0	
1.5933	-2.99128	1.90985	0	
1.5940	-3.88866	0.385642	0	
1.5947	-1.46573	0.679465	0	
1.5953	1.91442	3.43405	0	
1.5960	2.51267	1.30384	0	
1.5967	2.51267	-2.05676	0	
1.5973	2.51267	-1.76294	0	
1.5980	2.51267	-2.97495	0	
1.5987	3.11093	-3.89315	0	
1.5993	2.51267	-1.76294	0	
1.6000	0.687994	-1.13856	0	
1.6007	0.0598255	-1.13856	0	
1.6013	1.58538	0.0734557	0	
1.6020	0.388866	-0.220367	0	
1.6027	-2.36311	-0.84474	0	
1.6033	-1.13669	0.0734557	0	
1.6040	1.28625	-1.13856	0	
1.6047	0.0598255	-1.13856	0	
1.6053	-1.13669	1.59766	0	
1.6060	-0.837557	1.59766	0	
1.6067	-1.46573	1.59766	0	
1.6073	-2.66224	2.51586	0	
1.6080	-1.46573	0.0734557	0	
1.6087	-0.239302	-1.76294	0	
1.6093	-0.239302	1.59766	0	
1.6100	-0.53843	3.74624	0	
1.6107	-0.239302	3.12187	0	
1.6113	-0.239302	2.51586	0	
1.6120	-1.13669	0.991652	0	
1.6127	-1.76485	-1.13856	0	
1.6133	-0.53843	-1.76294	0	
1.6140	1.28625	-2.36895	0	
1.6147	1.28625	-3.89315	0	
1.6153	0.987121	-3.58096	0	
1.6160	1.91442	-0.220367	0	
1.6167	2.51267	1.30384	0	
1.6173	3.43997	-1.13856	0	
1.6180	5.56377	-2.97495	0	
1.6187	5.8629	-2.97495	0	
1.6193	4.03822	-3.89315	0	
1.6200	2.8118	-2.97495	0	
1.6207	1.58538	-0.220367	0	
1.6213	-1.13669	-2.36895	0	
1.6220	-1.76485	-3.58096	0	
1.6227	0.987121	0.385642	0	
1.6233	1.91442	0.991652	0	
1.6240	-0.53843	-2.05676	0	
1.6247	-1.46573	-1.76294	0	
1.6253	0.0598255	-1.45075	0	
1.6260	-0.53843	-2.36895	0	
1.6267	-1.76485	-0.220367	0	
1.6273	-1.13669	0.679465	0	
1.6280	-1.13669	-0.532554	0	
1.6287	-0.53843	1.59766	0	
1.6293	2.21354	2.82804	0	
1.6300	2.51267	0.0734557	0	
1.6307	-0.239302	1.30384	0	
1.6313	-0.53843	5.27044	0	
1.6320	0.388866	4.04006	0	
1.6327	0.987121	1.59766	0	
1.6333	1.58538	3.43405	0	
1.6340	2.51267	3.74624	0	
1.6347	3.11093	-0.220367	0	
1.6353	5.26465	-2.05676	0	
1.6360	7.68758	-0.532554	0	
1.6367	8.914	-0.220367	0	
1.6373	7.08933	-1.13856	0	
1.6380	2.8118	-2.97495	0	
1.6387	2.51267	-2.36895	0	
1.6393	5.26465	-1.45075	0	
1.6400	5.26465	-2.97495	0	
1.6407	2.51267	-3.89315	0	
1.6413	2.51267	-2.66277	0	
1.6420	3.43997	-2.97495	0	
1.6427	2.51267	-2.97495	0	
1.6433	0.388866	0.385642	0	
1.6440	0.687994	0.679465	0	
1.6447	-0.837557	-1.45075	0	
1.6453	-5.11508	0.0734557	0	
1.6460	-5.71334	2.51586	0	
1.6467	-3.88866	0.679465	0	
1.6473	-4.81596	-1.13856	0	
1.6480	-6.34151	0.991652	0	
1.6487	-5.41421	3.43405	0	
1.6493	-4.51683	0.991652	0	
1.6500	-2.99128	-2.97495	0	
1.6507	-0.53843	-1.76294	0	
1.6513	-1.46573	1.59766	0	
1.6520	-2.66224	2.51586	0	
1.6527	0.0598255	3.43405	0	
1.6533	2.51267	3.43405	0	
1.6540	1.91442	-0.84474	0	
1.6547	0.987121	-2.97495	0	
1.6553	2.51267	-1.13856	0	
1.6560	4.33735	-1.13856	0	
1.6567	3.43997	-3.58096	0	
1.6573	2.8118	-4.49916	0	
1.6580	4.33735	-3.89315	0	
1.6587	4.96552	-2.05676	0	
1.6593	3.43997	-1.13856	0	
1.6600	2.51267	-3.28714	0	
1.6607	3.11093	-3.58096	0	
1.6613	5.26465	-2.36895	0	
1.6620	6.16203	-3.89315	0	
1.6627	3.11093	-4.81135	0	
1.6633	-0.239302	-2.36895	0	
1.6640	-0.239302	-1.76294	0	
1.6647	1.58538	-3.28714	0	
1.6653	0.0598255	-2.97495	0	
1.6660	-2.66224	-0.532554	0	
1.6667	-4.51683	0.991652	0	
1.6673	-5.41421	1.90985	0	
1.6680	-5.11508	2.82804	0	
1.6687	-3.88866	1.90985	0	
1.6693	-3.58953	-1.13856	0	
1.6700	-1.76485	-1.13856	0	
1.6707	0.987121	0.679465	0	
1.6713	-0.837557	-1.13856	0	
1.6720	-3.88866	-1.76294	0	
1.6727	-0.53843	1.90985	0	
1.6733	3.43997	2.51586	0	
1.6740	2.8118	-1.45075	0	
1.6747	2.21354	-2.66277	0	
1.6753	3.43997	-1.45075	0	
1.6760	3.11093	-2.66277	0	
1.6767	1.91442	-3.89315	0	
1.6773	1.28625	-2.97495	0	
1.6780	0.987121	-0.532554	0	
1.6787	0.687994	-1.45075	0	
1.6793	0.0598255	-3.89315	0	
1.6800	-0.53843	-2.97495	0	
1.6807	-2.06398	-0.532554	0	
1.6813	-2.99128	-0.84474	0	
1.6820	-1.76485	-2.66277	0	
1.6827	0.687994	-2.05676	0	
1.6833	-0.53843	0.385642	0	
1.6840	-3.2904	-0.220367	0	
1.6847	-2.06398	-2.97495	0	
1.6853	-1.13669	-2.05676	0	
1.6860	-4.51683	0.991652	0	
1.6867	-5.41421	1.59766	0	
1.6873	-1.46573	1.30384	0	
1.6880	-0.53843	3.43405	0	
1.6887	-2.99128	4.35225	0	
1.6893	-3.88866	1.59766	0	
1.6900	-0.53843	0.679465	0	
1.6907	4.33735	2.51586	0	
1.6913	6.16203	3.12187	0	
1.6920	3.43997	0.679465	0	
1.6927	2.21354	-0.84474	0	
1.6933	2.8118	-1.13856	0	
1.6940	1.91442	-2.05676	0	
1.6947	1.58538	-1.76294	0	
1.6953	3.7391	-0.532554	0	
1.6960	4.63648	0.0734557	0	
1.6967	3.43997	0.679465	0	
1.6973	3.7391	0.0734557	0	
1.6980	5.26465	-1.45075	0	
1.6987	2.51267	-1.45075	0	
1.6993	-0.837557	-0.220367	0	
1.7000	0.687994	-0.220367	0	
1.7007	2.8118	-0.84474	0	
1.7013	1.28625	-0.220367	0	
1.7020	-0.239302	-0.220367	0	
1.7027	1.28625	0.991652	0	
1.7033	0.687994	3.74624	0	
1.7040	-2.06398	2.51586	0	
1.7047	-1.76485	0.679465	0	
1.7053	-1.76485	1.90985	0	
1.7060	-3.88866	2.20367	0	
1.7067	-5.11508	0.0734557	0	
1.7073	-6.04238	1.59766	0	
1.7080	-4.81596	4.35225	0	
1.7087	-2.06398	2.51586	0	
1.7093	-1.76485	-0.532554	0	
1.7100	-3.2904	-0.84474	0	
1.7107	-2.36311	0.0734557	0	
1.7113	-2.66224	0.385642	0	
1.7120	-4.18779	0.0734557	0	
1.7127	-1.13669	0.385642	0	
1.7133	1.58538	0.679465	0	
1.7140	-0.239302	0.385642	0	
1.7147	-0.837557	0.0734557	0	
1.7153	1.28625	0.679465	0	
1.7160	0.687994	0.385642	0	
1.7167	-0.53843	-0.84474	0	
1.7173	-0.239302	-1.13856	0	
1.7180	1.28625	-1.45075	0	
1.7187	5.26465	-2.05676	0	
1.7193	6.49107	-1.45075	0	
1.7200	0.687994	-0.220367	0	
1.7207	-2.36311	0.679465	0	
1.7213	0.0598255	0.679465	0	
1.7220	-0.239302	-0.220367	0	
1.7227	-1.46573	-0.220367	0	
1.7233	1.58538	-2.36895	0	
1.7240	0.687994	-3.89315	0	
1.7247	-5.11508	-1.76294	0	
1.7253	-7.56793	1.30384	0	
1.7260	-6.93976	1.59766	0	
1.7267	-5.71334	2.51586	0	
1.7273	-4.81596	2.82804	0	
1.7280	-5.41421	-0.84474	0	
1.7287	-3.88866	-3.58096	0	
1.7293	0.0598255	-1.13856	0	
1.7300	-1.13669	0.991652	0	
1.7307	-3.88866	-0.220367	0	
1.7313	-0.53843	-0.84474	0	
1.7320	2.21354	1.90985	0	
1.7327	1.58538	2.82804	0	
1.7333	1.91442	0.385642	0	
1.7340	-3.58953	-0.84474	0	
1.7347	-15.4948	0.0734557	0	
1.7353	-19.4433	-1.13856	0	
1.7360	-14.2684	-3.89315	0	
1.7367	-9.39261	-3.89315	0	
1.7373	-3.88866	-0.84474	0	
1.7380	1.58538	0.0734557	0	
1.7387	0.987121	-0.84474	0	
1.7393	-2.36311	-0.220367	0	
1.7400	-2.99128	0.0734557	0	
1.7407	-2.36311	-2.66277	0	
1.7413	-1.13669	-5.41736	0	
1.7420	-0.837557	-4.81135	0	
1.7427	-1.46573	-2.36895	0	
1.7433	-2.36311	-0.220367	0	
1.7440	-3.58953	0.0734557	0	
1.7447	-2.66224	-2.36895	0	
1.7453	0.987121	-2.97495	0	
1.7460	0.987121	-0.84474	0	
1.7467	-1.13669	-1.13856	0	
1.7473	-0.837557	-2.36895	0	
1.7480	-2.99128	-2.05676	0	
1.7487	-6.34151	-1.76294	0	
1.7493	-2.99128	-2.05676	0	
1.7500	1.91442	-1.13856	0	
1.7507	2.51267	0.0734557	0	
1.7513	2.51267	0.679465	0	
1.7520	1.91442	0.679465	0	
1.7527	0.388866	-1.76294	0	
1.7533	2.21354	-3.89315	0	
1.7540	3.43997	-2.97495	0	
1.7547	3.43997	-2.36895	0	
1.7553	6.49107	-2.05676	0	
1.7560	10.4396	-1.76294	0	
1.7567	9.24304	-2.97495	0	
1.7573	7.38845	-3.89315	0	
1.7580	7.38845	-2.97495	0	
1.7587	5.26465	-1.45075	0	
1.7593	3.7391	-1.13856	0	
1.7600	5.8629	-1.13856	0	
1.7607	7.68758	-2.05676	0	
1.7613	7.08933	-3.89315	0	
1.7620	6.16203	-2.66277	0	
1.7627	4.96552	-0.220367	0	
1.7633	3.11093	-0.220367	0	
1.7640	3.43997	-0.220367	0	
1.7647	3.11093	0.679465	0	
1.7653	0.388866	0.991652	0	
1.7660	-2.06398	0.0734557	0	
1.7667	-2.06398	-0.220367	0	
1.7673	-1.13669	1.59766	0	
1.7680	-0.239302	2.20367	0	
1.7687	0.388866	-0.220367	0	
1.7693	-0.53843	-0.84474	0	
1.7700	-0.239302	1.90985	0	
1.7707	1.91442	3.12187	0	
1.7713	2.21354	2.20367	0	
1.7720	2.51267	1.59766	0	
1.7727	2.51267	2.20367	0	
1.7733	0.987121	2.51586	0	
1.7740	2.21354	0.991652	0	
1.7747	6.16203	-0.84474	0	
1.7753	6.7902	0.679465	0	
1.7760	5.26465	3.43405	0	
1.7767	6.7902	0.991652	0	
1.7773	7.08933	-2.36895	0	
1.7780	5.26465	-0.84474	0	
1.7787	5.26465	0.991652	0	
1.7793	5.26465	0.385642	0	
1.7800	2.51267	1.30384	0	
1.7807	1.28625	3.12187	0	
1.7813	3.43997	1.30384	0	
1.7820	4.96552	-1.13856	0	
1.7827	2.21354	0.0734557	0	
1.7833	-2.06398	2.20367	0	
1.7840	-2.36311	1.30384	0	
1.7847	-1.13669	-0.220367	0	
1.7853	-1.46573	0.991652	0	
1.7860	-2.99128	2.51586	0	
1.7867	-3.58953	1.90985	0	
1.7873	-5.11508	0.679465	0	
1.7880	-6.04238	1.59766	0	
1.7887	-3.2904	2.82804	0	
1.7893	-0.53843	1.30384	0	
1.7900	-0.239302	-1.13856	0	
1.7907	-1.13669	-1.13856	0	
1.7913	-1.76485	-0.220367	0	
1.7920	-1.46573	-0.84474	0	
1.7927	-0.837557	-1.13856	0	
1.7933	-0.239302	-0.220367	0	
1.7940	0.987121	0.0734557	0	
1.7947	2.8118	-1.13856	0	
1.7953	1.91442	-2.36895	0	
1.7960	0.987121	-1.76294	0	
1.7967	3.43997	0.385642	0	
1.7973	3.11093	-1.13856	0	
1.7980	0.687994	-4.81135	0	
1.7987	2.21354	-4.49916	0	
1.7993	2.51267	-2.97495	0	
1.8000	-1.13669	-2.97495	0	
1.8007	-2.06398	-1.45075	0	
1.8013	-0.53843	-1.45075	0	
1.8020	-1.13669	-5.72954	0	
1.8027	-0.239302	-5.72954	0	
1.8033	0.987121	-1.13856	0	
1.8040	0.0598255	-0.220367	0	
1.8047	-1.76485	-1.13856	0	
1.8053	-4.51683	-1.45075	0	
1.8060	-6.93976	-3.89315	0	
1.8067	-5.71334	-3.89315	0	
1.8073	-4.81596	1.90985	0	
1.8080	-6.93976	1.90985	0	
1.8087	-5.11508	-2.05676	0	
1.8093	-2.06398	-1.13856	0	
1.8100	-2.99128	1.59766	0	
1.8107	-2.99128	0.0734557	0	
1.8113	0.388866	-2.05676	0	
1.8120	0.687994	-2.97495	0	
1.8127	0.987121	-2.05676	0	
1.8133	4.03822	-0.532554	0	
1.8140	4.96552	-0.84474	0	
1.8147	4.03822	-2.05676	0	
1.8153	4.96552	-2.05676	0	
1.8160	5.56377	-1.76294	0	
1.8167	4.33735	-1.76294	0	
1.8173	3.43997	-2.05676	0	
1.8180	2.51267	-2.66277	0	
1.8187	1.58538	-2.05676	0	
1.8193	2.51267	-0.532554	0	
1.8200	4.33735	-1.45075	0	
1.8207	4.03822	-2.97495	0	
1.8213	1.28625	-1.45075	0	
1.8220	1.28625	-1.13856	0	
1.8227	3.43997	-2.05676	0	
1.8233	2.51267	0.0734557	0	
1.8240	-2.36311	1.59766	0	
1.8247	-3.88866	-1.13856	0	
1.8253	-1.76485	-2.05676	0	
1.8260	-2.06398	-0.532554	0	
1.8267	-4.18779	-1.45075	0	
1.8273	-5.41421	-0.532554	0	
1.8280	-5.41421	1.90985	0	
1.8287	-6.04238	-1.13856	0	
1.8293	-7.56793	-3.89315	0	
1.8300	-8.46531	-0.84474	0	
1.8307	-7.23889	1.90985	0	
1.8313	-3.58953	2.82804	0	
1.8320	-1.13669	3.74624	0	
1.8327	-4.51683	0.991652	0	
1.8333	-7.86706	-2.36895	0	
1.8340	-5.71334	-1.13856	0	
1.8347	-4.18779	-0.220367	0	
1.8353	-6.34151	-1.13856	0	
1.8360	-5.41421	-1.13856	0	
1.8367	-1.13669	-2.05676	0	
1.8373	0.687994	-3.89315	0	
1.8380	0.0598255	-2.97495	0	
1.8387	-1.13669	-2.05676	0	
1.8393	-1.13669	-3.58096	0	
1.8400	1.58538	-2.97495	0	
1.8407	4.03822	-1.13856	0	
1.8413	3.11093	-1.13856	0	
1.8420	-0.239302	-0.220367	0	
1.8427	-1.13669	0.385642	0	
1.8433	1.58538	-1.45075	0	
1.8440	3.11093	-1.45075	0	
1.8447	2.21354	0.991652	0	
1.8453	1.58538	0.679465	0	
1.8460	1.28625	-0.220367	0	
1.8467	-0.239302	0.385642	0	
1.8473	-2.99128	-2.05676	0	
1.8480	-5.11508	-2.66277	0	
1.8487	-6.64063	0.991652	0	
1.8493	-4.81596	1.90985	0	
1.8500	-2.99128	0.679465	0	
1.8507	-3.88866	0.991652	0	
1.8513	-3.88866	-0.220367	0	
1.8520	-1.76485	-1.13856	0	
1.8527	-0.239302	3.12187	0	
1.8533	-0.239302	3.43405	0	
1.8540	-1.13669	-1.13856	0	
1.8547	-2.66224	-1.13856	0	
1.8553	-1.46573	0.0734557	0	
1.8560	1.28625	-1.13856	0	
1.8567	1.91442	-0.220367	0	
1.8573	2.51267	0.991652	0	
1.8580	4.33735	-1.13856	0	
1.8587	4.33735	-1.13856	0	
1.8593	2.51267	-0.220367	0	
1.8600	0.388866	-1.13856	0	
1.8607	0.0598255	-1.45075	0	
1.8613	0.0598255	-1.13856	0	
1.8620	-2.99128	-0.220367	0	
1.8627	-5.71334	1.59766	0	
1.8633	-3.2904	2.20367	0	
1.8640	-1.76485	-0.220367	0	
1.8647	-3.88866	0.385642	0	
1.8653	-4.81596	2.82804	0	
1.8660	-4.81596	3.43405	0	
1.8667	-6.93976	3.43405	0	
1.8673	-8.76444	2.82804	0	
1.8680	-7.56793	0.679465	0	
1.8687	-5.71334	1.30384	0	
1.8693	-5.71334	2.82804	0	
1.8700	-6.64063	0.991652	0	
1.8707	-5.71334	-0.532554	0	
1.8713	-4.81596	0.991652	0	
1.8720	-4.51683	1.90985	0	
1.8727	-2.36311	1.59766	0	
1.8733	-1.13669	3.43405	0	
1.8740	-1.76485	4.64607	0	
1.8747	0.687994	3.43405	0	
1.8753	3.43997	2.20367	0	
1.8760	3.11093	1.30384	0	
1.8767	1.58538	0.385642	0	
1.8773	2.21354	0.679465	0	
1.8780	4.03822	1.90985	0	
1.8787	5.56377	1.59766	0	
1.8793	4.03822	-0.220367	0	
1.8800	1.58538	-2.05676	0	
1.8807	2.51267	-2.05676	0	
1.8813	3.43997	-1.13856	0	
1.8820	2.21354	-0.220367	0	
1.8827	2.51267	1.30384	0	
1.8833	2.21354	3.43405	0	
1.8840	-1.13669	3.43405	0	
1.8847	-2.36311	2.51586	0	
1.8853	-0.837557	2.51586	0	
1.8860	-2.06398	2.51586	0	
1.8867	-4.81596	2.51586	0	
1.8873	-4.81596	2.20367	0	
1.8880	-2.99128	0.679465	0	
1.8887	-3.2904	0.0734557	0	
1.8893	-5.71334	-0.220367	0	
1.8900	-6.34151	-2.66277	0	
1.8907	-4.18779	-2.97495	0	
1.8913	-3.58953	1.30384	0	
1.8920	-4.51683	1.30384	0	
1.8927	-4.51683	-2.05676	0	
1.8933	-2.36311	-1.76294	0	
1.8940	0.388866	-0.532554	0	
1.8947	0.687994	-2.36895	0	
1.8953	0.687994	-2.05676	0	
1.8960	2.21354	-0.220367	0	
1.8967	2.51267	-2.36895	0	
1.8973	1.28625	-4.20534	0	
1.8980	1.91442	-3.89315	0	
1.8987	2.51267	-3.89315	0	
1.8993	0.687994	-5.72954	0	
1.9000	-0.239302	-4.81135	0	
1.9007	0.388866	-2.36895	0	
1.9013	0.687994	-2.05676	0	
1.9020	2.21354	-3.89315	0	
1.9027	2.21354	-2.66277	0	
1.9033	-0.837557	-0.220367	0	
1.9040	-2.06398	-0.532554	0	
1.9047	-1.46573	-1.45075	0	
1.9053	-2.36311	0.0734557	0	
1.9060	-4.51683	0.385642	0	
1.9067	-6.64063	-1.76294	0	
1.9073	-7.56793	-2.05676	0	
1.9080	-5.71334	-1.13856	0	
1.9087	-5.41421	-1.76294	0	
1.9093	-6.34151	-2.05676	0	
1.9100	-4.18779	-1.76294	0	
1.9107	-2.66224	-2.05676	0	
1.9113	-2.99128	-1.76294	0	
1.9120	-2.06398	-1.45075	0	
1.9127	-0.837557	-2.97495	0	
1.9133	-1.46573	-3.58096	0	
1.9140	-0.239302	-1.45075	0	
1.9147	2.8118	-1.13856	0	
1.9153	2.51267	-2.66277	0	
1.9160	0.687994	-3.28714	0	
1.9167	3.11093	-4.20534	0	
1.9173	4.96552	-5.10517	0	
1.9180	3.43997	-3.28714	0	
1.9187	2.51267	-1.76294	0	
1.9193	3.11093	-3.58096	0	
1.9200	2.51267	-4.81135	0	
1.9207	0.987121	-4.81135	0	
1.9213	0.687994	-5.41736	0	
1.9220	1.91442	-4.20534	0	
1.9227	2.8118	-2.05676	0	
1.9233	2.51267	-1.13856	0	
1.9240	0.0598255	-2.05676	0	
1.9247	-0.239302	-0.84474	0	
1.9253	0.687994	1.30384	0	
1.9260	-1.76485	0.679465	0	
1.9267	-3.88866	-1.13856	0	
1.9273	-4.18779	-2.05676	0	
1.9280	-5.11508	-1.13856	0	
1.9287	-5.71334	0.679465	0	
1.9293	-2.36311	1.59766	0	
1.9300	-0.837557	2.51586	0	
1.9307	-3.88866	2.20367	0	
1.9313	-6.04238	1.90985	0	
1.9320	-3.58953	2.20367	0	
1.9327	-0.239302	1.59766	0	
1.9333	0.687994	-0.220367	0	
1.9340	0.687994	-1.76294	0	
1.9347	1.58538	-3.89315	0	
1.9353	2.51267	-4.81135	0	
1.9360	3.43997	-3.58096	0	
1.9367	5.26465	-2.05676	0	
1.9373	6.16203	-2.05676	0	
1.9380	5.8629	-2.05676	0	
1.9387	4.63648	-1.45075	0	
1.9393	3.11093	-0.220367	0	
1.9400	2.51267	0.0734557	0	
1.9407	3.7391	-2.66277	0	
1.9413	4.03822	-3.89315	0	
1.9420	3.43997	-0.220367	0	
1.9427	5.26465	0.679465	0	
1.9433	3.7391	-3.28714	0	
1.9440	-3.88866	-1.76294	0	
1.9447	-7.86706	2.20367	0	
1.9453	-3.88866	-1.13856	0	
1.9460	-2.99128	-3.58096	0	
1.9467	-7.23889	0.385642	0	
1.9473	-6.64063	1.90985	0	
1.9480	-3.2904	-0.84474	0	
1.9487	-2.99128	-0.220367	0	
1.9493	-2.99128	2.20367	0	
1.9500	-1.13669	2.51586	0	
1.9507	-0.239302	0.679465	0	
1.9513	-2.36311	-0.532554	0	
1.9520	-3.88866	-0.220367	0	
1.9527	-2.99128	0.679465	0	
1.9533	-1.13669	0.0734557	0	
1.9540	0.687994	-2.66277	0	
1.9547	1.58538	-3.89315	0	
1.9553	0.987121	-1.13856	0	
1.9560	1.58538	-0.220367	0	
1.9567	3.7391	-2.36895	0	
1.9573	4.03822	-2.36895	0	
1.9580	2.51267	0.679465	0	
1.9587	3.43997	1.59766	0	
1.9593	6.16203	-0.220367	0	
1.9600	5.8629	-0.220367	0	
1.9607	5.26465	0.385642	0	
1.9613	6.16203	-1.13856	0	
1.9620	6.16203	-1.76294	0	
1.9627	5.26465	-0.84474	0	
1.9633	5.26465	-0.532554	0	
1.9640	5.8629	-0.532554	0	
1.9647	4.63648	1.30384	0	
1.9653	0.687994	1.59766	0	
1.9660	-2.06398	-0.220367	0	
1.9667	-0.53843	0.385642	0	
1.9673	0.687994	1.90985	0	
1.9680	-0.53843	0.0734557	0	
1.9687	-0.239302	-2.36895	0	
1.9693	1.28625	-0.220367	0	
1.9700	0.687994	2.51586	0	
1.9707	-0.837557	1.59766	0	
1.9713	-0.53843	-0.532554	0	
1.9720	1.28625	-1.13856	0	
1.9727	2.8118	-0.220367	0	
1.9733	2.51267	-0.84474	0	
1.9740	1.58538	-2.05676	0	
1.9747	2.8118	-1.76294	0	
1.9753	6.16203	-1.13856	0	
1.9760	5.56377	-2.36895	0	
1.9767	3.43997	-3.89315	0	
1.9773	4.03822	-4.20534	0	
1.9780	4.96552	-2.36895	0	
1.9787	3.7391	-0.84474	0	
1.9793	2.51267	-1.76294	0	
1.9800	2.8118	-1.13856	0	
1.9807	3.43997	0.679465	0	
1.9813	2.51267	-0.84474	0	
1.9820	0.687994	-2.97495	0	
1.9827	0.687994	-1.76294	0	
1.9833	2.51267	-1.76294	0	
1.9840	0.987121	-2.97495	0	
1.9847	-2.66224	-1.13856	0	
1.9853	-2.36311	0.991652	0	
1.9860	0.388866	0.385642	0	
1.9867	-0.53843	0.679465	0	
1.9873	-2.99128	1.30384	0	
1.9880	-2.36311	0.991652	0	
1.9887	-1.76485	3.43405	0	
1.9893	-1.13669	3.74624	0	
1.9900	0.0598255	-1.13856	0	
1.9907	-0.837557	-2.05676	0	
1.9913	-2.99128	0.679465	0	
1.9920	-2.66224	0.0734557	0	
1.9927	-0.53843	-1.76294	0	
1.9933	0.388866	-0.84474	0	
1.9940	0.0598255	-1.76294	0	
1.9947	0.388866	-2.36895	0	
1.9953	1.58538	-0.220367	0	
1.9960	1.58538	-1.13856	0	
1.9967	1.58538	-4.49916	0	
1.9973	3.43997	-5.10517	0	
1.9980	3.7391	-3.89315	0	
1.9987	-0.239302	-3.58096	0	
1.9993	-0.837557	-3.89315	0	
2.0000	2.51267	-3.89315	0	
2.0007	3.11093	-3.89315	0	
2.0013	2.51267	-3.89315	0	
2.0020	3.7391	-4.81135	0	
2.0027	1.91442	-3.89315	0	
2.0033	-0.837557	-2.97495	0	
2.0040	0.388866	-3.89315	0	
2.0047	-0.53843	-3.89315	0	
2.0053	-5.71334	-1.13856	0	
2.0060	-6.64063	0.0734557	0	
2.0067	-4.81596	-1.45075	0	
2.0073	-6.04238	-2.97495	0	
2.0080	-7.56793	-2.66277	0	
2.0087	-4.51683	0.0734557	0	
2.0093	-1.76485	1.59766	0	
2.0100	-3.88866	0.679465	0	
2.0107	-5.71334	-0.220367	0	
2.0113	-2.36311	-0.220367	0	
2.0120	-0.239302	-0.84474	0	
2.0127	-2.06398	-0.220367	0	
2.0133	-2.36311	0.385642	0	
2.0140	1.58538	-0.532554	0	
2.0147	4.03822	-2.05676	0	
2.0153	2.51267	-2.36895	0	
2.0160	1.58538	-1.45075	0	
2.0167	2.51267	-2.05676	0	
2.0173	3.7391	-4.81135	0	
2.0180	2.8118	-5.72954	0	
2.0187	2.8118	-2.97495	0	
2.0193	3.11093	-1.45075	0	
2.0200	0.388866	-3.89315	0	
2.0207	-0.53843	-4.49916	0	
2.0213	2.51267	-2.97495	0	
2.0220	2.21354	-2.05676	0	
2.0227	-0.53843	-2.66277	0	
2.0233	2.21354	-2.97495	0	
2.0240	4.03822	-1.45075	0	
2.0247	0.388866	0.385642	0	
2.0253	-2.06398	-0.220367	0	
2.0260	-2.06398	-1.76294	0	
2.0267	-2.66224	-1.45075	0	
2.0273	-1.76485	-0.84474	0	
2.0280	-0.53843	0.0734557	0	
2.0287	-2.06398	2.51586	0	
2.0293	-2.36311	2.20367	0	
2.0300	-0.239302	-2.05676	0	
2.0307	-0.239302	-2.05676	0	
2.0313	-0.239302	1.90985	0	
2.0320	2.21354	1.59766	0	
2.0327	4.63648	0.0734557	0	
2.0333	5.8629	-0.220367	0	
2.0340	5.26465	-2.05676	0	
2.0347	5.26465	-3.28714	0	
2.0353	7.68758	-0.220367	0	
2.0360	8.914	-0.220367	0	
2.0367	6.49107	-2.05676	0	
2.0373	5.56377	-2.05676	0	
2.0380	7.08933	-2.05676	0	
2.0387	8.914	-2.66277	0	
2.0393	9.54217	-2.05676	0	
2.0400	7.38845	-2.97495	0	
2.0407	4.96552	-3.89315	0	
2.0413	6.7902	-1.45075	0	
2.0420	9.24304	0.0734557	0	
2.0427	7.68758	-2.36895	0	
2.0433	6.16203	-3.89315	0	
2.0440	7.08933	-2.05676	0	
2.0447	6.49107	-2.05676	0	
2.0453	4.63648	-2.36895	0	
2.0460	6.16203	-0.532554	0	
2.0467	7.08933	-0.220367	0	
2.0473	3.7391	-2.05676	0	
2.0480	0.987121	-2.05676	0	
2.0487	1.58538	-1.13856	0	
2.0493	3.11093	-1.45075	0	
2.0500	5.8629	0.679465	0	
2.0507	6.16203	1.59766	0	
2.0513	2.51267	-0.532554	0	
2.0520	2.51267	-0.84474	0	
2.0527	6.7902	1.30384	0	
2.0533	6.16203	0.0734557	0	
2.0540	4.33735	-0.220367	0	
2.0547	7.08933	1.59766	0	
2.0553	7.38845	0.991652	0	
2.0560	4.63648	-0.532554	0	
2.0567	6.7902	-0.84474	0	
2.0573	8.914	-1.45075	0	
2.0580	6.16203	-1.76294	0	
2.0587	3.43997	-2.05676	0	
2.0593	3.11093	-2.66277	0	
2.0600	3.43997	-1.76294	0	
2.0607	5.26465	-0.220367	0	
2.0613	5.26465	0.385642	0	
2.0620	2.51267	1.30384	0	
2.0627	1.28625	1.59766	0	
2.0633	1.91442	-0.220367	0	
2.0640	-0.239302	-0.220367	0	
2.0647	-3.2904	0.679465	0	
2.0653	-3.2904	-0.220367	0	
2.0660	-2.66224	0.679465	0	
2.0667	-4.51683	0.679465	0	
2.0673	-4.51683	-2.36895	0	
2.0680	-3.88866	-1.76294	0	
2.0687	-5.71334	1.59766	0	
2.0693	-6.34151	0.0734557	0	
2.0700	-3.88866	-1.76294	0	
2.0707	-2.99128	-0.220367	0	
2.0713	-2.66224	-0.84474	0	
2.0720	-1.76485	-3.58096	0	
2.0727	-4.81596	-2.66277	0	
2.0733	-7.23889	-1.13856	0	
2.0740	-4.81596	-2.36895	0	
2.0747	-2.99128	-2.36895	0	
2.0753	-2.99128	-1.13856	0	
2.0760	-2.36311	-1.76294	0	
2.0767	-1.13669	-4.49916	0	
2.0773	-0.239302	-5.41736	0	
2.0780	1.28625	-2.05676	0	
2.0787	1.28625	0.679465	0	
2.0793	0.388866	-1.76294	0	
2.0800	1.28625	-2.97495	0	
2.0807	1.58538	-2.05676	0	
2.0813	-0.837557	-2.97495	0	
2.0820	-2.66224	-3.28714	0	
2.0827	-2.99128	-0.84474	0	
2.0833	-3.88866	-0.532554	0	
2.0840	-4.81596	-2.05676	0	
2.0847	-6.34151	-1.76294	0	
2.0853	-6.93976	-0.532554	0	
2.0860	-7.56793	0.385642	0	
2.0867	-10.29	1.59766	0	
2.0873	-13.042	0.0734557	0	
2.0880	-11.5164	-1.13856	0	
2.0887	-9.39261	0.385642	0	
2.0893	-9.69174	-0.532554	0	
2.0900	-8.76444	-2.97495	0	
2.0907	-7.56793	-1.45075	0	
2.0913	-7.56793	-0.220367	0	
2.0920	-6.64063	-1.45075	0	
2.0927	-3.88866	-1.76294	0	
2.0933	-3.2904	-2.05676	0	
2.0940	-6.04238	-2.97495	0	
2.0947	-8.16618	-1.45075	0	
2.0953	-5.41421	-0.84474	0	
2.0960	-2.66224	-2.97495	0	
2.0967	-3.58953	-3.58096	0	
2.0973	-3.2904	-3.89315	0	
2.0980	-1.46573	-5.10517	0	
2.0987	-3.2904	-4.81135	0	
2.0993	-5.71334	-3.89315	0	
2.1000	-4.81596	-2.97495	0	
2.1007	-5.41421	-1.76294	0	
2.1013	-7.56793	-2.05676	0	
2.1020	-8.46531	-3.89315	0	
2.1027	-9.39261	-3.28714	0	
2.1033	-8.16618	-1.45075	0	
2.1040	-4.81596	-2.05676	0	
2.1047	-5.11508	-2.05676	0	
2.1053	-7.23889	-1.13856	0	
2.1060	-6.64063	-0.84474	0	
2.1067	-6.64063	-0.220367	0	
2.1073	-9.39261	0.991652	0	
2.1080	-10.29	-0.220367	0	
2.1087	-10.619	-1.13856	0	
2.1093	-10.9182	0.385642	0	
2.1100	-8.46531	2.20367	0	
2.1107	-4.81596	2.20367	0	
2.1113	-4.18779	1.59766	0	
2.1120	-5.41421	1.59766	0	
2.1127	-3.2904	1.59766	0	
2.1133	0.687994	1.30384	0	
2.1140	2.8118	0.385642	0	
2.1147	4.33735	-1.45075	0	
2.1153	6.49107	-0.84474	0	
2.1160	6.16203	1.59766	0	
2.1167	4.96552	1.59766	0	
2.1173	6.16203	0.679465	0	
2.1180	6.16203	1.59766	0	
2.1187	5.26465	1.90985	0	
2.1193	7.08933	1.59766	0	
2.1200	6.7902	-0.220367	0	
2.1207	4.33735	-0.220367	0	
2.1213	4.96552	3.43405	0	
2.1220	4.96552	4.35225	0	
2.1227	2.51267	0.679465	0	
2.1233	3.7391	0.679465	0	
2.1240	4.03822	2.51586	0	
2.1247	0.687994	-0.220367	0	
2.1253	-0.239302	-1.13856	0	
2.1260	0.687994	1.90985	0	
2.1267	-0.239302	1.59766	0	
2.1273	-1.13669	1.59766	0	
2.1280	-1.13669	6.18864	0	
2.1287	-0.53843	7.71285	0	
2.1293	1.28625	4.35225	0	
2.1300	1.58538	2.20367	0	
2.1307	0.987121	1.59766	0	
2.1313	4.33735	1.30384	0	
2.1320	7.08933	-0.220367	0	
2.1327	6.16203	-2.05676	0	
2.1333	5.26465	0.0734557	0	
2.1340	6.7902	3.43405	0	
2.1347	8.01662	1.59766	0	
2.1353	9.54217	-0.84474	0	
2.1360	11.3669	-0.220367	0	
2.1367	13.1915	-0.532554	0	
2.1373	14.1188	-2.05676	0	
2.1380	12.8924	-0.532554	0	
2.1387	10.7686	-0.220367	0	
2.1393	9.24304	-2.05676	0	
2.1400	10.1404	-1.76294	0	
2.1407	12.5933	-0.220367	0	
2.1413	13.1915	-0.84474	0	
2.1420	11.0677	-0.84474	0	
2.1427	8.914	0.0734557	0	
2.1433	8.914	-0.220367	0	
2.1440	9.8413	0.385642	0	
2.1447	8.01662	2.51586	0	
2.1453	4.63648	1.90985	0	
2.1460	4.33735	-0.220367	0	
2.1467	4.33735	1.59766	0	
2.1473	2.51267	4.35225	0	
2.1480	1.91442	4.04006	0	
2.1487	2.51267	2.51586	0	
2.1493	3.7391	0.679465	0	
2.1500	6.16203	-0.532554	0	
2.1507	6.49107	0.991652	0	
2.1513	4.03822	1.90985	0	
2.1520	6.16203	-0.532554	0	
2.1527	9.24304	-0.84474	0	
2.1533	7.08933	1.59766	0	
2.1540	5.8629	0.679465	0	
2.1547	8.31575	-2.36895	0	
2.1553	8.31575	-2.05676	0	
2.1560	7.68758	-0.220367	0	
2.1567	9.24304	-0.220367	0	
2.1573	8.31575	-0.532554	0	
2.1580	5.56377	-0.84474	0	
2.1587	5.26465	-1.76294	0	
2.1593	4.33735	-2.05676	0	
2.1600	1.28625	-1.13856	0	
2.1607	0.687994	-0.220367	0	
2.1613	1.28625	0.385642	0	
2.1620	-0.837557	0.385642	0	
2.1627	-2.06398	1.59766	0	
2.1633	-1.46573	3.12187	0	
2.1640	-2.06398	2.51586	0	
2.1647	-4.18779	1.90985	0	
2.1653	-5.11508	2.51586	0	
2.1660	-5.11508	2.82804	0	
2.1667	-3.88866	2.82804	0	
2.1673	-3.58953	3.12187	0	
2.1680	-5.41421	2.82804	0	
2.1687	-4.81596	1.59766	0	
2.1693	-2.66224	0.679465	0	
2.1700	-2.99128	0.679465	0	
2.1707	-3.88866	2.20367	0	
2.1713	-2.99128	1.90985	0	
2.1720	-2.06398	-1.45075	0	
2.1727	-2.36311	-2.97495	0	
2.1733	-2.66224	-2.05676	0	
2.1740	-1.13669	-2.05676	0	
2.1747	2.51267	-2.66277	0	
2.1753	4.33735	-3.89315	0	
2.1760	2.51267	-6.02337	0	
2.1767	0.987121	-4.81135	0	
2.1773	1.91442	-2.66277	0	
2.1780	2.21354	-3.89315	0	
2.1787	0.687994	-4.20534	0	
2.1793	-0.239302	-2.36895	0	
2.1800	-1.13669	-3.28714	0	
2.1807	-2.66224	-3.58096	0	
2.1813	-2.06398	-1.13856	0	
2.1820	0.0598255	-2.05676	0	
2.1827	0.687994	-2.36895	0	
2.1833	-0.239302	0.0734557	0	
2.1840	-2.06398	0.0734557	0	
2.1847	-6.64063	0.0734557	0	
2.1853	-9.39261	1.30384	0	
2.1860	-6.64063	-1.76294	0	
2.1867	-6.93976	-2.05676	0	
2.1873	-11.5164	2.20367	0	
2.1880	-10.619	1.90985	0	
2.1887	-7.56793	-1.13856	0	
2.1893	-9.99086	-1.13856	0	
2.1900	-9.39261	-1.13856	0	
2.1907	-6.34151	-0.220367	0	
2.1913	-7.56793	2.20367	0	
2.1920	-7.56793	0.385642	0	
2.1927	-3.88866	-2.66277	0	
2.1933	-3.88866	-1.13856	0	
2.1940	-4.81596	-0.532554	0	
2.1947	-0.53843	-1.45075	0	
2.1953	0.987121	0.679465	0	
2.1960	-1.76485	1.59766	0	
2.1967	-1.46573	-1.13856	0	
2.1973	2.8118	-3.89315	0	
2.1980	4.96552	-2.66277	0	
2.1987	1.58538	-0.84474	0	
2.1993	-1.76485	-0.532554	0	
2.2000	-0.239302	-2.05676	0	
2.2007	0.687994	-3.89315	0	
2.2013	-2.06398	-4.49916	0	
2.2020	-1.13669	-1.76294	0	
2.2027	1.58538	1.30384	0	
2.2033	0.987121	-2.05676	0	
2.2040	-0.239302	-4.81135	0	
2.2047	-2.06398	-2.05676	0	
2.2053	-5.11508	0.0734557	0	
2.2060	-4.18779	-0.532554	0	
2.2067	-2.99128	0.991652	0	
2.2073	-6.93976	1.59766	0	
2.2080	-9.09348	-0.220367	0	
2.2087	-6.93976	-0.532554	0	
2.2093	-7.56793	0.0734557	0	
2.2100	-7.86706	0.679465	0	
2.2107	-5.41421	0.385642	0	
2.2113	-4.81596	-0.532554	0	
2.2120	-6.34151	-0.220367	0	
2.2127	-5.71334	1.30384	0	
2.2133	-4.51683	1.30384	0	
2.2140	-3.2904	0.0734557	0	
2.2147	-0.53843	0.385642	0	
2.2153	1.28625	2.51586	0	
2.2160	0.687994	3.43405	0	
2.2167	-0.239302	1.59766	0	
2.2173	0.0598255	0.0734557	0	
2.2180	0.687994	0.991652	0	
2.2187	0.388866	1.90985	0	
2.2193	-0.239302	1.30384	0	
2.2200	-2.06398	0.385642	0	
2.2207	-2.99128	0.0734557	0	
2.2213	-2.99128	0.991652	0	
2.2220	-3.2904	0.679465	0	
2.2227	-3.2904	-0.84474	0	
2.2233	-2.06398	0.0734557	0	
2.2240	-3.2904	2.51586	0	
2.2247	-6.64063	1.90985	0	
2.2253	-7.86706	2.51586	0	
2.2260	-8.16618	5.27044	0	
2.2267	-9.99086	5.27044	0	
2.2273	-11.5164	4.64607	0	
2.2280	-10.29	4.64607	0	
2.2287	-7.56793	3.43405	0	
2.2293	-7.56793	1.59766	0	
2.2300	-8.16618	2.51586	0	
2.2307	-6.04238	4.35225	0	
2.2313	-3.88866	3.43405	0	
2.2320	-2.06398	1.59766	0	
2.2327	1.91442	2.51586	0	
2.2333	4.03822	4.35225	0	
2.2340	2.51267	1.90985	0	
2.2347	0.987121	-0.220367	0	
2.2353	2.21354	2.20367	0	
2.2360	3.43997	3.43405	0	
2.2367	3.43997	1.30384	0	
2.2373	2.51267	0.991652	0	
2.2380	1.28625	1.59766	0	
2.2387	0.0598255	0.679465	0	
2.2393	-1.46573	0.991652	0	
2.2400	-1.76485	2.51586	0	
2.2407	-1.13669	1.30384	0	
2.2413	-0.53843	-0.84474	0	
2.2420	0.687994	-0.220367	0	
2.2427	1.91442	0.0734557	0	
2.2433	-0.239302	-2.36895	0	
2.2440	-1.76485	-2.05676	0	
2.2447	-2.66224	1.30384	0	
2.2453	-5.11508	0.679465	0	
2.2460	-6.64063	-2.05676	0	
2.2467	-6.64063	0.0734557	0	
2.2473	-6.34151	3.12187	0	
2.2480	-3.88866	0.679465	0	
2.2487	-0.239302	-2.05676	0	
2.2493	0.687994	-1.45075	0	
2.2500	2.51267	-1.76294	0	
2.2507	4.63648	-1.76294	0	
2.2513	4.33735	-0.220367	0	
2.2520	5.26465	0.679465	0	
2.2527	7.68758	0.385642	0	
2.2533	6.16203	0.385642	0	
2.2540	4.33735	-1.45075	0	
2.2547	5.8629	-2.97495	0	
2.2553	6.16203	-2.05676	0	
2.2560	4.96552	-2.66277	0	
2.2567	5.26465	-3.89315	0	
2.2573	4.96552	-2.05676	0	
2.2580	2.8118	-1.76294	0	
2.2587	3.11093	-3.89315	0	
2.2593	3.43997	-2.36895	0	
2.2600	2.51267	-0.220367	0	
2.2607	3.11093	-2.05676	0	
2.2613	3.11093	-3.89315	0	
2.2620	0.0598255	-1.45075	0	
2.2627	-1.13669	0.0734557	0	
2.2633	0.388866	-1.13856	0	
2.2640	-1.13669	-1.45075	0	
2.2647	-5.71334	0.679465	0	
2.2653	-7.56793	1.90985	0	
2.2660	-6.64063	0.991652	0	
2.2667	-7.23889	-0.220367	0	
2.2673	-9.39261	0.0734557	0	
2.2680	-10.29	0.991652	0	
2.2687	-7.56793	0.385642	0	
2.2693	-3.88866	-1.13856	0	
2.2700	-2.66224	-2.05676	0	
2.2707	-3.88866	-1.13856	0	
2.2713	-4.81596	0.0734557	0	
2.2720	-3.2904	0.991652	0	
2.2727	-2.66224	1.30384	0	
2.2733	-2.36311	0.0734557	0	
2.2740	-1.76485	-1.13856	0	
2.2747	-1.76485	-0.84474	0	
2.2753	-0.239302	-2.05676	0	
2.2760	1.91442	-3.89315	0	
2.2767	1.28625	-1.45075	0	
2.2773	-0.239302	0.991652	0	
2.2780	0.687994	-0.84474	0	
2.2787	-1.13669	-2.05676	0	
2.2793	-5.11508	-1.13856	0	
2.2800	-5.41421	-2.05676	0	
2.2807	-3.2904	-2.36895	0	
2.2813	-3.58953	-0.220367	0	
2.2820	-5.71334	1.59766	0	
2.2827	-6.04238	1.59766	0	
2.2833	-3.58953	-1.13856	0	
2.2840	-2.06398	-2.97495	0	
2.2847	-2.99128	-0.220367	0	
2.2853	-2.99128	3.43405	0	
2.2860	-3.2904	3.43405	0	
2.2867	-6.04238	2.51586	0	
2.2873	-8.46531	3.74624	0	
2.2880	-7.56793	2.82804	0	
2.2887	-6.64063	0.991652	0	
2.2893	-5.71334	2.51586	0	
2.2900	-5.71334	5.27044	0	
2.2907	-6.64063	4.35225	0	
2.2913	-7.23889	1.90985	0	
2.2920	-8.76444	3.74624	0	
2.2927	-8.76444	6.48246	0	
2.2933	-5.71334	4.95826	0	
2.2940	-5.71334	2.51586	0	
2.2947	-6.64063	2.82804	0	
2.2953	-2.99128	2.51586	0	
2.2960	-0.239302	0.679465	0	
2.2967	-2.99128	0.991652	0	
2.2973	-3.88866	0.0734557	0	
2.2980	-1.76485	-1.76294	0	
2.2987	-2.06398	0.385642	0	
2.2993	-4.51683	2.51586	0	
2.3000	-5.71334	0.679465	0	
2.3007	-5.71334	0.0734557	0	
2.3013	-3.88866	1.59766	0	
2.3020	-3.2904	1.59766	0	
2.3027	-4.81596	2.51586	0	
2.3033	-6.34151	3.43405	0	
2.3040	-6.93976	2.82804	0	
2.3047	-8.46531	2.20367	0	
2.3053	-9.69174	1.30384	0	
2.3060	-11.2173	0.679465	0	
2.3067	-13.6701	1.59766	0	
2.3073	-14.2684	2.51586	0	
2.3080	-13.9693	1.59766	0	
2.3087	-12.7428	3.43405	0	
2.3093	-9.99086	5.27044	0	
2.3100	-7.23889	3.43405	0	
2.3107	-6.64063	1.59766	0	
2.3113	-7.56793	3.74624	0	
2.3120	-8.46531	4.64607	0	
2.3127	-9.99086	2.51586	0	
2.3133	-8.76444	0.679465	0	
2.3140	-3.88866	0.0734557	0	
2.3147	-1.13669	0.0734557	0	
2.3153	-2.99128	0.679465	0	
2.3160	-3.88866	2.51586	0	
2.3167	-2.99128	2.82804	0	
2.3173	-1.76485	-0.220367	0	
2.3180	0.687994	-1.45075	0	
2.3187	3.11093	1.30384	0	
2.3193	2.8118	2.20367	0	
2.3200	1.58538	-0.220367	0	
2.3207	2.21354	-0.532554	0	
2.3213	3.11093	1.59766	0	
2.3220	2.51267	1.90985	0	
2.3227	0.687994	2.51586	0	
2.3233	0.0598255	5.27044	0	
2.3240	2.51267	4.64607	0	
2.3247	3.43997	3.43405	0	
2.3253	-0.53843	6.18864	0	
2.3260	-2.06398	7.40066	0	
2.3267	0.687994	5.56427	0	
2.3273	-1.76485	5.56427	0	
2.3280	-6.64063	6.18864	0	
2.3287	-3.88866	4.04006	0	
2.3293	-1.13669	1.59766	0	
2.3300	-4.81596	0.679465	0	
2.3307	-5.11508	0.679465	0	
2.3313	1.28625	2.20367	0	
2.3320	3.43997	2.51586	0	
2.3327	2.51267	0.991652	0	
2.3333	1.28625	0.0734557	0	
2.3340	-1.13669	0.679465	0	
2.3347	0.0598255	1.59766	0	
2.3353	2.8118	1.59766	0	
2.3360	1.28625	0.679465	0	
2.3367	-0.239302	-0.532554	0	
2.3373	3.11093	-0.84474	0	
2.3380	4.63648	-0.220367	0	
2.3387	3.43997	-0.220367	0	
2.3393	2.21354	-1.45075	0	
2.3400	0.0598255	-2.36895	0	
2.3407	0.687994	-0.220367	0	
2.3413	3.43997	0.679465	0	
2.3420	2.51267	-1.13856	0	
2.3427	0.0598255	-1.13856	0	
2.3433	0.687994	-1.45075	0	
2.3440	-0.53843	-2.66277	0	
2.3447	-2.99128	-1.76294	0	
2.3453	-0.53843	-0.532554	0	
2.3460	1.91442	-1.76294	0	
2.3467	-0.837557	-1.13856	0	
2.3473	-3.58953	0.991652	0	
2.3480	-1.76485	0.679465	0	
2.3487	-0.837557	-1.13856	0	
2.3493	-2.36311	-1.76294	0	
2.3500	-1.13669	-1.45075	0	
2.3507	1.58538	-0.84474	0	
2.3513	1.58538	-1.13856	0	
2.3520	0.687994	-1.13856	0	
2.3527	1.58538	-1.13856	0	
2.3533	2.8118	-2.97495	0	
2.3540	2.51267	-3.89315	0	
2.3547	2.51267	-2.05676	0	
2.3553	3.43997	-0.220367	0	
2.3560	6.16203	-0.220367	0	
2.3567	8.61488	0.0734557	0	
2.3573	8.914	-1.76294	0	
2.3580	9.54217	-4.49916	0	
2.3587	12.8924	-4.49916	0	
2.3593	13.8197	-2.66277	0	
2.3600	11.9651	-1.45075	0	
2.3607	13.1915	-1.13856	0	
2.3613	13.8197	-1.13856	0	
2.3620	10.4396	-1.76294	0	
2.3627	7.38845	-1.13856	0	
2.3633	7.68758	-0.532554	0	
2.3640	8.01662	0.385642	0	
2.3647	8.01662	0.0734557	0	
2.3653	7.08933	-2.97495	0	
2.3660	5.26465	-3.89315	0	
2.3667	4.33735	-0.220367	0	
2.3673	4.96552	1.59766	0	
2.3680	7.68758	-1.76294	0	
2.3687	10.1404	-2.66277	0	
2.3693	9.24304	-1.76294	0	
2.3700	5.8629	-3.89315	0	
2.3707	3.7391	-4.81135	0	
2.3713	4.33735	-2.97495	0	
2.3720	6.16203	-3.58096	0	
2.3727	5.26465	-4.81135	0	
2.3733	2.51267	-2.36895	0	
2.3740	2.8118	-2.05676	0	
2.3747	5.8629	-3.89315	0	
2.3753	5.26465	-2.05676	0	
2.3760	7.38845	-2.36895	0	
2.3767	12.5933	-6.33555	0	
2.3773	10.1404	-3.89315	0	
2.3780	6.7902	-0.532554	0	
2.3787	9.8413	-4.49916	0	
2.3793	11.0677	-5.10517	0	
2.3800	8.914	-2.05676	0	
2.3807	8.61488	-3.89315	0	
2.3813	6.16203	-5.41736	0	
2.3820	4.03822	-1.76294	0	
2.3827	6.16203	-1.13856	0	
2.3833	4.33735	-2.36895	0	
2.3840	2.21354	-0.84474	0	
2.3847	4.33735	-1.13856	0	
2.3853	2.8118	-2.05676	0	
2.3860	0.0598255	-0.84474	0	
2.3867	2.51267	-0.84474	0	
2.3873	1.58538	-0.532554	0	
2.3880	-4.18779	1.59766	0	
2.3887	-2.99128	0.679465	0	
2.3893	0.987121	-1.76294	0	
2.3900	1.58538	0.679465	0	
2.3907	2.21354	1.90985	0	
2.3913	2.51267	-0.532554	0	
2.3920	1.28625	-1.13856	0	
2.3927	0.687994	1.59766	0	
2.3933	0.0598255	2.20367	0	
2.3940	-0.239302	-1.13856	0	
2.3947	1.91442	-2.97495	0	
2.3953	2.51267	-2.05676	0	
2.3960	0.687994	-1.13856	0	
2.3967	0.388866	-3.58096	0	
2.3973	2.51267	-4.81135	0	
2.3980	3.11093	-3.28714	0	
2.3987	4.33735	-0.532554	0	
2.3993	4.63648	0.679465	0	
2.4000	2.8118	1.30384	0	
2.4007	2.51267	0.991652	0	
2.4013	3.7391	-0.220367	0	
2.4020	3.11093	-1.76294	0	
2.4027	1.58538	-0.84474	0	
2.4033	3.7391	0.679465	0	
2.4040	5.56377	0.385642	0	
2.4047	1.58538	0.679465	0	
2.4053	-1.13669	2.20367	0	
2.4060	2.51267	2.51586	0	
2.4067	3.7391	3.74624	0	
2.4073	-0.239302	4.35225	0	
2.4080	-2.99128	1.59766	0	
2.4087	-1.46573	0.679465	0	
2.4093	-0.53843	2.82804	0	
2.4100	-1.13669	1.59766	0	
2.4107	0.388866	-0.84474	0	
2.4113	1.58538	0.385642	0	
2.4120	-0.837557	1.59766	0	
2.4127	-2.36311	0.679465	0	
2.4133	-1.76485	-0.532554	0	
2.4140	-2.66224	-2.66277	0	
2.4147	-2.06398	-2.97495	0	
2.4153	3.11093	-2.05676	0	
2.4160	5.26465	-2.66277	0	
2.4167	3.43997	-3.28714	0	
2.4173	4.96552	-3.58096	0	
2.4180	5.26465	-4.81135	0	
2.4187	2.51267	-5.10517	0	
2.4193	2.51267	-3.58096	0	
2.4200	1.28625	-2.36895	0	
2.4207	-3.58953	-0.220367	0	
2.4213	-3.58953	1.90985	0	
2.4220	-0.239302	-0.84474	0	
2.4227	-2.06398	-4.20534	0	
2.4233	-4.81596	-3.28714	0	
2.4240	-5.41421	-0.84474	0	
2.4247	-6.64063	-0.220367	0	
2.4253	-7.56793	-0.84474	0	
2.4260	-7.86706	-0.84474	0	
2.4267	-6.64063	0.385642	0	
2.4273	-4.81596	1.59766	0	
2.4280	-3.58953	1.59766	0	
2.4287	-2.36311	0.679465	0	
2.4293	-0.239302	1.59766	0	
2.4300	-2.06398	0.991652	0	
2.4307	-6.64063	-1.13856	0	
2.4313	-5.11508	-2.05676	0	
2.4320	-1.13669	-0.220367	0	
2.4327	-2.66224	1.59766	0	
2.4333	-3.58953	0.679465	0	
2.4340	0.388866	-0.220367	0	
2.4347	3.43997	-0.84474	0	
2.4353	4.96552	-2.05676	0	
2.4360	6.7902	-2.97495	0	
2.4367	8.01662	-3.89315	0	
2.4373	7.08933	-4.81135	0	
2.4380	6.16203	-3.58096	0	
2.4387	5.56377	-1.45075	0	
2.4393	4.33735	-2.36895	0	
2.4400	4.03822	-2.97495	0	
2.4407	4.33735	-1.76294	0	
2.4413	2.8118	-2.05676	0	
2.4420	1.58538	-2.97495	0	
2.4427	2.51267	-1.45075	0	
2.4433	3.11093	-1.13856	0	
2.4440	2.21354	-2.05676	0	
2.4447	2.21354	-1.76294	0	
2.4453	1.91442	-0.84474	0	
2.4460	-0.837557	-1.45075	0	
2.4467	-2.06398	-1.76294	0	
2.4473	0.0598255	-0.84474	0	
2.4480	1.91442	-0.220367	0	
2.4487	2.21354	-1.13856	0	
2.4493	3.43997	-2.36895	0	
2.4500	4.33735	-1.45075	0	
2.4507	3.7391	0.679465	0	
2.4513	4.03822	0.0734557	0	
2.4520	5.26465	-0.84474	0	
2.4527	4.63648	-0.220367	0	
2.4533	3.43997	-0.220367	0	
2.4540	4.33735	-1.13856	0	
2.4547	6.16203	-1.45075	0	
2.4553	5.8629	-2.05676	0	
2.4560	4.33735	-3.89315	0	
2.4567	3.7391	-4.20534	0	
2.4573	3.43997	-2.97495	0	
2.4580	3.43997	-2.05676	0	
2.4587	2.8118	-2.66277	0	
2.4593	0.687994	-2.66277	0	
2.4600	-0.53843	-1.45075	0	
2.4607	1.58538	-2.97495	0	
2.4613	3.43997	-4.81135	0	
2.4620	2.8118	-4.20534	0	
2.4627	1.91442	-2.05676	0	
2.4633	0.388866	-2.05676	0	
2.4640	-0.239302	-3.89315	0	
2.4647	0.388866	-5.72954	0	
2.4653	-2.06398	-3.89315	0	
2.4660	-5.41421	-1.13856	0	
2.4667	-6.64063	-1.13856	0	
2.4673	-8.16618	-2.97495	0	
2.4680	-8.76444	-2.36895	0	
2.4687	-6.64063	-1.45075	0	
2.4693	-6.34151	-2.36895	0	
2.4700	-6.64063	-1.45075	0	
2.4707	-2.99128	0.679465	0	
2.4713	-1.13669	0.679465	0	
2.4720	-5.71334	-0.532554	0	
2.4727	-7.23889	-2.05676	0	
2.4733	-5.11508	-3.28714	0	
2.4740	-3.58953	-3.58096	0	
2.4747	-1.13669	-2.97495	0	
2.4753	0.388866	-2.97495	0	
2.4760	-0.239302	-2.97495	0	
2.4767	1.58538	-3.28714	0	
2.4773	3.43997	-3.89315	0	
2.4780	1.28625	-3.89315	0	
2.4787	0.388866	-4.81135	0	
2.4793	1.91442	-5.10517	0	
2.4800	0.687994	-2.97495	0	
2.4807	-1.13669	0.0734557	0	
2.4813	-1.13669	-0.84474	0	
2.4820	-3.2904	-3.89315	0	
2.4827	-6.93976	-3.28714	0	
2.4833	-7.56793	-0.220367	0	
2.4840	-6.34151	-1.13856	0	
2.4847	-5.71334	-3.58096	0	
2.4853	-4.81596	-3.89315	0	
2.4860	-3.58953	-2.97495	0	
2.4867	-3.88866	-2.66277	0	
2.4873	-5.11508	-2.05676	0	
2.4880	-5.41421	-1.76294	0	
2.4887	-4.81596	-1.13856	0	
2.4893	-4.81596	-0.220367	0	
2.4900	-4.18779	0.0734557	0	
2.4907	-2.66224	1.30384	0	
2.4913	-4.81596	2.20367	0	
2.4920	-9.39261	0.991652	0	
2.4927	-8.46531	0.679465	0	
2.4933	-2.06398	0.679465	0	
2.4940	0.687994	-2.05676	0	
2.4947	-0.837557	-3.89315	0	
2.4953	0.687994	-1.13856	0	
2.4960	2.8118	0.0734557	0	
2.4967	1.58538	-3.89315	0	
2.4973	0.0598255	-5.72954	0	
2.4980	-0.239302	-2.05676	0	
2.4987	-2.36311	-1.13856	0	
2.4993	-3.58953	-4.49916	0	
2.5000	-2.36311	-5.41736	0	
2.5007	-2.66224	-3.89315	0	
2.5013	-3.2904	-3.89315	0	
2.5020	-3.88866	-2.66277	0	
2.5027	-4.81596	-0.220367	0	
2.5033	-1.76485	-2.36895	0	
2.5040	1.91442	-4.81135	0	
2.5047	-1.76485	-2.97495	0	
2.5053	-6.64063	-2.97495	0	
2.5060	-4.18779	-4.49916	0	
2.5067	-2.06398	-2.66277	0	
2.5073	-3.2904	-1.13856	0	
2.5080	-2.06398	-2.05676	0	
2.5087	-1.46573	-1.13856	0	
2.5093	-2.36311	-0.220367	0	
2.5100	-0.239302	-2.36895	0	
2.5107	-0.239302	-2.66277	0	
2.5113	-4.51683	-0.220367	0	
2.5120	-2.99128	0.0734557	0	
2.5127	1.58538	-1.13856	0	
2.5133	-0.239302	-1.45075	0	
2.5140	-2.99128	-1.13856	0	
2.5147	-0.239302	0.991652	0	
2.5153	1.28625	1.59766	0	
2.5160	-0.239302	-1.13856	0	
2.5167	-0.53843	-2.05676	0	
2.5173	0.687994	-1.13856	0	
2.5180	1.58538	-2.97495	0	
2.5187	0.0598255	-3.89315	0	
2.5193	-2.99128	-2.05676	0	
2.5200	-2.06398	-2.36895	0	
2.5207	1.58538	-3.89315	0	
2.5213	2.51267	-3.89315	0	
2.5220	2.8118	-4.49916	0	
2.5227	2.51267	-3.89315	0	
2.5233	0.0598255	-1.13856	0	
2.5240	0.388866	-2.05676	0	
2.5247	1.91442	-4.20534	0	
2.5253	-1.13669	-1.76294	0	
2.5260	-4.81596	1.30384	0	
2.5267	-3.88866	0.0734557	0	
2.5273	-2.99128	-0.532554	0	
2.5280	-3.2904	0.679465	0	
2.5287	-1.46573	-0.532554	0	
2.5293	-1.13669	-1.45075	0	
2.5300	-2.06398	0.679465	0	
2.5307	-0.53843	0.991652	0	
2.5313	-1.13669	-1.45075	0	
2.5320	-3.88866	-0.532554	0	
2.5327	-1.13669	-0.220367	0	
2.5333	0.987121	-3.58096	0	
2.5340	-2.06398	-3.89315	0	
2.5347	-1.76485	-1.45075	0	
2.5353	2.51267	-1.45075	0	
2.5360	1.91442	-0.532554	0	
2.5367	0.388866	0.679465	0	
2.5373	1.58538	-2.05676	0	
2.5380	1.28625	-3.28714	0	
2.5387	0.687994	-1.13856	0	
2.5393	1.58538	-1.45075	0	
2.5400	-0.837557	-1.45075	0	
2.5407	-4.81596	1.30384	0	
2.5413	-3.88866	0.385642	0	
2.5420	-1.13669	-2.05676	0	
2.5427	-1.76485	0.679465	0	
2.5433	-3.58953	3.74624	0	
2.5440	-2.99128	2.20367	0	
2.5447	-2.66224	0.0734557	0	
2.5453	-5.71334	0.679465	0	
2.5460	-8.76444	1.90985	0	
2.5467	-6.64063	0.991652	0	
2.5473	-3.2904	-1.13856	0	
2.5480	-4.18779	-1.45075	0	
2.5487	-5.71334	-0.220367	0	
2.5493	-3.58953	-0.84474	0	
2.5500	-0.239302	-2.05676	0	
2.5507	-1.13669	-1.13856	0	
2.5513	-5.41421	0.0734557	0	
2.5520	-4.81596	0.679465	0	
2.5527	-0.53843	0.991652	0	
2.5533	0.687994	-0.532554	0	
2.5540	0.0598255	-1.76294	0	
2.5547	2.21354	-0.220367	0	
2.5553	4.03822	0.385642	0	
2.5560	3.11093	-2.97495	0	
2.5567	3.7391	-3.89315	0	
2.5573	6.16203	-3.28714	0	
2.5580	6.16203	-3.58096	0	
2.5587	5.26465	-3.28714	0	
2.5593	4.03822	-2.05676	0	
2.5600	2.8118	-2.97495	0	
2.5607	2.51267	-3.89315	0	
2.5613	2.8118	-3.89315	0	
2.5620	4.03822	-2.36895	0	
2.5627	6.16203	0.679465	0	
2.5633	5.8629	0.385642	0	
2.5640	2.8118	-1.45075	0	
2.5647	2.51267	0.991652	0	
2.5653	2.51267	4.35225	0	
2.5660	-0.837557	3.43405	0	
2.5667	-2.99128	3.43405	0	
2.5673	-1.13669	4.64607	0	
2.5680	-0.239302	2.20367	0	
2.5687	-0.239302	1.59766	0	
2.5693	1.28625	4.35225	0	
2.5700	1.28625	2.20367	0	
2.5707	0.687994	-2.05676	0	
2.5713	0.0598255	-1.13856	0	
2.5720	0.388866	1.59766	0	
2.5727	2.51267	1.59766	0	
2.5733	4.33735	0.679465	0	
2.5740	3.11093	-0.532554	0	
2.5747	1.58538	-1.76294	0	
2.5753	1.58538	0.0734557	0	
2.5760	1.28625	2.82804	0	
2.5767	0.987121	0.385642	0	
2.5773	3.7391	-2.66277	0	
2.5780	5.56377	-0.532554	0	
2.5787	3.43997	0.679465	0	
2.5793	1.58538	-1.45075	0	
2.5800	1.58538	-1.45075	0	
2.5807	-0.239302	0.385642	0	
2.5813	-2.36311	0.0734557	0	
2.5820	-2.06398	0.679465	0	
2.5827	-1.46573	2.20367	0	
2.5833	-1.76485	0.0734557	0	
2.5840	-1.13669	-1.13856	0	
2.5847	-1.13669	1.90985	0	
2.5853	-3.88866	3.43405	0	
2.5860	-5.71334	2.20367	0	
2.5867	-5.11508	3.12187	0	
2.5873	-5.71334	3.74624	0	
2.5880	-6.64063	1.59766	0	
2.5887	-5.71334	0.385642	0	
2.5893	-6.04238	0.991652	0	
2.5900	-5.11508	0.991652	0	
2.5907	-2.99128	1.59766	0	
2.5913	-5.71334	2.20367	0	
2.5920	-9.69174	1.59766	0	
2.5927	-7.86706	1.90985	0	
2.5933	-2.99128	2.20367	0	
2.5940	-0.837557	0.679465	0	
2.5947	-0.53843	-0.532554	0	
2.5953	-0.239302	-1.76294	0	
2.5960	0.987121	-1.13856	0	
2.5967	0.987121	0.991652	0	
2.5973	-1.46573	0.385642	0	
2.5980	-2.36311	-3.58096	0	
2.5987	-0.239302	-3.28714	0	
2.5993	-0.239302	-0.532554	0	
2.6000	-1.46573	-1.45075	0	
2.6007	-0.239302	-1.45075	0	
2.6013	0.687994	0.679465	0	
2.6020	0.687994	-0.84474	0	
2.6027	0.388866	-2.05676	0	
2.6033	0.0598255	-0.220367	0	
2.6040	-1.13669	1.59766	0	
2.6047	-2.36311	2.51586	0	
2.6053	-2.99128	4.64607	0	
2.6060	-0.239302	4.64607	0	
2.6067	2.21354	0.991652	0	
2.6073	0.687994	-0.84474	0	
2.6080	-2.06398	0.991652	0	
2.6087	-2.36311	1.90985	0	
2.6093	-2.99128	1.90985	0	
2.6100	-4.18779	3.43405	0	
2.6107	-4.18779	3.43405	0	
2.6113	-5.41421	0.679465	0	
2.6120	-8.16618	1.59766	0	
2.6127	-8.46531	5.27044	0	
2.6133	-6.34151	4.35225	0	
2.6140	-5.41421	1.59766	0	
2.6147	-5.41421	1.59766	0	
2.6153	-3.88866	0.991652	0	
2.6160	-3.58953	-1.13856	0	
2.6167	-5.71334	-0.220367	0	
2.6173	-5.71334	1.30384	0	
2.6180	-3.88866	1.30384	0	
2.6187	-3.88866	0.991652	0	
2.6193	-3.88866	-0.84474	0	
2.6200	-1.46573	-2.66277	0	
2.6207	-1.13669	-0.220367	0	
2.6213	-2.99128	2.20367	0	
2.6220	-4.51683	-0.220367	0	
2.6227	-6.93976	-0.84474	0	
2.6233	-8.46531	2.51586	0	
2.6240	-4.81596	3.43405	0	
2.6247	-4.18779	1.59766	0	
2.6253	-7.56793	-0.532554	0	
2.6260	-4.81596	-1.13856	0	
2.6267	-0.239302	0.679465	0	
2.6273	-3.88866	2.51586	0	
2.6280	-6.64063	1.59766	0	
2.6287	-4.81596	0.385642	0	
2.6293	-3.88866	0.991652	0	
2.6300	-2.06398	0.991652	0	
2.6307	0.987121	-0.220367	0	
2.6313	1.91442	-0.220367	0	
2.6320	0.687994	-0.532554	0	
2.6327	-1.46573	-2.66277	0	
2.6333	-3.58953	-2.66277	0	
2.6340	-0.837557	-0.84474	0	
2.6347	3.11093	0.0734557	0	
2.6353	2.51267	-1.13856	0	
2.6360	1.91442	-3.58096	0	
2.6367	3.43997	-4.49916	0	
2.6373	2.21354	-3.28714	0	
2.6380	1.58538	-2.36895	0	
2.6387	4.03822	-3.89315	0	
2.6393	3.43997	-3.58096	0	
2.6400	-0.239302	-2.66277	0	
2.6407	0.388866	-4.20534	0	
2.6413	1.91442	-4.49916	0	
2.6420	0.987121	-2.05676	0	
2.6427	1.28625	-1.45075	0	
2.6433	2.51267	-2.05676	0	
2.6440	0.987121	-0.532554	0	
2.6447	-1.13669	0.0734557	0	
2.6453	-2.66224	-0.220367	0	
2.6460	-3.58953	-0.220367	0	
2.6467	-2.66224	-0.220367	0	
2.6473	-2.36311	0.991652	0	
2.6480	-2.06398	4.35225	0	
2.6487	0.0598255	4.95826	0	
2.6493	0.687994	3.43405	0	
2.6500	-1.13669	2.51586	0	
2.6507	-0.53843	2.82804	0	
2.6513	0.987121	2.82804	0	
2.6520	0.0598255	1.59766	0	
2.6527	-1.46573	0.679465	0	
2.6533	-2.06398	2.20367	0	
2.6540	-2.06398	1.59766	0	
2.6547	0.388866	-2.05676	0	
2.6553	1.58538	-2.36895	0	
2.6560	1.58538	-0.532554	0	
2.6567	3.43997	-0.84474	0	
2.6573	4.63648	-1.76294	0	
2.6580	4.33735	-2.66277	0	
2.6587	3.43997	-3.28714	0	
2.6593	1.91442	-2.36895	0	
2.6600	0.687994	-0.220367	0	
2.6607	1.28625	0.679465	0	
2.6613	0.388866	0.679465	0	
2.6620	0.388866	1.59766	0	
2.6627	1.91442	2.51586	0	
2.6633	-1.76485	2.51586	0	
2.6640	-6.04238	0.679465	0	
2.6647	-2.36311	0.991652	0	
2.6653	-0.239302	1.90985	0	
2.6660	-5.71334	0.991652	0	
2.6667	-8.46531	-0.220367	0	
2.6673	-6.64063	0.679465	0	
2.6680	-5.41421	1.59766	0	
2.6687	-4.81596	1.59766	0	
2.6693	-4.81596	2.82804	0	
2.6700	-4.81596	4.35225	0	
2.6707	-0.53843	3.43405	0	
2.6713	2.21354	3.12187	0	
2.6720	0.0598255	3.74624	0	
2.6727	0.388866	3.43405	0	
2.6733	2.21354	2.82804	0	
2.6740	1.28625	4.04006	0	
2.6747	1.28625	4.04006	0	
2.6753	2.51267	2.82804	0	
2.6760	2.21354	2.51586	0	
2.6767	3.11093	0.679465	0	
2.6773	4.63648	-1.13856	0	
2.6780	2.51267	0.0734557	0	
2.6787	0.687994	1.59766	0	
2.6793	0.987121	0.679465	0	
2.6800	1.28625	0.679465	0	
2.6807	0.388866	2.51586	0	
2.6813	-0.239302	3.43405	0	
2.6820	-1.76485	2.51586	0	
2.6827	-3.2904	2.51586	0	
2.6833	-3.88866	3.74624	0	
2.6840	-3.88866	4.35225	0	
2.6847	-5.71334	4.95826	0	
2.6853	-7.86706	7.40066	0	
2.6860	-6.93976	7.08847	0	
2.6867	-6.04238	3.12187	0	
2.6873	-9.69174	4.35225	0	
2.6880	-11.5164	8.00667	0	
2.6887	-8.46531	4.95826	0	
2.6893	-7.56793	2.20367	0	
2.6900	-9.69174	5.27044	0	
2.6907	-9.39261	8.00667	0	
2.6913	-9.39261	7.08847	0	
2.6920	-9.09348	4.95826	0	
2.6927	-7.56793	2.82804	0	
2.6933	-6.93976	2.20367	0	
2.6940	-5.71334	3.43405	0	
2.6947	-2.36311	4.35225	0	
2.6953	-1.46573	2.82804	0	
2.6960	-3.58953	2.51586	0	
2.6967	-3.2904	3.43405	0	
2.6973	-0.837557	3.12187	0	
2.6980	0.687994	2.51586	0	
2.6987	0.687994	2.51586	0	
2.6993	0.687994	2.82804	0	
2.7000	0.687994	3.74624	0	
2.7007	-1.13669	5.56427	0	
2.7013	-3.88866	5.56427	0	
2.7020	-3.88866	4.64607	0	
2.7027	-1.76485	4.35225	0	
2.7033	-2.06398	3.43405	0	
2.7040	-1.46573	2.51586	0	
2.7047	-0.837557	4.04006	0	
2.7053	-3.88866	4.64607	0	
2.7060	-5.71334	4.35225	0	
2.7067	-6.64063	4.04006	0	
2.7073	-9.99086	3.43405	0	
2.7080	-9.99086	3.12187	0	
2.7087	-6.04238	4.95826	0	
2.7093	-6.34151	6.18864	0	
2.7100	-7.56793	4.95826	0	
2.7107	-5.11508	3.43405	0	
2.7113	-5.11508	4.35225	0	
2.7120	-6.93976	4.64607	0	
2.7127	-6.64063	3.43405	0	
2.7133	-7.23889	2.51586	0	
2.7140	-6.34151	2.51586	0	
2.7147	-2.66224	0.991652	0	
2.7153	-0.837557	0.0734557	0	
2.7160	-0.53843	1.90985	0	
2.7167	-0.239302	2.51586	0	
2.7173	-1.46573	-0.84474	0	
2.7180	-0.239302	-2.05676	0	
2.7187	1.28625	-0.532554	0	
2.7193	-1.76485	-0.532554	0	
2.7200	-3.88866	0.0734557	0	
2.7207	-2.99128	3.12187	0	
2.7213	-3.88866	3.74624	0	
2.7220	-2.66224	2.51586	0	
2.7227	-0.239302	3.12187	0	
2.7233	-3.58953	3.43405	0	
2.7240	-6.64063	2.51586	0	
2.7247	-2.36311	2.82804	0	
2.7253	-0.239302	2.51586	0	
2.7260	-2.36311	0.991652	0	
2.7267	-1.46573	1.90985	0	
2.7273	-0.239302	3.43405	0	
2.7280	-2.99128	2.51586	0	
2.7287	-4.81596	2.20367	0	
2.7293	-5.41421	2.51586	0	
2.7300	-8.46531	0.991652	0	
2.7307	-8.76444	0.0734557	0	
2.7313	-5.71334	0.679465	0	
2.7320	-5.11508	0.679465	0	
2.7327	-4.81596	2.51586	0	
2.7333	-0.837557	5.27044	0	
2.7340	1.58538	2.82804	0	
2.7347	-0.239302	-0.220367	0	
2.7353	-1.13669	1.59766	0	
2.7360	-0.239302	3.43405	0	
2.7367	1.28625	1.59766	0	
2.7373	2.51267	0.0734557	0	
2.7380	1.58538	0.679465	0	
2.7387	0.388866	0.991652	0	
2.7393	0.687994	0.991652	0	
2.7400	1.58538	0.991652	0	
2.7407	2.21354	0.679465	0	
2.7413	2.51267	0.0734557	0	
2.7420	1.58538	0.0734557	0	
2.7427	0.0598255	0.679465	0	
2.7433	2.21354	0.679465	0	
2.7440	3.43997	-1.13856	0	
2.7447	2.51267	-0.532554	0	
2.7453	2.51267	3.43405	0	
2.7460	2.51267	4.35225	0	
2.7467	1.28625	2.51586	0	
2.7473	1.58538	2.51586	0	
2.7480	1.28625	2.82804	0	
2.7487	-0.837557	0.679465	0	
2.7493	1.58538	-0.220367	0	
2.7500	5.26465	1.30384	0	
2.7507	4.33735	0.991652	0	
2.7513	2.21354	-1.13856	0	
2.7520	2.8118	-0.84474	0	
2.7527	4.33735	0.385642	0	
2.7533	5.8629	-2.05676	0	
2.7540	7.08933	-3.89315	0	
2.7547	5.56377	-1.76294	0	
2.7553	5.26465	-1.13856	0	
2.7560	8.914	-4.81135	0	
2.7567	11.3669	-6.62937	0	
2.7573	8.01662	-4.81135	0	
2.7580	6.16203	-2.97495	0	
2.7587	8.31575	-2.36895	0	
2.7593	8.01662	-2.36895	0	
2.7600	5.26465	-4.81135	0	
2.7607	6.7902	-7.54757	0	
2.7613	8.914	-7.85976	0	
2.7620	8.61488	-5.72954	0	
2.7627	9.54217	-6.02337	0	
2.7633	11.666	-7.54757	0	
2.7640	9.54217	-6.94156	0	
2.7647	6.7902	-5.72954	0	
2.7653	7.08933	-4.81135	0	
2.7660	7.38845	-2.66277	0	
2.7667	8.61488	-2.66277	0	
2.7673	9.8413	-7.25375	0	
2.7680	8.31575	-8.46577	0	
2.7687	8.01662	-6.33555	0	
2.7693	10.1404	-7.54757	0	
2.7700	9.8413	-7.85976	0	
2.7707	8.01662	-5.72954	0	
2.7713	8.914	-6.02337	0	
2.7720	8.914	-5.72954	0	
2.7727	7.08933	-3.89315	0	
2.7733	7.08933	-6.33555	0	
2.7740	8.01662	-8.46577	0	
2.7747	8.01662	-5.72954	0	
2.7753	9.24304	-5.72954	0	
2.7760	11.0677	-5.72954	0	
2.7767	10.4396	-2.97495	0	
2.7773	8.914	-3.89315	0	
2.7780	8.914	-8.46577	0	
2.7787	9.24304	-9.38396	0	
2.7793	8.31575	-8.17194	0	
2.7800	7.38845	-7.85976	0	
2.7807	7.68758	-7.85976	0	
2.7813	8.01662	-7.25375	0	
2.7820	7.38845	-5.10517	0	
2.7827	6.7902	-3.58096	0	
2.7833	6.16203	-2.97495	0	
2.7840	5.8629	-2.97495	0	
2.7847	4.96552	-3.58096	0	
2.7853	2.21354	-4.81135	0	
2.7860	-0.53843	-3.89315	0	
2.7867	-0.239302	-3.58096	0	
2.7873	0.687994	-5.72954	0	
2.7880	-0.837557	-5.41736	0	
2.7887	-1.13669	-4.20534	0	
2.7893	0.687994	-5.72954	0	
2.7900	1.58538	-5.72954	0	
2.7907	2.51267	-2.97495	0	
2.7913	3.11093	-3.28714	0	
2.7920	1.58538	-4.49916	0	
2.7927	0.388866	-3.89315	0	
2.7933	2.51267	-4.20534	0	
2.7940	4.33735	-4.20534	0	
2.7947	3.11093	-1.45075	0	
2.7953	3.11093	-1.13856	0	
2.7960	6.16203	-5.72954	0	
2.7967	8.61488	-6.94156	0	
2.7973	9.54217	-4.49916	0	
2.7980	8.914	-4.20534	0	
2.7987	7.38845	-5.72954	0	
2.7993	8.01662	-4.81135	0	
2.8000	8.61488	-3.28714	0	
2.8007	7.38845	-3.28714	0	
2.8013	8.914	-3.89315	0	
2.8020	12.8924	-4.49916	0	
2.8027	11.666	-5.72954	0	
2.8033	7.38845	-6.02337	0	
2.8040	6.7902	-4.81135	0	
2.8047	5.8629	-2.66277	0	
2.8053	4.33735	-1.45075	0	
2.8060	5.26465	-1.13856	0	
2.8067	5.26465	-0.84474	0	
2.8073	2.51267	-1.45075	0	
2.8080	4.63648	-3.58096	0	
2.8087	6.49107	-3.89315	0	
2.8093	3.43997	-2.36895	0	
2.8100	3.11093	-2.97495	0	
2.8107	5.26465	-3.89315	0	
2.8113	2.51267	-2.97495	0	
2.8120	-0.239302	-1.13856	0	
2.8127	0.0598255	0.385642	0	
2.8133	-1.46573	-0.220367	0	
2.8140	-1.46573	-2.36895	0	
2.8147	2.51267	-2.97495	0	
2.8153	3.43997	-0.84474	0	
2.8160	0.687994	-0.84474	0	
2.8167	-0.239302	-2.36895	0	
2.8173	-0.53843	-0.532554	0	
2.8180	-1.13669	-0.220367	0	
2.8187	0.388866	-3.58096	0	
2.8193	1.28625	-3.89315	0	
2.8200	1.91442	-0.532554	0	
2.8207	3.7391	0.0734557	0	
2.8213	3.11093	-2.05676	0	
2.8220	1.58538	-2.36895	0	
2.8227	2.8118	-2.05676	0	
2.8233	3.11093	-2.05676	0	
2.8240	-1.13669	-2.36895	0	
2.8247	-3.88866	-1.76294	0	
2.8253	-3.58953	-0.220367	0	
2.8260	-5.71334	1.30384	0	
2.8267	-7.56793	0.385642	0	
2.8273	-7.86706	-0.532554	0	
2.8280	-7.56793	-1.13856	0	
2.8287	-4.81596	-2.36895	0	
2.8293	-3.2904	-1.13856	0	
2.8300	-5.71334	2.51586	0	
2.8307	-6.64063	2.20367	0	
2.8313	-5.71334	-1.13856	0	
2.8320	-6.93976	-0.220367	0	
2.8327	-5.71334	1.30384	0	
2.8333	-2.06398	0.0734557	0	
2.8340	-2.99128	-0.220367	0	
2.8347	-3.88866	-1.13856	0	
2.8353	-2.36311	-3.89315	0	
2.8360	-2.06398	-2.36895	0	
2.8367	-1.76485	1.30384	0	
2.8373	0.687994	0.0734557	0	
2.8380	0.0598255	-2.05676	0	
2.8387	-2.99128	-0.84474	0	
2.8393	-3.58953	-0.220367	0	
2.8400	-2.06398	-2.05676	0	
2.8407	-2.06398	-2.97495	0	
2.8413	-2.99128	-2.97495	0	
2.8420	-2.99128	-2.36895	0	
2.8427	-3.88866	0.0734557	0	
2.8433	-5.71334	0.679465	0	
2.8440	-5.71334	-1.45075	0	
2.8447	-4.51683	-2.97495	0	
2.8453	-6.64063	-1.76294	0	
2.8460	-7.56793	-2.97495	0	
2.8467	-3.2904	-3.89315	0	
2.8473	-2.36311	-1.13856	0	
2.8480	-5.71334	1.30384	0	
2.8487	-5.41421	0.679465	0	
2.8493	-4.81596	1.30384	0	
2.8500	-6.64063	0.991652	0	
2.8507	-6.04238	-0.84474	0	
2.8513	-3.88866	0.679465	0	
2.8520	-3.2904	2.82804	0	
2.8527	-2.99128	0.0734557	0	
2.8533	-4.81596	-2.05676	0	
2.8540	-4.81596	-0.84474	0	
2.8547	-0.53843	-0.220367	0	
2.8553	1.28625	0.0734557	0	
2.8560	-1.13669	0.991652	0	
2.8567	-1.13669	-0.220367	0	
2.8573	0.0598255	-0.84474	0	
2.8580	-0.239302	0.385642	0	
2.8587	0.0598255	-1.13856	0	
2.8593	1.28625	-2.66277	0	
2.8600	2.51267	-1.13856	0	
2.8607	2.8118	-1.13856	0	
2.8613	2.21354	-2.97495	0	
2.8620	1.28625	-2.36895	0	
2.8627	0.987121	-0.220367	0	
2.8633	-0.53843	0.679465	0	
2.8640	-3.88866	1.30384	0	
2.8647	-4.81596	1.90985	0	
2.8653	-2.36311	1.90985	0	
2.8660	-1.13669	0.385642	0	
2.8667	-2.99128	-0.84474	0	
2.8673	-4.81596	-0.220367	0	
2.8680	-5.11508	0.991652	0	
2.8687	-4.51683	2.20367	0	
2.8693	-2.66224	1.59766	0	
2.8700	-0.837557	-1.13856	0	
2.8707	-1.13669	-2.05676	0	
2.8713	-2.06398	-0.220367	0	
2.8720	-2.06398	0.679465	0	
2.8727	-0.837557	1.30384	0	
2.8733	0.388866	0.679465	0	
2.8740	1.58538	-2.97495	0	
2.8747	2.8118	-4.49916	0	
2.8753	3.43997	-2.36895	0	
2.8760	2.51267	-1.45075	0	
2.8767	2.51267	-2.05676	0	
2.8773	4.96552	-0.532554	0	
2.8780	5.8629	-0.532554	0	
2.8787	3.7391	-2.97495	0	
2.8793	2.51267	-2.05676	0	
2.8800	3.43997	-0.220367	0	
2.8807	4.33735	-1.13856	0	
2.8813	1.91442	-2.66277	0	
2.8820	-0.837557	-3.58096	0	
2.8827	0.0598255	-3.58096	0	
2.8833	0.687994	-1.45075	0	
2.8840	-0.239302	-1.13856	0	
2.8847	-0.53843	-3.89315	0	
2.8853	-2.99128	-3.89315	0	
2.8860	-7.56793	-0.532554	0	
2.8867	-7.23889	0.385642	0	
2.8873	-3.88866	-0.532554	0	
2.8880	-5.71334	0.679465	0	
2.8887	-8.46531	0.991652	0	
2.8893	-8.46531	-0.84474	0	
2.8900	-7.56793	-2.05676	0	
2.8907	-4.81596	-2.05676	0	
2.8913	-2.36311	0.0734557	0	
2.8920	-2.99128	2.51586	0	
2.8927	-1.46573	0.679465	0	
2.8933	1.91442	-2.05676	0	
2.8940	0.987121	-1.13856	0	
2.8947	-0.239302	-0.220367	0	
2.8953	1.58538	-1.45075	0	
2.8960	1.28625	-1.13856	0	
2.8967	0.0598255	-0.84474	0	
2.8973	1.58538	-0.532554	0	
2.8980	0.687994	2.20367	0	
2.8987	-2.66224	2.51586	0	
2.8993	-0.53843	-1.13856	0	
2.9000	2.51267	-1.13856	0	
2.9007	0.687994	2.51586	0	
2.9013	0.687994	1.59766	0	
