0.0007	1.90836	-1.38851	0	
0.0013	5.26935	-2.91995	0	
0.0020	5.26935	-3.53253	0	
0.0027	0.683591	-2.00109	0	
0.0033	-3.58885	-2.91995	0	
0.0040	-6.94984	-6.26871	0	
0.0047	-12.7319	-5.06397	0	
0.0053	-15.1814	-1.6948	0	
0.0060	-7.26315	-2.00109	0	
0.0067	1.59505	-3.53253	0	
0.0073	1.59505	-2.91995	0	
0.0080	-0.227864	-1.38851	0	
0.0087	0.683591	-1.08222	0	
0.0093	-0.227864	-2.00109	0	
0.0100	0.0854489	-1.08222	0	
0.0107	4.35789	2.26654	0	
0.0113	4.95603	1.96025	0	
0.0120	0.996903	-0.163354	0	
0.0127	-0.854489	0.735093	0	
0.0133	-2.05077	1.34767	0	
0.0140	-3.58885	1.34767	0	
0.0147	-1.13932	2.57282	0	
0.0153	0.683591	2.26654	0	
0.0160	-2.05077	1.65396	0	
0.0167	-6.03839	2.87911	0	
0.0173	-7.54798	2.87911	0	
0.0180	-4.18699	1.04138	0	
0.0187	0.370278	0.122515	0	
0.0193	-1.45263	0.122515	0	
0.0200	-6.03839	0.428804	0	
0.0207	-4.18699	0.735093	0	
0.0213	-2.05077	-0.163354	0	
0.0220	-3.90216	-2.61366	0	
0.0227	-3.58885	-2.91995	0	
0.0233	-2.36409	-0.469643	0	
0.0240	-2.99071	1.04138	0	
0.0247	-1.76594	-0.163354	0	
0.0253	0.996903	-0.775931	0	
0.0260	1.59505	0.122515	0	
0.0267	2.5065	-1.08222	0	
0.0273	0.996903	-2.91995	0	
0.0280	-1.76594	-1.6948	0	
0.0287	-0.541176	-2.00109	0	
0.0293	2.22167	-2.91995	0	
0.0300	2.5065	-0.469643	0	
0.0307	-0.227864	0.735093	0	
0.0313	-4.50031	-2.30737	0	
0.0320	-4.81362	-2.00109	0	
0.0327	-0.227864	2.57282	0	
0.0333	-1.45263	4.10427	0	
0.0340	-8.45944	4.10427	0	
0.0347	-11.2223	3.49169	0	
0.0353	-12.4471	-0.163354	0	
0.0360	-15.4947	-1.08222	0	
0.0367	-13.9566	2.57282	0	
0.0373	-7.54798	4.41056	0	
0.0380	-2.99071	1.96025	0	
0.0387	-0.227864	0.428804	0	
0.0393	1.90836	0.735093	0	
0.0400	5.86749	1.04138	0	
0.0407	14.4124	1.96025	0	
0.0413	18.0867	2.57282	0	
0.0420	11.3647	1.34767	0	
0.0427	4.64272	-1.08222	0	
0.0433	5.86749	-2.91995	0	
0.0440	4.64272	-2.00109	0	
0.0447	-1.13932	-0.163354	0	
0.0453	-2.36409	-0.469643	0	
0.0460	0.683591	-2.00109	0	
0.0467	-0.854489	-0.469643	0	
0.0473	-4.81362	2.26654	0	
0.0480	-8.45944	1.96025	0	
0.0487	-13.0452	-0.163354	0	
0.0493	-13.3585	0.428804	0	
0.0500	-9.08606	1.65396	0	
0.0507	-5.12693	1.04138	0	
0.0513	-0.541176	-0.469643	0	
0.0520	5.86749	-1.38851	0	
0.0527	6.1808	0.428804	0	
0.0533	2.5065	1.96025	0	
0.0540	2.5065	0.735093	0	
0.0547	3.73127	0.735093	0	
0.0553	3.13313	1.65396	0	
0.0560	2.5065	-1.08222	0	
0.0567	2.5065	-2.91995	0	
0.0573	3.41795	0.122515	0	
0.0580	6.1808	1.65396	0	
0.0587	4.04458	-1.08222	0	
0.0593	-0.227864	-1.6948	0	
0.0600	-2.05077	0.428804	0	
0.0607	-2.05077	0.735093	0	
0.0613	-2.05077	-1.08222	0	
0.0620	0.370278	-2.00109	0	
0.0627	2.5065	-1.08222	0	
0.0633	3.41795	-0.469643	0	
0.0640	4.64272	-0.163354	0	
0.0647	2.81981	-0.163354	0	
0.0653	-0.227864	-0.469643	0	
0.0660	0.683591	-0.775931	0	
0.0667	1.28173	-0.163354	0	
0.0673	-3.90216	-1.08222	0	
0.0680	-10.3108	-1.08222	0	
0.0687	-12.7319	0.122515	0	
0.0693	-13.6718	-1.08222	0	
0.0700	-15.1814	-2.91995	0	
0.0707	-13.0452	-0.163354	0	
0.0713	-9.08606	2.26654	0	
0.0720	-9.39938	-1.08222	0	
0.0727	-9.39938	-2.61366	0	
0.0733	-2.99071	-0.775931	0	
0.0740	4.95603	-1.08222	0	
0.0747	12.9028	-1.6948	0	
0.0753	18.0867	1.34767	0	
0.0760	14.0991	2.57282	0	
0.0767	8.91516	0.735093	0	
0.0773	10.4532	0.428804	0	
0.0780	10.1399	2.57282	0	
0.0787	6.1808	3.49169	0	
0.0793	6.49411	2.26654	0	
0.0800	8.00371	2.26654	0	
0.0807	5.55418	5.32942	0	
0.0813	3.13313	5.32942	0	
0.0820	1.59505	0.735093	0	
0.0827	-1.76594	-0.469643	0	
0.0833	-4.50031	2.57282	0	
0.0840	-5.72507	0.735093	0	
0.0847	-6.32322	-3.53253	0	
0.0853	-5.12693	-2.61366	0	
0.0860	-1.45263	0.122515	0	
0.0867	0.996903	0.428804	0	
0.0873	-1.45263	-0.163354	0	
0.0880	-6.63653	-1.08222	0	
0.0887	-8.45944	-2.00109	0	
0.0893	-7.54798	-0.163354	0	
0.0900	-7.26315	1.04138	0	
0.0907	-6.94984	0.735093	0	
0.0913	-6.32322	1.65396	0	
0.0920	-7.54798	3.49169	0	
0.0927	-9.39938	3.1854	0	
0.0933	-9.39938	1.65396	0	
0.0940	-7.54798	1.96025	0	
0.0947	-6.32322	1.65396	0	
0.0953	-3.27554	0.735093	0	
0.0960	3.41795	1.34767	0	
0.0967	9.22848	1.04138	0	
0.0973	11.0514	0.122515	0	
0.0980	10.7666	0.735093	0	
0.0987	8.31702	0.428804	0	
0.0993	6.1808	-2.91995	0	
0.1000	6.49411	-4.75768	0	
0.1007	8.31702	-2.91995	0	
0.1013	9.82662	-0.469643	0	
0.1020	10.7666	-1.6948	0	
0.1027	9.82662	-3.83882	0	
0.1033	9.54179	-3.53253	0	
0.1040	11.678	-1.08222	0	
0.1047	14.4124	-0.163354	0	
0.1053	15.039	-0.775931	0	
0.1060	11.678	-1.38851	0	
0.1067	6.1808	-2.91995	0	
0.1073	3.13313	-2.30737	0	
0.1080	-0.854489	1.04138	0	
0.1087	-7.54798	0.428804	0	
0.1093	-9.08606	-3.83882	0	
0.1100	-5.12693	-3.53253	0	
0.1107	-6.32322	-0.469643	0	
0.1113	-8.45944	1.04138	0	
0.1120	-5.12693	2.57282	0	
0.1127	-4.18699	2.87911	0	
0.1133	-4.81362	0.735093	0	
0.1140	-2.6774	-0.775931	0	
0.1147	-2.99071	0.735093	0	
0.1153	-6.32322	1.96025	0	
0.1160	-5.41176	1.04138	0	
0.1167	-3.90216	0.122515	0	
0.1173	-3.90216	0.428804	0	
0.1180	0.996903	0.428804	0	
0.1187	5.26935	1.34767	0	
0.1193	2.5065	3.49169	0	
0.1200	0.996903	5.02313	0	
0.1207	3.41795	2.57282	0	
0.1213	0.683591	-2.61366	0	
0.1220	-6.94984	-5.65613	0	
0.1227	-10.909	-5.37026	0	
0.1233	-12.1337	-4.14511	0	
0.1240	-11.2223	-3.83882	0	
0.1247	-8.45944	-2.00109	0	
0.1253	-5.41176	1.04138	0	
0.1260	-1.13932	-0.163354	0	
0.1267	4.95603	-2.61366	0	
0.1273	8.00371	-1.08222	0	
0.1280	10.1399	-0.163354	0	
0.1287	13.1876	-0.163354	0	
0.1293	11.0514	3.49169	0	
0.1300	5.26935	4.41056	0	
0.1307	4.35789	-0.775931	0	
0.1313	5.86749	-1.6948	0	
0.1320	4.95603	0.735093	0	
0.1327	2.5065	-2.00109	0	
0.1333	0.683591	-3.83882	0	
0.1340	1.90836	0.122515	0	
0.1347	3.41795	3.1854	0	
0.1353	1.28173	0.735093	0	
0.1360	-0.541176	-2.91995	0	
0.1367	2.5065	-4.75768	0	
0.1373	5.26935	-4.75768	0	
0.1380	7.09226	-1.08222	0	
0.1387	7.40557	0.122515	0	
0.1393	4.95603	-1.6948	0	
0.1400	4.35789	-0.775931	0	
0.1407	6.49411	0.735093	0	
0.1413	3.41795	-2.91995	0	
0.1420	0.0854489	-6.575	0	
0.1427	-0.854489	-5.06397	0	
0.1433	-7.8613	-2.91995	0	
0.1440	-15.4947	-2.00109	0	
0.1447	-13.0452	-0.163354	0	
0.1453	-9.39938	1.65396	0	
0.1460	-10.909	1.65396	0	
0.1467	-10.3108	1.04138	0	
0.1473	-7.54798	-0.163354	0	
0.1480	-4.81362	-1.08222	0	
0.1487	-2.05077	0.122515	0	
0.1493	-4.81362	1.65396	0	
0.1500	-9.6842	1.34767	0	
0.1507	-6.94984	-0.163354	0	
0.1513	-2.99071	-1.38851	0	
0.1520	-5.12693	-1.38851	0	
0.1527	-8.45944	0.122515	0	
0.1533	-7.8613	0.122515	0	
0.1540	-2.36409	-0.775931	0	
0.1547	4.04458	1.65396	0	
0.1553	4.95603	3.79798	0	
0.1560	1.90836	1.34767	0	
0.1567	1.28173	-1.38851	0	
0.1573	-0.227864	-1.38851	0	
0.1580	-1.45263	-0.469643	0	
0.1587	2.22167	-0.163354	0	
0.1593	3.41795	-0.163354	0	
0.1600	-0.227864	-1.38851	0	
0.1607	-1.76594	-2.91995	0	
0.1613	-1.76594	-3.83882	0	
0.1620	-2.36409	-3.53253	0	
0.1627	-1.45263	-1.38851	0	
0.1633	-3.27554	-1.08222	0	
0.1640	-8.45944	-1.08222	0	
0.1647	-6.63653	-0.163354	0	
0.1653	-1.13932	-0.775931	0	
0.1660	-0.541176	-0.163354	0	
0.1667	0.683591	2.57282	0	
0.1673	5.86749	2.57282	0	
0.1680	6.1808	0.735093	0	
0.1687	-0.227864	2.57282	0	
0.1693	-8.45944	3.49169	0	
0.1700	-14.8681	1.96025	0	
0.1707	-16.4062	1.65396	0	
0.1713	-13.6718	1.34767	0	
0.1720	-8.77275	0.735093	0	
0.1727	-3.90216	2.57282	0	
0.1733	-2.36409	1.34767	0	
0.1740	-2.6774	-1.08222	0	
0.1747	0.996903	0.735093	0	
0.1753	3.13313	1.34767	0	
0.1760	3.41795	-2.00109	0	
0.1767	7.09226	-1.38851	0	
0.1773	9.82662	1.04138	0	
0.1780	8.31702	-0.469643	0	
0.1787	7.40557	-0.775931	0	
0.1793	6.1808	1.34767	0	
0.1800	3.73127	-0.163354	0	
0.1807	5.26935	-2.61366	0	
0.1813	6.1808	-2.91995	0	
0.1820	3.41795	-1.6948	0	
0.1827	4.35789	-0.775931	0	
0.1833	6.1808	-1.6948	0	
0.1840	4.95603	-3.83882	0	
0.1847	5.26935	-2.61366	0	
0.1853	6.1808	-0.163354	0	
0.1860	4.35789	-1.6948	0	
0.1867	2.5065	-3.22624	0	
0.1873	0.683591	-0.775931	0	
0.1880	-0.227864	0.735093	0	
0.1887	-0.541176	-0.775931	0	
0.1893	-3.90216	-0.775931	0	
0.1900	-6.63653	0.428804	0	
0.1907	-4.81362	0.735093	0	
0.1913	-3.27554	1.65396	0	
0.1920	-5.41176	2.57282	0	
0.1927	-6.03839	0.122515	0	
0.1933	-6.32322	-2.00109	0	
0.1940	-6.94984	-0.469643	0	
0.1947	-4.18699	2.26654	0	
0.1953	-0.227864	1.65396	0	
0.1960	0.683591	-1.08222	0	
0.1967	2.22167	-2.00109	0	
0.1973	3.73127	-0.469643	0	
0.1980	3.41795	0.428804	0	
0.1987	3.41795	-1.08222	0	
0.1993	7.09226	-2.91995	0	
0.2000	9.54179	-2.00109	0	
0.2007	6.77894	-0.775931	0	
0.2013	4.35789	-2.30737	0	
0.2020	4.35789	-3.83882	0	
0.2027	2.22167	-2.00109	0	
0.2033	-1.13932	1.96025	0	
0.2040	0.683591	3.79798	0	
0.2047	2.81981	0.735093	0	
0.2053	0.370278	-2.00109	0	
0.2060	-4.50031	0.428804	0	
0.2067	-6.63653	2.26654	0	
0.2073	-8.45944	1.96025	0	
0.2080	-11.5356	3.79798	0	
0.2087	-13.0452	3.49169	0	
0.2093	-10.909	0.735093	0	
0.2100	-10.5957	1.04138	0	
0.2107	-12.1337	1.96025	0	
0.2113	-10.3108	-0.163354	0	
0.2120	-7.8613	0.428804	0	
0.2127	-9.39938	1.04138	0	
0.2133	-9.39938	-0.163354	0	
0.2140	-5.72507	2.57282	0	
0.2147	-4.18699	4.41056	0	
0.2153	-5.12693	2.26654	0	
0.2160	-5.41176	2.57282	0	
0.2167	-2.6774	2.87911	0	
0.2173	2.5065	-1.38851	0	
0.2180	1.59505	-2.00109	0	
0.2187	-5.41176	-0.163354	0	
0.2193	-7.54798	-2.61366	0	
0.2200	-2.6774	-2.91995	0	
0.2207	1.28173	-3.53253	0	
0.2213	2.81981	-8.10644	0	
0.2220	3.41795	-7.49386	0	
0.2227	4.64272	-1.6948	0	
0.2233	8.91516	-0.775931	0	
0.2240	11.678	-2.00109	0	
0.2247	13.5009	-2.00109	0	
0.2253	17.7734	-3.53253	0	
0.2260	17.7734	-3.83882	0	
0.2267	12.5895	-1.08222	0	
0.2273	8.91516	0.735093	0	
0.2280	7.09226	1.04138	0	
0.2287	3.13313	1.65396	0	
0.2293	1.28173	2.26654	0	
0.2300	-0.854489	2.57282	0	
0.2307	-4.81362	2.87911	0	
0.2313	-4.81362	3.49169	0	
0.2320	-4.50031	2.57282	0	
0.2327	-5.41176	-0.163354	0	
0.2333	-3.58885	1.04138	0	
0.2340	-2.99071	3.49169	0	
0.2347	-5.72507	0.428804	0	
0.2353	-4.81362	-2.30737	0	
0.2360	-2.36409	0.428804	0	
0.2367	0.370278	0.122515	0	
0.2373	8.31702	-2.30737	0	
0.2380	15.3238	-0.775931	0	
0.2387	13.1876	-0.163354	0	
0.2393	10.7666	-2.91995	0	
0.2400	11.678	-2.91995	0	
0.2407	11.3647	-1.38851	0	
0.2413	13.8142	-2.91995	0	
0.2420	17.1752	-3.83882	0	
0.2427	11.9628	-2.00109	0	
0.2433	4.95603	-1.08222	0	
0.2440	1.59505	-1.08222	0	
0.2447	-3.90216	1.04138	0	
0.2453	-8.77275	2.26654	0	
0.2460	-7.8613	0.735093	0	
0.2467	-2.05077	-0.163354	0	
0.2473	6.49411	1.04138	0	
0.2480	11.3647	1.04138	0	
0.2487	4.35789	-0.163354	0	
0.2493	-2.99071	0.735093	0	
0.2500	-2.05077	2.26654	0	
0.2507	-2.6774	1.96025	0	
0.2513	-8.17461	0.735093	0	
0.2520	-8.77275	0.735093	0	
0.2527	-6.63653	2.26654	0	
0.2533	-6.03839	3.49169	0	
0.2540	-5.72507	1.96025	0	
0.2547	-6.03839	-1.38851	0	
0.2553	-7.8613	-1.6948	0	
0.2560	-7.26315	-1.08222	0	
0.2567	-4.18699	-2.30737	0	
0.2573	-2.99071	-2.91995	0	
0.2580	-1.45263	-1.6948	0	
0.2587	1.59505	-0.469643	0	
0.2593	4.35789	0.122515	0	
0.2600	5.26935	-0.469643	0	
0.2607	3.73127	-2.61366	0	
0.2613	3.41795	-2.91995	0	
0.2620	5.26935	-2.00109	0	
0.2627	4.35789	-0.469643	0	
0.2633	0.0854489	0.735093	0	
0.2640	-2.05077	-0.469643	0	
0.2647	-2.05077	-2.91995	0	
0.2653	-2.6774	-1.08222	0	
0.2660	-1.13932	1.34767	0	
0.2667	0.996903	-1.08222	0	
0.2673	0.0854489	-2.61366	0	
0.2680	-2.05077	-0.163354	0	
0.2687	-2.05077	0.735093	0	
0.2693	-1.13932	1.65396	0	
0.2700	2.22167	2.57282	0	
0.2707	5.26935	0.428804	0	
0.2713	4.35789	-1.08222	0	
0.2720	1.28173	0.735093	0	
0.2727	-3.58885	-0.163354	0	
0.2733	-7.26315	-2.30737	0	
0.2740	-4.81362	0.122515	0	
0.2747	-0.227864	2.57282	0	
0.2753	-2.05077	1.96025	0	
0.2760	-4.81362	0.735093	0	
0.2767	-2.36409	0.735093	0	
0.2773	-2.36409	1.04138	0	
0.2780	-5.41176	2.26654	0	
0.2787	-5.41176	1.65396	0	
0.2793	-4.81362	-0.163354	0	
0.2800	-2.99071	-0.163354	0	
0.2807	0.996903	0.122515	0	
0.2813	0.683591	0.428804	0	
0.2820	-3.27554	0.122515	0	
0.2827	-1.13932	-0.775931	0	
0.2833	2.22167	-0.163354	0	
0.2840	1.90836	1.65396	0	
0.2847	2.5065	1.96025	0	
0.2853	2.5065	2.26654	0	
0.2860	-1.13932	1.96025	0	
0.2867	-2.99071	0.428804	0	
0.2873	-2.99071	1.65396	0	
0.2880	-3.90216	4.71685	0	
0.2887	-2.36409	4.10427	0	
0.2893	-0.227864	1.04138	0	
0.2900	0.0854489	0.735093	0	
0.2907	1.59505	1.65396	0	
0.2913	0.683591	1.34767	0	
0.2920	-6.94984	2.57282	0	
0.2927	-13.0452	4.10427	0	
0.2933	-15.1814	3.49169	0	
0.2940	-17.3176	2.26654	0	
0.2947	-16.7195	-0.163354	0	
0.2953	-15.808	-2.00109	0	
0.2960	-18.5424	-1.08222	0	
0.2967	-16.7195	0.122515	0	
0.2973	-4.81362	-1.38851	0	
0.2980	6.1808	-3.22624	0	
0.2987	11.678	-2.30737	0	
0.2993	11.0514	-0.163354	0	
0.3000	6.49411	-0.163354	0	
0.3007	3.41795	-2.00109	0	
0.3013	4.95603	-2.91995	0	
0.3020	5.26935	-2.00109	0	
0.3027	3.13313	-1.38851	0	
0.3033	2.22167	-1.08222	0	
0.3040	2.5065	-0.163354	0	
0.3047	4.04458	-0.775931	0	
0.3053	6.1808	-2.61366	0	
0.3060	4.64272	-1.08222	0	
0.3067	1.59505	0.735093	0	
0.3073	0.0854489	-0.775931	0	
0.3080	-0.854489	-1.38851	0	
0.3087	-2.05077	-0.163354	0	
0.3093	-2.6774	-1.38851	0	
0.3100	-2.05077	-1.6948	0	
0.3107	1.59505	1.04138	0	
0.3113	3.41795	0.122515	0	
0.3120	2.81981	-2.91995	0	
0.3127	3.41795	-1.6948	0	
0.3133	6.1808	0.735093	0	
0.3140	5.86749	-1.38851	0	
0.3147	4.35789	-3.83882	0	
0.3153	5.86749	-0.775931	0	
0.3160	6.1808	2.57282	0	
0.3167	2.81981	1.65396	0	
0.3173	0.996903	-0.163354	0	
0.3180	4.35789	0.122515	0	
0.3187	8.63034	-1.38851	0	
0.3193	9.22848	-3.53253	0	
0.3200	8.00371	-1.6948	0	
0.3207	7.09226	0.122515	0	
0.3213	8.00371	-2.61366	0	
0.3220	10.7666	-5.65613	0	
0.3227	11.678	-5.06397	0	
0.3233	8.63034	-2.00109	0	
0.3240	2.5065	-0.163354	0	
0.3247	-2.36409	-1.6948	0	
0.3253	-2.6774	-3.53253	0	
0.3260	-0.227864	-1.08222	0	
0.3267	-2.05077	1.65396	0	
0.3273	-5.72507	0.428804	0	
0.3280	-6.32322	-2.00109	0	
0.3287	-4.18699	-1.08222	0	
0.3293	-3.58885	0.428804	0	
0.3300	-1.76594	0.735093	0	
0.3307	0.683591	-0.775931	0	
0.3313	1.59505	-2.30737	0	
0.3320	0.370278	-0.775931	0	
0.3327	-1.13932	1.96025	0	
0.3333	-2.6774	0.122515	0	
0.3340	-2.05077	-2.00109	0	
0.3347	-2.05077	0.735093	0	
0.3353	-4.18699	1.65396	0	
0.3360	-5.12693	-2.91995	0	
0.3367	-3.90216	-2.30737	0	
0.3373	-2.6774	1.96025	0	
0.3380	0.683591	-0.163354	0	
0.3387	5.86749	-3.53253	0	
0.3393	7.09226	-1.08222	0	
0.3400	4.95603	-0.469643	0	
0.3407	5.55418	-3.22624	0	
0.3413	7.09226	-2.00109	0	
0.3420	3.41795	-1.08222	0	
0.3427	-1.13932	-3.83882	0	
0.3433	-1.45263	-2.30737	0	
0.3440	-1.45263	-0.775931	0	
0.3447	-1.76594	-3.83882	0	
0.3453	-0.854489	-4.14511	0	
0.3460	-2.05077	-0.469643	0	
0.3467	-4.81362	0.428804	0	
0.3473	-5.41176	0.122515	0	
0.3480	-6.32322	2.26654	0	
0.3487	-7.54798	3.79798	0	
0.3493	-2.05077	3.49169	0	
0.3500	5.26935	2.26654	0	
0.3507	4.35789	0.735093	0	
0.3513	-0.227864	0.122515	0	
0.3520	-0.541176	-0.163354	0	
0.3527	-0.227864	-1.38851	0	
0.3533	-1.76594	0.122515	0	
0.3540	-0.854489	1.34767	0	
0.3547	1.28173	-0.775931	0	
0.3553	-0.227864	-1.6948	0	
0.3560	-2.99071	-0.163354	0	
0.3567	-1.13932	-1.38851	0	
0.3573	1.90836	-3.53253	0	
0.3580	2.22167	-1.6948	0	
0.3587	4.35789	1.04138	0	
0.3593	7.6904	-0.163354	0	
0.3600	4.95603	-2.91995	0	
0.3607	0.0854489	-2.91995	0	
0.3613	-0.541176	-1.6948	0	
0.3620	-0.227864	-2.91995	0	
0.3627	-1.13932	-3.83882	0	
0.3633	0.683591	-0.163354	0	
0.3640	0.996903	1.65396	0	
0.3647	0.0854489	-1.38851	0	
0.3653	0.683591	-2.91995	0	
0.3660	0.0854489	-2.00109	0	
0.3667	-1.13932	-0.775931	0	
0.3673	-0.227864	-0.163354	0	
0.3680	-2.05077	-0.469643	0	
0.3687	-5.72507	-1.38851	0	
0.3693	-6.94984	-1.38851	0	
0.3700	-6.63653	-2.00109	0	
0.3707	-7.26315	-2.91995	0	
0.3713	-7.54798	-0.469643	0	
0.3720	-6.03839	2.87911	0	
0.3727	-4.18699	1.34767	0	
0.3733	-2.6774	-2.00109	0	
0.3740	-2.6774	-1.6948	0	
0.3747	-2.36409	0.735093	0	
0.3753	-0.227864	1.34767	0	
0.3760	2.5065	-2.00109	0	
0.3767	4.35789	-3.83882	0	
0.3773	5.86749	-1.08222	0	
0.3780	5.86749	0.735093	0	
0.3787	3.41795	-2.30737	0	
0.3793	0.683591	-2.00109	0	
0.3800	-0.854489	1.96025	0	
0.3807	0.0854489	2.26654	0	
0.3813	0.683591	-0.469643	0	
0.3820	-0.854489	-0.775931	0	
0.3827	-0.227864	1.65396	0	
0.3833	1.59505	1.96025	0	
0.3840	0.683591	-0.163354	0	
0.3847	-2.36409	-0.163354	0	
0.3853	-4.18699	1.65396	0	
0.3860	-6.63653	0.735093	0	
0.3867	-9.39938	-0.469643	0	
0.3873	-8.77275	0.735093	0	
0.3880	-7.54798	0.122515	0	
0.3887	-9.39938	-0.163354	0	
0.3893	-10.3108	2.87911	0	
0.3900	-5.72507	2.87911	0	
0.3907	-1.13932	0.428804	0	
0.3913	-0.227864	-0.163354	0	
0.3920	1.90836	-1.6948	0	
0.3927	2.81981	-2.91995	0	
0.3933	1.59505	-0.163354	0	
0.3940	4.35789	0.735093	0	
0.3947	9.54179	-0.775931	0	
0.3953	8.63034	0.428804	0	
0.3960	5.86749	-1.08222	0	
0.3967	6.77894	-4.14511	0	
0.3973	8.00371	-2.91995	0	
0.3980	7.40557	-1.08222	0	
0.3987	3.13313	-2.30737	0	
0.3993	-3.90216	-2.00109	0	
0.4000	-5.72507	-0.163354	0	
0.4007	-2.36409	0.428804	0	
0.4013	-0.227864	1.04138	0	
0.4020	2.5065	2.57282	0	
0.4027	5.55418	1.96025	0	
0.4033	6.77894	0.735093	0	
0.4040	8.91516	1.96025	0	
0.4047	11.678	2.57282	0	
0.4053	12.5895	1.65396	0	
0.4060	13.1876	1.96025	0	
0.4067	9.82662	3.49169	0	
0.4073	2.81981	1.04138	0	
0.4080	1.59505	-1.08222	0	
0.4087	0.683591	-0.163354	0	
0.4093	-5.41176	0.735093	0	
0.4100	-7.26315	0.735093	0	
0.4107	-3.90216	1.34767	0	
0.4113	-4.50031	0.735093	0	
0.4120	-4.50031	0.122515	0	
0.4127	-1.13932	1.65396	0	
0.4133	-2.05077	3.1854	0	
0.4140	-5.41176	4.10427	0	
0.4147	-5.72507	3.1854	0	
0.4153	-3.90216	1.04138	0	
0.4160	-0.227864	0.735093	0	
0.4167	4.35789	1.96025	0	
0.4173	4.64272	-0.163354	0	
0.4180	2.5065	-1.38851	0	
0.4187	3.41795	0.735093	0	
0.4193	6.1808	0.122515	0	
0.4200	8.00371	-2.00109	0	
0.4207	7.09226	-0.469643	0	
0.4213	8.00371	-0.163354	0	
0.4220	9.54179	-3.22624	0	
0.4227	6.77894	-2.91995	0	
0.4233	1.28173	-0.469643	0	
0.4240	-4.81362	-1.08222	0	
0.4247	-8.77275	-2.61366	0	
0.4253	-9.39938	-2.00109	0	
0.4260	-11.8204	0.122515	0	
0.4267	-18.8557	3.1854	0	
0.4273	-22.8148	2.57282	0	
0.4280	-18.8557	0.428804	0	
0.4287	-13.0452	2.57282	0	
0.4293	-3.90216	4.71685	0	
0.4300	6.1808	1.34767	0	
0.4307	8.00371	-0.469643	0	
0.4313	0.370278	2.57282	0	
0.4320	-6.32322	3.79798	0	
0.4327	-8.77275	1.34767	0	
0.4333	-9.99752	-2.91995	0	
0.4340	-10.909	-5.06397	0	
0.4347	-10.909	-2.61366	0	
0.4353	-10.3108	-1.08222	0	
0.4360	-8.45944	-3.83882	0	
0.4367	-4.18699	-3.22624	0	
0.4373	0.683591	0.735093	0	
0.4380	6.1808	-0.163354	0	
0.4387	9.82662	-2.30737	0	
0.4393	6.77894	-1.08222	0	
0.4400	1.28173	-1.38851	0	
0.4407	0.0854489	-3.53253	0	
0.4413	0.370278	-2.91995	0	
0.4420	0.370278	-1.08222	0	
0.4427	2.5065	-0.163354	0	
0.4433	2.22167	-0.469643	0	
0.4440	-1.45263	-2.61366	0	
0.4447	0.0854489	-2.91995	0	
0.4453	3.13313	0.428804	0	
0.4460	1.59505	2.57282	0	
0.4467	0.996903	0.122515	0	
0.4473	2.5065	-1.6948	0	
0.4480	2.5065	-0.469643	0	
0.4487	3.41795	0.122515	0	
0.4493	4.64272	-0.163354	0	
0.4500	1.28173	0.428804	0	
0.4507	-2.36409	0.735093	0	
0.4513	-3.58885	0.428804	0	
0.4520	-4.81362	0.122515	0	
0.4527	-6.32322	1.04138	0	
0.4533	-6.63653	2.57282	0	
0.4540	-5.72507	2.57282	0	
0.4547	-3.90216	0.122515	0	
0.4553	-5.72507	-0.775931	0	
0.4560	-7.26315	0.735093	0	
0.4567	-3.90216	1.96025	0	
0.4573	-3.90216	1.34767	0	
0.4580	-6.63653	0.122515	0	
0.4587	-2.99071	-1.38851	0	
0.4593	2.5065	-1.38851	0	
0.4600	3.13313	0.122515	0	
0.4607	4.04458	-0.163354	0	
0.4613	5.86749	-1.38851	0	
0.4620	4.64272	-1.38851	0	
0.4627	4.35789	-1.6948	0	
0.4633	6.77894	-1.08222	0	
0.4640	7.09226	2.26654	0	
0.4647	4.64272	1.65396	0	
0.4653	3.41795	-2.91995	0	
0.4660	2.5065	-3.83882	0	
0.4667	0.683591	-1.6948	0	
0.4673	-1.13932	-0.469643	0	
0.4680	-0.541176	-0.163354	0	
0.4687	-0.854489	-0.775931	0	
0.4693	-3.90216	-0.775931	0	
0.4700	-6.63653	0.735093	0	
0.4707	-7.26315	2.87911	0	
0.4713	-8.45944	3.1854	0	
0.4720	-10.3108	0.735093	0	
0.4727	-7.26315	-1.08222	0	
0.4733	-2.05077	1.96025	0	
0.4740	1.59505	4.10427	0	
0.4747	3.41795	1.65396	0	
0.4753	3.41795	-0.469643	0	
0.4760	1.59505	0.735093	0	
0.4767	3.41795	0.428804	0	
0.4773	7.09226	-1.08222	0	
0.4780	6.1808	-1.38851	0	
0.4787	4.04458	-2.00109	0	
0.4793	4.35789	-1.6948	0	
0.4800	3.41795	1.04138	0	
0.4807	1.59505	3.49169	0	
0.4813	0.683591	2.57282	0	
0.4820	0.996903	0.735093	0	
0.4827	1.59505	-0.163354	0	
0.4833	2.22167	-0.163354	0	
0.4840	2.5065	-1.08222	0	
0.4847	2.22167	-1.6948	0	
0.4853	0.683591	-1.38851	0	
0.4860	-0.227864	-0.163354	0	
0.4867	-1.13932	1.34767	0	
0.4873	-2.6774	2.26654	0	
0.4880	-3.27554	1.96025	0	
0.4887	-2.99071	2.57282	0	
0.4893	-3.58885	2.57282	0	
0.4900	-3.90216	1.65396	0	
0.4907	-3.90216	1.65396	0	
0.4913	-2.99071	0.735093	0	
0.4920	-1.13932	-2.91995	0	
0.4927	0.370278	-3.53253	0	
0.4933	0.683591	-0.775931	0	
0.4940	0.996903	-0.163354	0	
0.4947	2.5065	-0.469643	0	
0.4953	2.5065	0.735093	0	
0.4960	0.996903	0.428804	0	
0.4967	-0.227864	-0.163354	0	
0.4973	-0.227864	-0.775931	0	
0.4980	0.683591	-2.00109	0	
0.4987	1.59505	-3.22624	0	
0.4993	1.90836	-2.91995	0	
0.5000	2.5065	-1.08222	0	
0.5007	1.90836	0.735093	0	
0.5013	1.59505	1.34767	0	
0.5020	2.5065	-0.163354	0	
0.5027	0.683591	-3.22624	0	
0.5033	-1.76594	-5.37026	0	
0.5040	-0.854489	-5.37026	0	
0.5047	0.683591	-2.61366	0	
0.5053	0.0854489	-0.775931	0	
0.5060	0.370278	-2.00109	0	
0.5067	1.28173	-1.6948	0	
0.5073	-3.27554	1.04138	0	
0.5080	-13.3585	0.428804	0	
0.5087	-19.7672	-2.30737	0	
0.5093	-18.5424	-1.08222	0	
0.5100	-15.4947	1.34767	0	
0.5107	-14.27	1.65396	0	
0.5113	-10.5957	2.57282	0	
0.5120	-4.81362	3.49169	0	
0.5127	-2.05077	1.34767	0	
0.5133	0.683591	-1.6948	0	
0.5140	4.95603	-1.08222	0	
0.5147	7.6904	0.735093	0	
0.5153	8.00371	1.04138	0	
0.5160	7.09226	0.735093	0	
0.5167	7.40557	-1.08222	0	
0.5173	10.7666	-3.53253	0	
0.5180	11.9628	-3.22624	0	
0.5187	9.22848	-2.00109	0	
0.5193	9.22848	-2.91995	0	
0.5200	11.678	-3.83882	0	
0.5207	11.9628	-3.22624	0	
0.5213	11.3647	-3.53253	0	
0.5220	8.00371	-4.75768	0	
0.5227	3.41795	-3.53253	0	
0.5233	2.5065	-1.08222	0	
0.5240	2.5065	-2.00109	0	
0.5247	-2.6774	-2.30737	0	
0.5253	-4.50031	-1.38851	0	
0.5260	-1.45263	-2.61366	0	
0.5267	-1.13932	-3.22624	0	
0.5273	-1.76594	-2.61366	0	
0.5280	0.370278	-3.83882	0	
0.5287	0.683591	-2.30737	0	
0.5293	0.683591	2.57282	0	
0.5300	2.5065	2.26654	0	
0.5307	2.22167	-1.08222	0	
0.5313	-0.854489	-1.08222	0	
0.5320	-0.227864	-0.469643	0	
0.5327	1.59505	-0.469643	0	
0.5333	-2.6774	2.57282	0	
0.5340	-6.03839	4.41056	0	
0.5347	-3.90216	3.1854	0	
0.5353	-4.18699	1.04138	0	
0.5360	-6.63653	-0.163354	0	
0.5367	-5.72507	0.735093	0	
0.5373	-3.90216	1.04138	0	
0.5380	-0.227864	-1.08222	0	
0.5387	4.95603	0.122515	0	
0.5393	4.95603	4.71685	0	
0.5400	0.370278	2.57282	0	
0.5407	-2.99071	-1.6948	0	
0.5413	-4.50031	-1.08222	0	
0.5420	-0.854489	0.735093	0	
0.5427	7.6904	1.96025	0	
0.5433	7.6904	2.57282	0	
0.5440	0.370278	-1.08222	0	
0.5447	-1.13932	-1.08222	0	
0.5453	-1.76594	3.49169	0	
0.5460	-6.63653	1.65396	0	
0.5467	-6.03839	-1.38851	0	
0.5473	-2.99071	1.04138	0	
0.5480	-4.81362	2.26654	0	
0.5487	-6.03839	-0.163354	0	
0.5493	-4.50031	-0.469643	0	
0.5500	-3.90216	0.428804	0	
0.5507	-3.27554	0.735093	0	
0.5513	-4.50031	1.65396	0	
0.5520	-7.54798	1.65396	0	
0.5527	-8.17461	1.04138	0	
0.5533	-5.72507	-0.163354	0	
0.5540	-4.18699	-1.6948	0	
0.5547	-2.99071	-0.469643	0	
0.5553	-1.76594	0.735093	0	
0.5560	0.683591	-1.6948	0	
0.5567	3.41795	-2.30737	0	
0.5573	4.95603	-0.163354	0	
0.5580	6.1808	0.428804	0	
0.5587	8.00371	-1.08222	0	
0.5593	8.00371	-3.22624	0	
0.5600	7.09226	-4.14511	0	
0.5607	9.54179	-2.00109	0	
0.5613	9.82662	0.428804	0	
0.5620	6.1808	-0.469643	0	
0.5627	5.86749	0.122515	0	
0.5633	7.09226	2.57282	0	
0.5640	4.35789	0.735093	0	
0.5647	1.59505	-0.775931	0	
0.5653	1.28173	1.34767	0	
0.5660	-0.854489	2.57282	0	
0.5667	-1.13932	2.57282	0	
0.5673	1.59505	2.87911	0	
0.5680	-0.227864	1.04138	0	
0.5687	-5.41176	-2.91995	0	
0.5693	-6.63653	-4.4514	0	
0.5700	-6.32322	-4.14511	0	
0.5707	-9.08606	-4.75768	0	
0.5713	-11.2223	-2.91995	0	
0.5720	-10.3108	1.04138	0	
0.5727	-7.54798	1.96025	0	
0.5733	-3.27554	-2.30737	0	
0.5740	1.90836	-5.06397	0	
0.5747	4.95603	-2.00109	0	
0.5753	7.6904	1.04138	0	
0.5760	10.7666	-0.775931	0	
0.5767	10.7666	-2.91995	0	
0.5773	9.82662	-3.83882	0	
0.5780	11.3647	-4.75768	0	
0.5787	13.5009	-2.91995	0	
0.5793	12.5895	-1.6948	0	
0.5800	10.7666	-4.14511	0	
0.5807	7.09226	-2.91995	0	
0.5813	2.5065	-0.163354	0	
0.5820	0.996903	-2.00109	0	
0.5827	2.22167	-2.00109	0	
0.5833	1.59505	1.65396	0	
0.5840	2.22167	-0.163354	0	
0.5847	5.26935	-2.91995	0	
0.5853	4.04458	-1.08222	0	
0.5860	-0.854489	0.428804	0	
0.5867	-3.27554	0.735093	0	
0.5873	-4.18699	1.96025	0	
0.5880	-5.72507	0.735093	0	
0.5887	-5.41176	0.122515	0	
0.5893	-5.72507	1.65396	0	
0.5900	-9.08606	0.122515	0	
0.5907	-9.08606	-2.91995	0	
0.5913	-6.94984	-1.08222	0	
0.5920	-9.08606	0.735093	0	
0.5927	-11.2223	0.735093	0	
0.5933	-11.2223	3.79798	0	
0.5940	-12.1337	5.32942	0	
0.5947	-11.2223	2.57282	0	
0.5953	-7.26315	1.65396	0	
0.5960	-5.72507	3.1854	0	
0.5967	-5.72507	1.65396	0	
0.5973	-2.99071	1.34767	0	
0.5980	2.5065	3.49169	0	
0.5987	7.6904	4.10427	0	
0.5993	8.91516	2.87911	0	
0.6000	6.77894	1.96025	0	
0.6007	5.26935	0.122515	0	
0.6013	4.35789	-1.08222	0	
0.6020	2.81981	-0.163354	0	
0.6027	3.73127	-1.38851	0	
0.6033	4.64272	-2.91995	0	
0.6040	2.5065	-1.6948	0	
0.6047	2.22167	-1.38851	0	
0.6053	3.73127	-3.53253	0	
0.6060	3.41795	-2.91995	0	
0.6067	2.5065	-0.469643	0	
0.6073	0.996903	-0.469643	0	
0.6080	-2.05077	-0.469643	0	
0.6087	-3.90216	1.34767	0	
0.6093	-2.36409	1.65396	0	
0.6100	-1.13932	-0.163354	0	
0.6107	-2.6774	-0.163354	0	
0.6113	-3.90216	0.735093	0	
0.6120	-4.18699	1.96025	0	
0.6127	-3.90216	1.04138	0	
0.6133	0.0854489	-2.00109	0	
0.6140	3.73127	-2.91995	0	
0.6147	2.22167	-0.163354	0	
0.6153	-0.541176	-0.163354	0	
0.6160	1.59505	-2.61366	0	
0.6167	0.683591	-2.00109	0	
0.6173	-4.81362	-0.163354	0	
0.6180	-4.81362	-0.469643	0	
0.6187	-0.227864	-1.08222	0	
0.6193	1.28173	-1.6948	0	
0.6200	1.59505	-2.00109	0	
0.6207	2.5065	-2.00109	0	
0.6213	1.59505	-2.61366	0	
0.6220	-0.227864	-0.469643	0	
0.6227	-1.13932	2.57282	0	
0.6233	-3.58885	1.04138	0	
0.6240	-5.72507	-2.30737	0	
0.6247	-6.63653	-1.38851	0	
0.6253	-10.909	0.428804	0	
0.6260	-18.5424	-0.163354	0	
0.6267	-23.1282	-0.163354	0	
0.6273	-23.1282	-0.163354	0	
0.6280	-19.7672	-0.469643	0	
0.6287	-13.3585	0.122515	0	
0.6293	-7.54798	-0.163354	0	
0.6300	-4.18699	-0.469643	0	
0.6307	-0.541176	1.65396	0	
0.6313	5.26935	3.49169	0	
0.6320	10.1399	4.10427	0	
0.6327	11.3647	3.49169	0	
0.6333	7.6904	1.65396	0	
0.6340	2.81981	1.34767	0	
0.6347	0.996903	1.65396	0	
0.6353	-2.05077	-0.469643	0	
0.6360	-7.26315	-0.469643	0	
0.6367	-8.17461	2.87911	0	
0.6373	-2.05077	0.428804	0	
0.6380	4.35789	-4.14511	0	
0.6387	9.22848	-1.38851	0	
0.6393	13.8142	1.04138	0	
0.6400	16.2353	-2.00109	0	
0.6407	14.4124	-2.00109	0	
0.6413	10.1399	1.34767	0	
0.6420	7.09226	-0.163354	0	
0.6427	6.77894	-2.00109	0	
0.6433	4.35789	0.122515	0	
0.6440	-0.541176	0.428804	0	
0.6447	-2.36409	-1.08222	0	
0.6453	-2.6774	-0.469643	0	
0.6460	-4.18699	0.428804	0	
0.6467	0.370278	0.428804	0	
0.6473	8.91516	0.735093	0	
0.6480	10.1399	0.122515	0	
0.6487	6.1808	-0.163354	0	
0.6493	4.95603	0.735093	0	
0.6500	2.5065	0.428804	0	
0.6507	-0.227864	1.04138	0	
0.6513	0.683591	2.26654	0	
0.6520	1.59505	-0.163354	0	
0.6527	0.370278	-0.775931	0	
0.6533	-0.541176	2.87911	0	
0.6540	-0.854489	3.49169	0	
0.6547	-1.13932	0.428804	0	
0.6553	-2.05077	-0.163354	0	
0.6560	-3.90216	-0.469643	0	
0.6567	-2.99071	-1.08222	0	
0.6573	0.683591	1.34767	0	
0.6580	2.5065	-0.163354	0	
0.6587	4.95603	-4.4514	0	
0.6593	5.26935	-2.00109	0	
0.6600	1.90836	1.65396	0	
0.6607	0.370278	-1.38851	0	
0.6613	3.41795	-1.38851	0	
0.6620	4.95603	1.96025	0	
0.6627	4.35789	-0.163354	0	
0.6633	4.35789	-2.91995	0	
0.6640	1.28173	-1.38851	0	
0.6647	-3.58885	-2.00109	0	
0.6653	-4.50031	-2.91995	0	
0.6660	-3.90216	0.735093	0	
0.6667	-4.50031	3.1854	0	
0.6673	-2.6774	2.26654	0	
0.6680	-0.541176	1.34767	0	
0.6687	-2.05077	0.122515	0	
0.6693	-4.18699	-0.775931	0	
0.6700	-5.72507	1.04138	0	
0.6707	-6.63653	2.87911	0	
0.6713	-8.45944	2.57282	0	
0.6720	-10.3108	2.57282	0	
0.6727	-7.26315	2.57282	0	
0.6733	-2.05077	1.34767	0	
0.6740	-1.13932	-0.469643	0	
0.6747	-1.76594	-1.38851	0	
0.6753	-1.13932	-1.38851	0	
0.6760	-1.76594	-0.775931	0	
0.6767	-0.227864	-0.163354	0	
0.6773	3.73127	0.428804	0	
0.6780	3.41795	1.34767	0	
0.6787	-0.227864	2.26654	0	
0.6793	0.0854489	3.49169	0	
0.6800	1.28173	4.41056	0	
0.6807	1.28173	1.34767	0	
0.6813	1.59505	-2.00109	0	
0.6820	0.996903	-1.6948	0	
0.6827	0.0854489	-1.38851	0	
0.6833	-0.227864	-4.14511	0	
0.6840	-2.05077	-4.75768	0	
0.6847	-0.227864	-2.91995	0	
0.6853	5.26935	-2.00109	0	
0.6860	4.95603	-1.08222	0	
0.6867	0.996903	0.122515	0	
0.6873	1.59505	0.122515	0	
0.6880	0.996903	-0.163354	0	
0.6887	-2.6774	-0.163354	0	
0.6893	-2.99071	1.04138	0	
0.6900	-2.36409	3.1854	0	
0.6907	-3.90216	2.57282	0	
0.6913	-2.6774	0.735093	0	
0.6920	-0.541176	1.04138	0	
0.6927	-0.854489	1.65396	0	
0.6933	-1.13932	-0.163354	0	
0.6940	-0.854489	-0.775931	0	
0.6947	-2.05077	-0.775931	0	
0.6953	-3.90216	-2.91995	0	
0.6960	-5.12693	-3.83882	0	
0.6967	-5.72507	-3.83882	0	
0.6973	-3.90216	-6.26871	0	
0.6980	-0.227864	-6.575	0	
0.6987	1.59505	-4.75768	0	
0.6993	2.5065	-3.83882	0	
0.7000	6.1808	-2.30737	0	
0.7007	6.77894	-0.775931	0	
0.7013	1.90836	-2.91995	0	
0.7020	-0.227864	-3.53253	0	
0.7027	2.22167	-0.163354	0	
0.7033	2.22167	0.735093	0	
0.7040	0.996903	-0.775931	0	
0.7047	1.59505	0.735093	0	
0.7053	-0.227864	1.65396	0	
0.7060	-3.27554	-1.08222	0	
0.7067	-3.58885	-1.38851	0	
0.7073	-4.81362	0.735093	0	
0.7080	-7.8613	1.34767	0	
0.7087	-6.94984	0.735093	0	
0.7093	-4.81362	-1.08222	0	
0.7100	-4.81362	-1.6948	0	
0.7107	-2.36409	-0.469643	0	
0.7113	-0.227864	-1.6948	0	
0.7120	-2.05077	-4.75768	0	
0.7127	-2.99071	-2.91995	0	
0.7133	-1.13932	2.57282	0	
0.7140	-2.05077	3.79798	0	
0.7147	-4.50031	1.04138	0	
0.7153	-2.05077	-1.08222	0	
0.7160	0.683591	-1.6948	0	
0.7167	-0.227864	-0.163354	0	
0.7173	-0.227864	1.34767	0	
0.7180	0.996903	0.428804	0	
0.7187	-1.13932	-1.08222	0	
0.7193	-3.90216	-1.08222	0	
0.7200	0.0854489	-0.469643	0	
0.7207	5.26935	-2.00109	0	
0.7213	4.35789	-3.83882	0	
0.7220	2.22167	-5.06397	0	
0.7227	3.13313	-4.75768	0	
0.7233	5.55418	-2.91995	0	
0.7240	6.49411	-0.163354	0	
0.7247	6.77894	0.735093	0	
0.7253	7.09226	-0.469643	0	
0.7260	8.00371	-2.00109	0	
0.7267	9.54179	-2.61366	0	
0.7273	9.22848	-2.91995	0	
0.7280	7.40557	-1.08222	0	
0.7287	5.55418	1.65396	0	
0.7293	1.90836	1.04138	0	
0.7300	-7.8613	0.122515	0	
0.7307	-16.7195	1.65396	0	
0.7313	-16.7195	0.735093	0	
0.7320	-14.5833	-2.00109	0	
0.7327	-12.7319	-0.469643	0	
0.7333	-7.54798	1.65396	0	
0.7340	-2.99071	0.428804	0	
0.7347	-1.76594	0.735093	0	
0.7353	3.41795	1.34767	0	
0.7360	11.9628	-1.08222	0	
0.7367	17.1752	-2.00109	0	
0.7373	19.5963	0.735093	0	
0.7380	18.0867	1.65396	0	
0.7387	11.0514	0.735093	0	
0.7393	6.49411	0.735093	0	
0.7400	7.09226	1.96025	0	
0.7407	4.64272	2.57282	0	
0.7413	2.81981	-0.163354	0	
0.7420	6.1808	-2.91995	0	
0.7427	7.40557	-0.469643	0	
0.7433	4.35789	1.04138	0	
0.7440	1.59505	-1.08222	0	
0.7447	-1.13932	-0.469643	0	
0.7453	-1.13932	1.65396	0	
0.7460	1.59505	-1.08222	0	
0.7467	0.996903	-3.83882	0	
0.7473	-1.76594	-2.30737	0	
0.7480	-1.45263	-1.38851	0	
0.7487	-1.13932	-1.08222	0	
0.7493	-0.854489	-2.00109	0	
0.7500	2.5065	-3.83882	0	
0.7507	4.95603	-3.53253	0	
0.7513	5.26935	-1.38851	0	
0.7520	6.1808	0.122515	0	
0.7527	6.77894	2.57282	0	
0.7533	4.95603	2.87911	0	
0.7540	4.35789	0.122515	0	
0.7547	4.35789	-0.163354	0	
0.7553	1.28173	1.04138	0	
0.7560	-0.541176	-1.08222	0	
0.7567	2.5065	-0.775931	0	
0.7573	5.26935	2.87911	0	
0.7580	5.26935	-0.163354	0	
0.7587	5.86749	-6.26871	0	
0.7593	7.40557	-3.83882	0	
0.7600	6.77894	-0.163354	0	
0.7607	4.04458	-1.6948	0	
0.7613	2.5065	-2.61366	0	
0.7620	0.370278	-3.22624	0	
0.7627	-2.36409	-5.06397	0	
0.7633	-2.99071	-3.83882	0	
0.7640	0.370278	-1.08222	0	
0.7647	0.996903	-3.53253	0	
0.7653	-2.99071	-3.83882	0	
0.7660	-4.50031	-1.38851	0	
0.7667	-2.6774	0.122515	0	
0.7673	-2.99071	1.96025	0	
0.7680	-4.81362	3.1854	0	
0.7687	-3.58885	-0.163354	0	
0.7693	-4.50031	-2.00109	0	
0.7700	-7.26315	-0.775931	0	
0.7707	-6.03839	-2.91995	0	
0.7713	-2.99071	-4.4514	0	
0.7720	-1.13932	-0.163354	0	
0.7727	1.59505	3.1854	0	
0.7733	3.73127	-1.38851	0	
0.7740	3.73127	-3.83882	0	
0.7747	2.5065	-2.00109	0	
0.7753	2.5065	-2.91995	0	
0.7760	2.5065	-5.65613	0	
0.7767	2.5065	-4.4514	0	
0.7773	2.81981	-2.61366	0	
0.7780	5.86749	-3.53253	0	
0.7787	6.77894	-3.83882	0	
0.7793	2.5065	-1.08222	0	
0.7800	0.996903	0.735093	0	
0.7807	2.5065	-0.163354	0	
0.7813	0.683591	-1.08222	0	
0.7820	-2.05077	-0.163354	0	
0.7827	-0.227864	1.04138	0	
0.7833	-2.05077	0.122515	0	
0.7840	-6.32322	-0.469643	0	
0.7847	-4.81362	1.04138	0	
0.7853	-2.99071	2.57282	0	
0.7860	-4.81362	1.65396	0	
0.7867	-3.27554	-0.163354	0	
0.7873	-1.76594	-1.38851	0	
0.7880	-4.18699	-2.91995	0	
0.7887	-5.72507	-2.91995	0	
0.7893	-5.72507	-2.30737	0	
0.7900	-7.54798	-2.61366	0	
0.7907	-8.17461	-1.6948	0	
0.7913	-6.94984	0.428804	0	
0.7920	-5.72507	-1.08222	0	
0.7927	-4.18699	-2.91995	0	
0.7933	-2.6774	-1.6948	0	
0.7940	-1.76594	-0.469643	0	
0.7947	-0.541176	-0.775931	0	
0.7953	-0.227864	0.735093	0	
0.7960	-1.13932	0.735093	0	
0.7967	-1.13932	-3.83882	0	
0.7973	-1.45263	-3.83882	0	
0.7980	-2.99071	1.65396	0	
0.7987	-2.36409	2.87911	0	
0.7993	0.370278	-0.775931	0	
0.8000	0.370278	-1.6948	0	
0.8007	-4.50031	0.428804	0	
0.8013	-7.8613	1.04138	0	
0.8020	-4.50031	0.735093	0	
0.8027	1.28173	0.428804	0	
0.8033	2.5065	0.428804	0	
0.8040	1.28173	0.428804	0	
0.8047	-0.227864	-0.469643	0	
0.8053	-1.13932	-1.08222	0	
0.8060	-0.854489	-0.775931	0	
0.8067	-1.13932	-1.08222	0	
0.8073	-2.99071	-0.775931	0	
0.8080	-3.58885	0.428804	0	
0.8087	-3.27554	-2.00109	0	
0.8093	-4.18699	-3.83882	0	
0.8100	-2.99071	0.735093	0	
0.8107	-1.13932	2.26654	0	
0.8113	-2.36409	-2.30737	0	
0.8120	-3.90216	-2.00109	0	
0.8127	-2.36409	2.26654	0	
0.8133	-0.227864	1.34767	0	
0.8140	1.59505	-1.6948	0	
0.8147	2.5065	-2.00109	0	
0.8153	3.73127	0.122515	0	
0.8160	6.77894	1.96025	0	
0.8167	8.00371	-1.08222	0	
0.8173	9.54179	-4.14511	0	
0.8180	11.9628	-2.91995	0	
0.8187	8.00371	-1.38851	0	
0.8193	-0.227864	-1.38851	0	
0.8200	-1.76594	0.735093	0	
0.8207	0.0854489	0.735093	0	
0.8213	-2.99071	-3.22624	0	
0.8220	-3.90216	-3.53253	0	
0.8227	-2.99071	-0.775931	0	
0.8233	-5.72507	-0.469643	0	
0.8240	-6.32322	-1.08222	0	
0.8247	-1.13932	0.122515	0	
0.8253	1.28173	1.65396	0	
0.8260	-0.541176	2.26654	0	
0.8267	-1.13932	2.57282	0	
0.8273	0.0854489	3.49169	0	
0.8280	0.996903	2.57282	0	
0.8287	-0.227864	-0.163354	0	
0.8293	-1.76594	0.122515	0	
0.8300	-1.13932	2.57282	0	
0.8307	-1.13932	1.04138	0	
0.8313	-2.36409	-2.00109	0	
0.8320	-0.227864	-1.08222	0	
0.8327	0.0854489	2.26654	0	
0.8333	-5.12693	2.57282	0	
0.8340	-8.45944	1.04138	0	
0.8347	-6.94984	0.428804	0	
0.8353	-4.81362	1.04138	0	
0.8360	-2.99071	1.96025	0	
0.8367	-3.90216	3.1854	0	
0.8373	-8.45944	3.49169	0	
0.8380	-12.1337	0.428804	0	
0.8387	-11.2223	-2.61366	0	
0.8393	-10.3108	-0.163354	0	
0.8400	-7.8613	1.34767	0	
0.8407	-0.541176	-3.83882	0	
0.8413	4.35789	-4.14511	0	
0.8420	4.35789	0.735093	0	
0.8427	6.49411	0.735093	0	
0.8433	11.678	0.122515	0	
0.8440	13.8142	3.49169	0	
0.8447	13.1876	2.26654	0	
0.8453	9.82662	-1.08222	0	
0.8460	1.59505	-0.163354	0	
0.8467	-5.72507	0.428804	0	
0.8473	-4.81362	-1.38851	0	
0.8480	-2.36409	-0.163354	0	
0.8487	-3.90216	1.65396	0	
0.8493	-5.41176	1.34767	0	
0.8500	-5.72507	1.96025	0	
0.8507	-4.81362	1.96025	0	
0.8513	-3.27554	0.735093	0	
0.8520	-3.27554	0.735093	0	
0.8527	-2.36409	2.57282	0	
0.8533	0.683591	4.10427	0	
0.8540	1.28173	1.65396	0	
0.8547	-1.45263	-2.91995	0	
0.8553	-2.36409	-2.00109	0	
0.8560	-2.05077	1.65396	0	
0.8567	-1.76594	0.735093	0	
0.8573	0.996903	-1.6948	0	
0.8580	4.04458	-0.469643	0	
0.8587	4.64272	0.428804	0	
0.8593	5.26935	-0.775931	0	
0.8600	6.1808	-0.163354	0	
0.8607	6.77894	1.34767	0	
0.8613	5.55418	1.65396	0	
0.8620	4.04458	1.65396	0	
0.8627	3.41795	1.96025	0	
0.8633	2.5065	1.65396	0	
0.8640	0.683591	-0.469643	0	
0.8647	0.996903	-1.38851	0	
0.8653	2.5065	0.735093	0	
0.8660	1.59505	2.26654	0	
0.8667	0.370278	0.428804	0	
0.8673	-0.854489	-1.08222	0	
0.8680	-3.27554	-1.08222	0	
0.8687	-6.03839	-1.08222	0	
0.8693	-7.54798	0.735093	0	
0.8700	-9.39938	1.65396	0	
0.8707	-10.3108	-0.775931	0	
0.8713	-7.8613	-1.38851	0	
0.8720	-7.26315	0.735093	0	
0.8727	-8.77275	-0.775931	0	
0.8733	-8.17461	-2.61366	0	
0.8740	-6.03839	1.04138	0	
0.8747	-5.72507	4.41056	0	
0.8753	-5.72507	1.65396	0	
0.8760	-3.90216	-0.163354	0	
0.8767	-2.36409	0.735093	0	
0.8773	-0.541176	0.735093	0	
0.8780	0.370278	-0.163354	0	
0.8787	-1.13932	-0.163354	0	
0.8793	-5.41176	-0.163354	0	
0.8800	-7.26315	0.428804	0	
0.8807	-2.99071	0.735093	0	
0.8813	2.5065	0.122515	0	
0.8820	1.59505	-0.775931	0	
0.8827	-2.05077	-0.775931	0	
0.8833	-3.90216	0.735093	0	
0.8840	-4.18699	0.735093	0	
0.8847	-3.90216	-2.00109	0	
0.8853	-4.81362	-2.61366	0	
0.8860	-7.54798	0.428804	0	
0.8867	-8.45944	1.34767	0	
0.8873	-7.26315	0.735093	0	
0.8880	-8.45944	-0.163354	0	
0.8887	-10.3108	-2.30737	0	
0.8893	-7.54798	-2.61366	0	
0.8900	-3.90216	-1.38851	0	
0.8907	-2.36409	-2.00109	0	
0.8913	-0.854489	-1.6948	0	
0.8920	-0.541176	0.428804	0	
0.8927	-2.99071	0.735093	0	
0.8933	-2.6774	0.735093	0	
0.8940	-2.05077	1.96025	0	
0.8947	-4.50031	1.65396	0	
0.8953	-4.18699	1.04138	0	
0.8960	0.370278	0.428804	0	
0.8967	3.13313	-0.775931	0	
0.8973	4.04458	0.122515	0	
0.8980	4.04458	0.735093	0	
0.8987	1.59505	-2.61366	0	
0.8993	0.370278	-4.75768	0	
0.9000	3.13313	-2.61366	0	
0.9007	5.26935	-0.163354	0	
0.9013	6.49411	0.122515	0	
0.9020	9.82662	0.428804	0	
0.9027	10.4532	0.428804	0	
0.9033	6.49411	0.735093	0	
0.9040	6.49411	0.735093	0	
0.9047	9.54179	-0.163354	0	
0.9053	8.63034	0.735093	0	
0.9060	5.55418	1.96025	0	
0.9067	3.41795	1.34767	0	
0.9073	1.90836	-0.163354	0	
0.9080	1.28173	-0.163354	0	
0.9087	0.683591	0.122515	0	
0.9093	-1.45263	1.04138	0	
0.9100	0.683591	1.96025	0	
0.9107	3.73127	1.04138	0	
0.9113	-0.227864	0.735093	0	
0.9120	-8.77275	1.65396	0	
0.9127	-12.7319	1.34767	0	
0.9133	-11.8204	0.122515	0	
0.9140	-8.17461	1.34767	0	
0.9147	-4.81362	1.04138	0	
0.9153	-3.27554	-0.469643	0	
0.9160	-0.541176	1.04138	0	
0.9167	3.41795	4.10427	0	
0.9173	5.26935	2.87911	0	
0.9180	4.95603	1.65396	0	
0.9187	6.49411	2.57282	0	
0.9193	5.86749	1.65396	0	
0.9200	1.90836	1.04138	0	
0.9207	1.59505	3.49169	0	
0.9213	4.95603	4.41056	0	
0.9220	4.64272	3.49169	0	
0.9227	0.0854489	1.96025	0	
0.9233	-3.90216	1.04138	0	
0.9240	-7.54798	1.96025	0	
0.9247	-9.6842	3.49169	0	
0.9253	-6.32322	1.65396	0	
0.9260	-2.6774	-1.6948	0	
0.9267	-2.6774	-0.469643	0	
0.9273	-1.45263	2.57282	0	
0.9280	0.683591	2.57282	0	
0.9287	-1.13932	2.26654	0	
0.9293	-2.99071	2.57282	0	
0.9300	-2.05077	2.57282	0	
0.9307	-3.58885	3.1854	0	
0.9313	-6.94984	5.02313	0	
0.9320	-7.8613	3.79798	0	
0.9327	-6.32322	0.428804	0	
0.9333	-4.50031	0.735093	0	
0.9340	-3.90216	2.57282	0	
0.9347	-4.81362	2.57282	0	
0.9353	-4.81362	2.57282	0	
0.9360	-3.90216	1.65396	0	
0.9367	-2.05077	0.122515	0	
0.9373	-0.227864	1.34767	0	
0.9380	1.28173	2.26654	0	
0.9387	2.81981	0.122515	0	
0.9393	4.35789	0.735093	0	
0.9400	3.13313	2.57282	0	
0.9407	0.683591	0.735093	0	
0.9413	0.683591	0.735093	0	
0.9420	0.996903	4.10427	0	
0.9427	-0.227864	2.87911	0	
0.9433	-0.227864	1.04138	0	
0.9440	-2.36409	3.1854	0	
0.9447	-8.45944	1.04138	0	
0.9453	-12.1337	-3.53253	0	
0.9460	-11.2223	-1.6948	0	
0.9467	-11.2223	1.96025	0	
0.9473	-13.0452	-0.163354	0	
0.9480	-12.1337	-1.08222	0	
0.9487	-9.6842	2.57282	0	
0.9493	-8.45944	3.49169	0	
0.9500	-6.03839	-0.163354	0	
0.9507	-2.6774	-1.08222	0	
0.9513	-4.18699	1.04138	0	
0.9520	-11.5356	0.735093	0	
0.9527	-14.5833	-0.163354	0	
0.9533	-11.5356	1.34767	0	
0.9540	-11.5356	0.735093	0	
0.9547	-11.2223	-0.163354	0	
0.9553	-3.58885	1.34767	0	
0.9560	0.683591	2.87911	0	
0.9567	0.683591	2.57282	0	
0.9573	12.2762	1.04138	0	
0.9580	29.9926	1.65396	0	
0.9587	31.5021	3.79798	0	
0.9593	20.5077	6.22787	0	
0.9600	14.7257	5.32942	0	
0.9607	14.7257	3.49169	0	
0.9613	12.5895	2.57282	0	
0.9620	8.91516	0.735093	0	
0.9627	5.26935	-0.163354	0	
0.9633	2.5065	-1.38851	0	
0.9640	4.35789	-2.91995	0	
0.9647	7.6904	-2.61366	0	
0.9653	9.22848	-1.38851	0	
0.9660	10.1399	-2.30737	0	
0.9667	10.1399	-2.00109	0	
0.9673	7.6904	-1.08222	0	
0.9680	4.95603	-4.4514	0	
0.9687	4.64272	-5.37026	0	
0.9693	4.64272	-1.08222	0	
0.9700	2.5065	0.428804	0	
0.9707	-1.13932	-1.6948	0	
0.9713	-2.99071	-2.00109	0	
0.9720	-3.58885	-2.91995	0	
0.9727	-3.58885	-4.14511	0	
0.9733	-3.58885	-2.61366	0	
0.9740	-3.27554	-1.08222	0	
0.9747	-0.854489	-2.91995	0	
0.9753	3.73127	-4.4514	0	
0.9760	8.00371	-3.83882	0	
0.9767	8.91516	-2.91995	0	
0.9773	8.00371	-3.53253	0	
0.9780	8.63034	-3.83882	0	
0.9787	8.63034	-3.53253	0	
0.9793	4.35789	-4.4514	0	
0.9800	2.22167	-6.26871	0	
0.9807	5.55418	-4.75768	0	
0.9813	8.63034	-2.91995	0	
0.9820	6.77894	-3.83882	0	
0.9827	6.1808	-2.91995	0	
0.9833	8.00371	0.735093	0	
0.9840	6.77894	-0.469643	0	
0.9847	5.26935	-3.83882	0	
0.9853	4.95603	-3.83882	0	
0.9860	2.5065	-2.61366	0	
0.9867	0.996903	-2.30737	0	
0.9873	2.5065	0.122515	0	
0.9880	2.5065	0.122515	0	
0.9887	2.5065	-3.22624	0	
0.9893	6.1808	-2.91995	0	
0.9900	8.91516	0.735093	0	
0.9907	4.35789	1.04138	0	
0.9913	0.683591	0.122515	0	
0.9920	3.13313	-1.08222	0	
0.9927	7.09226	-2.91995	0	
0.9933	8.31702	-1.38851	0	
0.9940	8.91516	0.428804	0	
0.9947	8.00371	-2.00109	0	
0.9953	4.64272	-2.91995	0	
0.9960	3.73127	-1.08222	0	
0.9967	6.49411	-3.22624	0	
0.9973	7.40557	-4.4514	0	
0.9980	6.77894	-1.6948	0	
0.9987	7.09226	-1.38851	0	
0.9993	6.49411	-3.53253	0	
1.0000	4.95603	-2.91995	0	
1.0007	3.13313	-2.91995	0	
1.0013	-0.227864	-4.14511	0	
1.0020	-3.27554	-3.83882	0	
1.0027	-2.36409	-2.30737	0	
1.0033	-1.13932	-0.469643	0	
1.0040	-1.76594	1.04138	0	
1.0047	-2.99071	0.428804	0	
1.0053	-5.72507	-0.163354	0	
1.0060	-8.45944	-0.163354	0	
1.0067	-9.39938	-1.6948	0	
1.0073	-10.3108	-2.91995	0	
1.0080	-11.5356	-3.53253	0	
1.0087	-8.77275	-5.06397	0	
1.0093	-3.90216	-3.83882	0	
1.0100	-2.05077	0.735093	0	
1.0107	-1.76594	-0.469643	0	
1.0113	-2.36409	-3.83882	0	
1.0120	-4.18699	-2.00109	0	
1.0127	-4.50031	-1.38851	0	
1.0133	-3.27554	-3.83882	0	
1.0140	-4.81362	-1.6948	0	
1.0147	-7.54798	0.735093	0	
1.0153	-6.63653	-0.163354	0	
1.0160	-4.50031	-0.163354	0	
1.0167	-3.27554	-1.6948	0	
1.0173	-1.76594	-5.65613	0	
1.0180	1.59505	-3.83882	0	
1.0187	4.64272	0.122515	0	
1.0193	7.6904	-0.469643	0	
1.0200	8.00371	-1.08222	0	
1.0207	6.1808	0.735093	0	
1.0213	5.55418	0.428804	0	
1.0220	4.64272	-0.469643	0	
1.0227	1.59505	0.122515	0	
1.0233	-1.76594	-0.469643	0	
1.0240	-2.99071	-1.08222	0	
1.0247	-1.13932	-2.00109	0	
1.0253	0.683591	-5.06397	0	
1.0260	-1.13932	-4.14511	0	
1.0267	-6.63653	-1.08222	0	
1.0273	-11.2223	-2.00109	0	
1.0280	-9.6842	-2.00109	0	
1.0287	-3.27554	0.735093	0	
1.0293	0.370278	0.735093	0	
1.0300	-0.854489	0.122515	0	
1.0307	-0.227864	2.57282	0	
1.0313	2.22167	0.735093	0	
1.0320	-1.76594	-0.775931	0	
1.0327	-8.77275	1.65396	0	
1.0333	-10.909	0.122515	0	
1.0340	-8.45944	-3.22624	0	
1.0347	-6.63653	-0.775931	0	
1.0353	-6.32322	1.96025	0	
1.0360	-5.72507	0.428804	0	
1.0367	-5.72507	-0.163354	0	
1.0373	-8.45944	0.428804	0	
1.0380	-6.94984	-0.163354	0	
1.0387	-0.227864	-0.163354	0	
1.0393	1.28173	-1.08222	0	
1.0400	-0.541176	-2.61366	0	
1.0407	4.35789	-1.08222	0	
1.0413	9.82662	1.96025	0	
1.0420	8.00371	0.735093	0	
1.0427	4.04458	-2.00109	0	
1.0433	0.0854489	-1.08222	0	
1.0440	-2.99071	0.735093	0	
1.0447	-0.541176	-0.775931	0	
1.0453	-0.541176	-1.6948	0	
1.0460	-7.54798	-0.163354	0	
1.0467	-13.6718	0.735093	0	
1.0473	-16.4062	0.735093	0	
1.0480	-18.2291	2.57282	0	
1.0487	-14.27	3.1854	0	
1.0493	-6.63653	1.65396	0	
1.0500	-2.99071	1.04138	0	
1.0507	-1.13932	-1.08222	0	
1.0513	2.22167	-3.83882	0	
1.0520	7.40557	-3.83882	0	
1.0527	11.678	-0.469643	0	
1.0533	13.1876	0.428804	0	
1.0540	12.9028	-1.6948	0	
1.0547	11.3647	-3.83882	0	
1.0553	6.1808	-2.91995	0	
1.0560	3.13313	-2.00109	0	
1.0567	6.77894	-2.00109	0	
1.0573	8.31702	-1.08222	0	
1.0580	5.55418	-0.469643	0	
1.0587	6.77894	-2.00109	0	
1.0593	8.91516	-3.22624	0	
1.0600	5.26935	-2.00109	0	
1.0607	2.5065	-1.08222	0	
1.0613	2.81981	-0.469643	0	
1.0620	2.22167	0.122515	0	
1.0627	0.370278	-1.38851	0	
1.0633	0.370278	-2.91995	0	
1.0640	1.59505	-0.775931	0	
1.0647	2.5065	1.65396	0	
1.0653	2.5065	2.26654	0	
1.0660	1.90836	3.49169	0	
1.0667	2.22167	5.02313	0	
1.0673	2.22167	6.22787	0	
1.0680	-0.227864	5.92158	0	
1.0687	-5.41176	2.87911	0	
1.0693	-11.2223	-1.38851	0	
1.0700	-12.1337	-2.00109	0	
1.0707	-8.45944	1.65396	0	
1.0713	-7.26315	3.49169	0	
1.0720	-9.08606	1.04138	0	
1.0727	-7.8613	0.428804	0	
1.0733	-4.81362	2.57282	0	
1.0740	-2.05077	1.65396	0	
1.0747	3.13313	-0.775931	0	
1.0753	10.1399	0.428804	0	
1.0760	12.2762	0.428804	0	
1.0767	10.4532	-2.00109	0	
1.0773	7.6904	-1.08222	0	
1.0780	5.86749	1.96025	0	
1.0787	4.35789	1.04138	0	
1.0793	3.41795	-0.775931	0	
1.0800	2.5065	-0.775931	0	
1.0807	1.59505	-2.00109	0	
1.0813	0.0854489	-2.61366	0	
1.0820	0.683591	-0.775931	0	
1.0827	2.5065	0.735093	0	
1.0833	1.59505	-1.08222	0	
1.0840	-0.854489	-2.00109	0	
1.0847	0.370278	0.122515	0	
1.0853	0.683591	2.57282	0	
1.0860	-3.90216	1.34767	0	
1.0867	-6.03839	-1.38851	0	
1.0873	-4.50031	0.122515	0	
1.0880	-4.81362	2.57282	0	
1.0887	-7.54798	2.26654	0	
1.0893	-7.54798	0.735093	0	
1.0900	-5.12693	0.428804	0	
1.0907	-3.90216	0.428804	0	
1.0913	-5.12693	2.57282	0	
1.0920	-5.72507	3.79798	0	
1.0927	-2.05077	-0.163354	0	
1.0933	-0.541176	-2.91995	0	
1.0940	-4.81362	-0.163354	0	
1.0947	-8.77275	0.735093	0	
1.0953	-8.77275	-0.163354	0	
1.0960	-7.54798	2.57282	0	
1.0967	-4.18699	3.49169	0	
1.0973	1.28173	-1.38851	0	
1.0980	4.04458	-2.00109	0	
1.0987	3.13313	1.65396	0	
1.0993	0.996903	0.735093	0	
1.1000	0.0854489	-1.08222	0	
1.1007	0.683591	0.735093	0	
1.1013	0.683591	1.65396	0	
1.1020	-0.854489	-0.163354	0	
1.1027	-2.6774	-1.08222	0	
1.1033	-3.58885	1.34767	0	
1.1040	-2.99071	2.26654	0	
1.1047	0.0854489	-1.08222	0	
1.1053	1.90836	-1.6948	0	
1.1060	-0.227864	0.428804	0	
1.1067	-2.36409	-2.00109	0	
1.1073	-2.05077	-2.91995	0	
1.1080	-2.05077	0.735093	0	
1.1087	-3.58885	-0.163354	0	
1.1093	-5.72507	-4.75768	0	
1.1100	-7.8613	-1.08222	0	
1.1107	-7.26315	2.57282	0	
1.1113	-3.27554	-1.08222	0	
1.1120	-1.45263	-2.91995	0	
1.1127	-4.18699	-0.163354	0	
1.1133	-8.45944	0.428804	0	
1.1140	-8.77275	0.735093	0	
1.1147	-3.90216	1.34767	0	
1.1153	1.28173	0.428804	0	
1.1160	2.5065	0.122515	0	
1.1167	2.5065	0.122515	0	
1.1173	1.59505	-1.38851	0	
1.1180	2.5065	-1.6948	0	
1.1187	6.1808	0.735093	0	
1.1193	8.63034	2.26654	0	
1.1200	7.40557	-0.163354	0	
1.1207	5.26935	-3.83882	0	
1.1213	2.81981	-3.83882	0	
1.1220	3.13313	-1.08222	0	
1.1227	5.26935	-1.38851	0	
1.1233	2.22167	-4.14511	0	
1.1240	-5.41176	-4.4514	0	
1.1247	-6.63653	-3.22624	0	
1.1253	-3.90216	-1.6948	0	
1.1260	-2.36409	-0.163354	0	
1.1267	-1.13932	-1.6948	0	
1.1273	-1.13932	-3.53253	0	
1.1280	-2.99071	-2.00109	0	
1.1287	-2.99071	-1.08222	0	
1.1293	-0.541176	-2.91995	0	
1.1300	0.370278	-2.00109	0	
1.1307	-0.541176	-0.163354	0	
1.1313	-2.99071	-1.6948	0	
1.1320	-5.12693	-2.00109	0	
1.1327	-6.94984	1.65396	0	
1.1333	-8.77275	1.04138	0	
1.1340	-7.54798	-2.91995	0	
1.1347	-7.26315	-2.91995	0	
1.1353	-8.45944	0.122515	0	
1.1360	0.683591	0.428804	0	
1.1367	14.7257	0.122515	0	
1.1373	15.039	0.735093	0	
1.1380	8.91516	-1.08222	0	
1.1387	11.3647	-1.6948	0	
1.1393	11.3647	0.735093	0	
1.1400	6.1808	1.65396	0	
1.1407	6.49411	0.122515	0	
1.1413	7.09226	-0.775931	0	
1.1420	1.59505	-0.775931	0	
1.1427	-0.227864	-0.163354	0	
1.1433	1.59505	-0.775931	0	
1.1440	-0.227864	-2.91995	0	
1.1447	-2.6774	-3.22624	0	
1.1453	-1.13932	-2.00109	0	
1.1460	0.370278	-2.00109	0	
1.1467	-0.854489	-2.30737	0	
1.1473	-2.05077	-2.00109	0	
1.1480	0.0854489	-2.91995	0	
1.1487	5.26935	-3.83882	0	
1.1493	8.63034	-3.83882	0	
1.1500	10.1399	-3.83882	0	
1.1507	13.5009	-2.00109	0	
1.1513	17.1752	-1.08222	0	
1.1520	16.8619	-2.30737	0	
1.1527	13.1876	-3.22624	0	
1.1533	8.91516	-2.30737	0	
1.1540	5.55418	-1.38851	0	
1.1547	2.5065	-1.38851	0	
1.1553	1.59505	-1.6948	0	
1.1560	4.04458	-1.6948	0	
1.1567	5.55418	-0.775931	0	
1.1573	4.95603	-1.08222	0	
1.1580	5.26935	-3.22624	0	
1.1587	4.95603	-2.61366	0	
1.1593	2.81981	0.122515	0	
1.1600	1.59505	1.04138	0	
1.1607	0.996903	0.735093	0	
1.1613	1.28173	-0.775931	0	
1.1620	3.73127	-2.00109	0	
1.1627	4.35789	-0.775931	0	
1.1633	-0.227864	-1.08222	0	
1.1640	-2.99071	-3.83882	0	
1.1647	-1.13932	-2.00109	0	
1.1653	0.370278	1.65396	0	
1.1660	2.22167	0.735093	0	
1.1667	3.41795	-1.08222	0	
1.1673	-0.227864	-1.08222	0	
1.1680	-4.81362	-1.6948	0	
1.1687	-3.27554	-1.08222	0	
1.1693	-1.76594	0.428804	0	
1.1700	-2.99071	0.122515	0	
1.1707	-3.90216	1.04138	0	
1.1713	-3.90216	1.96025	0	
1.1720	-3.90216	-0.163354	0	
1.1727	-1.45263	0.428804	0	
1.1733	0.683591	3.49169	0	
1.1740	-0.541176	3.1854	0	
1.1747	-2.99071	1.34767	0	
1.1753	-2.99071	1.04138	0	
1.1760	0.996903	-1.08222	0	
1.1767	4.04458	-2.30737	0	
1.1773	1.59505	-0.163354	0	
1.1780	-2.05077	0.735093	0	
1.1787	-0.541176	0.735093	0	
1.1793	0.996903	1.34767	0	
1.1800	-0.854489	0.428804	0	
1.1807	-2.05077	-0.163354	0	
1.1813	-1.13932	1.34767	0	
1.1820	1.28173	1.65396	0	
1.1827	2.5065	0.428804	0	
1.1833	0.0854489	0.735093	0	
1.1840	-2.6774	0.428804	0	
1.1847	-4.18699	-1.6948	0	
1.1853	-6.32322	-2.91995	0	
1.1860	-6.03839	-3.53253	0	
1.1867	-4.81362	-2.00109	0	
1.1873	-6.03839	0.735093	0	
1.1880	-6.63653	3.1854	0	
1.1887	-4.18699	2.57282	0	
1.1893	-4.81362	-0.163354	0	
1.1900	-5.41176	-0.163354	0	
1.1907	-2.99071	2.57282	0	
1.1913	-2.99071	2.26654	0	
1.1920	-6.03839	-0.163354	0	
1.1927	-5.72507	0.122515	0	
1.1933	-2.05077	0.428804	0	
1.1940	-0.541176	-1.6948	0	
1.1947	0.683591	-2.00109	0	
1.1953	1.28173	0.122515	0	
1.1960	-0.227864	1.34767	0	
1.1967	-1.76594	1.34767	0	
1.1973	-2.99071	1.04138	0	
1.1980	-5.12693	1.34767	0	
1.1987	-3.90216	2.57282	0	
1.1993	-1.45263	2.57282	0	
1.2000	-2.6774	2.26654	0	
1.2007	-3.58885	1.96025	0	
1.2013	-0.854489	-0.775931	0	
1.2020	1.28173	-3.83882	0	
1.2027	0.996903	-2.00109	0	
1.2033	0.996903	-0.163354	0	
1.2040	-0.854489	-1.38851	0	
1.2047	-3.58885	-0.775931	0	
1.2053	-5.72507	0.122515	0	
1.2060	-9.6842	-2.91995	0	
1.2067	-14.8681	-3.83882	0	
1.2073	-20.0805	0.428804	0	
1.2080	-21.2768	1.65396	0	
1.2087	-13.9566	-0.469643	0	
1.2093	-4.81362	0.735093	0	
1.2100	-3.90216	3.49169	0	
1.2107	-2.36409	2.87911	0	
1.2113	3.41795	1.34767	0	
1.2120	4.35789	0.735093	0	
1.2127	2.81981	1.04138	0	
1.2133	6.1808	1.04138	0	
1.2140	5.86749	-0.163354	0	
1.2147	-1.45263	-1.08222	0	
1.2153	-3.90216	-0.775931	0	
1.2160	-1.13932	-1.08222	0	
1.2167	-1.76594	-1.08222	0	
1.2173	-2.05077	1.04138	0	
1.2180	-1.13932	0.428804	0	
1.2187	-3.58885	-4.75768	0	
1.2193	-2.6774	-4.75768	0	
1.2200	4.64272	-0.469643	0	
1.2207	8.00371	-0.775931	0	
1.2213	4.35789	-2.00109	0	
1.2220	1.59505	-1.08222	0	
1.2227	0.370278	-2.00109	0	
1.2233	-2.05077	-4.4514	0	
1.2240	-1.76594	-3.83882	0	
1.2247	1.90836	-2.30737	0	
1.2253	4.04458	-2.30737	0	
1.2260	4.35789	-1.08222	0	
1.2267	3.13313	0.122515	0	
1.2273	-0.227864	-0.469643	0	
1.2280	-1.76594	-0.469643	0	
1.2287	-0.227864	-0.775931	0	
1.2293	-1.13932	-2.30737	0	
1.2300	-1.45263	-2.00109	0	
1.2307	2.5065	-0.775931	0	
1.2313	5.26935	-0.469643	0	
1.2320	3.41795	0.735093	0	
1.2327	3.13313	3.1854	0	
1.2333	4.04458	1.65396	0	
1.2340	3.41795	-2.30737	0	
1.2347	3.73127	-2.91995	0	
1.2353	5.55418	-0.469643	0	
1.2360	5.26935	-0.163354	0	
1.2367	4.35789	-1.38851	0	
1.2373	4.35789	-0.775931	0	
1.2380	3.13313	1.34767	0	
1.2387	1.59505	-0.163354	0	
1.2393	2.5065	-2.30737	0	
1.2400	1.90836	-2.30737	0	
1.2407	0.0854489	-2.30737	0	
1.2413	-0.854489	-3.53253	0	
1.2420	-3.58885	-1.6948	0	
1.2427	-6.63653	1.65396	0	
1.2433	-4.50031	1.65396	0	
1.2440	-2.99071	-0.163354	0	
1.2447	-5.12693	-1.6948	0	
1.2453	-3.27554	-1.08222	0	
1.2460	-0.541176	0.122515	0	
1.2467	-2.6774	-0.469643	0	
1.2473	-2.36409	-2.00109	0	
1.2480	-1.13932	-1.6948	0	
1.2487	-9.39938	1.04138	0	
1.2493	-18.5424	2.57282	0	
1.2500	-17.3176	1.34767	0	
1.2507	-15.1814	-0.775931	0	
1.2513	-14.5833	-1.08222	0	
1.2520	-9.08606	0.122515	0	
1.2527	-4.81362	1.65396	0	
1.2533	-3.90216	1.96025	0	
1.2540	2.81981	1.65396	0	
1.2547	12.2762	1.65396	0	
1.2553	15.3238	1.96025	0	
1.2560	15.9505	-1.08222	0	
1.2567	15.9505	-3.83882	0	
1.2573	12.5895	-2.91995	0	
1.2580	12.5895	-2.00109	0	
1.2587	13.5009	-3.83882	0	
1.2593	7.40557	-2.61366	0	
1.2600	2.81981	-1.08222	0	
1.2607	6.77894	-3.83882	0	
1.2613	7.40557	-4.75768	0	
1.2620	2.5065	-1.38851	0	
1.2627	0.683591	-0.163354	0	
1.2633	-0.541176	-2.61366	0	
1.2640	-3.90216	-2.61366	0	
1.2647	-2.99071	-1.38851	0	
1.2653	0.0854489	-1.08222	0	
1.2660	-1.13932	-0.775931	0	
1.2667	-2.99071	-1.38851	0	
1.2673	-0.541176	-2.91995	0	
1.2680	2.81981	-3.83882	0	
1.2687	6.1808	-2.30737	0	
1.2693	9.82662	0.735093	0	
1.2700	12.2762	1.04138	0	
1.2707	12.2762	-1.08222	0	
1.2713	10.1399	-0.163354	0	
1.2720	7.6904	0.735093	0	
1.2727	8.00371	-2.00109	0	
1.2733	10.7666	-1.6948	0	
1.2740	11.3647	1.04138	0	
1.2747	9.82662	-0.469643	0	
1.2753	9.82662	-2.00109	0	
1.2760	11.3647	0.122515	0	
1.2767	10.4532	-0.163354	0	
1.2773	7.40557	-2.91995	0	
1.2780	4.35789	-3.83882	0	
1.2787	2.5065	-3.83882	0	
1.2793	0.996903	-2.30737	0	
1.2800	1.59505	1.04138	0	
1.2807	3.41795	-0.163354	0	
1.2813	4.64272	-3.83882	0	
1.2820	5.55418	-4.14511	0	
1.2827	7.09226	-3.22624	0	
1.2833	8.91516	-3.83882	0	
1.2840	8.00371	-5.06397	0	
1.2847	6.49411	-5.06397	0	
1.2853	8.00371	-3.83882	0	
1.2860	10.7666	-1.6948	0	
1.2867	8.63034	-2.00109	0	
1.2873	4.35789	-3.83882	0	
1.2880	5.55418	-3.83882	0	
1.2887	9.22848	-1.6948	0	
1.2893	9.82662	-1.08222	0	
1.2900	9.54179	-1.6948	0	
1.2907	8.00371	-1.08222	0	
1.2913	5.26935	-0.469643	0	
1.2920	4.64272	-1.08222	0	
1.2927	4.35789	-2.00109	0	
1.2933	2.22167	-2.61366	0	
1.2940	2.22167	-2.91995	0	
1.2947	4.35789	-0.469643	0	
1.2953	2.5065	1.96025	0	
1.2960	0.370278	0.122515	0	
1.2967	1.90836	-2.91995	0	
1.2973	1.59505	-1.38851	0	
1.2980	-2.05077	1.04138	0	
1.2987	-1.45263	-0.163354	0	
1.2993	3.73127	-3.83882	0	
1.3000	7.6904	-5.37026	0	
1.3007	6.1808	-2.91995	0	
1.3013	3.73127	-0.163354	0	
1.3020	5.26935	0.122515	0	
1.3027	7.09226	1.04138	0	
1.3033	6.1808	0.122515	0	
1.3040	6.1808	-2.91995	0	
1.3047	5.26935	-2.61366	0	
1.3053	0.370278	-0.163354	0	
1.3060	-3.90216	-2.61366	0	
1.3067	-5.72507	-5.06397	0	
1.3073	-8.17461	-2.61366	0	
1.3080	-8.17461	0.122515	0	
1.3087	-7.54798	-0.775931	0	
1.3093	-11.8204	-3.22624	0	
1.3100	-13.9566	-4.4514	0	
1.3107	-10.909	-2.00109	0	
1.3113	-9.39938	0.122515	0	
1.3120	-7.8613	-2.00109	0	
1.3127	-0.854489	-2.61366	0	
1.3133	3.41795	-0.469643	0	
1.3140	1.90836	-2.00109	0	
1.3147	0.683591	-4.14511	0	
1.3153	1.90836	-2.00109	0	
1.3160	1.28173	1.65396	0	
1.3167	-1.45263	2.26654	0	
1.3173	-3.90216	-1.38851	0	
1.3180	-2.6774	-4.14511	0	
1.3187	1.59505	-2.30737	0	
1.3193	3.41795	-0.469643	0	
1.3200	4.64272	-2.61366	0	
1.3207	8.00371	-2.61366	0	
1.3213	11.0514	-2.00109	0	
1.3220	10.7666	-4.75768	0	
1.3227	8.63034	-5.65613	0	
1.3233	8.00371	-3.22624	0	
1.3240	7.6904	-3.83882	0	
1.3247	6.49411	-4.75768	0	
1.3253	3.13313	-2.00109	0	
1.3260	-1.13932	-1.6948	0	
1.3267	-4.18699	-2.91995	0	
1.3273	-5.12693	-1.6948	0	
1.3280	-6.32322	-1.08222	0	
1.3287	-8.45944	-2.30737	0	
1.3293	-10.3108	-2.00109	0	
1.3300	-10.3108	-0.469643	0	
1.3307	-8.45944	0.428804	0	
1.3313	-6.94984	1.65396	0	
1.3320	-7.26315	1.04138	0	
1.3327	-7.54798	-0.775931	0	
1.3333	-5.72507	-0.775931	0	
1.3340	-5.12693	0.428804	0	
1.3347	-6.94984	0.735093	0	
1.3353	-7.8613	1.96025	0	
1.3360	-6.94984	3.49169	0	
1.3367	-5.72507	0.735093	0	
1.3373	-6.32322	-1.6948	0	
1.3380	-7.26315	-1.08222	0	
1.3387	-7.26315	-0.163354	0	
1.3393	-5.72507	-0.775931	0	
1.3400	-2.99071	0.122515	0	
1.3407	-2.99071	1.65396	0	
1.3413	-6.32322	2.26654	0	
1.3420	-9.08606	3.49169	0	
1.3427	-8.45944	3.49169	0	
1.3433	-7.54798	2.87911	0	
1.3440	-9.6842	2.87911	0	
1.3447	-10.909	4.41056	0	
1.3453	-8.77275	4.41056	0	
1.3460	-6.63653	2.57282	0	
1.3467	-6.32322	0.735093	0	
1.3473	-5.72507	1.65396	0	
1.3480	-3.90216	3.1854	0	
1.3487	-4.50031	3.79798	0	
1.3493	-6.94984	4.10427	0	
1.3500	-9.39938	3.49169	0	
1.3507	-11.2223	1.34767	0	
1.3513	-11.5356	0.428804	0	
1.3520	-10.909	0.735093	0	
1.3527	-10.3108	-0.163354	0	
1.3533	-12.1337	-0.163354	0	
1.3540	-13.9566	2.57282	0	
1.3547	-13.0452	3.49169	0	
1.3553	-10.5957	1.96025	0	
1.3560	-10.3108	1.65396	0	
1.3567	-8.77275	1.65396	0	
1.3573	-6.03839	0.122515	0	
1.3580	-4.81362	0.428804	0	
1.3587	-4.50031	1.65396	0	
1.3593	-3.58885	2.87911	0	
1.3600	-2.05077	4.10427	0	
1.3607	-1.13932	4.10427	0	
1.3613	-3.58885	3.79798	0	
1.3620	-6.32322	6.22787	0	
1.3627	-6.63653	5.32942	0	
1.3633	-9.39938	1.65396	0	
1.3640	-14.8681	1.65396	0	
1.3647	-17.6309	3.79798	0	
1.3653	-18.5424	1.65396	0	
1.3660	-18.5424	0.735093	0	
1.3667	-12.1337	2.57282	0	
1.3673	-6.94984	2.87911	0	
1.3680	-9.39938	3.49169	0	
1.3687	-10.909	5.61529	0	
1.3693	-9.6842	6.22787	0	
1.3700	-10.909	5.92158	0	
1.3707	-10.3108	6.22787	0	
1.3713	-6.63653	4.41056	0	
1.3720	-8.45944	4.71685	0	
1.3727	-12.4471	6.53416	0	
1.3733	-12.7319	4.71685	0	
1.3740	-12.7319	4.41056	0	
1.3747	-13.6718	8.67818	0	
1.3753	-10.909	8.98447	0	
1.3760	-6.94984	4.10427	0	
1.3767	-6.32322	3.1854	0	
1.3773	-5.72507	5.32942	0	
1.3780	-5.12693	4.41056	0	
1.3787	-9.08606	3.49169	0	
1.3793	-16.0929	4.41056	0	
1.3800	-21.5901	4.41056	0	
1.3807	-24.0396	3.49169	0	
1.3813	-22.5015	3.49169	0	
1.3820	-17.6309	1.96025	0	
1.3827	-11.5356	0.428804	0	
1.3833	-9.6842	2.57282	0	
1.3840	-12.1337	5.32942	0	
1.3847	-11.8204	5.92158	0	
1.3853	-6.03839	5.32942	0	
1.3860	-1.45263	5.32942	0	
1.3867	-0.854489	6.22787	0	
1.3873	-1.13932	8.67818	0	
1.3880	-3.27554	8.0656	0	
1.3887	-8.77275	5.32942	0	
1.3893	-12.7319	3.49169	0	
1.3900	-12.1337	4.41056	0	
1.3907	-11.8204	8.0656	0	
1.3913	-13.9566	10.5159	0	
1.3920	-14.8681	8.67818	0	
1.3927	-12.1337	8.67818	0	
1.3933	-10.3108	10.8222	0	
1.3940	-10.909	10.2096	0	
1.3947	-9.99752	9.29076	0	
1.3953	-7.54798	8.0656	0	
1.3960	-6.32322	5.32942	0	
1.3967	-5.72507	4.41056	0	
1.3973	-2.99071	4.71685	0	
1.3980	-0.854489	3.1854	0	
1.3987	0.0854489	5.02313	0	
1.3993	0.683591	8.0656	0	
1.4000	0.0854489	5.92158	0	
1.4007	-0.854489	2.57282	0	
1.4013	-1.76594	1.34767	0	
1.4020	-3.58885	0.122515	0	
1.4027	-4.81362	1.04138	0	
1.4033	-5.41176	3.1854	0	
1.4040	-7.26315	3.1854	0	
1.4047	-6.63653	4.10427	0	
1.4053	-3.27554	5.61529	0	
1.4060	-2.99071	3.79798	0	
1.4067	-4.18699	2.26654	0	
1.4073	-2.6774	3.79798	0	
1.4080	-4.81362	3.79798	0	
1.4087	-11.8204	3.1854	0	
1.4093	-11.8204	4.10427	0	
1.4100	-6.32322	3.79798	0	
1.4107	-5.72507	2.57282	0	
1.4113	-5.72507	2.26654	0	
1.4120	-4.81362	2.57282	0	
1.4127	-6.94984	2.26654	0	
1.4133	-7.26315	1.65396	0	
1.4140	-2.05077	-0.163354	0	
1.4147	-0.541176	1.34767	0	
1.4153	-3.58885	5.92158	0	
1.4160	0.683591	4.41056	0	
1.4167	10.1399	-1.08222	0	
1.4173	11.0514	-1.08222	0	
1.4180	4.04458	-0.163354	0	
1.4187	3.13313	-1.08222	0	
1.4193	9.82662	-0.163354	0	
1.4200	13.5009	-0.163354	0	
1.4207	15.039	-2.00109	0	
1.4213	18.6848	-0.469643	0	
1.4220	19.3114	0.122515	0	
1.4227	15.3238	-2.91995	0	
1.4233	12.2762	-3.53253	0	
1.4240	10.4532	-1.6948	0	
1.4247	8.00371	-1.08222	0	
1.4253	4.35789	-0.775931	0	
1.4260	-0.854489	-1.08222	0	
1.4267	-4.50031	-2.91995	0	
1.4273	-4.50031	-2.00109	0	
1.4280	-3.58885	0.122515	0	
1.4287	-6.63653	-1.08222	0	
1.4293	-10.3108	-2.91995	0	
1.4300	-9.39938	-2.61366	0	
1.4307	-4.81362	-2.00109	0	
1.4313	-2.6774	-3.83882	0	
1.4320	-1.45263	-3.83882	0	
1.4327	0.0854489	-1.6948	0	
1.4333	2.81981	-2.00109	0	
1.4340	8.91516	-4.14511	0	
1.4347	14.7257	-3.83882	0	
1.4353	15.039	-2.30737	0	
1.4360	14.4124	-2.00109	0	
1.4367	16.2353	-2.00109	0	
1.4373	16.8619	-3.83882	0	
1.4380	17.7734	-6.88129	0	
1.4387	18.9981	-5.37026	0	
1.4393	17.7734	-1.38851	0	
1.4400	17.1752	-2.00109	0	
1.4407	18.0867	-5.65613	0	
1.4413	16.2353	-5.96242	0	
1.4420	15.6371	-3.83882	0	
1.4427	16.2353	-3.83882	0	
1.4433	14.4124	-4.4514	0	
1.4440	13.5009	-3.83882	0	
1.4447	14.0991	-4.4514	0	
1.4453	11.678	-4.75768	0	
1.4460	9.54179	-3.22624	0	
1.4467	9.82662	-2.00109	0	
1.4473	8.00371	-4.14511	0	
1.4480	4.35789	-5.37026	0	
1.4487	5.26935	-2.61366	0	
1.4493	9.22848	-1.08222	0	
1.4500	9.82662	-3.53253	0	
1.4507	8.63034	-2.61366	0	
1.4513	8.00371	0.122515	0	
1.4520	7.09226	-2.00109	0	
1.4527	6.1808	-4.75768	0	
1.4533	8.31702	-3.83882	0	
1.4540	10.7666	-3.83882	0	
1.4547	11.0514	-3.53253	0	
1.4553	11.678	-2.30737	0	
1.4560	11.678	-3.83882	0	
1.4567	9.54179	-5.65613	0	
1.4573	8.91516	-4.4514	0	
1.4580	12.5895	-3.83882	0	
1.4587	17.1752	-3.83882	0	
1.4593	18.9981	-2.30737	0	
1.4600	19.9096	-2.00109	0	
1.4607	19.5963	-3.83882	0	
1.4613	19.9096	-2.61366	0	
1.4620	21.7325	-2.00109	0	
1.4627	21.1344	-3.22624	0	
1.4633	18.3715	-3.83882	0	
1.4640	16.2353	-5.65613	0	
1.4647	13.5009	-6.575	0	
1.4653	10.1399	-5.37026	0	
1.4660	8.00371	-5.37026	0	
1.4667	7.40557	-6.88129	0	
1.4673	4.64272	-5.65613	0	
1.4680	2.22167	-4.14511	0	
1.4687	3.41795	-5.65613	0	
1.4693	5.55418	-6.575	0	
1.4700	3.41795	-6.575	0	
1.4707	2.5065	-6.575	0	
1.4713	5.86749	-6.575	0	
1.4720	6.77894	-7.18757	0	
1.4727	4.64272	-6.26871	0	
1.4733	5.26935	-4.14511	0	
1.4740	8.00371	-2.91995	0	
1.4747	8.91516	-2.91995	0	
1.4753	8.91516	-5.65613	0	
1.4760	8.63034	-7.18757	0	
1.4767	9.22848	-3.83882	0	
1.4773	11.3647	-2.00109	0	
1.4780	11.9628	-4.4514	0	
1.4787	12.2762	-3.83882	0	
1.4793	12.2762	-1.38851	0	
1.4800	8.63034	-3.83882	0	
1.4807	5.55418	-6.88129	0	
1.4813	7.40557	-6.575	0	
1.4820	7.40557	-5.65613	0	
1.4827	4.04458	-4.75768	0	
1.4833	3.13313	-3.83882	0	
1.4840	2.5065	-4.75768	0	
1.4847	1.90836	-3.83882	0	
1.4853	4.95603	-2.30737	0	
1.4860	6.77894	-4.75768	0	
1.4867	2.5065	-3.83882	0	
1.4873	-1.13932	1.96025	0	
1.4880	-2.05077	3.49169	0	
1.4887	-2.6774	0.428804	0	
1.4893	-1.76594	-1.08222	0	
1.4900	-0.541176	-1.38851	0	
1.4907	-2.36409	-3.22624	0	
1.4913	-3.90216	-3.83882	0	
1.4920	-2.36409	-2.30737	0	
1.4927	-4.50031	-1.08222	0	
1.4933	-11.2223	-1.38851	0	
1.4940	-13.0452	-2.30737	0	
1.4947	-8.45944	-1.38851	0	
1.4953	-4.18699	-0.469643	0	
1.4960	0.683591	-1.6948	0	
1.4967	7.6904	-1.6948	0	
1.4973	9.82662	-1.08222	0	
1.4980	7.40557	-2.30737	0	
1.4987	8.00371	-2.61366	0	
1.4993	9.54179	-0.775931	0	
1.5000	8.91516	0.428804	0	
1.5007	9.82662	0.122515	0	
1.5013	10.4532	-1.08222	0	
1.5020	5.86749	-2.30737	0	
1.5027	0.996903	-1.6948	0	
1.5033	-1.13932	-1.08222	0	
1.5040	-3.90216	-2.61366	0	
1.5047	-6.94984	-2.30737	0	
1.5053	-8.45944	-0.775931	0	
1.5060	-9.39938	-0.775931	0	
1.5067	-12.4471	-0.775931	0	
1.5073	-15.4947	0.122515	0	
1.5080	-15.1814	-0.775931	0	
1.5087	-12.4471	-1.08222	0	
1.5093	-9.08606	1.96025	0	
1.5100	-3.58885	4.41056	0	
1.5107	-0.541176	4.41056	0	
1.5113	-4.81362	3.1854	0	
1.5120	-6.63653	1.65396	0	
1.5127	-2.36409	0.735093	0	
1.5133	-1.13932	0.735093	0	
1.5140	-3.90216	0.428804	0	
1.5147	-3.27554	0.428804	0	
1.5153	-2.6774	1.65396	0	
1.5160	-3.90216	2.26654	0	
1.5167	-1.76594	2.57282	0	
1.5173	0.0854489	2.57282	0	
1.5180	-2.36409	-0.163354	0	
1.5187	-3.90216	-3.22624	0	
1.5193	-2.99071	-1.6948	0	
1.5200	-2.99071	0.735093	0	
1.5207	-2.05077	0.122515	0	
1.5213	0.0854489	-0.775931	0	
1.5220	-0.227864	0.428804	0	
1.5227	-2.6774	1.04138	0	
1.5233	-3.27554	-0.163354	0	
1.5240	-2.6774	-0.775931	0	
1.5247	-4.81362	-0.775931	0	
1.5253	-8.77275	-0.469643	0	
1.5260	-11.8204	0.735093	0	
1.5267	-14.8681	3.49169	0	
1.5273	-15.4947	3.1854	0	
1.5280	-12.7319	0.735093	0	
1.5287	-12.7319	2.57282	0	
1.5293	-15.808	6.22787	0	
1.5300	-14.8681	5.02313	0	
1.5307	-13.0452	4.41056	0	
1.5313	-13.0452	7.75931	0	
1.5320	-11.8204	7.14674	0	
1.5327	-9.99752	2.26654	0	
1.5333	-8.77275	0.122515	0	
1.5340	-6.63653	1.65396	0	
1.5347	-7.54798	1.96025	0	
1.5353	-12.1337	-1.6948	0	
1.5360	-13.0452	-3.83882	0	
1.5367	-9.39938	-2.00109	0	
1.5373	-6.94984	-1.08222	0	
1.5380	-7.54798	-1.6948	0	
1.5387	-7.26315	-0.163354	0	
1.5393	-5.72507	0.428804	0	
1.5400	-4.50031	0.122515	0	
1.5407	-3.90216	1.96025	0	
1.5413	-2.99071	3.49169	0	
1.5420	-2.99071	2.26654	0	
1.5427	-4.81362	1.65396	0	
1.5433	-4.81362	1.04138	0	
1.5440	-2.6774	0.122515	0	
1.5447	-2.6774	2.57282	0	
1.5453	-4.50031	4.71685	0	
1.5460	-5.12693	3.1854	0	
1.5467	-5.72507	1.65396	0	
1.5473	-6.63653	1.96025	0	
1.5480	-6.94984	2.57282	0	
1.5487	-9.08606	3.49169	0	
1.5493	-11.2223	2.57282	0	
1.5500	-9.6842	0.735093	0	
1.5507	-6.63653	1.04138	0	
1.5513	-7.54798	2.57282	0	
1.5520	-13.0452	2.57282	0	
1.5527	-14.8681	2.57282	0	
1.5533	-9.39938	1.34767	0	
1.5540	-3.58885	1.04138	0	
1.5547	-1.76594	2.26654	0	
1.5553	0.0854489	1.65396	0	
1.5560	2.5065	-0.775931	0	
1.5567	-0.541176	-1.08222	0	
1.5573	-2.6774	0.428804	0	
1.5580	1.59505	2.87911	0	
1.5587	0.996903	2.57282	0	
1.5593	-6.63653	0.122515	0	
1.5600	-9.08606	1.65396	0	
1.5607	-6.63653	4.41056	0	
1.5613	-5.41176	1.96025	0	
1.5620	-3.90216	0.428804	0	
1.5627	-3.27554	2.26654	0	
1.5633	-4.81362	0.735093	0	
1.5640	-4.18699	-0.163354	0	
1.5647	-2.99071	3.49169	0	
1.5653	-1.76594	3.49169	0	
1.5660	2.5065	-0.163354	0	
1.5667	4.35789	-0.469643	0	
1.5673	1.59505	0.735093	0	
1.5680	1.90836	1.04138	0	
1.5687	6.1808	1.96025	0	
1.5693	6.49411	1.96025	0	
1.5700	6.1808	1.65396	0	
1.5707	6.49411	1.65396	0	
1.5713	4.64272	0.735093	0	
1.5720	0.683591	0.122515	0	
1.5727	-2.6774	-0.163354	0	
1.5733	-2.05077	-0.163354	0	
1.5740	1.90836	-0.163354	0	
1.5747	3.41795	0.428804	0	
1.5753	2.5065	-0.469643	0	
1.5760	3.41795	-2.91995	0	
1.5767	5.26935	-3.83882	0	
1.5773	6.1808	-3.53253	0	
1.5780	6.1808	-2.91995	0	
1.5787	7.09226	-1.6948	0	
1.5793	8.00371	0.428804	0	
1.5800	5.55418	-0.775931	0	
1.5807	1.59505	-2.91995	0	
1.5813	-0.541176	-2.30737	0	
1.5820	0.370278	-1.08222	0	
1.5827	2.5065	-1.08222	0	
1.5833	2.81981	-0.163354	0	
1.5840	1.59505	-1.08222	0	
1.5847	0.683591	-2.30737	0	
1.5853	0.683591	-1.08222	0	
1.5860	0.0854489	-1.08222	0	
1.5867	0.683591	-2.91995	0	
1.5873	-0.227864	-1.08222	0	
1.5880	-5.41176	-0.163354	0	
1.5887	-6.63653	-2.00109	0	
1.5893	-0.227864	-2.00109	0	
1.5900	2.5065	-0.163354	0	
1.5907	1.59505	-0.775931	0	
1.5913	1.28173	-2.00109	0	
1.5920	1.59505	-0.775931	0	
1.5927	0.996903	0.735093	0	
1.5933	2.81981	0.735093	0	
1.5940	4.95603	-2.00109	0	
1.5947	6.49411	-3.83882	0	
1.5953	7.09226	-2.00109	0	
1.5960	5.55418	-1.38851	0	
1.5967	5.26935	-3.22624	0	
1.5973	6.1808	-1.08222	0	
1.5980	5.55418	2.26654	0	
1.5987	5.55418	0.735093	0	
1.5993	6.77894	-3.53253	0	
1.6000	6.1808	-4.14511	0	
1.6007	5.26935	-2.30737	0	
1.6013	6.1808	-0.163354	0	
1.6020	7.09226	-2.00109	0	
1.6027	5.26935	-4.14511	0	
1.6033	1.28173	-3.83882	0	
1.6040	-1.13932	-5.06397	0	
1.6047	1.28173	-7.18757	0	
1.6053	2.81981	-4.14511	0	
1.6060	0.996903	-1.08222	0	
1.6067	-0.227864	-3.22624	0	
1.6073	-2.05077	-3.53253	0	
1.6080	-4.18699	-0.469643	0	
1.6087	-1.76594	-1.08222	0	
1.6093	1.28173	-1.6948	0	
1.6100	-1.13932	-1.08222	0	
1.6107	-1.76594	-3.83882	0	
1.6113	0.683591	-6.88129	0	
1.6120	0.996903	-3.83882	0	
1.6127	1.28173	-0.775931	0	
1.6133	3.41795	-0.163354	0	
1.6140	2.5065	0.122515	0	
1.6147	-2.6774	-0.163354	0	
1.6153	-4.18699	-0.469643	0	
1.6160	-1.13932	0.122515	0	
1.6167	3.13313	-0.469643	0	
1.6173	5.86749	-2.00109	0	
1.6180	7.09226	-2.00109	0	
1.6187	8.91516	-3.22624	0	
1.6193	10.4532	-2.30737	0	
1.6200	5.26935	0.735093	0	
1.6207	-6.63653	-1.08222	0	
1.6213	-14.8681	-3.22624	0	
1.6220	-13.3585	-0.163354	0	
1.6227	-9.08606	0.428804	0	
1.6233	-6.63653	-3.22624	0	
1.6240	-3.90216	-1.38851	0	
1.6247	0.370278	-0.469643	0	
1.6253	2.81981	-4.4514	0	
1.6260	4.64272	-2.91995	0	
1.6267	8.63034	4.10427	0	
1.6273	11.9628	3.79798	0	
1.6280	10.7666	-0.163354	0	
1.6287	6.1808	0.122515	0	
1.6293	2.22167	1.04138	0	
1.6300	-2.05077	0.428804	0	
1.6307	-6.03839	2.26654	0	
1.6313	-8.17461	5.32942	0	
1.6320	-5.72507	4.71685	0	
1.6327	0.996903	1.04138	0	
1.6333	6.49411	1.04138	0	
1.6340	7.09226	4.71685	0	
1.6347	4.04458	4.71685	0	
1.6353	2.81981	0.735093	0	
1.6360	6.1808	-1.6948	0	
1.6367	9.54179	-1.6948	0	
1.6373	7.40557	-1.38851	0	
1.6380	4.35789	-1.38851	0	
1.6387	2.81981	-2.61366	0	
1.6393	-2.05077	-4.14511	0	
1.6400	-7.54798	-4.14511	0	
1.6407	-7.54798	-3.83882	0	
1.6413	-5.41176	-4.75768	0	
1.6420	-4.81362	-3.53253	0	
1.6427	-3.58885	-1.08222	0	
1.6433	-3.27554	0.428804	0	
1.6440	-1.76594	1.65396	0	
1.6447	3.41795	2.57282	0	
1.6453	2.81981	0.735093	0	
1.6460	-3.58885	-0.163354	0	
1.6467	-5.41176	2.26654	0	
1.6473	-4.81362	4.41056	0	
1.6480	-6.94984	2.57282	0	
1.6487	-6.63653	-0.469643	0	
1.6493	-3.90216	-0.469643	0	
1.6500	-4.18699	2.26654	0	
1.6507	-4.81362	3.1854	0	
1.6513	-4.18699	1.04138	0	
1.6520	-2.99071	-0.775931	0	
1.6527	-1.13932	-0.469643	0	
1.6533	-0.541176	0.735093	0	
1.6540	-0.854489	2.57282	0	
1.6547	1.90836	3.49169	0	
1.6553	2.5065	2.26654	0	
1.6560	-1.76594	2.26654	0	
1.6567	-4.81362	1.96025	0	
1.6573	-5.12693	-1.08222	0	
1.6580	-5.41176	-2.30737	0	
1.6587	-4.81362	-0.775931	0	
1.6593	-3.27554	-2.00109	0	
1.6600	-2.99071	-2.91995	0	
1.6607	-2.99071	1.04138	0	
1.6613	-1.76594	3.49169	0	
1.6620	-1.13932	0.735093	0	
1.6627	0.370278	0.122515	0	
1.6633	1.90836	-0.163354	0	
1.6640	1.59505	-2.00109	0	
1.6647	2.5065	-1.38851	0	
1.6653	5.26935	0.122515	0	
1.6660	4.35789	-0.775931	0	
1.6667	-0.227864	-1.38851	0	
1.6673	-3.58885	-1.38851	0	
1.6680	-6.94984	-1.38851	0	
1.6687	-10.3108	-0.163354	0	
1.6693	-5.72507	-0.469643	0	
1.6700	0.683591	-2.91995	0	
1.6707	-1.13932	-1.38851	0	
1.6713	-4.81362	1.34767	0	
1.6720	-2.36409	-0.163354	0	
1.6727	-1.45263	-2.91995	0	
1.6733	-3.90216	-1.38851	0	
1.6740	-1.13932	1.65396	0	
1.6747	4.35789	2.57282	0	
1.6753	4.04458	1.04138	0	
1.6760	2.22167	-0.163354	0	
1.6767	4.04458	-2.00109	0	
1.6773	4.95603	-4.4514	0	
1.6780	4.35789	-3.83882	0	
1.6787	6.1808	-1.08222	0	
1.6793	7.6904	-2.00109	0	
1.6800	6.1808	-3.83882	0	
1.6807	7.09226	-2.91995	0	
1.6813	7.40557	-1.08222	0	
1.6820	5.55418	-1.08222	0	
1.6827	4.95603	-3.53253	0	
1.6833	2.81981	-4.75768	0	
1.6840	-0.227864	-4.14511	0	
1.6847	1.59505	-3.83882	0	
1.6853	3.73127	-2.91995	0	
1.6860	0.370278	-0.775931	0	
1.6867	-2.05077	1.34767	0	
1.6873	-0.854489	0.735093	0	
1.6880	-0.541176	-1.08222	0	
1.6887	-0.854489	-1.08222	0	
1.6893	-1.13932	1.65396	0	
1.6900	-2.99071	1.96025	0	
1.6907	-2.36409	1.34767	0	
1.6913	-1.13932	2.57282	0	
1.6920	-3.90216	2.26654	0	
1.6927	-4.81362	0.428804	0	
1.6933	-3.90216	1.96025	0	
1.6940	-7.26315	3.79798	0	
1.6947	-7.54798	2.87911	0	
1.6953	-2.05077	2.87911	0	
1.6960	-1.45263	2.26654	0	
1.6967	-5.12693	-1.08222	0	
1.6973	-1.13932	-0.163354	0	
1.6980	2.5065	0.428804	0	
1.6987	-2.05077	-3.53253	0	
1.6993	-2.99071	-3.53253	0	
1.7000	3.41795	1.04138	0	
1.7007	6.1808	0.735093	0	
1.7013	5.55418	-1.6948	0	
1.7020	8.63034	0.428804	0	
1.7027	10.4532	1.65396	0	
1.7033	8.91516	1.34767	0	
1.7040	7.09226	1.65396	0	
1.7047	4.35789	0.735093	0	
1.7053	2.5065	-0.775931	0	
1.7060	2.22167	-0.469643	0	
1.7067	-2.99071	-1.6948	0	
1.7073	-9.6842	-2.91995	0	
1.7080	-9.08606	-2.00109	0	
1.7087	-7.26315	-0.775931	0	
1.7093	-7.26315	-2.00109	0	
1.7100	-0.227864	-2.30737	0	
1.7107	4.95603	-1.08222	0	
1.7113	0.370278	0.735093	0	
1.7120	-2.36409	0.735093	0	
1.7127	-1.13932	0.122515	0	
1.7133	-4.50031	0.735093	0	
1.7140	-4.81362	0.735093	0	
1.7147	0.370278	-1.08222	0	
1.7153	0.683591	-1.08222	0	
1.7160	-3.27554	0.735093	0	
1.7167	-5.72507	0.122515	0	
1.7173	-9.08606	-1.08222	0	
1.7180	-10.3108	-0.163354	0	
1.7187	-6.63653	1.65396	0	
1.7193	-4.81362	2.87911	0	
1.7200	-3.90216	1.65396	0	
1.7207	-1.76594	-1.08222	0	
1.7213	-1.76594	-1.08222	0	
1.7220	-0.854489	-0.163354	0	
1.7227	0.370278	0.122515	0	
1.7233	-5.72507	1.65396	0	
1.7240	-11.8204	2.26654	0	
1.7247	-10.3108	-0.163354	0	
1.7253	-8.77275	1.65396	0	
1.7260	-10.3108	5.32942	0	
1.7267	-9.39938	3.49169	0	
1.7273	-9.39938	0.735093	0	
1.7280	-12.4471	3.1854	0	
1.7287	-10.3108	3.79798	0	
1.7293	-4.18699	1.65396	0	
1.7300	-0.227864	1.65396	0	
1.7307	2.5065	1.65396	0	
1.7313	4.95603	0.735093	0	
1.7320	7.09226	1.96025	0	
1.7327	8.00371	2.57282	0	
1.7333	6.1808	0.735093	0	
1.7340	5.26935	-1.08222	0	
1.7347	7.09226	-1.08222	0	
1.7353	7.09226	-1.08222	0	
1.7360	3.41795	-1.08222	0	
1.7367	1.28173	-1.38851	0	
1.7373	2.5065	-2.00109	0	
1.7380	4.95603	-2.30737	0	
1.7387	4.64272	-2.91995	0	
1.7393	2.5065	-2.00109	0	
1.7400	2.5065	1.04138	0	
1.7407	3.13313	0.735093	0	
1.7413	0.683591	-2.30737	0	
1.7420	-2.05077	-2.30737	0	
1.7427	2.5065	0.428804	0	
1.7433	9.22848	1.65396	0	
1.7440	7.6904	-0.163354	0	
1.7447	2.5065	-2.00109	0	
1.7453	-1.13932	-0.469643	0	
1.7460	-4.81362	1.65396	0	
1.7467	-8.45944	0.735093	0	
1.7473	-9.39938	-0.775931	0	
1.7480	-8.45944	-0.163354	0	
1.7487	-6.63653	-1.08222	0	
1.7493	-5.12693	-1.08222	0	
1.7500	-5.12693	1.65396	0	
1.7507	-2.36409	0.735093	0	
1.7513	1.28173	-1.6948	0	
1.7520	1.28173	0.735093	0	
1.7527	2.22167	1.34767	0	
1.7533	4.95603	-2.61366	0	
1.7540	3.73127	-1.38851	0	
1.7547	0.683591	2.87911	0	
1.7553	0.370278	2.57282	0	
1.7560	1.59505	-0.163354	0	
1.7567	3.73127	-1.38851	0	
1.7573	6.1808	-0.163354	0	
1.7580	7.40557	0.122515	0	
1.7587	9.22848	-3.53253	0	
1.7593	10.4532	-5.65613	0	
1.7600	8.00371	-3.22624	0	
1.7607	6.49411	-1.6948	0	
1.7613	6.1808	-2.00109	0	
1.7620	2.5065	-1.38851	0	
1.7627	0.996903	-1.08222	0	
1.7633	2.22167	-0.775931	0	
1.7640	0.370278	1.65396	0	
1.7647	-1.45263	0.735093	0	
1.7653	-1.76594	-2.61366	0	
1.7660	-6.32322	-0.163354	0	
1.7667	-10.5957	1.34767	0	
1.7673	-8.77275	-2.00109	0	
1.7680	-6.32322	-2.00109	0	
1.7687	-6.32322	1.65396	0	
1.7693	-4.81362	0.735093	0	
1.7700	-2.6774	-2.00109	0	
1.7707	-0.541176	-2.00109	0	
1.7713	1.59505	-1.6948	0	
1.7720	1.90836	-1.08222	0	
1.7727	2.22167	1.65396	0	
1.7733	3.41795	1.96025	0	
1.7740	4.04458	-0.163354	0	
1.7747	3.13313	-2.00109	0	
1.7753	3.41795	-3.22624	0	
1.7760	4.64272	-4.4514	0	
1.7767	5.86749	-3.83882	0	
1.7773	7.09226	-1.6948	0	
1.7780	5.26935	-1.08222	0	
1.7787	-1.76594	-0.469643	0	
1.7793	-6.94984	-0.163354	0	
1.7800	-6.63653	-1.6948	0	
1.7807	-4.81362	-2.61366	0	
1.7813	-2.05077	-1.6948	0	
1.7820	2.22167	-1.6948	0	
1.7827	7.09226	-2.91995	0	
1.7833	10.7666	-2.00109	0	
1.7840	14.0991	-0.775931	0	
1.7847	19.5963	-0.775931	0	
1.7853	23.2706	-1.6948	0	
1.7860	21.4477	-2.00109	0	
1.7867	18.0867	-1.08222	0	
1.7873	18.0867	0.122515	0	
1.7880	15.6371	-1.6948	0	
1.7887	8.00371	-2.61366	0	
1.7893	2.22167	-0.163354	0	
1.7900	0.0854489	-0.163354	0	
1.7907	-3.90216	-2.00109	0	
1.7913	-8.45944	-1.08222	0	
1.7920	-9.39938	-1.08222	0	
1.7927	-8.45944	-2.91995	0	
1.7933	-9.39938	-1.6948	0	
1.7940	-9.99752	0.122515	0	
1.7947	-7.8613	-0.775931	0	
1.7953	-5.41176	-0.775931	0	
1.7960	-4.81362	-1.08222	0	
1.7967	-4.50031	-2.00109	0	
1.7973	-1.76594	-0.775931	0	
1.7980	0.370278	0.428804	0	
1.7987	-2.05077	0.428804	0	
1.7993	-6.63653	2.87911	0	
1.8000	-6.63653	2.26654	0	
1.8007	-2.99071	-2.91995	0	
1.8013	0.370278	-3.83882	0	
1.8020	1.90836	-2.61366	0	
1.8027	2.5065	-2.91995	0	
1.8033	2.81981	-2.00109	0	
1.8040	0.683591	-0.775931	0	
1.8047	-2.99071	-2.61366	0	
1.8053	-3.58885	-4.4514	0	
1.8060	-1.13932	-4.14511	0	
1.8067	-2.05077	-3.83882	0	
1.8073	-6.32322	-2.61366	0	
1.8080	-8.45944	-1.08222	0	
1.8087	-9.39938	-1.08222	0	
1.8093	-11.5356	-1.08222	0	
1.8100	-12.1337	0.122515	0	
1.8107	-10.909	1.04138	0	
1.8113	-12.4471	0.122515	0	
1.8120	-14.8681	0.122515	0	
1.8127	-12.1337	1.04138	0	
1.8133	-3.90216	-0.163354	0	
1.8140	1.59505	-1.38851	0	
1.8147	-1.76594	0.735093	0	
1.8153	-6.32322	1.04138	0	
1.8160	-5.12693	-1.6948	0	
1.8167	-3.58885	-2.00109	0	
1.8173	-0.541176	-0.163354	0	
1.8180	8.00371	1.34767	0	
1.8187	11.678	1.65396	0	
1.8193	5.86749	0.735093	0	
1.8200	3.41795	-1.08222	0	
1.8207	5.55418	-0.469643	0	
1.8213	4.04458	0.735093	0	
1.8220	2.5065	-0.163354	0	
1.8227	2.5065	-0.775931	0	
1.8233	-1.76594	0.735093	0	
1.8240	-5.12693	2.57282	0	
1.8247	-6.32322	2.57282	0	
1.8253	-12.7319	0.735093	0	
1.8260	-19.1405	-1.08222	0	
1.8267	-16.7195	-1.38851	0	
1.8273	-12.1337	-2.00109	0	
1.8280	-12.1337	-1.38851	0	
1.8287	-9.39938	1.34767	0	
1.8293	-3.27554	2.57282	0	
1.8300	1.59505	2.57282	0	
1.8307	3.41795	3.1854	0	
1.8313	5.26935	2.57282	0	
1.8320	5.26935	1.04138	0	
1.8327	2.81981	0.428804	0	
1.8333	-0.227864	-0.469643	0	
1.8340	-1.13932	-0.163354	0	
1.8347	-1.13932	3.49169	0	
1.8353	-1.45263	3.49169	0	
1.8360	-0.227864	-1.38851	0	
1.8367	2.5065	-2.30737	0	
1.8373	3.41795	-1.08222	0	
1.8380	2.5065	-2.91995	0	
1.8387	-1.76594	-3.53253	0	
1.8393	-6.63653	-0.163354	0	
1.8400	-6.03839	1.34767	0	
1.8407	-0.227864	0.122515	0	
1.8413	2.5065	0.122515	0	
1.8420	1.90836	1.34767	0	
1.8427	1.90836	0.428804	0	
1.8433	1.28173	-0.163354	0	
1.8440	0.370278	0.735093	0	
1.8447	1.59505	-0.163354	0	
1.8453	0.370278	-1.08222	0	
1.8460	-3.90216	1.34767	0	
1.8467	-4.50031	3.1854	0	
1.8473	-4.81362	1.04138	0	
1.8480	-7.54798	-0.163354	0	
1.8487	-6.63653	0.735093	0	
1.8493	-2.36409	1.65396	0	
1.8500	-2.36409	4.41056	0	
1.8507	-4.18699	4.71685	0	
1.8513	-3.90216	1.65396	0	
1.8520	-2.99071	0.735093	0	
1.8527	-2.05077	1.65396	0	
1.8533	0.370278	0.428804	0	
1.8540	3.13313	1.34767	0	
1.8547	3.73127	2.57282	0	
1.8553	-1.13932	1.34767	0	
1.8560	-8.17461	1.04138	0	
1.8567	-8.77275	1.65396	0	
1.8573	-5.72507	1.34767	0	
1.8580	-5.41176	1.34767	0	
1.8587	-6.32322	0.735093	0	
1.8593	-4.50031	-0.469643	0	
1.8600	0.370278	-0.163354	0	
1.8607	7.6904	1.04138	0	
1.8613	13.5009	2.26654	0	
1.8620	15.3238	2.26654	0	
1.8627	16.8619	0.122515	0	
1.8633	17.1752	-0.469643	0	
1.8640	15.039	1.65396	0	
1.8647	12.5895	1.04138	0	
1.8653	10.1399	-0.163354	0	
1.8660	8.00371	-0.163354	0	
1.8667	7.09226	-1.6948	0	
1.8673	4.95603	-2.00109	0	
1.8680	0.996903	0.735093	0	
1.8687	-1.13932	1.65396	0	
1.8693	-0.854489	-0.163354	0	
1.8700	-0.854489	-1.08222	0	
1.8707	-1.76594	1.04138	0	
1.8713	-2.6774	2.26654	0	
1.8720	-2.99071	-1.08222	0	
1.8727	-2.99071	-3.83882	0	
1.8733	-2.05077	-1.08222	0	
1.8740	-1.45263	1.65396	0	
1.8747	-2.6774	-0.469643	0	
1.8753	-2.6774	-2.00109	0	
1.8760	0.370278	-0.469643	0	
1.8767	3.41795	-0.163354	0	
1.8773	4.64272	-0.469643	0	
1.8780	4.64272	-0.775931	0	
1.8787	4.35789	-2.61366	0	
1.8793	5.55418	-3.22624	0	
1.8800	8.00371	-0.775931	0	
1.8807	7.6904	0.122515	0	
1.8813	5.55418	-1.6948	0	
1.8820	5.86749	-2.61366	0	
1.8827	4.35789	-1.08222	0	
1.8833	-2.6774	-0.163354	0	
1.8840	-8.45944	-0.469643	0	
1.8847	-7.8613	-1.6948	0	
1.8853	-4.18699	-2.00109	0	
1.8860	-1.13932	-1.08222	0	
1.8867	-0.541176	-0.775931	0	
1.8873	-2.99071	-2.00109	0	
1.8880	-2.99071	-2.30737	0	
1.8887	-2.05077	-0.163354	0	
1.8893	-3.90216	0.735093	0	
1.8900	-4.18699	-0.163354	0	
1.8907	-1.76594	1.04138	0	
1.8913	-1.45263	2.26654	0	
1.8920	-1.76594	-0.163354	0	
1.8927	1.59505	-2.00109	0	
1.8933	3.41795	-1.08222	0	
1.8940	3.41795	-1.08222	0	
1.8947	5.26935	-0.163354	0	
1.8953	5.86749	1.34767	0	
1.8960	3.41795	-0.469643	0	
1.8967	4.95603	-2.61366	0	
1.8973	5.86749	-1.38851	0	
1.8980	0.370278	-0.163354	0	
1.8987	-4.81362	0.735093	0	
1.8993	-6.32322	-0.163354	0	
1.9000	-6.94984	-3.22624	0	
1.9007	-2.6774	-3.53253	0	
1.9013	4.35789	-0.775931	0	
1.9020	5.55418	-0.775931	0	
1.9027	3.41795	-1.08222	0	
1.9033	3.41795	1.34767	0	
1.9040	2.22167	0.735093	0	
1.9047	0.370278	-2.30737	0	
1.9053	-0.227864	-2.30737	0	
1.9060	-2.05077	-1.38851	0	
1.9067	-4.81362	-1.38851	0	
1.9073	-8.45944	-0.163354	0	
1.9080	-13.0452	0.735093	0	
1.9087	-13.3585	1.34767	0	
1.9093	-9.6842	1.65396	0	
1.9100	-8.45944	0.735093	0	
1.9107	-7.8613	-1.38851	0	
1.9113	-4.18699	-1.38851	0	
1.9120	-2.99071	-0.469643	0	
1.9127	-2.36409	-0.163354	0	
1.9133	0.0854489	-0.469643	0	
1.9140	0.683591	-2.00109	0	
1.9147	1.59505	-2.30737	0	
1.9153	9.54179	-0.163354	0	
1.9160	18.3715	1.65396	0	
1.9167	17.7734	1.04138	0	
1.9173	11.678	-1.08222	0	
1.9180	9.54179	-3.53253	0	
1.9187	9.22848	-3.22624	0	
1.9193	6.49411	-1.08222	0	
1.9200	1.90836	-0.469643	0	
1.9207	-1.45263	-1.08222	0	
1.9213	-1.45263	-1.08222	0	
1.9220	-3.90216	-2.00109	0	
1.9227	-10.3108	-2.61366	0	
1.9233	-10.5957	-1.08222	0	
1.9240	-4.50031	-1.08222	0	
1.9247	-3.27554	-2.00109	0	
1.9253	-6.03839	-0.775931	0	
1.9260	-4.18699	-0.469643	0	
1.9267	-1.45263	-2.00109	0	
1.9273	-1.76594	-0.469643	0	
1.9280	-0.854489	1.04138	0	
1.9287	-0.854489	-0.163354	0	
1.9293	-2.99071	0.428804	0	
1.9300	-2.36409	2.57282	0	
1.9307	-2.36409	2.57282	0	
1.9313	-5.72507	1.65396	0	
1.9320	-7.54798	2.26654	0	
1.9327	-7.8613	1.65396	0	
1.9333	-8.45944	-0.163354	0	
1.9340	-7.54798	-2.00109	0	
1.9347	-5.72507	-1.08222	0	
1.9353	-2.36409	1.96025	0	
1.9360	2.5065	0.735093	0	
1.9367	5.86749	-2.00109	0	
1.9373	5.26935	-0.469643	0	
1.9380	3.41795	0.735093	0	
1.9387	-0.227864	-2.91995	0	
1.9393	-3.90216	-3.83882	0	
1.9400	-3.90216	-1.08222	0	
1.9407	-3.90216	-1.08222	0	
1.9413	-4.81362	-2.61366	0	
1.9420	-3.27554	-1.6948	0	
1.9427	-0.541176	0.735093	0	
1.9433	2.5065	2.26654	0	
1.9440	6.1808	0.428804	0	
1.9447	8.00371	-2.30737	0	
1.9453	7.09226	-2.00109	0	
1.9460	6.1808	-1.6948	0	
1.9467	8.00371	-3.83882	0	
1.9473	9.22848	-3.83882	0	
1.9480	8.00371	-0.163354	0	
1.9487	6.77894	1.04138	0	
1.9493	7.09226	-0.163354	0	
1.9500	6.77894	2.26654	0	
1.9507	4.35789	3.49169	0	
1.9513	2.5065	-0.163354	0	
1.9520	1.59505	-2.30737	0	
1.9527	3.41795	-0.469643	0	
1.9533	7.40557	-1.08222	0	
1.9540	7.40557	-2.61366	0	
1.9547	4.35789	-1.38851	0	
1.9553	-0.227864	-0.775931	0	
1.9560	-6.63653	-1.38851	0	
1.9567	-8.17461	1.04138	0	
1.9573	-1.76594	3.49169	0	
1.9580	1.28173	1.65396	0	
1.9587	-2.05077	-1.6948	0	
1.9593	-2.99071	-2.91995	0	
1.9600	-1.45263	-2.00109	0	
1.9607	0.370278	-0.163354	0	
1.9613	3.13313	0.122515	0	
1.9620	4.95603	-1.08222	0	
1.9627	6.49411	-1.6948	0	
1.9633	9.82662	-2.91995	0	
1.9640	8.91516	-2.91995	0	
1.9647	4.35789	-0.163354	0	
1.9653	2.5065	-0.163354	0	
1.9660	3.73127	-3.83882	0	
1.9667	3.13313	-2.61366	0	
1.9673	1.28173	2.87911	0	
1.9680	-0.227864	3.1854	0	
1.9687	-1.76594	0.735093	0	
1.9693	-2.6774	1.34767	0	
1.9700	-1.45263	1.34767	0	
1.9707	0.683591	-0.469643	0	
1.9713	1.59505	0.122515	0	
1.9720	0.996903	1.34767	0	
1.9727	0.683591	0.735093	0	
1.9733	-0.227864	-0.469643	0	
1.9740	-0.227864	-2.91995	0	
1.9747	1.59505	-3.83882	0	
1.9753	3.41795	-3.53253	0	
1.9760	4.35789	-4.14511	0	
1.9767	2.5065	-3.53253	0	
1.9773	-0.227864	0.428804	0	
1.9780	0.683591	-0.163354	0	
1.9787	2.5065	-3.83882	0	
1.9793	-0.854489	-2.00109	0	
1.9800	-1.13932	0.735093	0	
1.9807	7.09226	-1.6948	0	
1.9813	11.678	-4.4514	0	
1.9820	4.35789	-4.75768	0	
1.9827	-1.76594	-3.83882	0	
1.9833	-2.6774	-1.6948	0	
1.9840	-4.81362	-2.30737	0	
1.9847	-6.63653	-2.91995	0	
1.9853	-4.18699	-0.775931	0	
1.9860	-3.90216	0.735093	0	
1.9867	-6.32322	0.735093	0	
1.9873	-6.94984	1.65396	0	
1.9880	-5.12693	-0.775931	0	
1.9887	-2.05077	-2.30737	0	
1.9893	-1.45263	0.122515	0	
1.9900	-4.81362	1.04138	0	
1.9907	-6.63653	-0.163354	0	
1.9913	-4.81362	1.04138	0	
1.9920	-3.90216	1.34767	0	
1.9927	-4.50031	-0.775931	0	
1.9933	-3.90216	0.428804	0	
1.9940	-3.90216	1.96025	0	
1.9947	-3.27554	-0.163354	0	
1.9953	-1.13932	-2.61366	0	
1.9960	0.0854489	-1.08222	0	
1.9967	-0.227864	0.735093	0	
1.9973	1.90836	-0.163354	0	
1.9980	5.55418	-3.22624	0	
1.9987	6.1808	-3.53253	0	
1.9993	5.26935	-1.08222	0	
2.0000	4.04458	-0.775931	0	
2.0007	0.996903	-2.91995	0	
2.0013	-1.76594	-2.91995	0	
2.0020	-0.854489	-0.775931	0	
2.0027	0.370278	0.122515	0	
2.0033	-1.45263	-0.163354	0	
2.0040	-2.05077	-2.00109	0	
2.0047	-0.227864	-3.53253	0	
2.0053	0.683591	-1.6948	0	
2.0060	0.370278	0.428804	0	
2.0067	0.683591	-2.00109	0	
2.0073	0.683591	-2.91995	0	
2.0080	-0.227864	-0.163354	0	
2.0087	-1.13932	0.122515	0	
2.0093	-1.13932	-1.08222	0	
2.0100	-1.76594	-0.469643	0	
2.0107	-2.05077	-1.38851	0	
2.0113	-1.13932	-2.00109	0	
2.0120	-0.227864	-0.469643	0	
2.0127	0.683591	-1.08222	0	
2.0133	0.683591	-1.08222	0	
2.0140	0.0854489	1.04138	0	
2.0147	0.683591	0.122515	0	
2.0153	1.28173	-1.38851	0	
2.0160	0.683591	2.57282	0	
2.0167	1.59505	4.71685	0	
2.0173	1.59505	1.34767	0	
2.0180	-0.541176	0.122515	0	
2.0187	1.59505	0.735093	0	
2.0193	6.1808	-1.08222	0	
2.0200	4.95603	-1.38851	0	
2.0207	3.41795	0.735093	0	
2.0213	5.55418	1.04138	0	
2.0220	4.35789	0.735093	0	
2.0227	1.59505	1.65396	0	
2.0233	5.26935	0.735093	0	
2.0240	9.22848	-1.08222	0	
2.0247	5.55418	-0.775931	0	
2.0253	2.5065	1.34767	0	
2.0260	3.41795	1.96025	0	
2.0267	3.73127	0.735093	0	
2.0273	1.90836	-0.163354	0	
2.0280	0.370278	-0.163354	0	
2.0287	-0.541176	-0.469643	0	
2.0293	-0.854489	-0.163354	0	
2.0300	-2.99071	0.428804	0	
2.0307	-7.54798	-2.00109	0	
2.0313	-9.08606	-3.53253	0	
2.0320	-5.72507	-1.38851	0	
2.0327	-3.58885	-1.08222	0	
2.0333	-4.81362	-2.91995	0	
2.0340	-6.63653	-1.38851	0	
2.0347	-9.6842	1.04138	0	
2.0353	-11.5356	0.122515	0	
2.0360	-9.08606	-0.469643	0	
2.0367	-4.81362	1.04138	0	
2.0373	-0.227864	2.26654	0	
2.0380	4.35789	2.26654	0	
2.0387	4.64272	0.428804	0	
2.0393	2.22167	-3.53253	0	
2.0400	0.683591	-5.37026	0	
2.0407	0.683591	-4.14511	0	
2.0413	0.683591	-2.30737	0	
2.0420	1.28173	-0.775931	0	
2.0427	0.0854489	-0.163354	0	
2.0433	-3.90216	-0.163354	0	
2.0440	-8.17461	1.65396	0	
2.0447	-12.7319	2.87911	0	
2.0453	-16.0929	0.735093	0	
2.0460	-13.9566	-2.91995	0	
2.0467	-9.39938	-3.53253	0	
2.0473	-7.8613	-0.163354	0	
2.0480	-6.63653	1.04138	0	
2.0487	0.370278	-0.163354	0	
2.0493	6.1808	-0.163354	0	
2.0500	8.91516	0.735093	0	
2.0507	12.5895	-0.469643	0	
2.0513	16.2353	0.428804	0	
2.0520	14.0991	4.10427	0	
2.0527	9.54179	3.1854	0	
2.0533	8.91516	-1.08222	0	
2.0540	9.54179	-2.00109	0	
2.0547	5.26935	-1.08222	0	
2.0553	1.90836	-1.08222	0	
2.0560	4.35789	0.122515	0	
2.0567	5.86749	1.04138	0	
2.0573	0.0854489	-2.30737	0	
2.0580	-2.6774	-4.4514	0	
2.0587	1.59505	-2.30737	0	
2.0593	1.59505	-0.469643	0	
2.0600	-2.05077	-1.38851	0	
2.0607	-2.36409	-1.6948	0	
2.0613	-0.854489	-1.08222	0	
2.0620	3.13313	-1.08222	0	
2.0627	9.54179	-2.00109	0	
2.0633	10.7666	-3.22624	0	
2.0640	8.91516	-3.83882	0	
2.0647	12.9028	-2.30737	0	
2.0653	17.7734	-0.469643	0	
2.0660	13.5009	-0.469643	0	
2.0667	4.35789	-1.38851	0	
2.0673	-0.227864	-1.08222	0	
2.0680	-0.227864	0.122515	0	
2.0687	0.0854489	0.428804	0	
2.0693	-1.13932	0.735093	0	
2.0700	-1.13932	1.04138	0	
2.0707	0.996903	-0.163354	0	
2.0713	2.22167	-0.775931	0	
2.0720	0.370278	1.04138	0	
2.0727	-2.6774	1.65396	0	
2.0733	-4.50031	0.735093	0	
2.0740	-4.50031	-0.163354	0	
2.0747	-2.36409	-1.08222	0	
2.0753	0.0854489	-2.30737	0	
2.0760	0.0854489	-0.469643	0	
2.0767	-3.27554	1.65396	0	
2.0773	-6.03839	-0.163354	0	
2.0780	-5.72507	-2.00109	0	
2.0787	-2.36409	-0.163354	0	
2.0793	0.370278	2.57282	0	
2.0800	0.683591	1.96025	0	
2.0807	1.28173	0.122515	0	
2.0813	4.35789	-1.6948	0	
2.0820	3.73127	-2.91995	0	
2.0827	-2.05077	-1.08222	0	
2.0833	-4.81362	1.34767	0	
2.0840	-3.58885	1.04138	0	
2.0847	-4.81362	0.428804	0	
2.0853	-5.41176	2.26654	0	
2.0860	-2.99071	3.49169	0	
2.0867	-5.12693	2.87911	0	
2.0873	-10.909	3.49169	0	
2.0880	-11.8204	3.1854	0	
2.0887	-11.2223	0.122515	0	
2.0893	-15.808	-2.30737	0	
2.0900	-20.6786	-2.00109	0	
2.0907	-18.2291	-0.469643	0	
2.0913	-12.1337	0.735093	0	
2.0920	-11.2223	2.26654	0	
2.0927	-13.9566	2.57282	0	
2.0933	-13.3585	2.26654	0	
2.0940	-9.39938	2.57282	0	
2.0947	-5.72507	2.26654	0	
2.0953	-3.90216	-0.163354	0	
2.0960	0.683591	-1.38851	0	
2.0967	5.26935	0.122515	0	
2.0973	6.1808	1.34767	0	
2.0980	5.26935	0.735093	0	
2.0987	8.00371	0.428804	0	
2.0993	8.63034	-0.163354	0	
2.1000	4.35789	-1.6948	0	
2.1007	1.90836	-0.163354	0	
2.1013	0.996903	1.65396	0	
2.1020	-1.45263	-0.163354	0	
2.1027	-4.50031	-1.08222	0	
2.1033	-8.17461	-0.163354	0	
2.1040	-11.5356	-0.163354	0	
2.1047	-8.77275	0.122515	0	
2.1053	-4.81362	1.65396	0	
2.1060	-7.54798	1.04138	0	
2.1067	-10.3108	1.34767	0	
2.1073	-8.45944	3.1854	0	
2.1080	-5.72507	3.49169	0	
2.1087	-2.99071	3.1854	0	
2.1093	-2.99071	4.10427	0	
2.1100	-6.63653	2.57282	0	
2.1107	-7.54798	1.65396	0	
2.1113	-4.81362	3.49169	0	
2.1120	-5.72507	4.10427	0	
2.1127	-7.26315	1.34767	0	
2.1133	-5.72507	-0.775931	0	
2.1140	-5.72507	-0.163354	0	
2.1147	-6.63653	1.34767	0	
2.1153	-4.81362	1.96025	0	
2.1160	-3.90216	1.65396	0	
2.1167	-6.63653	2.57282	0	
2.1173	-11.5356	2.57282	0	
2.1180	-15.808	1.34767	0	
2.1187	-16.7195	1.65396	0	
2.1193	-13.6718	2.87911	0	
2.1200	-6.63653	1.65396	0	
2.1207	0.370278	-0.775931	0	
2.1213	2.81981	0.122515	0	
2.1220	3.13313	1.96025	0	
2.1227	7.09226	1.65396	0	
2.1233	14.7257	0.735093	0	
2.1240	19.3114	-1.08222	0	
2.1247	16.5486	-2.00109	0	
2.1253	10.7666	0.735093	0	
2.1260	6.49411	1.65396	0	
2.1267	0.996903	-1.6948	0	
2.1273	-4.50031	-2.00109	0	
2.1280	-4.18699	-0.163354	0	
2.1287	-1.76594	-0.469643	0	
2.1293	-3.58885	-0.775931	0	
2.1300	-5.72507	0.735093	0	
2.1307	-3.90216	-0.469643	0	
2.1313	-0.227864	-0.163354	0	
2.1320	0.996903	1.96025	0	
2.1327	0.683591	0.735093	0	
2.1333	0.683591	-0.469643	0	
2.1340	0.370278	3.79798	0	
2.1347	-2.05077	5.02313	0	
2.1353	-2.36409	1.34767	0	
2.1360	0.0854489	1.65396	0	
2.1367	0.0854489	5.02313	0	
2.1373	-2.6774	3.49169	0	
2.1380	-3.58885	0.122515	0	
2.1387	-0.227864	-1.38851	0	
2.1393	5.55418	-1.08222	0	
2.1400	9.54179	-1.08222	0	
2.1407	7.09226	-2.00109	0	
2.1413	4.04458	-2.91995	0	
2.1420	5.55418	-2.30737	0	
2.1427	8.91516	-1.08222	0	
2.1433	7.40557	-1.38851	0	
2.1440	2.5065	-2.30737	0	
2.1447	0.683591	-2.00109	0	
2.1453	3.13313	-0.775931	0	
2.1460	4.04458	-1.08222	0	
2.1467	0.683591	-3.22624	0	
2.1473	-2.6774	-3.22624	0	
2.1480	-1.45263	-0.469643	0	
2.1487	3.41795	1.65396	0	
2.1493	6.49411	0.735093	0	
2.1500	4.95603	-1.38851	0	
2.1507	0.683591	-2.30737	0	
2.1513	-5.72507	-0.775931	0	
2.1520	-10.3108	1.04138	0	
2.1527	-6.94984	-0.469643	0	
2.1533	0.0854489	-2.61366	0	
2.1540	3.41795	-1.38851	0	
2.1547	4.64272	-0.163354	0	
2.1553	4.04458	-2.61366	0	
2.1560	2.81981	-4.14511	0	
2.1567	6.49411	-2.61366	0	
2.1573	11.678	-1.6948	0	
2.1580	11.0514	-2.91995	0	
2.1587	7.09226	-2.30737	0	
2.1593	4.95603	-0.163354	0	
2.1600	2.5065	1.65396	0	
2.1607	2.81981	1.65396	0	
2.1613	6.49411	0.735093	0	
2.1620	6.1808	1.04138	0	
2.1627	1.59505	2.57282	0	
2.1633	-0.854489	1.34767	0	
2.1640	-0.854489	-2.61366	0	
2.1647	-2.36409	-2.00109	0	
2.1653	-5.41176	2.57282	0	
2.1660	-9.08606	4.71685	0	
2.1667	-11.5356	3.79798	0	
2.1673	-10.3108	1.65396	0	
2.1680	-8.45944	0.735093	0	
2.1687	-10.3108	1.04138	0	
2.1693	-9.6842	0.122515	0	
2.1700	-4.81362	-0.775931	0	
2.1707	-2.05077	0.735093	0	
2.1713	-3.58885	1.65396	0	
2.1720	-0.541176	-0.469643	0	
2.1727	4.64272	-3.53253	0	
2.1733	5.86749	-2.30737	0	
2.1740	3.73127	0.735093	0	
2.1747	3.73127	1.04138	0	
2.1753	7.09226	0.122515	0	
2.1760	9.54179	0.428804	0	
2.1767	9.22848	0.428804	0	
2.1773	8.63034	-0.775931	0	
2.1780	8.31702	-1.6948	0	
2.1787	6.1808	-1.38851	0	
2.1793	2.81981	-0.163354	0	
2.1800	2.5065	1.65396	0	
2.1807	2.5065	3.49169	0	
2.1813	-0.227864	4.10427	0	
2.1820	-0.854489	0.735093	0	
2.1827	-0.854489	-2.00109	0	
2.1833	-2.6774	-1.08222	0	
2.1840	-3.58885	-1.38851	0	
2.1847	-3.58885	-3.22624	0	
2.1853	-4.81362	-2.30737	0	
2.1860	-6.03839	-2.30737	0	
2.1867	-6.94984	-3.83882	0	
2.1873	-8.77275	-1.38851	0	
2.1880	-7.54798	1.04138	0	
2.1887	-4.50031	-1.6948	0	
2.1893	-3.58885	-2.91995	0	
2.1900	-5.12693	-1.38851	0	
2.1907	-7.54798	-1.08222	0	
2.1913	-9.6842	-0.775931	0	
2.1920	-8.45944	-0.775931	0	
2.1927	-4.50031	-2.61366	0	
2.1933	-3.58885	-1.6948	0	
2.1940	-4.81362	1.65396	0	
2.1947	-2.99071	0.735093	0	
2.1953	-1.76594	-1.08222	0	
2.1960	-3.58885	1.34767	0	
2.1967	-2.36409	2.57282	0	
2.1973	3.73127	-1.38851	0	
2.1980	8.63034	-3.83882	0	
2.1987	8.91516	-1.08222	0	
2.1993	8.63034	-0.775931	0	
2.2000	8.00371	-3.83882	0	
2.2007	6.1808	-3.83882	0	
2.2013	4.64272	-2.00109	0	
2.2020	0.683591	-2.00109	0	
2.2027	-5.72507	-1.6948	0	
2.2033	-7.26315	-0.775931	0	
2.2040	-4.50031	-1.08222	0	
2.2047	-3.90216	-1.6948	0	
2.2053	-3.27554	-2.00109	0	
2.2060	0.370278	-3.22624	0	
2.2067	2.5065	-2.00109	0	
2.2073	2.81981	0.428804	0	
2.2080	4.35789	0.122515	0	
2.2087	4.35789	-1.38851	0	
2.2093	4.64272	-2.00109	0	
2.2100	7.6904	-2.00109	0	
2.2107	8.91516	-2.00109	0	
2.2113	6.1808	-2.30737	0	
2.2120	4.04458	-3.83882	0	
2.2127	5.86749	-4.4514	0	
2.2133	8.91516	-2.00109	0	
2.2140	8.31702	0.735093	0	
2.2147	5.55418	-0.163354	0	
2.2153	5.26935	-1.08222	0	
2.2160	7.40557	0.122515	0	
2.2167	7.6904	-2.00109	0	
2.2173	7.09226	-5.65613	0	
2.2180	4.95603	-4.4514	0	
2.2187	0.683591	-1.08222	0	
2.2193	0.370278	-0.163354	0	
2.2200	3.41795	-0.775931	0	
2.2207	4.35789	-1.08222	0	
2.2213	4.64272	-2.61366	0	
2.2220	6.49411	-1.38851	0	
2.2227	5.26935	0.428804	0	
2.2233	4.04458	-1.38851	0	
2.2240	8.91516	-3.83882	0	
2.2247	11.0514	-1.6948	0	
2.2253	4.95603	0.735093	0	
2.2260	-0.227864	-0.163354	0	
2.2267	-0.227864	-0.163354	0	
2.2273	-0.227864	0.735093	0	
2.2280	-1.13932	0.122515	0	
2.2287	0.370278	1.04138	0	
2.2293	-0.227864	3.49169	0	
2.2300	-3.58885	1.04138	0	
2.2307	-2.99071	-1.6948	0	
2.2313	1.28173	1.65396	0	
2.2320	0.683591	3.49169	0	
2.2327	-4.81362	1.04138	0	
2.2333	-9.6842	1.96025	0	
2.2340	-9.99752	2.87911	0	
2.2347	-6.32322	-0.469643	0	
2.2353	-4.81362	-0.775931	0	
2.2360	-7.26315	2.26654	0	
2.2367	-8.17461	-0.163354	0	
2.2373	-4.81362	-2.91995	0	
2.2380	-2.05077	-1.08222	0	
2.2387	-2.36409	-0.163354	0	
2.2393	-3.27554	-2.61366	0	
2.2400	-3.58885	-2.91995	0	
2.2407	-0.854489	-1.08222	0	
2.2413	1.90836	-0.163354	0	
2.2420	0.370278	-0.163354	0	
2.2427	-2.36409	1.34767	0	
2.2433	-1.13932	2.26654	0	
2.2440	-0.854489	0.428804	0	
2.2447	-4.18699	-0.163354	0	
2.2453	-6.03839	1.96025	0	
2.2460	-5.12693	2.87911	0	
2.2467	-5.72507	2.87911	0	
2.2473	-6.32322	4.41056	0	
2.2480	-6.03839	4.41056	0	
2.2487	-7.54798	1.96025	0	
2.2493	-10.5957	1.65396	0	
2.2500	-12.7319	1.96025	0	
2.2507	-12.4471	1.34767	0	
2.2513	-9.39938	1.65396	0	
2.2520	-5.72507	2.57282	0	
2.2527	-5.12693	0.735093	0	
2.2533	-6.32322	0.428804	0	
2.2540	-6.63653	2.87911	0	
2.2547	-6.32322	4.41056	0	
2.2553	-6.63653	4.41056	0	
2.2560	-6.32322	3.1854	0	
2.2567	-2.99071	-1.08222	0	
2.2573	2.5065	-3.53253	0	
2.2580	4.64272	-1.38851	0	
2.2587	1.59505	-0.775931	0	
2.2593	-3.27554	-1.6948	0	
2.2600	-6.94984	0.735093	0	
2.2607	-7.54798	1.65396	0	
2.2613	-6.32322	-2.30737	0	
2.2620	-6.94984	-0.469643	0	
2.2627	-8.45944	4.71685	0	
2.2633	-6.32322	2.87911	0	
2.2640	-3.90216	0.122515	0	
2.2647	-3.90216	2.57282	0	
2.2653	-2.05077	2.57282	0	
2.2660	2.5065	1.65396	0	
2.2667	3.73127	4.41056	0	
2.2673	1.28173	3.49169	0	
2.2680	0.0854489	2.26654	0	
2.2687	-0.541176	4.41056	0	
2.2693	-4.50031	3.49169	0	
2.2700	-9.99752	-0.163354	0	
2.2707	-15.1814	1.34767	0	
2.2713	-20.0805	4.10427	0	
2.2720	-21.2768	3.49169	0	
2.2727	-18.5424	4.10427	0	
2.2733	-16.4062	6.22787	0	
2.2740	-16.4062	5.32942	0	
2.2747	-15.1814	2.57282	0	
2.2753	-11.2223	2.26654	0	
2.2760	-7.8613	4.71685	0	
2.2767	-7.54798	4.41056	0	
2.2773	-7.54798	1.65396	0	
2.2780	-6.63653	1.96025	0	
2.2787	-6.63653	3.49169	0	
2.2793	-6.94984	1.65396	0	
2.2800	-6.03839	1.65396	0	
2.2807	-6.63653	3.79798	0	
2.2813	-10.5957	1.96025	0	
2.2820	-15.808	-0.775931	0	
2.2827	-19.7672	0.428804	0	
2.2833	-21.2768	1.65396	0	
2.2840	-18.2291	0.735093	0	
2.2847	-10.909	1.34767	0	
2.2853	-2.6774	1.65396	0	
2.2860	2.5065	0.735093	0	
2.2867	3.73127	0.735093	0	
2.2873	7.40557	1.96025	0	
2.2880	13.8142	1.34767	0	
2.2887	14.0991	0.735093	0	
2.2893	6.1808	0.122515	0	
2.2900	1.28173	-1.08222	0	
2.2907	1.28173	1.65396	0	
2.2913	-0.227864	4.41056	0	
2.2920	-4.18699	1.96025	0	
2.2927	-4.81362	-0.469643	0	
2.2933	-0.227864	1.34767	0	
2.2940	2.5065	2.57282	0	
2.2947	3.13313	1.04138	0	
2.2953	3.73127	-1.6948	0	
2.2960	7.40557	-3.83882	0	
2.2967	12.2762	-2.91995	0	
2.2973	14.7257	1.04138	0	
2.2980	14.0991	3.49169	0	
2.2987	12.5895	1.96025	0	
2.2993	11.3647	-2.00109	0	
2.3000	9.82662	-3.83882	0	
2.3007	8.00371	-0.163354	0	
2.3013	6.49411	2.57282	0	
2.3020	5.55418	0.735093	0	
2.3027	4.95603	-0.163354	0	
2.3033	1.90836	2.57282	0	
2.3040	-3.58885	4.41056	0	
2.3047	-3.90216	2.26654	0	
2.3053	0.0854489	-0.775931	0	
2.3060	0.370278	-2.00109	0	
2.3067	-1.13932	-1.08222	0	
2.3073	0.996903	0.428804	0	
2.3080	2.22167	-0.775931	0	
2.3087	-0.541176	-2.91995	0	
2.3093	-0.227864	-2.91995	0	
2.3100	4.95603	-1.08222	0	
2.3107	12.5895	-0.163354	0	
2.3113	17.4601	-1.08222	0	
2.3120	15.3238	-2.00109	0	
2.3127	8.91516	-2.30737	0	
2.3133	8.91516	-5.06397	0	
2.3140	13.5009	-7.49386	0	
2.3147	13.1876	-5.65613	0	
2.3153	9.82662	-3.53253	0	
2.3160	11.3647	-3.53253	0	
2.3167	13.5009	-3.83882	0	
2.3173	9.82662	-2.91995	0	
2.3180	6.49411	-2.61366	0	
2.3187	7.09226	-4.4514	0	
2.3193	6.1808	-5.96242	0	
2.3200	6.1808	-5.37026	0	
2.3207	11.0514	-3.53253	0	
2.3213	13.1876	-2.00109	0	
2.3220	10.4532	-2.91995	0	
2.3227	9.54179	-3.53253	0	
2.3233	9.82662	-2.00109	0	
2.3240	7.09226	-1.08222	0	
2.3247	4.04458	-3.83882	0	
2.3253	2.5065	-4.75768	0	
2.3260	1.59505	-2.91995	0	
2.3267	1.59505	-2.91995	0	
2.3273	1.28173	-3.83882	0	
2.3280	0.0854489	-1.08222	0	
2.3287	2.5065	0.735093	0	
2.3293	5.86749	-1.08222	0	
2.3300	6.49411	-2.30737	0	
2.3307	6.49411	-2.00109	0	
2.3313	7.6904	-3.83882	0	
2.3320	7.09226	-5.96242	0	
2.3327	8.91516	-5.06397	0	
2.3333	13.1876	-3.83882	0	
2.3340	13.5009	-4.14511	0	
2.3347	10.7666	-5.37026	0	
2.3353	11.3647	-5.65613	0	
2.3360	10.7666	-3.83882	0	
2.3367	6.49411	-3.22624	0	
2.3373	5.55418	-5.06397	0	
2.3380	7.40557	-5.37026	0	
2.3387	6.1808	-3.22624	0	
2.3393	3.41795	-3.83882	0	
2.3400	2.81981	-5.65613	0	
2.3407	2.5065	-6.88129	0	
2.3413	0.0854489	-7.49386	0	
2.3420	-1.13932	-6.26871	0	
2.3427	-0.227864	-3.83882	0	
2.3433	2.22167	-3.22624	0	
2.3440	4.64272	-4.75768	0	
2.3447	7.09226	-4.75768	0	
2.3453	5.55418	-4.75768	0	
2.3460	3.41795	-4.14511	0	
2.3467	4.35789	-2.91995	0	
2.3473	4.35789	-3.53253	0	
2.3480	0.996903	-5.65613	0	
2.3487	-0.227864	-5.06397	0	
2.3493	0.370278	-1.38851	0	
2.3500	-2.36409	-1.08222	0	
2.3507	-6.94984	-2.91995	0	
2.3513	-9.6842	-1.38851	0	
2.3520	-10.3108	0.735093	0	
2.3527	-7.54798	-1.08222	0	
2.3533	-5.41176	-2.00109	0	
2.3540	-7.26315	-1.08222	0	
2.3547	-8.17461	-2.61366	0	
2.3553	-8.77275	-4.4514	0	
2.3560	-11.2223	-3.83882	0	
2.3567	-9.39938	-2.00109	0	
2.3573	-4.18699	0.428804	0	
2.3580	-1.45263	1.65396	0	
2.3587	2.5065	-1.08222	0	
2.3593	7.09226	-2.61366	0	
2.3600	7.6904	-0.775931	0	
2.3607	6.49411	-1.08222	0	
2.3613	7.6904	-2.30737	0	
2.3620	8.31702	-1.38851	0	
2.3627	7.40557	-1.08222	0	
2.3633	5.55418	-2.00109	0	
2.3640	3.73127	-0.469643	0	
2.3647	3.41795	0.735093	0	
2.3653	0.996903	-0.469643	0	
2.3660	-1.76594	-0.469643	0	
2.3667	0.683591	0.735093	0	
2.3673	4.04458	-1.38851	0	
2.3680	4.35789	-4.75768	0	
2.3687	5.26935	-2.30737	0	
2.3693	4.95603	-0.163354	0	
2.3700	0.996903	-3.22624	0	
2.3707	-2.05077	-2.00109	0	
2.3713	-2.05077	2.26654	0	
2.3720	-2.36409	-1.08222	0	
2.3727	-5.72507	-3.83882	0	
2.3733	-11.8204	1.04138	0	
2.3740	-15.1814	4.41056	0	
2.3747	-11.8204	2.57282	0	
2.3753	-5.41176	1.65396	0	
2.3760	-2.05077	0.428804	0	
2.3767	-2.05077	-0.775931	0	
2.3773	-3.27554	-0.163354	0	
2.3780	-2.99071	-1.6948	0	
2.3787	-0.227864	-2.30737	0	
2.3793	2.22167	-0.163354	0	
2.3800	0.683591	-0.163354	0	
2.3807	-2.05077	0.428804	0	
2.3813	-2.99071	1.65396	0	
2.3820	-2.05077	0.122515	0	
2.3827	-2.05077	-0.469643	0	
2.3833	-2.99071	-0.163354	0	
2.3840	-3.27554	-2.30737	0	
2.3847	-3.27554	-2.00109	0	
2.3853	-3.90216	1.96025	0	
2.3860	-2.05077	1.65396	0	
2.3867	-0.541176	-0.775931	0	
2.3873	-4.50031	1.04138	0	
2.3880	-9.99752	2.57282	0	
2.3887	-7.26315	2.57282	0	
2.3893	-2.05077	2.57282	0	
2.3900	-3.90216	2.26654	0	
2.3907	-7.26315	1.96025	0	
2.3913	-6.63653	2.87911	0	
2.3920	-6.94984	1.65396	0	
2.3927	-9.6842	-0.469643	0	
2.3933	-8.45944	-0.469643	0	
2.3940	-5.12693	1.34767	0	
2.3947	-5.72507	2.26654	0	
2.3953	-6.94984	1.04138	0	
2.3960	-5.41176	-0.163354	0	
2.3967	-3.90216	0.735093	0	
2.3973	-2.36409	1.96025	0	
2.3980	2.22167	1.04138	0	
2.3987	1.28173	0.735093	0	
2.3993	-8.77275	2.26654	0	
2.4000	-15.808	1.96025	0	
2.4007	-14.27	0.735093	0	
2.4013	-12.1337	0.735093	0	
2.4020	-11.2223	1.65396	0	
2.4027	-5.72507	0.428804	0	
2.4033	1.90836	-0.469643	0	
2.4040	3.73127	1.34767	0	
2.4047	3.41795	3.49169	0	
2.4053	8.91516	2.57282	0	
2.4060	15.3238	1.65396	0	
2.4067	15.3238	1.65396	0	
2.4073	14.0991	1.96025	0	
2.4080	13.8142	2.57282	0	
2.4087	10.7666	2.57282	0	
2.4093	6.1808	1.04138	0	
2.4100	4.95603	-0.163354	0	
2.4107	4.35789	0.122515	0	
2.4113	3.41795	0.735093	0	
2.4120	4.35789	0.735093	0	
2.4127	3.73127	-0.163354	0	
2.4133	2.5065	-1.08222	0	
2.4140	3.41795	0.428804	0	
2.4147	5.55418	3.49169	0	
2.4153	5.26935	5.02313	0	
2.4160	4.35789	4.41056	0	
2.4167	4.35789	3.49169	0	
2.4173	2.5065	2.57282	0	
2.4180	-3.27554	1.04138	0	
2.4187	-7.54798	-1.38851	0	
2.4193	-8.17461	-2.61366	0	
2.4200	-7.54798	-1.08222	0	
2.4207	-6.94984	-0.163354	0	
2.4213	-5.72507	-0.469643	0	
2.4220	-2.99071	-0.163354	0	
2.4227	-0.227864	0.122515	0	
2.4233	-0.854489	-0.469643	0	
2.4240	-4.81362	-1.08222	0	
2.4247	-7.54798	-1.08222	0	
2.4253	-6.94984	-0.163354	0	
2.4260	-5.72507	0.735093	0	
2.4267	-3.58885	1.04138	0	
2.4273	-0.227864	1.65396	0	
2.4280	0.683591	1.04138	0	
2.4287	-1.13932	-0.469643	0	
2.4293	-1.76594	-0.163354	0	
2.4300	-2.05077	1.04138	0	
2.4307	-2.99071	-0.469643	0	
2.4313	-2.99071	-2.00109	0	
2.4320	-1.13932	-1.08222	0	
2.4327	0.683591	-0.163354	0	
2.4333	3.41795	-1.08222	0	
2.4340	6.77894	-0.775931	0	
2.4347	7.40557	-0.775931	0	
2.4353	6.49411	-1.6948	0	
2.4360	5.55418	-0.775931	0	
2.4367	5.55418	0.735093	0	
2.4373	5.86749	-1.08222	0	
2.4380	5.86749	-3.22624	0	
2.4387	6.1808	-3.83882	0	
2.4393	5.26935	-3.22624	0	
2.4400	2.22167	-2.61366	0	
2.4407	-1.76594	-1.08222	0	
2.4413	-2.36409	-0.163354	0	
2.4420	-2.36409	-0.163354	0	
2.4427	-4.18699	-0.469643	0	
2.4433	-6.32322	-1.38851	0	
2.4440	-5.72507	-2.30737	0	
2.4447	-1.76594	-2.91995	0	
2.4453	3.13313	-2.91995	0	
2.4460	4.35789	-2.91995	0	
2.4467	1.28173	-1.6948	0	
2.4473	-2.05077	-2.00109	0	
2.4480	-2.99071	-2.30737	0	
2.4487	-4.18699	1.65396	0	
2.4493	-6.94984	4.41056	0	
2.4500	-7.8613	0.735093	0	
2.4507	-6.03839	-1.38851	0	
2.4513	-5.41176	0.122515	0	
2.4520	-6.32322	0.122515	0	
2.4527	-6.63653	-1.08222	0	
2.4533	-7.8613	-0.775931	0	
2.4540	-5.72507	-0.469643	0	
2.4547	0.370278	-0.163354	0	
2.4553	2.5065	-0.163354	0	
2.4560	2.22167	-1.08222	0	
2.4567	5.26935	-0.469643	0	
2.4573	7.09226	1.65396	0	
2.4580	6.49411	-0.163354	0	
2.4587	12.5895	-3.83882	0	
2.4593	17.4601	-2.30737	0	
2.4600	15.039	0.122515	0	
2.4607	15.3238	-2.00109	0	
2.4613	15.039	-5.06397	0	
2.4620	5.86749	-3.83882	0	
2.4627	1.59505	-0.775931	0	
2.4633	6.77894	-1.08222	0	
2.4640	4.35789	-1.38851	0	
2.4647	-2.99071	-0.163354	0	
2.4653	-3.90216	-0.163354	0	
2.4660	-2.36409	-1.08222	0	
2.4667	-4.81362	0.735093	0	
2.4673	-9.6842	-0.163354	0	
2.4680	-13.0452	-3.53253	0	
2.4687	-10.5957	-2.00109	0	
2.4693	-5.41176	2.87911	0	
2.4700	-4.81362	3.49169	0	
2.4707	-6.03839	1.34767	0	
2.4713	-4.18699	0.428804	0	
2.4720	-2.99071	-0.163354	0	
2.4727	-2.36409	-0.163354	0	
2.4733	0.0854489	-0.469643	0	
2.4740	1.59505	-0.469643	0	
2.4747	0.683591	0.735093	0	
2.4753	0.683591	1.65396	0	
2.4760	0.996903	0.122515	0	
2.4767	2.5065	-0.163354	0	
2.4773	2.5065	1.65396	0	
2.4780	1.59505	1.04138	0	
2.4787	4.35789	-1.6948	0	
2.4793	7.09226	-2.00109	0	
2.4800	5.55418	-0.163354	0	
2.4807	6.1808	1.34767	0	
2.4813	5.86749	0.735093	0	
2.4820	0.683591	-0.163354	0	
2.4827	-1.13932	1.65396	0	
2.4833	1.59505	4.41056	0	
2.4840	-2.6774	3.79798	0	
2.4847	-6.03839	1.65396	0	
2.4853	-3.27554	0.735093	0	
2.4860	-5.41176	0.735093	0	
2.4867	-10.3108	0.735093	0	
2.4873	-7.8613	-1.38851	0	
2.4880	-6.03839	-3.53253	0	
2.4887	-9.08606	-1.08222	0	
2.4893	-8.45944	1.96025	0	
2.4900	-6.03839	0.428804	0	
2.4907	-6.94984	-1.6948	0	
2.4913	-6.63653	-2.61366	0	
2.4920	-6.63653	-4.14511	0	
2.4927	-8.77275	-2.91995	0	
2.4933	-10.3108	2.26654	0	
2.4940	-9.99752	2.57282	0	
2.4947	-11.2223	-0.163354	0	
2.4953	-12.7319	0.428804	0	
2.4960	-12.1337	1.04138	0	
2.4967	-10.909	-2.00109	0	
2.4973	-11.2223	-3.83882	0	
2.4980	-14.27	-2.00109	0	
2.4987	-13.9566	-0.163354	0	
2.4993	-6.63653	-0.163354	0	
2.5000	2.5065	-0.469643	0	
2.5007	7.6904	-0.163354	0	
2.5013	10.7666	0.122515	0	
2.5020	10.7666	-0.163354	0	
2.5027	8.91516	-1.08222	0	
2.5033	9.54179	-1.38851	0	
2.5040	11.0514	-2.00109	0	
2.5047	6.1808	-3.22624	0	
2.5053	-0.541176	-2.00109	0	
2.5060	-1.45263	0.735093	0	
2.5067	-0.541176	0.735093	0	
2.5073	-2.99071	-1.08222	0	
2.5080	-3.90216	0.122515	0	
2.5087	-1.76594	0.735093	0	
2.5093	0.370278	-1.08222	0	
2.5100	1.59505	-1.38851	0	
2.5107	2.5065	-1.08222	0	
2.5113	3.13313	-1.38851	0	
2.5120	4.35789	-0.163354	0	
2.5127	4.95603	1.04138	0	
2.5133	4.35789	0.122515	0	
2.5140	4.35789	1.04138	0	
2.5147	4.64272	1.96025	0	
2.5153	2.81981	1.04138	0	
2.5160	1.90836	0.428804	0	
2.5167	4.04458	-0.163354	0	
2.5173	4.95603	-1.6948	0	
2.5180	3.41795	-2.00109	0	
2.5187	2.5065	-0.469643	0	
2.5193	2.22167	-0.775931	0	
2.5200	-0.227864	-1.38851	0	
2.5207	-0.854489	-1.08222	0	
2.5213	-0.227864	-2.30737	0	
2.5220	0.996903	-4.4514	0	
2.5227	2.5065	-2.30737	0	
2.5233	1.59505	3.49169	0	
2.5240	0.370278	2.57282	0	
2.5247	2.5065	-1.6948	0	
2.5253	2.5065	-1.08222	0	
2.5260	-1.76594	-0.163354	0	
2.5267	-2.36409	-2.61366	0	
2.5273	-0.541176	-2.00109	0	
2.5280	-2.36409	-0.163354	0	
2.5287	-5.12693	-1.6948	0	
2.5293	-5.72507	-0.775931	0	
2.5300	-6.32322	1.65396	0	
2.5307	-9.6842	1.04138	0	
2.5313	-16.0929	1.04138	0	
2.5320	-16.7195	3.49169	0	
2.5327	-7.8613	3.49169	0	
2.5333	-2.05077	1.34767	0	
2.5340	-3.90216	0.428804	0	
2.5347	-3.90216	0.428804	0	
2.5353	-3.58885	0.428804	0	
2.5360	-4.18699	-0.775931	0	
2.5367	-2.99071	-1.6948	0	
2.5373	-4.18699	0.122515	0	
2.5380	-8.45944	1.34767	0	
2.5387	-8.45944	-0.163354	0	
2.5393	-4.18699	-2.00109	0	
2.5400	-2.99071	-2.00109	0	
2.5407	-1.76594	-0.469643	0	
2.5413	0.0854489	1.65396	0	
2.5420	1.90836	2.57282	0	
2.5427	4.95603	1.04138	0	
2.5433	5.86749	-0.163354	0	
2.5440	1.59505	0.122515	0	
2.5447	-2.05077	1.96025	0	
2.5453	-0.541176	1.65396	0	
2.5460	1.28173	0.735093	0	
2.5467	3.13313	1.96025	0	
2.5473	5.55418	2.87911	0	
2.5480	6.1808	1.65396	0	
2.5487	3.41795	2.57282	0	
2.5493	0.683591	4.41056	0	
2.5500	2.5065	2.87911	0	
2.5507	7.09226	1.34767	0	
2.5513	8.00371	2.26654	0	
2.5520	5.55418	2.57282	0	
2.5527	5.55418	3.49169	0	
2.5533	4.64272	4.41056	0	
2.5540	0.683591	3.49169	0	
2.5547	0.370278	1.96025	0	
2.5553	2.5065	1.96025	0	
2.5560	1.59505	0.735093	0	
2.5567	-0.541176	-0.775931	0	
2.5573	0.996903	0.428804	0	
2.5580	2.5065	0.428804	0	
2.5587	2.5065	-1.6948	0	
2.5593	2.5065	-0.469643	0	
2.5600	-0.227864	2.26654	0	
2.5607	-2.99071	0.735093	0	
2.5613	0.0854489	-1.08222	0	
2.5620	3.73127	1.34767	0	
2.5627	2.81981	3.1854	0	
2.5633	0.996903	0.735093	0	
2.5640	0.0854489	-0.775931	0	
2.5647	-1.13932	1.96025	0	
2.5653	-2.99071	3.49169	0	
2.5660	-4.81362	-0.163354	0	
2.5667	-6.94984	-2.30737	0	
2.5673	-7.54798	1.04138	0	
2.5680	-5.72507	2.57282	0	
2.5687	-1.76594	-0.775931	0	
2.5693	0.996903	-1.08222	0	
2.5700	0.683591	0.122515	0	
2.5707	1.28173	-1.38851	0	
2.5713	1.28173	-1.38851	0	
2.5720	-4.18699	1.04138	0	
2.5727	-5.72507	0.735093	0	
2.5733	1.28173	-0.469643	0	
2.5740	3.13313	-0.775931	0	
2.5747	-1.13932	-1.6948	0	
2.5753	0.370278	-3.22624	0	
2.5760	4.04458	-4.14511	0	
2.5767	2.5065	-5.37026	0	
2.5773	1.28173	-3.83882	0	
2.5780	2.5065	-1.08222	0	
2.5787	1.59505	-0.163354	0	
2.5793	-3.27554	-1.6948	0	
2.5800	-5.72507	-2.91995	0	
2.5807	-2.6774	-2.91995	0	
2.5813	1.28173	-1.08222	0	
2.5820	-0.227864	-0.775931	0	
2.5827	-2.6774	-3.22624	0	
2.5833	-0.854489	-3.83882	0	
2.5840	4.04458	-0.775931	0	
2.5847	8.63034	-0.775931	0	
2.5853	10.7666	-3.22624	0	
2.5860	9.82662	-2.30737	0	
2.5867	8.00371	0.735093	0	
2.5873	2.5065	-0.163354	0	
2.5880	-8.45944	-3.83882	0	
2.5887	-19.4539	-3.83882	0	
2.5893	-21.2768	-1.38851	0	
2.5900	-17.3176	0.428804	0	
2.5907	-13.9566	-0.163354	0	
2.5913	-11.2223	-0.469643	0	
2.5920	-7.26315	1.96025	0	
2.5927	-3.27554	4.41056	0	
2.5933	-0.227864	2.87911	0	
2.5940	2.22167	1.34767	0	
2.5947	5.86749	2.57282	0	
2.5953	11.3647	3.1854	0	
2.5960	15.3238	0.122515	0	
2.5967	15.3238	-2.91995	0	
2.5973	14.0991	-2.91995	0	
2.5980	12.5895	-0.469643	0	
2.5987	11.0514	0.428804	0	
2.5993	13.1876	-2.30737	0	
2.6000	15.3238	-5.06397	0	
2.6007	13.1876	-5.65613	0	
2.6013	11.0514	-6.575	0	
2.6020	12.9028	-6.26871	0	
2.6027	12.5895	-2.91995	0	
2.6033	10.1399	-1.08222	0	
2.6040	10.4532	-2.00109	0	
2.6047	8.00371	-1.38851	0	
2.6053	2.81981	-0.775931	0	
2.6060	3.41795	-2.30737	0	
2.6067	3.41795	-2.91995	0	
2.6073	-2.36409	-2.00109	0	
2.6080	-4.18699	-2.30737	0	
2.6087	-1.13932	-2.30737	0	
2.6093	-0.854489	-1.38851	0	
2.6100	-2.99071	-1.08222	0	
2.6107	-4.81362	0.735093	0	
2.6113	-4.81362	2.26654	0	
2.6120	-1.13932	-0.163354	0	
2.6127	-1.76594	-2.91995	0	
2.6133	-4.50031	-1.38851	0	
2.6140	-0.854489	0.735093	0	
2.6147	3.13313	0.735093	0	
2.6153	2.22167	0.735093	0	
2.6160	3.13313	0.735093	0	
2.6167	4.35789	-0.469643	0	
2.6173	0.370278	-2.91995	0	
2.6180	-1.13932	-3.53253	0	
2.6187	1.59505	-1.38851	0	
2.6193	-0.227864	0.122515	0	
2.6200	-2.6774	0.428804	0	
2.6207	-1.13932	0.735093	0	
2.6213	0.683591	0.735093	0	
2.6220	1.28173	0.428804	0	
2.6227	1.90836	0.735093	0	
2.6233	2.5065	0.735093	0	
2.6240	2.81981	-0.163354	0	
2.6247	2.22167	0.428804	0	
2.6253	-0.227864	1.04138	0	
2.6260	-1.76594	-1.08222	0	
2.6267	-2.99071	-2.00109	0	
2.6273	-6.32322	1.04138	0	
2.6280	-9.99752	2.26654	0	
2.6287	-10.5957	-1.08222	0	
2.6293	-8.17461	-2.91995	0	
2.6300	-5.41176	-2.00109	0	
2.6307	-3.58885	0.735093	0	
2.6313	-2.36409	3.1854	0	
2.6320	-2.36409	2.57282	0	
2.6327	-3.58885	-0.163354	0	
2.6333	-5.41176	1.04138	0	
2.6340	-5.72507	4.41056	0	
2.6347	-2.36409	1.96025	0	
2.6353	-0.854489	-2.00109	0	
2.6360	-2.99071	-2.30737	0	
2.6367	-2.6774	-2.00109	0	
2.6373	-1.13932	-2.91995	0	
2.6380	-2.36409	-2.91995	0	
2.6387	-1.76594	-1.6948	0	
2.6393	-0.854489	-0.163354	0	
2.6400	-3.90216	-1.08222	0	
2.6407	-2.6774	-2.61366	0	
2.6413	4.35789	-1.08222	0	
2.6420	5.86749	1.34767	0	
2.6427	3.41795	0.735093	0	
2.6433	5.26935	-0.775931	0	
2.6440	5.26935	-0.163354	0	
2.6447	-0.227864	1.34767	0	
2.6453	-4.50031	1.04138	0	
2.6460	-4.81362	-0.469643	0	
2.6467	-6.63653	-1.08222	0	
2.6473	-9.99752	0.735093	0	
2.6480	-13.6718	1.65396	0	
2.6487	-15.1814	-0.163354	0	
2.6493	-13.0452	-1.38851	0	
2.6500	-8.45944	-0.469643	0	
2.6507	-5.41176	-0.469643	0	
2.6513	1.59505	-1.6948	0	
2.6520	11.0514	-1.6948	0	
2.6527	11.678	0.122515	0	
2.6533	4.35789	1.04138	0	
2.6540	3.41795	0.428804	0	
2.6547	6.77894	-0.163354	0	
2.6553	7.40557	0.735093	0	
2.6560	8.91516	1.65396	0	
2.6567	9.22848	1.65396	0	
2.6573	5.26935	2.57282	0	
2.6580	4.64272	3.1854	0	
2.6587	5.86749	2.57282	0	
2.6593	3.41795	1.96025	0	
2.6600	3.13313	1.04138	0	
2.6607	5.26935	-1.38851	0	
2.6613	3.41795	-1.38851	0	
2.6620	2.5065	1.65396	0	
2.6627	2.81981	1.65396	0	
2.6633	0.996903	-1.08222	0	
2.6640	-0.227864	-2.00109	0	
2.6647	1.28173	-1.38851	0	
2.6653	0.0854489	-1.08222	0	
2.6660	-2.99071	-0.469643	0	
2.6667	-2.6774	-0.163354	0	
2.6673	-1.13932	-0.469643	0	
2.6680	-1.45263	-2.00109	0	
2.6687	-2.99071	-2.91995	0	
2.6693	-2.36409	-1.08222	0	
2.6700	0.996903	0.428804	0	
2.6707	1.90836	-1.08222	0	
2.6713	0.0854489	-0.775931	0	
2.6720	0.683591	1.65396	0	
2.6727	1.59505	0.122515	0	
2.6733	-1.13932	-1.08222	0	
2.6740	-3.90216	2.57282	0	
2.6747	-3.90216	3.49169	0	
2.6753	-3.58885	0.122515	0	
2.6760	-2.99071	-0.469643	0	
2.6767	-0.541176	1.65396	0	
2.6773	2.5065	1.96025	0	
2.6780	2.5065	0.428804	0	
2.6787	1.59505	0.122515	0	
2.6793	0.683591	1.65396	0	
2.6800	-1.13932	1.34767	0	
2.6807	-3.27554	-0.469643	0	
2.6813	-2.36409	-1.08222	0	
2.6820	-1.13932	-1.08222	0	
2.6827	-5.41176	-2.00109	0	
2.6833	-13.6718	-0.775931	0	
2.6840	-18.2291	1.34767	0	
2.6847	-19.4539	-0.469643	0	
2.6853	-20.9919	-3.53253	0	
2.6860	-18.5424	-1.6948	0	
2.6867	-10.909	-0.163354	0	
2.6873	-4.50031	-2.00109	0	
2.6880	-2.36409	-1.08222	0	
2.6887	0.683591	1.65396	0	
2.6893	6.1808	0.122515	0	
2.6900	10.7666	-1.6948	0	
2.6907	11.0514	1.04138	0	
2.6913	7.40557	1.96025	0	
2.6920	1.59505	-0.163354	0	
2.6927	-1.13932	1.65396	0	
2.6933	0.0854489	4.10427	0	
2.6940	-2.05077	1.65396	0	
2.6947	-4.81362	0.122515	0	
2.6953	-0.227864	2.26654	0	
2.6960	7.09226	1.65396	0	
2.6967	8.91516	-2.30737	0	
2.6973	9.82662	-4.75768	0	
2.6980	10.7666	-4.14511	0	
2.6987	7.09226	-1.6948	0	
2.6993	2.5065	1.34767	0	
2.7000	2.81981	0.735093	0	
2.7007	5.86749	-1.08222	0	
2.7013	6.1808	-1.38851	0	
2.7020	4.35789	-1.08222	0	
2.7027	2.5065	-2.91995	0	
2.7033	1.90836	-3.83882	0	
2.7040	1.28173	-3.83882	0	
2.7047	-2.6774	-2.30737	0	
2.7053	-9.6842	-1.6948	0	
2.7060	-14.8681	-2.00109	0	
2.7067	-15.1814	-2.00109	0	
2.7073	-14.5833	-1.38851	0	
2.7080	-13.9566	-3.22624	0	
2.7087	-10.5957	-4.14511	0	
2.7093	-7.54798	-3.22624	0	
2.7100	-6.32322	-3.83882	0	
2.7107	-4.50031	-4.4514	0	
2.7113	-1.13932	-1.08222	0	
2.7120	0.683591	0.122515	0	
2.7127	-0.227864	-3.83882	0	
2.7133	0.0854489	-5.96242	0	
2.7140	2.5065	-4.14511	0	
2.7147	3.13313	-3.83882	0	
2.7153	-0.227864	-3.83882	0	
2.7160	-2.6774	-3.83882	0	
2.7167	0.683591	-4.4514	0	
2.7173	4.04458	-4.75768	0	
2.7180	2.81981	-3.22624	0	
2.7187	1.28173	-2.91995	0	
2.7193	2.5065	-2.91995	0	
2.7200	3.41795	-0.775931	0	
2.7207	3.73127	2.26654	0	
2.7213	2.5065	0.735093	0	
2.7220	2.5065	-2.00109	0	
2.7227	4.95603	1.34767	0	
2.7233	5.26935	3.79798	0	
2.7240	3.41795	-1.08222	0	
2.7247	3.73127	-2.61366	0	
2.7253	3.73127	1.04138	0	
2.7260	0.683591	0.122515	0	
2.7267	-0.227864	-2.30737	0	
2.7273	2.5065	-0.163354	0	
2.7280	2.5065	-1.08222	0	
2.7287	0.370278	-3.83882	0	
2.7293	-1.13932	-2.91995	0	
2.7300	-1.13932	-2.30737	0	
2.7307	-0.854489	-3.53253	0	
2.7313	-0.854489	-1.6948	0	
2.7320	-0.854489	-1.38851	0	
2.7327	-2.36409	-2.91995	0	
2.7333	-6.63653	-1.08222	0	
2.7340	-9.99752	0.735093	0	
2.7347	-7.26315	-1.08222	0	
2.7353	-3.90216	-0.163354	0	
2.7360	-2.99071	2.26654	0	
2.7367	-1.13932	1.34767	0	
2.7373	0.996903	1.04138	0	
2.7380	1.28173	1.65396	0	
2.7387	1.59505	-0.163354	0	
2.7393	1.28173	-1.08222	0	
2.7400	-0.541176	-1.08222	0	
2.7407	-4.18699	-0.469643	0	
2.7413	-7.8613	2.57282	0	
2.7420	-7.54798	4.41056	0	
2.7427	-6.63653	1.04138	0	
2.7433	-6.32322	0.428804	0	
2.7440	-3.90216	2.87911	0	
2.7447	-2.05077	1.34767	0	
2.7453	-4.81362	-0.469643	0	
2.7460	-4.50031	2.57282	0	
2.7467	-0.227864	4.10427	0	
2.7473	-0.854489	1.65396	0	
2.7480	-4.18699	-0.163354	0	
2.7487	-5.12693	0.735093	0	
2.7493	-4.81362	3.1854	0	
2.7500	-2.05077	5.02313	0	
2.7507	0.996903	4.41056	0	
2.7513	-1.76594	2.57282	0	
2.7520	-4.81362	2.26654	0	
2.7527	-3.58885	3.1854	0	
2.7533	-3.58885	3.49169	0	
2.7540	-5.12693	2.57282	0	
2.7547	-4.18699	2.26654	0	
2.7553	-3.90216	3.49169	0	
2.7560	-4.18699	2.57282	0	
2.7567	-0.854489	-0.775931	0	
2.7573	2.22167	-2.00109	0	
2.7580	1.90836	-2.91995	0	
2.7587	3.41795	-3.53253	0	
2.7593	8.31702	-0.469643	0	
2.7600	10.4532	1.96025	0	
2.7607	7.6904	-0.469643	0	
2.7613	4.35789	-2.91995	0	
2.7620	2.5065	-2.00109	0	
2.7627	0.996903	0.122515	0	
2.7633	0.683591	1.04138	0	
2.7640	1.59505	1.34767	0	
2.7647	1.28173	2.87911	0	
2.7653	-0.227864	3.49169	0	
2.7660	-2.36409	0.428804	0	
2.7667	-6.32322	-1.38851	0	
2.7673	-7.54798	-0.163354	0	
2.7680	-2.99071	0.735093	0	
2.7687	-0.227864	0.428804	0	
2.7693	-2.99071	0.735093	0	
2.7700	-1.76594	-0.469643	0	
2.7707	2.81981	-1.38851	0	
2.7713	4.04458	-0.469643	0	
2.7720	4.35789	-0.469643	0	
2.7727	5.26935	-1.08222	0	
2.7733	-0.227864	-1.38851	0	
2.7740	-10.3108	-1.08222	0	
2.7747	-13.6718	-0.469643	0	
2.7753	-11.5356	-0.775931	0	
2.7760	-9.99752	-2.91995	0	
2.7767	-6.03839	-3.83882	0	
2.7773	-0.227864	-2.61366	0	
2.7780	3.13313	-1.08222	0	
2.7787	6.1808	-0.163354	0	
2.7793	13.1876	-2.00109	0	
2.7800	19.9096	-3.53253	0	
2.7807	21.7325	-0.775931	0	
2.7813	20.821	0.735093	0	
2.7820	16.5486	-1.6948	0	
2.7827	8.91516	-1.38851	0	
2.7833	5.26935	0.735093	0	
2.7840	6.77894	-0.163354	0	
2.7847	3.41795	-3.83882	0	
2.7853	-2.36409	-4.75768	0	
2.7860	-0.854489	-1.08222	0	
2.7867	2.5065	0.428804	0	
2.7873	0.996903	-1.08222	0	
2.7880	2.5065	-0.163354	0	
2.7887	4.64272	1.34767	0	
2.7893	2.5065	-0.163354	0	
2.7900	1.59505	-0.163354	0	
2.7907	1.59505	0.122515	0	
2.7913	-2.05077	-1.08222	0	
2.7920	-2.99071	0.428804	0	
2.7927	-1.45263	1.04138	0	
2.7933	-2.99071	-3.83882	0	
2.7940	-2.99071	-4.75768	0	
2.7947	-0.541176	-1.6948	0	
2.7953	-0.227864	-2.30737	0	
2.7960	1.90836	-2.91995	0	
2.7967	8.00371	-0.163354	0	
2.7973	9.82662	-1.08222	0	
2.7980	8.00371	-3.53253	0	
2.7987	8.31702	-1.38851	0	
2.7993	9.82662	-1.6948	0	
2.8000	9.82662	-4.75768	0	
2.8007	6.1808	-4.75768	0	
2.8013	-0.541176	-1.6948	0	
2.8020	-4.81362	-0.469643	0	
2.8027	-4.81362	-0.469643	0	
2.8033	-5.12693	0.122515	0	
2.8040	-4.50031	0.428804	0	
2.8047	-0.541176	-0.163354	0	
2.8053	3.13313	0.735093	0	
2.8060	4.35789	1.96025	0	
2.8067	2.5065	1.65396	0	
2.8073	-1.76594	0.122515	0	
2.8080	-2.99071	-0.775931	0	
2.8087	-0.854489	1.04138	0	
2.8093	-0.541176	2.87911	0	
2.8100	-3.90216	0.122515	0	
2.8107	-6.63653	-2.00109	0	
2.8113	-4.81362	0.122515	0	
2.8120	-2.05077	0.122515	0	
2.8127	-1.76594	-0.775931	0	
2.8133	-2.6774	1.96025	0	
2.8140	-2.99071	2.57282	0	
2.8147	-2.05077	-0.163354	0	
2.8153	1.28173	-0.775931	0	
2.8160	4.35789	-0.163354	0	
2.8167	3.73127	-0.775931	0	
2.8173	3.41795	0.735093	0	
2.8180	5.26935	-0.163354	0	
2.8187	6.49411	-2.00109	0	
2.8193	4.95603	-0.163354	0	
2.8200	3.13313	1.96025	0	
2.8207	1.90836	-0.469643	0	
2.8213	0.683591	-2.61366	0	
2.8220	-1.13932	-2.61366	0	
2.8227	-2.6774	-0.469643	0	
2.8233	-3.90216	1.65396	0	
2.8240	-5.72507	-0.163354	0	
2.8247	-6.03839	-2.61366	0	
2.8253	-3.90216	0.428804	0	
2.8260	-0.854489	0.428804	0	
2.8267	-0.854489	-3.83882	0	
2.8273	-3.90216	-1.38851	0	
2.8280	-6.94984	3.49169	0	
2.8287	-6.94984	1.34767	0	
2.8293	-5.72507	-2.00109	0	
2.8300	-5.72507	-0.163354	0	
2.8307	-6.32322	1.04138	0	
2.8313	-5.72507	1.34767	0	
2.8320	-7.54798	2.57282	0	
2.8327	-8.45944	1.96025	0	
2.8333	-5.41176	0.122515	0	
2.8340	-0.854489	-0.163354	0	
2.8347	1.59505	-0.163354	0	
2.8353	2.5065	-0.163354	0	
2.8360	4.35789	-0.163354	0	
2.8367	6.1808	-1.08222	0	
2.8373	8.00371	-1.6948	0	
2.8380	8.31702	-1.08222	0	
2.8387	5.86749	0.122515	0	
2.8393	2.5065	0.122515	0	
2.8400	1.90836	0.122515	0	
2.8407	2.22167	0.735093	0	
2.8413	1.59505	-0.469643	0	
2.8420	1.28173	-2.91995	0	
2.8427	1.59505	-2.91995	0	
2.8433	0.0854489	-1.08222	0	
2.8440	-2.05077	-1.08222	0	
2.8447	-2.6774	-1.6948	0	
2.8453	-2.05077	0.122515	0	
2.8460	-3.90216	1.65396	0	
2.8467	-7.54798	1.04138	0	
2.8473	-7.26315	1.04138	0	
2.8480	-1.13932	1.34767	0	
2.8487	4.64272	0.428804	0	
2.8493	6.49411	-1.6948	0	
2.8500	2.5065	-2.91995	0	
2.8507	-2.05077	-0.775931	0	
2.8513	-1.45263	1.04138	0	
2.8520	1.90836	-1.08222	0	
2.8527	3.41795	-2.30737	0	
2.8533	5.55418	0.735093	0	
2.8540	9.22848	2.57282	0	
2.8547	8.63034	-0.775931	0	
2.8553	4.35789	-3.83882	0	
2.8560	2.5065	-2.91995	0	
2.8567	4.35789	-0.775931	0	
2.8573	6.49411	-2.30737	0	
2.8580	8.00371	-4.75768	0	
2.8587	6.49411	-3.53253	0	
2.8593	4.35789	-0.469643	0	
2.8600	3.41795	-1.38851	0	
2.8607	3.13313	-3.83882	0	
2.8613	2.5065	-3.83882	0	
2.8620	0.996903	-1.6948	0	
2.8627	-0.541176	0.428804	0	
2.8633	2.5065	-0.163354	0	
2.8640	7.09226	-2.91995	0	
2.8647	6.1808	-4.75768	0	
2.8653	2.5065	-3.83882	0	
2.8660	2.5065	-2.91995	0	
2.8667	3.41795	-2.61366	0	
2.8673	-0.227864	-2.00109	0	
2.8680	-4.81362	-0.469643	0	
2.8687	-4.18699	-0.775931	0	
2.8693	-0.541176	-2.61366	0	
2.8700	-0.541176	-2.91995	0	
2.8707	-1.76594	-2.61366	0	
2.8713	1.59505	-3.53253	0	
2.8720	4.04458	-3.83882	0	
2.8727	3.41795	-1.6948	0	
2.8733	3.73127	-0.775931	0	
2.8740	2.81981	-2.30737	0	
2.8747	1.28173	-1.6948	0	
2.8753	4.04458	-0.163354	0	
2.8760	8.00371	-2.00109	0	
2.8767	6.77894	-4.14511	0	
2.8773	6.49411	-2.61366	0	
2.8780	7.09226	-1.38851	0	
2.8787	2.22167	-1.08222	0	
2.8793	-1.13932	1.65396	0	
2.8800	1.90836	1.34767	0	
2.8807	2.5065	-2.91995	0	
2.8813	1.28173	-3.83882	0	
2.8820	0.370278	-3.22624	0	
2.8827	-8.17461	-4.14511	0	
2.8833	-18.2291	-3.53253	0	
2.8840	-17.6309	-0.775931	0	
2.8847	-14.5833	-1.08222	0	
2.8853	-16.4062	-1.6948	0	
2.8860	-14.27	0.122515	0	
2.8867	-7.54798	-0.469643	0	
2.8873	-4.18699	-2.61366	0	
2.8880	-3.27554	-2.00109	0	
2.8887	2.81981	-1.08222	0	
2.8893	12.2762	-1.08222	0	
2.8900	14.7257	-1.08222	0	
2.8907	10.1399	-1.08222	0	
2.8913	4.95603	-2.00109	0	
2.8920	2.22167	-2.00109	0	
2.8927	0.370278	-1.08222	0	
2.8933	-0.227864	0.122515	0	
2.8940	-1.13932	1.65396	0	
2.8947	0.370278	1.34767	0	
2.8953	4.95603	0.428804	0	
2.8960	6.77894	-0.163354	0	
2.8967	3.73127	-2.00109	0	
2.8973	3.41795	-2.91995	0	
2.8980	5.26935	-1.08222	0	
2.8987	2.5065	-0.469643	0	
2.8993	-0.227864	-1.6948	0	
2.9000	-0.541176	-2.00109	0	
2.9007	-1.13932	-1.38851	0	
2.9013	-1.13932	-0.775931	0	
2.9020	1.59505	0.735093	0	
2.9027	3.73127	-0.469643	0	
2.9033	5.86749	-3.83882	0	
2.9040	7.40557	-3.53253	0	
2.9047	5.26935	-1.08222	0	
2.9053	1.90836	-1.38851	0	
2.9060	0.683591	-0.775931	0	
2.9067	0.0854489	0.122515	0	
2.9073	-0.541176	-2.00109	0	
2.9080	-1.13932	-2.91995	0	
2.9087	-0.227864	-0.469643	0	
2.9093	1.59505	-0.163354	0	
2.9100	1.59505	-2.00109	0	
2.9107	0.370278	-2.30737	0	
2.9113	-0.541176	-2.00109	0	
2.9120	-3.90216	0.428804	0	
2.9127	-10.3108	2.57282	0	
2.9133	-18.5424	0.122515	0	
2.9140	-24.9511	-1.08222	0	
2.9147	-25.5492	1.65396	0	
2.9153	-21.2768	1.04138	0	
2.9160	-17.3176	-3.53253	0	
2.9167	-12.1337	-3.83882	0	
2.9173	-3.90216	-0.469643	0	
2.9180	2.5065	0.428804	0	
2.9187	4.95603	-1.08222	0	
2.9193	5.26935	-1.08222	0	
2.9200	4.64272	1.04138	0	
