0.0007	-3.15272	-0.0681132	0	
0.0013	-7.1366	0.544905	0	
0.0020	-6.21945	-0.0681132	0	
0.0027	-4.38514	0.862767	0	
0.0033	-5.3023	1.45308	0	
0.0040	-2.86611	-0.0681132	0	
0.0047	1.11778	-1.88446	0	
0.0053	1.40439	-2.81534	0	
0.0060	-1.31841	-1.88446	0	
0.0067	-2.23556	0.862767	0	
0.0073	-1.63368	0.862767	0	
0.0080	-1.31841	-1.29415	0	
0.0087	-1.0318	-0.681132	0	
0.0093	-0.114644	0.249748	0	
0.0100	2.03494	-1.29415	0	
0.0107	3.55397	-0.976289	0	
0.0113	3.2387	-0.0681132	0	
0.0120	2.95209	-0.976289	0	
0.0127	4.75774	-0.976289	0	
0.0133	6.90732	-0.681132	0	
0.0140	4.75774	-0.976289	0	
0.0147	1.11778	-0.976289	0	
0.0153	-0.716527	-1.88446	0	
0.0160	0.200627	-1.88446	0	
0.0167	2.03494	0.249748	0	
0.0173	3.86924	-0.976289	0	
0.0180	4.15585	-2.81534	0	
0.0187	2.95209	-0.36327	0	
0.0193	2.03494	1.15792	0	
0.0200	2.03494	0.249748	0	
0.0207	0.80251	1.45308	0	
0.0213	-3.46799	1.45308	0	
0.0220	-6.21945	-0.36327	0	
0.0227	-4.70041	0.544905	0	
0.0233	-3.15272	1.77094	0	
0.0240	-3.46799	0.862767	0	
0.0247	-5.3023	0.544905	0	
0.0253	-5.61757	1.77094	0	
0.0260	-4.38514	2.67912	0	
0.0267	-2.55083	2.38396	0	
0.0273	-3.46799	0.249748	0	
0.0280	-4.98702	-0.976289	0	
0.0287	-3.78326	-0.0681132	0	
0.0293	0.487238	-0.681132	0	
0.0300	7.22259	-1.58931	0	
0.0307	12.095	0.862767	0	
0.0313	9.94539	2.0661	0	
0.0320	4.75774	-2.20233	0	
0.0327	3.2387	-3.72352	0	
0.0333	3.2387	-0.0681132	0	
0.0340	2.03494	1.45308	0	
0.0347	2.03494	-0.0681132	0	
0.0353	1.11778	0.544905	0	
0.0360	-0.716527	0.862767	0	
0.0367	-1.0318	-0.0681132	0	
0.0373	-0.716527	1.45308	0	
0.0380	-1.94895	1.15792	0	
0.0387	-2.55083	-1.29415	0	
0.0393	-0.429916	-1.58931	0	
0.0400	2.03494	-0.0681132	0	
0.0407	2.03494	0.544905	0	
0.0413	-1.0318	0.862767	0	
0.0420	-1.31841	-0.681132	0	
0.0427	0.487238	0.249748	0	
0.0433	-1.0318	3.58729	0	
0.0440	-3.78326	1.77094	0	
0.0447	-1.94895	-1.88446	0	
0.0453	2.03494	0.862767	0	
0.0460	3.86924	2.38396	0	
0.0467	2.03494	-0.0681132	0	
0.0473	0.200627	-0.681132	0	
0.0480	0.80251	-0.0681132	0	
0.0487	3.2387	-1.88446	0	
0.0493	5.99016	-1.58931	0	
0.0500	8.42635	-0.0681132	0	
0.0507	10.2607	-1.29415	0	
0.0513	9.0569	-3.42836	0	
0.0520	5.38828	-2.81534	0	
0.0527	4.47113	-0.681132	0	
0.0533	5.67489	-0.0681132	0	
0.0540	3.55397	-0.976289	0	
0.0547	-1.63368	0.544905	0	
0.0553	-5.90418	0.862767	0	
0.0560	-6.21945	-2.20233	0	
0.0567	-6.21945	-0.976289	0	
0.0573	-8.34037	3.58729	0	
0.0580	-10.4899	2.67912	0	
0.0587	-12.009	1.15792	0	
0.0593	-13.528	2.99698	0	
0.0600	-13.528	1.77094	0	
0.0607	-12.6109	-0.976289	0	
0.0613	-12.3243	0.249748	0	
0.0620	-9.88807	1.77094	0	
0.0627	-6.50606	0.862767	0	
0.0633	-4.70041	0.862767	0	
0.0640	-3.46799	-0.36327	0	
0.0647	-0.114644	-3.42836	0	
0.0653	1.11778	-1.88446	0	
0.0660	-1.63368	0.249748	0	
0.0667	-3.46799	-2.49748	0	
0.0673	0.487238	-2.81534	0	
0.0680	4.75774	0.862767	0	
0.0687	5.07301	-0.0681132	0	
0.0693	5.67489	-3.42836	0	
0.0700	8.74162	-2.20233	0	
0.0707	8.42635	-0.681132	0	
0.0713	3.86924	-1.29415	0	
0.0720	0.80251	-0.0681132	0	
0.0727	0.200627	0.544905	0	
0.0733	1.71966	-2.20233	0	
0.0740	3.2387	-3.72352	0	
0.0747	2.32155	-1.29415	0	
0.0753	-1.63368	-0.976289	0	
0.0760	-4.38514	-2.20233	0	
0.0767	-4.38514	-0.976289	0	
0.0773	-5.3023	-0.0681132	0	
0.0780	-5.90418	-1.88446	0	
0.0787	-5.3023	-1.29415	0	
0.0793	-4.98702	1.77094	0	
0.0800	-3.78326	1.15792	0	
0.0807	1.11778	-0.976289	0	
0.0813	3.86924	0.544905	0	
0.0820	2.03494	1.77094	0	
0.0827	2.03494	-0.976289	0	
0.0833	4.75774	-1.88446	0	
0.0840	4.75774	1.77094	0	
0.0847	2.03494	2.38396	0	
0.0853	-0.716527	-0.681132	0	
0.0860	-3.46799	-1.29415	0	
0.0867	-7.42321	-0.0681132	0	
0.0873	-11.6937	-0.976289	0	
0.0880	-12.9261	-1.29415	0	
0.0887	-9.88807	0.544905	0	
0.0893	-5.3023	1.45308	0	
0.0900	-3.46799	-0.0681132	0	
0.0907	-3.78326	-0.36327	0	
0.0913	-4.38514	0.249748	0	
0.0920	-4.38514	0.249748	0	
0.0927	-2.55083	-0.976289	0	
0.0933	-1.63368	-2.20233	0	
0.0940	-1.94895	-1.58931	0	
0.0947	-1.63368	-0.0681132	0	
0.0953	-0.716527	-0.976289	0	
0.0960	-1.63368	-1.58931	0	
0.0967	-1.0318	0.544905	0	
0.0973	0.200627	0.544905	0	
0.0980	-1.63368	-2.81534	0	
0.0987	-2.86611	-3.42836	0	
0.0993	-2.55083	-0.36327	0	
0.1000	-3.78326	-0.0681132	0	
0.1007	-4.70041	-1.29415	0	
0.1013	-4.06987	-0.681132	0	
0.1020	-5.3023	-0.36327	0	
0.1027	-6.21945	-0.976289	0	
0.1033	-4.70041	-0.0681132	0	
0.1040	-5.3023	0.862767	0	
0.1047	-5.61757	0.544905	0	
0.1053	-1.63368	0.862767	0	
0.1060	1.40439	-0.0681132	0	
0.1067	1.11778	-0.976289	0	
0.1073	2.03494	1.15792	0	
0.1080	3.55397	2.38396	0	
0.1087	2.03494	0.249748	0	
0.1093	2.03494	1.77094	0	
0.1100	8.13974	4.20031	0	
0.1107	12.095	1.45308	0	
0.1113	6.59204	-0.681132	0	
0.1120	-0.429916	1.45308	0	
0.1127	0.200627	0.544905	0	
0.1133	1.71966	-1.29415	0	
0.1140	-1.94895	-0.36327	0	
0.1147	-3.15272	-0.36327	0	
0.1153	-1.63368	-0.681132	0	
0.1160	-3.46799	0.249748	0	
0.1167	-3.46799	-1.29415	0	
0.1173	-0.716527	-2.81534	0	
0.1180	-0.716527	-0.36327	0	
0.1187	-2.55083	1.45308	0	
0.1193	-2.86611	-0.36327	0	
0.1200	-1.63368	-0.976289	0	
0.1207	1.71966	-0.0681132	0	
0.1213	2.95209	0.862767	0	
0.1220	-0.716527	1.15792	0	
0.1227	-4.70041	1.77094	0	
0.1233	-5.3023	0.544905	0	
0.1240	-4.70041	-1.88446	0	
0.1247	-1.94895	-0.36327	0	
0.1253	1.71966	2.67912	0	
0.1260	3.55397	0.544905	0	
0.1267	5.07301	-3.72352	0	
0.1273	6.90732	-4.33654	0	
0.1280	8.42635	-3.72352	0	
0.1287	10.2607	-3.42836	0	
0.1293	11.7797	-3.1105	0	
0.1300	10.2607	-2.49748	0	
0.1307	9.34351	-1.29415	0	
0.1313	10.2607	-0.36327	0	
0.1320	9.65878	-1.88446	0	
0.1327	6.90732	-2.81534	0	
0.1333	5.38828	-0.681132	0	
0.1340	5.38828	1.77094	0	
0.1347	4.15585	1.15792	0	
0.1353	4.75774	0.249748	0	
0.1360	7.5092	-0.0681132	0	
0.1367	4.15585	-0.36327	0	
0.1373	-2.55083	-0.0681132	0	
0.1380	-2.86611	1.15792	0	
0.1387	-1.31841	2.0661	0	
0.1393	-4.38514	0.249748	0	
0.1400	-3.46799	-1.58931	0	
0.1407	-1.63368	-0.0681132	0	
0.1413	-5.3023	1.15792	0	
0.1420	-6.21945	-0.681132	0	
0.1427	-2.23556	0.249748	0	
0.1433	-4.06987	2.67912	0	
0.1440	-6.50606	1.77094	0	
0.1447	-2.55083	-0.0681132	0	
0.1453	-0.716527	-0.36327	0	
0.1460	-3.15272	-0.681132	0	
0.1467	-3.15272	-0.0681132	0	
0.1473	-2.23556	0.862767	0	
0.1480	-2.23556	0.862767	0	
0.1487	-1.63368	-0.0681132	0	
0.1493	-1.31841	-0.0681132	0	
0.1500	-1.31841	0.862767	0	
0.1507	-0.716527	2.67912	0	
0.1513	-0.716527	2.38396	0	
0.1520	-1.31841	0.249748	0	
0.1527	-1.63368	-0.0681132	0	
0.1533	-3.15272	0.862767	0	
0.1540	-3.46799	0.862767	0	
0.1547	-1.31841	1.77094	0	
0.1553	0.487238	0.249748	0	
0.1560	0.80251	-0.976289	0	
0.1567	0.200627	0.862767	0	
0.1573	-0.114644	2.67912	0	
0.1580	0.487238	-0.0681132	0	
0.1587	1.71966	-1.88446	0	
0.1593	0.200627	-0.0681132	0	
0.1600	-1.63368	1.77094	0	
0.1607	-2.23556	0.544905	0	
0.1613	-4.70041	-0.976289	0	
0.1620	-8.97091	0.249748	0	
0.1627	-10.4899	1.77094	0	
0.1633	-8.05376	2.0661	0	
0.1640	-6.21945	2.67912	0	
0.1647	-7.1366	4.51817	0	
0.1653	-7.73849	2.67912	0	
0.1660	-3.15272	-0.681132	0	
0.1667	0.200627	-0.0681132	0	
0.1673	-3.15272	3.58729	0	
0.1680	-6.21945	4.51817	0	
0.1687	-4.98702	1.77094	0	
0.1693	-5.3023	1.15792	0	
0.1700	-4.38514	1.77094	0	
0.1707	-1.94895	-0.0681132	0	
0.1713	-4.38514	-0.976289	0	
0.1720	-6.21945	0.862767	0	
0.1727	-4.70041	-0.976289	0	
0.1733	-7.1366	-2.81534	0	
0.1740	-7.73849	-0.36327	0	
0.1747	0.80251	-0.0681132	0	
0.1753	5.67489	-4.04138	0	
0.1760	3.55397	-3.72352	0	
0.1767	3.86924	-0.36327	0	
0.1773	5.67489	-1.88446	0	
0.1780	5.38828	-3.72352	0	
0.1787	3.2387	-1.58931	0	
0.1793	-1.94895	1.15792	0	
0.1800	-8.34037	0.862767	0	
0.1807	-9.88807	-0.36327	0	
0.1813	-8.05376	-0.0681132	0	
0.1820	-7.1366	1.45308	0	
0.1827	-6.50606	1.77094	0	
0.1833	-3.78326	0.544905	0	
0.1840	1.11778	-0.0681132	0	
0.1847	5.07301	-0.0681132	0	
0.1853	3.2387	-0.0681132	0	
0.1860	-1.31841	-1.58931	0	
0.1867	-2.55083	-1.88446	0	
0.1873	-1.94895	-0.976289	0	
0.1880	-3.15272	-0.976289	0	
0.1887	-1.63368	-2.81534	0	
0.1893	2.95209	-1.58931	0	
0.1900	4.15585	2.0661	0	
0.1907	2.63682	1.77094	0	
0.1913	3.2387	-1.29415	0	
0.1920	3.86924	-0.976289	0	
0.1927	1.11778	1.15792	0	
0.1933	-1.31841	-0.976289	0	
0.1940	2.03494	-3.72352	0	
0.1947	5.67489	-2.20233	0	
0.1953	3.86924	-0.976289	0	
0.1960	1.40439	-2.49748	0	
0.1967	2.32155	-2.20233	0	
0.1973	2.95209	-0.36327	0	
0.1980	2.03494	0.544905	0	
0.1987	1.11778	0.249748	0	
0.1993	-0.114644	0.862767	0	
0.2000	0.200627	0.862767	0	
0.2007	-0.114644	-0.0681132	0	
0.2013	-4.38514	-0.0681132	0	
0.2020	-6.21945	1.15792	0	
0.2027	-4.98702	2.0661	0	
0.2033	-5.90418	2.0661	0	
0.2040	-6.82133	1.15792	0	
0.2047	-3.78326	-0.681132	0	
0.2053	-1.31841	-1.58931	0	
0.2060	-0.429916	-0.36327	0	
0.2067	0.487238	0.862767	0	
0.2073	0.80251	0.544905	0	
0.2080	2.03494	0.862767	0	
0.2087	4.75774	0.862767	0	
0.2093	5.07301	-0.0681132	0	
0.2100	7.5092	-0.36327	0	
0.2107	12.4102	1.77094	0	
0.2113	11.1778	1.45308	0	
0.2120	7.22259	-2.49748	0	
0.2127	7.5092	-3.72352	0	
0.2133	7.5092	-0.36327	0	
0.2140	4.75774	1.77094	0	
0.2147	4.15585	0.249748	0	
0.2153	2.03494	-0.976289	0	
0.2160	-2.55083	-0.0681132	0	
0.2167	-2.23556	0.862767	0	
0.2173	0.80251	-0.36327	0	
0.2180	-0.429916	-1.88446	0	
0.2187	-3.15272	-0.976289	0	
0.2193	-4.38514	0.544905	0	
0.2200	-6.21945	1.45308	0	
0.2207	-7.73849	2.38396	0	
0.2213	-8.05376	0.544905	0	
0.2220	-7.1366	-0.976289	0	
0.2227	-3.15272	2.67912	0	
0.2233	-0.429916	4.20031	0	
0.2240	-1.94895	2.38396	0	
0.2247	-2.55083	2.67912	0	
0.2253	-0.114644	2.99698	0	
0.2260	-0.429916	0.249748	0	
0.2267	-1.63368	0.544905	0	
0.2273	-1.0318	3.58729	0	
0.2280	-2.86611	3.29214	0	
0.2287	-5.61757	0.862767	0	
0.2293	-3.15272	-0.0681132	0	
0.2300	1.71966	1.77094	0	
0.2307	1.11778	2.38396	0	
0.2313	-1.63368	0.862767	0	
0.2320	-1.0318	0.249748	0	
0.2327	0.487238	1.15792	0	
0.2333	-0.429916	0.544905	0	
0.2340	0.487238	-0.36327	0	
0.2347	2.95209	-0.0681132	0	
0.2353	2.63682	-0.976289	0	
0.2360	1.40439	-0.976289	0	
0.2367	2.03494	-0.681132	0	
0.2373	1.11778	-2.81534	0	
0.2380	-0.429916	-4.04138	0	
0.2387	1.11778	-1.88446	0	
0.2393	2.32155	1.15792	0	
0.2400	0.200627	1.77094	0	
0.2407	-2.86611	0.544905	0	
0.2413	-5.3023	-1.88446	0	
0.2420	-7.1366	-1.58931	0	
0.2427	-7.42321	0.862767	0	
0.2433	-4.38514	1.77094	0	
0.2440	-0.429916	0.862767	0	
0.2447	0.487238	-0.0681132	0	
0.2453	-0.429916	-1.88446	0	
0.2460	0.200627	-2.81534	0	
0.2467	2.03494	-0.976289	0	
0.2473	2.95209	-1.29415	0	
0.2480	4.75774	-2.49748	0	
0.2487	4.75774	-1.88446	0	
0.2493	1.40439	-0.976289	0	
0.2500	-2.23556	-0.681132	0	
0.2507	-3.15272	-0.976289	0	
0.2513	-2.55083	-1.58931	0	
0.2520	-2.86611	-0.681132	0	
0.2527	-5.61757	0.249748	0	
0.2533	-8.34037	-0.976289	0	
0.2540	-6.21945	-2.81534	0	
0.2547	-2.55083	-2.81534	0	
0.2553	-2.86611	-1.88446	0	
0.2560	-4.38514	-1.29415	0	
0.2567	-3.15272	-0.976289	0	
0.2573	-1.31841	-1.29415	0	
0.2580	0.200627	-0.36327	0	
0.2587	0.200627	0.862767	0	
0.2593	-0.716527	0.862767	0	
0.2600	-1.63368	0.544905	0	
0.2607	-2.55083	-0.0681132	0	
0.2613	-4.70041	-0.976289	0	
0.2620	-6.21945	-0.681132	0	
0.2627	-6.50606	-0.36327	0	
0.2633	-7.42321	-0.976289	0	
0.2640	-5.3023	-0.36327	0	
0.2647	-0.114644	0.862767	0	
0.2653	2.03494	0.544905	0	
0.2660	1.11778	0.862767	0	
0.2667	0.200627	2.67912	0	
0.2673	0.487238	0.862767	0	
0.2680	2.03494	-1.58931	0	
0.2687	2.95209	0.249748	0	
0.2693	1.71966	1.45308	0	
0.2700	1.71966	-0.0681132	0	
0.2707	4.75774	-0.0681132	0	
0.2713	5.67489	0.544905	0	
0.2720	3.2387	-1.58931	0	
0.2727	1.40439	-2.20233	0	
0.2733	1.11778	-1.58931	0	
0.2740	2.03494	-2.81534	0	
0.2747	3.86924	-2.81534	0	
0.2753	2.95209	-0.36327	0	
0.2760	0.200627	-0.0681132	0	
0.2767	-0.716527	-1.29415	0	
0.2773	0.200627	-0.976289	0	
0.2780	-1.31841	-0.0681132	0	
0.2787	-3.46799	-0.0681132	0	
0.2793	-2.23556	-0.0681132	0	
0.2800	2.03494	-0.0681132	0	
0.2807	2.63682	-0.36327	0	
0.2813	0.80251	0.249748	0	
0.2820	-0.114644	0.544905	0	
0.2827	-2.23556	-0.0681132	0	
0.2833	-8.05376	-0.0681132	0	
0.2840	-10.8052	2.0661	0	
0.2847	-7.73849	4.51817	0	
0.2853	-6.21945	2.99698	0	
0.2860	-5.61757	-0.0681132	0	
0.2867	-1.63368	-0.0681132	0	
0.2873	-0.716527	1.15792	0	
0.2880	-4.38514	1.77094	0	
0.2887	-1.94895	2.99698	0	
0.2893	4.75774	2.99698	0	
0.2900	6.59204	0.544905	0	
0.2907	5.67489	-0.976289	0	
0.2913	9.34351	-0.681132	0	
0.2920	12.095	-0.0681132	0	
0.2927	9.65878	0.249748	0	
0.2933	7.22259	-0.0681132	0	
0.2940	4.75774	-0.681132	0	
0.2947	-0.716527	-0.976289	0	
0.2953	-4.06987	-2.20233	0	
0.2960	-0.429916	-2.81534	0	
0.2967	2.32155	-0.0681132	0	
0.2973	1.40439	1.45308	0	
0.2980	1.71966	-0.0681132	0	
0.2987	1.71966	-0.976289	0	
0.2993	-1.31841	-0.0681132	0	
0.3000	-3.46799	1.15792	0	
0.3007	-2.86611	2.67912	0	
0.3013	-4.06987	3.29214	0	
0.3020	-4.98702	2.67912	0	
0.3027	-3.78326	1.77094	0	
0.3033	-2.55083	0.862767	0	
0.3040	-2.55083	-1.29415	0	
0.3047	-3.46799	-2.20233	0	
0.3053	-2.86611	-0.976289	0	
0.3060	0.487238	-0.681132	0	
0.3067	1.11778	-0.976289	0	
0.3073	-3.78326	-0.36327	0	
0.3080	-5.61757	-0.0681132	0	
0.3087	-4.38514	-0.681132	0	
0.3093	-5.3023	-0.0681132	0	
0.3100	-4.38514	-0.0681132	0	
0.3107	-1.94895	-0.36327	0	
0.3113	-3.46799	0.544905	0	
0.3120	-1.63368	0.862767	0	
0.3127	5.99016	1.15792	0	
0.3133	9.34351	2.99698	0	
0.3140	9.0569	3.58729	0	
0.3147	9.65878	0.862767	0	
0.3153	5.99016	-0.0681132	0	
0.3160	1.11778	-0.681132	0	
0.3167	1.40439	-1.88446	0	
0.3173	2.03494	-1.88446	0	
0.3180	1.71966	-1.88446	0	
0.3187	3.55397	-3.42836	0	
0.3193	2.03494	-2.49748	0	
0.3200	-4.38514	0.249748	0	
0.3207	-8.97091	0.544905	0	
0.3213	-10.1747	0.249748	0	
0.3220	-8.97091	0.862767	0	
0.3227	-6.21945	-0.0681132	0	
0.3233	-5.3023	-0.0681132	0	
0.3240	-5.90418	0.862767	0	
0.3247	-4.38514	1.45308	0	
0.3253	-1.94895	1.77094	0	
0.3260	-1.63368	1.15792	0	
0.3267	-1.63368	-0.976289	0	
0.3273	-0.716527	-2.20233	0	
0.3280	-1.63368	0.249748	0	
0.3287	-3.46799	1.15792	0	
0.3293	-0.716527	-1.58931	0	
0.3300	5.38828	-0.36327	0	
0.3307	4.47113	2.99698	0	
0.3313	-0.716527	1.15792	0	
0.3320	-0.114644	-1.88446	0	
0.3327	1.71966	-0.0681132	0	
0.3333	0.200627	-1.29415	0	
0.3340	1.11778	-3.72352	0	
0.3347	2.63682	-0.36327	0	
0.3353	0.80251	1.77094	0	
0.3360	0.200627	-2.49748	0	
0.3367	2.95209	-3.72352	0	
0.3373	4.75774	-1.88446	0	
0.3380	3.86924	-1.88446	0	
0.3387	-0.114644	-0.36327	0	
0.3393	-3.15272	3.29214	0	
0.3400	-1.94895	1.45308	0	
0.3407	-3.46799	-1.88446	0	
0.3413	-8.65564	-0.36327	0	
0.3420	-8.97091	0.862767	0	
0.3427	-5.61757	-0.681132	0	
0.3433	-6.21945	-0.976289	0	
0.3440	-8.97091	0.249748	0	
0.3447	-7.1366	0.862767	0	
0.3453	-3.46799	1.45308	0	
0.3460	-1.63368	1.77094	0	
0.3467	-2.55083	0.862767	0	
0.3473	-1.31841	0.862767	0	
0.3480	2.32155	2.0661	0	
0.3487	2.95209	1.45308	0	
0.3493	1.40439	-0.681132	0	
0.3500	1.71966	-0.976289	0	
0.3507	1.11778	0.862767	0	
0.3513	0.80251	2.67912	0	
0.3520	3.86924	2.67912	0	
0.3527	5.67489	0.862767	0	
0.3533	2.63682	-0.976289	0	
0.3540	-1.63368	-2.20233	0	
0.3547	-4.98702	-3.1105	0	
0.3553	-3.46799	-3.72352	0	
0.3560	-0.716527	-5.24471	0	
0.3567	-1.94895	-3.72352	0	
0.3573	-1.94895	-0.681132	0	
0.3580	1.11778	-0.976289	0	
0.3587	-0.716527	-1.88446	0	
0.3593	-5.90418	1.15792	0	
0.3600	-7.42321	2.67912	0	
0.3607	-5.90418	0.544905	0	
0.3613	-4.06987	-0.0681132	0	
0.3620	-3.78326	0.249748	0	
0.3627	-7.42321	-0.976289	0	
0.3633	-10.4899	-2.20233	0	
0.3640	-9.88807	-1.29415	0	
0.3647	-8.34037	1.15792	0	
0.3653	-2.55083	2.67912	0	
0.3660	7.22259	0.862767	0	
0.3667	10.8625	-1.29415	0	
0.3673	6.90732	-0.681132	0	
0.3680	4.47113	0.249748	0	
0.3687	4.75774	0.862767	0	
0.3693	5.99016	0.862767	0	
0.3700	7.5092	-0.0681132	0	
0.3707	6.90732	-0.36327	0	
0.3713	6.30543	-0.0681132	0	
0.3720	7.82447	-1.29415	0	
0.3727	7.5092	-2.20233	0	
0.3733	5.99016	-1.29415	0	
0.3740	8.74162	-1.29415	0	
0.3747	10.8625	-0.976289	0	
0.3753	7.5092	0.249748	0	
0.3760	4.75774	-0.0681132	0	
0.3767	5.38828	-1.88446	0	
0.3773	3.86924	-1.88446	0	
0.3780	2.03494	-0.976289	0	
0.3787	0.487238	0.862767	0	
0.3793	-3.46799	0.862767	0	
0.3800	-5.61757	-2.49748	0	
0.3807	-2.86611	-2.81534	0	
0.3813	-1.94895	-0.0681132	0	
0.3820	-4.38514	-0.0681132	0	
0.3827	-4.38514	-0.681132	0	
0.3833	-1.63368	2.38396	0	
0.3840	0.200627	2.67912	0	
0.3847	0.487238	1.45308	0	
0.3853	0.200627	2.0661	0	
0.3860	1.11778	0.862767	0	
0.3867	2.95209	-1.88446	0	
0.3873	2.63682	0.249748	0	
0.3880	2.03494	2.67912	0	
0.3887	3.55397	0.249748	0	
0.3893	5.07301	-2.81534	0	
0.3900	5.67489	-2.20233	0	
0.3907	6.30543	-0.976289	0	
0.3913	5.67489	-0.0681132	0	
0.3920	3.86924	0.544905	0	
0.3927	2.03494	0.249748	0	
0.3933	0.200627	-0.0681132	0	
0.3940	1.11778	-0.36327	0	
0.3947	2.03494	-0.681132	0	
0.3953	0.200627	-0.0681132	0	
0.3960	-4.38514	0.862767	0	
0.3967	-7.42321	1.15792	0	
0.3973	-7.1366	0.249748	0	
0.3980	-6.21945	-0.36327	0	
0.3987	-6.21945	0.249748	0	
0.3993	-7.1366	0.862767	0	
0.4000	-7.1366	1.45308	0	
0.4007	-5.61757	1.45308	0	
0.4013	-3.78326	-0.976289	0	
0.4020	-4.38514	-0.976289	0	
0.4027	-6.21945	1.77094	0	
0.4033	-4.38514	1.15792	0	
0.4040	0.200627	-0.976289	0	
0.4047	-0.716527	2.38396	0	
0.4053	-3.46799	4.20031	0	
0.4060	-0.716527	0.544905	0	
0.4067	0.200627	0.249748	0	
0.4073	-3.78326	0.249748	0	
0.4080	-4.06987	-4.94956	0	
0.4087	-0.716527	-7.37893	0	
0.4093	-1.31841	-3.72352	0	
0.4100	-1.63368	-0.976289	0	
0.4107	-0.429916	-0.0681132	0	
0.4113	-0.716527	-0.976289	0	
0.4120	1.11778	-2.20233	0	
0.4127	5.99016	-0.681132	0	
0.4133	6.59204	-0.681132	0	
0.4140	4.15585	-2.49748	0	
0.4147	3.2387	1.15792	0	
0.4153	1.71966	5.13119	0	
0.4160	-1.31841	1.15792	0	
0.4167	-2.55083	-0.976289	0	
0.4173	-3.46799	2.99698	0	
0.4180	-4.06987	3.29214	0	
0.4187	-2.55083	-1.29415	0	
0.4193	-3.46799	-1.88446	0	
0.4200	-7.1366	1.15792	0	
0.4207	-7.1366	1.15792	0	
0.4213	-3.78326	-0.681132	0	
0.4220	-2.55083	-0.36327	0	
0.4227	-2.55083	0.249748	0	
0.4233	-3.46799	-0.36327	0	
0.4240	-4.38514	0.862767	0	
0.4247	-3.78326	2.67912	0	
0.4253	-3.46799	0.862767	0	
0.4260	-4.06987	-1.88446	0	
0.4267	-4.38514	-0.976289	0	
0.4273	-3.46799	-1.29415	0	
0.4280	-3.15272	-3.1105	0	
0.4287	-1.0318	-2.20233	0	
0.4293	2.63682	-0.976289	0	
0.4300	4.15585	-0.976289	0	
0.4307	2.95209	-1.58931	0	
0.4313	2.63682	-2.81534	0	
0.4320	3.2387	-2.20233	0	
0.4327	2.03494	-0.0681132	0	
0.4333	2.95209	-2.20233	0	
0.4340	4.47113	-4.04138	0	
0.4347	1.11778	-1.58931	0	
0.4353	-3.15272	-1.88446	0	
0.4360	-1.63368	-3.72352	0	
0.4367	-1.63368	-0.976289	0	
0.4373	-7.42321	1.45308	0	
0.4380	-8.97091	-0.976289	0	
0.4387	-5.90418	-1.58931	0	
0.4393	-6.21945	-0.36327	0	
0.4400	-7.1366	-0.0681132	0	
0.4407	-4.98702	-0.0681132	0	
0.4413	-6.50606	-1.29415	0	
0.4420	-9.57279	-0.976289	0	
0.4427	-8.05376	0.862767	0	
0.4433	-7.42321	-0.0681132	0	
0.4440	-10.4899	-0.976289	0	
0.4447	-10.8052	1.15792	0	
0.4453	-8.97091	0.862767	0	
0.4460	-8.05376	-0.681132	0	
0.4467	-6.50606	0.249748	0	
0.4473	-3.46799	1.45308	0	
0.4480	0.487238	0.862767	0	
0.4487	5.67489	0.249748	0	
0.4493	7.82447	-0.36327	0	
0.4500	4.75774	-1.58931	0	
0.4507	2.95209	-2.81534	0	
0.4513	5.38828	-3.42836	0	
0.4520	7.5092	-0.681132	0	
0.4527	6.59204	1.15792	0	
0.4533	4.15585	-0.36327	0	
0.4540	1.71966	-0.681132	0	
0.4547	1.11778	0.544905	0	
0.4553	2.95209	-0.0681132	0	
0.4560	2.95209	-0.976289	0	
0.4567	2.03494	-1.58931	0	
0.4573	2.63682	-2.81534	0	
0.4580	4.47113	-2.49748	0	
0.4587	4.47113	-0.976289	0	
0.4593	2.95209	-0.36327	0	
0.4600	1.11778	-0.0681132	0	
0.4607	-0.114644	0.862767	0	
0.4613	1.11778	0.544905	0	
0.4620	0.487238	0.249748	0	
0.4627	-1.94895	-0.0681132	0	
0.4633	-2.23556	-0.0681132	0	
0.4640	-2.23556	0.544905	0	
0.4647	-5.3023	2.38396	0	
0.4653	-5.61757	3.29214	0	
0.4660	-4.06987	1.77094	0	
0.4667	-3.46799	-0.0681132	0	
0.4673	2.03494	0.862767	0	
0.4680	10.8625	2.99698	0	
0.4687	11.1778	1.45308	0	
0.4693	4.47113	-1.58931	0	
0.4700	2.95209	-2.49748	0	
0.4707	5.67489	-3.42836	0	
0.4713	7.5092	-3.42836	0	
0.4720	9.94539	-0.976289	0	
0.4727	9.34351	-0.976289	0	
0.4733	5.38828	-2.81534	0	
0.4740	3.2387	-0.36327	0	
0.4747	2.95209	-0.0681132	0	
0.4753	0.80251	-3.72352	0	
0.4760	-0.716527	-3.72352	0	
0.4767	0.200627	-2.20233	0	
0.4773	0.487238	-3.42836	0	
0.4780	0.200627	-1.58931	0	
0.4787	-1.0318	0.544905	0	
0.4793	-4.70041	-2.20233	0	
0.4800	-6.21945	-1.88446	0	
0.4807	-3.15272	0.862767	0	
0.4813	-1.63368	-0.976289	0	
0.4820	-2.55083	-2.81534	0	
0.4827	-4.06987	0.249748	0	
0.4833	-6.21945	1.77094	0	
0.4840	-6.82133	0.249748	0	
0.4847	-3.46799	0.862767	0	
0.4853	-0.114644	0.862767	0	
0.4860	-0.114644	-0.0681132	0	
0.4867	-1.0318	0.862767	0	
0.4873	-1.0318	-0.36327	0	
0.4880	-0.716527	-2.81534	0	
0.4887	-1.31841	-1.88446	0	
0.4893	-0.429916	-0.36327	0	
0.4900	2.03494	-0.681132	0	
0.4907	1.71966	-0.0681132	0	
0.4913	-1.63368	0.544905	0	
0.4920	-2.55083	-0.681132	0	
0.4927	-2.23556	-2.20233	0	
0.4933	-1.0318	-2.20233	0	
0.4940	0.487238	-0.0681132	0	
0.4947	0.200627	1.77094	0	
0.4953	-0.716527	0.862767	0	
0.4960	0.200627	-0.681132	0	
0.4967	-0.716527	-0.0681132	0	
0.4973	-3.46799	0.249748	0	
0.4980	-2.23556	-0.0681132	0	
0.4987	-0.716527	1.15792	0	
0.4993	-3.15272	0.862767	0	
0.5000	-6.21945	-2.49748	0	
0.5007	-7.1366	-2.20233	0	
0.5013	-8.05376	1.15792	0	
0.5020	-8.97091	1.45308	0	
0.5027	-8.34037	0.862767	0	
0.5033	-6.21945	1.77094	0	
0.5040	-4.06987	0.862767	0	
0.5047	-4.70041	0.249748	0	
0.5053	-4.06987	1.77094	0	
0.5060	-0.429916	1.15792	0	
0.5067	0.80251	-0.681132	0	
0.5073	1.11778	1.15792	0	
0.5080	4.75774	2.0661	0	
0.5087	8.74162	-1.88446	0	
0.5093	7.5092	-2.49748	0	
0.5100	4.47113	0.862767	0	
0.5107	0.487238	-0.36327	0	
0.5113	-4.38514	-2.81534	0	
0.5120	-8.97091	-0.976289	0	
0.5127	-10.8052	0.544905	0	
0.5133	-8.05376	-1.58931	0	
0.5140	-2.86611	-1.88446	0	
0.5147	-2.55083	-0.36327	0	
0.5153	-4.38514	0.544905	0	
0.5160	-4.38514	1.77094	0	
0.5167	-5.3023	1.77094	0	
0.5173	-6.82133	0.249748	0	
0.5180	-5.90418	1.15792	0	
0.5187	-6.21945	1.77094	0	
0.5193	-8.05376	-0.681132	0	
0.5200	-4.38514	-0.681132	0	
0.5207	0.200627	2.67912	0	
0.5213	0.487238	2.67912	0	
0.5220	0.80251	0.249748	0	
0.5227	0.487238	1.77094	0	
0.5233	-1.63368	3.29214	0	
0.5240	-1.0318	0.544905	0	
0.5247	0.200627	-3.42836	0	
0.5253	-2.23556	-3.72352	0	
0.5260	-3.46799	-0.0681132	0	
0.5267	-2.86611	4.20031	0	
0.5273	-4.98702	5.42635	0	
0.5280	-4.38514	2.67912	0	
0.5287	-0.716527	-0.0681132	0	
0.5293	1.11778	-0.0681132	0	
0.5300	4.15585	-0.0681132	0	
0.5307	9.0569	0.544905	0	
0.5313	7.82447	0.862767	0	
0.5320	5.67489	-1.88446	0	
0.5327	9.0569	-3.72352	0	
0.5333	11.7797	-3.72352	0	
0.5340	9.34351	-4.04138	0	
0.5347	6.59204	-3.72352	0	
0.5353	6.59204	0.249748	0	
0.5360	6.90732	-0.0681132	0	
0.5367	6.30543	-3.1105	0	
0.5373	4.75774	-0.976289	0	
0.5380	2.63682	2.67912	0	
0.5387	1.40439	1.77094	0	
0.5393	0.80251	1.77094	0	
0.5400	-1.63368	2.67912	0	
0.5407	-3.15272	0.544905	0	
0.5413	-0.716527	-1.58931	0	
0.5420	1.71966	-0.0681132	0	
0.5427	1.11778	1.77094	0	
0.5433	0.80251	1.15792	0	
0.5440	-0.429916	0.249748	0	
0.5447	-2.86611	-0.681132	0	
0.5453	-0.429916	0.544905	0	
0.5460	3.86924	2.38396	0	
0.5467	1.71966	2.0661	0	
0.5473	-2.55083	1.15792	0	
0.5480	-1.63368	0.862767	0	
0.5487	0.200627	0.862767	0	
0.5493	-1.0318	1.77094	0	
0.5500	-0.716527	1.77094	0	
0.5507	-0.716527	0.544905	0	
0.5513	-4.70041	1.45308	0	
0.5520	-8.65564	3.58729	0	
0.5527	-8.05376	1.15792	0	
0.5533	-3.78326	-1.29415	0	
0.5540	-1.0318	0.544905	0	
0.5547	-2.86611	2.67912	0	
0.5553	-4.06987	2.67912	0	
0.5560	-2.55083	2.38396	0	
0.5567	-2.86611	0.249748	0	
0.5573	-2.55083	-1.29415	0	
0.5580	1.11778	1.77094	0	
0.5587	1.71966	2.67912	0	
0.5593	-0.716527	0.544905	0	
0.5600	-1.0318	2.0661	0	
0.5607	-0.114644	2.99698	0	
0.5613	-0.716527	-0.976289	0	
0.5620	-1.0318	-0.36327	0	
0.5627	-2.55083	3.58729	0	
0.5633	-4.06987	2.0661	0	
0.5640	-3.15272	0.249748	0	
0.5647	-0.716527	1.77094	0	
0.5653	0.80251	1.15792	0	
0.5660	1.11778	-0.0681132	0	
0.5667	0.487238	0.249748	0	
0.5673	1.11778	-0.0681132	0	
0.5680	2.03494	-0.0681132	0	
0.5687	2.32155	0.544905	0	
0.5693	3.55397	0.544905	0	
0.5700	5.67489	-0.0681132	0	
0.5707	5.67489	-1.88446	0	
0.5713	3.86924	-4.33654	0	
0.5720	4.75774	-3.72352	0	
0.5727	6.59204	-2.20233	0	
0.5733	7.22259	-2.81534	0	
0.5740	7.5092	-2.49748	0	
0.5747	9.34351	-0.36327	0	
0.5753	9.34351	-0.681132	0	
0.5760	4.47113	-0.0681132	0	
0.5767	0.487238	1.15792	0	
0.5773	0.80251	-1.58931	0	
0.5780	0.200627	-2.81534	0	
0.5787	-2.86611	0.862767	0	
0.5793	-2.86611	1.77094	0	
0.5800	-1.63368	-1.88446	0	
0.5807	-4.98702	-1.88446	0	
0.5813	-8.05376	0.544905	0	
0.5820	-5.90418	1.77094	0	
0.5827	-1.94895	3.90515	0	
0.5833	-1.31841	3.90515	0	
0.5840	-2.55083	-0.0681132	0	
0.5847	-3.46799	-0.976289	0	
0.5853	-4.38514	2.99698	0	
0.5860	-4.06987	2.38396	0	
0.5867	-1.31841	-0.976289	0	
0.5873	1.40439	0.862767	0	
0.5880	1.11778	1.77094	0	
0.5887	-0.716527	-2.81534	0	
0.5893	0.200627	-2.81534	0	
0.5900	2.03494	0.249748	0	
0.5907	0.200627	-1.29415	0	
0.5913	-2.55083	-1.88446	0	
0.5920	-4.38514	1.77094	0	
0.5927	-4.38514	0.862767	0	
0.5933	-2.86611	-2.49748	0	
0.5940	-3.78326	-1.88446	0	
0.5947	-7.1366	1.15792	0	
0.5953	-6.50606	0.862767	0	
0.5960	-1.94895	-1.29415	0	
0.5967	1.40439	-1.88446	0	
0.5973	5.38828	-2.20233	0	
0.5980	9.34351	-3.1105	0	
0.5987	8.74162	-1.29415	0	
0.5993	5.07301	2.67912	0	
0.6000	2.03494	1.77094	0	
0.6007	1.40439	-1.88446	0	
0.6013	3.2387	-0.976289	0	
0.6020	2.95209	0.862767	0	
0.6027	-2.55083	-2.49748	0	
0.6033	-4.38514	-3.72352	0	
0.6040	0.200627	-2.20233	0	
0.6047	1.40439	-2.20233	0	
0.6053	-0.716527	-0.976289	0	
0.6060	0.200627	0.249748	0	
0.6067	2.63682	-1.88446	0	
0.6073	2.95209	-3.72352	0	
0.6080	-0.716527	-4.33654	0	
0.6087	-6.21945	-4.04138	0	
0.6093	-8.05376	-1.88446	0	
0.6100	-6.82133	-0.681132	0	
0.6107	-5.61757	-3.72352	0	
0.6113	-4.38514	-3.1105	0	
0.6120	-4.06987	-0.681132	0	
0.6127	-6.50606	-2.20233	0	
0.6133	-7.73849	-3.1105	0	
0.6140	-6.21945	-2.20233	0	
0.6147	-4.38514	-3.72352	0	
0.6153	-3.46799	-3.72352	0	
0.6160	-1.94895	-0.976289	0	
0.6167	0.200627	-3.42836	0	
0.6173	2.03494	-3.72352	0	
0.6180	0.200627	1.45308	0	
0.6187	-3.46799	2.99698	0	
0.6193	-2.86611	0.544905	0	
0.6200	-0.429916	-0.681132	0	
0.6207	0.487238	-1.88446	0	
0.6213	-0.114644	-1.88446	0	
0.6220	-2.55083	0.249748	0	
0.6227	-6.50606	0.544905	0	
0.6233	-8.65564	-1.88446	0	
0.6240	-9.88807	-1.58931	0	
0.6247	-12.6109	0.862767	0	
0.6253	-13.528	2.38396	0	
0.6260	-9.88807	0.862767	0	
0.6267	-3.46799	-0.681132	0	
0.6273	2.03494	0.862767	0	
0.6280	4.47113	1.77094	0	
0.6287	4.75774	-1.88446	0	
0.6293	5.67489	-3.72352	0	
0.6300	6.90732	0.544905	0	
0.6307	6.90732	2.99698	0	
0.6313	5.99016	0.862767	0	
0.6320	4.15585	-1.58931	0	
0.6327	3.55397	-1.88446	0	
0.6333	4.75774	-0.0681132	0	
0.6340	5.07301	0.544905	0	
0.6347	3.86924	-0.36327	0	
0.6353	2.32155	-0.976289	0	
0.6360	-0.114644	0.249748	0	
0.6367	-2.23556	2.0661	0	
0.6373	0.200627	3.29214	0	
0.6380	0.487238	1.77094	0	
0.6387	-3.46799	-0.681132	0	
0.6393	-4.70041	0.862767	0	
0.6400	-3.15272	3.29214	0	
0.6407	-4.06987	-0.36327	0	
0.6413	-3.78326	-3.72352	0	
0.6420	-3.46799	-0.0681132	0	
0.6427	-5.61757	2.99698	0	
0.6433	-5.3023	1.77094	0	
0.6440	-2.23556	1.45308	0	
0.6447	-4.06987	1.77094	0	
0.6453	-4.70041	0.862767	0	
0.6460	0.200627	1.15792	0	
0.6467	2.03494	2.38396	0	
0.6473	1.11778	2.67912	0	
0.6480	2.32155	3.90515	0	
0.6487	2.32155	4.20031	0	
0.6493	1.40439	0.862767	0	
0.6500	4.75774	-1.88446	0	
0.6507	6.59204	-1.88446	0	
0.6513	4.75774	-0.976289	0	
0.6520	5.67489	-1.88446	0	
0.6527	5.67489	-3.72352	0	
0.6533	1.40439	-3.72352	0	
0.6540	-1.31841	-1.58931	0	
0.6547	-1.94895	-0.976289	0	
0.6553	-2.86611	-1.88446	0	
0.6560	-0.716527	-1.88446	0	
0.6567	2.03494	1.15792	0	
0.6573	2.03494	2.67912	0	
0.6580	2.03494	-0.0681132	0	
0.6587	1.11778	-1.88446	0	
0.6593	-4.38514	0.862767	0	
0.6600	-8.05376	2.0661	0	
0.6607	-7.1366	-0.0681132	0	
0.6613	-8.05376	0.544905	0	
0.6620	-8.65564	1.77094	0	
0.6627	-4.70041	-0.976289	0	
0.6633	-1.63368	-3.72352	0	
0.6640	-1.31841	-2.20233	0	
0.6647	-0.716527	-0.976289	0	
0.6653	-0.716527	-1.29415	0	
0.6660	-2.55083	1.77094	0	
0.6667	-1.63368	2.38396	0	
0.6673	-0.429916	-0.976289	0	
0.6680	-2.23556	-0.0681132	0	
0.6687	-3.46799	1.77094	0	
0.6693	-1.31841	-0.976289	0	
0.6700	-1.0318	-1.88446	0	
0.6707	-3.46799	2.99698	0	
0.6713	-3.15272	3.90515	0	
0.6720	-1.63368	-0.0681132	0	
0.6727	-1.31841	-0.976289	0	
0.6733	-0.716527	0.862767	0	
0.6740	0.80251	1.45308	0	
0.6747	2.03494	0.249748	0	
0.6753	3.86924	-0.681132	0	
0.6760	7.82447	-0.976289	0	
0.6767	9.34351	-0.36327	0	
0.6773	6.30543	1.77094	0	
0.6780	2.03494	2.67912	0	
0.6787	-1.31841	1.77094	0	
0.6793	-3.46799	0.862767	0	
0.6800	-2.23556	-1.88446	0	
0.6807	0.200627	-3.1105	0	
0.6813	-0.716527	-0.681132	0	
0.6820	-2.55083	1.77094	0	
0.6827	-0.429916	2.67912	0	
0.6833	1.71966	3.90515	0	
0.6840	1.40439	3.58729	0	
0.6847	1.40439	1.77094	0	
0.6853	2.32155	2.67912	0	
0.6860	3.86924	2.38396	0	
0.6867	5.38828	-1.88446	0	
0.6873	4.15585	-1.88446	0	
0.6880	3.86924	1.45308	0	
0.6887	6.90732	-0.0681132	0	
0.6893	7.5092	-3.42836	0	
0.6900	5.67489	-1.88446	0	
0.6907	5.99016	0.862767	0	
0.6913	5.99016	1.45308	0	
0.6920	4.75774	0.862767	0	
0.6927	3.86924	1.77094	0	
0.6933	3.55397	3.58729	0	
0.6940	2.95209	2.67912	0	
0.6947	1.40439	-0.976289	0	
0.6953	-0.716527	0.862767	0	
0.6960	-1.63368	3.58729	0	
0.6967	-2.55083	0.862767	0	
0.6973	-2.55083	-0.976289	0	
0.6980	-1.0318	1.77094	0	
0.6987	-1.31841	0.249748	0	
0.6993	-3.46799	-2.49748	0	
0.7000	-3.78326	-0.36327	0	
0.7007	-4.98702	1.45308	0	
0.7013	-7.42321	2.67912	0	
0.7020	-8.05376	4.81333	0	
0.7027	-7.73849	3.58729	0	
0.7033	-6.50606	0.249748	0	
0.7040	-2.86611	0.249748	0	
0.7047	-1.0318	-0.0681132	0	
0.7053	-3.46799	-1.88446	0	
0.7060	-4.98702	-0.36327	0	
0.7067	-3.46799	0.249748	0	
0.7073	-2.55083	-0.681132	0	
0.7080	-2.55083	0.862767	0	
0.7087	-1.31841	2.0661	0	
0.7093	-0.716527	-0.36327	0	
0.7100	-2.55083	-1.58931	0	
0.7107	-4.98702	-0.0681132	0	
0.7113	-6.82133	-0.0681132	0	
0.7120	-6.50606	-1.88446	0	
0.7127	0.487238	-1.88446	0	
0.7133	9.34351	-0.0681132	0	
0.7140	11.4931	0.544905	0	
0.7147	8.42635	-0.976289	0	
0.7153	7.5092	-1.88446	0	
0.7160	7.22259	-1.88446	0	
0.7167	5.38828	-1.88446	0	
0.7173	1.71966	-0.976289	0	
0.7180	-2.86611	1.15792	0	
0.7187	-2.86611	2.38396	0	
0.7193	-0.716527	2.38396	0	
0.7200	-1.63368	0.862767	0	
0.7207	-4.38514	-0.0681132	0	
0.7213	-6.82133	1.77094	0	
0.7220	-10.8052	2.67912	0	
0.7227	-12.6109	0.862767	0	
0.7233	-9.57279	0.544905	0	
0.7240	-7.1366	1.45308	0	
0.7247	-7.42321	1.15792	0	
0.7253	-6.21945	0.862767	0	
0.7260	-4.70041	1.45308	0	
0.7267	-4.38514	1.15792	0	
0.7273	-2.55083	-0.976289	0	
0.7280	0.200627	-1.88446	0	
0.7287	0.80251	-1.58931	0	
0.7293	-1.31841	-2.49748	0	
0.7300	-1.63368	-2.81534	0	
0.7307	0.200627	-0.36327	0	
0.7313	1.71966	0.862767	0	
0.7320	3.2387	-0.976289	0	
0.7327	4.47113	-1.88446	0	
0.7333	3.55397	-0.0681132	0	
0.7340	2.95209	0.544905	0	
0.7347	2.95209	-0.0681132	0	
0.7353	0.80251	-1.29415	0	
0.7360	-1.31841	-2.81534	0	
0.7367	-0.114644	-2.20233	0	
0.7373	1.40439	-1.58931	0	
0.7380	0.200627	-0.976289	0	
0.7387	-1.31841	-0.36327	0	
0.7393	-0.716527	-0.976289	0	
0.7400	-1.0318	-1.88446	0	
0.7407	-1.0318	-0.681132	0	
0.7413	0.487238	-0.36327	0	
0.7420	1.40439	-0.976289	0	
0.7427	-1.31841	1.45308	0	
0.7433	-5.3023	1.77094	0	
0.7440	-6.82133	-0.976289	0	
0.7447	-4.98702	-1.29415	0	
0.7453	-4.38514	-0.681132	0	
0.7460	-5.90418	-1.29415	0	
0.7467	-4.70041	-0.0681132	0	
0.7473	-0.114644	1.77094	0	
0.7480	2.63682	2.0661	0	
0.7487	2.95209	1.77094	0	
0.7493	2.95209	0.862767	0	
0.7500	2.03494	-1.88446	0	
0.7507	1.11778	-3.1105	0	
0.7513	0.487238	-1.88446	0	
0.7520	-1.31841	-0.36327	0	
0.7527	-2.23556	0.862767	0	
0.7533	-0.114644	0.862767	0	
0.7540	2.03494	1.15792	0	
0.7547	2.03494	0.862767	0	
0.7553	1.40439	-0.976289	0	
0.7560	2.95209	-1.58931	0	
0.7567	4.75774	-1.29415	0	
0.7573	3.2387	-1.88446	0	
0.7580	2.03494	-2.81534	0	
0.7587	2.63682	-2.81534	0	
0.7593	-0.716527	-2.20233	0	
0.7600	-8.05376	-0.36327	0	
0.7607	-9.88807	1.77094	0	
0.7613	-8.05376	1.77094	0	
0.7620	-8.34037	1.15792	0	
0.7627	-7.73849	1.77094	0	
0.7633	-5.90418	-0.36327	0	
0.7640	-5.3023	-3.72352	0	
0.7647	-4.38514	-2.49748	0	
0.7653	-4.70041	-0.0681132	0	
0.7660	-4.98702	-0.976289	0	
0.7667	-3.15272	-1.88446	0	
0.7673	-2.23556	1.15792	0	
0.7680	-3.46799	2.0661	0	
0.7687	-3.78326	0.544905	0	
0.7693	-2.86611	1.15792	0	
0.7700	-1.31841	2.0661	0	
0.7707	-0.716527	-0.0681132	0	
0.7713	-1.63368	-0.0681132	0	
0.7720	-0.429916	1.77094	0	
0.7727	2.32155	1.45308	0	
0.7733	2.03494	0.249748	0	
0.7740	1.71966	0.544905	0	
0.7747	4.75774	0.544905	0	
0.7753	5.67489	0.862767	0	
0.7760	4.47113	2.0661	0	
0.7767	4.47113	1.77094	0	
0.7773	4.75774	-0.0681132	0	
0.7780	2.95209	-0.681132	0	
0.7787	0.200627	-0.976289	0	
0.7793	-1.63368	-1.88446	0	
0.7800	-0.114644	-3.42836	0	
0.7807	-0.716527	-3.72352	0	
0.7813	-7.73849	-2.81534	0	
0.7820	-15.3623	-0.681132	0	
0.7827	-17.1966	0.862767	0	
0.7833	-13.528	1.77094	0	
0.7840	-8.05376	0.862767	0	
0.7847	-4.98702	-1.88446	0	
0.7853	-5.3023	-3.72352	0	
0.7860	-5.90418	-1.88446	0	
0.7867	-4.38514	0.862767	0	
0.7873	-0.716527	-0.0681132	0	
0.7880	2.03494	-1.88446	0	
0.7887	1.11778	-0.681132	0	
0.7893	0.200627	-0.0681132	0	
0.7900	2.03494	-0.976289	0	
0.7907	1.40439	-0.976289	0	
0.7913	-1.31841	-0.0681132	0	
0.7920	-1.31841	-0.0681132	0	
0.7927	-0.716527	-0.681132	0	
0.7933	-1.63368	-2.20233	0	
0.7940	-1.0318	-3.42836	0	
0.7947	-0.716527	-2.81534	0	
0.7953	-0.114644	-2.20233	0	
0.7960	2.63682	-3.1105	0	
0.7967	4.75774	-3.42836	0	
0.7973	4.75774	-1.88446	0	
0.7980	7.22259	-0.976289	0	
0.7987	8.42635	-2.81534	0	
0.7993	4.47113	-4.33654	0	
0.8000	1.40439	-1.88446	0	
0.8007	1.11778	0.862767	0	
0.8013	-0.114644	0.249748	0	
0.8020	-0.716527	-1.29415	0	
0.8027	-0.716527	-1.88446	0	
0.8033	-2.55083	-1.29415	0	
0.8040	-1.63368	1.45308	0	
0.8047	1.11778	2.67912	0	
0.8053	-0.716527	-0.0681132	0	
0.8060	-4.70041	-0.976289	0	
0.8067	-3.15272	-0.0681132	0	
0.8073	-0.429916	-0.0681132	0	
0.8080	0.80251	1.77094	0	
0.8087	2.03494	1.77094	0	
0.8093	1.11778	-1.58931	0	
0.8100	-0.429916	-2.20233	0	
0.8107	1.11778	0.862767	0	
0.8113	2.03494	0.544905	0	
0.8120	-0.114644	-0.976289	0	
0.8127	-0.716527	-0.36327	0	
0.8133	1.11778	0.249748	0	
0.8140	0.487238	1.15792	0	
0.8147	-1.63368	2.67912	0	
0.8153	-4.38514	2.0661	0	
0.8160	-4.98702	1.45308	0	
0.8167	-3.15272	3.29214	0	
0.8173	-1.31841	3.29214	0	
0.8180	0.200627	0.862767	0	
0.8187	2.63682	0.862767	0	
0.8193	4.47113	0.862767	0	
0.8200	3.55397	-0.36327	0	
0.8207	2.95209	-0.36327	0	
0.8213	2.32155	0.862767	0	
0.8220	1.40439	0.249748	0	
0.8227	0.80251	0.862767	0	
0.8233	0.200627	3.90515	0	
0.8240	-0.429916	3.58729	0	
0.8247	-0.429916	1.45308	0	
0.8253	-1.0318	1.77094	0	
0.8260	-2.55083	3.58729	0	
0.8267	-1.63368	3.58729	0	
0.8273	-0.716527	3.58729	0	
0.8280	-1.63368	2.99698	0	
0.8287	-0.716527	0.862767	0	
0.8293	2.63682	-0.0681132	0	
0.8300	5.99016	-0.0681132	0	
0.8307	7.82447	-0.976289	0	
0.8313	6.59204	-0.976289	0	
0.8320	3.2387	-0.0681132	0	
0.8327	0.487238	-0.976289	0	
0.8333	-2.55083	-0.976289	0	
0.8340	-5.61757	-1.29415	0	
0.8347	-5.3023	-2.20233	0	
0.8353	-5.3023	-1.58931	0	
0.8360	-6.21945	0.544905	0	
0.8367	-4.06987	0.862767	0	
0.8373	-0.716527	-0.36327	0	
0.8380	0.487238	-0.0681132	0	
0.8387	2.63682	1.45308	0	
0.8393	4.75774	0.862767	0	
0.8400	3.55397	0.249748	0	
0.8407	2.63682	0.862767	0	
0.8413	2.03494	0.544905	0	
0.8420	0.200627	1.15792	0	
0.8427	-0.429916	2.0661	0	
0.8433	0.487238	0.249748	0	
0.8440	0.200627	-1.88446	0	
0.8447	0.487238	-1.58931	0	
0.8453	1.40439	-1.88446	0	
0.8460	0.200627	-0.976289	0	
0.8467	1.71966	0.862767	0	
0.8473	4.15585	0.249748	0	
0.8480	1.71966	-0.0681132	0	
0.8487	-0.716527	1.45308	0	
0.8493	1.71966	2.0661	0	
0.8500	0.80251	1.45308	0	
0.8507	-2.86611	0.544905	0	
0.8513	-3.46799	-1.58931	0	
0.8520	-3.46799	-1.58931	0	
0.8527	-3.15272	1.77094	0	
0.8533	-0.429916	1.45308	0	
0.8540	0.487238	-1.58931	0	
0.8547	0.200627	0.249748	0	
0.8553	2.03494	2.0661	0	
0.8560	2.03494	-1.29415	0	
0.8567	-1.63368	-3.72352	0	
0.8573	-1.94895	-2.81534	0	
0.8580	0.200627	-3.42836	0	
0.8587	-1.63368	-3.72352	0	
0.8593	-5.3023	-2.81534	0	
0.8600	-5.3023	-3.1105	0	
0.8607	-4.06987	-3.42836	0	
0.8613	-3.78326	-2.49748	0	
0.8620	-3.46799	-1.58931	0	
0.8627	-3.78326	-0.36327	0	
0.8633	-5.61757	1.77094	0	
0.8640	-4.98702	2.67912	0	
0.8647	-0.716527	2.0661	0	
0.8653	1.40439	0.544905	0	
0.8660	0.487238	-0.976289	0	
0.8667	1.71966	-0.976289	0	
0.8673	2.03494	-1.29415	0	
0.8680	0.200627	-0.976289	0	
0.8687	2.03494	-0.0681132	0	
0.8693	5.67489	-0.976289	0	
0.8700	5.07301	-3.1105	0	
0.8707	3.2387	-3.1105	0	
0.8713	4.75774	-3.1105	0	
0.8720	6.30543	-3.72352	0	
0.8727	6.30543	-0.976289	0	
0.8733	5.07301	1.15792	0	
0.8740	4.75774	-0.976289	0	
0.8747	6.59204	-0.681132	0	
0.8753	6.59204	2.67912	0	
0.8760	2.03494	1.45308	0	
0.8767	-3.15272	-0.976289	0	
0.8773	-5.61757	0.544905	0	
0.8780	-6.21945	0.544905	0	
0.8787	-5.90418	-1.29415	0	
0.8793	-3.78326	-0.0681132	0	
0.8800	-1.31841	2.38396	0	
0.8807	-1.0318	1.15792	0	
0.8813	-6.21945	-1.58931	0	
0.8820	-11.6937	-0.681132	0	
0.8827	-10.4899	1.15792	0	
0.8833	-5.61757	-0.0681132	0	
0.8840	-4.06987	-1.58931	0	
0.8847	-4.38514	-0.0681132	0	
0.8853	-1.31841	-0.0681132	0	
0.8860	2.03494	-0.0681132	0	
0.8867	1.40439	1.77094	0	
0.8873	-1.31841	1.77094	0	
0.8880	-1.63368	-0.681132	0	
0.8887	-1.63368	-0.0681132	0	
0.8893	-1.63368	-0.0681132	0	
0.8900	1.71966	-1.88446	0	
0.8907	3.86924	-0.0681132	0	
0.8913	-0.114644	1.15792	0	
0.8920	-3.78326	-1.88446	0	
0.8927	-1.63368	-2.81534	0	
0.8933	-0.114644	-0.681132	0	
0.8940	-2.86611	-0.0681132	0	
0.8947	-2.23556	-0.0681132	0	
0.8953	1.11778	-0.681132	0	
0.8960	1.11778	-1.58931	0	
0.8967	1.11778	0.862767	0	
0.8973	5.67489	2.99698	0	
0.8980	9.65878	0.862767	0	
0.8987	6.90732	0.862767	0	
0.8993	2.32155	2.67912	0	
0.9000	1.11778	0.544905	0	
0.9007	0.487238	-1.29415	0	
0.9013	-0.716527	0.862767	0	
0.9020	-2.55083	0.544905	0	
0.9027	-3.46799	-2.81534	0	
0.9033	-4.06987	-2.81534	0	
0.9040	-4.70041	-0.0681132	0	
0.9047	-4.06987	0.862767	0	
0.9053	-3.46799	-0.36327	0	
0.9060	-6.21945	-0.0681132	0	
0.9067	-6.82133	1.77094	0	
0.9073	-4.06987	0.862767	0	
0.9080	-2.86611	-2.81534	0	
0.9087	-4.70041	-1.29415	0	
0.9093	-2.55083	3.58729	0	
0.9100	2.95209	2.67912	0	
0.9107	4.75774	-0.976289	0	
0.9113	1.40439	-0.36327	0	
0.9120	1.11778	0.249748	0	
0.9127	4.47113	-1.88446	0	
0.9133	4.75774	-2.49748	0	
0.9140	1.71966	-1.88446	0	
0.9147	2.03494	-3.72352	0	
0.9153	5.38828	-3.72352	0	
0.9160	3.55397	-3.42836	0	
0.9167	0.200627	-3.72352	0	
0.9173	0.200627	-2.81534	0	
0.9180	-0.716527	-0.976289	0	
0.9187	-3.46799	-1.88446	0	
0.9193	-3.78326	-1.29415	0	
0.9200	-2.55083	1.15792	0	
0.9207	-4.38514	0.249748	0	
0.9213	-6.50606	-1.29415	0	
0.9220	-5.3023	0.544905	0	
0.9227	-4.06987	0.862767	0	
0.9233	-4.38514	-0.0681132	0	
0.9240	-3.46799	1.45308	0	
0.9247	-1.63368	1.77094	0	
0.9253	-1.63368	0.862767	0	
0.9260	-2.55083	1.77094	0	
0.9267	-1.63368	2.0661	0	
0.9273	-1.31841	2.38396	0	
0.9280	-1.63368	3.58729	0	
0.9287	-2.23556	3.58729	0	
0.9293	-3.15272	1.77094	0	
0.9300	-4.70041	2.38396	0	
0.9307	-5.3023	2.67912	0	
0.9313	-4.70041	1.45308	0	
0.9320	-4.98702	1.45308	0	
0.9327	-6.50606	1.77094	0	
0.9333	-8.34037	0.249748	0	
0.9340	-7.42321	-0.0681132	0	
0.9347	-3.78326	-0.976289	0	
0.9353	-1.0318	-2.81534	0	
0.9360	-0.716527	-1.88446	0	
0.9367	0.200627	2.0661	0	
0.9373	2.03494	2.38396	0	
0.9380	3.86924	0.249748	0	
0.9387	4.75774	0.249748	0	
0.9393	3.2387	-0.0681132	0	
0.9400	2.95209	-0.0681132	0	
0.9407	5.67489	0.862767	0	
0.9413	5.99016	0.862767	0	
0.9420	3.2387	0.249748	0	
0.9427	1.11778	0.249748	0	
0.9433	0.200627	0.249748	0	
0.9440	0.200627	0.862767	0	
0.9447	-0.114644	1.77094	0	
0.9453	-2.55083	0.862767	0	
0.9460	-4.06987	-1.58931	0	
0.9467	-2.86611	-0.0681132	0	
0.9473	-1.0318	2.67912	0	
0.9480	-0.716527	1.77094	0	
0.9487	-0.716527	-1.29415	0	
0.9493	0.80251	-2.81534	0	
0.9500	2.95209	-1.88446	0	
0.9507	3.86924	-0.976289	0	
0.9513	2.03494	-1.88446	0	
0.9520	1.71966	-3.72352	0	
0.9527	2.32155	-2.81534	0	
0.9533	2.03494	-0.681132	0	
0.9540	1.40439	-0.36327	0	
0.9547	-1.0318	-0.36327	0	
0.9553	-3.78326	0.249748	0	
0.9560	-3.46799	-0.976289	0	
0.9567	-3.15272	-1.29415	0	
0.9573	-4.98702	0.544905	0	
0.9580	0.487238	1.15792	0	
0.9587	8.42635	0.544905	0	
0.9593	5.99016	1.45308	0	
0.9600	-0.716527	2.67912	0	
0.9607	-1.63368	1.77094	0	
0.9613	-1.63368	0.544905	0	
0.9620	-4.06987	-0.0681132	0	
0.9627	-3.78326	-0.976289	0	
0.9633	-4.06987	0.249748	0	
0.9640	-4.70041	2.38396	0	
0.9647	-2.86611	1.45308	0	
0.9653	-2.86611	0.249748	0	
0.9660	-6.82133	1.45308	0	
0.9667	-8.05376	1.45308	0	
0.9673	-3.78326	-2.20233	0	
0.9680	0.200627	-3.72352	0	
0.9687	1.11778	-1.29415	0	
0.9693	3.55397	-1.29415	0	
0.9700	9.34351	-3.1105	0	
0.9707	10.8625	-0.976289	0	
0.9713	7.82447	2.38396	0	
0.9720	6.90732	1.77094	0	
0.9727	7.82447	1.15792	0	
0.9733	5.99016	1.45308	0	
0.9740	4.15585	-1.88446	0	
0.9747	3.55397	-4.33654	0	
0.9753	2.03494	-2.81534	0	
0.9760	2.03494	-2.20233	0	
0.9767	0.80251	-3.72352	0	
0.9773	-1.63368	-2.81534	0	
0.9780	-0.716527	-1.58931	0	
0.9787	1.11778	-0.976289	0	
0.9793	1.40439	0.544905	0	
0.9800	-0.716527	0.544905	0	
0.9807	-5.90418	-0.976289	0	
0.9813	-9.25752	0.249748	0	
0.9820	-5.90418	0.249748	0	
0.9827	-3.15272	-0.976289	0	
0.9833	-4.70041	1.77094	0	
0.9840	-3.46799	2.67912	0	
0.9847	-1.31841	0.249748	0	
0.9853	-2.55083	-0.0681132	0	
0.9860	-1.31841	1.45308	0	
0.9867	0.487238	0.862767	0	
0.9873	-4.38514	0.862767	0	
0.9880	-9.57279	1.45308	0	
0.9887	-8.65564	1.77094	0	
0.9893	-4.38514	1.15792	0	
0.9900	-1.94895	-0.36327	0	
0.9907	-4.70041	-1.58931	0	
0.9913	-8.05376	-0.976289	0	
0.9920	-4.38514	-2.20233	0	
0.9927	0.200627	-2.81534	0	
0.9933	-1.31841	-0.36327	0	
0.9940	-2.23556	-0.0681132	0	
0.9947	-1.94895	-0.976289	0	
0.9953	-1.94895	0.862767	0	
0.9960	2.63682	1.77094	0	
0.9967	7.22259	0.544905	0	
0.9973	3.86924	-0.681132	0	
0.9980	1.40439	-0.0681132	0	
0.9987	2.95209	1.77094	0	
0.9993	0.487238	2.38396	0	
1.0000	-2.55083	-0.0681132	0	
1.0007	-1.31841	-0.0681132	0	
1.0013	-1.0318	2.67912	0	
1.0020	-1.63368	0.862767	0	
1.0027	-1.94895	-2.20233	0	
1.0033	-7.73849	-1.29415	0	
1.0040	-14.4452	-1.88446	0	
1.0047	-13.528	-1.88446	0	
1.0053	-9.57279	2.38396	0	
1.0060	-7.42321	3.29214	0	
1.0067	-5.3023	-0.976289	0	
1.0073	-5.3023	-0.976289	0	
1.0080	-5.61757	2.99698	0	
1.0087	-2.86611	2.99698	0	
1.0093	-1.0318	0.544905	0	
1.0100	-1.31841	-0.681132	0	
1.0107	1.11778	-0.36327	0	
1.0113	3.55397	-0.976289	0	
1.0120	3.86924	-2.81534	0	
1.0127	5.07301	-3.72352	0	
1.0133	7.5092	-1.88446	0	
1.0140	5.99016	-0.976289	0	
1.0147	0.80251	-1.29415	0	
1.0153	-0.429916	-0.976289	0	
1.0160	2.32155	-1.88446	0	
1.0167	2.03494	-2.81534	0	
1.0173	-1.63368	-0.36327	0	
1.0180	-0.716527	0.862767	0	
1.0187	-0.114644	-0.0681132	0	
1.0193	-3.46799	2.38396	0	
1.0200	-5.61757	3.29214	0	
1.0207	-4.38514	-0.0681132	0	
1.0213	-3.15272	-0.0681132	0	
1.0220	-3.15272	3.58729	0	
1.0227	-4.38514	2.38396	0	
1.0233	-4.38514	0.862767	0	
1.0240	-2.55083	2.99698	0	
1.0247	-1.0318	2.99698	0	
1.0253	0.200627	-0.0681132	0	
1.0260	1.71966	0.862767	0	
1.0267	0.200627	1.77094	0	
1.0273	-2.55083	-0.0681132	0	
1.0280	-0.716527	-0.36327	0	
1.0287	2.95209	1.45308	0	
1.0293	5.07301	2.0661	0	
1.0300	7.5092	0.862767	0	
1.0307	9.0569	-0.36327	0	
1.0313	8.74162	-0.681132	0	
1.0320	7.5092	-1.88446	0	
1.0327	5.99016	-3.42836	0	
1.0333	5.67489	-2.49748	0	
1.0340	4.75774	0.544905	0	
1.0347	2.03494	0.544905	0	
1.0353	1.40439	-1.29415	0	
1.0360	1.71966	-1.29415	0	
1.0367	-1.31841	-1.88446	0	
1.0373	-5.61757	-2.20233	0	
1.0380	-8.05376	0.862767	0	
1.0387	-11.0918	3.90515	0	
1.0393	-12.6109	2.67912	0	
1.0400	-9.88807	-0.0681132	0	
1.0407	-6.21945	-0.0681132	0	
1.0413	-5.3023	-0.0681132	0	
1.0420	-0.429916	-0.681132	0	
1.0427	9.65878	0.862767	0	
1.0433	11.7797	2.67912	0	
1.0440	2.63682	0.249748	0	
1.0447	-1.94895	-2.20233	0	
1.0453	-0.429916	-0.36327	0	
1.0460	-2.86611	0.862767	0	
1.0467	-4.98702	-2.20233	0	
1.0473	-1.0318	-2.81534	0	
1.0480	1.71966	0.249748	0	
1.0487	2.03494	1.45308	0	
1.0493	5.67489	0.862767	0	
1.0500	7.82447	0.862767	0	
1.0507	7.5092	-0.0681132	0	
1.0513	7.5092	-0.976289	0	
1.0520	5.38828	-0.36327	0	
1.0527	2.03494	-0.36327	0	
1.0533	2.32155	-0.0681132	0	
1.0540	2.95209	0.544905	0	
1.0547	1.11778	-0.36327	0	
1.0553	0.80251	-1.88446	0	
1.0560	0.200627	-2.81534	0	
1.0567	-2.86611	-2.20233	0	
1.0573	-2.55083	-0.0681132	0	
1.0580	-0.716527	0.862767	0	
1.0587	-1.0318	-0.976289	0	
1.0593	-1.63368	-1.29415	0	
1.0600	-1.63368	-0.0681132	0	
1.0607	-3.46799	-0.36327	0	
1.0613	-3.78326	-0.0681132	0	
1.0620	-2.55083	0.862767	0	
1.0627	-3.15272	1.15792	0	
1.0633	-1.63368	2.67912	0	
1.0640	3.2387	2.0661	0	
1.0647	4.75774	-1.88446	0	
1.0653	4.75774	-2.20233	0	
1.0660	5.99016	0.862767	0	
1.0667	5.38828	1.15792	0	
1.0673	4.75774	-0.0681132	0	
1.0680	6.59204	-1.88446	0	
1.0687	6.30543	-3.72352	0	
1.0693	2.03494	-3.72352	0	
1.0700	-1.63368	-0.0681132	0	
1.0707	-8.34037	0.862767	0	
1.0713	-15.3623	-1.29415	0	
1.0720	-16.2795	-2.49748	0	
1.0727	-12.009	-0.36327	0	
1.0733	-8.05376	1.15792	0	
1.0740	-5.3023	-0.36327	0	
1.0747	-3.46799	-2.20233	0	
1.0753	-1.63368	-1.88446	0	
1.0760	0.487238	-1.58931	0	
1.0767	-0.716527	-0.0681132	0	
1.0773	-5.61757	1.77094	0	
1.0780	-8.05376	1.45308	0	
1.0787	-5.90418	1.15792	0	
1.0793	-4.70041	1.77094	0	
1.0800	-5.90418	1.15792	0	
1.0807	-6.82133	1.15792	0	
1.0813	-5.3023	2.38396	0	
1.0820	-2.86611	0.249748	0	
1.0827	-2.86611	-1.88446	0	
1.0833	-4.06987	-0.0681132	0	
1.0840	-1.94895	0.862767	0	
1.0847	1.11778	-0.0681132	0	
1.0853	1.11778	-1.58931	0	
1.0860	0.200627	-0.976289	0	
1.0867	1.71966	0.862767	0	
1.0873	3.86924	-0.0681132	0	
1.0880	6.59204	-2.81534	0	
1.0887	8.42635	-1.58931	0	
1.0893	7.5092	1.45308	0	
1.0900	7.5092	-0.0681132	0	
1.0907	10.2607	-1.29415	0	
1.0913	8.42635	0.544905	0	
1.0920	2.03494	-0.36327	0	
1.0927	1.71966	-2.81534	0	
1.0933	5.38828	-2.20233	0	
1.0940	3.55397	-1.88446	0	
1.0947	0.200627	-4.33654	0	
1.0953	-0.429916	-4.63169	0	
1.0960	-1.94895	-1.58931	0	
1.0967	-2.55083	-0.976289	0	
1.0973	2.95209	-3.42836	0	
1.0980	8.42635	-1.29415	0	
1.0987	5.99016	2.67912	0	
1.0993	2.32155	0.249748	0	
1.1000	1.40439	-1.88446	0	
1.1007	-2.23556	0.249748	0	
1.1013	-6.21945	0.862767	0	
1.1020	-4.38514	-0.976289	0	
1.1027	-1.63368	-0.681132	0	
1.1033	-4.38514	0.544905	0	
1.1040	-6.50606	0.249748	0	
1.1047	-4.98702	-0.681132	0	
1.1053	-4.70041	-0.976289	0	
1.1060	-4.70041	0.249748	0	
1.1067	-1.31841	2.0661	0	
1.1073	0.487238	2.0661	0	
1.1080	-0.716527	-0.36327	0	
1.1087	-0.716527	-3.1105	0	
1.1093	-0.429916	-3.42836	0	
1.1100	-2.55083	-1.29415	0	
1.1107	-3.46799	-0.36327	0	
1.1113	-1.31841	-0.681132	0	
1.1120	1.11778	0.249748	0	
1.1127	2.03494	0.544905	0	
1.1133	0.200627	-0.0681132	0	
1.1140	-2.23556	-0.681132	0	
1.1147	-1.63368	-0.36327	0	
1.1153	-1.0318	1.45308	0	
1.1160	-4.38514	2.67912	0	
1.1167	-5.61757	1.45308	0	
1.1173	-3.46799	1.15792	0	
1.1180	-5.3023	2.0661	0	
1.1187	-8.05376	1.77094	0	
1.1193	-6.50606	1.77094	0	
1.1200	-5.3023	3.58729	0	
1.1207	-4.38514	3.58729	0	
1.1213	-1.63368	3.58729	0	
1.1220	0.80251	2.99698	0	
1.1227	0.200627	0.862767	0	
1.1233	-1.0318	0.249748	0	
1.1240	-2.55083	-0.0681132	0	
1.1247	-3.15272	-1.88446	0	
1.1253	-1.63368	-2.81534	0	
1.1260	-0.429916	-1.88446	0	
1.1267	-1.63368	-3.42836	0	
1.1273	-3.46799	-4.04138	0	
1.1280	-2.86611	-2.20233	0	
1.1287	0.200627	-1.88446	0	
1.1293	2.63682	-0.976289	0	
1.1300	2.95209	2.67912	0	
1.1307	2.63682	2.67912	0	
1.1313	3.86924	-0.0681132	0	
1.1320	5.07301	0.862767	0	
1.1327	2.95209	0.862767	0	
1.1333	1.11778	-1.88446	0	
1.1340	1.71966	-2.20233	0	
1.1347	0.487238	-1.58931	0	
1.1353	-0.716527	-3.1105	0	
1.1360	1.71966	-0.976289	0	
1.1367	2.03494	3.29214	0	
1.1373	-1.63368	1.45308	0	
1.1380	-1.0318	-0.36327	0	
1.1387	2.03494	1.15792	0	
1.1393	-1.63368	0.544905	0	
1.1400	-4.70041	-1.29415	0	
1.1407	-1.63368	-0.0681132	0	
1.1413	-0.429916	-0.36327	0	
1.1420	-1.0318	-2.81534	0	
1.1427	0.487238	-1.58931	0	
1.1433	0.487238	0.544905	0	
1.1440	1.11778	-0.976289	0	
1.1447	2.95209	-0.976289	0	
1.1453	1.11778	0.544905	0	
1.1460	-4.70041	-0.976289	0	
1.1467	-9.88807	-2.20233	0	
1.1473	-11.4071	-0.681132	0	
1.1480	-9.88807	-1.58931	0	
1.1487	-8.05376	-2.20233	0	
1.1493	-6.21945	0.249748	0	
1.1500	-1.94895	-1.29415	0	
1.1507	1.11778	-4.63169	0	
1.1513	-2.55083	-1.88446	0	
1.1520	-4.38514	0.862767	0	
1.1527	-0.429916	-1.88446	0	
1.1533	1.40439	-3.1105	0	
1.1540	-1.63368	-0.976289	0	
1.1547	-4.70041	-0.0681132	0	
1.1553	-5.3023	-1.58931	0	
1.1560	-2.86611	-2.49748	0	
1.1567	-0.716527	-2.49748	0	
1.1573	-1.63368	-2.81534	0	
1.1580	-2.86611	-2.81534	0	
1.1587	-2.23556	-0.36327	0	
1.1593	-0.716527	1.15792	0	
1.1600	-0.429916	-0.0681132	0	
1.1607	-1.31841	-0.0681132	0	
1.1613	-1.0318	2.38396	0	
1.1620	1.71966	2.67912	0	
1.1627	2.03494	0.862767	0	
1.1633	-1.0318	1.77094	0	
1.1640	-3.46799	2.67912	0	
1.1647	-4.98702	2.67912	0	
1.1653	-4.38514	0.544905	0	
1.1660	-2.86611	-0.681132	0	
1.1667	-4.70041	-0.681132	0	
1.1673	-3.15272	-1.29415	0	
1.1680	4.15585	-0.0681132	0	
1.1687	6.59204	1.77094	0	
1.1693	2.95209	-0.0681132	0	
1.1700	3.55397	-2.20233	0	
1.1707	6.30543	-0.36327	0	
1.1713	6.90732	0.249748	0	
1.1720	6.90732	-0.976289	0	
1.1727	4.75774	-0.681132	0	
1.1733	2.95209	-1.58931	0	
1.1740	5.67489	-2.20233	0	
1.1747	7.22259	0.862767	0	
1.1753	2.63682	2.38396	0	
1.1760	-0.716527	-0.976289	0	
1.1767	-1.63368	-1.88446	0	
1.1773	-2.55083	-0.0681132	0	
1.1780	-2.55083	-0.36327	0	
1.1787	-2.23556	-1.88446	0	
1.1793	-4.38514	-0.976289	0	
1.1800	-7.1366	-1.88446	0	
1.1807	-5.3023	-2.20233	0	
1.1813	-2.55083	0.249748	0	
1.1820	-4.98702	1.15792	0	
1.1827	-7.1366	-0.976289	0	
1.1833	-3.46799	-0.0681132	0	
1.1840	0.200627	2.0661	0	
1.1847	0.200627	1.15792	0	
1.1853	1.11778	0.249748	0	
1.1860	2.95209	1.77094	0	
1.1867	1.11778	2.67912	0	
1.1873	-1.94895	2.0661	0	
1.1880	-1.94895	1.15792	0	
1.1887	-0.716527	1.15792	0	
1.1893	-1.31841	1.77094	0	
1.1900	-2.86611	1.15792	0	
1.1907	-3.46799	0.544905	0	
1.1913	-2.55083	-0.36327	0	
1.1920	-2.55083	-1.29415	0	
1.1927	-3.15272	-0.976289	0	
1.1933	-2.55083	0.249748	0	
1.1940	-3.46799	-0.0681132	0	
1.1947	-3.46799	0.862767	0	
1.1953	-0.429916	2.38396	0	
1.1960	-0.716527	0.249748	0	
1.1967	-2.86611	-0.0681132	0	
1.1973	-1.63368	3.29214	0	
1.1980	-0.114644	1.45308	0	
1.1987	-2.23556	-0.976289	0	
1.1993	-4.38514	4.51817	0	
1.2000	-6.82133	5.42635	0	
1.2007	-8.34037	-1.29415	0	
1.2013	-4.98702	-1.58931	0	
1.2020	0.487238	1.15792	0	
1.2027	2.95209	-1.88446	0	
1.2033	3.2387	-3.1105	0	
1.2040	4.75774	-0.0681132	0	
1.2047	4.75774	-0.0681132	0	
1.2053	2.95209	-0.681132	0	
1.2060	2.95209	1.15792	0	
1.2067	3.86924	2.67912	0	
1.2073	1.71966	2.67912	0	
1.2080	-0.114644	1.77094	0	
1.2087	2.03494	0.862767	0	
1.2093	2.03494	1.77094	0	
1.2100	0.200627	1.77094	0	
1.2107	0.80251	-0.0681132	0	
1.2113	1.71966	0.862767	0	
1.2120	0.200627	2.67912	0	
1.2127	1.11778	0.862767	0	
1.2133	3.55397	-0.976289	0	
1.2140	3.2387	-1.29415	0	
1.2147	3.2387	-2.49748	0	
1.2153	5.67489	-1.88446	0	
1.2160	5.07301	-0.0681132	0	
1.2167	0.80251	-1.29415	0	
1.2173	-2.23556	-2.81534	0	
1.2180	-1.63368	-2.20233	0	
1.2187	-1.63368	-1.29415	0	
1.2193	-4.38514	-1.88446	0	
1.2200	-7.1366	-2.81534	0	
1.2207	-8.05376	-1.58931	0	
1.2213	-8.05376	0.544905	0	
1.2220	-7.1366	0.249748	0	
1.2227	-6.82133	-0.681132	0	
1.2233	-6.21945	-0.0681132	0	
1.2240	-5.90418	0.249748	0	
1.2247	-6.82133	1.15792	0	
1.2253	-6.21945	1.77094	0	
1.2260	-3.46799	-0.681132	0	
1.2267	-0.429916	-2.20233	0	
1.2273	1.11778	0.862767	0	
1.2280	2.03494	2.99698	0	
1.2287	2.95209	0.249748	0	
1.2293	2.95209	-2.49748	0	
1.2300	3.86924	-2.49748	0	
1.2307	4.15585	-1.58931	0	
1.2313	1.40439	-1.58931	0	
1.2320	-1.31841	-1.58931	0	
1.2327	0.200627	-0.976289	0	
1.2333	2.95209	-1.88446	0	
1.2340	4.47113	-3.42836	0	
1.2347	4.47113	-1.88446	0	
1.2353	3.55397	0.249748	0	
1.2360	1.40439	-0.36327	0	
1.2367	-1.0318	-1.88446	0	
1.2373	-2.55083	-1.58931	0	
1.2380	-2.55083	-0.976289	0	
1.2387	-1.31841	-0.36327	0	
1.2393	-1.94895	-0.36327	0	
1.2400	-4.70041	-1.58931	0	
1.2407	-5.3023	-1.58931	0	
1.2413	-3.46799	-1.29415	0	
1.2420	-4.38514	-0.976289	0	
1.2427	-5.61757	0.544905	0	
1.2433	-3.46799	0.862767	0	
1.2440	-2.55083	-0.0681132	0	
1.2447	-2.55083	0.862767	0	
1.2453	1.11778	2.67912	0	
1.2460	5.38828	1.15792	0	
1.2467	4.75774	-1.88446	0	
1.2473	2.95209	-2.81534	0	
1.2480	3.86924	-1.58931	0	
1.2487	2.03494	0.862767	0	
1.2493	-4.98702	0.544905	0	
1.2500	-8.05376	-2.81534	0	
1.2507	-5.90418	-2.81534	0	
1.2513	-4.70041	0.862767	0	
1.2520	-2.86611	0.862767	0	
1.2527	2.03494	-1.88446	0	
1.2533	1.71966	-1.58931	0	
1.2540	-3.46799	0.249748	0	
1.2547	-5.3023	-0.0681132	0	
1.2553	-4.38514	-1.58931	0	
1.2560	-3.78326	-2.81534	0	
1.2567	-2.55083	-2.81534	0	
1.2573	-1.31841	-0.0681132	0	
1.2580	-0.114644	2.38396	0	
1.2587	2.95209	2.38396	0	
1.2593	3.55397	-0.36327	0	
1.2600	2.03494	-2.81534	0	
1.2607	2.95209	-1.88446	0	
1.2613	5.07301	0.862767	0	
1.2620	3.86924	0.862767	0	
1.2627	1.11778	0.249748	0	
1.2633	-0.716527	0.249748	0	
1.2640	-1.0318	-0.976289	0	
1.2647	-1.94895	-0.976289	0	
1.2653	-4.06987	0.862767	0	
1.2660	-2.86611	1.45308	0	
1.2667	2.03494	-0.0681132	0	
1.2673	2.03494	0.249748	0	
1.2680	-1.0318	1.77094	0	
1.2687	-0.114644	2.99698	0	
1.2693	0.487238	3.58729	0	
1.2700	-0.716527	2.38396	0	
1.2707	-0.114644	1.77094	0	
1.2713	-0.114644	4.20031	0	
1.2720	-2.55083	5.42635	0	
1.2727	-1.63368	1.77094	0	
1.2733	1.11778	-0.0681132	0	
1.2740	4.15585	0.544905	0	
1.2747	8.13974	-0.0681132	0	
1.2753	8.42635	-0.681132	0	
1.2760	5.67489	0.862767	0	
1.2767	6.59204	0.249748	0	
1.2773	8.42635	-0.976289	0	
1.2780	6.59204	-0.0681132	0	
1.2787	3.55397	0.862767	0	
1.2793	0.200627	-0.0681132	0	
1.2800	-4.06987	-0.976289	0	
1.2807	-8.05376	-0.976289	0	
1.2813	-10.4899	-0.976289	0	
1.2820	-8.34037	-1.88446	0	
1.2827	-3.78326	-1.29415	0	
1.2833	-4.98702	0.862767	0	
1.2840	-8.65564	2.67912	0	
1.2847	-6.21945	2.38396	0	
1.2853	-2.23556	0.249748	0	
1.2860	-3.78326	-0.681132	0	
1.2867	-5.61757	-0.0681132	0	
1.2873	-4.38514	1.15792	0	
1.2880	-3.46799	2.0661	0	
1.2887	-3.78326	2.67912	0	
1.2893	-3.15272	2.0661	0	
1.2900	-0.716527	-0.0681132	0	
1.2907	-0.716527	-2.81534	0	
1.2913	-2.23556	-3.72352	0	
1.2920	0.200627	-1.29415	0	
1.2927	3.2387	2.0661	0	
1.2933	2.03494	1.77094	0	
1.2940	1.11778	-1.29415	0	
1.2947	2.95209	-0.976289	0	
1.2953	2.03494	0.249748	0	
1.2960	1.40439	-0.681132	0	
1.2967	0.200627	-1.29415	0	
1.2973	-5.3023	-0.681132	0	
1.2980	-8.05376	-0.976289	0	
1.2987	-7.42321	-0.36327	0	
1.2993	-8.65564	1.45308	0	
1.3000	-4.38514	1.77094	0	
1.3007	3.86924	1.77094	0	
1.3013	2.32155	2.0661	0	
1.3020	-3.46799	0.544905	0	
1.3027	-1.63368	-0.681132	0	
1.3033	0.80251	0.544905	0	
1.3040	-0.716527	-0.0681132	0	
1.3047	1.40439	-0.0681132	0	
1.3053	4.47113	1.77094	0	
1.3060	3.55397	-0.36327	0	
1.3067	3.86924	-4.63169	0	
1.3073	5.67489	-3.1105	0	
1.3080	5.67489	1.15792	0	
1.3087	5.67489	-0.0681132	0	
1.3093	7.5092	-1.88446	0	
1.3100	7.22259	0.862767	0	
1.3107	4.75774	1.15792	0	
1.3113	2.95209	-0.681132	0	
1.3120	0.487238	-0.0681132	0	
1.3127	-1.0318	0.249748	0	
1.3133	2.03494	-0.681132	0	
1.3140	6.59204	0.249748	0	
1.3147	4.47113	0.544905	0	
1.3153	-0.716527	-0.0681132	0	
1.3160	-2.55083	0.544905	0	
1.3167	-3.46799	-0.681132	0	
1.3173	-8.97091	-2.49748	0	
1.3180	-15.3623	-0.0681132	0	
1.3187	-15.3623	1.15792	0	
1.3193	-10.1747	-1.58931	0	
1.3200	-5.3023	-0.681132	0	
1.3207	-2.86611	2.67912	0	
1.3213	-0.114644	1.77094	0	
1.3220	2.03494	0.862767	0	
1.3227	3.86924	1.45308	0	
1.3233	5.38828	0.249748	0	
1.3240	4.15585	-0.0681132	0	
1.3247	2.32155	-0.36327	0	
1.3253	3.2387	-2.81534	0	
1.3260	4.47113	-1.29415	0	
1.3267	3.55397	2.0661	0	
1.3273	2.32155	0.249748	0	
1.3280	2.03494	-1.58931	0	
1.3287	2.03494	-0.681132	0	
1.3293	4.15585	-2.81534	0	
1.3300	6.30543	-4.33654	0	
1.3307	5.07301	-1.88446	0	
1.3313	3.2387	-0.976289	0	
1.3320	4.15585	-0.36327	0	
1.3327	4.47113	1.15792	0	
1.3333	2.95209	-1.58931	0	
1.3340	3.55397	-5.24471	0	
1.3347	3.55397	-3.42836	0	
1.3353	1.71966	-1.29415	0	
1.3360	2.95209	-1.88446	0	
1.3367	5.07301	-0.0681132	0	
1.3373	1.11778	2.38396	0	
1.3380	-1.94895	1.15792	0	
1.3387	1.71966	0.249748	0	
1.3393	3.86924	0.544905	0	
1.3400	2.03494	-1.88446	0	
1.3407	1.11778	-5.56257	0	
1.3413	0.200627	-3.72352	0	
1.3420	-0.429916	0.862767	0	
1.3427	-3.46799	0.544905	0	
1.3433	-10.1747	0.544905	0	
1.3440	-12.009	3.29214	0	
1.3447	-8.97091	1.77094	0	
1.3453	-8.97091	-0.976289	0	
1.3460	-8.97091	0.862767	0	
1.3467	-4.98702	0.862767	0	
1.3473	-5.3023	-0.976289	0	
1.3480	-8.05376	-0.0681132	0	
1.3487	-5.3023	-0.0681132	0	
1.3493	-2.55083	-1.88446	0	
1.3500	-2.23556	-0.0681132	0	
1.3507	-0.716527	1.77094	0	
1.3513	0.200627	0.862767	0	
1.3520	-0.114644	1.45308	0	
1.3527	-0.114644	2.38396	0	
1.3533	-1.63368	1.77094	0	
1.3540	-3.46799	1.77094	0	
1.3547	-4.06987	2.0661	0	
1.3553	-3.46799	1.45308	0	
1.3560	-3.15272	0.249748	0	
1.3567	-4.38514	-0.0681132	0	
1.3573	-5.61757	0.862767	0	
1.3580	-4.38514	1.77094	0	
1.3587	-4.06987	1.45308	0	
1.3593	-5.61757	0.249748	0	
1.3600	-4.98702	-1.29415	0	
1.3607	-5.3023	-0.36327	0	
1.3613	-8.05376	1.45308	0	
1.3620	-7.1366	0.249748	0	
1.3627	-5.3023	-0.0681132	0	
1.3633	-6.50606	1.77094	0	
1.3640	-5.3023	-0.36327	0	
1.3647	-1.63368	-2.81534	0	
1.3653	-3.46799	0.544905	0	
1.3660	-2.55083	2.99698	0	
1.3667	6.59204	0.862767	0	
1.3673	9.0569	0.544905	0	
1.3680	0.80251	0.862767	0	
1.3687	-2.23556	-0.976289	0	
1.3693	4.15585	-1.58931	0	
1.3700	6.59204	-1.88446	0	
1.3707	3.86924	-2.81534	0	
1.3713	3.55397	-2.20233	0	
1.3720	4.75774	-1.58931	0	
1.3727	5.38828	-2.20233	0	
1.3733	5.67489	-2.81534	0	
1.3740	4.47113	-3.72352	0	
1.3747	2.03494	-3.42836	0	
1.3753	1.40439	-2.49748	0	
1.3760	1.40439	-1.58931	0	
1.3767	-1.63368	-0.0681132	0	
1.3773	-2.55083	-0.0681132	0	
1.3780	1.11778	-1.29415	0	
1.3787	3.2387	-2.81534	0	
1.3793	2.03494	-2.49748	0	
1.3800	0.200627	-0.36327	0	
1.3807	-1.63368	-0.0681132	0	
1.3813	-3.15272	-0.976289	0	
1.3820	-2.55083	-0.0681132	0	
1.3827	-1.63368	0.862767	0	
1.3833	-2.55083	-0.0681132	0	
1.3840	-4.38514	-0.0681132	0	
1.3847	-4.38514	0.544905	0	
1.3853	-1.63368	1.15792	0	
1.3860	1.11778	2.38396	0	
1.3867	2.95209	2.0661	0	
1.3873	5.07301	-0.681132	0	
1.3880	6.90732	-0.976289	0	
1.3887	5.07301	-0.0681132	0	
1.3893	2.32155	-1.88446	0	
1.3900	2.95209	-0.976289	0	
1.3907	3.2387	0.544905	0	
1.3913	1.40439	-0.36327	0	
1.3920	0.487238	-0.0681132	0	
1.3927	-0.114644	-0.976289	0	
1.3933	-2.55083	-3.42836	0	
1.3940	-4.38514	-1.29415	0	
1.3947	-6.50606	0.862767	0	
1.3953	-8.97091	-2.20233	0	
1.3960	-6.21945	-0.976289	0	
1.3967	-0.429916	2.38396	0	
1.3973	-1.31841	-0.976289	0	
1.3980	-5.61757	-2.49748	0	
1.3987	-6.21945	0.249748	0	
1.3993	-4.98702	-1.29415	0	
1.4000	-4.70041	-2.49748	0	
1.4007	-4.70041	0.544905	0	
1.4013	-4.70041	-0.0681132	0	
1.4020	-3.78326	-1.88446	0	
1.4027	-2.86611	0.862767	0	
1.4033	-3.46799	2.38396	0	
1.4040	-3.46799	1.77094	0	
1.4047	-2.55083	2.0661	0	
1.4053	-2.55083	-0.681132	0	
1.4060	-1.94895	-4.63169	0	
1.4067	-1.63368	-1.88446	0	
1.4073	-1.63368	2.67912	0	
1.4080	-1.63368	0.544905	0	
1.4087	-1.94895	-1.88446	0	
1.4093	-1.31841	-0.976289	0	
1.4100	1.11778	-1.58931	0	
1.4107	1.11778	-1.88446	0	
1.4113	2.63682	-0.681132	0	
1.4120	6.30543	-1.88446	0	
1.4127	4.47113	-2.49748	0	
1.4133	0.80251	-0.976289	0	
1.4140	3.86924	-0.0681132	0	
1.4147	7.22259	-0.976289	0	
1.4153	3.86924	-1.88446	0	
1.4160	2.95209	-1.88446	0	
1.4167	5.38828	-1.88446	0	
1.4173	4.75774	-1.88446	0	
1.4180	2.32155	-2.81534	0	
1.4187	0.487238	-0.976289	0	
1.4193	-1.63368	1.15792	0	
1.4200	-2.86611	0.862767	0	
1.4207	-3.46799	0.544905	0	
1.4213	-4.38514	0.862767	0	
1.4220	-4.38514	-0.976289	0	
1.4227	-3.15272	-2.81534	0	
1.4233	-2.23556	-0.976289	0	
1.4240	-2.23556	1.45308	0	
1.4247	-1.94895	1.45308	0	
1.4253	-2.23556	1.45308	0	
1.4260	-4.38514	2.38396	0	
1.4267	-4.70041	2.67912	0	
1.4273	-4.38514	3.58729	0	
1.4280	-6.21945	3.29214	0	
1.4287	-6.82133	-0.36327	0	
1.4293	-3.15272	-1.88446	0	
1.4300	-0.716527	1.15792	0	
1.4307	-2.55083	2.0661	0	
1.4313	-4.38514	-0.0681132	0	
1.4320	-3.46799	-0.36327	0	
1.4327	-1.31841	0.249748	0	
1.4333	1.71966	-0.0681132	0	
1.4340	3.55397	-0.36327	0	
1.4347	3.2387	-0.0681132	0	
1.4353	2.03494	0.544905	0	
1.4360	0.80251	-0.0681132	0	
1.4367	3.2387	-1.88446	0	
1.4373	6.59204	-0.681132	0	
1.4380	4.75774	2.67912	0	
1.4387	0.80251	1.77094	0	
1.4393	0.200627	-0.0681132	0	
1.4400	-0.716527	-0.0681132	0	
1.4407	-3.78326	-0.976289	0	
1.4413	-4.98702	-0.976289	0	
1.4420	-2.55083	0.862767	0	
1.4427	-1.63368	0.249748	0	
1.4433	-3.46799	-0.681132	0	
1.4440	-4.38514	1.77094	0	
1.4447	-2.86611	1.15792	0	
1.4453	-2.86611	-2.81534	0	
1.4460	-5.3023	-1.88446	0	
1.4467	-6.21945	1.77094	0	
1.4473	-4.38514	1.77094	0	
1.4480	-0.716527	1.77094	0	
1.4487	1.71966	2.67912	0	
1.4493	2.03494	-0.0681132	0	
1.4500	3.2387	-1.29415	0	
1.4507	7.5092	1.15792	0	
1.4513	8.42635	2.0661	0	
1.4520	3.55397	-1.29415	0	
1.4527	2.03494	-3.72352	0	
1.4533	6.30543	-2.49748	0	
1.4540	8.42635	-0.681132	0	
1.4547	6.30543	-2.81534	0	
1.4553	1.40439	-4.94956	0	
1.4560	-2.55083	-3.1105	0	
1.4567	-2.86611	-0.681132	0	
1.4573	-3.46799	-0.0681132	0	
1.4580	-6.21945	0.249748	0	
1.4587	-4.98702	-0.0681132	0	
1.4593	-1.63368	-0.976289	0	
1.4600	-3.46799	-0.36327	0	
1.4607	-4.06987	-0.36327	0	
1.4613	-1.31841	-3.1105	0	
1.4620	-1.94895	-3.1105	0	
1.4627	-4.06987	-1.29415	0	
1.4633	-2.55083	-1.88446	0	
1.4640	-1.63368	-2.81534	0	
1.4647	-0.429916	-1.58931	0	
1.4653	2.03494	-1.58931	0	
1.4660	2.32155	-1.88446	0	
1.4667	1.71966	-0.976289	0	
1.4673	-0.114644	-0.976289	0	
1.4680	-2.55083	-1.88446	0	
1.4687	-2.55083	-0.976289	0	
1.4693	-1.63368	-1.29415	0	
1.4700	-1.94895	-1.88446	0	
1.4707	-1.0318	0.862767	0	
1.4713	1.11778	1.77094	0	
1.4720	0.80251	-0.0681132	0	
1.4727	-0.716527	-0.36327	0	
1.4733	-1.0318	-0.36327	0	
1.4740	-0.716527	-2.81534	0	
1.4747	2.03494	-2.49748	0	
1.4753	4.47113	-0.0681132	0	
1.4760	2.63682	0.249748	0	
1.4767	1.11778	-1.29415	0	
1.4773	0.80251	-1.58931	0	
1.4780	0.200627	-1.29415	0	
1.4787	0.200627	-1.58931	0	
1.4793	0.487238	-1.58931	0	
1.4800	-1.31841	-1.88446	0	
1.4807	-2.23556	-1.29415	0	
1.4813	-0.716527	-0.36327	0	
1.4820	0.200627	-0.0681132	0	
1.4827	-0.716527	-0.681132	0	
1.4833	-1.94895	-1.58931	0	
1.4840	-3.78326	-2.81534	0	
1.4847	-4.70041	-0.976289	0	
1.4853	-3.46799	2.99698	0	
1.4860	-1.94895	2.67912	0	
1.4867	-1.94895	0.862767	0	
1.4873	-2.55083	1.77094	0	
1.4880	-1.94895	2.38396	0	
1.4887	0.487238	0.544905	0	
1.4893	1.11778	-0.36327	0	
1.4900	-0.716527	-0.36327	0	
1.4907	-0.716527	-0.0681132	0	
1.4913	2.03494	-0.0681132	0	
1.4920	3.86924	-0.681132	0	
1.4927	3.86924	-1.88446	0	
1.4933	2.95209	-2.81534	0	
1.4940	0.80251	-1.88446	0	
1.4947	2.03494	-0.976289	0	
1.4953	8.13974	0.249748	0	
1.4960	9.0569	0.544905	0	
1.4967	4.47113	-1.58931	0	
1.4973	4.75774	-2.81534	0	
1.4980	5.67489	-0.0681132	0	
1.4987	1.71966	2.38396	0	
1.4993	-2.23556	-0.0681132	0	
1.5000	-3.46799	-0.976289	0	
1.5007	-4.06987	2.99698	0	
1.5013	-3.15272	2.99698	0	
1.5020	-6.21945	0.249748	0	
1.5027	-12.6109	-0.0681132	0	
1.5033	-13.528	0.249748	0	
1.5040	-9.25752	-0.976289	0	
1.5047	-6.50606	-0.0681132	0	
1.5053	-6.21945	1.45308	0	
1.5060	-7.73849	0.249748	0	
1.5067	-10.4899	-0.976289	0	
1.5073	-9.88807	-0.36327	0	
1.5080	-6.82133	-0.0681132	0	
1.5087	-5.3023	-0.976289	0	
1.5093	-6.50606	-2.81534	0	
1.5100	-8.34037	-1.88446	0	
1.5107	-8.65564	1.77094	0	
1.5113	-2.55083	2.99698	0	
1.5120	4.47113	-0.0681132	0	
1.5127	5.67489	-0.976289	0	
1.5133	2.03494	0.862767	0	
1.5140	1.11778	-0.36327	0	
1.5147	4.47113	-2.81534	0	
1.5153	6.59204	-1.88446	0	
1.5160	4.75774	-0.0681132	0	
1.5167	3.55397	-0.976289	0	
1.5173	3.2387	-2.81534	0	
1.5180	5.07301	-2.81534	0	
1.5187	6.90732	-0.36327	0	
1.5193	3.86924	0.249748	0	
1.5200	0.200627	-0.976289	0	
1.5207	0.80251	-0.976289	0	
1.5213	0.200627	0.862767	0	
1.5220	-3.46799	0.544905	0	
1.5227	-4.98702	-0.36327	0	
1.5233	-6.21945	-0.0681132	0	
1.5240	-8.97091	0.249748	0	
1.5247	-8.34037	1.15792	0	
1.5253	-5.3023	2.38396	0	
1.5260	-3.78326	1.45308	0	
1.5267	-2.23556	0.544905	0	
1.5273	-0.716527	1.77094	0	
1.5280	0.200627	1.77094	0	
1.5287	1.11778	1.15792	0	
1.5293	2.95209	0.544905	0	
1.5300	4.15585	-1.29415	0	
1.5307	4.47113	-0.976289	0	
1.5313	5.07301	0.544905	0	
1.5320	5.99016	-1.58931	0	
1.5327	5.38828	-3.1105	0	
1.5333	3.55397	-1.29415	0	
1.5340	2.95209	-0.976289	0	
1.5347	1.11778	-1.58931	0	
1.5353	-4.06987	-0.0681132	0	
1.5360	-5.61757	0.544905	0	
1.5367	-2.55083	0.862767	0	
1.5373	-2.23556	2.67912	0	
1.5380	-2.55083	1.77094	0	
1.5387	1.71966	-0.976289	0	
1.5393	2.03494	0.544905	0	
1.5400	-2.55083	3.58729	0	
1.5407	-1.63368	1.45308	0	
1.5413	2.03494	-2.81534	0	
1.5420	1.40439	-2.49748	0	
1.5427	-0.429916	1.45308	0	
1.5433	-0.114644	2.99698	0	
1.5440	0.200627	0.544905	0	
1.5447	-0.716527	-0.681132	0	
1.5453	-2.55083	0.544905	0	
1.5460	-3.46799	0.249748	0	
1.5467	-2.55083	-0.36327	0	
1.5473	-2.55083	0.249748	0	
1.5480	-1.94895	-0.681132	0	
1.5487	0.200627	-2.81534	0	
1.5493	2.03494	-1.88446	0	
1.5500	2.95209	-0.0681132	0	
1.5507	2.03494	-0.976289	0	
1.5513	0.200627	-1.88446	0	
1.5520	2.03494	-0.681132	0	
1.5527	3.2387	0.862767	0	
1.5533	0.487238	0.862767	0	
1.5540	0.80251	-0.976289	0	
1.5547	3.55397	-3.1105	0	
1.5553	1.40439	-3.72352	0	
1.5560	-0.716527	-1.88446	0	
1.5567	1.40439	-0.976289	0	
1.5573	2.03494	-1.29415	0	
1.5580	2.32155	-0.976289	0	
1.5587	3.86924	-1.29415	0	
1.5593	-0.114644	-0.976289	0	
1.5600	-5.3023	0.544905	0	
1.5607	-4.70041	-0.681132	0	
1.5613	-3.46799	-1.88446	0	
1.5620	-4.38514	0.249748	0	
1.5627	-4.98702	0.544905	0	
1.5633	-5.3023	-0.36327	0	
1.5640	-5.90418	2.38396	0	
1.5647	-6.21945	2.38396	0	
1.5653	-9.25752	-0.36327	0	
1.5660	-12.3243	2.67912	0	
1.5667	-12.009	4.20031	0	
1.5673	-12.3243	0.544905	0	
1.5680	-11.6937	0.862767	0	
1.5687	-2.55083	2.67912	0	
1.5693	8.74162	-0.976289	0	
1.5700	10.8625	-1.58931	0	
1.5707	9.0569	0.862767	0	
1.5713	12.095	-0.976289	0	
1.5720	13.0121	-2.49748	0	
1.5727	9.34351	-1.88446	0	
1.5733	8.74162	-1.88446	0	
1.5740	7.22259	-1.88446	0	
1.5747	2.95209	-1.88446	0	
1.5753	2.32155	-1.58931	0	
1.5760	1.40439	0.544905	0	
1.5767	-3.15272	-0.0681132	0	
1.5773	-1.94895	-2.49748	0	
1.5780	0.200627	0.249748	0	
1.5787	-3.46799	2.67912	0	
1.5793	-4.38514	-0.0681132	0	
1.5800	-1.31841	-0.36327	0	
1.5807	-3.46799	0.862767	0	
1.5813	-3.46799	-0.681132	0	
1.5820	0.200627	-0.36327	0	
1.5827	-1.0318	1.77094	0	
1.5833	-2.55083	-0.0681132	0	
1.5840	0.200627	-1.88446	0	
1.5847	2.03494	-0.681132	0	
1.5853	2.32155	0.249748	0	
1.5860	3.86924	0.544905	0	
1.5867	0.200627	0.249748	0	
1.5873	-5.3023	-0.681132	0	
1.5880	-6.50606	-0.36327	0	
1.5887	-6.50606	0.544905	0	
1.5893	-4.38514	-0.36327	0	
1.5900	0.200627	-0.976289	0	
1.5907	-0.429916	-0.36327	0	
1.5913	-6.21945	1.15792	0	
1.5920	-6.50606	2.67912	0	
1.5927	-2.23556	0.544905	0	
1.5933	-1.63368	-2.20233	0	
1.5940	-3.46799	-0.681132	0	
1.5947	-1.63368	0.249748	0	
1.5953	1.71966	-2.81534	0	
1.5960	2.03494	-2.20233	0	
1.5967	-1.0318	1.77094	0	
1.5973	-1.63368	1.15792	0	
1.5980	0.487238	-2.81534	0	
1.5987	1.11778	-3.1105	0	
1.5993	-0.114644	-0.681132	0	
1.6000	-0.114644	0.249748	0	
1.6007	-1.63368	-0.36327	0	
1.6013	-4.06987	-0.0681132	0	
1.6020	-2.86611	1.45308	0	
1.6027	-0.429916	1.45308	0	
1.6033	-1.63368	0.249748	0	
1.6040	-4.38514	0.249748	0	
1.6047	-3.15272	0.862767	0	
1.6053	1.40439	1.77094	0	
1.6060	2.95209	2.38396	0	
1.6067	0.80251	2.67912	0	
1.6073	0.200627	2.67912	0	
1.6080	3.86924	2.67912	0	
1.6087	5.67489	0.862767	0	
1.6093	5.67489	-0.0681132	0	
1.6100	6.59204	0.544905	0	
1.6107	6.59204	-0.976289	0	
1.6113	6.59204	-1.29415	0	
1.6120	6.30543	0.249748	0	
1.6127	0.200627	-0.36327	0	
1.6133	-8.65564	-1.58931	0	
1.6140	-8.05376	-0.36327	0	
1.6147	-0.716527	-2.20233	0	
1.6153	0.200627	-5.56257	0	
1.6160	-1.63368	-3.42836	0	
1.6167	0.200627	1.15792	0	
1.6173	0.200627	2.38396	0	
1.6180	-0.716527	1.45308	0	
1.6187	-0.716527	-0.36327	0	
1.6193	-3.78326	-0.976289	0	
1.6200	-9.25752	0.862767	0	
1.6207	-9.25752	3.29214	0	
1.6213	-6.50606	2.99698	0	
1.6220	-8.65564	1.45308	0	
1.6227	-10.8052	0.862767	0	
1.6233	-10.8052	1.45308	0	
1.6240	-11.0918	0.862767	0	
1.6247	-10.8052	-0.0681132	0	
1.6253	-7.73849	-0.0681132	0	
1.6260	-5.61757	0.249748	0	
1.6267	-4.70041	-0.976289	0	
1.6273	-2.23556	-2.49748	0	
1.6280	2.32155	-2.81534	0	
1.6287	8.42635	-0.976289	0	
1.6293	12.095	1.45308	0	
1.6300	11.7797	0.862767	0	
1.6307	10.5759	-0.976289	0	
1.6313	10.8625	-0.681132	0	
1.6320	10.2607	0.544905	0	
1.6327	8.42635	0.862767	0	
1.6333	5.07301	-0.681132	0	
1.6340	4.15585	-0.976289	0	
1.6347	8.42635	0.862767	0	
1.6353	9.0569	0.862767	0	
1.6360	2.63682	-1.58931	0	
1.6367	-1.63368	-0.36327	0	
1.6373	-0.114644	0.862767	0	
1.6380	0.200627	-2.20233	0	
1.6387	-2.23556	-4.33654	0	
1.6393	-3.46799	-4.04138	0	
1.6400	-1.31841	-4.63169	0	
1.6407	1.11778	-4.04138	0	
1.6413	-1.31841	-0.976289	0	
1.6420	-4.70041	0.544905	0	
1.6427	-2.55083	-0.0681132	0	
1.6433	0.200627	-0.976289	0	
1.6440	1.40439	-0.36327	0	
1.6447	3.55397	0.862767	0	
1.6453	2.95209	1.15792	0	
1.6460	-1.94895	0.862767	0	
1.6467	-1.94895	1.45308	0	
1.6473	2.03494	1.15792	0	
1.6480	2.03494	-1.88446	0	
1.6487	2.32155	-3.1105	0	
1.6493	4.47113	-1.58931	0	
1.6500	4.75774	-1.88446	0	
1.6507	3.2387	-1.29415	0	
1.6513	2.63682	-0.0681132	0	
1.6520	2.32155	-1.88446	0	
1.6527	2.95209	-3.42836	0	
1.6533	5.38828	-0.976289	0	
1.6540	6.90732	-0.36327	0	
1.6547	4.47113	-0.976289	0	
1.6553	-1.63368	-0.36327	0	
1.6560	-5.90418	-1.29415	0	
1.6567	-5.3023	-1.88446	0	
1.6573	-4.70041	-0.36327	0	
1.6580	-4.38514	-0.36327	0	
1.6587	-4.38514	-0.681132	0	
1.6593	-7.1366	-0.0681132	0	
1.6600	-9.88807	-1.88446	0	
1.6607	-9.57279	-1.58931	0	
1.6613	-10.8052	1.77094	0	
1.6620	-11.6937	0.544905	0	
1.6627	-7.73849	-2.49748	0	
1.6633	-6.21945	-0.0681132	0	
1.6640	-8.65564	2.38396	0	
1.6647	-8.05376	0.249748	0	
1.6653	-5.3023	-0.0681132	0	
1.6660	-2.86611	1.77094	0	
1.6667	1.11778	1.77094	0	
1.6673	1.11778	0.862767	0	
1.6680	-2.55083	1.45308	0	
1.6687	-3.15272	0.862767	0	
1.6693	-1.94895	-0.681132	0	
1.6700	-3.15272	-1.88446	0	
1.6707	-3.46799	-0.976289	0	
1.6713	-1.94895	0.862767	0	
1.6720	-0.716527	0.544905	0	
1.6727	1.71966	-0.976289	0	
1.6733	2.03494	0.862767	0	
1.6740	0.200627	2.99698	0	
1.6747	-0.716527	1.45308	0	
1.6753	-0.716527	-0.36327	0	
1.6760	-1.94895	1.15792	0	
1.6767	-2.23556	1.77094	0	
1.6773	-0.716527	0.862767	0	
1.6780	0.200627	1.15792	0	
1.6787	-0.429916	-0.0681132	0	
1.6793	-3.78326	-1.29415	0	
1.6800	-6.50606	1.15792	0	
1.6807	-3.46799	2.38396	0	
1.6813	2.03494	1.15792	0	
1.6820	2.03494	2.67912	0	
1.6827	-1.63368	3.29214	0	
1.6833	-4.70041	1.77094	0	
1.6840	-4.38514	3.58729	0	
1.6847	-1.94895	4.51817	0	
1.6853	-1.63368	-0.0681132	0	
1.6860	-2.55083	-0.976289	0	
1.6867	-3.46799	0.862767	0	
1.6873	-4.38514	1.45308	0	
1.6880	-3.46799	2.67912	0	
1.6887	-0.716527	2.67912	0	
1.6893	0.200627	-1.58931	0	
1.6900	1.71966	-2.20233	0	
1.6907	5.38828	1.15792	0	
1.6913	6.59204	1.77094	0	
1.6920	2.03494	1.15792	0	
1.6927	1.71966	1.77094	0	
1.6933	6.30543	0.249748	0	
1.6940	4.47113	-1.29415	0	
1.6947	-4.38514	1.77094	0	
1.6953	-7.42321	2.99698	0	
1.6960	-2.55083	-0.976289	0	
1.6967	-0.114644	-4.04138	0	
1.6973	0.200627	-3.42836	0	
1.6980	1.40439	-0.976289	0	
1.6987	2.63682	-0.36327	0	
1.6993	3.86924	-0.0681132	0	
1.7000	3.86924	0.249748	0	
1.7007	1.71966	-0.0681132	0	
1.7013	-1.31841	-0.0681132	0	
1.7020	-1.0318	2.67912	0	
1.7027	0.200627	3.29214	0	
1.7033	-0.114644	-0.0681132	0	
1.7040	-0.716527	-3.1105	0	
1.7047	-1.31841	-1.58931	0	
1.7053	-1.0318	2.38396	0	
1.7060	-1.31841	2.99698	0	
1.7067	-1.31841	1.15792	0	
1.7073	0.80251	0.544905	0	
1.7080	2.03494	-0.36327	0	
1.7087	-0.716527	-1.88446	0	
1.7093	-2.55083	-0.976289	0	
1.7100	-0.716527	-0.36327	0	
1.7107	0.487238	-0.976289	0	
1.7113	0.200627	0.544905	0	
1.7120	0.200627	1.77094	0	
1.7127	0.200627	0.249748	0	
1.7133	1.11778	-0.976289	0	
1.7140	5.07301	-0.0681132	0	
1.7147	8.13974	0.544905	0	
1.7153	5.67489	0.862767	0	
1.7160	3.55397	0.544905	0	
1.7167	5.07301	-0.976289	0	
1.7173	5.99016	-3.1105	0	
1.7180	4.47113	-3.72352	0	
1.7187	2.32155	-2.81534	0	
1.7193	-0.716527	-1.88446	0	
1.7200	-4.98702	-1.88446	0	
1.7207	-8.65564	0.249748	0	
1.7213	-11.6937	0.862767	0	
1.7220	-11.0918	-1.88446	0	
1.7227	-8.05376	-2.81534	0	
1.7233	-10.1747	-0.976289	0	
1.7240	-12.6109	-0.976289	0	
1.7247	-8.05376	-0.36327	0	
1.7253	-2.55083	0.862767	0	
1.7260	-0.429916	-0.36327	0	
1.7267	3.2387	-0.36327	0	
1.7273	6.90732	2.38396	0	
1.7280	6.30543	1.77094	0	
1.7287	6.59204	-0.976289	0	
1.7293	7.5092	-1.88446	0	
1.7300	5.99016	-2.81534	0	
1.7307	2.63682	-3.72352	0	
1.7313	-1.94895	-3.72352	0	
1.7320	-5.3023	-2.81534	0	
1.7327	-3.15272	-0.976289	0	
1.7333	2.63682	-0.976289	0	
1.7340	6.30543	-3.72352	0	
1.7347	6.90732	-0.976289	0	
1.7353	5.99016	3.90515	0	
1.7360	4.75774	2.38396	0	
1.7367	0.80251	-2.20233	0	
1.7373	-7.73849	-2.20233	0	
1.7380	-12.009	-0.976289	0	
1.7387	-10.1747	-0.0681132	0	
1.7393	-10.1747	3.58729	0	
1.7400	-12.009	4.51817	0	
1.7407	-9.88807	1.45308	0	
1.7413	-6.82133	1.15792	0	
1.7420	-7.42321	1.45308	0	
1.7427	-9.57279	-1.58931	0	
1.7433	-8.05376	-2.49748	0	
1.7440	-3.15272	-0.681132	0	
1.7447	-1.63368	-1.29415	0	
1.7453	-5.61757	-2.81534	0	
1.7460	-3.15272	-1.88446	0	
1.7467	4.15585	-0.681132	0	
1.7473	3.55397	-0.976289	0	
1.7480	0.80251	-1.58931	0	
1.7487	6.30543	-2.20233	0	
1.7493	10.8625	-2.81534	0	
1.7500	9.0569	-1.29415	0	
1.7507	8.42635	1.77094	0	
1.7513	8.42635	1.45308	0	
1.7520	3.2387	-0.681132	0	
1.7527	1.11778	-1.58931	0	
1.7533	2.63682	-1.88446	0	
1.7540	0.200627	-1.88446	0	
1.7547	-3.78326	-0.36327	0	
1.7553	-1.63368	0.249748	0	
1.7560	0.487238	-2.20233	0	
1.7567	-1.94895	-2.49748	0	
1.7573	-4.38514	1.45308	0	
1.7580	-4.70041	3.58729	0	
1.7587	-7.1366	1.77094	0	
1.7593	-8.34037	-0.0681132	0	
1.7600	-6.21945	-0.0681132	0	
1.7607	-6.21945	-0.36327	0	
1.7613	-8.97091	-0.0681132	0	
1.7620	-8.97091	1.77094	0	
1.7627	-8.34037	2.67912	0	
1.7633	-9.25752	-0.0681132	0	
1.7640	-7.73849	-1.88446	0	
1.7647	-2.86611	-0.36327	0	
1.7653	0.80251	1.77094	0	
1.7660	2.03494	0.544905	0	
1.7667	3.2387	-1.29415	0	
1.7673	2.32155	-0.36327	0	
1.7680	-0.429916	0.544905	0	
1.7687	-1.63368	-0.0681132	0	
1.7693	0.80251	-0.0681132	0	
1.7700	3.86924	-0.0681132	0	
1.7707	5.07301	-1.88446	0	
1.7713	6.59204	-3.1105	0	
1.7720	7.22259	-3.1105	0	
1.7727	5.38828	-2.81534	0	
1.7733	5.07301	-2.81534	0	
1.7740	7.5092	-2.49748	0	
1.7747	6.90732	-1.58931	0	
1.7753	3.86924	0.249748	0	
1.7760	2.32155	-1.58931	0	
1.7767	2.95209	-4.94956	0	
1.7773	4.15585	-3.72352	0	
1.7780	4.75774	-0.681132	0	
1.7787	2.03494	-0.976289	0	
1.7793	-1.94895	-0.976289	0	
1.7800	-3.78326	1.45308	0	
1.7807	-4.38514	2.0661	0	
1.7813	-4.98702	-0.0681132	0	
1.7820	-7.1366	-1.58931	0	
1.7827	-7.1366	-0.0681132	0	
1.7833	-1.63368	1.45308	0	
1.7840	3.55397	0.862767	0	
1.7847	2.03494	0.544905	0	
1.7853	-1.63368	0.544905	0	
1.7860	-0.429916	-0.976289	0	
1.7867	1.11778	-0.976289	0	
1.7873	-1.0318	1.15792	0	
1.7880	-0.716527	0.862767	0	
1.7887	2.63682	-0.36327	0	
1.7893	2.03494	-0.0681132	0	
1.7900	0.200627	-0.0681132	0	
1.7907	1.11778	-0.0681132	0	
1.7913	0.487238	1.15792	0	
1.7920	-1.63368	1.77094	0	
1.7927	-0.114644	-0.976289	0	
1.7933	1.11778	-2.81534	0	
1.7940	-0.716527	-1.88446	0	
1.7947	-0.716527	-0.976289	0	
1.7953	-1.31841	-1.29415	0	
1.7960	-3.78326	-0.976289	0	
1.7967	-2.86611	-0.976289	0	
1.7973	-2.86611	-1.88446	0	
1.7980	-7.1366	-1.88446	0	
1.7987	-5.3023	-0.681132	0	
1.7993	-0.716527	-0.681132	0	
1.8000	-3.15272	-0.976289	0	
1.8007	-7.1366	-1.29415	0	
1.8013	-6.21945	-1.29415	0	
1.8020	-4.70041	-0.976289	0	
1.8027	-3.78326	-0.0681132	0	
1.8033	-2.23556	-0.0681132	0	
1.8040	-3.15272	-0.681132	0	
1.8047	-2.86611	-1.58931	0	
1.8053	-0.114644	-1.29415	0	
1.8060	-0.716527	-0.681132	0	
1.8067	-3.46799	-1.29415	0	
1.8073	-2.23556	-0.976289	0	
1.8080	0.487238	2.67912	0	
1.8087	-0.429916	4.51817	0	
1.8093	-2.55083	2.38396	0	
1.8100	-1.94895	-0.976289	0	
1.8107	0.200627	-0.0681132	0	
1.8113	0.200627	2.38396	0	
1.8120	-1.94895	1.77094	0	
1.8127	-2.55083	-0.0681132	0	
1.8133	-1.94895	-0.0681132	0	
1.8140	-2.55083	-0.0681132	0	
1.8147	-2.23556	-0.976289	0	
1.8153	0.200627	-0.976289	0	
1.8160	3.86924	-0.36327	0	
1.8167	5.07301	-0.681132	0	
1.8173	2.03494	0.862767	0	
1.8180	0.80251	0.249748	0	
1.8187	4.75774	-2.20233	0	
1.8193	5.67489	-0.681132	0	
1.8200	2.32155	2.67912	0	
1.8207	2.32155	0.862767	0	
1.8213	4.47113	-1.88446	0	
1.8220	3.86924	-0.976289	0	
1.8227	2.95209	0.249748	0	
1.8233	2.03494	0.862767	0	
1.8240	-0.716527	0.862767	0	
1.8247	-2.23556	-0.0681132	0	
1.8253	-4.38514	-0.976289	0	
1.8260	-9.57279	-0.976289	0	
1.8267	-13.528	-0.0681132	0	
1.8273	-12.6109	1.15792	0	
1.8280	-9.88807	1.77094	0	
1.8287	-6.21945	0.862767	0	
1.8293	-2.55083	-1.88446	0	
1.8300	-1.63368	-2.81534	0	
1.8307	-1.31841	0.544905	0	
1.8313	2.03494	2.67912	0	
1.8320	4.75774	0.544905	0	
1.8327	2.95209	0.862767	0	
1.8333	1.11778	2.38396	0	
1.8340	4.75774	-0.976289	0	
1.8347	7.22259	-2.81534	0	
1.8353	3.55397	1.15792	0	
1.8360	-0.716527	2.0661	0	
1.8367	-3.46799	-1.88446	0	
1.8373	-6.50606	-1.88446	0	
1.8380	-7.73849	1.77094	0	
1.8387	-5.61757	2.67912	0	
1.8393	-6.21945	0.862767	0	
1.8400	-8.65564	0.862767	0	
1.8407	-7.73849	0.862767	0	
1.8413	-5.90418	-0.36327	0	
1.8420	-6.82133	0.249748	0	
1.8427	-8.65564	2.0661	0	
1.8433	-8.05376	1.77094	0	
1.8440	-4.98702	0.249748	0	
1.8447	-1.0318	1.15792	0	
1.8453	0.487238	1.77094	0	
1.8460	0.80251	1.45308	0	
1.8467	1.11778	2.0661	0	
1.8473	0.200627	1.77094	0	
1.8480	-0.114644	-0.36327	0	
1.8487	1.71966	-1.29415	0	
1.8493	2.95209	-3.42836	0	
1.8500	2.03494	-5.56257	0	
1.8507	2.03494	-2.49748	0	
1.8513	2.32155	1.77094	0	
1.8520	2.03494	0.862767	0	
1.8527	2.95209	-0.36327	0	
1.8533	2.03494	-0.0681132	0	
1.8540	-0.716527	-2.20233	0	
1.8547	-1.63368	-2.81534	0	
1.8553	-1.63368	-0.36327	0	
1.8560	-3.78326	0.862767	0	
1.8567	-5.3023	-0.0681132	0	
1.8573	-6.50606	-1.58931	0	
1.8580	-9.88807	-2.49748	0	
1.8587	-10.8052	-0.36327	0	
1.8593	-6.21945	2.67912	0	
1.8600	-2.23556	1.15792	0	
1.8607	-1.63368	-0.681132	0	
1.8613	-2.55083	1.15792	0	
1.8620	-3.15272	1.77094	0	
1.8627	-2.23556	0.249748	0	
1.8633	1.11778	-0.36327	0	
1.8640	2.63682	-0.976289	0	
1.8647	2.63682	-0.36327	0	
1.8653	4.15585	0.862767	0	
1.8660	6.59204	0.249748	0	
1.8667	7.22259	-1.58931	0	
1.8673	6.30543	-1.88446	0	
1.8680	4.15585	-1.88446	0	
1.8687	2.63682	-1.88446	0	
1.8693	3.86924	-1.58931	0	
1.8700	5.38828	-1.88446	0	
1.8707	5.67489	-3.72352	0	
1.8713	6.59204	-2.81534	0	
1.8720	6.30543	-0.0681132	0	
1.8727	3.2387	-1.58931	0	
1.8733	4.75774	-3.72352	0	
1.8740	9.34351	-0.681132	0	
1.8747	8.74162	1.45308	0	
1.8753	5.38828	-0.976289	0	
1.8760	4.75774	-1.58931	0	
1.8767	4.47113	0.862767	0	
1.8773	4.15585	-0.681132	0	
1.8780	4.75774	-2.81534	0	
1.8787	3.86924	-2.81534	0	
1.8793	0.80251	-1.88446	0	
1.8800	-0.716527	-0.36327	0	
1.8807	0.80251	1.45308	0	
1.8813	2.32155	1.45308	0	
1.8820	1.11778	1.77094	0	
1.8827	-2.23556	2.67912	0	
1.8833	-3.46799	2.67912	0	
1.8840	-2.55083	3.58729	0	
1.8847	-1.63368	2.99698	0	
1.8853	-0.716527	-0.36327	0	
1.8860	-0.716527	-1.29415	0	
1.8867	-1.31841	-1.88446	0	
1.8873	-0.716527	-3.72352	0	
1.8880	-0.114644	-1.88446	0	
1.8887	-0.429916	2.67912	0	
1.8893	0.200627	2.0661	0	
1.8900	-1.63368	-0.0681132	0	
1.8907	-5.3023	-0.0681132	0	
1.8913	-3.46799	-0.36327	0	
1.8920	-0.429916	-2.20233	0	
1.8927	-1.94895	-3.42836	0	
1.8933	-2.23556	-2.20233	0	
1.8940	1.11778	0.862767	0	
1.8947	2.03494	0.862767	0	
1.8953	-1.0318	-1.88446	0	
1.8960	-3.46799	-2.81534	0	
1.8967	-3.46799	-2.20233	0	
1.8973	-2.55083	-0.976289	0	
1.8980	-3.78326	1.15792	0	
1.8987	-5.90418	1.77094	0	
1.8993	-5.3023	-0.0681132	0	
1.9000	-4.70041	-1.88446	0	
1.9007	-6.50606	-3.72352	0	
1.9013	-5.90418	-3.72352	0	
1.9020	-1.63368	0.544905	0	
1.9027	0.200627	0.862767	0	
1.9033	-0.429916	-2.81534	0	
1.9040	-0.716527	-1.58931	0	
1.9047	-2.55083	1.77094	0	
1.9053	-4.38514	0.544905	0	
1.9060	-2.55083	0.544905	0	
1.9067	-1.94895	3.29214	0	
1.9073	-4.38514	2.67912	0	
1.9080	-4.38514	-0.0681132	0	
1.9087	0.487238	-0.36327	0	
1.9093	4.47113	-0.0681132	0	
1.9100	3.55397	-0.0681132	0	
1.9107	2.03494	-1.29415	0	
1.9113	2.03494	-2.81534	0	
1.9120	2.03494	-2.81534	0	
1.9127	1.11778	-0.976289	0	
1.9133	0.200627	0.862767	0	
1.9140	0.200627	0.862767	0	
1.9147	1.40439	-1.29415	0	
1.9153	2.03494	-1.58931	0	
1.9160	2.63682	2.0661	0	
1.9167	3.86924	2.0661	0	
1.9173	5.67489	-1.88446	0	
1.9180	6.30543	-2.49748	0	
1.9187	5.67489	-0.0681132	0	
1.9193	2.03494	0.862767	0	
1.9200	-4.38514	-0.0681132	0	
1.9207	-9.25752	-1.58931	0	
1.9213	-7.1366	-2.20233	0	
1.9220	-3.46799	-1.88446	0	
1.9227	-5.3023	-1.88446	0	
1.9233	-7.73849	-0.0681132	0	
1.9240	-6.21945	2.38396	0	
1.9247	-4.38514	1.77094	0	
1.9253	-3.46799	1.77094	0	
1.9260	-1.0318	2.38396	0	
1.9267	1.11778	1.15792	0	
1.9273	0.200627	2.67912	0	
1.9280	-1.0318	4.51817	0	
1.9287	-1.63368	1.77094	0	
1.9293	-3.46799	0.544905	0	
1.9300	-5.90418	0.862767	0	
1.9307	-6.21945	-2.20233	0	
1.9313	-4.38514	-3.1105	0	
1.9320	-2.55083	0.544905	0	
1.9327	-2.55083	0.249748	0	
1.9333	-3.15272	-0.681132	0	
1.9340	-3.15272	0.862767	0	
1.9347	-3.78326	-1.58931	0	
1.9353	-2.86611	-4.63169	0	
1.9360	1.11778	-1.88446	0	
1.9367	3.55397	-0.976289	0	
1.9373	1.11778	-3.42836	0	
1.9380	-1.94895	-1.88446	0	
1.9387	-2.86611	0.544905	0	
1.9393	-2.23556	0.544905	0	
1.9400	-2.55083	-0.0681132	0	
1.9407	-4.98702	-2.20233	0	
1.9413	-6.21945	-3.1105	0	
1.9420	-5.61757	-0.36327	0	
1.9427	-5.61757	0.862767	0	
1.9433	-5.61757	0.862767	0	
1.9440	-6.21945	3.58729	0	
1.9447	-7.73849	2.99698	0	
1.9453	-3.15272	-1.58931	0	
1.9460	6.59204	-2.81534	0	
1.9467	10.5759	-0.976289	0	
1.9473	6.30543	-0.681132	0	
1.9480	2.03494	-0.0681132	0	
1.9487	2.32155	0.862767	0	
1.9493	4.15585	-0.0681132	0	
1.9500	4.15585	-0.0681132	0	
1.9507	3.55397	0.249748	0	
1.9513	5.38828	-0.0681132	0	
1.9520	6.90732	-0.0681132	0	
1.9527	4.47113	-0.681132	0	
1.9533	2.03494	-0.976289	0	
1.9540	3.86924	0.862767	0	
1.9547	5.99016	1.77094	0	
1.9553	5.99016	0.862767	0	
1.9560	6.30543	0.862767	0	
1.9567	8.42635	-1.58931	0	
1.9573	10.2607	-2.81534	0	
1.9580	8.42635	1.45308	0	
1.9587	5.99016	2.99698	0	
1.9593	5.67489	-1.29415	0	
1.9600	2.03494	-1.58931	0	
1.9607	-6.21945	-0.36327	0	
1.9613	-11.4071	-3.72352	0	
1.9620	-12.9261	-1.58931	0	
1.9627	-15.3623	4.20031	0	
1.9633	-16.91	1.77094	0	
1.9640	-16.2795	-1.88446	0	
1.9647	-15.9929	1.77094	0	
1.9653	-15.3623	4.81333	0	
1.9660	-12.009	3.58729	0	
1.9667	-6.82133	2.67912	0	
1.9673	-3.15272	4.51817	0	
1.9680	-2.55083	3.58729	0	
1.9687	-2.23556	-0.0681132	0	
1.9693	-0.114644	-1.29415	0	
1.9700	-1.0318	0.249748	0	
1.9707	-3.46799	-1.58931	0	
1.9713	0.200627	-4.94956	0	
1.9720	4.75774	-3.72352	0	
1.9727	3.86924	-0.681132	0	
1.9733	3.55397	-0.681132	0	
1.9740	5.07301	-1.88446	0	
1.9747	2.03494	-1.29415	0	
1.9753	-2.23556	0.249748	0	
1.9760	-1.0318	0.862767	0	
1.9767	0.200627	0.544905	0	
1.9773	-0.716527	0.862767	0	
1.9780	0.200627	1.45308	0	
1.9787	0.487238	0.544905	0	
1.9793	-0.716527	-0.0681132	0	
1.9800	0.200627	-0.36327	0	
1.9807	-0.716527	-0.36327	0	
1.9813	-4.70041	0.862767	0	
1.9820	-4.06987	0.862767	0	
1.9827	-2.23556	-1.29415	0	
1.9833	-4.98702	-0.36327	0	
1.9840	-4.70041	2.67912	0	
1.9847	0.200627	2.0661	0	
1.9853	2.03494	0.862767	0	
1.9860	1.71966	0.862767	0	
1.9867	1.71966	1.77094	0	
1.9873	-0.716527	1.77094	0	
1.9880	-3.46799	0.862767	0	
1.9887	-3.46799	0.544905	0	
1.9893	-4.38514	3.58729	0	
1.9900	-5.3023	3.58729	0	
1.9907	-3.46799	-0.976289	0	
1.9913	-3.46799	-1.88446	0	
1.9920	-4.38514	0.862767	0	
1.9927	-1.63368	1.45308	0	
1.9933	-1.63368	0.249748	0	
1.9940	-2.55083	-0.36327	0	
1.9947	2.95209	-0.36327	0	
1.9953	8.13974	0.544905	0	
1.9960	5.99016	0.544905	0	
1.9967	3.55397	-0.976289	0	
1.9973	3.2387	-1.88446	0	
1.9980	2.95209	-0.976289	0	
1.9987	2.63682	-0.976289	0	
1.9993	1.71966	-1.29415	0	
2.0000	1.40439	-0.976289	0	
2.0007	3.2387	-0.36327	0	
2.0013	2.95209	-0.0681132	0	
2.0020	-0.114644	-0.36327	0	
2.0027	-0.429916	-0.0681132	0	
2.0033	1.71966	1.15792	0	
2.0040	1.40439	1.77094	0	
2.0047	-0.716527	1.45308	0	
2.0053	-2.86611	1.77094	0	
2.0060	-1.63368	1.77094	0	
2.0067	1.71966	0.862767	0	
2.0073	-1.0318	-0.0681132	0	
2.0080	-5.3023	0.544905	0	
2.0087	-1.63368	0.862767	0	
2.0093	2.03494	-0.0681132	0	
2.0100	0.200627	-0.36327	0	
2.0107	0.80251	-0.36327	0	
2.0113	5.38828	-0.976289	0	
2.0120	4.75774	-1.58931	0	
2.0127	2.03494	-0.681132	0	
2.0133	4.15585	-0.36327	0	
2.0140	6.90732	-0.681132	0	
2.0147	5.38828	0.249748	0	
2.0153	4.75774	-0.36327	0	
2.0160	5.38828	-2.20233	0	
2.0167	4.15585	-1.88446	0	
2.0173	3.86924	-0.681132	0	
2.0180	6.30543	-1.88446	0	
2.0187	7.82447	-2.81534	0	
2.0193	5.67489	-0.681132	0	
2.0200	2.63682	0.862767	0	
2.0207	1.11778	-0.0681132	0	
2.0213	0.200627	-0.976289	0	
2.0220	-0.716527	-0.0681132	0	
2.0227	-2.55083	0.862767	0	
2.0233	-3.46799	0.544905	0	
2.0240	-3.46799	-0.976289	0	
2.0247	-4.98702	-0.36327	0	
2.0253	-7.73849	0.862767	0	
2.0260	-7.42321	0.544905	0	
2.0267	-5.90418	0.544905	0	
2.0273	-5.3023	2.38396	0	
2.0280	-2.86611	2.67912	0	
2.0287	0.487238	0.862767	0	
2.0293	1.11778	0.249748	0	
2.0300	1.40439	0.249748	0	
2.0307	2.03494	-1.29415	0	
2.0313	0.487238	-2.49748	0	
2.0320	-0.114644	-0.976289	0	
2.0327	2.95209	-0.36327	0	
2.0333	3.86924	-1.29415	0	
2.0340	2.03494	-1.58931	0	
2.0347	2.03494	-1.58931	0	
2.0353	2.32155	-1.29415	0	
2.0360	2.95209	-0.0681132	0	
2.0367	4.75774	-0.976289	0	
2.0373	4.75774	-3.42836	0	
2.0380	0.487238	-2.20233	0	
2.0387	-2.23556	-0.681132	0	
2.0393	-1.94895	-2.20233	0	
2.0400	-2.55083	-1.88446	0	
2.0407	-3.46799	-0.976289	0	
2.0413	-3.15272	-3.72352	0	
2.0420	-2.86611	-4.33654	0	
2.0427	-3.15272	-0.0681132	0	
2.0433	-1.63368	0.862767	0	
2.0440	0.487238	-1.58931	0	
2.0447	-1.0318	-0.36327	0	
2.0453	-4.38514	1.77094	0	
2.0460	-4.06987	0.544905	0	
2.0467	-2.86611	-0.681132	0	
2.0473	-4.06987	-0.36327	0	
2.0480	-2.55083	-0.681132	0	
2.0487	2.32155	-0.976289	0	
2.0493	4.75774	-1.58931	0	
2.0500	2.95209	-0.976289	0	
2.0507	1.71966	0.862767	0	
2.0513	0.80251	0.544905	0	
2.0520	-0.429916	-1.58931	0	
2.0527	2.03494	-0.0681132	0	
2.0533	6.59204	1.15792	0	
2.0540	7.5092	-0.976289	0	
2.0547	5.67489	-1.88446	0	
2.0553	5.07301	-1.29415	0	
2.0560	5.99016	-2.81534	0	
2.0567	6.59204	-1.88446	0	
2.0573	5.07301	-0.0681132	0	
2.0580	2.03494	-1.29415	0	
2.0587	-2.86611	-1.88446	0	
2.0593	-8.05376	0.862767	0	
2.0600	-15.6776	0.862767	0	
2.0607	-21.7824	-1.58931	0	
2.0613	-21.1805	-0.36327	0	
2.0620	-19.0309	1.45308	0	
2.0627	-16.5948	-0.0681132	0	
2.0633	-9.88807	-0.681132	0	
2.0640	-3.15272	2.67912	0	
2.0647	-3.78326	4.20031	0	
2.0653	-6.82133	1.77094	0	
2.0660	-6.21945	1.45308	0	
2.0667	-5.3023	2.67912	0	
2.0673	-5.3023	1.15792	0	
2.0680	-5.3023	-0.681132	0	
2.0687	-4.38514	-0.681132	0	
2.0693	-2.55083	0.544905	0	
2.0700	-1.63368	0.862767	0	
2.0707	-0.716527	-0.0681132	0	
2.0713	3.2387	-1.88446	0	
2.0720	8.13974	-0.36327	0	
2.0727	7.5092	-0.0681132	0	
2.0733	3.55397	-1.29415	0	
2.0740	2.63682	-0.976289	0	
2.0747	3.86924	1.15792	0	
2.0753	3.86924	1.15792	0	
2.0760	1.71966	-0.0681132	0	
2.0767	-1.0318	0.544905	0	
2.0773	-1.94895	0.862767	0	
2.0780	-1.63368	0.249748	0	
2.0787	-1.63368	-0.0681132	0	
2.0793	-1.94895	0.862767	0	
2.0800	-2.86611	2.67912	0	
2.0807	-3.46799	3.58729	0	
2.0813	-2.23556	3.58729	0	
2.0820	-1.63368	2.67912	0	
2.0827	-3.15272	0.544905	0	
2.0833	-4.98702	0.862767	0	
2.0840	-4.38514	2.67912	0	
2.0847	-3.78326	2.67912	0	
2.0853	-3.78326	2.0661	0	
2.0860	-3.78326	1.77094	0	
2.0867	-2.55083	-0.0681132	0	
2.0873	-0.429916	-0.0681132	0	
2.0880	1.11778	2.67912	0	
2.0887	1.40439	0.544905	0	
2.0893	2.63682	-3.72352	0	
2.0900	4.75774	-2.81534	0	
2.0907	4.75774	-0.0681132	0	
2.0913	2.03494	-1.58931	0	
2.0920	0.200627	-3.72352	0	
2.0927	0.487238	-3.1105	0	
2.0933	1.71966	-3.1105	0	
2.0940	1.11778	-3.42836	0	
2.0947	0.487238	-1.88446	0	
2.0953	1.40439	-0.976289	0	
2.0960	2.63682	-2.49748	0	
2.0967	3.86924	-4.63169	0	
2.0973	5.67489	-4.04138	0	
2.0980	7.5092	-0.681132	0	
2.0987	8.13974	0.544905	0	
2.0993	6.59204	-1.29415	0	
2.1000	4.75774	-0.36327	0	
2.1007	3.55397	0.862767	0	
2.1013	1.40439	-2.20233	0	
2.1020	-1.63368	-2.20233	0	
2.1027	-0.716527	-0.0681132	0	
2.1033	1.71966	-2.20233	0	
2.1040	0.80251	-2.81534	0	
2.1047	-1.63368	0.862767	0	
2.1053	0.80251	0.249748	0	
2.1060	3.2387	-2.20233	0	
2.1067	2.03494	-1.58931	0	
2.1073	1.40439	-2.81534	0	
2.1080	1.40439	-4.33654	0	
2.1087	-2.86611	-2.20233	0	
2.1093	-8.05376	-0.0681132	0	
2.1100	-6.21945	0.544905	0	
2.1107	-1.94895	-0.0681132	0	
2.1113	-3.46799	-0.976289	0	
2.1120	-3.78326	-0.0681132	0	
2.1127	0.80251	1.15792	0	
2.1133	2.32155	-1.88446	0	
2.1140	-0.716527	-3.72352	0	
2.1147	-1.63368	-0.976289	0	
2.1153	-0.114644	-0.0681132	0	
2.1160	-0.114644	-2.20233	0	
2.1167	1.11778	-0.976289	0	
2.1173	3.86924	1.45308	0	
2.1180	3.2387	-0.0681132	0	
2.1187	-1.0318	-2.81534	0	
2.1193	-1.94895	-2.81534	0	
2.1200	0.487238	-1.29415	0	
2.1207	1.11778	-0.976289	0	
2.1213	0.487238	-1.88446	0	
2.1220	0.200627	-1.88446	0	
2.1227	-0.716527	-0.36327	0	
2.1233	-1.63368	-0.0681132	0	
2.1240	-1.94895	-0.681132	0	
2.1247	-1.63368	0.249748	0	
2.1253	0.200627	0.544905	0	
2.1260	2.03494	0.862767	0	
2.1267	2.03494	2.67912	0	
2.1273	2.32155	3.29214	0	
2.1280	1.40439	1.15792	0	
2.1287	-1.0318	0.249748	0	
2.1293	-1.94895	-0.36327	0	
2.1300	-2.86611	-1.58931	0	
2.1307	-4.98702	-1.88446	0	
2.1313	-2.86611	-2.20233	0	
2.1320	1.11778	-1.58931	0	
2.1327	1.11778	0.544905	0	
2.1333	-0.716527	1.15792	0	
2.1340	-2.55083	-0.0681132	0	
2.1347	-5.3023	-0.0681132	0	
2.1353	-6.21945	0.249748	0	
2.1360	-7.1366	-0.976289	0	
2.1367	-13.8433	-1.58931	0	
2.1373	-19.9481	-1.88446	0	
2.1380	-18.4291	-1.88446	0	
2.1387	-13.528	0.862767	0	
2.1393	-8.97091	0.862767	0	
2.1400	-4.38514	-3.42836	0	
2.1407	-1.94895	-3.42836	0	
2.1413	-2.55083	-0.0681132	0	
2.1420	-3.78326	0.249748	0	
2.1427	-2.55083	-0.0681132	0	
2.1433	0.200627	0.862767	0	
2.1440	1.40439	-0.0681132	0	
2.1447	1.11778	0.862767	0	
2.1453	0.487238	2.99698	0	
2.1460	1.71966	0.862767	0	
2.1467	4.15585	-1.29415	0	
2.1473	5.38828	1.77094	0	
2.1480	4.15585	2.0661	0	
2.1487	6.30543	-0.0681132	0	
2.1493	9.94539	2.0661	0	
2.1500	9.0569	1.45308	0	
2.1507	6.59204	-2.49748	0	
2.1513	6.59204	-0.0681132	0	
2.1520	4.47113	2.38396	0	
2.1527	2.32155	-1.29415	0	
2.1533	3.55397	-2.81534	0	
2.1540	3.86924	-1.29415	0	
2.1547	1.11778	-2.20233	0	
2.1553	0.200627	-0.976289	0	
2.1560	1.11778	2.99698	0	
2.1567	0.80251	3.29214	0	
2.1573	-1.0318	2.38396	0	
2.1580	-0.716527	1.77094	0	
2.1587	-1.31841	-0.0681132	0	
2.1593	-4.98702	-0.36327	0	
2.1600	-8.05376	1.45308	0	
2.1607	-8.34037	1.77094	0	
2.1613	-8.05376	0.862767	0	
2.1620	-6.21945	0.249748	0	
2.1627	-4.98702	0.249748	0	
2.1633	-6.50606	0.862767	0	
2.1640	-6.21945	0.544905	0	
2.1647	-1.63368	0.544905	0	
2.1653	-1.31841	1.15792	0	
2.1660	-3.46799	0.862767	0	
2.1667	-2.23556	0.544905	0	
2.1673	-0.114644	2.0661	0	
2.1680	1.11778	2.0661	0	
2.1687	2.03494	0.544905	0	
2.1693	-1.63368	0.862767	0	
2.1700	-3.78326	-0.36327	0	
2.1707	0.80251	-2.81534	0	
2.1713	4.47113	-1.88446	0	
2.1720	4.15585	-0.976289	0	
2.1727	3.2387	-3.72352	0	
2.1733	0.487238	-3.72352	0	
2.1740	-1.31841	-0.0681132	0	
2.1747	2.95209	-0.681132	0	
2.1753	5.38828	-2.49748	0	
2.1760	2.95209	-0.976289	0	
2.1767	3.86924	-0.976289	0	
2.1773	6.59204	-3.42836	0	
2.1780	4.75774	-1.88446	0	
2.1787	1.11778	0.862767	0	
2.1793	-3.78326	0.862767	0	
2.1800	-8.05376	0.862767	0	
2.1807	-7.1366	-0.36327	0	
2.1813	-5.3023	-1.88446	0	
2.1820	-6.21945	-0.36327	0	
2.1827	-5.3023	2.0661	0	
2.1833	-3.15272	1.77094	0	
2.1840	-4.38514	0.544905	0	
2.1847	-5.90418	-0.0681132	0	
2.1853	-5.3023	-0.976289	0	
2.1860	-3.15272	-1.88446	0	
2.1867	-0.716527	-0.976289	0	
2.1873	-0.716527	1.45308	0	
2.1880	-2.23556	0.249748	0	
2.1887	0.200627	-3.72352	0	
2.1893	4.75774	-3.72352	0	
2.1900	6.59204	0.249748	0	
2.1907	6.30543	0.862767	0	
2.1913	5.38828	-0.976289	0	
2.1920	3.2387	-0.681132	0	
2.1927	2.95209	-0.36327	0	
2.1933	2.95209	-0.681132	0	
2.1940	1.71966	-0.36327	0	
2.1947	2.63682	-0.36327	0	
2.1953	4.15585	0.544905	0	
2.1960	1.11778	2.67912	0	
2.1967	-1.94895	1.77094	0	
2.1973	0.487238	-2.49748	0	
2.1980	0.487238	-3.1105	0	
2.1987	-4.70041	-0.0681132	0	
2.1993	-7.1366	0.862767	0	
2.2000	-6.21945	-0.36327	0	
2.2007	-6.82133	0.249748	0	
2.2013	-7.1366	0.249748	0	
2.2020	-6.50606	-2.81534	0	
2.2027	-6.82133	-3.42836	0	
2.2033	-5.90418	-0.0681132	0	
2.2040	-4.06987	1.15792	0	
2.2047	-5.3023	-0.0681132	0	
2.2053	-7.1366	1.45308	0	
2.2060	-6.50606	2.67912	0	
2.2067	-2.55083	-0.36327	0	
2.2073	1.71966	-1.88446	0	
2.2080	2.95209	1.77094	0	
2.2087	1.11778	2.99698	0	
2.2093	0.80251	-0.681132	0	
2.2100	2.32155	-2.20233	0	
2.2107	1.40439	-0.976289	0	
2.2113	0.200627	-1.88446	0	
2.2120	2.63682	-1.88446	0	
2.2127	2.95209	-0.36327	0	
2.2133	0.200627	-0.0681132	0	
2.2140	0.200627	-1.29415	0	
2.2147	0.200627	-1.58931	0	
2.2153	-3.46799	-0.976289	0	
2.2160	-5.3023	-0.976289	0	
2.2167	-3.78326	0.544905	0	
2.2173	-4.38514	1.77094	0	
2.2180	-5.3023	1.45308	0	
2.2187	-5.3023	1.15792	0	
2.2193	-6.82133	2.99698	0	
2.2200	-7.1366	2.67912	0	
2.2207	-5.61757	0.249748	0	
2.2213	-6.21945	1.77094	0	
2.2220	-5.61757	4.20031	0	
2.2227	-1.63368	0.862767	0	
2.2233	-0.716527	-1.88446	0	
2.2240	-4.70041	-0.0681132	0	
2.2247	-5.90418	0.862767	0	
2.2253	-1.63368	-0.0681132	0	
2.2260	5.07301	1.45308	0	
2.2267	9.0569	1.77094	0	
2.2273	5.99016	-0.0681132	0	
2.2280	2.03494	-0.0681132	0	
2.2287	1.11778	1.45308	0	
2.2293	0.80251	2.67912	0	
2.2300	0.80251	1.77094	0	
2.2307	1.40439	-1.29415	0	
2.2313	0.200627	-0.976289	0	
2.2320	0.80251	1.45308	0	
2.2327	3.86924	-0.0681132	0	
2.2333	4.15585	-1.88446	0	
2.2340	3.55397	0.249748	0	
2.2347	5.67489	-1.58931	0	
2.2353	5.67489	-3.72352	0	
2.2360	2.32155	-0.36327	0	
2.2367	0.80251	1.15792	0	
2.2373	1.11778	-1.88446	0	
2.2380	2.03494	-1.58931	0	
2.2387	2.32155	-0.0681132	0	
2.2393	1.71966	-2.49748	0	
2.2400	-0.114644	-1.29415	0	
2.2407	-2.23556	3.58729	0	
2.2413	-5.61757	4.51817	0	
2.2420	-6.50606	2.99698	0	
2.2427	-2.55083	2.67912	0	
2.2433	-0.716527	1.15792	0	
2.2440	-1.63368	-2.49748	0	
2.2447	2.03494	-3.72352	0	
2.2453	5.38828	-1.29415	0	
2.2460	3.55397	0.249748	0	
2.2467	2.03494	-0.0681132	0	
2.2473	3.86924	1.45308	0	
2.2480	2.95209	3.58729	0	
2.2487	-1.31841	3.29214	0	
2.2493	-1.63368	0.249748	0	
2.2500	1.40439	-1.58931	0	
2.2507	1.71966	-0.681132	0	
2.2513	0.200627	2.38396	0	
2.2520	1.11778	3.90515	0	
2.2527	2.03494	0.544905	0	
2.2533	2.03494	-3.42836	0	
2.2540	3.2387	-1.58931	0	
2.2547	4.75774	1.45308	0	
2.2553	3.55397	-0.976289	0	
2.2560	2.03494	-3.1105	0	
2.2567	2.63682	-1.58931	0	
2.2573	4.15585	-1.88446	0	
2.2580	5.67489	-4.04138	0	
2.2587	5.67489	-3.42836	0	
2.2593	1.40439	-1.58931	0	
2.2600	-6.21945	-0.36327	0	
2.2607	-8.97091	0.249748	0	
2.2613	-5.3023	-0.976289	0	
2.2620	-3.46799	-1.29415	0	
2.2627	-4.70041	0.249748	0	
2.2633	-5.90418	-0.976289	0	
2.2640	-5.90418	-2.49748	0	
2.2647	-4.70041	2.38396	0	
2.2653	-2.55083	4.20031	0	
2.2660	-1.94895	-0.681132	0	
2.2667	-3.46799	-1.29415	0	
2.2673	-4.38514	3.58729	0	
2.2680	-3.78326	2.67912	0	
2.2687	-4.06987	-1.58931	0	
2.2693	-3.78326	-2.81534	0	
2.2700	-2.55083	-2.20233	0	
2.2707	-1.63368	-1.29415	0	
2.2713	-0.429916	-0.0681132	0	
2.2720	1.11778	-1.88446	0	
2.2727	-0.114644	-3.72352	0	
2.2733	-1.31841	-3.1105	0	
2.2740	0.80251	-2.49748	0	
2.2747	1.40439	-3.72352	0	
2.2753	0.200627	-2.81534	0	
2.2760	1.11778	-0.976289	0	
2.2767	2.95209	-1.88446	0	
2.2773	3.86924	-2.49748	0	
2.2780	6.90732	-2.49748	0	
2.2787	9.34351	-1.88446	0	
2.2793	7.5092	-1.88446	0	
2.2800	5.67489	-1.88446	0	
2.2807	4.75774	-0.976289	0	
2.2813	2.95209	1.45308	0	
2.2820	2.03494	-0.0681132	0	
2.2827	2.03494	-4.33654	0	
2.2833	-1.0318	-4.33654	0	
2.2840	-4.38514	-2.20233	0	
2.2847	-1.0318	-0.976289	0	
2.2853	2.03494	0.862767	0	
2.2860	0.200627	1.77094	0	
2.2867	-1.94895	0.862767	0	
2.2873	-1.94895	0.862767	0	
2.2880	-1.94895	-0.36327	0	
2.2887	-1.63368	-0.976289	0	
2.2893	-0.429916	2.0661	0	
2.2900	2.03494	3.58729	0	
2.2907	2.95209	1.15792	0	
2.2913	2.63682	0.862767	0	
2.2920	1.40439	1.77094	0	
2.2927	0.487238	-0.36327	0	
2.2933	-1.63368	-0.976289	0	
2.2940	-4.98702	1.77094	0	
2.2947	-3.46799	1.45308	0	
2.2953	0.200627	-0.681132	0	
2.2960	-2.23556	-0.976289	0	
2.2967	-7.1366	0.249748	0	
2.2973	-5.61757	0.862767	0	
2.2980	-3.46799	-0.0681132	0	
2.2987	-5.3023	0.249748	0	
2.2993	-4.70041	0.862767	0	
2.3000	-1.63368	0.544905	0	
2.3007	-1.94895	-0.36327	0	
2.3013	-1.94895	-0.976289	0	
2.3020	-1.94895	-0.681132	0	
2.3027	-5.90418	2.99698	0	
2.3033	-8.05376	5.13119	0	
2.3040	-5.3023	0.862767	0	
2.3047	-3.46799	-2.20233	0	
2.3053	-0.716527	0.862767	0	
2.3060	2.32155	1.15792	0	
2.3067	-1.31841	-0.681132	0	
2.3073	-6.50606	1.45308	0	
2.3080	-4.38514	2.38396	0	
2.3087	-2.55083	-0.976289	0	
2.3093	-4.38514	-1.88446	0	
2.3100	-4.06987	-1.58931	0	
2.3107	-1.0318	-1.88446	0	
2.3113	-2.23556	-2.81534	0	
2.3120	-3.78326	-3.1105	0	
2.3127	-2.55083	-3.42836	0	
2.3133	-2.55083	-0.976289	0	
2.3140	-1.63368	0.862767	0	
2.3147	7.22259	0.862767	0	
2.3153	15.4483	0.862767	0	
2.3160	11.1778	1.45308	0	
2.3167	4.15585	-0.36327	0	
2.3173	3.55397	-0.681132	0	
2.3180	3.55397	-0.0681132	0	
2.3187	1.11778	-2.81534	0	
2.3193	-1.31841	-2.49748	0	
2.3200	-2.55083	2.38396	0	
2.3207	-6.21945	2.67912	0	
2.3213	-10.4899	-0.0681132	0	
2.3220	-10.8052	0.862767	0	
2.3227	-7.73849	2.67912	0	
2.3233	-4.70041	1.77094	0	
2.3240	-3.46799	0.862767	0	
2.3247	-4.98702	-1.88446	0	
2.3253	-6.21945	-3.72352	0	
2.3260	-3.46799	-0.36327	0	
2.3267	0.200627	1.45308	0	
2.3273	1.11778	0.544905	0	
2.3280	1.40439	3.29214	0	
2.3287	2.03494	3.58729	0	
2.3293	3.2387	-2.49748	0	
2.3300	6.59204	-2.49748	0	
2.3307	7.5092	1.77094	0	
2.3313	2.95209	-1.88446	0	
2.3320	-0.114644	-5.56257	0	
2.3327	1.40439	-2.49748	0	
2.3333	3.2387	-0.976289	0	
2.3340	2.03494	-1.88446	0	
2.3347	-0.716527	-0.0681132	0	
2.3353	-1.0318	-0.0681132	0	
2.3360	0.200627	-2.81534	0	
2.3367	-0.716527	-2.49748	0	
2.3373	0.200627	-1.58931	0	
2.3380	2.95209	-2.20233	0	
2.3387	2.03494	-1.88446	0	
2.3393	-2.55083	-0.0681132	0	
2.3400	-1.63368	-0.0681132	0	
2.3407	1.11778	-0.681132	0	
2.3413	-0.716527	-0.976289	0	
2.3420	-1.94895	-0.36327	0	
2.3427	-0.114644	-0.0681132	0	
2.3433	-1.31841	-0.681132	0	
2.3440	-4.98702	-0.681132	0	
2.3447	-4.38514	-0.0681132	0	
2.3453	-4.06987	-0.0681132	0	
2.3460	-7.1366	0.249748	0	
2.3467	-6.82133	-0.0681132	0	
2.3473	-2.55083	-0.976289	0	
2.3480	-2.55083	-0.0681132	0	
2.3487	-3.78326	1.15792	0	
2.3493	-1.63368	-0.36327	0	
2.3500	2.03494	-2.49748	0	
2.3507	4.75774	-2.20233	0	
2.3513	5.38828	-1.29415	0	
2.3520	3.2387	-1.29415	0	
2.3527	2.63682	-3.72352	0	
2.3533	5.07301	-5.85773	0	
2.3540	6.90732	-4.33654	0	
2.3547	6.90732	-1.58931	0	
2.3553	7.5092	-1.88446	0	
2.3560	6.30543	-2.49748	0	
2.3567	2.63682	-0.976289	0	
2.3573	1.11778	-0.0681132	0	
2.3580	2.63682	1.15792	0	
2.3587	2.03494	0.862767	0	
2.3593	-1.63368	-1.88446	0	
2.3600	-2.23556	-1.58931	0	
2.3607	-2.55083	0.544905	0	
2.3613	-9.57279	-0.681132	0	
2.3620	-15.9929	-0.681132	0	
2.3627	-14.1586	0.862767	0	
2.3633	-9.88807	-0.0681132	0	
2.3640	-8.65564	-0.976289	0	
2.3647	-7.42321	1.77094	0	
2.3653	-5.90418	2.67912	0	
2.3660	-5.90418	0.862767	0	
2.3667	-8.05376	1.45308	0	
2.3673	-8.65564	3.58729	0	
2.3680	-4.70041	4.20031	0	
2.3687	0.487238	2.99698	0	
2.3693	3.2387	-0.36327	0	
2.3700	5.67489	-1.88446	0	
2.3707	7.82447	-0.976289	0	
2.3713	9.34351	-2.49748	0	
2.3720	12.095	-2.81534	0	
2.3727	15.1617	0.544905	0	
2.3733	13.9293	1.15792	0	
2.3740	10.8625	-0.976289	0	
2.3747	8.42635	-0.976289	0	
2.3753	4.75774	-1.29415	0	
2.3760	1.11778	-1.88446	0	
2.3767	-1.63368	-0.36327	0	
2.3773	-1.63368	-0.36327	0	
2.3780	-1.63368	-0.0681132	0	
2.3787	-1.63368	3.29214	0	
2.3793	-1.63368	2.99698	0	
2.3800	-2.23556	-0.36327	0	
2.3807	-4.38514	0.544905	0	
2.3813	-5.3023	1.45308	0	
2.3820	-2.55083	-1.58931	0	
2.3827	-1.0318	-1.88446	0	
2.3833	-2.23556	0.249748	0	
2.3840	-1.94895	0.544905	0	
2.3847	-0.429916	1.45308	0	
2.3853	-1.0318	1.77094	0	
2.3860	-3.46799	0.862767	0	
2.3867	-5.3023	1.77094	0	
2.3873	-7.1366	2.99698	0	
2.3880	-8.34037	1.77094	0	
2.3887	-7.42321	-0.36327	0	
2.3893	-3.46799	0.544905	0	
2.3900	1.71966	2.67912	0	
2.3907	3.86924	2.0661	0	
2.3913	2.63682	-1.29415	0	
2.3920	1.11778	-1.29415	0	
2.3927	2.95209	2.67912	0	
2.3933	5.67489	2.67912	0	
2.3940	6.59204	-0.0681132	0	
2.3947	6.30543	-0.681132	0	
2.3953	5.07301	-0.0681132	0	
2.3960	4.75774	-0.681132	0	
2.3967	3.86924	0.862767	0	
2.3973	0.80251	1.77094	0	
2.3980	-0.716527	-0.0681132	0	
2.3987	2.03494	-0.976289	0	
2.3993	2.03494	-1.29415	0	
2.4000	-3.15272	-3.42836	0	
2.4007	-5.3023	-3.1105	0	
2.4013	-5.3023	0.249748	0	
2.4020	-6.82133	0.862767	0	
2.4027	-5.3023	0.544905	0	
2.4033	-2.86611	2.0661	0	
2.4040	-3.15272	2.67912	0	
2.4047	-3.15272	-0.0681132	0	
2.4053	-1.63368	-0.36327	0	
2.4060	-1.63368	1.77094	0	
2.4067	-2.55083	1.77094	0	
2.4073	-5.61757	-0.36327	0	
2.4080	-10.8052	-1.58931	0	
2.4087	-11.0918	-2.20233	0	
2.4093	-6.50606	-2.81534	0	
2.4100	-2.86611	-1.29415	0	
2.4107	-1.94895	0.544905	0	
2.4113	-4.38514	-0.0681132	0	
2.4120	-7.1366	-0.0681132	0	
2.4127	-3.46799	0.544905	0	
2.4133	2.03494	-0.681132	0	
2.4140	0.200627	-1.29415	0	
2.4147	-3.15272	-0.976289	0	
2.4153	-1.0318	-0.976289	0	
2.4160	0.80251	-1.88446	0	
2.4167	1.11778	-1.58931	0	
2.4173	3.86924	-0.976289	0	
2.4180	5.07301	-0.0681132	0	
2.4187	3.86924	-0.36327	0	
2.4193	4.15585	-1.58931	0	
2.4200	3.86924	-2.20233	0	
2.4207	1.11778	-1.88446	0	
2.4213	-1.0318	-0.0681132	0	
2.4220	-0.114644	0.862767	0	
2.4227	1.11778	-0.976289	0	
2.4233	0.200627	-1.88446	0	
2.4240	-2.23556	-0.0681132	0	
2.4247	-3.15272	1.45308	0	
2.4253	-2.86611	-0.36327	0	
2.4260	-4.06987	-0.681132	0	
2.4267	-4.98702	0.862767	0	
2.4273	-3.15272	0.544905	0	
2.4280	-2.23556	-0.681132	0	
2.4287	-3.46799	-2.81534	0	
2.4293	-2.86611	-3.72352	0	
2.4300	-1.31841	-0.681132	0	
2.4307	-2.55083	1.77094	0	
2.4313	-0.716527	-1.58931	0	
2.4320	3.86924	-3.72352	0	
2.4327	2.95209	-1.29415	0	
2.4333	2.03494	0.862767	0	
2.4340	4.75774	-0.681132	0	
2.4347	6.59204	-3.1105	0	
2.4353	6.59204	-1.88446	0	
2.4360	9.34351	0.862767	0	
2.4367	9.65878	-0.36327	0	
2.4373	5.99016	-1.58931	0	
2.4380	3.86924	0.249748	0	
2.4387	2.32155	0.249748	0	
2.4393	0.200627	-0.36327	0	
2.4400	0.200627	1.77094	0	
2.4407	-1.31841	2.67912	0	
2.4413	-3.46799	0.862767	0	
2.4420	-2.55083	1.15792	0	
2.4427	-2.55083	2.67912	0	
2.4433	-4.70041	1.77094	0	
2.4440	-7.1366	0.249748	0	
2.4447	-9.88807	-0.0681132	0	
2.4453	-8.97091	0.862767	0	
2.4460	-4.38514	0.862767	0	
2.4467	-3.78326	0.544905	0	
2.4473	-4.70041	1.77094	0	
2.4480	-1.63368	2.67912	0	
2.4487	0.200627	1.45308	0	
2.4493	0.80251	-1.29415	0	
2.4500	4.47113	-2.81534	0	
2.4507	6.90732	-1.58931	0	
2.4513	5.67489	0.862767	0	
2.4520	6.59204	1.77094	0	
2.4527	6.90732	1.45308	0	
2.4533	5.07301	1.15792	0	
2.4540	4.75774	-0.976289	0	
2.4547	5.38828	-3.72352	0	
2.4553	3.55397	-2.49748	0	
2.4560	3.55397	-0.36327	0	
2.4567	5.38828	-0.0681132	0	
2.4573	2.95209	0.544905	0	
2.4580	-3.15272	1.77094	0	
2.4587	-9.25752	1.77094	0	
2.4593	-11.4071	0.862767	0	
2.4600	-9.88807	0.544905	0	
2.4607	-8.65564	1.45308	0	
2.4613	-6.50606	1.15792	0	
2.4620	-4.38514	-0.976289	0	
2.4627	-5.3023	-1.58931	0	
2.4633	-6.50606	-0.0681132	0	
2.4640	-2.86611	-0.0681132	0	
2.4647	-1.94895	0.544905	0	
2.4653	-5.90418	2.38396	0	
2.4660	-4.06987	1.45308	0	
2.4667	-2.55083	0.544905	0	
2.4673	-9.88807	1.77094	0	
2.4680	-12.3243	0.862767	0	
2.4687	-6.21945	0.862767	0	
2.4693	-4.98702	2.67912	0	
2.4700	-6.21945	0.862767	0	
2.4707	-4.38514	-1.58931	0	
2.4713	-6.21945	0.544905	0	
2.4720	-8.97091	0.544905	0	
2.4727	-5.61757	-3.1105	0	
2.4733	-1.63368	-2.20233	0	
2.4740	2.03494	0.544905	0	
2.4747	6.30543	-0.976289	0	
2.4753	3.55397	-2.81534	0	
2.4760	-3.46799	-1.29415	0	
2.4767	-2.55083	-0.976289	0	
2.4773	3.55397	-1.88446	0	
2.4780	6.30543	-1.88446	0	
2.4787	6.59204	-1.58931	0	
2.4793	5.99016	-1.88446	0	
2.4800	6.30543	-2.81534	0	
2.4807	7.5092	-2.49748	0	
2.4813	6.59204	-0.976289	0	
2.4820	3.2387	-1.29415	0	
2.4827	2.03494	-1.88446	0	
2.4833	0.80251	-0.681132	0	
2.4840	-2.55083	0.862767	0	
2.4847	-2.55083	1.15792	0	
2.4853	-1.0318	1.77094	0	
2.4860	-2.55083	1.45308	0	
2.4867	-3.46799	-0.681132	0	
2.4873	-1.63368	-1.58931	0	
2.4880	2.03494	-0.0681132	0	
2.4887	3.55397	0.249748	0	
2.4893	1.40439	-1.58931	0	
2.4900	0.200627	-1.88446	0	
2.4907	1.71966	-0.36327	0	
2.4913	2.03494	0.862767	0	
2.4920	2.03494	0.862767	0	
2.4927	2.03494	-0.976289	0	
2.4933	2.03494	-2.20233	0	
2.4940	2.95209	0.862767	0	
2.4947	4.15585	2.67912	0	
2.4953	1.11778	-0.0681132	0	
2.4960	-2.55083	0.249748	0	
2.4967	-1.0318	1.77094	0	
2.4973	0.200627	-0.36327	0	
2.4980	-1.94895	-1.58931	0	
2.4987	-2.86611	0.862767	0	
2.4993	-2.86611	0.544905	0	
2.5000	-5.3023	-0.976289	0	
2.5007	-6.21945	0.862767	0	
2.5013	-4.70041	2.0661	0	
2.5020	-5.3023	2.0661	0	
2.5027	-8.34037	2.67912	0	
2.5033	-6.50606	1.45308	0	
2.5040	-1.63368	-0.0681132	0	
2.5047	-0.716527	1.15792	0	
2.5053	-1.63368	3.58729	0	
2.5060	2.03494	2.0661	0	
2.5067	4.15585	-0.36327	0	
2.5073	2.32155	0.544905	0	
2.5080	3.2387	1.77094	0	
2.5087	5.67489	-0.681132	0	
2.5093	2.95209	-1.88446	0	
2.5100	0.80251	-0.681132	0	
2.5107	1.40439	-0.976289	0	
2.5113	0.80251	-1.88446	0	
2.5120	0.200627	-0.976289	0	
2.5127	2.95209	-0.0681132	0	
2.5133	3.55397	0.249748	0	
2.5140	-0.114644	0.544905	0	
2.5147	-1.63368	-0.976289	0	
2.5153	-0.114644	-2.49748	0	
2.5160	-1.31841	-1.58931	0	
2.5167	-4.98702	-0.976289	0	
2.5173	-5.90418	-1.88446	0	
2.5180	-3.46799	-0.36327	0	
2.5187	-1.63368	0.544905	0	
2.5193	-3.46799	-2.81534	0	
2.5200	-5.61757	-3.72352	0	
2.5207	-6.50606	-0.976289	0	
2.5213	-6.21945	0.249748	0	
2.5220	-3.15272	-2.20233	0	
2.5227	-1.63368	-1.58931	0	
2.5233	-3.15272	2.0661	0	
2.5240	1.11778	2.67912	0	
2.5247	6.59204	1.77094	0	
2.5253	0.80251	0.862767	0	
2.5260	-8.65564	-0.0681132	0	
2.5267	-8.34037	0.544905	0	
2.5273	-5.90418	1.77094	0	
2.5280	-5.90418	0.249748	0	
2.5287	-2.55083	-0.0681132	0	
2.5293	-0.716527	2.38396	0	
2.5300	-1.0318	2.38396	0	
2.5307	0.200627	0.862767	0	
2.5313	1.11778	0.544905	0	
2.5320	2.32155	-1.29415	0	
2.5327	7.22259	-2.81534	0	
2.5333	8.42635	-0.0681132	0	
2.5340	4.47113	1.77094	0	
2.5347	3.86924	-0.681132	0	
2.5353	4.75774	-1.88446	0	
2.5360	3.2387	-0.976289	0	
2.5367	3.55397	-2.20233	0	
2.5373	3.55397	-2.20233	0	
2.5380	0.80251	-0.0681132	0	
2.5387	-1.0318	-0.976289	0	
2.5393	-0.716527	-2.81534	0	
2.5400	-1.0318	-1.58931	0	
2.5407	-2.55083	-0.681132	0	
2.5413	-2.23556	-1.58931	0	
2.5420	-3.15272	-1.58931	0	
2.5427	-4.98702	-2.20233	0	
2.5433	-5.3023	-1.58931	0	
2.5440	-4.70041	1.45308	0	
2.5447	-5.61757	1.15792	0	
2.5453	-4.06987	-2.49748	0	
2.5460	-1.0318	-2.49748	0	
2.5467	-0.114644	0.249748	0	
2.5473	1.71966	2.67912	0	
2.5480	3.86924	4.20031	0	
2.5487	2.03494	3.90515	0	
2.5493	-0.716527	2.0661	0	
2.5500	0.200627	1.77094	0	
2.5507	0.80251	0.544905	0	
2.5513	1.11778	-1.58931	0	
2.5520	1.40439	-0.0681132	0	
2.5527	0.487238	3.58729	0	
2.5533	-1.63368	2.67912	0	
2.5540	-4.70041	0.544905	0	
2.5547	-8.97091	1.45308	0	
2.5553	-11.4071	3.29214	0	
2.5560	-12.009	3.29214	0	
2.5567	-11.6937	1.77094	0	
2.5573	-9.25752	-0.976289	0	
2.5580	-7.73849	-2.81534	0	
2.5587	-10.8052	-1.88446	0	
2.5593	-13.2414	-0.681132	0	
2.5600	-10.8052	0.249748	0	
2.5607	-6.50606	0.862767	0	
2.5613	-5.3023	-0.976289	0	
2.5620	-5.3023	-3.42836	0	
2.5627	-3.46799	-3.42836	0	
2.5633	0.80251	-2.20233	0	
2.5640	4.15585	-1.58931	0	
2.5647	6.59204	-1.58931	0	
2.5653	8.74162	-2.20233	0	
2.5660	9.65878	-2.81534	0	
2.5667	9.34351	-2.49748	0	
2.5673	7.5092	-2.49748	0	
2.5680	4.75774	-2.20233	0	
2.5687	3.86924	-1.88446	0	
2.5693	5.07301	-2.81534	0	
2.5700	4.15585	-2.81534	0	
2.5707	2.95209	-0.0681132	0	
2.5713	2.95209	0.249748	0	
2.5720	2.95209	-0.976289	0	
2.5727	2.95209	-0.0681132	0	
2.5733	1.71966	-0.0681132	0	
2.5740	-0.716527	-1.88446	0	
2.5747	-0.716527	-2.20233	0	
2.5753	2.03494	-1.88446	0	
2.5760	3.86924	-3.1105	0	
2.5767	1.71966	-2.81534	0	
2.5773	-0.429916	-0.681132	0	
2.5780	-1.0318	-0.976289	0	
2.5787	-2.23556	-2.20233	0	
2.5793	-3.46799	-1.29415	0	
2.5800	0.200627	0.249748	0	
2.5807	6.59204	-0.0681132	0	
2.5813	8.42635	-0.0681132	0	
2.5820	1.71966	-0.681132	0	
2.5827	-5.3023	-2.49748	0	
2.5833	-6.50606	-1.29415	0	
2.5840	-5.3023	0.862767	0	
2.5847	-4.06987	-1.88446	0	
2.5853	-2.55083	-3.72352	0	
2.5860	-1.94895	-1.29415	0	
2.5867	-1.0318	0.862767	0	
2.5873	0.200627	-0.0681132	0	
2.5880	1.11778	-0.976289	0	
2.5887	1.71966	-0.976289	0	
2.5893	2.63682	-0.36327	0	
2.5900	2.63682	1.77094	0	
2.5907	1.11778	2.38396	0	
2.5913	-0.114644	-0.0681132	0	
2.5920	1.11778	-1.88446	0	
2.5927	3.86924	-1.88446	0	
2.5933	3.2387	-2.20233	0	
2.5940	-0.429916	-1.88446	0	
2.5947	-3.46799	-0.0681132	0	
2.5953	-3.46799	-0.0681132	0	
2.5960	-0.716527	-2.49748	0	
2.5967	2.32155	-3.72352	0	
2.5973	4.15585	-3.72352	0	
2.5980	2.95209	-3.72352	0	
2.5987	0.200627	-3.72352	0	
2.5993	-0.716527	-2.20233	0	
2.6000	-0.716527	0.249748	0	
2.6007	-3.46799	1.77094	0	
2.6013	-4.70041	1.15792	0	
2.6020	-1.94895	0.862767	0	
2.6027	-2.23556	1.77094	0	
2.6033	-5.3023	2.67912	0	
2.6040	-5.3023	1.77094	0	
2.6047	-4.98702	0.249748	0	
2.6053	-5.90418	0.249748	0	
2.6060	-2.55083	-0.0681132	0	
2.6067	2.95209	-0.976289	0	
2.6073	3.86924	-0.976289	0	
2.6080	2.03494	-0.976289	0	
2.6087	1.11778	-1.29415	0	
2.6093	-0.114644	-1.58931	0	
2.6100	0.200627	-1.88446	0	
2.6107	2.95209	-2.81534	0	
2.6113	6.30543	-3.72352	0	
2.6120	6.30543	-2.20233	0	
2.6127	2.32155	0.862767	0	
2.6133	-2.23556	0.544905	0	
2.6140	-3.78326	-0.36327	0	
2.6147	-2.86611	1.45308	0	
2.6153	-4.70041	2.0661	0	
2.6160	-8.97091	1.45308	0	
2.6167	-8.97091	1.77094	0	
2.6173	-6.50606	0.249748	0	
2.6180	-7.1366	-1.88446	0	
2.6187	-7.73849	-0.0681132	0	
2.6193	-6.82133	-0.0681132	0	
2.6200	-6.82133	-2.20233	0	
2.6207	-7.1366	-0.681132	0	
2.6213	-6.21945	2.99698	0	
2.6220	-8.97091	2.67912	0	
2.6227	-11.4071	1.45308	0	
2.6233	-8.97091	1.77094	0	
2.6240	-6.21945	1.15792	0	
2.6247	-7.42321	-0.0681132	0	
2.6253	-6.21945	-0.0681132	0	
2.6260	-1.94895	0.862767	0	
2.6267	-0.716527	2.67912	0	
2.6273	-1.31841	1.77094	0	
2.6280	-0.716527	0.249748	0	
2.6287	-0.716527	0.862767	0	
2.6293	-0.716527	1.45308	0	
2.6300	1.40439	0.862767	0	
2.6307	3.86924	0.249748	0	
2.6313	4.15585	-0.0681132	0	
2.6320	5.07301	-0.681132	0	
2.6327	6.59204	-0.36327	0	
2.6333	8.13974	-0.681132	0	
2.6340	8.74162	-0.681132	0	
2.6347	8.42635	0.862767	0	
2.6353	7.5092	1.45308	0	
2.6360	6.30543	-0.976289	0	
2.6367	4.75774	-2.81534	0	
2.6373	3.2387	-1.58931	0	
2.6380	3.2387	0.249748	0	
2.6387	2.03494	0.544905	0	
2.6393	0.80251	-0.0681132	0	
2.6400	3.2387	-0.0681132	0	
2.6407	4.47113	0.544905	0	
2.6413	-0.114644	-0.36327	0	
2.6420	-3.15272	-0.976289	0	
2.6427	-2.55083	-0.976289	0	
2.6433	-2.23556	-0.976289	0	
2.6440	-0.114644	-0.976289	0	
2.6447	3.86924	0.249748	0	
2.6453	2.95209	1.45308	0	
2.6460	0.487238	1.15792	0	
2.6467	2.03494	1.15792	0	
2.6473	5.67489	1.77094	0	
2.6480	6.59204	-0.0681132	0	
2.6487	5.38828	-3.42836	0	
2.6493	2.03494	-4.33654	0	
2.6500	-1.94895	-2.81534	0	
2.6507	-3.46799	-0.681132	0	
2.6513	-3.46799	0.544905	0	
2.6520	-2.86611	-0.976289	0	
2.6527	-0.716527	-2.49748	0	
2.6533	-0.429916	-0.976289	0	
2.6540	-1.63368	-0.681132	0	
2.6547	-0.114644	-2.81534	0	
2.6553	2.03494	-2.81534	0	
2.6560	1.71966	-1.58931	0	
2.6567	0.200627	-2.81534	0	
2.6573	0.80251	-3.42836	0	
2.6580	2.63682	-1.58931	0	
2.6587	3.86924	-0.0681132	0	
2.6593	2.03494	-0.976289	0	
2.6600	-0.716527	-2.81534	0	
2.6607	-1.0318	-2.81534	0	
2.6613	-3.46799	-1.29415	0	
2.6620	-6.82133	-0.0681132	0	
2.6627	-4.98702	0.862767	0	
2.6633	-3.46799	2.38396	0	
2.6640	-6.21945	1.77094	0	
2.6647	-5.90418	-0.36327	0	
2.6653	-2.23556	-1.58931	0	
2.6660	-3.46799	-0.976289	0	
2.6667	-6.50606	-0.0681132	0	
2.6673	-5.3023	-0.36327	0	
2.6680	-2.86611	-2.20233	0	
2.6687	-2.55083	-2.20233	0	
2.6693	-1.0318	1.15792	0	
2.6700	1.40439	2.38396	0	
2.6707	2.63682	-0.976289	0	
2.6713	2.63682	-2.81534	0	
2.6720	2.03494	-2.20233	0	
2.6727	1.71966	-2.81534	0	
2.6733	2.95209	-3.72352	0	
2.6740	3.55397	-2.81534	0	
2.6747	1.11778	-0.976289	0	
2.6753	0.200627	1.15792	0	
2.6760	2.03494	0.862767	0	
2.6767	2.03494	-0.681132	0	
2.6773	-0.429916	-0.976289	0	
2.6780	-2.23556	-2.49748	0	
2.6787	-3.46799	-3.42836	0	
2.6793	-5.3023	-0.0681132	0	
2.6800	-6.21945	0.862767	0	
2.6807	-7.1366	-1.88446	0	
2.6813	-7.1366	-1.29415	0	
2.6820	-6.21945	1.77094	0	
2.6827	-5.90418	2.99698	0	
2.6833	-6.21945	3.29214	0	
2.6840	-4.70041	1.45308	0	
2.6847	-3.78326	-0.976289	0	
2.6853	-2.86611	-0.0681132	0	
2.6860	-0.716527	0.544905	0	
2.6867	-1.63368	-1.58931	0	
2.6873	-4.38514	-1.58931	0	
2.6880	-4.38514	-0.36327	0	
2.6887	-2.23556	0.249748	0	
2.6893	-2.23556	1.77094	0	
2.6900	-1.0318	1.77094	0	
2.6907	1.71966	-0.0681132	0	
2.6913	4.47113	-0.976289	0	
2.6920	6.30543	-2.20233	0	
2.6927	4.15585	-3.72352	0	
2.6933	1.11778	-2.49748	0	
2.6940	0.200627	0.862767	0	
2.6947	-1.94895	1.77094	0	
2.6953	-4.38514	0.862767	0	
2.6960	-0.716527	0.544905	0	
2.6967	2.32155	-0.0681132	0	
2.6973	0.487238	0.544905	0	
2.6980	1.11778	1.45308	0	
2.6987	1.71966	1.15792	0	
2.6993	-3.46799	0.544905	0	
2.7000	-5.90418	1.45308	0	
2.7007	-2.23556	1.77094	0	
2.7013	-1.63368	0.544905	0	
2.7020	-4.98702	-0.0681132	0	
2.7027	-6.21945	-0.0681132	0	
2.7033	-6.21945	-1.29415	0	
2.7040	-5.61757	1.77094	0	
2.7047	-7.1366	5.13119	0	
2.7053	-10.1747	3.58729	0	
2.7060	-8.97091	0.862767	0	
2.7067	-4.70041	0.862767	0	
2.7073	-4.38514	-0.0681132	0	
2.7080	-5.90418	-0.0681132	0	
2.7087	-3.46799	2.0661	0	
2.7093	0.80251	-0.0681132	0	
2.7100	8.42635	-1.88446	0	
2.7107	17.8845	0.862767	0	
2.7113	19.1169	1.45308	0	
2.7120	13.0121	-1.88446	0	
2.7127	10.2607	-3.1105	0	
2.7133	9.65878	-2.81534	0	
2.7140	6.90732	-3.72352	0	
2.7147	4.75774	-3.42836	0	
2.7153	2.95209	-1.88446	0	
2.7160	0.200627	-1.58931	0	
2.7167	-0.716527	-0.36327	0	
2.7173	-0.429916	-0.681132	0	
2.7180	0.200627	-2.81534	0	
2.7187	1.40439	-1.58931	0	
2.7193	2.32155	1.45308	0	
2.7200	1.40439	-0.0681132	0	
2.7207	-0.716527	-2.81534	0	
2.7213	-3.78326	-2.20233	0	
2.7220	-7.73849	-0.681132	0	
2.7227	-8.65564	-0.681132	0	
2.7233	-6.21945	-1.29415	0	
2.7240	-4.38514	-1.29415	0	
2.7247	-5.3023	-0.0681132	0	
2.7253	-7.42321	1.77094	0	
2.7260	-8.05376	2.67912	0	
2.7267	-6.21945	2.38396	0	
2.7273	-3.78326	2.38396	0	
2.7280	-4.38514	1.15792	0	
2.7287	-5.90418	-0.36327	0	
2.7293	-4.38514	-0.0681132	0	
2.7300	-1.63368	1.77094	0	
2.7307	-0.716527	1.77094	0	
2.7313	-0.114644	1.77094	0	
2.7320	2.95209	2.38396	0	
2.7327	5.99016	-0.0681132	0	
2.7333	5.99016	-2.81534	0	
2.7340	5.67489	-1.29415	0	
2.7347	5.99016	-0.0681132	0	
2.7353	5.38828	-3.1105	0	
2.7360	5.99016	-3.72352	0	
2.7367	8.13974	-1.58931	0	
2.7373	7.5092	-1.58931	0	
2.7380	3.2387	-2.81534	0	
2.7387	0.80251	-0.976289	0	
2.7393	1.11778	0.544905	0	
2.7400	2.03494	-0.976289	0	
2.7407	1.40439	-1.29415	0	
2.7413	-1.0318	-0.0681132	0	
2.7420	-3.46799	-0.681132	0	
2.7427	-2.86611	-0.976289	0	
2.7433	-2.55083	-0.0681132	0	
2.7440	-4.38514	-0.0681132	0	
2.7447	-8.65564	-0.976289	0	
2.7453	-13.528	-0.681132	0	
2.7460	-14.7604	-0.681132	0	
2.7467	-10.1747	-0.0681132	0	
2.7473	-7.1366	1.77094	0	
2.7480	-8.97091	-0.0681132	0	
2.7487	-7.42321	-1.88446	0	
2.7493	-2.86611	0.249748	0	
2.7500	-1.63368	1.45308	0	
2.7507	0.200627	-1.29415	0	
2.7513	2.03494	-2.81534	0	
2.7520	0.80251	-1.58931	0	
2.7527	-0.429916	0.544905	0	
2.7533	-0.716527	2.67912	0	
2.7540	-3.78326	2.67912	0	
2.7547	-5.90418	-0.0681132	0	
2.7553	-4.38514	-0.36327	0	
2.7560	-4.38514	1.15792	0	
2.7567	-5.3023	0.862767	0	
2.7573	-1.94895	-0.976289	0	
2.7580	1.71966	0.862767	0	
2.7587	0.487238	3.90515	0	
2.7593	-1.0318	1.77094	0	
2.7600	0.200627	-2.20233	0	
2.7607	1.11778	-1.88446	0	
2.7613	0.80251	-0.36327	0	
2.7620	1.40439	-0.976289	0	
2.7627	2.03494	-0.976289	0	
2.7633	2.03494	-0.0681132	0	
2.7640	2.03494	-0.0681132	0	
2.7647	3.86924	-0.36327	0	
2.7653	5.07301	0.544905	0	
2.7660	4.75774	1.45308	0	
2.7667	2.32155	0.249748	0	
2.7673	0.200627	-0.681132	0	
2.7680	0.200627	-0.0681132	0	
2.7687	0.487238	-0.976289	0	
2.7693	-0.429916	-1.88446	0	
2.7700	0.200627	0.544905	0	
2.7707	2.03494	1.77094	0	
2.7713	1.40439	-0.0681132	0	
2.7720	-0.716527	0.544905	0	
2.7727	1.11778	1.45308	0	
2.7733	3.55397	1.15792	0	
2.7740	3.55397	1.45308	0	
2.7747	4.15585	0.862767	0	
2.7753	6.30543	-0.0681132	0	
2.7760	4.47113	-0.681132	0	
2.7767	-0.429916	-3.1105	0	
2.7773	-2.23556	-4.63169	0	
2.7780	-1.31841	-2.81534	0	
2.7787	0.200627	-2.20233	0	
2.7793	1.71966	-3.72352	0	
2.7800	-0.716527	-2.49748	0	
2.7807	-4.06987	-0.976289	0	
2.7813	-3.78326	-1.88446	0	
2.7820	-3.46799	-1.88446	0	
2.7827	-5.3023	0.544905	0	
2.7833	-4.06987	0.249748	0	
2.7840	-2.55083	0.544905	0	
2.7847	-5.90418	2.38396	0	
2.7853	-4.38514	1.15792	0	
2.7860	2.63682	-0.976289	0	
2.7867	3.55397	1.77094	0	
2.7873	-1.0318	1.77094	0	
2.7880	-2.23556	-3.42836	0	
2.7887	-1.31841	-4.04138	0	
2.7893	-1.31841	-0.681132	0	
2.7900	-0.716527	0.249748	0	
2.7907	-1.31841	-0.36327	0	
2.7913	-0.716527	0.249748	0	
2.7920	1.11778	-0.0681132	0	
2.7927	0.200627	-0.0681132	0	
2.7933	-0.114644	-0.0681132	0	
2.7940	0.80251	-1.88446	0	
2.7947	-2.23556	-1.58931	0	
2.7953	-5.61757	0.862767	0	
2.7960	-3.15272	0.862767	0	
2.7967	-0.716527	-0.0681132	0	
2.7973	-1.94895	-0.681132	0	
2.7980	-0.114644	-2.81534	0	
2.7987	2.95209	-1.88446	0	
2.7993	2.03494	0.249748	0	
2.8000	-1.0318	-0.976289	0	
2.8007	-3.15272	-0.976289	0	
2.8013	-4.70041	1.77094	0	
2.8020	-3.46799	1.45308	0	
2.8027	-2.23556	0.544905	0	
2.8033	-4.70041	1.45308	0	
2.8040	-5.3023	0.862767	0	
2.8047	-1.31841	0.862767	0	
2.8053	-2.23556	2.0661	0	
2.8060	-8.05376	-0.36327	0	
2.8067	-8.05376	-2.81534	0	
2.8073	-4.98702	0.862767	0	
2.8080	-5.3023	3.29214	0	
2.8087	-3.46799	1.45308	0	
2.8093	-1.31841	-0.0681132	0	
2.8100	-1.31841	-0.0681132	0	
2.8107	0.487238	-0.681132	0	
2.8113	4.75774	-1.29415	0	
2.8120	5.07301	-2.20233	0	
2.8127	3.86924	-2.81534	0	
2.8133	3.2387	-1.29415	0	
2.8140	2.63682	-0.0681132	0	
2.8147	2.32155	-0.976289	0	
2.8153	3.2387	-2.81534	0	
2.8160	2.03494	-1.88446	0	
2.8167	0.200627	0.544905	0	
2.8173	-1.94895	0.249748	0	
2.8180	-5.3023	-0.36327	0	
2.8187	-6.82133	0.862767	0	
2.8193	-5.3023	1.77094	0	
2.8200	-4.70041	2.0661	0	
2.8207	-5.61757	1.77094	0	
2.8213	-5.3023	0.249748	0	
2.8220	-4.70041	0.544905	0	
2.8227	-4.38514	2.67912	0	
2.8233	-1.63368	1.77094	0	
2.8240	-0.716527	-1.58931	0	
2.8247	-3.15272	-0.0681132	0	
2.8253	-3.46799	3.58729	0	
2.8260	-3.46799	1.15792	0	
2.8267	-5.90418	-2.81534	0	
2.8273	-4.70041	-1.88446	0	
2.8280	-0.114644	0.862767	0	
2.8287	-0.716527	1.15792	0	
2.8293	-2.55083	-0.0681132	0	
2.8300	2.03494	0.249748	0	
2.8307	5.07301	0.862767	0	
2.8313	2.95209	0.862767	0	
2.8320	2.03494	0.862767	0	
2.8327	3.2387	-0.0681132	0	
2.8333	2.63682	-0.36327	0	
2.8340	2.95209	0.249748	0	
2.8347	3.86924	0.862767	0	
2.8353	3.2387	0.544905	0	
2.8360	2.03494	0.249748	0	
2.8367	2.03494	0.249748	0	
2.8373	2.95209	0.249748	0	
2.8380	3.86924	-0.0681132	0	
2.8387	3.86924	-1.88446	0	
2.8393	2.32155	-2.49748	0	
2.8400	2.03494	-0.681132	0	
2.8407	2.03494	-0.0681132	0	
2.8413	-2.55083	0.544905	0	
2.8420	-8.05376	2.38396	0	
2.8427	-8.05376	1.45308	0	
2.8433	-6.50606	-0.0681132	0	
2.8440	-6.21945	2.67912	0	
2.8447	-5.3023	3.58729	0	
2.8453	-6.21945	0.862767	0	
2.8460	-8.97091	1.77094	0	
2.8467	-8.65564	1.77094	0	
2.8473	-4.98702	-1.88446	0	
2.8480	-1.63368	-2.20233	0	
2.8487	0.80251	0.862767	0	
2.8493	1.11778	0.249748	0	
2.8500	1.11778	-0.36327	0	
2.8507	3.55397	0.862767	0	
2.8513	6.59204	-0.681132	0	
2.8520	7.82447	-2.49748	0	
2.8527	9.94539	-1.88446	0	
2.8533	11.1778	-1.29415	0	
2.8540	10.2607	-1.88446	0	
2.8547	8.74162	-0.976289	0	
2.8553	6.59204	-0.0681132	0	
2.8560	3.86924	-0.0681132	0	
2.8567	2.95209	-1.29415	0	
2.8573	2.95209	-1.58931	0	
2.8580	0.487238	0.249748	0	
2.8587	-2.55083	-0.0681132	0	
2.8593	-4.98702	-3.1105	0	
2.8600	-8.97091	-3.42836	0	
2.8607	-11.4071	-1.29415	0	
2.8613	-5.61757	-2.20233	0	
2.8620	2.03494	-2.81534	0	
2.8627	0.80251	0.249748	0	
2.8633	-4.70041	2.0661	0	
2.8640	-4.38514	0.249748	0	
2.8647	-3.46799	-0.976289	0	
2.8653	-4.06987	-0.0681132	0	
2.8660	-0.429916	1.45308	0	
2.8667	2.63682	0.862767	0	
2.8673	1.40439	-0.976289	0	
2.8680	1.71966	-1.88446	0	
2.8687	4.47113	-1.58931	0	
2.8693	6.30543	-1.29415	0	
2.8700	7.5092	-0.36327	0	
2.8707	5.67489	-0.36327	0	
2.8713	0.80251	-1.88446	0	
2.8720	-1.63368	-2.20233	0	
2.8727	-0.114644	-0.976289	0	
2.8733	-0.716527	-1.88446	0	
2.8740	-1.63368	-1.88446	0	
2.8747	-1.63368	0.862767	0	
2.8753	-2.55083	0.862767	0	
2.8760	-3.46799	-0.36327	0	
2.8767	-6.21945	-0.0681132	0	
2.8773	-8.05376	-0.976289	0	
2.8780	-5.90418	-3.72352	0	
2.8787	-2.86611	-1.88446	0	
2.8793	-4.70041	0.862767	0	
2.8800	-8.34037	0.249748	0	
2.8807	-8.34037	-0.36327	0	
2.8813	-4.38514	-0.681132	0	
2.8820	-0.429916	-1.29415	0	
2.8827	0.80251	-1.58931	0	
2.8833	2.03494	-1.29415	0	
2.8840	3.55397	-0.681132	0	
2.8847	2.03494	-0.36327	0	
2.8853	0.200627	-2.49748	0	
2.8860	1.71966	-2.49748	0	
2.8867	1.11778	0.862767	0	
2.8873	0.200627	2.67912	0	
2.8880	2.03494	1.45308	0	
2.8887	2.03494	-0.0681132	0	
