0.0007	2.79732	0.704599	0	
0.0013	1.87625	1.32112	0	
0.0020	0.375251	2.53656	0	
0.0027	1.87625	1.62058	0	
0.0033	2.79732	-0.810289	0	
0.0040	2.4903	-0.510834	0	
0.0047	3.41137	0.10569	0	
0.0053	2.79732	-0.21138	0	
0.0060	0.375251	3.76961	0	
0.0067	-0.545819	10.1815	0	
0.0073	1.26221	16.2762	0	
0.0080	0.955184	22.0716	0	
0.0087	-1.77391	8.94841	0	
0.0093	-1.77391	-27.3561	0	
0.0100	0.375251	-43.2272	0	
0.0107	-0.238796	-20.6448	0	
0.0113	-1.15987	-0.510834	0	
0.0120	0.0682274	0.704599	0	
0.0127	0.682274	6.20047	0	
0.0133	0.682274	17.4917	0	
0.0140	2.4903	22.6881	0	
0.0147	4.02542	16.2762	0	
0.0153	3.10435	-6.30616	0	
0.0160	2.79732	-28.5891	0	
0.0167	3.71839	-21.2613	0	
0.0173	6.75451	5.60156	0	
0.0180	9.82474	13.2288	0	
0.0187	9.51772	-3.25877	0	
0.0193	7.98261	-22.1773	0	
0.0200	8.59665	-37.7313	0	
0.0207	8.28963	-49.639	0	
0.0213	6.17458	-47.2081	0	
0.0220	5.25351	-19.4293	0	
0.0227	5.25351	15.9768	0	
0.0233	3.41137	29.0999	0	
0.0240	0.682274	21.7721	0	
0.0247	-0.238796	19.0242	0	
0.0253	0.682274	22.0716	0	
0.0260	-0.238796	13.5283	0	
0.0267	-1.77391	3.45254	0	
0.0273	-3.00201	8.64895	0	
0.0280	-4.2301	19.0242	0	
0.0287	-4.84415	19.9402	0	
0.0293	-5.7311	11.6963	0	
0.0300	-7.26622	-1.42681	0	
0.0307	-8.18729	-16.0649	0	
0.0313	-7.57324	-23.0932	0	
0.0320	-7.57324	-20.0458	0	
0.0327	-9.7224	-11.802	0	
0.0333	-9.41538	-2.9417	0	
0.0340	-5.7311	-1.42681	0	
0.0347	-3.92308	-13.9334	0	
0.0353	-5.42408	-26.7572	0	
0.0360	-3.92308	-21.2613	0	
0.0367	-3.00201	-4.77366	0	
0.0373	-5.7311	3.76961	0	
0.0380	-5.7311	2.53656	0	
0.0387	-2.38796	0.704599	0	
0.0393	-3.92308	2.85363	0	
0.0400	-6.95919	6.817	0	
0.0407	-5.11705	11.3969	0	
0.0413	-3.30903	16.2762	0	
0.0420	-4.2301	17.1922	0	
0.0427	-4.2301	10.1815	0	
0.0433	-3.61605	0.405144	0	
0.0440	-3.00201	-3.55823	0	
0.0447	-3.00201	-2.34279	0	
0.0453	-3.00201	4.36851	0	
0.0460	-1.15987	15.3603	0	
0.0467	-0.238796	19.3236	0	
0.0473	-3.00201	11.6963	0	
0.0480	-3.92308	7.73298	0	
0.0487	-3.00201	10.7804	0	
0.0493	-3.92308	10.1815	0	
0.0500	-3.92308	8.03243	0	
0.0507	-2.69498	7.11645	0	
0.0513	-3.92308	1.32112	0	
0.0520	-3.00201	-3.55823	0	
0.0527	0.682274	-1.10974	0	
0.0533	-2.38796	-0.510834	0	
0.0540	-7.88026	-2.9417	0	
0.0547	-6.65217	-1.10974	0	
0.0553	-4.84415	0.704599	0	
0.0560	-5.7311	-0.21138	0	
0.0567	-3.61605	0.704599	0	
0.0573	-0.238796	0.405144	0	
0.0580	0.682274	-2.34279	0	
0.0587	1.56923	-2.9417	0	
0.0593	2.79732	-3.25877	0	
0.0600	1.56923	-3.55823	0	
0.0607	1.56923	-1.10974	0	
0.0613	4.02542	-0.510834	0	
0.0620	4.02542	-2.02572	0	
0.0627	0.0682274	-0.21138	0	
0.0633	-0.545819	1.62058	0	
0.0640	2.4903	-0.810289	0	
0.0647	1.87625	-3.55823	0	
0.0653	-0.852842	-4.77366	0	
0.0660	-0.238796	-3.85768	0	
0.0667	1.56923	-2.02572	0	
0.0673	1.56923	-2.02572	0	
0.0680	-0.238796	-2.9417	0	
0.0687	-1.15987	-3.55823	0	
0.0693	1.56923	-5.68964	0	
0.0700	3.41137	-6.92269	0	
0.0707	0.682274	-3.25877	0	
0.0713	-1.15987	0.10569	0	
0.0720	0.682274	-1.10974	0	
0.0727	2.4903	-3.85768	0	
0.0733	2.4903	-3.85768	0	
0.0740	2.4903	0.405144	0	
0.0747	2.4903	3.45254	0	
0.0753	2.4903	5.28449	0	
0.0760	3.10435	11.9958	0	
0.0767	4.33244	18.4077	0	
0.0773	4.33244	17.4917	0	
0.0780	3.41137	24.203	0	
0.0787	5.86756	32.4468	0	
0.0793	7.98261	11.0974	0	
0.0800	0.375251	-26.1406	0	
0.0807	-6.65217	-36.8153	0	
0.0813	-0.238796	-24.6081	0	
0.0820	4.94649	-19.4293	0	
0.0827	-0.238796	-19.1299	0	
0.0833	-1.15987	-13.0175	0	
0.0840	3.10435	-7.5216	0	
0.0847	1.87625	-4.4742	0	
0.0853	-0.238796	-3.85768	0	
0.0860	3.71839	-5.39018	0	
0.0867	6.44749	-6.60562	0	
0.0873	3.71839	-5.68964	0	
0.0880	0.682274	-6.30616	0	
0.0887	0.375251	-5.39018	0	
0.0893	0.682274	-1.10974	0	
0.0900	-0.852842	1.02167	0	
0.0907	-1.15987	0.704599	0	
0.0913	1.56923	5.28449	0	
0.0920	0.375251	12.6123	0	
0.0927	-4.84415	13.5283	0	
0.0933	-4.2301	5.28449	0	
0.0940	-0.545819	-3.55823	0	
0.0947	-3.61605	-4.17475	0	
0.0953	-7.57324	0.405144	0	
0.0960	-5.7311	3.76961	0	
0.0967	-3.92308	3.76961	0	
0.0973	-4.84415	2.53656	0	
0.0980	-3.00201	1.93765	0	
0.0987	0.0682274	1.02167	0	
0.0993	1.56923	0.405144	0	
0.1000	2.18328	1.02167	0	
0.1007	3.10435	2.53656	0	
0.1013	4.02542	1.93765	0	
0.1020	4.63946	-1.10974	0	
0.1027	3.71839	-2.34279	0	
0.1033	2.4903	-0.21138	0	
0.1040	2.4903	1.62058	0	
0.1047	4.02542	0.704599	0	
0.1053	4.94649	0.704599	0	
0.1060	1.56923	2.53656	0	
0.1067	-3.00201	1.93765	0	
0.1073	-4.53712	-0.21138	0	
0.1080	-4.84415	0.10569	0	
0.1087	-6.34515	0.704599	0	
0.1093	-5.11705	1.32112	0	
0.1100	-3.92308	5.28449	0	
0.1107	-4.84415	4.68558	0	
0.1113	-4.2301	-4.77366	0	
0.1120	-2.69498	-12.1015	0	
0.1127	-2.08094	-12.718	0	
0.1133	-1.15987	-10.2695	0	
0.1140	-1.15987	8.64895	0	
0.1147	-4.2301	46.803	0	
0.1153	-3.92308	60.2256	0	
0.1160	0.375251	17.1922	0	
0.1167	2.4903	-44.1431	0	
0.1173	1.56923	-66.1266	0	
0.1180	0.955184	-41.0957	0	
0.1187	1.56923	-10.2695	0	
0.1193	-0.238796	-7.5216	0	
0.1200	-2.38796	-15.466	0	
0.1207	-1.15987	-2.02572	0	
0.1213	1.26221	25.436	0	
0.1220	0.375251	42.2231	0	
0.1227	-0.238796	42.822	0	
0.1233	0.375251	22.6881	0	
0.1240	-1.77391	-8.43757	0	
0.1247	-3.30903	-19.4293	0	
0.1253	-1.15987	-9.35355	0	
0.1260	-1.15987	-4.77366	0	
0.1267	-2.69498	-3.85768	0	
0.1273	-2.69498	3.76961	0	
0.1280	-3.00201	6.20047	0	
0.1287	-3.30903	-1.42681	0	
0.1293	-3.00201	-6.92269	0	
0.1300	-1.15987	-9.35355	0	
0.1307	2.18328	-10.2695	0	
0.1313	2.4903	-8.13812	0	
0.1320	-0.238796	-4.77366	0	
0.1327	1.26221	-4.77366	0	
0.1333	3.41137	-6.30616	0	
0.1340	0.955184	-9.67062	0	
0.1347	-1.15987	-11.802	0	
0.1353	-0.238796	-3.85768	0	
0.1360	-0.238796	9.56493	0	
0.1367	-1.15987	14.7437	0	
0.1373	-0.238796	15.3603	0	
0.1380	2.18328	14.1448	0	
0.1387	4.94649	4.06906	0	
0.1393	4.63946	-2.02572	0	
0.1400	3.41137	10.4809	0	
0.1407	4.63946	23.6041	0	
0.1413	4.63946	27.8669	0	
0.1420	2.4903	27.8669	0	
0.1427	3.10435	10.7804	0	
0.1433	4.33244	-22.7938	0	
0.1440	4.63946	-37.4318	0	
0.1447	6.17458	-21.5607	0	
0.1453	5.86756	-3.85768	0	
0.1460	4.33244	0.704599	0	
0.1467	5.56053	-1.72627	0	
0.1473	4.33244	-5.09073	0	
0.1480	0.375251	-5.09073	0	
0.1487	0.0682274	-2.9417	0	
0.1493	1.56923	-3.25877	0	
0.1500	-0.545819	-3.85768	0	
0.1507	-3.92308	-0.510834	0	
0.1513	-4.53712	1.02167	0	
0.1520	-3.00201	-1.42681	0	
0.1527	-3.92308	-2.34279	0	
0.1533	-5.7311	-1.10974	0	
0.1540	-3.92308	-0.810289	0	
0.1547	-2.08094	-1.72627	0	
0.1553	-2.08094	-2.34279	0	
0.1560	-0.238796	-2.02572	0	
0.1567	2.79732	-0.810289	0	
0.1573	4.63946	-0.810289	0	
0.1580	6.17458	-0.21138	0	
0.1587	6.44749	-2.34279	0	
0.1593	4.63946	-11.802	0	
0.1600	4.02542	-15.1489	0	
0.1607	5.86756	-1.10974	0	
0.1613	7.06154	12.9118	0	
0.1620	5.86756	15.6597	0	
0.1627	2.4903	22.6881	0	
0.1633	0.955184	30.0159	0	
0.1640	0.0682274	18.1082	0	
0.1647	-3.61605	-1.42681	0	
0.1653	-3.61605	-6.30616	0	
0.1660	-0.238796	-2.64225	0	
0.1667	-3.00201	-0.810289	0	
0.1673	-8.18729	-0.510834	0	
0.1680	-9.10836	0.10569	0	
0.1687	-8.49431	-0.21138	0	
0.1693	-7.57324	-0.510834	0	
0.1700	-5.7311	-0.510834	0	
0.1707	-6.65217	-0.21138	0	
0.1713	-7.57324	0.10569	0	
0.1720	-5.7311	-0.21138	0	
0.1727	-6.65217	-0.810289	0	
0.1733	-6.65217	-2.9417	0	
0.1740	-3.92308	-2.9417	0	
0.1747	-2.08094	0.10569	0	
0.1753	-0.545819	0.704599	0	
0.1760	0.955184	-2.02572	0	
0.1767	1.56923	-2.64225	0	
0.1773	5.25351	-2.02572	0	
0.1780	9.2107	-2.02572	0	
0.1787	7.67558	-0.810289	0	
0.1793	5.86756	-0.810289	0	
0.1800	6.75451	-2.64225	0	
0.1807	5.56053	-3.55823	0	
0.1813	3.41137	-3.85768	0	
0.1820	2.79732	-3.85768	0	
0.1827	1.26221	-2.02572	0	
0.1833	0.0682274	-2.02572	0	
0.1840	-0.545819	-4.17475	0	
0.1847	-3.30903	-2.9417	0	
0.1853	-2.08094	-1.42681	0	
0.1860	2.18328	-4.17475	0	
0.1867	0.375251	-1.42681	0	
0.1873	-2.08094	6.51754	0	
0.1880	-0.238796	4.36851	0	
0.1887	-1.77391	-6.30616	0	
0.1893	-3.61605	-10.8861	0	
0.1900	-2.38796	-10.2695	0	
0.1907	-3.92308	-9.97008	0	
0.1913	-6.03812	-6.00671	0	
0.1920	-7.88026	-0.510834	0	
0.1927	-8.80133	1.02167	0	
0.1933	-2.08094	-0.21138	0	
0.1940	-2.08094	-4.77366	0	
0.1947	-25.5853	-13.9334	0	
0.1953	-39.606	-10.2695	0	
0.1960	-26.1993	11.6963	0	
0.1967	-18.2508	28.7829	0	
0.1973	-21.6281	25.7355	0	
0.1980	-16.1358	11.0974	0	
0.1987	-12.1445	-6.60562	0	
0.1993	-14.9077	-15.7654	0	
0.2000	-11.2234	-10.2695	0	
0.2007	-7.26622	-0.510834	0	
0.2013	-8.49431	4.98504	0	
0.2020	-3.92308	7.43352	0	
0.2027	0.682274	5.90102	0	
0.2033	-2.08094	2.85363	0	
0.2040	-2.38796	4.36851	0	
0.2047	2.18328	6.20047	0	
0.2053	2.18328	4.36851	0	
0.2060	-0.238796	5.28449	0	
0.2067	0.682274	12.6123	0	
0.2073	2.4903	22.9875	0	
0.2080	2.4903	35.1947	0	
0.2087	2.4903	31.5308	0	
0.2093	1.87625	-1.42681	0	
0.2100	0.682274	-36.2164	0	
0.2107	1.87625	-42.0117	0	
0.2113	3.41137	-31.337	0	
0.2120	3.41137	-23.7098	0	
0.2127	3.71839	-11.1855	0	
0.2133	3.71839	3.76961	0	
0.2140	2.4903	12.3129	0	
0.2147	2.4903	21.1556	0	
0.2153	4.33244	18.4077	0	
0.2160	6.17458	-12.1015	0	
0.2167	8.28963	-36.8153	0	
0.2173	9.2107	-29.5051	0	
0.2180	10.1318	-23.7098	0	
0.2187	12.2468	-25.5241	0	
0.2193	11.9739	-10.5866	0	
0.2200	10.7458	-3.85768	0	
0.2207	11.9739	-24.3087	0	
0.2213	12.5538	-36.5158	0	
0.2220	10.1318	-19.7288	0	
0.2227	8.28963	-2.34279	0	
0.2233	6.75451	-2.02572	0	
0.2240	4.02542	-2.9417	0	
0.2247	4.33244	10.4809	0	
0.2253	4.94649	25.436	0	
0.2260	2.4903	22.6881	0	
0.2267	1.56923	6.20047	0	
0.2273	0.682274	-6.60562	0	
0.2280	-3.00201	-1.10974	0	
0.2287	-3.00201	23.6041	0	
0.2293	0.375251	37.3261	0	
0.2300	-1.15987	23.9035	0	
0.2307	-2.08094	10.1815	0	
0.2313	2.18328	10.7804	0	
0.2320	2.79732	10.1815	0	
0.2327	-0.238796	7.73298	0	
0.2333	-0.545819	8.64895	0	
0.2340	0.955184	5.60156	0	
0.2347	2.18328	1.62058	0	
0.2353	2.4903	3.76961	0	
0.2360	2.79732	5.60156	0	
0.2367	6.75451	2.53656	0	
0.2373	10.4388	1.62058	0	
0.2380	10.1318	2.85363	0	
0.2387	9.82474	2.53656	0	
0.2393	9.2107	0.704599	0	
0.2400	6.75451	-0.21138	0	
0.2407	5.25351	-1.10974	0	
0.2413	6.17458	-2.02572	0	
0.2420	6.17458	-0.21138	0	
0.2427	4.63946	1.93765	0	
0.2433	3.41137	1.02167	0	
0.2440	2.4903	-1.72627	0	
0.2447	1.56923	-2.9417	0	
0.2453	2.4903	-1.10974	0	
0.2460	1.87625	1.02167	0	
0.2467	-1.15987	2.2371	0	
0.2473	-3.92308	1.32112	0	
0.2480	-3.00201	-0.510834	0	
0.2487	-1.15987	0.405144	0	
0.2493	-2.38796	1.62058	0	
0.2500	-2.69498	1.62058	0	
0.2507	-1.15987	2.53656	0	
0.2513	-3.30903	3.45254	0	
0.2520	-5.11705	0.704599	0	
0.2527	-2.08094	1.02167	0	
0.2533	-0.238796	2.53656	0	
0.2540	-3.61605	0.405144	0	
0.2547	-2.08094	-0.810289	0	
0.2553	3.10435	-0.510834	0	
0.2560	3.41137	-5.09073	0	
0.2567	0.955184	-9.97008	0	
0.2573	2.4903	-10.2695	0	
0.2580	3.71839	-11.1855	0	
0.2587	3.41137	-12.718	0	
0.2593	5.25351	-13.9334	0	
0.2600	8.90368	-14.8494	0	
0.2607	9.2107	-13.634	0	
0.2613	7.36856	-8.43757	0	
0.2620	7.98261	8.94841	0	
0.2627	8.90368	37.9427	0	
0.2633	6.17458	49.2339	0	
0.2640	3.41137	30.0159	0	
0.2647	1.87625	5.90102	0	
0.2653	0.0682274	-7.83866	0	
0.2660	-1.15987	-11.5026	0	
0.2667	-2.08094	-2.02572	0	
0.2673	-3.92308	12.6123	0	
0.2680	-2.38796	19.6407	0	
0.2687	0.682274	11.6963	0	
0.2693	-1.15987	-11.1855	0	
0.2700	-2.69498	-29.5051	0	
0.2707	0.0682274	-24.9252	0	
0.2713	0.375251	-12.1015	0	
0.2720	-2.08094	-8.43757	0	
0.2727	-1.46689	-8.43757	0	
0.2733	-0.238796	-6.60562	0	
0.2740	0.375251	-5.68964	0	
0.2747	1.56923	-2.64225	0	
0.2753	1.56923	-0.810289	0	
0.2760	-0.852842	-3.85768	0	
0.2767	-0.238796	-5.68964	0	
0.2773	1.26221	-5.09073	0	
0.2780	-0.238796	-4.4742	0	
0.2787	-0.545819	-3.55823	0	
0.2793	2.4903	-1.72627	0	
0.2800	1.56923	-0.810289	0	
0.2807	-0.852842	-0.810289	0	
0.2813	0.682274	-2.34279	0	
0.2820	1.26221	-4.77366	0	
0.2827	-3.00201	-3.25877	0	
0.2833	-6.65217	0.10569	0	
0.2840	-8.18729	-0.810289	0	
0.2847	-10.0294	-1.10974	0	
0.2853	-9.7224	2.85363	0	
0.2860	-8.18729	3.76961	0	
0.2867	-8.18729	2.53656	0	
0.2873	-8.80133	5.28449	0	
0.2880	-10.9164	9.86439	0	
0.2887	-12.4515	19.9402	0	
0.2893	-8.49431	25.436	0	
0.2900	-3.92308	7.43352	0	
0.2907	-4.2301	-17.8968	0	
0.2913	-5.42408	-22.4767	0	
0.2920	-3.92308	-12.4009	0	
0.2927	-2.69498	1.62058	0	
0.2933	-2.69498	14.4443	0	
0.2940	-2.69498	11.6963	0	
0.2947	-2.38796	2.2371	0	
0.2953	-2.08094	4.36851	0	
0.2960	-1.46689	8.94841	0	
0.2967	-1.46689	10.4809	0	
0.2973	-0.238796	7.11645	0	
0.2980	2.4903	-19.4293	0	
0.2987	4.33244	-53.6024	0	
0.2993	3.41137	-56.3503	0	
0.3000	2.4903	-37.7313	0	
0.3007	1.87625	-31.337	0	
0.3013	1.87625	-35.3004	0	
0.3020	3.41137	-24.6081	0	
0.3027	4.94649	-0.510834	0	
0.3033	2.79732	8.3495	0	
0.3040	1.56923	5.60156	0	
0.3047	2.4903	24.52	0	
0.3053	1.56923	51.0658	0	
0.3060	-0.238796	56.2622	0	
0.3067	-0.852842	56.5617	0	
0.3073	-0.545819	47.4019	0	
0.3080	-1.15987	3.76961	0	
0.3087	-2.38796	-36.5158	0	
0.3093	-2.08094	-33.169	0	
0.3100	1.56923	-9.35355	0	
0.3107	2.18328	7.11645	0	
0.3113	-1.77391	15.0608	0	
0.3120	-3.30903	12.6123	0	
0.3127	-1.77391	6.20047	0	
0.3133	-3.00201	4.06906	0	
0.3140	-3.00201	4.68558	0	
0.3147	0.0682274	5.28449	0	
0.3153	-1.15987	3.45254	0	
0.3160	-3.92308	0.704599	0	
0.3167	-0.852842	0.704599	0	
0.3173	3.41137	0.704599	0	
0.3180	2.4903	-0.810289	0	
0.3187	0.375251	-0.510834	0	
0.3193	0.375251	-2.34279	0	
0.3200	1.26221	-6.00671	0	
0.3207	1.56923	-4.77366	0	
0.3213	0.0682274	-1.42681	0	
0.3220	-0.545819	-2.02572	0	
0.3227	-0.545819	-1.42681	0	
0.3233	-1.46689	2.85363	0	
0.3240	-3.61605	4.36851	0	
0.3247	-4.2301	-2.9417	0	
0.3253	-4.84415	-8.43757	0	
0.3260	-5.7311	0.704599	0	
0.3267	-3.92308	13.5283	0	
0.3273	-1.15987	13.5283	0	
0.3280	-3.00201	7.11645	0	
0.3287	-7.57324	5.90102	0	
0.3293	-7.57324	4.68558	0	
0.3300	-4.2301	1.93765	0	
0.3307	-3.61605	1.32112	0	
0.3313	-4.84415	-0.21138	0	
0.3320	-3.92308	-1.72627	0	
0.3327	-1.15987	-0.510834	0	
0.3333	0.682274	0.405144	0	
0.3340	-0.238796	0.704599	0	
0.3347	-0.852842	2.85363	0	
0.3353	-0.238796	2.2371	0	
0.3360	-1.15987	-2.34279	0	
0.3367	-2.08094	-3.85768	0	
0.3373	-0.238796	-3.25877	0	
0.3380	1.56923	-4.4742	0	
0.3387	1.56923	-1.42681	0	
0.3393	3.41137	6.20047	0	
0.3400	5.56053	5.28449	0	
0.3407	4.94649	-2.9417	0	
0.3413	5.56053	-7.22214	0	
0.3420	6.17458	-4.77366	0	
0.3427	4.33244	0.704599	0	
0.3433	3.41137	7.43352	0	
0.3440	2.4903	8.64895	0	
0.3447	0.682274	9.26548	0	
0.3453	1.26221	21.1556	0	
0.3460	2.18328	26.352	0	
0.3467	-1.46689	1.62058	0	
0.3473	-6.34515	-31.337	0	
0.3480	-9.7224	-44.1431	0	
0.3487	-10.3365	-38.3478	0	
0.3493	-6.65217	-28.272	0	
0.3500	-4.84415	-20.3453	0	
0.3507	-7.88026	-16.0649	0	
0.3513	-6.65217	-9.35355	0	
0.3520	-2.08094	-3.55823	0	
0.3527	-3.30903	-3.85768	0	
0.3533	-3.00201	-2.64225	0	
0.3540	1.87625	5.28449	0	
0.3547	2.4903	11.3969	0	
0.3553	-0.238796	13.5283	0	
0.3560	-0.238796	13.2288	0	
0.3567	0.682274	9.86439	0	
0.3573	2.4903	5.28449	0	
0.3580	4.63946	-3.85768	0	
0.3587	2.4903	-13.9334	0	
0.3593	3.41137	-12.1015	0	
0.3600	7.06154	-2.9417	0	
0.3607	-0.545819	13.2288	0	
0.3613	-9.10836	39.7746	0	
0.3620	-4.2301	39.4752	0	
0.3627	0.0682274	-12.1015	0	
0.3633	-2.38796	-57.8828	0	
0.3640	-1.15987	-55.4343	0	
0.3647	0.0682274	-38.6473	0	
0.3653	-3.00201	-29.5051	0	
0.3660	-2.69498	-13.9334	0	
0.3667	-1.15987	4.06906	0	
0.3673	-4.84415	18.1082	0	
0.3680	-5.7311	23.9035	0	
0.3687	-3.00201	12.6123	0	
0.3693	-3.30903	-3.85768	0	
0.3700	-3.92308	-5.68964	0	
0.3707	-2.08094	0.704599	0	
0.3713	-2.38796	5.28449	0	
0.3720	-4.84415	6.817	0	
0.3727	-4.2301	-2.02572	0	
0.3733	-2.08094	-18.2139	0	
0.3740	-1.77391	-18.5133	0	
0.3747	-0.545819	1.93765	0	
0.3753	1.26221	16.8928	0	
0.3760	2.4903	11.9958	0	
0.3767	3.41137	4.06906	0	
0.3773	4.94649	3.45254	0	
0.3780	7.06154	3.15308	0	
0.3787	7.98261	1.62058	0	
0.3793	6.75451	4.36851	0	
0.3800	5.86756	8.94841	0	
0.3807	7.06154	14.4443	0	
0.3813	5.56053	15.3603	0	
0.3820	2.79732	3.76961	0	
0.3827	3.10435	-7.5216	0	
0.3833	2.79732	0.704599	0	
0.3840	2.4903	14.1448	0	
0.3847	3.71839	10.7804	0	
0.3853	2.4903	3.15308	0	
0.3860	0.375251	3.45254	0	
0.3867	0.0682274	2.85363	0	
0.3873	0.0682274	1.62058	0	
0.3880	-0.545819	3.45254	0	
0.3887	-1.15987	3.45254	0	
0.3893	-3.30903	2.53656	0	
0.3900	-3.61605	2.85363	0	
0.3907	-1.15987	0.704599	0	
0.3913	-1.15987	-2.9417	0	
0.3920	-2.69498	-1.72627	0	
0.3927	-3.00201	-0.21138	0	
0.3933	-3.00201	-2.64225	0	
0.3940	-1.46689	-2.9417	0	
0.3947	0.682274	0.405144	0	
0.3953	-1.15987	1.62058	0	
0.3960	-0.238796	-0.21138	0	
0.3967	4.33244	-1.10974	0	
0.3973	5.25351	-0.21138	0	
0.3980	3.41137	2.85363	0	
0.3987	4.33244	8.03243	0	
0.3993	5.86756	8.94841	0	
0.4000	7.36856	2.53656	0	
0.4007	9.51772	-4.77366	0	
0.4013	8.28963	-4.77366	0	
0.4020	6.17458	-1.42681	0	
0.4027	5.86756	-0.21138	0	
0.4033	2.4903	-5.39018	0	
0.4040	-2.08094	-15.466	0	
0.4047	-3.00201	-17.5974	0	
0.4053	-3.92308	-3.85768	0	
0.4060	-3.92308	12.3129	0	
0.4067	-2.08094	13.5283	0	
0.4073	-3.61605	5.60156	0	
0.4080	-5.7311	2.53656	0	
0.4087	-4.53712	3.45254	0	
0.4093	-3.30903	2.53656	0	
0.4100	-4.84415	0.704599	0	
0.4107	-3.92308	0.704599	0	
0.4113	-0.545819	1.32112	0	
0.4120	0.375251	1.32112	0	
0.4127	0.682274	0.704599	0	
0.4133	1.56923	-1.10974	0	
0.4140	1.56923	-0.810289	0	
0.4147	1.56923	0.10569	0	
0.4153	3.10435	-2.02572	0	
0.4160	4.33244	-3.25877	0	
0.4167	4.33244	-1.10974	0	
0.4173	7.36856	1.02167	0	
0.4180	8.59665	3.15308	0	
0.4187	6.17458	7.73298	0	
0.4193	6.17458	7.73298	0	
0.4200	6.75451	1.62058	0	
0.4207	3.41137	-1.10974	0	
0.4213	1.56923	0.405144	0	
0.4220	2.4903	2.53656	0	
0.4227	1.26221	6.20047	0	
0.4233	-0.238796	10.1815	0	
0.4240	0.682274	8.64895	0	
0.4247	-1.46689	1.32112	0	
0.4253	-3.61605	-2.9417	0	
0.4260	-2.38796	-1.42681	0	
0.4267	-3.30903	-2.34279	0	
0.4273	-5.7311	-8.13812	0	
0.4280	-5.11705	-9.0541	0	
0.4287	-3.30903	-4.77366	0	
0.4293	-3.00201	-5.09073	0	
0.4300	-4.2301	-5.68964	0	
0.4307	-6.03812	0.405144	0	
0.4313	-6.03812	4.36851	0	
0.4320	-3.61605	3.15308	0	
0.4327	-3.00201	4.06906	0	
0.4333	-3.92308	5.28449	0	
0.4340	-1.46689	3.45254	0	
0.4347	0.955184	1.32112	0	
0.4353	0.0682274	0.704599	0	
0.4360	0.682274	3.76961	0	
0.4367	3.41137	5.28449	0	
0.4373	4.33244	-3.85768	0	
0.4380	4.02542	-13.0175	0	
0.4387	4.02542	-11.1855	0	
0.4393	2.4903	4.36851	0	
0.4400	2.4903	34.2787	0	
0.4407	5.25351	52.5983	0	
0.4413	5.25351	26.6515	0	
0.4420	4.94649	-5.39018	0	
0.4427	5.25351	0.704599	0	
0.4433	2.4903	1.93765	0	
0.4440	-0.238796	-31.337	0	
0.4447	1.87625	-52.3869	0	
0.4453	3.10435	-39.8803	0	
0.4460	-0.545819	-23.0932	0	
0.4467	-3.00201	-8.13812	0	
0.4473	-1.77391	2.53656	0	
0.4480	-1.46689	-2.34279	0	
0.4487	-4.84415	-10.2695	0	
0.4493	-8.49431	-8.43757	0	
0.4500	-10.3365	-3.85768	0	
0.4507	-9.7224	-2.34279	0	
0.4513	-8.49431	-1.72627	0	
0.4520	-5.7311	-2.64225	0	
0.4527	-3.30903	-2.02572	0	
0.4533	-3.30903	-0.510834	0	
0.4540	-3.30903	-0.510834	0	
0.4547	-2.08094	-0.21138	0	
0.4553	-1.77391	0.704599	0	
0.4560	-2.38796	0.704599	0	
0.4567	-3.30903	0.704599	0	
0.4573	-1.46689	-0.21138	0	
0.4580	2.4903	-2.02572	0	
0.4587	4.94649	-3.25877	0	
0.4593	4.94649	-3.55823	0	
0.4600	7.06154	-3.85768	0	
0.4607	9.82474	-3.85768	0	
0.4613	10.4388	-3.55823	0	
0.4620	12.5538	-3.85768	0	
0.4627	13.4749	-4.4742	0	
0.4633	10.1318	-2.02572	0	
0.4640	7.36856	-2.34279	0	
0.4647	7.98261	-2.64225	0	
0.4653	6.17458	8.94841	0	
0.4660	3.41137	23.6041	0	
0.4667	4.02542	28.184	0	
0.4673	2.18328	31.8479	0	
0.4680	-3.00201	30.0159	0	
0.4687	-3.00201	2.85363	0	
0.4693	0.682274	-30.4211	0	
0.4700	-0.238796	-37.7313	0	
0.4707	-2.08094	-27.3561	0	
0.4713	-2.69498	-16.6814	0	
0.4720	-3.00201	-7.5216	0	
0.4727	-1.15987	-3.85768	0	
0.4733	0.375251	1.62058	0	
0.4740	-3.30903	13.8278	0	
0.4747	-5.11705	14.7437	0	
0.4753	-1.46689	2.53656	0	
0.4760	0.0682274	-1.42681	0	
0.4767	-0.545819	2.53656	0	
0.4773	0.682274	1.32112	0	
0.4780	1.26221	-1.42681	0	
0.4787	0.682274	-1.42681	0	
0.4793	1.87625	-0.21138	0	
0.4800	1.26221	2.53656	0	
0.4807	-0.238796	4.06906	0	
0.4813	-0.238796	0.704599	0	
0.4820	-1.46689	-3.85768	0	
0.4827	-4.84415	-3.85768	0	
0.4833	-3.92308	4.06906	0	
0.4840	-1.46689	9.86439	0	
0.4847	-2.08094	3.76961	0	
0.4853	-1.15987	-5.68964	0	
0.4860	2.4903	-7.83866	0	
0.4867	-0.238796	-5.09073	0	
0.4873	-7.57324	-2.9417	0	
0.4880	-7.88026	-1.42681	0	
0.4887	-3.92308	-0.810289	0	
0.4893	-6.03812	1.93765	0	
0.4900	-10.3365	4.36851	0	
0.4907	-10.3365	3.45254	0	
0.4913	-9.7224	4.68558	0	
0.4920	-8.80133	7.11645	0	
0.4927	-5.7311	3.76961	0	
0.4933	-4.53712	2.2371	0	
0.4940	-4.2301	8.03243	0	
0.4947	0.0682274	11.9958	0	
0.4953	3.10435	7.11645	0	
0.4960	3.41137	-3.55823	0	
0.4967	6.17458	-11.802	0	
0.4973	7.67558	-12.1015	0	
0.4980	7.36856	-7.83866	0	
0.4987	9.2107	-5.68964	0	
0.4993	10.1318	-3.85768	0	
0.5000	9.51772	-2.02572	0	
0.5007	9.2107	-1.10974	0	
0.5013	5.25351	1.02167	0	
0.5020	-1.15987	3.76961	0	
0.5027	-3.00201	1.62058	0	
0.5033	-3.30903	-2.02572	0	
0.5040	-6.34515	-2.02572	0	
0.5047	-5.7311	-0.21138	0	
0.5053	-3.92308	-1.10974	0	
0.5060	-4.84415	-2.9417	0	
0.5067	-4.84415	-5.68964	0	
0.5073	-4.53712	-11.1855	0	
0.5080	-8.80133	-11.5026	0	
0.5087	-11.8375	-6.60562	0	
0.5093	-7.57324	-6.60562	0	
0.5100	-3.30903	-8.13812	0	
0.5107	-4.53712	-5.68964	0	
0.5113	-3.92308	-6.30616	0	
0.5120	1.56923	3.45254	0	
0.5127	4.63946	31.8479	0	
0.5133	3.10435	43.738	0	
0.5140	3.41137	24.8195	0	
0.5147	5.25351	12.3129	0	
0.5153	3.41137	13.5283	0	
0.5160	2.4903	10.7804	0	
0.5167	4.02542	8.94841	0	
0.5173	2.4903	8.03243	0	
0.5180	0.682274	2.53656	0	
0.5187	3.10435	1.62058	0	
0.5193	4.33244	2.53656	0	
0.5200	2.4903	3.15308	0	
0.5207	0.955184	15.6597	0	
0.5213	0.682274	24.203	0	
0.5220	0.955184	3.76961	0	
0.5227	1.87625	-22.1773	0	
0.5233	0.682274	-28.272	0	
0.5240	0.375251	-22.4767	0	
0.5247	1.87625	-13.3169	0	
0.5253	0.682274	-6.60562	0	
0.5260	-0.852842	-8.43757	0	
0.5267	2.4903	-8.75464	0	
0.5273	3.10435	-3.55823	0	
0.5280	-2.69498	-1.72627	0	
0.5287	-5.11705	-1.72627	0	
0.5293	-4.53712	1.62058	0	
0.5300	-5.7311	0.405144	0	
0.5307	-4.2301	-3.25877	0	
0.5313	-3.00201	-2.02572	0	
0.5320	-6.03812	-1.10974	0	
0.5327	-7.57324	-2.34279	0	
0.5333	-5.11705	-1.10974	0	
0.5340	-5.7311	0.704599	0	
0.5347	-7.57324	-0.21138	0	
0.5353	-7.57324	-1.10974	0	
0.5360	-5.7311	-0.510834	0	
0.5367	-3.00201	-1.42681	0	
0.5373	-2.08094	-2.9417	0	
0.5380	-2.38796	-2.64225	0	
0.5387	-1.46689	0.10569	0	
0.5393	0.0682274	2.53656	0	
0.5400	1.56923	4.06906	0	
0.5407	3.41137	7.73298	0	
0.5413	2.18328	10.4809	0	
0.5420	1.26221	15.3603	0	
0.5427	5.86756	28.4834	0	
0.5433	8.90368	27.268	0	
0.5440	5.25351	-8.13812	0	
0.5447	2.4903	-41.7123	0	
0.5453	2.79732	-36.8153	0	
0.5460	1.56923	-15.7654	0	
0.5467	0.682274	-3.85768	0	
0.5473	0.682274	7.43352	0	
0.5480	-0.238796	19.3236	0	
0.5487	-1.15987	21.1556	0	
0.5493	-0.238796	14.7437	0	
0.5500	-0.545819	5.60156	0	
0.5507	-2.38796	-0.21138	0	
0.5513	-3.00201	-2.9417	0	
0.5520	-2.69498	-6.60562	0	
0.5527	-3.92308	-8.43757	0	
0.5533	-3.92308	-5.09073	0	
0.5540	-0.238796	-0.21138	0	
0.5547	1.56923	4.36851	0	
0.5553	-0.545819	8.3495	0	
0.5560	-0.545819	8.94841	0	
0.5567	2.18328	5.28449	0	
0.5573	2.18328	6.51754	0	
0.5580	1.56923	19.0242	0	
0.5587	2.4903	30.3154	0	
0.5593	0.682274	18.1082	0	
0.5600	-2.08094	-11.1855	0	
0.5607	-1.15987	-28.8886	0	
0.5613	-0.545819	-26.4401	0	
0.5620	-2.08094	-17.5974	0	
0.5627	-2.69498	-9.35355	0	
0.5633	-1.15987	-2.34279	0	
0.5640	-0.238796	1.62058	0	
0.5647	-0.852842	0.704599	0	
0.5653	-2.08094	0.704599	0	
0.5660	-2.08094	2.85363	0	
0.5667	-0.852842	1.32112	0	
0.5673	0.375251	-2.34279	0	
0.5680	-1.15987	-2.02572	0	
0.5687	-2.69498	0.405144	0	
0.5693	-1.46689	0.704599	0	
0.5700	-1.77391	0.704599	0	
0.5707	-3.92308	0.704599	0	
0.5713	-1.46689	0.704599	0	
0.5720	3.10435	1.93765	0	
0.5727	3.41137	1.62058	0	
0.5733	2.4903	-0.21138	0	
0.5740	2.18328	1.02167	0	
0.5747	2.18328	2.53656	0	
0.5753	2.4903	0.10569	0	
0.5760	0.955184	0.10569	0	
0.5767	1.26221	1.02167	0	
0.5773	5.56053	-1.72627	0	
0.5780	6.44749	-2.02572	0	
0.5787	3.41137	0.10569	0	
0.5793	4.33244	-3.85768	0	
0.5800	5.86756	-8.13812	0	
0.5807	4.33244	-6.00671	0	
0.5813	4.63946	-3.85768	0	
0.5820	4.33244	-6.00671	0	
0.5827	2.4903	-7.22214	0	
0.5833	2.79732	-5.68964	0	
0.5840	2.4903	-2.9417	0	
0.5847	0.375251	2.53656	0	
0.5853	1.26221	5.28449	0	
0.5860	1.87625	2.85363	0	
0.5867	-1.15987	1.02167	0	
0.5873	-2.08094	-1.10974	0	
0.5880	-2.69498	-6.60562	0	
0.5887	-4.84415	-8.43757	0	
0.5893	-3.92308	-0.810289	0	
0.5900	-3.92308	2.53656	0	
0.5907	-6.95919	-4.77366	0	
0.5913	-4.53712	-3.85768	0	
0.5920	-0.852842	9.86439	0	
0.5927	-3.30903	17.8087	0	
0.5933	-3.61605	18.1082	0	
0.5940	0.375251	19.6407	0	
0.5947	0.0682274	15.9768	0	
0.5953	-2.08094	7.73298	0	
0.5960	-2.38796	4.36851	0	
0.5967	-1.46689	3.15308	0	
0.5973	-0.852842	-1.10974	0	
0.5980	-0.238796	-3.85768	0	
0.5987	0.375251	-2.9417	0	
0.5993	2.4903	-2.9417	0	
0.6000	2.79732	-4.4742	0	
0.6007	0.0682274	-6.60562	0	
0.6013	-2.08094	-8.43757	0	
0.6020	-0.238796	-9.35355	0	
0.6027	-0.238796	-8.75464	0	
0.6033	-3.00201	-9.97008	0	
0.6040	-2.69498	-12.4009	0	
0.6047	0.682274	-3.85768	0	
0.6053	0.955184	17.4917	0	
0.6060	-0.238796	27.268	0	
0.6067	-1.77391	16.2762	0	
0.6073	-5.42408	8.03243	0	
0.6080	-6.65217	9.26548	0	
0.6087	-2.69498	10.1815	0	
0.6093	-1.15987	13.2288	0	
0.6100	-3.30903	15.0608	0	
0.6107	-4.84415	9.86439	0	
0.6113	-6.65217	18.1082	0	
0.6120	-7.57324	34.2787	0	
0.6127	-4.84415	16.8928	0	
0.6133	-2.08094	-32.8519	0	
0.6140	-0.238796	-65.8096	0	
0.6147	2.79732	-63.3787	0	
0.6153	2.4903	-42.9277	0	
0.6160	-0.238796	-23.0932	0	
0.6167	0.0682274	-15.1489	0	
0.6173	0.955184	-15.1489	0	
0.6180	1.56923	-13.3169	0	
0.6187	2.79732	-11.1855	0	
0.6193	-0.238796	-11.1855	0	
0.6200	-4.84415	-9.0541	0	
0.6207	-2.69498	-5.68964	0	
0.6213	1.56923	-5.09073	0	
0.6220	1.56923	-4.4742	0	
0.6227	0.955184	-1.42681	0	
0.6233	2.4903	-0.510834	0	
0.6240	0.682274	-3.85768	0	
0.6247	-3.00201	0.10569	0	
0.6253	-1.46689	12.6123	0	
0.6260	0.955184	19.6407	0	
0.6267	-2.08094	18.1082	0	
0.6273	-6.34515	20.8561	0	
0.6280	-4.84415	21.4727	0	
0.6287	-2.69498	10.7804	0	
0.6293	-3.92308	-1.72627	0	
0.6300	-3.30903	-7.5216	0	
0.6307	-1.15987	-16.3819	0	
0.6313	-2.08094	-23.3927	0	
0.6320	-5.42408	-18.5133	0	
0.6327	-4.53712	-8.75464	0	
0.6333	-2.08094	-3.85768	0	
0.6340	-1.15987	-1.72627	0	
0.6347	0.0682274	1.32112	0	
0.6353	0.682274	1.93765	0	
0.6360	-0.545819	0.10569	0	
0.6367	0.682274	-2.02572	0	
0.6373	3.41137	-2.9417	0	
0.6380	2.79732	-2.02572	0	
0.6387	2.4903	-1.42681	0	
0.6393	5.56053	-2.9417	0	
0.6400	7.06154	-3.85768	0	
0.6407	7.06154	-3.85768	0	
0.6413	9.2107	-3.25877	0	
0.6420	10.1318	-2.64225	0	
0.6427	6.44749	-1.42681	0	
0.6433	4.33244	0.405144	0	
0.6440	6.17458	1.32112	0	
0.6447	6.17458	0.704599	0	
0.6453	2.4903	1.32112	0	
0.6460	0.682274	1.32112	0	
0.6467	2.4903	-0.21138	0	
0.6473	2.79732	1.32112	0	
0.6480	-0.238796	4.68558	0	
0.6487	-0.545819	4.36851	0	
0.6493	2.18328	1.93765	0	
0.6500	0.375251	2.2371	0	
0.6507	-2.38796	3.45254	0	
0.6513	-1.77391	3.15308	0	
0.6520	-2.08094	2.85363	0	
0.6527	-3.61605	3.45254	0	
0.6533	-0.852842	3.45254	0	
0.6540	1.87625	1.62058	0	
0.6547	-0.238796	1.93765	0	
0.6553	-3.00201	3.76961	0	
0.6560	-3.00201	1.62058	0	
0.6567	-0.545819	-2.02572	0	
0.6573	0.682274	-2.02572	0	
0.6580	1.26221	-1.10974	0	
0.6587	2.4903	-2.34279	0	
0.6593	4.33244	-1.10974	0	
0.6600	4.02542	5.28449	0	
0.6607	3.41137	10.7804	0	
0.6613	3.41137	9.86439	0	
0.6620	3.10435	10.4809	0	
0.6627	3.41137	16.2762	0	
0.6633	4.94649	13.8278	0	
0.6640	3.41137	0.10569	0	
0.6647	-0.852842	-8.13812	0	
0.6653	-2.38796	-6.60562	0	
0.6660	0.0682274	-5.68964	0	
0.6667	-0.238796	-4.4742	0	
0.6673	-5.42408	-2.02572	0	
0.6680	-8.80133	-1.10974	0	
0.6687	-6.65217	-0.510834	0	
0.6693	-4.84415	0.704599	0	
0.6700	-5.11705	-0.810289	0	
0.6707	-4.84415	-0.810289	0	
0.6713	-5.11705	0.704599	0	
0.6720	-4.84415	-1.10974	0	
0.6727	-1.46689	-3.25877	0	
0.6733	0.955184	-4.17475	0	
0.6740	0.375251	-7.5216	0	
0.6747	1.56923	-8.75464	0	
0.6753	3.41137	-8.43757	0	
0.6760	2.79732	-12.1015	0	
0.6767	3.41137	-16.6814	0	
0.6773	5.25351	-15.1489	0	
0.6780	4.33244	-13.3169	0	
0.6787	3.71839	-15.466	0	
0.6793	5.25351	-13.9334	0	
0.6800	3.71839	-3.85768	0	
0.6807	2.4903	10.1815	0	
0.6813	3.41137	19.6407	0	
0.6820	2.4903	19.9402	0	
0.6827	0.375251	13.5283	0	
0.6833	0.955184	11.6963	0	
0.6840	1.87625	20.8561	0	
0.6847	0.375251	26.352	0	
0.6853	1.26221	13.2288	0	
0.6860	2.79732	-9.67062	0	
0.6867	0.0682274	-13.634	0	
0.6873	-3.92308	12.6123	0	
0.6880	-3.30903	33.6798	0	
0.6887	-0.852842	15.3603	0	
0.6893	-1.15987	-11.5026	0	
0.6900	-3.61605	-9.35355	0	
0.6907	-4.84415	-3.25877	0	
0.6913	-4.2301	-16.6814	0	
0.6920	-2.38796	-27.0566	0	
0.6927	-1.77391	-23.0932	0	
0.6933	-3.00201	-18.2139	0	
0.6940	-4.2301	-12.718	0	
0.6947	-4.84415	-6.00671	0	
0.6953	-5.42408	-3.85768	0	
0.6960	-5.7311	1.32112	0	
0.6967	-3.00201	8.94841	0	
0.6973	0.682274	9.26548	0	
0.6980	0.682274	4.36851	0	
0.6987	0.682274	2.53656	0	
0.6993	1.56923	-1.10974	0	
0.7000	0.0682274	-10.5866	0	
0.7007	0.375251	-15.7654	0	
0.7013	2.4903	-12.718	0	
0.7020	-0.852842	-8.43757	0	
0.7027	-3.92308	-6.30616	0	
0.7033	-1.15987	-5.09073	0	
0.7040	-0.238796	-4.77366	0	
0.7047	-2.38796	-4.4742	0	
0.7053	-2.38796	-2.9417	0	
0.7060	-2.69498	-0.21138	0	
0.7067	-3.30903	4.36851	0	
0.7073	-3.00201	8.3495	0	
0.7080	-4.53712	8.3495	0	
0.7087	-6.34515	10.4809	0	
0.7093	-6.34515	16.8928	0	
0.7100	-7.57324	22.6881	0	
0.7107	-7.88026	32.7639	0	
0.7113	-3.92308	39.4752	0	
0.7120	-0.545819	15.6597	0	
0.7127	0.0682274	-31.936	0	
0.7133	1.56923	-55.4343	0	
0.7140	2.4903	-42.3112	0	
0.7147	3.41137	-23.3927	0	
0.7153	5.56053	-13.3169	0	
0.7160	4.33244	-5.68964	0	
0.7167	2.79732	6.20047	0	
0.7173	5.86756	27.268	0	
0.7180	7.06154	41.3071	0	
0.7187	5.25351	25.7355	0	
0.7193	4.63946	-5.39018	0	
0.7200	4.94649	-16.9808	0	
0.7207	5.25351	-9.35355	0	
0.7213	9.51772	-4.4742	0	
0.7220	10.7458	-4.4742	0	
0.7227	5.86756	-1.10974	0	
0.7233	4.02542	2.53656	0	
0.7240	7.06154	3.76961	0	
0.7247	5.56053	6.20047	0	
0.7253	2.18328	6.51754	0	
0.7260	1.87625	-1.42681	0	
0.7267	1.56923	-10.2695	0	
0.7273	0.0682274	-15.7654	0	
0.7280	-1.15987	-22.7938	0	
0.7287	-3.61605	-24.3087	0	
0.7293	-4.84415	-13.0175	0	
0.7300	-2.08094	-2.02572	0	
0.7307	-0.852842	-0.510834	0	
0.7313	-3.00201	0.704599	0	
0.7320	-4.2301	1.62058	0	
0.7327	-3.00201	-0.810289	0	
0.7333	-2.08094	-2.9417	0	
0.7340	-1.15987	-0.810289	0	
0.7347	-1.15987	14.4443	0	
0.7353	-1.15987	34.8953	0	
0.7360	0.955184	28.184	0	
0.7367	2.18328	-3.55823	0	
0.7373	-0.238796	-20.6448	0	
0.7380	-1.77391	-15.466	0	
0.7387	0.0682274	-3.85768	0	
0.7393	1.56923	7.11645	0	
0.7400	0.0682274	10.1815	0	
0.7407	-2.69498	2.85363	0	
0.7413	-2.38796	-0.810289	0	
0.7420	-0.238796	0.405144	0	
0.7427	-1.15987	-2.9417	0	
0.7433	-3.30903	-4.17475	0	
0.7440	-3.61605	1.32112	0	
0.7447	-4.84415	6.51754	0	
0.7453	-5.7311	6.51754	0	
0.7460	-3.00201	5.90102	0	
0.7467	-2.69498	5.60156	0	
0.7473	-5.11705	4.68558	0	
0.7480	-2.69498	4.36851	0	
0.7487	-1.46689	4.06906	0	
0.7493	-5.7311	3.45254	0	
0.7500	-5.11705	3.15308	0	
0.7507	-1.46689	2.53656	0	
0.7513	-2.69498	2.53656	0	
0.7520	-1.77391	3.45254	0	
0.7527	2.18328	2.85363	0	
0.7533	1.87625	0.704599	0	
0.7540	1.56923	1.02167	0	
0.7547	4.33244	2.53656	0	
0.7553	3.71839	1.62058	0	
0.7560	1.56923	1.93765	0	
0.7567	2.18328	2.53656	0	
0.7573	2.4903	-0.810289	0	
0.7580	3.41137	-3.85768	0	
0.7587	4.63946	-2.64225	0	
0.7593	1.87625	-1.10974	0	
0.7600	0.375251	-2.34279	0	
0.7607	1.87625	-3.85768	0	
0.7613	-0.545819	-2.64225	0	
0.7620	-5.11705	-0.21138	0	
0.7627	-5.11705	-4.17475	0	
0.7633	-4.84415	-14.8494	0	
0.7640	-7.26622	-13.9334	0	
0.7647	-7.26622	6.51754	0	
0.7653	-5.7311	25.7355	0	
0.7660	-6.65217	25.7355	0	
0.7667	-7.26622	16.8928	0	
0.7673	-6.95919	8.64895	0	
0.7680	-8.18729	4.36851	0	
0.7687	-8.49431	8.94841	0	
0.7693	-7.57324	16.5757	0	
0.7700	-8.18729	21.7721	0	
0.7707	-7.57324	28.4834	0	
0.7713	-4.84415	16.2762	0	
0.7720	-4.84415	-19.4293	0	
0.7727	-9.10836	-31.337	0	
0.7733	-10.6094	-7.22214	0	
0.7740	-8.18729	1.62058	0	
0.7747	-6.03812	-12.1015	0	
0.7753	-5.7311	-16.0649	0	
0.7760	-5.7311	-10.2695	0	
0.7767	-5.7311	-5.09073	0	
0.7773	-3.92308	3.45254	0	
0.7780	0.682274	3.76961	0	
0.7787	4.33244	-9.35355	0	
0.7793	2.4903	-21.2613	0	
0.7800	-0.238796	-23.3927	0	
0.7807	0.0682274	-17.8968	0	
0.7813	1.26221	-8.75464	0	
0.7820	0.375251	3.45254	0	
0.7827	-0.238796	20.8561	0	
0.7833	0.682274	27.268	0	
0.7840	1.56923	2.53656	0	
0.7847	2.79732	-25.8412	0	
0.7853	3.71839	-21.5607	0	
0.7860	4.33244	3.15308	0	
0.7867	4.02542	19.0242	0	
0.7873	2.4903	18.4077	0	
0.7880	1.87625	6.20047	0	
0.7887	1.87625	-3.85768	0	
0.7893	-1.15987	-2.9417	0	
0.7900	-3.30903	0.704599	0	
0.7907	-0.238796	1.93765	0	
0.7913	2.18328	5.28449	0	
0.7920	0.0682274	6.817	0	
0.7927	0.682274	5.28449	0	
0.7933	3.41137	4.68558	0	
0.7940	2.4903	2.53656	0	
0.7947	1.56923	-0.510834	0	
0.7953	2.4903	1.62058	0	
0.7960	1.87625	3.45254	0	
0.7967	0.375251	3.76961	0	
0.7973	0.682274	9.26548	0	
0.7980	1.87625	6.51754	0	
0.7987	3.10435	-12.4009	0	
0.7993	4.02542	-24.6081	0	
0.8000	4.33244	-18.5133	0	
0.8007	4.33244	-7.5216	0	
0.8013	4.33244	3.15308	0	
0.8020	3.10435	8.64895	0	
0.8027	2.4903	2.85363	0	
0.8033	1.87625	-2.02572	0	
0.8040	2.18328	-1.72627	0	
0.8047	4.02542	-4.4742	0	
0.8053	3.41137	-2.9417	0	
0.8060	-1.15987	6.817	0	
0.8067	-3.00201	8.94841	0	
0.8073	-0.238796	5.28449	0	
0.8080	-1.15987	6.817	0	
0.8087	-6.95919	7.73298	0	
0.8093	-9.41538	4.36851	0	
0.8100	-8.49431	6.20047	0	
0.8107	-7.88026	9.86439	0	
0.8113	-7.57324	11.3969	0	
0.8120	-6.03812	15.6597	0	
0.8127	-4.84415	20.8561	0	
0.8133	-4.2301	16.8928	0	
0.8140	-4.53712	4.68558	0	
0.8147	-4.2301	-6.30616	0	
0.8153	-3.92308	-9.35355	0	
0.8160	-4.2301	-4.17475	0	
0.8167	-2.69498	1.02167	0	
0.8173	1.56923	4.36851	0	
0.8180	2.4903	6.817	0	
0.8187	1.26221	4.06906	0	
0.8193	1.56923	-1.10974	0	
0.8200	2.79732	4.68558	0	
0.8207	2.18328	8.03243	0	
0.8213	2.4903	-13.0175	0	
0.8220	3.41137	-36.8153	0	
0.8227	1.87625	-34.085	0	
0.8233	-0.545819	-19.4293	0	
0.8240	-0.852842	-13.9334	0	
0.8247	0.0682274	-11.5026	0	
0.8253	0.0682274	-5.39018	0	
0.8260	-1.15987	2.85363	0	
0.8267	-0.238796	8.3495	0	
0.8273	2.4903	6.20047	0	
0.8280	1.87625	1.93765	0	
0.8287	0.0682274	1.62058	0	
0.8293	1.26221	2.53656	0	
0.8300	2.4903	1.62058	0	
0.8307	2.4903	-1.72627	0	
0.8313	3.41137	-3.55823	0	
0.8320	4.33244	-2.34279	0	
0.8327	4.02542	-1.10974	0	
0.8333	6.17458	-2.02572	0	
0.8340	7.98261	-1.10974	0	
0.8347	5.86756	2.2371	0	
0.8353	3.41137	2.53656	0	
0.8360	4.33244	1.62058	0	
0.8367	4.63946	1.93765	0	
0.8373	3.41137	2.53656	0	
0.8380	4.63946	4.68558	0	
0.8387	7.06154	4.36851	0	
0.8393	6.17458	-4.77366	0	
0.8400	2.4903	-13.9334	0	
0.8407	1.56923	-12.718	0	
0.8413	2.79732	-6.92269	0	
0.8420	2.4903	-3.85768	0	
0.8427	0.682274	-2.34279	0	
0.8433	0.682274	-2.9417	0	
0.8440	0.682274	-2.02572	0	
0.8447	-0.238796	0.704599	0	
0.8453	-1.46689	-0.21138	0	
0.8460	-0.545819	-2.34279	0	
0.8467	0.0682274	1.62058	0	
0.8473	-1.46689	3.76961	0	
0.8480	-2.69498	0.704599	0	
0.8487	-1.15987	-0.21138	0	
0.8493	0.682274	1.62058	0	
0.8500	0.375251	2.53656	0	
0.8507	-3.00201	1.93765	0	
0.8513	-6.65217	1.02167	0	
0.8520	-6.65217	0.405144	0	
0.8527	-4.84415	-0.21138	0	
0.8533	-3.61605	-0.810289	0	
0.8540	-1.46689	0.704599	0	
0.8547	-0.852842	2.53656	0	
0.8553	-1.46689	0.405144	0	
0.8560	2.18328	-2.02572	0	
0.8567	6.75451	-2.02572	0	
0.8573	7.06154	-1.72627	0	
0.8580	5.25351	-2.34279	0	
0.8587	5.86756	-3.25877	0	
0.8593	5.25351	-4.4742	0	
0.8600	4.94649	-4.4742	0	
0.8607	5.25351	-4.77366	0	
0.8613	5.25351	-5.68964	0	
0.8620	4.94649	-2.02572	0	
0.8627	3.71839	3.45254	0	
0.8633	1.56923	4.36851	0	
0.8640	0.955184	3.76961	0	
0.8647	1.26221	2.85363	0	
0.8653	-1.15987	-1.42681	0	
0.8660	-1.15987	-5.39018	0	
0.8667	1.26221	-7.22214	0	
0.8673	-0.238796	-7.83866	0	
0.8680	-3.00201	-1.72627	0	
0.8687	-1.46689	11.6963	0	
0.8693	1.56923	14.7437	0	
0.8700	2.4903	0.704599	0	
0.8707	0.955184	-13.0175	0	
0.8713	-0.238796	-11.1855	0	
0.8720	1.56923	-0.21138	0	
0.8727	4.33244	5.90102	0	
0.8733	2.4903	4.36851	0	
0.8740	0.0682274	3.76961	0	
0.8747	0.682274	4.36851	0	
0.8753	0.375251	7.11645	0	
0.8760	-2.38796	22.0716	0	
0.8767	-2.69498	44.3545	0	
0.8773	0.682274	50.4493	0	
0.8780	2.4903	28.7829	0	
0.8787	1.56923	-11.1855	0	
0.8793	2.18328	-43.5442	0	
0.8800	3.41137	-44.4602	0	
0.8807	1.56923	-21.8778	0	
0.8813	-0.238796	-2.64225	0	
0.8820	1.26221	5.28449	0	
0.8827	2.4903	1.02167	0	
0.8833	2.4903	-12.1015	0	
0.8840	0.955184	-18.8128	0	
0.8847	-2.08094	-13.0175	0	
0.8853	-3.00201	-8.75464	0	
0.8860	0.682274	-13.634	0	
0.8867	1.56923	-22.7938	0	
0.8873	-2.69498	-33.169	0	
0.8880	-5.42408	-38.3478	0	
0.8887	-5.42408	-35.001	0	
0.8893	-4.84415	-26.7572	0	
0.8900	-4.2301	-17.5974	0	
0.8907	-5.42408	-10.2695	0	
0.8913	-7.57324	-5.68964	0	
0.8920	-7.26622	-3.55823	0	
0.8927	-4.53712	5.28449	0	
0.8933	-2.38796	30.3154	0	
0.8940	-1.77391	61.1416	0	
0.8947	-1.15987	79.4435	0	
0.8953	-0.545819	88.3039	0	
0.8960	-0.238796	73.6482	0	
0.8967	1.56923	15.3603	0	
0.8973	2.79732	-41.3952	0	
0.8980	2.4903	-42.6282	0	
0.8987	2.4903	-13.0175	0	
0.8993	3.41137	0.704599	0	
0.9000	2.18328	1.93765	0	
0.9007	2.18328	-3.85768	0	
0.9013	4.02542	-20.0458	0	
0.9020	1.87625	-29.188	0	
0.9027	-2.38796	-16.6814	0	
0.9033	-1.15987	2.53656	0	
0.9040	1.56923	8.94841	0	
0.9047	0.375251	4.06906	0	
0.9053	-3.92308	1.62058	0	
0.9060	-6.95919	4.98504	0	
0.9067	-7.26622	4.98504	0	
0.9073	-6.34515	4.06906	0	
0.9080	-5.7311	9.86439	0	
0.9087	-5.11705	12.3129	0	
0.9093	-6.65217	-2.64225	0	
0.9100	-8.49431	-18.5133	0	
0.9107	-5.7311	-15.1489	0	
0.9113	-3.30903	-4.17475	0	
0.9120	-5.7311	-2.64225	0	
0.9127	-6.65217	-3.85768	0	
0.9133	-2.38796	-3.55823	0	
0.9140	0.682274	-3.85768	0	
0.9147	-0.852842	-4.77366	0	
0.9153	-2.08094	-3.85768	0	
0.9160	-0.238796	-3.85768	0	
0.9167	1.56923	-4.4742	0	
0.9173	0.375251	-4.77366	0	
0.9180	0.0682274	-5.68964	0	
0.9187	2.4903	-4.77366	0	
0.9193	1.26221	0.405144	0	
0.9200	-1.15987	7.73298	0	
0.9207	-0.238796	12.6123	0	
0.9213	-0.238796	10.7804	0	
0.9220	-0.852842	1.62058	0	
0.9227	0.375251	-4.17475	0	
0.9233	0.0682274	-2.02572	0	
0.9240	-2.69498	2.2371	0	
0.9247	-5.7311	4.06906	0	
0.9253	-8.49431	3.76961	0	
0.9260	-9.10836	2.53656	0	
0.9267	-5.7311	2.53656	0	
0.9273	-3.92308	2.85363	0	
0.9280	-6.34515	1.62058	0	
0.9287	-7.88026	1.93765	0	
0.9293	-5.7311	5.28449	0	
0.9300	-2.08094	5.28449	0	
0.9307	-0.852842	2.53656	0	
0.9313	-3.92308	2.85363	0	
0.9320	-5.42408	3.45254	0	
0.9327	-3.30903	3.45254	0	
0.9333	-1.15987	3.76961	0	
0.9340	-0.238796	0.704599	0	
0.9347	1.87625	-2.64225	0	
0.9353	2.4903	-2.02572	0	
0.9360	1.26221	-1.10974	0	
0.9367	0.955184	-0.21138	0	
0.9373	1.56923	3.76961	0	
0.9380	-0.238796	4.06906	0	
0.9387	-1.15987	-2.02572	0	
0.9393	1.56923	-5.09073	0	
0.9400	3.10435	-3.55823	0	
0.9407	2.4903	1.32112	0	
0.9413	2.4903	17.8087	0	
0.9420	2.18328	44.971	0	
0.9427	-0.238796	48.3179	0	
0.9433	-2.08094	1.93765	0	
0.9440	-2.08094	-55.1349	0	
0.9447	-0.852842	-73.4368	0	
0.9453	0.682274	-62.1456	0	
0.9460	-0.545819	-44.7597	0	
0.9467	-2.38796	-13.3169	0	
0.9473	-2.08094	19.9402	0	
0.9480	-2.08094	28.184	0	
0.9487	-4.84415	26.0349	0	
0.9493	-5.11705	27.268	0	
0.9500	-3.00201	13.5283	0	
0.9507	-2.08094	-1.10974	0	
0.9513	-0.238796	11.6963	0	
0.9520	2.18328	24.52	0	
0.9527	0.955184	4.68558	0	
0.9533	-0.545819	-13.9334	0	
0.9540	0.682274	-2.02572	0	
0.9547	1.26221	19.0242	0	
0.9553	-1.15987	25.7355	0	
0.9560	-2.08094	19.0242	0	
0.9567	0.375251	6.51754	0	
0.9573	2.79732	-3.25877	0	
0.9580	5.25351	-4.4742	0	
0.9587	4.63946	-1.72627	0	
0.9593	2.4903	1.62058	0	
0.9600	1.56923	1.62058	0	
0.9607	2.4903	-6.60562	0	
0.9613	2.4903	-15.466	0	
0.9620	3.71839	-12.718	0	
0.9627	3.41137	-4.77366	0	
0.9633	0.375251	-2.02572	0	
0.9640	-2.69498	-2.34279	0	
0.9647	-2.69498	-1.10974	0	
0.9653	-2.08094	-1.10974	0	
0.9660	-1.77391	-2.64225	0	
0.9667	-1.15987	-3.55823	0	
0.9673	-2.08094	-2.02572	0	
0.9680	-4.84415	0.704599	0	
0.9687	-5.7311	1.02167	0	
0.9693	-3.61605	1.62058	0	
0.9700	-1.15987	2.53656	0	
0.9707	-0.545819	0.405144	0	
0.9713	-1.77391	-2.02572	0	
0.9720	-1.46689	-1.10974	0	
0.9727	0.682274	-0.21138	0	
0.9733	1.26221	-1.10974	0	
0.9740	-1.46689	0.704599	0	
0.9747	-1.15987	1.62058	0	
0.9753	3.41137	0.10569	0	
0.9760	5.86756	-1.10974	0	
0.9767	4.33244	-3.85768	0	
0.9773	3.41137	-8.43757	0	
0.9780	3.41137	-6.60562	0	
0.9787	1.87625	-2.02572	0	
0.9793	2.18328	-0.810289	0	
0.9800	4.94649	4.36851	0	
0.9807	5.86756	20.5567	0	
0.9813	4.02542	45.5699	0	
0.9820	2.4903	65.105	0	
0.9827	2.4903	49.2339	0	
0.9833	2.4903	-7.5216	0	
0.9840	2.18328	-56.0509	0	
0.9847	1.56923	-57.8828	0	
0.9853	1.56923	-34.085	0	
0.9860	1.26221	-18.2139	0	
0.9867	-1.46689	-10.2695	0	
0.9873	-3.00201	-2.02572	0	
0.9880	-1.15987	3.76961	0	
0.9887	-0.545819	0.405144	0	
0.9893	-2.38796	-6.92269	0	
0.9900	-1.77391	-7.83866	0	
0.9907	0.375251	-3.85768	0	
0.9913	0.0682274	-3.55823	0	
0.9920	-0.238796	-3.85768	0	
0.9927	0.682274	-1.10974	0	
0.9933	0.682274	-1.10974	0	
0.9940	1.56923	-4.17475	0	
0.9947	2.79732	-2.64225	0	
0.9953	2.18328	0.704599	0	
0.9960	2.4903	-1.10974	0	
0.9967	5.25351	-3.85768	0	
0.9973	4.63946	-2.02572	0	
0.9980	4.63946	0.405144	0	
0.9987	9.2107	-1.10974	0	
0.9993	10.7458	-2.02572	0	
1.0000	9.51772	0.704599	0	
1.0007	11.0528	2.53656	0	
1.0013	10.7458	3.15308	0	
1.0020	6.17458	7.11645	0	
1.0027	4.94649	11.6963	0	
1.0033	4.94649	18.7247	0	
1.0040	2.79732	32.7639	0	
1.0047	1.56923	32.7639	0	
1.0053	2.4903	-1.72627	0	
1.0060	4.33244	-40.4792	0	
1.0067	1.87625	-45.0591	0	
1.0073	-3.30903	-24.9252	0	
1.0080	-3.92308	-10.2695	0	
1.0087	0.0682274	-7.83866	0	
1.0093	-0.238796	-1.10974	0	
1.0100	-2.38796	19.0242	0	
1.0107	-0.238796	33.3628	0	
1.0113	0.955184	21.7721	0	
1.0120	-2.08094	-3.85768	0	
1.0127	-3.00201	-19.7288	0	
1.0133	-1.77391	-19.1299	0	
1.0140	-2.08094	-9.67062	0	
1.0147	-0.238796	-6.00671	0	
1.0153	1.87625	-8.13812	0	
1.0160	0.375251	-5.09073	0	
1.0167	-1.46689	-2.02572	0	
1.0173	0.0682274	-3.85768	0	
1.0180	-0.238796	-3.25877	0	
1.0187	-2.69498	-1.72627	0	
1.0193	-0.852842	-1.42681	0	
1.0200	1.56923	8.94841	0	
1.0207	0.375251	24.203	0	
1.0213	0.0682274	26.0349	0	
1.0220	3.41137	14.1448	0	
1.0227	4.63946	-12.1015	0	
1.0233	2.4903	-38.6473	0	
1.0240	0.682274	-27.6731	0	
1.0247	-0.238796	9.56493	0	
1.0253	-1.15987	20.8561	0	
1.0260	-0.238796	6.51754	0	
1.0267	0.0682274	1.62058	0	
1.0273	-1.46689	2.2371	0	
1.0280	-3.00201	-2.34279	0	
1.0287	-4.84415	-3.85768	0	
1.0293	-6.03812	-0.810289	0	
1.0300	-4.53712	-0.21138	0	
1.0307	-3.92308	0.704599	0	
1.0313	-6.03812	1.93765	0	
1.0320	-5.42408	0.10569	0	
1.0327	-3.92308	-1.72627	0	
1.0333	-6.65217	1.32112	0	
1.0340	-6.95919	5.28449	0	
1.0347	-1.15987	8.94841	0	
1.0353	0.955184	13.5283	0	
1.0360	-0.545819	10.1815	0	
1.0367	0.375251	-3.85768	0	
1.0373	2.4903	-14.8494	0	
1.0380	3.41137	-14.8494	0	
1.0387	5.86756	-11.1855	0	
1.0393	8.59665	-8.43757	0	
1.0400	8.90368	-9.67062	0	
1.0407	7.36856	-16.0649	0	
1.0413	4.94649	-20.6448	0	
1.0420	4.02542	-18.2139	0	
1.0427	5.25351	-12.4009	0	
1.0433	4.63946	-6.00671	0	
1.0440	1.56923	2.53656	0	
1.0447	0.375251	15.6597	0	
1.0453	2.4903	27.268	0	
1.0460	0.682274	25.119	0	
1.0467	-3.92308	11.9958	0	
1.0473	-3.00201	6.20047	0	
1.0480	-0.852842	9.26548	0	
1.0487	-3.61605	6.51754	0	
1.0493	-4.84415	-4.17475	0	
1.0500	-1.46689	-11.1855	0	
1.0507	-1.15987	-9.35355	0	
1.0513	-3.30903	-5.39018	0	
1.0520	-1.77391	-3.25877	0	
1.0527	0.375251	-2.9417	0	
1.0533	-1.15987	-3.25877	0	
1.0540	-3.92308	-3.85768	0	
1.0547	-5.42408	-2.9417	0	
1.0553	-4.53712	-1.10974	0	
1.0560	-2.38796	-2.64225	0	
1.0567	-1.77391	-5.09073	0	
1.0573	-2.69498	-3.85768	0	
1.0580	-2.08094	0.10569	0	
1.0587	0.0682274	1.93765	0	
1.0593	1.56923	0.10569	0	
1.0600	1.87625	-0.21138	0	
1.0607	1.56923	1.62058	0	
1.0613	1.87625	2.53656	0	
1.0620	2.4903	0.704599	0	
1.0627	1.87625	0.405144	0	
1.0633	-0.238796	0.704599	0	
1.0640	-2.08094	-1.72627	0	
1.0647	-0.545819	-9.0541	0	
1.0653	0.955184	-19.4293	0	
1.0660	-1.15987	-24.6081	0	
1.0667	-3.61605	-16.9808	0	
1.0673	-3.92308	-1.42681	0	
1.0680	-4.84415	6.817	0	
1.0687	-5.7311	4.06906	0	
1.0693	-6.65217	4.98504	0	
1.0700	-8.80133	13.5283	0	
1.0707	-9.10836	17.4917	0	
1.0713	-7.88026	17.4917	0	
1.0720	-7.88026	26.6515	0	
1.0727	-7.57324	43.738	0	
1.0733	-6.34515	55.6457	0	
1.0740	-4.84415	48.3179	0	
1.0747	-1.46689	14.1448	0	
1.0753	1.56923	-30.4211	0	
1.0760	0.955184	-52.3869	0	
1.0767	1.26221	-42.9277	0	
1.0773	3.71839	-22.1773	0	
1.0780	4.63946	-4.4742	0	
1.0787	3.41137	0.704599	0	
1.0793	4.33244	-14.2329	0	
1.0800	6.17458	-31.6365	0	
1.0807	7.06154	-29.188	0	
1.0813	7.36856	-14.8494	0	
1.0820	7.06154	-2.34279	0	
1.0827	5.25351	2.53656	0	
1.0833	5.56053	-3.85768	0	
1.0840	6.44749	-3.85768	0	
1.0847	6.17458	13.5283	0	
1.0853	6.17458	14.4443	0	
1.0860	5.25351	-8.13812	0	
1.0867	1.56923	-11.1855	0	
1.0873	-1.46689	7.11645	0	
1.0880	-1.46689	11.9958	0	
1.0887	-1.46689	7.11645	0	
1.0893	-2.08094	8.94841	0	
1.0900	-0.852842	9.26548	0	
1.0907	-0.238796	5.90102	0	
1.0913	-1.46689	0.704599	0	
1.0920	-2.08094	-10.2695	0	
1.0927	-1.15987	-19.4293	0	
1.0933	-1.46689	-19.4293	0	
1.0940	-3.92308	-19.4293	0	
1.0947	-5.42408	-15.7654	0	
1.0953	-5.7311	-7.5216	0	
1.0960	-5.7311	-13.0175	0	
1.0967	-3.30903	-24.0092	0	
1.0973	-0.545819	-8.13812	0	
1.0980	-0.545819	25.119	0	
1.0987	-1.15987	43.1391	0	
1.0993	0.375251	40.3911	0	
1.1000	0.955184	26.6515	0	
1.1007	0.955184	10.1815	0	
1.1013	-0.238796	1.93765	0	
1.1020	-2.08094	2.53656	0	
1.1027	-0.545819	4.06906	0	
1.1033	1.87625	7.43352	0	
1.1040	-0.852842	12.6123	0	
1.1047	-3.61605	11.3969	0	
1.1053	-1.15987	5.28449	0	
1.1060	-1.15987	1.02167	0	
1.1067	-3.92308	-0.510834	0	
1.1073	-3.61605	1.32112	0	
1.1080	-3.92308	4.36851	0	
1.1087	-6.65217	5.60156	0	
1.1093	-7.26622	6.51754	0	
1.1100	-6.65217	3.76961	0	
1.1107	-6.65217	-8.43757	0	
1.1113	-5.7311	-19.4293	0	
1.1120	-5.42408	-17.5974	0	
1.1127	-4.84415	-10.2695	0	
1.1133	-2.08094	-2.9417	0	
1.1140	0.0682274	4.98504	0	
1.1147	0.375251	5.28449	0	
1.1153	1.26221	-1.72627	0	
1.1160	1.56923	-9.0541	0	
1.1167	2.18328	-19.4293	0	
1.1173	4.94649	-26.7572	0	
1.1180	7.67558	-24.6081	0	
1.1187	6.75451	-21.8778	0	
1.1193	4.94649	-20.3453	0	
1.1200	3.41137	-16.9808	0	
1.1207	2.18328	-16.0649	0	
1.1213	1.87625	1.32112	0	
1.1220	3.41137	39.1581	0	
1.1227	5.86756	47.4019	0	
1.1233	5.56053	16.2762	0	
1.1240	3.41137	0.10569	0	
1.1247	1.87625	9.86439	0	
1.1253	1.26221	10.1815	0	
1.1260	1.56923	5.90102	0	
1.1267	2.4903	10.7804	0	
1.1273	1.56923	12.9118	0	
1.1280	-3.92308	8.64895	0	
1.1287	-6.34515	2.2371	0	
1.1293	-3.61605	-7.83866	0	
1.1300	-2.69498	-16.0649	0	
1.1307	-3.61605	-13.9334	0	
1.1313	-1.15987	-7.22214	0	
1.1320	-0.238796	-2.9417	0	
1.1327	-1.77391	-4.17475	0	
1.1333	-1.46689	-8.75464	0	
1.1340	-0.852842	-7.5216	0	
1.1347	-2.08094	-1.42681	0	
1.1353	-0.238796	-1.10974	0	
1.1360	2.4903	-4.17475	0	
1.1367	2.18328	-3.85768	0	
1.1373	1.26221	-4.17475	0	
1.1380	3.41137	-6.00671	0	
1.1387	4.33244	-2.02572	0	
1.1393	1.87625	1.02167	0	
1.1400	0.682274	-3.85768	0	
1.1407	2.79732	-4.17475	0	
1.1413	4.02542	1.93765	0	
1.1420	2.18328	-0.510834	0	
1.1427	1.56923	-9.35355	0	
1.1433	5.56053	-11.1855	0	
1.1440	7.06154	-9.0541	0	
1.1447	2.79732	-8.75464	0	
1.1453	1.26221	-2.64225	0	
1.1460	3.10435	8.3495	0	
1.1467	2.4903	11.3969	0	
1.1473	0.0682274	11.6963	0	
1.1480	0.375251	22.6881	0	
1.1487	-0.852842	26.0349	0	
1.1493	-3.92308	-0.21138	0	
1.1500	-4.84415	-27.6731	0	
1.1507	-4.2301	-19.1299	0	
1.1513	-5.7311	8.03243	0	
1.1520	-7.26622	18.7247	0	
1.1527	-8.18729	8.94841	0	
1.1533	-9.7224	-4.77366	0	
1.1540	-10.3365	-7.22214	0	
1.1547	-7.57324	0.704599	0	
1.1553	-5.42408	6.20047	0	
1.1560	-5.7311	10.7804	0	
1.1567	-5.11705	15.3603	0	
1.1573	-2.69498	6.817	0	
1.1580	-0.545819	-7.22214	0	
1.1587	0.955184	-5.09073	0	
1.1593	2.4903	7.11645	0	
1.1600	1.56923	26.352	0	
1.1607	-1.46689	48.3179	0	
1.1613	-2.69498	34.2787	0	
1.1620	-2.38796	-21.8778	0	
1.1627	-3.00201	-62.7622	0	
1.1633	-4.84415	-61.5467	0	
1.1640	-7.26622	-34.3844	0	
1.1647	-6.65217	5.60156	0	
1.1653	-2.38796	29.6989	0	
1.1660	-0.238796	15.9768	0	
1.1667	-2.08094	-1.10974	0	
1.1673	-3.00201	4.36851	0	
1.1680	-3.00201	10.4809	0	
1.1687	-3.61605	8.03243	0	
1.1693	-3.61605	7.11645	0	
1.1700	-3.00201	4.98504	0	
1.1707	-2.69498	3.45254	0	
1.1713	-2.08094	8.94841	0	
1.1720	-3.00201	12.9118	0	
1.1727	-3.92308	10.4809	0	
1.1733	-3.92308	6.817	0	
1.1740	-3.92308	1.32112	0	
1.1747	-3.00201	-3.85768	0	
1.1753	-2.69498	-3.25877	0	
1.1760	-4.2301	0.10569	0	
1.1767	-4.84415	0.405144	0	
1.1773	-3.00201	-0.510834	0	
1.1780	-3.00201	-1.42681	0	
1.1787	-3.00201	-2.34279	0	
1.1793	1.26221	-2.34279	0	
1.1800	1.87625	-2.9417	0	
1.1807	-0.545819	-3.85768	0	
1.1813	1.56923	-3.85768	0	
1.1820	3.41137	-3.85768	0	
1.1827	1.87625	-3.25877	0	
1.1833	3.41137	-2.9417	0	
1.1840	5.56053	-5.68964	0	
1.1847	4.33244	-6.92269	0	
1.1853	3.41137	-4.4742	0	
1.1860	2.4903	-4.77366	0	
1.1867	0.955184	-4.77366	0	
1.1873	2.79732	-0.810289	0	
1.1880	2.79732	-0.21138	0	
1.1887	-2.38796	0.704599	0	
1.1893	-2.69498	8.03243	0	
1.1900	2.4903	7.11645	0	
1.1907	1.56923	2.53656	0	
1.1913	-2.08094	14.4443	0	
1.1920	-1.15987	25.7355	0	
1.1927	0.682274	11.9958	0	
1.1933	0.375251	-4.4742	0	
1.1940	-1.15987	-2.02572	0	
1.1947	-1.15987	5.28449	0	
1.1953	1.26221	5.28449	0	
1.1960	1.56923	3.15308	0	
1.1967	-1.46689	-2.02572	0	
1.1973	-1.15987	-12.718	0	
1.1980	2.4903	-22.1773	0	
1.1987	3.71839	-22.7938	0	
1.1993	4.63946	-15.7654	0	
1.2000	5.56053	-9.67062	0	
1.2007	5.25351	-9.35355	0	
1.2013	6.17458	-8.43757	0	
1.2020	6.75451	-7.5216	0	
1.2027	6.17458	-9.35355	0	
1.2033	6.17458	-4.77366	0	
1.2040	6.75451	6.817	0	
1.2047	6.17458	11.0974	0	
1.2053	6.17458	5.90102	0	
1.2060	6.17458	0.704599	0	
1.2067	4.94649	-2.02572	0	
1.2073	3.10435	-1.10974	0	
1.2080	2.79732	-0.21138	0	
1.2087	2.4903	-2.64225	0	
1.2093	2.4903	-3.55823	0	
1.2100	1.87625	-2.9417	0	
1.2107	1.56923	-3.85768	0	
1.2113	1.56923	-0.810289	0	
1.2120	0.955184	2.53656	0	
1.2127	-0.545819	-2.9417	0	
1.2133	-2.38796	-7.5216	0	
1.2140	-3.92308	-5.68964	0	
1.2147	-2.69498	-6.00671	0	
1.2153	1.56923	-7.5216	0	
1.2160	3.10435	-2.9417	0	
1.2167	0.955184	1.32112	0	
1.2173	0.682274	1.62058	0	
1.2180	2.4903	2.53656	0	
1.2187	1.26221	1.62058	0	
1.2193	-2.08094	1.02167	0	
1.2200	0.0682274	3.15308	0	
1.2207	4.94649	5.28449	0	
1.2213	7.06154	16.5757	0	
1.2220	7.06154	37.9427	0	
1.2227	8.28963	37.3261	0	
1.2233	9.82474	5.28449	0	
1.2240	8.90368	-18.2139	0	
1.2247	7.06154	-16.9808	0	
1.2253	7.06154	-13.0175	0	
1.2260	6.44749	-10.8861	0	
1.2267	3.71839	-0.21138	0	
1.2273	2.4903	13.5283	0	
1.2280	2.4903	12.6123	0	
1.2287	0.682274	1.32112	0	
1.2293	0.0682274	1.62058	0	
1.2300	2.4903	8.03243	0	
1.2307	3.10435	-12.1015	0	
1.2313	1.26221	-44.1431	0	
1.2320	1.56923	-44.1431	0	
1.2327	2.79732	-24.0092	0	
1.2333	3.41137	-18.8128	0	
1.2340	4.02542	-14.8494	0	
1.2347	5.25351	-0.21138	0	
1.2353	4.33244	6.20047	0	
1.2360	2.79732	3.45254	0	
1.2367	2.4903	2.53656	0	
1.2373	4.33244	1.93765	0	
1.2380	7.67558	-1.10974	0	
1.2387	8.90368	-2.02572	0	
1.2393	7.67558	-0.810289	0	
1.2400	7.67558	-0.21138	0	
1.2407	7.36856	-1.10974	0	
1.2413	6.17458	-3.25877	0	
1.2420	7.36856	-2.02572	0	
1.2427	7.67558	-0.810289	0	
1.2433	2.4903	-2.9417	0	
1.2440	-0.238796	-2.34279	0	
1.2447	1.56923	2.53656	0	
1.2453	0.682274	5.28449	0	
1.2460	-0.852842	8.94841	0	
1.2467	2.4903	12.3129	0	
1.2473	3.10435	0.405144	0	
1.2480	-0.545819	-19.1299	0	
1.2487	-3.61605	-24.0092	0	
1.2493	-4.84415	-16.0649	0	
1.2500	-5.11705	-11.5026	0	
1.2507	-5.7311	-9.97008	0	
1.2513	-6.65217	-7.5216	0	
1.2520	-5.42408	-7.22214	0	
1.2527	-2.08094	-5.39018	0	
1.2533	-0.545819	3.76961	0	
1.2540	-1.15987	13.5283	0	
1.2547	-1.46689	10.4809	0	
1.2553	-2.69498	-4.17475	0	
1.2560	-0.852842	-13.9334	0	
1.2567	2.4903	-10.2695	0	
1.2573	2.4903	-1.10974	0	
1.2580	0.682274	9.86439	0	
1.2587	0.682274	10.7804	0	
1.2593	-0.545819	-9.35355	0	
1.2600	0.375251	-24.9252	0	
1.2607	4.02542	-7.5216	0	
1.2613	4.02542	15.0608	0	
1.2620	2.79732	11.6963	0	
1.2627	4.63946	0.704599	0	
1.2633	4.63946	-2.02572	0	
1.2640	2.4903	-3.25877	0	
1.2647	1.87625	-3.25877	0	
1.2653	0.682274	1.93765	0	
1.2660	-0.852842	5.28449	0	
1.2667	-0.238796	7.73298	0	
1.2673	-4.2301	16.2762	0	
1.2680	-10.3365	22.6881	0	
1.2687	-10.3365	17.8087	0	
1.2693	-8.80133	5.60156	0	
1.2700	-9.41538	-3.55823	0	
1.2707	-6.65217	-5.68964	0	
1.2713	-6.34515	-6.30616	0	
1.2720	-10.9164	-6.92269	0	
1.2727	-11.8375	-4.77366	0	
1.2733	-10.0294	-1.10974	0	
1.2740	-10.3365	0.405144	0	
1.2747	-8.49431	1.62058	0	
1.2753	-6.95919	1.93765	0	
1.2760	-7.57324	0.10569	0	
1.2767	-6.34515	-0.21138	0	
1.2773	-4.53712	-1.10974	0	
1.2780	-6.65217	-4.77366	0	
1.2787	-6.65217	-4.4742	0	
1.2793	-4.84415	-0.510834	0	
1.2800	-3.30903	0.10569	0	
1.2807	-1.77391	0.10569	0	
1.2813	-3.00201	0.10569	0	
1.2820	-6.95919	-3.85768	0	
1.2827	-6.34515	-3.85768	0	
1.2833	-3.61605	-0.810289	0	
1.2840	-5.11705	0.704599	0	
1.2847	-5.7311	10.7804	0	
1.2853	-5.42408	27.268	0	
1.2860	-6.95919	25.436	0	
1.2867	-7.26622	7.43352	0	
1.2873	-6.34515	-2.64225	0	
1.2880	-9.41538	-6.60562	0	
1.2887	-11.5304	-14.2329	0	
1.2893	-10.0294	-13.3169	0	
1.2900	-8.18729	2.85363	0	
1.2907	-7.88026	21.7721	0	
1.2913	-10.3365	32.7639	0	
1.2920	-12.7585	39.7746	0	
1.2927	-10.3365	39.1581	0	
1.2933	-8.49431	15.9768	0	
1.2940	-11.2234	-21.2613	0	
1.2947	-10.6094	-35.001	0	
1.2953	-7.26622	-18.5133	0	
1.2960	-8.49431	-6.60562	0	
1.2967	-9.10836	-9.0541	0	
1.2973	-5.7311	-8.13812	0	
1.2980	-4.2301	-2.34279	0	
1.2987	-3.30903	-0.21138	0	
1.2993	-0.852842	-2.02572	0	
1.3000	-2.08094	-4.77366	0	
1.3007	-5.11705	-3.85768	0	
1.3013	-3.92308	-2.02572	0	
1.3020	-2.69498	-2.34279	0	
1.3027	-5.7311	4.36851	0	
1.3033	-8.49431	15.0608	0	
1.3040	-10.0294	16.2762	0	
1.3047	-10.9164	16.2762	0	
1.3053	-8.80133	19.0242	0	
1.3060	-6.65217	10.7804	0	
1.3067	-9.41538	1.62058	0	
1.3073	-11.2234	13.2288	0	
1.3080	-10.0294	27.268	0	
1.3087	-9.7224	14.4443	0	
1.3093	-10.6094	-13.0175	0	
1.3100	-9.41538	-28.5891	0	
1.3107	-7.88026	-24.3087	0	
1.3113	-5.11705	-9.0541	0	
1.3120	-1.46689	5.60156	0	
1.3127	-0.852842	16.2762	0	
1.3133	-3.00201	18.1082	0	
1.3140	-2.08094	11.6963	0	
1.3147	0.682274	11.6963	0	
1.3153	1.56923	21.7721	0	
1.3160	1.56923	13.5283	0	
1.3167	3.41137	-11.5026	0	
1.3173	3.71839	-20.3453	0	
1.3180	2.18328	-9.67062	0	
1.3187	1.56923	-3.55823	0	
1.3193	0.955184	-1.72627	0	
1.3200	-0.852842	1.32112	0	
1.3207	-1.15987	0.704599	0	
1.3213	0.682274	-0.21138	0	
1.3220	0.682274	3.45254	0	
1.3227	-1.15987	6.20047	0	
1.3233	-0.545819	5.28449	0	
1.3240	-1.15987	4.68558	0	
1.3247	-3.61605	4.36851	0	
1.3253	-2.69498	3.45254	0	
1.3260	0.0682274	3.45254	0	
1.3267	-2.08094	4.98504	0	
1.3273	-5.7311	7.11645	0	
1.3280	-6.03812	8.03243	0	
1.3287	-6.65217	7.11645	0	
1.3293	-7.88026	6.20047	0	
1.3300	-6.65217	5.28449	0	
1.3307	-6.03812	4.98504	0	
1.3313	-6.95919	5.28449	0	
1.3320	-7.57324	5.90102	0	
1.3327	-8.18729	5.28449	0	
1.3333	-7.57324	5.28449	0	
1.3340	-5.7311	3.45254	0	
1.3347	-3.61605	3.15308	0	
1.3353	-1.77391	5.28449	0	
1.3360	0.955184	5.28449	0	
1.3367	2.79732	1.93765	0	
1.3373	4.33244	1.62058	0	
1.3380	5.25351	1.32112	0	
1.3387	6.44749	-2.9417	0	
1.3393	7.36856	-4.17475	0	
1.3400	8.28963	-3.85768	0	
1.3407	7.67558	-8.13812	0	
1.3413	5.25351	-9.0541	0	
1.3420	4.94649	-3.85768	0	
1.3427	5.56053	-1.10974	0	
1.3433	4.02542	-0.21138	0	
1.3440	1.87625	3.45254	0	
1.3447	2.4903	7.43352	0	
1.3453	2.79732	15.3603	0	
1.3460	1.87625	23.9035	0	
1.3467	2.18328	21.7721	0	
1.3473	2.4903	14.7437	0	
1.3480	0.375251	15.3603	0	
1.3487	-1.77391	8.94841	0	
1.3493	-0.545819	-9.97008	0	
1.3500	-0.545819	-22.1773	0	
1.3507	-1.15987	-18.5133	0	
1.3513	0.0682274	-15.7654	0	
1.3520	0.375251	-17.5974	0	
1.3527	-1.15987	-14.55	0	
1.3533	0.375251	-6.30616	0	
1.3540	2.4903	-2.64225	0	
1.3547	3.41137	-3.25877	0	
1.3553	3.10435	-2.02572	0	
1.3560	2.4903	-1.42681	0	
1.3567	3.41137	-2.34279	0	
1.3573	5.25351	4.98504	0	
1.3580	4.94649	16.2762	0	
1.3587	2.79732	15.0608	0	
1.3593	3.41137	4.36851	0	
1.3600	5.25351	-3.85768	0	
1.3607	6.17458	-8.75464	0	
1.3613	6.44749	-4.4742	0	
1.3620	6.44749	5.28449	0	
1.3627	7.67558	5.28449	0	
1.3633	7.98261	4.36851	0	
1.3640	5.56053	14.1448	0	
1.3647	4.02542	19.0242	0	
1.3653	5.25351	19.0242	0	
1.3660	5.86756	18.7247	0	
1.3667	5.86756	-6.30616	0	
1.3673	4.94649	-51.471	0	
1.3680	2.4903	-67.6415	0	
1.3687	1.87625	-46.2922	0	
1.3693	2.4903	-25.5241	0	
1.3700	0.375251	-21.2613	0	
1.3707	-2.69498	-24.9252	0	
1.3713	-2.38796	-20.9618	0	
1.3720	-1.15987	1.93765	0	
1.3727	-0.852842	28.184	0	
1.3733	-1.15987	34.5958	0	
1.3740	-2.38796	23.6041	0	
1.3747	-2.08094	12.6123	0	
1.3753	1.56923	9.86439	0	
1.3760	4.02542	10.1815	0	
1.3767	2.4903	9.56493	0	
1.3773	2.4903	7.43352	0	
1.3780	6.17458	3.76961	0	
1.3787	10.1318	-0.21138	0	
1.3793	9.82474	-0.21138	0	
1.3800	7.06154	4.68558	0	
1.3807	7.98261	15.0608	0	
1.3813	12.2468	24.52	0	
1.3820	13.4749	17.1922	0	
1.3827	12.5538	-4.77366	0	
1.3833	14.396	-15.1489	0	
1.3840	13.1679	-7.5216	0	
1.3847	8.28963	-2.64225	0	
1.3853	8.28963	-5.68964	0	
1.3860	10.7458	-5.68964	0	
1.3867	7.06154	1.62058	0	
1.3873	3.71839	6.20047	0	
1.3880	5.86756	3.45254	0	
1.3887	5.25351	6.20047	0	
1.3893	0.955184	9.86439	0	
1.3900	-1.77391	0.704599	0	
1.3907	-2.38796	-2.9417	0	
1.3913	-1.77391	4.36851	0	
1.3920	0.375251	-7.22214	0	
1.3927	-0.238796	-31.337	0	
1.3933	-3.61605	-31.02	0	
1.3940	-4.2301	-15.7654	0	
1.3947	-3.00201	-10.2695	0	
1.3953	-2.08094	-8.13812	0	
1.3960	-0.852842	-5.68964	0	
1.3967	0.375251	-6.60562	0	
1.3973	2.4903	-7.22214	0	
1.3980	5.25351	-9.67062	0	
1.3987	3.41137	-12.4009	0	
1.3993	0.375251	-10.2695	0	
1.4000	1.56923	-9.67062	0	
1.4007	2.79732	-13.0175	0	
1.4013	1.56923	-13.9334	0	
1.4020	0.955184	-13.0175	0	
1.4027	1.26221	-7.5216	0	
1.4033	-0.238796	5.28449	0	
1.4040	0.682274	10.7804	0	
1.4047	2.4903	5.60156	0	
1.4053	1.56923	6.51754	0	
1.4060	-0.852842	17.8087	0	
1.4067	-1.15987	23.6041	0	
1.4073	0.0682274	16.5757	0	
1.4080	2.4903	7.43352	0	
1.4087	0.682274	7.11645	0	
1.4093	-3.00201	7.43352	0	
1.4100	-1.15987	-2.9417	0	
1.4107	2.79732	-12.4009	0	
1.4113	2.4903	-8.75464	0	
1.4120	1.26221	-2.34279	0	
1.4127	2.4903	-2.34279	0	
1.4133	2.79732	-2.02572	0	
1.4140	1.56923	0.405144	0	
1.4147	-1.46689	-1.10974	0	
1.4153	-1.77391	-4.17475	0	
1.4160	0.0682274	-3.55823	0	
1.4167	0.955184	-0.510834	0	
1.4173	1.56923	0.704599	0	
1.4180	3.10435	3.45254	0	
1.4187	4.33244	5.60156	0	
1.4193	4.63946	0.704599	0	
1.4200	2.79732	-9.67062	0	
1.4207	0.375251	-16.0649	0	
1.4213	1.56923	-13.0175	0	
1.4220	3.10435	-4.77366	0	
1.4227	0.375251	-1.10974	0	
1.4233	-1.46689	-7.22214	0	
1.4240	-0.545819	-14.55	0	
1.4247	-2.38796	-12.1015	0	
1.4253	-2.69498	-3.85768	0	
1.4260	-0.545819	2.85363	0	
1.4267	-3.00201	10.7804	0	
1.4273	-4.84415	17.1922	0	
1.4280	-2.08094	11.9958	0	
1.4287	-3.92308	4.06906	0	
1.4293	-7.26622	18.1082	0	
1.4300	-4.84415	38.8586	0	
1.4307	-3.92308	20.2396	0	
1.4313	-6.03812	-24.9252	0	
1.4320	-4.84415	-35.9169	0	
1.4327	-3.92308	-9.35355	0	
1.4333	-7.88026	2.85363	0	
1.4340	-8.49431	-10.8861	0	
1.4347	-4.84415	-17.5974	0	
1.4353	-4.84415	-7.5216	0	
1.4360	-5.11705	2.53656	0	
1.4367	-2.08094	8.94841	0	
1.4373	0.682274	10.7804	0	
1.4380	-0.238796	6.20047	0	
1.4387	0.375251	1.02167	0	
1.4393	2.4903	1.32112	0	
1.4400	1.26221	1.32112	0	
1.4407	-1.15987	-1.10974	0	
1.4413	0.375251	-1.42681	0	
1.4420	1.87625	-2.02572	0	
1.4427	1.56923	-1.72627	0	
1.4433	1.87625	-0.21138	0	
1.4440	0.682274	-0.510834	0	
1.4447	-1.46689	-2.02572	0	
1.4453	0.0682274	-2.64225	0	
1.4460	0.375251	-2.02572	0	
1.4467	-3.00201	-0.21138	0	
1.4473	-3.30903	0.704599	0	
1.4480	-2.08094	-0.810289	0	
1.4487	-3.92308	0.405144	0	
1.4493	-4.84415	3.45254	0	
1.4500	-2.08094	3.45254	0	
1.4507	-0.238796	2.2371	0	
1.4513	-1.15987	2.53656	0	
1.4520	-3.00201	3.45254	0	
1.4527	-1.15987	3.15308	0	
1.4533	0.682274	2.85363	0	
1.4540	0.682274	3.76961	0	
1.4547	0.375251	6.20047	0	
1.4553	-0.545819	4.68558	0	
1.4560	-4.53712	2.53656	0	
1.4567	-3.92308	5.60156	0	
1.4573	0.375251	7.43352	0	
1.4580	-0.238796	2.2371	0	
1.4587	-1.15987	-4.4742	0	
1.4593	2.4903	-13.3169	0	
1.4600	4.02542	-22.1773	0	
1.4607	2.18328	-17.8968	0	
1.4613	3.41137	-2.64225	0	
1.4620	4.94649	8.94841	0	
1.4627	2.79732	12.6123	0	
1.4633	1.56923	6.817	0	
1.4640	-0.545819	-5.39018	0	
1.4647	-1.15987	-11.1855	0	
1.4653	1.26221	-2.9417	0	
1.4660	-0.852842	10.7804	0	
1.4667	-5.7311	16.2762	0	
1.4673	-5.11705	7.43352	0	
1.4680	-5.7311	-9.35355	0	
1.4687	-8.49431	-17.5974	0	
1.4693	-5.7311	-13.9334	0	
1.4700	-3.30903	-16.0649	0	
1.4707	-5.42408	-21.2613	0	
1.4713	-3.30903	-15.7654	0	
1.4720	0.0682274	-8.43757	0	
1.4727	-0.852842	-12.1015	0	
1.4733	0.375251	-13.3169	0	
1.4740	4.02542	-11.1855	0	
1.4747	5.25351	-14.2329	0	
1.4753	6.17458	-15.7654	0	
1.4760	7.06154	-13.0175	0	
1.4767	6.75451	-14.8494	0	
1.4773	7.67558	-8.43757	0	
1.4780	7.98261	15.0608	0	
1.4787	7.06154	28.4834	0	
1.4793	10.1318	19.0242	0	
1.4800	14.089	7.73298	0	
1.4807	12.8609	2.2371	0	
1.4813	11.0528	-3.55823	0	
1.4820	10.4388	-4.4742	0	
1.4827	7.36856	0.405144	0	
1.4833	4.63946	2.53656	0	
1.4840	4.33244	1.02167	0	
1.4847	3.41137	0.405144	0	
1.4853	3.10435	-1.72627	0	
1.4860	2.79732	-4.77366	0	
1.4867	0.682274	-3.25877	0	
1.4873	-2.08094	5.90102	0	
1.4880	-3.00201	16.8928	0	
1.4887	-3.00201	28.184	0	
1.4893	-2.38796	30.9319	0	
1.4900	-3.00201	5.60156	0	
1.4907	-6.03812	-30.4211	0	
1.4913	-6.34515	-24.6081	0	
1.4920	-3.92308	11.6963	0	
1.4927	-3.30903	13.5283	0	
1.4933	-3.61605	-9.35355	0	
1.4940	-0.852842	-0.21138	0	
1.4947	1.87625	23.9035	0	
1.4953	2.4903	29.0999	0	
1.4960	3.41137	31.8479	0	
1.4967	5.86756	27.5674	0	
1.4973	7.06154	-3.85768	0	
1.4980	7.98261	-33.4685	0	
1.4987	8.59665	-34.085	0	
1.4993	7.06154	-28.5891	0	
1.5000	3.41137	-27.6731	0	
1.5007	2.79732	-18.8128	0	
1.5013	4.33244	-9.35355	0	
1.5020	3.10435	-7.22214	0	
1.5027	0.0682274	-5.68964	0	
1.5033	-0.238796	-5.68964	0	
1.5040	1.56923	-8.75464	0	
1.5047	1.56923	-10.2695	0	
1.5053	-1.15987	-11.1855	0	
1.5060	-4.53712	-13.9334	0	
1.5067	-5.42408	-14.8494	0	
1.5073	-4.84415	-11.1855	0	
1.5080	-4.84415	-8.43757	0	
1.5087	-6.34515	-8.13812	0	
1.5093	-7.57324	-2.9417	0	
1.5100	-7.57324	9.56493	0	
1.5107	-5.7311	14.7437	0	
1.5113	-4.84415	14.4443	0	
1.5120	-6.95919	22.6881	0	
1.5127	-8.18729	29.3994	0	
1.5133	-5.7311	21.4727	0	
1.5140	-4.53712	15.3603	0	
1.5147	-4.84415	19.0242	0	
1.5153	-4.2301	18.4077	0	
1.5160	-3.92308	14.1448	0	
1.5167	-4.53712	10.7804	0	
1.5173	-2.69498	4.06906	0	
1.5180	-0.238796	-0.21138	0	
1.5187	0.375251	4.36851	0	
1.5193	1.56923	6.51754	0	
1.5200	4.02542	5.28449	0	
1.5207	4.02542	7.43352	0	
1.5213	2.4903	8.03243	0	
1.5220	1.26221	4.98504	0	
1.5227	1.26221	1.02167	0	
1.5233	-0.238796	-3.85768	0	
1.5240	-2.08094	-5.09073	0	
1.5247	-1.46689	2.53656	0	
1.5253	-1.15987	11.9958	0	
1.5260	-2.38796	6.817	0	
1.5267	-3.00201	-11.5026	0	
1.5273	-2.69498	-23.3927	0	
1.5280	-4.53712	-17.5974	0	
1.5287	-6.03812	-5.68964	0	
1.5293	-3.92308	-1.10974	0	
1.5300	-2.38796	-1.10974	0	
1.5307	-4.84415	1.32112	0	
1.5313	-6.34515	2.53656	0	
1.5320	-4.53712	-1.10974	0	
1.5327	-3.92308	-3.25877	0	
1.5333	-5.42408	-1.42681	0	
1.5340	-4.2301	0.704599	0	
1.5347	-0.545819	-0.21138	0	
1.5353	-0.238796	-2.02572	0	
1.5360	0.375251	-2.64225	0	
1.5367	3.41137	-1.10974	0	
1.5373	4.94649	-1.10974	0	
1.5380	4.33244	-2.64225	0	
1.5387	6.17458	-1.72627	0	
1.5393	6.17458	-1.10974	0	
1.5400	4.33244	-3.85768	0	
1.5407	5.25351	-4.4742	0	
1.5413	5.25351	-3.25877	0	
1.5420	3.41137	-3.85768	0	
1.5427	3.41137	-4.4742	0	
1.5433	2.79732	-3.85768	0	
1.5440	-0.238796	-3.25877	0	
1.5447	0.0682274	-1.72627	0	
1.5453	4.63946	-0.510834	0	
1.5460	5.86756	-2.02572	0	
1.5467	3.41137	-1.72627	0	
1.5473	2.4903	0.10569	0	
1.5480	2.18328	-0.810289	0	
1.5487	1.87625	-2.64225	0	
1.5493	2.79732	-2.64225	0	
1.5500	2.4903	-3.25877	0	
1.5507	0.682274	-4.77366	0	
1.5513	2.79732	-3.85768	0	
1.5520	4.63946	-1.10974	0	
1.5527	0.682274	0.405144	0	
1.5533	0.0682274	0.704599	0	
1.5540	4.33244	0.704599	0	
1.5547	3.10435	-0.510834	0	
1.5553	-1.46689	-0.21138	0	
1.5560	-0.238796	5.90102	0	
1.5567	0.955184	14.4443	0	
1.5573	-1.15987	14.4443	0	
1.5580	-0.852842	4.36851	0	
1.5587	2.4903	-4.17475	0	
1.5593	3.71839	-5.68964	0	
1.5600	4.02542	-6.30616	0	
1.5607	2.4903	-11.1855	0	
1.5613	1.56923	-14.55	0	
1.5620	2.4903	-11.802	0	
1.5627	1.56923	-7.5216	0	
1.5633	-0.852842	-4.77366	0	
1.5640	0.375251	-3.85768	0	
1.5647	0.682274	-3.55823	0	
1.5653	-2.08094	-0.21138	0	
1.5660	-2.38796	3.45254	0	
1.5667	-2.08094	1.62058	0	
1.5673	-4.2301	0.704599	0	
1.5680	-5.42408	5.60156	0	
1.5687	-5.11705	10.4809	0	
1.5693	-5.7311	11.0974	0	
1.5700	-6.34515	14.4443	0	
1.5707	-7.57324	19.6407	0	
1.5713	-10.0294	19.0242	0	
1.5720	-7.57324	15.0608	0	
1.5727	-5.11705	14.4443	0	
1.5733	-9.41538	15.3603	0	
1.5740	-11.8375	10.4809	0	
1.5747	-6.65217	7.11645	0	
1.5753	-3.92308	10.7804	0	
1.5760	-5.42408	3.76961	0	
1.5767	-3.30903	-21.2613	0	
1.5773	0.375251	-37.4318	0	
1.5780	2.18328	-28.8886	0	
1.5787	3.41137	-16.9808	0	
1.5793	5.25351	-15.7654	0	
1.5800	7.98261	-15.7654	0	
1.5807	9.51772	-13.634	0	
1.5813	7.67558	-14.8494	0	
1.5820	6.44749	-18.5133	0	
1.5827	7.67558	-15.7654	0	
1.5833	6.44749	-9.67062	0	
1.5840	3.41137	-6.00671	0	
1.5847	3.71839	2.85363	0	
1.5853	4.94649	18.1082	0	
1.5860	2.4903	24.52	0	
1.5867	-1.15987	29.0999	0	
1.5873	-3.00201	47.7014	0	
1.5880	-4.53712	54.1132	0	
1.5887	-4.2301	25.7355	0	
1.5893	-2.08094	-3.25877	0	
1.5900	-1.77391	-8.75464	0	
1.5907	-2.69498	-14.55	0	
1.5913	-3.00201	-27.0566	0	
1.5920	-3.61605	-27.6731	0	
1.5927	-3.30903	-17.8968	0	
1.5933	-1.77391	-10.2695	0	
1.5940	-0.852842	-5.39018	0	
1.5947	1.26221	-3.85768	0	
1.5953	2.4903	-3.85768	0	
1.5960	0.682274	-3.55823	0	
1.5967	-1.46689	-0.510834	0	
1.5973	1.56923	1.93765	0	
1.5980	3.10435	4.98504	0	
1.5987	1.87625	14.1448	0	
1.5993	1.26221	29.6989	0	
1.6000	1.56923	35.1947	0	
1.6007	2.79732	17.1922	0	
1.6013	3.41137	-8.75464	0	
1.6020	-0.238796	-20.6448	0	
1.6027	-3.92308	-16.9808	0	
1.6033	-2.08094	-9.35355	0	
1.6040	-0.238796	-4.4742	0	
1.6047	-2.08094	-2.02572	0	
1.6053	-3.00201	1.02167	0	
1.6060	-0.238796	4.68558	0	
1.6067	3.41137	-3.85768	0	
1.6073	2.79732	-24.9252	0	
1.6080	-1.46689	-33.169	0	
1.6087	-2.08094	-22.1773	0	
1.6093	-1.15987	-15.466	0	
1.6100	-2.38796	-12.4009	0	
1.6107	-3.61605	3.45254	0	
1.6113	-3.61605	24.52	0	
1.6120	-4.53712	38.8586	0	
1.6127	-3.00201	43.738	0	
1.6133	-1.15987	30.3154	0	
1.6140	-2.69498	3.15308	0	
1.6147	-3.00201	-13.9334	0	
1.6153	-1.15987	-15.7654	0	
1.6160	-2.69498	-11.802	0	
1.6167	-2.38796	-5.68964	0	
1.6173	1.87625	-1.42681	0	
1.6180	4.94649	-0.510834	0	
1.6187	4.02542	0.10569	0	
1.6193	1.87625	1.62058	0	
1.6200	0.375251	5.90102	0	
1.6207	2.4903	8.03243	0	
1.6213	4.94649	-1.10974	0	
1.6220	3.41137	-12.1015	0	
1.6227	0.0682274	-11.802	0	
1.6233	-1.77391	-4.77366	0	
1.6240	-1.15987	-2.9417	0	
1.6247	0.682274	-3.25877	0	
1.6253	1.56923	-2.64225	0	
1.6260	-0.238796	-1.72627	0	
1.6267	-2.38796	-0.510834	0	
1.6273	-2.38796	-0.810289	0	
1.6280	-2.69498	-3.85768	0	
1.6287	-3.00201	-10.2695	0	
1.6293	-2.08094	-16.3819	0	
1.6300	-2.08094	-18.5133	0	
1.6307	-3.30903	-16.0649	0	
1.6313	-2.69498	-13.9334	0	
1.6320	-1.77391	-14.8494	0	
1.6327	-3.92308	-14.8494	0	
1.6333	-5.7311	-11.1855	0	
1.6340	-3.30903	-11.1855	0	
1.6347	-1.77391	-12.1015	0	
1.6353	-3.00201	1.32112	0	
1.6360	-2.38796	20.2396	0	
1.6367	-0.852842	25.436	0	
1.6373	-0.238796	19.0242	0	
1.6380	0.682274	11.6963	0	
1.6387	1.87625	8.64895	0	
1.6393	2.18328	12.6123	0	
1.6400	1.87625	20.5567	0	
1.6407	2.4903	29.0999	0	
1.6413	2.4903	33.6798	0	
1.6420	0.955184	20.8561	0	
1.6427	2.4903	-4.4742	0	
1.6433	5.86756	-15.7654	0	
1.6440	4.33244	-6.60562	0	
1.6447	-0.238796	6.51754	0	
1.6453	-0.545819	3.15308	0	
1.6460	0.682274	-19.4293	0	
1.6467	-0.545819	-36.2164	0	
1.6473	-3.00201	-27.6731	0	
1.6480	-6.03812	-13.0175	0	
1.6487	-9.10836	-8.13812	0	
1.6493	-8.80133	-2.9417	0	
1.6500	-6.95919	6.20047	0	
1.6507	-6.95919	9.86439	0	
1.6513	-6.95919	5.60156	0	
1.6520	-5.7311	-5.39018	0	
1.6527	-4.84415	-13.0175	0	
1.6533	-3.00201	-5.68964	0	
1.6540	-0.238796	8.94841	0	
1.6547	1.56923	16.2762	0	
1.6553	0.375251	12.9118	0	
1.6560	-1.15987	4.36851	0	
1.6567	0.0682274	-3.85768	0	
1.6573	3.41137	-5.68964	0	
1.6580	5.56053	-1.72627	0	
1.6587	5.25351	-0.21138	0	
1.6593	4.63946	-2.9417	0	
1.6600	4.63946	-3.55823	0	
1.6607	4.63946	-2.34279	0	
1.6613	4.33244	-2.9417	0	
1.6620	2.79732	-4.17475	0	
1.6627	1.26221	-3.85768	0	
1.6633	0.0682274	-3.25877	0	
1.6640	0.682274	-3.55823	0	
1.6647	1.26221	-3.25877	0	
1.6653	-0.238796	-1.42681	0	
1.6660	-1.15987	1.02167	0	
1.6667	0.955184	2.53656	0	
1.6673	0.955184	2.2371	0	
1.6680	-1.46689	1.32112	0	
1.6687	-2.08094	4.06906	0	
1.6693	-2.38796	7.11645	0	
1.6700	-3.61605	5.28449	0	
1.6707	-2.08094	3.45254	0	
1.6713	0.682274	4.36851	0	
1.6720	0.0682274	3.45254	0	
1.6727	-0.852842	2.85363	0	
1.6733	-0.852842	3.76961	0	
1.6740	-0.852842	2.53656	0	
1.6747	0.0682274	0.405144	0	
1.6753	1.56923	-0.21138	0	
1.6760	1.87625	-2.64225	0	
1.6767	2.79732	-4.17475	0	
1.6773	4.94649	-2.9417	0	
1.6780	4.33244	-3.25877	0	
1.6787	3.41137	-4.77366	0	
1.6793	5.25351	-3.85768	0	
1.6800	5.25351	-2.34279	0	
1.6807	2.4903	-2.64225	0	
1.6813	1.56923	-2.34279	0	
1.6820	3.41137	-2.9417	0	
1.6827	2.4903	-4.77366	0	
1.6833	0.955184	-4.77366	0	
1.6840	1.56923	-2.9417	0	
1.6847	0.955184	-2.34279	0	
1.6853	0.955184	-2.9417	0	
1.6860	2.4903	-1.42681	0	
1.6867	0.682274	-0.810289	0	
1.6873	-1.77391	-1.10974	0	
1.6880	-0.238796	1.02167	0	
1.6887	-1.15987	3.76961	0	
1.6893	-6.65217	7.11645	0	
1.6900	-6.95919	11.6963	0	
1.6907	-3.00201	10.7804	0	
1.6913	-2.38796	3.76961	0	
1.6920	-4.53712	-2.9417	0	
1.6927	-3.92308	-8.75464	0	
1.6933	-1.46689	-14.2329	0	
1.6940	-1.15987	-12.718	0	
1.6947	-3.61605	-6.60562	0	
1.6953	-4.53712	-3.85768	0	
1.6960	-2.08094	-2.02572	0	
1.6967	-0.238796	1.02167	0	
1.6973	-0.545819	-0.21138	0	
1.6980	-2.69498	-2.64225	0	
1.6987	-3.92308	-1.72627	0	
1.6993	-3.30903	-0.810289	0	
1.7000	-2.69498	-1.42681	0	
1.7007	-2.08094	-0.21138	0	
1.7013	-0.545819	2.85363	0	
1.7020	-0.852842	4.98504	0	
1.7027	-3.00201	3.76961	0	
1.7033	-1.15987	-0.510834	0	
1.7040	1.56923	-4.17475	0	
1.7047	-0.238796	-3.55823	0	
1.7053	-2.38796	0.704599	0	
1.7060	-0.238796	4.36851	0	
1.7067	-0.238796	3.76961	0	
1.7073	-4.84415	1.62058	0	
1.7080	-4.84415	0.10569	0	
1.7087	-1.77391	0.10569	0	
1.7093	-2.08094	3.15308	0	
1.7100	-3.30903	11.6963	0	
1.7107	-3.30903	15.6597	0	
1.7113	-3.61605	3.15308	0	
1.7120	-3.92308	-16.6814	0	
1.7127	-2.38796	-22.1773	0	
1.7133	-1.77391	-11.1855	0	
1.7140	-2.69498	-1.10974	0	
1.7147	-4.84415	-2.9417	0	
1.7153	-5.7311	-5.68964	0	
1.7160	-5.7311	-5.68964	0	
1.7167	-5.7311	-13.9334	0	
1.7173	-3.00201	-22.7938	0	
1.7180	0.682274	-13.9334	0	
1.7187	-0.238796	-5.68964	0	
1.7193	-1.77391	-3.85768	0	
1.7200	0.682274	16.8928	0	
1.7207	1.56923	37.9427	0	
1.7213	0.0682274	21.4727	0	
1.7220	1.56923	-2.02572	0	
1.7227	2.79732	2.2371	0	
1.7233	2.4903	9.26548	0	
1.7240	3.71839	4.06906	0	
1.7247	3.41137	-0.21138	0	
1.7253	0.682274	-3.55823	0	
1.7260	0.375251	-5.39018	0	
1.7267	0.955184	-1.72627	0	
1.7273	0.682274	-0.21138	0	
1.7280	0.682274	-2.64225	0	
1.7287	-0.545819	-2.02572	0	
1.7293	-3.00201	0.704599	0	
1.7300	-3.00201	0.704599	0	
1.7307	-2.38796	-0.21138	0	
1.7313	-3.92308	0.10569	0	
1.7320	-2.69498	1.02167	0	
1.7327	-0.238796	1.62058	0	
1.7333	-2.08094	3.15308	0	
1.7340	-2.69498	4.98504	0	
1.7347	1.56923	4.98504	0	
1.7353	2.18328	3.76961	0	
1.7360	-0.238796	4.06906	0	
1.7367	1.56923	5.28449	0	
1.7373	3.41137	8.94841	0	
1.7380	3.10435	17.8087	0	
1.7387	4.94649	29.3994	0	
1.7393	6.44749	28.7829	0	
1.7400	3.41137	5.28449	0	
1.7407	0.955184	-23.3927	0	
1.7413	1.26221	-28.8886	0	
1.7420	1.26221	-16.0649	0	
1.7427	1.26221	-8.43757	0	
1.7433	1.56923	-6.92269	0	
1.7440	-0.238796	-3.85768	0	
1.7447	-1.77391	-2.02572	0	
1.7453	0.375251	-2.02572	0	
1.7460	0.682274	-2.34279	0	
1.7467	-3.00201	-3.55823	0	
1.7473	-3.00201	-2.34279	0	
1.7480	-0.545819	0.704599	0	
1.7487	0.955184	-0.510834	0	
1.7493	2.18328	-2.64225	0	
1.7500	1.56923	-1.10974	0	
1.7507	-0.545819	0.10569	0	
1.7513	-0.545819	1.62058	0	
1.7520	0.375251	3.45254	0	
1.7527	-0.238796	1.62058	0	
1.7533	0.375251	1.02167	0	
1.7540	1.56923	3.76961	0	
1.7547	0.682274	3.76961	0	
1.7553	0.375251	2.53656	0	
1.7560	0.375251	2.53656	0	
1.7567	-0.852842	1.32112	0	
1.7573	-0.238796	-0.510834	0	
1.7580	1.56923	2.53656	0	
1.7587	2.4903	6.20047	0	
1.7593	3.41137	7.11645	0	
1.7600	3.71839	5.60156	0	
1.7607	1.26221	-1.10974	0	
1.7613	1.56923	-11.1855	0	
1.7620	6.44749	-14.8494	0	
1.7627	6.17458	-9.0541	0	
1.7633	0.375251	-2.9417	0	
1.7640	-0.545819	-0.510834	0	
1.7647	2.4903	0.704599	0	
1.7653	0.682274	1.02167	0	
1.7660	-2.69498	-0.21138	0	
1.7667	-1.15987	-0.21138	0	
1.7673	-0.238796	5.28449	0	
1.7680	-4.84415	11.9958	0	
1.7687	-7.57324	10.7804	0	
1.7693	-5.7311	1.02167	0	
1.7700	-5.7311	-4.77366	0	
1.7707	-6.65217	-2.9417	0	
1.7713	-4.53712	0.704599	0	
1.7720	-2.08094	2.53656	0	
1.7727	-3.00201	3.45254	0	
1.7733	-3.92308	2.53656	0	
1.7740	-3.00201	2.2371	0	
1.7747	-1.77391	6.20047	0	
1.7753	-2.69498	7.11645	0	
1.7760	-4.53712	2.2371	0	
1.7767	-3.92308	-1.10974	0	
1.7773	-0.238796	-2.34279	0	
1.7780	0.955184	-5.68964	0	
1.7787	-0.238796	-8.43757	0	
1.7793	1.56923	-4.4742	0	
1.7800	3.71839	0.10569	0	
1.7807	2.18328	2.2371	0	
1.7813	0.0682274	5.28449	0	
1.7820	2.18328	12.6123	0	
1.7827	3.41137	18.4077	0	
1.7833	3.71839	15.0608	0	
1.7840	4.63946	5.90102	0	
1.7847	2.4903	0.704599	0	
1.7853	-1.77391	-2.9417	0	
1.7860	-1.77391	-9.97008	0	
1.7867	0.682274	-13.0175	0	
1.7873	-1.15987	-7.5216	0	
1.7880	-3.92308	-1.42681	0	
1.7887	-2.69498	4.98504	0	
1.7893	-0.852842	15.6597	0	
1.7900	-0.238796	17.1922	0	
1.7907	-0.545819	-0.21138	0	
1.7913	-4.53712	-17.5974	0	
1.7920	-7.57324	-17.5974	0	
1.7927	-5.11705	-7.22214	0	
1.7933	-1.46689	-0.21138	0	
1.7940	-0.852842	0.704599	0	
1.7947	-2.38796	-2.64225	0	
1.7953	-4.2301	-4.4742	0	
1.7960	-3.30903	-4.17475	0	
1.7967	0.0682274	-5.09073	0	
1.7973	1.56923	-8.13812	0	
1.7980	0.682274	-10.8861	0	
1.7987	1.87625	-8.75464	0	
1.7993	2.4903	-5.39018	0	
1.8000	2.4903	-10.2695	0	
1.8007	2.79732	-12.4009	0	
1.8013	2.4903	0.405144	0	
1.8020	0.682274	6.20047	0	
1.8027	-0.238796	-4.17475	0	
1.8033	0.0682274	-1.10974	0	
1.8040	1.26221	15.3603	0	
1.8047	3.41137	16.2762	0	
1.8053	3.41137	7.73298	0	
1.8060	1.26221	3.76961	0	
1.8067	0.375251	0.10569	0	
1.8073	1.56923	-0.510834	0	
1.8080	1.56923	1.62058	0	
1.8087	-0.545819	-1.10974	0	
1.8093	-1.77391	-2.02572	0	
1.8100	-1.46689	3.15308	0	
1.8107	-3.92308	6.20047	0	
1.8113	-6.34515	9.26548	0	
1.8120	-4.53712	10.7804	0	
1.8127	-2.08094	7.43352	0	
1.8133	-2.69498	10.7804	0	
1.8140	-3.61605	20.2396	0	
1.8147	-3.92308	25.436	0	
1.8153	-4.2301	26.352	0	
1.8160	-3.00201	10.4809	0	
1.8167	-2.08094	-32.5525	0	
1.8173	-0.545819	-58.7988	0	
1.8180	2.18328	-34.085	0	
1.8187	2.18328	1.02167	0	
1.8193	-0.238796	2.85363	0	
1.8200	0.955184	-12.718	0	
1.8207	3.71839	-16.9808	0	
1.8213	3.41137	-8.43757	0	
1.8220	2.4903	8.94841	0	
1.8227	2.4903	24.203	0	
1.8233	0.375251	18.4077	0	
1.8240	0.0682274	-3.25877	0	
1.8247	2.4903	-21.2613	0	
1.8253	2.4903	-35.9169	0	
1.8260	0.682274	-40.7963	0	
1.8267	0.682274	-20.3453	0	
1.8273	0.0682274	4.68558	0	
1.8280	-1.46689	6.20047	0	
1.8287	-4.2301	2.53656	0	
1.8293	-7.57324	8.03243	0	
1.8300	-7.57324	8.94841	0	
1.8307	-5.7311	4.68558	0	
1.8313	-7.26622	5.60156	0	
1.8320	-8.80133	9.56493	0	
1.8327	-5.42408	11.6963	0	
1.8333	-2.38796	7.11645	0	
1.8340	-3.30903	-2.9417	0	
1.8347	-3.00201	-7.22214	0	
1.8353	-3.00201	-4.77366	0	
1.8360	-4.53712	0.704599	0	
1.8367	-3.30903	7.43352	0	
1.8373	0.0682274	8.03243	0	
1.8380	1.26221	5.60156	0	
1.8387	1.56923	9.86439	0	
1.8393	1.87625	13.5283	0	
1.8400	1.56923	17.1922	0	
1.8407	3.41137	21.7721	0	
1.8413	5.25351	7.73298	0	
1.8420	1.56923	-20.6448	0	
1.8427	-1.15987	-29.5051	0	
1.8433	2.4903	-19.1299	0	
1.8440	3.71839	-11.802	0	
1.8447	0.955184	-5.68964	0	
1.8453	0.682274	-2.9417	0	
1.8460	1.26221	-4.17475	0	
1.8467	0.0682274	-0.21138	0	
1.8473	-1.15987	3.15308	0	
1.8480	-2.38796	-3.85768	0	
1.8487	-3.00201	-8.75464	0	
1.8493	-3.00201	-6.30616	0	
1.8500	-3.00201	-2.9417	0	
1.8507	-2.08094	1.62058	0	
1.8513	1.26221	5.28449	0	
1.8520	1.87625	4.98504	0	
1.8527	2.79732	6.20047	0	
1.8533	7.98261	7.11645	0	
1.8540	8.90368	5.60156	0	
1.8547	5.25351	8.03243	0	
1.8553	7.06154	7.11645	0	
1.8560	10.7458	-3.55823	0	
1.8567	7.98261	-11.802	0	
1.8573	6.17458	-10.2695	0	
1.8580	8.59665	-5.39018	0	
1.8587	7.06154	0.704599	0	
1.8593	3.41137	8.94841	0	
1.8600	3.71839	11.6963	0	
1.8607	4.63946	7.11645	0	
1.8613	4.02542	2.85363	0	
1.8620	4.02542	3.45254	0	
1.8627	3.41137	4.68558	0	
1.8633	1.26221	4.68558	0	
1.8640	-0.238796	5.28449	0	
1.8647	-0.852842	5.28449	0	
1.8653	-1.15987	1.62058	0	
1.8660	-0.238796	0.704599	0	
1.8667	0.0682274	4.06906	0	
1.8673	-0.545819	5.90102	0	
1.8680	0.955184	4.36851	0	
1.8687	1.87625	2.85363	0	
1.8693	-1.77391	1.32112	0	
1.8700	-3.00201	0.10569	0	
1.8707	1.26221	2.53656	0	
1.8713	1.56923	4.68558	0	
1.8720	-1.15987	3.76961	0	
1.8727	0.955184	3.45254	0	
1.8733	2.4903	3.45254	0	
1.8740	-0.238796	1.62058	0	
1.8747	-0.545819	2.53656	0	
1.8753	0.375251	5.28449	0	
1.8760	-2.38796	6.817	0	
1.8767	-2.08094	4.36851	0	
1.8773	1.56923	-8.43757	0	
1.8780	0.682274	-28.5891	0	
1.8787	-0.852842	-33.169	0	
1.8793	0.375251	-20.3453	0	
1.8800	1.26221	-13.634	0	
1.8807	1.56923	-17.2979	0	
1.8813	1.56923	-15.1489	0	
1.8820	0.682274	-6.92269	0	
1.8827	-0.238796	-1.72627	0	
1.8833	0.682274	5.28449	0	
1.8840	0.0682274	10.7804	0	
1.8847	-2.38796	4.06906	0	
1.8853	-4.53712	-2.34279	0	
1.8860	-5.7311	6.817	0	
1.8867	-5.11705	14.4443	0	
1.8873	-5.7311	6.51754	0	
1.8880	-6.95919	1.62058	0	
1.8887	-6.03812	12.6123	0	
1.8893	-5.7311	27.268	0	
1.8900	-6.34515	32.4468	0	
1.8907	-4.53712	22.6881	0	
1.8913	-2.08094	8.64895	0	
1.8920	-2.38796	4.36851	0	
1.8927	-2.08094	6.51754	0	
1.8933	1.56923	9.56493	0	
1.8940	4.02542	14.7437	0	
1.8947	3.41137	17.8087	0	
1.8953	0.375251	22.6881	0	
1.8960	-1.77391	36.1107	0	
1.8967	0.682274	32.1473	0	
1.8973	3.71839	-3.55823	0	
1.8980	5.25351	-34.6839	0	
1.8987	5.56053	-40.1798	0	
1.8993	4.33244	-34.6839	0	
1.9000	3.71839	-20.6448	0	
1.9007	5.25351	1.32112	0	
1.9013	5.25351	9.86439	0	
1.9020	1.87625	-1.72627	0	
1.9027	0.375251	-12.718	0	
1.9033	0.0682274	-13.3169	0	
1.9040	-1.15987	-12.718	0	
1.9047	-3.00201	-16.3819	0	
1.9053	-4.53712	-15.7654	0	
1.9060	-4.84415	-9.67062	0	
1.9067	-3.92308	-7.22214	0	
1.9073	-4.53712	-7.83866	0	
1.9080	-5.7311	-4.77366	0	
1.9087	-6.03812	-1.72627	0	
1.9093	-7.57324	-2.34279	0	
1.9100	-8.18729	-3.85768	0	
1.9107	-6.65217	-3.25877	0	
1.9113	-5.7311	-2.9417	0	
1.9120	-4.2301	-3.85768	0	
1.9127	-2.08094	-3.85768	0	
1.9133	0.0682274	-4.17475	0	
1.9140	2.4903	-5.39018	0	
1.9147	4.02542	-4.77366	0	
1.9153	1.56923	-1.10974	0	
1.9160	1.26221	0.10569	0	
1.9167	3.41137	-2.9417	0	
1.9173	2.4903	-7.5216	0	
1.9180	2.4903	-9.67062	0	
1.9187	6.75451	-5.39018	0	
1.9193	7.36856	2.2371	0	
1.9200	4.33244	5.60156	0	
1.9207	3.41137	5.60156	0	
1.9213	2.4903	5.28449	0	
1.9220	0.682274	2.85363	0	
1.9227	0.682274	3.15308	0	
1.9233	-0.238796	7.11645	0	
1.9240	-1.77391	9.56493	0	
1.9247	-0.852842	9.86439	0	
1.9253	-1.46689	3.15308	0	
1.9260	-3.00201	-14.8494	0	
1.9267	-1.15987	-24.9252	0	
1.9273	-1.15987	-14.55	0	
1.9280	-4.2301	3.45254	0	
1.9287	-3.61605	19.3236	0	
1.9293	-2.08094	21.1556	0	
1.9300	-4.84415	-3.25877	0	
1.9307	-5.11705	-27.9726	0	
1.9313	-1.46689	-25.5241	0	
1.9320	-1.15987	-11.802	0	
1.9327	-3.30903	-5.68964	0	
1.9333	-1.77391	-2.64225	0	
1.9340	0.682274	-0.810289	0	
1.9347	0.375251	-2.02572	0	
1.9353	-0.238796	-1.10974	0	
1.9360	-1.15987	0.405144	0	
1.9367	-2.08094	-0.510834	0	
1.9373	-0.238796	-3.25877	0	
1.9380	2.18328	-4.17475	0	
1.9387	0.375251	-1.72627	0	
1.9393	-2.69498	1.02167	0	
1.9400	-1.77391	0.10569	0	
1.9407	0.375251	0.405144	0	
1.9413	-0.852842	1.32112	0	
1.9420	-3.00201	-1.72627	0	
1.9427	-2.69498	-2.9417	0	
1.9433	-2.69498	-0.21138	0	
1.9440	-5.42408	0.405144	0	
1.9447	-5.42408	-0.510834	0	
1.9453	-1.77391	0.405144	0	
1.9460	-1.15987	0.405144	0	
1.9467	-3.00201	0.704599	0	
1.9473	-2.08094	2.53656	0	
1.9480	-0.852842	1.62058	0	
1.9487	-1.15987	-1.72627	0	
1.9493	-1.15987	-3.55823	0	
1.9500	-1.46689	-1.72627	0	
1.9507	-2.69498	-0.510834	0	
1.9513	-1.15987	-3.55823	0	
1.9520	-0.545819	-5.09073	0	
1.9527	-2.69498	-3.85768	0	
1.9533	-1.15987	-4.17475	0	
1.9540	2.18328	-5.39018	0	
1.9547	1.26221	-1.10974	0	
1.9553	-1.46689	8.03243	0	
1.9560	-3.00201	21.7721	0	
1.9567	-3.61605	36.7272	0	
1.9573	-2.08094	35.8112	0	
1.9580	-0.238796	12.3129	0	
1.9587	-0.852842	-13.634	0	
1.9593	0.0682274	-21.2613	0	
1.9600	2.4903	-5.68964	0	
1.9607	4.33244	15.0608	0	
1.9613	4.33244	12.9118	0	
1.9620	2.4903	-12.718	0	
1.9627	0.955184	-28.272	0	
1.9633	1.56923	-17.2979	0	
1.9640	0.955184	-0.21138	0	
1.9647	-0.238796	3.45254	0	
1.9653	1.56923	-2.9417	0	
1.9660	2.18328	-8.75464	0	
1.9667	-0.545819	-10.2695	0	
1.9673	-1.77391	-9.35355	0	
1.9680	-2.08094	-5.68964	0	
1.9687	-4.2301	-2.02572	0	
1.9693	-3.00201	-2.02572	0	
1.9700	-0.545819	-1.72627	0	
1.9707	-2.08094	-3.85768	0	
1.9713	-5.11705	-8.75464	0	
1.9720	-3.30903	6.817	0	
1.9727	0.0682274	43.4385	0	
1.9733	1.26221	48.9344	0	
1.9740	0.955184	8.03243	0	
1.9747	1.56923	-27.3561	0	
1.9753	1.26221	-29.5051	0	
1.9760	-0.238796	-20.3453	0	
1.9767	0.375251	-14.8494	0	
1.9773	2.18328	-10.5866	0	
1.9780	0.375251	-7.83866	0	
1.9787	-1.46689	-3.85768	0	
1.9793	1.26221	4.68558	0	
1.9800	2.4903	18.7247	0	
1.9807	-0.852842	27.8669	0	
1.9813	-0.238796	19.6407	0	
1.9820	3.10435	2.2371	0	
1.9827	2.4903	-2.02572	0	
1.9833	0.375251	6.817	0	
1.9840	-1.46689	12.6123	0	
1.9847	-2.38796	10.1815	0	
1.9853	-1.15987	0.704599	0	
1.9860	-0.238796	-14.2329	0	
1.9867	-2.08094	-23.7098	0	
1.9873	-3.30903	-20.6448	0	
1.9880	-4.2301	-11.802	0	
1.9887	-6.95919	-3.25877	0	
1.9893	-7.57324	7.11645	0	
1.9900	-5.42408	13.8278	0	
1.9907	-4.84415	9.86439	0	
1.9913	-5.7311	6.20047	0	
1.9920	-6.03812	16.5757	0	
1.9927	-5.42408	22.0716	0	
1.9933	-3.00201	1.93765	0	
1.9940	-0.545819	-23.0932	0	
1.9947	0.955184	-23.7098	0	
1.9953	2.4903	-8.13812	0	
1.9960	2.4903	0.10569	0	
1.9967	2.18328	0.704599	0	
1.9973	4.33244	5.28449	0	
1.9980	7.36856	7.11645	0	
1.9987	7.98261	-5.68964	0	
1.9993	7.98261	-21.5607	0	
2.0000	7.06154	-21.2613	0	
2.0007	7.06154	-11.1855	0	
2.0013	7.98261	-7.22214	0	
2.0020	7.06154	-6.92269	0	
2.0027	4.33244	-4.77366	0	
2.0033	4.63946	-2.9417	0	
2.0040	4.02542	-1.72627	0	
2.0047	0.0682274	-1.10974	0	
2.0053	-0.545819	-1.42681	0	
2.0060	0.682274	-2.02572	0	
2.0067	-1.77391	-0.810289	0	
2.0073	-0.852842	1.32112	0	
2.0080	2.4903	0.704599	0	
2.0087	-2.08094	-1.10974	0	
2.0093	-6.65217	-1.10974	0	
2.0100	-3.61605	-0.510834	0	
2.0107	-1.15987	-0.810289	0	
2.0113	-3.30903	0.405144	0	
2.0120	-3.61605	2.53656	0	
2.0127	-3.00201	4.68558	0	
2.0133	-3.92308	5.28449	0	
2.0140	-3.00201	3.76961	0	
2.0147	-2.69498	3.76961	0	
2.0153	-3.00201	5.60156	0	
2.0160	-0.545819	4.68558	0	
2.0167	0.682274	2.2371	0	
2.0173	-1.77391	1.62058	0	
2.0180	-2.69498	0.10569	0	
2.0187	0.0682274	-1.10974	0	
2.0193	2.4903	1.32112	0	
2.0200	2.4903	3.45254	0	
2.0207	1.56923	2.53656	0	
2.0213	1.56923	-0.21138	0	
2.0220	2.4903	0.405144	0	
2.0227	2.4903	3.45254	0	
2.0233	1.56923	4.06906	0	
2.0240	0.955184	-0.21138	0	
2.0247	-0.238796	-1.10974	0	
2.0253	-1.15987	-0.21138	0	
2.0260	1.26221	-2.9417	0	
2.0267	2.4903	-2.9417	0	
2.0273	-2.38796	0.704599	0	
2.0280	-9.10836	1.62058	0	
2.0287	-10.3365	-1.10974	0	
2.0293	-5.7311	-1.72627	0	
2.0300	-3.61605	-1.10974	0	
2.0307	-6.65217	1.93765	0	
2.0313	-5.42408	7.73298	0	
2.0320	-3.00201	10.4809	0	
2.0327	-10.3365	7.11645	0	
2.0333	-11.2234	4.06906	0	
2.0340	12.8609	3.45254	0	
2.0347	36.6722	2.85363	0	
2.0353	33.3291	3.45254	0	
2.0360	22.6515	5.60156	0	
2.0367	25.3806	5.28449	0	
2.0373	29.0308	3.76961	0	
2.0380	25.6876	5.90102	0	
2.0387	21.7304	7.43352	0	
2.0393	18.9672	8.94841	0	
2.0400	14.703	13.8278	0	
2.0407	11.9739	20.2396	0	
2.0413	13.4749	28.184	0	
2.0420	14.089	25.7355	0	
2.0427	10.7458	-2.34279	0	
2.0433	6.75451	-35.3004	0	
2.0440	4.94649	-36.2164	0	
2.0447	3.41137	-17.5974	0	
2.0453	2.4903	-10.2695	0	
2.0460	1.56923	-10.2695	0	
2.0467	0.682274	-9.35355	0	
2.0473	-2.69498	-11.5026	0	
2.0480	-8.18729	-12.1015	0	
2.0487	-10.0294	-7.22214	0	
2.0493	-7.57324	-3.85768	0	
2.0500	-7.57324	4.98504	0	
2.0507	-10.3365	28.7829	0	
2.0513	-9.7224	48.0184	0	
2.0520	-9.7224	35.8112	0	
2.0527	-14.6007	4.68558	0	
2.0533	-15.8288	-14.8494	0	
2.0540	-11.2234	-19.4293	0	
2.0547	-9.41538	-22.4767	0	
2.0553	-10.0294	-23.7098	0	
2.0560	-9.41538	-17.8968	0	
2.0567	-9.41538	-8.75464	0	
2.0573	-10.6094	-2.02572	0	
2.0580	-8.49431	-1.42681	0	
2.0587	-6.95919	-5.09073	0	
2.0593	-9.41538	-7.83866	0	
2.0600	-10.3365	-8.75464	0	
2.0607	-8.49431	-5.09073	0	
2.0613	-6.95919	8.03243	0	
2.0620	-4.84415	25.436	0	
2.0627	-5.11705	37.6432	0	
2.0633	-7.57324	45.5699	0	
2.0640	-5.7311	41.906	0	
2.0647	-2.08094	14.1448	0	
2.0653	-2.08094	-22.1773	0	
2.0660	-3.92308	-35.5999	0	
2.0667	-5.42408	-24.9252	0	
2.0673	-7.57324	-12.1015	0	
2.0680	-7.88026	-5.68964	0	
2.0687	-7.26622	-3.25877	0	
2.0693	-8.49431	-0.810289	0	
2.0700	-10.0294	1.32112	0	
2.0707	-8.80133	0.704599	0	
2.0713	-7.57324	0.704599	0	
2.0720	-7.57324	1.32112	0	
2.0727	-7.26622	-0.810289	0	
2.0733	-7.88026	-2.9417	0	
2.0740	-9.10836	-1.10974	0	
2.0747	-9.7224	-0.510834	0	
2.0753	-10.3365	-1.10974	0	
2.0760	-11.2234	0.704599	0	
2.0767	-9.7224	0.704599	0	
2.0773	-6.03812	-2.02572	0	
2.0780	-5.42408	-5.68964	0	
2.0787	-8.49431	-6.92269	0	
2.0793	-7.26622	1.32112	0	
2.0800	-2.08094	14.7437	0	
2.0807	-0.852842	15.9768	0	
2.0813	-1.46689	6.20047	0	
2.0820	0.682274	-1.10974	0	
2.0827	2.4903	-2.02572	0	
2.0833	2.18328	0.704599	0	
2.0840	3.71839	3.45254	0	
2.0847	4.63946	5.90102	0	
2.0853	0.682274	5.60156	0	
2.0860	-2.08094	-3.85768	0	
2.0867	-0.238796	-7.5216	0	
2.0873	-0.852842	13.2288	0	
2.0880	-4.53712	23.6041	0	
2.0887	-3.92308	3.76961	0	
2.0893	-3.00201	-0.21138	0	
2.0900	-6.34515	18.1082	0	
2.0907	-6.65217	9.86439	0	
2.0913	-4.84415	-14.8494	0	
2.0920	-7.26622	-18.5133	0	
2.0927	-8.18729	-12.4009	0	
2.0933	-5.7311	-11.5026	0	
2.0940	-4.84415	-8.43757	0	
2.0947	-3.00201	-6.30616	0	
2.0953	1.87625	-8.75464	0	
2.0960	2.18328	-8.75464	0	
2.0967	-0.238796	-5.39018	0	
2.0973	-0.545819	-3.55823	0	
2.0980	-0.238796	-0.21138	0	
2.0987	-0.545819	9.56493	0	
2.0993	0.375251	23.6041	0	
2.1000	1.56923	27.5674	0	
2.1007	2.79732	11.6963	0	
2.1013	2.18328	-10.5866	0	
2.1020	-2.08094	-18.8128	0	
2.1027	-2.69498	-10.8861	0	
2.1033	0.955184	-2.64225	0	
2.1040	2.4903	-2.9417	0	
2.1047	0.682274	-2.64225	0	
2.1053	-2.08094	3.76961	0	
2.1060	-3.61605	6.51754	0	
2.1067	-0.852842	-0.510834	0	
2.1073	1.26221	-7.83866	0	
2.1080	-0.852842	-9.97008	0	
2.1087	-1.15987	-9.67062	0	
2.1093	0.682274	-8.43757	0	
2.1100	-0.238796	-5.39018	0	
2.1107	-0.852842	-2.02572	0	
2.1113	-0.238796	-1.72627	0	
2.1120	-2.08094	-1.72627	0	
2.1127	-3.00201	-0.810289	0	
2.1133	0.0682274	-1.42681	0	
2.1140	0.682274	-2.02572	0	
2.1147	-2.08094	-0.510834	0	
2.1153	-1.77391	-1.10974	0	
2.1160	-0.238796	-2.9417	0	
2.1167	-0.852842	-2.9417	0	
2.1173	-1.15987	-2.9417	0	
2.1180	-0.238796	-5.09073	0	
2.1187	2.18328	-3.85768	0	
2.1193	5.25351	-0.810289	0	
2.1200	5.86756	-1.10974	0	
2.1207	4.02542	-2.9417	0	
2.1213	4.02542	-1.72627	0	
2.1220	5.25351	-1.42681	0	
2.1227	3.10435	-2.9417	0	
2.1233	0.0682274	-3.85768	0	
2.1240	0.375251	-2.9417	0	
2.1247	0.955184	-3.85768	0	
2.1253	-0.545819	-4.77366	0	
2.1260	-1.15987	-2.9417	0	
2.1267	-0.238796	-1.10974	0	
2.1273	-1.77391	0.704599	0	
2.1280	-2.08094	2.53656	0	
2.1287	-0.238796	1.93765	0	
2.1293	-1.77391	1.62058	0	
2.1300	-4.84415	8.64895	0	
2.1307	-2.69498	24.8195	0	
2.1313	1.26221	39.4752	0	
2.1320	1.87625	32.4468	0	
2.1327	0.955184	-2.34279	0	
2.1333	-0.238796	-34.3844	0	
2.1340	0.682274	-37.4318	0	
2.1347	4.33244	-23.0932	0	
2.1353	5.25351	-13.9334	0	
2.1360	4.02542	-11.802	0	
2.1367	6.75451	-10.2695	0	
2.1373	8.28963	-5.39018	0	
2.1380	5.86756	-2.02572	0	
2.1387	6.17458	-7.83866	0	
2.1393	7.06154	-13.634	0	
2.1400	4.94649	-8.43757	0	
2.1407	4.94649	-5.09073	0	
2.1413	7.98261	-6.92269	0	
2.1420	6.75451	-2.9417	0	
2.1427	3.10435	-0.21138	0	
2.1433	2.18328	-5.68964	0	
2.1440	1.56923	-7.22214	0	
2.1447	2.18328	-2.9417	0	
2.1453	3.10435	-0.21138	0	
2.1460	1.56923	7.11645	0	
2.1467	-0.238796	12.9118	0	
2.1473	0.955184	8.94841	0	
2.1480	1.87625	8.94841	0	
2.1487	1.26221	14.1448	0	
2.1493	0.682274	4.68558	0	
2.1500	0.682274	-9.35355	0	
2.1507	2.18328	-7.5216	0	
2.1513	4.33244	-0.810289	0	
2.1520	3.71839	-1.42681	0	
2.1527	0.955184	-1.72627	0	
2.1533	0.375251	0.704599	0	
2.1540	2.18328	1.93765	0	
2.1547	4.02542	2.2371	0	
2.1553	5.25351	1.62058	0	
2.1560	3.71839	0.704599	0	
2.1567	1.87625	-0.21138	0	
2.1573	2.4903	-1.72627	0	
2.1580	6.17458	-3.85768	0	
2.1587	7.36856	-1.72627	0	
2.1593	3.71839	4.36851	0	
2.1600	0.0682274	9.86439	0	
2.1607	2.4903	7.11645	0	
2.1613	4.63946	-2.9417	0	
2.1620	2.4903	-8.43757	0	
2.1627	0.955184	-2.9417	0	
2.1633	1.56923	6.51754	0	
2.1640	0.682274	15.6597	0	
2.1647	-1.15987	31.8479	0	
2.1653	-1.46689	41.906	0	
2.1660	-1.15987	20.8561	0	
2.1667	-2.08094	-16.0649	0	
2.1673	-4.2301	-30.4211	0	
2.1680	-5.42408	-17.2979	0	
2.1687	-5.11705	-5.09073	0	
2.1693	-7.88026	-10.8861	0	
2.1700	-11.2234	-20.6448	0	
2.1707	-9.7224	-11.1855	0	
2.1713	-7.88026	13.8278	0	
2.1720	-8.80133	22.6881	0	
2.1727	-8.18729	6.51754	0	
2.1733	-6.03812	-12.718	0	
2.1740	-6.03812	-23.3927	0	
2.1747	-6.03812	-25.8412	0	
2.1753	-5.42408	-17.2979	0	
2.1760	-4.84415	-5.09073	0	
2.1767	-3.30903	-3.85768	0	
2.1773	-0.238796	-8.13812	0	
2.1780	0.955184	-1.10974	0	
2.1787	0.682274	12.6123	0	
2.1793	2.18328	13.5283	0	
2.1800	5.25351	3.45254	0	
2.1807	5.86756	-1.10974	0	
2.1813	3.71839	1.62058	0	
2.1820	4.33244	1.93765	0	
2.1827	6.75451	0.704599	0	
2.1833	6.17458	-0.510834	0	
2.1840	5.56053	-1.72627	0	
2.1847	7.06154	-0.810289	0	
2.1853	6.44749	-1.42681	0	
2.1860	4.33244	-4.77366	0	
2.1867	4.33244	-3.85768	0	
2.1873	4.33244	-0.21138	0	
2.1880	2.4903	-1.10974	0	
2.1887	2.79732	-2.02572	0	
2.1893	3.41137	0.405144	0	
2.1900	0.0682274	0.10569	0	
2.1907	-1.15987	-0.21138	0	
2.1913	2.4903	2.53656	0	
2.1920	2.4903	7.73298	0	
2.1927	-1.15987	15.9768	0	
2.1933	-0.238796	16.5757	0	
2.1940	2.4903	0.704599	0	
2.1947	2.4903	-11.5026	0	
2.1953	2.79732	-5.09073	0	
2.1960	2.4903	0.704599	0	
2.1967	-0.238796	-2.34279	0	
2.1973	-1.15987	-0.21138	0	
2.1980	0.682274	2.53656	0	
2.1987	1.56923	-1.10974	0	
2.1993	1.56923	-1.10974	0	
2.2000	1.26221	0.704599	0	
2.2007	-0.852842	-1.72627	0	
2.2013	0.955184	-0.810289	0	
2.2020	3.10435	1.93765	0	
2.2027	0.682274	0.10569	0	
2.2033	-1.15987	-0.21138	0	
2.2040	-1.15987	2.53656	0	
2.2047	-2.69498	1.02167	0	
2.2053	-2.69498	-2.64225	0	
2.2060	0.375251	-1.42681	0	
2.2067	-0.238796	-0.21138	0	
2.2073	-2.69498	-1.72627	0	
2.2080	-3.61605	-1.42681	0	
2.2087	-4.53712	-1.10974	0	
2.2093	-4.84415	-3.85768	0	
2.2100	-2.69498	-3.85768	0	
2.2107	-2.08094	-1.10974	0	
2.2113	-4.53712	1.32112	0	
2.2120	-4.84415	4.98504	0	
2.2127	-3.00201	6.817	0	
2.2133	-3.92308	1.93765	0	
2.2140	-5.11705	2.2371	0	
2.2147	-2.69498	15.0608	0	
2.2153	-0.238796	29.0999	0	
2.2160	-0.545819	37.3261	0	
2.2167	-1.15987	29.0999	0	
2.2173	-2.08094	-7.5216	0	
2.2180	-3.00201	-44.1431	0	
2.2187	-2.08094	-46.2922	0	
2.2193	-3.00201	-31.337	0	
2.2200	-5.42408	-18.5133	0	
2.2207	-4.53712	-2.9417	0	
2.2213	-3.00201	8.64895	0	
2.2220	-3.92308	13.2288	0	
2.2227	-3.92308	18.1082	0	
2.2233	-4.53712	8.64895	0	
2.2240	-5.42408	-15.7654	0	
2.2247	-3.00201	-24.9252	0	
2.2253	-0.852842	-16.6814	0	
2.2260	0.682274	-12.4009	0	
2.2267	3.41137	-8.43757	0	
2.2273	2.4903	-5.39018	0	
2.2280	-0.238796	-6.30616	0	
2.2287	1.56923	3.45254	0	
2.2293	4.33244	21.1556	0	
2.2300	4.33244	20.8561	0	
2.2307	4.94649	6.20047	0	
2.2313	4.33244	-0.21138	0	
2.2320	1.87625	1.62058	0	
2.2327	1.26221	1.62058	0	
2.2333	0.375251	-0.21138	0	
2.2340	-1.15987	-1.10974	0	
2.2347	1.26221	-1.42681	0	
2.2353	2.4903	0.704599	0	
2.2360	0.955184	4.06906	0	
2.2367	1.26221	2.85363	0	
2.2373	4.33244	-2.02572	0	
2.2380	5.86756	-3.85768	0	
2.2387	5.25351	-3.85768	0	
2.2393	4.33244	-6.00671	0	
2.2400	4.63946	-5.68964	0	
2.2407	6.17458	-2.02572	0	
2.2413	7.36856	-2.64225	0	
2.2420	7.36856	-4.17475	0	
2.2427	5.86756	-1.42681	0	
2.2433	3.41137	-0.510834	0	
2.2440	2.4903	-1.10974	0	
2.2447	2.79732	2.2371	0	
2.2453	1.87625	1.02167	0	
2.2460	-0.852842	-0.21138	0	
2.2467	-1.77391	12.3129	0	
2.2473	-0.545819	19.6407	0	
2.2480	-2.69498	3.45254	0	
2.2487	-7.57324	-12.1015	0	
2.2493	-7.57324	-13.3169	0	
2.2500	-4.84415	-8.13812	0	
2.2507	-6.95919	8.3495	0	
2.2513	-7.57324	30.9319	0	
2.2520	-3.92308	36.1107	0	
2.2527	-5.11705	27.268	0	
2.2533	-6.65217	15.3603	0	
2.2540	-2.08094	-6.30616	0	
2.2547	-2.08094	-26.1406	0	
2.2553	-6.95919	-25.8412	0	
2.2560	-4.84415	-16.6814	0	
2.2567	-1.15987	-11.1855	0	
2.2573	-3.92308	-6.30616	0	
2.2580	-5.7311	-4.77366	0	
2.2587	-3.00201	-3.85768	0	
2.2593	-0.545819	-1.42681	0	
2.2600	1.87625	-3.55823	0	
2.2607	4.02542	-7.5216	0	
2.2613	4.63946	-4.77366	0	
2.2620	4.94649	-3.85768	0	
2.2627	4.63946	-7.5216	0	
2.2633	5.56053	-7.22214	0	
2.2640	5.25351	-5.39018	0	
2.2647	1.87625	-5.68964	0	
2.2653	0.0682274	-4.77366	0	
2.2660	2.4903	-5.39018	0	
2.2667	1.56923	-5.39018	0	
2.2673	-3.00201	-2.02572	0	
2.2680	-3.00201	-1.72627	0	
2.2687	-1.15987	-3.85768	0	
2.2693	-2.69498	-0.510834	0	
2.2700	-5.11705	2.53656	0	
2.2707	-6.65217	2.85363	0	
2.2713	-6.95919	6.817	0	
2.2720	-6.65217	6.817	0	
2.2727	-6.65217	0.405144	0	
2.2733	-6.34515	0.405144	0	
2.2740	-3.92308	4.06906	0	
2.2747	-3.00201	3.45254	0	
2.2753	-3.92308	2.85363	0	
2.2760	-4.84415	1.93765	0	
2.2767	-4.84415	-0.510834	0	
2.2773	-3.00201	-0.810289	0	
2.2780	0.0682274	0.704599	0	
2.2787	2.4903	1.62058	0	
2.2793	3.10435	3.45254	0	
2.2800	3.41137	2.53656	0	
2.2807	3.41137	0.704599	0	
2.2813	3.10435	1.02167	0	
2.2820	4.33244	2.53656	0	
2.2827	4.33244	3.76961	0	
2.2833	1.26221	5.28449	0	
2.2840	-1.15987	3.45254	0	
2.2847	1.26221	0.405144	0	
2.2853	3.10435	0.10569	0	
2.2860	1.56923	1.93765	0	
2.2867	-0.238796	3.45254	0	
2.2873	-1.15987	3.45254	0	
2.2880	-3.00201	1.62058	0	
2.2887	-4.2301	0.704599	0	
2.2893	-2.69498	1.62058	0	
2.2900	-1.46689	1.32112	0	
2.2907	-2.08094	1.32112	0	
2.2913	-0.852842	0.704599	0	
2.2920	2.4903	0.405144	0	
2.2927	3.10435	1.62058	0	
2.2933	1.26221	4.06906	0	
2.2940	1.26221	5.90102	0	
2.2947	2.4903	4.98504	0	
2.2953	2.18328	0.704599	0	
2.2960	2.4903	1.02167	0	
2.2967	4.33244	5.28449	0	
2.2973	4.63946	6.20047	0	
2.2980	4.33244	6.817	0	
2.2987	4.33244	8.64895	0	
2.2993	3.71839	0.10569	0	
2.3000	3.10435	-13.0175	0	
2.3007	3.41137	-15.466	0	
2.3013	2.18328	-11.1855	0	
2.3020	0.955184	-7.5216	0	
2.3027	2.4903	-3.85768	0	
2.3033	3.10435	-1.10974	0	
2.3040	2.4903	-0.21138	0	
2.3047	1.87625	-1.42681	0	
2.3053	1.26221	-3.85768	0	
2.3060	-0.238796	2.2371	0	
2.3067	-1.77391	13.5283	0	
2.3073	-3.30903	15.6597	0	
2.3080	-2.38796	13.5283	0	
2.3087	-0.852842	17.4917	0	
2.3093	-3.00201	26.9509	0	
2.3100	-5.7311	40.6906	0	
2.3107	-4.2301	50.1498	0	
2.3113	-0.238796	37.6432	0	
2.3120	1.87625	7.43352	0	
2.3127	2.79732	-21.2613	0	
2.3133	2.79732	-35.5999	0	
2.3140	2.18328	-23.3927	0	
2.3147	3.10435	2.53656	0	
2.3153	4.63946	4.98504	0	
2.3160	3.41137	-21.5607	0	
2.3167	1.87625	-41.3952	0	
2.3173	3.10435	-38.6473	0	
2.3180	4.33244	-27.0566	0	
2.3187	4.02542	-13.0175	0	
2.3193	3.71839	-3.85768	0	
2.3200	2.4903	-8.13812	0	
2.3207	1.56923	-21.2613	0	
2.3213	3.10435	-24.9252	0	
2.3220	3.41137	-17.5974	0	
2.3227	0.375251	-8.43757	0	
2.3233	0.375251	-6.00671	0	
2.3240	1.87625	-7.5216	0	
2.3247	-0.238796	-3.55823	0	
2.3253	0.375251	6.51754	0	
2.3260	3.41137	9.26548	0	
2.3267	0.375251	2.53656	0	
2.3273	-5.42408	-1.42681	0	
2.3280	-4.84415	-0.21138	0	
2.3287	-3.92308	-0.810289	0	
2.3293	-7.88026	-4.4742	0	
2.3300	-10.9164	-5.68964	0	
2.3307	-8.49431	-1.10974	0	
2.3313	-5.11705	3.45254	0	
2.3320	-4.84415	4.68558	0	
2.3327	-5.42408	11.6963	0	
2.3333	-5.11705	26.0349	0	
2.3340	-3.30903	31.8479	0	
2.3347	-0.852842	22.0716	0	
2.3353	0.955184	10.7804	0	
2.3360	1.87625	8.64895	0	
2.3367	3.10435	9.86439	0	
2.3373	3.71839	7.73298	0	
2.3380	4.33244	3.76961	0	
2.3387	6.44749	2.53656	0	
2.3393	7.36856	3.15308	0	
2.3400	6.75451	2.53656	0	
2.3407	6.44749	1.02167	0	
2.3413	5.25351	-0.510834	0	
2.3420	4.02542	-0.21138	0	
2.3427	4.33244	2.53656	0	
2.3433	2.4903	1.62058	0	
2.3440	0.0682274	-2.64225	0	
2.3447	0.0682274	-4.4742	0	
2.3453	-1.15987	-2.9417	0	
2.3460	-3.00201	-3.25877	0	
2.3467	-2.08094	-3.85768	0	
2.3473	-3.92308	-5.68964	0	
2.3480	-6.65217	-8.13812	0	
2.3487	-3.61605	-8.43757	0	
2.3493	-2.69498	-7.22214	0	
2.3500	-6.65217	-10.5866	0	
2.3507	-5.7311	-12.1015	0	
2.3513	-4.53712	-2.34279	0	
2.3520	-7.26622	9.56493	0	
2.3527	-6.34515	10.7804	0	
2.3533	-4.2301	5.28449	0	
2.3540	-6.65217	1.62058	0	
2.3547	-6.65217	4.36851	0	
2.3553	-4.84415	13.2288	0	
2.3560	-6.34515	20.5567	0	
2.3567	-4.2301	18.7247	0	
2.3573	-1.15987	8.94841	0	
2.3580	-2.08094	-0.810289	0	
2.3587	-0.238796	-3.85768	0	
2.3593	4.33244	-2.64225	0	
2.3600	4.63946	-1.42681	0	
2.3607	4.63946	-1.10974	0	
2.3613	6.17458	-0.810289	0	
2.3620	5.86756	-2.02572	0	
2.3627	5.25351	-2.02572	0	
2.3633	4.02542	-0.21138	0	
2.3640	0.0682274	-0.810289	0	
2.3647	-1.15987	1.62058	0	
2.3653	1.26221	10.7804	0	
2.3660	0.375251	10.4809	0	
2.3667	-1.77391	-5.68964	0	
2.3673	-0.238796	-17.5974	0	
2.3680	0.375251	-13.9334	0	
2.3687	-2.08094	-6.00671	0	
2.3693	-2.38796	-3.85768	0	
2.3700	-1.15987	-5.68964	0	
2.3707	-1.46689	-6.92269	0	
2.3713	-1.46689	-4.77366	0	
2.3720	0.682274	-2.34279	0	
2.3727	1.26221	-0.21138	0	
2.3733	-0.545819	0.704599	0	
2.3740	-0.545819	0.704599	0	
2.3747	1.56923	2.53656	0	
2.3753	0.682274	4.06906	0	
2.3760	-1.15987	0.704599	0	
2.3767	-0.545819	-1.10974	0	
2.3773	-0.545819	1.93765	0	
2.3780	-1.46689	0.704599	0	
2.3787	-0.852842	-5.68964	0	
2.3793	-0.238796	-10.2695	0	
2.3800	-0.238796	-11.802	0	
2.3807	1.56923	-8.75464	0	
2.3813	1.56923	1.32112	0	
2.3820	-3.00201	15.3603	0	
2.3827	-5.42408	22.6881	0	
2.3833	-4.53712	15.6597	0	
2.3840	-3.92308	1.32112	0	
2.3847	-3.61605	-5.09073	0	
2.3853	-3.30903	-5.68964	0	
2.3860	-2.69498	-12.1015	0	
2.3867	-2.69498	-18.8128	0	
2.3873	-5.42408	-14.8494	0	
2.3880	-8.18729	-7.5216	0	
2.3887	-6.95919	-6.60562	0	
2.3893	-5.11705	-9.97008	0	
2.3900	-3.00201	-17.8968	0	
2.3907	-0.852842	-25.8412	0	
2.3913	-3.00201	-13.9334	0	
2.3920	-4.53712	24.52	0	
2.3927	0.955184	63.8895	0	
2.3933	6.75451	68.4694	0	
2.3940	6.17458	32.7639	0	
2.3947	2.4903	-9.0541	0	
2.3953	1.56923	-23.3927	0	
2.3960	2.79732	-12.1015	0	
2.3967	2.4903	8.03243	0	
2.3973	0.682274	28.4834	0	
2.3980	0.955184	38.2421	0	
2.3987	3.41137	25.436	0	
2.3993	5.86756	-3.85768	0	
2.4000	7.98261	-26.7572	0	
2.4007	7.67558	-32.5525	0	
2.4013	7.06154	-35.3004	0	
2.4020	7.67558	-42.3112	0	
2.4027	5.25351	-39.2638	0	
2.4033	2.4903	-22.1773	0	
2.4040	3.41137	-10.2695	0	
2.4047	5.25351	-11.1855	0	
2.4053	4.02542	-13.9334	0	
2.4060	4.02542	-11.5026	0	
2.4067	4.02542	-8.43757	0	
2.4073	3.10435	-7.83866	0	
2.4080	2.4903	-7.5216	0	
2.4087	-0.238796	-6.00671	0	
2.4093	-3.00201	-4.77366	0	
2.4100	-4.2301	-1.10974	0	
2.4107	-4.84415	10.4809	0	
2.4113	-2.69498	26.9509	0	
2.4120	0.955184	39.7746	0	
2.4127	0.682274	34.2787	0	
2.4133	0.0682274	8.03243	0	
2.4140	1.87625	-13.9334	0	
2.4147	1.56923	-15.7654	0	
2.4153	0.375251	-8.43757	0	
2.4160	1.56923	-3.25877	0	
2.4167	1.26221	0.405144	0	
2.4173	-0.852842	-0.21138	0	
2.4180	1.26221	-2.9417	0	
2.4187	3.10435	-2.64225	0	
2.4193	0.955184	-2.34279	0	
2.4200	-0.238796	-2.9417	0	
2.4207	1.26221	-2.02572	0	
2.4213	0.375251	-0.21138	0	
2.4220	-0.238796	-1.10974	0	
2.4227	0.375251	-3.85768	0	
2.4233	-1.77391	-6.00671	0	
2.4240	-3.00201	-1.42681	0	
2.4247	0.682274	4.36851	0	
2.4253	1.87625	-0.510834	0	
2.4260	-0.238796	-5.68964	0	
2.4267	-2.08094	2.53656	0	
2.4273	-3.92308	12.6123	0	
2.4280	-6.34515	10.4809	0	
2.4287	-6.65217	5.28449	0	
2.4293	-6.95919	4.36851	0	
2.4300	-7.57324	4.68558	0	
2.4307	-6.03812	6.20047	0	
2.4313	-4.53712	7.73298	0	
2.4320	-4.84415	6.20047	0	
2.4327	-3.92308	4.36851	0	
2.4333	-2.38796	3.45254	0	
2.4340	-3.00201	1.02167	0	
2.4347	-3.92308	-0.510834	0	
2.4353	-3.61605	2.85363	0	
2.4360	-2.38796	3.76961	0	
2.4367	-1.46689	-0.510834	0	
2.4373	-1.15987	-3.85768	0	
2.4380	0.375251	-2.9417	0	
2.4387	2.4903	-2.64225	0	
2.4393	3.71839	-2.9417	0	
2.4400	4.94649	-3.25877	0	
2.4407	4.63946	-1.10974	0	
2.4413	2.4903	2.85363	0	
2.4420	1.56923	3.45254	0	
2.4427	1.56923	-1.10974	0	
2.4433	-0.238796	-2.02572	0	
2.4440	-2.38796	1.02167	0	
2.4447	-2.08094	0.704599	0	
2.4453	-0.238796	-0.810289	0	
2.4460	0.0682274	1.62058	0	
2.4467	-2.08094	2.53656	0	
2.4473	-3.92308	0.704599	0	
2.4480	-4.2301	-0.510834	0	
2.4487	-4.84415	-0.510834	0	
2.4493	-3.00201	0.405144	0	
2.4500	-1.15987	-1.10974	0	
2.4507	-3.92308	-4.77366	0	
2.4513	-5.7311	-5.39018	0	
2.4520	-3.30903	-2.02572	0	
2.4527	-1.15987	-0.21138	0	
2.4533	0.955184	2.53656	0	
2.4540	2.4903	7.73298	0	
2.4547	-0.545819	9.86439	0	
2.4553	-0.238796	4.36851	0	
2.4560	4.02542	-4.77366	0	
2.4567	2.4903	-7.5216	0	
2.4573	-0.238796	-3.25877	0	
2.4580	2.4903	-0.510834	0	
2.4587	2.4903	-0.510834	0	
2.4593	1.56923	1.93765	0	
2.4600	2.4903	0.10569	0	
2.4607	1.87625	-10.5866	0	
2.4613	-0.852842	-17.2979	0	
2.4620	-1.15987	-12.718	0	
2.4627	-0.545819	-5.09073	0	
2.4633	0.0682274	0.405144	0	
2.4640	1.56923	2.85363	0	
2.4647	1.56923	3.76961	0	
2.4653	1.87625	5.60156	0	
2.4660	3.41137	3.76961	0	
2.4667	3.41137	-6.60562	0	
2.4673	2.18328	-19.1299	0	
2.4680	1.56923	-24.9252	0	
2.4687	-0.238796	-17.5974	0	
2.4693	-2.38796	-1.72627	0	
2.4700	-2.08094	3.45254	0	
2.4707	-1.46689	-2.9417	0	
2.4713	-4.53712	-0.21138	0	
2.4720	-6.34515	13.5283	0	
2.4727	-3.61605	30.3154	0	
2.4733	-1.15987	59.3096	0	
2.4740	-1.46689	86.1549	0	
2.4747	-1.15987	69.6849	0	
2.4753	-1.15987	16.5757	0	
2.4760	-1.46689	-26.7572	0	
2.4767	-0.238796	-48.723	0	
2.4773	1.56923	-61.5467	0	
2.4780	1.56923	-56.6674	0	
2.4787	2.79732	-34.6839	0	
2.4793	4.02542	-17.5974	0	
2.4800	1.26221	-11.802	0	
2.4807	-1.15987	-8.43757	0	
2.4813	1.26221	-6.92269	0	
2.4820	4.63946	-6.00671	0	
2.4827	5.25351	-3.85768	0	
2.4833	3.10435	-4.4742	0	
2.4840	0.682274	-6.60562	0	
2.4847	0.682274	-4.77366	0	
2.4853	2.4903	-2.34279	0	
2.4860	2.4903	-2.64225	0	
2.4867	-0.545819	-2.9417	0	
2.4873	-3.30903	-2.9417	0	
2.4880	-3.30903	-2.64225	0	
2.4887	-3.00201	-2.02572	0	
2.4893	-3.92308	-4.4742	0	
2.4900	-5.7311	-8.43757	0	
2.4907	-6.34515	-7.22214	0	
2.4913	-3.00201	-4.77366	0	
2.4920	0.682274	-8.43757	0	
2.4927	0.375251	-10.5866	0	
2.4933	-0.852842	-7.5216	0	
2.4940	-1.15987	-9.35355	0	
2.4947	-3.30903	-9.0541	0	
2.4953	-3.61605	8.64895	0	
2.4960	-1.15987	29.3994	0	
2.4967	-1.46689	36.7272	0	
2.4973	-2.38796	38.2421	0	
2.4980	0.682274	29.0999	0	
2.4987	3.41137	4.36851	0	
2.4993	3.41137	-9.0541	0	
2.5000	3.41137	-2.02572	0	
2.5007	3.41137	1.62058	0	
2.5013	3.41137	-0.810289	0	
2.5020	3.71839	1.02167	0	
2.5027	2.4903	1.62058	0	
2.5033	0.682274	-0.810289	0	
2.5040	1.26221	-1.10974	0	
2.5047	1.26221	-0.21138	0	
2.5053	-0.238796	1.02167	0	
2.5060	1.56923	2.85363	0	
2.5067	4.94649	2.53656	0	
2.5073	4.94649	0.405144	0	
2.5080	3.41137	-1.10974	0	
2.5087	4.02542	-2.02572	0	
2.5093	5.25351	-1.42681	0	
2.5100	3.10435	-1.10974	0	
2.5107	0.955184	-0.21138	0	
2.5113	2.18328	1.02167	0	
2.5120	2.79732	0.405144	0	
2.5127	0.682274	-0.21138	0	
2.5133	-2.38796	0.704599	0	
2.5140	-2.08094	0.704599	0	
2.5147	-2.08094	0.704599	0	
2.5153	-3.61605	0.704599	0	
2.5160	-2.38796	-2.02572	0	
2.5167	0.682274	-3.25877	0	
2.5173	0.0682274	-0.21138	0	
2.5180	-1.77391	-0.510834	0	
2.5187	0.375251	-3.25877	0	
2.5193	0.375251	-2.34279	0	
2.5200	-3.00201	1.62058	0	
2.5207	-1.46689	6.51754	0	
2.5213	2.4903	9.26548	0	
2.5220	0.682274	4.68558	0	
2.5227	-3.00201	-3.25877	0	
2.5233	-0.852842	-5.39018	0	
2.5240	-0.238796	-2.9417	0	
2.5247	-3.30903	-0.21138	0	
2.5253	-3.00201	0.405144	0	
2.5260	-0.852842	3.45254	0	
2.5267	-1.77391	11.9958	0	
2.5273	-3.00201	15.3603	0	
2.5280	-2.69498	5.90102	0	
2.5287	-3.92308	-4.77366	0	
2.5293	-4.84415	-7.22214	0	
2.5300	-3.92308	-5.39018	0	
2.5307	-3.92308	-2.34279	0	
2.5313	-3.92308	-0.21138	0	
2.5320	-4.53712	-1.72627	0	
2.5327	-6.03812	-1.72627	0	
2.5333	-6.03812	1.62058	0	
2.5340	-2.08094	3.76961	0	
2.5347	0.375251	4.36851	0	
2.5353	-1.15987	4.06906	0	
2.5360	-2.38796	1.02167	0	
2.5367	-2.38796	-1.10974	0	
2.5373	-3.61605	0.10569	0	
2.5380	-2.08094	-1.10974	0	
2.5387	2.4903	-3.85768	0	
2.5393	3.71839	-2.64225	0	
2.5400	2.4903	0.10569	0	
2.5407	3.10435	1.02167	0	
2.5413	4.33244	0.405144	0	
2.5420	4.94649	-1.10974	0	
2.5427	4.63946	0.10569	0	
2.5433	2.4903	3.45254	0	
2.5440	-1.15987	3.15308	0	
2.5447	-2.08094	-1.10974	0	
2.5453	-0.852842	-1.42681	0	
2.5460	-0.238796	0.10569	0	
2.5467	-0.545819	-1.72627	0	
2.5473	-1.77391	-2.9417	0	
2.5480	-3.00201	1.02167	0	
2.5487	-3.61605	3.45254	0	
2.5493	-2.38796	1.32112	0	
2.5500	-3.00201	0.10569	0	
2.5507	-6.03812	1.32112	0	
2.5513	-5.42408	1.62058	0	
2.5520	-2.69498	2.53656	0	
2.5527	-3.00201	2.53656	0	
2.5533	-3.00201	0.10569	0	
2.5540	0.682274	-2.02572	0	
2.5547	0.375251	-1.10974	0	
2.5553	-3.92308	0.405144	0	
2.5560	-1.77391	-2.02572	0	
2.5567	3.41137	-6.00671	0	
2.5573	4.02542	-6.60562	0	
2.5580	2.4903	-3.85768	0	
2.5587	3.41137	-3.85768	0	
2.5593	4.02542	-4.77366	0	
2.5600	4.33244	-0.21138	0	
2.5607	4.94649	8.03243	0	
2.5613	3.71839	9.86439	0	
2.5620	-0.238796	2.53656	0	
2.5627	-3.00201	-4.17475	0	
2.5633	-1.15987	-0.810289	0	
2.5640	1.56923	8.03243	0	
2.5647	0.682274	11.9958	0	
2.5653	-1.15987	10.7804	0	
2.5660	-1.15987	8.3495	0	
2.5667	-0.238796	10.4809	0	
2.5673	-0.545819	15.9768	0	
2.5680	-2.38796	21.7721	0	
2.5687	-3.92308	29.0999	0	
2.5693	-3.00201	24.52	0	
2.5700	-2.08094	-7.5216	0	
2.5707	-2.08094	-40.7963	0	
2.5713	-1.77391	-38.9643	0	
2.5720	-0.852842	-20.0458	0	
2.5727	0.682274	-12.1015	0	
2.5733	2.4903	-8.43757	0	
2.5740	3.71839	-5.68964	0	
2.5747	3.71839	-8.43757	0	
2.5753	3.10435	-11.1855	0	
2.5760	3.41137	-12.1015	0	
2.5767	5.56053	-14.55	0	
2.5773	6.44749	-13.634	0	
2.5780	4.33244	-12.1015	0	
2.5787	4.02542	-13.0175	0	
2.5793	5.25351	-11.1855	0	
2.5800	2.4903	-8.13812	0	
2.5807	0.682274	-5.68964	0	
2.5813	4.02542	2.2371	0	
2.5820	3.41137	9.86439	0	
2.5827	-1.46689	12.3129	0	
2.5833	0.375251	18.7247	0	
2.5840	3.71839	25.436	0	
2.5847	0.0682274	25.436	0	
2.5853	-2.38796	30.9319	0	
2.5860	0.682274	36.7272	0	
2.5867	-0.238796	22.6881	0	
2.5873	-3.61605	-5.09073	0	
2.5880	-3.00201	-20.9618	0	
2.5887	-4.84415	-16.6814	0	
2.5893	-8.18729	-7.22214	0	
2.5900	-7.26622	-2.02572	0	
2.5907	-8.18729	0.704599	0	
2.5913	-12.4515	3.45254	0	
2.5920	-9.41538	7.43352	0	
2.5927	-5.11705	17.4917	0	
2.5933	-6.95919	21.7721	0	
2.5940	-6.65217	0.405144	0	
2.5947	-2.69498	-27.6731	0	
2.5953	-3.30903	-30.4211	0	
2.5960	-4.2301	-17.5974	0	
2.5967	-1.77391	-11.1855	0	
2.5973	-1.15987	-7.5216	0	
2.5980	0.0682274	-3.85768	0	
2.5987	3.41137	-4.17475	0	
2.5993	2.4903	-3.55823	0	
2.6000	1.56923	-1.10974	0	
2.6007	4.33244	-2.64225	0	
2.6013	5.25351	-3.25877	0	
2.6020	2.18328	-1.10974	0	
2.6027	1.26221	-1.42681	0	
2.6033	1.56923	2.2371	0	
2.6040	2.18328	8.94841	0	
2.6047	2.4903	7.11645	0	
2.6053	1.56923	-1.72627	0	
2.6060	0.955184	-10.8861	0	
2.6067	0.955184	-23.7098	0	
2.6073	-3.00201	-24.6081	0	
2.6080	-5.11705	0.704599	0	
2.6087	-2.08094	25.436	0	
2.6093	-2.08094	21.4727	0	
2.6100	-5.11705	4.68558	0	
2.6107	-2.38796	-6.00671	0	
2.6113	2.18328	-11.1855	0	
2.6120	2.4903	-9.67062	0	
2.6127	0.375251	-5.39018	0	
2.6133	-1.46689	-4.77366	0	
2.6140	-1.77391	-4.4742	0	
2.6147	-1.15987	-2.02572	0	
2.6153	-2.08094	-0.810289	0	
2.6160	-1.15987	-2.02572	0	
2.6167	2.4903	-2.02572	0	
2.6173	2.4903	-2.64225	0	
2.6180	0.682274	-3.85768	0	
2.6187	3.41137	-3.85768	0	
2.6193	4.33244	-2.34279	0	
2.6200	-0.238796	-1.10974	0	
2.6207	-2.08094	-2.34279	0	
2.6213	1.87625	-3.85768	0	
2.6220	3.71839	-2.64225	0	
2.6227	2.18328	-2.02572	0	
2.6233	0.682274	-4.77366	0	
2.6240	0.682274	-5.39018	0	
2.6247	0.0682274	-1.72627	0	
2.6253	-0.852842	-2.02572	0	
2.6260	0.682274	-6.92269	0	
2.6267	2.18328	-8.13812	0	
2.6273	0.682274	-5.68964	0	
2.6280	-1.77391	-6.60562	0	
2.6287	-2.38796	-9.67062	0	
2.6293	-3.00201	-10.2695	0	
2.6300	-3.61605	-10.8861	0	
2.6307	-4.2301	-11.802	0	
2.6313	-6.34515	-8.43757	0	
2.6320	-9.41538	-2.64225	0	
2.6327	-9.41538	2.2371	0	
2.6333	-6.34515	8.64895	0	
2.6340	-3.92308	18.7247	0	
2.6347	-3.61605	23.6041	0	
2.6353	-3.61605	19.0242	0	
2.6360	-3.00201	11.6963	0	
2.6367	-2.08094	8.64895	0	
2.6373	0.682274	8.03243	0	
2.6380	3.41137	8.3495	0	
2.6387	4.94649	11.9958	0	
2.6393	4.02542	16.5757	0	
2.6400	4.33244	22.3886	0	
2.6407	5.25351	34.5958	0	
2.6413	5.56053	35.8112	0	
2.6420	5.25351	2.85363	0	
2.6427	4.02542	-38.6473	0	
2.6433	2.4903	-46.2922	0	
2.6440	1.56923	-27.6731	0	
2.6447	1.87625	-14.2329	0	
2.6453	1.87625	-9.67062	0	
2.6460	2.18328	-5.68964	0	
2.6467	2.4903	-4.17475	0	
2.6473	1.87625	-2.02572	0	
2.6480	0.955184	4.68558	0	
2.6487	0.0682274	8.94841	0	
2.6493	0.0682274	2.85363	0	
2.6500	0.0682274	-5.09073	0	
2.6507	-1.15987	-6.30616	0	
2.6513	-2.38796	-3.85768	0	
2.6520	-2.08094	-3.55823	0	
2.6527	-3.30903	-3.85768	0	
2.6533	-4.84415	-3.85768	0	
2.6540	-3.00201	-0.510834	0	
2.6547	-1.15987	8.03243	0	
2.6553	-1.15987	14.1448	0	
2.6560	1.56923	13.2288	0	
2.6567	2.79732	9.26548	0	
2.6573	0.682274	6.51754	0	
2.6580	-0.238796	5.28449	0	
2.6587	2.4903	4.36851	0	
2.6593	2.4903	3.15308	0	
2.6600	2.79732	4.06906	0	
2.6607	3.71839	6.51754	0	
2.6613	2.4903	4.36851	0	
2.6620	2.18328	-0.21138	0	
2.6627	3.71839	-0.21138	0	
2.6633	3.41137	2.53656	0	
2.6640	-0.238796	2.53656	0	
2.6647	-3.00201	2.2371	0	
2.6653	-4.84415	5.28449	0	
2.6660	-3.92308	10.7804	0	
2.6667	-2.38796	9.86439	0	
2.6673	-3.00201	2.2371	0	
2.6680	-4.84415	-1.10974	0	
2.6687	-4.53712	2.53656	0	
2.6693	-4.53712	2.85363	0	
2.6700	-5.11705	-0.510834	0	
2.6707	-3.92308	0.405144	0	
2.6713	-2.08094	2.53656	0	
2.6720	-3.30903	1.62058	0	
2.6727	-6.34515	2.2371	0	
2.6733	-6.65217	4.68558	0	
2.6740	-3.92308	6.817	0	
2.6747	-2.38796	11.6963	0	
2.6753	-3.61605	18.4077	0	
2.6760	-3.00201	14.4443	0	
2.6767	-2.08094	-2.9417	0	
2.6773	-2.69498	-14.8494	0	
2.6780	-1.15987	-9.35355	0	
2.6787	2.18328	0.10569	0	
2.6793	2.4903	5.90102	0	
2.6800	2.4903	11.6963	0	
2.6807	2.4903	15.0608	0	
2.6813	0.0682274	12.6123	0	
2.6820	0.375251	3.76961	0	
2.6827	2.4903	-11.1855	0	
2.6833	2.79732	-20.0458	0	
2.6840	4.02542	-13.9334	0	
2.6847	5.25351	-14.55	0	
2.6853	2.79732	-24.9252	0	
2.6860	1.56923	-23.0932	0	
2.6867	4.33244	-11.802	0	
2.6873	4.94649	-8.75464	0	
2.6880	1.56923	-7.83866	0	
2.6887	-0.238796	-4.77366	0	
2.6893	0.375251	-4.17475	0	
2.6900	0.682274	-3.55823	0	
2.6907	0.0682274	-2.9417	0	
2.6913	-1.77391	-4.77366	0	
2.6920	-3.00201	-4.4742	0	
2.6927	-2.38796	-2.64225	0	
2.6933	-3.00201	-2.64225	0	
2.6940	-3.92308	0.704599	0	
2.6947	-2.08094	4.06906	0	
2.6953	0.682274	-1.42681	0	
2.6960	-1.15987	-9.35355	0	
2.6967	-2.08094	-8.75464	0	
2.6973	1.56923	-5.39018	0	
2.6980	4.02542	-8.43757	0	
2.6987	3.41137	-5.68964	0	
2.6993	3.41137	14.1448	0	
2.7000	4.02542	29.0999	0	
2.7007	5.25351	16.8928	0	
2.7013	7.98261	-3.25877	0	
2.7020	7.98261	-7.5216	0	
2.7027	2.79732	-4.4742	0	
2.7033	0.375251	-3.55823	0	
2.7040	0.955184	1.93765	0	
2.7047	0.0682274	13.8278	0	
2.7053	-3.00201	26.352	0	
2.7060	-4.84415	27.268	0	
2.7067	-3.30903	11.6963	0	
2.7073	-1.15987	-2.02572	0	
2.7080	-3.00201	1.02167	0	
2.7087	-6.65217	8.3495	0	
2.7093	-4.84415	11.9958	0	
2.7100	-2.08094	20.5567	0	
2.7107	-4.53712	19.3236	0	
2.7113	-5.11705	-7.22214	0	
2.7120	-2.08094	-31.936	0	
2.7127	-2.08094	-25.5241	0	
2.7133	-2.08094	-4.17475	0	
2.7140	2.18328	5.28449	0	
2.7147	2.4903	6.20047	0	
2.7153	1.26221	8.03243	0	
2.7160	3.41137	6.20047	0	
2.7167	3.41137	-3.25877	0	
2.7173	1.87625	-14.55	0	
2.7180	3.71839	-18.5133	0	
2.7187	4.33244	-13.9334	0	
2.7193	1.26221	-9.35355	0	
2.7200	0.682274	-8.43757	0	
2.7207	-0.238796	-7.5216	0	
2.7213	-2.38796	-3.55823	0	
2.7220	-0.238796	2.53656	0	
2.7227	2.4903	8.64895	0	
2.7233	0.682274	10.1815	0	
2.7240	-1.15987	5.28449	0	
2.7247	0.375251	-1.42681	0	
2.7253	2.18328	-6.92269	0	
2.7260	0.375251	-9.35355	0	
2.7267	-1.46689	-6.60562	0	
2.7273	-0.238796	-3.85768	0	
2.7280	0.375251	-1.10974	0	
2.7287	-2.69498	8.03243	0	
2.7293	-5.11705	19.0242	0	
2.7300	-5.11705	26.6515	0	
2.7307	-6.03812	33.6798	0	
2.7313	-6.65217	22.0716	0	
2.7320	-3.92308	-16.3819	0	
2.7327	-2.08094	-39.5632	0	
2.7333	-3.00201	-27.6731	0	
2.7340	-3.00201	-14.8494	0	
2.7347	-0.545819	-11.802	0	
2.7353	-1.15987	-2.9417	0	
2.7360	-3.00201	-2.9417	0	
2.7367	-2.08094	-19.7288	0	
2.7373	-0.545819	-29.5051	0	
2.7380	0.682274	-25.2246	0	
2.7387	2.4903	-22.7938	0	
2.7393	3.41137	-20.3453	0	
2.7400	2.4903	-9.97008	0	
2.7407	2.4903	1.62058	0	
2.7413	3.71839	7.43352	0	
2.7420	4.33244	10.7804	0	
2.7427	4.63946	16.2762	0	
2.7433	4.63946	24.203	0	
2.7440	4.33244	27.5674	0	
2.7447	4.02542	16.5757	0	
2.7453	2.18328	-4.77366	0	
2.7460	0.375251	-18.5133	0	
2.7467	0.375251	-12.718	0	
2.7473	-1.15987	0.10569	0	
2.7480	-2.38796	6.20047	0	
2.7487	-1.77391	6.20047	0	
2.7493	-1.15987	4.06906	0	
2.7500	-1.77391	-0.21138	0	
2.7507	-3.00201	-6.30616	0	
2.7513	-5.7311	-12.1015	0	
2.7520	-6.65217	-14.2329	0	
2.7527	-3.92308	-12.1015	0	
2.7533	-3.00201	-6.92269	0	
2.7540	-3.00201	-2.9417	0	
2.7547	-2.08094	-3.25877	0	
2.7553	-3.61605	-5.39018	0	
2.7560	-5.11705	0.10569	0	
2.7567	-2.69498	12.6123	0	
2.7573	-1.15987	17.4917	0	
2.7580	-2.08094	11.6963	0	
2.7587	-2.08094	4.68558	0	
2.7593	-1.15987	1.62058	0	
2.7600	0.955184	0.704599	0	
2.7607	2.4903	1.32112	0	
2.7613	0.955184	2.2371	0	
2.7620	0.682274	2.53656	0	
2.7627	3.41137	2.53656	0	
2.7633	3.71839	1.02167	0	
2.7640	2.4903	0.10569	0	
2.7647	3.41137	-0.21138	0	
2.7653	4.33244	-0.810289	0	
2.7660	1.87625	-0.810289	0	
2.7667	-1.15987	0.10569	0	
2.7673	-4.53712	-1.10974	0	
2.7680	-4.84415	-2.9417	0	
2.7687	-3.00201	-1.42681	0	
2.7693	-3.61605	1.32112	0	
2.7700	-5.7311	1.93765	0	
2.7707	-3.92308	4.36851	0	
2.7713	-3.30903	8.03243	0	
2.7720	-6.34515	5.28449	0	
2.7727	-5.7311	1.62058	0	
2.7733	-3.00201	3.45254	0	
2.7740	-3.92308	5.28449	0	
2.7747	-4.84415	5.28449	0	
2.7753	-2.38796	6.20047	0	
2.7760	-1.46689	6.51754	0	
2.7767	-2.08094	3.76961	0	
2.7773	-2.38796	0.704599	0	
2.7780	-2.08094	-0.810289	0	
2.7787	-0.238796	-1.10974	0	
2.7793	0.682274	-0.21138	0	
2.7800	-0.238796	-0.510834	0	
2.7807	0.682274	-1.10974	0	
2.7813	2.4903	-1.10974	0	
2.7820	1.56923	-2.02572	0	
2.7827	-0.852842	-2.64225	0	
2.7833	0.375251	-1.42681	0	
2.7840	2.18328	-0.21138	0	
2.7847	0.682274	0.704599	0	
2.7853	-0.545819	2.2371	0	
2.7860	1.26221	3.45254	0	
2.7867	1.56923	2.53656	0	
2.7873	-0.852842	0.10569	0	
2.7880	-0.238796	1.32112	0	
2.7887	-0.238796	3.45254	0	
2.7893	-4.53712	0.10569	0	
2.7900	-4.84415	-2.9417	0	
2.7907	-0.852842	-0.21138	0	
2.7913	-0.852842	1.02167	0	
2.7920	-2.69498	-1.10974	0	
2.7927	-0.852842	0.704599	0	
2.7933	0.955184	0.405144	0	
2.7940	0.682274	-3.85768	0	
2.7947	0.0682274	-1.10974	0	
2.7953	-0.238796	4.06906	0	
2.7960	0.682274	4.06906	0	
2.7967	0.682274	4.68558	0	
2.7973	-1.15987	0.10569	0	
2.7980	1.56923	-12.718	0	
2.7987	4.63946	-13.0175	0	
2.7993	3.41137	-0.21138	0	
2.8000	3.41137	3.76961	0	
2.8007	6.17458	-1.10974	0	
2.8013	4.33244	-2.64225	0	
2.8020	2.4903	-7.22214	0	
2.8027	2.4903	-13.0175	0	
2.8033	0.955184	-12.4009	0	
2.8040	0.0682274	-10.5866	0	
2.8047	1.56923	-9.97008	0	
2.8053	-1.15987	-8.75464	0	
2.8060	-5.11705	-10.2695	0	
2.8067	-5.42408	-6.92269	0	
2.8073	-3.92308	7.43352	0	
2.8080	-3.92308	17.8087	0	
2.8087	-3.61605	16.5757	0	
2.8093	-3.00201	15.9768	0	
2.8100	-3.00201	23.6041	0	
2.8107	-4.84415	33.6798	0	
2.8113	-6.03812	31.8479	0	
2.8120	-4.53712	19.9402	0	
2.8127	-2.38796	19.3236	0	
2.8133	-2.08094	20.2396	0	
2.8140	-0.238796	-7.22214	0	
2.8147	2.4903	-39.8803	0	
2.8153	4.02542	-39.2638	0	
2.8160	2.4903	-20.9618	0	
2.8167	1.26221	-9.67062	0	
2.8173	1.56923	-4.4742	0	
2.8180	2.18328	-3.85768	0	
2.8187	1.56923	-4.77366	0	
2.8193	1.56923	-2.34279	0	
2.8200	1.56923	4.98504	0	
2.8207	2.4903	19.3236	0	
2.8213	2.4903	27.268	0	
2.8220	1.56923	7.11645	0	
2.8227	0.682274	-22.4767	0	
2.8233	1.56923	-26.7572	0	
2.8240	1.87625	-14.8494	0	
2.8247	0.0682274	-10.2695	0	
2.8253	-2.38796	-9.35355	0	
2.8260	-3.61605	-5.68964	0	
2.8267	-3.30903	-5.09073	0	
2.8273	-2.08094	-5.68964	0	
2.8280	-0.545819	-0.510834	0	
2.8287	-1.15987	7.73298	0	
2.8293	-1.46689	7.11645	0	
2.8300	-0.238796	-2.34279	0	
2.8307	1.56923	-6.92269	0	
2.8313	2.4903	-8.43757	0	
2.8320	2.4903	-10.5866	0	
2.8327	3.10435	-2.9417	0	
2.8333	6.17458	13.8278	0	
2.8340	7.98261	19.0242	0	
2.8347	6.17458	17.4917	0	
2.8353	4.02542	25.119	0	
2.8360	2.4903	21.7721	0	
2.8367	0.682274	-6.60562	0	
2.8373	-0.238796	-27.6731	0	
2.8380	-0.545819	-16.3819	0	
2.8387	0.375251	4.68558	0	
2.8393	2.79732	12.3129	0	
2.8400	4.63946	5.90102	0	
2.8407	5.25351	-6.30616	0	
2.8413	6.75451	-14.8494	0	
2.8420	6.17458	-14.55	0	
2.8427	4.33244	-9.67062	0	
2.8433	3.41137	-5.68964	0	
2.8440	1.26221	-4.17475	0	
2.8447	-0.852842	-3.85768	0	
2.8453	0.682274	-2.02572	0	
2.8460	0.682274	-0.21138	0	
2.8467	-0.545819	-2.9417	0	
2.8473	-1.46689	-5.39018	0	
2.8480	-3.92308	-3.85768	0	
2.8487	-4.84415	-1.10974	0	
2.8493	-2.08094	-0.21138	0	
2.8500	-2.69498	-0.21138	0	
2.8507	-6.34515	0.704599	0	
2.8513	-5.7311	3.15308	0	
2.8520	-3.92308	1.62058	0	
2.8527	-3.92308	-1.10974	0	
2.8533	-3.30903	1.93765	0	
2.8540	-2.69498	3.76961	0	
2.8547	-2.69498	-0.510834	0	
2.8553	-2.08094	-2.02572	0	
2.8560	-2.08094	3.45254	0	
2.8567	-3.92308	8.94841	0	
2.8573	-3.92308	5.28449	0	
2.8580	-2.08094	-6.00671	0	
2.8587	-0.238796	-8.43757	0	
2.8593	0.375251	5.28449	0	
2.8600	-0.545819	15.0608	0	
2.8607	1.56923	9.86439	0	
2.8613	3.71839	3.45254	0	
2.8620	1.56923	2.53656	0	
2.8627	-1.77391	4.98504	0	
2.8633	-1.46689	9.26548	0	
2.8640	-2.08094	8.94841	0	
2.8647	-4.2301	1.32112	0	
2.8653	-3.92308	-2.64225	0	
2.8660	-3.00201	-0.810289	0	
2.8667	-4.53712	-1.10974	0	
2.8673	-4.84415	-1.10974	0	
2.8680	-4.2301	0.704599	0	
2.8687	-3.00201	0.405144	0	
2.8693	-1.77391	-1.42681	0	
2.8700	-0.852842	-1.10974	0	
2.8707	-0.852842	-1.10974	0	
2.8713	-1.46689	-1.72627	0	
2.8720	-2.08094	-0.21138	0	
2.8727	-1.46689	1.62058	0	
2.8733	-0.545819	0.704599	0	
2.8740	0.375251	-1.10974	0	
2.8747	0.0682274	-0.810289	0	
2.8753	-0.238796	1.32112	0	
2.8760	1.56923	4.36851	0	
2.8767	2.79732	5.60156	0	
2.8773	1.26221	-0.510834	0	
2.8780	-0.238796	-8.43757	0	
2.8787	2.4903	-8.13812	0	
2.8793	3.41137	-2.9417	0	
2.8800	0.682274	-2.02572	0	
2.8807	1.56923	-2.64225	0	
2.8813	5.86756	-2.02572	0	
2.8820	6.17458	-2.02572	0	
2.8827	3.10435	-2.9417	0	
2.8833	2.79732	-3.85768	0	
2.8840	2.4903	-2.9417	0	
2.8847	-0.238796	-2.02572	0	
2.8853	0.682274	0.704599	0	
2.8860	2.18328	4.98504	0	
2.8867	0.0682274	8.03243	0	
2.8873	-1.15987	9.56493	0	
2.8880	-1.15987	10.7804	0	
2.8887	-3.92308	7.43352	0	
2.8893	-5.11705	-3.85768	0	
2.8900	-0.852842	-12.718	0	
2.8907	0.375251	-9.97008	0	
2.8913	-3.00201	-3.85768	0	
2.8920	-3.30903	-0.21138	0	
2.8927	0.0682274	0.704599	0	
2.8933	0.682274	-2.02572	0	
2.8940	-1.15987	-5.39018	0	
2.8947	-0.852842	-4.4742	0	
2.8953	0.682274	-4.77366	0	
2.8960	1.56923	-5.39018	0	
2.8967	2.4903	-0.510834	0	
2.8973	2.18328	4.36851	0	
2.8980	0.682274	2.85363	0	
2.8987	1.56923	-2.34279	0	
2.8993	3.41137	-7.83866	0	
2.9000	4.02542	-6.30616	0	
2.9007	2.4903	8.3495	0	
2.9013	1.56923	28.4834	0	
2.9020	2.79732	44.0551	0	
2.9027	4.63946	42.822	0	
2.9033	3.41137	11.3969	0	
2.9040	1.56923	-31.02	0	
2.9047	2.4903	-46.8911	0	
2.9053	3.41137	-34.085	0	
2.9060	2.18328	-21.5607	0	
2.9067	0.682274	-14.8494	0	
2.9073	-0.238796	-8.75464	0	
2.9080	-2.08094	-7.22214	0	
2.9087	-4.84415	-7.5216	0	
2.9093	-4.84415	-4.17475	0	
2.9100	-3.00201	-3.85768	0	
2.9107	-5.42408	-6.60562	0	
2.9113	-10.9164	-3.85768	0	
2.9120	-10.0294	-2.02572	0	
2.9127	-6.65217	-4.77366	0	
2.9133	-7.88026	-0.510834	0	
2.9140	-7.88026	13.5283	0	
2.9147	-4.2301	33.0633	0	
2.9153	-2.69498	49.8504	0	
2.9160	-2.38796	34.2787	0	
2.9167	-2.08094	-13.9334	0	
2.9173	-2.69498	-35.5999	0	
2.9180	0.682274	-6.30616	0	
2.9187	6.17458	21.7721	0	
2.9193	6.44749	14.1448	0	
2.9200	4.94649	-14.8494	0	
2.9207	6.44749	-36.8153	0	
2.9213	5.25351	-31.02	0	
2.9220	1.56923	-10.2695	0	
2.9227	2.4903	-2.9417	0	
2.9233	4.63946	-4.77366	0	
2.9240	2.79732	-3.85768	0	
2.9247	0.682274	-5.09073	0	
2.9253	0.682274	-5.68964	0	
2.9260	0.0682274	-3.25877	0	
2.9267	0.375251	-3.85768	0	
2.9273	0.375251	-3.85768	0	
2.9280	-1.77391	-0.810289	0	
2.9287	-3.00201	-3.25877	0	
2.9293	-3.30903	-8.13812	0	
2.9300	-4.84415	-7.22214	0	
2.9307	-1.77391	-6.60562	0	
2.9313	1.56923	-7.5216	0	
2.9320	-1.15987	-5.68964	0	
2.9327	-2.38796	-3.85768	0	
2.9333	0.682274	-3.85768	0	
2.9340	0.375251	-5.39018	0	
2.9347	-2.08094	-9.35355	0	
2.9353	-0.545819	-4.77366	0	
2.9360	-0.238796	12.3129	0	
2.9367	-0.238796	23.3046	0	
2.9373	3.41137	20.5567	0	
2.9380	6.44749	15.3603	0	
2.9387	5.25351	6.51754	0	
2.9393	4.33244	-2.64225	0	
2.9400	6.75451	4.98504	0	
2.9407	7.98261	20.5567	0	
2.9413	6.17458	22.0716	0	
2.9420	4.33244	16.2762	0	
2.9427	3.41137	12.6123	0	
2.9433	0.682274	5.28449	0	
2.9440	-1.15987	-2.9417	0	
2.9447	1.87625	-5.09073	0	
2.9453	1.87625	-8.43757	0	
2.9460	-2.08094	-9.35355	0	
2.9467	-2.08094	-2.64225	0	
