0.0000	5.52442	0.496174	1
0.0007	5.83605	1.70904	0	
0.0013	4.61785	0.496174	0	
0.0020	3.08801	-0.110261	0	
0.0027	3.71128	0.165391	0	
0.0033	3.39964	-0.110261	0	
0.0040	1.27487	-1.04748	0	
0.0047	0.339964	-2.26035	0	
0.0053	-0.566607	-2.59113	0	
0.0060	-2.40808	-0.716696	0	
0.0067	-3.00302	0.165391	0	
0.0073	-3.31465	-1.32313	0	
0.0080	-4.22122	-2.26035	0	
0.0087	-5.15613	-1.32313	0	
0.0093	-5.75106	-1.04748	0	
0.0100	-3.31465	-0.110261	0	
0.0107	-0.566607	2.92191	0	
0.0113	-2.69138	4.46557	0	
0.0120	-5.75106	3.52835	0	
0.0127	-4.53286	3.52835	0	
0.0133	-3.31465	3.52835	0	
0.0140	-2.40808	2.64626	0	
0.0147	-0.254973	2.64626	0	
0.0153	0.963232	0.771826	0	
0.0160	1.55817	-2.26035	0	
0.0167	2.77638	-2.86678	0	
0.0173	2.49307	-2.26035	0	
0.0180	2.18144	-3.804	0	
0.0187	3.08801	-6.50539	0	
0.0193	2.18144	-8.04904	0	
0.0200	1.27487	-8.04904	0	
0.0207	2.18144	-8.37983	0	
0.0213	3.08801	-10.1991	0	
0.0220	2.18144	-11.412	0	
0.0227	-0.254973	-8.37983	0	
0.0233	-1.78481	-3.804	0	
0.0240	-1.47318	-1.04748	0	
0.0247	-1.47318	1.70904	0	
0.0253	-3.31465	7.82852	0	
0.0260	-5.15613	14.4993	0	
0.0267	-3.62629	15.4365	0	
0.0273	-1.78481	10.2543	0	
0.0280	-2.40808	6.28487	0	
0.0287	-3.31465	6.28487	0	
0.0293	-4.22122	5.072	0	
0.0300	-5.15613	1.70904	0	
0.0307	-4.53286	1.70904	0	
0.0313	-4.22122	2.31548	0	
0.0320	-5.15613	-0.110261	0	
0.0327	-3.62629	-0.110261	0	
0.0333	0.651598	1.37826	0	
0.0340	2.18144	0.165391	0	
0.0347	0.963232	1.37826	0	
0.0353	1.27487	4.13478	0	
0.0360	2.77638	2.31548	0	
0.0367	4.02291	0.771826	0	
0.0373	4.61785	2.03983	0	
0.0380	2.49307	-0.441043	0	
0.0387	0.339964	-2.86678	0	
0.0393	2.18144	-0.441043	0	
0.0400	4.02291	-0.716696	0	
0.0407	2.49307	-3.804	0	
0.0413	2.77638	-4.41043	0	
0.0420	4.61785	-3.19757	0	
0.0427	4.30621	-3.19757	0	
0.0433	1.27487	-3.19757	0	
0.0440	-2.69138	-3.19757	0	
0.0447	-3.62629	-1.92957	0	
0.0453	-3.00302	-0.441043	0	
0.0460	-3.31465	-1.92957	0	
0.0467	-2.40808	-1.32313	0	
0.0473	-0.566607	1.70904	0	
0.0480	-2.69138	2.03983	0	
0.0487	-6.0627	0.165391	0	
0.0493	-5.75106	1.70904	0	
0.0500	-3.62629	3.52835	0	
0.0507	-2.40808	2.64626	0	
0.0513	-2.40808	2.03983	0	
0.0520	-3.62629	2.03983	0	
0.0527	-2.40808	2.31548	0	
0.0533	0.0566607	3.85913	0	
0.0540	-1.47318	4.46557	0	
0.0547	-3.00302	2.92191	0	
0.0553	0.963232	2.31548	0	
0.0560	2.77638	2.64626	0	
0.0567	0.339964	0.496174	0	
0.0573	0.963232	-1.65391	0	
0.0580	4.02291	1.70904	0	
0.0587	4.92948	5.072	0	
0.0593	4.30621	1.10261	0	
0.0600	5.24112	-5.6233	0	
0.0607	6.45932	-5.29252	0	
0.0613	6.14769	-0.110261	0	
0.0620	5.24112	-0.110261	0	
0.0627	4.30621	-4.07965	0	
0.0633	3.08801	-4.68609	0	
0.0640	0.0566607	-3.47322	0	
0.0647	-2.69138	-2.86678	0	
0.0653	-3.31465	-2.26035	0	
0.0660	-3.62629	-3.47322	0	
0.0667	-3.62629	-3.804	0	
0.0673	-2.40808	0.496174	0	
0.0680	-3.62629	2.31548	0	
0.0687	-6.96927	0.496174	0	
0.0693	-7.2809	1.10261	0	
0.0700	-6.0627	3.2527	0	
0.0707	-5.75106	2.92191	0	
0.0713	-6.0627	4.46557	0	
0.0720	-4.22122	5.34765	0	
0.0727	-2.69138	1.70904	0	
0.0733	-2.09645	-0.110261	0	
0.0740	0.0566607	1.10261	0	
0.0747	1.8698	-0.441043	0	
0.0753	0.651598	-1.92957	0	
0.0760	0.963232	-0.441043	0	
0.0767	3.71128	0.165391	0	
0.0773	5.24112	0.165391	0	
0.0780	4.92948	-0.110261	0	
0.0787	4.30621	-1.92957	0	
0.0793	2.77638	-2.26035	0	
0.0800	3.08801	0.165391	0	
0.0807	5.52442	0.165391	0	
0.0813	5.83605	-0.716696	0	
0.0820	2.77638	-0.110261	0	
0.0827	0.963232	-1.32313	0	
0.0833	1.8698	-4.41043	0	
0.0840	2.49307	-4.07965	0	
0.0847	-0.566607	-1.92957	0	
0.0853	-2.40808	-1.92957	0	
0.0860	-0.566607	-1.92957	0	
0.0867	-0.566607	-2.59113	0	
0.0873	-4.53286	-2.86678	0	
0.0880	-5.75106	-1.04748	0	
0.0887	-5.75106	0.496174	0	
0.0893	-6.0627	0.496174	0	
0.0900	-3.31465	-0.716696	0	
0.0907	-2.40808	-1.04748	0	
0.0913	-6.0627	-0.110261	0	
0.0920	-5.75106	1.10261	0	
0.0927	-2.69138	-0.716696	0	
0.0933	-3.00302	-3.19757	0	
0.0940	-2.40808	-3.804	0	
0.0947	0.339964	-4.68609	0	
0.0953	1.27487	-5.29252	0	
0.0960	0.339964	-5.6233	0	
0.0967	0.339964	-5.6233	0	
0.0973	0.339964	-5.01687	0	
0.0980	1.27487	-3.19757	0	
0.0987	3.08801	-2.26035	0	
0.0993	3.39964	-3.19757	0	
0.1000	2.18144	-1.65391	0	
0.1007	0.339964	5.67843	0	
0.1013	-0.878241	13.0108	0	
0.1020	1.55817	14.4993	0	
0.1027	3.71128	12.0736	0	
0.1033	1.55817	8.43496	0	
0.1040	-0.566607	3.85913	0	
0.1047	-0.566607	2.64626	0	
0.1053	-2.09645	4.13478	0	
0.1060	-4.22122	2.31548	0	
0.1067	-3.31465	0.165391	0	
0.1073	-2.40808	2.31548	0	
0.1080	-3.00302	3.52835	0	
0.1087	-3.62629	3.52835	0	
0.1093	-3.31465	4.46557	0	
0.1100	-4.22122	3.52835	0	
0.1107	-5.43943	2.64626	0	
0.1113	-5.15613	2.92191	0	
0.1120	-3.31465	2.31548	0	
0.1127	-3.31465	0.771826	0	
0.1133	-3.90959	1.10261	0	
0.1140	-2.40808	2.64626	0	
0.1147	-0.566607	4.13478	0	
0.1153	1.55817	4.13478	0	
0.1160	3.08801	3.52835	0	
0.1167	1.27487	3.52835	0	
0.1173	0.0566607	2.31548	0	
0.1180	2.49307	-0.441043	0	
0.1187	4.92948	-1.04748	0	
0.1193	3.39964	-1.92957	0	
0.1200	2.49307	-3.804	0	
0.1207	3.08801	-2.59113	0	
0.1213	1.27487	-1.65391	0	
0.1220	0.0566607	-3.804	0	
0.1227	2.18144	-5.01687	0	
0.1233	2.18144	-4.68609	0	
0.1240	-0.566607	-4.07965	0	
0.1247	-1.47318	-1.92957	0	
0.1253	-1.47318	-1.32313	0	
0.1260	-2.69138	-4.68609	0	
0.1267	-3.62629	-4.41043	0	
0.1273	-4.22122	-0.110261	0	
0.1280	-5.15613	2.64626	0	
0.1287	-3.62629	3.52835	0	
0.1293	-2.40808	4.74122	0	
0.1300	-3.00302	4.13478	0	
0.1307	-3.00302	2.03983	0	
0.1313	-0.254973	1.70904	0	
0.1320	3.39964	3.52835	0	
0.1327	3.08801	4.13478	0	
0.1333	-1.47318	2.64626	0	
0.1340	-2.40808	-0.110261	0	
0.1347	0.339964	-1.92957	0	
0.1353	1.55817	-1.92957	0	
0.1360	2.49307	-1.04748	0	
0.1367	4.61785	-1.65391	0	
0.1373	3.71128	-1.92957	0	
0.1380	1.55817	-1.65391	0	
0.1387	2.18144	-2.86678	0	
0.1393	2.49307	-3.47322	0	
0.1400	3.08801	-1.92957	0	
0.1407	4.30621	-2.26035	0	
0.1413	4.02291	-4.07965	0	
0.1420	2.77638	-1.65391	0	
0.1427	3.08801	0.165391	0	
0.1433	2.18144	-1.92957	0	
0.1440	-0.254973	-1.92957	0	
0.1447	-0.566607	-0.110261	0	
0.1453	-0.878241	-1.65391	0	
0.1460	-3.31465	-2.86678	0	
0.1467	-5.15613	-1.04748	0	
0.1473	-4.53286	1.10261	0	
0.1480	-3.31465	2.64626	0	
0.1487	-5.15613	2.31548	0	
0.1493	-6.0627	1.70904	0	
0.1500	-3.62629	3.52835	0	
0.1507	-3.90959	3.85913	0	
0.1513	-7.2809	1.37826	0	
0.1520	-6.65763	1.37826	0	
0.1527	-3.62629	3.2527	0	
0.1533	-4.22122	2.64626	0	
0.1540	-4.22122	1.70904	0	
0.1547	-0.254973	2.92191	0	
0.1553	1.27487	2.64626	0	
0.1560	-0.566607	2.03983	0	
0.1567	-0.566607	2.31548	0	
0.1573	2.18144	0.165391	0	
0.1580	4.02291	-1.04748	0	
0.1587	3.71128	-0.441043	0	
0.1593	2.18144	-3.47322	0	
0.1600	3.08801	-3.804	0	
0.1607	5.24112	1.10261	0	
0.1613	4.61785	0.165391	0	
0.1620	0.651598	-3.804	0	
0.1627	-0.254973	-0.110261	0	
0.1633	1.27487	2.64626	0	
0.1640	0.0566607	-0.716696	0	
0.1647	-0.878241	-0.110261	0	
0.1653	0.339964	2.31548	0	
0.1660	0.0566607	-0.110261	0	
0.1667	-2.69138	-0.441043	0	
0.1673	-4.22122	1.37826	0	
0.1680	-6.0627	0.771826	0	
0.1687	-7.90417	1.70904	0	
0.1693	-7.2809	3.85913	0	
0.1700	-5.15613	2.64626	0	
0.1707	-3.31465	1.70904	0	
0.1713	-3.62629	2.64626	0	
0.1720	-5.15613	2.92191	0	
0.1727	-4.22122	4.13478	0	
0.1733	-1.78481	4.46557	0	
0.1740	0.963232	2.03983	0	
0.1747	3.08801	1.37826	0	
0.1753	3.39964	3.52835	0	
0.1760	1.55817	3.52835	0	
0.1767	0.339964	0.771826	0	
0.1773	1.27487	-1.04748	0	
0.1780	4.02291	-1.04748	0	
0.1787	6.45932	-0.716696	0	
0.1793	6.45932	-2.59113	0	
0.1800	5.83605	-2.59113	0	
0.1807	6.14769	0.165391	0	
0.1813	6.45932	-0.716696	0	
0.1820	4.30621	-3.804	0	
0.1827	1.27487	-4.07965	0	
0.1833	-0.566607	-4.68609	0	
0.1840	-0.566607	-7.44261	0	
0.1847	-0.566607	-6.22974	0	
0.1853	-0.254973	-4.41043	0	
0.1860	-0.566607	-6.50539	0	
0.1867	-4.22122	-8.65548	0	
0.1873	-5.43943	-6.50539	0	
0.1880	-1.18988	-5.01687	0	
0.1887	-0.254973	-6.50539	0	
0.1893	-6.0627	-5.6233	0	
0.1900	-6.65763	-0.441043	0	
0.1907	-1.47318	1.70904	0	
0.1913	-1.47318	0.771826	0	
0.1920	-4.53286	6.28487	0	
0.1927	-4.84449	16.6494	0	
0.1933	-4.22122	17.8623	0	
0.1940	-2.40808	12.0736	0	
0.1947	0.651598	10.2543	0	
0.1953	0.0566607	9.31704	0	
0.1960	-0.878241	5.072	0	
0.1967	3.39964	2.92191	0	
0.1973	5.83605	4.46557	0	
0.1980	2.77638	4.46557	0	
0.1987	3.39964	2.03983	0	
0.1993	6.77096	-0.110261	0	
0.2000	6.14769	-1.65391	0	
0.2007	4.92948	-2.26035	0	
0.2013	3.08801	-2.26035	0	
0.2020	-0.566607	-1.65391	0	
0.2027	-1.47318	-0.110261	0	
0.2033	0.651598	0.165391	0	
0.2040	0.0566607	-1.92957	0	
0.2047	0.963232	-1.92957	0	
0.2053	2.18144	-1.04748	0	
0.2060	-2.69138	-2.86678	0	
0.2067	-6.0627	-2.86678	0	
0.2073	-3.31465	1.70904	0	
0.2080	-5.15613	1.37826	0	
0.2087	-7.59254	-1.04748	0	
0.2093	-4.84449	0.771826	0	
0.2100	-4.22122	0.165391	0	
0.2107	-5.75106	-2.86678	0	
0.2113	-4.53286	-1.65391	0	
0.2120	-4.22122	-0.110261	0	
0.2127	-5.15613	-0.716696	0	
0.2133	-2.09645	0.496174	0	
0.2140	1.27487	0.496174	0	
0.2147	1.8698	-0.110261	0	
0.2153	2.18144	1.70904	0	
0.2160	1.27487	0.771826	0	
0.2167	-0.566607	-1.65391	0	
0.2173	1.27487	-0.441043	0	
0.2180	2.49307	-0.441043	0	
0.2187	1.27487	-3.19757	0	
0.2193	1.27487	-2.86678	0	
0.2200	0.0566607	-1.65391	0	
0.2207	-3.00302	-2.59113	0	
0.2213	-2.40808	-2.86678	0	
0.2220	0.0566607	-3.19757	0	
0.2227	-0.566607	-2.86678	0	
0.2233	-1.47318	-2.26035	0	
0.2240	0.339964	-4.68609	0	
0.2247	-0.254973	-6.50539	0	
0.2253	-2.40808	-3.804	0	
0.2260	-1.18988	-1.92957	0	
0.2267	1.27487	-2.86678	0	
0.2273	0.339964	-2.26035	0	
0.2280	-2.69138	-1.04748	0	
0.2287	-5.75106	-0.716696	0	
0.2293	-5.43943	0.771826	0	
0.2300	-4.22122	2.03983	0	
0.2307	-6.0627	0.771826	0	
0.2313	-6.37433	1.70904	0	
0.2320	-2.40808	4.74122	0	
0.2327	-1.18988	4.46557	0	
0.2333	-2.69138	1.70904	0	
0.2340	-2.40808	2.31548	0	
0.2347	0.339964	4.46557	0	
0.2353	2.77638	4.46557	0	
0.2360	4.92948	4.46557	0	
0.2367	5.52442	5.34765	0	
0.2373	4.30621	3.52835	0	
0.2380	4.92948	1.70904	0	
0.2387	7.05426	1.70904	0	
0.2393	7.98916	0.771826	0	
0.2400	6.77096	-1.92957	0	
0.2407	5.83605	-1.65391	0	
0.2413	6.45932	-1.32313	0	
0.2420	5.24112	-2.86678	0	
0.2427	2.18144	-1.04748	0	
0.2433	0.651598	1.10261	0	
0.2440	1.8698	-1.04748	0	
0.2447	1.8698	-3.804	0	
0.2453	-0.566607	-4.41043	0	
0.2460	-2.09645	-2.86678	0	
0.2467	-1.78481	-1.04748	0	
0.2473	-1.18988	0.771826	0	
0.2480	-0.878241	-0.110261	0	
0.2487	-1.18988	-1.04748	0	
0.2493	-2.69138	-1.92957	0	
0.2500	-4.84449	-0.716696	0	
0.2507	-3.90959	3.2527	0	
0.2513	-1.78481	3.85913	0	
0.2520	-2.09645	0.771826	0	
0.2527	-3.31465	0.771826	0	
0.2533	-3.31465	2.64626	0	
0.2540	-0.878241	0.165391	0	
0.2547	2.18144	-0.716696	0	
0.2553	4.02291	1.70904	0	
0.2560	4.30621	0.771826	0	
0.2567	3.71128	-0.110261	0	
0.2573	4.92948	1.10261	0	
0.2580	7.05426	-0.110261	0	
0.2587	6.77096	-1.65391	0	
0.2593	3.71128	1.10261	0	
0.2600	3.39964	1.37826	0	
0.2607	4.92948	-0.110261	0	
0.2613	4.02291	2.03983	0	
0.2620	3.71128	1.70904	0	
0.2627	4.02291	-2.59113	0	
0.2633	2.18144	-0.441043	0	
0.2640	-0.566607	2.92191	0	
0.2647	-1.47318	-0.110261	0	
0.2653	-1.78481	-2.86678	0	
0.2660	-1.47318	-1.32313	0	
0.2667	-1.47318	-0.441043	0	
0.2673	-4.22122	1.10261	0	
0.2680	-5.15613	2.64626	0	
0.2687	-3.00302	0.771826	0	
0.2693	-2.40808	0.165391	0	
0.2700	-4.53286	1.70904	0	
0.2707	-4.22122	0.771826	0	
0.2713	-1.47318	-0.716696	0	
0.2720	-1.47318	0.771826	0	
0.2727	-4.22122	2.64626	0	
0.2733	-4.53286	2.92191	0	
0.2740	-2.69138	1.70904	0	
0.2747	-0.878241	-0.110261	0	
0.2753	0.651598	0.496174	0	
0.2760	0.339964	1.70904	0	
0.2767	-0.566607	-1.65391	0	
0.2773	2.77638	-5.29252	0	
0.2780	5.83605	-5.29252	0	
0.2787	3.08801	-5.6233	0	
0.2793	1.27487	-6.83617	0	
0.2800	3.08801	-5.6233	0	
0.2807	3.08801	-3.19757	0	
0.2813	2.77638	-4.68609	0	
0.2820	3.39964	-8.04904	0	
0.2827	2.18144	-8.04904	0	
0.2833	2.18144	-4.07965	0	
0.2840	1.55817	1.37826	0	
0.2847	-2.09645	7.82852	0	
0.2853	-3.31465	11.7979	0	
0.2860	-0.566607	10.8607	0	
0.2867	-0.878241	9.31704	0	
0.2873	-2.69138	9.04139	0	
0.2880	-4.22122	5.67843	0	
0.2887	-6.96927	2.31548	0	
0.2893	-6.65763	2.31548	0	
0.2900	-4.84449	3.52835	0	
0.2907	-5.15613	4.13478	0	
0.2913	-3.31465	3.52835	0	
0.2920	-1.18988	3.2527	0	
0.2927	-3.00302	2.92191	0	
0.2933	-3.62629	3.2527	0	
0.2940	-0.254973	3.52835	0	
0.2947	1.27487	3.52835	0	
0.2953	0.339964	1.70904	0	
0.2960	0.339964	0.165391	0	
0.2967	0.0566607	1.37826	0	
0.2973	1.27487	2.64626	0	
0.2980	4.02291	2.31548	0	
0.2987	5.52442	2.03983	0	
0.2993	5.24112	0.771826	0	
0.3000	3.71128	-3.47322	0	
0.3007	1.27487	-6.22974	0	
0.3013	0.0566607	-3.19757	0	
0.3020	-0.878241	-0.110261	0	
0.3027	-0.254973	-1.04748	0	
0.3033	3.08801	-1.92957	0	
0.3040	3.08801	-1.04748	0	
0.3047	-2.40808	-1.65391	0	
0.3053	-6.0627	-2.26035	0	
0.3060	-3.90959	-1.32313	0	
0.3067	-2.40808	-0.716696	0	
0.3073	-4.84449	0.496174	0	
0.3080	-6.96927	2.03983	0	
0.3087	-5.15613	1.10261	0	
0.3093	-3.90959	1.37826	0	
0.3100	-4.53286	4.46557	0	
0.3107	-3.00302	3.52835	0	
0.3113	-1.78481	0.165391	0	
0.3120	-5.43943	0.771826	0	
0.3127	-7.90417	1.70904	0	
0.3133	-5.15613	-0.441043	0	
0.3140	-2.40808	-0.441043	0	
0.3147	-1.18988	0.771826	0	
0.3153	0.963232	-0.441043	0	
0.3160	1.27487	-1.04748	0	
0.3167	-0.566607	-0.441043	0	
0.3173	0.339964	-2.86678	0	
0.3180	2.18144	-4.07965	0	
0.3187	2.18144	-2.26035	0	
0.3193	1.27487	-2.59113	0	
0.3200	1.55817	-3.19757	0	
0.3207	2.77638	-1.92957	0	
0.3213	3.08801	-1.92957	0	
0.3220	1.27487	-2.86678	0	
0.3227	-1.18988	-3.47322	0	
0.3233	-0.878241	-5.29252	0	
0.3240	-0.566607	-4.68609	0	
0.3247	-0.878241	0.165391	0	
0.3253	-1.47318	0.165391	0	
0.3260	-2.40808	-4.41043	0	
0.3267	-3.90959	-4.41043	0	
0.3273	-4.22122	-1.32313	0	
0.3280	-6.0627	-1.04748	0	
0.3287	-6.96927	-1.32313	0	
0.3293	-4.22122	0.165391	0	
0.3300	-2.09645	2.03983	0	
0.3307	-4.84449	2.92191	0	
0.3313	-6.0627	1.70904	0	
0.3320	-3.90959	0.165391	0	
0.3327	-3.31465	1.70904	0	
0.3333	-3.62629	2.64626	0	
0.3340	-1.47318	-0.441043	0	
0.3347	0.963232	-2.26035	0	
0.3353	0.963232	0.771826	0	
0.3360	0.339964	2.64626	0	
0.3367	1.27487	-1.04748	0	
0.3373	2.77638	-4.07965	0	
0.3380	3.08801	-2.59113	0	
0.3387	2.77638	-0.716696	0	
0.3393	2.77638	-1.04748	0	
0.3400	2.49307	-1.04748	0	
0.3407	2.49307	-1.04748	0	
0.3413	3.08801	-1.92957	0	
0.3420	3.08801	-3.19757	0	
0.3427	1.27487	-1.92957	0	
0.3433	0.339964	-1.04748	0	
0.3440	-0.254973	-2.86678	0	
0.3447	-0.254973	-5.29252	0	
0.3453	0.339964	-4.41043	0	
0.3460	0.339964	-2.59113	0	
0.3467	-0.878241	-0.716696	0	
0.3473	-3.31465	0.771826	0	
0.3480	-6.37433	0.496174	0	
0.3487	-7.90417	-0.441043	0	
0.3493	-7.2809	-0.110261	0	
0.3500	-6.0627	-0.110261	0	
0.3507	-4.84449	-1.65391	0	
0.3513	-3.31465	-0.110261	0	
0.3520	-3.31465	0.771826	0	
0.3527	-4.53286	-0.716696	0	
0.3533	-3.31465	0.165391	0	
0.3540	0.963232	2.64626	0	
0.3547	2.77638	2.31548	0	
0.3553	2.18144	1.70904	0	
0.3560	2.77638	2.31548	0	
0.3567	4.30621	2.64626	0	
0.3573	4.02291	2.92191	0	
0.3580	2.18144	1.70904	0	
0.3587	3.39964	-0.716696	0	
0.3593	5.52442	-0.441043	0	
0.3600	5.83605	-0.110261	0	
0.3607	5.24112	-0.441043	0	
0.3613	4.92948	0.771826	0	
0.3620	4.92948	0.496174	0	
0.3627	4.92948	-1.92957	0	
0.3633	4.02291	-2.86678	0	
0.3640	2.77638	-4.41043	0	
0.3647	0.339964	-5.29252	0	
0.3653	-2.09645	-2.59113	0	
0.3660	-3.31465	-1.92957	0	
0.3667	-3.31465	-5.29252	0	
0.3673	-1.78481	-3.804	0	
0.3680	-0.566607	-0.110261	0	
0.3687	-1.47318	0.771826	0	
0.3693	-3.31465	0.771826	0	
0.3700	-2.69138	1.70904	0	
0.3707	-1.47318	3.52835	0	
0.3713	-1.47318	5.072	0	
0.3720	-2.09645	3.52835	0	
0.3727	-2.09645	1.70904	0	
0.3733	-1.47318	1.70904	0	
0.3740	-0.566607	0.771826	0	
0.3747	-1.18988	-0.110261	0	
0.3753	-0.566607	1.10261	0	
0.3760	1.27487	0.165391	0	
0.3767	2.77638	-3.19757	0	
0.3773	4.02291	-5.29252	0	
0.3780	5.24112	-6.50539	0	
0.3787	5.24112	-7.16696	0	
0.3793	4.92948	-6.50539	0	
0.3800	5.52442	-4.68609	0	
0.3807	4.92948	-3.19757	0	
0.3813	3.39964	-2.26035	0	
0.3820	3.08801	2.64626	0	
0.3827	2.77638	11.4671	0	
0.3833	1.55817	16.9802	0	
0.3840	0.651598	15.4365	0	
0.3847	0.963232	11.7979	0	
0.3853	-0.566607	6.61565	0	
0.3860	-4.22122	2.31548	0	
0.3867	-4.22122	4.46557	0	
0.3873	-2.09645	7.82852	0	
0.3880	-3.00302	5.67843	0	
0.3887	-4.22122	3.52835	0	
0.3893	-5.43943	4.46557	0	
0.3900	-8.81074	4.74122	0	
0.3907	-9.40568	6.28487	0	
0.3913	-4.22122	5.95409	0	
0.3920	-2.69138	2.92191	0	
0.3927	-5.15613	2.31548	0	
0.3933	-3.90959	2.92191	0	
0.3940	-1.47318	1.70904	0	
0.3947	-2.40808	3.52835	0	
0.3953	-0.566607	5.34765	0	
0.3960	2.18144	1.70904	0	
0.3967	1.27487	-1.32313	0	
0.3973	1.8698	-0.716696	0	
0.3980	4.61785	-1.65391	0	
0.3987	1.8698	-2.26035	0	
0.3993	-0.566607	-1.04748	0	
0.4000	3.39964	-2.86678	0	
0.4007	4.02291	-4.07965	0	
0.4013	0.339964	-2.86678	0	
0.4020	2.18144	-2.86678	0	
0.4027	3.08801	-2.86678	0	
0.4033	0.0566607	-2.59113	0	
0.4040	0.963232	-3.804	0	
0.4047	1.8698	-4.41043	0	
0.4053	-2.40808	-3.47322	0	
0.4060	-2.40808	-2.59113	0	
0.4067	-0.254973	-0.110261	0	
0.4073	-3.31465	2.31548	0	
0.4080	-5.75106	0.771826	0	
0.4087	-3.62629	0.496174	0	
0.4093	-3.00302	2.64626	0	
0.4100	-4.22122	1.37826	0	
0.4107	-4.53286	0.771826	0	
0.4113	-2.69138	1.70904	0	
0.4120	-0.878241	-1.65391	0	
0.4127	-2.40808	-2.59113	0	
0.4133	-3.31465	1.70904	0	
0.4140	-0.566607	1.70904	0	
0.4147	1.8698	0.771826	0	
0.4153	2.49307	2.92191	0	
0.4160	4.92948	1.37826	0	
0.4167	6.45932	-2.86678	0	
0.4173	6.14769	-2.59113	0	
0.4180	4.92948	-1.65391	0	
0.4187	4.30621	-3.47322	0	
0.4193	5.83605	-3.804	0	
0.4200	5.83605	-3.804	0	
0.4207	2.49307	-6.50539	0	
0.4213	1.55817	-5.89896	0	
0.4220	3.08801	-1.92957	0	
0.4227	0.339964	-1.32313	0	
0.4233	-2.09645	-2.86678	0	
0.4240	-0.566607	-1.92957	0	
0.4247	-0.566607	-1.32313	0	
0.4253	-2.69138	-3.804	0	
0.4260	-3.31465	-3.47322	0	
0.4267	-4.22122	-1.04748	0	
0.4273	-4.22122	-1.65391	0	
0.4280	-3.31465	-1.65391	0	
0.4287	-4.22122	-0.110261	0	
0.4293	-6.96927	-1.04748	0	
0.4300	-6.0627	0.165391	0	
0.4307	-3.62629	5.072	0	
0.4313	-3.31465	4.13478	0	
0.4320	-2.40808	-1.04748	0	
0.4327	-0.566607	0.165391	0	
0.4333	-1.78481	3.2527	0	
0.4340	-3.31465	2.64626	0	
0.4347	-0.254973	2.03983	0	
0.4353	3.39964	2.64626	0	
0.4360	2.49307	2.92191	0	
0.4367	2.18144	2.92191	0	
0.4373	4.61785	-0.441043	0	
0.4380	4.61785	-2.59113	0	
0.4387	4.02291	0.165391	0	
0.4393	4.92948	0.496174	0	
0.4400	4.02291	-1.92957	0	
0.4407	3.08801	-0.441043	0	
0.4413	4.61785	1.10261	0	
0.4420	4.61785	-0.110261	0	
0.4427	3.08801	-0.110261	0	
0.4433	2.49307	-1.92957	0	
0.4440	-0.254973	-4.07965	0	
0.4447	-2.40808	-0.110261	0	
0.4453	-0.566607	2.03983	0	
0.4460	-0.566607	-3.804	0	
0.4467	-3.90959	-6.22974	0	
0.4473	-5.43943	-1.92957	0	
0.4480	-6.37433	0.771826	0	
0.4487	-7.90417	-0.441043	0	
0.4493	-6.96927	-0.716696	0	
0.4500	-5.15613	0.771826	0	
0.4507	-6.37433	2.31548	0	
0.4513	-6.37433	2.03983	0	
0.4520	-5.43943	0.771826	0	
0.4527	-6.0627	0.165391	0	
0.4533	-5.15613	0.165391	0	
0.4540	-1.78481	0.496174	0	
0.4547	-0.878241	1.37826	0	
0.4553	-0.566607	2.92191	0	
0.4560	1.27487	4.46557	0	
0.4567	1.55817	2.31548	0	
0.4573	2.18144	-2.86678	0	
0.4580	4.02291	-3.19757	0	
0.4587	3.39964	-1.65391	0	
0.4593	2.18144	-6.22974	0	
0.4600	3.39964	-8.98626	0	
0.4607	3.08801	-6.22974	0	
0.4613	1.55817	-7.77339	0	
0.4620	1.8698	-10.1991	0	
0.4627	1.27487	-6.50539	0	
0.4633	-0.254973	-6.22974	0	
0.4640	0.339964	-8.04904	0	
0.4647	-0.254973	-3.19757	0	
0.4653	-2.09645	1.70904	0	
0.4660	-1.47318	4.46557	0	
0.4667	-0.566607	11.7979	0	
0.4673	-2.40808	17.8623	0	
0.4680	-2.69138	14.4993	0	
0.4687	-3.00302	9.04139	0	
0.4693	-5.43943	7.22209	0	
0.4700	-5.15613	7.22209	0	
0.4707	-1.78481	8.10417	0	
0.4713	-1.18988	7.22209	0	
0.4720	-1.78481	5.67843	0	
0.4727	-2.40808	6.28487	0	
0.4733	-3.31465	6.28487	0	
0.4740	-2.69138	4.46557	0	
0.4747	-0.566607	2.92191	0	
0.4753	0.339964	2.92191	0	
0.4760	2.18144	2.31548	0	
0.4767	3.39964	1.10261	0	
0.4773	1.27487	0.165391	0	
0.4780	2.18144	-1.04748	0	
0.4787	6.14769	-0.716696	0	
0.4793	5.83605	-1.92957	0	
0.4800	3.71128	-6.50539	0	
0.4807	4.92948	-7.44261	0	
0.4813	3.08801	-3.804	0	
0.4820	-0.878241	-1.32313	0	
0.4827	0.339964	-2.26035	0	
0.4833	2.77638	-3.804	0	
0.4840	1.27487	-3.804	0	
0.4847	-0.878241	-2.86678	0	
0.4853	-3.31465	-1.32313	0	
0.4860	-4.22122	-1.32313	0	
0.4867	-2.40808	-1.32313	0	
0.4873	-1.47318	-1.92957	0	
0.4880	-2.40808	-2.59113	0	
0.4887	-3.31465	-0.110261	0	
0.4893	-3.90959	1.70904	0	
0.4900	-5.15613	-0.110261	0	
0.4907	-6.96927	-0.441043	0	
0.4913	-7.2809	0.771826	0	
0.4920	-2.69138	-1.04748	0	
0.4927	-0.254973	-1.04748	0	
0.4933	-2.40808	2.64626	0	
0.4940	-0.566607	3.52835	0	
0.4947	2.49307	1.70904	0	
0.4953	0.339964	2.31548	0	
0.4960	0.651598	2.64626	0	
0.4967	4.61785	0.771826	0	
0.4973	3.08801	-0.441043	0	
0.4980	1.27487	-1.92957	0	
0.4987	4.61785	-2.59113	0	
0.4993	5.83605	-0.110261	0	
0.5000	4.61785	0.496174	0	
0.5007	4.02291	-1.65391	0	
0.5013	3.39964	-1.92957	0	
0.5020	2.77638	-0.441043	0	
0.5027	3.08801	-0.716696	0	
0.5033	3.71128	-0.441043	0	
0.5040	3.71128	-0.110261	0	
0.5047	0.339964	-2.86678	0	
0.5053	-2.69138	-4.68609	0	
0.5060	-2.69138	-2.59113	0	
0.5067	-3.31465	0.771826	0	
0.5073	-4.53286	0.771826	0	
0.5080	-4.22122	-1.04748	0	
0.5087	-5.15613	0.496174	0	
0.5093	-6.96927	4.46557	0	
0.5100	-4.22122	5.34765	0	
0.5107	-0.566607	2.64626	0	
0.5113	-1.78481	2.03983	0	
0.5120	-3.90959	3.85913	0	
0.5127	-3.31465	3.85913	0	
0.5133	-2.40808	1.70904	0	
0.5140	-3.00302	0.771826	0	
0.5147	-3.31465	1.70904	0	
0.5153	-1.47318	1.10261	0	
0.5160	2.18144	0.496174	0	
0.5167	5.83605	0.771826	0	
0.5173	4.92948	-1.04748	0	
0.5180	2.18144	-3.804	0	
0.5187	2.18144	-2.86678	0	
0.5193	5.24112	-1.32313	0	
0.5200	4.30621	-2.86678	0	
0.5207	1.27487	-2.86678	0	
0.5213	0.963232	-1.92957	0	
0.5220	3.71128	-1.65391	0	
0.5227	4.61785	-1.04748	0	
0.5233	2.18144	-1.04748	0	
0.5240	-1.18988	-1.92957	0	
0.5247	-2.09645	0.771826	0	
0.5253	-2.40808	3.52835	0	
0.5260	-3.31465	-0.110261	0	
0.5267	-1.78481	-1.65391	0	
0.5273	-0.878241	1.70904	0	
0.5280	-3.90959	0.771826	0	
0.5287	-6.0627	-1.92957	0	
0.5293	-6.0627	0.771826	0	
0.5300	-6.37433	2.64626	0	
0.5307	-3.62629	0.165391	0	
0.5313	-0.878241	-0.441043	0	
0.5320	-5.15613	0.165391	0	
0.5327	-7.2809	0.165391	0	
0.5333	-1.47318	0.771826	0	
0.5340	1.27487	0.771826	0	
0.5347	-0.878241	-0.110261	0	
0.5353	0.339964	1.37826	0	
0.5360	2.18144	2.03983	0	
0.5367	1.27487	-0.110261	0	
0.5373	3.08801	-0.441043	0	
0.5380	6.14769	1.70904	0	
0.5387	7.05426	0.165391	0	
0.5393	7.67753	-2.59113	0	
0.5400	5.83605	-2.86678	0	
0.5407	1.8698	-3.47322	0	
0.5413	3.71128	-3.804	0	
0.5420	6.45932	-2.59113	0	
0.5427	3.39964	-2.26035	0	
0.5433	0.0566607	-2.86678	0	
0.5440	-0.878241	-3.47322	0	
0.5447	-3.31465	-3.804	0	
0.5453	-4.22122	-2.86678	0	
0.5460	-3.31465	-1.92957	0	
0.5467	-3.31465	-2.86678	0	
0.5473	-4.84449	-3.47322	0	
0.5480	-4.84449	-1.04748	0	
0.5487	-4.84449	1.10261	0	
0.5493	-3.62629	-0.110261	0	
0.5500	-1.78481	-1.04748	0	
0.5507	-2.40808	1.37826	0	
0.5513	-4.53286	2.64626	0	
0.5520	-4.84449	-1.04748	0	
0.5527	-3.31465	-3.47322	0	
0.5533	-0.878241	-1.32313	0	
0.5540	1.8698	-0.110261	0	
0.5547	2.18144	-2.86678	0	
0.5553	0.963232	-3.47322	0	
0.5560	1.27487	-2.26035	0	
0.5567	1.27487	-2.59113	0	
0.5573	2.18144	-2.86678	0	
0.5580	4.02291	-2.26035	0	
0.5587	4.92948	-0.110261	0	
0.5593	4.92948	5.67843	0	
0.5600	6.14769	12.4043	0	
0.5607	7.05426	12.68	0	
0.5613	7.36589	8.10417	0	
0.5620	7.36589	3.52835	0	
0.5627	5.83605	0.771826	0	
0.5633	3.39964	1.70904	0	
0.5640	1.27487	0.771826	0	
0.5647	-0.878241	-2.86678	0	
0.5653	-1.78481	-1.92957	0	
0.5660	-1.18988	2.03983	0	
0.5667	-2.69138	1.37826	0	
0.5673	-6.0627	-0.110261	0	
0.5680	-5.75106	1.37826	0	
0.5687	-3.31465	2.92191	0	
0.5693	-3.90959	3.85913	0	
0.5700	-6.0627	5.34765	0	
0.5707	-5.43943	5.34765	0	
0.5713	-3.31465	6.28487	0	
0.5720	-3.62629	6.28487	0	
0.5727	-4.22122	3.52835	0	
0.5733	-2.69138	1.10261	0	
0.5740	-2.40808	2.31548	0	
0.5747	-3.31465	3.52835	0	
0.5753	-0.878241	2.92191	0	
0.5760	1.27487	1.70904	0	
0.5767	0.339964	-1.04748	0	
0.5773	0.651598	-3.47322	0	
0.5780	3.39964	-4.07965	0	
0.5787	3.08801	-3.804	0	
0.5793	2.77638	-3.804	0	
0.5800	4.92948	-3.804	0	
0.5807	4.30621	-3.19757	0	
0.5813	1.27487	-3.804	0	
0.5820	1.8698	-4.68609	0	
0.5827	3.08801	-4.07965	0	
0.5833	1.55817	-4.68609	0	
0.5840	0.651598	-6.50539	0	
0.5847	0.651598	-4.41043	0	
0.5853	-0.566607	-2.86678	0	
0.5860	-1.18988	-4.68609	0	
0.5867	0.339964	-1.32313	0	
0.5873	-1.18988	3.52835	0	
0.5880	-4.84449	0.771826	0	
0.5887	-5.43943	-1.04748	0	
0.5893	-5.15613	2.64626	0	
0.5900	-6.0627	2.31548	0	
0.5907	-4.22122	0.165391	0	
0.5913	-1.47318	2.31548	0	
0.5920	-5.75106	1.70904	0	
0.5927	-8.49911	-0.110261	0	
0.5933	-2.09645	0.771826	0	
0.5940	0.339964	1.10261	0	
0.5947	-2.40808	0.771826	0	
0.5953	1.8698	3.2527	0	
0.5960	5.83605	2.92191	0	
0.5967	1.55817	0.165391	0	
0.5973	1.27487	-0.441043	0	
0.5980	4.92948	-1.65391	0	
0.5987	3.08801	-2.86678	0	
0.5993	0.651598	-2.86678	0	
0.6000	1.27487	-5.01687	0	
0.6007	0.0566607	-6.50539	0	
0.6013	0.651598	-3.804	0	
0.6020	3.08801	-2.59113	0	
0.6027	2.49307	-3.47322	0	
0.6033	0.651598	-1.65391	0	
0.6040	-0.566607	1.37826	0	
0.6047	-1.47318	0.165391	0	
0.6053	-1.47318	-1.32313	0	
0.6060	-2.09645	0.771826	0	
0.6067	-1.47318	3.2527	0	
0.6073	-0.566607	0.771826	0	
0.6080	-2.69138	-2.26035	0	
0.6087	-4.53286	-0.441043	0	
0.6093	-3.31465	3.2527	0	
0.6100	-4.22122	3.2527	0	
0.6107	-4.53286	1.37826	0	
0.6113	-1.18988	1.70904	0	
0.6120	-1.18988	3.52835	0	
0.6127	-3.31465	2.64626	0	
0.6133	-0.254973	-0.441043	0	
0.6140	2.18144	-0.716696	0	
0.6147	0.339964	2.64626	0	
0.6153	1.27487	2.64626	0	
0.6160	3.71128	1.37826	0	
0.6167	2.49307	2.64626	0	
0.6173	2.18144	2.31548	0	
0.6180	3.39964	-2.26035	0	
0.6187	2.18144	-3.804	0	
0.6193	-0.566607	-1.92957	0	
0.6200	1.55817	-2.59113	0	
0.6207	5.52442	-2.59113	0	
0.6213	4.92948	-1.32313	0	
0.6220	1.8698	-1.32313	0	
0.6227	2.18144	-0.716696	0	
0.6233	2.18144	-0.716696	0	
0.6240	-0.566607	-2.59113	0	
0.6247	-0.566607	-2.86678	0	
0.6253	0.651598	-2.86678	0	
0.6260	-2.40808	-2.86678	0	
0.6267	-3.31465	-0.110261	0	
0.6273	-1.47318	2.92191	0	
0.6280	-4.53286	0.771826	0	
0.6287	-8.81074	-1.92957	0	
0.6293	-6.0627	0.496174	0	
0.6300	-3.62629	1.70904	0	
0.6307	-5.75106	0.496174	0	
0.6313	-5.43943	1.70904	0	
0.6320	-3.31465	4.13478	0	
0.6327	-3.31465	4.46557	0	
0.6333	-3.31465	4.46557	0	
0.6340	-2.69138	5.34765	0	
0.6347	-1.47318	5.34765	0	
0.6353	0.0566607	4.74122	0	
0.6360	1.27487	3.52835	0	
0.6367	3.08801	1.70904	0	
0.6373	4.30621	-0.441043	0	
0.6380	1.55817	0.771826	0	
0.6387	0.339964	2.31548	0	
0.6393	3.08801	-1.04748	0	
0.6400	4.02291	-5.01687	0	
0.6407	3.08801	-3.19757	0	
0.6413	4.02291	-2.26035	0	
0.6420	2.18144	-5.6233	0	
0.6427	-2.40808	-5.89896	0	
0.6433	-2.09645	-5.89896	0	
0.6440	0.339964	-8.37983	0	
0.6447	-0.878241	-7.44261	0	
0.6453	-2.40808	-5.01687	0	
0.6460	-2.40808	-5.89896	0	
0.6467	-3.00302	-4.68609	0	
0.6473	-4.22122	-0.110261	0	
0.6480	-4.22122	1.10261	0	
0.6487	-4.84449	2.64626	0	
0.6493	-4.53286	6.28487	0	
0.6500	-3.90959	9.92348	0	
0.6507	-6.0627	15.4365	0	
0.6513	-8.49911	18.4687	0	
0.6520	-6.96927	12.0736	0	
0.6527	-5.43943	4.74122	0	
0.6533	-6.65763	5.95409	0	
0.6540	-4.53286	8.43496	0	
0.6547	-0.878241	5.34765	0	
0.6553	1.27487	2.64626	0	
0.6560	2.49307	2.92191	0	
0.6567	1.8698	1.70904	0	
0.6573	-1.18988	-1.04748	0	
0.6580	-0.254973	-0.110261	0	
0.6587	2.49307	2.03983	0	
0.6593	2.77638	1.37826	0	
0.6600	3.39964	-0.110261	0	
0.6607	4.02291	-1.04748	0	
0.6613	2.18144	-1.04748	0	
0.6620	1.27487	-0.716696	0	
0.6627	2.77638	-3.47322	0	
0.6633	1.8698	-5.6233	0	
0.6640	1.27487	-3.804	0	
0.6647	2.77638	-2.86678	0	
0.6653	0.651598	-4.68609	0	
0.6660	-3.31465	-3.804	0	
0.6667	-2.40808	-1.92957	0	
0.6673	-2.09645	-2.26035	0	
0.6680	-4.53286	-1.92957	0	
0.6687	-3.90959	-1.92957	0	
0.6693	-2.40808	-2.86678	0	
0.6700	-5.15613	-0.441043	0	
0.6707	-5.15613	1.70904	0	
0.6713	-3.00302	1.10261	0	
0.6720	-4.22122	1.70904	0	
0.6727	-5.43943	2.03983	0	
0.6733	-4.84449	-0.110261	0	
0.6740	-3.31465	0.165391	0	
0.6747	0.651598	2.03983	0	
0.6753	4.02291	1.10261	0	
0.6760	1.27487	-0.110261	0	
0.6767	0.651598	-0.110261	0	
0.6773	4.02291	-1.04748	0	
0.6780	3.39964	-2.86678	0	
0.6787	3.08801	-1.92957	0	
0.6793	6.77096	-0.441043	0	
0.6800	6.77096	-2.26035	0	
0.6807	4.61785	-4.41043	0	
0.6813	5.24112	-1.65391	0	
0.6820	6.14769	0.771826	0	
0.6827	4.92948	-0.110261	0	
0.6833	4.92948	-0.716696	0	
0.6840	3.71128	-1.92957	0	
0.6847	1.27487	-5.29252	0	
0.6853	-1.47318	-3.804	0	
0.6860	-4.22122	-0.110261	0	
0.6867	-6.0627	-2.26035	0	
0.6873	-4.84449	-2.86678	0	
0.6880	-3.90959	0.496174	0	
0.6887	-3.62629	-0.716696	0	
0.6893	-4.84449	-2.26035	0	
0.6900	-7.90417	0.771826	0	
0.6907	-7.90417	2.31548	0	
0.6913	-4.22122	1.70904	0	
0.6920	-4.22122	2.31548	0	
0.6927	-6.0627	1.10261	0	
0.6933	-2.40808	-0.110261	0	
0.6940	2.18144	1.10261	0	
0.6947	0.0566607	2.64626	0	
0.6953	-1.47318	3.52835	0	
0.6960	1.55817	2.31548	0	
0.6967	2.77638	0.771826	0	
0.6973	3.08801	1.37826	0	
0.6980	4.92948	1.70904	0	
0.6987	4.61785	-1.65391	0	
0.6993	3.08801	-2.86678	0	
0.7000	4.92948	-0.716696	0	
0.7007	7.05426	0.496174	0	
0.7013	5.83605	0.496174	0	
0.7020	3.39964	0.771826	0	
0.7027	1.27487	-0.441043	0	
0.7033	1.27487	-1.92957	0	
0.7040	1.8698	-2.59113	0	
0.7047	-0.566607	-3.19757	0	
0.7053	-1.47318	-1.92957	0	
0.7060	1.27487	-2.26035	0	
0.7067	1.27487	-4.07965	0	
0.7073	-2.69138	-2.26035	0	
0.7080	-3.90959	1.37826	0	
0.7087	-2.40808	1.70904	0	
0.7093	-2.69138	0.771826	0	
0.7100	-3.62629	0.165391	0	
0.7107	-4.22122	1.70904	0	
0.7113	-3.62629	5.072	0	
0.7120	-1.47318	5.67843	0	
0.7127	-0.254973	2.64626	0	
0.7133	-0.566607	1.70904	0	
0.7140	-0.878241	3.52835	0	
0.7147	0.0566607	4.74122	0	
0.7153	1.27487	3.52835	0	
0.7160	3.08801	1.10261	0	
0.7167	6.45932	0.771826	0	
0.7173	7.67753	0.771826	0	
0.7180	6.14769	-2.26035	0	
0.7187	5.83605	-2.26035	0	
0.7193	6.14769	0.771826	0	
0.7200	5.83605	0.771826	0	
0.7207	5.83605	-1.04748	0	
0.7213	4.92948	-1.32313	0	
0.7220	2.18144	-2.86678	0	
0.7227	0.963232	-3.804	0	
0.7233	3.08801	-1.92957	0	
0.7240	2.49307	-1.92957	0	
0.7247	-1.47318	-2.86678	0	
0.7253	-3.31465	-3.804	0	
0.7260	-2.69138	-6.50539	0	
0.7267	-1.78481	-7.16696	0	
0.7273	-0.566607	-4.68609	0	
0.7280	-3.31465	-3.19757	0	
0.7287	-7.90417	-4.41043	0	
0.7293	-6.96927	-5.01687	0	
0.7300	-3.90959	-5.29252	0	
0.7307	-4.22122	-6.22974	0	
0.7313	-4.53286	-6.22974	0	
0.7320	-2.69138	-2.86678	0	
0.7327	-3.00302	-2.86678	0	
0.7333	-4.22122	-6.22974	0	
0.7340	-2.40808	-4.41043	0	
0.7347	0.0566607	0.771826	0	
0.7353	0.0566607	2.03983	0	
0.7360	-0.878241	6.28487	0	
0.7367	0.339964	14.8301	0	
0.7373	2.18144	16.3737	0	
0.7380	3.08801	11.1915	0	
0.7387	3.71128	6.28487	0	
0.7393	5.24112	2.64626	0	
0.7400	6.45932	2.92191	0	
0.7407	6.14769	3.52835	0	
0.7413	6.14769	0.771826	0	
0.7420	4.92948	-0.110261	0	
0.7427	1.27487	1.70904	0	
0.7433	-1.47318	0.496174	0	
0.7440	-1.18988	-1.32313	0	
0.7447	-3.00302	-1.04748	0	
0.7453	-6.0627	-1.92957	0	
0.7460	-4.84449	-2.86678	0	
0.7467	-3.00302	-1.65391	0	
0.7473	-4.22122	-0.441043	0	
0.7480	-5.15613	1.70904	0	
0.7487	-5.15613	2.03983	0	
0.7493	-4.22122	-0.110261	0	
0.7500	-2.40808	1.10261	0	
0.7507	-3.90959	2.92191	0	
0.7513	-7.90417	-0.110261	0	
0.7520	-5.75106	-0.110261	0	
0.7527	-1.47318	4.46557	0	
0.7533	-0.254973	4.74122	0	
0.7540	0.339964	3.2527	0	
0.7547	0.339964	3.52835	0	
0.7553	0.339964	1.70904	0	
0.7560	1.8698	-0.716696	0	
0.7567	2.18144	0.165391	0	
0.7573	0.651598	0.496174	0	
0.7580	2.18144	-1.32313	0	
0.7587	4.02291	-1.92957	0	
0.7593	4.02291	-2.26035	0	
0.7600	4.92948	-2.86678	0	
0.7607	4.30621	-3.47322	0	
0.7613	1.27487	-3.804	0	
0.7620	2.18144	-3.804	0	
0.7627	4.30621	-3.804	0	
0.7633	2.18144	-4.68609	0	
0.7640	2.49307	-5.29252	0	
0.7647	3.39964	-5.29252	0	
0.7653	-2.09645	-5.29252	0	
0.7660	-5.15613	-5.29252	0	
0.7667	-2.40808	-5.29252	0	
0.7673	-3.31465	-5.6233	0	
0.7680	-6.0627	-4.41043	0	
0.7687	-4.22122	-3.804	0	
0.7693	-4.84449	-4.07965	0	
0.7700	-7.90417	-1.92957	0	
0.7707	-6.37433	-0.716696	0	
0.7713	-4.84449	-3.19757	0	
0.7720	-5.43943	-2.86678	0	
0.7727	-3.62629	1.70904	0	
0.7733	-2.40808	2.64626	0	
0.7740	-3.31465	1.37826	0	
0.7747	-2.40808	3.2527	0	
0.7753	-0.566607	4.13478	0	
0.7760	-0.878241	3.52835	0	
0.7767	0.339964	2.64626	0	
0.7773	2.49307	0.771826	0	
0.7780	3.39964	-0.110261	0	
0.7787	2.77638	2.31548	0	
0.7793	1.27487	1.70904	0	
0.7800	2.18144	-1.04748	0	
0.7807	4.92948	-2.26035	0	
0.7813	3.39964	-3.47322	0	
0.7820	0.0566607	-4.07965	0	
0.7827	0.339964	-3.804	0	
0.7833	1.8698	-4.68609	0	
0.7840	0.339964	-5.01687	0	
0.7847	-1.18988	-2.86678	0	
0.7853	-1.47318	-2.86678	0	
0.7860	-2.40808	-3.804	0	
0.7867	-3.31465	-0.110261	0	
0.7873	-3.00302	1.70904	0	
0.7880	-3.31465	0.771826	0	
0.7887	-5.75106	2.64626	0	
0.7893	-6.65763	3.52835	0	
0.7900	-4.22122	2.31548	0	
0.7907	-1.78481	5.34765	0	
0.7913	-0.566607	8.10417	0	
0.7920	-1.18988	4.13478	0	
0.7927	-3.62629	0.771826	0	
0.7933	-4.22122	3.52835	0	
0.7940	0.339964	4.74122	0	
0.7947	3.08801	2.31548	0	
0.7953	0.963232	2.64626	0	
0.7960	1.27487	3.85913	0	
0.7967	4.02291	1.10261	0	
0.7973	2.49307	-1.65391	0	
0.7980	1.27487	-1.92957	0	
0.7987	4.30621	-2.86678	0	
0.7993	4.61785	-2.59113	0	
0.8000	2.49307	-0.441043	0	
0.8007	3.71128	-2.26035	0	
0.8013	3.71128	-5.6233	0	
0.8020	0.339964	-4.07965	0	
0.8027	0.963232	-3.804	0	
0.8033	3.71128	-7.44261	0	
0.8040	0.651598	-6.22974	0	
0.8047	-1.78481	-1.92957	0	
0.8053	-1.47318	-2.26035	0	
0.8060	-3.90959	-3.19757	0	
0.8067	-5.43943	-0.110261	0	
0.8073	-4.53286	1.37826	0	
0.8080	-6.0627	1.37826	0	
0.8087	-7.90417	3.52835	0	
0.8093	-4.53286	3.52835	0	
0.8100	-3.00302	1.37826	0	
0.8107	-4.53286	3.52835	0	
0.8113	-3.90959	6.61565	0	
0.8120	-2.40808	3.52835	0	
0.8127	-2.40808	0.165391	0	
0.8133	-3.00302	2.64626	0	
0.8140	-2.09645	4.13478	0	
0.8147	1.8698	2.92191	0	
0.8153	4.92948	4.74122	0	
0.8160	4.02291	4.46557	0	
0.8167	2.18144	-1.92957	0	
0.8173	3.08801	-5.29252	0	
0.8180	5.83605	-2.86678	0	
0.8187	6.14769	-1.65391	0	
0.8193	4.92948	-3.804	0	
0.8200	4.30621	-6.50539	0	
0.8207	6.14769	-8.04904	0	
0.8213	5.83605	-7.16696	0	
0.8220	3.08801	-5.89896	0	
0.8227	2.18144	-8.37983	0	
0.8233	0.339964	-10.8056	0	
0.8240	-1.47318	-8.37983	0	
0.8247	0.339964	-5.6233	0	
0.8253	2.77638	-5.29252	0	
0.8260	-0.254973	-0.110261	0	
0.8267	-3.62629	9.64783	0	
0.8273	-3.31465	14.2237	0	
0.8280	-2.69138	10.8607	0	
0.8287	-3.31465	7.82852	0	
0.8293	-3.90959	5.95409	0	
0.8300	-3.31465	3.52835	0	
0.8307	-3.00302	2.31548	0	
0.8313	-4.22122	4.13478	0	
0.8320	-5.75106	7.22209	0	
0.8327	-4.22122	7.22209	0	
0.8333	-0.878241	4.74122	0	
0.8340	0.651598	3.2527	0	
0.8347	0.0566607	2.64626	0	
0.8353	-0.566607	1.70904	0	
0.8360	0.651598	1.70904	0	
0.8367	2.49307	2.64626	0	
0.8373	2.49307	0.496174	0	
0.8380	1.27487	-1.92957	0	
0.8387	2.49307	-1.32313	0	
0.8393	4.02291	-1.65391	0	
0.8400	2.77638	-4.07965	0	
0.8407	2.77638	-4.41043	0	
0.8413	4.61785	-3.47322	0	
0.8420	3.08801	-4.68609	0	
0.8427	0.339964	-5.01687	0	
0.8433	0.339964	-4.41043	0	
0.8440	0.339964	-4.68609	0	
0.8447	-1.18988	-3.804	0	
0.8453	-2.40808	-1.92957	0	
0.8460	-2.40808	-3.47322	0	
0.8467	-1.78481	-4.07965	0	
0.8473	-3.00302	-0.110261	0	
0.8480	-6.96927	1.70904	0	
0.8487	-7.90417	1.10261	0	
0.8493	-3.31465	2.92191	0	
0.8500	-1.78481	4.46557	0	
0.8507	-4.84449	2.64626	0	
0.8513	-4.22122	2.03983	0	
0.8520	-2.40808	3.52835	0	
0.8527	-1.47318	2.92191	0	
0.8533	-0.566607	2.31548	0	
0.8540	0.0566607	4.46557	0	
0.8547	-0.566607	5.34765	0	
0.8553	1.8698	3.85913	0	
0.8560	4.92948	1.10261	0	
0.8567	4.02291	0.165391	0	
0.8573	2.77638	0.771826	0	
0.8580	3.71128	0.165391	0	
0.8587	4.30621	-2.59113	0	
0.8593	5.24112	-3.804	0	
0.8600	5.83605	-2.86678	0	
0.8607	4.30621	-1.04748	0	
0.8613	3.71128	-1.04748	0	
0.8620	3.71128	-2.26035	0	
0.8627	4.61785	-3.804	0	
0.8633	5.83605	-2.86678	0	
0.8640	3.39964	-1.04748	0	
0.8647	0.339964	-1.92957	0	
0.8653	2.49307	-2.26035	0	
0.8660	2.18144	-2.26035	0	
0.8667	-3.62629	-5.01687	0	
0.8673	-4.22122	-4.41043	0	
0.8680	0.0566607	0.771826	0	
0.8687	-0.566607	1.70904	0	
0.8693	-3.90959	-0.110261	0	
0.8700	-3.62629	3.52835	0	
0.8707	-3.00302	6.61565	0	
0.8713	-3.00302	5.34765	0	
0.8720	-2.69138	4.46557	0	
0.8727	-3.31465	4.46557	0	
0.8733	-3.31465	3.52835	0	
0.8740	-2.40808	4.13478	0	
0.8747	-0.566607	6.8913	0	
0.8753	0.339964	9.31704	0	
0.8760	1.55817	9.92348	0	
0.8767	3.71128	6.28487	0	
0.8773	4.02291	2.31548	0	
0.8780	2.18144	2.03983	0	
0.8787	1.8698	1.70904	0	
0.8793	3.39964	-0.110261	0	
0.8800	4.92948	0.771826	0	
0.8807	4.02291	2.64626	0	
0.8813	2.49307	0.496174	0	
0.8820	3.08801	-0.441043	0	
0.8827	4.02291	-0.110261	0	
0.8833	2.18144	-1.92957	0	
0.8840	0.339964	-2.26035	0	
0.8847	0.963232	-1.04748	0	
0.8853	-0.566607	-3.47322	0	
0.8860	-2.09645	-3.47322	0	
0.8867	-1.47318	1.10261	0	
0.8873	-3.62629	1.70904	0	
0.8880	-6.65763	-0.441043	0	
0.8887	-5.75106	2.64626	0	
0.8893	-5.15613	5.34765	0	
0.8900	-6.0627	1.70904	0	
0.8907	-6.0627	0.496174	0	
0.8913	-6.65763	4.13478	0	
0.8920	-5.75106	4.13478	0	
0.8927	-2.40808	2.92191	0	
0.8933	-1.78481	5.34765	0	
0.8940	-2.40808	6.61565	0	
0.8947	0.963232	5.34765	0	
0.8953	2.18144	5.67843	0	
0.8960	-1.78481	7.22209	0	
0.8967	-1.47318	7.22209	0	
0.8973	3.08801	5.34765	0	
0.8980	2.77638	3.85913	0	
0.8987	0.339964	3.85913	0	
0.8993	3.08801	1.70904	0	
0.9000	6.77096	-1.04748	0	
0.9007	4.61785	-1.04748	0	
0.9013	2.18144	-1.04748	0	
0.9020	2.18144	-3.47322	0	
0.9027	0.963232	-3.804	0	
0.9033	-0.566607	-2.86678	0	
0.9040	0.0566607	-5.01687	0	
0.9047	-0.878241	-6.83617	0	
0.9053	-3.62629	-6.50539	0	
0.9060	-3.90959	-6.22974	0	
0.9067	-3.31465	-6.83617	0	
0.9073	-3.90959	-7.44261	0	
0.9080	-4.53286	-3.804	0	
0.9087	-4.84449	1.37826	0	
0.9093	-6.0627	1.70904	0	
0.9100	-6.37433	1.70904	0	
0.9107	-4.53286	6.28487	0	
0.9113	-3.31465	13.0108	0	
0.9120	-3.62629	18.193	0	
0.9127	-2.40808	19.4059	0	
0.9133	-0.566607	16.3737	0	
0.9140	-0.878241	14.4993	0	
0.9147	-0.566607	13.6172	0	
0.9153	1.55817	9.04139	0	
0.9160	1.27487	7.22209	0	
0.9167	0.339964	9.04139	0	
0.9173	2.18144	5.34765	0	
0.9180	3.08801	1.70904	0	
0.9187	3.39964	4.46557	0	
0.9193	5.83605	4.13478	0	
0.9200	6.45932	-0.716696	0	
0.9207	5.83605	-1.32313	0	
0.9213	7.36589	0.771826	0	
0.9220	4.30621	1.70904	0	
0.9227	-0.566607	0.496174	0	
0.9233	1.8698	-1.65391	0	
0.9240	4.61785	-1.32313	0	
0.9247	0.0566607	0.496174	0	
0.9253	-3.90959	-1.65391	0	
0.9260	-3.31465	-3.804	0	
0.9267	-3.90959	-1.65391	0	
0.9273	-5.75106	-1.04748	0	
0.9280	-4.22122	-1.92957	0	
0.9287	-3.31465	0.771826	0	
0.9293	-5.75106	2.03983	0	
0.9300	-6.96927	1.10261	0	
0.9307	-4.53286	2.92191	0	
0.9313	-1.78481	3.85913	0	
0.9320	-3.00302	1.70904	0	
0.9327	-5.15613	3.52835	0	
0.9333	-3.31465	8.43496	0	
0.9340	0.339964	6.28487	0	
0.9347	0.651598	1.70904	0	
0.9353	0.339964	2.92191	0	
0.9360	1.27487	5.67843	0	
0.9367	1.8698	4.46557	0	
0.9373	1.8698	2.03983	0	
0.9380	3.39964	1.10261	0	
0.9387	3.71128	-1.04748	0	
0.9393	3.08801	-2.86678	0	
0.9400	5.24112	-1.92957	0	
0.9407	4.92948	-1.92957	0	
0.9413	1.55817	-4.07965	0	
0.9420	1.27487	-5.01687	0	
0.9427	2.49307	-3.804	0	
0.9433	0.339964	-5.01687	0	
0.9440	0.339964	-7.44261	0	
0.9447	2.49307	-6.50539	0	
0.9453	-0.566607	-4.68609	0	
0.9460	-5.15613	-5.89896	0	
0.9467	-4.22122	-5.6233	0	
0.9473	-2.40808	-2.86678	0	
0.9480	-5.15613	-2.59113	0	
0.9487	-6.0627	-3.19757	0	
0.9493	-3.62629	-0.716696	0	
0.9500	-3.62629	2.03983	0	
0.9507	-4.22122	3.52835	0	
0.9513	-3.62629	4.74122	0	
0.9520	-4.22122	3.85913	0	
0.9527	-3.62629	2.64626	0	
0.9533	0.0566607	4.74122	0	
0.9540	0.963232	6.61565	0	
0.9547	0.651598	4.46557	0	
0.9553	3.08801	4.13478	0	
0.9560	4.02291	5.34765	0	
0.9567	3.71128	3.52835	0	
0.9573	3.71128	1.10261	0	
0.9580	2.77638	0.771826	0	
0.9587	3.71128	0.771826	0	
0.9593	5.52442	0.165391	0	
0.9600	4.02291	-1.32313	0	
0.9607	3.71128	-3.804	0	
0.9613	4.92948	-4.68609	0	
0.9620	1.8698	-5.29252	0	
0.9627	0.0566607	-5.89896	0	
0.9633	2.49307	-3.47322	0	
0.9640	0.963232	-3.19757	0	
0.9647	-2.09645	-7.77339	0	
0.9653	-0.878241	-8.04904	0	
0.9660	-2.40808	-4.68609	0	
0.9667	-5.15613	-4.68609	0	
0.9673	-4.22122	-3.804	0	
0.9680	-4.22122	-1.04748	0	
0.9687	-6.96927	-0.716696	0	
0.9693	-6.96927	0.771826	0	
0.9700	-5.15613	3.85913	0	
0.9707	-3.31465	3.2527	0	
0.9713	-3.31465	1.70904	0	
0.9720	-5.15613	3.52835	0	
0.9727	-5.75106	4.13478	0	
0.9733	-3.31465	3.52835	0	
0.9740	-1.47318	4.13478	0	
0.9747	-0.878241	4.74122	0	
0.9753	-1.78481	5.67843	0	
0.9760	-1.78481	6.28487	0	
0.9767	3.08801	4.46557	0	
0.9773	7.67753	1.70904	0	
0.9780	5.24112	1.70904	0	
0.9787	4.02291	0.496174	0	
0.9793	7.67753	-1.04748	0	
0.9800	6.77096	-1.04748	0	
0.9807	3.08801	-1.65391	0	
0.9813	4.30621	-2.86678	0	
0.9820	6.77096	-1.92957	0	
0.9827	4.02291	-3.47322	0	
0.9833	0.0566607	-7.16696	0	
0.9840	-1.18988	-8.04904	0	
0.9847	0.0566607	-6.50539	0	
0.9853	1.27487	-6.83617	0	
0.9860	-0.878241	-8.37983	0	
0.9867	-5.15613	-6.22974	0	
0.9873	-4.22122	-1.92957	0	
0.9880	-0.566607	-1.32313	0	
0.9887	-2.40808	-2.59113	0	
0.9893	-5.75106	-0.110261	0	
0.9900	-3.62629	1.70904	0	
0.9907	-1.47318	0.771826	0	
0.9913	-4.22122	0.771826	0	
0.9920	-5.75106	1.10261	0	
0.9927	-3.31465	1.10261	0	
0.9933	-0.566607	4.46557	0	
0.9940	-0.566607	7.22209	0	
0.9947	-1.47318	6.61565	0	
0.9953	-0.566607	6.28487	0	
0.9960	2.18144	5.95409	0	
0.9967	3.71128	5.072	0	
0.9973	3.08801	4.13478	0	
0.9980	2.18144	2.03983	0	
0.9987	0.963232	-0.441043	0	
0.9993	0.651598	-0.441043	0	
1.0000	2.18144	-1.04748	0	
1.0007	3.71128	-2.86678	0	
1.0013	1.8698	-2.86678	0	
1.0020	0.0566607	-4.41043	0	
1.0027	0.651598	-7.16696	0	
1.0033	1.55817	-7.77339	0	
1.0040	2.18144	-8.04904	0	
1.0047	0.339964	-8.37983	0	
1.0053	-3.90959	-7.77339	0	
1.0060	-4.84449	-7.16696	0	
1.0067	-0.878241	-7.44261	0	
1.0073	-0.566607	-5.6233	0	
1.0080	-4.22122	-2.59113	0	
1.0087	-4.53286	0.771826	0	
1.0093	-3.90959	2.92191	0	
1.0100	-4.22122	6.28487	0	
1.0107	-4.22122	14.2237	0	
1.0113	-6.65763	21.8317	0	
1.0120	-7.90417	20.3431	0	
1.0127	-3.90959	14.8301	0	
1.0133	-1.78481	12.68	0	
1.0140	-2.40808	12.4043	0	
1.0147	0.339964	10.8607	0	
1.0153	1.8698	10.585	0	
1.0160	-0.566607	10.2543	0	
1.0167	1.27487	9.04139	0	
1.0173	5.24112	5.67843	0	
1.0180	3.71128	1.10261	0	
1.0187	0.0566607	-2.86678	0	
1.0193	2.77638	-1.92957	0	
1.0200	7.67753	1.37826	0	
1.0207	5.83605	1.10261	0	
1.0213	2.18144	-2.86678	0	
1.0220	4.61785	-4.68609	0	
1.0227	6.45932	-2.59113	0	
1.0233	2.77638	-2.26035	0	
1.0240	1.27487	-3.47322	0	
1.0247	2.77638	-2.26035	0	
1.0253	-1.18988	-2.26035	0	
1.0260	-5.15613	-5.6233	0	
1.0267	-2.40808	-6.50539	0	
1.0273	0.651598	-4.07965	0	
1.0280	-0.566607	-1.04748	0	
1.0287	-2.40808	2.03983	0	
1.0293	-3.62629	2.31548	0	
1.0300	-6.0627	-0.110261	0	
1.0307	-6.37433	-0.441043	0	
1.0313	-3.00302	0.165391	0	
1.0320	0.0566607	-0.110261	0	
1.0327	-3.31465	2.31548	0	
1.0333	-6.37433	5.34765	0	
1.0340	-2.40808	4.46557	0	
1.0347	1.55817	3.2527	0	
1.0353	0.339964	4.46557	0	
1.0360	0.339964	5.072	0	
1.0367	3.08801	2.92191	0	
1.0373	3.71128	1.10261	0	
1.0380	4.02291	-0.110261	0	
1.0387	5.83605	-0.441043	0	
1.0393	5.24112	-1.04748	0	
1.0400	4.02291	-4.07965	0	
1.0407	5.83605	-5.6233	0	
1.0413	6.45932	-3.47322	0	
1.0420	2.77638	-2.86678	0	
1.0427	0.651598	-4.07965	0	
1.0433	2.18144	-4.07965	0	
1.0440	2.18144	-4.68609	0	
1.0447	-0.566607	-6.22974	0	
1.0453	-2.40808	-6.50539	0	
1.0460	-1.78481	-5.6233	0	
1.0467	-1.78481	-3.804	0	
1.0473	-3.31465	-1.92957	0	
1.0480	-3.31465	-2.26035	0	
1.0487	-3.31465	-1.92957	0	
1.0493	-6.0627	-0.110261	0	
1.0500	-9.12238	0.496174	0	
1.0507	-6.96927	-0.110261	0	
1.0513	-3.00302	1.37826	0	
1.0520	-3.90959	1.37826	0	
1.0527	-5.15613	-0.110261	0	
1.0533	-3.31465	2.92191	0	
1.0540	-0.566607	6.8913	0	
1.0547	-0.254973	4.74122	0	
1.0553	-0.878241	1.70904	0	
1.0560	0.963232	2.92191	0	
1.0567	4.02291	3.52835	0	
1.0573	4.02291	-0.110261	0	
1.0580	2.18144	-3.804	0	
1.0587	3.08801	-5.29252	0	
1.0593	3.08801	-6.22974	0	
1.0600	1.55817	-7.44261	0	
1.0607	2.18144	-8.65548	0	
1.0613	1.8698	-8.37983	0	
1.0620	-0.254973	-6.83617	0	
1.0627	0.0566607	-6.83617	0	
1.0633	0.651598	-7.77339	0	
1.0640	-0.566607	-8.04904	0	
1.0647	-2.09645	-9.26191	0	
1.0653	-2.69138	-10.1991	0	
1.0660	-2.40808	-8.37983	0	
1.0667	-0.566607	-4.68609	0	
1.0673	-1.78481	-3.47322	0	
1.0680	-5.15613	-2.59113	0	
1.0687	-4.22122	-1.92957	0	
1.0693	-2.69138	-0.716696	0	
1.0700	-4.22122	-0.110261	0	
1.0707	-4.22122	-0.110261	0	
1.0713	-3.62629	0.771826	0	
1.0720	-3.31465	2.64626	0	
1.0727	-1.47318	5.34765	0	
1.0733	0.0566607	7.49774	0	
1.0740	-1.47318	7.49774	0	
1.0747	-1.18988	3.52835	0	
1.0753	2.49307	2.64626	0	
1.0760	3.39964	5.67843	0	
1.0767	1.27487	5.95409	0	
1.0773	1.27487	3.52835	0	
1.0780	4.02291	2.03983	0	
1.0787	5.52442	-0.441043	0	
1.0793	4.92948	-2.59113	0	
1.0800	4.92948	-2.86678	0	
1.0807	4.92948	-5.6233	0	
1.0813	2.77638	-9.5927	0	
1.0820	1.27487	-9.86835	0	
1.0827	2.49307	-9.26191	0	
1.0833	2.18144	-10.1991	0	
1.0840	-0.566607	-11.1363	0	
1.0847	-1.18988	-10.1991	0	
1.0853	-0.566607	-10.1991	0	
1.0860	-1.47318	-10.1991	0	
1.0867	-3.31465	-7.44261	0	
1.0873	-3.62629	0.165391	0	
1.0880	-3.00302	7.22209	0	
1.0887	-3.62629	10.2543	0	
1.0893	-6.0627	14.2237	0	
1.0900	-6.0627	16.043	0	
1.0907	-2.69138	10.585	0	
1.0913	-2.40808	7.49774	0	
1.0920	-5.43943	9.31704	0	
1.0927	-6.65763	7.22209	0	
1.0933	-5.43943	4.46557	0	
1.0940	-3.90959	5.34765	0	
1.0947	-1.47318	3.52835	0	
1.0953	0.651598	4.13478	0	
1.0960	0.651598	8.10417	0	
1.0967	1.27487	6.28487	0	
1.0973	2.49307	2.64626	0	
1.0980	3.39964	4.13478	0	
1.0987	5.24112	1.37826	0	
1.0993	7.05426	-4.07965	0	
1.1000	5.24112	-3.47322	0	
1.1007	2.77638	-3.804	0	
1.1013	3.08801	-5.89896	0	
1.1020	4.02291	-3.804	0	
1.1027	2.18144	-3.47322	0	
1.1033	1.27487	-7.77339	0	
1.1040	2.18144	-7.77339	0	
1.1047	1.27487	-5.6233	0	
1.1053	0.339964	-8.37983	0	
1.1060	0.651598	-8.65548	0	
1.1067	-0.566607	-5.01687	0	
1.1073	-2.69138	-1.65391	0	
1.1080	-2.40808	1.70904	0	
1.1087	-0.878241	3.2527	0	
1.1093	-2.40808	1.37826	0	
1.1100	-3.31465	0.771826	0	
1.1107	-0.566607	4.46557	0	
1.1113	0.963232	5.95409	0	
1.1120	-1.78481	3.52835	0	
1.1127	-2.40808	4.13478	0	
1.1133	0.651598	8.10417	0	
1.1140	3.08801	7.22209	0	
1.1147	4.92948	5.34765	0	
1.1153	5.83605	7.22209	0	
1.1160	3.08801	8.10417	0	
1.1167	1.27487	6.28487	0	
1.1173	2.77638	3.85913	0	
1.1180	4.02291	0.771826	0	
1.1187	3.71128	-1.04748	0	
1.1193	3.39964	-0.441043	0	
1.1200	2.49307	-2.59113	0	
1.1207	2.77638	-5.6233	0	
1.1213	4.30621	-5.89896	0	
1.1220	3.71128	-5.29252	0	
1.1227	2.18144	-5.01687	0	
1.1233	2.18144	-6.50539	0	
1.1240	0.339964	-9.86835	0	
1.1247	-1.78481	-8.98626	0	
1.1253	-1.18988	-2.86678	0	
1.1260	-1.47318	-2.86678	0	
1.1267	-2.40808	-6.22974	0	
1.1273	-1.47318	-3.47322	0	
1.1280	-3.31465	0.496174	0	
1.1287	-6.0627	0.496174	0	
1.1293	-5.15613	0.496174	0	
1.1300	-4.53286	0.771826	0	
1.1307	-4.53286	1.70904	0	
1.1313	-3.62629	3.52835	0	
1.1320	-4.22122	3.2527	0	
1.1327	-5.75106	2.64626	0	
1.1333	-4.22122	5.072	0	
1.1340	-3.31465	5.34765	0	
1.1347	-3.31465	3.85913	0	
1.1353	-0.878241	5.34765	0	
1.1360	0.963232	5.072	0	
1.1367	0.963232	-0.110261	0	
1.1373	3.08801	-3.47322	0	
1.1380	4.92948	-2.86678	0	
1.1387	3.71128	-1.92957	0	
1.1393	2.18144	-1.92957	0	
1.1400	2.49307	-1.65391	0	
1.1407	4.02291	-1.92957	0	
1.1413	4.61785	-1.65391	0	
1.1420	2.18144	-0.716696	0	
1.1427	-0.878241	-1.65391	0	
1.1433	-0.566607	-4.41043	0	
1.1440	0.963232	-6.22974	0	
1.1447	-0.254973	-6.50539	0	
1.1453	-1.78481	-8.04904	0	
1.1460	-1.47318	-9.26191	0	
1.1467	0.651598	-6.50539	0	
1.1473	0.651598	-2.86678	0	
1.1480	-3.90959	-1.04748	0	
1.1487	-6.37433	1.37826	0	
1.1493	-4.53286	2.92191	0	
1.1500	-4.22122	0.771826	0	
1.1507	-4.22122	0.165391	0	
1.1513	-2.09645	2.03983	0	
1.1520	-2.69138	1.70904	0	
1.1527	-4.84449	2.92191	0	
1.1533	-3.00302	6.8913	0	
1.1540	-0.254973	6.28487	0	
1.1547	-1.18988	4.74122	0	
1.1553	-0.878241	6.61565	0	
1.1560	2.18144	5.67843	0	
1.1567	4.02291	2.31548	0	
1.1573	2.18144	2.31548	0	
1.1580	0.963232	1.70904	0	
1.1587	0.651598	-1.92957	0	
1.1593	0.339964	-2.59113	0	
1.1600	0.0566607	-1.92957	0	
1.1607	0.339964	-5.29252	0	
1.1613	0.651598	-5.89896	0	
1.1620	0.651598	-2.59113	0	
1.1627	1.27487	-3.19757	0	
1.1633	1.8698	-6.22974	0	
1.1640	0.339964	-5.6233	0	
1.1647	-3.00302	-5.89896	0	
1.1653	-4.84449	-7.44261	0	
1.1660	-3.90959	-5.6233	0	
1.1667	-3.31465	-2.59113	0	
1.1673	-3.62629	-2.26035	0	
1.1680	-3.31465	-2.26035	0	
1.1687	-3.62629	-1.92957	0	
1.1693	-6.0627	-0.716696	0	
1.1700	-6.37433	3.2527	0	
1.1707	-4.22122	5.67843	0	
1.1713	-4.84449	3.85913	0	
1.1720	-4.84449	3.52835	0	
1.1727	-1.78481	5.95409	0	
1.1733	-0.566607	6.28487	0	
1.1740	-0.878241	5.34765	0	
1.1747	0.0566607	5.95409	0	
1.1753	0.651598	6.61565	0	
1.1760	1.27487	6.28487	0	
1.1767	2.77638	5.67843	0	
1.1773	2.18144	3.85913	0	
1.1780	1.27487	0.165391	0	
1.1787	3.39964	-1.92957	0	
1.1793	6.14769	-2.86678	0	
1.1800	5.24112	-4.41043	0	
1.1807	2.18144	-5.6233	0	
1.1813	1.55817	-5.6233	0	
1.1820	4.61785	-6.50539	0	
1.1827	6.45932	-6.83617	0	
1.1833	1.8698	-7.44261	0	
1.1840	-2.40808	-8.37983	0	
1.1847	0.651598	-9.86835	0	
1.1853	3.39964	-11.1363	0	
1.1860	0.651598	-10.4748	0	
1.1867	-0.878241	-7.44261	0	
1.1873	-1.18988	-5.89896	0	
1.1880	-3.31465	-7.44261	0	
1.1887	-3.62629	-5.29252	0	
1.1893	-2.40808	-1.92957	0	
1.1900	-4.22122	-1.65391	0	
1.1907	-4.84449	-0.110261	0	
1.1913	-2.69138	5.072	0	
1.1920	-3.31465	10.8607	0	
1.1927	-3.31465	17.5866	0	
1.1933	-0.254973	20.9496	0	
1.1940	0.651598	18.193	0	
1.1947	-1.47318	15.4365	0	
1.1953	0.0566607	13.0108	0	
1.1960	3.08801	9.64783	0	
1.1967	4.30621	9.04139	0	
1.1973	4.30621	7.22209	0	
1.1980	5.24112	1.70904	0	
1.1987	6.45932	-0.441043	0	
1.1993	4.61785	0.496174	0	
1.2000	1.27487	-1.65391	0	
1.2007	0.339964	-3.19757	0	
1.2013	2.49307	-2.86678	0	
1.2020	4.02291	-4.68609	0	
1.2027	2.49307	-5.6233	0	
1.2033	0.963232	-4.68609	0	
1.2040	0.339964	-5.01687	0	
1.2047	0.339964	-6.22974	0	
1.2053	-1.47318	-6.50539	0	
1.2060	-3.31465	-6.50539	0	
1.2067	-4.22122	-4.68609	0	
1.2073	-3.90959	-3.804	0	
1.2080	-4.22122	-4.07965	0	
1.2087	-5.43943	-2.86678	0	
1.2093	-5.43943	-0.716696	0	
1.2100	-3.90959	0.771826	0	
1.2107	-3.00302	2.64626	0	
1.2113	-1.78481	5.95409	0	
1.2120	-1.47318	7.22209	0	
1.2127	-3.00302	5.34765	0	
1.2133	-2.40808	4.74122	0	
1.2140	0.0566607	7.22209	0	
1.2147	-0.878241	8.43496	0	
1.2153	-1.18988	5.95409	0	
1.2160	2.18144	4.74122	0	
1.2167	3.71128	4.74122	0	
1.2173	4.02291	2.92191	0	
1.2180	6.45932	0.771826	0	
1.2187	5.52442	-1.92957	0	
1.2193	2.18144	-3.804	0	
1.2200	3.08801	-2.86678	0	
1.2207	5.83605	-2.86678	0	
1.2213	5.52442	-6.50539	0	
1.2220	5.24112	-8.04904	0	
1.2227	4.30621	-4.68609	0	
1.2233	1.27487	-2.86678	0	
1.2240	0.0566607	-3.19757	0	
1.2247	0.651598	-2.26035	0	
1.2253	-0.566607	-1.04748	0	
1.2260	-2.40808	-1.65391	0	
1.2267	-3.31465	-2.86678	0	
1.2273	-3.62629	-1.92957	0	
1.2280	-3.62629	-0.441043	0	
1.2287	-4.84449	1.70904	0	
1.2293	-5.15613	4.74122	0	
1.2300	-4.22122	4.74122	0	
1.2307	-4.53286	0.771826	0	
1.2313	-4.53286	0.496174	0	
1.2320	-3.00302	4.46557	0	
1.2327	-3.00302	5.67843	0	
1.2333	-3.31465	6.28487	0	
1.2340	-1.47318	7.49774	0	
1.2347	-0.878241	6.28487	0	
1.2353	-2.09645	6.28487	0	
1.2360	-1.47318	8.10417	0	
1.2367	0.651598	5.95409	0	
1.2373	2.18144	2.92191	0	
1.2380	2.49307	3.2527	0	
1.2387	2.18144	-0.110261	0	
1.2393	3.39964	-5.6233	0	
1.2400	4.30621	-5.6233	0	
1.2407	4.02291	-3.804	0	
1.2413	4.02291	-4.07965	0	
1.2420	3.71128	-4.68609	0	
1.2427	1.27487	-6.22974	0	
1.2433	0.651598	-6.83617	0	
1.2440	2.18144	-4.68609	0	
1.2447	1.8698	-5.01687	0	
1.2453	0.651598	-8.65548	0	
1.2460	-2.40808	-9.26191	0	
1.2467	-5.75106	-6.22974	0	
1.2473	-5.75106	-2.59113	0	
1.2480	-4.22122	-0.110261	0	
1.2487	-4.22122	1.70904	0	
1.2493	-3.90959	2.92191	0	
1.2500	-4.84449	3.52835	0	
1.2507	-6.37433	2.64626	0	
1.2513	-5.75106	2.03983	0	
1.2520	-5.15613	2.64626	0	
1.2527	-4.22122	1.70904	0	
1.2533	-1.78481	-0.716696	0	
1.2540	-0.254973	-0.716696	0	
1.2547	-0.878241	1.37826	0	
1.2553	-0.566607	1.37826	0	
1.2560	0.0566607	-0.716696	0	
1.2567	0.339964	-2.26035	0	
1.2573	3.71128	-4.68609	0	
1.2580	6.14769	-6.22974	0	
1.2587	4.02291	-5.89896	0	
1.2593	2.18144	-6.83617	0	
1.2600	3.08801	-7.44261	0	
1.2607	3.71128	-5.6233	0	
1.2613	4.02291	-2.59113	0	
1.2620	4.92948	1.70904	0	
1.2627	4.02291	9.04139	0	
1.2633	2.49307	12.4043	0	
1.2640	3.08801	7.82852	0	
1.2647	1.8698	3.52835	0	
1.2653	-1.47318	1.10261	0	
1.2660	-2.09645	-1.65391	0	
1.2667	-2.40808	-0.716696	0	
1.2673	-3.90959	2.92191	0	
1.2680	-4.22122	2.64626	0	
1.2687	-4.22122	2.31548	0	
1.2693	-4.84449	4.46557	0	
1.2700	-3.62629	4.46557	0	
1.2707	-2.69138	2.64626	0	
1.2713	-4.84449	5.34765	0	
1.2720	-3.90959	6.8913	0	
1.2727	-0.566607	3.52835	0	
1.2733	-0.566607	3.85913	0	
1.2740	-1.78481	6.8913	0	
1.2747	-0.566607	7.22209	0	
1.2753	0.339964	7.49774	0	
1.2760	0.651598	7.22209	0	
1.2767	1.27487	2.92191	0	
1.2773	3.08801	-0.110261	0	
1.2780	5.24112	-0.110261	0	
1.2787	4.92948	-1.65391	0	
1.2793	3.39964	-2.86678	0	
1.2800	6.77096	-0.716696	0	
1.2807	9.49067	-1.92957	0	
1.2813	5.24112	-5.01687	0	
1.2820	2.77638	-3.47322	0	
1.2827	4.02291	-1.92957	0	
1.2833	3.71128	-4.41043	0	
1.2840	3.08801	-5.29252	0	
1.2847	2.49307	-4.68609	0	
1.2853	-0.878241	-6.50539	0	
1.2860	-3.31465	-5.6233	0	
1.2867	-3.90959	-2.26035	0	
1.2873	-5.43943	-1.92957	0	
1.2880	-4.22122	-1.65391	0	
1.2887	-2.40808	2.03983	0	
1.2893	-5.15613	4.13478	0	
1.2900	-6.0627	2.03983	0	
1.2907	-4.22122	1.37826	0	
1.2913	-5.15613	2.92191	0	
1.2920	-6.0627	5.072	0	
1.2927	-3.31465	5.67843	0	
1.2933	-1.47318	5.072	0	
1.2940	0.0566607	5.34765	0	
1.2947	1.27487	7.82852	0	
1.2953	0.651598	6.28487	0	
1.2960	3.08801	3.52835	0	
1.2967	5.83605	3.2527	0	
1.2973	4.02291	1.70904	0	
1.2980	2.18144	-1.92957	0	
1.2987	4.30621	-1.92957	0	
1.2993	4.92948	-0.441043	0	
1.3000	3.08801	-1.04748	0	
1.3007	3.08801	-1.92957	0	
1.3013	4.30621	-2.86678	0	
1.3020	4.61785	-5.29252	0	
1.3027	2.49307	-5.01687	0	
1.3033	0.651598	-4.07965	0	
1.3040	0.651598	-6.50539	0	
1.3047	-0.566607	-8.37983	0	
1.3053	-3.31465	-7.16696	0	
1.3060	-1.47318	-5.6233	0	
1.3067	1.27487	-3.804	0	
1.3073	-1.47318	-2.26035	0	
1.3080	-5.15613	-3.19757	0	
1.3087	-4.53286	-2.26035	0	
1.3093	-1.78481	2.03983	0	
1.3100	-1.47318	4.74122	0	
1.3107	-3.90959	4.74122	0	
1.3113	-4.22122	4.46557	0	
1.3120	-2.40808	4.46557	0	
1.3127	-3.90959	3.85913	0	
1.3133	-5.15613	3.2527	0	
1.3140	-0.566607	3.52835	0	
1.3147	2.77638	7.22209	0	
1.3153	0.339964	9.64783	0	
1.3160	0.651598	7.22209	0	
1.3167	3.39964	4.46557	0	
1.3173	3.71128	2.64626	0	
1.3180	4.61785	-0.110261	0	
1.3187	6.45932	-1.92957	0	
1.3193	5.83605	-3.19757	0	
1.3200	5.52442	-5.01687	0	
1.3207	6.77096	-4.68609	0	
1.3213	5.52442	-2.86678	0	
1.3220	3.71128	-2.59113	0	
1.3227	2.77638	-2.86678	0	
1.3233	0.963232	-2.86678	0	
1.3240	-0.566607	-2.59113	0	
1.3247	-0.566607	-1.65391	0	
1.3253	-2.09645	-2.59113	0	
1.3260	-4.22122	-3.804	0	
1.3267	-3.31465	-1.92957	0	
1.3273	-3.31465	-0.110261	0	
1.3280	-5.75106	0.771826	0	
1.3287	-6.0627	3.52835	0	
1.3293	-4.84449	4.13478	0	
1.3300	-5.75106	0.771826	0	
1.3307	-5.43943	0.771826	0	
1.3313	-3.62629	4.13478	0	
1.3320	-5.15613	5.072	0	
1.3327	-6.0627	3.52835	0	
1.3333	-2.09645	3.52835	0	
1.3340	0.0566607	4.74122	0	
1.3347	-0.566607	4.46557	0	
1.3353	0.339964	2.31548	0	
1.3360	0.0566607	2.92191	0	
1.3367	-1.78481	5.34765	0	
1.3373	0.963232	2.64626	0	
1.3380	3.08801	-2.26035	0	
1.3387	3.08801	-1.92957	0	
1.3393	6.45932	-1.04748	0	
1.3400	7.67753	-3.47322	0	
1.3407	4.92948	-3.19757	0	
1.3413	4.92948	-2.59113	0	
1.3420	4.92948	-4.07965	0	
1.3427	-0.254973	-2.26035	0	
1.3433	-0.878241	-1.04748	0	
1.3440	1.8698	-4.41043	0	
1.3447	-0.566607	-4.07965	0	
1.3453	-1.47318	-1.04748	0	
1.3460	-0.566607	-3.804	0	
1.3467	-4.22122	-6.22974	0	
1.3473	-5.15613	-2.59113	0	
1.3480	-1.18988	0.771826	0	
1.3487	-2.40808	1.70904	0	
1.3493	-5.43943	1.70904	0	
1.3500	-4.22122	0.165391	0	
1.3507	-6.0627	0.165391	0	
1.3513	-8.18747	3.85913	0	
1.3520	-5.15613	4.74122	0	
1.3527	-3.00302	2.64626	0	
1.3533	-3.31465	2.31548	0	
1.3540	-0.878241	3.2527	0	
1.3547	0.651598	2.64626	0	
1.3553	0.339964	1.70904	0	
1.3560	3.08801	2.64626	0	
1.3567	4.61785	2.64626	0	
1.3573	2.18144	-0.110261	0	
1.3580	1.27487	-3.804	0	
1.3587	3.71128	-5.89896	0	
1.3593	5.83605	-7.44261	0	
1.3600	5.24112	-8.37983	0	
1.3607	3.08801	-7.44261	0	
1.3613	1.8698	-8.37983	0	
1.3620	0.963232	-10.1991	0	
1.3627	0.0566607	-7.77339	0	
1.3633	1.55817	-1.04748	0	
1.3640	3.71128	2.92191	0	
1.3647	2.49307	6.28487	0	
1.3653	0.339964	9.31704	0	
1.3660	-1.47318	8.71061	0	
1.3667	-2.69138	5.34765	0	
1.3673	-3.00302	5.95409	0	
1.3680	-3.62629	5.95409	0	
1.3687	-4.84449	2.64626	0	
1.3693	-4.22122	0.496174	0	
1.3700	-4.22122	2.03983	0	
1.3707	-4.53286	4.13478	0	
1.3713	-2.09645	5.67843	0	
1.3720	-0.254973	7.82852	0	
1.3727	-1.18988	8.10417	0	
1.3733	-0.566607	6.28487	0	
1.3740	-0.566607	6.8913	0	
1.3747	-3.31465	9.31704	0	
1.3753	-3.62629	7.82852	0	
1.3760	0.651598	6.28487	0	
1.3767	4.02291	6.8913	0	
1.3773	4.02291	4.46557	0	
1.3780	4.02291	-0.441043	0	
1.3787	5.83605	-0.441043	0	
1.3793	7.67753	0.771826	0	
1.3800	6.14769	-0.110261	0	
1.3807	4.02291	-1.04748	0	
1.3813	5.83605	-1.65391	0	
1.3820	6.14769	-2.86678	0	
1.3827	4.02291	-2.86678	0	
1.3833	4.02291	-3.804	0	
1.3840	4.30621	-4.68609	0	
1.3847	2.77638	-4.68609	0	
1.3853	2.18144	-4.07965	0	
1.3860	1.8698	-4.07965	0	
1.3867	-0.566607	-2.59113	0	
1.3873	-2.40808	-1.04748	0	
1.3880	-2.40808	0.496174	0	
1.3887	-3.00302	4.46557	0	
1.3893	-1.78481	6.28487	0	
1.3900	-1.18988	3.52835	0	
1.3907	-1.78481	2.64626	0	
1.3913	0.339964	6.28487	0	
1.3920	2.49307	5.95409	0	
1.3927	-0.566607	2.31548	0	
1.3933	-0.878241	3.52835	0	
1.3940	1.55817	7.49774	0	
1.3947	0.0566607	5.67843	0	
1.3953	-2.09645	2.92191	0	
1.3960	0.651598	5.34765	0	
1.3967	2.77638	6.8913	0	
1.3973	2.18144	3.52835	0	
1.3980	3.08801	0.496174	0	
1.3987	3.39964	-0.441043	0	
1.3993	2.49307	-0.110261	0	
1.4000	1.27487	-0.716696	0	
1.4007	0.339964	-3.804	0	
1.4013	2.18144	-4.41043	0	
1.4020	5.52442	-1.92957	0	
1.4027	5.52442	-3.47322	0	
1.4033	4.30621	-4.68609	0	
1.4040	4.30621	-2.86678	0	
1.4047	2.77638	-4.41043	0	
1.4053	0.339964	-8.65548	0	
1.4060	-1.47318	-9.5927	0	
1.4067	-3.31465	-8.37983	0	
1.4073	-4.84449	-5.29252	0	
1.4080	-6.96927	-0.110261	0	
1.4087	-7.90417	-0.110261	0	
1.4093	-6.65763	-2.86678	0	
1.4100	-5.15613	-0.110261	0	
1.4107	-4.84449	2.03983	0	
1.4113	-5.15613	-0.110261	0	
1.4120	-6.37433	-1.04748	0	
1.4127	-6.96927	1.10261	0	
1.4133	-6.65763	2.64626	0	
1.4140	-4.22122	3.85913	0	
1.4147	-1.18988	4.74122	0	
1.4153	-0.566607	4.46557	0	
1.4160	-2.09645	3.52835	0	
1.4167	0.339964	3.52835	0	
1.4173	2.18144	2.64626	0	
1.4180	-1.47318	-1.04748	0	
1.4187	-1.47318	-3.19757	0	
1.4193	2.18144	-2.86678	0	
1.4200	1.55817	-2.26035	0	
1.4207	-0.566607	-1.04748	0	
1.4213	-0.566607	0.165391	0	
1.4220	0.963232	-1.04748	0	
1.4227	2.18144	-2.86678	0	
1.4233	1.8698	-2.59113	0	
1.4240	0.0566607	-2.86678	0	
1.4247	-0.566607	-6.83617	0	
1.4253	-1.18988	-9.5927	0	
1.4260	-3.90959	-9.26191	0	
1.4267	-5.75106	-8.37983	0	
1.4273	-5.15613	-8.98626	0	
1.4280	-5.15613	-7.16696	0	
1.4287	-5.15613	-3.804	0	
1.4293	-5.15613	-1.92957	0	
1.4300	-6.0627	-3.804	0	
1.4307	-6.0627	-4.68609	0	
1.4313	-4.53286	-3.47322	0	
1.4320	-3.62629	-1.65391	0	
1.4327	-3.00302	0.771826	0	
1.4333	-2.40808	4.74122	0	
1.4340	-2.69138	10.8607	0	
1.4347	-2.09645	16.3737	0	
1.4353	0.339964	19.7367	0	
1.4360	1.55817	20.0123	0	
1.4367	0.339964	15.4365	0	
1.4373	0.339964	7.49774	0	
1.4380	2.18144	2.03983	0	
1.4387	2.18144	1.70904	0	
1.4393	2.77638	2.31548	0	
1.4400	4.02291	0.496174	0	
1.4407	2.77638	-1.92957	0	
1.4413	1.55817	-3.47322	0	
1.4420	2.18144	-3.47322	0	
1.4427	0.339964	-3.804	0	
1.4433	-1.18988	-4.68609	0	
1.4440	0.0566607	-5.01687	0	
1.4447	0.651598	-4.68609	0	
1.4453	0.0566607	-5.89896	0	
1.4460	-0.566607	-6.83617	0	
1.4467	-3.31465	-6.22974	0	
1.4473	-6.0627	-5.6233	0	
1.4480	-4.22122	-3.19757	0	
1.4487	-3.31465	-0.110261	0	
1.4493	-5.15613	0.165391	0	
1.4500	-4.53286	-0.110261	0	
1.4507	-1.18988	1.70904	0	
1.4513	-0.254973	3.85913	0	
1.4520	-1.78481	5.95409	0	
1.4527	-3.90959	6.28487	0	
1.4533	-3.62629	4.13478	0	
1.4540	-1.78481	2.64626	0	
1.4547	-1.78481	3.52835	0	
1.4553	-2.09645	3.2527	0	
1.4560	1.27487	2.31548	0	
1.4567	4.02291	2.03983	0	
1.4573	3.39964	-0.441043	0	
1.4580	4.92948	-3.47322	0	
1.4587	7.05426	-1.92957	0	
1.4593	5.52442	-0.110261	0	
1.4600	3.08801	-2.86678	0	
1.4607	3.08801	-5.6233	0	
1.4613	3.08801	-5.01687	0	
1.4620	4.02291	-4.68609	0	
1.4627	6.77096	-4.07965	0	
1.4633	6.77096	-2.86678	0	
1.4640	4.61785	-2.59113	0	
1.4647	3.08801	-3.804	0	
1.4653	-0.566607	-3.47322	0	
1.4660	-3.62629	-2.86678	0	
1.4667	-1.78481	-3.47322	0	
1.4673	0.0566607	-1.92957	0	
1.4680	-3.31465	1.10261	0	
1.4687	-4.84449	2.31548	0	
1.4693	-1.47318	2.03983	0	
1.4700	-1.47318	2.64626	0	
1.4707	-6.0627	1.70904	0	
1.4713	-5.15613	2.03983	0	
1.4720	-0.566607	3.2527	0	
1.4727	-2.40808	2.64626	0	
1.4733	-4.84449	3.52835	0	
1.4740	0.339964	6.61565	0	
1.4747	3.71128	5.95409	0	
1.4753	0.963232	2.64626	0	
1.4760	0.651598	3.2527	0	
1.4767	2.77638	5.67843	0	
1.4773	3.08801	4.46557	0	
1.4780	4.92948	0.771826	0	
1.4787	6.45932	-1.04748	0	
1.4793	4.02291	-1.65391	0	
1.4800	3.08801	-2.86678	0	
1.4807	4.02291	-3.19757	0	
1.4813	3.71128	-2.86678	0	
1.4820	3.08801	-3.47322	0	
1.4827	2.18144	-4.68609	0	
1.4833	0.0566607	-4.68609	0	
1.4840	0.651598	-3.804	0	
1.4847	3.71128	-1.92957	0	
1.4853	1.8698	-2.86678	0	
1.4860	-1.78481	-5.6233	0	
1.4867	-2.40808	-4.68609	0	
1.4873	-2.09645	-0.110261	0	
1.4880	-3.62629	1.70904	0	
1.4887	-5.15613	1.70904	0	
1.4893	-5.75106	3.52835	0	
1.4900	-4.53286	2.64626	0	
1.4907	-4.53286	3.85913	0	
1.4913	-5.43943	7.82852	0	
1.4920	-2.40808	5.95409	0	
1.4927	0.339964	2.03983	0	
1.4933	-1.47318	4.46557	0	
1.4940	-4.22122	8.71061	0	
1.4947	-1.78481	8.71061	0	
1.4953	0.0566607	7.22209	0	
1.4960	-1.47318	5.95409	0	
1.4967	-1.78481	4.46557	0	
1.4973	0.0566607	4.13478	0	
1.4980	1.27487	2.64626	0	
1.4987	3.08801	-0.716696	0	
1.4993	5.24112	-1.65391	0	
1.5000	5.83605	-1.04748	0	
1.5007	6.77096	-1.92957	0	
1.5013	7.67753	-3.804	0	
1.5020	5.24112	-3.804	0	
1.5027	3.08801	-3.47322	0	
1.5033	2.18144	-5.01687	0	
1.5040	-1.47318	-7.16696	0	
1.5047	-3.62629	-10.1991	0	
1.5053	-2.40808	-12.3492	0	
1.5060	-3.62629	-10.1991	0	
1.5067	-6.0627	-4.68609	0	
1.5073	-4.22122	-3.804	0	
1.5080	-1.78481	-5.29252	0	
1.5087	-3.31465	-2.86678	0	
1.5093	-5.15613	0.496174	0	
1.5100	-4.22122	1.37826	0	
1.5107	-3.00302	2.64626	0	
1.5113	-3.31465	5.34765	0	
1.5120	-5.43943	5.67843	0	
1.5127	-5.43943	3.52835	0	
1.5133	-3.62629	4.46557	0	
1.5140	-4.53286	7.22209	0	
1.5147	-3.90959	7.22209	0	
1.5153	2.49307	5.34765	0	
1.5160	3.39964	6.8913	0	
1.5167	-1.47318	5.95409	0	
1.5173	-0.566607	1.70904	0	
1.5180	3.08801	0.771826	0	
1.5187	2.49307	0.771826	0	
1.5193	2.77638	-1.92957	0	
1.5200	3.08801	-1.65391	0	
1.5207	-0.254973	1.70904	0	
1.5213	-1.78481	-0.110261	0	
1.5220	0.651598	-2.86678	0	
1.5227	3.71128	-1.04748	0	
1.5233	3.39964	-0.110261	0	
1.5240	0.651598	-2.26035	0	
1.5247	-1.78481	-3.19757	0	
1.5253	-2.40808	-3.19757	0	
1.5260	-3.00302	-3.804	0	
1.5267	-2.40808	-3.804	0	
1.5273	-2.09645	-2.86678	0	
1.5280	-3.62629	-1.32313	0	
1.5287	-4.22122	-1.04748	0	
1.5293	-4.53286	-0.110261	0	
1.5300	-7.2809	1.70904	0	
1.5307	-6.0627	2.03983	0	
1.5313	-3.00302	0.771826	0	
1.5320	-4.84449	1.70904	0	
1.5327	-5.43943	1.70904	0	
1.5333	-1.18988	0.771826	0	
1.5340	-0.566607	1.37826	0	
1.5347	-1.47318	0.771826	0	
1.5353	1.55817	-1.32313	0	
1.5360	2.77638	-0.110261	0	
1.5367	0.651598	2.03983	0	
1.5373	2.18144	-1.92957	0	
1.5380	4.02291	-5.29252	0	
1.5387	2.77638	-2.86678	0	
1.5393	2.77638	-1.92957	0	
1.5400	4.92948	-1.04748	0	
1.5407	5.83605	3.52835	0	
1.5413	4.92948	9.64783	0	
1.5420	4.30621	13.6172	0	
1.5427	3.71128	14.4993	0	
1.5433	1.55817	11.1915	0	
1.5440	-0.566607	6.28487	0	
1.5447	-2.40808	3.85913	0	
1.5453	-3.31465	1.70904	0	
1.5460	-1.47318	-1.04748	0	
1.5467	0.0566607	0.771826	0	
1.5473	-2.40808	2.64626	0	
1.5480	-3.90959	2.31548	0	
1.5487	-2.40808	3.85913	0	
1.5493	-3.31465	6.28487	0	
1.5500	-5.75106	5.072	0	
1.5507	-5.15613	4.13478	0	
1.5513	-3.62629	4.74122	0	
1.5520	-4.22122	4.46557	0	
1.5527	-3.90959	4.13478	0	
1.5533	-3.00302	4.13478	0	
1.5540	-3.31465	4.46557	0	
1.5547	-1.78481	5.95409	0	
1.5553	1.27487	6.28487	0	
1.5560	3.71128	5.34765	0	
1.5567	3.08801	5.95409	0	
1.5573	0.963232	5.67843	0	
1.5580	1.8698	1.70904	0	
1.5587	4.61785	-1.65391	0	
1.5593	4.02291	-1.04748	0	
1.5600	2.49307	-1.04748	0	
1.5607	3.71128	-1.92957	0	
1.5613	3.71128	-2.59113	0	
1.5620	3.08801	-3.804	0	
1.5627	4.30621	-5.6233	0	
1.5633	2.18144	-5.6233	0	
1.5640	-0.566607	-4.68609	0	
1.5647	1.27487	-4.07965	0	
1.5653	0.963232	-4.68609	0	
1.5660	-3.31465	-6.83617	0	
1.5667	-2.69138	-7.77339	0	
1.5673	-0.566607	-6.22974	0	
1.5680	-2.09645	-3.19757	0	
1.5687	-2.69138	-0.441043	0	
1.5693	-2.40808	-0.110261	0	
1.5700	-4.53286	-1.04748	0	
1.5707	-4.22122	0.771826	0	
1.5713	-2.09645	4.46557	0	
1.5720	-3.31465	4.46557	0	
1.5727	-2.69138	2.64626	0	
1.5733	0.963232	2.03983	0	
1.5740	1.8698	2.64626	0	
1.5747	0.963232	5.072	0	
1.5753	1.8698	6.28487	0	
1.5760	1.8698	4.74122	0	
1.5767	1.27487	4.46557	0	
1.5773	2.18144	4.46557	0	
1.5780	3.08801	0.496174	0	
1.5787	4.02291	-2.26035	0	
1.5793	4.92948	-1.04748	0	
1.5800	3.39964	-1.65391	0	
1.5807	2.18144	-5.01687	0	
1.5813	3.08801	-6.22974	0	
1.5820	4.02291	-3.804	0	
1.5827	3.08801	-4.07965	0	
1.5833	1.27487	-7.77339	0	
1.5840	-1.47318	-8.37983	0	
1.5847	-1.47318	-5.01687	0	
1.5853	-0.254973	-3.19757	0	
1.5860	-0.878241	-2.86678	0	
1.5867	-3.00302	-2.86678	0	
1.5873	-5.15613	-3.804	0	
1.5880	-6.96927	-5.29252	0	
1.5887	-6.0627	-2.86678	0	
1.5893	-5.43943	1.37826	0	
1.5900	-5.43943	3.52835	0	
1.5907	-3.00302	2.64626	0	
1.5913	-1.78481	0.771826	0	
1.5920	-4.84449	1.10261	0	
1.5927	-5.15613	1.10261	0	
1.5933	-1.47318	-1.04748	0	
1.5940	-0.566607	0.496174	0	
1.5947	0.651598	5.34765	0	
1.5953	1.8698	5.67843	0	
1.5960	0.963232	2.64626	0	
1.5967	1.8698	1.70904	0	
1.5973	4.02291	1.70904	0	
1.5980	3.39964	0.771826	0	
1.5987	3.71128	0.496174	0	
1.5993	4.92948	-2.86678	0	
1.6000	3.08801	-5.6233	0	
1.6007	3.08801	-3.47322	0	
1.6013	4.61785	-1.92957	0	
1.6020	3.39964	-3.804	0	
1.6027	3.08801	-2.86678	0	
1.6033	3.08801	-2.59113	0	
1.6040	-0.254973	-6.22974	0	
1.6047	-0.878241	-5.29252	0	
1.6053	0.339964	-2.26035	0	
1.6060	-3.31465	-5.29252	0	
1.6067	-6.0627	-6.50539	0	
1.6073	-4.53286	-2.59113	0	
1.6080	-5.15613	-3.19757	0	
1.6087	-6.96927	-6.50539	0	
1.6093	-6.37433	-4.68609	0	
1.6100	-5.75106	-1.32313	0	
1.6107	-5.43943	-1.04748	0	
1.6113	-3.90959	-1.32313	0	
1.6120	-4.22122	-2.59113	0	
1.6127	-4.53286	-3.47322	0	
1.6133	-2.69138	-1.65391	0	
1.6140	-0.878241	-0.716696	0	
1.6147	-0.878241	-2.26035	0	
1.6153	-1.47318	-2.26035	0	
1.6160	0.0566607	-0.441043	0	
1.6167	3.39964	1.70904	0	
1.6173	4.92948	3.85913	0	
1.6180	4.61785	9.04139	0	
1.6187	5.52442	14.2237	0	
1.6193	6.77096	12.0736	0	
1.6200	6.45932	4.46557	0	
1.6207	4.92948	1.70904	0	
1.6213	3.08801	2.92191	0	
1.6220	1.27487	0.771826	0	
1.6227	1.8698	-2.26035	0	
1.6233	2.49307	-4.07965	0	
1.6240	2.18144	-3.804	0	
1.6247	1.27487	-0.716696	0	
1.6253	0.0566607	-0.110261	0	
1.6260	-2.09645	-3.804	0	
1.6267	-2.40808	-2.86678	0	
1.6273	-2.09645	1.37826	0	
1.6280	-3.62629	0.771826	0	
1.6287	-4.84449	1.10261	0	
1.6293	-4.53286	4.13478	0	
1.6300	-5.15613	3.2527	0	
1.6307	-4.22122	2.03983	0	
1.6313	-1.78481	4.74122	0	
1.6320	-3.00302	5.34765	0	
1.6327	-3.90959	4.46557	0	
1.6333	-0.254973	5.67843	0	
1.6340	0.0566607	4.74122	0	
1.6347	-3.31465	3.52835	0	
1.6353	-1.18988	5.34765	0	
1.6360	3.08801	5.34765	0	
1.6367	2.77638	2.64626	0	
1.6373	3.39964	2.64626	0	
1.6380	6.14769	4.13478	0	
1.6387	4.61785	1.70904	0	
1.6393	2.77638	-0.441043	0	
1.6400	4.92948	-0.716696	0	
1.6407	5.83605	-1.92957	0	
1.6413	3.08801	-3.47322	0	
1.6420	3.39964	-3.804	0	
1.6427	6.45932	-5.6233	0	
1.6433	4.02291	-6.50539	0	
1.6440	-0.254973	-4.68609	0	
1.6447	0.339964	-4.68609	0	
1.6453	1.55817	-6.50539	0	
1.6460	-0.566607	-4.68609	0	
1.6467	-1.47318	-2.59113	0	
1.6473	-1.47318	-2.86678	0	
1.6480	-3.90959	-0.716696	0	
1.6487	-6.0627	-0.716696	0	
1.6493	-5.15613	-3.804	0	
1.6500	-4.22122	-0.441043	0	
1.6507	-2.69138	4.46557	0	
1.6513	-2.69138	1.70904	0	
1.6520	-3.90959	-1.04748	0	
1.6527	-3.31465	2.03983	0	
1.6533	-1.78481	2.64626	0	
1.6540	-2.09645	0.771826	0	
1.6547	-1.18988	0.771826	0	
1.6553	0.339964	1.70904	0	
1.6560	-0.878241	-0.110261	0	
1.6567	-1.47318	-1.04748	0	
1.6573	0.0566607	0.771826	0	
1.6580	0.651598	0.771826	0	
1.6587	0.339964	-3.19757	0	
1.6593	0.339964	-6.50539	0	
1.6600	1.27487	-6.50539	0	
1.6607	1.27487	-5.89896	0	
1.6613	1.55817	-5.6233	0	
1.6620	0.651598	-5.01687	0	
1.6627	-0.566607	-5.01687	0	
1.6633	0.339964	-6.50539	0	
1.6640	2.49307	-7.16696	0	
1.6647	3.08801	-5.6233	0	
1.6653	0.339964	-4.68609	0	
1.6660	-1.47318	-5.6233	0	
1.6667	-1.47318	-3.804	0	
1.6673	-3.00302	-0.716696	0	
1.6680	-4.84449	-0.110261	0	
1.6687	-6.0627	-1.65391	0	
1.6693	-7.59254	-1.04748	0	
1.6700	-7.59254	0.771826	0	
1.6707	-5.15613	2.64626	0	
1.6713	-3.00302	3.52835	0	
1.6720	-2.09645	2.64626	0	
1.6727	-0.878241	3.2527	0	
1.6733	-1.78481	4.74122	0	
1.6740	-3.31465	4.13478	0	
1.6747	-0.878241	2.92191	0	
1.6753	2.49307	2.64626	0	
1.6760	2.49307	1.70904	0	
1.6767	2.49307	3.52835	0	
1.6773	3.71128	6.28487	0	
1.6780	3.39964	3.52835	0	
1.6787	3.39964	0.771826	0	
1.6793	4.92948	-0.110261	0	
1.6800	4.02291	-2.26035	0	
1.6807	2.18144	-3.47322	0	
1.6813	3.08801	-2.26035	0	
1.6820	3.39964	-3.47322	0	
1.6827	1.27487	-4.68609	0	
1.6833	1.27487	-1.92957	0	
1.6840	1.8698	-2.86678	0	
1.6847	-1.18988	-7.44261	0	
1.6853	-2.69138	-6.50539	0	
1.6860	-0.566607	-4.07965	0	
1.6867	-0.566607	-4.68609	0	
1.6873	-3.31465	-3.804	0	
1.6880	-5.43943	-1.04748	0	
1.6887	-6.96927	1.37826	0	
1.6893	-6.0627	2.64626	0	
1.6900	-2.69138	3.52835	0	
1.6907	-1.18988	4.74122	0	
1.6913	-2.40808	6.8913	0	
1.6920	-3.00302	6.61565	0	
1.6927	-3.00302	3.85913	0	
1.6933	-3.00302	3.52835	0	
1.6940	-3.31465	4.46557	0	
1.6947	-3.62629	3.52835	0	
1.6953	-2.09645	1.37826	0	
1.6960	1.27487	1.10261	0	
1.6967	1.8698	2.03983	0	
1.6973	0.339964	-0.110261	0	
1.6980	1.27487	-4.68609	0	
1.6987	3.08801	-6.83617	0	
1.6993	4.92948	-6.50539	0	
1.7000	5.83605	-6.83617	0	
1.7007	4.30621	-7.44261	0	
1.7013	4.61785	-7.44261	0	
1.7020	8.5841	-6.50539	0	
1.7027	8.5841	-2.86678	0	
1.7033	2.77638	0.771826	0	
1.7040	0.0566607	1.37826	0	
1.7047	-1.18988	4.46557	0	
1.7053	-2.40808	10.2543	0	
1.7060	-1.18988	9.92348	0	
1.7067	0.651598	5.34765	0	
1.7073	0.339964	4.74122	0	
1.7080	-0.566607	7.49774	0	
1.7087	-1.78481	6.61565	0	
1.7093	-3.31465	4.13478	0	
1.7100	-2.40808	4.46557	0	
1.7107	-1.47318	7.22209	0	
1.7113	-2.40808	8.71061	0	
1.7120	-2.69138	6.8913	0	
1.7127	-2.40808	5.95409	0	
1.7133	-1.78481	7.22209	0	
1.7140	0.651598	5.072	0	
1.7147	2.18144	2.31548	0	
1.7153	0.339964	6.28487	0	
1.7160	0.0566607	8.43496	0	
1.7167	2.18144	3.52835	0	
1.7173	2.77638	1.10261	0	
1.7180	2.49307	2.31548	0	
1.7187	3.08801	-1.04748	0	
1.7193	2.18144	-3.47322	0	
1.7200	1.27487	-1.04748	0	
1.7207	2.18144	-1.65391	0	
1.7213	2.77638	-3.804	0	
1.7220	1.8698	-2.86678	0	
1.7227	0.963232	-3.47322	0	
1.7233	-0.254973	-5.01687	0	
1.7240	-1.78481	-5.6233	0	
1.7247	-1.78481	-5.89896	0	
1.7253	-1.78481	-5.6233	0	
1.7260	-1.47318	-5.01687	0	
1.7267	-0.566607	-5.89896	0	
1.7273	-2.40808	-5.6233	0	
1.7280	-6.65763	-2.86678	0	
1.7287	-6.96927	-1.92957	0	
1.7293	-4.53286	-2.86678	0	
1.7300	-6.0627	-2.26035	0	
1.7307	-6.37433	-1.65391	0	
1.7313	-4.53286	-2.26035	0	
1.7320	-5.15613	-1.65391	0	
1.7327	-5.15613	0.771826	0	
1.7333	-1.47318	3.85913	0	
1.7340	-0.878241	4.46557	0	
1.7347	-1.78481	2.31548	0	
1.7353	-0.254973	0.771826	0	
1.7360	0.963232	2.64626	0	
1.7367	0.963232	5.072	0	
1.7373	2.18144	3.2527	0	
1.7380	3.08801	-1.04748	0	
1.7387	4.02291	-2.86678	0	
1.7393	4.92948	-3.804	0	
1.7400	4.30621	-4.68609	0	
1.7407	3.71128	-5.29252	0	
1.7413	5.83605	-4.68609	0	
1.7420	6.77096	-4.68609	0	
1.7427	4.30621	-5.29252	0	
1.7433	2.49307	-5.6233	0	
1.7440	1.27487	-5.6233	0	
1.7447	-0.566607	-5.29252	0	
1.7453	-1.47318	-6.50539	0	
1.7460	-3.31465	-8.04904	0	
1.7467	-3.31465	-7.44261	0	
1.7473	-1.78481	-4.41043	0	
1.7480	-3.31465	-0.716696	0	
1.7487	-5.75106	1.10261	0	
1.7493	-5.15613	0.496174	0	
1.7500	-5.15613	0.165391	0	
1.7507	-6.0627	3.2527	0	
1.7513	-5.15613	4.46557	0	
1.7520	-5.75106	2.31548	0	
1.7527	-7.59254	3.2527	0	
1.7533	-5.15613	7.22209	0	
1.7540	-1.47318	5.67843	0	
1.7547	-0.566607	1.70904	0	
1.7553	0.651598	2.64626	0	
1.7560	2.77638	3.2527	0	
1.7567	3.08801	-0.441043	0	
1.7573	3.08801	-3.47322	0	
1.7580	2.77638	-3.804	0	
1.7587	1.27487	-5.89896	0	
1.7593	1.8698	-8.98626	0	
1.7600	5.24112	-9.26191	0	
1.7607	5.83605	-8.04904	0	
1.7613	4.02291	-7.44261	0	
1.7620	4.02291	-5.89896	0	
1.7627	4.92948	-1.92957	0	
1.7633	4.61785	2.64626	0	
1.7640	0.339964	6.28487	0	
1.7647	-2.09645	9.04139	0	
1.7653	-0.254973	10.585	0	
1.7660	0.339964	9.04139	0	
1.7667	-3.31465	4.46557	0	
1.7673	-4.22122	2.03983	0	
1.7680	-3.62629	3.52835	0	
1.7687	-5.75106	2.64626	0	
1.7693	-8.49911	-1.04748	0	
1.7700	-7.59254	1.10261	0	
1.7707	-4.53286	5.34765	0	
1.7713	-3.31465	4.46557	0	
1.7720	-4.22122	2.03983	0	
1.7727	-3.31465	1.70904	0	
1.7733	0.0566607	1.70904	0	
1.7740	0.963232	2.64626	0	
1.7747	-0.566607	4.74122	0	
1.7753	0.339964	2.92191	0	
1.7760	2.49307	-0.441043	0	
1.7767	3.39964	0.165391	0	
1.7773	2.18144	-0.110261	0	
1.7780	0.651598	-1.92957	0	
1.7787	1.55817	-0.716696	0	
1.7793	4.02291	-0.110261	0	
1.7800	3.39964	-2.26035	0	
1.7807	1.27487	-2.86678	0	
1.7813	2.77638	-1.92957	0	
1.7820	4.61785	-1.92957	0	
1.7827	4.02291	-1.04748	0	
1.7833	1.8698	-2.26035	0	
1.7840	-1.47318	-5.89896	0	
1.7847	-1.47318	-5.89896	0	
1.7853	0.0566607	-4.68609	0	
1.7860	-2.40808	-6.50539	0	
1.7867	-3.31465	-5.6233	0	
1.7873	0.339964	-1.04748	0	
1.7880	0.0566607	-1.92957	0	
1.7887	-3.31465	-2.86678	0	
1.7893	-4.22122	1.37826	0	
1.7900	-4.84449	2.92191	0	
1.7907	-5.15613	1.37826	0	
1.7913	-3.62629	3.2527	0	
1.7920	-3.31465	5.072	0	
1.7927	-4.22122	1.70904	0	
1.7933	-3.31465	-1.04748	0	
1.7940	-3.31465	0.165391	0	
1.7947	-2.40808	2.64626	0	
1.7953	-0.566607	3.85913	0	
1.7960	-0.878241	3.2527	0	
1.7967	-1.18988	2.03983	0	
1.7973	0.339964	1.70904	0	
1.7980	-0.566607	0.165391	0	
1.7987	0.0566607	-1.92957	0	
1.7993	4.02291	-2.59113	0	
1.8000	3.71128	-2.86678	0	
1.8007	0.339964	-4.68609	0	
1.8013	2.18144	-5.6233	0	
1.8020	4.61785	-4.07965	0	
1.8027	1.8698	-4.68609	0	
1.8033	-0.254973	-5.6233	0	
1.8040	0.651598	-2.86678	0	
1.8047	0.339964	-2.86678	0	
1.8053	-2.09645	-5.6233	0	
1.8060	-3.00302	-4.41043	0	
1.8067	-2.40808	-1.92957	0	
1.8073	-2.40808	-2.86678	0	
1.8080	-2.40808	-0.716696	0	
1.8087	-3.90959	3.2527	0	
1.8093	-6.65763	1.10261	0	
1.8100	-6.96927	-1.04748	0	
1.8107	-3.31465	1.37826	0	
1.8113	-1.47318	3.52835	0	
1.8120	-4.22122	4.74122	0	
1.8127	-4.84449	3.85913	0	
1.8133	-2.40808	2.64626	0	
1.8140	-0.878241	5.072	0	
1.8147	-0.254973	6.8913	0	
1.8153	0.339964	5.072	0	
1.8160	-0.566607	5.67843	0	
1.8167	-1.47318	7.82852	0	
1.8173	1.27487	6.28487	0	
1.8180	5.24112	4.46557	0	
1.8187	5.52442	3.85913	0	
1.8193	3.08801	2.64626	0	
1.8200	2.18144	2.64626	0	
1.8207	2.18144	2.64626	0	
1.8213	0.339964	-0.110261	0	
1.8220	0.651598	-1.92957	0	
1.8227	4.02291	-1.32313	0	
1.8233	3.08801	-1.04748	0	
1.8240	0.339964	-1.92957	0	
1.8247	3.39964	-3.47322	0	
1.8253	3.71128	-3.47322	0	
1.8260	-2.40808	-2.86678	0	
1.8267	-2.40808	-2.86678	0	
1.8273	2.18144	-1.04748	0	
1.8280	0.651598	3.52835	0	
1.8287	-3.31465	3.52835	0	
1.8293	-3.00302	-0.110261	0	
1.8300	-2.69138	0.771826	0	
1.8307	-4.84449	4.13478	0	
1.8313	-5.15613	3.52835	0	
1.8320	-3.00302	1.10261	0	
1.8327	-1.18988	2.64626	0	
1.8333	-1.47318	4.46557	0	
1.8340	-1.47318	4.13478	0	
1.8347	0.339964	4.46557	0	
1.8353	-0.254973	5.95409	0	
1.8360	-1.78481	5.67843	0	
1.8367	0.0566607	3.85913	0	
1.8373	2.18144	2.64626	0	
1.8380	2.18144	2.31548	0	
1.8387	4.61785	-0.110261	0	
1.8393	6.77096	-5.01687	0	
1.8400	4.61785	-6.83617	0	
1.8407	3.08801	-5.6233	0	
1.8413	2.77638	-7.44261	0	
1.8420	1.27487	-10.1991	0	
1.8427	0.0566607	-10.1991	0	
1.8433	1.27487	-8.37983	0	
1.8440	0.651598	-9.26191	0	
1.8447	-1.78481	-10.1991	0	
1.8453	-2.40808	-10.1991	0	
1.8460	-1.78481	-9.5927	0	
1.8467	-1.47318	-8.37983	0	
1.8473	-1.47318	-5.89896	0	
1.8480	-2.69138	-1.32313	0	
1.8487	-4.22122	2.64626	0	
1.8493	-4.53286	8.71061	0	
1.8500	-4.22122	17.2558	0	
1.8507	-4.22122	20.3431	0	
1.8513	-4.22122	16.3737	0	
1.8520	-3.31465	12.68	0	
1.8527	-1.47318	10.585	0	
1.8533	-0.254973	8.10417	0	
1.8540	-2.40808	8.71061	0	
1.8547	-2.40808	9.04139	0	
1.8553	3.08801	7.22209	0	
1.8560	6.45932	6.28487	0	
1.8567	3.08801	4.46557	0	
1.8573	2.49307	-0.441043	0	
1.8580	6.14769	-2.59113	0	
1.8587	6.14769	-1.04748	0	
1.8593	4.02291	-0.716696	0	
1.8600	3.39964	-1.04748	0	
1.8607	3.08801	-0.716696	0	
1.8613	2.77638	-2.59113	0	
1.8620	2.77638	-3.804	0	
1.8627	1.27487	-2.86678	0	
1.8633	-0.254973	-3.47322	0	
1.8640	-1.18988	-4.68609	0	
1.8647	-2.69138	-3.804	0	
1.8653	-3.90959	-3.804	0	
1.8660	-3.90959	-6.50539	0	
1.8667	-4.22122	-7.44261	0	
1.8673	-3.90959	-5.29252	0	
1.8680	-3.62629	-3.47322	0	
1.8687	-5.15613	-1.92957	0	
1.8693	-6.65763	-0.110261	0	
1.8700	-5.75106	1.10261	0	
1.8707	-3.31465	2.64626	0	
1.8713	-3.31465	3.52835	0	
1.8720	-5.75106	2.03983	0	
1.8727	-6.37433	0.771826	0	
1.8733	-4.53286	2.31548	0	
1.8740	-2.69138	4.46557	0	
1.8747	-1.78481	3.52835	0	
1.8753	-0.566607	2.31548	0	
1.8760	1.27487	3.52835	0	
1.8767	0.963232	3.85913	0	
1.8773	0.339964	2.31548	0	
1.8780	1.8698	0.771826	0	
1.8787	1.27487	-0.110261	0	
1.8793	-1.47318	-1.65391	0	
1.8800	0.963232	-2.86678	0	
1.8807	4.92948	-4.68609	0	
1.8813	0.963232	-8.04904	0	
1.8820	-1.47318	-8.98626	0	
1.8827	2.77638	-6.83617	0	
1.8833	1.8698	-6.22974	0	
1.8840	-2.40808	-6.50539	0	
1.8847	-1.18988	-5.6233	0	
1.8853	-0.254973	-5.6233	0	
1.8860	-3.31465	-5.89896	0	
1.8867	-3.31465	-2.86678	0	
1.8873	-3.31465	-0.110261	0	
1.8880	-5.15613	-0.441043	0	
1.8887	-4.22122	-0.716696	0	
1.8893	-3.31465	1.10261	0	
1.8900	-4.22122	2.03983	0	
1.8907	-4.22122	2.64626	0	
1.8913	-2.09645	2.64626	0	
1.8920	-1.47318	1.10261	0	
1.8927	-3.31465	0.771826	0	
1.8933	-5.15613	3.52835	0	
1.8940	-3.31465	4.46557	0	
1.8947	-0.254973	5.34765	0	
1.8953	2.18144	7.82852	0	
1.8960	3.08801	6.28487	0	
1.8967	2.18144	2.03983	0	
1.8973	0.339964	3.2527	0	
1.8980	3.08801	6.28487	0	
1.8987	6.14769	3.52835	0	
1.8993	4.02291	-0.716696	0	
1.9000	3.08801	-1.32313	0	
1.9007	6.45932	-1.04748	0	
1.9013	5.83605	-1.04748	0	
1.9020	2.49307	-1.32313	0	
1.9027	4.02291	-1.92957	0	
1.9033	5.83605	-3.804	0	
1.9040	2.77638	-4.07965	0	
1.9047	0.963232	-1.92957	0	
1.9053	3.08801	-1.04748	0	
1.9060	2.49307	-2.26035	0	
1.9067	-0.254973	-1.04748	0	
1.9073	0.0566607	2.31548	0	
1.9080	0.339964	2.64626	0	
1.9087	-1.47318	2.03983	0	
1.9093	-2.69138	3.52835	0	
1.9100	-3.62629	2.92191	0	
1.9107	-5.15613	2.31548	0	
1.9113	-4.53286	3.2527	0	
1.9120	-4.53286	2.31548	0	
1.9127	-5.15613	1.37826	0	
1.9133	-3.00302	2.64626	0	
1.9140	-0.566607	3.2527	0	
1.9147	-0.566607	2.03983	0	
1.9153	2.18144	1.10261	0	
1.9160	4.02291	0.771826	0	
1.9167	2.49307	-0.441043	0	
1.9173	1.27487	-3.19757	0	
1.9180	3.08801	-6.22974	0	
1.9187	5.83605	-6.83617	0	
1.9193	6.77096	-6.50539	0	
1.9200	5.83605	-6.50539	0	
1.9207	5.24112	-5.29252	0	
1.9213	4.61785	-2.26035	0	
1.9220	2.18144	2.03983	0	
1.9227	1.8698	7.82852	0	
1.9233	3.08801	11.7979	0	
1.9240	1.27487	12.4043	0	
1.9247	0.0566607	9.92348	0	
1.9253	1.55817	3.52835	0	
1.9260	-1.78481	-2.26035	0	
1.9267	-6.0627	-1.32313	0	
1.9273	-4.22122	2.64626	0	
1.9280	-3.90959	3.2527	0	
1.9287	-5.15613	2.64626	0	
1.9293	-1.78481	2.64626	0	
1.9300	-1.18988	3.85913	0	
1.9307	-5.15613	7.22209	0	
1.9313	-5.15613	8.71061	0	
1.9320	-2.40808	7.22209	0	
1.9327	-2.69138	6.61565	0	
1.9333	-2.09645	7.22209	0	
1.9340	2.18144	6.28487	0	
1.9347	3.08801	5.95409	0	
1.9353	1.8698	7.22209	0	
1.9360	3.71128	9.64783	0	
1.9367	5.52442	9.04139	0	
1.9373	4.02291	4.74122	0	
1.9380	4.02291	0.771826	0	
1.9387	6.45932	-1.92957	0	
1.9393	5.52442	-3.804	0	
1.9400	2.49307	-5.01687	0	
1.9407	2.77638	-4.68609	0	
1.9413	3.08801	-3.804	0	
1.9420	1.27487	-4.07965	0	
1.9427	2.18144	-4.68609	0	
1.9433	3.39964	-4.68609	0	
1.9440	0.339964	-3.47322	0	
1.9447	-2.40808	-2.86678	0	
1.9453	-1.47318	-4.68609	0	
1.9460	-0.878241	-5.89896	0	
1.9467	-1.78481	-4.68609	0	
1.9473	-3.00302	-2.26035	0	
1.9480	-3.62629	0.771826	0	
1.9487	-3.31465	2.64626	0	
1.9493	-2.09645	3.52835	0	
1.9500	-3.31465	5.072	0	
1.9507	-6.0627	5.072	0	
1.9513	-5.43943	2.64626	0	
1.9520	-3.62629	1.70904	0	
1.9527	-4.53286	3.2527	0	
1.9533	-5.43943	2.92191	0	
1.9540	-3.00302	2.64626	0	
1.9547	0.339964	4.46557	0	
1.9553	0.963232	4.74122	0	
1.9560	1.27487	4.46557	0	
1.9567	2.18144	5.34765	0	
1.9573	2.18144	4.46557	0	
1.9580	2.18144	0.496174	0	
1.9587	2.49307	-1.92957	0	
1.9593	1.27487	-1.92957	0	
1.9600	1.27487	-3.804	0	
1.9607	2.77638	-5.6233	0	
1.9613	2.18144	-4.41043	0	
1.9620	0.339964	-2.86678	0	
1.9627	0.0566607	-3.804	0	
1.9633	-0.566607	-5.29252	0	
1.9640	-1.18988	-4.41043	0	
1.9647	-2.40808	-4.41043	0	
1.9653	-3.62629	-5.01687	0	
1.9660	-2.09645	-3.47322	0	
1.9667	-0.566607	-1.32313	0	
1.9673	-4.22122	-0.716696	0	
1.9680	-6.0627	1.70904	0	
1.9687	-3.31465	5.34765	0	
1.9693	-3.00302	6.28487	0	
1.9700	-5.15613	5.95409	0	
1.9707	-5.15613	6.28487	0	
1.9713	-5.43943	5.95409	0	
1.9720	-6.65763	5.34765	0	
1.9727	-4.22122	6.28487	0	
1.9733	-3.31465	8.71061	0	
1.9740	-3.62629	9.04139	0	
1.9747	-0.566607	7.22209	0	
1.9753	0.651598	5.67843	0	
1.9760	0.0566607	7.22209	0	
1.9767	3.39964	9.04139	0	
1.9773	5.52442	6.8913	0	
1.9780	4.02291	1.70904	0	
1.9787	4.92948	-0.110261	0	
1.9793	5.83605	2.31548	0	
1.9800	2.18144	1.37826	0	
1.9807	1.55817	-3.47322	0	
1.9813	4.02291	-3.47322	0	
1.9820	1.55817	-1.04748	0	
1.9827	-1.18988	-2.86678	0	
1.9833	-1.47318	-3.804	0	
1.9840	-2.69138	-0.716696	0	
1.9847	-1.18988	2.64626	0	
1.9853	1.27487	8.71061	0	
1.9860	-1.18988	14.4993	0	
1.9867	-3.31465	13.0108	0	
1.9873	-0.878241	9.92348	0	
1.9880	-2.40808	7.22209	0	
1.9887	-6.96927	1.37826	0	
1.9893	-6.96927	0.496174	0	
1.9900	-4.22122	4.13478	0	
1.9907	-3.31465	2.92191	0	
1.9913	-3.31465	4.46557	0	
1.9920	-3.31465	13.6172	0	
1.9927	-3.31465	16.9802	0	
1.9933	-1.47318	11.7979	0	
1.9940	-1.47318	9.04139	0	
1.9947	-1.47318	8.71061	0	
1.9953	1.8698	9.04139	0	
1.9960	4.61785	10.585	0	
1.9967	3.39964	8.43496	0	
1.9973	2.18144	3.52835	0	
1.9980	3.71128	2.03983	0	
1.9987	5.24112	2.03983	0	
1.9993	4.92948	1.10261	0	
2.0000	4.61785	-0.110261	0	
2.0007	6.77096	-1.92957	0	
2.0013	7.67753	-2.59113	0	
2.0020	4.02291	-1.04748	0	
2.0027	2.77638	0.165391	0	
2.0033	5.52442	-1.04748	0	
2.0040	4.02291	-1.65391	0	
2.0047	-0.566607	-2.26035	0	
2.0053	0.0566607	-2.59113	0	
2.0060	1.27487	-1.92957	0	
2.0067	-0.254973	-1.65391	0	
2.0073	-1.18988	-2.59113	0	
2.0080	-3.00302	-0.716696	0	
2.0087	-6.65763	2.03983	0	
2.0093	-6.96927	2.31548	0	
2.0100	-4.22122	2.31548	0	
2.0107	-2.69138	4.13478	0	
2.0113	-4.22122	4.46557	0	
2.0120	-4.84449	4.46557	0	
2.0127	-2.09645	7.49774	0	
2.0133	0.339964	9.04139	0	
2.0140	-1.18988	5.95409	0	
2.0147	-0.566607	3.85913	0	
2.0153	4.02291	6.28487	0	
2.0160	3.71128	8.71061	0	
2.0167	-0.566607	5.34765	0	
2.0173	0.963232	-0.110261	0	
2.0180	5.52442	-2.59113	0	
2.0187	5.83605	-2.26035	0	
2.0193	3.39964	-1.32313	0	
2.0200	1.55817	0.771826	0	
2.0207	1.8698	0.771826	0	
2.0213	2.49307	-1.65391	0	
2.0220	1.55817	-3.804	0	
2.0227	1.55817	-4.68609	0	
2.0233	3.39964	-5.01687	0	
2.0240	3.08801	-4.68609	0	
2.0247	0.651598	-4.07965	0	
2.0253	-0.254973	-3.804	0	
2.0260	-1.47318	-3.47322	0	
2.0267	-2.69138	-3.19757	0	
2.0273	-2.69138	-2.86678	0	
2.0280	-3.90959	-0.716696	0	
2.0287	-5.15613	0.771826	0	
2.0293	-3.62629	0.771826	0	
2.0300	-2.40808	0.771826	0	
2.0307	-5.15613	0.496174	0	
2.0313	-7.90417	0.496174	0	
2.0320	-6.96927	1.70904	0	
2.0327	-4.22122	3.2527	0	
2.0333	-4.53286	2.92191	0	
2.0340	-5.43943	2.31548	0	
2.0347	-3.62629	1.70904	0	
2.0353	-2.40808	2.31548	0	
2.0360	-1.47318	4.46557	0	
2.0367	0.339964	5.072	0	
2.0373	1.55817	1.37826	0	
2.0380	1.27487	-1.92957	0	
2.0387	4.02291	-2.59113	0	
2.0393	6.45932	-2.86678	0	
2.0400	4.02291	-2.86678	0	
2.0407	0.651598	-3.19757	0	
2.0413	0.963232	-4.68609	0	
2.0420	3.08801	-3.804	0	
2.0427	4.92948	-2.26035	0	
2.0433	3.08801	-4.07965	0	
2.0440	-2.40808	-5.01687	0	
2.0447	-2.69138	-5.01687	0	
2.0453	0.339964	-6.83617	0	
2.0460	-1.47318	-7.16696	0	
2.0467	-3.90959	-5.89896	0	
2.0473	-3.62629	-7.16696	0	
2.0480	-4.84449	-6.83617	0	
2.0487	-5.43943	-5.6233	0	
2.0493	-2.69138	-7.44261	0	
2.0500	-2.09645	-6.22974	0	
2.0507	-3.31465	-1.04748	0	
2.0513	-3.62629	0.165391	0	
2.0520	-6.0627	-0.110261	0	
2.0527	-6.96927	2.64626	0	
2.0533	-3.31465	7.82852	0	
2.0540	-1.18988	13.6172	0	
2.0547	-2.40808	17.2558	0	
2.0553	-1.18988	16.3737	0	
2.0560	0.339964	11.4671	0	
2.0567	-0.878241	6.28487	0	
2.0573	-0.566607	5.072	0	
2.0580	2.18144	6.61565	0	
2.0587	2.49307	2.92191	0	
2.0593	1.27487	-2.26035	0	
2.0600	1.55817	-1.04748	0	
2.0607	2.18144	1.10261	0	
2.0613	2.77638	-0.716696	0	
2.0620	3.39964	-1.65391	0	
2.0627	2.49307	-1.65391	0	
2.0633	0.963232	-4.41043	0	
2.0640	0.651598	-6.50539	0	
2.0647	0.0566607	-6.50539	0	
2.0653	-1.47318	-6.50539	0	
2.0660	-1.78481	-6.22974	0	
2.0667	-3.00302	-5.89896	0	
2.0673	-4.22122	-4.68609	0	
2.0680	-4.22122	-1.92957	0	
2.0687	-5.15613	-1.04748	0	
2.0693	-6.96927	-2.59113	0	
2.0700	-6.65763	-4.68609	0	
2.0707	-6.96927	-6.22974	0	
2.0713	-8.81074	-3.47322	0	
2.0720	-6.96927	0.496174	0	
2.0727	-4.53286	-2.59113	0	
2.0733	-4.84449	-5.6233	0	
2.0740	-5.15613	-2.26035	0	
2.0747	-2.69138	-0.110261	0	
2.0753	-1.47318	-1.65391	0	
2.0760	-1.47318	-2.26035	0	
2.0767	1.27487	-4.68609	0	
2.0773	4.92948	-7.44261	0	
2.0780	4.30621	-4.68609	0	
2.0787	3.39964	-3.47322	0	
2.0793	7.36589	-7.44261	0	
2.0800	9.49067	-10.8056	0	
2.0807	5.83605	-10.1991	0	
2.0813	3.08801	-9.86835	0	
2.0820	4.92948	-10.1991	0	
2.0827	6.14769	-11.412	0	
2.0833	4.02291	-11.412	0	
2.0840	1.27487	-8.65548	0	
2.0847	-0.566607	-7.44261	0	
2.0853	-0.566607	-9.86835	0	
2.0860	0.339964	-10.8056	0	
2.0867	0.339964	-9.5927	0	
2.0873	0.0566607	-8.37983	0	
2.0880	-1.18988	-8.65548	0	
2.0887	-3.00302	-8.37983	0	
2.0893	-3.31465	-7.44261	0	
2.0900	-2.40808	-7.16696	0	
2.0907	-3.62629	-5.6233	0	
2.0913	-6.0627	-2.59113	0	
2.0920	-5.15613	-2.86678	0	
2.0927	-2.69138	-5.01687	0	
2.0933	-3.31465	-4.41043	0	
2.0940	-3.00302	-3.804	0	
2.0947	0.651598	-4.68609	0	
2.0953	1.8698	-2.26035	0	
2.0960	1.27487	-0.110261	0	
2.0967	4.61785	-2.26035	0	
2.0973	5.24112	-3.804	0	
2.0980	1.27487	-3.804	0	
2.0987	2.49307	-5.89896	0	
2.0993	7.05426	-7.44261	0	
2.1000	6.45932	-6.83617	0	
2.1007	4.61785	-8.37983	0	
2.1013	4.61785	-10.1991	0	
2.1020	4.02291	-10.1991	0	
2.1027	3.71128	-11.1363	0	
2.1033	3.39964	-12.6249	0	
2.1040	-0.566607	-12.3492	0	
2.1047	-3.31465	-10.4748	0	
2.1053	-0.878241	-9.26191	0	
2.1060	0.0566607	-7.77339	0	
2.1067	-2.09645	-5.29252	0	
2.1073	-2.09645	-5.6233	0	
2.1080	-1.47318	-7.16696	0	
2.1087	-4.22122	-4.68609	0	
2.1093	-5.75106	-1.65391	0	
2.1100	-2.40808	-3.804	0	
2.1107	-0.566607	-3.47322	0	
2.1113	-3.31465	0.771826	0	
2.1120	-3.31465	-0.441043	0	
2.1127	0.339964	-3.804	0	
2.1133	0.339964	-1.04748	0	
2.1140	-0.878241	0.496174	0	
2.1147	1.27487	-1.04748	0	
2.1153	3.08801	0.496174	0	
2.1160	2.77638	1.37826	0	
2.1167	2.18144	-1.32313	0	
2.1173	1.8698	-1.65391	0	
2.1180	1.55817	-1.65391	0	
2.1187	3.71128	-4.68609	0	
2.1193	6.45932	-4.07965	0	
2.1200	5.83605	-2.86678	0	
2.1207	3.39964	-5.89896	0	
2.1213	0.651598	-8.04904	0	
2.1220	1.55817	-7.44261	0	
2.1227	5.52442	-9.5927	0	
2.1233	5.52442	-11.1363	0	
2.1240	1.27487	-10.1991	0	
2.1247	-0.566607	-11.7428	0	
2.1253	-0.878241	-14.1685	0	
2.1260	-3.90959	-12.3492	0	
2.1267	-5.15613	-11.1363	0	
2.1273	-4.84449	-12.0184	0	
2.1280	-5.43943	-9.26191	0	
2.1287	-4.84449	-5.6233	0	
2.1293	-4.22122	-2.59113	0	
2.1300	-6.37433	3.2527	0	
2.1307	-6.0627	9.92348	0	
2.1313	-4.22122	13.6172	0	
2.1320	-5.15613	14.4993	0	
2.1327	-6.96927	12.68	0	
2.1333	-5.15613	7.22209	0	
2.1340	-1.47318	4.13478	0	
2.1347	0.651598	4.13478	0	
2.1353	0.963232	4.46557	0	
2.1360	0.339964	3.52835	0	
2.1367	1.27487	1.10261	0	
2.1373	2.77638	-0.716696	0	
2.1380	2.77638	0.771826	0	
2.1387	3.08801	0.165391	0	
2.1393	5.83605	-2.86678	0	
2.1400	6.77096	-2.86678	0	
2.1407	5.83605	-2.86678	0	
2.1413	5.83605	-5.6233	0	
2.1420	4.30621	-6.22974	0	
2.1427	1.8698	-3.804	0	
2.1433	1.55817	-3.804	0	
2.1440	1.8698	-5.29252	0	
2.1447	0.963232	-5.29252	0	
2.1453	1.27487	-5.6233	0	
2.1460	1.55817	-6.50539	0	
2.1467	-1.18988	-5.6233	0	
2.1473	-2.09645	-4.07965	0	
2.1480	-1.47318	-3.804	0	
2.1487	-3.31465	-4.41043	0	
2.1493	-4.53286	-2.86678	0	
2.1500	-3.62629	-0.441043	0	
2.1507	-3.00302	-0.716696	0	
2.1513	-2.40808	-1.65391	0	
2.1520	-2.40808	-0.110261	0	
2.1527	-3.31465	2.64626	0	
2.1533	-1.47318	3.2527	0	
2.1540	-0.254973	1.70904	0	
2.1547	-2.09645	0.771826	0	
2.1553	-0.566607	1.70904	0	
2.1560	4.02291	1.70904	0	
2.1567	3.71128	-0.110261	0	
2.1573	1.27487	-0.110261	0	
2.1580	2.18144	-0.441043	0	
2.1587	3.08801	-3.47322	0	
2.1593	4.02291	-1.92957	0	
2.1600	6.45932	0.771826	0	
2.1607	7.05426	-1.04748	0	
2.1613	5.52442	-2.86678	0	
2.1620	4.02291	-1.32313	0	
2.1627	1.8698	-2.59113	0	
2.1633	1.27487	-3.804	0	
2.1640	2.18144	-1.32313	0	
2.1647	0.0566607	-0.441043	0	
2.1653	-2.40808	-1.92957	0	
2.1660	-2.40808	-2.26035	0	
2.1667	-3.90959	-1.04748	0	
2.1673	-3.90959	-0.110261	0	
2.1680	-0.566607	0.496174	0	
2.1687	-1.47318	1.10261	0	
2.1693	-6.65763	2.31548	0	
2.1700	-6.96927	2.64626	0	
2.1707	-3.90959	1.37826	0	
2.1713	-3.31465	2.64626	0	
2.1720	-2.69138	4.46557	0	
2.1727	-0.566607	2.64626	0	
2.1733	-1.47318	2.64626	0	
2.1740	-2.40808	5.34765	0	
2.1747	0.963232	5.67843	0	
2.1753	2.77638	4.46557	0	
2.1760	0.963232	5.95409	0	
2.1767	1.55817	6.28487	0	
2.1773	4.02291	3.85913	0	
2.1780	2.49307	3.52835	0	
2.1787	1.55817	4.74122	0	
2.1793	5.24112	4.46557	0	
2.1800	5.52442	2.64626	0	
2.1807	1.27487	0.771826	0	
2.1813	1.27487	0.771826	0	
2.1820	4.30621	2.31548	0	
2.1827	4.92948	3.2527	0	
2.1833	4.30621	2.31548	0	
2.1840	2.49307	1.10261	0	
2.1847	1.27487	2.64626	0	
2.1853	2.18144	3.52835	0	
2.1860	1.55817	0.165391	0	
2.1867	-1.47318	-3.19757	0	
2.1873	-3.31465	-0.110261	0	
2.1880	-4.22122	3.85913	0	
2.1887	-4.84449	2.92191	0	
2.1893	-3.90959	1.70904	0	
2.1900	-4.22122	4.13478	0	
2.1907	-5.15613	6.28487	0	
2.1913	-3.62629	5.34765	0	
2.1920	-4.22122	3.52835	0	
2.1927	-6.37433	4.46557	0	
2.1933	-4.84449	5.67843	0	
2.1940	-3.31465	4.46557	0	
2.1947	-3.31465	3.52835	0	
2.1953	-1.47318	5.072	0	
2.1960	0.339964	4.46557	0	
2.1967	-1.18988	1.70904	0	
2.1973	0.0566607	1.70904	0	
2.1980	2.77638	1.70904	0	
2.1987	3.39964	-0.716696	0	
2.1993	3.08801	-1.92957	0	
2.2000	2.18144	-0.716696	0	
2.2007	0.963232	-2.26035	0	
2.2013	1.8698	-5.89896	0	
2.2020	3.71128	-6.50539	0	
2.2027	3.08801	-3.19757	0	
2.2033	0.963232	-3.47322	0	
2.2040	-0.566607	-6.83617	0	
2.2047	-0.566607	-6.83617	0	
2.2053	0.339964	-5.6233	0	
2.2060	0.339964	-6.50539	0	
2.2067	-2.69138	-5.01687	0	
2.2073	-4.53286	-1.32313	0	
2.2080	-3.31465	0.496174	0	
2.2087	-3.62629	0.771826	0	
2.2093	-5.75106	2.64626	0	
2.2100	-6.0627	8.71061	0	
2.2107	-5.43943	17.2558	0	
2.2113	-6.0627	19.0751	0	
2.2120	-4.84449	13.0108	0	
2.2127	-2.40808	9.64783	0	
2.2133	-2.69138	9.64783	0	
2.2140	-3.31465	7.49774	0	
2.2147	-1.18988	5.072	0	
2.2153	0.339964	3.52835	0	
2.2160	0.0566607	3.52835	0	
2.2167	1.55817	6.61565	0	
2.2173	4.02291	6.28487	0	
2.2180	4.92948	1.37826	0	
2.2187	4.92948	1.10261	0	
2.2193	5.24112	4.46557	0	
2.2200	5.24112	2.64626	0	
2.2207	3.71128	1.10261	0	
2.2213	2.18144	1.37826	0	
2.2220	1.8698	-1.65391	0	
2.2227	0.651598	-2.86678	0	
2.2233	-0.566607	-0.110261	0	
2.2240	0.0566607	-0.110261	0	
2.2247	-0.566607	-1.32313	0	
2.2253	-1.47318	-0.110261	0	
2.2260	0.0566607	1.37826	0	
2.2267	0.339964	2.31548	0	
2.2273	-2.40808	3.85913	0	
2.2280	-3.31465	4.46557	0	
2.2287	-2.69138	3.2527	0	
2.2293	-3.00302	0.771826	0	
2.2300	-2.09645	0.771826	0	
2.2307	-0.878241	2.64626	0	
2.2313	-2.40808	1.70904	0	
2.2320	-3.90959	-1.32313	0	
2.2327	-3.90959	-0.441043	0	
2.2333	-3.62629	1.10261	0	
2.2340	-2.40808	-0.441043	0	
2.2347	0.963232	-1.32313	0	
2.2353	4.02291	-0.716696	0	
2.2360	3.39964	1.37826	0	
2.2367	1.27487	4.74122	0	
2.2373	1.8698	6.28487	0	
2.2380	4.92948	4.13478	0	
2.2387	5.83605	1.37826	0	
2.2393	3.71128	-0.110261	0	
2.2400	3.39964	-1.92957	0	
2.2407	3.08801	-2.59113	0	
2.2413	0.339964	-0.110261	0	
2.2420	0.339964	2.03983	0	
2.2427	4.30621	2.64626	0	
2.2433	4.92948	2.64626	0	
2.2440	2.18144	1.70904	0	
2.2447	0.963232	0.496174	0	
2.2453	-0.566607	0.496174	0	
2.2460	-3.00302	0.496174	0	
2.2467	-3.31465	-0.441043	0	
2.2473	-3.31465	1.10261	0	
2.2480	-3.90959	3.85913	0	
2.2487	-4.22122	4.74122	0	
2.2493	-5.15613	5.95409	0	
2.2500	-5.43943	8.10417	0	
2.2507	-3.90959	6.28487	0	
2.2513	-4.53286	2.92191	0	
2.2520	-5.43943	5.34765	0	
2.2527	-2.69138	9.04139	0	
2.2533	-1.47318	7.82852	0	
2.2540	-2.40808	7.22209	0	
2.2547	0.0566607	11.4671	0	
2.2553	0.0566607	13.6172	0	
2.2560	-1.78481	9.92348	0	
2.2567	2.18144	7.82852	0	
2.2573	5.52442	11.7979	0	
2.2580	3.39964	12.0736	0	
2.2587	4.92948	-1.92957	0	
2.2593	7.98916	-19.9572	0	
2.2600	4.61785	-23.5958	0	
2.2607	2.49307	-15.7122	0	
2.2613	5.52442	-12.0184	0	
2.2620	6.14769	-12.9557	0	
2.2627	5.83605	-10.8056	0	
2.2633	6.45932	-7.44261	0	
2.2640	2.18144	-7.77339	0	
2.2647	-1.47318	-8.65548	0	
2.2653	0.339964	-6.50539	0	
2.2660	1.55817	-4.68609	0	
2.2667	-0.878241	-3.804	0	
2.2673	-2.09645	-0.110261	0	
2.2680	-2.69138	5.34765	0	
2.2687	-6.96927	9.92348	0	
2.2693	-9.40568	11.4671	0	
2.2700	-7.59254	8.10417	0	
2.2707	-4.22122	4.46557	0	
2.2713	-3.62629	7.22209	0	
2.2720	-5.15613	12.68	0	
2.2727	-6.96927	10.8607	0	
2.2733	-6.0627	5.34765	0	
2.2740	-4.53286	3.85913	0	
2.2747	-3.90959	3.52835	0	
2.2753	-2.40808	2.64626	0	
2.2760	-0.878241	3.52835	0	
2.2767	-0.878241	4.13478	0	
2.2773	0.0566607	2.64626	0	
2.2780	2.77638	0.771826	0	
2.2787	3.39964	1.10261	0	
2.2793	2.77638	4.13478	0	
2.2800	4.02291	6.28487	0	
2.2807	5.83605	3.52835	0	
2.2813	5.52442	0.496174	0	
2.2820	3.71128	0.771826	0	
2.2827	0.963232	1.10261	0	
2.2833	-2.09645	-0.716696	0	
2.2840	-1.47318	-0.110261	0	
2.2847	0.0566607	2.64626	0	
2.2853	-2.09645	1.37826	0	
2.2860	-4.22122	-0.716696	0	
2.2867	-3.31465	1.10261	0	
2.2873	-3.00302	3.52835	0	
2.2880	-4.22122	2.92191	0	
2.2887	-5.43943	2.03983	0	
2.2893	-7.90417	1.70904	0	
2.2900	-6.96927	1.10261	0	
2.2907	-3.31465	-0.110261	0	
2.2913	-3.31465	-1.32313	0	
2.2920	-6.37433	-1.04748	0	
2.2927	-6.0627	1.10261	0	
2.2933	-4.22122	1.37826	0	
2.2940	-2.69138	0.165391	0	
2.2947	-1.78481	1.10261	0	
2.2953	-2.09645	2.31548	0	
2.2960	-1.18988	2.64626	0	
2.2967	1.8698	4.13478	0	
2.2973	3.71128	2.64626	0	
2.2980	4.92948	0.496174	0	
2.2987	6.77096	2.64626	0	
2.2993	5.52442	2.64626	0	
2.3000	3.39964	-3.47322	0	
2.3007	3.08801	-6.50539	0	
2.3013	1.55817	-4.41043	0	
2.3020	0.0566607	-4.68609	0	
2.3027	0.651598	-6.22974	0	
2.3033	-1.18988	-4.68609	0	
2.3040	-3.31465	-2.59113	0	
2.3047	-2.40808	-0.716696	0	
2.3053	-4.53286	-0.441043	0	
2.3060	-6.37433	-2.26035	0	
2.3067	-4.22122	-2.26035	0	
2.3073	-5.43943	0.496174	0	
2.3080	-8.81074	1.37826	0	
2.3087	-5.75106	-0.110261	0	
2.3093	-3.62629	-0.110261	0	
2.3100	-7.59254	2.64626	0	
2.3107	-8.18747	4.13478	0	
2.3113	-6.96927	3.52835	0	
2.3120	-6.65763	3.85913	0	
2.3127	-3.62629	3.85913	0	
2.3133	-0.566607	3.52835	0	
2.3140	0.651598	3.85913	0	
2.3147	3.39964	3.85913	0	
2.3153	3.39964	3.85913	0	
2.3160	1.27487	5.67843	0	
2.3167	3.08801	6.28487	0	
2.3173	6.45932	3.2527	0	
2.3180	5.52442	0.771826	0	
2.3187	6.14769	-0.441043	0	
2.3193	8.5841	-3.19757	0	
2.3200	6.77096	-2.59113	0	
2.3207	3.08801	0.496174	0	
2.3213	2.77638	-1.65391	0	
2.3220	4.02291	-5.01687	0	
2.3227	4.02291	-3.47322	0	
2.3233	2.77638	-1.65391	0	
2.3240	2.18144	-1.65391	0	
2.3247	1.8698	-0.716696	0	
2.3253	-0.566607	-0.110261	0	
2.3260	-1.47318	-1.04748	0	
2.3267	0.0566607	-0.110261	0	
2.3273	-1.18988	0.771826	0	
2.3280	-4.22122	1.37826	0	
2.3287	-4.22122	3.52835	0	
2.3293	-4.22122	5.34765	0	
2.3300	-4.53286	3.85913	0	
2.3307	-2.69138	1.37826	0	
2.3313	-2.09645	2.31548	0	
2.3320	-4.53286	3.85913	0	
2.3327	-4.22122	2.92191	0	
2.3333	-0.254973	2.03983	0	
2.3340	1.8698	3.52835	0	
2.3347	1.8698	3.2527	0	
2.3353	1.55817	1.37826	0	
2.3360	1.55817	1.70904	0	
2.3367	2.77638	3.2527	0	
2.3373	4.92948	1.70904	0	
2.3380	5.24112	-1.04748	0	
2.3387	4.61785	0.496174	0	
2.3393	3.39964	3.2527	0	
2.3400	3.08801	2.31548	0	
2.3407	4.02291	-1.04748	0	
2.3413	3.71128	-2.86678	0	
2.3420	2.18144	-4.41043	0	
2.3427	2.18144	-5.01687	0	
2.3433	1.27487	-3.804	0	
2.3440	0.0566607	-4.07965	0	
2.3447	0.339964	-7.16696	0	
2.3453	0.651598	-7.44261	0	
2.3460	-1.18988	-6.22974	0	
2.3467	-1.47318	-7.77339	0	
2.3473	-2.40808	-9.26191	0	
2.3480	-4.53286	-7.44261	0	
2.3487	-4.22122	-5.89896	0	
2.3493	-3.62629	-6.50539	0	
2.3500	-5.15613	-7.44261	0	
2.3507	-4.22122	-5.6233	0	
2.3513	-0.878241	-2.26035	0	
2.3520	-1.47318	2.64626	0	
2.3527	-4.22122	8.71061	0	
2.3533	-2.40808	13.6172	0	
2.3540	0.339964	15.4365	0	
2.3547	0.339964	13.6172	0	
2.3553	0.0566607	9.04139	0	
2.3560	2.18144	5.34765	0	
2.3567	3.08801	4.46557	0	
2.3573	2.18144	2.92191	0	
2.3580	2.49307	3.2527	0	
2.3587	5.52442	3.2527	0	
2.3593	6.45932	-0.110261	0	
2.3600	3.71128	-1.92957	0	
2.3607	1.8698	0.165391	0	
2.3613	1.8698	-0.441043	0	
2.3620	1.55817	-2.59113	0	
2.3627	2.49307	-1.32313	0	
2.3633	4.02291	-1.65391	0	
2.3640	2.49307	-4.07965	0	
2.3647	-1.18988	-4.68609	0	
2.3653	-1.47318	-3.804	0	
2.3660	-1.47318	-3.47322	0	
2.3667	-2.40808	-2.59113	0	
2.3673	-3.62629	-1.92957	0	
2.3680	-5.15613	0.165391	0	
2.3687	-6.96927	3.2527	0	
2.3693	-6.96927	1.70904	0	
2.3700	-6.37433	-1.92957	0	
2.3707	-6.0627	-1.04748	0	
2.3713	-5.75106	1.10261	0	
2.3720	-4.22122	-0.441043	0	
2.3727	-3.00302	-2.86678	0	
2.3733	-2.69138	-2.86678	0	
2.3740	-2.09645	-0.716696	0	
2.3747	1.55817	2.03983	0	
2.3753	4.02291	3.2527	0	
2.3760	1.8698	1.70904	0	
2.3767	0.651598	-0.441043	0	
2.3773	2.49307	-2.26035	0	
2.3780	4.02291	-1.92957	0	
2.3787	5.83605	-1.04748	0	
2.3793	6.77096	-2.26035	0	
2.3800	4.02291	-1.65391	0	
2.3807	2.49307	-1.04748	0	
2.3813	3.71128	-4.68609	0	
2.3820	4.92948	-5.6233	0	
2.3827	4.02291	-2.26035	0	
2.3833	2.18144	-1.92957	0	
2.3840	0.0566607	-3.804	0	
2.3847	0.0566607	-2.26035	0	
2.3853	-0.566607	-2.59113	0	
2.3860	-3.00302	-4.41043	0	
2.3867	-3.62629	-3.804	0	
2.3873	-4.22122	-2.86678	0	
2.3880	-7.90417	-2.26035	0	
2.3887	-7.59254	0.771826	0	
2.3893	-4.22122	2.31548	0	
2.3900	-5.15613	1.10261	0	
2.3907	-5.75106	0.771826	0	
2.3913	-3.62629	2.92191	0	
2.3920	-5.15613	5.34765	0	
2.3927	-4.53286	5.67843	0	
2.3933	0.0566607	5.072	0	
2.3940	-0.566607	5.072	0	
2.3947	-3.00302	4.46557	0	
2.3953	-1.18988	2.31548	0	
2.3960	0.651598	1.70904	0	
2.3967	1.27487	2.31548	0	
2.3973	3.08801	0.496174	0	
2.3980	3.39964	-1.04748	0	
2.3987	3.08801	0.165391	0	
2.3993	4.92948	1.37826	0	
2.4000	5.52442	0.165391	0	
2.4007	3.08801	-1.92957	0	
2.4013	1.8698	-2.59113	0	
2.4020	3.71128	-1.04748	0	
2.4027	5.52442	-1.04748	0	
2.4033	4.61785	-1.92957	0	
2.4040	2.77638	-2.86678	0	
2.4047	1.27487	-5.29252	0	
2.4053	-1.18988	-7.16696	0	
2.4060	-2.09645	-4.68609	0	
2.4067	-1.47318	-2.86678	0	
2.4073	-3.62629	-4.07965	0	
2.4080	-6.0627	-4.41043	0	
2.4087	-4.53286	-4.07965	0	
2.4093	-3.90959	-5.6233	0	
2.4100	-5.75106	-5.6233	0	
2.4107	-5.75106	-4.07965	0	
2.4113	-6.0627	-1.92957	0	
2.4120	-7.90417	-1.04748	0	
2.4127	-6.65763	-0.110261	0	
2.4133	-5.15613	4.74122	0	
2.4140	-4.84449	12.0736	0	
2.4147	-1.47318	15.7673	0	
2.4153	3.08801	14.4993	0	
2.4160	3.08801	11.7979	0	
2.4167	-0.566607	8.10417	0	
2.4173	-0.254973	4.46557	0	
2.4180	3.39964	1.70904	0	
2.4187	3.08801	1.10261	0	
2.4193	-0.878241	1.70904	0	
2.4200	1.27487	2.03983	0	
2.4207	5.52442	0.496174	0	
2.4213	2.77638	-0.441043	0	
2.4220	-0.878241	0.165391	0	
2.4227	2.18144	-0.110261	0	
2.4233	3.08801	-1.04748	0	
2.4240	-1.18988	-0.716696	0	
2.4247	-1.47318	-1.04748	0	
2.4253	0.339964	-1.04748	0	
2.4260	-0.566607	0.771826	0	
2.4267	-2.40808	2.03983	0	
2.4273	-3.31465	1.70904	0	
2.4280	-4.84449	1.70904	0	
2.4287	-4.53286	1.70904	0	
2.4293	-3.00302	2.03983	0	
2.4300	-3.31465	2.03983	0	
2.4307	-4.22122	0.771826	0	
2.4313	-4.53286	-0.110261	0	
2.4320	-5.75106	0.165391	0	
2.4327	-5.15613	0.771826	0	
2.4333	-1.47318	1.70904	0	
2.4340	1.8698	3.52835	0	
2.4347	2.18144	3.85913	0	
2.4353	1.55817	3.2527	0	
2.4360	2.18144	1.37826	0	
2.4367	2.18144	-0.441043	0	
2.4373	0.339964	-0.441043	0	
2.4380	1.8698	-0.110261	0	
2.4387	3.71128	-1.32313	0	
2.4393	1.8698	-1.92957	0	
2.4400	0.651598	-1.92957	0	
2.4407	2.77638	-2.26035	0	
2.4413	3.08801	-1.92957	0	
2.4420	1.8698	-1.04748	0	
2.4427	2.49307	-2.26035	0	
2.4433	2.49307	-5.6233	0	
2.4440	0.339964	-6.50539	0	
2.4447	-0.566607	-2.86678	0	
2.4453	-0.566607	-1.65391	0	
2.4460	-2.09645	-4.41043	0	
2.4467	-2.69138	-3.804	0	
2.4473	-3.00302	-0.716696	0	
2.4480	-3.90959	-1.04748	0	
2.4487	-4.53286	-1.65391	0	
2.4493	-4.22122	-0.110261	0	
2.4500	-3.62629	0.771826	0	
2.4507	-5.15613	-0.110261	0	
2.4513	-6.0627	-0.441043	0	
2.4520	-2.69138	0.496174	0	
2.4527	0.339964	2.64626	0	
2.4533	-0.878241	1.37826	0	
2.4540	-1.78481	-1.92957	0	
2.4547	0.651598	-0.716696	0	
2.4553	1.27487	0.771826	0	
2.4560	-0.254973	-1.04748	0	
2.4567	0.963232	0.165391	0	
2.4573	3.08801	2.03983	0	
2.4580	5.24112	-1.92957	0	
2.4587	7.05426	-3.19757	0	
2.4593	6.14769	1.70904	0	
2.4600	5.24112	0.165391	0	
2.4607	6.77096	-5.6233	0	
2.4613	6.14769	-4.41043	0	
2.4620	3.08801	-2.26035	0	
2.4627	4.02291	-4.41043	0	
2.4633	5.24112	-4.68609	0	
2.4640	1.8698	-1.92957	0	
2.4647	-2.09645	-2.26035	0	
2.4653	-3.00302	-4.68609	0	
2.4660	-4.84449	-5.01687	0	
2.4667	-6.0627	-1.92957	0	
2.4673	-4.22122	-0.110261	0	
2.4680	-2.40808	-0.110261	0	
2.4687	-3.62629	0.771826	0	
2.4693	-3.00302	1.70904	0	
2.4700	-1.47318	1.70904	0	
2.4707	-3.31465	3.52835	0	
2.4713	-5.43943	4.46557	0	
2.4720	-4.22122	1.10261	0	
2.4727	-3.00302	-0.716696	0	
2.4733	-2.09645	-0.110261	0	
2.4740	0.339964	-0.716696	0	
2.4747	0.651598	-1.92957	0	
2.4753	-0.878241	-2.26035	0	
2.4760	0.963232	-4.07965	0	
2.4767	3.39964	-5.6233	0	
2.4773	1.55817	-4.68609	0	
2.4780	1.8698	-6.50539	0	
2.4787	5.52442	-8.65548	0	
2.4793	5.24112	-6.50539	0	
2.4800	2.18144	-2.59113	0	
2.4807	1.27487	-0.441043	0	
2.4813	0.339964	3.52835	0	
2.4820	0.339964	11.1915	0	
2.4827	3.08801	15.7673	0	
2.4833	3.08801	12.68	0	
2.4840	-0.878241	6.61565	0	
2.4847	-2.09645	5.67843	0	
2.4853	-1.18988	5.072	0	
2.4860	-2.09645	-0.110261	0	
2.4867	-2.40808	-1.92957	0	
2.4873	-4.22122	2.64626	0	
2.4880	-8.49911	2.92191	0	
2.4887	-8.49911	0.496174	0	
2.4893	-6.37433	2.64626	0	
2.4900	-7.2809	2.92191	0	
2.4907	-5.75106	1.10261	0	
2.4913	-1.47318	3.2527	0	
2.4920	-2.09645	4.13478	0	
2.4927	-4.22122	1.37826	0	
2.4933	-2.40808	1.70904	0	
2.4940	-1.47318	5.072	0	
2.4947	-0.566607	5.34765	0	
2.4953	2.18144	3.85913	0	
2.4960	1.55817	2.64626	0	
2.4967	0.0566607	0.771826	0	
2.4973	3.08801	-0.441043	0	
2.4980	5.52442	0.771826	0	
2.4987	4.30621	1.10261	0	
2.4993	3.39964	-1.04748	0	
2.5000	4.61785	-2.86678	0	
2.5007	4.92948	-2.59113	0	
2.5013	3.08801	-1.32313	0	
2.5020	1.55817	-1.04748	0	
2.5027	2.77638	-1.92957	0	
2.5033	3.39964	-3.19757	0	
2.5040	1.27487	-3.47322	0	
2.5047	0.339964	-2.86678	0	
2.5053	0.963232	-2.86678	0	
2.5060	-3.00302	-2.26035	0	
2.5067	-4.84449	0.771826	0	
2.5073	-1.47318	1.70904	0	
2.5080	-0.878241	-1.32313	0	
2.5087	-4.22122	-2.26035	0	
2.5093	-3.62629	-0.716696	0	
2.5100	-1.47318	0.771826	0	
2.5107	-2.40808	1.70904	0	
2.5113	-4.22122	0.771826	0	
2.5120	-5.15613	-1.32313	0	
2.5127	-4.22122	-1.04748	0	
2.5133	-2.40808	-0.110261	0	
2.5140	-1.47318	-0.441043	0	
2.5147	-0.566607	0.165391	0	
2.5153	1.55817	-0.110261	0	
2.5160	3.08801	-1.65391	0	
2.5167	2.18144	-0.716696	0	
2.5173	1.8698	0.771826	0	
2.5180	2.49307	-1.92957	0	
2.5187	2.77638	-4.68609	0	
2.5193	1.8698	-3.19757	0	
2.5200	1.55817	-2.26035	0	
2.5207	3.08801	-2.26035	0	
2.5213	3.08801	-0.716696	0	
2.5220	1.8698	-0.441043	0	
2.5227	1.8698	-1.92957	0	
2.5233	0.651598	-0.441043	0	
2.5240	-1.78481	0.771826	0	
2.5247	-2.40808	-1.32313	0	
2.5253	-1.78481	-2.26035	0	
2.5260	-3.62629	-1.04748	0	
2.5267	-5.15613	-1.65391	0	
2.5273	-5.15613	-2.59113	0	
2.5280	-5.43943	-1.92957	0	
2.5287	-4.53286	-0.110261	0	
2.5293	-4.53286	1.10261	0	
2.5300	-5.75106	1.10261	0	
2.5307	-3.31465	1.70904	0	
2.5313	-1.47318	4.46557	0	
2.5320	-3.00302	3.2527	0	
2.5327	-2.69138	0.165391	0	
2.5333	-1.78481	2.31548	0	
2.5340	-3.31465	3.85913	0	
2.5347	-2.40808	0.771826	0	
2.5353	1.27487	1.70904	0	
2.5360	2.49307	4.46557	0	
2.5367	2.77638	1.70904	0	
2.5373	4.02291	0.496174	0	
2.5380	4.61785	1.70904	0	
2.5387	4.61785	-0.441043	0	
2.5393	4.92948	-2.59113	0	
2.5400	3.71128	-1.04748	0	
2.5407	3.71128	-0.716696	0	
2.5413	5.24112	-1.65391	0	
2.5420	6.14769	0.165391	0	
2.5427	4.92948	1.10261	0	
2.5433	3.08801	1.37826	0	
2.5440	2.18144	2.03983	0	
2.5447	2.18144	0.771826	0	
2.5453	-0.254973	-0.110261	0	
2.5460	-2.40808	1.37826	0	
2.5467	-1.47318	1.70904	0	
2.5473	-0.566607	-0.441043	0	
2.5480	-2.40808	-1.32313	0	
2.5487	-3.31465	-1.04748	0	
2.5493	-5.15613	-0.716696	0	
2.5500	-6.37433	1.10261	0	
2.5507	-3.00302	1.70904	0	
2.5513	0.339964	-0.441043	0	
2.5520	-1.18988	-0.110261	0	
2.5527	-1.78481	2.31548	0	
2.5533	-0.566607	1.70904	0	
2.5540	-0.254973	1.37826	0	
2.5547	1.27487	2.64626	0	
2.5553	1.55817	-0.441043	0	
2.5560	0.963232	-5.01687	0	
2.5567	3.08801	-4.68609	0	
2.5573	4.92948	-3.47322	0	
2.5580	4.92948	-5.89896	0	
2.5587	5.83605	-7.44261	0	
2.5593	6.14769	-7.16696	0	
2.5600	3.08801	-8.65548	0	
2.5607	2.77638	-9.86835	0	
2.5613	4.02291	-7.44261	0	
2.5620	2.18144	-5.29252	0	
2.5627	1.27487	-6.50539	0	
2.5633	2.77638	-5.89896	0	
2.5640	0.339964	-1.04748	0	
2.5647	-3.62629	5.34765	0	
2.5653	-3.00302	13.0108	0	
2.5660	0.0566607	16.043	0	
2.5667	-1.47318	12.0736	0	
2.5673	-5.75106	8.43496	0	
2.5680	-6.65763	7.82852	0	
2.5687	-4.22122	4.13478	0	
2.5693	-3.31465	0.771826	0	
2.5700	-5.15613	2.64626	0	
2.5707	-5.15613	3.85913	0	
2.5713	-4.22122	2.03983	0	
2.5720	-3.90959	3.85913	0	
2.5727	-2.69138	4.74122	0	
2.5733	-2.09645	0.771826	0	
2.5740	-2.40808	-0.110261	0	
2.5747	-0.566607	3.2527	0	
2.5753	1.27487	3.2527	0	
2.5760	0.339964	1.70904	0	
2.5767	1.27487	3.2527	0	
2.5773	3.71128	2.31548	0	
2.5780	4.02291	0.165391	0	
2.5787	4.61785	1.10261	0	
2.5793	6.45932	0.771826	0	
2.5800	5.83605	-1.92957	0	
2.5807	3.39964	-1.32313	0	
2.5813	2.18144	1.10261	0	
2.5820	1.55817	2.64626	0	
2.5827	3.08801	4.46557	0	
2.5833	3.39964	3.52835	0	
2.5840	-1.47318	3.85913	0	
2.5847	-4.22122	10.2543	0	
2.5853	-1.18988	6.61565	0	
2.5860	-1.47318	-12.3492	0	
2.5867	-6.0627	-21.7765	0	
2.5873	-6.37433	-13.8377	0	
2.5880	-4.53286	-8.98626	0	
2.5887	-4.84449	-7.44261	0	
2.5893	-4.22122	-2.59113	0	
2.5900	-4.22122	-0.110261	0	
2.5907	-5.43943	-0.110261	0	
2.5913	-4.53286	1.70904	0	
2.5920	-3.00302	1.37826	0	
2.5927	-4.22122	-0.110261	0	
2.5933	-3.90959	0.771826	0	
2.5940	0.339964	0.165391	0	
2.5947	1.8698	-2.26035	0	
2.5953	-0.254973	-1.92957	0	
2.5960	0.339964	-0.110261	0	
2.5967	4.30621	-0.716696	0	
2.5973	4.30621	-1.92957	0	
2.5980	1.27487	-2.59113	0	
2.5987	1.27487	-2.86678	0	
2.5993	3.08801	-2.86678	0	
2.6000	2.18144	-4.41043	0	
2.6007	2.18144	-5.6233	0	
2.6013	3.08801	-3.804	0	
2.6020	2.77638	-2.26035	0	
2.6027	3.39964	-3.47322	0	
2.6033	4.02291	-4.41043	0	
2.6040	2.18144	-3.804	0	
2.6047	0.339964	-3.804	0	
2.6053	-0.566607	-4.68609	0	
2.6060	-2.69138	-4.68609	0	
2.6067	-3.00302	-3.19757	0	
2.6073	-0.254973	-2.59113	0	
2.6080	-0.566607	-1.32313	0	
2.6087	-3.31465	1.37826	0	
2.6093	-4.53286	3.52835	0	
2.6100	-4.22122	3.52835	0	
2.6107	-3.90959	3.85913	0	
2.6113	-2.69138	4.13478	0	
2.6120	-3.00302	1.70904	0	
2.6127	-4.22122	2.03983	0	
2.6133	-2.69138	5.67843	0	
2.6140	-0.566607	4.74122	0	
2.6147	0.339964	0.771826	0	
2.6153	1.8698	3.2527	0	
2.6160	4.02291	6.28487	0	
2.6167	4.92948	3.52835	0	
2.6173	4.61785	0.771826	0	
2.6180	5.83605	1.70904	0	
2.6187	6.14769	0.771826	0	
2.6193	5.83605	-0.716696	0	
2.6200	5.83605	-1.04748	0	
2.6207	5.83605	-1.92957	0	
2.6213	4.61785	-1.65391	0	
2.6220	3.71128	0.165391	0	
2.6227	3.08801	-0.110261	0	
2.6233	1.27487	-0.716696	0	
2.6240	-1.18988	0.165391	0	
2.6247	-1.47318	0.771826	0	
2.6253	-1.18988	0.165391	0	
2.6260	-2.40808	0.496174	0	
2.6267	-4.53286	0.165391	0	
2.6273	-5.43943	-0.110261	0	
2.6280	-6.0627	-0.716696	0	
2.6287	-5.15613	-2.26035	0	
2.6293	-2.69138	-1.04748	0	
2.6300	-4.22122	3.52835	0	
2.6307	-7.90417	3.52835	0	
2.6313	-6.65763	0.165391	0	
2.6320	-4.53286	-0.110261	0	
2.6327	-6.65763	0.496174	0	
2.6333	-5.75106	-1.04748	0	
2.6340	-1.78481	-1.04748	0	
2.6347	-2.40808	1.10261	0	
2.6353	-3.31465	1.70904	0	
2.6360	-1.78481	-1.04748	0	
2.6367	-2.09645	-5.01687	0	
2.6373	-1.47318	-7.16696	0	
2.6380	2.49307	-6.22974	0	
2.6387	5.83605	-4.68609	0	
2.6393	5.24112	-3.804	0	
2.6400	2.77638	-4.68609	0	
2.6407	2.18144	-6.22974	0	
2.6413	3.08801	-4.41043	0	
2.6420	2.18144	2.64626	0	
2.6427	1.8698	10.8607	0	
2.6433	4.02291	14.4993	0	
2.6440	1.8698	12.68	0	
2.6447	-3.31465	9.64783	0	
2.6453	-2.40808	6.28487	0	
2.6460	-0.254973	2.03983	0	
2.6467	-1.47318	-0.110261	0	
2.6473	-2.40808	1.70904	0	
2.6480	-3.90959	2.03983	0	
2.6487	-4.22122	-1.04748	0	
2.6493	-1.47318	-1.32313	0	
2.6500	-0.566607	1.10261	0	
2.6507	-3.31465	1.70904	0	
2.6513	-3.31465	0.771826	0	
2.6520	-1.78481	-0.441043	0	
2.6527	-2.09645	-1.04748	0	
2.6533	-0.254973	2.03983	0	
2.6540	1.55817	5.072	0	
2.6547	-0.254973	2.92191	0	
2.6553	-1.47318	0.771826	0	
2.6560	-1.18988	1.37826	0	
2.6567	0.651598	0.496174	0	
2.6573	3.08801	-1.92957	0	
2.6580	3.71128	-3.19757	0	
2.6587	3.71128	-4.07965	0	
2.6593	6.14769	-4.07965	0	
2.6600	6.77096	-3.47322	0	
2.6607	4.02291	-4.07965	0	
2.6613	3.39964	-4.07965	0	
2.6620	3.71128	-2.59113	0	
2.6627	2.77638	-2.26035	0	
2.6633	1.27487	-1.92957	0	
2.6640	-0.566607	-1.04748	0	
2.6647	-1.47318	-1.65391	0	
2.6653	0.339964	-2.26035	0	
2.6660	0.651598	-1.04748	0	
2.6667	-2.40808	0.165391	0	
2.6673	-2.40808	-0.441043	0	
2.6680	-0.566607	-1.65391	0	
2.6687	-2.40808	-1.04748	0	
2.6693	-5.43943	1.70904	0	
2.6700	-5.15613	2.64626	0	
2.6707	-4.22122	2.31548	0	
2.6713	-5.75106	0.771826	0	
2.6720	-6.96927	-2.86678	0	
2.6727	-4.22122	-4.68609	0	
2.6733	-1.47318	-1.65391	0	
2.6740	-1.78481	0.771826	0	
2.6747	-0.566607	-0.110261	0	
2.6753	2.18144	1.37826	0	
2.6760	0.339964	3.52835	0	
2.6767	-1.47318	1.70904	0	
2.6773	1.8698	-0.441043	0	
2.6780	4.02291	-0.716696	0	
2.6787	3.71128	0.496174	0	
2.6793	2.77638	1.70904	0	
2.6800	1.55817	0.496174	0	
2.6807	1.27487	-2.86678	0	
2.6813	3.08801	-3.47322	0	
2.6820	4.61785	-1.92957	0	
2.6827	3.39964	-1.65391	0	
2.6833	0.651598	-1.92957	0	
2.6840	-1.47318	-1.04748	0	
2.6847	-2.69138	1.10261	0	
2.6853	-2.40808	0.771826	0	
2.6860	-0.566607	-1.92957	0	
2.6867	-0.566607	-1.92957	0	
2.6873	-2.69138	1.10261	0	
2.6880	-4.53286	2.64626	0	
2.6887	-5.43943	0.771826	0	
2.6893	-4.22122	0.771826	0	
2.6900	-1.47318	2.92191	0	
2.6907	-1.18988	4.46557	0	
2.6913	-3.00302	3.85913	0	
2.6920	-3.00302	2.31548	0	
2.6927	-1.78481	0.496174	0	
2.6933	-2.40808	-0.441043	0	
2.6940	-1.78481	2.31548	0	
2.6947	-0.254973	6.28487	0	
2.6953	1.55817	5.95409	0	
2.6960	4.02291	4.74122	0	
2.6967	5.52442	5.072	0	
2.6973	4.61785	4.46557	0	
2.6980	4.92948	5.34765	0	
2.6987	6.45932	6.61565	0	
2.6993	5.83605	3.85913	0	
2.7000	4.02291	-0.110261	0	
2.7007	2.77638	-1.92957	0	
2.7013	2.49307	-3.19757	0	
2.7020	3.39964	-2.26035	0	
2.7027	3.08801	0.771826	0	
2.7033	0.339964	0.771826	0	
2.7040	0.0566607	0.771826	0	
2.7047	1.8698	2.64626	0	
2.7053	0.0566607	1.70904	0	
2.7060	-2.69138	-1.04748	0	
2.7067	-2.40808	-1.65391	0	
2.7073	-3.31465	-0.110261	0	
2.7080	-5.75106	1.70904	0	
2.7087	-6.0627	1.10261	0	
2.7093	-6.96927	-1.92957	0	
2.7100	-7.59254	-1.65391	0	
2.7107	-5.15613	1.37826	0	
2.7113	-3.62629	0.165391	0	
2.7120	-5.15613	-1.92957	0	
2.7127	-5.43943	-2.59113	0	
2.7133	-3.31465	-4.41043	0	
2.7140	-1.47318	-4.68609	0	
2.7147	-1.47318	-1.04748	0	
2.7153	-3.00302	-0.110261	0	
2.7160	-2.40808	-2.86678	0	
2.7167	1.27487	-5.01687	0	
2.7173	2.49307	-5.01687	0	
2.7180	-0.878241	-4.68609	0	
2.7187	-1.18988	-5.01687	0	
2.7193	2.77638	-6.22974	0	
2.7200	2.77638	-5.01687	0	
2.7207	0.339964	-2.86678	0	
2.7213	1.27487	-0.110261	0	
2.7220	2.49307	7.22209	0	
2.7227	0.339964	14.4993	0	
2.7233	-0.878241	14.4993	0	
2.7240	-0.878241	9.04139	0	
2.7247	-3.31465	4.13478	0	
2.7253	-2.40808	0.771826	0	
2.7260	1.27487	-1.65391	0	
2.7267	0.339964	-2.59113	0	
2.7273	-3.31465	-2.26035	0	
2.7280	-2.40808	1.10261	0	
2.7287	-0.878241	4.46557	0	
2.7293	-4.22122	2.31548	0	
2.7300	-5.75106	-1.04748	0	
2.7307	-3.00302	1.70904	0	
2.7313	-3.90959	5.072	0	
2.7320	-6.96927	4.46557	0	
2.7327	-4.53286	3.85913	0	
2.7333	0.339964	5.34765	0	
2.7340	0.339964	5.34765	0	
2.7347	-0.878241	3.85913	0	
2.7353	0.0566607	4.13478	0	
2.7360	0.963232	5.34765	0	
2.7367	0.339964	4.46557	0	
2.7373	2.18144	1.37826	0	
2.7380	4.92948	0.165391	0	
2.7387	4.92948	1.10261	0	
2.7393	2.18144	1.37826	0	
2.7400	1.27487	0.771826	0	
2.7407	2.18144	2.31548	0	
2.7413	2.18144	4.46557	0	
2.7420	-0.254973	3.52835	0	
2.7427	-0.878241	3.2527	0	
2.7433	0.651598	5.95409	0	
2.7440	1.55817	5.072	0	
2.7447	-0.254973	1.37826	0	
2.7453	-3.00302	2.64626	0	
2.7460	-3.31465	0.496174	0	
2.7467	-3.31465	-14.1685	0	
2.7473	-3.90959	-25.7459	0	
2.7480	-4.84449	-21.5009	0	
2.7487	-5.75106	-13.5621	0	
2.7493	-6.37433	-8.98626	0	
2.7500	-4.53286	-3.804	0	
2.7507	-2.40808	-2.86678	0	
2.7513	-2.40808	-5.6233	0	
2.7520	-3.00302	-3.804	0	
2.7527	-1.47318	-1.04748	0	
2.7533	-1.47318	-2.59113	0	
2.7540	-2.69138	-2.26035	0	
2.7547	-1.78481	1.37826	0	
2.7553	-0.566607	1.10261	0	
2.7560	1.55817	-3.19757	0	
2.7567	5.83605	-5.29252	0	
2.7573	6.14769	-2.59113	0	
2.7580	2.77638	1.70904	0	
2.7587	3.71128	2.64626	0	
2.7593	7.67753	0.496174	0	
2.7600	6.14769	-0.716696	0	
2.7607	3.71128	0.771826	0	
2.7613	4.92948	2.64626	0	
2.7620	5.52442	3.85913	0	
2.7627	4.92948	3.52835	0	
2.7633	5.83605	2.92191	0	
2.7640	4.92948	2.64626	0	
2.7647	2.77638	0.165391	0	
2.7653	2.77638	-1.04748	0	
2.7660	1.55817	1.70904	0	
2.7667	-1.18988	2.64626	0	
2.7673	-2.40808	-0.110261	0	
2.7680	-2.69138	0.496174	0	
2.7687	-2.40808	3.52835	0	
2.7693	-1.47318	5.34765	0	
2.7700	-2.09645	6.8913	0	
2.7707	-3.00302	6.28487	0	
2.7713	-2.69138	4.46557	0	
2.7720	-3.31465	5.072	0	
2.7727	-3.90959	6.28487	0	
2.7733	-2.69138	4.74122	0	
2.7740	-2.40808	4.74122	0	
2.7747	-1.78481	6.8913	0	
2.7753	0.963232	5.072	0	
2.7760	3.08801	1.10261	0	
2.7767	3.71128	0.496174	0	
2.7773	4.92948	0.165391	0	
2.7780	5.83605	-1.92957	0	
2.7787	6.14769	-5.01687	0	
2.7793	5.24112	-6.50539	0	
2.7800	3.39964	-6.22974	0	
2.7807	2.77638	-5.89896	0	
2.7813	4.02291	-6.50539	0	
2.7820	4.02291	-4.68609	0	
2.7827	2.77638	-2.86678	0	
2.7833	2.18144	-1.32313	0	
2.7840	2.49307	3.2527	0	
2.7847	2.18144	9.92348	0	
2.7853	0.339964	12.68	0	
2.7860	-1.47318	12.4043	0	
2.7867	-1.47318	12.0736	0	
2.7873	-2.40808	10.2543	0	
2.7880	-4.53286	6.28487	0	
2.7887	-4.22122	3.52835	0	
2.7893	-3.00302	1.10261	0	
2.7900	-2.40808	0.496174	0	
2.7907	-1.47318	1.70904	0	
2.7913	-0.878241	2.31548	0	
2.7920	-3.90959	-0.441043	0	
2.7927	-6.37433	-1.04748	0	
2.7933	-5.15613	0.165391	0	
2.7940	-1.47318	-0.110261	0	
2.7947	0.651598	1.37826	0	
2.7953	0.339964	3.85913	0	
2.7960	-0.566607	0.771826	0	
2.7967	1.27487	-3.804	0	
2.7973	3.08801	-3.804	0	
2.7980	2.49307	-3.804	0	
2.7987	1.8698	-4.68609	0	
2.7993	2.18144	-4.68609	0	
2.8000	2.18144	-5.6233	0	
2.8007	2.18144	-7.16696	0	
2.8013	3.08801	-5.01687	0	
2.8020	3.08801	-3.804	0	
2.8027	0.963232	-6.22974	0	
2.8033	0.339964	-7.44261	0	
2.8040	1.27487	-6.22974	0	
2.8047	0.339964	-3.804	0	
2.8053	-3.90959	-2.86678	0	
2.8060	-6.65763	-5.01687	0	
2.8067	-4.22122	-6.83617	0	
2.8073	-1.47318	-5.01687	0	
2.8080	-1.47318	-4.41043	0	
2.8087	-3.90959	-5.29252	0	
2.8093	-6.96927	-2.86678	0	
2.8100	-8.18747	-1.04748	0	
2.8107	-6.0627	-2.86678	0	
2.8113	-5.75106	-3.804	0	
2.8120	-7.59254	-1.65391	0	
2.8127	-5.15613	-0.110261	0	
2.8133	-2.40808	0.771826	0	
2.8140	-5.15613	1.37826	0	
2.8147	-6.0627	0.771826	0	
2.8153	-1.47318	0.496174	0	
2.8160	0.339964	0.771826	0	
2.8167	-3.00302	-0.110261	0	
2.8173	-3.00302	-0.441043	0	
2.8180	0.339964	-1.04748	0	
2.8187	1.55817	-1.92957	0	
2.8193	2.18144	-0.716696	0	
2.8200	3.08801	0.165391	0	
2.8207	3.08801	-2.86678	0	
2.8213	2.18144	-2.86678	0	
2.8220	0.339964	1.70904	0	
2.8227	-2.09645	1.37826	0	
2.8233	-0.566607	-1.65391	0	
2.8240	1.27487	-1.92957	0	
2.8247	-1.47318	-3.804	0	
2.8253	-3.31465	-3.804	0	
2.8260	-3.00302	-0.441043	0	
2.8267	-3.00302	-1.92957	0	
2.8273	-3.31465	-4.41043	0	
2.8280	-3.00302	0.165391	0	
2.8287	-3.62629	3.52835	0	
2.8293	-4.53286	1.37826	0	
2.8300	-3.31465	2.64626	0	
2.8307	-2.40808	5.34765	0	
2.8313	-3.62629	2.64626	0	
2.8320	-4.53286	2.31548	0	
2.8327	-4.84449	6.28487	0	
2.8333	-5.43943	5.67843	0	
2.8340	-4.22122	3.85913	0	
2.8347	-0.878241	5.67843	0	
2.8353	-0.566607	5.072	0	
2.8360	-2.69138	1.70904	0	
2.8367	-1.18988	3.2527	0	
2.8373	1.8698	6.61565	0	
2.8380	1.8698	5.072	0	
2.8387	3.08801	2.92191	0	
2.8393	5.83605	4.13478	0	
2.8400	4.30621	3.52835	0	
2.8407	2.77638	0.165391	0	
2.8413	3.08801	-1.04748	0	
2.8420	0.651598	0.771826	0	
2.8427	-0.254973	0.771826	0	
2.8433	4.02291	-0.110261	0	
2.8440	4.30621	0.496174	0	
2.8447	0.963232	1.37826	0	
2.8453	0.339964	0.771826	0	
2.8460	0.0566607	-0.110261	0	
2.8467	-1.47318	-1.32313	0	
2.8473	-1.78481	-0.716696	0	
2.8480	-3.62629	0.496174	0	
2.8487	-6.37433	-1.92957	0	
2.8493	-3.90959	-3.804	0	
2.8500	-1.18988	-1.92957	0	
2.8507	-4.53286	-1.32313	0	
2.8513	-6.65763	-3.804	0	
2.8520	-3.00302	-4.68609	0	
2.8527	-1.18988	-3.804	0	
2.8533	-3.31465	-1.92957	0	
2.8540	-3.31465	-1.04748	0	
2.8547	0.339964	-1.04748	0	
2.8553	2.77638	1.10261	0	
2.8560	2.18144	4.74122	0	
2.8567	2.77638	6.28487	0	
2.8573	4.92948	9.04139	0	
2.8580	4.92948	14.4993	0	
2.8587	2.77638	15.1609	0	
2.8593	4.61785	10.8607	0	
2.8600	7.05426	5.67843	0	
2.8607	4.92948	-0.110261	0	
2.8613	3.39964	-1.32313	0	
2.8620	5.52442	1.70904	0	
2.8627	4.92948	2.03983	0	
2.8633	1.55817	-0.110261	0	
2.8640	0.963232	-0.110261	0	
2.8647	0.339964	-1.04748	0	
2.8653	-1.18988	-2.86678	0	
2.8660	-1.47318	-1.65391	0	
2.8667	-1.47318	-0.110261	0	
2.8673	-2.69138	-0.441043	0	
2.8680	-3.00302	-1.04748	0	
2.8687	-2.40808	-1.92957	0	
2.8693	-3.31465	-3.804	0	
2.8700	-5.15613	-3.19757	0	
2.8707	-6.0627	-1.32313	0	
2.8713	-4.22122	-0.110261	0	
2.8720	-2.40808	-0.441043	0	
2.8727	-3.31465	-1.65391	0	
2.8733	-2.69138	-1.92957	0	
2.8740	0.339964	-0.716696	0	
2.8747	1.55817	-0.716696	0	
2.8753	0.651598	-1.32313	0	
2.8760	0.0566607	-0.110261	0	
2.8767	-0.878241	-0.110261	0	
2.8773	0.339964	-4.68609	0	
2.8780	3.39964	-7.44261	0	
2.8787	4.61785	-4.68609	0	
2.8793	4.61785	-3.47322	0	
2.8800	5.83605	-4.41043	0	
2.8807	5.52442	-4.41043	0	
2.8813	3.71128	-6.22974	0	
2.8820	3.08801	-8.37983	0	
2.8827	1.8698	-6.50539	0	
2.8833	-0.566607	-6.83617	0	
2.8840	0.0566607	-9.5927	0	
2.8847	0.963232	-6.83617	0	
2.8853	-1.18988	-3.804	0	
2.8860	-3.00302	-7.16696	0	
2.8867	-2.69138	-9.26191	0	
2.8873	-3.31465	-5.89896	0	
2.8880	-5.15613	-2.86678	0	
2.8887	-5.15613	-2.59113	0	
2.8893	-5.15613	-3.804	0	
2.8900	-6.0627	-4.68609	0	
2.8907	-3.62629	-0.441043	0	
2.8913	0.963232	3.2527	0	
2.8920	0.339964	1.37826	0	
2.8927	-2.09645	-0.110261	0	
2.8933	-0.566607	2.64626	0	
2.8940	0.0566607	4.13478	0	
2.8947	0.0566607	2.64626	0	
2.8953	2.18144	0.771826	0	
2.8960	3.39964	2.64626	0	
2.8967	3.71128	7.22209	0	
2.8973	4.61785	6.61565	0	
2.8980	3.08801	2.31548	0	
2.8987	1.8698	0.165391	0	
2.8993	4.92948	-1.92957	0	
2.9000	4.92948	-3.804	0	
2.9007	1.8698	-2.26035	0	
2.9013	3.08801	-1.92957	0	
2.9020	4.02291	-2.26035	0	
2.9027	1.8698	-0.110261	0	
2.9033	0.963232	-1.04748	0	
2.9040	0.339964	-4.41043	0	
2.9047	-1.47318	-3.47322	0	
2.9053	-2.09645	-0.716696	0	
2.9060	-3.31465	-0.110261	0	
2.9067	-5.75106	0.496174	0	
2.9073	-5.43943	2.64626	0	
2.9080	-4.84449	3.52835	0	
2.9087	-5.15613	2.31548	0	
2.9093	-3.90959	0.496174	0	
2.9100	-3.31465	3.2527	0	
2.9107	-3.31465	5.95409	0	
2.9113	-1.78481	2.03983	0	
2.9120	-0.566607	-0.441043	0	
2.9127	-1.78481	3.2527	0	
2.9133	-0.566607	4.46557	0	
2.9140	3.08801	2.03983	0	
2.9147	3.71128	2.03983	0	
2.9153	0.651598	2.64626	0	
2.9160	-0.254973	4.46557	0	
2.9167	0.963232	7.22209	0	
2.9173	1.8698	8.10417	0	
2.9180	3.08801	9.04139	0	
2.9187	4.02291	9.92348	0	
2.9193	3.08801	7.22209	0	
2.9200	2.18144	4.13478	0	
2.9207	1.27487	1.37826	0	
2.9213	0.339964	-2.59113	0	
2.9220	0.963232	-1.65391	0	
2.9227	2.18144	1.70904	0	
2.9233	1.8698	-2.86678	0	
2.9240	0.0566607	-6.83617	0	
2.9247	-1.78481	-3.47322	0	
2.9253	-2.69138	-1.32313	0	
2.9260	-3.00302	-3.804	0	
2.9267	-3.62629	-4.07965	0	
2.9273	-5.15613	-3.804	0	
2.9280	-6.0627	-3.19757	0	
2.9287	-6.96927	1.10261	0	
2.9293	-7.90417	5.072	0	
2.9300	-7.90417	8.43496	0	
2.9307	-8.49911	15.7673	0	
2.9313	-7.90417	19.0751	0	
2.9320	-5.75106	14.4993	0	
2.9327	-5.15613	10.8607	0	
2.9333	-5.43943	10.2543	0	
2.9340	-5.15613	7.82852	0	
2.9347	-4.84449	5.34765	0	
2.9353	-4.22122	4.46557	0	
2.9360	-0.566607	3.52835	0	
2.9367	2.49307	4.46557	0	
