0.0000	4.24508	20.517	1
0.0007	5.46396	58.9863	0	
0.0013	4.24508	64.4501	0	
0.0020	3.90884	50.7349	0	
0.0027	3.32041	32.7268	0	
0.0033	1.76528	19.2904	0	
0.0040	2.10152	16.8373	0	
0.0047	3.32041	25.3675	0	
0.0053	2.10152	36.4065	0	
0.0060	-0.0420305	37.5773	0	
0.0067	-0.336244	29.3817	0	
0.0073	-0.0420305	25.0887	0	
0.0080	-1.89137	26.3153	0	
0.0087	-2.77401	29.3817	0	
0.0093	-0.966701	35.4587	0	
0.0100	-0.672488	38.1906	0	
0.0107	-2.4798	33.6189	0	
0.0113	-2.4798	32.1135	0	
0.0120	-0.672488	30.2737	0	
0.0127	-1.26091	18.0639	0	
0.0133	-0.672488	7.4151	0	
0.0140	0.546396	6.80183	0	
0.0147	-1.26091	3.40091	0	
0.0153	-2.4798	-7.24785	0	
0.0160	0.88264	-14.886	0	
0.0167	2.68995	-17.3391	0	
0.0173	0.546396	-21.5763	0	
0.0180	1.17685	-28.6011	0	
0.0187	3.90884	-32.6153	0	
0.0193	4.53929	-30.441	0	
0.0200	3.90884	-26.2038	0	
0.0207	3.61462	-22.1896	0	
0.0213	3.90884	-17.9524	0	
0.0220	4.83351	-15.4992	0	
0.0227	2.39574	-16.7258	0	
0.0233	-0.966701	-18.2311	0	
0.0240	-0.336244	-19.1789	0	
0.0247	0.546396	-17.9524	0	
0.0253	-0.966701	-15.778	0	
0.0260	-0.966701	-15.2205	0	
0.0267	-1.26091	-16.3913	0	
0.0273	-2.4798	-16.1125	0	
0.0280	-0.336244	-13.3806	0	
0.0287	1.17685	-10.593	0	
0.0293	-2.4798	-9.4222	0	
0.0300	-5.25381	-7.86113	0	
0.0307	-3.40447	-5.12925	0	
0.0313	-3.40447	-4.18145	0	
0.0320	-4.32914	-6.02129	0	
0.0327	-3.40447	-5.12925	0	
0.0333	-4.62335	-0.557527	0	
0.0340	-5.25381	0.0557527	0	
0.0347	-2.4798	-1.44957	0	
0.0353	-0.0420305	-1.17081	0	
0.0360	0.546396	-3.28941	0	
0.0367	2.68995	-8.19564	0	
0.0373	2.68995	-12.4328	0	
0.0380	1.17685	-18.5656	0	
0.0387	3.90884	-25.8692	0	
0.0393	5.12772	-32.6153	0	
0.0400	1.17685	-37.8003	0	
0.0407	-0.0420305	-26.2038	0	
0.0413	3.0262	12.2656	0	
0.0420	2.39574	50.1216	0	
0.0427	1.17685	55.3066	0	
0.0433	3.0262	37.9118	0	
0.0440	3.32041	24.8099	0	
0.0447	2.10152	18.6771	0	
0.0453	3.32041	14.1054	0	
0.0460	3.32041	14.9975	0	
0.0467	0.88264	17.7851	0	
0.0473	-0.0420305	15.6107	0	
0.0480	-0.336244	16.8373	0	
0.0487	-2.77401	22.6356	0	
0.0493	-4.32914	24.1967	0	
0.0500	-2.4798	24.8099	0	
0.0507	0.252183	22.0223	0	
0.0513	0.546396	-1.17081	0	
0.0520	0.88264	-30.7755	0	
0.0527	2.10152	-35.3472	0	
0.0533	2.10152	-21.0188	0	
0.0540	0.252183	-11.2063	0	
0.0547	0.252183	-6.02129	0	
0.0553	0.252183	-1.44957	0	
0.0560	-0.336244	-1.44957	0	
0.0567	-0.336244	-4.51597	0	
0.0573	-0.672488	-5.12925	0	
0.0580	-0.672488	-4.79473	0	
0.0587	2.39574	-8.80892	0	
0.0593	5.75818	-14.2727	0	
0.0600	4.53929	-17.0046	0	
0.0607	2.10152	-21.5763	0	
0.0613	1.76528	-28.9356	0	
0.0620	0.252183	-34.3994	0	
0.0627	-2.4798	-38.9711	0	
0.0633	-1.89137	-43.2641	0	
0.0640	-0.672488	-45.1039	0	
0.0647	-0.336244	-49.6756	0	
0.0653	-0.0420305	-41.4242	0	
0.0660	-1.55513	3.40091	0	
0.0667	-5.25381	55.5854	0	
0.0673	-6.13645	68.4085	0	
0.0680	-3.69868	51.3482	0	
0.0687	-3.9929	32.1135	0	
0.0693	-5.84224	18.6771	0	
0.0700	-5.54803	14.9975	0	
0.0707	-5.54803	15.6107	0	
0.0713	-4.32914	9.53371	0	
0.0720	-0.966701	4.62747	0	
0.0727	-1.55513	6.80183	0	
0.0733	-5.25381	11.039	0	
0.0740	-3.69868	16.8373	0	
0.0747	-2.4798	21.1303	0	
0.0753	-4.32914	15.9453	0	
0.0760	-4.62335	10.4257	0	
0.0767	-2.18559	9.53371	0	
0.0773	-0.672488	6.80183	0	
0.0780	-0.672488	2.17435	0	
0.0787	-0.336244	-0.557527	0	
0.0793	1.76528	-0.223011	0	
0.0800	3.32041	3.73543	0	
0.0807	1.47107	5.24075	0	
0.0813	-0.336244	-2.06285	0	
0.0820	0.546396	-8.19564	0	
0.0827	2.68995	-3.62392	0	
0.0833	3.90884	0.0557527	0	
0.0840	3.90884	-5.12925	0	
0.0847	2.10152	-7.86113	0	
0.0853	0.252183	-3.90269	0	
0.0860	2.10152	-1.44957	0	
0.0867	4.53929	-1.44957	0	
0.0873	3.0262	-0.557527	0	
0.0880	-1.55513	-0.557527	0	
0.0887	-3.40447	-2.39736	0	
0.0893	-2.4798	-1.17081	0	
0.0900	-1.26091	1.89559	0	
0.0907	-0.672488	2.78763	0	
0.0913	-0.672488	3.12215	0	
0.0920	-0.966701	3.40091	0	
0.0927	-1.55513	1.61683	0	
0.0933	-2.77401	-1.44957	0	
0.0940	-3.9929	-1.44957	0	
0.0947	-1.55513	1.00355	0	
0.0953	1.17685	0.390269	0	
0.0960	1.17685	-2.06285	0	
0.0967	1.47107	-2.39736	0	
0.0973	1.47107	-2.39736	0	
0.0980	-0.966701	-6.3558	0	
0.0987	-1.55513	-13.3806	0	
0.0993	2.10152	-16.1125	0	
0.1000	3.0262	-12.4328	0	
0.1007	1.47107	-7.86113	0	
0.1013	2.10152	-5.12925	0	
0.1020	4.83351	-2.06285	0	
0.1027	4.53929	-0.557527	0	
0.1033	2.39574	-1.17081	0	
0.1040	2.68995	2.17435	0	
0.1047	2.68995	7.69387	0	
0.1053	1.17685	8.92043	0	
0.1060	0.252183	7.97263	0	
0.1067	-1.55513	7.69387	0	
0.1073	-3.11026	5.85403	0	
0.1080	-1.26091	3.40091	0	
0.1087	-0.336244	1.00355	0	
0.1093	-3.11026	-1.44957	0	
0.1100	-3.11026	-4.18145	0	
0.1107	0.252183	-8.80892	0	
0.1113	0.88264	-12.7674	0	
0.1120	-0.966701	-13.9939	0	
0.1127	-1.55513	-12.1541	0	
0.1133	-1.89137	-10.3142	0	
0.1140	-1.55513	-8.47441	0	
0.1147	-1.89137	-5.12925	0	
0.1153	-1.55513	2.50887	0	
0.1160	0.88264	8.58591	0	
0.1167	2.10152	8.30715	0	
0.1173	1.17685	7.4151	0	
0.1180	1.76528	9.19919	0	
0.1187	3.61462	9.53371	0	
0.1193	3.61462	7.69387	0	
0.1200	1.76528	4.96199	0	
0.1207	1.76528	1.00355	0	
0.1213	3.0262	-4.18145	0	
0.1220	3.0262	-10.3142	0	
0.1227	1.17685	-14.886	0	
0.1233	1.47107	-14.886	0	
0.1240	3.0262	-14.2727	0	
0.1247	2.10152	-15.2205	0	
0.1253	-0.336244	-14.2727	0	
0.1260	-0.336244	-12.1541	0	
0.1267	0.252183	-10.593	0	
0.1273	-3.40447	-6.63457	0	
0.1280	-7.98579	-2.67613	0	
0.1287	-6.13645	-2.39736	0	
0.1293	-0.966701	-2.39736	0	
0.1300	0.252183	-1.17081	0	
0.1307	0.546396	0.390269	0	
0.1313	0.252183	1.00355	0	
0.1320	-2.18559	0.390269	0	
0.1327	-2.4798	1.28231	0	
0.1333	-1.26091	5.24075	0	
0.1340	-4.32914	8.30715	0	
0.1347	-5.84224	11.039	0	
0.1353	-1.55513	15.9453	0	
0.1360	-0.672488	17.4506	0	
0.1367	-1.89137	14.9975	0	
0.1373	1.76528	14.3842	0	
0.1380	3.90884	15.9453	0	
0.1387	0.546396	13.7709	0	
0.1393	1.76528	6.18855	0	
0.1400	5.75818	-2.39736	0	
0.1407	5.75818	-7.86113	0	
0.1413	3.32041	-19.7922	0	
0.1420	3.32041	-52.742	0	
0.1427	3.90884	-92.9954	0	
0.1433	3.90884	-104.313	0	
0.1440	3.61462	-74.7086	0	
0.1447	3.32041	-36.2392	0	
0.1453	3.0262	-19.7922	0	
0.1460	0.88264	-22.5241	0	
0.1467	-3.11026	-34.1206	0	
0.1473	-5.54803	-45.7172	0	
0.1480	-5.25381	-25.8692	0	
0.1487	-3.9929	37.9118	0	
0.1493	-2.18559	97.7344	0	
0.1500	-1.55513	105.651	0	
0.1507	-3.40447	76.9944	0	
0.1513	-4.91757	52.5748	0	
0.1520	-3.69868	47.3898	0	
0.1527	-3.40447	47.0552	0	
0.1533	-4.62335	40.6437	0	
0.1540	-4.32914	40.9782	0	
0.1547	-1.89137	51.3482	0	
0.1553	1.17685	49.7871	0	
0.1560	2.68995	33.6189	0	
0.1567	1.76528	22.0223	0	
0.1573	1.76528	21.409	0	
0.1580	3.90884	22.6356	0	
0.1587	4.83351	17.1718	0	
0.1593	4.83351	6.18855	0	
0.1600	3.90884	0.0557527	0	
0.1607	1.47107	-3.28941	0	
0.1613	2.39574	-10.593	0	
0.1620	6.05239	-12.4328	0	
0.1627	4.83351	-6.02129	0	
0.1633	2.68995	-4.18145	0	
0.1640	4.83351	-4.51597	0	
0.1647	4.53929	-4.51597	0	
0.1653	1.47107	-10.593	0	
0.1660	2.10152	-7.24785	0	
0.1667	2.10152	15.9453	0	
0.1673	-0.672488	30.887	0	
0.1680	-2.18559	24.4754	0	
0.1687	-0.672488	14.3842	0	
0.1693	-0.672488	10.4257	0	
0.1700	-4.32914	8.92043	0	
0.1707	-6.76691	4.34871	0	
0.1713	-4.62335	-9.70096	0	
0.1720	-3.40447	-21.9108	0	
0.1727	-5.84224	-21.9108	0	
0.1733	-5.54803	-19.1789	0	
0.1740	-3.11026	-19.4577	0	
0.1747	-3.11026	-16.7258	0	
0.1753	-3.11026	-16.1125	0	
0.1760	-1.89137	-22.1896	0	
0.1767	-1.26091	-26.2038	0	
0.1773	-0.672488	-24.3639	0	
0.1780	-0.0420305	-19.7922	0	
0.1787	-0.672488	-14.2727	0	
0.1793	0.546396	-10.593	0	
0.1800	3.32041	-7.24785	0	
0.1807	4.24508	-4.18145	0	
0.1813	3.61462	-2.06285	0	
0.1820	1.17685	0.390269	0	
0.1827	-0.672488	2.17435	0	
0.1833	0.252183	2.17435	0	
0.1840	1.17685	1.89559	0	
0.1847	-0.336244	4.01419	0	
0.1853	0.252183	5.85403	0	
0.1860	1.17685	-6.3558	0	
0.1867	-0.0420305	-36.2392	0	
0.1873	-0.0420305	-56.9792	0	
0.1880	1.17685	-48.4491	0	
0.1887	0.546396	-30.1622	0	
0.1893	0.252183	-18.8444	0	
0.1900	1.47107	-10.593	0	
0.1907	1.47107	-8.19564	0	
0.1913	-0.672488	-8.80892	0	
0.1920	-2.18559	-2.39736	0	
0.1927	-1.55513	3.12215	0	
0.1933	-0.336244	2.50887	0	
0.1940	-0.672488	1.28231	0	
0.1947	-2.18559	-2.39736	0	
0.1953	-1.55513	-6.96908	0	
0.1960	1.17685	-7.86113	0	
0.1967	3.32041	-13.3806	0	
0.1973	3.0262	-25.8692	0	
0.1980	1.17685	-38.0791	0	
0.1987	2.10152	-51.7942	0	
0.1993	3.61462	-62.1642	0	
0.2000	2.10152	-67.9625	0	
0.2007	-0.0420305	-69.8023	0	
0.2013	1.17685	-35.0127	0	
0.2020	3.61462	48.2818	0	
0.2027	3.90884	110.223	0	
0.2033	3.0262	101.972	0	
0.2040	1.17685	63.558	0	
0.2047	0.252183	33.3401	0	
0.2053	0.252183	15.9453	0	
0.2060	-0.672488	11.6523	0	
0.2067	-1.89137	14.7187	0	
0.2073	-3.69868	16.5585	0	
0.2080	-4.32914	16.8373	0	
0.2087	-2.4798	12.8789	0	
0.2093	-2.18559	10.147	0	
0.2100	-3.9929	20.517	0	
0.2107	-4.32914	28.4339	0	
0.2113	-2.4798	24.1967	0	
0.2120	-2.4798	26.3153	0	
0.2127	-3.11026	34.2321	0	
0.2133	-1.55513	30.6082	0	
0.2140	0.546396	24.1967	0	
0.2147	1.17685	24.1967	0	
0.2153	-0.672488	21.1303	0	
0.2160	-1.89137	16.8373	0	
0.2167	-0.0420305	18.0639	0	
0.2173	2.10152	16.8373	0	
0.2180	2.10152	11.3735	0	
0.2187	3.90884	11.3735	0	
0.2193	4.53929	13.4921	0	
0.2200	1.76528	8.58591	0	
0.2207	1.17685	-3.28941	0	
0.2213	4.24508	-12.4328	0	
0.2220	5.46396	-12.7674	0	
0.2227	4.53929	-9.4222	0	
0.2233	3.0262	-9.97973	0	
0.2240	-0.0420305	-8.80892	0	
0.2247	-1.55513	1.00355	0	
0.2253	-1.26091	8.92043	0	
0.2260	-1.89137	8.58591	0	
0.2267	-2.4798	7.69387	0	
0.2273	-1.26091	9.19919	0	
0.2280	-1.55513	4.01419	0	
0.2287	-3.40447	-6.02129	0	
0.2293	-2.18559	-10.593	0	
0.2300	-0.336244	-9.08768	0	
0.2307	-0.672488	-9.08768	0	
0.2313	-1.55513	-14.2727	0	
0.2320	-1.55513	-18.8444	0	
0.2327	-2.4798	-21.5763	0	
0.2333	-2.4798	-24.0294	0	
0.2340	-1.26091	-24.3639	0	
0.2347	0.252183	-22.8028	0	
0.2353	1.17685	-22.5241	0	
0.2360	2.68995	-19.7922	0	
0.2367	2.10152	-14.2727	0	
0.2373	2.10152	-9.70096	0	
0.2380	4.53929	-6.96908	0	
0.2387	4.53929	-4.18145	0	
0.2393	2.68995	-3.01064	0	
0.2400	3.0262	0.669032	0	
0.2407	3.0262	5.85403	0	
0.2413	2.10152	6.18855	0	
0.2420	3.90884	5.85403	0	
0.2427	3.90884	9.19919	0	
0.2433	-0.0420305	8.30715	0	
0.2440	-1.89137	2.17435	0	
0.2447	-0.966701	1.00355	0	
0.2453	-0.966701	1.28231	0	
0.2460	-1.55513	-0.557527	0	
0.2467	-1.26091	-1.78409	0	
0.2473	-1.26091	-10.3142	0	
0.2480	-1.89137	-19.7922	0	
0.2487	-3.40447	-20.4055	0	
0.2493	-2.4798	-37.4658	0	
0.2500	-0.672488	-71.9767	0	
0.2507	-1.89137	-66.4572	0	
0.2513	-4.32914	-15.2205	0	
0.2520	-3.11026	20.1825	0	
0.2527	-3.11026	21.409	0	
0.2533	-4.62335	16.8373	0	
0.2540	-3.69868	12.2656	0	
0.2547	-3.40447	6.18855	0	
0.2553	-4.32914	4.96199	0	
0.2560	-2.18559	5.57527	0	
0.2567	0.252183	4.96199	0	
0.2573	-1.26091	1.89559	0	
0.2580	-0.0420305	-4.79473	0	
0.2587	3.0262	-9.4222	0	
0.2593	1.47107	-10.593	0	
0.2600	0.252183	-9.70096	0	
0.2607	3.90884	-4.18145	0	
0.2613	6.34661	1.89559	0	
0.2620	3.61462	2.50887	0	
0.2627	2.10152	3.73543	0	
0.2633	2.39574	7.69387	0	
0.2640	0.88264	7.69387	0	
0.2647	-0.672488	5.85403	0	
0.2653	1.17685	7.69387	0	
0.2660	1.17685	10.4257	0	
0.2667	-2.4798	10.7603	0	
0.2673	-2.77401	6.80183	0	
0.2680	-0.336244	1.28231	0	
0.2687	-2.4798	-0.223011	0	
0.2693	-3.9929	-0.557527	0	
0.2700	-0.672488	-4.51597	0	
0.2707	-0.336244	-9.97973	0	
0.2713	-3.11026	-13.9939	0	
0.2720	-1.26091	-14.6072	0	
0.2727	0.252183	-17.9524	0	
0.2733	-2.77401	-30.7755	0	
0.2740	-2.18559	-39.5844	0	
0.2747	2.10152	-37.187	0	
0.2753	2.10152	-38.0791	0	
0.2760	1.17685	-32.8941	0	
0.2767	3.32041	6.46731	0	
0.2773	4.83351	59.2651	0	
0.2780	4.24508	78.4998	0	
0.2787	4.83351	62.6102	0	
0.2793	7.27128	41.5915	0	
0.2800	7.27128	30.6082	0	
0.2807	4.83351	26.594	0	
0.2813	3.61462	22.3568	0	
0.2820	3.32041	17.7851	0	
0.2827	2.68995	17.7851	0	
0.2833	2.68995	18.3984	0	
0.2840	3.0262	15.6107	0	
0.2847	1.76528	13.2134	0	
0.2853	0.88264	11.3735	0	
0.2860	0.88264	8.58591	0	
0.2867	0.252183	6.46731	0	
0.2873	-0.0420305	4.01419	0	
0.2880	-1.55513	-1.17081	0	
0.2887	-4.32914	-6.3558	0	
0.2893	-4.32914	-10.3142	0	
0.2900	-3.40447	-14.6072	0	
0.2907	-5.54803	-17.6178	0	
0.2913	-7.06112	-17.9524	0	
0.2920	-4.91757	-20.071	0	
0.2927	-3.9929	-23.7506	0	
0.2933	-6.13645	-27.9878	0	
0.2940	-5.84224	-35.3472	0	
0.2947	-2.4798	-36.2392	0	
0.2953	-3.11026	-13.9939	0	
0.2960	-5.84224	25.3675	0	
0.2967	-4.32914	53.8013	0	
0.2973	-2.4798	53.188	0	
0.2980	-2.4798	30.887	0	
0.2987	-0.336244	7.08059	0	
0.2993	1.76528	-4.18145	0	
0.3000	-0.672488	-1.78409	0	
0.3007	-1.55513	5.85403	0	
0.3013	0.252183	11.039	0	
0.3020	-0.672488	9.53371	0	
0.3027	-3.11026	4.01419	0	
0.3033	-3.11026	-0.223011	0	
0.3040	-0.966701	-1.17081	0	
0.3047	2.10152	-2.39736	0	
0.3053	2.39574	-6.63457	0	
0.3060	-1.55513	-10.593	0	
0.3067	-4.91757	-9.97973	0	
0.3073	-4.91757	-6.96908	0	
0.3080	-4.32914	-5.40801	0	
0.3087	-2.77401	-4.79473	0	
0.3093	-2.77401	-2.39736	0	
0.3100	-4.91757	1.61683	0	
0.3107	-4.32914	2.50887	0	
0.3113	-2.18559	-1.44957	0	
0.3120	-3.69868	-5.74252	0	
0.3127	-5.54803	-5.40801	0	
0.3133	-4.62335	-5.12925	0	
0.3140	-2.4798	-6.96908	0	
0.3147	0.252183	-7.58236	0	
0.3153	2.39574	-9.4222	0	
0.3160	1.76528	-15.2205	0	
0.3167	0.252183	-20.6842	0	
0.3173	-0.0420305	-22.5241	0	
0.3180	-0.0420305	-20.071	0	
0.3187	1.47107	-13.3806	0	
0.3193	4.53929	-7.58236	0	
0.3200	4.53929	-2.67613	0	
0.3207	1.47107	7.97263	0	
0.3213	2.39574	20.1825	0	
0.3220	6.68285	25.0887	0	
0.3227	5.75818	27.5418	0	
0.3233	1.47107	25.3675	0	
0.3240	1.76528	15.6107	0	
0.3247	4.83351	14.3842	0	
0.3253	4.53929	14.1054	0	
0.3260	1.17685	-12.1541	0	
0.3267	-0.672488	-40.811	0	
0.3273	-0.0420305	-36.2392	0	
0.3280	-0.336244	-19.7922	0	
0.3287	-3.40447	-14.2727	0	
0.3293	-4.32914	-9.4222	0	
0.3300	-1.55513	-3.28941	0	
0.3307	-0.336244	-3.28941	0	
0.3313	-0.336244	-3.01064	0	
0.3320	1.47107	-2.39736	0	
0.3327	1.17685	-4.18145	0	
0.3333	-1.55513	-3.28941	0	
0.3340	-1.55513	2.17435	0	
0.3347	0.252183	5.85403	0	
0.3353	0.88264	4.34871	0	
0.3360	0.252183	0.669032	0	
0.3367	-1.26091	1.28231	0	
0.3373	-0.336244	4.34871	0	
0.3380	2.10152	4.01419	0	
0.3387	1.17685	1.89559	0	
0.3393	0.546396	-0.223011	0	
0.3400	2.39574	-6.96908	0	
0.3407	2.10152	-14.2727	0	
0.3413	0.252183	-15.4992	0	
0.3420	1.76528	-16.3913	0	
0.3427	1.17685	-19.7922	0	
0.3433	-1.55513	-21.9108	0	
0.3440	0.252183	-21.5763	0	
0.3447	2.10152	-19.7922	0	
0.3453	-0.672488	-15.778	0	
0.3460	-2.4798	-9.4222	0	
0.3467	-0.672488	-2.39736	0	
0.3473	0.252183	4.96199	0	
0.3480	-1.89137	11.6523	0	
0.3487	-3.69868	12.8789	0	
0.3493	-3.40447	10.4257	0	
0.3500	-2.18559	12.6001	0	
0.3507	-0.966701	18.6771	0	
0.3513	-1.26091	14.1054	0	
0.3520	-2.18559	-3.01064	0	
0.3527	-0.672488	-12.4328	0	
0.3533	1.17685	-12.4328	0	
0.3540	-0.672488	-16.7258	0	
0.3547	-0.672488	-23.4161	0	
0.3553	3.32041	-23.4161	0	
0.3560	2.39574	-24.3639	0	
0.3567	-0.966701	-21.5763	0	
0.3573	2.10152	5.85403	0	
0.3580	5.12772	53.4668	0	
0.3587	4.53929	83.0715	0	
0.3593	4.83351	72.9802	0	
0.3600	5.46396	43.3756	0	
0.3607	3.90884	20.517	0	
0.3613	3.0262	0.390269	0	
0.3620	1.47107	-23.4161	0	
0.3627	-0.0420305	-30.7755	0	
0.3633	2.39574	-6.02129	0	
0.3640	3.90884	25.0887	0	
0.3647	2.10152	31.5003	0	
0.3653	2.10152	20.517	0	
0.3660	0.546396	9.19919	0	
0.3667	-2.4798	2.78763	0	
0.3673	-2.18559	2.78763	0	
0.3680	-1.26091	4.96199	0	
0.3687	-2.18559	3.73543	0	
0.3693	-1.55513	3.12215	0	
0.3700	-3.11026	7.69387	0	
0.3707	-6.13645	9.53371	0	
0.3713	-3.9929	7.4151	0	
0.3720	-2.18559	9.81247	0	
0.3727	-4.62335	13.2134	0	
0.3733	-3.69868	9.53371	0	
0.3740	-0.966701	4.01419	0	
0.3747	-2.18559	1.28231	0	
0.3753	-1.89137	-3.01064	0	
0.3760	-1.55513	-8.80892	0	
0.3767	-3.40447	-8.47441	0	
0.3773	-2.4798	-3.01064	0	
0.3780	-0.672488	-0.557527	0	
0.3787	-2.18559	-3.01064	0	
0.3793	-1.89137	-5.12925	0	
0.3800	0.252183	-6.3558	0	
0.3807	1.76528	-6.63457	0	
0.3813	3.61462	-6.63457	0	
0.3820	3.90884	-11.5408	0	
0.3827	-0.0420305	-20.4055	0	
0.3833	-0.672488	-24.9772	0	
0.3840	3.90884	-26.2038	0	
0.3847	4.24508	-17.0046	0	
0.3853	1.17685	14.3842	0	
0.3860	2.10152	46.7765	0	
0.3867	2.39574	49.7871	0	
0.3873	-0.336244	35.4587	0	
0.3880	-0.672488	25.0887	0	
0.3887	1.47107	18.3984	0	
0.3893	0.252183	15.9453	0	
0.3900	-0.966701	14.1054	0	
0.3907	0.252183	5.85403	0	
0.3913	-2.4798	2.17435	0	
0.3920	-4.91757	4.96199	0	
0.3927	-1.55513	-10.3142	0	
0.3933	1.17685	-37.8003	0	
0.3940	-0.966701	-44.4906	0	
0.3947	-2.4798	-32.002	0	
0.3953	-2.18559	-24.3639	0	
0.3960	-1.89137	-23.7506	0	
0.3967	-1.26091	-21.5763	0	
0.3973	0.252183	-19.1789	0	
0.3980	-1.26091	-17.9524	0	
0.3987	-3.40447	-16.7258	0	
0.3993	-3.40447	-15.778	0	
0.4000	-1.89137	-14.2727	0	
0.4007	2.10152	-11.5408	0	
0.4013	4.53929	-9.4222	0	
0.4020	2.68995	-8.80892	0	
0.4027	0.252183	-8.80892	0	
0.4033	1.17685	-6.96908	0	
0.4040	1.17685	-4.79473	0	
0.4047	-0.0420305	-4.51597	0	
0.4053	1.76528	-3.62392	0	
0.4060	2.10152	-1.44957	0	
0.4067	-1.26091	-2.06285	0	
0.4073	-2.77401	-4.18145	0	
0.4080	-1.55513	-6.63457	0	
0.4087	-1.55513	-8.19564	0	
0.4093	-3.69868	-7.58236	0	
0.4100	-4.91757	-5.74252	0	
0.4107	-3.40447	-5.12925	0	
0.4113	-0.966701	-3.62392	0	
0.4120	-0.672488	-2.06285	0	
0.4127	-1.55513	-1.17081	0	
0.4133	-2.18559	1.61683	0	
0.4140	-4.62335	5.85403	0	
0.4147	-5.25381	8.58591	0	
0.4153	-0.0420305	12.6001	0	
0.4160	2.68995	17.1718	0	
0.4167	0.546396	15.6107	0	
0.4173	-0.672488	7.69387	0	
0.4180	0.252183	1.28231	0	
0.4187	1.76528	1.28231	0	
0.4193	3.32041	5.24075	0	
0.4200	3.0262	7.4151	0	
0.4207	2.10152	3.73543	0	
0.4213	2.10152	-2.39736	0	
0.4220	2.68995	-4.18145	0	
0.4227	3.0262	-3.62392	0	
0.4233	3.0262	-2.06285	0	
0.4240	1.76528	1.28231	0	
0.4247	2.10152	2.50887	0	
0.4253	1.76528	0.390269	0	
0.4260	-1.26091	-1.78409	0	
0.4267	-2.4798	-0.83629	0	
0.4273	-1.89137	3.12215	0	
0.4280	-2.4798	9.53371	0	
0.4287	-1.26091	15.9453	0	
0.4293	-0.966701	20.517	0	
0.4300	-2.77401	21.409	0	
0.4307	-2.77401	19.5692	0	
0.4313	-3.40447	17.7851	0	
0.4320	-6.13645	13.7709	0	
0.4327	-3.9929	4.62747	0	
0.4333	0.252183	-3.28941	0	
0.4340	0.252183	-9.08768	0	
0.4347	0.252183	-18.5656	0	
0.4353	-0.672488	-28.6011	0	
0.4360	-1.55513	-33.7861	0	
0.4367	0.252183	-35.0127	0	
0.4373	2.39574	-33.7861	0	
0.4380	0.252183	-35.3472	0	
0.4387	-2.4798	-39.5844	0	
0.4393	-2.18559	-40.811	0	
0.4400	1.17685	-42.6508	0	
0.4407	3.61462	-45.3827	0	
0.4413	1.47107	-21.9108	0	
0.4420	0.252183	30.2737	0	
0.4427	3.0262	69.9696	0	
0.4433	3.0262	71.4749	0	
0.4440	1.47107	50.1216	0	
0.4447	1.17685	25.702	0	
0.4453	-0.0420305	4.96199	0	
0.4460	-0.672488	-7.24785	0	
0.4467	1.17685	-9.70096	0	
0.4473	1.76528	-8.19564	0	
0.4480	0.252183	-6.96908	0	
0.4487	-1.55513	-4.79473	0	
0.4493	-3.40447	-4.79473	0	
0.4500	-3.40447	-9.70096	0	
0.4507	-0.336244	-14.2727	0	
0.4513	-0.0420305	-14.6072	0	
0.4520	-2.18559	-12.4328	0	
0.4527	-0.966701	-9.70096	0	
0.4533	0.88264	-5.40801	0	
0.4540	1.47107	0.390269	0	
0.4547	3.0262	9.53371	0	
0.4553	2.68995	30.2737	0	
0.4560	1.17685	70.2484	0	
0.4567	3.32041	104.425	0	
0.4573	5.46396	90.3751	0	
0.4580	3.90884	39.1384	0	
0.4587	3.32041	7.69387	0	
0.4593	3.32041	12.2656	0	
0.4600	2.39574	21.1303	0	
0.4607	3.0262	19.5692	0	
0.4613	3.0262	16.8373	0	
0.4620	1.17685	12.6001	0	
0.4627	0.252183	-0.557527	0	
0.4633	1.17685	-15.2205	0	
0.4640	2.10152	-23.7506	0	
0.4647	1.47107	-34.1206	0	
0.4653	-0.966701	-40.5322	0	
0.4660	-2.4798	-22.1896	0	
0.4667	-0.672488	4.62747	0	
0.4673	-0.336244	8.58591	0	
0.4680	-1.89137	-1.17081	0	
0.4687	-2.18559	-3.01064	0	
0.4693	-2.4798	-3.28941	0	
0.4700	-4.32914	-5.12925	0	
0.4707	-4.32914	-4.18145	0	
0.4713	-3.40447	-5.74252	0	
0.4720	-2.4798	-8.80892	0	
0.4727	-3.11026	-7.24785	0	
0.4733	-3.69868	-5.12925	0	
0.4740	-3.11026	-6.63457	0	
0.4747	-0.0420305	-7.58236	0	
0.4753	0.546396	-4.51597	0	
0.4760	-1.26091	-2.39736	0	
0.4767	-0.336244	-4.18145	0	
0.4773	2.39574	-7.24785	0	
0.4780	1.76528	-7.58236	0	
0.4787	-0.0420305	-7.58236	0	
0.4793	3.0262	-8.47441	0	
0.4800	7.27128	-6.3558	0	
0.4807	6.68285	-3.28941	0	
0.4813	4.24508	-3.01064	0	
0.4820	2.68995	-3.28941	0	
0.4827	1.47107	-0.557527	0	
0.4833	2.10152	1.28231	0	
0.4840	4.24508	0.390269	0	
0.4847	3.90884	-3.01064	0	
0.4853	1.47107	-6.02129	0	
0.4860	0.88264	-6.96908	0	
0.4867	-0.336244	-6.96908	0	
0.4873	-0.966701	-8.80892	0	
0.4880	1.47107	-10.3142	0	
0.4887	1.76528	-10.593	0	
0.4893	-2.4798	-11.5408	0	
0.4900	-2.4798	-12.4328	0	
0.4907	1.76528	-11.2063	0	
0.4913	1.17685	-9.08768	0	
0.4920	-3.9929	-7.86113	0	
0.4927	-5.25381	-8.47441	0	
0.4933	-2.77401	-7.24785	0	
0.4940	-1.55513	-3.28941	0	
0.4947	-1.55513	1.61683	0	
0.4953	0.252183	8.58591	0	
0.4960	1.76528	19.2904	0	
0.4967	1.47107	26.9285	0	
0.4973	2.10152	24.1967	0	
0.4980	2.10152	14.9975	0	
0.4987	0.546396	8.58591	0	
0.4993	0.88264	5.85403	0	
0.5000	2.39574	3.12215	0	
0.5007	3.32041	2.50887	0	
0.5013	3.90884	4.62747	0	
0.5020	2.39574	1.28231	0	
0.5027	0.252183	-6.3558	0	
0.5033	1.76528	-9.4222	0	
0.5040	3.0262	-7.86113	0	
0.5047	-0.966701	-4.79473	0	
0.5053	-3.40447	1.61683	0	
0.5060	-2.18559	7.69387	0	
0.5067	-1.55513	6.18855	0	
0.5073	-1.26091	1.28231	0	
0.5080	-1.89137	1.28231	0	
0.5087	-4.32914	3.40091	0	
0.5093	-5.84224	2.50887	0	
0.5100	-6.4727	-1.44957	0	
0.5107	-7.98579	-7.86113	0	
0.5113	-6.13645	-13.9939	0	
0.5120	-3.40447	-16.3913	0	
0.5127	-2.4798	-13.0461	0	
0.5133	-0.672488	-9.70096	0	
0.5140	0.252183	-9.08768	0	
0.5147	-2.18559	-5.12925	0	
0.5153	-2.4798	1.28231	0	
0.5160	0.88264	1.28231	0	
0.5167	1.17685	-0.223011	0	
0.5173	0.252183	3.12215	0	
0.5180	2.39574	3.12215	0	
0.5187	4.83351	0.0557527	0	
0.5193	3.90884	2.78763	0	
0.5200	2.68995	5.57527	0	
0.5207	2.39574	2.17435	0	
0.5213	3.0262	-6.96908	0	
0.5220	3.32041	-20.4055	0	
0.5227	1.47107	-29.2144	0	
0.5233	-0.0420305	-28.6011	0	
0.5240	2.10152	-31.0542	0	
0.5247	3.61462	-26.2038	0	
0.5253	1.47107	12.2656	0	
0.5260	0.546396	63.2235	0	
0.5267	2.10152	80.9529	0	
0.5273	0.88264	63.558	0	
0.5280	-2.18559	36.4065	0	
0.5287	-4.62335	14.9975	0	
0.5293	-5.25381	6.80183	0	
0.5300	-3.9929	7.08059	0	
0.5307	-3.11026	4.34871	0	
0.5313	-4.32914	3.73543	0	
0.5320	-3.9929	2.78763	0	
0.5327	-2.18559	-18.8444	0	
0.5333	-1.55513	-51.5155	0	
0.5340	-1.55513	-56.9792	0	
0.5347	-0.336244	-37.4658	0	
0.5353	-0.0420305	-25.256	0	
0.5360	0.252183	-22.8028	0	
0.5367	2.10152	-18.2311	0	
0.5373	1.17685	-16.1125	0	
0.5380	-1.89137	-16.7258	0	
0.5387	-0.672488	-13.6594	0	
0.5393	4.83351	-10.593	0	
0.5400	4.83351	-9.97973	0	
0.5407	1.47107	-4.18145	0	
0.5413	1.17685	0.390269	0	
0.5420	1.17685	-2.39736	0	
0.5427	-1.26091	-0.557527	0	
0.5433	-0.672488	9.53371	0	
0.5440	2.10152	13.2134	0	
0.5447	1.17685	11.3735	0	
0.5453	-0.336244	10.7603	0	
0.5460	-0.672488	8.58591	0	
0.5467	-2.18559	6.80183	0	
0.5473	-2.4798	7.69387	0	
0.5480	-0.672488	5.85403	0	
0.5487	-2.18559	4.01419	0	
0.5493	-3.40447	5.85403	0	
0.5500	-1.55513	6.18855	0	
0.5507	-2.4798	5.85403	0	
0.5513	-5.25381	8.30715	0	
0.5520	-2.77401	6.46731	0	
0.5527	-0.672488	2.78763	0	
0.5533	-3.11026	3.73543	0	
0.5540	-2.4798	4.62747	0	
0.5547	0.252183	3.12215	0	
0.5553	-0.672488	4.34871	0	
0.5560	-2.4798	7.4151	0	
0.5567	-0.672488	10.7603	0	
0.5573	-0.672488	13.4921	0	
0.5580	-0.672488	12.2656	0	
0.5587	1.17685	10.7603	0	
0.5593	1.17685	13.2134	0	
0.5600	-0.672488	13.2134	0	
0.5607	-0.336244	9.81247	0	
0.5613	2.10152	8.58591	0	
0.5620	2.68995	7.69387	0	
0.5627	3.32041	4.96199	0	
0.5633	3.61462	1.00355	0	
0.5640	0.88264	-5.74252	0	
0.5647	-1.26091	-15.2205	0	
0.5653	-0.672488	-23.4161	0	
0.5660	-1.55513	-29.8277	0	
0.5667	-0.0420305	-34.7339	0	
0.5673	3.90884	-35.626	0	
0.5680	1.47107	-34.7339	0	
0.5687	-3.69868	-34.3994	0	
0.5693	-1.55513	-32.6153	0	
0.5700	-0.0420305	-28.6011	0	
0.5707	-3.9929	-24.0294	0	
0.5713	-4.32914	-16.1125	0	
0.5720	-2.4798	-6.02129	0	
0.5727	-3.40447	2.17435	0	
0.5733	-1.55513	11.3735	0	
0.5740	2.68995	27.2073	0	
0.5747	2.39574	46.1632	0	
0.5753	1.76528	59.8784	0	
0.5760	3.0262	61.7182	0	
0.5767	2.39574	50.4004	0	
0.5773	2.10152	33.0056	0	
0.5780	4.53929	18.6771	0	
0.5787	4.24508	8.30715	0	
0.5793	2.10152	2.17435	0	
0.5800	2.68995	3.12215	0	
0.5807	5.46396	9.19919	0	
0.5813	5.75818	14.1054	0	
0.5820	4.24508	14.9975	0	
0.5827	3.0262	13.4921	0	
0.5833	3.61462	8.58591	0	
0.5840	4.83351	4.01419	0	
0.5847	3.32041	1.89559	0	
0.5853	0.252183	-5.74252	0	
0.5860	0.252183	-19.4577	0	
0.5867	1.17685	-30.441	0	
0.5873	-1.26091	-42.0375	0	
0.5880	-2.77401	-60.6589	0	
0.5887	-2.18559	-66.4572	0	
0.5893	-3.9929	-44.2119	0	
0.5900	-5.84224	-7.86113	0	
0.5907	-3.40447	28.7684	0	
0.5913	-2.4798	61.997	0	
0.5920	-5.25381	80.3396	0	
0.5927	-3.9929	74.8201	0	
0.5933	-0.672488	41.8703	0	
0.5940	-1.89137	-6.96908	0	
0.5947	-2.4798	-32.6153	0	
0.5953	0.252183	-21.9108	0	
0.5960	1.17685	-9.08768	0	
0.5967	-0.966701	-8.80892	0	
0.5973	0.252183	-8.80892	0	
0.5980	1.76528	-11.5408	0	
0.5987	0.88264	-15.2205	0	
0.5993	1.76528	-7.86113	0	
0.6000	3.0262	-0.223011	0	
0.6007	1.76528	3.73543	0	
0.6013	0.252183	15.332	0	
0.6020	0.252183	29.0471	0	
0.6027	0.88264	30.6082	0	
0.6033	2.10152	20.517	0	
0.6040	-0.0420305	8.58591	0	
0.6047	-3.40447	2.78763	0	
0.6053	-2.77401	2.17435	0	
0.6060	-2.4798	-0.557527	0	
0.6067	-3.11026	-2.39736	0	
0.6073	-1.55513	-1.78409	0	
0.6080	-2.18559	-3.62392	0	
0.6087	-5.25381	-4.51597	0	
0.6093	-3.9929	-1.44957	0	
0.6100	-3.11026	0.669032	0	
0.6107	-5.54803	1.00355	0	
0.6113	-6.13645	2.78763	0	
0.6120	-5.25381	4.34871	0	
0.6127	-6.13645	5.85403	0	
0.6133	-4.32914	6.46731	0	
0.6140	-2.18559	4.62747	0	
0.6147	-2.4798	2.17435	0	
0.6153	-1.89137	0.390269	0	
0.6160	-0.966701	-1.17081	0	
0.6167	-0.966701	-2.39736	0	
0.6173	0.546396	-5.12925	0	
0.6180	1.17685	-12.7674	0	
0.6187	0.252183	-18.8444	0	
0.6193	1.47107	-19.1789	0	
0.6200	3.90884	-18.2311	0	
0.6207	2.10152	-19.7922	0	
0.6213	0.252183	-22.5241	0	
0.6220	1.17685	-24.3639	0	
0.6227	2.10152	-22.5241	0	
0.6233	0.88264	-17.3391	0	
0.6240	-0.336244	-15.2205	0	
0.6247	-0.336244	-14.886	0	
0.6253	-0.672488	-12.4328	0	
0.6260	-3.69868	-10.3142	0	
0.6267	-4.91757	-10.593	0	
0.6273	-1.55513	-10.9275	0	
0.6280	-1.55513	-9.70096	0	
0.6287	-5.54803	-8.47441	0	
0.6293	-5.25381	-7.58236	0	
0.6300	-2.77401	-4.51597	0	
0.6307	-4.32914	-1.44957	0	
0.6313	-3.9929	-1.44957	0	
0.6320	-1.89137	-2.06285	0	
0.6327	-4.32914	-1.44957	0	
0.6333	-6.13645	-0.557527	0	
0.6340	-3.40447	1.28231	0	
0.6347	-1.89137	7.69387	0	
0.6353	-3.40447	14.7187	0	
0.6360	-1.26091	16.8373	0	
0.6367	2.10152	16.5585	0	
0.6373	2.39574	17.1718	0	
0.6380	1.17685	18.6771	0	
0.6387	1.76528	22.6356	0	
0.6393	2.10152	25.9807	0	
0.6400	2.10152	24.4754	0	
0.6407	2.39574	19.5692	0	
0.6413	2.68995	13.2134	0	
0.6420	4.24508	2.17435	0	
0.6427	6.97706	-13.3806	0	
0.6433	6.68285	-29.8277	0	
0.6440	3.0262	-42.0375	0	
0.6447	3.0262	-44.7694	0	
0.6453	4.83351	-42.6508	0	
0.6460	3.32041	-41.7587	0	
0.6467	1.47107	-37.187	0	
0.6473	1.76528	-26.2038	0	
0.6480	0.88264	-16.7258	0	
0.6487	-0.336244	-7.86113	0	
0.6493	1.17685	0.390269	0	
0.6500	1.47107	0.669032	0	
0.6507	0.546396	-0.223011	0	
0.6513	0.546396	6.80183	0	
0.6520	-0.672488	11.039	0	
0.6527	-2.4798	8.30715	0	
0.6533	-2.4798	7.08059	0	
0.6540	-1.55513	6.80183	0	
0.6547	-0.0420305	4.01419	0	
0.6553	1.17685	3.40091	0	
0.6560	1.47107	4.01419	0	
0.6567	1.17685	4.01419	0	
0.6573	2.10152	3.73543	0	
0.6580	2.68995	2.50887	0	
0.6587	3.0262	4.34871	0	
0.6593	3.61462	8.30715	0	
0.6600	2.39574	7.69387	0	
0.6607	3.0262	5.85403	0	
0.6613	4.53929	5.85403	0	
0.6620	2.10152	8.30715	0	
0.6627	0.88264	14.9975	0	
0.6633	3.90884	16.5585	0	
0.6640	4.83351	9.19919	0	
0.6647	1.76528	7.08059	0	
0.6653	0.252183	8.92043	0	
0.6660	0.252183	3.12215	0	
0.6667	-0.336244	-2.39736	0	
0.6673	-0.672488	-5.12925	0	
0.6680	-2.18559	-11.5408	0	
0.6687	-3.40447	-18.8444	0	
0.6693	-5.54803	-33.1728	0	
0.6700	-7.06112	-67.9625	0	
0.6707	-6.13645	-100.355	0	
0.6713	-4.32914	-102.195	0	
0.6720	-4.62335	-75.6006	0	
0.6727	-4.32914	-29.8277	0	
0.6733	-2.4798	19.9037	0	
0.6740	-1.55513	47.0552	0	
0.6747	-1.89137	48.2818	0	
0.6753	-2.18559	53.4668	0	
0.6760	-1.55513	76.6599	0	
0.6767	-0.672488	91.6016	0	
0.6773	-0.336244	72.0882	0	
0.6780	1.47107	36.072	0	
0.6787	3.90884	19.2904	0	
0.6793	3.32041	21.1303	0	
0.6800	3.32041	20.517	0	
0.6807	5.46396	18.6771	0	
0.6813	4.83351	23.2489	0	
0.6820	3.32041	21.7435	0	
0.6827	4.24508	12.6001	0	
0.6833	3.32041	12.2656	0	
0.6840	0.546396	20.7957	0	
0.6847	0.88264	21.409	0	
0.6853	0.546396	14.9975	0	
0.6860	-2.18559	11.9868	0	
0.6867	-2.77401	8.30715	0	
0.6873	-2.4798	2.17435	0	
0.6880	-2.77401	0.390269	0	
0.6887	-2.18559	1.28231	0	
0.6893	-1.55513	1.00355	0	
0.6900	-3.69868	-0.557527	0	
0.6907	-5.25381	-1.17081	0	
0.6913	-3.9929	-1.44957	0	
0.6920	-3.40447	-0.557527	0	
0.6927	-4.32914	0.390269	0	
0.6933	-3.11026	-1.44957	0	
0.6940	-1.89137	-2.39736	0	
0.6947	-3.40447	0.669032	0	
0.6953	-3.9929	-0.83629	0	
0.6960	-1.26091	-6.02129	0	
0.6967	-0.0420305	-3.62392	0	
0.6973	0.252183	0.0557527	0	
0.6980	3.61462	-5.12925	0	
0.6987	3.90884	-10.593	0	
0.6993	0.88264	-9.70096	0	
0.7000	0.88264	-8.47441	0	
0.7007	1.76528	-6.02129	0	
0.7013	1.47107	-2.39736	0	
0.7020	3.61462	-3.28941	0	
0.7027	5.12772	-6.3558	0	
0.7033	2.10152	-6.96908	0	
0.7040	2.10152	-8.80892	0	
0.7047	5.75818	-10.593	0	
0.7053	5.75818	-9.08768	0	
0.7060	3.0262	-6.02129	0	
0.7067	2.10152	-6.02129	0	
0.7073	0.252183	-13.0461	0	
0.7080	-2.18559	-23.4161	0	
0.7087	-1.89137	-17.9524	0	
0.7093	-0.966701	4.96199	0	
0.7100	-1.26091	18.6771	0	
0.7107	-1.55513	12.2656	0	
0.7113	-0.0420305	2.17435	0	
0.7120	1.17685	-1.44957	0	
0.7127	0.546396	-5.12925	0	
0.7133	-0.336244	-8.80892	0	
0.7140	1.17685	-6.96908	0	
0.7147	2.68995	-2.67613	0	
0.7153	1.76528	-2.67613	0	
0.7160	1.17685	-5.40801	0	
0.7167	2.10152	-6.3558	0	
0.7173	3.0262	-5.12925	0	
0.7180	3.90884	-3.90269	0	
0.7187	2.10152	-3.90269	0	
0.7193	0.252183	-4.18145	0	
0.7200	1.47107	-2.06285	0	
0.7207	2.10152	1.89559	0	
0.7213	-0.0420305	3.12215	0	
0.7220	1.17685	1.00355	0	
0.7227	2.10152	0.390269	0	
0.7233	-1.55513	1.61683	0	
0.7240	-1.89137	-0.557527	0	
0.7247	1.17685	-4.51597	0	
0.7253	-0.336244	-7.24785	0	
0.7260	-1.55513	-9.08768	0	
0.7267	-0.0420305	-12.1541	0	
0.7273	-3.40447	-15.2205	0	
0.7280	-6.13645	-14.886	0	
0.7287	-3.40447	-11.5408	0	
0.7293	-2.4798	-9.08768	0	
0.7300	-3.9929	-6.96908	0	
0.7307	-2.4798	-0.83629	0	
0.7313	-3.11026	6.46731	0	
0.7320	-6.76691	7.97263	0	
0.7327	-7.06112	7.08059	0	
0.7333	-5.54803	7.69387	0	
0.7340	-5.84224	4.34871	0	
0.7347	-5.54803	-6.96908	0	
0.7353	-4.32914	-17.9524	0	
0.7360	-2.4798	-22.8028	0	
0.7367	-0.336244	-23.4161	0	
0.7373	-0.336244	-21.5763	0	
0.7380	-1.89137	-14.886	0	
0.7387	-1.26091	-7.86113	0	
0.7393	0.252183	-5.40801	0	
0.7400	0.252183	-4.51597	0	
0.7407	-0.336244	-0.557527	0	
0.7413	0.88264	2.17435	0	
0.7420	2.10152	4.01419	0	
0.7427	2.10152	8.92043	0	
0.7433	0.88264	10.147	0	
0.7440	0.546396	9.19919	0	
0.7447	1.17685	12.2656	0	
0.7453	0.546396	14.1054	0	
0.7460	-1.26091	14.7187	0	
0.7467	-1.26091	15.6107	0	
0.7473	-1.55513	0.390269	0	
0.7480	-3.11026	-27.9878	0	
0.7487	-5.25381	-35.9605	0	
0.7493	-4.91757	-19.7922	0	
0.7500	-1.89137	-7.86113	0	
0.7507	-0.672488	-5.74252	0	
0.7513	-2.4798	-3.62392	0	
0.7520	-3.40447	-2.39736	0	
0.7527	-3.11026	-4.18145	0	
0.7533	-2.4798	-4.18145	0	
0.7540	-0.336244	1.61683	0	
0.7547	3.61462	7.08059	0	
0.7553	4.83351	4.62747	0	
0.7560	3.0262	-1.78409	0	
0.7567	-0.672488	-7.86113	0	
0.7573	-1.89137	-15.2205	0	
0.7580	0.88264	-17.9524	0	
0.7587	3.0262	-13.6594	0	
0.7593	2.10152	-13.6594	0	
0.7600	1.17685	-16.3913	0	
0.7607	2.39574	-18.2311	0	
0.7613	3.90884	-24.6427	0	
0.7620	4.24508	-28.3224	0	
0.7627	2.68995	-25.5905	0	
0.7633	0.252183	-25.8692	0	
0.7640	0.252183	-8.19564	0	
0.7647	0.252183	43.3756	0	
0.7653	-1.89137	86.7511	0	
0.7660	-1.55513	87.0299	0	
0.7667	1.17685	65.0634	0	
0.7673	0.252183	45.5499	0	
0.7680	-2.77401	30.6082	0	
0.7687	-2.18559	21.1303	0	
0.7693	-0.966701	17.4506	0	
0.7700	-1.89137	13.2134	0	
0.7707	-2.18559	6.80183	0	
0.7713	-1.55513	-1.44957	0	
0.7720	-2.77401	-10.9275	0	
0.7727	-2.18559	-17.3391	0	
0.7733	0.546396	-20.6842	0	
0.7740	1.17685	-27.9878	0	
0.7747	0.252183	-36.2392	0	
0.7753	0.252183	-38.0791	0	
0.7760	-0.0420305	-33.5074	0	
0.7767	0.252183	-14.2727	0	
0.7773	2.10152	24.4754	0	
0.7780	3.0262	50.4004	0	
0.7787	4.83351	39.7517	0	
0.7793	7.56549	21.7435	0	
0.7800	5.75818	14.3842	0	
0.7807	2.10152	5.57527	0	
0.7813	3.61462	4.62747	0	
0.7820	3.90884	19.9037	0	
0.7827	2.10152	25.9807	0	
0.7833	3.0262	12.8789	0	
0.7840	2.68995	1.28231	0	
0.7847	-0.672488	0.390269	0	
0.7853	0.252183	4.34871	0	
0.7860	2.10152	7.69387	0	
0.7867	-1.26091	5.24075	0	
0.7873	-3.40447	4.01419	0	
0.7880	-0.672488	15.332	0	
0.7887	1.17685	28.7684	0	
0.7893	-1.89137	28.7684	0	
0.7900	-5.54803	23.8621	0	
0.7907	-4.32914	21.1303	0	
0.7913	-0.966701	15.332	0	
0.7920	-1.89137	7.97263	0	
0.7927	-3.69868	2.78763	0	
0.7933	-1.55513	-6.96908	0	
0.7940	0.546396	-20.4055	0	
0.7947	-0.672488	-28.9356	0	
0.7953	-1.89137	-32.6153	0	
0.7960	-0.966701	-31.3888	0	
0.7967	-0.336244	-21.5763	0	
0.7973	-0.0420305	-11.5408	0	
0.7980	2.39574	-8.80892	0	
0.7987	4.83351	-1.17081	0	
0.7993	3.0262	11.9868	0	
0.8000	1.17685	17.7851	0	
0.8007	2.68995	17.1718	0	
0.8013	4.53929	14.9975	0	
0.8020	4.53929	7.97263	0	
0.8027	4.53929	-1.78409	0	
0.8033	2.10152	-9.08768	0	
0.8040	-1.55513	-13.6594	0	
0.8047	-2.77401	-17.0046	0	
0.8053	-0.966701	-18.8444	0	
0.8060	-0.0420305	-18.5656	0	
0.8067	-1.55513	-15.2205	0	
0.8073	-2.77401	-9.97973	0	
0.8080	-1.89137	-6.3558	0	
0.8087	-2.77401	-4.18145	0	
0.8093	-5.54803	-1.44957	0	
0.8100	-4.32914	1.28231	0	
0.8107	-0.0420305	2.50887	0	
0.8113	-1.26091	4.96199	0	
0.8120	-4.32914	9.53371	0	
0.8127	-2.4798	12.2656	0	
0.8133	-1.89137	8.92043	0	
0.8140	-3.69868	4.62747	0	
0.8147	-1.55513	3.12215	0	
0.8153	0.252183	4.01419	0	
0.8160	-3.69868	4.62747	0	
0.8167	-4.32914	3.12215	0	
0.8173	0.546396	0.390269	0	
0.8180	2.10152	1.61683	0	
0.8187	0.88264	-2.39736	0	
0.8193	0.252183	-25.5905	0	
0.8200	-0.336244	-53.6341	0	
0.8207	1.47107	-56.7005	0	
0.8213	2.39574	-38.9711	0	
0.8220	0.252183	-29.2144	0	
0.8227	1.47107	-32.6153	0	
0.8233	4.53929	-31.6675	0	
0.8240	2.10152	-17.6178	0	
0.8247	0.252183	-1.17081	0	
0.8253	1.76528	8.58591	0	
0.8260	1.76528	10.4257	0	
0.8267	0.252183	5.57527	0	
0.8273	-0.966701	-0.557527	0	
0.8280	-3.40447	-0.223011	0	
0.8287	-3.40447	1.00355	0	
0.8293	-1.55513	-1.44957	0	
0.8300	-3.40447	-1.78409	0	
0.8307	-5.84224	-1.44957	0	
0.8313	-5.25381	-2.06285	0	
0.8320	-2.4798	3.12215	0	
0.8327	-1.55513	6.46731	0	
0.8333	-3.69868	-1.44957	0	
0.8340	-4.32914	-9.70096	0	
0.8347	-1.26091	-9.4222	0	
0.8353	-0.966701	-9.4222	0	
0.8360	-2.4798	-11.5408	0	
0.8367	-0.336244	-12.7674	0	
0.8373	1.17685	-14.6072	0	
0.8380	-0.336244	-20.6842	0	
0.8387	1.47107	-29.2144	0	
0.8393	5.46396	-35.3472	0	
0.8400	5.46396	-43.2641	0	
0.8407	3.90884	-55.4739	0	
0.8413	3.0262	-41.7587	0	
0.8420	3.0262	16.8373	0	
0.8427	3.61462	78.1652	0	
0.8433	3.90884	95.8946	0	
0.8440	3.0262	77.2732	0	
0.8447	0.252183	49.7871	0	
0.8453	0.252183	28.7684	0	
0.8460	3.0262	20.517	0	
0.8467	1.17685	17.7851	0	
0.8473	-1.55513	14.1054	0	
0.8480	0.252183	14.7187	0	
0.8487	-0.336244	17.1718	0	
0.8493	-3.9929	17.4506	0	
0.8500	-2.4798	17.4506	0	
0.8507	-0.672488	16.224	0	
0.8513	-3.9929	13.2134	0	
0.8520	-5.25381	10.147	0	
0.8527	-3.11026	6.46731	0	
0.8533	-3.40447	3.12215	0	
0.8540	-2.77401	2.78763	0	
0.8547	-1.26091	1.28231	0	
0.8553	-2.4798	-3.28941	0	
0.8560	-0.672488	-4.79473	0	
0.8567	0.88264	-1.17081	0	
0.8573	-3.11026	3.12215	0	
0.8580	-3.69868	4.34871	0	
0.8587	1.17685	4.01419	0	
0.8593	1.76528	2.17435	0	
0.8600	-0.0420305	1.61683	0	
0.8607	0.88264	1.00355	0	
0.8613	0.88264	-6.02129	0	
0.8620	0.546396	-19.7922	0	
0.8627	1.17685	-38.4136	0	
0.8633	0.252183	-57.927	0	
0.8640	-0.0420305	-64.0041	0	
0.8647	-0.336244	-38.0791	0	
0.8653	-2.4798	3.40091	0	
0.8660	-2.4798	17.1718	0	
0.8667	-2.18559	0.669032	0	
0.8673	-3.9929	-13.6594	0	
0.8680	-2.4798	-18.5656	0	
0.8687	-0.966701	-23.4161	0	
0.8693	-5.25381	-22.1896	0	
0.8700	-6.13645	-13.6594	0	
0.8707	-3.40447	-8.80892	0	
0.8713	-4.32914	-6.3558	0	
0.8720	-3.9929	0.390269	0	
0.8727	-0.336244	5.85403	0	
0.8733	0.252183	4.01419	0	
0.8740	0.88264	2.17435	0	
0.8747	3.0262	3.40091	0	
0.8753	1.17685	11.3735	0	
0.8760	-1.55513	27.2073	0	
0.8767	1.17685	43.9889	0	
0.8773	4.53929	53.188	0	
0.8780	3.61462	53.8013	0	
0.8787	3.0262	47.0552	0	
0.8793	4.83351	36.964	0	
0.8800	4.83351	30.887	0	
0.8807	3.61462	28.7684	0	
0.8813	3.32041	25.0887	0	
0.8820	3.90884	23.5834	0	
0.8827	4.53929	22.0223	0	
0.8833	3.61462	14.3842	0	
0.8840	2.39574	6.46731	0	
0.8847	2.39574	-9.70096	0	
0.8853	3.0262	-40.1977	0	
0.8860	2.68995	-56.3659	0	
0.8867	3.32041	-39.3056	0	
0.8873	2.10152	-19.7922	0	
0.8880	-1.55513	-13.3806	0	
0.8887	-1.89137	-7.86113	0	
0.8893	-0.336244	-4.18145	0	
0.8900	-0.966701	-6.3558	0	
0.8907	-1.55513	-6.63457	0	
0.8913	-0.966701	-7.86113	0	
0.8920	-1.26091	-10.593	0	
0.8927	-0.672488	-6.96908	0	
0.8933	1.17685	-3.62392	0	
0.8940	1.76528	-4.51597	0	
0.8947	1.47107	-3.01064	0	
0.8953	2.10152	-2.67613	0	
0.8960	1.47107	-9.4222	0	
0.8967	1.47107	-13.3806	0	
0.8973	2.39574	-10.3142	0	
0.8980	1.76528	-4.79473	0	
0.8987	-0.672488	-2.06285	0	
0.8993	0.252183	-2.06285	0	
0.9000	3.90884	-2.39736	0	
0.9007	3.90884	-0.223011	0	
0.9013	1.17685	3.12215	0	
0.9020	0.88264	4.01419	0	
0.9027	1.76528	1.61683	0	
0.9033	0.546396	0.0557527	0	
0.9040	-1.26091	-2.39736	0	
0.9047	-2.4798	-8.19564	0	
0.9053	-1.55513	-11.8196	0	
0.9060	0.252183	-8.80892	0	
0.9067	-1.89137	-4.51597	0	
0.9073	-6.4727	-4.18145	0	
0.9080	-5.54803	-4.18145	0	
0.9087	-1.26091	-4.18145	0	
0.9093	-0.0420305	-6.02129	0	
0.9100	-0.966701	-6.02129	0	
0.9107	-1.55513	-4.18145	0	
0.9113	-1.26091	-3.28941	0	
0.9120	-0.672488	-2.06285	0	
0.9127	-3.40447	0.0557527	0	
0.9133	-4.32914	0.390269	0	
0.9140	-2.18559	0.0557527	0	
0.9147	-1.26091	0.669032	0	
0.9153	0.252183	1.28231	0	
0.9160	1.76528	2.17435	0	
0.9167	-0.966701	3.12215	0	
0.9173	-2.4798	2.17435	0	
0.9180	2.10152	-1.17081	0	
0.9187	2.68995	-3.62392	0	
0.9193	-0.672488	-2.67613	0	
0.9200	-0.0420305	-3.01064	0	
0.9207	2.39574	-9.97973	0	
0.9213	3.32041	-17.0046	0	
0.9220	3.90884	-17.0046	0	
0.9227	3.0262	-11.8196	0	
0.9233	2.39574	-8.19564	0	
0.9240	4.53929	-9.70096	0	
0.9247	3.90884	-14.6072	0	
0.9253	0.546396	-13.9939	0	
0.9260	-0.336244	-10.9275	0	
0.9267	-0.336244	-17.0046	0	
0.9273	-2.77401	-19.7922	0	
0.9280	-3.11026	-13.0461	0	
0.9287	-0.672488	-14.886	0	
0.9293	-1.55513	-10.593	0	
0.9300	-3.40447	29.0471	0	
0.9307	-3.40447	78.7785	0	
0.9313	-3.69868	94.3893	0	
0.9320	-3.40447	79.3918	0	
0.9327	-0.672488	59.2651	0	
0.9333	-1.55513	47.6685	0	
0.9340	-4.62335	42.4835	0	
0.9347	-1.89137	31.5003	0	
0.9353	1.47107	16.224	0	
0.9360	-0.672488	8.92043	0	
0.9367	-0.336244	1.89559	0	
0.9373	3.0262	-8.47441	0	
0.9380	2.10152	-10.593	0	
0.9387	0.252183	-8.80892	0	
0.9393	2.10152	-11.8196	0	
0.9400	3.0262	-12.1541	0	
0.9407	2.68995	-7.86113	0	
0.9413	2.68995	-7.58236	0	
0.9420	3.0262	-9.70096	0	
0.9427	3.90884	-7.86113	0	
0.9433	4.83351	-5.74252	0	
0.9440	5.12772	-8.47441	0	
0.9447	4.83351	-13.0461	0	
0.9453	3.0262	-12.4328	0	
0.9460	1.47107	-6.02129	0	
0.9467	2.68995	-0.557527	0	
0.9473	3.0262	3.12215	0	
0.9480	-0.0420305	2.50887	0	
0.9487	-0.0420305	-3.90269	0	
0.9493	0.88264	-6.96908	0	
0.9500	-2.4798	-3.28941	0	
0.9507	-2.4798	0.390269	0	
0.9513	1.76528	5.24075	0	
0.9520	-0.672488	11.6523	0	
0.9527	-4.62335	9.53371	0	
0.9533	-2.77401	6.80183	0	
0.9540	-3.11026	9.53371	0	
0.9547	-4.32914	-7.86113	0	
0.9553	1.17685	-46.3305	0	
0.9560	4.83351	-61.8855	0	
0.9567	1.17685	-48.4491	0	
0.9573	0.252183	-39.9189	0	
0.9580	2.10152	-27.3746	0	
0.9587	-0.336244	7.4151	0	
0.9593	-1.55513	28.1551	0	
0.9600	1.17685	12.8789	0	
0.9607	1.47107	1.00355	0	
0.9613	-0.0420305	14.1054	0	
0.9620	-0.966701	25.0887	0	
0.9627	-3.69868	22.0223	0	
0.9633	-5.25381	14.9975	0	
0.9640	-1.55513	7.69387	0	
0.9647	1.17685	1.61683	0	
0.9653	-0.336244	2.17435	0	
0.9660	-0.336244	3.12215	0	
0.9667	1.17685	2.17435	0	
0.9673	1.17685	2.50887	0	
0.9680	-0.966701	1.89559	0	
0.9687	-2.4798	-0.557527	0	
0.9693	-0.966701	-0.223011	0	
0.9700	2.10152	-1.44957	0	
0.9707	-0.336244	-6.63457	0	
0.9713	-4.32914	-9.97973	0	
0.9720	-2.4798	-12.7674	0	
0.9727	-1.26091	-15.778	0	
0.9733	-3.40447	-14.2727	0	
0.9740	-1.26091	-11.5408	0	
0.9747	0.88264	-12.4328	0	
0.9753	-3.40447	-10.593	0	
0.9760	-2.77401	-6.63457	0	
0.9767	3.0262	-5.74252	0	
0.9773	3.32041	-1.44957	0	
0.9780	1.17685	4.34871	0	
0.9787	3.0262	0.669032	0	
0.9793	3.61462	-4.79473	0	
0.9800	2.10152	-2.39736	0	
0.9807	3.32041	2.17435	0	
0.9813	2.68995	10.147	0	
0.9820	1.17685	23.2489	0	
0.9827	3.32041	25.702	0	
0.9833	4.53929	15.332	0	
0.9840	3.0262	9.81247	0	
0.9847	2.39574	7.08059	0	
0.9853	1.17685	-1.78409	0	
0.9860	0.546396	-3.90269	0	
0.9867	2.10152	4.01419	0	
0.9873	0.88264	7.08059	0	
0.9880	-3.40447	5.85403	0	
0.9887	-5.84224	7.08059	0	
0.9893	-5.25381	8.58591	0	
0.9900	-3.40447	9.81247	0	
0.9907	-3.9929	11.3735	0	
0.9913	-6.13645	8.92043	0	
0.9920	-4.91757	7.08059	0	
0.9927	-2.77401	8.58591	0	
0.9933	-5.54803	5.57527	0	
0.9940	-6.4727	-1.44957	0	
0.9947	-3.40447	-5.74252	0	
0.9953	-2.4798	-6.63457	0	
0.9960	-1.89137	-8.19564	0	
0.9967	1.17685	-9.4222	0	
0.9973	1.17685	-7.86113	0	
0.9980	0.88264	-8.19564	0	
0.9987	4.53929	-14.2727	0	
0.9993	3.90884	-18.2311	0	
1.0000	0.252183	-15.778	0	
1.0007	2.10152	-14.2727	0	
1.0013	4.83351	-17.9524	0	
1.0020	3.0262	-23.7506	0	
1.0027	2.68995	-31.6675	0	
1.0033	3.0262	-41.7587	0	
1.0040	1.17685	-49.0623	0	
1.0047	0.252183	-53.6341	0	
1.0053	-0.336244	-42.6508	0	
1.0060	-1.55513	-0.223011	0	
1.0067	-1.26091	50.7349	0	
1.0073	0.252183	70.2484	0	
1.0080	-1.55513	56.1987	0	
1.0087	-6.13645	32.7268	0	
1.0093	-7.98579	15.6107	0	
1.0100	-7.35534	7.97263	0	
1.0107	-5.54803	5.57527	0	
1.0113	-4.32914	4.01419	0	
1.0120	-4.32914	7.08059	0	
1.0127	-4.32914	10.147	0	
1.0133	-3.69868	8.58591	0	
1.0140	-3.69868	9.53371	0	
1.0147	-3.11026	9.53371	0	
1.0153	-0.672488	2.17435	0	
1.0160	1.17685	4.01419	0	
1.0167	1.17685	13.2134	0	
1.0173	1.17685	2.78763	0	
1.0180	3.32041	-13.3806	0	
1.0187	5.75818	-5.40801	0	
1.0193	4.53929	7.4151	0	
1.0200	3.0262	1.89559	0	
1.0207	3.0262	-5.40801	0	
1.0213	1.47107	-4.18145	0	
1.0220	-0.0420305	-3.62392	0	
1.0227	0.88264	-7.58236	0	
1.0233	0.546396	-12.1541	0	
1.0240	-0.0420305	-11.5408	0	
1.0247	0.546396	-6.3558	0	
1.0253	-1.26091	-3.90269	0	
1.0260	-3.40447	-1.44957	0	
1.0267	-2.18559	7.69387	0	
1.0273	-0.672488	12.8789	0	
1.0280	-0.336244	11.039	0	
1.0287	0.252183	12.8789	0	
1.0293	-1.89137	18.6771	0	
1.0300	-5.25381	20.517	0	
1.0307	-3.40447	15.6107	0	
1.0313	-1.55513	5.85403	0	
1.0320	-3.11026	1.28231	0	
1.0327	-2.4798	5.85403	0	
1.0333	0.252183	8.30715	0	
1.0340	-0.672488	6.18855	0	
1.0347	-1.26091	7.69387	0	
1.0353	1.17685	7.69387	0	
1.0360	2.10152	3.12215	0	
1.0367	0.252183	0.669032	0	
1.0373	-0.0420305	-2.06285	0	
1.0380	1.17685	-6.02129	0	
1.0387	2.10152	-6.02129	0	
1.0393	2.10152	-8.80892	0	
1.0400	3.61462	-13.0461	0	
1.0407	5.75818	-16.3913	0	
1.0413	4.83351	-27.9878	0	
1.0420	0.252183	-38.6923	0	
1.0427	-2.18559	-25.5905	0	
1.0433	-0.0420305	-3.01064	0	
1.0440	2.68995	3.40091	0	
1.0447	1.17685	0.390269	0	
1.0453	-0.966701	-1.17081	0	
1.0460	0.252183	-3.01064	0	
1.0467	-0.672488	-5.12925	0	
1.0473	-3.11026	-5.40801	0	
1.0480	-3.11026	-5.12925	0	
1.0487	-2.77401	-6.3558	0	
1.0493	-4.32914	-11.5408	0	
1.0500	-3.40447	-16.1125	0	
1.0507	-2.18559	-18.8444	0	
1.0513	-2.77401	-26.2038	0	
1.0520	-1.89137	-33.5074	0	
1.0527	-0.966701	-36.5737	0	
1.0533	-3.11026	-34.1206	0	
1.0540	-2.18559	-9.70096	0	
1.0547	1.76528	35.1799	0	
1.0553	1.17685	58.373	0	
1.0560	0.252183	44.3234	0	
1.0567	3.0262	24.4754	0	
1.0573	2.10152	16.5585	0	
1.0580	0.88264	13.4921	0	
1.0587	4.83351	11.3735	0	
1.0593	5.75818	7.69387	0	
1.0600	2.68995	4.01419	0	
1.0607	4.83351	4.01419	0	
1.0613	7.56549	4.01419	0	
1.0620	5.75818	1.28231	0	
1.0627	4.53929	2.17435	0	
1.0633	3.90884	7.69387	0	
1.0640	2.10152	12.2656	0	
1.0647	2.10152	14.9975	0	
1.0653	2.39574	17.7851	0	
1.0660	1.17685	17.7851	0	
1.0667	0.88264	14.9975	0	
1.0673	-1.55513	15.332	0	
1.0680	-6.13645	15.332	0	
1.0687	-5.25381	9.53371	0	
1.0693	-4.32914	4.62747	0	
1.0700	-8.57422	4.01419	0	
1.0707	-8.91047	-1.78409	0	
1.0713	-4.32914	-12.1541	0	
1.0720	-3.11026	-19.7922	0	
1.0727	-3.40447	-27.3746	0	
1.0733	-2.4798	-30.441	0	
1.0740	-2.4798	-21.0188	0	
1.0747	-1.55513	-11.8196	0	
1.0753	-0.336244	-13.0461	0	
1.0760	0.252183	-12.4328	0	
1.0767	1.76528	-6.3558	0	
1.0773	2.68995	-6.3558	0	
1.0780	1.17685	-10.593	0	
1.0787	2.10152	-9.70096	0	
1.0793	4.83351	-7.86113	0	
1.0800	3.0262	-6.63457	0	
1.0807	0.546396	-3.62392	0	
1.0813	0.88264	-5.12925	0	
1.0820	-0.0420305	-13.0461	0	
1.0827	-2.18559	-16.1125	0	
1.0833	-2.18559	-15.2205	0	
1.0840	-1.55513	-17.9524	0	
1.0847	-0.0420305	-20.4055	0	
1.0853	1.17685	-24.0294	0	
1.0860	-0.672488	-34.1206	0	
1.0867	-2.4798	-39.5844	0	
1.0873	-3.9929	-41.1455	0	
1.0880	-5.25381	-46.3305	0	
1.0887	-6.13645	-28.9356	0	
1.0893	-5.84224	26.3153	0	
1.0900	-3.40447	75.7679	0	
1.0907	0.252183	88.591	0	
1.0913	0.88264	86.1379	0	
1.0920	-0.966701	76.9944	0	
1.0927	-0.966701	44.9366	0	
1.0933	0.546396	0.390269	0	
1.0940	0.252183	-22.5241	0	
1.0947	-0.672488	-14.2727	0	
1.0953	-0.966701	-1.44957	0	
1.0960	-1.55513	-4.51597	0	
1.0967	0.88264	-10.9275	0	
1.0973	4.53929	-10.593	0	
1.0980	3.61462	-12.4328	0	
1.0987	1.17685	-15.4992	0	
1.0993	2.39574	-13.9939	0	
1.1000	3.90884	-12.7674	0	
1.1007	3.90884	-11.5408	0	
1.1013	5.75818	-4.79473	0	
1.1020	5.75818	-0.83629	0	
1.1027	3.90884	-4.51597	0	
1.1033	3.90884	-3.01064	0	
1.1040	3.90884	4.01419	0	
1.1047	1.47107	8.58591	0	
1.1053	1.17685	15.9453	0	
1.1060	2.39574	22.3568	0	
1.1067	0.252183	17.7851	0	
1.1073	-2.4798	12.2656	0	
1.1080	-3.40447	13.2134	0	
1.1087	-5.84224	10.7603	0	
1.1093	-6.76691	5.85403	0	
1.1100	-4.32914	8.58591	0	
1.1107	-3.40447	14.3842	0	
1.1113	-4.91757	14.3842	0	
1.1120	-4.91757	11.9868	0	
1.1127	-3.69868	12.8789	0	
1.1133	-2.4798	14.3842	0	
1.1140	-1.55513	11.3735	0	
1.1147	0.252183	3.12215	0	
1.1153	3.61462	-6.96908	0	
1.1160	4.24508	-15.778	0	
1.1167	2.10152	-18.8444	0	
1.1173	1.17685	-17.9524	0	
1.1180	1.17685	-21.0188	0	
1.1187	0.252183	-22.5241	0	
1.1193	2.39574	-12.4328	0	
1.1200	3.90884	-0.557527	0	
1.1207	2.39574	0.390269	0	
1.1213	2.39574	-2.39736	0	
1.1220	2.68995	-3.62392	0	
1.1227	0.252183	-5.12925	0	
1.1233	1.17685	-5.12925	0	
1.1240	3.0262	-3.28941	0	
1.1247	1.17685	-3.62392	0	
1.1253	-0.966701	-5.12925	0	
1.1260	-0.966701	-6.96908	0	
1.1267	-0.966701	-10.593	0	
1.1273	0.88264	-15.2205	0	
1.1280	2.10152	-15.2205	0	
1.1287	-0.966701	-11.5408	0	
1.1293	-3.69868	-10.593	0	
1.1300	-3.40447	-13.6594	0	
1.1307	-2.4798	-13.6594	0	
1.1313	-1.55513	-12.4328	0	
1.1320	-2.18559	-13.6594	0	
1.1327	-4.32914	-12.7674	0	
1.1333	-3.40447	-8.80892	0	
1.1340	-0.966701	-7.24785	0	
1.1347	-1.55513	-4.51597	0	
1.1353	-3.40447	-0.557527	0	
1.1360	-2.4798	-4.51597	0	
1.1367	0.88264	-9.70096	0	
1.1373	3.90884	-4.79473	0	
1.1380	5.12772	12.2656	0	
1.1387	3.90884	43.7101	0	
1.1393	1.17685	69.9696	0	
1.1400	1.17685	61.3837	0	
1.1407	2.68995	32.7268	0	
1.1413	2.10152	12.8789	0	
1.1420	0.252183	-1.44957	0	
1.1427	0.252183	-11.5408	0	
1.1433	1.17685	-10.3142	0	
1.1440	1.47107	-5.12925	0	
1.1447	2.10152	-3.01064	0	
1.1453	0.88264	0.669032	0	
1.1460	-0.672488	1.61683	0	
1.1467	-0.0420305	-0.223011	0	
1.1473	-0.336244	1.61683	0	
1.1480	-1.89137	3.12215	0	
1.1487	-0.672488	0.669032	0	
1.1493	1.76528	-0.557527	0	
1.1500	0.252183	1.28231	0	
1.1507	-1.55513	3.73543	0	
1.1513	-0.672488	4.01419	0	
1.1520	0.252183	0.0557527	0	
1.1527	-0.966701	-1.78409	0	
1.1533	-1.55513	1.28231	0	
1.1540	-1.55513	1.89559	0	
1.1547	-0.672488	0.390269	0	
1.1553	1.47107	0.0557527	0	
1.1560	3.61462	1.89559	0	
1.1567	3.0262	6.46731	0	
1.1573	1.76528	10.147	0	
1.1580	2.39574	10.4257	0	
1.1587	3.0262	12.2656	0	
1.1593	2.39574	13.4921	0	
1.1600	2.10152	10.4257	0	
1.1607	3.32041	11.6523	0	
1.1613	4.83351	12.2656	0	
1.1620	3.90884	8.30715	0	
1.1627	1.76528	9.53371	0	
1.1633	0.252183	11.3735	0	
1.1640	2.10152	2.50887	0	
1.1647	3.90884	-4.18145	0	
1.1653	2.10152	-12.4328	0	
1.1660	-0.336244	-44.7694	0	
1.1667	-0.672488	-81.1201	0	
1.1673	-1.55513	-91.4901	0	
1.1680	-1.55513	-79.8936	0	
1.1687	-0.672488	-43.5986	0	
1.1693	-0.966701	9.81247	0	
1.1700	-3.40447	41.5915	0	
1.1707	-5.25381	43.7101	0	
1.1713	-6.76691	40.9782	0	
1.1720	-7.06112	34.8454	0	
1.1727	-6.13645	22.0223	0	
1.1733	-5.25381	12.6001	0	
1.1740	-4.32914	6.80183	0	
1.1747	-2.77401	1.00355	0	
1.1753	-2.77401	-4.18145	0	
1.1760	-3.40447	-12.4328	0	
1.1767	-2.4798	-18.5656	0	
1.1773	-1.55513	-15.778	0	
1.1780	-0.336244	-13.6594	0	
1.1787	1.76528	-15.4992	0	
1.1793	2.10152	-11.8196	0	
1.1800	1.17685	-4.79473	0	
1.1807	1.76528	-2.67613	0	
1.1813	3.0262	-4.51597	0	
1.1820	2.39574	-3.28941	0	
1.1827	1.76528	4.96199	0	
1.1833	2.10152	13.2134	0	
1.1840	3.0262	17.1718	0	
1.1847	1.17685	22.3568	0	
1.1853	-2.18559	27.2073	0	
1.1860	-3.11026	24.1967	0	
1.1867	-1.55513	13.7709	0	
1.1873	-0.966701	4.01419	0	
1.1880	-1.89137	-1.44957	0	
1.1887	-2.18559	-0.223011	0	
1.1893	-2.77401	3.40091	0	
1.1900	-3.40447	4.01419	0	
1.1907	-3.11026	1.28231	0	
1.1913	-2.4798	-1.44957	0	
1.1920	-3.11026	-2.39736	0	
1.1927	-3.69868	-1.44957	0	
1.1933	-3.9929	1.00355	0	
1.1940	-2.77401	1.89559	0	
1.1947	-2.18559	-1.17081	0	
1.1953	-2.77401	-4.18145	0	
1.1960	-1.26091	-2.39736	0	
1.1967	1.76528	-1.17081	0	
1.1973	2.10152	-4.51597	0	
1.1980	1.17685	-0.557527	0	
1.1987	1.76528	5.24075	0	
1.1993	3.0262	-9.97973	0	
1.2000	3.90884	-33.7861	0	
1.2007	4.83351	-33.5074	0	
1.2013	4.83351	-12.1541	0	
1.2020	3.90884	7.69387	0	
1.2027	3.0262	16.8373	0	
1.2033	2.39574	17.4506	0	
1.2040	2.68995	16.8373	0	
1.2047	3.32041	18.0639	0	
1.2053	2.10152	15.9453	0	
1.2060	0.252183	11.3735	0	
1.2067	-0.672488	8.58591	0	
1.2073	-2.77401	6.18855	0	
1.2080	-4.32914	4.01419	0	
1.2087	-1.89137	1.89559	0	
1.2093	-0.672488	-3.28941	0	
1.2100	-4.32914	-5.12925	0	
1.2107	-6.4727	-3.28941	0	
1.2113	-5.25381	-4.51597	0	
1.2120	-5.25381	-6.63457	0	
1.2127	-7.06112	-4.79473	0	
1.2133	-5.25381	-5.40801	0	
1.2140	-1.89137	-9.70096	0	
1.2147	-0.672488	-11.2063	0	
1.2153	-1.89137	-10.3142	0	
1.2160	-1.55513	-6.02129	0	
1.2167	2.10152	-3.01064	0	
1.2173	2.39574	-5.40801	0	
1.2180	-0.672488	-6.96908	0	
1.2187	1.17685	-3.28941	0	
1.2193	4.83351	-2.67613	0	
1.2200	2.10152	-5.12925	0	
1.2207	1.17685	-3.28941	0	
1.2213	5.12772	-2.67613	0	
1.2220	3.61462	-4.18145	0	
1.2227	-0.0420305	-3.28941	0	
1.2233	2.10152	-3.90269	0	
1.2240	0.546396	-6.02129	0	
1.2247	-3.9929	-4.18145	0	
1.2253	-0.672488	-2.39736	0	
1.2260	2.10152	-4.18145	0	
1.2267	-2.77401	-3.62392	0	
1.2273	-3.40447	-0.557527	0	
1.2280	-0.672488	0.390269	0	
1.2287	-1.89137	2.17435	0	
1.2293	-2.77401	4.96199	0	
1.2300	-2.18559	5.85403	0	
1.2307	-3.40447	5.85403	0	
1.2313	-2.4798	8.58591	0	
1.2320	0.252183	12.2656	0	
1.2327	-1.55513	10.147	0	
1.2333	-3.11026	4.34871	0	
1.2340	-0.0420305	5.85403	0	
1.2347	2.10152	8.58591	0	
1.2353	2.10152	3.73543	0	
1.2360	0.252183	-2.67613	0	
1.2367	-0.336244	-18.8444	0	
1.2373	2.10152	-56.7005	0	
1.2380	4.83351	-84.4653	0	
1.2387	3.0262	-76.8272	0	
1.2393	1.17685	-52.742	0	
1.2400	3.61462	-19.1789	0	
1.2407	3.32041	27.8206	0	
1.2413	-0.0420305	53.8013	0	
1.2420	0.546396	39.4171	0	
1.2427	3.90884	23.2489	0	
1.2433	1.76528	29.3817	0	
1.2440	-1.55513	35.4587	0	
1.2447	-0.0420305	29.9949	0	
1.2453	1.17685	22.3568	0	
1.2460	-1.26091	15.6107	0	
1.2467	-1.89137	9.53371	0	
1.2473	-0.0420305	7.69387	0	
1.2480	0.252183	7.69387	0	
1.2487	-1.89137	6.46731	0	
1.2493	-4.32914	5.57527	0	
1.2500	-3.69868	7.4151	0	
1.2507	-0.672488	7.69387	0	
1.2513	0.88264	5.85403	0	
1.2520	-0.672488	6.46731	0	
1.2527	-2.4798	9.53371	0	
1.2533	-3.69868	8.58591	0	
1.2540	-2.4798	2.50887	0	
1.2547	1.17685	-2.39736	0	
1.2553	3.90884	-6.02129	0	
1.2560	3.90884	-7.86113	0	
1.2567	3.0262	-6.3558	0	
1.2573	3.0262	-6.3558	0	
1.2580	3.32041	-10.593	0	
1.2587	3.32041	-16.1125	0	
1.2593	3.61462	-23.1374	0	
1.2600	4.53929	-31.6675	0	
1.2607	3.90884	-35.0127	0	
1.2613	2.10152	-39.9189	0	
1.2620	3.0262	-41.7587	0	
1.2627	6.05239	-13.6594	0	
1.2633	6.05239	39.7517	0	
1.2640	3.90884	71.1962	0	
1.2647	2.39574	63.8368	0	
1.2653	1.47107	41.5915	0	
1.2660	1.17685	22.6356	0	
1.2667	-0.966701	11.3735	0	
1.2673	-3.40447	7.08059	0	
1.2680	-0.672488	5.85403	0	
1.2687	1.17685	3.40091	0	
1.2693	-3.69868	-0.223011	0	
1.2700	-8.57422	-4.18145	0	
1.2707	-7.98579	-6.63457	0	
1.2713	-6.4727	-9.4222	0	
1.2720	-5.25381	-11.5408	0	
1.2727	-4.32914	-8.47441	0	
1.2733	-5.54803	-4.18145	0	
1.2740	-4.32914	-6.02129	0	
1.2747	-0.672488	-8.80892	0	
1.2753	-1.55513	-5.40801	0	
1.2760	-3.9929	-1.78409	0	
1.2767	-0.672488	1.00355	0	
1.2773	2.39574	4.96199	0	
1.2780	0.546396	6.18855	0	
1.2787	-0.0420305	6.18855	0	
1.2793	1.76528	8.30715	0	
1.2800	2.10152	12.2656	0	
1.2807	3.0262	18.3984	0	
1.2813	3.90884	23.2489	0	
1.2820	0.88264	22.3568	0	
1.2827	-0.672488	19.5692	0	
1.2833	0.546396	18.6771	0	
1.2840	-0.0420305	14.3842	0	
1.2847	-2.4798	5.85403	0	
1.2853	-2.4798	-0.557527	0	
1.2860	-3.11026	-4.79473	0	
1.2867	-3.40447	-10.9275	0	
1.2873	-3.40447	-18.8444	0	
1.2880	-2.4798	-21.5763	0	
1.2887	-1.55513	-22.5241	0	
1.2893	-2.18559	-28.9356	0	
1.2900	-4.91757	-33.5074	0	
1.2907	-3.69868	-24.6427	0	
1.2913	-1.26091	-12.4328	0	
1.2920	-2.4798	-13.6594	0	
1.2927	-2.4798	-19.4577	0	
1.2933	-0.0420305	-17.0046	0	
1.2940	-0.966701	-12.4328	0	
1.2947	-0.672488	-12.4328	0	
1.2953	2.10152	-13.3806	0	
1.2960	3.61462	-11.5408	0	
1.2967	3.32041	-8.80892	0	
1.2973	4.24508	-6.02129	0	
1.2980	3.90884	-5.40801	0	
1.2987	2.10152	-5.74252	0	
1.2993	0.252183	-4.51597	0	
1.3000	0.546396	-5.12925	0	
1.3007	3.0262	-6.02129	0	
1.3013	4.53929	-3.28941	0	
1.3020	2.68995	-3.01064	0	
1.3027	1.47107	-8.47441	0	
1.3033	2.39574	-13.0461	0	
1.3040	2.10152	-13.6594	0	
1.3047	2.10152	-12.7674	0	
1.3053	3.0262	-10.593	0	
1.3060	1.76528	-8.80892	0	
1.3067	-1.55513	-8.80892	0	
1.3073	-2.18559	-6.63457	0	
1.3080	-1.55513	-2.06285	0	
1.3087	-2.77401	0.390269	0	
1.3093	-3.40447	3.73543	0	
1.3100	-3.9929	7.97263	0	
1.3107	-5.25381	11.9868	0	
1.3113	-5.25381	23.5834	0	
1.3120	-3.40447	40.3649	0	
1.3127	-3.40447	42.4835	0	
1.3133	-2.18559	31.779	0	
1.3140	1.17685	23.2489	0	
1.3147	2.68995	7.08059	0	
1.3153	2.39574	-20.071	0	
1.3160	2.10152	-33.1728	0	
1.3167	0.88264	-21.0188	0	
1.3173	1.17685	-8.19564	0	
1.3180	3.90884	-4.51597	0	
1.3187	5.75818	-0.557527	0	
1.3193	4.53929	2.17435	0	
1.3200	4.53929	1.61683	0	
1.3207	5.75818	2.17435	0	
1.3213	6.34661	-0.557527	0	
1.3220	4.83351	-6.63457	0	
1.3227	3.0262	-6.96908	0	
1.3233	2.10152	-5.74252	0	
1.3240	2.10152	-7.58236	0	
1.3247	2.10152	-5.74252	0	
1.3253	0.88264	-3.90269	0	
1.3260	-1.55513	-8.47441	0	
1.3267	-2.4798	-8.80892	0	
1.3273	-1.26091	-5.74252	0	
1.3280	-2.77401	-8.19564	0	
1.3287	-5.25381	-11.5408	0	
1.3293	-2.77401	-14.2727	0	
1.3300	-2.77401	-22.5241	0	
1.3307	-7.98579	-29.8277	0	
1.3313	-8.28001	-38.4136	0	
1.3320	-4.32914	-53.6341	0	
1.3327	-4.62335	-64.3386	0	
1.3333	-5.54803	-70.1369	0	
1.3340	-2.18559	-67.405	0	
1.3347	0.252183	-18.2311	0	
1.3353	-0.0420305	72.7015	0	
1.3360	0.88264	130.35	0	
1.3367	1.17685	122.154	0	
1.3373	0.88264	90.9883	0	
1.3380	3.0262	65.3979	0	
1.3387	5.12772	45.2154	0	
1.3393	3.90884	33.6189	0	
1.3400	3.0262	27.2073	0	
1.3407	5.12772	17.7851	0	
1.3413	5.46396	7.69387	0	
1.3420	3.90884	2.50887	0	
1.3427	3.90884	3.40091	0	
1.3433	4.24508	6.18855	0	
1.3440	4.24508	10.147	0	
1.3447	3.90884	16.5585	0	
1.3453	1.47107	21.1303	0	
1.3460	-0.966701	17.7851	0	
1.3467	-0.336244	8.58591	0	
1.3473	0.88264	1.00355	0	
1.3480	-0.672488	-1.78409	0	
1.3487	-2.4798	-2.39736	0	
1.3493	-3.11026	-4.51597	0	
1.3500	-3.40447	-5.12925	0	
1.3507	-2.18559	-2.06285	0	
1.3513	-0.336244	0.390269	0	
1.3520	-0.336244	0.0557527	0	
1.3527	-1.89137	0.0557527	0	
1.3533	-3.69868	-0.557527	0	
1.3540	-4.32914	-1.17081	0	
1.3547	-1.89137	-1.44957	0	
1.3553	1.17685	-3.01064	0	
1.3560	2.10152	-2.67613	0	
1.3567	2.10152	-1.17081	0	
1.3573	3.0262	-3.01064	0	
1.3580	3.32041	-5.12925	0	
1.3587	3.0262	-6.96908	0	
1.3593	2.39574	-11.8196	0	
1.3600	2.39574	-14.886	0	
1.3607	3.32041	-9.70096	0	
1.3613	2.68995	-5.12925	0	
1.3620	1.17685	-5.12925	0	
1.3627	1.47107	-3.90269	0	
1.3633	1.76528	0.669032	0	
1.3640	-1.26091	4.62747	0	
1.3647	-3.40447	6.18855	0	
1.3653	-1.55513	5.57527	0	
1.3660	-1.55513	4.01419	0	
1.3667	-3.40447	2.17435	0	
1.3673	-4.62335	-2.39736	0	
1.3680	-4.32914	-9.70096	0	
1.3687	-3.40447	-16.1125	0	
1.3693	-4.32914	-19.7922	0	
1.3700	-7.06112	-22.5241	0	
1.3707	-5.54803	-24.9772	0	
1.3713	-2.4798	-21.0188	0	
1.3720	-5.25381	-10.593	0	
1.3727	-7.98579	-5.40801	0	
1.3733	-4.62335	-10.593	0	
1.3740	-2.77401	-15.778	0	
1.3747	-2.77401	-14.886	0	
1.3753	0.252183	-13.3806	0	
1.3760	0.546396	-13.3806	0	
1.3767	-1.55513	-11.2063	0	
1.3773	1.17685	-6.96908	0	
1.3780	3.90884	-4.18145	0	
1.3787	3.0262	-6.02129	0	
1.3793	3.90884	-6.96908	0	
1.3800	4.24508	-3.28941	0	
1.3807	0.88264	-1.17081	0	
1.3813	0.252183	-0.557527	0	
1.3820	2.68995	1.28231	0	
1.3827	1.17685	4.01419	0	
1.3833	-0.672488	10.4257	0	
1.3840	0.252183	21.7435	0	
1.3847	0.252183	24.1967	0	
1.3853	-0.672488	16.224	0	
1.3860	-0.0420305	17.7851	0	
1.3867	0.546396	22.3568	0	
1.3873	0.546396	13.2134	0	
1.3880	-0.336244	5.57527	0	
1.3887	-1.26091	-3.62392	0	
1.3893	-1.55513	-34.3994	0	
1.3900	-3.40447	-63.7253	0	
1.3907	-4.32914	-62.1642	0	
1.3913	-4.32914	-46.6092	0	
1.3920	-3.69868	-37.187	0	
1.3927	-3.40447	-35.3472	0	
1.3933	-3.40447	-40.1977	0	
1.3940	-2.4798	-35.9605	0	
1.3947	0.252183	-25.256	0	
1.3953	1.76528	-26.4825	0	
1.3960	-1.26091	-17.9524	0	
1.3967	-1.55513	25.9807	0	
1.3973	1.47107	69.0218	0	
1.3980	2.39574	73.5935	0	
1.3987	2.10152	54.3588	0	
1.3993	3.90884	35.7932	0	
1.4000	4.83351	25.9807	0	
1.4007	3.90884	20.517	0	
1.4013	3.90884	12.8789	0	
1.4020	3.90884	8.92043	0	
1.4027	3.90884	11.3735	0	
1.4033	3.61462	7.4151	0	
1.4040	1.17685	-0.557527	0	
1.4047	-1.55513	-3.28941	0	
1.4053	-1.89137	-6.96908	0	
1.4060	-2.18559	-8.80892	0	
1.4067	-2.77401	-6.96908	0	
1.4073	-3.40447	-12.4328	0	
1.4080	-3.9929	-16.1125	0	
1.4087	-5.25381	2.17435	0	
1.4093	-4.91757	24.1967	0	
1.4100	-3.40447	26.9285	0	
1.4107	-3.40447	22.3568	0	
1.4113	-4.91757	22.0223	0	
1.4120	-4.91757	23.8621	0	
1.4127	-3.40447	25.3675	0	
1.4133	-1.26091	20.517	0	
1.4140	-0.966701	9.53371	0	
1.4147	-2.4798	2.78763	0	
1.4153	-3.40447	-2.06285	0	
1.4160	-0.966701	-8.80892	0	
1.4167	2.10152	-9.70096	0	
1.4173	3.0262	-6.02129	0	
1.4180	2.10152	-8.19564	0	
1.4187	3.0262	-14.2727	0	
1.4193	5.12772	-23.4161	0	
1.4200	7.27128	-32.6153	0	
1.4207	7.56549	-37.187	0	
1.4213	6.68285	-35.3472	0	
1.4220	5.46396	-21.5763	0	
1.4227	4.83351	14.9975	0	
1.4233	4.24508	52.5748	0	
1.4240	3.90884	55.3066	0	
1.4247	3.0262	34.2321	0	
1.4253	1.76528	17.7851	0	
1.4260	0.252183	9.19919	0	
1.4267	0.88264	4.34871	0	
1.4273	1.76528	4.96199	0	
1.4280	-0.336244	4.96199	0	
1.4287	-1.89137	1.61683	0	
1.4293	-0.672488	0.390269	0	
1.4300	-1.55513	0.0557527	0	
1.4307	-4.91757	-2.06285	0	
1.4313	-5.54803	-2.06285	0	
1.4320	-4.62335	3.12215	0	
1.4327	-4.32914	8.92043	0	
1.4333	-3.40447	10.7603	0	
1.4340	-2.4798	11.6523	0	
1.4347	-2.18559	14.1054	0	
1.4353	-1.55513	14.3842	0	
1.4360	-1.89137	10.7603	0	
1.4367	-3.9929	6.46731	0	
1.4373	-2.77401	-2.39736	0	
1.4380	1.17685	-15.4992	0	
1.4387	2.39574	-24.9772	0	
1.4393	0.88264	-27.9878	0	
1.4400	1.17685	-29.2144	0	
1.4407	2.39574	-26.4825	0	
1.4413	2.39574	-19.7922	0	
1.4420	1.76528	-16.1125	0	
1.4427	2.10152	-15.2205	0	
1.4433	3.0262	-12.4328	0	
1.4440	2.10152	-10.3142	0	
1.4447	2.39574	-10.593	0	
1.4453	3.90884	-12.4328	0	
1.4460	3.32041	-13.0461	0	
1.4467	0.252183	-11.5408	0	
1.4473	-1.26091	-9.08768	0	
1.4480	-2.4798	-6.63457	0	
1.4487	-3.9929	-2.67613	0	
1.4493	-2.77401	2.78763	0	
1.4500	-0.336244	7.4151	0	
1.4507	-1.55513	8.30715	0	
1.4513	-4.32914	4.96199	0	
1.4520	-3.11026	1.28231	0	
1.4527	-0.336244	-0.557527	0	
1.4533	-1.55513	-3.28941	0	
1.4540	-3.69868	-5.12925	0	
1.4547	-3.11026	-1.17081	0	
1.4553	-0.966701	7.4151	0	
1.4560	0.252183	11.9868	0	
1.4567	1.47107	10.147	0	
1.4573	1.76528	5.57527	0	
1.4580	-0.672488	4.01419	0	
1.4587	-1.55513	4.01419	0	
1.4593	1.47107	1.28231	0	
1.4600	3.32041	-0.557527	0	
1.4607	2.10152	3.40091	0	
1.4613	2.39574	4.62747	0	
1.4620	3.90884	1.00355	0	
1.4627	3.32041	0.390269	0	
1.4633	2.10152	2.17435	0	
1.4640	0.88264	1.00355	0	
1.4647	-1.55513	-1.44957	0	
1.4653	-3.40447	-3.90269	0	
1.4660	-3.11026	-7.86113	0	
1.4667	-1.55513	-7.86113	0	
1.4673	-0.672488	-1.44957	0	
1.4680	-0.966701	5.85403	0	
1.4687	-2.4798	8.58591	0	
1.4693	-2.77401	8.58591	0	
1.4700	-1.26091	11.6523	0	
1.4707	-2.4798	14.3842	0	
1.4713	-3.69868	1.28231	0	
1.4720	-2.18559	-21.5763	0	
1.4727	-1.26091	-27.3746	0	
1.4733	-1.26091	-11.5408	0	
1.4740	0.546396	7.69387	0	
1.4747	1.17685	15.9453	0	
1.4753	-0.672488	11.9868	0	
1.4760	-0.336244	4.34871	0	
1.4767	0.546396	1.00355	0	
1.4773	1.47107	-2.39736	0	
1.4780	3.0262	-6.96908	0	
1.4787	3.0262	-8.47441	0	
1.4793	3.0262	-8.80892	0	
1.4800	5.12772	-8.19564	0	
1.4807	4.53929	-5.74252	0	
1.4813	2.10152	-3.62392	0	
1.4820	3.0262	-1.78409	0	
1.4827	0.546396	0.0557527	0	
1.4833	-5.25381	-1.17081	0	
1.4840	-3.11026	-3.28941	0	
1.4847	2.39574	-3.62392	0	
1.4853	0.546396	-3.28941	0	
1.4860	-3.69868	-4.79473	0	
1.4867	-3.9929	-9.70096	0	
1.4873	-3.9929	-14.6072	0	
1.4880	-4.91757	-15.4992	0	
1.4887	-4.32914	-15.2205	0	
1.4893	-4.91757	-16.1125	0	
1.4900	-5.54803	-16.1125	0	
1.4907	-4.32914	-20.4055	0	
1.4913	-3.11026	-28.9356	0	
1.4920	-3.11026	-33.5074	0	
1.4927	-2.77401	-35.3472	0	
1.4933	-3.69868	-35.0127	0	
1.4940	-3.69868	-29.2144	0	
1.4947	-0.672488	-25.5905	0	
1.4953	0.546396	-11.5408	0	
1.4960	-0.0420305	35.1799	0	
1.4967	3.32041	82.7927	0	
1.4973	6.05239	84.5768	0	
1.4980	2.68995	57.4252	0	
1.4987	2.68995	36.964	0	
1.4993	8.49016	25.3675	0	
1.5000	8.49016	21.1303	0	
1.5007	3.61462	28.4339	0	
1.5013	2.10152	37.9118	0	
1.5020	3.61462	35.7932	0	
1.5027	4.24508	21.1303	0	
1.5033	4.53929	8.58591	0	
1.5040	3.0262	6.80183	0	
1.5047	0.546396	7.4151	0	
1.5053	-0.336244	3.12215	0	
1.5060	-0.672488	-0.557527	0	
1.5067	-0.672488	-1.78409	0	
1.5073	-0.672488	-3.01064	0	
1.5080	-1.55513	-3.28941	0	
1.5087	-3.11026	-0.557527	0	
1.5093	-2.4798	5.24075	0	
1.5100	-1.55513	8.92043	0	
1.5107	-1.55513	7.97263	0	
1.5113	-1.55513	8.58591	0	
1.5120	-0.672488	9.53371	0	
1.5127	-0.966701	4.62747	0	
1.5133	-2.4798	0.390269	0	
1.5140	-1.55513	-0.557527	0	
1.5147	-1.26091	-6.63457	0	
1.5153	-2.18559	-18.8444	0	
1.5160	-0.336244	-33.5074	0	
1.5167	2.39574	-48.7836	0	
1.5173	1.17685	-59.7669	0	
1.5180	1.17685	-65.5651	0	
1.5187	3.90884	-61.8855	0	
1.5193	4.24508	-31.6675	0	
1.5200	3.32041	14.3842	0	
1.5207	4.24508	42.7623	0	
1.5213	3.0262	44.3234	0	
1.5220	0.252183	34.2321	0	
1.5227	-0.336244	22.6356	0	
1.5233	-1.55513	15.332	0	
1.5240	-1.55513	12.2656	0	
1.5247	1.17685	10.147	0	
1.5253	0.252183	8.92043	0	
1.5260	-1.55513	5.85403	0	
1.5267	-0.0420305	1.00355	0	
1.5273	0.252183	3.40091	0	
1.5280	-3.40447	4.96199	0	
1.5287	-5.25381	-3.01064	0	
1.5293	-5.25381	-6.96908	0	
1.5300	-3.40447	-6.96908	0	
1.5307	-1.55513	-13.6594	0	
1.5313	-1.89137	-18.5656	0	
1.5320	-3.9929	-11.8196	0	
1.5327	-4.32914	-3.90269	0	
1.5333	-2.4798	1.00355	0	
1.5340	-0.672488	3.12215	0	
1.5347	-0.672488	5.85403	0	
1.5353	0.252183	11.6523	0	
1.5360	2.10152	11.9868	0	
1.5367	2.39574	8.30715	0	
1.5373	2.10152	14.1054	0	
1.5380	2.68995	7.4151	0	
1.5387	3.0262	-28.3224	0	
1.5393	2.10152	-50.5677	0	
1.5400	1.76528	-33.5074	0	
1.5407	2.10152	-13.3806	0	
1.5413	3.61462	-9.08768	0	
1.5420	4.83351	-6.96908	0	
1.5427	3.61462	-6.02129	0	
1.5433	3.0262	-5.40801	0	
1.5440	3.61462	-0.83629	0	
1.5447	2.10152	1.61683	0	
1.5453	0.546396	0.390269	0	
1.5460	1.76528	-0.223011	0	
1.5467	1.17685	-2.39736	0	
1.5473	-1.26091	-0.557527	0	
1.5480	-1.89137	4.96199	0	
1.5487	-1.55513	3.73543	0	
1.5493	-1.55513	-2.06285	0	
1.5500	-3.11026	-1.44957	0	
1.5507	-4.62335	0.669032	0	
1.5513	-3.40447	-0.223011	0	
1.5520	-0.966701	0.390269	0	
1.5527	-1.26091	1.28231	0	
1.5533	-2.18559	0.669032	0	
1.5540	-1.89137	2.50887	0	
1.5547	-0.0420305	4.34871	0	
1.5553	1.47107	3.12215	0	
1.5560	0.252183	2.17435	0	
1.5567	-0.0420305	3.12215	0	
1.5573	3.32041	2.17435	0	
1.5580	5.12772	0.669032	0	
1.5587	3.32041	1.28231	0	
1.5593	4.53929	2.17435	0	
1.5600	7.56549	1.28231	0	
1.5607	7.56549	1.00355	0	
1.5613	5.75818	3.40091	0	
1.5620	3.90884	3.12215	0	
1.5627	2.10152	-2.67613	0	
1.5633	2.10152	-6.96908	0	
1.5640	2.10152	-4.79473	0	
1.5647	-0.672488	-4.51597	0	
1.5653	-1.89137	-10.593	0	
1.5660	-0.966701	-16.1125	0	
1.5667	-1.26091	-17.3391	0	
1.5673	-1.55513	-15.4992	0	
1.5680	-1.89137	-13.0461	0	
1.5687	-5.84224	-10.593	0	
1.5693	-6.4727	-8.80892	0	
1.5700	-2.18559	-5.12925	0	
1.5707	-1.55513	0.0557527	0	
1.5713	-4.32914	3.73543	0	
1.5720	-4.32914	8.58591	0	
1.5727	-3.40447	19.2904	0	
1.5733	-3.40447	30.6082	0	
1.5740	-2.18559	33.3401	0	
1.5747	-2.4798	29.0471	0	
1.5753	-2.4798	25.3675	0	
1.5760	1.17685	22.0223	0	
1.5767	3.0262	16.5585	0	
1.5773	-0.336244	10.7603	0	
1.5780	-1.26091	6.80183	0	
1.5787	2.10152	5.85403	0	
1.5793	3.90884	4.96199	0	
1.5800	3.61462	1.28231	0	
1.5807	3.90884	-3.90269	0	
1.5813	4.83351	-7.86113	0	
1.5820	4.24508	-9.70096	0	
1.5827	1.47107	-7.58236	0	
1.5833	-0.672488	-6.02129	0	
1.5840	-1.89137	-10.3142	0	
1.5847	-3.11026	-12.7674	0	
1.5853	-3.11026	-9.97973	0	
1.5860	-2.4798	-9.70096	0	
1.5867	-3.40447	-10.593	0	
1.5873	-2.4798	-8.80892	0	
1.5880	-0.0420305	-9.70096	0	
1.5887	-2.18559	-13.9939	0	
1.5893	-7.06112	-15.4992	0	
1.5900	-7.06112	-19.7922	0	
1.5907	-4.32914	-27.0958	0	
1.5913	-3.40447	-27.7091	0	
1.5920	-1.89137	-29.8277	0	
1.5927	-0.336244	-32.2808	0	
1.5933	-2.4798	-6.02129	0	
1.5940	-3.9929	47.3898	0	
1.5947	-1.26091	81.8449	0	
1.5953	-0.0420305	76.0466	0	
1.5960	-0.336244	52.5748	0	
1.5967	1.17685	30.6082	0	
1.5973	1.17685	13.2134	0	
1.5980	0.252183	3.73543	0	
1.5987	2.68995	1.61683	0	
1.5993	4.83351	1.89559	0	
1.6000	3.0262	-5.74252	0	
1.6007	2.10152	-19.4577	0	
1.6013	3.32041	-25.256	0	
1.6020	3.0262	-16.3913	0	
1.6027	2.10152	-3.28941	0	
1.6033	4.53929	4.01419	0	
1.6040	5.46396	-4.79473	0	
1.6047	1.76528	-27.0958	0	
1.6053	-0.966701	-28.3224	0	
1.6060	1.17685	17.7851	0	
1.6067	3.32041	74.2068	0	
1.6073	1.17685	77.2732	0	
1.6080	-0.966701	23.8621	0	
1.6087	-0.672488	-28.9356	0	
1.6093	-0.336244	-38.9711	0	
1.6100	0.546396	-25.256	0	
1.6107	-0.0420305	-21.0188	0	
1.6113	-3.11026	-24.3639	0	
1.6120	-5.25381	-20.6842	0	
1.6127	-5.25381	-14.2727	0	
1.6133	-5.25381	-11.5408	0	
1.6140	-3.9929	-9.97973	0	
1.6147	-2.77401	-9.08768	0	
1.6153	-3.40447	-11.2063	0	
1.6160	-3.11026	-9.97973	0	
1.6167	-1.55513	-0.557527	0	
1.6173	-1.55513	7.97263	0	
1.6180	-0.966701	7.69387	0	
1.6187	1.47107	4.01419	0	
1.6193	4.24508	1.28231	0	
1.6200	3.90884	0.390269	0	
1.6207	2.10152	1.89559	0	
1.6213	1.47107	2.78763	0	
1.6220	1.47107	1.61683	0	
1.6227	1.17685	2.17435	0	
1.6233	2.10152	2.78763	0	
1.6240	2.10152	-0.557527	0	
1.6247	1.17685	-3.62392	0	
1.6253	1.17685	-1.44957	0	
1.6260	1.17685	2.17435	0	
1.6267	-0.0420305	1.28231	0	
1.6273	-0.336244	-3.28941	0	
1.6280	-0.0420305	-4.18145	0	
1.6287	-1.89137	-2.39736	0	
1.6293	-2.4798	-2.39736	0	
1.6300	0.252183	-1.17081	0	
1.6307	1.76528	4.01419	0	
1.6313	0.546396	5.85403	0	
1.6320	-0.672488	3.12215	0	
1.6327	-2.18559	1.00355	0	
1.6333	-2.77401	-1.78409	0	
1.6340	-0.672488	-5.74252	0	
1.6347	1.17685	-6.63457	0	
1.6353	-1.55513	-7.86113	0	
1.6360	-2.4798	-9.70096	0	
1.6367	1.47107	-7.24785	0	
1.6373	4.83351	-6.96908	0	
1.6380	3.90884	-13.6594	0	
1.6387	2.68995	-17.9524	0	
1.6393	2.39574	-13.3806	0	
1.6400	1.17685	-7.86113	0	
1.6407	1.76528	-3.62392	0	
1.6413	3.90884	2.78763	0	
1.6420	3.90884	7.4151	0	
1.6427	3.0262	5.85403	0	
1.6433	2.10152	1.28231	0	
1.6440	0.252183	1.00355	0	
1.6447	0.252183	7.4151	0	
1.6453	1.47107	12.2656	0	
1.6460	0.252183	11.039	0	
1.6467	-1.26091	11.039	0	
1.6473	-1.55513	15.6107	0	
1.6480	-3.40447	16.224	0	
1.6487	-3.9929	10.4257	0	
1.6493	-2.4798	4.62747	0	
1.6500	-3.11026	2.50887	0	
1.6507	-4.32914	2.17435	0	
1.6513	-4.32914	2.50887	0	
1.6520	-3.69868	1.28231	0	
1.6527	-2.77401	-1.44957	0	
1.6533	-2.4798	-1.44957	0	
1.6540	-3.11026	1.28231	0	
1.6547	-2.18559	4.01419	0	
1.6553	-0.672488	6.46731	0	
1.6560	-0.336244	9.53371	0	
1.6567	0.252183	11.039	0	
1.6573	0.252183	9.19919	0	
1.6580	-1.55513	7.69387	0	
1.6587	-0.336244	10.4257	0	
1.6593	2.10152	14.3842	0	
1.6600	-0.0420305	18.0639	0	
1.6607	-2.18559	20.1825	0	
1.6613	-0.0420305	18.0639	0	
1.6620	0.88264	13.4921	0	
1.6627	1.17685	10.4257	0	
1.6633	2.10152	8.58591	0	
1.6640	-0.672488	5.24075	0	
1.6647	-3.40447	1.89559	0	
1.6653	-0.336244	-3.28941	0	
1.6660	1.47107	-13.3806	0	
1.6667	-0.672488	-23.1374	0	
1.6673	-1.55513	-25.8692	0	
1.6680	-2.4798	-24.3639	0	
1.6687	-2.77401	-19.1789	0	
1.6693	-2.77401	-11.8196	0	
1.6700	-2.4798	-8.47441	0	
1.6707	-1.55513	-6.63457	0	
1.6713	-0.966701	-1.78409	0	
1.6720	-3.69868	0.0557527	0	
1.6727	-4.32914	-3.01064	0	
1.6733	-0.966701	-2.06285	0	
1.6740	0.252183	-1.17081	0	
1.6747	-0.336244	-6.02129	0	
1.6753	0.546396	-8.47441	0	
1.6760	0.88264	-8.47441	0	
1.6767	1.76528	-13.9939	0	
1.6773	3.90884	-19.7922	0	
1.6780	3.61462	-24.3639	0	
1.6787	0.546396	-35.3472	0	
1.6793	0.546396	-50.0101	0	
1.6800	1.76528	-59.1536	0	
1.6807	-0.0420305	-52.742	0	
1.6813	-1.26091	-16.1125	0	
1.6820	1.47107	39.1384	0	
1.6827	2.39574	73.5935	0	
1.6833	-0.966701	71.4749	0	
1.6840	-2.4798	52.5748	0	
1.6847	0.546396	35.4587	0	
1.6853	1.17685	29.3817	0	
1.6860	-2.18559	29.3817	0	
1.6867	-3.69868	24.1967	0	
1.6873	-2.18559	17.1718	0	
1.6880	-0.672488	15.332	0	
1.6887	-1.26091	14.3842	0	
1.6893	-2.4798	13.2134	0	
1.6900	-2.18559	13.4921	0	
1.6907	-2.4798	14.9975	0	
1.6913	-3.69868	21.409	0	
1.6920	-2.4798	21.409	0	
1.6927	-0.966701	-3.28941	0	
1.6933	-1.55513	-30.441	0	
1.6940	-2.4798	-28.3224	0	
1.6947	-3.11026	-15.4992	0	
1.6953	-2.18559	-14.2727	0	
1.6960	-0.672488	-15.4992	0	
1.6967	0.252183	-16.7258	0	
1.6973	0.252183	-22.5241	0	
1.6980	0.252183	-27.0958	0	
1.6987	1.17685	-34.3994	0	
1.6993	3.0262	-43.8773	0	
1.7000	3.61462	-38.6923	0	
1.7007	3.0262	-21.5763	0	
1.7013	4.53929	-17.3391	0	
1.7020	6.34661	-28.6011	0	
1.7027	3.61462	-42.372	0	
1.7033	-0.0420305	-50.2889	0	
1.7040	0.252183	-48.7836	0	
1.7047	1.17685	-34.7339	0	
1.7053	-1.26091	-2.39736	0	
1.7060	-1.89137	42.4835	0	
1.7067	-0.672488	69.0218	0	
1.7073	-0.966701	58.9863	0	
1.7080	-1.89137	34.8454	0	
1.7087	-2.4798	22.3568	0	
1.7093	-3.40447	16.8373	0	
1.7100	-5.25381	10.147	0	
1.7107	-5.84224	4.62747	0	
1.7113	-5.25381	1.00355	0	
1.7120	-6.13645	-2.06285	0	
1.7127	-7.06112	-3.90269	0	
1.7133	-5.54803	-5.12925	0	
1.7140	-3.40447	-6.02129	0	
1.7147	-3.40447	-6.02129	0	
1.7153	-3.40447	-4.51597	0	
1.7160	-3.40447	-4.18145	0	
1.7167	-3.40447	-5.12925	0	
1.7173	-0.336244	-5.12925	0	
1.7180	2.68995	-0.83629	0	
1.7187	1.47107	4.01419	0	
1.7193	0.88264	6.46731	0	
1.7200	2.10152	9.53371	0	
1.7207	0.88264	14.3842	0	
1.7213	-0.336244	14.3842	0	
1.7220	2.10152	8.58591	0	
1.7227	3.61462	4.01419	0	
1.7233	2.10152	2.17435	0	
1.7240	2.39574	2.17435	0	
1.7247	4.24508	3.40091	0	
1.7253	3.61462	4.96199	0	
1.7260	0.252183	3.12215	0	
1.7267	-2.18559	-0.223011	0	
1.7273	-1.55513	0.390269	0	
1.7280	-0.0420305	2.17435	0	
1.7287	-0.672488	1.28231	0	
1.7293	-1.89137	-0.557527	0	
1.7300	-0.966701	0.669032	0	
1.7307	-0.336244	1.28231	0	
1.7313	-0.966701	-1.44957	0	
1.7320	-0.672488	-2.39736	0	
1.7327	0.252183	-1.44957	0	
1.7333	-1.55513	-1.44957	0	
1.7340	-3.11026	-1.44957	0	
1.7347	-1.26091	-1.44957	0	
1.7353	0.546396	-3.01064	0	
1.7360	-0.0420305	-4.18145	0	
1.7367	0.546396	-3.90269	0	
1.7373	2.10152	-5.12925	0	
1.7380	1.17685	-7.58236	0	
1.7387	2.39574	-9.97973	0	
1.7393	6.05239	-11.5408	0	
1.7400	5.75818	-10.9275	0	
1.7407	2.39574	-10.593	0	
1.7413	2.10152	-10.593	0	
1.7420	1.17685	-7.86113	0	
1.7427	-0.336244	-5.12925	0	
1.7433	1.17685	-4.18145	0	
1.7440	4.53929	0.390269	0	
1.7447	3.0262	7.69387	0	
1.7453	-0.966701	14.9975	0	
1.7460	-2.18559	21.7435	0	
1.7467	-1.26091	22.0223	0	
1.7473	-1.55513	17.7851	0	
1.7480	-1.55513	22.3568	0	
1.7487	-1.55513	27.2073	0	
1.7493	-1.89137	18.6771	0	
1.7500	-2.77401	5.24075	0	
1.7507	-2.77401	-3.01064	0	
1.7513	-3.40447	-9.4222	0	
1.7520	-4.91757	-10.9275	0	
1.7527	-5.25381	-9.70096	0	
1.7533	-2.4798	-10.593	0	
1.7540	0.88264	-8.80892	0	
1.7547	1.17685	-4.18145	0	
1.7553	0.252183	-3.62392	0	
1.7560	1.47107	-2.39736	0	
1.7567	2.68995	0.0557527	0	
1.7573	2.39574	-2.39736	0	
1.7580	3.90884	-4.18145	0	
1.7587	6.68285	-0.223011	0	
1.7593	6.68285	2.17435	0	
1.7600	3.61462	2.50887	0	
1.7607	2.39574	1.89559	0	
1.7613	3.0262	-1.44957	0	
1.7620	3.90884	-1.44957	0	
1.7627	4.83351	4.96199	0	
1.7633	3.32041	7.69387	0	
1.7640	-0.336244	3.12215	0	
1.7647	-0.966701	0.669032	0	
1.7653	2.10152	-5.12925	0	
1.7660	2.10152	-17.0046	0	
1.7667	-1.55513	-23.1374	0	
1.7673	-2.77401	-26.4825	0	
1.7680	-1.55513	-48.1703	0	
1.7687	-0.966701	-79.2803	0	
1.7693	-0.672488	-85.9706	0	
1.7700	-0.672488	-56.3659	0	
1.7707	-2.18559	-1.44957	0	
1.7713	-2.4798	52.5748	0	
1.7720	-3.40447	72.7015	0	
1.7727	-4.62335	56.812	0	
1.7733	-3.69868	36.072	0	
1.7740	-0.672488	25.702	0	
1.7747	0.252183	21.7435	0	
1.7753	-0.966701	22.9701	0	
1.7760	-0.672488	23.5834	0	
1.7767	1.17685	19.9037	0	
1.7773	1.47107	18.6771	0	
1.7780	0.546396	19.5692	0	
1.7787	-0.0420305	16.5585	0	
1.7793	0.546396	14.7187	0	
1.7800	0.546396	17.1718	0	
1.7807	-0.966701	15.6107	0	
1.7813	-1.55513	10.4257	0	
1.7820	0.252183	6.80183	0	
1.7827	1.76528	3.12215	0	
1.7833	1.47107	-4.18145	0	
1.7840	0.546396	-14.2727	0	
1.7847	0.88264	-22.5241	0	
1.7853	2.39574	-23.4161	0	
1.7860	2.39574	-18.8444	0	
1.7867	-1.89137	-14.6072	0	
1.7873	-5.25381	-10.593	0	
1.7880	-4.32914	-6.96908	0	
1.7887	-3.40447	-5.74252	0	
1.7893	-5.25381	-3.62392	0	
1.7900	-5.25381	-1.44957	0	
1.7907	-3.40447	-3.28941	0	
1.7913	-3.9929	-6.02129	0	
1.7920	-5.54803	-4.79473	0	
1.7927	-5.25381	-4.79473	0	
1.7933	-3.40447	-6.3558	0	
1.7940	-1.89137	-6.02129	0	
1.7947	-2.4798	-4.79473	0	
1.7953	-2.4798	-2.39736	0	
1.7960	-0.0420305	0.669032	0	
1.7967	1.17685	-0.83629	0	
1.7973	-0.336244	-2.39736	0	
1.7980	0.546396	1.28231	0	
1.7987	2.68995	1.28231	0	
1.7993	3.0262	-2.39736	0	
1.8000	4.83351	-0.557527	0	
1.8007	5.12772	0.390269	0	
1.8013	2.39574	-3.28941	0	
1.8020	2.10152	-3.28941	0	
1.8027	3.32041	0.0557527	0	
1.8033	1.17685	-1.44957	0	
1.8040	1.17685	-2.67613	0	
1.8047	4.83351	0.0557527	0	
1.8053	4.24508	3.12215	0	
1.8060	0.88264	1.89559	0	
1.8067	-0.336244	-3.01064	0	
1.8073	-0.336244	-5.40801	0	
1.8080	-0.672488	-2.67613	0	
1.8087	-1.55513	-2.67613	0	
1.8093	-2.77401	-5.12925	0	
1.8100	-1.26091	-2.39736	0	
1.8107	1.76528	-0.223011	0	
1.8113	0.252183	-2.06285	0	
1.8120	-2.4798	-1.78409	0	
1.8127	-2.4798	-0.83629	0	
1.8133	-2.18559	0.390269	0	
1.8140	-1.55513	7.69387	0	
1.8147	-0.966701	14.3842	0	
1.8153	-2.4798	14.1054	0	
1.8160	-0.672488	12.2656	0	
1.8167	3.32041	11.3735	0	
1.8173	1.17685	6.18855	0	
1.8180	-1.55513	1.61683	0	
1.8187	2.39574	1.89559	0	
1.8193	2.68995	2.17435	0	
1.8200	-2.77401	3.12215	0	
1.8207	-2.4798	5.24075	0	
1.8213	1.17685	4.96199	0	
1.8220	-1.26091	3.73543	0	
1.8227	-4.32914	5.24075	0	
1.8233	-2.4798	5.85403	0	
1.8240	1.47107	3.12215	0	
1.8247	1.76528	3.12215	0	
1.8253	-2.18559	2.17435	0	
1.8260	-3.9929	-2.67613	0	
1.8267	-1.26091	-7.58236	0	
1.8273	-1.55513	-9.70096	0	
1.8280	-5.54803	-14.6072	0	
1.8287	-3.69868	-26.2038	0	
1.8293	0.252183	-35.3472	0	
1.8300	-2.4798	-35.626	0	
1.8307	-6.4727	-30.441	0	
1.8313	-5.25381	-18.8444	0	
1.8320	-3.11026	12.2656	0	
1.8327	-3.40447	55.5854	0	
1.8333	-4.32914	74.5413	0	
1.8340	-3.40447	59.5996	0	
1.8347	-1.26091	37.2985	0	
1.8353	-0.672488	22.3568	0	
1.8360	-0.0420305	8.30715	0	
1.8367	1.17685	-4.51597	0	
1.8373	0.546396	-14.2727	0	
1.8380	0.546396	-23.4161	0	
1.8387	3.90884	-30.1622	0	
1.8393	5.12772	-34.1206	0	
1.8400	2.10152	-36.8525	0	
1.8407	1.47107	-34.1206	0	
1.8413	3.90884	-22.8028	0	
1.8420	3.90884	-9.70096	0	
1.8427	2.39574	2.17435	0	
1.8433	3.61462	11.039	0	
1.8440	6.05239	13.2134	0	
1.8447	5.46396	9.19919	0	
1.8453	3.90884	7.69387	0	
1.8460	5.12772	9.53371	0	
1.8467	4.24508	8.92043	0	
1.8473	1.17685	5.24075	0	
1.8480	1.17685	3.12215	0	
1.8487	3.0262	4.01419	0	
1.8493	0.252183	-1.44957	0	
1.8500	-2.77401	-28.6011	0	
1.8507	-3.40447	-61.8855	0	
1.8513	-1.89137	-66.7917	0	
1.8520	0.252183	-51.5155	0	
1.8527	-0.0420305	-43.5986	0	
1.8533	-1.89137	-38.9711	0	
1.8540	-1.26091	-33.7861	0	
1.8547	-0.672488	-40.811	0	
1.8553	-1.55513	-38.0791	0	
1.8560	0.252183	1.28231	0	
1.8567	3.0262	51.0137	0	
1.8573	2.10152	71.8094	0	
1.8580	3.0262	62.6102	0	
1.8587	6.05239	44.3234	0	
1.8593	6.34661	28.7684	0	
1.8600	5.75818	24.4754	0	
1.8607	6.05239	32.3923	0	
1.8613	5.12772	41.8703	0	
1.8620	4.53929	41.8703	0	
1.8627	4.83351	36.072	0	
1.8633	3.32041	31.1657	0	
1.8640	1.17685	26.9285	0	
1.8647	0.88264	22.3568	0	
1.8653	1.17685	19.2904	0	
1.8660	-0.672488	17.4506	0	
1.8667	-2.77401	14.1054	0	
1.8673	-1.89137	8.58591	0	
1.8680	-0.0420305	1.61683	0	
1.8687	-1.55513	-2.39736	0	
1.8693	-1.89137	-3.28941	0	
1.8700	0.252183	-6.3558	0	
1.8707	-0.0420305	-8.80892	0	
1.8713	-1.55513	-7.24785	0	
1.8720	-1.55513	-8.19564	0	
1.8727	-2.77401	-10.593	0	
1.8733	-2.4798	-7.86113	0	
1.8740	0.546396	-5.40801	0	
1.8747	0.88264	-7.58236	0	
1.8753	-0.336244	-8.80892	0	
1.8760	0.252183	-8.80892	0	
1.8767	-0.0420305	-10.593	0	
1.8773	-0.672488	-12.4328	0	
1.8780	1.17685	-13.3806	0	
1.8787	1.47107	-14.2727	0	
1.8793	1.76528	-15.2205	0	
1.8800	1.76528	-18.2311	0	
1.8807	-0.672488	-20.4055	0	
1.8813	-0.672488	-16.1125	0	
1.8820	3.61462	-11.2063	0	
1.8827	5.46396	-10.9275	0	
1.8833	3.90884	-10.593	0	
1.8840	2.39574	-5.40801	0	
1.8847	-1.55513	-0.83629	0	
1.8853	-4.32914	2.17435	0	
1.8860	-1.89137	6.80183	0	
1.8867	-0.672488	8.30715	0	
1.8873	-2.4798	3.40091	0	
1.8880	-2.4798	-1.44957	0	
1.8887	-0.966701	-2.39736	0	
1.8893	-0.966701	-3.01064	0	
1.8900	-1.26091	-2.06285	0	
1.8907	-2.4798	1.28231	0	
1.8913	-4.32914	2.50887	0	
1.8920	-3.69868	1.61683	0	
1.8927	-2.77401	2.50887	0	
1.8933	-1.89137	3.12215	0	
1.8940	-0.0420305	2.78763	0	
1.8947	0.252183	4.01419	0	
1.8953	-1.26091	5.85403	0	
1.8960	-0.966701	5.85403	0	
1.8967	-0.0420305	4.96199	0	
1.8973	-1.26091	2.17435	0	
1.8980	-0.966701	0.669032	0	
1.8987	1.76528	0.669032	0	
1.8993	3.32041	-2.39736	0	
1.9000	3.61462	-4.79473	0	
1.9007	3.0262	-2.39736	0	
1.9013	1.76528	-0.557527	0	
1.9020	-0.336244	0.0557527	0	
1.9027	-0.336244	1.89559	0	
1.9033	-0.0420305	1.28231	0	
1.9040	-1.26091	-2.06285	0	
1.9047	-2.4798	-2.39736	0	
1.9053	-2.4798	-0.83629	0	
1.9060	-3.40447	-0.223011	0	
1.9067	-3.9929	0.0557527	0	
1.9073	-2.4798	-1.44957	0	
1.9080	-0.672488	-1.44957	0	
1.9087	-3.69868	0.390269	0	
1.9093	-7.35534	-0.557527	0	
1.9100	-7.06112	-4.18145	0	
1.9107	-5.84224	-5.40801	0	
1.9113	-6.76691	-4.51597	0	
1.9120	-7.06112	-3.28941	0	
1.9127	-4.91757	-2.67613	0	
1.9133	-3.40447	-5.74252	0	
1.9140	-3.40447	-12.4328	0	
1.9147	-2.77401	-19.1789	0	
1.9153	-0.966701	-12.7674	0	
1.9160	-1.26091	18.0639	0	
1.9167	-2.4798	54.3588	0	
1.9173	0.546396	61.7182	0	
1.9180	4.53929	41.257	0	
1.9187	2.68995	20.7957	0	
1.9193	0.88264	9.81247	0	
1.9200	2.68995	4.34871	0	
1.9207	2.10152	-3.28941	0	
1.9213	-0.0420305	-25.5905	0	
1.9220	0.546396	-51.7942	0	
1.9227	-0.336244	-54.2473	0	
1.9233	-2.18559	-37.187	0	
1.9240	-1.55513	-24.6427	0	
1.9247	-1.55513	-19.7922	0	
1.9253	-3.40447	-15.4992	0	
1.9260	-4.62335	-10.9275	0	
1.9267	-4.62335	-6.96908	0	
1.9273	-4.32914	-2.39736	0	
1.9280	-3.11026	-0.557527	0	
1.9287	-1.89137	-1.17081	0	
1.9293	-2.18559	0.669032	0	
1.9300	-1.55513	1.00355	0	
1.9307	-0.0420305	-3.28941	0	
1.9313	0.252183	-3.90269	0	
1.9320	-2.4798	-1.78409	0	
1.9327	-4.62335	-3.90269	0	
1.9333	-1.89137	-5.40801	0	
1.9340	1.17685	-6.3558	0	
1.9347	0.546396	-13.6594	0	
1.9353	-0.672488	-19.7922	0	
1.9360	-0.672488	-19.1789	0	
1.9367	-0.672488	-23.4161	0	
1.9373	-0.336244	-28.3224	0	
1.9380	1.76528	-28.3224	0	
1.9387	3.90884	-33.5074	0	
1.9393	4.53929	-27.9878	0	
1.9400	4.53929	12.2656	0	
1.9407	5.46396	60.7704	0	
1.9413	6.05239	76.3812	0	
1.9420	3.90884	61.997	0	
1.9427	2.68995	40.3649	0	
1.9433	5.46396	23.5834	0	
1.9440	6.97706	15.9453	0	
1.9447	3.90884	13.2134	0	
1.9453	1.47107	9.19919	0	
1.9460	1.17685	6.18855	0	
1.9467	-0.672488	4.96199	0	
1.9473	-2.18559	2.17435	0	
1.9480	-0.966701	-3.01064	0	
1.9487	-0.0420305	-6.96908	0	
1.9493	-0.672488	-7.86113	0	
1.9500	-0.672488	-8.80892	0	
1.9507	-0.672488	-13.0461	0	
1.9513	-0.966701	-17.9524	0	
1.9520	-2.4798	-22.5241	0	
1.9527	-3.69868	-25.256	0	
1.9533	-2.4798	-22.5241	0	
1.9540	0.252183	-14.6072	0	
1.9547	0.252183	-0.557527	0	
1.9553	-2.4798	16.8373	0	
1.9560	-2.4798	23.5834	0	
1.9567	-0.0420305	15.6107	0	
1.9573	0.88264	9.81247	0	
1.9580	-0.672488	15.6107	0	
1.9587	-0.0420305	25.3675	0	
1.9593	2.10152	29.0471	0	
1.9600	3.32041	21.1303	0	
1.9607	3.61462	12.2656	0	
1.9613	3.0262	13.2134	0	
1.9620	1.47107	12.2656	0	
1.9627	0.88264	2.78763	0	
1.9633	2.39574	-4.79473	0	
1.9640	4.83351	-5.74252	0	
1.9647	3.90884	-3.01064	0	
1.9653	0.252183	1.61683	0	
1.9660	-0.966701	1.28231	0	
1.9667	-0.672488	-2.67613	0	
1.9673	-1.55513	-0.223011	0	
1.9680	-2.18559	4.62747	0	
1.9687	-1.89137	3.40091	0	
1.9693	-4.32914	1.89559	0	
1.9700	-5.25381	2.17435	0	
1.9707	-2.77401	1.28231	0	
1.9713	-2.4798	0.0557527	0	
1.9720	-4.32914	-0.223011	0	
1.9727	-3.40447	0.0557527	0	
1.9733	-1.26091	0.0557527	0	
1.9740	-0.966701	-0.83629	0	
1.9747	-0.336244	-1.44957	0	
1.9753	1.17685	-1.44957	0	
1.9760	1.17685	-3.28941	0	
1.9767	0.252183	-5.12925	0	
1.9773	0.252183	-3.28941	0	
1.9780	-0.0420305	-1.44957	0	
1.9787	-0.0420305	-2.39736	0	
1.9793	1.17685	-2.39736	0	
1.9800	3.0262	-1.78409	0	
1.9807	3.61462	-3.28941	0	
1.9813	3.0262	-4.18145	0	
1.9820	3.90884	-4.18145	0	
1.9827	3.90884	-4.79473	0	
1.9833	1.17685	-6.02129	0	
1.9840	2.10152	-6.96908	0	
1.9847	4.83351	-6.3558	0	
1.9853	1.47107	-4.18145	0	
1.9860	-3.40447	-2.67613	0	
1.9867	-2.4798	-3.28941	0	
1.9873	-1.55513	-1.44957	0	
1.9880	-3.40447	1.00355	0	
1.9887	-2.4798	0.0557527	0	
1.9893	-1.55513	-2.06285	0	
1.9900	-3.40447	-1.44957	0	
1.9907	-3.11026	-0.83629	0	
1.9913	-1.89137	-0.557527	0	
1.9920	-3.69868	0.0557527	0	
1.9927	-4.91757	0.0557527	0	
1.9933	-3.40447	0.390269	0	
1.9940	-2.77401	0.669032	0	
1.9947	-2.18559	-2.67613	0	
1.9953	-0.966701	-6.96908	0	
1.9960	-0.672488	-6.02129	0	
1.9967	1.47107	-4.18145	0	
1.9973	3.32041	-3.90269	0	
1.9980	2.39574	-2.39736	0	
1.9987	2.39574	-3.01064	0	
1.9993	5.46396	-5.12925	0	
2.0000	6.34661	-2.67613	0	
2.0007	4.24508	0.390269	0	
2.0013	2.39574	-1.78409	0	
2.0020	2.10152	-3.28941	0	
2.0027	4.24508	-2.39736	0	
2.0033	6.05239	-3.28941	0	
2.0040	4.24508	-3.28941	0	
2.0047	2.68995	-2.39736	0	
2.0053	2.10152	-3.62392	0	
2.0060	-0.336244	-3.28941	0	
2.0067	-2.4798	-1.17081	0	
2.0073	-3.11026	-3.28941	0	
2.0080	-5.25381	-6.63457	0	
2.0087	-7.06112	-6.96908	0	
2.0093	-7.06112	-6.02129	0	
2.0100	-9.20468	-3.62392	0	
2.0107	-10.4236	-3.28941	0	
2.0113	-7.98579	-5.12925	0	
2.0120	-7.98579	-3.28941	0	
2.0127	-8.91047	0.390269	0	
2.0133	-7.06112	-1.17081	0	
2.0140	-6.76691	-3.01064	0	
2.0147	-7.35534	-1.17081	0	
2.0153	-2.77401	0.0557527	0	
2.0160	0.546396	0.390269	0	
2.0167	-1.26091	-1.17081	0	
2.0173	-0.336244	-3.90269	0	
2.0180	2.39574	-3.28941	0	
2.0187	-0.672488	-0.557527	0	
2.0193	-3.9929	-2.39736	0	
2.0200	-1.55513	-4.79473	0	
2.0207	1.17685	-2.06285	0	
2.0213	2.68995	0.669032	0	
2.0220	4.53929	1.00355	0	
2.0227	3.90884	0.669032	0	
2.0233	2.10152	0.390269	0	
2.0240	3.0262	0.390269	0	
2.0247	1.17685	0.0557527	0	
2.0253	-2.18559	-0.557527	0	
2.0260	-0.966701	1.00355	0	
2.0267	-0.0420305	1.89559	0	
2.0273	-3.40447	0.0557527	0	
2.0280	-4.62335	0.669032	0	
2.0287	-3.69868	2.17435	0	
2.0293	-4.32914	1.28231	0	
2.0300	-4.62335	2.17435	0	
2.0307	-4.91757	4.62747	0	
2.0313	-4.91757	2.17435	0	
2.0320	-2.18559	3.73543	0	
2.0327	-0.672488	13.4921	0	
2.0333	-2.77401	18.3984	0	
2.0340	-3.11026	14.3842	0	
2.0347	0.546396	15.332	0	
2.0353	3.61462	17.7851	0	
2.0360	4.53929	12.2656	0	
2.0367	4.83351	8.30715	0	
2.0373	4.83351	7.4151	0	
2.0380	3.90884	0.0557527	0	
2.0387	3.32041	-12.4328	0	
2.0393	4.83351	-29.5489	0	
2.0400	5.75818	-50.0101	0	
2.0407	4.24508	-62.7775	0	
2.0413	3.32041	-80.1723	0	
2.0420	3.90884	-101.86	0	
2.0427	3.32041	-65.5651	0	
2.0433	3.61462	39.7517	0	
2.0440	5.75818	113.568	0	
2.0447	5.75818	103.811	0	
2.0453	2.68995	66.2899	0	
2.0460	1.17685	40.9782	0	
2.0467	0.546396	22.3568	0	
2.0473	-2.4798	10.147	0	
2.0480	-3.69868	3.40091	0	
2.0487	-1.55513	-1.17081	0	
2.0493	-1.55513	-1.44957	0	
2.0500	-3.40447	-2.06285	0	
2.0507	-2.18559	-4.79473	0	
2.0513	0.252183	-3.28941	0	
2.0520	-0.672488	-1.17081	0	
2.0527	-1.55513	-0.557527	0	
2.0533	-1.55513	2.78763	0	
2.0540	-3.11026	6.46731	0	
2.0547	-2.18559	8.58591	0	
2.0553	1.76528	15.6107	0	
2.0560	1.47107	21.7435	0	
2.0567	-0.966701	16.8373	0	
2.0573	0.546396	7.4151	0	
2.0580	3.61462	3.12215	0	
2.0587	3.90884	1.61683	0	
2.0593	3.90884	-0.557527	0	
2.0600	4.24508	1.28231	0	
2.0607	3.0262	5.24075	0	
2.0613	1.17685	2.78763	0	
2.0620	2.10152	-4.18145	0	
2.0627	4.53929	-8.80892	0	
2.0633	4.83351	-10.593	0	
2.0640	3.61462	-13.0461	0	
2.0647	3.0262	-15.2205	0	
2.0653	0.252183	-17.0046	0	
2.0660	-3.11026	-20.6842	0	
2.0667	-2.4798	-25.5905	0	
2.0673	-1.55513	-27.3746	0	
2.0680	-1.55513	-25.256	0	
2.0687	-1.55513	-21.0188	0	
2.0693	-3.40447	-17.3391	0	
2.0700	-4.91757	-14.2727	0	
2.0707	-3.9929	-14.886	0	
2.0713	-4.32914	-17.0046	0	
2.0720	-5.25381	-14.886	0	
2.0727	-3.40447	-10.9275	0	
2.0733	-0.672488	-12.4328	0	
2.0740	0.252183	-12.7674	0	
2.0747	-0.0420305	-6.3558	0	
2.0753	-0.336244	-0.83629	0	
2.0760	1.17685	1.28231	0	
2.0767	2.39574	7.69387	0	
2.0773	1.17685	15.6107	0	
2.0780	0.546396	14.3842	0	
2.0787	1.76528	5.85403	0	
2.0793	2.68995	-2.67613	0	
2.0800	2.10152	-9.08768	0	
2.0807	2.10152	-12.1541	0	
2.0813	1.47107	-13.0461	0	
2.0820	-0.336244	-13.3806	0	
2.0827	-0.0420305	-11.8196	0	
2.0833	2.10152	-9.08768	0	
2.0840	2.39574	-7.58236	0	
2.0847	-0.672488	-5.40801	0	
2.0853	-2.4798	1.28231	0	
2.0860	-0.966701	6.80183	0	
2.0867	0.546396	9.53371	0	
2.0873	0.546396	20.1825	0	
2.0880	-1.26091	37.2985	0	
2.0887	-3.40447	43.9889	0	
2.0893	-1.55513	34.8454	0	
2.0900	0.252183	21.7435	0	
2.0907	-3.9929	14.7187	0	
2.0913	-7.98579	15.332	0	
2.0920	-4.32914	16.8373	0	
2.0927	-0.0420305	14.7187	0	
2.0933	-1.55513	12.2656	0	
2.0940	-2.18559	12.2656	0	
2.0947	-0.0420305	9.81247	0	
2.0953	1.47107	8.30715	0	
2.0960	2.39574	9.19919	0	
2.0967	2.10152	7.08059	0	
2.0973	1.17685	2.17435	0	
2.0980	2.10152	0.390269	0	
2.0987	3.32041	4.01419	0	
2.0993	4.53929	9.19919	0	
2.1000	6.05239	13.2134	0	
2.1007	4.83351	16.5585	0	
2.1013	1.47107	19.5692	0	
2.1020	0.546396	19.5692	0	
2.1027	0.252183	19.5692	0	
2.1033	-0.336244	21.409	0	
2.1040	0.546396	20.1825	0	
2.1047	0.88264	18.0639	0	
2.1053	-1.55513	16.5585	0	
2.1060	-2.77401	11.039	0	
2.1067	-2.77401	3.40091	0	
2.1073	-4.62335	-9.08768	0	
2.1080	-5.54803	-37.187	0	
2.1087	-4.62335	-64.3386	0	
2.1093	-6.4727	-65.5651	0	
2.1100	-8.28001	-52.4075	0	
2.1107	-6.13645	-46.6092	0	
2.1113	-3.9929	-43.8773	0	
2.1120	-6.13645	-38.6923	0	
2.1127	-6.76691	-34.7339	0	
2.1133	-1.55513	-32.2808	0	
2.1140	0.88264	-29.8277	0	
2.1147	-1.89137	-34.3994	0	
2.1153	-2.4798	-45.3827	0	
2.1160	-1.26091	-42.9853	0	
2.1167	-1.89137	-7.58236	0	
2.1173	-0.966701	41.5915	0	
2.1180	2.68995	63.558	0	
2.1187	3.61462	50.4004	0	
2.1193	1.76528	27.8206	0	
2.1200	1.17685	13.7709	0	
2.1207	0.88264	5.85403	0	
2.1213	1.47107	0.390269	0	
2.1220	3.0262	-2.67613	0	
2.1227	2.68995	-2.06285	0	
2.1233	2.68995	1.28231	0	
2.1240	3.90884	4.34871	0	
2.1247	0.252183	7.69387	0	
2.1253	-3.40447	12.8789	0	
2.1260	-0.0420305	21.409	0	
2.1267	3.0262	26.3153	0	
2.1273	0.546396	23.5834	0	
2.1280	0.88264	20.517	0	
2.1287	2.10152	21.1303	0	
2.1293	-0.672488	18.3984	0	
2.1300	-0.966701	11.6523	0	
2.1307	1.76528	5.85403	0	
2.1313	-0.336244	-0.223011	0	
2.1320	-1.89137	-6.63457	0	
2.1327	0.88264	-13.3806	0	
2.1333	2.10152	-23.1374	0	
2.1340	0.88264	-22.1896	0	
2.1347	1.17685	6.18855	0	
2.1353	1.17685	43.7101	0	
2.1360	0.88264	54.0801	0	
2.1367	2.68995	36.4065	0	
2.1373	4.53929	18.3984	0	
2.1380	3.61462	10.4257	0	
2.1387	3.0262	3.73543	0	
2.1393	3.90884	-4.79473	0	
2.1400	3.90884	-10.3142	0	
2.1407	3.90884	-13.3806	0	
2.1413	5.46396	-19.4577	0	
2.1420	5.12772	-26.2038	0	
2.1427	1.76528	-25.5905	0	
2.1433	-0.336244	-18.8444	0	
2.1440	1.17685	-14.2727	0	
2.1447	1.76528	-14.886	0	
2.1453	0.252183	-17.6178	0	
2.1460	-1.55513	-17.9524	0	
2.1467	-0.672488	-14.2727	0	
2.1473	-0.966701	-11.5408	0	
2.1480	-2.77401	-11.5408	0	
2.1487	-3.40447	-9.70096	0	
2.1493	-2.77401	-7.86113	0	
2.1500	-3.40447	-8.80892	0	
2.1507	-3.40447	-8.19564	0	
2.1513	-2.4798	-6.02129	0	
2.1520	-1.26091	-4.51597	0	
2.1527	-0.336244	-3.01064	0	
2.1533	-1.89137	-2.67613	0	
2.1540	-4.62335	-4.51597	0	
2.1547	-4.32914	-3.90269	0	
2.1553	-2.18559	-2.06285	0	
2.1560	-2.18559	-1.78409	0	
2.1567	-2.4798	-2.06285	0	
2.1573	-1.26091	-2.67613	0	
2.1580	1.17685	-4.18145	0	
2.1587	3.0262	-2.39736	0	
2.1593	3.32041	0.390269	0	
2.1600	1.47107	0.390269	0	
2.1607	0.252183	-1.44957	0	
2.1613	1.17685	-1.78409	0	
2.1620	2.68995	-1.44957	0	
2.1627	3.61462	-3.28941	0	
2.1633	1.76528	-6.96908	0	
2.1640	-0.336244	-9.70096	0	
2.1647	0.252183	-9.70096	0	
2.1653	1.17685	-8.80892	0	
2.1660	-0.672488	-7.86113	0	
2.1667	-0.336244	-6.3558	0	
2.1673	-0.336244	-4.18145	0	
2.1680	-4.32914	-2.39736	0	
2.1687	-5.54803	-1.44957	0	
2.1693	-2.77401	-1.17081	0	
2.1700	-2.4798	2.17435	0	
2.1707	-2.4798	7.4151	0	
2.1713	0.252183	6.80183	0	
2.1720	-0.672488	4.34871	0	
2.1727	-3.40447	9.53371	0	
2.1733	-2.77401	15.9453	0	
2.1740	-1.55513	13.2134	0	
2.1747	-2.18559	10.7603	0	
2.1753	-1.89137	14.9975	0	
2.1760	-0.336244	18.0639	0	
2.1767	1.47107	18.3984	0	
2.1773	2.10152	18.6771	0	
2.1780	1.17685	18.0639	0	
2.1787	0.252183	19.9037	0	
2.1793	0.88264	21.409	0	
2.1800	0.252183	19.0117	0	
2.1807	1.17685	17.7851	0	
2.1813	3.0262	9.53371	0	
2.1820	3.0262	-17.6178	0	
2.1827	2.10152	-40.811	0	
2.1833	2.10152	-37.187	0	
2.1840	2.39574	-28.3224	0	
2.1847	2.10152	-33.1728	0	
2.1853	0.252183	-42.9853	0	
2.1860	-2.77401	-48.1703	0	
2.1867	-2.4798	-49.0623	0	
2.1873	-0.672488	-53.9686	0	
2.1880	-2.4798	-58.8191	0	
2.1887	-5.54803	-38.9711	0	
2.1893	-5.25381	9.53371	0	
2.1900	-4.32914	56.1987	0	
2.1907	-4.62335	77.2732	0	
2.1913	-3.9929	72.367	0	
2.1920	-2.4798	48.003	0	
2.1927	-0.672488	22.0223	0	
2.1933	-0.0420305	4.96199	0	
2.1940	-1.89137	-3.62392	0	
2.1947	-2.4798	2.50887	0	
2.1953	-0.336244	21.7435	0	
2.1960	2.39574	31.1657	0	
2.1967	3.90884	23.2489	0	
2.1973	4.24508	13.2134	0	
2.1980	2.39574	8.58591	0	
2.1987	2.39574	4.96199	0	
2.1993	4.83351	4.01419	0	
2.2000	5.75818	5.57527	0	
2.2007	5.46396	3.73543	0	
2.2013	4.83351	3.12215	0	
2.2020	1.47107	6.80183	0	
2.2027	-1.55513	5.85403	0	
2.2033	-0.0420305	-0.83629	0	
2.2040	1.47107	-1.17081	0	
2.2047	1.76528	2.50887	0	
2.2053	0.88264	-0.83629	0	
2.2060	-3.11026	-4.18145	0	
2.2067	-5.25381	-2.39736	0	
2.2073	-3.40447	-1.44957	0	
2.2080	-3.40447	-2.67613	0	
2.2087	-5.84224	-2.39736	0	
2.2093	-6.13645	-3.90269	0	
2.2100	-5.54803	-6.63457	0	
2.2107	-5.84224	-6.3558	0	
2.2113	-5.25381	-4.18145	0	
2.2120	-4.62335	-1.44957	0	
2.2127	-5.84224	-0.557527	0	
2.2133	-5.84224	-2.39736	0	
2.2140	-4.91757	-5.74252	0	
2.2147	-4.32914	-6.96908	0	
2.2153	-3.69868	-6.96908	0	
2.2160	-1.55513	-6.96908	0	
2.2167	0.88264	-6.02129	0	
2.2173	2.10152	-4.79473	0	
2.2180	3.0262	-4.18145	0	
2.2187	3.0262	-4.79473	0	
2.2193	1.76528	-5.12925	0	
2.2200	1.17685	-3.28941	0	
2.2207	2.39574	0.390269	0	
2.2213	4.24508	3.40091	0	
2.2220	4.83351	4.01419	0	
2.2227	3.61462	4.96199	0	
2.2233	3.61462	7.08059	0	
2.2240	5.46396	8.30715	0	
2.2247	5.12772	7.97263	0	
2.2253	2.39574	8.30715	0	
2.2260	1.47107	8.92043	0	
2.2267	0.88264	8.30715	0	
2.2273	-1.55513	5.85403	0	
2.2280	-3.40447	0.390269	0	
2.2287	-3.9929	-6.96908	0	
2.2293	-3.40447	-12.4328	0	
2.2300	-2.4798	-14.2727	0	
2.2307	-2.4798	-16.1125	0	
2.2313	-3.40447	-21.0188	0	
2.2320	-3.40447	-26.817	0	
2.2327	-4.32914	-29.5489	0	
2.2333	-4.32914	-31.6675	0	
2.2340	-0.966701	-35.3472	0	
2.2347	1.47107	-38.9711	0	
2.2353	0.546396	-42.0375	0	
2.2360	-0.0420305	-37.4658	0	
2.2367	1.17685	-11.5408	0	
2.2373	3.0262	27.8206	0	
2.2380	3.90884	48.8951	0	
2.2387	3.32041	38.8039	0	
2.2393	4.24508	18.6771	0	
2.2400	5.75818	7.97263	0	
2.2407	4.83351	5.57527	0	
2.2413	2.68995	4.62747	0	
2.2420	1.76528	3.40091	0	
2.2427	2.10152	4.01419	0	
2.2433	1.17685	7.97263	0	
2.2440	-2.4798	11.039	0	
2.2447	-2.4798	11.039	0	
2.2453	0.252183	14.3842	0	
2.2460	-1.55513	22.0223	0	
2.2467	-3.69868	25.702	0	
2.2473	-1.55513	23.5834	0	
2.2480	-2.4798	20.517	0	
2.2487	-7.06112	17.7851	0	
2.2493	-6.76691	15.332	0	
2.2500	-3.9929	13.7709	0	
2.2507	-3.40447	8.30715	0	
2.2513	-3.40447	-0.83629	0	
2.2520	-4.62335	-8.80892	0	
2.2527	-4.32914	-11.8196	0	
2.2533	-1.55513	-13.3806	0	
2.2540	-0.966701	-17.9524	0	
2.2547	-0.672488	-23.4161	0	
2.2553	3.32041	-22.8028	0	
2.2560	5.46396	-17.0046	0	
2.2567	3.90884	-11.2063	0	
2.2573	3.61462	-7.58236	0	
2.2580	3.32041	-4.51597	0	
2.2587	3.90884	1.61683	0	
2.2593	5.12772	9.81247	0	
2.2600	3.90884	11.6523	0	
2.2607	0.88264	9.19919	0	
2.2613	0.252183	8.58591	0	
2.2620	1.47107	-6.02129	0	
2.2627	1.17685	-35.0127	0	
2.2633	0.252183	-44.7694	0	
2.2640	1.17685	-27.3746	0	
2.2647	0.252183	-12.7674	0	
2.2653	-3.11026	-9.4222	0	
2.2660	-2.77401	-4.79473	0	
2.2667	-0.672488	-3.28941	0	
2.2673	-2.4798	-6.02129	0	
2.2680	-3.9929	-3.01064	0	
2.2687	-2.4798	2.17435	0	
2.2693	-1.55513	-0.557527	0	
2.2700	-0.966701	-4.79473	0	
2.2707	0.88264	-5.12925	0	
2.2713	0.88264	-5.40801	0	
2.2720	-0.966701	-7.58236	0	
2.2727	-1.55513	-12.4328	0	
2.2733	-1.26091	-21.2975	0	
2.2740	-1.89137	-25.256	0	
2.2747	-1.89137	-21.5763	0	
2.2753	0.252183	-17.9524	0	
2.2760	0.546396	-12.4328	0	
2.2767	-0.966701	-3.62392	0	
2.2773	0.252183	-1.78409	0	
2.2780	2.39574	-2.67613	0	
2.2787	1.47107	5.85403	0	
2.2793	1.76528	13.4921	0	
2.2800	3.90884	12.2656	0	
2.2807	0.252183	9.53371	0	
2.2813	-4.32914	3.12215	0	
2.2820	-0.672488	-4.18145	0	
2.2827	3.0262	3.12215	0	
2.2833	-1.26091	6.80183	0	
2.2840	-4.62335	-10.3142	0	
2.2847	-3.11026	-24.3639	0	
2.2853	-1.89137	-29.8277	0	
2.2860	-2.4798	-38.9711	0	
2.2867	-3.11026	-23.7506	0	
2.2873	-3.69868	28.4339	0	
2.2880	-4.32914	66.2899	0	
2.2887	-4.32914	62.3315	0	
2.2893	-3.69868	47.0552	0	
2.2900	-2.18559	37.5773	0	
2.2907	-0.672488	29.6604	0	
2.2913	-0.336244	27.2073	0	
2.2920	0.252183	25.9807	0	
2.2927	-0.672488	19.9037	0	
2.2933	-0.966701	19.5692	0	
2.2940	2.10152	27.8206	0	
2.2947	3.32041	30.6082	0	
2.2953	0.252183	24.4754	0	
2.2960	-0.336244	16.8373	0	
2.2967	3.0262	11.6523	0	
2.2973	3.90884	8.58591	0	
2.2980	2.10152	8.58591	0	
2.2987	1.47107	8.58591	0	
2.2993	2.10152	6.18855	0	
2.3000	1.76528	2.17435	0	
2.3007	3.0262	-0.557527	0	
2.3013	3.90884	-0.223011	0	
2.3020	3.61462	-1.44957	0	
2.3027	4.53929	-5.12925	0	
2.3033	4.24508	-4.18145	0	
2.3040	1.76528	-1.44957	0	
2.3047	2.10152	-2.06285	0	
2.3053	3.0262	2.17435	0	
2.3060	0.88264	10.4257	0	
2.3067	-0.966701	7.97263	0	
2.3073	-0.672488	0.0557527	0	
2.3080	-1.26091	-0.557527	0	
2.3087	-1.89137	2.17435	0	
2.3093	-2.4798	1.89559	0	
2.3100	-5.25381	4.01419	0	
2.3107	-7.06112	5.85403	0	
2.3113	-4.91757	4.96199	0	
2.3120	-2.77401	4.96199	0	
2.3127	-3.11026	4.34871	0	
2.3133	-2.4798	4.01419	0	
2.3140	-0.672488	5.24075	0	
2.3147	-0.672488	4.96199	0	
2.3153	-2.4798	3.12215	0	
2.3160	-0.966701	2.17435	0	
2.3167	0.546396	-3.01064	0	
2.3173	-1.26091	-10.3142	0	
2.3180	-0.672488	-11.5408	0	
2.3187	3.0262	-10.9275	0	
2.3193	3.0262	-13.3806	0	
2.3200	2.39574	-13.6594	0	
2.3207	2.68995	-13.6594	0	
2.3213	1.47107	-15.778	0	
2.3220	2.10152	-13.0461	0	
2.3227	3.61462	-9.08768	0	
2.3233	1.76528	-12.1541	0	
2.3240	0.88264	-17.0046	0	
2.3247	1.17685	-18.2311	0	
2.3253	-1.55513	-16.1125	0	
2.3260	-3.11026	-6.96908	0	
2.3267	-0.672488	1.89559	0	
2.3273	-2.4798	1.89559	0	
2.3280	-3.11026	1.61683	0	
2.3287	0.88264	5.85403	0	
2.3293	-0.672488	5.57527	0	
2.3300	-6.13645	5.24075	0	
2.3307	-4.62335	12.2656	0	
2.3313	-0.672488	16.5585	0	
2.3320	-2.18559	13.4921	0	
2.3327	-3.11026	10.4257	0	
2.3333	-0.672488	6.46731	0	
2.3340	0.252183	-3.90269	0	
2.3347	-0.672488	-12.7674	0	
2.3353	0.252183	-17.3391	0	
2.3360	1.47107	-31.3888	0	
2.3367	0.252183	-63.112	0	
2.3373	0.252183	-91.4901	0	
2.3380	3.0262	-87.8104	0	
2.3387	4.83351	-50.0101	0	
2.3393	5.75818	0.669032	0	
2.3400	5.75818	35.7932	0	
2.3407	3.32041	38.1906	0	
2.3413	1.17685	21.409	0	
2.3420	2.10152	7.97263	0	
2.3427	4.53929	4.62747	0	
2.3433	4.53929	4.96199	0	
2.3440	1.76528	5.24075	0	
2.3447	-1.26091	4.34871	0	
2.3453	-0.672488	3.73543	0	
2.3460	-0.0420305	2.17435	0	
2.3467	-1.55513	-0.223011	0	
2.3473	-1.26091	-0.557527	0	
2.3480	1.17685	-0.557527	0	
2.3487	-0.336244	-3.90269	0	
2.3493	-3.11026	-6.3558	0	
2.3500	-3.9929	-6.96908	0	
2.3507	-4.62335	-9.08768	0	
2.3513	-5.25381	-9.97973	0	
2.3520	-4.32914	-9.70096	0	
2.3527	-5.54803	-10.3142	0	
2.3533	-7.69158	-10.3142	0	
2.3540	-7.35534	-9.70096	0	
2.3547	-5.54803	-9.4222	0	
2.3553	-3.69868	-8.19564	0	
2.3560	-2.4798	-9.97973	0	
2.3567	-3.40447	-15.4992	0	
2.3573	-3.40447	-15.4992	0	
2.3580	-0.672488	-12.4328	0	
2.3587	1.76528	-14.886	0	
2.3593	1.17685	-17.9524	0	
2.3600	-0.336244	-22.8028	0	
2.3607	1.17685	-33.5074	0	
2.3613	3.0262	-23.1374	0	
2.3620	2.68995	22.3568	0	
2.3627	3.0262	66.2899	0	
2.3633	4.24508	73.3148	0	
2.3640	2.10152	54.3588	0	
2.3647	-0.336244	33.6189	0	
2.3653	1.17685	25.3675	0	
2.3660	1.76528	28.7684	0	
2.3667	-0.672488	29.6604	0	
2.3673	-0.336244	21.409	0	
2.3680	-0.672488	13.7709	0	
2.3687	-4.32914	12.2656	0	
2.3693	-4.91757	10.4257	0	
2.3700	-3.11026	8.30715	0	
2.3707	-2.4798	10.7603	0	
2.3713	-1.55513	14.7187	0	
2.3720	-0.966701	14.1054	0	
2.3727	-2.18559	12.2656	0	
2.3733	-1.26091	13.4921	0	
2.3740	-0.0420305	15.332	0	
2.3747	-0.672488	13.7709	0	
2.3753	0.252183	8.58591	0	
2.3760	0.88264	2.78763	0	
2.3767	-1.89137	-2.06285	0	
2.3773	-0.966701	-6.02129	0	
2.3780	2.10152	-9.70096	0	
2.3787	0.546396	-13.3806	0	
2.3793	1.17685	-19.4577	0	
2.3800	4.83351	-25.256	0	
2.3807	4.83351	-24.3639	0	
2.3813	2.39574	-18.8444	0	
2.3820	3.0262	-15.2205	0	
2.3827	2.68995	-13.3806	0	
2.3833	0.88264	-13.9939	0	
2.3840	0.88264	-14.2727	0	
2.3847	1.17685	-12.1541	0	
2.3853	-0.672488	-11.2063	0	
2.3860	-2.18559	-9.70096	0	
2.3867	-1.89137	1.61683	0	
2.3873	-1.89137	15.9453	0	
2.3880	-2.4798	17.4506	0	
2.3887	-3.11026	8.58591	0	
2.3893	-2.77401	2.78763	0	
2.3900	-3.11026	0.0557527	0	
2.3907	-3.40447	-2.39736	0	
2.3913	-3.9929	-2.39736	0	
2.3920	-4.62335	0.390269	0	
2.3927	-5.25381	2.17435	0	
2.3933	-4.91757	3.40091	0	
2.3940	-2.77401	4.62747	0	
2.3947	0.252183	5.57527	0	
2.3953	2.10152	10.7603	0	
2.3960	0.546396	21.7435	0	
2.3967	-0.0420305	25.9807	0	
2.3973	1.17685	22.6356	0	
2.3980	1.17685	25.3675	0	
2.3987	0.546396	21.409	0	
2.3993	1.47107	-7.58236	0	
2.4000	2.68995	-35.3472	0	
2.4007	2.68995	-32.6153	0	
2.4013	3.32041	-18.8444	0	
2.4020	2.68995	-17.9524	0	
2.4027	0.546396	-21.5763	0	
2.4033	1.17685	-24.3639	0	
2.4040	2.39574	-26.4825	0	
2.4047	2.10152	-24.3639	0	
2.4053	2.10152	-20.6842	0	
2.4060	2.10152	-18.2311	0	
2.4067	0.546396	-8.80892	0	
2.4073	0.88264	4.01419	0	
2.4080	0.546396	4.96199	0	
2.4087	-3.40447	-0.83629	0	
2.4093	-6.76691	-0.557527	0	
2.4100	-5.25381	2.17435	0	
2.4107	-3.40447	1.89559	0	
2.4113	-3.40447	3.12215	0	
2.4120	-3.11026	6.80183	0	
2.4127	-2.77401	8.30715	0	
2.4133	-3.40447	6.80183	0	
2.4140	-3.11026	5.85403	0	
2.4147	-0.672488	4.96199	0	
2.4153	0.546396	3.12215	0	
2.4160	-0.672488	2.17435	0	
2.4167	-0.672488	4.96199	0	
2.4173	2.68995	6.80183	0	
2.4180	3.0262	4.34871	0	
2.4187	1.17685	0.390269	0	
2.4193	3.0262	-4.18145	0	
2.4200	5.75818	-7.58236	0	
2.4207	4.83351	-8.47441	0	
2.4213	3.61462	-11.8196	0	
2.4220	4.83351	-17.0046	0	
2.4227	4.53929	-17.9524	0	
2.4233	1.17685	-19.4577	0	
2.4240	-1.55513	-23.7506	0	
2.4247	-1.26091	-27.7091	0	
2.4253	-0.672488	-33.5074	0	
2.4260	-0.966701	-40.1977	0	
2.4267	-0.966701	-42.372	0	
2.4273	-0.672488	-41.7587	0	
2.4280	-1.89137	-28.6011	0	
2.4287	-3.9929	11.3735	0	
2.4293	-4.62335	55.3066	0	
2.4300	-2.4798	65.3979	0	
2.4307	-0.672488	49.5084	0	
2.4313	-2.4798	35.1799	0	
2.4320	-2.77401	29.0471	0	
2.4327	-1.26091	27.2073	0	
2.4333	0.252183	26.9285	0	
2.4340	2.39574	25.9807	0	
2.4347	3.90884	25.702	0	
2.4353	3.90884	25.0887	0	
2.4360	4.53929	21.409	0	
2.4367	4.83351	15.6107	0	
2.4373	3.0262	11.3735	0	
2.4380	4.53929	10.7603	0	
2.4387	7.56549	10.4257	0	
2.4393	5.75818	9.19919	0	
2.4400	3.0262	7.08059	0	
2.4407	3.61462	4.01419	0	
2.4413	3.90884	0.390269	0	
2.4420	4.24508	-1.44957	0	
2.4427	5.46396	-1.17081	0	
2.4433	4.83351	-3.28941	0	
2.4440	2.10152	-9.97973	0	
2.4447	-1.55513	-14.2727	0	
2.4453	-1.55513	-10.593	0	
2.4460	1.47107	-7.86113	0	
2.4467	-1.55513	-10.593	0	
2.4473	-7.06112	-12.4328	0	
2.4480	-4.62335	-13.3806	0	
2.4487	-2.4798	-21.0188	0	
2.4493	-7.98579	-28.9356	0	
2.4500	-8.91047	-30.441	0	
2.4507	-4.32914	-30.441	0	
2.4513	-4.91757	-32.2808	0	
2.4520	-4.32914	-36.2392	0	
2.4527	-1.26091	-32.6153	0	
2.4533	-3.69868	0.390269	0	
2.4540	-7.98579	48.5606	0	
2.4547	-6.13645	67.182	0	
2.4553	-3.11026	54.9721	0	
2.4560	0.252183	41.5915	0	
2.4567	1.76528	31.5003	0	
2.4573	-1.26091	20.517	0	
2.4580	-0.336244	15.9453	0	
2.4587	4.83351	16.8373	0	
2.4593	3.32041	15.9453	0	
2.4600	-0.672488	12.6001	0	
2.4607	0.546396	8.58591	0	
2.4613	1.17685	4.96199	0	
2.4620	1.17685	1.89559	0	
2.4627	3.0262	-4.51597	0	
2.4633	1.47107	-9.08768	0	
2.4640	-0.966701	-7.86113	0	
2.4647	0.546396	-5.74252	0	
2.4653	1.17685	-4.79473	0	
2.4660	-0.336244	-2.67613	0	
2.4667	0.252183	-2.39736	0	
2.4673	0.546396	-4.18145	0	
2.4680	-0.336244	-6.02129	0	
2.4687	-0.336244	-6.96908	0	
2.4693	-2.18559	-7.24785	0	
2.4700	-4.32914	-6.02129	0	
2.4707	-3.40447	-5.12925	0	
2.4713	-3.40447	-3.90269	0	
2.4720	-3.11026	-1.78409	0	
2.4727	-0.966701	0.0557527	0	
2.4733	-0.966701	1.28231	0	
2.4740	-2.18559	2.17435	0	
2.4747	-0.672488	3.12215	0	
2.4753	0.546396	4.96199	0	
2.4760	0.88264	5.57527	0	
2.4767	2.10152	4.96199	0	
2.4773	1.17685	5.24075	0	
2.4780	0.252183	7.4151	0	
2.4787	2.39574	10.147	0	
2.4793	2.39574	12.6001	0	
2.4800	0.546396	14.3842	0	
2.4807	2.10152	16.224	0	
2.4813	4.24508	15.9453	0	
2.4820	3.32041	15.9453	0	
2.4827	3.0262	14.7187	0	
2.4833	3.32041	-3.90269	0	
2.4840	-0.672488	-35.3472	0	
2.4847	-3.40447	-49.0623	0	
2.4853	-1.26091	-38.4136	0	
2.4860	-0.966701	-27.0958	0	
2.4867	-2.4798	-24.3639	0	
2.4873	-0.0420305	-24.0294	0	
2.4880	0.88264	-24.3639	0	
2.4887	-3.9929	-22.1896	0	
2.4893	-4.91757	-17.9524	0	
2.4900	-1.26091	-16.1125	0	
2.4907	-1.26091	-15.2205	0	
2.4913	-3.11026	-13.9939	0	
2.4920	-2.4798	-11.8196	0	
2.4927	-1.89137	-8.19564	0	
2.4933	-0.966701	-6.02129	0	
2.4940	1.17685	-9.70096	0	
2.4947	2.10152	-13.3806	0	
2.4953	1.47107	-14.6072	0	
2.4960	0.252183	-16.1125	0	
2.4967	-1.55513	-18.5656	0	
2.4973	0.252183	-19.7922	0	
2.4980	3.32041	-18.2311	0	
2.4987	3.32041	-12.7674	0	
2.4993	1.47107	-9.70096	0	
2.5000	0.252183	-9.97973	0	
2.5007	1.17685	-7.58236	0	
2.5013	2.10152	-1.78409	0	
2.5020	0.252183	3.12215	0	
2.5027	-1.89137	8.58591	0	
2.5033	-2.4798	14.1054	0	
2.5040	-3.40447	16.224	0	
2.5047	-4.91757	14.9975	0	
2.5053	-3.69868	10.4257	0	
2.5060	-3.11026	5.85403	0	
2.5067	-4.32914	4.34871	0	
2.5073	-5.25381	3.12215	0	
2.5080	-5.25381	-0.557527	0	
2.5087	-4.32914	0.0557527	0	
2.5093	-4.91757	4.01419	0	
2.5100	-5.84224	4.96199	0	
2.5107	-4.62335	4.62747	0	
2.5113	-3.9929	5.85403	0	
2.5120	-4.32914	5.57527	0	
2.5127	-1.89137	5.24075	0	
2.5133	-0.0420305	6.80183	0	
2.5140	-1.26091	5.85403	0	
2.5147	-1.26091	4.62747	0	
2.5153	-0.672488	5.85403	0	
2.5160	-1.26091	7.08059	0	
2.5167	1.17685	8.30715	0	
2.5173	3.90884	7.97263	0	
2.5180	5.12772	5.85403	0	
2.5187	5.12772	6.46731	0	
2.5193	3.0262	6.80183	0	
2.5200	1.17685	2.50887	0	
2.5207	2.10152	-2.06285	0	
2.5213	2.39574	-3.28941	0	
2.5220	1.17685	-3.90269	0	
2.5227	1.76528	-3.62392	0	
2.5233	2.10152	-4.79473	0	
2.5240	1.47107	-9.97973	0	
2.5247	2.39574	-12.7674	0	
2.5253	1.17685	-14.886	0	
2.5260	-0.966701	-21.9108	0	
2.5267	1.17685	-24.3639	0	
2.5273	2.39574	-17.3391	0	
2.5280	-2.4798	-15.778	0	
2.5287	-4.91757	-21.9108	0	
2.5293	-3.40447	-25.8692	0	
2.5300	-1.89137	-23.4161	0	
2.5307	-0.672488	-19.1789	0	
2.5313	0.252183	-21.2975	0	
2.5320	0.252183	-30.1622	0	
2.5327	0.88264	-22.8028	0	
2.5333	-0.0420305	10.4257	0	
2.5340	-2.4798	46.442	0	
2.5347	-0.672488	76.3812	0	
2.5353	2.10152	105.986	0	
2.5360	0.252183	116.021	0	
2.5367	-0.0420305	92.2149	0	
2.5373	1.47107	58.9863	0	
2.5380	0.546396	36.964	0	
2.5387	0.252183	23.2489	0	
2.5393	3.0262	15.9453	0	
2.5400	3.0262	14.9975	0	
2.5407	3.0262	12.8789	0	
2.5413	3.90884	10.4257	0	
2.5420	4.53929	10.4257	0	
2.5427	4.24508	7.69387	0	
2.5433	3.61462	1.28231	0	
2.5440	1.47107	-1.17081	0	
2.5447	-0.672488	2.17435	0	
2.5453	-1.55513	4.62747	0	
2.5460	-0.672488	2.17435	0	
2.5467	-0.966701	0.390269	0	
2.5473	-3.40447	3.12215	0	
2.5480	-4.91757	3.12215	0	
2.5487	-2.18559	-5.12925	0	
2.5493	-0.336244	-9.70096	0	
2.5500	-2.18559	-8.80892	0	
2.5507	-3.9929	-10.593	0	
2.5513	-3.69868	-11.5408	0	
2.5520	-2.4798	-9.4222	0	
2.5527	-0.672488	-11.8196	0	
2.5533	-0.0420305	-16.1125	0	
2.5540	-1.26091	-14.6072	0	
2.5547	-1.55513	-12.7674	0	
2.5553	-0.336244	-10.593	0	
2.5560	-0.336244	-5.74252	0	
2.5567	-0.336244	-5.40801	0	
2.5573	1.47107	-9.4222	0	
2.5580	2.10152	-8.19564	0	
2.5587	1.76528	-4.79473	0	
2.5593	2.39574	-4.51597	0	
2.5600	2.39574	-4.79473	0	
2.5607	0.88264	-3.62392	0	
2.5613	2.10152	-3.01064	0	
2.5620	4.83351	-4.18145	0	
2.5627	2.10152	-3.62392	0	
2.5633	-2.18559	0.0557527	0	
2.5640	-0.966701	3.12215	0	
2.5647	1.17685	8.58591	0	
2.5653	-1.26091	15.332	0	
2.5660	-3.9929	17.4506	0	
2.5667	-5.25381	16.5585	0	
2.5673	-6.4727	10.147	0	
2.5680	-7.06112	-14.2727	0	
2.5687	-6.13645	-41.7587	0	
2.5693	-5.54803	-42.372	0	
2.5700	-5.54803	-23.4161	0	
2.5707	-6.13645	-15.2205	0	
2.5713	-6.13645	-17.9524	0	
2.5720	-4.62335	-18.5656	0	
2.5727	-3.69868	-17.9524	0	
2.5733	-3.9929	-22.1896	0	
2.5740	-2.4798	-21.5763	0	
2.5747	0.252183	-14.6072	0	
2.5753	2.10152	-13.3806	0	
2.5760	3.0262	-13.3806	0	
2.5767	3.0262	-0.83629	0	
2.5773	1.17685	5.85403	0	
2.5780	0.252183	-6.3558	0	
2.5787	1.17685	-13.3806	0	
2.5793	3.61462	-7.86113	0	
2.5800	4.83351	-9.08768	0	
2.5807	3.90884	-18.2311	0	
2.5813	2.68995	-20.6842	0	
2.5820	3.0262	-18.8444	0	
2.5827	3.0262	-14.6072	0	
2.5833	2.39574	-8.47441	0	
2.5840	2.10152	-6.96908	0	
2.5847	1.17685	-8.80892	0	
2.5853	-0.336244	-6.02129	0	
2.5860	-0.336244	-3.01064	0	
2.5867	2.10152	-4.18145	0	
2.5873	1.47107	-3.28941	0	
2.5880	-1.89137	0.0557527	0	
2.5887	-4.62335	1.28231	0	
2.5893	-4.91757	1.28231	0	
2.5900	-4.32914	2.17435	0	
2.5907	-3.69868	4.01419	0	
2.5913	-2.4798	7.69387	0	
2.5920	-2.18559	8.58591	0	
2.5927	-3.40447	5.24075	0	
2.5933	-3.40447	4.96199	0	
2.5940	-1.55513	7.08059	0	
2.5947	-1.26091	6.46731	0	
2.5953	-1.26091	4.96199	0	
2.5960	0.546396	3.12215	0	
2.5967	2.68995	-0.223011	0	
2.5973	2.10152	0.390269	0	
2.5980	0.252183	2.50887	0	
2.5987	0.88264	3.12215	0	
2.5993	3.0262	4.96199	0	
2.6000	2.39574	4.96199	0	
2.6007	0.546396	1.28231	0	
2.6013	1.17685	0.390269	0	
2.6020	2.10152	3.73543	0	
2.6027	0.88264	4.96199	0	
2.6033	-0.966701	5.24075	0	
2.6040	-0.966701	5.24075	0	
2.6047	0.88264	3.12215	0	
2.6053	1.76528	1.89559	0	
2.6060	-0.0420305	3.40091	0	
2.6067	-2.4798	4.01419	0	
2.6073	-1.55513	2.17435	0	
2.6080	-1.55513	2.50887	0	
2.6087	-3.40447	5.24075	0	
2.6093	-4.32914	4.62747	0	
2.6100	-4.62335	2.17435	0	
2.6107	-3.9929	4.96199	0	
2.6113	-3.11026	7.97263	0	
2.6120	-3.69868	6.46731	0	
2.6127	-4.91757	4.62747	0	
2.6133	-2.4798	4.62747	0	
2.6140	-1.26091	4.62747	0	
2.6147	-3.40447	4.96199	0	
2.6153	-3.40447	5.57527	0	
2.6160	-0.672488	4.96199	0	
2.6167	1.17685	4.62747	0	
2.6173	1.17685	3.73543	0	
2.6180	0.88264	3.40091	0	
2.6187	1.76528	4.96199	0	
2.6193	3.61462	5.24075	0	
2.6200	3.90884	3.73543	0	
2.6207	2.68995	1.28231	0	
2.6213	2.10152	-0.557527	0	
2.6220	1.17685	-0.557527	0	
2.6227	-1.26091	0.390269	0	
2.6233	-1.55513	0.669032	0	
2.6240	-0.672488	2.17435	0	
2.6247	-0.672488	3.73543	0	
2.6253	-1.55513	0.0557527	0	
2.6260	-1.26091	-3.01064	0	
2.6267	-0.336244	0.390269	0	
2.6273	-0.966701	4.01419	0	
2.6280	-0.966701	4.34871	0	
2.6287	0.252183	4.62747	0	
2.6293	-1.55513	3.40091	0	
2.6300	-5.25381	2.50887	0	
2.6307	-5.84224	4.01419	0	
2.6313	-4.32914	4.34871	0	
2.6320	-3.69868	3.40091	0	
2.6327	-2.4798	4.01419	0	
2.6333	0.546396	3.40091	0	
2.6340	0.546396	2.17435	0	
2.6347	-0.336244	4.34871	0	
2.6353	1.17685	4.62747	0	
2.6360	2.39574	2.78763	0	
2.6367	0.88264	4.96199	0	
2.6373	0.88264	7.08059	0	
2.6380	3.0262	5.57527	0	
2.6387	3.0262	7.4151	0	
2.6393	3.32041	11.3735	0	
2.6400	5.75818	9.81247	0	
2.6407	7.27128	10.4257	0	
2.6413	6.68285	13.2134	0	
2.6420	5.75818	10.7603	0	
2.6427	3.0262	11.3735	0	
2.6433	1.47107	10.4257	0	
2.6440	3.32041	-14.2727	0	
2.6447	2.10152	-47.2225	0	
2.6453	-1.89137	-50.2889	0	
2.6460	-0.672488	-34.3994	0	
2.6467	1.17685	-24.9772	0	
2.6473	-3.9929	-19.7922	0	
2.6480	-4.62335	-19.7922	0	
2.6487	2.39574	-25.5905	0	
2.6493	1.76528	-27.3746	0	
2.6500	-6.13645	-29.2144	0	
2.6507	-5.84224	-35.9605	0	
2.6513	-0.672488	-37.187	0	
2.6520	-1.55513	-33.5074	0	
2.6527	-4.32914	-16.1125	0	
2.6533	-2.77401	30.887	0	
2.6540	-1.89137	78.1652	0	
2.6547	-1.55513	87.3644	0	
2.6553	-0.336244	69.6351	0	
2.6560	-1.55513	48.8951	0	
2.6567	-2.77401	28.1551	0	
2.6573	1.17685	14.1054	0	
2.6580	3.90884	6.18855	0	
2.6587	0.252183	-4.18145	0	
2.6593	-0.672488	-11.5408	0	
2.6600	3.32041	-14.2727	0	
2.6607	3.61462	-21.5763	0	
2.6613	0.252183	-26.2038	0	
2.6620	-1.26091	-21.5763	0	
2.6627	-0.336244	-18.8444	0	
2.6633	0.546396	-19.4577	0	
2.6640	0.546396	-13.9939	0	
2.6647	-0.966701	-6.3558	0	
2.6653	-1.26091	-1.17081	0	
2.6660	-0.672488	3.12215	0	
2.6667	-0.672488	3.12215	0	
2.6673	-0.672488	-0.557527	0	
2.6680	-1.55513	-2.67613	0	
2.6687	-3.69868	-6.96908	0	
2.6693	-2.4798	-10.593	0	
2.6700	-2.18559	-9.08768	0	
2.6707	-5.25381	-13.3806	0	
2.6713	-4.62335	-27.0958	0	
2.6720	-1.55513	-25.256	0	
2.6727	-1.89137	-12.1541	0	
2.6733	-2.18559	-7.58236	0	
2.6740	-1.55513	6.46731	0	
2.6747	-2.4798	39.4171	0	
2.6753	-1.55513	52.2402	0	
2.6760	0.88264	32.3923	0	
2.6767	1.47107	15.332	0	
2.6773	3.0262	12.6001	0	
2.6780	4.24508	8.92043	0	
2.6787	5.12772	6.80183	0	
2.6793	7.90173	9.53371	0	
2.6800	8.19595	7.97263	0	
2.6807	5.75818	3.12215	0	
2.6813	6.68285	3.73543	0	
2.6820	6.34661	6.46731	0	
2.6827	2.68995	3.40091	0	
2.6833	2.10152	-0.557527	0	
2.6840	2.39574	-0.557527	0	
2.6847	-0.672488	-1.44957	0	
2.6853	-1.55513	-3.28941	0	
2.6860	-0.336244	-2.67613	0	
2.6867	-0.966701	-2.39736	0	
2.6873	-1.55513	-4.18145	0	
2.6880	-1.89137	-4.79473	0	
2.6887	-2.4798	-5.12925	0	
2.6893	-2.4798	-7.58236	0	
2.6900	-1.55513	-6.63457	0	
2.6907	-2.4798	-3.28941	0	
2.6913	-3.69868	-3.01064	0	
2.6920	-3.69868	-4.51597	0	
2.6927	-3.40447	-3.90269	0	
2.6933	-4.91757	-3.01064	0	
2.6940	-4.62335	-3.28941	0	
2.6947	-0.672488	-2.67613	0	
2.6953	0.252183	-2.06285	0	
2.6960	-3.69868	-2.06285	0	
2.6967	-3.40447	-0.557527	0	
2.6973	0.546396	2.78763	0	
2.6980	0.252183	4.01419	0	
2.6987	-0.672488	4.01419	0	
2.6993	0.88264	6.18855	0	
2.7000	0.252183	7.69387	0	
2.7007	-1.55513	2.50887	0	
2.7013	-0.0420305	-7.86113	0	
2.7020	3.0262	-17.3391	0	
2.7027	3.90884	-23.4161	0	
2.7033	1.17685	-23.1374	0	
2.7040	-0.672488	-18.2311	0	
2.7047	0.252183	-14.6072	0	
2.7053	-0.336244	-12.4328	0	
2.7060	-2.18559	-10.593	0	
2.7067	-2.4798	-9.4222	0	
2.7073	-3.9929	-9.08768	0	
2.7080	-5.84224	-6.02129	0	
2.7087	-3.69868	0.669032	0	
2.7093	-0.966701	6.80183	0	
2.7100	-1.89137	6.80183	0	
2.7107	-3.69868	3.40091	0	
2.7113	-3.40447	9.53371	0	
2.7120	-2.18559	22.0223	0	
2.7127	-1.55513	21.7435	0	
2.7133	-1.89137	9.19919	0	
2.7140	-0.336244	-0.223011	0	
2.7147	2.10152	-4.51597	0	
2.7153	2.10152	-11.5408	0	
2.7160	2.39574	-27.0958	0	
2.7167	3.32041	-47.2225	0	
2.7173	2.10152	-53.9686	0	
2.7180	2.39574	-45.7172	0	
2.7187	3.90884	-42.6508	0	
2.7193	3.32041	-33.1728	0	
2.7200	4.53929	13.2134	0	
2.7207	5.75818	74.5413	0	
2.7213	3.0262	104.146	0	
2.7220	2.10152	98.3477	0	
2.7227	3.90884	69.9696	0	
2.7233	3.0262	25.3675	0	
2.7240	2.68995	-7.58236	0	
2.7247	4.83351	-7.86113	0	
2.7253	3.90884	3.40091	0	
2.7260	3.32041	4.01419	0	
2.7267	3.0262	1.61683	0	
2.7273	0.252183	3.40091	0	
2.7280	-0.672488	3.12215	0	
2.7287	-0.336244	2.50887	0	
2.7293	-3.40447	5.85403	0	
2.7300	-4.62335	5.85403	0	
2.7307	-2.4798	1.89559	0	
2.7313	-1.55513	1.28231	0	
2.7320	-1.55513	1.28231	0	
2.7327	-1.89137	0.669032	0	
2.7333	-2.77401	6.46731	0	
2.7340	-1.55513	12.2656	0	
2.7347	2.10152	12.6001	0	
2.7353	2.10152	14.3842	0	
2.7360	-1.89137	10.4257	0	
2.7367	-3.40447	-0.223011	0	
2.7373	0.88264	-0.223011	0	
2.7380	3.61462	3.73543	0	
2.7387	0.88264	-5.12925	0	
2.7393	-0.672488	-13.3806	0	
2.7400	1.17685	-18.2311	0	
2.7407	0.252183	-30.7755	0	
2.7413	-1.89137	-44.2119	0	
2.7420	-0.672488	-53.0208	0	
2.7427	0.546396	-51.7942	0	
2.7433	0.252183	-18.8444	0	
2.7440	-0.336244	25.9807	0	
2.7447	-0.672488	34.5667	0	
2.7453	-1.55513	13.7709	0	
2.7460	-3.40447	2.50887	0	
2.7467	-4.32914	1.61683	0	
2.7473	-3.69868	-2.06285	0	
2.7480	-2.4798	-5.40801	0	
2.7487	-2.4798	-6.02129	0	
2.7493	-2.18559	-4.51597	0	
2.7500	-2.18559	-3.90269	0	
2.7507	-2.77401	-6.3558	0	
2.7513	-2.77401	-7.86113	0	
2.7520	-2.4798	-7.86113	0	
2.7527	-3.40447	-9.08768	0	
2.7533	-2.77401	-8.80892	0	
2.7540	-2.18559	-5.74252	0	
2.7547	-3.69868	-4.79473	0	
2.7553	-3.69868	-4.79473	0	
2.7560	-1.26091	-4.18145	0	
2.7567	-1.26091	-5.12925	0	
2.7573	-0.966701	-5.40801	0	
2.7580	1.76528	-3.01064	0	
2.7587	2.10152	1.61683	0	
2.7593	1.17685	6.46731	0	
2.7600	3.90884	9.19919	0	
2.7607	5.75818	7.69387	0	
2.7613	2.68995	5.85403	0	
2.7620	1.17685	6.18855	0	
2.7627	1.76528	6.46731	0	
2.7633	-0.336244	5.24075	0	
2.7640	-0.0420305	4.34871	0	
2.7647	3.0262	3.12215	0	
2.7653	1.17685	2.17435	0	
2.7660	-2.4798	2.78763	0	
2.7667	-2.18559	3.12215	0	
2.7673	-2.18559	1.28231	0	
2.7680	-3.40447	0.390269	0	
2.7687	-1.55513	2.17435	0	
2.7693	0.252183	1.61683	0	
2.7700	-1.55513	-3.28941	0	
2.7707	-3.11026	-5.12925	0	
2.7713	-2.18559	-1.78409	0	
2.7720	-1.26091	2.17435	0	
2.7727	-0.672488	4.01419	0	
2.7733	0.252183	2.17435	0	
2.7740	-0.0420305	-0.557527	0	
2.7747	0.252183	-0.557527	0	
2.7753	0.252183	-1.78409	0	
2.7760	-0.672488	-5.12925	0	
2.7767	-0.672488	-5.74252	0	
2.7773	2.68995	-5.74252	0	
2.7780	3.90884	-6.02129	0	
2.7787	0.88264	-2.39736	0	
2.7793	-0.672488	-0.83629	0	
2.7800	2.10152	-5.12925	0	
2.7807	3.61462	-7.58236	0	
2.7813	3.32041	-7.24785	0	
2.7820	4.53929	-6.96908	0	
2.7827	4.53929	-3.90269	0	
2.7833	1.17685	-1.44957	0	
2.7840	-0.336244	-2.39736	0	
2.7847	1.76528	-2.39736	0	
2.7853	2.68995	-2.06285	0	
2.7860	-0.672488	-6.96908	0	
2.7867	-2.77401	-11.5408	0	
2.7873	-0.0420305	-11.8196	0	
2.7880	2.10152	-10.3142	0	
2.7887	-0.966701	-9.4222	0	
2.7893	-2.4798	-10.593	0	
2.7900	-0.336244	-10.593	0	
2.7907	-0.966701	-7.58236	0	
2.7913	-3.9929	-4.18145	0	
2.7920	-2.4798	-3.28941	0	
2.7927	-0.672488	-5.12925	0	
2.7933	-4.32914	-10.3142	0	
2.7940	-5.25381	-12.7674	0	
2.7947	-0.672488	-10.9275	0	
2.7953	2.39574	-12.7674	0	
2.7960	-0.672488	-15.4992	0	
2.7967	-1.55513	-13.9939	0	
2.7973	3.32041	-16.7258	0	
2.7980	5.12772	-20.6842	0	
2.7987	0.252183	-15.2205	0	
2.7993	-1.55513	-6.96908	0	
2.8000	-1.26091	-9.70096	0	
2.8007	-3.9929	-22.5241	0	
2.8013	-3.69868	-27.7091	0	
2.8020	-0.0420305	-2.06285	0	
2.8027	-0.672488	49.1739	0	
2.8033	-1.89137	88.2565	0	
2.8040	0.252183	94.3893	0	
2.8047	-0.966701	79.7263	0	
2.8053	-2.18559	64.1713	0	
2.8060	-0.336244	60.1571	0	
2.8067	-0.672488	52.5748	0	
2.8073	-0.966701	21.7435	0	
2.8080	0.546396	-9.08768	0	
2.8087	-1.55513	-10.593	0	
2.8093	-3.9929	1.28231	0	
2.8100	-2.4798	6.80183	0	
2.8107	-1.26091	10.147	0	
2.8113	-2.4798	13.4921	0	
2.8120	-3.40447	14.3842	0	
2.8127	-3.40447	12.2656	0	
2.8133	-1.89137	7.97263	0	
2.8140	-0.672488	4.01419	0	
2.8147	-2.18559	1.00355	0	
2.8153	-2.4798	-2.06285	0	
2.8160	-0.336244	-4.18145	0	
2.8167	-0.672488	-7.58236	0	
2.8173	-0.672488	-14.886	0	
2.8180	1.47107	-22.5241	0	
2.8187	3.0262	-26.2038	0	
2.8193	3.0262	-27.0958	0	
2.8200	4.24508	-24.9772	0	
2.8207	4.53929	-23.7506	0	
2.8213	2.68995	-25.256	0	
2.8220	1.17685	-22.8028	0	
2.8227	1.17685	-17.3391	0	
2.8233	1.76528	-15.4992	0	
2.8240	3.90884	-13.9939	0	
2.8247	4.24508	-11.5408	0	
2.8253	1.76528	-12.7674	0	
2.8260	0.252183	-13.6594	0	
2.8267	0.546396	-9.4222	0	
2.8273	0.88264	-6.96908	0	
2.8280	1.47107	-6.96908	0	
2.8287	0.88264	-4.79473	0	
2.8293	-3.9929	-2.39736	0	
2.8300	-6.4727	-1.44957	0	
2.8307	-1.89137	0.390269	0	
2.8313	1.47107	1.28231	0	
2.8320	-0.672488	0.390269	0	
2.8327	-2.4798	0.390269	0	
2.8333	-2.18559	1.28231	0	
2.8340	-3.40447	1.28231	0	
2.8347	-3.40447	-0.83629	0	
2.8353	-0.0420305	-4.51597	0	
2.8360	2.10152	-3.90269	0	
2.8367	1.17685	1.89559	0	
2.8373	0.252183	3.73543	0	
2.8380	1.47107	2.78763	0	
2.8387	3.90884	4.62747	0	
2.8393	5.12772	4.34871	0	
2.8400	4.53929	2.78763	0	
2.8407	3.32041	4.62747	0	
2.8413	3.0262	5.24075	0	
2.8420	2.39574	3.12215	0	
2.8427	1.17685	2.17435	0	
2.8433	-0.336244	-1.44957	0	
2.8440	-2.77401	-7.86113	0	
2.8447	-4.32914	-11.5408	0	
2.8453	-3.40447	-12.7674	0	
2.8460	-3.40447	-12.4328	0	
2.8467	-3.40447	-10.593	0	
2.8473	-1.55513	-9.70096	0	
2.8480	-0.966701	-7.58236	0	
2.8487	-2.4798	-4.18145	0	
2.8493	-3.9929	-4.51597	0	
2.8500	-5.25381	-6.3558	0	
2.8507	-6.13645	-5.12925	0	
2.8513	-4.32914	-3.28941	0	
2.8520	-1.55513	-1.44957	0	
2.8527	-0.672488	2.78763	0	
2.8533	-3.11026	4.96199	0	
2.8540	-5.25381	3.12215	0	
2.8547	-3.40447	3.73543	0	
2.8553	2.10152	4.96199	0	
2.8560	3.90884	4.01419	0	
2.8567	2.39574	2.17435	0	
2.8573	3.61462	1.89559	0	
2.8580	5.75818	1.61683	0	
2.8587	4.83351	-0.557527	0	
2.8593	3.0262	-4.18145	0	
2.8600	3.32041	-5.40801	0	
2.8607	6.68285	-6.96908	0	
2.8613	8.49016	-12.1541	0	
2.8620	6.68285	-17.9524	0	
2.8627	3.32041	-22.1896	0	
2.8633	1.76528	-27.9878	0	
2.8640	0.546396	-35.3472	0	
2.8647	-0.672488	-31.6675	0	
2.8653	0.252183	-4.18145	0	
2.8660	2.10152	38.1906	0	
2.8667	1.17685	60.1571	0	
2.8673	-1.55513	50.4004	0	
2.8680	-2.4798	31.1657	0	
2.8687	-2.4798	18.0639	0	
2.8693	-3.11026	11.6523	0	
2.8700	-2.4798	11.3735	0	
2.8707	-0.966701	12.8789	0	
2.8713	-1.89137	10.7603	0	
2.8720	-3.11026	7.4151	0	
2.8727	-2.4798	6.18855	0	
2.8733	-1.89137	6.18855	0	
2.8740	-0.966701	6.18855	0	
2.8747	-0.672488	7.08059	0	
2.8753	-0.0420305	8.30715	0	
2.8760	2.39574	7.08059	0	
2.8767	4.24508	4.96199	0	
2.8773	1.47107	4.01419	0	
2.8780	-1.26091	2.50887	0	
2.8787	1.17685	1.61683	0	
2.8793	3.90884	4.01419	0	
2.8800	3.32041	4.34871	0	
2.8807	3.90884	2.50887	0	
2.8813	5.75818	1.28231	0	
2.8820	3.90884	-4.18145	0	
2.8827	1.76528	-10.593	0	
2.8833	1.47107	-6.96908	0	
2.8840	2.39574	0.390269	0	
2.8847	3.0262	-0.557527	0	
2.8853	3.32041	-0.557527	0	
2.8860	2.10152	1.61683	0	
2.8867	0.88264	-1.44957	0	
2.8873	0.88264	1.00355	0	
2.8880	0.252183	3.12215	0	
2.8887	-2.18559	-17.0046	0	
2.8893	-4.32914	-43.5986	0	
2.8900	-3.11026	-42.6508	0	
2.8907	1.17685	-26.2038	0	
2.8913	1.17685	-13.6594	0	
2.8920	-2.4798	0.390269	0	
2.8927	-3.40447	8.58591	0	
2.8933	-2.18559	1.00355	0	
2.8940	-0.966701	-6.02129	0	
2.8947	0.252183	-8.80892	0	
2.8953	-1.26091	-17.9524	0	
2.8960	-3.40447	-10.593	0	
2.8967	-0.672488	30.6082	0	
2.8973	2.39574	68.1298	0	
2.8980	0.252183	65.9554	0	
2.8987	-0.672488	37.9118	0	
2.8993	0.88264	11.9868	0	
2.9000	-0.336244	-0.557527	0	
2.9007	-0.336244	-0.557527	0	
2.9013	1.47107	1.28231	0	
2.9020	0.88264	-5.12925	0	
2.9027	-0.672488	-11.2063	0	
2.9033	1.17685	-13.0461	0	
2.9040	1.17685	-18.2311	0	
2.9047	-1.55513	-26.4825	0	
2.9053	-4.91757	-27.7091	0	
2.9060	-6.76691	-24.0294	0	
2.9067	-5.54803	-25.256	0	
2.9073	-2.4798	-30.441	0	
2.9080	-1.55513	-32.6153	0	
2.9087	-2.77401	-31.6675	0	
2.9093	-4.32914	-26.2038	0	
2.9100	-4.91757	-17.9524	0	
2.9107	-2.4798	-14.6072	0	
2.9113	-0.0420305	-13.3806	0	
2.9120	-2.4798	-1.78409	0	
2.9127	-5.54803	12.8789	0	
2.9133	-4.32914	16.224	0	
2.9140	-1.89137	20.517	0	
2.9147	-0.966701	35.1799	0	
2.9153	0.252183	41.5915	0	
2.9160	2.10152	33.3401	0	
2.9167	2.10152	23.8621	0	
2.9173	2.39574	18.6771	0	
2.9180	3.0262	12.2656	0	
2.9187	2.10152	3.12215	0	
2.9193	1.17685	-5.12925	0	
2.9200	2.10152	-7.58236	0	
2.9207	3.0262	-5.40801	0	
2.9213	1.76528	-4.18145	0	
2.9220	1.76528	-4.18145	0	
2.9227	2.10152	-2.67613	0	
2.9233	0.546396	-1.44957	0	
2.9240	-0.672488	-1.44957	0	
2.9247	0.252183	-3.90269	0	
2.9253	0.252183	-5.12925	0	
2.9260	-0.672488	-0.557527	0	
2.9267	-0.672488	5.24075	0	
2.9273	-0.966701	7.69387	0	
2.9280	-1.55513	10.147	0	
2.9287	-3.11026	11.039	0	
2.9293	-3.9929	7.08059	0	
2.9300	-3.9929	4.96199	0	
2.9307	-4.62335	7.69387	0	
2.9313	-5.84224	9.81247	0	
2.9320	-5.25381	7.97263	0	
2.9327	-4.62335	4.34871	0	
2.9333	-4.62335	0.669032	0	
2.9340	-2.77401	-2.67613	0	
2.9347	-0.336244	-5.74252	0	
2.9353	-0.336244	-7.86113	0	
2.9360	-1.55513	-9.97973	0	
2.9367	-0.336244	-13.0461	0	
2.9373	2.10152	-13.9939	0	
2.9380	3.32041	-11.8196	0	
2.9387	3.0262	-10.593	0	
2.9393	2.10152	-11.5408	0	
2.9400	3.0262	-12.4328	0	
2.9407	2.10152	-14.6072	0	
