0.0000	1.34849	-33.5931	1
0.0007	0.449498	-32.095	0	
0.0013	1.6754	6.97216	0	
0.0020	5.0262	47.5375	0	
0.0027	5.92519	52.1472	0	
0.0033	4.1272	34.4575	0	
0.0040	1.34849	15.212	0	
0.0047	1.34849	-0.345727	0	
0.0053	3.18735	-11.6395	0	
0.0060	1.6754	-22.6451	0	
0.0067	-1.06245	-29.3292	0	
0.0073	-1.6754	-24.7771	0	
0.0080	-1.38936	-18.6693	0	
0.0087	-2.28835	-19.8793	0	
0.0093	-2.61526	-16.8254	0	
0.0100	-2.28835	-2.82344	0	
0.0107	-1.6754	11.5242	0	
0.0113	-1.6754	14.9239	0	
0.0120	-1.38936	12.1581	0	
0.0127	-1.06245	12.1581	0	
0.0133	-1.38936	14.5782	0	
0.0140	-2.61526	16.1339	0	
0.0147	-3.22821	19.1879	0	
0.0153	-2.9013	23.4518	0	
0.0160	-1.38936	22.5299	0	
0.0167	0.449498	14.9239	0	
0.0173	1.6754	6.68406	0	
0.0180	1.96144	1.78626	0	
0.0187	0.449498	-0.345727	0	
0.0193	-0.490361	-1.26767	0	
0.0200	0.12259	-4.32159	0	
0.0207	1.6754	-8.00934	0	
0.0213	3.18735	-5.53163	0	
0.0220	4.1272	3.91824	0	
0.0227	5.0262	9.73798	0	
0.0233	5.92519	7.8941	0	
0.0240	5.0262	2.9963	0	
0.0247	1.34849	-2.1896	0	
0.0253	0.735541	-4.32159	0	
0.0260	1.6754	-2.47771	0	
0.0267	0.12259	-1.26767	0	
0.0273	-1.06245	-2.47771	0	
0.0280	1.06245	-1.55577	0	
0.0287	0.735541	2.9963	0	
0.0293	-1.38936	8.18221	0	
0.0300	-2.28835	10.948	0	
0.0307	-3.22821	9.39225	0	
0.0313	-3.22821	4.84018	0	
0.0320	-2.9013	0.576212	0	
0.0327	-2.9013	-1.9015	0	
0.0333	-2.28835	-2.82344	0	
0.0340	-1.38936	-2.82344	0	
0.0347	-1.6754	-7.37551	0	
0.0353	-1.6754	-18.3812	0	
0.0360	-2.61526	-26.621	0	
0.0367	-4.1272	-21.0894	0	
0.0373	-2.61526	-4.32159	0	
0.0380	-1.06245	10.6599	0	
0.0387	-1.06245	13.6562	0	
0.0393	1.34849	11.2361	0	
0.0400	4.1272	10.948	0	
0.0407	2.28835	10.6599	0	
0.0413	1.34849	6.05022	0	
0.0420	4.1272	2.7082	0	
0.0427	5.0262	4.84018	0	
0.0433	3.8003	5.41639	0	
0.0440	2.57439	2.9963	0	
0.0447	1.6754	1.49815	0	
0.0453	1.34849	-0.97956	0	
0.0460	2.28835	-4.03348	0	
0.0467	1.96144	-1.26767	0	
0.0473	-0.490361	3.91824	0	
0.0480	-1.6754	4.20635	0	
0.0487	-2.28835	4.55207	0	
0.0493	-2.28835	6.97216	0	
0.0500	-1.38936	9.10415	0	
0.0507	-2.28835	14.5782	0	
0.0513	-4.1272	10.0261	0	
0.0520	-3.84116	-16.2492	0	
0.0527	-3.51425	-32.7288	0	
0.0533	-5.35311	-18.0354	0	
0.0540	-5.06706	-4.03348	0	
0.0547	-3.22821	-3.68776	0	
0.0553	-1.38936	3.91824	0	
0.0560	1.96144	16.7101	0	
0.0567	4.1272	15.8458	0	
0.0573	1.6754	3.91824	0	
0.0580	-0.490361	-4.60969	0	
0.0587	-1.38936	-0.633833	0	
0.0593	-1.38936	9.39225	0	
0.0600	2.28835	9.73798	0	
0.0607	4.1272	3.63013	0	
0.0613	2.28835	4.20635	0	
0.0620	1.34849	4.20635	0	
0.0627	3.8003	-1.26767	0	
0.0633	6.2521	-2.1896	0	
0.0640	6.2521	-2.1896	0	
0.0647	3.51425	-6.16547	0	
0.0653	1.06245	-9.50749	0	
0.0660	0.449498	-19.3031	0	
0.0667	0.12259	-37.2809	0	
0.0673	0.449498	-50.9947	0	
0.0680	-0.490361	-65.3424	0	
0.0687	-3.51425	-77.8462	0	
0.0693	-3.22821	-57.1026	0	
0.0700	0.449498	-3.11154	0	
0.0707	0.12259	40.8534	0	
0.0713	-2.00231	48.4594	0	
0.0720	-0.490361	31.6916	0	
0.0727	1.34849	13.3681	0	
0.0733	0.735541	2.42009	0	
0.0740	-1.38936	-6.74168	0	
0.0747	-2.61526	-6.45357	0	
0.0753	-1.6754	11.5242	0	
0.0760	-1.38936	23.4518	0	
0.0767	-0.490361	17.0559	0	
0.0773	1.34849	10.3142	0	
0.0780	1.06245	9.10415	0	
0.0787	-1.6754	6.05022	0	
0.0793	1.34849	4.20635	0	
0.0800	4.1272	2.9963	0	
0.0807	0.735541	0.864318	0	
0.0813	1.96144	2.42009	0	
0.0820	5.63915	3.91824	0	
0.0827	3.18735	1.78626	0	
0.0833	2.28835	2.7082	0	
0.0840	6.2521	4.20635	0	
0.0847	4.41325	2.07436	0	
0.0853	1.96144	0.864318	0	
0.0860	3.51425	2.42009	0	
0.0867	2.28835	2.42009	0	
0.0873	0.735541	0.864318	0	
0.0880	3.18735	-4.95542	0	
0.0887	2.9013	-12.5614	0	
0.0893	-0.490361	-14.9815	0	
0.0900	-2.9013	-14.4053	0	
0.0907	-5.35311	-15.9034	0	
0.0913	-5.06706	-15.3272	0	
0.0920	-2.28835	-11.3514	0	
0.0927	-4.1272	-6.16547	0	
0.0933	-7.80491	-0.0576212	0	
0.0940	-5.35311	-0.0576212	0	
0.0947	-2.28835	-8.29745	0	
0.0953	-5.63915	-13.1952	0	
0.0960	-10.2159	-12.8495	0	
0.0967	-9.03081	-11.6395	0	
0.0973	-4.74016	-9.7956	0	
0.0980	-3.22821	-11.6395	0	
0.0987	-3.22821	-23.2213	0	
0.0993	-1.6754	-39.701	0	
0.1000	-2.00231	-57.4483	0	
0.1007	-1.6754	-48.8628	0	
0.1013	1.34849	22.5299	0	
0.1020	1.96144	115.012	0	
0.1027	-0.776405	136.389	0	
0.1033	0.449498	88.7366	0	
0.1040	3.18735	46.9613	0	
0.1047	2.9013	31.6916	0	
0.1053	4.1272	25.2957	0	
0.1060	4.69929	24.6619	0	
0.1067	1.6754	23.4518	0	
0.1073	0.12259	16.7101	0	
0.1080	0.449498	13.3681	0	
0.1087	-1.38936	13.08	0	
0.1093	-2.28835	10.948	0	
0.1100	-1.38936	11.2361	0	
0.1107	-1.06245	11.5242	0	
0.1113	-2.9013	7.8941	0	
0.1120	-4.74016	5.12828	0	
0.1127	-5.06706	4.20635	0	
0.1133	-4.1272	-1.9015	0	
0.1140	-3.22821	-8.58556	0	
0.1147	-2.61526	-8.58556	0	
0.1153	-2.61526	-7.0874	0	
0.1160	-2.61526	-8.87366	0	
0.1167	-1.38936	-9.7956	0	
0.1173	-0.490361	-7.66362	0	
0.1180	-0.490361	-7.66362	0	
0.1187	1.34849	-9.50749	0	
0.1193	3.18735	-7.37551	0	
0.1200	1.34849	-0.97956	0	
0.1207	-0.163454	5.12828	0	
0.1213	1.6754	9.10415	0	
0.1220	2.9013	11.5242	0	
0.1227	3.18735	12.4462	0	
0.1233	3.8003	12.4462	0	
0.1240	3.18735	11.87	0	
0.1247	2.57439	11.5242	0	
0.1253	3.51425	10.948	0	
0.1260	2.28835	9.10415	0	
0.1267	0.449498	2.42009	0	
0.1273	1.34849	-4.95542	0	
0.1280	1.06245	-4.03348	0	
0.1287	0.12259	-7.66362	0	
0.1293	-0.490361	-29.963	0	
0.1300	-1.06245	-52.5505	0	
0.1307	-0.490361	-51.3405	0	
0.1313	1.06245	-36.9928	0	
0.1320	-1.38936	-29.0411	0	
0.1327	-4.1272	-26.621	0	
0.1333	-2.28835	-24.1433	0	
0.1340	-0.776405	-24.1433	0	
0.1347	-2.61526	-25.699	0	
0.1353	-2.28835	-23.2213	0	
0.1360	0.449498	-18.6693	0	
0.1367	1.6754	-16.8254	0	
0.1373	-0.490361	-14.9815	0	
0.1380	-2.28835	-14.0596	0	
0.1387	1.34849	-20.5131	0	
0.1393	5.92519	-31.1731	0	
0.1400	3.8003	-37.569	0	
0.1407	3.18735	-43.1006	0	
0.1413	6.86505	-37.2809	0	
0.1420	6.86505	0.864318	0	
0.1427	4.41325	51.8591	0	
0.1433	4.41325	71.9689	0	
0.1440	4.1272	57.045	0	
0.1447	2.28835	34.1117	0	
0.1453	1.96144	14.2901	0	
0.1460	0.449498	-1.26767	0	
0.1467	-0.490361	-7.37551	0	
0.1473	1.34849	-6.74168	0	
0.1480	2.57439	-7.66362	0	
0.1487	-0.490361	-8.87366	0	
0.1493	-3.51425	-4.95542	0	
0.1500	-4.1272	2.9963	0	
0.1507	-2.9013	6.68406	0	
0.1513	-3.51425	5.12828	0	
0.1520	-5.06706	6.05022	0	
0.1527	-5.35311	8.81604	0	
0.1533	-5.63915	7.26027	0	
0.1540	-5.06706	4.84018	0	
0.1547	-4.45411	7.606	0	
0.1553	-4.45411	10.6599	0	
0.1560	-3.51425	10.6599	0	
0.1567	-1.38936	9.73798	0	
0.1573	-1.38936	4.20635	0	
0.1580	-2.28835	-6.74168	0	
0.1587	-1.06245	-18.6693	0	
0.1593	-0.776405	-29.3292	0	
0.1600	-0.490361	-37.2809	0	
0.1607	2.28835	-47.6527	0	
0.1613	3.51425	-64.1324	0	
0.1620	3.18735	-71.7384	0	
0.1627	2.9013	-74.2161	0	
0.1633	1.34849	-93.7497	0	
0.1640	0.449498	-109.307	0	
0.1647	2.9013	-84.2998	0	
0.1653	3.18735	-36.359	0	
0.1660	0.12259	12.4462	0	
0.1667	-0.163454	74.1008	0	
0.1673	1.96144	131.492	0	
0.1680	0.449498	152.869	0	
0.1687	-2.00231	145.205	0	
0.1693	-2.28835	123.54	0	
0.1700	-1.6754	85.6827	0	
0.1707	-2.28835	39.2976	0	
0.1713	-3.22821	13.3681	0	
0.1720	-5.06706	22.5299	0	
0.1727	-6.2521	35.3794	0	
0.1733	-3.84116	25.2957	0	
0.1740	0.12259	13.6562	0	
0.1747	0.12259	13.3681	0	
0.1753	-2.00231	6.68406	0	
0.1760	-1.6754	-2.47771	0	
0.1767	0.12259	-3.39965	0	
0.1773	-0.163454	-12.2733	0	
0.1780	-2.00231	-33.5931	0	
0.1787	-1.6754	-48.8628	0	
0.1793	-0.490361	-47.6527	0	
0.1800	-0.163454	-30.2511	0	
0.1807	0.12259	-14.4053	0	
0.1813	0.449498	-15.9034	0	
0.1820	0.735541	-7.66362	0	
0.1827	3.18735	37.1657	0	
0.1833	5.63915	89.3704	0	
0.1840	2.57439	109.192	0	
0.1847	0.12259	96.6883	0	
0.1853	1.96144	78.3648	0	
0.1860	1.96144	69.8369	0	
0.1867	-0.490361	53.991	0	
0.1873	0.12259	23.4518	0	
0.1880	0.449498	7.606	0	
0.1887	-1.38936	8.81604	0	
0.1893	-1.38936	-4.32159	0	
0.1900	0.12259	-26.2753	0	
0.1907	-1.38936	-41.2568	0	
0.1913	-3.22821	-58.6584	0	
0.1920	-2.00231	-79.1139	0	
0.1927	-0.490361	-98.3017	0	
0.1933	-2.28835	-117.259	0	
0.1940	-5.06706	-108.674	0	
0.1947	-4.1272	-62.6342	0	
0.1953	-2.28835	-22.2994	0	
0.1960	-1.38936	-13.1952	0	
0.1967	1.34849	-15.9034	0	
0.1973	2.57439	-12.2733	0	
0.1980	0.735541	-6.45357	0	
0.1987	1.6754	-11.3514	0	
0.1993	4.69929	-26.2753	0	
0.2000	1.96144	-30.2511	0	
0.2007	0.449498	-23.5671	0	
0.2013	5.0262	-25.3533	0	
0.2020	4.41325	-32.3831	0	
0.2027	-0.163454	-40.0467	0	
0.2033	1.34849	-47.0189	0	
0.2040	5.0262	-18.6693	0	
0.2047	3.51425	46.3274	0	
0.2053	1.34849	74.1008	0	
0.2060	1.6754	37.1657	0	
0.2067	1.06245	-9.50749	0	
0.2073	-1.38936	-42.1787	0	
0.2080	-2.61526	-73.5822	0	
0.2087	-2.9013	-83.0321	0	
0.2093	-3.22821	-54.9706	0	
0.2100	-4.1272	-21.4351	0	
0.2107	-4.1272	-8.00934	0	
0.2113	-3.51425	4.20635	0	
0.2120	-3.51425	27.1396	0	
0.2127	-3.22821	41.1415	0	
0.2133	-1.6754	38.3757	0	
0.2140	-2.00231	44.1954	0	
0.2147	-2.28835	67.4168	0	
0.2153	-1.38936	79.5748	0	
0.2160	-0.163454	65.2848	0	
0.2167	1.6754	43.2735	0	
0.2173	1.96144	30.7697	0	
0.2180	1.6754	23.4518	0	
0.2187	3.18735	16.422	0	
0.2193	3.51425	12.4462	0	
0.2200	1.34849	11.5242	0	
0.2207	2.28835	12.7919	0	
0.2213	5.31224	19.7641	0	
0.2220	3.8003	27.4277	0	
0.2227	0.12259	28.0039	0	
0.2233	1.96144	27.7158	0	
0.2240	5.31224	32.3255	0	
0.2247	3.8003	39.9315	0	
0.2253	0.12259	52.4353	0	
0.2260	0.449498	52.7234	0	
0.2267	1.6754	16.1339	0	
0.2273	1.06245	-34.5151	0	
0.2280	0.449498	-53.1267	0	
0.2287	0.449498	-39.4129	0	
0.2293	-0.163454	-25.0652	0	
0.2300	-2.00231	-25.0652	0	
0.2307	-3.84116	-35.1489	0	
0.2313	-5.06706	-40.6229	0	
0.2320	-5.35311	-33.9389	0	
0.2327	-5.06706	-29.6749	0	
0.2333	-5.06706	-36.9928	0	
0.2340	-4.1272	-48.2865	0	
0.2347	-3.51425	-57.1026	0	
0.2353	-4.1272	-53.4725	0	
0.2360	-5.06706	-39.1248	0	
0.2367	-3.84116	-33.9389	0	
0.2373	-0.490361	-25.9872	0	
0.2380	3.18735	14.5782	0	
0.2387	2.9013	63.0952	0	
0.2393	2.9013	71.9689	0	
0.2400	5.0262	50.9371	0	
0.2407	3.18735	39.9315	0	
0.2413	-0.490361	46.0393	0	
0.2420	0.449498	49.6695	0	
0.2427	2.57439	39.0095	0	
0.2433	0.449498	22.818	0	
0.2440	-1.06245	14.2901	0	
0.2447	1.34849	10.6599	0	
0.2453	2.57439	6.05022	0	
0.2460	1.06245	2.07436	0	
0.2467	-1.06245	-0.345727	0	
0.2473	-1.38936	-2.1896	0	
0.2480	-0.776405	-2.1896	0	
0.2487	-0.490361	-2.1896	0	
0.2493	-0.490361	-2.47771	0	
0.2500	0.12259	-5.24353	0	
0.2507	0.449498	-8.87366	0	
0.2513	-1.06245	-9.7956	0	
0.2520	-2.61526	-9.50749	0	
0.2527	-2.61526	-10.4294	0	
0.2533	-1.38936	-8.58556	0	
0.2540	-1.38936	-4.95542	0	
0.2547	-2.28835	-4.03348	0	
0.2553	-2.00231	-3.39965	0	
0.2560	-1.38936	-2.1896	0	
0.2567	-1.06245	-3.68776	0	
0.2573	1.06245	-1.26767	0	
0.2580	4.1272	3.28441	0	
0.2587	5.63915	-4.03348	0	
0.2593	4.41325	-12.2733	0	
0.2600	3.51425	-3.39965	0	
0.2607	4.41325	10.948	0	
0.2613	4.69929	11.5242	0	
0.2620	3.18735	4.84018	0	
0.2627	2.28835	-0.633833	0	
0.2633	2.57439	-7.66362	0	
0.2640	1.34849	-11.6395	0	
0.2647	1.34849	-10.1413	0	
0.2653	2.57439	-10.4294	0	
0.2660	2.28835	-14.6934	0	
0.2667	1.96144	-13.1952	0	
0.2673	2.28835	-9.21939	0	
0.2680	1.06245	-3.39965	0	
0.2687	-0.163454	6.33833	0	
0.2693	0.449498	10.0261	0	
0.2700	-1.38936	1.78626	0	
0.2707	-2.00231	1.78626	0	
0.2713	-0.490361	15.8458	0	
0.2720	-2.61526	24.6619	0	
0.2727	-5.06706	22.5299	0	
0.2733	-3.22821	14.9239	0	
0.2740	-2.9013	-0.97956	0	
0.2747	-2.9013	-16.8254	0	
0.2753	0.12259	-25.699	0	
0.2760	0.735541	-31.4612	0	
0.2767	-0.490361	-35.437	0	
0.2773	0.449498	-38.7791	0	
0.2780	1.06245	-43.6769	0	
0.2787	0.449498	-42.4668	0	
0.2793	0.735541	-42.1787	0	
0.2800	0.12259	-39.701	0	
0.2807	0.12259	4.55207	0	
0.2813	3.18735	78.3648	0	
0.2820	3.8003	109.48	0	
0.2827	3.51425	84.1845	0	
0.2833	4.1272	48.1713	0	
0.2840	2.28835	17.0559	0	
0.2847	1.06245	-9.50749	0	
0.2853	2.57439	-29.0411	0	
0.2860	0.735541	-43.3887	0	
0.2867	-2.61526	-36.359	0	
0.2873	-1.6754	-13.1952	0	
0.2880	0.449498	-19.3031	0	
0.2887	0.12259	-55.2587	0	
0.2893	-0.490361	-74.7923	0	
0.2900	-1.06245	-76.9819	0	
0.2907	-2.61526	-81.534	0	
0.2913	-4.1272	-64.4205	0	
0.2920	-5.06706	-18.9574	0	
0.2927	-3.84116	12.4462	0	
0.2933	-3.84116	21.896	0	
0.2940	-4.45411	44.1954	0	
0.2947	-0.776405	71.9689	0	
0.2953	2.28835	68.9149	0	
0.2960	0.449498	44.1954	0	
0.2967	-1.38936	28.0039	0	
0.2973	-0.490361	19.7641	0	
0.2980	0.735541	16.7101	0	
0.2987	2.28835	20.1098	0	
0.2993	1.96144	18.8997	0	
0.3000	-0.490361	11.87	0	
0.3007	0.735541	10.3142	0	
0.3013	3.18735	8.18221	0	
0.3020	1.6754	0.230485	0	
0.3027	1.34849	-1.9015	0	
0.3033	3.18735	0.230485	0	
0.3040	3.18735	-5.24353	0	
0.3047	0.735541	-12.2733	0	
0.3053	-1.06245	-15.6153	0	
0.3060	-1.06245	-24.489	0	
0.3067	0.735541	-38.4909	0	
0.3073	1.06245	-49.7847	0	
0.3080	-1.38936	-57.4483	0	
0.3087	-2.9013	-47.3646	0	
0.3093	-2.9013	-0.345727	0	
0.3100	-2.00231	58.255	0	
0.3107	-2.00231	75.9447	0	
0.3113	-2.9013	47.5375	0	
0.3120	-0.490361	17.0559	0	
0.3127	3.18735	9.10415	0	
0.3133	0.449498	12.1581	0	
0.3140	-4.1272	12.7919	0	
0.3147	-3.22821	12.7919	0	
0.3153	-3.22821	17.9778	0	
0.3160	-4.45411	29.5597	0	
0.3167	-2.28835	38.3757	0	
0.3173	-0.490361	34.4575	0	
0.3180	-1.06245	22.5299	0	
0.3187	0.735541	13.6562	0	
0.3193	2.9013	2.7082	0	
0.3200	2.57439	-9.50749	0	
0.3207	2.28835	-9.50749	0	
0.3213	1.06245	-1.9015	0	
0.3220	1.06245	-0.345727	0	
0.3227	3.51425	2.42009	0	
0.3233	2.9013	10.948	0	
0.3240	0.449498	13.3681	0	
0.3247	1.34849	10.6599	0	
0.3253	2.28835	9.73798	0	
0.3260	-0.163454	3.91824	0	
0.3267	-1.38936	0.576212	0	
0.3273	-2.00231	3.91824	0	
0.3280	-2.28835	-1.55577	0	
0.3287	-1.06245	-10.1413	0	
0.3293	-2.00231	-5.81974	0	
0.3300	-4.74016	-6.74168	0	
0.3307	-3.51425	-6.74168	0	
0.3313	-3.51425	22.5299	0	
0.3320	-6.86505	46.3274	0	
0.3327	-6.2521	21.0317	0	
0.3333	-2.28835	-15.6153	0	
0.3340	-0.490361	-27.831	0	
0.3347	-1.06245	-30.2511	0	
0.3353	0.12259	-26.621	0	
0.3360	2.28835	-17.7473	0	
0.3367	2.57439	-18.9574	0	
0.3373	1.34849	-22.2994	0	
0.3380	1.34849	-18.6693	0	
0.3387	1.06245	-18.0354	0	
0.3393	-1.06245	-18.0354	0	
0.3400	-0.490361	-13.1952	0	
0.3407	2.57439	-13.1952	0	
0.3413	3.18735	-14.6934	0	
0.3420	3.18735	-10.4294	0	
0.3427	4.69929	-8.00934	0	
0.3433	4.1272	-8.58556	0	
0.3440	2.28835	-6.45357	0	
0.3447	2.28835	-6.74168	0	
0.3453	2.57439	-11.0633	0	
0.3460	2.9013	-12.5614	0	
0.3467	3.18735	-11.3514	0	
0.3473	0.735541	-11.9276	0	
0.3480	-2.00231	-13.7715	0	
0.3487	-2.00231	-14.9815	0	
0.3493	-1.38936	-13.7715	0	
0.3500	-1.38936	-7.66362	0	
0.3507	-1.6754	-2.1896	0	
0.3513	-4.1272	-0.633833	0	
0.3520	-5.06706	2.42009	0	
0.3527	-2.28835	9.73798	0	
0.3533	-1.06245	19.476	0	
0.3540	-5.06706	32.9017	0	
0.3547	-6.2521	44.4835	0	
0.3553	-0.490361	42.3516	0	
0.3560	2.57439	30.7697	0	
0.3567	0.12259	22.2418	0	
0.3573	-2.9013	13.08	0	
0.3580	-3.22821	5.41639	0	
0.3587	-2.28835	6.97216	0	
0.3593	1.06245	-1.55577	0	
0.3600	4.1272	-33.305	0	
0.3607	5.0262	-54.3944	0	
0.3613	2.28835	-42.4668	0	
0.3620	-0.776405	-24.7771	0	
0.3627	0.449498	-18.6693	0	
0.3633	3.51425	-16.5373	0	
0.3640	3.8003	-14.0596	0	
0.3647	2.28835	-10.1413	0	
0.3653	1.34849	-4.03348	0	
0.3660	-1.38936	-4.03348	0	
0.3667	-3.84116	-8.58556	0	
0.3673	-1.38936	-6.74168	0	
0.3680	1.06245	-3.11154	0	
0.3687	0.12259	-4.03348	0	
0.3693	-1.38936	-3.11154	0	
0.3700	-3.22821	-0.345727	0	
0.3707	-5.06706	-3.11154	0	
0.3713	-4.45411	-7.0874	0	
0.3720	-2.9013	-6.74168	0	
0.3727	-2.61526	-5.81974	0	
0.3733	-2.00231	-6.74168	0	
0.3740	-1.06245	-4.60969	0	
0.3747	-2.9013	-1.26767	0	
0.3753	-5.06706	-4.60969	0	
0.3760	-2.61526	-11.3514	0	
0.3767	1.6754	-14.9815	0	
0.3773	2.9013	-16.5373	0	
0.3780	1.34849	-21.0894	0	
0.3787	0.735541	-30.5392	0	
0.3793	2.28835	-35.1489	0	
0.3800	3.18735	-12.2733	0	
0.3807	3.18735	34.7456	0	
0.3813	3.51425	61.8851	0	
0.3820	2.9013	45.7512	0	
0.3827	1.96144	14.2901	0	
0.3833	3.18735	-8.87366	0	
0.3840	5.0262	-15.6153	0	
0.3847	2.57439	7.8941	0	
0.3853	1.34849	47.8832	0	
0.3860	2.57439	60.6751	0	
0.3867	1.96144	48.1713	0	
0.3873	0.449498	44.8293	0	
0.3880	1.96144	46.3274	0	
0.3887	1.96144	37.1657	0	
0.3893	0.449498	25.8719	0	
0.3900	0.449498	16.422	0	
0.3907	-1.6754	11.5242	0	
0.3913	-4.45411	14.5782	0	
0.3920	-3.22821	6.97216	0	
0.3927	-1.38936	-13.7715	0	
0.3933	-2.00231	-15.9034	0	
0.3940	-2.28835	-1.26767	0	
0.3947	-1.6754	-5.81974	0	
0.3953	-2.00231	-21.7232	0	
0.3960	-2.9013	-16.8254	0	
0.3967	-3.84116	7.606	0	
0.3973	-3.22821	24.0857	0	
0.3980	-0.490361	11.87	0	
0.3987	0.449498	-13.4834	0	
0.3993	1.06245	-18.3812	0	
0.4000	2.9013	-8.00934	0	
0.4007	2.28835	-12.8495	0	
0.4013	0.449498	-18.3812	0	
0.4020	1.96144	0.230485	0	
0.4027	3.18735	19.7641	0	
0.4033	3.18735	18.8997	0	
0.4040	4.69929	10.6599	0	
0.4047	3.18735	2.9963	0	
0.4053	-0.490361	-8.29745	0	
0.4060	1.34849	-14.9815	0	
0.4067	5.0262	-10.4294	0	
0.4073	1.6754	1.78626	0	
0.4080	-3.22821	11.5242	0	
0.4087	-3.51425	11.87	0	
0.4093	-1.6754	4.84018	0	
0.4100	-1.38936	-3.39965	0	
0.4107	-2.28835	-7.37551	0	
0.4113	-2.00231	-8.29745	0	
0.4120	0.449498	-10.7175	0	
0.4127	-0.490361	-11.6395	0	
0.4133	-3.22821	-6.74168	0	
0.4140	-2.61526	0.576212	0	
0.4147	-2.00231	10.6599	0	
0.4153	-2.28835	24.3738	0	
0.4160	-0.490361	28.0039	0	
0.4167	0.735541	22.818	0	
0.4173	-0.163454	22.818	0	
0.4180	0.449498	10.3142	0	
0.4187	1.34849	-22.2994	0	
0.4193	-0.490361	-34.227	0	
0.4200	1.34849	-11.3514	0	
0.4207	4.41325	7.8941	0	
0.4213	4.41325	10.3142	0	
0.4220	4.1272	10.6599	0	
0.4227	3.8003	9.73798	0	
0.4233	1.96144	8.18221	0	
0.4240	1.6754	10.0261	0	
0.4247	3.18735	11.5242	0	
0.4253	1.6754	10.948	0	
0.4260	-0.163454	7.26027	0	
0.4267	0.449498	-0.345727	0	
0.4273	-0.490361	-4.03348	0	
0.4280	-1.38936	-6.74168	0	
0.4287	-0.490361	-16.5373	0	
0.4293	-1.6754	-25.0652	0	
0.4300	-3.51425	-25.0652	0	
0.4307	-3.22821	-22.6451	0	
0.4313	-3.84116	-20.5131	0	
0.4320	-4.1272	-11.3514	0	
0.4327	-1.38936	-4.32159	0	
0.4333	-1.38936	-10.4294	0	
0.4340	-2.61526	-19.3031	0	
0.4347	-0.163454	-20.8012	0	
0.4353	1.34849	-27.5429	0	
0.4360	-1.38936	-39.701	0	
0.4367	-1.06245	-40.6229	0	
0.4373	1.34849	-41.833	0	
0.4380	0.12259	-57.1026	0	
0.4387	0.735541	-65.9762	0	
0.4393	2.28835	-74.5042	0	
0.4400	-1.38936	-87.3537	0	
0.4407	-3.84116	-41.833	0	
0.4413	0.449498	73.1789	0	
0.4420	2.28835	148.547	0	
0.4427	-0.163454	124.75	0	
0.4433	0.449498	64.0171	0	
0.4440	1.06245	20.3979	0	
0.4447	-2.28835	-2.82344	0	
0.4453	-2.28835	-11.0633	0	
0.4460	1.34849	-15.9034	0	
0.4467	1.34849	-12.2733	0	
0.4473	0.449498	14.2901	0	
0.4480	0.449498	44.8293	0	
0.4487	-0.490361	47.5375	0	
0.4493	-0.490361	30.7697	0	
0.4500	1.06245	18.2659	0	
0.4507	-0.776405	13.3681	0	
0.4513	-3.22821	8.81604	0	
0.4520	-2.61526	4.20635	0	
0.4527	-2.61526	1.78626	0	
0.4533	-4.1272	-0.345727	0	
0.4540	-2.00231	-1.9015	0	
0.4547	0.449498	-0.97956	0	
0.4553	0.449498	-0.345727	0	
0.4560	-0.490361	-2.1896	0	
0.4567	-0.490361	-2.82344	0	
0.4573	-1.6754	-0.97956	0	
0.4580	-4.1272	-2.1896	0	
0.4587	-2.28835	-4.03348	0	
0.4593	2.28835	-3.11154	0	
0.4600	1.06245	-1.9015	0	
0.4607	-2.00231	-2.82344	0	
0.4613	0.449498	-4.95542	0	
0.4620	3.18735	-7.37551	0	
0.4627	3.18735	-8.58556	0	
0.4633	4.1272	-8.58556	0	
0.4640	5.31224	-10.4294	0	
0.4647	3.8003	-12.5614	0	
0.4653	1.96144	-10.4294	0	
0.4660	0.735541	-7.66362	0	
0.4667	0.449498	-6.74168	0	
0.4673	1.34849	-6.45357	0	
0.4680	1.06245	-3.68776	0	
0.4687	-0.776405	3.28441	0	
0.4693	-1.06245	11.5242	0	
0.4700	-2.28835	15.212	0	
0.4707	-3.51425	15.212	0	
0.4713	-2.9013	14.2901	0	
0.4720	-3.84116	10.948	0	
0.4727	-5.96606	5.41639	0	
0.4733	-4.1272	-2.1896	0	
0.4740	-1.6754	-9.7956	0	
0.4747	-3.84116	-14.4053	0	
0.4753	-5.06706	-23.8552	0	
0.4760	-3.22821	-33.5931	0	
0.4767	-2.28835	-21.4351	0	
0.4773	-0.776405	3.63013	0	
0.4780	1.34849	6.33833	0	
0.4787	4.1272	-11.6395	0	
0.4793	5.92519	-18.6693	0	
0.4800	5.0262	-7.37551	0	
0.4807	2.28835	6.97216	0	
0.4813	1.96144	11.5242	0	
0.4820	4.1272	6.05022	0	
0.4827	5.92519	0.576212	0	
0.4833	3.51425	-0.345727	0	
0.4840	-1.38936	2.07436	0	
0.4847	-2.28835	13.08	0	
0.4853	1.06245	23.4518	0	
0.4860	2.57439	7.8941	0	
0.4867	1.06245	-25.699	0	
0.4873	-0.490361	-40.6229	0	
0.4880	0.449498	-31.1731	0	
0.4887	0.449498	-19.3031	0	
0.4893	-1.6754	-11.6395	0	
0.4900	-3.22821	-5.81974	0	
0.4907	-1.6754	-3.39965	0	
0.4913	-3.22821	-4.03348	0	
0.4920	-5.63915	-4.32159	0	
0.4927	-2.61526	-2.1896	0	
0.4933	-1.06245	2.07436	0	
0.4940	-5.63915	4.20635	0	
0.4947	-6.2521	5.12828	0	
0.4953	-2.00231	6.33833	0	
0.4960	-0.776405	6.05022	0	
0.4967	-1.6754	4.55207	0	
0.4973	0.449498	4.20635	0	
0.4980	4.1272	2.42009	0	
0.4987	3.18735	2.07436	0	
0.4993	-0.163454	4.55207	0	
0.5000	-0.490361	4.20635	0	
0.5007	2.28835	3.28441	0	
0.5013	3.51425	4.55207	0	
0.5020	3.51425	2.9963	0	
0.5027	3.8003	-0.345727	0	
0.5033	2.57439	0.576212	0	
0.5040	0.449498	2.42009	0	
0.5047	-0.490361	1.15242	0	
0.5053	1.34849	-1.9015	0	
0.5060	2.28835	-2.1896	0	
0.5067	0.449498	-1.26767	0	
0.5073	-1.6754	-5.81974	0	
0.5080	-0.776405	-18.6693	0	
0.5087	0.12259	-30.5392	0	
0.5093	-2.00231	-35.1489	0	
0.5100	-4.45411	-35.7828	0	
0.5107	-4.74016	-34.8608	0	
0.5113	-2.28835	-32.3831	0	
0.5120	-0.490361	-32.3831	0	
0.5127	-3.22821	-40.9687	0	
0.5133	-5.06706	-54.9706	0	
0.5140	-2.28835	-62.2885	0	
0.5147	-0.490361	-66.2644	0	
0.5153	-2.28835	-79.9782	0	
0.5160	-4.1272	-87.3537	0	
0.5167	-5.35311	-60.5022	0	
0.5173	-4.74016	-1.26767	0	
0.5180	0.735541	75.0228	0	
0.5187	5.63915	143.995	0	
0.5193	5.0262	172.057	0	
0.5200	3.8003	152.523	0	
0.5207	4.1272	112.246	0	
0.5213	3.18735	74.3889	0	
0.5220	1.34849	50.3033	0	
0.5227	2.57439	43.6192	0	
0.5233	4.1272	47.8832	0	
0.5240	2.28835	51.8591	0	
0.5247	1.6754	47.2494	0	
0.5253	2.57439	34.1117	0	
0.5260	0.735541	22.2418	0	
0.5267	0.12259	17.0559	0	
0.5273	1.34849	14.0019	0	
0.5280	-0.776405	10.948	0	
0.5287	-2.9013	10.948	0	
0.5293	-0.490361	10.6599	0	
0.5300	-1.38936	7.8941	0	
0.5307	-5.06706	4.55207	0	
0.5313	-2.9013	2.42009	0	
0.5320	0.12259	0.230485	0	
0.5327	-1.38936	-1.26767	0	
0.5333	-2.28835	-2.1896	0	
0.5340	-3.22821	-4.03348	0	
0.5347	-4.1272	-5.24353	0	
0.5353	-2.00231	-5.53163	0	
0.5360	0.12259	-5.53163	0	
0.5367	0.449498	-5.81974	0	
0.5373	2.28835	-6.16547	0	
0.5380	3.18735	-8.29745	0	
0.5387	0.449498	-9.50749	0	
0.5393	0.449498	-9.7956	0	
0.5400	5.0262	-10.4294	0	
0.5407	5.31224	-10.1413	0	
0.5413	1.96144	-9.50749	0	
0.5420	2.28835	-11.0633	0	
0.5427	5.92519	-11.6395	0	
0.5433	5.92519	-11.0633	0	
0.5440	2.28835	-11.9276	0	
0.5447	1.96144	-12.8495	0	
0.5453	4.69929	-11.3514	0	
0.5460	4.1272	-10.7175	0	
0.5467	0.449498	-10.4294	0	
0.5473	-1.38936	-7.0874	0	
0.5480	-3.22821	-3.68776	0	
0.5487	-4.45411	-4.03348	0	
0.5493	-2.9013	-6.45357	0	
0.5500	-1.06245	-6.16547	0	
0.5507	-3.22821	-2.82344	0	
0.5513	-4.1272	1.49815	0	
0.5520	-1.06245	6.05022	0	
0.5527	-0.163454	6.97216	0	
0.5533	-4.1272	2.07436	0	
0.5540	-6.2521	3.28441	0	
0.5547	-3.51425	8.18221	0	
0.5553	0.449498	0.230485	0	
0.5560	-0.163454	-12.8495	0	
0.5567	-3.22821	-22.2994	0	
0.5573	-2.28835	-41.5449	0	
0.5580	1.96144	-53.4725	0	
0.5587	1.34849	-31.4612	0	
0.5593	0.449498	-15.3272	0	
0.5600	3.51425	-42.7549	0	
0.5607	4.1272	-79.6901	0	
0.5613	1.34849	-84.2998	0	
0.5620	2.57439	-52.5505	0	
0.5627	5.0262	5.12828	0	
0.5633	2.9013	58.255	0	
0.5640	1.96144	69.8369	0	
0.5647	4.1272	44.8293	0	
0.5653	5.0262	16.1339	0	
0.5660	4.69929	0.576212	0	
0.5667	3.18735	-3.11154	0	
0.5673	1.06245	-3.39965	0	
0.5680	0.449498	-6.16547	0	
0.5687	1.34849	-7.66362	0	
0.5693	0.449498	-6.74168	0	
0.5700	-0.776405	-7.66362	0	
0.5707	-1.38936	-7.66362	0	
0.5713	-2.28835	-4.03348	0	
0.5720	-2.61526	-0.345727	0	
0.5727	-1.38936	0.864318	0	
0.5733	-1.38936	1.49815	0	
0.5740	-1.6754	0.576212	0	
0.5747	0.449498	0.576212	0	
0.5753	2.28835	0.230485	0	
0.5760	1.34849	-0.0576212	0	
0.5767	-0.490361	2.07436	0	
0.5773	-0.163454	4.20635	0	
0.5780	1.34849	2.9963	0	
0.5787	-0.163454	1.78626	0	
0.5793	-1.06245	2.9963	0	
0.5800	1.34849	3.28441	0	
0.5807	2.9013	2.9963	0	
0.5813	1.96144	1.49815	0	
0.5820	1.96144	-4.60969	0	
0.5827	2.28835	-9.7956	0	
0.5833	2.28835	-10.1413	0	
0.5840	2.57439	-8.58556	0	
0.5847	1.6754	-6.16547	0	
0.5853	-0.490361	-1.26767	0	
0.5860	-1.06245	-0.345727	0	
0.5867	-1.38936	-2.82344	0	
0.5873	-2.00231	-1.26767	0	
0.5880	-1.38936	1.15242	0	
0.5887	-0.490361	0.576212	0	
0.5893	-1.6754	0.864318	0	
0.5900	-3.22821	2.42009	0	
0.5907	-3.51425	2.42009	0	
0.5913	-3.22821	2.7082	0	
0.5920	-3.22821	4.20635	0	
0.5927	-5.06706	4.55207	0	
0.5933	-6.86505	5.12828	0	
0.5940	-3.51425	6.05022	0	
0.5947	-1.38936	5.12828	0	
0.5953	-2.61526	4.55207	0	
0.5960	-2.9013	5.41639	0	
0.5967	-1.38936	7.606	0	
0.5973	-1.38936	9.39225	0	
0.5980	0.12259	9.73798	0	
0.5987	3.18735	8.81604	0	
0.5993	3.18735	8.18221	0	
0.6000	2.9013	7.8941	0	
0.6007	4.41325	9.39225	0	
0.6013	4.1272	10.6599	0	
0.6020	2.9013	6.97216	0	
0.6027	2.9013	0.576212	0	
0.6033	3.18735	-3.11154	0	
0.6040	2.28835	-5.81974	0	
0.6047	1.06245	-10.4294	0	
0.6053	-1.38936	-13.1952	0	
0.6060	-1.6754	-14.4053	0	
0.6067	-0.490361	-12.2733	0	
0.6073	-1.38936	-5.53163	0	
0.6080	-3.22821	1.78626	0	
0.6087	-3.51425	5.41639	0	
0.6093	-2.9013	6.97216	0	
0.6100	-2.9013	6.68406	0	
0.6107	-3.84116	5.76212	0	
0.6113	-3.84116	6.97216	0	
0.6120	-3.51425	10.3142	0	
0.6127	-4.45411	11.5242	0	
0.6133	-3.84116	7.8941	0	
0.6140	-0.490361	-1.9015	0	
0.6147	-0.776405	-14.4053	0	
0.6153	-2.9013	-20.8012	0	
0.6160	-1.06245	-21.0894	0	
0.6167	0.12259	-25.0652	0	
0.6173	-2.28835	-27.1972	0	
0.6180	-2.28835	-15.9034	0	
0.6187	1.6754	4.55207	0	
0.6193	4.1272	16.7101	0	
0.6200	4.41325	10.948	0	
0.6207	3.18735	-5.24353	0	
0.6213	1.34849	-14.9815	0	
0.6220	2.57439	-17.1135	0	
0.6227	5.0262	-23.5671	0	
0.6233	6.2521	-31.8069	0	
0.6240	5.92519	-36.6471	0	
0.6247	3.51425	-42.7549	0	
0.6253	1.96144	-26.9091	0	
0.6260	1.96144	31.4035	0	
0.6267	-0.490361	85.1065	0	
0.6273	-2.61526	83.2626	0	
0.6280	0.735541	51.2252	0	
0.6287	2.28835	31.6916	0	
0.6293	-2.28835	26.2176	0	
0.6300	-3.22821	21.0317	0	
0.6307	-1.6754	15.212	0	
0.6313	-2.9013	12.1581	0	
0.6320	-4.1272	6.05022	0	
0.6327	-4.45411	-5.53163	0	
0.6333	-5.35311	-8.29745	0	
0.6340	-2.61526	11.87	0	
0.6347	0.12259	43.9073	0	
0.6353	-2.28835	59.7532	0	
0.6360	-3.51425	33.5355	0	
0.6367	-0.490361	-20.1674	0	
0.6373	0.449498	-48.2865	0	
0.6380	-0.776405	-39.701	0	
0.6387	-0.163454	-33.305	0	
0.6393	1.06245	-37.2809	0	
0.6400	3.18735	-40.9687	0	
0.6407	5.63915	-51.9167	0	
0.6413	5.0262	-51.6286	0	
0.6420	4.41325	-18.0354	0	
0.6427	7.478	23.1637	0	
0.6433	7.1511	46.9613	0	
0.6440	3.18735	56.4111	0	
0.6447	1.6754	48.8051	0	
0.6453	4.1272	28.3496	0	
0.6460	4.41325	17.0559	0	
0.6467	3.8003	15.8458	0	
0.6473	2.57439	11.87	0	
0.6480	-1.38936	8.18221	0	
0.6487	-4.45411	8.18221	0	
0.6493	-3.22821	7.606	0	
0.6500	-2.28835	4.55207	0	
0.6507	-4.45411	1.78626	0	
0.6513	-3.22821	1.49815	0	
0.6520	-0.163454	2.07436	0	
0.6527	-1.38936	1.49815	0	
0.6533	-3.22821	1.15242	0	
0.6540	-1.38936	1.49815	0	
0.6547	-0.490361	-0.345727	0	
0.6553	-1.38936	-3.68776	0	
0.6560	-1.38936	-4.03348	0	
0.6567	-1.06245	-2.82344	0	
0.6573	-0.490361	-3.11154	0	
0.6580	1.06245	-4.95542	0	
0.6587	1.6754	-7.37551	0	
0.6593	0.735541	-14.0596	0	
0.6600	-0.490361	-23.2213	0	
0.6607	0.12259	-28.753	0	
0.6613	3.18735	-28.753	0	
0.6620	4.1272	-27.831	0	
0.6627	0.449498	-28.4072	0	
0.6633	-2.00231	-29.0411	0	
0.6640	-1.38936	-17.7473	0	
0.6647	0.449498	17.6321	0	
0.6653	1.06245	59.4651	0	
0.6660	-0.776405	73.8127	0	
0.6667	-0.490361	57.3331	0	
0.6673	1.06245	33.5355	0	
0.6680	-1.6754	16.422	0	
0.6687	-5.35311	4.84018	0	
0.6693	-3.51425	-8.87366	0	
0.6700	-3.22821	-23.2213	0	
0.6707	-5.06706	-19.3031	0	
0.6713	-2.28835	8.81604	0	
0.6720	0.449498	29.8478	0	
0.6727	-1.6754	20.686	0	
0.6733	-2.28835	0.864318	0	
0.6740	0.12259	-9.7956	0	
0.6747	0.735541	-12.2733	0	
0.6753	-0.490361	-10.7175	0	
0.6760	-1.38936	-8.29745	0	
0.6767	-2.00231	-8.29745	0	
0.6773	-2.28835	-10.4294	0	
0.6780	-0.776405	-14.9815	0	
0.6787	1.34849	-22.6451	0	
0.6793	3.18735	-27.831	0	
0.6800	2.28835	-25.9872	0	
0.6807	1.06245	-19.5912	0	
0.6813	1.6754	-12.5614	0	
0.6820	2.9013	-9.21939	0	
0.6827	1.34849	-9.50749	0	
0.6833	0.449498	-8.58556	0	
0.6840	2.28835	-5.53163	0	
0.6847	3.51425	-3.11154	0	
0.6853	2.28835	-2.82344	0	
0.6860	1.6754	-4.03348	0	
0.6867	1.34849	-6.16547	0	
0.6873	-0.776405	-7.66362	0	
0.6880	-1.38936	-9.21939	0	
0.6887	-1.06245	-9.50749	0	
0.6893	-3.84116	-7.66362	0	
0.6900	-4.74016	-7.0874	0	
0.6907	-0.776405	-8.58556	0	
0.6913	-0.490361	-6.74168	0	
0.6920	-3.84116	-2.47771	0	
0.6927	-3.22821	-1.26767	0	
0.6933	-2.28835	-1.26767	0	
0.6940	-4.1272	-1.26767	0	
0.6947	-2.28835	-1.26767	0	
0.6953	0.449498	0.576212	0	
0.6960	-0.490361	2.42009	0	
0.6967	-0.163454	3.63013	0	
0.6973	1.6754	3.28441	0	
0.6980	0.735541	0.576212	0	
0.6987	0.735541	0.864318	0	
0.6993	2.57439	3.63013	0	
0.7000	1.96144	1.49815	0	
0.7007	0.12259	-2.1896	0	
0.7013	1.06245	-0.345727	0	
0.7020	2.28835	1.78626	0	
0.7027	3.18735	0.230485	0	
0.7033	5.0262	1.49815	0	
0.7040	4.41325	5.12828	0	
0.7047	1.34849	5.76212	0	
0.7053	1.06245	4.20635	0	
0.7060	3.18735	3.91824	0	
0.7067	1.96144	5.12828	0	
0.7073	-3.22821	7.606	0	
0.7080	-4.1272	7.8941	0	
0.7087	-1.38936	6.97216	0	
0.7093	-1.38936	7.606	0	
0.7100	-3.22821	6.05022	0	
0.7107	-3.84116	-0.0576212	0	
0.7113	-3.22821	-5.81974	0	
0.7120	-2.28835	-6.74168	0	
0.7127	-2.28835	-5.53163	0	
0.7133	-4.45411	-4.95542	0	
0.7140	-6.57901	-6.16547	0	
0.7147	-5.35311	-8.58556	0	
0.7153	-3.51425	-13.1952	0	
0.7160	-2.28835	-19.3031	0	
0.7167	-1.38936	-26.621	0	
0.7173	-1.38936	-38.7791	0	
0.7180	-1.6754	-54.3944	0	
0.7187	-2.28835	-65.3424	0	
0.7193	-2.28835	-69.6064	0	
0.7200	0.735541	-60.5022	0	
0.7207	3.18735	-29.6749	0	
0.7213	1.34849	-4.32159	0	
0.7220	0.449498	-14.6934	0	
0.7227	2.57439	-15.9034	0	
0.7233	4.1272	49.3813	0	
0.7240	2.9013	129.36	0	
0.7247	0.12259	136.966	0	
0.7253	-2.00231	92.4244	0	
0.7260	-0.490361	62.519	0	
0.7267	1.6754	54.8554	0	
0.7273	1.96144	53.3572	0	
0.7280	1.34849	53.6453	0	
0.7287	1.06245	47.2494	0	
0.7293	-0.490361	36.2437	0	
0.7300	-2.00231	27.1396	0	
0.7307	-2.28835	7.8941	0	
0.7313	-2.28835	-22.0113	0	
0.7320	-2.9013	-35.1489	0	
0.7327	-2.28835	-25.9872	0	
0.7333	-0.490361	-15.6153	0	
0.7340	0.12259	-10.4294	0	
0.7347	-2.28835	-4.03348	0	
0.7353	-2.28835	0.230485	0	
0.7360	0.12259	-2.47771	0	
0.7367	0.449498	-8.00934	0	
0.7373	-0.163454	-8.87366	0	
0.7380	0.735541	-4.32159	0	
0.7387	1.34849	-0.633833	0	
0.7393	2.28835	-2.1896	0	
0.7400	3.18735	-7.0874	0	
0.7407	2.28835	-8.00934	0	
0.7413	2.28835	0.576212	0	
0.7420	3.8003	8.47031	0	
0.7427	4.1272	5.12828	0	
0.7433	4.1272	-1.9015	0	
0.7440	3.51425	-1.9015	0	
0.7447	2.9013	-0.345727	0	
0.7453	3.18735	-2.82344	0	
0.7460	2.28835	-4.60969	0	
0.7467	0.449498	-3.68776	0	
0.7473	-0.490361	-3.68776	0	
0.7480	-0.490361	-3.39965	0	
0.7487	-0.490361	-1.9015	0	
0.7493	-0.163454	-2.1896	0	
0.7500	-2.00231	-4.95542	0	
0.7507	-3.22821	-4.95542	0	
0.7513	-2.61526	-4.03348	0	
0.7520	-2.28835	-5.81974	0	
0.7527	-2.28835	-7.37551	0	
0.7533	-3.22821	-8.58556	0	
0.7540	-4.1272	-11.6395	0	
0.7547	-2.9013	-11.9276	0	
0.7553	-2.28835	-9.21939	0	
0.7560	-4.45411	-8.58556	0	
0.7567	-2.9013	-9.50749	0	
0.7573	2.28835	-8.87366	0	
0.7580	1.6754	-9.50749	0	
0.7587	-1.38936	-11.3514	0	
0.7593	-0.490361	-10.1413	0	
0.7600	-0.490361	-5.81974	0	
0.7607	0.12259	-1.26767	0	
0.7613	2.9013	0.576212	0	
0.7620	2.57439	2.42009	0	
0.7627	1.6754	8.47031	0	
0.7633	3.8003	15.212	0	
0.7640	5.0262	15.212	0	
0.7647	4.69929	12.7919	0	
0.7653	4.41325	14.2901	0	
0.7660	1.34849	10.948	0	
0.7667	-1.06245	0.576212	0	
0.7673	1.06245	-5.81974	0	
0.7680	1.34849	-4.03348	0	
0.7687	-2.28835	2.42009	0	
0.7693	-2.9013	10.3142	0	
0.7700	-2.9013	14.0019	0	
0.7707	-6.57901	7.8941	0	
0.7713	-6.2521	-0.633833	0	
0.7720	-2.28835	-6.74168	0	
0.7727	-3.22821	-13.1952	0	
0.7733	-5.06706	-19.3031	0	
0.7740	-2.28835	-17.1135	0	
0.7747	-0.776405	-9.7956	0	
0.7753	-1.6754	-4.03348	0	
0.7760	-0.490361	0.576212	0	
0.7767	0.449498	1.78626	0	
0.7773	0.449498	-1.26767	0	
0.7780	2.28835	-1.55577	0	
0.7787	3.18735	1.15242	0	
0.7793	1.34849	-2.1896	0	
0.7800	0.735541	-13.4834	0	
0.7807	1.96144	-23.2213	0	
0.7813	1.96144	-24.1433	0	
0.7820	1.34849	-22.2994	0	
0.7827	1.34849	-24.1433	0	
0.7833	1.06245	-28.753	0	
0.7840	1.34849	-32.095	0	
0.7847	1.34849	-33.5931	0	
0.7853	0.12259	-33.305	0	
0.7860	-0.490361	-34.227	0	
0.7867	0.735541	-45.8088	0	
0.7873	-0.776405	-60.5022	0	
0.7880	-2.28835	-49.7847	0	
0.7887	-0.776405	-0.97956	0	
0.7893	-0.490361	59.4651	0	
0.7900	-4.1272	91.7905	0	
0.7907	-5.63915	86.0284	0	
0.7913	-2.61526	65.5729	0	
0.7920	-1.38936	49.0932	0	
0.7927	-2.9013	37.1657	0	
0.7933	-3.22821	30.7697	0	
0.7940	-3.22821	27.1396	0	
0.7947	-2.28835	21.6079	0	
0.7953	-0.163454	18.2659	0	
0.7960	-0.490361	17.6321	0	
0.7967	-2.28835	10.6599	0	
0.7973	-0.776405	3.28441	0	
0.7980	1.34849	4.84018	0	
0.7987	-0.163454	10.6599	0	
0.7993	-1.06245	18.8997	0	
0.8000	2.28835	25.2957	0	
0.8007	4.1272	24.3738	0	
0.8013	3.18735	25.2957	0	
0.8020	4.1272	20.1098	0	
0.8027	5.63915	-7.66362	0	
0.8033	3.51425	-33.5931	0	
0.8040	1.34849	-31.1731	0	
0.8047	1.6754	-20.1674	0	
0.8053	0.735541	-18.9574	0	
0.8060	0.449498	-18.6693	0	
0.8067	2.9013	-16.8254	0	
0.8073	4.1272	-16.8254	0	
0.8080	1.96144	-16.2492	0	
0.8087	0.735541	-17.4592	0	
0.8093	1.06245	-21.0894	0	
0.8100	-0.163454	-27.831	0	
0.8107	-2.28835	-35.437	0	
0.8113	-5.06706	-34.5151	0	
0.8120	-6.86505	-23.2213	0	
0.8127	-3.51425	-14.0596	0	
0.8133	1.06245	-11.6395	0	
0.8140	-0.490361	-12.8495	0	
0.8147	-3.22821	-14.9815	0	
0.8153	-1.6754	-10.4294	0	
0.8160	0.449498	0.230485	0	
0.8167	0.449498	2.9963	0	
0.8173	0.12259	1.49815	0	
0.8180	-0.490361	5.76212	0	
0.8187	-1.38936	11.5242	0	
0.8193	1.06245	15.5001	0	
0.8200	4.69929	18.2659	0	
0.8207	5.0262	13.3681	0	
0.8213	4.69929	5.12828	0	
0.8220	6.53815	4.55207	0	
0.8227	5.63915	6.33833	0	
0.8233	0.735541	1.78626	0	
0.8240	-1.06245	-10.4294	0	
0.8247	2.57439	-26.621	0	
0.8253	4.1272	-39.4129	0	
0.8260	1.06245	-49.7847	0	
0.8267	-1.38936	-65.9762	0	
0.8273	-2.00231	-82.744	0	
0.8280	-1.6754	-90.9838	0	
0.8287	-0.776405	-72.6603	0	
0.8293	-1.38936	2.07436	0	
0.8300	-3.51425	106.138	0	
0.8307	-3.84116	147.049	0	
0.8313	-3.22821	106.772	0	
0.8320	-4.1272	63.729	0	
0.8327	-3.22821	50.0152	0	
0.8333	-3.22821	36.2437	0	
0.8340	-5.63915	24.3738	0	
0.8347	-4.74016	29.8478	0	
0.8353	-0.776405	35.9556	0	
0.8360	0.12259	26.5057	0	
0.8367	-1.06245	15.212	0	
0.8373	-0.776405	13.3681	0	
0.8380	1.96144	13.3681	0	
0.8387	5.31224	9.39225	0	
0.8393	5.31224	3.63013	0	
0.8400	3.8003	-1.55577	0	
0.8407	3.8003	-5.81974	0	
0.8413	2.28835	-8.00934	0	
0.8420	0.449498	-8.87366	0	
0.8427	1.34849	-8.87366	0	
0.8433	2.28835	-8.29745	0	
0.8440	2.57439	-7.66362	0	
0.8447	3.51425	-6.16547	0	
0.8453	1.34849	-3.39965	0	
0.8460	-0.490361	-5.81974	0	
0.8467	1.96144	-10.4294	0	
0.8473	1.96144	-6.74168	0	
0.8480	-1.38936	-0.345727	0	
0.8487	-1.38936	-4.32159	0	
0.8493	-0.490361	-8.58556	0	
0.8500	-2.28835	-2.82344	0	
0.8507	-3.22821	6.68406	0	
0.8513	-4.1272	7.8941	0	
0.8520	-4.1272	-6.45357	0	
0.8527	-2.61526	-29.963	0	
0.8533	-3.22821	-48.2865	0	
0.8540	-5.96606	-63.4985	0	
0.8547	-5.63915	-71.4503	0	
0.8553	-3.22821	-42.1787	0	
0.8560	-2.9013	20.1098	0	
0.8567	-3.22821	68.9149	0	
0.8573	-2.00231	86.6046	0	
0.8580	-0.490361	84.7608	0	
0.8587	0.735541	61.8851	0	
0.8593	1.34849	29.8478	0	
0.8600	1.34849	11.5242	0	
0.8607	3.18735	4.55207	0	
0.8613	5.31224	-0.0576212	0	
0.8620	3.8003	-4.03348	0	
0.8627	1.34849	-10.4294	0	
0.8633	2.9013	-16.8254	0	
0.8640	4.41325	-17.7473	0	
0.8647	2.57439	-17.7473	0	
0.8653	1.34849	-18.6693	0	
0.8660	3.51425	-15.9034	0	
0.8667	3.8003	-13.1952	0	
0.8673	-0.490361	-11.3514	0	
0.8680	-2.28835	-8.29745	0	
0.8687	-1.06245	-11.0633	0	
0.8693	-2.28835	-16.2492	0	
0.8700	-5.63915	-10.4294	0	
0.8707	-5.06706	-2.1896	0	
0.8713	-4.1272	-2.1896	0	
0.8720	-5.35311	6.05022	0	
0.8727	-5.06706	19.476	0	
0.8733	-3.51425	6.05022	0	
0.8740	-4.1272	-22.2994	0	
0.8747	-5.63915	-23.5671	0	
0.8753	-5.06706	-0.0576212	0	
0.8760	-2.9013	15.212	0	
0.8767	-0.490361	14.2901	0	
0.8773	0.12259	10.3142	0	
0.8780	-0.776405	8.18221	0	
0.8787	0.12259	4.20635	0	
0.8793	1.6754	-0.345727	0	
0.8800	2.28835	-0.97956	0	
0.8807	1.34849	-1.26767	0	
0.8813	0.12259	-5.81974	0	
0.8820	-0.163454	-8.58556	0	
0.8827	2.28835	-7.66362	0	
0.8833	3.18735	-9.7956	0	
0.8840	1.34849	-14.0596	0	
0.8847	0.735541	-14.9815	0	
0.8853	1.34849	-13.1952	0	
0.8860	0.449498	-11.0633	0	
0.8867	1.34849	-11.6395	0	
0.8873	1.34849	-14.0596	0	
0.8880	-1.38936	-14.0596	0	
0.8887	-3.22821	-10.7175	0	
0.8893	-3.22821	-9.21939	0	
0.8900	-4.1272	-8.87366	0	
0.8907	-3.51425	-7.0874	0	
0.8913	-1.6754	-3.68776	0	
0.8920	-2.28835	-2.1896	0	
0.8927	-4.1272	-4.32159	0	
0.8933	-3.84116	-5.24353	0	
0.8940	-3.22821	-0.97956	0	
0.8947	-4.45411	2.7082	0	
0.8953	-4.74016	2.7082	0	
0.8960	-2.9013	5.12828	0	
0.8967	-0.490361	12.1581	0	
0.8973	0.449498	17.0559	0	
0.8980	-0.490361	15.5001	0	
0.8987	0.449498	9.10415	0	
0.8993	2.57439	4.55207	0	
0.9000	3.18735	2.7082	0	
0.9007	3.18735	-1.55577	0	
0.9013	3.18735	-7.66362	0	
0.9020	3.18735	-9.50749	0	
0.9027	4.1272	-9.21939	0	
0.9033	5.63915	-9.7956	0	
0.9040	3.51425	-7.66362	0	
0.9047	0.735541	-2.1896	0	
0.9053	2.28835	4.20635	0	
0.9060	2.57439	8.81604	0	
0.9067	0.449498	10.948	0	
0.9073	0.735541	12.4462	0	
0.9080	1.34849	14.2901	0	
0.9087	-1.6754	15.212	0	
0.9093	-2.28835	18.8997	0	
0.9100	1.34849	23.4518	0	
0.9107	1.34849	23.1637	0	
0.9113	-1.6754	15.5001	0	
0.9120	-2.9013	5.12828	0	
0.9127	-3.51425	-4.95542	0	
0.9133	-2.9013	-11.3514	0	
0.9140	-0.490361	-13.4834	0	
0.9147	-0.490361	-14.9815	0	
0.9153	-0.776405	-14.0596	0	
0.9160	-0.163454	-9.50749	0	
0.9167	-0.776405	-4.95542	0	
0.9173	-1.38936	-6.16547	0	
0.9180	-0.490361	-10.4294	0	
0.9187	1.06245	-14.4053	0	
0.9193	1.34849	-19.8793	0	
0.9200	1.96144	-29.0411	0	
0.9207	2.28835	-37.569	0	
0.9213	2.57439	-42.4668	0	
0.9220	3.18735	-41.2568	0	
0.9227	3.8003	-22.0113	0	
0.9233	4.41325	16.422	0	
0.9240	4.1272	47.2494	0	
0.9247	2.57439	48.1713	0	
0.9253	3.18735	33.8236	0	
0.9260	4.69929	25.5838	0	
0.9267	3.8003	25.2957	0	
0.9273	0.735541	26.7938	0	
0.9280	-2.00231	24.6619	0	
0.9287	-2.9013	16.422	0	
0.9293	-2.00231	10.6599	0	
0.9300	-1.38936	8.81604	0	
0.9307	-2.61526	2.42009	0	
0.9313	-3.22821	-4.95542	0	
0.9320	-1.38936	-5.81974	0	
0.9327	1.06245	-12.5614	0	
0.9333	-0.163454	-27.831	0	
0.9340	-3.22821	-38.7791	0	
0.9347	-2.9013	-51.3405	0	
0.9353	-0.490361	-64.7662	0	
0.9360	-1.06245	-69.6064	0	
0.9367	-1.06245	-71.4503	0	
0.9373	2.57439	-65.3424	0	
0.9380	4.1272	-32.095	0	
0.9387	3.18735	17.0559	0	
0.9393	4.69929	50.9371	0	
0.9400	5.31224	55.4892	0	
0.9407	2.57439	31.9798	0	
0.9413	2.57439	1.49815	0	
0.9420	4.41325	-14.6934	0	
0.9427	2.28835	-16.8254	0	
0.9433	0.449498	10.0261	0	
0.9440	2.28835	74.1008	0	
0.9447	1.96144	113.168	0	
0.9453	0.12259	85.1065	0	
0.9460	0.735541	41.1415	0	
0.9467	0.449498	24.3738	0	
0.9473	-1.38936	18.8997	0	
0.9480	-0.163454	17.9778	0	
0.9487	-0.776405	25.2957	0	
0.9493	-4.1272	30.4816	0	
0.9500	-2.9013	29.8478	0	
0.9507	-0.490361	30.4816	0	
0.9513	-4.1272	29.8478	0	
0.9520	-6.86505	22.5299	0	
0.9527	-5.06706	12.4462	0	
0.9533	-3.84116	7.606	0	
0.9540	-3.22821	-0.345727	0	
0.9547	-2.28835	-24.7771	0	
0.9553	-4.1272	-47.0189	0	
0.9560	-5.06706	-41.5449	0	
0.9567	-2.61526	-24.1433	0	
0.9573	-2.00231	-16.8254	0	
0.9580	-1.06245	-14.9815	0	
0.9587	2.57439	-11.0633	0	
0.9593	2.57439	-7.66362	0	
0.9600	0.735541	-5.81974	0	
0.9607	3.51425	-5.81974	0	
0.9613	5.31224	-5.81974	0	
0.9620	2.57439	-2.1896	0	
0.9627	1.06245	-0.633833	0	
0.9633	1.6754	-5.81974	0	
0.9640	1.06245	-11.0633	0	
0.9647	-0.163454	-12.8495	0	
0.9653	-0.163454	-12.5614	0	
0.9660	-0.490361	-11.3514	0	
0.9667	-0.490361	-9.7956	0	
0.9673	0.449498	-9.50749	0	
0.9680	-0.163454	-10.4294	0	
0.9687	-1.38936	-11.6395	0	
0.9693	-0.490361	-13.4834	0	
0.9700	-0.163454	-16.2492	0	
0.9707	-2.28835	-18.6693	0	
0.9713	-2.28835	-14.9815	0	
0.9720	-2.00231	-8.87366	0	
0.9727	-4.1272	-8.58556	0	
0.9733	-4.45411	-8.58556	0	
0.9740	-1.38936	-2.1896	0	
0.9747	-1.38936	1.15242	0	
0.9753	-3.51425	-3.11154	0	
0.9760	-2.28835	-7.0874	0	
0.9767	0.12259	-11.0633	0	
0.9773	0.735541	-12.8495	0	
0.9780	0.449498	-9.50749	0	
0.9787	1.34849	-7.0874	0	
0.9793	4.69929	-6.45357	0	
0.9800	5.92519	-2.82344	0	
0.9807	3.51425	-2.1896	0	
0.9813	3.18735	-4.95542	0	
0.9820	2.9013	-4.95542	0	
0.9827	1.34849	-4.32159	0	
0.9833	3.18735	-6.45357	0	
0.9840	5.0262	-7.66362	0	
0.9847	1.96144	-9.21939	0	
0.9853	0.735541	-12.2733	0	
0.9860	2.28835	-14.0596	0	
0.9867	-0.490361	-13.1952	0	
0.9873	-2.61526	-9.21939	0	
0.9880	-1.38936	-4.60969	0	
0.9887	-1.38936	-1.26767	0	
0.9893	-2.00231	2.7082	0	
0.9900	-1.38936	1.49815	0	
0.9907	-2.61526	-5.81974	0	
0.9913	-4.45411	-8.87366	0	
0.9920	-3.22821	-7.0874	0	
0.9927	-1.38936	-11.0633	0	
0.9933	-1.6754	-24.1433	0	
0.9940	-3.22821	-47.9408	0	
0.9947	-3.22821	-63.8443	0	
0.9953	-2.28835	-25.9872	0	
0.9960	-1.38936	56.6992	0	
0.9967	-0.776405	109.48	0	
0.9973	-0.490361	98.2441	0	
0.9980	1.34849	60.9632	0	
0.9987	3.51425	33.5355	0	
0.9993	4.1272	21.6079	0	
1.0000	2.9013	21.3198	0	
1.0007	0.735541	21.6079	0	
1.0013	-0.490361	16.1339	0	
1.0020	1.6754	12.7919	0	
1.0027	5.92519	12.4462	0	
1.0033	5.92519	9.73798	0	
1.0040	4.41325	6.97216	0	
1.0047	6.86505	6.68406	0	
1.0053	7.478	6.05022	0	
1.0060	2.57439	3.91824	0	
1.0067	-0.490361	2.42009	0	
1.0073	0.449498	-0.0576212	0	
1.0080	1.06245	-4.60969	0	
1.0087	1.06245	-7.66362	0	
1.0093	0.449498	-8.87366	0	
1.0100	-2.28835	-10.4294	0	
1.0107	-4.1272	-9.21939	0	
1.0113	-3.22821	-5.81974	0	
1.0120	-2.00231	-6.45357	0	
1.0127	-3.22821	-6.16547	0	
1.0133	-4.1272	-1.26767	0	
1.0140	-2.28835	-1.55577	0	
1.0147	-0.163454	-3.68776	0	
1.0153	-1.38936	2.42009	0	
1.0160	-4.1272	4.20635	0	
1.0167	-3.84116	0.864318	0	
1.0173	-1.38936	9.10415	0	
1.0180	-0.776405	21.896	0	
1.0187	0.449498	21.896	0	
1.0193	2.57439	17.9778	0	
1.0200	2.28835	19.476	0	
1.0207	0.449498	21.6079	0	
1.0213	1.96144	22.2418	0	
1.0220	3.18735	8.81604	0	
1.0227	1.34849	-22.2994	0	
1.0233	1.06245	-42.7549	0	
1.0240	2.9013	-31.8069	0	
1.0247	2.28835	-14.9815	0	
1.0253	1.34849	-10.1413	0	
1.0260	2.28835	-4.03348	0	
1.0267	1.6754	3.91824	0	
1.0273	-0.163454	1.49815	0	
1.0280	0.735541	-8.87366	0	
1.0287	2.28835	-15.9034	0	
1.0293	0.449498	-17.1135	0	
1.0300	-2.28835	-11.3514	0	
1.0307	-4.74016	-3.68776	0	
1.0313	-6.86505	-1.9015	0	
1.0320	-6.2521	-2.1896	0	
1.0327	-3.22821	0.864318	0	
1.0333	-3.84116	3.28441	0	
1.0340	-5.96606	6.33833	0	
1.0347	-5.63915	12.1581	0	
1.0353	-3.51425	14.0019	0	
1.0360	-2.28835	12.4462	0	
1.0367	-1.6754	13.08	0	
1.0373	-0.490361	9.39225	0	
1.0380	1.06245	-0.345727	0	
1.0387	1.6754	-9.50749	0	
1.0393	1.34849	-25.3533	0	
1.0400	0.735541	-45.2326	0	
1.0407	1.34849	-46.4427	0	
1.0413	2.57439	-30.5392	0	
1.0420	2.57439	-21.0894	0	
1.0427	2.28835	-18.3812	0	
1.0433	3.8003	-10.4294	0	
1.0440	4.1272	-5.81974	0	
1.0447	1.96144	-8.58556	0	
1.0453	-0.490361	-9.50749	0	
1.0460	-0.490361	-6.45357	0	
1.0467	0.12259	-4.32159	0	
1.0473	0.735541	-2.82344	0	
1.0480	0.735541	2.42009	0	
1.0487	-0.776405	8.47031	0	
1.0493	-3.22821	10.6599	0	
1.0500	-3.51425	11.5242	0	
1.0507	-2.9013	13.08	0	
1.0513	-1.6754	11.5242	0	
1.0520	-1.6754	6.33833	0	
1.0527	-3.22821	3.28441	0	
1.0533	-3.84116	4.20635	0	
1.0540	-2.61526	2.42009	0	
1.0547	-2.28835	-8.00934	0	
1.0553	-2.61526	-21.7232	0	
1.0560	-0.776405	-31.4612	0	
1.0567	1.34849	-40.0467	0	
1.0573	1.34849	-50.7066	0	
1.0580	0.735541	-57.4483	0	
1.0587	0.449498	-60.5022	0	
1.0593	0.735541	-49.7847	0	
1.0600	2.28835	-1.9015	0	
1.0607	2.9013	59.1769	0	
1.0613	1.34849	74.3889	0	
1.0620	-0.163454	46.0393	0	
1.0627	-0.490361	24.3738	0	
1.0633	1.34849	20.3979	0	
1.0640	3.18735	17.0559	0	
1.0647	3.18735	16.1339	0	
1.0653	1.96144	25.2957	0	
1.0660	-0.776405	38.7214	0	
1.0667	-2.28835	43.6192	0	
1.0673	-0.776405	35.0337	0	
1.0680	-1.6754	23.7399	0	
1.0687	-5.96606	18.8997	0	
1.0693	-5.96606	16.422	0	
1.0700	-0.490361	13.6562	0	
1.0707	0.735541	9.73798	0	
1.0713	-2.28835	-2.47771	0	
1.0720	-4.74016	-19.8793	0	
1.0727	-5.06706	-26.2753	0	
1.0733	-2.28835	-18.0354	0	
1.0740	-0.490361	-6.74168	0	
1.0747	-0.776405	3.91824	0	
1.0753	0.449498	11.5242	0	
1.0760	0.735541	10.3142	0	
1.0767	-2.28835	3.63013	0	
1.0773	-1.6754	3.63013	0	
1.0780	1.06245	7.8941	0	
1.0787	0.449498	7.26027	0	
1.0793	0.449498	4.20635	0	
1.0800	2.28835	4.55207	0	
1.0807	2.28835	8.81604	0	
1.0813	3.8003	14.5782	0	
1.0820	6.53815	17.9778	0	
1.0827	3.8003	11.5242	0	
1.0833	0.449498	-4.03348	0	
1.0840	2.28835	-14.9815	0	
1.0847	1.6754	-14.9815	0	
1.0853	-1.6754	-12.8495	0	
1.0860	-1.38936	-14.9815	0	
1.0867	-0.490361	-13.4834	0	
1.0873	-2.00231	-6.45357	0	
1.0880	-1.38936	-1.26767	0	
1.0887	1.6754	-3.68776	0	
1.0893	1.96144	-12.5614	0	
1.0900	-1.06245	-19.5912	0	
1.0907	-2.00231	-21.4351	0	
1.0913	-1.06245	-28.753	0	
1.0920	-0.776405	-33.9389	0	
1.0927	-1.38936	-9.50749	0	
1.0933	-2.28835	38.0876	0	
1.0940	-2.28835	68.3387	0	
1.0947	-2.00231	63.729	0	
1.0953	-1.38936	40.8534	0	
1.0960	-0.163454	17.344	0	
1.0967	3.18735	-2.47771	0	
1.0973	4.1272	-21.4351	0	
1.0980	1.34849	-33.305	0	
1.0987	1.6754	-36.6471	0	
1.0993	4.41325	-34.5151	0	
1.1000	2.9013	-15.9034	0	
1.1007	0.449498	23.4518	0	
1.1013	2.9013	53.6453	0	
1.1020	4.1272	51.2252	0	
1.1027	2.9013	32.6136	0	
1.1033	4.1272	17.9778	0	
1.1040	3.8003	14.2901	0	
1.1047	-1.06245	20.686	0	
1.1053	-1.38936	24.0857	0	
1.1060	0.735541	17.344	0	
1.1067	-0.490361	10.948	0	
1.1073	-0.776405	-1.55577	0	
1.1080	1.06245	-29.6749	0	
1.1087	-1.38936	-49.2085	0	
1.1093	-4.1272	-38.7791	0	
1.1100	-2.28835	-20.1674	0	
1.1107	-1.6754	-14.0596	0	
1.1113	-2.28835	-12.5614	0	
1.1120	-0.776405	-10.1413	0	
1.1127	-1.38936	-8.29745	0	
1.1133	-4.45411	-7.66362	0	
1.1140	-4.74016	-5.81974	0	
1.1147	-0.776405	-3.39965	0	
1.1153	1.96144	-3.11154	0	
1.1160	0.449498	-4.95542	0	
1.1167	-1.38936	-3.11154	0	
1.1173	-0.776405	0.864318	0	
1.1180	1.34849	1.15242	0	
1.1187	2.57439	1.78626	0	
1.1193	2.28835	3.28441	0	
1.1200	1.06245	-1.26767	0	
1.1207	0.735541	-5.81974	0	
1.1213	3.51425	-7.66362	0	
1.1220	5.0262	-11.6395	0	
1.1227	3.18735	-14.4053	0	
1.1233	1.06245	-11.9276	0	
1.1240	1.06245	-16.8254	0	
1.1247	0.449498	-25.3533	0	
1.1253	-1.06245	-24.489	0	
1.1260	0.12259	-27.831	0	
1.1267	1.96144	-44.8869	0	
1.1273	-0.490361	-62.0004	0	
1.1280	-3.84116	-73.5822	0	
1.1287	-2.9013	-61.7123	0	
1.1293	-2.61526	4.84018	0	
1.1300	-3.51425	90.0043	0	
1.1307	-1.38936	111.036	0	
1.1313	-1.6754	68.3387	0	
1.1320	-5.35311	28.9258	0	
1.1327	-4.45411	13.3681	0	
1.1333	-2.9013	2.42009	0	
1.1340	-5.06706	0.230485	0	
1.1347	-5.06706	8.18221	0	
1.1353	-3.22821	10.6599	0	
1.1360	-3.22821	6.05022	0	
1.1367	-2.28835	5.76212	0	
1.1373	1.06245	6.05022	0	
1.1380	1.34849	0.230485	0	
1.1387	0.735541	-4.95542	0	
1.1393	1.6754	-5.81974	0	
1.1400	1.06245	-9.7956	0	
1.1407	1.34849	-17.1135	0	
1.1413	3.51425	-23.2213	0	
1.1420	2.57439	-30.5392	0	
1.1427	1.06245	-36.6471	0	
1.1433	4.1272	-36.0709	0	
1.1440	5.92519	-34.227	0	
1.1447	3.18735	-38.7791	0	
1.1453	1.06245	-44.5988	0	
1.1460	1.34849	-48.5747	0	
1.1467	0.735541	-54.0487	0	
1.1473	-0.490361	-60.7903	0	
1.1480	-0.490361	-66.8982	0	
1.1487	-0.163454	-68.7421	0	
1.1493	-0.163454	-45.5207	0	
1.1500	-2.28835	18.8997	0	
1.1507	-4.1272	93.0006	0	
1.1513	-3.51425	125.96	0	
1.1520	-3.84116	118.988	0	
1.1527	-5.06706	108.616	0	
1.1533	-3.84116	96.9764	0	
1.1540	-2.28835	71.0469	0	
1.1547	-2.9013	42.3516	0	
1.1553	-2.28835	19.7641	0	
1.1560	-1.38936	2.42009	0	
1.1567	-1.38936	6.97216	0	
1.1573	0.449498	32.9017	0	
1.1580	1.06245	49.3813	0	
1.1587	0.12259	46.6155	0	
1.1593	1.34849	31.0578	0	
1.1600	2.28835	1.15242	0	
1.1607	1.96144	-25.699	0	
1.1613	4.1272	-26.2753	0	
1.1620	5.63915	-12.5614	0	
1.1627	3.18735	-1.9015	0	
1.1633	1.96144	5.76212	0	
1.1640	2.57439	7.8941	0	
1.1647	1.6754	6.05022	0	
1.1653	1.34849	9.39225	0	
1.1660	3.18735	12.7919	0	
1.1667	1.96144	12.1581	0	
1.1673	-1.38936	10.0261	0	
1.1680	-0.163454	4.55207	0	
1.1687	1.96144	-4.03348	0	
1.1693	-1.06245	-10.4294	0	
1.1700	-4.1272	-16.5373	0	
1.1707	-4.1272	-22.6451	0	
1.1713	-5.06706	-24.489	0	
1.1720	-6.2521	-23.2213	0	
1.1727	-4.45411	-24.1433	0	
1.1733	-2.28835	-27.1972	0	
1.1740	-1.38936	-29.963	0	
1.1747	-0.163454	-29.3292	0	
1.1753	-0.163454	-28.753	0	
1.1760	-0.490361	-30.2511	0	
1.1767	0.449498	-31.4612	0	
1.1773	0.449498	-34.5151	0	
1.1780	-0.163454	-38.4909	0	
1.1787	-1.06245	-25.0652	0	
1.1793	-2.28835	13.3681	0	
1.1800	-0.776405	46.3274	0	
1.1807	2.28835	46.0393	0	
1.1813	3.18735	27.4277	0	
1.1820	2.28835	15.8458	0	
1.1827	0.449498	11.2361	0	
1.1833	-0.490361	6.05022	0	
1.1840	1.34849	2.7082	0	
1.1847	5.0262	2.7082	0	
1.1853	5.0262	3.28441	0	
1.1860	1.6754	2.7082	0	
1.1867	0.12259	0.230485	0	
1.1873	0.449498	-2.47771	0	
1.1880	-1.6754	-2.47771	0	
1.1887	-4.45411	-2.47771	0	
1.1893	-2.28835	-4.60969	0	
1.1900	0.12259	-5.81974	0	
1.1907	-2.28835	-5.53163	0	
1.1913	-3.22821	-5.81974	0	
1.1920	-1.38936	-6.74168	0	
1.1927	-3.51425	-6.74168	0	
1.1933	-5.63915	-8.58556	0	
1.1940	-4.1272	-14.4053	0	
1.1947	-2.9013	-20.5131	0	
1.1953	-2.00231	-18.6693	0	
1.1960	-0.490361	-11.9276	0	
1.1967	-1.38936	-10.4294	0	
1.1973	-0.776405	-6.74168	0	
1.1980	1.34849	5.12828	0	
1.1987	1.96144	10.6599	0	
1.1993	4.1272	6.05022	0	
1.2000	6.53815	5.41639	0	
1.2007	2.57439	7.8941	0	
1.2013	-0.490361	5.12828	0	
1.2020	3.51425	3.28441	0	
1.2027	5.31224	2.07436	0	
1.2033	2.28835	-2.47771	0	
1.2040	1.34849	-4.03348	0	
1.2047	0.449498	-1.55577	0	
1.2053	-0.490361	-1.55577	0	
1.2060	1.06245	-0.345727	0	
1.2067	1.34849	2.9963	0	
1.2073	-0.776405	4.55207	0	
1.2080	-1.06245	6.97216	0	
1.2087	-0.776405	8.81604	0	
1.2093	-4.1272	6.33833	0	
1.2100	-5.96606	6.05022	0	
1.2107	-3.22821	7.606	0	
1.2113	-1.38936	-1.55577	0	
1.2120	-2.00231	-19.5912	0	
1.2127	-1.6754	-35.437	0	
1.2133	-2.28835	-46.4427	0	
1.2140	-5.35311	-52.8386	0	
1.2147	-5.06706	-60.5022	0	
1.2153	-1.38936	-66.8982	0	
1.2160	0.449498	-40.9687	0	
1.2167	0.12259	24.0857	0	
1.2173	0.735541	71.335	0	
1.2180	2.28835	60.9632	0	
1.2187	3.18735	28.9258	0	
1.2193	2.57439	13.6562	0	
1.2200	1.96144	4.84018	0	
1.2207	2.28835	-8.58556	0	
1.2213	2.9013	-17.7473	0	
1.2220	2.9013	-25.3533	0	
1.2227	3.51425	-33.9389	0	
1.2233	3.51425	-21.0894	0	
1.2240	2.9013	18.8997	0	
1.2247	3.51425	52.4353	0	
1.2253	3.8003	55.4892	0	
1.2260	2.28835	40.5653	0	
1.2267	0.12259	22.5299	0	
1.2273	-0.776405	6.97216	0	
1.2280	-0.163454	2.07436	0	
1.2287	-0.490361	7.8941	0	
1.2293	-3.84116	13.08	0	
1.2300	-5.96606	9.73798	0	
1.2307	-4.1272	6.97216	0	
1.2313	-3.22821	10.6599	0	
1.2320	-2.61526	15.5001	0	
1.2327	-1.06245	14.9239	0	
1.2333	-0.490361	10.3142	0	
1.2340	-1.6754	7.8941	0	
1.2347	-2.9013	10.3142	0	
1.2353	-3.22821	11.2361	0	
1.2360	-2.9013	8.47031	0	
1.2367	-2.00231	7.26027	0	
1.2373	-0.490361	9.10415	0	
1.2380	-0.490361	8.81604	0	
1.2387	-0.490361	6.97216	0	
1.2393	1.34849	6.97216	0	
1.2400	3.18735	6.97216	0	
1.2407	4.1272	4.84018	0	
1.2413	5.92519	0.864318	0	
1.2420	5.92519	-2.1896	0	
1.2427	3.8003	-2.1896	0	
1.2433	3.18735	-1.9015	0	
1.2440	5.0262	-5.53163	0	
1.2447	3.51425	-9.50749	0	
1.2453	0.12259	-7.0874	0	
1.2460	-1.38936	-0.0576212	0	
1.2467	-0.490361	2.07436	0	
1.2473	-0.776405	-0.345727	0	
1.2480	-2.00231	-1.26767	0	
1.2487	-2.61526	-5.53163	0	
1.2493	-3.22821	-11.6395	0	
1.2500	-3.51425	-15.6153	0	
1.2507	-2.28835	-28.4072	0	
1.2513	-2.61526	-43.3887	0	
1.2520	-5.96606	-33.5931	0	
1.2527	-7.80491	-16.8254	0	
1.2533	-5.06706	-23.8552	0	
1.2540	-2.61526	-23.2213	0	
1.2547	-3.22821	9.10415	0	
1.2553	-3.22821	33.5355	0	
1.2560	-1.6754	28.6377	0	
1.2567	-0.163454	17.6321	0	
1.2573	0.12259	10.6599	0	
1.2580	1.34849	2.7082	0	
1.2587	4.1272	-6.74168	0	
1.2593	3.18735	-16.8254	0	
1.2600	0.449498	-25.9872	0	
1.2607	0.735541	-34.227	0	
1.2613	1.34849	-33.9389	0	
1.2620	0.449498	-10.4294	0	
1.2627	1.06245	25.8719	0	
1.2633	0.449498	39.0095	0	
1.2640	-1.06245	23.7399	0	
1.2647	0.735541	6.97216	0	
1.2653	2.9013	1.49815	0	
1.2660	0.735541	2.42009	0	
1.2667	-1.38936	2.42009	0	
1.2673	-1.06245	0.230485	0	
1.2680	-1.06245	-1.26767	0	
1.2687	-1.38936	-3.68776	0	
1.2693	-2.28835	-8.00934	0	
1.2700	-2.61526	-8.29745	0	
1.2707	-0.776405	-1.9015	0	
1.2713	-1.06245	1.78626	0	
1.2720	-3.22821	-0.97956	0	
1.2727	-3.22821	-3.11154	0	
1.2733	-2.61526	-0.0576212	0	
1.2740	-3.22821	2.7082	0	
1.2747	-2.28835	1.49815	0	
1.2753	-1.06245	1.49815	0	
1.2760	-2.28835	3.63013	0	
1.2767	-2.28835	5.12828	0	
1.2773	0.449498	4.84018	0	
1.2780	1.06245	6.05022	0	
1.2787	0.449498	8.47031	0	
1.2793	2.28835	7.26027	0	
1.2800	3.51425	-0.97956	0	
1.2807	3.51425	-8.87366	0	
1.2813	5.31224	-10.4294	0	
1.2820	5.0262	-8.58556	0	
1.2827	1.34849	-7.66362	0	
1.2833	0.735541	-8.58556	0	
1.2840	3.8003	-8.87366	0	
1.2847	3.8003	-6.74168	0	
1.2853	1.96144	-5.24353	0	
1.2860	1.34849	-6.74168	0	
1.2867	1.06245	-4.32159	0	
1.2873	1.06245	-0.345727	0	
1.2880	2.28835	-2.47771	0	
1.2887	1.34849	-9.50749	0	
1.2893	-2.28835	-16.2492	0	
1.2900	-2.28835	-18.6693	0	
1.2907	-0.163454	-17.7473	0	
1.2913	-0.776405	-21.7232	0	
1.2920	-2.9013	-26.9091	0	
1.2927	-2.61526	-26.621	0	
1.2933	-2.9013	-29.6749	0	
1.2940	-5.35311	-26.2753	0	
1.2947	-5.35311	10.6599	0	
1.2953	-2.28835	64.651	0	
1.2960	-2.28835	89.3704	0	
1.2967	-3.51425	78.3648	0	
1.2973	-1.06245	53.6453	0	
1.2980	3.18735	31.6916	0	
1.2987	2.28835	17.6321	0	
1.2993	-0.490361	6.68406	0	
1.3000	1.6754	-5.53163	0	
1.3007	5.0262	-14.9815	0	
1.3013	4.69929	-20.5131	0	
1.3020	3.18735	-24.7771	0	
1.3027	4.41325	-27.831	0	
1.3033	5.92519	-25.0652	0	
1.3040	5.0262	-17.7473	0	
1.3047	2.9013	-12.2733	0	
1.3053	0.735541	-7.66362	0	
1.3060	1.34849	1.78626	0	
1.3067	2.9013	12.4462	0	
1.3073	1.34849	12.4462	0	
1.3080	-3.84116	2.7082	0	
1.3087	-5.96606	-8.00934	0	
1.3093	-4.45411	-14.0596	0	
1.3100	-4.1272	-17.4592	0	
1.3107	-5.06706	-19.5912	0	
1.3113	-4.1272	-22.0113	0	
1.3120	-3.22821	-28.4072	0	
1.3127	-3.84116	-35.1489	0	
1.3133	-3.84116	-36.0709	0	
1.3140	-2.61526	-37.9147	0	
1.3147	-2.9013	-31.8069	0	
1.3153	-3.22821	13.3681	0	
1.3160	-1.38936	80.8425	0	
1.3167	0.449498	107.06	0	
1.3173	0.449498	82.0526	0	
1.3180	1.06245	55.7773	0	
1.3187	4.1272	52.7234	0	
1.3193	5.63915	55.4892	0	
1.3200	4.1272	47.8832	0	
1.3207	3.8003	32.9017	0	
1.3213	5.31224	9.39225	0	
1.3220	4.69929	-22.2994	0	
1.3227	0.735541	-42.1787	0	
1.3233	-1.38936	-36.359	0	
1.3240	-0.163454	-25.3533	0	
1.3247	1.34849	-23.2213	0	
1.3253	1.06245	-21.4351	0	
1.3260	-1.06245	-18.6693	0	
1.3267	-4.1272	-20.1674	0	
1.3273	-5.06706	-21.4351	0	
1.3280	-1.38936	-17.1135	0	
1.3287	-0.163454	-6.45357	0	
1.3293	-3.84116	5.76212	0	
1.3300	-4.74016	5.12828	0	
1.3307	-2.61526	-7.66362	0	
1.3313	-3.84116	-13.1952	0	
1.3320	-5.06706	-5.81974	0	
1.3327	-3.22821	0.576212	0	
1.3333	-3.51425	0.576212	0	
1.3340	-5.63915	-0.345727	0	
1.3347	-3.84116	0.576212	0	
1.3353	-0.776405	2.42009	0	
1.3360	-0.490361	2.7082	0	
1.3367	-1.38936	1.15242	0	
1.3373	-1.06245	-0.345727	0	
1.3380	-1.06245	0.576212	0	
1.3387	0.12259	2.42009	0	
1.3393	1.96144	3.63013	0	
1.3400	2.9013	2.07436	0	
1.3407	2.9013	-5.81974	0	
1.3413	3.18735	-14.9815	0	
1.3420	3.18735	-14.9815	0	
1.3427	2.28835	-9.7956	0	
1.3433	1.34849	-11.9276	0	
1.3440	1.96144	-15.9034	0	
1.3447	3.8003	-14.9815	0	
1.3453	4.1272	-19.5912	0	
1.3460	2.28835	-29.6749	0	
1.3467	1.34849	-37.2809	0	
1.3473	1.96144	-44.8869	0	
1.3480	0.735541	-38.7791	0	
1.3487	-0.490361	-9.21939	0	
1.3493	0.449498	13.08	0	
1.3500	-0.776405	7.8941	0	
1.3507	-3.22821	-4.95542	0	
1.3513	-1.6754	-17.7473	0	
1.3520	-1.6754	-22.6451	0	
1.3527	-3.22821	9.73798	0	
1.3533	-0.490361	63.729	0	
1.3540	1.34849	88.1604	0	
1.3547	-2.00231	78.7105	0	
1.3553	-2.00231	61.3089	0	
1.3560	0.449498	42.3516	0	
1.3567	0.12259	28.0039	0	
1.3573	0.449498	21.6079	0	
1.3580	2.57439	13.08	0	
1.3587	2.28835	0.576212	0	
1.3593	2.28835	-6.74168	0	
1.3600	4.1272	-8.58556	0	
1.3607	4.1272	-7.66362	0	
1.3613	3.18735	-5.81974	0	
1.3620	3.8003	-6.74168	0	
1.3627	2.57439	-6.74168	0	
1.3633	-0.163454	-3.11154	0	
1.3640	0.735541	-3.11154	0	
1.3647	3.8003	-6.74168	0	
1.3653	3.51425	-8.29745	0	
1.3660	0.735541	-8.87366	0	
1.3667	0.735541	-11.3514	0	
1.3673	1.6754	-10.4294	0	
1.3680	-0.776405	-5.81974	0	
1.3687	-4.1272	-6.74168	0	
1.3693	-3.84116	-9.50749	0	
1.3700	-2.00231	-9.7956	0	
1.3707	-3.51425	-11.0633	0	
1.3713	-5.96606	-11.3514	0	
1.3720	-5.06706	-6.74168	0	
1.3727	-4.1272	-3.68776	0	
1.3733	-5.96606	-5.81974	0	
1.3740	-3.51425	-9.21939	0	
1.3747	0.735541	-10.4294	0	
1.3753	-0.163454	-6.45357	0	
1.3760	-2.28835	4.84018	0	
1.3767	-1.38936	11.87	0	
1.3773	-0.490361	6.33833	0	
1.3780	1.6754	-1.55577	0	
1.3787	3.8003	3.28441	0	
1.3793	2.57439	11.87	0	
1.3800	0.735541	6.97216	0	
1.3807	0.12259	-1.9015	0	
1.3813	0.12259	0.864318	0	
1.3820	1.34849	2.9963	0	
1.3827	3.8003	-1.26767	0	
1.3833	5.31224	5.12828	0	
1.3840	5.0262	17.9778	0	
1.3847	2.57439	16.1339	0	
1.3853	2.28835	5.12828	0	
1.3860	2.9013	-3.39965	0	
1.3867	1.06245	-10.4294	0	
1.3873	-0.490361	-11.9276	0	
1.3880	0.449498	-8.29745	0	
1.3887	-2.28835	-10.1413	0	
1.3893	-4.1272	-13.1952	0	
1.3900	-1.06245	-5.24353	0	
1.3907	-1.38936	8.81604	0	
1.3913	-5.06706	16.422	0	
1.3920	-3.22821	17.344	0	
1.3927	-1.38936	15.5001	0	
1.3933	-3.84116	14.0019	0	
1.3940	-4.45411	15.212	0	
1.3947	-2.9013	11.5242	0	
1.3953	-3.22821	-10.4294	0	
1.3960	-2.28835	-38.7791	0	
1.3967	-1.38936	-43.1006	0	
1.3973	-1.6754	-25.9872	0	
1.3980	-1.06245	-20.5131	0	
1.3987	-0.163454	-24.1433	0	
1.3993	0.449498	-19.5912	0	
1.4000	2.28835	-18.9574	0	
1.4007	2.9013	-26.9091	0	
1.4013	0.449498	-29.6749	0	
1.4020	1.06245	-33.305	0	
1.4027	3.51425	-29.963	0	
1.4033	2.28835	15.5001	0	
1.4040	0.449498	78.3648	0	
1.4047	0.449498	90.2924	0	
1.4053	0.735541	57.045	0	
1.4060	-0.163454	31.0578	0	
1.4067	-1.38936	21.0317	0	
1.4073	-0.776405	11.2361	0	
1.4080	1.06245	2.42009	0	
1.4087	-1.06245	-3.39965	0	
1.4093	-5.63915	-7.0874	0	
1.4100	-5.06706	-4.03348	0	
1.4107	-0.163454	3.28441	0	
1.4113	-0.490361	7.8941	0	
1.4120	-3.22821	9.10415	0	
1.4127	-1.6754	12.1581	0	
1.4133	1.6754	10.948	0	
1.4140	-0.163454	0.576212	0	
1.4147	-2.61526	-7.66362	0	
1.4153	-1.38936	-14.0596	0	
1.4160	-1.06245	-36.9928	0	
1.4167	-1.06245	-55.8925	0	
1.4173	1.96144	-34.227	0	
1.4180	3.51425	7.26027	0	
1.4187	1.6754	25.5838	0	
1.4193	1.06245	23.4518	0	
1.4200	1.34849	17.0559	0	
1.4207	2.28835	3.91824	0	
1.4213	4.1272	-10.4294	0	
1.4220	3.18735	-14.9815	0	
1.4227	1.34849	-12.2733	0	
1.4233	2.28835	-7.66362	0	
1.4240	1.96144	-2.1896	0	
1.4247	0.449498	-0.633833	0	
1.4253	1.96144	-3.68776	0	
1.4260	3.18735	-7.66362	0	
1.4267	1.96144	-9.50749	0	
1.4273	-0.163454	-11.9276	0	
1.4280	-2.61526	-15.9034	0	
1.4287	-3.22821	-16.2492	0	
1.4293	-1.06245	-14.0596	0	
1.4300	-0.163454	-16.5373	0	
1.4307	-0.776405	-18.0354	0	
1.4313	-1.6754	-18.3812	0	
1.4320	-3.22821	-24.1433	0	
1.4327	-3.51425	-29.0411	0	
1.4333	-2.28835	-28.753	0	
1.4340	-2.28835	-34.8608	0	
1.4347	-3.84116	-31.1731	0	
1.4353	-3.84116	7.8941	0	
1.4360	-2.28835	58.5431	0	
1.4367	-1.38936	79.2867	0	
1.4373	-2.61526	70.4707	0	
1.4380	-2.28835	51.8591	0	
1.4387	0.12259	35.9556	0	
1.4393	2.28835	28.0039	0	
1.4400	2.9013	23.7399	0	
1.4407	2.57439	14.5782	0	
1.4413	1.06245	6.05022	0	
1.4420	0.449498	5.76212	0	
1.4427	1.96144	7.26027	0	
1.4433	1.34849	3.28441	0	
1.4440	0.12259	-0.633833	0	
1.4447	1.96144	-2.1896	0	
1.4453	1.96144	-6.74168	0	
1.4460	0.449498	-10.1413	0	
1.4467	0.449498	-11.3514	0	
1.4473	-0.490361	-19.8793	0	
1.4480	-3.51425	-31.4612	0	
1.4487	-4.1272	-38.2028	0	
1.4493	-3.51425	-41.5449	0	
1.4500	-4.1272	-26.621	0	
1.4507	-2.9013	16.7101	0	
1.4513	-1.38936	54.2791	0	
1.4520	-2.9013	53.3572	0	
1.4527	-5.96606	34.4575	0	
1.4533	-5.63915	25.2957	0	
1.4540	-3.51425	22.5299	0	
1.4547	-4.45411	18.8997	0	
1.4553	-5.35311	16.7101	0	
1.4560	-3.51425	16.7101	0	
1.4567	-2.28835	15.212	0	
1.4573	-1.38936	12.4462	0	
1.4580	1.34849	10.6599	0	
1.4587	2.9013	10.6599	0	
1.4593	2.28835	10.948	0	
1.4600	1.6754	13.08	0	
1.4607	1.6754	10.6599	0	
1.4613	3.51425	0.576212	0	
1.4620	5.31224	-9.21939	0	
1.4627	3.51425	-12.2733	0	
1.4633	2.28835	-11.6395	0	
1.4640	4.1272	-11.3514	0	
1.4647	2.57439	-12.5614	0	
1.4653	0.12259	-8.29745	0	
1.4660	0.735541	2.9963	0	
1.4667	0.449498	2.7082	0	
1.4673	-1.06245	-10.4294	0	
1.4680	-1.06245	-16.2492	0	
1.4687	-2.28835	-21.4351	0	
1.4693	-3.22821	-38.7791	0	
1.4700	-2.28835	-49.7847	0	
1.4707	-1.38936	-37.569	0	
1.4713	-1.38936	-17.1135	0	
1.4720	-1.38936	-4.95542	0	
1.4727	-1.38936	-4.32159	0	
1.4733	-0.163454	-14.0596	0	
1.4740	0.449498	-21.0894	0	
1.4747	-0.776405	-15.3272	0	
1.4753	-1.6754	-8.87366	0	
1.4760	-0.490361	-9.21939	0	
1.4767	1.06245	-9.50749	0	
1.4773	2.28835	-8.58556	0	
1.4780	3.51425	-8.58556	0	
1.4787	3.18735	-7.0874	0	
1.4793	1.96144	-7.66362	0	
1.4800	1.34849	-11.3514	0	
1.4807	3.18735	-9.50749	0	
1.4813	5.0262	-7.37551	0	
1.4820	3.51425	-16.2492	0	
1.4827	1.96144	-27.5429	0	
1.4833	1.96144	-36.9928	0	
1.4840	0.735541	-41.5449	0	
1.4847	-0.490361	-11.6395	0	
1.4853	-0.490361	47.8832	0	
1.4860	-3.22821	75.3109	0	
1.4867	-5.35311	50.0152	0	
1.4873	-1.6754	14.5782	0	
1.4880	-0.490361	-2.1896	0	
1.4887	-4.1272	-1.55577	0	
1.4893	-4.1272	6.68406	0	
1.4900	-2.28835	7.606	0	
1.4907	-3.22821	1.78626	0	
1.4913	-2.9013	-1.26767	0	
1.4920	-1.6754	-3.39965	0	
1.4927	-3.22821	-6.16547	0	
1.4933	-1.6754	-4.32159	0	
1.4940	0.735541	-1.26767	0	
1.4947	-2.61526	-1.26767	0	
1.4953	-4.1272	-2.82344	0	
1.4960	-0.163454	-2.1896	0	
1.4967	0.12259	1.78626	0	
1.4973	-2.00231	3.28441	0	
1.4980	0.12259	2.42009	0	
1.4987	0.12259	4.84018	0	
1.4993	-2.00231	1.49815	0	
1.5000	0.449498	-11.6395	0	
1.5007	3.18735	-22.0113	0	
1.5013	2.9013	-23.2213	0	
1.5020	2.9013	-17.7473	0	
1.5027	1.6754	-7.66362	0	
1.5033	-1.38936	-11.3514	0	
1.5040	-1.06245	-26.2753	0	
1.5047	1.34849	-10.7175	0	
1.5053	1.34849	37.1657	0	
1.5060	0.449498	71.9689	0	
1.5067	-0.163454	76.5209	0	
1.5073	-0.776405	61.8851	0	
1.5080	-0.490361	35.3794	0	
1.5087	-0.490361	16.7101	0	
1.5093	-1.6754	18.2659	0	
1.5100	-0.163454	21.0317	0	
1.5107	-1.38936	17.6321	0	
1.5113	-6.86505	17.6321	0	
1.5120	-6.86505	15.212	0	
1.5127	-2.28835	5.76212	0	
1.5133	-2.9013	-3.68776	0	
1.5140	-3.51425	-10.7175	0	
1.5147	-1.38936	-18.3812	0	
1.5153	-0.490361	-22.6451	0	
1.5160	1.6754	-24.1433	0	
1.5167	5.0262	-25.0652	0	
1.5173	2.9013	-25.3533	0	
1.5180	0.449498	-24.7771	0	
1.5187	2.57439	-22.2994	0	
1.5193	3.51425	-20.5131	0	
1.5200	3.18735	-21.7232	0	
1.5207	4.69929	-23.8552	0	
1.5213	5.0262	-20.5131	0	
1.5220	4.1272	-15.6153	0	
1.5227	4.69929	-14.0596	0	
1.5233	2.28835	-10.7175	0	
1.5240	0.449498	-3.39965	0	
1.5247	4.1272	2.42009	0	
1.5253	4.69929	9.73798	0	
1.5260	0.449498	20.3979	0	
1.5267	-0.490361	27.1396	0	
1.5273	-1.06245	27.1396	0	
1.5280	-3.22821	23.4518	0	
1.5287	-2.9013	14.9239	0	
1.5293	-0.776405	7.8941	0	
1.5300	-1.06245	11.5242	0	
1.5307	-1.6754	15.8458	0	
1.5313	-2.28835	13.08	0	
1.5320	-2.28835	11.5242	0	
1.5327	-2.9013	15.212	0	
1.5333	-4.74016	16.1339	0	
1.5340	-2.9013	16.1339	0	
1.5347	1.34849	17.0559	0	
1.5353	0.12259	16.1339	0	
1.5360	-3.22821	15.5001	0	
1.5367	-0.163454	17.6321	0	
1.5373	2.28835	14.9239	0	
1.5380	0.735541	10.3142	0	
1.5387	1.34849	5.12828	0	
1.5393	3.51425	-17.4592	0	
1.5400	2.9013	-52.2624	0	
1.5407	1.34849	-65.9762	0	
1.5413	0.735541	-60.1565	0	
1.5420	0.449498	-55.6044	0	
1.5427	1.34849	-47.9408	0	
1.5433	1.6754	-40.6229	0	
1.5440	1.6754	-38.2028	0	
1.5447	2.9013	-9.7956	0	
1.5453	2.28835	43.6192	0	
1.5460	-0.163454	64.651	0	
1.5467	-0.776405	42.6973	0	
1.5473	-0.490361	20.686	0	
1.5480	-1.38936	8.18221	0	
1.5487	-1.38936	-2.47771	0	
1.5493	-0.776405	-6.45357	0	
1.5500	-2.61526	-7.66362	0	
1.5507	-4.74016	-11.9276	0	
1.5513	-4.45411	-10.4294	0	
1.5520	-3.22821	-4.03348	0	
1.5527	0.449498	-1.26767	0	
1.5533	2.28835	-0.345727	0	
1.5540	-1.38936	0.576212	0	
1.5547	-4.45411	-1.55577	0	
1.5553	-1.38936	-1.26767	0	
1.5560	0.449498	0.230485	0	
1.5567	-0.776405	-2.47771	0	
1.5573	0.12259	-3.39965	0	
1.5580	2.57439	-0.633833	0	
1.5587	3.18735	-0.633833	0	
1.5593	3.51425	-0.97956	0	
1.5600	4.1272	-1.26767	0	
1.5607	3.8003	-5.81974	0	
1.5613	4.1272	-7.37551	0	
1.5620	3.18735	-3.68776	0	
1.5627	1.34849	-2.47771	0	
1.5633	1.34849	0.864318	0	
1.5640	0.449498	8.18221	0	
1.5647	-1.6754	6.05022	0	
1.5653	0.735541	-1.55577	0	
1.5660	3.51425	1.49815	0	
1.5667	1.06245	6.05022	0	
1.5673	-0.490361	2.42009	0	
1.5680	0.449498	-1.26767	0	
1.5687	-2.28835	-4.95542	0	
1.5693	-6.2521	-12.2733	0	
1.5700	-5.63915	-18.6693	0	
1.5707	-4.1272	-22.6451	0	
1.5713	-5.63915	-28.1191	0	
1.5720	-5.96606	-31.1731	0	
1.5727	-3.22821	-36.9928	0	
1.5733	-3.22821	-48.8628	0	
1.5740	-5.96606	-53.4725	0	
1.5747	-6.2521	-53.4725	0	
1.5753	-4.1272	-61.3666	0	
1.5760	-3.22821	-58.0245	0	
1.5767	-3.22821	-31.1731	0	
1.5773	-3.22821	3.28441	0	
1.5780	-2.00231	50.9371	0	
1.5787	1.6754	111.324	0	
1.5793	3.8003	133.912	0	
1.5800	1.6754	97.8984	0	
1.5807	1.34849	54.5673	0	
1.5813	2.28835	36.8776	0	
1.5820	0.735541	33.1898	0	
1.5827	-0.163454	34.7456	0	
1.5833	3.18735	36.8776	0	
1.5840	3.8003	31.6916	0	
1.5847	1.6754	21.6079	0	
1.5853	2.28835	5.41639	0	
1.5860	1.06245	-16.5373	0	
1.5867	-1.6754	-20.8012	0	
1.5873	-0.490361	5.12828	0	
1.5880	1.06245	29.8478	0	
1.5887	-0.490361	28.9258	0	
1.5893	-0.490361	16.7101	0	
1.5900	-0.490361	9.10415	0	
1.5907	-2.9013	6.33833	0	
1.5913	-3.51425	5.12828	0	
1.5920	-2.61526	1.15242	0	
1.5927	-3.51425	-6.16547	0	
1.5933	-3.22821	-8.58556	0	
1.5940	-2.28835	-7.0874	0	
1.5947	-2.9013	-7.66362	0	
1.5953	-0.776405	-4.03348	0	
1.5960	1.6754	5.12828	0	
1.5967	0.449498	6.97216	0	
1.5973	-0.163454	0.230485	0	
1.5980	0.449498	-6.16547	0	
1.5987	0.449498	-9.21939	0	
1.5993	2.9013	-10.4294	0	
1.6000	5.31224	-11.3514	0	
1.6007	5.63915	-14.4053	0	
1.6013	6.86505	-16.2492	0	
1.6020	5.92519	-13.7715	0	
1.6027	-0.163454	-12.2733	0	
1.6033	0.12259	-11.0633	0	
1.6040	4.41325	-5.24353	0	
1.6047	1.34849	2.9963	0	
1.6053	-1.6754	7.8941	0	
1.6060	1.34849	10.6599	0	
1.6067	2.9013	12.4462	0	
1.6073	0.735541	13.08	0	
1.6080	1.34849	11.87	0	
1.6087	1.34849	12.7919	0	
1.6093	-0.776405	15.212	0	
1.6100	-0.776405	5.41639	0	
1.6107	-0.163454	-20.5131	0	
1.6113	-2.00231	-38.7791	0	
1.6120	-4.45411	-32.095	0	
1.6127	-4.45411	-20.5131	0	
1.6133	-2.28835	-18.6693	0	
1.6140	-1.06245	-16.8254	0	
1.6147	-2.61526	-10.4294	0	
1.6153	-2.28835	-8.29745	0	
1.6160	1.34849	-10.4294	0	
1.6167	1.96144	-14.4053	0	
1.6173	0.12259	-20.1674	0	
1.6180	0.735541	-24.1433	0	
1.6187	3.8003	-23.2213	0	
1.6193	4.1272	-23.8552	0	
1.6200	1.6754	-27.5429	0	
1.6207	0.735541	-25.3533	0	
1.6213	3.18735	-17.7473	0	
1.6220	4.41325	-12.2733	0	
1.6227	3.18735	-8.87366	0	
1.6233	3.51425	-2.82344	0	
1.6240	3.8003	2.7082	0	
1.6247	2.9013	1.78626	0	
1.6253	2.28835	-2.1896	0	
1.6260	2.28835	-2.1896	0	
1.6267	1.06245	0.576212	0	
1.6273	0.449498	-6.74168	0	
1.6280	-2.00231	-21.7232	0	
1.6287	-3.22821	-30.5392	0	
1.6293	-0.490361	-33.5931	0	
1.6300	0.449498	-28.4072	0	
1.6307	-2.28835	2.07436	0	
1.6313	-1.38936	39.6434	0	
1.6320	1.34849	44.4835	0	
1.6327	-0.490361	24.95	0	
1.6333	-0.776405	13.3681	0	
1.6340	1.96144	11.2361	0	
1.6347	0.735541	10.6599	0	
1.6353	-2.00231	18.2659	0	
1.6360	-1.6754	28.6377	0	
1.6367	0.449498	29.8478	0	
1.6373	1.96144	23.4518	0	
1.6380	0.735541	17.0559	0	
1.6387	0.12259	10.6599	0	
1.6393	2.28835	6.33833	0	
1.6400	3.51425	6.97216	0	
1.6407	1.6754	8.81604	0	
1.6413	0.449498	6.97216	0	
1.6420	1.6754	5.12828	0	
1.6427	3.51425	7.8941	0	
1.6433	5.0262	8.18221	0	
1.6440	2.9013	4.20635	0	
1.6447	-0.776405	2.42009	0	
1.6453	0.12259	-1.26767	0	
1.6460	3.18735	-7.37551	0	
1.6467	2.28835	-5.24353	0	
1.6473	-0.490361	1.78626	0	
1.6480	-0.776405	1.15242	0	
1.6487	-0.163454	-0.633833	0	
1.6493	-2.28835	2.9963	0	
1.6500	-5.06706	5.12828	0	
1.6507	-5.06706	4.20635	0	
1.6513	-2.9013	2.42009	0	
1.6520	-3.22821	0.230485	0	
1.6527	-5.06706	2.07436	0	
1.6533	-5.06706	2.42009	0	
1.6540	-3.22821	-3.39965	0	
1.6547	-3.22821	-4.32159	0	
1.6553	-4.45411	-0.345727	0	
1.6560	-3.22821	-5.81974	0	
1.6567	-0.776405	-15.9034	0	
1.6573	-2.28835	-20.8012	0	
1.6580	-4.45411	-24.1433	0	
1.6587	-1.06245	-26.9091	0	
1.6593	1.34849	-30.5392	0	
1.6600	-0.490361	-35.1489	0	
1.6607	-2.28835	-17.7473	0	
1.6613	-1.38936	26.7938	0	
1.6620	1.96144	60.0989	0	
1.6627	3.51425	59.1769	0	
1.6633	-0.490361	41.1415	0	
1.6640	-3.22821	22.2418	0	
1.6647	-0.163454	7.8941	0	
1.6653	2.28835	1.49815	0	
1.6660	0.449498	2.42009	0	
1.6667	-0.490361	7.8941	0	
1.6673	-0.163454	14.9239	0	
1.6680	-0.490361	17.9778	0	
1.6687	-0.490361	16.422	0	
1.6693	-0.776405	14.2901	0	
1.6700	-1.6754	13.08	0	
1.6707	-1.38936	11.2361	0	
1.6713	-2.00231	9.39225	0	
1.6720	-2.9013	9.10415	0	
1.6727	-2.28835	4.20635	0	
1.6733	-2.61526	-6.16547	0	
1.6740	-3.84116	-12.8495	0	
1.6747	-2.28835	-17.4592	0	
1.6753	-0.163454	-22.9332	0	
1.6760	-0.776405	-20.5131	0	
1.6767	-0.490361	-17.7473	0	
1.6773	0.735541	-29.0411	0	
1.6780	0.449498	-37.2809	0	
1.6787	1.34849	-28.4072	0	
1.6793	1.96144	-19.8793	0	
1.6800	-1.38936	-22.9332	0	
1.6807	-1.6754	-27.831	0	
1.6813	4.1272	-26.9091	0	
1.6820	5.92519	-26.621	0	
1.6827	3.51425	-32.7288	0	
1.6833	3.51425	-41.833	0	
1.6840	3.18735	-48.5747	0	
1.6847	0.735541	-41.2568	0	
1.6853	0.735541	2.42009	0	
1.6860	1.96144	67.0711	0	
1.6867	-0.490361	91.2143	0	
1.6873	-2.61526	64.9391	0	
1.6880	-3.22821	34.4575	0	
1.6887	-3.22821	18.8997	0	
1.6893	-2.28835	9.10415	0	
1.6900	-1.6754	7.8941	0	
1.6907	-2.28835	10.6599	0	
1.6913	-3.51425	9.39225	0	
1.6920	-4.45411	5.41639	0	
1.6927	-3.51425	-1.55577	0	
1.6933	-1.6754	-8.58556	0	
1.6940	-2.28835	-7.37551	0	
1.6947	-3.51425	-2.47771	0	
1.6953	-2.61526	-1.9015	0	
1.6960	-0.776405	-6.45357	0	
1.6967	0.12259	-13.4834	0	
1.6973	0.735541	-12.2733	0	
1.6980	-0.163454	0.576212	0	
1.6987	0.449498	5.76212	0	
1.6993	4.41325	-5.53163	0	
1.7000	6.53815	-14.4053	0	
1.7007	3.18735	-12.5614	0	
1.7013	0.449498	-8.00934	0	
1.7020	3.18735	-3.68776	0	
1.7027	6.53815	2.42009	0	
1.7033	5.0262	7.606	0	
1.7040	0.449498	9.73798	0	
1.7047	-1.06245	9.39225	0	
1.7053	1.34849	11.5242	0	
1.7060	2.28835	17.344	0	
1.7067	1.34849	18.8997	0	
1.7073	0.449498	9.73798	0	
1.7080	-0.163454	-11.3514	0	
1.7087	-1.38936	-43.1006	0	
1.7093	-5.06706	-67.1863	0	
1.7100	-6.86505	-58.9465	0	
1.7107	-3.22821	-15.9034	0	
1.7113	-0.163454	31.0578	0	
1.7120	-0.163454	51.8591	0	
1.7127	-0.490361	45.1174	0	
1.7133	-2.28835	30.4816	0	
1.7140	-3.22821	21.3198	0	
1.7147	0.12259	18.8997	0	
1.7153	2.28835	21.0317	0	
1.7160	2.28835	23.4518	0	
1.7167	3.18735	21.3198	0	
1.7173	3.18735	16.422	0	
1.7180	1.34849	12.4462	0	
1.7187	2.57439	6.68406	0	
1.7193	3.18735	-5.53163	0	
1.7200	2.28835	-15.9034	0	
1.7207	3.51425	-15.9034	0	
1.7213	3.51425	-12.2733	0	
1.7220	2.28835	-11.9276	0	
1.7227	3.8003	-11.6395	0	
1.7233	4.41325	-13.1952	0	
1.7240	1.34849	-18.6693	0	
1.7247	0.12259	-21.7232	0	
1.7253	1.6754	-26.621	0	
1.7260	2.28835	-36.0709	0	
1.7267	2.9013	-39.701	0	
1.7273	3.51425	-41.5449	0	
1.7280	1.06245	-40.9687	0	
1.7287	-1.6754	-11.9276	0	
1.7293	-1.38936	41.4296	0	
1.7300	-0.490361	69.203	0	
1.7307	-2.9013	56.4111	0	
1.7313	-5.35311	33.5355	0	
1.7320	-4.45411	16.7101	0	
1.7327	-1.6754	6.68406	0	
1.7333	-1.6754	6.33833	0	
1.7340	-3.84116	10.3142	0	
1.7347	-5.06706	10.6599	0	
1.7353	-3.84116	8.81604	0	
1.7360	-0.776405	9.73798	0	
1.7367	0.449498	12.1581	0	
1.7373	0.449498	11.5242	0	
1.7380	1.34849	11.2361	0	
1.7387	3.18735	13.3681	0	
1.7393	2.28835	14.2901	0	
1.7400	1.34849	13.08	0	
1.7407	1.34849	14.2901	0	
1.7413	0.12259	16.1339	0	
1.7420	0.12259	15.5001	0	
1.7427	2.57439	10.948	0	
1.7433	3.18735	3.91824	0	
1.7440	1.06245	-2.1896	0	
1.7447	0.12259	-4.60969	0	
1.7453	1.06245	-7.37551	0	
1.7460	0.735541	-11.3514	0	
1.7467	-1.6754	-16.8254	0	
1.7473	-4.1272	-24.1433	0	
1.7480	-3.84116	-29.0411	0	
1.7487	-3.22821	-27.831	0	
1.7493	-3.22821	-26.2753	0	
1.7500	-2.28835	-26.621	0	
1.7507	-3.22821	-21.7232	0	
1.7513	-4.1272	-11.3514	0	
1.7520	-2.28835	-5.24353	0	
1.7527	-0.776405	-3.68776	0	
1.7533	-3.22821	-0.345727	0	
1.7540	-4.74016	6.68406	0	
1.7547	-2.61526	15.212	0	
1.7553	-0.490361	20.686	0	
1.7560	-1.38936	18.8997	0	
1.7567	-2.9013	14.2901	0	
1.7573	-2.61526	12.4462	0	
1.7580	-0.490361	8.81604	0	
1.7587	0.449498	7.606	0	
1.7593	0.449498	8.18221	0	
1.7600	1.34849	-8.87366	0	
1.7607	2.28835	-39.1248	0	
1.7613	1.6754	-48.2865	0	
1.7620	1.6754	-34.8608	0	
1.7627	2.57439	-25.3533	0	
1.7633	1.96144	-23.2213	0	
1.7640	0.735541	-22.2994	0	
1.7647	2.28835	-20.1674	0	
1.7653	3.8003	-10.7175	0	
1.7660	1.34849	0.576212	0	
1.7667	-1.06245	0.230485	0	
1.7673	-1.06245	-5.53163	0	
1.7680	-1.38936	-4.03348	0	
1.7687	-2.28835	-0.0576212	0	
1.7693	-2.00231	0.230485	0	
1.7700	-2.28835	-2.47771	0	
1.7707	-4.74016	-4.03348	0	
1.7713	-5.96606	-1.26767	0	
1.7720	-5.63915	0.576212	0	
1.7727	-5.63915	-0.97956	0	
1.7733	-4.1272	-0.97956	0	
1.7740	-1.06245	2.42009	0	
1.7747	-0.776405	7.26027	0	
1.7753	-1.6754	12.4462	0	
1.7760	-0.490361	14.0019	0	
1.7767	0.449498	10.6599	0	
1.7773	-1.6754	6.97216	0	
1.7780	-1.38936	-1.26767	0	
1.7787	1.06245	-15.6153	0	
1.7793	0.12259	-25.9872	0	
1.7800	-0.776405	-27.5429	0	
1.7807	1.34849	-27.831	0	
1.7813	3.18735	-31.4612	0	
1.7820	3.18735	-34.227	0	
1.7827	3.18735	-30.885	0	
1.7833	1.6754	-22.0113	0	
1.7840	0.449498	-18.6693	0	
1.7847	2.28835	-25.3533	0	
1.7853	3.18735	-31.1731	0	
1.7860	0.449498	-34.5151	0	
1.7867	-2.28835	-33.305	0	
1.7873	-0.490361	-0.0576212	0	
1.7880	1.34849	69.203	0	
1.7887	-0.163454	119.276	0	
1.7893	-0.490361	112.88	0	
1.7900	1.96144	76.2328	0	
1.7907	0.735541	48.1713	0	
1.7913	-1.6754	37.5114	0	
1.7920	0.449498	26.7938	0	
1.7927	-0.490361	4.20635	0	
1.7933	-5.06706	-13.1952	0	
1.7940	-4.1272	-11.3514	0	
1.7947	0.449498	-10.4294	0	
1.7953	-1.38936	-26.621	0	
1.7960	-2.61526	-49.7847	0	
1.7967	0.449498	-61.0784	0	
1.7973	1.06245	-43.3887	0	
1.7980	-0.490361	-8.29745	0	
1.7987	1.34849	8.47031	0	
1.7993	2.28835	4.20635	0	
1.8000	1.34849	16.1339	0	
1.8007	2.57439	56.4111	0	
1.8013	3.18735	98.2441	0	
1.8020	1.96144	111.958	0	
1.8027	2.9013	88.1604	0	
1.8033	4.1272	50.9371	0	
1.8040	3.51425	32.3255	0	
1.8047	3.51425	28.9258	0	
1.8053	4.69929	24.3738	0	
1.8060	3.51425	19.476	0	
1.8067	1.06245	7.606	0	
1.8073	0.735541	-19.3031	0	
1.8080	1.96144	-39.701	0	
1.8087	-1.06245	-34.227	0	
1.8093	-4.74016	-17.7473	0	
1.8100	-3.22821	-9.50749	0	
1.8107	-1.06245	-8.58556	0	
1.8113	-2.28835	-8.87366	0	
1.8120	-1.38936	-7.37551	0	
1.8127	-0.490361	-5.24353	0	
1.8133	-4.1272	-5.24353	0	
1.8140	-4.74016	-6.45357	0	
1.8147	-1.06245	-7.0874	0	
1.8153	0.735541	-7.0874	0	
1.8160	2.28835	-8.00934	0	
1.8167	3.18735	-8.87366	0	
1.8173	-0.490361	-7.37551	0	
1.8180	-2.28835	-4.95542	0	
1.8187	1.06245	-6.74168	0	
1.8193	2.9013	-10.7175	0	
1.8200	1.96144	-11.9276	0	
1.8207	0.735541	-11.6395	0	
1.8213	1.6754	-13.7715	0	
1.8220	5.92519	-15.9034	0	
1.8227	6.86505	-14.4053	0	
1.8233	1.96144	-11.3514	0	
1.8240	-0.163454	-9.50749	0	
1.8247	0.735541	-9.7956	0	
1.8253	-0.490361	-10.4294	0	
1.8260	0.12259	-10.1413	0	
1.8267	1.34849	-9.50749	0	
1.8273	-2.00231	-9.21939	0	
1.8280	-4.45411	-9.50749	0	
1.8287	-1.6754	-10.4294	0	
1.8293	-1.6754	-9.21939	0	
1.8300	-4.1272	-6.45357	0	
1.8307	-3.22821	-7.0874	0	
1.8313	-1.38936	-11.9276	0	
1.8320	-2.9013	-13.4834	0	
1.8327	-3.22821	-10.1413	0	
1.8333	-0.490361	-7.37551	0	
1.8340	-2.00231	-6.74168	0	
1.8347	-5.96606	-4.95542	0	
1.8353	-4.1272	-1.9015	0	
1.8360	-0.163454	-1.26767	0	
1.8367	-1.38936	-2.82344	0	
1.8373	-2.28835	-2.1896	0	
1.8380	-0.163454	0.576212	0	
1.8387	1.06245	3.91824	0	
1.8393	0.735541	6.97216	0	
1.8400	1.34849	8.81604	0	
1.8407	2.28835	6.05022	0	
1.8413	2.9013	1.49815	0	
1.8420	2.57439	-1.26767	0	
1.8427	0.449498	-3.11154	0	
1.8433	-0.490361	-3.11154	0	
1.8440	2.28835	0.230485	0	
1.8447	5.0262	3.63013	0	
1.8453	4.1272	4.84018	0	
1.8460	0.449498	2.42009	0	
1.8467	-1.38936	-2.82344	0	
1.8473	0.449498	-4.95542	0	
1.8480	-0.163454	-3.11154	0	
1.8487	-4.1272	-2.1896	0	
1.8493	-4.74016	-2.47771	0	
1.8500	-2.28835	-1.9015	0	
1.8507	-1.38936	-2.47771	0	
1.8513	-0.490361	-3.11154	0	
1.8520	0.12259	-3.11154	0	
1.8527	-1.6754	-6.16547	0	
1.8533	-2.28835	-10.4294	0	
1.8540	-0.490361	-13.1952	0	
1.8547	0.449498	-14.9815	0	
1.8553	-0.163454	-16.5373	0	
1.8560	0.449498	-14.0596	0	
1.8567	-0.163454	-9.21939	0	
1.8573	-0.490361	-2.1896	0	
1.8580	2.28835	2.9963	0	
1.8587	2.57439	1.49815	0	
1.8593	0.449498	-1.26767	0	
1.8600	2.9013	-2.82344	0	
1.8607	6.53815	-8.58556	0	
1.8613	3.18735	-12.5614	0	
1.8620	1.34849	-1.26767	0	
1.8627	3.8003	14.5782	0	
1.8633	2.28835	17.0559	0	
1.8640	-1.06245	17.0559	0	
1.8647	0.449498	24.95	0	
1.8653	1.96144	27.4277	0	
1.8660	0.449498	18.8997	0	
1.8667	-0.776405	8.81604	0	
1.8673	-2.00231	1.49815	0	
1.8680	-0.776405	-4.95542	0	
1.8687	1.34849	-8.58556	0	
1.8693	-1.38936	-8.29745	0	
1.8700	-4.1272	-5.24353	0	
1.8707	-1.06245	-4.60969	0	
1.8713	0.449498	-10.4294	0	
1.8720	-3.51425	-20.5131	0	
1.8727	-4.74016	-26.2753	0	
1.8733	-2.00231	-25.699	0	
1.8740	-1.38936	-21.7232	0	
1.8747	-1.38936	-15.6153	0	
1.8753	-2.00231	-8.29745	0	
1.8760	-5.06706	-9.21939	0	
1.8767	-4.45411	-22.6451	0	
1.8773	0.449498	-23.8552	0	
1.8780	-0.490361	10.6599	0	
1.8787	-3.22821	59.1769	0	
1.8793	1.34849	80.2087	0	
1.8800	5.0262	70.4707	0	
1.8807	3.18735	51.8591	0	
1.8813	3.18735	37.1657	0	
1.8820	3.8003	24.6619	0	
1.8827	3.18735	16.1339	0	
1.8833	4.1272	13.3681	0	
1.8840	5.0262	11.5242	0	
1.8847	2.57439	7.8941	0	
1.8853	0.735541	7.606	0	
1.8860	0.449498	6.68406	0	
1.8867	-0.163454	0.576212	0	
1.8873	-1.06245	-2.1896	0	
1.8880	-2.9013	-0.0576212	0	
1.8887	-3.84116	1.15242	0	
1.8893	-2.28835	2.07436	0	
1.8900	-2.28835	2.9963	0	
1.8907	-4.45411	2.42009	0	
1.8913	-5.06706	3.63013	0	
1.8920	-4.1272	-2.82344	0	
1.8927	-3.51425	-24.7771	0	
1.8933	-2.28835	-36.9928	0	
1.8940	-1.06245	-21.4351	0	
1.8947	1.06245	-0.0576212	0	
1.8953	2.28835	10.6599	0	
1.8960	-0.490361	13.6562	0	
1.8967	-2.00231	8.18221	0	
1.8973	0.735541	-6.16547	0	
1.8980	3.8003	-17.7473	0	
1.8987	3.8003	-24.1433	0	
1.8993	0.735541	-30.5392	0	
1.9000	-2.28835	-36.9928	0	
1.9007	0.12259	-42.1787	0	
1.9013	5.0262	-47.6527	0	
1.9020	4.1272	-43.3887	0	
1.9027	1.6754	-15.3272	0	
1.9033	2.28835	22.5299	0	
1.9040	2.28835	39.0095	0	
1.9047	1.34849	27.1396	0	
1.9053	2.9013	7.606	0	
1.9060	2.28835	-1.55577	0	
1.9067	0.12259	0.230485	0	
1.9073	-0.490361	2.07436	0	
1.9080	-2.61526	0.576212	0	
1.9087	-5.96606	3.28441	0	
1.9093	-4.1272	10.6599	0	
1.9100	-1.6754	11.87	0	
1.9107	-4.1272	8.81604	0	
1.9113	-5.35311	10.948	0	
1.9120	-3.22821	19.7641	0	
1.9127	-2.9013	28.3496	0	
1.9133	-4.74016	31.0578	0	
1.9140	-3.22821	28.0039	0	
1.9147	-1.38936	19.7641	0	
1.9153	-1.38936	8.81604	0	
1.9160	-0.776405	-0.345727	0	
1.9167	-0.163454	-8.29745	0	
1.9173	-1.06245	-13.1952	0	
1.9180	-1.06245	-12.2733	0	
1.9187	0.735541	-10.1413	0	
1.9193	2.28835	-10.4294	0	
1.9200	2.57439	-10.4294	0	
1.9207	1.6754	-10.7175	0	
1.9213	0.12259	-10.4294	0	
1.9220	-0.490361	-8.58556	0	
1.9227	0.449498	-9.21939	0	
1.9233	1.06245	-11.6395	0	
1.9240	1.34849	-11.3514	0	
1.9247	1.34849	-10.4294	0	
1.9253	1.06245	-12.2733	0	
1.9260	1.34849	-10.7175	0	
1.9267	0.449498	-8.58556	0	
1.9273	-1.6754	-8.00934	0	
1.9280	-1.6754	-3.11154	0	
1.9287	-0.490361	5.41639	0	
1.9293	-1.38936	10.3142	0	
1.9300	-2.28835	10.6599	0	
1.9307	-0.776405	7.26027	0	
1.9313	-2.28835	3.91824	0	
1.9320	-6.57901	4.55207	0	
1.9327	-6.57901	7.8941	0	
1.9333	-2.9013	10.3142	0	
1.9340	-2.9013	11.5242	0	
1.9347	-4.1272	11.2361	0	
1.9353	-2.9013	10.3142	0	
1.9360	-0.776405	8.81604	0	
1.9367	0.12259	6.05022	0	
1.9373	0.12259	5.12828	0	
1.9380	-0.163454	8.18221	0	
1.9387	1.06245	7.606	0	
1.9393	1.96144	0.864318	0	
1.9400	0.735541	-4.03348	0	
1.9407	2.28835	-9.50749	0	
1.9413	5.63915	-17.1135	0	
1.9420	4.41325	-19.3031	0	
1.9427	2.9013	-13.7715	0	
1.9433	4.69929	-8.29745	0	
1.9440	4.69929	-4.95542	0	
1.9447	2.57439	-4.60969	0	
1.9453	2.28835	-6.74168	0	
1.9460	1.34849	-5.24353	0	
1.9467	0.735541	-3.11154	0	
1.9473	1.6754	-0.0576212	0	
1.9480	-1.6754	12.1581	0	
1.9487	-6.57901	24.3738	0	
1.9493	-5.63915	17.9778	0	
1.9500	-3.22821	2.07436	0	
1.9507	-2.9013	-3.11154	0	
1.9513	-1.6754	0.576212	0	
1.9520	-1.6754	4.20635	0	
1.9527	-3.22821	8.18221	0	
1.9533	-1.38936	7.8941	0	
1.9540	0.449498	3.28441	0	
1.9547	-0.776405	1.49815	0	
1.9553	-2.28835	1.49815	0	
1.9560	-2.00231	-3.11154	0	
1.9567	-1.38936	-8.58556	0	
1.9573	-0.490361	-8.58556	0	
1.9580	1.34849	-4.95542	0	
1.9587	3.18735	-6.74168	0	
1.9593	3.18735	-11.9276	0	
1.9600	1.34849	-15.3272	0	
1.9607	0.735541	-20.8012	0	
1.9613	3.51425	-29.3292	0	
1.9620	4.41325	-33.305	0	
1.9627	3.18735	-35.1489	0	
1.9633	3.18735	-33.305	0	
1.9640	3.51425	-15.6153	0	
1.9647	2.28835	1.15242	0	
1.9653	2.9013	-1.26767	0	
1.9660	2.57439	-8.29745	0	
1.9667	-0.163454	-11.9276	0	
1.9673	-1.06245	-19.3031	0	
1.9680	-0.490361	-6.16547	0	
1.9687	-1.06245	38.3757	0	
1.9693	-2.28835	76.5209	0	
1.9700	-3.84116	81.1306	0	
1.9707	-5.35311	63.4409	0	
1.9713	-5.63915	41.1415	0	
1.9720	-4.1272	27.7158	0	
1.9727	-3.51425	23.4518	0	
1.9733	-2.9013	23.7399	0	
1.9740	-2.28835	27.1396	0	
1.9747	-3.22821	22.5299	0	
1.9753	-3.22821	8.81604	0	
1.9760	-2.28835	0.576212	0	
1.9767	-0.163454	-1.9015	0	
1.9773	3.18735	-5.53163	0	
1.9780	4.1272	-0.633833	0	
1.9787	2.28835	6.33833	0	
1.9793	2.9013	2.7082	0	
1.9800	4.41325	2.07436	0	
1.9807	2.28835	1.49815	0	
1.9813	0.449498	-19.8793	0	
1.9820	1.96144	-42.4668	0	
1.9827	2.57439	-37.9147	0	
1.9833	2.28835	-23.2213	0	
1.9840	3.18735	-18.6693	0	
1.9847	1.6754	-14.9815	0	
1.9853	-1.38936	-10.7175	0	
1.9860	-1.06245	-11.6395	0	
1.9867	1.96144	-12.2733	0	
1.9873	1.34849	-13.7715	0	
1.9880	-1.6754	-18.3812	0	
1.9887	-3.22821	-17.7473	0	
1.9893	-1.6754	-11.3514	0	
1.9900	-2.00231	-9.50749	0	
1.9907	-2.61526	-6.74168	0	
1.9913	-2.28835	-1.26767	0	
1.9920	-2.00231	-2.1896	0	
1.9927	-2.61526	-6.74168	0	
1.9933	-3.22821	-6.74168	0	
1.9940	-3.22821	-8.58556	0	
1.9947	-2.28835	-13.1952	0	
1.9953	-1.06245	-14.0596	0	
1.9960	-2.00231	-19.8793	0	
1.9967	-0.490361	-28.1191	0	
1.9973	2.9013	-20.1674	0	
1.9980	1.96144	-2.1896	0	
1.9987	-0.490361	4.20635	0	
1.9993	1.34849	-3.11154	0	
2.0000	0.735541	-8.00934	0	
2.0007	-0.490361	6.05022	0	
2.0013	2.9013	38.7214	0	
2.0020	5.0262	61.8851	0	
2.0027	4.1272	52.1472	0	
2.0033	5.92519	26.5057	0	
2.0040	5.92519	10.6599	0	
2.0047	2.57439	4.20635	0	
2.0053	1.96144	-2.82344	0	
2.0060	1.6754	-7.66362	0	
2.0067	0.12259	-3.11154	0	
2.0073	1.06245	4.55207	0	
2.0080	1.34849	5.76212	0	
2.0087	-1.6754	3.91824	0	
2.0093	-2.9013	2.9963	0	
2.0100	-2.61526	0.230485	0	
2.0107	-4.1272	-1.9015	0	
2.0113	-4.45411	-0.97956	0	
2.0120	-3.84116	-3.11154	0	
2.0127	-3.22821	-7.66362	0	
2.0133	-3.51425	-8.87366	0	
2.0140	-4.1272	-8.58556	0	
2.0147	-1.38936	-6.45357	0	
2.0153	2.28835	-3.39965	0	
2.0160	1.96144	-5.81974	0	
2.0167	-0.490361	-9.7956	0	
2.0173	0.735541	-7.66362	0	
2.0180	3.18735	-4.95542	0	
2.0187	2.28835	-6.16547	0	
2.0193	1.34849	-5.24353	0	
2.0200	1.34849	-1.26767	0	
2.0207	1.06245	-1.26767	0	
2.0213	1.34849	-4.03348	0	
2.0220	3.8003	-4.03348	0	
2.0227	5.92519	-0.633833	0	
2.0233	4.1272	5.76212	0	
2.0240	1.6754	14.2901	0	
2.0247	1.34849	19.1879	0	
2.0253	1.34849	16.1339	0	
2.0260	0.12259	14.2901	0	
2.0267	-0.490361	20.1098	0	
2.0273	-0.776405	21.6079	0	
2.0280	-1.38936	9.73798	0	
2.0287	-1.6754	-6.74168	0	
2.0293	-0.776405	-18.6693	0	
2.0300	-0.490361	-25.3533	0	
2.0307	-4.1272	-25.0652	0	
2.0313	-5.96606	-18.6693	0	
2.0320	-2.61526	-13.4834	0	
2.0327	-1.6754	-12.8495	0	
2.0333	-6.2521	-11.9276	0	
2.0340	-6.2521	-7.37551	0	
2.0347	-1.6754	-2.1896	0	
2.0353	-1.6754	-0.633833	0	
2.0360	-2.28835	-1.55577	0	
2.0367	1.34849	-2.47771	0	
2.0373	3.51425	-5.81974	0	
2.0380	2.57439	-7.37551	0	
2.0387	1.06245	3.28441	0	
2.0393	1.06245	23.1637	0	
2.0400	3.18735	35.9556	0	
2.0407	3.51425	36.2437	0	
2.0413	3.18735	30.1359	0	
2.0420	6.2521	19.476	0	
2.0427	5.31224	8.18221	0	
2.0433	0.12259	1.15242	0	
2.0440	0.12259	-4.32159	0	
2.0447	2.28835	-6.16547	0	
2.0453	0.12259	-0.0576212	0	
2.0460	-1.38936	2.7082	0	
2.0467	-1.06245	-8.29745	0	
2.0473	-1.38936	-16.2492	0	
2.0480	-0.776405	-12.5614	0	
2.0487	-1.6754	-21.7232	0	
2.0493	-3.22821	-51.6286	0	
2.0500	-2.28835	-74.5042	0	
2.0507	-2.28835	-71.1622	0	
2.0513	-3.22821	-42.7549	0	
2.0520	-2.00231	3.91824	0	
2.0527	-2.9013	41.7754	0	
2.0533	-5.96606	46.6155	0	
2.0540	-3.84116	31.9798	0	
2.0547	0.735541	17.0559	0	
2.0553	0.735541	5.41639	0	
2.0560	0.449498	1.49815	0	
2.0567	2.9013	0.864318	0	
2.0573	4.1272	-5.53163	0	
2.0580	2.9013	-9.50749	0	
2.0587	1.34849	-8.29745	0	
2.0593	1.6754	-5.81974	0	
2.0600	2.9013	3.28441	0	
2.0607	2.28835	18.8997	0	
2.0613	1.6754	25.8719	0	
2.0620	1.6754	24.0857	0	
2.0627	2.57439	17.9778	0	
2.0633	3.18735	10.0261	0	
2.0640	1.96144	8.81604	0	
2.0647	0.735541	13.3681	0	
2.0653	1.96144	13.08	0	
2.0660	1.6754	12.7919	0	
2.0667	-1.38936	21.6079	0	
2.0673	-2.00231	29.8478	0	
2.0680	0.735541	28.0039	0	
2.0687	0.449498	21.6079	0	
2.0693	-1.6754	14.0019	0	
2.0700	-1.38936	4.20635	0	
2.0707	-1.06245	-4.03348	0	
2.0713	-2.9013	-4.03348	0	
2.0720	-2.61526	1.15242	0	
2.0727	-1.06245	3.28441	0	
2.0733	-2.9013	2.42009	0	
2.0740	-4.45411	4.20635	0	
2.0747	-1.38936	6.05022	0	
2.0753	0.12259	2.7082	0	
2.0760	-2.28835	-3.39965	0	
2.0767	-1.38936	-5.81974	0	
2.0773	1.34849	-6.16547	0	
2.0780	-0.490361	-6.45357	0	
2.0787	-2.9013	-5.81974	0	
2.0793	-1.38936	-8.29745	0	
2.0800	0.449498	-19.5912	0	
2.0807	1.06245	-33.5931	0	
2.0813	3.18735	-40.6229	0	
2.0820	3.18735	-40.9687	0	
2.0827	0.735541	-33.5931	0	
2.0833	0.449498	-6.16547	0	
2.0840	1.96144	41.1415	0	
2.0847	1.6754	72.257	0	
2.0853	0.449498	57.6212	0	
2.0860	0.449498	17.0559	0	
2.0867	0.449498	-12.2733	0	
2.0873	-1.6754	-23.2213	0	
2.0880	-3.51425	-27.1972	0	
2.0887	-2.61526	-30.2511	0	
2.0893	-2.9013	-34.227	0	
2.0900	-4.45411	-35.1489	0	
2.0907	-3.22821	-31.1731	0	
2.0913	-1.6754	-27.5429	0	
2.0920	-3.51425	-25.9872	0	
2.0927	-4.45411	-18.3812	0	
2.0933	-1.6754	4.55207	0	
2.0940	0.449498	32.3255	0	
2.0947	-0.490361	39.0095	0	
2.0953	-2.61526	24.0857	0	
2.0960	-2.28835	16.7101	0	
2.0967	0.449498	21.6079	0	
2.0973	1.34849	19.1879	0	
2.0980	0.449498	10.6599	0	
2.0987	1.34849	2.7082	0	
2.0993	2.9013	-6.45357	0	
2.1000	2.57439	-11.3514	0	
2.1007	3.18735	-8.29745	0	
2.1013	3.18735	-7.37551	0	
2.1020	1.34849	-8.87366	0	
2.1027	-0.163454	-7.0874	0	
2.1033	0.449498	-6.74168	0	
2.1040	1.34849	-7.66362	0	
2.1047	1.96144	-5.53163	0	
2.1053	1.34849	-4.95542	0	
2.1060	-0.163454	-5.53163	0	
2.1067	-0.490361	-5.81974	0	
2.1073	1.34849	-10.4294	0	
2.1080	0.735541	-10.4294	0	
2.1087	-1.6754	-9.50749	0	
2.1093	-2.61526	-30.5392	0	
2.1100	-1.38936	-52.5505	0	
2.1107	-0.490361	-23.8552	0	
2.1113	-1.6754	37.1657	0	
2.1120	-2.28835	68.3387	0	
2.1127	0.449498	58.255	0	
2.1133	1.34849	33.5355	0	
2.1140	-3.22821	10.948	0	
2.1147	-5.96606	-3.39965	0	
2.1153	-2.00231	-12.5614	0	
2.1160	1.6754	-14.4053	0	
2.1167	2.9013	1.49815	0	
2.1173	3.18735	21.0317	0	
2.1180	1.96144	16.7101	0	
2.1187	3.18735	-3.11154	0	
2.1193	6.53815	-12.8495	0	
2.1200	4.1272	-10.4294	0	
2.1207	1.34849	-4.03348	0	
2.1213	3.18735	0.576212	0	
2.1220	3.18735	1.15242	0	
2.1227	-0.163454	1.15242	0	
2.1233	-0.776405	3.28441	0	
2.1240	0.449498	4.84018	0	
2.1247	2.9013	3.63013	0	
2.1253	3.8003	0.864318	0	
2.1260	1.34849	0.230485	0	
2.1267	-0.490361	4.55207	0	
2.1273	0.449498	9.73798	0	
2.1280	-2.28835	8.81604	0	
2.1287	-5.06706	4.20635	0	
2.1293	-3.22821	4.20635	0	
2.1300	-2.61526	6.33833	0	
2.1307	-5.63915	6.05022	0	
2.1313	-5.96606	5.76212	0	
2.1320	-3.84116	7.8941	0	
2.1327	-2.9013	7.606	0	
2.1333	-4.1272	3.91824	0	
2.1340	-3.84116	-0.0576212	0	
2.1347	-0.163454	-7.37551	0	
2.1353	1.34849	-15.3272	0	
2.1360	-0.776405	-17.1135	0	
2.1367	-0.163454	-14.0596	0	
2.1373	1.34849	-10.4294	0	
2.1380	-0.776405	-6.45357	0	
2.1387	-2.28835	-7.0874	0	
2.1393	0.449498	-13.1952	0	
2.1400	1.34849	-14.9815	0	
2.1407	1.34849	-10.1413	0	
2.1413	5.0262	-8.29745	0	
2.1420	7.1511	-8.58556	0	
2.1427	3.51425	-4.95542	0	
2.1433	0.449498	-3.11154	0	
2.1440	0.449498	-6.74168	0	
2.1447	-1.06245	-9.50749	0	
2.1453	-2.00231	-11.0633	0	
2.1460	0.12259	-14.0596	0	
2.1467	0.449498	-14.9815	0	
2.1473	-1.38936	-12.8495	0	
2.1480	-1.6754	-12.8495	0	
2.1487	-2.61526	-12.2733	0	
2.1493	-5.35311	-8.29745	0	
2.1500	-4.74016	-6.74168	0	
2.1507	-1.38936	-8.87366	0	
2.1513	-1.38936	-7.37551	0	
2.1520	-3.22821	-2.47771	0	
2.1527	-4.1272	-0.633833	0	
2.1533	-4.1272	1.78626	0	
2.1540	-4.1272	12.7919	0	
2.1547	-3.22821	28.0039	0	
2.1553	-1.38936	33.5355	0	
2.1560	0.735541	27.1396	0	
2.1567	0.449498	18.8997	0	
2.1573	0.12259	13.08	0	
2.1580	1.96144	6.68406	0	
2.1587	2.28835	1.49815	0	
2.1593	0.449498	-0.0576212	0	
2.1600	1.6754	-0.345727	0	
2.1607	3.8003	-0.97956	0	
2.1613	4.1272	-4.60969	0	
2.1620	3.51425	-7.66362	0	
2.1627	2.9013	-2.1896	0	
2.1633	1.6754	4.55207	0	
2.1640	0.735541	2.7082	0	
2.1647	1.34849	-0.345727	0	
2.1653	1.06245	-0.345727	0	
2.1660	0.449498	-4.03348	0	
2.1667	0.735541	-3.68776	0	
2.1673	0.449498	5.12828	0	
2.1680	-2.9013	6.05022	0	
2.1687	-5.35311	-4.95542	0	
2.1693	-4.1272	-5.81974	0	
2.1700	-3.84116	5.12828	0	
2.1707	-5.63915	8.81604	0	
2.1713	-5.96606	3.91824	0	
2.1720	-5.06706	2.7082	0	
2.1727	-4.74016	4.84018	0	
2.1733	-1.6754	8.47031	0	
2.1740	-0.490361	15.5001	0	
2.1747	-4.1272	16.7101	0	
2.1753	-5.06706	12.7919	0	
2.1760	-0.490361	18.8997	0	
2.1767	1.34849	16.1339	0	
2.1773	-0.163454	-20.5131	0	
2.1780	0.449498	-54.0487	0	
2.1787	1.34849	-40.9687	0	
2.1793	0.449498	-11.3514	0	
2.1800	2.57439	-0.633833	0	
2.1807	5.0262	0.576212	0	
2.1813	4.41325	-0.345727	0	
2.1820	5.0262	-4.03348	0	
2.1827	6.2521	-3.11154	0	
2.1833	2.9013	1.49815	0	
2.1840	-0.163454	1.78626	0	
2.1847	1.34849	-0.633833	0	
2.1853	2.28835	-3.39965	0	
2.1860	0.735541	-3.11154	0	
2.1867	-0.490361	-1.26767	0	
2.1873	-2.28835	-7.66362	0	
2.1880	-3.22821	-17.7473	0	
2.1887	-2.00231	-25.699	0	
2.1893	-3.22821	-37.9147	0	
2.1900	-4.74016	-53.7606	0	
2.1907	-1.38936	-64.1324	0	
2.1913	-1.38936	-62.2885	0	
2.1920	-5.96606	-36.359	0	
2.1927	-5.63915	1.49815	0	
2.1933	-1.6754	11.87	0	
2.1940	-2.61526	5.41639	0	
2.1947	-5.06706	31.4035	0	
2.1953	-3.22821	75.6566	0	
2.1960	0.12259	87.5266	0	
2.1967	-0.490361	69.5488	0	
2.1973	-1.06245	49.6695	0	
2.1980	0.735541	30.4816	0	
2.1987	2.28835	10.0261	0	
2.1993	1.96144	-0.345727	0	
2.2000	2.28835	5.76212	0	
2.2007	2.57439	18.8997	0	
2.2013	2.28835	24.95	0	
2.2020	2.57439	19.7641	0	
2.2027	2.9013	12.4462	0	
2.2033	3.18735	11.2361	0	
2.2040	3.51425	12.4462	0	
2.2047	2.9013	9.73798	0	
2.2053	1.34849	7.26027	0	
2.2060	0.449498	7.8941	0	
2.2067	1.06245	6.33833	0	
2.2073	1.34849	3.28441	0	
2.2080	0.12259	4.20635	0	
2.2087	-0.776405	3.28441	0	
2.2093	-1.38936	-1.26767	0	
2.2100	-2.9013	-2.47771	0	
2.2107	-3.51425	-1.26767	0	
2.2113	-2.28835	-3.11154	0	
2.2120	-0.776405	-4.95542	0	
2.2127	0.735541	-5.81974	0	
2.2133	1.34849	-6.74168	0	
2.2140	0.12259	-4.03348	0	
2.2147	-0.163454	1.78626	0	
2.2153	1.06245	2.07436	0	
2.2160	0.735541	-4.95542	0	
2.2167	0.735541	-10.1413	0	
2.2173	1.06245	-7.66362	0	
2.2180	0.735541	-0.633833	0	
2.2187	1.96144	3.28441	0	
2.2193	3.51425	0.230485	0	
2.2200	3.18735	-5.53163	0	
2.2207	3.18735	-7.0874	0	
2.2213	3.18735	-3.39965	0	
2.2220	1.06245	-0.0576212	0	
2.2227	-0.776405	-1.55577	0	
2.2233	-0.490361	-4.60969	0	
2.2240	-1.06245	-5.24353	0	
2.2247	-0.776405	-5.24353	0	
2.2253	0.449498	-4.60969	0	
2.2260	-0.490361	-2.82344	0	
2.2267	-1.06245	-5.81974	0	
2.2273	-0.490361	-14.0596	0	
2.2280	-1.06245	-16.8254	0	
2.2287	-2.28835	-10.7175	0	
2.2293	-1.38936	-3.68776	0	
2.2300	-1.38936	-1.9015	0	
2.2307	-3.51425	-1.9015	0	
2.2313	-4.45411	-1.26767	0	
2.2320	-4.1272	-3.11154	0	
2.2327	-4.1272	-8.58556	0	
2.2333	-2.9013	-12.8495	0	
2.2340	-1.06245	-16.2492	0	
2.2347	-1.38936	-17.7473	0	
2.2353	-1.38936	-13.1952	0	
2.2360	0.449498	-4.03348	0	
2.2367	1.34849	4.20635	0	
2.2373	1.34849	11.5242	0	
2.2380	2.9013	12.4462	0	
2.2387	2.9013	0.576212	0	
2.2393	1.34849	-14.0596	0	
2.2400	2.28835	-17.4592	0	
2.2407	4.1272	-12.8495	0	
2.2413	2.28835	-12.2733	0	
2.2420	2.28835	-13.7715	0	
2.2427	4.69929	-14.4053	0	
2.2433	4.1272	-14.6934	0	
2.2440	3.18735	-12.5614	0	
2.2447	4.1272	-11.3514	0	
2.2453	2.9013	-14.6934	0	
2.2460	0.12259	-19.3031	0	
2.2467	1.06245	-17.1135	0	
2.2473	1.06245	-8.87366	0	
2.2480	-1.38936	-0.97956	0	
2.2487	-2.00231	-1.26767	0	
2.2493	-0.163454	-11.3514	0	
2.2500	-0.776405	-24.7771	0	
2.2507	-5.06706	-37.9147	0	
2.2513	-6.86505	-44.3107	0	
2.2520	-3.51425	-35.1489	0	
2.2527	-1.38936	-23.2213	0	
2.2533	-3.22821	-18.0354	0	
2.2540	-4.74016	3.91824	0	
2.2547	-4.74016	51.2252	0	
2.2553	-3.22821	82.6288	0	
2.2560	-0.163454	75.9447	0	
2.2567	1.06245	56.4111	0	
2.2573	1.34849	42.6973	0	
2.2580	3.18735	28.0039	0	
2.2587	4.1272	14.0019	0	
2.2593	2.57439	5.76212	0	
2.2600	2.28835	-4.60969	0	
2.2607	2.9013	-15.9034	0	
2.2613	3.18735	-8.58556	0	
2.2620	4.41325	17.0559	0	
2.2627	3.8003	28.9258	0	
2.2633	3.18735	22.2418	0	
2.2640	5.0262	15.8458	0	
2.2647	3.18735	11.5242	0	
2.2653	0.449498	3.28441	0	
2.2660	1.34849	0.576212	0	
2.2667	2.28835	5.41639	0	
2.2673	-0.163454	8.18221	0	
2.2680	-1.6754	5.12828	0	
2.2687	-1.6754	1.49815	0	
2.2693	-1.6754	-0.633833	0	
2.2700	-1.38936	-5.24353	0	
2.2707	-2.61526	-10.4294	0	
2.2713	-3.51425	-14.0596	0	
2.2720	-2.9013	-20.5131	0	
2.2727	-3.22821	-28.4072	0	
2.2733	-5.06706	-31.1731	0	
2.2740	-3.22821	-32.7288	0	
2.2747	0.449498	-28.1191	0	
2.2753	-1.06245	0.576212	0	
2.2760	-3.84116	38.3757	0	
2.2767	-1.06245	48.1713	0	
2.2773	1.6754	33.1898	0	
2.2780	0.735541	21.6079	0	
2.2787	1.34849	17.0559	0	
2.2793	2.28835	15.212	0	
2.2800	-0.163454	15.8458	0	
2.2807	0.12259	13.08	0	
2.2813	3.18735	4.20635	0	
2.2820	2.57439	-7.37551	0	
2.2827	0.449498	-18.0354	0	
2.2833	-0.163454	-17.1135	0	
2.2840	0.735541	-0.633833	0	
2.2847	1.34849	13.6562	0	
2.2853	1.06245	13.3681	0	
2.2860	-0.490361	9.39225	0	
2.2867	-0.490361	8.81604	0	
2.2873	-0.163454	7.8941	0	
2.2880	-1.06245	3.63013	0	
2.2887	-3.22821	-1.9015	0	
2.2893	-4.1272	-3.11154	0	
2.2900	-4.1272	0.576212	0	
2.2907	-5.06706	2.42009	0	
2.2913	-5.96606	-1.26767	0	
2.2920	-4.1272	-5.81974	0	
2.2927	-3.22821	-7.66362	0	
2.2933	-4.74016	-8.00934	0	
2.2940	-3.22821	-8.29745	0	
2.2947	-2.00231	-9.21939	0	
2.2953	-3.84116	-9.50749	0	
2.2960	-1.6754	-8.58556	0	
2.2967	2.28835	-8.29745	0	
2.2973	0.449498	-9.7956	0	
2.2980	-0.490361	-14.6934	0	
2.2987	1.06245	-21.0894	0	
2.2993	1.34849	-21.4351	0	
2.3000	3.18735	-16.5373	0	
2.3007	5.0262	-14.6934	0	
2.3013	1.96144	-13.4834	0	
2.3020	1.96144	-9.21939	0	
2.3027	5.92519	-6.74168	0	
2.3033	4.1272	-8.29745	0	
2.3040	-0.776405	-8.29745	0	
2.3047	-0.776405	-6.45357	0	
2.3053	1.34849	-5.81974	0	
2.3060	2.28835	-6.45357	0	
2.3067	0.735541	-8.00934	0	
2.3073	-1.06245	-9.7956	0	
2.3080	-1.06245	-8.87366	0	
2.3087	0.449498	-4.60969	0	
2.3093	0.735541	1.78626	0	
2.3100	0.449498	8.18221	0	
2.3107	-1.06245	12.4462	0	
2.3113	-3.51425	17.0559	0	
2.3120	-3.22821	23.4518	0	
2.3127	-1.38936	23.7399	0	
2.3133	-2.9013	12.7919	0	
2.3140	-4.45411	4.55207	0	
2.3147	-2.28835	7.8941	0	
2.3153	-1.06245	6.97216	0	
2.3160	-2.28835	-4.32159	0	
2.3167	-1.38936	-10.4294	0	
2.3173	-0.163454	-4.95542	0	
2.3180	-0.490361	0.864318	0	
2.3187	0.735541	3.91824	0	
2.3193	3.18735	8.81604	0	
2.3200	2.28835	11.2361	0	
2.3207	-0.163454	7.26027	0	
2.3213	0.449498	-0.345727	0	
2.3220	2.28835	-9.50749	0	
2.3227	2.57439	-16.2492	0	
2.3233	2.57439	-18.6693	0	
2.3240	3.18735	-19.5912	0	
2.3247	1.34849	-20.5131	0	
2.3253	-1.38936	-21.0894	0	
2.3260	-1.38936	-29.3292	0	
2.3267	-0.490361	-42.4668	0	
2.3273	-2.9013	-42.1787	0	
2.3280	-3.51425	-39.1248	0	
2.3287	-0.490361	-54.9706	0	
2.3293	-0.490361	-67.1863	0	
2.3300	-2.9013	-48.8628	0	
2.3307	-3.22821	-18.9574	0	
2.3313	-3.84116	0.230485	0	
2.3320	-4.1272	11.5242	0	
2.3327	-2.00231	18.554	0	
2.3333	-1.38936	38.3757	0	
2.3340	-2.00231	81.1306	0	
2.3347	0.12259	115.012	0	
2.3353	1.34849	113.456	0	
2.3360	-2.00231	89.3704	0	
2.3367	-3.51425	62.8071	0	
2.3373	-1.38936	42.9854	0	
2.3380	1.06245	34.4575	0	
2.3387	2.28835	25.8719	0	
2.3393	2.28835	13.08	0	
2.3400	1.34849	2.7082	0	
2.3407	2.28835	-8.58556	0	
2.3413	4.41325	-21.7232	0	
2.3420	5.0262	-27.1972	0	
2.3427	4.1272	-25.9872	0	
2.3433	3.18735	-24.1433	0	
2.3440	3.51425	-21.7232	0	
2.3447	3.18735	-19.3031	0	
2.3453	1.34849	-17.7473	0	
2.3460	0.735541	-20.1674	0	
2.3467	0.735541	-29.0411	0	
2.3473	-0.776405	-42.1787	0	
2.3480	-1.06245	-51.6286	0	
2.3487	-0.490361	-44.3107	0	
2.3493	-2.28835	-11.6395	0	
2.3500	-4.1272	26.7938	0	
2.3507	-3.84116	39.0095	0	
2.3513	-4.74016	23.4518	0	
2.3520	-5.96606	2.42009	0	
2.3527	-3.51425	-4.03348	0	
2.3533	-2.00231	7.26027	0	
2.3540	-1.6754	22.5299	0	
2.3547	0.12259	24.3738	0	
2.3553	0.735541	17.9778	0	
2.3560	-1.06245	14.2901	0	
2.3567	-0.163454	12.7919	0	
2.3573	2.57439	11.5242	0	
2.3580	3.8003	15.8458	0	
2.3587	3.18735	21.6079	0	
2.3593	1.96144	21.896	0	
2.3600	1.34849	17.6321	0	
2.3607	2.9013	13.6562	0	
2.3613	3.8003	10.6599	0	
2.3620	3.18735	6.68406	0	
2.3627	2.9013	2.42009	0	
2.3633	1.6754	-2.47771	0	
2.3640	1.34849	-8.87366	0	
2.3647	1.6754	-15.9034	0	
2.3653	-0.163454	-22.2994	0	
2.3660	-1.06245	-24.489	0	
2.3667	-0.163454	-21.4351	0	
2.3673	-2.28835	-17.7473	0	
2.3680	-4.1272	-17.4592	0	
2.3687	-2.61526	-17.1135	0	
2.3693	-3.51425	-19.3031	0	
2.3700	-5.06706	-22.6451	0	
2.3707	-3.22821	-18.9574	0	
2.3713	-3.51425	-10.4294	0	
2.3720	-5.96606	-11.6395	0	
2.3727	-3.22821	-15.6153	0	
2.3733	-1.38936	-3.68776	0	
2.3740	-3.22821	15.8458	0	
2.3747	-1.6754	23.1637	0	
2.3753	0.735541	21.0317	0	
2.3760	0.449498	15.5001	0	
2.3767	1.06245	5.12828	0	
2.3773	1.06245	-1.9015	0	
2.3780	-1.06245	0.864318	0	
2.3787	0.12259	4.20635	0	
2.3793	2.57439	6.97216	0	
2.3800	1.6754	17.9778	0	
2.3807	1.34849	28.9258	0	
2.3813	2.57439	28.0039	0	
2.3820	2.28835	21.896	0	
2.3827	2.9013	18.554	0	
2.3833	4.1272	14.2901	0	
2.3840	3.8003	11.5242	0	
2.3847	4.1272	14.2901	0	
2.3853	4.1272	9.73798	0	
2.3860	1.6754	-2.1896	0	
2.3867	-0.490361	-4.03348	0	
2.3873	-1.6754	2.7082	0	
2.3880	-4.1272	0.576212	0	
2.3887	-4.74016	-4.60969	0	
2.3893	-4.45411	-3.11154	0	
2.3900	-6.2521	-5.81974	0	
2.3907	-5.96606	-17.7473	0	
2.3913	-2.61526	-27.5429	0	
2.3920	-1.38936	-34.227	0	
2.3927	-2.28835	-41.5449	0	
2.3933	-2.28835	-37.569	0	
2.3940	-2.00231	-22.9332	0	
2.3947	-1.6754	-16.2492	0	
2.3953	-1.06245	-16.8254	0	
2.3960	-1.38936	-11.3514	0	
2.3967	-2.61526	-11.0633	0	
2.3973	-0.776405	-20.8012	0	
2.3980	3.18735	-25.699	0	
2.3987	5.63915	-28.753	0	
2.3993	5.0262	-33.305	0	
2.4000	3.8003	-13.1952	0	
2.4007	3.8003	29.2716	0	
2.4013	5.0262	53.991	0	
2.4020	6.53815	50.0152	0	
2.4027	5.63915	37.7995	0	
2.4033	3.18735	25.8719	0	
2.4040	3.18735	17.9778	0	
2.4047	4.1272	16.422	0	
2.4053	2.57439	12.7919	0	
2.4060	0.449498	7.8941	0	
2.4067	-1.06245	7.8941	0	
2.4073	-2.61526	2.7082	0	
2.4080	-2.28835	-8.29745	0	
2.4087	-1.38936	-12.5614	0	
2.4093	-3.84116	-15.3272	0	
2.4100	-5.06706	-22.2994	0	
2.4107	-3.22821	-24.1433	0	
2.4113	-1.38936	-20.5131	0	
2.4120	-1.06245	-13.7715	0	
2.4127	-2.28835	1.78626	0	
2.4133	-5.06706	14.0019	0	
2.4140	-3.22821	8.47031	0	
2.4147	1.34849	4.20635	0	
2.4153	1.06245	16.422	0	
2.4160	0.449498	25.5838	0	
2.4167	4.1272	19.7641	0	
2.4173	4.1272	11.5242	0	
2.4180	1.06245	10.0261	0	
2.4187	2.28835	8.81604	0	
2.4193	4.69929	2.9963	0	
2.4200	4.69929	-4.95542	0	
2.4207	5.31224	-10.1413	0	
2.4213	5.92519	-10.7175	0	
2.4220	5.0262	-8.29745	0	
2.4227	4.41325	-5.81974	0	
2.4233	3.18735	-7.66362	0	
2.4240	0.449498	-9.7956	0	
2.4247	-0.776405	-8.58556	0	
2.4253	1.96144	-7.66362	0	
2.4260	4.1272	-8.00934	0	
2.4267	2.57439	-9.50749	0	
2.4273	-0.490361	-10.4294	0	
2.4280	-1.06245	-8.58556	0	
2.4287	-2.61526	-3.39965	0	
2.4293	-5.35311	1.15242	0	
2.4300	-5.06706	2.42009	0	
2.4307	-3.22821	4.20635	0	
2.4313	-4.1272	7.26027	0	
2.4320	-5.06706	4.20635	0	
2.4327	-4.1272	-8.87366	0	
2.4333	-3.22821	-20.5131	0	
2.4340	-3.84116	-25.0652	0	
2.4347	-3.84116	-28.753	0	
2.4353	-1.38936	-22.6451	0	
2.4360	2.28835	8.81604	0	
2.4367	2.57439	48.1713	0	
2.4373	-0.163454	64.0171	0	
2.4380	-1.38936	51.8591	0	
2.4387	2.28835	31.6916	0	
2.4393	4.1272	19.7641	0	
2.4400	2.28835	14.2901	0	
2.4407	1.06245	9.10415	0	
2.4413	2.28835	7.606	0	
2.4420	1.06245	5.12828	0	
2.4427	0.449498	-8.87366	0	
2.4433	3.18735	-22.0113	0	
2.4440	4.1272	-23.8552	0	
2.4447	0.449498	-27.1972	0	
2.4453	-1.38936	-33.9389	0	
2.4460	-1.38936	-30.5392	0	
2.4467	-2.00231	-24.1433	0	
2.4473	-0.776405	-24.7771	0	
2.4480	-0.163454	-25.0652	0	
2.4487	-0.490361	-16.8254	0	
2.4493	-0.776405	-8.58556	0	
2.4500	-2.00231	-9.50749	0	
2.4507	-4.1272	-14.9815	0	
2.4513	-5.06706	-14.6934	0	
2.4520	-3.51425	-8.58556	0	
2.4527	-4.1272	0.864318	0	
2.4533	-5.06706	14.9239	0	
2.4540	-2.28835	20.686	0	
2.4547	-0.490361	9.39225	0	
2.4553	-1.06245	-4.32159	0	
2.4560	-1.06245	-11.9276	0	
2.4567	0.449498	-22.0113	0	
2.4573	1.34849	-27.831	0	
2.4580	1.34849	-25.0652	0	
2.4587	0.12259	-25.3533	0	
2.4593	-0.490361	-10.4294	0	
2.4600	0.735541	36.8776	0	
2.4607	1.06245	77.1548	0	
2.4613	0.449498	79.5748	0	
2.4620	1.34849	64.9391	0	
2.4627	1.34849	48.1713	0	
2.4633	0.449498	31.6916	0	
2.4640	2.28835	21.896	0	
2.4647	2.28835	8.18221	0	
2.4653	-2.28835	-10.7175	0	
2.4660	-3.22821	-11.6395	0	
2.4667	-0.776405	-0.97956	0	
2.4673	-2.28835	-4.03348	0	
2.4680	-3.51425	-6.74168	0	
2.4687	-1.6754	5.12828	0	
2.4693	-2.28835	10.0261	0	
2.4700	-4.1272	1.49815	0	
2.4707	-1.6754	-3.11154	0	
2.4713	1.06245	-1.26767	0	
2.4720	0.449498	-4.03348	0	
2.4727	-0.490361	-9.21939	0	
2.4733	-0.776405	-9.21939	0	
2.4740	-1.06245	-5.53163	0	
2.4747	-0.490361	-2.1896	0	
2.4753	-1.06245	-0.345727	0	
2.4760	-1.6754	0.576212	0	
2.4767	0.449498	-0.345727	0	
2.4773	1.6754	-1.9015	0	
2.4780	-0.490361	-2.1896	0	
2.4787	-1.38936	-0.633833	0	
2.4793	0.12259	1.49815	0	
2.4800	1.34849	2.07436	0	
2.4807	4.1272	1.78626	0	
2.4813	7.1511	2.42009	0	
2.4820	5.92519	0.230485	0	
2.4827	2.28835	-6.16547	0	
2.4833	1.06245	-11.9276	0	
2.4840	0.449498	-18.6693	0	
2.4847	-0.490361	-25.3533	0	
2.4853	-0.163454	-26.621	0	
2.4860	1.96144	-29.6749	0	
2.4867	3.18735	-33.305	0	
2.4873	2.28835	-18.6693	0	
2.4880	0.449498	5.12828	0	
2.4887	-0.163454	12.7919	0	
2.4893	-1.38936	10.0261	0	
2.4900	-2.28835	11.5242	0	
2.4907	-1.06245	12.1581	0	
2.4913	-1.38936	12.4462	0	
2.4920	-2.61526	15.212	0	
2.4927	-0.490361	11.5242	0	
2.4933	0.449498	6.97216	0	
2.4940	-1.06245	8.81604	0	
2.4947	0.449498	8.81604	0	
2.4953	2.57439	2.9963	0	
2.4960	1.34849	-1.55577	0	
2.4967	1.34849	-4.95542	0	
2.4973	3.18735	-6.74168	0	
2.4980	1.96144	-8.58556	0	
2.4987	0.449498	-14.0596	0	
2.4993	0.12259	-15.9034	0	
2.5000	1.06245	-10.4294	0	
2.5007	3.8003	-7.66362	0	
2.5013	5.63915	-10.1413	0	
2.5020	5.31224	-8.58556	0	
2.5027	4.69929	-3.11154	0	
2.5033	3.51425	0.576212	0	
2.5040	2.57439	-0.0576212	0	
2.5047	3.51425	-0.97956	0	
2.5053	3.8003	5.76212	0	
2.5060	1.96144	15.212	0	
2.5067	-0.163454	14.2901	0	
2.5073	-2.28835	5.76212	0	
2.5080	-2.28835	-0.0576212	0	
2.5087	-0.163454	-1.26767	0	
2.5093	-1.38936	-0.0576212	0	
2.5100	-6.2521	4.20635	0	
2.5107	-5.96606	6.05022	0	
2.5113	-1.38936	4.20635	0	
2.5120	-2.00231	2.7082	0	
2.5127	-5.35311	3.28441	0	
2.5133	-3.84116	2.9963	0	
2.5140	-1.06245	4.84018	0	
2.5147	-2.61526	10.0261	0	
2.5153	-2.9013	11.5242	0	
2.5160	-1.06245	7.606	0	
2.5167	-2.00231	6.97216	0	
2.5173	-1.6754	10.6599	0	
2.5180	3.18735	10.948	0	
2.5187	3.51425	8.81604	0	
2.5193	-1.38936	10.6599	0	
2.5200	-2.28835	12.4462	0	
2.5207	0.12259	12.4462	0	
2.5213	0.449498	15.5001	0	
2.5220	0.12259	17.9778	0	
2.5227	0.449498	9.39225	0	
2.5233	1.34849	-4.95542	0	
2.5240	2.28835	-10.1413	0	
2.5247	1.96144	-3.68776	0	
2.5253	0.449498	7.8941	0	
2.5260	-0.490361	14.2901	0	
2.5267	-0.776405	-0.97956	0	
2.5273	-2.28835	-31.4612	0	
2.5280	-3.22821	-44.8869	0	
2.5287	-2.28835	-32.095	0	
2.5293	-2.61526	-21.0894	0	
2.5300	-4.1272	-23.5671	0	
2.5307	-3.22821	-26.9091	0	
2.5313	-2.00231	-32.7288	0	
2.5320	-3.84116	-45.2326	0	
2.5327	-3.84116	-52.2624	0	
2.5333	-1.38936	-47.6527	0	
2.5340	-2.28835	-39.701	0	
2.5347	-4.45411	-35.1489	0	
2.5353	-2.61526	-31.1731	0	
2.5360	0.449498	-24.489	0	
2.5367	0.449498	-18.0354	0	
2.5373	-1.38936	-14.9815	0	
2.5380	-1.6754	-7.66362	0	
2.5387	0.12259	5.76212	0	
2.5393	1.96144	10.6599	0	
2.5400	1.06245	6.97216	0	
2.5407	0.449498	3.28441	0	
2.5413	4.1272	-3.68776	0	
2.5420	7.76405	-6.74168	0	
2.5427	5.92519	6.05022	0	
2.5433	1.6754	16.1339	0	
2.5440	1.34849	4.20635	0	
2.5447	2.9013	-18.3812	0	
2.5453	3.18735	-40.0467	0	
2.5460	2.28835	-46.7308	0	
2.5467	0.449498	-8.87366	0	
2.5473	-1.38936	67.993	0	
2.5480	-0.776405	126.882	0	
2.5487	-0.490361	130.57	0	
2.5493	-2.61526	100.03	0	
2.5500	-4.45411	67.7049	0	
2.5507	-4.45411	46.0393	0	
2.5513	-2.28835	33.8236	0	
2.5520	-0.490361	27.1396	0	
2.5527	-1.06245	19.476	0	
2.5533	-1.38936	9.73798	0	
2.5540	0.449498	4.55207	0	
2.5547	0.449498	6.05022	0	
2.5553	-1.38936	10.948	0	
2.5560	-0.490361	13.3681	0	
2.5567	1.6754	10.0261	0	
2.5573	1.34849	6.97216	0	
2.5580	1.06245	7.8941	0	
2.5587	2.57439	6.33833	0	
2.5593	5.31224	1.49815	0	
2.5600	5.63915	0.576212	0	
2.5607	3.51425	-0.345727	0	
2.5613	2.28835	-7.37551	0	
2.5620	1.96144	-14.4053	0	
2.5627	1.34849	-18.9574	0	
2.5633	2.57439	-23.8552	0	
2.5640	4.1272	-24.7771	0	
2.5647	2.57439	-20.5131	0	
2.5653	1.06245	-16.8254	0	
2.5660	1.6754	-13.1952	0	
2.5667	1.6754	-6.16547	0	
2.5673	0.12259	-1.55577	0	
2.5680	-2.28835	-2.47771	0	
2.5687	-2.9013	-4.03348	0	
2.5693	-0.490361	-4.60969	0	
2.5700	0.449498	-6.74168	0	
2.5707	-1.38936	-9.50749	0	
2.5713	-2.00231	-10.4294	0	
2.5720	-1.38936	-8.58556	0	
2.5727	-1.38936	-8.58556	0	
2.5733	0.449498	-10.1413	0	
2.5740	0.12259	-7.66362	0	
2.5747	-2.28835	-0.97956	0	
2.5753	-1.38936	1.49815	0	
2.5760	0.12259	3.28441	0	
2.5767	-0.776405	7.8941	0	
2.5773	-0.490361	8.18221	0	
2.5780	2.28835	6.97216	0	
2.5787	2.9013	13.08	0	
2.5793	4.1272	18.8997	0	
2.5800	5.92519	15.8458	0	
2.5807	3.8003	10.948	0	
2.5813	0.12259	5.41639	0	
2.5820	0.449498	-2.1896	0	
2.5827	1.06245	-7.66362	0	
2.5833	-0.490361	-16.8254	0	
2.5840	0.12259	-30.5392	0	
2.5847	0.12259	-29.963	0	
2.5853	-1.06245	-16.2492	0	
2.5860	0.449498	-9.7956	0	
2.5867	1.06245	-10.7175	0	
2.5873	-3.22821	-11.3514	0	
2.5880	-4.45411	-13.7715	0	
2.5887	-1.38936	-16.5373	0	
2.5893	-1.38936	-16.5373	0	
2.5900	-3.84116	-14.0596	0	
2.5907	-3.84116	-9.21939	0	
2.5913	-4.1272	-5.24353	0	
2.5920	-4.1272	-6.45357	0	
2.5927	-2.28835	-8.29745	0	
2.5933	-1.6754	-10.7175	0	
2.5940	-3.22821	-12.2733	0	
2.5947	-3.51425	-4.60969	0	
2.5953	-2.9013	4.55207	0	
2.5960	-1.06245	7.26027	0	
2.5967	0.735541	17.344	0	
2.5973	-0.163454	35.9556	0	
2.5980	-1.38936	42.0635	0	
2.5987	1.96144	32.9017	0	
2.5993	4.41325	24.95	0	
2.6000	2.28835	23.7399	0	
2.6007	1.34849	22.5299	0	
2.6013	3.18735	19.7641	0	
2.6020	3.18735	13.6562	0	
2.6027	1.34849	-6.45357	0	
2.6033	1.6754	-42.4668	0	
2.6040	2.57439	-65.0543	0	
2.6047	2.57439	-53.4725	0	
2.6053	1.06245	-32.3831	0	
2.6060	-0.490361	-24.1433	0	
2.6067	-0.163454	-20.5131	0	
2.6073	-0.163454	-12.5614	0	
2.6080	-2.9013	-8.00934	0	
2.6087	-4.1272	-8.58556	0	
2.6093	-2.9013	-6.74168	0	
2.6100	-3.84116	-0.345727	0	
2.6107	-4.1272	2.42009	0	
2.6113	-2.28835	-0.345727	0	
2.6120	-2.28835	-4.95542	0	
2.6127	-4.74016	-10.4294	0	
2.6133	-4.74016	-13.1952	0	
2.6140	-2.61526	-11.3514	0	
2.6147	-1.38936	-10.7175	0	
2.6153	-2.00231	-12.8495	0	
2.6160	-1.38936	-13.4834	0	
2.6167	1.96144	-15.3272	0	
2.6173	3.18735	-14.9815	0	
2.6180	1.96144	-7.66362	0	
2.6187	2.9013	-8.58556	0	
2.6193	5.0262	-26.2753	0	
2.6200	4.41325	-46.7308	0	
2.6207	5.0262	-57.1026	0	
2.6213	5.0262	-40.6229	0	
2.6220	2.9013	10.6599	0	
2.6227	4.41325	59.4651	0	
2.6233	5.92519	70.4707	0	
2.6240	0.735541	58.255	0	
2.6247	-1.06245	41.7754	0	
2.6253	2.28835	25.2957	0	
2.6260	1.34849	24.3738	0	
2.6267	-0.776405	38.0876	0	
2.6273	1.06245	45.7512	0	
2.6280	-0.490361	43.6192	0	
2.6287	-4.74016	37.1657	0	
2.6293	-5.06706	26.7938	0	
2.6300	-4.74016	22.2418	0	
2.6307	-4.1272	23.4518	0	
2.6313	-3.51425	19.7641	0	
2.6320	-4.74016	16.1339	0	
2.6327	-4.1272	17.0559	0	
2.6333	-0.490361	15.8458	0	
2.6340	-0.163454	12.4462	0	
2.6347	-2.28835	13.6562	0	
2.6353	-1.38936	15.212	0	
2.6360	-0.490361	14.2901	0	
2.6367	-2.00231	13.6562	0	
2.6373	-1.6754	11.87	0	
2.6380	0.449498	7.8941	0	
2.6387	1.34849	4.84018	0	
2.6393	1.06245	0.230485	0	
2.6400	2.28835	-7.37551	0	
2.6407	4.1272	-11.3514	0	
2.6413	3.18735	-11.3514	0	
2.6420	1.06245	-12.8495	0	
2.6427	2.28835	-15.9034	0	
2.6433	2.9013	-17.7473	0	
2.6440	0.449498	-19.3031	0	
2.6447	0.12259	-21.7232	0	
2.6453	0.449498	-18.3812	0	
2.6460	-0.776405	-11.6395	0	
2.6467	-0.776405	-12.2733	0	
2.6473	0.735541	-16.2492	0	
2.6480	-0.490361	-13.7715	0	
2.6487	-4.1272	-8.58556	0	
2.6493	-6.86505	-6.45357	0	
2.6500	-4.74016	-6.74168	0	
2.6507	-0.490361	-11.0633	0	
2.6513	-0.490361	-19.3031	0	
2.6520	-3.22821	-25.3533	0	
2.6527	-1.6754	-33.5931	0	
2.6533	-1.6754	-41.833	0	
2.6540	-5.35311	-30.5392	0	
2.6547	-5.96606	4.20635	0	
2.6553	-4.1272	33.1898	0	
2.6560	-3.22821	36.2437	0	
2.6567	-2.00231	24.0857	0	
2.6573	-1.6754	14.5782	0	
2.6580	-3.84116	12.1581	0	
2.6587	-2.00231	14.2901	0	
2.6593	2.57439	18.554	0	
2.6600	3.18735	20.686	0	
2.6607	2.28835	19.1879	0	
2.6613	2.57439	15.8458	0	
2.6620	1.34849	15.8458	0	
2.6627	1.06245	17.9778	0	
2.6633	1.96144	14.2901	0	
2.6640	0.449498	3.63013	0	
2.6647	-1.38936	-3.11154	0	
2.6653	-0.163454	-4.03348	0	
2.6660	-0.163454	-7.0874	0	
2.6667	-1.38936	-14.6934	0	
2.6673	0.449498	-18.6693	0	
2.6680	1.34849	-17.4592	0	
2.6687	-1.38936	-17.7473	0	
2.6693	-2.28835	-22.0113	0	
2.6700	-1.6754	-21.7232	0	
2.6707	-2.9013	-20.5131	0	
2.6713	-4.1272	-24.1433	0	
2.6720	-2.61526	-25.3533	0	
2.6727	-2.28835	-20.8012	0	
2.6733	-2.9013	-18.6693	0	
2.6740	0.12259	-18.0354	0	
2.6747	1.96144	-19.3031	0	
2.6753	-0.490361	-26.9091	0	
2.6760	-1.38936	-34.227	0	
2.6767	0.12259	-38.7791	0	
2.6773	0.12259	-43.6769	0	
2.6780	1.06245	-24.1433	0	
2.6787	3.18735	30.1359	0	
2.6793	4.41325	71.6807	0	
2.6800	4.69929	67.4168	0	
2.6807	3.18735	41.4296	0	
2.6813	1.34849	18.8997	0	
2.6820	2.28835	3.91824	0	
2.6827	3.18735	-3.68776	0	
2.6833	-0.163454	-5.81974	0	
2.6840	-0.490361	-3.39965	0	
2.6847	2.28835	1.49815	0	
2.6853	2.28835	5.12828	0	
2.6860	1.96144	8.47031	0	
2.6867	2.28835	11.5242	0	
2.6873	0.449498	10.6599	0	
2.6880	-0.776405	10.948	0	
2.6887	0.12259	10.6599	0	
2.6893	-1.38936	2.7082	0	
2.6900	-2.61526	-4.60969	0	
2.6907	-2.28835	-7.0874	0	
2.6913	-4.1272	-11.3514	0	
2.6920	-5.63915	-9.7956	0	
2.6927	-3.51425	-0.0576212	0	
2.6933	-3.51425	2.42009	0	
2.6940	-3.51425	-6.74168	0	
2.6947	-0.776405	-15.9034	0	
2.6953	-0.776405	-19.3031	0	
2.6960	-2.00231	-20.5131	0	
2.6967	0.449498	-29.6749	0	
2.6973	1.34849	-40.3348	0	
2.6980	0.12259	-40.6229	0	
2.6987	1.34849	-42.4668	0	
2.6993	2.28835	-33.9389	0	
2.7000	2.28835	17.344	0	
2.7007	3.18735	77.1548	0	
2.7013	2.28835	82.0526	0	
2.7020	2.28835	50.0152	0	
2.7027	4.1272	28.9258	0	
2.7033	1.96144	19.1879	0	
2.7040	-0.776405	10.948	0	
2.7047	2.28835	5.76212	0	
2.7053	2.28835	2.42009	0	
2.7060	-2.00231	0.864318	0	
2.7067	-1.06245	-1.9015	0	
2.7073	1.06245	-8.58556	0	
2.7080	-2.9013	-11.3514	0	
2.7087	-4.74016	-11.0633	0	
2.7093	-1.38936	-14.4053	0	
2.7100	0.12259	-19.5912	0	
2.7107	-0.776405	-17.7473	0	
2.7113	-0.776405	2.42009	0	
2.7120	-3.22821	43.2735	0	
2.7127	-5.96606	71.335	0	
2.7133	-3.51425	59.1769	0	
2.7140	0.12259	31.6916	0	
2.7147	-1.38936	21.0317	0	
2.7153	-3.22821	24.3738	0	
2.7160	0.12259	24.3738	0	
2.7167	1.34849	15.5001	0	
2.7173	0.449498	7.8941	0	
2.7180	0.735541	8.18221	0	
2.7187	2.28835	-1.55577	0	
2.7193	2.28835	-29.0411	0	
2.7200	1.34849	-41.2568	0	
2.7207	2.57439	-24.1433	0	
2.7213	5.92519	-8.87366	0	
2.7220	7.76405	-7.66362	0	
2.7227	5.0262	-4.03348	0	
2.7233	1.6754	2.07436	0	
2.7240	1.34849	-0.0576212	0	
2.7247	1.6754	-6.74168	0	
2.7253	1.6754	-10.4294	0	
2.7260	-0.490361	-9.50749	0	
2.7267	-3.22821	-10.1413	0	
2.7273	-0.776405	-14.0596	0	
2.7280	1.6754	-18.0354	0	
2.7287	-0.776405	-21.7232	0	
2.7293	-1.38936	-24.489	0	
2.7300	0.735541	-22.9332	0	
2.7307	-1.06245	-20.8012	0	
2.7313	-4.74016	-21.4351	0	
2.7320	-4.1272	-15.9034	0	
2.7327	-2.28835	-5.81974	0	
2.7333	-2.28835	-5.53163	0	
2.7340	-3.22821	-9.7956	0	
2.7347	-2.9013	-8.00934	0	
2.7353	-0.776405	-6.74168	0	
2.7360	-0.163454	-8.58556	0	
2.7367	-0.490361	-13.7715	0	
2.7373	1.34849	-27.831	0	
2.7380	3.18735	-29.963	0	
2.7387	3.18735	2.42009	0	
2.7393	1.96144	43.2735	0	
2.7400	1.34849	54.2791	0	
2.7407	2.28835	42.0635	0	
2.7413	3.51425	29.2716	0	
2.7420	3.51425	20.3979	0	
2.7427	3.8003	14.0019	0	
2.7433	4.41325	9.73798	0	
2.7440	2.9013	8.81604	0	
2.7447	1.6754	9.73798	0	
2.7453	3.51425	7.26027	0	
2.7460	3.18735	1.49815	0	
2.7467	-0.490361	1.78626	0	
2.7473	-2.28835	8.18221	0	
2.7480	-1.6754	10.6599	0	
2.7487	-4.1272	8.81604	0	
2.7493	-6.2521	8.47031	0	
2.7500	-4.1272	11.2361	0	
2.7507	-2.00231	13.08	0	
2.7513	-1.6754	9.73798	0	
2.7520	-1.38936	2.42009	0	
2.7527	-2.28835	-2.1896	0	
2.7533	-4.1272	-4.60969	0	
2.7540	-3.84116	-10.7175	0	
2.7547	-2.61526	-20.5131	0	
2.7553	-3.22821	-23.2213	0	
2.7560	-2.28835	-17.1135	0	
2.7567	-0.776405	-10.4294	0	
2.7573	-0.776405	-9.50749	0	
2.7580	-1.06245	-15.9034	0	
2.7587	-0.490361	-26.2753	0	
2.7593	0.12259	-29.0411	0	
2.7600	1.06245	-21.0894	0	
2.7607	2.57439	-14.9815	0	
2.7613	3.51425	-15.9034	0	
2.7620	2.28835	-13.7715	0	
2.7627	-0.490361	-9.21939	0	
2.7633	-0.163454	-6.74168	0	
2.7640	2.28835	-0.633833	0	
2.7647	1.6754	9.73798	0	
2.7653	0.449498	15.8458	0	
2.7660	-0.776405	16.1339	0	
2.7667	-3.22821	13.08	0	
2.7673	-5.06706	8.81604	0	
2.7680	-2.61526	7.8941	0	
2.7687	-0.776405	8.81604	0	
2.7693	-3.84116	6.05022	0	
2.7700	-5.06706	4.20635	0	
2.7707	-2.28835	4.84018	0	
2.7713	-1.38936	5.76212	0	
2.7720	-2.9013	7.8941	0	
2.7727	-2.28835	5.41639	0	
2.7733	-1.6754	-0.633833	0	
2.7740	-3.22821	2.7082	0	
2.7747	-2.28835	9.39225	0	
2.7753	0.12259	1.49815	0	
2.7760	-0.776405	-9.50749	0	
2.7767	-2.61526	-9.7956	0	
2.7773	-1.38936	-7.0874	0	
2.7780	0.449498	-6.74168	0	
2.7787	0.735541	-5.81974	0	
2.7793	0.449498	-10.7175	0	
2.7800	0.735541	-22.9332	0	
2.7807	1.96144	-31.4612	0	
2.7813	3.18735	-28.4072	0	
2.7820	2.9013	-16.2492	0	
2.7827	1.96144	-4.60969	0	
2.7833	3.18735	0.576212	0	
2.7840	4.1272	-0.345727	0	
2.7847	3.18735	-4.95542	0	
2.7853	2.28835	-7.66362	0	
2.7860	1.06245	-4.03348	0	
2.7867	-1.06245	-0.97956	0	
2.7873	-0.490361	-2.82344	0	
2.7880	1.6754	-4.32159	0	
2.7887	-0.776405	-1.26767	0	
2.7893	-4.45411	2.42009	0	
2.7900	-2.9013	3.91824	0	
2.7907	-0.163454	6.68406	0	
2.7913	-0.490361	10.3142	0	
2.7920	-0.776405	10.6599	0	
2.7927	-0.490361	8.47031	0	
2.7933	-1.6754	10.948	0	
2.7940	-3.22821	15.212	0	
2.7947	-2.9013	15.212	0	
2.7953	-1.38936	14.2901	0	
2.7960	-1.06245	14.5782	0	
2.7967	-0.776405	14.2901	0	
2.7973	0.449498	17.344	0	
2.7980	4.1272	16.422	0	
2.7987	6.2521	-4.03348	0	
2.7993	4.1272	-31.4612	0	
2.8000	2.9013	-33.9389	0	
2.8007	5.31224	-13.1952	0	
2.8013	4.41325	-0.345727	0	
2.8020	0.735541	-2.1896	0	
2.8027	1.06245	-2.47771	0	
2.8033	0.735541	0.230485	0	
2.8040	-1.6754	-1.26767	0	
2.8047	-0.163454	-2.47771	0	
2.8053	2.28835	-3.11154	0	
2.8060	0.735541	-9.50749	0	
2.8067	0.12259	-16.5373	0	
2.8073	0.735541	-21.7232	0	
2.8080	-2.28835	-33.0169	0	
2.8087	-4.45411	-45.8088	0	
2.8093	-2.00231	-57.7364	0	
2.8100	-1.06245	-75.4261	0	
2.8107	-2.28835	-82.744	0	
2.8113	-1.06245	-50.7066	0	
2.8120	1.34849	7.606	0	
2.8127	1.06245	56.6992	0	
2.8133	0.12259	82.0526	0	
2.8140	-0.776405	86.3165	0	
2.8147	-2.00231	75.6566	0	
2.8153	-1.38936	60.0989	0	
2.8160	0.12259	42.6973	0	
2.8167	-0.490361	25.2957	0	
2.8173	-1.38936	13.08	0	
2.8180	-0.163454	9.73798	0	
2.8187	2.57439	9.39225	0	
2.8193	3.8003	8.81604	0	
2.8200	2.28835	8.81604	0	
2.8207	0.12259	6.97216	0	
2.8213	1.96144	2.7082	0	
2.8220	3.51425	-1.26767	0	
2.8227	1.34849	-4.60969	0	
2.8233	0.449498	1.49815	0	
2.8240	4.69929	19.1879	0	
2.8247	5.92519	28.0039	0	
2.8253	0.12259	20.686	0	
2.8260	-4.1272	14.0019	0	
2.8267	-2.28835	11.87	0	
2.8273	-0.490361	5.76212	0	
2.8280	-2.61526	2.9963	0	
2.8287	-3.22821	6.97216	0	
2.8293	-1.06245	7.8941	0	
2.8300	-2.00231	7.26027	0	
2.8307	-3.51425	10.3142	0	
2.8313	-3.51425	11.2361	0	
2.8320	-4.1272	11.5242	0	
2.8327	-4.1272	17.0559	0	
2.8333	-2.28835	20.3979	0	
2.8340	-2.28835	15.8458	0	
2.8347	-2.00231	12.4462	0	
2.8353	-0.490361	13.08	0	
2.8360	-0.776405	11.2361	0	
2.8367	-0.163454	6.68406	0	
2.8373	3.18735	2.07436	0	
2.8380	2.9013	-4.60969	0	
2.8387	0.449498	-11.3514	0	
2.8393	1.6754	-17.7473	0	
2.8400	3.51425	-25.0652	0	
2.8407	4.1272	-30.885	0	
2.8413	5.31224	-35.1489	0	
2.8420	4.1272	-42.1787	0	
2.8427	1.6754	-40.9687	0	
2.8433	3.51425	-22.2994	0	
2.8440	4.1272	0.864318	0	
2.8447	1.34849	16.1339	0	
2.8453	-0.163454	19.7641	0	
2.8460	-0.490361	10.6599	0	
2.8467	-1.06245	-2.1896	0	
2.8473	-0.490361	-6.45357	0	
2.8480	-0.490361	-4.60969	0	
2.8487	-1.38936	-2.82344	0	
2.8493	-2.61526	0.576212	0	
2.8500	-5.06706	1.78626	0	
2.8507	-5.35311	-0.345727	0	
2.8513	-2.28835	-0.0576212	0	
2.8520	-1.38936	0.576212	0	
2.8527	-2.9013	-5.24353	0	
2.8533	-2.28835	-12.2733	0	
2.8540	-3.84116	-12.2733	0	
2.8547	-5.63915	-8.87366	0	
2.8553	-2.28835	-5.81974	0	
2.8560	0.449498	-0.345727	0	
2.8567	-2.28835	5.41639	0	
2.8573	-2.9013	8.18221	0	
2.8580	-0.163454	12.1581	0	
2.8587	0.449498	15.212	0	
2.8593	-0.490361	12.4462	0	
2.8600	1.34849	11.5242	0	
2.8607	3.18735	16.1339	0	
2.8613	2.57439	13.08	0	
2.8620	1.96144	6.05022	0	
2.8627	2.28835	4.84018	0	
2.8633	1.06245	-7.66362	0	
2.8640	-0.776405	-41.5449	0	
2.8647	1.06245	-62.9223	0	
2.8653	2.57439	-49.2085	0	
2.8660	0.449498	-25.9872	0	
2.8667	-0.490361	-16.2492	0	
2.8673	0.449498	-12.8495	0	
2.8680	-2.61526	-8.87366	0	
2.8687	-3.84116	-5.81974	0	
2.8693	-1.38936	-4.60969	0	
2.8700	-2.28835	-4.32159	0	
2.8707	-4.74016	-5.53163	0	
2.8713	-3.84116	-4.03348	0	
2.8720	-5.96606	-0.97956	0	
2.8727	-6.57901	1.78626	0	
2.8733	-0.490361	6.05022	0	
2.8740	2.28835	12.1581	0	
2.8747	0.449498	14.2901	0	
2.8753	1.6754	11.87	0	
2.8760	1.96144	9.73798	0	
2.8767	-0.490361	9.73798	0	
2.8773	1.96144	9.73798	0	
2.8780	5.0262	5.76212	0	
2.8787	2.28835	-5.81974	0	
2.8793	2.28835	-16.5373	0	
2.8800	5.0262	-19.8793	0	
2.8807	4.1272	-21.4351	0	
2.8813	1.06245	-24.7771	0	
2.8820	0.449498	-26.9091	0	
2.8827	1.34849	-27.831	0	
2.8833	3.18735	-25.699	0	
2.8840	3.51425	-25.3533	0	
2.8847	1.34849	-31.1731	0	
2.8853	-1.38936	-34.5151	0	
2.8860	-1.38936	-33.9389	0	
2.8867	-0.163454	-35.1489	0	
2.8873	-0.490361	-19.3031	0	
2.8880	-2.28835	27.7158	0	
2.8887	-3.51425	71.6807	0	
2.8893	-4.1272	80.2087	0	
2.8900	-4.1272	64.651	0	
2.8907	-3.22821	45.4055	0	
2.8913	-1.38936	32.6136	0	
2.8920	-1.38936	28.6377	0	
2.8927	-1.38936	23.4518	0	
2.8933	-1.38936	15.5001	0	
2.8940	-2.00231	12.4462	0	
2.8947	-2.28835	9.73798	0	
2.8953	-0.776405	5.12828	0	
2.8960	0.735541	5.76212	0	
2.8967	-0.163454	6.97216	0	
2.8973	0.12259	2.42009	0	
2.8980	2.57439	-0.633833	0	
2.8987	3.51425	0.864318	0	
2.8993	3.18735	1.78626	0	
2.9000	2.9013	4.84018	0	
2.9007	2.28835	6.97216	0	
2.9013	1.06245	0.576212	0	
2.9020	0.735541	-6.74168	0	
2.9027	2.28835	-7.0874	0	
2.9033	3.18735	-8.29745	0	
2.9040	2.57439	-10.4294	0	
2.9047	-0.163454	-8.58556	0	
2.9053	-1.38936	-4.03348	0	
2.9060	-0.490361	-0.633833	0	
2.9067	-1.06245	2.42009	0	
2.9073	-2.61526	4.20635	0	
2.9080	-2.61526	-0.345727	0	
2.9087	-2.28835	-11.9276	0	
2.9093	-3.22821	-22.2994	0	
2.9100	-4.45411	-24.1433	0	
2.9107	-5.06706	-18.9574	0	
2.9113	-5.96606	-3.68776	0	
2.9120	-5.06706	28.9258	0	
2.9127	-3.22821	55.4892	0	
2.9133	-5.35311	51.2252	0	
2.9140	-6.86505	31.6916	0	
2.9147	-2.28835	21.896	0	
2.9153	1.34849	17.344	0	
2.9160	-1.38936	13.3681	0	
2.9167	-1.6754	13.3681	0	
2.9173	1.34849	8.47031	0	
2.9180	0.449498	-4.60969	0	
2.9187	-1.38936	-10.1413	0	
2.9193	1.34849	-4.32159	0	
2.9200	2.28835	-0.0576212	0	
2.9207	1.34849	2.7082	0	
2.9213	1.6754	5.12828	0	
2.9220	1.06245	-2.1896	0	
2.9227	1.34849	-15.6153	0	
2.9233	4.69929	-17.7473	0	
2.9240	5.0262	-10.4294	0	
2.9247	1.34849	-9.50749	0	
2.9253	0.12259	-13.4834	0	
2.9260	1.6754	-15.3272	0	
2.9267	0.449498	-22.2994	0	
2.9273	-1.38936	-29.6749	0	
2.9280	-0.490361	-19.8793	0	
2.9287	-2.00231	-8.58556	0	
2.9293	-4.1272	-14.9815	0	
2.9300	-2.28835	-16.8254	0	
2.9307	-1.06245	-2.82344	0	
2.9313	-4.1272	0.864318	0	
2.9320	-4.1272	-4.32159	0	
2.9327	0.449498	0.230485	0	
2.9333	2.28835	5.41639	0	
2.9340	0.449498	9.10415	0	
2.9347	0.12259	12.4462	0	
2.9353	0.449498	-5.24353	0	
2.9360	1.06245	-27.5429	0	
2.9367	1.6754	-15.6153	0	
2.9373	1.06245	10.6599	0	
2.9380	1.34849	14.2901	0	
2.9387	4.1272	6.05022	0	
2.9393	5.92519	2.42009	0	
2.9400	6.86505	-1.55577	0	
2.9407	5.31224	-3.68776	0	
2.9413	1.6754	-3.39965	0	
2.9420	0.735541	-5.24353	0	
2.9427	2.28835	-4.95542	0	
2.9433	1.6754	-1.55577	0	
2.9440	1.96144	-0.0576212	0	
2.9447	3.51425	-0.345727	0	
2.9453	1.34849	-3.68776	0	
2.9460	-2.28835	-9.7956	0	
2.9467	-2.28835	-10.7175	0	
2.9473	-0.776405	-7.37551	0	
2.9480	-0.490361	-4.03348	0	
2.9487	-2.9013	-3.11154	0	
2.9493	-5.63915	-2.1896	0	
2.9500	-2.61526	-1.55577	0	
2.9507	1.96144	-0.97956	0	
2.9513	-0.490361	1.49815	0	
2.9520	-3.22821	4.20635	0	
2.9527	-0.776405	3.91824	0	
2.9533	-1.6754	4.84018	0	
2.9540	-4.1272	6.68406	0	
2.9547	-1.06245	3.28441	0	
2.9553	0.12259	-0.345727	0	
2.9560	-3.22821	2.42009	0	
2.9567	-0.490361	3.28441	0	
2.9573	4.1272	0.230485	0	
2.9580	1.96144	-2.1896	0	
2.9587	1.06245	-5.81974	0	
2.9593	4.1272	-11.9276	0	
2.9600	2.28835	-19.3031	0	
2.9607	-1.38936	-31.4612	0	
