0.0000	-3.11276	1.07957	1
0.0007	-4.03506	-4.39025	0	
0.0013	-3.11276	-8.06079	0	
0.0020	-1.5756	-12.3071	0	
0.0027	-3.72763	-20.8717	0	
0.0033	-4.03506	-28.2128	0	
0.0040	-0.653296	-31.2356	0	
0.0047	0.576437	-33.3947	0	
0.0053	-0.0384292	-34.2584	0	
0.0060	1.76774	-21.4475	0	
0.0067	3.30491	8.70854	0	
0.0073	1.46031	39.8721	0	
0.0080	1.15287	48.0769	0	
0.0087	2.99747	32.5311	0	
0.0093	2.99747	14.2503	0	
0.0100	2.99747	5.68574	0	
0.0107	4.22721	3.5266	0	
0.0113	3.30491	3.23871	0	
0.0120	1.76774	3.23871	0	
0.0127	2.38261	0.791685	0	
0.0133	1.15287	-1.94323	0	
0.0140	-0.345862	-1.36746	0	
0.0147	1.46031	0.791685	0	
0.0153	1.46031	0.5038	0	
0.0160	-1.26816	-1.36746	0	
0.0167	-0.960729	1.07957	0	
0.0173	1.15287	7.84488	0	
0.0180	0.576437	10.5798	0	
0.0187	-1.88303	3.23871	0	
0.0193	-4.34249	-5.90165	0	
0.0200	-5.22637	-7.12517	0	
0.0207	-3.42019	-4.67814	0	
0.0213	-1.26816	-5.90165	0	
0.0220	-1.5756	-6.83728	0	
0.0227	-2.80533	-4.67814	0	
0.0233	-2.80533	-5.32588	0	
0.0240	-1.26816	-10.5078	0	
0.0247	0.269004	-13.2427	0	
0.0253	1.15287	-13.2427	0	
0.0260	2.99747	-14.1784	0	
0.0267	3.61234	-13.5306	0	
0.0273	2.38261	-10.5078	0	
0.0280	2.07517	-6.83728	0	
0.0287	3.30491	-2.23111	0	
0.0293	4.53464	-1.94323	0	
0.0300	5.45694	-4.10237	0	
0.0307	3.91977	2.30308	0	
0.0313	0.269004	8.13276	0	
0.0320	-1.88303	-1.0076	0	
0.0327	-1.5756	-6.83728	0	
0.0333	-0.960729	6.90925	0	
0.0340	-0.345862	18.4966	0	
0.0347	0.576437	13.6026	0	
0.0353	-0.653296	8.13276	0	
0.0360	-1.88303	6.90925	0	
0.0367	-0.345862	4.17434	0	
0.0373	-1.26816	3.23871	0	
0.0380	-5.84123	3.23871	0	
0.0387	-4.6115	3.23871	0	
0.0393	-0.0384292	3.5266	0	
0.0400	-2.4979	1.43943	0	
0.0407	-5.5338	-3.16674	0	
0.0413	-3.42019	-5.90165	0	
0.0420	-4.03506	-7.12517	0	
0.0427	-5.84123	-7.41305	0	
0.0433	-2.4979	-5.61377	0	
0.0440	0.269004	-3.45463	0	
0.0447	-2.4979	-1.36746	0	
0.0453	-4.6115	-0.719714	0	
0.0460	-2.80533	-1.65534	0	
0.0467	-0.345862	-0.431828	0	
0.0473	-0.0384292	2.66294	0	
0.0480	-1.5756	5.10997	0	
0.0487	-0.653296	7.19714	0	
0.0493	1.15287	8.42065	0	
0.0500	-0.653296	8.70854	0	
0.0507	-0.345862	9.64416	0	
0.0513	-0.653296	8.70854	0	
0.0520	-4.6115	7.19714	0	
0.0527	-6.14866	9.35628	0	
0.0533	-2.19046	10.2919	0	
0.0540	-0.653296	9.06839	0	
0.0547	-2.4979	9.64416	0	
0.0553	-4.03506	6.26151	0	
0.0560	-5.22637	-2.87885	0	
0.0567	-3.72763	-18.1368	0	
0.0573	-2.80533	-49.5163	0	
0.0580	-5.22637	-79.7443	0	
0.0587	-5.22637	-75.498	0	
0.0593	-3.72763	-54.1225	0	
0.0600	-6.14866	-40.7358	0	
0.0607	-6.76353	-10.5078	0	
0.0613	-4.03506	39.2244	0	
0.0620	-4.34249	66.4296	0	
0.0627	-4.34249	61.2476	0	
0.0633	-2.19046	45.9897	0	
0.0640	-3.42019	27.0612	0	
0.0647	-5.22637	11.8033	0	
0.0653	-2.4979	8.42065	0	
0.0660	-2.4979	7.19714	0	
0.0667	-3.72763	3.23871	0	
0.0673	-1.5756	1.43943	0	
0.0680	-1.26816	0.215914	0	
0.0687	-2.4979	-1.94323	0	
0.0693	-0.653296	-1.94323	0	
0.0700	-0.653296	-1.36746	0	
0.0707	-2.80533	0.215914	0	
0.0713	-1.5756	3.23871	0	
0.0720	-0.345862	2.66294	0	
0.0727	-3.11276	-1.65534	0	
0.0733	-3.42019	-3.16674	0	
0.0740	-3.11276	-0.431828	0	
0.0747	-4.03506	1.72731	0	
0.0753	-3.42019	2.0152	0	
0.0760	-1.5756	0.215914	0	
0.0767	-0.345862	-1.94323	0	
0.0773	0.269004	-2.23111	0	
0.0780	-1.5756	-0.719714	0	
0.0787	-2.4979	1.07957	0	
0.0793	-1.5756	1.43943	0	
0.0800	-2.4979	1.43943	0	
0.0807	-4.34249	4.46222	0	
0.0813	-2.19046	5.97362	0	
0.0820	-1.5756	1.72731	0	
0.0827	-4.03506	-1.94323	0	
0.0833	-2.4979	-0.431828	0	
0.0840	-1.5756	2.30308	0	
0.0847	-3.11276	3.5266	0	
0.0853	-1.5756	3.88645	0	
0.0860	0.845441	2.95083	0	
0.0867	-1.88303	2.0152	0	
0.0873	-4.03506	2.30308	0	
0.0880	-0.653296	2.30308	0	
0.0887	2.69004	0.791685	0	
0.0893	2.07517	0.5038	0	
0.0900	1.15287	1.72731	0	
0.0907	-0.0384292	-0.143943	0	
0.0913	-3.72763	-5.90165	0	
0.0920	-4.34249	-9.28431	0	
0.0927	-0.653296	-10.5078	0	
0.0933	-1.26816	-18.1368	0	
0.0940	-4.34249	-30.2999	0	
0.0947	-1.88303	-37.0653	0	
0.0953	0.269004	-41.0237	0	
0.0960	-2.4979	-43.7586	0	
0.0967	-3.11276	-42.5351	0	
0.0973	-1.5756	-41.0237	0	
0.0980	-3.11276	-30.6598	0	
0.0987	-4.34249	6.26151	0	
0.0993	-2.19046	49.3004	0	
0.1000	-2.4979	59.0885	0	
0.1007	-4.03506	39.8721	0	
0.1013	-3.11276	23.3907	0	
0.1020	-1.5756	16.6974	0	
0.1027	-0.960729	13.0268	0	
0.1033	-0.0384292	12.3791	0	
0.1040	-0.0384292	12.0912	0	
0.1047	-0.0384292	9.06839	0	
0.1053	0.845441	7.84488	0	
0.1060	0.845441	7.19714	0	
0.1067	0.576437	6.90925	0	
0.1073	1.46031	10.5798	0	
0.1080	2.07517	14.8261	0	
0.1087	2.07517	15.114	0	
0.1093	3.91977	16.0496	0	
0.1100	4.84207	14.8261	0	
0.1107	3.61234	5.39785	0	
0.1113	1.15287	-0.431828	0	
0.1120	0.845441	-4.39025	0	
0.1127	1.15287	-26.0536	0	
0.1133	2.38261	-50.7398	0	
0.1140	4.84207	-47.1412	0	
0.1147	4.53464	-29.4363	0	
0.1153	-0.0384292	-20.5838	0	
0.1160	-1.88303	-15.042	0	
0.1167	2.07517	-9.28431	0	
0.1173	2.99747	-7.77291	0	
0.1180	0.845441	-6.83728	0	
0.1187	1.15287	-6.18954	0	
0.1193	0.576437	-4.96602	0	
0.1200	-1.88303	-2.23111	0	
0.1207	-0.960729	-5.90165	0	
0.1213	1.15287	-12.9548	0	
0.1220	0.576437	-8.06079	0	
0.1227	1.76774	5.39785	0	
0.1233	5.45694	10.2919	0	
0.1240	5.14951	7.19714	0	
0.1247	2.07517	3.88645	0	
0.1253	0.845441	0.5038	0	
0.1260	1.76774	-2.87885	0	
0.1267	4.53464	-3.16674	0	
0.1273	6.64824	-0.143943	0	
0.1280	5.76437	3.23871	0	
0.1287	5.14951	4.17434	0	
0.1293	4.84207	5.39785	0	
0.1300	3.30491	6.90925	0	
0.1307	4.84207	7.48502	0	
0.1313	7.87798	9.64416	0	
0.1320	5.76437	13.8905	0	
0.1327	2.07517	15.7617	0	
0.1333	3.91977	14.8261	0	
0.1340	6.95568	13.0268	0	
0.1347	6.64824	9.93205	0	
0.1353	3.91977	4.75011	0	
0.1360	1.15287	0.5038	0	
0.1367	1.46031	1.07957	0	
0.1373	3.91977	2.95083	0	
0.1380	2.99747	2.66294	0	
0.1387	0.269004	2.30308	0	
0.1393	0.576437	2.30308	0	
0.1400	2.99747	1.43943	0	
0.1407	2.99747	2.30308	0	
0.1413	1.15287	4.17434	0	
0.1420	0.269004	3.23871	0	
0.1427	2.38261	1.43943	0	
0.1433	5.45694	2.0152	0	
0.1440	4.22721	1.72731	0	
0.1447	2.07517	1.43943	0	
0.1453	4.22721	2.0152	0	
0.1460	7.57054	0.791685	0	
0.1467	5.76437	-1.0076	0	
0.1473	2.69004	-0.719714	0	
0.1480	3.61234	-0.431828	0	
0.1487	3.91977	-0.431828	0	
0.1493	2.38261	2.30308	0	
0.1500	3.91977	3.88645	0	
0.1507	5.14951	1.43943	0	
0.1513	3.91977	0.215914	0	
0.1520	4.84207	2.0152	0	
0.1527	6.64824	2.0152	0	
0.1533	3.91977	1.07957	0	
0.1540	1.46031	1.72731	0	
0.1547	2.07517	3.23871	0	
0.1553	1.46031	3.5266	0	
0.1560	0.576437	1.72731	0	
0.1567	1.15287	0.5038	0	
0.1573	-0.0384292	2.30308	0	
0.1580	-0.653296	1.43943	0	
0.1587	0.269004	-2.23111	0	
0.1593	-0.0384292	-1.0076	0	
0.1600	0.269004	2.0152	0	
0.1607	0.845441	1.43943	0	
0.1613	-3.11276	0.5038	0	
0.1620	-4.91893	-1.65534	0	
0.1627	-1.5756	-4.39025	0	
0.1633	-0.345862	-3.16674	0	
0.1640	-0.653296	-1.65534	0	
0.1647	1.15287	-4.10237	0	
0.1653	0.269004	-4.39025	0	
0.1660	-1.5756	-3.16674	0	
0.1667	0.576437	-4.10237	0	
0.1673	1.46031	-3.45463	0	
0.1680	1.15287	-1.94323	0	
0.1687	2.99747	-3.45463	0	
0.1693	3.91977	-5.61377	0	
0.1700	3.30491	-5.32588	0	
0.1707	4.84207	-3.16674	0	
0.1713	5.76437	-2.23111	0	
0.1720	5.14951	-4.96602	0	
0.1727	3.61234	-5.90165	0	
0.1733	1.46031	-2.23111	0	
0.1740	2.99747	-1.65534	0	
0.1747	5.14951	-2.23111	0	
0.1753	2.38261	1.43943	0	
0.1760	0.576437	2.30308	0	
0.1767	2.07517	-1.36746	0	
0.1773	-0.653296	-1.36746	0	
0.1780	-3.11276	-0.719714	0	
0.1787	1.15287	-0.719714	0	
0.1793	2.38261	2.30308	0	
0.1800	-0.345862	2.30308	0	
0.1807	-0.653296	-2.87885	0	
0.1813	-0.960729	-2.87885	0	
0.1820	-1.88303	-0.431828	0	
0.1827	-0.0384292	-1.94323	0	
0.1833	-0.0384292	-1.36746	0	
0.1840	-1.5756	2.30308	0	
0.1847	1.15287	2.30308	0	
0.1853	2.07517	0.5038	0	
0.1860	-2.19046	1.72731	0	
0.1867	-3.11276	1.72731	0	
0.1873	0.845441	-0.431828	0	
0.1880	2.07517	-1.65534	0	
0.1887	2.38261	-1.65534	0	
0.1893	3.61234	-0.431828	0	
0.1900	2.99747	0.791685	0	
0.1907	2.07517	0.5038	0	
0.1913	2.07517	-0.719714	0	
0.1920	2.38261	-2.87885	0	
0.1927	2.07517	-4.10237	0	
0.1933	1.46031	-3.16674	0	
0.1940	0.269004	-0.431828	0	
0.1947	-0.653296	1.43943	0	
0.1953	-0.653296	2.30308	0	
0.1960	-0.653296	1.43943	0	
0.1967	-0.0384292	1.72731	0	
0.1973	0.269004	3.5266	0	
0.1980	-2.4979	4.46222	0	
0.1987	-5.22637	2.95083	0	
0.1993	-4.03506	1.43943	0	
0.2000	-2.80533	-1.36746	0	
0.2007	-3.42019	-5.32588	0	
0.2013	-2.4979	-7.12517	0	
0.2020	-1.5756	-6.18954	0	
0.2027	-2.19046	-5.90165	0	
0.2033	-1.88303	-4.96602	0	
0.2040	-1.5756	-3.74251	0	
0.2047	-0.960729	-2.87885	0	
0.2053	2.38261	-1.36746	0	
0.2060	3.61234	-0.431828	0	
0.2067	1.15287	-0.431828	0	
0.2073	2.38261	0.215914	0	
0.2080	6.03338	1.07957	0	
0.2087	4.84207	-0.431828	0	
0.2093	2.69004	0.5038	0	
0.2100	2.99747	2.95083	0	
0.2107	2.69004	-0.431828	0	
0.2113	2.69004	-4.96602	0	
0.2120	6.03338	-3.45463	0	
0.2127	6.34081	-0.431828	0	
0.2133	2.99747	-0.431828	0	
0.2140	2.07517	-0.431828	0	
0.2147	1.76774	-0.431828	0	
0.2153	-0.345862	-1.36746	0	
0.2160	-0.653296	-1.65534	0	
0.2167	-0.653296	-2.519	0	
0.2173	-2.4979	-3.16674	0	
0.2180	-4.34249	-3.16674	0	
0.2187	-4.34249	-3.45463	0	
0.2193	-2.80533	-2.519	0	
0.2200	-1.5756	0.5038	0	
0.2207	-2.4979	2.0152	0	
0.2213	-4.34249	1.43943	0	
0.2220	-4.34249	0.5038	0	
0.2227	-2.80533	-1.0076	0	
0.2233	-0.345862	-1.36746	0	
0.2240	-0.0384292	0.5038	0	
0.2247	-2.4979	1.72731	0	
0.2253	-2.80533	1.72731	0	
0.2260	-0.653296	2.95083	0	
0.2267	-0.653296	4.46222	0	
0.2273	0.576437	5.10997	0	
0.2280	3.30491	4.17434	0	
0.2287	1.76774	3.23871	0	
0.2293	-0.653296	3.23871	0	
0.2300	1.15287	3.23871	0	
0.2307	1.46031	3.23871	0	
0.2313	0.576437	3.88645	0	
0.2320	1.46031	4.17434	0	
0.2327	1.15287	2.0152	0	
0.2333	1.15287	0.791685	0	
0.2340	5.14951	1.72731	0	
0.2347	5.14951	2.30308	0	
0.2353	-0.345862	1.72731	0	
0.2360	-1.5756	1.43943	0	
0.2367	1.15287	0.791685	0	
0.2373	-0.0384292	-0.719714	0	
0.2380	-3.72763	-4.10237	0	
0.2387	-2.4979	-5.90165	0	
0.2393	-0.345862	-7.77291	0	
0.2400	-3.42019	-10.5078	0	
0.2407	-6.4561	-11.0836	0	
0.2413	-4.34249	-10.148	0	
0.2420	-3.11276	-11.3715	0	
0.2427	-4.91893	-12.9548	0	
0.2433	-5.22637	-13.2427	0	
0.2440	-4.03506	-17.7769	0	
0.2447	-4.6115	-23.6066	0	
0.2453	-4.34249	-25.7657	0	
0.2460	-2.4979	-29.4363	0	
0.2467	-1.26816	-30.2999	0	
0.2473	-0.653296	-23.8945	0	
0.2480	-0.0384292	-19.9361	0	
0.2487	1.46031	-9.57219	0	
0.2493	2.99747	25.5498	0	
0.2500	2.07517	62.4711	0	
0.2507	0.269004	71.3236	0	
0.2513	-0.345862	60.0241	0	
0.2520	-0.0384292	44.4783	0	
0.2527	0.576437	29.7961	0	
0.2533	-0.653296	21.5194	0	
0.2540	-2.4979	16.9852	0	
0.2547	-1.88303	12.7389	0	
0.2553	-1.5756	13.3147	0	
0.2560	-3.72763	13.6026	0	
0.2567	-4.6115	8.42065	0	
0.2573	-4.34249	8.13276	0	
0.2580	-3.72763	12.3791	0	
0.2587	-3.11276	9.93205	0	
0.2593	-5.22637	4.75011	0	
0.2600	-8.91556	2.30308	0	
0.2607	-5.84123	-1.0076	0	
0.2613	-0.960729	-3.16674	0	
0.2620	-1.5756	-1.36746	0	
0.2627	-2.4979	0.5038	0	
0.2633	-1.88303	0.791685	0	
0.2640	-3.42019	0.5038	0	
0.2647	-2.80533	-1.0076	0	
0.2653	0.845441	-1.36746	0	
0.2660	1.76774	-1.36746	0	
0.2667	1.15287	-2.23111	0	
0.2673	2.38261	-1.65534	0	
0.2680	2.07517	1.07957	0	
0.2687	0.845441	1.72731	0	
0.2693	2.07517	-0.431828	0	
0.2700	2.99747	-5.61377	0	
0.2707	1.46031	-10.5078	0	
0.2713	0.845441	-10.5078	0	
0.2720	0.576437	-9.57219	0	
0.2727	-1.5756	-9.57219	0	
0.2733	-2.4979	-6.83728	0	
0.2740	-1.88303	-3.45463	0	
0.2747	-3.42019	-4.96602	0	
0.2753	-4.6115	-5.32588	0	
0.2760	-2.19046	-4.96602	0	
0.2767	-1.88303	-10.148	0	
0.2773	-4.34249	-15.042	0	
0.2780	-4.34249	-14.4662	0	
0.2787	-4.34249	-12.9548	0	
0.2793	-5.22637	-11.7313	0	
0.2800	-4.34249	-9.86008	0	
0.2807	-4.34249	-8.34868	0	
0.2813	-4.6115	-8.06079	0	
0.2820	-3.72763	-8.34868	0	
0.2827	-3.72763	-9.28431	0	
0.2833	-4.34249	-10.148	0	
0.2840	-2.19046	-7.41305	0	
0.2847	-2.19046	-3.74251	0	
0.2853	-2.80533	-4.10237	0	
0.2860	-0.960729	-7.12517	0	
0.2867	-0.345862	-7.12517	0	
0.2873	-1.5756	-5.32588	0	
0.2880	-1.5756	-4.96602	0	
0.2887	-0.960729	-5.90165	0	
0.2893	0.269004	-7.77291	0	
0.2900	2.99747	-10.148	0	
0.2907	2.99747	-9.57219	0	
0.2913	2.07517	-7.77291	0	
0.2920	4.22721	-9.28431	0	
0.2927	3.61234	-13.2427	0	
0.2933	-1.88303	-17.7769	0	
0.2940	-2.19046	-21.8073	0	
0.2947	0.845441	-24.5422	0	
0.2953	-0.960729	-26.0536	0	
0.2960	-2.4979	-29.0764	0	
0.2967	-0.653296	-31.2356	0	
0.2973	-0.653296	-23.6066	0	
0.2980	-1.5756	0.791685	0	
0.2987	-0.0384292	37.1372	0	
0.2993	-0.653296	61.5355	0	
0.3000	-3.42019	56.3536	0	
0.3007	-2.80533	35.266	0	
0.3013	-0.345862	21.5194	0	
0.3020	-1.26816	16.6974	0	
0.3027	-2.19046	14.8261	0	
0.3033	-0.653296	12.3791	0	
0.3040	0.269004	6.26151	0	
0.3047	-0.960729	-0.719714	0	
0.3053	-0.960729	-2.87885	0	
0.3060	-0.0384292	-3.45463	0	
0.3067	0.269004	-7.41305	0	
0.3073	0.269004	-8.63656	0	
0.3080	1.15287	-6.83728	0	
0.3087	2.99747	-7.77291	0	
0.3093	3.91977	-10.148	0	
0.3100	2.69004	-8.63656	0	
0.3107	3.91977	-8.06079	0	
0.3113	6.64824	-7.41305	0	
0.3120	5.14951	-2.519	0	
0.3127	0.269004	1.43943	0	
0.3133	-1.5756	1.72731	0	
0.3140	0.269004	2.95083	0	
0.3147	-0.0384292	8.70854	0	
0.3153	-0.653296	14.5382	0	
0.3160	2.07517	16.0496	0	
0.3167	0.576437	16.6974	0	
0.3173	-4.6115	16.0496	0	
0.3180	-5.5338	-1.36746	0	
0.3187	-4.34249	-32.4591	0	
0.3193	-4.6115	-43.7586	0	
0.3200	-3.72763	-34.6182	0	
0.3207	-3.11276	-33.3947	0	
0.3213	-4.03506	-35.194	0	
0.3220	-2.4979	-28.5007	0	
0.3227	-0.653296	-23.0308	0	
0.3233	-1.5756	-3.74251	0	
0.3240	-0.960729	40.8078	0	
0.3247	1.15287	74.6343	0	
0.3253	2.69004	74.6343	0	
0.3260	3.61234	58.8006	0	
0.3267	3.61234	41.6714	0	
0.3273	2.07517	29.5083	0	
0.3280	2.99747	25.19	0	
0.3287	4.84207	23.3907	0	
0.3293	3.30491	18.7845	0	
0.3300	2.07517	13.3147	0	
0.3307	2.07517	10.2919	0	
0.3313	2.99747	8.70854	0	
0.3320	5.45694	6.62137	0	
0.3327	7.57054	5.39785	0	
0.3333	5.76437	5.97362	0	
0.3340	3.61234	4.46222	0	
0.3347	2.69004	2.30308	0	
0.3353	1.76774	3.88645	0	
0.3360	0.845441	1.07957	0	
0.3367	-0.653296	-8.63656	0	
0.3373	-2.19046	-12.9548	0	
0.3380	-2.4979	-11.0836	0	
0.3387	-3.42019	-13.5306	0	
0.3393	-5.84123	-15.9776	0	
0.3400	-7.07096	-10.7957	0	
0.3407	-6.14866	-8.06079	0	
0.3413	-5.22637	-11.0836	0	
0.3420	-6.14866	-11.0836	0	
0.3427	-7.3784	-6.54939	0	
0.3433	-5.22637	-4.96602	0	
0.3440	-3.42019	-5.90165	0	
0.3447	-5.22637	-6.18954	0	
0.3453	-6.14866	-7.41305	0	
0.3460	-2.4979	-7.77291	0	
0.3467	0.576437	-6.83728	0	
0.3473	1.15287	-8.63656	0	
0.3480	1.76774	-9.57219	0	
0.3487	2.07517	-7.41305	0	
0.3493	0.269004	-6.54939	0	
0.3500	-2.4979	-5.61377	0	
0.3507	-2.4979	-3.16674	0	
0.3513	-1.26816	-3.74251	0	
0.3520	-0.653296	-4.96602	0	
0.3527	0.576437	-2.87885	0	
0.3533	2.07517	-2.23111	0	
0.3540	1.46031	-5.32588	0	
0.3547	-0.0384292	-5.90165	0	
0.3553	-1.5756	-3.45463	0	
0.3560	-3.11276	-0.719714	0	
0.3567	-2.19046	1.07957	0	
0.3573	-0.653296	-0.719714	0	
0.3580	-1.5756	-4.10237	0	
0.3587	-3.11276	-1.0076	0	
0.3593	-4.03506	2.95083	0	
0.3600	-5.5338	0.791685	0	
0.3607	-5.84123	-1.65534	0	
0.3613	-3.42019	-1.36746	0	
0.3620	-2.4979	-5.61377	0	
0.3627	-4.6115	-10.5078	0	
0.3633	-5.22637	-9.57219	0	
0.3640	-3.11276	-11.7313	0	
0.3647	-1.5756	-20.8717	0	
0.3653	-1.5756	-26.6294	0	
0.3660	-0.653296	-26.9893	0	
0.3667	2.38261	-29.7242	0	
0.3673	2.99747	-36.1296	0	
0.3680	1.15287	-40.088	0	
0.3687	2.99747	-36.1296	0	
0.3693	4.84207	-12.0192	0	
0.3700	1.76774	29.5083	0	
0.3707	1.15287	57.2892	0	
0.3713	5.76437	51.4595	0	
0.3720	3.91977	33.7546	0	
0.3727	-0.653296	26.4135	0	
0.3733	2.69004	24.6142	0	
0.3740	3.91977	22.1672	0	
0.3747	-0.653296	20.008	0	
0.3753	-0.653296	16.9852	0	
0.3760	1.76774	13.3147	0	
0.3767	-0.960729	11.5154	0	
0.3773	-1.5756	9.93205	0	
0.3780	0.269004	6.90925	0	
0.3787	-2.4979	4.75011	0	
0.3793	-4.6115	2.95083	0	
0.3800	-3.42019	2.0152	0	
0.3807	-4.34249	2.30308	0	
0.3813	-3.11276	2.95083	0	
0.3820	-0.653296	2.66294	0	
0.3827	-1.88303	1.72731	0	
0.3833	-2.4979	2.30308	0	
0.3840	1.15287	4.17434	0	
0.3847	1.15287	3.23871	0	
0.3853	-0.653296	1.43943	0	
0.3860	0.576437	1.72731	0	
0.3867	2.07517	2.30308	0	
0.3873	2.07517	0.5038	0	
0.3880	2.07517	-0.719714	0	
0.3887	3.30491	0.5038	0	
0.3893	3.91977	1.43943	0	
0.3900	2.38261	-0.431828	0	
0.3907	1.15287	-1.36746	0	
0.3913	2.69004	0.5038	0	
0.3920	3.30491	-0.431828	0	
0.3927	1.76774	-5.32588	0	
0.3933	1.15287	-5.90165	0	
0.3940	1.15287	-2.519	0	
0.3947	-0.653296	-4.10237	0	
0.3953	-1.5756	-6.18954	0	
0.3960	-2.80533	-4.10237	0	
0.3967	-5.22637	-3.45463	0	
0.3973	-7.07096	-5.32588	0	
0.3980	-7.07096	-4.67814	0	
0.3987	-7.99326	-2.519	0	
0.3993	-8.60813	-1.0076	0	
0.4000	-6.14866	-0.719714	0	
0.4007	-4.6115	-1.65534	0	
0.4013	-6.14866	-1.94323	0	
0.4020	-5.84123	-1.94323	0	
0.4027	-1.5756	-3.45463	0	
0.4033	-0.653296	-3.16674	0	
0.4040	-2.4979	-2.23111	0	
0.4047	-0.960729	-3.45463	0	
0.4053	0.845441	-3.45463	0	
0.4060	1.46031	-1.65534	0	
0.4067	2.99747	-1.65534	0	
0.4073	2.69004	-1.36746	0	
0.4080	1.15287	-1.36746	0	
0.4087	2.99747	-3.45463	0	
0.4093	2.69004	-3.16674	0	
0.4100	-0.345862	-0.719714	0	
0.4107	2.69004	-1.0076	0	
0.4113	6.95568	-1.0076	0	
0.4120	4.84207	0.791685	0	
0.4127	2.07517	-1.94323	0	
0.4133	1.76774	-6.18954	0	
0.4140	0.269004	-4.39025	0	
0.4147	0.269004	-1.94323	0	
0.4153	2.07517	-3.74251	0	
0.4160	-0.960729	-4.67814	0	
0.4167	-4.03506	-2.23111	0	
0.4173	-2.4979	-1.36746	0	
0.4180	-4.34249	-2.23111	0	
0.4187	-8.3007	-2.519	0	
0.4193	-5.5338	-2.519	0	
0.4200	-1.88303	-4.67814	0	
0.4207	-3.42019	-6.54939	0	
0.4213	-2.80533	-4.67814	0	
0.4220	-1.26816	-1.36746	0	
0.4227	-3.42019	-0.431828	0	
0.4233	-1.26816	-1.36746	0	
0.4240	4.84207	-0.431828	0	
0.4247	4.22721	1.43943	0	
0.4253	0.269004	0.215914	0	
0.4260	0.576437	-0.431828	0	
0.4267	2.07517	0.791685	0	
0.4273	2.99747	-0.143943	0	
0.4280	5.76437	0.5038	0	
0.4287	6.95568	5.39785	0	
0.4293	5.76437	7.48502	0	
0.4300	5.14951	4.17434	0	
0.4307	4.84207	2.30308	0	
0.4313	3.61234	3.88645	0	
0.4320	1.15287	4.17434	0	
0.4327	-0.345862	3.88645	0	
0.4333	1.76774	2.95083	0	
0.4340	2.99747	1.43943	0	
0.4347	-0.653296	-0.431828	0	
0.4353	-3.11276	-1.94323	0	
0.4360	-4.03506	-3.45463	0	
0.4367	-5.5338	-4.39025	0	
0.4373	-3.72763	-4.10237	0	
0.4380	-0.653296	-4.10237	0	
0.4387	-3.42019	-4.96602	0	
0.4393	-6.14866	-5.90165	0	
0.4400	-2.4979	-5.61377	0	
0.4407	0.269004	-4.39025	0	
0.4413	-1.88303	-4.10237	0	
0.4420	-2.4979	-2.23111	0	
0.4427	-0.653296	1.72731	0	
0.4433	-0.653296	5.68574	0	
0.4440	-3.11276	5.68574	0	
0.4447	-3.42019	3.23871	0	
0.4453	-1.88303	4.75011	0	
0.4460	-1.5756	9.64416	0	
0.4467	-1.5756	11.1556	0	
0.4473	-0.653296	11.5154	0	
0.4480	1.15287	13.3147	0	
0.4487	2.99747	13.0268	0	
0.4493	4.84207	13.3147	0	
0.4500	4.84207	16.3375	0	
0.4507	3.61234	17.561	0	
0.4513	3.61234	17.9209	0	
0.4520	4.22721	11.5154	0	
0.4527	3.61234	-15.042	0	
0.4533	2.07517	-44.3344	0	
0.4540	2.07517	-43.7586	0	
0.4547	0.845441	-23.8945	0	
0.4553	-1.26816	-13.8185	0	
0.4560	-1.5756	-11.7313	0	
0.4567	-1.5756	-8.99642	0	
0.4573	-3.42019	-7.77291	0	
0.4580	-3.11276	-4.39025	0	
0.4587	-1.26816	-0.431828	0	
0.4593	-1.5756	-2.87885	0	
0.4600	-2.80533	-6.18954	0	
0.4607	-3.11276	-3.74251	0	
0.4613	-4.34249	-1.36746	0	
0.4620	-5.22637	-1.36746	0	
0.4627	-3.42019	-0.719714	0	
0.4633	-3.11276	0.791685	0	
0.4640	-3.42019	3.23871	0	
0.4647	-1.88303	5.10997	0	
0.4653	-0.653296	3.23871	0	
0.4660	-0.960729	0.791685	0	
0.4667	-0.653296	2.30308	0	
0.4673	-1.5756	2.30308	0	
0.4680	-3.11276	-4.67814	0	
0.4687	-1.5756	-10.5078	0	
0.4693	1.15287	-12.9548	0	
0.4700	1.76774	-14.4662	0	
0.4707	2.69004	-16.9133	0	
0.4713	2.99747	-19.0004	0	
0.4720	2.07517	-20.8717	0	
0.4727	0.576437	-23.3187	0	
0.4733	0.845441	-29.7242	0	
0.4740	3.91977	-36.7054	0	
0.4747	6.03338	-37.641	0	
0.4753	3.61234	-36.7054	0	
0.4760	0.269004	-37.0653	0	
0.4767	0.269004	-31.8833	0	
0.4773	-0.653296	-24.2543	0	
0.4780	-1.5756	-12.0192	0	
0.4787	0.576437	23.3907	0	
0.4793	1.15287	76.7934	0	
0.4800	-0.653296	106.734	0	
0.4807	-0.0384292	97.2333	0	
0.4813	1.15287	72.835	0	
0.4820	-0.653296	52.683	0	
0.4827	-3.11276	38.0009	0	
0.4833	-2.4979	30.7318	0	
0.4840	-0.345862	26.7733	0	
0.4847	0.269004	21.5194	0	
0.4853	-2.4979	17.9209	0	
0.4860	-3.11276	16.0496	0	
0.4867	1.15287	13.0268	0	
0.4873	3.30491	12.0912	0	
0.4880	2.07517	11.5154	0	
0.4887	2.99747	7.48502	0	
0.4893	4.22721	4.46222	0	
0.4900	2.69004	5.10997	0	
0.4907	1.76774	2.30308	0	
0.4913	2.07517	1.43943	0	
0.4920	2.07517	5.97362	0	
0.4927	1.46031	6.62137	0	
0.4933	1.15287	1.07957	0	
0.4940	1.15287	-0.431828	0	
0.4947	1.15287	1.07957	0	
0.4953	0.269004	0.5038	0	
0.4960	-1.88303	0.5038	0	
0.4967	-2.4979	3.23871	0	
0.4973	-1.26816	2.95083	0	
0.4980	-1.5756	0.5038	0	
0.4987	-2.80533	-1.0076	0	
0.4993	-2.4979	-0.719714	0	
0.5000	-1.88303	0.215914	0	
0.5007	-2.80533	0.5038	0	
0.5013	-4.34249	-2.519	0	
0.5020	-4.34249	-4.39025	0	
0.5027	-2.4979	-0.719714	0	
0.5033	0.269004	2.30308	0	
0.5040	-0.0384292	-1.94323	0	
0.5047	-2.4979	-5.32588	0	
0.5053	-1.26816	-2.87885	0	
0.5060	1.46031	-4.10237	0	
0.5067	1.15287	-11.0836	0	
0.5073	1.46031	-14.7541	0	
0.5080	2.99747	-15.042	0	
0.5087	-0.960729	-14.4662	0	
0.5093	-3.42019	-11.3715	0	
0.5100	0.845441	-8.63656	0	
0.5107	4.53464	-7.41305	0	
0.5113	3.30491	-5.90165	0	
0.5120	2.99747	-6.54939	0	
0.5127	4.84207	-7.77291	0	
0.5133	4.53464	-6.83728	0	
0.5140	3.30491	-5.61377	0	
0.5147	2.99747	-5.90165	0	
0.5153	2.99747	-4.39025	0	
0.5160	1.15287	-2.87885	0	
0.5167	0.269004	-2.519	0	
0.5173	0.845441	-2.23111	0	
0.5180	0.269004	-1.94323	0	
0.5187	-0.0384292	-3.16674	0	
0.5193	1.15287	-3.45463	0	
0.5200	0.269004	-2.87885	0	
0.5207	-3.42019	-2.23111	0	
0.5213	-3.11276	-3.16674	0	
0.5220	-0.960729	-3.16674	0	
0.5227	-0.0384292	-3.16674	0	
0.5233	2.38261	-5.61377	0	
0.5240	3.30491	-7.12517	0	
0.5247	0.845441	-8.06079	0	
0.5253	-0.0384292	-12.3071	0	
0.5260	1.46031	-16.9133	0	
0.5267	2.07517	-16.9133	0	
0.5273	1.76774	-18.4247	0	
0.5280	1.15287	-22.3831	0	
0.5287	0.269004	-21.8073	0	
0.5293	1.46031	-17.489	0	
0.5300	4.22721	-12.0192	0	
0.5307	3.91977	-6.83728	0	
0.5313	2.07517	-5.61377	0	
0.5320	3.30491	-5.61377	0	
0.5327	5.76437	-2.519	0	
0.5333	4.22721	-3.74251	0	
0.5340	0.269004	-8.99642	0	
0.5347	0.845441	-12.595	0	
0.5353	3.30491	-18.4247	0	
0.5360	0.576437	-28.5007	0	
0.5367	-2.4979	-35.8417	0	
0.5373	0.269004	-36.4175	0	
0.5380	1.76774	-25.118	0	
0.5387	-1.5756	6.90925	0	
0.5393	-3.72763	43.8306	0	
0.5400	-3.72763	58.8006	0	
0.5407	-3.11276	49.0125	0	
0.5413	-2.4979	32.5311	0	
0.5420	-3.42019	19.7202	0	
0.5427	-4.91893	13.0268	0	
0.5433	-1.5756	12.7389	0	
0.5440	1.76774	13.0268	0	
0.5447	-0.653296	11.5154	0	
0.5453	-3.72763	10.5798	0	
0.5460	-4.34249	8.13276	0	
0.5467	-4.34249	4.75011	0	
0.5473	-3.42019	3.5266	0	
0.5480	-2.4979	2.30308	0	
0.5487	-2.19046	0.5038	0	
0.5493	-1.26816	2.30308	0	
0.5500	-1.26816	3.88645	0	
0.5507	-2.19046	3.23871	0	
0.5513	0.269004	4.17434	0	
0.5520	2.07517	4.17434	0	
0.5527	-1.5756	1.72731	0	
0.5533	-2.80533	1.07957	0	
0.5540	1.15287	1.43943	0	
0.5547	0.576437	-1.65534	0	
0.5553	-2.4979	-3.16674	0	
0.5560	-0.960729	-0.431828	0	
0.5567	-0.653296	0.791685	0	
0.5573	-3.11276	-0.431828	0	
0.5580	-2.4979	-0.143943	0	
0.5587	-2.19046	0.215914	0	
0.5593	-4.03506	-1.0076	0	
0.5600	-1.5756	-0.431828	0	
0.5607	1.76774	1.43943	0	
0.5613	-0.0384292	-0.143943	0	
0.5620	-1.88303	-2.23111	0	
0.5627	-0.0384292	-2.23111	0	
0.5633	0.269004	-2.23111	0	
0.5640	-1.88303	-4.67814	0	
0.5647	-1.88303	-5.90165	0	
0.5653	-0.653296	-4.67814	0	
0.5660	0.576437	-3.45463	0	
0.5667	1.15287	-3.16674	0	
0.5673	1.76774	-3.16674	0	
0.5680	2.99747	-4.10237	0	
0.5687	3.61234	-4.39025	0	
0.5693	2.99747	-1.36746	0	
0.5700	3.30491	0.5038	0	
0.5707	2.69004	-4.39025	0	
0.5713	0.576437	-8.06079	0	
0.5720	1.15287	-6.18954	0	
0.5727	2.99747	-4.10237	0	
0.5733	2.69004	-4.10237	0	
0.5740	0.845441	-6.54939	0	
0.5747	-1.26816	-10.7957	0	
0.5753	-3.11276	-12.595	0	
0.5760	-3.42019	-14.7541	0	
0.5767	-4.03506	-20.5838	0	
0.5773	-4.34249	-24.2543	0	
0.5780	-1.5756	-28.5007	0	
0.5787	0.269004	-36.7054	0	
0.5793	-0.653296	-36.1296	0	
0.5800	-0.653296	-29.7242	0	
0.5807	-0.960729	-31.2356	0	
0.5813	-2.4979	-18.7126	0	
0.5820	-2.4979	25.5498	0	
0.5827	-1.88303	64.5583	0	
0.5833	-1.5756	68.2289	0	
0.5840	-0.0384292	53.2588	0	
0.5847	1.46031	38.0009	0	
0.5853	2.07517	24.9021	0	
0.5860	2.07517	18.2088	0	
0.5867	2.38261	16.9852	0	
0.5873	3.30491	15.4738	0	
0.5880	3.91977	13.3147	0	
0.5887	3.30491	12.0912	0	
0.5893	2.99747	10.8677	0	
0.5900	2.07517	8.70854	0	
0.5907	0.845441	6.26151	0	
0.5913	2.07517	6.62137	0	
0.5920	3.91977	6.90925	0	
0.5927	2.99747	4.17434	0	
0.5933	2.38261	2.30308	0	
0.5940	3.61234	3.88645	0	
0.5947	3.30491	5.97362	0	
0.5953	1.76774	7.84488	0	
0.5960	0.845441	9.06839	0	
0.5967	1.15287	5.10997	0	
0.5973	0.576437	-1.36746	0	
0.5980	-0.960729	-1.94323	0	
0.5987	-2.4979	0.5038	0	
0.5993	-2.4979	-1.36746	0	
0.6000	-3.42019	-2.519	0	
0.6007	-2.80533	-1.0076	0	
0.6013	-1.26816	-2.23111	0	
0.6020	-2.19046	-5.90165	0	
0.6027	-3.42019	-7.12517	0	
0.6033	-2.19046	-7.77291	0	
0.6040	-1.26816	-7.77291	0	
0.6047	-1.88303	-4.39025	0	
0.6053	-1.26816	-1.65534	0	
0.6060	-0.0384292	-3.16674	0	
0.6067	-0.345862	-4.10237	0	
0.6073	-0.653296	-2.87885	0	
0.6080	1.46031	-1.65534	0	
0.6087	2.99747	-1.0076	0	
0.6093	0.845441	-0.431828	0	
0.6100	-1.26816	-1.94323	0	
0.6107	0.269004	-5.90165	0	
0.6113	0.269004	-8.63656	0	
0.6120	-0.960729	-8.99642	0	
0.6127	0.269004	-10.148	0	
0.6133	-0.345862	-12.595	0	
0.6140	-2.4979	-12.3071	0	
0.6147	-1.5756	-10.5078	0	
0.6153	0.269004	-11.3715	0	
0.6160	-0.653296	-12.3071	0	
0.6167	-2.4979	-10.148	0	
0.6173	-3.42019	-7.77291	0	
0.6180	-2.4979	-4.10237	0	
0.6187	-0.653296	1.43943	0	
0.6193	-1.26816	5.97362	0	
0.6200	-2.19046	9.06839	0	
0.6207	-1.88303	9.93205	0	
0.6213	-2.80533	6.90925	0	
0.6220	-1.5756	3.5266	0	
0.6227	1.15287	4.17434	0	
0.6233	-1.88303	2.95083	0	
0.6240	-4.91893	-1.94323	0	
0.6247	-0.960729	-2.23111	0	
0.6253	-0.345862	0.215914	0	
0.6260	-4.34249	-1.36746	0	
0.6267	-2.4979	-3.45463	0	
0.6273	1.76774	-2.23111	0	
0.6280	0.576437	-1.36746	0	
0.6287	0.576437	-2.519	0	
0.6293	2.99747	-1.94323	0	
0.6300	2.99747	-1.0076	0	
0.6307	2.38261	-3.74251	0	
0.6313	1.15287	-7.12517	0	
0.6320	-0.653296	-7.41305	0	
0.6327	-0.0384292	-6.83728	0	
0.6333	2.07517	-10.5078	0	
0.6340	1.15287	-15.042	0	
0.6347	0.269004	-16.2655	0	
0.6353	1.76774	-20.8717	0	
0.6360	0.269004	-30.0121	0	
0.6367	-3.42019	-33.6826	0	
0.6373	-2.80533	-30.6598	0	
0.6380	-0.653296	-22.671	0	
0.6387	-1.5756	4.46222	0	
0.6393	-3.11276	43.8306	0	
0.6400	-3.72763	58.1529	0	
0.6407	-3.72763	42.3192	0	
0.6413	-2.80533	25.5498	0	
0.6420	-3.11276	17.9209	0	
0.6427	-6.14866	10.8677	0	
0.6433	-7.99326	7.84488	0	
0.6440	-6.14866	8.42065	0	
0.6447	-2.80533	7.84488	0	
0.6453	-0.960729	6.62137	0	
0.6460	-0.653296	6.26151	0	
0.6467	-0.653296	5.68574	0	
0.6473	-1.26816	4.17434	0	
0.6480	-1.88303	2.30308	0	
0.6487	-0.345862	-0.143943	0	
0.6493	1.46031	-1.65534	0	
0.6500	1.15287	-2.23111	0	
0.6507	-0.653296	-0.719714	0	
0.6513	1.15287	0.5038	0	
0.6520	4.84207	-2.87885	0	
0.6527	3.30491	-5.61377	0	
0.6533	-1.26816	-3.45463	0	
0.6540	-2.4979	-3.74251	0	
0.6547	-1.26816	-6.18954	0	
0.6553	-1.26816	-3.16674	0	
0.6560	-1.5756	1.43943	0	
0.6567	-0.0384292	2.30308	0	
0.6573	-0.0384292	9.06839	0	
0.6580	-2.80533	16.3375	0	
0.6587	-4.34249	11.1556	0	
0.6593	-2.80533	2.66294	0	
0.6600	-2.4979	2.0152	0	
0.6607	-3.42019	2.0152	0	
0.6613	-2.4979	-0.431828	0	
0.6620	-0.0384292	0.5038	0	
0.6627	-0.0384292	0.5038	0	
0.6633	-3.11276	-2.23111	0	
0.6640	-4.34249	-3.16674	0	
0.6647	-2.19046	-2.23111	0	
0.6653	-0.653296	-1.94323	0	
0.6660	-0.345862	-1.36746	0	
0.6667	1.46031	-3.45463	0	
0.6673	2.07517	-7.41305	0	
0.6680	1.15287	-6.83728	0	
0.6687	2.38261	-5.61377	0	
0.6693	4.22721	-9.57219	0	
0.6700	3.61234	-12.595	0	
0.6707	2.69004	-14.1784	0	
0.6713	3.30491	-16.2655	0	
0.6720	2.99747	-16.9133	0	
0.6727	1.46031	-19.9361	0	
0.6733	1.15287	-27.565	0	
0.6740	0.269004	-30.9477	0	
0.6747	-0.653296	-31.5235	0	
0.6753	0.845441	-33.6826	0	
0.6760	0.269004	-35.8417	0	
0.6767	-4.34249	-39.1524	0	
0.6773	-6.14866	-33.6826	0	
0.6780	-4.03506	2.30308	0	
0.6787	-4.34249	49.9481	0	
0.6793	-5.22637	67.6531	0	
0.6800	-2.4979	59.0885	0	
0.6807	-1.5756	44.7662	0	
0.6813	-2.19046	30.7318	0	
0.6820	-0.345862	24.3263	0	
0.6827	0.269004	24.3263	0	
0.6833	-2.4979	22.1672	0	
0.6840	-3.72763	21.5194	0	
0.6847	-0.960729	23.9665	0	
0.6853	1.15287	21.8793	0	
0.6860	0.269004	18.7845	0	
0.6867	0.269004	16.0496	0	
0.6873	2.07517	10.2919	0	
0.6880	1.76774	6.90925	0	
0.6887	0.576437	7.19714	0	
0.6893	2.99747	4.46222	0	
0.6900	4.84207	1.43943	0	
0.6907	2.69004	1.07957	0	
0.6913	2.07517	-1.94323	0	
0.6920	1.76774	-4.96602	0	
0.6927	-0.653296	-4.96602	0	
0.6933	0.845441	-5.90165	0	
0.6940	4.84207	-5.90165	0	
0.6947	4.84207	-3.16674	0	
0.6953	2.07517	-0.719714	0	
0.6960	0.269004	-0.719714	0	
0.6967	-1.26816	-1.36746	0	
0.6973	-0.653296	-0.431828	0	
0.6980	-0.0384292	2.66294	0	
0.6987	-1.88303	2.0152	0	
0.6993	-2.4979	-2.519	0	
0.7000	-1.5756	-3.16674	0	
0.7007	-2.4979	-1.0076	0	
0.7013	-2.19046	-2.23111	0	
0.7020	0.845441	-3.16674	0	
0.7027	2.99747	-0.431828	0	
0.7033	2.99747	-0.431828	0	
0.7040	1.15287	-3.16674	0	
0.7047	-1.88303	-5.32588	0	
0.7053	-1.5756	-7.77291	0	
0.7060	-0.0384292	-8.34868	0	
0.7067	-0.960729	-7.41305	0	
0.7073	0.845441	-9.57219	0	
0.7080	4.53464	-10.5078	0	
0.7087	2.07517	-6.83728	0	
0.7093	0.269004	-4.67814	0	
0.7100	2.69004	-5.90165	0	
0.7107	2.07517	-5.32588	0	
0.7113	-0.653296	-4.39025	0	
0.7120	0.576437	-5.90165	0	
0.7127	1.46031	-6.83728	0	
0.7133	0.576437	-6.18954	0	
0.7140	2.07517	-5.32588	0	
0.7147	2.69004	-4.67814	0	
0.7153	-0.0384292	-4.10237	0	
0.7160	-1.5756	-4.96602	0	
0.7167	0.269004	-6.18954	0	
0.7173	1.46031	-4.10237	0	
0.7180	0.269004	-2.519	0	
0.7187	-1.88303	-6.83728	0	
0.7193	-1.88303	-9.57219	0	
0.7200	-0.653296	-5.90165	0	
0.7207	-0.345862	-4.39025	0	
0.7213	0.269004	-7.12517	0	
0.7220	-0.653296	-6.18954	0	
0.7227	-3.72763	-2.87885	0	
0.7233	-3.42019	-3.16674	0	
0.7240	-0.653296	-6.83728	0	
0.7247	0.576437	-6.83728	0	
0.7253	1.15287	-2.87885	0	
0.7260	0.845441	-0.431828	0	
0.7267	-1.88303	-1.0076	0	
0.7273	-0.653296	-1.65534	0	
0.7280	3.30491	-4.10237	0	
0.7287	0.845441	-6.83728	0	
0.7293	-2.4979	-4.96602	0	
0.7300	1.15287	-2.23111	0	
0.7307	2.69004	-3.16674	0	
0.7313	0.269004	-3.16674	0	
0.7320	-0.345862	-0.719714	0	
0.7327	0.269004	-1.94323	0	
0.7333	0.269004	-3.16674	0	
0.7340	2.07517	-1.65534	0	
0.7347	3.91977	-0.719714	0	
0.7353	2.07517	-0.431828	0	
0.7360	-1.26816	0.215914	0	
0.7367	-3.11276	-1.36746	0	
0.7373	-2.80533	-1.36746	0	
0.7380	-2.19046	1.72731	0	
0.7387	-0.960729	1.43943	0	
0.7393	0.576437	-1.0076	0	
0.7400	0.269004	-0.143943	0	
0.7407	-1.5756	3.88645	0	
0.7413	-2.80533	4.75011	0	
0.7420	-2.19046	2.95083	0	
0.7427	1.15287	2.30308	0	
0.7433	2.38261	3.88645	0	
0.7440	1.15287	2.30308	0	
0.7447	1.15287	-2.519	0	
0.7453	2.69004	-5.61377	0	
0.7460	2.38261	-4.96602	0	
0.7467	3.61234	-3.74251	0	
0.7473	4.22721	-5.32588	0	
0.7480	1.46031	-9.86008	0	
0.7487	0.269004	-13.2427	0	
0.7493	2.38261	-14.1784	0	
0.7500	3.91977	-15.9776	0	
0.7507	5.14951	-23.3187	0	
0.7513	4.84207	-32.4591	0	
0.7520	0.845441	-35.8417	0	
0.7527	-1.5756	-35.4819	0	
0.7533	-0.653296	-35.194	0	
0.7540	0.269004	-21.8073	0	
0.7547	2.69004	17.9209	0	
0.7553	1.46031	61.8234	0	
0.7560	-2.80533	72.1873	0	
0.7567	-2.4979	52.683	0	
0.7573	-1.5756	31.5954	0	
0.7580	-4.34249	19.7202	0	
0.7587	-4.03506	13.8905	0	
0.7593	-2.19046	13.0268	0	
0.7600	-4.91893	15.114	0	
0.7607	-5.5338	18.2088	0	
0.7613	-3.42019	20.008	0	
0.7620	-4.34249	18.7845	0	
0.7627	-5.84123	16.6974	0	
0.7633	-5.22637	16.0496	0	
0.7640	-4.34249	13.6026	0	
0.7647	-0.960729	8.70854	0	
0.7653	1.15287	6.62137	0	
0.7660	1.15287	5.97362	0	
0.7667	2.38261	4.46222	0	
0.7673	4.22721	5.10997	0	
0.7680	2.69004	4.17434	0	
0.7687	1.15287	0.5038	0	
0.7693	2.07517	0.5038	0	
0.7700	3.61234	2.0152	0	
0.7707	3.91977	-2.519	0	
0.7713	2.69004	-4.96602	0	
0.7720	0.576437	-2.23111	0	
0.7727	0.845441	-4.10237	0	
0.7733	2.69004	-6.18954	0	
0.7740	2.07517	-2.87885	0	
0.7747	-0.345862	-1.0076	0	
0.7753	-0.653296	-1.94323	0	
0.7760	0.269004	-1.36746	0	
0.7767	-0.345862	-1.0076	0	
0.7773	-1.26816	-0.431828	0	
0.7780	0.269004	1.72731	0	
0.7787	1.15287	3.23871	0	
0.7793	-0.653296	5.39785	0	
0.7800	-3.72763	9.06839	0	
0.7807	-4.91893	8.70854	0	
0.7813	-3.42019	5.39785	0	
0.7820	-2.4979	3.23871	0	
0.7827	-2.80533	2.30308	0	
0.7833	-0.345862	3.23871	0	
0.7840	3.91977	4.46222	0	
0.7847	3.91977	0.5038	0	
0.7853	2.69004	-2.519	0	
0.7860	4.53464	-0.431828	0	
0.7867	4.84207	0.5038	0	
0.7873	2.99747	-4.39025	0	
0.7880	2.99747	-9.86008	0	
0.7887	4.84207	-13.2427	0	
0.7893	4.53464	-13.8185	0	
0.7900	2.99747	-10.5078	0	
0.7907	3.91977	-8.06079	0	
0.7913	5.76437	-9.28431	0	
0.7920	1.76774	-9.57219	0	
0.7927	-1.5756	-10.5078	0	
0.7933	0.269004	-11.0836	0	
0.7940	2.07517	-8.34868	0	
0.7947	-0.960729	-8.34868	0	
0.7953	-3.11276	-15.042	0	
0.7960	-2.80533	-16.9133	0	
0.7967	-1.5756	-11.3715	0	
0.7973	-0.653296	-9.57219	0	
0.7980	-1.5756	-8.63656	0	
0.7987	-3.72763	-4.39025	0	
0.7993	-3.42019	-4.96602	0	
0.8000	-2.4979	-8.63656	0	
0.8007	-4.6115	-6.54939	0	
0.8013	-5.84123	-4.10237	0	
0.8020	-3.72763	-4.96602	0	
0.8027	-3.42019	-4.39025	0	
0.8033	-5.22637	-3.16674	0	
0.8040	-4.6115	-4.10237	0	
0.8047	-4.34249	-4.10237	0	
0.8053	-6.14866	-1.36746	0	
0.8060	-4.34249	0.215914	0	
0.8067	-1.5756	-0.719714	0	
0.8073	-3.11276	-1.36746	0	
0.8080	-1.5756	-0.719714	0	
0.8087	3.61234	-1.36746	0	
0.8093	1.15287	-2.87885	0	
0.8100	-3.11276	-1.65534	0	
0.8107	0.269004	-0.143943	0	
0.8113	3.91977	-1.36746	0	
0.8120	2.07517	-1.0076	0	
0.8127	-0.0384292	0.5038	0	
0.8133	-1.26816	1.07957	0	
0.8140	-1.5756	1.43943	0	
0.8147	0.576437	2.95083	0	
0.8153	2.07517	3.5266	0	
0.8160	0.269004	2.30308	0	
0.8167	-1.88303	1.07957	0	
0.8173	-2.80533	-0.431828	0	
0.8180	-3.42019	-1.0076	0	
0.8187	-4.34249	0.215914	0	
0.8193	-4.34249	1.43943	0	
0.8200	-3.42019	0.791685	0	
0.8207	-3.42019	0.791685	0	
0.8213	-1.26816	2.95083	0	
0.8220	1.76774	4.17434	0	
0.8227	-1.26816	2.30308	0	
0.8233	-5.5338	1.72731	0	
0.8240	-2.4979	3.23871	0	
0.8247	0.576437	3.23871	0	
0.8253	-2.19046	3.23871	0	
0.8260	-2.19046	3.23871	0	
0.8267	1.76774	2.0152	0	
0.8273	2.69004	2.95083	0	
0.8280	2.38261	5.10997	0	
0.8287	2.07517	3.88645	0	
0.8293	0.269004	1.72731	0	
0.8300	1.15287	1.07957	0	
0.8307	3.30491	0.5038	0	
0.8313	2.07517	1.07957	0	
0.8320	2.07517	1.43943	0	
0.8327	4.84207	-0.431828	0	
0.8333	2.99747	-0.431828	0	
0.8340	0.269004	2.0152	0	
0.8347	0.269004	1.43943	0	
0.8353	0.269004	0.215914	0	
0.8360	-0.345862	1.43943	0	
0.8367	0.269004	1.72731	0	
0.8373	-0.345862	1.07957	0	
0.8380	-0.0384292	0.5038	0	
0.8387	0.845441	-0.719714	0	
0.8393	-0.653296	-1.0076	0	
0.8400	-1.88303	1.07957	0	
0.8407	0.269004	4.17434	0	
0.8413	-0.345862	5.10997	0	
0.8420	-1.88303	2.66294	0	
0.8427	-0.960729	0.215914	0	
0.8433	-1.88303	0.215914	0	
0.8440	-4.03506	1.43943	0	
0.8447	-2.4979	2.0152	0	
0.8453	-0.653296	2.30308	0	
0.8460	-1.5756	0.5038	0	
0.8467	0.269004	-3.16674	0	
0.8473	2.38261	-5.32588	0	
0.8480	0.845441	-6.54939	0	
0.8487	0.269004	-7.77291	0	
0.8493	2.69004	-5.61377	0	
0.8500	3.61234	-2.519	0	
0.8507	2.99747	-3.16674	0	
0.8513	4.53464	-4.10237	0	
0.8520	4.84207	-2.23111	0	
0.8527	3.61234	-1.65534	0	
0.8533	2.99747	-0.719714	0	
0.8540	3.30491	2.66294	0	
0.8547	1.76774	5.10997	0	
0.8553	-0.345862	5.39785	0	
0.8560	0.269004	7.48502	0	
0.8567	2.07517	9.35628	0	
0.8573	1.46031	8.13276	0	
0.8580	-0.960729	6.90925	0	
0.8587	-1.88303	5.39785	0	
0.8593	-2.4979	2.0152	0	
0.8600	-3.72763	0.5038	0	
0.8607	-2.4979	3.23871	0	
0.8613	-0.653296	3.23871	0	
0.8620	-3.42019	-1.0076	0	
0.8627	-6.14866	-1.36746	0	
0.8633	-5.22637	2.30308	0	
0.8640	-3.72763	2.30308	0	
0.8647	-1.5756	0.215914	0	
0.8653	1.15287	-0.431828	0	
0.8660	-0.0384292	-1.65534	0	
0.8667	-2.19046	-3.16674	0	
0.8673	-1.26816	-2.23111	0	
0.8680	0.269004	-1.36746	0	
0.8687	0.269004	-1.65534	0	
0.8693	0.845441	-1.94323	0	
0.8700	1.46031	-3.45463	0	
0.8707	2.38261	-4.96602	0	
0.8713	2.99747	-3.16674	0	
0.8720	1.76774	-0.431828	0	
0.8727	0.269004	-1.36746	0	
0.8733	0.576437	-2.519	0	
0.8740	0.845441	-1.94323	0	
0.8747	0.269004	-2.23111	0	
0.8753	-1.5756	-1.94323	0	
0.8760	-4.03506	-0.431828	0	
0.8767	-4.34249	-1.94323	0	
0.8773	-2.4979	-2.23111	0	
0.8780	-1.88303	2.66294	0	
0.8787	-2.4979	3.23871	0	
0.8793	-1.5756	-1.0076	0	
0.8800	-1.5756	-1.36746	0	
0.8807	-2.4979	-0.431828	0	
0.8813	-1.5756	-1.65534	0	
0.8820	-1.5756	1.07957	0	
0.8827	-2.4979	5.10997	0	
0.8833	-0.653296	3.88645	0	
0.8840	1.46031	2.95083	0	
0.8847	0.269004	4.17434	0	
0.8853	-1.5756	2.95083	0	
0.8860	-0.960729	1.72731	0	
0.8867	2.07517	4.17434	0	
0.8873	4.22721	5.68574	0	
0.8880	3.91977	5.10997	0	
0.8887	1.15287	2.66294	0	
0.8893	-0.653296	-0.431828	0	
0.8900	-0.960729	-0.143943	0	
0.8907	-0.653296	0.5038	0	
0.8913	-0.0384292	-3.45463	0	
0.8920	-0.653296	-5.61377	0	
0.8927	-1.26816	-3.74251	0	
0.8933	0.269004	-4.10237	0	
0.8940	1.15287	-4.39025	0	
0.8947	0.576437	-1.36746	0	
0.8953	0.576437	-0.719714	0	
0.8960	-0.345862	-4.10237	0	
0.8967	-2.4979	-3.45463	0	
0.8973	-4.34249	-1.36746	0	
0.8980	-4.6115	-1.94323	0	
0.8987	-3.42019	-3.16674	0	
0.8993	-0.960729	-2.23111	0	
0.9000	-1.5756	0.5038	0	
0.9007	-3.72763	1.43943	0	
0.9013	-3.11276	1.72731	0	
0.9020	-1.5756	2.30308	0	
0.9027	-1.26816	1.07957	0	
0.9033	-0.653296	-3.16674	0	
0.9040	-0.345862	-3.16674	0	
0.9047	-1.26816	0.215914	0	
0.9053	-0.345862	-1.36746	0	
0.9060	1.46031	-4.67814	0	
0.9067	1.46031	-3.16674	0	
0.9073	1.15287	-1.36746	0	
0.9080	0.269004	-2.23111	0	
0.9087	0.269004	-3.74251	0	
0.9093	2.99747	-3.74251	0	
0.9100	3.61234	-1.65534	0	
0.9107	0.269004	-0.431828	0	
0.9113	-0.0384292	-0.431828	0	
0.9120	1.76774	1.07957	0	
0.9127	1.15287	1.07957	0	
0.9133	0.269004	-3.74251	0	
0.9140	0.269004	-8.63656	0	
0.9147	-0.653296	-10.148	0	
0.9153	-1.5756	-11.3715	0	
0.9160	-2.19046	-13.2427	0	
0.9167	-2.80533	-12.595	0	
0.9173	-2.80533	-12.3071	0	
0.9180	-3.11276	-12.9548	0	
0.9187	-3.42019	-13.5306	0	
0.9193	-2.80533	-12.0192	0	
0.9200	-3.11276	-8.63656	0	
0.9207	-4.34249	-5.61377	0	
0.9213	-4.6115	-2.23111	0	
0.9220	-5.22637	1.72731	0	
0.9227	-4.6115	5.39785	0	
0.9233	-1.5756	11.8033	0	
0.9240	0.269004	22.4551	0	
0.9247	0.269004	26.4135	0	
0.9253	0.269004	19.4323	0	
0.9260	0.269004	11.5154	0	
0.9267	1.15287	9.64416	0	
0.9273	4.53464	7.84488	0	
0.9280	4.22721	5.68574	0	
0.9287	2.07517	5.68574	0	
0.9293	3.30491	5.10997	0	
0.9300	2.69004	2.66294	0	
0.9307	0.269004	1.72731	0	
0.9313	2.07517	3.5266	0	
0.9320	4.53464	4.75011	0	
0.9327	2.99747	3.5266	0	
0.9333	2.69004	1.43943	0	
0.9340	2.99747	-1.65534	0	
0.9347	1.76774	-3.45463	0	
0.9353	0.269004	-1.36746	0	
0.9360	-0.653296	-0.431828	0	
0.9367	0.269004	-1.94323	0	
0.9373	2.38261	-1.0076	0	
0.9380	1.46031	0.5038	0	
0.9387	-2.4979	-1.36746	0	
0.9393	-4.03506	-1.65534	0	
0.9400	-3.72763	1.43943	0	
0.9407	-3.72763	2.66294	0	
0.9413	-2.4979	2.0152	0	
0.9420	-2.4979	0.791685	0	
0.9427	-3.42019	-1.36746	0	
0.9433	-2.4979	-2.23111	0	
0.9440	-1.26816	-0.431828	0	
0.9447	-0.653296	0.5038	0	
0.9453	1.15287	-1.36746	0	
0.9460	1.15287	-1.94323	0	
0.9467	-0.345862	-0.431828	0	
0.9473	1.46031	0.215914	0	
0.9480	1.46031	-1.0076	0	
0.9487	-1.5756	-3.16674	0	
0.9493	0.269004	-4.10237	0	
0.9500	3.30491	-1.65534	0	
0.9507	0.845441	-0.431828	0	
0.9513	0.269004	-4.10237	0	
0.9520	2.07517	-5.61377	0	
0.9527	0.269004	-2.23111	0	
0.9533	-1.5756	-1.65534	0	
0.9540	-0.653296	-4.39025	0	
0.9547	-1.26816	-3.74251	0	
0.9553	-2.4979	-1.94323	0	
0.9560	-1.5756	-2.23111	0	
0.9567	-0.0384292	-1.36746	0	
0.9573	-1.26816	1.72731	0	
0.9580	-3.42019	3.23871	0	
0.9587	-4.03506	3.88645	0	
0.9593	-3.42019	5.10997	0	
0.9600	-4.03506	2.66294	0	
0.9607	-4.03506	-1.94323	0	
0.9613	-3.11276	-2.87885	0	
0.9620	-3.42019	-2.23111	0	
0.9627	-2.80533	-4.39025	0	
0.9633	-0.653296	-6.54939	0	
0.9640	-0.653296	-4.67814	0	
0.9647	-2.4979	-1.65534	0	
0.9653	-1.88303	-1.94323	0	
0.9660	-0.0384292	-4.67814	0	
0.9667	0.576437	-3.16674	0	
0.9673	2.07517	0.791685	0	
0.9680	3.91977	1.07957	0	
0.9687	3.61234	-1.36746	0	
0.9693	1.46031	-1.65534	0	
0.9700	-0.0384292	-2.23111	0	
0.9707	0.576437	-3.16674	0	
0.9713	2.07517	-2.519	0	
0.9720	2.99747	-2.23111	0	
0.9727	2.99747	-3.16674	0	
0.9733	3.30491	-2.87885	0	
0.9740	2.69004	-2.23111	0	
0.9747	1.15287	-2.519	0	
0.9753	0.576437	-2.87885	0	
0.9760	0.845441	-1.94323	0	
0.9767	-0.345862	-0.143943	0	
0.9773	-1.88303	0.791685	0	
0.9780	-1.5756	0.791685	0	
0.9787	-0.960729	1.72731	0	
0.9793	-0.960729	2.66294	0	
0.9800	-1.26816	2.30308	0	
0.9807	-1.26816	2.30308	0	
0.9813	-0.345862	2.95083	0	
0.9820	1.15287	3.5266	0	
0.9827	-0.0384292	5.39785	0	
0.9833	-1.5756	5.10997	0	
0.9840	1.15287	2.30308	0	
0.9847	2.69004	0.791685	0	
0.9853	0.845441	0.5038	0	
0.9860	3.30491	-0.719714	0	
0.9867	5.76437	-2.23111	0	
0.9873	2.99747	-1.94323	0	
0.9880	2.07517	-0.719714	0	
0.9887	4.84207	-1.65534	0	
0.9893	4.22721	-5.61377	0	
0.9900	1.76774	-7.12517	0	
0.9907	2.38261	-5.90165	0	
0.9913	2.99747	-7.77291	0	
0.9920	2.38261	-9.57219	0	
0.9927	2.99747	-7.12517	0	
0.9933	3.30491	-5.90165	0	
0.9940	0.845441	-8.06079	0	
0.9947	-1.26816	-7.77291	0	
0.9953	-2.19046	-6.54939	0	
0.9960	-4.03506	-5.32588	0	
0.9967	-5.5338	-2.23111	0	
0.9973	-6.4561	0.791685	0	
0.9980	-7.68583	2.95083	0	
0.9987	-7.99326	5.10997	0	
0.9993	-6.76353	8.70854	0	
1.0000	-4.34249	12.7389	0	
1.0007	-2.80533	13.3147	0	
1.0013	-3.42019	10.5798	0	
1.0020	-4.6115	8.13276	0	
1.0027	-3.42019	6.90925	0	
1.0033	-1.5756	5.10997	0	
1.0040	-2.4979	4.46222	0	
1.0047	-2.4979	7.19714	0	
1.0053	0.269004	9.64416	0	
1.0060	-1.88303	8.70854	0	
1.0067	-4.03506	6.90925	0	
1.0073	0.269004	7.19714	0	
1.0080	2.69004	7.19714	0	
1.0087	1.46031	3.88645	0	
1.0093	2.99747	2.30308	0	
1.0100	5.45694	4.17434	0	
1.0107	4.84207	2.66294	0	
1.0113	4.84207	-3.16674	0	
1.0120	3.30491	-4.39025	0	
1.0127	-0.0384292	-1.94323	0	
1.0133	-0.653296	-2.519	0	
1.0140	-0.345862	-5.90165	0	
1.0147	-1.26816	-5.32588	0	
1.0153	1.15287	-1.94323	0	
1.0160	2.07517	-2.23111	0	
1.0167	-2.80533	-5.32588	0	
1.0173	-2.4979	-6.83728	0	
1.0180	1.46031	-7.12517	0	
1.0187	-0.960729	-6.83728	0	
1.0193	-4.6115	-4.39025	0	
1.0200	-3.11276	-2.519	0	
1.0207	-3.11276	-3.74251	0	
1.0213	-4.34249	-5.90165	0	
1.0220	-3.72763	-7.41305	0	
1.0227	-3.42019	-4.67814	0	
1.0233	-2.19046	-1.0076	0	
1.0240	0.269004	-1.36746	0	
1.0247	-0.653296	-2.87885	0	
1.0253	-1.88303	-1.0076	0	
1.0260	-0.960729	0.215914	0	
1.0267	-0.653296	-1.65534	0	
1.0273	1.15287	-2.23111	0	
1.0280	4.22721	-1.65534	0	
1.0287	6.03338	-1.36746	0	
1.0293	6.64824	-1.36746	0	
1.0300	4.53464	-0.431828	0	
1.0307	2.07517	1.07957	0	
1.0313	1.15287	2.30308	0	
1.0320	-0.0384292	1.72731	0	
1.0327	-0.960729	-1.0076	0	
1.0333	1.15287	-2.519	0	
1.0340	1.76774	-0.719714	0	
1.0347	0.269004	3.5266	0	
1.0353	1.15287	4.17434	0	
1.0360	0.269004	-0.719714	0	
1.0367	-3.11276	-2.87885	0	
1.0373	-3.42019	-0.719714	0	
1.0380	-1.5756	-0.431828	0	
1.0387	-2.4979	-0.143943	0	
1.0393	-2.4979	2.95083	0	
1.0400	-0.653296	4.17434	0	
1.0407	1.15287	1.72731	0	
1.0413	0.576437	0.215914	0	
1.0420	-0.653296	-1.0076	0	
1.0427	-0.653296	-0.431828	0	
1.0433	-1.5756	1.72731	0	
1.0440	-2.4979	1.43943	0	
1.0447	-1.26816	-1.36746	0	
1.0453	0.845441	1.43943	0	
1.0460	2.07517	6.90925	0	
1.0467	2.07517	5.97362	0	
1.0473	0.269004	1.43943	0	
1.0480	-0.345862	0.5038	0	
1.0487	2.99747	0.791685	0	
1.0493	4.22721	-0.143943	0	
1.0500	0.845441	1.07957	0	
1.0507	1.76774	2.95083	0	
1.0513	5.45694	2.66294	0	
1.0520	2.38261	0.215914	0	
1.0527	-2.19046	-1.94323	0	
1.0533	-1.88303	-0.431828	0	
1.0540	0.269004	2.0152	0	
1.0547	0.269004	0.791685	0	
1.0553	-1.88303	-1.0076	0	
1.0560	-1.5756	1.07957	0	
1.0567	2.69004	1.72731	0	
1.0573	1.46031	-0.431828	0	
1.0580	-4.34249	-0.719714	0	
1.0587	-4.03506	-0.431828	0	
1.0593	-1.5756	-1.36746	0	
1.0600	-4.03506	-0.143943	0	
1.0607	-4.03506	0.791685	0	
1.0613	-2.19046	-2.23111	0	
1.0620	-5.22637	-6.54939	0	
1.0627	-4.6115	-8.63656	0	
1.0633	-0.960729	-8.34868	0	
1.0640	-2.4979	-6.18954	0	
1.0647	-2.80533	-6.18954	0	
1.0653	1.15287	-7.77291	0	
1.0660	0.269004	-7.41305	0	
1.0667	-0.960729	-4.96602	0	
1.0673	0.576437	-1.36746	0	
1.0680	-1.88303	0.5038	0	
1.0687	-3.11276	-0.719714	0	
1.0693	1.15287	1.43943	0	
1.0700	2.38261	7.84488	0	
1.0707	1.15287	10.8677	0	
1.0713	2.99747	10.5798	0	
1.0720	3.91977	10.5798	0	
1.0727	2.69004	6.26151	0	
1.0733	2.07517	0.5038	0	
1.0740	-0.960729	1.07957	0	
1.0747	-4.34249	3.5266	0	
1.0753	-2.4979	1.43943	0	
1.0760	-0.345862	-1.65534	0	
1.0767	-1.26816	-0.431828	0	
1.0773	-1.5756	2.0152	0	
1.0780	-0.653296	3.5266	0	
1.0787	-2.4979	5.10997	0	
1.0793	-5.22637	2.66294	0	
1.0800	-4.91893	-0.143943	0	
1.0807	-3.42019	0.5038	0	
1.0813	-3.42019	1.07957	0	
1.0820	-4.6115	-0.431828	0	
1.0827	-4.34249	0.215914	0	
1.0833	-2.4979	-0.431828	0	
1.0840	-1.5756	-2.87885	0	
1.0847	-2.19046	-1.0076	0	
1.0853	-1.88303	1.43943	0	
1.0860	-0.0384292	-0.431828	0	
1.0867	0.576437	-0.719714	0	
1.0873	1.46031	-0.431828	0	
1.0880	2.99747	-0.719714	0	
1.0887	2.99747	0.791685	0	
1.0893	2.07517	-0.143943	0	
1.0900	2.07517	-2.87885	0	
1.0907	2.99747	-1.94323	0	
1.0913	5.76437	-1.65534	0	
1.0920	6.95568	-4.39025	0	
1.0927	2.07517	-3.16674	0	
1.0933	-0.0384292	-0.431828	0	
1.0940	4.22721	-1.94323	0	
1.0947	3.91977	-4.10237	0	
1.0953	0.576437	-3.74251	0	
1.0960	0.845441	-1.36746	0	
1.0967	-1.5756	0.5038	0	
1.0973	-3.42019	-0.143943	0	
1.0980	0.269004	-1.36746	0	
1.0987	0.845441	0.215914	0	
1.0993	-2.4979	1.43943	0	
1.1000	-1.5756	1.43943	0	
1.1007	0.269004	1.72731	0	
1.1013	-2.4979	1.43943	0	
1.1020	-2.4979	0.5038	0	
1.1027	0.576437	-1.0076	0	
1.1033	1.76774	-1.65534	0	
1.1040	1.46031	-1.65534	0	
1.1047	2.07517	-1.36746	0	
1.1053	1.46031	-1.0076	0	
1.1060	0.269004	-0.431828	0	
1.1067	0.576437	-0.431828	0	
1.1073	3.30491	-0.143943	0	
1.1080	4.53464	-0.719714	0	
1.1087	2.38261	-3.45463	0	
1.1093	2.69004	-4.10237	0	
1.1100	4.84207	-2.519	0	
1.1107	3.91977	-3.74251	0	
1.1113	1.15287	-4.96602	0	
1.1120	0.269004	-2.23111	0	
1.1127	1.46031	-0.143943	0	
1.1133	2.99747	0.215914	0	
1.1140	2.07517	-0.431828	0	
1.1147	-0.653296	-1.94323	0	
1.1153	-1.5756	-1.65534	0	
1.1160	-2.80533	0.791685	0	
1.1167	-5.22637	1.43943	0	
1.1173	-7.07096	0.5038	0	
1.1180	-6.14866	0.5038	0	
1.1187	-3.42019	-0.431828	0	
1.1193	-0.960729	-2.23111	0	
1.1200	-2.4979	-3.45463	0	
1.1207	-4.6115	-4.67814	0	
1.1213	-4.03506	-4.10237	0	
1.1220	-3.42019	-3.16674	0	
1.1227	-4.03506	-4.10237	0	
1.1233	-2.4979	-3.74251	0	
1.1240	-0.653296	-0.719714	0	
1.1247	0.845441	0.5038	0	
1.1253	2.99747	-1.36746	0	
1.1260	3.30491	-2.519	0	
1.1267	2.99747	1.07957	0	
1.1273	3.91977	4.17434	0	
1.1280	3.61234	0.5038	0	
1.1287	2.99747	-2.87885	0	
1.1293	5.14951	-0.431828	0	
1.1300	4.53464	1.43943	0	
1.1307	1.15287	0.5038	0	
1.1313	1.46031	0.791685	0	
1.1320	3.61234	-1.0076	0	
1.1327	2.38261	-1.65534	0	
1.1333	1.46031	1.72731	0	
1.1340	1.76774	2.30308	0	
1.1347	0.576437	-0.431828	0	
1.1353	-0.653296	0.215914	0	
1.1360	-2.4979	0.791685	0	
1.1367	-5.22637	-1.36746	0	
1.1373	-6.4561	-2.519	0	
1.1380	-5.5338	-1.94323	0	
1.1387	-5.84123	-2.23111	0	
1.1393	-7.3784	-2.23111	0	
1.1400	-7.68583	-2.23111	0	
1.1407	-6.14866	-3.45463	0	
1.1413	-4.03506	-5.90165	0	
1.1420	-4.03506	-5.61377	0	
1.1427	-4.34249	-3.16674	0	
1.1433	-3.11276	-4.39025	0	
1.1440	-1.5756	-4.67814	0	
1.1447	-0.960729	0.215914	0	
1.1453	0.269004	2.0152	0	
1.1460	1.15287	-2.23111	0	
1.1467	1.46031	-4.10237	0	
1.1473	2.07517	-1.65534	0	
1.1480	2.07517	0.215914	0	
1.1487	2.07517	1.43943	0	
1.1493	4.84207	0.5038	0	
1.1500	5.76437	-2.23111	0	
1.1507	4.53464	-0.719714	0	
1.1513	5.14951	-0.143943	0	
1.1520	3.91977	-4.96602	0	
1.1527	-0.345862	-7.41305	0	
1.1533	-0.653296	-4.67814	0	
1.1540	1.15287	-3.45463	0	
1.1547	-0.0384292	-4.10237	0	
1.1553	-0.960729	-2.23111	0	
1.1560	0.576437	-0.431828	0	
1.1567	-0.653296	0.5038	0	
1.1573	-3.42019	3.5266	0	
1.1580	-2.19046	7.84488	0	
1.1587	-1.88303	9.93205	0	
1.1593	-5.22637	9.64416	0	
1.1600	-4.91893	8.13276	0	
1.1607	-0.653296	6.90925	0	
1.1613	-0.653296	4.17434	0	
1.1620	-3.11276	1.43943	0	
1.1627	-2.4979	0.791685	0	
1.1633	-0.0384292	2.30308	0	
1.1640	1.15287	2.30308	0	
1.1647	1.15287	-0.431828	0	
1.1653	-2.19046	-1.36746	0	
1.1660	-2.4979	0.5038	0	
1.1667	2.38261	1.43943	0	
1.1673	3.91977	0.5038	0	
1.1680	0.576437	-1.0076	0	
1.1687	0.576437	-1.0076	0	
1.1693	3.91977	2.0152	0	
1.1700	5.14951	3.5266	0	
1.1707	4.22721	1.43943	0	
1.1713	2.38261	0.215914	0	
1.1720	1.76774	0.791685	0	
1.1727	2.38261	0.215914	0	
1.1733	0.269004	2.66294	0	
1.1740	-0.345862	7.48502	0	
1.1747	4.84207	6.90925	0	
1.1753	5.76437	5.39785	0	
1.1760	2.07517	7.84488	0	
1.1767	2.07517	7.48502	0	
1.1773	2.38261	5.10997	0	
1.1780	-2.80533	5.68574	0	
1.1787	-4.34249	6.62137	0	
1.1793	-1.5756	5.10997	0	
1.1800	-0.653296	3.5266	0	
1.1807	-2.19046	1.07957	0	
1.1813	-1.88303	-0.143943	0	
1.1820	-1.88303	1.43943	0	
1.1827	-3.11276	0.5038	0	
1.1833	-3.42019	-1.94323	0	
1.1840	-1.5756	-1.94323	0	
1.1847	-0.0384292	0.5038	0	
1.1853	-0.345862	2.66294	0	
1.1860	-0.345862	3.88645	0	
1.1867	1.15287	3.88645	0	
1.1873	2.07517	5.10997	0	
1.1880	1.15287	2.95083	0	
1.1887	1.76774	-4.67814	0	
1.1893	2.99747	-8.34868	0	
1.1900	2.07517	-5.32588	0	
1.1907	2.38261	-5.90165	0	
1.1913	4.22721	-9.57219	0	
1.1920	3.91977	-9.86008	0	
1.1927	1.15287	-10.148	0	
1.1933	-0.653296	-12.9548	0	
1.1940	0.269004	-14.1784	0	
1.1947	0.845441	-12.9548	0	
1.1953	0.269004	-11.0836	0	
1.1960	-0.653296	-10.7957	0	
1.1967	-1.26816	-12.595	0	
1.1973	-1.5756	-11.0836	0	
1.1980	-1.26816	-5.90165	0	
1.1987	-3.11276	-4.39025	0	
1.1993	-5.5338	-5.32588	0	
1.2000	-3.42019	-0.431828	0	
1.2007	-0.653296	3.23871	0	
1.2013	-3.42019	3.23871	0	
1.2020	-5.22637	9.64416	0	
1.2027	-0.960729	19.4323	0	
1.2033	1.76774	21.2316	0	
1.2040	-0.653296	18.2088	0	
1.2047	-1.5756	16.0496	0	
1.2053	-0.345862	14.5382	0	
1.2060	0.269004	15.114	0	
1.2067	0.269004	15.114	0	
1.2073	2.38261	11.5154	0	
1.2080	3.91977	11.5154	0	
1.2087	2.69004	13.8905	0	
1.2093	2.07517	10.2919	0	
1.2100	3.91977	2.30308	0	
1.2107	3.91977	-1.36746	0	
1.2113	2.07517	-0.143943	0	
1.2120	0.576437	0.791685	0	
1.2127	-1.26816	-1.65534	0	
1.2133	-0.653296	-3.74251	0	
1.2140	0.576437	-2.23111	0	
1.2147	-2.19046	-3.16674	0	
1.2153	-3.42019	-4.67814	0	
1.2160	0.269004	-1.36746	0	
1.2167	0.269004	0.791685	0	
1.2173	-5.22637	-2.519	0	
1.2180	-5.5338	-4.67814	0	
1.2187	-1.88303	-3.16674	0	
1.2193	-3.42019	-1.94323	0	
1.2200	-6.14866	-1.0076	0	
1.2207	-5.22637	1.43943	0	
1.2213	-4.34249	1.72731	0	
1.2220	-5.5338	0.215914	0	
1.2227	-5.5338	-0.431828	0	
1.2233	-5.22637	-0.431828	0	
1.2240	-4.34249	-1.36746	0	
1.2247	-2.19046	-1.0076	0	
1.2253	-0.960729	-0.431828	0	
1.2260	-0.0384292	-2.519	0	
1.2267	2.07517	-4.96602	0	
1.2273	3.30491	-4.10237	0	
1.2280	2.69004	-4.10237	0	
1.2287	3.30491	-6.83728	0	
1.2293	3.91977	-9.28431	0	
1.2300	2.69004	-13.5306	0	
1.2307	2.07517	-19.3603	0	
1.2313	3.30491	-23.8945	0	
1.2320	3.30491	-30.0121	0	
1.2327	2.69004	-36.1296	0	
1.2333	0.845441	-37.9289	0	
1.2340	-0.653296	-38.8645	0	
1.2347	0.269004	-31.8833	0	
1.2353	0.269004	-2.87885	0	
1.2360	-0.653296	35.9137	0	
1.2367	-0.0384292	52.9709	0	
1.2373	-2.19046	43.5427	0	
1.2380	-7.07096	27.0612	0	
1.2387	-5.22637	16.9852	0	
1.2393	-1.5756	13.3147	0	
1.2400	-3.42019	12.3791	0	
1.2407	-4.6115	11.5154	0	
1.2413	-2.19046	8.70854	0	
1.2420	-1.26816	7.19714	0	
1.2427	-3.42019	7.19714	0	
1.2433	-3.42019	6.90925	0	
1.2440	-1.26816	5.68574	0	
1.2447	-0.653296	5.39785	0	
1.2453	-3.72763	3.23871	0	
1.2460	-4.6115	-1.0076	0	
1.2467	-1.88303	-4.10237	0	
1.2473	-0.960729	-5.90165	0	
1.2480	0.269004	-6.54939	0	
1.2487	4.84207	-4.39025	0	
1.2493	3.91977	-3.16674	0	
1.2500	-0.0384292	-3.16674	0	
1.2507	0.269004	-1.0076	0	
1.2513	1.15287	1.43943	0	
1.2520	-0.653296	-0.431828	0	
1.2527	-0.0384292	-1.36746	0	
1.2533	1.76774	0.5038	0	
1.2540	2.07517	-0.431828	0	
1.2547	1.46031	-2.23111	0	
1.2553	0.576437	-1.36746	0	
1.2560	0.269004	-0.143943	0	
1.2567	-0.0384292	0.215914	0	
1.2573	-2.19046	1.43943	0	
1.2580	-1.88303	4.17434	0	
1.2587	-0.0384292	4.75011	0	
1.2593	-1.5756	2.66294	0	
1.2600	-3.42019	2.30308	0	
1.2607	-0.653296	3.88645	0	
1.2613	-0.653296	2.0152	0	
1.2620	-3.42019	1.07957	0	
1.2627	-1.5756	2.30308	0	
1.2633	0.269004	-1.0076	0	
1.2640	-1.88303	-6.83728	0	
1.2647	-2.80533	-7.12517	0	
1.2653	-0.960729	-8.06079	0	
1.2660	-0.960729	-9.57219	0	
1.2667	-1.5756	-5.90165	0	
1.2673	0.576437	-2.87885	0	
1.2680	2.07517	-5.90165	0	
1.2687	0.269004	-6.18954	0	
1.2693	-0.345862	-4.39025	0	
1.2700	1.15287	-6.83728	0	
1.2707	-0.345862	-8.06079	0	
1.2713	-2.80533	-4.67814	0	
1.2720	-0.653296	-3.16674	0	
1.2727	1.46031	-5.32588	0	
1.2733	-1.5756	-5.61377	0	
1.2740	-3.42019	-3.74251	0	
1.2747	-0.960729	-2.87885	0	
1.2753	0.269004	-3.16674	0	
1.2760	-1.88303	-3.16674	0	
1.2767	-0.960729	-2.87885	0	
1.2773	2.69004	-2.23111	0	
1.2780	2.99747	-0.431828	0	
1.2787	-0.0384292	1.43943	0	
1.2793	-1.5756	0.215914	0	
1.2800	-0.653296	-1.0076	0	
1.2807	-0.653296	2.30308	0	
1.2813	-0.653296	3.88645	0	
1.2820	-0.0384292	0.215914	0	
1.2827	0.576437	-2.23111	0	
1.2833	0.845441	-2.23111	0	
1.2840	-0.0384292	-3.16674	0	
1.2847	-1.26816	-3.74251	0	
1.2853	0.269004	-1.94323	0	
1.2860	3.91977	-0.431828	0	
1.2867	2.99747	-0.431828	0	
1.2873	-0.345862	-1.0076	0	
1.2880	1.15287	-0.719714	0	
1.2887	4.22721	2.0152	0	
1.2893	3.91977	2.66294	0	
1.2900	2.99747	0.791685	0	
1.2907	3.61234	4.46222	0	
1.2913	2.99747	10.5798	0	
1.2920	2.07517	9.35628	0	
1.2927	2.07517	5.97362	0	
1.2933	0.269004	8.42065	0	
1.2940	-0.653296	8.42065	0	
1.2947	1.76774	4.75011	0	
1.2953	1.46031	4.75011	0	
1.2960	-1.88303	4.17434	0	
1.2967	-2.80533	0.5038	0	
1.2973	-1.88303	0.5038	0	
1.2980	-3.72763	2.66294	0	
1.2987	-4.91893	1.72731	0	
1.2993	-2.4979	1.43943	0	
1.3000	-0.653296	2.30308	0	
1.3007	-2.19046	1.43943	0	
1.3013	-2.4979	0.215914	0	
1.3020	-1.5756	0.791685	0	
1.3027	-3.42019	-0.431828	0	
1.3033	-3.72763	-3.16674	0	
1.3040	-0.653296	-3.16674	0	
1.3047	-0.0384292	-1.36746	0	
1.3053	-1.88303	-3.45463	0	
1.3060	0.269004	-4.96602	0	
1.3067	1.46031	-1.94323	0	
1.3073	-0.345862	-0.719714	0	
1.3080	0.576437	-1.94323	0	
1.3087	2.99747	0.215914	0	
1.3093	1.76774	1.07957	0	
1.3100	1.15287	-1.0076	0	
1.3107	3.30491	-0.431828	0	
1.3113	3.30491	0.791685	0	
1.3120	0.269004	-1.94323	0	
1.3127	0.269004	-3.74251	0	
1.3133	1.76774	-4.96602	0	
1.3140	0.845441	-7.12517	0	
1.3147	-0.960729	-5.32588	0	
1.3153	-0.0384292	-3.16674	0	
1.3160	0.269004	-4.96602	0	
1.3167	-1.26816	-5.90165	0	
1.3173	-1.5756	-4.67814	0	
1.3180	-1.5756	-5.32588	0	
1.3187	-2.4979	-4.10237	0	
1.3193	-2.4979	-0.143943	0	
1.3200	-1.5756	0.791685	0	
1.3207	-2.19046	-1.94323	0	
1.3213	-2.80533	-3.74251	0	
1.3220	-2.80533	-3.45463	0	
1.3227	-4.34249	-3.16674	0	
1.3233	-5.22637	-3.16674	0	
1.3240	-3.42019	-2.23111	0	
1.3247	-1.26816	-0.431828	0	
1.3253	-2.19046	2.0152	0	
1.3260	-1.5756	5.97362	0	
1.3267	0.845441	8.70854	0	
1.3273	1.15287	5.68574	0	
1.3280	-0.653296	2.95083	0	
1.3287	0.845441	3.23871	0	
1.3293	2.99747	1.43943	0	
1.3300	2.69004	-0.719714	0	
1.3307	2.07517	1.72731	0	
1.3313	2.07517	2.0152	0	
1.3320	1.46031	-1.36746	0	
1.3327	1.15287	0.5038	0	
1.3333	1.15287	4.46222	0	
1.3340	1.46031	2.30308	0	
1.3347	0.845441	1.43943	0	
1.3353	0.845441	4.46222	0	
1.3360	2.07517	2.30308	0	
1.3367	1.15287	0.215914	0	
1.3373	-1.5756	4.46222	0	
1.3380	-2.19046	5.39785	0	
1.3387	-1.88303	2.30308	0	
1.3393	-4.34249	4.75011	0	
1.3400	-4.91893	4.75011	0	
1.3407	-2.19046	-1.94323	0	
1.3413	-2.4979	-4.96602	0	
1.3420	-3.11276	-2.87885	0	
1.3427	1.15287	-2.23111	0	
1.3433	2.07517	-3.16674	0	
1.3440	-0.653296	-4.39025	0	
1.3447	-0.653296	-5.90165	0	
1.3453	-0.653296	-7.12517	0	
1.3460	-3.11276	-6.83728	0	
1.3467	-0.653296	-5.90165	0	
1.3473	3.91977	-7.12517	0	
1.3480	2.07517	-12.3071	0	
1.3487	0.269004	-19.0004	0	
1.3493	1.15287	-26.0536	0	
1.3500	1.15287	-35.4819	0	
1.3507	1.15287	-46.7814	0	
1.3513	3.91977	-59.5923	0	
1.3520	3.30491	-70.6039	0	
1.3527	0.269004	-76.4336	0	
1.3533	-0.960729	-72.4752	0	
1.3540	-0.0384292	-41.0237	0	
1.3547	0.269004	24.6142	0	
1.3553	-2.4979	85.6459	0	
1.3560	-5.84123	98.4568	0	
1.3567	-4.91893	77.0813	0	
1.3573	-3.42019	61.2476	0	
1.3580	-5.22637	54.4823	0	
1.3587	-6.4561	45.0541	0	
1.3593	-6.14866	36.2016	0	
1.3600	-7.07096	30.3719	0	
1.3607	-6.4561	22.4551	0	
1.3613	-4.34249	16.0496	0	
1.3620	-3.72763	15.114	0	
1.3627	-3.11276	15.4738	0	
1.3633	-0.653296	13.8905	0	
1.3640	-0.0384292	14.2503	0	
1.3647	-0.960729	14.2503	0	
1.3653	0.269004	11.5154	0	
1.3660	2.38261	9.06839	0	
1.3667	2.69004	7.48502	0	
1.3673	0.576437	5.68574	0	
1.3680	0.269004	5.10997	0	
1.3687	2.07517	5.68574	0	
1.3693	2.99747	4.46222	0	
1.3700	3.61234	2.30308	0	
1.3707	4.53464	1.43943	0	
1.3713	4.84207	2.0152	0	
1.3720	3.30491	2.30308	0	
1.3727	2.38261	1.07957	0	
1.3733	4.22721	-1.36746	0	
1.3740	5.76437	-2.519	0	
1.3747	2.99747	-1.36746	0	
1.3753	0.845441	-1.36746	0	
1.3760	2.99747	-4.67814	0	
1.3767	4.84207	-3.74251	0	
1.3773	3.91977	-1.65534	0	
1.3780	2.38261	-4.10237	0	
1.3787	0.576437	-6.83728	0	
1.3793	0.269004	-5.61377	0	
1.3800	0.845441	-5.90165	0	
1.3807	-1.5756	-6.83728	0	
1.3813	-3.72763	-6.83728	0	
1.3820	-3.42019	-6.83728	0	
1.3827	-2.4979	-6.54939	0	
1.3833	-3.42019	-4.96602	0	
1.3840	-3.72763	-6.54939	0	
1.3847	-3.42019	-9.57219	0	
1.3853	-1.88303	-10.5078	0	
1.3860	-2.4979	-9.57219	0	
1.3867	-4.91893	-8.34868	0	
1.3873	-4.03506	-7.77291	0	
1.3880	-0.960729	-8.99642	0	
1.3887	0.269004	-7.77291	0	
1.3893	0.845441	-5.90165	0	
1.3900	0.269004	-6.18954	0	
1.3907	-0.653296	-5.90165	0	
1.3913	1.46031	-4.39025	0	
1.3920	2.99747	-5.32588	0	
1.3927	0.845441	-4.67814	0	
1.3933	0.269004	-3.45463	0	
1.3940	1.15287	-5.90165	0	
1.3947	1.15287	-8.63656	0	
1.3953	2.07517	-8.34868	0	
1.3960	1.15287	-9.57219	0	
1.3967	-0.345862	-9.57219	0	
1.3973	0.845441	-5.90165	0	
1.3980	2.07517	-4.10237	0	
1.3987	0.576437	-5.32588	0	
1.3993	-0.653296	-4.96602	0	
1.4000	-0.345862	-4.96602	0	
1.4007	-0.345862	-6.83728	0	
1.4013	-0.0384292	-8.63656	0	
1.4020	-0.345862	-9.57219	0	
1.4027	-0.653296	-9.28431	0	
1.4033	-0.0384292	-6.83728	0	
1.4040	-0.960729	-3.45463	0	
1.4047	-1.5756	-2.519	0	
1.4053	-0.653296	-3.16674	0	
1.4060	-1.26816	-4.10237	0	
1.4067	-2.19046	-3.74251	0	
1.4073	0.269004	-3.45463	0	
1.4080	0.576437	-3.16674	0	
1.4087	-1.26816	-3.16674	0	
1.4093	0.269004	-3.16674	0	
1.4100	1.15287	-4.10237	0	
1.4107	-0.0384292	-4.39025	0	
1.4113	1.15287	-3.74251	0	
1.4120	2.99747	-3.16674	0	
1.4127	1.76774	-3.16674	0	
1.4133	2.07517	-1.36746	0	
1.4140	2.99747	-0.143943	0	
1.4147	1.46031	-1.36746	0	
1.4153	0.269004	-1.36746	0	
1.4160	0.269004	3.23871	0	
1.4167	-0.345862	7.48502	0	
1.4173	-0.960729	7.19714	0	
1.4180	-1.26816	6.90925	0	
1.4187	-0.653296	5.39785	0	
1.4193	-0.653296	-0.719714	0	
1.4200	-2.4979	-4.96602	0	
1.4207	-3.11276	-3.16674	0	
1.4213	-2.4979	-2.23111	0	
1.4220	-2.19046	-4.39025	0	
1.4227	-1.5756	-4.10237	0	
1.4233	-1.5756	-4.10237	0	
1.4240	-3.11276	-6.54939	0	
1.4247	-3.42019	-5.61377	0	
1.4253	-0.653296	-3.74251	0	
1.4260	-0.653296	-4.96602	0	
1.4267	-1.88303	-9.28431	0	
1.4273	-0.345862	-15.6898	0	
1.4280	-0.345862	-20.5838	0	
1.4287	-1.88303	-22.671	0	
1.4293	-0.653296	-28.2128	0	
1.4300	0.576437	-31.8833	0	
1.4307	-0.653296	-29.7242	0	
1.4313	0.269004	-31.2356	0	
1.4320	3.30491	-20.5838	0	
1.4327	3.91977	20.008	0	
1.4333	2.07517	58.1529	0	
1.4340	-0.653296	60.8878	0	
1.4347	-3.11276	47.789	0	
1.4353	-3.42019	35.6258	0	
1.4360	-1.5756	23.1028	0	
1.4367	-0.345862	16.9852	0	
1.4373	-1.26816	14.2503	0	
1.4380	-1.26816	4.46222	0	
1.4387	-0.0384292	-1.94323	0	
1.4393	-0.345862	-3.45463	0	
1.4400	-2.4979	-11.0836	0	
1.4407	-3.11276	-20.5838	0	
1.4413	-2.19046	-24.2543	0	
1.4420	-1.26816	-26.9893	0	
1.4427	-0.960729	-31.5235	0	
1.4433	-0.653296	-31.5235	0	
1.4440	-0.653296	-13.8185	0	
1.4447	-0.653296	25.8377	0	
1.4453	-0.0384292	57.865	0	
1.4460	-0.653296	55.1301	0	
1.4467	-0.345862	33.4667	0	
1.4473	2.38261	20.008	0	
1.4480	3.30491	16.9852	0	
1.4487	0.845441	18.7845	0	
1.4493	0.576437	19.4323	0	
1.4500	3.61234	16.6974	0	
1.4507	3.30491	19.1444	0	
1.4513	-0.0384292	26.1256	0	
1.4520	-1.26816	26.1256	0	
1.4527	1.15287	18.7845	0	
1.4533	3.91977	11.5154	0	
1.4540	2.38261	5.68574	0	
1.4547	-1.5756	2.0152	0	
1.4553	-2.19046	0.215914	0	
1.4560	0.845441	-1.36746	0	
1.4567	-0.0384292	-0.719714	0	
1.4573	-3.11276	0.5038	0	
1.4580	-2.4979	-0.431828	0	
1.4587	-1.5756	-0.431828	0	
1.4593	-3.42019	0.5038	0	
1.4600	-4.03506	-1.94323	0	
1.4607	-4.34249	-5.90165	0	
1.4613	-5.5338	-5.61377	0	
1.4620	-4.91893	-3.16674	0	
1.4627	-4.6115	-4.39025	0	
1.4633	-5.5338	-8.06079	0	
1.4640	-2.80533	-8.99642	0	
1.4647	-0.960729	-8.63656	0	
1.4653	-4.34249	-10.5078	0	
1.4660	-3.42019	-11.0836	0	
1.4667	1.15287	-10.148	0	
1.4673	-0.0384292	-8.63656	0	
1.4680	-2.4979	-7.12517	0	
1.4687	0.576437	-5.61377	0	
1.4693	1.76774	-3.45463	0	
1.4700	0.845441	-3.16674	0	
1.4707	2.99747	-2.23111	0	
1.4713	4.84207	0.5038	0	
1.4720	3.61234	3.5266	0	
1.4727	3.91977	4.46222	0	
1.4733	4.53464	2.30308	0	
1.4740	1.46031	-4.10237	0	
1.4747	-1.26816	-8.99642	0	
1.4753	-0.653296	-6.54939	0	
1.4760	-0.0384292	-3.16674	0	
1.4767	-0.653296	-5.90165	0	
1.4773	0.845441	-7.77291	0	
1.4780	1.46031	-5.90165	0	
1.4787	0.576437	-5.90165	0	
1.4793	0.269004	-5.61377	0	
1.4800	-0.0384292	-2.519	0	
1.4807	-0.653296	-1.36746	0	
1.4813	-0.345862	-3.74251	0	
1.4820	-0.653296	-6.83728	0	
1.4827	-1.5756	-6.83728	0	
1.4833	-0.960729	-4.10237	0	
1.4840	-0.960729	-4.96602	0	
1.4847	-2.4979	-8.63656	0	
1.4853	-2.19046	-7.77291	0	
1.4860	-1.5756	-4.96602	0	
1.4867	-1.5756	-4.96602	0	
1.4873	-0.0384292	-3.74251	0	
1.4880	-0.960729	-2.23111	0	
1.4887	-3.42019	-2.519	0	
1.4893	-1.5756	-1.0076	0	
1.4900	1.15287	0.791685	0	
1.4907	-0.0384292	-1.0076	0	
1.4913	-0.653296	-1.36746	0	
1.4920	2.07517	0.5038	0	
1.4927	2.69004	0.215914	0	
1.4933	0.576437	-0.719714	0	
1.4940	0.576437	0.5038	0	
1.4947	2.38261	1.43943	0	
1.4953	1.46031	1.07957	0	
1.4960	-0.0384292	0.5038	0	
1.4967	0.845441	-1.65534	0	
1.4973	0.269004	-4.96602	0	
1.4980	-2.80533	-4.96602	0	
1.4987	-2.4979	-1.94323	0	
1.4993	-1.5756	0.5038	0	
1.5000	-2.80533	-0.431828	0	
1.5007	-1.5756	-3.16674	0	
1.5013	0.576437	-5.61377	0	
1.5020	-0.653296	-5.61377	0	
1.5027	-1.88303	-4.10237	0	
1.5033	-0.653296	-4.10237	0	
1.5040	0.269004	-4.96602	0	
1.5047	-0.0384292	-4.96602	0	
1.5053	0.269004	-8.63656	0	
1.5060	0.845441	-17.7769	0	
1.5067	1.76774	-26.3415	0	
1.5073	1.15287	-31.5235	0	
1.5080	-0.0384292	-35.4819	0	
1.5087	2.07517	-36.1296	0	
1.5093	3.30491	-33.9705	0	
1.5100	-0.0384292	-32.4591	0	
1.5107	-0.0384292	-21.1596	0	
1.5113	4.53464	9.64416	0	
1.5120	2.99747	44.1184	0	
1.5127	0.269004	55.418	0	
1.5133	3.91977	40.8078	0	
1.5140	4.84207	14.2503	0	
1.5147	0.269004	-6.18954	0	
1.5153	0.269004	-15.042	0	
1.5160	2.07517	-18.1368	0	
1.5167	-2.19046	-10.5078	0	
1.5173	-7.07096	17.2731	0	
1.5180	-6.14866	52.683	0	
1.5187	-4.03506	66.7175	0	
1.5193	-3.11276	54.4823	0	
1.5200	-3.72763	34.9781	0	
1.5207	-4.34249	21.8793	0	
1.5213	-2.80533	16.0496	0	
1.5220	-2.19046	14.2503	0	
1.5227	-4.34249	11.1556	0	
1.5233	-2.4979	4.75011	0	
1.5240	1.76774	1.43943	0	
1.5247	0.576437	2.0152	0	
1.5253	-2.80533	-0.431828	0	
1.5260	-0.0384292	-3.16674	0	
1.5267	3.30491	-1.36746	0	
1.5273	2.99747	-2.23111	0	
1.5280	1.76774	-7.12517	0	
1.5287	0.576437	-7.12517	0	
1.5293	-0.345862	-3.74251	0	
1.5300	0.269004	-3.16674	0	
1.5307	0.576437	-2.87885	0	
1.5313	-0.653296	-2.23111	0	
1.5320	-0.653296	-3.45463	0	
1.5327	-0.653296	-0.143943	0	
1.5333	0.576437	9.35628	0	
1.5340	1.76774	16.0496	0	
1.5347	0.576437	16.0496	0	
1.5353	-1.26816	12.0912	0	
1.5360	-0.345862	5.97362	0	
1.5367	0.269004	0.5038	0	
1.5373	-0.345862	-2.23111	0	
1.5380	-0.345862	-1.65534	0	
1.5387	-1.26816	1.43943	0	
1.5393	-1.26816	1.43943	0	
1.5400	-0.0384292	-1.65534	0	
1.5407	-1.88303	-5.32588	0	
1.5413	-3.42019	-8.63656	0	
1.5420	0.576437	-10.5078	0	
1.5427	2.99747	-8.63656	0	
1.5433	0.269004	-6.83728	0	
1.5440	-0.653296	-8.63656	0	
1.5447	1.15287	-8.63656	0	
1.5453	2.38261	-4.96602	0	
1.5460	2.38261	-3.45463	0	
1.5467	2.07517	-1.94323	0	
1.5473	2.99747	2.30308	0	
1.5480	6.34081	2.66294	0	
1.5487	6.03338	-0.719714	0	
1.5493	2.38261	1.43943	0	
1.5500	2.69004	6.62137	0	
1.5507	4.84207	9.06839	0	
1.5513	4.22721	12.3791	0	
1.5520	2.07517	12.7389	0	
1.5527	1.15287	5.97362	0	
1.5533	0.576437	-0.431828	0	
1.5540	-0.653296	-3.16674	0	
1.5547	-1.88303	-5.32588	0	
1.5553	-3.11276	-5.61377	0	
1.5560	-3.42019	-6.54939	0	
1.5567	-2.80533	-9.86008	0	
1.5573	-3.11276	-7.77291	0	
1.5580	-4.34249	-3.16674	0	
1.5587	-4.34249	-6.18954	0	
1.5593	-3.42019	-10.7957	0	
1.5600	-4.03506	-9.57219	0	
1.5607	-5.84123	-7.77291	0	
1.5613	-5.22637	-6.54939	0	
1.5620	-2.80533	-4.39025	0	
1.5627	-1.26816	-5.90165	0	
1.5633	-0.653296	-8.34868	0	
1.5640	-1.88303	-7.77291	0	
1.5647	-1.5756	-7.12517	0	
1.5653	0.576437	-4.39025	0	
1.5660	0.576437	0.5038	0	
1.5667	-0.345862	-0.143943	0	
1.5673	1.15287	-3.45463	0	
1.5680	2.07517	-3.74251	0	
1.5687	2.69004	-1.36746	0	
1.5693	4.84207	-1.0076	0	
1.5700	5.76437	-2.87885	0	
1.5707	4.22721	-4.10237	0	
1.5713	4.53464	-2.23111	0	
1.5720	3.91977	-0.431828	0	
1.5727	1.15287	-2.23111	0	
1.5733	0.845441	-3.16674	0	
1.5740	1.46031	-2.23111	0	
1.5747	0.269004	-1.94323	0	
1.5753	0.269004	-3.16674	0	
1.5760	0.269004	-4.10237	0	
1.5767	-1.26816	-2.519	0	
1.5773	-1.26816	0.5038	0	
1.5780	-0.653296	0.5038	0	
1.5787	-1.5756	-0.431828	0	
1.5793	-2.4979	0.5038	0	
1.5800	-1.5756	-1.36746	0	
1.5807	-1.5756	-3.16674	0	
1.5813	-3.11276	-2.23111	0	
1.5820	-4.34249	-2.519	0	
1.5827	-3.72763	-5.61377	0	
1.5833	-4.6115	-6.18954	0	
1.5840	-5.84123	-6.83728	0	
1.5847	-3.11276	-10.5078	0	
1.5853	-0.653296	-15.6898	0	
1.5860	-1.5756	-20.8717	0	
1.5867	-0.960729	-27.565	0	
1.5873	0.845441	-34.2584	0	
1.5880	-0.960729	-34.9061	0	
1.5887	-2.4979	-31.5235	0	
1.5893	0.845441	-30.2999	0	
1.5900	2.99747	-15.042	0	
1.5907	1.46031	26.1256	0	
1.5913	-0.653296	64.9182	0	
1.5920	-0.653296	68.2289	0	
1.5927	1.15287	49.0125	0	
1.5933	1.15287	31.3075	0	
1.5940	-2.19046	19.1444	0	
1.5947	-4.34249	12.7389	0	
1.5953	-2.80533	12.3791	0	
1.5960	-1.88303	13.3147	0	
1.5967	-4.03506	12.0912	0	
1.5973	-5.22637	8.13276	0	
1.5980	-4.03506	3.5266	0	
1.5987	-3.11276	3.23871	0	
1.5993	-4.03506	4.75011	0	
1.6000	-3.42019	3.88645	0	
1.6007	-1.5756	2.66294	0	
1.6013	-0.653296	2.30308	0	
1.6020	-1.5756	1.72731	0	
1.6027	-3.72763	2.0152	0	
1.6033	-6.14866	2.95083	0	
1.6040	-4.03506	1.07957	0	
1.6047	0.269004	-0.719714	0	
1.6053	0.576437	-0.719714	0	
1.6060	0.269004	-0.719714	0	
1.6067	1.76774	0.215914	0	
1.6073	2.99747	3.23871	0	
1.6080	3.30491	4.17434	0	
1.6087	3.91977	0.5038	0	
1.6093	4.53464	-1.0076	0	
1.6100	3.91977	1.72731	0	
1.6107	3.91977	1.43943	0	
1.6113	3.91977	-1.36746	0	
1.6120	3.91977	-1.0076	0	
1.6127	3.30491	-0.719714	0	
1.6133	2.99747	-2.519	0	
1.6140	2.07517	-2.87885	0	
1.6147	0.269004	-3.16674	0	
1.6153	-0.345862	-4.10237	0	
1.6160	-0.653296	-2.23111	0	
1.6167	-0.960729	-1.65534	0	
1.6173	0.269004	-3.45463	0	
1.6180	0.576437	-4.10237	0	
1.6187	-1.5756	-3.16674	0	
1.6193	-2.4979	-1.0076	0	
1.6200	-1.5756	1.07957	0	
1.6207	-2.80533	-0.719714	0	
1.6213	-4.34249	-3.45463	0	
1.6220	-4.91893	-4.10237	0	
1.6227	-4.6115	-5.90165	0	
1.6233	-1.88303	-8.06079	0	
1.6240	0.269004	-7.12517	0	
1.6247	-1.5756	-7.77291	0	
1.6253	-1.26816	-9.57219	0	
1.6260	2.07517	-8.63656	0	
1.6267	2.38261	-7.12517	0	
1.6273	1.46031	-5.90165	0	
1.6280	2.07517	-4.10237	0	
1.6287	2.38261	-2.23111	0	
1.6293	1.76774	-0.431828	0	
1.6300	2.99747	3.88645	0	
1.6307	3.91977	6.90925	0	
1.6313	2.07517	6.90925	0	
1.6320	0.576437	4.75011	0	
1.6327	2.07517	1.07957	0	
1.6333	2.99747	-3.16674	0	
1.6340	2.69004	-9.57219	0	
1.6347	3.91977	-18.1368	0	
1.6353	6.34081	-23.0308	0	
1.6360	4.84207	-24.2543	0	
1.6367	0.269004	-29.7242	0	
1.6373	-0.0384292	-32.747	0	
1.6380	2.38261	-15.042	0	
1.6387	0.576437	22.743	0	
1.6393	-2.4979	54.4823	0	
1.6400	-0.0384292	56.3536	0	
1.6407	2.99747	38.0009	0	
1.6413	1.15287	22.743	0	
1.6420	-0.960729	14.2503	0	
1.6427	1.15287	10.5798	0	
1.6433	1.46031	13.3147	0	
1.6440	-0.653296	13.3147	0	
1.6447	-0.653296	7.19714	0	
1.6453	0.576437	4.17434	0	
1.6460	1.15287	5.68574	0	
1.6467	1.15287	4.17434	0	
1.6473	1.15287	2.30308	0	
1.6480	1.76774	3.23871	0	
1.6487	2.38261	2.95083	0	
1.6493	1.15287	2.0152	0	
1.6500	1.46031	2.30308	0	
1.6507	4.22721	1.72731	0	
1.6513	3.91977	-0.431828	0	
1.6520	-0.0384292	-2.23111	0	
1.6527	-3.11276	-3.16674	0	
1.6533	-3.42019	-2.23111	0	
1.6540	-3.42019	-1.94323	0	
1.6547	-3.42019	-4.39025	0	
1.6553	-3.72763	-6.83728	0	
1.6560	-3.72763	-4.67814	0	
1.6567	-5.22637	1.72731	0	
1.6573	-7.3784	3.5266	0	
1.6580	-4.91893	-1.36746	0	
1.6587	-1.5756	-4.67814	0	
1.6593	-4.34249	-2.519	0	
1.6600	-5.84123	-0.719714	0	
1.6607	-4.03506	-0.431828	0	
1.6613	-4.6115	1.43943	0	
1.6620	-5.22637	3.23871	0	
1.6627	-1.5756	2.95083	0	
1.6633	-0.653296	0.215914	0	
1.6640	-2.19046	-3.16674	0	
1.6647	-1.26816	-4.96602	0	
1.6653	-0.960729	-5.61377	0	
1.6660	-1.26816	-6.83728	0	
1.6667	2.69004	-7.41305	0	
1.6673	3.91977	-5.32588	0	
1.6680	0.269004	-4.10237	0	
1.6687	-0.345862	-5.61377	0	
1.6693	2.99747	-6.18954	0	
1.6700	3.91977	-4.10237	0	
1.6707	3.61234	-4.67814	0	
1.6713	1.76774	-8.63656	0	
1.6720	-0.960729	-10.7957	0	
1.6727	-0.653296	-12.595	0	
1.6733	2.07517	-14.7541	0	
1.6740	2.07517	-13.8185	0	
1.6747	0.845441	-12.3071	0	
1.6753	-0.345862	-13.2427	0	
1.6760	-0.653296	-14.4662	0	
1.6767	-0.960729	-14.4662	0	
1.6773	-2.4979	-15.4019	0	
1.6780	-3.42019	-16.2655	0	
1.6787	-2.4979	-15.9776	0	
1.6793	-4.34249	-17.7769	0	
1.6800	-7.68583	-23.0308	0	
1.6807	-6.14866	-26.9893	0	
1.6813	-4.34249	-30.6598	0	
1.6820	-5.22637	-34.9061	0	
1.6827	-2.80533	-35.8417	0	
1.6833	-1.5756	-35.8417	0	
1.6840	-4.34249	-34.6182	0	
1.6847	-3.72763	-15.042	0	
1.6853	0.269004	28.2847	0	
1.6860	-0.0384292	65.2061	0	
1.6867	-0.653296	72.1873	0	
1.6873	1.15287	58.8006	0	
1.6880	0.269004	42.3192	0	
1.6887	0.269004	31.5954	0	
1.6893	3.91977	24.6142	0	
1.6900	5.45694	18.4966	0	
1.6907	3.61234	17.561	0	
1.6913	2.07517	17.9209	0	
1.6920	0.845441	13.3147	0	
1.6927	1.15287	9.93205	0	
1.6933	2.69004	7.84488	0	
1.6940	2.07517	0.5038	0	
1.6947	1.46031	-4.96602	0	
1.6953	2.99747	-5.90165	0	
1.6960	0.576437	-10.148	0	
1.6967	-2.80533	-9.57219	0	
1.6973	-1.26816	-2.87885	0	
1.6980	0.269004	-4.96602	0	
1.6987	-2.4979	-10.148	0	
1.6993	-2.19046	-5.61377	0	
1.7000	0.269004	-0.719714	0	
1.7007	-2.4979	2.30308	0	
1.7013	-5.84123	8.42065	0	
1.7020	-4.34249	11.8033	0	
1.7027	-1.5756	16.9852	0	
1.7033	-1.5756	31.5954	0	
1.7040	-2.19046	38.9365	0	
1.7047	-1.26816	30.7318	0	
1.7053	1.76774	23.3907	0	
1.7060	3.61234	21.2316	0	
1.7067	2.99747	17.2731	0	
1.7073	1.15287	10.5798	0	
1.7080	-0.0384292	-11.3715	0	
1.7087	-0.653296	-49.2284	0	
1.7093	2.07517	-67.2213	0	
1.7100	3.91977	-55.0581	0	
1.7107	2.07517	-46.2056	0	
1.7113	0.576437	-52.6111	0	
1.7120	2.99747	-54.4104	0	
1.7127	5.76437	-47.1412	0	
1.7133	4.84207	-39.1524	0	
1.7140	2.69004	-20.8717	0	
1.7147	2.99747	14.2503	0	
1.7153	3.61234	48.0769	0	
1.7160	2.07517	59.0885	0	
1.7167	0.269004	47.789	0	
1.7173	0.269004	29.1484	0	
1.7180	0.269004	16.6974	0	
1.7187	-0.653296	13.3147	0	
1.7193	-1.88303	13.0268	0	
1.7200	-1.5756	12.3791	0	
1.7207	1.15287	12.7389	0	
1.7213	2.07517	11.5154	0	
1.7220	-1.5756	10.2919	0	
1.7227	-1.5756	9.93205	0	
1.7233	2.38261	9.35628	0	
1.7240	2.99747	10.5798	0	
1.7247	1.15287	13.6026	0	
1.7253	0.576437	12.7389	0	
1.7260	0.576437	7.84488	0	
1.7267	0.269004	3.88645	0	
1.7273	0.845441	-2.23111	0	
1.7280	-0.0384292	-9.28431	0	
1.7287	-0.653296	-9.57219	0	
1.7293	1.15287	-7.12517	0	
1.7300	1.15287	-8.63656	0	
1.7307	0.269004	-11.7313	0	
1.7313	0.576437	-14.7541	0	
1.7320	0.845441	-17.7769	0	
1.7327	-0.345862	-22.3831	0	
1.7333	-1.5756	-28.7885	0	
1.7340	-3.11276	-28.7885	0	
1.7347	-3.11276	-23.0308	0	
1.7353	-0.960729	-17.489	0	
1.7360	-1.26816	-12.3071	0	
1.7367	-2.4979	-10.5078	0	
1.7373	-3.42019	-15.9776	0	
1.7380	-4.91893	-18.4247	0	
1.7387	-4.91893	-9.28431	0	
1.7393	-3.11276	-1.36746	0	
1.7400	-3.72763	-1.36746	0	
1.7407	-5.22637	-4.67814	0	
1.7413	-4.03506	-12.3071	0	
1.7420	-2.80533	-20.5838	0	
1.7427	-2.80533	-24.2543	0	
1.7433	-2.19046	-27.8529	0	
1.7440	-1.88303	-29.4363	0	
1.7447	-1.26816	-24.2543	0	
1.7453	0.576437	-22.671	0	
1.7460	1.46031	-15.4019	0	
1.7467	0.269004	20.9437	0	
1.7473	0.269004	65.4939	0	
1.7480	2.07517	79.2405	0	
1.7487	2.99747	64.5583	0	
1.7493	2.07517	43.2548	0	
1.7500	2.38261	24.6142	0	
1.7507	3.91977	14.8261	0	
1.7513	5.45694	11.5154	0	
1.7520	4.22721	9.35628	0	
1.7527	2.07517	8.70854	0	
1.7533	1.15287	9.64416	0	
1.7540	1.76774	8.70854	0	
1.7547	2.99747	7.48502	0	
1.7553	3.30491	6.90925	0	
1.7560	1.15287	4.46222	0	
1.7567	-0.960729	2.30308	0	
1.7573	-0.345862	1.43943	0	
1.7580	-0.653296	1.43943	0	
1.7587	-2.4979	2.30308	0	
1.7593	-3.11276	-0.143943	0	
1.7600	-1.88303	-2.23111	0	
1.7607	-0.653296	0.215914	0	
1.7613	0.845441	0.791685	0	
1.7620	-0.0384292	-3.16674	0	
1.7627	-2.4979	-3.45463	0	
1.7633	-2.19046	-1.36746	0	
1.7640	-2.19046	-0.719714	0	
1.7647	-3.11276	0.5038	0	
1.7653	-1.5756	1.43943	0	
1.7660	-0.653296	0.5038	0	
1.7667	-1.5756	2.30308	0	
1.7673	-0.0384292	6.26151	0	
1.7680	2.07517	7.48502	0	
1.7687	1.15287	4.46222	0	
1.7693	1.46031	0.215914	0	
1.7700	2.07517	2.30308	0	
1.7707	2.07517	14.2503	0	
1.7713	3.91977	24.3263	0	
1.7720	3.91977	23.9665	0	
1.7727	0.576437	17.9209	0	
1.7733	-0.0384292	13.3147	0	
1.7740	0.845441	2.30308	0	
1.7747	-1.26816	-24.2543	0	
1.7753	-3.42019	-47.1412	0	
1.7760	-4.34249	-41.5994	0	
1.7767	-4.34249	-20.5838	0	
1.7773	-3.72763	-12.9548	0	
1.7780	-3.42019	-13.2427	0	
1.7787	-3.42019	-9.57219	0	
1.7793	-2.80533	-6.83728	0	
1.7800	-3.42019	-6.83728	0	
1.7807	-4.34249	-4.10237	0	
1.7813	-3.42019	-2.23111	0	
1.7820	-2.4979	-4.10237	0	
1.7827	-2.4979	-3.16674	0	
1.7833	-2.4979	-0.719714	0	
1.7840	-2.80533	-1.36746	0	
1.7847	-2.80533	-4.96602	0	
1.7853	-1.5756	-8.63656	0	
1.7860	-0.345862	-10.5078	0	
1.7867	-0.653296	-11.7313	0	
1.7873	-0.653296	-14.1784	0	
1.7880	1.15287	-18.7126	0	
1.7887	3.61234	-26.3415	0	
1.7893	4.22721	-35.194	0	
1.7900	3.91977	-38.8645	0	
1.7907	2.38261	-39.1524	0	
1.7913	1.15287	-32.4591	0	
1.7920	2.07517	-2.23111	0	
1.7927	2.99747	41.6714	0	
1.7933	2.07517	56.3536	0	
1.7940	1.15287	35.9137	0	
1.7947	0.845441	18.7845	0	
1.7953	-0.0384292	15.4738	0	
1.7960	0.576437	7.48502	0	
1.7967	2.99747	-2.87885	0	
1.7973	3.61234	-4.10237	0	
1.7980	1.46031	-2.23111	0	
1.7987	-0.345862	-1.36746	0	
1.7993	-0.960729	0.5038	0	
1.8000	-0.960729	2.30308	0	
1.8007	-1.26816	4.75011	0	
1.8013	-1.5756	7.84488	0	
1.8020	-1.5756	10.2919	0	
1.8027	-1.5756	14.8261	0	
1.8033	-1.88303	19.7202	0	
1.8040	-1.5756	16.3375	0	
1.8047	-1.88303	10.5798	0	
1.8053	-3.11276	13.8905	0	
1.8060	-2.4979	20.3679	0	
1.8067	0.845441	17.9209	0	
1.8073	2.69004	9.35628	0	
1.8080	0.845441	1.07957	0	
1.8087	-1.26816	-3.16674	0	
1.8093	0.269004	-7.12517	0	
1.8100	1.15287	-15.042	0	
1.8107	-0.653296	-25.7657	0	
1.8113	-1.5756	-38.2888	0	
1.8120	-1.5756	-48.6526	0	
1.8127	-2.19046	-51.6754	0	
1.8133	-1.88303	-54.4104	0	
1.8140	-1.26816	-53.5467	0	
1.8147	-1.88303	-26.0536	0	
1.8153	-2.19046	16.0496	0	
1.8160	-0.653296	41.0956	0	
1.8167	-0.653296	54.4823	0	
1.8173	-2.4979	68.5167	0	
1.8180	-3.11276	66.4296	0	
1.8187	-1.5756	49.9481	0	
1.8193	-1.5756	37.4251	0	
1.8200	-3.42019	30.084	0	
1.8207	-2.80533	27.637	0	
1.8213	-0.345862	26.4135	0	
1.8220	-0.960729	7.84488	0	
1.8227	-3.11276	-19.9361	0	
1.8233	-1.5756	-24.8301	0	
1.8240	1.15287	-9.57219	0	
1.8247	1.15287	0.791685	0	
1.8253	-0.653296	2.66294	0	
1.8260	-0.653296	4.75011	0	
1.8267	0.269004	9.93205	0	
1.8273	0.269004	16.6974	0	
1.8280	0.269004	17.9209	0	
1.8287	0.269004	11.8033	0	
1.8293	1.46031	6.90925	0	
1.8300	4.53464	7.84488	0	
1.8307	5.45694	10.8677	0	
1.8313	3.91977	12.3791	0	
1.8320	3.91977	12.0912	0	
1.8327	4.22721	12.7389	0	
1.8333	1.15287	14.2503	0	
1.8340	0.269004	10.5798	0	
1.8347	3.30491	-1.0076	0	
1.8353	2.07517	-16.6254	0	
1.8360	-0.960729	-29.4363	0	
1.8367	1.46031	-33.3947	0	
1.8373	2.07517	-29.0764	0	
1.8380	-2.4979	-23.8945	0	
1.8387	-2.4979	-19.3603	0	
1.8393	0.576437	-13.8185	0	
1.8400	-0.653296	-8.63656	0	
1.8407	-1.5756	-7.12517	0	
1.8413	1.46031	-11.7313	0	
1.8420	1.15287	-15.4019	0	
1.8427	-0.960729	-13.2427	0	
1.8433	0.269004	-14.1784	0	
1.8440	0.269004	-23.0308	0	
1.8447	-2.19046	-28.7885	0	
1.8453	-1.26816	-28.5007	0	
1.8460	-0.345862	-30.6598	0	
1.8467	-2.80533	-31.5235	0	
1.8473	-0.653296	-25.118	0	
1.8480	3.91977	-21.4475	0	
1.8487	2.07517	-26.6294	0	
1.8493	0.269004	-33.9705	0	
1.8500	2.38261	-37.0653	0	
1.8507	1.15287	-39.1524	0	
1.8513	-0.653296	-39.8002	0	
1.8520	1.76774	-32.4591	0	
1.8527	2.38261	-21.4475	0	
1.8533	0.269004	-17.2012	0	
1.8540	1.15287	-14.1784	0	
1.8547	2.07517	0.215914	0	
1.8553	0.576437	18.2088	0	
1.8560	-0.653296	29.7961	0	
1.8567	-1.88303	40.8078	0	
1.8573	-1.88303	49.9481	0	
1.8580	0.269004	49.6602	0	
1.8587	0.576437	49.9481	0	
1.8593	-1.88303	56.3536	0	
1.8600	-3.11276	51.1716	0	
1.8607	-3.72763	25.5498	0	
1.8613	-3.42019	-0.431828	0	
1.8620	0.269004	-12.3071	0	
1.8627	1.15287	-15.9776	0	
1.8633	-2.80533	-18.1368	0	
1.8640	-1.88303	-21.8073	0	
1.8647	2.99747	-27.565	0	
1.8653	3.30491	-29.0764	0	
1.8660	1.15287	-18.7126	0	
1.8667	0.576437	4.46222	0	
1.8673	-0.345862	25.8377	0	
1.8680	0.269004	18.7845	0	
1.8687	1.76774	-11.0836	0	
1.8693	1.15287	-30.6598	0	
1.8700	-0.0384292	-35.194	0	
1.8707	2.07517	-32.1712	0	
1.8713	5.45694	1.72731	0	
1.8720	6.34081	65.2061	0	
1.8727	3.91977	107.309	0	
1.8733	1.15287	106.086	0	
1.8740	1.46031	84.7103	0	
1.8747	1.46031	59.0885	0	
1.8753	-0.960729	37.4251	0	
1.8760	-0.960729	27.9969	0	
1.8767	-0.653296	25.5498	0	
1.8773	-2.4979	22.743	0	
1.8780	-1.88303	21.8793	0	
1.8787	-0.0384292	21.2316	0	
1.8793	-1.88303	18.4966	0	
1.8800	-4.03506	17.9209	0	
1.8807	-2.80533	17.9209	0	
1.8813	-1.88303	15.114	0	
1.8820	-2.4979	13.3147	0	
1.8827	-3.11276	12.3791	0	
1.8833	-2.80533	11.5154	0	
1.8840	-2.19046	13.0268	0	
1.8847	-2.19046	5.68574	0	
1.8853	-1.5756	-22.0952	0	
1.8860	-0.653296	-47.1412	0	
1.8867	-1.26816	-45.27	0	
1.8873	-2.4979	-33.3947	0	
1.8880	-2.19046	-26.9893	0	
1.8887	-0.960729	-22.3831	0	
1.8893	-0.345862	-19.6482	0	
1.8900	-0.345862	-18.7126	0	
1.8907	-0.960729	-15.042	0	
1.8913	-1.5756	-13.2427	0	
1.8920	-1.5756	-14.7541	0	
1.8927	-2.19046	-13.8185	0	
1.8933	-1.5756	-13.2427	0	
1.8940	-2.80533	-15.9776	0	
1.8947	-5.84123	-15.042	0	
1.8953	-3.42019	-13.8185	0	
1.8960	0.269004	-15.042	0	
1.8967	-1.88303	-14.4662	0	
1.8973	-4.91893	-13.5306	0	
1.8980	-4.03506	-14.1784	0	
1.8987	-4.03506	-11.7313	0	
1.8993	-4.03506	-8.63656	0	
1.9000	-1.88303	-8.63656	0	
1.9007	-1.5756	-9.28431	0	
1.9013	-2.19046	-7.77291	0	
1.9020	-2.19046	-4.96602	0	
1.9027	-3.11276	-4.67814	0	
1.9033	-1.88303	-6.18954	0	
1.9040	0.269004	-5.61377	0	
1.9047	-0.653296	-3.45463	0	
1.9053	-0.653296	-3.45463	0	
1.9060	1.46031	-4.67814	0	
1.9067	0.269004	-4.67814	0	
1.9073	-0.0384292	-5.32588	0	
1.9080	3.30491	-6.18954	0	
1.9087	3.61234	-5.61377	0	
1.9093	2.07517	-5.90165	0	
1.9100	3.91977	-6.54939	0	
1.9107	4.22721	-5.61377	0	
1.9113	3.30491	-5.61377	0	
1.9120	4.22721	-6.83728	0	
1.9127	2.99747	-7.12517	0	
1.9133	0.269004	-5.90165	0	
1.9140	1.15287	-4.10237	0	
1.9147	2.38261	-3.16674	0	
1.9153	2.69004	-3.45463	0	
1.9160	2.69004	-0.431828	0	
1.9167	-0.345862	3.23871	0	
1.9173	-3.11276	1.72731	0	
1.9180	-0.653296	-0.719714	0	
1.9187	2.07517	0.215914	0	
1.9193	0.576437	0.5038	0	
1.9200	-0.0384292	0.215914	0	
1.9207	-0.960729	0.5038	0	
1.9213	-2.19046	-0.143943	0	
1.9220	-0.345862	-1.36746	0	
1.9227	0.576437	-2.23111	0	
1.9233	-1.5756	-4.10237	0	
1.9240	-1.5756	-4.67814	0	
1.9247	-0.345862	-2.519	0	
1.9253	-1.5756	-1.36746	0	
1.9260	-1.5756	-1.94323	0	
1.9267	1.15287	-1.94323	0	
1.9273	1.15287	-2.87885	0	
1.9280	0.845441	-3.16674	0	
1.9287	1.15287	-1.0076	0	
1.9293	1.15287	0.215914	0	
1.9300	2.38261	-0.431828	0	
1.9307	2.99747	1.43943	0	
1.9313	-0.0384292	5.10997	0	
1.9320	-1.88303	5.39785	0	
1.9327	0.576437	5.39785	0	
1.9333	2.07517	5.39785	0	
1.9340	2.07517	3.23871	0	
1.9347	3.61234	2.30308	0	
1.9353	1.46031	3.88645	0	
1.9360	-2.19046	2.30308	0	
1.9367	-0.653296	-0.719714	0	
1.9373	1.76774	-1.36746	0	
1.9380	-0.0384292	-1.36746	0	
1.9387	-1.5756	-4.10237	0	
1.9393	-2.4979	-6.18954	0	
1.9400	-5.5338	-5.61377	0	
1.9407	-6.76353	-2.23111	0	
1.9413	-3.72763	1.43943	0	
1.9420	-2.19046	4.17434	0	
1.9427	-2.19046	5.39785	0	
1.9433	-0.960729	5.39785	0	
1.9440	-1.5756	3.88645	0	
1.9447	-2.80533	2.66294	0	
1.9453	-2.19046	1.72731	0	
1.9460	0.269004	-1.36746	0	
1.9467	1.15287	-5.90165	0	
1.9473	0.576437	-8.99642	0	
1.9480	-0.345862	-8.99642	0	
1.9487	0.576437	-7.41305	0	
1.9493	2.38261	-5.90165	0	
1.9500	2.69004	-4.67814	0	
1.9507	1.76774	-5.32588	0	
1.9513	1.15287	-5.90165	0	
1.9520	0.576437	-3.16674	0	
1.9527	0.576437	2.0152	0	
1.9533	2.07517	3.5266	0	
1.9540	1.46031	3.88645	0	
1.9547	0.269004	8.42065	0	
1.9553	0.845441	12.0912	0	
1.9560	0.269004	10.5798	0	
1.9567	-3.42019	10.5798	0	
1.9573	-3.42019	12.0912	0	
1.9580	-1.5756	9.35628	0	
1.9587	-3.11276	5.10997	0	
1.9593	-1.5756	5.97362	0	
1.9600	1.46031	8.70854	0	
1.9607	-1.5756	8.70854	0	
1.9613	-4.6115	7.48502	0	
1.9620	-1.5756	5.10997	0	
1.9627	0.269004	2.30308	0	
1.9633	-2.19046	0.5038	0	
1.9640	-1.88303	-3.16674	0	
1.9647	-0.0384292	-6.54939	0	
1.9653	-0.0384292	-3.16674	0	
1.9660	-0.960729	2.30308	0	
1.9667	-0.0384292	2.30308	0	
1.9673	2.07517	2.30308	0	
1.9680	2.07517	5.10997	0	
1.9687	0.269004	4.17434	0	
1.9693	0.269004	0.5038	0	
1.9700	1.15287	0.5038	0	
1.9707	0.845441	-0.143943	0	
1.9713	1.15287	-3.16674	0	
1.9720	1.46031	-5.90165	0	
1.9727	1.15287	-7.77291	0	
1.9733	2.07517	-11.0836	0	
1.9740	2.69004	-15.4019	0	
1.9747	-0.345862	-19.0004	0	
1.9753	-2.4979	-23.6066	0	
1.9760	-1.26816	-29.0764	0	
1.9767	-0.653296	-31.8833	0	
1.9773	-2.4979	-31.8833	0	
1.9780	-2.4979	-30.6598	0	
1.9787	-1.5756	-19.3603	0	
1.9793	-2.4979	13.6026	0	
1.9800	-4.6115	55.418	0	
1.9807	-5.84123	74.6343	0	
1.9813	-6.4561	63.3348	0	
1.9820	-6.4561	43.5427	0	
1.9827	-3.72763	30.3719	0	
1.9833	-0.960729	22.743	0	
1.9840	-1.5756	17.9209	0	
1.9847	-1.26816	14.2503	0	
1.9853	2.07517	11.5154	0	
1.9860	3.61234	10.2919	0	
1.9867	2.07517	9.06839	0	
1.9873	2.07517	5.10997	0	
1.9880	2.99747	1.43943	0	
1.9887	3.61234	2.0152	0	
1.9893	4.22721	1.43943	0	
1.9900	5.76437	-1.0076	0	
1.9907	6.64824	-1.94323	0	
1.9913	6.64824	-3.16674	0	
1.9920	5.14951	-6.18954	0	
1.9927	2.38261	-9.57219	0	
1.9933	-0.653296	-15.042	0	
1.9940	-1.5756	-22.671	0	
1.9947	-0.653296	-28.2128	0	
1.9953	-0.345862	-33.3947	0	
1.9960	0.269004	-39.8002	0	
1.9967	-0.0384292	-46.2056	0	
1.9973	-2.19046	-42.5351	0	
1.9980	-4.34249	-16.9133	0	
1.9987	-4.03506	19.7202	0	
1.9993	-2.80533	34.6902	0	
2.0000	-3.42019	23.9665	0	
2.0007	-3.72763	10.8677	0	
2.0013	-2.4979	4.46222	0	
2.0020	-1.26816	2.30308	0	
2.0027	-1.5756	4.46222	0	
2.0033	-2.4979	7.19714	0	
2.0040	-2.19046	10.5798	0	
2.0047	-0.653296	18.2088	0	
2.0053	2.69004	22.4551	0	
2.0060	2.99747	18.7845	0	
2.0067	-0.653296	12.3791	0	
2.0073	-1.5756	6.90925	0	
2.0080	1.76774	2.30308	0	
2.0087	1.15287	1.43943	0	
2.0093	-2.80533	2.0152	0	
2.0100	-1.5756	2.95083	0	
2.0107	1.15287	3.23871	0	
2.0113	0.576437	-0.431828	0	
2.0120	0.576437	-4.39025	0	
2.0127	2.38261	-1.65534	0	
2.0133	2.38261	1.72731	0	
2.0140	0.845441	2.30308	0	
2.0147	0.576437	5.10997	0	
2.0153	-0.345862	8.70854	0	
2.0160	-2.4979	9.35628	0	
2.0167	-3.11276	10.5798	0	
2.0173	-2.4979	10.5798	0	
2.0180	-1.5756	8.70854	0	
2.0187	-0.345862	5.10997	0	
2.0193	1.15287	-7.77291	0	
2.0200	-0.653296	-24.2543	0	
2.0207	-3.42019	-20.8717	0	
2.0213	-2.4979	-6.54939	0	
2.0220	-0.960729	-7.41305	0	
2.0227	-2.19046	-16.9133	0	
2.0233	-3.72763	-17.7769	0	
2.0240	-2.4979	-15.9776	0	
2.0247	-0.653296	-15.4019	0	
2.0253	-2.19046	-11.7313	0	
2.0260	-3.11276	-6.54939	0	
2.0267	-0.345862	-2.519	0	
2.0273	1.15287	-1.94323	0	
2.0280	0.269004	-4.10237	0	
2.0287	1.15287	-3.16674	0	
2.0293	1.76774	1.07957	0	
2.0300	-1.26816	0.791685	0	
2.0307	-3.42019	-0.719714	0	
2.0313	-0.0384292	0.5038	0	
2.0320	5.76437	-0.143943	0	
2.0327	7.26311	-2.519	0	
2.0333	3.61234	-3.45463	0	
2.0340	-0.0384292	-5.32588	0	
2.0347	-0.0384292	-8.06079	0	
2.0353	0.845441	-10.5078	0	
2.0360	-0.0384292	-12.595	0	
2.0367	0.269004	-13.2427	0	
2.0373	1.15287	-8.99642	0	
2.0380	-0.0384292	-8.06079	0	
2.0387	-1.88303	-12.0192	0	
2.0393	-2.4979	-10.5078	0	
2.0400	-4.03506	-2.87885	0	
2.0407	-5.5338	0.5038	0	
2.0413	-5.22637	-1.94323	0	
2.0420	-3.11276	-3.45463	0	
2.0427	-1.5756	-4.10237	0	
2.0433	-2.4979	-3.45463	0	
2.0440	-2.4979	-1.36746	0	
2.0447	-0.0384292	-1.94323	0	
2.0453	-0.345862	-3.16674	0	
2.0460	-1.26816	-1.65534	0	
2.0467	1.15287	-0.719714	0	
2.0473	1.46031	-0.431828	0	
2.0480	-1.5756	2.0152	0	
2.0487	-0.653296	3.23871	0	
2.0493	1.15287	1.72731	0	
2.0500	0.845441	1.43943	0	
2.0507	2.07517	0.791685	0	
2.0513	3.91977	0.5038	0	
2.0520	3.30491	1.72731	0	
2.0527	2.99747	0.791685	0	
2.0533	1.46031	-2.23111	0	
2.0540	-0.0384292	-3.45463	0	
2.0547	1.15287	-4.96602	0	
2.0553	1.15287	-7.12517	0	
2.0560	-1.5756	-9.86008	0	
2.0567	-0.0384292	-14.4662	0	
2.0573	3.91977	-20.224	0	
2.0580	2.69004	-26.3415	0	
2.0587	-0.345862	-32.4591	0	
2.0593	-0.653296	-33.3947	0	
2.0600	-0.960729	-30.9477	0	
2.0607	-1.5756	-27.8529	0	
2.0613	-2.19046	-4.96602	0	
2.0620	-4.03506	42.607	0	
2.0627	-4.91893	75.5699	0	
2.0633	-4.6115	73.7706	0	
2.0640	-4.6115	55.418	0	
2.0647	-3.42019	36.4895	0	
2.0653	-2.4979	22.4551	0	
2.0660	-2.4979	16.3375	0	
2.0667	-2.19046	11.8033	0	
2.0673	-0.960729	4.46222	0	
2.0680	0.269004	2.95083	0	
2.0687	1.76774	3.23871	0	
2.0693	1.76774	-2.23111	0	
2.0700	-0.653296	-10.7957	0	
2.0707	-0.960729	-19.3603	0	
2.0713	1.15287	-26.6294	0	
2.0720	2.07517	-30.9477	0	
2.0727	0.576437	-30.9477	0	
2.0733	-1.26816	-17.489	0	
2.0740	-1.26816	16.6974	0	
2.0747	1.46031	49.9481	0	
2.0753	2.69004	53.9066	0	
2.0760	1.15287	35.266	0	
2.0767	0.269004	17.561	0	
2.0773	-0.345862	7.84488	0	
2.0780	-1.88303	5.10997	0	
2.0787	-2.19046	6.90925	0	
2.0793	-1.88303	7.19714	0	
2.0800	-4.03506	6.90925	0	
2.0807	-3.42019	13.6026	0	
2.0813	0.269004	22.1672	0	
2.0820	-0.653296	21.2316	0	
2.0827	-3.72763	14.5382	0	
2.0833	-2.19046	8.70854	0	
2.0840	-0.960729	3.5266	0	
2.0847	-2.4979	-1.0076	0	
2.0853	-0.960729	-2.87885	0	
2.0860	2.07517	-4.39025	0	
2.0867	2.69004	-8.63656	0	
2.0873	2.38261	-12.595	0	
2.0880	1.15287	-11.7313	0	
2.0887	-0.345862	-10.5078	0	
2.0893	0.576437	-11.7313	0	
2.0900	1.15287	-11.3715	0	
2.0907	0.269004	-8.34868	0	
2.0913	1.15287	-4.10237	0	
2.0920	2.99747	0.215914	0	
2.0927	3.91977	3.23871	0	
2.0933	4.84207	5.97362	0	
2.0940	4.22721	11.8033	0	
2.0947	2.07517	15.4738	0	
2.0953	1.15287	12.3791	0	
2.0960	2.07517	10.5798	0	
2.0967	3.61234	13.3147	0	
2.0973	3.91977	14.2503	0	
2.0980	2.07517	13.6026	0	
2.0987	-0.653296	15.114	0	
2.0993	-0.960729	14.8261	0	
2.1000	-0.653296	1.43943	0	
2.1007	-1.26816	-28.7885	0	
2.1013	-0.653296	-53.5467	0	
2.1020	0.269004	-49.8762	0	
2.1027	-0.653296	-31.5235	0	
2.1033	-0.960729	-21.1596	0	
2.1040	0.576437	-17.7769	0	
2.1047	0.269004	-16.9133	0	
2.1053	-1.88303	-16.6254	0	
2.1060	-0.345862	-12.595	0	
2.1067	2.38261	-8.63656	0	
2.1073	1.76774	-10.5078	0	
2.1080	1.15287	-11.7313	0	
2.1087	2.38261	-10.148	0	
2.1093	3.61234	-10.5078	0	
2.1100	3.91977	-9.57219	0	
2.1107	3.91977	-4.96602	0	
2.1113	2.69004	-1.94323	0	
2.1120	0.845441	-2.87885	0	
2.1127	-0.653296	-3.16674	0	
2.1133	-1.26816	-2.519	0	
2.1140	1.46031	-2.87885	0	
2.1147	2.69004	-1.94323	0	
2.1153	-1.5756	-0.431828	0	
2.1160	-4.6115	-0.431828	0	
2.1167	-2.19046	-0.431828	0	
2.1173	-1.26816	-2.23111	0	
2.1180	-4.34249	-5.61377	0	
2.1187	-6.14866	-7.77291	0	
2.1193	-5.22637	-7.41305	0	
2.1200	-4.34249	-7.77291	0	
2.1207	-3.11276	-11.7313	0	
2.1213	-2.80533	-18.7126	0	
2.1220	-4.34249	-20.5838	0	
2.1227	-4.6115	-18.1368	0	
2.1233	-2.80533	-20.5838	0	
2.1240	-2.19046	-23.3187	0	
2.1247	-3.42019	-21.8073	0	
2.1253	-1.26816	-25.4779	0	
2.1260	3.61234	-30.2999	0	
2.1267	2.99747	-26.6294	0	
2.1273	-0.653296	-24.2543	0	
2.1280	0.576437	-15.6898	0	
2.1287	4.84207	23.1028	0	
2.1293	5.76437	66.7175	0	
2.1300	5.14951	74.6343	0	
2.1307	6.34081	58.8006	0	
2.1313	7.57054	42.607	0	
2.1320	5.76437	26.4135	0	
2.1327	4.53464	17.2731	0	
2.1333	6.34081	16.9852	0	
2.1340	6.95568	14.8261	0	
2.1347	3.91977	10.5798	0	
2.1353	0.269004	10.5798	0	
2.1360	-0.0384292	11.5154	0	
2.1367	1.46031	9.93205	0	
2.1373	0.576437	7.84488	0	
2.1380	-4.34249	5.10997	0	
2.1387	-8.60813	1.43943	0	
2.1393	-7.99326	-3.74251	0	
2.1400	-5.5338	-4.96602	0	
2.1407	-7.68583	-1.36746	0	
2.1413	-11.644	0.791685	0	
2.1420	-10.1069	-1.0076	0	
2.1427	-5.5338	-1.65534	0	
2.1433	-5.84123	-1.0076	0	
2.1440	-6.76353	0.5038	0	
2.1447	-3.42019	2.66294	0	
2.1453	-2.19046	2.30308	0	
2.1460	-4.34249	1.43943	0	
2.1467	-4.03506	3.5266	0	
2.1473	-0.653296	4.17434	0	
2.1480	0.576437	3.88645	0	
2.1487	0.845441	4.75011	0	
2.1493	2.07517	1.72731	0	
2.1500	3.30491	-1.65534	0	
2.1507	3.91977	2.0152	0	
2.1513	2.07517	5.39785	0	
2.1520	1.46031	2.30308	0	
2.1527	3.91977	-0.143943	0	
2.1533	3.91977	1.07957	0	
2.1540	0.269004	1.72731	0	
2.1547	-0.0384292	0.5038	0	
2.1553	2.38261	-1.36746	0	
2.1560	1.15287	-0.431828	0	
2.1567	-0.345862	0.791685	0	
2.1573	0.269004	-1.94323	0	
2.1580	-1.5756	-5.32588	0	
2.1587	-3.11276	-7.41305	0	
2.1593	-3.42019	-10.5078	0	
2.1600	-6.76353	-12.595	0	
2.1607	-8.3007	-11.7313	0	
2.1613	-4.91893	-11.7313	0	
2.1620	-2.4979	-12.3071	0	
2.1627	-4.03506	-10.5078	0	
2.1633	-4.91893	-7.77291	0	
2.1640	-4.34249	-5.32588	0	
2.1647	-3.42019	-4.10237	0	
2.1653	-2.19046	-2.23111	0	
2.1660	-1.5756	1.43943	0	
2.1667	0.269004	4.46222	0	
2.1673	2.69004	5.10997	0	
2.1680	1.76774	5.68574	0	
2.1687	-0.345862	3.5266	0	
2.1693	1.15287	0.215914	0	
2.1700	2.99747	0.5038	0	
2.1707	2.99747	1.07957	0	
2.1713	2.99747	-2.23111	0	
2.1720	2.38261	-2.87885	0	
2.1727	1.15287	-1.94323	0	
2.1733	2.07517	-4.67814	0	
2.1740	2.99747	-7.41305	0	
2.1747	1.15287	-9.86008	0	
2.1753	-1.5756	-15.9776	0	
2.1760	-1.26816	-24.2543	0	
2.1767	-0.960729	-29.4363	0	
2.1773	-0.960729	-32.747	0	
2.1780	-0.0384292	-36.1296	0	
2.1787	-1.26816	-32.747	0	
2.1793	-5.22637	-7.12517	0	
2.1800	-6.4561	34.9781	0	
2.1807	-3.72763	58.8006	0	
2.1813	-3.72763	49.0125	0	
2.1820	-4.34249	28.5726	0	
2.1827	-0.960729	17.9209	0	
2.1833	2.69004	15.114	0	
2.1840	2.07517	15.114	0	
2.1847	0.269004	16.6974	0	
2.1853	-0.653296	18.7845	0	
2.1860	-0.653296	18.7845	0	
2.1867	0.576437	15.114	0	
2.1873	2.07517	11.1556	0	
2.1880	1.46031	10.5798	0	
2.1887	1.46031	11.5154	0	
2.1893	2.69004	9.64416	0	
2.1900	2.07517	4.17434	0	
2.1907	2.38261	-0.431828	0	
2.1913	4.53464	-0.719714	0	
2.1920	3.91977	-0.143943	0	
2.1927	2.99747	-0.431828	0	
2.1933	3.61234	-0.431828	0	
2.1940	1.15287	-1.0076	0	
2.1947	-1.88303	-0.431828	0	
2.1953	-1.26816	2.30308	0	
2.1960	-0.345862	1.43943	0	
2.1967	-2.4979	-2.23111	0	
2.1973	-2.4979	-2.519	0	
2.1980	-1.5756	-0.719714	0	
2.1987	-4.34249	1.72731	0	
2.1993	-5.22637	4.17434	0	
2.2000	-3.42019	1.43943	0	
2.2007	-4.91893	-2.23111	0	
2.2013	-8.3007	-5.90165	0	
2.2020	-6.14866	-22.3831	0	
2.2027	-2.4979	-45.9177	0	
2.2033	-2.4979	-48.0049	0	
2.2040	-2.19046	-31.8833	0	
2.2047	0.269004	-19.3603	0	
2.2053	-1.5756	-12.3071	0	
2.2060	-3.42019	-8.63656	0	
2.2067	0.576437	-11.0836	0	
2.2073	2.99747	-9.28431	0	
2.2080	0.269004	2.95083	0	
2.2087	1.15287	12.3791	0	
2.2093	4.22721	12.3791	0	
2.2100	0.845441	7.48502	0	
2.2107	-1.5756	3.23871	0	
2.2113	2.07517	1.43943	0	
2.2120	3.91977	0.791685	0	
2.2127	2.69004	-0.431828	0	
2.2133	2.99747	-0.431828	0	
2.2140	1.76774	0.5038	0	
2.2147	-0.960729	0.215914	0	
2.2153	-1.5756	-0.719714	0	
2.2160	-0.653296	-1.94323	0	
2.2167	-0.653296	-2.23111	0	
2.2173	0.845441	-2.519	0	
2.2180	1.46031	-4.39025	0	
2.2187	-0.345862	-7.41305	0	
2.2193	-1.5756	-10.148	0	
2.2200	-1.5756	-14.4662	0	
2.2207	-1.26816	-19.0004	0	
2.2213	-0.653296	-22.3831	0	
2.2220	0.269004	-27.2771	0	
2.2227	0.269004	-29.7242	0	
2.2233	-0.960729	-27.2771	0	
2.2240	-2.19046	-28.5007	0	
2.2247	-0.653296	-21.8073	0	
2.2253	1.15287	12.0912	0	
2.2260	0.845441	57.2892	0	
2.2267	0.576437	79.5284	0	
2.2273	3.61234	74.0585	0	
2.2280	4.22721	57.2892	0	
2.2287	2.38261	40.4479	0	
2.2293	2.69004	29.1484	0	
2.2300	0.576437	22.4551	0	
2.2307	-2.4979	19.4323	0	
2.2313	-0.653296	18.2088	0	
2.2320	2.07517	16.9852	0	
2.2327	0.269004	13.3147	0	
2.2333	-0.0384292	8.70854	0	
2.2340	2.07517	5.97362	0	
2.2347	1.46031	4.17434	0	
2.2353	0.269004	-1.36746	0	
2.2360	1.15287	-6.83728	0	
2.2367	0.576437	-6.83728	0	
2.2373	-0.653296	-6.18954	0	
2.2380	-1.26816	-9.57219	0	
2.2387	-0.653296	-10.7957	0	
2.2393	-0.345862	-8.06079	0	
2.2400	-1.5756	-7.77291	0	
2.2407	-3.11276	-10.7957	0	
2.2413	-1.26816	-9.86008	0	
2.2420	1.76774	-4.10237	0	
2.2427	2.07517	-3.45463	0	
2.2433	1.15287	-8.63656	0	
2.2440	0.576437	-9.28431	0	
2.2447	-0.345862	-6.18954	0	
2.2453	0.845441	-7.41305	0	
2.2460	2.07517	-10.148	0	
2.2467	0.269004	-10.148	0	
2.2473	-0.960729	-8.63656	0	
2.2480	0.845441	-6.54939	0	
2.2487	1.76774	-4.96602	0	
2.2493	1.46031	-4.96602	0	
2.2500	3.61234	-2.23111	0	
2.2507	3.91977	-0.719714	0	
2.2513	2.07517	-3.16674	0	
2.2520	2.99747	-3.16674	0	
2.2527	3.30491	0.215914	0	
2.2533	0.845441	0.5038	0	
2.2540	-0.653296	1.43943	0	
2.2547	1.46031	4.46222	0	
2.2553	2.69004	5.68574	0	
2.2560	1.76774	4.17434	0	
2.2567	1.15287	2.30308	0	
2.2573	1.76774	1.43943	0	
2.2580	1.46031	3.5266	0	
2.2587	-2.4979	3.5266	0	
2.2593	-4.6115	-1.36746	0	
2.2600	-3.11276	-4.96602	0	
2.2607	-2.4979	-5.90165	0	
2.2613	-3.11276	-7.77291	0	
2.2620	-2.4979	-8.06079	0	
2.2627	-3.42019	-8.34868	0	
2.2633	-5.22637	-11.3715	0	
2.2640	-4.91893	-13.2427	0	
2.2647	-4.6115	-11.7313	0	
2.2653	-4.34249	-10.5078	0	
2.2660	-2.4979	-8.34868	0	
2.2667	-1.88303	-3.74251	0	
2.2673	-0.653296	-2.23111	0	
2.2680	1.15287	-3.45463	0	
2.2687	0.269004	-2.23111	0	
2.2693	-0.653296	-0.143943	0	
2.2700	1.76774	1.43943	0	
2.2707	1.76774	3.5266	0	
2.2713	0.269004	3.88645	0	
2.2720	1.76774	1.07957	0	
2.2727	2.99747	0.5038	0	
2.2733	2.99747	1.43943	0	
2.2740	4.22721	-1.36746	0	
2.2747	2.99747	-4.96602	0	
2.2753	-0.345862	-7.77291	0	
2.2760	-1.5756	-11.3715	0	
2.2767	-1.5756	-17.489	0	
2.2773	-0.653296	-24.5422	0	
2.2780	0.269004	-31.8833	0	
2.2787	-1.26816	-36.1296	0	
2.2793	-1.88303	-35.194	0	
2.2800	-0.0384292	-20.8717	0	
2.2807	-2.4979	12.0912	0	
2.2813	-6.14866	45.342	0	
2.2820	-5.22637	51.4595	0	
2.2827	-3.72763	32.5311	0	
2.2833	-3.42019	11.8033	0	
2.2840	-2.19046	1.72731	0	
2.2847	-1.88303	1.43943	0	
2.2853	-2.4979	1.07957	0	
2.2860	-0.653296	-1.36746	0	
2.2867	-1.5756	2.30308	0	
2.2873	-3.72763	12.3791	0	
2.2880	-0.653296	17.561	0	
2.2887	1.15287	14.8261	0	
2.2893	-1.5756	10.2919	0	
2.2900	-1.5756	5.97362	0	
2.2907	0.269004	3.88645	0	
2.2913	-1.88303	3.5266	0	
2.2920	-1.5756	3.23871	0	
2.2927	1.76774	2.66294	0	
2.2933	1.15287	1.72731	0	
2.2940	-0.960729	-3.16674	0	
2.2947	-1.88303	-7.12517	0	
2.2953	-3.72763	-5.61377	0	
2.2960	-3.42019	-2.87885	0	
2.2967	-1.26816	-1.36746	0	
2.2973	-2.4979	1.07957	0	
2.2980	-5.22637	3.23871	0	
2.2987	-3.72763	4.46222	0	
2.2993	-1.5756	5.39785	0	
2.3000	-0.653296	6.90925	0	
2.3007	-0.345862	11.1556	0	
2.3013	-1.5756	16.0496	0	
2.3020	-3.11276	18.4966	0	
2.3027	-2.4979	18.4966	0	
2.3033	-1.88303	17.561	0	
2.3040	-2.4979	15.4738	0	
2.3047	-0.653296	15.7617	0	
2.3053	2.99747	9.93205	0	
2.3060	5.14951	-14.4662	0	
2.3067	5.45694	-41.0237	0	
2.3073	3.61234	-40.7358	0	
2.3080	0.576437	-26.6294	0	
2.3087	1.46031	-25.7657	0	
2.3093	3.61234	-30.2999	0	
2.3100	2.38261	-30.2999	0	
2.3107	2.99747	-34.9061	0	
2.3113	4.84207	-39.1524	0	
2.3120	1.15287	-34.9061	0	
2.3127	-0.653296	-31.5235	0	
2.3133	1.76774	-23.0308	0	
2.3140	1.15287	11.5154	0	
2.3147	-0.653296	55.418	0	
2.3153	-0.653296	71.3236	0	
2.3160	-3.11276	60.312	0	
2.3167	-5.5338	43.5427	0	
2.3173	-3.11276	28.2847	0	
2.3180	-1.5756	17.2731	0	
2.3187	-4.03506	12.3791	0	
2.3193	-5.22637	8.13276	0	
2.3200	-4.34249	4.46222	0	
2.3207	-4.03506	1.72731	0	
2.3213	-4.91893	-2.519	0	
2.3220	-5.22637	-3.45463	0	
2.3227	-4.34249	-0.431828	0	
2.3233	-3.11276	-1.36746	0	
2.3240	-2.19046	-2.519	0	
2.3247	-2.80533	0.5038	0	
2.3253	-3.11276	2.30308	0	
2.3260	-0.960729	2.0152	0	
2.3267	2.07517	2.66294	0	
2.3273	2.99747	1.07957	0	
2.3280	2.07517	-1.0076	0	
2.3287	1.15287	-0.143943	0	
2.3293	0.845441	-0.719714	0	
2.3300	2.69004	-4.10237	0	
2.3307	3.61234	-5.90165	0	
2.3313	1.15287	-7.12517	0	
2.3320	-0.0384292	-7.41305	0	
2.3327	2.07517	-4.96602	0	
2.3333	4.84207	-3.16674	0	
2.3340	4.53464	-4.10237	0	
2.3347	2.07517	-4.96602	0	
2.3353	1.15287	-4.10237	0	
2.3360	2.99747	-2.519	0	
2.3367	1.46031	-2.519	0	
2.3373	-3.11276	-3.16674	0	
2.3380	-0.653296	-2.23111	0	
2.3387	3.61234	-2.23111	0	
2.3393	-1.26816	-3.74251	0	
2.3400	-5.22637	-2.87885	0	
2.3407	-1.5756	-1.36746	0	
2.3413	0.269004	-3.74251	0	
2.3420	-3.42019	-5.90165	0	
2.3427	-5.22637	-4.39025	0	
2.3433	-4.91893	-3.45463	0	
2.3440	-3.11276	-4.67814	0	
2.3447	0.269004	-4.39025	0	
2.3453	0.576437	-3.16674	0	
2.3460	-1.5756	-2.519	0	
2.3467	0.269004	-1.0076	0	
2.3473	2.07517	1.07957	0	
2.3480	1.15287	2.66294	0	
2.3487	2.69004	2.95083	0	
2.3493	5.14951	2.0152	0	
2.3500	4.22721	0.5038	0	
2.3507	3.61234	-1.36746	0	
2.3513	4.84207	-0.719714	0	
2.3520	4.84207	1.43943	0	
2.3527	1.15287	2.30308	0	
2.3533	-0.653296	1.07957	0	
2.3540	1.15287	2.0152	0	
2.3547	2.07517	3.5266	0	
2.3553	1.15287	3.23871	0	
2.3560	0.269004	2.0152	0	
2.3567	-0.653296	0.791685	0	
2.3573	-1.5756	-1.36746	0	
2.3580	-1.5756	-1.65534	0	
2.3587	-1.5756	-0.719714	0	
2.3593	-0.960729	-2.23111	0	
2.3600	-0.960729	-5.61377	0	
2.3607	-2.4979	-7.12517	0	
2.3613	-1.5756	-8.06079	0	
2.3620	1.46031	-8.99642	0	
2.3627	0.269004	-8.06079	0	
2.3633	-3.42019	-8.34868	0	
2.3640	-2.4979	-10.148	0	
2.3647	-1.5756	-9.57219	0	
2.3653	-2.19046	-6.54939	0	
2.3660	-0.345862	-6.83728	0	
2.3667	1.15287	-7.41305	0	
2.3673	0.269004	-4.10237	0	
2.3680	1.46031	-0.719714	0	
2.3687	2.99747	-1.65534	0	
2.3693	2.38261	-4.39025	0	
2.3700	3.91977	-4.96602	0	
2.3707	5.45694	-3.16674	0	
2.3713	2.99747	-2.87885	0	
2.3720	1.76774	-4.67814	0	
2.3727	4.84207	-5.32588	0	
2.3733	4.84207	-2.87885	0	
2.3740	2.38261	-1.94323	0	
2.3747	2.69004	-4.39025	0	
2.3753	2.99747	-5.90165	0	
2.3760	0.269004	-4.10237	0	
2.3767	-1.5756	-1.94323	0	
2.3773	-1.5756	-1.36746	0	
2.3780	-0.653296	-0.431828	0	
2.3787	-0.653296	2.0152	0	
2.3793	-3.42019	1.07957	0	
2.3800	-7.3784	-4.96602	0	
2.3807	-8.3007	-13.2427	0	
2.3813	-6.4561	-22.3831	0	
2.3820	-5.5338	-28.7885	0	
2.3827	-5.5338	-33.9705	0	
2.3833	-4.6115	-39.1524	0	
2.3840	-3.42019	-36.1296	0	
2.3847	-1.5756	-13.8185	0	
2.3853	-1.88303	20.6558	0	
2.3860	-3.42019	41.6714	0	
2.3867	-1.26816	34.4023	0	
2.3873	3.91977	10.5798	0	
2.3880	3.61234	-6.54939	0	
2.3887	-0.0384292	-13.2427	0	
2.3893	1.15287	-13.8185	0	
2.3900	3.30491	4.75011	0	
2.3907	2.69004	46.8534	0	
2.3913	2.38261	83.7747	0	
2.3920	3.61234	88.0929	0	
2.3927	2.99747	67.941	0	
2.3933	2.38261	46.5655	0	
2.3940	1.46031	32.5311	0	
2.3947	-0.653296	25.19	0	
2.3953	-1.5756	20.6558	0	
2.3960	-0.653296	13.3147	0	
2.3967	-0.653296	4.17434	0	
2.3973	-0.960729	1.07957	0	
2.3980	-0.345862	2.66294	0	
2.3987	-0.960729	1.72731	0	
2.3993	-2.4979	-0.431828	0	
2.4000	-3.72763	-0.431828	0	
2.4007	-5.84123	-1.65534	0	
2.4013	-5.5338	-3.74251	0	
2.4020	-3.42019	-4.96602	0	
2.4027	-5.22637	-6.54939	0	
2.4033	-7.07096	-6.54939	0	
2.4040	-5.84123	-6.54939	0	
2.4047	-5.84123	-8.63656	0	
2.4053	-6.14866	-6.18954	0	
2.4060	-2.4979	-2.23111	0	
2.4067	-0.653296	-4.10237	0	
2.4073	-1.5756	-3.74251	0	
2.4080	-0.345862	1.43943	0	
2.4087	0.269004	0.5038	0	
2.4093	-1.26816	-2.23111	0	
2.4100	-0.960729	-0.719714	0	
2.4107	-0.653296	-2.23111	0	
2.4113	-0.960729	-6.83728	0	
2.4120	0.269004	-4.96602	0	
2.4127	0.845441	-3.45463	0	
2.4133	-0.345862	-6.18954	0	
2.4140	-0.345862	-6.83728	0	
2.4147	-0.345862	-6.18954	0	
2.4153	0.269004	-8.06079	0	
2.4160	1.76774	-7.77291	0	
2.4167	0.845441	-6.54939	0	
2.4173	-0.653296	-6.83728	0	
2.4180	2.07517	-6.83728	0	
2.4187	3.30491	-5.61377	0	
2.4193	-0.0384292	-5.32588	0	
2.4200	-0.960729	-4.10237	0	
2.4207	1.46031	-1.36746	0	
2.4213	2.07517	-0.431828	0	
2.4220	-0.345862	0.791685	0	
2.4227	-2.4979	3.23871	0	
2.4233	-2.4979	3.88645	0	
2.4240	0.269004	2.95083	0	
2.4247	1.15287	3.23871	0	
2.4253	-0.653296	2.66294	0	
2.4260	-1.5756	-1.36746	0	
2.4267	-1.5756	-3.16674	0	
2.4273	-2.19046	-0.719714	0	
2.4280	0.845441	-0.719714	0	
2.4287	5.14951	-3.16674	0	
2.4293	2.99747	-2.87885	0	
2.4300	-0.960729	-2.519	0	
2.4307	0.576437	-4.10237	0	
2.4313	2.07517	-3.16674	0	
2.4320	2.07517	-2.23111	0	
2.4327	3.91977	-1.94323	0	
2.4333	3.91977	0.5038	0	
2.4340	0.269004	2.0152	0	
2.4347	-2.80533	-1.0076	0	
2.4353	-2.80533	-3.74251	0	
2.4360	-1.5756	-3.45463	0	
2.4367	-2.19046	-4.96602	0	
2.4373	-3.72763	-8.99642	0	
2.4380	-4.34249	-9.57219	0	
2.4387	-5.5338	-7.12517	0	
2.4393	-7.07096	-8.06079	0	
2.4400	-5.22637	-9.57219	0	
2.4407	-4.34249	-15.042	0	
2.4413	-6.76353	-34.9061	0	
2.4420	-3.72763	-54.7702	0	
2.4427	0.845441	-50.7398	0	
2.4433	-1.88303	-32.4591	0	
2.4440	-4.03506	-19.3603	0	
2.4447	-1.5756	-9.57219	0	
2.4453	-2.80533	-3.16674	0	
2.4460	-3.72763	-1.0076	0	
2.4467	0.269004	1.72731	0	
2.4473	0.845441	5.68574	0	
2.4480	-0.345862	12.3791	0	
2.4487	2.99747	23.6786	0	
2.4493	3.61234	25.8377	0	
2.4500	-0.653296	16.0496	0	
2.4507	-2.19046	10.5798	0	
2.4513	0.269004	11.8033	0	
2.4520	1.46031	8.42065	0	
2.4527	2.69004	4.17434	0	
2.4533	2.99747	3.5266	0	
2.4540	1.76774	1.07957	0	
2.4547	2.07517	-1.36746	0	
2.4553	2.99747	-1.65534	0	
2.4560	1.76774	-3.16674	0	
2.4567	0.269004	-5.90165	0	
2.4573	0.845441	-8.99642	0	
2.4580	0.269004	-12.3071	0	
2.4587	-0.960729	-13.5306	0	
2.4593	0.269004	-14.7541	0	
2.4600	2.07517	-21.4475	0	
2.4607	1.15287	-25.118	0	
2.4613	-1.5756	-23.3187	0	
2.4620	-1.5756	-23.6066	0	
2.4627	-0.345862	-11.3715	0	
2.4633	-0.345862	27.9969	0	
2.4640	0.269004	67.3652	0	
2.4647	0.269004	76.1457	0	
2.4653	-1.5756	60.0241	0	
2.4660	-2.19046	39.5843	0	
2.4667	-0.653296	26.1256	0	
2.4673	-0.653296	19.4323	0	
2.4680	-1.26816	12.0912	0	
2.4687	0.845441	4.17434	0	
2.4693	1.46031	2.0152	0	
2.4700	1.46031	3.23871	0	
2.4707	4.22721	4.17434	0	
2.4713	4.84207	4.46222	0	
2.4720	2.99747	3.23871	0	
2.4727	4.22721	2.30308	0	
2.4733	4.84207	2.30308	0	
2.4740	1.46031	0.791685	0	
2.4747	1.15287	-0.431828	0	
2.4753	2.07517	0.791685	0	
2.4760	-0.960729	-0.143943	0	
2.4767	-1.5756	-5.32588	0	
2.4773	0.269004	-10.5078	0	
2.4780	-0.960729	-13.2427	0	
2.4787	-1.5756	-16.6254	0	
2.4793	0.576437	-22.671	0	
2.4800	-1.26816	-29.4363	0	
2.4807	-4.03506	-33.1068	0	
2.4813	-1.5756	-34.2584	0	
2.4820	-0.0384292	-26.0536	0	
2.4827	-0.653296	3.88645	0	
2.4833	-0.960729	39.8721	0	
2.4840	-1.26816	50.5239	0	
2.4847	-0.653296	36.8493	0	
2.4853	0.576437	22.4551	0	
2.4860	-1.5756	12.3791	0	
2.4867	-1.5756	5.97362	0	
2.4873	2.07517	5.10997	0	
2.4880	2.07517	4.75011	0	
2.4887	-0.653296	1.43943	0	
2.4893	0.576437	-0.431828	0	
2.4900	2.99747	-1.36746	0	
2.4907	2.99747	-1.0076	0	
2.4913	2.99747	1.43943	0	
2.4920	2.38261	0.5038	0	
2.4927	1.46031	-3.74251	0	
2.4933	2.07517	-5.90165	0	
2.4940	1.46031	-8.63656	0	
2.4947	0.269004	-13.2427	0	
2.4953	0.269004	-12.3071	0	
2.4960	-2.19046	-8.63656	0	
2.4967	-4.91893	-8.63656	0	
2.4973	-2.4979	-9.86008	0	
2.4980	0.269004	-8.63656	0	
2.4987	-2.4979	-6.83728	0	
2.4993	-4.34249	-4.67814	0	
2.5000	-3.42019	-3.74251	0	
2.5007	-4.91893	-2.87885	0	
2.5013	-6.76353	1.43943	0	
2.5020	-4.03506	4.17434	0	
2.5027	-3.42019	3.88645	0	
2.5033	-7.68583	5.68574	0	
2.5040	-8.3007	7.84488	0	
2.5047	-5.22637	4.17434	0	
2.5053	-6.14866	-0.431828	0	
2.5060	-5.84123	-0.431828	0	
2.5067	-0.345862	-0.143943	0	
2.5073	3.61234	-0.431828	0	
2.5080	2.07517	1.43943	0	
2.5087	0.845441	2.0152	0	
2.5093	1.15287	1.72731	0	
2.5100	0.269004	3.23871	0	
2.5107	-0.0384292	5.10997	0	
2.5113	1.46031	3.23871	0	
2.5120	2.07517	-0.431828	0	
2.5127	0.845441	-0.431828	0	
2.5133	0.269004	2.30308	0	
2.5140	0.269004	3.5266	0	
2.5147	0.269004	3.23871	0	
2.5153	-0.653296	3.5266	0	
2.5160	-2.19046	5.10997	0	
2.5167	-0.960729	4.46222	0	
2.5173	0.576437	0.215914	0	
2.5180	-1.5756	-5.32588	0	
2.5187	-1.88303	-6.83728	0	
2.5193	0.845441	-4.96602	0	
2.5200	-0.653296	-2.87885	0	
2.5207	-3.42019	-2.519	0	
2.5213	0.845441	-3.74251	0	
2.5220	2.99747	-3.16674	0	
2.5227	-1.5756	-1.36746	0	
2.5233	-2.4979	-1.94323	0	
2.5240	1.76774	-1.36746	0	
2.5247	1.46031	2.0152	0	
2.5253	-1.5756	2.66294	0	
2.5260	-1.88303	-0.431828	0	
2.5267	-0.653296	0.791685	0	
2.5273	1.46031	7.19714	0	
2.5280	3.30491	11.5154	0	
2.5287	3.61234	11.8033	0	
2.5293	2.69004	12.7389	0	
2.5300	1.46031	11.8033	0	
2.5307	2.07517	-3.45463	0	
2.5313	3.30491	-31.8833	0	
2.5320	2.69004	-47.1412	0	
2.5327	2.69004	-36.1296	0	
2.5333	3.91977	-23.0308	0	
2.5340	2.07517	-21.4475	0	
2.5347	-1.26816	-20.8717	0	
2.5353	-0.653296	-16.9133	0	
2.5360	0.269004	-13.2427	0	
2.5367	-1.88303	-10.5078	0	
2.5373	-2.19046	-10.148	0	
2.5380	-0.653296	-11.3715	0	
2.5387	-1.26816	-12.9548	0	
2.5393	-2.4979	-15.042	0	
2.5400	-3.11276	-17.7769	0	
2.5407	-3.72763	-19.0004	0	
2.5413	-2.4979	-19.6482	0	
2.5420	-0.0384292	-21.4475	0	
2.5427	0.269004	-24.8301	0	
2.5433	0.845441	-29.4363	0	
2.5440	2.69004	-34.2584	0	
2.5447	1.76774	-37.9289	0	
2.5453	-0.345862	-38.8645	0	
2.5460	-0.653296	-36.4175	0	
2.5467	0.269004	-31.5235	0	
2.5473	1.15287	-13.5306	0	
2.5480	2.69004	26.4135	0	
2.5487	3.91977	67.0053	0	
2.5493	5.14951	78.3048	0	
2.5500	4.84207	63.9825	0	
2.5507	2.07517	46.8534	0	
2.5513	1.15287	32.2432	0	
2.5520	1.76774	16.3375	0	
2.5527	1.15287	-0.431828	0	
2.5533	0.576437	-8.34868	0	
2.5540	2.07517	3.5266	0	
2.5547	2.07517	26.4135	0	
2.5553	0.269004	38.3607	0	
2.5560	-1.26816	36.4895	0	
2.5567	-0.653296	33.4667	0	
2.5573	0.845441	30.7318	0	
2.5580	1.15287	27.637	0	
2.5587	0.269004	23.1028	0	
2.5593	0.269004	16.0496	0	
2.5600	-0.653296	9.93205	0	
2.5607	-3.72763	7.19714	0	
2.5613	-5.22637	5.10997	0	
2.5620	-4.03506	-1.36746	0	
2.5627	-4.03506	-13.2427	0	
2.5633	-5.22637	-25.7657	0	
2.5640	-4.6115	-32.747	0	
2.5647	-4.6115	-33.9705	0	
2.5653	-4.34249	-26.9893	0	
2.5660	-0.960729	-2.23111	0	
2.5667	1.76774	35.266	0	
2.5673	0.269004	57.5771	0	
2.5680	-0.960729	49.3004	0	
2.5687	0.269004	29.7961	0	
2.5693	1.76774	20.3679	0	
2.5700	2.69004	10.8677	0	
2.5707	2.07517	-3.16674	0	
2.5713	1.76774	-4.10237	0	
2.5720	3.91977	3.5266	0	
2.5727	6.03338	6.62137	0	
2.5733	3.91977	10.2919	0	
2.5740	1.15287	5.68574	0	
2.5747	2.07517	-23.8945	0	
2.5753	3.61234	-49.5163	0	
2.5760	1.76774	-40.7358	0	
2.5767	-1.5756	-16.6254	0	
2.5773	-1.26816	4.17434	0	
2.5780	0.576437	22.1672	0	
2.5787	-1.26816	25.19	0	
2.5793	-3.42019	13.8905	0	
2.5800	-1.88303	7.19714	0	
2.5807	-2.4979	5.97362	0	
2.5813	-4.91893	2.30308	0	
2.5820	-2.80533	-1.94323	0	
2.5827	-0.960729	-4.39025	0	
2.5833	-2.4979	-4.96602	0	
2.5840	-2.19046	-3.16674	0	
2.5847	0.269004	-3.74251	0	
2.5853	1.15287	-5.32588	0	
2.5860	1.46031	-4.10237	0	
2.5867	2.07517	-2.23111	0	
2.5873	2.07517	-3.16674	0	
2.5880	1.15287	-4.96602	0	
2.5887	0.269004	-5.32588	0	
2.5893	1.76774	-4.10237	0	
2.5900	3.91977	-4.10237	0	
2.5907	2.38261	-3.16674	0	
2.5913	-0.0384292	0.5038	0	
2.5920	0.269004	3.88645	0	
2.5927	0.845441	1.43943	0	
2.5933	0.269004	-6.54939	0	
2.5940	0.269004	-13.2427	0	
2.5947	-1.26816	-15.9776	0	
2.5953	-2.80533	-15.9776	0	
2.5960	-2.4979	-15.042	0	
2.5967	-4.34249	-12.3071	0	
2.5973	-6.14866	-8.63656	0	
2.5980	-3.11276	-5.90165	0	
2.5987	-0.653296	-4.39025	0	
2.5993	-2.19046	-1.94323	0	
2.6000	-3.11276	1.07957	0	
2.6007	-2.19046	2.66294	0	
2.6013	-2.19046	6.90925	0	
2.6020	-3.11276	12.3791	0	
2.6027	-2.4979	11.8033	0	
2.6033	-0.653296	5.97362	0	
2.6040	-0.653296	2.0152	0	
2.6047	-1.5756	0.5038	0	
2.6053	-1.26816	-1.36746	0	
2.6060	-1.5756	-3.16674	0	
2.6067	-3.42019	-2.23111	0	
2.6073	-3.11276	-0.431828	0	
2.6080	0.269004	-0.719714	0	
2.6087	2.99747	-2.519	0	
2.6093	3.91977	-1.65534	0	
2.6100	3.91977	-0.431828	0	
2.6107	3.91977	-1.94323	0	
2.6113	2.99747	-3.45463	0	
2.6120	0.845441	-3.45463	0	
2.6127	1.15287	-5.32588	0	
2.6133	1.76774	-10.148	0	
2.6140	0.269004	-12.595	0	
2.6147	-0.0384292	-10.7957	0	
2.6153	0.845441	-9.57219	0	
2.6160	-0.345862	-12.3071	0	
2.6167	-1.5756	-16.6254	0	
2.6173	-2.4979	-20.8717	0	
2.6180	-4.34249	-24.5422	0	
2.6187	-3.72763	-28.5007	0	
2.6193	-2.4979	-32.4591	0	
2.6200	-3.72763	-33.3947	0	
2.6207	-3.42019	-32.747	0	
2.6213	-0.653296	-33.3947	0	
2.6220	-0.345862	-17.7769	0	
2.6227	-1.5756	24.3263	0	
2.6233	-3.42019	62.759	0	
2.6240	-3.72763	72.1873	0	
2.6247	-0.653296	61.8234	0	
2.6253	-0.0384292	45.342	0	
2.6260	-1.88303	30.3719	0	
2.6267	0.845441	23.6786	0	
2.6273	3.61234	18.7845	0	
2.6280	0.269004	12.7389	0	
2.6287	0.269004	12.3791	0	
2.6293	5.45694	12.3791	0	
2.6300	4.84207	10.5798	0	
2.6307	2.07517	11.5154	0	
2.6313	4.22721	9.64416	0	
2.6320	4.84207	2.66294	0	
2.6327	1.46031	2.30308	0	
2.6333	0.576437	5.10997	0	
2.6340	2.38261	3.5266	0	
2.6347	1.15287	5.10997	0	
2.6353	-3.11276	6.90925	0	
2.6360	-4.34249	0.791685	0	
2.6367	-1.5756	-3.74251	0	
2.6373	0.269004	-1.36746	0	
2.6380	0.845441	-2.519	0	
2.6387	2.99747	-6.54939	0	
2.6393	3.61234	-8.63656	0	
2.6400	0.576437	-12.3071	0	
2.6407	-2.80533	-14.7541	0	
2.6413	-4.34249	-15.042	0	
2.6420	-4.03506	-21.1596	0	
2.6427	-2.4979	-27.8529	0	
2.6433	-3.11276	-30.6598	0	
2.6440	-4.03506	-36.1296	0	
2.6447	-1.5756	-43.7586	0	
2.6453	0.269004	-46.2056	0	
2.6460	0.269004	-46.2056	0	
2.6467	0.845441	-35.8417	0	
2.6473	1.15287	0.5038	0	
2.6480	-0.960729	42.0313	0	
2.6487	-1.5756	50.8838	0	
2.6493	0.269004	31.3075	0	
2.6500	1.76774	18.7845	0	
2.6507	3.91977	22.1672	0	
2.6513	4.53464	23.9665	0	
2.6520	0.845441	19.7202	0	
2.6527	-0.960729	15.4738	0	
2.6533	1.46031	9.64416	0	
2.6540	2.07517	3.23871	0	
2.6547	-0.960729	0.215914	0	
2.6553	-2.19046	-1.65534	0	
2.6560	-0.653296	-4.96602	0	
2.6567	-1.5756	-6.18954	0	
2.6573	-3.42019	-5.90165	0	
2.6580	-2.19046	-5.32588	0	
2.6587	-1.88303	-3.16674	0	
2.6593	-3.42019	-1.36746	0	
2.6600	-3.11276	-1.65534	0	
2.6607	-2.80533	-1.94323	0	
2.6613	-4.6115	-1.36746	0	
2.6620	-2.4979	-0.143943	0	
2.6627	0.576437	1.72731	0	
2.6633	-1.5756	3.23871	0	
2.6640	-3.42019	4.46222	0	
2.6647	-1.26816	5.10997	0	
2.6653	-1.5756	4.46222	0	
2.6660	-2.4979	8.13276	0	
2.6667	0.269004	10.5798	0	
2.6673	2.99747	-4.67814	0	
2.6680	2.07517	-26.0536	0	
2.6687	1.15287	-26.9893	0	
2.6693	1.15287	-13.5306	0	
2.6700	0.576437	-6.83728	0	
2.6707	1.15287	-5.32588	0	
2.6713	4.53464	-0.719714	0	
2.6720	4.53464	3.23871	0	
2.6727	0.269004	5.10997	0	
2.6733	-1.26816	5.97362	0	
2.6740	1.76774	5.97362	0	
2.6747	4.22721	5.68574	0	
2.6753	4.22721	4.17434	0	
2.6760	0.845441	-0.431828	0	
2.6767	-2.80533	-3.74251	0	
2.6773	-3.11276	-4.96602	0	
2.6780	-3.11276	-6.83728	0	
2.6787	-4.34249	-8.99642	0	
2.6793	-1.88303	-11.0836	0	
2.6800	0.269004	-10.7957	0	
2.6807	-2.19046	-7.77291	0	
2.6813	-2.4979	-7.41305	0	
2.6820	1.76774	-11.3715	0	
2.6827	2.69004	-13.2427	0	
2.6833	-0.960729	-14.7541	0	
2.6840	-2.19046	-20.8717	0	
2.6847	0.269004	-24.5422	0	
2.6853	1.46031	-26.9893	0	
2.6860	-0.345862	-34.2584	0	
2.6867	-1.5756	-36.1296	0	
2.6873	0.269004	-31.8833	0	
2.6880	0.845441	-30.9477	0	
2.6887	-0.653296	-12.595	0	
2.6893	-0.0384292	33.7546	0	
2.6900	2.99747	68.2289	0	
2.6907	2.99747	68.2289	0	
2.6913	0.576437	55.418	0	
2.6920	-1.26816	40.4479	0	
2.6927	-0.345862	25.19	0	
2.6933	1.76774	18.4966	0	
2.6940	1.76774	15.4738	0	
2.6947	-1.26816	10.2919	0	
2.6953	-2.4979	8.70854	0	
2.6960	-0.0384292	9.35628	0	
2.6967	0.576437	6.26151	0	
2.6973	-2.80533	5.39785	0	
2.6980	-3.72763	8.13276	0	
2.6987	-1.5756	9.64416	0	
2.6993	-3.11276	8.70854	0	
2.7000	-7.07096	6.90925	0	
2.7007	-6.76353	7.84488	0	
2.7013	-4.6115	8.70854	0	
2.7020	-4.91893	6.90925	0	
2.7027	-4.91893	5.10997	0	
2.7033	-4.03506	3.23871	0	
2.7040	-4.34249	0.791685	0	
2.7047	-3.42019	0.791685	0	
2.7053	-1.26816	-0.143943	0	
2.7060	-0.345862	-3.45463	0	
2.7067	1.15287	-3.16674	0	
2.7073	2.69004	-1.94323	0	
2.7080	2.07517	-5.32588	0	
2.7087	0.576437	-5.32588	0	
2.7093	1.15287	-0.143943	0	
2.7100	3.30491	1.43943	0	
2.7107	4.84207	0.5038	0	
2.7113	4.22721	-0.143943	0	
2.7120	1.15287	-3.16674	0	
2.7127	0.576437	-5.90165	0	
2.7133	2.69004	-7.77291	0	
2.7140	3.30491	-12.3071	0	
2.7147	2.99747	-15.042	0	
2.7153	2.07517	-12.3071	0	
2.7160	1.15287	-8.99642	0	
2.7167	1.15287	-7.41305	0	
2.7173	0.576437	-5.90165	0	
2.7180	-1.5756	-5.90165	0	
2.7187	-2.80533	-7.12517	0	
2.7193	-2.4979	-7.41305	0	
2.7200	-2.80533	-7.77291	0	
2.7207	-4.34249	-8.63656	0	
2.7213	-4.6115	-7.41305	0	
2.7220	-3.42019	-4.10237	0	
2.7227	-3.42019	-3.45463	0	
2.7233	-6.14866	-4.96602	0	
2.7240	-6.14866	-3.74251	0	
2.7247	-3.42019	-0.719714	0	
2.7253	-1.5756	0.215914	0	
2.7260	-1.5756	-2.23111	0	
2.7267	-0.653296	-4.10237	0	
2.7273	-0.345862	-3.16674	0	
2.7280	1.46031	-0.431828	0	
2.7287	4.22721	-0.431828	0	
2.7293	2.69004	-2.87885	0	
2.7300	0.269004	-3.16674	0	
2.7307	2.99747	-1.0076	0	
2.7313	5.76437	-1.0076	0	
2.7320	3.61234	-3.16674	0	
2.7327	1.46031	-2.87885	0	
2.7333	1.76774	-2.87885	0	
2.7340	2.07517	-4.96602	0	
2.7347	2.07517	-4.39025	0	
2.7353	2.69004	-1.36746	0	
2.7360	2.07517	-1.0076	0	
2.7367	0.269004	-2.519	0	
2.7373	-0.653296	-3.16674	0	
2.7380	0.269004	-1.0076	0	
2.7387	-1.5756	1.72731	0	
2.7393	-4.03506	2.95083	0	
2.7400	-2.4979	2.30308	0	
2.7407	-1.5756	1.43943	0	
2.7413	-4.91893	1.07957	0	
2.7420	-4.91893	1.43943	0	
2.7427	-0.653296	3.23871	0	
2.7433	0.845441	4.17434	0	
2.7440	-0.653296	3.23871	0	
2.7447	-0.653296	5.10997	0	
2.7453	1.15287	5.68574	0	
2.7460	2.99747	2.66294	0	
2.7467	2.07517	2.30308	0	
2.7473	0.269004	4.75011	0	
2.7480	1.76774	4.17434	0	
2.7487	2.99747	2.95083	0	
2.7493	1.15287	3.5266	0	
2.7500	1.15287	4.46222	0	
2.7507	0.845441	4.17434	0	
2.7513	0.269004	1.43943	0	
2.7520	2.99747	-2.87885	0	
2.7527	4.84207	-4.96602	0	
2.7533	1.15287	-4.96602	0	
2.7540	1.15287	-5.61377	0	
2.7547	4.22721	-4.96602	0	
2.7553	2.38261	-4.10237	0	
2.7560	0.576437	-5.61377	0	
2.7567	1.76774	-5.90165	0	
2.7573	0.269004	-3.16674	0	
2.7580	-2.19046	-2.23111	0	
2.7587	-2.4979	-4.39025	0	
2.7593	-3.42019	-5.61377	0	
2.7600	-2.4979	-3.74251	0	
2.7607	-0.960729	-1.65534	0	
2.7613	-2.4979	-4.96602	0	
2.7620	-3.42019	-14.4662	0	
2.7627	-3.11276	-23.0308	0	
2.7633	-3.11276	-26.6294	0	
2.7640	-2.19046	-30.0121	0	
2.7647	-0.653296	-26.9893	0	
2.7653	-2.80533	-3.45463	0	
2.7660	-4.91893	33.7546	0	
2.7667	-3.42019	55.418	0	
2.7673	-1.26816	46.8534	0	
2.7680	-1.26816	24.3263	0	
2.7687	-1.88303	5.10997	0	
2.7693	-1.5756	-8.63656	0	
2.7700	0.269004	-19.0004	0	
2.7707	1.76774	-26.0536	0	
2.7713	0.845441	-29.7242	0	
2.7720	-0.0384292	-30.6598	0	
2.7727	1.46031	-33.3947	0	
2.7733	2.07517	-40.7358	0	
2.7740	-1.26816	-34.9061	0	
2.7747	-2.80533	4.17434	0	
2.7753	-0.345862	50.8838	0	
2.7760	0.576437	68.5167	0	
2.7767	-1.88303	61.5355	0	
2.7773	-1.26816	48.0769	0	
2.7780	1.46031	31.0197	0	
2.7787	-0.653296	23.1028	0	
2.7793	-3.42019	28.8605	0	
2.7800	-1.88303	30.084	0	
2.7807	-0.960729	22.4551	0	
2.7813	-1.5756	17.2731	0	
2.7820	-0.0384292	13.0268	0	
2.7827	0.845441	8.42065	0	
2.7833	-0.345862	8.70854	0	
2.7840	-1.5756	8.42065	0	
2.7847	-1.5756	5.10997	0	
2.7853	-0.345862	3.88645	0	
2.7860	0.269004	2.30308	0	
2.7867	-0.0384292	1.43943	0	
2.7873	1.15287	2.30308	0	
2.7880	2.69004	0.791685	0	
2.7887	2.38261	0.5038	0	
2.7893	4.22721	2.95083	0	
2.7900	6.64824	-0.143943	0	
2.7907	4.84207	-3.16674	0	
2.7913	3.91977	0.5038	0	
2.7920	6.03338	1.72731	0	
2.7927	6.64824	-1.65534	0	
2.7933	3.91977	-2.23111	0	
2.7940	1.15287	-3.45463	0	
2.7947	0.269004	-6.83728	0	
2.7953	-0.0384292	-5.90165	0	
2.7960	-0.653296	-5.61377	0	
2.7967	-1.26816	-9.57219	0	
2.7973	-2.80533	-11.7313	0	
2.7980	-4.34249	-12.3071	0	
2.7987	-3.72763	-12.3071	0	
2.7993	-3.42019	-9.86008	0	
2.8000	-4.34249	-8.63656	0	
2.8007	-4.34249	-10.5078	0	
2.8013	-3.42019	-14.1784	0	
2.8020	-4.03506	-16.9133	0	
2.8027	-4.34249	-15.9776	0	
2.8033	-3.42019	-11.7313	0	
2.8040	-5.22637	-8.99642	0	
2.8047	-6.76353	-7.77291	0	
2.8053	-4.91893	-5.61377	0	
2.8060	-0.653296	-5.32588	0	
2.8067	1.15287	-8.99642	0	
2.8073	-0.653296	-12.0192	0	
2.8080	-2.19046	-12.595	0	
2.8087	1.46031	-12.3071	0	
2.8093	3.91977	-12.3071	0	
2.8100	1.46031	-12.3071	0	
2.8107	-0.0384292	-12.3071	0	
2.8113	1.46031	-11.0836	0	
2.8120	2.07517	-8.99642	0	
2.8127	1.46031	-6.83728	0	
2.8133	1.46031	-4.96602	0	
2.8140	0.269004	-1.65534	0	
2.8147	-0.653296	3.23871	0	
2.8153	1.46031	7.19714	0	
2.8160	1.15287	9.35628	0	
2.8167	-1.88303	8.70854	0	
2.8173	-2.80533	5.10997	0	
2.8180	-0.653296	3.5266	0	
2.8187	0.269004	4.17434	0	
2.8193	-0.653296	1.43943	0	
2.8200	-2.19046	-1.0076	0	
2.8207	-2.80533	-0.143943	0	
2.8213	-2.19046	0.5038	0	
2.8220	-0.653296	0.5038	0	
2.8227	-0.653296	2.30308	0	
2.8233	-3.11276	2.95083	0	
2.8240	-4.34249	2.0152	0	
2.8247	-0.653296	2.30308	0	
2.8253	2.07517	1.43943	0	
2.8260	-0.653296	-1.0076	0	
2.8267	-2.19046	-2.23111	0	
2.8273	1.46031	-3.16674	0	
2.8280	3.91977	-3.74251	0	
2.8287	2.07517	-2.23111	0	
2.8293	1.15287	-1.36746	0	
2.8300	2.99747	-3.16674	0	
2.8307	3.61234	-2.519	0	
2.8313	3.30491	-1.0076	0	
2.8320	4.22721	-1.36746	0	
2.8327	4.22721	-1.0076	0	
2.8333	2.69004	2.0152	0	
2.8340	1.46031	4.46222	0	
2.8347	2.07517	4.46222	0	
2.8353	3.30491	4.17434	0	
2.8360	2.99747	3.23871	0	
2.8367	0.845441	2.66294	0	
2.8373	-0.345862	3.23871	0	
2.8380	0.269004	3.88645	0	
2.8387	0.269004	0.215914	0	
2.8393	-0.0384292	-6.83728	0	
2.8400	-0.0384292	-11.3715	0	
2.8407	-0.653296	-12.3071	0	
2.8413	-1.5756	-12.3071	0	
2.8420	-1.88303	-12.3071	0	
2.8427	-3.11276	-9.57219	0	
2.8433	-3.42019	-6.18954	0	
2.8440	-2.80533	-7.12517	0	
2.8447	-2.4979	-7.41305	0	
2.8453	-1.5756	-3.16674	0	
2.8460	-0.345862	-0.143943	0	
2.8467	-0.960729	0.5038	0	
2.8473	-0.653296	1.43943	0	
2.8480	1.46031	1.07957	0	
2.8487	0.576437	-2.23111	0	
2.8493	-0.960729	-5.90165	0	
2.8500	1.15287	-7.77291	0	
2.8507	2.07517	-11.0836	0	
2.8513	-0.345862	-18.1368	0	
2.8520	-0.653296	-24.5422	0	
2.8527	0.269004	-31.5235	0	
2.8533	-1.26816	-42.5351	0	
2.8540	-1.88303	-53.5467	0	
2.8547	-2.80533	-57.793	0	
2.8553	-3.72763	-56.2816	0	
2.8560	-1.88303	-36.7054	0	
2.8567	0.269004	3.5266	0	
2.8573	-1.5756	27.9969	0	
2.8580	-3.42019	20.008	0	
2.8587	-1.5756	24.6142	0	
2.8593	-0.0384292	59.0885	0	
2.8600	-1.5756	84.4224	0	
2.8607	-2.19046	81.3996	0	
2.8613	-1.88303	65.4939	0	
2.8620	-2.4979	46.5655	0	
2.8627	-1.5756	33.4667	0	
2.8633	0.269004	27.0612	0	
2.8640	-1.5756	20.9437	0	
2.8647	-2.4979	16.9852	0	
2.8653	0.576437	16.9852	0	
2.8660	2.99747	14.2503	0	
2.8667	1.46031	10.2919	0	
2.8673	0.845441	10.5798	0	
2.8680	2.07517	9.64416	0	
2.8687	1.46031	6.90925	0	
2.8693	0.269004	7.19714	0	
2.8700	2.69004	5.68574	0	
2.8707	4.84207	1.43943	0	
2.8713	3.30491	0.5038	0	
2.8720	2.99747	-1.0076	0	
2.8727	5.76437	-7.12517	0	
2.8733	3.91977	-10.5078	0	
2.8740	-0.960729	-8.34868	0	
2.8747	0.269004	-7.41305	0	
2.8753	2.07517	-9.57219	0	
2.8760	-0.0384292	-9.57219	0	
2.8767	-0.653296	-8.06079	0	
2.8773	1.15287	-9.86008	0	
2.8780	-0.345862	-10.5078	0	
2.8787	-1.26816	-5.61377	0	
2.8793	-1.5756	-0.143943	0	
2.8800	-4.34249	4.17434	0	
2.8807	-4.34249	10.5798	0	
2.8813	-1.5756	19.7202	0	
2.8820	-2.4979	25.5498	0	
2.8827	-3.11276	24.3263	0	
2.8833	-0.653296	15.4738	0	
2.8840	-0.653296	5.97362	0	
2.8847	-2.80533	1.07957	0	
2.8853	-1.88303	-2.87885	0	
2.8860	-0.345862	-6.83728	0	
2.8867	-0.653296	-7.41305	0	
2.8873	-0.0384292	-6.54939	0	
2.8880	2.38261	-6.18954	0	
2.8887	4.84207	-3.16674	0	
2.8893	5.76437	2.66294	0	
2.8900	6.64824	6.62137	0	
2.8907	6.34081	8.70854	0	
2.8913	4.84207	13.3147	0	
2.8920	3.30491	11.5154	0	
2.8927	2.99747	-8.99642	0	
2.8933	2.38261	-36.4175	0	
2.8940	-0.653296	-44.9821	0	
2.8947	-3.11276	-32.4591	0	
2.8953	-1.26816	-19.6482	0	
2.8960	0.269004	-14.7541	0	
2.8967	-2.4979	-11.3715	0	
2.8973	-4.34249	-10.7957	0	
2.8980	-2.80533	-13.5306	0	
2.8987	-3.11276	-14.4662	0	
2.8993	-4.03506	-12.595	0	
2.9000	-2.4979	-12.0192	0	
2.9007	-1.26816	-10.7957	0	
2.9013	-0.345862	-7.12517	0	
2.9020	0.269004	-4.10237	0	
2.9027	-0.960729	-2.23111	0	
2.9033	-1.5756	1.72731	0	
2.9040	0.269004	4.75011	0	
2.9047	1.15287	2.66294	0	
2.9053	-1.5756	0.5038	0	
2.9060	-3.11276	1.72731	0	
2.9067	-0.653296	2.30308	0	
2.9073	1.76774	0.215914	0	
2.9080	1.15287	-1.36746	0	
2.9087	0.576437	-1.65534	0	
2.9093	2.69004	-1.0076	0	
2.9100	3.91977	-1.94323	0	
2.9107	3.61234	-3.74251	0	
2.9113	2.69004	-4.96602	0	
2.9120	1.46031	-7.77291	0	
2.9127	0.845441	-10.5078	0	
2.9133	0.845441	-9.57219	0	
2.9140	-0.345862	-5.61377	0	
2.9147	-0.960729	-3.16674	0	
2.9153	-0.0384292	-3.74251	0	
2.9160	-1.26816	-6.83728	0	
2.9167	-4.34249	-8.06079	0	
2.9173	-6.14866	-5.90165	0	
2.9180	-7.3784	-4.10237	0	
2.9187	-7.99326	-3.74251	0	
2.9193	-5.5338	-4.96602	0	
2.9200	-4.03506	-6.83728	0	
2.9207	-5.22637	-5.90165	0	
2.9213	-4.91893	-2.23111	0	
2.9220	-2.80533	0.5038	0	
2.9227	-1.88303	2.30308	0	
2.9233	-1.88303	2.95083	0	
2.9240	-2.19046	1.72731	0	
2.9247	-2.80533	2.0152	0	
2.9253	-1.88303	1.72731	0	
2.9260	-0.345862	-1.65534	0	
2.9267	1.15287	-6.18954	0	
2.9273	3.30491	-10.5078	0	
2.9280	2.99747	-15.042	0	
2.9287	-0.0384292	-19.6482	0	
2.9293	-0.0384292	-26.0536	0	
2.9300	2.99747	-31.5235	0	
2.9307	2.07517	-30.6598	0	
2.9313	0.845441	-29.7242	0	
2.9320	2.07517	-27.2771	0	
2.9327	2.38261	-4.39025	0	
