0.0000	4.85746	-11.2063	1
0.0007	1.48194	-12.3823	0	
0.0013	-0.329319	-10.2379	0	
0.0020	3.00504	-8.09347	0	
0.0027	3.00504	-8.71605	0	
0.0033	0.288154	-9.61532	0	
0.0040	-0.617473	-9.33862	0	
0.0047	-1.85242	-6.9175	0	
0.0053	-2.46989	-6.01822	0	
0.0060	-0.0411649	-7.1942	0	
0.0067	-0.0411649	-6.01822	0	
0.0073	-3.37552	-4.1505	0	
0.0080	-4.61047	-4.77307	0	
0.0087	-3.99299	-2.90535	0	
0.0093	-2.75805	0.69175	0	
0.0100	-1.56427	0.41505	0	
0.0107	-1.56427	-0.484225	0	
0.0113	-1.85242	2.28277	0	
0.0120	-2.46989	1.6602	0	
0.0127	-4.28115	-3.25122	0	
0.0133	-6.13357	-4.77307	0	
0.0140	-5.5161	-2.35195	0	
0.0147	-3.70484	-0.8301	0	
0.0153	-1.56427	-1.72937	0	
0.0160	0.288154	-1.1068	0	
0.0167	0.576308	1.6602	0	
0.0173	0.905628	1.6602	0	
0.0180	3.62251	0.69175	0	
0.0187	6.0924	4.08132	0	
0.0193	5.47493	4.08132	0	
0.0200	4.5693	-0.8301	0	
0.0207	4.23998	-1.72937	0	
0.0213	4.5693	1.31432	0	
0.0220	4.85746	1.9369	0	
0.0227	4.85746	2.55947	0	
0.0233	3.00504	3.18205	0	
0.0240	3.00504	0.41505	0	
0.0247	2.09941	-0.8301	0	
0.0253	-2.75805	0.41505	0	
0.0260	-7.0392	-1.1068	0	
0.0267	-5.22794	-1.3835	0	
0.0273	-2.18174	0.13835	0	
0.0280	-3.70484	0.13835	0	
0.0287	-5.84541	0.41505	0	
0.0293	-4.28115	2.83617	0	
0.0300	-3.99299	3.18205	0	
0.0307	-7.0392	2.55947	0	
0.0313	-7.36852	2.83617	0	
0.0320	-4.28115	1.9369	0	
0.0327	-1.85242	1.31432	0	
0.0333	-1.23495	3.18205	0	
0.0340	-1.56427	3.45875	0	
0.0347	-1.23495	2.55947	0	
0.0353	1.19378	2.28277	0	
0.0360	2.42873	1.6602	0	
0.0367	0.905628	1.31432	0	
0.0373	1.19378	1.31432	0	
0.0380	3.00504	0.41505	0	
0.0387	4.85746	0.13835	0	
0.0393	4.85746	1.6602	0	
0.0400	4.5693	2.83617	0	
0.0407	4.5693	1.9369	0	
0.0413	4.85746	-0.207525	0	
0.0420	3.00504	-0.484225	0	
0.0427	1.81126	0.13835	0	
0.0433	1.81126	-0.8301	0	
0.0440	1.48194	-0.484225	0	
0.0447	0.905628	1.6602	0	
0.0453	-1.23495	0.41505	0	
0.0460	-4.61047	-1.72937	0	
0.0467	-5.22794	0.13835	0	
0.0473	-2.18174	0.69175	0	
0.0480	-1.23495	-2.62865	0	
0.0487	-1.85242	-2.35195	0	
0.0493	-3.70484	-0.207525	0	
0.0500	-6.13357	-0.484225	0	
0.0507	-4.61047	-0.484225	0	
0.0513	-1.56427	-1.3835	0	
0.0520	-2.75805	-4.1505	0	
0.0527	-4.89862	-1.72937	0	
0.0533	-2.46989	2.83617	0	
0.0540	0.288154	0.13835	0	
0.0547	-0.329319	-2.90535	0	
0.0553	-2.46989	0.13835	0	
0.0560	-2.75805	1.31432	0	
0.0567	-0.946792	0.69175	0	
0.0573	0.576308	3.80462	0	
0.0580	2.09941	5.87987	0	
0.0587	3.95183	3.80462	0	
0.0593	3.62251	2.83617	0	
0.0600	2.09941	4.08132	0	
0.0607	2.09941	2.28277	0	
0.0613	1.19378	0.41505	0	
0.0620	-0.329319	0.69175	0	
0.0627	0.905628	-2.90535	0	
0.0633	1.81126	-6.9175	0	
0.0640	-0.329319	-4.4272	0	
0.0647	0.288154	-2.35195	0	
0.0653	2.42873	-4.1505	0	
0.0660	1.19378	-4.1505	0	
0.0667	-0.946792	-1.3835	0	
0.0673	-0.617473	-0.207525	0	
0.0680	-0.946792	0.41505	0	
0.0687	-2.46989	0.41505	0	
0.0693	-3.37552	-0.484225	0	
0.0700	-4.89862	0.41505	0	
0.0707	-5.22794	3.18205	0	
0.0713	-4.28115	3.18205	0	
0.0720	-3.99299	0.69175	0	
0.0727	-3.37552	0.13835	0	
0.0733	-1.85242	1.31432	0	
0.0740	-1.56427	1.31432	0	
0.0747	-2.18174	0.41505	0	
0.0753	-0.617473	0.69175	0	
0.0760	1.48194	1.03762	0	
0.0767	1.48194	0.13835	0	
0.0773	2.09941	1.03762	0	
0.0780	3.95183	2.28277	0	
0.0787	3.95183	1.6602	0	
0.0793	2.71688	1.6602	0	
0.0800	2.09941	2.28277	0	
0.0807	3.00504	1.31432	0	
0.0813	5.47493	1.31432	0	
0.0820	6.38056	2.28277	0	
0.0827	3.00504	0.41505	0	
0.0833	1.81126	-1.72937	0	
0.0840	3.00504	-1.3835	0	
0.0847	0.288154	-0.8301	0	
0.0853	-2.46989	0.69175	0	
0.0860	-0.617473	1.9369	0	
0.0867	-1.56427	0.69175	0	
0.0873	-3.37552	0.41505	0	
0.0880	-1.56427	3.80462	0	
0.0887	-2.46989	4.9806	0	
0.0893	-7.0392	3.45875	0	
0.0900	-6.75104	4.9806	0	
0.0907	-4.28115	6.50245	0	
0.0913	-6.13357	2.55947	0	
0.0920	-7.0392	-1.1068	0	
0.0927	-5.84541	-4.77307	0	
0.0933	-5.5161	-15.1493	0	
0.0940	-5.22794	-26.4248	0	
0.0947	-2.18174	-34.38	0	
0.0953	-0.946792	-42.3351	0	
0.0960	-0.617473	-45.0329	0	
0.0967	2.09941	-41.7125	0	
0.0973	2.09941	-41.3666	0	
0.0980	-1.23495	-28.846	0	
0.0987	0.288154	9.54615	0	
0.0993	4.85746	49.5293	0	
0.1000	4.5693	62.6725	0	
0.1007	3.62251	53.8181	0	
0.1013	4.85746	37.3545	0	
0.1020	3.00504	22.6894	0	
0.1027	1.19378	15.7027	0	
0.1033	3.62251	12.659	0	
0.1040	3.95183	10.5146	0	
0.1047	0.905628	7.4709	0	
0.1053	0.576308	3.80462	0	
0.1060	2.09941	3.18205	0	
0.1067	1.81126	4.9806	0	
0.1073	-0.329319	4.08132	0	
0.1080	-2.46989	3.80462	0	
0.1087	-4.61047	6.22575	0	
0.1093	-5.22794	4.9806	0	
0.1100	-3.70484	2.28277	0	
0.1107	-1.56427	2.28277	0	
0.1113	-1.56427	0.41505	0	
0.1120	-3.99299	-0.207525	0	
0.1127	-4.61047	1.31432	0	
0.1133	-3.37552	-0.207525	0	
0.1140	-3.08737	-1.3835	0	
0.1147	-0.329319	1.31432	0	
0.1153	2.09941	2.28277	0	
0.1160	0.288154	-0.207525	0	
0.1167	-0.0411649	-3.25122	0	
0.1173	3.62251	-4.77307	0	
0.1180	4.85746	-2.35195	0	
0.1187	3.95183	0.69175	0	
0.1193	4.23998	-2.00607	0	
0.1200	3.33436	-6.01822	0	
0.1207	1.81126	-6.57162	0	
0.1213	4.23998	-6.29492	0	
0.1220	7.28619	-5.04977	0	
0.1227	4.5693	-3.52792	0	
0.1233	1.48194	-4.4272	0	
0.1240	2.09941	-6.01822	0	
0.1247	0.288154	-6.9175	0	
0.1253	-3.37552	-8.71605	0	
0.1260	-3.37552	-9.61532	0	
0.1267	-2.18174	-6.9175	0	
0.1273	-5.22794	-2.90535	0	
0.1280	-7.36852	1.03762	0	
0.1287	-4.61047	4.08132	0	
0.1293	-2.46989	4.08132	0	
0.1300	-3.70484	2.28277	0	
0.1307	-5.5161	3.45875	0	
0.1313	-5.22794	5.87987	0	
0.1320	-3.70484	4.08132	0	
0.1327	-4.28115	-1.1068	0	
0.1333	-4.28115	-3.25122	0	
0.1340	-1.23495	-4.1505	0	
0.1347	1.19378	-5.04977	0	
0.1353	0.288154	-5.67235	0	
0.1360	-1.56427	-6.01822	0	
0.1367	-0.0411649	-8.09347	0	
0.1373	1.81126	-10.2379	0	
0.1380	0.905628	-10.5838	0	
0.1387	-0.617473	-10.2379	0	
0.1393	0.576308	-10.5838	0	
0.1400	3.95183	-13.0049	0	
0.1407	5.76308	-11.483	0	
0.1413	6.38056	-5.67235	0	
0.1420	5.47493	-3.8738	0	
0.1427	3.00504	-5.04977	0	
0.1433	3.00504	-3.25122	0	
0.1440	3.95183	-3.25122	0	
0.1447	3.95183	-4.4272	0	
0.1453	1.81126	-2.35195	0	
0.1460	-0.617473	0.13835	0	
0.1467	-1.23495	-1.72937	0	
0.1473	0.288154	-2.35195	0	
0.1480	-0.329319	-0.484225	0	
0.1487	-3.70484	0.41505	0	
0.1493	-4.61047	1.31432	0	
0.1500	-3.08737	3.80462	0	
0.1507	-2.46989	5.87987	0	
0.1513	-3.08737	4.9806	0	
0.1520	-4.28115	2.83617	0	
0.1527	-3.99299	3.80462	0	
0.1533	-1.56427	5.87987	0	
0.1540	-0.946792	4.08132	0	
0.1547	-1.85242	1.9369	0	
0.1553	0.288154	4.35802	0	
0.1560	3.00504	4.9806	0	
0.1567	3.00504	0.41505	0	
0.1573	2.09941	-3.52792	0	
0.1580	1.81126	-6.01822	0	
0.1587	1.81126	-9.06192	0	
0.1593	2.09941	-8.71605	0	
0.1600	2.71688	-3.25122	0	
0.1607	2.09941	1.03762	0	
0.1613	2.71688	0.41505	0	
0.1620	3.95183	-1.1068	0	
0.1627	3.62251	0.69175	0	
0.1633	1.19378	2.83617	0	
0.1640	-0.617473	0.13835	0	
0.1647	-0.617473	-3.25122	0	
0.1653	0.288154	-5.67235	0	
0.1660	-1.23495	-10.5838	0	
0.1667	-3.37552	-16.6712	0	
0.1673	-3.99299	-20.6141	0	
0.1680	-2.75805	-30.9904	0	
0.1687	-3.99299	-41.7125	0	
0.1693	-7.0392	-41.3666	0	
0.1700	-7.94482	-37.4237	0	
0.1707	-6.13357	-31.3363	0	
0.1713	-4.61047	-2.62865	0	
0.1720	-4.28115	42.1967	0	
0.1727	-3.99299	68.4832	0	
0.1733	-3.37552	65.4395	0	
0.1740	-4.28115	48.3533	0	
0.1747	-4.89862	31.5438	0	
0.1753	-1.85242	21.1675	0	
0.1760	-0.617473	16.8787	0	
0.1767	-3.08737	14.7343	0	
0.1773	-3.37552	12.0364	0	
0.1780	-1.23495	10.1687	0	
0.1787	0.576308	10.1687	0	
0.1793	3.95183	9.26945	0	
0.1800	5.76308	5.87987	0	
0.1807	3.95183	4.08132	0	
0.1813	3.95183	5.32647	0	
0.1820	5.76308	4.9806	0	
0.1827	3.33436	2.83617	0	
0.1833	1.48194	1.03762	0	
0.1840	1.19378	-1.1068	0	
0.1847	-0.0411649	-2.00607	0	
0.1853	-0.0411649	-2.35195	0	
0.1860	-0.0411649	-3.25122	0	
0.1867	-2.75805	-4.1505	0	
0.1873	-4.89862	-4.1505	0	
0.1880	-3.70484	-3.25122	0	
0.1887	-3.37552	-3.25122	0	
0.1893	-3.37552	-4.4272	0	
0.1900	-2.75805	-5.39565	0	
0.1907	-3.08737	-4.1505	0	
0.1913	-4.28115	-2.35195	0	
0.1920	-3.99299	-1.1068	0	
0.1927	-2.46989	0.13835	0	
0.1933	-1.56427	-0.484225	0	
0.1940	-2.46989	0.41505	0	
0.1947	-2.75805	2.55947	0	
0.1953	-0.946792	0.41505	0	
0.1960	1.19378	-4.77307	0	
0.1967	0.288154	-6.01822	0	
0.1973	-0.0411649	-4.4272	0	
0.1980	2.42873	-2.00607	0	
0.1987	4.23998	0.41505	0	
0.1993	3.95183	0.41505	0	
0.2000	4.23998	-0.484225	0	
0.2007	4.5693	1.03762	0	
0.2013	3.62251	1.9369	0	
0.2020	3.00504	2.28277	0	
0.2027	3.00504	4.9806	0	
0.2033	3.62251	7.4709	0	
0.2040	4.23998	5.32647	0	
0.2047	3.00504	3.18205	0	
0.2053	1.19378	4.35802	0	
0.2060	2.09941	5.32647	0	
0.2067	1.81126	2.28277	0	
0.2073	-1.56427	0.41505	0	
0.2080	-1.56427	2.83617	0	
0.2087	0.288154	0.13835	0	
0.2093	-1.23495	-8.71605	0	
0.2100	-2.75805	-13.2816	0	
0.2107	-3.37552	-11.7597	0	
0.2113	-3.99299	-11.483	0	
0.2120	-3.37552	-12.3823	0	
0.2127	-2.46989	-12.7282	0	
0.2133	-2.46989	-13.2816	0	
0.2140	-1.56427	-12.3823	0	
0.2147	-0.0411649	-9.61532	0	
0.2153	-0.329319	-6.57162	0	
0.2160	-0.0411649	-3.52792	0	
0.2167	0.288154	-0.484225	0	
0.2173	-0.0411649	1.9369	0	
0.2180	2.09941	1.6602	0	
0.2187	3.62251	-0.207525	0	
0.2193	2.09941	-1.3835	0	
0.2200	2.71688	-2.35195	0	
0.2207	4.85746	-3.8738	0	
0.2213	5.47493	-4.4272	0	
0.2220	6.0924	-2.35195	0	
0.2227	6.38056	-0.484225	0	
0.2233	3.33436	-2.90535	0	
0.2240	0.288154	-4.4272	0	
0.2247	-0.617473	-2.35195	0	
0.2253	-1.56427	-1.1068	0	
0.2260	-1.85242	-3.25122	0	
0.2267	-2.46989	-5.04977	0	
0.2273	-3.70484	-6.9175	0	
0.2280	-4.28115	-8.43935	0	
0.2287	-4.28115	-5.39565	0	
0.2293	-4.61047	-1.3835	0	
0.2300	-3.37552	-2.00607	0	
0.2307	-1.23495	-1.3835	0	
0.2313	-2.75805	3.18205	0	
0.2320	-5.5161	3.45875	0	
0.2327	-4.28115	1.6602	0	
0.2333	-3.08737	4.08132	0	
0.2340	-2.46989	5.87987	0	
0.2347	-0.617473	4.7039	0	
0.2353	-0.617473	4.08132	0	
0.2360	-2.75805	3.45875	0	
0.2367	-0.617473	3.18205	0	
0.2373	3.62251	4.08132	0	
0.2380	2.09941	4.08132	0	
0.2387	-0.0411649	3.80462	0	
0.2393	3.00504	4.08132	0	
0.2400	4.5693	1.6602	0	
0.2407	1.81126	-4.1505	0	
0.2413	1.48194	-5.39565	0	
0.2420	3.62251	-3.52792	0	
0.2427	3.95183	-3.52792	0	
0.2433	3.00504	-2.35195	0	
0.2440	1.81126	0.41505	0	
0.2447	0.905628	0.13835	0	
0.2453	-0.617473	-2.35195	0	
0.2460	-1.85242	1.03762	0	
0.2467	-1.85242	4.9806	0	
0.2473	-1.56427	1.31432	0	
0.2480	-1.23495	-1.3835	0	
0.2487	-0.946792	1.03762	0	
0.2493	-3.37552	1.03762	0	
0.2500	-7.0392	0.41505	0	
0.2507	-5.22794	2.83617	0	
0.2513	-2.46989	1.6602	0	
0.2520	-6.13357	-2.35195	0	
0.2527	-7.94482	-1.3835	0	
0.2533	-3.37552	0.41505	0	
0.2540	-0.946792	0.41505	0	
0.2547	-1.56427	1.31432	0	
0.2553	-1.56427	3.18205	0	
0.2560	-0.946792	3.18205	0	
0.2567	-0.0411649	1.9369	0	
0.2573	1.19378	0.41505	0	
0.2580	0.905628	0.13835	0	
0.2587	2.09941	1.03762	0	
0.2593	5.14561	-0.207525	0	
0.2600	5.76308	-2.35195	0	
0.2607	3.95183	-4.1505	0	
0.2613	1.81126	-5.67235	0	
0.2620	1.19378	-5.67235	0	
0.2627	4.85746	-3.8738	0	
0.2633	7.90366	-2.35195	0	
0.2640	3.95183	-2.35195	0	
0.2647	-0.0411649	-1.3835	0	
0.2653	2.09941	-1.1068	0	
0.2660	2.42873	-4.77307	0	
0.2667	-0.0411649	-9.61532	0	
0.2673	-0.617473	-14.8034	0	
0.2680	-1.85242	-23.3811	0	
0.2687	-4.61047	-30.0911	0	
0.2693	-3.37552	-29.1918	0	
0.2700	-0.617473	-28.846	0	
0.2707	-2.46989	-26.4248	0	
0.2713	-6.42172	0.41505	0	
0.2720	-5.5161	47.1082	0	
0.2727	-1.56427	74.9165	0	
0.2733	-0.617473	67.2381	0	
0.2740	-2.46989	46.8315	0	
0.2747	-2.46989	29.7452	0	
0.2753	0.288154	19.0231	0	
0.2760	0.905628	14.7343	0	
0.2767	-0.617473	12.0364	0	
0.2773	-0.617473	6.84832	0	
0.2780	1.48194	3.18205	0	
0.2787	3.95183	1.6602	0	
0.2793	4.85746	-0.8301	0	
0.2800	4.23998	-2.90535	0	
0.2807	3.62251	-2.90535	0	
0.2813	3.62251	-2.90535	0	
0.2820	2.71688	-3.25122	0	
0.2827	1.19378	-3.8738	0	
0.2833	1.48194	-6.29492	0	
0.2840	3.33436	-7.54007	0	
0.2847	2.42873	-3.8738	0	
0.2853	-0.329319	-2.35195	0	
0.2860	-0.617473	-5.04977	0	
0.2867	-1.56427	-4.1505	0	
0.2873	-2.46989	-0.8301	0	
0.2880	0.288154	-1.3835	0	
0.2887	1.48194	-2.00607	0	
0.2893	-4.61047	0.41505	0	
0.2900	-8.89162	-1.3835	0	
0.2907	-5.5161	-5.04977	0	
0.2913	-3.70484	-2.35195	0	
0.2920	-5.22794	1.31432	0	
0.2927	-3.70484	0.13835	0	
0.2933	-3.37552	-0.484225	0	
0.2940	-6.75104	0.41505	0	
0.2947	-4.89862	-0.484225	0	
0.2953	-0.329319	-0.484225	0	
0.2960	-2.18174	1.31432	0	
0.2967	-6.13357	-0.484225	0	
0.2973	-3.37552	-3.52792	0	
0.2980	1.81126	-3.52792	0	
0.2987	0.905628	-3.25122	0	
0.2993	-1.85242	-4.1505	0	
0.3000	0.576308	-3.25122	0	
0.3007	3.00504	-2.00607	0	
0.3013	1.48194	-2.35195	0	
0.3020	0.288154	-3.8738	0	
0.3027	1.48194	-2.35195	0	
0.3033	2.09941	0.41505	0	
0.3040	2.09941	-0.484225	0	
0.3047	1.48194	-4.4272	0	
0.3053	-1.56427	-5.67235	0	
0.3060	-3.37552	-4.1505	0	
0.3067	-1.85242	-0.484225	0	
0.3073	-0.0411649	3.80462	0	
0.3080	0.288154	3.80462	0	
0.3087	-0.0411649	1.6602	0	
0.3093	0.576308	1.03762	0	
0.3100	1.48194	0.13835	0	
0.3107	-0.946792	-0.484225	0	
0.3113	-3.37552	-1.3835	0	
0.3120	-1.56427	-6.01822	0	
0.3127	-0.0411649	-10.5838	0	
0.3133	-2.75805	-10.5838	0	
0.3140	-5.22794	-11.2063	0	
0.3147	-3.37552	-11.7597	0	
0.3153	-0.617473	-8.71605	0	
0.3160	0.905628	-7.81677	0	
0.3167	0.905628	-9.61532	0	
0.3173	0.576308	-9.61532	0	
0.3180	0.905628	-8.71605	0	
0.3187	2.42873	-9.06192	0	
0.3193	3.62251	-8.71605	0	
0.3200	3.95183	-7.81677	0	
0.3207	4.5693	-5.67235	0	
0.3213	5.47493	-2.35195	0	
0.3220	4.5693	-1.3835	0	
0.3227	3.95183	-1.3835	0	
0.3233	4.5693	-0.484225	0	
0.3240	4.23998	0.13835	0	
0.3247	3.33436	-0.207525	0	
0.3253	2.09941	-1.3835	0	
0.3260	-0.946792	-2.00607	0	
0.3267	-2.46989	-1.3835	0	
0.3273	-2.46989	-1.3835	0	
0.3280	-2.46989	-2.62865	0	
0.3287	-3.70484	-2.00607	0	
0.3293	-4.61047	0.41505	0	
0.3300	-4.61047	1.6602	0	
0.3307	-3.08737	1.6602	0	
0.3313	-1.85242	0.41505	0	
0.3320	-2.46989	-0.484225	0	
0.3327	-3.08737	0.41505	0	
0.3333	-3.08737	2.28277	0	
0.3340	-3.08737	3.18205	0	
0.3347	-0.617473	4.7039	0	
0.3353	1.19378	6.22575	0	
0.3360	-0.617473	6.84832	0	
0.3367	-0.0411649	5.32647	0	
0.3373	1.19378	2.83617	0	
0.3380	0.576308	1.9369	0	
0.3387	2.09941	2.28277	0	
0.3393	3.95183	0.69175	0	
0.3400	1.81126	-1.1068	0	
0.3407	2.09941	-0.484225	0	
0.3413	4.85746	0.41505	0	
0.3420	4.5693	1.03762	0	
0.3427	3.00504	1.31432	0	
0.3433	2.42873	-0.207525	0	
0.3440	1.19378	0.69175	0	
0.3447	1.81126	3.80462	0	
0.3453	3.00504	1.9369	0	
0.3460	1.19378	-0.8301	0	
0.3467	-1.85242	1.9369	0	
0.3473	-3.70484	3.45875	0	
0.3480	-3.37552	-1.1068	0	
0.3487	-2.46989	-1.3835	0	
0.3493	-3.37552	4.9806	0	
0.3500	-4.89862	6.22575	0	
0.3507	-2.75805	2.28277	0	
0.3513	-1.56427	2.28277	0	
0.3520	-2.46989	4.35802	0	
0.3527	-1.23495	2.83617	0	
0.3533	-0.946792	1.31432	0	
0.3540	-2.46989	2.83617	0	
0.3547	-0.329319	2.28277	0	
0.3553	2.09941	2.28277	0	
0.3560	0.905628	4.08132	0	
0.3567	2.42873	4.7039	0	
0.3573	4.85746	4.35802	0	
0.3580	1.48194	6.84832	0	
0.3587	1.48194	6.50245	0	
0.3593	7.28619	4.35802	0	
0.3600	6.99803	5.32647	0	
0.3607	2.09941	4.9806	0	
0.3613	1.19378	1.31432	0	
0.3620	1.19378	-2.35195	0	
0.3627	0.576308	-4.1505	0	
0.3633	3.33436	-5.04977	0	
0.3640	4.5693	-5.67235	0	
0.3647	1.48194	-8.09347	0	
0.3653	-0.617473	-10.5838	0	
0.3660	-0.617473	-11.483	0	
0.3667	-1.56427	-17.2937	0	
0.3673	-3.70484	-24.0037	0	
0.3680	-5.22794	-28.5693	0	
0.3687	-4.28115	-34.38	0	
0.3693	-2.75805	-35.9018	0	
0.3700	-3.37552	-31.9588	0	
0.3707	-3.99299	-32.5122	0	
0.3713	-3.37552	-24.2804	0	
0.3720	-3.37552	11.4139	0	
0.3727	-3.99299	54.4407	0	
0.3733	-2.46989	72.4262	0	
0.3740	-1.85242	64.5403	0	
0.3747	-2.75805	48.0074	0	
0.3753	-2.75805	33.9649	0	
0.3760	-1.56427	24.2112	0	
0.3767	-0.329319	16.2561	0	
0.3773	0.905628	10.1687	0	
0.3780	2.09941	3.18205	0	
0.3787	2.09941	-3.8738	0	
0.3793	1.19378	-6.01822	0	
0.3800	1.19378	-5.04977	0	
0.3807	3.00504	-5.04977	0	
0.3813	3.95183	-4.1505	0	
0.3820	3.95183	-1.3835	0	
0.3827	2.09941	-2.00607	0	
0.3833	0.576308	-3.52792	0	
0.3840	-0.617473	-3.8738	0	
0.3847	-1.85242	-4.1505	0	
0.3853	-2.46989	-3.8738	0	
0.3860	-0.617473	-2.35195	0	
0.3867	-0.0411649	-2.00607	0	
0.3873	-1.56427	-1.3835	0	
0.3880	-2.46989	0.69175	0	
0.3887	-1.85242	-0.484225	0	
0.3893	-1.23495	-3.52792	0	
0.3900	-1.85242	-2.00607	0	
0.3907	-3.08737	0.69175	0	
0.3913	-3.08737	-0.484225	0	
0.3920	-2.46989	-1.72937	0	
0.3927	-2.18174	-0.484225	0	
0.3933	-1.56427	-0.207525	0	
0.3940	-0.617473	0.69175	0	
0.3947	-0.0411649	1.6602	0	
0.3953	0.905628	0.69175	0	
0.3960	2.09941	0.69175	0	
0.3967	2.09941	1.31432	0	
0.3973	1.48194	-0.484225	0	
0.3980	2.71688	-3.25122	0	
0.3987	4.85746	-4.4272	0	
0.3993	4.85746	-5.04977	0	
0.4000	4.5693	-4.1505	0	
0.4007	5.14561	-3.25122	0	
0.4013	4.85746	-4.1505	0	
0.4020	3.33436	-6.57162	0	
0.4027	2.42873	-9.33862	0	
0.4033	1.19378	-9.61532	0	
0.4040	-1.56427	-8.09347	0	
0.4047	-2.46989	-7.81677	0	
0.4053	-2.46989	-7.81677	0	
0.4060	-2.46989	-7.81677	0	
0.4067	-2.18174	-7.81677	0	
0.4073	-2.75805	-6.01822	0	
0.4080	-5.5161	-4.1505	0	
0.4087	-7.0392	-5.04977	0	
0.4093	-5.84541	-5.04977	0	
0.4100	-4.89862	-4.4272	0	
0.4107	-5.5161	-5.04977	0	
0.4113	-7.36852	-3.8738	0	
0.4120	-7.65667	-1.72937	0	
0.4127	-5.22794	-2.90535	0	
0.4133	-3.70484	-2.35195	0	
0.4140	-4.28115	-0.484225	0	
0.4147	-3.08737	-1.3835	0	
0.4153	-0.329319	-2.35195	0	
0.4160	1.48194	-1.3835	0	
0.4167	0.576308	-2.00607	0	
0.4173	-0.946792	-2.35195	0	
0.4180	0.288154	0.41505	0	
0.4187	3.95183	2.83617	0	
0.4193	4.23998	2.83617	0	
0.4200	2.71688	0.69175	0	
0.4207	3.95183	-1.1068	0	
0.4213	4.85746	0.13835	0	
0.4220	3.33436	1.31432	0	
0.4227	2.09941	0.41505	0	
0.4233	1.19378	-0.484225	0	
0.4240	1.48194	-1.3835	0	
0.4247	2.42873	-1.72937	0	
0.4253	0.288154	0.69175	0	
0.4260	-1.85242	1.9369	0	
0.4267	-0.946792	0.41505	0	
0.4273	-0.946792	1.6602	0	
0.4280	-3.37552	4.9806	0	
0.4287	-3.70484	4.9806	0	
0.4293	-2.46989	4.08132	0	
0.4300	-2.46989	5.87987	0	
0.4307	-2.18174	8.64687	0	
0.4313	-2.75805	9.89202	0	
0.4320	-3.99299	8.37017	0	
0.4327	-3.37552	4.08132	0	
0.4333	-3.37552	1.9369	0	
0.4340	-4.61047	1.6602	0	
0.4347	-3.70484	-1.3835	0	
0.4353	-2.18174	-4.1505	0	
0.4360	-1.23495	-1.3835	0	
0.4367	-0.617473	0.69175	0	
0.4373	0.288154	-2.00607	0	
0.4380	2.09941	-3.8738	0	
0.4387	3.95183	-4.1505	0	
0.4393	1.81126	-6.57162	0	
0.4400	0.288154	-6.57162	0	
0.4407	4.85746	-5.04977	0	
0.4413	5.76308	-5.39565	0	
0.4420	1.19378	-2.62865	0	
0.4427	0.905628	1.03762	0	
0.4433	4.23998	-0.8301	0	
0.4440	5.76308	-1.3835	0	
0.4447	5.14561	1.6602	0	
0.4453	3.00504	0.13835	0	
0.4460	0.288154	-3.25122	0	
0.4467	-0.0411649	-2.00607	0	
0.4473	0.288154	-0.484225	0	
0.4480	-2.46989	0.41505	0	
0.4487	-4.61047	2.28277	0	
0.4493	-3.99299	1.31432	0	
0.4500	-1.85242	0.41505	0	
0.4507	-1.56427	3.45875	0	
0.4513	-3.08737	3.80462	0	
0.4520	-2.46989	1.31432	0	
0.4527	-0.617473	3.18205	0	
0.4533	-0.617473	6.22575	0	
0.4540	-1.23495	5.87987	0	
0.4547	-0.617473	4.7039	0	
0.4553	-0.617473	4.35802	0	
0.4560	-0.329319	2.28277	0	
0.4567	0.905628	-3.25122	0	
0.4573	-0.0411649	-6.9175	0	
0.4580	0.288154	-6.9175	0	
0.4587	2.09941	-10.5838	0	
0.4593	2.09941	-19.0923	0	
0.4600	3.00504	-27.3241	0	
0.4607	4.85746	-38.0462	0	
0.4613	3.62251	-48.0766	0	
0.4620	1.19378	-45.6555	0	
0.4627	2.71688	-41.7125	0	
0.4633	3.00504	-41.7125	0	
0.4640	0.576308	-19.7149	0	
0.4647	0.288154	26.9782	0	
0.4653	1.81126	59.6288	0	
0.4660	0.576308	63.5718	0	
0.4667	-1.56427	52.573	0	
0.4673	-1.85242	36.4552	0	
0.4680	-0.946792	23.5887	0	
0.4687	-1.85242	19.369	0	
0.4693	-4.28115	17.8471	0	
0.4700	-4.89862	13.835	0	
0.4707	-3.70484	9.26945	0	
0.4713	-3.37552	8.99275	0	
0.4720	-3.70484	12.3131	0	
0.4727	-3.37552	10.7913	0	
0.4733	-3.70484	8.64687	0	
0.4740	-3.37552	13.2124	0	
0.4747	-0.329319	13.2124	0	
0.4753	2.71688	5.60317	0	
0.4760	3.62251	4.9806	0	
0.4767	2.42873	9.54615	0	
0.4773	1.81126	5.60317	0	
0.4780	2.09941	1.31432	0	
0.4787	2.71688	3.18205	0	
0.4793	2.09941	1.6602	0	
0.4800	2.42873	-1.1068	0	
0.4807	3.62251	-0.8301	0	
0.4813	3.00504	-1.3835	0	
0.4820	0.288154	-5.39565	0	
0.4827	-1.56427	-9.06192	0	
0.4833	-0.0411649	-9.06192	0	
0.4840	1.19378	-6.9175	0	
0.4847	-1.23495	-6.57162	0	
0.4853	-2.18174	-7.81677	0	
0.4860	-1.23495	-6.9175	0	
0.4867	-3.70484	-6.01822	0	
0.4873	-5.84541	-6.01822	0	
0.4880	-3.37552	-4.4272	0	
0.4887	-2.46989	-2.00607	0	
0.4893	-3.70484	0.69175	0	
0.4900	-2.46989	2.55947	0	
0.4907	-1.85242	1.31432	0	
0.4913	-4.89862	-0.207525	0	
0.4920	-5.22794	-0.484225	0	
0.4927	-2.46989	-1.3835	0	
0.4933	-0.0411649	-2.00607	0	
0.4940	-0.0411649	0.13835	0	
0.4947	-2.18174	-0.484225	0	
0.4953	-1.85242	-1.72937	0	
0.4960	1.81126	0.41505	0	
0.4967	3.62251	-1.3835	0	
0.4973	3.00504	-7.54007	0	
0.4980	3.33436	-7.54007	0	
0.4987	1.81126	-4.1505	0	
0.4993	1.19378	-4.77307	0	
0.5000	5.76308	-4.77307	0	
0.5007	6.99803	-3.25122	0	
0.5013	4.23998	-5.39565	0	
0.5020	5.76308	-7.54007	0	
0.5027	5.76308	-6.29492	0	
0.5033	0.288154	-7.54007	0	
0.5040	-0.617473	-9.9612	0	
0.5047	0.288154	-8.71605	0	
0.5053	-2.18174	-6.9175	0	
0.5060	-0.946792	-7.81677	0	
0.5067	2.09941	-9.06192	0	
0.5073	-1.85242	-7.81677	0	
0.5080	-4.61047	-4.4272	0	
0.5087	-1.56427	-3.25122	0	
0.5093	-1.56427	-3.25122	0	
0.5100	-4.61047	-2.35195	0	
0.5107	-3.37552	-2.35195	0	
0.5113	-2.46989	-5.67235	0	
0.5120	-4.28115	-7.54007	0	
0.5127	-4.61047	-4.1505	0	
0.5133	-4.28115	-2.00607	0	
0.5140	-3.70484	-1.3835	0	
0.5147	-1.56427	-0.207525	0	
0.5153	1.19378	-0.484225	0	
0.5160	0.905628	-2.35195	0	
0.5167	-0.617473	-0.8301	0	
0.5173	2.42873	1.9369	0	
0.5180	5.47493	2.28277	0	
0.5187	3.00504	1.9369	0	
0.5193	2.09941	1.6602	0	
0.5200	4.23998	0.13835	0	
0.5207	1.19378	0.13835	0	
0.5213	-1.56427	1.9369	0	
0.5220	2.09941	1.31432	0	
0.5227	4.23998	1.03762	0	
0.5233	1.19378	4.08132	0	
0.5240	0.905628	6.22575	0	
0.5247	1.19378	3.45875	0	
0.5253	-0.946792	0.41505	0	
0.5260	-0.329319	-0.207525	0	
0.5267	1.19378	-1.3835	0	
0.5273	-0.946792	-0.484225	0	
0.5280	-2.46989	3.18205	0	
0.5287	-3.37552	4.08132	0	
0.5293	-6.75104	1.31432	0	
0.5300	-7.65667	2.55947	0	
0.5307	-4.28115	6.84832	0	
0.5313	-3.70484	3.80462	0	
0.5320	-4.28115	-2.35195	0	
0.5327	-1.23495	-2.90535	0	
0.5333	-0.0411649	-2.35195	0	
0.5340	-3.08737	-4.4272	0	
0.5347	-2.46989	-3.8738	0	
0.5353	1.81126	0.13835	0	
0.5360	2.09941	1.31432	0	
0.5367	1.81126	-0.484225	0	
0.5373	4.85746	-2.62865	0	
0.5380	4.85746	-2.35195	0	
0.5387	1.19378	-0.484225	0	
0.5393	1.81126	-0.8301	0	
0.5400	4.85746	-3.8738	0	
0.5407	5.47493	-4.4272	0	
0.5413	4.85746	-4.1505	0	
0.5420	3.95183	-4.1505	0	
0.5427	3.00504	-3.52792	0	
0.5433	2.71688	-1.1068	0	
0.5440	3.00504	0.69175	0	
0.5447	3.00504	0.13835	0	
0.5453	0.905628	-0.484225	0	
0.5460	-2.18174	2.55947	0	
0.5467	-2.46989	4.35802	0	
0.5473	-0.946792	2.83617	0	
0.5480	-1.85242	2.28277	0	
0.5487	-3.37552	2.28277	0	
0.5493	-4.28115	-0.8301	0	
0.5500	-5.22794	-2.00607	0	
0.5507	-4.28115	0.41505	0	
0.5513	-3.08737	1.9369	0	
0.5520	-5.5161	2.28277	0	
0.5527	-5.5161	0.41505	0	
0.5533	-1.23495	-2.90535	0	
0.5540	-1.56427	-4.77307	0	
0.5547	-5.22794	-7.54007	0	
0.5553	-5.22794	-13.9042	0	
0.5560	-4.28115	-22.136	0	
0.5567	-2.46989	-30.0911	0	
0.5573	0.905628	-32.2355	0	
0.5580	2.42873	-30.9904	0	
0.5587	2.09941	-34.38	0	
0.5593	2.71688	-26.4248	0	
0.5600	2.71688	10.7913	0	
0.5607	3.95183	52.2963	0	
0.5613	4.85746	65.7162	0	
0.5620	1.19378	57.2077	0	
0.5627	0.288154	40.6749	0	
0.5633	5.76308	24.5571	0	
0.5640	4.85746	16.8787	0	
0.5647	-0.946792	13.2124	0	
0.5653	0.288154	8.0243	0	
0.5660	3.00504	5.87987	0	
0.5667	-0.617473	6.50245	0	
0.5673	-3.99299	2.28277	0	
0.5680	-3.37552	-0.207525	0	
0.5687	-4.61047	4.35802	0	
0.5693	-4.89862	8.64687	0	
0.5700	-3.37552	7.7476	0	
0.5707	-3.99299	4.9806	0	
0.5713	-4.61047	4.08132	0	
0.5720	-3.08737	3.18205	0	
0.5727	-3.37552	2.28277	0	
0.5733	-2.46989	0.69175	0	
0.5740	0.288154	-0.8301	0	
0.5747	-0.617473	-1.3835	0	
0.5753	-3.08737	-0.207525	0	
0.5760	-0.617473	0.69175	0	
0.5767	2.09941	-0.8301	0	
0.5773	2.71688	-3.25122	0	
0.5780	2.42873	-3.25122	0	
0.5787	1.81126	-1.3835	0	
0.5793	1.48194	-2.35195	0	
0.5800	3.00504	-5.67235	0	
0.5807	4.85746	-6.9175	0	
0.5813	4.5693	-6.01822	0	
0.5820	2.71688	-4.4272	0	
0.5827	1.81126	-1.1068	0	
0.5833	1.48194	1.31432	0	
0.5840	0.288154	2.28277	0	
0.5847	-1.56427	3.18205	0	
0.5853	-3.37552	1.9369	0	
0.5860	-3.37552	-0.207525	0	
0.5867	-2.46989	1.6602	0	
0.5873	-2.46989	4.9806	0	
0.5880	-3.37552	4.08132	0	
0.5887	-4.28115	0.41505	0	
0.5893	-5.5161	-2.90535	0	
0.5900	-7.0392	-3.8738	0	
0.5907	-5.22794	-2.35195	0	
0.5913	-2.46989	-2.62865	0	
0.5920	-3.37552	-6.29492	0	
0.5927	-3.99299	-8.43935	0	
0.5933	0.288154	-8.71605	0	
0.5940	1.81126	-9.33862	0	
0.5947	-1.85242	-9.61532	0	
0.5953	-1.85242	-7.81677	0	
0.5960	1.81126	-6.01822	0	
0.5967	2.09941	-5.67235	0	
0.5973	1.81126	-6.01822	0	
0.5980	3.33436	-5.04977	0	
0.5987	3.33436	-3.8738	0	
0.5993	2.42873	-4.4272	0	
0.6000	3.00504	-6.57162	0	
0.6007	2.42873	-8.71605	0	
0.6013	1.48194	-9.61532	0	
0.6020	3.33436	-8.09347	0	
0.6027	4.23998	-4.1505	0	
0.6033	3.95183	-1.3835	0	
0.6040	4.5693	-1.1068	0	
0.6047	3.33436	-2.00607	0	
0.6053	-0.946792	-1.3835	0	
0.6060	-3.08737	-1.1068	0	
0.6067	-2.18174	-2.00607	0	
0.6073	-1.23495	-0.484225	0	
0.6080	-1.56427	3.80462	0	
0.6087	-3.08737	3.18205	0	
0.6093	-3.08737	0.69175	0	
0.6100	-2.46989	2.55947	0	
0.6107	-3.37552	3.18205	0	
0.6113	-5.22794	0.41505	0	
0.6120	-6.75104	0.41505	0	
0.6127	-7.94482	-0.207525	0	
0.6133	-6.13357	-2.35195	0	
0.6140	-3.70484	-2.00607	0	
0.6147	-3.37552	-3.25122	0	
0.6153	-2.46989	-6.29492	0	
0.6160	0.576308	-4.4272	0	
0.6167	1.19378	-1.1068	0	
0.6173	0.288154	-3.25122	0	
0.6180	2.09941	-3.52792	0	
0.6187	3.62251	0.41505	0	
0.6193	3.95183	0.69175	0	
0.6200	4.23998	-1.1068	0	
0.6207	4.23998	0.41505	0	
0.6213	3.62251	2.28277	0	
0.6220	3.00504	1.6602	0	
0.6227	1.48194	3.80462	0	
0.6233	-0.329319	6.84832	0	
0.6240	-0.0411649	5.87987	0	
0.6247	0.288154	3.18205	0	
0.6253	-2.46989	3.45875	0	
0.6260	-3.99299	4.9806	0	
0.6267	-0.946792	2.55947	0	
0.6273	1.48194	0.13835	0	
0.6280	-0.0411649	-1.3835	0	
0.6287	-2.75805	-7.81677	0	
0.6293	-3.70484	-18.4697	0	
0.6300	-2.46989	-24.6263	0	
0.6307	-1.85242	-29.1918	0	
0.6313	-3.08737	-35.2792	0	
0.6320	-2.46989	-36.1785	0	
0.6327	-1.56427	-35.2792	0	
0.6333	-3.70484	-37.4237	0	
0.6340	-4.61047	-22.4819	0	
0.6347	-0.617473	20.545	0	
0.6353	0.288154	60.874	0	
0.6360	-1.56427	70.0051	0	
0.6367	0.288154	55.34	0	
0.6373	3.00504	35.4868	0	
0.6380	2.42873	18.4005	0	
0.6387	2.71688	9.26945	0	
0.6393	4.85746	6.84832	0	
0.6400	6.66871	4.35802	0	
0.6407	5.47493	1.9369	0	
0.6413	2.71688	1.6602	0	
0.6420	2.71688	1.31432	0	
0.6427	4.5693	-1.1068	0	
0.6433	3.95183	-0.484225	0	
0.6440	2.09941	2.28277	0	
0.6447	2.42873	2.55947	0	
0.6453	1.19378	1.9369	0	
0.6460	-1.56427	3.45875	0	
0.6467	-3.08737	2.55947	0	
0.6473	-3.08737	-0.8301	0	
0.6480	-3.37552	-1.72937	0	
0.6487	-3.37552	-0.484225	0	
0.6493	-3.37552	1.03762	0	
0.6500	-2.75805	1.31432	0	
0.6507	-0.946792	-1.3835	0	
0.6513	-1.56427	-2.35195	0	
0.6520	-3.70484	-0.484225	0	
0.6527	-3.99299	0.69175	0	
0.6533	-3.70484	1.31432	0	
0.6540	-4.28115	1.9369	0	
0.6547	-2.46989	0.69175	0	
0.6553	-0.617473	0.41505	0	
0.6560	0.288154	1.9369	0	
0.6567	1.19378	2.28277	0	
0.6573	2.09941	1.03762	0	
0.6580	3.00504	-1.72937	0	
0.6587	4.85746	-3.52792	0	
0.6593	6.0924	-1.1068	0	
0.6600	4.5693	0.69175	0	
0.6607	4.5693	-2.62865	0	
0.6613	5.14561	-5.39565	0	
0.6620	2.42873	-5.67235	0	
0.6627	1.19378	-7.81677	0	
0.6633	3.62251	-9.06192	0	
0.6640	3.00504	-7.81677	0	
0.6647	-0.329319	-6.9175	0	
0.6653	0.288154	-4.4272	0	
0.6660	1.19378	-2.90535	0	
0.6667	-1.23495	-5.39565	0	
0.6673	-2.46989	-5.39565	0	
0.6680	-1.23495	-0.484225	0	
0.6687	-1.56427	1.31432	0	
0.6693	-3.08737	-2.90535	0	
0.6700	-2.46989	-7.1942	0	
0.6707	-0.617473	-6.9175	0	
0.6713	-1.85242	-4.1505	0	
0.6720	-4.89862	-2.62865	0	
0.6727	-5.22794	-3.8738	0	
0.6733	-2.46989	-5.39565	0	
0.6740	-0.617473	-7.54007	0	
0.6747	-0.617473	-8.71605	0	
0.6753	0.288154	-7.81677	0	
0.6760	1.19378	-4.77307	0	
0.6767	0.288154	-3.25122	0	
0.6773	0.576308	-3.25122	0	
0.6780	2.09941	-1.72937	0	
0.6787	1.19378	-0.207525	0	
0.6793	1.19378	-0.207525	0	
0.6800	3.00504	0.41505	0	
0.6807	2.09941	1.9369	0	
0.6813	0.288154	0.41505	0	
0.6820	3.00504	-3.52792	0	
0.6827	4.23998	-2.35195	0	
0.6833	2.42873	3.18205	0	
0.6840	3.95183	5.60317	0	
0.6847	4.23998	4.9806	0	
0.6853	0.288154	5.32647	0	
0.6860	-0.617473	5.60317	0	
0.6867	0.576308	6.50245	0	
0.6873	-2.18174	7.7476	0	
0.6880	-3.70484	6.50245	0	
0.6887	-0.946792	4.08132	0	
0.6893	-0.329319	5.32647	0	
0.6900	-1.23495	6.50245	0	
0.6907	-0.617473	4.9806	0	
0.6913	-1.56427	4.7039	0	
0.6920	-5.22794	4.08132	0	
0.6927	-5.5161	-1.3835	0	
0.6933	-4.28115	-6.57162	0	
0.6940	-3.08737	-8.43935	0	
0.6947	-1.23495	-10.5838	0	
0.6953	0.288154	-12.3823	0	
0.6960	1.81126	-8.71605	0	
0.6967	3.00504	-4.77307	0	
0.6973	2.09941	-4.1505	0	
0.6980	2.71688	-6.01822	0	
0.6987	5.76308	-6.57162	0	
0.6993	6.66871	-5.04977	0	
0.7000	4.85746	-1.72937	0	
0.7007	3.00504	-2.00607	0	
0.7013	1.19378	-5.67235	0	
0.7020	0.576308	-6.9175	0	
0.7027	2.42873	-5.04977	0	
0.7033	3.00504	-3.8738	0	
0.7040	1.81126	-2.35195	0	
0.7047	0.576308	-1.1068	0	
0.7053	0.288154	-3.25122	0	
0.7060	-0.329319	-6.29492	0	
0.7067	-1.56427	-7.81677	0	
0.7073	-2.75805	-12.3823	0	
0.7080	-3.37552	-17.9163	0	
0.7087	-3.99299	-19.7149	0	
0.7093	-3.99299	-23.3811	0	
0.7100	-1.85242	-29.8144	0	
0.7107	-1.23495	-27.9467	0	
0.7113	-3.70484	-25.1797	0	
0.7120	-3.70484	-26.1481	0	
0.7127	-1.23495	-6.01822	0	
0.7133	-1.56427	39.4989	0	
0.7140	-3.37552	71.5269	0	
0.7147	-0.946792	72.1495	0	
0.7153	1.19378	58.107	0	
0.7160	-0.617473	42.5426	0	
0.7167	-1.23495	30.6445	0	
0.7173	0.288154	21.4442	0	
0.7180	1.19378	10.5146	0	
0.7187	1.19378	3.18205	0	
0.7193	2.09941	3.18205	0	
0.7200	1.48194	1.9369	0	
0.7207	-0.617473	-0.484225	0	
0.7213	-0.617473	0.13835	0	
0.7220	0.576308	0.41505	0	
0.7227	1.81126	0.41505	0	
0.7233	3.00504	2.55947	0	
0.7240	3.62251	1.03762	0	
0.7247	2.71688	-2.35195	0	
0.7253	0.288154	-0.8301	0	
0.7260	-3.08737	1.31432	0	
0.7267	-5.22794	-0.484225	0	
0.7273	-5.22794	-2.00607	0	
0.7280	-6.13357	0.13835	0	
0.7287	-7.94482	1.6602	0	
0.7293	-7.94482	1.9369	0	
0.7300	-4.89862	0.41505	0	
0.7307	-1.85242	-2.35195	0	
0.7313	-2.18174	-1.72937	0	
0.7320	-3.37552	1.9369	0	
0.7327	-3.37552	2.83617	0	
0.7333	-1.85242	1.03762	0	
0.7340	0.288154	0.69175	0	
0.7347	0.288154	0.13835	0	
0.7353	-0.617473	-3.8738	0	
0.7360	0.905628	-6.01822	0	
0.7367	2.09941	-6.01822	0	
0.7373	0.905628	-6.01822	0	
0.7380	1.81126	-6.29492	0	
0.7387	4.23998	-5.39565	0	
0.7393	2.42873	-5.04977	0	
0.7400	0.905628	-5.04977	0	
0.7407	1.81126	-4.1505	0	
0.7413	1.81126	-5.67235	0	
0.7420	3.00504	-8.71605	0	
0.7427	5.76308	-8.09347	0	
0.7433	3.33436	-2.35195	0	
0.7440	-1.56427	-0.484225	0	
0.7447	-2.46989	-4.1505	0	
0.7453	-3.37552	-6.9175	0	
0.7460	-5.22794	-7.1942	0	
0.7467	-2.75805	-6.9175	0	
0.7473	-1.56427	-3.8738	0	
0.7480	-4.89862	-1.3835	0	
0.7487	-5.84541	-2.62865	0	
0.7493	-5.5161	-2.00607	0	
0.7500	-7.65667	1.31432	0	
0.7507	-7.65667	3.45875	0	
0.7513	-4.61047	4.9806	0	
0.7520	-5.22794	6.22575	0	
0.7527	-6.13357	5.87987	0	
0.7533	-2.46989	4.35802	0	
0.7540	-0.617473	3.18205	0	
0.7547	-1.23495	2.83617	0	
0.7553	-0.0411649	2.28277	0	
0.7560	1.48194	-0.207525	0	
0.7567	2.09941	-3.52792	0	
0.7573	3.00504	-5.39565	0	
0.7580	1.81126	-5.04977	0	
0.7587	1.19378	-3.25122	0	
0.7593	3.00504	-1.72937	0	
0.7600	2.71688	-2.90535	0	
0.7607	2.09941	-3.25122	0	
0.7613	3.62251	0.41505	0	
0.7620	2.71688	3.18205	0	
0.7627	1.19378	1.9369	0	
0.7633	3.00504	-0.207525	0	
0.7640	3.00504	0.41505	0	
0.7647	2.09941	1.03762	0	
0.7653	1.19378	0.69175	0	
0.7660	-0.0411649	0.69175	0	
0.7667	0.288154	0.41505	0	
0.7673	1.19378	1.03762	0	
0.7680	-2.46989	2.83617	0	
0.7687	-5.5161	2.55947	0	
0.7693	-3.70484	0.13835	0	
0.7700	-1.85242	-0.8301	0	
0.7707	-1.85242	-0.8301	0	
0.7713	-0.946792	-4.1505	0	
0.7720	-0.617473	-8.09347	0	
0.7727	-2.75805	-8.09347	0	
0.7733	-3.70484	-6.9175	0	
0.7740	-1.56427	-4.4272	0	
0.7747	1.48194	-1.72937	0	
0.7753	2.09941	-1.3835	0	
0.7760	0.905628	-3.8738	0	
0.7767	1.48194	-4.1505	0	
0.7773	3.95183	-1.72937	0	
0.7780	3.62251	1.31432	0	
0.7787	3.00504	4.08132	0	
0.7793	5.76308	6.50245	0	
0.7800	6.0924	7.7476	0	
0.7807	2.09941	5.87987	0	
0.7813	1.81126	4.35802	0	
0.7820	3.62251	5.60317	0	
0.7827	2.42873	5.32647	0	
0.7833	1.19378	4.08132	0	
0.7840	2.42873	3.80462	0	
0.7847	1.19378	3.80462	0	
0.7853	-1.56427	2.83617	0	
0.7860	-2.18174	1.31432	0	
0.7867	-3.37552	-2.62865	0	
0.7873	-4.28115	-7.81677	0	
0.7880	-3.70484	-9.9612	0	
0.7887	-5.22794	-9.61532	0	
0.7893	-7.94482	-8.71605	0	
0.7900	-6.75104	-7.81677	0	
0.7907	-4.28115	-6.9175	0	
0.7913	-3.37552	-3.25122	0	
0.7920	-4.28115	0.69175	0	
0.7927	-5.22794	0.69175	0	
0.7933	-3.37552	-0.484225	0	
0.7940	-0.617473	-1.1068	0	
0.7947	-1.56427	-6.29492	0	
0.7953	-2.46989	-14.8034	0	
0.7960	-1.56427	-20.6141	0	
0.7967	-2.46989	-24.903	0	
0.7973	-3.37552	-27.9467	0	
0.7980	-0.617473	-28.846	0	
0.7987	0.905628	-32.8581	0	
0.7993	-0.617473	-35.5559	0	
0.8000	1.19378	-16.9479	0	
0.8007	3.00504	21.7901	0	
0.8013	1.81126	52.9189	0	
0.8020	2.09941	57.2077	0	
0.8027	3.95183	43.7878	0	
0.8033	3.00504	28.7768	0	
0.8040	0.905628	18.4005	0	
0.8047	-1.85242	12.3131	0	
0.8053	-5.22794	11.4139	0	
0.8060	-5.22794	12.3131	0	
0.8067	-1.23495	10.5146	0	
0.8073	-0.329319	8.99275	0	
0.8080	-1.85242	11.4139	0	
0.8087	-0.617473	10.5146	0	
0.8093	1.19378	5.32647	0	
0.8100	-0.329319	4.9806	0	
0.8107	-1.56427	7.7476	0	
0.8113	-1.23495	4.9806	0	
0.8120	-2.18174	2.28277	0	
0.8127	-2.75805	4.9806	0	
0.8133	-1.56427	7.4709	0	
0.8140	1.48194	4.9806	0	
0.8147	3.95183	1.6602	0	
0.8153	3.95183	1.6602	0	
0.8160	1.81126	2.28277	0	
0.8167	-0.0411649	0.69175	0	
0.8173	2.42873	-1.72937	0	
0.8180	5.76308	-1.72937	0	
0.8187	4.85746	-1.3835	0	
0.8193	2.09941	-2.90535	0	
0.8200	3.00504	-3.25122	0	
0.8207	2.42873	-2.62865	0	
0.8213	-1.23495	-5.39565	0	
0.8220	-0.946792	-7.81677	0	
0.8227	1.81126	-6.01822	0	
0.8233	-0.0411649	-3.8738	0	
0.8240	-3.37552	-2.35195	0	
0.8247	-3.37552	0.41505	0	
0.8253	-3.37552	1.31432	0	
0.8260	-4.28115	0.41505	0	
0.8267	-4.28115	1.03762	0	
0.8273	-4.28115	1.31432	0	
0.8280	-6.13357	1.03762	0	
0.8287	-7.65667	0.41505	0	
0.8293	-7.0392	-2.35195	0	
0.8300	-4.61047	-3.8738	0	
0.8307	-4.28115	-1.3835	0	
0.8313	-5.5161	-1.1068	0	
0.8320	-6.42172	-3.25122	0	
0.8327	-5.22794	-3.8738	0	
0.8333	-3.08737	-6.29492	0	
0.8340	-1.85242	-9.06192	0	
0.8347	-2.46989	-8.71605	0	
0.8353	-2.18174	-10.2379	0	
0.8360	1.19378	-12.1056	0	
0.8367	3.95183	-9.06192	0	
0.8373	5.76308	-6.57162	0	
0.8380	6.0924	-6.9175	0	
0.8387	3.95183	-4.77307	0	
0.8393	2.42873	-3.25122	0	
0.8400	4.23998	-5.39565	0	
0.8407	4.85746	-6.9175	0	
0.8413	3.00504	-6.9175	0	
0.8420	3.33436	-6.57162	0	
0.8427	4.23998	-4.1505	0	
0.8433	3.00504	-3.52792	0	
0.8440	2.09941	-4.77307	0	
0.8447	2.09941	-4.1505	0	
0.8453	2.09941	-2.90535	0	
0.8460	1.19378	-2.62865	0	
0.8467	-1.23495	-2.90535	0	
0.8473	-2.46989	-2.90535	0	
0.8480	0.576308	-2.35195	0	
0.8487	2.09941	-2.35195	0	
0.8493	-0.329319	-3.52792	0	
0.8500	-0.617473	-2.90535	0	
0.8507	0.288154	-1.3835	0	
0.8513	-2.46989	-2.62865	0	
0.8520	-3.99299	-3.52792	0	
0.8527	-1.56427	-2.35195	0	
0.8533	-0.946792	-1.1068	0	
0.8540	-0.946792	-0.484225	0	
0.8547	2.09941	1.31432	0	
0.8553	2.09941	2.28277	0	
0.8560	0.905628	1.31432	0	
0.8567	3.62251	2.28277	0	
0.8573	3.95183	3.18205	0	
0.8580	1.81126	2.28277	0	
0.8587	3.33436	1.6602	0	
0.8593	2.09941	0.41505	0	
0.8600	-1.85242	-1.1068	0	
0.8607	1.19378	-0.484225	0	
0.8613	5.14561	0.41505	0	
0.8620	3.33436	-1.1068	0	
0.8627	3.95183	-0.484225	0	
0.8633	6.66871	2.28277	0	
0.8640	4.5693	0.69175	0	
0.8647	1.19378	-2.00607	0	
0.8653	-1.56427	-0.484225	0	
0.8660	-4.89862	1.31432	0	
0.8667	-5.22794	0.41505	0	
0.8673	-3.08737	0.13835	0	
0.8680	-2.46989	1.31432	0	
0.8687	-3.99299	2.28277	0	
0.8693	-5.22794	1.03762	0	
0.8700	-3.08737	0.13835	0	
0.8707	-0.0411649	1.31432	0	
0.8713	-2.46989	1.9369	0	
0.8720	-4.89862	2.28277	0	
0.8727	-2.46989	4.08132	0	
0.8733	-1.56427	5.60317	0	
0.8740	-2.18174	3.45875	0	
0.8747	0.288154	1.31432	0	
0.8753	2.71688	1.9369	0	
0.8760	3.62251	4.35802	0	
0.8767	4.23998	5.87987	0	
0.8773	3.00504	4.9806	0	
0.8780	2.71688	2.55947	0	
0.8787	4.5693	3.18205	0	
0.8793	3.00504	4.7039	0	
0.8800	3.00504	4.35802	0	
0.8807	5.47493	3.18205	0	
0.8813	3.95183	1.31432	0	
0.8820	1.81126	-3.25122	0	
0.8827	3.95183	-6.01822	0	
0.8833	3.00504	-4.1505	0	
0.8840	0.288154	-2.62865	0	
0.8847	2.42873	-2.90535	0	
0.8853	3.00504	-5.04977	0	
0.8860	-0.946792	-8.71605	0	
0.8867	-1.85242	-11.483	0	
0.8873	-0.0411649	-14.8034	0	
0.8880	0.288154	-21.5826	0	
0.8887	0.576308	-29.8144	0	
0.8893	0.905628	-37.147	0	
0.8900	-0.617473	-42.6118	0	
0.8907	-2.18174	-41.7125	0	
0.8913	-2.46989	-39.5681	0	
0.8920	-1.56427	-36.5244	0	
0.8927	-1.85242	-11.7597	0	
0.8933	-3.37552	35.4868	0	
0.8940	-1.85242	72.4262	0	
0.8947	0.288154	80.1046	0	
0.8953	-0.0411649	70.2818	0	
0.8960	0.288154	54.4407	0	
0.8967	3.00504	38.8763	0	
0.8973	3.00504	29.1227	0	
0.8980	3.00504	24.8338	0	
0.8987	5.47493	21.4442	0	
0.8993	5.47493	18.1238	0	
0.9000	3.00504	14.7343	0	
0.9007	1.81126	12.0364	0	
0.9013	2.42873	7.7476	0	
0.9020	1.81126	-0.484225	0	
0.9027	-0.329319	-9.9612	0	
0.9033	-2.46989	-15.1493	0	
0.9040	-1.23495	-17.2937	0	
0.9047	2.09941	-16.9479	0	
0.9053	1.19378	-14.8034	0	
0.9060	-2.75805	-12.3823	0	
0.9067	-3.70484	-12.1056	0	
0.9073	-3.37552	-12.3823	0	
0.9080	-5.22794	-9.61532	0	
0.9087	-5.22794	-4.4272	0	
0.9093	-2.75805	-3.25122	0	
0.9100	-3.08737	-5.04977	0	
0.9107	-4.61047	-4.77307	0	
0.9113	-3.70484	-5.04977	0	
0.9120	-2.75805	-8.43935	0	
0.9127	-3.37552	-10.5838	0	
0.9133	-2.18174	-9.61532	0	
0.9140	-0.617473	-6.01822	0	
0.9147	0.288154	-3.25122	0	
0.9153	0.576308	-3.8738	0	
0.9160	0.905628	-5.04977	0	
0.9167	0.576308	-4.1505	0	
0.9173	1.48194	-2.35195	0	
0.9180	1.81126	-2.62865	0	
0.9187	2.09941	-3.25122	0	
0.9193	3.95183	-2.90535	0	
0.9200	5.14561	-2.90535	0	
0.9207	4.23998	-2.35195	0	
0.9213	3.62251	-1.3835	0	
0.9220	2.71688	-1.72937	0	
0.9227	1.19378	-0.8301	0	
0.9233	2.09941	-0.484225	0	
0.9240	2.42873	-4.1505	0	
0.9247	-0.617473	-6.01822	0	
0.9253	-2.46989	-2.62865	0	
0.9260	-2.75805	-0.484225	0	
0.9267	-3.37552	-2.62865	0	
0.9273	-5.22794	-3.25122	0	
0.9280	-5.22794	-2.35195	0	
0.9287	-3.70484	-2.35195	0	
0.9293	-4.89862	-1.72937	0	
0.9300	-6.75104	0.13835	0	
0.9307	-6.13357	0.41505	0	
0.9313	-6.13357	-0.484225	0	
0.9320	-7.94482	0.13835	0	
0.9327	-8.27414	0.41505	0	
0.9333	-6.75104	-1.3835	0	
0.9340	-3.99299	-3.52792	0	
0.9347	-0.617473	-2.35195	0	
0.9353	0.288154	-0.484225	0	
0.9360	-0.617473	-0.484225	0	
0.9367	1.19378	-1.3835	0	
0.9373	2.42873	-1.72937	0	
0.9380	-0.329319	-2.62865	0	
0.9387	-0.617473	-2.90535	0	
0.9393	3.33436	-3.8738	0	
0.9400	4.85746	-4.1505	0	
0.9407	2.09941	-1.3835	0	
0.9413	-0.329319	0.41505	0	
0.9420	-0.329319	-1.3835	0	
0.9427	1.48194	-0.484225	0	
0.9433	3.33436	3.18205	0	
0.9440	2.09941	2.55947	0	
0.9447	-1.23495	0.41505	0	
0.9453	-1.85242	2.28277	0	
0.9460	0.576308	4.08132	0	
0.9467	1.19378	4.7039	0	
0.9473	-1.85242	5.87987	0	
0.9480	-2.46989	7.7476	0	
0.9487	-0.617473	8.0243	0	
0.9493	-2.46989	5.87987	0	
0.9500	-4.61047	1.31432	0	
0.9507	-3.70484	-0.8301	0	
0.9513	-3.37552	0.41505	0	
0.9520	-4.28115	-0.484225	0	
0.9527	-2.46989	-3.8738	0	
0.9533	-0.329319	-3.52792	0	
0.9540	-0.946792	-0.8301	0	
0.9547	-2.75805	0.69175	0	
0.9553	-3.37552	-0.207525	0	
0.9560	-1.56427	-0.484225	0	
0.9567	0.288154	2.83617	0	
0.9573	-1.56427	8.64687	0	
0.9580	-0.617473	10.5146	0	
0.9587	3.95183	8.64687	0	
0.9593	3.62251	9.54615	0	
0.9600	0.288154	10.5146	0	
0.9607	0.905628	6.50245	0	
0.9613	1.48194	1.31432	0	
0.9620	0.288154	0.41505	0	
0.9627	1.48194	0.41505	0	
0.9633	1.48194	-2.35195	0	
0.9640	-1.85242	-4.1505	0	
0.9647	-3.08737	-6.01822	0	
0.9653	-1.85242	-10.5838	0	
0.9660	-0.946792	-12.7282	0	
0.9667	0.576308	-10.5838	0	
0.9673	-0.0411649	-7.1942	0	
0.9680	-3.08737	-6.01822	0	
0.9687	-3.37552	-6.9175	0	
0.9693	-2.75805	-5.04977	0	
0.9700	-3.99299	-3.25122	0	
0.9707	-2.75805	-5.67235	0	
0.9713	-0.946792	-8.71605	0	
0.9720	-3.37552	-11.483	0	
0.9727	-6.13357	-17.9163	0	
0.9733	-4.28115	-20.6141	0	
0.9740	-1.23495	-21.2367	0	
0.9747	-0.0411649	-28.846	0	
0.9753	-0.946792	-34.0341	0	
0.9760	-0.617473	-29.1918	0	
0.9767	3.00504	-25.5256	0	
0.9773	5.14561	-10.5838	0	
0.9780	2.09941	31.8205	0	
0.9787	0.288154	69.1058	0	
0.9793	2.42873	72.4262	0	
0.9800	4.5693	57.2077	0	
0.9807	4.23998	38.8763	0	
0.9813	3.62251	19.9224	0	
0.9820	3.62251	11.4139	0	
0.9827	3.62251	11.068	0	
0.9833	3.00504	6.50245	0	
0.9840	1.19378	0.69175	0	
0.9847	-1.85242	-1.1068	0	
0.9853	-2.46989	-3.52792	0	
0.9860	-0.617473	-6.01822	0	
0.9867	-0.946792	-3.25122	0	
0.9873	-3.37552	0.41505	0	
0.9880	-2.75805	-0.484225	0	
0.9887	-1.56427	-0.207525	0	
0.9893	-3.08737	4.7039	0	
0.9900	-3.37552	8.0243	0	
0.9907	-2.75805	7.7476	0	
0.9913	-3.70484	5.32647	0	
0.9920	-4.28115	1.03762	0	
0.9927	-4.28115	-2.35195	0	
0.9933	-3.08737	-2.35195	0	
0.9940	-0.946792	-1.3835	0	
0.9947	-0.329319	-0.8301	0	
0.9953	-0.617473	-0.484225	0	
0.9960	0.905628	-2.35195	0	
0.9967	2.09941	-5.39565	0	
0.9973	1.81126	-5.39565	0	
0.9980	3.62251	-3.52792	0	
0.9987	4.85746	-4.1505	0	
0.9993	3.00504	-6.29492	0	
1.0000	3.00504	-7.81677	0	
1.0007	5.76308	-6.01822	0	
1.0013	4.85746	-3.8738	0	
1.0020	3.95183	-5.39565	0	
1.0027	3.95183	-9.06192	0	
1.0033	1.19378	-7.54007	0	
1.0040	-1.56427	-2.62865	0	
1.0047	-1.23495	-2.35195	0	
1.0053	-0.946792	-5.04977	0	
1.0060	-2.18174	-3.25122	0	
1.0067	-1.56427	-0.484225	0	
1.0073	-2.46989	-1.3835	0	
1.0080	-5.22794	-3.25122	0	
1.0087	-5.22794	-1.1068	0	
1.0093	-3.99299	-0.484225	0	
1.0100	-4.89862	-1.3835	0	
1.0107	-4.28115	1.03762	0	
1.0113	-1.23495	3.45875	0	
1.0120	-1.56427	3.45875	0	
1.0127	-2.75805	5.32647	0	
1.0133	-0.617473	5.32647	0	
1.0140	-0.617473	1.31432	0	
1.0147	-2.46989	0.69175	0	
1.0153	0.288154	2.55947	0	
1.0160	3.00504	-0.484225	0	
1.0167	2.09941	-3.25122	0	
1.0173	3.33436	-2.62865	0	
1.0180	4.85746	-4.4272	0	
1.0187	3.00504	-3.52792	0	
1.0193	3.00504	1.31432	0	
1.0200	5.76308	-2.35195	0	
1.0207	4.23998	-9.61532	0	
1.0213	2.42873	-8.43935	0	
1.0220	3.33436	-4.4272	0	
1.0227	3.33436	-3.8738	0	
1.0233	2.09941	-1.72937	0	
1.0240	2.09941	-2.35195	0	
1.0247	1.48194	-6.57162	0	
1.0253	0.905628	-5.39565	0	
1.0260	1.48194	-2.35195	0	
1.0267	0.288154	-4.1505	0	
1.0273	-1.56427	-5.04977	0	
1.0280	-2.46989	-5.04977	0	
1.0287	-2.75805	-9.33862	0	
1.0293	-5.84541	-11.7597	0	
1.0300	-7.94482	-9.61532	0	
1.0307	-5.84541	-8.71605	0	
1.0313	-3.37552	-7.81677	0	
1.0320	-3.37552	-2.35195	0	
1.0327	-4.89862	0.13835	0	
1.0333	-3.70484	-0.484225	0	
1.0340	-1.56427	0.69175	0	
1.0347	-1.23495	2.55947	0	
1.0353	-1.56427	2.55947	0	
1.0360	0.288154	3.18205	0	
1.0367	3.00504	3.80462	0	
1.0373	3.62251	5.87987	0	
1.0380	3.33436	8.99275	0	
1.0387	4.23998	6.84832	0	
1.0393	4.85746	2.28277	0	
1.0400	3.62251	1.6602	0	
1.0407	2.09941	-2.35195	0	
1.0413	2.09941	-11.483	0	
1.0420	3.95183	-16.6712	0	
1.0427	5.47493	-23.3811	0	
1.0433	4.85746	-35.2792	0	
1.0440	2.42873	-38.3229	0	
1.0447	0.288154	-38.3229	0	
1.0453	-1.23495	-41.7125	0	
1.0460	-1.85242	-22.7586	0	
1.0467	-0.617473	23.312	0	
1.0473	-0.617473	58.107	0	
1.0480	-2.46989	61.1507	0	
1.0487	-2.46989	48.0074	0	
1.0493	-0.946792	31.8205	0	
1.0500	-0.329319	20.8908	0	
1.0507	-0.617473	17.5013	0	
1.0513	-1.85242	14.1809	0	
1.0520	-2.75805	10.5146	0	
1.0527	-1.56427	10.1687	0	
1.0533	-0.0411649	9.54615	0	
1.0540	1.19378	8.99275	0	
1.0547	3.00504	9.54615	0	
1.0553	3.00504	6.22575	0	
1.0560	1.19378	0.13835	0	
1.0567	0.288154	-0.484225	0	
1.0573	0.288154	1.03762	0	
1.0580	-0.0411649	-0.207525	0	
1.0587	0.288154	-1.1068	0	
1.0593	1.19378	-2.35195	0	
1.0600	1.81126	-5.04977	0	
1.0607	1.19378	-4.77307	0	
1.0613	-0.0411649	-2.00607	0	
1.0620	-0.0411649	-3.52792	0	
1.0627	0.288154	-6.57162	0	
1.0633	0.905628	-6.29492	0	
1.0640	-0.617473	-6.01822	0	
1.0647	-0.946792	-7.1942	0	
1.0653	0.288154	-6.29492	0	
1.0660	-1.56427	-3.25122	0	
1.0667	-6.13357	-1.1068	0	
1.0673	-6.75104	0.41505	0	
1.0680	-5.22794	0.69175	0	
1.0687	-5.22794	0.13835	0	
1.0693	-3.08737	0.41505	0	
1.0700	-2.46989	1.31432	0	
1.0707	-6.13357	0.13835	0	
1.0713	-6.75104	1.31432	0	
1.0720	-3.37552	4.9806	0	
1.0727	-2.18174	5.87987	0	
1.0733	-2.46989	4.9806	0	
1.0740	-1.85242	4.08132	0	
1.0747	-2.18174	1.6602	0	
1.0753	-2.46989	-0.484225	0	
1.0760	-1.56427	0.41505	0	
1.0767	1.19378	-0.207525	0	
1.0773	3.95183	-2.35195	0	
1.0780	4.5693	-0.484225	0	
1.0787	4.85746	2.28277	0	
1.0793	3.95183	1.03762	0	
1.0800	0.576308	-0.8301	0	
1.0807	-1.23495	-4.1505	0	
1.0813	0.576308	-7.81677	0	
1.0820	0.288154	-7.54007	0	
1.0827	-1.56427	-7.1942	0	
1.0833	1.19378	-8.71605	0	
1.0840	3.00504	-6.01822	0	
1.0847	1.19378	-4.1505	0	
1.0853	0.288154	-7.81677	0	
1.0860	-0.946792	-9.33862	0	
1.0867	-3.37552	-6.9175	0	
1.0873	-3.70484	-5.04977	0	
1.0880	-3.37552	-2.35195	0	
1.0887	-4.28115	-0.8301	0	
1.0893	-5.22794	-1.3835	0	
1.0900	-5.84541	1.31432	0	
1.0907	-5.22794	3.80462	0	
1.0913	-3.99299	0.69175	0	
1.0920	-3.37552	-0.8301	0	
1.0927	-4.28115	0.41505	0	
1.0933	-4.28115	-1.3835	0	
1.0940	-2.75805	-4.1505	0	
1.0947	-1.23495	-4.4272	0	
1.0953	-0.946792	-6.01822	0	
1.0960	0.576308	-6.57162	0	
1.0967	3.95183	-6.9175	0	
1.0973	5.76308	-7.81677	0	
1.0980	4.85746	-8.09347	0	
1.0987	3.33436	-8.09347	0	
1.0993	3.00504	-11.483	0	
1.1000	2.71688	-15.426	0	
1.1007	1.19378	-16.9479	0	
1.1013	1.81126	-18.4697	0	
1.1020	3.95183	-17.9163	0	
1.1027	1.48194	-17.9163	0	
1.1033	-2.18174	-23.3811	0	
1.1040	-0.329319	-27.3241	0	
1.1047	0.905628	-21.2367	0	
1.1053	-1.85242	-10.8605	0	
1.1060	-1.85242	-4.1505	0	
1.1067	-1.23495	-0.207525	0	
1.1073	-4.28115	2.83617	0	
1.1080	-4.28115	11.4139	0	
1.1087	-1.56427	26.9782	0	
1.1093	-1.56427	38.2538	0	
1.1100	-3.37552	34.9334	0	
1.1107	-4.89862	25.1105	0	
1.1113	-6.13357	20.545	0	
1.1120	-4.61047	19.6457	0	
1.1127	-3.70484	18.1238	0	
1.1133	-4.89862	15.7027	0	
1.1140	-3.37552	12.3131	0	
1.1147	1.19378	9.54615	0	
1.1153	3.33436	9.89202	0	
1.1160	3.00504	12.3131	0	
1.1167	2.42873	9.54615	0	
1.1173	2.71688	3.18205	0	
1.1180	4.5693	-1.3835	0	
1.1187	5.14561	-5.67235	0	
1.1193	3.95183	-13.0049	0	
1.1200	4.23998	-23.3811	0	
1.1207	4.85746	-32.8581	0	
1.1213	2.09941	-34.38	0	
1.1220	0.288154	-30.3678	0	
1.1227	2.09941	-27.9467	0	
1.1233	1.48194	-19.7149	0	
1.1240	-0.617473	13.2124	0	
1.1247	-0.329319	57.4844	0	
1.1253	-0.946792	80.3813	0	
1.1260	-3.37552	75.4699	0	
1.1267	-3.37552	58.7296	0	
1.1273	-1.56427	42.1967	0	
1.1280	-2.46989	31.8205	0	
1.1287	-3.99299	25.4564	0	
1.1293	-3.70484	17.2246	0	
1.1300	-2.46989	11.4139	0	
1.1307	-0.946792	6.84832	0	
1.1313	-0.946792	-6.29492	0	
1.1320	-3.37552	-17.9163	0	
1.1327	-5.22794	-16.6712	0	
1.1333	-1.56427	-14.25	0	
1.1340	1.48194	-18.8156	0	
1.1347	-0.617473	-19.7149	0	
1.1353	-2.18174	-16.0486	0	
1.1360	0.576308	-11.2063	0	
1.1367	2.09941	-8.71605	0	
1.1373	1.48194	-8.71605	0	
1.1380	2.09941	-8.09347	0	
1.1387	3.95183	-7.81677	0	
1.1393	4.23998	-11.2063	0	
1.1400	1.48194	-9.33862	0	
1.1407	-0.329319	1.31432	0	
1.1413	1.19378	6.84832	0	
1.1420	1.48194	5.87987	0	
1.1427	0.576308	7.12502	0	
1.1433	2.09941	6.84832	0	
1.1440	3.33436	3.18205	0	
1.1447	0.905628	-0.484225	0	
1.1453	-0.617473	-6.29492	0	
1.1460	-0.329319	-10.2379	0	
1.1467	-0.946792	-10.5838	0	
1.1473	-3.37552	-12.1056	0	
1.1480	-5.84541	-13.2816	0	
1.1487	-6.13357	-11.7597	0	
1.1493	-5.22794	-10.5838	0	
1.1500	-3.99299	-8.43935	0	
1.1507	-2.46989	-5.04977	0	
1.1513	-1.85242	-6.01822	0	
1.1520	-4.89862	-6.9175	0	
1.1527	-6.42172	-4.77307	0	
1.1533	-3.37552	-4.4272	0	
1.1540	-1.56427	-4.77307	0	
1.1547	-1.56427	-3.8738	0	
1.1553	0.576308	-4.77307	0	
1.1560	3.00504	-4.1505	0	
1.1567	2.42873	-2.35195	0	
1.1573	2.09941	-4.4272	0	
1.1580	3.00504	-7.1942	0	
1.1587	4.23998	-4.1505	0	
1.1593	6.0924	-2.35195	0	
1.1600	6.66871	-3.25122	0	
1.1607	4.85746	-2.00607	0	
1.1613	4.5693	-1.72937	0	
1.1620	6.66871	-2.35195	0	
1.1627	6.38056	-0.8301	0	
1.1633	3.62251	0.41505	0	
1.1640	1.48194	-0.484225	0	
1.1647	0.288154	-0.484225	0	
1.1653	-0.617473	-1.1068	0	
1.1660	0.288154	-1.3835	0	
1.1667	0.288154	0.41505	0	
1.1673	-3.70484	1.9369	0	
1.1680	-7.0392	2.28277	0	
1.1687	-5.5161	1.6602	0	
1.1693	-3.99299	-0.8301	0	
1.1700	-4.61047	-2.35195	0	
1.1707	-4.61047	0.41505	0	
1.1713	-3.70484	1.03762	0	
1.1720	-3.99299	-0.8301	0	
1.1727	-4.28115	0.69175	0	
1.1733	-3.37552	3.45875	0	
1.1740	-1.56427	3.18205	0	
1.1747	-0.946792	3.80462	0	
1.1753	-0.617473	4.9806	0	
1.1760	0.905628	4.08132	0	
1.1767	2.09941	3.45875	0	
1.1773	1.19378	1.6602	0	
1.1780	2.09941	-2.62865	0	
1.1787	4.23998	-1.3835	0	
1.1793	4.23998	0.69175	0	
1.1800	3.00504	-4.1505	0	
1.1807	2.42873	-7.1942	0	
1.1813	2.42873	-2.35195	0	
1.1820	2.71688	1.03762	0	
1.1827	3.33436	0.13835	0	
1.1833	3.95183	-1.72937	0	
1.1840	3.33436	-5.04977	0	
1.1847	0.288154	-8.71605	0	
1.1853	-1.85242	-11.2063	0	
1.1860	0.288154	-16.9479	0	
1.1867	0.905628	-25.1797	0	
1.1873	-3.37552	-29.8144	0	
1.1880	-6.13357	-31.3363	0	
1.1887	-5.84541	-34.0341	0	
1.1893	-5.5161	-37.4237	0	
1.1900	-3.37552	-23.6578	0	
1.1907	0.576308	17.8471	0	
1.1913	-0.329319	62.3958	0	
1.1920	-3.37552	76.4383	0	
1.1927	-2.18174	63.9177	0	
1.1933	-0.0411649	45.863	0	
1.1940	-0.617473	31.5438	0	
1.1947	-0.0411649	22.0668	0	
1.1953	1.81126	16.2561	0	
1.1960	2.09941	12.3131	0	
1.1967	3.00504	9.89202	0	
1.1973	4.85746	5.87987	0	
1.1980	5.47493	1.03762	0	
1.1987	4.85746	-1.72937	0	
1.1993	3.33436	-5.04977	0	
1.2000	3.00504	-10.5838	0	
1.2007	4.85746	-11.2063	0	
1.2013	5.14561	-7.1942	0	
1.2020	3.00504	-6.01822	0	
1.2027	1.81126	-4.4272	0	
1.2033	-0.0411649	-2.62865	0	
1.2040	-1.56427	-6.57162	0	
1.2047	-0.946792	-9.33862	0	
1.2053	-1.56427	-4.4272	0	
1.2060	-2.46989	-0.484225	0	
1.2067	-0.329319	-1.3835	0	
1.2073	-0.329319	-3.25122	0	
1.2080	-4.28115	-5.39565	0	
1.2087	-4.61047	-7.81677	0	
1.2093	-1.56427	-5.39565	0	
1.2100	-3.37552	-2.00607	0	
1.2107	-5.22794	-1.3835	0	
1.2113	-2.46989	-2.35195	0	
1.2120	-1.85242	-2.62865	0	
1.2127	-3.37552	-2.35195	0	
1.2133	-1.56427	-1.72937	0	
1.2140	0.905628	-2.35195	0	
1.2147	0.288154	-2.62865	0	
1.2153	-0.0411649	-0.8301	0	
1.2160	1.19378	0.13835	0	
1.2167	1.48194	-3.25122	0	
1.2173	1.81126	-6.9175	0	
1.2180	2.71688	-7.1942	0	
1.2187	3.00504	-6.29492	0	
1.2193	2.71688	-8.43935	0	
1.2200	1.48194	-9.61532	0	
1.2207	-0.0411649	-6.9175	0	
1.2213	0.905628	-5.04977	0	
1.2220	1.81126	-6.9175	0	
1.2227	0.576308	-7.81677	0	
1.2233	0.576308	-7.1942	0	
1.2240	1.19378	-6.01822	0	
1.2247	-1.56427	-2.90535	0	
1.2253	-3.70484	-2.35195	0	
1.2260	-2.46989	-2.90535	0	
1.2267	-3.37552	-0.207525	0	
1.2273	-4.61047	4.9806	0	
1.2280	-2.75805	8.0243	0	
1.2287	-3.08737	9.89202	0	
1.2293	-6.13357	8.64687	0	
1.2300	-6.13357	4.08132	0	
1.2307	-6.13357	1.6602	0	
1.2313	-8.89162	2.55947	0	
1.2320	-7.36852	3.80462	0	
1.2327	-2.46989	3.45875	0	
1.2333	-1.23495	1.9369	0	
1.2340	-1.56427	0.69175	0	
1.2347	0.288154	1.31432	0	
1.2353	0.576308	-0.484225	0	
1.2360	0.288154	-2.62865	0	
1.2367	2.09941	-1.1068	0	
1.2373	2.09941	-0.484225	0	
1.2380	1.48194	-0.8301	0	
1.2387	3.00504	0.41505	0	
1.2393	2.09941	0.41505	0	
1.2400	1.19378	2.28277	0	
1.2407	3.95183	9.54615	0	
1.2413	4.5693	14.1809	0	
1.2420	1.48194	13.2124	0	
1.2427	1.19378	12.9357	0	
1.2433	0.288154	12.659	0	
1.2440	-1.85242	8.64687	0	
1.2447	-1.23495	2.28277	0	
1.2453	-0.0411649	-4.4272	0	
1.2460	-1.56427	-13.6275	0	
1.2467	-1.56427	-24.903	0	
1.2473	-1.85242	-31.613	0	
1.2480	-4.89862	-35.2792	0	
1.2487	-6.75104	-40.4674	0	
1.2493	-5.84541	-31.9588	0	
1.2500	-5.84541	1.6602	0	
1.2507	-6.13357	30.9212	0	
1.2513	-5.22794	31.2671	0	
1.2520	-2.46989	19.0231	0	
1.2527	0.576308	12.0364	0	
1.2533	0.905628	8.37017	0	
1.2540	-0.329319	5.60317	0	
1.2547	-0.0411649	1.9369	0	
1.2553	0.288154	-0.484225	0	
1.2560	1.19378	1.31432	0	
1.2567	3.00504	-0.484225	0	
1.2573	3.00504	-4.1505	0	
1.2580	2.71688	0.41505	0	
1.2587	4.23998	7.4709	0	
1.2593	3.33436	6.50245	0	
1.2600	0.288154	6.22575	0	
1.2607	1.19378	8.64687	0	
1.2613	3.00504	5.32647	0	
1.2620	0.905628	0.41505	0	
1.2627	0.288154	0.41505	0	
1.2633	2.09941	0.69175	0	
1.2640	0.288154	-2.35195	0	
1.2647	-1.85242	-6.9175	0	
1.2653	-1.85242	-15.426	0	
1.2660	-2.46989	-25.1797	0	
1.2667	-2.75805	-26.4248	0	
1.2673	-2.75805	-26.4248	0	
1.2680	-3.99299	-34.38	0	
1.2687	-3.70484	-36.1785	0	
1.2693	-0.617473	-23.3811	0	
1.2700	0.288154	-11.7597	0	
1.2707	-2.75805	-10.2379	0	
1.2713	-3.99299	-9.61532	0	
1.2720	-1.56427	-6.57162	0	
1.2727	-0.946792	1.9369	0	
1.2733	-1.56427	12.659	0	
1.2740	0.288154	15.0801	0	
1.2747	0.288154	9.89202	0	
1.2753	-1.56427	8.99275	0	
1.2760	0.288154	8.64687	0	
1.2767	2.09941	4.7039	0	
1.2773	0.288154	5.32647	0	
1.2780	1.19378	9.54615	0	
1.2787	5.14561	11.6906	0	
1.2793	4.85746	13.835	0	
1.2800	3.95183	15.7027	0	
1.2807	6.0924	16.2561	0	
1.2813	4.5693	16.602	0	
1.2820	-0.617473	12.3131	0	
1.2827	0.288154	6.50245	0	
1.2833	4.23998	6.22575	0	
1.2840	1.48194	5.60317	0	
1.2847	-2.46989	0.13835	0	
1.2853	-0.946792	-2.35195	0	
1.2860	-0.329319	-2.35195	0	
1.2867	-3.37552	-3.8738	0	
1.2873	-3.08737	-2.90535	0	
1.2880	-1.56427	-0.484225	0	
1.2887	-3.37552	-0.8301	0	
1.2893	-3.37552	-0.484225	0	
1.2900	-1.56427	0.41505	0	
1.2907	-3.70484	-1.72937	0	
1.2913	-6.75104	-1.3835	0	
1.2920	-5.22794	1.31432	0	
1.2927	-3.08737	2.55947	0	
1.2933	-3.08737	5.87987	0	
1.2940	-2.18174	12.659	0	
1.2947	1.19378	8.64687	0	
1.2953	3.00504	-9.06192	0	
1.2960	0.288154	-16.9479	0	
1.2967	-2.46989	-2.00607	0	
1.2973	1.48194	15.7027	0	
1.2980	3.62251	17.8471	0	
1.2987	1.19378	15.0801	0	
1.2993	1.81126	17.5013	0	
1.3000	2.71688	14.1809	0	
1.3007	0.576308	0.69175	0	
1.3013	1.48194	-10.5838	0	
1.3020	2.09941	-15.1493	0	
1.3027	-1.56427	-17.9163	0	
1.3033	-2.46989	-17.9163	0	
1.3040	-0.329319	-20.3374	0	
1.3047	-1.56427	-27.9467	0	
1.3053	-3.08737	-33.1348	0	
1.3060	-2.75805	-34.38	0	
1.3067	-3.99299	-40.7441	0	
1.3073	-4.61047	-50.221	0	
1.3080	-6.13357	-59.0754	0	
1.3087	-8.27414	-70.3509	0	
1.3093	-6.13357	-74.6398	0	
1.3100	-2.46989	-57.2769	0	
1.3107	-3.70484	-30.7137	0	
1.3113	-4.61047	-14.25	0	
1.3120	-1.56427	3.18205	0	
1.3127	-1.85242	44.687	0	
1.3133	-4.28115	87.0913	0	
1.3140	-3.37552	68.7599	0	
1.3147	-2.18174	-12.3823	0	
1.3153	-0.0411649	-80.7272	0	
1.3160	3.00504	-89.9275	0	
1.3167	2.42873	-72.8412	0	
1.3173	1.81126	-60.3206	0	
1.3180	3.95183	-43.8569	0	
1.3187	3.95183	-12.7282	0	
1.3193	4.85746	21.1675	0	
1.3200	9.13861	43.4419	0	
1.3207	7.28619	59.6288	0	
1.3213	2.71688	81.6265	0	
1.3220	7.6155	103.278	0	
1.3227	13.0904	113.931	0	
1.3233	9.13861	110.887	0	
1.3240	4.85746	90.135	0	
1.3247	3.95183	65.7162	0	
1.3253	2.09941	64.5403	0	
1.3260	2.09941	71.2502	0	
1.3267	4.23998	58.107	0	
1.3273	3.00504	41.6433	0	
1.3280	-0.617473	40.1215	0	
1.3287	-2.75805	37.6312	0	
1.3293	-2.18174	27.2549	0	
1.3300	-0.329319	19.369	0	
1.3307	-0.0411649	11.6906	0	
1.3313	-0.617473	2.55947	0	
1.3320	-0.617473	-2.00607	0	
1.3327	-0.946792	3.18205	0	
1.3333	0.905628	16.2561	0	
1.3340	3.62251	24.5571	0	
1.3347	3.00504	19.9224	0	
1.3353	2.09941	11.4139	0	
1.3360	3.33436	5.87987	0	
1.3367	2.09941	0.41505	0	
1.3373	3.00504	-2.00607	0	
1.3380	6.66871	-1.3835	0	
1.3387	6.0924	-3.25122	0	
1.3393	3.00504	-4.4272	0	
1.3400	3.62251	-3.8738	0	
1.3407	4.23998	-4.77307	0	
1.3413	3.33436	-6.57162	0	
1.3420	3.95183	-5.04977	0	
1.3427	4.85746	-5.39565	0	
1.3433	4.85746	-9.9612	0	
1.3440	3.33436	-12.1056	0	
1.3447	-1.56427	-10.5838	0	
1.3453	-3.08737	-12.3823	0	
1.3460	-0.329319	-15.7719	0	
1.3467	-0.0411649	-16.0486	0	
1.3473	-2.46989	-13.9042	0	
1.3480	-3.08737	-11.483	0	
1.3487	-3.99299	-10.5838	0	
1.3493	-3.70484	-12.1056	0	
1.3500	-1.56427	-13.2816	0	
1.3507	-2.46989	-12.3823	0	
1.3513	-5.84541	-13.0049	0	
1.3520	-5.22794	-14.25	0	
1.3527	-2.75805	-13.0049	0	
1.3533	-2.75805	-12.3823	0	
1.3540	-2.75805	-12.1056	0	
1.3547	-1.56427	-9.61532	0	
1.3553	-0.329319	-8.71605	0	
1.3560	0.905628	-9.61532	0	
1.3567	1.19378	-8.71605	0	
1.3573	2.42873	-9.61532	0	
1.3580	2.09941	-11.483	0	
1.3587	-0.329319	-10.5838	0	
1.3593	-0.329319	-7.81677	0	
1.3600	1.48194	-7.81677	0	
1.3607	-0.0411649	-12.3823	0	
1.3613	-0.617473	-15.426	0	
1.3620	1.81126	-14.8034	0	
1.3627	-0.0411649	-17.9163	0	
1.3633	-1.56427	-24.903	0	
1.3640	2.09941	-25.1797	0	
1.3647	2.09941	-25.1797	0	
1.3653	-1.56427	-34.38	0	
1.3660	-2.18174	-42.6118	0	
1.3667	-3.37552	-45.9322	0	
1.3673	-5.22794	-48.0766	0	
1.3680	-3.37552	-46.2781	0	
1.3687	-4.61047	-44.4103	0	
1.3693	-8.5623	-38.9455	0	
1.3700	-6.42172	-9.33862	0	
1.3707	-4.28115	35.2101	0	
1.3713	-6.75104	52.573	0	
1.3720	-6.75104	38.8763	0	
1.3727	-4.28115	20.545	0	
1.3733	-5.22794	11.068	0	
1.3740	-3.37552	9.54615	0	
1.3747	2.09941	-0.207525	0	
1.3753	1.19378	-26.4248	0	
1.3760	-1.56427	-39.5681	0	
1.3767	-0.0411649	-23.6578	0	
1.3773	3.00504	-13.2816	0	
1.3780	2.71688	-21.5826	0	
1.3787	1.48194	-26.1481	0	
1.3793	2.71688	-27.0474	0	
1.3800	5.76308	-26.4248	0	
1.3807	7.6155	-11.7597	0	
1.3813	6.66871	10.7913	0	
1.3820	4.23998	35.2101	0	
1.3827	3.33436	66.3388	0	
1.3833	2.42873	79.1362	0	
1.3840	0.905628	49.5293	0	
1.3847	1.81126	4.7039	0	
1.3853	4.85746	-20.96	0	
1.3860	3.00504	-28.2926	0	
1.3867	-1.85242	-24.6263	0	
1.3873	-2.18174	-17.2937	0	
1.3880	0.576308	-12.7282	0	
1.3887	-1.23495	-7.54007	0	
1.3893	-3.37552	-1.3835	0	
1.3900	-0.946792	-0.8301	0	
1.3907	0.905628	2.55947	0	
1.3913	-1.23495	13.5583	0	
1.3920	-3.08737	15.7027	0	
1.3927	-2.75805	1.31432	0	
1.3933	-2.46989	-9.9612	0	
1.3940	-0.617473	-2.62865	0	
1.3947	3.00504	16.2561	0	
1.3953	3.00504	31.2671	0	
1.3960	-0.329319	30.6445	0	
1.3967	1.19378	13.2124	0	
1.3973	5.14561	-5.67235	0	
1.3980	3.33436	-11.7597	0	
1.3987	2.09941	-9.9612	0	
1.3993	3.95183	-1.72937	0	
1.4000	3.62251	9.89202	0	
1.4007	3.00504	13.2124	0	
1.4013	4.85746	15.9794	0	
1.4020	2.42873	34.3108	0	
1.4027	-2.46989	41.6433	0	
1.4033	-0.0411649	11.4139	0	
1.4040	2.42873	-27.0474	0	
1.4047	-0.946792	-46.9006	0	
1.4053	-3.37552	-52.3655	0	
1.4060	-0.946792	-51.7429	0	
1.4067	0.288154	-53.8873	0	
1.4073	-1.56427	-63.641	0	
1.4080	-3.08737	-67.3073	0	
1.4087	-2.46989	-63.9869	0	
1.4093	-2.18174	-60.9432	0	
1.4100	-3.70484	-32.2355	0	
1.4107	-4.28115	19.6457	0	
1.4113	-3.37552	43.4419	0	
1.4120	-3.37552	31.2671	0	
1.4127	-2.75805	15.9794	0	
1.4133	-1.23495	1.03762	0	
1.4140	-0.946792	-10.5838	0	
1.4147	0.288154	-6.9175	0	
1.4153	3.62251	7.12502	0	
1.4160	4.5693	35.8326	0	
1.4167	3.95183	70.9043	0	
1.4173	4.85746	80.1046	0	
1.4180	4.85746	75.8158	0	
1.4187	4.85746	88.3364	0	
1.4193	5.47493	88.6131	0	
1.4200	4.23998	62.3958	0	
1.4207	3.00504	41.0208	0	
1.4213	3.33436	26.9782	0	
1.4220	3.00504	11.4139	0	
1.4227	2.09941	10.1687	0	
1.4233	3.95183	15.9794	0	
1.4240	3.00504	12.3131	0	
1.4247	-0.617473	12.3131	0	
1.4253	-0.946792	17.2246	0	
1.4260	0.288154	14.1809	0	
1.4267	-1.23495	13.2124	0	
1.4273	-1.85242	19.369	0	
1.4280	-0.329319	20.545	0	
1.4287	-1.23495	18.1238	0	
1.4293	-3.70484	20.545	0	
1.4300	-3.99299	25.7331	0	
1.4307	-2.46989	28.2234	0	
1.4313	-2.75805	24.2112	0	
1.4320	-3.99299	14.1809	0	
1.4327	-4.89862	5.87987	0	
1.4333	-4.28115	-0.207525	0	
1.4340	-2.46989	-13.9042	0	
1.4347	-0.946792	-31.3363	0	
1.4353	-0.617473	-39.8448	0	
1.4360	1.81126	-43.2344	0	
1.4367	3.00504	-49.9443	0	
1.4373	1.19378	-56.3084	0	
1.4380	0.576308	-56.3084	0	
1.4387	3.00504	-55.1325	0	
1.4393	2.71688	-55.755	0	
1.4400	0.576308	-49.5985	0	
1.4407	1.81126	-30.3678	0	
1.4413	1.19378	-9.33862	0	
1.4420	-0.946792	0.41505	0	
1.4427	-0.946792	1.6602	0	
1.4433	-1.56427	8.99275	0	
1.4440	-3.37552	26.079	0	
1.4447	-3.37552	38.2538	0	
1.4453	-2.75805	41.0208	0	
1.4460	-5.22794	41.6433	0	
1.4467	-6.42172	38.8763	0	
1.4473	-4.28115	41.0208	0	
1.4480	-4.28115	62.05	0	
1.4487	-6.13357	74.5706	0	
1.4493	-5.22794	42.5426	0	
1.4500	-2.75805	-6.01822	0	
1.4507	-2.75805	-26.4248	0	
1.4513	-2.46989	-30.0911	0	
1.4520	0.288154	-35.9018	0	
1.4527	1.19378	-38.6688	0	
1.4533	1.19378	-40.7441	0	
1.4540	2.09941	-48.4225	0	
1.4547	-0.0411649	-53.2647	0	
1.4553	-1.56427	-51.4662	0	
1.4560	1.81126	-49.9443	0	
1.4567	3.33436	-51.7429	0	
1.4573	0.905628	-53.6106	0	
1.4580	-1.85242	-51.1203	0	
1.4587	-6.13357	-48.4225	0	
1.4593	-9.46792	-52.988	0	
1.4600	-6.13357	-55.4092	0	
1.4607	-2.18174	-39.2222	0	
1.4613	-2.46989	-8.71605	0	
1.4620	-2.75805	24.5571	0	
1.4627	-1.56427	47.7307	0	
1.4633	-2.46989	42.5426	0	
1.4640	-4.61047	11.4139	0	
1.4647	-4.61047	-13.2816	0	
1.4653	-3.37552	-18.193	0	
1.4660	-4.89862	-11.483	0	
1.4667	-7.36852	10.5146	0	
1.4673	-6.75104	41.6433	0	
1.4680	-6.75104	52.0196	0	
1.4687	-9.79724	41.92	0	
1.4693	-8.89162	37.3545	0	
1.4700	-5.84541	40.6749	0	
1.4707	-6.13357	37.0086	0	
1.4713	-7.65667	25.1105	0	
1.4720	-7.0392	14.4576	0	
1.4727	-3.99299	10.7913	0	
1.4733	-0.946792	8.64687	0	
1.4740	-1.23495	0.41505	0	
1.4747	-0.617473	-12.3823	0	
1.4753	3.00504	-24.903	0	
1.4760	3.62251	-32.5122	0	
1.4767	1.19378	-39.5681	0	
1.4773	2.09941	-63.641	0	
1.4780	3.95183	-100.58	0	
1.4787	1.48194	-115.868	0	
1.4793	1.48194	-113.724	0	
1.4800	3.33436	-126.521	0	
1.4807	1.48194	-125.622	0	
1.4813	0.576308	-64.6094	0	
1.4820	3.95183	28.7768	0	
1.4827	6.0924	92.5561	0	
1.4833	4.85746	97.1908	0	
1.4840	1.48194	61.4274	0	
1.4847	-0.617473	46.2089	0	
1.4853	1.19378	70.9043	0	
1.4860	4.23998	81.2806	0	
1.4867	4.85746	68.4832	0	
1.4873	4.85746	73.6713	0	
1.4880	6.38056	75.1932	0	
1.4887	6.66871	39.7756	0	
1.4893	4.85746	4.7039	0	
1.4900	2.09941	-13.9042	0	
1.4907	0.288154	-46.5548	0	
1.4913	0.288154	-89.0282	0	
1.4920	0.288154	-117.667	0	
1.4927	-1.56427	-126.521	0	
1.4933	-2.75805	-101.203	0	
1.4940	-3.08737	-37.4237	0	
1.4947	-1.56427	38.8763	0	
1.4953	1.48194	113.309	0	
1.4960	4.85746	168.234	0	
1.4967	6.99803	172.868	0	
1.4973	7.28619	135.583	0	
1.4980	7.28619	98.3668	0	
1.4987	10.0442	77.9602	0	
1.4993	12.1848	69.3825	0	
1.5000	6.66871	61.7733	0	
1.5007	-3.99299	37.9771	0	
1.5013	-8.89162	4.7039	0	
1.5020	-6.75104	-16.9479	0	
1.5027	-4.28115	-28.2926	0	
1.5033	-3.37552	-32.2355	0	
1.5040	-3.70484	-26.7707	0	
1.5047	-2.75805	-26.1481	0	
1.5053	-1.23495	-35.5559	0	
1.5060	-1.85242	-41.9892	0	
1.5067	-5.22794	-42.8885	0	
1.5073	-6.75104	-21.5826	0	
1.5080	-4.61047	42.5426	0	
1.5087	-4.28115	102.379	0	
1.5093	-7.0392	99.2661	0	
1.5100	-6.75104	60.874	0	
1.5107	-3.99299	37.0086	0	
1.5113	-3.37552	21.4442	0	
1.5120	-3.99299	-6.9175	0	
1.5127	-2.18174	-35.2792	0	
1.5133	-0.617473	-45.3788	0	
1.5140	-0.0411649	-45.6555	0	
1.5147	1.19378	-49.0451	0	
1.5153	3.00504	-34.38	0	
1.5160	2.71688	8.37017	0	
1.5167	0.288154	37.9771	0	
1.5173	-0.946792	26.6324	0	
1.5180	1.81126	4.9806	0	
1.5187	4.85746	-5.04977	0	
1.5193	3.95183	-14.25	0	
1.5200	3.00504	-26.1481	0	
1.5207	5.76308	-38.9455	0	
1.5213	6.0924	-51.4662	0	
1.5220	1.19378	-56.3084	0	
1.5227	-1.56427	-59.0754	0	
1.5233	1.19378	-65.1628	0	
1.5240	2.09941	-67.0306	0	
1.5247	-0.329319	-65.5087	0	
1.5253	0.288154	-61.4966	0	
1.5260	1.19378	-43.5111	0	
1.5267	1.81126	-17.5704	0	
1.5273	3.00504	1.31432	0	
1.5280	1.19378	22.4127	0	
1.5287	-5.84541	49.2526	0	
1.5293	-12.226	68.4832	0	
1.5300	-13.1316	76.0925	0	
1.5307	-7.94482	74.2939	0	
1.5313	1.19378	53.8181	0	
1.5320	10.3324	17.8471	0	
1.5327	16.466	-16.6712	0	
1.5333	17.6597	-45.6555	0	
1.5340	16.7541	-65.5087	0	
1.5347	18.8947	-58.7987	0	
1.5353	23.1758	-31.613	0	
1.5360	20.4178	-16.9479	0	
1.5367	14.3254	-26.1481	0	
1.5373	12.8023	-37.147	0	
1.5380	13.0904	-39.8448	0	
1.5387	13.7079	-42.8885	0	
1.5393	16.7541	-48.0766	0	
1.5400	17.9891	-45.3788	0	
1.5407	13.0904	-35.5559	0	
1.5413	5.76308	-29.4685	0	
1.5420	-1.56427	-20.6141	0	
1.5427	-10.4147	7.7476	0	
1.5433	-19.8826	49.8752	0	
1.5440	-25.3576	73.948	0	
1.5447	-25.6457	63.5718	0	
1.5453	-22.5995	34.9334	0	
1.5460	-19.2652	12.3131	0	
1.5467	-15.2722	-4.4272	0	
1.5473	-11.9378	-25.1797	0	
1.5480	-10.4147	-32.2355	0	
1.5487	-10.7029	-14.25	0	
1.5493	-11.0322	4.7039	0	
1.5500	-9.79724	19.9224	0	
1.5507	-7.94482	53.1956	0	
1.5513	-7.94482	93.5246	0	
1.5520	-8.89162	107.567	0	
1.5527	-9.17977	79.1362	0	
1.5533	-7.36852	26.9782	0	
1.5540	-5.22794	-3.25122	0	
1.5547	-6.13357	-5.04977	0	
1.5553	-6.13357	-31.9588	0	
1.5560	-1.56427	-80.1738	0	
1.5567	0.905628	-91.726	0	
1.5573	1.48194	-96.6374	0	
1.5580	4.85746	-149.695	0	
1.5587	4.85746	-201.922	0	
1.5593	0.288154	-212.298	0	
1.5600	0.288154	-223.85	0	
1.5607	1.81126	-232.151	0	
1.5613	0.288154	-173.837	0	
1.5620	1.48194	-57.5536	0	
1.5627	3.95183	42.8193	0	
1.5633	2.09941	91.0343	0	
1.5640	0.576308	109.642	0	
1.5647	2.09941	131.017	0	
1.5653	3.00504	149.625	0	
1.5660	2.71688	140.494	0	
1.5667	1.48194	101.134	0	
1.5673	-1.23495	55.6859	0	
1.5680	-0.329319	35.4868	0	
1.5687	3.00504	53.8181	0	
1.5693	3.95183	79.1362	0	
1.5700	5.76308	90.4809	0	
1.5707	6.99803	112.133	0	
1.5713	4.23998	138.973	0	
1.5720	3.00504	138.073	0	
1.5727	3.95183	122.163	0	
1.5733	3.33436	110.265	0	
1.5740	4.85746	94.7005	0	
1.5747	8.52113	72.4262	0	
1.5753	7.6155	38.8763	0	
1.5760	6.38056	2.83617	0	
1.5767	7.6155	-16.0486	0	
1.5773	7.6155	-34.38	0	
1.5780	7.28619	-39.2222	0	
1.5787	6.66871	13.5583	0	
1.5793	3.00504	60.874	0	
1.5800	0.905628	21.4442	0	
1.5807	3.33436	-27.3241	0	
1.5813	5.76308	-15.426	0	
1.5820	4.85746	1.9369	0	
1.5827	3.00504	4.08132	0	
1.5833	1.19378	12.9357	0	
1.5840	-0.946792	3.18205	0	
1.5847	-3.08737	-21.8593	0	
1.5853	-4.61047	-30.7137	0	
1.5860	-5.22794	-32.2355	0	
1.5867	-4.61047	-42.6118	0	
1.5873	-7.36852	-55.4092	0	
1.5880	-12.5553	-70.0742	0	
1.5887	-13.1316	-84.1168	0	
1.5893	-7.65667	-98.436	0	
1.5900	-4.28115	-117.39	0	
1.5907	-3.37552	-118.289	0	
1.5913	-0.617473	-96.6374	0	
1.5920	-1.23495	-81.0731	0	
1.5927	-2.75805	-55.1325	0	
1.5933	-0.329319	23.0353	0	
1.5940	-0.329319	120.364	0	
1.5947	6.99803	159.448	0	
1.5953	42.3998	126.798	0	
1.5960	78.0898	77.6143	0	
1.5967	78.7073	59.3521	0	
1.5973	71.7092	58.107	0	
1.5980	80.2304	41.2975	0	
1.5987	77.1842	18.7464	0	
1.5993	57.9602	10.5146	0	
1.6000	44.2111	4.08132	0	
1.6007	18.6065	-5.04977	0	
1.6013	-24.7401	-2.35195	0	
1.6020	-46.7222	-2.35195	0	
1.6027	-40.9179	-16.6712	0	
1.6033	-43.3466	-28.846	0	
1.6040	-52.8146	-32.5122	0	
1.6047	-48.8627	-40.7441	0	
1.6053	-43.0585	-44.4103	0	
1.6060	-48.2453	-27.67	0	
1.6067	-47.6278	-0.484225	0	
1.6073	-36.0193	17.2246	0	
1.6080	-29.9269	20.2683	0	
1.6087	-34.208	17.8471	0	
1.6093	-37.2542	15.9794	0	
1.6100	-33.5906	11.4139	0	
1.6107	-27.7863	4.9806	0	
1.6113	-27.4981	1.31432	0	
1.6120	-29.3094	1.03762	0	
1.6127	-27.1688	-2.00607	0	
1.6133	-21.4057	-8.09347	0	
1.6140	-14.3665	-11.7597	0	
1.6147	-7.0392	-16.0486	0	
1.6153	-2.46989	-25.5256	0	
1.6160	0.576308	-30.7137	0	
1.6167	1.81126	-28.846	0	
1.6173	-2.18174	-27.3241	0	
1.6180	-4.28115	-24.2804	0	
1.6187	1.19378	-17.9163	0	
1.6193	3.95183	-15.426	0	
1.6200	1.81126	-14.8034	0	
1.6207	4.85746	-10.5838	0	
1.6213	7.6155	-8.71605	0	
1.6220	2.09941	-9.33862	0	
1.6227	-0.946792	-5.04977	0	
1.6233	1.48194	1.31432	0	
1.6240	0.288154	4.9806	0	
1.6247	-1.85242	4.7039	0	
1.6253	-2.75805	-0.484225	0	
1.6260	-5.84541	-4.4272	0	
1.6267	-6.13357	-4.1505	0	
1.6273	-2.46989	-5.67235	0	
1.6280	-1.56427	-8.43935	0	
1.6287	-3.99299	-6.9175	0	
1.6293	-3.37552	-3.25122	0	
1.6300	-0.946792	-0.207525	0	
1.6307	-0.0411649	2.83617	0	
1.6313	-0.329319	2.28277	0	
1.6320	-1.85242	-3.25122	0	
1.6327	-2.46989	-9.06192	0	
1.6333	0.288154	-14.25	0	
1.6340	2.71688	-22.7586	0	
1.6347	2.71688	-38.6688	0	
1.6353	3.95183	-53.2647	0	
1.6360	6.66871	-59.0754	0	
1.6367	6.66871	-65.7854	0	
1.6373	4.5693	-74.0172	0	
1.6380	4.5693	-68.8291	0	
1.6387	6.0924	-52.7113	0	
1.6393	5.76308	-23.1044	0	
1.6400	4.85746	39.4989	0	
1.6407	7.6155	95.669	0	
1.6413	10.0442	84.3243	0	
1.6420	8.23298	31.8205	0	
1.6427	6.66871	-2.90535	0	
1.6433	6.0924	-15.1493	0	
1.6440	4.23998	-19.7149	0	
1.6447	3.00504	-29.8144	0	
1.6453	2.09941	-52.988	0	
1.6460	-0.617473	-56.3084	0	
1.6467	-2.46989	-33.4807	0	
1.6473	-3.70484	-35.9018	0	
1.6480	-4.89862	-54.5099	0	
1.6487	-2.46989	-21.5826	0	
1.6493	1.19378	44.3412	0	
1.6500	0.288154	74.9165	0	
1.6507	-2.18174	69.1058	0	
1.6513	0.288154	58.3837	0	
1.6520	3.95183	48.0074	0	
1.6527	3.95183	29.7452	0	
1.6533	3.00504	8.99275	0	
1.6540	4.23998	14.4576	0	
1.6547	5.14561	54.7174	0	
1.6553	4.85746	67.2381	0	
1.6560	6.38056	20.545	0	
1.6567	9.13861	-14.25	0	
1.6573	9.42676	-1.1068	0	
1.6580	8.80929	7.4709	0	
1.6587	10.3324	-10.8605	0	
1.6593	9.42676	-26.7707	0	
1.6600	5.76308	-25.8023	0	
1.6607	4.5693	-2.35195	0	
1.6613	7.6155	43.4419	0	
1.6620	9.13861	79.1362	0	
1.6627	7.6155	77.3376	0	
1.6633	5.76308	58.107	0	
1.6640	6.38056	48.0074	0	
1.6647	5.14561	40.6749	0	
1.6653	1.81126	26.6324	0	
1.6660	1.19378	13.5583	0	
1.6667	3.95183	7.4709	0	
1.6673	4.85746	2.28277	0	
1.6680	3.95183	-1.72937	0	
1.6687	1.19378	-0.8301	0	
1.6693	-0.329319	7.4709	0	
1.6700	2.09941	21.1675	0	
1.6707	3.95183	28.7768	0	
1.6713	1.81126	25.4564	0	
1.6720	1.48194	21.7901	0	
1.6727	3.00504	17.8471	0	
1.6733	3.62251	3.18205	0	
1.6740	7.6155	-10.8605	0	
1.6747	12.1848	-14.25	0	
1.6753	10.3324	-14.5267	0	
1.6760	8.80929	-14.25	0	
1.6767	10.6617	-8.71605	0	
1.6773	9.75608	-5.04977	0	
1.6780	7.28619	-7.81677	0	
1.6787	4.23998	-10.5838	0	
1.6793	-0.617473	-10.2379	0	
1.6800	-0.329319	-10.2379	0	
1.6807	4.23998	-9.9612	0	
1.6813	4.23998	-8.71605	0	
1.6820	3.00504	-6.9175	0	
1.6827	3.95183	-6.29492	0	
1.6833	1.81126	-9.06192	0	
1.6840	-1.56427	-13.2816	0	
1.6847	-1.56427	-16.0486	0	
1.6853	-1.85242	-17.2937	0	
1.6860	-4.28115	-17.9163	0	
1.6867	-4.89862	-17.5704	0	
1.6873	-5.22794	-15.1493	0	
1.6880	-5.22794	-11.7597	0	
1.6887	-5.22794	-10.5838	0	
1.6893	-6.13357	-9.33862	0	
1.6900	-4.89862	-8.71605	0	
1.6907	-1.23495	-10.5838	0	
1.6913	-1.56427	-14.25	0	
1.6920	-3.99299	-14.8034	0	
1.6927	-2.75805	-14.25	0	
1.6933	-2.18174	-13.2816	0	
1.6940	0.576308	-12.1056	0	
1.6947	11.2792	-12.3823	0	
1.6953	19.5122	-11.7597	0	
1.6960	17.6597	-12.1056	0	
1.6967	15.8485	-17.9163	0	
1.6973	16.7541	-20.3374	0	
1.6980	13.4198	-13.9042	0	
1.6987	10.3324	-7.1942	0	
1.6993	4.5693	3.45875	0	
1.7000	-7.94482	21.4442	0	
1.7007	-12.8434	29.1227	0	
1.7013	-5.84541	20.545	0	
1.7020	-3.70484	9.89202	0	
1.7027	-9.46792	-0.484225	0	
1.7033	-13.4609	-9.61532	0	
1.7040	-13.1316	-15.1493	0	
1.7047	-8.27414	-25.1797	0	
1.7053	-3.99299	-38.9455	0	
1.7060	-4.61047	-43.5111	0	
1.7067	6.99803	-36.1785	0	
1.7073	36.8837	-18.8156	0	
1.7080	59.7714	4.9806	0	
1.7087	61.912	20.8908	0	
1.7093	50.921	21.4442	0	
1.7100	30.5032	15.9794	0	
1.7107	9.42676	12.3131	0	
1.7113	0.905628	8.37017	0	
1.7120	-6.13357	1.9369	0	
1.7127	-27.1688	-4.1505	0	
1.7133	-43.6759	-8.71605	0	
1.7140	-26.8807	-13.2816	0	
1.7147	4.85746	-16.6712	0	
1.7153	16.7541	-10.5838	0	
1.7160	14.9429	-1.1068	0	
1.7167	11.5673	1.31432	0	
1.7173	1.19378	-0.484225	0	
1.7180	-12.226	3.45875	0	
1.7187	-21.6939	9.54615	0	
1.7193	-39.1066	17.8471	0	
1.7200	-56.8075	38.8763	0	
1.7207	-52.1971	64.817	0	
1.7213	-36.0193	68.1374	0	
1.7220	-29.9269	49.5293	0	
1.7227	-28.4038	37.6312	0	
1.7233	-22.5995	33.4115	0	
1.7240	-19.2652	15.3568	0	
1.7247	-18.6477	-16.0486	0	
1.7253	-14.3665	-33.7574	0	
1.7260	-9.79724	-21.8593	0	
1.7267	-8.89162	-4.77307	0	
1.7273	-7.94482	-9.06192	0	
1.7280	-7.36852	-22.7586	0	
1.7287	-11.6085	-30.7137	0	
1.7293	-11.3203	-39.2222	0	
1.7300	-3.37552	-45.0329	0	
1.7307	-2.46989	-49.3218	0	
1.7313	-11.3203	-65.1628	0	
1.7320	-16.219	-78.3061	0	
1.7327	-18.0302	-83.2175	0	
1.7333	-22.5995	-95.3923	0	
1.7340	-23.5052	-92.3486	0	
1.7347	-19.2652	-63.9869	0	
1.7353	-13.7491	-46.9006	0	
1.7360	-8.89162	-2.35195	0	
1.7367	-4.61047	120.364	0	
1.7373	-3.37552	221.083	0	
1.7380	-3.08737	199.086	0	
1.7387	-1.56427	123.131	0	
1.7393	0.576308	74.2939	0	
1.7400	0.576308	43.1652	0	
1.7407	-1.23495	18.7464	0	
1.7413	-2.18174	7.7476	0	
1.7420	-0.617473	2.83617	0	
1.7427	-0.0411649	3.18205	0	
1.7433	-3.37552	10.5146	0	
1.7440	-5.5161	14.1809	0	
1.7447	-2.75805	12.0364	0	
1.7453	-1.23495	9.54615	0	
1.7460	-2.46989	4.08132	0	
1.7467	-1.85242	-4.1505	0	
1.7473	-0.946792	-4.77307	0	
1.7480	-1.56427	-3.52792	0	
1.7487	0.288154	-12.3823	0	
1.7493	3.00504	-17.2937	0	
1.7500	1.81126	-13.2816	0	
1.7507	0.288154	-21.5826	0	
1.7513	2.71688	-23.3811	0	
1.7520	4.23998	5.87987	0	
1.7527	2.42873	25.1105	0	
1.7533	1.48194	1.31432	0	
1.7540	2.42873	-27.9467	0	
1.7547	2.42873	-31.3363	0	
1.7553	1.19378	-17.5704	0	
1.7560	2.09941	-6.01822	0	
1.7567	5.76308	-10.5838	0	
1.7573	7.6155	-28.5693	0	
1.7580	5.76308	-45.9322	0	
1.7587	3.95183	-45.3788	0	
1.7593	3.33436	-3.52792	0	
1.7600	3.00504	54.7174	0	
1.7607	3.62251	59.0063	0	
1.7613	3.62251	14.1809	0	
1.7620	3.95183	-10.5838	0	
1.7627	5.76308	-9.33862	0	
1.7633	3.62251	-11.7597	0	
1.7640	-3.08737	-12.1056	0	
1.7647	-3.37552	-3.52792	0	
1.7653	-0.617473	1.31432	0	
1.7660	-3.08737	-0.484225	0	
1.7667	-4.28115	-3.25122	0	
1.7673	-3.37552	2.28277	0	
1.7680	-6.75104	10.5146	0	
1.7687	-8.5623	9.54615	0	
1.7693	-3.99299	5.87987	0	
1.7700	-3.37552	7.12502	0	
1.7707	-5.5161	3.18205	0	
1.7713	-3.37552	-2.35195	0	
1.7720	-2.18174	4.35802	0	
1.7727	-3.70484	14.7343	0	
1.7733	-3.08737	18.7464	0	
1.7740	-1.85242	16.8787	0	
1.7747	-0.617473	6.50245	0	
1.7753	2.09941	-10.2379	0	
1.7760	1.19378	-20.96	0	
1.7767	-0.946792	-23.3811	0	
1.7773	0.576308	-22.7586	0	
1.7780	1.19378	-22.4819	0	
1.7787	0.576308	-18.8156	0	
1.7793	3.62251	-16.9479	0	
1.7800	5.14561	-27.9467	0	
1.7807	3.00504	-39.5681	0	
1.7813	1.48194	-47.5232	0	
1.7820	-0.329319	-75.2624	0	
1.7827	-2.46989	-107.913	0	
1.7833	-2.75805	-100.304	0	
1.7840	-1.85242	-67.9298	0	
1.7847	-0.946792	-49.5985	0	
1.7853	0.288154	-26.1481	0	
1.7860	-0.617473	17.8471	0	
1.7867	-0.946792	51.0511	0	
1.7873	1.48194	59.9055	0	
1.7880	0.905628	59.0063	0	
1.7887	-2.18174	57.2077	0	
1.7893	-0.946792	53.5414	0	
1.7900	1.19378	46.2089	0	
1.7907	0.288154	31.2671	0	
1.7913	-0.329319	17.5013	0	
1.7920	-0.0411649	10.1687	0	
1.7927	-0.617473	0.41505	0	
1.7933	-2.18174	-6.29492	0	
1.7940	-1.56427	6.22575	0	
1.7947	1.19378	27.8775	0	
1.7953	2.09941	34.3108	0	
1.7960	-0.0411649	26.9782	0	
1.7967	1.48194	22.0668	0	
1.7973	5.76308	15.9794	0	
1.7980	5.47493	7.7476	0	
1.7987	3.95183	6.84832	0	
1.7993	7.6155	8.99275	0	
1.8000	9.13861	5.87987	0	
1.8007	5.47493	3.80462	0	
1.8013	5.76308	3.45875	0	
1.8020	8.23298	1.31432	0	
1.8027	6.0924	2.28277	0	
1.8033	6.0924	4.35802	0	
1.8040	9.13861	1.9369	0	
1.8047	6.38056	-0.484225	0	
1.8053	2.42873	-2.35195	0	
1.8060	2.09941	-10.5838	0	
1.8067	-3.70484	-20.6141	0	
1.8073	-11.0322	-30.7137	0	
1.8080	-7.0392	-39.2222	0	
1.8087	-1.85242	-38.0462	0	
1.8093	-5.22794	-35.0025	0	
1.8100	-6.42172	-37.147	0	
1.8107	-2.46989	-15.426	0	
1.8113	-0.946792	37.0086	0	
1.8120	-3.08737	73.6713	0	
1.8127	-4.28115	68.1374	0	
1.8133	-2.46989	43.7878	0	
1.8140	1.48194	18.7464	0	
1.8147	2.42873	0.41505	0	
1.8153	1.19378	1.6602	0	
1.8160	2.71688	17.5013	0	
1.8167	3.33436	24.5571	0	
1.8173	-1.85242	18.4005	0	
1.8180	-5.84541	11.068	0	
1.8187	-3.37552	4.08132	0	
1.8193	-0.617473	-7.1942	0	
1.8200	-1.56427	-15.1493	0	
1.8207	-2.46989	-16.9479	0	
1.8213	-0.946792	-18.8156	0	
1.8220	0.288154	-22.4819	0	
1.8227	-1.85242	-28.5693	0	
1.8233	-4.61047	-32.5122	0	
1.8240	-3.37552	-32.8581	0	
1.8247	-0.0411649	-34.38	0	
1.8253	-1.23495	-34.38	0	
1.8260	-4.89862	-27.3241	0	
1.8267	-3.70484	-20.6141	0	
1.8273	0.288154	5.87987	0	
1.8280	0.288154	70.9043	0	
1.8287	-0.946792	116.421	0	
1.8293	-0.617473	89.2357	0	
1.8300	-1.85242	37.3545	0	
1.8307	-3.37552	14.4576	0	
1.8313	-1.85242	4.7039	0	
1.8320	-0.617473	-10.2379	0	
1.8327	-2.46989	-23.3811	0	
1.8333	-3.99299	-26.1481	0	
1.8340	-5.22794	-9.9612	0	
1.8347	-6.13357	11.4139	0	
1.8353	-3.37552	12.0364	0	
1.8360	-0.946792	-4.77307	0	
1.8367	-0.0411649	-16.9479	0	
1.8373	2.09941	-21.5826	0	
1.8380	3.33436	-22.4819	0	
1.8387	0.288154	-20.3374	0	
1.8393	-0.617473	-18.8156	0	
1.8400	2.42873	-17.9163	0	
1.8407	3.00504	-15.1493	0	
1.8413	1.19378	-14.25	0	
1.8420	3.00504	-14.25	0	
1.8427	4.85746	-11.2063	0	
1.8433	2.09941	-9.61532	0	
1.8440	-2.46989	-11.483	0	
1.8447	-7.0392	-10.5838	0	
1.8453	-11.0322	-7.54007	0	
1.8460	-11.6085	-12.1056	0	
1.8467	-10.0854	-14.25	0	
1.8473	-8.89162	-2.35195	0	
1.8480	-5.84541	5.87987	0	
1.8487	-0.946792	-0.207525	0	
1.8493	3.00504	-4.77307	0	
1.8500	7.28619	-4.1505	0	
1.8507	10.0442	-8.71605	0	
1.8513	6.38056	-15.1493	0	
1.8520	0.288154	-15.7719	0	
1.8527	-0.617473	-7.1942	0	
1.8533	1.19378	13.835	0	
1.8540	3.33436	33.9649	0	
1.8547	5.14561	32.4431	0	
1.8553	4.5693	17.2246	0	
1.8560	3.62251	10.5146	0	
1.8567	6.0924	6.84832	0	
1.8573	7.90366	-4.1505	0	
1.8580	5.76308	-17.9163	0	
1.8587	5.47493	-31.613	0	
1.8593	8.23298	-45.0329	0	
1.8600	9.75608	-46.2781	0	
1.8607	9.42676	-35.2792	0	
1.8613	8.52113	-30.0911	0	
1.8620	6.99803	-18.8156	0	
1.8627	5.14561	20.545	0	
1.8633	4.23998	56.2393	0	
1.8640	3.95183	44.687	0	
1.8647	2.71688	9.54615	0	
1.8653	1.19378	-10.8605	0	
1.8660	0.288154	-22.4819	0	
1.8667	0.288154	-35.0025	0	
1.8673	-0.329319	-36.8011	0	
1.8680	-1.56427	-21.8593	0	
1.8687	-2.46989	-3.8738	0	
1.8693	-1.85242	-4.1505	0	
1.8700	-1.23495	-24.6263	0	
1.8707	-2.46989	-41.3666	0	
1.8713	-3.37552	-45.0329	0	
1.8720	-1.85242	-41.7125	0	
1.8727	-1.85242	-34.0341	0	
1.8733	-4.89862	-33.4807	0	
1.8740	-3.37552	-34.6567	0	
1.8747	2.09941	-8.71605	0	
1.8753	1.19378	27.6008	0	
1.8760	-1.85242	40.1215	0	
1.8767	0.288154	46.2089	0	
1.8773	3.33436	55.6859	0	
1.8780	1.19378	50.4977	0	
1.8787	-0.0411649	46.8315	0	
1.8793	3.33436	52.0196	0	
1.8800	4.85746	39.7756	0	
1.8807	2.71688	17.5013	0	
1.8813	3.95183	12.0364	0	
1.8820	7.6155	14.7343	0	
1.8827	6.0924	8.99275	0	
1.8833	5.14561	0.41505	0	
1.8840	9.13861	0.13835	0	
1.8847	8.52113	8.37017	0	
1.8853	3.95183	12.0364	0	
1.8860	4.85746	7.7476	0	
1.8867	7.28619	6.84832	0	
1.8873	5.14561	7.7476	0	
1.8880	3.62251	9.26945	0	
1.8887	4.5693	19.9224	0	
1.8893	4.85746	29.7452	0	
1.8900	3.95183	24.2112	0	
1.8907	-0.617473	17.5013	0	
1.8913	-7.65667	18.1238	0	
1.8920	-12.5553	16.602	0	
1.8927	-12.5553	14.1809	0	
1.8933	-7.94482	13.835	0	
1.8940	1.81126	12.3131	0	
1.8947	11.5673	12.3131	0	
1.8953	13.0904	13.2124	0	
1.8960	9.75608	8.0243	0	
1.8967	9.42676	2.28277	0	
1.8973	7.6155	1.31432	0	
1.8980	0.288154	-6.9175	0	
1.8987	-5.84541	-21.2367	0	
1.8993	-6.75104	-27.3241	0	
1.9000	-3.08737	-25.5256	0	
1.9007	0.905628	-26.7707	0	
1.9013	1.19378	-29.8144	0	
1.9020	-1.56427	-31.9588	0	
1.9027	-5.84541	-32.8581	0	
1.9033	-10.7029	-31.3363	0	
1.9040	-11.0322	-32.8581	0	
1.9047	-7.36852	-37.7004	0	
1.9053	-7.0392	-37.4237	0	
1.9060	-8.27414	-38.9455	0	
1.9067	-7.0392	-48.0766	0	
1.9073	-6.42172	-48.0766	0	
1.9080	-8.89162	-39.8448	0	
1.9087	-11.3203	-27.9467	0	
1.9093	-11.6085	24.2112	0	
1.9100	-7.0392	107.844	0	
1.9107	2.09941	133.162	0	
1.9113	6.99803	80.3813	0	
1.9120	3.95183	34.3108	0	
1.9127	2.09941	27.2549	0	
1.9133	2.09941	23.0353	0	
1.9140	0.288154	12.0364	0	
1.9147	-0.617473	4.08132	0	
1.9153	-1.56427	-4.1505	0	
1.9160	-5.84541	-9.9612	0	
1.9167	-6.13357	-10.8605	0	
1.9173	-1.85242	-14.8034	0	
1.9180	-2.46989	-19.7149	0	
1.9187	-5.22794	-16.3945	0	
1.9193	-2.18174	-9.33862	0	
1.9200	-0.617473	-3.52792	0	
1.9207	-3.08737	-0.207525	0	
1.9213	-1.23495	4.08132	0	
1.9220	0.288154	16.8787	0	
1.9227	-3.37552	37.0086	0	
1.9233	-2.46989	45.5863	0	
1.9240	0.905628	36.7319	0	
1.9247	-1.56427	26.6324	0	
1.9253	-4.28115	23.312	0	
1.9260	-3.37552	20.545	0	
1.9267	-2.75805	12.3131	0	
1.9273	-3.37552	-16.3945	0	
1.9280	-3.99299	-57.2769	0	
1.9287	-4.28115	-73.7405	0	
1.9293	-1.56427	-64.2636	0	
1.9300	0.576308	-55.1325	0	
1.9307	-0.329319	-38.6688	0	
1.9313	-3.37552	-7.1942	0	
1.9320	-6.75104	9.89202	0	
1.9327	-6.13357	5.60317	0	
1.9333	-1.23495	1.6602	0	
1.9340	3.95183	0.41505	0	
1.9347	4.85746	-1.3835	0	
1.9353	3.95183	3.45875	0	
1.9360	4.23998	9.26945	0	
1.9367	6.99803	7.12502	0	
1.9373	9.42676	4.35802	0	
1.9380	9.42676	3.80462	0	
1.9387	7.6155	1.03762	0	
1.9393	3.33436	-3.25122	0	
1.9400	-1.85242	-6.9175	0	
1.9407	-4.89862	-12.3823	0	
1.9413	-6.42172	-19.7149	0	
1.9420	-7.36852	-23.1044	0	
1.9427	-5.5161	-15.426	0	
1.9433	-4.89862	2.28277	0	
1.9440	-6.75104	17.2246	0	
1.9447	-5.22794	19.369	0	
1.9453	-1.85242	11.6906	0	
1.9460	-2.46989	4.08132	0	
1.9467	-3.70484	0.13835	0	
1.9473	-4.28115	-2.35195	0	
1.9480	-5.5161	-3.8738	0	
1.9487	-5.22794	-1.72937	0	
1.9493	-4.89862	0.41505	0	
1.9500	-4.89862	-0.207525	0	
1.9507	-2.18174	-2.35195	0	
1.9513	-0.617473	-6.9175	0	
1.9520	-1.85242	-10.5838	0	
1.9527	0.288154	-5.67235	0	
1.9533	3.95183	9.26945	0	
1.9540	4.85746	18.7464	0	
1.9547	6.99803	11.6906	0	
1.9553	8.23298	-2.90535	0	
1.9560	5.14561	-13.6275	0	
1.9567	5.47493	-22.4819	0	
1.9573	6.66871	-32.8581	0	
1.9580	2.71688	-39.5681	0	
1.9587	0.288154	-44.1336	0	
1.9593	4.23998	-51.7429	0	
1.9600	8.23298	-45.3788	0	
1.9607	10.0442	-10.5838	0	
1.9613	10.6617	29.7452	0	
1.9620	13.7079	48.0074	0	
1.9627	29.8857	43.4419	0	
1.9633	51.8678	29.1227	0	
1.9640	53.0615	17.2246	0	
1.9647	35.9781	12.3131	0	
1.9653	24.0815	11.6906	0	
1.9660	18.6065	15.9794	0	
1.9667	13.9961	25.4564	0	
1.9673	20.4178	29.1227	0	
1.9680	25.6046	27.8775	0	
1.9687	5.76308	32.1664	0	
1.9693	-22.5995	35.2101	0	
1.9700	-35.443	26.9782	0	
1.9707	-40.3004	14.7343	0	
1.9713	-45.199	2.28277	0	
1.9720	-41.8235	-11.483	0	
1.9727	-33.3024	-13.0049	0	
1.9733	-23.8345	7.4709	0	
1.9740	-8.89162	30.6445	0	
1.9747	4.23998	34.3108	0	
1.9753	4.85746	23.0353	0	
1.9760	-0.617473	15.3568	0	
1.9767	1.19378	12.3131	0	
1.9773	7.6155	4.08132	0	
1.9780	9.13861	-6.29492	0	
1.9787	6.99803	-9.61532	0	
1.9793	10.3324	-8.43935	0	
1.9800	11.8555	-8.43935	0	
1.9807	2.09941	-5.04977	0	
1.9813	-11.3203	-0.207525	0	
1.9820	-18.9358	1.31432	0	
1.9827	-22.5995	2.28277	0	
1.9833	-21.6939	4.08132	0	
1.9840	-19.5533	1.03762	0	
1.9847	-23.217	-3.8738	0	
1.9853	-23.5052	-4.1505	0	
1.9860	-13.1316	-5.67235	0	
1.9867	-4.28115	-6.9175	0	
1.9873	-0.0411649	-0.8301	0	
1.9880	3.95183	4.08132	0	
1.9887	4.23998	1.31432	0	
1.9893	2.09941	0.41505	0	
1.9900	3.00504	1.03762	0	
1.9907	1.48194	-3.25122	0	
1.9913	-3.37552	-7.81677	0	
1.9920	-5.5161	-10.2379	0	
1.9927	-6.13357	-12.1056	0	
1.9933	-7.36852	-9.61532	0	
1.9940	-5.22794	-3.25122	0	
1.9947	-1.85242	-2.35195	0	
1.9953	-0.946792	-3.52792	0	
1.9960	0.288154	-0.484225	0	
1.9967	2.42873	4.9806	0	
1.9973	3.00504	6.50245	0	
1.9980	3.95183	4.9806	0	
1.9987	5.76308	2.83617	0	
1.9993	4.85746	-1.1068	0	
2.0000	3.33436	-5.04977	0	
2.0007	4.5693	-7.81677	0	
2.0013	6.38056	-11.483	0	
2.0020	6.0924	-17.9163	0	
2.0027	4.85746	-20.6141	0	
2.0033	3.95183	-17.9163	0	
2.0040	3.62251	-14.8034	0	
2.0047	3.95183	-12.1056	0	
2.0053	3.62251	-11.483	0	
2.0060	3.62251	-14.25	0	
2.0067	3.95183	-16.6712	0	
2.0073	3.00504	-15.426	0	
2.0080	2.09941	-11.7597	0	
2.0087	2.42873	-8.71605	0	
2.0093	3.00504	-8.71605	0	
2.0100	2.42873	-9.61532	0	
2.0107	0.576308	-6.29492	0	
2.0113	-0.617473	-3.52792	0	
2.0120	0.905628	-4.1505	0	
2.0127	2.42873	-2.35195	0	
2.0133	1.48194	1.9369	0	
2.0140	2.42873	1.31432	0	
2.0147	4.85746	0.13835	0	
2.0153	4.23998	1.03762	0	
2.0160	3.33436	1.31432	0	
2.0167	5.76308	0.41505	0	
2.0173	8.52113	0.41505	0	
2.0180	7.28619	-2.00607	0	
2.0187	5.76308	-7.54007	0	
2.0193	6.38056	-9.61532	0	
2.0200	7.28619	-8.09347	0	
2.0207	6.0924	-7.81677	0	
2.0213	3.95183	-8.71605	0	
2.0220	3.00504	-8.71605	0	
2.0227	3.62251	-9.9612	0	
2.0233	4.85746	-9.9612	0	
2.0240	4.5693	-7.81677	0	
2.0247	1.48194	-5.39565	0	
2.0253	-0.617473	-2.62865	0	
2.0260	0.288154	2.28277	0	
2.0267	1.19378	5.60317	0	
2.0273	-1.56427	8.64687	0	
2.0280	-3.99299	15.0801	0	
2.0287	-3.08737	19.6457	0	
2.0293	-2.18174	18.4005	0	
2.0300	-3.08737	17.8471	0	
2.0307	-3.08737	16.8787	0	
2.0313	-2.46989	14.1809	0	
2.0320	-2.18174	14.7343	0	
2.0327	-0.617473	19.369	0	
2.0333	1.48194	18.7464	0	
2.0340	-0.617473	13.2124	0	
2.0347	-3.37552	8.64687	0	
2.0353	-1.85242	5.87987	0	
2.0360	0.905628	4.08132	0	
2.0367	0.905628	3.80462	0	
2.0373	0.905628	1.31432	0	
2.0380	3.95183	-4.77307	0	
2.0387	6.66871	-19.7149	0	
2.0393	5.76308	-42.6118	0	
2.0400	2.42873	-57.8995	0	
2.0407	2.09941	-63.641	0	
2.0413	3.95183	-73.1179	0	
2.0420	3.95183	-77.4068	0	
2.0427	2.09941	-71.8728	0	
2.0433	0.905628	-67.3073	0	
2.0440	-0.0411649	-51.1203	0	
2.0447	-0.946792	-4.1505	0	
2.0453	-1.56427	46.8315	0	
2.0460	-2.46989	76.0925	0	
2.0467	-2.46989	93.5246	0	
2.0473	-2.18174	96.5683	0	
2.0480	-4.28115	76.9917	0	
2.0487	-6.13357	50.1519	0	
2.0493	-5.22794	30.6445	0	
2.0500	-3.37552	19.369	0	
2.0507	-2.75805	15.9794	0	
2.0513	-3.08737	13.5583	0	
2.0520	-4.89862	10.5146	0	
2.0527	-5.22794	12.0364	0	
2.0533	-1.56427	14.1809	0	
2.0540	0.288154	12.3131	0	
2.0547	0.576308	13.2124	0	
2.0553	3.33436	20.2683	0	
2.0560	4.23998	29.3994	0	
2.0567	2.71688	37.0086	0	
2.0573	3.00504	36.7319	0	
2.0580	4.23998	31.2671	0	
2.0587	4.23998	26.079	0	
2.0593	3.62251	12.0364	0	
2.0600	3.00504	-7.1942	0	
2.0607	3.33436	-9.61532	0	
2.0613	3.33436	0.41505	0	
2.0620	1.48194	0.41505	0	
2.0627	1.19378	-6.57162	0	
2.0633	2.09941	-6.57162	0	
2.0640	0.288154	-2.35195	0	
2.0647	-2.46989	-0.484225	0	
2.0653	-3.08737	-2.62865	0	
2.0660	-3.70484	-7.1942	0	
2.0667	-3.99299	-10.5838	0	
2.0673	-4.28115	-13.6275	0	
2.0680	-6.13357	-17.9163	0	
2.0687	-5.22794	-19.0923	0	
2.0693	-4.28115	-16.9479	0	
2.0700	-5.84541	-14.5267	0	
2.0707	-5.5161	-11.483	0	
2.0713	-3.37552	-6.9175	0	
2.0720	-2.46989	-4.77307	0	
2.0727	-0.946792	-8.09347	0	
2.0733	-0.329319	-13.6275	0	
2.0740	-1.56427	-15.426	0	
2.0747	0.576308	-14.8034	0	
2.0753	3.00504	-16.9479	0	
2.0760	0.288154	-19.0923	0	
2.0767	-0.329319	-15.426	0	
2.0773	3.95183	-11.2063	0	
2.0780	5.47493	-9.61532	0	
2.0787	3.95183	-7.81677	0	
2.0793	2.71688	-8.71605	0	
2.0800	3.00504	-15.426	0	
2.0807	4.5693	-23.3811	0	
2.0813	3.95183	-27.0474	0	
2.0820	1.19378	-29.8144	0	
2.0827	-0.329319	-28.2926	0	
2.0833	-0.0411649	-14.8034	0	
2.0840	-0.946792	6.84832	0	
2.0847	-2.75805	23.0353	0	
2.0853	-4.28115	26.9782	0	
2.0860	-5.22794	25.1105	0	
2.0867	-5.22794	22.0668	0	
2.0873	-3.99299	16.602	0	
2.0880	-4.28115	9.26945	0	
2.0887	-6.75104	4.9806	0	
2.0893	-7.36852	3.80462	0	
2.0900	-7.36852	-0.8301	0	
2.0907	-7.65667	-8.71605	0	
2.0913	-7.0392	-9.9612	0	
2.0920	-6.13357	0.69175	0	
2.0927	-5.84541	15.9794	0	
2.0933	-1.85242	26.079	0	
2.0940	2.42873	24.5571	0	
2.0947	0.576308	14.7343	0	
2.0953	-1.85242	9.89202	0	
2.0960	-0.0411649	13.5583	0	
2.0967	1.19378	12.3131	0	
2.0973	1.19378	4.08132	0	
2.0980	2.42873	2.28277	0	
2.0987	2.71688	6.84832	0	
2.0993	3.00504	4.9806	0	
2.1000	4.23998	1.03762	0	
2.1007	3.95183	3.45875	0	
2.1013	1.48194	7.7476	0	
2.1020	1.19378	6.84832	0	
2.1027	3.33436	4.08132	0	
2.1033	5.47493	0.41505	0	
2.1040	4.23998	-8.71605	0	
2.1047	1.19378	-22.4819	0	
2.1053	-0.0411649	-37.147	0	
2.1060	-0.617473	-44.4103	0	
2.1067	-1.85242	-32.5122	0	
2.1073	-1.85242	-4.4272	0	
2.1080	-2.18174	19.0231	0	
2.1087	-4.28115	19.6457	0	
2.1093	-5.22794	5.87987	0	
2.1100	-3.70484	-2.90535	0	
2.1107	-2.75805	-0.484225	0	
2.1113	-1.56427	2.55947	0	
2.1120	0.288154	1.31432	0	
2.1127	1.81126	0.41505	0	
2.1133	2.09941	-1.3835	0	
2.1140	3.33436	-3.52792	0	
2.1147	5.14561	4.9806	0	
2.1153	6.38056	14.1809	0	
2.1160	6.66871	-0.207525	0	
2.1167	6.66871	-27.67	0	
2.1173	3.33436	-40.4674	0	
2.1180	-2.46989	-36.1785	0	
2.1187	-4.28115	-28.846	0	
2.1193	-1.56427	-25.5256	0	
2.1200	1.19378	-24.2804	0	
2.1207	2.09941	-19.7149	0	
2.1213	0.288154	-10.5838	0	
2.1220	0.288154	-3.25122	0	
2.1227	2.09941	3.80462	0	
2.1233	0.288154	17.2246	0	
2.1240	-3.70484	28.5001	0	
2.1247	-3.08737	27.8775	0	
2.1253	-1.23495	22.4127	0	
2.1260	-1.85242	18.7464	0	
2.1267	-1.85242	13.835	0	
2.1273	-1.56427	10.1687	0	
2.1280	-3.08737	10.7913	0	
2.1287	-2.75805	12.3131	0	
2.1293	-1.56427	10.1687	0	
2.1300	-1.85242	5.60317	0	
2.1307	-0.946792	1.9369	0	
2.1313	1.19378	2.83617	0	
2.1320	3.62251	6.50245	0	
2.1327	7.28619	8.37017	0	
2.1333	10.0442	8.99275	0	
2.1340	7.90366	9.89202	0	
2.1347	8.23298	6.84832	0	
2.1353	12.473	1.31432	0	
2.1360	8.52113	0.13835	0	
2.1367	-2.75805	-0.8301	0	
2.1373	-7.94482	-5.04977	0	
2.1380	-11.0322	-6.9175	0	
2.1387	-18.0302	-6.57162	0	
2.1393	-19.2652	-8.71605	0	
2.1400	-13.7491	-10.5838	0	
2.1407	-6.75104	-10.5838	0	
2.1413	9.13861	-13.9042	0	
2.1420	28.0333	-17.9163	0	
2.1427	33.5494	-17.9163	0	
2.1433	28.6508	-10.5838	0	
2.1440	20.1296	0.41505	0	
2.1447	7.6155	13.2124	0	
2.1453	-1.23495	27.2549	0	
2.1460	-5.84541	32.4431	0	
2.1467	-13.1316	18.7464	0	
2.1473	-17.1246	-0.207525	0	
2.1480	-14.3665	-10.5838	0	
2.1487	-13.7491	-20.6141	0	
2.1493	-13.7491	-28.846	0	
2.1500	-10.0854	-25.8023	0	
2.1507	-9.46792	-27.3241	0	
2.1513	-12.8434	-31.613	0	
2.1520	-12.8434	-6.29492	0	
2.1527	-9.46792	37.3545	0	
2.1533	-6.13357	54.4407	0	
2.1540	-3.99299	43.4419	0	
2.1547	-3.37552	26.079	0	
2.1553	-2.18174	9.26945	0	
2.1560	-0.329319	0.69175	0	
2.1567	1.19378	3.80462	0	
2.1573	2.42873	8.64687	0	
2.1580	2.42873	11.6906	0	
2.1587	0.905628	12.9357	0	
2.1593	1.19378	8.99275	0	
2.1600	1.81126	2.28277	0	
2.1607	1.48194	-1.3835	0	
2.1613	3.00504	-3.8738	0	
2.1620	4.23998	-7.81677	0	
2.1627	2.09941	-11.483	0	
2.1633	1.48194	-12.7282	0	
2.1640	2.09941	-10.8605	0	
2.1647	0.905628	-9.06192	0	
2.1653	-1.56427	-7.81677	0	
2.1660	-2.46989	-6.29492	0	
2.1667	-3.08737	-4.77307	0	
2.1673	-2.75805	-2.62865	0	
2.1680	-4.28115	0.41505	0	
2.1687	-4.28115	3.18205	0	
2.1693	-1.23495	5.32647	0	
2.1700	-0.946792	6.84832	0	
2.1707	-4.28115	6.50245	0	
2.1713	-3.08737	4.08132	0	
2.1720	-1.56427	-2.00607	0	
2.1727	-3.08737	-10.5838	0	
2.1733	-1.56427	-15.7719	0	
2.1740	2.09941	-19.4382	0	
2.1747	2.09941	-26.1481	0	
2.1753	1.81126	-32.8581	0	
2.1760	3.00504	-38.9455	0	
2.1767	2.09941	-45.0329	0	
2.1773	1.81126	-38.0462	0	
2.1780	3.00504	-20.6141	0	
2.1787	3.95183	-12.3823	0	
2.1793	3.95183	-8.43935	0	
2.1800	3.00504	3.18205	0	
2.1807	3.00504	10.5146	0	
2.1813	3.00504	10.5146	0	
2.1820	2.09941	15.9794	0	
2.1827	2.09941	25.1105	0	
2.1833	4.5693	32.7889	0	
2.1840	3.95183	36.7319	0	
2.1847	0.288154	31.8205	0	
2.1853	-0.617473	24.8338	0	
2.1860	-0.329319	18.7464	0	
2.1867	-0.946792	5.87987	0	
2.1873	-2.18174	-6.29492	0	
2.1880	-2.75805	-3.25122	0	
2.1887	-1.85242	3.18205	0	
2.1893	0.576308	0.41505	0	
2.1900	1.48194	-4.1505	0	
2.1907	0.576308	-7.1942	0	
2.1913	-0.617473	-8.43935	0	
2.1920	-2.18174	-6.29492	0	
2.1927	-3.37552	-9.33862	0	
2.1933	-2.18174	-19.0923	0	
2.1940	2.09941	-26.1481	0	
2.1947	3.95183	-25.8023	0	
2.1953	2.09941	-22.7586	0	
2.1960	2.09941	-20.96	0	
2.1967	3.00504	-22.4819	0	
2.1973	0.288154	-22.4819	0	
2.1980	-2.18174	-13.9042	0	
2.1987	0.576308	3.80462	0	
2.1993	3.33436	22.6894	0	
2.2000	3.00504	30.6445	0	
2.2007	2.42873	24.2112	0	
2.2013	1.81126	16.8787	0	
2.2020	1.19378	15.7027	0	
2.2027	0.905628	14.7343	0	
2.2033	-0.0411649	11.4139	0	
2.2040	0.288154	11.4139	0	
2.2047	0.905628	11.4139	0	
2.2053	-1.23495	9.54615	0	
2.2060	-2.75805	9.89202	0	
2.2067	-1.23495	10.5146	0	
2.2073	-2.46989	6.50245	0	
2.2080	-5.22794	0.41505	0	
2.2087	-3.70484	-2.35195	0	
2.2093	-2.18174	-1.3835	0	
2.2100	-3.99299	-1.3835	0	
2.2107	-5.22794	-4.1505	0	
2.2113	-5.22794	-6.57162	0	
2.2120	-3.70484	-7.1942	0	
2.2127	-1.56427	-9.06192	0	
2.2133	-0.617473	-9.9612	0	
2.2140	0.576308	-6.29492	0	
2.2147	1.48194	-3.25122	0	
2.2153	0.288154	-3.25122	0	
2.2160	0.576308	-0.207525	0	
2.2167	3.95183	4.9806	0	
2.2173	3.62251	4.35802	0	
2.2180	2.71688	1.31432	0	
2.2187	6.38056	3.18205	0	
2.2193	5.76308	5.60317	0	
2.2200	1.48194	4.7039	0	
2.2207	3.33436	4.35802	0	
2.2213	6.38056	6.84832	0	
2.2220	4.85746	7.7476	0	
2.2227	5.14561	4.7039	0	
2.2233	6.38056	2.28277	0	
2.2240	3.00504	1.31432	0	
2.2247	-0.617473	-0.207525	0	
2.2253	-3.99299	-3.8738	0	
2.2260	-7.0392	-8.71605	0	
2.2267	-7.0392	-18.193	0	
2.2273	-6.13357	-29.8144	0	
2.2280	-6.75104	-38.9455	0	
2.2287	-7.94482	-51.7429	0	
2.2293	-8.89162	-63.3643	0	
2.2300	-8.5623	-61.8424	0	
2.2307	-5.22794	-56.6543	0	
2.2313	-3.37552	-54.5099	0	
2.2320	-5.5161	-28.846	0	
2.2327	-7.36852	26.9782	0	
2.2333	-5.22794	73.6713	0	
2.2340	-0.0411649	81.6265	0	
2.2347	2.42873	64.1944	0	
2.2353	0.288154	43.4419	0	
2.2360	0.576308	31.2671	0	
2.2367	2.42873	26.9782	0	
2.2373	1.81126	22.0668	0	
2.2380	3.95183	15.0801	0	
2.2387	7.28619	13.5583	0	
2.2393	5.47493	13.2124	0	
2.2400	3.62251	9.26945	0	
2.2407	5.14561	3.45875	0	
2.2413	5.14561	-6.01822	0	
2.2420	6.66871	-14.25	0	
2.2427	8.80929	-14.25	0	
2.2433	6.0924	-13.2816	0	
2.2440	3.62251	-13.2816	0	
2.2447	2.09941	-5.04977	0	
2.2453	-4.28115	3.45875	0	
2.2460	-9.79724	1.31432	0	
2.2467	-10.7029	-2.35195	0	
2.2473	-13.7491	-2.35195	0	
2.2480	-12.5553	-3.8738	0	
2.2487	-2.46989	0.41505	0	
2.2493	5.76308	6.22575	0	
2.2500	6.38056	1.31432	0	
2.2507	3.95183	-6.01822	0	
2.2513	-1.56427	-6.01822	0	
2.2520	-9.79724	-7.54007	0	
2.2527	-14.0784	-11.483	0	
2.2533	-13.1316	-9.9612	0	
2.2540	-7.94482	-5.04977	0	
2.2547	1.19378	-4.1505	0	
2.2553	11.5673	-6.9175	0	
2.2560	19.5122	-6.57162	0	
2.2567	21.9409	-1.3835	0	
2.2573	20.4178	3.18205	0	
2.2580	17.9891	5.60317	0	
2.2587	13.9961	7.4709	0	
2.2593	6.0924	5.60317	0	
2.2600	-0.946792	-0.8301	0	
2.2607	-4.61047	-9.06192	0	
2.2613	-6.42172	-17.5704	0	
2.2620	-9.79724	-18.4697	0	
2.2627	-15.8896	-11.7597	0	
2.2633	-23.8345	-18.8156	0	
2.2640	-29.3094	-40.4674	0	
2.2647	-23.5052	-48.4225	0	
2.2653	-8.89162	-37.4237	0	
2.2660	0.576308	-26.1481	0	
2.2667	-1.56427	-20.6141	0	
2.2673	-5.22794	-16.3945	0	
2.2680	-4.89862	-5.67235	0	
2.2687	-5.22794	13.5583	0	
2.2693	-5.22794	28.2234	0	
2.2700	-1.56427	32.7889	0	
2.2707	-1.56427	35.4868	0	
2.2713	-3.08737	35.4868	0	
2.2720	-0.329319	30.0219	0	
2.2727	1.81126	24.8338	0	
2.2733	0.288154	20.545	0	
2.2740	0.576308	15.9794	0	
2.2747	2.09941	12.3131	0	
2.2753	2.42873	8.0243	0	
2.2760	4.85746	5.87987	0	
2.2767	6.66871	8.0243	0	
2.2773	4.23998	6.50245	0	
2.2780	3.33436	1.31432	0	
2.2787	6.66871	2.83617	0	
2.2793	7.28619	5.87987	0	
2.2800	4.5693	4.08132	0	
2.2807	3.95183	3.18205	0	
2.2813	5.47493	2.28277	0	
2.2820	3.95183	-0.484225	0	
2.2827	0.288154	0.69175	0	
2.2833	-1.56427	3.45875	0	
2.2840	-0.329319	1.6602	0	
2.2847	-1.23495	3.18205	0	
2.2853	-4.28115	6.84832	0	
2.2860	-3.37552	5.32647	0	
2.2867	-2.18174	4.7039	0	
2.2873	-3.99299	8.0243	0	
2.2880	-5.22794	7.4709	0	
2.2887	-3.37552	6.84832	0	
2.2893	-3.37552	10.5146	0	
2.2900	-4.61047	8.64687	0	
2.2907	-5.22794	0.69175	0	
2.2913	-4.61047	-2.00607	0	
2.2920	-4.89862	-4.1505	0	
2.2927	-6.13357	-11.483	0	
2.2933	-5.5161	-14.8034	0	
2.2940	-1.23495	-12.1056	0	
2.2947	0.905628	-10.5838	0	
2.2953	-1.56427	-10.5838	0	
2.2960	-0.617473	-10.5838	0	
2.2967	3.00504	-12.3823	0	
2.2973	3.95183	-13.2816	0	
2.2980	5.14561	-11.7597	0	
2.2987	7.6155	-12.1056	0	
2.2993	4.5693	-12.1056	0	
2.3000	0.288154	-9.61532	0	
2.3007	1.19378	-8.71605	0	
2.3013	1.19378	-7.81677	0	
2.3020	1.19378	-2.00607	0	
2.3027	5.76308	1.9369	0	
2.3033	6.99803	0.69175	0	
2.3040	2.09941	5.60317	0	
2.3047	1.19378	19.6457	0	
2.3053	3.00504	29.3994	0	
2.3060	-1.85242	25.1105	0	
2.3067	-7.94482	13.5583	0	
2.3073	-7.36852	4.9806	0	
2.3080	-2.75805	1.6602	0	
2.3087	-2.18174	1.31432	0	
2.3093	-7.0392	1.03762	0	
2.3100	-7.94482	0.41505	0	
2.3107	-3.37552	2.28277	0	
2.3113	-3.08737	4.08132	0	
2.3120	-3.70484	3.80462	0	
2.3127	1.19378	2.55947	0	
2.3133	2.09941	-0.207525	0	
2.3140	-0.946792	-8.09347	0	
2.3147	0.905628	-15.1493	0	
2.3153	2.71688	-13.6275	0	
2.3160	-0.617473	-10.5838	0	
2.3167	-0.617473	-9.61532	0	
2.3173	2.42873	-8.71605	0	
2.3180	0.288154	-9.61532	0	
2.3187	-2.46989	-9.61532	0	
2.3193	-1.85242	-5.04977	0	
2.3200	0.288154	-2.35195	0	
2.3207	2.09941	-3.8738	0	
2.3213	1.19378	-2.00607	0	
2.3220	-0.329319	4.08132	0	
2.3227	0.288154	6.50245	0	
2.3233	-0.0411649	1.03762	0	
2.3240	-1.56427	-6.01822	0	
2.3247	-0.617473	-8.71605	0	
2.3253	-1.85242	-13.9042	0	
2.3260	-4.28115	-22.4819	0	
2.3267	-1.85242	-25.8023	0	
2.3273	-0.329319	-27.0474	0	
2.3280	-1.85242	-30.9904	0	
2.3287	-0.617473	-30.7137	0	
2.3293	-0.946792	-29.8144	0	
2.3300	-1.23495	-23.3811	0	
2.3307	7.6155	10.1687	0	
2.3313	16.7541	56.5851	0	
2.3320	14.3254	77.3376	0	
2.3327	9.75608	71.5269	0	
2.3333	7.6155	57.7611	0	
2.3340	2.71688	39.7756	0	
2.3347	2.09941	25.1105	0	
2.3353	7.6155	18.4005	0	
2.3360	7.6155	12.659	0	
2.3367	-0.329319	7.12502	0	
2.3373	-5.22794	3.18205	0	
2.3380	-3.37552	-0.207525	0	
2.3387	-1.23495	-1.3835	0	
2.3393	-1.56427	-3.25122	0	
2.3400	0.905628	-6.29492	0	
2.3407	5.47493	-3.25122	0	
2.3413	6.66871	1.31432	0	
2.3420	3.95183	0.13835	0	
2.3427	2.42873	-0.484225	0	
2.3433	1.81126	1.03762	0	
2.3440	1.81126	-0.484225	0	
2.3447	3.95183	-0.484225	0	
2.3453	6.66871	1.9369	0	
2.3460	7.6155	4.35802	0	
2.3467	4.85746	8.37017	0	
2.3473	-0.617473	7.4709	0	
2.3480	-7.94482	-2.62865	0	
2.3487	-13.4609	-10.2379	0	
2.3493	-15.8896	-9.61532	0	
2.3500	-17.1246	-7.54007	0	
2.3507	-18.9358	-5.04977	0	
2.3513	-16.5071	-4.77307	0	
2.3520	-9.46792	-6.57162	0	
2.3527	-4.61047	-4.1505	0	
2.3533	-3.37552	0.69175	0	
2.3540	-1.56427	3.18205	0	
2.3547	-1.85242	4.08132	0	
2.3553	-2.18174	4.08132	0	
2.3560	0.288154	2.83617	0	
2.3567	0.905628	4.7039	0	
2.3573	-0.617473	5.87987	0	
2.3580	-0.617473	4.08132	0	
2.3587	-1.23495	3.80462	0	
2.3593	-2.46989	1.03762	0	
2.3600	-1.23495	-6.57162	0	
2.3607	-0.329319	-10.5838	0	
2.3613	-0.617473	-14.25	0	
2.3620	0.905628	-21.5826	0	
2.3627	2.71688	-26.7707	0	
2.3633	1.48194	-27.0474	0	
2.3640	0.288154	-28.846	0	
2.3647	-0.0411649	-29.8144	0	
2.3653	-0.0411649	-27.9467	0	
2.3660	-0.946792	-27.3241	0	
2.3667	-2.75805	-19.0923	0	
2.3673	-5.22794	5.60317	0	
2.3680	-5.5161	26.3557	0	
2.3687	-3.99299	23.312	0	
2.3693	-3.37552	11.6906	0	
2.3700	-4.28115	6.84832	0	
2.3707	-4.28115	2.28277	0	
2.3713	-4.28115	-2.00607	0	
2.3720	-4.89862	-3.25122	0	
2.3727	-5.22794	-5.04977	0	
2.3733	-7.0392	-6.01822	0	
2.3740	-8.5623	-1.72937	0	
2.3747	-4.61047	0.41505	0	
2.3753	-1.23495	0.69175	0	
2.3760	-1.56427	5.32647	0	
2.3767	-0.329319	9.89202	0	
2.3773	1.19378	9.89202	0	
2.3780	-0.0411649	9.54615	0	
2.3787	1.19378	9.54615	0	
2.3793	3.62251	9.26945	0	
2.3800	1.19378	9.89202	0	
2.3807	-0.329319	7.7476	0	
2.3813	2.09941	-0.207525	0	
2.3820	1.48194	-6.9175	0	
2.3827	-0.946792	-10.5838	0	
2.3833	-0.617473	-17.2937	0	
2.3840	0.288154	-27.3241	0	
2.3847	-0.946792	-31.3363	0	
2.3853	-2.46989	-27.3241	0	
2.3860	-2.46989	-23.6578	0	
2.3867	-1.85242	-23.3811	0	
2.3873	-1.56427	-23.3811	0	
2.3880	-1.56427	-19.4382	0	
2.3887	-1.56427	-12.7282	0	
2.3893	-3.08737	-5.39565	0	
2.3900	-4.28115	4.35802	0	
2.3907	-2.46989	19.9224	0	
2.3913	-0.329319	38.8763	0	
2.3920	-0.617473	50.4977	0	
2.3927	-0.0411649	48.0074	0	
2.3933	2.09941	39.153	0	
2.3940	3.00504	33.6882	0	
2.3947	3.00504	26.3557	0	
2.3953	3.33436	9.26945	0	
2.3960	2.09941	-4.4272	0	
2.3967	1.48194	-4.1505	0	
2.3973	3.00504	0.69175	0	
2.3980	2.42873	3.45875	0	
2.3987	1.19378	7.12502	0	
2.3993	3.62251	5.87987	0	
2.4000	5.14561	0.13835	0	
2.4007	3.00504	0.41505	0	
2.4013	1.81126	3.80462	0	
2.4020	2.09941	-1.1068	0	
2.4027	2.09941	-9.06192	0	
2.4033	-0.329319	-15.1493	0	
2.4040	-3.37552	-27.0474	0	
2.4047	-2.46989	-39.5681	0	
2.4053	-0.329319	-37.4237	0	
2.4060	-2.46989	-26.1481	0	
2.4067	-3.70484	-26.7707	0	
2.4073	-1.56427	-35.5559	0	
2.4080	-1.56427	-37.4237	0	
2.4087	-2.75805	-37.147	0	
2.4093	-3.99299	-32.5122	0	
2.4100	-4.61047	-1.1068	0	
2.4107	-2.46989	48.0074	0	
2.4113	-0.0411649	72.4262	0	
2.4120	-2.46989	62.3958	0	
2.4127	-3.99299	43.4419	0	
2.4133	-0.617473	30.2986	0	
2.4140	1.19378	21.1675	0	
2.4147	0.905628	16.2561	0	
2.4153	0.288154	13.2124	0	
2.4160	-0.329319	10.5146	0	
2.4167	1.81126	9.54615	0	
2.4173	3.95183	13.2124	0	
2.4180	2.09941	17.5013	0	
2.4187	1.19378	15.9794	0	
2.4193	3.62251	4.9806	0	
2.4200	4.5693	-6.01822	0	
2.4207	4.5693	-4.1505	0	
2.4213	5.14561	3.18205	0	
2.4220	3.33436	1.9369	0	
2.4227	0.905628	-1.72937	0	
2.4233	-0.617473	-0.207525	0	
2.4240	-2.46989	0.41505	0	
2.4247	-4.28115	-2.90535	0	
2.4253	-4.89862	-3.52792	0	
2.4260	-6.42172	-2.35195	0	
2.4267	-6.75104	-2.62865	0	
2.4273	-3.70484	-3.25122	0	
2.4280	-1.23495	-1.3835	0	
2.4287	-2.46989	0.13835	0	
2.4293	-5.22794	-1.3835	0	
2.4300	-5.5161	-3.25122	0	
2.4307	-3.70484	-2.90535	0	
2.4313	-2.75805	-3.8738	0	
2.4320	-2.18174	-6.57162	0	
2.4327	-1.56427	-10.5838	0	
2.4333	-2.46989	-17.5704	0	
2.4340	-1.56427	-22.4819	0	
2.4347	3.00504	-18.8156	0	
2.4353	4.5693	-12.7282	0	
2.4360	4.5693	-9.61532	0	
2.4367	6.66871	-7.1942	0	
2.4373	6.66871	-8.43935	0	
2.4380	3.33436	-13.6275	0	
2.4387	1.81126	-17.5704	0	
2.4393	2.09941	-19.4382	0	
2.4400	3.00504	-18.193	0	
2.4407	2.09941	-15.1493	0	
2.4413	0.288154	-15.7719	0	
2.4420	0.288154	-12.1056	0	
2.4427	1.19378	2.28277	0	
2.4433	-0.0411649	11.4139	0	
2.4440	-1.23495	10.5146	0	
2.4447	-0.617473	19.0231	0	
2.4453	-0.617473	33.9649	0	
2.4460	-1.56427	32.7889	0	
2.4467	-1.23495	20.8908	0	
2.4473	-0.946792	15.0801	0	
2.4480	-2.46989	12.3131	0	
2.4487	-4.61047	7.7476	0	
2.4493	-3.37552	4.08132	0	
2.4500	-0.329319	1.9369	0	
2.4507	-0.329319	1.31432	0	
2.4513	-3.08737	1.6602	0	
2.4520	-5.22794	2.83617	0	
2.4527	-7.0392	3.18205	0	
2.4533	-8.5623	1.9369	0	
2.4540	-7.65667	2.83617	0	
2.4547	-3.99299	6.22575	0	
2.4553	2.09941	6.84832	0	
2.4560	6.0924	6.50245	0	
2.4567	5.47493	9.54615	0	
2.4573	5.76308	10.7913	0	
2.4580	8.52113	9.26945	0	
2.4587	8.52113	10.5146	0	
2.4593	7.6155	10.1687	0	
2.4600	8.52113	8.64687	0	
2.4607	7.6155	11.068	0	
2.4613	4.23998	10.1687	0	
2.4620	-0.617473	2.83617	0	
2.4627	-5.84541	0.41505	0	
2.4633	-4.89862	0.13835	0	
2.4640	1.19378	-5.04977	0	
2.4647	0.905628	-7.54007	0	
2.4653	-3.37552	-5.67235	0	
2.4660	-1.85242	-7.81677	0	
2.4667	3.00504	-14.25	0	
2.4673	4.23998	-19.7149	0	
2.4680	4.23998	-21.5826	0	
2.4687	2.09941	-20.3374	0	
2.4693	-5.5161	-19.0923	0	
2.4700	-13.4609	-18.8156	0	
2.4707	-19.8826	-16.9479	0	
2.4713	-23.5052	-16.3945	0	
2.4720	-20.459	-15.7719	0	
2.4727	-11.9378	-11.483	0	
2.4733	-8.89162	-8.71605	0	
2.4740	-7.36852	-9.06192	0	
2.4747	-0.0411649	-6.9175	0	
2.4753	8.80929	-5.04977	0	
2.4760	10.9499	-5.04977	0	
2.4767	6.66871	-4.1505	0	
2.4773	2.42873	-4.4272	0	
2.4780	4.5693	-6.9175	0	
2.4787	8.52113	-5.04977	0	
2.4793	9.42676	-1.3835	0	
2.4800	7.6155	-0.484225	0	
2.4807	2.42873	-0.8301	0	
2.4813	-4.61047	-1.1068	0	
2.4820	-3.37552	-2.35195	0	
2.4827	3.62251	-1.72937	0	
2.4833	5.76308	0.41505	0	
2.4840	4.5693	0.69175	0	
2.4847	3.00504	0.41505	0	
2.4853	-0.0411649	-1.72937	0	
2.4860	-1.23495	-6.01822	0	
2.4867	0.576308	-7.81677	0	
2.4873	-0.0411649	-6.57162	0	
2.4880	-1.56427	-6.9175	0	
2.4887	-2.46989	-8.71605	0	
2.4893	-3.08737	-8.71605	0	
2.4900	-2.75805	-5.67235	0	
2.4907	-2.46989	-2.90535	0	
2.4913	-3.70484	-4.77307	0	
2.4920	-3.99299	-4.1505	0	
2.4927	-2.75805	5.60317	0	
2.4933	-2.18174	13.5583	0	
2.4940	-0.329319	12.9357	0	
2.4947	1.19378	12.659	0	
2.4953	0.288154	14.4576	0	
2.4960	-0.617473	13.835	0	
2.4967	2.71688	12.3131	0	
2.4973	6.38056	10.1687	0	
2.4980	6.66871	7.12502	0	
2.4987	4.85746	8.0243	0	
2.4993	4.5693	10.5146	0	
2.5000	5.47493	11.068	0	
2.5007	4.23998	13.835	0	
2.5013	2.71688	15.3568	0	
2.5020	3.33436	15.0801	0	
2.5027	2.09941	11.4139	0	
2.5033	-0.617473	-4.1505	0	
2.5040	0.288154	-24.903	0	
2.5047	2.09941	-26.7707	0	
2.5053	1.19378	-11.483	0	
2.5060	-1.23495	-2.62865	0	
2.5067	-2.18174	-2.90535	0	
2.5073	-3.70484	-2.62865	0	
2.5080	-5.5161	-2.35195	0	
2.5087	-4.89862	-1.1068	0	
2.5093	-3.99299	1.31432	0	
2.5100	-4.89862	0.13835	0	
2.5107	-5.5161	-1.3835	0	
2.5113	-4.28115	0.69175	0	
2.5120	-3.99299	0.41505	0	
2.5127	-3.99299	-3.25122	0	
2.5133	-3.37552	-5.39565	0	
2.5140	-1.56427	-8.43935	0	
2.5147	1.19378	-11.2063	0	
2.5153	2.71688	-12.1056	0	
2.5160	2.09941	-17.5704	0	
2.5167	1.81126	-25.1797	0	
2.5173	0.576308	-27.3241	0	
2.5180	0.576308	-31.613	0	
2.5187	3.95183	-36.5244	0	
2.5193	4.85746	-33.4807	0	
2.5200	1.81126	-30.9904	0	
2.5207	2.09941	-28.846	0	
2.5213	3.62251	-2.62865	0	
2.5220	1.19378	43.1652	0	
2.5227	0.576308	72.1495	0	
2.5233	2.09941	70.9043	0	
2.5240	-0.946792	53.5414	0	
2.5247	-5.22794	34.3108	0	
2.5253	-3.99299	25.1105	0	
2.5260	-2.46989	23.312	0	
2.5267	-3.99299	19.6457	0	
2.5273	-2.75805	14.1809	0	
2.5280	-0.329319	13.2124	0	
2.5287	-1.85242	13.835	0	
2.5293	-3.99299	12.659	0	
2.5300	-2.46989	12.3131	0	
2.5307	-0.946792	11.4139	0	
2.5313	-1.56427	8.64687	0	
2.5320	-1.23495	6.50245	0	
2.5327	-1.56427	5.60317	0	
2.5333	-3.37552	3.18205	0	
2.5340	-2.46989	2.28277	0	
2.5347	0.288154	2.83617	0	
2.5353	1.48194	2.28277	0	
2.5360	1.48194	1.03762	0	
2.5367	3.00504	-0.207525	0	
2.5373	4.85746	-2.35195	0	
2.5380	4.85746	-4.1505	0	
2.5387	3.62251	-3.8738	0	
2.5393	2.71688	-5.67235	0	
2.5400	2.09941	-6.29492	0	
2.5407	2.09941	-2.90535	0	
2.5413	3.00504	-2.35195	0	
2.5420	3.00504	-4.4272	0	
2.5427	2.71688	-3.25122	0	
2.5433	3.00504	-1.3835	0	
2.5440	0.576308	-2.62865	0	
2.5447	-2.46989	-2.90535	0	
2.5453	-2.75805	-2.35195	0	
2.5460	-3.08737	-4.1505	0	
2.5467	-4.28115	-3.25122	0	
2.5473	-2.46989	1.03762	0	
2.5480	-0.329319	3.80462	0	
2.5487	-0.946792	4.9806	0	
2.5493	-3.08737	4.9806	0	
2.5500	-4.28115	3.18205	0	
2.5507	-3.37552	3.18205	0	
2.5513	-0.0411649	4.7039	0	
2.5520	0.905628	2.28277	0	
2.5527	-1.56427	-0.207525	0	
2.5533	-0.617473	1.6602	0	
2.5540	2.09941	1.31432	0	
2.5547	0.905628	-3.25122	0	
2.5553	0.576308	-7.81677	0	
2.5560	5.47493	-11.7597	0	
2.5567	6.99803	-13.9042	0	
2.5573	2.71688	-13.6275	0	
2.5580	1.48194	-13.6275	0	
2.5587	3.33436	-13.0049	0	
2.5593	1.81126	-10.8605	0	
2.5600	2.09941	-10.2379	0	
2.5607	4.85746	-9.33862	0	
2.5613	3.00504	-8.43935	0	
2.5620	-0.617473	-10.5838	0	
2.5627	0.905628	-9.61532	0	
2.5633	1.81126	-1.72937	0	
2.5640	-0.617473	3.18205	0	
2.5647	-2.46989	1.03762	0	
2.5653	-3.70484	-0.8301	0	
2.5660	-5.22794	-2.35195	0	
2.5667	-4.28115	-4.1505	0	
2.5673	-2.46989	-3.25122	0	
2.5680	-3.70484	-2.35195	0	
2.5687	-4.89862	-5.39565	0	
2.5693	-3.99299	-10.8605	0	
2.5700	-1.56427	-16.6712	0	
2.5707	-0.617473	-21.5826	0	
2.5713	-2.46989	-24.0037	0	
2.5720	-4.28115	-22.7586	0	
2.5727	-3.08737	-19.7149	0	
2.5733	-1.56427	-16.9479	0	
2.5740	-0.617473	-17.9163	0	
2.5747	1.48194	-20.3374	0	
2.5753	2.09941	-21.8593	0	
2.5760	-0.329319	-20.6141	0	
2.5767	-1.56427	-15.1493	0	
2.5773	0.576308	-9.9612	0	
2.5780	3.00504	-10.5838	0	
2.5787	2.71688	-7.81677	0	
2.5793	3.00504	9.26945	0	
2.5800	4.23998	22.6894	0	
2.5807	2.09941	16.8787	0	
2.5813	-0.0411649	5.87987	0	
2.5820	2.09941	-0.484225	0	
2.5827	3.62251	-11.7597	0	
2.5833	-0.0411649	-20.6141	0	
2.5840	-2.46989	-20.3374	0	
2.5847	-1.85242	-23.6578	0	
2.5853	-2.46989	-28.5693	0	
2.5860	-2.75805	-25.8023	0	
2.5867	-1.56427	-25.8023	0	
2.5873	-2.18174	-21.5826	0	
2.5880	-4.28115	9.89202	0	
2.5887	-2.46989	53.5414	0	
2.5893	-0.617473	72.4262	0	
2.5900	-2.46989	65.7162	0	
2.5907	-2.46989	49.8752	0	
2.5913	-1.56427	34.3108	0	
2.5920	-4.28115	28.5001	0	
2.5927	-5.22794	31.5438	0	
2.5933	-1.23495	30.6445	0	
2.5940	0.288154	24.8338	0	
2.5947	1.48194	19.6457	0	
2.5953	4.85746	15.0801	0	
2.5960	3.95183	11.4139	0	
2.5967	1.48194	11.4139	0	
2.5973	2.71688	12.9357	0	
2.5980	3.95183	8.64687	0	
2.5987	3.95183	1.03762	0	
2.5993	3.95183	-2.35195	0	
2.6000	2.42873	-1.3835	0	
2.6007	1.19378	-0.484225	0	
2.6013	2.42873	0.41505	0	
2.6020	1.81126	0.69175	0	
2.6027	-0.617473	-0.484225	0	
2.6033	-0.617473	-0.484225	0	
2.6040	-0.617473	1.9369	0	
2.6047	-1.56427	4.7039	0	
2.6053	-2.46989	5.87987	0	
2.6060	-2.18174	7.7476	0	
2.6067	-1.56427	10.5146	0	
2.6073	-1.56427	4.08132	0	
2.6080	-2.46989	-11.483	0	
2.6087	-1.56427	-15.7719	0	
2.6093	-2.46989	-2.00607	0	
2.6100	-5.22794	9.54615	0	
2.6107	-4.61047	10.1687	0	
2.6113	-3.37552	8.0243	0	
2.6120	-5.84541	4.7039	0	
2.6127	-3.70484	-0.484225	0	
2.6133	2.71688	-3.52792	0	
2.6140	2.42873	-6.9175	0	
2.6147	0.288154	-10.5838	0	
2.6153	3.00504	-8.71605	0	
2.6160	4.5693	-4.77307	0	
2.6167	2.71688	-7.1942	0	
2.6173	3.00504	-13.2816	0	
2.6180	3.95183	-14.8034	0	
2.6187	4.85746	-11.483	0	
2.6193	6.66871	-10.5838	0	
2.6200	4.85746	-11.7597	0	
2.6207	3.00504	-10.5838	0	
2.6213	4.23998	-8.71605	0	
2.6220	2.09941	-8.71605	0	
2.6227	-1.56427	-9.06192	0	
2.6233	-0.617473	-10.2379	0	
2.6240	-0.946792	-10.5838	0	
2.6247	-3.08737	-7.81677	0	
2.6253	-2.46989	-6.9175	0	
2.6260	-3.08737	-8.43935	0	
2.6267	-5.22794	-6.29492	0	
2.6273	-3.37552	-3.8738	0	
2.6280	-3.70484	-6.01822	0	
2.6287	-7.36852	-6.29492	0	
2.6293	-6.13357	-3.52792	0	
2.6300	-3.70484	-3.25122	0	
2.6307	-5.5161	-1.3835	0	
2.6313	-5.22794	3.18205	0	
2.6320	-2.46989	3.45875	0	
2.6327	-2.18174	0.13835	0	
2.6333	-2.18174	-0.207525	0	
2.6340	-0.617473	0.41505	0	
2.6347	-0.946792	-1.1068	0	
2.6353	-1.56427	-0.8301	0	
2.6360	0.288154	2.28277	0	
2.6367	2.42873	3.18205	0	
2.6373	3.62251	2.28277	0	
2.6380	3.62251	1.9369	0	
2.6387	3.33436	1.6602	0	
2.6393	3.33436	3.18205	0	
2.6400	2.71688	6.84832	0	
2.6407	2.09941	8.64687	0	
2.6413	2.09941	6.50245	0	
2.6420	1.19378	4.7039	0	
2.6427	-0.0411649	4.35802	0	
2.6433	0.288154	1.31432	0	
2.6440	0.905628	-3.8738	0	
2.6447	-0.329319	-6.01822	0	
2.6453	-1.23495	-4.1505	0	
2.6460	-0.946792	-0.8301	0	
2.6467	-1.85242	0.13835	0	
2.6473	-3.08737	-1.1068	0	
2.6480	-3.37552	-0.8301	0	
2.6487	-3.70484	1.6602	0	
2.6493	-3.37552	1.9369	0	
2.6500	-2.18174	-2.00607	0	
2.6507	-1.56427	-5.39565	0	
2.6513	-3.08737	-4.77307	0	
2.6520	-5.22794	-2.35195	0	
2.6527	-4.28115	-1.3835	0	
2.6533	-1.56427	-2.35195	0	
2.6540	-0.0411649	-3.25122	0	
2.6547	0.288154	-5.67235	0	
2.6553	0.576308	-6.9175	0	
2.6560	1.19378	-6.29492	0	
2.6567	1.19378	-6.01822	0	
2.6573	0.288154	-6.29492	0	
2.6580	0.905628	-6.9175	0	
2.6587	3.00504	-6.9175	0	
2.6593	4.5693	-5.39565	0	
2.6600	3.62251	-2.35195	0	
2.6607	4.85746	-1.3835	0	
2.6613	7.6155	-3.25122	0	
2.6620	5.14561	-1.3835	0	
2.6627	0.288154	3.45875	0	
2.6633	-0.617473	5.60317	0	
2.6640	-0.946792	6.50245	0	
2.6647	-4.28115	14.1809	0	
2.6653	-5.22794	20.545	0	
2.6660	-3.37552	17.8471	0	
2.6667	-2.75805	15.7027	0	
2.6673	-4.89862	18.7464	0	
2.6680	-6.13357	20.8908	0	
2.6687	-5.84541	17.8471	0	
2.6693	-4.89862	2.83617	0	
2.6700	-3.37552	-21.2367	0	
2.6707	-2.46989	-29.8144	0	
2.6713	-3.08737	-17.2937	0	
2.6720	-2.75805	-8.09347	0	
2.6727	-1.56427	-8.09347	0	
2.6733	-3.37552	-7.81677	0	
2.6740	-6.13357	-7.54007	0	
2.6747	-2.75805	-6.01822	0	
2.6753	1.48194	-2.62865	0	
2.6760	1.19378	-2.00607	0	
2.6767	2.42873	-3.52792	0	
2.6773	5.47493	-4.4272	0	
2.6780	2.71688	-4.1505	0	
2.6787	-1.23495	-2.00607	0	
2.6793	2.71688	-0.484225	0	
2.6800	6.0924	-3.25122	0	
2.6807	2.42873	-6.9175	0	
2.6813	-0.946792	-8.71605	0	
2.6820	-0.329319	-9.06192	0	
2.6827	-1.23495	-6.01822	0	
2.6833	-2.46989	-4.77307	0	
2.6840	-0.617473	-7.81677	0	
2.6847	0.576308	-9.33862	0	
2.6853	-2.18174	-10.5838	0	
2.6860	-4.28115	-13.6275	0	
2.6867	-4.89862	-16.9479	0	
2.6873	-4.61047	-23.3811	0	
2.6880	-3.99299	-30.7137	0	
2.6887	-4.28115	-29.1918	0	
2.6893	-5.22794	-27.3241	0	
2.6900	-3.08737	-26.1481	0	
2.6907	-1.56427	0.41505	0	
2.6913	-2.75805	48.3533	0	
2.6920	-1.56427	76.9917	0	
2.6927	1.81126	74.5706	0	
2.6933	0.905628	58.107	0	
2.6940	0.905628	38.2538	0	
2.6947	4.85746	23.312	0	
2.6953	5.76308	15.7027	0	
2.6960	3.95183	8.0243	0	
2.6967	3.95183	2.55947	0	
2.6973	3.95183	3.45875	0	
2.6980	4.5693	3.18205	0	
2.6987	6.0924	0.41505	0	
2.6993	5.76308	1.03762	0	
2.7000	4.5693	2.28277	0	
2.7007	4.23998	1.31432	0	
2.7013	3.00504	1.31432	0	
2.7020	2.09941	1.6602	0	
2.7027	3.95183	1.03762	0	
2.7033	3.62251	0.41505	0	
2.7040	1.81126	2.28277	0	
2.7047	1.19378	6.22575	0	
2.7053	-0.617473	6.22575	0	
2.7060	-3.37552	1.9369	0	
2.7067	-2.18174	0.41505	0	
2.7073	-1.56427	1.6602	0	
2.7080	-4.28115	-0.207525	0	
2.7087	-3.70484	-2.90535	0	
2.7093	-1.56427	-4.4272	0	
2.7100	-3.08737	-8.09347	0	
2.7107	-4.28115	-11.2063	0	
2.7113	-2.46989	-9.61532	0	
2.7120	-2.18174	-4.77307	0	
2.7127	-3.37552	-2.35195	0	
2.7133	-2.18174	-2.62865	0	
2.7140	-0.0411649	-2.35195	0	
2.7147	1.19378	0.41505	0	
2.7153	2.09941	1.6602	0	
2.7160	2.09941	-1.1068	0	
2.7167	2.09941	-3.8738	0	
2.7173	3.62251	-4.4272	0	
2.7180	3.62251	-3.8738	0	
2.7187	2.09941	-3.25122	0	
2.7193	2.42873	-5.04977	0	
2.7200	3.33436	-6.9175	0	
2.7207	3.00504	-5.04977	0	
2.7213	2.71688	-5.04977	0	
2.7220	2.09941	-6.9175	0	
2.7227	-0.617473	-3.52792	0	
2.7233	-1.56427	-2.35195	0	
2.7240	0.288154	-6.9175	0	
2.7247	0.576308	-9.06192	0	
2.7253	-0.946792	-7.1942	0	
2.7260	-3.08737	-6.01822	0	
2.7267	-3.37552	-2.62865	0	
2.7273	-1.56427	1.31432	0	
2.7280	-1.23495	1.6602	0	
2.7287	-2.46989	1.31432	0	
2.7293	-1.56427	0.69175	0	
2.7300	-0.0411649	-1.72937	0	
2.7307	-3.08737	-3.52792	0	
2.7313	-5.22794	-6.01822	0	
2.7320	-3.37552	-9.06192	0	
2.7327	-2.46989	-6.57162	0	
2.7333	-2.75805	-4.77307	0	
2.7340	-1.56427	-9.06192	0	
2.7347	-1.56427	-10.5838	0	
2.7353	-2.75805	-5.04977	0	
2.7360	-1.56427	0.41505	0	
2.7367	0.288154	5.32647	0	
2.7373	0.288154	8.64687	0	
2.7380	1.19378	6.84832	0	
2.7387	1.81126	2.83617	0	
2.7393	0.905628	1.6602	0	
2.7400	1.81126	3.18205	0	
2.7407	3.95183	4.08132	0	
2.7413	3.33436	3.80462	0	
2.7420	0.905628	1.6602	0	
2.7427	-0.0411649	-2.35195	0	
2.7433	-0.617473	-4.1505	0	
2.7440	-2.18174	-2.90535	0	
2.7447	-3.37552	-3.52792	0	
2.7453	-4.61047	-7.81677	0	
2.7460	-4.28115	-9.61532	0	
2.7467	-2.18174	-9.33862	0	
2.7473	-1.56427	-10.8605	0	
2.7480	-3.37552	-12.1056	0	
2.7487	-3.99299	-9.9612	0	
2.7493	-2.75805	-6.9175	0	
2.7500	-1.56427	-5.04977	0	
2.7507	-0.946792	-3.52792	0	
2.7513	-3.08737	-2.35195	0	
2.7520	-4.28115	0.13835	0	
2.7527	-3.08737	5.60317	0	
2.7533	-1.56427	10.1687	0	
2.7540	-1.23495	9.89202	0	
2.7547	0.576308	7.7476	0	
2.7553	2.09941	6.22575	0	
2.7560	1.19378	4.7039	0	
2.7567	1.81126	3.45875	0	
2.7573	4.23998	3.45875	0	
2.7580	3.95183	4.9806	0	
2.7587	2.71688	10.7913	0	
2.7593	4.85746	15.9794	0	
2.7600	5.47493	15.3568	0	
2.7607	3.00504	12.0364	0	
2.7613	0.905628	8.64687	0	
2.7620	-0.0411649	2.83617	0	
2.7627	0.905628	-1.72937	0	
2.7633	1.19378	0.13835	0	
2.7640	-0.617473	0.41505	0	
2.7647	-0.0411649	-4.1505	0	
2.7653	1.48194	-6.9175	0	
2.7660	-0.329319	-7.81677	0	
2.7667	-1.56427	-9.9612	0	
2.7673	-0.946792	-13.9042	0	
2.7680	-3.37552	-20.6141	0	
2.7687	-5.84541	-28.2926	0	
2.7693	-4.28115	-31.3363	0	
2.7700	-2.46989	-34.6567	0	
2.7707	-1.85242	-43.8569	0	
2.7713	-1.56427	-47.7999	0	
2.7720	-1.23495	-41.3666	0	
2.7727	0.288154	-38.6688	0	
2.7733	1.19378	-32.8581	0	
2.7740	0.576308	-1.72937	0	
2.7747	1.48194	45.3096	0	
2.7753	3.33436	73.6713	0	
2.7760	3.95183	71.8036	0	
2.7767	3.00504	53.8181	0	
2.7773	0.905628	38.2538	0	
2.7780	0.905628	30.6445	0	
2.7787	3.62251	26.3557	0	
2.7793	3.62251	26.3557	0	
2.7800	1.48194	27.6008	0	
2.7807	2.09941	26.079	0	
2.7813	3.33436	27.2549	0	
2.7820	3.33436	26.9782	0	
2.7827	3.62251	8.64687	0	
2.7833	3.00504	-14.8034	0	
2.7840	-0.0411649	-17.2937	0	
2.7847	-2.46989	-7.54007	0	
2.7853	-2.46989	-5.04977	0	
2.7860	-2.18174	-6.57162	0	
2.7867	-3.37552	-8.43935	0	
2.7873	-4.28115	-11.7597	0	
2.7880	-4.28115	-13.9042	0	
2.7887	-5.84541	-14.25	0	
2.7893	-6.75104	-16.0486	0	
2.7900	-2.46989	-18.8156	0	
2.7907	-0.946792	-23.3811	0	
2.7913	-4.61047	-30.3678	0	
2.7920	-5.22794	-37.147	0	
2.7927	-3.99299	-43.5111	0	
2.7933	-4.28115	-48.6992	0	
2.7940	-0.946792	-49.3218	0	
2.7947	4.85746	-44.1336	0	
2.7953	3.33436	-24.2804	0	
2.7960	0.905628	7.4709	0	
2.7967	3.95183	22.0668	0	
2.7973	5.47493	7.12502	0	
2.7980	4.85746	-6.9175	0	
2.7987	6.38056	2.28277	0	
2.7993	6.38056	24.2112	0	
2.8000	4.5693	41.6433	0	
2.8007	5.76308	44.9637	0	
2.8013	6.66871	35.8326	0	
2.8020	3.95183	24.2112	0	
2.8027	1.81126	15.9794	0	
2.8033	1.19378	10.1687	0	
2.8040	0.576308	7.12502	0	
2.8047	0.905628	4.9806	0	
2.8053	-1.23495	1.9369	0	
2.8060	-6.42172	0.69175	0	
2.8067	-6.75104	3.18205	0	
2.8073	-2.46989	2.28277	0	
2.8080	-2.18174	2.28277	0	
2.8087	-5.84541	12.3131	0	
2.8093	-6.13357	28.2234	0	
2.8100	-3.99299	32.1664	0	
2.8107	-2.46989	23.5887	0	
2.8113	-3.37552	14.1809	0	
2.8120	-3.99299	5.87987	0	
2.8127	-1.56427	-1.72937	0	
2.8133	-0.0411649	-5.04977	0	
2.8140	-2.75805	-5.39565	0	
2.8147	-3.37552	-6.01822	0	
2.8153	-0.946792	-4.1505	0	
2.8160	-0.617473	-2.90535	0	
2.8167	0.288154	-4.1505	0	
2.8173	3.62251	-3.25122	0	
2.8180	3.95183	0.13835	0	
2.8187	2.71688	2.28277	0	
2.8193	3.95183	4.9806	0	
2.8200	2.71688	6.50245	0	
2.8207	0.905628	4.9806	0	
2.8213	2.71688	5.87987	0	
2.8220	4.85746	7.4709	0	
2.8227	2.71688	3.18205	0	
2.8233	-0.329319	-2.62865	0	
2.8240	0.576308	-4.1505	0	
2.8247	2.09941	-2.90535	0	
2.8253	-0.617473	-3.25122	0	
2.8260	-3.37552	-5.04977	0	
2.8267	-1.56427	-5.04977	0	
2.8273	-3.37552	-1.3835	0	
2.8280	-7.36852	-0.484225	0	
2.8287	-5.22794	-2.35195	0	
2.8293	-2.46989	-2.90535	0	
2.8300	-3.37552	-2.00607	0	
2.8307	-1.23495	-0.484225	0	
2.8313	1.19378	1.6602	0	
2.8320	-0.946792	0.69175	0	
2.8327	-0.617473	-2.90535	0	
2.8333	2.42873	-5.67235	0	
2.8340	0.288154	-6.29492	0	
2.8347	-1.85242	-6.01822	0	
2.8353	1.48194	-6.29492	0	
2.8360	3.00504	-9.33862	0	
2.8367	2.09941	-10.5838	0	
2.8373	2.09941	-8.09347	0	
2.8380	1.19378	-7.1942	0	
2.8387	0.288154	-7.81677	0	
2.8393	3.95183	-6.9175	0	
2.8400	5.76308	-5.39565	0	
2.8407	2.42873	-4.77307	0	
2.8413	0.288154	-4.77307	0	
2.8420	0.576308	-4.1505	0	
2.8427	0.288154	-2.62865	0	
2.8433	0.576308	-3.52792	0	
2.8440	-0.0411649	-6.01822	0	
2.8447	-1.85242	-6.01822	0	
2.8453	-1.23495	-4.77307	0	
2.8460	-0.617473	-4.4272	0	
2.8467	-3.37552	-1.1068	0	
2.8473	-4.28115	4.9806	0	
2.8480	-4.61047	7.12502	0	
2.8487	-5.84541	7.12502	0	
2.8493	-3.99299	9.26945	0	
2.8500	-3.99299	10.5146	0	
2.8507	-8.89162	11.068	0	
2.8513	-9.79724	12.3131	0	
2.8520	-4.89862	12.3131	0	
2.8527	-3.08737	11.4139	0	
2.8533	-4.28115	8.64687	0	
2.8540	-2.75805	4.7039	0	
2.8547	0.288154	4.08132	0	
2.8553	2.42873	4.08132	0	
2.8560	2.09941	-11.483	0	
2.8567	0.288154	-36.8011	0	
2.8573	1.19378	-45.9322	0	
2.8580	4.85746	-34.38	0	
2.8587	5.14561	-24.903	0	
2.8593	3.00504	-25.8023	0	
2.8600	2.42873	-22.4819	0	
2.8607	3.00504	-12.3823	0	
2.8613	1.48194	-7.54007	0	
2.8620	0.905628	-9.06192	0	
2.8627	0.576308	-10.5838	0	
2.8633	-0.617473	-13.9042	0	
2.8640	-0.0411649	-20.3374	0	
2.8647	2.09941	-25.1797	0	
2.8653	1.19378	-29.4685	0	
2.8660	-0.946792	-34.38	0	
2.8667	-0.617473	-34.6567	0	
2.8673	-0.0411649	-31.3363	0	
2.8680	-2.75805	-30.7137	0	
2.8687	-4.28115	-21.2367	0	
2.8693	-3.37552	15.0801	0	
2.8700	-3.37552	63.5718	0	
2.8707	-2.75805	88.6131	0	
2.8713	-0.0411649	81.6265	0	
2.8720	0.905628	63.5718	0	
2.8727	0.288154	49.2526	0	
2.8733	0.905628	38.2538	0	
2.8740	1.81126	27.6008	0	
2.8747	3.95183	18.4005	0	
2.8753	5.76308	12.3131	0	
2.8760	4.23998	6.50245	0	
2.8767	4.85746	-2.90535	0	
2.8773	8.23298	-10.5838	0	
2.8780	8.23298	-14.25	0	
2.8787	6.66871	-18.193	0	
2.8793	6.66871	-21.5826	0	
2.8800	3.33436	-22.4819	0	
2.8807	2.09941	-24.2804	0	
2.8813	4.85746	-23.6578	0	
2.8820	2.09941	-16.9479	0	
2.8827	-3.37552	-10.5838	0	
2.8833	-1.56427	-5.67235	0	
2.8840	0.576308	0.41505	0	
2.8847	-1.56427	2.28277	0	
2.8853	-2.75805	-1.1068	0	
2.8860	-3.70484	3.18205	0	
2.8867	-4.61047	14.1809	0	
2.8873	-2.46989	20.8908	0	
2.8880	0.288154	18.4005	0	
2.8887	-0.0411649	10.5146	0	
2.8893	-1.56427	5.60317	0	
2.8900	-2.46989	6.84832	0	
2.8907	-3.08737	7.7476	0	
2.8913	-3.37552	5.60317	0	
2.8920	-4.28115	4.9806	0	
2.8927	-3.08737	4.08132	0	
2.8933	-0.617473	1.03762	0	
2.8940	2.09941	0.13835	0	
2.8947	3.00504	2.28277	0	
2.8953	1.19378	1.9369	0	
2.8960	0.905628	-4.1505	0	
2.8967	2.09941	-10.8605	0	
2.8973	1.19378	-12.3823	0	
2.8980	-0.329319	-13.2816	0	
2.8987	1.48194	-16.9479	0	
2.8993	2.71688	-18.8156	0	
2.9000	2.09941	-19.0923	0	
2.9007	2.09941	-20.3374	0	
2.9013	2.09941	-20.96	0	
2.9020	-0.617473	-20.96	0	
2.9027	-2.18174	-20.6141	0	
2.9033	-0.617473	-17.9163	0	
2.9040	-1.23495	-11.483	0	
2.9047	-4.28115	-2.00607	0	
2.9053	-4.28115	9.54615	0	
2.9060	-3.37552	15.0801	0	
2.9067	-4.89862	14.4576	0	
2.9073	-5.22794	16.8787	0	
2.9080	-5.84541	20.545	0	
2.9087	-7.65667	18.4005	0	
2.9093	-6.13357	14.1809	0	
2.9100	-2.46989	14.1809	0	
2.9107	-2.75805	16.602	0	
2.9113	-3.08737	18.7464	0	
2.9120	-1.56427	16.2561	0	
2.9127	-3.70484	9.89202	0	
2.9133	-4.89862	5.87987	0	
2.9140	-2.18174	5.60317	0	
2.9147	-0.617473	5.60317	0	
2.9153	0.288154	5.32647	0	
2.9160	1.19378	3.80462	0	
2.9167	-0.617473	1.03762	0	
2.9173	-0.617473	-0.484225	0	
2.9180	3.62251	-0.207525	0	
2.9187	3.33436	0.41505	0	
2.9193	-0.329319	-1.3835	0	
2.9200	-0.0411649	-4.4272	0	
2.9207	2.09941	-3.52792	0	
2.9213	3.33436	0.69175	0	
2.9220	3.95183	-0.484225	0	
2.9227	2.42873	-3.8738	0	
2.9233	-1.56427	-0.484225	0	
2.9240	-3.37552	2.83617	0	
2.9247	-2.46989	-0.8301	0	
2.9253	-1.85242	-3.25122	0	
2.9260	-3.08737	0.41505	0	
2.9267	-2.46989	2.55947	0	
2.9273	-0.617473	1.6602	0	
2.9280	-3.37552	1.6602	0	
2.9287	-7.0392	1.9369	0	
2.9293	-5.22794	1.6602	0	
2.9300	-3.37552	2.28277	0	
2.9307	-5.84541	1.9369	0	
2.9313	-5.84541	0.69175	0	
2.9320	-2.46989	0.41505	0	
2.9327	-2.18174	0.13835	0	
2.9333	-1.85242	-2.00607	0	
2.9340	2.42873	-3.52792	0	
2.9347	3.33436	-3.8738	0	
2.9353	1.19378	-4.1505	0	
2.9360	3.33436	-5.04977	0	
2.9367	6.66871	-3.52792	0	
2.9373	6.38056	-2.62865	0	
2.9380	5.14561	-3.8738	0	
2.9387	4.85746	-3.52792	0	
2.9393	3.95183	-2.90535	0	
2.9400	3.95183	-6.01822	0	
2.9407	3.95183	-9.61532	0	
2.9413	2.09941	-6.9175	0	
2.9420	1.19378	-3.25122	0	
2.9427	-0.0411649	-5.39565	0	
2.9433	-2.18174	-7.1942	0	
2.9440	-2.18174	-5.39565	0	
2.9447	-1.23495	-8.43935	0	
2.9453	-3.08737	-16.9479	0	
2.9460	-4.61047	-23.3811	0	
2.9467	-4.89862	-26.4248	0	
2.9473	-7.0392	-30.0911	0	
2.9480	-7.94482	-31.3363	0	
2.9487	-6.13357	-32.2355	0	
2.9493	-5.5161	-30.7137	0	
2.9500	-6.42172	-10.5838	0	
2.9507	-7.94482	29.3994	0	
2.9513	-7.94482	63.9177	0	
2.9520	-4.28115	70.6276	0	
2.9527	-2.18174	53.8181	0	
2.9533	-3.37552	35.4868	0	
2.9540	-1.23495	25.4564	0	
