0.0000	1.4784	29.5112	1
0.0007	-0.0547555	10.6056	0	
0.0013	-1.86169	4.20765	0	
0.0020	-3.99715	-5.87918	0	
0.0027	-6.46115	-24.4966	0	
0.0033	-4.928	-27.8397	0	
0.0040	-1.25938	-15.966	0	
0.0047	-3.12106	-15.332	0	
0.0053	-7.39199	-21.4417	0	
0.0060	-7.39199	-17.4646	0	
0.0067	-5.85884	-11.9889	0	
0.0073	-2.19022	-11.3549	0	
0.0080	1.80693	-7.72363	0	
0.0087	0.547555	-5.24515	0	
0.0093	-2.19022	-9.51044	0	
0.0100	1.4784	-12.2771	0	
0.0107	4.21617	-11.0667	0	
0.0113	1.4784	-11.9889	0	
0.0120	1.14987	-18.3869	0	
0.0127	3.28533	-28.7619	0	
0.0133	2.68302	-35.1598	0	
0.0140	2.08071	-33.3154	0	
0.0147	2.08071	-33.6612	0	
0.0153	0.273778	-37.9265	0	
0.0160	-0.328533	-27.2633	0	
0.0167	1.4784	-2.19028	0	
0.0173	0.547555	10.3174	0	
0.0180	-1.86169	4.78404	0	
0.0187	-2.79253	2.3632	0	
0.0193	-2.79253	8.47294	0	
0.0200	-3.99715	17.9257	0	
0.0207	-5.53031	22.5369	0	
0.0213	-4.32569	13.0264	0	
0.0220	-3.12106	-5.24515	0	
0.0227	-3.99715	-17.1764	0	
0.0233	-5.53031	-25.073	0	
0.0240	-4.928	-35.448	0	
0.0247	-3.39484	-47.3793	0	
0.0253	-4.32569	-59.2529	0	
0.0260	-4.928	-66.6307	0	
0.0267	-1.58791	-65.3627	0	
0.0273	1.80693	-58.9647	0	
0.0280	0.273778	-49.5119	0	
0.0287	-1.58791	-41.5577	0	
0.0293	2.40924	-36.3702	0	
0.0300	5.14702	-22.9403	0	
0.0307	1.4784	-4.32293	0	
0.0313	-0.0547555	2.3632	0	
0.0320	2.40924	5.41807	0	
0.0327	2.40924	16.7153	0	
0.0333	2.08071	22.5369	0	
0.0340	4.54471	31.0674	0	
0.0347	6.35164	59.1376	0	
0.0353	6.95395	87.496	0	
0.0360	5.14702	93.0294	0	
0.0367	1.4784	79.2537	0	
0.0373	0.876088	57.2932	0	
0.0380	2.40924	39.598	0	
0.0387	1.80693	32.2779	0	
0.0393	0.547555	26.1681	0	
0.0400	-0.328533	18.5598	0	
0.0407	-2.19022	14.2945	0	
0.0413	-3.12106	11.816	0	
0.0420	-3.12106	12.45	0	
0.0427	-4.32569	17.0035	0	
0.0433	-3.12106	15.5049	0	
0.0440	-0.985599	8.76113	0	
0.0447	-1.25938	9.39516	0	
0.0453	-1.86169	12.45	0	
0.0460	-2.79253	9.68336	0	
0.0467	-3.99715	7.55071	0	
0.0473	-2.464	8.18474	0	
0.0480	0.547555	6.91668	0	
0.0487	0.547555	5.70626	0	
0.0493	-0.657066	6.34029	0	
0.0500	-0.328533	3.28542	0	
0.0507	-0.328533	-5.24515	0	
0.0513	-0.0547555	-14.1216	0	
0.0520	2.08071	-20.5195	0	
0.0527	4.54471	-24.7848	0	
0.0533	4.81849	-25.4188	0	
0.0540	4.21617	-22.9403	0	
0.0547	4.21617	-20.5195	0	
0.0553	3.61386	-16.8882	0	
0.0560	1.4784	-9.51044	0	
0.0567	2.40924	-1.26806	0	
0.0573	3.28533	2.99723	0	
0.0580	-0.0547555	-0.979863	0	
0.0587	-1.25938	-8.30002	0	
0.0593	0.876088	-12.2771	0	
0.0600	-0.657066	-14.1216	0	
0.0607	-3.72338	-14.1216	0	
0.0613	-1.58791	-10.4327	0	
0.0620	-0.328533	-5.87918	0	
0.0627	-2.19022	-4.95696	0	
0.0633	-0.328533	-3.45834	0	
0.0640	1.4784	-2.19028	0	
0.0647	-1.25938	-2.82431	0	
0.0653	-2.19022	-1.90209	0	
0.0660	-0.657066	0.518751	0	
0.0667	-3.72338	2.6514	0	
0.0673	-5.53031	6.34029	0	
0.0680	-0.328533	8.76113	0	
0.0687	3.61386	8.76113	0	
0.0693	2.68302	11.816	0	
0.0700	2.68302	15.5049	0	
0.0707	5.14702	12.45	0	
0.0713	6.07786	8.76113	0	
0.0720	5.14702	9.68336	0	
0.0727	3.61386	9.68336	0	
0.0733	4.54471	4.20765	0	
0.0740	6.35164	-4.03473	0	
0.0747	4.81849	-11.0667	0	
0.0753	0.547555	-15.966	0	
0.0760	-0.328533	-19.8855	0	
0.0767	0.876088	-22.9403	0	
0.0773	0.273778	-23.8626	0	
0.0780	-1.58791	-22.9403	0	
0.0787	-0.985599	-21.1535	0	
0.0793	0.547555	-20.8077	0	
0.0800	0.547555	-25.707	0	
0.0807	-0.0547555	-33.6612	0	
0.0813	-1.25938	-41.2695	0	
0.0820	-1.25938	-44.3244	0	
0.0827	-1.86169	-39.4251	0	
0.0833	-3.12106	-30.8945	0	
0.0840	-2.19022	-18.675	0	
0.0847	-1.25938	6.91668	0	
0.0853	-3.39484	34.4105	0	
0.0860	-3.39484	37.7536	0	
0.0867	-0.985599	22.5369	0	
0.0873	-3.12106	12.1042	0	
0.0880	-4.32569	8.47294	0	
0.0887	0.273778	5.12987	0	
0.0893	1.80693	7.26252	0	
0.0900	-0.985599	12.7382	0	
0.0907	1.4784	15.7931	0	
0.0913	4.54471	20.0584	0	
0.0920	3.28533	21.9028	0	
0.0927	4.21617	11.5278	0	
0.0933	7.88479	-2.19028	0	
0.0940	6.35164	-9.22224	0	
0.0947	3.01155	-14.4098	0	
0.0953	3.01155	-13.1993	0	
0.0960	3.28533	3.28542	0	
0.0967	2.40924	15.1591	0	
0.0973	2.68302	10.3174	0	
0.0980	2.08071	10.8938	0	
0.0987	0.547555	21.2688	0	
0.0993	1.14987	22.5369	0	
0.1000	1.4784	18.848	0	
0.1007	-1.25938	17.9257	0	
0.1013	-3.99715	12.45	0	
0.1020	-4.928	6.0521	0	
0.1027	-5.85884	0.518751	0	
0.1033	-6.46115	-14.4098	0	
0.1040	-6.13262	-33.3154	0	
0.1047	-3.72338	-36.7161	0	
0.1053	-2.464	-26.9174	0	
0.1060	-4.32569	-21.4417	0	
0.1067	-4.32569	-25.9952	0	
0.1073	-1.25938	-32.1049	0	
0.1080	-0.328533	-32.4508	0	
0.1087	-1.25938	-32.1049	0	
0.1093	1.80693	-32.1049	0	
0.1100	3.28533	-21.4417	0	
0.1107	1.4784	5.41807	0	
0.1113	3.28533	41.0966	0	
0.1120	7.61102	76.1988	0	
0.1127	4.81849	100.35	0	
0.1133	1.4784	101.848	0	
0.1140	5.74933	82.9426	0	
0.1147	8.48711	59.714	0	
0.1153	4.21617	43.5751	0	
0.1160	2.68302	33.7765	0	
0.1167	5.4208	22.5369	0	
0.1173	4.81849	6.91668	0	
0.1180	1.80693	-7.72363	0	
0.1187	1.14987	-18.675	0	
0.1193	0.876088	-25.9952	0	
0.1200	-1.25938	-25.9952	0	
0.1207	-2.79253	-18.675	0	
0.1213	-4.928	-16.8882	0	
0.1220	-6.73493	-15.0438	0	
0.1227	-7.06346	4.20765	0	
0.1233	-7.06346	28.3008	0	
0.1240	-7.06346	33.4883	0	
0.1247	-7.06346	23.7473	0	
0.1253	-6.13262	12.45	0	
0.1260	-3.99715	0.864585	0	
0.1267	-3.12106	-9.22224	0	
0.1273	-4.928	-16.2542	0	
0.1280	-3.99715	-24.4966	0	
0.1287	-1.25938	-31.8167	0	
0.1293	-1.25938	-37.9265	0	
0.1300	-1.25938	-43.114	0	
0.1307	1.14987	-43.4022	0	
0.1313	3.01155	-41.2695	0	
0.1320	2.40924	-46.4571	0	
0.1327	3.01155	-53.489	0	
0.1333	3.9424	-53.7772	0	
0.1340	3.28533	-48.3015	0	
0.1347	2.40924	-37.0043	0	
0.1353	2.40924	-19.0209	0	
0.1360	1.80693	-4.95696	0	
0.1367	1.80693	-3.74654	0	
0.1373	2.08071	-7.72363	0	
0.1380	1.14987	-7.72363	0	
0.1387	-0.328533	-8.93405	0	
0.1393	-1.25938	-16.5424	0	
0.1400	-1.58791	-18.675	0	
0.1407	-2.19022	-8.64585	0	
0.1413	-2.19022	1.72917	0	
0.1420	-2.79253	5.70626	0	
0.1427	-3.12106	9.68336	0	
0.1433	-2.464	12.7382	0	
0.1440	-2.79253	12.45	0	
0.1447	-3.72338	22.5369	0	
0.1453	-3.12106	46.2841	0	
0.1460	-2.19022	65.2474	0	
0.1467	-2.464	71.6453	0	
0.1473	-0.985599	75.6224	0	
0.1480	2.68302	77.755	0	
0.1487	2.40924	70.7231	0	
0.1493	-0.328533	55.1606	0	
0.1500	0.547555	39.8862	0	
0.1507	4.21617	33.7765	0	
0.1513	5.74933	32.2779	0	
0.1520	5.74933	28.3008	0	
0.1527	5.14702	26.4563	0	
0.1533	4.21617	26.1681	0	
0.1540	5.14702	19.482	0	
0.1547	6.95395	14.2945	0	
0.1553	6.68017	9.10697	0	
0.1560	3.28533	-15.966	0	
0.1567	1.80693	-48.0133	0	
0.1573	2.08071	-49.8001	0	
0.1580	-0.985599	-31.8167	0	
0.1587	-2.19022	-25.073	0	
0.1593	0.547555	-28.7619	0	
0.1600	-0.328533	-32.4508	0	
0.1607	-4.928	-34.5834	0	
0.1613	-5.53031	-35.448	0	
0.1620	-3.99715	-35.448	0	
0.1627	-3.39484	-37.6383	0	
0.1633	-2.79253	-44.3244	0	
0.1640	-3.12106	-54.0654	0	
0.1647	-3.72338	-61.0974	0	
0.1653	-2.464	-68.1293	0	
0.1660	-2.19022	-75.1613	0	
0.1667	-3.12106	-58.0425	0	
0.1673	-1.86169	-15.0438	0	
0.1680	-0.657066	17.9257	0	
0.1687	-2.79253	25.2459	0	
0.1693	-2.19022	22.5369	0	
0.1700	0.273778	13.3723	0	
0.1707	-0.0547555	2.99723	0	
0.1713	-1.25938	6.62849	0	
0.1720	-0.985599	14.5827	0	
0.1727	-1.58791	15.5049	0	
0.1733	-1.25938	27.0903	0	
0.1740	1.80693	53.0279	0	
0.1747	3.01155	69.2245	0	
0.1753	0.547555	67.38	0	
0.1760	-1.58791	54.5265	0	
0.1767	-1.58791	37.7536	0	
0.1773	0.547555	29.223	0	
0.1780	1.4784	30.1452	0	
0.1787	0.547555	19.7702	0	
0.1793	-0.328533	-2.19028	0	
0.1800	-0.328533	-11.0667	0	
0.1807	-1.86169	-5.87918	0	
0.1813	-3.12106	-6.80141	0	
0.1820	-2.19022	-13.1993	0	
0.1827	-3.12106	-14.1216	0	
0.1833	-6.73493	-11.6431	0	
0.1840	-6.73493	-10.1445	0	
0.1847	-2.19022	-8.30002	0	
0.1853	-0.328533	-8.01183	0	
0.1860	-4.32569	-7.72363	0	
0.1867	-6.73493	-3.45834	0	
0.1873	-3.12106	1.44098	0	
0.1880	-1.25938	3.28542	0	
0.1887	-3.99715	2.6514	0	
0.1893	-4.928	0.864585	0	
0.1900	-1.58791	-0.691668	0	
0.1907	-0.328533	-1.90209	0	
0.1913	-2.19022	-2.19028	0	
0.1920	-0.985599	-2.53612	0	
0.1927	2.08071	-5.87918	0	
0.1933	1.4784	-9.51044	0	
0.1940	-0.328533	-9.85627	0	
0.1947	-0.328533	-9.51044	0	
0.1953	1.14987	-13.8334	0	
0.1960	1.4784	-22.3639	0	
0.1967	1.14987	-28.4737	0	
0.1973	1.80693	-29.6841	0	
0.1980	2.08071	-27.5515	0	
0.1987	-0.657066	-23.8626	0	
0.1993	-3.99715	-17.7528	0	
0.2000	-3.99715	-9.85627	0	
0.2007	-4.928	-3.74654	0	
0.2013	-5.85884	-0.057639	0	
0.2020	-2.19022	7.26252	0	
0.2027	-0.0547555	17.2917	0	
0.2033	-4.32569	20.0584	0	
0.2040	-5.53031	14.5827	0	
0.2047	-2.79253	7.83891	0	
0.2053	-3.99715	3.28542	0	
0.2060	-3.99715	5.70626	0	
0.2067	-1.25938	12.7382	0	
0.2073	-2.19022	8.76113	0	
0.2080	-1.58791	-3.11251	0	
0.2087	1.4784	1.44098	0	
0.2093	0.273778	16.7153	0	
0.2100	-1.25938	16.0813	0	
0.2107	2.40924	5.12987	0	
0.2113	4.21617	0.864585	0	
0.2120	3.01155	0.518751	0	
0.2127	3.61386	0.864585	0	
0.2133	4.21617	4.49584	0	
0.2140	5.14702	5.12987	0	
0.2147	6.07786	1.15278	0	
0.2153	6.35164	-1.26806	0	
0.2160	5.74933	-0.979863	0	
0.2167	4.21617	-0.979863	0	
0.2173	2.68302	-3.11251	0	
0.2180	2.68302	-5.87918	0	
0.2187	2.40924	-4.95696	0	
0.2193	1.4784	1.15278	0	
0.2200	1.80693	8.18474	0	
0.2207	1.4784	11.816	0	
0.2213	-0.328533	11.2396	0	
0.2220	-1.58791	8.18474	0	
0.2227	-2.79253	3.57362	0	
0.2233	-5.25653	-2.53612	0	
0.2240	-5.25653	-8.30002	0	
0.2247	-3.12106	-7.72363	0	
0.2253	-2.464	2.6514	0	
0.2260	-2.464	13.3723	0	
0.2267	-3.39484	11.816	0	
0.2273	-3.12106	1.44098	0	
0.2280	0.547555	-5.87918	0	
0.2287	2.68302	-4.32293	0	
0.2293	2.40924	-1.26806	0	
0.2300	3.61386	-1.26806	0	
0.2307	5.14702	0.230556	0	
0.2313	5.4208	9.10697	0	
0.2320	6.68017	10.3174	0	
0.2327	6.95395	-5.87918	0	
0.2333	5.4208	-19.8855	0	
0.2340	5.74933	-24.4966	0	
0.2347	6.95395	-39.1369	0	
0.2353	6.35164	-67.2071	0	
0.2360	4.81849	-92.8565	0	
0.2367	3.28533	-111.762	0	
0.2373	-0.328533	-119.716	0	
0.2380	-3.72338	-119.37	0	
0.2387	-2.79253	-122.137	0	
0.2393	-0.0547555	-105.652	0	
0.2400	-1.25938	-38.8487	0	
0.2407	-3.72338	49.6848	0	
0.2413	-2.464	95.4502	0	
0.2420	-0.985599	83.8648	0	
0.2427	-3.39484	64.3252	0	
0.2433	-5.53031	74.7002	0	
0.2440	-3.72338	92.1072	0	
0.2447	-2.79253	85.3634	0	
0.2453	-3.12106	64.037	0	
0.2460	-1.25938	47.2064	0	
0.2467	0.547555	35.9091	0	
0.2473	-0.328533	31.9897	0	
0.2480	-0.328533	31.6438	0	
0.2487	0.547555	24.3237	0	
0.2493	2.08071	16.0813	0	
0.2500	4.81849	13.3723	0	
0.2507	6.95395	14.2945	0	
0.2513	6.07786	21.2688	0	
0.2520	6.07786	31.6438	0	
0.2527	6.95395	40.5202	0	
0.2533	6.35164	48.7626	0	
0.2540	5.14702	50.6071	0	
0.2547	5.14702	37.4654	0	
0.2553	5.14702	20.6924	0	
0.2560	5.4208	13.9486	0	
0.2567	6.07786	10.6056	0	
0.2573	5.74933	6.91668	0	
0.2580	4.21617	4.49584	0	
0.2587	2.40924	2.07501	0	
0.2593	0.273778	-1.26806	0	
0.2600	-0.657066	-1.61389	0	
0.2607	-0.0547555	-1.61389	0	
0.2613	-0.328533	-2.82431	0	
0.2620	-1.86169	-3.11251	0	
0.2627	-3.39484	-3.11251	0	
0.2633	-3.99715	-3.74654	0	
0.2640	-3.39484	-4.66876	0	
0.2647	-3.39484	-6.16738	0	
0.2653	-4.32569	-7.72363	0	
0.2660	-3.39484	-7.72363	0	
0.2667	-2.19022	-9.22224	0	
0.2673	-3.12106	-11.6431	0	
0.2680	-2.464	-12.9111	0	
0.2687	-0.328533	-11.3549	0	
0.2693	0.273778	-9.51044	0	
0.2700	1.80693	-9.51044	0	
0.2707	3.28533	-11.9889	0	
0.2713	0.547555	-13.4875	0	
0.2720	-1.58791	-11.9889	0	
0.2727	0.273778	-11.3549	0	
0.2733	2.40924	-12.5653	0	
0.2740	2.40924	-12.2771	0	
0.2747	0.547555	-12.2771	0	
0.2753	-1.25938	-11.9889	0	
0.2760	-0.0547555	-9.51044	0	
0.2767	2.40924	-8.30002	0	
0.2773	0.273778	-8.93405	0	
0.2780	-2.19022	-8.01183	0	
0.2787	-1.58791	-7.0896	0	
0.2793	0.273778	-8.93405	0	
0.2800	0.547555	-10.4327	0	
0.2807	-1.58791	-9.22224	0	
0.2813	-4.32569	-8.01183	0	
0.2820	-3.99715	-6.80141	0	
0.2827	-2.464	-5.87918	0	
0.2833	-2.79253	-6.80141	0	
0.2840	-3.39484	-7.3778	0	
0.2847	-2.79253	-7.0896	0	
0.2853	-2.19022	-10.4327	0	
0.2860	-1.86169	-15.966	0	
0.2867	-0.328533	-16.8882	0	
0.2873	1.4784	-14.1216	0	
0.2880	1.4784	-10.7785	0	
0.2887	0.547555	-7.72363	0	
0.2893	0.547555	-5.59099	0	
0.2900	1.80693	-6.80141	0	
0.2907	3.01155	-9.51044	0	
0.2913	4.21617	-13.4875	0	
0.2920	4.54471	-18.675	0	
0.2927	3.28533	-20.8077	0	
0.2933	2.40924	-23.2862	0	
0.2940	3.28533	-25.9952	0	
0.2947	4.21617	-20.2313	0	
0.2953	3.01155	-9.85627	0	
0.2960	2.08071	-5.87918	0	
0.2967	1.4784	-0.403473	0	
0.2973	0.547555	20.6924	0	
0.2980	-0.328533	43.8633	0	
0.2987	-0.0547555	45.0737	0	
0.2993	-0.328533	29.223	0	
0.3000	-0.985599	19.482	0	
0.3007	-1.25938	17.9257	0	
0.3013	-1.86169	15.5049	0	
0.3020	-2.79253	13.0264	0	
0.3027	-2.19022	7.26252	0	
0.3033	-1.86169	-3.45834	0	
0.3040	-3.12106	-8.30002	0	
0.3047	-5.53031	-4.95696	0	
0.3053	-5.53031	-5.24515	0	
0.3060	-0.985599	-8.64585	0	
0.3067	1.4784	-9.22224	0	
0.3073	-2.19022	-11.6431	0	
0.3080	-3.99715	-13.4875	0	
0.3087	-2.19022	-10.1445	0	
0.3093	-1.25938	-4.95696	0	
0.3100	0.547555	6.62849	0	
0.3107	3.28533	24.3237	0	
0.3113	3.01155	27.3785	0	
0.3120	1.80693	13.6604	0	
0.3127	3.01155	5.12987	0	
0.3133	3.01155	3.57362	0	
0.3140	1.4784	-3.45834	0	
0.3147	1.4784	-12.2771	0	
0.3153	1.4784	-19.5973	0	
0.3160	0.876088	-25.9952	0	
0.3167	0.547555	-35.1598	0	
0.3173	-0.657066	-51.9328	0	
0.3180	-1.25938	-67.4953	0	
0.3187	0.273778	-65.7085	0	
0.3193	0.273778	-51.6446	0	
0.3200	-3.12106	-28.1278	0	
0.3207	-2.79253	12.45	0	
0.3213	0.876088	53.0279	0	
0.3220	-0.657066	68.8786	0	
0.3227	-5.25653	63.6911	0	
0.3233	-4.928	50.6071	0	
0.3240	-3.12106	37.1772	0	
0.3247	-2.464	30.4334	0	
0.3253	-0.328533	28.589	0	
0.3260	-0.328533	29.857	0	
0.3267	-2.79253	33.4883	0	
0.3273	-2.19022	32.2779	0	
0.3280	0.547555	26.8021	0	
0.3287	1.4784	21.9028	0	
0.3293	2.68302	13.9486	0	
0.3300	3.61386	4.78404	0	
0.3307	3.28533	-1.90209	0	
0.3313	5.14702	-12.9111	0	
0.3320	6.07786	-24.2084	0	
0.3327	1.4784	-27.5515	0	
0.3333	1.4784	-33.6612	0	
0.3340	6.35164	-48.3015	0	
0.3347	5.14702	-62.6536	0	
0.3353	1.4784	-68.4175	0	
0.3360	2.40924	-63.5758	0	
0.3367	2.40924	-53.7772	0	
0.3373	0.876088	-44.6126	0	
0.3380	2.08071	-27.8397	0	
0.3387	-0.657066	-1.26806	0	
0.3393	-4.928	27.3785	0	
0.3400	-1.58791	57.5814	0	
0.3407	-0.328533	79.2537	0	
0.3413	-5.85884	71.9335	0	
0.3420	-6.13262	42.3647	0	
0.3427	-2.464	16.4271	0	
0.3433	-3.99715	7.26252	0	
0.3440	-5.85884	10.6056	0	
0.3447	-6.13262	16.0813	0	
0.3453	-6.13262	18.848	0	
0.3460	-2.19022	21.2688	0	
0.3467	0.547555	17.6375	0	
0.3473	-2.19022	10.6056	0	
0.3480	-2.19022	11.5278	0	
0.3487	0.547555	14.2945	0	
0.3493	0.876088	7.55071	0	
0.3500	0.547555	3.28542	0	
0.3507	3.28533	6.91668	0	
0.3513	5.4208	3.28542	0	
0.3520	4.54471	-4.95696	0	
0.3527	0.273778	-8.64585	0	
0.3533	-0.657066	-13.8334	0	
0.3540	3.61386	-23.2862	0	
0.3547	5.14702	-31.5285	0	
0.3553	2.40924	-40.0591	0	
0.3560	1.80693	-38.5029	0	
0.3567	2.40924	-8.30002	0	
0.3573	0.547555	28.0126	0	
0.3580	-1.25938	37.4654	0	
0.3587	-0.657066	33.2001	0	
0.3593	0.876088	36.8313	0	
0.3600	-0.657066	35.0445	0	
0.3607	-4.928	22.5369	0	
0.3613	-3.99715	15.5049	0	
0.3620	-1.25938	14.8709	0	
0.3627	-2.464	10.8938	0	
0.3633	-3.12106	7.83891	0	
0.3640	-1.86169	7.55071	0	
0.3647	-2.464	3.57362	0	
0.3653	-2.464	-2.19028	0	
0.3660	-1.25938	-5.87918	0	
0.3667	-2.79253	-10.4327	0	
0.3673	-2.19022	-12.2771	0	
0.3680	-0.0547555	-9.85627	0	
0.3687	-2.19022	-5.87918	0	
0.3693	-3.12106	-3.45834	0	
0.3700	2.40924	-1.61389	0	
0.3707	6.68017	-1.26806	0	
0.3713	4.81849	-0.403473	0	
0.3720	3.28533	0.230556	0	
0.3727	3.61386	-2.53612	0	
0.3733	3.28533	-6.16738	0	
0.3740	3.9424	-9.22224	0	
0.3747	4.21617	-16.5424	0	
0.3753	1.4784	-26.6292	0	
0.3760	-0.0547555	-31.1827	0	
0.3767	1.4784	-32.739	0	
0.3773	0.273778	-35.1598	0	
0.3780	-2.79253	-35.1598	0	
0.3787	-1.86169	-32.1049	0	
0.3793	-2.19022	-29.9723	0	
0.3800	-4.59946	-27.2633	0	
0.3807	-4.32569	-18.0987	0	
0.3813	-3.99715	0.230556	0	
0.3820	-5.25653	20.9806	0	
0.3827	-3.99715	32.5661	0	
0.3833	-3.12106	31.3556	0	
0.3840	-4.59946	22.191	0	
0.3847	-4.928	13.3723	0	
0.3853	-2.464	12.7382	0	
0.3860	-1.25938	16.7153	0	
0.3867	-0.0547555	14.5827	0	
0.3873	0.273778	8.76113	0	
0.3880	-1.86169	6.0521	0	
0.3887	-2.19022	5.12987	0	
0.3893	-0.657066	3.57362	0	
0.3900	-1.25938	2.07501	0	
0.3907	0.547555	0.518751	0	
0.3913	5.14702	0.230556	0	
0.3920	3.28533	0.518751	0	
0.3927	-0.0547555	-2.53612	0	
0.3933	1.4784	-5.24515	0	
0.3940	3.01155	-4.03473	0	
0.3947	3.28533	-2.53612	0	
0.3953	5.14702	-1.90209	0	
0.3960	4.21617	-1.61389	0	
0.3967	1.4784	-5.59099	0	
0.3973	1.80693	-11.6431	0	
0.3980	0.547555	-13.8334	0	
0.3987	-1.25938	-12.9111	0	
0.3993	-0.328533	-15.0438	0	
0.4000	-1.58791	-21.1535	0	
0.4007	-4.928	-22.6521	0	
0.4013	-3.99715	-17.7528	0	
0.4020	-4.59946	-14.698	0	
0.4027	-8.59662	-12.2771	0	
0.4033	-4.928	7.26252	0	
0.4040	-0.657066	46.2841	0	
0.4047	-3.99715	79.5995	0	
0.4053	-5.85884	85.0752	0	
0.4060	-2.19022	69.5127	0	
0.4067	-0.985599	47.2064	0	
0.4073	-1.25938	13.6604	0	
0.4080	0.273778	-23.2862	0	
0.4087	0.547555	-33.6612	0	
0.4093	0.547555	-19.5973	0	
0.4100	0.273778	-15.0438	0	
0.4107	-1.25938	-22.0757	0	
0.4113	-1.25938	-22.6521	0	
0.4120	0.547555	-20.2313	0	
0.4127	0.876088	-21.1535	0	
0.4133	2.08071	-21.4417	0	
0.4140	2.68302	-20.5195	0	
0.4147	0.273778	-19.3091	0	
0.4153	-0.0547555	-17.1764	0	
0.4160	3.28533	-14.4098	0	
0.4167	1.4784	-10.4327	0	
0.4173	-3.39484	-10.4327	0	
0.4180	-2.19022	-15.332	0	
0.4187	2.08071	-18.675	0	
0.4193	1.80693	-17.7528	0	
0.4200	-0.657066	-12.2771	0	
0.4207	-1.25938	4.78404	0	
0.4213	-1.25938	22.5369	0	
0.4220	-1.25938	20.9806	0	
0.4227	-3.12106	4.78404	0	
0.4233	-5.25653	-0.403473	0	
0.4240	-3.72338	19.1362	0	
0.4247	-2.19022	46.9182	0	
0.4253	-3.12106	52.7397	0	
0.4260	-2.19022	33.7765	0	
0.4267	-0.328533	15.5049	0	
0.4273	-1.58791	6.62849	0	
0.4280	-0.985599	-0.691668	0	
0.4287	-0.0547555	-7.72363	0	
0.4293	-0.985599	-10.7785	0	
0.4300	1.14987	-7.3778	0	
0.4307	4.21617	-1.26806	0	
0.4313	4.21617	-4.95696	0	
0.4320	5.14702	-15.0438	0	
0.4327	6.35164	-19.5973	0	
0.4333	3.61386	-22.0757	0	
0.4340	3.28533	-20.5195	0	
0.4347	5.14702	-1.90209	0	
0.4353	3.28533	20.0584	0	
0.4360	1.4784	24.3237	0	
0.4367	3.61386	19.7702	0	
0.4373	3.28533	15.5049	0	
0.4380	0.547555	8.18474	0	
0.4387	-0.328533	3.91945	0	
0.4393	-1.86169	0.518751	0	
0.4400	-3.72338	-10.4327	0	
0.4407	-4.32569	-13.1993	0	
0.4413	-4.32569	0.864585	0	
0.4420	-3.99715	9.97155	0	
0.4427	-3.12106	5.41807	0	
0.4433	-2.464	1.44098	0	
0.4440	-3.39484	-1.26806	0	
0.4447	-2.79253	-5.87918	0	
0.4453	-1.58791	-5.87918	0	
0.4460	-3.39484	-3.45834	0	
0.4467	-4.59946	-3.74654	0	
0.4473	-2.19022	-4.03473	0	
0.4480	-0.985599	-6.80141	0	
0.4487	-0.328533	-10.4327	0	
0.4493	3.9424	-8.64585	0	
0.4500	5.14702	-8.64585	0	
0.4507	1.14987	-14.1216	0	
0.4513	2.40924	-14.4098	0	
0.4520	6.35164	-9.51044	0	
0.4527	5.4208	-9.51044	0	
0.4533	4.54471	-14.1216	0	
0.4540	5.4208	-17.7528	0	
0.4547	4.21617	-18.675	0	
0.4553	4.21617	-15.332	0	
0.4560	6.35164	-7.72363	0	
0.4567	4.81849	2.99723	0	
0.4573	1.14987	13.3723	0	
0.4580	-0.657066	20.3466	0	
0.4587	-0.985599	23.4014	0	
0.4593	0.547555	24.3237	0	
0.4600	1.4784	22.5369	0	
0.4607	-0.328533	15.1591	0	
0.4613	-1.86169	-1.26806	0	
0.4620	-2.19022	-21.1535	0	
0.4627	-3.99715	-30.8945	0	
0.4633	-5.85884	-33.0272	0	
0.4640	-5.85884	-30.2605	0	
0.4647	-4.928	-3.74654	0	
0.4653	-4.928	42.3647	0	
0.4660	-3.99715	67.38	0	
0.4667	-2.19022	60.3481	0	
0.4673	-1.86169	42.6529	0	
0.4680	-3.99715	24.9577	0	
0.4687	-3.12106	13.3723	0	
0.4693	1.4784	12.45	0	
0.4700	2.40924	13.6604	0	
0.4707	0.273778	10.8938	0	
0.4713	0.876088	6.34029	0	
0.4720	2.68302	4.20765	0	
0.4727	2.68302	4.49584	0	
0.4733	5.14702	3.28542	0	
0.4740	8.48711	-2.19028	0	
0.4747	7.88479	-4.95696	0	
0.4753	6.07786	-3.74654	0	
0.4760	4.81849	-6.80141	0	
0.4767	2.40924	-12.5653	0	
0.4773	1.4784	-17.1764	0	
0.4780	2.08071	-20.8077	0	
0.4787	-1.25938	-18.0987	0	
0.4793	-3.99715	-10.4327	0	
0.4800	-2.19022	-7.0896	0	
0.4807	-3.12106	-4.66876	0	
0.4813	-6.73493	3.28542	0	
0.4820	-6.73493	4.78404	0	
0.4827	-4.32569	1.44098	0	
0.4833	-5.53031	6.62849	0	
0.4840	-5.53031	11.2396	0	
0.4847	-3.12106	9.68336	0	
0.4853	-3.99715	13.3723	0	
0.4860	-3.99715	17.0035	0	
0.4867	-0.0547555	11.2396	0	
0.4873	-0.0547555	6.91668	0	
0.4880	-1.58791	5.41807	0	
0.4887	1.4784	1.44098	0	
0.4893	3.28533	-0.057639	0	
0.4900	0.547555	-0.979863	0	
0.4907	3.28533	-7.0896	0	
0.4913	7.61102	-14.1216	0	
0.4920	7.28248	-27.5515	0	
0.4927	7.88479	-48.0133	0	
0.4933	9.08942	-54.6994	0	
0.4940	7.88479	-43.4022	0	
0.4947	6.95395	-32.4508	0	
0.4953	6.95395	-25.4188	0	
0.4960	5.4208	-20.2313	0	
0.4967	5.74933	-17.7528	0	
0.4973	4.21617	-16.2542	0	
0.4980	0.547555	-15.0438	0	
0.4987	-0.0547555	-14.698	0	
0.4993	-0.328533	-11.3549	0	
0.5000	-3.99715	-8.64585	0	
0.5007	-3.72338	-8.01183	0	
0.5013	-1.58791	-2.82431	0	
0.5020	-3.12106	2.6514	0	
0.5027	-3.12106	2.07501	0	
0.5033	-2.464	3.28542	0	
0.5040	-5.53031	6.91668	0	
0.5047	-5.53031	7.26252	0	
0.5053	-2.79253	6.91668	0	
0.5060	-2.464	9.68336	0	
0.5067	-1.58791	9.97155	0	
0.5073	0.547555	7.83891	0	
0.5080	0.273778	6.34029	0	
0.5087	0.547555	9.68336	0	
0.5093	2.40924	15.7931	0	
0.5100	3.01155	18.848	0	
0.5107	5.74933	13.3723	0	
0.5113	6.95395	2.3632	0	
0.5120	3.9424	-7.0896	0	
0.5127	4.81849	-9.85627	0	
0.5133	8.81564	-9.51044	0	
0.5140	6.68017	-12.2771	0	
0.5147	4.54471	-15.6202	0	
0.5153	5.74933	-18.675	0	
0.5160	3.01155	-25.707	0	
0.5167	-0.657066	-31.8167	0	
0.5173	-0.328533	-32.4508	0	
0.5180	-0.0547555	-35.1598	0	
0.5187	-1.58791	-34.2376	0	
0.5193	-3.12106	-12.9111	0	
0.5200	-4.928	22.8251	0	
0.5207	-5.85884	48.1286	0	
0.5213	-5.85884	49.0508	0	
0.5220	-6.46115	36.5431	0	
0.5227	-5.53031	28.589	0	
0.5233	-5.25653	24.9577	0	
0.5240	-6.46115	20.6924	0	
0.5247	-4.32569	18.848	0	
0.5253	-2.79253	16.0813	0	
0.5260	-5.85884	9.39516	0	
0.5267	-5.85884	6.62849	0	
0.5273	-2.464	9.68336	0	
0.5280	-1.86169	10.3174	0	
0.5287	-0.328533	6.62849	0	
0.5293	1.80693	2.07501	0	
0.5300	-0.0547555	0.230556	0	
0.5307	0.547555	-0.403473	0	
0.5313	5.14702	-4.95696	0	
0.5320	6.07786	-9.51044	0	
0.5327	4.21617	-8.30002	0	
0.5333	3.28533	-9.22224	0	
0.5340	1.4784	-15.0438	0	
0.5347	1.4784	-20.2313	0	
0.5353	4.81849	-19.5973	0	
0.5360	4.21617	-9.51044	0	
0.5367	-0.328533	8.76113	0	
0.5373	-2.19022	18.5598	0	
0.5380	-1.25938	15.5049	0	
0.5387	-2.19022	11.816	0	
0.5393	-3.99715	9.39516	0	
0.5400	-5.85884	3.28542	0	
0.5407	-7.06346	-3.11251	0	
0.5413	-6.73493	-9.22224	0	
0.5420	-5.53031	-21.1535	0	
0.5427	-4.32569	-33.3154	0	
0.5433	-3.39484	-40.9813	0	
0.5440	-1.86169	-48.8779	0	
0.5447	-1.58791	-51.9328	0	
0.5453	-3.12106	-46.1689	0	
0.5460	-3.12106	-40.6355	0	
0.5467	-1.25938	-25.4188	0	
0.5473	0.547555	19.482	0	
0.5480	0.547555	74.9884	0	
0.5487	-0.0547555	103.981	0	
0.5493	-0.0547555	100.926	0	
0.5500	0.547555	79.2537	0	
0.5507	1.4784	55.7946	0	
0.5513	2.40924	43.5751	0	
0.5520	2.40924	30.7216	0	
0.5527	2.40924	12.7382	0	
0.5533	4.21617	4.20765	0	
0.5540	6.07786	0.864585	0	
0.5547	4.54471	-7.3778	0	
0.5553	3.01155	-6.16738	0	
0.5560	3.9424	5.70626	0	
0.5567	2.68302	5.12987	0	
0.5573	-0.328533	-8.64585	0	
0.5580	-0.985599	-17.7528	0	
0.5587	-0.328533	-22.6521	0	
0.5593	-0.0547555	-24.4966	0	
0.5600	0.273778	-17.4646	0	
0.5607	-1.25938	-4.95696	0	
0.5613	-1.86169	8.47294	0	
0.5620	0.547555	23.1133	0	
0.5627	1.4784	32.9119	0	
0.5633	-0.985599	30.7216	0	
0.5640	-1.86169	23.7473	0	
0.5647	-1.25938	18.5598	0	
0.5653	-2.19022	13.3723	0	
0.5660	-4.928	10.3174	0	
0.5667	-3.99715	9.39516	0	
0.5673	-2.19022	6.91668	0	
0.5680	-3.12106	6.0521	0	
0.5687	-3.12106	6.34029	0	
0.5693	2.68302	2.6514	0	
0.5700	5.14702	0.230556	0	
0.5707	1.4784	3.57362	0	
0.5713	1.4784	6.34029	0	
0.5720	6.35164	5.12987	0	
0.5727	7.88479	5.41807	0	
0.5733	5.74933	6.62849	0	
0.5740	4.81849	6.62849	0	
0.5747	5.74933	7.55071	0	
0.5753	5.4208	11.2396	0	
0.5760	2.40924	12.45	0	
0.5767	-0.0547555	8.18474	0	
0.5773	1.4784	0.230556	0	
0.5780	1.4784	-11.6431	0	
0.5787	-1.25938	-32.739	0	
0.5793	-1.25938	-49.8001	0	
0.5800	-0.328533	-48.3015	0	
0.5807	-1.86169	-38.2147	0	
0.5813	-2.19022	-35.1598	0	
0.5820	-1.25938	-37.0043	0	
0.5827	-3.72338	-35.1598	0	
0.5833	-5.85884	-29.6841	0	
0.5840	-4.32569	-23.8626	0	
0.5847	-3.12106	-19.0209	0	
0.5853	-3.72338	-14.1216	0	
0.5860	-3.99715	-11.6431	0	
0.5867	-2.19022	-15.332	0	
0.5873	0.547555	-23.2862	0	
0.5880	0.547555	-29.6841	0	
0.5887	-1.58791	-28.4737	0	
0.5893	-1.25938	-15.0438	0	
0.5900	0.876088	0.864585	0	
0.5907	2.40924	6.91668	0	
0.5913	3.9424	3.28542	0	
0.5920	4.81849	-1.90209	0	
0.5927	4.21617	-4.95696	0	
0.5933	4.54471	-7.0896	0	
0.5940	5.14702	-12.5653	0	
0.5947	3.28533	-20.8077	0	
0.5953	2.08071	-27.2633	0	
0.5960	4.21617	-38.8487	0	
0.5967	4.21617	-53.489	0	
0.5973	1.4784	-59.5988	0	
0.5980	0.273778	-65.9967	0	
0.5987	-0.328533	-75.4495	0	
0.5993	-2.19022	-58.3883	0	
0.6000	-3.72338	-17.4646	0	
0.6007	-4.59946	12.1042	0	
0.6013	-6.13262	38.3876	0	
0.6020	-7.66577	83.2308	0	
0.6027	-6.73493	118.621	0	
0.6033	-5.85884	113.434	0	
0.6040	-5.85884	82.6544	0	
0.6047	-4.32569	50.2612	0	
0.6053	-2.19022	25.2459	0	
0.6060	-1.58791	11.5278	0	
0.6067	-2.79253	4.78404	0	
0.6073	-1.86169	-6.16738	0	
0.6080	-0.0547555	-18.0987	0	
0.6087	0.273778	-23.8626	0	
0.6093	-0.328533	-28.4737	0	
0.6100	0.547555	-32.4508	0	
0.6107	3.01155	-27.8397	0	
0.6113	5.14702	-20.5195	0	
0.6120	5.14702	-13.1993	0	
0.6127	4.21617	7.26252	0	
0.6133	4.21617	29.857	0	
0.6140	4.81849	38.3876	0	
0.6147	3.9424	49.0508	0	
0.6153	3.61386	66.4578	0	
0.6160	4.21617	67.9564	0	
0.6167	2.68302	49.973	0	
0.6173	0.273778	30.7216	0	
0.6180	0.273778	20.0584	0	
0.6187	1.14987	17.9257	0	
0.6193	1.4784	17.9257	0	
0.6200	1.14987	16.4271	0	
0.6207	-1.58791	15.7931	0	
0.6213	-3.99715	15.1591	0	
0.6220	-1.58791	13.3723	0	
0.6227	1.80693	12.7382	0	
0.6233	0.273778	10.6056	0	
0.6240	-3.99715	6.34029	0	
0.6247	-4.59946	5.70626	0	
0.6253	-0.328533	2.3632	0	
0.6260	3.9424	-3.74654	0	
0.6267	3.28533	-5.87918	0	
0.6273	-0.0547555	-7.3778	0	
0.6280	-0.328533	-10.4327	0	
0.6287	3.01155	-8.01183	0	
0.6293	4.54471	-5.24515	0	
0.6300	2.68302	-8.64585	0	
0.6307	1.14987	-10.7785	0	
0.6313	3.61386	-8.93405	0	
0.6320	6.07786	-9.22224	0	
0.6327	6.35164	-11.3549	0	
0.6333	6.07786	-13.1993	0	
0.6340	5.14702	-14.4098	0	
0.6347	4.54471	-15.966	0	
0.6353	3.28533	-15.332	0	
0.6360	0.876088	-12.9111	0	
0.6367	0.547555	-12.2771	0	
0.6373	2.40924	-12.5653	0	
0.6380	1.80693	-10.1445	0	
0.6387	-0.657066	-8.30002	0	
0.6393	-1.86169	-8.64585	0	
0.6400	-3.39484	-5.24515	0	
0.6407	-5.25653	-0.691668	0	
0.6413	-6.46115	2.07501	0	
0.6420	-7.39199	6.0521	0	
0.6427	-5.85884	9.97155	0	
0.6433	-3.12106	7.83891	0	
0.6440	-4.928	3.28542	0	
0.6447	-6.73493	0.230556	0	
0.6453	-4.928	-3.74654	0	
0.6460	-3.39484	-5.87918	0	
0.6467	-1.86169	-2.19028	0	
0.6473	0.876088	2.07501	0	
0.6480	-0.328533	2.6514	0	
0.6487	-2.19022	3.28542	0	
0.6493	1.14987	3.91945	0	
0.6500	4.21617	-0.057639	0	
0.6507	4.54471	-6.45557	0	
0.6513	5.4208	-8.64585	0	
0.6520	5.14702	-6.80141	0	
0.6527	3.9424	-5.59099	0	
0.6533	6.07786	-5.59099	0	
0.6540	6.95395	-4.32293	0	
0.6547	3.01155	-4.03473	0	
0.6553	1.4784	-6.45557	0	
0.6560	4.21617	-7.3778	0	
0.6567	3.01155	-4.03473	0	
0.6573	-0.328533	-1.61389	0	
0.6580	-1.25938	-0.979863	0	
0.6587	-0.657066	-1.26806	0	
0.6593	-0.0547555	-4.66876	0	
0.6600	-0.985599	-8.93405	0	
0.6607	-5.25653	-8.64585	0	
0.6613	-6.73493	-6.80141	0	
0.6620	-2.79253	-6.45557	0	
0.6627	-2.19022	-2.53612	0	
0.6633	-6.73493	1.44098	0	
0.6640	-6.73493	-1.61389	0	
0.6647	-4.928	-5.24515	0	
0.6653	-4.928	-5.87918	0	
0.6660	-4.928	-8.64585	0	
0.6667	-5.25653	-11.3549	0	
0.6673	-4.32569	-9.51044	0	
0.6680	0.547555	-6.16738	0	
0.6687	2.08071	-9.51044	0	
0.6693	-3.12106	-15.332	0	
0.6700	-1.86169	-15.966	0	
0.6707	4.21617	-13.1993	0	
0.6713	3.9424	-13.1993	0	
0.6720	1.4784	-11.6431	0	
0.6727	2.68302	-14.698	0	
0.6733	1.4784	-35.7938	0	
0.6740	-0.657066	-60.8092	0	
0.6747	1.14987	-58.9647	0	
0.6753	2.40924	-35.1598	0	
0.6760	2.68302	-18.675	0	
0.6767	3.01155	-18.0987	0	
0.6773	1.4784	-20.5195	0	
0.6780	0.547555	-20.5195	0	
0.6787	1.4784	-17.1764	0	
0.6793	-1.58791	-5.87918	0	
0.6800	-5.85884	17.9257	0	
0.6807	-4.32569	48.4744	0	
0.6813	-3.12106	77.4669	0	
0.6820	-7.66577	97.5829	0	
0.6827	-8.59662	99.4273	0	
0.6833	-6.13262	80.8099	0	
0.6840	-7.39199	55.7946	0	
0.6847	-7.39199	36.2549	0	
0.6853	-3.99715	23.1133	0	
0.6860	-4.59946	17.2917	0	
0.6867	-4.928	14.2945	0	
0.6873	-1.25938	5.70626	0	
0.6880	-1.58791	-5.87918	0	
0.6887	-5.85884	-13.1993	0	
0.6893	-5.85884	-19.5973	0	
0.6900	-2.464	-26.6292	0	
0.6907	-1.25938	-30.6063	0	
0.6913	-1.25938	-29.6841	0	
0.6920	-0.657066	-17.7528	0	
0.6927	1.80693	11.2396	0	
0.6933	3.9424	44.4973	0	
0.6940	4.21617	56.0828	0	
0.6947	4.81849	43.5751	0	
0.6953	4.21617	28.0126	0	
0.6960	2.68302	17.2917	0	
0.6967	3.01155	7.83891	0	
0.6973	2.40924	3.57362	0	
0.6980	-0.985599	3.57362	0	
0.6987	-1.86169	-1.26806	0	
0.6993	-0.657066	-8.64585	0	
0.7000	-0.985599	-9.85627	0	
0.7007	-0.985599	-7.72363	0	
0.7013	-2.19022	-6.16738	0	
0.7020	-4.32569	-0.979863	0	
0.7027	-3.72338	2.07501	0	
0.7033	-3.99715	-3.45834	0	
0.7040	-5.53031	-4.32293	0	
0.7047	-3.12106	9.10697	0	
0.7053	-3.12106	21.2688	0	
0.7060	-6.73493	19.482	0	
0.7067	-3.72338	15.5049	0	
0.7073	0.273778	15.1591	0	
0.7080	-2.19022	11.5278	0	
0.7087	-0.985599	6.91668	0	
0.7093	2.40924	4.20765	0	
0.7100	0.876088	-4.66876	0	
0.7107	1.14987	-15.966	0	
0.7113	3.28533	-17.7528	0	
0.7120	1.14987	-13.1993	0	
0.7127	1.14987	-12.2771	0	
0.7133	5.14702	-15.6202	0	
0.7140	5.14702	-19.3091	0	
0.7147	3.61386	-21.4417	0	
0.7153	3.28533	-20.5195	0	
0.7160	0.547555	-17.7528	0	
0.7167	1.4784	-18.3869	0	
0.7173	4.54471	-22.0757	0	
0.7180	1.14987	-23.2862	0	
0.7187	-2.79253	-22.3639	0	
0.7193	-1.25938	-22.3639	0	
0.7200	-3.12106	-23.8626	0	
0.7207	-7.06346	-25.073	0	
0.7213	-6.73493	-27.8397	0	
0.7220	-5.85884	-30.6063	0	
0.7227	-6.73493	-28.1278	0	
0.7233	-6.13262	-15.966	0	
0.7240	-5.85884	4.49584	0	
0.7247	-7.06346	19.1362	0	
0.7253	-4.59946	17.0035	0	
0.7260	-0.657066	8.18474	0	
0.7267	-0.657066	2.3632	0	
0.7273	-1.25938	-1.90209	0	
0.7280	0.547555	-4.95696	0	
0.7287	2.08071	-4.03473	0	
0.7293	2.40924	-2.19028	0	
0.7300	4.81849	-0.979863	0	
0.7307	6.95395	0.518751	0	
0.7313	6.95395	0.864585	0	
0.7320	5.14702	-0.057639	0	
0.7327	3.28533	-1.61389	0	
0.7333	3.01155	-2.19028	0	
0.7340	3.9424	-0.979863	0	
0.7347	3.9424	-0.691668	0	
0.7353	4.21617	-1.90209	0	
0.7360	5.74933	-1.61389	0	
0.7367	4.81849	-1.61389	0	
0.7373	1.4784	-3.74654	0	
0.7380	0.876088	-4.95696	0	
0.7387	0.547555	1.44098	0	
0.7393	-1.58791	13.9486	0	
0.7400	-0.328533	24.0355	0	
0.7407	1.14987	25.5341	0	
0.7413	-2.464	24.0355	0	
0.7420	-3.99715	21.2688	0	
0.7427	-0.657066	17.0035	0	
0.7433	1.14987	14.8709	0	
0.7440	0.547555	13.9486	0	
0.7447	1.14987	9.39516	0	
0.7453	-0.328533	6.0521	0	
0.7460	-1.86169	6.0521	0	
0.7467	0.273778	1.44098	0	
0.7473	2.40924	-4.66876	0	
0.7480	2.68302	-3.11251	0	
0.7487	3.01155	-2.82431	0	
0.7493	3.28533	-8.30002	0	
0.7500	3.61386	-9.51044	0	
0.7507	5.14702	-4.95696	0	
0.7513	6.68017	-3.74654	0	
0.7520	6.07786	-5.24515	0	
0.7527	6.68017	-3.74654	0	
0.7533	7.28248	0.864585	0	
0.7540	6.07786	1.44098	0	
0.7547	4.54471	-1.61389	0	
0.7553	4.81849	-0.691668	0	
0.7560	4.81849	0.518751	0	
0.7567	1.4784	-3.11251	0	
0.7573	-1.25938	-8.64585	0	
0.7580	-0.0547555	-16.5424	0	
0.7587	0.273778	-28.7619	0	
0.7593	-3.12106	-39.7709	0	
0.7600	-5.25653	-48.3015	0	
0.7607	-4.928	-55.9099	0	
0.7613	-3.72338	-54.4112	0	
0.7620	-2.464	-47.0911	0	
0.7627	-2.79253	-41.5577	0	
0.7633	-3.99715	-22.9403	0	
0.7640	-3.99715	19.482	0	
0.7647	-4.928	61.9043	0	
0.7653	-5.53031	78.0432	0	
0.7660	-3.72338	70.0891	0	
0.7667	-0.328533	56.6592	0	
0.7673	1.80693	41.7307	0	
0.7680	1.4784	18.848	0	
0.7687	-0.328533	3.28542	0	
0.7693	-0.328533	11.5278	0	
0.7700	1.80693	22.5369	0	
0.7707	1.80693	17.0035	0	
0.7713	0.547555	8.18474	0	
0.7720	2.68302	5.41807	0	
0.7727	5.14702	1.72917	0	
0.7733	5.4208	0.518751	0	
0.7740	4.81849	3.91945	0	
0.7747	4.21617	5.70626	0	
0.7753	3.28533	4.49584	0	
0.7760	3.9424	1.15278	0	
0.7767	3.9424	-1.61389	0	
0.7773	1.4784	-1.26806	0	
0.7780	0.547555	-1.61389	0	
0.7787	1.14987	-5.24515	0	
0.7793	-1.25938	-7.3778	0	
0.7800	-3.99715	-9.85627	0	
0.7807	-3.39484	-15.966	0	
0.7813	-4.32569	-18.675	0	
0.7820	-7.06346	-17.7528	0	
0.7827	-6.13262	-22.3639	0	
0.7833	-3.99715	-31.5285	0	
0.7840	-4.928	-37.0043	0	
0.7847	-5.85884	-34.5834	0	
0.7853	-4.928	-25.9952	0	
0.7860	-2.79253	-15.6202	0	
0.7867	-1.86169	-7.72363	0	
0.7873	-1.86169	-0.057639	0	
0.7880	-0.0547555	6.34029	0	
0.7887	4.21617	9.10697	0	
0.7893	6.35164	16.0813	0	
0.7900	4.81849	33.2001	0	
0.7907	3.9424	44.4973	0	
0.7913	6.07786	36.8313	0	
0.7920	7.28248	22.191	0	
0.7927	5.14702	14.8709	0	
0.7933	2.40924	11.5278	0	
0.7940	1.4784	7.26252	0	
0.7947	2.40924	5.41807	0	
0.7953	4.54471	3.28542	0	
0.7960	5.74933	-2.19028	0	
0.7967	2.68302	-8.64585	0	
0.7973	1.4784	-12.5653	0	
0.7980	5.14702	-18.0987	0	
0.7987	5.4208	-25.9952	0	
0.7993	1.4784	-36.082	0	
0.8000	-0.328533	-44.3244	0	
0.8007	-1.86169	-45.2466	0	
0.8013	-4.928	-40.0591	0	
0.8020	-6.46115	-30.6063	0	
0.8027	-4.928	-0.057639	0	
0.8033	-2.19022	47.8404	0	
0.8040	-0.328533	74.7002	0	
0.8047	-1.25938	67.9564	0	
0.8053	-3.12106	51.4717	0	
0.8060	-1.86169	41.0966	0	
0.8067	-1.25938	38.6758	0	
0.8073	-3.12106	39.8862	0	
0.8080	-1.86169	32.5661	0	
0.8087	1.14987	20.3466	0	
0.8093	2.40924	16.7153	0	
0.8100	3.28533	15.1591	0	
0.8107	4.21617	9.10697	0	
0.8113	2.40924	4.20765	0	
0.8120	2.68302	-3.11251	0	
0.8127	5.14702	-13.1993	0	
0.8133	4.54471	-19.0209	0	
0.8140	2.68302	-22.6521	0	
0.8147	5.14702	-27.8397	0	
0.8153	7.88479	-28.1278	0	
0.8160	6.07786	-27.8397	0	
0.8167	3.01155	-28.7619	0	
0.8173	1.4784	-24.4966	0	
0.8180	0.876088	-20.5195	0	
0.8187	-0.328533	-21.1535	0	
0.8193	-1.58791	-9.22224	0	
0.8200	-2.464	15.5049	0	
0.8207	-4.32569	24.3237	0	
0.8213	-4.59946	12.45	0	
0.8220	-3.12106	0.518751	0	
0.8227	-3.12106	-0.691668	0	
0.8233	-3.39484	4.49584	0	
0.8240	-0.657066	13.6604	0	
0.8247	0.547555	19.7702	0	
0.8253	-0.328533	17.0035	0	
0.8260	1.4784	9.97155	0	
0.8267	1.80693	6.0521	0	
0.8273	-1.25938	6.34029	0	
0.8280	-1.58791	6.0521	0	
0.8287	0.547555	3.28542	0	
0.8293	0.547555	1.44098	0	
0.8300	1.4784	-0.057639	0	
0.8307	2.68302	-2.19028	0	
0.8313	2.68302	-1.90209	0	
0.8320	3.9424	1.15278	0	
0.8327	6.68017	2.6514	0	
0.8333	7.88479	2.07501	0	
0.8340	6.68017	0.864585	0	
0.8347	5.14702	0.518751	0	
0.8353	5.14702	0.518751	0	
0.8360	5.74933	1.15278	0	
0.8367	4.81849	6.0521	0	
0.8373	4.81849	12.45	0	
0.8380	3.9424	13.0264	0	
0.8387	-0.328533	9.68336	0	
0.8393	-3.12106	9.97155	0	
0.8400	-1.58791	9.68336	0	
0.8407	-2.19022	1.44098	0	
0.8413	-4.59946	-4.66876	0	
0.8420	-5.85884	-4.95696	0	
0.8427	-7.06346	-13.1993	0	
0.8433	-6.13262	-32.1049	0	
0.8440	-3.12106	-46.1689	0	
0.8447	-3.72338	-54.0654	0	
0.8453	-6.13262	-59.887	0	
0.8460	-3.99715	-60.1751	0	
0.8467	-1.25938	-59.887	0	
0.8473	-2.79253	-61.4432	0	
0.8480	-3.12106	-56.2557	0	
0.8487	-0.657066	-45.5348	0	
0.8493	-0.328533	-29.0501	0	
0.8500	-0.328533	13.0264	0	
0.8507	1.80693	72.5675	0	
0.8513	2.08071	103.404	0	
0.8520	3.28533	90.2627	0	
0.8527	5.74933	63.1147	0	
0.8533	3.28533	42.3647	0	
0.8540	-0.328533	28.9348	0	
0.8547	2.40924	25.2459	0	
0.8553	6.07786	26.8021	0	
0.8560	2.08071	15.5049	0	
0.8567	-0.0547555	-10.7785	0	
0.8573	4.21617	-25.4188	0	
0.8580	3.28533	-17.7528	0	
0.8587	-3.12106	-10.4327	0	
0.8593	-4.928	-10.7785	0	
0.8600	-3.39484	-7.3778	0	
0.8607	-3.12106	-1.90209	0	
0.8613	-3.39484	-2.19028	0	
0.8620	-3.12106	2.3632	0	
0.8627	-3.39484	10.8938	0	
0.8633	-4.928	9.68336	0	
0.8640	-6.13262	1.44098	0	
0.8647	-4.928	-2.82431	0	
0.8653	-3.12106	-3.45834	0	
0.8660	-4.32569	-5.59099	0	
0.8667	-6.13262	-5.59099	0	
0.8673	-5.25653	-4.95696	0	
0.8680	-4.928	-8.64585	0	
0.8687	-3.99715	-11.9889	0	
0.8693	-0.328533	-11.6431	0	
0.8700	-0.0547555	-12.2771	0	
0.8707	-1.58791	-18.675	0	
0.8713	-0.328533	-25.9952	0	
0.8720	0.547555	-29.0501	0	
0.8727	1.4784	-27.8397	0	
0.8733	3.28533	-23.8626	0	
0.8740	1.14987	-19.0209	0	
0.8747	-1.25938	-14.1216	0	
0.8753	1.4784	-11.3549	0	
0.8760	3.28533	-12.2771	0	
0.8767	0.547555	-11.6431	0	
0.8773	-0.328533	-0.691668	0	
0.8780	0.547555	9.97155	0	
0.8787	0.547555	4.20765	0	
0.8793	-0.328533	-8.93405	0	
0.8800	-3.12106	-14.1216	0	
0.8807	-6.13262	-16.8882	0	
0.8813	-5.25653	-10.7785	0	
0.8820	-4.59946	20.6924	0	
0.8827	-5.25653	57.9272	0	
0.8833	-3.72338	61.2703	0	
0.8840	-3.99715	34.6987	0	
0.8847	-6.73493	9.97155	0	
0.8853	-6.13262	-2.19028	0	
0.8860	-3.99715	-4.95696	0	
0.8867	-2.464	1.72917	0	
0.8873	0.273778	9.68336	0	
0.8880	-0.985599	10.8938	0	
0.8887	-4.32569	9.97155	0	
0.8893	-2.464	8.76113	0	
0.8900	1.4784	6.34029	0	
0.8907	1.80693	5.12987	0	
0.8913	1.4784	2.6514	0	
0.8920	0.547555	-4.32293	0	
0.8927	-0.985599	-9.51044	0	
0.8933	1.4784	-3.74654	0	
0.8940	1.14987	8.76113	0	
0.8947	-1.25938	16.7153	0	
0.8953	1.14987	13.0264	0	
0.8960	3.9424	3.28542	0	
0.8967	3.28533	-3.74654	0	
0.8973	4.21617	-6.80141	0	
0.8980	4.81849	-7.72363	0	
0.8987	1.4784	-4.66876	0	
0.8993	0.547555	-2.19028	0	
0.9000	-0.328533	-4.66876	0	
0.9007	-3.99715	-5.59099	0	
0.9013	-5.25653	-1.26806	0	
0.9020	-3.72338	5.12987	0	
0.9027	-3.12106	12.1042	0	
0.9033	-1.25938	22.191	0	
0.9040	-0.985599	27.7244	0	
0.9047	-4.32569	17.2917	0	
0.9053	-5.25653	-1.90209	0	
0.9060	-2.79253	-9.85627	0	
0.9067	-2.79253	-2.53612	0	
0.9073	-2.19022	6.62849	0	
0.9080	2.40924	7.83891	0	
0.9087	2.40924	4.78404	0	
0.9093	-0.985599	5.12987	0	
0.9100	3.01155	10.6056	0	
0.9107	8.21333	13.3723	0	
0.9113	5.4208	9.68336	0	
0.9120	2.40924	4.49584	0	
0.9127	5.74933	1.44098	0	
0.9133	7.61102	-1.26806	0	
0.9140	5.74933	-3.45834	0	
0.9147	4.81849	-5.24515	0	
0.9153	4.21617	-7.0896	0	
0.9160	3.28533	-9.51044	0	
0.9167	2.40924	-12.9111	0	
0.9173	-1.25938	-15.0438	0	
0.9180	-3.72338	-15.966	0	
0.9187	-2.19022	-17.7528	0	
0.9193	-2.464	-19.5973	0	
0.9200	-3.39484	-15.6202	0	
0.9207	-0.985599	-8.01183	0	
0.9213	-1.58791	-3.45834	0	
0.9220	-6.46115	-5.59099	0	
0.9227	-6.46115	-7.72363	0	
0.9233	-3.99715	-4.32293	0	
0.9240	-4.32569	-2.53612	0	
0.9247	-3.72338	-6.16738	0	
0.9253	-4.32569	-8.64585	0	
0.9260	-6.13262	-11.0667	0	
0.9267	-3.39484	-18.0987	0	
0.9273	-0.328533	-25.4188	0	
0.9280	-2.19022	-31.8167	0	
0.9287	-1.25938	-40.6355	0	
0.9293	3.01155	-48.3015	0	
0.9300	3.9424	-53.2008	0	
0.9307	3.61386	-58.9647	0	
0.9313	3.9424	-48.8779	0	
0.9320	1.80693	-8.01183	0	
0.9327	2.40924	38.6758	0	
0.9333	6.95395	59.1376	0	
0.9340	6.95395	55.7946	0	
0.9347	2.08071	43.5751	0	
0.9353	1.4784	31.0674	0	
0.9360	3.28533	29.857	0	
0.9367	2.08071	36.8313	0	
0.9373	-0.328533	36.2549	0	
0.9380	-0.328533	26.1681	0	
0.9387	0.547555	15.5049	0	
0.9393	-0.328533	7.83891	0	
0.9400	-1.58791	4.20765	0	
0.9407	-1.25938	2.07501	0	
0.9413	-1.58791	0.864585	0	
0.9420	-4.928	3.28542	0	
0.9427	-6.73493	-2.19028	0	
0.9433	-4.928	-22.9403	0	
0.9440	-3.99715	-37.6383	0	
0.9447	-4.59946	-29.6841	0	
0.9453	-4.59946	-9.85627	0	
0.9460	-4.59946	14.2945	0	
0.9467	-3.12106	35.9091	0	
0.9473	0.547555	38.964	0	
0.9480	2.40924	24.6695	0	
0.9487	1.4784	13.3723	0	
0.9493	2.40924	10.6056	0	
0.9500	4.81849	9.10697	0	
0.9507	6.07786	7.55071	0	
0.9513	6.35164	7.26252	0	
0.9520	5.4208	7.83891	0	
0.9527	4.21617	6.91668	0	
0.9533	5.4208	6.34029	0	
0.9540	6.68017	5.12987	0	
0.9547	5.14702	3.28542	0	
0.9553	2.08071	2.3632	0	
0.9560	0.876088	1.44098	0	
0.9567	1.4784	-2.82431	0	
0.9573	2.08071	-5.24515	0	
0.9580	2.08071	-4.03473	0	
0.9587	2.68302	-7.3778	0	
0.9593	1.4784	-11.3549	0	
0.9600	-2.79253	-10.4327	0	
0.9607	-3.39484	-10.4327	0	
0.9613	0.547555	-10.7785	0	
0.9620	1.14987	-8.01183	0	
0.9627	-3.72338	-6.80141	0	
0.9633	-6.13262	-8.93405	0	
0.9640	-3.12106	-7.72363	0	
0.9647	-1.58791	-6.80141	0	
0.9653	-4.32569	-8.01183	0	
0.9660	-4.928	-5.59099	0	
0.9667	-0.657066	-0.403473	0	
0.9673	1.14987	2.6514	0	
0.9680	1.14987	8.76113	0	
0.9687	3.61386	15.1591	0	
0.9693	5.4208	12.7382	0	
0.9700	5.14702	6.62849	0	
0.9707	6.07786	4.20765	0	
0.9713	6.35164	2.07501	0	
0.9720	6.07786	-1.26806	0	
0.9727	6.95395	-2.19028	0	
0.9733	6.35164	-1.90209	0	
0.9740	3.28533	-2.19028	0	
0.9747	3.61386	0.864585	0	
0.9753	5.4208	4.49584	0	
0.9760	4.21617	3.91945	0	
0.9767	1.4784	1.72917	0	
0.9773	-0.985599	-1.26806	0	
0.9780	-1.86169	-6.16738	0	
0.9787	-0.657066	-8.01183	0	
0.9793	-1.25938	-5.87918	0	
0.9800	-2.19022	-4.95696	0	
0.9807	-1.86169	-8.64585	0	
0.9813	-3.72338	-15.332	0	
0.9820	-4.928	-23.2862	0	
0.9827	-1.86169	-26.341	0	
0.9833	-1.58791	-25.9952	0	
0.9840	-5.85884	-27.8397	0	
0.9847	-4.928	-29.0501	0	
0.9853	-3.12106	-26.341	0	
0.9860	-6.73493	-22.6521	0	
0.9867	-7.06346	-21.1535	0	
0.9873	-2.19022	-10.7785	0	
0.9880	-1.58791	12.1042	0	
0.9887	-3.12106	28.9348	0	
0.9893	0.273778	25.2459	0	
0.9900	2.40924	14.5827	0	
0.9907	0.876088	7.55071	0	
0.9913	2.40924	0.518751	0	
0.9920	5.14702	-0.403473	0	
0.9927	4.81849	9.68336	0	
0.9933	3.9424	18.848	0	
0.9940	4.21617	17.6375	0	
0.9947	3.28533	16.0813	0	
0.9953	2.68302	18.2139	0	
0.9960	3.01155	17.2917	0	
0.9967	1.14987	17.0035	0	
0.9973	-0.328533	20.6924	0	
0.9980	-0.328533	20.6924	0	
0.9987	-1.58791	16.7153	0	
0.9993	-3.72338	17.2917	0	
1.0000	-3.72338	17.2917	0	
1.0007	-3.12106	11.5278	0	
1.0013	-4.32569	7.83891	0	
1.0020	-5.85884	4.49584	0	
1.0027	-6.73493	-7.72363	0	
1.0033	-8.26808	-23.2862	0	
1.0040	-8.26808	-33.3154	0	
1.0047	-7.06346	-36.3702	0	
1.0053	-7.39199	-33.3154	0	
1.0060	-6.73493	-29.0501	0	
1.0067	-3.12106	-29.6841	0	
1.0073	-1.86169	-34.2376	0	
1.0080	-2.79253	-41.5577	0	
1.0087	-1.58791	-49.2237	0	
1.0093	1.14987	-57.4661	0	
1.0100	2.08071	-65.7085	0	
1.0107	3.28533	-67.2071	0	
1.0113	3.9424	-59.887	0	
1.0120	2.08071	-38.5029	0	
1.0127	0.547555	15.1591	0	
1.0133	2.40924	87.496	0	
1.0140	4.54471	130.207	0	
1.0147	5.14702	125.019	0	
1.0153	5.14702	94.8162	0	
1.0160	4.81849	61.5585	0	
1.0167	4.21617	38.0994	0	
1.0173	2.40924	23.7473	0	
1.0180	0.547555	1.44098	0	
1.0187	-0.328533	-22.3639	0	
1.0193	-0.657066	-26.9174	0	
1.0200	-1.25938	-19.3091	0	
1.0207	-3.12106	-15.0438	0	
1.0213	-4.59946	-7.72363	0	
1.0220	-4.928	3.28542	0	
1.0227	-4.928	8.47294	0	
1.0233	-4.32569	12.7382	0	
1.0240	-3.12106	22.191	0	
1.0247	-1.58791	28.9348	0	
1.0253	0.273778	28.9348	0	
1.0260	0.547555	25.2459	0	
1.0267	-0.985599	19.7702	0	
1.0273	-0.657066	16.4271	0	
1.0280	3.28533	18.2139	0	
1.0287	6.07786	18.848	0	
1.0293	5.74933	8.47294	0	
1.0300	4.54471	-7.3778	0	
1.0307	4.21617	-18.675	0	
1.0313	6.07786	-23.8626	0	
1.0320	7.61102	-20.8077	0	
1.0327	5.74933	-11.3549	0	
1.0333	3.01155	-3.45834	0	
1.0340	4.21617	-2.53612	0	
1.0347	6.07786	-3.45834	0	
1.0353	4.54471	-1.90209	0	
1.0360	4.21617	-0.691668	0	
1.0367	6.07786	-2.82431	0	
1.0373	4.81849	-4.95696	0	
1.0380	2.40924	-4.66876	0	
1.0387	0.876088	-4.95696	0	
1.0393	-2.19022	-8.01183	0	
1.0400	-2.79253	-9.22224	0	
1.0407	0.876088	-7.3778	0	
1.0413	-0.328533	-5.59099	0	
1.0420	-6.13262	-4.95696	0	
1.0427	-7.66577	-7.72363	0	
1.0433	-5.85884	-11.0667	0	
1.0440	-5.25653	-10.4327	0	
1.0447	-4.928	-10.4327	0	
1.0453	-5.85884	-14.4098	0	
1.0460	-6.13262	-15.332	0	
1.0467	-3.99715	-8.01183	0	
1.0473	-3.99715	0.518751	0	
1.0480	-4.59946	6.0521	0	
1.0487	-1.25938	5.41807	0	
1.0493	-0.0547555	-0.403473	0	
1.0500	-1.86169	-1.90209	0	
1.0507	2.40924	1.44098	0	
1.0513	6.95395	0.230556	0	
1.0520	2.68302	-1.61389	0	
1.0527	-0.657066	2.6514	0	
1.0533	2.68302	6.91668	0	
1.0540	5.74933	8.18474	0	
1.0547	4.54471	8.47294	0	
1.0553	1.4784	6.62849	0	
1.0560	-0.0547555	4.20765	0	
1.0567	1.14987	3.28542	0	
1.0573	1.14987	0.518751	0	
1.0580	-2.19022	-1.90209	0	
1.0587	-4.59946	1.15278	0	
1.0593	-3.99715	3.28542	0	
1.0600	-2.19022	0.518751	0	
1.0607	-2.19022	1.15278	0	
1.0613	-3.99715	5.12987	0	
1.0620	-4.928	3.28542	0	
1.0627	-6.46115	-0.979863	0	
1.0633	-8.59662	-2.53612	0	
1.0640	-8.26808	-5.87918	0	
1.0647	-7.66577	-14.1216	0	
1.0653	-9.52746	-16.5424	0	
1.0660	-8.59662	-6.80141	0	
1.0667	-4.928	7.83891	0	
1.0673	-3.12106	15.1591	0	
1.0680	-1.25938	14.2945	0	
1.0687	1.80693	11.816	0	
1.0693	2.08071	10.6056	0	
1.0700	-0.328533	5.70626	0	
1.0707	-0.657066	1.15278	0	
1.0713	1.80693	3.91945	0	
1.0720	4.21617	5.41807	0	
1.0727	2.68302	-0.979863	0	
1.0733	0.547555	-5.87918	0	
1.0740	1.4784	-6.45557	0	
1.0747	1.4784	-9.22224	0	
1.0753	-0.985599	-12.2771	0	
1.0760	0.547555	-11.3549	0	
1.0767	3.28533	-8.30002	0	
1.0773	2.08071	-4.95696	0	
1.0780	-0.985599	-2.53612	0	
1.0787	-1.25938	-3.11251	0	
1.0793	0.273778	-2.53612	0	
1.0800	1.14987	-2.19028	0	
1.0807	-1.58791	-4.95696	0	
1.0813	-5.53031	-6.45557	0	
1.0820	-4.928	-5.24515	0	
1.0827	-2.464	-7.72363	0	
1.0833	-4.928	-13.1993	0	
1.0840	-6.73493	-19.8855	0	
1.0847	-3.12106	-25.707	0	
1.0853	-2.464	-30.8945	0	
1.0860	-5.85884	-37.2925	0	
1.0867	-4.928	-42.48	0	
1.0873	-1.25938	-45.5348	0	
1.0880	-0.328533	-52.2786	0	
1.0887	-0.657066	-49.5119	0	
1.0893	-0.0547555	-15.6202	0	
1.0900	0.876088	31.0674	0	
1.0907	3.9424	55.4487	0	
1.0913	5.74933	53.0279	0	
1.0920	3.28533	37.7536	0	
1.0927	3.9424	21.6146	0	
1.0933	5.14702	23.1133	0	
1.0940	1.80693	42.6529	0	
1.0947	1.80693	52.3939	0	
1.0953	6.95395	42.0189	0	
1.0960	6.68017	30.7216	0	
1.0967	4.21617	24.3237	0	
1.0973	6.95395	15.7931	0	
1.0980	6.35164	9.68336	0	
1.0987	3.28533	8.47294	0	
1.0993	3.28533	3.91945	0	
1.1000	1.80693	-3.11251	0	
1.1007	-1.58791	-9.22224	0	
1.1013	-2.464	-18.3869	0	
1.1020	-3.72338	-26.341	0	
1.1027	-3.99715	-30.6063	0	
1.1033	-1.58791	-44.3244	0	
1.1040	-3.39484	-57.1203	0	
1.1047	-5.85884	-37.0043	0	
1.1053	-1.25938	8.76113	0	
1.1060	1.80693	42.6529	0	
1.1067	-1.25938	49.339	0	
1.1073	-0.657066	33.7765	0	
1.1080	2.68302	9.10697	0	
1.1087	3.61386	-6.45557	0	
1.1093	3.9424	-8.93405	0	
1.1100	3.01155	-10.4327	0	
1.1107	1.4784	-13.1993	0	
1.1113	4.21617	-15.0438	0	
1.1120	6.07786	-15.332	0	
1.1127	3.28533	-12.9111	0	
1.1133	3.9424	-6.80141	0	
1.1140	7.61102	1.44098	0	
1.1147	7.61102	7.26252	0	
1.1153	6.35164	6.62849	0	
1.1160	6.95395	1.15278	0	
1.1167	5.14702	-1.26806	0	
1.1173	2.68302	-0.403473	0	
1.1180	2.40924	0.518751	0	
1.1187	2.08071	-0.057639	0	
1.1193	0.547555	-1.61389	0	
1.1200	-1.25938	-3.11251	0	
1.1207	-3.12106	-4.66876	0	
1.1213	-2.79253	-5.87918	0	
1.1220	-0.985599	-8.64585	0	
1.1227	-1.25938	-12.2771	0	
1.1233	-3.12106	-12.9111	0	
1.1240	-0.985599	-8.01183	0	
1.1247	1.80693	-3.45834	0	
1.1253	1.14987	-2.19028	0	
1.1260	-0.0547555	2.3632	0	
1.1267	1.4784	11.5278	0	
1.1273	3.28533	16.0813	0	
1.1280	2.40924	14.8709	0	
1.1287	-0.0547555	17.9257	0	
1.1293	1.80693	25.2459	0	
1.1300	6.07786	28.0126	0	
1.1307	5.74933	21.9028	0	
1.1313	2.68302	13.6604	0	
1.1320	4.54471	10.3174	0	
1.1327	8.48711	12.7382	0	
1.1333	7.61102	15.1591	0	
1.1340	6.68017	12.7382	0	
1.1347	7.88479	9.68336	0	
1.1353	6.95395	9.39516	0	
1.1360	5.74933	8.76113	0	
1.1367	6.95395	6.0521	0	
1.1373	6.07786	3.28542	0	
1.1380	3.28533	1.44098	0	
1.1387	1.80693	0.230556	0	
1.1393	0.876088	-0.979863	0	
1.1400	0.547555	-0.403473	0	
1.1407	-0.328533	-0.403473	0	
1.1413	-3.72338	-4.95696	0	
1.1420	-5.25653	-8.64585	0	
1.1427	-3.39484	-4.66876	0	
1.1433	-3.72338	-0.403473	0	
1.1440	-4.32569	-2.19028	0	
1.1447	-2.19022	-3.74654	0	
1.1453	-1.58791	-6.45557	0	
1.1460	-2.464	-10.7785	0	
1.1467	-2.464	-7.72363	0	
1.1473	-2.79253	1.44098	0	
1.1480	-1.25938	3.91945	0	
1.1487	1.4784	1.72917	0	
1.1493	1.4784	1.44098	0	
1.1500	2.40924	2.6514	0	
1.1507	5.14702	1.44098	0	
1.1513	5.14702	-3.11251	0	
1.1520	4.21617	-3.74654	0	
1.1527	4.81849	0.518751	0	
1.1533	2.40924	-1.26806	0	
1.1540	-0.0547555	-6.45557	0	
1.1547	1.4784	-4.03473	0	
1.1553	2.08071	-1.61389	0	
1.1560	0.547555	-6.80141	0	
1.1567	2.40924	-11.3549	0	
1.1573	1.80693	-9.51044	0	
1.1580	-2.19022	-9.51044	0	
1.1587	-2.19022	-18.3869	0	
1.1593	-2.19022	-30.6063	0	
1.1600	-4.928	-33.3154	0	
1.1607	-4.32569	-29.0501	0	
1.1613	-3.12106	-26.341	0	
1.1620	-7.06346	-26.9174	0	
1.1627	-7.06346	-27.8397	0	
1.1633	-0.985599	-29.6841	0	
1.1640	-2.19022	-35.1598	0	
1.1647	-8.59662	-42.48	0	
1.1653	-7.66577	-35.448	0	
1.1660	-3.39484	-4.03473	0	
1.1667	-3.39484	27.3785	0	
1.1673	-3.39484	31.3556	0	
1.1680	-1.25938	14.2945	0	
1.1687	0.547555	6.0521	0	
1.1693	1.4784	25.5341	0	
1.1700	2.08071	63.1147	0	
1.1707	1.80693	86.2856	0	
1.1713	2.08071	81.3863	0	
1.1720	1.80693	60.6363	0	
1.1727	0.547555	39.3098	0	
1.1733	1.4784	27.3785	0	
1.1740	3.28533	21.6146	0	
1.1747	2.68302	12.45	0	
1.1753	0.273778	6.0521	0	
1.1760	-0.985599	6.0521	0	
1.1767	-0.328533	4.49584	0	
1.1773	-0.328533	1.44098	0	
1.1780	-3.12106	2.3632	0	
1.1787	-5.85884	3.91945	0	
1.1793	-5.53031	3.57362	0	
1.1800	-5.85884	3.91945	0	
1.1807	-8.26808	2.6514	0	
1.1813	-7.99431	0.518751	0	
1.1820	-5.25653	-0.057639	0	
1.1827	-6.73493	1.44098	0	
1.1833	-10.7321	3.91945	0	
1.1840	-8.59662	6.91668	0	
1.1847	-5.85884	7.83891	0	
1.1853	-8.59662	4.49584	0	
1.1860	-8.59662	-1.26806	0	
1.1867	-2.464	-6.80141	0	
1.1873	-0.328533	-9.22224	0	
1.1880	-2.19022	-8.93405	0	
1.1887	-0.985599	-8.64585	0	
1.1893	-0.328533	-8.01183	0	
1.1900	-0.0547555	-10.1445	0	
1.1907	3.9424	-16.8882	0	
1.1913	4.81849	-22.9403	0	
1.1920	0.547555	-26.9174	0	
1.1927	-0.0547555	-41.5577	0	
1.1933	2.40924	-66.2849	0	
1.1940	1.4784	-75.1613	0	
1.1947	1.4784	-55.9099	0	
1.1953	3.9424	-32.739	0	
1.1960	4.21617	-24.2084	0	
1.1967	1.80693	-18.0987	0	
1.1973	-0.328533	-5.87918	0	
1.1980	0.547555	1.15278	0	
1.1987	0.876088	-0.403473	0	
1.1993	-3.12106	-3.11251	0	
1.2000	-5.25653	-9.85627	0	
1.2007	-2.79253	-18.0987	0	
1.2013	-2.464	-15.0438	0	
1.2020	-3.99715	-7.3778	0	
1.2027	-0.985599	-12.2771	0	
1.2033	0.547555	-24.7848	0	
1.2040	-2.19022	-19.8855	0	
1.2047	-1.25938	10.8938	0	
1.2053	0.273778	45.0737	0	
1.2060	-1.58791	49.0508	0	
1.2067	-0.985599	26.1681	0	
1.2073	1.4784	10.8938	0	
1.2080	1.4784	11.816	0	
1.2087	3.28533	13.9486	0	
1.2093	4.54471	15.7931	0	
1.2100	2.40924	19.7702	0	
1.2107	3.01155	20.0584	0	
1.2113	4.81849	15.7931	0	
1.2120	3.01155	10.3174	0	
1.2127	1.80693	6.0521	0	
1.2133	4.21617	4.49584	0	
1.2140	4.21617	2.99723	0	
1.2147	2.40924	1.44098	0	
1.2153	2.68302	2.99723	0	
1.2160	3.61386	5.12987	0	
1.2167	4.21617	5.70626	0	
1.2173	3.28533	4.20765	0	
1.2180	0.876088	-1.61389	0	
1.2187	-0.985599	-7.72363	0	
1.2193	-0.657066	-8.64585	0	
1.2200	-1.25938	-8.30002	0	
1.2207	-2.79253	-7.72363	0	
1.2213	-2.19022	-5.24515	0	
1.2220	-1.58791	-4.95696	0	
1.2227	-3.12106	-6.45557	0	
1.2233	-4.59946	-7.72363	0	
1.2240	-4.32569	-8.64585	0	
1.2247	-4.59946	-7.72363	0	
1.2253	-5.53031	-7.3778	0	
1.2260	-3.12106	-8.64585	0	
1.2267	0.547555	-4.66876	0	
1.2273	0.547555	3.57362	0	
1.2280	-0.657066	6.34029	0	
1.2287	1.14987	10.6056	0	
1.2293	3.28533	22.8251	0	
1.2300	2.08071	30.4334	0	
1.2307	1.4784	26.1681	0	
1.2313	2.08071	18.848	0	
1.2320	3.61386	12.7382	0	
1.2327	4.81849	11.5278	0	
1.2333	3.28533	13.9486	0	
1.2340	2.40924	11.5278	0	
1.2347	4.81849	6.34029	0	
1.2353	6.07786	5.70626	0	
1.2360	4.21617	5.70626	0	
1.2367	4.81849	3.57362	0	
1.2373	6.68017	3.28542	0	
1.2380	4.21617	-0.403473	0	
1.2387	-1.25938	-9.85627	0	
1.2393	-3.39484	-14.698	0	
1.2400	-1.25938	-13.1993	0	
1.2407	-0.328533	-11.0667	0	
1.2413	-3.12106	-6.80141	0	
1.2420	-4.32569	-0.057639	0	
1.2427	-2.19022	4.49584	0	
1.2433	-1.86169	5.41807	0	
1.2440	-3.99715	3.28542	0	
1.2447	-3.12106	-0.403473	0	
1.2453	-1.58791	-0.403473	0	
1.2460	-1.86169	2.3632	0	
1.2467	-0.657066	0.518751	0	
1.2473	0.547555	-3.11251	0	
1.2480	-0.985599	-8.64585	0	
1.2487	-1.86169	-19.3091	0	
1.2493	0.547555	-28.7619	0	
1.2500	2.68302	-33.9494	0	
1.2507	2.68302	-44.6126	0	
1.2513	2.40924	-53.489	0	
1.2520	2.40924	-49.2237	0	
1.2527	2.40924	-44.0362	0	
1.2533	2.40924	-35.1598	0	
1.2540	1.4784	0.864585	0	
1.2547	1.4784	44.4973	0	
1.2553	1.14987	55.4487	0	
1.2560	-0.0547555	44.4973	0	
1.2567	-0.0547555	40.8084	0	
1.2573	-0.657066	40.8084	0	
1.2580	-3.12106	31.9897	0	
1.2587	-2.19022	17.9257	0	
1.2593	1.14987	16.0813	0	
1.2600	-0.0547555	28.3008	0	
1.2607	-3.99715	33.7765	0	
1.2613	-5.85884	24.3237	0	
1.2620	-7.06346	15.1591	0	
1.2627	-7.99431	9.97155	0	
1.2633	-6.73493	3.28542	0	
1.2640	-5.25653	-4.03473	0	
1.2647	-5.53031	-18.0987	0	
1.2653	-5.25653	-35.1598	0	
1.2660	-3.99715	-36.3702	0	
1.2667	-3.99715	-24.2084	0	
1.2673	-2.464	-13.4875	0	
1.2680	1.4784	-4.66876	0	
1.2687	3.01155	-0.403473	0	
1.2693	3.61386	-2.19028	0	
1.2700	7.28248	-0.691668	0	
1.2707	7.61102	2.6514	0	
1.2713	3.01155	-1.26806	0	
1.2720	3.28533	-4.03473	0	
1.2727	7.28248	-1.26806	0	
1.2733	6.95395	-4.95696	0	
1.2740	3.28533	-10.4327	0	
1.2747	2.40924	-9.85627	0	
1.2753	2.08071	-9.22224	0	
1.2760	1.4784	-9.51044	0	
1.2767	2.08071	-6.45557	0	
1.2773	2.68302	-4.66876	0	
1.2780	3.01155	-6.80141	0	
1.2787	0.547555	-6.16738	0	
1.2793	-3.99715	-1.90209	0	
1.2800	-4.32569	2.3632	0	
1.2807	-2.19022	7.55071	0	
1.2813	-2.79253	12.7382	0	
1.2820	-4.32569	13.3723	0	
1.2827	-3.99715	10.3174	0	
1.2833	-2.464	4.78404	0	
1.2840	-2.79253	-3.11251	0	
1.2847	-4.928	-5.87918	0	
1.2853	-4.928	-2.53612	0	
1.2860	-1.25938	-2.53612	0	
1.2867	-0.657066	-7.0896	0	
1.2873	-2.79253	-8.64585	0	
1.2880	-2.19022	-6.80141	0	
1.2887	-0.328533	-4.95696	0	
1.2893	0.876088	-2.82431	0	
1.2900	3.61386	-2.19028	0	
1.2907	6.07786	-2.53612	0	
1.2913	5.14702	-1.26806	0	
1.2920	4.21617	0.864585	0	
1.2927	5.74933	0.518751	0	
1.2933	7.61102	0.518751	0	
1.2940	6.35164	2.6514	0	
1.2947	4.54471	4.20765	0	
1.2953	5.14702	2.6514	0	
1.2960	4.21617	-0.979863	0	
1.2967	1.14987	-3.11251	0	
1.2973	1.14987	-2.19028	0	
1.2980	2.40924	-0.403473	0	
1.2987	-0.985599	0.230556	0	
1.2993	-3.39484	-0.057639	0	
1.3000	-3.12106	-0.403473	0	
1.3007	-3.99715	-0.403473	0	
1.3013	-4.32569	-1.26806	0	
1.3020	-3.12106	-1.26806	0	
1.3027	-3.12106	-0.057639	0	
1.3033	-3.12106	0.864585	0	
1.3040	-3.39484	-1.26806	0	
1.3047	-4.928	-5.59099	0	
1.3053	-3.72338	-8.64585	0	
1.3060	-0.985599	-11.3549	0	
1.3067	-2.19022	-15.332	0	
1.3073	-3.72338	-20.5195	0	
1.3080	-1.25938	-23.5744	0	
1.3087	1.4784	-25.073	0	
1.3093	2.40924	-25.707	0	
1.3100	2.40924	-22.0757	0	
1.3107	1.4784	-9.22224	0	
1.3113	2.68302	15.1591	0	
1.3120	3.9424	42.3647	0	
1.3127	4.21617	55.4487	0	
1.3133	6.07786	46.63	0	
1.3140	7.88479	32.2779	0	
1.3147	5.74933	26.1681	0	
1.3153	4.21617	22.5369	0	
1.3160	5.74933	17.0035	0	
1.3167	5.14702	15.5049	0	
1.3173	4.21617	15.1591	0	
1.3180	3.9424	11.5278	0	
1.3187	1.4784	9.10697	0	
1.3193	-0.328533	9.68336	0	
1.3200	1.80693	8.76113	0	
1.3207	1.4784	6.34029	0	
1.3213	-2.19022	4.20765	0	
1.3220	-4.32569	2.3632	0	
1.3227	-5.25653	-3.11251	0	
1.3233	-6.46115	-14.1216	0	
1.3240	-4.928	-22.0757	0	
1.3247	-3.39484	-19.8855	0	
1.3253	-6.46115	-19.3091	0	
1.3260	-7.66577	-25.9952	0	
1.3267	-3.12106	-27.5515	0	
1.3273	-0.657066	-22.3639	0	
1.3280	-2.464	-20.5195	0	
1.3287	-2.19022	-18.675	0	
1.3293	-0.328533	-14.4098	0	
1.3300	0.547555	-13.1993	0	
1.3307	-1.25938	-14.1216	0	
1.3313	-1.25938	-13.1993	0	
1.3320	3.01155	-17.4646	0	
1.3327	5.4208	-32.739	0	
1.3333	1.80693	-47.6675	0	
1.3340	0.273778	-54.4112	0	
1.3347	4.21617	-61.0974	0	
1.3353	4.21617	-59.887	0	
1.3360	1.4784	-23.8626	0	
1.3367	1.4784	38.3876	0	
1.3373	1.4784	82.0203	0	
1.3380	2.08071	88.1301	0	
1.3387	4.81849	74.412	0	
1.3393	3.01155	57.2932	0	
1.3400	-2.464	43.5751	0	
1.3407	-2.19022	35.3327	0	
1.3413	0.273778	30.7216	0	
1.3420	-1.58791	30.4334	0	
1.3427	-3.39484	30.7216	0	
1.3433	-1.86169	28.0126	0	
1.3440	-0.657066	24.3237	0	
1.3447	-1.86169	22.5369	0	
1.3453	-3.99715	21.9028	0	
1.3460	-4.59946	20.3466	0	
1.3467	-3.12106	16.7153	0	
1.3473	0.273778	9.68336	0	
1.3480	0.876088	-0.979863	0	
1.3487	-1.25938	-8.64585	0	
1.3493	-1.25938	-8.64585	0	
1.3500	2.40924	-8.30002	0	
1.3507	3.28533	-20.8077	0	
1.3513	2.40924	-48.3015	0	
1.3520	2.40924	-71.1842	0	
1.3527	1.14987	-65.3627	0	
1.3533	0.547555	-34.8716	0	
1.3540	2.40924	-10.1445	0	
1.3547	3.28533	-3.45834	0	
1.3553	0.876088	-2.19028	0	
1.3560	-0.328533	-0.691668	0	
1.3567	-1.58791	-2.82431	0	
1.3573	-2.464	-5.59099	0	
1.3580	-2.19022	-0.057639	0	
1.3587	-2.19022	14.8709	0	
1.3593	-3.72338	29.5112	0	
1.3600	-2.464	31.6438	0	
1.3607	-1.25938	21.6146	0	
1.3613	-2.19022	8.18474	0	
1.3620	-3.12106	-3.11251	0	
1.3627	-3.99715	-8.93405	0	
1.3633	-3.99715	-9.22224	0	
1.3640	-3.12106	-10.4327	0	
1.3647	-3.12106	-11.6431	0	
1.3653	-3.99715	-9.51044	0	
1.3660	-1.86169	-8.64585	0	
1.3667	1.4784	-11.0667	0	
1.3673	1.80693	-10.1445	0	
1.3680	1.80693	-6.45557	0	
1.3687	2.68302	-5.87918	0	
1.3693	2.40924	-4.03473	0	
1.3700	1.4784	-0.691668	0	
1.3707	3.01155	0.518751	0	
1.3713	5.14702	-1.61389	0	
1.3720	6.35164	-7.3778	0	
1.3727	6.35164	-9.85627	0	
1.3733	5.14702	-2.53612	0	
1.3740	3.9424	6.0521	0	
1.3747	3.01155	7.83891	0	
1.3753	2.68302	5.12987	0	
1.3760	3.9424	0.518751	0	
1.3767	5.14702	-3.11251	0	
1.3773	3.28533	-0.979863	0	
1.3780	0.547555	1.44098	0	
1.3787	-1.25938	0.518751	0	
1.3793	-2.464	2.99723	0	
1.3800	-1.86169	6.34029	0	
1.3807	-0.328533	4.20765	0	
1.3813	-1.25938	1.44098	0	
1.3820	-2.79253	3.28542	0	
1.3827	-2.19022	3.28542	0	
1.3833	-2.464	-3.74654	0	
1.3840	-3.72338	-11.0667	0	
1.3847	-3.99715	-10.1445	0	
1.3853	-3.99715	-3.74654	0	
1.3860	-3.12106	-0.057639	0	
1.3867	-1.25938	0.518751	0	
1.3873	-1.86169	-0.403473	0	
1.3880	-0.328533	-0.691668	0	
1.3887	3.01155	1.44098	0	
1.3893	1.80693	3.91945	0	
1.3900	0.547555	3.28542	0	
1.3907	3.28533	3.28542	0	
1.3913	3.28533	3.57362	0	
1.3920	2.40924	4.49584	0	
1.3927	4.54471	7.55071	0	
1.3933	5.14702	10.6056	0	
1.3940	3.28533	11.816	0	
1.3947	3.61386	12.45	0	
1.3953	3.28533	10.8938	0	
1.3960	3.28533	6.34029	0	
1.3967	4.21617	2.3632	0	
1.3973	1.4784	0.230556	0	
1.3980	-2.19022	-0.403473	0	
1.3987	-1.25938	-0.403473	0	
1.3993	-1.58791	-4.03473	0	
1.4000	-5.85884	-9.22224	0	
1.4007	-7.39199	-11.3549	0	
1.4013	-6.46115	-15.0438	0	
1.4020	-4.928	-20.5195	0	
1.4027	-2.19022	-20.8077	0	
1.4033	-0.328533	-17.4646	0	
1.4040	-2.79253	-15.966	0	
1.4047	-4.928	-16.2542	0	
1.4053	-4.32569	-16.2542	0	
1.4060	-4.32569	-15.6202	0	
1.4067	-5.53031	-15.0438	0	
1.4073	-4.32569	-15.0438	0	
1.4080	-0.657066	-13.1993	0	
1.4087	2.40924	-9.85627	0	
1.4093	3.28533	-10.1445	0	
1.4100	-0.328533	-10.4327	0	
1.4107	-2.464	-8.93405	0	
1.4113	1.14987	-9.51044	0	
1.4120	4.21617	-11.9889	0	
1.4127	1.80693	-11.6431	0	
1.4133	0.547555	-8.64585	0	
1.4140	2.08071	-1.61389	0	
1.4147	3.61386	2.07501	0	
1.4153	4.21617	-7.72363	0	
1.4160	2.08071	-16.8882	0	
1.4167	-1.86169	-0.979863	0	
1.4173	-1.25938	30.7216	0	
1.4180	0.876088	47.5522	0	
1.4187	-0.328533	41.7307	0	
1.4193	-0.985599	26.8021	0	
1.4200	-0.0547555	16.7153	0	
1.4207	-2.19022	14.2945	0	
1.4213	-4.928	14.2945	0	
1.4220	-3.72338	17.0035	0	
1.4227	-1.86169	24.3237	0	
1.4233	-2.19022	25.5341	0	
1.4240	-3.39484	17.6375	0	
1.4247	-3.39484	12.45	0	
1.4253	-0.985599	9.68336	0	
1.4260	-0.0547555	-0.979863	0	
1.4267	-1.25938	-10.7785	0	
1.4273	-1.25938	-17.1764	0	
1.4280	-0.985599	-25.707	0	
1.4287	-1.86169	-29.9723	0	
1.4293	0.273778	-31.8167	0	
1.4300	3.01155	-37.0043	0	
1.4307	3.01155	-26.341	0	
1.4313	3.28533	13.0264	0	
1.4320	4.54471	53.9501	0	
1.4327	3.9424	67.6682	0	
1.4333	3.9424	58.5036	0	
1.4340	4.21617	42.6529	0	
1.4347	3.28533	29.223	0	
1.4353	5.14702	21.2688	0	
1.4360	6.07786	17.2917	0	
1.4367	2.08071	13.6604	0	
1.4373	-0.0547555	9.39516	0	
1.4380	1.80693	6.91668	0	
1.4387	0.876088	8.76113	0	
1.4393	-1.25938	9.97155	0	
1.4400	-1.25938	7.83891	0	
1.4407	-3.39484	5.70626	0	
1.4413	-6.73493	7.83891	0	
1.4420	-6.13262	12.7382	0	
1.4427	-5.25653	15.1591	0	
1.4433	-5.85884	13.3723	0	
1.4440	-4.928	4.20765	0	
1.4447	-5.85884	-15.6202	0	
1.4453	-7.39199	-35.7938	0	
1.4460	-3.99715	-37.2925	0	
1.4467	-0.985599	-26.341	0	
1.4473	-3.12106	-24.2084	0	
1.4480	-2.79253	-30.2605	0	
1.4487	0.547555	-30.8945	0	
1.4493	-0.0547555	-31.1827	0	
1.4500	-0.328533	-39.1369	0	
1.4507	2.68302	-44.3244	0	
1.4513	3.9424	-36.082	0	
1.4520	2.40924	-25.9952	0	
1.4527	3.28533	-26.6292	0	
1.4533	5.4208	-24.2084	0	
1.4540	4.21617	-2.82431	0	
1.4547	1.80693	20.9806	0	
1.4553	2.40924	17.6375	0	
1.4560	4.21617	-4.03473	0	
1.4567	3.01155	-9.51044	0	
1.4573	3.01155	3.91945	0	
1.4580	5.14702	12.45	0	
1.4587	2.40924	11.2396	0	
1.4593	-2.464	12.7382	0	
1.4600	-2.19022	14.8709	0	
1.4607	-0.657066	10.3174	0	
1.4613	-1.58791	5.70626	0	
1.4620	-1.86169	2.99723	0	
1.4627	-1.25938	-1.90209	0	
1.4633	-2.19022	-4.03473	0	
1.4640	-1.58791	-1.61389	0	
1.4647	-0.657066	0.518751	0	
1.4653	-1.25938	6.62849	0	
1.4660	-3.12106	16.7153	0	
1.4667	-4.59946	18.848	0	
1.4673	-2.464	15.1591	0	
1.4680	0.876088	13.3723	0	
1.4687	1.14987	10.6056	0	
1.4693	0.876088	6.0521	0	
1.4700	3.28533	4.49584	0	
1.4707	5.74933	4.49584	0	
1.4713	5.74933	3.57362	0	
1.4720	5.14702	3.57362	0	
1.4727	4.21617	1.72917	0	
1.4733	6.95395	-0.403473	0	
1.4740	9.08942	-0.691668	0	
1.4747	6.95395	-1.26806	0	
1.4753	4.21617	-3.45834	0	
1.4760	3.9424	-3.74654	0	
1.4767	2.08071	-4.03473	0	
1.4773	-0.0547555	-6.45557	0	
1.4780	1.14987	-8.30002	0	
1.4787	1.4784	-8.01183	0	
1.4793	-0.657066	-6.80141	0	
1.4800	-2.19022	-4.66876	0	
1.4807	-3.99715	-3.11251	0	
1.4813	-5.85884	-5.59099	0	
1.4820	-4.928	-8.01183	0	
1.4827	-4.928	-4.03473	0	
1.4833	-6.73493	4.20765	0	
1.4840	-5.85884	6.0521	0	
1.4847	-4.928	0.864585	0	
1.4853	-6.13262	-3.11251	0	
1.4860	-3.12106	-2.19028	0	
1.4867	0.876088	1.15278	0	
1.4873	-1.86169	5.41807	0	
1.4880	-3.39484	10.6056	0	
1.4887	-0.328533	13.9486	0	
1.4893	1.4784	11.2396	0	
1.4900	2.68302	6.0521	0	
1.4907	3.9424	1.44098	0	
1.4913	1.80693	-3.11251	0	
1.4920	1.80693	-8.30002	0	
1.4927	5.14702	-10.4327	0	
1.4933	3.61386	-6.16738	0	
1.4940	0.547555	6.34029	0	
1.4947	0.273778	15.1591	0	
1.4953	-0.0547555	11.816	0	
1.4960	-0.328533	5.70626	0	
1.4967	1.4784	0.518751	0	
1.4973	1.14987	-7.72363	0	
1.4980	-1.86169	-11.3549	0	
1.4987	-3.12106	-8.93405	0	
1.4993	-3.72338	-12.2771	0	
1.5000	-3.39484	-19.5973	0	
1.5007	-3.39484	-19.3091	0	
1.5013	-4.59946	-22.3639	0	
1.5020	-4.928	-31.8167	0	
1.5027	-3.72338	-31.5285	0	
1.5033	-4.32569	-23.2862	0	
1.5040	-5.85884	-19.0209	0	
1.5047	-4.928	-18.675	0	
1.5053	-3.39484	-25.073	0	
1.5060	-3.12106	-29.6841	0	
1.5067	-3.12106	-10.1445	0	
1.5073	-2.79253	26.1681	0	
1.5080	-0.657066	45.4196	0	
1.5087	2.40924	38.3876	0	
1.5093	3.9424	16.0813	0	
1.5100	3.01155	-5.59099	0	
1.5107	2.40924	-1.26806	0	
1.5113	3.61386	31.6438	0	
1.5120	3.28533	55.1606	0	
1.5127	2.40924	49.0508	0	
1.5133	3.28533	29.857	0	
1.5140	5.14702	15.5049	0	
1.5147	3.28533	7.55071	0	
1.5153	1.80693	2.3632	0	
1.5160	3.01155	0.518751	0	
1.5167	3.28533	1.72917	0	
1.5173	1.4784	2.3632	0	
1.5180	-0.0547555	3.57362	0	
1.5187	-0.0547555	5.70626	0	
1.5193	-0.328533	5.12987	0	
1.5200	-0.0547555	3.28542	0	
1.5207	-0.328533	3.57362	0	
1.5213	-3.39484	2.99723	0	
1.5220	-4.928	-0.057639	0	
1.5227	-3.72338	-2.19028	0	
1.5233	-5.25653	-6.80141	0	
1.5240	-6.73493	-17.4646	0	
1.5247	-3.39484	-34.2376	0	
1.5253	-1.25938	-45.2466	0	
1.5260	-2.79253	-32.4508	0	
1.5267	-1.25938	-1.26806	0	
1.5273	1.80693	17.6375	0	
1.5280	2.40924	14.2945	0	
1.5287	1.80693	6.34029	0	
1.5293	1.80693	1.72917	0	
1.5300	3.28533	-1.26806	0	
1.5307	5.14702	-0.691668	0	
1.5313	5.4208	-0.403473	0	
1.5320	4.54471	-2.19028	0	
1.5327	5.14702	-0.979863	0	
1.5333	6.07786	-0.403473	0	
1.5340	5.14702	-2.82431	0	
1.5347	4.21617	-5.24515	0	
1.5353	2.68302	-8.01183	0	
1.5360	1.14987	-11.3549	0	
1.5367	-0.0547555	-11.3549	0	
1.5373	-0.985599	-10.4327	0	
1.5380	-1.58791	-12.9111	0	
1.5387	-2.19022	-14.1216	0	
1.5393	-3.72338	-13.1993	0	
1.5400	-4.928	-13.1993	0	
1.5407	-3.99715	-12.2771	0	
1.5413	-3.12106	-9.51044	0	
1.5420	-4.928	-6.80141	0	
1.5427	-7.66577	-3.11251	0	
1.5433	-5.85884	2.3632	0	
1.5440	-1.86169	6.0521	0	
1.5447	-2.19022	8.18474	0	
1.5453	-2.19022	9.68336	0	
1.5460	1.4784	9.39516	0	
1.5467	2.40924	5.70626	0	
1.5473	-1.25938	1.72917	0	
1.5480	-0.328533	1.72917	0	
1.5487	3.28533	9.10697	0	
1.5493	3.28533	17.6375	0	
1.5500	3.01155	17.0035	0	
1.5507	5.74933	10.6056	0	
1.5513	6.07786	9.10697	0	
1.5520	4.81849	8.47294	0	
1.5527	5.14702	4.20765	0	
1.5533	4.54471	1.15278	0	
1.5540	3.28533	0.518751	0	
1.5547	3.28533	-1.26806	0	
1.5553	1.80693	-4.66876	0	
1.5560	1.4784	-8.01183	0	
1.5567	4.21617	-8.64585	0	
1.5573	3.9424	-2.19028	0	
1.5580	0.273778	6.0521	0	
1.5587	-1.58791	8.47294	0	
1.5593	-3.39484	6.34029	0	
1.5600	-4.928	6.34029	0	
1.5607	-3.12106	6.0521	0	
1.5613	-1.86169	3.28542	0	
1.5620	-4.59946	2.07501	0	
1.5627	-5.53031	4.20765	0	
1.5633	-3.12106	3.28542	0	
1.5640	-1.25938	0.518751	0	
1.5647	-1.25938	2.3632	0	
1.5653	-0.328533	5.12987	0	
1.5660	0.273778	3.28542	0	
1.5667	0.273778	1.72917	0	
1.5673	-0.657066	1.72917	0	
1.5680	-2.19022	0.518751	0	
1.5687	-2.464	-0.979863	0	
1.5693	0.876088	-0.979863	0	
1.5700	4.21617	-1.26806	0	
1.5707	3.01155	1.44098	0	
1.5713	1.4784	3.57362	0	
1.5720	3.28533	-2.19028	0	
1.5727	4.81849	-9.22224	0	
1.5733	2.40924	-9.51044	0	
1.5740	1.4784	-9.51044	0	
1.5747	3.28533	-10.4327	0	
1.5753	4.21617	-10.4327	0	
1.5760	0.876088	-10.7785	0	
1.5767	-1.25938	-10.1445	0	
1.5773	0.273778	-4.95696	0	
1.5780	0.273778	-0.979863	0	
1.5787	-0.985599	0.864585	0	
1.5793	-1.25938	0.518751	0	
1.5800	-3.12106	0.230556	0	
1.5807	-3.12106	2.3632	0	
1.5813	0.547555	-0.691668	0	
1.5820	0.273778	-9.22224	0	
1.5827	-2.79253	-4.03473	0	
1.5833	-1.25938	13.0264	0	
1.5840	-0.985599	15.1591	0	
1.5847	-4.32569	2.07501	0	
1.5853	-2.19022	-8.64585	0	
1.5860	0.876088	-13.1993	0	
1.5867	-2.79253	-10.7785	0	
1.5873	-4.59946	-4.03473	0	
1.5880	0.547555	-5.59099	0	
1.5887	2.68302	-12.2771	0	
1.5893	1.14987	-12.9111	0	
1.5900	1.80693	-9.85627	0	
1.5907	3.9424	-10.4327	0	
1.5913	2.68302	-19.5973	0	
1.5920	1.4784	-31.1827	0	
1.5927	2.40924	-25.707	0	
1.5933	2.40924	4.78404	0	
1.5940	2.40924	41.4425	0	
1.5947	5.14702	60.9821	0	
1.5953	4.54471	58.8494	0	
1.5960	0.547555	39.3098	0	
1.5967	-0.0547555	11.816	0	
1.5973	-0.328533	-6.80141	0	
1.5980	-3.72338	3.28542	0	
1.5987	-4.59946	35.3327	0	
1.5993	-3.39484	50.8953	0	
1.6000	-6.13262	33.4883	0	
1.6007	-8.26808	13.9486	0	
1.6013	-6.46115	9.97155	0	
1.6020	-7.06346	7.83891	0	
1.6027	-7.99431	4.20765	0	
1.6033	-5.85884	3.57362	0	
1.6040	-4.928	-1.61389	0	
1.6047	-5.85884	-11.6431	0	
1.6053	-3.99715	-14.4098	0	
1.6060	-2.464	-11.6431	0	
1.6067	-1.86169	-12.5653	0	
1.6073	-0.657066	-14.698	0	
1.6080	-0.328533	-16.5424	0	
1.6087	0.547555	-17.7528	0	
1.6093	2.40924	-6.80141	0	
1.6100	2.68302	15.5049	0	
1.6107	2.08071	27.0903	0	
1.6113	4.21617	24.0355	0	
1.6120	5.4208	20.9806	0	
1.6127	2.68302	18.848	0	
1.6133	1.14987	12.1042	0	
1.6140	1.4784	4.20765	0	
1.6147	3.01155	-0.691668	0	
1.6153	5.14702	-2.19028	0	
1.6160	5.74933	-3.11251	0	
1.6167	2.68302	-7.3778	0	
1.6173	0.273778	-11.0667	0	
1.6180	-0.0547555	-10.4327	0	
1.6187	-0.0547555	-9.51044	0	
1.6193	-0.657066	-10.4327	0	
1.6200	-1.58791	-9.51044	0	
1.6207	-1.58791	-6.16738	0	
1.6213	-2.19022	-4.32293	0	
1.6220	-3.12106	-8.01183	0	
1.6227	-4.32569	-13.4875	0	
1.6233	-4.928	-13.1993	0	
1.6240	-4.928	-8.64585	0	
1.6247	-4.928	-6.80141	0	
1.6253	-4.928	-7.3778	0	
1.6260	-5.25653	-9.85627	0	
1.6267	-3.99715	-12.5653	0	
1.6273	-3.12106	-10.4327	0	
1.6280	-3.39484	-8.30002	0	
1.6287	-4.928	-11.3549	0	
1.6293	-3.99715	-13.1993	0	
1.6300	-0.328533	-8.01183	0	
1.6307	1.4784	-0.979863	0	
1.6313	0.547555	3.91945	0	
1.6320	1.80693	3.57362	0	
1.6327	4.21617	-2.19028	0	
1.6333	3.28533	-8.64585	0	
1.6340	1.4784	-11.3549	0	
1.6347	2.40924	-11.3549	0	
1.6353	2.08071	-10.1445	0	
1.6360	-1.25938	-8.93405	0	
1.6367	-2.19022	-8.64585	0	
1.6373	-0.328533	-6.45557	0	
1.6380	0.547555	-4.32293	0	
1.6387	-0.985599	-6.16738	0	
1.6393	-3.12106	-8.64585	0	
1.6400	-3.99715	-9.22224	0	
1.6407	-4.59946	-8.01183	0	
1.6413	-1.86169	-6.16738	0	
1.6420	1.4784	-4.03473	0	
1.6427	-0.657066	-1.90209	0	
1.6433	-3.99715	-0.691668	0	
1.6440	-2.19022	-2.19028	0	
1.6447	0.876088	-3.45834	0	
1.6453	-0.985599	-1.90209	0	
1.6460	-2.79253	1.72917	0	
1.6467	-0.328533	4.49584	0	
1.6473	2.40924	6.0521	0	
1.6480	2.40924	8.18474	0	
1.6487	1.4784	10.8938	0	
1.6493	2.40924	11.5278	0	
1.6500	5.4208	12.45	0	
1.6507	6.95395	14.2945	0	
1.6513	4.81849	10.3174	0	
1.6520	0.876088	3.28542	0	
1.6527	-0.328533	2.99723	0	
1.6533	2.08071	3.57362	0	
1.6540	3.9424	-0.403473	0	
1.6547	3.61386	-2.82431	0	
1.6553	4.54471	-3.45834	0	
1.6560	5.14702	-6.80141	0	
1.6567	2.40924	-8.30002	0	
1.6573	0.547555	-4.95696	0	
1.6580	1.4784	-0.403473	0	
1.6587	0.876088	2.3632	0	
1.6593	-0.328533	1.44098	0	
1.6600	-0.985599	-0.979863	0	
1.6607	-1.86169	0.230556	0	
1.6613	-2.19022	2.3632	0	
1.6620	-2.19022	0.518751	0	
1.6627	-4.928	-0.403473	0	
1.6633	-5.85884	-1.26806	0	
1.6640	-4.32569	-6.45557	0	
1.6647	-6.46115	-10.1445	0	
1.6653	-7.66577	-9.85627	0	
1.6660	-2.79253	-13.1993	0	
1.6667	1.4784	-18.675	0	
1.6673	0.547555	-18.675	0	
1.6680	1.14987	-17.7528	0	
1.6687	1.14987	-19.0209	0	
1.6693	-1.25938	-19.5973	0	
1.6700	-0.328533	-17.7528	0	
1.6707	4.21617	-16.5424	0	
1.6713	4.81849	-9.51044	0	
1.6720	3.28533	6.91668	0	
1.6727	3.28533	21.9028	0	
1.6733	4.21617	24.0355	0	
1.6740	3.01155	20.0584	0	
1.6747	2.40924	19.7702	0	
1.6753	2.40924	18.848	0	
1.6760	0.547555	14.8709	0	
1.6767	-2.79253	9.97155	0	
1.6773	-3.12106	7.26252	0	
1.6780	-0.657066	7.26252	0	
1.6787	-0.657066	8.18474	0	
1.6793	-2.19022	9.97155	0	
1.6800	-1.86169	11.816	0	
1.6807	-1.86169	13.0264	0	
1.6813	-3.72338	14.2945	0	
1.6820	-4.928	14.8709	0	
1.6827	-4.928	8.76113	0	
1.6833	-3.99715	0.518751	0	
1.6840	-3.12106	-4.95696	0	
1.6847	-3.39484	-14.1216	0	
1.6853	-4.32569	-24.4966	0	
1.6860	-4.32569	-23.5744	0	
1.6867	-2.19022	-22.0757	0	
1.6873	0.273778	-22.3639	0	
1.6880	1.4784	-2.19028	0	
1.6887	1.80693	37.1772	0	
1.6893	1.14987	64.3252	0	
1.6900	0.273778	62.4807	0	
1.6907	2.68302	31.0674	0	
1.6913	6.35164	-9.85627	0	
1.6920	5.74933	-28.7619	0	
1.6927	3.61386	-29.3959	0	
1.6933	3.9424	-33.9494	0	
1.6940	4.21617	-35.1598	0	
1.6947	3.61386	-22.6521	0	
1.6953	3.9424	-7.72363	0	
1.6960	3.9424	-0.979863	0	
1.6967	3.28533	-3.11251	0	
1.6973	3.01155	-11.3549	0	
1.6980	0.547555	-18.675	0	
1.6987	-1.58791	-20.2313	0	
1.6993	-0.985599	-19.0209	0	
1.7000	-2.19022	-17.7528	0	
1.7007	-5.25653	-17.4646	0	
1.7013	-5.53031	-11.9889	0	
1.7020	-4.32569	6.0521	0	
1.7027	-4.59946	28.0126	0	
1.7033	-4.32569	32.5661	0	
1.7040	-3.39484	17.6375	0	
1.7047	-3.12106	2.3632	0	
1.7053	-1.25938	8.47294	0	
1.7060	0.547555	37.1772	0	
1.7067	0.876088	63.1147	0	
1.7073	-0.328533	65.5356	0	
1.7080	-1.25938	51.8175	0	
1.7087	-0.657066	35.3327	0	
1.7093	-0.0547555	21.6146	0	
1.7100	0.547555	11.2396	0	
1.7107	1.4784	0.518751	0	
1.7113	3.28533	-12.5653	0	
1.7120	5.4208	-22.0757	0	
1.7127	6.68017	-24.7848	0	
1.7133	6.35164	-25.073	0	
1.7140	7.28248	-22.9403	0	
1.7147	8.81564	-19.3091	0	
1.7153	7.61102	-15.6202	0	
1.7160	5.14702	-11.6431	0	
1.7167	3.28533	-9.22224	0	
1.7173	-0.0547555	-7.72363	0	
1.7180	-1.86169	-5.24515	0	
1.7187	-0.328533	-3.45834	0	
1.7193	-1.25938	-7.3778	0	
1.7200	-3.12106	-10.4327	0	
1.7207	-2.19022	-7.72363	0	
1.7213	-0.657066	-4.32293	0	
1.7220	-1.86169	-4.95696	0	
1.7227	-2.19022	-5.59099	0	
1.7233	-1.58791	-5.24515	0	
1.7240	-3.12106	-4.03473	0	
1.7247	-3.39484	-2.19028	0	
1.7253	-1.58791	-4.66876	0	
1.7260	0.273778	-7.72363	0	
1.7267	2.40924	-2.19028	0	
1.7273	3.61386	6.0521	0	
1.7280	1.80693	5.70626	0	
1.7287	-0.985599	-0.979863	0	
1.7293	0.547555	-3.45834	0	
1.7300	5.4208	0.230556	0	
1.7307	6.95395	4.20765	0	
1.7313	5.14702	3.91945	0	
1.7320	5.14702	-1.26806	0	
1.7327	6.68017	-7.0896	0	
1.7333	5.4208	-11.9889	0	
1.7340	3.61386	-16.8882	0	
1.7347	4.21617	-22.0757	0	
1.7353	4.21617	-25.9952	0	
1.7360	2.68302	-24.4966	0	
1.7367	3.9424	-18.675	0	
1.7373	4.21617	-15.6202	0	
1.7380	2.40924	-16.2542	0	
1.7387	2.68302	-11.6431	0	
1.7393	3.28533	-5.59099	0	
1.7400	-0.328533	-5.24515	0	
1.7407	-3.12106	-5.59099	0	
1.7413	-2.19022	2.6514	0	
1.7420	-3.99715	19.7702	0	
1.7427	-5.25653	40.8084	0	
1.7433	-4.32569	51.8175	0	
1.7440	-3.39484	43.2869	0	
1.7447	-2.19022	28.9348	0	
1.7453	-0.328533	21.6146	0	
1.7460	-1.25938	18.2139	0	
1.7467	-0.0547555	16.4271	0	
1.7473	3.01155	14.2945	0	
1.7480	1.80693	9.68336	0	
1.7487	0.273778	6.91668	0	
1.7493	3.28533	7.26252	0	
1.7500	4.21617	6.91668	0	
1.7507	2.40924	8.47294	0	
1.7513	4.21617	9.68336	0	
1.7520	6.68017	5.12987	0	
1.7527	5.74933	1.72917	0	
1.7533	5.14702	4.78404	0	
1.7540	3.28533	6.0521	0	
1.7547	0.547555	3.91945	0	
1.7553	2.40924	2.6514	0	
1.7560	5.14702	1.72917	0	
1.7567	1.80693	0.518751	0	
1.7573	-2.19022	-0.403473	0	
1.7580	-1.58791	-2.82431	0	
1.7587	-0.657066	-6.16738	0	
1.7593	-1.86169	-6.16738	0	
1.7600	-3.12106	-4.95696	0	
1.7607	-3.99715	-6.16738	0	
1.7613	-3.99715	-8.30002	0	
1.7620	-4.928	-8.01183	0	
1.7627	-5.53031	-6.16738	0	
1.7633	-4.928	-5.87918	0	
1.7640	-5.25653	-4.95696	0	
1.7647	-6.73493	-2.53612	0	
1.7653	-6.73493	-3.11251	0	
1.7660	-6.13262	-4.03473	0	
1.7667	-4.928	-1.61389	0	
1.7673	-1.86169	-1.26806	0	
1.7680	-0.328533	-5.87918	0	
1.7687	-1.25938	-8.30002	0	
1.7693	-0.657066	-8.93405	0	
1.7700	2.08071	-12.2771	0	
1.7707	3.28533	-13.8334	0	
1.7713	2.40924	-12.2771	0	
1.7720	1.80693	-11.6431	0	
1.7727	3.28533	-11.6431	0	
1.7733	6.35164	-9.85627	0	
1.7740	5.74933	-10.4327	0	
1.7747	1.80693	-15.332	0	
1.7753	0.547555	-21.4417	0	
1.7760	1.4784	-21.4417	0	
1.7767	0.547555	-21.4417	0	
1.7773	-1.86169	-21.4417	0	
1.7780	-3.12106	-21.4417	0	
1.7787	-3.39484	-21.4417	0	
1.7793	-4.32569	-21.4417	0	
1.7800	-6.13262	-21.4417	0	
1.7807	-7.06346	-21.4417	0	
1.7813	-7.66577	-21.4417	0	
1.7820	-8.59662	-21.4417	0	
1.7827	-6.73493	-21.4417	0	
1.7833	-3.39484	-21.4417	0	
1.7840	-3.99715	-21.4417	0	
1.7847	-5.85884	-21.4417	0	
1.7853	-4.32569	-21.4417	0	
1.7860	-2.79253	-21.4417	0	
1.7867	-0.328533	-21.4417	0	
1.7873	2.08071	-21.4417	0	
1.7880	1.14987	1.44098	0	
1.7887	-0.328533	-0.691668	0	
1.7893	1.4784	-3.11251	0	
1.7900	3.28533	-6.45557	0	
1.7907	3.01155	-10.7785	0	
1.7913	2.68302	-18.675	0	
1.7920	1.4784	-22.9403	0	
1.7927	2.40924	-16.5424	0	
1.7933	6.07786	-10.4327	0	
1.7940	5.14702	-24.2084	0	
1.7947	1.4784	-47.6675	0	
1.7953	3.01155	-46.4571	0	
1.7960	6.35164	-11.0667	0	
1.7967	4.21617	28.0126	0	
1.7973	0.547555	48.7626	0	
1.7980	-0.0547555	54.2383	0	
1.7987	-1.86169	46.2841	0	
1.7993	-3.72338	29.223	0	
1.8000	-3.12106	14.8709	0	
1.8007	-3.39484	6.91668	0	
1.8013	-5.25653	3.57362	0	
1.8020	-4.928	5.70626	0	
1.8027	-3.99715	5.70626	0	
1.8033	-3.12106	-0.979863	0	
1.8040	-2.19022	-3.11251	0	
1.8047	-2.464	0.864585	0	
1.8053	-4.928	1.15278	0	
1.8060	-4.928	-0.691668	0	
1.8067	0.273778	-0.057639	0	
1.8073	3.28533	0.230556	0	
1.8080	1.80693	0.518751	0	
1.8087	1.4784	2.3632	0	
1.8093	2.68302	-0.403473	0	
1.8100	2.40924	-4.03473	0	
1.8107	3.28533	-2.19028	0	
1.8113	5.74933	-2.19028	0	
1.8120	4.81849	-4.03473	0	
1.8127	5.14702	-2.82431	0	
1.8133	7.61102	-3.45834	0	
1.8140	6.07786	-8.64585	0	
1.8147	3.01155	-10.4327	0	
1.8153	3.28533	-9.22224	0	
1.8160	2.40924	-10.4327	0	
1.8167	-0.328533	-9.51044	0	
1.8173	0.273778	-5.87918	0	
1.8180	-0.0547555	-5.24515	0	
1.8187	-2.464	-7.3778	0	
1.8193	-3.72338	-8.93405	0	
1.8200	-3.12106	-9.51044	0	
1.8207	-2.464	-8.64585	0	
1.8213	-3.12106	-6.45557	0	
1.8220	-3.72338	-4.32293	0	
1.8227	-2.464	-3.11251	0	
1.8233	-2.19022	-2.19028	0	
1.8240	-4.32569	0.230556	0	
1.8247	-5.53031	6.34029	0	
1.8253	-2.464	12.1042	0	
1.8260	0.547555	14.2945	0	
1.8267	0.273778	12.1042	0	
1.8273	-0.657066	6.34029	0	
1.8280	-0.985599	2.99723	0	
1.8287	0.273778	5.70626	0	
1.8293	2.40924	5.12987	0	
1.8300	3.61386	-2.19028	0	
1.8307	2.40924	-5.24515	0	
1.8313	3.28533	-4.03473	0	
1.8320	6.95395	-5.59099	0	
1.8327	7.88479	-3.45834	0	
1.8333	4.54471	2.6514	0	
1.8340	3.28533	3.91945	0	
1.8347	3.28533	2.99723	0	
1.8353	1.14987	6.62849	0	
1.8360	0.547555	13.9486	0	
1.8367	1.80693	27.3785	0	
1.8373	-0.328533	40.8084	0	
1.8380	-1.86169	39.3098	0	
1.8387	-0.985599	27.7244	0	
1.8393	-2.79253	17.9257	0	
1.8400	-5.25653	13.0264	0	
1.8407	-3.12106	8.18474	0	
1.8413	-0.985599	-7.0896	0	
1.8420	-1.25938	-32.4508	0	
1.8427	-1.58791	-45.5348	0	
1.8433	-2.19022	-38.8487	0	
1.8440	-3.39484	-30.2605	0	
1.8447	-3.39484	-26.6292	0	
1.8453	-5.25653	-24.2084	0	
1.8460	-7.06346	-23.2862	0	
1.8467	-4.59946	-17.7528	0	
1.8473	-1.86169	-8.01183	0	
1.8480	-0.985599	-4.03473	0	
1.8487	1.14987	-5.87918	0	
1.8493	2.40924	-8.01183	0	
1.8500	0.547555	-9.51044	0	
1.8507	0.273778	-9.85627	0	
1.8513	1.4784	-11.0667	0	
1.8520	2.08071	-14.698	0	
1.8527	2.68302	-15.966	0	
1.8533	3.28533	-15.332	0	
1.8540	0.547555	-19.0209	0	
1.8547	-2.19022	-24.2084	0	
1.8553	-1.25938	-24.2084	0	
1.8560	0.876088	-20.5195	0	
1.8567	0.547555	-17.7528	0	
1.8573	0.876088	-15.966	0	
1.8580	2.68302	-15.0438	0	
1.8587	1.4784	-18.3869	0	
1.8593	-1.58791	-21.4417	0	
1.8600	-1.58791	-14.4098	0	
1.8607	-1.25938	-4.32293	0	
1.8613	-3.39484	-4.03473	0	
1.8620	-3.72338	-5.87918	0	
1.8627	-2.19022	-5.87918	0	
1.8633	-2.79253	-11.6431	0	
1.8640	-4.928	-8.01183	0	
1.8647	-4.32569	25.2459	0	
1.8653	-3.12106	64.3252	0	
1.8660	-3.99715	77.121	0	
1.8667	-3.99715	64.9015	0	
1.8673	-0.328533	43.5751	0	
1.8680	2.40924	28.9348	0	
1.8687	2.08071	22.191	0	
1.8693	3.28533	20.3466	0	
1.8700	5.14702	33.2001	0	
1.8707	4.81849	56.371	0	
1.8713	5.74933	59.714	0	
1.8720	7.61102	41.7307	0	
1.8727	5.4208	29.223	0	
1.8733	1.80693	25.5341	0	
1.8740	2.68302	19.482	0	
1.8747	6.07786	15.1591	0	
1.8753	7.61102	15.1591	0	
1.8760	6.07786	12.7382	0	
1.8767	3.61386	9.68336	0	
1.8773	3.28533	7.83891	0	
1.8780	3.28533	4.20765	0	
1.8787	1.4784	-1.90209	0	
1.8793	-0.657066	-7.72363	0	
1.8800	-1.25938	-11.6431	0	
1.8807	-1.86169	-11.3549	0	
1.8813	-3.12106	-8.30002	0	
1.8820	-3.39484	-6.80141	0	
1.8827	-3.12106	-6.16738	0	
1.8833	-1.25938	-3.45834	0	
1.8840	-0.328533	-1.26806	0	
1.8847	-0.657066	-0.403473	0	
1.8853	-0.985599	1.15278	0	
1.8860	-1.25938	1.72917	0	
1.8867	-2.79253	0.230556	0	
1.8873	-2.19022	-0.979863	0	
1.8880	0.547555	-6.45557	0	
1.8887	2.40924	-17.7528	0	
1.8893	1.80693	-27.5515	0	
1.8900	2.40924	-30.6063	0	
1.8907	3.9424	-32.1049	0	
1.8913	6.07786	-34.8716	0	
1.8920	6.95395	-38.2147	0	
1.8927	5.74933	-41.5577	0	
1.8933	5.74933	-43.4022	0	
1.8940	7.61102	-41.9036	0	
1.8947	7.88479	-37.0043	0	
1.8953	5.74933	-30.2605	0	
1.8960	4.21617	-21.7299	0	
1.8967	3.28533	-10.4327	0	
1.8973	1.14987	3.28542	0	
1.8980	0.547555	21.6146	0	
1.8987	1.4784	42.0189	0	
1.8993	0.273778	50.6071	0	
1.9000	-1.58791	38.0994	0	
1.9007	-1.25938	13.3723	0	
1.9013	-0.657066	-13.1993	0	
1.9020	-0.657066	-31.5285	0	
1.9027	-0.328533	-33.0272	0	
1.9033	-2.19022	-19.8855	0	
1.9040	-3.12106	6.0521	0	
1.9047	-0.657066	36.2549	0	
1.9053	1.4784	41.7307	0	
1.9060	-0.328533	18.5598	0	
1.9067	-1.58791	4.20765	0	
1.9073	-1.25938	9.97155	0	
1.9080	-3.72338	12.45	0	
1.9087	-5.53031	11.5278	0	
1.9093	-3.99715	21.2688	0	
1.9100	-0.657066	30.7216	0	
1.9107	-0.328533	28.9348	0	
1.9113	-1.58791	19.7702	0	
1.9120	-0.985599	9.10697	0	
1.9127	2.08071	1.15278	0	
1.9133	3.9424	-6.80141	0	
1.9140	3.01155	-12.9111	0	
1.9147	2.40924	-10.1445	0	
1.9153	2.40924	-5.24515	0	
1.9160	2.40924	-10.1445	0	
1.9167	1.80693	-15.966	0	
1.9173	0.876088	-17.4646	0	
1.9180	-1.25938	-19.3091	0	
1.9187	-3.12106	-16.5424	0	
1.9193	-3.99715	-7.3778	0	
1.9200	-4.928	-3.45834	0	
1.9207	-5.53031	-4.66876	0	
1.9213	-4.928	-5.87918	0	
1.9220	-4.928	-8.64585	0	
1.9227	-7.99431	-8.01183	0	
1.9233	-9.52746	-2.19028	0	
1.9240	-5.85884	-1.61389	0	
1.9247	-3.39484	-5.59099	0	
1.9253	-4.59946	-4.32293	0	
1.9260	-4.928	-1.90209	0	
1.9267	-2.79253	-2.19028	0	
1.9273	-2.464	-1.90209	0	
1.9280	-3.12106	-2.19028	0	
1.9287	-0.0547555	-4.95696	0	
1.9293	2.68302	-6.16738	0	
1.9300	1.80693	-5.87918	0	
1.9307	1.4784	-6.45557	0	
1.9313	3.28533	-6.80141	0	
1.9320	3.28533	-9.22224	0	
1.9327	3.28533	-16.5424	0	
1.9333	4.21617	-21.4417	0	
1.9340	1.14987	-15.966	0	
1.9347	-2.19022	-10.4327	0	
1.9353	-1.58791	-9.85627	0	
1.9360	-1.25938	0.518751	0	
1.9367	-2.464	18.5598	0	
1.9373	-3.72338	18.5598	0	
1.9380	-5.25653	-2.19028	0	
1.9387	-6.13262	-20.5195	0	
1.9393	-5.25653	-33.6612	0	
1.9400	-4.59946	-48.3015	0	
1.9407	-5.85884	-57.4661	0	
1.9413	-6.13262	-61.4432	0	
1.9420	-5.85884	-68.1293	0	
1.9427	-4.928	-58.9647	0	
1.9433	-4.59946	-15.966	0	
1.9440	-4.928	40.5202	0	
1.9447	-5.85884	77.755	0	
1.9453	-5.85884	74.9884	0	
1.9460	-4.32569	41.0966	0	
1.9467	-1.86169	18.848	0	
1.9473	-0.985599	32.2779	0	
1.9480	-2.19022	52.7397	0	
1.9487	-0.657066	58.2154	0	
1.9493	0.876088	54.5265	0	
1.9500	-1.25938	45.4196	0	
1.9507	-2.19022	32.2779	0	
1.9513	0.547555	23.7473	0	
1.9520	0.273778	19.1362	0	
1.9527	-0.985599	13.6604	0	
1.9533	1.4784	7.83891	0	
1.9540	0.547555	0.230556	0	
1.9547	-2.464	-6.80141	0	
1.9553	-0.328533	-6.80141	0	
1.9560	0.876088	-5.24515	0	
1.9567	-2.79253	-6.16738	0	
1.9573	-3.12106	-5.87918	0	
1.9580	-0.328533	-3.74654	0	
1.9587	-2.19022	-3.74654	0	
1.9593	-5.25653	-4.32293	0	
1.9600	-7.39199	-3.11251	0	
1.9607	-9.80124	-1.61389	0	
1.9613	-7.99431	-1.26806	0	
1.9620	-3.99715	-0.403473	0	
1.9627	-5.25653	0.230556	0	
1.9633	-7.39199	-0.691668	0	
1.9640	-5.85884	-1.26806	0	
1.9647	-5.25653	-1.26806	0	
1.9653	-5.25653	-1.90209	0	
1.9660	-1.25938	-1.61389	0	
1.9667	1.4784	-3.11251	0	
1.9673	-0.0547555	-8.64585	0	
1.9680	-0.657066	-10.4327	0	
1.9687	1.4784	-11.0667	0	
1.9693	4.21617	-19.0209	0	
1.9700	4.21617	-24.7848	0	
1.9707	2.68302	-22.0757	0	
1.9713	3.61386	-22.6521	0	
1.9720	5.14702	-24.2084	0	
1.9727	4.54471	-16.8882	0	
1.9733	6.95395	-16.8882	0	
1.9740	9.74648	-33.9494	0	
1.9747	6.95395	-44.9584	0	
1.9753	4.54471	-36.082	0	
1.9760	6.95395	-13.1993	0	
1.9767	6.68017	18.848	0	
1.9773	2.40924	39.8862	0	
1.9780	0.273778	23.1133	0	
1.9787	-1.25938	-13.4875	0	
1.9793	-3.72338	-35.1598	0	
1.9800	-3.72338	-37.6383	0	
1.9807	-3.99715	-30.6063	0	
1.9813	-3.39484	-22.9403	0	
1.9820	-1.25938	-21.1535	0	
1.9827	-2.464	-12.5653	0	
1.9833	-6.46115	9.68336	0	
1.9840	-4.928	26.1681	0	
1.9847	-1.25938	33.4883	0	
1.9853	-1.25938	39.8862	0	
1.9860	-0.985599	33.7765	0	
1.9867	-0.0547555	23.7473	0	
1.9873	-0.0547555	35.0445	0	
1.9880	2.40924	48.7626	0	
1.9887	6.07786	39.8862	0	
1.9893	5.14702	28.0126	0	
1.9900	2.40924	23.7473	0	
1.9907	2.68302	15.1591	0	
1.9913	3.01155	1.44098	0	
1.9920	0.273778	-10.7785	0	
1.9927	0.547555	-19.3091	0	
1.9933	3.28533	-15.966	0	
1.9940	3.28533	-2.19028	0	
1.9947	3.01155	0.864585	0	
1.9953	4.54471	-13.8334	0	
1.9960	3.61386	-11.3549	0	
1.9967	2.40924	26.8021	0	
1.9973	5.14702	60.9821	0	
1.9980	4.81849	56.371	0	
1.9987	0.273778	37.7536	0	
1.9993	-0.657066	33.4883	0	
2.0000	-0.0547555	33.7765	0	
2.0007	-3.12106	28.9348	0	
2.0013	-3.99715	22.5369	0	
2.0020	-2.464	17.6375	0	
2.0027	-2.464	17.0035	0	
2.0033	-2.19022	17.0035	0	
2.0040	-0.985599	13.3723	0	
2.0047	-2.464	8.76113	0	
2.0053	-4.59946	8.18474	0	
2.0060	-2.19022	7.26252	0	
2.0067	0.273778	1.44098	0	
2.0073	-0.985599	-6.80141	0	
2.0080	-1.58791	-9.51044	0	
2.0087	0.547555	-10.4327	0	
2.0093	2.08071	-17.7528	0	
2.0100	1.4784	-23.2862	0	
2.0107	0.876088	-19.0209	0	
2.0113	2.68302	-15.0438	0	
2.0120	5.4208	-17.4646	0	
2.0127	5.4208	-19.5973	0	
2.0133	5.14702	-20.2313	0	
2.0140	6.35164	-18.675	0	
2.0147	6.07786	-18.0987	0	
2.0153	4.21617	-22.3639	0	
2.0160	6.07786	-27.5515	0	
2.0167	7.28248	-29.9723	0	
2.0173	3.28533	-36.082	0	
2.0180	-0.0547555	-49.8001	0	
2.0187	-1.25938	-61.0974	0	
2.0193	-3.39484	-57.7543	0	
2.0200	-3.72338	-42.48	0	
2.0207	-2.464	-31.5285	0	
2.0213	-3.72338	-28.7619	0	
2.0220	-4.59946	-19.0209	0	
2.0227	-3.99715	6.91668	0	
2.0233	-3.39484	40.232	0	
2.0240	-3.12106	68.3022	0	
2.0247	-2.79253	81.0981	0	
2.0253	-3.72338	74.412	0	
2.0260	-3.39484	55.4487	0	
2.0267	-0.985599	38.0994	0	
2.0273	1.14987	24.3237	0	
2.0280	2.40924	11.816	0	
2.0287	2.68302	2.3632	0	
2.0293	3.01155	-4.03473	0	
2.0300	5.4208	-8.64585	0	
2.0307	8.48711	-13.4875	0	
2.0313	9.74648	-18.0987	0	
2.0320	9.41795	-22.6521	0	
2.0327	8.21333	-32.4508	0	
2.0333	7.61102	-44.9584	0	
2.0340	9.41795	-52.5668	0	
2.0347	8.81564	-57.4661	0	
2.0353	5.14702	-49.5119	0	
2.0360	6.68017	-4.95696	0	
2.0367	8.81564	54.5265	0	
2.0373	6.07786	70.7231	0	
2.0380	4.54471	41.7307	0	
2.0387	6.35164	15.5049	0	
2.0393	3.9424	5.41807	0	
2.0400	1.14987	-2.19028	0	
2.0407	1.4784	-4.03473	0	
2.0413	-0.985599	-1.26806	0	
2.0420	-2.464	-1.90209	0	
2.0427	-0.657066	-2.19028	0	
2.0433	-2.19022	0.518751	0	
2.0440	-4.59946	1.72917	0	
2.0447	-1.86169	4.78404	0	
2.0453	0.273778	10.8938	0	
2.0460	-1.25938	15.1591	0	
2.0467	-1.25938	14.5827	0	
2.0473	0.273778	10.6056	0	
2.0480	2.40924	6.91668	0	
2.0487	5.74933	6.62849	0	
2.0493	6.35164	6.0521	0	
2.0500	3.28533	0.518751	0	
2.0507	3.9424	-6.80141	0	
2.0513	7.88479	-10.1445	0	
2.0520	7.28248	-8.01183	0	
2.0527	3.61386	-3.74654	0	
2.0533	4.54471	-4.03473	0	
2.0540	6.07786	-7.72363	0	
2.0547	1.4784	-4.95696	0	
2.0553	-0.328533	-0.057639	0	
2.0560	3.61386	-1.90209	0	
2.0567	3.9424	-4.95696	0	
2.0573	1.4784	-4.66876	0	
2.0580	2.40924	-4.95696	0	
2.0587	1.4784	-5.87918	0	
2.0593	-2.79253	-7.72363	0	
2.0600	-3.39484	-15.0438	0	
2.0607	-1.58791	-22.6521	0	
2.0613	-2.19022	-28.7619	0	
2.0620	-3.99715	-42.8258	0	
2.0627	-3.12106	-56.2557	0	
2.0633	-2.79253	-54.4112	0	
2.0640	-3.72338	-51.6446	0	
2.0647	-4.59946	-62.9418	0	
2.0653	-4.59946	-74.5273	0	
2.0660	-4.32569	-59.887	0	
2.0667	-2.19022	0.230556	0	
2.0673	2.40924	89.3405	0	
2.0680	4.21617	146.691	0	
2.0687	3.28533	138.795	0	
2.0693	3.9424	98.5051	0	
2.0700	7.61102	67.38	0	
2.0707	9.08942	48.7626	0	
2.0713	6.68017	32.9119	0	
2.0720	4.21617	21.6146	0	
2.0727	4.21617	21.6146	0	
2.0733	5.14702	28.0126	0	
2.0740	5.74933	24.6695	0	
2.0747	5.14702	8.47294	0	
2.0753	2.40924	-11.3549	0	
2.0760	1.4784	-33.3154	0	
2.0767	3.01155	-58.0425	0	
2.0773	0.547555	-76.6599	0	
2.0780	-3.39484	-80.9252	0	
2.0787	-2.79253	-70.5502	0	
2.0793	-0.328533	-54.6994	0	
2.0800	-2.19022	-46.1689	0	
2.0807	-5.85884	-43.6904	0	
2.0813	-7.66577	-33.3154	0	
2.0820	-7.06346	-12.2771	0	
2.0827	-4.59946	9.97155	0	
2.0833	-2.19022	30.1452	0	
2.0840	-2.464	41.7307	0	
2.0847	-2.79253	35.6209	0	
2.0853	-1.25938	20.6924	0	
2.0860	-0.657066	7.83891	0	
2.0867	-1.86169	-3.45834	0	
2.0873	-2.19022	-10.4327	0	
2.0880	-1.25938	-10.1445	0	
2.0887	-0.0547555	-8.64585	0	
2.0893	0.273778	-7.0896	0	
2.0900	-2.19022	0.518751	0	
2.0907	-3.12106	9.68336	0	
2.0913	0.547555	12.45	0	
2.0920	2.68302	13.0264	0	
2.0927	0.547555	12.1042	0	
2.0933	-1.86169	7.83891	0	
2.0940	-2.19022	12.1042	0	
2.0947	-0.657066	31.6438	0	
2.0953	0.273778	47.8404	0	
2.0960	-1.25938	42.6529	0	
2.0967	-3.72338	27.0903	0	
2.0973	-3.72338	13.6604	0	
2.0980	-3.72338	1.15278	0	
2.0987	-4.928	-5.87918	0	
2.0993	-4.928	-5.87918	0	
2.1000	-6.73493	-10.4327	0	
2.1007	-8.59662	-18.675	0	
2.1013	-6.73493	-19.5973	0	
2.1020	-4.32569	-15.966	0	
2.1027	-4.32569	-11.6431	0	
2.1033	-3.12106	-11.0667	0	
2.1040	-2.19022	-23.2862	0	
2.1047	-3.12106	-38.2147	0	
2.1053	-3.39484	-40.3473	0	
2.1060	-3.99715	-37.9265	0	
2.1067	-5.85884	-34.8716	0	
2.1073	-3.99715	-25.073	0	
2.1080	0.547555	-25.4188	0	
2.1087	1.80693	-41.9036	0	
2.1093	1.4784	-48.3015	0	
2.1100	3.28533	-41.2695	0	
2.1107	4.21617	-32.4508	0	
2.1113	3.9424	-9.85627	0	
2.1120	3.61386	24.9577	0	
2.1127	2.68302	47.2064	0	
2.1133	1.4784	53.6619	0	
2.1140	0.547555	55.4487	0	
2.1147	1.80693	57.005	0	
2.1153	3.01155	57.2932	0	
2.1160	1.80693	49.973	0	
2.1167	-0.328533	34.4105	0	
2.1173	-0.0547555	24.0355	0	
2.1180	-0.328533	17.6375	0	
2.1187	-3.12106	6.91668	0	
2.1193	-3.99715	-3.11251	0	
2.1200	-3.39484	-8.64585	0	
2.1207	-5.25653	-9.85627	0	
2.1213	-6.73493	-5.87918	0	
2.1220	-3.72338	-0.403473	0	
2.1227	-2.19022	0.518751	0	
2.1233	-5.25653	0.230556	0	
2.1240	-6.46115	-0.691668	0	
2.1247	-3.72338	-5.87918	0	
2.1253	-2.464	-9.22224	0	
2.1260	-1.86169	-5.24515	0	
2.1267	-0.0547555	2.3632	0	
2.1273	-0.0547555	5.12987	0	
2.1280	-0.328533	3.57362	0	
2.1287	1.4784	3.28542	0	
2.1293	1.4784	4.78404	0	
2.1300	0.547555	3.28542	0	
2.1307	1.4784	2.3632	0	
2.1313	1.80693	4.49584	0	
2.1320	1.4784	8.18474	0	
2.1327	3.61386	12.1042	0	
2.1333	5.14702	14.2945	0	
2.1340	3.28533	13.3723	0	
2.1347	3.28533	13.3723	0	
2.1353	5.14702	13.9486	0	
2.1360	2.68302	14.8709	0	
2.1367	-0.328533	16.0813	0	
2.1373	-0.328533	6.34029	0	
2.1380	-2.19022	-18.3869	0	
2.1387	-4.928	-37.0043	0	
2.1393	-4.32569	-36.7161	0	
2.1400	-2.79253	-33.0272	0	
2.1407	-3.39484	-36.3702	0	
2.1413	-3.12106	-38.5029	0	
2.1420	-2.464	-34.8716	0	
2.1427	-3.12106	-36.082	0	
2.1433	-3.12106	-48.0133	0	
2.1440	-3.72338	-64.1522	0	
2.1447	-4.32569	-76.6599	0	
2.1453	-1.86169	-79.1384	0	
2.1460	-0.328533	-58.3883	0	
2.1467	-1.25938	-16.8882	0	
2.1473	-0.657066	21.9028	0	
2.1480	0.547555	44.7855	0	
2.1487	-1.25938	54.5265	0	
2.1493	-0.328533	56.0828	0	
2.1500	2.08071	62.7689	0	
2.1507	2.08071	86.9197	0	
2.1513	2.68302	106.747	0	
2.1520	4.21617	98.5051	0	
2.1527	3.9424	75.2766	0	
2.1533	4.21617	56.6592	0	
2.1540	4.81849	38.964	0	
2.1547	2.08071	25.2459	0	
2.1553	0.273778	24.0355	0	
2.1560	1.4784	23.4014	0	
2.1567	1.14987	14.8709	0	
2.1573	1.4784	9.10697	0	
2.1580	2.40924	8.18474	0	
2.1587	0.273778	2.3632	0	
2.1593	-3.12106	-3.45834	0	
2.1600	-2.464	-4.03473	0	
2.1607	-1.25938	-8.30002	0	
2.1613	-2.79253	-16.8882	0	
2.1620	-4.59946	-21.4417	0	
2.1627	-5.85884	-21.4417	0	
2.1633	-6.73493	-19.8855	0	
2.1640	-6.73493	-15.966	0	
2.1647	-7.06346	-9.51044	0	
2.1653	-5.85884	-5.24515	0	
2.1660	-0.657066	-3.45834	0	
2.1667	0.547555	-1.26806	0	
2.1673	-3.99715	2.3632	0	
2.1680	-3.72338	5.12987	0	
2.1687	2.40924	5.12987	0	
2.1693	4.21617	3.28542	0	
2.1700	1.4784	-0.057639	0	
2.1707	-0.328533	-8.64585	0	
2.1713	0.273778	-18.675	0	
2.1720	3.28533	-21.4417	0	
2.1727	4.81849	-22.3639	0	
2.1733	2.40924	-27.8397	0	
2.1740	1.80693	-25.707	0	
2.1747	3.61386	-5.87918	0	
2.1753	1.14987	14.8709	0	
2.1760	-2.19022	19.482	0	
2.1767	-1.58791	11.5278	0	
2.1773	-3.12106	3.57362	0	
2.1780	-5.25653	-0.403473	0	
2.1787	-4.59946	-4.95696	0	
2.1793	-4.928	-10.7785	0	
2.1800	-5.25653	-13.1993	0	
2.1807	-4.32569	-10.4327	0	
2.1813	-5.85884	-7.72363	0	
2.1820	-6.73493	-4.95696	0	
2.1827	-2.19022	-1.90209	0	
2.1833	-0.657066	-0.057639	0	
2.1840	-3.99715	1.44098	0	
2.1847	-4.928	2.07501	0	
2.1853	-4.928	0.518751	0	
2.1860	-3.99715	-0.403473	0	
2.1867	-0.328533	-1.61389	0	
2.1873	0.547555	-6.45557	0	
2.1880	-2.464	-11.3549	0	
2.1887	-1.58791	-15.6202	0	
2.1893	2.08071	-24.2084	0	
2.1900	1.80693	-33.3154	0	
2.1907	-0.328533	-34.2376	0	
2.1913	0.547555	-32.4508	0	
2.1920	3.9424	-39.1369	0	
2.1927	4.21617	-50.7223	0	
2.1933	1.4784	-59.5988	0	
2.1940	2.40924	-69.3398	0	
2.1947	5.14702	-80.003	0	
2.1953	2.08071	-78.5044	0	
2.1960	-0.657066	-58.6765	0	
2.1967	1.4784	-34.2376	0	
2.1973	0.273778	-14.1216	0	
2.1980	-5.53031	7.26252	0	
2.1987	-6.13262	38.0994	0	
2.1993	-3.99715	73.4898	0	
2.2000	-4.928	93.894	0	
2.2007	-4.32569	87.496	0	
2.2013	-2.19022	67.38	0	
2.2020	-2.464	52.1057	0	
2.2027	-4.32569	41.7307	0	
2.2033	-5.85884	33.4883	0	
2.2040	-6.13262	35.6209	0	
2.2047	-5.25653	49.0508	0	
2.2053	-3.99715	62.7689	0	
2.2060	-4.928	64.6134	0	
2.2067	-4.928	50.6071	0	
2.2073	-3.72338	29.857	0	
2.2080	-2.464	12.7382	0	
2.2087	-0.328533	1.72917	0	
2.2093	1.14987	-2.19028	0	
2.2100	0.876088	-4.32293	0	
2.2107	1.14987	-13.4875	0	
2.2113	3.28533	-24.2084	0	
2.2120	4.21617	-25.073	0	
2.2127	2.40924	-26.6292	0	
2.2133	0.273778	-29.9723	0	
2.2140	-0.328533	-14.4098	0	
2.2147	1.4784	16.0813	0	
2.2153	3.28533	31.0674	0	
2.2160	4.21617	22.5369	0	
2.2167	4.21617	2.99723	0	
2.2173	2.40924	-14.1216	0	
2.2180	-0.657066	-19.5973	0	
2.2187	-2.19022	-17.1764	0	
2.2193	-1.86169	-22.3639	0	
2.2200	-1.86169	-31.5285	0	
2.2207	-1.25938	-34.2376	0	
2.2213	-1.86169	-33.3154	0	
2.2220	-3.12106	-27.2633	0	
2.2227	-3.12106	-15.6202	0	
2.2233	-3.39484	-5.59099	0	
2.2240	-4.928	3.28542	0	
2.2247	-4.32569	12.45	0	
2.2253	-2.19022	12.1042	0	
2.2260	-0.657066	2.6514	0	
2.2267	0.547555	-4.03473	0	
2.2273	-0.328533	-9.51044	0	
2.2280	-1.86169	-14.698	0	
2.2287	0.273778	-4.32293	0	
2.2293	3.28533	13.9486	0	
2.2300	4.21617	16.0813	0	
2.2307	4.81849	11.816	0	
2.2313	4.21617	19.482	0	
2.2320	4.21617	21.6146	0	
2.2327	6.68017	9.39516	0	
2.2333	6.95395	1.44098	0	
2.2340	4.54471	0.864585	0	
2.2347	5.4208	-4.32293	0	
2.2353	7.28248	-7.72363	0	
2.2360	6.07786	-5.24515	0	
2.2367	3.9424	-5.87918	0	
2.2373	3.61386	-6.80141	0	
2.2380	3.9424	-3.11251	0	
2.2387	3.28533	0.230556	0	
2.2393	2.40924	4.78404	0	
2.2400	0.547555	11.2396	0	
2.2407	-0.657066	9.68336	0	
2.2413	-0.328533	2.6514	0	
2.2420	0.876088	0.518751	0	
2.2427	0.547555	1.44098	0	
2.2433	-1.58791	0.518751	0	
2.2440	-2.19022	0.864585	0	
2.2447	-0.985599	-1.61389	0	
2.2453	-1.58791	-7.72363	0	
2.2460	-3.12106	-8.30002	0	
2.2467	-0.328533	-4.66876	0	
2.2473	3.9424	-5.87918	0	
2.2480	4.21617	-6.80141	0	
2.2487	2.40924	-1.90209	0	
2.2493	3.01155	2.07501	0	
2.2500	4.54471	1.44098	0	
2.2507	4.54471	1.44098	0	
2.2513	4.21617	1.72917	0	
2.2520	4.21617	0.518751	0	
2.2527	4.54471	0.518751	0	
2.2533	5.14702	1.72917	0	
2.2540	4.21617	0.518751	0	
2.2547	3.9424	-3.74654	0	
2.2553	5.14702	-6.16738	0	
2.2560	5.14702	-8.64585	0	
2.2567	3.01155	-13.4875	0	
2.2573	1.4784	-16.8882	0	
2.2580	0.273778	-18.675	0	
2.2587	-0.0547555	-20.5195	0	
2.2593	0.876088	-16.5424	0	
2.2600	-1.58791	-10.4327	0	
2.2607	-4.928	-11.6431	0	
2.2613	-3.12106	-14.698	0	
2.2620	-1.86169	-10.4327	0	
2.2627	-4.32569	-7.72363	0	
2.2633	-3.12106	-10.4327	0	
2.2640	-0.657066	-9.51044	0	
2.2647	-3.12106	-6.80141	0	
2.2653	-4.928	-7.72363	0	
2.2660	-1.58791	-9.22224	0	
2.2667	2.08071	-12.5653	0	
2.2673	2.40924	-20.5195	0	
2.2680	0.547555	-26.9174	0	
2.2687	-0.0547555	-30.8945	0	
2.2693	1.14987	-34.8716	0	
2.2700	0.876088	-37.6383	0	
2.2707	2.68302	-36.082	0	
2.2713	11.8819	-21.7299	0	
2.2720	18.8907	10.6056	0	
2.2727	17.029	44.7855	0	
2.2733	13.6889	60.3481	0	
2.2740	15.222	57.2932	0	
2.2747	18.5621	47.2064	0	
2.2753	17.6313	38.964	0	
2.2760	10.9511	30.7216	0	
2.2767	4.21617	20.0584	0	
2.2773	2.08071	9.97155	0	
2.2780	2.08071	4.20765	0	
2.2787	0.547555	-1.90209	0	
2.2793	-0.328533	-7.3778	0	
2.2800	-0.657066	-7.0896	0	
2.2807	-5.25653	-4.03473	0	
2.2813	-12.2652	-4.03473	0	
2.2820	-15.9339	-5.87918	0	
2.2827	-13.7984	-3.74654	0	
2.2833	-8.87039	9.68336	0	
2.2840	-8.59662	28.9348	0	
2.2847	-15.003	35.3327	0	
2.2853	-21.0809	24.3237	0	
2.2860	-21.0809	10.8938	0	
2.2867	-16.5362	5.12987	0	
2.2873	-11.3344	4.49584	0	
2.2880	-8.59662	11.5278	0	
2.2887	-10.1298	28.0126	0	
2.2893	-10.7321	44.4973	0	
2.2900	-8.59662	44.7855	0	
2.2907	-5.85884	29.223	0	
2.2913	-5.53031	16.0813	0	
2.2920	-5.53031	9.68336	0	
2.2927	-4.928	-6.80141	0	
2.2933	-3.12106	-33.3154	0	
2.2940	-1.25938	-50.7223	0	
2.2947	-0.985599	-52.2786	0	
2.2953	-3.12106	-52.5668	0	
2.2960	-4.59946	-55.9099	0	
2.2967	-3.99715	-56.2557	0	
2.2973	-3.12106	-57.1203	0	
2.2980	-2.79253	-60.8092	0	
2.2987	-2.79253	-50.4342	0	
2.2993	-4.928	-16.8882	0	
2.3000	-8.59662	21.9028	0	
2.3007	-7.39199	42.6529	0	
2.3013	-4.32569	42.0189	0	
2.3020	-6.13262	28.3008	0	
2.3027	-7.66577	14.2945	0	
2.3033	-2.19022	7.26252	0	
2.3040	1.4784	4.20765	0	
2.3047	-2.19022	5.12987	0	
2.3053	-3.99715	16.0813	0	
2.3060	-0.657066	31.3556	0	
2.3067	0.547555	41.7307	0	
2.3073	-0.328533	42.0189	0	
2.3080	2.08071	29.5112	0	
2.3087	4.54471	11.816	0	
2.3093	3.61386	2.99723	0	
2.3100	2.68302	0.864585	0	
2.3107	4.54471	-4.03473	0	
2.3113	6.07786	-11.9889	0	
2.3120	6.07786	-16.8882	0	
2.3127	7.28248	-19.3091	0	
2.3133	7.88479	-22.6521	0	
2.3140	5.4208	-21.4417	0	
2.3147	4.54471	-11.3549	0	
2.3153	6.68017	-4.03473	0	
2.3160	6.95395	-4.95696	0	
2.3167	4.21617	-4.95696	0	
2.3173	2.08071	-2.82431	0	
2.3180	1.80693	-4.03473	0	
2.3187	3.28533	-5.24515	0	
2.3193	4.21617	-2.53612	0	
2.3200	1.4784	6.34029	0	
2.3207	-0.657066	19.482	0	
2.3213	-0.0547555	23.4014	0	
2.3220	-0.985599	15.1591	0	
2.3227	-2.19022	6.91668	0	
2.3233	-1.86169	1.44098	0	
2.3240	-3.99715	-4.95696	0	
2.3247	-5.53031	-5.87918	0	
2.3253	-1.25938	-1.26806	0	
2.3260	0.876088	2.3632	0	
2.3267	-0.328533	3.28542	0	
2.3273	2.40924	5.12987	0	
2.3280	6.35164	8.47294	0	
2.3287	5.74933	8.76113	0	
2.3293	4.21617	6.0521	0	
2.3300	4.54471	1.44098	0	
2.3307	6.07786	-1.90209	0	
2.3313	6.35164	-4.32293	0	
2.3320	6.07786	-7.72363	0	
2.3327	6.95395	-13.1993	0	
2.3333	7.61102	-16.2542	0	
2.3340	5.14702	-12.5653	0	
2.3347	3.9424	-9.22224	0	
2.3353	4.21617	-9.51044	0	
2.3360	2.08071	-9.51044	0	
2.3367	1.4784	-11.3549	0	
2.3373	2.68302	-15.0438	0	
2.3380	1.4784	-15.6202	0	
2.3387	1.14987	-14.698	0	
2.3393	3.28533	-8.64585	0	
2.3400	1.4784	14.8709	0	
2.3407	-2.464	45.4196	0	
2.3413	-1.58791	60.9821	0	
2.3420	0.273778	64.6134	0	
2.3427	-0.985599	60.9821	0	
2.3433	-3.12106	43.5751	0	
2.3440	-2.464	20.3466	0	
2.3447	0.876088	2.07501	0	
2.3453	2.40924	-13.1993	0	
2.3460	0.547555	-22.6521	0	
2.3467	-0.0547555	-17.4646	0	
2.3473	0.547555	-6.80141	0	
2.3480	-0.328533	-6.45557	0	
2.3487	1.14987	-14.1216	0	
2.3493	3.28533	-16.2542	0	
2.3500	3.01155	-15.966	0	
2.3507	3.28533	-24.2084	0	
2.3513	5.74933	-35.1598	0	
2.3520	6.95395	-39.4251	0	
2.3527	7.61102	-42.1918	0	
2.3533	7.88479	-48.3015	0	
2.3540	7.28248	-55.3335	0	
2.3547	5.74933	-53.489	0	
2.3553	4.81849	-24.2084	0	
2.3560	3.28533	30.1452	0	
2.3567	3.01155	74.0662	0	
2.3573	3.28533	82.6544	0	
2.3580	2.40924	67.6682	0	
2.3587	-0.657066	47.2064	0	
2.3593	-2.19022	27.0903	0	
2.3600	-2.19022	9.39516	0	
2.3607	-2.464	-2.53612	0	
2.3613	-3.99715	-4.95696	0	
2.3620	-5.25653	0.864585	0	
2.3627	-3.12106	5.70626	0	
2.3633	0.273778	6.0521	0	
2.3640	-1.86169	5.70626	0	
2.3647	-5.85884	2.3632	0	
2.3653	-3.12106	-7.3778	0	
2.3660	-0.0547555	-15.0438	0	
2.3667	-3.12106	-15.6202	0	
2.3673	-4.59946	-16.5424	0	
2.3680	-0.985599	-8.64585	0	
2.3687	1.14987	24.6695	0	
2.3693	1.4784	60.9821	0	
2.3700	3.28533	64.3252	0	
2.3707	3.9424	38.3876	0	
2.3713	2.40924	7.55071	0	
2.3720	2.40924	-17.4646	0	
2.3727	3.28533	-34.2376	0	
2.3733	4.81849	-40.6355	0	
2.3740	5.14702	-39.4251	0	
2.3747	3.28533	-36.7161	0	
2.3753	1.4784	-35.448	0	
2.3760	1.4784	-30.8945	0	
2.3767	2.08071	-17.1764	0	
2.3773	1.14987	-0.057639	0	
2.3780	-2.79253	17.2917	0	
2.3787	-6.46115	32.9119	0	
2.3793	-6.73493	37.1772	0	
2.3800	-6.13262	28.9348	0	
2.3807	-6.46115	20.0584	0	
2.3813	-6.13262	14.2945	0	
2.3820	-4.32569	7.83891	0	
2.3827	-2.19022	4.20765	0	
2.3833	-1.86169	-0.057639	0	
2.3840	-4.32569	-10.7785	0	
2.3847	-7.39199	-21.4417	0	
2.3853	-5.85884	-25.073	0	
2.3860	-1.25938	-25.9952	0	
2.3867	-0.328533	-25.9952	0	
2.3873	-1.86169	-23.2862	0	
2.3880	-1.25938	-23.5744	0	
2.3887	-0.985599	-28.7619	0	
2.3893	-1.25938	-28.1278	0	
2.3900	0.876088	-19.3091	0	
2.3907	3.9424	-12.9111	0	
2.3913	4.54471	-6.80141	0	
2.3920	4.54471	10.8938	0	
2.3927	4.21617	25.2459	0	
2.3933	3.28533	19.482	0	
2.3940	3.61386	7.26252	0	
2.3947	3.9424	2.6514	0	
2.3953	2.68302	-4.66876	0	
2.3960	3.61386	-14.1216	0	
2.3967	5.4208	-16.8882	0	
2.3973	3.9424	-15.966	0	
2.3980	2.40924	-15.0438	0	
2.3987	3.01155	-15.0438	0	
2.3993	1.4784	-15.0438	0	
2.4000	-1.58791	-13.4875	0	
2.4007	-2.19022	-10.7785	0	
2.4013	-2.19022	-11.9889	0	
2.4020	-2.19022	-11.6431	0	
2.4027	-1.25938	-6.80141	0	
2.4033	-1.58791	-2.19028	0	
2.4040	-1.25938	1.44098	0	
2.4047	-1.25938	7.55071	0	
2.4053	-3.99715	14.8709	0	
2.4060	-5.53031	21.9028	0	
2.4067	-2.19022	25.5341	0	
2.4073	-1.25938	21.6146	0	
2.4080	-2.19022	14.5827	0	
2.4087	-1.25938	10.6056	0	
2.4093	0.273778	6.91668	0	
2.4100	2.40924	0.518751	0	
2.4107	4.81849	-4.66876	0	
2.4113	5.14702	-10.4327	0	
2.4120	4.21617	-17.1764	0	
2.4127	4.54471	-16.8882	0	
2.4133	3.9424	-1.90209	0	
2.4140	2.68302	17.6375	0	
2.4147	3.01155	22.8251	0	
2.4153	2.68302	13.9486	0	
2.4160	1.4784	6.0521	0	
2.4167	-0.328533	3.57362	0	
2.4173	-2.19022	0.864585	0	
2.4180	-2.19022	-3.11251	0	
2.4187	-0.328533	-3.11251	0	
2.4193	0.876088	-1.61389	0	
2.4200	-0.985599	-4.95696	0	
2.4207	-4.59946	-7.72363	0	
2.4213	-4.59946	-4.32293	0	
2.4220	-1.25938	-1.26806	0	
2.4227	-1.86169	-0.691668	0	
2.4233	-3.39484	2.99723	0	
2.4240	-2.19022	7.83891	0	
2.4247	-1.86169	8.47294	0	
2.4253	-2.19022	7.83891	0	
2.4260	-0.0547555	7.26252	0	
2.4267	0.273778	6.62849	0	
2.4273	-0.328533	6.91668	0	
2.4280	2.68302	8.76113	0	
2.4287	4.21617	10.6056	0	
2.4293	2.68302	9.39516	0	
2.4300	3.9424	5.70626	0	
2.4307	6.35164	6.0521	0	
2.4313	6.95395	8.76113	0	
2.4320	5.4208	7.26252	0	
2.4327	3.9424	2.99723	0	
2.4333	4.21617	1.44098	0	
2.4340	3.28533	-1.26806	0	
2.4347	-0.328533	-8.64585	0	
2.4353	0.547555	-14.4098	0	
2.4360	3.61386	-15.332	0	
2.4367	0.547555	-15.6202	0	
2.4373	-2.464	-15.332	0	
2.4380	-0.985599	-14.698	0	
2.4387	-1.25938	-16.2542	0	
2.4393	-4.928	-15.966	0	
2.4400	-5.53031	-9.51044	0	
2.4407	-5.25653	-4.32293	0	
2.4413	-6.73493	-1.26806	0	
2.4420	-7.06346	6.62849	0	
2.4427	-6.13262	12.45	0	
2.4433	-6.13262	10.6056	0	
2.4440	-5.85884	8.18474	0	
2.4447	-4.59946	4.49584	0	
2.4453	-3.99715	-5.24515	0	
2.4460	-2.464	-8.93405	0	
2.4467	-3.12106	-5.24515	0	
2.4473	-3.39484	-6.80141	0	
2.4480	0.547555	-10.4327	0	
2.4487	4.54471	-17.7528	0	
2.4493	2.40924	-36.7161	0	
2.4500	0.547555	-58.9647	0	
2.4507	4.21617	-75.7377	0	
2.4513	5.74933	-86.4585	0	
2.4520	2.08071	-70.896	0	
2.4527	1.14987	-23.8626	0	
2.4533	3.28533	21.6146	0	
2.4540	2.40924	52.1057	0	
2.4547	0.273778	76.5446	0	
2.4553	1.4784	82.3085	0	
2.4560	2.08071	72.5675	0	
2.4567	-0.328533	72.8557	0	
2.4573	-1.25938	77.4669	0	
2.4580	-1.58791	64.6134	0	
2.4587	-3.12106	45.4196	0	
2.4593	-3.72338	34.6987	0	
2.4600	-3.12106	23.7473	0	
2.4607	-4.928	9.68336	0	
2.4613	-6.73493	6.34029	0	
2.4620	-5.85884	17.9257	0	
2.4627	-5.25653	29.223	0	
2.4633	-4.928	26.4563	0	
2.4640	-2.464	14.2945	0	
2.4647	-2.19022	3.28542	0	
2.4653	-3.72338	-5.87918	0	
2.4660	-1.25938	-13.4875	0	
2.4667	0.547555	-15.0438	0	
2.4673	-1.58791	-12.2771	0	
2.4680	-1.25938	-12.9111	0	
2.4687	3.28533	-15.6202	0	
2.4693	4.21617	-12.2771	0	
2.4700	4.81849	-4.03473	0	
2.4707	6.35164	-0.691668	0	
2.4713	5.14702	-2.19028	0	
2.4720	4.54471	-1.61389	0	
2.4727	6.35164	-0.057639	0	
2.4733	5.74933	-0.057639	0	
2.4740	4.54471	-1.26806	0	
2.4747	5.74933	-2.82431	0	
2.4753	4.21617	-0.691668	0	
2.4760	1.4784	6.91668	0	
2.4767	0.876088	9.68336	0	
2.4773	-0.328533	1.44098	0	
2.4780	-2.79253	-7.72363	0	
2.4787	-3.12106	-12.9111	0	
2.4793	-2.19022	-15.966	0	
2.4800	-2.19022	-12.2771	0	
2.4807	-3.99715	-5.59099	0	
2.4813	-5.53031	-4.66876	0	
2.4820	-3.39484	-6.16738	0	
2.4827	-2.19022	-4.03473	0	
2.4833	-3.99715	-3.11251	0	
2.4840	-1.25938	-5.87918	0	
2.4847	1.14987	-5.87918	0	
2.4853	-2.79253	-5.24515	0	
2.4860	-3.72338	-7.3778	0	
2.4867	-0.328533	-8.30002	0	
2.4873	-0.0547555	-8.01183	0	
2.4880	1.4784	-8.30002	0	
2.4887	2.40924	-9.51044	0	
2.4893	-2.19022	-13.1993	0	
2.4900	-3.12106	-17.4646	0	
2.4907	2.40924	-18.0987	0	
2.4913	3.28533	-20.5195	0	
2.4920	0.876088	-28.7619	0	
2.4927	1.4784	-36.082	0	
2.4933	1.14987	-37.0043	0	
2.4940	1.4784	-35.448	0	
2.4947	3.61386	-35.448	0	
2.4953	1.80693	-25.4188	0	
2.4960	-0.328533	6.34029	0	
2.4967	-0.328533	42.6529	0	
2.4973	-2.19022	56.371	0	
2.4980	-3.12106	48.7626	0	
2.4987	-0.985599	38.3876	0	
2.4993	-2.19022	32.5661	0	
2.5000	-5.85884	29.223	0	
2.5007	-4.928	25.8799	0	
2.5013	-2.19022	18.848	0	
2.5020	-3.39484	13.0264	0	
2.5027	-5.85884	12.7382	0	
2.5033	-6.73493	12.45	0	
2.5040	-6.13262	6.91668	0	
2.5047	-4.59946	0.864585	0	
2.5053	-3.12106	-2.53612	0	
2.5060	-2.19022	-6.45557	0	
2.5067	-2.19022	-9.51044	0	
2.5073	-2.79253	-10.4327	0	
2.5080	-1.58791	-11.6431	0	
2.5087	2.08071	-11.3549	0	
2.5093	4.81849	-6.80141	0	
2.5100	4.21617	-1.26806	0	
2.5107	2.68302	-1.26806	0	
2.5113	3.9424	-3.11251	0	
2.5120	5.14702	-4.03473	0	
2.5127	3.28533	-5.87918	0	
2.5133	3.28533	-9.51044	0	
2.5140	5.14702	-10.4327	0	
2.5147	1.80693	-7.72363	0	
2.5153	-1.58791	-8.30002	0	
2.5160	3.61386	-11.3549	0	
2.5167	6.07786	-10.4327	0	
2.5173	-0.328533	-7.0896	0	
2.5180	-3.39484	-10.4327	0	
2.5187	-1.25938	-15.0438	0	
2.5193	-4.32569	-15.0438	0	
2.5200	-8.59662	-15.966	0	
2.5207	-7.66577	-24.2084	0	
2.5213	-5.85884	-30.6063	0	
2.5220	-5.85884	-33.3154	0	
2.5227	-5.53031	-37.9265	0	
2.5233	-4.32569	-42.8258	0	
2.5240	-3.72338	-45.5348	0	
2.5247	-4.32569	-51.6446	0	
2.5253	-4.59946	-49.8001	0	
2.5260	-3.12106	-18.675	0	
2.5267	-0.0547555	26.4563	0	
2.5273	2.40924	55.4487	0	
2.5280	1.4784	71.3571	0	
2.5287	-1.58791	87.496	0	
2.5293	-2.19022	92.3954	0	
2.5300	-0.328533	77.4669	0	
2.5307	2.08071	60.0599	0	
2.5313	4.54471	48.4744	0	
2.5320	6.07786	32.5661	0	
2.5327	3.9424	7.26252	0	
2.5333	1.80693	-13.1993	0	
2.5340	3.61386	-18.3869	0	
2.5347	5.74933	-14.698	0	
2.5353	4.21617	-12.9111	0	
2.5360	3.01155	-11.3549	0	
2.5367	2.68302	-7.72363	0	
2.5373	1.4784	-7.72363	0	
2.5380	0.876088	-13.1993	0	
2.5387	1.4784	-16.2542	0	
2.5393	-1.25938	-13.1993	0	
2.5400	-4.928	-11.3549	0	
2.5407	-3.99715	-14.1216	0	
2.5413	-3.39484	-16.5424	0	
2.5420	-5.53031	-15.0438	0	
2.5427	-4.32569	-10.7785	0	
2.5433	-2.19022	-6.80141	0	
2.5440	-3.12106	-6.16738	0	
2.5447	-3.12106	-8.93405	0	
2.5453	-3.12106	-11.0667	0	
2.5460	-3.99715	-13.1993	0	
2.5467	-3.12106	-15.332	0	
2.5473	-1.25938	-16.2542	0	
2.5480	-0.0547555	-16.8882	0	
2.5487	3.28533	-14.4098	0	
2.5493	5.14702	-9.22224	0	
2.5500	3.28533	-9.51044	0	
2.5507	2.40924	-16.8882	0	
2.5513	2.40924	-22.6521	0	
2.5520	2.40924	-26.341	0	
2.5527	3.61386	-31.8167	0	
2.5533	4.81849	-36.082	0	
2.5540	2.68302	-34.2376	0	
2.5547	1.4784	-22.0757	0	
2.5553	2.68302	-0.403473	0	
2.5560	4.21617	22.8251	0	
2.5567	3.61386	44.7855	0	
2.5573	2.40924	57.5814	0	
2.5580	1.4784	51.8175	0	
2.5587	-0.328533	37.1772	0	
2.5593	-2.464	26.1681	0	
2.5600	-3.12106	17.9257	0	
2.5607	-2.19022	14.2945	0	
2.5613	-3.12106	12.1042	0	
2.5620	-5.53031	6.0521	0	
2.5627	-5.85884	6.91668	0	
2.5633	-3.39484	17.0035	0	
2.5640	-1.58791	21.2688	0	
2.5647	-3.12106	22.5369	0	
2.5653	-3.72338	28.3008	0	
2.5660	-1.25938	30.4334	0	
2.5667	-1.25938	29.223	0	
2.5673	-2.464	29.857	0	
2.5680	-0.328533	25.2459	0	
2.5687	1.4784	16.7153	0	
2.5693	0.876088	10.6056	0	
2.5700	2.40924	2.6514	0	
2.5707	2.68302	-7.72363	0	
2.5713	1.14987	-11.9889	0	
2.5720	3.01155	-13.8334	0	
2.5727	6.95395	-16.2542	0	
2.5733	7.61102	-17.4646	0	
2.5740	7.61102	-18.675	0	
2.5747	6.07786	-20.5195	0	
2.5753	2.08071	-17.7528	0	
2.5760	2.08071	-10.7785	0	
2.5767	4.21617	-2.53612	0	
2.5773	0.273778	10.3174	0	
2.5780	-2.464	20.3466	0	
2.5787	1.4784	17.2917	0	
2.5793	2.40924	10.3174	0	
2.5800	-2.19022	8.76113	0	
2.5807	-3.12106	6.91668	0	
2.5813	-2.79253	5.12987	0	
2.5820	-4.928	6.34029	0	
2.5827	-4.928	4.20765	0	
2.5833	-3.39484	0.518751	0	
2.5840	-3.72338	2.07501	0	
2.5847	-3.99715	3.28542	0	
2.5853	-2.19022	1.44098	0	
2.5860	0.273778	1.44098	0	
2.5867	0.547555	-1.61389	0	
2.5873	-1.25938	-10.4327	0	
2.5880	-1.25938	-16.5424	0	
2.5887	2.08071	-15.0438	0	
2.5893	1.4784	-11.0667	0	
2.5900	0.547555	-8.64585	0	
2.5907	4.54471	-8.30002	0	
2.5913	6.07786	-8.64585	0	
2.5920	2.40924	-7.72363	0	
2.5927	2.40924	-7.3778	0	
2.5933	5.14702	-4.32293	0	
2.5940	3.61386	2.6514	0	
2.5947	3.28533	6.0521	0	
2.5953	5.14702	4.20765	0	
2.5960	2.40924	4.20765	0	
2.5967	-0.328533	5.41807	0	
2.5973	0.876088	4.49584	0	
2.5980	0.273778	3.91945	0	
2.5987	-3.12106	0.230556	0	
2.5993	-4.928	-9.85627	0	
2.6000	-6.73493	-20.8077	0	
2.6007	-7.06346	-30.2605	0	
2.6013	-4.32569	-41.5577	0	
2.6020	-3.99715	-49.2237	0	
2.6027	-4.928	-45.823	0	
2.6033	-2.19022	-39.7709	0	
2.6040	-1.86169	-43.6904	0	
2.6047	-4.928	-40.6355	0	
2.6053	-3.99715	-8.01183	0	
2.6060	-2.19022	38.3876	0	
2.6067	-2.464	63.4029	0	
2.6073	0.273778	60.9821	0	
2.6080	5.14702	46.63	0	
2.6087	4.81849	34.6987	0	
2.6093	1.4784	30.4334	0	
2.6100	-0.0547555	29.5112	0	
2.6107	0.547555	25.2459	0	
2.6113	3.01155	23.4014	0	
2.6120	5.14702	31.6438	0	
2.6127	4.81849	33.2001	0	
2.6133	3.61386	9.97155	0	
2.6140	5.14702	-19.0209	0	
2.6147	6.95395	-25.073	0	
2.6153	5.74933	-15.0438	0	
2.6160	2.40924	-8.93405	0	
2.6167	1.80693	-7.72363	0	
2.6173	1.80693	-10.4327	0	
2.6180	-1.25938	-15.0438	0	
2.6187	-3.99715	-15.966	0	
2.6193	-2.79253	-15.332	0	
2.6200	-0.985599	-15.966	0	
2.6207	-1.86169	-12.9111	0	
2.6213	-3.39484	-14.4098	0	
2.6220	-2.19022	-22.6521	0	
2.6227	-1.25938	-14.4098	0	
2.6233	-3.99715	7.83891	0	
2.6240	-4.59946	10.8938	0	
2.6247	-1.86169	-4.95696	0	
2.6253	-1.25938	-4.95696	0	
2.6260	-2.19022	17.9257	0	
2.6267	-1.25938	30.7216	0	
2.6273	-0.328533	16.7153	0	
2.6280	-0.328533	-1.26806	0	
2.6287	1.4784	-6.16738	0	
2.6293	2.68302	-8.30002	0	
2.6300	2.08071	-11.3549	0	
2.6307	2.08071	-9.51044	0	
2.6313	3.9424	-8.93405	0	
2.6320	5.74933	-10.1445	0	
2.6327	5.14702	-3.74654	0	
2.6333	3.28533	5.41807	0	
2.6340	3.28533	8.76113	0	
2.6347	5.14702	9.68336	0	
2.6353	4.81849	9.10697	0	
2.6360	3.28533	7.83891	0	
2.6367	1.14987	10.3174	0	
2.6373	-0.0547555	13.0264	0	
2.6380	-0.0547555	14.2945	0	
2.6387	-0.657066	19.7702	0	
2.6393	-2.464	29.223	0	
2.6400	-2.464	33.4883	0	
2.6407	-1.58791	27.0903	0	
2.6413	-2.464	12.45	0	
2.6420	-4.32569	-0.403473	0	
2.6427	-4.928	-3.11251	0	
2.6433	-4.59946	-4.95696	0	
2.6440	-3.39484	-11.6431	0	
2.6447	-3.39484	-12.5653	0	
2.6453	-4.32569	-6.80141	0	
2.6460	-3.99715	-7.0896	0	
2.6467	-2.79253	-13.4875	0	
2.6473	-2.19022	-19.5973	0	
2.6480	-0.0547555	-25.4188	0	
2.6487	1.4784	-29.6841	0	
2.6493	0.876088	-28.1278	0	
2.6500	1.4784	-25.9952	0	
2.6507	1.4784	-27.2633	0	
2.6513	-0.328533	-27.8397	0	
2.6520	1.4784	-24.4966	0	
2.6527	6.35164	-21.4417	0	
2.6533	6.07786	-29.0501	0	
2.6540	3.9424	-44.3244	0	
2.6547	6.68017	-48.5897	0	
2.6553	7.88479	-37.0043	0	
2.6560	3.28533	-26.9174	0	
2.6567	-0.0547555	-19.3091	0	
2.6573	-0.328533	2.07501	0	
2.6580	-0.657066	32.5661	0	
2.6587	0.547555	53.0279	0	
2.6593	1.80693	53.6619	0	
2.6600	-1.58791	41.0966	0	
2.6607	-4.32569	27.0903	0	
2.6613	-3.12106	19.482	0	
2.6620	-2.19022	18.2139	0	
2.6627	-1.86169	21.6146	0	
2.6633	-0.328533	21.6146	0	
2.6640	-2.79253	14.5827	0	
2.6647	-4.928	12.45	0	
2.6653	-2.79253	19.482	0	
2.6660	-1.25938	24.3237	0	
2.6667	-0.657066	20.9806	0	
2.6673	2.68302	13.3723	0	
2.6680	2.68302	5.41807	0	
2.6687	-0.328533	0.864585	0	
2.6693	1.80693	1.15278	0	
2.6700	5.4208	2.07501	0	
2.6707	4.81849	-0.403473	0	
2.6713	4.21617	-3.74654	0	
2.6720	4.54471	-3.45834	0	
2.6727	3.9424	-2.53612	0	
2.6733	5.14702	-5.87918	0	
2.6740	6.68017	-10.7785	0	
2.6747	5.14702	-13.1993	0	
2.6753	4.21617	-14.1216	0	
2.6760	4.54471	-15.0438	0	
2.6767	3.61386	-13.1993	0	
2.6773	2.40924	-10.4327	0	
2.6780	1.14987	-12.2771	0	
2.6787	-0.0547555	-13.4875	0	
2.6793	0.547555	-10.7785	0	
2.6800	0.273778	-14.1216	0	
2.6807	-2.19022	-24.2084	0	
2.6813	-2.464	-30.2605	0	
2.6820	-2.79253	-37.0043	0	
2.6827	-5.53031	-43.4022	0	
2.6833	-6.13262	-42.48	0	
2.6840	-3.12106	-42.48	0	
2.6847	-3.12106	-37.9265	0	
2.6853	-5.25653	-4.03473	0	
2.6860	-4.928	42.9411	0	
2.6867	-3.99715	61.9043	0	
2.6873	-3.72338	54.5265	0	
2.6880	-1.25938	40.8084	0	
2.6887	0.876088	26.8021	0	
2.6893	0.547555	18.848	0	
2.6900	0.547555	15.7931	0	
2.6907	3.01155	11.5278	0	
2.6913	3.01155	12.45	0	
2.6920	1.80693	12.45	0	
2.6927	3.28533	7.83891	0	
2.6933	5.14702	16.0813	0	
2.6940	3.28533	32.2779	0	
2.6947	2.40924	32.2779	0	
2.6953	3.61386	20.6924	0	
2.6960	2.68302	11.2396	0	
2.6967	1.14987	4.20765	0	
2.6973	2.40924	0.230556	0	
2.6980	1.4784	-2.53612	0	
2.6987	-1.25938	-7.72363	0	
2.6993	-1.58791	-8.64585	0	
2.7000	-1.25938	-7.0896	0	
2.7007	-2.79253	-9.51044	0	
2.7013	-2.464	-10.4327	0	
2.7020	-1.58791	-6.80141	0	
2.7027	-3.12106	-5.59099	0	
2.7033	-3.72338	-3.11251	0	
2.7040	-3.12106	6.34029	0	
2.7047	-3.12106	19.7702	0	
2.7053	-2.19022	29.857	0	
2.7060	-0.328533	28.0126	0	
2.7067	0.547555	17.9257	0	
2.7073	1.80693	9.68336	0	
2.7080	3.28533	4.20765	0	
2.7087	2.08071	0.518751	0	
2.7093	0.273778	1.44098	0	
2.7100	1.4784	5.12987	0	
2.7107	4.21617	6.0521	0	
2.7113	6.35164	4.20765	0	
2.7120	6.07786	1.15278	0	
2.7127	4.81849	1.44098	0	
2.7133	2.08071	4.78404	0	
2.7140	-2.19022	5.41807	0	
2.7147	-3.12106	5.12987	0	
2.7153	-1.25938	7.83891	0	
2.7160	0.547555	6.0521	0	
2.7167	1.80693	-10.4327	0	
2.7173	3.61386	-34.2376	0	
2.7180	1.4784	-47.3793	0	
2.7187	-2.79253	-46.1689	0	
2.7193	-3.12106	-40.6355	0	
2.7200	-3.12106	-39.1369	0	
2.7207	-4.32569	-40.6355	0	
2.7213	-3.39484	-44.0362	0	
2.7220	-0.657066	-41.9036	0	
2.7227	-2.19022	-21.7299	0	
2.7233	-5.85884	11.5278	0	
2.7240	-6.73493	34.4105	0	
2.7247	-3.99715	32.9119	0	
2.7253	-3.12106	17.9257	0	
2.7260	-4.59946	6.0521	0	
2.7267	-3.39484	1.44098	0	
2.7273	-0.328533	1.15278	0	
2.7280	0.876088	0.518751	0	
2.7287	0.547555	-1.26806	0	
2.7293	1.4784	-0.691668	0	
2.7300	3.01155	2.07501	0	
2.7307	3.28533	2.07501	0	
2.7313	2.40924	-0.979863	0	
2.7320	2.08071	-1.61389	0	
2.7327	2.68302	-1.90209	0	
2.7333	4.21617	-3.74654	0	
2.7340	4.21617	-4.32293	0	
2.7347	2.68302	-3.74654	0	
2.7353	2.40924	-3.11251	0	
2.7360	3.28533	-2.53612	0	
2.7367	0.273778	-1.61389	0	
2.7373	-3.39484	-1.90209	0	
2.7380	-1.25938	-1.26806	0	
2.7387	0.273778	-1.26806	0	
2.7393	-3.12106	-1.26806	0	
2.7400	-3.99715	0.230556	0	
2.7407	-2.19022	2.99723	0	
2.7413	-3.99715	4.20765	0	
2.7420	-5.85884	2.3632	0	
2.7427	-5.53031	-4.66876	0	
2.7433	-5.85884	-12.9111	0	
2.7440	-5.25653	-15.332	0	
2.7447	-3.99715	-10.1445	0	
2.7453	-3.72338	-0.979863	0	
2.7460	-1.58791	8.18474	0	
2.7467	-0.0547555	13.6604	0	
2.7473	-0.657066	15.1591	0	
2.7480	-0.0547555	13.0264	0	
2.7487	2.40924	8.47294	0	
2.7493	2.40924	5.70626	0	
2.7500	2.68302	7.26252	0	
2.7507	4.21617	7.83891	0	
2.7513	3.61386	3.28542	0	
2.7520	2.68302	0.518751	0	
2.7527	4.21617	1.44098	0	
2.7533	3.61386	-0.403473	0	
2.7540	0.273778	-9.22224	0	
2.7547	-0.328533	-21.7299	0	
2.7553	2.08071	-31.1827	0	
2.7560	2.40924	-30.6063	0	
2.7567	1.14987	-26.341	0	
2.7573	1.4784	-25.9952	0	
2.7580	1.14987	-24.4966	0	
2.7587	-0.328533	-19.8855	0	
2.7593	-0.328533	-18.0987	0	
2.7600	-0.0547555	-21.7299	0	
2.7607	-1.25938	-31.1827	0	
2.7613	-3.72338	-40.0591	0	
2.7620	-4.928	-40.9813	0	
2.7627	-4.59946	-38.2147	0	
2.7633	-3.12106	-29.6841	0	
2.7640	-2.464	1.15278	0	
2.7647	-3.72338	50.8953	0	
2.7653	-3.39484	88.4183	0	
2.7660	-1.25938	93.0294	0	
2.7667	0.273778	67.6682	0	
2.7673	0.547555	39.8862	0	
2.7680	2.08071	30.4334	0	
2.7687	4.21617	29.5112	0	
2.7693	3.9424	30.7216	0	
2.7700	2.40924	44.7855	0	
2.7707	4.21617	60.6363	0	
2.7713	5.14702	55.4487	0	
2.7720	2.40924	40.232	0	
2.7727	-0.0547555	31.3556	0	
2.7733	0.547555	25.2459	0	
2.7740	0.547555	19.1362	0	
2.7747	1.4784	14.5827	0	
2.7753	4.81849	8.76113	0	
2.7760	5.4208	0.230556	0	
2.7767	1.4784	-11.0667	0	
2.7773	-1.86169	-18.675	0	
2.7780	-2.19022	-17.1764	0	
2.7787	-0.985599	-16.5424	0	
2.7793	-0.0547555	-21.7299	0	
2.7800	-1.25938	-22.0757	0	
2.7807	-2.79253	-16.8882	0	
2.7813	-3.72338	-15.0438	0	
2.7820	-5.25653	-15.0438	0	
2.7827	-4.928	-13.1993	0	
2.7833	-2.19022	-15.0438	0	
2.7840	-1.25938	-20.5195	0	
2.7847	-2.19022	-22.9403	0	
2.7853	-0.985599	-23.2862	0	
2.7860	-0.328533	-25.9952	0	
2.7867	-2.19022	-27.8397	0	
2.7873	-0.985599	-28.7619	0	
2.7880	1.14987	-28.7619	0	
2.7887	0.547555	-20.8077	0	
2.7893	1.14987	-0.979863	0	
2.7900	3.28533	18.848	0	
2.7907	-0.0547555	21.6146	0	
2.7913	-2.19022	10.6056	0	
2.7920	1.4784	0.518751	0	
2.7927	2.40924	-1.61389	0	
2.7933	1.4784	-1.90209	0	
2.7940	3.9424	-4.03473	0	
2.7947	2.08071	-5.24515	0	
2.7953	-2.464	-4.66876	0	
2.7960	-1.25938	-4.32293	0	
2.7967	-0.657066	-5.24515	0	
2.7973	-4.928	-2.53612	0	
2.7980	-3.99715	2.07501	0	
2.7987	-1.86169	2.6514	0	
2.7993	-5.85884	4.20765	0	
2.8000	-6.46115	12.45	0	
2.8007	-2.19022	20.6924	0	
2.8013	-3.12106	18.848	0	
2.8020	-6.13262	13.9486	0	
2.8027	-3.99715	13.3723	0	
2.8033	-2.19022	12.45	0	
2.8040	-3.39484	10.6056	0	
2.8047	-4.928	10.6056	0	
2.8053	-4.32569	9.39516	0	
2.8060	-3.12106	8.18474	0	
2.8067	-0.328533	10.8938	0	
2.8073	2.08071	11.5278	0	
2.8080	1.14987	6.91668	0	
2.8087	-1.25938	5.12987	0	
2.8093	-0.0547555	6.62849	0	
2.8100	2.08071	2.3632	0	
2.8107	1.4784	-6.16738	0	
2.8113	1.4784	-10.4327	0	
2.8120	3.28533	-9.51044	0	
2.8127	2.40924	-5.87918	0	
2.8133	1.4784	-2.53612	0	
2.8140	1.80693	0.518751	0	
2.8147	1.4784	2.3632	0	
2.8153	-0.0547555	-3.11251	0	
2.8160	0.273778	-22.9403	0	
2.8167	-1.25938	-48.0133	0	
2.8173	-3.12106	-61.0974	0	
2.8180	-3.12106	-58.6765	0	
2.8187	-3.12106	-53.489	0	
2.8193	-3.99715	-53.489	0	
2.8200	-3.99715	-49.8001	0	
2.8207	-4.928	-24.7848	0	
2.8213	-5.85884	15.1591	0	
2.8220	-4.928	40.232	0	
2.8227	-4.928	37.1772	0	
2.8233	-5.85884	24.6695	0	
2.8240	-5.85884	17.6375	0	
2.8247	-5.25653	15.5049	0	
2.8253	-4.928	16.4271	0	
2.8260	-3.99715	17.0035	0	
2.8267	-1.25938	15.1591	0	
2.8273	2.40924	14.2945	0	
2.8280	4.21617	14.2945	0	
2.8287	3.28533	13.9486	0	
2.8293	3.28533	15.5049	0	
2.8300	5.14702	14.2945	0	
2.8307	4.81849	3.57362	0	
2.8313	4.54471	-5.24515	0	
2.8320	6.07786	-1.90209	0	
2.8327	5.14702	2.3632	0	
2.8333	4.21617	-1.90209	0	
2.8340	6.68017	-4.03473	0	
2.8347	5.14702	-4.95696	0	
2.8353	-0.328533	-13.1993	0	
2.8360	-1.25938	-23.8626	0	
2.8367	1.4784	-32.1049	0	
2.8373	1.14987	-41.5577	0	
2.8380	0.273778	-48.0133	0	
2.8387	-0.0547555	-51.6446	0	
2.8393	-1.58791	-53.7772	0	
2.8400	-2.79253	-32.739	0	
2.8407	-1.25938	19.7702	0	
2.8413	-0.657066	64.6134	0	
2.8420	-1.86169	74.0662	0	
2.8427	-1.25938	61.9043	0	
2.8433	0.547555	42.6529	0	
2.8440	-0.328533	23.4014	0	
2.8447	-2.19022	14.2945	0	
2.8453	-2.19022	9.68336	0	
2.8460	-0.0547555	4.20765	0	
2.8467	2.08071	2.6514	0	
2.8473	3.28533	4.20765	0	
2.8480	2.40924	4.20765	0	
2.8487	2.68302	5.12987	0	
2.8493	4.81849	8.76113	0	
2.8500	4.81849	17.6375	0	
2.8507	4.81849	25.2459	0	
2.8513	6.68017	25.2459	0	
2.8520	6.35164	22.191	0	
2.8527	4.21617	20.9806	0	
2.8533	5.14702	15.1591	0	
2.8540	6.07786	6.0521	0	
2.8547	5.14702	0.230556	0	
2.8553	5.14702	-4.32293	0	
2.8560	5.14702	-11.3549	0	
2.8567	1.80693	-16.8882	0	
2.8573	-0.328533	-18.675	0	
2.8580	-0.0547555	-21.1535	0	
2.8587	-1.86169	-26.341	0	
2.8593	-3.72338	-29.9723	0	
2.8600	-1.25938	-29.9723	0	
2.8607	-1.25938	-30.6063	0	
2.8613	-4.59946	-32.1049	0	
2.8620	-4.928	-30.6063	0	
2.8627	-3.12106	-26.9174	0	
2.8633	-3.72338	-17.4646	0	
2.8640	-3.99715	3.91945	0	
2.8647	-1.25938	24.3237	0	
2.8653	-0.328533	27.7244	0	
2.8660	-3.12106	21.6146	0	
2.8667	-2.79253	15.1591	0	
2.8673	0.547555	6.34029	0	
2.8680	1.4784	0.518751	0	
2.8687	-0.657066	5.70626	0	
2.8693	0.547555	11.5278	0	
2.8700	4.54471	11.5278	0	
2.8707	5.4208	7.55071	0	
2.8713	2.40924	1.44098	0	
2.8720	0.547555	-2.19028	0	
2.8727	1.4784	1.44098	0	
2.8733	1.80693	2.99723	0	
2.8740	1.80693	-5.59099	0	
2.8747	3.28533	-15.0438	0	
2.8753	5.14702	-20.2313	0	
2.8760	4.54471	-20.2313	0	
2.8767	5.14702	-13.4875	0	
2.8773	4.81849	-4.95696	0	
2.8780	1.14987	-3.74654	0	
2.8787	-0.328533	-8.64585	0	
2.8793	2.40924	-10.4327	0	
2.8800	0.547555	-7.72363	0	
2.8807	-4.928	-3.74654	0	
2.8813	-6.46115	2.99723	0	
2.8820	-6.46115	12.1042	0	
2.8827	-8.59662	19.1362	0	
2.8833	-7.66577	18.848	0	
2.8840	-4.928	9.97155	0	
2.8847	-4.928	-2.19028	0	
2.8853	-4.928	-9.22224	0	
2.8860	-0.657066	-10.1445	0	
2.8867	1.4784	-9.51044	0	
2.8873	0.547555	-8.30002	0	
2.8880	0.547555	-4.95696	0	
2.8887	1.4784	-2.53612	0	
2.8893	2.68302	-4.32293	0	
2.8900	5.14702	-9.85627	0	
2.8907	4.81849	-12.9111	0	
2.8913	3.61386	-10.4327	0	
2.8920	6.35164	-4.66876	0	
2.8927	6.95395	3.28542	0	
2.8933	3.01155	14.5827	0	
2.8940	2.40924	28.0126	0	
2.8947	2.40924	35.0445	0	
2.8953	-1.58791	30.7216	0	
2.8960	-1.86169	24.0355	0	
2.8967	2.40924	20.3466	0	
2.8973	1.4784	9.68336	0	
2.8980	-0.985599	-11.0667	0	
2.8987	-0.657066	-23.5744	0	
2.8993	-3.39484	-18.675	0	
2.9000	-5.85884	-10.1445	0	
2.9007	-3.12106	-4.66876	0	
2.9013	-2.19022	0.230556	0	
2.9020	-4.59946	1.15278	0	
2.9027	-4.928	-0.057639	0	
2.9033	-4.32569	0.518751	0	
2.9040	-3.39484	-1.26806	0	
2.9047	-1.25938	-4.32293	0	
2.9053	-1.25938	-5.24515	0	
2.9060	-1.58791	-7.72363	0	
2.9067	1.4784	-11.0667	0	
2.9073	3.61386	-11.3549	0	
2.9080	3.28533	-10.7785	0	
2.9087	4.21617	-1.90209	0	
2.9093	3.28533	18.5598	0	
2.9100	2.40924	27.0903	0	
2.9107	4.21617	13.3723	0	
2.9113	6.35164	-1.61389	0	
2.9120	5.14702	-3.74654	0	
2.9127	3.01155	0.518751	0	
2.9133	3.01155	5.12987	0	
2.9140	5.14702	7.83891	0	
2.9147	6.07786	8.18474	0	
2.9153	4.21617	7.26252	0	
2.9160	2.68302	6.62849	0	
2.9167	4.21617	4.78404	0	
2.9173	2.40924	1.72917	0	
2.9180	-1.25938	-3.11251	0	
2.9187	-0.328533	-10.7785	0	
2.9193	0.876088	-22.0757	0	
2.9200	-2.464	-31.5285	0	
2.9207	-4.928	-31.8167	0	
2.9213	-3.72338	-29.6841	0	
2.9220	-3.12106	-29.3959	0	
2.9227	-3.39484	-18.675	0	
2.9233	-3.12106	10.6056	0	
2.9240	-3.12106	40.232	0	
2.9247	-3.99715	45.7077	0	
2.9253	-5.25653	28.0126	0	
2.9260	-3.72338	6.91668	0	
2.9267	0.547555	-8.64585	0	
2.9273	0.273778	-23.8626	0	
2.9280	-2.79253	-34.2376	0	
2.9287	-0.985599	-39.7709	0	
2.9293	1.4784	-47.3793	0	
2.9300	-0.657066	-42.48	0	
2.9307	-1.86169	-8.64585	0	
2.9313	0.876088	31.3556	0	
2.9320	2.40924	49.0508	0	
2.9327	2.40924	44.1515	0	
2.9333	2.40924	25.8799	0	
2.9340	2.08071	8.76113	0	
2.9347	0.547555	6.0521	0	
2.9353	-2.464	7.83891	0	
2.9360	-3.72338	9.10697	0	
2.9367	-1.58791	19.7702	0	
2.9373	-1.58791	29.857	0	
2.9380	-4.928	24.9577	0	
2.9387	-4.928	16.7153	0	
2.9393	-2.79253	12.45	0	
2.9400	-3.39484	6.91668	0	
2.9407	-5.85884	4.78404	0	
2.9413	-4.928	6.91668	0	
2.9420	-4.59946	4.49584	0	
2.9427	-6.46115	-0.057639	0	
2.9433	-5.53031	-0.403473	0	
2.9440	-0.985599	-0.057639	0	
2.9447	1.80693	-0.057639	0	
2.9453	1.4784	0.864585	0	
2.9460	-0.0547555	1.15278	0	
2.9467	-1.86169	2.3632	0	
2.9473	-3.12106	3.28542	0	
2.9480	-2.464	0.230556	0	
2.9487	-0.657066	0.230556	0	
2.9493	1.4784	7.55071	0	
2.9500	3.28533	10.6056	0	
2.9507	3.61386	9.68336	0	
2.9513	3.9424	13.0264	0	
2.9520	4.54471	14.2945	0	
2.9527	4.21617	8.18474	0	
2.9533	5.14702	3.28542	0	
2.9540	6.07786	-0.057639	0	
2.9547	3.9424	-4.95696	0	
2.9553	1.4784	-7.3778	0	
2.9560	2.08071	-9.22224	0	
2.9567	1.80693	-12.5653	0	
2.9573	-0.985599	-13.4875	0	
