0.0000	2.01633	-8.10366	1
0.0007	2.31285	-27.3356	0	
0.0013	2.01633	-48.679	0	
0.0020	1.06747	-54.5	0	
0.0027	0.177912	-49.9345	0	
0.0033	0.177912	-50.2199	0	
0.0040	0.177912	-46.2251	0	
0.0047	1.36399	-17.2345	0	
0.0053	0.770951	26.0801	0	
0.0060	-2.60937	53.2445	0	
0.0067	-4.74431	55.6984	0	
0.0073	-3.20241	44.3989	0	
0.0080	-1.06747	26.9932	0	
0.0087	-1.66051	11.4136	0	
0.0093	-3.49893	2.56806	0	
0.0100	-4.09197	-1.36963	0	
0.0107	-4.74431	-2.28272	0	
0.0113	-4.44779	0.456544	0	
0.0120	-3.49893	1.94031	0	
0.0127	-2.60937	0.456544	0	
0.0133	-0.474431	-1.08429	0	
0.0140	1.36399	0.741884	0	
0.0147	0.474431	6.22041	0	
0.0153	1.06747	14.7806	0	
0.0160	3.20241	18.7754	0	
0.0167	3.49893	13.5822	0	
0.0173	3.20241	5.64973	0	
0.0180	2.90589	2.28272	0	
0.0187	1.36399	2.56806	0	
0.0193	1.66051	3.19581	0	
0.0200	2.90589	2.91047	0	
0.0207	2.60937	0.114136	0	
0.0213	3.79545	-3.19581	0	
0.0220	5.04083	-4.1089	0	
0.0227	3.79545	-4.1089	0	
0.0233	1.06747	-5.07905	0	
0.0240	-1.06747	-5.36439	0	
0.0247	-2.31285	-5.07905	0	
0.0253	-1.66051	-6.90523	0	
0.0260	-3.20241	-10.5576	0	
0.0267	-6.58274	-10.5576	0	
0.0273	-6.22691	-7.81832	0	
0.0280	-4.44779	-7.81832	0	
0.0287	-5.63387	-9.92983	0	
0.0293	-6.58274	-4.73665	0	
0.0300	-5.63387	2.28272	0	
0.0307	-5.33735	2.56806	0	
0.0313	-5.04083	2.28272	0	
0.0320	-2.60937	5.02199	0	
0.0327	-0.770951	3.19581	0	
0.0333	-1.36399	-1.36963	0	
0.0340	-1.66051	-4.1089	0	
0.0347	0.177912	-6.56282	0	
0.0353	1.06747	-5.07905	0	
0.0360	1.06747	-1.99738	0	
0.0367	2.90589	-5.99214	0	
0.0373	5.04083	-10.5576	0	
0.0380	4.74431	-9.30209	0	
0.0387	3.20241	-10.8429	0	
0.0393	2.90589	-13.2968	0	
0.0400	3.20241	-8.73141	0	
0.0407	3.79545	-5.64973	0	
0.0413	3.20241	-7.81832	0	
0.0420	1.66051	-7.19057	0	
0.0427	2.01633	-5.07905	0	
0.0433	4.15127	-4.73665	0	
0.0440	3.20241	-2.62513	0	
0.0447	-0.474431	-2.28272	0	
0.0453	-1.36399	-5.07905	0	
0.0460	-1.66051	-5.07905	0	
0.0467	-1.95703	-1.36963	0	
0.0473	0.474431	3.19581	0	
0.0480	2.90589	4.1089	0	
0.0487	-1.95703	1.94031	0	
0.0493	-6.58274	2.28272	0	
0.0500	-4.09197	4.1089	0	
0.0507	-1.66051	2.28272	0	
0.0513	-3.49893	0.741884	0	
0.0520	-3.49893	4.1089	0	
0.0527	-2.31285	6.56282	0	
0.0533	-2.31285	5.30733	0	
0.0540	-1.06747	4.39424	0	
0.0547	0.177912	4.39424	0	
0.0553	0.177912	4.39424	0	
0.0560	1.06747	5.02199	0	
0.0567	2.31285	4.73665	0	
0.0573	1.66051	4.1089	0	
0.0580	2.60937	3.48115	0	
0.0587	5.04083	1.65497	0	
0.0593	5.33735	-1.99738	0	
0.0600	5.63387	-4.1089	0	
0.0607	5.63387	-4.1089	0	
0.0613	2.90589	-5.64973	0	
0.0620	1.06747	-7.19057	0	
0.0627	4.44779	-5.64973	0	
0.0633	4.15127	-5.64973	0	
0.0640	-1.06747	-8.73141	0	
0.0647	-1.06747	-9.30209	0	
0.0653	1.06747	-8.73141	0	
0.0660	-2.31285	-9.64449	0	
0.0667	-4.09197	-7.19057	0	
0.0673	-1.95703	-2.28272	0	
0.0680	-2.60937	-0.456544	0	
0.0687	-4.74431	0.114136	0	
0.0693	-4.09197	0.741884	0	
0.0700	-3.49893	3.19581	0	
0.0707	-2.60937	9.87277	0	
0.0713	-2.31285	13.2398	0	
0.0720	-5.63387	4.1089	0	
0.0727	-6.22691	-10.5576	0	
0.0733	-1.66051	-20.944	0	
0.0740	-1.36399	-25.167	0	
0.0747	-2.90589	-15.123	0	
0.0753	0.770951	13.2398	0	
0.0760	2.31285	45.312	0	
0.0767	0.177912	52.9591	0	
0.0773	2.01633	35.5534	0	
0.0780	3.79545	19.6885	0	
0.0787	0.770951	16.8921	0	
0.0793	0.770951	12.6691	0	
0.0800	4.15127	7.76125	0	
0.0807	3.20241	10.2152	0	
0.0813	0.770951	8.95968	0	
0.0820	2.31285	1.02722	0	
0.0827	3.79545	-0.798952	0	
0.0833	1.36399	2.91047	0	
0.0840	0.177912	1.36963	0	
0.0847	1.36399	-2.91047	0	
0.0853	-0.770951	-5.99214	0	
0.0860	-2.90589	-8.389	0	
0.0867	-1.06747	-5.36439	0	
0.0873	-1.06747	-0.171204	0	
0.0880	-4.44779	-0.456544	0	
0.0887	-4.44779	-1.36963	0	
0.0893	-3.79545	-0.456544	0	
0.0900	-6.22691	-4.1089	0	
0.0907	-7.17578	-9.64449	0	
0.0913	-6.22691	-15.123	0	
0.0920	-6.22691	-24.2539	0	
0.0927	-5.33735	-29.7895	0	
0.0933	-2.90589	-26.1371	0	
0.0940	-0.474431	-26.1371	0	
0.0947	2.60937	-20.6016	0	
0.0953	2.01633	13.2398	0	
0.0960	0.474431	53.8722	0	
0.0967	2.90589	62.7177	0	
0.0973	4.74431	44.3989	0	
0.0980	1.36399	21.5146	0	
0.0987	1.06747	5.64973	0	
0.0993	4.15127	2.28272	0	
0.1000	5.33735	7.47591	0	
0.1007	4.74431	10.8429	0	
0.1013	4.15127	12.0414	0	
0.1020	4.44779	10.8429	0	
0.1027	5.33735	6.84816	0	
0.1033	3.79545	5.30733	0	
0.1040	2.90589	6.84816	0	
0.1047	5.63387	5.02199	0	
0.1053	4.74431	0.456544	0	
0.1060	-0.770951	-2.91047	0	
0.1067	-1.36399	-3.53822	0	
0.1073	-0.474431	-5.36439	0	
0.1080	-3.20241	-9.64449	0	
0.1087	-3.49893	-13.0115	0	
0.1093	-2.90589	-13.2968	0	
0.1100	-6.22691	-12.3838	0	
0.1107	-7.47229	-9.64449	0	
0.1113	-6.87926	-4.4513	0	
0.1120	-6.22691	-1.71204	0	
0.1127	-4.44779	1.65497	0	
0.1133	-3.20241	3.82356	0	
0.1140	-2.90589	-10.8429	0	
0.1147	-1.06747	-34.3549	0	
0.1153	-0.474431	-36.1811	0	
0.1160	-1.66051	-20.0309	0	
0.1167	0.474431	-14.8377	0	
0.1173	2.01633	-16.0361	0	
0.1180	-1.66051	-9.64449	0	
0.1187	-1.66051	0.741884	0	
0.1193	2.31285	7.76125	0	
0.1200	3.49893	9.58743	0	
0.1207	3.79545	4.73665	0	
0.1213	3.79545	1.36963	0	
0.1220	3.79545	4.1089	0	
0.1227	4.44779	3.48115	0	
0.1233	3.49893	1.36963	0	
0.1240	1.06747	2.56806	0	
0.1247	1.66051	-1.36963	0	
0.1253	0.474431	-9.01675	0	
0.1260	-2.31285	-12.3838	0	
0.1267	0.474431	-15.4084	0	
0.1273	3.20241	-16.0361	0	
0.1280	-0.474431	-11.4707	0	
0.1287	-2.31285	-9.92983	0	
0.1293	-1.36399	-10.5576	0	
0.1300	-3.49893	-6.90523	0	
0.1307	-4.74431	-3.53822	0	
0.1313	-1.66051	-2.62513	0	
0.1320	0.177912	0.456544	0	
0.1327	-0.474431	2.28272	0	
0.1333	-0.770951	0.456544	0	
0.1340	0.474431	0.741884	0	
0.1347	1.36399	1.94031	0	
0.1353	2.01633	-0.456544	0	
0.1360	2.90589	-1.08429	0	
0.1367	4.44779	0.741884	0	
0.1373	2.90589	-0.456544	0	
0.1380	0.474431	-3.82356	0	
0.1387	2.01633	-4.1089	0	
0.1393	3.79545	-2.28272	0	
0.1400	4.15127	-2.28272	0	
0.1407	5.04083	-2.91047	0	
0.1413	4.74431	-2.62513	0	
0.1420	2.90589	-2.91047	0	
0.1427	5.04083	-1.36963	0	
0.1433	7.17578	3.19581	0	
0.1440	3.79545	4.1089	0	
0.1447	0.770951	2.28272	0	
0.1453	1.06747	2.28272	0	
0.1460	0.770951	2.28272	0	
0.1467	-0.474431	-0.456544	0	
0.1473	-0.474431	-4.1089	0	
0.1480	-1.06747	-6.56282	0	
0.1487	-2.31285	-5.64973	0	
0.1493	-2.60937	-2.91047	0	
0.1500	-1.95703	-3.19581	0	
0.1507	-2.90589	-4.4513	0	
0.1513	-3.49893	-3.53822	0	
0.1520	-1.66051	-3.19581	0	
0.1527	0.177912	-5.07905	0	
0.1533	-0.770951	-5.07905	0	
0.1540	-1.66051	-4.4513	0	
0.1547	1.36399	-4.1089	0	
0.1553	2.60937	-1.36963	0	
0.1560	0.177912	3.48115	0	
0.1567	0.474431	4.73665	0	
0.1573	3.79545	5.93507	0	
0.1580	3.79545	13.5822	0	
0.1587	2.90589	23.3408	0	
0.1593	4.44779	25.7947	0	
0.1600	4.44779	22.4277	0	
0.1607	2.31285	16.6068	0	
0.1613	1.06747	10.2152	0	
0.1620	-0.118608	5.93507	0	
0.1627	-0.474431	6.22041	0	
0.1633	1.06747	6.56282	0	
0.1640	1.06747	2.91047	0	
0.1647	-0.770951	1.36963	0	
0.1653	-1.66051	5.30733	0	
0.1660	-2.31285	6.22041	0	
0.1667	-2.60937	2.56806	0	
0.1673	-2.31285	1.65497	0	
0.1680	-3.49893	2.91047	0	
0.1687	-5.63387	2.91047	0	
0.1693	-7.17578	3.19581	0	
0.1700	-7.47229	2.28272	0	
0.1707	-6.22691	1.02722	0	
0.1713	-4.74431	2.28272	0	
0.1720	-5.04083	3.19581	0	
0.1727	-4.74431	0.741884	0	
0.1733	-2.31285	-1.36963	0	
0.1740	0.177912	-1.71204	0	
0.1747	0.177912	-2.28272	0	
0.1753	-0.770951	-3.19581	0	
0.1760	-1.66051	-5.64973	0	
0.1767	-0.770951	-6.90523	0	
0.1773	1.06747	-5.36439	0	
0.1780	2.90589	-3.82356	0	
0.1787	5.63387	-1.71204	0	
0.1793	5.93039	-0.456544	0	
0.1800	3.79545	0.456544	0	
0.1807	2.31285	5.02199	0	
0.1813	2.01633	6.22041	0	
0.1820	2.01633	-3.19581	0	
0.1827	2.90589	-11.756	0	
0.1833	4.15127	-14.4953	0	
0.1840	3.20241	-21.5146	0	
0.1847	-0.770951	-28.534	0	
0.1853	-3.20241	-33.1565	0	
0.1860	-1.66051	-36.1811	0	
0.1867	-1.66051	-16.3215	0	
0.1873	-3.79545	24.2539	0	
0.1880	-4.44779	47.1382	0	
0.1887	-4.44779	45.312	0	
0.1893	-5.33735	37.6649	0	
0.1900	-5.04083	22.9984	0	
0.1907	-4.09197	8.67434	0	
0.1913	-5.33735	11.756	0	
0.1920	-5.33735	17.8623	0	
0.1927	-3.49893	14.1529	0	
0.1933	-5.33735	11.1283	0	
0.1940	-6.22691	9.87277	0	
0.1947	-1.66051	3.82356	0	
0.1953	1.06747	-3.82356	0	
0.1960	0.177912	-11.4707	0	
0.1967	-0.770951	-23.3408	0	
0.1973	0.770951	-36.1811	0	
0.1980	3.79545	-43.4858	0	
0.1987	5.04083	-46.2251	0	
0.1993	1.36399	-49.0214	0	
0.2000	0.770951	-46.5675	0	
0.2007	3.49893	-22.4277	0	
0.2013	2.90589	22.4277	0	
0.2020	2.31285	57.1821	0	
0.2027	4.74431	63.9162	0	
0.2033	4.74431	50.5052	0	
0.2040	2.60937	34.6403	0	
0.2047	2.01633	24.2539	0	
0.2053	0.474431	17.5199	0	
0.2060	-1.95703	13.5822	0	
0.2067	-1.36399	12.9544	0	
0.2073	0.177912	11.4136	0	
0.2080	-1.36399	9.87277	0	
0.2087	-2.60937	13.2398	0	
0.2093	-1.36399	14.1529	0	
0.2100	-1.95703	12.0414	0	
0.2107	-6.22691	14.1529	0	
0.2113	-6.58274	15.066	0	
0.2120	-2.60937	11.756	0	
0.2127	-2.60937	10.2152	0	
0.2133	-5.63387	-0.456544	0	
0.2140	-3.49893	-23.0555	0	
0.2147	0.177912	-32.5288	0	
0.2153	0.177912	-19.6885	0	
0.2160	-1.66051	-8.389	0	
0.2167	-1.95703	-7.81832	0	
0.2173	-0.770951	-8.73141	0	
0.2180	2.90589	-6.27748	0	
0.2187	4.74431	-4.4513	0	
0.2193	1.66051	-5.64973	0	
0.2200	1.06747	-6.90523	0	
0.2207	3.20241	-4.73665	0	
0.2213	2.31285	-3.53822	0	
0.2220	0.177912	-5.07905	0	
0.2227	1.06747	-5.07905	0	
0.2233	1.36399	-8.389	0	
0.2240	-1.36399	-16.0361	0	
0.2247	-4.09197	-16.9492	0	
0.2253	-3.79545	-11.4707	0	
0.2260	-1.95703	-9.92983	0	
0.2267	-2.60937	-9.92983	0	
0.2273	-3.79545	-7.81832	0	
0.2280	-1.66051	-7.81832	0	
0.2287	-0.474431	-7.19057	0	
0.2293	-4.44779	-4.1089	0	
0.2300	-4.44779	-4.4513	0	
0.2307	-1.06747	-7.47591	0	
0.2313	-2.31285	-8.73141	0	
0.2320	-2.60937	-7.81832	0	
0.2327	1.36399	-5.07905	0	
0.2333	1.36399	-1.99738	0	
0.2340	0.177912	0.456544	0	
0.2347	3.79545	4.1089	0	
0.2353	5.63387	6.22041	0	
0.2360	5.33735	4.1089	0	
0.2367	6.58274	3.19581	0	
0.2373	5.33735	5.64973	0	
0.2380	3.79545	5.02199	0	
0.2387	5.63387	2.28272	0	
0.2393	5.04083	1.36963	0	
0.2400	2.01633	-0.798952	0	
0.2407	2.31285	-3.19581	0	
0.2413	3.79545	-1.71204	0	
0.2420	4.74431	0.456544	0	
0.2427	5.63387	-0.456544	0	
0.2433	2.01633	-2.28272	0	
0.2440	-0.474431	-2.62513	0	
0.2447	1.06747	-2.28272	0	
0.2453	-0.474431	-3.19581	0	
0.2460	-4.09197	-3.82356	0	
0.2467	-2.90589	-3.19581	0	
0.2473	-1.95703	-2.91047	0	
0.2480	-3.20241	-3.19581	0	
0.2487	-2.60937	-4.4513	0	
0.2493	-2.31285	-6.56282	0	
0.2500	-3.20241	-7.81832	0	
0.2507	-1.66051	-9.30209	0	
0.2513	-2.31285	-10.5576	0	
0.2520	-4.09197	-9.64449	0	
0.2527	-2.31285	-6.90523	0	
0.2533	-1.36399	-5.99214	0	
0.2540	-3.20241	-4.73665	0	
0.2547	-1.66051	-3.19581	0	
0.2553	1.06747	-4.1089	0	
0.2560	1.06747	-4.73665	0	
0.2567	0.770951	-3.19581	0	
0.2573	1.06747	-1.99738	0	
0.2580	0.474431	-0.171204	0	
0.2587	-0.474431	2.91047	0	
0.2593	0.770951	5.30733	0	
0.2600	2.31285	8.389	0	
0.2607	2.60937	9.87277	0	
0.2613	2.60937	8.389	0	
0.2620	2.90589	7.1335	0	
0.2627	2.60937	6.56282	0	
0.2633	-0.118608	5.30733	0	
0.2640	-2.60937	6.84816	0	
0.2647	-2.60937	6.84816	0	
0.2653	-1.36399	2.56806	0	
0.2660	-1.66051	1.36963	0	
0.2667	-4.44779	4.1089	0	
0.2673	-6.58274	4.73665	0	
0.2680	-6.58274	3.48115	0	
0.2687	-5.33735	2.56806	0	
0.2693	-5.04083	-0.171204	0	
0.2700	-4.09197	-0.456544	0	
0.2707	-3.20241	0.741884	0	
0.2713	-3.79545	-1.71204	0	
0.2720	-3.79545	-1.71204	0	
0.2727	-1.66051	1.94031	0	
0.2733	-0.770951	2.56806	0	
0.2740	-1.06747	2.56806	0	
0.2747	0.177912	4.1089	0	
0.2753	1.66051	2.56806	0	
0.2760	2.01633	1.36963	0	
0.2767	2.90589	3.19581	0	
0.2773	3.20241	2.91047	0	
0.2780	2.60937	2.91047	0	
0.2787	2.31285	3.19581	0	
0.2793	2.90589	0.456544	0	
0.2800	3.20241	1.65497	0	
0.2807	3.79545	5.93507	0	
0.2813	3.49893	3.19581	0	
0.2820	2.01633	1.65497	0	
0.2827	2.90589	7.1335	0	
0.2833	3.20241	9.58743	0	
0.2840	-0.474431	9.87277	0	
0.2847	-2.31285	13.8675	0	
0.2853	-0.474431	14.1529	0	
0.2860	1.36399	12.0414	0	
0.2867	2.01633	13.2398	0	
0.2873	1.66051	11.756	0	
0.2880	-1.66051	8.04659	0	
0.2887	-5.04083	8.389	0	
0.2893	-4.74431	6.84816	0	
0.2900	-3.49893	1.65497	0	
0.2907	-4.09197	-2.91047	0	
0.2913	-5.93039	-8.73141	0	
0.2920	-6.22691	-16.3215	0	
0.2927	-4.44779	-30.0748	0	
0.2933	-3.20241	-56.9539	0	
0.2940	-3.49893	-82.235	0	
0.2947	-2.60937	-83.2052	0	
0.2953	0.770951	-59.9785	0	
0.2960	3.79545	-20.6016	0	
0.2967	3.79545	26.0801	0	
0.2973	2.90589	58.0952	0	
0.2980	4.15127	60.5492	0	
0.2987	5.63387	45.312	0	
0.2993	4.74431	28.8193	0	
0.3000	2.60937	18.7754	0	
0.3007	3.49893	15.6937	0	
0.3013	3.79545	14.1529	0	
0.3020	1.06747	12.0414	0	
0.3027	1.06747	10.8429	0	
0.3033	4.44779	8.67434	0	
0.3040	2.90589	6.84816	0	
0.3047	-1.36399	7.76125	0	
0.3053	-3.20241	7.47591	0	
0.3060	-2.60937	4.39424	0	
0.3067	-1.66051	3.19581	0	
0.3073	-0.770951	2.56806	0	
0.3080	-2.60937	0.741884	0	
0.3087	-3.49893	0.114136	0	
0.3093	-3.20241	-0.456544	0	
0.3100	-3.79545	-1.08429	0	
0.3107	-1.95703	1.65497	0	
0.3113	0.177912	4.39424	0	
0.3120	-3.49893	4.73665	0	
0.3127	-5.33735	5.02199	0	
0.3133	-1.66051	5.30733	0	
0.3140	0.177912	3.48115	0	
0.3147	-0.118608	1.36963	0	
0.3153	-0.474431	0.114136	0	
0.3160	-1.95703	0.456544	0	
0.3167	-0.474431	0.114136	0	
0.3173	3.49893	-8.389	0	
0.3180	1.66051	-20.3162	0	
0.3187	-0.118608	-23.9686	0	
0.3193	3.20241	-25.167	0	
0.3200	3.79545	-33.7272	0	
0.3207	1.06747	-38.2926	0	
0.3213	1.66051	-23.0555	0	
0.3220	2.90589	8.67434	0	
0.3227	2.60937	37.0371	0	
0.3233	1.06747	39.8335	0	
0.3240	-2.31285	21.5146	0	
0.3247	-3.79545	6.84816	0	
0.3253	-1.66051	5.30733	0	
0.3260	-1.66051	2.56806	0	
0.3267	-2.60937	-5.07905	0	
0.3273	-1.66051	-8.389	0	
0.3280	-3.49893	-5.07905	0	
0.3287	-6.22691	-0.171204	0	
0.3293	-4.44779	5.02199	0	
0.3300	-1.66051	9.30209	0	
0.3307	-1.36399	10.8429	0	
0.3313	-1.36399	10.5005	0	
0.3320	-1.36399	8.95968	0	
0.3327	-2.60937	5.02199	0	
0.3333	-1.95703	0.456544	0	
0.3340	-0.770951	-1.36963	0	
0.3347	-0.770951	-0.456544	0	
0.3353	1.06747	0.456544	0	
0.3360	3.49893	-0.456544	0	
0.3367	2.60937	-3.19581	0	
0.3373	2.01633	-4.73665	0	
0.3380	4.74431	-3.82356	0	
0.3387	5.33735	-4.1089	0	
0.3393	3.79545	-4.1089	0	
0.3400	5.33735	-0.456544	0	
0.3407	6.58274	1.02722	0	
0.3413	3.49893	-3.19581	0	
0.3420	0.177912	-6.27748	0	
0.3427	0.177912	-4.73665	0	
0.3433	0.177912	-2.62513	0	
0.3440	-0.770951	-1.36963	0	
0.3447	-0.770951	-2.28272	0	
0.3453	-0.770951	-4.1089	0	
0.3460	-1.95703	-5.07905	0	
0.3467	-2.60937	-3.82356	0	
0.3473	-3.49893	-2.62513	0	
0.3480	-3.79545	-3.82356	0	
0.3487	-3.20241	-6.90523	0	
0.3493	-3.20241	-7.47591	0	
0.3500	-3.20241	-3.19581	0	
0.3507	-2.90589	1.02722	0	
0.3513	-4.44779	0.114136	0	
0.3520	-4.74431	-0.798952	0	
0.3527	-1.06747	3.19581	0	
0.3533	1.66051	8.04659	0	
0.3540	0.474431	8.95968	0	
0.3547	-0.474431	6.56282	0	
0.3553	0.177912	2.91047	0	
0.3560	1.36399	0.114136	0	
0.3567	2.90589	-1.71204	0	
0.3573	3.79545	-2.62513	0	
0.3580	5.63387	-0.456544	0	
0.3587	7.47229	2.28272	0	
0.3593	6.58274	1.02722	0	
0.3600	3.49893	-2.28272	0	
0.3607	1.66051	-3.19581	0	
0.3613	1.06747	-3.19581	0	
0.3620	1.06747	-4.1089	0	
0.3627	2.01633	-4.1089	0	
0.3633	1.36399	-1.71204	0	
0.3640	-0.474431	-1.99738	0	
0.3647	-1.66051	-4.73665	0	
0.3653	-3.79545	-4.4513	0	
0.3660	-5.63387	-1.08429	0	
0.3667	-4.44779	-0.456544	0	
0.3673	-2.60937	-1.36963	0	
0.3680	-3.79545	0.456544	0	
0.3687	-6.22691	1.36963	0	
0.3693	-5.93039	-0.456544	0	
0.3700	-4.09197	1.02722	0	
0.3707	-3.79545	5.93507	0	
0.3713	-4.74431	6.22041	0	
0.3720	-4.09197	5.02199	0	
0.3727	-1.66051	6.84816	0	
0.3733	-0.118608	7.76125	0	
0.3740	-1.66051	5.02199	0	
0.3747	-1.66051	6.22041	0	
0.3753	1.06747	9.30209	0	
0.3760	1.06747	11.4136	0	
0.3767	0.177912	13.2398	0	
0.3773	2.60937	2.56806	0	
0.3780	3.20241	-23.6832	0	
0.3787	-1.06747	-37.0942	0	
0.3793	-1.06747	-27.0502	0	
0.3800	2.31285	-15.7508	0	
0.3807	1.06747	-12.6691	0	
0.3813	-1.06747	-9.92983	0	
0.3820	1.06747	-8.389	0	
0.3827	2.90589	-7.19057	0	
0.3833	2.60937	-3.82356	0	
0.3840	1.06747	-3.82356	0	
0.3847	-1.36399	-6.27748	0	
0.3853	-2.60937	-5.99214	0	
0.3860	-1.66051	-7.81832	0	
0.3867	-1.36399	-10.5576	0	
0.3873	-1.66051	-8.389	0	
0.3880	-1.95703	-2.62513	0	
0.3887	-3.49893	0.456544	0	
0.3893	-3.79545	1.94031	0	
0.3900	-3.49893	3.19581	0	
0.3907	-3.49893	2.56806	0	
0.3913	-2.90589	0.741884	0	
0.3920	-1.36399	-0.456544	0	
0.3927	-0.474431	-0.456544	0	
0.3933	-0.474431	-0.798952	0	
0.3940	-0.770951	-0.456544	0	
0.3947	-2.60937	0.456544	0	
0.3953	-0.770951	1.65497	0	
0.3960	5.93039	2.91047	0	
0.3967	8.42116	3.82356	0	
0.3973	2.60937	2.56806	0	
0.3980	-1.36399	0.741884	0	
0.3987	3.20241	-0.171204	0	
0.3993	6.58274	-0.798952	0	
0.4000	4.15127	-1.99738	0	
0.4007	4.15127	-2.28272	0	
0.4013	7.47229	-2.91047	0	
0.4020	6.28622	-4.1089	0	
0.4027	2.60937	-7.47591	0	
0.4033	2.01633	-15.123	0	
0.4040	2.90589	-22.4277	0	
0.4047	1.06747	-23.6832	0	
0.4053	-0.770951	-25.167	0	
0.4060	-1.66051	-32.8141	0	
0.4067	-2.31285	-38.635	0	
0.4073	-1.66051	-37.0942	0	
0.4080	0.177912	-34.3549	0	
0.4087	0.177912	-26.1371	0	
0.4093	-3.79545	2.91047	0	
0.4100	-6.58274	45.9398	0	
0.4107	-4.09197	75.501	0	
0.4113	0.177912	76.4141	0	
0.4120	-0.770951	57.5246	0	
0.4127	-3.49893	36.1241	0	
0.4133	-1.36399	23.9115	0	
0.4140	1.06747	19.6885	0	
0.4147	-1.66051	16.8921	0	
0.4153	-1.36399	16.3215	0	
0.4160	3.79545	16.6068	0	
0.4167	3.79545	14.1529	0	
0.4173	1.06747	11.4136	0	
0.4180	2.60937	11.4136	0	
0.4187	4.15127	9.30209	0	
0.4193	1.36399	5.93507	0	
0.4200	1.06747	7.76125	0	
0.4207	4.44779	8.04659	0	
0.4213	6.58274	4.39424	0	
0.4220	3.79545	5.02199	0	
0.4227	0.770951	8.67434	0	
0.4233	-0.474431	6.84816	0	
0.4240	-2.31285	0.456544	0	
0.4247	-3.49893	-7.47591	0	
0.4253	-1.95703	-13.5822	0	
0.4260	-2.60937	-16.0361	0	
0.4267	-5.93039	-19.1178	0	
0.4273	-5.63387	-27.0502	0	
0.4280	-4.44779	-33.4419	0	
0.4287	-5.63387	-35.8958	0	
0.4293	-6.58274	-31.2733	0	
0.4300	-6.22691	-7.19057	0	
0.4307	-6.22691	29.1047	0	
0.4313	-5.93039	47.1382	0	
0.4320	-6.87926	38.578	0	
0.4327	-7.76881	23.3408	0	
0.4333	-5.33735	13.8675	0	
0.4340	-1.95703	9.58743	0	
0.4347	-1.95703	9.58743	0	
0.4353	-2.31285	10.5005	0	
0.4360	0.177912	9.30209	0	
0.4367	2.01633	5.93507	0	
0.4373	2.60937	4.39424	0	
0.4380	2.90589	5.02199	0	
0.4387	3.79545	4.73665	0	
0.4393	2.31285	2.91047	0	
0.4400	0.770951	1.36963	0	
0.4407	2.01633	0.456544	0	
0.4413	3.49893	-0.798952	0	
0.4420	0.770951	-3.53822	0	
0.4427	-1.06747	-6.90523	0	
0.4433	-0.118608	-8.73141	0	
0.4440	1.06747	-7.47591	0	
0.4447	0.177912	-5.36439	0	
0.4453	-2.31285	-6.90523	0	
0.4460	-4.74431	-9.30209	0	
0.4467	-4.44779	-10.5576	0	
0.4473	-3.20241	-13.2968	0	
0.4480	-3.49893	-16.6639	0	
0.4487	-5.33735	-14.2099	0	
0.4493	-6.87926	-9.64449	0	
0.4500	-4.09197	-8.389	0	
0.4507	-0.474431	-8.73141	0	
0.4513	-2.60937	-7.19057	0	
0.4520	-5.63387	-5.36439	0	
0.4527	-2.31285	-3.82356	0	
0.4533	0.474431	-2.91047	0	
0.4540	-1.66051	-5.07905	0	
0.4547	-0.770951	-5.99214	0	
0.4553	3.49893	-1.36963	0	
0.4560	3.79545	0.456544	0	
0.4567	2.60937	-3.82356	0	
0.4573	2.90589	-5.99214	0	
0.4580	2.90589	-4.4513	0	
0.4587	3.79545	-5.07905	0	
0.4593	6.58274	-6.90523	0	
0.4600	6.87926	-6.27748	0	
0.4607	3.20241	-4.1089	0	
0.4613	2.90589	-4.1089	0	
0.4620	5.93039	-6.56282	0	
0.4627	5.63387	-8.389	0	
0.4633	0.474431	-5.99214	0	
0.4640	-0.474431	-2.62513	0	
0.4647	3.20241	-2.28272	0	
0.4653	1.66051	-3.19581	0	
0.4660	-2.60937	-0.798952	0	
0.4667	-1.66051	1.36963	0	
0.4673	0.770951	-0.456544	0	
0.4680	-1.36399	-2.28272	0	
0.4687	-2.60937	-0.456544	0	
0.4693	-1.66051	2.91047	0	
0.4700	-1.95703	4.1089	0	
0.4707	-1.36399	2.56806	0	
0.4713	0.177912	0.114136	0	
0.4720	0.177912	-0.456544	0	
0.4727	-0.474431	-0.171204	0	
0.4733	0.177912	0.114136	0	
0.4740	-1.66051	0.741884	0	
0.4747	-3.20241	2.91047	0	
0.4753	0.177912	2.28272	0	
0.4760	3.79545	0.456544	0	
0.4767	2.31285	1.02722	0	
0.4773	0.770951	1.94031	0	
0.4780	2.90589	0.741884	0	
0.4787	3.49893	0.456544	0	
0.4793	2.90589	0.741884	0	
0.4800	2.90589	0.456544	0	
0.4807	2.01633	1.65497	0	
0.4813	1.66051	2.56806	0	
0.4820	2.90589	0.741884	0	
0.4827	1.06747	1.02722	0	
0.4833	-2.31285	5.02199	0	
0.4840	-1.66051	7.76125	0	
0.4847	-0.770951	9.58743	0	
0.4853	-2.31285	11.756	0	
0.4860	-3.20241	14.1529	0	
0.4867	-4.74431	15.979	0	
0.4873	-7.17578	18.7754	0	
0.4880	-6.87926	20.6016	0	
0.4887	-6.58274	14.1529	0	
0.4893	-8.06533	-5.99214	0	
0.4900	-7.17578	-23.3408	0	
0.4907	-4.74431	-22.4277	0	
0.4913	-3.79545	-14.2099	0	
0.4920	-3.49893	-12.3838	0	
0.4927	-3.49893	-12.6691	0	
0.4933	-0.770951	-12.3838	0	
0.4940	2.01633	-12.0984	0	
0.4947	1.06747	-11.4707	0	
0.4953	-0.770951	-11.4707	0	
0.4960	1.06747	-9.01675	0	
0.4967	2.90589	-3.53822	0	
0.4973	3.20241	-1.08429	0	
0.4980	6.58274	-0.171204	0	
0.4987	9.0142	5.64973	0	
0.4993	5.63387	8.67434	0	
0.5000	2.90589	4.1089	0	
0.5007	4.15127	-0.171204	0	
0.5013	4.74431	0.741884	0	
0.5020	2.31285	3.19581	0	
0.5027	0.474431	3.19581	0	
0.5033	1.06747	2.91047	0	
0.5040	2.90589	2.28272	0	
0.5047	2.01633	-0.456544	0	
0.5053	-1.36399	-1.36963	0	
0.5060	-2.90589	1.94031	0	
0.5067	-2.60937	1.94031	0	
0.5073	-3.20241	0.456544	0	
0.5080	-3.79545	4.1089	0	
0.5087	-3.49893	5.93507	0	
0.5093	-3.49893	3.19581	0	
0.5100	-3.79545	5.64973	0	
0.5107	-5.04083	8.67434	0	
0.5113	-5.63387	4.39424	0	
0.5120	-3.49893	1.36963	0	
0.5127	-1.66051	1.36963	0	
0.5133	-3.49893	-2.91047	0	
0.5140	-4.44779	-4.73665	0	
0.5147	-1.06747	-0.456544	0	
0.5153	1.06747	1.02722	0	
0.5160	2.01633	-1.99738	0	
0.5167	3.20241	-1.36963	0	
0.5173	2.01633	1.65497	0	
0.5180	1.06747	2.28272	0	
0.5187	4.15127	1.36963	0	
0.5193	4.74431	2.28272	0	
0.5200	0.770951	3.19581	0	
0.5207	0.177912	1.36963	0	
0.5213	2.90589	-1.36963	0	
0.5220	4.15127	-0.456544	0	
0.5227	3.79545	3.19581	0	
0.5233	3.49893	4.1089	0	
0.5240	2.31285	1.65497	0	
0.5247	0.177912	1.65497	0	
0.5253	-0.118608	1.36963	0	
0.5260	1.06747	-6.90523	0	
0.5267	2.01633	-15.4084	0	
0.5273	0.177912	-18.7754	0	
0.5280	-1.36399	-22.1424	0	
0.5287	-0.770951	-26.4225	0	
0.5293	0.177912	-28.8764	0	
0.5300	-2.60937	-32.1864	0	
0.5307	-4.74431	-26.1371	0	
0.5313	-4.44779	5.30733	0	
0.5320	-3.20241	47.7659	0	
0.5327	-1.66051	70.6502	0	
0.5333	0.177912	68.4816	0	
0.5340	0.770951	52.3314	0	
0.5347	1.06747	35.211	0	
0.5353	2.60937	25.4523	0	
0.5360	2.60937	21.5146	0	
0.5367	2.01633	12.6691	0	
0.5373	2.60937	-1.36963	0	
0.5380	2.31285	-14.8377	0	
0.5387	1.66051	-25.167	0	
0.5393	1.36399	-34.3549	0	
0.5400	-0.118608	-43.4858	0	
0.5407	-1.36399	-47.7659	0	
0.5413	0.177912	-34.6403	0	
0.5420	0.177912	-1.36963	0	
0.5427	-0.474431	28.8193	0	
0.5433	1.06747	31.5586	0	
0.5440	0.474431	17.8623	0	
0.5447	-1.95703	5.93507	0	
0.5453	-2.31285	-2.28272	0	
0.5460	-1.95703	-6.90523	0	
0.5467	-3.49893	-6.90523	0	
0.5473	-3.20241	-6.90523	0	
0.5480	-1.36399	-6.90523	0	
0.5487	-3.49893	-3.19581	0	
0.5493	-6.22691	-1.08429	0	
0.5500	-4.74431	-1.71204	0	
0.5507	-2.60937	-1.08429	0	
0.5513	-3.49893	-1.99738	0	
0.5520	-3.79545	-2.91047	0	
0.5527	-2.60937	1.36963	0	
0.5533	-1.95703	3.19581	0	
0.5540	-0.118608	0.741884	0	
0.5547	2.01633	8.389	0	
0.5553	2.01633	22.4277	0	
0.5560	1.66051	25.167	0	
0.5567	3.20241	17.8623	0	
0.5573	3.20241	12.3267	0	
0.5580	2.01633	8.67434	0	
0.5587	3.20241	7.1335	0	
0.5593	4.74431	5.30733	0	
0.5600	4.44779	0.456544	0	
0.5607	3.49893	-1.36963	0	
0.5613	2.60937	1.02722	0	
0.5620	2.90589	-0.456544	0	
0.5627	3.79545	-4.1089	0	
0.5633	2.31285	-4.1089	0	
0.5640	0.177912	-3.82356	0	
0.5647	0.177912	-3.53822	0	
0.5653	0.770951	-1.36963	0	
0.5660	-0.474431	-1.36963	0	
0.5667	-1.66051	-3.82356	0	
0.5673	-2.90589	-1.99738	0	
0.5680	-5.04083	0.456544	0	
0.5687	-6.58274	-0.798952	0	
0.5693	-6.22691	-1.71204	0	
0.5700	-5.04083	-1.71204	0	
0.5707	-3.49893	-3.19581	0	
0.5713	-2.60937	-4.1089	0	
0.5720	-2.60937	-2.91047	0	
0.5727	-3.49893	-3.53822	0	
0.5733	-2.60937	-6.56282	0	
0.5740	-0.118608	-9.01675	0	
0.5747	-0.118608	-11.1283	0	
0.5753	-1.66051	-14.4953	0	
0.5760	0.177912	-17.2345	0	
0.5767	1.36399	-15.7508	0	
0.5773	0.770951	-12.6691	0	
0.5780	2.90589	-12.3838	0	
0.5787	5.33735	-12.0984	0	
0.5793	4.44779	-9.64449	0	
0.5800	2.90589	-7.81832	0	
0.5807	2.90589	-7.81832	0	
0.5813	2.31285	-7.81832	0	
0.5820	2.90589	-6.90523	0	
0.5827	3.20241	-5.07905	0	
0.5833	1.06747	-4.1089	0	
0.5840	0.474431	-4.73665	0	
0.5847	1.36399	-4.4513	0	
0.5853	-0.770951	-3.19581	0	
0.5860	-3.20241	-2.28272	0	
0.5867	-3.20241	-1.36963	0	
0.5873	-2.60937	0.456544	0	
0.5880	-3.20241	0.741884	0	
0.5887	-4.09197	2.28272	0	
0.5893	-2.60937	5.02199	0	
0.5900	-0.770951	1.36963	0	
0.5907	-2.60937	-6.56282	0	
0.5913	-4.09197	-7.47591	0	
0.5920	-3.20241	-2.28272	0	
0.5927	-2.60937	0.456544	0	
0.5933	-1.95703	1.36963	0	
0.5940	0.177912	2.28272	0	
0.5947	-0.770951	3.19581	0	
0.5953	-1.95703	5.64973	0	
0.5960	-1.06747	8.389	0	
0.5967	-0.770951	8.04659	0	
0.5973	0.177912	8.67434	0	
0.5980	1.36399	10.8429	0	
0.5987	2.01633	9.87277	0	
0.5993	4.44779	5.93507	0	
0.6000	5.33735	5.02199	0	
0.6007	3.20241	4.1089	0	
0.6013	4.44779	0.456544	0	
0.6020	6.28622	-1.36963	0	
0.6027	2.31285	-0.456544	0	
0.6033	0.177912	-1.99738	0	
0.6040	1.66051	-3.19581	0	
0.6047	0.177912	-1.71204	0	
0.6053	-2.60937	-1.36963	0	
0.6060	-2.31285	-1.08429	0	
0.6067	-1.66051	1.02722	0	
0.6073	-2.31285	2.56806	0	
0.6080	-3.20241	2.56806	0	
0.6087	-3.20241	3.19581	0	
0.6093	-2.60937	5.93507	0	
0.6100	-3.20241	8.04659	0	
0.6107	-3.49893	9.58743	0	
0.6113	-2.31285	11.4136	0	
0.6120	-1.95703	10.5005	0	
0.6127	-1.66051	-1.99738	0	
0.6133	0.474431	-19.6885	0	
0.6140	0.770951	-23.3408	0	
0.6147	-0.118608	-11.4707	0	
0.6153	1.66051	-2.91047	0	
0.6160	3.49893	-3.53822	0	
0.6167	2.01633	-4.1089	0	
0.6173	1.06747	-1.99738	0	
0.6180	2.60937	-5.07905	0	
0.6187	4.44779	-11.4707	0	
0.6193	3.49893	-16.9492	0	
0.6200	2.90589	-26.1371	0	
0.6207	4.44779	-35.8958	0	
0.6213	4.44779	-37.722	0	
0.6220	1.36399	-38.9204	0	
0.6227	1.66051	-37.722	0	
0.6233	2.90589	-12.3838	0	
0.6240	-0.118608	31.901	0	
0.6247	-1.36399	60.5492	0	
0.6253	1.06747	59.9785	0	
0.6260	0.177912	42.5727	0	
0.6267	-1.66051	25.167	0	
0.6273	1.06747	16.3215	0	
0.6280	1.06747	12.3267	0	
0.6287	-3.49893	8.95968	0	
0.6293	-5.33735	8.95968	0	
0.6300	-3.20241	11.1283	0	
0.6307	-0.474431	10.2152	0	
0.6313	-1.36399	7.76125	0	
0.6320	-3.49893	7.47591	0	
0.6327	-1.95703	8.67434	0	
0.6333	0.770951	9.58743	0	
0.6340	0.474431	6.84816	0	
0.6347	1.36399	1.94031	0	
0.6353	4.15127	0.741884	0	
0.6360	3.20241	-1.99738	0	
0.6367	1.66051	-12.3838	0	
0.6373	2.90589	-24.8817	0	
0.6380	3.49893	-33.1565	0	
0.6387	3.79545	-32.5288	0	
0.6393	4.74431	-13.0115	0	
0.6400	3.20241	23.3408	0	
0.6407	1.36399	49.2497	0	
0.6413	2.90589	43.4858	0	
0.6420	4.44779	22.9984	0	
0.6427	3.79545	12.9544	0	
0.6433	1.66051	9.58743	0	
0.6440	-2.31285	7.47591	0	
0.6447	-3.79545	8.95968	0	
0.6453	-1.66051	8.67434	0	
0.6460	-1.06747	5.02199	0	
0.6467	-2.60937	6.84816	0	
0.6473	-5.33735	9.87277	0	
0.6480	-7.17578	7.76125	0	
0.6487	-6.58274	3.19581	0	
0.6493	-6.58274	-1.36963	0	
0.6500	-8.06533	-4.73665	0	
0.6507	-7.17578	-5.64973	0	
0.6513	-4.09197	-11.1283	0	
0.6520	-2.60937	-19.1178	0	
0.6527	-2.31285	-17.2345	0	
0.6533	-1.36399	-10.2152	0	
0.6540	0.177912	-6.90523	0	
0.6547	1.66051	-4.1089	0	
0.6553	1.06747	-2.28272	0	
0.6560	0.474431	-2.91047	0	
0.6567	3.20241	-1.71204	0	
0.6573	4.44779	-1.08429	0	
0.6580	2.90589	-3.19581	0	
0.6587	4.15127	-4.1089	0	
0.6593	6.58274	-3.82356	0	
0.6600	4.44779	-4.73665	0	
0.6607	1.66051	-5.07905	0	
0.6613	-0.118608	-5.36439	0	
0.6620	-0.770951	-7.81832	0	
0.6627	1.06747	-10.5576	0	
0.6633	1.36399	-10.2152	0	
0.6640	-0.118608	-8.389	0	
0.6647	-0.474431	-7.81832	0	
0.6653	-2.31285	-8.10366	0	
0.6660	-5.93039	-6.56282	0	
0.6667	-5.33735	-3.53822	0	
0.6673	-3.20241	-4.1089	0	
0.6680	-4.44779	-6.27748	0	
0.6687	-5.33735	-6.27748	0	
0.6693	-3.49893	-5.36439	0	
0.6700	-4.44779	-6.27748	0	
0.6707	-5.33735	-5.07905	0	
0.6713	-4.74431	-0.798952	0	
0.6720	-3.20241	-2.28272	0	
0.6727	-1.66051	-8.73141	0	
0.6733	-0.474431	-8.73141	0	
0.6740	-0.118608	-2.91047	0	
0.6747	-0.118608	-3.19581	0	
0.6753	0.177912	-10.8429	0	
0.6760	1.06747	-22.4277	0	
0.6767	2.60937	-32.5288	0	
0.6773	1.36399	-35.268	0	
0.6780	0.474431	-33.4419	0	
0.6787	1.36399	-33.7272	0	
0.6793	0.770951	-34.6403	0	
0.6800	-1.06747	-32.8141	0	
0.6807	-0.770951	-27.0502	0	
0.6813	0.474431	-10.5576	0	
0.6820	-0.118608	17.5199	0	
0.6827	-1.95703	48.0513	0	
0.6833	-4.09197	66.0277	0	
0.6840	-4.44779	63.0031	0	
0.6847	-3.49893	41.945	0	
0.6853	-4.44779	20.8869	0	
0.6860	-6.22691	14.4953	0	
0.6867	-6.22691	15.4084	0	
0.6873	-4.74431	10.5005	0	
0.6880	-3.49893	5.64973	0	
0.6887	-4.74431	7.76125	0	
0.6893	-5.33735	9.58743	0	
0.6900	-3.20241	6.56282	0	
0.6907	-1.36399	5.64973	0	
0.6913	-1.95703	3.19581	0	
0.6920	-1.66051	-4.1089	0	
0.6927	-1.95703	-7.19057	0	
0.6933	-1.95703	-3.19581	0	
0.6940	1.06747	-3.19581	0	
0.6947	2.60937	-7.81832	0	
0.6953	1.06747	-5.07905	0	
0.6960	1.06747	6.84816	0	
0.6967	2.60937	12.3267	0	
0.6973	2.01633	5.93507	0	
0.6980	3.20241	0.456544	0	
0.6987	6.58274	2.28272	0	
0.6993	6.87926	4.1089	0	
0.7000	5.93039	3.19581	0	
0.7007	7.47229	3.48115	0	
0.7013	9.0142	5.02199	0	
0.7020	7.17578	6.84816	0	
0.7027	5.33735	7.1335	0	
0.7033	4.74431	4.1089	0	
0.7040	2.90589	1.65497	0	
0.7047	1.06747	3.19581	0	
0.7053	1.66051	1.65497	0	
0.7060	0.770951	-1.71204	0	
0.7067	-1.66051	1.36963	0	
0.7073	-1.66051	7.47591	0	
0.7080	-0.474431	6.84816	0	
0.7087	-2.60937	4.1089	0	
0.7093	-5.04083	4.39424	0	
0.7100	-4.44779	4.39424	0	
0.7107	-1.36399	4.1089	0	
0.7113	0.770951	2.91047	0	
0.7120	-1.95703	-0.171204	0	
0.7127	-5.33735	-1.08429	0	
0.7133	-2.90589	2.28272	0	
0.7140	1.66051	3.48115	0	
0.7147	3.20241	1.36963	0	
0.7153	2.90589	-1.71204	0	
0.7160	2.90589	-6.27748	0	
0.7167	3.79545	-7.81832	0	
0.7173	4.44779	-5.36439	0	
0.7180	4.74431	-6.90523	0	
0.7187	5.93039	-11.1283	0	
0.7193	5.33735	-8.73141	0	
0.7200	3.79545	-5.36439	0	
0.7207	4.44779	-9.64449	0	
0.7213	3.79545	-11.4707	0	
0.7220	1.66051	-9.01675	0	
0.7227	2.01633	-11.4707	0	
0.7233	1.06747	-15.123	0	
0.7240	-1.66051	-12.6691	0	
0.7247	-0.770951	-9.64449	0	
0.7253	1.06747	-3.19581	0	
0.7260	-0.770951	8.67434	0	
0.7267	-1.95703	12.3267	0	
0.7273	-1.95703	6.56282	0	
0.7280	-2.31285	5.02199	0	
0.7287	-1.06747	5.30733	0	
0.7293	-1.36399	1.94031	0	
0.7300	-2.90589	4.1089	0	
0.7307	-1.66051	9.58743	0	
0.7313	0.177912	10.5005	0	
0.7320	-1.95703	10.5005	0	
0.7327	-3.20241	10.2152	0	
0.7333	-1.36399	6.22041	0	
0.7340	-1.36399	5.93507	0	
0.7347	-1.36399	8.04659	0	
0.7353	2.31285	5.93507	0	
0.7360	4.44779	1.36963	0	
0.7367	1.36399	-4.1089	0	
0.7373	0.770951	-12.0984	0	
0.7380	4.74431	-17.2345	0	
0.7387	3.79545	-19.6885	0	
0.7393	-1.06747	-25.5094	0	
0.7400	0.474431	-34.3549	0	
0.7407	4.74431	-38.9204	0	
0.7413	2.90589	-32.1864	0	
0.7420	-0.770951	-5.99214	0	
0.7427	0.177912	29.1047	0	
0.7433	0.770951	44.3989	0	
0.7440	-1.66051	33.0994	0	
0.7447	-4.44779	14.1529	0	
0.7453	-5.33735	0.114136	0	
0.7460	-3.79545	-8.73141	0	
0.7467	-2.60937	-9.64449	0	
0.7473	-4.44779	-7.47591	0	
0.7480	-7.17578	-7.19057	0	
0.7487	-5.63387	-6.56282	0	
0.7493	-4.09197	-5.07905	0	
0.7500	-5.33735	-5.36439	0	
0.7507	-6.22691	-2.62513	0	
0.7513	-5.04083	0.456544	0	
0.7520	-3.20241	-4.1089	0	
0.7527	-0.474431	-7.47591	0	
0.7533	0.177912	-4.1089	0	
0.7540	-2.60937	-5.07905	0	
0.7547	-3.20241	-7.47591	0	
0.7553	1.06747	-5.07905	0	
0.7560	3.20241	-4.1089	0	
0.7567	1.66051	-9.64449	0	
0.7573	1.66051	-12.6691	0	
0.7580	3.79545	-12.3838	0	
0.7587	3.20241	-10.2152	0	
0.7593	0.474431	-6.56282	0	
0.7600	-0.118608	-3.82356	0	
0.7607	0.474431	0.114136	0	
0.7613	1.36399	6.56282	0	
0.7620	2.31285	10.2152	0	
0.7627	1.06747	7.47591	0	
0.7633	-1.66051	3.48115	0	
0.7640	-1.36399	5.30733	0	
0.7647	0.770951	11.1283	0	
0.7653	-1.06747	11.4136	0	
0.7660	-3.79545	5.93507	0	
0.7667	-3.20241	3.48115	0	
0.7673	-1.95703	3.19581	0	
0.7680	-3.20241	1.02722	0	
0.7687	-5.33735	-0.456544	0	
0.7693	-7.47229	-2.28272	0	
0.7700	-7.47229	-7.19057	0	
0.7707	-5.33735	-13.2968	0	
0.7713	-4.44779	-17.5769	0	
0.7720	-4.44779	-19.1178	0	
0.7727	-2.31285	-19.6885	0	
0.7733	-1.66051	-21.5146	0	
0.7740	-2.90589	-12.3838	0	
0.7747	0.177912	19.3461	0	
0.7753	5.63387	61.1769	0	
0.7760	4.44779	88.969	0	
0.7767	1.66051	86.5151	0	
0.7773	3.79545	48.0513	0	
0.7780	4.15127	2.28272	0	
0.7787	2.01633	-13.2968	0	
0.7793	2.01633	-4.73665	0	
0.7800	2.90589	-1.36963	0	
0.7807	0.474431	-5.07905	0	
0.7813	-1.36399	-7.19057	0	
0.7820	-0.770951	-7.81832	0	
0.7827	0.177912	-5.99214	0	
0.7833	0.474431	-3.19581	0	
0.7840	-0.474431	-2.91047	0	
0.7847	-2.90589	-5.36439	0	
0.7853	-4.44779	-5.99214	0	
0.7860	-4.09197	-5.36439	0	
0.7867	-3.49893	-5.07905	0	
0.7873	-3.49893	-3.53822	0	
0.7880	-4.44779	-0.171204	0	
0.7887	-5.33735	1.36963	0	
0.7893	-5.33735	0.456544	0	
0.7900	-2.90589	-0.798952	0	
0.7907	-0.474431	-2.62513	0	
0.7913	-1.06747	-5.07905	0	
0.7920	-2.31285	-5.36439	0	
0.7927	-0.770951	-4.1089	0	
0.7933	-0.474431	-3.19581	0	
0.7940	-2.60937	-4.1089	0	
0.7947	-0.118608	-5.36439	0	
0.7953	3.79545	-4.4513	0	
0.7960	2.01633	-4.1089	0	
0.7967	0.177912	-5.07905	0	
0.7973	3.79545	-4.1089	0	
0.7980	6.87926	-4.1089	0	
0.7987	6.28622	-10.2152	0	
0.7993	4.74431	-15.123	0	
0.8000	4.74431	-14.4953	0	
0.8007	5.63387	-14.2099	0	
0.8013	5.04083	-15.123	0	
0.8020	3.79545	-15.123	0	
0.8027	2.90589	-15.123	0	
0.8033	1.66051	-13.5822	0	
0.8040	-0.118608	-10.5576	0	
0.8047	-0.770951	-9.64449	0	
0.8053	-0.770951	-9.64449	0	
0.8060	-0.474431	-7.19057	0	
0.8067	-1.66051	-1.99738	0	
0.8073	-3.79545	4.1089	0	
0.8080	-3.49893	4.1089	0	
0.8087	-2.90589	1.36963	0	
0.8093	-5.04083	5.93507	0	
0.8100	-5.04083	12.6691	0	
0.8107	-2.60937	8.67434	0	
0.8113	-3.49893	-0.798952	0	
0.8120	-3.49893	-5.99214	0	
0.8127	0.770951	-6.90523	0	
0.8133	2.01633	-5.07905	0	
0.8140	2.01633	-1.08429	0	
0.8147	3.79545	1.65497	0	
0.8153	3.79545	8.389	0	
0.8160	3.79545	21.5146	0	
0.8167	5.63387	32.8141	0	
0.8173	5.63387	33.7272	0	
0.8180	4.74431	26.0801	0	
0.8187	4.44779	18.1476	0	
0.8193	4.15127	14.1529	0	
0.8200	4.15127	8.67434	0	
0.8207	4.74431	-0.456544	0	
0.8213	4.74431	-3.82356	0	
0.8220	5.63387	-0.456544	0	
0.8227	5.04083	1.65497	0	
0.8233	2.60937	1.36963	0	
0.8240	1.66051	0.114136	0	
0.8247	0.177912	-3.19581	0	
0.8253	-1.66051	-4.1089	0	
0.8260	-0.474431	-1.36963	0	
0.8267	-0.474431	0.114136	0	
0.8273	-2.60937	0.741884	0	
0.8280	-1.36399	1.94031	0	
0.8287	-0.118608	-0.456544	0	
0.8293	-1.66051	-3.19581	0	
0.8300	-1.36399	-1.36963	0	
0.8307	-1.66051	0.114136	0	
0.8313	-3.49893	-2.91047	0	
0.8320	-1.66051	-4.1089	0	
0.8327	1.06747	-2.28272	0	
0.8333	0.770951	-3.19581	0	
0.8340	1.06747	-4.73665	0	
0.8347	1.06747	-0.456544	0	
0.8353	1.06747	2.91047	0	
0.8360	2.01633	0.114136	0	
0.8367	2.90589	-1.08429	0	
0.8373	4.44779	2.28272	0	
0.8380	6.58274	1.65497	0	
0.8387	5.93039	-0.456544	0	
0.8393	4.44779	0.741884	0	
0.8400	5.63387	0.741884	0	
0.8407	4.74431	-1.36963	0	
0.8413	2.01633	-1.36963	0	
0.8420	0.474431	-1.08429	0	
0.8427	0.177912	-0.798952	0	
0.8433	0.177912	0.114136	0	
0.8440	-0.474431	0.456544	0	
0.8447	-1.66051	1.02722	0	
0.8453	-2.31285	1.02722	0	
0.8460	-2.90589	-1.36963	0	
0.8467	-3.49893	-0.456544	0	
0.8473	-3.49893	3.82356	0	
0.8480	-4.44779	3.19581	0	
0.8487	-5.63387	1.94031	0	
0.8493	-4.44779	3.48115	0	
0.8500	-2.31285	5.02199	0	
0.8507	-3.20241	8.389	0	
0.8513	-3.20241	4.1089	0	
0.8520	-1.95703	-18.1476	0	
0.8527	-3.49893	-37.722	0	
0.8533	-5.04083	-33.7272	0	
0.8540	-2.90589	-23.6832	0	
0.8547	0.770951	-20.0309	0	
0.8553	1.66051	-15.123	0	
0.8560	1.36399	-9.64449	0	
0.8567	2.31285	-9.30209	0	
0.8573	1.36399	-9.92983	0	
0.8580	-0.770951	-8.10366	0	
0.8587	0.770951	-7.81832	0	
0.8593	2.31285	-18.49	0	
0.8600	-0.770951	-36.1811	0	
0.8607	-1.36399	-41.6596	0	
0.8613	2.60937	-38.2926	0	
0.8620	4.15127	-43.4858	0	
0.8627	4.15127	-50.8476	0	
0.8633	4.74431	-50.5052	0	
0.8640	2.60937	-45.6544	0	
0.8647	-1.36399	-21.2293	0	
0.8653	-2.31285	28.8193	0	
0.8660	-2.90589	67.9109	0	
0.8667	-3.49893	73.3895	0	
0.8673	-2.60937	62.7177	0	
0.8680	-3.49893	51.7036	0	
0.8687	-4.74431	43.4858	0	
0.8693	-3.49893	40.7466	0	
0.8700	-3.79545	41.3172	0	
0.8707	-5.93039	40.7466	0	
0.8713	-5.33735	39.4911	0	
0.8720	-3.49893	37.3795	0	
0.8727	-3.20241	31.901	0	
0.8733	-3.49893	22.7131	0	
0.8740	-2.60937	11.4136	0	
0.8747	-2.60937	0.456544	0	
0.8753	-1.95703	-5.64973	0	
0.8760	0.474431	-8.10366	0	
0.8767	2.90589	-9.64449	0	
0.8773	1.06747	-11.4707	0	
0.8780	-0.118608	-15.7508	0	
0.8787	3.20241	-22.4277	0	
0.8793	4.44779	-27.9633	0	
0.8800	1.36399	-30.3602	0	
0.8807	-0.474431	-24.5963	0	
0.8813	1.66051	-2.28272	0	
0.8820	5.04083	31.5586	0	
0.8827	5.04083	50.7905	0	
0.8833	1.06747	43.1434	0	
0.8840	-0.474431	27.6209	0	
0.8847	1.06747	21.5146	0	
0.8853	0.177912	19.3461	0	
0.8860	-0.770951	15.4084	0	
0.8867	-0.474431	14.1529	0	
0.8873	-2.60937	15.6937	0	
0.8880	-4.09197	14.7806	0	
0.8887	-2.90589	10.5005	0	
0.8893	-2.90589	6.22041	0	
0.8900	-4.44779	2.28272	0	
0.8907	-4.74431	-3.19581	0	
0.8913	-5.93039	-6.90523	0	
0.8920	-7.17578	-5.99214	0	
0.8927	-5.33735	-4.1089	0	
0.8933	-1.66051	-5.99214	0	
0.8940	-1.06747	-6.56282	0	
0.8947	-2.90589	-6.90523	0	
0.8953	-1.36399	-10.5576	0	
0.8960	2.90589	-13.2968	0	
0.8967	2.90589	-13.2968	0	
0.8973	1.66051	-16.6639	0	
0.8980	3.79545	-20.3162	0	
0.8987	5.93039	-18.49	0	
0.8993	6.58274	-15.7508	0	
0.9000	6.58274	-13.9246	0	
0.9007	6.28622	-10.5576	0	
0.9013	5.04083	-8.73141	0	
0.9020	5.33735	-7.47591	0	
0.9027	5.93039	-3.19581	0	
0.9033	5.63387	-2.91047	0	
0.9040	3.79545	-5.99214	0	
0.9047	1.36399	-5.07905	0	
0.9053	-0.770951	-5.07905	0	
0.9060	-1.36399	-10.5576	0	
0.9067	-0.770951	-12.3838	0	
0.9073	-0.118608	-11.1283	0	
0.9080	-0.474431	-13.0115	0	
0.9087	-0.770951	-16.3215	0	
0.9093	-1.95703	-19.1178	0	
0.9100	-3.49893	-19.1178	0	
0.9107	-3.20241	-13.9246	0	
0.9113	-1.66051	-9.92983	0	
0.9120	-1.66051	-7.19057	0	
0.9127	-1.66051	5.02199	0	
0.9133	-0.770951	19.6885	0	
0.9140	-0.118608	22.4277	0	
0.9147	-0.770951	17.8623	0	
0.9153	-1.06747	15.4084	0	
0.9160	-0.118608	14.4953	0	
0.9167	-0.118608	12.0414	0	
0.9173	-1.06747	-1.08429	0	
0.9180	0.177912	-21.5146	0	
0.9187	1.36399	-26.1371	0	
0.9193	0.770951	-13.2968	0	
0.9200	3.20241	-5.07905	0	
0.9207	6.87926	-3.19581	0	
0.9213	4.74431	-0.798952	0	
0.9220	1.36399	-2.62513	0	
0.9227	2.01633	-3.19581	0	
0.9233	1.36399	1.36963	0	
0.9240	0.177912	0.456544	0	
0.9247	1.06747	-2.28272	0	
0.9253	-0.770951	0.456544	0	
0.9260	-4.74431	0.741884	0	
0.9267	-3.49893	-1.99738	0	
0.9273	-1.66051	0.456544	0	
0.9280	-5.04083	0.456544	0	
0.9287	-9.0142	-3.19581	0	
0.9293	-9.0142	-3.19581	0	
0.9300	-5.33735	-2.28272	0	
0.9307	-2.90589	-5.64973	0	
0.9313	-4.09197	-7.19057	0	
0.9320	-4.74431	-5.07905	0	
0.9327	-2.60937	-2.91047	0	
0.9333	-1.66051	-4.4513	0	
0.9340	-0.474431	-8.389	0	
0.9347	3.49893	-8.73141	0	
0.9353	4.74431	-8.73141	0	
0.9360	3.20241	-17.5769	0	
0.9367	3.49893	-27.9633	0	
0.9373	3.79545	-33.7272	0	
0.9380	3.49893	-38.9204	0	
0.9387	4.74431	-40.7466	0	
0.9393	5.33735	-40.1759	0	
0.9400	3.49893	-41.6596	0	
0.9407	2.90589	-27.0502	0	
0.9413	2.90589	12.9544	0	
0.9420	1.06747	48.3366	0	
0.9427	0.177912	58.0952	0	
0.9433	-0.770951	48.9644	0	
0.9440	-1.95703	25.4523	0	
0.9447	-3.20241	6.56282	0	
0.9453	-4.44779	8.67434	0	
0.9460	-4.44779	17.8623	0	
0.9467	-1.66051	17.8623	0	
0.9473	-0.770951	17.2345	0	
0.9480	-4.09197	19.6885	0	
0.9487	-5.33735	22.4277	0	
0.9493	-3.79545	29.4471	0	
0.9500	-5.04083	35.211	0	
0.9507	-6.87926	33.3848	0	
0.9513	-5.33735	29.7324	0	
0.9520	-2.60937	26.7078	0	
0.9527	-0.770951	23.6262	0	
0.9533	0.474431	23.9115	0	
0.9540	2.01633	25.167	0	
0.9547	0.474431	23.9115	0	
0.9553	-0.474431	22.4277	0	
0.9560	2.01633	18.1476	0	
0.9567	3.79545	8.67434	0	
0.9573	2.90589	1.94031	0	
0.9580	2.90589	1.02722	0	
0.9587	3.20241	-1.36963	0	
0.9593	1.36399	-3.19581	0	
0.9600	0.474431	0.456544	0	
0.9607	2.60937	2.56806	0	
0.9613	3.49893	-0.171204	0	
0.9620	1.66051	-1.71204	0	
0.9627	1.66051	-3.82356	0	
0.9633	3.49893	-8.10366	0	
0.9640	0.770951	-11.1283	0	
0.9647	-3.79545	-13.0115	0	
0.9653	-1.66051	-14.4953	0	
0.9660	1.06747	-15.123	0	
0.9667	-2.60937	-18.49	0	
0.9673	-3.49893	-26.4225	0	
0.9680	-0.770951	-33.4419	0	
0.9687	-2.60937	-38.2926	0	
0.9693	-4.74431	-42.5727	0	
0.9700	-0.770951	-38.2926	0	
0.9707	0.474431	-17.8623	0	
0.9713	-1.66051	15.066	0	
0.9720	-1.06747	37.9502	0	
0.9727	0.770951	33.0994	0	
0.9733	0.770951	12.9544	0	
0.9740	0.177912	0.456544	0	
0.9747	-0.770951	-2.91047	0	
0.9753	-2.60937	-3.19581	0	
0.9760	-1.66051	-0.456544	0	
0.9767	1.06747	4.39424	0	
0.9773	2.31285	8.04659	0	
0.9780	0.770951	11.1283	0	
0.9787	1.06747	12.3267	0	
0.9793	3.79545	9.87277	0	
0.9800	2.90589	8.389	0	
0.9807	-0.474431	8.04659	0	
0.9813	0.474431	5.93507	0	
0.9820	3.79545	5.02199	0	
0.9827	5.04083	5.30733	0	
0.9833	4.44779	2.28272	0	
0.9840	2.01633	-1.08429	0	
0.9847	-1.36399	-6.90523	0	
0.9853	-1.66051	-27.0502	0	
0.9860	-1.36399	-49.0214	0	
0.9867	-2.31285	-48.1083	0	
0.9873	-2.90589	-31.901	0	
0.9880	-1.66051	-23.3408	0	
0.9887	-2.31285	-21.5146	0	
0.9893	-3.49893	-15.7508	0	
0.9900	-3.49893	-8.10366	0	
0.9907	-1.66051	-3.53822	0	
0.9913	-0.474431	1.36963	0	
0.9920	-1.06747	12.9544	0	
0.9927	-2.60937	25.167	0	
0.9933	-1.95703	24.2539	0	
0.9940	1.66051	12.3267	0	
0.9947	4.44779	1.94031	0	
0.9953	2.90589	-0.171204	0	
0.9960	2.01633	4.1089	0	
0.9967	3.79545	8.67434	0	
0.9973	2.31285	8.67434	0	
0.9980	-0.474431	5.02199	0	
0.9987	2.01633	1.02722	0	
0.9993	4.74431	0.456544	0	
1.0000	3.49893	5.64973	0	
1.0007	3.49893	10.2152	0	
1.0013	3.79545	8.04659	0	
1.0020	2.01633	6.56282	0	
1.0027	1.36399	9.58743	0	
1.0033	1.06747	11.4136	0	
1.0040	-1.66051	9.30209	0	
1.0047	-2.60937	6.56282	0	
1.0053	-1.66051	1.94031	0	
1.0060	-1.66051	-5.99214	0	
1.0067	-3.79545	-11.4707	0	
1.0073	-6.22691	-12.6691	0	
1.0080	-6.87926	-14.2099	0	
1.0087	-6.22691	-18.49	0	
1.0093	-6.87926	-23.6832	0	
1.0100	-8.06533	-28.8764	0	
1.0107	-8.06533	-30.9879	0	
1.0113	-6.58274	-29.1618	0	
1.0120	-5.63387	-31.2733	0	
1.0127	-6.22691	-34.6403	0	
1.0133	-5.33735	-33.1565	0	
1.0140	-0.770951	-33.4419	0	
1.0147	1.06747	-32.1864	0	
1.0153	0.474431	-3.19581	0	
1.0160	1.66051	48.0513	0	
1.0167	1.66051	79.1533	0	
1.0173	0.177912	76.4141	0	
1.0180	2.90589	59.0083	0	
1.0187	3.79545	37.9502	0	
1.0193	0.177912	20.6016	0	
1.0200	0.770951	14.4953	0	
1.0207	3.20241	13.2398	0	
1.0213	2.01633	7.76125	0	
1.0220	1.36399	2.56806	0	
1.0227	0.474431	2.28272	0	
1.0233	-3.79545	3.82356	0	
1.0240	-3.49893	3.19581	0	
1.0247	-0.118608	0.456544	0	
1.0253	-2.31285	-3.82356	0	
1.0260	-3.49893	-8.10366	0	
1.0267	-2.90589	-11.4707	0	
1.0273	-6.87926	-11.756	0	
1.0280	-8.06533	-7.81832	0	
1.0287	-2.90589	-4.1089	0	
1.0293	-3.79545	-3.82356	0	
1.0300	-8.36185	-3.19581	0	
1.0307	-5.33735	0.114136	0	
1.0313	-1.36399	-0.171204	0	
1.0320	-1.66051	-5.99214	0	
1.0327	-1.66051	-7.19057	0	
1.0333	-1.36399	-0.456544	0	
1.0340	-2.90589	3.19581	0	
1.0347	-3.49893	-0.456544	0	
1.0353	-1.06747	-4.1089	0	
1.0360	2.60937	-5.99214	0	
1.0367	4.74431	-8.389	0	
1.0373	3.79545	-8.73141	0	
1.0380	2.90589	-9.64449	0	
1.0387	3.79545	-10.8429	0	
1.0393	2.90589	-9.30209	0	
1.0400	2.60937	-6.27748	0	
1.0407	4.74431	-6.90523	0	
1.0413	6.28622	-5.07905	0	
1.0420	5.33735	0.456544	0	
1.0427	4.74431	3.48115	0	
1.0433	4.15127	4.1089	0	
1.0440	2.60937	4.1089	0	
1.0447	0.474431	3.19581	0	
1.0453	-1.06747	1.65497	0	
1.0460	-1.66051	1.94031	0	
1.0467	-1.06747	3.48115	0	
1.0473	-0.770951	6.22041	0	
1.0480	-1.36399	8.04659	0	
1.0487	-1.66051	8.389	0	
1.0493	-2.31285	10.2152	0	
1.0500	-3.49893	14.1529	0	
1.0507	-4.44779	15.066	0	
1.0513	-4.74431	15.066	0	
1.0520	-4.44779	17.8623	0	
1.0527	-4.09197	15.979	0	
1.0533	-2.90589	-0.798952	0	
1.0540	-0.770951	-20.6016	0	
1.0547	0.770951	-25.5094	0	
1.0553	2.01633	-19.6885	0	
1.0560	3.20241	-16.9492	0	
1.0567	3.79545	-15.7508	0	
1.0573	3.20241	-10.2152	0	
1.0580	4.15127	-5.36439	0	
1.0587	7.76881	-6.90523	0	
1.0593	8.42116	-9.64449	0	
1.0600	4.74431	-10.5576	0	
1.0607	2.60937	-10.2152	0	
1.0613	2.90589	-10.2152	0	
1.0620	2.01633	-10.2152	0	
1.0627	2.01633	-8.73141	0	
1.0633	2.90589	-6.90523	0	
1.0640	0.770951	-6.90523	0	
1.0647	-1.95703	-7.81832	0	
1.0653	-3.20241	-5.99214	0	
1.0660	-3.79545	-6.56282	0	
1.0667	-3.49893	-8.73141	0	
1.0673	-3.49893	-4.4513	0	
1.0680	-6.22691	1.65497	0	
1.0687	-8.06533	0.456544	0	
1.0693	-7.17578	0.456544	0	
1.0700	-7.47229	3.82356	0	
1.0707	-6.87926	1.02722	0	
1.0713	-5.04083	-4.4513	0	
1.0720	-5.33735	-5.99214	0	
1.0727	-4.44779	-10.5576	0	
1.0733	-0.770951	-19.6885	0	
1.0740	0.177912	-26.7078	0	
1.0747	-0.474431	-32.5288	0	
1.0753	0.177912	-36.4665	0	
1.0760	0.474431	-31.901	0	
1.0767	0.177912	-9.64449	0	
1.0773	2.01633	28.1916	0	
1.0780	4.74431	56.2691	0	
1.0787	6.58274	53.8722	0	
1.0793	5.63387	37.9502	0	
1.0800	3.79545	29.4471	0	
1.0807	4.15127	26.9932	0	
1.0813	4.74431	23.6262	0	
1.0820	1.36399	15.979	0	
1.0827	-0.770951	3.48115	0	
1.0833	2.01633	-5.99214	0	
1.0840	3.49893	-9.92983	0	
1.0847	2.31285	-14.2099	0	
1.0853	1.06747	-21.5146	0	
1.0860	-1.66051	-28.534	0	
1.0867	-2.90589	-33.7272	0	
1.0873	-0.770951	-40.1759	0	
1.0880	-1.36399	-48.1083	0	
1.0887	-5.93039	-47.7659	0	
1.0893	-5.33735	-45.312	0	
1.0900	-2.60937	-48.1083	0	
1.0907	-2.60937	-23.3408	0	
1.0913	-0.770951	48.0513	0	
1.0920	2.01633	111.226	0	
1.0927	-1.66051	121.27	0	
1.0933	-3.20241	100.211	0	
1.0940	0.770951	73.6748	0	
1.0947	2.01633	48.0513	0	
1.0953	1.66051	32.8141	0	
1.0960	3.49893	23.3408	0	
1.0967	3.79545	12.3267	0	
1.0973	3.20241	5.30733	0	
1.0980	3.49893	1.36963	0	
1.0987	2.60937	-3.19581	0	
1.0993	3.20241	-3.53822	0	
1.1000	4.74431	-3.53822	0	
1.1007	2.31285	-5.99214	0	
1.1013	2.01633	-6.27748	0	
1.1020	4.74431	-7.47591	0	
1.1027	2.90589	-10.8429	0	
1.1033	-0.770951	-12.3838	0	
1.1040	-0.770951	-13.5822	0	
1.1047	-0.770951	-16.3215	0	
1.1053	-2.90589	-19.1178	0	
1.1060	-4.09197	-26.4225	0	
1.1067	-3.49893	-33.4419	0	
1.1073	-2.31285	-30.7026	0	
1.1080	-1.95703	-26.7078	0	
1.1087	-3.49893	-31.6157	0	
1.1093	-3.20241	-39.8335	0	
1.1100	-3.49893	-43.8282	0	
1.1107	-5.63387	-37.0942	0	
1.1113	-5.33735	-19.6885	0	
1.1120	-2.31285	-4.1089	0	
1.1127	-0.770951	0.114136	0	
1.1133	0.177912	2.28272	0	
1.1140	2.60937	12.9544	0	
1.1147	3.49893	17.5199	0	
1.1153	4.15127	1.02722	0	
1.1160	5.63387	-11.756	0	
1.1167	5.33735	6.22041	0	
1.1173	4.15127	34.0125	0	
1.1180	4.74431	39.8335	0	
1.1187	5.63387	33.7272	0	
1.1193	6.28622	30.6455	0	
1.1200	6.28622	25.4523	0	
1.1207	4.74431	21.5146	0	
1.1213	3.49893	21.8	0	
1.1220	4.74431	19.9738	0	
1.1227	5.04083	14.7806	0	
1.1233	4.74431	8.04659	0	
1.1240	4.74431	2.28272	0	
1.1247	3.79545	2.28272	0	
1.1253	1.66051	6.22041	0	
1.1260	0.770951	6.84816	0	
1.1267	-0.770951	6.84816	0	
1.1273	-3.49893	9.58743	0	
1.1280	-3.20241	8.04659	0	
1.1287	-2.31285	2.28272	0	
1.1293	-5.63387	-1.36963	0	
1.1300	-8.71768	-1.99738	0	
1.1307	-5.93039	-1.36963	0	
1.1313	-3.49893	-1.36963	0	
1.1320	-3.79545	0.114136	0	
1.1327	-2.60937	1.02722	0	
1.1333	-1.95703	-1.71204	0	
1.1340	-2.60937	-4.73665	0	
1.1347	-0.770951	-3.19581	0	
1.1353	1.36399	-2.28272	0	
1.1360	1.36399	-3.19581	0	
1.1367	2.01633	-1.99738	0	
1.1373	2.60937	-1.36963	0	
1.1380	2.31285	-2.28272	0	
1.1387	3.49893	-1.99738	0	
1.1393	4.74431	-2.91047	0	
1.1400	3.20241	-5.07905	0	
1.1407	1.06747	-4.73665	0	
1.1413	2.01633	-3.53822	0	
1.1420	3.79545	-3.19581	0	
1.1427	2.01633	-3.19581	0	
1.1433	0.770951	-4.4513	0	
1.1440	0.474431	-5.36439	0	
1.1447	-1.36399	-4.4513	0	
1.1453	-2.60937	-3.53822	0	
1.1460	-1.95703	-1.36963	0	
1.1467	-4.44779	3.48115	0	
1.1473	-6.22691	6.22041	0	
1.1480	-2.60937	6.84816	0	
1.1487	-1.95703	8.67434	0	
1.1493	-5.63387	7.76125	0	
1.1500	-5.63387	4.73665	0	
1.1507	-3.49893	4.39424	0	
1.1513	-3.49893	4.1089	0	
1.1520	-2.31285	0.456544	0	
1.1527	-0.770951	-1.36963	0	
1.1533	-1.66051	-4.1089	0	
1.1540	-3.20241	-12.6691	0	
1.1547	-4.44779	-20.6016	0	
1.1553	-4.09197	-21.857	0	
1.1560	-1.36399	-21.5146	0	
1.1567	1.66051	-19.1178	0	
1.1573	3.20241	-11.1283	0	
1.1580	3.49893	-5.99214	0	
1.1587	2.90589	-4.1089	0	
1.1593	3.79545	1.36963	0	
1.1600	4.74431	4.39424	0	
1.1607	2.90589	1.02722	0	
1.1613	2.90589	2.28272	0	
1.1620	3.20241	8.04659	0	
1.1627	0.177912	9.87277	0	
1.1633	0.177912	8.67434	0	
1.1640	1.06747	7.76125	0	
1.1647	-2.31285	4.73665	0	
1.1653	-4.44779	-1.36963	0	
1.1660	-1.66051	-8.10366	0	
1.1667	-2.60937	-13.2968	0	
1.1673	-5.33735	-19.4031	0	
1.1680	-4.44779	-30.0748	0	
1.1687	-4.44779	-43.4858	0	
1.1693	-5.33735	-61.8047	0	
1.1700	-3.49893	-76.7565	0	
1.1707	-1.66051	-63.6308	0	
1.1713	-2.60937	-27.9633	0	
1.1720	-2.60937	-7.81832	0	
1.1727	-1.66051	-6.56282	0	
1.1733	-1.66051	6.22041	0	
1.1740	-1.66051	37.0371	0	
1.1747	-1.66051	59.9785	0	
1.1753	-2.60937	56.6115	0	
1.1760	-1.95703	37.6649	0	
1.1767	1.06747	23.3408	0	
1.1773	2.90589	13.2398	0	
1.1780	3.49893	-0.798952	0	
1.1787	3.20241	-14.8377	0	
1.1793	0.177912	-18.7754	0	
1.1800	-1.66051	-8.10366	0	
1.1807	0.177912	5.64973	0	
1.1813	1.06747	14.1529	0	
1.1820	-0.770951	32.4717	0	
1.1827	-1.06747	49.8774	0	
1.1833	-0.118608	26.0801	0	
1.1840	-2.60937	-14.2099	0	
1.1847	-5.04083	-13.0115	0	
1.1853	-2.60937	12.3267	0	
1.1860	0.474431	26.0801	0	
1.1867	-1.66051	41.6596	0	
1.1873	-4.74431	54.7853	0	
1.1880	-4.74431	44.3989	0	
1.1887	-5.04083	23.3408	0	
1.1893	-6.87926	7.76125	0	
1.1900	-7.47229	-9.30209	0	
1.1907	-8.06533	-21.857	0	
1.1913	-8.06533	-23.6832	0	
1.1920	-3.79545	-21.5146	0	
1.1927	-1.06747	-19.6885	0	
1.1933	-2.60937	-16.9492	0	
1.1940	-2.90589	-11.1283	0	
1.1947	-0.770951	2.56806	0	
1.1953	0.177912	18.7754	0	
1.1960	1.06747	21.5146	0	
1.1967	3.79545	11.756	0	
1.1973	4.74431	4.1089	0	
1.1980	3.20241	4.73665	0	
1.1987	3.79545	5.64973	0	
1.1993	5.63387	1.36963	0	
1.2000	3.79545	-2.62513	0	
1.2007	2.01633	-1.08429	0	
1.2013	2.01633	-1.36963	0	
1.2020	0.770951	-5.99214	0	
1.2027	-0.770951	-6.56282	0	
1.2033	-1.06747	-3.53822	0	
1.2040	-3.20241	-5.07905	0	
1.2047	-4.09197	-6.27748	0	
1.2053	-2.31285	-4.1089	0	
1.2060	-2.90589	-4.4513	0	
1.2067	-5.63387	-5.99214	0	
1.2073	-6.22691	-3.53822	0	
1.2080	-7.17578	-2.91047	0	
1.2087	-7.47229	-5.07905	0	
1.2093	-5.93039	-5.07905	0	
1.2100	-4.74431	-1.36963	0	
1.2107	-4.44779	2.28272	0	
1.2113	-3.49893	2.28272	0	
1.2120	-5.04083	-0.798952	0	
1.2127	-6.22691	-1.36963	0	
1.2133	-4.74431	0.456544	0	
1.2140	-2.90589	0.456544	0	
1.2147	-1.95703	1.02722	0	
1.2153	0.177912	3.48115	0	
1.2160	2.01633	1.36963	0	
1.2167	1.36399	-3.53822	0	
1.2173	-0.118608	-5.64973	0	
1.2180	-0.770951	-5.64973	0	
1.2187	1.06747	-5.36439	0	
1.2193	2.60937	-4.73665	0	
1.2200	1.66051	-5.64973	0	
1.2207	1.06747	-6.90523	0	
1.2213	1.36399	-5.07905	0	
1.2220	0.177912	-3.53822	0	
1.2227	0.474431	-5.99214	0	
1.2233	2.01633	-6.56282	0	
1.2240	-0.118608	-4.1089	0	
1.2247	-1.95703	-3.53822	0	
1.2253	-0.770951	-3.19581	0	
1.2260	-2.31285	0.456544	0	
1.2267	-6.22691	1.65497	0	
1.2273	-5.33735	-2.62513	0	
1.2280	-2.90589	-5.36439	0	
1.2287	-3.49893	-8.10366	0	
1.2293	-2.60937	-13.0115	0	
1.2300	-1.66051	-12.0984	0	
1.2307	-4.44779	-6.90523	0	
1.2313	-2.90589	-7.81832	0	
1.2320	2.90589	-10.5576	0	
1.2327	1.66051	-8.10366	0	
1.2333	-1.36399	-6.27748	0	
1.2340	0.474431	-5.99214	0	
1.2347	2.60937	-2.91047	0	
1.2353	4.15127	-1.36963	0	
1.2360	5.04083	-5.36439	0	
1.2367	2.90589	-8.389	0	
1.2373	2.90589	-8.73141	0	
1.2380	5.63387	-9.64449	0	
1.2387	4.44779	-8.73141	0	
1.2393	2.90589	-5.07905	0	
1.2400	5.63387	-3.53822	0	
1.2407	5.93039	-4.1089	0	
1.2413	4.74431	-3.53822	0	
1.2420	5.63387	-3.19581	0	
1.2427	5.63387	-2.62513	0	
1.2433	2.01633	0.456544	0	
1.2440	-1.06747	3.82356	0	
1.2447	0.474431	4.73665	0	
1.2453	2.90589	2.56806	0	
1.2460	1.06747	-3.19581	0	
1.2467	-0.770951	-7.47591	0	
1.2473	2.31285	-6.56282	0	
1.2480	3.20241	-5.36439	0	
1.2487	0.177912	-5.99214	0	
1.2493	0.177912	-6.90523	0	
1.2500	-0.118608	-9.64449	0	
1.2507	-3.49893	-11.1283	0	
1.2513	-2.90589	-11.4707	0	
1.2520	-0.474431	-16.3215	0	
1.2527	-1.66051	-21.857	0	
1.2533	-2.60937	-21.857	0	
1.2540	0.177912	-21.2293	0	
1.2547	1.06747	-18.1476	0	
1.2553	-0.118608	-11.1283	0	
1.2560	1.06747	-13.2968	0	
1.2567	2.60937	-19.6885	0	
1.2573	1.06747	-10.5576	0	
1.2580	1.66051	1.36963	0	
1.2587	4.74431	2.28272	0	
1.2593	4.15127	18.433	0	
1.2600	1.36399	55.356	0	
1.2607	1.06747	79.1533	0	
1.2613	0.474431	75.501	0	
1.2620	0.177912	51.4183	0	
1.2627	0.474431	17.8623	0	
1.2633	-1.66051	1.36963	0	
1.2640	-5.04083	6.22041	0	
1.2647	-5.33735	3.19581	0	
1.2653	-3.49893	-14.2099	0	
1.2660	-3.49893	-25.167	0	
1.2667	-5.04083	-32.1864	0	
1.2673	-6.22691	-40.7466	0	
1.2680	-5.33735	-30.0748	0	
1.2687	-3.20241	9.58743	0	
1.2693	-2.90589	41.6596	0	
1.2700	-2.60937	30.3602	0	
1.2707	-2.60937	0.456544	0	
1.2713	-2.90589	-5.99214	0	
1.2720	-2.90589	8.389	0	
1.2727	-2.60937	19.6885	0	
1.2733	-1.66051	29.7324	0	
1.2740	2.01633	40.4042	0	
1.2747	4.15127	40.4042	0	
1.2753	2.90589	28.1916	0	
1.2760	2.60937	15.979	0	
1.2767	3.79545	8.67434	0	
1.2773	4.74431	4.39424	0	
1.2780	5.63387	4.39424	0	
1.2787	6.58274	6.56282	0	
1.2793	7.17578	4.1089	0	
1.2800	5.63387	-2.28272	0	
1.2807	3.79545	-7.47591	0	
1.2813	2.01633	-8.73141	0	
1.2820	1.06747	-2.62513	0	
1.2827	0.770951	7.47591	0	
1.2833	2.01633	10.5005	0	
1.2840	0.474431	3.19581	0	
1.2847	-1.66051	-2.62513	0	
1.2853	-0.474431	-2.28272	0	
1.2860	-0.770951	-0.456544	0	
1.2867	-5.93039	0.741884	0	
1.2873	-6.87926	0.456544	0	
1.2880	-4.09197	-2.28272	0	
1.2887	-5.04083	-3.82356	0	
1.2893	-5.63387	-2.91047	0	
1.2900	-4.44779	-0.456544	0	
1.2907	-5.04083	1.36963	0	
1.2913	-6.22691	0.741884	0	
1.2920	-5.33735	0.741884	0	
1.2927	-3.79545	2.28272	0	
1.2933	-1.66051	2.28272	0	
1.2940	-1.06747	0.456544	0	
1.2947	-1.95703	-1.36963	0	
1.2953	0.770951	-2.62513	0	
1.2960	2.90589	-2.28272	0	
1.2967	0.177912	-2.28272	0	
1.2973	-1.06747	-6.90523	0	
1.2980	0.770951	-11.1283	0	
1.2987	1.06747	-10.5576	0	
1.2993	1.36399	-9.92983	0	
1.3000	3.49893	-14.2099	0	
1.3007	2.31285	-16.9492	0	
1.3013	-0.474431	-13.9246	0	
1.3020	2.01633	-9.30209	0	
1.3027	5.04083	-6.27748	0	
1.3033	2.31285	-7.81832	0	
1.3040	-2.60937	-13.5822	0	
1.3047	-1.66051	-16.0361	0	
1.3053	0.177912	-10.5576	0	
1.3060	-1.66051	-5.36439	0	
1.3067	-2.90589	-3.53822	0	
1.3073	-2.60937	1.02722	0	
1.3080	-4.09197	7.47591	0	
1.3087	-5.04083	7.76125	0	
1.3093	-4.09197	5.93507	0	
1.3100	-4.44779	6.56282	0	
1.3107	-4.44779	5.64973	0	
1.3113	-3.49893	2.28272	0	
1.3120	-3.49893	1.02722	0	
1.3127	-4.74431	1.36963	0	
1.3133	-5.63387	1.02722	0	
1.3140	-2.31285	1.02722	0	
1.3147	3.20241	1.02722	0	
1.3153	2.01633	0.741884	0	
1.3160	-0.770951	1.02722	0	
1.3167	2.60937	1.36963	0	
1.3173	3.79545	-0.171204	0	
1.3180	1.36399	-1.71204	0	
1.3187	4.15127	-2.91047	0	
1.3193	7.17578	-5.07905	0	
1.3200	4.74431	-6.56282	0	
1.3207	3.79545	-5.07905	0	
1.3213	5.04083	-4.1089	0	
1.3220	3.79545	-4.4513	0	
1.3227	3.20241	-2.28272	0	
1.3233	2.31285	2.28272	0	
1.3240	0.177912	4.1089	0	
1.3247	-0.474431	4.1089	0	
1.3253	-0.118608	4.73665	0	
1.3260	-1.95703	3.48115	0	
1.3267	-2.60937	1.65497	0	
1.3273	-1.36399	5.30733	0	
1.3280	-1.95703	8.67434	0	
1.3287	-3.79545	1.36963	0	
1.3293	-3.20241	-8.10366	0	
1.3300	-1.36399	-9.92983	0	
1.3307	-2.31285	-10.2152	0	
1.3313	-4.44779	-14.8377	0	
1.3320	-3.49893	-19.1178	0	
1.3327	-1.36399	-22.1424	0	
1.3333	-1.66051	-28.2487	0	
1.3340	-1.95703	-32.8141	0	
1.3347	-1.95703	-25.167	0	
1.3353	-3.49893	-3.82356	0	
1.3360	-3.49893	24.2539	0	
1.3367	1.06747	54.7853	0	
1.3373	5.93039	80.0664	0	
1.3380	5.63387	80.9795	0	
1.3387	2.60937	58.4376	0	
1.3393	2.31285	37.9502	0	
1.3400	4.15127	17.8623	0	
1.3407	5.04083	-11.756	0	
1.3413	6.28622	-28.534	0	
1.3420	6.58274	-18.1476	0	
1.3427	3.20241	-8.10366	0	
1.3433	1.06747	-7.47591	0	
1.3440	2.31285	-4.1089	0	
1.3447	2.90589	-1.71204	0	
1.3453	2.31285	-3.19581	0	
1.3460	2.01633	-3.19581	0	
1.3467	1.06747	-4.4513	0	
1.3473	1.06747	-9.64449	0	
1.3480	0.770951	-12.3838	0	
1.3487	-0.770951	-13.9246	0	
1.3493	-2.90589	-15.4084	0	
1.3500	-4.09197	-14.2099	0	
1.3507	-2.90589	-15.7508	0	
1.3513	-1.66051	-12.3838	0	
1.3520	-2.60937	8.95968	0	
1.3527	-1.36399	31.901	0	
1.3533	1.36399	31.2733	0	
1.3540	0.177912	16.8921	0	
1.3547	-0.118608	7.76125	0	
1.3553	4.15127	4.73665	0	
1.3560	5.93039	1.36963	0	
1.3567	3.79545	-2.28272	0	
1.3573	3.49893	-5.99214	0	
1.3580	3.79545	-9.64449	0	
1.3587	3.49893	-12.3838	0	
1.3593	3.79545	-14.2099	0	
1.3600	2.60937	-17.5769	0	
1.3607	2.90589	-27.3356	0	
1.3613	6.28622	-40.7466	0	
1.3620	5.04083	-50.5052	0	
1.3627	1.06747	-58.1523	0	
1.3633	2.31285	-55.413	0	
1.3640	4.15127	-27.9633	0	
1.3647	1.06747	11.1283	0	
1.3653	-0.118608	32.4717	0	
1.3660	2.01633	29.4471	0	
1.3667	1.36399	17.8623	0	
1.3673	-0.770951	14.1529	0	
1.3680	-1.06747	20.8869	0	
1.3687	-1.36399	26.7078	0	
1.3693	-0.770951	25.167	0	
1.3700	0.474431	20.2591	0	
1.3707	1.36399	14.1529	0	
1.3713	1.06747	9.58743	0	
1.3720	0.177912	11.1283	0	
1.3727	1.06747	11.756	0	
1.3733	3.79545	6.22041	0	
1.3740	4.74431	2.28272	0	
1.3747	2.60937	1.65497	0	
1.3753	1.06747	2.56806	0	
1.3760	0.474431	7.1335	0	
1.3767	1.06747	8.67434	0	
1.3773	3.79545	3.48115	0	
1.3780	2.90589	0.456544	0	
1.3787	-0.770951	-1.99738	0	
1.3793	1.06747	-7.19057	0	
1.3800	2.90589	-6.90523	0	
1.3807	0.474431	-3.53822	0	
1.3813	-0.118608	-7.19057	0	
1.3820	1.66051	-11.4707	0	
1.3827	0.177912	-12.0984	0	
1.3833	-1.66051	-14.4953	0	
1.3840	-1.06747	-16.6639	0	
1.3847	-0.770951	-14.8377	0	
1.3853	-0.770951	-13.0115	0	
1.3860	-1.06747	-13.0115	0	
1.3867	-2.60937	-13.5822	0	
1.3873	-3.49893	-13.0115	0	
1.3880	-3.49893	-10.2152	0	
1.3887	-2.90589	-8.73141	0	
1.3893	-2.60937	-8.73141	0	
1.3900	-4.09197	-7.47591	0	
1.3907	-5.33735	-7.47591	0	
1.3913	-3.20241	-6.56282	0	
1.3920	-1.36399	-1.71204	0	
1.3927	-3.49893	0.456544	0	
1.3933	-5.04083	-0.798952	0	
1.3940	-3.79545	2.91047	0	
1.3947	-1.06747	9.30209	0	
1.3953	1.66051	12.3267	0	
1.3960	2.01633	12.6691	0	
1.3967	0.474431	6.84816	0	
1.3973	0.770951	0.741884	0	
1.3980	2.31285	4.1089	0	
1.3987	2.01633	10.8429	0	
1.3993	2.31285	11.4136	0	
1.4000	3.20241	11.4136	0	
1.4007	2.60937	10.5005	0	
1.4013	1.06747	5.64973	0	
1.4020	0.177912	3.48115	0	
1.4027	-1.66051	2.28272	0	
1.4033	-2.31285	-5.07905	0	
1.4040	-1.36399	-10.5576	0	
1.4047	-1.66051	-9.30209	0	
1.4053	-4.44779	-6.90523	0	
1.4060	-8.71768	-7.81832	0	
1.4067	-10.4968	-10.2152	0	
1.4073	-6.87926	-12.6691	0	
1.4080	-4.44779	-14.4953	0	
1.4087	-7.17578	-16.9492	0	
1.4093	-7.47229	-20.944	0	
1.4100	-5.93039	-25.167	0	
1.4107	-6.22691	-26.1371	0	
1.4113	-4.74431	-21.5146	0	
1.4120	-3.49893	-16.3215	0	
1.4127	-7.17578	-15.4084	0	
1.4133	-7.76881	-0.456544	0	
1.4140	-2.60937	38.578	0	
1.4147	-1.36399	65.457	0	
1.4153	-1.66051	54.4429	0	
1.4160	0.177912	31.5586	0	
1.4167	-0.118608	20.6016	0	
1.4173	-1.95703	12.3267	0	
1.4180	0.770951	2.91047	0	
1.4187	2.01633	-1.99738	0	
1.4193	1.06747	-4.4513	0	
1.4200	2.90589	-8.10366	0	
1.4207	2.90589	-10.5576	0	
1.4213	-0.770951	-13.5822	0	
1.4220	-2.60937	-17.5769	0	
1.4227	-0.770951	-18.7754	0	
1.4233	0.177912	-15.123	0	
1.4240	1.36399	-5.07905	0	
1.4247	1.06747	12.3267	0	
1.4253	-0.770951	28.8193	0	
1.4260	-1.66051	33.0994	0	
1.4267	-1.66051	21.8	0	
1.4273	-3.79545	0.741884	0	
1.4280	-4.44779	-15.7508	0	
1.4287	-3.49893	-17.8623	0	
1.4293	-3.49893	-16.0361	0	
1.4300	-5.33735	-21.857	0	
1.4307	-5.04083	-25.167	0	
1.4313	-4.09197	-20.6016	0	
1.4320	-5.33735	-20.944	0	
1.4327	-6.22691	-22.4277	0	
1.4333	-3.20241	-16.0361	0	
1.4340	-1.06747	-9.64449	0	
1.4347	-2.31285	2.28272	0	
1.4353	-1.36399	31.901	0	
1.4360	2.31285	55.9837	0	
1.4367	2.01633	51.989	0	
1.4373	0.177912	37.0371	0	
1.4380	2.60937	26.3654	0	
1.4387	5.33735	18.1476	0	
1.4393	3.79545	14.7806	0	
1.4400	2.01633	19.3461	0	
1.4407	2.90589	26.0801	0	
1.4413	4.44779	30.6455	0	
1.4420	4.74431	30.6455	0	
1.4427	2.60937	25.167	0	
1.4433	0.177912	16.6068	0	
1.4440	-0.118608	7.47591	0	
1.4447	0.474431	-0.456544	0	
1.4453	-1.36399	-4.1089	0	
1.4460	-4.09197	-8.389	0	
1.4467	-4.74431	-20.6016	0	
1.4473	-3.49893	-37.3795	0	
1.4480	-2.31285	-54.1575	0	
1.4487	-1.06747	-69.1664	0	
1.4493	-0.770951	-71.9057	0	
1.4500	-1.36399	-51.4183	0	
1.4507	-2.60937	-20.6016	0	
1.4513	-3.49893	-5.36439	0	
1.4520	-3.20241	-8.10366	0	
1.4527	-1.66051	-14.8377	0	
1.4533	-0.474431	-18.49	0	
1.4540	0.177912	-17.5769	0	
1.4547	0.474431	-12.3838	0	
1.4553	0.770951	-5.99214	0	
1.4560	2.01633	3.19581	0	
1.4567	2.01633	20.2591	0	
1.4573	0.177912	37.9502	0	
1.4580	1.06747	42.5727	0	
1.4587	4.74431	34.6403	0	
1.4593	5.33735	25.167	0	
1.4600	3.79545	18.7754	0	
1.4607	5.04083	15.066	0	
1.4613	5.04083	14.1529	0	
1.4620	2.31285	11.756	0	
1.4627	3.20241	7.76125	0	
1.4633	6.58274	5.93507	0	
1.4640	6.28622	6.56282	0	
1.4647	2.31285	5.93507	0	
1.4653	-0.770951	6.56282	0	
1.4660	-2.60937	8.67434	0	
1.4667	-3.49893	9.87277	0	
1.4673	-2.60937	9.87277	0	
1.4680	-1.66051	9.30209	0	
1.4687	-2.90589	7.76125	0	
1.4693	-4.74431	6.56282	0	
1.4700	-4.09197	5.93507	0	
1.4707	-1.36399	5.02199	0	
1.4713	1.06747	5.02199	0	
1.4720	2.01633	7.1335	0	
1.4727	1.06747	7.76125	0	
1.4733	0.177912	4.73665	0	
1.4740	-0.118608	-2.28272	0	
1.4747	0.474431	-9.30209	0	
1.4753	2.90589	-8.73141	0	
1.4760	5.04083	-2.28272	0	
1.4767	2.90589	0.456544	0	
1.4773	1.36399	-0.798952	0	
1.4780	5.04083	0.114136	0	
1.4787	6.58274	1.36963	0	
1.4793	3.79545	0.456544	0	
1.4800	4.44779	-1.36963	0	
1.4807	7.76881	-1.36963	0	
1.4813	6.58274	-0.171204	0	
1.4820	3.49893	-1.08429	0	
1.4827	2.31285	-3.19581	0	
1.4833	2.31285	-2.62513	0	
1.4840	1.66051	-1.36963	0	
1.4847	-1.66051	-1.08429	0	
1.4853	-2.90589	1.02722	0	
1.4860	1.36399	2.28272	0	
1.4867	4.44779	5.02199	0	
1.4873	1.36399	11.756	0	
1.4880	-1.06747	8.04659	0	
1.4887	-0.770951	-10.8429	0	
1.4893	-1.66051	-21.857	0	
1.4900	-3.49893	-14.2099	0	
1.4907	-4.44779	-5.36439	0	
1.4913	-4.44779	-4.73665	0	
1.4920	-5.04083	-5.36439	0	
1.4927	-6.58274	-5.99214	0	
1.4933	-6.58274	-7.81832	0	
1.4940	-5.04083	-7.81832	0	
1.4947	-3.49893	-7.81832	0	
1.4953	-1.36399	-10.2152	0	
1.4960	-0.474431	-11.756	0	
1.4967	-1.36399	-10.5576	0	
1.4973	0.177912	-12.0984	0	
1.4980	1.66051	-16.0361	0	
1.4987	0.770951	-13.2968	0	
1.4993	1.36399	-7.19057	0	
1.5000	2.90589	-5.99214	0	
1.5007	0.177912	-5.07905	0	
1.5013	-0.770951	-2.28272	0	
1.5020	1.06747	-2.28272	0	
1.5027	0.177912	-1.36963	0	
1.5033	-1.06747	-0.171204	0	
1.5040	-1.36399	-1.36963	0	
1.5047	-2.60937	-1.36963	0	
1.5053	-3.49893	1.02722	0	
1.5060	-3.49893	1.94031	0	
1.5067	-4.09197	1.36963	0	
1.5073	-5.04083	0.456544	0	
1.5080	-7.76881	-1.08429	0	
1.5087	-9.31072	0.741884	0	
1.5093	-4.74431	4.1089	0	
1.5100	-0.770951	4.1089	0	
1.5107	-2.60937	2.56806	0	
1.5113	-4.44779	3.19581	0	
1.5120	-2.60937	3.82356	0	
1.5127	-2.31285	4.39424	0	
1.5133	-2.60937	4.1089	0	
1.5140	-1.95703	2.28272	0	
1.5147	-1.95703	0.456544	0	
1.5153	-1.95703	-0.171204	0	
1.5160	-1.06747	1.36963	0	
1.5167	2.01633	3.48115	0	
1.5173	4.74431	1.02722	0	
1.5180	3.79545	-3.19581	0	
1.5187	1.36399	-3.53822	0	
1.5193	2.90589	-1.71204	0	
1.5200	5.33735	0.741884	0	
1.5207	5.63387	5.02199	0	
1.5213	5.93039	6.22041	0	
1.5220	5.63387	2.56806	0	
1.5227	2.90589	-3.19581	0	
1.5233	-1.06747	-10.5576	0	
1.5240	-1.66051	-17.8623	0	
1.5247	0.770951	-24.2539	0	
1.5253	1.06747	-33.4419	0	
1.5260	-2.60937	-39.8335	0	
1.5267	-5.63387	-43.2005	0	
1.5273	-5.33735	-49.0214	0	
1.5280	-2.60937	-43.4858	0	
1.5287	-1.66051	-10.5576	0	
1.5293	-2.90589	31.5586	0	
1.5300	-3.49893	59.3507	0	
1.5307	-2.60937	69.3947	0	
1.5313	-2.90589	63.0031	0	
1.5320	-0.770951	41.6596	0	
1.5327	2.01633	22.4277	0	
1.5333	0.770951	16.3215	0	
1.5340	-1.06747	14.1529	0	
1.5347	0.177912	11.1283	0	
1.5353	1.06747	12.6691	0	
1.5360	2.01633	15.4084	0	
1.5367	3.20241	15.979	0	
1.5373	2.60937	24.5392	0	
1.5380	1.66051	38.9204	0	
1.5387	2.31285	37.9502	0	
1.5393	2.01633	18.7754	0	
1.5400	1.36399	1.36963	0	
1.5407	2.90589	-5.07905	0	
1.5413	2.90589	-5.99214	0	
1.5420	-0.474431	-5.07905	0	
1.5427	-1.06747	-3.53822	0	
1.5433	0.177912	-2.28272	0	
1.5440	0.177912	-1.71204	0	
1.5447	-1.95703	-5.99214	0	
1.5453	-3.20241	-14.2099	0	
1.5460	-4.09197	-17.8623	0	
1.5467	-3.79545	-16.6639	0	
1.5473	-3.79545	-21.2293	0	
1.5480	-5.33735	-29.7895	0	
1.5487	-4.44779	-27.3356	0	
1.5493	-2.60937	-20.3162	0	
1.5500	-4.74431	-24.8817	0	
1.5507	-8.06533	-27.3356	0	
1.5513	-5.63387	-9.92983	0	
1.5520	-2.60937	8.67434	0	
1.5527	-1.95703	8.95968	0	
1.5533	1.06747	3.48115	0	
1.5540	2.01633	1.02722	0	
1.5547	-0.118608	-1.99738	0	
1.5553	0.177912	-1.99738	0	
1.5560	1.66051	3.19581	0	
1.5567	1.36399	6.84816	0	
1.5573	1.06747	5.64973	0	
1.5580	-0.474431	1.65497	0	
1.5587	-1.95703	-2.28272	0	
1.5593	0.474431	-1.71204	0	
1.5600	2.01633	1.65497	0	
1.5607	0.177912	3.19581	0	
1.5613	1.36399	2.56806	0	
1.5620	2.60937	2.28272	0	
1.5627	0.177912	5.02199	0	
1.5633	-1.66051	12.6691	0	
1.5640	-2.60937	19.6885	0	
1.5647	-4.74431	19.3461	0	
1.5653	-4.74431	15.979	0	
1.5660	-4.44779	13.8675	0	
1.5667	-5.33735	14.1529	0	
1.5673	-5.63387	16.6068	0	
1.5680	-7.17578	15.979	0	
1.5687	-8.06533	13.5822	0	
1.5693	-4.09197	15.6937	0	
1.5700	-2.90589	19.3461	0	
1.5707	-7.17578	18.7754	0	
1.5713	-7.17578	18.1476	0	
1.5720	-4.44779	13.2398	0	
1.5727	-4.09197	-4.73665	0	
1.5733	-2.60937	-20.6016	0	
1.5740	-0.118608	-16.6639	0	
1.5747	-1.95703	-5.99214	0	
1.5753	-3.20241	-4.73665	0	
1.5760	-1.66051	-9.92983	0	
1.5767	-0.474431	-16.0361	0	
1.5773	2.01633	-19.1178	0	
1.5780	3.79545	-18.49	0	
1.5787	0.177912	-20.0309	0	
1.5793	-0.474431	-21.5146	0	
1.5800	4.15127	-16.0361	0	
1.5807	5.63387	-13.0115	0	
1.5813	2.90589	-19.6885	0	
1.5820	2.31285	-23.9686	0	
1.5827	2.90589	-20.0309	0	
1.5833	3.20241	-17.8623	0	
1.5840	2.90589	-18.1476	0	
1.5847	1.66051	-15.123	0	
1.5853	-0.118608	-9.92983	0	
1.5860	-1.66051	-5.99214	0	
1.5867	-3.20241	-5.99214	0	
1.5873	-4.44779	-8.10366	0	
1.5880	-4.44779	-5.36439	0	
1.5887	-3.49893	1.65497	0	
1.5893	-4.44779	5.93507	0	
1.5900	-6.22691	4.39424	0	
1.5907	-4.44779	-3.82356	0	
1.5913	-2.90589	-19.6885	0	
1.5920	-4.09197	-37.0942	0	
1.5927	-1.95703	-50.8476	0	
1.5933	2.90589	-59.9785	0	
1.5940	2.01633	-46.8528	0	
1.5947	-0.474431	-10.5576	0	
1.5953	0.770951	12.3267	0	
1.5960	0.770951	11.4136	0	
1.5967	0.177912	22.7131	0	
1.5973	2.01633	52.6167	0	
1.5980	2.01633	66.3701	0	
1.5987	1.36399	55.0706	0	
1.5993	3.20241	36.4665	0	
1.6000	4.74431	19.6885	0	
1.6007	5.63387	9.58743	0	
1.6013	6.58274	9.58743	0	
1.6020	2.31285	8.95968	0	
1.6027	-0.770951	6.84816	0	
1.6033	2.01633	7.76125	0	
1.6040	2.31285	9.30209	0	
1.6047	-1.06747	7.76125	0	
1.6053	-1.36399	5.64973	0	
1.6060	-0.770951	4.73665	0	
1.6067	-2.31285	6.22041	0	
1.6073	-2.60937	11.756	0	
1.6080	-3.79545	15.979	0	
1.6087	-5.33735	16.6068	0	
1.6093	-3.79545	15.979	0	
1.6100	-2.31285	13.5822	0	
1.6107	-3.49893	8.95968	0	
1.6113	-3.79545	6.56282	0	
1.6120	-2.31285	8.67434	0	
1.6127	-0.770951	10.5005	0	
1.6133	-0.474431	9.58743	0	
1.6140	-1.66051	4.1089	0	
1.6147	0.177912	-3.19581	0	
1.6153	4.74431	-8.10366	0	
1.6160	3.79545	-12.3838	0	
1.6167	2.01633	-20.3162	0	
1.6173	4.15127	-26.7078	0	
1.6180	4.74431	-26.1371	0	
1.6187	4.44779	-20.6016	0	
1.6193	6.58274	-17.8623	0	
1.6200	5.93039	-18.1476	0	
1.6207	2.90589	-16.9492	0	
1.6213	3.79545	-11.4707	0	
1.6220	2.90589	-5.99214	0	
1.6227	0.474431	-2.91047	0	
1.6233	1.66051	-0.798952	0	
1.6240	1.06747	0.741884	0	
1.6247	-2.60937	2.28272	0	
1.6253	-2.60937	4.39424	0	
1.6260	-0.770951	5.64973	0	
1.6267	-1.66051	3.19581	0	
1.6273	-3.20241	0.456544	0	
1.6280	-4.74431	2.28272	0	
1.6287	-6.22691	4.1089	0	
1.6293	-5.33735	1.36963	0	
1.6300	-5.33735	0.456544	0	
1.6307	-4.09197	-0.171204	0	
1.6313	-0.474431	-16.0361	0	
1.6320	0.177912	-35.268	0	
1.6327	-3.20241	-33.1565	0	
1.6333	-4.09197	-20.944	0	
1.6340	-2.60937	-16.6639	0	
1.6347	-2.31285	-7.81832	0	
1.6353	-1.95703	6.56282	0	
1.6360	2.01633	9.58743	0	
1.6367	4.74431	4.39424	0	
1.6373	3.79545	0.741884	0	
1.6380	4.74431	-3.53822	0	
1.6387	5.63387	-6.56282	0	
1.6393	3.79545	-5.36439	0	
1.6400	3.49893	-4.73665	0	
1.6407	4.44779	-4.73665	0	
1.6413	2.01633	-2.28272	0	
1.6420	1.36399	-1.36963	0	
1.6427	3.79545	-1.36963	0	
1.6433	2.31285	0.741884	0	
1.6440	-0.474431	2.28272	0	
1.6447	0.474431	-0.798952	0	
1.6453	0.770951	-2.62513	0	
1.6460	1.06747	1.65497	0	
1.6467	2.01633	3.48115	0	
1.6473	-0.474431	1.65497	0	
1.6480	-2.60937	4.1089	0	
1.6487	-0.770951	8.04659	0	
1.6493	-1.36399	5.30733	0	
1.6500	-2.90589	-1.36963	0	
1.6507	-0.770951	-5.36439	0	
1.6513	0.177912	-3.82356	0	
1.6520	-1.36399	0.456544	0	
1.6527	-1.66051	0.741884	0	
1.6533	-0.118608	-0.456544	0	
1.6540	-0.770951	1.36963	0	
1.6547	-0.770951	1.94031	0	
1.6553	2.90589	-0.171204	0	
1.6560	5.63387	0.456544	0	
1.6567	3.79545	1.36963	0	
1.6573	2.60937	2.28272	0	
1.6580	4.74431	7.76125	0	
1.6587	6.87926	11.4136	0	
1.6593	6.58274	8.04659	0	
1.6600	6.58274	4.73665	0	
1.6607	7.17578	3.82356	0	
1.6613	7.47229	1.65497	0	
1.6620	6.58274	-1.08429	0	
1.6627	4.74431	-3.19581	0	
1.6633	3.79545	-5.36439	0	
1.6640	2.60937	-5.99214	0	
1.6647	1.06747	-6.56282	0	
1.6653	0.770951	-5.99214	0	
1.6660	0.177912	-4.73665	0	
1.6667	-2.31285	-5.99214	0	
1.6673	-3.49893	-5.36439	0	
1.6680	-2.31285	0.456544	0	
1.6687	-3.79545	6.22041	0	
1.6693	-5.93039	15.4084	0	
1.6700	-2.60937	28.534	0	
1.6707	-0.770951	28.8193	0	
1.6713	-4.44779	16.8921	0	
1.6720	-4.44779	12.3267	0	
1.6727	-1.66051	12.9544	0	
1.6733	-2.90589	5.64973	0	
1.6740	-2.60937	-1.36963	0	
1.6747	2.60937	-2.28272	0	
1.6753	3.79545	-4.4513	0	
1.6760	1.06747	-4.4513	0	
1.6767	1.66051	-3.53822	0	
1.6773	3.79545	-6.90523	0	
1.6780	3.49893	-11.1283	0	
1.6787	2.60937	-16.0361	0	
1.6793	2.90589	-18.7754	0	
1.6800	3.49893	-13.2968	0	
1.6807	2.90589	-10.5576	0	
1.6813	2.60937	-13.9246	0	
1.6820	3.79545	-4.1089	0	
1.6827	3.79545	17.5199	0	
1.6833	1.06747	24.5392	0	
1.6840	-0.770951	16.8921	0	
1.6847	-2.60937	10.8429	0	
1.6853	-5.63387	4.1089	0	
1.6860	-5.63387	-3.19581	0	
1.6867	-2.60937	-4.73665	0	
1.6873	-3.49893	-4.1089	0	
1.6880	-7.17578	-4.4513	0	
1.6887	-6.22691	-2.28272	0	
1.6893	-3.79545	-1.36963	0	
1.6900	-4.44779	-2.62513	0	
1.6907	-7.17578	-1.36963	0	
1.6913	-7.76881	3.82356	0	
1.6920	-5.04083	7.47591	0	
1.6927	-3.49893	8.95968	0	
1.6933	-5.33735	10.2152	0	
1.6940	-4.44779	9.58743	0	
1.6947	-1.95703	6.84816	0	
1.6953	-2.31285	1.94031	0	
1.6960	-1.06747	-5.36439	0	
1.6967	2.90589	-11.4707	0	
1.6973	2.90589	-14.4953	0	
1.6980	1.06747	-21.2293	0	
1.6987	2.31285	-32.5288	0	
1.6993	3.20241	-38.0073	0	
1.7000	3.20241	-36.1811	0	
1.7007	3.49893	-25.7947	0	
1.7013	3.79545	4.39424	0	
1.7020	5.33735	38.578	0	
1.7027	5.93039	43.1434	0	
1.7033	0.770951	23.6262	0	
1.7040	-4.09197	4.73665	0	
1.7047	-2.60937	-9.92983	0	
1.7053	-1.66051	-20.6016	0	
1.7060	-4.74431	-24.2539	0	
1.7067	-4.74431	-26.4225	0	
1.7073	-3.49893	-27.6209	0	
1.7080	-5.33735	-14.2099	0	
1.7087	-6.22691	21.8	0	
1.7093	-4.44779	64.5439	0	
1.7100	-3.49893	81.9497	0	
1.7107	-4.09197	68.1963	0	
1.7113	-2.60937	51.989	0	
1.7120	-0.770951	45.312	0	
1.7127	-1.66051	26.9932	0	
1.7133	-3.20241	-0.798952	0	
1.7140	-2.90589	-11.756	0	
1.7147	-1.66051	-5.64973	0	
1.7153	2.01633	1.36963	0	
1.7160	5.63387	1.65497	0	
1.7167	3.49893	-0.456544	0	
1.7173	-0.770951	-0.171204	0	
1.7180	0.770951	1.94031	0	
1.7187	3.79545	0.741884	0	
1.7193	3.79545	-1.36963	0	
1.7200	3.79545	-1.36963	0	
1.7207	2.90589	-0.456544	0	
1.7213	0.177912	-2.28272	0	
1.7220	0.770951	-9.01675	0	
1.7227	3.79545	-16.6639	0	
1.7233	1.36399	-15.4084	0	
1.7240	-2.31285	-12.0984	0	
1.7247	-1.95703	-15.4084	0	
1.7253	-2.31285	-16.9492	0	
1.7260	-4.44779	-12.6691	0	
1.7267	-3.79545	-13.9246	0	
1.7273	-4.44779	-17.8623	0	
1.7280	-7.17578	-15.123	0	
1.7287	-9.0142	-5.36439	0	
1.7293	-8.06533	8.389	0	
1.7300	-5.63387	19.6885	0	
1.7307	-2.60937	18.433	0	
1.7313	-2.60937	10.5005	0	
1.7320	-4.44779	7.76125	0	
1.7327	-3.49893	4.39424	0	
1.7333	-1.06747	-2.28272	0	
1.7340	-1.36399	-4.1089	0	
1.7347	0.177912	-6.27748	0	
1.7353	4.15127	-14.2099	0	
1.7360	5.04083	-17.5769	0	
1.7367	3.79545	-15.4084	0	
1.7373	2.90589	-15.7508	0	
1.7380	2.60937	-14.2099	0	
1.7387	3.79545	-12.0984	0	
1.7393	5.63387	-13.2968	0	
1.7400	4.44779	-9.92983	0	
1.7407	1.36399	-4.1089	0	
1.7413	1.06747	-6.90523	0	
1.7420	1.06747	-11.1283	0	
1.7427	0.177912	-11.4707	0	
1.7433	1.06747	-13.5822	0	
1.7440	0.177912	-13.2968	0	
1.7447	-3.49893	-10.5576	0	
1.7453	-4.44779	-13.5822	0	
1.7460	-2.60937	-18.49	0	
1.7467	-4.44779	-16.9492	0	
1.7473	-5.33735	-13.5822	0	
1.7480	-3.20241	-10.8429	0	
1.7487	-3.79545	-8.10366	0	
1.7493	-5.33735	-5.07905	0	
1.7500	-2.31285	-1.99738	0	
1.7507	-0.474431	-0.798952	0	
1.7513	-1.66051	3.82356	0	
1.7520	-0.118608	15.979	0	
1.7527	3.49893	29.4471	0	
1.7533	3.20241	42.2303	0	
1.7540	1.06747	54.1575	0	
1.7547	2.31285	48.0513	0	
1.7553	3.79545	26.9932	0	
1.7560	2.01633	15.4084	0	
1.7567	0.177912	13.2398	0	
1.7573	2.60937	8.389	0	
1.7580	4.74431	5.64973	0	
1.7587	2.60937	5.93507	0	
1.7593	0.474431	3.48115	0	
1.7600	0.474431	-2.28272	0	
1.7607	1.36399	-10.8429	0	
1.7613	2.60937	-16.0361	0	
1.7620	2.90589	-11.756	0	
1.7627	1.36399	-8.73141	0	
1.7633	0.770951	-9.64449	0	
1.7640	0.474431	-5.64973	0	
1.7647	-1.66051	-2.28272	0	
1.7653	-3.20241	-4.1089	0	
1.7660	-3.49893	-3.53822	0	
1.7667	-4.44779	-3.82356	0	
1.7673	-5.33735	-7.47591	0	
1.7680	-5.63387	-6.27748	0	
1.7687	-5.63387	-4.4513	0	
1.7693	-4.44779	-6.90523	0	
1.7700	-3.49893	-7.81832	0	
1.7707	-4.74431	-13.0115	0	
1.7713	-5.33735	-24.2539	0	
1.7720	-4.09197	-28.8764	0	
1.7727	-1.95703	-30.3602	0	
1.7733	-1.06747	-35.8958	0	
1.7740	-1.95703	-37.3795	0	
1.7747	-1.66051	-36.1811	0	
1.7753	2.60937	-31.6157	0	
1.7760	3.79545	-4.1089	0	
1.7767	1.06747	40.7466	0	
1.7773	-0.474431	69.7371	0	
1.7780	0.177912	70.9355	0	
1.7787	1.06747	52.9591	0	
1.7793	1.06747	30.0178	0	
1.7800	0.770951	20.6016	0	
1.7807	1.06747	20.2591	0	
1.7813	2.31285	10.2152	0	
1.7820	1.66051	-1.08429	0	
1.7827	1.06747	-2.28272	0	
1.7833	1.06747	-0.456544	0	
1.7840	-1.06747	1.36963	0	
1.7847	-3.49893	3.82356	0	
1.7853	-2.60937	4.1089	0	
1.7860	-1.06747	3.48115	0	
1.7867	-1.36399	5.02199	0	
1.7873	-4.44779	6.56282	0	
1.7880	-7.17578	7.47591	0	
1.7887	-5.04083	8.95968	0	
1.7893	-3.79545	9.58743	0	
1.7900	-5.63387	9.58743	0	
1.7907	-4.44779	10.5005	0	
1.7913	-2.60937	12.3267	0	
1.7920	-4.09197	14.1529	0	
1.7927	-1.95703	12.3267	0	
1.7933	1.36399	7.76125	0	
1.7940	0.177912	4.73665	0	
1.7947	0.177912	4.1089	0	
1.7953	3.49893	5.02199	0	
1.7960	3.20241	4.1089	0	
1.7967	2.31285	0.114136	0	
1.7973	2.90589	-4.4513	0	
1.7980	2.90589	-9.64449	0	
1.7987	6.58274	-15.7508	0	
1.7993	9.60724	-16.0361	0	
1.8000	4.74431	-11.4707	0	
1.8007	1.06747	-11.1283	0	
1.8013	4.44779	-12.3838	0	
1.8020	5.63387	-9.64449	0	
1.8027	3.79545	-9.64449	0	
1.8033	2.31285	-8.73141	0	
1.8040	-0.770951	-3.53822	0	
1.8047	-1.06747	-10.5576	0	
1.8053	2.01633	-33.1565	0	
1.8060	-1.36399	-42.5727	0	
1.8067	-5.33735	-28.2487	0	
1.8073	-4.74431	-11.756	0	
1.8080	-5.63387	-7.19057	0	
1.8087	-6.87926	-8.73141	0	
1.8093	-4.09197	-10.5576	0	
1.8100	-2.90589	-8.73141	0	
1.8107	-3.79545	-4.1089	0	
1.8113	-2.60937	-1.36963	0	
1.8120	-1.66051	0.741884	0	
1.8127	-1.95703	4.1089	0	
1.8133	-0.770951	5.02199	0	
1.8140	0.177912	4.73665	0	
1.8147	1.06747	6.84816	0	
1.8153	1.36399	10.2152	0	
1.8160	1.36399	11.4136	0	
1.8167	2.90589	10.8429	0	
1.8173	3.79545	10.5005	0	
1.8180	2.90589	12.0414	0	
1.8187	3.79545	12.3267	0	
1.8193	8.42116	8.67434	0	
1.8200	8.42116	3.19581	0	
1.8207	5.63387	0.456544	0	
1.8213	5.33735	-2.28272	0	
1.8220	4.44779	-6.56282	0	
1.8227	2.60937	-10.5576	0	
1.8233	3.79545	-13.9246	0	
1.8240	5.04083	-16.3215	0	
1.8247	2.60937	-17.2345	0	
1.8253	2.31285	-14.2099	0	
1.8260	2.90589	-9.30209	0	
1.8267	-0.770951	-5.99214	0	
1.8273	-2.60937	-5.36439	0	
1.8280	0.770951	-4.4513	0	
1.8287	0.770951	-1.99738	0	
1.8293	-3.49893	0.114136	0	
1.8300	-3.49893	-1.36963	0	
1.8307	-1.66051	-1.99738	0	
1.8313	-1.66051	0.114136	0	
1.8320	-0.770951	2.28272	0	
1.8327	0.177912	6.84816	0	
1.8333	-1.66051	13.2398	0	
1.8340	-0.770951	16.6068	0	
1.8347	3.79545	17.2345	0	
1.8353	4.44779	15.979	0	
1.8360	2.60937	12.3267	0	
1.8367	2.90589	9.30209	0	
1.8373	2.01633	6.56282	0	
1.8380	1.06747	-0.456544	0	
1.8387	4.15127	-5.99214	0	
1.8393	6.87926	-7.81832	0	
1.8400	4.74431	-13.0115	0	
1.8407	3.49893	-18.7754	0	
1.8413	3.79545	-23.3408	0	
1.8420	2.01633	-33.4419	0	
1.8427	1.06747	-38.2926	0	
1.8433	3.20241	-18.1476	0	
1.8440	2.90589	15.979	0	
1.8447	-0.770951	38.578	0	
1.8453	-2.31285	37.3795	0	
1.8460	-0.770951	22.4277	0	
1.8467	-1.66051	10.5005	0	
1.8473	-4.74431	8.67434	0	
1.8480	-5.63387	8.04659	0	
1.8487	-5.33735	5.93507	0	
1.8493	-6.87926	5.02199	0	
1.8500	-5.93039	4.1089	0	
1.8507	-3.49893	5.64973	0	
1.8513	-4.44779	9.58743	0	
1.8520	-6.58274	7.1335	0	
1.8527	-5.33735	1.36963	0	
1.8533	-4.09197	2.91047	0	
1.8540	-3.49893	6.84816	0	
1.8547	0.177912	4.73665	0	
1.8553	2.90589	2.28272	0	
1.8560	2.31285	1.94031	0	
1.8567	3.79545	-0.456544	0	
1.8573	5.93039	-2.28272	0	
1.8580	5.04083	-2.28272	0	
1.8587	4.15127	-5.07905	0	
1.8593	4.15127	-7.81832	0	
1.8600	2.60937	-7.47591	0	
1.8607	1.06747	-8.73141	0	
1.8613	1.36399	-12.0984	0	
1.8620	0.177912	-10.2152	0	
1.8627	-2.60937	-0.798952	0	
1.8633	-2.60937	0.741884	0	
1.8640	0.177912	-10.5576	0	
1.8647	-0.770951	-22.7701	0	
1.8653	-3.20241	-31.6157	0	
1.8660	-2.60937	-42.5727	0	
1.8667	0.177912	-48.679	0	
1.8673	0.770951	-51.4183	0	
1.8680	-2.60937	-50.8476	0	
1.8687	-6.87926	-25.7947	0	
1.8693	-5.33735	22.9984	0	
1.8700	-0.474431	57.1821	0	
1.8707	-1.95703	62.7177	0	
1.8713	-4.74431	54.1575	0	
1.8720	-0.474431	38.9204	0	
1.8727	1.66051	26.9932	0	
1.8733	-0.770951	28.8193	0	
1.8740	0.177912	36.4665	0	
1.8747	0.770951	39.4911	0	
1.8753	-1.66051	34.2979	0	
1.8760	0.770951	21.5146	0	
1.8767	2.90589	11.4136	0	
1.8773	1.06747	9.58743	0	
1.8780	2.90589	5.64973	0	
1.8787	5.63387	0.456544	0	
1.8793	3.79545	-0.456544	0	
1.8800	4.44779	-3.53822	0	
1.8807	4.44779	-9.64449	0	
1.8813	0.177912	-13.0115	0	
1.8820	0.474431	-14.2099	0	
1.8827	4.15127	-15.123	0	
1.8833	2.60937	-14.8377	0	
1.8840	-0.118608	-16.0361	0	
1.8847	0.177912	-18.1476	0	
1.8853	-2.31285	-19.1178	0	
1.8860	-4.44779	-19.1178	0	
1.8867	-2.60937	-17.2345	0	
1.8873	-1.66051	-13.2968	0	
1.8880	-4.09197	-11.4707	0	
1.8887	-4.44779	-9.64449	0	
1.8893	-1.95703	-1.08429	0	
1.8900	0.474431	8.67434	0	
1.8907	-0.474431	11.4136	0	
1.8913	-2.60937	11.1283	0	
1.8920	-2.60937	13.2398	0	
1.8927	-1.06747	12.6691	0	
1.8933	-0.770951	8.95968	0	
1.8940	0.177912	6.84816	0	
1.8947	1.06747	5.30733	0	
1.8953	0.474431	1.36963	0	
1.8960	1.06747	-2.62513	0	
1.8967	2.31285	-5.64973	0	
1.8973	2.31285	-8.73141	0	
1.8980	2.31285	-6.90523	0	
1.8987	2.01633	-0.456544	0	
1.8993	2.01633	1.02722	0	
1.9000	4.74431	-1.36963	0	
1.9007	5.33735	1.02722	0	
1.9013	0.770951	4.39424	0	
1.9020	-1.36399	3.82356	0	
1.9027	2.01633	5.93507	0	
1.9033	2.01633	9.30209	0	
1.9040	-1.36399	10.5005	0	
1.9047	-2.31285	14.1529	0	
1.9053	-2.60937	13.5822	0	
1.9060	-3.20241	5.93507	0	
1.9067	-2.90589	5.93507	0	
1.9073	-4.44779	5.64973	0	
1.9080	-6.22691	-15.123	0	
1.9087	-5.04083	-35.268	0	
1.9093	-4.74431	-30.7026	0	
1.9100	-6.58274	-20.944	0	
1.9107	-5.93039	-18.7754	0	
1.9113	-4.74431	-13.2968	0	
1.9120	-5.04083	-6.90523	0	
1.9127	-2.31285	-4.1089	0	
1.9133	0.177912	-1.36963	0	
1.9140	-1.66051	-1.08429	0	
1.9147	-2.60937	-3.82356	0	
1.9153	-0.770951	-5.99214	0	
1.9160	-0.474431	-8.389	0	
1.9167	0.474431	-9.92983	0	
1.9173	1.66051	-6.90523	0	
1.9180	1.06747	-5.64973	0	
1.9187	1.66051	-9.64449	0	
1.9193	4.44779	-12.3838	0	
1.9200	3.49893	-10.8429	0	
1.9207	1.06747	-8.389	0	
1.9213	2.01633	-2.28272	0	
1.9220	3.20241	3.82356	0	
1.9227	2.60937	5.02199	0	
1.9233	1.06747	4.1089	0	
1.9240	-0.118608	3.48115	0	
1.9247	-1.06747	2.28272	0	
1.9253	-1.06747	1.02722	0	
1.9260	-1.66051	-0.456544	0	
1.9267	-1.66051	-3.82356	0	
1.9273	-0.770951	-3.82356	0	
1.9280	-0.770951	1.65497	0	
1.9287	-2.60937	3.19581	0	
1.9293	-3.49893	-0.456544	0	
1.9300	-4.09197	1.02722	0	
1.9307	-5.04083	4.73665	0	
1.9313	-4.44779	1.02722	0	
1.9320	-2.60937	-4.73665	0	
1.9327	-1.36399	-2.28272	0	
1.9333	-2.31285	2.56806	0	
1.9340	-2.90589	4.73665	0	
1.9347	-1.06747	7.47591	0	
1.9353	1.66051	10.8429	0	
1.9360	2.60937	10.2152	0	
1.9367	2.01633	8.04659	0	
1.9373	1.06747	9.30209	0	
1.9380	0.770951	10.8429	0	
1.9387	2.01633	8.95968	0	
1.9393	2.90589	4.1089	0	
1.9400	2.90589	-0.171204	0	
1.9407	2.90589	-4.4513	0	
1.9413	2.90589	-12.3838	0	
1.9420	0.474431	-23.9686	0	
1.9427	-1.06747	-38.9204	0	
1.9433	0.474431	-56.9539	0	
1.9440	0.177912	-72.191	0	
1.9447	-2.60937	-80.7512	0	
1.9453	-3.20241	-82.8628	0	
1.9460	-3.49893	-58.1523	0	
1.9467	-4.44779	11.4136	0	
1.9473	-5.33735	88.6266	0	
1.9480	-6.87926	114.878	0	
1.9487	-7.76881	89.5397	0	
1.9493	-5.93039	54.4429	0	
1.9500	-4.74431	31.901	0	
1.9507	-5.93039	19.6885	0	
1.9513	-5.33735	11.756	0	
1.9520	-4.44779	8.04659	0	
1.9527	-4.44779	7.76125	0	
1.9533	-1.66051	7.1335	0	
1.9540	0.177912	5.30733	0	
1.9547	-0.770951	7.47591	0	
1.9553	-0.118608	12.3267	0	
1.9560	2.01633	16.3215	0	
1.9567	1.36399	23.9115	0	
1.9573	1.36399	35.211	0	
1.9580	1.06747	39.4911	0	
1.9587	-0.474431	31.5586	0	
1.9593	1.36399	20.6016	0	
1.9600	4.44779	15.979	0	
1.9607	3.79545	14.1529	0	
1.9613	3.79545	10.5005	0	
1.9620	3.79545	6.22041	0	
1.9627	0.474431	4.39424	0	
1.9633	-2.31285	1.02722	0	
1.9640	0.177912	-2.91047	0	
1.9647	0.474431	-4.73665	0	
1.9653	-3.20241	-6.90523	0	
1.9660	-3.79545	-9.30209	0	
1.9667	-2.60937	-7.81832	0	
1.9673	-3.79545	-5.36439	0	
1.9680	-3.49893	-4.4513	0	
1.9687	-1.36399	-4.4513	0	
1.9693	-3.20241	-3.82356	0	
1.9700	-7.17578	-1.36963	0	
1.9707	-5.63387	-0.456544	0	
1.9713	-2.90589	-3.19581	0	
1.9720	-4.44779	-3.82356	0	
1.9727	-5.33735	-1.36963	0	
1.9733	-2.90589	-4.73665	0	
1.9740	-2.60937	-11.1283	0	
1.9747	-3.49893	-11.1283	0	
1.9753	-2.60937	-5.64973	0	
1.9760	0.474431	-4.73665	0	
1.9767	2.90589	-9.64449	0	
1.9773	2.60937	-11.756	0	
1.9780	2.01633	-8.73141	0	
1.9787	2.90589	-0.798952	0	
1.9793	3.20241	12.0414	0	
1.9800	2.90589	22.7131	0	
1.9807	3.79545	21.1722	0	
1.9813	2.90589	14.7806	0	
1.9820	0.474431	11.4136	0	
1.9827	1.66051	4.73665	0	
1.9833	2.01633	-1.71204	0	
1.9840	-0.770951	-4.1089	0	
1.9847	-2.31285	-16.9492	0	
1.9853	-1.66051	-38.0073	0	
1.9860	-3.49893	-42.5727	0	
1.9867	-5.04083	-33.4419	0	
1.9873	-3.20241	-28.8764	0	
1.9880	-1.66051	-26.7078	0	
1.9887	-3.20241	-23.6832	0	
1.9893	-4.44779	-24.2539	0	
1.9900	-2.90589	-17.8623	0	
1.9907	-0.770951	1.36963	0	
1.9913	-0.474431	11.1283	0	
1.9920	-0.770951	2.56806	0	
1.9927	-1.66051	-5.64973	0	
1.9933	-2.90589	-6.56282	0	
1.9940	0.177912	-7.19057	0	
1.9947	4.74431	-5.99214	0	
1.9953	4.15127	-2.28272	0	
1.9960	2.90589	-1.36963	0	
1.9967	4.15127	-1.36963	0	
1.9973	5.93039	-0.456544	0	
1.9980	5.63387	-1.99738	0	
1.9987	3.79545	-1.71204	0	
1.9993	2.90589	1.02722	0	
2.0000	5.33735	0.456544	0	
2.0007	4.74431	-1.36963	0	
2.0013	1.36399	0.114136	0	
2.0020	2.01633	0.456544	0	
2.0027	2.60937	-1.36963	0	
2.0033	-1.36399	-1.36963	0	
2.0040	-2.60937	-0.798952	0	
2.0047	1.06747	-0.798952	0	
2.0053	0.770951	0.456544	0	
2.0060	-1.66051	1.36963	0	
2.0067	-1.95703	1.65497	0	
2.0073	-2.60937	2.91047	0	
2.0080	-5.04083	4.39424	0	
2.0087	-5.33735	4.73665	0	
2.0093	-3.49893	2.91047	0	
2.0100	-2.60937	-0.798952	0	
2.0107	-4.44779	-3.19581	0	
2.0113	-5.63387	-2.28272	0	
2.0120	-4.09197	-3.19581	0	
2.0127	-2.60937	-4.73665	0	
2.0133	-2.90589	-1.08429	0	
2.0140	-1.36399	2.91047	0	
2.0147	1.36399	1.36963	0	
2.0153	2.01633	-0.456544	0	
2.0160	3.49893	1.94031	0	
2.0167	5.63387	4.1089	0	
2.0173	4.74431	4.39424	0	
2.0180	3.20241	3.48115	0	
2.0187	5.33735	3.48115	0	
2.0193	6.87926	4.1089	0	
2.0200	5.04083	3.19581	0	
2.0207	3.79545	3.48115	0	
2.0213	3.79545	5.93507	0	
2.0220	2.01633	7.1335	0	
2.0227	-1.36399	6.56282	0	
2.0233	-0.770951	5.30733	0	
2.0240	1.66051	3.48115	0	
2.0247	0.177912	3.19581	0	
2.0253	-1.66051	4.1089	0	
2.0260	-0.118608	2.91047	0	
2.0267	0.177912	0.456544	0	
2.0273	-3.20241	0.114136	0	
2.0280	-4.09197	-0.456544	0	
2.0287	-1.95703	-0.798952	0	
2.0293	-3.79545	0.114136	0	
2.0300	-7.17578	-0.456544	0	
2.0307	-5.63387	-2.28272	0	
2.0313	-3.20241	-5.07905	0	
2.0320	-3.49893	-6.90523	0	
2.0327	-1.95703	-7.47591	0	
2.0333	0.770951	-6.90523	0	
2.0340	-0.770951	-7.47591	0	
2.0347	-1.66051	-5.64973	0	
2.0353	0.177912	-2.28272	0	
2.0360	-0.118608	-1.36963	0	
2.0367	-0.770951	-1.71204	0	
2.0373	2.01633	1.36963	0	
2.0380	3.79545	9.87277	0	
2.0387	5.33735	22.9984	0	
2.0393	8.71768	31.5586	0	
2.0400	5.93039	26.9932	0	
2.0407	0.474431	16.8921	0	
2.0413	2.01633	13.2398	0	
2.0420	4.44779	9.58743	0	
2.0427	2.01633	0.456544	0	
2.0433	0.177912	-4.73665	0	
2.0440	0.474431	-3.19581	0	
2.0447	-0.474431	-3.19581	0	
2.0453	-1.66051	-3.19581	0	
2.0460	-2.90589	1.36963	0	
2.0467	-2.60937	4.1089	0	
2.0473	-1.95703	1.02722	0	
2.0480	-5.33735	-2.28272	0	
2.0487	-8.71768	0.114136	0	
2.0493	-7.17578	4.73665	0	
2.0500	-5.33735	5.93507	0	
2.0507	-5.33735	5.64973	0	
2.0513	-5.33735	5.02199	0	
2.0520	-6.22691	0.114136	0	
2.0527	-7.17578	-9.64449	0	
2.0533	-5.33735	-13.9246	0	
2.0540	-2.60937	-14.8377	0	
2.0547	-0.474431	-25.167	0	
2.0553	-0.770951	-40.7466	0	
2.0560	-2.31285	-52.3314	0	
2.0567	-0.474431	-65.7994	0	
2.0573	2.90589	-76.4711	0	
2.0580	1.66051	-60.6062	0	
2.0587	-0.474431	-21.2293	0	
2.0593	1.36399	17.2345	0	
2.0600	3.79545	48.9644	0	
2.0607	2.60937	71.8486	0	
2.0613	0.474431	73.6748	0	
2.0620	0.770951	57.8099	0	
2.0627	2.31285	37.0371	0	
2.0633	2.01633	20.6016	0	
2.0640	0.770951	14.1529	0	
2.0647	0.177912	14.7806	0	
2.0653	0.177912	15.066	0	
2.0660	-1.66051	16.8921	0	
2.0667	-3.49893	19.3461	0	
2.0673	-4.44779	15.979	0	
2.0680	-4.44779	13.2398	0	
2.0687	-2.31285	15.066	0	
2.0693	-1.06747	14.4953	0	
2.0700	-2.31285	12.0414	0	
2.0707	-2.60937	13.2398	0	
2.0713	-1.66051	14.4953	0	
2.0720	-1.66051	12.9544	0	
2.0727	-0.474431	12.3267	0	
2.0733	0.474431	12.3267	0	
2.0740	-0.474431	9.30209	0	
2.0747	1.06747	7.47591	0	
2.0753	4.74431	6.56282	0	
2.0760	5.33735	1.65497	0	
2.0767	3.20241	-5.07905	0	
2.0773	2.60937	-9.92983	0	
2.0780	2.90589	-13.0115	0	
2.0787	3.49893	-17.8623	0	
2.0793	4.44779	-21.857	0	
2.0800	2.90589	-25.167	0	
2.0807	1.06747	-27.6209	0	
2.0813	2.31285	-24.8817	0	
2.0820	1.66051	-17.2345	0	
2.0827	-1.36399	-11.4707	0	
2.0833	0.177912	-6.56282	0	
2.0840	2.01633	-2.28272	0	
2.0847	-1.06747	-10.8429	0	
2.0853	-3.20241	-29.4471	0	
2.0860	-1.66051	-31.6157	0	
2.0867	-1.66051	-16.0361	0	
2.0873	-1.66051	-3.19581	0	
2.0880	-0.770951	3.19581	0	
2.0887	-4.44779	5.93507	0	
2.0893	-7.17578	2.28272	0	
2.0900	-5.04083	-1.99738	0	
2.0907	-3.20241	-1.36963	0	
2.0913	-3.20241	-1.36963	0	
2.0920	-2.60937	-3.19581	0	
2.0927	-2.90589	-2.91047	0	
2.0933	-2.90589	-1.71204	0	
2.0940	-0.770951	-1.71204	0	
2.0947	1.06747	-0.456544	0	
2.0953	2.60937	2.28272	0	
2.0960	4.15127	1.02722	0	
2.0967	3.79545	-1.08429	0	
2.0973	2.31285	0.456544	0	
2.0980	3.49893	1.36963	0	
2.0987	5.63387	-2.91047	0	
2.0993	6.28622	-5.99214	0	
2.1000	5.33735	-5.64973	0	
2.1007	4.15127	-9.01675	0	
2.1013	2.90589	-16.0361	0	
2.1020	1.06747	-18.49	0	
2.1027	0.474431	-15.4084	0	
2.1033	2.01633	-12.3838	0	
2.1040	0.770951	-16.0361	0	
2.1047	-1.66051	-26.1371	0	
2.1053	-0.118608	-32.5288	0	
2.1060	0.770951	-32.5288	0	
2.1067	-3.20241	-32.5288	0	
2.1073	-4.74431	-33.4419	0	
2.1080	-3.49893	-32.8141	0	
2.1087	-3.49893	-23.6832	0	
2.1093	-2.90589	8.389	0	
2.1100	-2.60937	55.356	0	
2.1107	-3.49893	78.2402	0	
2.1113	-3.49893	63.9162	0	
2.1120	-3.20241	37.0371	0	
2.1127	-5.33735	18.433	0	
2.1133	-3.20241	8.67434	0	
2.1140	1.06747	3.82356	0	
2.1147	1.06747	0.456544	0	
2.1153	1.66051	-1.36963	0	
2.1160	5.33735	0.114136	0	
2.1167	4.44779	2.56806	0	
2.1173	2.01633	1.36963	0	
2.1180	5.33735	-1.36963	0	
2.1187	7.47229	-0.456544	0	
2.1193	3.79545	1.94031	0	
2.1200	1.06747	1.36963	0	
2.1207	3.79545	1.02722	0	
2.1213	4.74431	1.36963	0	
2.1220	2.60937	-0.456544	0	
2.1227	2.01633	-1.71204	0	
2.1233	2.90589	1.65497	0	
2.1240	0.177912	2.28272	0	
2.1247	-2.60937	-1.36963	0	
2.1253	-0.770951	-2.28272	0	
2.1260	0.177912	-1.99738	0	
2.1267	-1.36399	-2.91047	0	
2.1273	-2.31285	-3.82356	0	
2.1280	-2.90589	-6.56282	0	
2.1287	-2.60937	-11.1283	0	
2.1293	-1.06747	-13.2968	0	
2.1300	-0.770951	-12.6691	0	
2.1307	-1.95703	-11.756	0	
2.1313	-1.66051	-10.8429	0	
2.1320	-0.770951	-11.4707	0	
2.1327	1.06747	-9.92983	0	
2.1333	2.01633	-2.28272	0	
2.1340	2.01633	5.02199	0	
2.1347	2.01633	9.87277	0	
2.1353	3.49893	19.9738	0	
2.1360	3.79545	29.4471	0	
2.1367	4.74431	23.9115	0	
2.1373	6.58274	9.87277	0	
2.1380	4.74431	3.19581	0	
2.1387	2.60937	3.19581	0	
2.1393	4.74431	0.741884	0	
2.1400	5.04083	-0.456544	0	
2.1407	2.01633	4.1089	0	
2.1413	2.90589	5.93507	0	
2.1420	4.44779	1.65497	0	
2.1427	0.474431	1.36963	0	
2.1433	-2.60937	2.91047	0	
2.1440	-1.66051	-0.456544	0	
2.1447	-0.770951	-1.08429	0	
2.1453	-1.66051	3.82356	0	
2.1460	-2.60937	4.73665	0	
2.1467	-2.60937	2.56806	0	
2.1473	-1.95703	2.56806	0	
2.1480	-1.66051	1.65497	0	
2.1487	-3.49893	-0.456544	0	
2.1493	-4.74431	-0.171204	0	
2.1500	-3.49893	2.91047	0	
2.1507	-3.49893	6.84816	0	
2.1513	-5.33735	9.58743	0	
2.1520	-5.33735	6.22041	0	
2.1527	-3.49893	1.65497	0	
2.1533	-2.60937	2.91047	0	
2.1540	-2.31285	3.48115	0	
2.1547	0.177912	-4.73665	0	
2.1553	3.49893	-14.2099	0	
2.1560	2.31285	-20.0309	0	
2.1567	-0.118608	-27.9633	0	
2.1573	2.60937	-40.7466	0	
2.1580	5.04083	-49.3068	0	
2.1587	3.49893	-45.6544	0	
2.1593	4.15127	-22.4277	0	
2.1600	5.93039	13.2398	0	
2.1607	2.60937	33.7272	0	
2.1613	0.177912	29.4471	0	
2.1620	2.90589	18.433	0	
2.1627	2.90589	12.0414	0	
2.1633	1.06747	7.76125	0	
2.1640	1.66051	5.93507	0	
2.1647	0.474431	5.93507	0	
2.1653	-3.20241	4.73665	0	
2.1660	-3.49893	5.30733	0	
2.1667	-1.66051	5.93507	0	
2.1673	-1.66051	4.39424	0	
2.1680	-4.09197	5.64973	0	
2.1687	-6.22691	7.1335	0	
2.1693	-5.63387	5.02199	0	
2.1700	-2.60937	6.84816	0	
2.1707	-0.770951	5.02199	0	
2.1713	-3.20241	-13.5822	0	
2.1720	-4.09197	-36.1811	0	
2.1727	-1.66051	-40.1759	0	
2.1733	-0.770951	-32.5288	0	
2.1740	-1.06747	-26.1371	0	
2.1747	0.474431	-20.3162	0	
2.1753	2.01633	-16.0361	0	
2.1760	1.36399	-17.5769	0	
2.1767	3.49893	-17.2345	0	
2.1773	5.04083	-11.4707	0	
2.1780	1.06747	-3.19581	0	
2.1787	-0.770951	7.76125	0	
2.1793	2.01633	15.979	0	
2.1800	2.60937	13.2398	0	
2.1807	0.770951	8.67434	0	
2.1813	1.06747	19.6885	0	
2.1820	2.01633	37.9502	0	
2.1827	0.177912	39.8335	0	
2.1833	-0.474431	27.9063	0	
2.1840	0.177912	19.3461	0	
2.1847	-1.36399	15.066	0	
2.1853	-4.44779	6.84816	0	
2.1860	-4.09197	0.456544	0	
2.1867	-3.20241	-1.99738	0	
2.1873	-4.44779	-4.4513	0	
2.1880	-3.49893	-6.90523	0	
2.1887	-2.31285	-7.19057	0	
2.1893	-5.33735	-7.81832	0	
2.1900	-5.93039	-8.389	0	
2.1907	-0.474431	-5.99214	0	
2.1913	0.770951	-5.07905	0	
2.1920	-1.66051	-6.90523	0	
2.1927	-0.474431	-5.99214	0	
2.1933	1.06747	-6.90523	0	
2.1940	0.474431	-15.123	0	
2.1947	-0.474431	-23.9686	0	
2.1953	-1.66051	-31.6157	0	
2.1960	0.770951	-37.0942	0	
2.1967	3.20241	-22.1424	0	
2.1973	1.66051	19.3461	0	
2.1980	3.20241	58.723	0	
2.1987	7.47229	71.2209	0	
2.1993	5.63387	60.5492	0	
2.2000	2.90589	41.0319	0	
2.2007	4.74431	26.7078	0	
2.2013	4.15127	18.1476	0	
2.2020	4.15127	12.3267	0	
2.2027	5.63387	10.8429	0	
2.2033	0.770951	10.5005	0	
2.2040	-3.20241	6.56282	0	
2.2047	1.66051	4.39424	0	
2.2053	2.90589	5.30733	0	
2.2060	-1.66051	2.56806	0	
2.2067	-1.66051	0.456544	0	
2.2073	-1.06747	3.19581	0	
2.2080	-4.44779	2.28272	0	
2.2087	-5.33735	-2.28272	0	
2.2093	-3.79545	-3.82356	0	
2.2100	-2.90589	-2.28272	0	
2.2107	-4.44779	-1.71204	0	
2.2113	-7.17578	-1.36963	0	
2.2120	-5.93039	-0.456544	0	
2.2127	-2.60937	1.36963	0	
2.2133	-1.95703	3.48115	0	
2.2140	-1.36399	5.93507	0	
2.2147	1.06747	8.389	0	
2.2153	-0.770951	6.56282	0	
2.2160	-1.95703	0.741884	0	
2.2167	0.177912	-1.36963	0	
2.2173	0.770951	-0.456544	0	
2.2180	0.177912	-2.28272	0	
2.2187	1.06747	-5.36439	0	
2.2193	0.770951	-7.81832	0	
2.2200	1.06747	-10.2152	0	
2.2207	3.20241	-10.5576	0	
2.2213	2.90589	-10.2152	0	
2.2220	1.06747	-13.2968	0	
2.2227	-0.118608	-16.3215	0	
2.2233	-2.60937	-15.123	0	
2.2240	-3.20241	-14.8377	0	
2.2247	-1.36399	-14.4953	0	
2.2253	-1.66051	-11.4707	0	
2.2260	-3.20241	-9.30209	0	
2.2267	-0.770951	-7.81832	0	
2.2273	0.474431	-6.56282	0	
2.2280	-2.60937	-7.19057	0	
2.2287	-4.44779	-6.90523	0	
2.2293	-2.31285	-3.19581	0	
2.2300	-0.770951	-3.19581	0	
2.2307	-1.95703	-6.56282	0	
2.2313	-2.60937	-3.82356	0	
2.2320	-2.60937	1.02722	0	
2.2327	-2.60937	0.456544	0	
2.2333	-1.95703	-0.456544	0	
2.2340	-1.06747	1.36963	0	
2.2347	-0.770951	1.36963	0	
2.2353	-0.118608	0.741884	0	
2.2360	-0.770951	1.36963	0	
2.2367	-0.770951	1.94031	0	
2.2373	3.20241	1.65497	0	
2.2380	5.33735	1.36963	0	
2.2387	3.20241	-0.171204	0	
2.2393	2.90589	-3.53822	0	
2.2400	4.15127	-9.64449	0	
2.2407	2.60937	-16.6639	0	
2.2413	2.01633	-19.1178	0	
2.2420	3.79545	-14.4953	0	
2.2427	4.74431	-9.64449	0	
2.2433	5.04083	-8.389	0	
2.2440	2.90589	-8.10366	0	
2.2447	-3.20241	-7.19057	0	
2.2453	-6.22691	-6.90523	0	
2.2460	-4.74431	-5.99214	0	
2.2467	-3.49893	-3.19581	0	
2.2473	-5.04083	-3.19581	0	
2.2480	-7.76881	-6.90523	0	
2.2487	-8.71768	-7.81832	0	
2.2493	-7.17578	-6.56282	0	
2.2500	-7.17578	-10.2152	0	
2.2507	-7.47229	-14.2099	0	
2.2513	-4.74431	-13.2968	0	
2.2520	-2.90589	-13.5822	0	
2.2527	-3.79545	-15.4084	0	
2.2533	-2.60937	-12.3838	0	
2.2540	0.177912	-6.27748	0	
2.2547	0.474431	-1.71204	0	
2.2553	-0.118608	-0.456544	0	
2.2560	0.177912	2.91047	0	
2.2567	1.06747	15.066	0	
2.2573	1.06747	30.6455	0	
2.2580	-1.06747	33.7272	0	
2.2587	-0.770951	27.2785	0	
2.2593	1.06747	23.3408	0	
2.2600	-0.474431	22.4277	0	
2.2607	0.177912	21.5146	0	
2.2613	5.04083	19.6885	0	
2.2620	4.74431	16.3215	0	
2.2627	-1.06747	13.5822	0	
2.2633	-3.49893	10.2152	0	
2.2640	-2.90589	3.19581	0	
2.2647	-1.95703	-0.798952	0	
2.2653	-1.66051	-3.53822	0	
2.2660	-3.20241	-11.1283	0	
2.2667	-3.49893	-15.7508	0	
2.2673	-0.770951	-10.8429	0	
2.2680	-1.95703	-6.90523	0	
2.2687	-5.33735	-5.07905	0	
2.2693	-4.74431	-3.53822	0	
2.2700	-2.31285	-7.81832	0	
2.2707	-2.60937	-16.9492	0	
2.2713	-4.44779	-20.944	0	
2.2720	-3.49893	-21.5146	0	
2.2727	-1.95703	-22.1424	0	
2.2733	-1.36399	-23.3408	0	
2.2740	-1.95703	-28.534	0	
2.2747	-1.66051	-34.3549	0	
2.2753	-0.118608	-36.1811	0	
2.2760	0.474431	-38.9204	0	
2.2767	1.06747	-37.0942	0	
2.2773	2.90589	-10.8429	0	
2.2780	4.44779	30.6455	0	
2.2787	4.15127	52.6167	0	
2.2793	4.44779	47.4235	0	
2.2800	4.44779	36.7518	0	
2.2807	3.79545	32.1864	0	
2.2813	3.79545	30.3602	0	
2.2820	2.90589	26.9932	0	
2.2827	2.90589	19.6885	0	
2.2833	3.79545	13.8675	0	
2.2840	2.31285	14.4953	0	
2.2847	-2.31285	14.1529	0	
2.2853	-2.60937	11.4136	0	
2.2860	-1.66051	14.1529	0	
2.2867	-4.09197	16.6068	0	
2.2873	-5.93039	12.3267	0	
2.2880	-5.04083	12.0414	0	
2.2887	-5.93039	11.756	0	
2.2893	-6.22691	-4.1089	0	
2.2900	-3.49893	-26.1371	0	
2.2907	-3.20241	-32.8141	0	
2.2913	-4.74431	-24.8817	0	
2.2920	-4.44779	-18.7754	0	
2.2927	-3.49893	-23.3408	0	
2.2933	-3.49893	-28.8764	0	
2.2940	-2.31285	-32.5288	0	
2.2947	0.177912	-42.9151	0	
2.2953	1.06747	-53.5869	0	
2.2960	1.06747	-54.1575	0	
2.2967	0.770951	-49.5921	0	
2.2973	1.36399	-32.8141	0	
2.2980	2.90589	8.67434	0	
2.2987	4.74431	53.5298	0	
2.2993	5.33735	75.501	0	
2.3000	5.63387	77.0418	0	
2.3007	6.58274	67.2832	0	
2.3013	5.93039	49.8774	0	
2.3020	4.44779	32.8141	0	
2.3027	4.74431	22.0853	0	
2.3033	4.15127	17.2345	0	
2.3040	1.66051	14.1529	0	
2.3047	0.177912	10.2152	0	
2.3053	0.177912	9.58743	0	
2.3060	-0.118608	10.2152	0	
2.3067	-0.770951	7.47591	0	
2.3073	-1.66051	5.93507	0	
2.3080	-3.79545	7.1335	0	
2.3087	-3.49893	5.02199	0	
2.3093	-1.66051	2.56806	0	
2.3100	-3.49893	2.28272	0	
2.3107	-6.22691	1.65497	0	
2.3113	-5.93039	2.28272	0	
2.3120	-5.04083	1.02722	0	
2.3127	-5.33735	-3.19581	0	
2.3133	-3.49893	-3.53822	0	
2.3140	1.06747	-0.456544	0	
2.3147	2.90589	-0.456544	0	
2.3153	2.31285	-2.28272	0	
2.3160	2.90589	-2.91047	0	
2.3167	3.79545	-3.82356	0	
2.3173	4.74431	-4.73665	0	
2.3180	6.58274	-5.99214	0	
2.3187	8.42116	-7.47591	0	
2.3193	7.47229	-6.90523	0	
2.3200	4.74431	-5.99214	0	
2.3207	3.20241	-7.81832	0	
2.3213	4.44779	-10.2152	0	
2.3220	5.04083	-6.90523	0	
2.3227	2.31285	-0.171204	0	
2.3233	-0.118608	2.28272	0	
2.3240	0.770951	1.65497	0	
2.3247	0.177912	4.1089	0	
2.3253	-2.60937	6.84816	0	
2.3260	-4.09197	5.02199	0	
2.3267	-4.09197	6.84816	0	
2.3273	-5.93039	12.6691	0	
2.3280	-8.06533	14.4953	0	
2.3287	-6.58274	13.5822	0	
2.3293	-3.79545	12.6691	0	
2.3300	-4.44779	10.2152	0	
2.3307	-5.63387	10.5005	0	
2.3313	-4.44779	13.2398	0	
2.3320	-2.90589	9.58743	0	
2.3327	-4.09197	2.28272	0	
2.3333	-4.74431	-2.62513	0	
2.3340	-2.90589	-10.2152	0	
2.3347	0.177912	-18.49	0	
2.3353	1.36399	-20.3162	0	
2.3360	1.06747	-19.4031	0	
2.3367	-0.770951	-20.944	0	
2.3373	-1.95703	-22.4277	0	
2.3380	-0.474431	-27.0502	0	
2.3387	4.15127	-35.268	0	
2.3393	6.28622	-38.9204	0	
2.3400	3.49893	-38.2926	0	
2.3407	2.60937	-38.2926	0	
2.3413	4.44779	-37.0942	0	
2.3420	2.90589	-34.3549	0	
2.3427	-0.770951	-34.0696	0	
2.3433	-0.770951	-33.4419	0	
2.3440	-0.770951	-33.4419	0	
2.3447	-1.95703	-36.1811	0	
2.3453	-2.60937	-37.0942	0	
2.3460	-4.44779	-32.5288	0	
2.3467	-7.17578	-26.1371	0	
2.3473	-5.63387	-20.3162	0	
2.3480	-2.60937	-13.5822	0	
2.3487	-2.60937	-2.28272	0	
2.3493	-5.04083	25.4523	0	
2.3500	-5.04083	59.0083	0	
2.3507	-3.20241	66.3701	0	
2.3513	-3.49893	48.0513	0	
2.3520	-4.74431	34.6403	0	
2.3527	-2.90589	28.1916	0	
2.3533	-1.06747	19.0607	0	
2.3540	-2.90589	13.8675	0	
2.3547	-4.44779	13.5822	0	
2.3553	-0.770951	11.756	0	
2.3560	2.01633	9.87277	0	
2.3567	1.36399	11.756	0	
2.3573	2.01633	13.5822	0	
2.3580	3.79545	11.4136	0	
2.3587	3.49893	5.02199	0	
2.3593	3.79545	0.114136	0	
2.3600	5.04083	-1.71204	0	
2.3607	2.90589	-5.36439	0	
2.3613	2.31285	-11.4707	0	
2.3620	5.33735	-20.0309	0	
2.3627	6.58274	-35.268	0	
2.3633	5.04083	-47.1952	0	
2.3640	2.90589	-48.1083	0	
2.3647	-0.770951	-48.1083	0	
2.3653	-2.60937	-41.6596	0	
2.3660	-0.770951	-9.01675	0	
2.3667	-1.66051	36.7518	0	
2.3673	-3.49893	59.0083	0	
2.3680	-2.60937	49.2497	0	
2.3687	-1.95703	26.0801	0	
2.3693	-2.90589	7.76125	0	
2.3700	-1.95703	9.87277	0	
2.3707	-0.770951	34.9256	0	
2.3713	-1.06747	66.6554	0	
2.3720	-1.66051	83.7758	0	
2.3727	-3.79545	75.2156	0	
2.3733	-4.74431	53.2445	0	
2.3740	-1.66051	35.211	0	
2.3747	0.474431	24.8817	0	
2.3753	-0.770951	20.6016	0	
2.3760	0.474431	15.979	0	
2.3767	2.01633	-0.171204	0	
2.3773	0.177912	-20.944	0	
2.3780	1.06747	-24.8817	0	
2.3787	3.79545	-15.123	0	
2.3793	2.01633	-10.5576	0	
2.3800	0.177912	-7.81832	0	
2.3807	4.74431	-1.08429	0	
2.3813	6.58274	0.741884	0	
2.3820	2.90589	-2.28272	0	
2.3827	2.01633	-3.53822	0	
2.3833	2.90589	-3.53822	0	
2.3840	2.90589	-5.07905	0	
2.3847	2.60937	-5.99214	0	
2.3853	0.474431	-5.99214	0	
2.3860	-1.66051	-5.07905	0	
2.3867	-1.06747	-3.19581	0	
2.3873	-1.66051	-4.1089	0	
2.3880	-3.79545	-6.90523	0	
2.3887	-3.49893	-4.73665	0	
2.3893	-2.60937	-1.36963	0	
2.3900	-4.09197	-2.28272	0	
2.3907	-6.22691	-1.36963	0	
2.3913	-7.17578	3.82356	0	
2.3920	-3.49893	6.56282	0	
2.3927	-0.770951	6.22041	0	
2.3933	-4.44779	6.84816	0	
2.3940	-6.58274	4.39424	0	
2.3947	-1.06747	0.741884	0	
2.3953	1.66051	1.36963	0	
2.3960	-1.66051	-1.08429	0	
2.3967	-1.36399	-9.92983	0	
2.3973	2.31285	-14.8377	0	
2.3980	4.44779	-16.3215	0	
2.3987	4.44779	-21.5146	0	
2.3993	2.01633	-23.0555	0	
2.4000	1.66051	-20.3162	0	
2.4007	5.33735	-23.0555	0	
2.4013	5.63387	-27.0502	0	
2.4020	1.36399	-23.9686	0	
2.4027	0.474431	-20.3162	0	
2.4033	1.66051	-20.6016	0	
2.4040	0.177912	-18.7754	0	
2.4047	-0.770951	-15.123	0	
2.4053	-0.770951	-10.8429	0	
2.4060	-3.49893	-4.73665	0	
2.4067	-4.09197	-1.36963	0	
2.4073	-3.49893	-3.82356	0	
2.4080	-5.33735	0.456544	0	
2.4087	-5.93039	13.5822	0	
2.4093	-4.74431	16.8921	0	
2.4100	-4.74431	1.65497	0	
2.4107	-4.44779	-16.0361	0	
2.4113	-4.44779	-23.3408	0	
2.4120	-5.33735	-19.6885	0	
2.4127	-1.06747	-14.2099	0	
2.4133	3.20241	-12.0984	0	
2.4140	1.06747	-11.4707	0	
2.4147	0.770951	-9.30209	0	
2.4153	5.04083	-5.99214	0	
2.4160	5.63387	-3.82356	0	
2.4167	3.20241	-2.91047	0	
2.4173	2.90589	-3.19581	0	
2.4180	3.79545	-2.28272	0	
2.4187	5.33735	0.456544	0	
2.4193	5.63387	0.456544	0	
2.4200	3.79545	-0.456544	0	
2.4207	4.74431	0.114136	0	
2.4213	6.87926	-0.456544	0	
2.4220	3.79545	0.741884	0	
2.4227	1.06747	6.22041	0	
2.4233	2.90589	7.47591	0	
2.4240	3.20241	3.82356	0	
2.4247	1.06747	3.19581	0	
2.4253	-1.06747	4.1089	0	
2.4260	-2.60937	4.1089	0	
2.4267	-1.36399	7.47591	0	
2.4273	-1.95703	8.67434	0	
2.4280	-5.33735	2.91047	0	
2.4287	-5.33735	0.741884	0	
2.4293	-3.79545	5.02199	0	
2.4300	-4.44779	5.93507	0	
2.4307	-2.60937	1.36963	0	
2.4313	-1.36399	-1.71204	0	
2.4320	-5.63387	-1.08429	0	
2.4327	-6.22691	0.456544	0	
2.4333	-1.06747	-0.798952	0	
2.4340	0.177912	-2.28272	0	
2.4347	-0.770951	-0.171204	0	
2.4353	0.770951	-3.82356	0	
2.4360	1.66051	-14.2099	0	
2.4367	2.01633	-19.6885	0	
2.4373	2.90589	-22.1424	0	
2.4380	2.60937	-29.1618	0	
2.4387	2.90589	-31.901	0	
2.4393	3.79545	-28.8764	0	
2.4400	3.49893	-26.4225	0	
2.4407	3.20241	-7.19057	0	
2.4413	2.60937	35.8387	0	
2.4420	0.177912	69.1094	0	
2.4427	-0.770951	72.4764	0	
2.4433	0.177912	58.0952	0	
2.4440	1.06747	38.9204	0	
2.4447	0.177912	25.167	0	
2.4453	-1.06747	20.8869	0	
2.4460	-0.770951	17.8623	0	
2.4467	1.36399	15.4084	0	
2.4473	-0.770951	15.979	0	
2.4480	-4.74431	12.9544	0	
2.4487	-4.09197	7.76125	0	
2.4493	-2.90589	9.87277	0	
2.4500	-5.33735	10.8429	0	
2.4507	-5.04083	5.93507	0	
2.4513	-1.95703	5.30733	0	
2.4520	-1.06747	6.84816	0	
2.4527	-1.06747	1.94031	0	
2.4533	-0.118608	-0.798952	0	
2.4540	1.06747	3.82356	0	
2.4547	1.06747	5.02199	0	
2.4553	-0.770951	1.65497	0	
2.4560	1.06747	1.36963	0	
2.4567	5.63387	2.28272	0	
2.4573	3.79545	0.456544	0	
2.4580	0.770951	-1.99738	0	
2.4587	4.15127	-0.171204	0	
2.4593	4.74431	2.28272	0	
2.4600	0.770951	0.456544	0	
2.4607	2.90589	-4.1089	0	
2.4613	5.33735	-6.27748	0	
2.4620	0.474431	-6.56282	0	
2.4627	-1.66051	-6.90523	0	
2.4633	0.770951	-6.90523	0	
2.4640	-0.474431	-7.19057	0	
2.4647	-3.49893	-5.99214	0	
2.4653	-3.20241	-3.19581	0	
2.4660	-1.36399	-1.36963	0	
2.4667	-1.66051	-0.171204	0	
2.4673	-3.49893	2.28272	0	
2.4680	-3.49893	6.22041	0	
2.4687	-2.31285	8.95968	0	
2.4693	-3.79545	8.95968	0	
2.4700	-4.09197	5.93507	0	
2.4707	-2.90589	2.91047	0	
2.4713	-6.22691	0.741884	0	
2.4720	-8.71768	-3.82356	0	
2.4727	-3.49893	-9.01675	0	
2.4733	1.06747	-12.6691	0	
2.4740	-0.474431	-20.6016	0	
2.4747	-1.66051	-27.9633	0	
2.4753	-0.770951	-16.6639	0	
2.4760	1.06747	6.84816	0	
2.4767	3.20241	16.8921	0	
2.4773	3.20241	8.04659	0	
2.4780	2.60937	-5.07905	0	
2.4787	3.79545	-15.123	0	
2.4793	3.20241	-21.5146	0	
2.4800	0.177912	-20.3162	0	
2.4807	0.177912	-16.9492	0	
2.4813	1.06747	-16.0361	0	
2.4820	-0.474431	-12.3838	0	
2.4827	1.06747	-4.73665	0	
2.4833	3.20241	0.114136	0	
2.4840	-0.474431	-1.99738	0	
2.4847	-3.20241	-4.1089	0	
2.4853	-1.36399	-4.1089	0	
2.4860	-2.60937	-4.4513	0	
2.4867	-4.44779	-2.62513	0	
2.4873	-3.20241	1.36963	0	
2.4880	-3.20241	3.48115	0	
2.4887	-3.49893	1.36963	0	
2.4893	-1.66051	-0.798952	0	
2.4900	-2.90589	-0.171204	0	
2.4907	-2.90589	0.456544	0	
2.4913	0.770951	-4.1089	0	
2.4920	-1.66051	-9.92983	0	
2.4927	-5.33735	-10.5576	0	
2.4933	-0.118608	-9.01675	0	
2.4940	3.79545	-11.4707	0	
2.4947	1.06747	-14.2099	0	
2.4953	-0.474431	-12.6691	0	
2.4960	0.770951	-10.5576	0	
2.4967	1.66051	-9.64449	0	
2.4973	3.79545	-8.73141	0	
2.4980	5.04083	-8.10366	0	
2.4987	3.79545	-8.389	0	
2.4993	3.79545	-7.19057	0	
2.5000	4.15127	-5.99214	0	
2.5007	2.90589	-8.10366	0	
2.5013	2.01633	-12.6691	0	
2.5020	4.15127	-14.8377	0	
2.5027	3.79545	-14.2099	0	
2.5033	-1.36399	-13.2968	0	
2.5040	-4.09197	-13.5822	0	
2.5047	-2.90589	-15.123	0	
2.5053	-4.09197	-16.3215	0	
2.5060	-5.63387	-16.0361	0	
2.5067	-4.44779	-13.9246	0	
2.5073	-4.09197	-11.1283	0	
2.5080	-5.33735	-9.01675	0	
2.5087	-6.22691	-9.92983	0	
2.5093	-6.22691	-15.123	0	
2.5100	-4.74431	-18.7754	0	
2.5107	-2.60937	-10.5576	0	
2.5113	-5.04083	12.6691	0	
2.5120	-5.63387	40.1188	0	
2.5127	-1.36399	61.8047	0	
2.5133	-0.770951	70.6502	0	
2.5140	-2.60937	59.9785	0	
2.5147	1.06747	38.578	0	
2.5153	2.60937	23.6262	0	
2.5160	-0.770951	15.066	0	
2.5167	-0.770951	8.04659	0	
2.5173	1.06747	8.04659	0	
2.5180	1.36399	12.6691	0	
2.5187	3.49893	12.6691	0	
2.5193	4.74431	10.2152	0	
2.5200	3.20241	8.67434	0	
2.5207	3.20241	5.02199	0	
2.5213	3.20241	3.19581	0	
2.5220	1.66051	5.02199	0	
2.5227	2.01633	7.76125	0	
2.5233	1.36399	10.2152	0	
2.5240	-1.66051	13.2398	0	
2.5247	-1.95703	16.3215	0	
2.5253	0.177912	21.5146	0	
2.5260	-0.474431	28.8193	0	
2.5267	-1.36399	36.1241	0	
2.5273	-2.60937	33.3848	0	
2.5280	-5.33735	10.5005	0	
2.5287	-5.63387	-13.9246	0	
2.5293	-2.90589	-15.7508	0	
2.5300	-2.60937	-6.90523	0	
2.5307	-3.79545	-4.73665	0	
2.5313	-3.49893	-4.1089	0	
2.5320	-2.90589	-3.82356	0	
2.5327	-3.49893	-7.81832	0	
2.5333	-4.44779	-7.47591	0	
2.5340	-3.49893	-3.82356	0	
2.5347	-0.770951	-6.56282	0	
2.5353	0.177912	-10.8429	0	
2.5360	0.177912	-10.5576	0	
2.5367	2.01633	-10.8429	0	
2.5373	3.79545	-18.1476	0	
2.5380	2.90589	-30.3602	0	
2.5387	4.74431	-37.0942	0	
2.5393	6.58274	-38.2926	0	
2.5400	3.79545	-41.089	0	
2.5407	2.31285	-42.5727	0	
2.5413	4.44779	-42.5727	0	
2.5420	3.79545	-43.2005	0	
2.5427	1.36399	-26.7078	0	
2.5433	1.06747	15.979	0	
2.5440	0.177912	54.1575	0	
2.5447	1.06747	64.5439	0	
2.5453	2.90589	54.4429	0	
2.5460	-0.118608	35.211	0	
2.5467	-2.90589	19.3461	0	
2.5473	-1.95703	14.1529	0	
2.5480	-3.49893	11.1283	0	
2.5487	-5.33735	5.30733	0	
2.5493	-1.95703	4.1089	0	
2.5500	-1.95703	5.64973	0	
2.5507	-6.22691	5.30733	0	
2.5513	-6.22691	5.64973	0	
2.5520	-1.95703	5.93507	0	
2.5527	0.177912	5.02199	0	
2.5533	0.177912	3.82356	0	
2.5540	1.06747	1.94031	0	
2.5547	2.31285	1.02722	0	
2.5553	2.01633	2.28272	0	
2.5560	2.90589	4.1089	0	
2.5567	5.93039	5.30733	0	
2.5573	8.71768	4.1089	0	
2.5580	7.76881	1.02722	0	
2.5587	5.63387	2.28272	0	
2.5593	5.04083	5.02199	0	
2.5600	5.33735	3.19581	0	
2.5607	5.04083	-0.171204	0	
2.5613	2.90589	-0.171204	0	
2.5620	1.06747	-1.36963	0	
2.5627	1.06747	-5.07905	0	
2.5633	0.177912	-8.10366	0	
2.5640	-1.06747	-11.1283	0	
2.5647	-1.66051	-16.0361	0	
2.5653	-4.09197	-19.1178	0	
2.5660	-5.63387	-21.2293	0	
2.5667	-3.79545	-24.2539	0	
2.5673	-4.09197	-24.8817	0	
2.5680	-6.87926	-22.7701	0	
2.5687	-6.58274	-22.7701	0	
2.5693	-5.33735	-16.6639	0	
2.5700	-6.22691	3.82356	0	
2.5707	-6.22691	19.9738	0	
2.5713	-5.33735	15.979	0	
2.5720	-4.09197	7.76125	0	
2.5727	-1.66051	5.64973	0	
2.5733	-0.770951	1.65497	0	
2.5740	-0.770951	-5.07905	0	
2.5747	0.474431	-7.81832	0	
2.5753	1.06747	-7.81832	0	
2.5760	1.06747	-6.90523	0	
2.5767	1.66051	-5.99214	0	
2.5773	2.60937	-7.19057	0	
2.5780	3.79545	-9.01675	0	
2.5787	4.74431	-7.19057	0	
2.5793	3.79545	-5.07905	0	
2.5800	3.49893	-4.4513	0	
2.5807	4.15127	-2.28272	0	
2.5813	4.15127	2.28272	0	
2.5820	2.60937	5.02199	0	
2.5827	0.770951	6.22041	0	
2.5833	-0.118608	7.76125	0	
2.5840	-1.95703	9.58743	0	
2.5847	-5.04083	9.58743	0	
2.5853	-5.04083	7.76125	0	
2.5860	-2.60937	4.1089	0	
2.5867	-2.31285	0.114136	0	
2.5873	-4.44779	-2.62513	0	
2.5880	-5.04083	-4.1089	0	
2.5887	-4.09197	-5.99214	0	
2.5893	-2.90589	-9.64449	0	
2.5900	-2.31285	-13.2968	0	
2.5907	-1.95703	-14.4953	0	
2.5913	-1.66051	-13.2968	0	
2.5920	-0.770951	-10.5576	0	
2.5927	-1.06747	-6.90523	0	
2.5933	-2.90589	-2.28272	0	
2.5940	-2.60937	0.741884	0	
2.5947	-0.770951	2.56806	0	
2.5953	-1.06747	6.22041	0	
2.5960	-1.95703	12.0414	0	
2.5967	-0.118608	15.6937	0	
2.5973	2.01633	15.6937	0	
2.5980	1.06747	13.2398	0	
2.5987	1.06747	10.2152	0	
2.5993	2.60937	9.87277	0	
2.6000	2.60937	11.4136	0	
2.6007	2.60937	8.04659	0	
2.6013	2.90589	1.65497	0	
2.6020	2.01633	0.456544	0	
2.6027	1.06747	1.36963	0	
2.6033	0.177912	1.02722	0	
2.6040	-0.770951	1.36963	0	
2.6047	0.474431	-7.19057	0	
2.6053	-0.118608	-26.1371	0	
2.6060	-3.79545	-34.9827	0	
2.6067	-4.44779	-24.8817	0	
2.6073	-4.44779	-13.2968	0	
2.6080	-6.58274	-9.01675	0	
2.6087	-5.63387	-7.19057	0	
2.6093	-2.31285	-4.73665	0	
2.6100	-0.770951	-1.99738	0	
2.6107	-0.474431	-1.71204	0	
2.6113	0.177912	-2.62513	0	
2.6120	-1.06747	0.114136	0	
2.6127	-1.95703	3.48115	0	
2.6133	-1.36399	3.19581	0	
2.6140	-0.118608	2.28272	0	
2.6147	2.01633	2.28272	0	
2.6153	2.60937	2.91047	0	
2.6160	1.66051	3.82356	0	
2.6167	2.01633	3.82356	0	
2.6173	3.79545	0.741884	0	
2.6180	4.74431	-1.36963	0	
2.6187	3.79545	-0.456544	0	
2.6193	2.90589	0.741884	0	
2.6200	2.90589	-0.456544	0	
2.6207	3.79545	-3.19581	0	
2.6213	3.49893	-4.73665	0	
2.6220	0.770951	-3.19581	0	
2.6227	-2.60937	-0.171204	0	
2.6233	-3.20241	0.114136	0	
2.6240	-2.90589	-1.71204	0	
2.6247	-4.09197	-0.798952	0	
2.6253	-3.79545	-0.456544	0	
2.6260	-1.66051	-2.91047	0	
2.6267	-3.20241	-1.08429	0	
2.6273	-6.22691	4.1089	0	
2.6280	-4.44779	3.19581	0	
2.6287	-1.95703	-0.171204	0	
2.6293	-4.09197	2.28272	0	
2.6300	-6.22691	5.30733	0	
2.6307	-5.33735	5.93507	0	
2.6313	-4.44779	8.67434	0	
2.6320	-1.66051	10.5005	0	
2.6327	-0.118608	8.67434	0	
2.6333	-1.66051	6.56282	0	
2.6340	-1.66051	5.93507	0	
2.6347	0.474431	4.1089	0	
2.6353	0.474431	1.36963	0	
2.6360	-0.118608	-1.36963	0	
2.6367	2.31285	-3.53822	0	
2.6373	4.44779	-5.64973	0	
2.6380	3.20241	-8.73141	0	
2.6387	3.79545	-10.5576	0	
2.6393	6.58274	-10.5576	0	
2.6400	6.58274	-9.92983	0	
2.6407	4.15127	-10.2152	0	
2.6413	4.74431	-9.01675	0	
2.6420	5.33735	-6.90523	0	
2.6427	3.49893	-6.27748	0	
2.6433	1.36399	-5.99214	0	
2.6440	0.770951	0.456544	0	
2.6447	-0.474431	9.58743	0	
2.6453	-0.770951	6.84816	0	
2.6460	-0.474431	-9.30209	0	
2.6467	-1.66051	-19.6885	0	
2.6473	-5.33735	-24.2539	0	
2.6480	-7.17578	-28.534	0	
2.6487	-4.74431	-15.123	0	
2.6493	-3.79545	24.2539	0	
2.6500	-5.93039	62.09	0	
2.6507	-5.33735	74.5879	0	
2.6513	-3.49893	65.457	0	
2.6520	-3.49893	46.2251	0	
2.6527	-2.90589	33.3848	0	
2.6533	-1.66051	31.2733	0	
2.6540	-0.770951	27.2785	0	
2.6547	2.01633	23.3408	0	
2.6553	3.49893	26.3654	0	
2.6560	3.20241	26.0801	0	
2.6567	4.44779	16.3215	0	
2.6573	5.93039	6.56282	0	
2.6580	5.33735	-0.171204	0	
2.6587	5.63387	-9.01675	0	
2.6593	5.63387	-20.3162	0	
2.6600	2.90589	-31.2733	0	
2.6607	1.06747	-40.7466	0	
2.6613	2.01633	-43.4858	0	
2.6620	1.66051	-27.9633	0	
2.6627	-0.770951	2.91047	0	
2.6633	-1.06747	22.7131	0	
2.6640	1.06747	15.066	0	
2.6647	2.01633	-3.19581	0	
2.6653	0.177912	-10.2152	0	
2.6660	-1.95703	-7.47591	0	
2.6667	-2.31285	-4.1089	0	
2.6673	-2.31285	-1.71204	0	
2.6680	-4.09197	6.22041	0	
2.6687	-5.33735	20.6016	0	
2.6693	-4.44779	30.0178	0	
2.6700	-3.49893	29.7324	0	
2.6707	-3.49893	25.7947	0	
2.6713	-3.79545	20.6016	0	
2.6720	-4.09197	12.0414	0	
2.6727	-4.09197	3.48115	0	
2.6733	-3.20241	-0.171204	0	
2.6740	-1.66051	-0.456544	0	
2.6747	-0.770951	-2.28272	0	
2.6753	0.770951	-8.10366	0	
2.6760	3.79545	-12.3838	0	
2.6767	4.74431	-12.3838	0	
2.6773	1.06747	-13.5822	0	
2.6780	-0.118608	-17.8623	0	
2.6787	1.36399	-20.0309	0	
2.6793	1.06747	-22.4277	0	
2.6800	0.177912	-27.0502	0	
2.6807	2.01633	-26.4225	0	
2.6813	3.20241	-21.857	0	
2.6820	2.01633	-20.6016	0	
2.6827	0.177912	-19.1178	0	
2.6833	-1.36399	-14.4953	0	
2.6840	0.474431	-13.2968	0	
2.6847	2.01633	-12.6691	0	
2.6853	-1.66051	-10.2152	0	
2.6860	-3.79545	-8.73141	0	
2.6867	-0.770951	-8.73141	0	
2.6873	0.177912	-6.27748	0	
2.6880	-3.20241	-6.56282	0	
2.6887	-5.33735	-8.389	0	
2.6893	-5.63387	-6.27748	0	
2.6900	-4.09197	-4.1089	0	
2.6907	-1.06747	-5.36439	0	
2.6913	-0.474431	-5.07905	0	
2.6920	-1.95703	-3.19581	0	
2.6927	-2.60937	-2.62513	0	
2.6933	-2.60937	-2.62513	0	
2.6940	-0.474431	-3.19581	0	
2.6947	3.79545	-4.1089	0	
2.6953	5.04083	-2.62513	0	
2.6960	1.06747	-0.456544	0	
2.6967	-0.474431	-0.798952	0	
2.6973	2.01633	-1.99738	0	
2.6980	3.79545	-2.28272	0	
2.6987	3.79545	-4.4513	0	
2.6993	4.74431	-5.99214	0	
2.7000	5.63387	-3.82356	0	
2.7007	2.90589	-2.28272	0	
2.7013	1.06747	-3.19581	0	
2.7020	2.60937	-4.1089	0	
2.7027	2.01633	-3.82356	0	
2.7033	-1.06747	-2.62513	0	
2.7040	-0.770951	-1.08429	0	
2.7047	-0.118608	-0.456544	0	
2.7053	-3.49893	-0.456544	0	
2.7060	-5.04083	-0.456544	0	
2.7067	-3.49893	-1.71204	0	
2.7073	-4.74431	-1.36963	0	
2.7080	-6.87926	0.456544	0	
2.7087	-6.22691	1.36963	0	
2.7093	-5.93039	2.28272	0	
2.7100	-4.44779	1.65497	0	
2.7107	-1.06747	1.02722	0	
2.7113	-1.66051	1.36963	0	
2.7120	-3.49893	1.36963	0	
2.7127	-1.66051	0.114136	0	
2.7133	-1.36399	0.456544	0	
2.7140	-1.66051	1.36963	0	
2.7147	1.06747	0.114136	0	
2.7153	1.66051	1.02722	0	
2.7160	0.177912	1.65497	0	
2.7167	2.01633	-1.71204	0	
2.7173	4.15127	-2.91047	0	
2.7180	2.31285	-0.798952	0	
2.7187	2.01633	-1.08429	0	
2.7193	3.79545	-2.28272	0	
2.7200	4.74431	-0.798952	0	
2.7207	2.90589	0.456544	0	
2.7213	0.770951	0.456544	0	
2.7220	1.36399	0.456544	0	
2.7227	1.06747	0.741884	0	
2.7233	-1.66051	4.73665	0	
2.7240	-0.770951	9.58743	0	
2.7247	0.474431	10.2152	0	
2.7253	-3.49893	8.67434	0	
2.7260	-3.49893	7.76125	0	
2.7267	0.177912	6.56282	0	
2.7273	-1.66051	5.93507	0	
2.7280	-3.20241	5.02199	0	
2.7287	-0.770951	4.73665	0	
2.7293	-1.66051	5.64973	0	
2.7300	-3.49893	5.93507	0	
2.7307	-1.66051	5.64973	0	
2.7313	-1.66051	6.84816	0	
2.7320	-0.474431	7.76125	0	
2.7327	1.66051	7.47591	0	
2.7333	-0.118608	8.67434	0	
2.7340	0.177912	9.58743	0	
2.7347	4.44779	8.95968	0	
2.7353	3.49893	9.87277	0	
2.7360	0.770951	9.30209	0	
2.7367	3.79545	5.93507	0	
2.7373	5.93039	5.93507	0	
2.7380	4.74431	5.64973	0	
2.7387	2.90589	-2.28272	0	
2.7393	2.01633	-7.47591	0	
2.7400	1.36399	-5.07905	0	
2.7407	2.60937	-4.4513	0	
2.7413	2.60937	-5.07905	0	
2.7420	2.01633	-2.28272	0	
2.7427	1.06747	-3.19581	0	
2.7433	-0.474431	-8.73141	0	
2.7440	-0.770951	-9.01675	0	
2.7447	-0.474431	-6.90523	0	
2.7453	-2.31285	-7.81832	0	
2.7460	-3.49893	-6.90523	0	
2.7467	-2.60937	-4.1089	0	
2.7473	-2.60937	-1.36963	0	
2.7480	-3.79545	0.456544	0	
2.7487	-5.33735	2.56806	0	
2.7493	-6.58274	4.1089	0	
2.7500	-5.33735	5.02199	0	
2.7507	-3.49893	7.47591	0	
2.7513	-4.44779	10.5005	0	
2.7520	-4.74431	10.2152	0	
2.7527	-1.66051	5.93507	0	
2.7533	-0.474431	2.56806	0	
2.7540	-1.95703	1.02722	0	
2.7547	-1.06747	0.741884	0	
2.7553	2.01633	1.36963	0	
2.7560	3.20241	-1.36963	0	
2.7567	2.90589	-4.73665	0	
2.7573	2.01633	-4.1089	0	
2.7580	1.36399	-2.91047	0	
2.7587	2.60937	-5.36439	0	
2.7593	3.79545	-6.56282	0	
2.7600	2.01633	-7.81832	0	
2.7607	-0.474431	-12.3838	0	
2.7613	0.770951	-13.2968	0	
2.7620	1.36399	-12.0984	0	
2.7627	0.177912	-13.2968	0	
2.7633	0.177912	-11.4707	0	
2.7640	0.770951	-8.10366	0	
2.7647	-1.36399	-8.73141	0	
2.7653	-2.60937	-7.47591	0	
2.7660	-1.36399	-4.1089	0	
2.7667	-1.95703	-2.62513	0	
2.7673	-3.49893	5.30733	0	
2.7680	-2.90589	19.6885	0	
2.7687	-2.31285	23.6262	0	
2.7693	-3.49893	18.7754	0	
2.7700	-4.74431	15.979	0	
2.7707	-4.44779	8.95968	0	
2.7713	-2.60937	-1.71204	0	
2.7720	-1.95703	-2.28272	0	
2.7727	-2.60937	0.114136	0	
2.7733	-1.95703	-5.07905	0	
2.7740	-0.474431	-7.81832	0	
2.7747	-1.06747	-3.19581	0	
2.7753	-1.66051	-1.99738	0	
2.7760	0.177912	-3.82356	0	
2.7767	1.06747	-4.73665	0	
2.7773	0.474431	-5.07905	0	
2.7780	2.01633	-4.4513	0	
2.7787	4.44779	-7.47591	0	
2.7793	3.49893	-13.9246	0	
2.7800	3.20241	-17.8623	0	
2.7807	4.15127	-20.0309	0	
2.7813	2.90589	-25.7947	0	
2.7820	2.01633	-30.3602	0	
2.7827	2.90589	-30.0748	0	
2.7833	1.06747	-20.6016	0	
2.7840	-0.118608	8.67434	0	
2.7847	1.06747	50.7905	0	
2.7853	-1.66051	72.7617	0	
2.7860	-7.17578	62.7177	0	
2.7867	-6.22691	39.8335	0	
2.7873	-3.49893	23.3408	0	
2.7880	-4.44779	14.1529	0	
2.7887	-3.79545	8.67434	0	
2.7893	-3.79545	4.1089	0	
2.7900	-6.22691	-0.456544	0	
2.7907	-5.04083	-2.28272	0	
2.7913	-3.20241	-0.456544	0	
2.7920	-4.44779	3.82356	0	
2.7927	-3.49893	6.84816	0	
2.7933	-1.66051	6.56282	0	
2.7940	-2.60937	3.48115	0	
2.7947	-0.474431	2.28272	0	
2.7953	3.49893	3.82356	0	
2.7960	2.31285	4.1089	0	
2.7967	1.36399	2.28272	0	
2.7973	3.79545	2.91047	0	
2.7980	3.79545	2.28272	0	
2.7987	3.20241	-1.36963	0	
2.7993	4.74431	-1.71204	0	
2.8000	4.74431	0.456544	0	
2.8007	4.44779	-2.62513	0	
2.8013	4.15127	-7.81832	0	
2.8020	2.01633	-6.27748	0	
2.8027	1.66051	-3.19581	0	
2.8033	5.04083	-6.27748	0	
2.8040	5.33735	-8.73141	0	
2.8047	1.36399	-5.07905	0	
2.8053	-1.66051	-2.91047	0	
2.8060	-2.90589	-5.64973	0	
2.8067	-2.31285	-7.19057	0	
2.8073	-0.474431	-4.1089	0	
2.8080	-0.770951	-2.62513	0	
2.8087	-2.90589	-6.27748	0	
2.8093	-4.44779	-6.90523	0	
2.8100	-4.44779	-3.19581	0	
2.8107	-4.09197	-5.07905	0	
2.8113	-2.90589	-9.01675	0	
2.8120	-2.31285	-5.99214	0	
2.8127	-2.31285	-1.08429	0	
2.8133	-1.36399	-2.28272	0	
2.8140	-0.118608	-5.36439	0	
2.8147	0.177912	-5.64973	0	
2.8153	1.66051	-6.27748	0	
2.8160	3.20241	-5.99214	0	
2.8167	2.01633	-5.36439	0	
2.8173	0.474431	-7.19057	0	
2.8180	1.06747	-6.56282	0	
2.8187	3.20241	-4.1089	0	
2.8193	3.20241	-7.19057	0	
2.8200	1.66051	-10.2152	0	
2.8207	2.31285	-6.27748	0	
2.8213	6.28622	-4.4513	0	
2.8220	6.58274	-6.27748	0	
2.8227	2.31285	-4.1089	0	
2.8233	0.177912	-2.28272	0	
2.8240	-0.118608	-3.53822	0	
2.8247	-1.66051	-1.08429	0	
2.8253	-1.36399	0.456544	0	
2.8260	-0.474431	-1.36963	0	
2.8267	-1.66051	-0.171204	0	
2.8273	-3.20241	1.36963	0	
2.8280	-3.49893	-3.19581	0	
2.8287	-4.44779	-3.82356	0	
2.8293	-6.22691	0.456544	0	
2.8300	-5.93039	-0.171204	0	
2.8307	-2.90589	-1.36963	0	
2.8313	-1.36399	0.456544	0	
2.8320	-3.20241	0.456544	0	
2.8327	-3.20241	0.456544	0	
2.8333	-0.770951	3.48115	0	
2.8340	-1.36399	4.39424	0	
2.8347	-2.60937	3.19581	0	
2.8353	-0.474431	1.94031	0	
2.8360	1.36399	-0.798952	0	
2.8367	1.66051	-2.28272	0	
2.8373	2.31285	-2.62513	0	
2.8380	3.49893	-4.73665	0	
2.8387	4.74431	-4.4513	0	
2.8393	4.44779	-2.28272	0	
2.8400	2.01633	-3.19581	0	
2.8407	0.177912	-5.07905	0	
2.8413	0.770951	-2.91047	0	
2.8420	1.66051	-0.456544	0	
2.8427	1.36399	-1.08429	0	
2.8433	1.06747	-1.99738	0	
2.8440	0.770951	-1.36963	0	
2.8447	-0.474431	0.114136	0	
2.8453	-2.31285	0.741884	0	
2.8460	-1.66051	1.02722	0	
2.8467	-1.06747	0.456544	0	
2.8473	-3.20241	-0.456544	0	
2.8480	-3.79545	1.02722	0	
2.8487	-1.66051	2.28272	0	
2.8493	-2.60937	2.28272	0	
2.8500	-5.33735	1.94031	0	
2.8507	-4.74431	2.56806	0	
2.8513	-2.60937	2.28272	0	
2.8520	-2.60937	1.36963	0	
2.8527	-2.60937	0.114136	0	
2.8533	-1.36399	-0.171204	0	
2.8540	1.06747	2.28272	0	
2.8547	2.60937	5.64973	0	
2.8553	3.79545	6.22041	0	
2.8560	4.74431	5.64973	0	
2.8567	2.90589	4.73665	0	
2.8573	1.36399	2.91047	0	
2.8580	3.49893	0.114136	0	
2.8587	7.47229	-2.28272	0	
2.8593	8.42116	-2.91047	0	
2.8600	5.04083	-1.71204	0	
2.8607	3.49893	-0.456544	0	
2.8613	6.58274	-3.82356	0	
2.8620	5.93039	-11.4707	0	
2.8627	1.36399	-20.3162	0	
2.8633	2.01633	-22.4277	0	
2.8640	4.15127	-18.49	0	
2.8647	1.06747	-14.2099	0	
2.8653	-0.770951	-10.8429	0	
2.8660	-1.36399	-6.90523	0	
2.8667	-5.63387	-1.71204	0	
2.8673	-8.06533	3.19581	0	
2.8680	-5.93039	10.8429	0	
2.8687	-6.22691	20.2591	0	
2.8693	-7.47229	26.0801	0	
2.8700	-6.58274	23.3408	0	
2.8707	-5.63387	16.8921	0	
2.8713	-5.33735	11.4136	0	
2.8720	-5.33735	5.64973	0	
2.8727	-6.22691	0.456544	0	
2.8733	-4.44779	1.36963	0	
2.8740	-1.95703	3.19581	0	
2.8747	-1.06747	1.36963	0	
2.8753	-0.770951	-0.456544	0	
2.8760	-0.770951	-1.36963	0	
2.8767	0.474431	-1.99738	0	
2.8773	2.31285	-2.28272	0	
2.8780	0.770951	-2.91047	0	
2.8787	-0.474431	-3.53822	0	
2.8793	3.79545	-2.62513	0	
2.8800	5.63387	-3.19581	0	
2.8807	1.66051	-4.1089	0	
2.8813	1.06747	-2.91047	0	
2.8820	1.66051	-4.1089	0	
2.8827	-1.66051	-5.36439	0	
2.8833	-2.60937	-4.73665	0	
2.8840	0.177912	-5.64973	0	
2.8847	-0.770951	-5.07905	0	
2.8853	-1.66051	-2.28272	0	
2.8860	-1.06747	-5.36439	0	
2.8867	-2.60937	-12.6691	0	
2.8873	-4.44779	-15.4084	0	
2.8880	-3.49893	-10.2152	0	
2.8887	-2.90589	5.93507	0	
2.8893	-2.60937	24.2539	0	
2.8900	-3.49893	29.1047	0	
2.8907	-5.33735	22.7131	0	
2.8913	-2.90589	16.8921	0	
2.8920	0.474431	9.87277	0	
2.8927	-0.118608	3.19581	0	
2.8933	-0.474431	3.19581	0	
2.8940	1.06747	3.19581	0	
2.8947	1.66051	0.114136	0	
2.8953	2.01633	-1.08429	0	
2.8960	2.01633	-2.28272	0	
2.8967	1.06747	-5.36439	0	
2.8973	2.60937	-5.99214	0	
2.8980	4.74431	-1.99738	0	
2.8987	4.74431	3.19581	0	
2.8993	4.74431	7.47591	0	
2.9000	3.49893	10.8429	0	
2.9007	2.90589	14.7806	0	
2.9013	3.79545	20.6016	0	
2.9020	1.06747	27.9063	0	
2.9027	-1.66051	34.0125	0	
2.9033	0.177912	34.2979	0	
2.9040	-0.474431	28.8193	0	
2.9047	-3.49893	21.5146	0	
2.9053	-3.20241	12.3267	0	
2.9060	-2.60937	0.741884	0	
2.9067	-3.49893	-11.4707	0	
2.9073	-2.90589	-23.6832	0	
2.9080	-3.49893	-35.268	0	
2.9087	-4.09197	-49.3068	0	
2.9093	-1.66051	-70.3649	0	
2.9100	-3.49893	-86.8575	0	
2.9107	-7.17578	-69.1664	0	
2.9113	-3.49893	-18.49	0	
2.9120	0.177912	27.9063	0	
2.9127	-2.90589	46.2251	0	
2.9133	-3.20241	41.6596	0	
2.9140	0.474431	23.9115	0	
2.9147	1.66051	7.47591	0	
2.9153	2.90589	4.1089	0	
2.9160	4.44779	4.1089	0	
2.9167	3.20241	0.456544	0	
2.9173	2.01633	0.456544	0	
2.9180	2.60937	3.82356	0	
2.9187	2.90589	3.19581	0	
2.9193	4.74431	1.36963	0	
2.9200	5.93039	1.36963	0	
2.9207	4.74431	-0.171204	0	
2.9213	2.90589	-1.36963	0	
2.9220	2.90589	-0.171204	0	
2.9227	2.60937	-0.456544	0	
2.9233	1.66051	-1.08429	0	
2.9240	1.06747	1.02722	0	
2.9247	0.474431	1.02722	0	
2.9253	-0.770951	-2.28272	0	
2.9260	-1.66051	-2.28272	0	
2.9267	-1.66051	0.741884	0	
2.9273	-1.36399	1.36963	0	
2.9280	-1.66051	1.36963	0	
2.9287	-3.49893	2.56806	0	
2.9293	-4.74431	1.65497	0	
2.9300	-4.09197	0.456544	0	
2.9307	-4.44779	1.94031	0	
2.9313	-6.22691	3.19581	0	
2.9320	-4.44779	2.56806	0	
2.9327	-0.770951	1.36963	0	
2.9333	-0.770951	0.114136	0	
2.9340	-1.95703	1.36963	0	
2.9347	-0.474431	3.19581	0	
2.9353	2.01633	0.114136	0	
2.9360	2.31285	-4.4513	0	
2.9367	0.770951	-3.82356	0	
2.9373	0.177912	-0.456544	0	
2.9380	2.90589	-0.456544	0	
2.9387	4.74431	-1.36963	0	
2.9393	2.90589	-1.08429	0	
