0.0000	9.67525	-2.35641	1
0.0007	11.186	3.12617	0	
0.0013	12.1182	4.6657	0	
0.0020	12.7289	-1.14679	0	
0.0027	13.6289	-1.44527	0	
0.0033	15.1718	1.30388	0	
0.0040	16.3933	-0.53412	0	
0.0047	14.5611	-0.53412	0	
0.0053	10.5753	2.52922	0	
0.0060	8.16449	1.60236	0	
0.0067	9.67525	0.691214	0	
0.0073	6.6216	1.30388	0	
0.0080	-1.92862	0.0785471	0	
0.0087	-5.593	0.691214	0	
0.0093	-4.37154	3.73884	0	
0.0100	-8.03592	3.12617	0	
0.0107	-11.9896	1.30388	0	
0.0113	-11.9896	3.44036	0	
0.0120	-14.7539	4.6657	0	
0.0127	-17.7755	3.12617	0	
0.0133	-14.7539	3.12617	0	
0.0140	-10.7681	4.35151	0	
0.0147	-9.86811	5.26265	0	
0.0153	-6.81446	3.73884	0	
0.0160	-2.82864	2.52922	0	
0.0167	-3.15008	4.35151	0	
0.0173	-4.0501	4.35151	0	
0.0180	-0.096431	-0.219932	0	
0.0187	7.23233	-2.05793	0	
0.0193	10.8967	0.0785471	0	
0.0200	9.67525	-1.44527	0	
0.0207	9.38595	-4.19441	0	
0.0213	11.186	-3.58175	0	
0.0220	11.7967	-3.28327	0	
0.0227	11.7967	-4.19441	0	
0.0233	12.4075	-2.96908	0	
0.0240	13.6289	-1.44527	0	
0.0247	12.7289	-2.35641	0	
0.0253	9.96454	-2.35641	0	
0.0260	8.16449	-2.05793	0	
0.0267	6.3323	-4.80708	0	
0.0273	1.12503	-5.71823	0	
0.0280	-1.92862	-2.35641	0	
0.0287	-2.53935	-1.14679	0	
0.0293	-7.10375	-2.35641	0	
0.0300	-14.7539	-1.44527	0	
0.0307	-17.7755	-0.219932	0	
0.0313	-18.7076	-1.14679	0	
0.0320	-20.8291	-2.05793	0	
0.0327	-20.8291	-3.58175	0	
0.0333	-19.3184	-4.19441	0	
0.0340	-19.3184	-2.96908	0	
0.0347	-18.9969	-3.28327	0	
0.0353	-19.3184	-4.19441	0	
0.0360	-19.9291	-3.28327	0	
0.0367	-17.4862	-2.96908	0	
0.0373	-12.9218	-5.10556	0	
0.0380	-8.03592	-6.62937	0	
0.0387	-1.92862	-7.24204	0	
0.0393	0.835736	-6.62937	0	
0.0400	0.835736	-5.71823	0	
0.0407	4.50011	-6.01671	0	
0.0413	8.77522	-5.41975	0	
0.0420	9.38595	-2.6706	0	
0.0427	11.186	-3.28327	0	
0.0433	13.0182	-6.01671	0	
0.0440	11.7967	-6.33089	0	
0.0447	12.4075	-4.19441	0	
0.0453	12.4075	-2.96908	0	
0.0460	8.16449	-3.58175	0	
0.0467	3.56795	-4.19441	0	
0.0473	1.44647	-5.10556	0	
0.0480	-1.60718	-4.19441	0	
0.0487	-4.66083	-1.14679	0	
0.0493	-8.03592	0.989693	0	
0.0500	-13.5325	0.392735	0	
0.0507	-16.554	-1.44527	0	
0.0513	-14.4325	-1.74374	0	
0.0520	-11.9896	-0.219932	0	
0.0527	-11.9896	-0.219932	0	
0.0533	-13.2111	-2.35641	0	
0.0540	-12.6003	-1.74374	0	
0.0547	-11.3789	3.44036	0	
0.0553	-10.7681	6.48799	0	
0.0560	-7.71448	4.96417	0	
0.0567	-3.43937	3.44036	0	
0.0573	-0.996454	5.26265	0	
0.0580	2.66793	7.39913	0	
0.0587	8.77522	6.80218	0	
0.0593	13.6289	4.05303	0	
0.0600	18.2255	0.989693	0	
0.0607	17.6147	-1.74374	0	
0.0613	8.77522	-1.74374	0	
0.0620	4.17868	0.392735	0	
0.0627	8.16449	0.392735	0	
0.0633	9.06452	-2.05793	0	
0.0640	9.06452	-4.19441	0	
0.0647	11.7967	-3.58175	0	
0.0653	10.8967	-2.05793	0	
0.0660	6.94303	-2.96908	0	
0.0667	6.01087	-4.80708	0	
0.0673	4.50011	-2.05793	0	
0.0680	1.12503	4.05303	0	
0.0687	-1.92862	4.96417	0	
0.0693	-5.593	2.21503	0	
0.0700	-7.42519	3.12617	0	
0.0707	-6.49302	4.05303	0	
0.0713	-8.03592	3.12617	0	
0.0720	-9.25738	3.44036	0	
0.0727	-5.593	3.12617	0	
0.0733	-2.21791	3.12617	0	
0.0740	-5.593	4.05303	0	
0.0747	-11.7003	3.12617	0	
0.0753	-11.0896	1.30388	0	
0.0760	-6.20373	1.30388	0	
0.0767	-3.76081	0.989693	0	
0.0773	-1.92862	0.691214	0	
0.0780	1.44647	2.82769	0	
0.0787	5.11084	3.12617	0	
0.0793	9.67525	1.30388	0	
0.0800	14.2396	1.30388	0	
0.0807	15.4611	1.60236	0	
0.0813	15.4611	0.989693	0	
0.0820	16.6826	2.21503	0	
0.0827	17.2933	4.05303	0	
0.0833	16.3933	3.73884	0	
0.0840	13.3396	2.21503	0	
0.0847	9.67525	0.691214	0	
0.0853	9.06452	-0.219932	0	
0.0860	8.45379	0.691214	0	
0.0867	4.50011	3.12617	0	
0.0873	2.0572	4.6657	0	
0.0880	1.73576	5.57684	0	
0.0887	-2.82864	6.80218	0	
0.0893	-11.7003	7.39913	0	
0.0900	-15.654	5.87532	0	
0.0907	-15.9754	4.96417	0	
0.0913	-17.4862	5.57684	0	
0.0920	-17.1647	5.87532	0	
0.0927	-12.9218	8.62447	0	
0.0933	-9.54667	11.6721	0	
0.0940	-11.0896	8.93866	0	
0.0947	-13.5325	5.87532	0	
0.0953	-13.8218	7.71332	0	
0.0960	-14.1432	6.80218	0	
0.0967	-11.7003	1.30388	0	
0.0973	-5.593	1.91655	0	
0.0980	-1.92862	5.87532	0	
0.0987	1.12503	4.05303	0	
0.0993	6.94303	2.21503	0	
0.1000	12.1182	3.73884	0	
0.1007	14.5611	2.52922	0	
0.1013	14.5611	-0.219932	0	
0.1020	14.5611	-0.53412	0	
0.1027	16.3933	0.392735	0	
0.1033	18.2255	1.30388	0	
0.1040	15.7825	0.989693	0	
0.1047	12.7289	1.30388	0	
0.1053	13.6289	4.05303	0	
0.1060	12.4075	4.96417	0	
0.1067	6.94303	0.0785471	0	
0.1073	3.27866	-1.14679	0	
0.1080	-0.996454	3.73884	0	
0.1087	-8.64665	4.6657	0	
0.1093	-13.2111	2.21503	0	
0.1100	-14.1432	2.82769	0	
0.1107	-16.554	3.12617	0	
0.1113	-17.1647	0.691214	0	
0.1120	-15.0432	0.392735	0	
0.1127	-15.0432	0.989693	0	
0.1133	-15.654	-1.44527	0	
0.1140	-15.654	-3.58175	0	
0.1147	-16.554	-1.74374	0	
0.1153	-13.8218	-0.53412	0	
0.1160	-7.42519	-1.44527	0	
0.1167	-3.43937	-0.53412	0	
0.1173	0.835736	0.691214	0	
0.1180	5.11084	-2.35641	0	
0.1187	7.23233	-4.80708	0	
0.1193	10.5753	-3.28327	0	
0.1200	13.6289	-1.74374	0	
0.1207	13.3396	-3.28327	0	
0.1213	15.4611	-4.19441	0	
0.1220	19.1255	-3.28327	0	
0.1227	16.6826	-3.88023	0	
0.1233	13.9504	-5.41975	0	
0.1240	17.2933	-5.71823	0	
0.1247	19.4469	-4.19441	0	
0.1253	18.8362	-4.19441	0	
0.1260	15.7825	-6.33089	0	
0.1267	8.77522	-6.33089	0	
0.1273	2.66793	-4.49289	0	
0.1280	0.835736	-5.10556	0	
0.1287	-2.21791	-6.33089	0	
0.1293	-5.88229	-6.94356	0	
0.1300	-8.93594	-7.85471	0	
0.1307	-10.1574	-6.94356	0	
0.1313	-8.32521	-5.10556	0	
0.1320	-7.42519	-6.33089	0	
0.1327	-9.54667	-5.10556	0	
0.1333	-10.7681	-0.832599	0	
0.1340	-13.8218	-2.35641	0	
0.1347	-18.7076	-6.94356	0	
0.1353	-17.1647	-5.71823	0	
0.1360	-10.1574	-1.44527	0	
0.1367	-6.49302	0.392735	0	
0.1373	-3.43937	0.691214	0	
0.1380	2.95722	-1.74374	0	
0.1387	9.96454	-6.01671	0	
0.1393	16.3933	-4.19441	0	
0.1400	19.1255	-0.53412	0	
0.1407	18.2255	-2.96908	0	
0.1413	18.5148	-6.62937	0	
0.1420	17.004	-6.62937	0	
0.1427	12.7289	-7.54052	0	
0.1433	12.4075	-8.46737	0	
0.1440	13.0182	-6.62937	0	
0.1447	8.45379	-5.41975	0	
0.1453	6.3323	-6.62937	0	
0.1460	5.40014	-5.71823	0	
0.1467	0.835736	-4.19441	0	
0.1473	-3.76081	-3.28327	0	
0.1480	-6.20373	-1.14679	0	
0.1487	-11.3789	0.392735	0	
0.1493	-16.554	0.392735	0	
0.1500	-19.9291	0.691214	0	
0.1507	-25.1042	-0.53412	0	
0.1513	-24.8149	-2.35641	0	
0.1520	-15.3647	-0.53412	0	
0.1527	-8.32521	0.989693	0	
0.1533	-12.311	0.691214	0	
0.1540	-19.3184	1.30388	0	
0.1547	-18.0969	0.691214	0	
0.1553	-11.0896	-1.74374	0	
0.1560	-8.32521	-0.832599	0	
0.1567	-10.1574	1.60236	0	
0.1573	-4.66083	1.30388	0	
0.1580	5.40014	0.691214	0	
0.1587	9.96454	1.30388	0	
0.1593	12.7289	1.91655	0	
0.1600	17.904	4.05303	0	
0.1607	20.0577	5.87532	0	
0.1613	17.6147	3.73884	0	
0.1620	14.5611	2.82769	0	
0.1627	10.8967	3.12617	0	
0.1633	6.3323	2.52922	0	
0.1640	1.73576	3.73884	0	
0.1647	-1.31789	5.87532	0	
0.1653	-0.996454	4.35151	0	
0.1660	0.835736	3.73884	0	
0.1667	0.514299	5.87532	0	
0.1673	-3.15008	7.39913	0	
0.1680	-8.32521	5.87532	0	
0.1687	-11.9896	4.05303	0	
0.1693	-12.6003	3.73884	0	
0.1700	-13.8218	4.05303	0	
0.1707	-15.654	4.96417	0	
0.1713	-16.2647	5.87532	0	
0.1720	-17.4862	4.6657	0	
0.1727	-17.4862	2.21503	0	
0.1733	-15.654	1.30388	0	
0.1740	-15.3647	1.60236	0	
0.1747	-14.4325	1.60236	0	
0.1753	-10.1574	0.691214	0	
0.1760	-5.27156	-2.05793	0	
0.1767	-1.92862	-4.19441	0	
0.1773	-2.82864	-2.05793	0	
0.1780	-5.88229	-1.44527	0	
0.1787	-0.996454	-6.33089	0	
0.1793	7.23233	-9.677	0	
0.1800	6.3323	-6.94356	0	
0.1807	4.17868	-4.19441	0	
0.1813	9.96454	-2.05793	0	
0.1820	13.0182	-0.53412	0	
0.1827	12.7289	-2.96908	0	
0.1833	13.3396	-5.71823	0	
0.1840	8.16449	-4.80708	0	
0.1847	0.835736	-6.01671	0	
0.1853	0.835736	-9.99119	0	
0.1860	1.73576	-10.2897	0	
0.1867	2.95722	-9.08004	0	
0.1873	7.23233	-8.76585	0	
0.1880	10.286	-7.85471	0	
0.1887	10.8967	-8.76585	0	
0.1893	13.3396	-9.99119	0	
0.1900	14.2396	-7.85471	0	
0.1907	12.7289	-6.33089	0	
0.1913	11.7967	-6.62937	0	
0.1920	10.8967	-7.54052	0	
0.1927	7.84306	-8.46737	0	
0.1933	6.01087	-6.62937	0	
0.1940	5.40014	-3.28327	0	
0.1947	-0.096431	-4.19441	0	
0.1953	-14.1432	-5.41975	0	
0.1960	-26.3257	-3.28327	0	
0.1967	-30.3115	-1.44527	0	
0.1973	-35.4866	-1.74374	0	
0.1980	-38.8617	-0.219932	0	
0.1987	-26.9364	2.52922	0	
0.1993	-9.86811	3.12617	0	
0.2000	-4.0501	2.21503	0	
0.2007	-3.15008	1.30388	0	
0.2013	0.835736	2.21503	0	
0.2020	5.40014	5.87532	0	
0.2027	10.8967	5.57684	0	
0.2033	13.0182	1.30388	0	
0.2040	4.78941	0.691214	0	
0.2047	-0.707161	3.44036	0	
0.2053	3.56795	3.73884	0	
0.2060	6.3323	1.60236	0	
0.2067	3.27866	2.21503	0	
0.2073	-0.385724	4.6657	0	
0.2080	-6.49302	5.57684	0	
0.2087	-11.3789	5.87532	0	
0.2093	-10.1574	5.87532	0	
0.2100	-10.4788	5.57684	0	
0.2107	-15.654	4.96417	0	
0.2113	-18.7076	3.44036	0	
0.2120	-18.0969	1.91655	0	
0.2127	-15.9754	3.73884	0	
0.2133	-12.6003	4.96417	0	
0.2140	-9.25738	4.05303	0	
0.2147	-7.42519	3.12617	0	
0.2153	-6.49302	3.12617	0	
0.2160	-5.88229	2.21503	0	
0.2167	-2.82864	1.30388	0	
0.2173	2.95722	1.60236	0	
0.2180	7.84306	0.989693	0	
0.2187	9.67525	1.30388	0	
0.2193	12.4075	3.12617	0	
0.2200	13.6289	2.82769	0	
0.2207	11.7967	-0.53412	0	
0.2213	10.8967	-1.14679	0	
0.2220	12.1182	1.30388	0	
0.2227	12.1182	0.392735	0	
0.2233	11.186	-2.35641	0	
0.2240	10.5753	-1.44527	0	
0.2247	10.5753	-1.44527	0	
0.2253	11.7967	-3.88023	0	
0.2260	9.96454	-3.28327	0	
0.2267	2.66793	-0.219932	0	
0.2273	-7.10375	0.691214	0	
0.2280	-12.9218	-0.53412	0	
0.2287	-11.0896	0.0785471	0	
0.2293	-5.88229	0.392735	0	
0.2300	-6.49302	-2.05793	0	
0.2307	-10.7681	-1.74374	0	
0.2313	-11.0896	1.30388	0	
0.2320	-8.64665	2.21503	0	
0.2327	-8.32521	0.0785471	0	
0.2333	-8.93594	-1.44527	0	
0.2340	-12.311	-1.74374	0	
0.2347	-18.3862	-2.35641	0	
0.2353	-19.3184	-3.58175	0	
0.2360	-15.654	-4.19441	0	
0.2367	-11.7003	-2.6706	0	
0.2373	-3.15008	-2.96908	0	
0.2380	6.6216	-5.10556	0	
0.2387	8.45379	-4.49289	0	
0.2393	7.23233	-4.19441	0	
0.2400	12.1182	-4.80708	0	
0.2407	17.004	-4.19441	0	
0.2413	15.7825	-4.19441	0	
0.2420	16.6826	-6.62937	0	
0.2427	19.1255	-6.01671	0	
0.2433	17.2933	-4.19441	0	
0.2440	16.0718	-4.80708	0	
0.2447	18.2255	-5.10556	0	
0.2453	18.2255	-4.49289	0	
0.2460	13.3396	-4.49289	0	
0.2467	7.23233	-4.19441	0	
0.2473	1.73576	-4.80708	0	
0.2480	-0.996454	-6.01671	0	
0.2487	-4.37154	-6.33089	0	
0.2493	-9.86811	-7.85471	0	
0.2500	-10.4788	-9.08004	0	
0.2507	-7.42519	-6.94356	0	
0.2513	-8.64665	-4.49289	0	
0.2520	-10.7681	-4.80708	0	
0.2527	-8.03592	-3.88023	0	
0.2533	-4.66083	-2.96908	0	
0.2540	-4.98227	-3.88023	0	
0.2547	-7.71448	-2.96908	0	
0.2553	-8.03592	-0.832599	0	
0.2560	-2.21791	0.0785471	0	
0.2567	2.66793	-0.53412	0	
0.2573	3.56795	-2.35641	0	
0.2580	6.94303	-2.96908	0	
0.2587	11.186	-3.28327	0	
0.2593	13.6289	-5.41975	0	
0.2600	17.904	-7.85471	0	
0.2607	20.0577	-6.94356	0	
0.2613	17.2933	-3.88023	0	
0.2620	20.0577	-1.74374	0	
0.2627	25.5542	-2.6706	0	
0.2633	19.4469	-2.6706	0	
0.2640	8.45379	-0.832599	0	
0.2647	8.45379	-0.219932	0	
0.2653	12.1182	-0.53412	0	
0.2660	9.06452	0.392735	0	
0.2667	4.50011	-0.832599	0	
0.2673	3.56795	-2.35641	0	
0.2680	2.66793	-0.219932	0	
0.2687	-1.60718	0.691214	0	
0.2693	-7.42519	-2.35641	0	
0.2700	-10.7681	-2.35641	0	
0.2707	-11.0896	0.392735	0	
0.2713	-11.7003	1.60236	0	
0.2720	-13.2111	0.691214	0	
0.2727	-12.6003	-2.35641	0	
0.2733	-9.25738	-3.28327	0	
0.2740	-9.54667	1.30388	0	
0.2747	-12.311	4.96417	0	
0.2753	-10.1574	1.91655	0	
0.2760	-5.27156	-1.14679	0	
0.2767	-0.096431	-0.219932	0	
0.2773	6.6216	-1.44527	0	
0.2780	12.7289	-6.62937	0	
0.2787	12.4075	-7.54052	0	
0.2793	11.5074	-5.10556	0	
0.2800	13.6289	-5.71823	0	
0.2807	15.4611	-7.54052	0	
0.2813	13.6289	-6.33089	0	
0.2820	10.8967	-5.41975	0	
0.2827	14.2396	-6.01671	0	
0.2833	19.4469	-6.33089	0	
0.2840	19.1255	-8.46737	0	
0.2847	16.0718	-10.6039	0	
0.2853	14.2396	-7.54052	0	
0.2860	9.96454	-3.58175	0	
0.2867	7.55376	-3.28327	0	
0.2873	9.96454	-4.19441	0	
0.2880	4.78941	-4.19441	0	
0.2887	-5.593	-4.19441	0	
0.2893	-9.86811	-3.28327	0	
0.2900	-11.3789	-3.58175	0	
0.2907	-15.0432	-4.19441	0	
0.2913	-16.554	-4.19441	0	
0.2920	-21.7613	-2.6706	0	
0.2927	-29.3793	-1.14679	0	
0.2933	-27.5471	0.392735	0	
0.2940	-21.4398	1.91655	0	
0.2947	-18.3862	3.12617	0	
0.2953	-14.1432	4.35151	0	
0.2960	-10.1574	4.05303	0	
0.2967	-10.7681	4.35151	0	
0.2973	-12.6003	5.87532	0	
0.2980	-11.3789	5.57684	0	
0.2987	-4.98227	4.96417	0	
0.2993	3.88939	7.39913	0	
0.3000	6.3323	9.53561	0	
0.3007	3.56795	8.0118	0	
0.3013	4.78941	5.87532	0	
0.3020	9.06452	6.48799	0	
0.3027	12.4075	8.62447	0	
0.3033	14.8504	10.4625	0	
0.3040	13.9504	10.1483	0	
0.3047	9.96454	9.23713	0	
0.3053	6.3323	8.62447	0	
0.3060	3.88939	9.23713	0	
0.3067	0.835736	9.53561	0	
0.3073	-2.82864	8.62447	0	
0.3080	-7.71448	7.39913	0	
0.3087	-13.2111	8.0118	0	
0.3093	-17.1647	7.71332	0	
0.3100	-18.3862	5.57684	0	
0.3107	-17.1647	4.96417	0	
0.3113	-15.654	6.18951	0	
0.3120	-17.4862	6.18951	0	
0.3127	-20.5398	4.6657	0	
0.3133	-19.9291	4.35151	0	
0.3140	-16.554	6.18951	0	
0.3147	-16.8754	6.80218	0	
0.3153	-17.4862	4.05303	0	
0.3160	-11.3789	0.989693	0	
0.3167	-4.0501	0.392735	0	
0.3173	-0.996454	0.989693	0	
0.3180	2.66793	0.392735	0	
0.3187	8.16449	-2.35641	0	
0.3193	8.45379	-4.19441	0	
0.3200	6.6216	-3.88023	0	
0.3207	8.16449	-2.96908	0	
0.3213	12.4075	-4.19441	0	
0.3220	14.5611	-4.19441	0	
0.3227	14.2396	0.989693	0	
0.3233	14.2396	2.52922	0	
0.3240	15.4611	-0.53412	0	
0.3247	10.8967	0.989693	0	
0.3253	2.0572	4.05303	0	
0.3260	-0.096431	3.12617	0	
0.3267	3.56795	2.82769	0	
0.3273	3.27866	3.73884	0	
0.3280	0.514299	2.21503	0	
0.3287	-1.31789	1.60236	0	
0.3293	-5.88229	2.52922	0	
0.3300	-12.9218	1.60236	0	
0.3307	-14.7539	3.73884	0	
0.3313	-12.311	7.39913	0	
0.3320	-13.5325	6.18951	0	
0.3327	-16.8754	4.6657	0	
0.3333	-16.2647	7.39913	0	
0.3340	-14.1432	7.39913	0	
0.3347	-15.0432	3.12617	0	
0.3353	-15.0432	0.691214	0	
0.3360	-11.7003	-0.219932	0	
0.3367	-8.64665	-1.14679	0	
0.3373	-6.49302	-0.219932	0	
0.3380	-1.92862	1.91655	0	
0.3387	4.50011	1.30388	0	
0.3393	9.06452	-1.14679	0	
0.3400	8.77522	-1.74374	0	
0.3407	8.45379	-2.96908	0	
0.3413	10.8967	-6.01671	0	
0.3420	10.8967	-6.62937	0	
0.3427	9.96454	-3.28327	0	
0.3433	14.5611	-2.35641	0	
0.3440	21.5684	-5.10556	0	
0.3447	22.5006	-6.01671	0	
0.3453	18.8362	-5.10556	0	
0.3460	15.1718	-5.41975	0	
0.3467	12.4075	-5.71823	0	
0.3473	8.16449	-6.01671	0	
0.3480	-0.096431	-7.54052	0	
0.3487	-8.64665	-7.85471	0	
0.3493	-11.7003	-6.94356	0	
0.3500	-9.25738	-5.10556	0	
0.3507	-4.66083	-4.19441	0	
0.3513	-1.92862	-6.33089	0	
0.3520	-0.996454	-7.85471	0	
0.3527	0.514299	-6.33089	0	
0.3533	2.34649	-4.49289	0	
0.3540	4.50011	-3.28327	0	
0.3547	7.84306	-2.96908	0	
0.3553	10.8967	-6.01671	0	
0.3560	10.286	-8.46737	0	
0.3567	6.94303	-5.71823	0	
0.3573	-3.43937	-5.41975	0	
0.3580	-19.3184	-6.33089	0	
0.3587	-28.4793	-2.35641	0	
0.3593	-31.2115	0.392735	0	
0.3600	-34.2652	-2.35641	0	
0.3607	-30.6008	-3.88023	0	
0.3613	-17.1647	-3.28327	0	
0.3620	-6.20373	-4.19441	0	
0.3627	-2.21791	-3.88023	0	
0.3633	-0.096431	-1.74374	0	
0.3640	2.34649	-0.53412	0	
0.3647	4.50011	-0.219932	0	
0.3653	1.73576	-0.53412	0	
0.3660	-3.76081	-1.14679	0	
0.3667	-5.593	0.392735	0	
0.3673	-5.593	3.73884	0	
0.3680	-9.86811	4.96417	0	
0.3687	-14.7539	4.05303	0	
0.3693	-17.7755	4.96417	0	
0.3700	-21.1505	8.62447	0	
0.3707	-20.2184	9.8498	0	
0.3713	-17.4862	9.23713	0	
0.3720	-17.7755	9.53561	0	
0.3727	-17.4862	8.62447	0	
0.3733	-14.4325	8.62447	0	
0.3740	-14.1432	11.6721	0	
0.3747	-14.1432	12.8974	0	
0.3753	-8.32521	9.53561	0	
0.3760	-1.92862	8.62447	0	
0.3767	-0.996454	10.7609	0	
0.3773	-0.996454	11.0751	0	
0.3780	1.73576	9.23713	0	
0.3787	6.3323	8.62447	0	
0.3793	12.4075	10.1483	0	
0.3800	16.0718	9.53561	0	
0.3807	16.6826	7.10065	0	
0.3813	17.004	7.39913	0	
0.3820	15.7825	9.53561	0	
0.3827	13.6289	8.93866	0	
0.3833	13.0182	7.71332	0	
0.3840	14.5611	9.53561	0	
0.3847	14.5611	8.62447	0	
0.3853	12.1182	4.05303	0	
0.3860	9.96454	4.96417	0	
0.3867	8.77522	8.62447	0	
0.3873	5.40014	8.0118	0	
0.3880	2.66793	6.18951	0	
0.3887	3.56795	6.80218	0	
0.3893	0.514299	6.18951	0	
0.3900	-8.93594	4.05303	0	
0.3907	-12.311	2.21503	0	
0.3913	-9.54667	0.989693	0	
0.3920	-11.0896	0.691214	0	
0.3927	-12.9218	1.30388	0	
0.3933	-8.32521	1.30388	0	
0.3940	-4.98227	0.392735	0	
0.3947	-4.98227	-0.53412	0	
0.3953	-3.43937	-0.219932	0	
0.3960	-0.707161	2.21503	0	
0.3967	-0.385724	2.82769	0	
0.3973	-0.096431	-0.53412	0	
0.3980	4.50011	-1.14679	0	
0.3987	11.7967	0.691214	0	
0.3993	13.6289	-1.44527	0	
0.4000	12.7289	-5.10556	0	
0.4007	15.4611	-3.58175	0	
0.4013	19.1255	-0.53412	0	
0.4020	19.7362	-2.35641	0	
0.4027	20.3469	-4.49289	0	
0.4033	20.0577	-5.10556	0	
0.4040	16.3933	-6.62937	0	
0.4047	13.3396	-7.85471	0	
0.4053	13.3396	-5.10556	0	
0.4060	14.2396	-3.28327	0	
0.4067	9.96454	-4.19441	0	
0.4073	1.12503	-3.28327	0	
0.4080	-3.76081	-1.44527	0	
0.4087	-4.0501	-4.19441	0	
0.4093	-7.10375	-5.10556	0	
0.4100	-11.0896	-1.14679	0	
0.4107	-10.1574	0.392735	0	
0.4113	-10.1574	-1.44527	0	
0.4120	-12.9218	-1.44527	0	
0.4127	-12.9218	2.52922	0	
0.4133	-12.6003	7.10065	0	
0.4140	-12.311	8.0118	0	
0.4147	-11.0896	5.87532	0	
0.4153	-10.1574	6.18951	0	
0.4160	-8.64665	5.87532	0	
0.4167	-1.92862	2.52922	0	
0.4173	3.27866	2.52922	0	
0.4180	3.56795	6.48799	0	
0.4187	4.78941	6.80218	0	
0.4193	9.67525	4.35151	0	
0.4200	11.5074	4.96417	0	
0.4207	9.96454	5.87532	0	
0.4213	9.06452	5.26265	0	
0.4220	10.286	4.96417	0	
0.4227	11.186	4.96417	0	
0.4233	10.5753	4.6657	0	
0.4240	10.8967	4.35151	0	
0.4247	12.7289	4.96417	0	
0.4253	9.96454	6.80218	0	
0.4260	3.27866	8.0118	0	
0.4267	0.514299	6.18951	0	
0.4273	0.835736	3.44036	0	
0.4280	0.225006	2.82769	0	
0.4287	-0.996454	3.44036	0	
0.4293	-3.76081	3.12617	0	
0.4300	-8.32521	3.12617	0	
0.4307	-11.0896	3.44036	0	
0.4313	-10.4788	2.21503	0	
0.4320	-7.71448	0.392735	0	
0.4327	-4.66083	-0.832599	0	
0.4333	-4.66083	-3.88023	0	
0.4340	-8.32521	-5.10556	0	
0.4347	-8.32521	-2.6706	0	
0.4353	-2.82864	-1.44527	0	
0.4360	0.835736	-4.19441	0	
0.4367	-0.096431	-3.88023	0	
0.4373	6.01087	-0.219932	0	
0.4380	18.8362	-0.53412	0	
0.4387	24.6221	-4.19441	0	
0.4393	23.1113	-4.19441	0	
0.4400	25.2328	-3.28327	0	
0.4407	28.2864	-5.10556	0	
0.4413	27.6757	-6.94356	0	
0.4420	24.9435	-6.01671	0	
0.4427	17.6147	-5.41975	0	
0.4433	8.45379	-4.19441	0	
0.4440	5.72157	-2.6706	0	
0.4447	4.50011	-4.49289	0	
0.4453	0.835736	-6.94356	0	
0.4460	0.835736	-7.24204	0	
0.4467	0.835736	-9.677	0	
0.4473	-5.593	-11.8135	0	
0.4480	-9.25738	-8.46737	0	
0.4487	-7.71448	-7.54052	0	
0.4493	-10.1574	-13.0388	0	
0.4500	-13.8218	-13.95	0	
0.4507	-13.8218	-9.37852	0	
0.4513	-13.8218	-9.677	0	
0.4520	-10.7681	-12.7403	0	
0.4527	-7.42519	-11.515	0	
0.4533	-12.311	-10.6039	0	
0.4540	-19.3184	-11.515	0	
0.4547	-18.3862	-11.515	0	
0.4553	-15.654	-11.515	0	
0.4560	-15.654	-14.8768	0	
0.4567	-10.1574	-16.4006	0	
0.4573	-1.31789	-15.4895	0	
0.4580	0.225006	-15.788	0	
0.4587	-0.385724	-16.0864	0	
0.4593	4.17868	-15.4895	0	
0.4600	7.23233	-14.8768	0	
0.4607	6.01087	-14.5626	0	
0.4613	8.77522	-12.7403	0	
0.4620	13.9504	-11.2165	0	
0.4627	14.5611	-12.7403	0	
0.4633	14.5611	-16.0864	0	
0.4640	16.0718	-15.1753	0	
0.4647	13.6289	-10.9023	0	
0.4653	8.16449	-9.99119	0	
0.4660	6.6216	-10.9023	0	
0.4667	6.01087	-8.76585	0	
0.4673	0.835736	-8.46737	0	
0.4680	-4.66083	-9.99119	0	
0.4687	-5.593	-6.94356	0	
0.4693	-7.10375	-4.19441	0	
0.4700	-11.0896	-6.01671	0	
0.4707	-15.0432	-7.85471	0	
0.4713	-16.8754	-5.71823	0	
0.4720	-17.4862	-3.58175	0	
0.4727	-19.6076	-1.44527	0	
0.4733	-21.1505	-0.219932	0	
0.4740	-16.2647	-1.44527	0	
0.4747	-9.25738	-2.35641	0	
0.4753	-8.03592	-1.44527	0	
0.4760	-9.25738	-1.74374	0	
0.4767	-6.49302	-1.74374	0	
0.4773	-3.76081	-0.832599	0	
0.4780	-3.43937	-0.53412	0	
0.4787	-0.996454	1.60236	0	
0.4793	3.56795	3.44036	0	
0.4800	7.23233	1.91655	0	
0.4807	6.94303	0.0785471	0	
0.4813	2.66793	0.0785471	0	
0.4820	0.514299	-0.53412	0	
0.4827	4.50011	-0.53412	0	
0.4833	9.38595	-0.219932	0	
0.4840	9.06452	-1.74374	0	
0.4847	7.23233	-4.19441	0	
0.4853	5.72157	-3.28327	0	
0.4860	2.0572	0.392735	0	
0.4867	-1.92862	0.691214	0	
0.4873	-1.60718	-2.35641	0	
0.4880	-1.92862	-2.35641	0	
0.4887	-8.32521	-0.53412	0	
0.4893	-14.7539	-0.53412	0	
0.4900	-14.4325	0.392735	0	
0.4907	-14.1432	3.12617	0	
0.4913	-16.8754	4.6657	0	
0.4920	-17.4862	4.96417	0	
0.4927	-16.554	4.96417	0	
0.4933	-17.4862	2.82769	0	
0.4940	-18.0969	2.21503	0	
0.4947	-14.7539	3.44036	0	
0.4953	-11.7003	2.21503	0	
0.4960	-13.8218	1.91655	0	
0.4967	-14.4325	4.96417	0	
0.4973	-5.593	4.96417	0	
0.4980	4.17868	2.52922	0	
0.4987	6.3323	3.12617	0	
0.4993	7.23233	2.52922	0	
0.5000	9.96454	0.392735	0	
0.5007	9.67525	0.691214	0	
0.5013	10.286	1.30388	0	
0.5020	13.9504	-1.14679	0	
0.5027	12.1182	-0.53412	0	
0.5033	6.6216	3.12617	0	
0.5040	6.6216	2.52922	0	
0.5047	7.23233	1.30388	0	
0.5053	2.34649	3.12617	0	
0.5060	-0.996454	1.91655	0	
0.5067	-0.385724	-0.219932	0	
0.5073	-2.21791	4.35151	0	
0.5080	-6.49302	9.23713	0	
0.5087	-9.25738	6.18951	0	
0.5093	-10.4788	4.96417	0	
0.5100	-12.9218	8.62447	0	
0.5107	-14.1432	6.48799	0	
0.5113	-14.4325	3.12617	0	
0.5120	-15.3647	6.48799	0	
0.5127	-14.7539	8.62447	0	
0.5133	-10.7681	4.96417	0	
0.5140	-10.7681	4.05303	0	
0.5147	-19.9291	5.87532	0	
0.5153	-26.3257	3.44036	0	
0.5160	-20.5398	0.392735	0	
0.5167	-13.8218	-0.832599	0	
0.5173	-12.9218	-2.35641	0	
0.5180	-9.86811	-4.19441	0	
0.5187	-4.66083	-4.19441	0	
0.5193	-1.31789	-4.19441	0	
0.5200	3.56795	-5.10556	0	
0.5207	8.16449	-5.71823	0	
0.5213	7.55376	-4.19441	0	
0.5220	7.23233	-2.35641	0	
0.5227	9.96454	-0.53412	0	
0.5233	10.8967	0.989693	0	
0.5240	9.38595	2.21503	0	
0.5247	10.8967	2.21503	0	
0.5253	13.9504	1.30388	0	
0.5260	13.9504	0.691214	0	
0.5267	11.186	1.30388	0	
0.5273	12.4075	2.21503	0	
0.5280	19.1255	3.12617	0	
0.5287	22.7899	2.21503	0	
0.5293	20.0577	1.30388	0	
0.5300	17.004	1.91655	0	
0.5307	16.3933	2.52922	0	
0.5313	15.7825	1.91655	0	
0.5320	13.0182	1.60236	0	
0.5327	8.45379	1.91655	0	
0.5333	6.01087	1.60236	0	
0.5340	4.78941	2.21503	0	
0.5347	-3.43937	3.12617	0	
0.5353	-17.1647	3.12617	0	
0.5360	-25.4256	3.12617	0	
0.5367	-29.9901	5.26265	0	
0.5373	-37.0295	6.80218	0	
0.5380	-34.8759	6.80218	0	
0.5387	-16.554	6.80218	0	
0.5393	-1.60718	5.87532	0	
0.5400	0.835736	4.6657	0	
0.5407	3.56795	2.21503	0	
0.5413	9.67525	1.30388	0	
0.5420	14.2396	3.12617	0	
0.5427	17.904	4.05303	0	
0.5433	19.1255	2.82769	0	
0.5440	16.0718	3.12617	0	
0.5447	15.1718	3.12617	0	
0.5453	15.4611	0.0785471	0	
0.5460	10.8967	-0.832599	0	
0.5467	6.94303	1.60236	0	
0.5473	8.16449	4.05303	0	
0.5480	5.11084	4.05303	0	
0.5487	1.12503	2.82769	0	
0.5493	4.50011	1.30388	0	
0.5500	8.16449	2.52922	0	
0.5507	8.45379	4.96417	0	
0.5513	9.96454	6.48799	0	
0.5520	9.06452	6.80218	0	
0.5527	6.6216	4.05303	0	
0.5533	6.3323	1.30388	0	
0.5540	1.73576	1.91655	0	
0.5547	-5.593	3.12617	0	
0.5553	-2.53935	3.12617	0	
0.5560	10.5753	3.12617	0	
0.5567	15.4611	2.21503	0	
0.5573	8.16449	1.30388	0	
0.5580	3.56795	1.91655	0	
0.5587	7.23233	2.21503	0	
0.5593	10.5753	1.30388	0	
0.5600	8.77522	-0.53412	0	
0.5607	5.40014	-2.6706	0	
0.5613	3.56795	-2.35641	0	
0.5620	3.27866	-2.05793	0	
0.5627	6.3323	-3.28327	0	
0.5633	9.38595	-0.832599	0	
0.5640	6.6216	2.21503	0	
0.5647	1.73576	0.691214	0	
0.5653	0.225006	-0.219932	0	
0.5660	-0.996454	2.52922	0	
0.5667	-4.0501	1.30388	0	
0.5673	-7.42519	-2.35641	0	
0.5680	-11.7003	-2.35641	0	
0.5687	-15.3647	-2.35641	0	
0.5693	-15.654	-3.28327	0	
0.5700	-15.0432	-2.05793	0	
0.5707	-15.654	-2.6706	0	
0.5713	-15.654	-4.49289	0	
0.5720	-18.0969	-2.05793	0	
0.5727	-21.4398	0.392735	0	
0.5733	-20.2184	-2.96908	0	
0.5740	-16.8754	-4.19441	0	
0.5747	-17.4862	-1.44527	0	
0.5753	-16.554	-2.35641	0	
0.5760	-9.25738	-4.19441	0	
0.5767	-2.82864	-3.58175	0	
0.5773	-0.996454	-3.88023	0	
0.5780	0.514299	-6.01671	0	
0.5787	3.56795	-6.94356	0	
0.5793	9.06452	-6.33089	0	
0.5800	20.0577	-6.94356	0	
0.5807	30.1186	-6.33089	0	
0.5813	27.065	-5.41975	0	
0.5820	14.8504	-4.80708	0	
0.5827	10.8967	-6.01671	0	
0.5833	15.4611	-9.08004	0	
0.5840	19.1255	-12.4261	0	
0.5847	19.1255	-11.2165	0	
0.5853	13.3396	-7.85471	0	
0.5860	2.66793	-6.94356	0	
0.5867	-2.82864	-7.85471	0	
0.5873	-2.82864	-8.46737	0	
0.5880	-4.0501	-7.24204	0	
0.5887	-7.42519	-6.94356	0	
0.5893	-9.25738	-7.54052	0	
0.5900	-12.6003	-6.01671	0	
0.5907	-16.8754	-3.58175	0	
0.5913	-18.9969	-4.49289	0	
0.5920	-18.3862	-5.71823	0	
0.5927	-17.7755	-3.58175	0	
0.5933	-19.3184	-2.6706	0	
0.5940	-21.4398	-3.88023	0	
0.5947	-20.5398	-3.88023	0	
0.5953	-15.9754	-5.10556	0	
0.5960	-11.0896	-6.94356	0	
0.5967	-9.25738	-4.19441	0	
0.5973	-7.42519	-2.05793	0	
0.5980	-3.15008	-5.71823	0	
0.5987	2.34649	-8.15319	0	
0.5993	6.3323	-5.41975	0	
0.6000	8.77522	-4.19441	0	
0.6007	9.96454	-4.80708	0	
0.6013	11.7967	-4.80708	0	
0.6020	14.8504	-6.94356	0	
0.6027	14.2396	-7.24204	0	
0.6033	8.16449	-3.28327	0	
0.6040	4.78941	-2.35641	0	
0.6047	6.6216	-5.10556	0	
0.6053	6.6216	-6.01671	0	
0.6060	3.27866	-4.19441	0	
0.6067	-0.707161	-2.35641	0	
0.6073	-4.37154	-0.832599	0	
0.6080	-6.49302	1.30388	0	
0.6087	-7.42519	4.05303	0	
0.6093	-9.25738	3.12617	0	
0.6100	-10.4788	-0.53412	0	
0.6107	-11.0896	0.0785471	0	
0.6113	-16.554	4.05303	0	
0.6120	-22.9827	6.18951	0	
0.6127	-21.1505	6.80218	0	
0.6133	-16.8754	6.48799	0	
0.6140	-18.3862	3.73884	0	
0.6147	-18.3862	1.91655	0	
0.6153	-12.9218	3.73884	0	
0.6160	-11.0896	4.96417	0	
0.6167	-13.8218	4.35151	0	
0.6173	-9.86811	5.57684	0	
0.6180	-1.92862	5.57684	0	
0.6187	-0.707161	3.73884	0	
0.6193	-1.92862	3.44036	0	
0.6200	3.27866	3.73884	0	
0.6207	8.45379	3.12617	0	
0.6213	8.16449	3.73884	0	
0.6220	10.5753	4.05303	0	
0.6227	17.904	3.44036	0	
0.6233	20.9577	4.96417	0	
0.6240	18.2255	5.57684	0	
0.6247	16.3933	2.82769	0	
0.6253	16.6826	0.691214	0	
0.6260	15.4611	1.91655	0	
0.6267	12.7289	3.73884	0	
0.6273	10.8967	4.6657	0	
0.6280	8.16449	4.05303	0	
0.6287	3.56795	3.12617	0	
0.6293	-0.096431	4.05303	0	
0.6300	-3.43937	5.26265	0	
0.6307	-6.49302	5.57684	0	
0.6313	-8.32521	7.10065	0	
0.6320	-10.1574	7.71332	0	
0.6327	-10.1574	4.96417	0	
0.6333	-3.76081	4.35151	0	
0.6340	2.66793	4.96417	0	
0.6347	-0.707161	4.05303	0	
0.6353	-4.37154	3.12617	0	
0.6360	2.0572	3.12617	0	
0.6367	7.55376	2.82769	0	
0.6373	4.17868	3.73884	0	
0.6380	3.88939	3.73884	0	
0.6387	9.38595	1.91655	0	
0.6393	11.5074	0.989693	0	
0.6400	9.67525	1.60236	0	
0.6407	9.06452	1.91655	0	
0.6413	9.38595	0.989693	0	
0.6420	12.1182	-0.53412	0	
0.6427	16.3933	-0.832599	0	
0.6433	18.2255	-0.53412	0	
0.6440	15.4611	-0.219932	0	
0.6447	11.7967	0.691214	0	
0.6453	10.8967	0.392735	0	
0.6460	10.8967	-3.28327	0	
0.6467	7.23233	-3.28327	0	
0.6473	1.73576	0.392735	0	
0.6480	-0.385724	0.392735	0	
0.6487	-3.76081	-1.74374	0	
0.6493	-11.3789	0.0785471	0	
0.6500	-15.654	2.21503	0	
0.6507	-14.7539	1.30388	0	
0.6513	-14.7539	2.21503	0	
0.6520	-16.554	3.12617	0	
0.6527	-18.3862	1.60236	0	
0.6533	-20.2184	2.52922	0	
0.6540	-20.8291	4.96417	0	
0.6547	-21.4398	4.05303	0	
0.6553	-22.9827	2.21503	0	
0.6560	-19.3184	1.30388	0	
0.6567	-10.7681	1.30388	0	
0.6573	-6.20373	2.21503	0	
0.6580	-4.66083	1.60236	0	
0.6587	1.12503	-1.44527	0	
0.6593	9.06452	-0.53412	0	
0.6600	13.6289	2.21503	0	
0.6607	18.2255	0.392735	0	
0.6613	21.8898	-1.44527	0	
0.6620	20.9577	1.91655	0	
0.6627	18.8362	3.73884	0	
0.6633	18.2255	2.52922	0	
0.6640	17.004	2.82769	0	
0.6647	16.0718	3.44036	0	
0.6653	15.4611	2.82769	0	
0.6660	11.5074	3.12617	0	
0.6667	4.78941	3.44036	0	
0.6673	2.34649	2.21503	0	
0.6680	1.44647	2.21503	0	
0.6687	-4.37154	4.05303	0	
0.6693	-11.9896	5.87532	0	
0.6700	-14.4325	6.48799	0	
0.6707	-15.3647	6.48799	0	
0.6713	-18.3862	5.87532	0	
0.6720	-20.8291	5.26265	0	
0.6727	-21.1505	6.18951	0	
0.6733	-22.6613	5.87532	0	
0.6740	-24.4935	2.21503	0	
0.6747	-24.4935	-0.53412	0	
0.6753	-23.5935	-0.832599	0	
0.6760	-21.1505	-1.44527	0	
0.6767	-14.4325	-2.35641	0	
0.6773	-7.10375	-2.05793	0	
0.6780	-3.76081	-2.05793	0	
0.6787	0.835736	-0.219932	0	
0.6793	10.286	3.12617	0	
0.6800	18.8362	3.44036	0	
0.6807	21.8898	1.30388	0	
0.6813	20.0577	-0.53412	0	
0.6820	15.4611	-0.832599	0	
0.6827	11.186	0.392735	0	
0.6833	8.45379	0.691214	0	
0.6840	5.72157	-2.96908	0	
0.6847	0.514299	-5.10556	0	
0.6853	-5.27156	-3.88023	0	
0.6860	-4.66083	-4.49289	0	
0.6867	1.44647	-6.01671	0	
0.6873	6.3323	-4.49289	0	
0.6880	4.50011	-3.88023	0	
0.6887	-1.92862	-4.19441	0	
0.6893	-8.32521	-4.49289	0	
0.6900	-12.311	-6.33089	0	
0.6907	-12.311	-7.24204	0	
0.6913	-3.76081	-6.33089	0	
0.6920	7.84306	-6.94356	0	
0.6927	10.286	-7.85471	0	
0.6933	6.01087	-6.33089	0	
0.6940	6.3323	-5.10556	0	
0.6947	6.3323	-2.6706	0	
0.6953	-0.096431	0.691214	0	
0.6960	-4.37154	0.392735	0	
0.6967	-5.593	-2.05793	0	
0.6973	-8.93594	-1.74374	0	
0.6980	-9.86811	-2.35641	0	
0.6987	-10.4788	-4.19441	0	
0.6993	-18.3862	-3.88023	0	
0.7000	-25.4256	-3.28327	0	
0.7007	-25.4256	-5.41975	0	
0.7013	-25.1042	-8.46737	0	
0.7020	-30.3115	-7.85471	0	
0.7027	-40.9832	-5.71823	0	
0.7033	-47.7012	-5.71823	0	
0.7040	-37.3188	-5.10556	0	
0.7047	-16.8754	-3.28327	0	
0.7053	-2.53935	-4.80708	0	
0.7060	8.45379	-7.85471	0	
0.7067	21.8898	-5.41975	0	
0.7073	30.1186	-3.28327	0	
0.7080	36.5152	-5.10556	0	
0.7087	45.3869	-5.10556	0	
0.7093	42.944	-1.74374	0	
0.7100	30.1186	0.691214	0	
0.7107	27.3864	1.91655	0	
0.7113	31.0508	1.60236	0	
0.7120	24.3328	-0.832599	0	
0.7127	15.1718	-1.44527	0	
0.7133	14.5611	-0.53412	0	
0.7140	6.3323	-3.28327	0	
0.7147	-16.554	-4.49289	0	
0.7153	-33.9759	-2.35641	0	
0.7160	-34.8759	-2.96908	0	
0.7167	-27.2578	-5.71823	0	
0.7173	-23.272	-5.71823	0	
0.7180	-24.8149	-7.24204	0	
0.7187	-22.6613	-11.515	0	
0.7193	-17.4862	-12.4261	0	
0.7200	-21.7613	-11.515	0	
0.7207	-22.9827	-12.4261	0	
0.7213	-1.60718	-13.0388	0	
0.7220	29.8293	-12.1277	0	
0.7227	55.4478	-12.4261	0	
0.7233	82.32	-11.2165	0	
0.7240	103.985	-8.76585	0	
0.7247	100.931	-6.94356	0	
0.7253	76.8234	-4.80708	0	
0.7260	46.8976	-3.28327	0	
0.7267	20.3469	-2.35641	0	
0.7273	3.88939	-0.832599	0	
0.7280	-6.49302	-0.832599	0	
0.7287	-21.1505	-2.35641	0	
0.7293	-39.151	-1.44527	0	
0.7300	-51.3656	2.52922	0	
0.7307	-60.5265	4.05303	0	
0.7313	-67.2446	2.82769	0	
0.7320	-62.3587	2.21503	0	
0.7327	-46.7691	1.91655	0	
0.7333	-33.0437	2.21503	0	
0.7340	-29.3793	3.44036	0	
0.7347	-26.9364	4.05303	0	
0.7353	-15.3647	3.73884	0	
0.7360	3.56795	3.73884	0	
0.7367	17.6147	4.05303	0	
0.7373	21.5684	4.05303	0	
0.7380	26.4542	4.35151	0	
0.7387	36.2259	5.87532	0	
0.7393	35.6152	4.05303	0	
0.7400	24.9435	1.30388	0	
0.7407	22.1791	0.0785471	0	
0.7413	30.1186	-0.219932	0	
0.7420	35.0045	-0.53412	0	
0.7427	35.0045	0.392735	0	
0.7433	35.9045	0.989693	0	
0.7440	35.3259	0.392735	0	
0.7447	29.8293	-0.832599	0	
0.7453	22.7899	-2.05793	0	
0.7460	18.2255	-0.53412	0	
0.7467	12.7289	1.30388	0	
0.7473	1.44647	0.392735	0	
0.7480	-10.7681	0.691214	0	
0.7487	-19.3184	2.82769	0	
0.7493	-27.2578	1.91655	0	
0.7500	-37.3188	1.91655	0	
0.7507	-44.9369	4.35151	0	
0.7513	-47.0905	4.05303	0	
0.7520	-45.869	3.12617	0	
0.7527	-44.6476	4.05303	0	
0.7533	-44.0368	3.12617	0	
0.7540	-40.9832	1.91655	0	
0.7547	-35.8081	3.44036	0	
0.7553	-33.0437	4.96417	0	
0.7560	-29.7008	4.96417	0	
0.7567	-19.9291	4.05303	0	
0.7573	-7.42519	2.82769	0	
0.7580	1.12503	0.989693	0	
0.7587	9.06452	-1.44527	0	
0.7593	17.2933	-2.35641	0	
0.7600	24.9435	0.691214	0	
0.7607	27.3864	1.60236	0	
0.7613	16.3933	-0.53412	0	
0.7620	0.835736	0.392735	0	
0.7627	-0.996454	0.989693	0	
0.7633	5.11084	-2.35641	0	
0.7640	5.72157	-1.14679	0	
0.7647	7.23233	2.82769	0	
0.7653	10.286	0.0785471	0	
0.7660	5.72157	-2.35641	0	
0.7667	-0.385724	0.392735	0	
0.7673	-0.096431	1.60236	0	
0.7680	-1.60718	-0.219932	0	
0.7687	-6.49302	-0.219932	0	
0.7693	-8.32521	0.392735	0	
0.7700	-9.25738	0.392735	0	
0.7707	-11.9896	0.392735	0	
0.7713	-12.9218	0.392735	0	
0.7720	-12.311	0.392735	0	
0.7727	-13.5325	0.691214	0	
0.7733	-16.8754	-0.219932	0	
0.7740	-20.2184	-1.14679	0	
0.7747	-22.6613	0.989693	0	
0.7753	-21.4398	2.82769	0	
0.7760	-13.8218	2.21503	0	
0.7767	-7.10375	2.82769	0	
0.7773	-7.42519	4.05303	0	
0.7780	-5.88229	4.05303	0	
0.7787	0.514299	4.96417	0	
0.7793	4.78941	5.87532	0	
0.7800	7.84306	4.6657	0	
0.7807	12.4075	4.6657	0	
0.7813	14.8504	6.80218	0	
0.7820	13.3396	6.18951	0	
0.7827	12.1182	3.12617	0	
0.7833	14.2396	1.30388	0	
0.7840	14.2396	-0.53412	0	
0.7847	10.5753	-0.53412	0	
0.7853	7.55376	1.30388	0	
0.7860	6.3323	1.91655	0	
0.7867	2.66793	2.21503	0	
0.7873	-1.60718	3.12617	0	
0.7880	-3.76081	4.05303	0	
0.7887	-8.03592	4.6657	0	
0.7893	-14.7539	4.96417	0	
0.7900	-18.0969	4.96417	0	
0.7907	-18.7076	5.26265	0	
0.7913	-20.5398	3.44036	0	
0.7920	-21.1505	0.989693	0	
0.7927	-17.1647	2.82769	0	
0.7933	-11.7003	6.80218	0	
0.7940	-7.71448	7.39913	0	
0.7947	-9.54667	5.87532	0	
0.7953	-20.5398	4.96417	0	
0.7960	-27.5471	7.10065	0	
0.7967	-17.7755	8.32599	0	
0.7973	-4.0501	5.57684	0	
0.7980	1.73576	3.73884	0	
0.7987	10.5753	6.48799	0	
0.7993	20.3469	6.48799	0	
0.8000	17.004	4.6657	0	
0.8007	10.5753	5.57684	0	
0.8013	15.1718	4.96417	0	
0.8020	20.6684	1.91655	0	
0.8027	20.3469	0.989693	0	
0.8033	19.1255	1.60236	0	
0.8040	17.004	0.392735	0	
0.8047	15.4611	-2.05793	0	
0.8053	17.2933	-3.88023	0	
0.8060	15.4611	-4.80708	0	
0.8067	6.01087	-5.10556	0	
0.8073	-2.82864	-3.58175	0	
0.8080	-6.49302	-1.44527	0	
0.8087	-8.03592	0.392735	0	
0.8093	-11.3789	0.392735	0	
0.8100	-17.1647	-0.832599	0	
0.8107	-19.9291	-1.44527	0	
0.8113	-16.554	0.0785471	0	
0.8120	-14.1432	0.691214	0	
0.8127	-13.8218	-1.14679	0	
0.8133	-10.1574	-2.35641	0	
0.8140	-5.27156	-2.35641	0	
0.8147	-4.66083	-1.44527	0	
0.8153	-6.49302	0.691214	0	
0.8160	-4.66083	1.30388	0	
0.8167	-0.385724	-0.53412	0	
0.8173	1.44647	0.392735	0	
0.8180	3.88939	2.21503	0	
0.8187	8.77522	1.30388	0	
0.8193	13.3396	2.82769	0	
0.8200	15.4611	4.05303	0	
0.8207	15.4611	-0.53412	0	
0.8213	15.4611	-3.58175	0	
0.8220	18.2255	-0.53412	0	
0.8227	20.6684	0.392735	0	
0.8233	18.2255	-0.832599	0	
0.8240	15.1718	1.30388	0	
0.8247	17.004	4.05303	0	
0.8253	16.6826	4.35151	0	
0.8260	10.8967	2.21503	0	
0.8267	3.88939	-0.219932	0	
0.8273	-0.996454	1.30388	0	
0.8280	-3.15008	4.96417	0	
0.8287	-3.43937	3.44036	0	
0.8293	-6.49302	1.91655	0	
0.8300	-11.9896	3.44036	0	
0.8307	-12.6003	3.12617	0	
0.8313	-11.7003	0.691214	0	
0.8320	-13.8218	0.392735	0	
0.8327	-14.1432	1.30388	0	
0.8333	-10.4788	1.60236	0	
0.8340	-8.93594	0.392735	0	
0.8347	-9.25738	-1.44527	0	
0.8353	-7.42519	0.392735	0	
0.8360	-5.27156	4.05303	0	
0.8367	-2.53935	2.52922	0	
0.8373	1.12503	-1.44527	0	
0.8380	1.44647	-2.35641	0	
0.8387	0.835736	-0.219932	0	
0.8393	5.72157	1.30388	0	
0.8400	11.7967	-0.832599	0	
0.8407	13.6289	-1.74374	0	
0.8413	13.3396	0.989693	0	
0.8420	12.4075	1.30388	0	
0.8427	13.3396	-0.53412	0	
0.8433	15.4611	0.691214	0	
0.8440	11.7967	1.91655	0	
0.8447	6.6216	-0.53412	0	
0.8453	8.16449	-1.14679	0	
0.8460	8.77522	-0.53412	0	
0.8467	1.44647	-2.6706	0	
0.8473	-3.76081	-4.19441	0	
0.8480	-3.76081	-3.28327	0	
0.8487	-4.66083	-1.74374	0	
0.8493	-8.32521	-2.35641	0	
0.8500	-11.3789	-3.88023	0	
0.8507	-8.03592	-3.88023	0	
0.8513	-0.996454	-1.74374	0	
0.8520	-0.707161	-0.53412	0	
0.8527	-3.15008	-2.35641	0	
0.8533	-0.996454	-2.96908	0	
0.8540	-0.707161	-0.53412	0	
0.8547	-2.82864	-1.74374	0	
0.8553	1.44647	-6.94356	0	
0.8560	6.3323	-8.46737	0	
0.8567	3.27866	-5.71823	0	
0.8573	0.835736	-5.10556	0	
0.8580	3.56795	-7.85471	0	
0.8587	6.01087	-7.54052	0	
0.8593	5.40014	-5.41975	0	
0.8600	-0.707161	-6.01671	0	
0.8607	-8.64665	-6.94356	0	
0.8613	-5.593	-6.94356	0	
0.8620	5.11084	-9.08004	0	
0.8627	9.67525	-9.08004	0	
0.8633	10.286	-4.80708	0	
0.8640	10.8967	-4.49289	0	
0.8647	8.45379	-7.85471	0	
0.8653	7.23233	-6.33089	0	
0.8660	8.77522	-3.58175	0	
0.8667	3.56795	-3.28327	0	
0.8673	-4.66083	-2.05793	0	
0.8680	-5.88229	0.989693	0	
0.8687	-5.593	2.21503	0	
0.8693	-9.54667	1.30388	0	
0.8700	-12.311	-1.44527	0	
0.8707	-13.8218	-3.28327	0	
0.8713	-15.654	-1.44527	0	
0.8720	-13.8218	-0.219932	0	
0.8727	-13.2111	-1.44527	0	
0.8733	-15.654	-1.44527	0	
0.8740	-14.4325	-0.53412	0	
0.8747	-8.32521	-2.05793	0	
0.8753	-2.53935	-4.49289	0	
0.8760	-1.92862	-3.88023	0	
0.8767	-6.20373	-1.14679	0	
0.8773	-4.66083	-1.44527	0	
0.8780	4.50011	-4.19441	0	
0.8787	10.5753	-3.28327	0	
0.8793	12.4075	-2.05793	0	
0.8800	17.2933	-2.05793	0	
0.8807	21.8898	0.392735	0	
0.8813	21.8898	0.392735	0	
0.8820	20.3469	-3.28327	0	
0.8827	20.0577	-4.49289	0	
0.8833	19.7362	-3.28327	0	
0.8840	17.004	-4.49289	0	
0.8847	13.6289	-5.71823	0	
0.8853	11.186	-3.88023	0	
0.8860	8.16449	-2.35641	0	
0.8867	4.50011	-1.44527	0	
0.8873	4.78941	0.392735	0	
0.8880	2.66793	0.0785471	0	
0.8887	-6.49302	-0.53412	0	
0.8893	-13.5325	0.392735	0	
0.8900	-14.1432	0.989693	0	
0.8907	-16.554	1.30388	0	
0.8913	-18.7076	2.21503	0	
0.8920	-16.8754	2.21503	0	
0.8927	-16.2647	1.60236	0	
0.8933	-16.2647	2.52922	0	
0.8940	-12.6003	3.12617	0	
0.8947	-7.71448	1.60236	0	
0.8953	-5.593	1.91655	0	
0.8960	-4.66083	5.26265	0	
0.8967	-3.15008	7.39913	0	
0.8973	-0.096431	4.6657	0	
0.8980	3.56795	2.21503	0	
0.8987	5.40014	3.12617	0	
0.8993	7.23233	2.21503	0	
0.9000	9.96454	-0.219932	0	
0.9007	9.96454	1.30388	0	
0.9013	11.186	1.60236	0	
0.9020	14.5611	0.0785471	0	
0.9027	13.9504	1.30388	0	
0.9033	9.96454	2.52922	0	
0.9040	9.67525	0.392735	0	
0.9047	9.06452	0.989693	0	
0.9053	4.50011	2.82769	0	
0.9060	2.66793	1.91655	0	
0.9067	3.56795	3.12617	0	
0.9073	1.73576	3.73884	0	
0.9080	-2.21791	0.691214	0	
0.9087	-6.20373	1.60236	0	
0.9093	-10.4788	5.57684	0	
0.9100	-13.8218	4.35151	0	
0.9107	-14.7539	2.82769	0	
0.9113	-13.8218	4.96417	0	
0.9120	-12.6003	5.26265	0	
0.9127	-11.0896	4.6657	0	
0.9133	-10.1574	5.87532	0	
0.9140	-10.1574	4.05303	0	
0.9147	-9.25738	0.392735	0	
0.9153	-4.66083	1.30388	0	
0.9160	0.835736	4.96417	0	
0.9167	1.73576	7.10065	0	
0.9173	0.835736	7.39913	0	
0.9180	-0.996454	6.18951	0	
0.9187	-2.53935	5.87532	0	
0.9193	0.835736	5.87532	0	
0.9200	5.40014	5.57684	0	
0.9207	4.50011	3.44036	0	
0.9213	5.72157	1.30388	0	
0.9220	12.1182	0.691214	0	
0.9227	12.4075	2.82769	0	
0.9233	11.186	2.82769	0	
0.9240	17.2933	0.691214	0	
0.9247	20.9577	1.30388	0	
0.9253	16.3933	2.52922	0	
0.9260	13.0182	3.12617	0	
0.9267	9.67525	4.05303	0	
0.9273	2.95722	4.05303	0	
0.9280	1.12503	2.21503	0	
0.9287	0.835736	2.82769	0	
0.9293	-6.49302	3.73884	0	
0.9300	-15.654	2.21503	0	
0.9307	-20.5398	-0.219932	0	
0.9313	-24.4935	-5.10556	0	
0.9320	-27.8686	-9.37852	0	
0.9327	-32.7544	-7.24204	0	
0.9333	-39.4724	-4.19441	0	
0.9340	-39.151	-6.01671	0	
0.9347	-29.3793	-9.99119	0	
0.9353	-17.4862	-10.2897	0	
0.9360	-8.64665	-8.46737	0	
0.9367	-4.0501	-7.85471	0	
0.9373	-1.60718	-9.99119	0	
0.9380	5.11084	-9.99119	0	
0.9387	12.7289	-7.54052	0	
0.9393	15.7825	-7.54052	0	
0.9400	20.0577	-7.85471	0	
0.9407	24.3328	-4.19441	0	
0.9413	22.1791	-4.19441	0	
0.9420	17.2933	-5.71823	0	
0.9427	8.77522	-4.19441	0	
0.9433	-1.92862	-3.28327	0	
0.9440	-2.53935	-5.71823	0	
0.9447	6.94303	-6.01671	0	
0.9453	13.9504	-5.10556	0	
0.9460	15.4611	-6.01671	0	
0.9467	10.8967	-4.19441	0	
0.9473	1.12503	0.392735	0	
0.9480	-5.593	0.392735	0	
0.9487	-4.98227	-2.6706	0	
0.9493	-2.82864	-2.6706	0	
0.9500	-5.27156	-2.35641	0	
0.9507	-11.9896	-4.49289	0	
0.9513	-16.2647	-6.01671	0	
0.9520	-13.8218	-4.80708	0	
0.9527	-10.4788	-4.19441	0	
0.9533	-9.25738	-4.49289	0	
0.9540	-6.49302	-4.80708	0	
0.9547	-1.92862	-5.10556	0	
0.9553	-0.707161	-3.88023	0	
0.9560	-3.76081	0.392735	0	
0.9567	-8.32521	1.91655	0	
0.9573	-8.32521	-0.832599	0	
0.9580	-2.82864	-2.05793	0	
0.9587	1.73576	-0.53412	0	
0.9593	3.56795	-2.35641	0	
0.9600	6.6216	-4.19441	0	
0.9607	10.286	-4.49289	0	
0.9613	10.5753	-5.10556	0	
0.9620	7.23233	-5.10556	0	
0.9627	7.55376	-4.49289	0	
0.9633	12.1182	-7.24204	0	
0.9640	13.9504	-7.24204	0	
0.9647	13.6289	-1.74374	0	
0.9653	17.904	0.0785471	0	
0.9660	21.2791	-1.74374	0	
0.9667	17.2933	-1.14679	0	
0.9673	10.286	-2.35641	0	
0.9680	4.50011	-5.41975	0	
0.9687	-0.707161	-4.80708	0	
0.9693	-5.593	-4.19441	0	
0.9700	-9.25738	-5.10556	0	
0.9707	-12.9218	-0.832599	0	
0.9713	-16.2647	1.30388	0	
0.9720	-17.7755	-2.35641	0	
0.9727	-15.654	0.0785471	0	
0.9733	-14.1432	3.12617	0	
0.9740	-14.7539	-5.10556	0	
0.9747	-11.9896	-10.9023	0	
0.9753	-6.49302	-5.10556	0	
0.9760	-4.0501	-1.44527	0	
0.9767	-3.76081	-3.88023	0	
0.9773	-4.0501	-5.10556	0	
0.9780	-3.76081	-5.10556	0	
0.9787	0.835736	-4.19441	0	
0.9793	5.11084	-2.96908	0	
0.9800	4.50011	-5.10556	0	
0.9807	4.17868	-7.54052	0	
0.9813	8.16449	-6.01671	0	
0.9820	11.186	-5.10556	0	
0.9827	10.8967	-5.71823	0	
0.9833	10.8967	-2.96908	0	
0.9840	15.1718	-0.53412	0	
0.9847	20.6684	-2.05793	0	
0.9853	21.5684	-2.6706	0	
0.9860	15.1718	-1.44527	0	
0.9867	2.66793	-1.74374	0	
0.9873	-6.49302	-1.74374	0	
0.9880	-6.49302	0.691214	0	
0.9887	-6.20373	2.52922	0	
0.9893	-15.0432	3.12617	0	
0.9900	-23.8828	3.73884	0	
0.9907	-28.1579	3.44036	0	
0.9913	-33.6544	4.35151	0	
0.9920	-38.5403	6.80218	0	
0.9927	-38.5403	6.48799	0	
0.9933	-40.0832	4.35151	0	
0.9940	-41.3046	5.87532	0	
0.9947	-35.8081	8.62447	0	
0.9953	-26.3257	8.62447	0	
0.9960	-18.9969	7.10065	0	
0.9967	-12.9218	5.26265	0	
0.9973	-7.71448	4.6657	0	
0.9980	-4.0501	5.87532	0	
0.9987	0.835736	4.6657	0	
0.9993	8.16449	2.21503	0	
1.0000	14.2396	1.30388	0	
1.0007	16.3933	-0.219932	0	
1.0013	18.5148	-1.44527	0	
1.0020	20.9577	1.60236	0	
1.0027	21.2791	4.05303	0	
1.0033	20.0577	4.05303	0	
1.0040	20.6684	2.21503	0	
1.0047	23.4006	-1.14679	0	
1.0053	25.5542	-1.74374	0	
1.0060	23.1113	1.60236	0	
1.0067	17.904	0.392735	0	
1.0073	14.5611	-2.35641	0	
1.0080	9.38595	1.60236	0	
1.0087	-0.996454	4.96417	0	
1.0093	-7.42519	0.989693	0	
1.0100	-6.20373	-0.53412	0	
1.0107	-4.98227	1.60236	0	
1.0113	-6.49302	1.30388	0	
1.0120	-7.10375	1.91655	0	
1.0127	-7.10375	5.87532	0	
1.0133	-6.81446	6.48799	0	
1.0140	-6.81446	4.05303	0	
1.0147	-3.76081	3.73884	0	
1.0153	3.27866	4.6657	0	
1.0160	6.6216	3.73884	0	
1.0167	4.17868	3.44036	0	
1.0173	5.40014	4.05303	0	
1.0180	9.38595	0.989693	0	
1.0187	11.5074	-3.28327	0	
1.0193	15.4611	-4.19441	0	
1.0200	15.4611	-3.58175	0	
1.0207	2.66793	-4.80708	0	
1.0213	-6.49302	-6.62937	0	
1.0220	0.835736	-6.62937	0	
1.0227	9.06452	-6.01671	0	
1.0233	8.45379	-7.85471	0	
1.0240	4.17868	-9.677	0	
1.0247	1.12503	-7.24204	0	
1.0253	0.835736	-4.80708	0	
1.0260	0.225006	-5.10556	0	
1.0267	-2.82864	-5.10556	0	
1.0273	-3.15008	-4.19441	0	
1.0280	-0.996454	-6.33089	0	
1.0287	-5.593	-7.24204	0	
1.0293	-14.7539	-4.80708	0	
1.0300	-18.7076	-4.19441	0	
1.0307	-18.7076	-3.88023	0	
1.0313	-18.3862	-2.96908	0	
1.0320	-16.8754	-5.10556	0	
1.0327	-16.8754	-6.62937	0	
1.0333	-19.3184	-4.19441	0	
1.0340	-18.3862	-3.88023	0	
1.0347	-15.0432	-6.01671	0	
1.0353	-14.7539	-5.71823	0	
1.0360	-13.2111	-5.10556	0	
1.0367	-7.42519	-6.62937	0	
1.0373	-2.21791	-7.54052	0	
1.0380	-0.996454	-8.15319	0	
1.0387	2.34649	-9.677	0	
1.0393	6.94303	-10.9023	0	
1.0400	8.16449	-11.8135	0	
1.0407	9.96454	-13.0388	0	
1.0413	15.4611	-11.515	0	
1.0420	18.8362	-9.08004	0	
1.0427	20.0577	-8.76585	0	
1.0433	22.7899	-8.76585	0	
1.0440	23.722	-6.62937	0	
1.0447	22.5006	-4.19441	0	
1.0453	20.0577	-1.44527	0	
1.0460	14.5611	0.392735	0	
1.0467	7.55376	0.691214	0	
1.0473	5.40014	0.392735	0	
1.0480	6.94303	1.30388	0	
1.0487	6.01087	2.52922	0	
1.0493	0.225006	1.60236	0	
1.0500	-6.20373	1.60236	0	
1.0507	-7.42519	4.35151	0	
1.0513	-6.20373	5.87532	0	
1.0520	-7.71448	5.26265	0	
1.0527	-8.93594	6.80218	0	
1.0533	-7.71448	10.1483	0	
1.0540	-8.93594	9.23713	0	
1.0547	-7.71448	6.80218	0	
1.0553	-4.66083	8.62447	0	
1.0560	-4.98227	9.53561	0	
1.0567	-4.66083	7.71332	0	
1.0573	-0.096431	6.18951	0	
1.0580	0.225006	7.10065	0	
1.0587	-0.096431	9.53561	0	
1.0593	5.72157	10.4625	0	
1.0600	10.8967	6.18951	0	
1.0607	12.7289	1.91655	0	
1.0613	15.1718	2.82769	0	
1.0620	12.1182	3.12617	0	
1.0627	6.3323	0.989693	0	
1.0633	8.16449	1.30388	0	
1.0640	14.5611	3.73884	0	
1.0647	16.3933	3.12617	0	
1.0653	13.6289	1.30388	0	
1.0660	10.8967	0.989693	0	
1.0667	11.186	1.60236	0	
1.0673	9.96454	2.21503	0	
1.0680	1.44647	2.21503	0	
1.0687	-8.03592	2.21503	0	
1.0693	-11.0896	3.12617	0	
1.0700	-11.3789	3.44036	0	
1.0707	-14.4325	3.12617	0	
1.0713	-15.654	2.52922	0	
1.0720	-15.9754	2.21503	0	
1.0727	-18.3862	2.52922	0	
1.0733	-19.3184	4.05303	0	
1.0740	-15.9754	5.57684	0	
1.0747	-12.311	5.87532	0	
1.0753	-7.42519	7.39913	0	
1.0760	-1.60718	8.62447	0	
1.0767	0.835736	7.39913	0	
1.0773	0.835736	3.12617	0	
1.0780	3.27866	0.392735	0	
1.0787	5.11084	-0.53412	0	
1.0793	5.11084	-0.219932	0	
1.0800	4.78941	-0.219932	0	
1.0807	4.17868	-0.219932	0	
1.0813	4.78941	-0.219932	0	
1.0820	6.01087	-0.53412	0	
1.0827	2.95722	-1.14679	0	
1.0833	-1.60718	-0.53412	0	
1.0840	-0.996454	-1.74374	0	
1.0847	0.835736	-3.28327	0	
1.0853	-0.996454	-2.05793	0	
1.0860	-2.21791	-0.53412	0	
1.0867	-0.707161	-1.74374	0	
1.0873	-0.096431	-1.44527	0	
1.0880	-2.21791	0.989693	0	
1.0887	-8.32521	-0.53412	0	
1.0893	-18.0969	-0.53412	0	
1.0900	-25.1042	4.05303	0	
1.0907	-24.2042	5.57684	0	
1.0913	-22.9827	1.60236	0	
1.0920	-23.8828	-0.219932	0	
1.0927	-22.372	0.691214	0	
1.0933	-20.2184	-0.53412	0	
1.0940	-20.5398	-2.6706	0	
1.0947	-19.6076	-2.35641	0	
1.0953	-16.2647	-0.832599	0	
1.0960	-12.9218	-1.14679	0	
1.0967	-8.32521	-3.28327	0	
1.0973	-4.37154	-4.19441	0	
1.0980	-1.92862	-4.19441	0	
1.0987	2.0572	-5.10556	0	
1.0993	6.3323	-4.19441	0	
1.1000	6.3323	-2.35641	0	
1.1007	8.45379	-2.6706	0	
1.1013	13.6289	-3.28327	0	
1.1020	13.6289	-1.44527	0	
1.1027	11.186	0.392735	0	
1.1033	14.8504	-1.14679	0	
1.1040	18.5148	-2.35641	0	
1.1047	17.904	-0.219932	0	
1.1053	16.3933	3.12617	0	
1.1060	12.1182	3.12617	0	
1.1067	6.6216	2.52922	0	
1.1073	4.78941	4.96417	0	
1.1080	4.50011	4.35151	0	
1.1087	0.225006	0.392735	0	
1.1093	-7.10375	0.0785471	0	
1.1100	-14.1432	1.30388	0	
1.1107	-18.7076	0.392735	0	
1.1113	-20.2184	2.52922	0	
1.1120	-21.1505	6.80218	0	
1.1127	-20.2184	6.18951	0	
1.1133	-17.1647	4.96417	0	
1.1140	-16.554	4.05303	0	
1.1147	-18.0969	2.21503	0	
1.1153	-17.1647	2.82769	0	
1.1160	-14.4325	4.96417	0	
1.1167	-10.1574	2.82769	0	
1.1173	-3.43937	0.392735	0	
1.1180	0.225006	-0.219932	0	
1.1187	1.44647	-3.58175	0	
1.1193	6.94303	-5.10556	0	
1.1200	12.7289	-3.58175	0	
1.1207	14.5611	-4.19441	0	
1.1213	16.3933	-6.01671	0	
1.1220	17.004	-4.19441	0	
1.1227	14.5611	-3.58175	0	
1.1233	13.3396	-4.19441	0	
1.1240	15.1718	-4.19441	0	
1.1247	14.5611	-4.19441	0	
1.1253	10.8967	-4.19441	0	
1.1260	7.23233	-2.6706	0	
1.1267	4.50011	-2.96908	0	
1.1273	2.0572	-3.88023	0	
1.1280	-2.53935	-3.28327	0	
1.1287	-9.86811	-4.19441	0	
1.1293	-13.2111	-4.80708	0	
1.1300	-11.7003	-2.35641	0	
1.1307	-11.0896	0.0785471	0	
1.1313	-11.7003	-2.05793	0	
1.1320	-11.0896	-3.88023	0	
1.1327	-10.1574	-3.28327	0	
1.1333	-9.25738	-3.58175	0	
1.1340	-6.20373	-4.19441	0	
1.1347	-3.76081	-3.58175	0	
1.1353	-2.53935	-3.28327	0	
1.1360	0.514299	-3.58175	0	
1.1367	5.40014	-3.28327	0	
1.1373	11.186	-3.28327	0	
1.1380	13.0182	-4.80708	0	
1.1387	8.77522	-6.01671	0	
1.1393	6.6216	-7.85471	0	
1.1400	12.7289	-9.677	0	
1.1407	17.2933	-9.677	0	
1.1413	15.4611	-9.08004	0	
1.1420	15.7825	-10.6039	0	
1.1427	17.904	-11.515	0	
1.1433	17.2933	-9.677	0	
1.1440	18.5148	-7.85471	0	
1.1447	20.6684	-8.15319	0	
1.1453	17.004	-8.76585	0	
1.1460	10.5753	-6.94356	0	
1.1467	6.94303	-4.19441	0	
1.1473	3.56795	-3.28327	0	
1.1480	-0.385724	-2.35641	0	
1.1487	-4.37154	-1.44527	0	
1.1493	-6.81446	-2.96908	0	
1.1500	-9.25738	-3.88023	0	
1.1507	-12.9218	-2.35641	0	
1.1513	-15.0432	-2.35641	0	
1.1520	-14.4325	-3.58175	0	
1.1527	-12.6003	-2.35641	0	
1.1533	-13.5325	0.392735	0	
1.1540	-16.554	2.21503	0	
1.1547	-18.9969	3.12617	0	
1.1553	-16.554	1.91655	0	
1.1560	-11.0896	-1.44527	0	
1.1567	-4.66083	-3.28327	0	
1.1573	-0.385724	-1.74374	0	
1.1580	0.835736	0.392735	0	
1.1587	3.56795	0.0785471	0	
1.1593	9.67525	-2.35641	0	
1.1600	11.7967	-2.96908	0	
1.1607	9.67525	-1.14679	0	
1.1613	10.8967	-0.219932	0	
1.1620	14.5611	-0.832599	0	
1.1627	17.2933	-0.53412	0	
1.1633	16.6826	-0.219932	0	
1.1640	10.5753	-0.832599	0	
1.1647	5.40014	-1.74374	0	
1.1653	7.55376	-3.28327	0	
1.1660	9.06452	-2.35641	0	
1.1667	4.50011	0.392735	0	
1.1673	0.225006	0.0785471	0	
1.1680	-3.76081	-1.44527	0	
1.1687	-8.64665	0.989693	0	
1.1693	-11.9896	2.52922	0	
1.1700	-13.8218	2.21503	0	
1.1707	-15.9754	4.96417	0	
1.1713	-15.654	6.48799	0	
1.1720	-14.1432	6.18951	0	
1.1727	-14.4325	8.93866	0	
1.1733	-13.8218	9.8498	0	
1.1740	-11.7003	5.57684	0	
1.1747	-11.0896	4.6657	0	
1.1753	-10.4788	7.71332	0	
1.1760	-8.03592	7.39913	0	
1.1767	-3.43937	5.26265	0	
1.1773	2.34649	4.35151	0	
1.1780	7.23233	2.52922	0	
1.1787	9.38595	0.989693	0	
1.1793	13.6289	2.21503	0	
1.1800	19.4469	3.12617	0	
1.1807	21.5684	1.30388	0	
1.1813	21.8898	0.989693	0	
1.1820	22.7899	4.35151	0	
1.1827	22.1791	7.10065	0	
1.1833	20.9577	6.48799	0	
1.1840	21.2791	5.87532	0	
1.1847	18.5148	5.87532	0	
1.1853	12.1182	5.57684	0	
1.1860	6.94303	7.10065	0	
1.1867	2.66793	8.32599	0	
1.1873	-0.707161	7.71332	0	
1.1880	-3.15008	6.80218	0	
1.1887	-8.32521	6.48799	0	
1.1893	-14.4325	6.18951	0	
1.1900	-15.654	6.48799	0	
1.1907	-13.8218	5.87532	0	
1.1913	-15.0432	3.12617	0	
1.1920	-17.1647	0.691214	0	
1.1927	-17.7755	0.392735	0	
1.1933	-18.3862	0.989693	0	
1.1940	-17.4862	2.21503	0	
1.1947	-13.2111	2.21503	0	
1.1953	-8.32521	0.691214	0	
1.1960	-7.71448	-0.53412	0	
1.1967	-8.03592	0.0785471	0	
1.1973	-4.98227	-0.53412	0	
1.1980	-0.996454	-2.35641	0	
1.1987	2.66793	-3.58175	0	
1.1993	7.23233	-5.10556	0	
1.2000	10.286	-8.15319	0	
1.2007	12.7289	-8.76585	0	
1.2013	16.3933	-6.62937	0	
1.2020	16.6826	-4.80708	0	
1.2027	13.3396	-3.28327	0	
1.2033	12.4075	-2.6706	0	
1.2040	15.1718	-4.80708	0	
1.2047	16.6826	-6.94356	0	
1.2053	13.3396	-5.10556	0	
1.2060	7.23233	-2.05793	0	
1.2067	3.56795	-1.74374	0	
1.2073	0.835736	-4.49289	0	
1.2080	-4.37154	-4.80708	0	
1.2087	-6.49302	-3.28327	0	
1.2093	-7.42519	-3.58175	0	
1.2100	-15.654	-3.58175	0	
1.2107	-24.8149	-0.832599	0	
1.2113	-23.8828	-0.53412	0	
1.2120	-19.6076	-1.44527	0	
1.2127	-19.3184	0.392735	0	
1.2133	-18.3862	1.30388	0	
1.2140	-17.1647	0.0785471	0	
1.2147	-15.0432	-1.74374	0	
1.2153	-11.9896	-3.58175	0	
1.2160	-8.32521	-5.41975	0	
1.2167	-4.98227	-6.01671	0	
1.2173	-1.31789	-4.19441	0	
1.2180	1.73576	-3.28327	0	
1.2187	3.27866	-3.28327	0	
1.2193	5.40014	-3.58175	0	
1.2200	8.16449	-3.58175	0	
1.2207	8.45379	-2.96908	0	
1.2213	7.84306	-1.44527	0	
1.2220	8.45379	0.392735	0	
1.2227	8.77522	0.989693	0	
1.2233	8.16449	1.30388	0	
1.2240	8.16449	1.30388	0	
1.2247	6.6216	1.60236	0	
1.2253	3.56795	2.52922	0	
1.2260	4.50011	2.52922	0	
1.2267	4.17868	-0.53412	0	
1.2273	-1.60718	-1.44527	0	
1.2280	-5.593	1.30388	0	
1.2287	-9.25738	2.82769	0	
1.2293	-16.554	2.52922	0	
1.2300	-15.3647	2.82769	0	
1.2307	-7.71448	1.91655	0	
1.2313	-12.9218	2.52922	0	
1.2320	-24.4935	6.18951	0	
1.2327	-24.4935	8.62447	0	
1.2333	-19.3184	7.71332	0	
1.2340	-15.654	5.57684	0	
1.2347	-8.64665	4.6657	0	
1.2353	-2.53935	4.96417	0	
1.2360	-0.385724	4.05303	0	
1.2367	2.95722	3.73884	0	
1.2373	8.45379	5.87532	0	
1.2380	11.7967	5.87532	0	
1.2387	14.5611	3.12617	0	
1.2393	17.2933	2.52922	0	
1.2400	17.6147	1.91655	0	
1.2407	16.6826	-0.832599	0	
1.2413	15.1718	-2.05793	0	
1.2420	14.5611	-1.14679	0	
1.2427	15.7825	0.392735	0	
1.2433	16.0718	0.989693	0	
1.2440	13.9504	0.392735	0	
1.2447	13.3396	-0.53412	0	
1.2453	12.7289	0.392735	0	
1.2460	7.23233	0.989693	0	
1.2467	-0.096431	0.989693	0	
1.2473	-4.66083	3.12617	0	
1.2480	-7.42519	4.96417	0	
1.2487	-11.3789	4.6657	0	
1.2493	-15.9754	3.12617	0	
1.2500	-18.0969	2.52922	0	
1.2507	-19.3184	2.21503	0	
1.2513	-20.2184	1.30388	0	
1.2520	-20.5398	0.0785471	0	
1.2527	-21.7613	2.82769	0	
1.2533	-23.8828	5.87532	0	
1.2540	-22.0506	2.52922	0	
1.2547	-18.9969	-0.53412	0	
1.2553	-17.4862	1.30388	0	
1.2560	-14.1432	1.60236	0	
1.2567	-8.32521	-1.44527	0	
1.2573	-6.20373	-1.44527	0	
1.2580	-2.21791	-1.74374	0	
1.2587	3.88939	-2.96908	0	
1.2593	4.78941	-0.53412	0	
1.2600	5.40014	0.392735	0	
1.2607	11.5074	-2.35641	0	
1.2613	13.3396	-0.53412	0	
1.2620	9.96454	2.21503	0	
1.2627	9.96454	-0.832599	0	
1.2633	10.5753	-3.58175	0	
1.2640	8.45379	-1.74374	0	
1.2647	7.84306	-0.832599	0	
1.2653	6.3323	-0.832599	0	
1.2660	3.88939	1.30388	0	
1.2667	3.88939	3.44036	0	
1.2673	2.95722	4.6657	0	
1.2680	-1.60718	3.12617	0	
1.2687	-6.81446	1.30388	0	
1.2693	-11.7003	4.35151	0	
1.2700	-14.4325	9.23713	0	
1.2707	-14.4325	7.39913	0	
1.2713	-15.9754	3.73884	0	
1.2720	-17.4862	4.35151	0	
1.2727	-15.3647	4.6657	0	
1.2733	-12.311	2.82769	0	
1.2740	-9.25738	2.52922	0	
1.2747	-4.98227	1.60236	0	
1.2753	-3.76081	0.392735	0	
1.2760	-2.82864	3.73884	0	
1.2767	3.27866	6.18951	0	
1.2773	6.6216	2.21503	0	
1.2780	6.01087	-1.44527	0	
1.2787	9.67525	-0.53412	0	
1.2793	13.9504	0.691214	0	
1.2800	13.9504	0.392735	0	
1.2807	15.4611	0.392735	0	
1.2813	17.6147	-0.219932	0	
1.2820	18.2255	-0.53412	0	
1.2827	22.1791	0.0785471	0	
1.2833	24.9435	-2.96908	0	
1.2840	20.9577	-5.10556	0	
1.2847	18.5148	-2.05793	0	
1.2853	19.1255	0.0785471	0	
1.2860	15.4611	-3.28327	0	
1.2867	10.5753	-4.49289	0	
1.2873	7.84306	-2.35641	0	
1.2880	0.835736	-1.44527	0	
1.2887	-5.593	-2.96908	0	
1.2893	-4.66083	-3.58175	0	
1.2900	-0.707161	-1.74374	0	
1.2907	1.73576	-0.832599	0	
1.2913	5.11084	-2.35641	0	
1.2920	7.23233	-2.35641	0	
1.2927	4.17868	-2.35641	0	
1.2933	-1.60718	-4.19441	0	
1.2940	-5.27156	-5.10556	0	
1.2947	-5.27156	-4.80708	0	
1.2953	-6.49302	-4.19441	0	
1.2960	-10.1574	-2.96908	0	
1.2967	-12.9218	-3.28327	0	
1.2973	-12.9218	-5.41975	0	
1.2980	-11.7003	-5.41975	0	
1.2987	-10.4788	-2.96908	0	
1.2993	-12.311	-2.96908	0	
1.3000	-11.9896	-2.6706	0	
1.3007	-3.15008	-0.832599	0	
1.3013	6.6216	-2.35641	0	
1.3020	10.8967	-4.80708	0	
1.3027	16.3933	-3.28327	0	
1.3033	24.0113	-1.14679	0	
1.3040	27.3864	-2.35641	0	
1.3047	28.6079	-4.19441	0	
1.3053	30.7294	-6.94356	0	
1.3060	32.2723	-8.76585	0	
1.3067	32.883	-6.01671	0	
1.3073	28.2864	-4.19441	0	
1.3080	13.9504	-5.10556	0	
1.3087	-7.10375	-2.96908	0	
1.3093	-28.4793	-0.53412	0	
1.3100	-41.5939	-4.80708	0	
1.3107	-44.6476	-8.46737	0	
1.3113	-44.3261	-6.01671	0	
1.3120	-44.0368	-4.19441	0	
1.3127	-42.2046	-4.19441	0	
1.3133	-45.869	-3.28327	0	
1.3140	-53.8085	-2.6706	0	
1.3147	-50.4334	-2.05793	0	
1.3153	-39.4724	0.989693	0	
1.3160	-32.433	-0.219932	0	
1.3167	-18.3862	-4.19441	0	
1.3173	4.50011	-3.28327	0	
1.3180	13.6289	0.392735	0	
1.3187	9.96454	-0.832599	0	
1.3193	14.5611	-3.88023	0	
1.3200	25.2328	-2.35641	0	
1.3207	30.4401	-0.219932	0	
1.3213	31.6615	-3.58175	0	
1.3220	28.2864	-6.94356	0	
1.3227	23.722	-4.80708	0	
1.3233	25.8435	-0.53412	0	
1.3240	29.2186	0.0785471	0	
1.3247	31.3401	-1.14679	0	
1.3253	37.7367	-1.14679	0	
1.3260	31.3401	-0.832599	0	
1.3267	6.01087	-1.44527	0	
1.3273	-4.0501	-2.35641	0	
1.3280	9.96454	-3.58175	0	
1.3287	17.904	-4.19441	0	
1.3293	13.3396	-4.19441	0	
1.3300	10.286	-2.35641	0	
1.3307	5.40014	-0.53412	0	
1.3313	-2.53935	-1.44527	0	
1.3320	-5.593	-2.35641	0	
1.3327	-4.98227	-2.35641	0	
1.3333	-5.593	-4.19441	0	
1.3340	-8.32521	-5.41975	0	
1.3347	-11.0896	-3.28327	0	
1.3353	-10.1574	-0.832599	0	
1.3360	-8.32521	-0.53412	0	
1.3367	-8.64665	0.392735	0	
1.3373	-7.10375	-1.44527	0	
1.3380	-2.82864	-4.80708	0	
1.3387	1.12503	-4.19441	0	
1.3393	9.67525	-3.28327	0	
1.3400	19.4469	-4.49289	0	
1.3407	23.722	-4.80708	0	
1.3413	28.2864	-6.33089	0	
1.3420	31.0508	-7.54052	0	
1.3427	23.722	-4.49289	0	
1.3433	16.0718	-4.19441	0	
1.3440	16.6826	-6.94356	0	
1.3447	14.5611	-6.01671	0	
1.3453	8.77522	-5.10556	0	
1.3460	5.11084	-7.85471	0	
1.3467	-2.82864	-7.24204	0	
1.3473	-10.1574	-6.01671	0	
1.3480	-5.593	-7.85471	0	
1.3487	-10.1574	-5.71823	0	
1.3493	-34.5866	-1.44527	0	
1.3500	-45.5476	-1.44527	0	
1.3507	-30.9222	-0.832599	0	
1.3513	-21.7613	2.52922	0	
1.3520	-25.4256	2.52922	0	
1.3527	-19.6076	1.30388	0	
1.3533	-5.593	2.21503	0	
1.3540	-2.53935	3.12617	0	
1.3547	-12.6003	1.30388	0	
1.3553	-24.8149	0.0785471	0	
1.3560	-33.9759	0.0785471	0	
1.3567	-39.4724	-0.219932	0	
1.3573	-40.3725	-0.53412	0	
1.3580	-31.8222	0.392735	0	
1.3587	-19.3184	0.392735	0	
1.3593	-19.9291	-2.6706	0	
1.3600	-31.5329	-4.19441	0	
1.3607	-35.8081	-4.19441	0	
1.3613	-36.7081	-4.49289	0	
1.3620	-44.9369	-3.88023	0	
1.3627	-44.0368	-1.14679	0	
1.3633	-26.6471	-1.44527	0	
1.3640	-11.3789	-3.28327	0	
1.3647	-0.707161	-2.96908	0	
1.3653	10.8967	-4.19441	0	
1.3660	13.0182	-5.10556	0	
1.3667	14.2396	-3.28327	0	
1.3673	41.7225	-2.96908	0	
1.3680	75.2805	-4.49289	0	
1.3687	66.1195	0.0785471	0	
1.3693	21.5684	9.53561	0	
1.3700	-12.9218	16.8719	0	
1.3707	-22.0506	22.3545	0	
1.3713	-17.4862	27.2401	0	
1.3720	-9.25738	27.5543	0	
1.3727	-4.66083	22.3545	0	
1.3733	-0.096431	18.6942	0	
1.3740	15.4611	18.6942	0	
1.3747	35.0045	17.1704	0	
1.3753	41.1118	11.3736	0	
1.3760	35.0045	9.23713	0	
1.3767	26.4542	11.6721	0	
1.3773	18.5148	11.3736	0	
1.3780	15.1718	9.53561	0	
1.3787	21.8898	10.4625	0	
1.3793	32.5615	9.8498	0	
1.3800	33.1723	8.0118	0	
1.3807	21.2791	9.23713	0	
1.3813	9.96454	8.93866	0	
1.3820	9.96454	6.18951	0	
1.3827	17.004	6.48799	0	
1.3833	20.9577	8.93866	0	
1.3840	19.7362	10.4625	0	
1.3847	14.2396	12.5989	0	
1.3853	8.16449	12.8974	0	
1.3860	12.1182	9.23713	0	
1.3867	25.8435	9.23713	0	
1.3873	33.1723	11.6721	0	
1.3880	27.3864	9.8498	0	
1.3887	13.6289	6.18951	0	
1.3893	-9.25738	4.05303	0	
1.3900	-31.8222	1.60236	0	
1.3907	-41.9154	3.12617	0	
1.3913	-52.8764	6.80218	0	
1.3920	-64.4802	4.35151	0	
1.3927	-51.0442	3.12617	0	
1.3933	-27.2578	9.23713	0	
1.3940	-18.3862	12.8974	0	
1.3947	0.225006	7.10065	0	
1.3953	32.883	0.0785471	0	
1.3960	43.2332	-1.44527	0	
1.3967	38.6688	0.392735	0	
1.3973	42.944	-0.832599	0	
1.3980	36.2259	-5.10556	0	
1.3987	16.3933	-6.62937	0	
1.3993	6.94303	-4.19441	0	
1.4000	-6.20373	-5.10556	0	
1.4007	-37.6402	-7.85471	0	
1.4013	-62.9695	-6.01671	0	
1.4020	-69.6554	-2.05793	0	
1.4027	-64.1909	-1.44527	0	
1.4033	-42.2046	-4.19441	0	
1.4040	-16.2647	-5.10556	0	
1.4047	-13.8218	-3.58175	0	
1.4053	-31.2115	-2.6706	0	
1.4060	-48.6012	-5.71823	0	
1.4067	-57.4729	-8.46737	0	
1.4073	-56.8622	-6.33089	0	
1.4080	-50.4334	-3.28327	0	
1.4087	-44.9369	-2.35641	0	
1.4093	-39.4724	-2.96908	0	
1.4100	-29.3793	-4.19441	0	
1.4107	-18.0969	-4.49289	0	
1.4113	-8.03592	-4.19441	0	
1.4120	6.6216	-3.28327	0	
1.4127	28.2864	-1.14679	0	
1.4133	47.5084	0.691214	0	
1.4140	51.1727	2.52922	0	
1.4147	38.0581	6.80218	0	
1.4153	25.5542	6.80218	0	
1.4160	20.3469	-2.6706	0	
1.4167	13.3396	-7.85471	0	
1.4173	4.78941	-5.10556	0	
1.4180	5.11084	-7.85471	0	
1.4187	11.7967	-19.4483	0	
1.4193	17.2933	-27.6957	0	
1.4200	17.904	-22.4959	0	
1.4207	16.3933	-9.677	0	
1.4213	20.9577	-9.677	0	
1.4220	30.7294	-13.95	0	
1.4227	42.6225	6.80218	0	
1.4233	67.341	20.5322	0	
1.4240	95.1131	-9.37852	0	
1.4247	90.5487	-38.0639	0	
1.4253	59.723	-28.2927	0	
1.4260	41.1118	-14.5626	0	
1.4267	30.4401	-11.8135	0	
1.4273	9.67525	-3.58175	0	
1.4280	-5.593	-1.44527	0	
1.4287	-3.15008	-8.15319	0	
1.4293	1.44647	-3.88023	0	
1.4300	-3.15008	3.73884	0	
1.4307	-17.7755	-2.05793	0	
1.4313	-39.151	-9.37852	0	
1.4320	-54.7085	-11.2165	0	
1.4327	-49.212	-13.95	0	
1.4333	-31.2115	-13.353	0	
1.4340	-25.7149	-6.01671	0	
1.4347	-38.5403	2.82769	0	
1.4353	-52.8764	16.8719	0	
1.4360	-58.6944	32.7384	0	
1.4367	-56.2514	27.8528	0	
1.4373	-48.6012	3.44036	0	
1.4380	-40.3725	-9.99119	0	
1.4387	-32.1437	-5.41975	0	
1.4393	-23.8828	-1.44527	0	
1.4400	-18.0969	-2.96908	0	
1.4407	-11.7003	-4.19441	0	
1.4413	4.17868	-6.01671	0	
1.4420	18.8362	-6.01671	0	
1.4427	20.9577	-2.35641	0	
1.4433	26.165	-1.44527	0	
1.4440	45.0654	-4.49289	0	
1.4447	54.5478	-6.01671	0	
1.4453	35.0045	-4.19441	0	
1.4460	1.44647	-2.96908	0	
1.4467	-23.272	-3.58175	0	
1.4473	-32.433	-4.19441	0	
1.4480	-29.09	-2.35641	0	
1.4487	-20.8291	-0.53412	0	
1.4493	-14.4325	-1.74374	0	
1.4500	-11.9896	-0.832599	0	
1.4507	-12.311	5.87532	0	
1.4513	-11.3789	8.62447	0	
1.4520	-6.20373	0.0785471	0	
1.4527	-1.92862	-11.2165	0	
1.4533	0.514299	-13.95	0	
1.4540	1.73576	-10.2897	0	
1.4547	-2.82864	-6.94356	0	
1.4553	-11.9896	-6.62937	0	
1.4560	-13.5325	-6.01671	0	
1.4567	-13.5325	-3.58175	0	
1.4573	-25.7149	-2.05793	0	
1.4580	-32.1437	-2.35641	0	
1.4587	-16.554	-2.96908	0	
1.4593	1.12503	-2.96908	0	
1.4600	4.78941	-1.44527	0	
1.4607	6.3323	0.989693	0	
1.4613	10.8967	0.691214	0	
1.4620	11.5074	-1.44527	0	
1.4627	14.8504	-0.219932	0	
1.4633	23.4006	0.392735	0	
1.4640	24.9435	-3.28327	0	
1.4647	17.2933	-2.35641	0	
1.4653	9.67525	2.21503	0	
1.4660	5.72157	2.52922	0	
1.4667	2.95722	3.12617	0	
1.4673	-0.385724	6.80218	0	
1.4680	-2.82864	5.57684	0	
1.4687	-2.82864	2.21503	0	
1.4693	-5.88229	3.44036	0	
1.4700	-11.0896	4.96417	0	
1.4707	-8.93594	4.6657	0	
1.4713	-9.25738	5.57684	0	
1.4720	-24.2042	5.87532	0	
1.4727	-34.8759	6.18951	0	
1.4733	-26.6471	7.10065	0	
1.4740	-17.7755	5.87532	0	
1.4747	-15.654	5.87532	0	
1.4753	-6.20373	9.23713	0	
1.4760	8.77522	9.8498	0	
1.4767	17.004	7.71332	0	
1.4773	16.3933	7.71332	0	
1.4780	14.8504	5.87532	0	
1.4787	17.2933	0.392735	0	
1.4793	22.7899	-1.14679	0	
1.4800	24.9435	0.392735	0	
1.4807	24.0113	2.21503	0	
1.4813	24.6221	4.6657	0	
1.4820	25.5542	4.96417	0	
1.4827	24.6221	1.60236	0	
1.4833	20.0577	0.392735	0	
1.4840	14.5611	3.12617	0	
1.4847	13.6289	4.6657	0	
1.4853	16.0718	3.44036	0	
1.4860	12.7289	2.52922	0	
1.4867	6.6216	0.989693	0	
1.4873	6.6216	-1.74374	0	
1.4880	7.55376	-2.05793	0	
1.4887	-0.096431	0.691214	0	
1.4893	-11.7003	1.91655	0	
1.4900	-15.0432	-1.44527	0	
1.4907	-11.0896	-4.19441	0	
1.4913	-8.03592	-4.19441	0	
1.4920	-7.42519	-2.6706	0	
1.4927	-9.86811	-2.6706	0	
1.4933	-13.8218	-1.74374	0	
1.4940	-20.2184	-1.44527	0	
1.4947	-32.1437	-2.96908	0	
1.4953	-44.9369	-3.88023	0	
1.4960	-38.5403	-1.14679	0	
1.4967	-16.554	1.91655	0	
1.4973	-7.42519	1.60236	0	
1.4980	-9.25738	-0.219932	0	
1.4987	-3.76081	-1.44527	0	
1.4993	3.56795	-0.832599	0	
1.5000	6.6216	-0.53412	0	
1.5007	14.5611	-1.44527	0	
1.5013	24.0113	-2.35641	0	
1.5020	27.3864	-2.96908	0	
1.5027	29.5079	-3.58175	0	
1.5033	33.1723	-3.28327	0	
1.5040	35.6152	-2.35641	0	
1.5047	37.4474	-1.74374	0	
1.5053	32.5615	0.392735	0	
1.5060	20.0577	3.44036	0	
1.5067	9.96454	2.21503	0	
1.5073	2.34649	0.0785471	0	
1.5080	-7.42519	4.05303	0	
1.5087	-8.03592	6.80218	0	
1.5093	-3.43937	3.12617	0	
1.5100	-15.9754	2.82769	0	
1.5107	-35.8081	7.71332	0	
1.5113	-41.3046	8.62447	0	
1.5120	-38.251	6.80218	0	
1.5127	-30.3115	6.48799	0	
1.5133	-11.9896	4.96417	0	
1.5140	4.50011	3.44036	0	
1.5147	11.186	4.96417	0	
1.5153	13.6289	4.05303	0	
1.5160	7.84306	-0.219932	0	
1.5167	-5.27156	-2.96908	0	
1.5173	-9.25738	-3.28327	0	
1.5180	-0.385724	-4.19441	0	
1.5187	6.94303	-7.24204	0	
1.5193	5.40014	-4.19441	0	
1.5200	1.73576	11.6721	0	
1.5207	7.23233	18.6942	0	
1.5213	17.6147	-2.35641	0	
1.5220	24.3328	-18.8356	0	
1.5227	33.783	-13.95	0	
1.5233	51.1727	-11.2165	0	
1.5240	63.9981	-9.37852	0	
1.5247	54.2264	5.57684	0	
1.5253	20.9577	9.8498	0	
1.5260	-9.25738	-2.05793	0	
1.5267	-10.7681	-2.05793	0	
1.5273	1.44647	6.48799	0	
1.5280	-0.096431	4.6657	0	
1.5287	-11.3789	4.35151	0	
1.5293	-16.2647	10.4625	0	
1.5300	-18.3862	10.7609	0	
1.5307	-19.9291	6.80218	0	
1.5313	-15.654	3.12617	0	
1.5320	-15.654	0.392735	0	
1.5327	-29.3793	2.21503	0	
1.5333	-41.9154	3.73884	0	
1.5340	-33.6544	-0.219932	0	
1.5347	-16.8754	-1.74374	0	
1.5353	-7.10375	1.30388	0	
1.5360	2.66793	0.691214	0	
1.5367	13.6289	-4.80708	0	
1.5373	18.2255	-7.85471	0	
1.5380	15.4611	-7.24204	0	
1.5387	6.01087	-6.01671	0	
1.5393	-5.88229	-6.62937	0	
1.5400	-5.593	-8.76585	0	
1.5407	3.27866	-10.2897	0	
1.5413	7.55376	-10.2897	0	
1.5420	8.45379	-9.99119	0	
1.5427	9.67525	-9.99119	0	
1.5433	12.1182	-10.6039	0	
1.5440	24.0113	-12.4261	0	
1.5447	40.1796	-12.4261	0	
1.5453	45.0654	-9.677	0	
1.5460	40.501	-7.85471	0	
1.5467	32.883	-9.677	0	
1.5473	25.5542	-9.99119	0	
1.5480	20.3469	-7.54052	0	
1.5487	14.5611	-4.80708	0	
1.5493	1.73576	-4.19441	0	
1.5500	-9.86811	-5.10556	0	
1.5507	-14.7539	-5.10556	0	
1.5513	-19.3184	-3.28327	0	
1.5520	-36.7081	-1.44527	0	
1.5527	-61.4266	-1.44527	0	
1.5533	-70.5875	0.0785471	0	
1.5540	-53.1978	3.44036	0	
1.5547	-26.9364	3.73884	0	
1.5553	-13.2111	0.392735	0	
1.5560	-7.42519	-1.44527	0	
1.5567	0.225006	-2.6706	0	
1.5573	8.77522	-6.33089	0	
1.5580	17.904	-8.15319	0	
1.5587	23.1113	-5.41975	0	
1.5593	18.2255	-3.58175	0	
1.5600	10.286	-4.19441	0	
1.5607	6.94303	-3.28327	0	
1.5613	-6.49302	-1.44527	0	
1.5620	-32.1437	-0.219932	0	
1.5627	-40.3725	-0.219932	0	
1.5633	-23.272	-1.14679	0	
1.5640	-11.0896	-0.832599	0	
1.5647	-17.1647	-0.53412	0	
1.5653	-29.3793	-2.6706	0	
1.5660	-36.4188	-4.19441	0	
1.5667	-32.1437	-3.28327	0	
1.5673	-24.8149	-2.35641	0	
1.5680	-22.9827	-1.14679	0	
1.5687	-17.4862	-0.53412	0	
1.5693	-10.7681	-2.96908	0	
1.5700	-13.2111	-5.10556	0	
1.5707	-5.593	-5.41975	0	
1.5713	24.6221	-4.19441	0	
1.5720	46.2869	-1.44527	0	
1.5727	39.2796	2.21503	0	
1.5733	27.065	3.44036	0	
1.5740	30.1186	4.6657	0	
1.5747	43.844	6.80218	0	
1.5753	45.6762	4.6657	0	
1.5760	20.3469	0.392735	0	
1.5767	-11.0896	0.989693	0	
1.5773	-20.5398	3.73884	0	
1.5780	-21.1505	3.73884	0	
1.5787	-35.1973	4.6657	0	
1.5793	-49.8227	8.0118	0	
1.5800	-45.5476	9.23713	0	
1.5807	-21.1505	7.10065	0	
1.5813	11.7967	7.39913	0	
1.5820	36.2259	10.7609	0	
1.5827	53.3264	14.7354	0	
1.5833	76.8234	15.9451	0	
1.5840	87.2058	11.3736	0	
1.5847	71.0054	2.82769	0	
1.5853	63.0659	0.392735	0	
1.5860	78.0449	3.12617	0	
1.5867	72.5483	2.52922	0	
1.5873	29.2186	1.30388	0	
1.5880	-11.3789	3.12617	0	
1.5887	-20.5398	3.12617	0	
1.5893	-14.4325	2.21503	0	
1.5900	-23.8828	4.05303	0	
1.5907	-44.0368	4.96417	0	
1.5913	-47.3798	2.82769	0	
1.5920	-46.4798	0.392735	0	
1.5927	-67.2446	-1.14679	0	
1.5933	-89.8094	-0.832599	0	
1.5940	-98.0382	0.691214	0	
1.5947	-103.856	1.30388	0	
1.5953	-91.6416	-0.832599	0	
1.5960	-55.6407	-1.44527	0	
1.5967	-40.0832	-0.53412	0	
1.5973	-49.5334	-0.832599	0	
1.5980	-47.9905	-1.44527	0	
1.5987	-43.4261	-2.05793	0	
1.5993	-50.4334	-6.94356	0	
1.6000	-51.9763	-10.6039	0	
1.6007	-48.6012	-7.85471	0	
1.6013	-48.9227	-5.71823	0	
1.6020	-35.1973	-5.10556	0	
1.6027	2.66793	-8.76585	0	
1.6033	46.8976	-21.5847	0	
1.6040	78.9449	-21.2863	0	
1.6047	106.717	-9.08004	0	
1.6053	150.047	-26.1562	0	
1.6060	186.69	-51.1813	0	
1.6067	174.154	-43.5622	0	
1.6073	134.811	-30.7433	0	
1.6080	112.535	-14.5626	0	
1.6087	89.3273	29.0781	0	
1.6093	46.2869	43.4208	0	
1.6100	14.5611	4.05303	0	
1.6107	-5.593	-14.5626	0	
1.6113	-40.0832	-2.35641	0	
1.6120	-73.6412	1.60236	0	
1.6127	-86.1451	2.82769	0	
1.6133	-93.7953	7.71332	0	
1.6140	-97.1382	25.1036	0	
1.6147	-76.9841	58.9731	0	
1.6153	-48.6012	53.789	0	
1.6160	-37.6402	1.30388	0	
1.6167	-33.9759	-15.4895	0	
1.6173	-23.8828	4.96417	0	
1.6180	-12.6003	5.26265	0	
1.6187	-2.21791	0.0785471	0	
1.6193	10.8967	6.80218	0	
1.6200	18.2255	3.73884	0	
1.6207	14.5611	0.392735	0	
1.6213	9.96454	7.10065	0	
1.6220	9.06452	6.80218	0	
1.6227	9.06452	4.6657	0	
1.6233	10.8967	8.62447	0	
1.6240	12.1182	8.93866	0	
1.6247	7.23233	6.80218	0	
1.6253	0.835736	7.10065	0	
1.6260	-0.996454	4.96417	0	
1.6267	-0.385724	1.30388	0	
1.6273	-2.21791	-0.53412	0	
1.6280	-7.10375	-2.35641	0	
1.6287	-10.1574	-5.10556	0	
1.6293	-11.9896	-4.80708	0	
1.6300	-18.3862	4.6657	0	
1.6307	-20.2184	20.5322	0	
1.6313	-14.1432	25.1036	0	
1.6320	-14.4325	15.3324	0	
1.6327	-22.9827	7.10065	0	
1.6333	-23.5935	5.87532	0	
1.6340	-18.7076	3.12617	0	
1.6347	-15.9754	1.30388	0	
1.6353	-8.93594	2.21503	0	
1.6360	-2.21791	0.691214	0	
1.6367	-3.76081	-2.05793	0	
1.6373	-2.21791	0.392735	0	
1.6380	9.06452	1.91655	0	
1.6387	24.6221	-2.96908	0	
1.6393	37.7367	-7.54052	0	
1.6400	43.5547	-6.33089	0	
1.6407	41.7225	-1.44527	0	
1.6413	40.501	3.44036	0	
1.6420	37.1259	4.96417	0	
1.6427	28.2864	3.44036	0	
1.6433	23.722	0.392735	0	
1.6440	19.7362	-1.44527	0	
1.6447	5.72157	-1.44527	0	
1.6453	-6.49302	-1.44527	0	
1.6460	-10.4788	-2.6706	0	
1.6467	-17.7755	-3.28327	0	
1.6473	-20.5398	-3.88023	0	
1.6480	-7.71448	-5.10556	0	
1.6487	0.835736	-5.71823	0	
1.6493	-7.42519	-4.19441	0	
1.6500	-15.654	-2.35641	0	
1.6507	-16.554	-2.35641	0	
1.6513	-16.8754	-4.19441	0	
1.6520	-12.9218	-5.71823	0	
1.6527	-6.81446	-5.10556	0	
1.6533	-8.32521	-5.10556	0	
1.6540	-9.86811	-6.94356	0	
1.6547	-7.10375	-6.33089	0	
1.6553	-8.64665	-4.19441	0	
1.6560	-8.03592	-2.96908	0	
1.6567	1.12503	-2.05793	0	
1.6573	3.27866	-2.96908	0	
1.6580	0.225006	-5.10556	0	
1.6587	8.45379	-5.10556	0	
1.6593	14.5611	-4.19441	0	
1.6600	-0.385724	-5.10556	0	
1.6607	-11.0896	-6.33089	0	
1.6613	5.40014	-6.94356	0	
1.6620	23.722	-8.76585	0	
1.6627	23.722	-9.37852	0	
1.6633	25.8435	-6.62937	0	
1.6640	36.5152	-4.19441	0	
1.6647	33.1723	-3.28327	0	
1.6653	20.9577	-4.19441	0	
1.6660	20.0577	-5.10556	0	
1.6667	18.5148	-4.19441	0	
1.6673	9.06452	-3.28327	0	
1.6680	3.56795	-2.96908	0	
1.6687	0.835736	-3.28327	0	
1.6693	-4.66083	-3.28327	0	
1.6700	-7.71448	-4.19441	0	
1.6707	-13.8218	-3.28327	0	
1.6713	-22.6613	-0.53412	0	
1.6720	-22.0506	2.82769	0	
1.6727	-17.1647	1.60236	0	
1.6733	-17.7755	-2.35641	0	
1.6740	-17.4862	-4.19441	0	
1.6747	-14.7539	-3.28327	0	
1.6753	-14.1432	-2.96908	0	
1.6760	-13.8218	-2.35641	0	
1.6767	-13.8218	-2.05793	0	
1.6773	-15.9754	-2.35641	0	
1.6780	-17.1647	-1.74374	0	
1.6787	-14.1432	0.392735	0	
1.6793	-8.93594	-0.219932	0	
1.6800	-0.996454	-4.49289	0	
1.6807	10.5753	-7.85471	0	
1.6813	24.0113	-8.46737	0	
1.6820	34.7152	-8.76585	0	
1.6827	43.2332	-8.76585	0	
1.6833	51.1727	-6.01671	0	
1.6840	50.2727	-4.19441	0	
1.6847	37.4474	-2.6706	0	
1.6853	26.7757	-0.832599	0	
1.6860	27.3864	-0.832599	0	
1.6867	16.6826	-2.35641	0	
1.6873	-22.372	-2.05793	0	
1.6880	-62.9695	-1.74374	0	
1.6887	-67.8553	-3.88023	0	
1.6893	-46.7691	-4.80708	0	
1.6900	-23.8828	-3.28327	0	
1.6907	-1.92862	-1.44527	0	
1.6913	13.9504	-1.44527	0	
1.6920	20.3469	-1.44527	0	
1.6927	29.5079	0.392735	0	
1.6933	39.2796	1.30388	0	
1.6940	36.8367	1.30388	0	
1.6947	32.2723	4.05303	0	
1.6953	34.7152	6.18951	0	
1.6960	34.7152	4.05303	0	
1.6967	22.5006	2.82769	0	
1.6973	1.12503	4.96417	0	
1.6980	-17.4862	5.87532	0	
1.6987	-24.8149	4.35151	0	
1.6993	-28.7686	3.12617	0	
1.7000	-39.4724	3.12617	0	
1.7007	-43.7154	4.05303	0	
1.7013	-30.6008	4.6657	0	
1.7020	-6.81446	3.73884	0	
1.7027	8.77522	1.91655	0	
1.7033	8.45379	2.82769	0	
1.7040	10.8967	4.35151	0	
1.7047	26.4542	2.21503	0	
1.7053	34.7152	0.0785471	0	
1.7060	29.5079	2.21503	0	
1.7067	23.722	3.12617	0	
1.7073	16.3933	0.392735	0	
1.7080	4.78941	-1.44527	0	
1.7087	-5.88229	0.392735	0	
1.7093	-16.554	1.60236	0	
1.7100	-21.7613	4.35151	0	
1.7107	-18.0969	6.18951	0	
1.7113	-21.1505	3.44036	0	
1.7120	-31.8222	0.691214	0	
1.7127	-38.5403	1.30388	0	
1.7133	-47.3798	1.30388	0	
1.7140	-58.9837	2.21503	0	
1.7147	-56.5407	5.57684	0	
1.7153	-38.8617	5.57684	0	
1.7160	-20.8291	2.21503	0	
1.7167	-12.9218	0.691214	0	
1.7173	-16.8754	1.30388	0	
1.7180	-21.7613	2.52922	0	
1.7187	-20.5398	5.57684	0	
1.7193	-15.654	8.62447	0	
1.7200	-2.53935	9.53561	0	
1.7207	14.5611	9.53561	0	
1.7213	20.9577	7.10065	0	
1.7220	18.5148	4.05303	0	
1.7227	15.4611	2.21503	0	
1.7233	13.6289	-0.219932	0	
1.7240	21.8898	-2.35641	0	
1.7247	24.9435	-0.832599	0	
1.7253	4.17868	-0.53412	0	
1.7260	-9.86811	-5.10556	0	
1.7267	2.66793	-6.33089	0	
1.7273	0.835736	-0.219932	0	
1.7280	-25.7149	4.35151	0	
1.7287	-36.0974	4.05303	0	
1.7293	-29.09	4.35151	0	
1.7300	-31.2115	4.96417	0	
1.7307	-38.5403	4.05303	0	
1.7313	-37.3188	4.96417	0	
1.7320	-31.2115	7.71332	0	
1.7327	-22.9827	10.1483	0	
1.7333	-8.64665	9.23713	0	
1.7340	7.23233	5.87532	0	
1.7347	21.8898	4.96417	0	
1.7353	41.7225	6.48799	0	
1.7360	57.8908	3.44036	0	
1.7367	52.3942	-0.219932	0	
1.7373	41.7225	1.60236	0	
1.7380	47.5084	0.392735	0	
1.7387	48.4405	-7.54052	0	
1.7393	32.883	-9.677	0	
1.7400	23.1113	-4.49289	0	
1.7407	8.16449	-2.6706	0	
1.7413	-17.4862	1.30388	0	
1.7420	-14.7539	15.9451	0	
1.7427	18.2255	30.9004	0	
1.7433	37.7367	30.9004	0	
1.7440	38.9581	17.7831	0	
1.7447	28.8972	2.21503	0	
1.7453	-1.60718	-8.46737	0	
1.7460	-36.7081	-12.1277	0	
1.7467	-62.0373	-8.76585	0	
1.7473	-86.1451	-2.6706	0	
1.7480	-87.688	1.30388	0	
1.7487	-53.1978	2.21503	0	
1.7493	-17.7755	1.30388	0	
1.7500	-0.996454	-1.44527	0	
1.7507	4.78941	-1.14679	0	
1.7513	-2.82864	3.44036	0	
1.7520	-8.64665	5.57684	0	
1.7527	6.94303	3.44036	0	
1.7533	20.0577	2.52922	0	
1.7540	17.2933	1.30388	0	
1.7547	24.6221	-2.35641	0	
1.7553	36.2259	-4.49289	0	
1.7560	20.9577	-3.28327	0	
1.7567	-6.81446	-0.832599	0	
1.7573	-8.32521	-0.219932	0	
1.7580	8.77522	4.96417	0	
1.7587	7.23233	18.6942	0	
1.7593	-11.9896	24.1925	0	
1.7600	-23.272	8.0118	0	
1.7607	-34.5866	-8.76585	0	
1.7613	-52.5871	-3.58175	0	
1.7620	-44.9369	10.7609	0	
1.7627	-7.42519	7.71332	0	
1.7633	17.2933	-12.7403	0	
1.7640	22.7899	-21.5847	0	
1.7647	32.2723	-8.15319	0	
1.7653	46.6083	2.52922	0	
1.7660	64.6088	3.12617	0	
1.7667	85.9843	11.3736	0	
1.7673	83.8307	15.3324	0	
1.7680	41.4011	-0.832599	0	
1.7687	-10.1574	-10.6039	0	
1.7693	-36.7081	-2.35641	0	
1.7700	-38.251	2.21503	0	
1.7707	-31.2115	-0.219932	0	
1.7713	-27.5471	0.392735	0	
1.7720	-23.5935	-1.74374	0	
1.7727	-12.6003	-5.41975	0	
1.7733	-7.42519	-3.88023	0	
1.7740	-14.1432	-0.53412	0	
1.7747	-15.0432	-0.832599	0	
1.7753	-8.64665	-2.05793	0	
1.7760	-11.9896	-1.74374	0	
1.7767	-22.372	-2.05793	0	
1.7773	-22.0506	-4.19441	0	
1.7780	-8.64665	-5.41975	0	
1.7787	10.286	-4.19441	0	
1.7793	24.9435	-5.10556	0	
1.7800	24.3328	-6.62937	0	
1.7807	13.6289	-4.49289	0	
1.7813	7.23233	-4.19441	0	
1.7820	9.67525	-7.85471	0	
1.7827	18.5148	-7.24204	0	
1.7833	24.6221	-3.58175	0	
1.7840	21.2791	-3.58175	0	
1.7847	9.67525	-3.58175	0	
1.7853	-10.7681	1.30388	0	
1.7860	-30.6008	4.35151	0	
1.7867	-30.9222	2.21503	0	
1.7873	-18.3862	-0.53412	0	
1.7880	-17.7755	0.392735	0	
1.7887	-24.4935	2.21503	0	
1.7893	-24.8149	0.989693	0	
1.7900	-24.4935	-1.74374	0	
1.7907	-27.5471	-4.19441	0	
1.7913	-27.8686	-4.19441	0	
1.7920	-24.2042	-0.832599	0	
1.7927	-19.6076	2.82769	0	
1.7933	-21.7613	1.60236	0	
1.7940	-29.09	-0.219932	0	
1.7947	-27.8686	0.691214	0	
1.7953	-18.7076	-0.219932	0	
1.7960	-11.7003	-3.58175	0	
1.7967	-4.98227	-4.19441	0	
1.7973	3.56795	-4.49289	0	
1.7980	15.7825	-7.85471	0	
1.7987	33.783	-8.46737	0	
1.7993	40.1796	-7.24204	0	
1.8000	23.722	-9.08004	0	
1.8007	8.16449	-8.46737	0	
1.8013	6.94303	-4.19441	0	
1.8020	5.40014	-5.10556	0	
1.8027	-0.996454	-10.6039	0	
1.8033	-4.37154	-10.2897	0	
1.8040	-3.76081	-8.76585	0	
1.8047	-0.096431	-12.4261	0	
1.8053	3.27866	-15.1753	0	
1.8060	7.23233	-11.515	0	
1.8067	17.004	-7.85471	0	
1.8073	19.4469	-10.6039	0	
1.8080	2.66793	-16.6991	0	
1.8087	-11.7003	-17.3118	0	
1.8093	-6.49302	-13.6515	0	
1.8100	-1.60718	-12.4261	0	
1.8107	-10.1574	-12.4261	0	
1.8113	-20.2184	-10.6039	0	
1.8120	-20.2184	-9.37852	0	
1.8127	-15.3647	-10.6039	0	
1.8133	-16.554	-9.677	0	
1.8140	-21.7613	-6.33089	0	
1.8147	-14.4325	-5.41975	0	
1.8153	2.66793	-7.24204	0	
1.8160	15.7825	-9.37852	0	
1.8167	26.4542	-9.677	0	
1.8173	39.2796	-9.99119	0	
1.8180	43.844	-11.8135	0	
1.8187	40.501	-12.4261	0	
1.8193	43.844	-11.515	0	
1.8200	52.1049	-12.4261	0	
1.8207	51.4942	-11.8135	0	
1.8213	37.1259	-1.14679	0	
1.8220	17.6147	11.0751	0	
1.8227	0.835736	9.23713	0	
1.8233	-10.4788	-0.219932	0	
1.8240	-9.54667	-3.88023	0	
1.8247	6.94303	-2.35641	0	
1.8253	27.3864	-2.6706	0	
1.8260	30.1186	-3.58175	0	
1.8267	13.0182	-1.44527	0	
1.8273	-4.66083	1.30388	0	
1.8280	-11.9896	0.691214	0	
1.8287	-17.7755	1.30388	0	
1.8293	-27.5471	4.05303	0	
1.8300	-33.0437	2.21503	0	
1.8307	-34.8759	-0.832599	0	
1.8313	-42.8154	3.12617	0	
1.8320	-50.4334	8.62447	0	
1.8327	-47.3798	5.87532	0	
1.8333	-43.7154	0.392735	0	
1.8340	-47.7012	-2.35641	0	
1.8347	-46.4798	-1.44527	0	
1.8353	-29.7008	0.392735	0	
1.8360	-4.66083	-1.44527	0	
1.8367	15.7825	-5.71823	0	
1.8373	20.3469	-6.94356	0	
1.8380	9.67525	-6.01671	0	
1.8387	6.01087	-6.01671	0	
1.8393	14.5611	-5.10556	0	
1.8400	15.4611	-4.19441	0	
1.8407	8.16449	-5.10556	0	
1.8413	4.50011	-4.19441	0	
1.8420	1.73576	-3.88023	0	
1.8427	0.835736	-5.41975	0	
1.8433	3.56795	-4.19441	0	
1.8440	1.73576	-2.35641	0	
1.8447	-0.996454	-5.71823	0	
1.8453	3.56795	-7.85471	0	
1.8460	8.45379	-3.28327	0	
1.8467	9.06452	1.30388	0	
1.8473	14.5611	-0.53412	0	
1.8480	19.7362	-1.44527	0	
1.8487	14.5611	2.82769	0	
1.8493	2.34649	6.18951	0	
1.8500	-11.0896	4.96417	0	
1.8507	-18.3862	3.12617	0	
1.8513	-18.0969	4.96417	0	
1.8520	-18.3862	6.80218	0	
1.8527	-19.3184	5.26265	0	
1.8533	-17.1647	4.05303	0	
1.8540	-17.7755	5.87532	0	
1.8547	-16.8754	6.80218	0	
1.8553	-7.42519	5.26265	0	
1.8560	-1.60718	5.87532	0	
1.8567	0.835736	7.39913	0	
1.8573	12.7289	7.10065	0	
1.8580	24.6221	8.62447	0	
1.8587	28.2864	10.4625	0	
1.8593	35.6152	8.0118	0	
1.8600	42.944	4.05303	0	
1.8607	39.2796	4.05303	0	
1.8613	36.5152	5.87532	0	
1.8620	33.1723	6.48799	0	
1.8627	11.5074	7.39913	0	
1.8633	-16.2647	8.32599	0	
1.8640	-28.4793	6.48799	0	
1.8647	-33.9759	4.6657	0	
1.8653	-41.3046	4.96417	0	
1.8660	-36.7081	5.26265	0	
1.8667	-22.0506	5.87532	0	
1.8673	-13.2111	6.80218	0	
1.8680	-4.98227	6.80218	0	
1.8687	15.4611	9.53561	0	
1.8693	35.6152	15.3324	0	
1.8700	39.8903	16.8719	0	
1.8707	36.5152	12.5989	0	
1.8713	34.3937	9.53561	0	
1.8720	24.9435	8.32599	0	
1.8727	15.4611	6.48799	0	
1.8733	20.0577	5.87532	0	
1.8740	15.4611	7.71332	0	
1.8747	-13.2111	10.1483	0	
1.8753	-22.9827	10.7609	0	
1.8760	0.835736	7.71332	0	
1.8767	-1.92862	3.44036	0	
1.8773	-47.0905	3.12617	0	
1.8780	-76.6948	6.48799	0	
1.8787	-70.5875	8.62447	0	
1.8793	-52.2656	7.71332	0	
1.8800	-29.9901	4.96417	0	
1.8807	-10.1574	4.05303	0	
1.8813	-3.76081	4.6657	0	
1.8820	1.12503	4.05303	0	
1.8827	9.38595	2.21503	0	
1.8833	10.5753	0.392735	0	
1.8840	13.6289	-1.14679	0	
1.8847	24.0113	-1.74374	0	
1.8853	25.2328	-0.832599	0	
1.8860	15.4611	-3.28327	0	
1.8867	8.45379	-7.85471	0	
1.8873	6.3323	-7.24204	0	
1.8880	9.06452	-3.88023	0	
1.8887	12.1182	-2.96908	0	
1.8893	5.40014	-2.6706	0	
1.8900	-1.92862	-4.19441	0	
1.8907	0.514299	-7.24204	0	
1.8913	-0.996454	-6.33089	0	
1.8920	-9.25738	-2.35641	0	
1.8927	-8.03592	0.0785471	0	
1.8933	-2.53935	-1.14679	0	
1.8940	-5.593	-4.80708	0	
1.8947	-10.1574	-4.80708	0	
1.8953	-4.98227	-3.58175	0	
1.8960	4.78941	-9.677	0	
1.8967	10.8967	-7.54052	0	
1.8973	9.06452	8.62447	0	
1.8980	1.12503	8.0118	0	
1.8987	-2.53935	-12.7403	0	
1.8993	6.01087	-20.6736	0	
1.9000	18.8362	-12.7403	0	
1.9007	24.6221	-2.05793	0	
1.9013	31.0508	10.1483	0	
1.9020	37.1259	8.62447	0	
1.9027	33.1723	-3.28327	0	
1.9033	27.3864	-0.832599	0	
1.9040	28.2864	6.80218	0	
1.9047	24.9435	4.96417	0	
1.9053	17.904	4.96417	0	
1.9060	17.2933	7.10065	0	
1.9067	14.5611	5.26265	0	
1.9073	3.56795	6.48799	0	
1.9080	-1.92862	6.18951	0	
1.9087	-0.996454	1.30388	0	
1.9093	-8.03592	0.392735	0	
1.9100	-18.3862	1.91655	0	
1.9107	-21.4398	2.21503	0	
1.9113	-20.2184	4.96417	0	
1.9120	-18.0969	5.57684	0	
1.9127	-16.554	1.60236	0	
1.9133	-19.6076	3.12617	0	
1.9140	-22.372	7.71332	0	
1.9147	-19.3184	6.80218	0	
1.9153	-14.4325	2.52922	0	
1.9160	-9.54667	-2.35641	0	
1.9167	-6.49302	-4.49289	0	
1.9173	-8.64665	-2.96908	0	
1.9180	-7.42519	-2.05793	0	
1.9187	0.225006	-4.80708	0	
1.9193	4.50011	-6.62937	0	
1.9200	5.11084	-6.33089	0	
1.9207	7.23233	-7.24204	0	
1.9213	7.55376	-9.677	0	
1.9220	9.06452	-5.10556	0	
1.9227	14.5611	8.0118	0	
1.9233	14.5611	16.8719	0	
1.9240	9.96454	11.3736	0	
1.9247	9.96454	3.12617	0	
1.9253	12.7289	-0.53412	0	
1.9260	18.2255	-5.10556	0	
1.9267	26.7757	-7.54052	0	
1.9273	24.3328	-7.85471	0	
1.9280	2.34649	-12.4261	0	
1.9287	-22.9827	-15.1753	0	
1.9293	-33.9759	-8.76585	0	
1.9300	-29.09	-3.28327	0	
1.9307	-14.7539	-1.44527	0	
1.9313	5.40014	3.12617	0	
1.9320	24.6221	4.05303	0	
1.9327	28.2864	-0.53412	0	
1.9333	21.2791	-1.44527	0	
1.9340	19.4469	1.30388	0	
1.9347	18.8362	0.392735	0	
1.9353	7.55376	-0.53412	0	
1.9360	-6.20373	-0.219932	0	
1.9367	-13.5325	-2.35641	0	
1.9373	-18.3862	-5.71823	0	
1.9380	-24.2042	-4.19441	0	
1.9387	-27.5471	-2.05793	0	
1.9393	-23.8828	-3.88023	0	
1.9400	-16.554	-6.01671	0	
1.9407	-8.32521	-4.80708	0	
1.9413	0.835736	-5.10556	0	
1.9420	9.67525	-9.08004	0	
1.9427	17.2933	-8.76585	0	
1.9433	21.8898	-4.49289	0	
1.9440	17.2933	-3.58175	0	
1.9447	4.50011	-4.49289	0	
1.9453	-3.76081	-5.41975	0	
1.9460	-7.42519	-5.41975	0	
1.9467	-13.5325	-2.96908	0	
1.9473	-17.4862	-0.53412	0	
1.9480	-17.7755	-2.35641	0	
1.9487	-18.3862	-4.80708	0	
1.9493	-20.8291	-3.88023	0	
1.9500	-23.272	-1.14679	0	
1.9507	-23.5935	0.691214	0	
1.9513	-19.3184	0.691214	0	
1.9520	-15.9754	0.0785471	0	
1.9527	-16.554	0.0785471	0	
1.9533	-14.7539	-0.219932	0	
1.9540	-6.49302	-1.14679	0	
1.9547	1.73576	-0.219932	0	
1.9553	1.73576	1.30388	0	
1.9560	-3.76081	1.60236	0	
1.9567	-0.707161	0.392735	0	
1.9573	11.7967	-2.35641	0	
1.9580	16.3933	-4.19441	0	
1.9587	12.4075	-3.28327	0	
1.9593	15.4611	-2.05793	0	
1.9600	23.1113	-4.19441	0	
1.9607	20.9577	-4.80708	0	
1.9613	14.5611	-2.96908	0	
1.9620	17.004	-3.88023	0	
1.9627	25.8435	-8.15319	0	
1.9633	28.6079	-10.2897	0	
1.9640	17.004	-7.54052	0	
1.9647	-8.03592	-3.28327	0	
1.9653	-32.1437	-1.44527	0	
1.9660	-38.5403	-1.14679	0	
1.9667	-28.4793	-1.44527	0	
1.9673	-17.1647	-1.44527	0	
1.9680	-12.9218	0.392735	0	
1.9687	-16.554	1.30388	0	
1.9693	-23.272	-1.44527	0	
1.9700	-24.8149	-2.35641	0	
1.9707	-21.1505	0.392735	0	
1.9713	-20.2184	0.392735	0	
1.9720	-22.372	-0.53412	0	
1.9727	-22.0506	1.91655	0	
1.9733	-19.3184	2.21503	0	
1.9740	-16.554	-0.219932	0	
1.9747	-12.6003	1.30388	0	
1.9753	-7.42519	1.60236	0	
1.9760	-0.096431	-0.53412	0	
1.9767	6.94303	0.392735	0	
1.9773	9.38595	2.21503	0	
1.9780	15.4611	0.0785471	0	
1.9787	29.5079	-2.35641	0	
1.9793	29.5079	-0.53412	0	
1.9800	12.1182	2.52922	0	
1.9807	6.01087	4.05303	0	
1.9813	14.2396	-0.219932	0	
1.9820	19.1255	-6.01671	0	
1.9827	22.5006	-5.10556	0	
1.9833	22.7899	-0.53412	0	
1.9840	10.5753	0.392735	0	
1.9847	0.514299	2.21503	0	
1.9853	4.17868	4.35151	0	
1.9860	7.55376	3.12617	0	
1.9867	6.01087	2.52922	0	
1.9873	6.3323	4.05303	0	
1.9880	6.3323	2.82769	0	
1.9887	2.66793	2.21503	0	
1.9893	-5.593	5.57684	0	
1.9900	-14.7539	5.87532	0	
1.9907	-12.9218	3.44036	0	
1.9913	-3.43937	2.21503	0	
1.9920	-0.707161	0.989693	0	
1.9927	-4.0501	2.21503	0	
1.9933	-6.49302	7.71332	0	
1.9940	-5.88229	9.53561	0	
1.9947	-2.21791	8.32599	0	
1.9953	1.44647	9.23713	0	
1.9960	5.11084	7.10065	0	
1.9967	6.01087	1.60236	0	
1.9973	-3.15008	1.60236	0	
1.9980	-15.0432	4.35151	0	
1.9987	-15.0432	4.05303	0	
1.9993	-12.9218	4.05303	0	
2.0000	-11.9896	3.73884	0	
2.0007	2.66793	0.691214	0	
2.0013	24.0113	0.0785471	0	
2.0020	39.2796	1.60236	0	
2.0027	52.1049	0.691214	0	
2.0033	53.0049	-0.832599	0	
2.0040	34.3937	-1.14679	0	
2.0047	16.0718	-2.05793	0	
2.0053	10.8967	-3.28327	0	
2.0060	8.77522	-3.28327	0	
2.0067	-2.53935	-3.58175	0	
2.0073	-24.2042	-1.44527	0	
2.0080	-41.9154	2.21503	0	
2.0087	-47.9905	2.21503	0	
2.0093	-51.6549	1.30388	0	
2.0100	-53.1978	4.96417	0	
2.0107	-50.4334	8.32599	0	
2.0113	-51.6549	4.6657	0	
2.0120	-47.0905	0.989693	0	
2.0127	-27.8686	1.91655	0	
2.0133	-15.9754	1.30388	0	
2.0140	-18.3862	-1.44527	0	
2.0147	-16.554	-1.44527	0	
2.0153	-10.1574	-0.53412	0	
2.0160	-2.82864	-2.6706	0	
2.0167	10.286	-3.58175	0	
2.0173	21.8898	-1.14679	0	
2.0180	26.7757	-0.53412	0	
2.0187	34.7152	-2.6706	0	
2.0193	44.7761	-6.01671	0	
2.0200	45.3869	-9.08004	0	
2.0207	36.5152	-8.15319	0	
2.0213	27.6757	-2.35641	0	
2.0220	23.722	2.52922	0	
2.0227	20.9577	1.60236	0	
2.0233	16.3933	-0.219932	0	
2.0240	14.5611	0.392735	0	
2.0247	16.3933	0.691214	0	
2.0253	14.5611	-0.53412	0	
2.0260	9.38595	-2.35641	0	
2.0267	6.3323	-4.49289	0	
2.0273	3.56795	-4.49289	0	
2.0280	-0.385724	-2.96908	0	
2.0287	-7.10375	-3.28327	0	
2.0293	-14.7539	-4.80708	0	
2.0300	-16.554	-4.80708	0	
2.0307	-11.0896	-3.88023	0	
2.0313	-11.9896	-2.6706	0	
2.0320	-20.2184	-1.14679	0	
2.0327	-22.0506	-1.14679	0	
2.0333	-17.1647	-3.88023	0	
2.0340	-14.4325	-5.10556	0	
2.0347	-11.9896	-3.28327	0	
2.0353	-8.32521	-2.05793	0	
2.0360	-5.593	-2.6706	0	
2.0367	-0.996454	-1.44527	0	
2.0373	3.56795	-0.219932	0	
2.0380	7.23233	-0.53412	0	
2.0387	13.3396	0.392735	0	
2.0393	19.1255	2.21503	0	
2.0400	21.8898	2.52922	0	
2.0407	25.2328	2.21503	0	
2.0413	27.065	2.21503	0	
2.0420	23.722	2.21503	0	
2.0427	18.8362	4.05303	0	
2.0433	9.06452	6.18951	0	
2.0440	-4.37154	6.80218	0	
2.0447	-5.88229	5.87532	0	
2.0453	2.95722	4.96417	0	
2.0460	4.17868	3.44036	0	
2.0467	-0.707161	3.73884	0	
2.0473	-2.21791	4.6657	0	
2.0480	-5.88229	3.12617	0	
2.0487	-11.3789	2.21503	0	
2.0493	-12.311	4.6657	0	
2.0500	-15.654	5.87532	0	
2.0507	-25.1042	4.05303	0	
2.0513	-29.3793	3.73884	0	
2.0520	-27.2578	2.21503	0	
2.0527	-26.0364	-2.35641	0	
2.0533	-24.8149	-2.05793	0	
2.0540	-24.2042	1.30388	0	
2.0547	-23.8828	0.989693	0	
2.0553	-15.654	0.392735	0	
2.0560	-4.98227	0.691214	0	
2.0567	-4.0501	-2.05793	0	
2.0573	-1.31789	-5.10556	0	
2.0580	11.5074	-4.80708	0	
2.0587	19.1255	-4.19441	0	
2.0593	16.3933	-5.10556	0	
2.0600	11.7967	-5.71823	0	
2.0607	9.67525	-4.19441	0	
2.0613	13.6289	-2.96908	0	
2.0620	20.9577	-3.58175	0	
2.0627	22.7899	-4.19441	0	
2.0633	22.1791	-4.19441	0	
2.0640	22.7899	-5.10556	0	
2.0647	17.004	-4.80708	0	
2.0653	9.96454	-4.49289	0	
2.0660	9.96454	-6.01671	0	
2.0667	9.96454	-4.49289	0	
2.0673	6.3323	0.392735	0	
2.0680	2.0572	3.12617	0	
2.0687	-1.31789	2.52922	0	
2.0693	-3.15008	0.392735	0	
2.0700	-4.66083	-1.44527	0	
2.0707	-7.71448	-1.44527	0	
2.0713	-6.81446	-2.35641	0	
2.0720	-6.49302	-2.96908	0	
2.0727	-11.3789	-0.832599	0	
2.0733	-11.3789	0.989693	0	
2.0740	-8.32521	0.392735	0	
2.0747	-18.3862	-0.53412	0	
2.0753	-30.3115	-0.53412	0	
2.0760	-27.5471	1.60236	0	
2.0767	-18.9969	4.05303	0	
2.0773	-14.7539	2.21503	0	
2.0780	-9.54667	0.691214	0	
2.0787	-0.996454	4.6657	0	
2.0793	7.23233	5.26265	0	
2.0800	13.6289	1.30388	0	
2.0807	15.4611	1.30388	0	
2.0813	17.2933	2.21503	0	
2.0820	22.5006	0.989693	0	
2.0827	23.1113	0.392735	0	
2.0833	15.4611	1.30388	0	
2.0840	9.67525	3.12617	0	
2.0847	7.55376	5.26265	0	
2.0853	0.225006	5.87532	0	
2.0860	-10.1574	5.57684	0	
2.0867	-12.6003	5.26265	0	
2.0873	-10.1574	2.82769	0	
2.0880	-11.3789	2.82769	0	
2.0887	-13.8218	7.10065	0	
2.0893	-14.7539	8.0118	0	
2.0900	-16.8754	5.26265	0	
2.0907	-22.9827	4.96417	0	
2.0913	-23.8828	4.96417	0	
2.0920	-13.5325	1.91655	0	
2.0927	-3.76081	0.989693	0	
2.0933	-9.25738	4.05303	0	
2.0940	-19.9291	4.96417	0	
2.0947	-17.4862	2.82769	0	
2.0953	-5.27156	1.30388	0	
2.0960	5.40014	1.91655	0	
2.0967	15.4611	1.60236	0	
2.0973	30.7294	-0.53412	0	
2.0980	45.6762	-1.44527	0	
2.0987	48.7298	-2.05793	0	
2.0993	42.3332	-4.19441	0	
2.1000	34.1044	-5.41975	0	
2.1007	25.5542	-4.80708	0	
2.1013	26.165	-5.10556	0	
2.1020	37.1259	-6.62937	0	
2.1027	29.2186	-5.10556	0	
2.1033	-0.707161	-3.28327	0	
2.1040	-13.8218	-4.49289	0	
2.1047	-0.996454	-4.19441	0	
2.1053	11.186	-0.53412	0	
2.1060	13.3396	-1.44527	0	
2.1067	9.96454	-3.28327	0	
2.1073	1.73576	-1.74374	0	
2.1080	-6.81446	-2.6706	0	
2.1087	-13.2111	-2.96908	0	
2.1093	-18.7076	1.30388	0	
2.1100	-21.1505	0.691214	0	
2.1107	-21.4398	-2.6706	0	
2.1113	-25.1042	-1.14679	0	
2.1120	-28.7686	-0.219932	0	
2.1127	-26.6471	-3.88023	0	
2.1133	-19.9291	-3.58175	0	
2.1140	-13.8218	0.0785471	0	
2.1147	-10.4788	0.392735	0	
2.1153	-8.32521	-0.53412	0	
2.1160	-6.49302	0.392735	0	
2.1167	-6.49302	-1.14679	0	
2.1173	-6.49302	-3.58175	0	
2.1180	-6.49302	-4.19441	0	
2.1187	-5.593	-2.35641	0	
2.1193	-0.996454	-0.53412	0	
2.1200	6.01087	0.392735	0	
2.1207	9.06452	-0.219932	0	
2.1213	9.96454	0.691214	0	
2.1220	12.1182	3.12617	0	
2.1227	11.7967	3.44036	0	
2.1233	11.7967	2.21503	0	
2.1240	16.3933	1.91655	0	
2.1247	20.0577	1.30388	0	
2.1253	20.9577	0.989693	0	
2.1260	20.9577	1.91655	0	
2.1267	15.4611	2.52922	0	
2.1273	6.94303	2.21503	0	
2.1280	2.66793	1.30388	0	
2.1287	-2.21791	-2.05793	0	
2.1293	-12.9218	-5.10556	0	
2.1300	-21.7613	-2.96908	0	
2.1307	-24.4935	-1.44527	0	
2.1313	-24.8149	-3.88023	0	
2.1320	-22.6613	-2.6706	0	
2.1327	-15.654	-1.14679	0	
2.1333	-5.88229	-6.01671	0	
2.1340	-4.0501	-8.15319	0	
2.1347	-6.49302	-4.80708	0	
2.1353	0.835736	-5.10556	0	
2.1360	7.55376	-6.62937	0	
2.1367	-6.49302	-3.28327	0	
2.1373	-24.8149	1.30388	0	
2.1380	-23.8828	4.35151	0	
2.1387	-14.4325	3.12617	0	
2.1393	-8.32521	-3.28327	0	
2.1400	-6.81446	-5.41975	0	
2.1407	-11.9896	-2.35641	0	
2.1413	-12.9218	-2.35641	0	
2.1420	2.66793	-4.49289	0	
2.1427	21.2791	-4.19441	0	
2.1433	24.6221	-5.41975	0	
2.1440	21.8898	-7.85471	0	
2.1447	28.2864	-6.01671	0	
2.1453	36.5152	-2.35641	0	
2.1460	36.5152	-0.53412	0	
2.1467	31.0508	-0.53412	0	
2.1473	26.7757	-1.44527	0	
2.1480	23.1113	-2.05793	0	
2.1487	16.3933	-2.35641	0	
2.1493	6.94303	-2.6706	0	
2.1500	-4.66083	-2.35641	0	
2.1507	-20.2184	-0.832599	0	
2.1513	-33.6544	-0.53412	0	
2.1520	-38.8617	-1.74374	0	
2.1527	-49.5334	-1.74374	0	
2.1533	-72.4197	-0.219932	0	
2.1540	-78.8163	-0.53412	0	
2.1547	-56.8622	-2.05793	0	
2.1553	-34.8759	-1.74374	0	
2.1560	-20.8291	-1.14679	0	
2.1567	-0.996454	-1.44527	0	
2.1573	13.6289	0.392735	0	
2.1580	14.5611	4.05303	0	
2.1587	21.5684	3.73884	0	
2.1593	34.1044	-0.219932	0	
2.1600	34.7152	0.392735	0	
2.1607	29.8293	1.30388	0	
2.1613	30.7294	-3.28327	0	
2.1620	32.5615	-7.24204	0	
2.1627	31.3401	-6.01671	0	
2.1633	28.8972	-5.10556	0	
2.1640	25.5542	-7.24204	0	
2.1647	20.6684	-8.15319	0	
2.1653	7.23233	-6.33089	0	
2.1660	-15.654	-4.19441	0	
2.1667	-34.8759	-3.28327	0	
2.1673	-33.6544	-3.28327	0	
2.1680	-17.4862	-0.832599	0	
2.1687	-8.32521	0.691214	0	
2.1693	-13.8218	-1.74374	0	
2.1700	-19.3184	-3.28327	0	
2.1707	-14.7539	-2.6706	0	
2.1713	-7.42519	-5.41975	0	
2.1720	-5.88229	-9.677	0	
2.1727	-7.10375	-10.6039	0	
2.1733	-6.20373	-9.37852	0	
2.1740	-4.0501	-9.08004	0	
2.1747	-4.66083	-8.76585	0	
2.1753	-5.88229	1.60236	0	
2.1760	-1.92862	22.6687	0	
2.1767	-0.996454	33.3511	0	
2.1773	-12.6003	23.5798	0	
2.1780	-25.1042	10.4625	0	
2.1787	-25.1042	6.18951	0	
2.1793	-24.8149	4.96417	0	
2.1800	-38.5403	2.21503	0	
2.1807	-53.8085	-2.05793	0	
2.1813	-44.0368	-5.71823	0	
2.1820	-13.8218	-6.94356	0	
2.1827	9.06452	-5.41975	0	
2.1833	23.4006	-3.58175	0	
2.1840	42.0118	-1.14679	0	
2.1847	49.662	0.691214	0	
2.1853	36.2259	0.392735	0	
2.1860	24.6221	-0.53412	0	
2.1867	27.9971	-0.219932	0	
2.1873	37.7367	1.60236	0	
2.1880	49.3405	3.12617	0	
2.1887	44.4547	4.6657	0	
2.1893	9.67525	8.0118	0	
2.1900	-29.9901	10.4625	0	
2.1907	-50.7549	8.62447	0	
2.1913	-55.93	4.96417	0	
2.1920	-51.3656	4.05303	0	
2.1927	-44.0368	4.05303	0	
2.1933	-42.4939	3.44036	0	
2.1940	-38.5403	4.05303	0	
2.1947	-26.3257	4.05303	0	
2.1953	-16.554	2.21503	0	
2.1960	-11.9896	1.30388	0	
2.1967	-11.0896	1.30388	0	
2.1973	-12.311	0.392735	0	
2.1980	-10.1574	-0.53412	0	
2.1987	-6.81446	-1.14679	0	
2.1993	-4.37154	-1.74374	0	
2.2000	6.3323	-1.74374	0	
2.2007	19.4469	-1.44527	0	
2.2013	22.5006	-4.19441	0	
2.2020	24.6221	-7.24204	0	
2.2027	34.1044	-6.01671	0	
2.2033	46.2869	-1.74374	0	
2.2040	55.7693	1.30388	0	
2.2047	49.3405	2.21503	0	
2.2053	25.5542	2.52922	0	
2.2060	9.96454	2.82769	0	
2.2067	9.96454	2.82769	0	
2.2073	9.06452	-0.53412	0	
2.2080	8.16449	-4.19441	0	
2.2087	7.55376	-3.28327	0	
2.2093	-4.37154	-3.28327	0	
2.2100	-13.5325	-6.94356	0	
2.2107	0.835736	-10.9023	0	
2.2113	17.904	-12.4261	0	
2.2120	20.9577	-9.677	0	
2.2127	17.2933	-2.05793	0	
2.2133	5.40014	3.12617	0	
2.2140	-12.6003	1.30388	0	
2.2147	-19.9291	0.691214	0	
2.2153	-21.1505	1.30388	0	
2.2160	-33.0437	-0.219932	0	
2.2167	-39.151	-0.53412	0	
2.2173	-26.3257	0.691214	0	
2.2180	-11.3789	-1.14679	0	
2.2187	-1.92862	-1.74374	0	
2.2193	6.01087	0.0785471	0	
2.2200	6.3323	-1.44527	0	
2.2207	1.73576	-3.28327	0	
2.2213	0.835736	-1.74374	0	
2.2220	-3.76081	-3.28327	0	
2.2227	-15.9754	-8.76585	0	
2.2233	-20.2184	-6.01671	0	
2.2240	-14.4325	1.30388	0	
2.2247	-15.0432	0.691214	0	
2.2253	-31.2115	-3.88023	0	
2.2260	-59.5944	-0.832599	0	
2.2267	-86.1451	2.82769	0	
2.2273	-94.0845	0.691214	0	
2.2280	-77.3055	-1.44527	0	
2.2287	-44.9369	-0.219932	0	
2.2293	-9.25738	0.691214	0	
2.2300	19.4469	1.30388	0	
2.2307	32.883	3.12617	0	
2.2313	34.7152	4.96417	0	
2.2320	40.501	3.12617	0	
2.2327	53.6157	-2.35641	0	
2.2333	65.8303	-1.14679	0	
2.2340	78.9449	4.96417	0	
2.2347	85.0522	4.05303	0	
2.2353	60.9444	6.48799	0	
2.2360	24.9435	21.4433	0	
2.2367	20.0577	31.5131	0	
2.2373	27.3864	25.1036	0	
2.2380	10.5753	13.8086	0	
2.2387	-0.996454	7.10065	0	
2.2393	21.5684	1.30388	0	
2.2400	48.7298	-9.08004	0	
2.2407	60.3337	-19.1498	0	
2.2413	66.7303	-16.4006	0	
2.2420	62.1659	-7.54052	0	
2.2427	39.2796	-2.35641	0	
2.2433	17.904	7.39913	0	
2.2440	3.56795	15.9451	0	
2.2447	-12.311	9.53561	0	
2.2453	-21.1505	0.691214	0	
2.2460	-16.2647	3.12617	0	
2.2467	-9.54667	5.87532	0	
2.2473	-0.385724	2.82769	0	
2.2480	7.55376	-0.219932	0	
2.2487	-6.49302	-4.49289	0	
2.2493	-30.6008	-8.76585	0	
2.2500	-33.3651	-6.62937	0	
2.2507	-31.8222	-2.96908	0	
2.2513	-44.3261	-2.6706	0	
2.2520	-49.5334	-0.53412	0	
2.2527	-44.3261	1.30388	0	
2.2533	-51.9763	-3.28327	0	
2.2540	-69.3661	-4.19441	0	
2.2547	-79.7485	-0.219932	0	
2.2553	-77.3055	-2.35641	0	
2.2560	-64.1909	-2.05793	0	
2.2567	-43.4261	16.5577	0	
2.2573	-11.9896	27.8528	0	
2.2580	27.3864	9.23713	0	
2.2587	60.3337	-10.2897	0	
2.2593	82.32	-9.08004	0	
2.2600	97.8775	-7.24204	0	
2.2607	99.999	-9.677	0	
2.2613	89.938	-5.10556	0	
2.2620	81.3878	1.60236	0	
2.2627	71.3268	0.392735	0	
2.2633	56.6693	-3.28327	0	
2.2640	43.2332	-4.19441	0	
2.2647	31.0508	-6.01671	0	
2.2653	18.8362	-9.99119	0	
2.2660	9.67525	-9.37852	0	
2.2667	-0.707161	-5.10556	0	
2.2673	-17.4862	-5.41975	0	
2.2680	-32.7544	-6.94356	0	
2.2687	-41.9154	-4.19441	0	
2.2693	-50.4334	-3.28327	0	
2.2700	-58.6944	-4.19441	0	
2.2707	-57.1515	-1.44527	0	
2.2713	-47.3798	-0.219932	0	
2.2720	-39.7617	-2.35641	0	
2.2727	-33.9759	-0.219932	0	
2.2733	-27.2578	3.12617	0	
2.2740	-26.6471	1.30388	0	
2.2747	-31.2115	-1.14679	0	
2.2753	-29.3793	-0.53412	0	
2.2760	-20.2184	0.691214	0	
2.2767	-11.3789	1.60236	0	
2.2773	-6.49302	1.91655	0	
2.2780	-2.21791	1.30388	0	
2.2787	4.78941	-0.53412	0	
2.2793	10.286	-2.05793	0	
2.2800	5.72157	-0.832599	0	
2.2807	-1.92862	2.21503	0	
2.2813	-0.096431	1.30388	0	
2.2820	9.67525	-1.74374	0	
2.2827	16.0718	-2.05793	0	
2.2833	13.6289	1.30388	0	
2.2840	9.67525	2.82769	0	
2.2847	13.9504	1.30388	0	
2.2853	25.8435	0.691214	0	
2.2860	38.9581	2.82769	0	
2.2867	49.9513	2.21503	0	
2.2873	48.1191	1.60236	0	
2.2880	29.2186	4.05303	0	
2.2887	10.286	4.96417	0	
2.2893	-0.996454	3.12617	0	
2.2900	-16.554	5.87532	0	
2.2907	-34.5866	10.1483	0	
2.2913	-42.8154	11.3736	0	
2.2920	-44.0368	12.2848	0	
2.2927	-41.3046	11.9863	0	
2.2933	-37.6402	7.71332	0	
2.2940	-35.8081	2.52922	0	
2.2947	-24.4935	0.392735	0	
2.2953	0.835736	-0.832599	0	
2.2960	13.3396	-1.14679	0	
2.2967	9.06452	-1.74374	0	
2.2973	11.7967	-4.80708	0	
2.2980	20.0577	-5.41975	0	
2.2987	20.9577	-2.05793	0	
2.2993	20.9577	-1.14679	0	
2.3000	22.7899	-5.10556	0	
2.3007	21.8898	-6.94356	0	
2.3013	20.0577	-2.96908	0	
2.3020	10.8967	0.691214	0	
2.3027	-4.98227	0.392735	0	
2.3033	-11.0896	-2.05793	0	
2.3040	-2.21791	-2.6706	0	
2.3047	3.56795	-1.44527	0	
2.3053	-0.096431	-1.14679	0	
2.3060	-7.42519	-2.6706	0	
2.3067	-9.25738	-3.28327	0	
2.3073	-1.31789	-1.74374	0	
2.3080	6.94303	-1.14679	0	
2.3087	7.23233	-0.832599	0	
2.3093	5.40014	-1.74374	0	
2.3100	4.17868	-3.28327	0	
2.3107	-1.31789	-2.35641	0	
2.3113	-8.32521	1.30388	0	
2.3120	-14.4325	0.691214	0	
2.3127	-22.6613	-1.44527	0	
2.3133	-32.433	-0.53412	0	
2.3140	-44.9369	0.392735	0	
2.3147	-57.1515	-0.53412	0	
2.3153	-52.2656	-0.53412	0	
2.3160	-29.09	1.30388	0	
2.3167	-18.0969	-0.219932	0	
2.3173	-33.3651	-2.05793	0	
2.3180	-45.2583	-1.14679	0	
2.3187	-30.6008	1.30388	0	
2.3193	-8.93594	1.91655	0	
2.3200	1.73576	1.30388	0	
2.3207	17.904	1.30388	0	
2.3213	39.8903	2.21503	0	
2.3220	41.4011	2.21503	0	
2.3227	30.1186	0.392735	0	
2.3233	34.7152	-0.832599	0	
2.3240	42.0118	-0.53412	0	
2.3247	33.1723	-0.219932	0	
2.3253	19.1255	0.0785471	0	
2.3260	10.8967	1.60236	0	
2.3267	6.01087	2.82769	0	
2.3273	4.50011	3.44036	0	
2.3280	1.44647	4.96417	0	
2.3287	-5.593	4.35151	0	
2.3293	-9.25738	3.12617	0	
2.3300	-9.25738	3.12617	0	
2.3307	-11.3789	3.12617	0	
2.3313	-11.3789	3.12617	0	
2.3320	-9.25738	7.10065	0	
2.3327	-7.71448	8.0118	0	
2.3333	-4.98227	2.82769	0	
2.3340	-3.15008	0.0785471	0	
2.3347	-3.15008	0.691214	0	
2.3353	0.225006	0.392735	0	
2.3360	3.56795	0.691214	0	
2.3367	1.73576	1.91655	0	
2.3373	0.514299	-0.53412	0	
2.3380	7.23233	-3.88023	0	
2.3387	16.3933	-4.19441	0	
2.3393	20.0577	-4.49289	0	
2.3400	16.0718	-5.41975	0	
2.3407	10.286	-6.94356	0	
2.3413	8.77522	-7.85471	0	
2.3420	11.186	-7.54052	0	
2.3427	14.2396	-7.24204	0	
2.3433	15.7825	-5.71823	0	
2.3440	14.5611	-4.19441	0	
2.3447	7.55376	-5.71823	0	
2.3453	-2.21791	-8.46737	0	
2.3460	-11.7003	-6.94356	0	
2.3467	-15.3647	-4.49289	0	
2.3473	-12.9218	-6.33089	0	
2.3480	-14.7539	-6.94356	0	
2.3487	-23.272	-4.19441	0	
2.3493	-26.9364	-3.28327	0	
2.3500	-23.5935	-6.01671	0	
2.3507	-22.6613	-6.62937	0	
2.3513	-20.5398	-3.28327	0	
2.3520	-11.9896	-1.44527	0	
2.3527	-11.0896	-0.832599	0	
2.3533	-20.2184	0.392735	0	
2.3540	-24.4935	-0.832599	0	
2.3547	-22.0506	-3.28327	0	
2.3553	-18.0969	-1.74374	0	
2.3560	-6.20373	-0.53412	0	
2.3567	9.96454	-1.74374	0	
2.3573	18.5148	-1.44527	0	
2.3580	24.6221	-5.41975	0	
2.3587	34.3937	-14.8768	0	
2.3593	37.1259	-16.4006	0	
2.3600	36.5152	-11.515	0	
2.3607	46.6083	-12.4261	0	
2.3613	57.6015	-9.677	0	
2.3620	53.0049	4.35151	0	
2.3627	43.844	15.3324	0	
2.3633	43.844	11.0751	0	
2.3640	49.9513	1.91655	0	
2.3647	56.38	-1.14679	0	
2.3653	61.2659	-0.53412	0	
2.3660	53.0049	-2.6706	0	
2.3667	19.1255	-3.88023	0	
2.3673	-26.9364	-0.53412	0	
2.3680	-62.3587	2.21503	0	
2.3687	-76.9841	2.21503	0	
2.3693	-71.809	1.60236	0	
2.3700	-53.1978	1.60236	0	
2.3707	-39.4724	0.691214	0	
2.3713	-36.7081	0.989693	0	
2.3720	-30.6008	-0.219932	0	
2.3727	-17.1647	-2.6706	0	
2.3733	-6.81446	-2.6706	0	
2.3740	-6.49302	0.0785471	0	
2.3747	-18.9969	2.21503	0	
2.3753	-31.2115	2.82769	0	
2.3760	-26.3257	1.60236	0	
2.3767	-10.1574	0.0785471	0	
2.3773	2.0572	-0.53412	0	
2.3780	7.55376	-0.832599	0	
2.3787	5.72157	-0.832599	0	
2.3793	0.225006	-0.832599	0	
2.3800	-0.096431	-1.44527	0	
2.3807	4.50011	-1.44527	0	
2.3813	8.16449	-1.44527	0	
2.3820	10.8967	-2.35641	0	
2.3827	9.06452	-1.44527	0	
2.3833	1.12503	0.989693	0	
2.3840	-5.27156	0.691214	0	
2.3847	-7.42519	0.392735	0	
2.3853	-9.86811	1.30388	0	
2.3860	-10.7681	0.0785471	0	
2.3867	-7.42519	0.392735	0	
2.3873	-8.32521	3.73884	0	
2.3880	-12.9218	1.91655	0	
2.3887	-7.10375	-3.28327	0	
2.3893	5.40014	-2.35641	0	
2.3900	8.45379	0.0785471	0	
2.3907	2.66793	0.691214	0	
2.3913	-0.996454	2.82769	0	
2.3920	-5.593	3.44036	0	
2.3927	-9.54667	1.60236	0	
2.3933	-10.1574	1.30388	0	
2.3940	-11.7003	1.30388	0	
2.3947	-11.9896	-0.53412	0	
2.3953	-5.27156	-0.219932	0	
2.3960	3.88939	0.691214	0	
2.3967	9.67525	-0.53412	0	
2.3973	12.7289	-2.35641	0	
2.3980	13.6289	-3.28327	0	
2.3987	13.9504	-2.35641	0	
2.3993	16.3933	-0.832599	0	
2.4000	15.4611	-2.35641	0	
2.4007	12.7289	-5.41975	0	
2.4013	15.4611	-6.62937	0	
2.4020	16.0718	-7.54052	0	
2.4027	-0.096431	-10.6039	0	
2.4033	-19.3184	-10.6039	0	
2.4040	-20.2184	-7.85471	0	
2.4047	-5.593	-8.15319	0	
2.4053	10.286	-10.6039	0	
2.4060	17.2933	-9.677	0	
2.4067	12.7289	-8.76585	0	
2.4073	6.3323	-8.76585	0	
2.4080	3.56795	-6.94356	0	
2.4087	-1.60718	-6.62937	0	
2.4093	-3.76081	-6.62937	0	
2.4100	-0.096431	-3.88023	0	
2.4107	-9.86811	-0.53412	0	
2.4113	-32.433	-0.832599	0	
2.4120	-43.4261	-2.35641	0	
2.4127	-44.6476	-2.05793	0	
2.4133	-48.9227	2.21503	0	
2.4140	-47.7012	4.96417	0	
2.4147	-37.6402	0.392735	0	
2.4153	-26.9364	-4.19441	0	
2.4160	-17.7755	-3.88023	0	
2.4167	-7.10375	-2.96908	0	
2.4173	5.72157	-2.35641	0	
2.4180	21.8898	-1.74374	0	
2.4187	34.1044	-2.35641	0	
2.4193	34.7152	-2.96908	0	
2.4200	30.1186	-3.28327	0	
2.4207	27.6757	-5.10556	0	
2.4213	28.8972	-6.01671	0	
2.4220	35.6152	-5.71823	0	
2.4227	39.2796	-5.41975	0	
2.4233	30.4401	-4.19441	0	
2.4240	19.4469	-5.10556	0	
2.4247	18.2255	-7.85471	0	
2.4253	15.4611	-7.85471	0	
2.4260	2.0572	-5.71823	0	
2.4267	-9.54667	-5.10556	0	
2.4273	-11.7003	-4.19441	0	
2.4280	-14.1432	-2.35641	0	
2.4287	-25.4256	-1.44527	0	
2.4293	-38.251	-0.219932	0	
2.4300	-41.3046	1.30388	0	
2.4307	-27.8686	-0.53412	0	
2.4313	-6.49302	-2.35641	0	
2.4320	0.835736	0.392735	0	
2.4327	-11.3789	3.12617	0	
2.4333	-16.554	0.691214	0	
2.4340	-0.996454	-0.53412	0	
2.4347	16.6826	2.82769	0	
2.4353	23.4006	5.26265	0	
2.4360	23.4006	4.05303	0	
2.4367	20.0577	1.30388	0	
2.4373	14.5611	-1.44527	0	
2.4380	14.5611	-0.53412	0	
2.4387	19.1255	0.392735	0	
2.4393	23.4006	-2.6706	0	
2.4400	25.8435	-2.96908	0	
2.4407	24.6221	0.392735	0	
2.4413	19.1255	1.30388	0	
2.4420	11.7967	1.91655	0	
2.4427	6.3323	2.82769	0	
2.4433	4.50011	2.82769	0	
2.4440	9.06452	4.35151	0	
2.4447	11.7967	7.71332	0	
2.4453	6.3323	8.62447	0	
2.4460	0.225006	7.39913	0	
2.4467	1.12503	5.87532	0	
2.4473	3.88939	4.96417	0	
2.4480	2.95722	4.96417	0	
2.4487	0.835736	4.35151	0	
2.4493	2.34649	0.989693	0	
2.4500	4.17868	-0.53412	0	
2.4507	-0.096431	1.30388	0	
2.4513	-10.1574	4.05303	0	
2.4520	-20.2184	7.71332	0	
2.4527	-29.3793	9.53561	0	
2.4533	-34.5866	6.18951	0	
2.4540	-29.3793	3.44036	0	
2.4547	-20.8291	4.96417	0	
2.4553	-17.1647	8.32599	0	
2.4560	-14.7539	8.62447	0	
2.4567	-12.9218	5.87532	0	
2.4573	-14.4325	4.96417	0	
2.4580	-11.3789	5.57684	0	
2.4587	-1.92862	5.57684	0	
2.4593	3.88939	4.05303	0	
2.4600	3.88939	2.82769	0	
2.4607	6.6216	2.52922	0	
2.4613	13.0182	3.12617	0	
2.4620	15.1718	2.21503	0	
2.4627	12.7289	0.0785471	0	
2.4633	12.1182	1.30388	0	
2.4640	13.0182	4.35151	0	
2.4647	11.186	2.52922	0	
2.4653	7.55376	-1.44527	0	
2.4660	2.66793	1.60236	0	
2.4667	-2.82864	5.57684	0	
2.4673	-7.10375	1.30388	0	
2.4680	-11.0896	-2.6706	0	
2.4687	-14.7539	0.691214	0	
2.4693	-16.8754	2.21503	0	
2.4700	-18.0969	-2.35641	0	
2.4707	-18.3862	-6.94356	0	
2.4713	-13.8218	-8.15319	0	
2.4720	-6.49302	-7.54052	0	
2.4727	-1.92862	-9.37852	0	
2.4733	2.66793	-9.677	0	
2.4740	8.16449	0.989693	0	
2.4747	7.55376	16.8719	0	
2.4753	2.66793	17.4689	0	
2.4760	2.95722	9.23713	0	
2.4767	9.38595	8.62447	0	
2.4773	15.4611	9.53561	0	
2.4780	20.0577	4.35151	0	
2.4787	21.2791	1.30388	0	
2.4793	10.8967	0.392735	0	
2.4800	-0.385724	-1.14679	0	
2.4807	2.66793	-2.35641	0	
2.4813	11.7967	-2.35641	0	
2.4820	11.5074	-0.832599	0	
2.4827	8.45379	-0.219932	0	
2.4833	8.16449	-2.35641	0	
2.4840	5.40014	-3.28327	0	
2.4847	2.95722	0.392735	0	
2.4853	1.73576	0.691214	0	
2.4860	-3.15008	-2.96908	0	
2.4867	-9.25738	-2.35641	0	
2.4873	-18.3862	0.392735	0	
2.4880	-32.1437	-0.53412	0	
2.4887	-37.3188	-2.35641	0	
2.4893	-26.0364	-2.35641	0	
2.4900	-14.7539	-2.96908	0	
2.4907	-11.3789	-3.28327	0	
2.4913	-8.03592	-3.28327	0	
2.4920	-4.66083	-3.58175	0	
2.4927	-3.43937	-3.28327	0	
2.4933	-2.53935	-1.44527	0	
2.4940	-0.996454	-1.44527	0	
2.4947	-0.096431	-1.44527	0	
2.4953	0.835736	0.989693	0	
2.4960	1.73576	1.30388	0	
2.4967	2.95722	-0.53412	0	
2.4973	2.66793	-0.53412	0	
2.4980	3.88939	-1.44527	0	
2.4987	9.38595	-4.19441	0	
2.4993	13.3396	-5.10556	0	
2.5000	10.5753	-2.6706	0	
2.5007	8.16449	0.989693	0	
2.5013	10.8967	2.82769	0	
2.5020	14.5611	1.60236	0	
2.5027	14.2396	0.0785471	0	
2.5033	11.5074	0.392735	0	
2.5040	12.1182	0.989693	0	
2.5047	13.9504	0.392735	0	
2.5053	9.06452	-0.53412	0	
2.5060	-1.31789	-1.44527	0	
2.5067	-11.0896	-0.53412	0	
2.5073	-16.554	0.989693	0	
2.5080	-16.2647	1.60236	0	
2.5087	-13.2111	2.21503	0	
2.5093	-15.3647	3.73884	0	
2.5100	-18.7076	4.6657	0	
2.5107	-15.0432	4.05303	0	
2.5113	-12.6003	3.12617	0	
2.5120	-15.0432	3.12617	0	
2.5127	-9.86811	3.44036	0	
2.5133	-0.096431	0.989693	0	
2.5140	0.835736	0.0785471	0	
2.5147	-1.60718	1.60236	0	
2.5153	-6.20373	-0.219932	0	
2.5160	-18.0969	-1.74374	0	
2.5167	-21.7613	1.30388	0	
2.5173	-4.98227	1.91655	0	
2.5180	16.3933	-0.832599	0	
2.5187	27.3864	-1.74374	0	
2.5193	20.9577	-1.44527	0	
2.5200	0.835736	0.392735	0	
2.5207	-9.25738	3.12617	0	
2.5213	-0.707161	1.30388	0	
2.5220	5.11084	0.392735	0	
2.5227	6.01087	3.73884	0	
2.5233	14.2396	2.21503	0	
2.5240	17.904	-1.14679	0	
2.5247	6.3323	2.21503	0	
2.5253	-7.42519	3.12617	0	
2.5260	-15.3647	-0.832599	0	
2.5267	-17.4862	-0.832599	0	
2.5273	-15.654	-0.53412	0	
2.5280	-14.4325	-1.44527	0	
2.5287	-12.311	4.35151	0	
2.5293	-9.25738	11.6721	0	
2.5300	-13.8218	10.4625	0	
2.5307	-19.6076	6.18951	0	
2.5313	-10.4788	5.87532	0	
2.5320	6.3323	4.6657	0	
2.5327	9.38595	-0.53412	0	
2.5333	-2.82864	-2.6706	0	
2.5340	-11.9896	-1.74374	0	
2.5347	-8.32521	-2.96908	0	
2.5353	-3.76081	-6.94356	0	
2.5360	-7.10375	-8.76585	0	
2.5367	-8.32521	-8.46737	0	
2.5373	-4.37154	-6.62937	0	
2.5380	-5.27156	-3.58175	0	
2.5387	-5.593	-3.28327	0	
2.5393	3.27866	-6.94356	0	
2.5400	12.7289	-7.54052	0	
2.5407	15.4611	-3.88023	0	
2.5413	17.6147	-4.19441	0	
2.5420	20.0577	-7.85471	0	
2.5427	20.0577	-6.33089	0	
2.5433	17.004	-3.58175	0	
2.5440	12.4075	-2.96908	0	
2.5447	10.5753	-2.35641	0	
2.5453	14.8504	-3.58175	0	
2.5460	14.5611	-5.41975	0	
2.5467	1.73576	-4.19441	0	
2.5473	-9.25738	-2.05793	0	
2.5480	-9.86811	-0.832599	0	
2.5487	-10.1574	1.91655	0	
2.5493	-13.5325	2.21503	0	
2.5500	-14.1432	-1.44527	0	
2.5507	-14.7539	-2.96908	0	
2.5513	-15.3647	-2.35641	0	
2.5520	-11.9896	-2.35641	0	
2.5527	-10.7681	-2.35641	0	
2.5533	-10.7681	-2.35641	0	
2.5540	-4.66083	-0.53412	0	
2.5547	4.50011	0.691214	0	
2.5553	8.77522	-1.74374	0	
2.5560	9.06452	-3.58175	0	
2.5567	8.16449	-1.74374	0	
2.5573	6.94303	-1.74374	0	
2.5580	7.55376	-3.58175	0	
2.5587	7.55376	-2.6706	0	
2.5593	4.50011	-3.28327	0	
2.5600	0.514299	-4.80708	0	
2.5607	0.835736	-4.19441	0	
2.5613	6.94303	-4.19441	0	
2.5620	9.06452	-4.19441	0	
2.5627	3.88939	-2.05793	0	
2.5633	2.95722	-0.832599	0	
2.5640	8.16449	-1.44527	0	
2.5647	14.5611	2.21503	0	
2.5653	24.6221	4.96417	0	
2.5660	28.2864	4.05303	0	
2.5667	15.7825	4.35151	0	
2.5673	4.17868	2.82769	0	
2.5680	0.225006	-1.74374	0	
2.5687	-4.0501	-2.6706	0	
2.5693	-4.66083	-2.35641	0	
2.5700	-5.88229	-5.10556	0	
2.5707	-13.2111	-5.10556	0	
2.5713	-13.2111	0.392735	0	
2.5720	-7.10375	11.3736	0	
2.5727	-7.71448	20.5322	0	
2.5733	-3.76081	17.1704	0	
2.5740	4.78941	8.0118	0	
2.5747	-0.096431	6.80218	0	
2.5753	-6.49302	7.39913	0	
2.5760	-3.43937	1.91655	0	
2.5767	-10.1574	-0.219932	0	
2.5773	-18.0969	1.60236	0	
2.5780	-2.82864	1.60236	0	
2.5787	9.06452	4.05303	0	
2.5793	-8.32521	6.18951	0	
2.5800	-25.1042	2.52922	0	
2.5807	-11.9896	0.392735	0	
2.5813	9.96454	0.989693	0	
2.5820	17.004	-2.96908	0	
2.5827	17.2933	-6.01671	0	
2.5833	19.1255	-4.19441	0	
2.5840	17.2933	-2.05793	0	
2.5847	17.2933	-3.28327	0	
2.5853	25.2328	-5.71823	0	
2.5860	26.4542	-6.94356	0	
2.5867	10.8967	-5.41975	0	
2.5873	-5.593	-3.28327	0	
2.5880	-11.0896	-3.28327	0	
2.5887	-11.7003	-2.35641	0	
2.5893	-14.4325	1.30388	0	
2.5900	-17.7755	2.21503	0	
2.5907	-19.3184	0.989693	0	
2.5913	-18.0969	0.691214	0	
2.5920	-15.654	1.30388	0	
2.5927	-14.1432	1.91655	0	
2.5933	-11.9896	3.12617	0	
2.5940	-7.42519	4.96417	0	
2.5947	0.225006	6.18951	0	
2.5953	4.17868	4.96417	0	
2.5960	1.44647	4.05303	0	
2.5967	-0.996454	5.26265	0	
2.5973	1.73576	5.87532	0	
2.5980	7.84306	4.35151	0	
2.5987	10.8967	3.73884	0	
2.5993	10.8967	3.12617	0	
2.6000	9.96454	2.52922	0	
2.6007	11.5074	3.44036	0	
2.6013	13.3396	3.44036	0	
2.6020	12.7289	1.30388	0	
2.6027	10.286	0.989693	0	
2.6033	6.6216	2.21503	0	
2.6040	4.17868	1.91655	0	
2.6047	2.66793	1.30388	0	
2.6053	-0.707161	1.91655	0	
2.6060	-7.42519	1.60236	0	
2.6067	-13.5325	0.0785471	0	
2.6073	-17.7755	-0.53412	0	
2.6080	-21.1505	0.691214	0	
2.6087	-23.272	0.392735	0	
2.6093	-27.8686	-3.28327	0	
2.6100	-29.9901	-5.10556	0	
2.6107	-22.9827	-5.10556	0	
2.6113	-20.2184	-6.94356	0	
2.6120	-27.2578	-9.08004	0	
2.6127	-26.6471	-7.85471	0	
2.6133	-20.8291	-4.19441	0	
2.6140	-22.9827	0.989693	0	
2.6147	-21.7613	3.12617	0	
2.6153	-12.9218	0.0785471	0	
2.6160	-11.7003	-2.35641	0	
2.6167	-11.9896	-0.832599	0	
2.6173	-7.71448	-1.44527	0	
2.6180	-8.64665	-2.35641	0	
2.6187	-5.27156	-1.44527	0	
2.6193	9.06452	-3.28327	0	
2.6200	17.004	-5.10556	0	
2.6207	16.6826	-4.49289	0	
2.6213	20.3469	-4.80708	0	
2.6220	23.722	-5.71823	0	
2.6227	22.1791	-5.10556	0	
2.6233	21.5684	-2.96908	0	
2.6240	21.5684	2.21503	0	
2.6247	20.9577	7.71332	0	
2.6253	20.6684	5.57684	0	
2.6260	17.2933	1.30388	0	
2.6267	11.7967	3.44036	0	
2.6273	5.11084	6.18951	0	
2.6280	-2.53935	4.35151	0	
2.6287	-9.54667	4.05303	0	
2.6293	-13.8218	5.26265	0	
2.6300	-16.554	6.18951	0	
2.6307	-17.4862	6.80218	0	
2.6313	-18.9969	3.44036	0	
2.6320	-20.2184	-2.6706	0	
2.6327	-18.3862	-3.58175	0	
2.6333	-14.7539	-0.53412	0	
2.6340	-9.25738	-3.88023	0	
2.6347	-5.593	-8.46737	0	
2.6353	-7.71448	-6.01671	0	
2.6360	-8.93594	-2.35641	0	
2.6367	-0.096431	-3.28327	0	
2.6373	9.06452	-3.58175	0	
2.6380	6.3323	-0.832599	0	
2.6387	-5.593	0.691214	0	
2.6393	-17.1647	0.392735	0	
2.6400	-15.654	-0.53412	0	
2.6407	-0.385724	-2.96908	0	
2.6413	15.4611	-4.19441	0	
2.6420	26.4542	-2.35641	0	
2.6427	38.3474	0.392735	0	
2.6433	47.2191	0.0785471	0	
2.6440	41.4011	-0.53412	0	
2.6447	20.9577	-0.53412	0	
2.6453	1.73576	-1.44527	0	
2.6460	-4.66083	-4.19441	0	
2.6467	-0.096431	-6.01671	0	
2.6473	6.3323	-4.19441	0	
2.6480	7.23233	-1.74374	0	
2.6487	0.835736	-2.96908	0	
2.6493	-6.81446	-4.49289	0	
2.6500	-9.54667	-4.19441	0	
2.6507	-9.25738	-3.28327	0	
2.6513	-10.1574	-4.19441	0	
2.6520	-8.03592	-5.41975	0	
2.6527	-5.593	-6.01671	0	
2.6533	-11.9896	-5.10556	0	
2.6540	-22.6613	-5.41975	0	
2.6547	-25.4256	-8.15319	0	
2.6553	-22.372	-11.515	0	
2.6560	-21.4398	-13.95	0	
2.6567	-18.7076	-16.4006	0	
2.6573	-15.3647	-19.1498	0	
2.6580	-13.5325	-16.6991	0	
2.6587	-6.81446	-2.96908	0	
2.6593	1.12503	12.2848	0	
2.6600	2.0572	13.1959	0	
2.6607	6.3323	2.82769	0	
2.6613	21.5684	-3.28327	0	
2.6620	33.1723	-2.96908	0	
2.6627	33.783	-2.6706	0	
2.6633	28.2864	-5.10556	0	
2.6640	20.0577	-6.01671	0	
2.6647	13.9504	-3.88023	0	
2.6653	9.38595	-2.6706	0	
2.6660	1.12503	-3.58175	0	
2.6667	-3.76081	-1.74374	0	
2.6673	-0.096431	0.691214	0	
2.6680	0.835736	0.0785471	0	
2.6687	-3.76081	0.392735	0	
2.6693	-4.37154	1.60236	0	
2.6700	2.66793	-0.219932	0	
2.6707	11.7967	-1.74374	0	
2.6713	13.3396	-0.832599	0	
2.6720	7.23233	-0.832599	0	
2.6727	1.73576	-2.35641	0	
2.6733	-0.096431	-4.19441	0	
2.6740	-6.81446	-6.33089	0	
2.6747	-19.9291	-4.80708	0	
2.6753	-31.8222	0.392735	0	
2.6760	-32.1437	3.44036	0	
2.6767	-18.3862	3.12617	0	
2.6773	-1.60718	2.52922	0	
2.6780	8.16449	2.21503	0	
2.6787	11.186	0.0785471	0	
2.6793	8.16449	-4.19441	0	
2.6800	1.73576	-4.80708	0	
2.6807	1.12503	-2.05793	0	
2.6813	7.55376	-2.05793	0	
2.6820	13.0182	-3.58175	0	
2.6827	15.7825	-1.74374	0	
2.6833	20.0577	0.392735	0	
2.6840	24.6221	-0.53412	0	
2.6847	23.722	-0.219932	0	
2.6853	18.2255	1.91655	0	
2.6860	12.1182	3.12617	0	
2.6867	8.16449	3.44036	0	
2.6873	4.78941	3.12617	0	
2.6880	-0.707161	1.91655	0	
2.6887	-7.42519	1.30388	0	
2.6893	-9.25738	1.30388	0	
2.6900	-8.32521	2.21503	0	
2.6907	-15.3647	4.96417	0	
2.6913	-29.7008	6.18951	0	
2.6920	-35.8081	3.73884	0	
2.6927	-29.7008	1.30388	0	
2.6933	-21.1505	2.52922	0	
2.6940	-14.7539	4.6657	0	
2.6947	-7.71448	5.26265	0	
2.6953	-2.82864	4.05303	0	
2.6960	-5.88229	2.52922	0	
2.6967	-14.7539	3.12617	0	
2.6973	-15.654	4.96417	0	
2.6980	-6.49302	4.05303	0	
2.6987	-1.92862	2.82769	0	
2.6993	-4.0501	3.44036	0	
2.7000	-0.707161	3.73884	0	
2.7007	5.40014	0.392735	0	
2.7013	3.88939	-0.53412	0	
2.7020	2.0572	0.691214	0	
2.7027	5.40014	-0.53412	0	
2.7033	7.84306	-2.35641	0	
2.7040	8.77522	-1.14679	0	
2.7047	10.8967	0.0785471	0	
2.7053	12.7289	0.0785471	0	
2.7060	13.0182	-0.53412	0	
2.7067	6.3323	0.392735	0	
2.7073	-8.93594	4.05303	0	
2.7080	-18.3862	6.80218	0	
2.7087	-18.3862	5.87532	0	
2.7093	-25.4256	4.6657	0	
2.7100	-38.8617	4.96417	0	
2.7107	-39.7617	3.73884	0	
2.7113	-32.1437	2.52922	0	
2.7120	-28.4793	2.52922	0	
2.7127	-25.1042	2.52922	0	
2.7133	-21.1505	2.52922	0	
2.7140	-18.9969	2.52922	0	
2.7147	-11.3789	2.52922	0	
2.7153	5.11084	2.52922	0	
2.7160	20.9577	2.52922	0	
2.7167	26.7757	2.52922	0	
2.7173	26.165	2.52922	0	
2.7180	29.5079	2.52922	0	
2.7187	43.5547	2.52922	0	
2.7193	60.0444	2.52922	0	
2.7200	64.8981	2.52922	0	
2.7207	53.9371	2.52922	0	
2.7213	41.7225	2.52922	0	
2.7220	40.7903	2.52922	0	
2.7227	35.6152	2.52922	0	
2.7233	15.1718	2.52922	0	
2.7240	0.835736	3.12617	0	
2.7247	3.88939	5.57684	0	
2.7253	6.3323	4.05303	0	
2.7260	2.66793	3.73884	0	
2.7267	-3.43937	6.80218	0	
2.7273	-13.8218	7.71332	0	
2.7280	-21.1505	6.18951	0	
2.7287	-17.7755	4.35151	0	
2.7293	-15.654	3.12617	0	
2.7300	-17.7755	4.05303	0	
2.7307	-16.2647	4.6657	0	
2.7313	-17.4862	3.12617	0	
2.7320	-23.8828	4.35151	0	
2.7327	-28.4793	7.71332	0	
2.7333	-30.3115	8.93866	0	
2.7340	-33.0437	8.62447	0	
2.7347	-29.9901	7.71332	0	
2.7353	-23.8828	7.10065	0	
2.7360	-21.1505	10.4625	0	
2.7367	-16.2647	10.7609	0	
2.7373	-4.66083	4.96417	0	
2.7380	5.72157	1.30388	0	
2.7387	16.3933	0.392735	0	
2.7393	32.2723	-2.96908	0	
2.7400	43.2332	-6.94356	0	
2.7407	39.8903	-6.94356	0	
2.7413	29.2186	-5.10556	0	
2.7420	19.7362	-3.28327	0	
2.7427	15.1718	-2.35641	0	
2.7433	15.4611	-2.96908	0	
2.7440	13.0182	-4.19441	0	
2.7447	6.3323	-3.88023	0	
2.7453	4.50011	-1.44527	0	
2.7460	3.56795	-1.14679	0	
2.7467	-1.60718	-3.28327	0	
2.7473	-4.0501	-3.58175	0	
2.7480	-4.66083	-3.58175	0	
2.7487	-6.81446	-3.58175	0	
2.7493	-3.76081	-3.58175	0	
2.7500	0.835736	-3.58175	0	
2.7507	-4.98227	-3.58175	0	
2.7513	-19.9291	-3.58175	0	
2.7520	-35.1973	-3.58175	0	
2.7527	-42.4939	-3.58175	0	
2.7533	-34.2652	-3.58175	0	
2.7540	-21.4398	-3.58175	0	
2.7547	-21.1505	-3.58175	0	
2.7553	-27.5471	-3.58175	0	
2.7560	-28.1579	-3.58175	0	
2.7567	-21.1505	-3.58175	0	
2.7573	-11.0896	-3.58175	0	
2.7580	-0.385724	-3.58175	0	
2.7587	9.06452	-3.58175	0	
2.7593	11.5074	-3.58175	0	
2.7600	8.16449	-3.58175	0	
2.7607	11.7967	-3.58175	0	
2.7613	20.3469	-3.58175	0	
2.7620	17.2933	-3.58175	0	
2.7627	9.06452	-3.58175	0	
2.7633	8.77522	-3.58175	0	
2.7640	9.06452	-3.58175	0	
2.7647	7.84306	-3.58175	0	
2.7653	8.77522	-3.58175	0	
2.7660	7.23233	-3.58175	0	
2.7667	6.3323	-3.58175	0	
2.7673	7.23233	-3.58175	0	
2.7680	4.50011	-3.58175	0	
2.7687	9.06452	-3.58175	0	
2.7693	21.5684	-3.58175	0	
2.7700	17.2933	-3.58175	0	
2.7707	-1.31789	-3.58175	0	
2.7713	-8.03592	-3.58175	0	
2.7720	-3.76081	4.96417	0	
2.7727	-2.82864	4.35151	0	
2.7733	-4.98227	1.30388	0	
2.7740	-8.03592	0.392735	0	
2.7747	-11.0896	0.0785471	0	
2.7753	-8.32521	0.392735	0	
2.7760	-1.92862	0.392735	0	
2.7767	1.12503	0.0785471	0	
2.7773	3.56795	0.691214	0	
2.7780	9.06452	1.91655	0	
2.7787	13.9504	1.60236	0	
2.7793	17.904	1.60236	0	
2.7800	19.4469	2.52922	0	
2.7807	10.286	3.12617	0	
2.7813	-4.37154	2.21503	0	
2.7820	-5.593	0.691214	0	
2.7827	4.50011	0.691214	0	
2.7833	9.67525	2.52922	0	
2.7840	12.7289	4.05303	0	
2.7847	17.6147	4.96417	0	
2.7853	11.186	2.82769	0	
2.7860	-1.31789	-1.44527	0	
2.7867	-5.27156	-0.53412	0	
2.7873	-4.0501	3.44036	0	
2.7880	-7.42519	2.21503	0	
2.7887	-13.5325	-0.53412	0	
2.7893	-16.554	1.60236	0	
2.7900	-12.9218	3.12617	0	
2.7907	-3.15008	2.21503	0	
2.7913	0.514299	2.82769	0	
2.7920	-8.64665	2.82769	0	
2.7927	-22.372	1.91655	0	
2.7933	-26.6471	3.44036	0	
2.7940	-16.8754	4.96417	0	
2.7947	-4.66083	3.12617	0	
2.7953	-2.82864	0.392735	0	
2.7960	-8.32521	0.392735	0	
2.7967	-6.49302	0.392735	0	
2.7973	4.78941	0.392735	0	
2.7980	15.4611	0.392735	0	
2.7987	21.2791	0.392735	0	
2.7993	24.3328	0.392735	0	
2.8000	14.8504	0.392735	0	
2.8007	-3.76081	0.392735	0	
2.8013	-8.03592	0.392735	0	
2.8020	4.50011	0.392735	0	
2.8027	10.8967	0.392735	0	
2.8033	6.6216	0.392735	0	
2.8040	3.56795	0.392735	0	
2.8047	1.73576	0.392735	0	
2.8053	-1.92862	0.392735	0	
2.8060	-5.27156	0.392735	0	
2.8067	-8.03592	0.392735	0	
2.8073	-11.9896	0.392735	0	
2.8080	-15.9754	-7.54052	0	
2.8087	-21.7613	-5.41975	0	
2.8093	-26.3257	-6.01671	0	
2.8100	-22.0506	-5.41975	0	
2.8107	-14.4325	-3.28327	0	
2.8113	-16.8754	-1.44527	0	
2.8120	-24.8149	-2.96908	0	
2.8127	-27.5471	-4.80708	0	
2.8133	-30.3115	-6.33089	0	
2.8140	-31.2115	-6.94356	0	
2.8147	-23.272	-6.62937	0	
2.8153	-16.554	-5.41975	0	
2.8160	-11.3789	-5.10556	0	
2.8167	1.73576	-4.80708	0	
2.8173	15.4611	-4.19441	0	
2.8180	24.6221	-4.49289	0	
2.8187	34.7152	-4.80708	0	
2.8193	39.5689	-4.49289	0	
2.8200	42.944	-5.10556	0	
2.8207	59.723	-4.80708	0	
2.8213	71.0054	-3.58175	0	
2.8220	56.9907	-5.10556	0	
2.8227	40.501	-6.94356	0	
2.8233	35.9045	-7.85471	0	
2.8240	29.5079	-9.08004	0	
2.8247	20.6684	-8.46737	0	
2.8253	19.7362	-4.49289	0	
2.8260	22.7899	-4.49289	0	
2.8267	17.904	-8.15319	0	
2.8273	6.01087	-6.33089	0	
2.8280	-1.92862	-2.6706	0	
2.8287	-6.49302	-3.58175	0	
2.8293	-18.7076	-4.19441	0	
2.8300	-32.1437	-2.35641	0	
2.8307	-33.9759	-3.88023	0	
2.8313	-30.6008	-4.19441	0	
2.8320	-27.5471	0.0785471	0	
2.8327	-22.372	0.0785471	0	
2.8333	-18.0969	-3.58175	0	
2.8340	-11.9896	-1.44527	0	
2.8347	-0.385724	1.91655	0	
2.8353	13.0182	-1.14679	0	
2.8360	26.165	-2.96908	0	
2.8367	33.783	0.392735	0	
2.8373	31.6615	3.12617	0	
2.8380	28.8972	4.6657	0	
2.8387	32.2723	5.57684	0	
2.8393	27.3864	3.73884	0	
2.8400	8.45379	1.91655	0	
2.8407	-6.20373	1.30388	0	
2.8413	-4.66083	-2.35641	0	
2.8420	-0.096431	-6.33089	0	
2.8427	-8.64665	-4.19441	0	
2.8433	-24.8149	-0.53412	0	
2.8440	-30.3115	-2.05793	0	
2.8447	-25.1042	-4.19441	0	
2.8453	-20.5398	-3.88023	0	
2.8460	-17.7755	-1.44527	0	
2.8467	-17.1647	2.52922	0	
2.8473	-16.554	4.05303	0	
2.8480	-13.8218	2.52922	0	
2.8487	-13.8218	3.44036	0	
2.8493	-8.03592	4.96417	0	
2.8500	10.8967	4.6657	0	
2.8507	14.5611	4.05303	0	
2.8513	-8.32521	3.73884	0	
2.8520	-27.2578	4.96417	0	
2.8527	-35.1973	8.0118	0	
2.8533	-45.869	6.18951	0	
2.8540	-46.7691	2.21503	0	
2.8547	-35.8081	2.82769	0	
2.8553	-26.9364	2.21503	0	
2.8560	-12.9218	2.21503	0	
2.8567	-0.096431	2.21503	0	
2.8573	-6.20373	2.21503	0	
2.8580	-7.71448	2.21503	0	
2.8587	12.7289	2.21503	0	
2.8593	29.8293	2.21503	0	
2.8600	27.6757	2.21503	0	
2.8607	19.1255	2.21503	0	
2.8613	10.8967	2.21503	0	
2.8620	6.94303	2.21503	0	
2.8627	6.3323	2.21503	0	
2.8633	4.50011	2.21503	0	
2.8640	4.17868	2.21503	0	
2.8647	4.78941	2.21503	0	
2.8653	-0.096431	2.21503	0	
2.8660	-7.10375	2.21503	0	
2.8667	-11.3789	2.21503	0	
2.8673	-14.1432	2.21503	0	
2.8680	-16.2647	2.21503	0	
2.8687	-18.3862	2.21503	0	
2.8693	-22.372	2.21503	0	
2.8700	-22.372	2.21503	0	
2.8707	-17.4862	2.21503	0	
2.8713	-14.7539	2.21503	0	
2.8720	-15.9754	2.21503	0	
2.8727	-16.554	2.21503	0	
2.8733	-16.554	2.21503	0	
2.8740	-16.2647	2.21503	0	
2.8747	-12.311	2.21503	0	
2.8753	-8.03592	2.21503	0	
2.8760	-8.32521	2.21503	0	
2.8767	-7.71448	2.21503	0	
2.8773	-1.92862	2.21503	0	
2.8780	3.27866	2.21503	0	
2.8787	9.06452	2.21503	0	
2.8793	17.2933	2.21503	0	
2.8800	18.8362	2.21503	0	
2.8807	13.3396	2.21503	0	
2.8813	15.4611	2.21503	0	
2.8820	20.9577	2.21503	0	
2.8827	20.0577	2.21503	0	
2.8833	17.6147	2.21503	0	
2.8840	17.004	2.21503	0	
2.8847	13.6289	2.21503	0	
2.8853	12.7289	2.21503	0	
2.8860	9.96454	2.21503	0	
2.8867	0.514299	2.21503	0	
2.8873	-4.0501	2.21503	0	
2.8880	2.0572	2.21503	0	
2.8887	3.56795	2.21503	0	
2.8893	-1.92862	2.21503	0	
2.8900	-4.0501	2.21503	0	
2.8907	-2.21791	2.21503	0	
2.8913	-1.92862	2.21503	0	
2.8920	-4.66083	2.21503	0	
2.8927	-9.25738	2.21503	0	
2.8933	-11.9896	2.21503	0	
2.8940	-11.7003	2.21503	0	
2.8947	-11.0896	2.21503	0	
2.8953	-12.9218	2.21503	0	
2.8960	-17.1647	2.21503	0	
2.8967	-21.1505	2.21503	0	
2.8973	-16.8754	2.21503	0	
2.8980	-5.593	2.21503	0	
2.8987	2.66793	2.21503	0	
2.8993	6.01087	2.21503	0	
2.9000	7.84306	2.21503	0	
2.9007	9.96454	2.21503	0	
2.9013	18.2255	2.21503	0	
2.9020	31.0508	2.21503	0	
2.9027	34.3937	2.21503	0	
2.9033	27.3864	2.21503	0	
2.9040	24.0113	2.21503	0	
2.9047	22.5006	2.21503	0	
2.9053	18.8362	2.21503	0	
2.9060	19.1255	2.21503	0	
2.9067	18.8362	2.21503	0	
2.9073	14.5611	2.21503	0	
2.9080	13.6289	2.21503	0	
2.9087	12.1182	2.21503	0	
2.9093	6.3323	2.21503	0	
2.9100	3.56795	2.21503	0	
2.9107	-5.593	2.21503	0	
2.9113	-26.0364	2.21503	0	
2.9120	-29.3793	2.21503	0	
2.9127	-17.7755	2.21503	0	
2.9133	-23.8828	2.21503	0	
2.9140	-34.8759	2.21503	0	
2.9147	-25.7149	2.21503	0	
2.9153	-13.8218	2.21503	0	
2.9160	-12.311	2.21503	0	
2.9167	-10.1574	2.21503	0	
2.9173	-5.88229	2.21503	0	
2.9180	-5.27156	2.21503	0	
2.9187	-5.27156	2.21503	0	
2.9193	-4.37154	2.21503	0	
2.9200	-2.21791	2.21503	0	
2.9207	1.73576	2.21503	0	
2.9213	6.6216	2.21503	0	
2.9220	9.67525	2.21503	0	
2.9227	7.23233	2.21503	0	
2.9233	1.12503	2.21503	0	
2.9240	-0.385724	2.21503	0	
2.9247	1.73576	2.21503	0	
2.9253	2.66793	2.21503	0	
2.9260	0.835736	2.21503	0	
2.9267	-2.53935	2.21503	0	
2.9273	-4.66083	2.21503	0	
2.9280	-11.7003	2.21503	0	
2.9287	-22.6613	2.21503	0	
2.9293	-18.3862	2.21503	0	
2.9300	7.84306	2.21503	0	
2.9307	31.0508	2.21503	0	
2.9313	36.8367	2.21503	0	
2.9320	32.883	2.21503	0	
2.9327	21.8898	2.21503	0	
2.9333	9.06452	2.21503	0	
2.9340	10.5753	2.21503	0	
2.9347	21.8898	2.21503	0	
2.9353	24.6221	2.21503	0	
2.9360	18.2255	2.21503	0	
2.9367	15.4611	2.21503	0	
2.9373	19.1255	2.21503	0	
2.9380	22.5006	2.21503	0	
2.9387	17.6147	2.21503	0	
2.9393	11.5074	2.21503	0	
2.9400	13.3396	1.91655	0	
2.9407	18.2255	3.44036	0	
2.9413	17.6147	3.73884	0	
2.9420	14.5611	4.96417	0	
2.9427	13.3396	6.80218	0	
2.9433	13.6289	6.48799	0	
2.9440	13.6289	3.73884	0	
2.9447	9.67525	0.392735	0	
2.9453	3.56795	-2.35641	0	
2.9460	-0.707161	-4.19441	0	
2.9467	-4.66083	-4.80708	0	
2.9473	-8.93594	-4.19441	0	
2.9480	-14.7539	-2.35641	0	
2.9487	-24.4935	1.30388	0	
2.9493	-30.3115	2.21503	0	
2.9500	-27.5471	0.989693	0	
2.9507	-26.9364	1.60236	0	
2.9513	-34.8759	2.21503	0	
2.9520	-40.3725	-0.219932	0	
2.9527	-39.4724	-0.219932	0	
2.9533	-36.7081	3.12617	0	
2.9540	-34.2652	2.52922	0	
2.9547	-31.5329	-0.219932	0	
2.9553	-28.4793	-0.53412	0	
