0.0000	2.92881	1.34013	1
0.0007	14.2064	1.34013	0	
0.0013	28.2445	1.03448	0	
0.0020	32.8228	0.117555	0	
0.0027	24.9117	-0.188088	0	
0.0033	11.1766	-0.799373	0	
0.0040	-6.22792	0.423198	0	
0.0047	-18.4481	2.86834	0	
0.0053	-21.4779	2.25705	0	
0.0060	-27.9078	0.423198	0	
0.0067	-34.6071	3.17398	0	
0.0073	-28.2108	5.92477	0	
0.0080	-15.6876	5.31348	0	
0.0087	-2.5585	4.39655	0	
0.0093	9.62803	4.7022	0	
0.0100	9.93101	4.39655	0	
0.0107	9.32505	5.00784	0	
0.0113	18.4818	6.84169	0	
0.0120	16.0579	5.92477	0	
0.0127	-1.34658	1.03448	0	
0.0133	-4.41004	-2.93887	0	
0.0140	6.59823	-0.49373	0	
0.0147	15.1153	1.34013	0	
0.0153	20.3333	-0.49373	0	
0.0160	18.4818	-0.799373	0	
0.0167	8.41611	0.423198	0	
0.0173	3.83775	-1.7163	0	
0.0180	6.29525	-3.24451	0	
0.0187	6.29525	-0.49373	0	
0.0193	2.62583	2.86834	0	
0.0200	-3.16446	4.09091	0	
0.0207	-10.8063	5.00784	0	
0.0213	-16.5966	5.00784	0	
0.0220	-20.872	4.39655	0	
0.0227	-26.0563	5.31348	0	
0.0233	-30.3317	5.92477	0	
0.0240	-28.8168	5.00784	0	
0.0247	-24.2384	4.7022	0	
0.0253	-23.3295	6.53605	0	
0.0260	-22.7235	5.00784	0	
0.0267	-16.5966	1.34013	0	
0.0273	-14.1727	1.34013	0	
0.0280	-19.0541	2.5627	0	
0.0287	-20.569	1.64577	0	
0.0293	-14.7787	0.117555	0	
0.0300	-6.5309	-0.799373	0	
0.0307	1.07726	-0.799373	0	
0.0313	3.83775	0.117555	0	
0.0320	10.537	-0.799373	0	
0.0327	30.399	-1.7163	0	
0.0333	49.9244	0.117555	0	
0.0340	56.9266	-0.49373	0	
0.0347	56.9266	-3.24451	0	
0.0353	52.6849	-0.49373	0	
0.0360	44.1341	2.25705	0	
0.0367	37.7042	-3.24451	0	
0.0373	30.399	-7.80564	0	
0.0380	22.4542	-5.07837	0	
0.0387	20.0303	-2.63323	0	
0.0393	13.9034	-3.8558	0	
0.0400	3.53477	-4.77273	0	
0.0407	4.74669	-5.97179	0	
0.0413	3.83775	-6.27743	0	
0.0420	-17.8422	-5.07837	0	
0.0427	-39.1854	-5.97179	0	
0.0433	-36.4586	-8.72257	0	
0.0440	-22.4205	-9.94514	0	
0.0447	-13.5668	-8.72257	0	
0.0453	-8.38245	-5.97179	0	
0.0460	-1.95254	-1.41066	0	
0.0467	2.92881	0.72884	0	
0.0473	5.65563	-1.41066	0	
0.0480	8.41611	-3.8558	0	
0.0487	8.41611	-4.16144	0	
0.0493	4.44371	-5.38401	0	
0.0500	3.23179	-3.8558	0	
0.0507	5.65563	-0.799373	0	
0.0513	3.53477	-1.7163	0	
0.0520	1.71689	-2.02194	0	
0.0527	7.50717	1.34013	0	
0.0533	8.71909	0.117555	0	
0.0540	0.168322	-3.24451	0	
0.0547	-7.13686	-0.188088	0	
0.0553	-12.6242	2.25705	0	
0.0560	-25.4503	-0.49373	0	
0.0567	-35.819	-0.188088	0	
0.0573	-26.3593	5.00784	0	
0.0580	-2.86148	5.92477	0	
0.0587	19.3907	3.17398	0	
0.0593	36.7952	4.09091	0	
0.0600	46.5579	6.84169	0	
0.0607	51.4393	7.75862	0	
0.0613	56.9266	5.92477	0	
0.0620	54.5027	3.17398	0	
0.0627	41.3736	1.03448	0	
0.0633	25.2147	-2.32759	0	
0.0640	2.92881	-4.16144	0	
0.0647	-22.0839	2.5627	0	
0.0653	-37.3675	9.59248	0	
0.0660	-57.8019	5.61912	0	
0.0667	-91.3653	0.117555	0	
0.0673	-102.98	1.95141	0	
0.0680	-76.7213	2.25705	0	
0.0687	-44.6727	2.25705	0	
0.0693	-24.5414	7.75862	0	
0.0700	-9.29139	9.59248	0	
0.0707	2.92881	4.7022	0	
0.0713	10.234	4.09091	0	
0.0720	16.6639	8.06426	0	
0.0727	23.6661	9.28684	0	
0.0733	21.5452	7.45298	0	
0.0740	10.234	5.00784	0	
0.0747	2.92881	2.5627	0	
0.0753	2.92881	-1.10502	0	
0.0760	2.32285	-4.16144	0	
0.0767	-1.64956	-2.02194	0	
0.0773	-9.89735	2.25705	0	
0.0780	-16.2936	0.423198	0	
0.0787	-9.89735	-4.16144	0	
0.0793	-0.437638	-4.77273	0	
0.0800	-3.5011	-4.16144	0	
0.0807	-9.29139	-2.63323	0	
0.0813	-10.2003	-0.49373	0	
0.0820	-9.29139	4.09091	0	
0.0827	0.774282	17.21	0	
0.0833	11.1766	31.2461	0	
0.0840	-0.437638	25.7445	0	
0.0847	-18.1451	7.75862	0	
0.0853	-11.4122	0.117555	0	
0.0860	3.83775	1.95141	0	
0.0867	4.44371	-0.799373	0	
0.0873	1.41391	-4.77273	0	
0.0880	7.20419	-2.63323	0	
0.0887	12.0855	1.03448	0	
0.0893	9.02207	3.17398	0	
0.0900	5.35265	8.98119	0	
0.0907	7.81015	17.21	0	
0.0913	15.452	19.6552	0	
0.0920	19.3907	15.0705	0	
0.0927	18.4818	8.67555	0	
0.0933	16.0579	1.34013	0	
0.0940	14.8124	-2.63323	0	
0.0947	16.9669	-2.02194	0	
0.0953	18.4818	-1.41066	0	
0.0960	13.9034	-2.02194	0	
0.0967	6.59823	-2.32759	0	
0.0973	-1.64956	-3.8558	0	
0.0980	-15.9906	-6.27743	0	
0.0987	-23.0265	-5.07837	0	
0.0993	-17.2025	-3.24451	0	
0.1000	-17.5392	-5.07837	0	
0.1007	-25.7533	-8.72257	0	
0.1013	-21.7809	-8.41693	0	
0.1020	-13.2638	-7.5	0	
0.1027	-13.5668	-9.6395	0	
0.1033	-14.7787	-10.2508	0	
0.1040	-14.4757	-9.6395	0	
0.1047	-15.6876	-11.4734	0	
0.1053	-12.9608	-10.5564	0	
0.1060	-5.62196	-4.16144	0	
0.1067	1.07726	-2.32759	0	
0.1073	7.20419	-5.38401	0	
0.1080	13.9034	-3.8558	0	
0.1087	16.3609	-1.41066	0	
0.1093	11.4796	-2.63323	0	
0.1100	4.74669	-3.8558	0	
0.1107	2.62583	-3.8558	0	
0.1113	3.53477	-4.16144	0	
0.1120	5.65563	-4.46709	0	
0.1127	12.0855	-5.38401	0	
0.1133	18.4818	-5.66615	0	
0.1140	14.8124	-8.11129	0	
0.1147	6.90121	-13.3072	0	
0.1153	8.41611	-15.1411	0	
0.1160	18.4818	-13.6129	0	
0.1167	21.2423	-12.3903	0	
0.1173	9.93101	-8.72257	0	
0.1180	-3.5011	-3.24451	0	
0.1187	-10.8063	-2.32759	0	
0.1193	-13.2638	-4.16144	0	
0.1200	-14.7787	-5.07837	0	
0.1207	-13.2638	-3.55016	0	
0.1213	-7.43984	-2.02194	0	
0.1220	-2.5585	-4.77273	0	
0.1227	-3.16446	-7.80564	0	
0.1233	-7.13686	-5.07837	0	
0.1240	-6.5309	-3.8558	0	
0.1247	-2.25552	-6.88872	0	
0.1253	0.471302	-6.27743	0	
0.1260	3.23179	-4.16144	0	
0.1267	7.50717	-6.58307	0	
0.1273	5.04967	-7.80564	0	
0.1280	-1.34658	-6.27743	0	
0.1287	-0.740618	-5.66615	0	
0.1293	6.29525	-3.8558	0	
0.1300	9.32505	-2.93887	0	
0.1307	10.234	-5.07837	0	
0.1313	11.1766	-4.46709	0	
0.1320	9.93101	-0.799373	0	
0.1327	12.3885	-1.10502	0	
0.1333	21.2423	-3.24451	0	
0.1340	24.2721	-2.02194	0	
0.1347	16.0579	-0.49373	0	
0.1353	2.92881	-1.41066	0	
0.1360	-13.2638	-2.63323	0	
0.1367	-22.0839	-4.16144	0	
0.1373	-8.0458	-3.8558	0	
0.1380	14.8124	-0.799373	0	
0.1387	23.0601	2.25705	0	
0.1393	23.0601	3.47962	0	
0.1400	24.575	2.5627	0	
0.1407	22.7572	1.64577	0	
0.1413	19.3907	3.17398	0	
0.1420	19.0877	5.00784	0	
0.1427	20.3333	4.09091	0	
0.1433	23.6661	2.25705	0	
0.1440	20.0303	4.09091	0	
0.1447	2.01987	6.84169	0	
0.1453	-16.2936	6.23041	0	
0.1460	-31.8802	3.78527	0	
0.1467	-51.1026	2.25705	0	
0.1473	-56.5899	2.25705	0	
0.1480	-46.5243	1.34013	0	
0.1487	-45.6153	2.5627	0	
0.1493	-45.2787	6.23041	0	
0.1500	-26.9989	7.75862	0	
0.1507	-9.89735	8.06426	0	
0.1513	0.168322	9.59248	0	
0.1520	23.3631	9.28684	0	
0.1527	37.7042	6.23041	0	
0.1533	14.8124	6.84169	0	
0.1540	-16.2936	8.67555	0	
0.1547	-22.7235	7.45298	0	
0.1553	-11.1093	8.67555	0	
0.1560	2.01987	12.0141	0	
0.1567	9.32505	9.87461	0	
0.1573	7.50717	6.53605	0	
0.1580	1.07726	8.36991	0	
0.1587	-1.34658	11.4028	0	
0.1593	-1.34658	12.931	0	
0.1600	-0.134658	13.5423	0	
0.1607	3.23179	12.931	0	
0.1613	4.74669	10.4859	0	
0.1620	-0.740618	10.1803	0	
0.1627	-7.43984	10.1803	0	
0.1633	-7.13686	6.23041	0	
0.1640	-1.34658	3.17398	0	
0.1647	2.62583	5.92477	0	
0.1653	2.92881	8.06426	0	
0.1660	2.01987	7.45298	0	
0.1667	2.01987	9.59248	0	
0.1673	4.74669	12.3198	0	
0.1680	9.62803	9.87461	0	
0.1687	8.71909	5.92477	0	
0.1693	4.44371	4.09091	0	
0.1700	6.59823	3.47962	0	
0.1707	9.62803	4.39655	0	
0.1713	3.23179	4.39655	0	
0.1720	-2.5585	4.09091	0	
0.1727	-1.95254	6.53605	0	
0.1733	-5.016	7.75862	0	
0.1740	-8.98841	6.84169	0	
0.1747	-5.62196	6.23041	0	
0.1753	-3.80408	3.78527	0	
0.1760	-7.74282	0.117555	0	
0.1767	-5.31898	2.86834	0	
0.1773	0.471302	3.78527	0	
0.1780	0.168322	-1.10502	0	
0.1787	-1.64956	0.72884	0	
0.1793	1.07726	6.53605	0	
0.1800	7.20419	5.00784	0	
0.1807	11.1766	3.47962	0	
0.1813	11.1766	6.23041	0	
0.1820	9.32505	4.39655	0	
0.1827	4.74669	1.03448	0	
0.1833	-3.16446	1.64577	0	
0.1840	-2.5585	1.64577	0	
0.1847	2.92881	0.423198	0	
0.1853	-0.437638	2.25705	0	
0.1860	-5.31898	5.61912	0	
0.1867	1.07726	5.92477	0	
0.1873	4.14073	3.17398	0	
0.1880	-3.5011	0.72884	0	
0.1887	-7.13686	1.34013	0	
0.1893	-1.34658	1.95141	0	
0.1900	5.04967	3.17398	0	
0.1907	7.81015	5.92477	0	
0.1913	8.11313	3.78527	0	
0.1920	5.65563	-1.10502	0	
0.1927	1.71689	-0.49373	0	
0.1933	1.07726	0.72884	0	
0.1940	2.62583	0.423198	0	
0.1947	0.471302	1.64577	0	
0.1953	-4.41004	1.34013	0	
0.1960	-2.86148	-0.49373	0	
0.1967	0.168322	0.423198	0	
0.1973	-0.437638	-1.41066	0	
0.1980	1.41391	-4.16144	0	
0.1987	5.65563	-0.49373	0	
0.1993	4.74669	1.95141	0	
0.2000	1.07726	-5.07837	0	
0.2007	1.41391	-8.41693	0	
0.2013	1.07726	-3.24451	0	
0.2020	-2.5585	-1.7163	0	
0.2027	-5.31898	-5.07837	0	
0.2033	-5.92494	-6.88872	0	
0.2040	-8.68543	-7.80564	0	
0.2047	-10.2003	-8.11129	0	
0.2053	-5.016	-5.66615	0	
0.2060	2.32285	-4.46709	0	
0.2067	5.65563	-5.97179	0	
0.2073	9.62803	-5.66615	0	
0.2080	15.1153	-5.07837	0	
0.2087	15.755	-7.5	0	
0.2093	13.6004	-7.5	0	
0.2100	15.755	-5.07837	0	
0.2107	16.9669	-4.77273	0	
0.2113	12.9945	-4.16144	0	
0.2120	9.93101	-1.10502	0	
0.2127	9.32505	-1.41066	0	
0.2133	3.83775	-4.16144	0	
0.2140	-7.13686	-4.16144	0	
0.2147	-12.6242	-4.16144	0	
0.2153	-8.98841	-5.07837	0	
0.2160	-3.80408	-0.799373	0	
0.2167	-4.41004	0.423198	0	
0.2173	-7.43984	-5.07837	0	
0.2180	-7.74282	-7.80564	0	
0.2187	-6.22792	-5.07837	0	
0.2193	-6.22792	-5.97179	0	
0.2200	-6.22792	-9.6395	0	
0.2207	-5.016	-10.8621	0	
0.2213	-4.71302	-11.779	0	
0.2220	-4.10706	-11.4734	0	
0.2227	1.71689	-8.11129	0	
0.2233	10.537	-3.55016	0	
0.2240	14.8124	0.117555	0	
0.2247	15.452	1.64577	0	
0.2253	12.0855	1.95141	0	
0.2260	4.14073	1.34013	0	
0.2267	-2.86148	0.117555	0	
0.2273	-2.86148	-1.10502	0	
0.2280	0.471302	-1.41066	0	
0.2287	4.44371	-1.7163	0	
0.2293	11.1766	-0.49373	0	
0.2300	16.6639	0.72884	0	
0.2307	16.0579	-2.63323	0	
0.2313	12.3885	-7.80564	0	
0.2320	8.41611	-9.6395	0	
0.2327	-0.134658	-10.8621	0	
0.2333	-11.7152	-12.3903	0	
0.2340	-11.7152	-7.80564	0	
0.2347	0.168322	-2.02194	0	
0.2353	4.74669	-1.7163	0	
0.2360	-3.5011	-2.93887	0	
0.2367	-12.3212	-3.8558	0	
0.2373	-15.3847	-6.27743	0	
0.2380	-14.4757	-5.97179	0	
0.2387	-12.0182	-4.16144	0	
0.2393	-12.9608	-4.46709	0	
0.2400	-16.2936	-6.58307	0	
0.2407	-11.1093	-7.19436	0	
0.2413	0.168322	-7.5	0	
0.2420	8.71909	-7.5	0	
0.2427	14.2064	-6.88872	0	
0.2433	16.0579	-8.72257	0	
0.2440	15.755	-10.5564	0	
0.2447	14.8124	-11.4734	0	
0.2453	11.1766	-12.3903	0	
0.2460	10.8736	-12.6959	0	
0.2467	10.8736	-10.5564	0	
0.2473	-6.5309	-8.11129	0	
0.2480	-32.4862	-6.88872	0	
0.2487	-39.7914	-5.07837	0	
0.2493	-40.0944	-1.41066	0	
0.2500	-49.8571	-1.10502	0	
0.2507	-49.8571	-4.46709	0	
0.2513	-31.8802	-4.16144	0	
0.2520	-15.6876	-2.63323	0	
0.2527	-9.59437	-5.07837	0	
0.2533	-9.89735	-5.66615	0	
0.2540	-12.3212	-2.32759	0	
0.2547	-9.89735	-2.32759	0	
0.2553	-5.92494	-3.24451	0	
0.2560	-5.016	-0.188088	0	
0.2567	-4.41004	2.25705	0	
0.2573	-5.31898	0.117555	0	
0.2580	-9.89735	-2.32759	0	
0.2587	-14.4757	-2.93887	0	
0.2593	-17.8422	-2.63323	0	
0.2600	-12.6242	-2.93887	0	
0.2607	1.07726	-3.8558	0	
0.2613	5.65563	-3.8558	0	
0.2620	-1.95254	-1.10502	0	
0.2627	-8.0458	0.423198	0	
0.2633	-13.5668	-1.41066	0	
0.2640	-18.1451	-0.799373	0	
0.2647	-12.6242	1.34013	0	
0.2653	-1.64956	0.117555	0	
0.2660	2.62583	-1.10502	0	
0.2667	2.01987	1.64577	0	
0.2673	-1.95254	2.86834	0	
0.2680	-4.41004	2.25705	0	
0.2687	2.32285	3.17398	0	
0.2693	9.93101	1.64577	0	
0.2700	9.93101	-1.41066	0	
0.2707	10.234	-0.49373	0	
0.2713	12.9945	-0.49373	0	
0.2720	10.8736	-3.55016	0	
0.2727	6.59823	-3.24451	0	
0.2733	4.44371	-3.24451	0	
0.2740	5.35265	-5.07837	0	
0.2747	7.50717	-3.55016	0	
0.2753	6.59823	-2.32759	0	
0.2760	1.07726	-5.66615	0	
0.2767	-2.5585	-8.11129	0	
0.2773	-3.80408	-8.11129	0	
0.2780	-6.22792	-8.72257	0	
0.2787	-5.31898	-6.58307	0	
0.2793	-1.34658	-4.16144	0	
0.2800	0.471302	-5.38401	0	
0.2807	1.07726	-6.27743	0	
0.2813	4.14073	-5.07837	0	
0.2820	8.11313	-5.07837	0	
0.2827	12.0855	-5.07837	0	
0.2833	12.9945	-4.77273	0	
0.2840	10.234	-4.46709	0	
0.2847	10.234	-3.55016	0	
0.2853	5.99227	-4.77273	0	
0.2860	-8.0458	-6.58307	0	
0.2867	-18.1451	-3.55016	0	
0.2873	-16.5966	-0.49373	0	
0.2880	-12.9608	-2.63323	0	
0.2887	-5.62196	-2.02194	0	
0.2893	3.83775	0.423198	0	
0.2900	7.20419	-3.24451	0	
0.2907	11.1766	-5.97179	0	
0.2913	19.3907	-3.55016	0	
0.2920	18.1788	-1.7163	0	
0.2927	12.0855	-2.32759	0	
0.2933	13.9034	0.423198	0	
0.2940	16.0579	2.25705	0	
0.2947	12.6915	-0.49373	0	
0.2953	9.62803	-0.49373	0	
0.2960	6.59823	4.39655	0	
0.2967	-4.41004	4.7022	0	
0.2973	-20.266	-0.799373	0	
0.2980	-26.9989	-4.16144	0	
0.2987	-20.266	-4.16144	0	
0.2993	-13.2638	-3.8558	0	
0.3000	-6.5309	-2.32759	0	
0.3007	2.01987	2.86834	0	
0.3013	1.07726	6.23041	0	
0.3020	-9.29139	2.86834	0	
0.3027	-15.9906	-1.41066	0	
0.3033	-19.963	1.03448	0	
0.3040	-20.266	4.09091	0	
0.3047	-3.80408	5.31348	0	
0.3053	16.9669	9.28684	0	
0.3060	20.9393	12.0141	0	
0.3067	13.6004	9.28684	0	
0.3073	8.41611	8.67555	0	
0.3080	7.20419	9.28684	0	
0.3087	10.234	4.09091	0	
0.3093	13.9034	2.5627	0	
0.3100	12.6915	7.14734	0	
0.3107	12.0855	8.06426	0	
0.3113	13.6004	5.92477	0	
0.3120	10.8736	5.61912	0	
0.3127	10.234	3.17398	0	
0.3133	17.2699	1.64577	0	
0.3140	20.9393	5.00784	0	
0.3147	19.0877	7.75862	0	
0.3153	19.6937	5.00784	0	
0.3160	21.2423	1.95141	0	
0.3167	17.5728	1.34013	0	
0.3173	12.0855	3.17398	0	
0.3180	8.41611	3.47962	0	
0.3187	5.65563	0.72884	0	
0.3193	2.01987	-2.32759	0	
0.3200	-1.95254	-2.93887	0	
0.3207	-4.10706	-1.41066	0	
0.3213	-8.98841	1.64577	0	
0.3220	-24.5414	2.86834	0	
0.3227	-40.0944	1.64577	0	
0.3233	-37.9735	3.17398	0	
0.3240	-23.0265	4.09091	0	
0.3247	-12.6242	2.25705	0	
0.3253	-5.62196	4.39655	0	
0.3260	2.32285	6.84169	0	
0.3267	2.62583	2.86834	0	
0.3273	-5.31898	1.34013	0	
0.3280	-0.740618	5.00784	0	
0.3287	18.4818	3.17398	0	
0.3293	30.399	-2.93887	0	
0.3300	27.9415	-4.46709	0	
0.3307	23.0601	-4.46709	0	
0.3313	17.5728	-1.7163	0	
0.3320	14.5094	6.84169	0	
0.3327	17.5728	13.2367	0	
0.3333	16.6639	12.6254	0	
0.3340	9.02207	9.59248	0	
0.3347	6.59823	10.1803	0	
0.3353	9.32505	11.0972	0	
0.3360	9.62803	6.84169	0	
0.3367	8.71909	-0.188088	0	
0.3373	7.50717	-0.799373	0	
0.3380	3.83775	1.64577	0	
0.3387	2.01987	0.423198	0	
0.3393	2.01987	-1.7163	0	
0.3400	1.71689	-1.41066	0	
0.3407	4.14073	-1.41066	0	
0.3413	5.99227	-2.32759	0	
0.3420	0.471302	-1.41066	0	
0.3427	-8.0458	0.72884	0	
0.3433	-10.8063	1.34013	0	
0.3440	-7.43984	-1.7163	0	
0.3447	-4.71302	-2.02194	0	
0.3453	-6.5309	1.03448	0	
0.3460	-10.2003	1.03448	0	
0.3467	-15.0817	1.64577	0	
0.3473	-19.66	5.61912	0	
0.3480	-13.8698	5.31348	0	
0.3487	1.71689	1.95141	0	
0.3493	9.93101	1.34013	0	
0.3500	6.59823	2.25705	0	
0.3507	3.83775	3.17398	0	
0.3513	6.29525	4.09091	0	
0.3520	12.9945	2.86834	0	
0.3527	26.4266	1.64577	0	
0.3533	40.1617	3.17398	0	
0.3540	42.5855	4.7022	0	
0.3547	37.4012	6.23041	0	
0.3553	42.5855	8.67555	0	
0.3560	55.7147	9.59248	0	
0.3567	49.6214	7.75862	0	
0.3573	27.3355	7.75862	0	
0.3580	20.6363	9.28684	0	
0.3587	17.5728	9.28684	0	
0.3593	-3.16446	7.75862	0	
0.3600	-12.9608	6.23041	0	
0.3607	-6.22792	3.17398	0	
0.3613	-26.3593	-0.799373	0	
0.3620	-62.3802	-1.41066	0	
0.3627	-68.7765	-0.49373	0	
0.3633	-53.8295	-2.32759	0	
0.3640	-41.6429	-3.24451	0	
0.3647	-31.2406	-2.63323	0	
0.3653	-30.6346	-4.16144	0	
0.3660	-40.0944	-4.77273	0	
0.3667	-38.8824	-4.16144	0	
0.3673	-26.9989	-5.07837	0	
0.3680	-15.6876	-5.07837	0	
0.3687	-5.31898	-4.16144	0	
0.3693	-1.0436	-5.97179	0	
0.3700	-2.25552	-6.27743	0	
0.3707	0.774282	-2.93887	0	
0.3713	-1.0436	-3.24451	0	
0.3720	-9.89735	-5.07837	0	
0.3727	-3.5011	-3.24451	0	
0.3733	13.9034	-1.41066	0	
0.3740	16.6639	-4.16144	0	
0.3747	8.71909	-5.66615	0	
0.3753	3.83775	-5.66615	0	
0.3760	0.471302	-5.38401	0	
0.3767	-0.437638	-4.16144	0	
0.3773	2.62583	-3.24451	0	
0.3780	4.74669	-4.16144	0	
0.3787	3.23179	-6.58307	0	
0.3793	-7.13686	-5.97179	0	
0.3800	-23.3295	-3.8558	0	
0.3807	-24.5414	-4.16144	0	
0.3813	-13.5668	-6.27743	0	
0.3820	-10.8063	-5.97179	0	
0.3827	-13.5668	-5.97179	0	
0.3833	-13.5668	-6.27743	0	
0.3840	-14.7787	-4.46709	0	
0.3847	-12.9608	-2.32759	0	
0.3853	-5.31898	-2.63323	0	
0.3860	4.74669	-3.55016	0	
0.3867	20.9393	-3.24451	0	
0.3873	32.8228	-1.41066	0	
0.3880	27.3355	2.25705	0	
0.3887	19.3907	2.25705	0	
0.3893	23.9691	0.423198	0	
0.3900	24.9117	1.03448	0	
0.3907	15.452	0.423198	0	
0.3913	9.62803	-2.32759	0	
0.3920	12.6915	-2.32759	0	
0.3927	12.0855	-1.41066	0	
0.3933	1.41391	-4.16144	0	
0.3940	-5.31898	-3.55016	0	
0.3947	-6.22792	0.423198	0	
0.3953	-24.2384	-1.10502	0	
0.3960	-48.6451	-3.24451	0	
0.3967	-39.4884	-2.32759	0	
0.3973	-11.7152	-5.07837	0	
0.3980	-5.31898	-7.80564	0	
0.3987	-6.22792	-3.55016	0	
0.3993	1.07726	-1.41066	0	
0.4000	1.07726	-5.07837	0	
0.4007	0.168322	-3.55016	0	
0.4013	5.04967	0.423198	0	
0.4020	-1.64956	-2.32759	0	
0.4027	-17.2025	-5.07837	0	
0.4033	-19.963	-4.77273	0	
0.4040	-13.5668	-4.16144	0	
0.4047	-8.0458	-4.16144	0	
0.4053	-4.71302	-4.77273	0	
0.4060	-1.64956	-5.07837	0	
0.4067	7.50717	-3.24451	0	
0.4073	27.0326	-1.41066	0	
0.4080	39.2527	-1.7163	0	
0.4087	32.8228	-2.32759	0	
0.4093	24.9117	-5.07837	0	
0.4100	27.6385	-9.33386	0	
0.4107	27.3355	-9.02821	0	
0.4113	20.3333	-6.88872	0	
0.4120	20.9393	-5.97179	0	
0.4127	25.2147	-4.16144	0	
0.4133	18.7848	-2.02194	0	
0.4140	8.71909	-2.93887	0	
0.4147	-6.22792	-1.41066	0	
0.4153	-40.3973	1.34013	0	
0.4160	-71.234	0.423198	0	
0.4167	-67.5646	1.64577	0	
0.4173	-52.3146	7.14734	0	
0.4180	-52.9205	9.59248	0	
0.4187	-49.2511	9.59248	0	
0.4193	-31.5773	12.3198	0	
0.4200	-19.0541	14.1536	0	
0.4207	-15.9906	11.7085	0	
0.4213	-10.8063	8.67555	0	
0.4220	-5.31898	6.23041	0	
0.4227	-4.41004	1.95141	0	
0.4233	-5.62196	-2.93887	0	
0.4240	-7.13686	-5.38401	0	
0.4247	-5.31898	-5.38401	0	
0.4253	0.774282	-3.24451	0	
0.4260	4.44371	1.34013	0	
0.4267	8.41611	5.92477	0	
0.4273	21.8482	7.75862	0	
0.4280	33.1258	6.84169	0	
0.4287	28.8504	5.92477	0	
0.4293	19.3907	5.92477	0	
0.4300	13.2975	5.92477	0	
0.4307	8.41611	6.53605	0	
0.4313	7.81015	7.45298	0	
0.4320	8.71909	7.45298	0	
0.4327	9.32505	5.92477	0	
0.4333	15.755	0.72884	0	
0.4340	22.4542	-6.27743	0	
0.4347	20.6363	-8.72257	0	
0.4353	26.7296	-5.97179	0	
0.4360	45.043	-3.55016	0	
0.4367	55.1087	-1.41066	0	
0.4373	43.8311	0.423198	0	
0.4380	10.234	-2.32759	0	
0.4387	-23.6324	-5.07837	0	
0.4393	-28.2108	-4.46709	0	
0.4400	-23.0265	-4.16144	0	
0.4407	-36.4586	-4.16144	0	
0.4413	-45.9183	-2.32759	0	
0.4420	-42.8548	-3.24451	0	
0.4427	-46.5243	-8.41693	0	
0.4433	-44.0668	-7.80564	0	
0.4440	-23.3295	-3.24451	0	
0.4447	-2.5585	-4.16144	0	
0.4453	16.3609	-7.19436	0	
0.4460	41.9796	-5.07837	0	
0.4467	56.9266	-2.32759	0	
0.4473	56.0176	-3.24451	0	
0.4480	54.5027	-4.77273	0	
0.4487	49.6214	-4.16144	0	
0.4493	36.1893	-4.16144	0	
0.4500	26.4266	-6.27743	0	
0.4507	22.4542	-6.58307	0	
0.4513	12.0855	-3.24451	0	
0.4520	2.62583	1.34013	0	
0.4527	5.04967	2.25705	0	
0.4533	2.32285	1.64577	0	
0.4540	-11.7152	2.5627	0	
0.4547	-15.9906	4.39655	0	
0.4553	-9.29139	5.31348	0	
0.4560	-10.8063	6.84169	0	
0.4567	-18.4481	6.84169	0	
0.4573	-18.4481	2.25705	0	
0.4580	-5.31898	-3.55016	0	
0.4587	15.755	-5.97179	0	
0.4593	24.9117	-5.66615	0	
0.4600	11.4796	-2.32759	0	
0.4607	-3.5011	2.25705	0	
0.4613	-2.5585	2.25705	0	
0.4620	2.92881	0.423198	0	
0.4627	-2.25552	0.423198	0	
0.4633	-10.8063	1.64577	0	
0.4640	-4.10706	2.25705	0	
0.4647	2.62583	2.86834	0	
0.4653	-10.2003	1.34013	0	
0.4660	-23.6324	-1.10502	0	
0.4667	-20.266	0.423198	0	
0.4673	-20.569	3.47962	0	
0.4680	-28.8168	2.25705	0	
0.4687	-28.8168	-1.7163	0	
0.4693	-18.4481	-2.93887	0	
0.4700	-6.5309	-1.41066	0	
0.4707	0.471302	-0.799373	0	
0.4713	1.71689	-3.55016	0	
0.4720	8.11313	-5.66615	0	
0.4727	21.5452	-4.77273	0	
0.4733	33.1258	-3.8558	0	
0.4740	41.9796	-3.55016	0	
0.4747	42.2825	-3.55016	0	
0.4753	27.6385	-4.77273	0	
0.4760	15.452	-5.07837	0	
0.4767	18.4818	-2.93887	0	
0.4773	23.3631	-2.93887	0	
0.4780	22.4542	-4.46709	0	
0.4787	18.1788	-3.55016	0	
0.4793	8.11313	-3.24451	0	
0.4800	-3.5011	-7.5	0	
0.4807	-10.8063	-13.3072	0	
0.4813	-17.2025	-16.058	0	
0.4820	-17.8422	-13.3072	0	
0.4827	-7.13686	-8.41693	0	
0.4833	0.168322	-4.77273	0	
0.4840	-7.13686	-2.63323	0	
0.4847	-22.0839	-1.7163	0	
0.4853	-37.3675	-2.93887	0	
0.4860	-40.7003	-3.24451	0	
0.4867	-19.963	-1.10502	0	
0.4873	12.6915	-0.799373	0	
0.4880	39.8587	-1.7163	0	
0.4887	55.1087	-1.7163	0	
0.4893	56.9266	-2.32759	0	
0.4900	54.5027	-1.41066	0	
0.4907	55.1087	1.34013	0	
0.4913	43.1915	1.34013	0	
0.4920	18.7848	-0.49373	0	
0.4927	-2.25552	-1.10502	0	
0.4933	-36.4586	-3.24451	0	
0.4940	-88.6385	-4.16144	0	
0.4947	-114.257	-0.799373	0	
0.4953	-100.219	1.03448	0	
0.4960	-81.2996	-0.799373	0	
0.4967	-68.7765	-3.24451	0	
0.4973	-55.378	-5.38401	0	
0.4980	-49.8571	-5.07837	0	
0.4987	-52.6175	-2.63323	0	
0.4993	-48.9481	-1.7163	0	
0.5000	-35.516	-0.188088	0	
0.5007	-21.4779	3.47962	0	
0.5013	-15.6876	4.09091	0	
0.5020	-15.3847	2.86834	0	
0.5027	-11.7152	2.5627	0	
0.5033	-9.89735	-2.32759	0	
0.5040	-16.5966	-9.02821	0	
0.5047	-16.8996	-10.2508	0	
0.5053	-3.16446	-9.33386	0	
0.5060	7.20419	-8.72257	0	
0.5067	7.20419	-4.77273	0	
0.5073	9.93101	-1.10502	0	
0.5080	16.0579	-0.49373	0	
0.5087	22.1512	2.25705	0	
0.5093	34.9774	7.75862	0	
0.5100	51.4393	12.3198	0	
0.5107	53.2908	17.5157	0	
0.5113	40.7676	17.8213	0	
0.5120	30.399	11.0972	0	
0.5127	16.6639	5.31348	0	
0.5133	-11.1093	4.09091	0	
0.5140	-34.3041	4.09091	0	
0.5147	-28.2108	6.84169	0	
0.5153	-9.29139	8.67555	0	
0.5160	-2.5585	7.14734	0	
0.5167	0.774282	8.36991	0	
0.5173	13.2975	9.59248	0	
0.5180	21.8482	6.53605	0	
0.5187	22.1512	5.92477	0	
0.5193	23.9691	7.14734	0	
0.5200	22.1512	5.92477	0	
0.5207	12.0855	7.75862	0	
0.5213	2.92881	10.1803	0	
0.5220	-0.740618	6.23041	0	
0.5227	-0.740618	5.00784	0	
0.5233	-2.25552	8.67555	0	
0.5240	-13.5668	6.23041	0	
0.5247	-27.9078	2.25705	0	
0.5253	-30.3317	6.84169	0	
0.5260	-30.3317	12.931	0	
0.5267	-33.3951	12.3198	0	
0.5273	-20.872	10.4859	0	
0.5280	4.14073	10.4859	0	
0.5287	15.755	9.28684	0	
0.5293	13.2975	6.23041	0	
0.5300	14.5094	6.84169	0	
0.5307	15.755	10.1803	0	
0.5313	7.81015	8.98119	0	
0.5320	-3.5011	5.92477	0	
0.5327	-9.89735	6.23041	0	
0.5333	-11.7152	8.36991	0	
0.5340	-11.7152	10.4859	0	
0.5347	-8.98841	12.3198	0	
0.5353	-5.31898	10.4859	0	
0.5360	-5.92494	6.84169	0	
0.5367	-8.0458	6.23041	0	
0.5373	-6.83388	6.84169	0	
0.5380	-4.41004	6.53605	0	
0.5387	-6.22792	6.84169	0	
0.5393	-7.74282	6.84169	0	
0.5400	-4.41004	5.61912	0	
0.5407	-0.134658	3.47962	0	
0.5413	-0.740618	2.5627	0	
0.5420	-5.016	3.78527	0	
0.5427	-3.80408	3.17398	0	
0.5433	2.92881	0.423198	0	
0.5440	6.59823	-0.188088	0	
0.5447	6.59823	0.117555	0	
0.5453	9.32505	-3.24451	0	
0.5460	11.1766	-5.07837	0	
0.5467	12.6915	-4.16144	0	
0.5473	22.1512	-4.46709	0	
0.5480	29.4901	-5.07837	0	
0.5487	20.0303	-5.38401	0	
0.5493	10.537	-7.5	0	
0.5500	17.2699	-6.58307	0	
0.5507	25.8206	-3.24451	0	
0.5513	27.0326	-5.07837	0	
0.5520	24.9117	-8.72257	0	
0.5527	19.0877	-5.07837	0	
0.5533	17.2699	-2.63323	0	
0.5540	24.575	-6.27743	0	
0.5547	25.5177	-9.6395	0	
0.5553	13.9034	-10.5564	0	
0.5560	3.23179	-13.3072	0	
0.5567	-0.740618	-13.9185	0	
0.5573	-0.134658	-11.779	0	
0.5580	0.168322	-11.4734	0	
0.5587	-4.41004	-12.0846	0	
0.5593	-7.74282	-11.4734	0	
0.5600	-4.10706	-11.779	0	
0.5607	-1.64956	-12.0846	0	
0.5613	-3.5011	-11.4734	0	
0.5620	-2.25552	-10.5564	0	
0.5627	0.774282	-9.02821	0	
0.5633	2.32285	-8.41693	0	
0.5640	3.83775	-9.6395	0	
0.5647	3.53477	-10.2508	0	
0.5653	3.83775	-10.2508	0	
0.5660	3.23179	-11.779	0	
0.5667	0.168322	-9.94514	0	
0.5673	-0.134658	-4.77273	0	
0.5680	4.14073	-4.46709	0	
0.5687	9.32505	-6.88872	0	
0.5693	14.2064	-4.16144	0	
0.5700	16.6639	-2.32759	0	
0.5707	12.9945	-6.27743	0	
0.5713	9.62803	-7.80564	0	
0.5720	9.62803	-4.46709	0	
0.5727	9.02207	-3.24451	0	
0.5733	8.71909	-3.8558	0	
0.5740	10.234	-3.24451	0	
0.5747	8.71909	-4.16144	0	
0.5753	4.44371	-5.07837	0	
0.5760	1.07726	-1.7163	0	
0.5767	-1.34658	-1.10502	0	
0.5773	-1.95254	-4.16144	0	
0.5780	-4.41004	-2.93887	0	
0.5787	-8.98841	0.72884	0	
0.5793	-8.68543	-1.41066	0	
0.5800	-3.80408	-3.55016	0	
0.5807	-1.64956	0.72884	0	
0.5813	-2.86148	3.47962	0	
0.5820	-5.62196	1.34013	0	
0.5827	-9.89735	-1.10502	0	
0.5833	-10.5033	-3.24451	0	
0.5840	-6.22792	-6.88872	0	
0.5847	-6.5309	-8.72257	0	
0.5853	-10.5033	-9.33386	0	
0.5860	-7.74282	-9.33386	0	
0.5867	0.774282	-6.27743	0	
0.5873	2.92881	-2.93887	0	
0.5880	0.168322	-3.55016	0	
0.5887	1.07726	-5.97179	0	
0.5893	5.04967	-5.97179	0	
0.5900	7.20419	-4.46709	0	
0.5907	9.02207	-4.16144	0	
0.5913	11.1766	-4.46709	0	
0.5920	10.234	-6.27743	0	
0.5927	8.41611	-5.97179	0	
0.5933	7.81015	-2.63323	0	
0.5940	5.35265	0.117555	0	
0.5947	1.71689	1.03448	0	
0.5953	1.71689	2.25705	0	
0.5960	2.01987	2.5627	0	
0.5967	-0.134658	1.34013	0	
0.5973	-3.5011	4.39655	0	
0.5980	-5.31898	7.45298	0	
0.5987	-6.22792	4.09091	0	
0.5993	-7.74282	3.17398	0	
0.6000	-10.8063	6.53605	0	
0.6007	-11.7152	4.09091	0	
0.6013	-10.8063	-1.41066	0	
0.6020	-13.8698	-1.41066	0	
0.6027	-15.3847	-0.49373	0	
0.6033	-9.89735	-2.93887	0	
0.6040	-6.22792	-4.16144	0	
0.6047	-5.31898	-4.77273	0	
0.6053	-0.740618	-5.66615	0	
0.6060	3.23179	-4.77273	0	
0.6067	1.41391	-4.16144	0	
0.6073	-0.134658	-4.77273	0	
0.6080	0.168322	-5.66615	0	
0.6087	1.41391	-6.88872	0	
0.6093	3.83775	-7.80564	0	
0.6100	5.04967	-6.88872	0	
0.6107	4.44371	-5.07837	0	
0.6113	2.62583	-4.16144	0	
0.6120	-1.0436	-2.32759	0	
0.6127	-1.95254	0.72884	0	
0.6133	1.41391	3.47962	0	
0.6140	1.71689	4.7022	0	
0.6147	-0.740618	5.92477	0	
0.6153	-0.437638	7.14734	0	
0.6160	-1.64956	6.53605	0	
0.6167	-4.71302	5.61912	0	
0.6173	-4.41004	7.45298	0	
0.6180	-2.86148	9.28684	0	
0.6187	-5.92494	8.67555	0	
0.6193	-9.29139	8.98119	0	
0.6200	-10.5033	10.1803	0	
0.6207	-8.98841	10.1803	0	
0.6213	-5.62196	12.3198	0	
0.6220	-3.5011	14.1536	0	
0.6227	-5.31898	11.4028	0	
0.6233	-7.13686	8.98119	0	
0.6240	-5.92494	10.7915	0	
0.6247	-2.86148	10.4859	0	
0.6253	-1.34658	6.84169	0	
0.6260	-2.5585	5.00784	0	
0.6267	-3.5011	4.39655	0	
0.6273	-0.740618	3.17398	0	
0.6280	3.23179	4.09091	0	
0.6287	7.50717	4.39655	0	
0.6293	8.41611	2.25705	0	
0.6300	5.35265	0.117555	0	
0.6307	2.92881	0.117555	0	
0.6313	7.81015	-0.188088	0	
0.6320	13.2975	-1.10502	0	
0.6327	12.9945	-0.49373	0	
0.6333	9.93101	0.72884	0	
0.6340	8.41611	0.72884	0	
0.6347	10.537	2.25705	0	
0.6353	12.3885	3.47962	0	
0.6360	7.20419	0.423198	0	
0.6367	1.07726	-1.7163	0	
0.6373	3.23179	-0.49373	0	
0.6380	4.14073	-0.799373	0	
0.6387	-0.437638	-1.10502	0	
0.6393	-1.95254	-0.49373	0	
0.6400	-8.0458	-3.55016	0	
0.6407	-23.9354	-7.5	0	
0.6413	-30.3317	-6.27743	0	
0.6420	-19.3571	-4.16144	0	
0.6427	-9.89735	-4.16144	0	
0.6433	-8.98841	-4.16144	0	
0.6440	-9.89735	-1.41066	0	
0.6447	-10.8063	-0.49373	0	
0.6453	-10.8063	-1.41066	0	
0.6460	-6.83388	-3.24451	0	
0.6467	-0.740618	-3.8558	0	
0.6473	1.07726	-1.7163	0	
0.6480	0.168322	1.34013	0	
0.6487	3.83775	1.03448	0	
0.6493	9.32505	-1.7163	0	
0.6500	10.234	-2.32759	0	
0.6507	9.62803	-0.49373	0	
0.6513	11.1766	-0.188088	0	
0.6520	10.537	-1.41066	0	
0.6527	8.71909	0.117555	0	
0.6533	9.32505	1.95141	0	
0.6540	9.02207	1.34013	0	
0.6547	10.537	0.423198	0	
0.6553	13.9034	1.64577	0	
0.6560	10.234	0.72884	0	
0.6567	2.01987	-1.41066	0	
0.6573	1.71689	-0.188088	0	
0.6580	3.53477	0.72884	0	
0.6587	0.168322	-0.799373	0	
0.6593	-2.86148	-1.41066	0	
0.6600	-5.31898	0.72884	0	
0.6607	-8.98841	3.78527	0	
0.6613	-6.22792	6.84169	0	
0.6620	1.71689	6.84169	0	
0.6627	-1.34658	2.86834	0	
0.6633	-13.5668	-0.188088	0	
0.6640	-17.2025	-1.7163	0	
0.6647	-12.6242	-4.16144	0	
0.6653	-8.98841	-3.24451	0	
0.6660	-4.41004	0.423198	0	
0.6667	-1.34658	-0.799373	0	
0.6673	1.07726	-6.27743	0	
0.6680	8.41611	-7.80564	0	
0.6687	11.1766	-5.07837	0	
0.6693	3.83775	-5.38401	0	
0.6700	1.71689	-8.41693	0	
0.6707	10.234	-9.02821	0	
0.6713	14.5094	-7.19436	0	
0.6720	11.1766	-6.58307	0	
0.6727	11.1766	-7.5	0	
0.6733	14.2064	-8.41693	0	
0.6740	15.755	-7.19436	0	
0.6747	17.5728	-5.07837	0	
0.6753	16.3609	-5.07837	0	
0.6760	3.23179	-9.6395	0	
0.6767	-14.4757	-11.779	0	
0.6773	-23.0265	-7.80564	0	
0.6780	-24.8444	-4.46709	0	
0.6787	-25.7533	-4.77273	0	
0.6793	-19.963	-6.27743	0	
0.6800	-11.1093	-8.41693	0	
0.6807	-14.1727	-9.6395	0	
0.6813	-19.3571	-8.41693	0	
0.6820	-8.98841	-7.19436	0	
0.6827	4.74669	-7.19436	0	
0.6833	8.41611	-6.58307	0	
0.6840	11.1766	-4.77273	0	
0.6847	14.8124	-3.8558	0	
0.6853	12.3885	-2.93887	0	
0.6860	9.62803	-1.41066	0	
0.6867	11.4796	-1.7163	0	
0.6873	14.5094	-2.02194	0	
0.6880	13.6004	0.72884	0	
0.6887	-0.740618	4.09091	0	
0.6893	-25.4503	2.5627	0	
0.6900	-37.3675	0.117555	0	
0.6907	-35.516	2.25705	0	
0.6913	-35.213	6.53605	0	
0.6920	-31.5773	7.45298	0	
0.6927	-20.569	5.00784	0	
0.6933	-11.7152	3.47962	0	
0.6940	-6.22792	6.23041	0	
0.6947	-0.437638	8.06426	0	
0.6953	-0.740618	6.23041	0	
0.6960	-4.41004	4.7022	0	
0.6967	-5.62196	4.09091	0	
0.6973	-2.86148	2.25705	0	
0.6980	2.62583	2.25705	0	
0.6987	3.83775	5.00784	0	
0.6993	-0.740618	5.00784	0	
0.7000	-2.86148	3.17398	0	
0.7007	-4.10706	2.86834	0	
0.7013	-9.89735	2.5627	0	
0.7020	-11.7152	1.64577	0	
0.7027	-8.38245	0.423198	0	
0.7033	-7.43984	-2.02194	0	
0.7040	-4.41004	-2.02194	0	
0.7047	-4.41004	0.117555	0	
0.7053	-16.5966	-2.32759	0	
0.7060	-24.5414	-5.66615	0	
0.7067	-13.5668	-3.55016	0	
0.7073	0.168322	-0.799373	0	
0.7080	3.83775	-4.16144	0	
0.7087	3.53477	-5.97179	0	
0.7093	2.92881	-5.07837	0	
0.7100	3.23179	-5.07837	0	
0.7107	6.29525	-5.66615	0	
0.7113	9.62803	-4.16144	0	
0.7120	10.537	-4.16144	0	
0.7127	11.1766	-3.8558	0	
0.7133	14.2064	-1.41066	0	
0.7140	14.2064	-2.32759	0	
0.7147	6.59823	-6.58307	0	
0.7153	-2.5585	-5.97179	0	
0.7160	-3.5011	-3.55016	0	
0.7167	0.774282	-5.66615	0	
0.7173	0.471302	-7.80564	0	
0.7180	-3.5011	-5.97179	0	
0.7187	-2.25552	-4.46709	0	
0.7193	1.41391	-6.27743	0	
0.7200	-1.64956	-6.88872	0	
0.7207	-7.43984	-6.58307	0	
0.7213	-10.2003	-7.80564	0	
0.7220	-9.89735	-7.5	0	
0.7227	-0.134658	-4.16144	0	
0.7233	12.6915	-0.799373	0	
0.7240	11.4796	-0.49373	0	
0.7247	3.53477	-0.799373	0	
0.7253	3.83775	-0.49373	0	
0.7260	4.14073	0.117555	0	
0.7267	0.774282	-0.49373	0	
0.7273	5.04967	-0.188088	0	
0.7280	12.0855	1.64577	0	
0.7287	12.6915	3.17398	0	
0.7293	12.9945	2.86834	0	
0.7300	11.7826	1.64577	0	
0.7307	5.99227	3.17398	0	
0.7313	4.44371	6.23041	0	
0.7320	7.50717	5.00784	0	
0.7327	10.537	2.86834	0	
0.7333	16.0579	5.61912	0	
0.7340	18.7848	8.06426	0	
0.7347	9.93101	4.7022	0	
0.7353	3.83775	3.17398	0	
0.7360	11.4796	6.84169	0	
0.7367	14.8124	8.06426	0	
0.7373	6.59823	5.92477	0	
0.7380	2.32285	5.92477	0	
0.7387	2.92881	8.67555	0	
0.7393	1.71689	10.7915	0	
0.7400	2.32285	11.4028	0	
0.7407	5.65563	9.87461	0	
0.7413	6.90121	8.67555	0	
0.7420	5.65563	8.98119	0	
0.7427	2.01987	9.87461	0	
0.7433	-2.86148	10.4859	0	
0.7440	-6.22792	9.59248	0	
0.7447	-12.3212	5.92477	0	
0.7453	-19.963	2.5627	0	
0.7460	-18.1451	3.17398	0	
0.7467	-10.2003	6.53605	0	
0.7473	-7.43984	9.59248	0	
0.7480	-8.0458	9.59248	0	
0.7487	-5.016	7.75862	0	
0.7493	-0.134658	5.31348	0	
0.7500	1.41391	4.7022	0	
0.7507	2.01987	4.7022	0	
0.7513	6.59823	3.47962	0	
0.7520	9.62803	2.25705	0	
0.7527	3.23179	3.47962	0	
0.7533	-3.5011	5.00784	0	
0.7540	-0.740618	5.00784	0	
0.7547	2.92881	6.23041	0	
0.7553	1.71689	8.67555	0	
0.7560	-0.437638	8.98119	0	
0.7567	-4.41004	6.23041	0	
0.7573	-9.59437	4.7022	0	
0.7580	-8.0458	5.00784	0	
0.7587	-3.80408	4.09091	0	
0.7593	-6.22792	1.34013	0	
0.7600	-9.89735	1.03448	0	
0.7607	-11.4122	1.34013	0	
0.7613	-14.4757	-2.32759	0	
0.7620	-14.4757	-5.97179	0	
0.7627	-10.5033	-5.07837	0	
0.7633	-10.8063	-3.55016	0	
0.7640	-12.6242	-4.16144	0	
0.7647	-9.29139	-6.58307	0	
0.7653	-5.016	-7.80564	0	
0.7660	-1.64956	-7.19436	0	
0.7667	3.83775	-5.07837	0	
0.7673	6.90121	-2.63323	0	
0.7680	7.20419	0.423198	0	
0.7687	9.32505	2.86834	0	
0.7693	12.0855	1.03448	0	
0.7700	13.9034	-2.63323	0	
0.7707	17.2699	-2.93887	0	
0.7713	18.4818	-0.799373	0	
0.7720	15.452	-0.49373	0	
0.7727	14.5094	-1.10502	0	
0.7733	16.6639	-1.41066	0	
0.7740	10.8736	-0.799373	0	
0.7747	-7.43984	0.117555	0	
0.7753	-25.7533	-1.10502	0	
0.7760	-28.2108	-2.93887	0	
0.7767	-19.0541	-2.02194	0	
0.7773	-13.2638	-1.10502	0	
0.7780	-12.0182	-3.24451	0	
0.7787	-10.8063	-3.24451	0	
0.7793	-10.5033	0.117555	0	
0.7800	-11.4122	-0.49373	0	
0.7807	-12.9608	-3.8558	0	
0.7813	-13.5668	-4.16144	0	
0.7820	-10.2003	-5.38401	0	
0.7827	-8.38245	-7.19436	0	
0.7833	-8.98841	-6.27743	0	
0.7840	-2.86148	-5.66615	0	
0.7847	2.01987	-5.38401	0	
0.7853	-3.80408	-4.16144	0	
0.7860	-6.5309	-4.77273	0	
0.7867	0.168322	-7.19436	0	
0.7873	1.41391	-5.97179	0	
0.7880	2.01987	-1.41066	0	
0.7887	9.02207	2.25705	0	
0.7893	12.9945	3.78527	0	
0.7900	20.0303	4.39655	0	
0.7907	34.3714	4.7022	0	
0.7913	40.1617	5.61912	0	
0.7920	38.3101	8.36991	0	
0.7927	39.5557	8.67555	0	
0.7933	34.6744	3.17398	0	
0.7940	20.6363	-2.93887	0	
0.7947	10.8736	-4.16144	0	
0.7953	7.20419	-4.16144	0	
0.7960	1.71689	-4.16144	0	
0.7967	-9.29139	-1.41066	0	
0.7973	-17.2025	1.03448	0	
0.7980	-15.3847	0.423198	0	
0.7987	-17.8422	-0.49373	0	
0.7993	-29.1197	-0.49373	0	
0.8000	-28.5138	-1.7163	0	
0.8007	-16.8996	-2.02194	0	
0.8013	-10.8063	-1.41066	0	
0.8020	-5.92494	-0.49373	0	
0.8027	-0.134658	-0.49373	0	
0.8033	-3.5011	-2.32759	0	
0.8040	-6.22792	-3.8558	0	
0.8047	-0.437638	-3.24451	0	
0.8053	3.53477	-1.7163	0	
0.8060	2.01987	-2.02194	0	
0.8067	1.41391	-2.32759	0	
0.8073	2.92881	-2.32759	0	
0.8080	4.74669	-1.41066	0	
0.8087	6.29525	-1.41066	0	
0.8093	7.50717	-2.32759	0	
0.8100	9.02207	-2.32759	0	
0.8107	8.41611	-2.32759	0	
0.8113	9.02207	-3.24451	0	
0.8120	12.3885	-3.55016	0	
0.8127	13.9034	-2.32759	0	
0.8133	12.9945	-3.8558	0	
0.8140	12.3885	-5.07837	0	
0.8147	6.59823	-4.16144	0	
0.8153	-0.134658	-4.46709	0	
0.8160	0.774282	-6.58307	0	
0.8167	3.53477	-5.38401	0	
0.8173	2.92881	-3.24451	0	
0.8180	3.83775	-2.63323	0	
0.8187	0.471302	-2.02194	0	
0.8193	-8.98841	-0.49373	0	
0.8200	-10.2003	-1.10502	0	
0.8207	-2.5585	-2.93887	0	
0.8213	-2.5585	-4.16144	0	
0.8220	-7.74282	-4.77273	0	
0.8227	-9.29139	-5.38401	0	
0.8233	-8.68543	-5.38401	0	
0.8240	-3.80408	-5.07837	0	
0.8247	1.07726	-5.07837	0	
0.8253	-3.5011	-4.16144	0	
0.8260	-10.2003	-3.24451	0	
0.8267	-7.43984	-1.41066	0	
0.8273	-1.95254	-0.49373	0	
0.8280	-0.740618	-0.188088	0	
0.8287	-1.0436	-0.188088	0	
0.8293	-1.64956	0.423198	0	
0.8300	0.168322	0.117555	0	
0.8307	3.83775	-2.02194	0	
0.8313	5.04967	-3.24451	0	
0.8320	4.44371	-1.41066	0	
0.8327	3.83775	0.423198	0	
0.8333	4.74669	0.423198	0	
0.8340	8.41611	0.423198	0	
0.8347	9.62803	0.117555	0	
0.8353	2.01987	-2.63323	0	
0.8360	-4.10706	-4.77273	0	
0.8367	-1.64956	-4.46709	0	
0.8373	-2.25552	-4.16144	0	
0.8380	-6.83388	-3.55016	0	
0.8387	-6.22792	-1.7163	0	
0.8393	-2.5585	-2.02194	0	
0.8400	-2.5585	-2.02194	0	
0.8407	-4.10706	0.72884	0	
0.8413	-5.62196	3.17398	0	
0.8420	-8.38245	4.09091	0	
0.8427	-8.98841	4.09091	0	
0.8433	-8.0458	3.17398	0	
0.8440	-8.0458	2.86834	0	
0.8447	-3.16446	1.03448	0	
0.8453	10.234	-2.63323	0	
0.8460	17.8758	-3.24451	0	
0.8467	12.0855	0.423198	0	
0.8473	5.65563	2.25705	0	
0.8480	6.59823	3.47962	0	
0.8487	9.32505	5.00784	0	
0.8493	10.537	4.39655	0	
0.8500	10.537	5.00784	0	
0.8507	2.92881	5.00784	0	
0.8513	-8.98841	2.25705	0	
0.8520	-15.0817	0.72884	0	
0.8527	-12.9608	1.95141	0	
0.8533	-6.5309	0.72884	0	
0.8540	-0.740618	-0.49373	0	
0.8547	0.168322	-0.799373	0	
0.8553	-0.134658	-1.41066	0	
0.8560	1.41391	-0.49373	0	
0.8567	2.92881	0.423198	0	
0.8573	1.71689	-1.10502	0	
0.8580	-1.0436	-2.02194	0	
0.8587	-3.5011	-2.02194	0	
0.8593	-3.16446	-4.16144	0	
0.8600	-2.5585	-5.66615	0	
0.8607	-3.16446	-5.07837	0	
0.8613	-2.86148	-6.58307	0	
0.8620	-4.41004	-7.80564	0	
0.8627	-6.5309	-6.88872	0	
0.8633	-3.5011	-6.27743	0	
0.8640	0.168322	-6.88872	0	
0.8647	-1.64956	-5.07837	0	
0.8653	-3.16446	-4.16144	0	
0.8660	-1.64956	-5.07837	0	
0.8667	-1.64956	-4.46709	0	
0.8673	-1.0436	-3.55016	0	
0.8680	4.74669	-4.16144	0	
0.8687	9.93101	-3.24451	0	
0.8693	9.32505	-1.7163	0	
0.8700	7.50717	-2.32759	0	
0.8707	8.11313	-0.188088	0	
0.8713	8.11313	3.47962	0	
0.8720	5.99227	0.72884	0	
0.8727	2.92881	-2.02194	0	
0.8733	2.01987	0.117555	0	
0.8740	2.92881	-0.49373	0	
0.8747	1.41391	-2.32759	0	
0.8753	-0.740618	0.423198	0	
0.8760	-1.0436	2.25705	0	
0.8767	-1.95254	-0.49373	0	
0.8773	-5.62196	-2.02194	0	
0.8780	-8.0458	-1.41066	0	
0.8787	-8.98841	0.72884	0	
0.8793	-10.2003	2.5627	0	
0.8800	-5.92494	0.72884	0	
0.8807	6.29525	0.117555	0	
0.8813	16.0579	3.17398	0	
0.8820	16.3609	2.25705	0	
0.8827	9.32505	-0.49373	0	
0.8833	-1.34658	1.64577	0	
0.8840	-8.68543	5.00784	0	
0.8847	-6.22792	3.47962	0	
0.8853	-4.41004	0.117555	0	
0.8860	-8.98841	0.117555	0	
0.8867	-9.29139	4.39655	0	
0.8873	-5.31898	9.28684	0	
0.8880	-5.31898	10.7915	0	
0.8887	-3.5011	12.3198	0	
0.8893	2.92881	15.0705	0	
0.8900	6.59823	15.0705	0	
0.8907	9.93101	13.5423	0	
0.8913	18.4818	13.2367	0	
0.8920	24.9117	13.848	0	
0.8927	25.8206	13.848	0	
0.8933	25.5177	13.2367	0	
0.8940	23.9691	11.7085	0	
0.8947	16.9669	10.1803	0	
0.8953	2.01987	10.4859	0	
0.8960	-16.8996	9.59248	0	
0.8967	-33.0922	5.92477	0	
0.8973	-46.8273	3.17398	0	
0.8980	-52.0116	5.00784	0	
0.8987	-41.3399	5.92477	0	
0.8993	-26.3593	3.17398	0	
0.9000	-21.7809	0.117555	0	
0.9007	-20.872	-0.799373	0	
0.9013	-19.0541	-0.49373	0	
0.9020	-17.8422	0.72884	0	
0.9027	-15.6876	1.64577	0	
0.9033	-13.8698	-0.49373	0	
0.9040	-12.9608	-1.41066	0	
0.9047	-8.98841	1.64577	0	
0.9053	-3.16446	2.86834	0	
0.9060	-3.16446	1.03448	0	
0.9067	-5.31898	2.25705	0	
0.9073	-3.16446	5.00784	0	
0.9080	4.74669	5.31348	0	
0.9087	13.6004	5.61912	0	
0.9093	14.8124	6.23041	0	
0.9100	7.50717	3.47962	0	
0.9107	2.92881	1.34013	0	
0.9113	5.65563	3.17398	0	
0.9120	11.1766	5.92477	0	
0.9127	11.7826	6.23041	0	
0.9133	9.62803	5.00784	0	
0.9140	9.32505	2.86834	0	
0.9147	8.71909	1.34013	0	
0.9153	6.29525	1.64577	0	
0.9160	6.59823	3.17398	0	
0.9167	8.11313	3.47962	0	
0.9173	6.59823	2.25705	0	
0.9180	3.83775	0.423198	0	
0.9187	2.92881	-0.188088	0	
0.9193	2.92881	-1.10502	0	
0.9200	3.83775	-2.32759	0	
0.9207	1.07726	-2.32759	0	
0.9213	-5.62196	-1.10502	0	
0.9220	-7.43984	0.117555	0	
0.9227	-4.41004	-0.49373	0	
0.9233	-2.86148	-3.55016	0	
0.9240	-1.0436	-6.58307	0	
0.9247	3.53477	-8.72257	0	
0.9253	8.71909	-9.02821	0	
0.9260	14.8124	-8.11129	0	
0.9267	20.9393	-5.97179	0	
0.9273	19.3907	-7.19436	0	
0.9280	12.0855	-10.5564	0	
0.9287	10.234	-11.4734	0	
0.9293	15.755	-9.6395	0	
0.9300	17.2699	-10.2508	0	
0.9307	13.9034	-9.6395	0	
0.9313	14.8124	-8.11129	0	
0.9320	16.9669	-10.5564	0	
0.9327	12.0855	-13.6129	0	
0.9333	7.81015	-11.4734	0	
0.9340	11.7826	-6.58307	0	
0.9347	14.2064	-4.46709	0	
0.9353	10.234	-5.66615	0	
0.9360	6.90121	-6.58307	0	
0.9367	6.90121	-6.27743	0	
0.9373	6.29525	-7.5	0	
0.9380	6.29525	-8.72257	0	
0.9387	5.65563	-6.88872	0	
0.9393	-0.740618	-6.58307	0	
0.9400	-8.38245	-12.0846	0	
0.9407	-10.5033	-12.3903	0	
0.9413	-9.89735	-8.72257	0	
0.9420	-11.4122	-10.2508	0	
0.9427	-12.0182	-12.3903	0	
0.9433	-11.4122	-9.94514	0	
0.9440	-11.4122	-10.5564	0	
0.9447	-9.89735	-10.8621	0	
0.9453	-8.0458	-6.88872	0	
0.9460	-7.13686	-6.88872	0	
0.9467	-5.31898	-8.72257	0	
0.9473	-2.86148	-6.58307	0	
0.9480	-2.25552	-5.66615	0	
0.9487	-2.25552	-8.72257	0	
0.9493	-1.64956	-10.5564	0	
0.9500	-0.740618	-12.0846	0	
0.9507	1.07726	-11.4734	0	
0.9513	-0.437638	-6.88872	0	
0.9520	-3.5011	-5.66615	0	
0.9527	-1.34658	-8.11129	0	
0.9533	2.92881	-5.66615	0	
0.9540	2.01987	-1.41066	0	
0.9547	0.168322	-2.93887	0	
0.9553	2.32285	-3.8558	0	
0.9560	2.62583	-0.188088	0	
0.9567	-2.5585	1.34013	0	
0.9573	-6.5309	-1.10502	0	
0.9580	-3.16446	-0.49373	0	
0.9587	2.01987	1.95141	0	
0.9593	4.74669	2.25705	0	
0.9600	5.65563	1.03448	0	
0.9607	5.04967	1.34013	0	
0.9613	0.471302	1.34013	0	
0.9620	-3.5011	1.03448	0	
0.9627	-3.5011	1.64577	0	
0.9633	-3.5011	3.17398	0	
0.9640	-5.31898	4.09091	0	
0.9647	-9.89735	5.00784	0	
0.9653	-17.2025	3.78527	0	
0.9660	-21.4779	1.64577	0	
0.9667	-20.872	1.34013	0	
0.9673	-15.0817	0.117555	0	
0.9680	-1.95254	-1.7163	0	
0.9687	9.62803	-0.799373	0	
0.9693	15.755	0.423198	0	
0.9700	22.4542	-0.799373	0	
0.9707	28.2445	0.423198	0	
0.9713	27.6385	5.92477	0	
0.9720	26.7296	9.59248	0	
0.9727	24.9117	10.7915	0	
0.9733	18.7848	10.4859	0	
0.9740	14.2064	9.87461	0	
0.9747	2.32285	9.59248	0	
0.9753	-20.266	9.28684	0	
0.9760	-34.6071	6.84169	0	
0.9767	-40.0944	5.00784	0	
0.9773	-50.4967	5.92477	0	
0.9780	-50.16	6.23041	0	
0.9787	-31.5773	4.7022	0	
0.9793	-21.7809	3.17398	0	
0.9800	-22.7235	4.39655	0	
0.9807	-15.9906	5.92477	0	
0.9813	-8.68543	5.00784	0	
0.9820	-11.7152	1.34013	0	
0.9827	-13.5668	0.117555	0	
0.9833	-10.2003	1.95141	0	
0.9840	-12.0182	2.5627	0	
0.9847	-18.1451	0.72884	0	
0.9853	-17.2025	-0.799373	0	
0.9860	-10.2003	0.117555	0	
0.9867	-4.41004	2.25705	0	
0.9873	0.168322	3.17398	0	
0.9880	5.04967	3.78527	0	
0.9887	8.11313	5.92477	0	
0.9893	8.71909	5.92477	0	
0.9900	11.7826	4.7022	0	
0.9907	15.452	6.84169	0	
0.9913	14.8124	8.67555	0	
0.9920	13.9034	5.31348	0	
0.9927	16.3609	1.95141	0	
0.9933	16.0579	1.03448	0	
0.9940	10.234	0.117555	0	
0.9947	5.65563	0.117555	0	
0.9953	5.35265	0.423198	0	
0.9960	4.44371	-2.32759	0	
0.9967	2.92881	-4.16144	0	
0.9973	1.41391	-3.55016	0	
0.9980	-2.86148	-2.93887	0	
0.9987	-6.83388	-3.55016	0	
0.9993	-4.41004	-3.8558	0	
1.0000	-1.34658	-3.8558	0	
1.0007	-1.95254	-1.41066	0	
1.0013	1.07726	3.17398	0	
1.0020	6.59823	3.47962	0	
1.0027	5.04967	-0.799373	0	
1.0033	0.774282	-2.93887	0	
1.0040	1.07726	-3.55016	0	
1.0047	-0.134658	-5.66615	0	
1.0053	-4.41004	-4.16144	0	
1.0060	-4.41004	1.03448	0	
1.0067	-1.95254	3.17398	0	
1.0073	-1.0436	2.5627	0	
1.0080	1.41391	2.5627	0	
1.0087	4.74669	1.34013	0	
1.0093	7.50717	0.117555	0	
1.0100	9.93101	1.34013	0	
1.0107	11.4796	2.25705	0	
1.0113	12.0855	1.95141	0	
1.0120	13.9034	2.86834	0	
1.0127	18.4818	2.25705	0	
1.0133	23.9691	-1.41066	0	
1.0140	27.6385	-3.8558	0	
1.0147	30.399	-2.02194	0	
1.0153	32.8228	0.117555	0	
1.0160	30.399	0.117555	0	
1.0167	23.3631	-2.02194	0	
1.0173	18.4818	-5.07837	0	
1.0180	11.7826	-7.80564	0	
1.0187	3.83775	-7.80564	0	
1.0193	1.07726	-7.5	0	
1.0200	-4.41004	-7.19436	0	
1.0207	-15.3847	-6.88872	0	
1.0213	-19.66	-9.33386	0	
1.0220	-22.0839	-12.3903	0	
1.0227	-30.0287	-10.8621	0	
1.0233	-28.5138	-10.2508	0	
1.0240	-17.5392	-12.3903	0	
1.0247	-9.89735	-10.5564	0	
1.0253	-4.41004	-7.19436	0	
1.0260	-0.134658	-8.72257	0	
1.0267	-1.0436	-10.2508	0	
1.0273	1.07726	-6.88872	0	
1.0280	5.65563	-4.46709	0	
1.0287	5.04967	-3.8558	0	
1.0293	6.29525	-2.32759	0	
1.0300	11.4796	-2.32759	0	
1.0307	8.11313	-3.24451	0	
1.0313	-1.34658	-1.41066	0	
1.0320	-2.5585	0.72884	0	
1.0327	2.32285	-0.799373	0	
1.0333	5.99227	-1.7163	0	
1.0340	6.59823	0.72884	0	
1.0347	7.50717	3.17398	0	
1.0353	10.234	2.5627	0	
1.0360	7.81015	1.34013	0	
1.0367	1.71689	2.86834	0	
1.0373	-1.34658	5.92477	0	
1.0380	-4.71302	5.92477	0	
1.0387	-8.68543	3.78527	0	
1.0393	-4.41004	1.03448	0	
1.0400	5.65563	-1.7163	0	
1.0407	9.02207	-3.55016	0	
1.0413	5.35265	-3.55016	0	
1.0420	3.23179	-2.32759	0	
1.0427	2.92881	-1.41066	0	
1.0433	2.01987	0.423198	0	
1.0440	-1.64956	2.25705	0	
1.0447	-8.0458	0.423198	0	
1.0453	-16.5966	-3.24451	0	
1.0460	-21.7809	-2.93887	0	
1.0467	-22.7235	1.34013	0	
1.0473	-24.2384	2.5627	0	
1.0480	-26.3593	1.34013	0	
1.0487	-21.1749	0.72884	0	
1.0493	-11.7152	-0.49373	0	
1.0500	-5.92494	-0.49373	0	
1.0507	-0.437638	1.95141	0	
1.0513	5.65563	3.78527	0	
1.0520	6.90121	3.17398	0	
1.0527	5.65563	1.95141	0	
1.0533	8.71909	1.34013	0	
1.0540	13.2975	2.25705	0	
1.0547	13.2975	3.78527	0	
1.0553	7.81015	4.09091	0	
1.0560	2.01987	4.39655	0	
1.0567	1.07726	2.86834	0	
1.0573	2.62583	0.117555	0	
1.0580	2.92881	-1.41066	0	
1.0587	1.07726	-1.41066	0	
1.0593	-0.740618	-0.799373	0	
1.0600	-0.134658	0.423198	0	
1.0607	0.168322	-0.799373	0	
1.0613	-3.5011	-2.02194	0	
1.0620	-5.016	1.03448	0	
1.0627	-1.64956	1.34013	0	
1.0633	-2.86148	-2.93887	0	
1.0640	-5.92494	-4.16144	0	
1.0647	-2.86148	-4.16144	0	
1.0653	0.168322	-5.38401	0	
1.0660	0.168322	-4.77273	0	
1.0667	2.01987	-2.93887	0	
1.0673	2.92881	-2.32759	0	
1.0680	-0.740618	-2.02194	0	
1.0687	-0.740618	-1.7163	0	
1.0693	1.07726	-2.63323	0	
1.0700	2.92881	-1.7163	0	
1.0707	8.41611	-0.799373	0	
1.0713	11.4796	-2.32759	0	
1.0720	6.59823	-2.32759	0	
1.0727	4.74669	-2.02194	0	
1.0733	6.59823	-3.24451	0	
1.0740	2.01987	-5.07837	0	
1.0747	-0.437638	-6.27743	0	
1.0753	2.62583	-4.16144	0	
1.0760	2.92881	-0.49373	0	
1.0767	1.41391	-0.49373	0	
1.0773	1.07726	-2.32759	0	
1.0780	-5.31898	-0.799373	0	
1.0787	-9.29139	1.34013	0	
1.0793	-5.31898	-0.188088	0	
1.0800	-7.43984	-1.10502	0	
1.0807	-14.1727	-1.10502	0	
1.0813	-11.1093	-1.7163	0	
1.0820	-5.31898	-2.02194	0	
1.0827	-5.62196	-1.41066	0	
1.0833	-6.5309	-2.02194	0	
1.0840	-5.016	-1.7163	0	
1.0847	-4.71302	1.03448	0	
1.0853	-5.62196	2.25705	0	
1.0860	-7.13686	0.423198	0	
1.0867	-6.83388	0.423198	0	
1.0873	-4.10706	1.95141	0	
1.0880	-1.64956	1.64577	0	
1.0887	1.71689	1.03448	0	
1.0893	6.59823	3.17398	0	
1.0900	7.50717	3.47962	0	
1.0907	5.65563	0.72884	0	
1.0913	7.81015	2.5627	0	
1.0920	10.234	6.84169	0	
1.0927	8.41611	5.92477	0	
1.0933	10.234	3.47962	0	
1.0940	14.8124	5.61912	0	
1.0947	12.0855	6.53605	0	
1.0953	5.65563	5.00784	0	
1.0960	3.23179	5.61912	0	
1.0967	-0.134658	4.39655	0	
1.0973	-8.0458	0.72884	0	
1.0980	-10.5033	-1.41066	0	
1.0987	-7.74282	-2.32759	0	
1.0993	-8.0458	-2.02194	0	
1.1000	-9.29139	-0.188088	0	
1.1007	-9.89735	-2.32759	0	
1.1013	-12.3212	-7.80564	0	
1.1020	-13.2638	-8.41693	0	
1.1027	-8.98841	-4.46709	0	
1.1033	-4.71302	-3.24451	0	
1.1040	-4.10706	-2.93887	0	
1.1047	-6.22792	-4.16144	0	
1.1053	-6.83388	-6.88872	0	
1.1060	-4.41004	-5.07837	0	
1.1067	-0.134658	-1.7163	0	
1.1073	3.83775	-3.8558	0	
1.1080	7.20419	-4.46709	0	
1.1087	5.04967	-1.41066	0	
1.1093	3.53477	-2.63323	0	
1.1100	7.50717	-5.38401	0	
1.1107	9.93101	-4.16144	0	
1.1113	9.62803	-1.7163	0	
1.1120	12.9945	0.72884	0	
1.1127	16.0579	5.00784	0	
1.1133	15.452	5.00784	0	
1.1140	15.452	3.17398	0	
1.1147	15.755	5.31348	0	
1.1153	11.4796	6.53605	0	
1.1160	7.50717	3.78527	0	
1.1167	3.53477	4.09091	0	
1.1173	-3.5011	5.31348	0	
1.1180	-8.0458	1.34013	0	
1.1187	-4.41004	-2.93887	0	
1.1193	-3.16446	-2.93887	0	
1.1200	-8.0458	-0.799373	0	
1.1207	-9.89735	-2.32759	0	
1.1213	-9.59437	-6.27743	0	
1.1220	-9.29139	-5.97179	0	
1.1227	-6.83388	-3.55016	0	
1.1233	-4.41004	-3.8558	0	
1.1240	-5.016	-3.8558	0	
1.1247	-8.98841	-2.32759	0	
1.1253	-15.9906	-4.16144	0	
1.1260	-19.963	-3.55016	0	
1.1267	-14.1727	1.34013	0	
1.1273	-6.5309	3.17398	0	
1.1280	-4.41004	1.34013	0	
1.1287	-1.34658	0.117555	0	
1.1293	4.44371	-1.10502	0	
1.1300	5.65563	-1.41066	0	
1.1307	3.53477	1.34013	0	
1.1313	1.07726	1.03448	0	
1.1320	-2.5585	-2.32759	0	
1.1327	-2.25552	-3.8558	0	
1.1333	5.99227	-1.7163	0	
1.1340	10.8736	-0.188088	0	
1.1347	5.65563	-2.32759	0	
1.1353	-0.740618	-4.16144	0	
1.1360	-2.5585	-2.32759	0	
1.1367	-4.71302	-1.41066	0	
1.1373	-6.83388	-3.55016	0	
1.1380	-7.13686	-4.16144	0	
1.1387	-9.89735	-1.41066	0	
1.1393	-14.4757	-0.188088	0	
1.1400	-13.2638	1.64577	0	
1.1407	-9.89735	4.39655	0	
1.1413	-11.7152	4.09091	0	
1.1420	-15.0817	2.25705	0	
1.1427	-11.7152	2.25705	0	
1.1433	-7.13686	1.95141	0	
1.1440	-8.98841	1.64577	0	
1.1447	-13.8698	3.17398	0	
1.1453	-13.5668	4.7022	0	
1.1460	-8.68543	4.7022	0	
1.1467	-5.31898	5.00784	0	
1.1473	-4.41004	5.00784	0	
1.1480	0.168322	6.53605	0	
1.1487	5.65563	10.4859	0	
1.1493	6.59823	13.2367	0	
1.1500	5.65563	11.0972	0	
1.1507	9.32505	9.28684	0	
1.1513	15.1153	10.4859	0	
1.1520	18.4818	11.7085	0	
1.1527	18.7848	12.3198	0	
1.1533	21.8482	15.0705	0	
1.1540	25.8206	17.5157	0	
1.1547	23.9691	14.4593	0	
1.1553	16.0579	9.59248	0	
1.1560	10.537	7.45298	0	
1.1567	8.41611	7.75862	0	
1.1573	9.93101	7.75862	0	
1.1580	12.0855	5.31348	0	
1.1587	6.29525	3.17398	0	
1.1593	-1.34658	2.25705	0	
1.1600	1.07726	-0.49373	0	
1.1607	4.74669	-3.55016	0	
1.1613	1.07726	-3.24451	0	
1.1620	-3.16446	-1.10502	0	
1.1627	-4.71302	-2.32759	0	
1.1633	-7.13686	-4.16144	0	
1.1640	-6.83388	-3.24451	0	
1.1647	-5.016	-3.24451	0	
1.1653	-6.22792	-6.58307	0	
1.1660	-5.016	-6.27743	0	
1.1667	1.71689	-2.32759	0	
1.1673	7.20419	-2.32759	0	
1.1680	5.04967	-4.46709	0	
1.1687	1.07726	-2.93887	0	
1.1693	2.92881	-2.32759	0	
1.1700	5.65563	-6.88872	0	
1.1707	5.35265	-8.11129	0	
1.1713	6.90121	-5.38401	0	
1.1720	10.537	-5.38401	0	
1.1727	9.32505	-5.66615	0	
1.1733	9.32505	-3.24451	0	
1.1740	14.8124	-3.55016	0	
1.1747	18.1788	-5.97179	0	
1.1753	16.6639	-4.16144	0	
1.1760	13.9034	-1.41066	0	
1.1767	8.71909	-1.7163	0	
1.1773	2.92881	-3.8558	0	
1.1780	1.71689	-5.07837	0	
1.1787	2.01987	-4.77273	0	
1.1793	-0.740618	-4.16144	0	
1.1800	-5.31898	-5.66615	0	
1.1807	-9.89735	-5.38401	0	
1.1813	-11.1093	-3.55016	0	
1.1820	-11.4122	-5.07837	0	
1.1827	-14.4757	-8.41693	0	
1.1833	-15.3847	-6.58307	0	
1.1840	-12.9608	-4.16144	0	
1.1847	-12.0182	-4.16144	0	
1.1853	-10.8063	-3.55016	0	
1.1860	-4.41004	-0.799373	0	
1.1867	1.07726	1.34013	0	
1.1873	2.01987	2.5627	0	
1.1880	1.41391	2.25705	0	
1.1887	2.92881	2.5627	0	
1.1893	8.41611	4.09091	0	
1.1900	12.6915	5.00784	0	
1.1907	8.41611	4.7022	0	
1.1913	2.92881	4.09091	0	
1.1920	4.74669	4.39655	0	
1.1927	6.90121	5.31348	0	
1.1933	7.20419	3.78527	0	
1.1940	12.0855	-0.188088	0	
1.1947	17.2699	-1.41066	0	
1.1953	15.1153	0.423198	0	
1.1960	12.0855	0.423198	0	
1.1967	13.9034	-0.188088	0	
1.1973	15.755	-0.49373	0	
1.1980	13.2975	-1.10502	0	
1.1987	6.59823	-0.188088	0	
1.1993	-3.16446	1.64577	0	
1.2000	-15.0817	0.117555	0	
1.2007	-27.9078	-1.7163	0	
1.2013	-36.4586	0.423198	0	
1.2020	-35.213	0.72884	0	
1.2027	-28.2108	-2.63323	0	
1.2033	-22.7235	-2.32759	0	
1.2040	-17.5392	1.03448	0	
1.2047	-11.4122	0.72884	0	
1.2053	-8.38245	-0.49373	0	
1.2060	-6.83388	0.117555	0	
1.2067	-3.80408	0.423198	0	
1.2073	-1.0436	-0.799373	0	
1.2080	2.01987	-1.10502	0	
1.2087	4.44371	0.423198	0	
1.2093	2.92881	1.03448	0	
1.2100	6.29525	-0.49373	0	
1.2107	14.8124	-0.799373	0	
1.2113	13.9034	1.34013	0	
1.2120	5.04967	-0.49373	0	
1.2127	3.53477	-3.55016	0	
1.2133	7.50717	-2.02194	0	
1.2140	10.234	0.423198	0	
1.2147	13.9034	-0.49373	0	
1.2153	11.4796	-2.02194	0	
1.2160	2.01987	-1.10502	0	
1.2167	-2.5585	-0.49373	0	
1.2173	-3.5011	-2.32759	0	
1.2180	-7.13686	-4.77273	0	
1.2187	-9.89735	-5.07837	0	
1.2193	-8.98841	-2.93887	0	
1.2200	-8.0458	-2.63323	0	
1.2207	-6.22792	-2.93887	0	
1.2213	-6.22792	-0.49373	0	
1.2220	-10.5033	-0.49373	0	
1.2227	-14.7787	-3.8558	0	
1.2233	-15.6876	-2.93887	0	
1.2240	-14.1727	-0.799373	0	
1.2247	-11.1093	-2.32759	0	
1.2253	-11.1093	-2.63323	0	
1.2260	-13.5668	-1.41066	0	
1.2267	-8.68543	-0.49373	0	
1.2273	-0.740618	1.64577	0	
1.2280	-0.740618	1.95141	0	
1.2287	-3.16446	-1.41066	0	
1.2293	-0.134658	-0.49373	0	
1.2300	2.01987	2.86834	0	
1.2307	1.41391	0.423198	0	
1.2313	2.62583	-2.32759	0	
1.2320	6.29525	0.72884	0	
1.2327	9.93101	1.95141	0	
1.2333	10.234	0.117555	0	
1.2340	6.59823	-0.49373	0	
1.2347	4.74669	-0.49373	0	
1.2353	2.32285	1.64577	0	
1.2360	-5.92494	3.17398	0	
1.2367	-11.7152	0.72884	0	
1.2373	-8.0458	-0.49373	0	
1.2380	-4.41004	2.25705	0	
1.2387	-8.38245	3.17398	0	
1.2393	-12.0182	1.03448	0	
1.2400	-9.29139	-1.41066	0	
1.2407	-4.41004	-3.55016	0	
1.2413	-4.41004	-2.93887	0	
1.2420	-6.5309	-0.188088	0	
1.2427	-4.41004	-1.41066	0	
1.2433	-1.34658	-5.07837	0	
1.2440	-4.71302	-5.07837	0	
1.2447	-10.8063	-4.46709	0	
1.2453	-13.5668	-5.38401	0	
1.2460	-14.4757	-3.55016	0	
1.2467	-15.3847	-1.7163	0	
1.2473	-13.8698	-4.16144	0	
1.2480	-10.5033	-4.77273	0	
1.2487	-6.5309	-3.8558	0	
1.2493	-5.62196	-5.07837	0	
1.2500	-8.38245	-5.66615	0	
1.2507	-6.83388	-2.93887	0	
1.2513	2.01987	-2.02194	0	
1.2520	9.32505	-2.93887	0	
1.2527	10.234	-0.799373	0	
1.2533	9.32505	0.72884	0	
1.2540	10.8736	-1.10502	0	
1.2547	9.32505	-1.7163	0	
1.2553	4.14073	-1.7163	0	
1.2560	2.01987	-4.16144	0	
1.2567	4.14073	-5.66615	0	
1.2573	4.74669	-3.55016	0	
1.2580	0.774282	-2.32759	0	
1.2587	-1.95254	-3.8558	0	
1.2593	1.07726	-4.16144	0	
1.2600	4.74669	-5.07837	0	
1.2607	2.92881	-6.88872	0	
1.2613	-1.64956	-7.80564	0	
1.2620	-3.5011	-8.11129	0	
1.2627	-3.5011	-9.6395	0	
1.2633	-1.95254	-9.02821	0	
1.2640	2.92881	-5.97179	0	
1.2647	3.23179	-5.38401	0	
1.2653	-2.25552	-6.88872	0	
1.2660	-3.16446	-5.07837	0	
1.2667	-1.64956	-3.24451	0	
1.2673	-4.71302	-4.16144	0	
1.2680	-2.5585	-4.16144	0	
1.2687	6.29525	-1.10502	0	
1.2693	9.93101	-0.799373	0	
1.2700	10.234	-2.02194	0	
1.2707	13.2975	-2.63323	0	
1.2713	12.6915	-4.16144	0	
1.2720	9.32505	-4.46709	0	
1.2727	9.32505	-4.16144	0	
1.2733	11.1766	-4.16144	0	
1.2740	12.6915	-3.24451	0	
1.2747	11.7826	-2.02194	0	
1.2753	8.41611	-3.24451	0	
1.2760	8.71909	-3.55016	0	
1.2767	10.8736	-1.41066	0	
1.2773	6.90121	-0.49373	0	
1.2780	2.32285	0.117555	0	
1.2787	5.04967	1.64577	0	
1.2793	8.41611	1.03448	0	
1.2800	6.29525	-0.49373	0	
1.2807	0.471302	1.34013	0	
1.2813	-5.62196	2.25705	0	
1.2820	-9.29139	1.64577	0	
1.2827	-7.43984	3.17398	0	
1.2833	-2.25552	5.00784	0	
1.2840	1.07726	4.09091	0	
1.2847	2.92881	1.03448	0	
1.2853	4.74669	-0.188088	0	
1.2860	5.65563	1.64577	0	
1.2867	5.65563	3.78527	0	
1.2873	6.29525	3.17398	0	
1.2880	7.50717	2.25705	0	
1.2887	8.41611	1.95141	0	
1.2893	8.71909	1.34013	0	
1.2900	8.11313	1.34013	0	
1.2907	9.02207	2.25705	0	
1.2913	12.9945	2.25705	0	
1.2920	15.452	2.25705	0	
1.2927	13.9034	4.09091	0	
1.2933	10.537	5.00784	0	
1.2940	10.8736	4.09091	0	
1.2947	13.2975	5.31348	0	
1.2953	12.9945	7.75862	0	
1.2960	8.71909	7.75862	0	
1.2967	5.65563	5.92477	0	
1.2973	2.92881	4.09091	0	
1.2980	-1.34658	1.95141	0	
1.2987	-2.5585	1.34013	0	
1.2993	-1.64956	1.95141	0	
1.3000	-6.22792	-0.188088	0	
1.3007	-13.5668	-3.24451	0	
1.3013	-15.3847	-2.32759	0	
1.3020	-14.7787	1.34013	0	
1.3027	-18.1451	0.72884	0	
1.3033	-21.1749	-0.799373	0	
1.3040	-19.963	0.423198	0	
1.3047	-16.5966	0.423198	0	
1.3053	-16.2936	-2.02194	0	
1.3060	-16.2936	-3.24451	0	
1.3067	-12.0182	-3.24451	0	
1.3073	-6.22792	-2.63323	0	
1.3080	-4.41004	0.72884	0	
1.3087	-5.31898	2.25705	0	
1.3093	-1.64956	0.423198	0	
1.3100	5.65563	-1.41066	0	
1.3107	11.7826	-1.41066	0	
1.3113	15.452	1.03448	0	
1.3120	19.3907	4.09091	0	
1.3127	20.0303	4.39655	0	
1.3133	16.3609	1.64577	0	
1.3140	14.8124	0.117555	0	
1.3147	13.9034	0.117555	0	
1.3153	9.32505	1.03448	0	
1.3160	7.81015	2.86834	0	
1.3167	9.62803	3.17398	0	
1.3173	4.14073	1.64577	0	
1.3180	-10.5033	1.03448	0	
1.3187	-23.9354	1.03448	0	
1.3193	-30.0287	-0.49373	0	
1.3200	-28.8168	-3.8558	0	
1.3207	-19.3571	-5.97179	0	
1.3213	-8.98841	-5.97179	0	
1.3220	-5.92494	-5.07837	0	
1.3227	-8.0458	-4.16144	0	
1.3233	-8.68543	-5.07837	0	
1.3240	-8.98841	-7.80564	0	
1.3247	-10.5033	-9.33386	0	
1.3253	-8.68543	-9.02821	0	
1.3260	-6.5309	-10.5564	0	
1.3267	-7.74282	-11.1677	0	
1.3273	-6.83388	-9.6395	0	
1.3280	-2.5585	-9.02821	0	
1.3287	-1.64956	-9.94514	0	
1.3293	-1.64956	-9.6395	0	
1.3300	1.07726	-7.80564	0	
1.3307	4.74669	-6.88872	0	
1.3313	7.50717	-5.97179	0	
1.3320	10.234	-2.63323	0	
1.3327	10.8736	-2.32759	0	
1.3333	8.41611	-6.27743	0	
1.3340	7.81015	-8.72257	0	
1.3347	8.11313	-7.19436	0	
1.3353	9.02207	-5.07837	0	
1.3360	10.234	-2.63323	0	
1.3367	6.59823	-2.02194	0	
1.3373	-1.64956	-4.16144	0	
1.3380	-7.43984	-5.07837	0	
1.3387	-8.98841	-2.32759	0	
1.3393	-8.68543	-1.10502	0	
1.3400	-7.74282	-1.41066	0	
1.3407	-9.89735	0.423198	0	
1.3413	-12.0182	5.31348	0	
1.3420	-6.22792	8.36991	0	
1.3427	0.471302	6.84169	0	
1.3433	-0.437638	5.31348	0	
1.3440	-1.95254	6.23041	0	
1.3447	0.168322	3.17398	0	
1.3453	3.53477	1.03448	0	
1.3460	4.74669	5.00784	0	
1.3467	-3.16446	5.00784	0	
1.3473	-14.1727	-1.10502	0	
1.3480	-13.5668	-1.7163	0	
1.3487	-7.13686	1.34013	0	
1.3493	-5.92494	0.423198	0	
1.3500	-3.5011	0.423198	0	
1.3507	1.07726	3.17398	0	
1.3513	-0.740618	3.78527	0	
1.3520	-3.5011	4.09091	0	
1.3527	0.168322	6.53605	0	
1.3533	3.53477	9.59248	0	
1.3540	5.04967	10.4859	0	
1.3547	8.41611	9.28684	0	
1.3553	8.41611	8.98119	0	
1.3560	5.65563	11.4028	0	
1.3567	6.90121	11.7085	0	
1.3573	5.65563	9.28684	0	
1.3580	0.168322	8.67555	0	
1.3587	0.168322	9.87461	0	
1.3593	4.44371	10.1803	0	
1.3600	2.92881	9.59248	0	
1.3607	-1.95254	10.7915	0	
1.3613	-2.5585	12.6254	0	
1.3620	0.774282	12.6254	0	
1.3627	5.04967	11.0972	0	
1.3633	5.04967	9.59248	0	
1.3640	0.471302	8.67555	0	
1.3647	-1.64956	9.28684	0	
1.3653	-2.25552	10.4859	0	
1.3660	-3.16446	9.28684	0	
1.3667	2.92881	9.28684	0	
1.3673	13.6004	12.931	0	
1.3680	19.6937	13.848	0	
1.3687	27.0326	9.59248	0	
1.3693	35.8863	6.53605	0	
1.3700	38.0072	5.61912	0	
1.3707	38.6468	4.39655	0	
1.3713	37.0982	2.86834	0	
1.3720	26.4266	1.34013	0	
1.3727	21.2423	1.64577	0	
1.3733	22.1512	5.00784	0	
1.3740	5.35265	5.92477	0	
1.3747	-19.66	2.5627	0	
1.3753	-29.1197	2.25705	0	
1.3760	-33.6981	4.39655	0	
1.3767	-37.9735	3.17398	0	
1.3773	-28.2108	1.95141	0	
1.3780	-14.1727	5.92477	0	
1.3787	-9.89735	7.75862	0	
1.3793	-7.43984	6.53605	0	
1.3800	-7.13686	6.53605	0	
1.3807	-11.1093	5.92477	0	
1.3813	-12.6242	1.95141	0	
1.3820	-11.4122	0.423198	0	
1.3827	-12.0182	3.17398	0	
1.3833	-13.5668	2.25705	0	
1.3840	-14.1727	-1.41066	0	
1.3847	-10.8063	-0.49373	0	
1.3853	-5.31898	3.17398	0	
1.3860	-3.5011	5.00784	0	
1.3867	-1.95254	4.39655	0	
1.3873	2.01987	3.47962	0	
1.3880	2.62583	3.47962	0	
1.3887	0.168322	3.17398	0	
1.3893	-1.34658	-0.799373	0	
1.3900	-1.64956	-5.07837	0	
1.3907	-0.740618	-5.66615	0	
1.3913	2.32285	-3.24451	0	
1.3920	3.53477	-3.55016	0	
1.3927	2.92881	-5.66615	0	
1.3933	2.01987	-5.07837	0	
1.3940	0.774282	-3.24451	0	
1.3947	2.01987	-3.8558	0	
1.3953	3.53477	-5.38401	0	
1.3960	1.07726	-5.97179	0	
1.3967	-1.64956	-5.97179	0	
1.3973	-1.0436	-5.97179	0	
1.3980	-3.16446	-8.72257	0	
1.3987	-7.74282	-11.779	0	
1.3993	-10.5033	-11.4734	0	
1.4000	-11.7152	-10.2508	0	
1.4007	-9.89735	-9.6395	0	
1.4013	-6.83388	-7.80564	0	
1.4020	-6.22792	-5.38401	0	
1.4027	-6.83388	-5.07837	0	
1.4033	-5.62196	-4.77273	0	
1.4040	-5.016	-4.16144	0	
1.4047	-5.31898	-4.16144	0	
1.4053	-2.86148	-4.16144	0	
1.4060	0.168322	-4.16144	0	
1.4067	2.62583	-5.38401	0	
1.4073	5.99227	-7.19436	0	
1.4080	6.59823	-8.41693	0	
1.4087	2.01987	-6.88872	0	
1.4093	-2.5585	-3.24451	0	
1.4100	-1.34658	-1.10502	0	
1.4107	4.74669	-3.55016	0	
1.4113	10.234	-5.66615	0	
1.4120	10.8736	-5.07837	0	
1.4127	6.59823	-5.07837	0	
1.4133	2.32285	-5.07837	0	
1.4140	-0.740618	-2.32759	0	
1.4147	1.07726	1.34013	0	
1.4153	5.65563	-0.799373	0	
1.4160	2.01987	-3.24451	0	
1.4167	-9.89735	-2.32759	0	
1.4173	-11.7152	-2.02194	0	
1.4180	-5.31898	-2.32759	0	
1.4187	-5.62196	-2.02194	0	
1.4193	-9.89735	-2.63323	0	
1.4200	-8.68543	-4.16144	0	
1.4207	-8.0458	-4.16144	0	
1.4213	-13.2638	-2.63323	0	
1.4220	-17.5392	-1.41066	0	
1.4227	-15.9906	1.03448	0	
1.4233	-10.2003	1.34013	0	
1.4240	-6.22792	-0.49373	0	
1.4247	-5.92494	-1.10502	0	
1.4253	-2.86148	-0.188088	0	
1.4260	5.99227	1.64577	0	
1.4267	15.755	4.09091	0	
1.4273	17.5728	3.78527	0	
1.4280	13.6004	-0.49373	0	
1.4287	9.62803	-2.32759	0	
1.4293	8.71909	-0.188088	0	
1.4300	9.62803	0.117555	0	
1.4307	11.1766	-2.32759	0	
1.4313	12.6915	-1.10502	0	
1.4320	9.93101	1.03448	0	
1.4327	4.74669	0.117555	0	
1.4333	2.01987	-0.799373	0	
1.4340	-0.437638	-0.49373	0	
1.4347	-3.5011	-0.799373	0	
1.4353	-1.95254	-0.799373	0	
1.4360	1.41391	-0.49373	0	
1.4367	0.774282	-0.799373	0	
1.4373	0.168322	-0.799373	0	
1.4380	4.44371	-0.799373	0	
1.4387	5.65563	0.423198	0	
1.4393	0.168322	2.25705	0	
1.4400	-5.31898	-2.32759	0	
1.4407	-6.22792	-7.80564	0	
1.4413	-8.0458	-6.27743	0	
1.4420	-10.8063	-4.16144	0	
1.4427	-9.59437	-6.88872	0	
1.4433	-6.22792	-7.19436	0	
1.4440	-6.22792	-5.38401	0	
1.4447	-7.74282	-5.97179	0	
1.4453	-6.22792	-5.97179	0	
1.4460	-4.41004	-5.07837	0	
1.4467	-2.86148	-5.38401	0	
1.4473	-0.134658	-5.07837	0	
1.4480	1.07726	-5.07837	0	
1.4487	1.07726	-5.07837	0	
1.4493	3.23179	-4.16144	0	
1.4500	7.50717	-4.16144	0	
1.4507	12.6915	-2.63323	0	
1.4513	16.6639	1.95141	0	
1.4520	17.5728	3.17398	0	
1.4527	16.9669	-0.799373	0	
1.4533	17.8758	0.423198	0	
1.4540	16.6639	4.09091	0	
1.4547	11.4796	2.5627	0	
1.4553	6.59823	-0.799373	0	
1.4560	1.71689	-1.10502	0	
1.4567	-0.740618	-0.49373	0	
1.4573	2.01987	-0.188088	0	
1.4580	4.14073	0.117555	0	
1.4587	2.32285	-0.799373	0	
1.4593	3.83775	-1.41066	0	
1.4600	5.04967	-1.7163	0	
1.4607	-2.86148	-2.93887	0	
1.4613	-10.2003	-1.41066	0	
1.4620	-8.0458	-0.49373	0	
1.4627	-5.31898	-2.32759	0	
1.4633	-3.5011	-1.7163	0	
1.4640	0.774282	-0.799373	0	
1.4647	-1.0436	-4.77273	0	
1.4653	-8.0458	-7.5	0	
1.4660	-8.98841	-6.88872	0	
1.4667	-5.31898	-7.80564	0	
1.4673	-1.64956	-7.19436	0	
1.4680	1.71689	-4.77273	0	
1.4687	3.23179	-5.38401	0	
1.4693	3.53477	-5.38401	0	
1.4700	5.65563	-1.7163	0	
1.4707	9.62803	-0.49373	0	
1.4713	13.9034	-1.41066	0	
1.4720	13.9034	0.72884	0	
1.4727	9.02207	2.5627	0	
1.4733	6.29525	1.34013	0	
1.4740	5.65563	-1.10502	0	
1.4747	0.774282	-1.10502	0	
1.4753	-2.5585	1.64577	0	
1.4760	1.41391	3.17398	0	
1.4767	5.99227	-0.49373	0	
1.4773	5.65563	-5.38401	0	
1.4780	4.44371	-6.27743	0	
1.4787	1.71689	-4.46709	0	
1.4793	-1.95254	-5.07837	0	
1.4800	-1.95254	-5.97179	0	
1.4807	-2.5585	-6.27743	0	
1.4813	-9.89735	-7.5	0	
1.4820	-15.6876	-8.41693	0	
1.4827	-12.3212	-6.27743	0	
1.4833	-8.38245	-4.46709	0	
1.4840	-8.0458	-5.97179	0	
1.4847	-5.62196	-5.97179	0	
1.4853	-4.41004	-2.93887	0	
1.4860	-7.13686	-0.799373	0	
1.4867	-4.71302	0.423198	0	
1.4873	1.07726	1.34013	0	
1.4880	1.71689	0.423198	0	
1.4887	1.41391	0.117555	0	
1.4893	5.65563	-0.49373	0	
1.4900	9.32505	-2.63323	0	
1.4907	10.537	-1.7163	0	
1.4913	11.1766	3.17398	0	
1.4920	11.1766	2.25705	0	
1.4927	12.0855	-1.41066	0	
1.4933	11.1766	-0.188088	0	
1.4940	6.90121	1.34013	0	
1.4947	4.74669	-0.49373	0	
1.4953	5.65563	-0.49373	0	
1.4960	3.83775	1.34013	0	
1.4967	1.41391	1.34013	0	
1.4973	1.07726	1.34013	0	
1.4980	-2.5585	0.423198	0	
1.4987	-6.22792	-1.41066	0	
1.4993	-4.71302	-0.49373	0	
1.5000	-4.41004	1.95141	0	
1.5007	-8.98841	4.39655	0	
1.5013	-12.0182	7.75862	0	
1.5020	-11.4122	9.59248	0	
1.5027	-9.89735	8.06426	0	
1.5033	-8.0458	9.28684	0	
1.5040	-7.74282	11.4028	0	
1.5047	-7.13686	10.1803	0	
1.5053	-3.80408	7.75862	0	
1.5060	-1.34658	5.92477	0	
1.5067	-1.95254	3.47962	0	
1.5073	-1.64956	2.86834	0	
1.5080	-1.0436	4.7022	0	
1.5087	-2.86148	5.31348	0	
1.5093	-4.41004	2.86834	0	
1.5100	-2.86148	0.423198	0	
1.5107	0.168322	0.423198	0	
1.5113	6.59823	3.17398	0	
1.5120	10.234	4.09091	0	
1.5127	5.04967	2.25705	0	
1.5133	0.168322	1.95141	0	
1.5140	5.35265	1.34013	0	
1.5147	8.11313	-1.10502	0	
1.5153	-0.134658	-2.93887	0	
1.5160	-6.5309	-2.93887	0	
1.5167	-5.016	-1.7163	0	
1.5173	-3.5011	1.03448	0	
1.5180	-4.10706	1.95141	0	
1.5187	-6.5309	-1.41066	0	
1.5193	-9.89735	-2.02194	0	
1.5200	-10.2003	2.25705	0	
1.5207	-11.4122	4.09091	0	
1.5213	-13.8698	2.25705	0	
1.5220	-10.5033	1.64577	0	
1.5227	-6.22792	3.17398	0	
1.5233	-8.0458	4.09091	0	
1.5240	-8.0458	2.25705	0	
1.5247	-6.5309	0.117555	0	
1.5253	-11.7152	-1.41066	0	
1.5260	-12.6242	-4.16144	0	
1.5267	-1.95254	-5.38401	0	
1.5273	2.92881	-2.32759	0	
1.5280	0.471302	-0.799373	0	
1.5287	3.53477	-3.55016	0	
1.5293	9.62803	-3.55016	0	
1.5300	12.6915	-1.10502	0	
1.5307	17.2699	-1.7163	0	
1.5313	20.3333	-4.16144	0	
1.5320	18.4818	-4.16144	0	
1.5327	14.5094	-3.24451	0	
1.5333	11.4796	-2.32759	0	
1.5340	9.02207	-3.8558	0	
1.5347	8.41611	-3.8558	0	
1.5353	7.81015	-1.7163	0	
1.5360	4.74669	-2.93887	0	
1.5367	1.41391	-5.66615	0	
1.5373	0.471302	-5.38401	0	
1.5380	-0.134658	-4.16144	0	
1.5387	-1.95254	-5.38401	0	
1.5393	-5.016	-5.97179	0	
1.5400	-6.22792	-6.27743	0	
1.5407	-5.31898	-6.27743	0	
1.5413	-7.74282	-6.27743	0	
1.5420	-12.0182	-6.88872	0	
1.5427	-11.1093	-5.97179	0	
1.5433	-7.74282	-5.07837	0	
1.5440	-8.38245	-5.97179	0	
1.5447	-8.38245	-6.27743	0	
1.5453	-3.80408	-5.66615	0	
1.5460	-0.437638	-4.46709	0	
1.5467	0.168322	-2.93887	0	
1.5473	-0.134658	-2.63323	0	
1.5480	-1.95254	-5.07837	0	
1.5487	-2.5585	-6.27743	0	
1.5493	1.07726	-5.38401	0	
1.5500	5.65563	-4.77273	0	
1.5507	8.41611	-3.55016	0	
1.5513	11.1766	-2.02194	0	
1.5520	13.9034	-1.10502	0	
1.5527	12.0855	-0.49373	0	
1.5533	9.93101	1.34013	0	
1.5540	13.6004	3.78527	0	
1.5547	13.6004	4.09091	0	
1.5553	6.29525	4.09091	0	
1.5560	2.92881	6.53605	0	
1.5567	4.14073	8.67555	0	
1.5573	2.92881	7.75862	0	
1.5580	1.07726	8.67555	0	
1.5587	1.07726	11.4028	0	
1.5593	-2.25552	11.4028	0	
1.5600	-5.62196	8.98119	0	
1.5607	-3.5011	5.92477	0	
1.5613	-1.64956	3.17398	0	
1.5620	-2.5585	4.09091	0	
1.5627	-3.5011	4.39655	0	
1.5633	-5.92494	2.25705	0	
1.5640	-9.29139	1.34013	0	
1.5647	-9.59437	0.117555	0	
1.5653	-6.83388	-3.24451	0	
1.5660	-3.80408	-2.63323	0	
1.5667	-1.64956	-1.41066	0	
1.5673	-0.134658	-4.46709	0	
1.5680	2.62583	-5.97179	0	
1.5687	5.65563	-3.24451	0	
1.5693	4.74669	-1.41066	0	
1.5700	4.74669	-0.188088	0	
1.5707	9.32505	2.25705	0	
1.5713	9.02207	4.09091	0	
1.5720	3.83775	4.09091	0	
1.5727	5.35265	4.09091	0	
1.5733	6.29525	3.78527	0	
1.5740	-1.95254	3.78527	0	
1.5747	-4.41004	5.92477	0	
1.5753	2.62583	7.75862	0	
1.5760	2.01987	6.84169	0	
1.5767	-3.80408	5.00784	0	
1.5773	-1.64956	3.78527	0	
1.5780	0.774282	0.423198	0	
1.5787	-4.71302	-1.41066	0	
1.5793	-10.8063	-0.188088	0	
1.5800	-11.1093	-1.10502	0	
1.5807	-9.89735	-2.63323	0	
1.5813	-9.59437	-0.188088	0	
1.5820	-8.0458	1.64577	0	
1.5827	-6.22792	0.423198	0	
1.5833	-6.5309	1.34013	0	
1.5840	-6.83388	0.423198	0	
1.5847	-5.31898	-3.55016	0	
1.5853	-5.016	-4.16144	0	
1.5860	-5.31898	-4.16144	0	
1.5867	-3.5011	-5.97179	0	
1.5873	-1.95254	-4.16144	0	
1.5880	-0.740618	-1.7163	0	
1.5887	0.168322	-4.77273	0	
1.5893	-0.437638	-6.58307	0	
1.5900	0.471302	-3.24451	0	
1.5907	2.01987	-2.93887	0	
1.5913	-0.437638	-3.24451	0	
1.5920	-2.5585	0.72884	0	
1.5927	-0.740618	4.09091	0	
1.5933	-1.34658	4.09091	0	
1.5940	-3.80408	4.7022	0	
1.5947	0.168322	5.92477	0	
1.5953	6.59823	7.75862	0	
1.5960	7.50717	8.67555	0	
1.5967	4.74669	5.00784	0	
1.5973	1.07726	0.423198	0	
1.5980	0.774282	0.72884	0	
1.5987	3.53477	2.86834	0	
1.5993	3.53477	3.17398	0	
1.6000	2.01987	4.7022	0	
1.6007	4.74669	4.7022	0	
1.6013	4.44371	2.86834	0	
1.6020	-1.64956	3.17398	0	
1.6027	-6.22792	5.00784	0	
1.6033	-7.43984	3.47962	0	
1.6040	-8.98841	1.34013	0	
1.6047	-8.98841	1.03448	0	
1.6053	-9.29139	1.34013	0	
1.6060	-10.8063	1.34013	0	
1.6067	-6.83388	0.72884	0	
1.6073	0.774282	1.64577	0	
1.6080	4.14073	5.92477	0	
1.6087	4.74669	7.45298	0	
1.6093	5.65563	3.17398	0	
1.6100	8.11313	1.03448	0	
1.6107	9.32505	1.34013	0	
1.6113	6.59823	-2.93887	0	
1.6120	3.83775	-5.07837	0	
1.6127	5.65563	-2.02194	0	
1.6133	7.50717	-1.41066	0	
1.6140	5.65563	-2.93887	0	
1.6147	5.04967	-1.41066	0	
1.6153	4.74669	-0.188088	0	
1.6160	1.07726	0.423198	0	
1.6167	-1.34658	2.25705	0	
1.6173	-0.740618	1.34013	0	
1.6180	-1.95254	0.423198	0	
1.6187	-3.5011	4.7022	0	
1.6193	-5.31898	7.45298	0	
1.6200	-7.13686	4.09091	0	
1.6207	-2.25552	2.86834	0	
1.6213	2.01987	3.47962	0	
1.6220	-8.68543	1.95141	0	
1.6227	-19.963	-2.02194	0	
1.6233	-15.6876	-5.07837	0	
1.6240	-8.68543	-5.07837	0	
1.6247	-7.13686	-2.93887	0	
1.6253	-5.016	-2.63323	0	
1.6260	-3.5011	-2.32759	0	
1.6267	-3.16446	-0.49373	0	
1.6273	1.41391	-2.32759	0	
1.6280	3.83775	-5.66615	0	
1.6287	1.07726	-5.97179	0	
1.6293	5.04967	-5.38401	0	
1.6300	13.9034	-5.38401	0	
1.6307	12.3885	-3.24451	0	
1.6313	6.59823	-1.10502	0	
1.6320	7.81015	-0.188088	0	
1.6327	12.3885	2.86834	0	
1.6333	15.452	3.47962	0	
1.6340	14.2064	-1.41066	0	
1.6347	7.50717	-3.24451	0	
1.6353	4.74669	-0.188088	0	
1.6360	7.81015	-0.49373	0	
1.6367	7.20419	-2.63323	0	
1.6373	5.65563	-1.41066	0	
1.6380	8.71909	-0.799373	0	
1.6387	4.44371	-2.63323	0	
1.6393	-6.22792	-3.24451	0	
1.6400	-8.98841	-3.24451	0	
1.6407	-6.5309	-4.46709	0	
1.6413	-7.13686	-4.16144	0	
1.6420	-4.10706	-2.02194	0	
1.6427	-0.437638	-1.41066	0	
1.6433	-4.71302	-2.63323	0	
1.6440	-10.8063	-4.16144	0	
1.6447	-10.8063	-3.8558	0	
1.6453	-9.59437	-1.41066	0	
1.6460	-8.0458	-0.188088	0	
1.6467	-2.5585	-0.49373	0	
1.6473	2.32285	-0.49373	0	
1.6480	3.83775	-0.799373	0	
1.6487	2.92881	-1.10502	0	
1.6493	1.07726	-0.49373	0	
1.6500	-1.95254	-0.49373	0	
1.6507	-1.34658	-1.10502	0	
1.6513	0.471302	-1.7163	0	
1.6520	2.01987	-3.8558	0	
1.6527	7.50717	-4.46709	0	
1.6533	9.32505	-3.55016	0	
1.6540	-1.0436	-4.77273	0	
1.6547	-9.29139	-7.5	0	
1.6553	-5.92494	-5.07837	0	
1.6560	-3.16446	-1.7163	0	
1.6567	-7.13686	-4.16144	0	
1.6573	-10.2003	-5.66615	0	
1.6580	-10.2003	-4.16144	0	
1.6587	-8.98841	-2.63323	0	
1.6593	-8.98841	-2.93887	0	
1.6600	-10.8063	-3.24451	0	
1.6607	-8.98841	-3.8558	0	
1.6613	-3.5011	-2.63323	0	
1.6620	-3.80408	-1.10502	0	
1.6627	-5.92494	-1.41066	0	
1.6633	-3.5011	-2.32759	0	
1.6640	-1.0436	-2.63323	0	
1.6647	-0.740618	-2.63323	0	
1.6653	2.01987	-0.799373	0	
1.6660	3.83775	1.34013	0	
1.6667	2.92881	1.34013	0	
1.6673	3.23179	1.34013	0	
1.6680	7.50717	2.25705	0	
1.6687	10.537	-0.49373	0	
1.6693	8.41611	-3.8558	0	
1.6700	5.35265	-5.07837	0	
1.6707	6.59823	-5.97179	0	
1.6713	8.41611	-5.97179	0	
1.6720	8.11313	-3.55016	0	
1.6727	9.62803	-3.55016	0	
1.6733	11.4796	-5.07837	0	
1.6740	11.7826	-3.8558	0	
1.6747	13.9034	-1.7163	0	
1.6753	12.9945	-3.24451	0	
1.6760	4.74669	-3.24451	0	
1.6767	-0.437638	-1.7163	0	
1.6773	1.07726	-3.55016	0	
1.6780	0.471302	-6.27743	0	
1.6787	-2.5585	-3.8558	0	
1.6793	-5.92494	0.117555	0	
1.6800	-8.98841	-1.10502	0	
1.6807	-8.98841	-2.63323	0	
1.6813	-6.22792	-0.49373	0	
1.6820	-6.22792	0.72884	0	
1.6827	-8.98841	-1.41066	0	
1.6833	-9.59437	-3.24451	0	
1.6840	-6.83388	-2.63323	0	
1.6847	-2.86148	-3.55016	0	
1.6853	-1.95254	-5.07837	0	
1.6860	-3.16446	-4.16144	0	
1.6867	-1.64956	-1.41066	0	
1.6873	-0.740618	-1.41066	0	
1.6880	-1.0436	-4.46709	0	
1.6887	4.74669	-3.55016	0	
1.6893	10.234	2.86834	0	
1.6900	7.50717	5.00784	0	
1.6907	5.04967	0.423198	0	
1.6913	8.41611	-2.02194	0	
1.6920	9.02207	0.423198	0	
1.6927	6.59823	0.117555	0	
1.6933	6.29525	-2.63323	0	
1.6940	3.83775	-3.24451	0	
1.6947	0.774282	-3.24451	0	
1.6953	1.07726	-4.16144	0	
1.6960	3.53477	-5.07837	0	
1.6967	3.23179	-5.38401	0	
1.6973	1.07726	-4.16144	0	
1.6980	-2.5585	-1.41066	0	
1.6987	-5.31898	-1.7163	0	
1.6993	-5.92494	-3.8558	0	
1.7000	-5.016	-2.63323	0	
1.7007	-3.80408	1.34013	0	
1.7013	-1.34658	2.86834	0	
1.7020	1.07726	2.25705	0	
1.7027	-0.437638	2.25705	0	
1.7033	-3.16446	3.17398	0	
1.7040	-0.437638	1.95141	0	
1.7047	2.62583	1.95141	0	
1.7053	-1.64956	3.17398	0	
1.7060	-7.13686	1.03448	0	
1.7067	-1.95254	-0.799373	0	
1.7073	4.74669	2.86834	0	
1.7080	4.74669	5.00784	0	
1.7087	3.83775	1.64577	0	
1.7093	5.65563	2.25705	0	
1.7100	4.74669	4.7022	0	
1.7107	4.74669	3.17398	0	
1.7113	11.1766	3.17398	0	
1.7120	13.6004	5.61912	0	
1.7127	8.11313	5.92477	0	
1.7133	6.29525	8.67555	0	
1.7140	7.81015	11.7085	0	
1.7147	5.35265	10.1803	0	
1.7153	6.29525	9.59248	0	
1.7160	8.11313	11.4028	0	
1.7167	-0.740618	8.67555	0	
1.7173	-9.29139	5.92477	0	
1.7180	-4.10706	8.67555	0	
1.7187	-0.134658	8.67555	0	
1.7193	-2.5585	4.7022	0	
1.7200	-0.740618	5.00784	0	
1.7207	-1.34658	6.53605	0	
1.7213	-9.29139	5.61912	0	
1.7220	-11.1093	6.53605	0	
1.7227	-7.13686	6.53605	0	
1.7233	-6.83388	3.47962	0	
1.7240	-6.22792	2.5627	0	
1.7247	-3.80408	6.23041	0	
1.7253	-4.10706	8.67555	0	
1.7260	-5.62196	5.92477	0	
1.7267	-5.016	2.86834	0	
1.7273	-4.10706	4.09091	0	
1.7280	-2.86148	7.75862	0	
1.7287	1.07726	7.75862	0	
1.7293	5.99227	5.31348	0	
1.7300	8.41611	3.17398	0	
1.7307	8.71909	2.25705	0	
1.7313	12.0855	4.39655	0	
1.7320	16.3609	6.53605	0	
1.7327	13.9034	5.31348	0	
1.7333	9.02207	4.09091	0	
1.7340	8.41611	2.86834	0	
1.7347	9.93101	-0.49373	0	
1.7353	7.81015	-2.32759	0	
1.7360	4.74669	-1.7163	0	
1.7367	3.83775	-2.32759	0	
1.7373	3.83775	-3.55016	0	
1.7380	1.71689	-3.8558	0	
1.7387	1.07726	-2.63323	0	
1.7393	2.92881	-0.49373	0	
1.7400	0.471302	-0.799373	0	
1.7407	-5.62196	-2.93887	0	
1.7413	-7.13686	-2.32759	0	
1.7420	-6.83388	-1.41066	0	
1.7427	-8.68543	-3.24451	0	
1.7433	-11.7152	-5.07837	0	
1.7440	-14.4757	-6.88872	0	
1.7447	-14.1727	-7.80564	0	
1.7453	-8.38245	-5.38401	0	
1.7460	-5.016	-2.32759	0	
1.7467	-7.74282	-1.41066	0	
1.7473	-11.1093	-2.32759	0	
1.7480	-13.5668	-4.16144	0	
1.7487	-14.1727	-4.16144	0	
1.7493	-9.89735	-2.02194	0	
1.7500	-4.41004	-2.02194	0	
1.7507	-1.0436	-3.55016	0	
1.7513	1.07726	-2.32759	0	
1.7520	2.01987	0.117555	0	
1.7527	0.774282	-0.188088	0	
1.7533	-2.5585	-2.63323	0	
1.7540	-5.92494	-3.24451	0	
1.7547	-7.13686	-1.7163	0	
1.7553	-6.83388	-2.32759	0	
1.7560	-7.13686	-1.41066	0	
1.7567	-7.43984	3.78527	0	
1.7573	-8.0458	3.47962	0	
1.7580	-8.38245	-1.10502	0	
1.7587	-7.13686	0.72884	0	
1.7593	-4.41004	3.47962	0	
1.7600	-3.16446	1.34013	0	
1.7607	-2.86148	1.64577	0	
1.7613	-4.41004	0.423198	0	
1.7620	-8.0458	-4.77273	0	
1.7627	-9.89735	-3.55016	0	
1.7633	-9.59437	1.34013	0	
1.7640	-11.7152	-2.32759	0	
1.7647	-14.1727	-6.88872	0	
1.7653	-12.3212	-5.07837	0	
1.7660	-7.74282	-5.97179	0	
1.7667	-4.41004	-11.4734	0	
1.7673	-0.740618	-12.3903	0	
1.7680	2.01987	-8.41693	0	
1.7687	1.07726	-5.07837	0	
1.7693	-0.134658	-6.58307	0	
1.7700	2.92881	-9.02821	0	
1.7707	6.59823	-8.72257	0	
1.7713	6.59823	-6.88872	0	
1.7720	8.41611	-5.97179	0	
1.7727	13.2975	-5.07837	0	
1.7733	15.452	-4.16144	0	
1.7740	13.6004	-4.16144	0	
1.7747	13.9034	-4.77273	0	
1.7753	16.0579	-4.16144	0	
1.7760	12.0855	-2.32759	0	
1.7767	-0.740618	-1.41066	0	
1.7773	-14.7787	-3.24451	0	
1.7780	-19.66	-5.07837	0	
1.7787	-16.2936	-5.97179	0	
1.7793	-12.3212	-5.07837	0	
1.7800	-11.4122	-2.63323	0	
1.7807	-10.2003	-3.24451	0	
1.7813	-7.13686	-5.66615	0	
1.7820	-3.5011	-4.16144	0	
1.7827	-1.0436	-2.32759	0	
1.7833	1.07726	-3.55016	0	
1.7840	1.07726	-4.16144	0	
1.7847	-2.25552	-4.77273	0	
1.7853	-5.31898	-5.07837	0	
1.7860	-1.0436	-3.55016	0	
1.7867	5.04967	-3.55016	0	
1.7873	5.04967	-4.46709	0	
1.7880	1.07726	-4.16144	0	
1.7887	1.71689	-6.58307	0	
1.7893	3.53477	-9.6395	0	
1.7900	2.32285	-6.27743	0	
1.7907	2.62583	-3.8558	0	
1.7913	6.29525	-6.88872	0	
1.7920	8.41611	-8.11129	0	
1.7927	9.02207	-6.88872	0	
1.7933	12.0855	-7.80564	0	
1.7940	14.2064	-7.80564	0	
1.7947	11.1766	-6.58307	0	
1.7953	7.81015	-9.6395	0	
1.7960	8.71909	-12.3903	0	
1.7967	8.11313	-9.94514	0	
1.7973	4.44371	-8.41693	0	
1.7980	4.14073	-9.6395	0	
1.7987	4.74669	-9.6395	0	
1.7993	-0.740618	-8.11129	0	
1.8000	-6.5309	-8.72257	0	
1.8007	-4.41004	-9.94514	0	
1.8013	-0.740618	-8.41693	0	
1.8020	-0.437638	-6.27743	0	
1.8027	-2.5585	-6.58307	0	
1.8033	-2.86148	-6.27743	0	
1.8040	-1.34658	-3.8558	0	
1.8047	0.168322	-3.55016	0	
1.8053	0.168322	-4.46709	0	
1.8060	-1.0436	-2.32759	0	
1.8067	-2.5585	-0.49373	0	
1.8073	-1.95254	-2.63323	0	
1.8080	2.32285	-3.24451	0	
1.8087	6.29525	-1.41066	0	
1.8093	7.81015	0.423198	0	
1.8100	10.234	2.86834	0	
1.8107	12.0855	4.09091	0	
1.8113	11.1766	4.39655	0	
1.8120	9.32505	8.06426	0	
1.8127	5.99227	9.87461	0	
1.8133	3.83775	5.61912	0	
1.8140	6.59823	4.09091	0	
1.8147	7.81015	6.84169	0	
1.8153	4.74669	5.92477	0	
1.8160	4.74669	5.00784	0	
1.8167	8.41611	8.36991	0	
1.8173	7.50717	7.75862	0	
1.8180	5.65563	3.17398	0	
1.8187	5.65563	2.5627	0	
1.8193	3.53477	4.39655	0	
1.8200	-3.5011	4.7022	0	
1.8207	-11.1093	4.7022	0	
1.8213	-13.2638	5.92477	0	
1.8220	-8.98841	5.92477	0	
1.8227	-5.016	7.45298	0	
1.8233	-4.41004	10.4859	0	
1.8240	-1.64956	12.0141	0	
1.8247	0.471302	11.7085	0	
1.8253	-3.5011	12.6254	0	
1.8260	-7.43984	13.2367	0	
1.8267	-4.71302	11.7085	0	
1.8273	-2.5585	10.1803	0	
1.8280	-4.71302	8.98119	0	
1.8287	-3.5011	8.67555	0	
1.8293	1.07726	9.59248	0	
1.8300	4.44371	8.36991	0	
1.8307	8.41611	6.84169	0	
1.8313	9.02207	11.4028	0	
1.8320	5.35265	12.3198	0	
1.8327	4.44371	5.92477	0	
1.8333	7.50717	6.23041	0	
1.8340	7.50717	11.7085	0	
1.8347	5.65563	8.98119	0	
1.8353	5.04967	5.92477	0	
1.8360	4.74669	7.75862	0	
1.8367	3.53477	5.92477	0	
1.8373	3.53477	1.95141	0	
1.8380	2.62583	3.78527	0	
1.8387	-0.134658	5.31348	0	
1.8393	-1.34658	3.78527	0	
1.8400	0.168322	2.25705	0	
1.8407	-0.437638	-0.188088	0	
1.8413	-4.10706	-0.799373	0	
1.8420	-4.71302	1.03448	0	
1.8427	-3.16446	0.117555	0	
1.8433	-5.016	-2.32759	0	
1.8440	-5.62196	-2.63323	0	
1.8447	-1.0436	-4.16144	0	
1.8453	1.07726	-4.16144	0	
1.8460	-0.437638	-1.41066	0	
1.8467	2.92881	-1.41066	0	
1.8473	9.93101	-2.63323	0	
1.8480	9.32505	-0.188088	0	
1.8487	4.14073	0.72884	0	
1.8493	5.65563	-1.41066	0	
1.8500	9.93101	-0.188088	0	
1.8507	9.32505	1.34013	0	
1.8513	7.81015	-0.49373	0	
1.8520	8.11313	-1.41066	0	
1.8527	7.50717	-1.10502	0	
1.8533	8.11313	-0.188088	0	
1.8540	8.11313	2.25705	0	
1.8547	-0.740618	3.17398	0	
1.8553	-10.2003	0.117555	0	
1.8560	-8.0458	-0.188088	0	
1.8567	-5.31898	3.47962	0	
1.8573	-8.0458	5.31348	0	
1.8580	-5.016	5.00784	0	
1.8587	1.07726	5.61912	0	
1.8593	-0.437638	5.61912	0	
1.8600	-4.41004	5.92477	0	
1.8607	-2.5585	6.23041	0	
1.8613	2.01987	5.00784	0	
1.8620	1.07726	5.00784	0	
1.8627	-6.22792	6.84169	0	
1.8633	-10.5033	5.61912	0	
1.8640	-10.8063	3.17398	0	
1.8647	-10.8063	3.17398	0	
1.8653	-3.80408	4.39655	0	
1.8660	8.41611	5.00784	0	
1.8667	7.50717	4.09091	0	
1.8673	-7.74282	2.25705	0	
1.8680	-19.66	0.423198	0	
1.8687	-25.4503	1.03448	0	
1.8693	-28.2108	1.34013	0	
1.8700	-20.569	0.423198	0	
1.8707	-6.22792	1.03448	0	
1.8713	-0.437638	1.64577	0	
1.8720	-1.95254	-0.49373	0	
1.8727	-1.64956	-2.63323	0	
1.8733	2.01987	-2.32759	0	
1.8740	5.99227	-1.10502	0	
1.8747	8.11313	-1.41066	0	
1.8753	11.4796	-2.93887	0	
1.8760	15.452	-4.16144	0	
1.8767	12.0855	-4.16144	0	
1.8773	2.92881	-4.46709	0	
1.8780	2.01987	-6.27743	0	
1.8787	7.20419	-6.58307	0	
1.8793	2.92881	-6.27743	0	
1.8800	-5.92494	-6.88872	0	
1.8807	-6.22792	-7.5	0	
1.8813	-1.0436	-7.5	0	
1.8820	1.71689	-6.88872	0	
1.8827	2.92881	-5.07837	0	
1.8833	1.41391	-1.41066	0	
1.8840	-1.34658	0.423198	0	
1.8847	-0.437638	-1.41066	0	
1.8853	3.83775	-5.07837	0	
1.8860	5.65563	-5.97179	0	
1.8867	4.14073	-4.77273	0	
1.8873	2.01987	-5.97179	0	
1.8880	1.07726	-6.88872	0	
1.8887	1.71689	-5.07837	0	
1.8893	4.44371	-5.07837	0	
1.8900	8.41611	-7.80564	0	
1.8907	12.6915	-7.80564	0	
1.8913	12.9945	-6.27743	0	
1.8920	9.93101	-8.72257	0	
1.8927	6.29525	-10.5564	0	
1.8933	3.83775	-8.11129	0	
1.8940	3.83775	-7.19436	0	
1.8947	3.83775	-8.72257	0	
1.8953	-1.64956	-7.80564	0	
1.8960	-6.5309	-5.97179	0	
1.8967	-3.80408	-5.38401	0	
1.8973	-1.0436	-4.46709	0	
1.8980	-5.31898	-6.27743	0	
1.8987	-7.43984	-9.6395	0	
1.8993	-6.5309	-9.02821	0	
1.9000	-8.0458	-7.80564	0	
1.9007	-5.92494	-8.11129	0	
1.9013	-3.16446	-6.88872	0	
1.9020	-8.98841	-5.07837	0	
1.9027	-17.2025	-7.19436	0	
1.9033	-16.8996	-8.72257	0	
1.9040	-13.5668	-7.5	0	
1.9047	-10.2003	-8.11129	0	
1.9053	-5.62196	-9.33386	0	
1.9060	-4.10706	-7.19436	0	
1.9067	-6.22792	-5.97179	0	
1.9073	-7.43984	-5.97179	0	
1.9080	-7.43984	-3.8558	0	
1.9087	-6.83388	-1.41066	0	
1.9093	-4.71302	-2.32759	0	
1.9100	-2.5585	-2.93887	0	
1.9107	-1.95254	-2.32759	0	
1.9113	-2.86148	-1.41066	0	
1.9120	-3.5011	-0.49373	0	
1.9127	-0.134658	-1.41066	0	
1.9133	5.65563	-3.55016	0	
1.9140	9.62803	-4.16144	0	
1.9147	9.93101	-3.24451	0	
1.9153	7.50717	-2.93887	0	
1.9160	6.59823	-4.16144	0	
1.9167	11.7826	-2.32759	0	
1.9173	14.8124	1.34013	0	
1.9180	9.93101	0.423198	0	
1.9187	3.53477	-2.32759	0	
1.9193	-0.740618	-0.188088	0	
1.9200	-7.43984	2.5627	0	
1.9207	-12.6242	-1.41066	0	
1.9213	-9.89735	-3.55016	0	
1.9220	-8.38245	0.117555	0	
1.9227	-11.7152	1.64577	0	
1.9233	-13.5668	0.423198	0	
1.9240	-12.0182	-1.41066	0	
1.9247	-10.8063	-4.16144	0	
1.9253	-7.43984	-3.55016	0	
1.9260	-2.5585	-1.10502	0	
1.9267	-2.5585	-1.41066	0	
1.9273	-5.31898	-2.93887	0	
1.9280	-5.92494	-2.02194	0	
1.9287	-5.016	-1.41066	0	
1.9293	-3.16446	-1.41066	0	
1.9300	1.07726	-0.49373	0	
1.9307	5.35265	-1.41066	0	
1.9313	5.04967	-1.7163	0	
1.9320	3.83775	-0.49373	0	
1.9327	4.74669	-0.799373	0	
1.9333	5.65563	-3.8558	0	
1.9340	5.04967	-3.8558	0	
1.9347	3.83775	-1.10502	0	
1.9353	2.92881	1.03448	0	
1.9360	1.07726	1.34013	0	
1.9367	0.168322	0.72884	0	
1.9373	1.07726	-0.49373	0	
1.9380	0.168322	-0.49373	0	
1.9387	-2.5585	0.423198	0	
1.9393	-3.5011	-0.49373	0	
1.9400	-7.13686	-1.7163	0	
1.9407	-11.7152	0.117555	0	
1.9413	-10.5033	2.25705	0	
1.9420	-11.1093	-0.188088	0	
1.9427	-13.5668	-1.7163	0	
1.9433	-6.22792	1.34013	0	
1.9440	0.168322	2.25705	0	
1.9447	-3.5011	-1.7163	0	
1.9453	-4.10706	-3.8558	0	
1.9460	-1.0436	-2.32759	0	
1.9467	-2.86148	-2.32759	0	
1.9473	-2.5585	-1.41066	0	
1.9480	-1.0436	-1.10502	0	
1.9487	-4.41004	-1.41066	0	
1.9493	-1.64956	-0.799373	0	
1.9500	2.01987	0.72884	0	
1.9507	-0.740618	2.86834	0	
1.9513	0.471302	5.00784	0	
1.9520	6.59823	5.61912	0	
1.9527	4.74669	4.7022	0	
1.9533	3.23179	6.53605	0	
1.9540	9.62803	8.06426	0	
1.9547	10.8736	5.92477	0	
1.9553	8.11313	5.00784	0	
1.9560	11.1766	8.36991	0	
1.9567	12.9945	9.59248	0	
1.9573	4.74669	5.61912	0	
1.9580	-5.62196	-0.49373	0	
1.9587	-8.0458	-2.32759	0	
1.9593	-4.41004	-0.188088	0	
1.9600	-2.25552	2.25705	0	
1.9607	-2.5585	2.86834	0	
1.9613	-2.25552	0.72884	0	
1.9620	-2.86148	-2.63323	0	
1.9627	-4.71302	-5.07837	0	
1.9633	-5.31898	-6.58307	0	
1.9640	-3.80408	-6.88872	0	
1.9647	-1.95254	-2.93887	0	
1.9653	-2.5585	1.34013	0	
1.9660	-4.10706	0.423198	0	
1.9667	-4.41004	-1.41066	0	
1.9673	-3.16446	-1.41066	0	
1.9680	-2.25552	-1.41066	0	
1.9687	-1.64956	1.03448	0	
1.9693	1.07726	2.86834	0	
1.9700	4.74669	2.86834	0	
1.9707	5.99227	4.7022	0	
1.9713	8.41611	7.75862	0	
1.9720	14.8124	6.84169	0	
1.9727	15.755	5.31348	0	
1.9733	9.02207	5.00784	0	
1.9740	6.90121	4.09091	0	
1.9747	11.1766	4.39655	0	
1.9753	12.0855	5.92477	0	
1.9760	8.71909	6.84169	0	
1.9767	4.74669	8.36991	0	
1.9773	2.01987	7.45298	0	
1.9780	4.14073	3.78527	0	
1.9787	10.234	4.7022	0	
1.9793	13.9034	8.67555	0	
1.9800	10.537	7.75862	0	
1.9807	3.23179	5.00784	0	
1.9813	-1.0436	7.45298	0	
1.9820	-0.740618	7.75862	0	
1.9827	-1.64956	4.7022	0	
1.9833	-3.80408	2.86834	0	
1.9840	-1.95254	4.09091	0	
1.9847	-5.62196	5.61912	0	
1.9853	-16.2936	5.61912	0	
1.9860	-18.1451	4.09091	0	
1.9867	-9.59437	4.09091	0	
1.9873	-0.740618	5.92477	0	
1.9880	5.65563	6.53605	0	
1.9887	7.50717	5.61912	0	
1.9893	2.62583	4.7022	0	
1.9900	0.168322	3.78527	0	
1.9907	1.07726	4.39655	0	
1.9913	-0.437638	5.61912	0	
1.9920	0.168322	4.09091	0	
1.9927	4.74669	1.64577	0	
1.9933	7.50717	1.95141	0	
1.9940	6.29525	4.39655	0	
1.9947	5.65563	4.7022	0	
1.9953	5.99227	2.25705	0	
1.9960	3.23179	1.34013	0	
1.9967	-2.5585	0.423198	0	
1.9973	-6.5309	-2.63323	0	
1.9980	-6.22792	-3.8558	0	
1.9987	-4.10706	-2.32759	0	
1.9993	-1.95254	-3.24451	0	
2.0000	-1.0436	-4.16144	0	
2.0007	-5.92494	-4.16144	0	
2.0013	-12.3212	-6.27743	0	
2.0020	-12.0182	-7.19436	0	
2.0027	-7.13686	-4.46709	0	
2.0033	-3.80408	-4.46709	0	
2.0040	-2.5585	-5.97179	0	
2.0047	-1.64956	-4.77273	0	
2.0053	-3.16446	-3.55016	0	
2.0060	-3.16446	-1.41066	0	
2.0067	1.07726	2.25705	0	
2.0073	2.01987	0.72884	0	
2.0080	-1.34658	-2.93887	0	
2.0087	1.41391	-3.8558	0	
2.0093	7.20419	-4.16144	0	
2.0100	5.04967	-4.46709	0	
2.0107	3.83775	-4.16144	0	
2.0113	4.74669	-5.07837	0	
2.0120	-5.016	-5.07837	0	
2.0127	-13.5668	-3.24451	0	
2.0133	-1.34658	-3.24451	0	
2.0140	12.9945	-2.63323	0	
2.0147	11.7826	0.72884	0	
2.0153	5.35265	1.34013	0	
2.0160	4.14073	-0.188088	0	
2.0167	4.74669	1.03448	0	
2.0173	4.74669	-0.49373	0	
2.0180	2.01987	-4.46709	0	
2.0187	-0.134658	-4.16144	0	
2.0193	1.07726	-2.93887	0	
2.0200	0.471302	-4.16144	0	
2.0207	-4.41004	-2.93887	0	
2.0213	-5.016	-0.49373	0	
2.0220	-1.95254	-1.41066	0	
2.0227	-1.64956	-2.32759	0	
2.0233	-4.10706	-2.32759	0	
2.0240	-4.41004	-3.24451	0	
2.0247	-1.64956	-2.32759	0	
2.0253	1.07726	-0.799373	0	
2.0260	-0.134658	-0.49373	0	
2.0267	-3.80408	2.25705	0	
2.0273	-3.5011	4.09091	0	
2.0280	-0.740618	1.34013	0	
2.0287	1.07726	2.25705	0	
2.0293	3.83775	6.84169	0	
2.0300	9.32505	6.84169	0	
2.0307	12.6915	4.09091	0	
2.0313	12.0855	4.09091	0	
2.0320	11.1766	4.09091	0	
2.0327	8.41611	2.25705	0	
2.0333	5.65563	1.34013	0	
2.0340	5.65563	2.5627	0	
2.0347	3.83775	3.17398	0	
2.0353	-2.5585	3.78527	0	
2.0360	-3.16446	4.7022	0	
2.0367	2.01987	3.78527	0	
2.0373	3.23179	1.34013	0	
2.0380	2.62583	1.34013	0	
2.0387	4.14073	3.47962	0	
2.0393	6.59823	4.09091	0	
2.0400	10.8736	4.09091	0	
2.0407	12.9945	2.5627	0	
2.0413	2.62583	0.423198	0	
2.0420	-8.68543	-3.24451	0	
2.0427	-7.13686	-7.80564	0	
2.0433	-5.31898	-9.6395	0	
2.0440	-10.8063	-7.19436	0	
2.0447	-8.98841	-7.5	0	
2.0453	0.168322	-9.6395	0	
2.0460	0.168322	-6.88872	0	
2.0467	-8.0458	-3.8558	0	
2.0473	-12.6242	-5.38401	0	
2.0480	-12.3212	-5.38401	0	
2.0487	-10.8063	-3.24451	0	
2.0493	-5.92494	-3.24451	0	
2.0500	5.65563	-3.55016	0	
2.0507	15.452	-1.10502	0	
2.0513	9.32505	0.423198	0	
2.0520	-6.22792	-1.7163	0	
2.0527	-12.3212	-4.46709	0	
2.0533	-5.016	-6.27743	0	
2.0540	7.50717	-5.97179	0	
2.0547	21.8482	-5.38401	0	
2.0553	31.6109	-7.5	0	
2.0560	29.1534	-7.19436	0	
2.0567	19.3907	-4.46709	0	
2.0573	13.6004	-4.77273	0	
2.0580	10.8736	-5.07837	0	
2.0587	2.01987	-3.55016	0	
2.0593	-11.7152	-6.88872	0	
2.0600	-17.2025	-10.5564	0	
2.0607	-10.5033	-6.27743	0	
2.0613	-4.10706	-5.07837	0	
2.0620	-4.41004	-9.02821	0	
2.0627	-4.41004	-7.80564	0	
2.0633	-3.5011	-5.07837	0	
2.0640	-7.43984	-7.19436	0	
2.0647	-10.2003	-5.97179	0	
2.0653	-1.34658	-4.16144	0	
2.0660	9.32505	-6.58307	0	
2.0667	5.99227	-6.88872	0	
2.0673	-4.41004	-3.24451	0	
2.0680	-10.8063	-4.16144	0	
2.0687	-17.2025	-6.58307	0	
2.0693	-19.0541	-6.58307	0	
2.0700	-6.22792	-5.66615	0	
2.0707	10.8736	-4.16144	0	
2.0713	15.755	-4.46709	0	
2.0720	10.234	-7.19436	0	
2.0727	2.92881	-8.72257	0	
2.0733	-4.10706	-7.80564	0	
2.0740	-8.68543	-8.11129	0	
2.0747	-8.0458	-5.97179	0	
2.0753	-7.13686	-2.63323	0	
2.0760	-7.43984	-2.93887	0	
2.0767	-6.5309	-4.46709	0	
2.0773	-5.92494	-3.55016	0	
2.0780	-8.38245	-2.32759	0	
2.0787	-11.7152	-2.63323	0	
2.0793	-11.1093	-2.63323	0	
2.0800	-6.22792	-3.24451	0	
2.0807	-6.22792	-2.93887	0	
2.0813	-11.4122	-0.49373	0	
2.0820	-9.89735	0.117555	0	
2.0827	-5.016	-2.02194	0	
2.0833	-9.29139	-0.799373	0	
2.0840	-13.2638	1.95141	0	
2.0847	-7.43984	-0.188088	0	
2.0853	-5.31898	-3.24451	0	
2.0860	-9.89735	-1.7163	0	
2.0867	-8.0458	0.117555	0	
2.0873	-3.5011	0.117555	0	
2.0880	-2.25552	0.423198	0	
2.0887	2.92881	2.86834	0	
2.0893	10.234	5.61912	0	
2.0900	7.50717	7.14734	0	
2.0907	0.471302	5.31348	0	
2.0913	0.168322	2.25705	0	
2.0920	5.35265	4.09091	0	
2.0927	8.41611	8.67555	0	
2.0933	6.90121	9.59248	0	
2.0940	3.83775	6.84169	0	
2.0947	2.92881	4.39655	0	
2.0953	2.01987	3.78527	0	
2.0960	0.168322	3.47962	0	
2.0967	0.471302	3.17398	0	
2.0973	2.01987	2.86834	0	
2.0980	4.14073	2.5627	0	
2.0987	10.234	3.47962	0	
2.0993	12.9945	5.00784	0	
2.1000	6.59823	5.00784	0	
2.1007	-0.134658	2.86834	0	
2.1013	0.774282	1.95141	0	
2.1020	3.83775	3.17398	0	
2.1027	3.53477	3.17398	0	
2.1033	2.32285	0.423198	0	
2.1040	4.44371	-0.49373	0	
2.1047	5.99227	2.86834	0	
2.1053	4.74669	5.31348	0	
2.1060	5.99227	5.00784	0	
2.1067	2.92881	4.39655	0	
2.1073	-16.8996	3.78527	0	
2.1080	-37.6705	1.03448	0	
2.1087	-33.3951	-1.41066	0	
2.1093	-13.8698	0.423198	0	
2.1100	-2.86148	3.47962	0	
2.1107	0.168322	3.17398	0	
2.1113	2.62583	1.64577	0	
2.1120	3.83775	3.17398	0	
2.1127	4.14073	4.09091	0	
2.1133	6.90121	3.17398	0	
2.1140	9.32505	5.00784	0	
2.1147	9.32505	7.45298	0	
2.1153	8.11313	6.23041	0	
2.1160	6.59823	3.17398	0	
2.1167	2.92881	0.423198	0	
2.1173	-0.740618	-0.799373	0	
2.1180	-0.134658	1.34013	0	
2.1187	1.41391	1.34013	0	
2.1193	-2.5585	-1.41066	0	
2.1200	-7.13686	-1.10502	0	
2.1207	-5.31898	1.95141	0	
2.1213	-7.13686	0.423198	0	
2.1220	-17.5392	-4.77273	0	
2.1227	-26.3593	-5.97179	0	
2.1233	-27.3019	-3.24451	0	
2.1240	-24.5414	-3.55016	0	
2.1247	-21.7809	-6.88872	0	
2.1253	-19.0541	-6.27743	0	
2.1260	-18.1451	-5.07837	0	
2.1267	-17.5392	-7.80564	0	
2.1273	-14.4757	-8.72257	0	
2.1280	-6.83388	-5.97179	0	
2.1287	5.99227	-5.07837	0	
2.1293	22.1512	-4.77273	0	
2.1300	30.399	-4.16144	0	
2.1307	25.8206	-4.16144	0	
2.1313	17.5728	-4.16144	0	
2.1320	15.755	-4.16144	0	
2.1327	16.6639	-4.16144	0	
2.1333	14.8124	-2.32759	0	
2.1340	12.6915	0.117555	0	
2.1347	14.2064	-0.799373	0	
2.1353	15.452	0.117555	0	
2.1360	13.2975	4.09091	0	
2.1367	10.234	3.78527	0	
2.1373	10.234	1.03448	0	
2.1380	11.1766	2.25705	0	
2.1387	6.59823	3.17398	0	
2.1393	-2.5585	1.34013	0	
2.1400	-5.31898	0.423198	0	
2.1407	-2.86148	-0.49373	0	
2.1413	-5.31898	-1.7163	0	
2.1420	-11.7152	-1.10502	0	
2.1427	-16.2936	0.423198	0	
2.1433	-15.0817	-0.49373	0	
2.1440	-7.43984	-0.49373	0	
2.1447	-2.5585	-0.799373	0	
2.1453	-5.62196	-2.32759	0	
2.1460	-6.5309	-2.32759	0	
2.1467	-1.34658	-0.799373	0	
2.1473	1.07726	-0.188088	0	
2.1480	1.41391	0.117555	0	
2.1487	3.53477	-0.188088	0	
2.1493	5.99227	-1.41066	0	
2.1500	7.81015	-0.799373	0	
2.1507	9.62803	1.34013	0	
2.1513	12.0855	0.423198	0	
2.1520	15.452	-1.41066	0	
2.1527	16.3609	-0.799373	0	
2.1533	13.9034	-0.799373	0	
2.1540	14.5094	-2.63323	0	
2.1547	12.6915	-2.63323	0	
2.1553	2.92881	-1.41066	0	
2.1560	-3.5011	-2.63323	0	
2.1567	-1.64956	-2.93887	0	
2.1573	-2.25552	-2.63323	0	
2.1580	-6.5309	-3.8558	0	
2.1587	-7.13686	-3.24451	0	
2.1593	-7.13686	-0.49373	0	
2.1600	-9.89735	-0.188088	0	
2.1607	-11.1093	-2.63323	0	
2.1613	-10.8063	-3.8558	0	
2.1620	-12.0182	-5.38401	0	
2.1627	-12.6242	-6.88872	0	
2.1633	-10.2003	-4.77273	0	
2.1640	-7.43984	-1.41066	0	
2.1647	-5.31898	-2.32759	0	
2.1653	-2.86148	-4.77273	0	
2.1660	-1.64956	-4.77273	0	
2.1667	-1.95254	-2.32759	0	
2.1673	-2.5585	-0.49373	0	
2.1680	1.41391	-0.799373	0	
2.1687	9.32505	-2.93887	0	
2.1693	11.1766	-4.77273	0	
2.1700	5.99227	-6.27743	0	
2.1707	5.99227	-6.27743	0	
2.1713	9.32505	-4.77273	0	
2.1720	9.32505	-4.16144	0	
2.1727	9.62803	-2.93887	0	
2.1733	11.1766	-1.10502	0	
2.1740	10.234	-2.63323	0	
2.1747	10.537	-4.16144	0	
2.1753	12.6915	-1.7163	0	
2.1760	12.0855	-1.7163	0	
2.1767	9.93101	-4.16144	0	
2.1773	8.41611	-1.7163	0	
2.1780	4.14073	-0.188088	0	
2.1787	-0.134658	-2.32759	0	
2.1793	-1.64956	-2.02194	0	
2.1800	-2.86148	-0.49373	0	
2.1807	-6.22792	-3.55016	0	
2.1813	-8.0458	-3.8558	0	
2.1820	-8.0458	-0.49373	0	
2.1827	-8.0458	0.423198	0	
2.1833	-5.016	2.5627	0	
2.1840	-1.0436	6.23041	0	
2.1847	-1.64956	4.09091	0	
2.1853	-5.31898	0.423198	0	
2.1860	-6.5309	0.423198	0	
2.1867	-5.31898	-0.49373	0	
2.1873	-2.86148	-2.32759	0	
2.1880	-0.437638	1.03448	0	
2.1887	-0.740618	3.47962	0	
2.1893	-0.740618	2.5627	0	
2.1900	3.83775	2.86834	0	
2.1907	9.32505	2.86834	0	
2.1913	13.6004	1.64577	0	
2.1920	12.3885	1.03448	0	
2.1927	4.74669	-0.49373	0	
2.1933	3.83775	-2.02194	0	
2.1940	11.7826	-0.799373	0	
2.1947	12.9945	1.34013	0	
2.1953	8.71909	2.25705	0	
2.1960	6.59823	1.64577	0	
2.1967	2.01987	-0.188088	0	
2.1973	-1.64956	-1.41066	0	
2.1980	0.168322	-0.49373	0	
2.1987	0.168322	1.95141	0	
2.1993	-0.740618	3.47962	0	
2.2000	1.07726	1.64577	0	
2.2007	-4.41004	-1.7163	0	
2.2013	-11.7152	-1.10502	0	
2.2020	-10.2003	1.34013	0	
2.2027	-9.89735	-0.799373	0	
2.2033	-17.2025	-3.55016	0	
2.2040	-19.0541	-3.24451	0	
2.2047	-15.0817	-2.32759	0	
2.2053	-12.6242	-2.63323	0	
2.2060	-9.29139	-1.10502	0	
2.2067	-1.95254	1.03448	0	
2.2073	1.07726	1.03448	0	
2.2080	-2.86148	-0.188088	0	
2.2087	-5.62196	-0.49373	0	
2.2093	-3.80408	0.117555	0	
2.2100	-1.64956	0.423198	0	
2.2107	1.07726	1.03448	0	
2.2113	5.65563	1.34013	0	
2.2120	6.59823	2.25705	0	
2.2127	3.53477	2.25705	0	
2.2133	2.92881	0.72884	0	
2.2140	5.04967	-0.799373	0	
2.2147	6.90121	-2.02194	0	
2.2153	6.59823	-1.41066	0	
2.2160	2.01987	0.72884	0	
2.2167	-3.5011	1.34013	0	
2.2173	-4.41004	0.72884	0	
2.2180	-3.5011	0.423198	0	
2.2187	-5.92494	1.03448	0	
2.2193	-8.98841	2.25705	0	
2.2200	-9.89735	4.39655	0	
2.2207	-9.89735	5.00784	0	
2.2213	-11.7152	5.31348	0	
2.2220	-13.5668	6.84169	0	
2.2227	-12.9608	7.45298	0	
2.2233	-11.1093	6.23041	0	
2.2240	-11.7152	4.09091	0	
2.2247	-13.2638	2.25705	0	
2.2253	-13.5668	3.17398	0	
2.2260	-10.8063	5.31348	0	
2.2267	-5.31898	5.31348	0	
2.2273	-1.95254	4.7022	0	
2.2280	-4.10706	6.23041	0	
2.2287	-5.31898	5.61912	0	
2.2293	-4.71302	1.34013	0	
2.2300	-2.86148	0.72884	0	
2.2307	2.92881	3.17398	0	
2.2313	8.41611	1.95141	0	
2.2320	8.71909	-0.188088	0	
2.2327	8.11313	1.95141	0	
2.2333	9.32505	3.17398	0	
2.2340	9.93101	1.34013	0	
2.2347	10.537	-0.49373	0	
2.2353	11.1766	-1.7163	0	
2.2360	9.32505	-2.32759	0	
2.2367	7.20419	-3.24451	0	
2.2373	7.50717	-5.07837	0	
2.2380	8.71909	-5.07837	0	
2.2387	7.50717	-4.16144	0	
2.2393	4.14073	-6.27743	0	
2.2400	2.32285	-8.72257	0	
2.2407	1.07726	-6.58307	0	
2.2413	-3.80408	-3.55016	0	
2.2420	-8.38245	-0.49373	0	
2.2427	-8.68543	0.423198	0	
2.2433	-8.0458	-3.24451	0	
2.2440	-6.83388	-4.77273	0	
2.2447	-4.10706	-3.24451	0	
2.2453	-1.64956	-3.24451	0	
2.2460	0.168322	-3.55016	0	
2.2467	1.07726	-0.49373	0	
2.2473	1.07726	0.423198	0	
2.2480	2.92881	-1.7163	0	
2.2487	5.99227	-2.32759	0	
2.2493	5.35265	-2.32759	0	
2.2500	3.83775	-2.02194	0	
2.2507	8.71909	0.423198	0	
2.2513	12.9945	1.03448	0	
2.2520	10.234	0.423198	0	
2.2527	8.11313	1.95141	0	
2.2533	11.1766	1.95141	0	
2.2540	12.0855	0.117555	0	
2.2547	10.537	2.25705	0	
2.2553	9.32505	5.61912	0	
2.2560	7.50717	3.17398	0	
2.2567	4.74669	0.72884	0	
2.2573	2.92881	3.78527	0	
2.2580	1.07726	3.78527	0	
2.2587	-2.5585	-1.41066	0	
2.2593	-6.22792	-2.93887	0	
2.2600	-11.4122	0.117555	0	
2.2607	-16.8996	2.25705	0	
2.2613	-18.1451	3.47962	0	
2.2620	-15.9906	3.17398	0	
2.2627	-15.3847	1.64577	0	
2.2633	-14.4757	3.17398	0	
2.2640	-8.0458	5.61912	0	
2.2647	-5.016	4.39655	0	
2.2653	-10.2003	1.64577	0	
2.2660	-10.8063	0.117555	0	
2.2667	-5.016	0.423198	0	
2.2673	-7.13686	0.423198	0	
2.2680	-13.8698	-1.41066	0	
2.2687	-12.6242	-2.32759	0	
2.2693	-4.41004	-1.10502	0	
2.2700	3.83775	-1.10502	0	
2.2707	9.32505	-0.49373	0	
2.2713	12.3885	4.7022	0	
2.2720	12.9945	8.67555	0	
2.2727	10.8736	6.84169	0	
2.2733	10.234	4.39655	0	
2.2740	13.2975	4.7022	0	
2.2747	13.6004	6.23041	0	
2.2753	11.4796	6.23041	0	
2.2760	13.9034	4.39655	0	
2.2767	12.0855	5.00784	0	
2.2773	3.23179	8.67555	0	
2.2780	-1.34658	9.59248	0	
2.2787	-5.92494	7.45298	0	
2.2793	-19.3571	5.31348	0	
2.2800	-26.0563	3.17398	0	
2.2807	-19.0541	0.423198	0	
2.2813	-16.2936	-2.32759	0	
2.2820	-18.1451	-4.46709	0	
2.2827	-12.6242	-3.24451	0	
2.2833	-8.98841	-0.49373	0	
2.2840	-13.5668	-2.32759	0	
2.2847	-12.6242	-3.24451	0	
2.2853	-3.16446	-0.799373	0	
2.2860	3.53477	-1.7163	0	
2.2867	3.53477	-3.55016	0	
2.2873	2.01987	0.423198	0	
2.2880	4.44371	1.64577	0	
2.2887	8.41611	-1.41066	0	
2.2893	9.32505	1.34013	0	
2.2900	10.234	5.61912	0	
2.2907	15.1153	3.78527	0	
2.2913	17.5728	2.25705	0	
2.2920	14.8124	2.25705	0	
2.2927	10.537	-0.49373	0	
2.2933	8.11313	-2.63323	0	
2.2940	10.234	-2.32759	0	
2.2947	12.9945	-2.63323	0	
2.2953	9.02207	-2.63323	0	
2.2960	3.23179	-0.49373	0	
2.2967	4.44371	0.423198	0	
2.2973	5.65563	-1.10502	0	
2.2980	2.62583	-2.93887	0	
2.2987	2.01987	-4.16144	0	
2.2993	1.71689	-5.38401	0	
2.3000	-3.5011	-5.07837	0	
2.3007	-9.29139	-3.8558	0	
2.3013	-11.7152	-4.46709	0	
2.3020	-10.2003	-7.80564	0	
2.3027	-5.31898	-7.19436	0	
2.3033	-4.41004	-3.8558	0	
2.3040	-9.29139	-4.16144	0	
2.3047	-10.2003	-6.88872	0	
2.3053	-5.62196	-5.66615	0	
2.3060	-3.16446	-5.07837	0	
2.3067	-2.25552	-5.97179	0	
2.3073	-1.0436	-4.16144	0	
2.3080	0.168322	-4.77273	0	
2.3087	4.74669	-10.2508	0	
2.3093	8.11313	-10.5564	0	
2.3100	6.59823	-3.8558	0	
2.3107	6.90121	-0.49373	0	
2.3113	10.234	-3.24451	0	
2.3120	12.0855	-4.16144	0	
2.3127	12.0855	-3.55016	0	
2.3133	6.59823	-5.07837	0	
2.3140	-0.437638	-4.77273	0	
2.3147	2.92881	-2.02194	0	
2.3153	10.234	-1.41066	0	
2.3160	5.99227	-4.16144	0	
2.3167	1.07726	-5.66615	0	
2.3173	3.83775	-6.58307	0	
2.3180	4.74669	-7.19436	0	
2.3187	-1.95254	-7.80564	0	
2.3193	-7.74282	-8.41693	0	
2.3200	-7.13686	-8.72257	0	
2.3207	-8.38245	-7.80564	0	
2.3213	-14.4757	-8.72257	0	
2.3220	-17.2025	-10.5564	0	
2.3227	-12.6242	-10.2508	0	
2.3233	-8.68543	-9.02821	0	
2.3240	-10.2003	-9.02821	0	
2.3247	-11.7152	-9.02821	0	
2.3253	-8.0458	-7.19436	0	
2.3260	-0.740618	-4.46709	0	
2.3267	4.14073	-3.24451	0	
2.3273	4.74669	-2.63323	0	
2.3280	2.01987	-1.7163	0	
2.3287	2.01987	-1.10502	0	
2.3293	8.11313	-1.10502	0	
2.3300	12.9945	-1.41066	0	
2.3307	11.4796	-2.63323	0	
2.3313	12.3885	-4.77273	0	
2.3320	16.6639	-6.88872	0	
2.3327	14.8124	-6.88872	0	
2.3333	11.7826	-5.07837	0	
2.3340	13.9034	-2.93887	0	
2.3347	13.9034	-3.8558	0	
2.3353	11.7826	-3.24451	0	
2.3360	11.7826	-0.188088	0	
2.3367	9.62803	-0.188088	0	
2.3373	6.29525	-2.63323	0	
2.3380	7.50717	-2.32759	0	
2.3387	6.59823	-3.24451	0	
2.3393	-0.134658	-5.38401	0	
2.3400	-5.31898	-4.16144	0	
2.3407	-6.5309	-3.55016	0	
2.3413	-8.38245	-4.77273	0	
2.3420	-9.89735	-3.8558	0	
2.3427	-9.59437	-2.02194	0	
2.3433	-9.29139	-4.16144	0	
2.3440	-8.98841	-5.66615	0	
2.3447	-8.38245	-4.16144	0	
2.3453	-6.83388	-3.55016	0	
2.3460	-5.31898	-5.07837	0	
2.3467	-4.41004	-4.16144	0	
2.3473	-2.25552	-2.32759	0	
2.3480	-0.740618	-2.02194	0	
2.3487	-2.25552	-2.32759	0	
2.3493	-1.95254	-2.32759	0	
2.3500	3.83775	-1.41066	0	
2.3507	6.29525	1.03448	0	
2.3513	1.41391	2.25705	0	
2.3520	1.41391	-0.188088	0	
2.3527	8.11313	-3.24451	0	
2.3533	9.32505	-3.24451	0	
2.3540	2.92881	-2.32759	0	
2.3547	0.168322	-0.799373	0	
2.3553	2.01987	-0.49373	0	
2.3560	3.53477	-1.41066	0	
2.3567	3.83775	0.117555	0	
2.3573	2.62583	2.5627	0	
2.3580	-1.0436	1.64577	0	
2.3587	-5.016	3.17398	0	
2.3593	-4.41004	8.67555	0	
2.3600	-0.437638	9.28684	0	
2.3607	0.774282	7.14734	0	
2.3613	-4.41004	7.45298	0	
2.3620	-10.2003	5.31348	0	
2.3627	-9.59437	3.17398	0	
2.3633	-8.0458	6.84169	0	
2.3640	-10.2003	8.67555	0	
2.3647	-9.59437	5.92477	0	
2.3653	-4.41004	3.78527	0	
2.3660	-1.34658	1.34013	0	
2.3667	1.07726	-0.49373	0	
2.3673	3.23179	1.34013	0	
2.3680	2.32285	2.25705	0	
2.3687	5.35265	3.47962	0	
2.3693	11.7826	5.92477	0	
2.3700	11.4796	4.09091	0	
2.3707	9.32505	1.34013	0	
2.3713	8.41611	4.7022	0	
2.3720	-2.5585	5.92477	0	
2.3727	-15.3847	3.47962	0	
2.3733	-11.7152	4.7022	0	
2.3740	-2.86148	5.61912	0	
2.3747	-4.41004	4.7022	0	
2.3753	-8.68543	8.36991	0	
2.3760	-8.98841	9.59248	0	
2.3767	-9.89735	5.31348	0	
2.3773	-11.7152	4.7022	0	
2.3780	-10.8063	6.23041	0	
2.3787	-8.38245	5.00784	0	
2.3793	-7.13686	5.31348	0	
2.3800	-9.29139	7.14734	0	
2.3807	-13.5668	6.53605	0	
2.3813	-15.6876	5.92477	0	
2.3820	-15.0817	5.00784	0	
2.3827	-12.6242	4.39655	0	
2.3833	-11.7152	4.09091	0	
2.3840	-10.8063	1.34013	0	
2.3847	-7.74282	-2.32759	0	
2.3853	-5.31898	-3.8558	0	
2.3860	-7.74282	-4.46709	0	
2.3867	-8.68543	-4.77273	0	
2.3873	-5.62196	-3.8558	0	
2.3880	-2.25552	-5.66615	0	
2.3887	-0.134658	-8.72257	0	
2.3893	0.168322	-8.72257	0	
2.3900	0.168322	-9.02821	0	
2.3907	4.74669	-8.72257	0	
2.3913	12.0855	-7.80564	0	
2.3920	14.5094	-7.80564	0	
2.3927	14.8124	-6.58307	0	
2.3933	18.7848	-5.07837	0	
2.3940	21.2423	-6.88872	0	
2.3947	22.1512	-4.46709	0	
2.3953	22.4542	1.03448	0	
2.3960	19.3907	1.03448	0	
2.3967	13.2975	-1.41066	0	
2.3973	8.41611	0.423198	0	
2.3980	7.50717	0.423198	0	
2.3987	9.32505	-1.10502	0	
2.3993	6.59823	0.72884	0	
2.4000	-7.74282	1.34013	0	
2.4007	-19.963	-1.10502	0	
2.4013	-17.8422	-0.188088	0	
2.4020	-13.5668	0.72884	0	
2.4027	-14.1727	-1.10502	0	
2.4033	-11.1093	-1.41066	0	
2.4040	-7.13686	-0.49373	0	
2.4047	-10.8063	-1.41066	0	
2.4053	-16.2936	-1.7163	0	
2.4060	-14.4757	-1.10502	0	
2.4067	-3.5011	-0.49373	0	
2.4073	6.29525	-2.32759	0	
2.4080	0.168322	-5.97179	0	
2.4087	-14.4757	-6.58307	0	
2.4093	-13.5668	-2.32759	0	
2.4100	-1.34658	-1.41066	0	
2.4107	2.92881	-4.16144	0	
2.4113	1.41391	-5.66615	0	
2.4120	0.774282	-6.88872	0	
2.4127	-0.437638	-6.88872	0	
2.4133	1.07726	-4.16144	0	
2.4140	7.50717	-2.32759	0	
2.4147	13.9034	-3.55016	0	
2.4153	20.9393	-2.63323	0	
2.4160	23.6661	0.423198	0	
2.4167	18.7848	1.34013	0	
2.4173	13.9034	0.423198	0	
2.4180	6.59823	-0.49373	0	
2.4187	-10.8063	-1.10502	0	
2.4193	-24.5414	-1.41066	0	
2.4200	-22.7235	-1.10502	0	
2.4207	-19.0541	-1.41066	0	
2.4213	-19.963	-4.16144	0	
2.4220	-14.7787	-5.97179	0	
2.4227	-10.2003	-4.16144	0	
2.4233	-13.5668	-0.49373	0	
2.4240	-14.4757	0.117555	0	
2.4247	-8.98841	-1.7163	0	
2.4253	-5.31898	-0.49373	0	
2.4260	-1.64956	2.25705	0	
2.4267	1.07726	1.64577	0	
2.4273	-0.740618	-0.49373	0	
2.4280	-2.25552	-1.41066	0	
2.4287	2.01987	-1.41066	0	
2.4293	4.14073	0.117555	0	
2.4300	3.83775	3.17398	0	
2.4307	9.62803	3.47962	0	
2.4313	15.755	1.64577	0	
2.4320	15.755	3.17398	0	
2.4327	13.9034	4.7022	0	
2.4333	12.6915	4.39655	0	
2.4340	11.1766	6.23041	0	
2.4347	11.1766	7.75862	0	
2.4353	11.1766	5.00784	0	
2.4360	10.234	5.00784	0	
2.4367	11.4796	8.67555	0	
2.4373	8.41611	8.98119	0	
2.4380	-0.134658	5.61912	0	
2.4387	-4.10706	3.47962	0	
2.4393	-1.64956	2.25705	0	
2.4400	-1.64956	-1.10502	0	
2.4407	-4.10706	-2.32759	0	
2.4413	-4.10706	-0.799373	0	
2.4420	-2.5585	-0.49373	0	
2.4427	-1.34658	-0.188088	0	
2.4433	-0.437638	0.423198	0	
2.4440	2.01987	-0.49373	0	
2.4447	5.65563	-1.41066	0	
2.4453	3.83775	-2.63323	0	
2.4460	-1.64956	-3.55016	0	
2.4467	-2.25552	-2.32759	0	
2.4473	2.01987	-0.49373	0	
2.4480	6.59823	-1.41066	0	
2.4487	12.0855	-0.799373	0	
2.4493	15.755	1.34013	0	
2.4500	15.1153	-1.10502	0	
2.4507	14.8124	-5.38401	0	
2.4513	17.2699	-5.97179	0	
2.4520	19.0877	-4.77273	0	
2.4527	16.6639	-4.16144	0	
2.4533	13.6004	-3.8558	0	
2.4540	13.9034	-4.16144	0	
2.4547	12.6915	-4.46709	0	
2.4553	7.81015	-3.24451	0	
2.4560	5.65563	-2.93887	0	
2.4567	3.23179	-2.63323	0	
2.4573	-2.5585	0.117555	0	
2.4580	-5.31898	2.25705	0	
2.4587	-3.5011	3.17398	0	
2.4593	-4.71302	5.00784	0	
2.4600	-8.0458	4.7022	0	
2.4607	-11.7152	3.17398	0	
2.4613	-15.0817	4.7022	0	
2.4620	-15.3847	6.84169	0	
2.4627	-11.7152	5.92477	0	
2.4633	-8.98841	5.00784	0	
2.4640	-11.4122	3.47962	0	
2.4647	-14.7787	0.72884	0	
2.4653	-14.4757	0.72884	0	
2.4660	-11.7152	1.34013	0	
2.4667	-11.1093	0.72884	0	
2.4673	-8.0458	3.17398	0	
2.4680	-1.34658	6.53605	0	
2.4687	4.44371	6.23041	0	
2.4693	9.32505	5.61912	0	
2.4700	12.0855	5.92477	0	
2.4707	8.41611	5.92477	0	
2.4713	5.65563	7.14734	0	
2.4720	8.41611	8.06426	0	
2.4727	8.41611	5.61912	0	
2.4733	7.50717	5.31348	0	
2.4740	11.7826	7.14734	0	
2.4747	15.755	4.09091	0	
2.4753	15.755	1.34013	0	
2.4760	16.3609	4.09091	0	
2.4767	12.6915	4.09091	0	
2.4773	2.62583	-0.188088	0	
2.4780	-1.95254	-0.799373	0	
2.4787	0.168322	0.423198	0	
2.4793	0.168322	-0.799373	0	
2.4800	-4.10706	-0.188088	0	
2.4807	-5.62196	2.25705	0	
2.4813	-6.22792	1.34013	0	
2.4820	-8.38245	0.423198	0	
2.4827	-9.89735	1.64577	0	
2.4833	-11.4122	1.34013	0	
2.4840	-17.2025	-1.7163	0	
2.4847	-21.4779	-3.55016	0	
2.4853	-19.0541	-3.24451	0	
2.4860	-15.3847	-0.799373	0	
2.4867	-12.3212	-0.49373	0	
2.4873	-8.38245	-4.16144	0	
2.4880	-3.5011	-5.07837	0	
2.4887	2.01987	-1.7163	0	
2.4893	4.74669	-0.49373	0	
2.4900	2.92881	-2.93887	0	
2.4907	6.59823	-2.02194	0	
2.4913	13.2975	-1.41066	0	
2.4920	9.93101	-3.24451	0	
2.4927	4.14073	-1.7163	0	
2.4933	7.50717	1.03448	0	
2.4940	8.71909	-0.188088	0	
2.4947	4.74669	0.117555	0	
2.4953	7.20419	4.39655	0	
2.4960	11.7826	5.92477	0	
2.4967	7.50717	2.5627	0	
2.4973	-1.64956	0.423198	0	
2.4980	-8.38245	1.34013	0	
2.4987	-8.0458	3.47962	0	
2.4993	-1.0436	5.00784	0	
2.5000	4.74669	3.47962	0	
2.5007	3.83775	1.64577	0	
2.5013	-1.95254	2.5627	0	
2.5020	-8.0458	3.47962	0	
2.5027	-10.8063	2.25705	0	
2.5033	-11.1093	1.34013	0	
2.5040	-10.8063	1.03448	0	
2.5047	-8.98841	-0.49373	0	
2.5053	-8.68543	-1.41066	0	
2.5060	-12.0182	-0.49373	0	
2.5067	-13.2638	0.72884	0	
2.5073	-8.68543	1.03448	0	
2.5080	-3.5011	-0.799373	0	
2.5087	-0.740618	-1.41066	0	
2.5093	1.07726	1.03448	0	
2.5100	1.71689	1.34013	0	
2.5107	1.07726	0.423198	0	
2.5113	3.23179	4.39655	0	
2.5120	7.50717	8.67555	0	
2.5127	9.93101	7.75862	0	
2.5133	12.0855	5.61912	0	
2.5140	15.1153	4.09091	0	
2.5147	15.755	3.47962	0	
2.5153	12.9945	5.92477	0	
2.5160	6.59823	7.14734	0	
2.5167	-2.5585	4.09091	0	
2.5173	-5.62196	1.34013	0	
2.5180	0.471302	2.5627	0	
2.5187	2.32285	4.09091	0	
2.5193	-2.5585	1.34013	0	
2.5200	-7.43984	-2.32759	0	
2.5207	-12.0182	-3.24451	0	
2.5213	-14.4757	-3.24451	0	
2.5220	-11.7152	-3.24451	0	
2.5227	-10.2003	-2.63323	0	
2.5233	-10.8063	-2.93887	0	
2.5240	-7.43984	-4.16144	0	
2.5247	-3.80408	-3.24451	0	
2.5253	-5.92494	-3.24451	0	
2.5260	-8.0458	-5.97179	0	
2.5267	-5.62196	-5.97179	0	
2.5273	-1.0436	-4.16144	0	
2.5280	2.32285	-4.46709	0	
2.5287	2.92881	-4.16144	0	
2.5293	4.14073	-3.24451	0	
2.5300	8.71909	-4.16144	0	
2.5307	13.6004	-3.24451	0	
2.5313	15.1153	0.423198	0	
2.5320	13.9034	-0.49373	0	
2.5327	11.7826	-2.93887	0	
2.5333	12.3885	-3.24451	0	
2.5340	15.755	-2.63323	0	
2.5347	15.1153	-2.93887	0	
2.5353	10.8736	-3.8558	0	
2.5360	8.41611	-4.46709	0	
2.5367	8.41611	-2.63323	0	
2.5373	9.32505	-0.188088	0	
2.5380	8.71909	-0.49373	0	
2.5387	5.04967	-1.41066	0	
2.5393	1.41391	-2.02194	0	
2.5400	-0.740618	-5.38401	0	
2.5407	-6.5309	-6.58307	0	
2.5413	-12.9608	-5.07837	0	
2.5420	-12.0182	-5.97179	0	
2.5427	-8.0458	-7.19436	0	
2.5433	-8.98841	-4.46709	0	
2.5440	-11.1093	-2.32759	0	
2.5447	-10.8063	-3.8558	0	
2.5453	-9.89735	-4.16144	0	
2.5460	-7.13686	-2.32759	0	
2.5467	-5.016	-2.02194	0	
2.5473	-3.5011	-4.16144	0	
2.5480	-0.740618	-5.97179	0	
2.5487	3.83775	-3.55016	0	
2.5493	6.29525	-1.10502	0	
2.5500	6.59823	-1.7163	0	
2.5507	6.90121	-2.32759	0	
2.5513	8.11313	-2.32759	0	
2.5520	10.537	-4.16144	0	
2.5527	11.1766	-5.07837	0	
2.5533	9.93101	-3.24451	0	
2.5540	11.1766	-2.02194	0	
2.5547	15.755	-1.41066	0	
2.5553	16.6639	-0.799373	0	
2.5560	12.0855	-2.93887	0	
2.5567	4.74669	-5.07837	0	
2.5573	-1.0436	-5.97179	0	
2.5580	-5.31898	-6.88872	0	
2.5587	-6.22792	-5.38401	0	
2.5593	-2.86148	-3.24451	0	
2.5600	-1.95254	-4.77273	0	
2.5607	-8.38245	-6.27743	0	
2.5613	-14.4757	-5.07837	0	
2.5620	-15.3847	-5.97179	0	
2.5627	-14.4757	-9.33386	0	
2.5633	-15.3847	-9.02821	0	
2.5640	-16.2936	-7.80564	0	
2.5647	-17.2025	-7.80564	0	
2.5653	-18.7511	-5.97179	0	
2.5660	-19.963	-3.24451	0	
2.5667	-19.3571	-2.63323	0	
2.5673	-15.9906	-2.02194	0	
2.5680	-10.8063	1.64577	0	
2.5687	-5.31898	3.17398	0	
2.5693	-1.34658	0.72884	0	
2.5700	0.168322	-0.799373	0	
2.5707	1.41391	0.423198	0	
2.5713	4.14073	0.423198	0	
2.5720	5.65563	-0.49373	0	
2.5727	5.04967	-0.49373	0	
2.5733	6.59823	2.25705	0	
2.5740	10.537	5.92477	0	
2.5747	11.1766	7.45298	0	
2.5753	5.99227	8.06426	0	
2.5760	0.471302	10.1803	0	
2.5767	-2.25552	10.4859	0	
2.5773	-2.5585	9.28684	0	
2.5780	-0.437638	9.28684	0	
2.5787	1.41391	9.59248	0	
2.5793	-0.740618	9.59248	0	
2.5800	-5.92494	10.4859	0	
2.5807	-7.43984	8.67555	0	
2.5813	-5.92494	4.09091	0	
2.5820	-5.92494	4.09091	0	
2.5827	-4.71302	7.45298	0	
2.5833	-0.437638	5.61912	0	
2.5840	1.07726	3.17398	0	
2.5847	-0.437638	5.00784	0	
2.5853	0.168322	4.39655	0	
2.5860	2.92881	0.117555	0	
2.5867	3.53477	0.423198	0	
2.5873	3.83775	4.39655	0	
2.5880	5.04967	5.31348	0	
2.5887	4.14073	1.64577	0	
2.5893	-0.740618	-3.24451	0	
2.5900	-5.62196	-4.16144	0	
2.5907	-6.22792	-2.32759	0	
2.5913	-5.31898	-3.55016	0	
2.5920	-4.41004	-4.16144	0	
2.5927	-3.5011	-1.41066	0	
2.5933	-0.740618	-2.32759	0	
2.5940	4.14073	-4.77273	0	
2.5947	6.90121	-1.41066	0	
2.5953	-0.134658	0.117555	0	
2.5960	-12.0182	-4.46709	0	
2.5967	-13.5668	-5.97179	0	
2.5973	-7.13686	-5.38401	0	
2.5980	-2.5585	-6.88872	0	
2.5987	-1.64956	-4.77273	0	
2.5993	-1.95254	-2.63323	0	
2.6000	-4.41004	-6.27743	0	
2.6007	-7.74282	-7.80564	0	
2.6013	-9.89735	-4.46709	0	
2.6020	-10.5033	-6.27743	0	
2.6027	-10.2003	-8.72257	0	
2.6033	-10.8063	-5.07837	0	
2.6040	-8.98841	-3.8558	0	
2.6047	-6.83388	-7.80564	0	
2.6053	-7.43984	-8.72257	0	
2.6060	-6.22792	-6.58307	0	
2.6067	-0.134658	-8.11129	0	
2.6073	2.01987	-9.6395	0	
2.6080	1.07726	-7.19436	0	
2.6087	3.53477	-5.38401	0	
2.6093	5.65563	-5.38401	0	
2.6100	4.74669	-5.07837	0	
2.6107	6.90121	-5.97179	0	
2.6113	11.7826	-8.11129	0	
2.6120	13.9034	-7.80564	0	
2.6127	13.9034	-6.58307	0	
2.6133	16.3609	-6.27743	0	
2.6140	21.5452	-4.16144	0	
2.6147	21.2423	-0.188088	0	
2.6153	15.1153	1.64577	0	
2.6160	11.4796	2.25705	0	
2.6167	11.1766	1.34013	0	
2.6173	8.41611	-0.799373	0	
2.6180	3.53477	-0.799373	0	
2.6187	1.07726	0.72884	0	
2.6193	0.471302	-1.41066	0	
2.6200	-1.95254	-3.24451	0	
2.6207	-5.016	-2.93887	0	
2.6213	-5.92494	-2.63323	0	
2.6220	-5.62196	-3.24451	0	
2.6227	-6.83388	-4.16144	0	
2.6233	-8.38245	-5.97179	0	
2.6240	-8.38245	-4.77273	0	
2.6247	-7.74282	-2.93887	0	
2.6253	-6.22792	-4.46709	0	
2.6260	-5.016	-4.77273	0	
2.6267	-5.31898	-1.41066	0	
2.6273	-6.22792	-0.799373	0	
2.6280	-4.10706	-1.7163	0	
2.6287	-2.5585	-0.49373	0	
2.6293	-0.740618	-0.49373	0	
2.6300	3.23179	-0.49373	0	
2.6307	4.74669	3.78527	0	
2.6313	2.01987	5.61912	0	
2.6320	5.04967	5.00784	0	
2.6327	10.537	6.53605	0	
2.6333	10.234	5.92477	0	
2.6340	10.234	1.34013	0	
2.6347	12.9945	0.72884	0	
2.6353	10.234	4.39655	0	
2.6360	7.50717	4.7022	0	
2.6367	12.0855	2.25705	0	
2.6373	13.9034	2.86834	0	
2.6380	9.93101	6.23041	0	
2.6387	8.41611	8.06426	0	
2.6393	10.8736	8.06426	0	
2.6400	12.9945	8.67555	0	
2.6407	13.6004	9.28684	0	
2.6413	10.537	7.75862	0	
2.6420	5.65563	5.92477	0	
2.6427	-3.16446	7.45298	0	
2.6433	-19.963	9.59248	0	
2.6440	-33.3951	7.75862	0	
2.6447	-33.6981	5.92477	0	
2.6453	-30.9376	5.92477	0	
2.6460	-32.7892	4.39655	0	
2.6467	-33.3951	3.17398	0	
2.6473	-30.9376	2.86834	0	
2.6480	-21.7809	3.17398	0	
2.6487	-1.34658	6.23041	0	
2.6493	17.5728	9.59248	0	
2.6500	17.2699	8.98119	0	
2.6507	1.07726	10.1803	0	
2.6513	-6.22792	11.7085	0	
2.6520	3.23179	8.67555	0	
2.6527	10.234	7.75862	0	
2.6533	7.81015	10.4859	0	
2.6540	9.32505	8.67555	0	
2.6547	12.9945	5.92477	0	
2.6553	11.1766	7.14734	0	
2.6560	12.0855	9.59248	0	
2.6567	15.452	11.7085	0	
2.6573	15.452	12.3198	0	
2.6580	16.0579	8.06426	0	
2.6587	13.6004	5.00784	0	
2.6593	3.83775	5.31348	0	
2.6600	-2.25552	3.17398	0	
2.6607	-3.5011	1.34013	0	
2.6613	-7.74282	1.64577	0	
2.6620	-10.5033	-0.799373	0	
2.6627	-12.6242	-2.32759	0	
2.6633	-19.0541	0.117555	0	
2.6640	-20.569	-0.799373	0	
2.6647	-14.4757	-2.32759	0	
2.6653	-7.74282	0.423198	0	
2.6660	-1.0436	2.86834	0	
2.6667	-1.0436	1.95141	0	
2.6673	-10.8063	0.423198	0	
2.6680	-19.3571	-1.7163	0	
2.6687	-17.8422	-3.8558	0	
2.6693	-6.83388	-2.93887	0	
2.6700	12.0855	-0.188088	0	
2.6707	27.6385	1.34013	0	
2.6713	28.2445	0.423198	0	
2.6720	21.8482	-0.188088	0	
2.6727	16.0579	2.25705	0	
2.6733	13.6004	3.17398	0	
2.6740	16.0579	1.95141	0	
2.6747	16.6639	0.423198	0	
2.6753	7.50717	-2.93887	0	
2.6760	-0.437638	-6.58307	0	
2.6767	1.07726	-7.19436	0	
2.6773	2.32285	-5.66615	0	
2.6780	-1.64956	-4.16144	0	
2.6787	-7.13686	-1.41066	0	
2.6793	-17.2025	0.423198	0	
2.6800	-29.1197	-0.188088	0	
2.6807	-33.6981	-0.49373	0	
2.6813	-30.6346	-1.10502	0	
2.6820	-26.0563	-0.799373	0	
2.6827	-23.9354	1.95141	0	
2.6833	-28.2108	3.17398	0	
2.6840	-34.91	2.5627	0	
2.6847	-44.0668	1.95141	0	
2.6853	-59.3168	0.117555	0	
2.6860	-61.1683	-1.41066	0	
2.6867	-36.7616	1.34013	0	
2.6873	-12.3212	5.00784	0	
2.6880	8.71909	4.7022	0	
2.6887	37.7042	3.17398	0	
2.6893	44.1341	3.17398	0	
2.6900	22.1512	1.34013	0	
2.6907	15.1153	-2.02194	0	
2.6913	19.3907	-5.97179	0	
2.6920	11.4796	-9.02821	0	
2.6927	17.2699	-6.88872	0	
2.6933	36.7952	-2.93887	0	
2.6940	35.5833	-4.16144	0	
2.6947	21.2423	-5.66615	0	
2.6953	15.755	-1.41066	0	
2.6960	9.02207	2.25705	0	
2.6967	-0.437638	1.03448	0	
2.6973	-1.64956	0.72884	0	
2.6980	2.62583	2.25705	0	
2.6987	5.04967	2.25705	0	
2.6993	7.50717	1.34013	0	
2.7000	11.4796	0.117555	0	
2.7007	17.5728	-1.10502	0	
2.7013	31.6109	-1.41066	0	
2.7020	55.4117	-1.7163	0	
2.7027	68.5408	-3.55016	0	
2.7033	54.1998	-5.97179	0	
2.7040	33.1258	-8.72257	0	
2.7047	28.8504	-9.33386	0	
2.7053	26.7296	-9.02821	0	
2.7060	20.3333	-9.33386	0	
2.7067	25.8206	-7.5	0	
2.7073	36.4923	-5.97179	0	
2.7080	39.5557	-7.5	0	
2.7087	45.346	-6.27743	0	
2.7093	48.7125	-2.32759	0	
2.7100	16.6639	-3.55016	0	
2.7107	-48.9481	-9.6395	0	
2.7113	-96.2467	-11.1677	0	
2.7120	-91.3653	-9.33386	0	
2.7127	-56.8929	-8.11129	0	
2.7133	-33.0922	-5.97179	0	
2.7140	-24.5414	-4.16144	0	
2.7147	-18.1451	-4.16144	0	
2.7153	-13.2638	-1.10502	0	
2.7160	-12.3212	1.34013	0	
2.7167	-10.2003	-0.188088	0	
2.7173	-10.2003	-1.10502	0	
2.7180	-17.2025	0.423198	0	
2.7187	-23.6324	-0.799373	0	
2.7193	-21.4779	-2.63323	0	
2.7200	-15.0817	-2.02194	0	
2.7207	-10.8063	-0.49373	0	
2.7213	-12.9608	-0.188088	0	
2.7220	-17.5392	-2.32759	0	
2.7227	-17.2025	-6.27743	0	
2.7233	-14.7787	-8.11129	0	
2.7240	-16.2936	-5.07837	0	
2.7247	-15.9906	-2.93887	0	
2.7253	-12.0182	-2.93887	0	
2.7260	-11.7152	-2.02194	0	
2.7267	-9.59437	-1.10502	0	
2.7273	-2.5585	-0.49373	0	
2.7280	0.168322	1.95141	0	
2.7287	-1.64956	4.39655	0	
2.7293	-2.5585	3.17398	0	
2.7300	-5.31898	-0.49373	0	
2.7307	-8.98841	-4.16144	0	
2.7313	-12.6242	-5.07837	0	
2.7320	-18.7511	-4.16144	0	
2.7327	-18.1451	-4.16144	0	
2.7333	-9.89735	-3.55016	0	
2.7340	-1.95254	-1.41066	0	
2.7347	10.537	-2.93887	0	
2.7353	27.9415	-5.97179	0	
2.7360	36.7952	-3.8558	0	
2.7367	43.5281	-1.10502	0	
2.7373	54.1998	-5.38401	0	
2.7380	51.4393	-8.72257	0	
2.7387	35.8863	-4.46709	0	
2.7393	30.399	-2.02194	0	
2.7400	31.005	-4.16144	0	
2.7407	27.6385	-4.16144	0	
2.7413	26.1236	-3.8558	0	
2.7420	21.2423	-5.97179	0	
2.7427	5.65563	-5.97179	0	
2.7433	-9.89735	-3.24451	0	
2.7440	-16.2936	-3.24451	0	
2.7447	-12.9608	-5.38401	0	
2.7453	-3.16446	-7.19436	0	
2.7460	3.83775	-7.5	0	
2.7467	5.65563	-6.27743	0	
2.7473	7.81015	-4.16144	0	
2.7480	9.93101	-3.55016	0	
2.7487	9.02207	-5.66615	0	
2.7493	10.537	-8.11129	0	
2.7500	12.0855	-5.97179	0	
2.7507	6.59823	-3.24451	0	
2.7513	-1.64956	-4.77273	0	
2.7520	-6.5309	-9.02821	0	
2.7527	-5.016	-8.11129	0	
2.7533	1.07726	-2.32759	0	
2.7540	6.29525	1.34013	0	
2.7547	3.83775	0.117555	0	
2.7553	-2.86148	-1.10502	0	
2.7560	-4.71302	-0.49373	0	
2.7567	-0.437638	0.423198	0	
2.7573	-6.5309	-0.188088	0	
2.7580	-26.3593	-3.24451	0	
2.7587	-28.5138	-7.19436	0	
2.7593	-3.16446	-6.88872	0	
2.7600	15.1153	-2.32759	0	
2.7607	13.9034	-0.799373	0	
2.7613	18.4818	-2.93887	0	
2.7620	29.793	-3.55016	0	
2.7627	27.9415	-2.32759	0	
2.7633	16.0579	-3.24451	0	
2.7640	7.81015	-3.8558	0	
2.7647	0.168322	-1.10502	0	
2.7653	-14.1727	-0.49373	0	
2.7660	-23.9354	-3.24451	0	
2.7667	-24.8444	-5.97179	0	
2.7673	-42.2489	-8.72257	0	
2.7680	-79.4818	-11.4734	0	
2.7687	-95.6407	-9.02821	0	
2.7693	-72.4459	-5.97179	0	
2.7700	-41.9459	-6.88872	0	
2.7707	-23.3295	-5.97179	0	
2.7713	-9.89735	-3.24451	0	
2.7720	2.32285	-3.8558	0	
2.7727	12.0855	-4.16144	0	
2.7733	14.8124	-2.32759	0	
2.7740	8.71909	-1.10502	0	
2.7747	2.32285	-0.188088	0	
2.7753	2.92881	0.72884	0	
2.7760	2.92881	0.423198	0	
2.7767	2.01987	0.423198	0	
2.7773	10.234	1.34013	0	
2.7780	22.7572	2.86834	0	
2.7787	26.7296	5.00784	0	
2.7793	20.9393	5.92477	0	
2.7800	12.0855	5.00784	0	
2.7807	5.65563	4.39655	0	
2.7813	6.90121	3.47962	0	
2.7820	10.234	4.39655	0	
2.7827	4.74669	5.61912	0	
2.7833	-3.16446	4.09091	0	
2.7840	-1.34658	3.17398	0	
2.7847	3.83775	5.92477	0	
2.7853	-1.0436	5.31348	0	
2.7860	-14.1727	2.25705	0	
2.7867	-23.9354	1.34013	0	
2.7873	-23.9354	0.117555	0	
2.7880	-16.2936	-2.32759	0	
2.7887	-6.22792	-2.02194	0	
2.7893	0.774282	-0.49373	0	
2.7900	3.23179	-0.49373	0	
2.7907	7.20419	-0.799373	0	
2.7913	12.6915	-0.49373	0	
2.7920	14.5094	-0.49373	0	
2.7927	14.8124	0.72884	0	
2.7933	15.452	3.78527	0	
2.7940	15.452	7.75862	0	
2.7947	14.8124	8.98119	0	
2.7953	10.537	6.84169	0	
2.7960	1.07726	4.09091	0	
2.7967	-6.5309	3.47962	0	
2.7973	-11.7152	1.03448	0	
2.7980	-18.1451	-0.799373	0	
2.7987	-13.5668	2.5627	0	
2.7993	2.92881	6.23041	0	
2.8000	11.1766	5.00784	0	
2.8007	8.11313	2.25705	0	
2.8013	7.50717	0.117555	0	
2.8020	10.234	-2.02194	0	
2.8027	11.1766	-2.32759	0	
2.8033	8.41611	-2.32759	0	
2.8040	5.65563	-3.24451	0	
2.8047	5.65563	-1.7163	0	
2.8053	0.774282	1.64577	0	
2.8060	-16.5966	2.5627	0	
2.8067	-26.3593	2.25705	0	
2.8073	-15.9906	3.78527	0	
2.8080	-4.41004	5.00784	0	
2.8087	-2.5585	4.09091	0	
2.8093	-0.740618	4.09091	0	
2.8100	0.774282	7.45298	0	
2.8107	-3.5011	11.0972	0	
2.8113	-6.22792	11.4028	0	
2.8120	-0.740618	8.36991	0	
2.8127	10.234	5.92477	0	
2.8133	21.2423	8.06426	0	
2.8140	25.5177	10.7915	0	
2.8147	20.9393	10.1803	0	
2.8153	15.755	9.59248	0	
2.8160	10.537	12.3198	0	
2.8167	-1.34658	12.931	0	
2.8173	-16.2936	11.4028	0	
2.8180	-19.963	12.3198	0	
2.8187	-12.3212	15.3762	0	
2.8193	-7.13686	17.21	0	
2.8200	-8.0458	17.21	0	
2.8207	-7.13686	14.4593	0	
2.8213	-3.80408	10.7915	0	
2.8220	-5.62196	9.87461	0	
2.8227	-12.0182	8.67555	0	
2.8233	-12.9608	7.14734	0	
2.8240	-9.29139	7.75862	0	
2.8247	-12.0182	7.75862	0	
2.8253	-16.5966	5.00784	0	
2.8260	-17.2025	4.7022	0	
2.8267	-19.963	4.7022	0	
2.8273	-19.963	2.25705	0	
2.8280	-10.8063	2.86834	0	
2.8287	-5.31898	6.84169	0	
2.8293	-4.41004	7.75862	0	
2.8300	4.74669	5.00784	0	
2.8307	13.9034	2.25705	0	
2.8313	13.9034	2.86834	0	
2.8320	22.1512	5.31348	0	
2.8327	38.0072	5.00784	0	
2.8333	45.649	2.5627	0	
2.8340	49.6214	3.78527	0	
2.8347	51.1363	7.14734	0	
2.8353	32.2169	6.53605	0	
2.8360	2.01987	3.17398	0	
2.8367	-11.4122	1.34013	0	
2.8373	-8.68543	0.117555	0	
2.8380	-6.22792	-1.10502	0	
2.8387	-5.31898	-2.63323	0	
2.8393	-6.83388	-4.16144	0	
2.8400	-10.8063	-4.77273	0	
2.8407	-12.0182	-6.27743	0	
2.8413	-12.9608	-7.80564	0	
2.8420	-16.2936	-7.80564	0	
2.8427	-14.1727	-9.02821	0	
2.8433	-8.0458	-12.0846	0	
2.8440	-4.71302	-13.3072	0	
2.8447	-1.0436	-13.0016	0	
2.8453	2.01987	-13.3072	0	
2.8460	1.07726	-14.5298	0	
2.8467	0.168322	-14.8354	0	
2.8473	6.29525	-14.2241	0	
2.8480	10.234	-14.2241	0	
2.8487	5.65563	-14.2241	0	
2.8493	0.774282	-12.6959	0	
2.8500	4.14073	-11.4734	0	
2.8507	10.234	-12.3903	0	
2.8513	11.7826	-10.8621	0	
2.8520	10.234	-8.72257	0	
2.8527	8.41611	-10.8621	0	
2.8533	9.32505	-13.3072	0	
2.8540	12.9945	-9.94514	0	
2.8547	14.8124	-7.19436	0	
2.8553	12.3885	-8.72257	0	
2.8560	10.234	-8.72257	0	
2.8567	5.65563	-7.19436	0	
2.8573	-1.64956	-9.33386	0	
2.8580	-2.5585	-10.5564	0	
2.8587	0.168322	-7.80564	0	
2.8593	-3.5011	-6.88872	0	
2.8600	-8.68543	-9.33386	0	
2.8607	-9.89735	-8.72257	0	
2.8613	-8.68543	-5.97179	0	
2.8620	-8.68543	-5.66615	0	
2.8627	-11.1093	-4.77273	0	
2.8633	-15.0817	-3.24451	0	
2.8640	-17.8422	-3.8558	0	
2.8647	-18.1451	-2.93887	0	
2.8653	-14.4757	-0.188088	0	
2.8660	-8.98841	0.423198	0	
2.8667	-7.13686	1.34013	0	
2.8673	-6.22792	3.17398	0	
2.8680	-2.25552	1.34013	0	
2.8687	-1.0436	-2.32759	0	
2.8693	-2.25552	-4.16144	0	
2.8700	0.774282	-4.46709	0	
2.8707	4.14073	-4.16144	0	
2.8713	3.53477	-2.02194	0	
2.8720	3.83775	-2.63323	0	
2.8727	9.02207	-6.88872	0	
2.8733	10.537	-9.33386	0	
2.8740	6.90121	-6.27743	0	
2.8747	7.20419	-4.46709	0	
2.8753	10.234	-5.66615	0	
2.8760	5.35265	-4.77273	0	
2.8767	-1.95254	-2.32759	0	
2.8773	0.168322	-2.32759	0	
2.8780	3.83775	-4.16144	0	
2.8787	1.71689	-4.16144	0	
2.8793	1.41391	-2.02194	0	
2.8800	2.01987	-1.41066	0	
2.8807	-2.5585	-4.16144	0	
2.8813	-6.22792	-4.16144	0	
2.8820	-5.31898	0.423198	0	
2.8827	-8.0458	0.72884	0	
2.8833	-12.0182	-3.24451	0	
2.8840	-12.0182	-3.8558	0	
2.8847	-11.7152	-2.02194	0	
2.8853	-11.7152	-2.32759	0	
2.8860	-9.59437	-2.02194	0	
2.8867	-4.41004	-1.10502	0	
2.8873	3.53477	-2.02194	0	
2.8880	12.0855	-4.16144	0	
2.8887	12.9945	-5.07837	0	
2.8893	2.32285	-2.63323	0	
2.8900	-9.29139	-0.799373	0	
2.8907	-14.4757	-1.7163	0	
2.8913	-11.7152	-1.10502	0	
2.8920	-2.25552	-1.10502	0	
2.8927	7.81015	-5.38401	0	
2.8933	10.234	-6.88872	0	
2.8940	8.11313	-4.16144	0	
2.8947	7.81015	-2.63323	0	
2.8953	6.59823	-4.16144	0	
2.8960	2.92881	-4.46709	0	
2.8967	-1.34658	-5.97179	0	
2.8973	-8.0458	-5.97179	0	
2.8980	-12.3212	-3.8558	0	
2.8987	-10.5033	-3.24451	0	
2.8993	-10.5033	-3.24451	0	
2.9000	-12.3212	1.03448	0	
2.9007	-10.8063	3.78527	0	
2.9013	-8.98841	2.25705	0	
2.9020	-6.22792	1.34013	0	
2.9027	0.168322	1.34013	0	
2.9033	5.35265	0.72884	0	
2.9040	10.234	2.86834	0	
2.9047	16.0579	2.86834	0	
2.9053	14.8124	-1.10502	0	
2.9060	9.93101	1.34013	0	
2.9067	10.537	7.14734	0	
2.9073	13.2975	5.00784	0	
2.9080	13.6004	1.34013	0	
2.9087	12.0855	1.34013	0	
2.9093	9.62803	0.423198	0	
2.9100	10.234	0.117555	0	
2.9107	12.9945	2.25705	0	
2.9113	11.7826	2.86834	0	
2.9120	8.41611	2.5627	0	
2.9127	8.41611	3.17398	0	
2.9133	9.93101	2.86834	0	
2.9140	10.234	3.47962	0	
2.9147	9.32505	4.7022	0	
2.9153	9.32505	4.39655	0	
2.9160	11.1766	5.31348	0	
2.9167	11.7826	4.7022	0	
2.9173	11.1766	1.95141	0	
2.9180	10.234	3.78527	0	
2.9187	5.99227	7.45298	0	
2.9193	3.83775	6.84169	0	
2.9200	8.41611	5.92477	0	
2.9207	8.71909	6.53605	0	
2.9213	1.07726	4.7022	0	
2.9220	-1.95254	3.17398	0	
2.9227	2.01987	4.39655	0	
2.9233	2.92881	5.61912	0	
2.9240	-0.740618	5.92477	0	
2.9247	-5.92494	3.17398	0	
2.9253	-11.7152	-0.799373	0	
2.9260	-15.9906	-0.799373	0	
2.9267	-15.3847	0.423198	0	
2.9273	-8.98841	-0.49373	0	
2.9280	-1.64956	0.117555	0	
2.9287	-0.134658	0.117555	0	
2.9293	-1.0436	-2.63323	0	
2.9300	3.83775	-1.41066	0	
2.9307	14.2064	1.34013	0	
2.9313	16.0579	-1.41066	0	
2.9320	6.59823	-1.41066	0	
2.9327	-2.25552	1.34013	0	
2.9333	-7.13686	-2.32759	0	
2.9340	-12.0182	-6.88872	0	
2.9347	-8.98841	-4.16144	0	
2.9353	-2.25552	-1.10502	0	
2.9360	-11.7152	-2.02194	0	
2.9367	-27.3019	-0.49373	0	
2.9373	-25.4503	2.25705	0	
2.9380	-11.4122	-0.49373	0	
2.9387	-0.740618	-3.55016	0	
2.9393	1.07726	-1.41066	0	
2.9400	-8.0458	1.03448	0	
2.9407	-17.5392	-0.49373	0	
2.9413	-21.4779	-2.02194	0	
2.9420	-27.6048	-1.41066	0	
2.9427	-27.6048	-3.24451	0	
2.9433	-15.9906	-4.46709	0	
2.9440	-9.89735	-4.16144	0	
2.9447	-12.6242	-5.38401	0	
2.9453	-13.8698	-5.38401	0	
2.9460	-19.963	-4.46709	0	
2.9467	-21.7809	-5.07837	0	
2.9473	-5.31898	-5.07837	0	
2.9480	8.11313	-4.77273	0	
2.9487	3.23179	-4.16144	0	
2.9493	1.07726	-1.7163	0	
2.9500	12.0855	-0.188088	0	
2.9507	22.7572	-0.49373	0	
2.9513	26.7296	4.09091	0	
2.9520	28.5475	6.84169	0	
2.9527	25.8206	2.86834	0	
2.9533	20.3333	2.86834	0	
2.9540	18.4818	7.14734	0	
2.9547	19.0877	4.09091	0	
2.9553	18.4818	1.03448	0	
2.9560	19.6937	6.23041	0	
2.9567	18.7848	9.59248	0	
2.9573	12.0855	7.14734	0	
2.9580	6.59823	6.84169	0	
2.9587	2.62583	8.36991	0	
2.9593	-3.80408	10.4859	0	
2.9600	-9.59437	13.2367	0	
2.9607	-18.4481	12.3198	0	
2.9613	-31.5773	9.87461	0	
2.9620	-33.0922	10.7915	0	
