0.0000	0.490813	-1.55235	1
0.0007	1.11079	-2.16931	0	
0.0013	4.15899	2.10961	0	
0.0020	8.42131	4.85608	0	
0.0027	8.7313	2.70667	0	
0.0033	5.68309	0.577157	0	
0.0040	5.37311	2.40814	0	
0.0047	7.51718	3.94059	0	
0.0053	7.20719	3.0251	0	
0.0060	5.06312	3.0251	0	
0.0067	2.94488	3.32363	0	
0.0073	2.01491	1.79118	0	
0.0080	1.42077	1.19412	0	
0.0087	-1.93742	1.19412	0	
0.0093	-2.2474	1.49265	0	
0.0100	1.11079	3.0251	0	
0.0107	-3.46152	2.10961	0	
0.0113	-14.4661	-0.636863	0	
0.0120	-15.3702	0.577157	0	
0.0127	-11.1079	1.79118	0	
0.0133	-11.702	-1.55235	0	
0.0140	-10.1779	-2.16931	0	
0.0147	-5.29561	0.278627	0	
0.0153	-7.1297	-0.955294	0	
0.0160	-9.86791	-3.70176	0	
0.0167	-4.39148	-3.38333	0	
0.0173	1.11079	-2.46784	0	
0.0180	2.01491	-2.46784	0	
0.0187	1.42077	-2.78627	0	
0.0193	1.73076	-1.87078	0	
0.0200	1.11079	0.278627	0	
0.0207	0.800799	0.577157	0	
0.0213	2.63489	-0.955294	0	
0.0220	7.51718	0.278627	0	
0.0227	12.3995	2.10961	0	
0.0233	15.7577	0.875686	0	
0.0240	17.5918	1.19412	0	
0.0247	17.5918	3.0251	0	
0.0253	14.5435	3.62216	0	
0.0260	13.0194	3.94059	0	
0.0267	11.7795	3.94059	0	
0.0273	8.42131	1.19412	0	
0.0280	6.30307	-0.338333	0	
0.0287	6.61305	0.278627	0	
0.0293	5.99308	-0.955294	0	
0.0300	3.849	-2.16931	0	
0.0307	2.3249	-2.46784	0	
0.0313	1.11079	-2.78627	0	
0.0320	1.11079	-2.78627	0	
0.0327	1.11079	-2.16931	0	
0.0333	-3.46152	-2.46784	0	
0.0340	-11.392	-3.38333	0	
0.0347	-15.3702	-4.91578	0	
0.0353	-14.1561	-4.91578	0	
0.0360	-13.2261	-2.78627	0	
0.0367	-13.8461	-2.16931	0	
0.0373	-11.702	-3.70176	0	
0.0380	-6.22557	-4.29882	0	
0.0387	-4.08149	-4.00029	0	
0.0393	-4.98562	-2.46784	0	
0.0400	-1.62743	-0.636863	0	
0.0407	2.94488	-0.955294	0	
0.0413	2.94488	-2.46784	0	
0.0420	2.94488	-1.25382	0	
0.0427	6.89721	-0.338333	0	
0.0433	10.2554	-1.25382	0	
0.0440	8.42131	0.577157	0	
0.0447	7.51718	3.0251	0	
0.0453	11.4953	1.79118	0	
0.0460	13.6136	1.79118	0	
0.0467	7.51718	3.94059	0	
0.0473	1.11079	4.85608	0	
0.0480	1.42077	4.85608	0	
0.0487	1.11079	3.94059	0	
0.0493	-2.2474	0.577157	0	
0.0500	-3.77151	-0.338333	0	
0.0507	-4.39148	2.40814	0	
0.0513	-6.50972	1.79118	0	
0.0520	-8.6538	-2.16931	0	
0.0527	-10.7979	-4.29882	0	
0.0533	-11.1079	-5.21431	0	
0.0540	-8.96379	-5.21431	0	
0.0547	-10.4879	-4.91578	0	
0.0553	-12.632	-4.00029	0	
0.0560	-8.96379	-3.0848	0	
0.0567	-6.50972	-2.46784	0	
0.0573	-7.74967	-2.78627	0	
0.0580	-4.70147	-3.0848	0	
0.0587	0.490813	-0.955294	0	
0.0593	2.63489	2.70667	0	
0.0600	3.849	3.94059	0	
0.0607	4.46898	1.19412	0	
0.0613	4.15899	-1.55235	0	
0.0620	5.99308	-1.25382	0	
0.0627	7.20719	0.278627	0	
0.0633	5.68309	-0.0398039	0	
0.0640	4.77896	0.875686	0	
0.0647	6.61305	2.10961	0	
0.0653	13.0194	2.70667	0	
0.0660	18.4959	3.0251	0	
0.0667	15.1377	3.94059	0	
0.0673	7.20719	4.85608	0	
0.0680	1.73076	3.62216	0	
0.0687	-1.62743	-0.636863	0	
0.0693	-4.39148	-0.955294	0	
0.0700	-4.39148	1.19412	0	
0.0707	-1.62743	-1.25382	0	
0.0713	2.01491	-4.91578	0	
0.0720	1.11079	-5.21431	0	
0.0727	-7.43968	-6.1298	0	
0.0733	-8.96379	-7.96078	0	
0.0740	-1.03329	-8.87627	0	
0.0747	1.11079	-7.96078	0	
0.0753	-1.03329	-4.29882	0	
0.0760	-0.723303	-0.338333	0	
0.0767	-0.723303	-4.29882	0	
0.0773	-1.62743	-7.04529	0	
0.0780	-3.46152	-3.0848	0	
0.0787	-8.05966	-2.16931	0	
0.0793	-11.1079	-6.44823	0	
0.0800	-7.43968	-6.1298	0	
0.0807	-1.93742	-4.29882	0	
0.0813	2.94488	-4.00029	0	
0.0820	7.51718	-2.78627	0	
0.0827	6.61305	-2.16931	0	
0.0833	6.61305	-1.25382	0	
0.0840	13.9236	1.79118	0	
0.0847	15.4477	2.10961	0	
0.0853	4.15899	-0.636863	0	
0.0860	-4.08149	-0.955294	0	
0.0867	-3.46152	-2.46784	0	
0.0873	-1.34328	-4.91578	0	
0.0880	-0.413316	-3.70176	0	
0.0887	-0.723303	-1.87078	0	
0.0893	-2.2474	-2.46784	0	
0.0900	-2.86738	-2.16931	0	
0.0907	-4.98562	-2.46784	0	
0.0913	-9.58376	-4.29882	0	
0.0920	-8.6538	-2.46784	0	
0.0927	-1.62743	-1.25382	0	
0.0933	2.01491	-2.46784	0	
0.0940	1.11079	-2.46784	0	
0.0947	-1.62743	-0.955294	0	
0.0953	-2.55739	-1.55235	0	
0.0960	-3.77151	-3.38333	0	
0.0967	-4.98562	-5.21431	0	
0.0973	-3.46152	-5.21431	0	
0.0980	-0.103329	-2.78627	0	
0.0987	-0.103329	-1.55235	0	
0.0993	-1.03329	-0.955294	0	
0.1000	1.11079	2.10961	0	
0.1007	4.77896	4.85608	0	
0.1013	8.13715	3.0251	0	
0.1020	10.2554	2.70667	0	
0.1027	10.8754	3.94059	0	
0.1033	10.5654	2.70667	0	
0.1040	10.8754	3.32363	0	
0.1047	15.1377	5.77157	0	
0.1053	20.33	3.94059	0	
0.1060	17.2818	1.49265	0	
0.1067	10.2554	4.53765	0	
0.1073	7.20719	6.36863	0	
0.1080	3.25486	3.32363	0	
0.1087	-2.86738	1.49265	0	
0.1093	-4.39148	3.32363	0	
0.1100	-3.17737	4.85608	0	
0.1107	-4.70147	4.53765	0	
0.1113	-5.29561	2.10961	0	
0.1120	-4.39148	-0.338333	0	
0.1127	-7.74967	-0.955294	0	
0.1133	-10.4879	-0.955294	0	
0.1140	-8.05966	-2.16931	0	
0.1147	-4.98562	-3.0848	0	
0.1153	-5.29561	-3.0848	0	
0.1160	-5.91558	-2.46784	0	
0.1167	-2.55739	-2.78627	0	
0.1173	-0.103329	-2.16931	0	
0.1180	-2.2474	-0.636863	0	
0.1187	-1.03329	0.278627	0	
0.1193	5.99308	0.278627	0	
0.1200	8.42131	-0.636863	0	
0.1207	5.99308	-0.338333	0	
0.1213	7.82717	1.19412	0	
0.1220	11.1854	2.40814	0	
0.1227	10.8754	2.10961	0	
0.1233	10.8754	0.278627	0	
0.1240	11.1854	-0.955294	0	
0.1247	9.94541	0.875686	0	
0.1253	11.4953	2.70667	0	
0.1260	13.6136	1.19412	0	
0.1267	9.35127	1.49265	0	
0.1273	4.77896	3.62216	0	
0.1280	5.37311	2.70667	0	
0.1287	5.68309	1.19412	0	
0.1293	3.25486	2.10961	0	
0.1300	0.490813	0.577157	0	
0.1307	-3.17737	-1.55235	0	
0.1313	-7.1297	0.278627	0	
0.1320	-11.702	0.278627	0	
0.1327	-15.3702	-2.16931	0	
0.1333	-15.9902	-2.46784	0	
0.1340	-15.9902	-3.38333	0	
0.1347	-17.8242	-5.21431	0	
0.1353	-18.1084	-3.38333	0	
0.1360	-17.5143	-0.636863	0	
0.1367	-17.8242	-1.55235	0	
0.1373	-13.5361	-3.0848	0	
0.1380	-6.50972	-4.00029	0	
0.1387	-4.39148	-3.70176	0	
0.1393	-5.29561	-0.338333	0	
0.1400	-5.29561	2.10961	0	
0.1407	-7.1297	-1.25382	0	
0.1413	-4.70147	-4.00029	0	
0.1420	1.11079	-0.338333	0	
0.1427	3.25486	3.32363	0	
0.1433	2.01491	3.0251	0	
0.1440	2.63489	2.10961	0	
0.1447	3.25486	-0.636863	0	
0.1453	3.849	-2.78627	0	
0.1460	2.63489	-1.55235	0	
0.1467	-2.55739	0.278627	0	
0.1473	-5.29561	-1.87078	0	
0.1480	-2.55739	-4.29882	0	
0.1487	-1.62743	-2.78627	0	
0.1493	-2.86738	-1.25382	0	
0.1500	-1.34328	-3.38333	0	
0.1507	0.490813	-6.1298	0	
0.1513	-2.55739	-5.83127	0	
0.1520	-8.96379	-4.00029	0	
0.1527	-12.942	-3.70176	0	
0.1533	-13.5361	-4.29882	0	
0.1540	-12.942	-3.38333	0	
0.1547	-11.392	-4.00029	0	
0.1553	-11.392	-4.61725	0	
0.1560	-13.2261	-4.29882	0	
0.1567	-11.702	-4.00029	0	
0.1573	-8.34381	-3.70176	0	
0.1580	-8.05966	-2.46784	0	
0.1587	-5.91558	-1.55235	0	
0.1593	-0.723303	-0.955294	0	
0.1600	2.01491	-0.0398039	0	
0.1607	4.46898	-1.25382	0	
0.1613	5.99308	-3.38333	0	
0.1620	-0.413316	-2.16931	0	
0.1627	-8.6538	0.577157	0	
0.1633	-6.22557	2.70667	0	
0.1640	2.01491	3.94059	0	
0.1647	5.37311	3.0251	0	
0.1653	5.68309	0.278627	0	
0.1660	6.61305	0.278627	0	
0.1667	5.68309	1.79118	0	
0.1673	3.849	0.278627	0	
0.1680	2.01491	0.278627	0	
0.1687	-1.62743	3.94059	0	
0.1693	-3.17737	3.94059	0	
0.1700	-0.723303	0.278627	0	
0.1707	-3.17737	-0.955294	0	
0.1713	-8.96379	0.278627	0	
0.1720	-8.34381	-0.338333	0	
0.1727	-4.70147	-0.636863	0	
0.1733	-8.96379	-0.636863	0	
0.1740	-14.4661	-1.25382	0	
0.1747	-13.5361	-1.87078	0	
0.1753	-11.702	-1.55235	0	
0.1760	-10.7979	-1.55235	0	
0.1767	-7.43968	-1.87078	0	
0.1773	-4.70147	-1.55235	0	
0.1780	-1.62743	-0.338333	0	
0.1787	1.11079	1.49265	0	
0.1793	1.73076	2.70667	0	
0.1800	2.01491	2.10961	0	
0.1807	5.06312	2.40814	0	
0.1813	7.20719	5.45314	0	
0.1820	8.13715	8.51804	0	
0.1827	10.2554	7.60255	0	
0.1833	9.35127	5.77157	0	
0.1840	7.51718	7.28412	0	
0.1847	10.5654	7.60255	0	
0.1853	12.0895	5.15461	0	
0.1860	10.2554	3.94059	0	
0.1867	9.35127	4.53765	0	
0.1873	6.30307	2.70667	0	
0.1880	1.11079	0.875686	0	
0.1887	1.11079	0.278627	0	
0.1893	1.11079	-0.636863	0	
0.1900	-2.55739	-1.55235	0	
0.1907	-3.17737	-1.87078	0	
0.1913	-1.93742	-2.78627	0	
0.1920	-6.22557	-3.38333	0	
0.1927	-8.05966	-3.70176	0	
0.1933	-6.22557	-4.61725	0	
0.1940	-7.43968	-3.38333	0	
0.1947	-8.05966	-1.55235	0	
0.1953	-4.08149	-3.38333	0	
0.1960	-1.62743	-5.21431	0	
0.1967	-1.62743	-2.78627	0	
0.1973	-0.723303	-0.955294	0	
0.1980	1.11079	-2.16931	0	
0.1987	4.15899	-1.55235	0	
0.1993	7.51718	-1.25382	0	
0.2000	5.37311	-2.46784	0	
0.2007	3.25486	-1.55235	0	
0.2013	8.7313	1.19412	0	
0.2020	15.1377	0.875686	0	
0.2027	15.7577	1.79118	0	
0.2033	14.8535	5.77157	0	
0.2040	15.7577	5.15461	0	
0.2047	17.2818	0.278627	0	
0.2053	18.8059	0.278627	0	
0.2060	19.4258	4.53765	0	
0.2067	17.5918	3.94059	0	
0.2073	12.3995	0.278627	0	
0.2080	6.61305	-1.55235	0	
0.2087	3.25486	-2.46784	0	
0.2093	1.42077	-1.87078	0	
0.2100	-3.17737	-2.46784	0	
0.2107	-6.22557	-4.29882	0	
0.2113	-4.39148	-3.38333	0	
0.2120	-4.70147	-0.955294	0	
0.2127	-8.6538	-1.55235	0	
0.2133	-9.27377	-2.78627	0	
0.2140	-6.81971	-2.78627	0	
0.2147	-5.6056	-1.55235	0	
0.2153	-5.6056	1.19412	0	
0.2160	-6.22557	1.19412	0	
0.2167	-4.70147	-1.55235	0	
0.2173	1.11079	-1.55235	0	
0.2180	6.89721	0.875686	0	
0.2187	7.82717	-0.338333	0	
0.2193	7.51718	-0.955294	0	
0.2200	7.82717	1.19412	0	
0.2207	6.89721	2.10961	0	
0.2213	6.61305	0.875686	0	
0.2220	7.51718	0.278627	0	
0.2227	8.13715	1.19412	0	
0.2233	8.42131	3.0251	0	
0.2240	11.4953	3.94059	0	
0.2247	16.3776	3.0251	0	
0.2253	18.1859	3.94059	0	
0.2260	13.9236	4.85608	0	
0.2267	9.35127	1.79118	0	
0.2273	9.04128	-0.636863	0	
0.2280	9.04128	1.49265	0	
0.2287	6.30307	2.10961	0	
0.2293	4.46898	-1.55235	0	
0.2300	2.01491	-3.38333	0	
0.2307	-2.86738	-1.25382	0	
0.2313	-5.29561	-0.955294	0	
0.2320	-2.86738	-2.46784	0	
0.2327	-1.93742	-2.78627	0	
0.2333	-5.29561	-3.0848	0	
0.2340	-7.1297	-4.29882	0	
0.2347	-5.91558	-6.1298	0	
0.2353	-5.29561	-7.04529	0	
0.2360	-6.50972	-7.04529	0	
0.2367	-7.74967	-5.53274	0	
0.2373	-10.7979	-4.00029	0	
0.2380	-13.5361	-5.21431	0	
0.2387	-9.86791	-7.96078	0	
0.2393	-4.39148	-5.53274	0	
0.2400	-3.46152	-0.955294	0	
0.2407	-2.55739	0.577157	0	
0.2413	1.11079	1.19412	0	
0.2420	2.3249	1.19412	0	
0.2427	2.3249	-1.25382	0	
0.2433	2.01491	-1.55235	0	
0.2440	2.01491	-0.0398039	0	
0.2447	3.849	-1.25382	0	
0.2453	6.30307	-2.16931	0	
0.2460	6.30307	0.875686	0	
0.2467	5.68309	3.0251	0	
0.2473	5.37311	2.40814	0	
0.2480	4.15899	2.10961	0	
0.2487	3.849	1.79118	0	
0.2493	3.849	1.19412	0	
0.2500	1.73076	1.19412	0	
0.2507	0.180826	-0.338333	0	
0.2513	1.11079	-1.55235	0	
0.2520	-1.34328	0.577157	0	
0.2527	-8.05966	0.875686	0	
0.2533	-11.392	-3.0848	0	
0.2540	-11.702	-4.91578	0	
0.2547	-14.4661	-3.38333	0	
0.2553	-15.3702	-2.46784	0	
0.2560	-10.4879	-4.29882	0	
0.2567	-6.50972	-4.61725	0	
0.2573	-6.22557	-2.46784	0	
0.2580	-6.22557	0.875686	0	
0.2587	-6.81971	1.49265	0	
0.2593	-7.1297	-0.636863	0	
0.2600	-5.6056	-1.55235	0	
0.2607	-1.93742	-1.55235	0	
0.2613	3.25486	-2.46784	0	
0.2620	6.61305	-2.46784	0	
0.2627	5.99308	-0.636863	0	
0.2633	6.89721	1.19412	0	
0.2640	9.35127	1.49265	0	
0.2647	8.42131	0.577157	0	
0.2653	7.82717	-0.338333	0	
0.2660	10.5654	0.577157	0	
0.2667	8.42131	3.0251	0	
0.2673	2.01491	3.62216	0	
0.2680	1.73076	1.19412	0	
0.2687	6.30307	0.577157	0	
0.2693	5.37311	1.49265	0	
0.2700	-0.723303	0.875686	0	
0.2707	-3.46152	-0.636863	0	
0.2713	-1.93742	-1.87078	0	
0.2720	-2.2474	-4.00029	0	
0.2727	-4.98562	-3.38333	0	
0.2733	-7.74967	-1.25382	0	
0.2740	-9.58376	-1.55235	0	
0.2747	-7.74967	-1.25382	0	
0.2753	-4.39148	2.10961	0	
0.2760	-4.98562	2.10961	0	
0.2767	-6.22557	-1.55235	0	
0.2773	-4.39148	-0.636863	0	
0.2780	-2.55739	2.10961	0	
0.2787	-1.93742	1.19412	0	
0.2793	0.180826	-0.955294	0	
0.2800	3.25486	-2.46784	0	
0.2807	7.51718	-1.55235	0	
0.2813	11.1854	0.278627	0	
0.2820	9.35127	0.278627	0	
0.2827	4.46898	-0.636863	0	
0.2833	6.61305	0.577157	0	
0.2840	12.0895	2.10961	0	
0.2847	9.66126	1.19412	0	
0.2853	3.849	1.49265	0	
0.2860	4.15899	2.40814	0	
0.2867	6.30307	3.62216	0	
0.2873	2.94488	5.15461	0	
0.2880	1.11079	3.0251	0	
0.2887	4.46898	0.278627	0	
0.2893	5.68309	3.0251	0	
0.2900	1.11079	3.94059	0	
0.2907	-2.55739	1.19412	0	
0.2913	-2.55739	0.875686	0	
0.2920	-5.29561	1.79118	0	
0.2927	-11.702	-0.955294	0	
0.2933	-14.7502	-1.25382	0	
0.2940	-10.7979	-0.955294	0	
0.2947	-7.1297	-4.91578	0	
0.2953	-9.86791	-6.1298	0	
0.2960	-11.1079	-4.29882	0	
0.2967	-8.05966	-6.44823	0	
0.2973	-9.86791	-7.96078	0	
0.2980	-14.1561	-4.91578	0	
0.2987	-11.392	-3.38333	0	
0.2993	-7.43968	-1.87078	0	
0.3000	-8.34381	-0.636863	0	
0.3007	-6.81971	-3.0848	0	
0.3013	-2.55739	-4.29882	0	
0.3020	-2.2474	-0.338333	0	
0.3027	-2.55739	1.19412	0	
0.3033	0.180826	-0.0398039	0	
0.3040	4.15899	0.278627	0	
0.3047	7.51718	-1.55235	0	
0.3053	6.89721	-3.70176	0	
0.3060	2.01491	-0.955294	0	
0.3067	1.42077	2.10961	0	
0.3073	2.01491	2.10961	0	
0.3080	-1.62743	0.577157	0	
0.3087	-2.55739	-1.55235	0	
0.3093	0.490813	-0.955294	0	
0.3100	-3.46152	1.49265	0	
0.3107	-8.05966	1.49265	0	
0.3113	-4.08149	0.577157	0	
0.3120	-1.62743	1.49265	0	
0.3127	-4.70147	-0.955294	0	
0.3133	-4.98562	-4.91578	0	
0.3140	-5.91558	-2.46784	0	
0.3147	-9.86791	2.10961	0	
0.3153	-9.27377	0.278627	0	
0.3160	-5.6056	-1.55235	0	
0.3167	-5.29561	1.19412	0	
0.3173	-3.46152	3.0251	0	
0.3180	0.180826	1.79118	0	
0.3187	1.11079	1.79118	0	
0.3193	2.01491	2.40814	0	
0.3200	6.89721	1.49265	0	
0.3207	8.42131	1.19412	0	
0.3213	3.849	2.40814	0	
0.3220	2.01491	3.62216	0	
0.3227	5.06312	3.94059	0	
0.3233	7.51718	3.62216	0	
0.3240	8.42131	3.0251	0	
0.3247	9.35127	4.23912	0	
0.3253	9.66126	5.77157	0	
0.3260	9.35127	4.85608	0	
0.3267	9.35127	3.94059	0	
0.3273	7.51718	3.0251	0	
0.3280	4.15899	1.19412	0	
0.3287	1.73076	0.875686	0	
0.3293	0.490813	1.79118	0	
0.3300	-0.413316	1.19412	0	
0.3307	0.180826	-0.338333	0	
0.3313	0.490813	-0.636863	0	
0.3320	-3.17737	-1.25382	0	
0.3327	-10.1779	-2.46784	0	
0.3333	-13.5361	-3.70176	0	
0.3340	-10.7979	-5.21431	0	
0.3347	-8.34381	-4.29882	0	
0.3353	-8.96379	-1.87078	0	
0.3360	-6.81971	-2.46784	0	
0.3367	-2.55739	-4.29882	0	
0.3373	0.800799	-2.46784	0	
0.3380	2.94488	-0.0398039	0	
0.3387	2.01491	-0.636863	0	
0.3393	-1.03329	-2.46784	0	
0.3400	2.3249	-2.46784	0	
0.3407	9.35127	-1.55235	0	
0.3413	9.66126	-0.636863	0	
0.3420	10.8754	0.278627	0	
0.3427	16.9718	1.19412	0	
0.3433	16.9718	-0.338333	0	
0.3440	9.94541	-1.87078	0	
0.3447	6.89721	-0.338333	0	
0.3453	9.04128	1.19412	0	
0.3460	10.2554	0.278627	0	
0.3467	9.35127	0.278627	0	
0.3473	5.68309	1.19412	0	
0.3480	2.63489	-0.636863	0	
0.3487	3.849	-2.46784	0	
0.3493	2.94488	-2.78627	0	
0.3500	-3.17737	-2.78627	0	
0.3507	-5.91558	-2.78627	0	
0.3513	-3.77151	-3.38333	0	
0.3520	-4.98562	-4.29882	0	
0.3527	-8.34381	-2.46784	0	
0.3533	-6.81971	-2.78627	0	
0.3540	-3.17737	-5.21431	0	
0.3547	-1.62743	-4.29882	0	
0.3553	-2.2474	-2.46784	0	
0.3560	-3.46152	-4.91578	0	
0.3567	-4.39148	-4.91578	0	
0.3573	-2.2474	-0.636863	0	
0.3580	1.11079	-1.55235	0	
0.3587	4.77896	-3.0848	0	
0.3593	7.51718	1.19412	0	
0.3600	8.7313	4.53765	0	
0.3607	10.2554	2.10961	0	
0.3613	14.2336	-0.0398039	0	
0.3620	15.1377	0.875686	0	
0.3627	9.94541	2.10961	0	
0.3633	6.61305	1.19412	0	
0.3640	7.51718	-1.25382	0	
0.3647	6.61305	-0.636863	0	
0.3653	5.06312	3.0251	0	
0.3660	5.68309	5.15461	0	
0.3667	8.13715	1.79118	0	
0.3673	11.1854	-4.29882	0	
0.3680	10.2554	-5.83127	0	
0.3687	2.3249	-8.27922	0	
0.3693	-7.1297	-15.2847	0	
0.3700	-13.5361	-15.2847	0	
0.3707	-14.7502	-7.04529	0	
0.3713	-11.392	-7.04529	0	
0.3720	-9.86791	-4.61725	0	
0.3727	-13.8461	16.7574	0	
0.3733	-15.9902	29.2559	0	
0.3740	-14.4661	9.1151	0	
0.3747	-13.5361	-10.4087	0	
0.3753	-12.322	-7.66225	0	
0.3760	-11.392	-4.61725	0	
0.3767	-11.702	-6.1298	0	
0.3773	-8.96379	5.77157	0	
0.3780	-7.74967	18.5884	0	
0.3787	-9.86791	10.6475	0	
0.3793	-5.91558	-3.70176	0	
0.3800	2.63489	-4.29882	0	
0.3807	2.94488	1.79118	0	
0.3813	0.490813	2.10961	0	
0.3820	4.77896	1.19412	0	
0.3827	7.51718	2.10961	0	
0.3833	3.53902	0.278627	0	
0.3840	0.800799	-0.955294	0	
0.3847	2.3249	1.79118	0	
0.3853	5.68309	2.10961	0	
0.3860	7.51718	0.278627	0	
0.3867	5.06312	1.19412	0	
0.3873	0.490813	1.49265	0	
0.3880	-1.62743	-0.338333	0	
0.3887	-1.62743	0.278627	0	
0.3893	-1.62743	1.79118	0	
0.3900	-2.2474	-0.636863	0	
0.3907	-3.17737	-3.38333	0	
0.3913	-4.98562	-2.78627	0	
0.3920	-4.08149	-1.55235	0	
0.3927	-2.55739	-1.25382	0	
0.3933	-3.77151	-2.46784	0	
0.3940	-3.17737	-3.70176	0	
0.3947	1.11079	-2.16931	0	
0.3953	1.11079	0.278627	0	
0.3960	-1.62743	-1.55235	0	
0.3967	-0.413316	-3.38333	0	
0.3973	1.11079	-0.338333	0	
0.3980	0.800799	1.19412	0	
0.3987	2.94488	-1.55235	0	
0.3993	4.77896	-2.46784	0	
0.4000	5.06312	1.19412	0	
0.4007	8.7313	2.70667	0	
0.4013	11.4953	-0.0398039	0	
0.4020	10.5654	-1.55235	0	
0.4027	10.8754	0.278627	0	
0.4033	10.5654	1.19412	0	
0.4040	8.7313	1.49265	0	
0.4047	9.94541	3.0251	0	
0.4053	9.35127	2.70667	0	
0.4060	4.46898	0.875686	0	
0.4067	3.849	2.70667	0	
0.4073	5.68309	5.77157	0	
0.4080	2.94488	4.53765	0	
0.4087	1.11079	0.577157	0	
0.4093	1.11079	-0.636863	0	
0.4100	-2.86738	0.278627	0	
0.4107	-9.58376	0.875686	0	
0.4113	-10.7979	-0.955294	0	
0.4120	-8.05966	-3.38333	0	
0.4127	-6.22557	-3.38333	0	
0.4133	-7.1297	-1.87078	0	
0.4140	-10.7979	-2.46784	0	
0.4147	-11.702	-4.29882	0	
0.4153	-9.58376	-3.70176	0	
0.4160	-9.58376	-2.16931	0	
0.4167	-10.7979	-3.0848	0	
0.4173	-9.86791	-6.74676	0	
0.4180	-8.96379	-7.96078	0	
0.4187	-10.1779	-5.83127	0	
0.4193	-8.05966	-4.29882	0	
0.4200	-4.08149	-3.38333	0	
0.4207	-2.2474	-1.55235	0	
0.4213	2.94488	-1.25382	0	
0.4220	7.51718	-2.16931	0	
0.4227	1.73076	-1.55235	0	
0.4233	-5.91558	-0.636863	0	
0.4240	-4.39148	-0.636863	0	
0.4247	-0.723303	-1.55235	0	
0.4253	0.800799	-0.955294	0	
0.4260	3.25486	0.577157	0	
0.4267	2.94488	1.19412	0	
0.4273	-1.62743	-0.0398039	0	
0.4280	-4.08149	-2.16931	0	
0.4287	-4.39148	-1.55235	0	
0.4293	-6.22557	0.875686	0	
0.4300	-7.1297	1.19412	0	
0.4307	-7.1297	-0.955294	0	
0.4313	-11.1079	-0.338333	0	
0.4320	-14.4661	1.79118	0	
0.4327	-12.322	0.875686	0	
0.4333	-9.27377	-1.55235	0	
0.4340	-11.702	-1.87078	0	
0.4347	-14.7502	-1.25382	0	
0.4353	-12.632	-0.955294	0	
0.4360	-9.86791	-1.87078	0	
0.4367	-10.7979	-2.46784	0	
0.4373	-9.86791	-0.636863	0	
0.4380	-4.08149	3.0251	0	
0.4387	1.11079	3.0251	0	
0.4393	2.3249	0.577157	0	
0.4400	6.61305	-0.338333	0	
0.4407	10.2554	0.278627	0	
0.4413	4.46898	1.19412	0	
0.4420	-1.62743	3.0251	0	
0.4427	3.25486	2.40814	0	
0.4433	9.35127	0.278627	0	
0.4440	7.82717	1.19412	0	
0.4447	7.20719	3.94059	0	
0.4453	8.13715	2.40814	0	
0.4460	5.37311	-0.0398039	0	
0.4467	2.94488	-0.636863	0	
0.4473	1.42077	-0.0398039	0	
0.4480	-0.723303	-0.0398039	0	
0.4487	-0.723303	-0.338333	0	
0.4493	0.800799	-1.55235	0	
0.4500	-2.2474	-2.78627	0	
0.4507	-5.29561	-4.61725	0	
0.4513	-4.39148	-6.44823	0	
0.4520	-2.55739	-5.21431	0	
0.4527	-1.62743	-3.38333	0	
0.4533	-3.46152	-3.70176	0	
0.4540	-5.91558	-3.70176	0	
0.4547	-7.1297	-3.0848	0	
0.4553	-7.74967	-5.53274	0	
0.4560	-4.70147	-7.36372	0	
0.4567	1.11079	-2.46784	0	
0.4573	-0.413316	0.278627	0	
0.4580	-6.22557	-4.29882	0	
0.4587	-5.6056	-5.21431	0	
0.4593	-1.93742	-0.636863	0	
0.4600	1.42077	-0.338333	0	
0.4607	5.99308	-4.29882	0	
0.4613	6.89721	-4.91578	0	
0.4620	6.61305	-1.55235	0	
0.4627	11.1854	1.19412	0	
0.4633	14.2336	1.19412	0	
0.4640	13.0194	0.278627	0	
0.4647	11.7795	0.875686	0	
0.4653	11.1854	3.0251	0	
0.4660	12.0895	3.94059	0	
0.4667	13.6136	3.62216	0	
0.4673	12.0895	2.40814	0	
0.4680	9.35127	3.32363	0	
0.4687	8.7313	5.45314	0	
0.4693	5.99308	2.40814	0	
0.4700	0.800799	-1.87078	0	
0.4707	-1.34328	-0.0398039	0	
0.4713	-0.723303	2.40814	0	
0.4720	-2.55739	-0.636863	0	
0.4727	-4.39148	-3.38333	0	
0.4733	-4.98562	-2.16931	0	
0.4740	-6.22557	-1.25382	0	
0.4747	-7.1297	-2.46784	0	
0.4753	-5.29561	-2.46784	0	
0.4760	-4.08149	-2.16931	0	
0.4767	-4.98562	-2.46784	0	
0.4773	-3.46152	-2.46784	0	
0.4780	0.800799	-0.0398039	0	
0.4787	2.01491	2.10961	0	
0.4793	2.63489	1.19412	0	
0.4800	5.37311	-0.338333	0	
0.4807	9.35127	1.19412	0	
0.4813	11.4953	4.85608	0	
0.4820	12.7095	6.68706	0	
0.4827	14.2336	7.28412	0	
0.4833	16.6618	5.77157	0	
0.4840	19.4258	3.62216	0	
0.4847	19.4258	3.0251	0	
0.4853	15.7577	3.94059	0	
0.4860	8.7313	3.62216	0	
0.4867	3.849	2.70667	0	
0.4873	4.77896	1.19412	0	
0.4880	5.68309	-0.955294	0	
0.4887	1.73076	-1.87078	0	
0.4893	-1.93742	-0.338333	0	
0.4900	-2.2474	2.10961	0	
0.4907	-2.2474	2.70667	0	
0.4913	-2.55739	-0.636863	0	
0.4920	-3.46152	-3.38333	0	
0.4927	-7.43968	-2.46784	0	
0.4933	-10.4879	-1.55235	0	
0.4940	-8.34381	-4.29882	0	
0.4947	-7.1297	-5.83127	0	
0.4953	-8.96379	-4.61725	0	
0.4960	-8.96379	-4.29882	0	
0.4967	-7.43968	-3.70176	0	
0.4973	-8.96379	-1.25382	0	
0.4980	-8.34381	0.875686	0	
0.4987	-3.46152	-0.338333	0	
0.4993	0.180826	-2.16931	0	
0.5000	0.800799	-1.55235	0	
0.5007	1.11079	0.278627	0	
0.5013	1.11079	1.79118	0	
0.5020	2.3249	2.10961	0	
0.5027	4.77896	3.0251	0	
0.5033	5.37311	3.32363	0	
0.5040	4.77896	3.94059	0	
0.5047	5.99308	3.94059	0	
0.5053	6.61305	2.10961	0	
0.5060	5.99308	0.278627	0	
0.5067	6.61305	2.40814	0	
0.5073	2.63489	4.23912	0	
0.5080	-4.39148	1.19412	0	
0.5087	-5.6056	-1.55235	0	
0.5093	-4.39148	1.79118	0	
0.5100	-6.81971	3.0251	0	
0.5107	-11.1079	-1.25382	0	
0.5113	-13.5361	-3.38333	0	
0.5120	-11.702	-1.87078	0	
0.5127	-8.05966	-1.87078	0	
0.5133	-9.86791	-2.78627	0	
0.5140	-14.4661	-1.25382	0	
0.5147	-12.632	-2.16931	0	
0.5153	-8.34381	-5.53274	0	
0.5160	-8.05966	-4.91578	0	
0.5167	-8.05966	-1.55235	0	
0.5173	-8.05966	-0.955294	0	
0.5180	-10.4879	-1.55235	0	
0.5187	-5.91558	-0.636863	0	
0.5193	3.849	-0.0398039	0	
0.5200	5.68309	-0.338333	0	
0.5207	-0.103329	0.278627	0	
0.5213	-1.62743	-0.0398039	0	
0.5220	3.849	0.278627	0	
0.5227	6.89721	1.49265	0	
0.5233	6.89721	2.10961	0	
0.5240	7.82717	0.875686	0	
0.5247	9.94541	0.278627	0	
0.5253	11.1854	-0.0398039	0	
0.5260	10.2554	-0.636863	0	
0.5267	9.04128	1.19412	0	
0.5273	8.42131	1.19412	0	
0.5280	7.82717	0.278627	0	
0.5287	5.37311	0.875686	0	
0.5293	1.42077	-0.338333	0	
0.5300	-4.39148	-4.61725	0	
0.5307	-10.1779	-5.21431	0	
0.5313	-9.58376	-3.0848	0	
0.5320	-6.22557	-4.29882	0	
0.5327	-8.34381	-5.53274	0	
0.5333	-9.86791	-4.00029	0	
0.5340	-6.50972	-4.29882	0	
0.5347	-6.22557	-4.61725	0	
0.5353	-9.86791	-3.38333	0	
0.5360	-8.05966	-4.61725	0	
0.5367	-4.39148	-7.04529	0	
0.5373	-5.6056	-4.91578	0	
0.5380	-4.98562	-4.29882	0	
0.5387	-0.103329	-5.83127	0	
0.5393	1.42077	-4.00029	0	
0.5400	2.01491	-0.0398039	0	
0.5407	6.89721	0.577157	0	
0.5413	12.3995	1.19412	0	
0.5420	13.6136	2.70667	0	
0.5427	13.6136	3.94059	0	
0.5433	14.8535	6.0701	0	
0.5440	15.4477	5.77157	0	
0.5447	13.9236	3.0251	0	
0.5453	13.0194	3.0251	0	
0.5460	13.3036	3.0251	0	
0.5467	11.7795	1.19412	0	
0.5473	7.51718	1.19412	0	
0.5480	5.68309	1.79118	0	
0.5487	4.77896	0.278627	0	
0.5493	1.11079	1.19412	0	
0.5500	-1.93742	1.19412	0	
0.5507	-3.46152	-1.55235	0	
0.5513	-5.6056	-2.46784	0	
0.5520	-7.74967	-0.338333	0	
0.5527	-7.1297	-0.338333	0	
0.5533	-7.1297	-1.55235	0	
0.5540	-7.74967	-0.636863	0	
0.5547	-6.81971	-0.0398039	0	
0.5553	-6.50972	-0.636863	0	
0.5560	-6.50972	-1.25382	0	
0.5567	-3.77151	-1.25382	0	
0.5573	-2.55739	-1.55235	0	
0.5580	-7.1297	-3.0848	0	
0.5587	-9.86791	-3.0848	0	
0.5593	-4.70147	-1.87078	0	
0.5600	0.490813	-3.0848	0	
0.5607	-0.103329	-3.38333	0	
0.5613	-0.723303	-1.87078	0	
0.5620	1.11079	-1.25382	0	
0.5627	1.42077	0.278627	0	
0.5633	3.53902	4.53765	0	
0.5640	9.04128	4.85608	0	
0.5647	9.94541	1.49265	0	
0.5653	4.46898	1.19412	0	
0.5660	1.42077	3.62216	0	
0.5667	2.63489	3.0251	0	
0.5673	4.15899	1.79118	0	
0.5680	2.94488	1.49265	0	
0.5687	-2.2474	-0.0398039	0	
0.5693	-5.91558	-3.0848	0	
0.5700	-5.29561	-4.61725	0	
0.5707	-6.22557	-4.61725	0	
0.5713	-8.96379	-4.61725	0	
0.5720	-8.05966	-4.91578	0	
0.5727	-6.22557	-3.70176	0	
0.5733	-9.27377	-4.00029	0	
0.5740	-11.702	-8.57774	0	
0.5747	-8.6538	-9.19471	0	
0.5753	-6.22557	-4.29882	0	
0.5760	-8.96379	-4.29882	0	
0.5767	-9.86791	-8.27922	0	
0.5773	-6.50972	-6.44823	0	
0.5780	-4.98562	-5.21431	0	
0.5787	-4.70147	-7.96078	0	
0.5793	-1.62743	-7.36372	0	
0.5800	0.800799	-4.29882	0	
0.5807	-0.413316	-4.29882	0	
0.5813	-1.34328	-2.46784	0	
0.5820	0.800799	0.577157	0	
0.5827	2.63489	-0.338333	0	
0.5833	2.94488	-2.46784	0	
0.5840	2.3249	-1.25382	0	
0.5847	2.3249	0.875686	0	
0.5853	3.25486	0.278627	0	
0.5860	3.849	-0.636863	0	
0.5867	2.63489	-0.955294	0	
0.5873	3.849	-0.636863	0	
0.5880	5.68309	-0.338333	0	
0.5887	3.849	-1.25382	0	
0.5893	0.490813	-3.0848	0	
0.5900	0.180826	-3.38333	0	
0.5907	0.180826	-3.70176	0	
0.5913	-2.55739	-5.21431	0	
0.5920	-3.46152	-5.21431	0	
0.5927	-2.55739	-5.21431	0	
0.5933	-3.17737	-7.66225	0	
0.5940	-2.2474	-7.36372	0	
0.5947	-0.723303	-4.29882	0	
0.5953	-1.03329	-4.61725	0	
0.5960	-0.413316	-4.29882	0	
0.5967	1.11079	-1.55235	0	
0.5973	1.11079	-2.46784	0	
0.5980	0.800799	-4.29882	0	
0.5987	2.01491	-2.16931	0	
0.5993	3.25486	0.278627	0	
0.6000	3.53902	0.875686	0	
0.6007	4.46898	1.19412	0	
0.6013	5.99308	0.278627	0	
0.6020	8.13715	-0.955294	0	
0.6027	7.51718	-0.955294	0	
0.6033	7.20719	-1.55235	0	
0.6040	10.5654	-0.0398039	0	
0.6047	15.4477	2.10961	0	
0.6053	15.7577	1.19412	0	
0.6060	10.5654	0.278627	0	
0.6067	4.46898	1.79118	0	
0.6073	3.849	0.577157	0	
0.6080	7.20719	-1.55235	0	
0.6087	6.61305	-2.46784	0	
0.6093	2.01491	-2.16931	0	
0.6100	-2.86738	-0.0398039	0	
0.6107	-7.43968	2.70667	0	
0.6113	-8.6538	1.19412	0	
0.6120	-6.50972	-1.87078	0	
0.6127	-8.05966	-2.16931	0	
0.6133	-8.96379	-1.55235	0	
0.6140	-6.81971	-2.78627	0	
0.6147	-9.58376	-3.70176	0	
0.6153	-13.8461	-3.0848	0	
0.6160	-11.392	-2.78627	0	
0.6167	-6.22557	-2.46784	0	
0.6173	-3.17737	0.278627	0	
0.6180	-2.55739	2.40814	0	
0.6187	-4.70147	1.49265	0	
0.6193	-5.29561	0.577157	0	
0.6200	-2.2474	2.10961	0	
0.6207	0.180826	3.94059	0	
0.6213	3.25486	4.85608	0	
0.6220	7.20719	4.23912	0	
0.6227	9.04128	3.94059	0	
0.6233	10.5654	6.68706	0	
0.6240	12.7095	10.349	0	
0.6247	12.7095	8.51804	0	
0.6253	11.4953	5.77157	0	
0.6260	10.5654	6.98559	0	
0.6267	9.35127	7.28412	0	
0.6273	8.13715	3.94059	0	
0.6280	5.68309	2.40814	0	
0.6287	3.53902	4.23912	0	
0.6293	3.53902	3.62216	0	
0.6300	1.11079	0.875686	0	
0.6307	-3.17737	-0.0398039	0	
0.6313	-2.2474	-0.0398039	0	
0.6320	-1.34328	-1.55235	0	
0.6327	-6.22557	-2.78627	0	
0.6333	-8.34381	-2.46784	0	
0.6340	-5.6056	-1.25382	0	
0.6347	-4.98562	-0.636863	0	
0.6353	-7.1297	-0.955294	0	
0.6360	-7.74967	-1.25382	0	
0.6367	-4.70147	-1.55235	0	
0.6373	-1.62743	-3.0848	0	
0.6380	-0.723303	-3.70176	0	
0.6387	0.180826	0.278627	0	
0.6393	1.42077	3.94059	0	
0.6400	1.11079	2.10961	0	
0.6407	2.3249	0.278627	0	
0.6413	7.51718	1.19412	0	
0.6420	8.42131	0.577157	0	
0.6427	6.89721	1.49265	0	
0.6433	9.35127	6.36863	0	
0.6440	11.7795	7.28412	0	
0.6447	10.2554	3.94059	0	
0.6453	10.5654	3.0251	0	
0.6460	11.4953	3.32363	0	
0.6467	9.04128	3.0251	0	
0.6473	5.68309	4.85608	0	
0.6480	3.849	4.53765	0	
0.6487	0.180826	-0.0398039	0	
0.6493	-3.46152	-0.636863	0	
0.6500	-4.70147	0.577157	0	
0.6507	-5.91558	-2.16931	0	
0.6513	-5.6056	-1.55235	0	
0.6520	-4.70147	2.10961	0	
0.6527	-8.05966	-0.0398039	0	
0.6533	-9.86791	-4.29882	0	
0.6540	-7.1297	-1.55235	0	
0.6547	-8.6538	1.79118	0	
0.6553	-12.632	0.577157	0	
0.6560	-11.702	-0.636863	0	
0.6567	-14.1561	-1.55235	0	
0.6573	-20.5625	-4.61725	0	
0.6580	-16.8943	-4.29882	0	
0.6587	-7.1297	0.278627	0	
0.6593	-4.08149	2.10961	0	
0.6600	-1.62743	1.79118	0	
0.6607	2.01491	2.10961	0	
0.6613	3.53902	2.40814	0	
0.6620	4.77896	3.94059	0	
0.6627	5.06312	6.36863	0	
0.6633	2.94488	5.45314	0	
0.6640	3.25486	1.79118	0	
0.6647	6.61305	0.278627	0	
0.6653	8.42131	0.875686	0	
0.6660	6.89721	2.10961	0	
0.6667	3.53902	2.10961	0	
0.6673	1.11079	1.49265	0	
0.6680	3.53902	0.577157	0	
0.6687	5.68309	1.19412	0	
0.6693	1.11079	2.10961	0	
0.6700	-4.70147	0.278627	0	
0.6707	-6.50972	-2.46784	0	
0.6713	-6.22557	-1.87078	0	
0.6720	-8.05966	-0.955294	0	
0.6727	-10.1779	-2.78627	0	
0.6733	-10.4879	-3.70176	0	
0.6740	-8.34381	-1.55235	0	
0.6747	-4.08149	-0.636863	0	
0.6753	1.42077	-0.636863	0	
0.6760	4.46898	1.19412	0	
0.6767	2.63489	1.79118	0	
0.6773	-1.93742	-1.25382	0	
0.6780	-2.86738	-2.46784	0	
0.6787	2.94488	-0.636863	0	
0.6793	9.35127	-0.338333	0	
0.6800	9.35127	0.278627	0	
0.6807	9.35127	2.70667	0	
0.6813	11.7795	3.0251	0	
0.6820	9.04128	-0.636863	0	
0.6827	5.06312	-1.87078	0	
0.6833	8.42131	0.875686	0	
0.6840	14.2336	1.19412	0	
0.6847	14.8535	-0.636863	0	
0.6853	15.7577	-0.636863	0	
0.6860	18.4959	-1.55235	0	
0.6867	14.8535	-2.78627	0	
0.6873	5.99308	-0.636863	0	
0.6880	1.11079	1.19412	0	
0.6887	1.73076	0.278627	0	
0.6893	3.849	1.19412	0	
0.6900	2.94488	1.49265	0	
0.6907	1.42077	-2.46784	0	
0.6913	2.01491	-4.29882	0	
0.6920	1.11079	-2.16931	0	
0.6927	-2.55739	-1.25382	0	
0.6933	-4.39148	-2.46784	0	
0.6940	-2.86738	-4.29882	0	
0.6947	-3.46152	-6.74676	0	
0.6953	-4.39148	-7.36372	0	
0.6960	-2.55739	-6.44823	0	
0.6967	-1.62743	-7.04529	0	
0.6973	-3.17737	-7.66225	0	
0.6980	-3.46152	-5.83127	0	
0.6987	0.490813	-3.70176	0	
0.6993	5.06312	-3.38333	0	
0.7000	6.61305	-2.78627	0	
0.7007	5.37311	-0.338333	0	
0.7013	3.849	-0.338333	0	
0.7020	3.849	-3.0848	0	
0.7027	4.77896	-3.70176	0	
0.7033	4.15899	-2.16931	0	
0.7040	2.01491	-2.46784	0	
0.7047	1.11079	-4.00029	0	
0.7053	2.01491	-3.38333	0	
0.7060	3.25486	-1.55235	0	
0.7067	2.94488	0.278627	0	
0.7073	-0.413316	0.875686	0	
0.7080	-3.46152	-0.338333	0	
0.7087	-4.08149	-1.55235	0	
0.7093	-4.98562	-3.0848	0	
0.7100	-8.96379	-4.29882	0	
0.7107	-12.012	-3.70176	0	
0.7113	-14.7502	-1.87078	0	
0.7120	-17.2043	-2.46784	0	
0.7127	-16.2743	-4.29882	0	
0.7133	-13.5361	-4.29882	0	
0.7140	-15.3702	-2.16931	0	
0.7147	-16.5843	-0.636863	0	
0.7153	-13.2261	-1.55235	0	
0.7160	-11.1079	-2.46784	0	
0.7167	-11.702	-1.55235	0	
0.7173	-9.58376	-0.338333	0	
0.7180	-4.98562	1.19412	0	
0.7187	-2.55739	2.40814	0	
0.7193	-0.723303	3.94059	0	
0.7200	1.42077	3.94059	0	
0.7207	3.53902	2.70667	0	
0.7213	5.68309	0.278627	0	
0.7220	9.04128	-0.636863	0	
0.7227	10.8754	0.278627	0	
0.7233	7.82717	3.0251	0	
0.7240	3.849	4.53765	0	
0.7247	4.77896	2.70667	0	
0.7253	10.2554	0.875686	0	
0.7260	11.1854	1.19412	0	
0.7267	9.04128	2.10961	0	
0.7273	7.20719	2.10961	0	
0.7280	5.68309	1.49265	0	
0.7287	5.06312	-0.0398039	0	
0.7293	5.06312	-1.25382	0	
0.7300	1.11079	-1.55235	0	
0.7307	-3.46152	-0.0398039	0	
0.7313	-3.77151	2.70667	0	
0.7320	-6.22557	1.19412	0	
0.7327	-13.5361	-3.0848	0	
0.7333	-15.3702	-4.00029	0	
0.7340	-10.4879	-2.78627	0	
0.7347	-8.05966	-3.38333	0	
0.7353	-7.1297	-1.87078	0	
0.7360	-4.08149	-0.636863	0	
0.7367	-3.46152	-3.0848	0	
0.7373	-6.22557	-3.70176	0	
0.7380	-4.98562	-0.636863	0	
0.7387	-1.62743	-0.955294	0	
0.7393	-0.723303	-3.0848	0	
0.7400	0.180826	-1.55235	0	
0.7407	3.849	1.19412	0	
0.7413	6.89721	1.19412	0	
0.7420	7.51718	1.19412	0	
0.7427	6.61305	1.49265	0	
0.7433	3.849	3.0251	0	
0.7440	2.3249	3.94059	0	
0.7447	4.46898	2.10961	0	
0.7453	5.99308	-0.338333	0	
0.7460	2.94488	1.19412	0	
0.7467	1.73076	3.62216	0	
0.7473	3.53902	2.70667	0	
0.7480	2.94488	2.10961	0	
0.7487	0.180826	3.94059	0	
0.7493	-0.723303	3.94059	0	
0.7500	-1.93742	0.875686	0	
0.7507	-4.39148	0.278627	0	
0.7513	-4.39148	1.19412	0	
0.7520	-3.46152	0.278627	0	
0.7527	-4.98562	-2.78627	0	
0.7533	-8.34381	-4.91578	0	
0.7540	-12.632	-4.29882	0	
0.7547	-15.0602	-3.38333	0	
0.7553	-11.702	-3.38333	0	
0.7560	-8.6538	-3.70176	0	
0.7567	-13.2261	-2.46784	0	
0.7573	-16.8943	-2.16931	0	
0.7580	-14.1561	-1.55235	0	
0.7587	-11.1079	-0.636863	0	
0.7593	-8.96379	-1.25382	0	
0.7600	-3.46152	-2.46784	0	
0.7607	1.42077	-1.55235	0	
0.7613	2.63489	0.875686	0	
0.7620	3.849	2.10961	0	
0.7627	7.82717	2.10961	0	
0.7633	9.35127	3.62216	0	
0.7640	8.42131	3.94059	0	
0.7647	9.04128	2.10961	0	
0.7653	11.1854	0.577157	0	
0.7660	10.8754	0.875686	0	
0.7667	9.04128	1.79118	0	
0.7673	7.51718	2.70667	0	
0.7680	4.77896	3.0251	0	
0.7687	2.94488	2.10961	0	
0.7693	2.94488	-0.338333	0	
0.7700	2.3249	-3.38333	0	
0.7707	0.800799	-4.29882	0	
0.7713	-1.62743	-1.55235	0	
0.7720	-5.6056	-0.636863	0	
0.7727	-8.05966	-4.29882	0	
0.7733	-7.74967	-5.83127	0	
0.7740	-5.91558	-4.00029	0	
0.7747	-6.50972	-4.61725	0	
0.7753	-9.27377	-7.04529	0	
0.7760	-9.27377	-6.1298	0	
0.7767	-5.29561	-3.38333	0	
0.7773	-4.39148	-2.46784	0	
0.7780	-5.91558	-4.61725	0	
0.7787	-2.55739	-5.83127	0	
0.7793	1.73076	-1.87078	0	
0.7800	1.11079	1.19412	0	
0.7807	-1.03329	-1.25382	0	
0.7813	-1.62743	-2.46784	0	
0.7820	-2.55739	-1.55235	0	
0.7827	1.11079	-0.636863	0	
0.7833	7.20719	0.875686	0	
0.7840	7.82717	2.40814	0	
0.7847	7.51718	0.577157	0	
0.7853	9.04128	-0.636863	0	
0.7860	5.68309	1.79118	0	
0.7867	4.46898	3.0251	0	
0.7873	9.35127	0.278627	0	
0.7880	9.04128	-0.636863	0	
0.7887	2.3249	0.278627	0	
0.7893	1.11079	-1.55235	0	
0.7900	1.11079	-3.38333	0	
0.7907	-3.17737	-1.55235	0	
0.7913	-5.6056	-0.636863	0	
0.7920	-5.91558	-2.78627	0	
0.7927	-6.50972	-2.78627	0	
0.7933	-6.22557	-3.0848	0	
0.7940	-8.96379	-6.1298	0	
0.7947	-13.5361	-5.53274	0	
0.7953	-10.7979	-2.78627	0	
0.7960	-3.46152	-3.70176	0	
0.7967	-4.39148	-3.38333	0	
0.7973	-8.6538	0.875686	0	
0.7980	-5.6056	0.278627	0	
0.7987	2.01491	-1.87078	0	
0.7993	5.68309	1.19412	0	
0.8000	5.99308	2.70667	0	
0.8007	6.61305	0.278627	0	
0.8013	7.51718	1.19412	0	
0.8020	9.35127	3.62216	0	
0.8027	12.0895	2.10961	0	
0.8033	15.1377	2.10961	0	
0.8040	16.6618	5.77157	0	
0.8047	14.8535	7.28412	0	
0.8053	12.0895	4.23912	0	
0.8060	12.0895	2.10961	0	
0.8067	13.0194	3.0251	0	
0.8073	11.7795	3.94059	0	
0.8080	9.94541	3.32363	0	
0.8087	9.35127	3.32363	0	
0.8093	6.61305	3.94059	0	
0.8100	2.63489	3.0251	0	
0.8107	2.94488	0.577157	0	
0.8113	2.94488	-1.25382	0	
0.8120	-0.413316	-1.87078	0	
0.8127	-0.723303	-1.55235	0	
0.8133	1.11079	-1.25382	0	
0.8140	-3.46152	-0.636863	0	
0.8147	-7.74967	-0.636863	0	
0.8153	-6.22557	-0.636863	0	
0.8160	-5.6056	-0.955294	0	
0.8167	-5.91558	-0.636863	0	
0.8173	-2.55739	0.278627	0	
0.8180	-1.62743	1.19412	0	
0.8187	-2.2474	0.278627	0	
0.8193	0.800799	-0.955294	0	
0.8200	1.11079	0.577157	0	
0.8207	-1.34328	3.0251	0	
0.8213	0.800799	3.32363	0	
0.8220	4.77896	4.23912	0	
0.8227	6.30307	3.32363	0	
0.8233	7.20719	-0.0398039	0	
0.8240	7.82717	-0.636863	0	
0.8247	6.61305	0.875686	0	
0.8253	3.53902	1.19412	0	
0.8260	-0.723303	2.70667	0	
0.8267	-4.39148	3.32363	0	
0.8273	-2.86738	2.10961	0	
0.8280	0.180826	3.0251	0	
0.8287	-2.55739	3.62216	0	
0.8293	-9.58376	0.875686	0	
0.8300	-12.012	1.19412	0	
0.8307	-8.96379	2.10961	0	
0.8313	-8.05966	-1.25382	0	
0.8320	-9.58376	-2.46784	0	
0.8327	-8.6538	0.875686	0	
0.8333	-8.05966	1.19412	0	
0.8340	-8.96379	-1.55235	0	
0.8347	-9.86791	-2.46784	0	
0.8353	-13.2261	-2.46784	0	
0.8360	-14.4661	-2.46784	0	
0.8367	-9.86791	-2.46784	0	
0.8373	-7.1297	-2.46784	0	
0.8380	-7.74967	-1.55235	0	
0.8387	-4.39148	0.278627	0	
0.8393	-0.103329	1.19412	0	
0.8400	0.180826	0.875686	0	
0.8407	1.42077	0.278627	0	
0.8413	4.15899	0.278627	0	
0.8420	5.37311	0.577157	0	
0.8427	7.82717	0.278627	0	
0.8433	10.2554	-0.0398039	0	
0.8440	9.94541	0.278627	0	
0.8447	9.35127	1.19412	0	
0.8453	11.1854	1.19412	0	
0.8460	11.1854	1.49265	0	
0.8467	7.20719	2.10961	0	
0.8473	2.63489	0.875686	0	
0.8480	2.3249	-0.636863	0	
0.8487	2.63489	-0.636863	0	
0.8493	-1.34328	-0.0398039	0	
0.8500	-3.46152	0.875686	0	
0.8507	0.180826	1.19412	0	
0.8513	0.800799	0.577157	0	
0.8520	-3.77151	-0.338333	0	
0.8527	-9.58376	-1.55235	0	
0.8533	-14.1561	-3.38333	0	
0.8540	-14.4661	-3.0848	0	
0.8547	-9.86791	-2.46784	0	
0.8553	-6.22557	-4.29882	0	
0.8560	-8.05966	-4.29882	0	
0.8567	-10.1779	-0.636863	0	
0.8573	-6.81971	-0.636863	0	
0.8580	-0.723303	-2.46784	0	
0.8587	-0.723303	-0.636863	0	
0.8593	-4.70147	0.875686	0	
0.8600	-1.93742	-0.955294	0	
0.8607	2.94488	-1.55235	0	
0.8613	3.25486	-0.636863	0	
0.8620	3.849	0.577157	0	
0.8627	5.68309	2.40814	0	
0.8633	5.06312	2.10961	0	
0.8640	6.30307	0.278627	0	
0.8647	8.13715	0.577157	0	
0.8653	6.61305	1.49265	0	
0.8660	6.30307	1.49265	0	
0.8667	7.51718	0.875686	0	
0.8673	4.77896	-0.0398039	0	
0.8680	2.01491	0.278627	0	
0.8687	-0.723303	1.19412	0	
0.8693	-4.39148	-0.955294	0	
0.8700	-4.39148	-4.00029	0	
0.8707	-2.55739	-5.21431	0	
0.8713	-3.17737	-6.1298	0	
0.8720	-2.55739	-7.04529	0	
0.8727	-4.39148	-7.04529	0	
0.8733	-11.702	-6.1298	0	
0.8740	-15.9902	-4.29882	0	
0.8747	-15.3702	-4.29882	0	
0.8753	-15.3702	-6.1298	0	
0.8760	-15.3702	-5.21431	0	
0.8767	-13.8461	-4.00029	0	
0.8773	-11.702	-7.04529	0	
0.8780	-6.81971	-9.19471	0	
0.8787	-3.17737	-4.91578	0	
0.8793	-1.93742	-1.25382	0	
0.8800	-1.34328	-1.55235	0	
0.8807	-1.34328	-2.46784	0	
0.8813	1.11079	-1.87078	0	
0.8820	4.77896	-0.338333	0	
0.8827	4.46898	-0.636863	0	
0.8833	2.94488	-2.16931	0	
0.8840	7.20719	0.278627	0	
0.8847	10.5654	3.62216	0	
0.8853	8.42131	2.10961	0	
0.8860	8.13715	0.577157	0	
0.8867	10.2554	2.10961	0	
0.8873	9.35127	2.40814	0	
0.8880	5.68309	2.10961	0	
0.8887	2.94488	1.79118	0	
0.8893	1.11079	-0.338333	0	
0.8900	-0.723303	-0.338333	0	
0.8907	-1.34328	-0.636863	0	
0.8913	-4.70147	-4.00029	0	
0.8920	-10.4879	-4.29882	0	
0.8927	-12.322	-1.25382	0	
0.8933	-10.7979	-4.00029	0	
0.8940	-12.012	-6.44823	0	
0.8947	-12.322	-4.29882	0	
0.8953	-9.58376	-3.70176	0	
0.8960	-6.81971	-5.21431	0	
0.8967	-4.39148	-4.00029	0	
0.8973	-2.2474	-4.00029	0	
0.8980	-0.723303	-5.21431	0	
0.8987	4.77896	-1.87078	0	
0.8993	12.3995	2.10961	0	
0.9000	11.1854	0.278627	0	
0.9007	4.15899	-0.636863	0	
0.9013	1.11079	0.875686	0	
0.9020	2.3249	-1.25382	0	
0.9027	5.06312	-2.46784	0	
0.9033	8.7313	2.10961	0	
0.9040	9.94541	3.94059	0	
0.9047	8.42131	0.577157	0	
0.9053	6.89721	-0.338333	0	
0.9060	5.68309	1.19412	0	
0.9067	5.37311	1.19412	0	
0.9073	5.68309	2.40814	0	
0.9080	3.849	2.70667	0	
0.9087	1.11079	1.19412	0	
0.9093	-0.723303	2.10961	0	
0.9100	-2.55739	1.19412	0	
0.9107	-3.46152	-2.46784	0	
0.9113	-1.34328	-2.16931	0	
0.9120	-1.03329	0.875686	0	
0.9127	-4.39148	-0.636863	0	
0.9133	-6.50972	-4.00029	0	
0.9140	-5.6056	-4.29882	0	
0.9147	-5.6056	-3.38333	0	
0.9153	-6.50972	-3.70176	0	
0.9160	-4.98562	-4.29882	0	
0.9167	-1.62743	-3.70176	0	
0.9173	-0.103329	-0.636863	0	
0.9180	-1.03329	1.49265	0	
0.9187	0.180826	2.10961	0	
0.9193	2.94488	1.19412	0	
0.9200	2.63489	1.19412	0	
0.9207	1.42077	3.94059	0	
0.9213	6.30307	5.77157	0	
0.9220	12.3995	5.77157	0	
0.9227	13.6136	6.36863	0	
0.9233	13.0194	8.19961	0	
0.9240	11.1854	6.68706	0	
0.9247	5.99308	3.94059	0	
0.9253	3.849	3.0251	0	
0.9260	5.68309	3.0251	0	
0.9267	3.849	4.53765	0	
0.9273	1.11079	4.85608	0	
0.9280	2.01491	1.19412	0	
0.9287	2.01491	-1.25382	0	
0.9293	-0.723303	0.278627	0	
0.9300	-2.55739	1.19412	0	
0.9307	-3.17737	-0.0398039	0	
0.9313	-4.08149	-1.55235	0	
0.9320	-5.91558	-4.29882	0	
0.9327	-7.1297	-5.21431	0	
0.9333	-7.43968	-2.46784	0	
0.9340	-8.05966	-3.38333	0	
0.9347	-8.96379	-6.74676	0	
0.9353	-7.43968	-4.91578	0	
0.9360	-7.1297	-1.87078	0	
0.9367	-10.4879	-3.38333	0	
0.9373	-12.322	-2.46784	0	
0.9380	-10.1779	2.10961	0	
0.9387	-5.29561	3.0251	0	
0.9393	0.180826	-0.338333	0	
0.9400	0.490813	-2.46784	0	
0.9407	-1.34328	-1.55235	0	
0.9413	0.180826	1.19412	0	
0.9420	3.25486	2.10961	0	
0.9427	5.37311	1.19412	0	
0.9433	6.61305	2.10961	0	
0.9440	5.99308	2.40814	0	
0.9447	6.30307	-0.0398039	0	
0.9453	8.7313	-0.338333	0	
0.9460	7.51718	0.875686	0	
0.9467	3.25486	-0.636863	0	
0.9473	3.849	-2.46784	0	
0.9480	3.849	-0.955294	0	
0.9487	1.11079	-1.25382	0	
0.9493	-0.103329	-4.00029	0	
0.9500	-1.03329	-4.29882	0	
0.9507	-1.34328	-3.38333	0	
0.9513	-0.723303	-6.1298	0	
0.9520	-4.08149	-8.27922	0	
0.9527	-8.34381	-6.1298	0	
0.9533	-6.81971	-3.38333	0	
0.9540	-6.22557	-4.00029	0	
0.9547	-8.96379	-4.29882	0	
0.9553	-8.34381	-3.0848	0	
0.9560	-6.22557	-3.0848	0	
0.9567	-5.91558	-4.61725	0	
0.9573	-4.39148	-4.29882	0	
0.9580	-0.723303	-1.55235	0	
0.9587	2.94488	-0.636863	0	
0.9593	5.99308	0.875686	0	
0.9600	8.42131	1.79118	0	
0.9607	13.0194	0.875686	0	
0.9613	19.4258	1.79118	0	
0.9620	19.1159	5.77157	0	
0.9627	15.7577	7.60255	0	
0.9633	18.4959	6.68706	0	
0.9640	21.5441	6.0701	0	
0.9647	19.1159	6.0701	0	
0.9653	16.3776	6.36863	0	
0.9660	14.8535	5.45314	0	
0.9667	11.7795	2.10961	0	
0.9673	8.7313	0.278627	0	
0.9680	8.13715	2.10961	0	
0.9687	5.99308	3.0251	0	
0.9693	2.3249	1.19412	0	
0.9700	1.73076	0.577157	0	
0.9707	1.11079	1.79118	0	
0.9713	-3.77151	1.79118	0	
0.9720	-6.50972	-0.338333	0	
0.9727	-3.17737	-3.0848	0	
0.9733	-1.62743	-4.29882	0	
0.9740	-2.55739	-4.29882	0	
0.9747	-0.723303	-2.16931	0	
0.9753	-1.62743	-1.87078	0	
0.9760	-4.08149	-3.0848	0	
0.9767	-1.62743	-1.55235	0	
0.9773	1.11079	0.278627	0	
0.9780	0.180826	-2.16931	0	
0.9787	1.11079	-2.46784	0	
0.9793	4.77896	1.79118	0	
0.9800	6.61305	1.49265	0	
0.9807	7.20719	-1.55235	0	
0.9813	5.68309	-0.636863	0	
0.9820	5.68309	1.19412	0	
0.9827	9.35127	0.278627	0	
0.9833	11.1854	-0.0398039	0	
0.9840	10.2554	0.577157	0	
0.9847	9.35127	0.278627	0	
0.9853	7.82717	-1.25382	0	
0.9860	8.13715	-2.16931	0	
0.9867	9.94541	-1.55235	0	
0.9873	8.42131	-2.46784	0	
0.9880	3.25486	-4.00029	0	
0.9887	0.800799	-1.55235	0	
0.9893	1.11079	0.278627	0	
0.9900	1.73076	0.278627	0	
0.9907	1.11079	2.10961	0	
0.9913	-2.86738	2.40814	0	
0.9920	-6.81971	-1.25382	0	
0.9927	-8.96379	-1.55235	0	
0.9933	-10.4879	0.278627	0	
0.9940	-10.4879	-1.25382	0	
0.9947	-9.86791	-2.46784	0	
0.9953	-10.7979	-1.87078	0	
0.9960	-9.27377	-2.78627	0	
0.9967	-5.91558	-3.38333	0	
0.9973	-6.22557	-2.46784	0	
0.9980	-10.7979	-2.46784	0	
0.9987	-14.4661	-3.38333	0	
0.9993	-14.4661	-4.00029	0	
1.0000	-10.4879	-2.46784	0	
1.0007	-5.29561	-1.55235	0	
1.0013	-1.03329	-2.16931	0	
1.0020	1.42077	-1.55235	0	
1.0027	1.11079	0.278627	0	
1.0033	-2.2474	1.19412	0	
1.0040	-3.17737	0.577157	0	
1.0047	1.11079	0.577157	0	
1.0053	2.01491	2.10961	0	
1.0060	-1.34328	2.10961	0	
1.0067	-3.46152	-1.25382	0	
1.0073	-2.86738	-1.55235	0	
1.0080	-1.93742	2.40814	0	
1.0087	-2.55739	2.10961	0	
1.0093	-3.77151	-2.46784	0	
1.0100	-5.29561	-1.87078	0	
1.0107	-6.50972	0.278627	0	
1.0113	-10.7979	-2.46784	0	
1.0120	-18.1084	-4.29882	0	
1.0127	-21.1824	-3.38333	0	
1.0133	-17.2043	-3.0848	0	
1.0140	-15.0602	-2.78627	0	
1.0147	-15.6802	-1.55235	0	
1.0153	-14.4661	-2.16931	0	
1.0160	-13.8461	-4.29882	0	
1.0167	-15.0602	-5.83127	0	
1.0173	-11.1079	-5.83127	0	
1.0180	-6.22557	-4.29882	0	
1.0187	-8.34381	-1.55235	0	
1.0193	-10.4879	-1.55235	0	
1.0200	-4.08149	-3.38333	0	
1.0207	2.3249	-3.0848	0	
1.0213	4.15899	-1.25382	0	
1.0220	6.30307	-0.636863	0	
1.0227	9.04128	0.278627	0	
1.0233	9.04128	1.79118	0	
1.0240	6.61305	0.577157	0	
1.0247	5.37311	-2.16931	0	
1.0253	3.849	-0.955294	0	
1.0260	2.3249	3.0251	0	
1.0267	3.25486	3.94059	0	
1.0273	4.46898	1.19412	0	
1.0280	3.53902	0.278627	0	
1.0287	1.73076	2.10961	0	
1.0293	-1.03329	1.19412	0	
1.0300	-6.22557	-1.25382	0	
1.0307	-8.05966	-1.87078	0	
1.0313	-5.29561	-3.70176	0	
1.0320	-4.70147	-8.27922	0	
1.0327	-6.50972	-7.96078	0	
1.0333	-5.6056	-3.38333	0	
1.0340	-4.70147	-2.78627	0	
1.0347	-6.22557	-3.0848	0	
1.0353	-3.46152	-0.955294	0	
1.0360	2.3249	-1.55235	0	
1.0367	2.94488	-1.55235	0	
1.0373	3.25486	0.278627	0	
1.0380	5.99308	-0.636863	0	
1.0387	5.99308	-1.25382	0	
1.0393	4.77896	0.278627	0	
1.0400	5.68309	-0.955294	0	
1.0407	7.20719	-1.25382	0	
1.0413	8.7313	2.70667	0	
1.0420	10.2554	2.10961	0	
1.0427	8.42131	-0.636863	0	
1.0433	8.42131	1.49265	0	
1.0440	9.35127	3.0251	0	
1.0447	7.51718	1.79118	0	
1.0453	7.20719	3.0251	0	
1.0460	10.2554	3.0251	0	
1.0467	8.7313	1.79118	0	
1.0473	5.37311	2.40814	0	
1.0480	6.61305	2.40814	0	
1.0487	5.37311	0.278627	0	
1.0493	-1.03329	-0.636863	0	
1.0500	-5.29561	-0.636863	0	
1.0507	-4.98562	-1.55235	0	
1.0513	-5.29561	-2.46784	0	
1.0520	-6.81971	-4.00029	0	
1.0527	-3.77151	-2.46784	0	
1.0533	1.11079	0.278627	0	
1.0540	-0.413316	-0.636863	0	
1.0547	-5.91558	-3.38333	0	
1.0553	-6.81971	-3.0848	0	
1.0560	-4.39148	-1.87078	0	
1.0567	-3.17737	-2.16931	0	
1.0573	0.180826	-2.46784	0	
1.0580	2.01491	-1.55235	0	
1.0587	-2.2474	0.875686	0	
1.0593	-4.98562	1.19412	0	
1.0600	0.490813	-0.955294	0	
1.0607	5.99308	-0.338333	0	
1.0613	5.68309	2.10961	0	
1.0620	2.63489	1.49265	0	
1.0627	2.01491	1.19412	0	
1.0633	4.46898	3.0251	0	
1.0640	9.04128	3.62216	0	
1.0647	12.0895	2.10961	0	
1.0653	10.5654	-0.338333	0	
1.0660	9.04128	0.875686	0	
1.0667	9.35127	3.94059	0	
1.0673	7.82717	3.0251	0	
1.0680	4.77896	2.10961	0	
1.0687	2.01491	4.53765	0	
1.0693	1.11079	2.40814	0	
1.0700	1.11079	-4.00029	0	
1.0707	-1.34328	-4.29882	0	
1.0713	-5.6056	-2.16931	0	
1.0720	-6.22557	-5.21431	0	
1.0727	-2.86738	-6.1298	0	
1.0733	-4.08149	-4.29882	0	
1.0740	-8.05966	-4.29882	0	
1.0747	-8.34381	-4.29882	0	
1.0753	-8.96379	-3.70176	0	
1.0760	-11.1079	-5.21431	0	
1.0767	-7.74967	-5.21431	0	
1.0773	-1.62743	-3.0848	0	
1.0780	-1.62743	-1.87078	0	
1.0787	-4.39148	-0.338333	0	
1.0793	-1.62743	0.577157	0	
1.0800	2.01491	-1.55235	0	
1.0807	3.849	-3.38333	0	
1.0813	5.06312	-2.78627	0	
1.0820	7.20719	-1.55235	0	
1.0827	10.8754	0.278627	0	
1.0833	13.0194	1.79118	0	
1.0840	10.2554	1.49265	0	
1.0847	8.7313	2.10961	0	
1.0853	11.7795	3.94059	0	
1.0860	10.5654	4.23912	0	
1.0867	5.06312	2.10961	0	
1.0873	4.46898	0.278627	0	
1.0880	5.68309	1.19412	0	
1.0887	2.01491	2.40814	0	
1.0893	-0.723303	-0.0398039	0	
1.0900	1.73076	-0.955294	0	
1.0907	2.94488	0.875686	0	
1.0913	-2.55739	0.278627	0	
1.0920	-8.6538	-0.636863	0	
1.0927	-10.1779	0.278627	0	
1.0933	-12.632	-1.55235	0	
1.0940	-16.2743	-4.29882	0	
1.0947	-14.7502	-3.38333	0	
1.0953	-10.7979	-2.46784	0	
1.0960	-10.7979	-4.29882	0	
1.0967	-11.392	-6.1298	0	
1.0973	-10.4879	-4.61725	0	
1.0980	-10.7979	-1.55235	0	
1.0987	-10.4879	-0.338333	0	
1.0993	-5.29561	-2.78627	0	
1.1000	0.180826	-2.78627	0	
1.1007	2.01491	0.278627	0	
1.1013	1.42077	0.577157	0	
1.1020	1.11079	0.278627	0	
1.1027	0.490813	2.40814	0	
1.1033	1.11079	5.15461	0	
1.1040	3.849	5.77157	0	
1.1047	5.68309	5.45314	0	
1.1053	4.15899	5.45314	0	
1.1060	1.73076	3.62216	0	
1.1067	2.94488	0.875686	0	
1.1073	6.61305	-0.636863	0	
1.1080	6.30307	-0.636863	0	
1.1087	2.01491	-1.25382	0	
1.1093	0.180826	-0.636863	0	
1.1100	-1.93742	1.19412	0	
1.1107	-7.43968	-0.636863	0	
1.1113	-11.702	-3.70176	0	
1.1120	-10.7979	-2.46784	0	
1.1127	-12.632	-2.46784	0	
1.1133	-16.2743	-5.53274	0	
1.1140	-15.3702	-5.21431	0	
1.1147	-11.702	-3.0848	0	
1.1153	-12.322	-5.83127	0	
1.1160	-14.1561	-7.36372	0	
1.1167	-12.012	-3.70176	0	
1.1173	-7.1297	-2.46784	0	
1.1180	-2.2474	-3.38333	0	
1.1187	1.11079	-2.46784	0	
1.1193	1.11079	-3.0848	0	
1.1200	-2.55739	-3.38333	0	
1.1207	-3.17737	-1.55235	0	
1.1213	1.11079	-0.636863	0	
1.1220	3.25486	0.278627	0	
1.1227	3.53902	2.10961	0	
1.1233	6.30307	0.577157	0	
1.1240	6.61305	-0.0398039	0	
1.1247	3.53902	2.10961	0	
1.1253	3.849	2.10961	0	
1.1260	6.30307	1.49265	0	
1.1267	5.68309	2.10961	0	
1.1273	4.46898	0.875686	0	
1.1280	4.15899	-0.338333	0	
1.1287	4.15899	-0.0398039	0	
1.1293	2.94488	-1.25382	0	
1.1300	-1.62743	-2.46784	0	
1.1307	-4.39148	-1.55235	0	
1.1313	0.180826	-0.636863	0	
1.1320	-0.103329	-1.25382	0	
1.1327	-8.05966	-1.87078	0	
1.1333	-10.7979	-2.16931	0	
1.1340	-8.96379	-1.55235	0	
1.1347	-9.86791	-2.16931	0	
1.1353	-9.27377	-4.29882	0	
1.1360	-6.22557	-4.29882	0	
1.1367	-7.1297	-3.0848	0	
1.1373	-6.50972	-1.55235	0	
1.1380	-1.03329	0.278627	0	
1.1387	3.25486	0.278627	0	
1.1393	3.849	-1.55235	0	
1.1400	3.25486	-1.55235	0	
1.1407	3.25486	-0.636863	0	
1.1413	5.06312	0.577157	0	
1.1420	6.89721	2.40814	0	
1.1427	5.68309	2.10961	0	
1.1433	3.849	-0.338333	0	
1.1440	5.68309	1.19412	0	
1.1447	10.2554	3.94059	0	
1.1453	12.0895	2.70667	0	
1.1460	8.42131	2.10961	0	
1.1467	5.37311	4.85608	0	
1.1473	3.849	5.15461	0	
1.1480	1.11079	3.0251	0	
1.1487	-0.723303	2.70667	0	
1.1493	0.180826	1.79118	0	
1.1500	-1.62743	0.278627	0	
1.1507	-4.39148	1.79118	0	
1.1513	-3.46152	3.32363	0	
1.1520	-6.22557	1.49265	0	
1.1527	-8.96379	-0.0398039	0	
1.1533	-7.1297	1.49265	0	
1.1540	-6.22557	2.40814	0	
1.1547	-7.74967	0.577157	0	
1.1553	-5.91558	-2.16931	0	
1.1560	-5.91558	-3.0848	0	
1.1567	-8.34381	-1.25382	0	
1.1573	-5.6056	1.19412	0	
1.1580	-1.93742	1.19412	0	
1.1587	-3.17737	-0.636863	0	
1.1593	-1.62743	-0.636863	0	
1.1600	3.25486	0.875686	0	
1.1607	5.99308	2.40814	0	
1.1613	8.7313	2.40814	0	
1.1620	13.9236	1.19412	0	
1.1627	15.4477	2.40814	0	
1.1633	12.7095	5.77157	0	
1.1640	9.94541	5.77157	0	
1.1647	8.13715	2.10961	0	
1.1653	6.61305	1.49265	0	
1.1660	6.30307	3.62216	0	
1.1667	7.82717	3.32363	0	
1.1673	7.82717	1.49265	0	
1.1680	3.849	1.49265	0	
1.1687	0.490813	1.19412	0	
1.1693	2.01491	-1.25382	0	
1.1700	2.94488	-3.70176	0	
1.1707	0.490813	-3.0848	0	
1.1713	0.490813	-1.87078	0	
1.1720	2.3249	-3.0848	0	
1.1727	2.01491	-3.38333	0	
1.1733	0.180826	-0.955294	0	
1.1740	-1.62743	-0.955294	0	
1.1747	-4.39148	-3.0848	0	
1.1753	-4.39148	-1.87078	0	
1.1760	-4.39148	0.278627	0	
1.1767	-5.29561	-2.46784	0	
1.1773	-2.86738	-5.21431	0	
1.1780	0.490813	-4.29882	0	
1.1787	-1.93742	-2.78627	0	
1.1793	-2.55739	-3.38333	0	
1.1800	2.94488	-3.0848	0	
1.1807	6.61305	-0.955294	0	
1.1813	7.20719	-3.0848	0	
1.1820	12.0895	-5.21431	0	
1.1827	15.1377	-2.46784	0	
1.1833	12.0895	0.577157	0	
1.1840	9.66126	-0.636863	0	
1.1847	9.04128	-1.25382	0	
1.1853	9.35127	-0.0398039	0	
1.1860	12.0895	-1.25382	0	
1.1867	13.0194	-2.46784	0	
1.1873	6.61305	-1.87078	0	
1.1880	2.01491	-1.25382	0	
1.1887	3.53902	0.577157	0	
1.1893	2.94488	0.278627	0	
1.1900	-1.62743	-3.0848	0	
1.1907	-4.39148	-4.00029	0	
1.1913	-6.22557	-3.70176	0	
1.1920	-9.27377	-4.91578	0	
1.1927	-9.86791	-4.29882	0	
1.1933	-6.81971	-4.00029	0	
1.1940	-5.6056	-5.83127	0	
1.1947	-6.22557	-4.91578	0	
1.1953	-7.1297	-1.55235	0	
1.1960	-7.74967	-1.55235	0	
1.1967	-5.91558	-2.16931	0	
1.1973	-1.03329	-2.78627	0	
1.1980	1.42077	-4.91578	0	
1.1987	1.42077	-4.00029	0	
1.1993	2.94488	-0.0398039	0	
1.2000	3.53902	0.278627	0	
1.2007	3.849	-1.55235	0	
1.2013	5.99308	-1.25382	0	
1.2020	6.61305	0.875686	0	
1.2027	4.77896	1.79118	0	
1.2033	6.61305	1.19412	0	
1.2040	11.1854	0.278627	0	
1.2047	10.2554	0.875686	0	
1.2053	5.68309	1.19412	0	
1.2060	3.25486	0.875686	0	
1.2067	3.25486	0.875686	0	
1.2073	3.849	0.278627	0	
1.2080	4.77896	0.875686	0	
1.2087	3.849	0.875686	0	
1.2093	1.73076	-1.55235	0	
1.2100	0.180826	-2.78627	0	
1.2107	-2.86738	-1.25382	0	
1.2113	-6.22557	-1.25382	0	
1.2120	-8.05966	-1.55235	0	
1.2127	-8.96379	-0.636863	0	
1.2133	-9.86791	-3.38333	0	
1.2140	-8.96379	-4.29882	0	
1.2147	-8.34381	-2.78627	0	
1.2153	-8.96379	-5.21431	0	
1.2160	-11.702	-6.74676	0	
1.2167	-13.5361	-1.55235	0	
1.2173	-10.7979	-1.55235	0	
1.2180	-6.22557	-7.36372	0	
1.2187	-5.6056	-4.91578	0	
1.2193	-6.22557	-0.636863	0	
1.2200	-4.39148	-1.87078	0	
1.2207	-2.55739	-1.55235	0	
1.2213	-0.723303	-0.636863	0	
1.2220	2.01491	-3.38333	0	
1.2227	2.94488	-5.53274	0	
1.2233	2.94488	-5.53274	0	
1.2240	3.53902	-6.44823	0	
1.2247	1.11079	-8.87627	0	
1.2253	0.180826	-11.0257	0	
1.2260	2.94488	-11.0257	0	
1.2267	2.01491	-8.87627	0	
1.2273	-3.17737	-9.19471	0	
1.2280	-3.17737	-13.4537	0	
1.2287	-0.723303	-15.2847	0	
1.2293	-4.08149	-15.9017	0	
1.2300	-8.34381	-18.9467	0	
1.2307	-9.58376	-20.7776	0	
1.2313	-9.27377	-20.1806	0	
1.2320	-11.392	-22.9271	0	
1.2327	-14.7502	-26.2706	0	
1.2333	-16.2743	-24.4396	0	
1.2340	-14.4661	-21.6931	0	
1.2347	-11.702	-23.2256	0	
1.2353	-11.392	-24.4396	0	
1.2360	-11.702	-24.4396	0	
1.2367	-10.7979	-25.3551	0	
1.2373	-8.34381	-23.8425	0	
1.2380	-3.46152	-20.4791	0	
1.2387	0.180826	-20.7776	0	
1.2393	1.11079	-23.5241	0	
1.2400	2.63489	-22.6086	0	
1.2407	7.20719	-20.1806	0	
1.2413	8.42131	-18.9467	0	
1.2420	5.99308	-18.6481	0	
1.2427	9.66126	-18.3496	0	
1.2433	16.6618	-16.5186	0	
1.2440	15.4477	-14.3692	0	
1.2447	10.2554	-15.2847	0	
1.2453	11.1854	-15.6031	0	
1.2460	14.5435	-13.1552	0	
1.2467	14.8535	-12.5382	0	
1.2473	13.6136	-14.9862	0	
1.2480	10.2554	-15.2847	0	
1.2487	6.89721	-14.6876	0	
1.2493	7.51718	-14.3692	0	
1.2500	6.30307	-13.4537	0	
1.2507	-0.103329	-12.5382	0	
1.2513	-6.22557	-11.6227	0	
1.2520	-7.74967	-9.19471	0	
1.2527	-5.29561	-9.19471	0	
1.2533	-2.86738	-11.6227	0	
1.2540	-3.77151	-11.9412	0	
1.2547	-7.43968	-11.6227	0	
1.2553	-8.96379	-10.4087	0	
1.2560	-7.1297	-7.04529	0	
1.2567	-5.29561	-4.29882	0	
1.2573	-5.29561	-4.00029	0	
1.2580	-6.22557	-3.70176	0	
1.2587	-3.46152	-3.38333	0	
1.2593	1.11079	-2.16931	0	
1.2600	2.3249	-0.636863	0	
1.2607	2.3249	-0.636863	0	
1.2613	3.53902	0.875686	0	
1.2620	4.77896	3.62216	0	
1.2627	5.99308	3.94059	0	
1.2633	6.30307	2.70667	0	
1.2640	5.68309	3.0251	0	
1.2647	5.99308	3.0251	0	
1.2653	7.51718	2.10961	0	
1.2660	9.66126	4.23912	0	
1.2667	11.1854	7.60255	0	
1.2673	5.99308	7.60255	0	
1.2680	-4.39148	7.28412	0	
1.2687	-6.50972	8.19961	0	
1.2693	-1.03329	8.51804	0	
1.2700	-1.93742	9.73206	0	
1.2707	-8.05966	11.8616	0	
1.2713	-10.1779	11.2645	0	
1.2720	-9.86791	9.73206	0	
1.2727	-8.96379	10.9461	0	
1.2733	-7.1297	12.4785	0	
1.2740	-8.96379	10.9461	0	
1.2747	-11.702	8.51804	0	
1.2753	-7.74967	8.19961	0	
1.2760	-4.39148	9.1151	0	
1.2767	-6.50972	9.73206	0	
1.2773	-5.6056	8.81657	0	
1.2780	-0.723303	9.73206	0	
1.2787	1.11079	13.394	0	
1.2793	2.94488	16.439	0	
1.2800	6.30307	16.7574	0	
1.2807	6.30307	16.439	0	
1.2813	3.849	15.5235	0	
1.2820	5.06312	15.5235	0	
1.2827	8.7313	18.5884	0	
1.2833	10.8754	21.6334	0	
1.2840	11.1854	22.8474	0	
1.2847	11.4953	22.2504	0	
1.2853	11.4953	19.8024	0	
1.2860	9.94541	17.9715	0	
1.2867	9.04128	19.5039	0	
1.2873	10.8754	19.8024	0	
1.2880	12.0895	16.7574	0	
1.2887	12.7095	15.225	0	
1.2893	12.3995	17.9715	0	
1.2900	10.2554	18.5884	0	
1.2907	6.30307	15.5235	0	
1.2913	2.63489	15.5235	0	
1.2920	-1.62743	17.9715	0	
1.2927	-5.91558	17.6729	0	
1.2933	-7.1297	15.225	0	
1.2940	-6.22557	14.9265	0	
1.2947	-4.70147	15.842	0	
1.2953	-2.55739	17.3545	0	
1.2960	0.180826	19.5039	0	
1.2967	-2.2474	17.6729	0	
1.2973	-6.50972	14.9265	0	
1.2980	-4.39148	15.842	0	
1.2987	0.800799	16.439	0	
1.2993	1.42077	16.439	0	
1.3000	2.01491	19.1855	0	
1.3007	5.06312	21.0165	0	
1.3013	6.61305	19.5039	0	
1.3020	6.89721	20.4194	0	
1.3027	9.04128	22.5489	0	
1.3033	9.66126	21.6334	0	
1.3040	8.13715	17.6729	0	
1.3047	7.51718	17.056	0	
1.3053	7.51718	21.932	0	
1.3060	6.61305	23.4644	0	
1.3067	5.06312	20.7179	0	
1.3073	3.849	20.4194	0	
1.3080	2.63489	20.7179	0	
1.3087	1.11079	17.9715	0	
1.3093	-2.86738	16.439	0	
1.3100	-8.96379	17.6729	0	
1.3107	-12.632	15.842	0	
1.3113	-12.322	12.7771	0	
1.3120	-11.702	10.6475	0	
1.3127	-13.2261	9.43353	0	
1.3133	-12.942	8.81657	0	
1.3140	-8.96379	9.43353	0	
1.3147	-6.50972	9.1151	0	
1.3153	-8.96379	7.60255	0	
1.3160	-8.34381	6.0701	0	
1.3167	-4.39148	6.36863	0	
1.3173	-6.81971	7.60255	0	
1.3180	-14.1561	5.77157	0	
1.3187	-15.0602	2.70667	0	
1.3193	-9.58376	3.62216	0	
1.3200	-3.46152	5.77157	0	
1.3207	2.01491	5.45314	0	
1.3213	4.77896	4.53765	0	
1.3220	3.53902	4.85608	0	
1.3227	2.3249	6.0701	0	
1.3233	1.73076	6.98559	0	
1.3240	1.11079	4.85608	0	
1.3247	2.63489	3.32363	0	
1.3253	3.25486	4.85608	0	
1.3260	0.490813	4.53765	0	
1.3267	0.180826	3.0251	0	
1.3273	2.94488	5.45314	0	
1.3280	3.53902	5.15461	0	
1.3287	2.01491	2.10961	0	
1.3293	0.180826	2.70667	0	
1.3300	-4.08149	4.85608	0	
1.3307	-6.22557	3.0251	0	
1.3313	-5.91558	1.19412	0	
1.3320	-9.27377	0.278627	0	
1.3327	-12.942	-1.25382	0	
1.3333	-12.322	-1.25382	0	
1.3340	-12.322	-1.87078	0	
1.3347	-13.8461	-3.38333	0	
1.3353	-12.632	-2.46784	0	
1.3360	-10.1779	-1.55235	0	
1.3367	-8.6538	-2.16931	0	
1.3373	-7.1297	-1.55235	0	
1.3380	-6.81971	-0.636863	0	
1.3387	-4.70147	-1.55235	0	
1.3393	-1.34328	-3.70176	0	
1.3400	0.180826	-4.29882	0	
1.3407	-0.103329	-1.55235	0	
1.3413	2.63489	1.79118	0	
1.3420	5.06312	0.577157	0	
1.3427	4.46898	-0.636863	0	
1.3433	4.77896	2.70667	0	
1.3440	7.51718	3.32363	0	
1.3447	6.89721	0.577157	0	
1.3453	6.61305	0.278627	0	
1.3460	11.1854	1.19412	0	
1.3467	14.2336	1.19412	0	
1.3473	11.1854	0.875686	0	
1.3480	8.42131	-1.25382	0	
1.3487	6.89721	-2.46784	0	
1.3493	-0.103329	-2.16931	0	
1.3500	-5.29561	-4.00029	0	
1.3507	-2.86738	-5.83127	0	
1.3513	-1.03329	-4.29882	0	
1.3520	-1.62743	-2.78627	0	
1.3527	-1.93742	-2.78627	0	
1.3533	-3.77151	-3.70176	0	
1.3540	-3.46152	-5.83127	0	
1.3547	-2.55739	-5.83127	0	
1.3553	-9.27377	-3.38333	0	
1.3560	-13.5361	-3.38333	0	
1.3567	-6.81971	-5.83127	0	
1.3573	-0.723303	-5.21431	0	
1.3580	1.73076	-4.00029	0	
1.3587	5.37311	-5.53274	0	
1.3593	5.37311	-6.1298	0	
1.3600	3.849	-4.29882	0	
1.3607	7.51718	-3.38333	0	
1.3613	9.35127	-1.87078	0	
1.3620	6.30307	-0.636863	0	
1.3627	5.99308	-1.55235	0	
1.3633	9.35127	-4.61725	0	
1.3640	10.2554	-4.29882	0	
1.3647	8.7313	-0.338333	0	
1.3653	6.61305	1.19412	0	
1.3660	5.68309	-2.16931	0	
1.3667	6.61305	-3.0848	0	
1.3673	7.20719	-0.636863	0	
1.3680	6.89721	-0.338333	0	
1.3687	5.99308	-2.78627	0	
1.3693	2.94488	-5.53274	0	
1.3700	-1.93742	-6.1298	0	
1.3707	-6.22557	-4.29882	0	
1.3713	-5.29561	-4.29882	0	
1.3720	-1.62743	-7.04529	0	
1.3727	-1.34328	-5.53274	0	
1.3733	-4.08149	-1.55235	0	
1.3740	-6.50972	-3.38333	0	
1.3747	-9.58376	-7.04529	0	
1.3753	-10.4879	-6.1298	0	
1.3760	-7.74967	-4.29882	0	
1.3767	-7.1297	-6.74676	0	
1.3773	-10.4879	-10.1102	0	
1.3780	-10.7979	-9.79176	0	
1.3787	-5.29561	-5.83127	0	
1.3793	0.490813	-3.38333	0	
1.3800	2.63489	-4.29882	0	
1.3807	2.94488	-5.21431	0	
1.3813	5.68309	-4.29882	0	
1.3820	9.94541	-4.00029	0	
1.3827	10.2554	-4.29882	0	
1.3833	8.13715	-3.0848	0	
1.3840	10.5654	-1.87078	0	
1.3847	13.9236	-2.16931	0	
1.3853	13.0194	-0.955294	0	
1.3860	12.0895	-0.0398039	0	
1.3867	13.3036	-1.55235	0	
1.3873	12.7095	-1.87078	0	
1.3880	8.7313	-0.636863	0	
1.3887	4.46898	-0.955294	0	
1.3893	1.73076	-2.16931	0	
1.3900	1.11079	-1.87078	0	
1.3907	1.11079	-2.46784	0	
1.3913	1.11079	-4.29882	0	
1.3920	-0.723303	-4.29882	0	
1.3927	-2.55739	-6.1298	0	
1.3933	-2.86738	-9.49323	0	
1.3940	-5.29561	-8.27922	0	
1.3947	-8.34381	-6.1298	0	
1.3953	-7.1297	-7.66225	0	
1.3960	-4.39148	-7.96078	0	
1.3967	-4.98562	-5.21431	0	
1.3973	-6.22557	-5.21431	0	
1.3980	-4.39148	-6.44823	0	
1.3987	-1.03329	-5.83127	0	
1.3993	1.11079	-4.61725	0	
1.4000	2.63489	-3.70176	0	
1.4007	5.37311	-1.55235	0	
1.4013	9.66126	-0.0398039	0	
1.4020	13.9236	-0.0398039	0	
1.4027	15.7577	2.10961	0	
1.4033	14.8535	3.94059	0	
1.4040	13.6136	2.10961	0	
1.4047	14.8535	-0.636863	0	
1.4053	13.6136	0.577157	0	
1.4060	6.30307	0.577157	0	
1.4067	1.11079	-2.16931	0	
1.4073	2.01491	-1.55235	0	
1.4080	1.11079	-0.636863	0	
1.4087	-2.55739	-4.61725	0	
1.4093	-4.98562	-6.74676	0	
1.4100	-6.22557	-4.61725	0	
1.4107	-7.74967	-5.21431	0	
1.4113	-8.96379	-7.96078	0	
1.4120	-11.1079	-7.04529	0	
1.4127	-12.632	-5.83127	0	
1.4133	-11.702	-5.83127	0	
1.4140	-11.702	-5.53274	0	
1.4147	-12.632	-6.44823	0	
1.4153	-13.5361	-7.66225	0	
1.4160	-14.4661	-7.04529	0	
1.4167	-12.942	-6.44823	0	
1.4173	-8.05966	-6.1298	0	
1.4180	-5.6056	-4.29882	0	
1.4187	-6.22557	-3.38333	0	
1.4193	-5.6056	-1.55235	0	
1.4200	-5.6056	-0.338333	0	
1.4207	-9.27377	-1.55235	0	
1.4213	-10.4879	-0.955294	0	
1.4220	-6.22557	2.40814	0	
1.4227	-1.34328	4.53765	0	
1.4233	0.800799	4.85608	0	
1.4240	1.11079	4.85608	0	
1.4247	-0.103329	3.0251	0	
1.4253	-0.103329	2.10961	0	
1.4260	2.94488	3.0251	0	
1.4267	5.68309	3.94059	0	
1.4273	4.46898	3.94059	0	
1.4280	2.01491	3.94059	0	
1.4287	0.490813	2.10961	0	
1.4293	-0.413316	1.19412	0	
1.4300	-1.34328	3.0251	0	
1.4307	-3.17737	3.62216	0	
1.4313	-5.6056	2.70667	0	
1.4320	-8.05966	1.49265	0	
1.4327	-10.7979	-1.55235	0	
1.4333	-13.8461	-2.46784	0	
1.4340	-14.4661	-0.0398039	0	
1.4347	-15.0602	-0.636863	0	
1.4353	-14.4661	-3.70176	0	
1.4360	-10.7979	-2.46784	0	
1.4367	-8.05966	-1.55235	0	
1.4373	-8.96379	-4.29882	0	
1.4380	-9.27377	-4.00029	0	
1.4387	-6.81971	-0.636863	0	
1.4393	-4.39148	0.278627	0	
1.4400	-3.77151	-0.0398039	0	
1.4407	-1.93742	0.875686	0	
1.4413	0.490813	-0.0398039	0	
1.4420	-0.103329	-1.55235	0	
1.4427	-2.86738	1.49265	0	
1.4433	-1.62743	4.53765	0	
1.4440	1.11079	3.94059	0	
1.4447	0.800799	3.0251	0	
1.4453	2.01491	2.10961	0	
1.4460	6.61305	2.10961	0	
1.4467	6.61305	4.23912	0	
1.4473	2.01491	5.77157	0	
1.4480	-0.413316	2.40814	0	
1.4487	-1.62743	-0.338333	0	
1.4493	-1.93742	0.278627	0	
1.4500	-0.103329	-0.636863	0	
1.4507	1.11079	-2.16931	0	
1.4513	1.42077	-2.46784	0	
1.4520	-0.723303	-2.46784	0	
1.4527	-9.86791	-2.46784	0	
1.4533	-12.942	-2.46784	0	
1.4540	-5.29561	-3.70176	0	
1.4547	-3.17737	-5.53274	0	
1.4553	-9.27377	-7.04529	0	
1.4560	-8.05966	-5.83127	0	
1.4567	-3.46152	-3.70176	0	
1.4573	-2.55739	-2.78627	0	
1.4580	0.490813	-2.16931	0	
1.4587	4.77896	-1.87078	0	
1.4593	2.94488	-2.46784	0	
1.4600	2.94488	-1.55235	0	
1.4607	8.13715	-0.0398039	0	
1.4613	9.04128	-1.25382	0	
1.4620	6.30307	-1.55235	0	
1.4627	6.61305	0.577157	0	
1.4633	8.13715	-0.0398039	0	
1.4640	7.82717	-0.636863	0	
1.4647	9.04128	2.10961	0	
1.4653	11.1854	1.49265	0	
1.4660	12.0895	-1.87078	0	
1.4667	11.4953	0.278627	0	
1.4673	9.94541	3.94059	0	
1.4680	9.66126	1.79118	0	
1.4687	9.35127	0.577157	0	
1.4693	4.77896	2.10961	0	
1.4700	-0.103329	0.577157	0	
1.4707	-0.723303	-2.46784	0	
1.4713	0.800799	-1.25382	0	
1.4720	0.490813	-0.338333	0	
1.4727	-0.103329	-2.46784	0	
1.4733	-0.413316	-5.21431	0	
1.4740	-0.413316	-4.91578	0	
1.4747	-1.62743	-1.55235	0	
1.4753	-6.50972	0.278627	0	
1.4760	-10.4879	-3.38333	0	
1.4767	-7.1297	-5.53274	0	
1.4773	-3.46152	-2.46784	0	
1.4780	-4.39148	-0.0398039	0	
1.4787	-3.46152	-1.55235	0	
1.4793	1.73076	-2.78627	0	
1.4800	3.849	-2.46784	0	
1.4807	5.06312	-2.46784	0	
1.4813	11.4953	-2.78627	0	
1.4820	15.7577	-1.25382	0	
1.4827	11.1854	1.19412	0	
1.4833	8.42131	1.79118	0	
1.4840	9.35127	0.278627	0	
1.4847	7.51718	-1.25382	0	
1.4853	7.51718	-1.55235	0	
1.4860	11.1854	-2.46784	0	
1.4867	11.1854	-1.55235	0	
1.4873	7.20719	0.278627	0	
1.4880	7.51718	1.19412	0	
1.4887	6.61305	-0.0398039	0	
1.4893	1.42077	-2.46784	0	
1.4900	0.800799	-4.29882	0	
1.4907	2.01491	-4.91578	0	
1.4913	-0.723303	-2.46784	0	
1.4920	-4.98562	-2.46784	0	
1.4927	-7.1297	-6.74676	0	
1.4933	-8.96379	-7.96078	0	
1.4940	-8.34381	-6.1298	0	
1.4947	-5.91558	-7.04529	0	
1.4953	-3.77151	-7.96078	0	
1.4960	-1.62743	-5.83127	0	
1.4967	-0.723303	-5.21431	0	
1.4973	-2.55739	-6.1298	0	
1.4980	-3.46152	-4.00029	0	
1.4987	-2.2474	-2.16931	0	
1.4993	-1.34328	-1.87078	0	
1.5000	1.11079	-0.955294	0	
1.5007	4.15899	-1.55235	0	
1.5013	3.849	-3.0848	0	
1.5020	2.94488	-1.87078	0	
1.5027	4.46898	0.278627	0	
1.5033	4.77896	1.49265	0	
1.5040	4.77896	1.79118	0	
1.5047	5.99308	0.278627	0	
1.5053	6.61305	-0.636863	0	
1.5060	7.20719	1.19412	0	
1.5067	7.82717	3.94059	0	
1.5073	5.99308	4.85608	0	
1.5080	2.94488	2.70667	0	
1.5087	0.800799	0.278627	0	
1.5093	-1.03329	0.278627	0	
1.5100	-4.39148	0.875686	0	
1.5107	-8.6538	-0.636863	0	
1.5113	-11.702	-1.55235	0	
1.5120	-11.702	-1.87078	0	
1.5127	-12.942	-5.21431	0	
1.5133	-14.4661	-7.96078	0	
1.5140	-12.632	-5.21431	0	
1.5147	-10.7979	-3.70176	0	
1.5153	-12.012	-5.53274	0	
1.5160	-15.9902	-6.74676	0	
1.5167	-18.7284	-5.21431	0	
1.5173	-17.5143	-3.38333	0	
1.5180	-14.1561	-1.55235	0	
1.5187	-11.702	-1.87078	0	
1.5193	-9.58376	-1.87078	0	
1.5200	-6.22557	0.278627	0	
1.5207	-4.39148	0.875686	0	
1.5213	-3.46152	-1.55235	0	
1.5220	-1.62743	-0.0398039	0	
1.5227	0.800799	4.53765	0	
1.5233	2.94488	5.45314	0	
1.5240	5.68309	3.62216	0	
1.5247	7.82717	3.94059	0	
1.5253	7.51718	4.53765	0	
1.5260	5.06312	3.62216	0	
1.5267	3.53902	4.23912	0	
1.5273	4.77896	4.85608	0	
1.5280	4.77896	1.79118	0	
1.5287	3.53902	-0.338333	0	
1.5293	2.3249	0.278627	0	
1.5300	1.11079	-2.46784	0	
1.5307	0.180826	-5.21431	0	
1.5313	0.490813	-2.16931	0	
1.5320	2.01491	0.875686	0	
1.5327	0.800799	-1.55235	0	
1.5333	-1.93742	-3.38333	0	
1.5340	-2.55739	-2.46784	0	
1.5347	-0.103329	-2.46784	0	
1.5353	1.11079	-4.00029	0	
1.5360	0.180826	-3.38333	0	
1.5367	-1.62743	-1.55235	0	
1.5373	-0.103329	-0.636863	0	
1.5380	1.42077	-1.55235	0	
1.5387	2.01491	-0.636863	0	
1.5393	3.849	2.10961	0	
1.5400	5.99308	1.49265	0	
1.5407	4.77896	0.577157	0	
1.5413	3.25486	1.79118	0	
1.5420	6.30307	1.19412	0	
1.5427	10.8754	1.19412	0	
1.5433	11.1854	5.15461	0	
1.5440	9.35127	5.77157	0	
1.5447	9.35127	2.40814	0	
1.5453	9.94541	3.62216	0	
1.5460	8.42131	6.0701	0	
1.5467	8.42131	4.53765	0	
1.5473	8.42131	4.23912	0	
1.5480	2.94488	5.77157	0	
1.5487	-3.46152	4.23912	0	
1.5493	-5.6056	3.0251	0	
1.5500	-5.29561	3.32363	0	
1.5507	-4.70147	1.49265	0	
1.5513	-4.70147	-0.955294	0	
1.5520	-6.22557	-1.55235	0	
1.5527	-8.05966	-1.55235	0	
1.5533	-9.27377	-1.25382	0	
1.5540	-10.7979	-1.87078	0	
1.5547	-11.392	-4.00029	0	
1.5553	-9.86791	-4.00029	0	
1.5560	-8.34381	-2.46784	0	
1.5567	-7.43968	-3.38333	0	
1.5573	-6.22557	-3.70176	0	
1.5580	-6.22557	-2.78627	0	
1.5587	-4.98562	-0.955294	0	
1.5593	-2.2474	0.875686	0	
1.5600	-1.93742	0.875686	0	
1.5607	-2.55739	-1.55235	0	
1.5613	0.180826	-2.46784	0	
1.5620	3.53902	-0.636863	0	
1.5627	3.849	2.10961	0	
1.5633	4.46898	2.10961	0	
1.5640	5.68309	1.19412	0	
1.5647	7.51718	2.10961	0	
1.5653	9.35127	3.94059	0	
1.5660	11.1854	2.70667	0	
1.5667	9.94541	2.10961	0	
1.5673	6.30307	3.94059	0	
1.5680	3.53902	2.40814	0	
1.5687	2.94488	-1.87078	0	
1.5693	2.01491	-2.46784	0	
1.5700	1.11079	-1.55235	0	
1.5707	-0.723303	-1.55235	0	
1.5713	-3.77151	0.875686	0	
1.5720	-7.1297	1.49265	0	
1.5727	-7.1297	-4.00029	0	
1.5733	-7.1297	-6.1298	0	
1.5740	-8.96379	-3.38333	0	
1.5747	-9.27377	-3.70176	0	
1.5753	-7.43968	-5.53274	0	
1.5760	-8.96379	-3.38333	0	
1.5767	-10.1779	-0.955294	0	
1.5773	-5.91558	-1.55235	0	
1.5780	-2.2474	-0.0398039	0	
1.5787	-2.86738	1.19412	0	
1.5793	-2.2474	-0.636863	0	
1.5800	1.11079	-2.46784	0	
1.5807	3.25486	-2.46784	0	
1.5813	5.37311	-2.16931	0	
1.5820	8.13715	-1.25382	0	
1.5827	7.82717	0.278627	0	
1.5833	4.77896	0.278627	0	
1.5840	3.849	-1.25382	0	
1.5847	6.61305	-2.16931	0	
1.5853	7.82717	-1.87078	0	
1.5860	5.68309	-0.636863	0	
1.5867	2.94488	1.49265	0	
1.5873	1.11079	1.19412	0	
1.5880	-0.413316	-1.87078	0	
1.5887	-0.723303	-3.70176	0	
1.5893	-0.413316	-3.0848	0	
1.5900	-1.93742	-2.46784	0	
1.5907	-5.6056	-2.78627	0	
1.5913	-7.43968	-4.00029	0	
1.5920	-6.22557	-5.83127	0	
1.5927	-3.46152	-5.53274	0	
1.5933	-2.2474	-3.70176	0	
1.5940	-3.17737	-3.0848	0	
1.5947	-3.77151	-4.29882	0	
1.5953	-3.46152	-5.53274	0	
1.5960	-3.46152	-6.44823	0	
1.5967	-4.39148	-4.91578	0	
1.5973	-4.39148	-2.78627	0	
1.5980	-0.723303	-2.46784	0	
1.5987	5.68309	-1.55235	0	
1.5993	9.04128	-0.338333	0	
1.6000	7.51718	-1.25382	0	
1.6007	8.42131	-2.46784	0	
1.6013	10.8754	-1.25382	0	
1.6020	9.66126	0.278627	0	
1.6027	9.35127	1.19412	0	
1.6033	13.3036	3.62216	0	
1.6040	16.0677	3.94059	0	
1.6047	16.0677	1.19412	0	
1.6053	14.5435	-0.338333	0	
1.6060	12.0895	0.875686	0	
1.6067	11.4953	3.32363	0	
1.6073	11.1854	6.0701	0	
1.6080	7.20719	4.85608	0	
1.6087	4.46898	0.278627	0	
1.6093	5.06312	-0.955294	0	
1.6100	1.73076	-0.636863	0	
1.6107	-4.08149	-1.87078	0	
1.6113	-6.22557	-2.46784	0	
1.6120	-8.6538	-3.38333	0	
1.6127	-12.942	-5.21431	0	
1.6133	-16.8943	-6.1298	0	
1.6140	-18.4184	-6.1298	0	
1.6147	-16.8943	-7.04529	0	
1.6153	-15.0602	-5.53274	0	
1.6160	-15.0602	-4.29882	0	
1.6167	-13.2261	-4.61725	0	
1.6173	-9.27377	-4.91578	0	
1.6180	-7.1297	-2.78627	0	
1.6187	-4.08149	-1.25382	0	
1.6193	4.46898	-1.25382	0	
1.6200	13.9236	0.278627	0	
1.6207	18.8059	3.0251	0	
1.6213	17.5918	3.32363	0	
1.6220	12.3995	1.79118	0	
1.6227	12.0895	3.0251	0	
1.6233	14.8535	5.45314	0	
1.6240	12.7095	6.0701	0	
1.6247	8.13715	7.60255	0	
1.6253	9.66126	7.28412	0	
1.6260	10.5654	4.23912	0	
1.6267	5.68309	4.53765	0	
1.6273	6.30307	5.77157	0	
1.6280	12.0895	2.10961	0	
1.6287	10.2554	2.10961	0	
1.6293	5.06312	6.36863	0	
1.6300	6.61305	3.32363	0	
1.6307	5.68309	-1.87078	0	
1.6313	-1.62743	-0.636863	0	
1.6320	-6.22557	0.278627	0	
1.6327	-7.1297	-1.55235	0	
1.6333	-8.96379	-2.16931	0	
1.6340	-7.1297	-1.55235	0	
1.6347	-4.08149	-2.46784	0	
1.6353	-4.98562	-3.70176	0	
1.6360	-4.98562	-4.00029	0	
1.6367	-1.93742	-2.46784	0	
1.6373	-3.46152	-1.55235	0	
1.6380	-9.86791	-2.16931	0	
1.6387	-10.7979	-0.636863	0	
1.6393	-3.77151	0.875686	0	
1.6400	1.11079	-2.16931	0	
1.6407	0.180826	-3.38333	0	
1.6413	0.180826	0.278627	0	
1.6420	3.849	2.10961	0	
1.6427	6.30307	1.49265	0	
1.6433	7.51718	2.10961	0	
1.6440	9.35127	1.19412	0	
1.6447	9.66126	2.10961	0	
1.6453	11.4953	6.0701	0	
1.6460	15.4477	6.0701	0	
1.6467	15.4477	3.0251	0	
1.6473	10.2554	2.40814	0	
1.6480	6.61305	2.10961	0	
1.6487	2.94488	-0.338333	0	
1.6493	0.180826	-0.636863	0	
1.6500	0.490813	2.10961	0	
1.6507	0.490813	3.0251	0	
1.6513	-2.55739	0.577157	0	
1.6520	-4.39148	-2.46784	0	
1.6527	-6.22557	-2.78627	0	
1.6533	-10.7979	-0.955294	0	
1.6540	-12.012	-0.636863	0	
1.6547	-10.7979	-2.46784	0	
1.6553	-10.4879	-3.38333	0	
1.6560	-8.34381	-4.00029	0	
1.6567	-7.1297	-1.55235	0	
1.6573	-9.86791	0.875686	0	
1.6580	-9.86791	-2.46784	0	
1.6587	-4.70147	-5.21431	0	
1.6593	-1.34328	-3.0848	0	
1.6600	1.11079	-2.16931	0	
1.6607	4.46898	-3.70176	0	
1.6613	2.94488	-0.338333	0	
1.6620	1.11079	3.32363	0	
1.6627	4.77896	1.19412	0	
1.6633	7.51718	0.278627	0	
1.6640	6.61305	3.94059	0	
1.6647	10.5654	5.15461	0	
1.6653	14.2336	1.19412	0	
1.6660	8.42131	-0.338333	0	
1.6667	1.73076	2.10961	0	
1.6673	1.11079	1.79118	0	
1.6680	2.01491	-0.636863	0	
1.6687	1.11079	-1.55235	0	
1.6693	-1.62743	-1.25382	0	
1.6700	-5.29561	-1.55235	0	
1.6707	-5.29561	-1.55235	0	
1.6713	-2.55739	-2.16931	0	
1.6720	-3.17737	-2.78627	0	
1.6727	-7.43968	-1.87078	0	
1.6733	-12.322	-2.78627	0	
1.6740	-16.2743	-4.61725	0	
1.6747	-15.3702	-4.29882	0	
1.6753	-11.1079	-4.91578	0	
1.6760	-10.7979	-6.1298	0	
1.6767	-12.632	-4.29882	0	
1.6773	-11.392	-1.55235	0	
1.6780	-6.50972	-1.55235	0	
1.6787	-2.55739	-1.25382	0	
1.6793	-1.62743	-0.636863	0	
1.6800	-3.17737	-1.25382	0	
1.6807	-1.03329	-1.87078	0	
1.6813	3.849	-2.46784	0	
1.6820	8.13715	-1.55235	0	
1.6827	10.2554	-0.338333	0	
1.6833	8.42131	0.278627	0	
1.6840	6.30307	2.10961	0	
1.6847	7.82717	3.94059	0	
1.6853	7.20719	0.875686	0	
1.6860	2.94488	-1.55235	0	
1.6867	3.53902	1.79118	0	
1.6873	4.77896	2.70667	0	
1.6880	0.800799	-0.636863	0	
1.6887	1.11079	-0.636863	0	
1.6893	5.06312	1.19412	0	
1.6900	2.63489	0.278627	0	
1.6907	-3.77151	0.577157	0	
1.6913	-6.81971	1.19412	0	
1.6920	-8.05966	-1.55235	0	
1.6927	-8.05966	-2.16931	0	
1.6933	-8.05966	-0.636863	0	
1.6940	-10.7979	-1.87078	0	
1.6947	-12.322	-4.29882	0	
1.6953	-10.7979	-4.29882	0	
1.6960	-9.86791	-3.38333	0	
1.6967	-10.4879	-1.87078	0	
1.6973	-7.74967	-0.636863	0	
1.6980	-3.46152	-0.0398039	0	
1.6987	-1.62743	1.19412	0	
1.6993	-0.103329	1.49265	0	
1.7000	3.53902	1.19412	0	
1.7007	9.94541	2.40814	0	
1.7013	13.6136	3.0251	0	
1.7020	10.5654	1.19412	0	
1.7027	7.51718	1.49265	0	
1.7033	8.7313	3.0251	0	
1.7040	10.2554	1.19412	0	
1.7047	11.1854	0.875686	0	
1.7053	13.0194	2.70667	0	
1.7060	12.0895	0.577157	0	
1.7067	7.20719	-1.55235	0	
1.7073	3.849	-0.338333	0	
1.7080	2.3249	-1.55235	0	
1.7087	1.42077	-3.38333	0	
1.7093	1.11079	1.49265	0	
1.7100	-0.413316	3.0251	0	
1.7107	-1.93742	-2.16931	0	
1.7113	-3.46152	-2.46784	0	
1.7120	-7.1297	1.79118	0	
1.7127	-9.86791	0.875686	0	
1.7133	-4.39148	-1.55235	0	
1.7140	1.11079	-2.78627	0	
1.7147	-1.62743	-4.91578	0	
1.7153	-4.39148	-3.70176	0	
1.7160	-1.34328	-1.55235	0	
1.7167	-2.2474	-4.29882	0	
1.7173	-6.22557	-7.04529	0	
1.7180	-3.17737	-6.1298	0	
1.7187	1.73076	-6.44823	0	
1.7193	1.11079	-5.53274	0	
1.7200	0.180826	-2.16931	0	
1.7207	2.01491	-0.636863	0	
1.7213	5.06312	-1.25382	0	
1.7220	4.77896	-1.55235	0	
1.7227	2.01491	-0.338333	0	
1.7233	2.63489	0.278627	0	
1.7240	5.68309	-0.0398039	0	
1.7247	7.20719	1.19412	0	
1.7253	7.82717	2.10961	0	
1.7260	8.7313	0.577157	0	
1.7267	7.20719	0.577157	0	
1.7273	5.99308	2.70667	0	
1.7280	6.61305	2.40814	0	
1.7287	3.53902	1.19412	0	
1.7293	-0.413316	1.19412	0	
1.7300	0.180826	0.577157	0	
1.7307	0.800799	-0.636863	0	
1.7313	-3.46152	-0.338333	0	
1.7320	-8.34381	-0.0398039	0	
1.7327	-9.86791	-1.55235	0	
1.7333	-10.7979	-3.38333	0	
1.7340	-11.702	-3.38333	0	
1.7347	-10.7979	-1.87078	0	
1.7353	-8.96379	-1.55235	0	
1.7360	-10.7979	-3.0848	0	
1.7367	-12.632	-3.38333	0	
1.7373	-6.50972	-3.38333	0	
1.7380	-0.723303	-4.00029	0	
1.7387	-4.39148	-3.38333	0	
1.7393	-8.96379	-1.87078	0	
1.7400	-5.6056	-0.636863	0	
1.7407	-2.55739	-1.55235	0	
1.7413	-3.46152	-2.46784	0	
1.7420	-0.103329	-0.636863	0	
1.7427	5.37311	1.49265	0	
1.7433	6.61305	2.10961	0	
1.7440	6.30307	3.94059	0	
1.7447	8.42131	5.77157	0	
1.7453	8.42131	5.77157	0	
1.7460	5.37311	8.19961	0	
1.7467	3.25486	6.98559	0	
1.7473	2.94488	1.79118	0	
1.7480	4.15899	1.19412	0	
1.7487	3.849	4.23912	0	
1.7493	0.490813	3.94059	0	
1.7500	-1.62743	3.32363	0	
1.7507	-2.55739	2.40814	0	
1.7513	-6.50972	1.19412	0	
1.7520	-7.1297	2.70667	0	
1.7527	-3.46152	3.94059	0	
1.7533	-5.29561	1.49265	0	
1.7540	-8.05966	-0.338333	0	
1.7547	-3.77151	-0.636863	0	
1.7553	-3.46152	-1.55235	0	
1.7560	-9.58376	-2.78627	0	
1.7567	-10.7979	-2.16931	0	
1.7573	-6.81971	-1.25382	0	
1.7580	-4.39148	0.278627	0	
1.7587	-3.17737	3.0251	0	
1.7593	-0.723303	3.94059	0	
1.7600	2.94488	1.49265	0	
1.7607	6.61305	-0.338333	0	
1.7613	6.61305	1.79118	0	
1.7620	7.51718	3.94059	0	
1.7627	12.3995	3.32363	0	
1.7633	12.7095	3.32363	0	
1.7640	7.51718	3.94059	0	
1.7647	4.46898	3.0251	0	
1.7653	4.46898	2.70667	0	
1.7660	4.77896	3.94059	0	
1.7667	5.37311	4.53765	0	
1.7673	3.25486	2.40814	0	
1.7680	-0.413316	1.19412	0	
1.7687	-2.2474	0.875686	0	
1.7693	-3.77151	-0.636863	0	
1.7700	-6.22557	-2.46784	0	
1.7707	-5.91558	-2.46784	0	
1.7713	-4.98562	-3.38333	0	
1.7720	-8.96379	-4.29882	0	
1.7727	-14.4661	-3.70176	0	
1.7733	-15.0602	-4.91578	0	
1.7740	-11.702	-7.04529	0	
1.7747	-11.1079	-5.21431	0	
1.7753	-11.702	-3.38333	0	
1.7760	-7.43968	-4.29882	0	
1.7767	-2.55739	-4.29882	0	
1.7773	0.180826	-3.0848	0	
1.7780	4.46898	-2.78627	0	
1.7787	7.51718	-1.55235	0	
1.7793	7.82717	-0.338333	0	
1.7800	9.35127	-0.955294	0	
1.7807	12.3995	-1.25382	0	
1.7813	14.8535	-0.0398039	0	
1.7820	16.6618	0.278627	0	
1.7827	14.8535	-0.338333	0	
1.7833	11.1854	0.278627	0	
1.7840	13.3036	2.40814	0	
1.7847	13.9236	5.77157	0	
1.7853	6.61305	4.53765	0	
1.7860	4.46898	-0.0398039	0	
1.7867	9.04128	1.19412	0	
1.7873	9.66126	4.53765	0	
1.7880	7.51718	1.19412	0	
1.7887	5.37311	-3.38333	0	
1.7893	0.180826	-0.636863	0	
1.7900	-3.77151	2.10961	0	
1.7907	-1.62743	-0.955294	0	
1.7913	-0.723303	-3.0848	0	
1.7920	-4.08149	-2.46784	0	
1.7927	-6.22557	-3.38333	0	
1.7933	-6.50972	-5.21431	0	
1.7940	-6.22557	-4.61725	0	
1.7947	-5.29561	-4.29882	0	
1.7953	-4.98562	-4.29882	0	
1.7960	-5.29561	-3.0848	0	
1.7967	-5.91558	-3.0848	0	
1.7973	-4.08149	-4.29882	0	
1.7980	-0.723303	-4.29882	0	
1.7987	0.180826	-3.38333	0	
1.7993	1.73076	-3.70176	0	
1.8000	7.51718	-2.78627	0	
1.8007	9.35127	-2.46784	0	
1.8013	5.37311	-4.00029	0	
1.8020	5.99308	-3.38333	0	
1.8027	8.7313	-1.55235	0	
1.8033	8.42131	-2.46784	0	
1.8040	8.13715	-1.55235	0	
1.8047	8.42131	0.278627	0	
1.8053	7.51718	-1.87078	0	
1.8060	6.61305	-3.70176	0	
1.8067	4.77896	-1.25382	0	
1.8073	3.849	1.19412	0	
1.8080	6.61305	0.875686	0	
1.8087	5.68309	1.79118	0	
1.8093	-1.93742	2.10961	0	
1.8100	-6.81971	-0.955294	0	
1.8107	-4.08149	-2.78627	0	
1.8113	-4.08149	-1.55235	0	
1.8120	-9.27377	-1.55235	0	
1.8127	-11.702	-3.70176	0	
1.8133	-9.86791	-3.38333	0	
1.8140	-8.6538	-1.87078	0	
1.8147	-9.86791	-4.29882	0	
1.8153	-11.702	-6.1298	0	
1.8160	-15.3702	-4.00029	0	
1.8167	-17.5143	-1.25382	0	
1.8173	-13.5361	-0.636863	0	
1.8180	-8.05966	-1.25382	0	
1.8187	-7.1297	-2.78627	0	
1.8193	-4.98562	-3.38333	0	
1.8200	1.11079	-1.55235	0	
1.8207	2.63489	-0.0398039	0	
1.8213	0.180826	-0.636863	0	
1.8220	0.490813	-0.636863	0	
1.8227	2.63489	1.79118	0	
1.8233	0.800799	4.23912	0	
1.8240	-1.03329	3.32363	0	
1.8247	0.180826	-0.636863	0	
1.8253	-0.103329	-2.16931	0	
1.8260	-0.723303	0.278627	0	
1.8267	2.01491	1.19412	0	
1.8273	4.77896	0.875686	0	
1.8280	5.06312	1.19412	0	
1.8287	3.849	0.875686	0	
1.8293	-0.103329	-0.955294	0	
1.8300	-5.29561	0.278627	0	
1.8307	-9.86791	1.19412	0	
1.8313	-14.4661	-1.87078	0	
1.8320	-15.3702	-3.70176	0	
1.8327	-10.7979	-1.25382	0	
1.8333	-8.96379	-1.55235	0	
1.8340	-13.8461	-4.91578	0	
1.8347	-15.3702	-4.29882	0	
1.8353	-12.012	-1.55235	0	
1.8360	-10.7979	-2.46784	0	
1.8367	-10.4879	-3.38333	0	
1.8373	-6.50972	-3.38333	0	
1.8380	-4.70147	-4.00029	0	
1.8387	-6.50972	-4.61725	0	
1.8393	-5.6056	-3.0848	0	
1.8400	-2.2474	-0.955294	0	
1.8407	0.180826	-1.55235	0	
1.8413	3.53902	-1.55235	0	
1.8420	3.849	-0.636863	0	
1.8427	-0.413316	-0.636863	0	
1.8433	-0.723303	-1.55235	0	
1.8440	2.3249	0.278627	0	
1.8447	1.11079	3.0251	0	
1.8453	-0.103329	3.62216	0	
1.8460	2.94488	3.62216	0	
1.8467	3.849	3.94059	0	
1.8473	2.94488	4.23912	0	
1.8480	4.77896	5.77157	0	
1.8487	3.25486	4.23912	0	
1.8493	-2.55739	-1.55235	0	
1.8500	-7.1297	-3.38333	0	
1.8507	-7.1297	-0.338333	0	
1.8513	-4.98562	-0.636863	0	
1.8520	-5.6056	-1.87078	0	
1.8527	-7.43968	0.577157	0	
1.8533	-6.50972	-0.0398039	0	
1.8540	-5.91558	-2.46784	0	
1.8547	-6.50972	-2.46784	0	
1.8553	-4.39148	-3.0848	0	
1.8560	-4.39148	-4.29882	0	
1.8567	-9.27377	-2.78627	0	
1.8573	-6.81971	-2.16931	0	
1.8580	1.11079	-4.29882	0	
1.8587	1.11079	-4.00029	0	
1.8593	-1.03329	-2.16931	0	
1.8600	3.53902	-2.46784	0	
1.8607	7.51718	-1.25382	0	
1.8613	7.82717	0.577157	0	
1.8620	11.4953	-1.25382	0	
1.8627	14.8535	-1.87078	0	
1.8633	16.0677	0.577157	0	
1.8640	16.6618	1.19412	0	
1.8647	15.1377	0.278627	0	
1.8653	11.4953	1.19412	0	
1.8660	11.1854	2.10961	0	
1.8667	11.7795	2.10961	0	
1.8673	8.7313	2.10961	0	
1.8680	6.61305	1.19412	0	
1.8687	7.20719	1.19412	0	
1.8693	4.77896	1.19412	0	
1.8700	2.3249	0.875686	0	
1.8707	3.53902	2.10961	0	
1.8713	1.11079	3.0251	0	
1.8720	-5.6056	0.278627	0	
1.8727	-8.96379	-1.87078	0	
1.8733	-9.27377	-1.87078	0	
1.8740	-8.96379	-4.29882	0	
1.8747	-6.50972	-4.91578	0	
1.8753	-5.6056	-0.636863	0	
1.8760	-5.29561	-1.55235	0	
1.8767	-1.62743	-6.1298	0	
1.8773	1.11079	-6.44823	0	
1.8780	-0.413316	-4.61725	0	
1.8787	0.180826	-4.29882	0	
1.8793	4.46898	-2.46784	0	
1.8800	6.61305	-0.338333	0	
1.8807	6.61305	-0.338333	0	
1.8813	7.20719	0.278627	0	
1.8820	10.2554	-0.0398039	0	
1.8827	13.9236	-0.0398039	0	
1.8833	15.1377	4.23912	0	
1.8840	15.7577	6.68706	0	
1.8847	15.7577	3.0251	0	
1.8853	13.0194	1.49265	0	
1.8860	10.8754	2.10961	0	
1.8867	11.7795	0.577157	0	
1.8873	10.2554	0.875686	0	
1.8880	6.30307	1.79118	0	
1.8887	5.68309	1.79118	0	
1.8893	4.46898	3.32363	0	
1.8900	1.11079	3.94059	0	
1.8907	-0.413316	1.49265	0	
1.8913	0.180826	0.577157	0	
1.8920	-1.62743	0.278627	0	
1.8927	-3.46152	-0.636863	0	
1.8933	-6.22557	-1.55235	0	
1.8940	-8.96379	-3.38333	0	
1.8947	-7.43968	-3.38333	0	
1.8953	-5.29561	0.278627	0	
1.8960	-6.81971	-0.636863	0	
1.8967	-7.1297	-4.29882	0	
1.8973	-4.70147	-4.00029	0	
1.8980	-4.08149	-2.16931	0	
1.8987	-3.46152	-3.38333	0	
1.8993	1.11079	-3.0848	0	
1.9000	4.46898	-1.55235	0	
1.9007	2.3249	-1.87078	0	
1.9013	0.800799	-1.55235	0	
1.9020	2.94488	0.577157	0	
1.9027	4.77896	0.278627	0	
1.9033	5.99308	-0.636863	0	
1.9040	8.7313	1.19412	0	
1.9047	9.35127	4.85608	0	
1.9053	6.61305	5.77157	0	
1.9060	5.68309	3.62216	0	
1.9067	6.61305	2.40814	0	
1.9073	4.77896	3.0251	0	
1.9080	2.3249	2.10961	0	
1.9087	-0.103329	1.79118	0	
1.9093	-3.77151	3.0251	0	
1.9100	-3.46152	3.0251	0	
1.9107	-0.723303	0.278627	0	
1.9113	-3.17737	0.278627	0	
1.9120	-7.74967	2.10961	0	
1.9127	-8.6538	-0.0398039	0	
1.9133	-8.96379	-4.00029	0	
1.9140	-10.1779	-3.0848	0	
1.9147	-9.86791	-1.25382	0	
1.9153	-8.6538	-3.38333	0	
1.9160	-8.05966	-4.29882	0	
1.9167	-6.50972	-2.16931	0	
1.9173	-4.70147	-0.955294	0	
1.9180	-3.77151	-1.87078	0	
1.9187	-4.39148	-0.636863	0	
1.9193	-4.39148	1.79118	0	
1.9200	-1.62743	1.19412	0	
1.9207	0.180826	-1.25382	0	
1.9213	-0.723303	-0.338333	0	
1.9220	-0.413316	2.10961	0	
1.9227	2.01491	1.79118	0	
1.9233	3.849	2.10961	0	
1.9240	4.77896	4.53765	0	
1.9247	7.82717	3.94059	0	
1.9253	10.5654	1.19412	0	
1.9260	13.0194	0.278627	0	
1.9267	16.6618	1.79118	0	
1.9273	16.6618	3.94059	0	
1.9280	10.2554	4.53765	0	
1.9287	3.849	3.94059	0	
1.9293	5.68309	2.40814	0	
1.9300	8.42131	-0.0398039	0	
1.9307	4.77896	-1.87078	0	
1.9313	-1.03329	-0.955294	0	
1.9320	-4.39148	-0.0398039	0	
1.9327	-9.58376	-1.87078	0	
1.9333	-11.702	-3.38333	0	
1.9340	-8.05966	-4.61725	0	
1.9347	-5.29561	-4.91578	0	
1.9353	-6.50972	-4.00029	0	
1.9360	-4.39148	-5.21431	0	
1.9367	-0.723303	-7.04529	0	
1.9373	-0.103329	-4.29882	0	
1.9380	0.800799	-0.636863	0	
1.9387	3.849	-2.46784	0	
1.9393	5.37311	-4.29882	0	
1.9400	4.46898	-4.29882	0	
1.9407	3.849	-4.00029	0	
1.9413	2.63489	-1.55235	0	
1.9420	0.490813	1.79118	0	
1.9427	1.11079	0.278627	0	
1.9433	3.849	-3.0848	0	
1.9440	4.46898	-1.87078	0	
1.9447	4.46898	1.79118	0	
1.9453	6.61305	2.70667	0	
1.9460	7.51718	1.19412	0	
1.9467	6.61305	-0.0398039	0	
1.9473	8.13715	-0.0398039	0	
1.9480	9.35127	-0.338333	0	
1.9487	9.04128	-0.955294	0	
1.9493	7.51718	0.278627	0	
1.9500	4.15899	1.79118	0	
1.9507	1.11079	0.278627	0	
1.9513	-0.413316	-1.55235	0	
1.9520	-3.46152	-2.16931	0	
1.9527	-7.1297	-3.0848	0	
1.9533	-9.86791	-3.38333	0	
1.9540	-10.4879	-2.46784	0	
1.9547	-8.96379	-3.38333	0	
1.9553	-9.86791	-4.91578	0	
1.9560	-14.1561	-2.78627	0	
1.9567	-13.8461	-1.55235	0	
1.9573	-8.96379	-2.78627	0	
1.9580	-7.1297	-2.16931	0	
1.9587	-6.81971	-0.636863	0	
1.9593	-4.70147	-1.87078	0	
1.9600	-3.46152	-0.636863	0	
1.9607	-1.03329	2.10961	0	
1.9613	2.01491	1.79118	0	
1.9620	1.42077	1.49265	0	
1.9627	2.3249	3.94059	0	
1.9633	7.51718	5.77157	0	
1.9640	8.42131	6.0701	0	
1.9647	6.30307	6.68706	0	
1.9653	4.77896	5.77157	0	
1.9660	2.94488	3.62216	0	
1.9667	1.11079	2.10961	0	
1.9673	1.42077	1.19412	0	
1.9680	2.01491	0.577157	0	
1.9687	3.25486	0.278627	0	
1.9693	4.15899	0.577157	0	
1.9700	0.490813	1.19412	0	
1.9707	-4.98562	-0.0398039	0	
1.9713	-8.96379	-0.955294	0	
1.9720	-13.5361	-1.55235	0	
1.9727	-15.9902	-3.70176	0	
1.9733	-15.3702	-4.29882	0	
1.9740	-16.5843	-3.38333	0	
1.9747	-16.8943	-5.21431	0	
1.9753	-13.5361	-6.1298	0	
1.9760	-12.632	-2.78627	0	
1.9767	-12.322	-3.38333	0	
1.9773	-6.50972	-6.44823	0	
1.9780	-1.03329	-3.38333	0	
1.9787	-0.723303	0.278627	0	
1.9793	0.180826	-0.955294	0	
1.9800	2.01491	-1.55235	0	
1.9807	2.3249	0.577157	0	
1.9813	2.94488	2.10961	0	
1.9820	4.15899	2.10961	0	
1.9827	5.68309	1.79118	0	
1.9833	6.89721	2.10961	0	
1.9840	8.42131	3.62216	0	
1.9847	9.35127	2.40814	0	
1.9853	9.35127	-0.0398039	0	
1.9860	7.20719	0.875686	0	
1.9867	5.37311	2.10961	0	
1.9873	3.849	1.19412	0	
1.9880	1.11079	1.19412	0	
1.9887	0.180826	1.49265	0	
1.9893	-0.413316	-0.0398039	0	
1.9900	-3.46152	-2.16931	0	
1.9907	-6.22557	-1.87078	0	
1.9913	-6.22557	-0.0398039	0	
1.9920	-5.91558	0.278627	0	
1.9927	-6.22557	-2.46784	0	
1.9933	-8.05966	-3.0848	0	
1.9940	-10.7979	-1.55235	0	
1.9947	-12.012	-2.16931	0	
1.9953	-9.86791	-2.78627	0	
1.9960	-8.05966	-0.955294	0	
1.9967	-6.22557	0.278627	0	
1.9973	-4.08149	-0.0398039	0	
1.9980	-2.55739	-0.636863	0	
1.9987	-1.34328	-2.46784	0	
1.9993	-0.103329	-3.70176	0	
2.0000	-0.103329	-1.55235	0	
2.0007	-1.03329	1.79118	0	
2.0013	-0.723303	1.49265	0	
2.0020	1.11079	0.577157	0	
2.0027	4.46898	2.10961	0	
2.0033	6.61305	3.62216	0	
2.0040	8.13715	3.94059	0	
2.0047	8.42131	4.53765	0	
2.0053	8.13715	3.94059	0	
2.0060	9.04128	1.79118	0	
2.0067	9.66126	2.70667	0	
2.0073	6.30307	3.94059	0	
2.0080	2.94488	1.19412	0	
2.0087	2.63489	-2.46784	0	
2.0093	2.01491	-4.29882	0	
2.0100	0.180826	-4.29882	0	
2.0107	-2.2474	-2.46784	0	
2.0113	-4.98562	-1.55235	0	
2.0120	-4.08149	-4.61725	0	
2.0127	-1.93742	-6.44823	0	
2.0133	-7.1297	-4.29882	0	
2.0140	-14.1561	-4.29882	0	
2.0147	-13.5361	-5.21431	0	
2.0153	-8.6538	-5.21431	0	
2.0160	-7.1297	-6.44823	0	
2.0167	-11.1079	-8.87627	0	
2.0173	-14.4661	-8.87627	0	
2.0180	-9.58376	-6.74676	0	
2.0187	-2.55739	-4.29882	0	
2.0193	-2.55739	-4.29882	0	
2.0200	-2.55739	-5.21431	0	
2.0207	0.800799	-2.46784	0	
2.0213	2.01491	1.19412	0	
2.0220	3.849	1.49265	0	
2.0227	7.51718	-0.0398039	0	
2.0233	7.51718	-0.338333	0	
2.0240	9.35127	0.278627	0	
2.0247	16.6618	0.875686	0	
2.0253	17.5918	1.49265	0	
2.0260	9.66126	1.49265	0	
2.0267	2.01491	2.10961	0	
2.0273	-0.723303	2.10961	0	
2.0280	-0.103329	0.278627	0	
2.0287	2.63489	-0.636863	0	
2.0293	3.849	-1.25382	0	
2.0300	2.3249	-2.46784	0	
2.0307	0.180826	-1.55235	0	
2.0313	-2.55739	0.278627	0	
2.0320	-4.98562	-0.338333	0	
2.0327	-6.22557	-1.55235	0	
2.0333	-5.29561	-1.87078	0	
2.0340	-4.39148	-2.46784	0	
2.0347	-5.6056	-0.955294	0	
2.0353	-6.50972	0.577157	0	
2.0360	-4.39148	-1.55235	0	
2.0367	-3.17737	-3.0848	0	
2.0373	-3.46152	-2.46784	0	
2.0380	-1.03329	-1.87078	0	
2.0387	1.11079	-0.636863	0	
2.0393	1.42077	1.19412	0	
2.0400	3.53902	0.875686	0	
2.0407	3.849	0.278627	0	
2.0413	0.490813	1.49265	0	
2.0420	0.180826	1.49265	0	
2.0427	3.849	0.278627	0	
2.0433	5.68309	0.577157	0	
2.0440	6.30307	1.79118	0	
2.0447	5.68309	1.49265	0	
2.0453	4.15899	-0.636863	0	
2.0460	4.77896	-0.636863	0	
2.0467	3.849	0.577157	0	
2.0473	1.11079	-0.338333	0	
2.0480	1.11079	-0.636863	0	
2.0487	1.11079	0.278627	0	
2.0493	-2.86738	-2.46784	0	
2.0500	-4.39148	-5.53274	0	
2.0507	-4.39148	-4.61725	0	
2.0513	-7.43968	-3.38333	0	
2.0520	-8.6538	-3.70176	0	
2.0527	-7.1297	-4.29882	0	
2.0533	-8.6538	-5.21431	0	
2.0540	-9.58376	-4.00029	0	
2.0547	-8.05966	0.577157	0	
2.0553	-8.34381	0.875686	0	
2.0560	-5.91558	-1.87078	0	
2.0567	-1.34328	-1.55235	0	
2.0573	-3.77151	0.278627	0	
2.0580	-6.81971	0.278627	0	
2.0587	-2.55739	0.577157	0	
2.0593	0.800799	1.19412	0	
2.0600	1.42077	0.875686	0	
2.0607	6.61305	0.278627	0	
2.0613	9.35127	1.19412	0	
2.0620	6.61305	4.23912	0	
2.0627	6.61305	6.36863	0	
2.0633	8.42131	6.68706	0	
2.0640	7.82717	8.19961	0	
2.0647	9.04128	8.51804	0	
2.0653	10.8754	4.23912	0	
2.0660	9.04128	1.49265	0	
2.0667	7.20719	3.0251	0	
2.0673	5.68309	3.32363	0	
2.0680	3.53902	3.0251	0	
2.0687	2.01491	3.0251	0	
2.0693	2.01491	-0.0398039	0	
2.0700	1.42077	-2.78627	0	
2.0707	0.180826	-1.55235	0	
2.0713	-1.34328	-1.25382	0	
2.0720	-0.413316	-3.38333	0	
2.0727	0.490813	-4.00029	0	
2.0733	-2.2474	-3.38333	0	
2.0740	-3.46152	-3.70176	0	
2.0747	-2.2474	-2.16931	0	
2.0753	-3.46152	-1.55235	0	
2.0760	-5.29561	-5.21431	0	
2.0767	-3.46152	-7.96078	0	
2.0773	-2.55739	-5.21431	0	
2.0780	-2.2474	-3.70176	0	
2.0787	0.180826	-4.29882	0	
2.0793	2.63489	-4.29882	0	
2.0800	4.15899	-2.46784	0	
2.0807	4.46898	-1.55235	0	
2.0813	2.94488	-0.0398039	0	
2.0820	4.15899	0.577157	0	
2.0827	7.51718	-1.25382	0	
2.0833	7.51718	-1.55235	0	
2.0840	7.82717	0.875686	0	
2.0847	10.2554	0.278627	0	
2.0853	9.94541	-1.55235	0	
2.0860	11.1854	0.875686	0	
2.0867	13.0194	3.32363	0	
2.0873	9.35127	1.79118	0	
2.0880	5.99308	1.49265	0	
2.0887	7.20719	2.70667	0	
2.0893	6.89721	-1.87078	0	
2.0900	3.849	-5.21431	0	
2.0907	0.180826	-1.87078	0	
2.0913	-2.55739	0.278627	0	
2.0920	-1.62743	-2.16931	0	
2.0927	-1.62743	-2.16931	0	
2.0933	-5.29561	-1.25382	0	
2.0940	-5.6056	-4.29882	0	
2.0947	-2.55739	-6.1298	0	
2.0953	-1.62743	-2.46784	0	
2.0960	-0.103329	-0.636863	0	
2.0967	0.800799	-1.55235	0	
2.0973	-1.62743	-1.55235	0	
2.0980	-1.34328	0.278627	0	
2.0987	2.94488	-0.0398039	0	
2.0993	2.94488	-1.55235	0	
2.1000	1.11079	0.278627	0	
2.1007	4.46898	2.10961	0	
2.1013	9.35127	1.19412	0	
2.1020	12.3995	1.49265	0	
2.1027	13.9236	4.85608	0	
2.1033	12.0895	6.36863	0	
2.1040	6.89721	4.53765	0	
2.1047	2.94488	2.70667	0	
2.1053	4.46898	1.79118	0	
2.1060	9.04128	2.10961	0	
2.1067	9.35127	1.79118	0	
2.1073	5.68309	0.577157	0	
2.1080	2.3249	1.19412	0	
2.1087	0.180826	2.40814	0	
2.1093	-1.34328	1.19412	0	
2.1100	-0.103329	-0.636863	0	
2.1107	-1.62743	-0.636863	0	
2.1113	-8.05966	-0.0398039	0	
2.1120	-12.632	-0.0398039	0	
2.1127	-12.632	-1.55235	0	
2.1133	-13.8461	-4.29882	0	
2.1140	-16.2743	-5.83127	0	
2.1147	-17.2043	-4.91578	0	
2.1153	-17.2043	-5.21431	0	
2.1160	-17.2043	-3.70176	0	
2.1167	-16.2743	-0.0398039	0	
2.1173	-13.5361	-0.636863	0	
2.1180	-10.1779	-1.87078	0	
2.1187	-8.05966	-0.338333	0	
2.1193	-6.50972	-0.955294	0	
2.1200	-4.39148	-2.46784	0	
2.1207	-4.08149	0.278627	0	
2.1213	-5.29561	2.10961	0	
2.1220	-4.98562	-0.955294	0	
2.1227	-3.77151	-1.55235	0	
2.1233	-3.77151	2.40814	0	
2.1240	-1.34328	4.85608	0	
2.1247	2.94488	3.32363	0	
2.1253	2.94488	0.875686	0	
2.1260	2.01491	-0.0398039	0	
2.1267	4.15899	-0.0398039	0	
2.1273	4.77896	1.19412	0	
2.1280	1.11079	1.79118	0	
2.1287	0.180826	0.875686	0	
2.1293	-0.413316	0.278627	0	
2.1300	-2.55739	1.19412	0	
2.1307	-2.55739	-0.0398039	0	
2.1313	-2.55739	-3.38333	0	
2.1320	-7.1297	-4.61725	0	
2.1327	-9.86791	-4.61725	0	
2.1333	-7.74967	-4.29882	0	
2.1340	-6.50972	-2.46784	0	
2.1347	-9.27377	-4.00029	0	
2.1353	-11.392	-6.1298	0	
2.1360	-10.7979	-4.29882	0	
2.1367	-8.96379	-2.46784	0	
2.1373	-7.43968	-3.0848	0	
2.1380	-8.96379	-2.46784	0	
2.1387	-9.86791	-2.46784	0	
2.1393	-8.05966	-2.46784	0	
2.1400	-3.46152	-0.338333	0	
2.1407	-0.103329	0.875686	0	
2.1413	1.42077	0.278627	0	
2.1420	2.94488	1.49265	0	
2.1427	3.25486	2.40814	0	
2.1433	2.3249	2.10961	0	
2.1440	2.01491	3.94059	0	
2.1447	4.46898	4.53765	0	
2.1453	6.61305	2.10961	0	
2.1460	7.20719	3.0251	0	
2.1467	4.77896	5.77157	0	
2.1473	0.800799	4.85608	0	
2.1480	-1.62743	3.62216	0	
2.1487	-3.46152	3.0251	0	
2.1493	-5.6056	-0.338333	0	
2.1500	-5.6056	-2.46784	0	
2.1507	-4.39148	-0.636863	0	
2.1513	-8.96379	-0.0398039	0	
2.1520	-17.8242	-1.87078	0	
2.1527	-20.5625	-1.87078	0	
2.1533	-16.2743	-0.338333	0	
2.1540	-13.5361	-0.955294	0	
2.1547	-16.2743	-3.38333	0	
2.1553	-18.1084	-3.70176	0	
2.1560	-16.5843	-2.78627	0	
2.1567	-15.6802	-3.70176	0	
2.1573	-13.5361	-4.29882	0	
2.1580	-6.50972	-2.16931	0	
2.1587	-2.86738	-1.25382	0	
2.1593	-4.98562	-3.38333	0	
2.1600	-4.08149	-3.70176	0	
2.1607	-1.34328	-1.55235	0	
2.1613	-1.34328	-0.636863	0	
2.1620	0.180826	0.278627	0	
2.1627	2.01491	1.19412	0	
2.1633	0.490813	1.49265	0	
2.1640	2.63489	2.40814	0	
2.1647	9.04128	4.85608	0	
2.1653	9.94541	4.85608	0	
2.1660	8.42131	4.85608	0	
2.1667	11.4953	6.36863	0	
2.1673	12.3995	6.36863	0	
2.1680	7.20719	3.62216	0	
2.1687	2.3249	3.62216	0	
2.1693	1.11079	4.85608	0	
2.1700	0.180826	1.79118	0	
2.1707	-0.413316	-1.25382	0	
2.1713	0.490813	0.278627	0	
2.1720	-1.03329	1.19412	0	
2.1727	-4.70147	0.278627	0	
2.1733	-3.46152	-1.25382	0	
2.1740	0.180826	-2.46784	0	
2.1747	-0.723303	-2.16931	0	
2.1753	-2.55739	-1.87078	0	
2.1760	-1.62743	-4.91578	0	
2.1767	-0.723303	-6.74676	0	
2.1773	0.180826	-3.38333	0	
2.1780	2.94488	-1.55235	0	
2.1787	3.53902	-3.38333	0	
2.1793	2.94488	-2.78627	0	
2.1800	5.68309	-2.46784	0	
2.1807	9.66126	-3.70176	0	
2.1813	11.1854	-1.25382	0	
2.1820	13.0194	2.10961	0	
2.1827	14.5435	1.79118	0	
2.1833	13.9236	3.0251	0	
2.1840	14.8535	4.85608	0	
2.1847	18.4959	1.19412	0	
2.1853	19.4258	-1.55235	0	
2.1860	16.6618	0.278627	0	
2.1867	14.5435	1.19412	0	
2.1873	11.4953	0.577157	0	
2.1880	7.82717	-0.0398039	0	
2.1887	8.13715	-0.955294	0	
2.1893	11.1854	0.278627	0	
2.1900	10.5654	2.10961	0	
2.1907	5.68309	0.278627	0	
2.1913	2.94488	-1.87078	0	
2.1920	2.94488	-1.55235	0	
2.1927	1.73076	-3.0848	0	
2.1933	-0.103329	-4.29882	0	
2.1940	-0.723303	-3.38333	0	
2.1947	-0.723303	-4.29882	0	
2.1953	-1.93742	-4.29882	0	
2.1960	-4.39148	-1.25382	0	
2.1967	-6.81971	0.278627	0	
2.1973	-7.43968	-1.55235	0	
2.1980	-5.29561	-3.38333	0	
2.1987	-2.86738	-4.61725	0	
2.1993	-1.34328	-4.61725	0	
2.2000	-0.413316	-2.16931	0	
2.2007	-1.34328	-1.25382	0	
2.2013	-0.413316	-1.55235	0	
2.2020	3.25486	1.19412	0	
2.2027	4.15899	3.0251	0	
2.2033	2.01491	0.875686	0	
2.2040	2.94488	-0.636863	0	
2.2047	4.15899	0.875686	0	
2.2053	2.63489	2.40814	0	
2.2060	1.11079	3.0251	0	
2.2067	-0.103329	3.94059	0	
2.2073	-0.413316	4.85608	0	
2.2080	1.11079	5.45314	0	
2.2087	1.73076	4.23912	0	
2.2093	-0.413316	2.10961	0	
2.2100	-4.08149	1.19412	0	
2.2107	-6.22557	0.278627	0	
2.2113	-5.6056	-0.636863	0	
2.2120	-4.39148	-1.55235	0	
2.2127	-5.91558	-2.16931	0	
2.2133	-9.58376	-1.87078	0	
2.2140	-9.86791	-1.55235	0	
2.2147	-5.29561	-2.16931	0	
2.2153	-4.39148	-1.55235	0	
2.2160	-8.6538	-1.55235	0	
2.2167	-8.05966	-3.38333	0	
2.2173	-4.39148	-3.0848	0	
2.2180	-3.17737	-0.636863	0	
2.2187	0.180826	-1.87078	0	
2.2193	5.68309	-2.16931	0	
2.2200	5.68309	1.49265	0	
2.2207	4.77896	1.79118	0	
2.2213	9.35127	-1.25382	0	
2.2220	14.5435	0.278627	0	
2.2227	12.7095	2.10961	0	
2.2233	8.42131	1.19412	0	
2.2240	8.7313	1.79118	0	
2.2247	14.2336	3.0251	0	
2.2253	17.2818	2.10961	0	
2.2260	14.5435	1.79118	0	
2.2267	12.0895	2.10961	0	
2.2273	14.2336	3.0251	0	
2.2280	14.8535	3.62216	0	
2.2287	9.04128	0.278627	0	
2.2293	4.46898	-2.16931	0	
2.2300	5.68309	0.577157	0	
2.2307	6.61305	1.49265	0	
2.2313	3.849	-0.955294	0	
2.2320	1.42077	-0.955294	0	
2.2327	-2.55739	-1.55235	0	
2.2333	-8.96379	-4.61725	0	
2.2340	-11.392	-4.91578	0	
2.2347	-8.96379	-3.70176	0	
2.2353	-6.81971	-4.29882	0	
2.2360	-5.29561	-6.1298	0	
2.2367	-4.39148	-7.04529	0	
2.2373	-3.46152	-7.04529	0	
2.2380	-0.723303	-5.21431	0	
2.2387	1.11079	-4.29882	0	
2.2393	2.63489	-4.29882	0	
2.2400	5.37311	-3.70176	0	
2.2407	6.61305	-4.29882	0	
2.2413	5.68309	-3.38333	0	
2.2420	9.35127	-2.16931	0	
2.2427	13.0194	-2.78627	0	
2.2433	10.2554	-2.16931	0	
2.2440	8.42131	3.0251	0	
2.2447	9.94541	3.94059	0	
2.2453	9.04128	-0.0398039	0	
2.2460	6.89721	-0.338333	0	
2.2467	8.13715	2.10961	0	
2.2473	8.13715	0.577157	0	
2.2480	4.46898	-1.87078	0	
2.2487	1.11079	-2.16931	0	
2.2493	0.180826	-1.87078	0	
2.2500	-2.2474	-1.55235	0	
2.2507	-7.43968	-1.55235	0	
2.2513	-11.702	-2.78627	0	
2.2520	-10.4879	-2.46784	0	
2.2527	-9.27377	-1.25382	0	
2.2533	-13.2261	-3.38333	0	
2.2540	-15.9902	-6.1298	0	
2.2547	-12.942	-7.04529	0	
2.2553	-10.7979	-6.74676	0	
2.2560	-14.1561	-5.21431	0	
2.2567	-15.3702	-3.38333	0	
2.2573	-9.58376	-4.29882	0	
2.2580	-5.29561	-4.91578	0	
2.2587	-8.05966	-2.78627	0	
2.2593	-8.34381	-1.87078	0	
2.2600	-4.39148	-1.55235	0	
2.2607	-2.86738	1.19412	0	
2.2613	-1.93742	1.49265	0	
2.2620	-0.723303	-1.25382	0	
2.2627	-1.62743	1.19412	0	
2.2633	0.180826	4.23912	0	
2.2640	7.20719	1.19412	0	
2.2647	7.82717	-1.25382	0	
2.2653	3.849	2.40814	0	
2.2660	5.37311	4.85608	0	
2.2667	7.82717	3.94059	0	
2.2673	5.68309	2.40814	0	
2.2680	3.849	2.40814	0	
2.2687	1.73076	2.70667	0	
2.2693	-3.46152	1.19412	0	
2.2700	-5.29561	-0.636863	0	
2.2707	-3.46152	-2.16931	0	
2.2713	-7.1297	-4.29882	0	
2.2720	-13.5361	-4.61725	0	
2.2727	-12.942	-1.25382	0	
2.2733	-8.6538	0.278627	0	
2.2740	-8.05966	-3.38333	0	
2.2747	-9.86791	-4.29882	0	
2.2753	-9.86791	-2.46784	0	
2.2760	-8.05966	-3.0848	0	
2.2767	-9.86791	-4.61725	0	
2.2773	-15.6802	-4.29882	0	
2.2780	-17.2043	-3.38333	0	
2.2787	-10.7979	-2.46784	0	
2.2793	-4.39148	-1.55235	0	
2.2800	-2.55739	-1.25382	0	
2.2807	-1.93742	0.577157	0	
2.2813	0.180826	2.70667	0	
2.2820	2.3249	2.10961	0	
2.2827	5.68309	0.875686	0	
2.2833	9.35127	2.10961	0	
2.2840	11.7795	3.32363	0	
2.2847	12.3995	3.94059	0	
2.2853	12.7095	5.77157	0	
2.2860	13.0194	6.68706	0	
2.2867	13.0194	3.62216	0	
2.2873	12.0895	1.79118	0	
2.2880	10.2554	3.0251	0	
2.2887	9.35127	3.62216	0	
2.2893	8.42131	1.49265	0	
2.2900	5.68309	-0.0398039	0	
2.2907	1.73076	-0.636863	0	
2.2913	-3.46152	-2.46784	0	
2.2920	-7.1297	-3.38333	0	
2.2927	-7.74967	-3.0848	0	
2.2933	-7.1297	-2.78627	0	
2.2940	-8.05966	-3.0848	0	
2.2947	-7.1297	-4.29882	0	
2.2953	-7.1297	-4.61725	0	
2.2960	-9.27377	-3.0848	0	
2.2967	-9.58376	-1.55235	0	
2.2973	-7.43968	-4.00029	0	
2.2980	-4.39148	-4.61725	0	
2.2987	0.490813	-2.46784	0	
2.2993	2.3249	-2.16931	0	
2.3000	1.11079	-1.87078	0	
2.3007	2.94488	2.10961	0	
2.3013	7.51718	3.62216	0	
2.3020	8.13715	0.577157	0	
2.3027	6.61305	1.79118	0	
2.3033	5.99308	4.53765	0	
2.3040	6.61305	2.40814	0	
2.3047	9.94541	0.875686	0	
2.3053	11.4953	2.10961	0	
2.3060	5.99308	3.0251	0	
2.3067	2.01491	5.15461	0	
2.3073	3.849	7.60255	0	
2.3080	2.94488	6.0701	0	
2.3087	-1.03329	2.10961	0	
2.3093	-1.93742	1.79118	0	
2.3100	-3.17737	2.10961	0	
2.3107	-5.6056	1.19412	0	
2.3113	-7.1297	1.19412	0	
2.3120	-9.86791	1.79118	0	
2.3127	-10.1779	1.49265	0	
2.3133	-5.6056	1.49265	0	
2.3140	-4.98562	0.278627	0	
2.3147	-10.7979	-0.636863	0	
2.3153	-12.632	0.278627	0	
2.3160	-9.58376	0.278627	0	
2.3167	-6.22557	-1.55235	0	
2.3173	-5.29561	-0.636863	0	
2.3180	-5.91558	1.49265	0	
2.3187	-3.46152	1.19412	0	
2.3193	0.490813	1.19412	0	
2.3200	-1.34328	2.70667	0	
2.3207	-3.77151	2.10961	0	
2.3213	0.490813	1.19412	0	
2.3220	4.77896	1.79118	0	
2.3227	4.77896	3.32363	0	
2.3233	6.30307	5.45314	0	
2.3240	8.13715	5.45314	0	
2.3247	8.42131	2.40814	0	
2.3253	9.94541	2.10961	0	
2.3260	10.5654	5.77157	0	
2.3267	10.8754	7.28412	0	
2.3273	13.0194	4.85608	0	
2.3280	11.1854	1.79118	0	
2.3287	3.53902	2.70667	0	
2.3293	0.180826	4.23912	0	
2.3300	1.11079	2.10961	0	
2.3307	-2.2474	-1.25382	0	
2.3313	-7.74967	-1.87078	0	
2.3320	-10.4879	-3.0848	0	
2.3327	-11.1079	-5.53274	0	
2.3333	-9.86791	-4.61725	0	
2.3340	-8.34381	-1.55235	0	
2.3347	-6.22557	-1.55235	0	
2.3353	-4.98562	-4.29882	0	
2.3360	-6.22557	-6.74676	0	
2.3367	-7.74967	-5.21431	0	
2.3373	-5.29561	-3.38333	0	
2.3380	-2.2474	-4.29882	0	
2.3387	-1.62743	-5.21431	0	
2.3393	0.180826	-5.53274	0	
2.3400	4.77896	-6.74676	0	
2.3407	6.89721	-6.1298	0	
2.3413	4.77896	-2.46784	0	
2.3420	4.77896	-1.55235	0	
2.3427	8.7313	-3.38333	0	
2.3433	12.0895	-2.46784	0	
2.3440	15.4477	-0.636863	0	
2.3447	19.1159	-0.636863	0	
2.3453	20.02	-0.0398039	0	
2.3460	19.4258	0.875686	0	
2.3467	19.1159	0.577157	0	
2.3473	16.6618	0.875686	0	
2.3480	11.4953	2.10961	0	
2.3487	9.04128	2.40814	0	
2.3493	10.2554	1.19412	0	
2.3500	11.1854	-0.636863	0	
2.3507	9.35127	-0.338333	0	
2.3513	6.61305	1.19412	0	
2.3520	4.15899	1.19412	0	
2.3527	0.800799	-0.338333	0	
2.3533	-5.29561	-1.55235	0	
2.3540	-10.4879	-2.78627	0	
2.3547	-9.58376	-3.0848	0	
2.3553	-5.91558	-2.16931	0	
2.3560	-5.6056	-0.955294	0	
2.3567	-6.50972	-0.636863	0	
2.3573	-5.29561	-3.0848	0	
2.3580	-4.70147	-6.44823	0	
2.3587	-3.17737	-5.21431	0	
2.3593	1.11079	-2.46784	0	
2.3600	2.94488	-2.78627	0	
2.3607	1.73076	-4.00029	0	
2.3613	4.46898	-2.46784	0	
2.3620	8.42131	-1.87078	0	
2.3627	5.99308	-1.87078	0	
2.3633	5.06312	0.875686	0	
2.3640	9.94541	3.0251	0	
2.3647	10.8754	2.10961	0	
2.3653	7.51718	2.10961	0	
2.3660	7.51718	2.10961	0	
2.3667	6.30307	0.577157	0	
2.3673	3.25486	0.875686	0	
2.3680	3.849	2.10961	0	
2.3687	4.15899	2.10961	0	
2.3693	1.11079	2.10961	0	
2.3700	1.11079	2.10961	0	
2.3707	3.849	0.577157	0	
2.3713	3.25486	-0.338333	0	
2.3720	2.01491	-0.0398039	0	
2.3727	4.15899	-0.636863	0	
2.3733	4.77896	0.278627	0	
2.3740	0.180826	2.10961	0	
2.3747	-6.22557	1.19412	0	
2.3753	-8.96379	-0.955294	0	
2.3760	-8.05966	-1.55235	0	
2.3767	-8.96379	-1.87078	0	
2.3773	-10.1779	-2.46784	0	
2.3780	-7.43968	-3.0848	0	
2.3787	-2.86738	-2.78627	0	
2.3793	-2.55739	-2.46784	0	
2.3800	-2.55739	-2.46784	0	
2.3807	0.180826	-0.636863	0	
2.3813	1.11079	-0.636863	0	
2.3820	-0.723303	-1.87078	0	
2.3827	1.11079	-0.0398039	0	
2.3833	5.06312	2.40814	0	
2.3840	5.68309	0.577157	0	
2.3847	5.68309	-0.0398039	0	
2.3853	6.30307	2.40814	0	
2.3860	4.77896	1.19412	0	
2.3867	3.849	-1.25382	0	
2.3873	4.15899	1.19412	0	
2.3880	2.94488	1.49265	0	
2.3887	1.42077	-0.636863	0	
2.3893	1.11079	0.577157	0	
2.3900	-0.723303	2.40814	0	
2.3907	-4.39148	-0.636863	0	
2.3913	-6.50972	-3.38333	0	
2.3920	-7.1297	-2.78627	0	
2.3927	-7.74967	-1.25382	0	
2.3933	-8.96379	0.278627	0	
2.3940	-8.96379	-0.0398039	0	
2.3947	-8.05966	-3.38333	0	
2.3953	-10.7979	-4.29882	0	
2.3960	-13.5361	-1.55235	0	
2.3967	-9.27377	-0.0398039	0	
2.3973	-4.39148	-1.87078	0	
2.3980	-5.91558	-3.38333	0	
2.3987	-8.34381	-3.0848	0	
2.3993	-6.22557	-2.46784	0	
2.4000	-1.93742	-1.55235	0	
2.4007	1.73076	0.278627	0	
2.4013	4.77896	1.19412	0	
2.4020	5.68309	0.278627	0	
2.4027	5.99308	1.19412	0	
2.4033	8.42131	3.94059	0	
2.4040	11.1854	4.53765	0	
2.4047	11.1854	3.62216	0	
2.4053	10.8754	5.15461	0	
2.4060	11.7795	5.77157	0	
2.4067	9.04128	3.62216	0	
2.4073	1.42077	2.40814	0	
2.4080	-2.55739	2.70667	0	
2.4087	-1.93742	1.19412	0	
2.4093	-2.55739	1.19412	0	
2.4100	-4.08149	2.10961	0	
2.4107	-3.46152	-0.955294	0	
2.4113	-4.39148	-2.16931	0	
2.4120	-7.43968	1.19412	0	
2.4127	-9.86791	1.79118	0	
2.4133	-14.1561	-0.955294	0	
2.4140	-19.0384	-2.46784	0	
2.4147	-18.1084	-2.78627	0	
2.4153	-15.3702	-4.00029	0	
2.4160	-14.1561	-5.21431	0	
2.4167	-14.1561	-5.21431	0	
2.4173	-13.5361	-4.29882	0	
2.4180	-11.702	-4.29882	0	
2.4187	-8.05966	-5.21431	0	
2.4193	-4.08149	-4.29882	0	
2.4200	-1.62743	-2.46784	0	
2.4207	-0.413316	-2.78627	0	
2.4213	-0.723303	-2.16931	0	
2.4220	-1.03329	-0.636863	0	
2.4227	-0.413316	-1.25382	0	
2.4233	-0.103329	-1.55235	0	
2.4240	0.180826	-0.0398039	0	
2.4247	1.42077	1.19412	0	
2.4253	1.11079	0.875686	0	
2.4260	1.11079	-1.25382	0	
2.4267	2.3249	-2.46784	0	
2.4273	2.01491	0.278627	0	
2.4280	-2.86738	2.70667	0	
2.4287	-7.1297	0.577157	0	
2.4293	-6.50972	-1.25382	0	
2.4300	-7.1297	0.278627	0	
2.4307	-9.86791	-0.0398039	0	
2.4313	-11.1079	-1.55235	0	
2.4320	-10.7979	-0.636863	0	
2.4327	-12.632	-1.55235	0	
2.4333	-14.4661	-3.70176	0	
2.4340	-13.2261	-3.38333	0	
2.4347	-11.702	-0.955294	0	
2.4353	-12.632	-0.0398039	0	
2.4360	-13.5361	-1.25382	0	
2.4367	-11.392	-2.78627	0	
2.4373	-7.1297	-0.636863	0	
2.4380	-4.39148	1.49265	0	
2.4387	-2.86738	-1.25382	0	
2.4393	-0.723303	-3.0848	0	
2.4400	0.800799	0.278627	0	
2.4407	3.25486	2.10961	0	
2.4413	7.51718	1.19412	0	
2.4420	8.7313	0.875686	0	
2.4427	6.61305	0.875686	0	
2.4433	7.82717	1.49265	0	
2.4440	11.1854	3.0251	0	
2.4447	12.7095	2.40814	0	
2.4453	11.7795	0.875686	0	
2.4460	11.1854	0.278627	0	
2.4467	9.66126	0.278627	0	
2.4473	7.51718	0.875686	0	
2.4480	6.89721	3.32363	0	
2.4487	7.51718	4.23912	0	
2.4493	4.46898	1.49265	0	
2.4500	-0.723303	-0.636863	0	
2.4507	-2.55739	-1.55235	0	
2.4513	-4.70147	-1.55235	0	
2.4520	-9.58376	0.278627	0	
2.4527	-7.1297	1.79118	0	
2.4533	1.11079	0.278627	0	
2.4540	0.180826	-1.87078	0	
2.4547	-11.702	-3.38333	0	
2.4553	-22.3966	-4.29882	0	
2.4560	-24.5148	-4.29882	0	
2.4567	-20.5625	-3.70176	0	
2.4573	-15.3702	-4.61725	0	
2.4580	-12.322	-5.53274	0	
2.4587	-9.86791	-4.29882	0	
2.4593	-8.34381	-1.87078	0	
2.4600	-7.43968	0.278627	0	
2.4607	-5.91558	0.278627	0	
2.4613	-4.98562	-0.955294	0	
2.4620	-5.29561	-1.25382	0	
2.4627	-3.46152	0.278627	0	
2.4633	0.180826	0.278627	0	
2.4640	2.01491	-1.55235	0	
2.4647	2.01491	-2.16931	0	
2.4653	0.800799	-0.0398039	0	
2.4660	-1.03329	3.62216	0	
2.4667	-1.62743	4.23912	0	
2.4673	-0.723303	2.40814	0	
2.4680	0.180826	1.49265	0	
2.4687	-1.62743	1.19412	0	
2.4693	-0.723303	-0.636863	0	
2.4700	1.73076	-1.55235	0	
2.4707	-2.2474	-1.25382	0	
2.4713	-7.74967	-0.0398039	0	
2.4720	-3.46152	2.10961	0	
2.4727	1.42077	2.40814	0	
2.4733	-2.2474	-1.55235	0	
2.4740	-5.29561	-2.78627	0	
2.4747	-3.46152	-1.25382	0	
2.4753	-5.91558	-4.29882	0	
2.4760	-9.86791	-7.66225	0	
2.4767	-6.50972	-4.91578	0	
2.4773	-2.55739	-2.46784	0	
2.4780	-1.03329	-4.29882	0	
2.4787	2.01491	-4.29882	0	
2.4793	7.51718	-2.46784	0	
2.4800	10.5654	-3.0848	0	
2.4807	11.7795	-3.70176	0	
2.4813	12.3995	-2.46784	0	
2.4820	14.2336	-0.955294	0	
2.4827	16.9718	1.19412	0	
2.4833	17.5918	3.62216	0	
2.4840	14.8535	2.40814	0	
2.4847	13.9236	-0.955294	0	
2.4853	15.4477	-1.87078	0	
2.4860	16.6618	-0.636863	0	
2.4867	16.3776	0.278627	0	
2.4873	16.0677	0.875686	0	
2.4880	16.0677	0.577157	0	
2.4887	14.2336	-1.55235	0	
2.4893	9.66126	-2.46784	0	
2.4900	5.99308	-3.0848	0	
2.4907	5.06312	-5.21431	0	
2.4913	4.46898	-6.44823	0	
2.4920	3.53902	-4.91578	0	
2.4927	3.25486	-2.78627	0	
2.4933	2.94488	-1.87078	0	
2.4940	1.11079	-1.87078	0	
2.4947	-0.723303	-2.78627	0	
2.4953	-1.34328	-4.29882	0	
2.4960	0.180826	-4.29882	0	
2.4967	2.01491	-4.91578	0	
2.4973	-0.723303	-6.44823	0	
2.4980	-4.39148	-4.61725	0	
2.4987	-0.413316	-1.87078	0	
2.4993	6.61305	-2.78627	0	
2.5000	7.51718	-4.29882	0	
2.5007	5.68309	-1.55235	0	
2.5013	6.89721	0.278627	0	
2.5020	7.82717	-1.55235	0	
2.5027	6.61305	-2.78627	0	
2.5033	7.51718	-1.25382	0	
2.5040	10.5654	0.577157	0	
2.5047	11.4953	2.10961	0	
2.5053	10.8754	3.0251	0	
2.5060	12.0895	2.70667	0	
2.5067	12.3995	3.62216	0	
2.5073	9.35127	4.85608	0	
2.5080	7.51718	5.15461	0	
2.5087	8.42131	4.85608	0	
2.5093	6.61305	3.94059	0	
2.5100	1.42077	2.40814	0	
2.5107	-3.46152	1.79118	0	
2.5113	-7.1297	2.70667	0	
2.5120	-8.34381	2.10961	0	
2.5127	-7.43968	-0.636863	0	
2.5133	-7.74967	-2.78627	0	
2.5140	-8.6538	-2.46784	0	
2.5147	-9.58376	-1.25382	0	
2.5153	-9.86791	0.278627	0	
2.5160	-8.05966	0.278627	0	
2.5167	-5.91558	-1.55235	0	
2.5173	-5.29561	-2.46784	0	
2.5180	-6.22557	-0.338333	0	
2.5187	-6.50972	2.10961	0	
2.5193	-4.39148	2.10961	0	
2.5200	0.180826	1.19412	0	
2.5207	2.3249	2.10961	0	
2.5213	2.3249	1.49265	0	
2.5220	2.63489	0.875686	0	
2.5227	3.53902	2.10961	0	
2.5233	5.68309	3.0251	0	
2.5240	8.13715	3.0251	0	
2.5247	7.51718	5.45314	0	
2.5253	6.30307	6.0701	0	
2.5260	6.61305	3.0251	0	
2.5267	6.30307	2.10961	0	
2.5273	5.37311	3.94059	0	
2.5280	4.77896	3.62216	0	
2.5287	2.01491	2.10961	0	
2.5293	0.180826	-0.0398039	0	
2.5300	0.180826	-1.55235	0	
2.5307	-0.103329	0.278627	0	
2.5313	-0.103329	2.70667	0	
2.5320	0.180826	2.40814	0	
2.5327	-2.55739	3.0251	0	
2.5333	-4.39148	3.62216	0	
2.5340	-0.413316	-0.0398039	0	
2.5347	2.01491	-3.38333	0	
2.5353	-1.62743	-2.46784	0	
2.5360	-5.29561	-1.55235	0	
2.5367	-7.1297	-4.29882	0	
2.5373	-8.6538	-5.53274	0	
2.5380	-6.22557	-4.29882	0	
2.5387	-3.46152	-2.46784	0	
2.5393	-6.81971	-2.46784	0	
2.5400	-8.6538	-3.70176	0	
2.5407	-3.77151	-3.0848	0	
2.5413	-1.03329	-1.87078	0	
2.5420	-2.2474	-2.46784	0	
2.5427	-0.413316	-0.955294	0	
2.5433	2.01491	2.10961	0	
2.5440	2.01491	1.19412	0	
2.5447	2.94488	-0.0398039	0	
2.5453	5.68309	2.10961	0	
2.5460	6.89721	2.40814	0	
2.5467	6.89721	0.278627	0	
2.5473	3.849	-0.338333	0	
2.5480	-0.103329	0.278627	0	
2.5487	-2.2474	-0.636863	0	
2.5493	-2.2474	-0.636863	0	
2.5500	-1.62743	1.19412	0	
2.5507	-1.62743	0.875686	0	
2.5513	-1.62743	-1.55235	0	
2.5520	-3.77151	-4.61725	0	
2.5527	-8.96379	-5.83127	0	
2.5533	-12.942	-4.29882	0	
2.5540	-12.322	-4.29882	0	
2.5547	-12.632	-4.29882	0	
2.5553	-14.1561	-1.55235	0	
2.5560	-11.702	-1.55235	0	
2.5567	-8.34381	-4.29882	0	
2.5573	-8.34381	-4.29882	0	
2.5580	-8.05966	-1.87078	0	
2.5587	-6.22557	-1.55235	0	
2.5593	-6.22557	-0.955294	0	
2.5600	-8.05966	-1.25382	0	
2.5607	-9.27377	-2.78627	0	
2.5613	-7.1297	-2.46784	0	
2.5620	-2.86738	-1.55235	0	
2.5627	-1.03329	-1.25382	0	
2.5633	0.800799	1.19412	0	
2.5640	6.89721	1.79118	0	
2.5647	8.7313	-1.25382	0	
2.5653	3.25486	-0.0398039	0	
2.5660	2.94488	3.0251	0	
2.5667	8.13715	1.19412	0	
2.5673	5.06312	-0.0398039	0	
2.5680	-0.723303	2.10961	0	
2.5687	1.11079	0.278627	0	
2.5693	2.94488	-3.70176	0	
2.5700	2.01491	-4.00029	0	
2.5707	2.94488	-1.87078	0	
2.5713	2.01491	-0.636863	0	
2.5720	-1.62743	-1.87078	0	
2.5727	-4.39148	-3.38333	0	
2.5733	-6.81971	-2.46784	0	
2.5740	-8.05966	-0.636863	0	
2.5747	-5.29561	-2.78627	0	
2.5753	-6.50972	-4.29882	0	
2.5760	-11.702	-2.46784	0	
2.5767	-10.7979	-2.16931	0	
2.5773	-4.70147	-5.53274	0	
2.5780	-0.723303	-5.21431	0	
2.5787	2.01491	-1.55235	0	
2.5793	3.25486	-2.46784	0	
2.5800	2.63489	-4.61725	0	
2.5807	3.25486	-2.46784	0	
2.5813	6.89721	-1.55235	0	
2.5820	10.5654	-3.70176	0	
2.5827	13.0194	-0.636863	0	
2.5833	13.3036	2.40814	0	
2.5840	11.4953	1.19412	0	
2.5847	9.04128	2.10961	0	
2.5853	8.7313	3.0251	0	
2.5860	9.35127	-0.636863	0	
2.5867	7.20719	-1.87078	0	
2.5873	5.68309	1.19412	0	
2.5880	5.68309	1.49265	0	
2.5887	2.01491	-0.636863	0	
2.5893	-2.86738	-1.55235	0	
2.5900	-5.91558	-0.636863	0	
2.5907	-10.7979	-1.25382	0	
2.5913	-14.4661	-3.70176	0	
2.5920	-13.5361	-3.38333	0	
2.5927	-12.942	-1.55235	0	
2.5933	-14.1561	-3.38333	0	
2.5940	-13.8461	-3.70176	0	
2.5947	-15.3702	-0.0398039	0	
2.5953	-17.8242	-1.55235	0	
2.5960	-17.2043	-4.91578	0	
2.5967	-15.0602	-4.00029	0	
2.5973	-13.5361	-2.46784	0	
2.5980	-11.702	-2.78627	0	
2.5987	-8.05966	-0.636863	0	
2.5993	-4.39148	-0.636863	0	
2.6000	-1.93742	-2.46784	0	
2.6007	-1.34328	0.278627	0	
2.6013	1.42077	1.79118	0	
2.6020	6.61305	-0.636863	0	
2.6027	8.42131	-0.636863	0	
2.6033	5.99308	2.40814	0	
2.6040	3.53902	5.77157	0	
2.6047	4.77896	6.98559	0	
2.6053	7.51718	5.45314	0	
2.6060	9.35127	4.53765	0	
2.6067	11.1854	6.0701	0	
2.6073	13.0194	6.36863	0	
2.6080	11.4953	6.68706	0	
2.6087	10.2554	8.81657	0	
2.6093	7.82717	8.51804	0	
2.6100	0.490813	3.62216	0	
2.6107	-5.91558	-0.338333	0	
2.6113	-6.22557	-0.955294	0	
2.6120	-7.1297	-0.636863	0	
2.6127	-8.6538	-0.0398039	0	
2.6133	-7.74967	0.875686	0	
2.6140	-8.96379	0.875686	0	
2.6147	-10.4879	-0.955294	0	
2.6153	-8.6538	-1.87078	0	
2.6160	-8.05966	-0.636863	0	
2.6167	-7.1297	0.278627	0	
2.6173	-2.55739	-0.636863	0	
2.6180	-1.62743	-1.55235	0	
2.6187	-4.39148	-1.87078	0	
2.6193	-1.93742	-0.338333	0	
2.6200	2.01491	2.70667	0	
2.6207	1.73076	2.70667	0	
2.6213	1.11079	1.19412	0	
2.6220	3.25486	2.70667	0	
2.6227	6.61305	6.68706	0	
2.6233	9.35127	9.43353	0	
2.6240	11.7795	7.60255	0	
2.6247	11.7795	2.10961	0	
2.6253	10.2554	1.79118	0	
2.6260	10.2554	5.77157	0	
2.6267	11.7795	6.36863	0	
2.6273	12.0895	4.23912	0	
2.6280	11.1854	3.94059	0	
2.6287	8.13715	3.0251	0	
2.6293	4.15899	2.40814	0	
2.6300	2.01491	2.10961	0	
2.6307	1.11079	-0.636863	0	
2.6313	-0.723303	-4.00029	0	
2.6320	-2.2474	-3.38333	0	
2.6327	-2.86738	-2.46784	0	
2.6333	-5.29561	-4.00029	0	
2.6340	-7.1297	-5.21431	0	
2.6347	-6.81971	-6.1298	0	
2.6353	-6.81971	-6.44823	0	
2.6360	-6.81971	-5.53274	0	
2.6367	-7.74967	-5.21431	0	
2.6373	-8.34381	-4.29882	0	
2.6380	-5.29561	-2.78627	0	
2.6387	-1.62743	-3.70176	0	
2.6393	0.490813	-5.83127	0	
2.6400	3.849	-4.61725	0	
2.6407	5.68309	-1.87078	0	
2.6413	3.849	-1.55235	0	
2.6420	5.37311	-2.46784	0	
2.6427	9.94541	-2.78627	0	
2.6433	11.4953	-1.55235	0	
2.6440	11.1854	-0.338333	0	
2.6447	8.7313	1.19412	0	
2.6453	5.68309	0.278627	0	
2.6460	8.42131	-1.55235	0	
2.6467	11.1854	-1.25382	0	
2.6473	6.61305	1.79118	0	
2.6480	3.849	1.19412	0	
2.6487	6.89721	-1.87078	0	
2.6493	4.77896	-1.55235	0	
2.6500	-1.93742	0.278627	0	
2.6507	-4.39148	-1.55235	0	
2.6513	-4.98562	-4.29882	0	
2.6520	-8.05966	-4.00029	0	
2.6527	-12.012	-1.87078	0	
2.6533	-14.4661	-3.0848	0	
2.6540	-12.012	-5.53274	0	
2.6547	-5.6056	-5.83127	0	
2.6553	-5.29561	-6.44823	0	
2.6560	-9.58376	-8.87627	0	
2.6567	-8.34381	-7.96078	0	
2.6573	-4.39148	-5.21431	0	
2.6580	-2.55739	-5.21431	0	
2.6587	0.800799	-4.29882	0	
2.6593	4.15899	-2.78627	0	
2.6600	5.37311	-3.38333	0	
2.6607	6.30307	-2.46784	0	
2.6613	6.89721	-0.636863	0	
2.6620	6.89721	-1.87078	0	
2.6627	9.35127	-1.55235	0	
2.6633	10.8754	0.875686	0	
2.6640	8.42131	2.10961	0	
2.6647	6.89721	3.0251	0	
2.6653	8.13715	2.40814	0	
2.6660	7.82717	0.278627	0	
2.6667	6.61305	0.875686	0	
2.6673	4.77896	2.70667	0	
2.6680	2.01491	2.10961	0	
2.6687	-0.103329	1.19412	0	
2.6693	-0.723303	0.875686	0	
2.6700	-0.413316	-0.338333	0	
2.6707	-0.723303	-2.46784	0	
2.6713	-1.93742	-5.21431	0	
2.6720	-3.46152	-4.61725	0	
2.6727	-4.70147	-1.87078	0	
2.6733	-5.6056	-3.0848	0	
2.6740	-5.6056	-5.83127	0	
2.6747	-4.39148	-4.29882	0	
2.6753	-2.55739	-3.38333	0	
2.6760	-1.34328	-5.21431	0	
2.6767	-2.55739	-5.83127	0	
2.6773	-4.39148	-5.53274	0	
2.6780	-1.93742	-4.00029	0	
2.6787	2.63489	-0.0398039	0	
2.6793	4.77896	-0.636863	0	
2.6800	7.51718	-1.55235	0	
2.6807	13.9236	3.0251	0	
2.6813	15.1377	4.85608	0	
2.6820	11.1854	-0.636863	0	
2.6827	10.2554	-2.46784	0	
2.6833	11.1854	0.278627	0	
2.6840	10.5654	0.577157	0	
2.6847	11.1854	0.577157	0	
2.6853	12.3995	0.875686	0	
2.6860	11.4953	0.875686	0	
2.6867	10.2554	3.62216	0	
2.6873	9.04128	6.36863	0	
2.6880	6.61305	3.62216	0	
2.6887	5.06312	1.19412	0	
2.6893	2.01491	2.10961	0	
2.6900	-2.55739	0.577157	0	
2.6907	-4.08149	-2.46784	0	
2.6913	-1.93742	-1.87078	0	
2.6920	-1.62743	-0.955294	0	
2.6927	-4.70147	-2.46784	0	
2.6933	-8.6538	-4.00029	0	
2.6940	-8.6538	-4.00029	0	
2.6947	-5.91558	-4.29882	0	
2.6953	-8.6538	-4.00029	0	
2.6960	-13.5361	-3.0848	0	
2.6967	-10.7979	-3.38333	0	
2.6973	-5.6056	-4.29882	0	
2.6980	-6.22557	-4.29882	0	
2.6987	-7.1297	-4.29882	0	
2.6993	-6.81971	-1.55235	0	
2.7000	-7.1297	1.49265	0	
2.7007	-5.29561	0.577157	0	
2.7013	-2.86738	-0.636863	0	
2.7020	-1.93742	0.278627	0	
2.7027	2.01491	-0.955294	0	
2.7033	6.61305	-1.55235	0	
2.7040	7.20719	1.49265	0	
2.7047	8.42131	3.62216	0	
2.7053	9.04128	3.62216	0	
2.7060	5.68309	4.53765	0	
2.7067	4.77896	4.23912	0	
2.7073	3.25486	2.10961	0	
2.7080	-0.723303	3.0251	0	
2.7087	0.180826	5.15461	0	
2.7093	4.46898	4.23912	0	
2.7100	2.01491	3.94059	0	
2.7107	-0.723303	4.53765	0	
2.7113	-0.413316	3.0251	0	
2.7120	-4.70147	0.875686	0	
2.7127	-10.4879	-0.955294	0	
2.7133	-12.942	-3.38333	0	
2.7140	-16.2743	-2.16931	0	
2.7147	-17.5143	1.79118	0	
2.7153	-14.7502	1.79118	0	
2.7160	-15.3702	0.577157	0	
2.7167	-15.6802	2.10961	0	
2.7173	-11.1079	1.19412	0	
2.7180	-8.34381	-0.0398039	0	
2.7187	-9.86791	1.49265	0	
2.7193	-11.392	1.49265	0	
2.7200	-10.7979	-1.55235	0	
2.7207	-7.1297	-2.16931	0	
2.7213	-1.93742	1.49265	0	
2.7220	0.800799	2.40814	0	
2.7227	1.73076	2.10961	0	
2.7233	4.15899	4.85608	0	
2.7240	5.06312	5.45314	0	
2.7247	3.25486	0.278627	0	
2.7253	2.01491	-1.55235	0	
2.7260	2.3249	1.19412	0	
2.7267	2.3249	-0.0398039	0	
2.7273	2.63489	-1.87078	0	
2.7280	2.94488	1.49265	0	
2.7287	1.11079	2.10961	0	
2.7293	-3.46152	-1.25382	0	
2.7300	-8.05966	-1.55235	0	
2.7307	-7.1297	-2.16931	0	
2.7313	-4.98562	-4.61725	0	
2.7320	-8.05966	-4.29882	0	
2.7327	-11.1079	-2.46784	0	
2.7333	-9.58376	-3.70176	0	
2.7340	-11.702	-4.91578	0	
2.7347	-18.4184	-4.29882	0	
2.7353	-19.0384	-2.78627	0	
2.7360	-14.1561	-3.70176	0	
2.7367	-12.942	-4.29882	0	
2.7373	-12.012	-1.55235	0	
2.7380	-5.91558	1.79118	0	
2.7387	-0.723303	0.577157	0	
2.7393	1.11079	-0.955294	0	
2.7400	3.849	0.577157	0	
2.7407	7.20719	0.278627	0	
2.7413	4.77896	-1.87078	0	
2.7420	4.15899	0.278627	0	
2.7427	9.35127	3.62216	0	
2.7433	13.0194	1.79118	0	
2.7440	12.7095	0.875686	0	
2.7447	14.8535	3.32363	0	
2.7453	18.4959	2.10961	0	
2.7460	18.1859	-1.55235	0	
2.7467	14.8535	0.875686	0	
2.7473	11.1854	4.85608	0	
2.7480	9.66126	3.94059	0	
2.7487	8.7313	1.79118	0	
2.7493	2.3249	0.875686	0	
2.7500	-3.17737	1.19412	0	
2.7507	-0.413316	0.577157	0	
2.7513	3.25486	-1.55235	0	
2.7520	1.73076	-3.0848	0	
2.7527	-1.62743	-1.55235	0	
2.7533	-7.1297	-1.25382	0	
2.7540	-11.392	-4.61725	0	
2.7547	-8.96379	-6.74676	0	
2.7553	-3.17737	-4.91578	0	
2.7560	-1.62743	-3.70176	0	
2.7567	-3.77151	-4.29882	0	
2.7573	-8.05966	-4.91578	0	
2.7580	-9.58376	-4.61725	0	
2.7587	-5.29561	-3.70176	0	
2.7593	1.73076	-2.46784	0	
2.7600	5.99308	-1.55235	0	
2.7607	9.04128	-0.0398039	0	
2.7613	12.3995	0.577157	0	
2.7620	16.6618	-1.87078	0	
2.7627	18.4959	-1.87078	0	
2.7633	15.7577	2.10961	0	
2.7640	12.0895	3.94059	0	
2.7647	11.4953	2.70667	0	
2.7653	11.1854	3.94059	0	
2.7660	9.66126	3.94059	0	
2.7667	11.7795	1.49265	0	
2.7673	13.6136	3.0251	0	
2.7680	10.5654	3.62216	0	
2.7687	7.51718	-0.338333	0	
2.7693	6.89721	-1.55235	0	
2.7700	4.77896	-0.0398039	0	
2.7707	1.42077	-0.955294	0	
2.7713	0.180826	-2.16931	0	
2.7720	-1.93742	-1.55235	0	
2.7727	-3.17737	-1.55235	0	
2.7733	-2.55739	0.278627	0	
2.7740	-4.39148	0.875686	0	
2.7747	-7.1297	-0.636863	0	
2.7753	-6.22557	-0.0398039	0	
2.7760	-3.17737	0.875686	0	
2.7767	-1.62743	-0.0398039	0	
2.7773	-0.103329	0.577157	0	
2.7780	-0.723303	0.875686	0	
2.7787	-1.93742	-2.46784	0	
2.7793	1.73076	-0.636863	0	
2.7800	6.30307	3.94059	0	
2.7807	5.99308	3.0251	0	
2.7813	4.77896	2.10961	0	
2.7820	6.30307	3.0251	0	
2.7827	7.51718	0.577157	0	
2.7833	6.89721	0.278627	0	
2.7840	6.89721	5.77157	0	
2.7847	5.37311	7.60255	0	
2.7853	4.77896	3.94059	0	
2.7860	8.42131	1.49265	0	
2.7867	10.5654	1.49265	0	
2.7873	5.99308	3.0251	0	
2.7880	2.94488	4.53765	0	
2.7887	3.849	3.0251	0	
2.7893	2.01491	1.19412	0	
2.7900	-1.03329	3.0251	0	
2.7907	-0.723303	3.94059	0	
2.7913	-4.08149	0.577157	0	
2.7920	-12.322	-0.955294	0	
2.7927	-14.1561	0.278627	0	
2.7933	-11.702	-0.636863	0	
2.7940	-12.942	-1.87078	0	
2.7947	-14.7502	-0.636863	0	
2.7953	-15.3702	-0.338333	0	
2.7960	-16.2743	-1.87078	0	
2.7967	-15.0602	-3.0848	0	
2.7973	-12.632	-3.0848	0	
2.7980	-12.012	-3.0848	0	
2.7987	-8.34381	-3.38333	0	
2.7993	-4.98562	-3.38333	0	
2.8000	-5.29561	-2.78627	0	
2.8007	-1.93742	-2.46784	0	
2.8013	3.53902	-2.46784	0	
2.8020	3.25486	-2.16931	0	
2.8027	2.01491	-1.55235	0	
2.8033	5.68309	-1.25382	0	
2.8040	7.51718	0.875686	0	
2.8047	6.30307	3.32363	0	
2.8053	5.06312	2.10961	0	
2.8060	3.25486	1.19412	0	
2.8067	1.11079	3.0251	0	
2.8073	0.490813	5.15461	0	
2.8080	1.11079	3.62216	0	
2.8087	1.11079	0.577157	0	
2.8093	-1.03329	-1.55235	0	
2.8100	-4.39148	-2.46784	0	
2.8107	-1.62743	-1.55235	0	
2.8113	2.01491	0.577157	0	
2.8120	-1.62743	0.875686	0	
2.8127	-7.1297	-2.46784	0	
2.8133	-8.6538	-5.21431	0	
2.8140	-7.1297	-6.1298	0	
2.8147	-2.86738	-5.53274	0	
2.8153	-1.03329	-4.00029	0	
2.8160	-6.22557	-4.29882	0	
2.8167	-11.392	-6.1298	0	
2.8173	-8.96379	-5.83127	0	
2.8180	-4.39148	-4.29882	0	
2.8187	-3.46152	-4.29882	0	
2.8193	-3.77151	-2.46784	0	
2.8200	-2.86738	-1.55235	0	
2.8207	0.180826	-4.00029	0	
2.8213	2.01491	-2.46784	0	
2.8220	1.73076	0.875686	0	
2.8227	3.849	-0.636863	0	
2.8233	5.99308	-1.55235	0	
2.8240	3.849	0.278627	0	
2.8247	2.63489	0.278627	0	
2.8253	2.01491	-1.55235	0	
2.8260	0.490813	-2.46784	0	
2.8267	4.46898	-0.636863	0	
2.8273	8.42131	1.79118	0	
2.8280	3.25486	1.79118	0	
2.8287	-0.723303	1.19412	0	
2.8293	1.73076	1.19412	0	
2.8300	-1.03329	0.278627	0	
2.8307	-8.34381	0.278627	0	
2.8313	-9.86791	2.40814	0	
2.8320	-8.6538	0.278627	0	
2.8327	-8.96379	-3.38333	0	
2.8333	-8.96379	-2.46784	0	
2.8340	-6.22557	-1.55235	0	
2.8347	-3.46152	-4.29882	0	
2.8353	-7.1297	-3.0848	0	
2.8360	-13.8461	-0.338333	0	
2.8367	-15.3702	-1.55235	0	
2.8373	-13.2261	-2.78627	0	
2.8380	-12.942	-0.636863	0	
2.8387	-9.58376	1.79118	0	
2.8393	-2.55739	1.19412	0	
2.8400	0.180826	-0.338333	0	
2.8407	-0.723303	0.577157	0	
2.8413	-0.413316	2.10961	0	
2.8420	1.11079	1.79118	0	
2.8427	4.46898	1.79118	0	
2.8433	7.51718	3.0251	0	
2.8440	9.04128	3.62216	0	
2.8447	11.4953	3.0251	0	
2.8453	15.7577	3.94059	0	
2.8460	17.5918	5.45314	0	
2.8467	16.3776	6.36863	0	
2.8473	15.7577	5.45314	0	
2.8480	14.8535	2.10961	0	
2.8487	11.4953	0.278627	0	
2.8493	8.13715	1.49265	0	
2.8500	7.20719	2.10961	0	
2.8507	5.68309	0.278627	0	
2.8513	1.73076	-0.338333	0	
2.8520	-1.62743	-0.955294	0	
2.8527	-2.86738	-3.70176	0	
2.8533	-2.55739	-4.29882	0	
2.8540	-2.55739	-3.70176	0	
2.8547	-3.46152	-3.70176	0	
2.8553	-4.08149	-3.38333	0	
2.8560	-5.29561	-4.00029	0	
2.8567	-6.50972	-6.1298	0	
2.8573	-4.39148	-5.21431	0	
2.8580	0.180826	-3.38333	0	
2.8587	3.849	-4.29882	0	
2.8593	4.77896	-2.46784	0	
2.8600	0.800799	-0.338333	0	
2.8607	-2.86738	-2.46784	0	
2.8613	1.11079	-3.70176	0	
2.8620	5.68309	-2.46784	0	
2.8627	7.51718	-2.78627	0	
2.8633	9.94541	-2.46784	0	
2.8640	10.8754	-0.636863	0	
2.8647	6.30307	-1.25382	0	
2.8653	4.15899	-1.55235	0	
2.8660	5.68309	-1.25382	0	
2.8667	3.25486	-2.46784	0	
2.8673	1.73076	-3.0848	0	
2.8680	2.63489	-2.16931	0	
2.8687	1.11079	-4.29882	0	
2.8693	-0.413316	-6.1298	0	
2.8700	-0.413316	-4.29882	0	
2.8707	-2.55739	-1.87078	0	
2.8713	-2.2474	-1.55235	0	
2.8720	0.490813	-3.38333	0	
2.8727	-1.62743	-5.53274	0	
2.8733	-4.39148	-6.44823	0	
2.8740	-3.17737	-5.21431	0	
2.8747	-4.70147	-4.29882	0	
2.8753	-7.43968	-3.70176	0	
2.8760	-6.22557	-3.0848	0	
2.8767	-4.98562	-3.0848	0	
2.8773	-4.39148	-4.29882	0	
2.8780	-1.93742	-4.29882	0	
2.8787	-1.62743	-2.46784	0	
2.8793	-1.93742	-0.636863	0	
2.8800	0.490813	-0.636863	0	
2.8807	0.800799	0.577157	0	
2.8813	-0.723303	2.10961	0	
2.8820	1.11079	2.10961	0	
2.8827	3.53902	1.19412	0	
2.8833	5.99308	2.10961	0	
2.8840	9.04128	3.94059	0	
2.8847	8.13715	3.32363	0	
2.8853	6.30307	3.0251	0	
2.8860	9.35127	4.85608	0	
2.8867	11.7795	4.85608	0	
2.8873	9.35127	3.0251	0	
2.8880	8.42131	2.70667	0	
2.8887	8.42131	3.32363	0	
2.8893	4.46898	3.32363	0	
2.8900	2.01491	3.94059	0	
2.8907	1.11079	3.0251	0	
2.8913	-3.46152	1.19412	0	
2.8920	-6.81971	0.577157	0	
2.8927	-8.6538	0.875686	0	
2.8933	-13.5361	0.278627	0	
2.8940	-17.2043	-2.46784	0	
2.8947	-15.0602	-3.38333	0	
2.8953	-13.8461	0.278627	0	
2.8960	-14.4661	3.62216	0	
2.8967	-12.012	2.10961	0	
2.8973	-9.27377	0.278627	0	
2.8980	-7.1297	3.32363	0	
2.8987	-3.17737	5.15461	0	
2.8993	0.490813	3.62216	0	
2.9000	2.01491	3.0251	0	
2.9007	4.46898	5.77157	0	
2.9013	5.37311	6.68706	0	
2.9020	5.37311	4.53765	0	
2.9027	7.51718	3.0251	0	
2.9033	11.1854	3.0251	0	
2.9040	11.1854	4.85608	0	
2.9047	8.42131	7.60255	0	
2.9053	6.30307	7.90108	0	
2.9060	6.61305	5.15461	0	
2.9067	6.89721	4.85608	0	
2.9073	6.30307	6.36863	0	
2.9080	4.77896	5.45314	0	
2.9087	2.94488	3.0251	0	
2.9093	1.11079	2.70667	0	
2.9100	0.800799	2.40814	0	
2.9107	-0.723303	0.278627	0	
2.9113	-4.70147	-1.87078	0	
2.9120	-4.39148	-0.338333	0	
2.9127	-1.62743	0.577157	0	
2.9133	-3.17737	-1.55235	0	
2.9140	-6.50972	-1.25382	0	
2.9147	-7.74967	1.49265	0	
2.9153	-7.43968	-0.636863	0	
2.9160	-5.91558	-2.46784	0	
2.9167	-3.46152	1.19412	0	
2.9173	-3.17737	0.577157	0	
2.9180	-5.29561	-3.0848	0	
2.9187	-7.1297	-1.25382	0	
2.9193	-7.1297	-0.636863	0	
2.9200	-5.29561	-3.70176	0	
2.9207	-1.03329	-2.46784	0	
2.9213	3.849	-0.0398039	0	
2.9220	2.01491	-1.87078	0	
2.9227	-4.08149	-1.25382	0	
2.9233	-1.62743	1.19412	0	
2.9240	8.42131	-0.338333	0	
2.9247	9.35127	-0.338333	0	
2.9253	5.06312	1.79118	0	
2.9260	8.7313	0.278627	0	
2.9267	12.0895	-1.55235	0	
2.9273	7.20719	-0.636863	0	
2.9280	4.15899	-1.55235	0	
2.9287	3.25486	-1.55235	0	
2.9293	-2.55739	0.577157	0	
2.9300	-8.05966	-1.25382	0	
2.9307	-9.27377	-4.91578	0	
2.9313	-10.1779	-3.38333	0	
2.9320	-10.4879	-1.55235	0	
2.9327	-9.58376	-3.38333	0	
2.9333	-9.86791	-4.00029	0	
2.9340	-9.58376	-4.91578	0	
2.9347	-6.81971	-7.04529	0	
2.9353	-3.46152	-5.21431	0	
2.9360	-0.103329	-4.00029	0	
2.9367	1.42077	-6.74676	0	
2.9373	1.11079	-6.1298	0	
2.9380	-1.62743	-3.0848	0	
2.9387	-4.39148	-5.53274	0	
2.9393	-2.55739	-7.96078	0	
2.9400	2.01491	-3.0848	0	
