0.0000	3.67532	2.4564	1
0.0007	10.0857	-0.592925	0	
0.0013	13.4477	-5.16692	0	
0.0020	8.88913	-5.16692	0	
0.0027	8.88913	-4.25212	0	
0.0033	10.0857	-2.72746	0	
0.0040	1.8519	-3.33732	0	
0.0047	-5.78364	-6.38665	0	
0.0053	-5.15684	-5.47185	0	
0.0060	-3.33343	-2.11759	0	
0.0067	-2.10832	-3.33732	0	
0.0073	-1.79492	-4.86199	0	
0.0080	-4.55853	-2.42252	0	
0.0087	-5.47024	-1.20279	0	
0.0093	-4.55853	-2.72746	0	
0.0100	-7.60705	-4.25212	0	
0.0107	-10.969	-4.86199	0	
0.0113	-8.20535	-4.25212	0	
0.0120	-5.78364	-2.42252	0	
0.0127	-6.38194	-2.72746	0	
0.0133	-5.47024	-1.50772	0	
0.0140	-2.10832	0.931739	0	
0.0147	0.0284908	-0.287992	0	
0.0153	0.0284908	0.321874	0	
0.0160	0.626798	2.15147	0	
0.0167	2.76361	-0.592925	0	
0.0173	3.98871	-2.72746	0	
0.0180	1.8519	-0.287992	0	
0.0187	3.07701	0.321874	0	
0.0193	7.66403	-0.897858	0	
0.0200	8.88913	-0.897858	0	
0.0207	8.57574	-1.50772	0	
0.0213	11.9377	-3.03239	0	
0.0220	14.6728	-1.50772	0	
0.0227	15.5845	1.84654	0	
0.0233	16.2113	3.06627	0	
0.0240	11.9377	2.76134	0	
0.0247	5.52722	1.23667	0	
0.0253	3.07701	-0.287992	0	
0.0260	1.8519	1.23667	0	
0.0267	1.8519	4.89587	0	
0.0273	3.67532	4.89587	0	
0.0280	4.61551	1.54161	0	
0.0287	5.21382	1.23667	0	
0.0293	8.26234	3.98107	0	
0.0300	5.52722	3.67614	0	
0.0307	-2.70663	1.54161	0	
0.0313	-4.55853	3.67614	0	
0.0320	-2.70663	4.286	0	
0.0327	-7.29365	1.84654	0	
0.0333	-11.5673	2.76134	0	
0.0340	-8.83215	4.59093	0	
0.0347	-4.55853	1.54161	0	
0.0353	-2.70663	-0.287992	0	
0.0360	-2.42172	1.84654	0	
0.0367	-3.02003	1.23667	0	
0.0373	-0.883215	-0.592925	0	
0.0380	3.67532	0.931739	0	
0.0387	4.61551	1.54161	0	
0.0393	5.52722	0.0169407	0	
0.0400	11.3109	0.0169407	0	
0.0407	15.2711	0.321874	0	
0.0413	11.9377	-0.592925	0	
0.0420	6.43892	0.321874	0	
0.0427	1.8519	0.321874	0	
0.0433	-2.70663	-1.50772	0	
0.0440	-2.10832	-0.592925	0	
0.0447	0.940197	1.54161	0	
0.0453	-2.10832	-0.287992	0	
0.0460	-7.29365	0.0169407	0	
0.0467	-3.93173	3.98107	0	
0.0473	-1.79492	3.98107	0	
0.0480	-7.60705	3.3712	0	
0.0487	-11.8807	6.1156	0	
0.0493	-10.6556	6.42053	0	
0.0500	-12.479	2.76134	0	
0.0507	-15.8409	1.23667	0	
0.0513	-14.6158	0.321874	0	
0.0520	-11.8807	-1.50772	0	
0.0527	-10.6556	-0.592925	0	
0.0533	-7.92045	1.23667	0	
0.0540	-4.84344	0.0169407	0	
0.0547	-4.84344	-0.897858	0	
0.0553	-5.78364	0.931739	0	
0.0560	-5.47024	1.23667	0	
0.0567	-5.47024	-0.592925	0	
0.0573	-4.55853	-1.50772	0	
0.0580	-3.64682	-0.592925	0	
0.0587	-1.79492	-0.287992	0	
0.0593	0.940197	0.626807	0	
0.0600	3.67532	0.626807	0	
0.0607	5.52722	-1.20279	0	
0.0613	7.35063	-1.81266	0	
0.0620	7.94894	-0.592925	0	
0.0627	5.81213	-1.50772	0	
0.0633	2.76361	-3.94719	0	
0.0640	-1.79492	-4.25212	0	
0.0647	-5.15684	-5.16692	0	
0.0653	-4.24513	-7.30145	0	
0.0660	-3.93173	-5.16692	0	
0.0667	-8.51875	-1.50772	0	
0.0673	-10.3422	-1.50772	0	
0.0680	-6.98025	-1.50772	0	
0.0687	-5.47024	-0.592925	0	
0.0693	-7.29365	-1.20279	0	
0.0700	-6.38194	-1.81266	0	
0.0707	-3.93173	-0.592925	0	
0.0713	-5.47024	-0.287992	0	
0.0720	-8.83215	-0.592925	0	
0.0727	-8.20535	-0.897858	0	
0.0733	-6.69534	-1.20279	0	
0.0740	-7.29365	-1.81266	0	
0.0747	-7.92045	-3.33732	0	
0.0753	-6.06854	-4.86199	0	
0.0760	-2.70663	-4.86199	0	
0.0767	-0.883215	-2.42252	0	
0.0773	0.0284908	1.23667	0	
0.0780	2.1653	2.76134	0	
0.0787	6.12553	1.23667	0	
0.0793	6.75232	-0.592925	0	
0.0800	4.61551	-1.50772	0	
0.0807	5.52722	-3.33732	0	
0.0813	8.88913	-3.64225	0	
0.0820	8.26234	-1.50772	0	
0.0827	4.61551	-1.50772	0	
0.0833	4.61551	-0.592925	0	
0.0840	5.52722	1.54161	0	
0.0847	3.39041	1.23667	0	
0.0853	3.39041	0.931739	0	
0.0860	6.43892	2.76134	0	
0.0867	2.1653	2.15147	0	
0.0873	-6.38194	1.54161	0	
0.0880	-5.78364	3.98107	0	
0.0887	0.34189	3.06627	0	
0.0893	1.2536	-0.287992	0	
0.0900	0.626798	1.54161	0	
0.0907	-0.284908	5.50573	0	
0.0913	-3.64682	5.2008	0	
0.0920	-3.93173	3.98107	0	
0.0927	-3.33343	3.98107	0	
0.0933	-8.20535	3.67614	0	
0.0940	-11.5673	0.321874	0	
0.0947	-7.29365	-2.72746	0	
0.0953	-3.33343	-1.81266	0	
0.0960	-3.64682	-0.287992	0	
0.0967	-3.02003	-1.81266	0	
0.0973	-1.79492	-1.50772	0	
0.0980	0.34189	0.321874	0	
0.0987	4.61551	-0.592925	0	
0.0993	7.03723	-0.592925	0	
0.1000	7.35063	3.06627	0	
0.1007	9.17404	3.06627	0	
0.1013	9.17404	-0.592925	0	
0.1020	8.88913	-1.20279	0	
0.1027	9.80084	-0.287992	0	
0.1033	8.26234	-1.20279	0	
0.1040	4.90042	-1.50772	0	
0.1047	3.67532	0.321874	0	
0.1053	3.07701	2.76134	0	
0.1060	2.4787	2.4564	0	
0.1067	4.30211	0.321874	0	
0.1073	5.52722	-0.592925	0	
0.1080	4.61551	-1.81266	0	
0.1087	2.1653	-3.64225	0	
0.1093	-3.64682	-2.42252	0	
0.1100	-9.11706	-0.592925	0	
0.1107	-6.38194	-1.20279	0	
0.1113	-3.93173	-2.42252	0	
0.1120	-6.38194	-1.81266	0	
0.1127	-6.38194	-1.50772	0	
0.1133	-2.70663	-1.20279	0	
0.1140	-2.70663	0.0169407	0	
0.1147	-2.70663	0.626807	0	
0.1153	0.0284908	0.626807	0	
0.1160	0.0284908	0.321874	0	
0.1167	-2.70663	-1.50772	0	
0.1173	-4.84344	-4.25212	0	
0.1180	-4.84344	-4.86199	0	
0.1187	-3.64682	-4.55705	0	
0.1193	-2.10832	-4.25212	0	
0.1200	-0.883215	-4.25212	0	
0.1207	0.626798	-6.08172	0	
0.1213	-0.284908	-7.91131	0	
0.1220	-3.33343	-6.99652	0	
0.1227	-3.64682	-5.16692	0	
0.1233	-2.10832	-5.16692	0	
0.1240	-3.64682	-5.16692	0	
0.1247	-3.93173	-4.25212	0	
0.1253	-0.883215	-1.50772	0	
0.1260	-2.70663	2.15147	0	
0.1267	-5.15684	4.59093	0	
0.1273	-2.70663	3.98107	0	
0.1280	-3.02003	2.15147	0	
0.1287	-9.11706	1.84654	0	
0.1293	-10.969	1.23667	0	
0.1300	-8.20535	1.23667	0	
0.1307	-7.60705	2.15147	0	
0.1313	-7.29365	4.286	0	
0.1320	-7.92045	6.72546	0	
0.1327	-10.969	7.64026	0	
0.1333	-10.6556	4.89587	0	
0.1340	-6.69534	3.06627	0	
0.1347	-5.15684	4.89587	0	
0.1353	-3.64682	6.72546	0	
0.1360	-0.883215	6.72546	0	
0.1367	-3.93173	5.2008	0	
0.1373	-10.0573	0.0169407	0	
0.1380	-6.38194	-3.33732	0	
0.1387	1.8519	0.321874	0	
0.1393	-1.79492	3.98107	0	
0.1400	-10.969	2.4564	0	
0.1407	-9.43046	2.4564	0	
0.1413	-3.33343	3.06627	0	
0.1420	0.0284908	1.54161	0	
0.1427	3.98871	-0.287992	0	
0.1433	4.90042	-1.50772	0	
0.1440	0.0284908	-1.20279	0	
0.1447	-0.284908	0.321874	0	
0.1453	4.90042	-0.592925	0	
0.1460	6.12553	-2.11759	0	
0.1467	3.67532	0.626807	0	
0.1473	3.39041	2.4564	0	
0.1480	-0.284908	0.321874	0	
0.1487	-8.20535	-0.592925	0	
0.1493	-10.0573	-1.50772	0	
0.1500	-8.20535	-3.94719	0	
0.1507	-10.6556	-3.64225	0	
0.1513	-10.969	-2.42252	0	
0.1520	-4.55853	-3.03239	0	
0.1527	0.0284908	-2.42252	0	
0.1533	-0.284908	0.321874	0	
0.1540	0.940197	0.931739	0	
0.1547	4.30211	1.23667	0	
0.1553	4.90042	2.4564	0	
0.1560	4.90042	0.626807	0	
0.1567	7.03723	-1.20279	0	
0.1573	11.0259	-0.592925	0	
0.1580	14.9862	-1.50772	0	
0.1587	16.2113	-2.42252	0	
0.1593	14.9862	-0.592925	0	
0.1600	16.4962	0.0169407	0	
0.1607	20.1715	-1.50772	0	
0.1613	17.4079	-3.94719	0	
0.1620	8.26234	-6.38665	0	
0.1627	3.98871	-6.08172	0	
0.1633	9.48744	-3.33732	0	
0.1640	13.4477	-3.03239	0	
0.1647	9.48744	-3.33732	0	
0.1653	7.35063	-1.20279	0	
0.1660	7.35063	-1.81266	0	
0.1667	0.34189	-4.86199	0	
0.1673	-6.69534	-6.99652	0	
0.1680	-6.69534	-7.60638	0	
0.1687	-6.06854	-6.08172	0	
0.1693	-4.24513	-4.55705	0	
0.1700	-1.79492	-6.08172	0	
0.1707	-3.02003	-6.08172	0	
0.1713	-2.42172	-2.42252	0	
0.1720	0.940197	-1.50772	0	
0.1727	-1.79492	-3.03239	0	
0.1733	-5.47024	0.321874	0	
0.1740	-1.79492	2.15147	0	
0.1747	-1.51001	-1.50772	0	
0.1753	-2.10832	-2.72746	0	
0.1760	3.67532	-1.20279	0	
0.1767	9.80084	-1.81266	0	
0.1773	11.9377	-3.94719	0	
0.1780	13.1343	-3.64225	0	
0.1787	9.80084	-1.50772	0	
0.1793	4.61551	-2.11759	0	
0.1800	5.52722	-5.16692	0	
0.1807	7.03723	-6.38665	0	
0.1813	6.43892	-4.86199	0	
0.1820	7.94894	-3.94719	0	
0.1827	6.75232	-3.64225	0	
0.1833	1.8519	-3.64225	0	
0.1840	0.0284908	-4.86199	0	
0.1847	0.940197	-4.55705	0	
0.1853	3.07701	-2.11759	0	
0.1860	4.90042	-2.42252	0	
0.1867	2.4787	-4.25212	0	
0.1873	-3.93173	-3.94719	0	
0.1880	-9.11706	-2.72746	0	
0.1887	-10.969	-3.03239	0	
0.1893	-10.0573	-2.11759	0	
0.1900	-6.06854	0.321874	0	
0.1907	-3.64682	-0.592925	0	
0.1913	-4.55853	-0.897858	0	
0.1920	-6.38194	1.84654	0	
0.1927	-5.78364	2.15147	0	
0.1933	-6.38194	-1.50772	0	
0.1940	-8.83215	-1.50772	0	
0.1947	-10.0573	0.0169407	0	
0.1953	-8.20535	-2.42252	0	
0.1960	-3.93173	-2.11759	0	
0.1967	-1.79492	2.15147	0	
0.1973	-3.64682	2.15147	0	
0.1980	-3.64682	-0.592925	0	
0.1987	1.8519	0.931739	0	
0.1993	6.43892	-0.287992	0	
0.2000	6.75232	-3.64225	0	
0.2007	9.17404	-1.81266	0	
0.2013	12.2226	0.626807	0	
0.2020	11.3109	-0.287992	0	
0.2027	10.7125	1.23667	0	
0.2033	11.0259	2.15147	0	
0.2040	9.17404	-2.42252	0	
0.2047	5.52722	-4.25212	0	
0.2053	2.76361	-1.20279	0	
0.2060	1.5385	-2.11759	0	
0.2067	0.940197	-3.94719	0	
0.2073	0.34189	-2.11759	0	
0.2080	-0.284908	-2.42252	0	
0.2087	0.940197	-3.94719	0	
0.2093	0.626798	-1.20279	0	
0.2100	-3.64682	0.626807	0	
0.2107	-6.38194	-0.287992	0	
0.2113	-3.02003	0.931739	0	
0.2120	0.940197	2.15147	0	
0.2127	1.2536	1.23667	0	
0.2133	-0.883215	1.84654	0	
0.2140	-3.33343	1.84654	0	
0.2147	-3.93173	-0.287992	0	
0.2153	-1.19661	0.0169407	0	
0.2160	2.1653	2.15147	0	
0.2167	2.4787	0.321874	0	
0.2173	1.2536	-2.42252	0	
0.2180	3.39041	-0.592925	0	
0.2187	5.21382	1.84654	0	
0.2193	4.61551	0.321874	0	
0.2200	3.39041	-0.592925	0	
0.2207	0.0284908	1.54161	0	
0.2213	-6.38194	1.23667	0	
0.2220	-10.0573	-0.592925	0	
0.2227	-7.92045	0.321874	0	
0.2233	-2.70663	0.321874	0	
0.2240	1.8519	-0.897858	0	
0.2247	2.76361	0.626807	0	
0.2253	-0.598307	3.3712	0	
0.2260	-3.02003	1.54161	0	
0.2267	-4.84344	0.321874	0	
0.2273	-9.11706	3.98107	0	
0.2280	-10.969	5.81067	0	
0.2287	-9.43046	3.3712	0	
0.2293	-9.43046	2.4564	0	
0.2300	-11.8807	3.06627	0	
0.2307	-14.6158	2.15147	0	
0.2313	-19.2028	2.15147	0	
0.2320	-19.2028	3.06627	0	
0.2327	-14.9292	2.76134	0	
0.2333	-11.2539	1.84654	0	
0.2340	-4.55853	0.626807	0	
0.2347	1.5385	1.23667	0	
0.2353	-2.70663	4.286	0	
0.2360	-8.20535	3.3712	0	
0.2367	-1.79492	-1.50772	0	
0.2373	2.1653	-1.50772	0	
0.2380	-0.883215	3.3712	0	
0.2387	-1.19661	4.59093	0	
0.2393	1.8519	2.4564	0	
0.2400	2.1653	1.23667	0	
0.2407	2.76361	0.0169407	0	
0.2413	4.90042	-0.897858	0	
0.2420	7.66403	-0.592925	0	
0.2427	9.80084	0.321874	0	
0.2433	8.88913	-0.592925	0	
0.2440	4.90042	-2.11759	0	
0.2447	3.07701	-2.72746	0	
0.2453	4.61551	-2.11759	0	
0.2460	6.12553	-1.50772	0	
0.2467	4.90042	0.321874	0	
0.2473	0.940197	2.76134	0	
0.2480	-0.284908	3.3712	0	
0.2487	2.4787	2.4564	0	
0.2493	4.61551	3.3712	0	
0.2500	2.4787	3.3712	0	
0.2507	-2.70663	0.931739	0	
0.2513	-10.0573	1.54161	0	
0.2520	-14.6158	3.98107	0	
0.2527	-11.8807	1.84654	0	
0.2533	-3.64682	0.321874	0	
0.2540	2.1653	2.15147	0	
0.2547	7.35063	2.15147	0	
0.2553	9.17404	0.0169407	0	
0.2560	2.76361	0.321874	0	
0.2567	-3.02003	0.321874	0	
0.2573	0.940197	-1.81266	0	
0.2580	3.67532	-1.50772	0	
0.2587	1.2536	-0.287992	0	
0.2593	5.21382	-0.897858	0	
0.2600	10.0857	-1.50772	0	
0.2607	5.81213	-0.592925	0	
0.2613	3.39041	0.0169407	0	
0.2620	7.35063	0.931739	0	
0.2627	8.26234	1.54161	0	
0.2633	8.26234	1.84654	0	
0.2640	8.88913	-0.287992	0	
0.2647	4.61551	-3.33732	0	
0.2653	0.34189	-2.42252	0	
0.2660	0.0284908	0.626807	0	
0.2667	-3.93173	-0.592925	0	
0.2673	-7.29365	-1.81266	0	
0.2680	-3.64682	0.931739	0	
0.2687	-0.883215	3.67614	0	
0.2693	-4.55853	3.06627	0	
0.2700	-8.51875	2.15147	0	
0.2707	-8.20535	3.06627	0	
0.2713	-5.15684	3.67614	0	
0.2720	-3.02003	3.3712	0	
0.2727	-4.84344	2.76134	0	
0.2733	-6.38194	1.84654	0	
0.2740	-0.883215	1.23667	0	
0.2747	5.52722	1.23667	0	
0.2753	4.90042	1.23667	0	
0.2760	1.2536	1.23667	0	
0.2767	3.39041	3.06627	0	
0.2773	9.17404	4.89587	0	
0.2780	12.8494	3.98107	0	
0.2787	12.2226	2.4564	0	
0.2793	9.48744	3.98107	0	
0.2800	8.26234	2.76134	0	
0.2807	8.88913	-2.11759	0	
0.2813	11.0259	-3.94719	0	
0.2820	12.536	-2.42252	0	
0.2827	11.0259	-1.20279	0	
0.2833	8.57574	0.931739	0	
0.2840	6.75232	3.06627	0	
0.2847	3.98871	2.15147	0	
0.2853	1.8519	-1.50772	0	
0.2860	1.8519	-3.33732	0	
0.2867	0.0284908	-1.50772	0	
0.2873	-5.15684	1.23667	0	
0.2880	-9.11706	2.15147	0	
0.2887	-9.43046	2.15147	0	
0.2893	-6.06854	3.06627	0	
0.2900	-0.883215	3.3712	0	
0.2907	2.4787	3.3712	0	
0.2913	2.1653	3.67614	0	
0.2920	0.34189	1.23667	0	
0.2927	-3.64682	-1.50772	0	
0.2933	-7.92045	-0.897858	0	
0.2940	-10.969	-0.592925	0	
0.2947	-14.6158	-3.94719	0	
0.2953	-14.0175	-4.25212	0	
0.2960	-6.38194	-2.72746	0	
0.2967	-0.284908	-2.72746	0	
0.2973	-1.79492	-3.33732	0	
0.2980	-4.24513	-3.33732	0	
0.2987	-4.55853	-4.55705	0	
0.2993	-2.70663	-4.25212	0	
0.3000	3.07701	-1.20279	0	
0.3007	10.7125	-1.50772	0	
0.3013	9.17404	-4.86199	0	
0.3020	2.1653	-6.38665	0	
0.3027	1.8519	-6.38665	0	
0.3033	4.90042	-6.08172	0	
0.3040	1.8519	-3.33732	0	
0.3047	-0.883215	-0.897858	0	
0.3053	2.1653	-3.33732	0	
0.3060	2.1653	-7.60638	0	
0.3067	-1.79492	-8.82611	0	
0.3073	-2.42172	-6.38665	0	
0.3080	-1.79492	-3.94719	0	
0.3087	-5.15684	-4.25212	0	
0.3093	-8.20535	-6.38665	0	
0.3100	-7.29365	-6.38665	0	
0.3107	-6.38194	-4.86199	0	
0.3113	-8.20535	-5.77678	0	
0.3120	-8.20535	-6.99652	0	
0.3127	-5.47024	-6.08172	0	
0.3133	-7.60705	-6.08172	0	
0.3140	-10.3422	-7.30145	0	
0.3147	-7.92045	-7.30145	0	
0.3153	-5.47024	-6.69158	0	
0.3160	-5.47024	-7.30145	0	
0.3167	-2.70663	-6.99652	0	
0.3173	-1.51001	-5.16692	0	
0.3180	-3.02003	-3.64225	0	
0.3187	0.940197	-4.25212	0	
0.3193	8.26234	-4.25212	0	
0.3200	10.0857	-1.50772	0	
0.3207	7.03723	0.0169407	0	
0.3213	6.75232	-1.20279	0	
0.3220	8.88913	-2.11759	0	
0.3227	9.80084	-1.81266	0	
0.3233	8.26234	-2.11759	0	
0.3240	6.12553	-2.72746	0	
0.3247	3.98871	-3.33732	0	
0.3253	4.90042	-2.11759	0	
0.3260	8.26234	0.0169407	0	
0.3267	7.66403	0.0169407	0	
0.3273	3.98871	-0.592925	0	
0.3280	2.76361	-0.592925	0	
0.3287	1.5385	-2.42252	0	
0.3293	-2.70663	-3.94719	0	
0.3300	-5.47024	-1.50772	0	
0.3307	-8.83215	-0.897858	0	
0.3313	-11.8807	-1.50772	0	
0.3320	-8.20535	1.23667	0	
0.3327	-2.70663	3.06627	0	
0.3333	-2.70663	1.84654	0	
0.3340	-2.70663	1.84654	0	
0.3347	3.39041	1.23667	0	
0.3353	6.43892	0.321874	0	
0.3360	2.76361	1.23667	0	
0.3367	-0.883215	1.54161	0	
0.3373	0.626798	-1.50772	0	
0.3380	0.940197	-3.94719	0	
0.3387	-0.284908	-4.55705	0	
0.3393	0.940197	-3.64225	0	
0.3400	6.12553	-1.50772	0	
0.3407	7.66403	-0.592925	0	
0.3413	5.52722	-0.592925	0	
0.3420	2.76361	0.321874	0	
0.3427	-0.284908	0.626807	0	
0.3433	-3.64682	0.0169407	0	
0.3440	-4.24513	0.0169407	0	
0.3447	-3.33343	-0.592925	0	
0.3453	-2.42172	0.0169407	0	
0.3460	-4.55853	2.76134	0	
0.3467	-7.29365	3.3712	0	
0.3473	-4.24513	1.54161	0	
0.3480	0.34189	0.321874	0	
0.3487	-1.79492	-1.20279	0	
0.3493	-5.47024	-4.25212	0	
0.3500	-7.60705	-5.47185	0	
0.3507	-10.969	-2.72746	0	
0.3513	-10.0573	-1.81266	0	
0.3520	-5.47024	-4.25212	0	
0.3527	-4.55853	-4.25212	0	
0.3533	-6.38194	-1.50772	0	
0.3540	-5.47024	-2.11759	0	
0.3547	-4.24513	-3.33732	0	
0.3553	-1.19661	-1.81266	0	
0.3560	-0.284908	-2.42252	0	
0.3567	-4.84344	-4.25212	0	
0.3573	-5.47024	-3.33732	0	
0.3580	-0.883215	-3.03239	0	
0.3587	-1.79492	-4.25212	0	
0.3593	-3.33343	-3.33732	0	
0.3600	2.4787	-2.11759	0	
0.3607	6.43892	-2.42252	0	
0.3613	3.07701	-2.42252	0	
0.3620	-0.883215	-2.11759	0	
0.3627	-3.33343	-0.592925	0	
0.3633	-5.15684	0.321874	0	
0.3640	-8.20535	-2.42252	0	
0.3647	-9.11706	-4.25212	0	
0.3653	-3.93173	-0.592925	0	
0.3660	2.1653	1.54161	0	
0.3667	5.52722	0.626807	0	
0.3673	9.17404	2.15147	0	
0.3680	8.57574	2.76134	0	
0.3687	-0.284908	0.321874	0	
0.3693	-9.74386	-0.592925	0	
0.3700	-10.969	-0.592925	0	
0.3707	-8.51875	0.321874	0	
0.3713	-10.0573	1.23667	0	
0.3720	-15.8409	-0.287992	0	
0.3727	-19.2028	-0.592925	0	
0.3733	-16.4677	2.15147	0	
0.3740	-10.0573	2.4564	0	
0.3747	-2.42172	1.54161	0	
0.3753	1.8519	1.84654	0	
0.3760	0.940197	1.23667	0	
0.3767	3.07701	0.931739	0	
0.3773	8.26234	0.321874	0	
0.3780	6.43892	-2.11759	0	
0.3787	1.2536	-3.33732	0	
0.3793	2.4787	-3.94719	0	
0.3800	4.61551	-4.55705	0	
0.3807	5.21382	-3.03239	0	
0.3813	6.43892	0.0169407	0	
0.3820	6.12553	-0.592925	0	
0.3827	7.94894	-0.287992	0	
0.3833	10.0857	1.23667	0	
0.3840	5.21382	-0.897858	0	
0.3847	0.940197	-2.11759	0	
0.3853	2.76361	0.931739	0	
0.3860	2.76361	1.54161	0	
0.3867	2.1653	0.931739	0	
0.3873	5.52722	3.06627	0	
0.3880	0.940197	4.286	0	
0.3887	-10.6556	3.67614	0	
0.3893	-10.969	3.67614	0	
0.3900	-6.98025	3.3712	0	
0.3907	-11.5673	2.4564	0	
0.3913	-15.2426	2.4564	0	
0.3920	-12.7924	4.286	0	
0.3927	-12.1941	6.42053	0	
0.3933	-10.969	5.50573	0	
0.3940	-6.69534	2.15147	0	
0.3947	-4.84344	0.626807	0	
0.3953	-4.55853	-0.287992	0	
0.3960	-1.51001	-1.81266	0	
0.3967	1.8519	-1.50772	0	
0.3973	1.8519	-0.592925	0	
0.3980	-1.51001	-1.81266	0	
0.3987	-3.02003	-0.287992	0	
0.3993	-1.19661	1.23667	0	
0.4000	-0.883215	0.321874	0	
0.4007	0.0284908	0.931739	0	
0.4013	7.94894	3.3712	0	
0.4020	13.7611	2.15147	0	
0.4027	11.0259	3.06627	0	
0.4033	8.26234	6.42053	0	
0.4040	3.39041	3.67614	0	
0.4047	-5.47024	0.321874	0	
0.4053	-6.69534	2.4564	0	
0.4060	-1.51001	0.626807	0	
0.4067	-1.79492	-4.25212	0	
0.4073	-3.64682	-1.50772	0	
0.4080	-0.598307	3.06627	0	
0.4087	0.626798	1.23667	0	
0.4093	-1.79492	0.931739	0	
0.4100	-2.42172	4.286	0	
0.4107	-2.70663	5.2008	0	
0.4113	-6.38194	3.06627	0	
0.4120	-9.11706	2.15147	0	
0.4127	-7.29365	1.84654	0	
0.4133	-1.51001	2.15147	0	
0.4140	2.76361	3.3712	0	
0.4147	4.61551	3.06627	0	
0.4153	7.03723	0.626807	0	
0.4160	9.17404	1.23667	0	
0.4167	9.17404	3.98107	0	
0.4173	10.3991	4.89587	0	
0.4180	14.0745	3.67614	0	
0.4187	16.2113	2.15147	0	
0.4193	14.0745	0.321874	0	
0.4200	11.9377	0.321874	0	
0.4207	13.1343	3.06627	0	
0.4213	14.3594	3.3712	0	
0.4220	11.9377	1.23667	0	
0.4227	8.26234	1.23667	0	
0.4233	7.94894	2.15147	0	
0.4240	10.3991	3.3712	0	
0.4247	11.9377	6.1156	0	
0.4253	9.80084	6.72546	0	
0.4260	5.21382	3.67614	0	
0.4267	0.0284908	3.67614	0	
0.4273	-5.15684	5.50573	0	
0.4280	-8.20535	2.15147	0	
0.4287	-9.74386	-2.72746	0	
0.4293	-10.969	-3.33732	0	
0.4300	-10.0573	-1.50772	0	
0.4307	-9.11706	-0.592925	0	
0.4313	-10.0573	0.321874	0	
0.4320	-10.6556	0.931739	0	
0.4327	-9.11706	1.54161	0	
0.4333	-7.92045	3.98107	0	
0.4340	-6.98025	3.06627	0	
0.4347	-2.70663	-0.592925	0	
0.4353	3.67532	-0.592925	0	
0.4360	6.43892	0.626807	0	
0.4367	5.81213	-0.287992	0	
0.4373	6.75232	0.931739	0	
0.4380	5.21382	1.54161	0	
0.4387	0.0284908	-1.81266	0	
0.4393	1.2536	-2.42252	0	
0.4400	9.17404	0.321874	0	
0.4407	11.3109	-0.592925	0	
0.4413	9.48744	-2.42252	0	
0.4420	10.0857	-0.897858	0	
0.4427	12.8494	0.0169407	0	
0.4433	15.5845	0.626807	0	
0.4440	15.2711	1.23667	0	
0.4447	8.57574	-0.287992	0	
0.4453	3.39041	-3.94719	0	
0.4460	3.67532	-4.55705	0	
0.4467	2.76361	-2.42252	0	
0.4473	2.76361	0.321874	0	
0.4480	7.66403	1.84654	0	
0.4487	7.66403	1.54161	0	
0.4493	0.626798	0.931739	0	
0.4500	-5.15684	-0.897858	0	
0.4507	-9.74386	-2.42252	0	
0.4513	-16.4677	-1.81266	0	
0.4520	-18.8894	0.321874	0	
0.4527	-14.3309	3.67614	0	
0.4533	-8.83215	5.2008	0	
0.4540	-5.47024	2.15147	0	
0.4547	-2.42172	-0.897858	0	
0.4553	-0.598307	0.626807	0	
0.4560	-4.84344	0.931739	0	
0.4567	-9.11706	-2.42252	0	
0.4573	-6.06854	-2.11759	0	
0.4580	-1.79492	0.0169407	0	
0.4587	-2.70663	-1.50772	0	
0.4593	-3.33343	-2.72746	0	
0.4600	-3.33343	-2.11759	0	
0.4607	-3.64682	-1.50772	0	
0.4613	0.626798	-1.20279	0	
0.4620	4.61551	-1.20279	0	
0.4627	2.76361	-1.20279	0	
0.4633	0.940197	0.626807	0	
0.4640	1.8519	1.84654	0	
0.4647	1.5385	0.321874	0	
0.4653	0.940197	-0.592925	0	
0.4660	0.940197	-2.11759	0	
0.4667	0.940197	-3.64225	0	
0.4673	-0.284908	-2.42252	0	
0.4680	-6.98025	-1.50772	0	
0.4687	-15.5275	-5.16692	0	
0.4693	-15.5275	-5.47185	0	
0.4700	-12.7924	-1.20279	0	
0.4707	-17.3794	-0.592925	0	
0.4713	-17.3794	-2.42252	0	
0.4720	-10.0573	0.321874	0	
0.4727	-9.11706	1.54161	0	
0.4733	-7.60705	-1.50772	0	
0.4740	0.34189	-2.11759	0	
0.4747	0.940197	0.321874	0	
0.4753	-3.64682	-0.592925	0	
0.4760	0.34189	-2.11759	0	
0.4767	6.12553	-1.50772	0	
0.4773	3.67532	-2.11759	0	
0.4780	0.626798	-2.42252	0	
0.4787	1.8519	-1.50772	0	
0.4793	4.30211	-0.897858	0	
0.4800	7.35063	-0.897858	0	
0.4807	11.3109	0.931739	0	
0.4813	11.9377	1.23667	0	
0.4820	9.48744	-1.50772	0	
0.4827	9.80084	-2.42252	0	
0.4833	11.9377	-0.287992	0	
0.4840	10.7125	0.626807	0	
0.4847	6.43892	0.321874	0	
0.4853	2.76361	0.321874	0	
0.4860	3.07701	-0.592925	0	
0.4867	5.21382	-1.81266	0	
0.4873	4.30211	-0.287992	0	
0.4880	-0.883215	2.76134	0	
0.4887	-5.15684	2.76134	0	
0.4893	-4.55853	0.321874	0	
0.4900	-3.93173	-1.50772	0	
0.4907	-4.24513	-0.592925	0	
0.4913	-5.47024	2.4564	0	
0.4920	-7.29365	4.89587	0	
0.4927	-6.38194	3.06627	0	
0.4933	-0.883215	-0.592925	0	
0.4940	1.8519	-1.81266	0	
0.4947	0.940197	0.321874	0	
0.4953	2.1653	2.15147	0	
0.4960	4.61551	0.626807	0	
0.4967	6.43892	-0.287992	0	
0.4973	12.8494	-0.592925	0	
0.4980	17.4079	-4.25212	0	
0.4987	9.48744	-6.99652	0	
0.4993	-2.70663	-5.16692	0	
0.5000	-3.02003	-5.47185	0	
0.5007	4.30211	-7.60638	0	
0.5013	9.17404	-5.16692	0	
0.5020	11.3109	-3.33732	0	
0.5027	11.6243	-5.47185	0	
0.5033	9.17404	-4.55705	0	
0.5040	6.75232	-1.50772	0	
0.5047	2.1653	-2.42252	0	
0.5053	-3.64682	-4.25212	0	
0.5060	-4.55853	-2.72746	0	
0.5067	-2.42172	-3.03239	0	
0.5073	-3.93173	-4.55705	0	
0.5080	-7.29365	-2.42252	0	
0.5087	-7.29365	0.321874	0	
0.5093	-7.92045	-2.11759	0	
0.5100	-10.6556	-4.25212	0	
0.5107	-10.969	-2.72746	0	
0.5113	-9.11706	-1.20279	0	
0.5120	-7.29365	-2.11759	0	
0.5127	-5.78364	-1.50772	0	
0.5133	-3.02003	0.321874	0	
0.5140	-1.79492	-0.287992	0	
0.5147	-4.55853	-2.72746	0	
0.5153	-7.60705	-3.64225	0	
0.5160	-6.98025	-3.33732	0	
0.5167	-3.33343	-3.03239	0	
0.5173	-1.51001	-1.50772	0	
0.5180	-2.70663	-0.592925	0	
0.5187	0.0284908	-2.42252	0	
0.5193	8.26234	-3.03239	0	
0.5200	14.3594	-1.20279	0	
0.5207	16.4962	0.321874	0	
0.5213	18.3481	-0.592925	0	
0.5220	10.3991	-2.72746	0	
0.5227	-3.93173	-4.25212	0	
0.5233	-5.15684	-2.72746	0	
0.5240	2.76361	-3.33732	0	
0.5247	0.940197	-5.77678	0	
0.5253	-5.78364	-2.72746	0	
0.5260	-6.69534	1.23667	0	
0.5267	-8.20535	-2.42252	0	
0.5273	-9.74386	-4.25212	0	
0.5280	-6.38194	0.321874	0	
0.5287	-6.38194	2.4564	0	
0.5293	-8.83215	0.321874	0	
0.5300	-6.06854	1.84654	0	
0.5307	-6.38194	2.76134	0	
0.5313	-13.7041	-0.287992	0	
0.5320	-16.4677	-1.20279	0	
0.5327	-11.2539	1.54161	0	
0.5333	-7.29365	2.76134	0	
0.5340	-3.02003	3.98107	0	
0.5347	4.61551	7.0304	0	
0.5353	9.17404	5.81067	0	
0.5360	7.35063	-0.287992	0	
0.5367	3.07701	-2.72746	0	
0.5373	1.8519	-2.42252	0	
0.5380	4.61551	-2.42252	0	
0.5387	7.03723	-0.897858	0	
0.5393	7.03723	-1.50772	0	
0.5400	8.57574	-4.55705	0	
0.5407	13.7611	-4.25212	0	
0.5413	14.9862	-1.81266	0	
0.5420	8.26234	-1.50772	0	
0.5427	2.76361	-0.592925	0	
0.5433	3.67532	0.321874	0	
0.5440	5.52722	0.931739	0	
0.5447	4.30211	2.76134	0	
0.5453	4.61551	3.3712	0	
0.5460	5.52722	0.931739	0	
0.5467	0.940197	-0.287992	0	
0.5473	-6.06854	2.15147	0	
0.5480	-9.11706	3.06627	0	
0.5487	-8.51875	3.06627	0	
0.5493	-7.29365	5.2008	0	
0.5500	-6.69534	4.89587	0	
0.5507	-7.60705	2.4564	0	
0.5513	-10.969	3.3712	0	
0.5520	-12.7924	5.2008	0	
0.5527	-11.5673	3.3712	0	
0.5533	-10.6556	1.23667	0	
0.5540	-12.1941	0.626807	0	
0.5547	-12.479	-1.50772	0	
0.5553	-10.6556	-2.72746	0	
0.5560	-7.60705	-0.592925	0	
0.5567	-3.64682	1.23667	0	
0.5573	0.626798	0.626807	0	
0.5580	3.07701	-0.897858	0	
0.5587	4.30211	-0.592925	0	
0.5593	4.30211	0.626807	0	
0.5600	3.67532	-1.20279	0	
0.5607	4.30211	-4.25212	0	
0.5613	5.81213	-3.33732	0	
0.5620	4.61551	0.0169407	0	
0.5627	3.39041	-0.592925	0	
0.5633	7.35063	-1.50772	0	
0.5640	11.9377	0.626807	0	
0.5647	8.26234	2.15147	0	
0.5653	2.4787	-0.897858	0	
0.5660	1.5385	-3.03239	0	
0.5667	1.8519	0.321874	0	
0.5673	0.940197	3.06627	0	
0.5680	3.07701	0.0169407	0	
0.5687	5.21382	-2.72746	0	
0.5693	1.8519	-2.42252	0	
0.5700	-2.70663	-1.81266	0	
0.5707	-5.15684	0.626807	0	
0.5713	-6.06854	3.98107	0	
0.5720	-5.47024	3.3712	0	
0.5727	-3.64682	1.84654	0	
0.5733	-3.33343	0.931739	0	
0.5740	-3.64682	-2.11759	0	
0.5747	-2.70663	-3.03239	0	
0.5753	-1.51001	0.0169407	0	
0.5760	-2.70663	1.54161	0	
0.5767	-3.93173	1.54161	0	
0.5773	-2.70663	0.321874	0	
0.5780	0.0284908	-3.03239	0	
0.5787	0.0284908	-4.25212	0	
0.5793	0.34189	-3.94719	0	
0.5800	3.98871	-4.25212	0	
0.5807	8.88913	-3.33732	0	
0.5813	9.80084	-1.50772	0	
0.5820	7.35063	-2.72746	0	
0.5827	5.52722	-3.33732	0	
0.5833	6.43892	-1.50772	0	
0.5840	7.35063	-2.72746	0	
0.5847	4.90042	-3.33732	0	
0.5853	0.34189	-0.897858	0	
0.5860	-2.42172	-2.11759	0	
0.5867	-2.42172	-4.86199	0	
0.5873	-1.79492	-4.25212	0	
0.5880	-3.64682	-3.33732	0	
0.5887	-3.64682	-3.03239	0	
0.5893	1.5385	-0.897858	0	
0.5900	2.76361	-0.592925	0	
0.5907	-6.06854	-4.55705	0	
0.5913	-12.7924	-6.38665	0	
0.5920	-10.3422	-4.25212	0	
0.5927	-10.969	-2.72746	0	
0.5933	-15.5275	-3.64225	0	
0.5940	-12.7924	-3.64225	0	
0.5947	-9.11706	-3.64225	0	
0.5953	-10.969	-4.55705	0	
0.5960	-11.8807	-3.03239	0	
0.5967	-7.60705	-0.897858	0	
0.5973	-2.70663	-4.25212	0	
0.5980	0.940197	-5.16692	0	
0.5987	2.76361	-0.897858	0	
0.5993	4.61551	0.0169407	0	
0.6000	8.88913	-1.20279	0	
0.6007	10.0857	0.321874	0	
0.6013	6.12553	-0.287992	0	
0.6020	5.52722	-1.50772	0	
0.6027	6.43892	-0.287992	0	
0.6033	1.8519	-2.42252	0	
0.6040	1.2536	-5.47185	0	
0.6047	8.26234	-4.25212	0	
0.6053	9.80084	-3.33732	0	
0.6060	4.61551	-1.50772	0	
0.6067	0.940197	4.89587	0	
0.6073	-0.883215	5.81067	0	
0.6080	-2.42172	1.23667	0	
0.6087	-2.70663	0.626807	0	
0.6093	-5.15684	2.15147	0	
0.6100	-9.11706	0.321874	0	
0.6107	-9.11706	-1.50772	0	
0.6113	-6.98025	-0.592925	0	
0.6120	-5.78364	2.15147	0	
0.6127	-4.55853	4.89587	0	
0.6133	-3.33343	3.98107	0	
0.6140	-3.02003	0.0169407	0	
0.6147	-2.70663	-2.72746	0	
0.6153	-2.42172	-3.94719	0	
0.6160	0.0284908	-4.25212	0	
0.6167	3.98871	-3.33732	0	
0.6173	3.39041	-3.03239	0	
0.6180	-2.70663	-4.25212	0	
0.6187	-2.70663	-4.25212	0	
0.6193	3.67532	-2.42252	0	
0.6200	3.39041	-3.03239	0	
0.6207	0.940197	-5.16692	0	
0.6213	9.17404	-2.42252	0	
0.6220	16.4962	3.06627	0	
0.6227	9.80084	1.23667	0	
0.6233	3.67532	-3.33732	0	
0.6240	5.21382	-1.81266	0	
0.6247	0.940197	0.321874	0	
0.6253	-6.98025	-1.50772	0	
0.6260	-4.84344	-1.20279	0	
0.6267	-0.883215	2.76134	0	
0.6273	-2.42172	4.286	0	
0.6280	-3.33343	0.626807	0	
0.6287	-3.93173	-3.64225	0	
0.6293	-7.29365	-3.03239	0	
0.6300	-6.69534	1.54161	0	
0.6307	-2.10832	3.3712	0	
0.6313	-1.79492	3.67614	0	
0.6320	-4.55853	4.89587	0	
0.6327	-5.47024	4.59093	0	
0.6333	-7.92045	3.98107	0	
0.6340	-11.8807	4.286	0	
0.6347	-11.2539	3.06627	0	
0.6353	-3.93173	1.54161	0	
0.6360	0.940197	3.98107	0	
0.6367	-2.70663	5.81067	0	
0.6373	-7.60705	1.84654	0	
0.6380	-7.92045	-1.50772	0	
0.6387	-7.29365	0.321874	0	
0.6393	-6.06854	3.67614	0	
0.6400	-2.10832	2.15147	0	
0.6407	0.940197	-0.287992	0	
0.6413	4.30211	2.76134	0	
0.6420	10.0857	7.0304	0	
0.6427	11.9377	6.1156	0	
0.6433	9.48744	3.06627	0	
0.6440	7.94894	2.76134	0	
0.6447	5.52722	3.06627	0	
0.6453	1.2536	1.54161	0	
0.6460	0.34189	1.23667	0	
0.6467	0.940197	2.4564	0	
0.6473	-1.79492	4.286	0	
0.6480	-3.33343	5.81067	0	
0.6487	-2.70663	6.1156	0	
0.6493	-4.55853	4.59093	0	
0.6500	-7.60705	3.3712	0	
0.6507	-8.20535	4.286	0	
0.6513	-8.20535	4.59093	0	
0.6520	-10.0573	4.286	0	
0.6527	-10.6556	4.89587	0	
0.6533	-6.06854	3.06627	0	
0.6540	-1.19661	-0.592925	0	
0.6547	0.0284908	-0.592925	0	
0.6553	1.8519	0.626807	0	
0.6560	5.21382	1.23667	0	
0.6567	4.61551	1.23667	0	
0.6573	3.67532	0.321874	0	
0.6580	6.75232	0.321874	0	
0.6587	6.75232	1.54161	0	
0.6593	4.61551	1.54161	0	
0.6600	8.26234	0.321874	0	
0.6607	11.9377	1.23667	0	
0.6613	8.88913	-0.287992	0	
0.6620	9.17404	-3.33732	0	
0.6627	12.8494	-1.81266	0	
0.6633	9.80084	0.321874	0	
0.6640	4.30211	-0.592925	0	
0.6647	3.39041	-0.287992	0	
0.6653	0.626798	0.626807	0	
0.6660	-5.47024	-0.592925	0	
0.6667	-7.29365	-1.50772	0	
0.6673	-6.06854	-2.11759	0	
0.6680	-7.29365	-2.42252	0	
0.6687	-10.0573	-0.592925	0	
0.6693	-11.8807	1.23667	0	
0.6700	-11.8807	-0.897858	0	
0.6707	-10.969	-2.42252	0	
0.6713	-12.1941	-1.50772	0	
0.6720	-17.3794	-0.592925	0	
0.6727	-18.2911	-0.592925	0	
0.6733	-14.0175	-0.897858	0	
0.6740	-10.3422	-2.42252	0	
0.6747	-7.92045	-1.81266	0	
0.6753	-4.84344	1.23667	0	
0.6760	-3.93173	0.931739	0	
0.6767	-3.64682	-1.81266	0	
0.6773	0.34189	-1.50772	0	
0.6780	5.21382	-1.81266	0	
0.6787	8.57574	-3.64225	0	
0.6793	11.0259	-3.03239	0	
0.6800	8.26234	-1.81266	0	
0.6807	2.76361	-3.33732	0	
0.6813	3.39041	-3.33732	0	
0.6820	10.7125	-1.20279	0	
0.6827	14.9862	-0.592925	0	
0.6833	14.6728	1.23667	0	
0.6840	14.9862	3.06627	0	
0.6847	12.8494	-1.50772	0	
0.6853	3.67532	-6.38665	0	
0.6860	-3.64682	-4.55705	0	
0.6867	-1.79492	-2.42252	0	
0.6873	2.1653	-3.33732	0	
0.6880	0.940197	-2.42252	0	
0.6887	-1.79492	-1.50772	0	
0.6893	-1.79492	-1.81266	0	
0.6900	0.626798	-0.592925	0	
0.6907	0.940197	0.321874	0	
0.6913	-1.51001	-2.42252	0	
0.6920	-3.93173	-3.03239	0	
0.6927	-3.64682	0.626807	0	
0.6933	-3.33343	2.15147	0	
0.6940	-2.70663	1.54161	0	
0.6947	0.0284908	4.286	0	
0.6953	0.0284908	7.0304	0	
0.6960	-5.15684	5.81067	0	
0.6967	-8.20535	1.84654	0	
0.6973	-4.84344	0.0169407	0	
0.6980	0.940197	1.23667	0	
0.6987	5.81213	2.15147	0	
0.6993	11.9377	2.15147	0	
0.7000	21.0832	3.3712	0	
0.7007	29.317	5.50573	0	
0.7013	27.4936	6.1156	0	
0.7020	18.3481	6.1156	0	
0.7027	9.17404	2.76134	0	
0.7033	-5.47024	-1.50772	0	
0.7040	-21.0262	-1.50772	0	
0.7047	-24.3881	-0.287992	0	
0.7053	-18.2911	0.0169407	0	
0.7060	-13.3907	2.15147	0	
0.7067	-9.74386	1.84654	0	
0.7073	-7.29365	-1.81266	0	
0.7080	-9.74386	-2.42252	0	
0.7087	-17.066	0.321874	0	
0.7093	-24.7015	-0.287992	0	
0.7100	-29.2601	-2.11759	0	
0.7107	-32.9354	-1.81266	0	
0.7113	-35.6705	-0.897858	0	
0.7120	-30.2003	-0.897858	0	
0.7127	-17.3794	-2.42252	0	
0.7133	-3.93173	-2.72746	0	
0.7140	6.43892	-1.81266	0	
0.7147	11.9377	-1.81266	0	
0.7153	19.2598	-0.592925	0	
0.7160	30.8556	0.0169407	0	
0.7167	17.4079	-6.08172	0	
0.7173	-18.2911	-13.417	0	
0.7180	-22.8496	-13.1121	0	
0.7187	4.61551	-10.9606	0	
0.7193	15.2711	-10.9606	0	
0.7200	11.0259	-7.60638	0	
0.7207	15.5845	-2.11759	0	
0.7213	15.5845	0.626807	0	
0.7220	6.75232	-0.287992	0	
0.7227	7.03723	-3.33732	0	
0.7233	10.7125	-4.25212	0	
0.7240	12.2226	-1.20279	0	
0.7247	15.8979	1.84654	0	
0.7253	15.5845	0.931739	0	
0.7260	11.3109	0.626807	0	
0.7267	11.0259	1.23667	0	
0.7273	7.35063	-0.287992	0	
0.7280	-0.883215	-0.592925	0	
0.7287	-0.284908	2.15147	0	
0.7293	4.30211	2.4564	0	
0.7300	0.940197	-1.50772	0	
0.7307	-3.64682	-2.42252	0	
0.7313	-2.70663	0.0169407	0	
0.7320	-2.70663	0.321874	0	
0.7327	-4.84344	-1.50772	0	
0.7333	-3.93173	-1.50772	0	
0.7340	0.34189	1.23667	0	
0.7347	3.98871	2.15147	0	
0.7353	6.43892	-0.287992	0	
0.7360	7.94894	-1.20279	0	
0.7367	8.26234	-0.287992	0	
0.7373	5.81213	-1.20279	0	
0.7380	3.67532	-3.03239	0	
0.7387	5.52722	-1.50772	0	
0.7393	6.43892	0.321874	0	
0.7400	1.8519	-0.592925	0	
0.7407	-0.598307	-2.72746	0	
0.7413	4.30211	-1.50772	0	
0.7420	8.88913	1.54161	0	
0.7427	7.94894	1.84654	0	
0.7433	8.26234	0.321874	0	
0.7440	11.9377	-0.592925	0	
0.7447	11.0259	-1.50772	0	
0.7453	6.75232	-2.42252	0	
0.7460	7.35063	-1.20279	0	
0.7467	9.17404	-0.897858	0	
0.7473	3.67532	-2.42252	0	
0.7480	-5.78364	-0.897858	0	
0.7487	-9.11706	0.321874	0	
0.7493	-6.38194	-3.03239	0	
0.7500	-5.15684	-4.25212	0	
0.7507	-7.29365	-0.592925	0	
0.7513	-10.3422	1.54161	0	
0.7520	-10.969	-0.287992	0	
0.7527	-10.3422	-1.81266	0	
0.7533	-12.7924	-1.81266	0	
0.7540	-14.0175	-2.11759	0	
0.7547	-9.11706	-1.50772	0	
0.7553	-4.55853	0.321874	0	
0.7560	-3.64682	1.23667	0	
0.7567	-3.93173	1.23667	0	
0.7573	-6.38194	-1.50772	0	
0.7580	-5.15684	-3.94719	0	
0.7587	3.98871	-1.50772	0	
0.7593	10.0857	3.06627	0	
0.7600	9.48744	2.15147	0	
0.7607	13.7611	-0.897858	0	
0.7613	18.633	-1.50772	0	
0.7620	14.0745	-3.33732	0	
0.7627	8.26234	-6.08172	0	
0.7633	7.03723	-4.25212	0	
0.7640	5.52722	-2.42252	0	
0.7647	2.76361	-4.25212	0	
0.7653	1.5385	-4.55705	0	
0.7660	0.0284908	-2.42252	0	
0.7667	-2.10832	-1.50772	0	
0.7673	-2.42172	-3.33732	0	
0.7680	0.940197	-3.33732	0	
0.7687	1.8519	-1.50772	0	
0.7693	-1.79492	-1.50772	0	
0.7700	-3.02003	-3.33732	0	
0.7707	0.940197	-3.33732	0	
0.7713	0.626798	-0.897858	0	
0.7720	-1.51001	-0.592925	0	
0.7727	1.2536	-0.592925	0	
0.7733	0.34189	1.23667	0	
0.7740	-5.47024	1.23667	0	
0.7747	-3.64682	-1.20279	0	
0.7753	-3.33343	-1.81266	0	
0.7760	-15.2426	-0.592925	0	
0.7767	-24.9864	0.321874	0	
0.7773	-21.9379	-0.287992	0	
0.7780	-13.7041	-2.42252	0	
0.7787	-4.84344	-3.94719	0	
0.7793	-0.284908	-2.42252	0	
0.7800	-3.64682	-3.33732	0	
0.7807	-6.38194	-5.16692	0	
0.7813	0.0284908	-3.94719	0	
0.7820	8.26234	-2.72746	0	
0.7827	11.9377	-6.08172	0	
0.7833	10.7125	-8.21625	0	
0.7840	7.03723	-6.99652	0	
0.7847	5.81213	-4.55705	0	
0.7853	5.52722	-3.64225	0	
0.7860	0.940197	-5.16692	0	
0.7867	-1.79492	-5.77678	0	
0.7873	2.76361	-2.42252	0	
0.7880	6.12553	-0.897858	0	
0.7887	2.76361	-5.16692	0	
0.7893	0.34189	-6.99652	0	
0.7900	-1.19661	-3.33732	0	
0.7907	-4.84344	-2.42252	0	
0.7913	-4.84344	-4.55705	0	
0.7920	-0.284908	-3.94719	0	
0.7927	-2.10832	-1.50772	0	
0.7933	-10.0573	-3.94719	0	
0.7940	-12.7924	-5.16692	0	
0.7947	-13.7041	-0.592925	0	
0.7953	-15.5275	3.98107	0	
0.7960	-12.479	1.23667	0	
0.7967	-5.15684	-2.42252	0	
0.7973	-1.51001	-2.42252	0	
0.7980	-0.598307	-2.42252	0	
0.7987	0.34189	-4.25212	0	
0.7993	4.61551	-4.25212	0	
0.8000	12.8494	-3.33732	0	
0.8007	16.4962	-1.81266	0	
0.8013	13.1343	-0.592925	0	
0.8020	13.1343	0.0169407	0	
0.8027	16.4962	0.931739	0	
0.8033	16.4962	3.06627	0	
0.8040	15.2711	4.286	0	
0.8047	12.2226	3.06627	0	
0.8053	8.57574	0.626807	0	
0.8060	5.52722	0.321874	0	
0.8067	1.5385	2.15147	0	
0.8073	0.940197	3.98107	0	
0.8080	5.21382	4.89587	0	
0.8087	-0.598307	6.1156	0	
0.8093	-16.4677	7.0304	0	
0.8100	-21.3396	6.72546	0	
0.8107	-18.576	5.81067	0	
0.8113	-19.2028	4.89587	0	
0.8120	-16.1543	3.67614	0	
0.8127	-9.74386	4.89587	0	
0.8133	-7.92045	8.55506	0	
0.8140	-5.15684	7.64026	0	
0.8147	1.5385	3.06627	0	
0.8153	4.61551	3.06627	0	
0.8160	1.8519	5.2008	0	
0.8167	-1.19661	3.98107	0	
0.8173	-0.598307	2.4564	0	
0.8180	4.30211	3.06627	0	
0.8187	7.66403	3.98107	0	
0.8193	7.94894	3.98107	0	
0.8200	9.48744	3.06627	0	
0.8207	6.43892	2.4564	0	
0.8213	-7.29365	3.98107	0	
0.8220	-18.2911	3.67614	0	
0.8227	-15.5275	0.626807	0	
0.8233	-10.969	0.626807	0	
0.8240	-10.3422	2.76134	0	
0.8247	-7.29365	1.23667	0	
0.8253	-4.84344	0.321874	0	
0.8260	-8.51875	3.98107	0	
0.8267	-12.1941	4.286	0	
0.8273	-11.5673	1.23667	0	
0.8280	-9.11706	3.06627	0	
0.8287	-6.06854	3.98107	0	
0.8293	-2.42172	-2.42252	0	
0.8300	0.940197	-3.03239	0	
0.8307	0.940197	2.4564	0	
0.8313	-1.79492	3.3712	0	
0.8320	-1.19661	2.76134	0	
0.8327	-2.70663	3.98107	0	
0.8333	-10.969	1.84654	0	
0.8340	-14.3309	0.321874	0	
0.8347	-7.29365	2.15147	0	
0.8353	-1.79492	-0.287992	0	
0.8360	-1.51001	-3.94719	0	
0.8367	-0.883215	-0.897858	0	
0.8373	-3.64682	1.23667	0	
0.8380	-6.98025	-1.50772	0	
0.8387	-6.38194	-2.42252	0	
0.8393	-3.93173	0.321874	0	
0.8400	0.626798	1.23667	0	
0.8407	9.80084	-2.42252	0	
0.8413	19.2598	-4.25212	0	
0.8420	23.8183	-2.11759	0	
0.8427	22.3083	-0.287992	0	
0.8433	18.633	-1.50772	0	
0.8440	21.0832	-0.592925	0	
0.8447	23.22	2.15147	0	
0.8453	11.3109	1.84654	0	
0.8460	-5.15684	-0.287992	0	
0.8467	-11.8807	-0.287992	0	
0.8473	-13.7041	0.321874	0	
0.8480	-17.3794	0.321874	0	
0.8487	-23.7898	0.321874	0	
0.8493	-35.6705	-1.50772	0	
0.8500	-41.4826	-2.72746	0	
0.8507	-26.2116	-1.50772	0	
0.8513	-5.78364	0.321874	0	
0.8520	-1.19661	-0.897858	0	
0.8527	0.0284908	-1.81266	0	
0.8533	11.9377	-1.20279	0	
0.8540	24.4451	-1.81266	0	
0.8547	24.1317	-2.42252	0	
0.8553	16.4962	-0.287992	0	
0.8560	10.7125	0.931739	0	
0.8567	5.81213	-0.592925	0	
0.8573	-2.70663	-0.897858	0	
0.8580	-11.8807	-0.592925	0	
0.8587	-13.1058	-0.592925	0	
0.8593	-6.38194	1.23667	0	
0.8600	-1.51001	3.98107	0	
0.8607	-0.883215	3.67614	0	
0.8613	1.2536	1.54161	0	
0.8620	10.0857	0.626807	0	
0.8627	17.7213	3.3712	0	
0.8633	19.5447	5.81067	0	
0.8640	20.1715	2.4564	0	
0.8647	19.2598	-3.64225	0	
0.8653	9.17404	-5.16692	0	
0.8660	0.940197	-2.72746	0	
0.8667	8.88913	-0.897858	0	
0.8673	18.3481	-2.42252	0	
0.8680	15.8979	-3.33732	0	
0.8687	14.6728	-0.592925	0	
0.8693	18.0347	0.321874	0	
0.8700	14.6728	-3.33732	0	
0.8707	8.26234	-3.33732	0	
0.8713	8.88913	0.321874	0	
0.8720	12.2226	1.84654	0	
0.8727	14.3594	1.54161	0	
0.8733	12.536	1.84654	0	
0.8740	8.26234	-0.592925	0	
0.8747	9.80084	-2.11759	0	
0.8753	6.43892	1.54161	0	
0.8760	-9.74386	2.4564	0	
0.8767	-18.576	-0.592925	0	
0.8773	-11.5673	0.321874	0	
0.8780	-8.20535	3.06627	0	
0.8787	-9.11706	0.626807	0	
0.8793	-1.79492	-1.81266	0	
0.8800	1.2536	0.0169407	0	
0.8807	-2.42172	3.06627	0	
0.8813	0.0284908	4.89587	0	
0.8820	3.07701	5.81067	0	
0.8827	0.34189	5.2008	0	
0.8833	6.75232	3.06627	0	
0.8840	27.4936	-1.50772	0	
0.8847	38.4911	-7.91131	0	
0.8853	25.6702	-9.43598	0	
0.8860	9.48744	-6.08172	0	
0.8867	13.1343	-6.08172	0	
0.8873	27.4936	-5.16692	0	
0.8880	19.8581	-3.33732	0	
0.8887	-11.2539	-4.25212	0	
0.8893	-25.6132	-3.94719	0	
0.8900	-11.8807	-0.592925	0	
0.8907	-11.8807	0.626807	0	
0.8913	-29.2601	2.4564	0	
0.8920	-24.7015	3.3712	0	
0.8927	-12.479	-3.03239	0	
0.8933	-34.4454	-5.47185	0	
0.8940	-61.939	0.321874	0	
0.8947	-49.7165	1.23667	0	
0.8953	-19.8011	-0.897858	0	
0.8960	-7.92045	3.06627	0	
0.8967	-8.20535	3.67614	0	
0.8973	-6.06854	-3.33732	0	
0.8980	-3.02003	-6.08172	0	
0.8987	-1.19661	-4.55705	0	
0.8993	0.0284908	-3.33732	0	
0.9000	-0.883215	-0.897858	0	
0.9007	-3.33343	-1.20279	0	
0.9013	-1.79492	-2.42252	0	
0.9020	4.90042	-0.592925	0	
0.9027	14.3594	-1.20279	0	
0.9033	21.9949	-4.25212	0	
0.9040	24.1317	-3.33732	0	
0.9047	21.0832	-1.81266	0	
0.9053	16.4962	-0.897858	0	
0.9060	7.94894	2.15147	0	
0.9067	-6.06854	3.67614	0	
0.9073	-17.3794	2.15147	0	
0.9080	-16.4677	3.06627	0	
0.9087	-15.8409	3.98107	0	
0.9093	-30.7986	3.06627	0	
0.9100	-44.8445	4.59093	0	
0.9107	-39.3458	4.89587	0	
0.9113	-30.7986	1.84654	0	
0.9120	-35.6705	0.626807	0	
0.9127	-37.209	0.931739	0	
0.9133	-24.0747	-0.592925	0	
0.9140	-6.98025	0.0169407	0	
0.9147	7.03723	3.3712	0	
0.9153	14.0745	6.72546	0	
0.9160	7.66403	6.42053	0	
0.9167	-3.02003	-0.592925	0	
0.9173	-5.15684	-5.16692	0	
0.9180	0.0284908	-3.03239	0	
0.9187	4.61551	-2.11759	0	
0.9193	6.43892	-4.55705	0	
0.9200	7.35063	-3.64225	0	
0.9207	8.26234	-2.42252	0	
0.9213	9.17404	-4.25212	0	
0.9220	11.9377	-3.33732	0	
0.9227	16.2113	-0.592925	0	
0.9233	17.123	-1.20279	0	
0.9240	14.3594	-0.592925	0	
0.9247	14.6728	0.626807	0	
0.9253	14.6728	-2.11759	0	
0.9260	8.88913	-4.25212	0	
0.9267	3.98871	-2.72746	0	
0.9273	3.39041	-1.50772	0	
0.9280	1.8519	-2.42252	0	
0.9287	0.940197	-2.11759	0	
0.9293	1.5385	-0.897858	0	
0.9300	2.1653	-0.592925	0	
0.9307	3.98871	0.0169407	0	
0.9313	7.03723	2.4564	0	
0.9320	6.75232	3.67614	0	
0.9327	2.4787	3.06627	0	
0.9333	-0.598307	2.15147	0	
0.9340	0.940197	3.06627	0	
0.9347	1.8519	3.3712	0	
0.9353	-2.70663	1.23667	0	
0.9360	-5.15684	-0.592925	0	
0.9367	-1.19661	0.0169407	0	
0.9373	-0.598307	-0.592925	0	
0.9380	-4.55853	-3.33732	0	
0.9387	-5.78364	-4.25212	0	
0.9393	-5.15684	-3.03239	0	
0.9400	-2.42172	-1.50772	0	
0.9407	4.30211	1.23667	0	
0.9413	8.57574	1.23667	0	
0.9420	8.88913	0.321874	0	
0.9427	9.17404	2.15147	0	
0.9433	4.30211	3.06627	0	
0.9440	-7.92045	-1.50772	0	
0.9447	-12.7924	-5.16692	0	
0.9453	-8.20535	-4.25212	0	
0.9460	-7.29365	-3.33732	0	
0.9467	-9.11706	-2.42252	0	
0.9473	-5.47024	0.321874	0	
0.9480	-1.51001	0.321874	0	
0.9487	0.940197	-0.897858	0	
0.9493	4.90042	1.23667	0	
0.9500	2.1653	3.67614	0	
0.9507	-7.29365	0.931739	0	
0.9513	-3.02003	-2.11759	0	
0.9520	15.5845	-0.287992	0	
0.9527	25.3568	3.98107	0	
0.9533	21.9949	5.2008	0	
0.9540	17.4079	2.15147	0	
0.9547	14.0745	1.84654	0	
0.9553	13.7611	6.72546	0	
0.9560	13.4477	8.25013	0	
0.9567	6.43892	3.98107	0	
0.9573	-1.51001	2.15147	0	
0.9580	-7.29365	3.98107	0	
0.9587	-16.4677	5.81067	0	
0.9593	-21.0262	6.72546	0	
0.9600	-13.7041	5.81067	0	
0.9607	-6.38194	2.76134	0	
0.9613	-9.11706	-0.592925	0	
0.9620	-15.5275	-1.50772	0	
0.9627	-17.3794	2.4564	0	
0.9633	-15.5275	6.72546	0	
0.9640	-12.7924	7.64026	0	
0.9647	-8.20535	10.0967	0	
0.9653	0.940197	8.55506	0	
0.9660	6.12553	-6.99652	0	
0.9667	7.35063	-18.9058	0	
0.9673	11.0259	-10.3508	0	
0.9680	14.0745	0.321874	0	
0.9687	18.633	-0.287992	0	
0.9693	28.0919	1.23667	0	
0.9700	22.9066	3.98107	0	
0.9707	-0.598307	0.0169407	0	
0.9713	-8.20535	-0.287992	0	
0.9720	-0.883215	5.81067	0	
0.9727	-10.0573	7.64026	0	
0.9733	-23.7898	5.50573	0	
0.9740	-17.3794	3.06627	0	
0.9747	-6.98025	0.321874	0	
0.9753	-5.78364	0.321874	0	
0.9760	-4.55853	3.06627	0	
0.9767	-1.79492	1.54161	0	
0.9773	-1.19661	0.321874	0	
0.9780	1.5385	1.84654	0	
0.9787	4.61551	2.15147	0	
0.9793	3.67532	1.84654	0	
0.9800	2.76361	0.931739	0	
0.9807	1.5385	-3.03239	0	
0.9813	-0.598307	-4.25212	0	
0.9820	0.626798	-1.50772	0	
0.9827	4.30211	0.0169407	0	
0.9833	4.90042	-0.592925	0	
0.9840	5.81213	-0.897858	0	
0.9847	7.94894	-1.50772	0	
0.9853	5.81213	-2.72746	0	
0.9860	0.940197	-4.25212	0	
0.9867	0.34189	-5.16692	0	
0.9873	2.76361	-2.72746	0	
0.9880	5.81213	-0.592925	0	
0.9887	13.1343	-1.50772	0	
0.9893	24.1317	-2.11759	0	
0.9900	29.317	-1.81266	0	
0.9907	26.8953	-3.64225	0	
0.9913	25.6702	-4.25212	0	
0.9920	26.8953	-2.42252	0	
0.9927	29.0036	-4.25212	0	
0.9933	33.5907	-6.08172	0	
0.9940	39.6877	-4.25212	0	
0.9947	39.6877	-2.11759	0	
0.9953	25.0434	-2.11759	0	
0.9960	1.2536	-2.42252	0	
0.9967	-14.6158	-0.592925	0	
0.9973	-24.7015	1.23667	0	
0.9980	-49.1182	-0.592925	0	
0.9987	-81.4552	-3.94719	0	
0.9993	-95.1878	-4.25212	0	
1.0000	-81.4552	-4.25212	0	
1.0007	-56.7252	-5.47185	0	
1.0013	-36.5822	-6.08172	0	
1.0020	-23.163	-6.08172	0	
1.0027	-14.6158	-6.08172	0	
1.0033	-13.3907	-5.16692	0	
1.0040	-15.2426	-5.16692	0	
1.0047	-6.38194	-4.55705	0	
1.0053	8.26234	-2.42252	0	
1.0060	18.633	-3.33732	0	
1.0067	23.8183	-5.77678	0	
1.0073	19.2598	-4.25212	0	
1.0080	8.88913	-2.42252	0	
1.0087	9.17404	-2.42252	0	
1.0093	11.3109	-2.11759	0	
1.0100	0.626798	-3.64225	0	
1.0107	-8.51875	-6.08172	0	
1.0113	-9.43046	-5.47185	0	
1.0120	-15.2426	-5.77678	0	
1.0127	-24.9864	-7.60638	0	
1.0133	-33.2488	-5.16692	0	
1.0140	-39.6592	-4.25212	0	
1.0147	-35.6705	-6.69158	0	
1.0153	-22.8496	-4.86199	0	
1.0160	-11.2539	-2.42252	0	
1.0167	1.2536	-3.33732	0	
1.0173	7.66403	-3.33732	0	
1.0180	-0.284908	-3.33732	0	
1.0187	-5.78364	-5.16692	0	
1.0193	-1.51001	-4.86199	0	
1.0200	1.5385	-2.72746	0	
1.0207	5.52722	-3.94719	0	
1.0213	11.9377	-5.16692	0	
1.0220	15.8979	-6.08172	0	
1.0227	21.6815	-8.82611	0	
1.0233	27.4936	-9.43598	0	
1.0240	26.2685	-6.08172	0	
1.0247	22.6217	-6.99652	0	
1.0253	14.9862	-9.74091	0	
1.0260	0.940197	-5.16692	0	
1.0267	-7.29365	1.23667	0	
1.0273	-10.3422	-1.81266	0	
1.0280	-14.0175	-3.03239	0	
1.0287	-10.969	4.286	0	
1.0293	-6.69534	5.2008	0	
1.0300	-10.6556	0.0169407	0	
1.0307	-10.3422	0.626807	0	
1.0313	-2.42172	1.84654	0	
1.0320	6.75232	-0.592925	0	
1.0327	22.6217	0.321874	0	
1.0333	34.2175	1.84654	0	
1.0340	27.4936	-0.592925	0	
1.0347	15.5845	-0.592925	0	
1.0353	6.43892	0.626807	0	
1.0360	-3.64682	-0.287992	0	
1.0367	-9.11706	0.0169407	0	
1.0373	-17.3794	0.626807	0	
1.0380	-35.6705	0.931739	0	
1.0387	-38.4341	1.23667	0	
1.0393	-16.4677	0.321874	0	
1.0400	0.940197	-0.287992	0	
1.0407	5.21382	1.23667	0	
1.0413	11.0259	0.626807	0	
1.0420	19.8581	0.0169407	0	
1.0427	25.0434	2.15147	0	
1.0433	24.7585	3.98107	0	
1.0440	17.4079	4.286	0	
1.0447	9.48744	4.286	0	
1.0453	7.35063	2.76134	0	
1.0460	4.90042	0.931739	0	
1.0467	-2.42172	1.84654	0	
1.0473	-6.69534	3.06627	0	
1.0480	-3.33343	3.67614	0	
1.0487	2.4787	4.89587	0	
1.0493	4.30211	6.72546	0	
1.0500	1.5385	9.18187	0	
1.0507	1.5385	8.55506	0	
1.0513	10.7125	6.42053	0	
1.0520	10.3991	7.33533	0	
1.0527	-14.9292	6.42053	0	
1.0533	-36.8956	0.321874	0	
1.0540	-25.2998	-1.50772	0	
1.0547	-4.84344	2.76134	0	
1.0553	-0.883215	4.89587	0	
1.0560	2.4787	5.50573	0	
1.0567	15.5845	6.1156	0	
1.0573	31.1405	4.286	0	
1.0580	47.3232	1.84654	0	
1.0587	57.6939	1.54161	0	
1.0593	55.8705	3.06627	0	
1.0600	49.4601	4.89587	0	
1.0607	44.873	4.89587	0	
1.0613	42.1379	4.89587	0	
1.0620	45.8132	4.286	0	
1.0627	44.5881	1.23667	0	
1.0633	22.3083	-0.592925	0	
1.0640	-1.79492	1.54161	0	
1.0647	-5.78364	3.3712	0	
1.0653	-14.6158	3.06627	0	
1.0660	-57.0386	2.15147	0	
1.0667	-106.185	0.626807	0	
1.0673	-116.243	0.321874	0	
1.0680	-80.5435	1.84654	0	
1.0687	-30.7986	1.54161	0	
1.0693	-1.79492	0.931739	0	
1.0700	-1.19661	1.23667	0	
1.0707	-10.969	-0.592925	0	
1.0713	-15.5275	-3.03239	0	
1.0720	-16.4677	-1.20279	0	
1.0727	-19.2028	0.626807	0	
1.0733	-22.2513	1.23667	0	
1.0740	-22.2513	2.15147	0	
1.0747	-18.576	1.23667	0	
1.0753	-13.3907	-2.42252	0	
1.0760	-7.29365	-4.55705	0	
1.0767	-2.10832	-6.99652	0	
1.0773	-4.55853	-6.38665	0	
1.0780	-10.0573	-3.33732	0	
1.0787	-10.6556	-2.72746	0	
1.0793	-9.74386	-2.72746	0	
1.0800	-9.11706	-0.592925	0	
1.0807	-4.55853	-3.33732	0	
1.0813	-0.284908	-6.08172	0	
1.0820	2.1653	-2.11759	0	
1.0827	6.43892	-0.592925	0	
1.0833	9.48744	-4.86199	0	
1.0840	15.5845	-5.47185	0	
1.0847	32.9924	-2.72746	0	
1.0853	41.2262	-2.72746	0	
1.0860	24.4451	-2.11759	0	
1.0867	7.35063	0.321874	0	
1.0873	6.43892	-0.592925	0	
1.0880	2.4787	-3.94719	0	
1.0887	-8.51875	-4.25212	0	
1.0893	-10.969	-1.81266	0	
1.0900	-5.47024	-0.592925	0	
1.0907	-2.70663	-0.592925	0	
1.0913	-3.33343	-0.592925	0	
1.0920	-4.84344	0.321874	0	
1.0927	-0.598307	2.15147	0	
1.0933	11.6243	3.06627	0	
1.0940	18.0347	0.321874	0	
1.0947	11.9377	-3.03239	0	
1.0953	4.90042	-2.72746	0	
1.0960	3.39041	-3.64225	0	
1.0967	3.67532	-4.55705	0	
1.0973	5.52722	-0.287992	0	
1.0980	7.03723	2.4564	0	
1.0987	7.94894	-0.592925	0	
1.0993	7.35063	-1.81266	0	
1.1000	4.61551	-0.897858	0	
1.1007	4.61551	-2.42252	0	
1.1013	9.80084	-2.42252	0	
1.1020	12.8494	-0.592925	0	
1.1027	7.94894	-0.287992	0	
1.1033	0.940197	0.626807	0	
1.1040	-0.883215	-0.287992	0	
1.1047	1.2536	-3.33732	0	
1.1053	1.5385	-2.42252	0	
1.1060	-2.10832	0.321874	0	
1.1067	-9.11706	-1.20279	0	
1.1073	-21.3396	-3.94719	0	
1.1080	-31.7103	-3.03239	0	
1.1087	-23.7898	-0.287992	0	
1.1093	-5.15684	2.4564	0	
1.1100	3.67532	0.321874	0	
1.1107	3.39041	-5.16692	0	
1.1113	3.67532	-6.08172	0	
1.1120	2.76361	-3.64225	0	
1.1127	2.76361	-3.33732	0	
1.1133	6.75232	-2.72746	0	
1.1140	10.7125	0.321874	0	
1.1147	11.9377	1.84654	0	
1.1153	6.12553	1.54161	0	
1.1160	-3.64682	0.931739	0	
1.1167	-3.33343	-0.897858	0	
1.1173	0.0284908	-2.42252	0	
1.1180	-13.7041	-2.42252	0	
1.1187	-26.2116	-3.94719	0	
1.1193	-11.2539	-5.77678	0	
1.1200	5.52722	-6.99652	0	
1.1207	0.940197	-6.08172	0	
1.1213	-5.78364	-3.64225	0	
1.1220	-0.883215	-2.11759	0	
1.1227	3.39041	-2.42252	0	
1.1233	5.81213	-4.25212	0	
1.1240	8.26234	-4.86199	0	
1.1247	6.12553	-4.25212	0	
1.1253	3.67532	-3.33732	0	
1.1260	7.94894	-3.33732	0	
1.1267	13.4477	-2.72746	0	
1.1273	14.3594	0.931739	0	
1.1280	10.0857	2.15147	0	
1.1287	2.76361	0.0169407	0	
1.1293	-3.33343	-0.287992	0	
1.1300	-1.79492	1.23667	0	
1.1307	0.940197	0.0169407	0	
1.1313	-2.70663	-1.50772	0	
1.1320	-6.69534	0.931739	0	
1.1327	-2.70663	3.06627	0	
1.1333	-1.19661	0.931739	0	
1.1340	-8.83215	-0.592925	0	
1.1347	-12.1941	1.54161	0	
1.1353	-6.06854	2.4564	0	
1.1360	-6.38194	-0.897858	0	
1.1367	-14.3309	-1.50772	0	
1.1373	-12.479	1.54161	0	
1.1380	-4.24513	1.84654	0	
1.1387	-0.883215	0.931739	0	
1.1393	0.0284908	3.98107	0	
1.1400	2.1653	4.89587	0	
1.1407	2.4787	1.23667	0	
1.1413	1.5385	0.321874	0	
1.1420	1.5385	3.3712	0	
1.1427	6.43892	4.286	0	
1.1433	14.6728	3.06627	0	
1.1440	14.6728	1.84654	0	
1.1447	5.21382	0.626807	0	
1.1453	3.39041	0.931739	0	
1.1460	10.3991	1.54161	0	
1.1467	14.6728	0.626807	0	
1.1473	13.7611	0.321874	0	
1.1480	5.81213	-0.287992	0	
1.1487	-8.20535	-4.25212	0	
1.1493	-15.8409	-7.91131	0	
1.1500	-13.3907	-4.86199	0	
1.1507	-11.5673	0.0169407	0	
1.1513	-15.2426	-0.897858	0	
1.1520	-20.1145	-2.42252	0	
1.1527	-21.0262	1.23667	0	
1.1533	-18.2911	4.89587	0	
1.1540	-16.7526	4.89587	0	
1.1547	-18.576	5.81067	0	
1.1553	-15.2426	7.33533	0	
1.1560	-4.55853	7.9452	0	
1.1567	1.8519	6.72546	0	
1.1573	0.626798	3.98107	0	
1.1580	0.940197	3.06627	0	
1.1587	8.26234	3.98107	0	
1.1593	10.3991	4.59093	0	
1.1600	7.66403	4.89587	0	
1.1607	7.35063	3.3712	0	
1.1613	0.940197	-0.592925	0	
1.1620	-11.8807	-1.50772	0	
1.1627	-16.7526	1.54161	0	
1.1633	-11.5673	1.54161	0	
1.1640	-9.11706	-1.81266	0	
1.1647	-12.479	-3.33732	0	
1.1653	-19.5162	-1.50772	0	
1.1660	-26.2116	-0.287992	0	
1.1667	-27.7501	1.23667	0	
1.1673	-24.7015	2.76134	0	
1.1680	-19.5162	3.3712	0	
1.1687	-14.6158	3.67614	0	
1.1693	-10.969	3.98107	0	
1.1700	-3.02003	2.76134	0	
1.1707	5.81213	0.321874	0	
1.1713	10.7125	-0.287992	0	
1.1720	21.9949	-0.287992	0	
1.1727	40.6279	-1.81266	0	
1.1733	44.2747	-2.42252	0	
1.1740	33.9041	-1.50772	0	
1.1747	25.0434	-2.42252	0	
1.1753	19.5447	-2.72746	0	
1.1760	17.123	0.0169407	0	
1.1767	15.5845	0.321874	0	
1.1773	11.9377	-2.42252	0	
1.1780	15.2711	-2.11759	0	
1.1787	23.22	0.321874	0	
1.1793	21.0832	-1.50772	0	
1.1800	17.4079	-6.08172	0	
1.1807	20.1715	-6.38665	0	
1.1813	12.536	-3.33732	0	
1.1820	0.34189	-0.287992	0	
1.1827	1.8519	2.4564	0	
1.1833	7.03723	3.98107	0	
1.1840	3.67532	2.15147	0	
1.1847	0.940197	-0.287992	0	
1.1853	1.8519	1.23667	0	
1.1860	3.39041	1.84654	0	
1.1867	4.90042	0.626807	0	
1.1873	4.61551	2.4564	0	
1.1880	3.39041	4.89587	0	
1.1887	4.61551	6.42053	0	
1.1893	3.39041	7.9452	0	
1.1900	-1.51001	6.72546	0	
1.1907	-6.06854	1.23667	0	
1.1913	-9.74386	-0.897858	0	
1.1920	-10.6556	2.76134	0	
1.1927	-8.20535	4.59093	0	
1.1933	-6.69534	3.06627	0	
1.1940	-4.24513	2.15147	0	
1.1947	1.8519	2.15147	0	
1.1953	3.07701	3.06627	0	
1.1960	-0.883215	3.98107	0	
1.1967	-0.883215	2.76134	0	
1.1973	1.2536	1.23667	0	
1.1980	0.0284908	1.54161	0	
1.1987	-1.79492	1.23667	0	
1.1993	-0.284908	-0.287992	0	
1.2000	0.0284908	0.0169407	0	
1.2007	-2.10832	-0.592925	0	
1.2013	-5.47024	-1.81266	0	
1.2020	-6.38194	0.321874	0	
1.2027	-2.10832	2.15147	0	
1.2033	0.940197	1.23667	0	
1.2040	-2.10832	0.321874	0	
1.2047	-2.70663	-1.20279	0	
1.2053	4.61551	-2.42252	0	
1.2060	8.26234	0.931739	0	
1.2067	4.90042	2.76134	0	
1.2073	2.76361	0.321874	0	
1.2080	3.67532	-0.897858	0	
1.2087	4.61551	-1.50772	0	
1.2093	8.88913	-2.42252	0	
1.2100	12.536	0.0169407	0	
1.2107	10.3991	3.3712	0	
1.2113	3.39041	3.98107	0	
1.2120	-6.69534	2.4564	0	
1.2127	-18.2911	-0.897858	0	
1.2133	-28.6618	-5.16692	0	
1.2140	-40.5709	-7.30145	0	
1.2147	-48.4914	-6.69158	0	
1.2153	-42.3943	-6.08172	0	
1.2160	-29.2601	-6.99652	0	
1.2167	-23.7898	-5.16692	0	
1.2173	-23.163	-1.81266	0	
1.2180	-17.3794	-2.11759	0	
1.2187	-10.0573	-5.16692	0	
1.2193	-5.15684	-4.86199	0	
1.2200	4.61551	-3.33732	0	
1.2207	20.7698	-4.25212	0	
1.2213	28.4053	-3.94719	0	
1.2220	23.22	-3.64225	0	
1.2227	16.4962	-6.08172	0	
1.2233	14.0745	-4.25212	0	
1.2240	11.6243	-1.50772	0	
1.2247	5.52722	-5.16692	0	
1.2253	-3.64682	-8.52118	0	
1.2260	-9.43046	-4.55705	0	
1.2267	-5.47024	-1.81266	0	
1.2273	1.5385	-2.42252	0	
1.2280	3.67532	-1.50772	0	
1.2287	2.76361	-0.897858	0	
1.2293	3.67532	0.321874	0	
1.2300	5.52722	3.3712	0	
1.2307	5.81213	2.15147	0	
1.2313	3.98871	-2.11759	0	
1.2320	2.1653	-1.20279	0	
1.2327	1.8519	1.84654	0	
1.2333	3.07701	0.321874	0	
1.2340	6.43892	-4.86199	0	
1.2347	4.61551	-6.99652	0	
1.2353	-8.51875	-3.94719	0	
1.2360	-17.3794	-1.20279	0	
1.2367	-9.43046	-3.03239	0	
1.2373	-0.883215	-4.86199	0	
1.2380	-3.02003	-3.64225	0	
1.2387	-3.64682	-2.11759	0	
1.2393	3.39041	-2.42252	0	
1.2400	9.80084	-2.72746	0	
1.2407	9.48744	-0.592925	0	
1.2413	5.52722	0.321874	0	
1.2420	3.07701	-1.50772	0	
1.2427	3.39041	-2.42252	0	
1.2433	4.90042	-0.592925	0	
1.2440	8.88913	-1.50772	0	
1.2447	12.536	-3.03239	0	
1.2453	11.9377	-0.897858	0	
1.2460	11.3109	0.931739	0	
1.2467	11.6243	-0.287992	0	
1.2473	7.03723	0.0169407	0	
1.2480	0.0284908	0.321874	0	
1.2487	-1.79492	-3.03239	0	
1.2493	-1.19661	-4.25212	0	
1.2500	-2.70663	-1.81266	0	
1.2507	-4.55853	-1.20279	0	
1.2513	-5.47024	-3.94719	0	
1.2520	-3.64682	-4.25212	0	
1.2527	-2.42172	-2.42252	0	
1.2533	-4.24513	-2.42252	0	
1.2540	-3.64682	-2.42252	0	
1.2547	1.8519	-0.592925	0	
1.2553	3.67532	0.321874	0	
1.2560	-0.598307	0.626807	0	
1.2567	-3.64682	1.23667	0	
1.2573	-5.15684	-3.33732	0	
1.2580	-6.69534	-7.30145	0	
1.2587	-3.93173	-3.33732	0	
1.2593	0.626798	-0.287992	0	
1.2600	0.0284908	-5.16692	0	
1.2607	-2.70663	-6.99652	0	
1.2613	-2.42172	-3.03239	0	
1.2620	-3.64682	-0.592925	0	
1.2627	-10.0573	-1.20279	0	
1.2633	-14.9292	-0.592925	0	
1.2640	-18.8894	-0.287992	0	
1.2647	-28.0635	-1.81266	0	
1.2653	-33.8471	-2.11759	0	
1.2660	-28.0635	-1.50772	0	
1.2667	-21.653	-2.72746	0	
1.2673	-22.8496	-3.94719	0	
1.2680	-21.3396	-2.42252	0	
1.2687	-13.3907	-0.592925	0	
1.2693	-6.06854	0.931739	0	
1.2700	1.8519	3.98107	0	
1.2707	19.2598	4.59093	0	
1.2713	42.4513	1.84654	0	
1.2720	54.9588	5.50573	0	
1.2727	50.3718	11.0115	0	
1.2733	36.9526	6.42053	0	
1.2740	26.2685	2.4564	0	
1.2747	24.1317	8.85999	0	
1.2753	24.4451	11.3164	0	
1.2760	15.5845	2.76134	0	
1.2767	3.98871	-7.60638	0	
1.2773	3.39041	-13.417	0	
1.2780	5.52722	-11.2656	0	
1.2787	3.07701	-3.94719	0	
1.2793	3.67532	0.626807	0	
1.2800	6.43892	1.84654	0	
1.2807	9.80084	3.67614	0	
1.2813	11.6243	2.4564	0	
1.2820	1.8519	0.321874	0	
1.2827	-14.3309	2.15147	0	
1.2833	-18.8894	3.98107	0	
1.2840	-14.3309	0.931739	0	
1.2847	-11.8807	-0.897858	0	
1.2853	-10.0573	1.23667	0	
1.2860	-8.83215	2.4564	0	
1.2867	-7.29365	1.84654	0	
1.2873	-2.10832	2.76134	0	
1.2880	1.8519	3.3712	0	
1.2887	2.76361	1.84654	0	
1.2893	5.52722	2.15147	0	
1.2900	7.35063	6.72546	0	
1.2907	7.35063	8.55506	0	
1.2913	4.61551	3.06627	0	
1.2920	-10.3422	-3.33732	0	
1.2927	-28.0635	-5.16692	0	
1.2933	-30.7986	-3.33732	0	
1.2940	-29.2601	-1.81266	0	
1.2947	-33.5337	-0.592925	0	
1.2953	-35.0722	1.23667	0	
1.2960	-33.8471	0.321874	0	
1.2967	-30.2003	-4.25212	0	
1.2973	-16.4677	-6.69158	0	
1.2980	-0.883215	-5.77678	0	
1.2987	3.39041	-2.42252	0	
1.2993	6.43892	1.84654	0	
1.3000	14.6728	1.54161	0	
1.3007	16.2113	-2.11759	0	
1.3013	10.3991	-2.72746	0	
1.3020	8.26234	-1.50772	0	
1.3027	8.57574	-2.42252	0	
1.3033	1.2536	-4.25212	0	
1.3040	-14.9292	-4.55705	0	
1.3047	-32.9354	-4.25212	0	
1.3053	-39.3458	-3.94719	0	
1.3060	-29.2601	-4.25212	0	
1.3067	-14.6158	-3.03239	0	
1.3073	-10.0573	0.321874	0	
1.3080	-11.8807	0.321874	0	
1.3087	-11.2539	-2.11759	0	
1.3093	-9.43046	-3.33732	0	
1.3100	-8.51875	-4.25212	0	
1.3107	-6.38194	-3.33732	0	
1.3113	-0.284908	0.321874	0	
1.3120	5.21382	1.84654	0	
1.3127	2.76361	1.23667	0	
1.3133	-3.33343	1.54161	0	
1.3140	-2.42172	0.931739	0	
1.3147	2.4787	1.84654	0	
1.3153	1.8519	4.89587	0	
1.3160	-0.598307	4.286	0	
1.3167	0.626798	1.84654	0	
1.3173	0.940197	2.76134	0	
1.3180	-1.79492	2.15147	0	
1.3187	-4.55853	0.321874	0	
1.3193	-5.47024	2.76134	0	
1.3200	-0.883215	5.2008	0	
1.3207	6.43892	5.50573	0	
1.3213	10.3991	7.33533	0	
1.3220	12.536	5.81067	0	
1.3227	15.5845	-2.72746	0	
1.3233	15.5845	-7.30145	0	
1.3240	17.4079	-2.42252	0	
1.3247	31.4539	2.76134	0	
1.3253	44.2747	3.06627	0	
1.3260	36.6392	3.67614	0	
1.3267	19.8581	3.67614	0	
1.3273	9.17404	2.15147	0	
1.3280	3.07701	2.4564	0	
1.3287	5.52722	2.4564	0	
1.3293	16.2113	-0.287992	0	
1.3300	20.1715	-1.50772	0	
1.3307	14.6728	0.321874	0	
1.3313	11.6243	1.23667	0	
1.3320	11.0259	0.321874	0	
1.3327	8.88913	-1.50772	0	
1.3333	10.0857	-1.50772	0	
1.3340	14.3594	0.321874	0	
1.3347	14.6728	1.23667	0	
1.3353	10.7125	-1.81266	0	
1.3360	3.98871	-5.16692	0	
1.3367	-0.883215	-4.25212	0	
1.3373	-3.33343	-0.592925	0	
1.3380	-9.74386	2.15147	0	
1.3387	-22.5647	1.23667	0	
1.3393	-29.2601	-0.287992	0	
1.3400	-23.7898	-0.592925	0	
1.3407	-14.9292	-0.897858	0	
1.3413	-9.74386	-1.50772	0	
1.3420	-6.06854	-1.50772	0	
1.3427	-0.883215	-0.897858	0	
1.3433	0.940197	-2.11759	0	
1.3440	-1.79492	-3.94719	0	
1.3447	-3.33343	-4.25212	0	
1.3453	-0.883215	-3.33732	0	
1.3460	-2.70663	-3.33732	0	
1.3467	-5.15684	-3.94719	0	
1.3473	-0.883215	-2.42252	0	
1.3480	4.90042	-1.20279	0	
1.3487	9.17404	-1.50772	0	
1.3493	10.3991	-2.11759	0	
1.3500	2.76361	-4.25212	0	
1.3507	-8.83215	-4.86199	0	
1.3513	-12.7924	-1.50772	0	
1.3520	-11.8807	0.0169407	0	
1.3527	-12.7924	-2.11759	0	
1.3533	-12.1941	-3.33732	0	
1.3540	-11.8807	-3.03239	0	
1.3547	-13.7041	-1.50772	0	
1.3553	-13.7041	0.931739	0	
1.3560	-10.969	1.54161	0	
1.3567	-6.69534	2.15147	0	
1.3573	-4.55853	3.06627	0	
1.3580	-6.06854	2.76134	0	
1.3587	-3.64682	2.76134	0	
1.3593	4.61551	2.15147	0	
1.3600	8.88913	-0.592925	0	
1.3607	5.21382	-1.81266	0	
1.3613	1.2536	0.0169407	0	
1.3620	3.07701	-0.592925	0	
1.3627	10.0857	-1.50772	0	
1.3633	15.5845	-1.50772	0	
1.3640	15.5845	-3.33732	0	
1.3647	11.9377	-4.25212	0	
1.3653	9.17404	-1.20279	0	
1.3660	8.88913	-0.592925	0	
1.3667	10.7125	-1.50772	0	
1.3673	9.17404	-0.287992	0	
1.3680	5.52722	-0.897858	0	
1.3687	4.90042	-3.64225	0	
1.3693	3.67532	-3.64225	0	
1.3700	1.5385	-2.42252	0	
1.3707	0.0284908	-0.897858	0	
1.3713	-6.69534	1.54161	0	
1.3720	-11.5673	1.23667	0	
1.3727	-6.38194	-0.287992	0	
1.3733	-2.10832	3.06627	0	
1.3740	-2.10832	5.81067	0	
1.3747	1.8519	1.54161	0	
1.3753	2.1653	-1.81266	0	
1.3760	-2.42172	1.23667	0	
1.3767	0.940197	4.89587	0	
1.3773	7.35063	4.59093	0	
1.3780	6.12553	2.15147	0	
1.3787	4.30211	1.23667	0	
1.3793	5.52722	1.23667	0	
1.3800	4.90042	0.626807	0	
1.3807	7.35063	-0.592925	0	
1.3813	12.536	-0.897858	0	
1.3820	14.6728	0.0169407	0	
1.3827	14.9862	0.626807	0	
1.3833	11.6243	-0.592925	0	
1.3840	2.4787	-1.81266	0	
1.3847	0.626798	-3.03239	0	
1.3853	6.12553	-4.25212	0	
1.3860	6.12553	-4.25212	0	
1.3867	0.940197	-3.94719	0	
1.3873	-0.284908	-5.16692	0	
1.3880	-0.598307	-6.08172	0	
1.3887	0.0284908	-4.55705	0	
1.3893	1.2536	-3.33732	0	
1.3900	-1.79492	-3.64225	0	
1.3907	-10.0573	-3.94719	0	
1.3913	-15.8409	-3.33732	0	
1.3920	-15.5275	-3.33732	0	
1.3927	-10.0573	-3.33732	0	
1.3933	-3.02003	-2.72746	0	
1.3940	-0.598307	-2.42252	0	
1.3947	-0.284908	-3.33732	0	
1.3953	0.34189	-4.25212	0	
1.3960	1.5385	-4.25212	0	
1.3967	5.52722	-4.86199	0	
1.3973	10.0857	-5.16692	0	
1.3980	11.6243	-2.42252	0	
1.3987	11.6243	0.321874	0	
1.3993	9.48744	-3.64225	0	
1.4000	4.61551	-8.82611	0	
1.4007	-1.79492	-6.99652	0	
1.4013	-12.479	-3.33732	0	
1.4020	-20.4279	-3.64225	0	
1.4027	-14.9292	-3.64225	0	
1.4033	-4.24513	-2.42252	0	
1.4040	-0.598307	-4.86199	0	
1.4047	-0.598307	-6.99652	0	
1.4053	-2.10832	-4.25212	0	
1.4060	-7.29365	-3.33732	0	
1.4067	-7.60705	-6.08172	0	
1.4073	-3.64682	-5.47185	0	
1.4080	-2.70663	-3.33732	0	
1.4087	-6.06854	-3.33732	0	
1.4093	-8.20535	-4.25212	0	
1.4100	-6.98025	-2.72746	0	
1.4107	-2.42172	0.626807	0	
1.4113	-0.883215	1.23667	0	
1.4120	-3.33343	0.626807	0	
1.4127	-5.15684	1.23667	0	
1.4133	-6.98025	0.626807	0	
1.4140	-9.43046	-2.42252	0	
1.4147	-8.83215	-1.81266	0	
1.4153	-4.84344	0.0169407	0	
1.4160	-1.19661	-2.42252	0	
1.4167	0.940197	-5.16692	0	
1.4173	0.940197	-5.16692	0	
1.4180	-1.51001	-6.08172	0	
1.4187	-3.64682	-6.38665	0	
1.4193	-3.64682	-4.25212	0	
1.4200	0.940197	-0.287992	0	
1.4207	7.94894	3.06627	0	
1.4213	11.0259	4.89587	0	
1.4220	11.0259	4.89587	0	
1.4227	11.0259	6.42053	0	
1.4233	10.7125	9.4868	0	
1.4240	10.7125	11.6213	0	
1.4247	10.7125	9.79173	0	
1.4253	7.94894	6.1156	0	
1.4260	6.12553	3.98107	0	
1.4267	5.81213	4.89587	0	
1.4273	2.76361	4.89587	0	
1.4280	-1.79492	2.4564	0	
1.4287	-3.93173	2.15147	0	
1.4293	-4.24513	5.50573	0	
1.4300	-3.64682	7.33533	0	
1.4307	-2.10832	5.50573	0	
1.4313	-3.93173	3.06627	0	
1.4320	-5.78364	1.54161	0	
1.4327	-3.64682	2.15147	0	
1.4333	-3.93173	3.06627	0	
1.4340	-8.20535	1.23667	0	
1.4347	-5.78364	0.321874	0	
1.4353	-0.284908	1.54161	0	
1.4360	-3.64682	1.23667	0	
1.4367	-8.83215	-0.592925	0	
1.4373	-7.29365	0.321874	0	
1.4380	-3.64682	0.626807	0	
1.4387	-0.883215	1.23667	0	
1.4393	0.626798	3.3712	0	
1.4400	1.8519	3.06627	0	
1.4407	4.30211	0.626807	0	
1.4413	3.67532	0.321874	0	
1.4420	0.0284908	0.321874	0	
1.4427	-0.883215	1.23667	0	
1.4433	1.5385	3.3712	0	
1.4440	1.5385	2.15147	0	
1.4447	0.940197	0.321874	0	
1.4453	2.76361	1.84654	0	
1.4460	1.8519	0.626807	0	
1.4467	0.940197	-2.72746	0	
1.4473	0.940197	-2.72746	0	
1.4480	-3.02003	-2.42252	0	
1.4487	-6.98025	-4.25212	0	
1.4493	-6.38194	-3.94719	0	
1.4500	-4.55853	-1.50772	0	
1.4507	-6.38194	-0.592925	0	
1.4513	-12.7924	-2.42252	0	
1.4520	-18.2911	-4.25212	0	
1.4527	-14.6158	-3.94719	0	
1.4533	-6.69534	-3.33732	0	
1.4540	-4.84344	-4.25212	0	
1.4547	-6.06854	-4.25212	0	
1.4553	-2.70663	-2.42252	0	
1.4560	0.940197	-2.42252	0	
1.4567	0.626798	-2.72746	0	
1.4573	2.76361	-2.11759	0	
1.4580	8.26234	-2.72746	0	
1.4587	8.26234	-3.64225	0	
1.4593	2.76361	-1.50772	0	
1.4600	-3.64682	-0.287992	0	
1.4607	-11.8807	-2.42252	0	
1.4613	-12.479	-3.03239	0	
1.4620	-1.19661	-1.50772	0	
1.4627	5.81213	-2.42252	0	
1.4633	2.76361	-3.33732	0	
1.4640	3.67532	-0.897858	0	
1.4647	8.26234	0.321874	0	
1.4653	4.61551	-2.11759	0	
1.4660	0.34189	-3.64225	0	
1.4667	3.39041	-3.64225	0	
1.4673	3.39041	-2.72746	0	
1.4680	-1.79492	-0.897858	0	
1.4687	-2.70663	0.321874	0	
1.4693	-2.10832	-0.592925	0	
1.4700	-6.06854	-0.592925	0	
1.4707	-10.6556	0.931739	0	
1.4713	-9.74386	3.06627	0	
1.4720	-3.93173	1.84654	0	
1.4727	0.940197	-1.50772	0	
1.4733	0.940197	-0.897858	0	
1.4740	2.1653	0.0169407	0	
1.4747	6.75232	-1.81266	0	
1.4753	7.03723	-1.20279	0	
1.4760	4.61551	2.4564	0	
1.4767	6.12553	2.15147	0	
1.4773	5.81213	-1.20279	0	
1.4780	0.626798	-0.592925	0	
1.4787	-3.64682	2.15147	0	
1.4793	-6.06854	1.84654	0	
1.4800	-6.38194	-0.897858	0	
1.4807	-1.79492	-1.50772	0	
1.4813	0.940197	1.23667	0	
1.4820	-2.70663	2.15147	0	
1.4827	-7.29365	0.321874	0	
1.4833	-6.98025	-0.592925	0	
1.4840	-1.79492	0.626807	0	
1.4847	1.8519	1.23667	0	
1.4853	0.940197	1.23667	0	
1.4860	-2.42172	1.84654	0	
1.4867	-1.79492	3.06627	0	
1.4873	-1.19661	2.76134	0	
1.4880	-5.47024	1.54161	0	
1.4887	-6.38194	3.06627	0	
1.4893	-0.883215	5.81067	0	
1.4900	0.0284908	4.286	0	
1.4907	-4.55853	2.15147	0	
1.4913	-5.47024	3.98107	0	
1.4920	-5.15684	3.67614	0	
1.4927	-10.969	-1.81266	0	
1.4933	-12.7924	-3.03239	0	
1.4940	-5.47024	3.06627	0	
1.4947	0.0284908	3.98107	0	
1.4953	-0.598307	-0.592925	0	
1.4960	1.8519	-0.592925	0	
1.4967	3.67532	1.23667	0	
1.4973	-1.79492	-1.20279	0	
1.4980	-1.51001	-2.42252	0	
1.4987	5.81213	0.0169407	0	
1.4993	2.76361	0.321874	0	
1.5000	-5.47024	-1.50772	0	
1.5007	-0.883215	-1.50772	0	
1.5013	7.03723	-0.592925	0	
1.5020	6.43892	-1.50772	0	
1.5027	3.07701	-2.42252	0	
1.5033	-4.55853	-3.03239	0	
1.5040	-13.3907	-4.25212	0	
1.5047	-7.60705	-3.33732	0	
1.5053	3.67532	-1.20279	0	
1.5060	3.67532	-2.11759	0	
1.5067	2.76361	-2.42252	0	
1.5073	4.61551	0.0169407	0	
1.5080	2.76361	-0.287992	0	
1.5087	2.4787	-3.33732	0	
1.5093	2.76361	-2.72746	0	
1.5100	-5.47024	-0.592925	0	
1.5107	-11.2539	-0.592925	0	
1.5113	-6.38194	-0.592925	0	
1.5120	-1.79492	-0.287992	0	
1.5127	0.626798	-2.11759	0	
1.5133	5.21382	-3.33732	0	
1.5140	4.30211	-4.25212	0	
1.5147	-2.70663	-7.30145	0	
1.5153	-3.64682	-9.13105	0	
1.5160	3.67532	-6.99652	0	
1.5167	8.26234	-5.16692	0	
1.5173	9.17404	-6.38665	0	
1.5180	10.3991	-6.38665	0	
1.5187	11.0259	-5.77678	0	
1.5193	11.0259	-5.16692	0	
1.5200	13.7611	-5.16692	0	
1.5207	15.5845	-4.86199	0	
1.5213	13.7611	-3.94719	0	
1.5220	13.1343	-1.50772	0	
1.5227	14.9862	0.0169407	0	
1.5233	15.5845	0.931739	0	
1.5240	15.8979	1.23667	0	
1.5247	12.8494	-1.20279	0	
1.5253	5.52722	-3.33732	0	
1.5260	4.30211	-1.20279	0	
1.5267	7.35063	-0.592925	0	
1.5273	2.4787	-2.42252	0	
1.5280	-4.55853	-0.287992	0	
1.5287	-3.64682	2.76134	0	
1.5293	-1.79492	1.23667	0	
1.5300	-4.84344	1.84654	0	
1.5307	-6.98025	4.89587	0	
1.5313	-5.47024	4.89587	0	
1.5320	-3.02003	4.59093	0	
1.5327	-1.79492	6.72546	0	
1.5333	-2.42172	6.42053	0	
1.5340	-0.883215	5.81067	0	
1.5347	4.30211	5.2008	0	
1.5353	4.61551	2.4564	0	
1.5360	-2.10832	-1.20279	0	
1.5367	-6.98025	-2.11759	0	
1.5373	-6.38194	-1.50772	0	
1.5380	-4.84344	0.0169407	0	
1.5387	-5.47024	2.15147	0	
1.5393	-10.3422	3.06627	0	
1.5400	-16.7526	2.4564	0	
1.5407	-17.9777	-0.592925	0	
1.5413	-16.4677	-2.42252	0	
1.5420	-19.8011	1.54161	0	
1.5427	-20.1145	3.3712	0	
1.5433	-12.7924	-1.81266	0	
1.5440	-11.5673	-2.42252	0	
1.5447	-16.7526	2.76134	0	
1.5453	-12.479	2.15147	0	
1.5460	-2.70663	-0.287992	0	
1.5467	-0.883215	2.15147	0	
1.5473	-4.24513	3.06627	0	
1.5480	-3.33343	1.54161	0	
1.5487	3.67532	1.54161	0	
1.5493	11.6243	0.321874	0	
1.5500	10.3991	-0.592925	0	
1.5507	0.940197	0.626807	0	
1.5513	-5.47024	0.626807	0	
1.5520	-8.20535	0.931739	0	
1.5527	-7.60705	1.84654	0	
1.5533	-3.64682	0.321874	0	
1.5540	-2.70663	-0.592925	0	
1.5547	-2.70663	2.15147	0	
1.5553	4.90042	1.84654	0	
1.5560	14.3594	-0.592925	0	
1.5567	14.6728	1.54161	0	
1.5573	13.4477	3.3712	0	
1.5580	14.0745	1.54161	0	
1.5587	10.3991	1.23667	0	
1.5593	5.21382	1.54161	0	
1.5600	4.30211	-1.50772	0	
1.5607	5.52722	-2.42252	0	
1.5613	7.35063	-0.592925	0	
1.5620	8.88913	0.321874	0	
1.5627	10.0857	1.23667	0	
1.5633	11.9377	1.84654	0	
1.5640	11.0259	1.23667	0	
1.5647	8.88913	1.23667	0	
1.5653	10.0857	1.54161	0	
1.5660	9.48744	1.84654	0	
1.5667	8.26234	3.3712	0	
1.5673	12.536	6.1156	0	
1.5680	12.8494	5.81067	0	
1.5687	2.4787	3.67614	0	
1.5693	-2.10832	2.15147	0	
1.5700	5.21382	2.4564	0	
1.5707	9.48744	3.06627	0	
1.5713	2.76361	3.06627	0	
1.5720	-11.2539	3.06627	0	
1.5727	-26.2116	4.89587	0	
1.5733	-30.2003	5.2008	0	
1.5740	-22.2513	3.06627	0	
1.5747	-14.6158	3.06627	0	
1.5753	-10.3422	3.67614	0	
1.5760	-5.47024	0.321874	0	
1.5767	-0.598307	-0.592925	0	
1.5773	2.4787	2.4564	0	
1.5780	5.52722	1.23667	0	
1.5787	5.52722	-1.50772	0	
1.5793	4.61551	0.321874	0	
1.5800	7.66403	1.23667	0	
1.5807	10.0857	-3.64225	0	
1.5813	4.90042	-6.08172	0	
1.5820	0.626798	-3.64225	0	
1.5827	4.61551	-1.50772	0	
1.5833	8.88913	-3.33732	0	
1.5840	3.98871	-6.38665	0	
1.5847	-2.42172	-7.91131	0	
1.5853	-0.284908	-7.60638	0	
1.5860	4.90042	-6.08172	0	
1.5867	3.67532	-3.64225	0	
1.5873	0.626798	-3.33732	0	
1.5880	0.940197	-6.08172	0	
1.5887	0.34189	-6.08172	0	
1.5893	0.0284908	-1.81266	0	
1.5900	3.07701	-0.897858	0	
1.5907	-0.883215	-4.25212	0	
1.5913	-10.3422	-3.33732	0	
1.5920	-8.83215	-0.287992	0	
1.5927	-1.19661	-1.50772	0	
1.5933	-2.42172	-4.25212	0	
1.5940	-3.93173	-5.77678	0	
1.5947	-0.883215	-6.08172	0	
1.5953	-2.70663	-5.16692	0	
1.5960	-8.20535	-4.25212	0	
1.5967	-13.1058	-6.08172	0	
1.5973	-20.4279	-6.99652	0	
1.5980	-24.7015	-4.25212	0	
1.5987	-19.2028	-2.42252	0	
1.5993	-12.7924	-3.94719	0	
1.6000	-9.11706	-5.16692	0	
1.6007	-4.84344	-4.25212	0	
1.6013	-1.19661	-2.72746	0	
1.6020	1.8519	-4.25212	0	
1.6027	4.61551	-6.08172	0	
1.6033	3.67532	-4.25212	0	
1.6040	2.1653	-1.81266	0	
1.6047	3.67532	-3.94719	0	
1.6053	5.52722	-5.16692	0	
1.6060	5.52722	-4.25212	0	
1.6067	2.76361	-3.03239	0	
1.6073	-1.51001	-0.897858	0	
1.6080	-1.79492	1.23667	0	
1.6087	1.8519	0.931739	0	
1.6093	5.52722	0.626807	0	
1.6100	9.17404	1.23667	0	
1.6107	8.26234	-0.592925	0	
1.6113	0.34189	-3.03239	0	
1.6120	-4.55853	-3.33732	0	
1.6127	-2.70663	-1.50772	0	
1.6133	-2.42172	0.931739	0	
1.6140	-2.70663	1.84654	0	
1.6147	-2.10832	0.321874	0	
1.6153	-4.24513	-2.11759	0	
1.6160	-4.84344	-2.72746	0	
1.6167	-3.33343	-1.50772	0	
1.6173	-3.93173	0.626807	0	
1.6180	-2.70663	1.54161	0	
1.6187	1.5385	0.626807	0	
1.6193	2.1653	0.321874	0	
1.6200	1.2536	-0.592925	0	
1.6207	3.67532	-3.33732	0	
1.6213	5.52722	-5.77678	0	
1.6220	6.43892	-5.47185	0	
1.6227	7.66403	-3.64225	0	
1.6233	6.43892	-3.33732	0	
1.6240	3.98871	-4.86199	0	
1.6247	4.61551	-3.03239	0	
1.6253	5.52722	0.321874	0	
1.6260	4.30211	-0.592925	0	
1.6267	2.1653	-2.42252	0	
1.6273	0.34189	-3.64225	0	
1.6280	-1.51001	-6.08172	0	
1.6287	-1.79492	-5.77678	0	
1.6293	-3.02003	-2.42252	0	
1.6300	-4.84344	-2.42252	0	
1.6307	-3.02003	-3.64225	0	
1.6313	-1.79492	-2.42252	0	
1.6320	-8.20535	-1.50772	0	
1.6327	-12.7924	-1.81266	0	
1.6333	-4.55853	-1.50772	0	
1.6340	1.8519	-1.50772	0	
1.6347	-2.10832	0.321874	0	
1.6353	-1.79492	2.4564	0	
1.6360	5.81213	2.15147	0	
1.6367	7.35063	0.931739	0	
1.6373	4.61551	0.931739	0	
1.6380	5.52722	1.54161	0	
1.6387	4.61551	1.23667	0	
1.6393	1.8519	0.931739	0	
1.6400	6.12553	2.76134	0	
1.6407	6.75232	5.81067	0	
1.6413	-3.93173	5.50573	0	
1.6420	-10.3422	2.76134	0	
1.6427	-8.20535	1.84654	0	
1.6433	-10.969	-0.592925	0	
1.6440	-14.6158	-2.42252	0	
1.6447	-11.5673	-0.897858	0	
1.6453	-9.11706	0.321874	0	
1.6460	-8.20535	0.321874	0	
1.6467	-4.24513	2.15147	0	
1.6473	-1.19661	3.67614	0	
1.6480	-4.55853	3.98107	0	
1.6487	-9.74386	3.67614	0	
1.6493	-10.0573	2.15147	0	
1.6500	-6.06854	3.06627	0	
1.6507	-3.02003	5.50573	0	
1.6513	-2.70663	3.3712	0	
1.6520	-2.10832	0.931739	0	
1.6527	-4.55853	2.15147	0	
1.6533	-8.20535	3.06627	0	
1.6540	-6.38194	1.84654	0	
1.6547	0.940197	2.15147	0	
1.6553	4.61551	2.15147	0	
1.6560	3.67532	2.76134	0	
1.6567	2.1653	3.98107	0	
1.6573	3.67532	2.76134	0	
1.6580	7.66403	2.4564	0	
1.6587	10.0857	3.98107	0	
1.6593	9.17404	2.15147	0	
1.6600	7.35063	-0.287992	0	
1.6607	7.66403	-0.287992	0	
1.6613	10.7125	-1.50772	0	
1.6620	12.8494	-2.11759	0	
1.6627	13.1343	0.321874	0	
1.6633	14.6728	0.626807	0	
1.6640	14.0745	-0.592925	0	
1.6647	9.80084	0.626807	0	
1.6653	8.57574	3.06627	0	
1.6660	11.3109	3.06627	0	
1.6667	10.0857	1.54161	0	
1.6673	3.98871	-0.592925	0	
1.6680	-0.883215	-1.20279	0	
1.6687	-3.02003	0.321874	0	
1.6693	-4.55853	-0.592925	0	
1.6700	-7.29365	-2.42252	0	
1.6707	-9.43046	-0.897858	0	
1.6713	-9.11706	0.321874	0	
1.6720	-9.11706	-1.50772	0	
1.6727	-8.20535	-0.897858	0	
1.6733	-3.93173	3.06627	0	
1.6740	-1.79492	3.06627	0	
1.6747	-6.38194	-2.72746	0	
1.6753	-10.969	-5.16692	0	
1.6760	-9.43046	-2.11759	0	
1.6767	-6.38194	1.54161	0	
1.6773	-4.84344	1.84654	0	
1.6780	-3.33343	0.0169407	0	
1.6787	-0.598307	0.626807	0	
1.6793	2.1653	3.06627	0	
1.6800	3.39041	1.23667	0	
1.6807	4.61551	-1.20279	0	
1.6813	7.35063	1.23667	0	
1.6820	8.88913	3.98107	0	
1.6827	9.17404	3.06627	0	
1.6833	10.0857	1.23667	0	
1.6840	9.17404	-0.897858	0	
1.6847	5.81213	-1.50772	0	
1.6853	3.39041	-0.592925	0	
1.6860	2.76361	-2.11759	0	
1.6867	3.39041	-3.94719	0	
1.6873	3.67532	-3.03239	0	
1.6880	0.940197	-2.42252	0	
1.6887	-1.19661	-3.03239	0	
1.6893	-0.883215	-0.897858	0	
1.6900	-2.42172	2.4564	0	
1.6907	-8.51875	3.67614	0	
1.6913	-14.6158	3.67614	0	
1.6920	-15.8409	3.98107	0	
1.6927	-12.1941	1.23667	0	
1.6933	-7.92045	-3.33732	0	
1.6940	-6.69534	-3.64225	0	
1.6947	-7.29365	-1.50772	0	
1.6953	-7.92045	-2.42252	0	
1.6960	-10.0573	-3.33732	0	
1.6967	-12.7924	-1.20279	0	
1.6973	-14.3309	-1.50772	0	
1.6980	-12.7924	-3.33732	0	
1.6987	-9.74386	-0.592925	0	
1.6993	-9.11706	1.23667	0	
1.7000	-10.0573	-2.42252	0	
1.7007	-7.60705	-4.25212	0	
1.7013	-4.55853	-3.33732	0	
1.7020	-0.284908	-3.03239	0	
1.7027	7.35063	-2.11759	0	
1.7033	11.9377	1.23667	0	
1.7040	14.6728	2.15147	0	
1.7047	22.9066	-0.592925	0	
1.7053	28.4053	-4.25212	0	
1.7060	20.7698	-7.91131	0	
1.7067	10.7125	-10.6557	0	
1.7073	7.35063	-10.6557	0	
1.7080	9.17404	-6.99652	0	
1.7087	13.7611	-3.94719	0	
1.7093	13.7611	-5.16692	0	
1.7100	8.57574	-5.77678	0	
1.7107	6.75232	-3.64225	0	
1.7113	7.03723	-3.03239	0	
1.7120	2.76361	-3.94719	0	
1.7127	-1.51001	-3.33732	0	
1.7133	-3.33343	-4.25212	0	
1.7140	-3.64682	-5.47185	0	
1.7147	-3.64682	-3.33732	0	
1.7153	-6.06854	-0.287992	0	
1.7160	-9.43046	0.626807	0	
1.7167	-6.06854	0.931739	0	
1.7173	-3.33343	0.0169407	0	
1.7180	-7.29365	-1.20279	0	
1.7187	-8.51875	0.321874	0	
1.7193	-3.02003	2.15147	0	
1.7200	2.1653	1.23667	0	
1.7207	7.35063	-1.50772	0	
1.7213	11.0259	-1.81266	0	
1.7220	13.4477	-0.287992	0	
1.7227	14.9862	-0.592925	0	
1.7233	10.3991	-1.50772	0	
1.7240	1.8519	1.84654	0	
1.7247	-0.598307	4.89587	0	
1.7253	-7.92045	3.3712	0	
1.7260	-23.4764	1.23667	0	
1.7267	-25.9266	1.54161	0	
1.7273	-15.2426	1.84654	0	
1.7280	-10.0573	1.84654	0	
1.7287	-7.60705	3.06627	0	
1.7293	-1.79492	5.2008	0	
1.7300	-1.79492	5.81067	0	
1.7307	-2.42172	3.06627	0	
1.7313	4.61551	2.15147	0	
1.7320	11.0259	4.89587	0	
1.7327	11.0259	5.50573	0	
1.7333	5.81213	3.06627	0	
1.7340	0.34189	3.06627	0	
1.7347	0.0284908	5.50573	0	
1.7353	0.940197	5.2008	0	
1.7360	-3.64682	3.06627	0	
1.7367	-5.78364	0.321874	0	
1.7373	-2.42172	-0.897858	0	
1.7380	-2.42172	0.626807	0	
1.7387	-3.02003	4.89587	0	
1.7393	2.76361	6.42053	0	
1.7400	8.26234	3.06627	0	
1.7407	6.43892	-0.592925	0	
1.7413	4.90042	0.0169407	0	
1.7420	8.57574	0.321874	0	
1.7427	10.3991	-3.03239	0	
1.7433	7.66403	-3.33732	0	
1.7440	9.48744	2.15147	0	
1.7447	14.3594	3.06627	0	
1.7453	12.2226	1.23667	0	
1.7460	8.26234	3.67614	0	
1.7467	11.9377	3.98107	0	
1.7473	15.2711	0.0169407	0	
1.7480	11.9377	-0.287992	0	
1.7487	7.35063	2.76134	0	
1.7493	3.67532	2.15147	0	
1.7500	-0.883215	-0.287992	0	
1.7507	-4.55853	-0.287992	0	
1.7513	-6.38194	0.626807	0	
1.7520	-9.11706	-0.592925	0	
1.7527	-10.0573	-2.42252	0	
1.7533	-7.29365	0.626807	0	
1.7540	-6.38194	3.98107	0	
1.7547	-10.0573	2.15147	0	
1.7553	-13.1058	0.321874	0	
1.7560	-10.3422	1.84654	0	
1.7567	-6.38194	1.23667	0	
1.7573	-4.55853	2.15147	0	
1.7580	-6.38194	5.2008	0	
1.7587	-6.69534	3.98107	0	
1.7593	-4.84344	0.931739	0	
1.7600	-3.33343	1.84654	0	
1.7607	-2.42172	0.931739	0	
1.7613	0.940197	-0.897858	0	
1.7620	6.12553	0.626807	0	
1.7627	11.3109	2.15147	0	
1.7633	17.4079	2.76134	0	
1.7640	24.1317	4.89587	0	
1.7647	25.0434	5.50573	0	
1.7653	17.123	1.23667	0	
1.7660	7.03723	-1.81266	0	
1.7667	4.61551	-2.11759	0	
1.7673	5.52722	-3.33732	0	
1.7680	2.76361	-3.33732	0	
1.7687	-0.883215	-2.42252	0	
1.7693	-1.51001	-3.33732	0	
1.7700	-1.19661	-3.33732	0	
1.7707	-3.33343	-0.592925	0	
1.7713	-7.29365	-1.50772	0	
1.7720	-10.969	-5.47185	0	
1.7727	-10.969	-4.86199	0	
1.7733	-9.74386	-2.42252	0	
1.7740	-9.43046	-4.25212	0	
1.7747	-7.29365	-5.16692	0	
1.7753	-5.47024	-3.33732	0	
1.7760	-6.38194	-1.50772	0	
1.7767	-3.64682	-0.897858	0	
1.7773	1.8519	-0.287992	0	
1.7780	5.21382	-0.592925	0	
1.7787	11.9377	-0.897858	0	
1.7793	21.0832	-1.81266	0	
1.7800	21.9949	-1.81266	0	
1.7807	19.8581	-0.287992	0	
1.7813	21.9949	-0.897858	0	
1.7820	21.9949	-3.33732	0	
1.7827	20.4849	0.0169407	0	
1.7833	20.1715	4.89587	0	
1.7840	14.9862	3.98107	0	
1.7847	9.17404	3.06627	0	
1.7853	9.17404	3.67614	0	
1.7860	1.8519	0.626807	0	
1.7867	-15.5275	0.626807	0	
1.7873	-30.4852	3.98107	0	
1.7880	-42.0809	2.15147	0	
1.7887	-51.5399	-0.897858	0	
1.7893	-48.178	-0.592925	0	
1.7900	-33.2488	-2.42252	0	
1.7907	-23.163	-3.33732	0	
1.7913	-22.8496	0.321874	0	
1.7920	-25.6132	1.23667	0	
1.7927	-27.4367	-0.897858	0	
1.7933	-29.2601	-0.592925	0	
1.7940	-27.4367	-0.592925	0	
1.7947	-22.2513	-1.81266	0	
1.7953	-18.8894	-1.50772	0	
1.7960	-15.8409	-1.20279	0	
1.7967	-12.1941	-1.50772	0	
1.7973	-9.74386	0.0169407	0	
1.7980	-4.84344	0.321874	0	
1.7987	0.940197	-3.03239	0	
1.7993	0.34189	-6.38665	0	
1.8000	-0.598307	-6.08172	0	
1.8007	6.75232	-3.33732	0	
1.8013	11.0259	-2.42252	0	
1.8020	7.35063	-4.86199	0	
1.8027	6.12553	-6.99652	0	
1.8033	5.52722	-4.86199	0	
1.8040	0.34189	-2.42252	0	
1.8047	-2.70663	-4.25212	0	
1.8053	-2.70663	-6.99652	0	
1.8060	-4.24513	-6.38665	0	
1.8067	-2.42172	-3.94719	0	
1.8073	0.940197	-4.25212	0	
1.8080	-1.51001	-5.77678	0	
1.8087	-2.70663	-5.16692	0	
1.8093	0.34189	-3.03239	0	
1.8100	1.8519	-2.72746	0	
1.8107	6.12553	-2.72746	0	
1.8113	16.4962	-2.11759	0	
1.8120	22.9066	-2.72746	0	
1.8127	20.4849	-4.25212	0	
1.8133	16.2113	-3.94719	0	
1.8140	13.7611	-1.50772	0	
1.8147	10.0857	-1.50772	0	
1.8153	4.30211	-2.72746	0	
1.8160	3.07701	-2.42252	0	
1.8167	6.43892	0.321874	0	
1.8173	3.67532	1.23667	0	
1.8180	-1.51001	-1.20279	0	
1.8187	0.0284908	-1.50772	0	
1.8193	2.4787	0.321874	0	
1.8200	0.940197	-0.897858	0	
1.8207	2.4787	-2.72746	0	
1.8213	8.57574	-1.20279	0	
1.8220	13.4477	-0.592925	0	
1.8227	14.6728	-1.50772	0	
1.8233	8.26234	-0.592925	0	
1.8240	0.34189	0.321874	0	
1.8247	1.5385	0.0169407	0	
1.8253	5.21382	0.931739	0	
1.8260	2.1653	1.84654	0	
1.8267	0.940197	2.15147	0	
1.8273	0.0284908	3.98107	0	
1.8280	-6.06854	4.59093	0	
1.8287	-8.20535	2.4564	0	
1.8293	-5.47024	1.84654	0	
1.8300	-8.51875	2.15147	0	
1.8307	-13.1058	1.54161	0	
1.8313	-11.8807	1.23667	0	
1.8320	-9.43046	-0.592925	0	
1.8327	-5.47024	-3.03239	0	
1.8333	0.940197	0.626807	0	
1.8340	1.5385	5.81067	0	
1.8347	1.8519	5.81067	0	
1.8353	5.21382	5.50573	0	
1.8360	2.4787	5.2008	0	
1.8367	0.0284908	3.06627	0	
1.8373	7.66403	2.76134	0	
1.8380	11.6243	4.59093	0	
1.8387	4.61551	2.15147	0	
1.8393	3.67532	-1.50772	0	
1.8400	7.03723	-0.592925	0	
1.8407	7.03723	1.23667	0	
1.8413	4.30211	0.0169407	0	
1.8420	-10.0573	-1.81266	0	
1.8427	-31.3969	-3.94719	0	
1.8433	-33.8471	-4.86199	0	
1.8440	-21.653	-3.94719	0	
1.8447	-18.2911	-4.25212	0	
1.8453	-18.2911	-4.25212	0	
1.8460	-13.1058	-3.94719	0	
1.8467	-12.7924	-4.25212	0	
1.8473	-15.8409	-2.72746	0	
1.8480	-14.9292	2.15147	0	
1.8487	-12.7924	3.67614	0	
1.8493	-9.11706	1.84654	0	
1.8500	-0.883215	3.06627	0	
1.8507	4.30211	2.15147	0	
1.8513	3.98871	-4.25212	0	
1.8520	2.1653	-7.91131	0	
1.8527	-2.10832	-4.86199	0	
1.8533	-7.60705	-3.03239	0	
1.8540	-9.43046	-3.94719	0	
1.8547	-10.969	-3.64225	0	
1.8553	-10.969	-1.50772	0	
1.8560	-3.93173	-1.50772	0	
1.8567	0.0284908	-2.11759	0	
1.8573	-4.55853	0.321874	0	
1.8580	-3.93173	3.98107	0	
1.8587	-0.883215	3.3712	0	
1.8593	-10.969	2.76134	0	
1.8600	-21.0262	3.98107	0	
1.8607	-9.11706	2.15147	0	
1.8613	9.80084	-2.11759	0	
1.8620	14.6728	-2.42252	0	
1.8627	12.8494	-2.11759	0	
1.8633	14.0745	-2.11759	0	
1.8640	13.4477	-0.287992	0	
1.8647	12.2226	0.931739	0	
1.8653	21.0832	-1.20279	0	
1.8660	33.2773	-2.42252	0	
1.8667	32.679	-1.50772	0	
1.8673	20.7698	-3.03239	0	
1.8680	17.4079	-6.08172	0	
1.8687	24.4451	-6.69158	0	
1.8693	24.7585	-4.55705	0	
1.8700	17.4079	-4.25212	0	
1.8707	13.1343	-2.42252	0	
1.8713	12.536	0.321874	0	
1.8720	10.3991	-2.72746	0	
1.8727	8.26234	-6.69158	0	
1.8733	6.43892	-4.25212	0	
1.8740	5.21382	-1.50772	0	
1.8747	2.4787	-1.50772	0	
1.8753	-3.64682	0.321874	0	
1.8760	-6.69534	0.931739	0	
1.8767	-6.69534	-1.20279	0	
1.8773	-15.2426	-1.81266	0	
1.8780	-21.9379	-3.03239	0	
1.8787	-12.479	-3.64225	0	
1.8793	-7.92045	-1.50772	0	
1.8800	-17.9777	-1.20279	0	
1.8807	-16.4677	-1.81266	0	
1.8813	-2.70663	0.321874	0	
1.8820	-1.79492	0.321874	0	
1.8827	-10.6556	-2.42252	0	
1.8833	-13.7041	-2.11759	0	
1.8840	-14.6158	-0.592925	0	
1.8847	-17.066	-0.592925	0	
1.8853	-15.5275	0.0169407	0	
1.8860	-13.3907	-2.11759	0	
1.8867	-12.7924	-3.64225	0	
1.8873	-11.2539	0.626807	0	
1.8880	-10.969	3.67614	0	
1.8887	-10.969	2.15147	0	
1.8893	-5.47024	3.3712	0	
1.8900	0.626798	3.3712	0	
1.8907	-0.598307	0.321874	0	
1.8913	-0.284908	2.15147	0	
1.8920	4.61551	5.81067	0	
1.8927	3.67532	4.59093	0	
1.8933	-1.19661	2.15147	0	
1.8940	0.626798	3.67614	0	
1.8947	2.76361	5.81067	0	
1.8953	2.4787	6.1156	0	
1.8960	7.03723	5.50573	0	
1.8967	12.2226	5.50573	0	
1.8973	10.0857	4.59093	0	
1.8980	6.43892	1.54161	0	
1.8987	8.26234	0.321874	0	
1.8993	10.3991	1.23667	0	
1.9000	9.48744	-0.592925	0	
1.9007	8.26234	-3.33732	0	
1.9013	8.57574	-0.592925	0	
1.9020	10.0857	1.84654	0	
1.9027	6.75232	-0.592925	0	
1.9033	0.940197	-1.50772	0	
1.9040	-0.598307	1.23667	0	
1.9047	-1.79492	1.23667	0	
1.9053	-6.69534	-2.42252	0	
1.9060	-9.74386	-4.25212	0	
1.9067	-7.92045	-0.897858	0	
1.9073	-3.64682	3.3712	0	
1.9080	1.8519	3.67614	0	
1.9087	2.4787	2.15147	0	
1.9093	-1.79492	0.0169407	0	
1.9100	-2.70663	-1.81266	0	
1.9107	-4.55853	-0.592925	0	
1.9113	-16.4677	-0.287992	0	
1.9120	-21.653	-3.64225	0	
1.9127	-10.969	-3.33732	0	
1.9133	-4.55853	0.626807	0	
1.9140	-6.38194	0.626807	0	
1.9147	-5.15684	-0.287992	0	
1.9153	-4.55853	0.321874	0	
1.9160	-7.29365	-3.33732	0	
1.9167	-1.79492	-5.16692	0	
1.9173	10.0857	-2.11759	0	
1.9180	18.3481	-3.03239	0	
1.9187	21.9949	-6.08172	0	
1.9193	21.0832	-3.64225	0	
1.9200	16.4962	-0.592925	0	
1.9207	14.3594	-2.11759	0	
1.9213	12.8494	-3.33732	0	
1.9220	6.75232	-4.25212	0	
1.9227	1.5385	-6.38665	0	
1.9233	-3.33343	-4.55705	0	
1.9240	-10.0573	-1.50772	0	
1.9247	-12.479	-3.03239	0	
1.9253	-12.7924	-5.16692	0	
1.9260	-17.3794	-4.55705	0	
1.9267	-18.2911	-4.25212	0	
1.9273	-12.7924	-4.55705	0	
1.9280	-8.51875	-4.25212	0	
1.9287	-6.38194	-2.42252	0	
1.9293	-4.24513	-0.287992	0	
1.9300	-1.51001	0.0169407	0	
1.9307	3.98871	-0.897858	0	
1.9313	6.43892	-0.592925	0	
1.9320	-1.19661	0.0169407	0	
1.9327	-8.83215	-1.81266	0	
1.9333	-7.29365	-2.72746	0	
1.9340	-3.64682	-0.592925	0	
1.9347	-2.42172	0.321874	0	
1.9353	0.0284908	-1.20279	0	
1.9360	3.98871	0.931739	0	
1.9367	7.35063	3.3712	0	
1.9373	10.7125	1.23667	0	
1.9380	14.3594	-1.50772	0	
1.9387	14.9862	-1.81266	0	
1.9393	13.1343	-2.42252	0	
1.9400	14.6728	-1.81266	0	
1.9407	16.4962	1.23667	0	
1.9413	12.536	0.931739	0	
1.9420	9.17404	-3.33732	0	
1.9427	10.0857	-2.42252	0	
1.9433	11.9377	1.84654	0	
1.9440	13.1343	0.931739	0	
1.9447	8.26234	0.0169407	0	
1.9453	-1.19661	1.23667	0	
1.9460	-2.70663	-0.592925	0	
1.9467	0.0284908	-2.42252	0	
1.9473	-5.15684	-1.81266	0	
1.9480	-8.20535	-3.64225	0	
1.9487	-2.70663	-3.94719	0	
1.9493	-0.284908	0.321874	0	
1.9500	-0.598307	1.23667	0	
1.9507	-2.10832	-1.50772	0	
1.9513	-3.93173	-0.287992	0	
1.9520	5.52722	3.06627	0	
1.9527	18.3481	3.98107	0	
1.9533	12.2226	3.3712	0	
1.9540	2.76361	2.15147	0	
1.9547	6.43892	1.54161	0	
1.9553	7.35063	3.06627	0	
1.9560	3.07701	3.3712	0	
1.9567	6.43892	3.06627	0	
1.9573	9.17404	4.59093	0	
1.9580	6.43892	4.89587	0	
1.9587	6.75232	1.84654	0	
1.9593	10.7125	1.23667	0	
1.9600	11.0259	3.3712	0	
1.9607	7.35063	0.626807	0	
1.9613	2.76361	-2.42252	0	
1.9620	1.8519	-0.592925	0	
1.9627	4.30211	0.0169407	0	
1.9633	3.67532	-1.50772	0	
1.9640	0.940197	-1.50772	0	
1.9647	0.940197	-1.50772	0	
1.9653	1.8519	-1.50772	0	
1.9660	1.8519	0.931739	0	
1.9667	0.940197	0.321874	0	
1.9673	-1.19661	-0.287992	0	
1.9680	-4.24513	2.15147	0	
1.9687	-7.29365	1.84654	0	
1.9693	-11.2539	-1.50772	0	
1.9700	-14.6158	-3.64225	0	
1.9707	-14.3309	-6.69158	0	
1.9713	-11.2539	-7.60638	0	
1.9720	-9.11706	-3.03239	0	
1.9727	-8.51875	-1.50772	0	
1.9733	-10.6556	-5.16692	0	
1.9740	-15.5275	-6.08172	0	
1.9747	-17.3794	-5.16692	0	
1.9753	-11.2539	-4.55705	0	
1.9760	-3.02003	-3.33732	0	
1.9767	0.626798	-1.50772	0	
1.9773	2.4787	-0.592925	0	
1.9780	4.61551	-0.592925	0	
1.9787	3.98871	0.321874	0	
1.9793	2.76361	2.15147	0	
1.9800	3.07701	2.4564	0	
1.9807	2.76361	-0.897858	0	
1.9813	1.8519	-1.81266	0	
1.9820	2.76361	1.23667	0	
1.9827	5.52722	3.06627	0	
1.9833	8.26234	1.23667	0	
1.9840	10.0857	-0.287992	0	
1.9847	8.88913	-0.897858	0	
1.9853	6.75232	-0.897858	0	
1.9860	6.12553	-0.592925	0	
1.9867	3.98871	-0.592925	0	
1.9873	2.1653	-0.287992	0	
1.9880	3.67532	0.321874	0	
1.9887	3.07701	0.321874	0	
1.9893	-2.42172	1.23667	0	
1.9900	-6.69534	0.321874	0	
1.9907	-8.51875	-1.81266	0	
1.9913	-9.74386	-0.287992	0	
1.9920	-9.11706	2.15147	0	
1.9927	-9.11706	1.23667	0	
1.9933	-12.479	0.0169407	0	
1.9940	-14.6158	0.321874	0	
1.9947	-11.5673	1.84654	0	
1.9953	-6.98025	3.67614	0	
1.9960	-5.15684	2.15147	0	
1.9967	-3.33343	0.0169407	0	
1.9973	-1.19661	2.15147	0	
1.9980	-2.10832	3.06627	0	
1.9987	-4.55853	0.0169407	0	
1.9993	-4.55853	-0.592925	0	
2.0000	-3.93173	0.626807	0	
2.0007	-4.24513	-1.50772	0	
2.0013	-1.19661	-1.81266	0	
2.0020	5.21382	0.931739	0	
2.0027	9.80084	1.23667	0	
2.0033	10.3991	2.15147	0	
2.0040	10.3991	3.06627	0	
2.0047	7.66403	1.54161	0	
2.0053	2.76361	2.15147	0	
2.0060	0.626798	3.98107	0	
2.0067	0.940197	1.84654	0	
2.0073	0.34189	0.931739	0	
2.0080	0.626798	4.89587	0	
2.0087	1.5385	5.2008	0	
2.0093	0.0284908	1.23667	0	
2.0100	-4.55853	0.931739	0	
2.0107	-9.74386	1.84654	0	
2.0113	-11.2539	-0.897858	0	
2.0120	-6.98025	-2.11759	0	
2.0127	-4.55853	0.321874	0	
2.0133	-8.20535	0.931739	0	
2.0140	-10.3422	0.931739	0	
2.0147	-7.29365	2.4564	0	
2.0153	-6.38194	1.54161	0	
2.0160	-7.29365	0.321874	0	
2.0167	-4.24513	2.15147	0	
2.0173	0.940197	3.06627	0	
2.0180	3.67532	3.98107	0	
2.0187	5.81213	6.1156	0	
2.0193	9.17404	4.59093	0	
2.0200	11.6243	1.23667	0	
2.0207	9.17404	2.15147	0	
2.0213	6.43892	2.76134	0	
2.0220	8.26234	-0.592925	0	
2.0227	8.26234	-1.20279	0	
2.0233	4.30211	0.321874	0	
2.0240	0.940197	-2.42252	0	
2.0247	0.0284908	-3.94719	0	
2.0253	1.2536	-1.20279	0	
2.0260	5.21382	0.321874	0	
2.0267	4.90042	-0.897858	0	
2.0273	2.76361	-1.20279	0	
2.0280	5.21382	-0.592925	0	
2.0287	7.35063	-0.592925	0	
2.0293	6.12553	0.0169407	0	
2.0300	8.26234	0.321874	0	
2.0307	8.26234	-1.50772	0	
2.0313	0.940197	-2.42252	0	
2.0320	-2.10832	-0.592925	0	
2.0327	-0.883215	0.931739	0	
2.0333	-10.0573	0.931739	0	
2.0340	-25.6132	0.931739	0	
2.0347	-30.2003	0.931739	0	
2.0353	-22.5647	0.321874	0	
2.0360	-13.3907	-1.50772	0	
2.0367	-6.38194	-5.16692	0	
2.0373	-1.79492	-5.47185	0	
2.0380	-2.10832	-3.33732	0	
2.0387	-7.29365	-3.94719	0	
2.0393	-9.11706	-3.33732	0	
2.0400	-6.06854	1.23667	0	
2.0407	-4.55853	-0.592925	0	
2.0413	-2.10832	-4.86199	0	
2.0420	1.2536	-3.03239	0	
2.0427	0.940197	-0.287992	0	
2.0433	-0.883215	-2.11759	0	
2.0440	2.76361	-2.42252	0	
2.0447	6.43892	-2.11759	0	
2.0453	6.12553	-3.03239	0	
2.0460	5.52722	-1.20279	0	
2.0467	6.12553	0.321874	0	
2.0473	5.81213	-1.81266	0	
2.0480	0.940197	-0.592925	0	
2.0487	-10.969	2.15147	0	
2.0493	-18.576	-0.592925	0	
2.0500	-18.576	-3.03239	0	
2.0507	-17.6643	0.931739	0	
2.0513	-16.7526	3.67614	0	
2.0520	-14.9292	2.4564	0	
2.0527	-13.7041	2.15147	0	
2.0533	-9.11706	1.23667	0	
2.0540	-2.70663	-0.592925	0	
2.0547	-1.19661	2.15147	0	
2.0553	1.5385	5.81067	0	
2.0560	8.26234	5.50573	0	
2.0567	9.48744	4.286	0	
2.0573	6.75232	5.50573	0	
2.0580	8.26234	5.2008	0	
2.0587	11.9377	3.67614	0	
2.0593	11.6243	2.76134	0	
2.0600	5.52722	1.23667	0	
2.0607	0.626798	1.23667	0	
2.0613	2.1653	3.06627	0	
2.0620	3.98871	3.67614	0	
2.0627	1.8519	2.15147	0	
2.0633	3.39041	0.626807	0	
2.0640	4.30211	-1.20279	0	
2.0647	1.2536	-2.42252	0	
2.0653	3.67532	-1.50772	0	
2.0660	7.35063	-0.897858	0	
2.0667	1.2536	-1.20279	0	
2.0673	-7.29365	-2.72746	0	
2.0680	-14.0175	-4.25212	0	
2.0687	-15.5275	-4.25212	0	
2.0693	-8.83215	-2.72746	0	
2.0700	-5.47024	-1.20279	0	
2.0707	-14.3309	-0.287992	0	
2.0713	-19.2028	-1.50772	0	
2.0720	-12.7924	-2.42252	0	
2.0727	-6.69534	0.321874	0	
2.0733	-5.47024	1.23667	0	
2.0740	-1.51001	-0.592925	0	
2.0747	5.21382	0.626807	0	
2.0753	5.52722	1.23667	0	
2.0760	-0.284908	-2.42252	0	
2.0767	-1.19661	-3.33732	0	
2.0773	6.12553	0.0169407	0	
2.0780	11.9377	0.321874	0	
2.0787	14.0745	-1.50772	0	
2.0793	16.4962	-0.592925	0	
2.0800	19.8581	1.84654	0	
2.0807	22.6217	2.76134	0	
2.0813	24.1317	1.84654	0	
2.0820	25.9551	-0.287992	0	
2.0827	27.807	-1.50772	0	
2.0833	21.9949	0.321874	0	
2.0840	11.0259	2.15147	0	
2.0847	8.57574	1.23667	0	
2.0853	12.8494	-0.897858	0	
2.0860	12.536	-0.592925	0	
2.0867	10.3991	0.321874	0	
2.0873	10.0857	0.321874	0	
2.0880	5.81213	0.321874	0	
2.0887	0.0284908	1.54161	0	
2.0893	0.34189	3.3712	0	
2.0900	0.940197	3.06627	0	
2.0907	-9.11706	-1.50772	0	
2.0913	-24.3881	-4.25212	0	
2.0920	-27.4367	-2.42252	0	
2.0927	-18.576	0.0169407	0	
2.0933	-10.969	-2.11759	0	
2.0940	-9.43046	-4.55705	0	
2.0947	-9.43046	-5.16692	0	
2.0953	-7.60705	-4.25212	0	
2.0960	-4.55853	-4.55705	0	
2.0967	-0.883215	-5.16692	0	
2.0973	1.8519	-5.16692	0	
2.0980	3.98871	-4.86199	0	
2.0987	4.61551	-4.25212	0	
2.0993	0.940197	-4.86199	0	
2.1000	-4.55853	-7.30145	0	
2.1007	-5.47024	-6.99652	0	
2.1013	-4.84344	-4.55705	0	
2.1020	-8.20535	-5.16692	0	
2.1027	-9.43046	-5.16692	0	
2.1033	-6.06854	-3.03239	0	
2.1040	-2.70663	-4.55705	0	
2.1047	-2.10832	-7.60638	0	
2.1053	-2.10832	-5.16692	0	
2.1060	-3.64682	-3.03239	0	
2.1067	-5.15684	-2.11759	0	
2.1073	-6.06854	-1.50772	0	
2.1080	-7.29365	-2.42252	0	
2.1087	-9.11706	-3.94719	0	
2.1093	-6.69534	-3.03239	0	
2.1100	2.76361	-3.33732	0	
2.1107	11.9377	-5.16692	0	
2.1113	11.0259	-4.25212	0	
2.1120	2.76361	-4.25212	0	
2.1127	-1.79492	-4.86199	0	
2.1133	-3.02003	-2.72746	0	
2.1140	-1.79492	-1.50772	0	
2.1147	0.940197	-3.33732	0	
2.1153	0.940197	-3.94719	0	
2.1160	-0.883215	-5.16692	0	
2.1167	4.30211	-6.08172	0	
2.1173	11.0259	-2.42252	0	
2.1180	7.03723	0.321874	0	
2.1187	1.8519	-3.33732	0	
2.1193	5.21382	-4.25212	0	
2.1200	9.48744	-3.33732	0	
2.1207	12.536	-5.47185	0	
2.1213	14.3594	-6.08172	0	
2.1220	11.3109	-5.47185	0	
2.1227	7.94894	-6.99652	0	
2.1233	9.80084	-4.25212	0	
2.1240	10.3991	1.23667	0	
2.1247	11.9377	-0.592925	0	
2.1253	24.1317	-3.03239	0	
2.1260	35.1292	-0.592925	0	
2.1267	30.8556	-0.592925	0	
2.1273	22.9066	-2.72746	0	
2.1280	18.633	-2.42252	0	
2.1287	10.7125	-0.897858	0	
2.1293	7.03723	-0.592925	0	
2.1300	14.6728	-0.592925	0	
2.1307	18.3481	-1.50772	0	
2.1313	11.0259	-0.592925	0	
2.1320	1.2536	1.23667	0	
2.1327	-4.84344	1.23667	0	
2.1333	-12.7924	1.23667	0	
2.1340	-32.9354	0.626807	0	
2.1347	-57.6654	-1.50772	0	
2.1353	-55.8135	-3.33732	0	
2.1360	-26.5249	-3.64225	0	
2.1367	-1.19661	-4.25212	0	
2.1373	5.52722	-3.33732	0	
2.1380	2.76361	-3.03239	0	
2.1387	-2.10832	-4.25212	0	
2.1393	-2.70663	-2.11759	0	
2.1400	0.940197	0.931739	0	
2.1407	1.8519	-0.592925	0	
2.1413	1.2536	-0.897858	0	
2.1420	-1.51001	1.84654	0	
2.1427	-7.92045	0.931739	0	
2.1433	-10.969	-1.50772	0	
2.1440	-9.11706	-0.592925	0	
2.1447	-8.51875	0.931739	0	
2.1453	-8.20535	1.23667	0	
2.1460	-5.47024	1.54161	0	
2.1467	-3.33343	2.76134	0	
2.1473	0.34189	5.50573	0	
2.1480	1.5385	6.1156	0	
2.1487	-7.60705	0.321874	0	
2.1493	-19.2028	-4.25212	0	
2.1500	-16.7526	-1.81266	0	
2.1507	-3.64682	2.4564	0	
2.1513	0.34189	2.4564	0	
2.1520	-9.43046	0.321874	0	
2.1527	-18.576	-0.897858	0	
2.1533	-16.1543	-0.287992	0	
2.1540	-9.43046	2.76134	0	
2.1547	-9.11706	3.98107	0	
2.1553	-10.969	2.76134	0	
2.1560	-10.0573	1.54161	0	
2.1567	-8.83215	-0.592925	0	
2.1573	-7.29365	-4.25212	0	
2.1580	-2.70663	-3.33732	0	
2.1587	-0.883215	1.23667	0	
2.1593	-3.64682	1.23667	0	
2.1600	-1.79492	-1.50772	0	
2.1607	4.30211	0.0169407	0	
2.1613	4.61551	0.931739	0	
2.1620	-0.883215	-1.81266	0	
2.1627	-4.84344	-2.42252	0	
2.1633	-5.15684	-0.897858	0	
2.1640	-3.02003	-0.592925	0	
2.1647	-1.79492	0.321874	0	
2.1653	-0.598307	0.321874	0	
2.1660	4.61551	-0.897858	0	
2.1667	10.0857	0.321874	0	
2.1673	10.3991	3.98107	0	
2.1680	10.7125	3.98107	0	
2.1687	10.3991	1.54161	0	
2.1693	6.43892	0.321874	0	
2.1700	12.2226	1.54161	0	
2.1707	20.1715	3.98107	0	
2.1713	-1.79492	4.59093	0	
2.1720	-38.719	3.67614	0	
2.1727	-41.1692	2.15147	0	
2.1733	-21.0262	-1.20279	0	
2.1740	-17.3794	-5.47185	0	
2.1747	-18.8894	-4.86199	0	
2.1753	-9.43046	-0.592925	0	
2.1760	-6.69534	-0.592925	0	
2.1767	-12.7924	-3.64225	0	
2.1773	-9.74386	-4.25212	0	
2.1780	-3.93173	-2.42252	0	
2.1787	-6.38194	-3.64225	0	
2.1793	-6.98025	-6.99652	0	
2.1800	0.34189	-6.08172	0	
2.1807	5.81213	-1.50772	0	
2.1813	8.88913	-0.897858	0	
2.1820	14.0745	-3.64225	0	
2.1827	17.4079	-0.592925	0	
2.1833	13.7611	3.06627	0	
2.1840	11.9377	1.23667	0	
2.1847	11.0259	0.0169407	0	
2.1853	1.2536	2.15147	0	
2.1860	-14.3309	2.4564	0	
2.1867	-21.0262	0.626807	0	
2.1873	-13.7041	1.84654	0	
2.1880	-4.84344	5.50573	0	
2.1887	-4.55853	5.2008	0	
2.1893	-7.29365	1.23667	0	
2.1900	-3.93173	-0.592925	0	
2.1907	0.0284908	2.15147	0	
2.1913	-1.51001	4.59093	0	
2.1920	0.626798	4.89587	0	
2.1927	5.52722	3.06627	0	
2.1933	2.4787	2.4564	0	
2.1940	-1.19661	5.2008	0	
2.1947	6.12553	6.1156	0	
2.1953	12.8494	2.4564	0	
2.1960	8.88913	2.15147	0	
2.1967	3.39041	4.286	0	
2.1973	4.30211	2.76134	0	
2.1980	8.26234	2.15147	0	
2.1987	9.17404	4.89587	0	
2.1993	4.90042	5.50573	0	
2.2000	2.4787	4.286	0	
2.2007	5.81213	3.06627	0	
2.2013	9.17404	-0.287992	0	
2.2020	10.3991	-0.592925	0	
2.2027	14.9862	3.06627	0	
2.2033	21.6815	2.76134	0	
2.2040	21.9949	-0.592925	0	
2.2047	15.5845	1.54161	0	
2.2053	10.0857	5.2008	0	
2.2060	10.0857	4.89587	0	
2.2067	11.3109	3.06627	0	
2.2073	10.3991	0.931739	0	
2.2080	7.35063	-0.592925	0	
2.2087	3.07701	0.0169407	0	
2.2093	0.940197	-0.287992	0	
2.2100	1.8519	-0.592925	0	
2.2107	0.940197	-0.592925	0	
2.2113	-3.93173	-2.11759	0	
2.2120	-7.92045	-2.72746	0	
2.2127	-6.06854	-0.897858	0	
2.2133	-3.02003	-1.50772	0	
2.2140	-0.598307	-3.33732	0	
2.2147	0.940197	-3.33732	0	
2.2153	-0.883215	-3.03239	0	
2.2160	-0.598307	-2.42252	0	
2.2167	5.52722	-0.592925	0	
2.2173	7.35063	-1.20279	0	
2.2180	1.8519	-3.94719	0	
2.2187	1.8519	-1.50772	0	
2.2193	6.43892	3.98107	0	
2.2200	3.39041	3.98107	0	
2.2207	-3.64682	1.84654	0	
2.2213	-4.84344	2.76134	0	
2.2220	-1.51001	4.286	0	
2.2227	1.2536	3.98107	0	
2.2233	3.07701	2.15147	0	
2.2240	1.5385	-0.287992	0	
2.2247	-2.70663	0.0169407	0	
2.2253	-4.55853	3.67614	0	
2.2260	-4.55853	6.42053	0	
2.2267	-4.84344	4.89587	0	
2.2273	-4.24513	1.54161	0	
2.2280	-3.64682	0.0169407	0	
2.2287	-6.38194	-0.592925	0	
2.2293	-7.29365	-1.20279	0	
2.2300	-7.29365	-1.81266	0	
2.2307	-10.969	-1.50772	0	
2.2313	-11.2539	-0.592925	0	
2.2320	-4.24513	-0.897858	0	
2.2327	0.940197	-1.50772	0	
2.2333	-0.284908	-0.592925	0	
2.2340	-2.70663	-0.897858	0	
2.2347	-3.64682	-1.81266	0	
2.2353	-2.70663	-3.03239	0	
2.2360	-0.284908	-4.25212	0	
2.2367	5.21382	-4.86199	0	
2.2373	7.35063	-3.33732	0	
2.2380	-1.19661	-0.897858	0	
2.2387	-13.1058	0.321874	0	
2.2393	-10.969	0.0169407	0	
2.2400	-0.284908	-2.11759	0	
2.2407	3.67532	-3.03239	0	
2.2413	2.76361	-0.897858	0	
2.2420	3.67532	0.0169407	0	
2.2427	4.61551	-2.42252	0	
2.2433	4.30211	-2.72746	0	
2.2440	4.30211	-1.50772	0	
2.2447	5.81213	-2.72746	0	
2.2453	7.66403	-3.03239	0	
2.2460	7.35063	0.0169407	0	
2.2467	7.66403	0.626807	0	
2.2473	7.66403	-1.81266	0	
2.2480	3.39041	-2.72746	0	
2.2487	-1.79492	-0.897858	0	
2.2493	-2.42172	-0.287992	0	
2.2500	-2.42172	-0.897858	0	
2.2507	-5.47024	-0.287992	0	
2.2513	-6.38194	0.321874	0	
2.2520	-1.79492	-0.592925	0	
2.2527	0.940197	-1.81266	0	
2.2533	0.940197	0.321874	0	
2.2540	0.940197	2.15147	0	
2.2547	-1.19661	0.626807	0	
2.2553	-8.83215	-2.42252	0	
2.2560	-16.4677	-2.42252	0	
2.2567	-17.066	-1.50772	0	
2.2573	-13.3907	-1.81266	0	
2.2580	-10.3422	-1.81266	0	
2.2587	-6.69534	0.321874	0	
2.2593	-2.42172	1.84654	0	
2.2600	-2.10832	0.321874	0	
2.2607	-5.47024	0.321874	0	
2.2613	-6.38194	2.4564	0	
2.2620	-3.33343	1.23667	0	
2.2627	1.2536	-1.81266	0	
2.2633	3.39041	-1.81266	0	
2.2640	2.1653	-0.287992	0	
2.2647	1.2536	0.321874	0	
2.2653	2.1653	0.321874	0	
2.2660	7.35063	0.931739	0	
2.2667	13.4477	3.3712	0	
2.2673	14.9862	4.89587	0	
2.2680	15.8979	3.3712	0	
2.2687	17.123	3.98107	0	
2.2693	11.0259	8.55506	0	
2.2700	5.52722	8.85999	0	
2.2707	8.26234	3.98107	0	
2.2713	6.12553	-1.20279	0	
2.2720	-4.84344	-3.33732	0	
2.2727	-9.11706	-1.50772	0	
2.2733	-4.84344	1.54161	0	
2.2740	-1.79492	1.23667	0	
2.2747	-2.10832	1.54161	0	
2.2753	-7.92045	3.67614	0	
2.2760	-17.3794	1.84654	0	
2.2767	-19.2028	-1.81266	0	
2.2773	-13.7041	-2.42252	0	
2.2780	-9.43046	-2.42252	0	
2.2787	-7.92045	-4.25212	0	
2.2793	-6.98025	-5.77678	0	
2.2800	-5.78364	-5.77678	0	
2.2807	-8.20535	-4.25212	0	
2.2813	-19.5162	-3.64225	0	
2.2820	-29.5735	-4.25212	0	
2.2827	-23.7898	-3.03239	0	
2.2833	-9.74386	0.0169407	0	
2.2840	-2.70663	-0.287992	0	
2.2847	0.0284908	-1.50772	0	
2.2853	2.76361	0.0169407	0	
2.2860	2.4787	-0.287992	0	
2.2867	1.2536	-4.25212	0	
2.2873	8.26234	-6.38665	0	
2.2880	18.0347	-6.08172	0	
2.2887	20.1715	-3.94719	0	
2.2893	19.5447	-1.50772	0	
2.2900	19.5447	-0.287992	0	
2.2907	11.0259	-0.592925	0	
2.2913	-3.02003	-1.50772	0	
2.2920	-10.0573	-3.33732	0	
2.2927	-12.1941	-3.33732	0	
2.2933	-15.2426	-1.50772	0	
2.2940	-13.7041	-0.897858	0	
2.2947	-8.20535	-1.50772	0	
2.2953	-6.38194	-1.20279	0	
2.2960	-7.29365	0.0169407	0	
2.2967	-1.79492	1.54161	0	
2.2973	2.76361	4.286	0	
2.2980	2.76361	3.98107	0	
2.2987	5.52722	0.321874	0	
2.2993	11.9377	-0.287992	0	
2.3000	11.0259	0.321874	0	
2.3007	5.52722	-2.42252	0	
2.3013	7.03723	-3.64225	0	
2.3020	11.0259	-2.11759	0	
2.3027	10.0857	-2.42252	0	
2.3033	13.7611	-3.64225	0	
2.3040	25.9551	-2.72746	0	
2.3047	32.9924	-3.03239	0	
2.3053	29.317	-4.25212	0	
2.3060	24.7585	-4.86199	0	
2.3067	23.22	-4.55705	0	
2.3073	19.2598	-3.94719	0	
2.3080	9.80084	-2.42252	0	
2.3087	-0.883215	-1.20279	0	
2.3093	-8.20535	-0.592925	0	
2.3100	-10.3422	-2.72746	0	
2.3107	-9.11706	-4.55705	0	
2.3113	-8.83215	-2.42252	0	
2.3120	-10.0573	0.626807	0	
2.3127	-9.74386	-0.897858	0	
2.3133	-5.47024	-2.72746	0	
2.3140	-0.883215	-0.897858	0	
2.3147	1.5385	0.931739	0	
2.3153	2.76361	0.626807	0	
2.3160	4.61551	2.15147	0	
2.3167	7.03723	5.2008	0	
2.3173	6.12553	3.98107	0	
2.3180	4.61551	-0.287992	0	
2.3187	6.43892	-1.20279	0	
2.3193	6.43892	-0.592925	0	
2.3200	4.30211	-2.11759	0	
2.3207	7.35063	-2.72746	0	
2.3213	7.66403	-3.03239	0	
2.3220	0.940197	-4.55705	0	
2.3227	-1.79492	-4.25212	0	
2.3233	-0.883215	-2.11759	0	
2.3240	-4.24513	-1.81266	0	
2.3247	-6.06854	-1.50772	0	
2.3253	-5.78364	0.321874	0	
2.3260	-6.38194	0.321874	0	
2.3267	-1.19661	0.321874	0	
2.3273	-1.19661	1.23667	0	
2.3280	-12.479	0.626807	0	
2.3287	-8.51875	-0.592925	0	
2.3293	9.80084	-0.592925	0	
2.3300	10.0857	-1.50772	0	
2.3307	-0.883215	-0.897858	0	
2.3313	0.34189	1.54161	0	
2.3320	8.57574	2.76134	0	
2.3327	11.6243	1.54161	0	
2.3333	3.67532	0.0169407	0	
2.3340	-8.20535	-1.20279	0	
2.3347	-10.969	0.321874	0	
2.3353	-11.2539	2.4564	0	
2.3360	-19.5162	1.54161	0	
2.3367	-20.1145	0.931739	0	
2.3373	-8.20535	3.06627	0	
2.3380	-0.598307	3.98107	0	
2.3387	-0.598307	3.06627	0	
2.3393	-1.51001	3.98107	0	
2.3400	-3.02003	3.3712	0	
2.3407	-1.79492	0.321874	0	
2.3413	1.8519	-0.287992	0	
2.3420	3.07701	2.76134	0	
2.3427	2.76361	4.59093	0	
2.3433	2.76361	3.67614	0	
2.3440	0.940197	2.15147	0	
2.3447	0.940197	0.626807	0	
2.3453	0.0284908	0.321874	0	
2.3460	-1.79492	0.931739	0	
2.3467	-2.70663	0.626807	0	
2.3473	-3.64682	-1.50772	0	
2.3480	-3.64682	-2.11759	0	
2.3487	-1.79492	-0.287992	0	
2.3493	-5.15684	0.321874	0	
2.3500	-12.479	-1.81266	0	
2.3507	-13.7041	-2.42252	0	
2.3513	-13.1058	0.931739	0	
2.3520	-17.3794	3.06627	0	
2.3527	-19.5162	0.321874	0	
2.3533	-17.6643	-1.50772	0	
2.3540	-18.2911	0.626807	0	
2.3547	-15.8409	1.23667	0	
2.3553	-8.51875	0.931739	0	
2.3560	-5.47024	3.98107	0	
2.3567	-6.06854	5.2008	0	
2.3573	-0.883215	2.15147	0	
2.3580	8.57574	1.84654	0	
2.3587	13.4477	1.54161	0	
2.3593	11.9377	-1.81266	0	
2.3600	13.7611	-1.50772	0	
2.3607	21.0832	1.54161	0	
2.3613	20.4849	0.626807	0	
2.3620	8.26234	-1.50772	0	
2.3627	1.2536	-0.592925	0	
2.3633	1.5385	0.321874	0	
2.3640	-1.79492	-1.20279	0	
2.3647	-3.93173	-1.81266	0	
2.3653	-0.598307	-1.50772	0	
2.3660	-0.883215	-0.592925	0	
2.3667	-1.79492	0.321874	0	
2.3673	2.4787	0.0169407	0	
2.3680	3.67532	-2.42252	0	
2.3687	1.8519	-3.33732	0	
2.3693	3.67532	-2.11759	0	
2.3700	3.39041	-0.592925	0	
2.3707	-2.42172	0.931739	0	
2.3713	-8.20535	2.76134	0	
2.3720	-14.0175	3.3712	0	
2.3727	-18.2911	2.76134	0	
2.3733	-16.4677	3.06627	0	
2.3740	-14.6158	3.67614	0	
2.3747	-18.8894	0.0169407	0	
2.3753	-22.8496	-6.69158	0	
2.3760	-17.9777	-8.52118	0	
2.3767	-7.92045	-4.55705	0	
2.3773	-3.02003	-4.55705	0	
2.3780	-2.70663	-9.43598	0	
2.3787	-1.19661	-9.74091	0	
2.3793	-4.24513	-8.21625	0	
2.3800	-8.20535	-11.5705	0	
2.3807	0.0284908	-11.8754	0	
2.3813	12.8494	-5.16692	0	
2.3820	14.0745	0.321874	0	
2.3827	9.80084	0.321874	0	
2.3833	13.1343	-0.592925	0	
2.3840	18.633	2.15147	0	
2.3847	18.0347	6.42053	0	
2.3853	17.4079	7.64026	0	
2.3860	24.7585	5.2008	0	
2.3867	28.7187	1.84654	0	
2.3873	13.7611	-1.81266	0	
2.3880	-16.4677	-3.33732	0	
2.3887	-43.306	-2.42252	0	
2.3893	-53.9901	-3.94719	0	
2.3900	-50.9416	-4.55705	0	
2.3907	-39.6592	-1.50772	0	
2.3913	-23.163	-1.20279	0	
2.3920	-10.0573	-3.33732	0	
2.3927	-12.1941	-1.81266	0	
2.3933	-21.0262	-0.592925	0	
2.3940	-20.1145	-0.897858	0	
2.3947	-11.8807	0.931739	0	
2.3953	-4.55853	2.15147	0	
2.3960	5.52722	2.4564	0	
2.3967	14.6728	3.67614	0	
2.3973	16.4962	3.98107	0	
2.3980	14.9862	3.3712	0	
2.3987	11.3109	2.4564	0	
2.3993	8.57574	0.931739	0	
2.4000	17.4079	1.84654	0	
2.4007	32.9924	5.2008	0	
2.4013	36.3543	4.89587	0	
2.4020	26.5819	2.76134	0	
2.4027	13.7611	3.06627	0	
2.4033	2.76361	1.23667	0	
2.4040	-2.70663	-2.72746	0	
2.4047	-0.883215	-3.03239	0	
2.4053	7.35063	-2.42252	0	
2.4060	21.0832	-1.81266	0	
2.4067	30.5422	1.54161	0	
2.4073	25.6702	2.76134	0	
2.4080	9.17404	-1.20279	0	
2.4087	-3.64682	-1.81266	0	
2.4093	-8.20535	1.23667	0	
2.4100	-7.29365	2.15147	0	
2.4107	-0.883215	2.15147	0	
2.4113	5.52722	3.98107	0	
2.4120	2.1653	5.81067	0	
2.4127	-6.38194	4.89587	0	
2.4133	-6.69534	3.3712	0	
2.4140	-3.64682	3.3712	0	
2.4147	-6.98025	2.15147	0	
2.4153	-11.2539	-4.25212	0	
2.4160	-8.83215	-6.69158	0	
2.4167	-4.55853	-2.42252	0	
2.4173	-2.70663	-2.42252	0	
2.4180	-0.598307	-4.25212	0	
2.4187	0.940197	1.23667	0	
2.4193	-1.79492	3.98107	0	
2.4200	-5.47024	-0.592925	0	
2.4207	-4.84344	-1.81266	0	
2.4213	-0.883215	2.15147	0	
2.4220	4.61551	3.98107	0	
2.4227	11.0259	4.89587	0	
2.4233	11.0259	4.286	0	
2.4240	8.57574	1.84654	0	
2.4247	7.66403	0.931739	0	
2.4253	-1.51001	1.23667	0	
2.4260	-14.6158	1.23667	0	
2.4267	-13.1058	0.931739	0	
2.4273	-8.20535	-2.42252	0	
2.4280	-11.5673	-6.99652	0	
2.4287	-9.43046	-6.99652	0	
2.4293	-8.20535	-3.33732	0	
2.4300	-22.8496	-1.81266	0	
2.4307	-34.1605	-3.03239	0	
2.4313	-28.3484	-2.72746	0	
2.4320	-22.5647	-0.592925	0	
2.4327	-19.2028	-0.592925	0	
2.4333	-10.6556	-1.50772	0	
2.4340	-0.883215	-0.897858	0	
2.4347	7.35063	-0.287992	0	
2.4353	15.5845	0.321874	0	
2.4360	18.3481	2.4564	0	
2.4367	12.8494	3.06627	0	
2.4373	3.39041	-2.42252	0	
2.4380	-0.883215	-6.08172	0	
2.4387	7.35063	-3.33732	0	
2.4393	17.7213	0.0169407	0	
2.4400	15.2711	-0.287992	0	
2.4407	9.17404	-0.592925	0	
2.4413	9.48744	0.321874	0	
2.4420	9.17404	0.0169407	0	
2.4427	6.12553	0.626807	0	
2.4433	5.81213	1.54161	0	
2.4440	4.61551	2.4564	0	
2.4447	2.1653	2.4564	0	
2.4453	1.2536	0.626807	0	
2.4460	-0.284908	-1.50772	0	
2.4467	0.0284908	-1.50772	0	
2.4473	5.21382	-0.287992	0	
2.4480	6.75232	-1.50772	0	
2.4487	6.75232	-3.03239	0	
2.4493	17.123	-0.592925	0	
2.4500	27.1802	2.76134	0	
2.4507	20.1715	3.3712	0	
2.4513	4.90042	4.59093	0	
2.4520	0.0284908	7.33533	0	
2.4527	4.61551	8.25013	0	
2.4533	8.88913	6.72546	0	
2.4540	3.67532	5.81067	0	
2.4547	-2.70663	6.42053	0	
2.4553	-0.883215	4.89587	0	
2.4560	2.1653	1.84654	0	
2.4567	-0.284908	-3.03239	0	
2.4573	-1.79492	-7.60638	0	
2.4580	11.6243	-6.99652	0	
2.4587	35.7275	-2.42252	0	
2.4593	50.9986	-1.20279	0	
2.4600	47.6366	-1.50772	0	
2.4607	38.4911	1.23667	0	
2.4613	30.2288	2.15147	0	
2.4620	17.4079	-0.287992	0	
2.4627	9.17404	1.23667	0	
2.4633	15.5845	3.3712	0	
2.4640	22.6217	-0.592925	0	
2.4647	14.9862	-6.08172	0	
2.4653	-3.64682	-6.69158	0	
2.4660	-26.5249	-5.16692	0	
2.4667	-39.3458	-2.42252	0	
2.4673	-31.112	1.84654	0	
2.4680	-19.8011	3.67614	0	
2.4687	-24.0747	2.76134	0	
2.4693	-27.4367	2.15147	0	
2.4700	-21.3396	3.06627	0	
2.4707	-14.6158	5.81067	0	
2.4713	-6.98025	9.4868	0	
2.4720	-4.55853	8.85999	0	
2.4727	-12.479	3.3712	0	
2.4733	-10.0573	1.23667	0	
2.4740	-2.70663	-3.03239	0	
2.4747	-12.7924	-15.8565	0	
2.4753	-9.11706	-25.6144	0	
2.4760	21.0832	-22.2601	0	
2.4767	20.7698	-17.6861	0	
2.4773	-11.8807	-19.8206	0	
2.4780	-23.163	-19.8206	0	
2.4787	-19.5162	-13.722	0	
2.4793	-24.7015	-9.43598	0	
2.4800	-21.3396	-8.52118	0	
2.4807	-12.7924	-7.91131	0	
2.4813	-11.8807	-6.99652	0	
2.4820	-4.84344	-6.99652	0	
2.4827	3.07701	-5.16692	0	
2.4833	1.5385	-1.50772	0	
2.4840	2.4787	-0.592925	0	
2.4847	8.26234	-2.72746	0	
2.4853	8.26234	-3.94719	0	
2.4860	3.67532	-2.42252	0	
2.4867	-1.79492	-1.50772	0	
2.4873	-3.02003	-0.592925	0	
2.4880	1.2536	1.23667	0	
2.4887	1.5385	3.3712	0	
2.4893	-3.02003	3.98107	0	
2.4900	-4.55853	0.931739	0	
2.4907	-4.84344	-4.25212	0	
2.4913	-2.70663	-6.99652	0	
2.4920	3.98871	-4.86199	0	
2.4927	3.67532	-2.72746	0	
2.4933	-2.70663	-2.72746	0	
2.4940	-2.42172	-2.42252	0	
2.4947	0.626798	1.54161	0	
2.4953	-2.70663	4.89587	0	
2.4960	-7.29365	2.15147	0	
2.4967	-3.64682	-3.94719	0	
2.4973	2.76361	-6.99652	0	
2.4980	0.940197	-5.77678	0	
2.4987	-6.38194	-2.72746	0	
2.4993	-13.7041	-1.20279	0	
2.5000	-23.7898	-1.81266	0	
2.5007	-24.9864	-3.33732	0	
2.5013	-4.84344	-4.25212	0	
2.5020	11.9377	-3.33732	0	
2.5027	15.8979	-0.592925	0	
2.5033	30.2288	2.15147	0	
2.5040	37.8643	2.15147	0	
2.5047	11.9377	2.76134	0	
2.5053	-16.4677	2.15147	0	
2.5060	-20.4279	0.321874	0	
2.5067	-16.7526	-0.592925	0	
2.5073	-13.1058	1.23667	0	
2.5080	-12.7924	2.4564	0	
2.5087	-27.4367	2.15147	0	
2.5093	-38.4341	2.15147	0	
2.5100	-27.4367	3.06627	0	
2.5107	-18.2911	3.67614	0	
2.5113	-23.7898	3.98107	0	
2.5120	-25.6132	3.98107	0	
2.5127	-19.5162	5.81067	0	
2.5133	-14.6158	10.4016	0	
2.5140	-13.7041	12.8411	0	
2.5147	-13.1058	9.18187	0	
2.5153	-10.0573	3.98107	0	
2.5160	-6.98025	3.67614	0	
2.5167	-9.11706	4.59093	0	
2.5173	-10.3422	3.98107	0	
2.5180	-3.93173	2.4564	0	
2.5187	2.4787	1.23667	0	
2.5193	2.4787	0.931739	0	
2.5200	3.67532	1.23667	0	
2.5207	8.57574	1.84654	0	
2.5213	9.17404	1.84654	0	
2.5220	6.12553	0.0169407	0	
2.5227	6.43892	-2.42252	0	
2.5233	8.88913	-0.592925	0	
2.5240	7.66403	1.84654	0	
2.5247	4.61551	0.626807	0	
2.5253	1.8519	0.0169407	0	
2.5260	-1.79492	1.54161	0	
2.5267	-7.29365	0.931739	0	
2.5273	-10.969	-0.897858	0	
2.5280	-5.78364	0.321874	0	
2.5287	3.07701	0.321874	0	
2.5293	-2.70663	-2.42252	0	
2.5300	-21.0262	-4.25212	0	
2.5307	-26.2116	-3.64225	0	
2.5313	-13.7041	-3.33732	0	
2.5320	2.76361	-3.33732	0	
2.5327	20.1715	-4.25212	0	
2.5333	28.0919	-4.25212	0	
2.5340	19.2598	-2.42252	0	
2.5347	10.0857	0.0169407	0	
2.5353	8.26234	-1.50772	0	
2.5360	2.76361	-6.38665	0	
2.5367	-2.70663	-8.82611	0	
2.5373	0.0284908	-7.60638	0	
2.5380	3.39041	-6.08172	0	
2.5387	3.67532	-4.25212	0	
2.5393	4.90042	-3.94719	0	
2.5400	6.43892	-5.16692	0	
2.5407	7.94894	-4.55705	0	
2.5413	10.3991	-0.897858	0	
2.5420	11.3109	-0.592925	0	
2.5427	10.7125	-4.25212	0	
2.5433	11.0259	-5.77678	0	
2.5440	10.0857	-6.08172	0	
2.5447	8.57574	-8.21625	0	
2.5453	8.26234	-7.91131	0	
2.5460	7.94894	-4.25212	0	
2.5467	8.26234	-2.11759	0	
2.5473	6.75232	0.0169407	0	
2.5480	-0.883215	1.84654	0	
2.5487	-13.7041	0.321874	0	
2.5493	-25.6132	0.931739	0	
2.5500	-31.112	3.98107	0	
2.5507	-28.3484	2.15147	0	
2.5513	-21.653	-2.11759	0	
2.5520	-16.4677	-0.897858	0	
2.5527	-13.3907	-0.287992	0	
2.5533	-18.576	-3.33732	0	
2.5540	-28.9752	-3.33732	0	
2.5547	-19.8011	-1.20279	0	
2.5553	16.4962	-0.592925	0	
2.5560	53.1354	1.23667	0	
2.5567	68.093	3.06627	0	
2.5573	61.6826	2.76134	0	
2.5580	46.7249	4.59093	0	
2.5587	38.776	6.72546	0	
2.5593	31.4539	3.98107	0	
2.5600	8.26234	-0.287992	0	
2.5607	-8.83215	-1.81266	0	
2.5613	6.12553	-0.592925	0	
2.5620	30.2288	1.23667	0	
2.5627	33.2773	0.931739	0	
2.5633	25.6702	-0.592925	0	
2.5640	18.3481	1.23667	0	
2.5647	4.61551	0.0169407	0	
2.5653	-10.6556	-3.94719	0	
2.5660	-13.7041	-1.81266	0	
2.5667	-3.64682	2.15147	0	
2.5673	9.17404	0.0169407	0	
2.5680	12.536	-0.287992	0	
2.5687	5.52722	3.06627	0	
2.5693	-1.51001	3.98107	0	
2.5700	-1.19661	5.50573	0	
2.5707	0.0284908	8.55506	0	
2.5713	-3.02003	7.33533	0	
2.5720	-5.47024	4.89587	0	
2.5727	-2.10832	5.81067	0	
2.5733	-0.883215	4.89587	0	
2.5740	-8.20535	2.15147	0	
2.5747	-15.8409	3.06627	0	
2.5753	-14.9292	3.98107	0	
2.5760	-12.479	2.76134	0	
2.5767	-14.6158	1.23667	0	
2.5773	-14.6158	0.0169407	0	
2.5780	-13.3907	2.15147	0	
2.5787	-18.576	6.72546	0	
2.5793	-24.9864	4.89587	0	
2.5800	-25.2998	-0.897858	0	
2.5807	-23.163	-0.592925	0	
2.5813	-19.2028	3.67614	0	
2.5820	-9.43046	7.0304	0	
2.5827	1.8519	11.3164	0	
2.5833	12.8494	11.0115	0	
2.5840	20.4849	7.64026	0	
2.5847	26.5819	6.42053	0	
2.5853	38.4911	-1.20279	0	
2.5860	46.0981	-15.5516	0	
2.5867	36.3543	-19.8206	0	
2.5873	21.6815	-10.9606	0	
2.5880	12.2226	-4.25212	0	
2.5887	3.98871	-3.64225	0	
2.5893	0.940197	-2.72746	0	
2.5900	-4.24513	-3.33732	0	
2.5907	-26.8383	-6.08172	0	
2.5913	-44.2177	-9.43598	0	
2.5920	-32.622	-8.21625	0	
2.5927	-18.8894	-2.72746	0	
2.5933	-24.0747	0.321874	0	
2.5940	-30.4852	-2.42252	0	
2.5947	-27.7501	-4.25212	0	
2.5953	-23.163	-2.42252	0	
2.5960	-20.4279	-2.42252	0	
2.5967	-19.2028	-5.16692	0	
2.5973	-16.7526	-7.30145	0	
2.5980	-9.43046	-6.08172	0	
2.5987	-2.70663	-5.16692	0	
2.5993	1.2536	-6.38665	0	
2.6000	9.48744	-5.77678	0	
2.6007	16.8096	-3.33732	0	
2.6013	12.536	-1.81266	0	
2.6020	0.0284908	-1.20279	0	
2.6027	-8.20535	-1.20279	0	
2.6033	-8.83215	-2.11759	0	
2.6040	-6.06854	-2.72746	0	
2.6047	-3.33343	-2.42252	0	
2.6053	-2.42172	-1.20279	0	
2.6060	1.8519	-0.897858	0	
2.6067	11.9377	-4.25212	0	
2.6073	13.7611	-6.08172	0	
2.6080	-0.284908	-2.42252	0	
2.6087	-12.1941	0.626807	0	
2.6093	-11.8807	0.321874	0	
2.6100	-10.0573	1.23667	0	
2.6107	-11.5673	1.23667	0	
2.6113	-12.479	0.0169407	0	
2.6120	-14.0175	0.931739	0	
2.6127	-13.1058	2.76134	0	
2.6133	-10.3422	2.15147	0	
2.6140	-10.969	0.931739	0	
2.6147	-10.969	1.23667	0	
2.6153	-6.98025	4.89587	0	
2.6160	-5.15684	7.33533	0	
2.6167	-4.24513	4.89587	0	
2.6173	-0.598307	1.84654	0	
2.6180	1.5385	3.3712	0	
2.6187	2.4787	5.2008	0	
2.6193	4.61551	3.3712	0	
2.6200	4.30211	1.54161	0	
2.6207	1.8519	3.06627	0	
2.6213	3.98871	4.59093	0	
2.6220	8.26234	3.67614	0	
2.6227	9.48744	3.06627	0	
2.6233	11.9377	4.89587	0	
2.6240	17.4079	4.59093	0	
2.6247	16.8096	0.321874	0	
2.6253	9.17404	0.0169407	0	
2.6260	4.61551	3.06627	0	
2.6267	7.35063	3.67614	0	
2.6273	10.0857	3.98107	0	
2.6280	10.0857	4.89587	0	
2.6287	7.94894	2.15147	0	
2.6293	3.07701	0.0169407	0	
2.6300	0.940197	2.15147	0	
2.6307	0.940197	2.15147	0	
2.6313	-2.42172	-1.50772	0	
2.6320	-4.55853	-1.81266	0	
2.6327	-1.19661	0.931739	0	
2.6333	-2.10832	0.931739	0	
2.6340	-6.38194	-0.592925	0	
2.6347	-3.02003	0.0169407	0	
2.6353	0.940197	0.626807	0	
2.6360	-1.79492	-0.592925	0	
2.6367	-3.02003	-2.42252	0	
2.6373	0.0284908	-2.11759	0	
2.6380	-0.598307	-0.592925	0	
2.6387	-1.51001	-2.11759	0	
2.6393	0.940197	-4.25212	0	
2.6400	1.2536	-2.11759	0	
2.6407	2.1653	0.0169407	0	
2.6413	7.35063	-2.42252	0	
2.6420	9.17404	-4.25212	0	
2.6427	6.12553	-3.64225	0	
2.6433	5.21382	-5.47185	0	
2.6440	6.12553	-8.52118	0	
2.6447	5.52722	-6.99652	0	
2.6453	5.52722	-4.55705	0	
2.6460	5.52722	-5.16692	0	
2.6467	3.39041	-4.86199	0	
2.6473	-0.883215	-5.16692	0	
2.6480	-4.55853	-7.91131	0	
2.6487	-5.15684	-7.60638	0	
2.6493	-4.55853	-5.16692	0	
2.6500	-7.60705	-5.16692	0	
2.6507	-9.11706	-5.16692	0	
2.6513	-5.47024	-3.94719	0	
2.6520	-3.64682	-2.72746	0	
2.6527	-7.60705	-3.94719	0	
2.6533	-10.6556	-5.16692	0	
2.6540	-11.2539	-4.86199	0	
2.6547	-11.5673	-2.72746	0	
2.6553	-7.60705	-1.50772	0	
2.6560	-1.79492	-1.50772	0	
2.6567	-1.19661	0.321874	0	
2.6573	-1.19661	1.23667	0	
2.6580	2.4787	0.321874	0	
2.6587	3.67532	-0.897858	0	
2.6593	-0.883215	-2.11759	0	
2.6600	-4.24513	-1.50772	0	
2.6607	-0.598307	1.54161	0	
2.6613	3.98871	2.76134	0	
2.6620	6.43892	-0.897858	0	
2.6627	9.17404	-1.81266	0	
2.6633	11.0259	2.76134	0	
2.6640	9.48744	4.89587	0	
2.6647	9.17404	1.54161	0	
2.6653	10.0857	-0.592925	0	
2.6660	5.52722	-0.897858	0	
2.6667	0.0284908	-2.42252	0	
2.6673	0.0284908	-2.72746	0	
2.6680	3.07701	0.626807	0	
2.6687	4.30211	3.06627	0	
2.6693	3.67532	2.15147	0	
2.6700	3.98871	2.15147	0	
2.6707	3.67532	3.98107	0	
2.6713	1.5385	3.06627	0	
2.6720	0.940197	0.931739	0	
2.6727	2.76361	1.23667	0	
2.6733	2.76361	3.98107	0	
2.6740	0.940197	4.286	0	
2.6747	-2.70663	1.54161	0	
2.6753	-13.1058	0.321874	0	
2.6760	-23.7898	0.931739	0	
2.6767	-20.1145	1.54161	0	
2.6773	-7.29365	1.84654	0	
2.6780	-0.883215	2.4564	0	
2.6787	-0.883215	2.4564	0	
2.6793	0.940197	1.54161	0	
2.6800	0.940197	0.931739	0	
2.6807	0.940197	-1.50772	0	
2.6813	4.30211	-2.72746	0	
2.6820	3.98871	-0.592925	0	
2.6827	-1.19661	1.84654	0	
2.6833	0.0284908	1.23667	0	
2.6840	8.26234	0.626807	0	
2.6847	17.123	0.931739	0	
2.6853	21.9949	0.321874	0	
2.6860	18.9464	-0.592925	0	
2.6867	10.0857	-1.81266	0	
2.6873	10.3991	-1.50772	0	
2.6880	17.7213	2.15147	0	
2.6887	13.1343	2.76134	0	
2.6893	-1.79492	-1.20279	0	
2.6900	-11.2539	-1.20279	0	
2.6907	-13.3907	0.321874	0	
2.6913	-14.0175	-2.11759	0	
2.6920	-11.8807	-3.03239	0	
2.6927	-6.98025	-0.592925	0	
2.6933	-6.69534	-0.287992	0	
2.6940	-11.5673	0.321874	0	
2.6947	-13.1058	3.06627	0	
2.6953	-11.8807	2.15147	0	
2.6960	-15.2426	0.321874	0	
2.6967	-17.3794	0.931739	0	
2.6973	-13.3907	-0.287992	0	
2.6980	-10.3422	-1.50772	0	
2.6987	-4.55853	0.321874	0	
2.6993	6.43892	0.931739	0	
2.7000	10.0857	-4.25212	0	
2.7007	8.26234	-6.99652	0	
2.7013	18.3481	-4.25212	0	
2.7020	31.1405	-1.20279	0	
2.7027	30.5422	-2.42252	0	
2.7033	24.1317	-3.33732	0	
2.7040	20.4849	-1.50772	0	
2.7047	18.3481	-0.287992	0	
2.7053	13.7611	-1.81266	0	
2.7060	5.52722	-1.50772	0	
2.7067	2.1653	0.321874	0	
2.7073	8.26234	-1.81266	0	
2.7080	13.4477	-2.72746	0	
2.7087	11.9377	-0.287992	0	
2.7093	9.80084	0.626807	0	
2.7100	11.6243	-0.287992	0	
2.7107	12.2226	1.23667	0	
2.7113	6.75232	2.4564	0	
2.7120	0.940197	1.23667	0	
2.7127	1.8519	0.626807	0	
2.7133	-3.93173	2.15147	0	
2.7140	-21.9379	3.06627	0	
2.7147	-35.6705	3.67614	0	
2.7153	-48.178	4.89587	0	
2.7160	-67.1244	3.98107	0	
2.7167	-71.398	1.54161	0	
2.7173	-51.5399	1.23667	0	
2.7180	-34.1605	3.06627	0	
2.7187	-27.1233	5.50573	0	
2.7193	-14.6158	5.50573	0	
2.7200	5.21382	2.15147	0	
2.7207	22.9066	-1.20279	0	
2.7213	36.3543	0.321874	0	
2.7220	47.6366	1.23667	0	
2.7227	46.4115	-1.50772	0	
2.7233	23.5334	-2.72746	0	
2.7240	-2.70663	-1.50772	0	
2.7247	-9.11706	-1.50772	0	
2.7253	-0.598307	0.321874	0	
2.7260	3.67532	2.15147	0	
2.7267	0.0284908	1.23667	0	
2.7273	-1.79492	-0.592925	0	
2.7280	3.67532	-0.592925	0	
2.7287	7.66403	0.626807	0	
2.7293	1.2536	1.23667	0	
2.7300	-3.93173	2.4564	0	
2.7307	-1.51001	3.06627	0	
2.7313	0.940197	0.931739	0	
2.7320	1.5385	-0.592925	0	
2.7327	3.07701	2.15147	0	
2.7333	2.4787	2.15147	0	
2.7340	1.5385	-1.50772	0	
2.7347	3.39041	0.321874	0	
2.7353	3.67532	4.59093	0	
2.7360	-1.19661	4.89587	0	
2.7367	-13.3907	3.98107	0	
2.7373	-24.3881	2.4564	0	
2.7380	-18.2911	-0.592925	0	
2.7387	-4.24513	1.84654	0	
2.7393	-9.43046	6.72546	0	
2.7400	-23.4764	4.89587	0	
2.7407	-14.9292	2.76134	0	
2.7413	5.52722	5.50573	0	
2.7420	9.48744	5.81067	0	
2.7427	3.07701	3.06627	0	
2.7433	2.76361	-0.287992	0	
2.7440	5.52722	-2.72746	0	
2.7447	7.35063	-1.50772	0	
2.7453	8.88913	2.15147	0	
2.7460	8.57574	2.4564	0	
2.7467	6.12553	1.84654	0	
2.7473	2.76361	1.23667	0	
2.7480	-0.598307	-0.592925	0	
2.7487	-4.24513	-1.20279	0	
2.7493	-7.29365	0.321874	0	
2.7500	-7.92045	-1.81266	0	
2.7507	-4.24513	-3.94719	0	
2.7513	-2.42172	-0.287992	0	
2.7520	-6.38194	0.626807	0	
2.7527	-10.0573	-3.33732	0	
2.7533	-10.0573	-2.72746	0	
2.7540	-9.43046	1.23667	0	
2.7547	-7.60705	0.931739	0	
2.7553	-3.64682	-0.592925	0	
2.7560	-0.284908	1.23667	0	
2.7567	0.940197	3.06627	0	
2.7573	1.8519	2.15147	0	
2.7580	3.39041	2.15147	0	
2.7587	3.67532	3.98107	0	
2.7593	0.626798	2.4564	0	
2.7600	-2.10832	-1.20279	0	
2.7607	0.940197	-2.42252	0	
2.7613	3.07701	-2.72746	0	
2.7620	3.67532	-3.03239	0	
2.7627	7.66403	-0.592925	0	
2.7633	11.3109	1.54161	0	
2.7640	10.0857	2.15147	0	
2.7647	7.66403	2.4564	0	
2.7653	5.21382	1.54161	0	
2.7660	0.0284908	-1.81266	0	
2.7667	-3.02003	-4.25212	0	
2.7673	-1.51001	-4.25212	0	
2.7680	-0.284908	-3.33732	0	
2.7687	-0.883215	-0.592925	0	
2.7693	-1.51001	1.23667	0	
2.7700	-1.79492	-0.287992	0	
2.7707	-1.79492	-2.42252	0	
2.7713	-3.93173	-1.50772	0	
2.7720	-7.60705	0.931739	0	
2.7727	-5.78364	1.54161	0	
2.7733	-1.19661	-1.20279	0	
2.7740	-3.64682	-3.94719	0	
2.7747	-9.11706	-3.64225	0	
2.7753	-10.6556	-2.42252	0	
2.7760	-8.20535	-1.50772	0	
2.7767	-5.47024	1.23667	0	
2.7773	-7.60705	3.98107	0	
2.7780	-14.6158	2.4564	0	
2.7787	-17.3794	0.0169407	0	
2.7793	-14.3309	1.54161	0	
2.7800	-10.0573	4.286	0	
2.7807	-3.93173	4.59093	0	
2.7813	-3.33343	3.3712	0	
2.7820	-11.8807	1.54161	0	
2.7827	-11.5673	-0.897858	0	
2.7833	7.94894	-1.20279	0	
2.7840	28.4053	0.321874	0	
2.7847	32.9924	-0.287992	0	
2.7853	28.4053	-3.03239	0	
2.7860	27.4936	-2.42252	0	
2.7867	33.9041	0.321874	0	
2.7873	35.4141	0.626807	0	
2.7880	26.8953	0.321874	0	
2.7887	18.3481	2.76134	0	
2.7893	17.123	3.06627	0	
2.7900	13.7611	-0.897858	0	
2.7907	2.76361	-3.33732	0	
2.7913	-4.55853	-2.11759	0	
2.7920	-5.47024	-1.81266	0	
2.7927	-9.74386	-3.03239	0	
2.7933	-14.9292	-1.50772	0	
2.7940	-13.3907	0.321874	0	
2.7947	-10.3422	0.321874	0	
2.7953	-7.29365	0.321874	0	
2.7960	0.940197	0.626807	0	
2.7967	5.52722	0.0169407	0	
2.7973	3.07701	-0.897858	0	
2.7980	5.52722	0.0169407	0	
2.7987	11.6243	0.931739	0	
2.7993	15.8979	-1.50772	0	
2.8000	22.9066	-4.25212	0	
2.8007	27.4936	-3.33732	0	
2.8013	22.3083	-2.42252	0	
2.8020	14.6728	-3.64225	0	
2.8027	5.52722	-3.64225	0	
2.8033	-8.51875	-3.64225	0	
2.8040	-22.2513	-5.16692	0	
2.8047	-27.4367	-6.08172	0	
2.8053	-21.9379	-6.69158	0	
2.8060	-12.7924	-6.08172	0	
2.8067	-10.3422	-3.33732	0	
2.8073	-11.5673	-1.20279	0	
2.8080	-9.11706	-3.94719	0	
2.8087	-7.29365	-8.52118	0	
2.8093	-7.92045	-8.82611	0	
2.8100	-6.06854	-6.69158	0	
2.8107	-10.0573	-9.74091	0	
2.8113	-18.2911	-13.1121	0	
2.8120	-18.2911	-8.82611	0	
2.8127	-14.6158	-3.03239	0	
2.8133	-12.7924	0.321874	0	
2.8140	-10.3422	2.15147	0	
2.8147	-11.2539	1.54161	0	
2.8153	-16.1543	1.23667	0	
2.8160	-14.9292	5.2008	0	
2.8167	-10.0573	7.64026	0	
2.8173	-9.74386	7.0304	0	
2.8180	-10.3422	7.64026	0	
2.8187	-7.29365	6.42053	0	
2.8193	-3.64682	3.3712	0	
2.8200	-0.883215	3.3712	0	
2.8207	-1.19661	3.06627	0	
2.8213	-1.51001	0.626807	0	
2.8220	1.8519	0.626807	0	
2.8227	1.5385	3.06627	0	
2.8233	-6.98025	2.15147	0	
2.8240	-10.969	-1.50772	0	
2.8247	-7.60705	-1.81266	0	
2.8253	-7.60705	0.626807	0	
2.8260	-8.51875	0.626807	0	
2.8267	-5.78364	-1.50772	0	
2.8273	-4.84344	-0.592925	0	
2.8280	-1.79492	-0.287992	0	
2.8287	7.35063	-3.94719	0	
2.8293	11.9377	-4.25212	0	
2.8300	15.5845	-0.592925	0	
2.8307	26.8953	1.23667	0	
2.8313	22.6217	0.321874	0	
2.8320	-6.38194	0.321874	0	
2.8327	-26.5249	-0.897858	0	
2.8333	-25.6132	-2.11759	0	
2.8340	-24.7015	-1.81266	0	
2.8347	-24.7015	-2.42252	0	
2.8353	-18.2911	-2.72746	0	
2.8360	-12.7924	-2.42252	0	
2.8367	-11.8807	-1.81266	0	
2.8373	-7.29365	-2.11759	0	
2.8380	3.67532	-2.42252	0	
2.8387	13.1343	-3.33732	0	
2.8393	12.2226	-5.16692	0	
2.8400	6.12553	-4.86199	0	
2.8407	6.75232	-3.64225	0	
2.8413	10.0857	-2.42252	0	
2.8420	11.3109	-0.592925	0	
2.8427	16.2113	-0.897858	0	
2.8433	18.9464	-3.33732	0	
2.8440	13.1343	-2.42252	0	
2.8447	9.48744	-0.287992	0	
2.8453	11.3109	-1.50772	0	
2.8460	12.8494	-2.72746	0	
2.8467	15.5845	-2.42252	0	
2.8473	16.2113	-3.94719	0	
2.8480	8.26234	-3.94719	0	
2.8487	0.940197	-2.11759	0	
2.8493	0.34189	-1.50772	0	
2.8500	0.940197	-0.897858	0	
2.8507	1.8519	1.23667	0	
2.8513	1.5385	1.84654	0	
2.8520	-1.79492	0.321874	0	
2.8527	-3.64682	-2.42252	0	
2.8533	-1.51001	-4.25212	0	
2.8540	0.626798	-4.25212	0	
2.8547	0.940197	-2.11759	0	
2.8553	1.5385	-2.11759	0	
2.8560	2.76361	-1.20279	0	
2.8567	5.21382	0.626807	0	
2.8573	4.61551	0.626807	0	
2.8580	0.940197	-0.592925	0	
2.8587	-0.883215	-1.20279	0	
2.8593	-1.19661	-2.42252	0	
2.8600	2.76361	-3.03239	0	
2.8607	10.0857	-3.64225	0	
2.8613	11.0259	-4.25212	0	
2.8620	6.75232	-3.33732	0	
2.8627	7.94894	-3.03239	0	
2.8633	10.0857	-3.64225	0	
2.8640	6.75232	-2.11759	0	
2.8647	4.30211	-0.592925	0	
2.8653	3.67532	-3.03239	0	
2.8660	0.940197	-3.33732	0	
2.8667	-1.51001	-1.20279	0	
2.8673	-3.93173	-1.50772	0	
2.8680	-6.69534	-2.72746	0	
2.8687	-6.98025	-3.33732	0	
2.8693	-6.06854	-4.86199	0	
2.8700	-7.29365	-5.16692	0	
2.8707	-7.29365	-4.25212	0	
2.8713	-5.47024	-4.25212	0	
2.8720	-6.69534	-1.81266	0	
2.8727	-6.98025	0.321874	0	
2.8733	-2.42172	-3.03239	0	
2.8740	1.5385	-4.25212	0	
2.8747	-1.19661	0.0169407	0	
2.8753	-3.64682	-0.287992	0	
2.8760	2.4787	-3.33732	0	
2.8767	9.17404	-1.50772	0	
2.8773	9.17404	0.0169407	0	
2.8780	10.0857	-1.20279	0	
2.8787	13.7611	-0.897858	0	
2.8793	14.0745	-1.20279	0	
2.8800	13.1343	-1.50772	0	
2.8807	14.3594	0.321874	0	
2.8813	13.4477	-0.287992	0	
2.8820	9.80084	-2.42252	0	
2.8827	6.75232	0.0169407	0	
2.8833	6.43892	1.54161	0	
2.8840	4.61551	-0.592925	0	
2.8847	-2.70663	0.321874	0	
2.8853	-12.7924	1.54161	0	
2.8860	-18.2911	-2.72746	0	
2.8867	-18.2911	-5.16692	0	
2.8873	-17.3794	-2.72746	0	
2.8880	-14.9292	-1.50772	0	
2.8887	-9.11706	-1.50772	0	
2.8893	-5.47024	1.54161	0	
2.8900	-4.55853	3.98107	0	
2.8907	-2.42172	3.98107	0	
2.8913	-3.33343	3.98107	0	
2.8920	-10.969	1.84654	0	
2.8927	-14.3309	-0.287992	0	
2.8933	-8.51875	-1.50772	0	
2.8940	-8.20535	-3.94719	0	
2.8947	-18.2911	-5.16692	0	
2.8953	-22.8496	-3.33732	0	
2.8960	-16.7526	-1.50772	0	
2.8967	-11.8807	-0.592925	0	
2.8973	-7.60705	2.15147	0	
2.8980	0.34189	3.06627	0	
2.8987	7.35063	0.626807	0	
2.8993	11.9377	-1.50772	0	
2.9000	19.2598	-0.897858	0	
2.9007	21.9949	0.0169407	0	
2.9013	8.26234	-0.897858	0	
2.9020	-6.38194	-1.50772	0	
2.9027	-5.47024	0.321874	0	
2.9033	1.2536	2.4564	0	
2.9040	2.76361	2.76134	0	
2.9047	2.76361	2.76134	0	
2.9053	2.76361	2.4564	0	
2.9060	3.39041	1.23667	0	
2.9067	5.52722	1.23667	0	
2.9073	2.1653	1.84654	0	
2.9080	-3.64682	1.23667	0	
2.9087	-0.598307	-1.50772	0	
2.9093	2.76361	-2.42252	0	
2.9100	-3.64682	0.0169407	0	
2.9107	-10.6556	0.626807	0	
2.9113	-12.7924	-0.897858	0	
2.9120	-14.6158	0.0169407	0	
2.9127	-12.479	2.4564	0	
2.9133	-5.47024	1.54161	0	
2.9140	1.8519	0.321874	0	
2.9147	11.9377	0.931739	0	
2.9153	17.7213	0.0169407	0	
2.9160	14.6728	1.23667	0	
2.9167	11.3109	5.2008	0	
2.9173	7.66403	4.59093	0	
2.9180	-0.598307	0.0169407	0	
2.9187	-3.33343	-0.287992	0	
2.9193	2.76361	1.54161	0	
2.9200	4.30211	0.321874	0	
2.9207	-1.19661	-1.50772	0	
2.9213	-3.33343	0.626807	0	
2.9220	0.940197	5.50573	0	
2.9227	6.43892	5.81067	0	
2.9233	13.4477	1.23667	0	
2.9240	26.5819	0.931739	0	
2.9247	37.5509	3.67614	0	
2.9253	31.1405	-1.50772	0	
2.9260	13.7611	-8.52118	0	
2.9267	2.76361	-7.60638	0	
2.9273	-0.883215	-5.16692	0	
2.9280	-2.42172	-6.08172	0	
2.9287	1.8519	-4.25212	0	
2.9293	5.21382	-0.592925	0	
2.9300	1.5385	1.23667	0	
2.9307	0.626798	2.15147	0	
2.9313	1.2536	2.15147	0	
2.9320	-3.02003	3.06627	0	
