0.0000	2.52668	-0.444431	1
0.0007	4.66834	-0.138885	0	
0.0013	7.4116	0.777754	0	
0.0020	7.4116	2.61103	0	
0.0027	6.78594	1.38885	0	
0.0033	10.7564	-1.36107	0	
0.0040	16.5558	-0.444431	0	
0.0047	17.1814	0.166661	0	
0.0053	14.4141	-0.444431	0	
0.0060	14.7269	-1.05552	0	
0.0067	14.4141	-0.444431	0	
0.0073	10.7564	1.99994	0	
0.0080	8.61478	3.22212	0	
0.0087	8.32602	-1.05552	0	
0.0093	4.66834	-4.11098	0	
0.0100	0.986609	-1.66661	0	
0.0107	1.61226	-0.749977	0	
0.0113	0.986609	-2.27771	0	
0.0120	-3.87424	-2.27771	0	
0.0127	-7.55598	-3.19435	0	
0.0133	-9.98641	-4.11098	0	
0.0140	-12.4409	-1.97216	0	
0.0147	-13.0425	-1.66661	0	
0.0153	-13.9569	-3.19435	0	
0.0160	-14.8713	-2.8888	0	
0.0167	-14.5585	-2.58325	0	
0.0173	-14.8713	-3.19435	0	
0.0180	-13.6441	-0.138885	0	
0.0187	-8.75916	2.30548	0	
0.0193	-5.41432	-0.444431	0	
0.0200	-4.81273	-4.11098	0	
0.0207	-0.216573	-2.58325	0	
0.0213	4.66834	1.38885	0	
0.0220	3.12827	2.30548	0	
0.0227	3.75393	1.69439	0	
0.0233	9.84203	3.52767	0	
0.0240	9.24043	3.22212	0	
0.0247	4.95711	-1.05552	0	
0.0253	11.0693	-4.11098	0	
0.0260	19.299	-3.49989	0	
0.0267	15.6414	-1.66661	0	
0.0273	11.0693	-0.444431	0	
0.0280	12.5853	-1.05552	0	
0.0287	8.32602	-2.27771	0	
0.0293	0.0721909	-2.27771	0	
0.0300	-0.842227	-2.58325	0	
0.0307	1.90103	-3.80544	0	
0.0313	1.29944	-2.27771	0	
0.0320	-3.58548	-1.36107	0	
0.0327	-11.5265	-3.19435	0	
0.0333	-17.3258	-2.27771	0	
0.0340	-16.7002	-0.138885	0	
0.0347	-14.5585	0.166661	0	
0.0353	-15.7857	0.777754	0	
0.0360	-16.0986	3.22212	0	
0.0367	-15.4729	4.13876	0	
0.0373	-17.3258	4.13876	0	
0.0380	-19.1547	1.38885	0	
0.0387	-14.5585	-1.36107	0	
0.0393	-10.9008	-0.444431	0	
0.0400	-10.9008	2.30548	0	
0.0407	-7.84474	2.30548	0	
0.0413	-1.13099	1.0833	0	
0.0420	1.29944	-0.138885	0	
0.0427	1.90103	-1.36107	0	
0.0433	6.49718	-1.66661	0	
0.0440	13.8125	-2.27771	0	
0.0447	17.4702	-1.66661	0	
0.0453	13.8125	0.166661	0	
0.0460	10.7564	-0.444431	0	
0.0467	15.0398	-3.19435	0	
0.0473	18.6974	-1.97216	0	
0.0480	15.6414	1.0833	0	
0.0487	9.24043	0.472208	0	
0.0493	4.35552	0.166661	0	
0.0500	3.12827	1.99994	0	
0.0507	4.04269	2.30548	0	
0.0513	0.986609	-0.444431	0	
0.0520	-4.81273	-2.8888	0	
0.0527	-6.32874	-1.97216	0	
0.0533	-7.24315	-1.36107	0	
0.0540	-10.588	-2.8888	0	
0.0547	-11.8152	-3.19435	0	
0.0553	-9.67358	-3.19435	0	
0.0560	-9.67358	-3.49989	0	
0.0567	-14.2697	-1.36107	0	
0.0573	-17.3258	1.38885	0	
0.0580	-15.1842	-0.444431	0	
0.0587	-12.4409	-1.66661	0	
0.0593	-12.4409	0.777754	0	
0.0600	-9.67358	3.22212	0	
0.0607	-4.81273	3.22212	0	
0.0613	-2.67106	2.91658	0	
0.0620	0.385018	1.0833	0	
0.0627	6.49718	-0.138885	0	
0.0633	8.61478	0.777754	0	
0.0640	6.49718	1.38885	0	
0.0647	8.32602	0.166661	0	
0.0653	14.7269	-0.749977	0	
0.0660	18.3846	-1.05552	0	
0.0667	17.4702	-0.444431	0	
0.0673	14.7269	0.166661	0	
0.0680	12.8981	-0.138885	0	
0.0687	13.8125	1.38885	0	
0.0693	12.8981	3.22212	0	
0.0700	8.01319	-0.138885	0	
0.0707	0.697845	-3.19435	0	
0.0713	-3.27265	0.472208	0	
0.0720	-3.58548	3.52767	0	
0.0727	-7.55598	1.38885	0	
0.0733	-15.7857	-0.444431	0	
0.0740	-18.8418	-0.444431	0	
0.0747	-16.0986	-1.36107	0	
0.0753	-14.2697	0.472208	0	
0.0760	-13.3553	1.38885	0	
0.0767	-13.6441	-0.138885	0	
0.0773	-15.4729	1.0833	0	
0.0780	-13.6441	2.91658	0	
0.0787	-11.5265	-0.138885	0	
0.0793	-12.4409	-1.66661	0	
0.0800	-9.98641	1.38885	0	
0.0807	-5.72714	1.69439	0	
0.0813	-6.01591	-0.749977	0	
0.0820	-2.95983	-0.138885	0	
0.0827	2.83951	1.0833	0	
0.0833	4.66834	0.166661	0	
0.0840	9.24043	0.472208	0	
0.0847	16.5558	0.472208	0	
0.0853	15.0398	-2.8888	0	
0.0860	11.0693	-4.72208	0	
0.0867	14.4141	-3.19435	0	
0.0873	15.0398	-1.36107	0	
0.0880	13.4997	0.472208	0	
0.0887	15.0398	1.69439	0	
0.0893	10.1549	1.69439	0	
0.0900	0.986609	1.99994	0	
0.0907	0.0721909	2.91658	0	
0.0913	1.90103	1.99994	0	
0.0920	-1.75665	0.472208	0	
0.0927	-6.93033	0.472208	0	
0.0933	-9.07199	0.166661	0	
0.0940	-11.2137	0.777754	0	
0.0947	-11.8152	3.52767	0	
0.0953	-12.7297	3.83321	0	
0.0960	-17.9274	2.30548	0	
0.0967	-20.0691	4.13876	0	
0.0973	-15.4729	6.58313	0	
0.0980	-12.1281	6.58313	0	
0.0987	-11.8152	6.27758	0	
0.0993	-9.07199	5.36094	0	
0.1000	-5.10149	3.52767	0	
0.1007	-0.842227	3.22212	0	
0.1013	1.29944	3.52767	0	
0.1020	0.385018	2.30548	0	
0.1027	0.986609	2.30548	0	
0.1033	7.4116	2.30548	0	
0.1040	11.9837	1.38885	0	
0.1047	11.6709	0.777754	0	
0.1053	13.8125	0.777754	0	
0.1060	17.783	1.0833	0	
0.1067	20.2135	1.69439	0	
0.1073	20.5263	1.38885	0	
0.1080	17.783	2.30548	0	
0.1087	12.8981	3.22212	0	
0.1093	9.24043	-0.138885	0	
0.1100	4.66834	-2.27771	0	
0.1107	0.385018	0.166661	0	
0.1113	0.697845	-0.444431	0	
0.1120	0.986609	-2.27771	0	
0.1127	-3.87424	-1.05552	0	
0.1133	-8.75916	-1.66661	0	
0.1140	-9.07199	-4.11098	0	
0.1147	-10.2992	-3.49989	0	
0.1153	-13.3553	-3.19435	0	
0.1160	-13.6441	-3.80544	0	
0.1167	-11.8152	-2.27771	0	
0.1173	-9.98641	-3.49989	0	
0.1180	-7.55598	-4.11098	0	
0.1187	-5.41432	-1.36107	0	
0.1193	-5.72714	-1.05552	0	
0.1200	-6.01591	-1.36107	0	
0.1207	-3.58548	2.30548	0	
0.1213	0.986609	2.30548	0	
0.1220	5.26994	-1.36107	0	
0.1227	8.61478	-0.138885	0	
0.1233	11.0693	1.69439	0	
0.1240	12.8981	0.472208	0	
0.1247	14.1254	0.472208	0	
0.1253	14.7269	-1.05552	0	
0.1260	16.5558	-2.8888	0	
0.1267	17.4702	0.472208	0	
0.1273	15.3285	1.69439	0	
0.1280	11.9837	-1.36107	0	
0.1287	9.84203	-0.138885	0	
0.1293	7.4116	2.61103	0	
0.1300	4.66834	0.777754	0	
0.1307	3.12827	1.38885	0	
0.1313	1.29944	3.83321	0	
0.1320	-0.216573	0.472208	0	
0.1327	-2.67106	-4.11098	0	
0.1333	-5.41432	-2.27771	0	
0.1340	-8.15757	-1.36107	0	
0.1347	-10.9008	-3.49989	0	
0.1353	-13.6441	-3.19435	0	
0.1360	-15.4729	-0.444431	0	
0.1367	-15.1842	-0.749977	0	
0.1373	-14.8713	-2.27771	0	
0.1380	-15.4729	-0.444431	0	
0.1387	-13.3553	1.38885	0	
0.1393	-6.32874	-0.444431	0	
0.1400	-1.75665	-1.66661	0	
0.1407	-0.5294	-0.749977	0	
0.1413	1.90103	0.472208	0	
0.1420	4.66834	1.69439	0	
0.1427	6.78594	1.38885	0	
0.1433	10.4677	-2.27771	0	
0.1440	11.0693	-3.19435	0	
0.1447	10.1549	-1.36107	0	
0.1453	15.3285	-0.444431	0	
0.1460	20.2135	-0.444431	0	
0.1467	17.783	1.0833	0	
0.1473	14.7269	0.472208	0	
0.1480	14.7269	-0.444431	0	
0.1487	12.2965	0.472208	0	
0.1493	6.18435	0.166661	0	
0.1500	0.986609	-0.749977	0	
0.1507	-1.75665	2.30548	0	
0.1513	-4.81273	4.74985	0	
0.1520	-8.15757	2.30548	0	
0.1527	-9.07199	1.0833	0	
0.1533	-8.75916	2.91658	0	
0.1540	-10.9008	2.61103	0	
0.1547	-11.8152	1.69439	0	
0.1553	-12.4409	3.22212	0	
0.1560	-15.7857	3.22212	0	
0.1567	-16.3873	0.472208	0	
0.1573	-11.5265	-0.444431	0	
0.1580	-9.07199	1.0833	0	
0.1587	-11.5265	3.22212	0	
0.1593	-12.4409	4.44431	0	
0.1600	-11.8152	2.61103	0	
0.1607	-10.588	1.38885	0	
0.1613	-6.32874	4.74985	0	
0.1620	-2.04541	5.97204	0	
0.1627	-0.5294	2.30548	0	
0.1633	0.986609	0.777754	0	
0.1640	3.75393	3.22212	0	
0.1647	7.4116	2.30548	0	
0.1653	11.6709	1.0833	0	
0.1660	15.6414	2.91658	0	
0.1667	17.1814	3.83321	0	
0.1673	11.9837	3.22212	0	
0.1680	5.87153	3.22212	0	
0.1687	7.4116	1.0833	0	
0.1693	12.2965	-0.749977	0	
0.1700	13.2109	0.472208	0	
0.1707	8.32602	2.30548	0	
0.1713	-1.75665	1.69439	0	
0.1720	-9.67358	1.69439	0	
0.1727	-7.55598	-0.138885	0	
0.1733	-4.4999	-2.27771	0	
0.1740	-8.15757	0.472208	0	
0.1747	-12.7297	3.83321	0	
0.1753	-17.013	1.38885	0	
0.1760	-21.2723	-1.36107	0	
0.1767	-23.1011	-0.749977	0	
0.1773	-21.2723	-0.749977	0	
0.1780	-15.7857	-1.36107	0	
0.1787	-9.07199	-1.05552	0	
0.1793	-7.24315	-1.05552	0	
0.1800	-7.24315	-2.27771	0	
0.1807	-2.04541	-2.8888	0	
0.1813	2.21385	-1.97216	0	
0.1820	2.83951	-1.66661	0	
0.1827	6.49718	-3.19435	0	
0.1833	9.84203	-2.27771	0	
0.1840	8.32602	-1.05552	0	
0.1847	6.49718	-4.11098	0	
0.1853	9.24043	-5.94426	0	
0.1860	12.2965	-2.58325	0	
0.1867	12.8981	-2.27771	0	
0.1873	10.7564	-3.19435	0	
0.1880	8.92761	-0.749977	0	
0.1887	9.24043	-0.138885	0	
0.1893	8.32602	-2.58325	0	
0.1900	4.66834	-2.27771	0	
0.1907	0.697845	-1.97216	0	
0.1913	-3.87424	-2.58325	0	
0.1920	-6.93033	-0.749977	0	
0.1927	-6.93033	-2.58325	0	
0.1933	-8.15757	-7.44421	0	
0.1940	-12.1281	-4.41653	0	
0.1947	-14.5585	0.472208	0	
0.1953	-16.0986	-2.27771	0	
0.1960	-20.9835	-4.72208	0	
0.1967	-22.8123	-0.749977	0	
0.1973	-17.3258	-0.444431	0	
0.1980	-14.5585	-4.11098	0	
0.1987	-13.9569	-4.11098	0	
0.1993	-8.4704	-2.8888	0	
0.2000	-1.44382	-4.41653	0	
0.2007	1.90103	-5.02762	0	
0.2013	3.75393	-5.63871	0	
0.2020	4.95711	-7.74976	0	
0.2027	7.4116	-5.94426	0	
0.2033	13.4997	-3.49989	0	
0.2040	18.3846	-4.72208	0	
0.2047	20.8391	-5.63871	0	
0.2053	22.6679	-4.11098	0	
0.2060	19.0103	-4.41653	0	
0.2067	8.92761	-4.11098	0	
0.2073	4.95711	-2.8888	0	
0.2080	7.09877	-4.72208	0	
0.2087	3.75393	-5.02762	0	
0.2093	0.697845	-3.49989	0	
0.2100	4.66834	-4.41653	0	
0.2107	8.32602	-4.11098	0	
0.2113	5.58276	-0.444431	0	
0.2120	0.986609	-2.27771	0	
0.2127	-3.27265	-4.41653	0	
0.2133	-9.07199	-1.97216	0	
0.2140	-13.0425	-0.749977	0	
0.2147	-10.9008	-2.58325	0	
0.2153	-6.01591	-2.58325	0	
0.2160	-6.32874	-1.97216	0	
0.2167	-8.75916	-1.36107	0	
0.2173	-7.55598	-1.36107	0	
0.2180	-5.41432	-3.49989	0	
0.2187	-3.87424	-5.02762	0	
0.2193	-1.75665	-4.11098	0	
0.2200	-0.216573	-3.19435	0	
0.2207	1.29944	-2.58325	0	
0.2213	6.18435	-1.36107	0	
0.2220	10.1549	0.166661	0	
0.2227	12.2965	0.166661	0	
0.2233	15.6414	-0.444431	0	
0.2240	15.6414	-1.36107	0	
0.2247	12.8981	-1.05552	0	
0.2253	14.1254	-0.444431	0	
0.2260	17.783	0.777754	0	
0.2267	17.783	1.69439	0	
0.2273	17.1814	-0.138885	0	
0.2280	14.7269	-2.27771	0	
0.2287	9.55326	-1.36107	0	
0.2293	7.4116	-0.444431	0	
0.2300	7.70036	-0.444431	0	
0.2307	4.04269	0.472208	0	
0.2313	0.986609	0.777754	0	
0.2320	-2.67106	0.472208	0	
0.2327	-8.75916	1.99994	0	
0.2333	-9.98641	5.0554	0	
0.2340	-6.32874	5.97204	0	
0.2347	-9.67358	4.13876	0	
0.2353	-17.9274	3.22212	0	
0.2360	-21.8979	4.13876	0	
0.2367	-23.1011	3.52767	0	
0.2373	-21.2723	2.30548	0	
0.2380	-13.6441	3.52767	0	
0.2387	-4.81273	4.13876	0	
0.2393	1.29944	2.91658	0	
0.2400	2.83951	2.91658	0	
0.2407	-0.842227	2.91658	0	
0.2413	-1.13099	-0.138885	0	
0.2420	4.66834	-2.27771	0	
0.2427	5.58276	-0.444431	0	
0.2433	2.52668	1.38885	0	
0.2440	4.95711	0.472208	0	
0.2447	8.92761	1.0833	0	
0.2453	11.0693	3.22212	0	
0.2460	13.8125	2.91658	0	
0.2467	13.8125	-0.444431	0	
0.2473	11.6709	-2.58325	0	
0.2480	10.7564	-1.05552	0	
0.2487	9.84203	-0.138885	0	
0.2493	9.24043	-1.66661	0	
0.2500	9.55326	-1.36107	0	
0.2507	7.4116	2.61103	0	
0.2513	1.90103	2.30548	0	
0.2520	-2.67106	-1.36107	0	
0.2527	-6.32874	-0.444431	0	
0.2533	-8.4704	1.99994	0	
0.2540	-9.98641	-0.444431	0	
0.2547	-13.0425	0.166661	0	
0.2553	-18.2402	2.61103	0	
0.2560	-21.8979	0.472208	0	
0.2567	-20.0691	-0.444431	0	
0.2573	-13.3553	2.30548	0	
0.2580	-6.93033	1.38885	0	
0.2587	-6.32874	-1.36107	0	
0.2593	-9.07199	0.472208	0	
0.2600	-9.98641	2.30548	0	
0.2607	-7.84474	1.69439	0	
0.2613	-6.32874	1.69439	0	
0.2620	-3.58548	2.30548	0	
0.2627	1.61226	2.30548	0	
0.2633	5.26994	1.69439	0	
0.2640	7.70036	-0.749977	0	
0.2647	13.4997	-1.36107	0	
0.2653	16.5558	-1.66661	0	
0.2660	13.8125	-5.02762	0	
0.2667	12.8981	-6.83312	0	
0.2673	14.4141	-5.02762	0	
0.2680	12.2965	-5.02762	0	
0.2687	10.1549	-5.94426	0	
0.2693	8.32602	-5.02762	0	
0.2700	1.90103	-5.02762	0	
0.2707	-2.67106	-3.80544	0	
0.2713	-3.58548	-1.66661	0	
0.2720	-6.32874	-2.8888	0	
0.2727	-9.67358	-3.80544	0	
0.2733	-9.67358	-1.36107	0	
0.2740	-11.8152	0.472208	0	
0.2747	-15.4729	0.472208	0	
0.2753	-14.8713	0.472208	0	
0.2760	-14.5585	-0.138885	0	
0.2767	-16.3873	-1.36107	0	
0.2773	-15.4729	-1.66661	0	
0.2780	-12.7297	-1.36107	0	
0.2787	-10.2992	-0.749977	0	
0.2793	-6.32874	-0.138885	0	
0.2800	-3.27265	0.472208	0	
0.2807	-3.58548	0.777754	0	
0.2813	-1.44382	0.472208	0	
0.2820	3.75393	1.38885	0	
0.2827	7.4116	1.99994	0	
0.2833	10.7564	0.472208	0	
0.2840	14.1254	0.472208	0	
0.2847	12.5853	3.22212	0	
0.2853	10.1549	3.22212	0	
0.2860	13.8125	1.0833	0	
0.2867	16.267	0.777754	0	
0.2873	13.8125	2.91658	0	
0.2880	13.4997	5.0554	0	
0.2887	15.0398	3.22212	0	
0.2893	13.2109	-2.8888	0	
0.2900	9.55326	-4.11098	0	
0.2907	8.01319	-1.66661	0	
0.2913	6.49718	-2.27771	0	
0.2920	3.4411	-2.58325	0	
0.2927	-2.35824	-1.66661	0	
0.2933	-9.67358	-1.97216	0	
0.2940	-11.8152	0.777754	0	
0.2947	-8.4704	5.0554	0	
0.2953	-8.75916	3.22212	0	
0.2960	-13.3553	-1.36107	0	
0.2967	-12.4409	1.0833	0	
0.2973	-8.15757	3.83321	0	
0.2980	-8.15757	1.69439	0	
0.2987	-8.75916	0.166661	0	
0.2993	-6.32874	1.38885	0	
0.3000	-6.32874	1.38885	0	
0.3007	-8.15757	0.166661	0	
0.3013	-4.18707	1.0833	0	
0.3020	1.61226	2.30548	0	
0.3027	3.4411	1.0833	0	
0.3033	5.26994	-0.444431	0	
0.3040	8.32602	0.166661	0	
0.3047	8.01319	-0.138885	0	
0.3053	6.49718	-1.05552	0	
0.3060	6.49718	-0.138885	0	
0.3067	5.58276	1.38885	0	
0.3073	4.66834	0.472208	0	
0.3080	6.78594	-1.36107	0	
0.3087	9.84203	-1.66661	0	
0.3093	10.7564	0.472208	0	
0.3100	10.1549	1.0833	0	
0.3107	4.35552	-0.444431	0	
0.3113	-6.01591	0.777754	0	
0.3120	-9.98641	1.99994	0	
0.3127	-5.41432	-1.05552	0	
0.3133	-4.81273	-2.8888	0	
0.3140	-11.8152	0.472208	0	
0.3147	-17.013	4.13876	0	
0.3153	-17.013	4.13876	0	
0.3160	-16.7002	2.30548	0	
0.3167	-18.2402	0.472208	0	
0.3173	-20.0691	-0.749977	0	
0.3180	-20.6707	1.0833	0	
0.3187	-20.0691	3.52767	0	
0.3193	-17.9274	1.69439	0	
0.3200	-11.2137	0.472208	0	
0.3207	0.986609	3.22212	0	
0.3213	11.3821	2.30548	0	
0.3220	10.4677	-1.36107	0	
0.3227	6.49718	0.472208	0	
0.3233	8.61478	2.61103	0	
0.3240	11.9837	-0.444431	0	
0.3247	11.0693	-1.36107	0	
0.3253	10.1549	0.777754	0	
0.3260	11.0693	-1.36107	0	
0.3267	10.7564	-3.19435	0	
0.3273	9.24043	-0.138885	0	
0.3280	8.32602	1.99994	0	
0.3287	6.18435	1.38885	0	
0.3293	3.75393	2.30548	0	
0.3300	1.90103	1.99994	0	
0.3307	-0.842227	-0.749977	0	
0.3313	-4.18707	-0.444431	0	
0.3320	-7.55598	2.91658	0	
0.3327	-11.8152	3.52767	0	
0.3333	-15.1842	1.0833	0	
0.3340	-16.7002	-1.36107	0	
0.3347	-16.7002	-1.97216	0	
0.3353	-14.5585	-0.444431	0	
0.3360	-11.5265	1.69439	0	
0.3367	-10.9008	0.777754	0	
0.3373	-11.8152	-1.66661	0	
0.3380	-11.8152	-2.58325	0	
0.3387	-13.0425	-2.27771	0	
0.3393	-13.6441	-0.444431	0	
0.3400	-7.84474	1.38885	0	
0.3407	-1.13099	-1.36107	0	
0.3413	0.986609	-3.19435	0	
0.3420	3.4411	-1.36107	0	
0.3427	9.24043	-1.97216	0	
0.3433	14.7269	-4.41653	0	
0.3440	17.783	-4.11098	0	
0.3447	16.8686	-3.49989	0	
0.3453	13.8125	-3.19435	0	
0.3460	13.8125	-2.8888	0	
0.3467	15.9542	-4.11098	0	
0.3473	17.783	-4.11098	0	
0.3480	17.783	-3.49989	0	
0.3487	15.6414	-5.33317	0	
0.3493	10.1549	-6.83312	0	
0.3500	1.90103	-4.11098	0	
0.3507	-2.67106	-1.36107	0	
0.3513	-2.35824	0.777754	0	
0.3520	-4.18707	1.69439	0	
0.3527	-8.15757	-0.749977	0	
0.3533	-7.84474	-3.19435	0	
0.3540	-7.55598	-0.444431	0	
0.3547	-13.9569	2.61103	0	
0.3553	-18.529	1.69439	0	
0.3560	-17.013	0.472208	0	
0.3567	-16.0986	1.38885	0	
0.3573	-16.7002	1.38885	0	
0.3580	-15.4729	0.472208	0	
0.3587	-12.4409	1.0833	0	
0.3593	-8.75916	1.69439	0	
0.3600	-2.04541	1.38885	0	
0.3607	4.66834	0.777754	0	
0.3613	7.09877	0.472208	0	
0.3620	6.49718	0.166661	0	
0.3627	8.32602	0.472208	0	
0.3633	12.5853	0.472208	0	
0.3640	14.7269	-0.138885	0	
0.3647	15.9542	0.472208	0	
0.3653	16.5558	1.0833	0	
0.3660	15.9542	-0.444431	0	
0.3667	17.1814	-2.27771	0	
0.3673	19.0103	-1.05552	0	
0.3680	17.4702	0.472208	0	
0.3687	13.2109	-0.444431	0	
0.3693	11.0693	-0.749977	0	
0.3700	11.0693	0.777754	0	
0.3707	10.4677	-0.138885	0	
0.3713	4.66834	-2.58325	0	
0.3720	-3.87424	-1.36107	0	
0.3727	-7.24315	1.0833	0	
0.3733	-7.24315	-0.444431	0	
0.3740	-12.7297	-2.8888	0	
0.3747	-20.9835	-2.8888	0	
0.3753	-20.9835	-1.36107	0	
0.3760	-16.7002	0.472208	0	
0.3767	-16.3873	0.777754	0	
0.3773	-17.013	0.166661	0	
0.3780	-17.3258	1.0833	0	
0.3787	-18.529	0.472208	0	
0.3793	-13.9569	-1.97216	0	
0.3800	-4.81273	-1.05552	0	
0.3807	-1.44382	0.472208	0	
0.3813	-0.842227	-2.58325	0	
0.3820	4.35552	-4.72208	0	
0.3827	10.1549	-2.58325	0	
0.3833	12.5853	-0.749977	0	
0.3840	11.6709	-1.97216	0	
0.3847	8.01319	-3.19435	0	
0.3853	5.58276	-3.80544	0	
0.3860	5.58276	-2.27771	0	
0.3867	4.66834	0.166661	0	
0.3873	3.75393	-0.749977	0	
0.3880	6.78594	-3.19435	0	
0.3887	8.32602	-2.8888	0	
0.3893	6.49718	-1.36107	0	
0.3900	4.66834	-0.749977	0	
0.3907	3.4411	0.472208	0	
0.3913	2.83951	0.472208	0	
0.3920	0.986609	-1.97216	0	
0.3927	-5.72714	-4.11098	0	
0.3933	-10.9008	-3.80544	0	
0.3940	-10.588	-1.36107	0	
0.3947	-9.98641	0.166661	0	
0.3953	-9.38482	-0.444431	0	
0.3960	-9.38482	-1.36107	0	
0.3967	-14.8713	-1.66661	0	
0.3973	-17.3258	-2.27771	0	
0.3980	-10.588	-1.05552	0	
0.3987	-5.72714	-0.444431	0	
0.3993	-7.24315	-3.19435	0	
0.4000	-7.84474	-4.11098	0	
0.4007	-5.72714	-3.19435	0	
0.4013	-3.58548	-4.11098	0	
0.4020	1.29944	-3.80544	0	
0.4027	7.70036	-1.05552	0	
0.4033	11.0693	-1.36107	0	
0.4040	11.9837	-2.8888	0	
0.4047	14.1254	-1.05552	0	
0.4053	16.267	0.777754	0	
0.4060	15.6414	0.472208	0	
0.4067	14.4141	-0.138885	0	
0.4073	16.5558	-1.97216	0	
0.4080	16.5558	-3.80544	0	
0.4087	10.1549	-2.27771	0	
0.4093	2.21385	0.472208	0	
0.4100	-0.5294	1.69439	0	
0.4107	-0.216573	1.0833	0	
0.4113	-1.75665	-0.749977	0	
0.4120	-3.58548	-2.27771	0	
0.4127	-3.87424	-1.97216	0	
0.4133	-6.32874	-0.444431	0	
0.4140	-12.4409	0.166661	0	
0.4147	-17.3258	-0.749977	0	
0.4153	-16.7002	-0.749977	0	
0.4160	-14.2697	1.38885	0	
0.4167	-13.0425	1.38885	0	
0.4173	-10.9008	-0.444431	0	
0.4180	-8.4704	-0.444431	0	
0.4187	-7.24315	0.472208	0	
0.4193	-4.4999	0.472208	0	
0.4200	0.0721909	-0.138885	0	
0.4207	1.90103	-1.05552	0	
0.4213	4.66834	-1.05552	0	
0.4220	11.6709	-1.05552	0	
0.4227	15.0398	-2.8888	0	
0.4233	12.2965	-1.36107	0	
0.4240	11.6709	4.44431	0	
0.4247	13.8125	4.74985	0	
0.4253	14.7269	0.777754	0	
0.4260	17.4702	1.38885	0	
0.4267	19.299	1.38885	0	
0.4273	16.5558	-0.749977	0	
0.4280	13.8125	0.472208	0	
0.4287	11.9837	2.30548	0	
0.4293	5.58276	2.91658	0	
0.4300	0.986609	3.22212	0	
0.4307	1.29944	2.30548	0	
0.4313	-0.216573	0.777754	0	
0.4320	-4.4999	1.69439	0	
0.4327	-4.81273	-0.444431	0	
0.4333	-5.41432	-3.19435	0	
0.4340	-9.07199	-0.444431	0	
0.4347	-13.0425	1.38885	0	
0.4353	-18.8418	0.472208	0	
0.4360	-23.7267	1.99994	0	
0.4367	-20.9835	3.83321	0	
0.4373	-17.6146	3.22212	0	
0.4380	-20.3578	4.13876	0	
0.4387	-20.3578	4.44431	0	
0.4393	-15.7857	1.38885	0	
0.4400	-12.7297	0.472208	0	
0.4407	-9.67358	1.38885	0	
0.4413	-5.41432	-1.05552	0	
0.4420	-5.10149	-0.749977	0	
0.4427	-4.4999	4.13876	0	
0.4433	2.83951	4.13876	0	
0.4440	11.3821	0.166661	0	
0.4447	14.7269	0.472208	0	
0.4453	17.4702	1.0833	0	
0.4460	18.6974	-1.97216	0	
0.4467	16.5558	-2.27771	0	
0.4473	15.3285	0.166661	0	
0.4480	15.6414	-0.444431	0	
0.4487	14.4141	-0.749977	0	
0.4493	10.1549	-0.444431	0	
0.4500	6.49718	-2.27771	0	
0.4507	3.4411	-1.36107	0	
0.4513	0.385018	1.38885	0	
0.4520	-2.95983	0.777754	0	
0.4527	-6.32874	-0.138885	0	
0.4533	-8.4704	0.777754	0	
0.4540	-9.38482	0.472208	0	
0.4547	-9.98641	0.472208	0	
0.4553	-11.2137	1.99994	0	
0.4560	-13.6441	-0.138885	0	
0.4567	-13.0425	-3.19435	0	
0.4573	-9.07199	-4.11098	0	
0.4580	-6.32874	-4.11098	0	
0.4587	-6.01591	-3.19435	0	
0.4593	-3.58548	-1.05552	0	
0.4600	-0.5294	-0.749977	0	
0.4607	0.385018	-0.749977	0	
0.4613	1.29944	-0.444431	0	
0.4620	6.78594	-2.27771	0	
0.4627	12.5853	-1.97216	0	
0.4633	14.4141	0.777754	0	
0.4640	14.7269	0.166661	0	
0.4647	18.6974	-1.36107	0	
0.4653	25.4112	-0.138885	0	
0.4660	25.724	-1.36107	0	
0.4667	18.3846	-4.11098	0	
0.4673	13.2109	-1.36107	0	
0.4680	13.4997	1.38885	0	
0.4687	11.9837	-1.36107	0	
0.4693	8.92761	-2.8888	0	
0.4700	9.24043	-2.27771	0	
0.4707	6.49718	-3.19435	0	
0.4713	-0.5294	-3.80544	0	
0.4720	-3.87424	-1.36107	0	
0.4727	-4.4999	-1.36107	0	
0.4733	-6.01591	-3.19435	0	
0.4740	-6.32874	-1.05552	0	
0.4747	-7.84474	1.69439	0	
0.4753	-11.8152	0.472208	0	
0.4760	-11.5265	-0.444431	0	
0.4767	-8.15757	-0.749977	0	
0.4773	-7.84474	-2.58325	0	
0.4780	-6.32874	-0.749977	0	
0.4787	-5.41432	3.22212	0	
0.4793	-8.15757	2.30548	0	
0.4800	-8.75916	0.166661	0	
0.4807	-4.4999	1.38885	0	
0.4813	1.29944	-0.444431	0	
0.4820	7.4116	-2.27771	0	
0.4827	9.24043	1.38885	0	
0.4833	6.49718	2.30548	0	
0.4840	7.09877	-0.444431	0	
0.4847	11.3821	0.166661	0	
0.4853	10.7564	0.777754	0	
0.4860	10.1549	-0.749977	0	
0.4867	14.4141	0.472208	0	
0.4873	14.4141	1.38885	0	
0.4880	11.0693	0.166661	0	
0.4887	11.9837	0.166661	0	
0.4893	11.0693	-2.27771	0	
0.4900	5.26994	-5.94426	0	
0.4907	2.52668	-4.11098	0	
0.4913	0.697845	-1.66661	0	
0.4920	-6.32874	-2.27771	0	
0.4927	-12.7297	-2.27771	0	
0.4933	-13.6441	-1.36107	0	
0.4940	-13.0425	-1.97216	0	
0.4947	-11.5265	-1.66661	0	
0.4953	-11.2137	-1.05552	0	
0.4960	-15.1842	-0.444431	0	
0.4967	-15.4729	0.777754	0	
0.4973	-13.3553	1.69439	0	
0.4980	-15.1842	1.38885	0	
0.4987	-14.5585	1.69439	0	
0.4993	-7.55598	1.38885	0	
0.5000	-5.10149	0.472208	0	
0.5007	-7.55598	1.0833	0	
0.5013	-4.81273	1.69439	0	
0.5020	1.61226	-0.444431	0	
0.5027	6.49718	-2.27771	0	
0.5033	10.1549	0.472208	0	
0.5040	12.5853	1.38885	0	
0.5047	15.9542	-2.8888	0	
0.5053	18.3846	-4.41653	0	
0.5060	11.9837	-1.05552	0	
0.5067	1.90103	1.99994	0	
0.5073	2.83951	0.472208	0	
0.5080	8.32602	-1.66661	0	
0.5087	7.70036	-2.27771	0	
0.5093	4.35552	-2.27771	0	
0.5100	0.986609	-2.58325	0	
0.5107	-3.87424	-0.138885	0	
0.5113	-8.75916	1.0833	0	
0.5120	-10.2992	-1.05552	0	
0.5127	-13.0425	-0.138885	0	
0.5133	-16.7002	2.91658	0	
0.5140	-15.1842	0.777754	0	
0.5147	-12.1281	-1.66661	0	
0.5153	-16.0986	0.777754	0	
0.5160	-20.0691	2.30548	0	
0.5167	-16.7002	1.38885	0	
0.5173	-15.4729	3.22212	0	
0.5180	-17.6146	4.44431	0	
0.5187	-13.9569	3.22212	0	
0.5193	-7.24315	1.38885	0	
0.5200	-7.84474	0.472208	0	
0.5207	-9.07199	1.0833	0	
0.5213	-3.27265	2.61103	0	
0.5220	6.18435	1.38885	0	
0.5227	10.1549	-1.36107	0	
0.5233	6.18435	0.472208	0	
0.5240	0.986609	2.30548	0	
0.5247	3.4411	1.38885	0	
0.5253	7.70036	2.91658	0	
0.5260	7.4116	6.88868	0	
0.5267	5.58276	7.80531	0	
0.5273	5.26994	5.97204	0	
0.5280	5.58276	5.0554	0	
0.5287	7.09877	2.91658	0	
0.5293	7.4116	0.777754	0	
0.5300	3.4411	1.69439	0	
0.5307	-0.842227	2.30548	0	
0.5313	-5.41432	0.777754	0	
0.5320	-9.38482	0.777754	0	
0.5327	-10.9008	2.30548	0	
0.5333	-12.7297	2.61103	0	
0.5340	-14.8713	2.30548	0	
0.5347	-13.9569	1.99994	0	
0.5353	-14.5585	1.38885	0	
0.5360	-20.0691	2.30548	0	
0.5367	-20.9835	1.69439	0	
0.5373	-15.7857	0.777754	0	
0.5380	-11.8152	1.69439	0	
0.5387	-7.55598	1.69439	0	
0.5393	-2.95983	0.472208	0	
0.5400	-1.75665	1.38885	0	
0.5407	0.986609	1.99994	0	
0.5413	8.01319	-0.749977	0	
0.5420	9.24043	-1.97216	0	
0.5427	8.32602	1.0833	0	
0.5433	13.2109	1.38885	0	
0.5440	16.5558	-1.36107	0	
0.5447	13.4997	-2.27771	0	
0.5453	13.4997	-2.27771	0	
0.5460	17.4702	-2.8888	0	
0.5467	16.267	-1.97216	0	
0.5473	12.8981	-2.58325	0	
0.5480	14.7269	-6.52758	0	
0.5487	15.6414	-6.83312	0	
0.5493	12.5853	-4.11098	0	
0.5500	11.0693	-5.33317	0	
0.5507	9.55326	-5.94426	0	
0.5513	4.66834	-3.19435	0	
0.5520	2.83951	-4.41653	0	
0.5527	0.697845	-6.22203	0	
0.5533	-9.38482	-1.05552	0	
0.5540	-16.3873	1.99994	0	
0.5547	-14.5585	-0.444431	0	
0.5553	-13.0425	-0.444431	0	
0.5560	-13.3553	-0.444431	0	
0.5567	-12.4409	-1.97216	0	
0.5573	-12.7297	1.0833	0	
0.5580	-13.0425	3.22212	0	
0.5587	-11.5265	0.472208	0	
0.5593	-10.9008	-1.36107	0	
0.5600	-7.55598	-1.66661	0	
0.5607	-2.35824	-1.66661	0	
0.5613	-0.216573	-0.749977	0	
0.5620	2.83951	-2.27771	0	
0.5627	10.7564	-3.80544	0	
0.5633	15.6414	-1.36107	0	
0.5640	16.8686	-0.749977	0	
0.5647	20.2135	-4.72208	0	
0.5653	22.6679	-4.11098	0	
0.5660	20.8391	-1.66661	0	
0.5667	19.299	-2.27771	0	
0.5673	19.0103	-3.49989	0	
0.5680	18.3846	-2.58325	0	
0.5687	18.0959	-1.97216	0	
0.5693	17.4702	-2.58325	0	
0.5700	12.5853	-3.49989	0	
0.5707	4.35552	-2.27771	0	
0.5713	-0.842227	0.166661	0	
0.5720	-4.4999	-0.444431	0	
0.5727	-10.9008	-0.749977	0	
0.5733	-14.5585	0.472208	0	
0.5740	-12.1281	-0.138885	0	
0.5747	-11.8152	-0.444431	0	
0.5753	-16.3873	1.38885	0	
0.5760	-16.7002	1.69439	0	
0.5767	-13.0425	0.777754	0	
0.5773	-12.1281	1.38885	0	
0.5780	-10.9008	0.777754	0	
0.5787	-8.4704	1.0833	0	
0.5793	-8.4704	2.91658	0	
0.5800	-7.24315	2.61103	0	
0.5807	-0.5294	0.472208	0	
0.5813	5.87153	0.472208	0	
0.5820	9.24043	0.166661	0	
0.5827	11.9837	-1.36107	0	
0.5833	14.1254	-0.444431	0	
0.5840	15.3285	0.777754	0	
0.5847	17.4702	0.472208	0	
0.5853	17.783	0.472208	0	
0.5860	15.6414	2.91658	0	
0.5867	15.3285	4.13876	0	
0.5873	15.6414	2.61103	0	
0.5880	15.0398	1.38885	0	
0.5887	15.3285	2.30548	0	
0.5893	11.3821	3.52767	0	
0.5900	6.18435	1.38885	0	
0.5907	7.70036	-3.49989	0	
0.5913	7.70036	-5.02762	0	
0.5920	-0.5294	-2.27771	0	
0.5927	-6.32874	-1.05552	0	
0.5933	-7.84474	-1.97216	0	
0.5940	-12.4409	0.472208	0	
0.5947	-14.5585	2.30548	0	
0.5953	-12.1281	1.0833	0	
0.5960	-11.8152	-0.444431	0	
0.5967	-11.2137	-1.97216	0	
0.5973	-13.9569	-1.05552	0	
0.5980	-21.2723	3.83321	0	
0.5987	-21.2723	3.83321	0	
0.5993	-15.4729	-1.36107	0	
0.6000	-13.6441	-1.66661	0	
0.6007	-7.24315	0.472208	0	
0.6013	3.75393	-0.444431	0	
0.6020	7.09877	1.0833	0	
0.6027	6.78594	2.91658	0	
0.6033	11.6709	1.99994	0	
0.6040	15.0398	3.52767	0	
0.6047	15.0398	5.66649	0	
0.6053	14.4141	3.52767	0	
0.6060	12.2965	2.61103	0	
0.6067	14.4141	2.91658	0	
0.6073	19.9247	1.38885	0	
0.6080	18.3846	0.472208	0	
0.6087	11.3821	0.472208	0	
0.6093	6.49718	1.38885	0	
0.6100	2.52668	4.13876	0	
0.6107	0.697845	4.44431	0	
0.6113	0.986609	1.0833	0	
0.6120	-1.75665	-1.36107	0	
0.6127	-6.32874	-2.27771	0	
0.6133	-9.38482	-2.27771	0	
0.6140	-14.2697	-0.749977	0	
0.6147	-17.3258	-1.05552	0	
0.6153	-16.3873	-3.19435	0	
0.6160	-16.0986	-2.58325	0	
0.6167	-16.3873	-2.27771	0	
0.6173	-14.8713	-2.8888	0	
0.6180	-12.7297	-2.27771	0	
0.6187	-10.588	-1.97216	0	
0.6193	-6.32874	-1.66661	0	
0.6200	-1.75665	1.0833	0	
0.6207	-0.5294	1.99994	0	
0.6213	-3.58548	-0.138885	0	
0.6220	-5.41432	-0.444431	0	
0.6227	-0.842227	-1.36107	0	
0.6233	3.75393	-2.27771	0	
0.6240	3.75393	-0.749977	0	
0.6247	4.66834	-1.05552	0	
0.6253	7.4116	-3.19435	0	
0.6260	6.78594	-2.27771	0	
0.6267	7.4116	-1.36107	0	
0.6273	9.24043	-1.36107	0	
0.6280	6.78594	0.777754	0	
0.6287	5.87153	-0.444431	0	
0.6293	8.01319	-4.41653	0	
0.6300	3.75393	-2.58325	0	
0.6307	-2.67106	1.99994	0	
0.6313	-1.75665	-0.444431	0	
0.6320	-0.216573	-2.8888	0	
0.6327	-4.18707	0.166661	0	
0.6333	-5.72714	-0.444431	0	
0.6340	-5.72714	-3.19435	0	
0.6347	-10.588	-1.36107	0	
0.6353	-15.7857	0.777754	0	
0.6360	-17.3258	-1.36107	0	
0.6367	-15.1842	-2.8888	0	
0.6373	-9.07199	-2.8888	0	
0.6380	-7.24315	-3.80544	0	
0.6387	-10.9008	-2.27771	0	
0.6393	-11.2137	0.166661	0	
0.6400	-6.93033	-1.05552	0	
0.6407	-2.35824	-3.80544	0	
0.6413	2.83951	-5.33317	0	
0.6420	4.95711	-5.02762	0	
0.6427	5.26994	-3.19435	0	
0.6433	11.9837	-3.80544	0	
0.6440	16.8686	-6.83312	0	
0.6447	11.6709	-7.13867	0	
0.6453	8.92761	-6.22203	0	
0.6460	12.8981	-6.83312	0	
0.6467	12.5853	-4.11098	0	
0.6473	9.84203	0.166661	0	
0.6480	9.24043	-0.749977	0	
0.6487	6.49718	-2.27771	0	
0.6493	5.26994	-2.8888	0	
0.6500	7.4116	-4.11098	0	
0.6507	7.4116	-1.36107	0	
0.6513	3.4411	1.0833	0	
0.6520	-0.842227	-2.27771	0	
0.6527	-4.81273	-4.11098	0	
0.6533	-7.55598	-0.749977	0	
0.6540	-8.15757	1.0833	0	
0.6547	-9.98641	1.0833	0	
0.6553	-15.4729	2.30548	0	
0.6560	-19.1547	1.99994	0	
0.6567	-18.2402	0.777754	0	
0.6573	-16.7002	1.69439	0	
0.6580	-17.013	3.22212	0	
0.6587	-14.5585	3.22212	0	
0.6593	-11.8152	2.91658	0	
0.6600	-11.2137	1.0833	0	
0.6607	-7.24315	-1.05552	0	
0.6613	-1.75665	-0.444431	0	
0.6620	-0.842227	0.472208	0	
0.6627	0.986609	0.472208	0	
0.6633	7.4116	2.61103	0	
0.6640	8.61478	4.44431	0	
0.6647	7.09877	2.30548	0	
0.6653	9.24043	-0.444431	0	
0.6660	11.0693	-0.138885	0	
0.6667	12.8981	0.777754	0	
0.6673	14.7269	-1.05552	0	
0.6680	13.2109	-1.36107	0	
0.6687	8.32602	0.472208	0	
0.6693	5.26994	-1.05552	0	
0.6700	3.4411	-3.19435	0	
0.6707	0.0721909	-0.749977	0	
0.6713	-2.04541	1.0833	0	
0.6720	-3.58548	-0.444431	0	
0.6727	-6.93033	-0.444431	0	
0.6733	-10.2992	0.166661	0	
0.6740	-9.98641	-0.444431	0	
0.6747	-10.2992	-0.444431	0	
0.6753	-13.6441	-0.138885	0	
0.6760	-12.7297	-0.444431	0	
0.6767	-9.67358	-1.05552	0	
0.6773	-13.6441	-0.749977	0	
0.6780	-16.0986	-0.444431	0	
0.6787	-8.15757	-0.138885	0	
0.6793	-1.44382	0.166661	0	
0.6800	0.986609	0.777754	0	
0.6807	4.35552	0.166661	0	
0.6813	4.04269	-0.444431	0	
0.6820	0.697845	2.30548	0	
0.6827	4.04269	5.0554	0	
0.6833	9.55326	2.91658	0	
0.6840	9.55326	0.472208	0	
0.6847	12.8981	-0.444431	0	
0.6853	16.5558	-2.27771	0	
0.6860	10.7564	-2.58325	0	
0.6867	7.4116	1.0833	0	
0.6873	13.8125	2.61103	0	
0.6880	15.9542	0.472208	0	
0.6887	11.9837	-1.05552	0	
0.6893	8.32602	-1.66661	0	
0.6900	4.35552	-2.58325	0	
0.6907	0.986609	-2.27771	0	
0.6913	0.986609	-0.444431	0	
0.6920	-0.5294	1.38885	0	
0.6927	-5.72714	0.472208	0	
0.6933	-12.4409	-0.444431	0	
0.6940	-15.7857	0.777754	0	
0.6947	-13.6441	1.69439	0	
0.6953	-10.9008	1.0833	0	
0.6960	-11.5265	0.472208	0	
0.6967	-12.7297	1.38885	0	
0.6973	-15.4729	2.30548	0	
0.6980	-20.0691	2.61103	0	
0.6987	-20.0691	2.30548	0	
0.6993	-13.6441	0.777754	0	
0.7000	-6.64156	-0.138885	0	
0.7007	-2.04541	0.777754	0	
0.7013	3.75393	1.38885	0	
0.7020	10.4677	1.38885	0	
0.7027	11.9837	1.0833	0	
0.7033	8.61478	0.472208	0	
0.7040	5.87153	-1.66661	0	
0.7047	6.49718	-2.27771	0	
0.7053	8.61478	-0.749977	0	
0.7060	11.3821	-0.138885	0	
0.7067	13.8125	-0.138885	0	
0.7073	12.8981	-0.749977	0	
0.7080	9.24043	-3.19435	0	
0.7087	5.87153	-1.36107	0	
0.7093	2.21385	2.91658	0	
0.7100	0.697845	0.472208	0	
0.7107	2.83951	-5.02762	0	
0.7113	5.58276	-4.11098	0	
0.7120	1.90103	-1.97216	0	
0.7127	-4.4999	-4.11098	0	
0.7133	-9.67358	-3.49989	0	
0.7140	-13.6441	-1.66661	0	
0.7147	-16.0986	-5.02762	0	
0.7153	-14.2697	-6.83312	0	
0.7160	-12.1281	-2.58325	0	
0.7167	-11.8152	0.472208	0	
0.7173	-9.07199	-0.749977	0	
0.7180	-3.87424	-1.97216	0	
0.7187	-2.67106	-2.27771	0	
0.7193	-4.4999	-1.05552	0	
0.7200	-4.4999	2.61103	0	
0.7207	-2.35824	4.13876	0	
0.7213	0.0721909	2.91658	0	
0.7220	1.90103	2.30548	0	
0.7227	3.75393	3.22212	0	
0.7233	7.09877	2.91658	0	
0.7240	9.24043	1.99994	0	
0.7247	9.24043	1.69439	0	
0.7253	10.4677	0.166661	0	
0.7260	13.8125	-2.27771	0	
0.7267	15.6414	-3.19435	0	
0.7273	14.7269	-3.19435	0	
0.7280	14.4141	-3.19435	0	
0.7287	13.2109	-4.11098	0	
0.7293	8.92761	-5.02762	0	
0.7300	4.35552	-3.19435	0	
0.7307	2.83951	-1.36107	0	
0.7313	1.90103	-1.97216	0	
0.7320	-1.44382	-2.8888	0	
0.7327	-5.41432	-1.97216	0	
0.7333	-6.64156	-2.27771	0	
0.7340	-6.93033	-2.58325	0	
0.7347	-8.15757	-1.97216	0	
0.7353	-12.1281	-1.36107	0	
0.7360	-15.1842	-1.05552	0	
0.7367	-13.3553	-0.749977	0	
0.7373	-10.588	-1.05552	0	
0.7380	-9.07199	-0.749977	0	
0.7387	-5.10149	-0.444431	0	
0.7393	-2.04541	-1.36107	0	
0.7400	-4.4999	-2.58325	0	
0.7407	-4.18707	-0.749977	0	
0.7413	4.35552	2.30548	0	
0.7420	12.5853	1.69439	0	
0.7427	15.3285	-0.138885	0	
0.7433	16.5558	0.777754	0	
0.7440	19.9247	1.69439	0	
0.7447	24.8096	-0.749977	0	
0.7453	25.724	-3.49989	0	
0.7460	18.3846	-3.49989	0	
0.7467	12.2965	-2.27771	0	
0.7473	13.8125	-1.36107	0	
0.7480	13.8125	-0.444431	0	
0.7487	8.61478	-1.66661	0	
0.7493	5.26994	-3.19435	0	
0.7500	2.83951	-2.58325	0	
0.7507	-2.04541	-0.444431	0	
0.7513	-4.4999	0.472208	0	
0.7520	-2.67106	-0.444431	0	
0.7527	-3.87424	-1.36107	0	
0.7533	-12.4409	0.166661	0	
0.7540	-21.5851	1.69439	0	
0.7547	-24.3283	1.69439	0	
0.7553	-21.8979	1.69439	0	
0.7560	-17.6146	1.38885	0	
0.7567	-12.1281	-0.749977	0	
0.7573	-8.15757	-4.11098	0	
0.7580	-7.55598	-5.02762	0	
0.7587	-7.24315	-3.49989	0	
0.7593	-7.24315	-2.58325	0	
0.7600	-7.84474	-2.27771	0	
0.7607	-4.4999	0.472208	0	
0.7613	0.986609	1.69439	0	
0.7620	3.75393	-0.749977	0	
0.7627	4.66834	-1.36107	0	
0.7633	4.66834	-0.138885	0	
0.7640	6.78594	-0.749977	0	
0.7647	11.9837	-0.444431	0	
0.7653	16.8686	-0.444431	0	
0.7660	18.3846	-2.58325	0	
0.7667	19.0103	-1.97216	0	
0.7673	18.3846	-0.749977	0	
0.7680	16.5558	-3.19435	0	
0.7687	14.7269	-2.8888	0	
0.7693	11.3821	-0.138885	0	
0.7700	5.58276	-0.138885	0	
0.7707	0.0721909	-0.749977	0	
0.7713	-4.18707	-0.444431	0	
0.7720	-6.32874	0.777754	0	
0.7727	-7.24315	3.22212	0	
0.7733	-9.38482	1.99994	0	
0.7740	-13.6441	0.166661	0	
0.7747	-17.3258	2.61103	0	
0.7753	-17.3258	1.99994	0	
0.7760	-13.6441	-2.27771	0	
0.7767	-12.7297	-0.749977	0	
0.7773	-17.9274	1.99994	0	
0.7780	-21.2723	-0.444431	0	
0.7787	-17.6146	0.777754	0	
0.7793	-12.1281	4.13876	0	
0.7800	-7.84474	2.61103	0	
0.7807	-2.95983	1.99994	0	
0.7813	0.697845	1.38885	0	
0.7820	3.12827	-3.49989	0	
0.7827	8.01319	-4.11098	0	
0.7833	13.4997	-1.66661	0	
0.7840	12.8981	-3.80544	0	
0.7847	9.55326	-4.11098	0	
0.7853	11.3821	-0.749977	0	
0.7860	13.2109	-2.27771	0	
0.7867	8.32602	-3.80544	0	
0.7873	2.83951	0.166661	0	
0.7880	0.986609	2.30548	0	
0.7887	0.986609	1.38885	0	
0.7893	3.4411	1.0833	0	
0.7900	6.78594	0.472208	0	
0.7907	8.32602	-1.97216	0	
0.7913	8.61478	-4.11098	0	
0.7920	8.32602	-2.8888	0	
0.7927	7.09877	2.30548	0	
0.7933	5.58276	2.30548	0	
0.7940	1.61226	-1.36107	0	
0.7947	-6.32874	0.472208	0	
0.7953	-13.6441	2.61103	0	
0.7960	-17.3258	-1.05552	0	
0.7967	-19.4434	-1.36107	0	
0.7973	-19.7562	1.38885	0	
0.7980	-18.529	0.166661	0	
0.7987	-19.1547	-0.749977	0	
0.7993	-19.4434	0.472208	0	
0.8000	-14.5585	-0.749977	0	
0.8007	-6.32874	-1.66661	0	
0.8013	0.0721909	-0.444431	0	
0.8020	7.70036	1.0833	0	
0.8027	19.6119	2.30548	0	
0.8033	28.1544	2.30548	0	
0.8040	28.1544	0.166661	0	
0.8047	26.0128	0.472208	0	
0.8053	22.0423	2.30548	0	
0.8060	13.8125	2.30548	0	
0.8067	11.0693	1.69439	0	
0.8073	16.8686	0.472208	0	
0.8080	21.4407	-1.05552	0	
0.8087	22.0423	0.166661	0	
0.8093	22.0423	1.69439	0	
0.8100	19.9247	0.472208	0	
0.8107	16.5558	-0.444431	0	
0.8113	15.3285	-0.444431	0	
0.8120	12.5853	-0.444431	0	
0.8127	7.09877	-0.749977	0	
0.8133	0.0721909	-1.36107	0	
0.8140	-8.75916	-1.05552	0	
0.8147	-12.7297	-0.138885	0	
0.8153	-13.0425	-0.444431	0	
0.8160	-18.2402	-1.36107	0	
0.8167	-26.47	-1.36107	0	
0.8173	-31.9565	-0.444431	0	
0.8180	-38.3815	1.0833	0	
0.8187	-42.3279	2.61103	0	
0.8193	-34.6998	2.30548	0	
0.8200	-25.2427	-0.444431	0	
0.8207	-21.5851	-1.97216	0	
0.8213	-17.3258	-0.444431	0	
0.8220	-11.5265	0.472208	0	
0.8227	-6.64156	0.777754	0	
0.8233	0.0721909	0.472208	0	
0.8240	6.78594	-1.36107	0	
0.8247	10.7564	-2.27771	0	
0.8253	14.7269	0.166661	0	
0.8260	19.299	2.30548	0	
0.8267	21.1279	0.472208	0	
0.8273	21.1279	-0.749977	0	
0.8280	19.6119	0.472208	0	
0.8287	19.0103	0.472208	0	
0.8293	17.1814	-1.05552	0	
0.8300	7.4116	-0.444431	0	
0.8307	-5.41432	0.472208	0	
0.8313	-6.93033	-1.97216	0	
0.8320	2.83951	-2.8888	0	
0.8327	8.92761	-0.444431	0	
0.8333	4.04269	-0.138885	0	
0.8340	-3.58548	-2.27771	0	
0.8347	-7.24315	-0.749977	0	
0.8353	-12.7297	1.38885	0	
0.8360	-18.529	1.38885	0	
0.8367	-16.0986	1.38885	0	
0.8373	-11.5265	0.777754	0	
0.8380	-14.8713	-1.36107	0	
0.8387	-15.7857	-1.66661	0	
0.8393	-9.67358	-0.138885	0	
0.8400	-7.24315	-0.444431	0	
0.8407	-6.32874	-0.749977	0	
0.8413	1.61226	1.69439	0	
0.8420	8.92761	3.22212	0	
0.8427	12.5853	0.472208	0	
0.8433	17.783	-1.36107	0	
0.8440	21.1279	-1.97216	0	
0.8447	19.0103	-2.58325	0	
0.8453	14.7269	-1.05552	0	
0.8460	12.8981	2.30548	0	
0.8467	15.6414	1.69439	0	
0.8473	18.6974	1.0833	0	
0.8480	14.4141	3.83321	0	
0.8487	8.32602	5.0554	0	
0.8493	6.78594	1.0833	0	
0.8500	3.75393	-1.66661	0	
0.8507	-0.842227	0.472208	0	
0.8513	-3.58548	2.91658	0	
0.8520	-6.93033	2.30548	0	
0.8527	-12.7297	1.38885	0	
0.8533	-16.7002	1.38885	0	
0.8540	-17.3258	3.22212	0	
0.8547	-19.1547	6.58313	0	
0.8553	-21.8979	7.49977	0	
0.8560	-22.8123	5.0554	0	
0.8567	-25.5556	4.13876	0	
0.8573	-31.9565	4.74985	0	
0.8580	-39.8975	2.30548	0	
0.8587	-46.2984	-1.36107	0	
0.8593	-48.1273	-2.8888	0	
0.8600	-42.0392	-2.27771	0	
0.8607	-31.0421	-0.444431	0	
0.8613	-20.9835	-0.444431	0	
0.8620	-10.9008	-1.05552	0	
0.8627	1.29944	1.38885	0	
0.8633	15.6414	3.83321	0	
0.8640	26.6384	0.472208	0	
0.8647	27.8416	-2.27771	0	
0.8653	30.2961	1.99994	0	
0.8660	51.6646	5.0554	0	
0.8667	80.6372	3.22212	0	
0.8673	82.7789	1.99994	0	
0.8680	54.4079	2.30548	0	
0.8687	30.6089	2.30548	0	
0.8693	28.1544	1.0833	0	
0.8700	25.724	-0.444431	0	
0.8707	11.9837	-0.749977	0	
0.8713	0.986609	0.166661	0	
0.8720	-8.75916	-1.36107	0	
0.8727	-23.1011	-2.27771	0	
0.8733	-25.2427	-0.138885	0	
0.8740	-14.2697	-0.444431	0	
0.8747	-13.9569	-1.36107	0	
0.8753	-18.2402	1.99994	0	
0.8760	-6.32874	1.69439	0	
0.8767	5.26994	-5.02762	0	
0.8773	0.986609	-7.44421	0	
0.8780	-3.58548	-4.11098	0	
0.8787	-2.67106	-3.19435	0	
0.8793	-5.10149	-3.19435	0	
0.8800	-7.84474	-4.11098	0	
0.8807	-4.4999	-6.22203	0	
0.8813	-0.5294	-6.52758	0	
0.8820	2.21385	-4.11098	0	
0.8827	6.18435	-3.19435	0	
0.8833	6.18435	-1.66661	0	
0.8840	0.986609	-0.444431	0	
0.8847	0.697845	-1.97216	0	
0.8853	6.78594	-3.19435	0	
0.8860	9.24043	-2.8888	0	
0.8867	7.4116	-3.49989	0	
0.8873	9.24043	-3.19435	0	
0.8880	10.1549	-1.05552	0	
0.8887	5.58276	-2.27771	0	
0.8893	3.75393	-4.11098	0	
0.8900	5.58276	-3.49989	0	
0.8907	4.95711	-4.11098	0	
0.8913	1.29944	-7.13867	0	
0.8920	-2.95983	-6.22203	0	
0.8927	-7.84474	-3.49989	0	
0.8933	-12.7297	-3.19435	0	
0.8940	-19.1547	-2.8888	0	
0.8947	-24.6412	-1.97216	0	
0.8953	-22.4995	-1.97216	0	
0.8960	-15.4729	-1.97216	0	
0.8967	-14.2697	-1.66661	0	
0.8973	-17.3258	-1.36107	0	
0.8980	-17.3258	-1.05552	0	
0.8987	-18.529	-2.8888	0	
0.8993	-26.47	-3.19435	0	
0.9000	-34.411	0.777754	0	
0.9007	-31.0421	2.30548	0	
0.9013	-18.529	-1.05552	0	
0.9020	-9.07199	-3.19435	0	
0.9027	-5.10149	-2.27771	0	
0.9033	2.52668	-2.27771	0	
0.9040	13.4997	-3.19435	0	
0.9047	17.4702	-3.49989	0	
0.9053	15.3285	-2.58325	0	
0.9060	15.6414	-0.444431	0	
0.9067	17.783	1.69439	0	
0.9073	17.4702	3.22212	0	
0.9080	14.1254	3.22212	0	
0.9087	12.2965	0.777754	0	
0.9093	14.7269	-1.05552	0	
0.9100	12.2965	-1.66661	0	
0.9107	1.90103	-1.97216	0	
0.9113	-2.95983	0.472208	0	
0.9120	-1.75665	3.22212	0	
0.9127	-3.58548	2.91658	0	
0.9133	-4.18707	2.30548	0	
0.9140	-1.13099	2.91658	0	
0.9147	-5.72714	0.472208	0	
0.9153	-14.5585	-0.749977	0	
0.9160	-15.4729	1.69439	0	
0.9167	-14.5585	1.38885	0	
0.9173	-15.7857	-0.444431	0	
0.9180	-15.4729	1.38885	0	
0.9187	-13.0425	1.69439	0	
0.9193	-10.9008	1.0833	0	
0.9200	-8.15757	3.22212	0	
0.9207	-5.10149	2.91658	0	
0.9213	-1.75665	-1.66661	0	
0.9220	2.83951	-1.66661	0	
0.9227	8.01319	-0.138885	0	
0.9233	11.3821	-3.19435	0	
0.9240	13.4997	-5.02762	0	
0.9247	15.6414	-2.27771	0	
0.9253	14.7269	-1.97216	0	
0.9260	10.4677	-3.80544	0	
0.9267	11.0693	-3.49989	0	
0.9273	14.7269	-3.80544	0	
0.9280	12.8981	-4.72208	0	
0.9287	10.7564	-2.8888	0	
0.9293	10.7564	-0.138885	0	
0.9300	3.75393	-0.138885	0	
0.9307	-4.81273	-0.749977	0	
0.9313	-4.4999	-1.36107	0	
0.9320	-3.87424	-1.97216	0	
0.9327	-9.67358	0.166661	0	
0.9333	-11.8152	1.69439	0	
0.9340	-10.9008	0.472208	0	
0.9347	-13.6441	0.166661	0	
0.9353	-17.6146	1.0833	0	
0.9360	-18.2402	0.166661	0	
0.9367	-16.7002	-1.05552	0	
0.9373	-13.9569	-0.444431	0	
0.9380	-9.67358	-0.138885	0	
0.9387	-5.41432	0.472208	0	
0.9393	-1.75665	2.30548	0	
0.9400	1.90103	0.166661	0	
0.9407	4.66834	-3.49989	0	
0.9413	4.04269	-0.749977	0	
0.9420	3.75393	2.30548	0	
0.9427	6.78594	-1.97216	0	
0.9433	8.01319	-3.80544	0	
0.9440	8.61478	-0.749977	0	
0.9447	13.4997	-1.97216	0	
0.9453	14.7269	-3.49989	0	
0.9460	11.0693	-0.138885	0	
0.9467	12.2965	-0.444431	0	
0.9473	16.8686	-3.80544	0	
0.9480	15.0398	-1.97216	0	
0.9487	11.6709	-0.444431	0	
0.9493	9.55326	-3.19435	0	
0.9500	4.66834	-1.36107	0	
0.9507	0.697845	1.38885	0	
0.9513	-1.75665	-0.444431	0	
0.9520	-7.55598	-1.36107	0	
0.9527	-9.07199	-0.444431	0	
0.9533	-5.41432	-2.8888	0	
0.9540	-7.24315	-4.11098	0	
0.9547	-11.5265	-1.05552	0	
0.9553	-12.1281	1.38885	0	
0.9560	-15.7857	2.30548	0	
0.9567	-19.1547	4.13876	0	
0.9573	-16.0986	5.0554	0	
0.9580	-17.3258	3.52767	0	
0.9587	-20.9835	2.30548	0	
0.9593	-15.4729	3.22212	0	
0.9600	-8.15757	3.22212	0	
0.9607	-7.24315	2.61103	0	
0.9613	-1.75665	4.13876	0	
0.9620	3.75393	5.0554	0	
0.9627	1.90103	3.22212	0	
0.9633	2.83951	1.99994	0	
0.9640	7.4116	0.166661	0	
0.9647	9.84203	-1.36107	0	
0.9653	14.1254	-0.749977	0	
0.9660	16.5558	-1.05552	0	
0.9667	12.8981	-1.36107	0	
0.9673	13.8125	-0.138885	0	
0.9680	17.1814	-1.05552	0	
0.9687	11.0693	-3.49989	0	
0.9693	8.32602	-1.36107	0	
0.9700	14.7269	-0.138885	0	
0.9707	11.0693	-3.80544	0	
0.9713	-1.75665	-2.27771	0	
0.9720	-7.24315	2.91658	0	
0.9727	-9.07199	3.22212	0	
0.9733	-14.8713	2.61103	0	
0.9740	-16.3873	4.13876	0	
0.9747	-13.0425	1.99994	0	
0.9753	-14.5585	-1.05552	0	
0.9760	-20.3578	0.472208	0	
0.9767	-21.8979	2.91658	0	
0.9773	-17.013	1.69439	0	
0.9780	-9.98641	-1.05552	0	
0.9787	-5.10149	-1.97216	0	
0.9793	-2.95983	-1.05552	0	
0.9800	-5.41432	0.777754	0	
0.9807	-9.07199	3.83321	0	
0.9813	-6.93033	5.36094	0	
0.9820	0.385018	2.30548	0	
0.9827	5.58276	-1.36107	0	
0.9833	9.55326	-1.05552	0	
0.9840	15.3285	0.777754	0	
0.9847	16.8686	1.69439	0	
0.9853	11.6709	2.91658	0	
0.9860	8.01319	2.30548	0	
0.9867	10.7564	-0.138885	0	
0.9873	14.7269	-0.444431	0	
0.9880	17.783	1.38885	0	
0.9887	19.299	2.30548	0	
0.9893	15.3285	0.777754	0	
0.9900	7.4116	-0.444431	0	
0.9907	1.29944	-1.05552	0	
0.9913	0.0721909	-2.27771	0	
0.9920	1.29944	-3.49989	0	
0.9927	0.0721909	-3.19435	0	
0.9933	-6.32874	-3.49989	0	
0.9940	-9.38482	-4.72208	0	
0.9947	-7.84474	-3.80544	0	
0.9953	-9.07199	-1.97216	0	
0.9960	-12.7297	-1.36107	0	
0.9967	-13.9569	0.472208	0	
0.9973	-13.6441	1.99994	0	
0.9980	-13.0425	0.166661	0	
0.9987	-12.7297	-1.66661	0	
0.9993	-12.7297	-1.66661	0	
1.0000	-7.55598	-0.444431	0	
1.0007	-0.216573	1.38885	0	
1.0013	2.83951	-0.138885	0	
1.0020	4.66834	-1.36107	0	
1.0027	6.49718	2.61103	0	
1.0033	7.4116	3.83321	0	
1.0040	11.6709	0.472208	0	
1.0047	15.3285	0.777754	0	
1.0053	12.8981	2.61103	0	
1.0060	12.8981	1.69439	0	
1.0067	18.3846	2.30548	0	
1.0073	19.299	3.22212	0	
1.0080	15.0398	-1.05552	0	
1.0087	12.2965	-1.97216	0	
1.0093	9.24043	1.99994	0	
1.0100	2.21385	1.38885	0	
1.0107	-3.87424	-2.27771	0	
1.0113	-5.41432	-2.27771	0	
1.0120	-5.72714	0.166661	0	
1.0127	-8.4704	1.99994	0	
1.0133	-9.98641	1.99994	0	
1.0140	-10.9008	-0.444431	0	
1.0147	-15.4729	-2.27771	0	
1.0153	-17.3258	-1.36107	0	
1.0160	-14.5585	-0.749977	0	
1.0167	-16.0986	-0.749977	0	
1.0173	-18.2402	0.472208	0	
1.0180	-14.5585	1.69439	0	
1.0187	-11.2137	1.38885	0	
1.0193	-11.2137	1.38885	0	
1.0200	-6.32874	1.38885	0	
1.0207	0.0721909	2.30548	0	
1.0213	3.12827	2.30548	0	
1.0220	8.32602	0.777754	0	
1.0227	13.4997	-0.444431	0	
1.0233	15.6414	0.472208	0	
1.0240	17.783	0.472208	0	
1.0247	18.6974	-1.97216	0	
1.0253	19.299	-3.19435	0	
1.0260	22.0423	-3.49989	0	
1.0267	23.5824	-4.72208	0	
1.0273	22.9808	-5.02762	0	
1.0280	22.3551	-3.19435	0	
1.0287	19.6119	0.166661	0	
1.0293	15.3285	0.777754	0	
1.0300	11.9837	-0.444431	0	
1.0307	7.4116	-0.444431	0	
1.0313	4.35552	-0.138885	0	
1.0320	6.49718	-2.27771	0	
1.0327	4.66834	-2.8888	0	
1.0333	-3.58548	0.777754	0	
1.0340	-8.15757	3.22212	0	
1.0347	-10.588	1.38885	0	
1.0353	-14.2697	-1.36107	0	
1.0360	-13.9569	-1.97216	0	
1.0367	-12.7297	0.166661	0	
1.0373	-12.1281	2.30548	0	
1.0380	-6.32874	1.0833	0	
1.0387	0.385018	-1.97216	0	
1.0393	-2.67106	-1.97216	0	
1.0400	-7.84474	0.472208	0	
1.0407	-4.81273	1.69439	0	
1.0413	0.986609	1.0833	0	
1.0420	3.75393	-1.36107	0	
1.0427	7.4116	-3.80544	0	
1.0433	11.9837	-3.19435	0	
1.0440	12.8981	-0.444431	0	
1.0447	11.9837	0.166661	0	
1.0453	14.7269	-0.444431	0	
1.0460	17.4702	-2.58325	0	
1.0467	14.7269	-4.72208	0	
1.0473	11.3821	-3.80544	0	
1.0480	11.3821	-1.36107	0	
1.0487	9.24043	-2.58325	0	
1.0493	4.66834	-3.49989	0	
1.0500	1.90103	-1.05552	0	
1.0507	0.986609	-2.27771	0	
1.0513	-2.67106	-4.11098	0	
1.0520	-6.32874	-1.36107	0	
1.0527	-7.24315	0.777754	0	
1.0533	-6.93033	-2.8888	0	
1.0540	-7.24315	-4.41653	0	
1.0547	-8.75916	-1.66661	0	
1.0553	-11.8152	1.38885	0	
1.0560	-13.6441	2.61103	0	
1.0567	-10.9008	0.472208	0	
1.0573	-9.67358	-2.27771	0	
1.0580	-13.0425	-1.36107	0	
1.0587	-13.6441	0.166661	0	
1.0593	-9.67358	-0.444431	0	
1.0600	-6.32874	-1.05552	0	
1.0607	-3.58548	-0.138885	0	
1.0613	-0.216573	0.777754	0	
1.0620	2.21385	-0.138885	0	
1.0627	3.4411	-2.8888	0	
1.0633	4.04269	-3.19435	0	
1.0640	6.18435	-1.36107	0	
1.0647	8.92761	-0.138885	0	
1.0653	11.0693	-0.138885	0	
1.0660	12.2965	-1.05552	0	
1.0667	12.5853	-2.8888	0	
1.0673	12.8981	-3.19435	0	
1.0680	13.8125	-3.19435	0	
1.0687	10.7564	-5.02762	0	
1.0693	2.83951	-5.33317	0	
1.0700	-0.216573	-4.11098	0	
1.0707	0.0721909	-6.22203	0	
1.0713	-4.4999	-7.74976	0	
1.0720	-9.98641	-4.11098	0	
1.0727	-11.8152	-3.19435	0	
1.0733	-17.6146	-4.11098	0	
1.0740	-28.2988	-1.97216	0	
1.0747	-32.2693	-1.36107	0	
1.0753	-28.6117	-1.97216	0	
1.0760	-23.7267	0.472208	0	
1.0767	-19.1547	1.0833	0	
1.0773	-13.9569	-0.138885	0	
1.0780	-10.588	1.99994	0	
1.0787	-9.07199	1.69439	0	
1.0793	-6.32874	-1.97216	0	
1.0800	-3.58548	-1.36107	0	
1.0807	-3.58548	0.166661	0	
1.0813	-3.87424	-0.749977	0	
1.0820	-1.13099	1.0833	0	
1.0827	2.52668	2.91658	0	
1.0833	6.18435	1.69439	0	
1.0840	9.24043	1.69439	0	
1.0847	9.84203	0.777754	0	
1.0853	9.24043	-1.36107	0	
1.0860	10.1549	-0.749977	0	
1.0867	15.0398	0.472208	0	
1.0873	19.0103	-0.444431	0	
1.0880	16.267	1.38885	0	
1.0887	8.32602	3.22212	0	
1.0893	2.83951	1.69439	0	
1.0900	0.986609	0.166661	0	
1.0907	0.385018	-0.138885	0	
1.0913	-2.04541	-0.749977	0	
1.0920	-4.81273	-0.749977	0	
1.0927	-6.32874	0.472208	0	
1.0933	-6.93033	0.472208	0	
1.0940	-9.07199	-0.138885	0	
1.0947	-10.9008	0.472208	0	
1.0953	-10.9008	1.38885	0	
1.0960	-10.588	-0.138885	0	
1.0967	-8.4704	-0.749977	0	
1.0973	-5.72714	-0.444431	0	
1.0980	-7.24315	-1.36107	0	
1.0987	-10.9008	-0.749977	0	
1.0993	-11.5265	1.38885	0	
1.1000	-8.15757	0.777754	0	
1.1007	-5.41432	-1.66661	0	
1.1013	-4.18707	-1.36107	0	
1.1020	-0.216573	-1.66661	0	
1.1027	4.95711	-2.27771	0	
1.1033	7.4116	-0.138885	0	
1.1040	9.24043	0.777754	0	
1.1047	13.2109	-1.05552	0	
1.1053	13.8125	-1.05552	0	
1.1060	11.0693	0.472208	0	
1.1067	11.9837	0.472208	0	
1.1073	13.4997	-1.97216	0	
1.1080	10.1549	-3.19435	0	
1.1087	8.61478	-2.58325	0	
1.1093	7.70036	-2.27771	0	
1.1100	1.90103	-2.58325	0	
1.1107	0.986609	-2.27771	0	
1.1113	4.66834	-1.05552	0	
1.1120	0.986609	0.166661	0	
1.1127	-9.98641	2.30548	0	
1.1133	-12.4409	3.52767	0	
1.1140	-7.84474	2.30548	0	
1.1147	-6.01591	1.69439	0	
1.1153	-7.24315	1.0833	0	
1.1160	-9.07199	-1.36107	0	
1.1167	-10.2992	-2.27771	0	
1.1173	-11.8152	-0.444431	0	
1.1180	-13.6441	0.166661	0	
1.1187	-15.4729	1.38885	0	
1.1193	-14.5585	2.91658	0	
1.1200	-9.07199	1.99994	0	
1.1207	-3.87424	0.472208	0	
1.1213	-3.27265	0.777754	0	
1.1220	0.0721909	2.91658	0	
1.1227	9.24043	4.13876	0	
1.1233	13.4997	4.13876	0	
1.1240	10.1549	2.91658	0	
1.1247	9.84203	2.30548	0	
1.1253	14.7269	1.99994	0	
1.1260	16.5558	1.99994	0	
1.1267	16.5558	3.22212	0	
1.1273	15.6414	3.22212	0	
1.1280	9.24043	1.69439	0	
1.1287	4.66834	2.30548	0	
1.1293	7.4116	3.22212	0	
1.1300	7.4116	1.69439	0	
1.1307	2.83951	-0.138885	0	
1.1313	0.0721909	-1.36107	0	
1.1320	-2.04541	-2.8888	0	
1.1327	-7.24315	-4.11098	0	
1.1333	-9.98641	-2.8888	0	
1.1340	-11.5265	-0.138885	0	
1.1347	-17.3258	1.38885	0	
1.1353	-22.8123	0.777754	0	
1.1360	-20.9835	0.777754	0	
1.1367	-17.3258	1.69439	0	
1.1373	-16.0986	0.472208	0	
1.1380	-15.7857	-1.36107	0	
1.1387	-11.2137	0.166661	0	
1.1393	-5.72714	1.0833	0	
1.1400	-4.81273	-1.66661	0	
1.1407	-3.58548	-1.36107	0	
1.1413	0.986609	1.69439	0	
1.1420	0.385018	0.166661	0	
1.1427	-4.18707	-0.749977	0	
1.1433	-1.75665	0.472208	0	
1.1440	6.78594	-1.97216	0	
1.1447	12.8981	-3.49989	0	
1.1453	11.9837	-1.05552	0	
1.1460	6.49718	-1.36107	0	
1.1467	5.58276	-3.49989	0	
1.1473	11.6709	-1.97216	0	
1.1480	15.0398	-0.138885	0	
1.1487	11.6709	0.166661	0	
1.1493	9.55326	0.166661	0	
1.1500	10.1549	-2.27771	0	
1.1507	6.78594	-4.11098	0	
1.1513	1.90103	-3.19435	0	
1.1520	-0.5294	-2.58325	0	
1.1527	-5.10149	-2.8888	0	
1.1533	-10.588	-0.749977	0	
1.1540	-13.9569	-0.138885	0	
1.1547	-15.4729	-1.36107	0	
1.1553	-15.4729	-1.36107	0	
1.1560	-13.6441	-1.05552	0	
1.1567	-12.7297	-0.444431	0	
1.1573	-9.98641	0.472208	0	
1.1580	-5.41432	0.472208	0	
1.1587	-4.18707	-0.138885	0	
1.1593	-6.64156	-1.36107	0	
1.1600	-4.4999	-1.36107	0	
1.1607	2.21385	2.30548	0	
1.1613	7.09877	2.91658	0	
1.1620	8.92761	-2.27771	0	
1.1627	11.9837	-4.11098	0	
1.1633	16.5558	-0.138885	0	
1.1640	17.783	-0.138885	0	
1.1647	14.7269	-1.36107	0	
1.1653	14.7269	-0.138885	0	
1.1660	17.783	-3.19435	0	
1.1667	14.1254	-7.13867	0	
1.1673	9.24043	-4.72208	0	
1.1680	10.1549	-1.66661	0	
1.1687	8.92761	-2.8888	0	
1.1693	2.21385	-4.41653	0	
1.1700	-1.44382	-5.02762	0	
1.1707	-2.67106	-4.11098	0	
1.1713	-4.18707	-2.58325	0	
1.1720	-2.95983	-3.19435	0	
1.1727	-3.87424	-4.41653	0	
1.1733	-8.15757	-2.58325	0	
1.1740	-7.84474	-0.444431	0	
1.1747	-3.58548	-1.36107	0	
1.1753	0.986609	-1.36107	0	
1.1760	3.75393	-2.58325	0	
1.1767	0.385018	-3.19435	0	
1.1773	-8.4704	-0.138885	0	
1.1780	-12.4409	1.38885	0	
1.1787	-10.2992	-2.27771	0	
1.1793	-7.24315	-3.19435	0	
1.1800	-2.35824	0.777754	0	
1.1807	1.90103	0.472208	0	
1.1813	6.49718	-3.19435	0	
1.1820	12.8981	-2.27771	0	
1.1827	14.4141	0.166661	0	
1.1833	8.61478	-0.444431	0	
1.1840	5.58276	-0.749977	0	
1.1847	6.49718	-0.444431	0	
1.1853	6.78594	-0.444431	0	
1.1860	8.32602	0.166661	0	
1.1867	9.24043	2.61103	0	
1.1873	4.95711	4.13876	0	
1.1880	2.83951	3.83321	0	
1.1887	5.58276	2.30548	0	
1.1893	6.49718	0.472208	0	
1.1900	4.35552	-0.444431	0	
1.1907	-0.216573	-1.36107	0	
1.1913	-7.24315	-1.05552	0	
1.1920	-12.7297	0.777754	0	
1.1927	-13.0425	2.30548	0	
1.1933	-11.8152	1.38885	0	
1.1940	-13.9569	1.99994	0	
1.1947	-20.0691	4.44431	0	
1.1953	-24.6412	6.88868	0	
1.1960	-21.5851	5.0554	0	
1.1967	-13.6441	1.0833	0	
1.1973	-8.4704	-1.36107	0	
1.1980	-8.15757	-1.05552	0	
1.1987	-9.98641	-0.444431	0	
1.1993	-9.98641	-0.138885	0	
1.2000	-6.93033	-0.749977	0	
1.2007	0.986609	-1.36107	0	
1.2013	8.32602	0.777754	0	
1.2020	8.61478	2.30548	0	
1.2027	11.0693	-0.749977	0	
1.2033	18.3846	-2.58325	0	
1.2040	18.0959	-2.27771	0	
1.2047	10.1549	-2.58325	0	
1.2053	8.01319	-1.97216	0	
1.2060	10.4677	1.99994	0	
1.2067	10.1549	2.91658	0	
1.2073	10.1549	0.472208	0	
1.2080	11.3821	-0.749977	0	
1.2087	11.9837	1.0833	0	
1.2093	11.0693	4.13876	0	
1.2100	6.78594	5.0554	0	
1.2107	2.52668	3.22212	0	
1.2113	1.29944	1.0833	0	
1.2120	0.986609	0.777754	0	
1.2127	1.90103	2.30548	0	
1.2133	5.58276	3.22212	0	
1.2140	2.52668	1.38885	0	
1.2147	-5.41432	-1.66661	0	
1.2153	-6.93033	-1.36107	0	
1.2160	-6.32874	0.472208	0	
1.2167	-8.15757	0.472208	0	
1.2173	-7.55598	2.30548	0	
1.2180	-6.64156	2.91658	0	
1.2187	-7.24315	0.472208	0	
1.2193	-4.4999	-1.05552	0	
1.2200	-5.10149	0.472208	0	
1.2207	-15.1842	0.472208	0	
1.2213	-20.6707	-1.97216	0	
1.2220	-11.8152	-1.97216	0	
1.2227	0.385018	-1.05552	0	
1.2233	6.49718	-2.27771	0	
1.2240	10.1549	-3.19435	0	
1.2247	13.8125	-1.36107	0	
1.2253	16.5558	-0.749977	0	
1.2260	16.5558	-1.36107	0	
1.2267	12.2965	-0.444431	0	
1.2273	8.32602	0.472208	0	
1.2280	5.87153	0.166661	0	
1.2287	1.29944	1.38885	0	
1.2293	-2.95983	2.30548	0	
1.2300	-3.58548	0.472208	0	
1.2307	-7.55598	-0.444431	0	
1.2313	-16.0986	2.61103	0	
1.2320	-19.1547	4.13876	0	
1.2327	-18.8418	3.22212	0	
1.2333	-20.0691	4.44431	0	
1.2340	-20.9835	5.97204	0	
1.2347	-23.4139	4.74985	0	
1.2353	-27.6972	3.22212	0	
1.2360	-26.1572	1.99994	0	
1.2367	-21.8979	1.99994	0	
1.2373	-23.7267	3.83321	0	
1.2380	-24.6412	4.13876	0	
1.2387	-17.9274	1.38885	0	
1.2393	-8.75916	1.0833	0	
1.2400	-3.87424	3.22212	0	
1.2407	-3.87424	3.52767	0	
1.2413	-2.67106	1.0833	0	
1.2420	3.12827	-0.444431	0	
1.2427	8.32602	0.777754	0	
1.2433	9.24043	2.30548	0	
1.2440	9.55326	1.99994	0	
1.2447	10.1549	1.69439	0	
1.2453	10.7564	1.99994	0	
1.2460	15.6414	0.166661	0	
1.2467	19.299	-0.444431	0	
1.2473	16.5558	2.30548	0	
1.2480	14.1254	2.30548	0	
1.2487	16.267	0.166661	0	
1.2493	16.267	0.777754	0	
1.2500	13.8125	-1.05552	0	
1.2507	13.4997	-5.63871	0	
1.2513	14.7269	-5.63871	0	
1.2520	13.8125	-3.19435	0	
1.2527	9.84203	-4.11098	0	
1.2533	5.58276	-4.41653	0	
1.2540	4.66834	-3.49989	0	
1.2547	3.4411	-3.19435	0	
1.2553	-0.842227	-2.27771	0	
1.2560	-1.44382	-1.05552	0	
1.2567	0.986609	-2.58325	0	
1.2573	-6.01591	-3.19435	0	
1.2580	-14.5585	-1.36107	0	
1.2587	-9.07199	-2.27771	0	
1.2593	-6.64156	-4.11098	0	
1.2600	-20.9835	-1.66661	0	
1.2607	-28.9004	0.472208	0	
1.2613	-17.6146	-0.444431	0	
1.2620	-6.01591	0.777754	0	
1.2627	-1.13099	1.69439	0	
1.2633	3.4411	-2.27771	0	
1.2640	7.70036	-5.02762	0	
1.2647	9.55326	-3.19435	0	
1.2653	10.4677	-0.749977	0	
1.2660	10.7564	-0.138885	0	
1.2667	11.9837	-0.749977	0	
1.2673	13.4997	-3.80544	0	
1.2680	12.2965	-4.72208	0	
1.2687	9.84203	-2.8888	0	
1.2693	7.09877	-3.80544	0	
1.2700	0.986609	-4.41653	0	
1.2707	-6.93033	0.166661	0	
1.2713	-9.98641	1.38885	0	
1.2720	-7.84474	-3.80544	0	
1.2727	-9.67358	-4.11098	0	
1.2733	-17.3258	0.166661	0	
1.2740	-21.2723	0.472208	0	
1.2747	-21.2723	-1.36107	0	
1.2753	-22.1867	-0.138885	0	
1.2760	-20.6707	1.0833	0	
1.2767	-14.8713	-0.138885	0	
1.2773	-11.5265	-3.19435	0	
1.2780	-10.2992	-3.19435	0	
1.2787	-6.32874	1.0833	0	
1.2793	-2.04541	4.13876	0	
1.2800	1.29944	4.13876	0	
1.2807	7.4116	3.22212	0	
1.2813	14.4141	2.30548	0	
1.2820	16.5558	3.22212	0	
1.2827	17.1814	4.13876	0	
1.2833	19.0103	1.38885	0	
1.2840	21.1279	-1.05552	0	
1.2847	23.2695	-0.749977	0	
1.2853	25.4112	-4.11098	0	
1.2860	24.184	-5.33317	0	
1.2867	21.1279	0.166661	0	
1.2873	20.8391	2.30548	0	
1.2880	19.9247	-1.05552	0	
1.2887	15.0398	-1.05552	0	
1.2893	11.9837	-1.97216	0	
1.2900	11.0693	-4.11098	0	
1.2907	7.4116	-0.749977	0	
1.2913	2.83951	1.69439	0	
1.2920	-0.5294	-1.66661	0	
1.2927	-3.27265	-1.97216	0	
1.2933	-3.87424	1.38885	0	
1.2940	-5.72714	0.472208	0	
1.2947	-10.9008	-0.444431	0	
1.2953	-13.3553	1.99994	0	
1.2960	-12.4409	1.38885	0	
1.2967	-12.7297	-2.58325	0	
1.2973	-11.8152	-2.27771	0	
1.2980	-6.64156	-0.444431	0	
1.2987	-3.27265	-0.749977	0	
1.2993	-3.58548	-0.749977	0	
1.3000	-2.95983	-0.444431	0	
1.3007	-0.842227	-1.36107	0	
1.3013	3.4411	-0.444431	0	
1.3020	7.09877	0.472208	0	
1.3027	8.01319	-1.36107	0	
1.3033	8.92761	-1.05552	0	
1.3040	11.9837	2.30548	0	
1.3047	14.4141	0.472208	0	
1.3053	12.2965	-3.19435	0	
1.3060	8.61478	-1.36107	0	
1.3067	8.92761	0.166661	0	
1.3073	11.0693	-1.36107	0	
1.3080	8.32602	-1.66661	0	
1.3087	5.26994	-2.27771	0	
1.3093	6.49718	-3.19435	0	
1.3100	4.66834	-4.11098	0	
1.3107	-3.58548	-5.02762	0	
1.3113	-9.98641	-5.02762	0	
1.3120	-11.8152	-2.27771	0	
1.3127	-12.7297	-1.36107	0	
1.3133	-13.3553	-3.19435	0	
1.3140	-14.5585	-3.49989	0	
1.3147	-15.7857	-2.27771	0	
1.3153	-15.1842	-2.8888	0	
1.3160	-15.4729	-1.66661	0	
1.3167	-16.3873	1.38885	0	
1.3173	-13.3553	1.38885	0	
1.3180	-9.98641	-1.36107	0	
1.3187	-9.98641	-2.27771	0	
1.3193	-6.32874	-2.27771	0	
1.3200	-0.5294	-2.8888	0	
1.3207	0.986609	-0.749977	0	
1.3213	0.986609	0.472208	0	
1.3220	0.986609	-1.97216	0	
1.3227	3.75393	-1.36107	0	
1.3233	7.4116	1.38885	0	
1.3240	5.58276	-1.36107	0	
1.3247	0.986609	-4.11098	0	
1.3253	2.83951	-0.138885	0	
1.3260	10.1549	-0.138885	0	
1.3267	11.0693	-4.11098	0	
1.3273	5.87153	-3.49989	0	
1.3280	2.52668	-1.05552	0	
1.3287	0.697845	-1.36107	0	
1.3293	-0.216573	-0.138885	0	
1.3300	1.90103	0.777754	0	
1.3307	1.90103	-1.05552	0	
1.3313	-2.35824	-1.36107	0	
1.3320	-4.4999	1.38885	0	
1.3327	-6.64156	0.472208	0	
1.3333	-13.6441	-2.27771	0	
1.3340	-16.7002	-1.66661	0	
1.3347	-16.0986	1.69439	0	
1.3353	-18.2402	2.61103	0	
1.3360	-17.3258	-0.138885	0	
1.3367	-15.1842	-0.444431	0	
1.3373	-19.4434	1.69439	0	
1.3380	-19.4434	2.30548	0	
1.3387	-11.8152	1.38885	0	
1.3393	-9.98641	1.99994	0	
1.3400	-9.98641	2.61103	0	
1.3407	-4.18707	1.69439	0	
1.3413	-3.27265	0.777754	0	
1.3420	-4.4999	1.0833	0	
1.3427	1.29944	0.472208	0	
1.3433	6.49718	-0.444431	0	
1.3440	8.01319	-0.444431	0	
1.3447	10.7564	-1.36107	0	
1.3453	12.8981	-4.11098	0	
1.3460	14.1254	-5.63871	0	
1.3467	16.267	-2.58325	0	
1.3473	15.3285	0.472208	0	
1.3480	15.9542	-1.05552	0	
1.3487	19.9247	-3.19435	0	
1.3493	16.267	-2.27771	0	
1.3500	4.95711	-0.749977	0	
1.3507	-2.67106	-0.444431	0	
1.3513	-4.4999	-0.444431	0	
1.3520	-2.04541	-1.36107	0	
1.3527	-1.44382	-1.05552	0	
1.3533	-5.72714	0.472208	0	
1.3540	-9.07199	1.0833	0	
1.3547	-11.5265	0.166661	0	
1.3553	-17.3258	-1.36107	0	
1.3560	-17.3258	-1.36107	0	
1.3567	-6.32874	-0.138885	0	
1.3573	0.0721909	0.472208	0	
1.3580	-1.75665	0.166661	0	
1.3587	-2.35824	2.30548	0	
1.3593	-3.27265	4.13876	0	
1.3600	-2.35824	1.0833	0	
1.3607	4.66834	-0.749977	0	
1.3613	9.24043	2.30548	0	
1.3620	7.70036	2.91658	0	
1.3627	8.01319	2.61103	0	
1.3633	10.1549	4.74985	0	
1.3640	11.6709	2.91658	0	
1.3647	13.2109	-0.749977	0	
1.3653	6.49718	1.38885	0	
1.3660	-8.15757	4.13876	0	
1.3667	-14.2697	3.52767	0	
1.3673	-5.41432	5.0554	0	
1.3680	2.83951	5.36094	0	
1.3687	4.95711	2.30548	0	
1.3693	5.26994	0.472208	0	
1.3700	5.58276	0.777754	0	
1.3707	4.04269	-0.444431	0	
1.3713	0.986609	-1.36107	0	
1.3720	-2.04541	-1.05552	0	
1.3727	-7.24315	0.166661	0	
1.3733	-13.6441	1.38885	0	
1.3740	-15.4729	1.38885	0	
1.3747	-13.6441	0.472208	0	
1.3753	-11.5265	-0.444431	0	
1.3760	-10.9008	-0.444431	0	
1.3767	-14.5585	2.30548	0	
1.3773	-18.529	4.74985	0	
1.3780	-15.7857	3.83321	0	
1.3787	-10.2992	0.472208	0	
1.3793	-9.07199	-0.749977	0	
1.3800	-7.55598	0.472208	0	
1.3807	-3.27265	0.472208	0	
1.3813	-1.44382	-0.749977	0	
1.3820	-0.216573	-0.444431	0	
1.3827	2.52668	1.0833	0	
1.3833	6.49718	0.472208	0	
1.3840	10.7564	-0.749977	0	
1.3847	13.4997	-0.444431	0	
1.3853	15.3285	-0.444431	0	
1.3860	19.0103	-1.05552	0	
1.3867	20.2135	-0.749977	0	
1.3873	16.267	-0.138885	0	
1.3880	15.3285	-1.97216	0	
1.3887	18.6974	-3.80544	0	
1.3893	18.3846	-2.58325	0	
1.3900	16.5558	-1.97216	0	
1.3907	15.6414	-2.58325	0	
1.3913	9.84203	-1.36107	0	
1.3920	-0.842227	0.472208	0	
1.3927	-6.64156	-0.138885	0	
1.3933	-6.01591	-0.444431	0	
1.3940	-4.4999	-0.138885	0	
1.3947	-5.41432	-0.444431	0	
1.3953	-7.55598	0.777754	0	
1.3960	-5.41432	1.99994	0	
1.3967	-1.75665	0.472208	0	
1.3973	-2.35824	-1.36107	0	
1.3980	-4.81273	0.166661	0	
1.3987	-2.04541	1.38885	0	
1.3993	1.29944	0.472208	0	
1.4000	2.52668	-0.749977	0	
1.4007	5.87153	-1.05552	0	
1.4013	10.1549	-0.444431	0	
1.4020	10.7564	-1.36107	0	
1.4027	12.5853	-4.11098	0	
1.4033	15.6414	-3.80544	0	
1.4040	13.2109	-0.749977	0	
1.4047	10.1549	-0.749977	0	
1.4053	14.4141	-2.58325	0	
1.4060	18.3846	-2.58325	0	
1.4067	17.4702	-1.66661	0	
1.4073	18.0959	-3.19435	0	
1.4080	19.9247	-4.72208	0	
1.4087	17.4702	-4.41653	0	
1.4093	12.5853	-3.80544	0	
1.4100	9.55326	-4.72208	0	
1.4107	6.78594	-5.02762	0	
1.4113	2.83951	-3.19435	0	
1.4120	0.697845	-1.36107	0	
1.4127	0.0721909	-1.66661	0	
1.4133	-4.18707	-1.36107	0	
1.4140	-12.4409	0.166661	0	
1.4147	-16.3873	2.30548	0	
1.4153	-15.1842	3.83321	0	
1.4160	-16.7002	2.91658	0	
1.4167	-18.2402	1.38885	0	
1.4173	-14.5585	1.38885	0	
1.4180	-13.0425	-0.138885	0	
1.4187	-12.1281	-1.97216	0	
1.4193	-4.4999	-1.66661	0	
1.4200	4.95711	-2.27771	0	
1.4207	11.3821	-2.58325	0	
1.4213	14.4141	0.472208	0	
1.4220	13.4997	1.69439	0	
1.4227	14.4141	-1.97216	0	
1.4233	19.0103	-3.19435	0	
1.4240	18.3846	-2.27771	0	
1.4247	14.4141	-2.58325	0	
1.4253	14.4141	-1.97216	0	
1.4260	12.5853	-0.749977	0	
1.4267	6.18435	-2.58325	0	
1.4273	2.52668	-2.58325	0	
1.4280	-2.67106	-1.05552	0	
1.4287	-12.1281	-2.27771	0	
1.4293	-15.7857	-3.19435	0	
1.4300	-10.9008	-0.749977	0	
1.4307	-8.15757	-0.444431	0	
1.4313	-9.67358	0.166661	0	
1.4320	-12.4409	3.83321	0	
1.4327	-15.4729	4.44431	0	
1.4333	-17.6146	0.777754	0	
1.4340	-18.529	0.472208	0	
1.4347	-21.8979	4.13876	0	
1.4353	-25.5556	4.44431	0	
1.4360	-23.4139	2.30548	0	
1.4367	-18.529	0.777754	0	
1.4373	-18.2402	-0.444431	0	
1.4380	-19.1547	0.472208	0	
1.4387	-17.9274	2.61103	0	
1.4393	-15.4729	3.52767	0	
1.4400	-11.5265	2.91658	0	
1.4407	-6.01591	1.38885	0	
1.4413	-1.75665	-1.05552	0	
1.4420	1.29944	-2.27771	0	
1.4427	5.58276	-1.36107	0	
1.4433	8.92761	-1.66661	0	
1.4440	12.8981	-3.80544	0	
1.4447	15.0398	-5.02762	0	
1.4453	12.5853	-4.41653	0	
1.4460	11.0693	-1.97216	0	
1.4467	13.2109	0.472208	0	
1.4473	13.2109	-1.05552	0	
1.4480	11.9837	-2.27771	0	
1.4487	12.8981	-0.444431	0	
1.4493	12.2965	0.472208	0	
1.4500	11.3821	-1.36107	0	
1.4507	12.8981	-1.05552	0	
1.4513	7.4116	0.777754	0	
1.4520	-4.81273	1.0833	0	
1.4527	-12.4409	-0.749977	0	
1.4533	-11.2137	-2.27771	0	
1.4540	-10.588	-1.66661	0	
1.4547	-13.9569	0.472208	0	
1.4553	-17.013	1.69439	0	
1.4560	-17.3258	1.99994	0	
1.4567	-18.2402	1.69439	0	
1.4573	-20.6707	2.30548	0	
1.4580	-19.4434	3.52767	0	
1.4587	-12.1281	1.38885	0	
1.4593	-2.67106	-2.58325	0	
1.4600	3.75393	-3.19435	0	
1.4607	4.04269	-0.444431	0	
1.4613	2.21385	0.166661	0	
1.4620	5.87153	-0.444431	0	
1.4627	12.5853	0.166661	0	
1.4633	13.8125	0.472208	0	
1.4640	11.9837	1.0833	0	
1.4647	11.6709	1.69439	0	
1.4653	11.0693	0.472208	0	
1.4660	10.1549	-0.138885	0	
1.4667	10.7564	1.0833	0	
1.4673	11.6709	-0.138885	0	
1.4680	10.7564	-1.66661	0	
1.4687	8.32602	-1.97216	0	
1.4693	5.58276	-3.80544	0	
1.4700	2.83951	-4.41653	0	
1.4707	0.0721909	-1.36107	0	
1.4713	-2.35824	-0.138885	0	
1.4720	-3.58548	-1.36107	0	
1.4727	-4.18707	0.472208	0	
1.4733	-4.4999	0.166661	0	
1.4740	-6.93033	-3.19435	0	
1.4747	-12.1281	-1.36107	0	
1.4753	-15.4729	1.69439	0	
1.4760	-14.2697	0.166661	0	
1.4767	-13.0425	0.472208	0	
1.4773	-14.5585	4.44431	0	
1.4780	-15.1842	3.52767	0	
1.4787	-13.9569	-0.749977	0	
1.4793	-11.8152	-1.97216	0	
1.4800	-10.9008	-0.138885	0	
1.4807	-8.15757	0.472208	0	
1.4813	-2.67106	0.166661	0	
1.4820	2.21385	2.61103	0	
1.4827	3.75393	5.36094	0	
1.4833	7.4116	3.83321	0	
1.4840	10.7564	1.38885	0	
1.4847	7.70036	1.99994	0	
1.4853	4.35552	1.69439	0	
1.4860	6.49718	-0.749977	0	
1.4867	7.70036	-1.97216	0	
1.4873	7.4116	-1.36107	0	
1.4880	4.95711	-1.66661	0	
1.4887	-1.44382	-2.27771	0	
1.4893	-6.32874	-1.36107	0	
1.4900	-6.01591	0.166661	0	
1.4907	-9.07199	-0.138885	0	
1.4913	-13.6441	-2.27771	0	
1.4920	-11.2137	-3.49989	0	
1.4927	-10.588	-4.11098	0	
1.4933	-14.5585	-2.27771	0	
1.4940	-15.4729	-0.138885	0	
1.4947	-15.1842	-1.97216	0	
1.4953	-16.3873	-2.8888	0	
1.4960	-13.6441	-0.444431	0	
1.4967	-8.4704	-0.444431	0	
1.4973	-6.32874	-3.19435	0	
1.4980	-7.24315	-1.36107	0	
1.4987	-9.98641	0.166661	0	
1.4993	-11.8152	-1.36107	0	
1.5000	-8.4704	-1.97216	0	
1.5007	-2.67106	-1.36107	0	
1.5013	2.83951	-0.444431	0	
1.5020	11.0693	1.69439	0	
1.5027	18.0959	2.91658	0	
1.5033	17.4702	1.69439	0	
1.5040	14.1254	1.38885	0	
1.5047	12.8981	2.30548	0	
1.5053	14.7269	1.99994	0	
1.5060	18.3846	0.777754	0	
1.5067	18.3846	0.166661	0	
1.5073	14.4141	0.166661	0	
1.5080	14.4141	-0.444431	0	
1.5087	16.5558	-0.444431	0	
1.5093	15.0398	0.472208	0	
1.5100	12.8981	0.777754	0	
1.5107	11.9837	-0.138885	0	
1.5113	4.66834	0.472208	0	
1.5120	-5.72714	0.472208	0	
1.5127	-7.24315	-1.36107	0	
1.5133	-5.72714	0.472208	0	
1.5140	-12.1281	2.91658	0	
1.5147	-18.8418	0.472208	0	
1.5153	-17.013	-1.36107	0	
1.5160	-15.1842	0.472208	0	
1.5167	-15.7857	0.166661	0	
1.5173	-12.7297	-2.8888	0	
1.5180	-9.07199	-2.58325	0	
1.5187	-5.72714	-1.05552	0	
1.5193	-1.75665	-1.36107	0	
1.5200	-0.842227	-0.444431	0	
1.5207	0.0721909	1.38885	0	
1.5213	5.58276	-1.05552	0	
1.5220	11.9837	-1.66661	0	
1.5227	14.4141	1.38885	0	
1.5233	17.4702	0.472208	0	
1.5240	20.2135	-2.58325	0	
1.5247	20.2135	-1.66661	0	
1.5253	19.299	-1.97216	0	
1.5260	19.299	-4.11098	0	
1.5267	19.9247	-3.49989	0	
1.5273	21.1279	-2.58325	0	
1.5280	18.3846	-2.8888	0	
1.5287	6.18435	-1.97216	0	
1.5293	-12.4409	-0.444431	0	
1.5300	-22.8123	1.99994	0	
1.5307	-16.7002	4.74985	0	
1.5313	-7.84474	2.30548	0	
1.5320	-10.9008	-0.749977	0	
1.5327	-15.4729	1.38885	0	
1.5333	-9.38482	2.30548	0	
1.5340	-2.67106	-0.444431	0	
1.5347	-6.64156	0.166661	0	
1.5353	-13.3553	2.30548	0	
1.5360	-12.7297	2.61103	0	
1.5367	-9.07199	2.91658	0	
1.5373	-10.2992	3.83321	0	
1.5380	-10.588	2.91658	0	
1.5387	-5.41432	2.30548	0	
1.5393	-2.35824	1.99994	0	
1.5400	-4.81273	0.777754	0	
1.5407	-3.27265	0.472208	0	
1.5413	6.49718	0.166661	0	
1.5420	13.2109	-0.138885	0	
1.5427	11.0693	-0.138885	0	
1.5433	8.01319	0.472208	0	
1.5440	7.4116	1.38885	0	
1.5447	8.32602	3.22212	0	
1.5453	9.84203	5.0554	0	
1.5460	10.1549	4.13876	0	
1.5467	9.55326	2.61103	0	
1.5473	10.7564	2.30548	0	
1.5480	11.0693	2.30548	0	
1.5487	7.09877	-0.444431	0	
1.5493	4.66834	-4.11098	0	
1.5500	7.09877	-3.49989	0	
1.5507	6.78594	-0.444431	0	
1.5513	0.697845	-0.138885	0	
1.5520	-4.4999	-0.444431	0	
1.5527	-4.81273	0.166661	0	
1.5533	-4.4999	0.472208	0	
1.5540	-6.32874	0.777754	0	
1.5547	-7.55598	-0.138885	0	
1.5553	-10.2992	-1.97216	0	
1.5560	-12.7297	-0.444431	0	
1.5567	-9.98641	2.30548	0	
1.5573	-5.72714	1.0833	0	
1.5580	-4.4999	-1.36107	0	
1.5587	-2.67106	-0.444431	0	
1.5593	0.986609	1.0833	0	
1.5600	2.52668	0.472208	0	
1.5607	2.83951	-0.749977	0	
1.5613	7.4116	-0.749977	0	
1.5620	12.8981	-0.749977	0	
1.5627	13.8125	-3.19435	0	
1.5633	8.01319	-5.63871	0	
1.5640	-0.5294	-3.80544	0	
1.5647	-0.5294	-1.05552	0	
1.5653	9.24043	-2.27771	0	
1.5660	15.6414	-4.11098	0	
1.5667	12.8981	-3.49989	0	
1.5673	9.55326	-3.19435	0	
1.5680	8.92761	-2.58325	0	
1.5687	7.4116	-1.66661	0	
1.5693	4.95711	-1.66661	0	
1.5700	2.52668	-1.05552	0	
1.5707	0.0721909	0.472208	0	
1.5713	-2.95983	1.38885	0	
1.5720	-5.10149	1.38885	0	
1.5727	-5.72714	0.472208	0	
1.5733	-9.07199	-0.138885	0	
1.5740	-14.2697	0.777754	0	
1.5747	-15.1842	0.472208	0	
1.5753	-13.9569	-0.444431	0	
1.5760	-14.8713	-0.444431	0	
1.5767	-13.9569	-0.444431	0	
1.5773	-9.98641	0.166661	0	
1.5780	-5.72714	0.472208	0	
1.5787	-0.842227	-1.36107	0	
1.5793	2.21385	-1.97216	0	
1.5800	0.986609	-1.36107	0	
1.5807	2.21385	-2.58325	0	
1.5813	8.01319	-3.19435	0	
1.5820	11.9837	-2.58325	0	
1.5827	11.9837	-2.8888	0	
1.5833	11.9837	-3.19435	0	
1.5840	15.3285	-3.19435	0	
1.5847	24.4968	-2.58325	0	
1.5853	30.8977	-4.11098	0	
1.5860	26.0128	-5.33317	0	
1.5867	19.299	-3.19435	0	
1.5873	21.1279	0.472208	0	
1.5880	21.7535	-0.138885	0	
1.5887	16.5558	-1.66661	0	
1.5893	13.8125	-0.138885	0	
1.5900	10.7564	0.472208	0	
1.5907	0.986609	-1.36107	0	
1.5913	-6.93033	-0.444431	0	
1.5920	-10.588	1.0833	0	
1.5927	-19.4434	0.472208	0	
1.5933	-34.0982	1.38885	0	
1.5940	-42.6408	2.30548	0	
1.5947	-41.7263	0.472208	0	
1.5953	-38.3815	-0.138885	0	
1.5960	-34.411	1.69439	0	
1.5967	-30.4405	0.777754	0	
1.5973	-29.5261	-1.36107	0	
1.5980	-28.9004	1.38885	0	
1.5987	-23.7267	5.0554	0	
1.5993	-17.9274	3.52767	0	
1.6000	-16.0986	3.83321	0	
1.6007	-14.5585	8.41641	0	
1.6013	-10.9008	8.41641	0	
1.6020	-6.32874	5.0554	0	
1.6027	0.0721909	5.0554	0	
1.6033	6.78594	5.66649	0	
1.6040	8.61478	2.30548	0	
1.6047	8.92761	-0.138885	0	
1.6053	11.6709	1.38885	0	
1.6060	13.2109	4.44431	0	
1.6067	12.8981	4.13876	0	
1.6073	13.2109	2.30548	0	
1.6080	12.5853	2.91658	0	
1.6087	10.1549	2.30548	0	
1.6093	6.78594	-1.36107	0	
1.6100	5.26994	-2.27771	0	
1.6107	5.26994	-0.749977	0	
1.6113	1.90103	-2.27771	0	
1.6120	-7.24315	-0.444431	0	
1.6127	-12.4409	3.22212	0	
1.6133	-10.2992	0.472208	0	
1.6140	-10.2992	-3.80544	0	
1.6147	-13.6441	-1.36107	0	
1.6153	-13.0425	0.777754	0	
1.6160	-10.588	-0.444431	0	
1.6167	-10.9008	-0.138885	0	
1.6173	-10.2992	0.472208	0	
1.6180	-7.55598	-1.36107	0	
1.6187	-6.93033	-2.58325	0	
1.6193	-9.07199	-1.97216	0	
1.6200	-10.588	-0.138885	0	
1.6207	-6.93033	0.777754	0	
1.6213	0.0721909	-1.66661	0	
1.6220	3.12827	-3.80544	0	
1.6227	0.986609	-3.19435	0	
1.6233	0.0721909	-1.36107	0	
1.6240	4.66834	-1.36107	0	
1.6247	9.84203	-1.36107	0	
1.6253	12.8981	-1.66661	0	
1.6260	18.0959	-2.27771	0	
1.6267	24.8096	-4.11098	0	
1.6273	25.724	-4.41653	0	
1.6280	18.3846	-2.58325	0	
1.6287	9.84203	-1.97216	0	
1.6293	8.32602	-3.80544	0	
1.6300	11.0693	-2.8888	0	
1.6307	9.24043	-0.444431	0	
1.6313	6.18435	-1.05552	0	
1.6320	5.26994	-2.27771	0	
1.6327	0.697845	-1.36107	0	
1.6333	-5.41432	-1.36107	0	
1.6340	-2.67106	-3.19435	0	
1.6347	2.83951	-2.27771	0	
1.6353	0.986609	0.166661	0	
1.6360	-5.10149	0.166661	0	
1.6367	-14.5585	-0.444431	0	
1.6373	-26.1572	0.777754	0	
1.6380	-28.2988	-0.444431	0	
1.6387	-18.8418	-1.66661	0	
1.6393	-10.9008	-0.138885	0	
1.6400	-7.84474	-1.05552	0	
1.6407	-4.81273	-3.19435	0	
1.6413	-0.842227	-0.444431	0	
1.6420	4.35552	1.38885	0	
1.6427	10.7564	0.166661	0	
1.6433	12.8981	1.0833	0	
1.6440	12.5853	0.472208	0	
1.6447	13.8125	-1.97216	0	
1.6453	15.0398	-0.138885	0	
1.6460	17.783	1.38885	0	
1.6467	22.0423	-2.27771	0	
1.6473	18.6974	-4.11098	0	
1.6480	8.61478	-2.8888	0	
1.6487	2.83951	-4.11098	0	
1.6493	1.90103	-3.80544	0	
1.6500	1.61226	-1.36107	0	
1.6507	1.29944	-2.27771	0	
1.6513	0.385018	-3.19435	0	
1.6520	-1.75665	-1.97216	0	
1.6527	-5.10149	-1.97216	0	
1.6533	-9.07199	-2.8888	0	
1.6540	-10.9008	-1.36107	0	
1.6547	-11.8152	0.777754	0	
1.6553	-16.7002	1.99994	0	
1.6560	-21.2723	1.38885	0	
1.6567	-19.4434	-0.444431	0	
1.6573	-16.3873	-0.444431	0	
1.6580	-13.9569	1.99994	0	
1.6587	-9.07199	1.38885	0	
1.6593	-6.32874	-2.8888	0	
1.6600	-7.84474	-3.80544	0	
1.6607	-6.64156	0.166661	0	
1.6613	-1.13099	1.38885	0	
1.6620	4.04269	-1.66661	0	
1.6627	6.78594	-3.49989	0	
1.6633	7.70036	-3.19435	0	
1.6640	10.1549	-3.80544	0	
1.6647	13.8125	-4.11098	0	
1.6653	14.7269	-3.49989	0	
1.6660	14.1254	-2.58325	0	
1.6667	13.2109	-2.27771	0	
1.6673	6.49718	-1.97216	0	
1.6680	-1.13099	-1.36107	0	
1.6687	0.986609	-0.749977	0	
1.6693	5.26994	-2.27771	0	
1.6700	1.61226	-3.49989	0	
1.6707	-2.95983	-1.36107	0	
1.6713	-0.5294	-0.749977	0	
1.6720	0.986609	-2.8888	0	
1.6727	-5.41432	-2.58325	0	
1.6733	-10.9008	-0.444431	0	
1.6740	-11.2137	-0.749977	0	
1.6747	-11.8152	-1.97216	0	
1.6753	-14.2697	-1.36107	0	
1.6760	-15.7857	0.166661	0	
1.6767	-13.3553	0.777754	0	
1.6773	-9.38482	-0.444431	0	
1.6780	-6.64156	-1.66661	0	
1.6787	-6.32874	-0.138885	0	
1.6793	-7.55598	2.30548	0	
1.6800	-9.07199	3.83321	0	
1.6807	-7.84474	4.44431	0	
1.6813	-4.4999	1.99994	0	
1.6820	0.986609	0.166661	0	
1.6827	5.26994	2.30548	0	
1.6833	7.4116	3.22212	0	
1.6840	9.24043	2.30548	0	
1.6847	15.0398	2.30548	0	
1.6853	21.1279	-0.138885	0	
1.6860	19.9247	-2.27771	0	
1.6867	15.6414	0.472208	0	
1.6873	16.5558	0.472208	0	
1.6880	19.6119	-3.80544	0	
1.6887	19.6119	-3.19435	0	
1.6893	18.3846	-0.138885	0	
1.6900	17.1814	-0.444431	0	
1.6907	13.4997	0.472208	0	
1.6913	8.32602	1.0833	0	
1.6920	3.75393	-1.66661	0	
1.6927	-1.13099	-1.36107	0	
1.6933	-7.24315	1.38885	0	
1.6940	-10.9008	0.166661	0	
1.6947	-9.38482	-1.05552	0	
1.6953	-7.84474	0.472208	0	
1.6960	-9.98641	0.472208	0	
1.6967	-13.6441	-0.444431	0	
1.6973	-13.6441	1.0833	0	
1.6980	-9.38482	3.52767	0	
1.6987	-3.87424	3.83321	0	
1.6993	0.0721909	1.99994	0	
1.7000	0.986609	1.38885	0	
1.7007	0.0721909	2.30548	0	
1.7013	-1.44382	1.0833	0	
1.7020	-1.13099	-0.749977	0	
1.7027	0.0721909	-1.66661	0	
1.7033	0.0721909	-3.80544	0	
1.7040	-0.5294	-5.02762	0	
1.7047	1.61226	-4.11098	0	
1.7053	3.75393	-4.11098	0	
1.7060	-1.13099	-5.94426	0	
1.7067	-13.0425	-3.19435	0	
1.7073	-18.2402	2.91658	0	
1.7080	-9.07199	2.61103	0	
1.7087	6.49718	-2.27771	0	
1.7093	20.2135	-2.58325	0	
1.7100	26.6384	1.0833	0	
1.7107	20.2135	2.30548	0	
1.7113	7.4116	3.22212	0	
1.7120	2.21385	2.61103	0	
1.7127	4.04269	-2.27771	0	
1.7133	1.90103	-3.80544	0	
1.7140	-4.18707	1.99994	0	
1.7147	-10.588	4.13876	0	
1.7153	-14.2697	1.38885	0	
1.7160	-16.0986	3.52767	0	
1.7167	-17.3258	6.88868	0	
1.7173	-17.013	3.22212	0	
1.7180	-13.9569	-0.749977	0	
1.7187	-11.8152	0.472208	0	
1.7193	-9.07199	2.30548	0	
1.7200	-4.4999	1.38885	0	
1.7207	0.0721909	-0.444431	0	
1.7213	5.87153	-0.749977	0	
1.7220	12.2965	-0.444431	0	
1.7227	12.8981	-0.444431	0	
1.7233	11.0693	-1.05552	0	
1.7240	11.0693	-0.444431	0	
1.7247	10.7564	2.30548	0	
1.7253	12.5853	2.30548	0	
1.7260	15.0398	-0.138885	0	
1.7267	13.4997	1.38885	0	
1.7273	11.6709	3.22212	0	
1.7280	11.3821	0.777754	0	
1.7287	7.09877	-2.27771	0	
1.7293	4.04269	-1.05552	0	
1.7300	6.78594	-0.138885	0	
1.7307	7.70036	-2.8888	0	
1.7313	2.21385	-4.11098	0	
1.7320	-10.588	-1.36107	0	
1.7327	-27.3844	-1.05552	0	
1.7333	-33.1837	-3.80544	0	
1.7340	-24.6412	-1.97216	0	
1.7347	-17.3258	1.38885	0	
1.7353	-17.6146	-1.05552	0	
1.7360	-17.3258	-4.11098	0	
1.7367	-15.4729	-2.8888	0	
1.7373	-13.3553	-2.27771	0	
1.7380	-11.2137	-2.27771	0	
1.7387	-9.67358	-0.444431	0	
1.7393	-8.15757	-1.36107	0	
1.7400	-5.72714	-2.27771	0	
1.7407	-3.58548	0.166661	0	
1.7413	-0.5294	1.0833	0	
1.7420	5.87153	0.166661	0	
1.7427	14.4141	0.777754	0	
1.7433	18.3846	-0.444431	0	
1.7440	16.5558	-3.19435	0	
1.7447	15.9542	-1.36107	0	
1.7453	16.5558	1.69439	0	
1.7460	14.1254	0.777754	0	
1.7467	11.0693	0.472208	0	
1.7473	11.6709	1.69439	0	
1.7480	11.0693	0.166661	0	
1.7487	9.84203	-0.444431	0	
1.7493	10.4677	1.38885	0	
1.7500	9.24043	-0.138885	0	
1.7507	4.04269	-3.19435	0	
1.7513	1.29944	-3.19435	0	
1.7520	0.0721909	-4.11098	0	
1.7527	-4.18707	-5.94426	0	
1.7533	-8.15757	-3.19435	0	
1.7540	-9.38482	-1.05552	0	
1.7547	-10.588	-3.19435	0	
1.7553	-10.9008	-2.8888	0	
1.7560	-10.588	0.166661	0	
1.7567	-13.6441	0.472208	0	
1.7573	-15.7857	-0.138885	0	
1.7580	-13.0425	-0.749977	0	
1.7587	-10.2992	-1.05552	0	
1.7593	-10.2992	1.69439	0	
1.7600	-7.55598	3.52767	0	
1.7607	-3.58548	0.472208	0	
1.7613	-1.75665	-1.97216	0	
1.7620	0.697845	1.38885	0	
1.7627	3.4411	2.91658	0	
1.7633	6.18435	-1.05552	0	
1.7640	12.2965	-2.27771	0	
1.7647	20.2135	0.472208	0	
1.7653	23.8952	-0.138885	0	
1.7660	23.8952	-3.49989	0	
1.7667	24.8096	-1.36107	0	
1.7673	25.724	2.30548	0	
1.7680	23.8952	1.0833	0	
1.7687	23.8952	0.472208	0	
1.7693	24.184	1.38885	0	
1.7700	18.6974	-1.05552	0	
1.7707	9.24043	-2.27771	0	
1.7713	-1.44382	0.777754	0	
1.7720	-17.3258	1.38885	0	
1.7727	-32.5822	-1.05552	0	
1.7733	-35.6142	-2.27771	0	
1.7740	-27.3844	-1.36107	0	
1.7747	-19.1547	0.166661	0	
1.7753	-16.7002	0.166661	0	
1.7760	-19.1547	-0.749977	0	
1.7767	-20.9835	0.166661	0	
1.7773	-17.6146	1.69439	0	
1.7780	-14.5585	1.38885	0	
1.7787	-16.0986	1.38885	0	
1.7793	-15.4729	1.38885	0	
1.7800	-9.07199	-1.05552	0	
1.7807	-3.87424	-3.19435	0	
1.7813	-3.87424	-2.58325	0	
1.7820	-3.27265	-1.36107	0	
1.7827	0.986609	-0.749977	0	
1.7833	5.58276	-2.27771	0	
1.7840	10.7564	-4.41653	0	
1.7847	13.4997	-3.49989	0	
1.7853	13.8125	-0.444431	0	
1.7860	17.4702	-0.138885	0	
1.7867	22.6679	-2.27771	0	
1.7873	20.8391	-1.97216	0	
1.7880	16.8686	-0.444431	0	
1.7887	17.1814	-1.05552	0	
1.7893	11.9837	-1.97216	0	
1.7900	0.986609	-0.444431	0	
1.7907	-2.95983	-0.444431	0	
1.7913	-0.216573	-1.36107	0	
1.7920	-1.44382	-0.138885	0	
1.7927	-6.01591	0.472208	0	
1.7933	-9.98641	-1.36107	0	
1.7940	-13.0425	-0.749977	0	
1.7947	-14.2697	1.38885	0	
1.7953	-14.2697	-0.749977	0	
1.7960	-14.8713	-2.27771	0	
1.7967	-14.5585	2.30548	0	
1.7973	-8.4704	5.36094	0	
1.7980	1.90103	1.69439	0	
1.7987	3.75393	-0.444431	0	
1.7993	-5.41432	1.38885	0	
1.8000	-9.98641	1.69439	0	
1.8007	-4.18707	2.30548	0	
1.8013	0.986609	4.74985	0	
1.8020	2.21385	2.30548	0	
1.8027	3.75393	-1.05552	0	
1.8033	4.66834	0.472208	0	
1.8040	7.4116	1.69439	0	
1.8047	9.84203	0.166661	0	
1.8053	8.61478	-0.444431	0	
1.8060	8.32602	-0.138885	0	
1.8067	7.4116	0.166661	0	
1.8073	4.35552	0.472208	0	
1.8080	4.35552	0.472208	0	
1.8087	0.986609	1.0833	0	
1.8093	-9.07199	2.30548	0	
1.8100	-9.38482	0.472208	0	
1.8107	-1.13099	-2.27771	0	
1.8113	-1.75665	-1.97216	0	
1.8120	-2.95983	-1.36107	0	
1.8127	2.83951	-2.58325	0	
1.8133	3.4411	-4.11098	0	
1.8140	-2.35824	-4.72208	0	
1.8147	-3.87424	-4.72208	0	
1.8153	-5.72714	-2.27771	0	
1.8160	-10.9008	1.0833	0	
1.8167	-13.6441	0.777754	0	
1.8173	-12.7297	-0.749977	0	
1.8180	-8.75916	-1.66661	0	
1.8187	-4.81273	-3.19435	0	
1.8193	-3.58548	-3.80544	0	
1.8200	-0.842227	-1.36107	0	
1.8207	4.66834	0.472208	0	
1.8213	5.87153	-1.05552	0	
1.8220	6.49718	-2.8888	0	
1.8227	11.0693	-2.27771	0	
1.8233	14.1254	-1.36107	0	
1.8240	13.4997	-1.97216	0	
1.8247	15.0398	-2.8888	0	
1.8253	16.8686	-2.27771	0	
1.8260	14.7269	0.472208	0	
1.8267	10.4677	0.472208	0	
1.8273	8.01319	-1.36107	0	
1.8280	9.24043	-0.138885	0	
1.8287	10.1549	0.777754	0	
1.8293	5.26994	-1.36107	0	
1.8300	-1.13099	-1.66661	0	
1.8307	-3.27265	-0.444431	0	
1.8313	-4.18707	-1.36107	0	
1.8320	-5.72714	-2.27771	0	
1.8327	-7.24315	-1.36107	0	
1.8333	-11.8152	-0.749977	0	
1.8340	-13.9569	-1.36107	0	
1.8347	-10.9008	-2.58325	0	
1.8353	-11.8152	-2.27771	0	
1.8360	-16.3873	-0.444431	0	
1.8367	-13.3553	-0.444431	0	
1.8373	-9.98641	-2.27771	0	
1.8380	-13.0425	-1.36107	0	
1.8387	-12.1281	1.69439	0	
1.8393	-6.93033	3.22212	0	
1.8400	-6.01591	3.52767	0	
1.8407	-4.4999	5.0554	0	
1.8413	0.986609	3.52767	0	
1.8420	4.66834	0.472208	0	
1.8427	4.04269	1.38885	0	
1.8433	4.35552	5.0554	0	
1.8440	9.24043	5.66649	0	
1.8447	16.5558	4.13876	0	
1.8453	21.1279	4.13876	0	
1.8460	21.7535	4.13876	0	
1.8467	21.1279	2.91658	0	
1.8473	21.1279	1.99994	0	
1.8480	22.0423	1.69439	0	
1.8487	18.0959	1.69439	0	
1.8493	12.8981	2.30548	0	
1.8500	13.8125	1.69439	0	
1.8507	12.8981	-0.749977	0	
1.8513	3.75393	-2.27771	0	
1.8520	-6.64156	-0.749977	0	
1.8527	-21.8979	1.38885	0	
1.8533	-43.868	1.38885	0	
1.8540	-52.0978	0.166661	0	
1.8547	-41.1247	0.472208	0	
1.8553	-27.986	0.777754	0	
1.8560	-15.4729	-0.444431	0	
1.8567	-5.41432	0.777754	0	
1.8573	-11.5265	5.0554	0	
1.8580	-23.1011	4.13876	0	
1.8587	-20.3578	0.777754	0	
1.8593	-11.8152	0.777754	0	
1.8600	-9.98641	-0.138885	0	
1.8607	-7.84474	-1.36107	0	
1.8613	-4.4999	0.777754	0	
1.8620	-3.87424	0.777754	0	
1.8627	-0.842227	-1.36107	0	
1.8633	4.95711	0.166661	0	
1.8640	6.49718	1.99994	0	
1.8647	3.12827	1.38885	0	
1.8653	3.75393	1.0833	0	
1.8660	11.0693	-0.444431	0	
1.8667	18.3846	-0.749977	0	
1.8673	18.3846	2.61103	0	
1.8680	15.0398	2.61103	0	
1.8687	17.1814	-2.27771	0	
1.8693	17.4702	-3.19435	0	
1.8700	9.55326	-0.444431	0	
1.8707	3.75393	0.166661	0	
1.8713	2.83951	1.38885	0	
1.8720	-1.75665	1.38885	0	
1.8727	-6.64156	-2.27771	0	
1.8733	-6.32874	-4.11098	0	
1.8740	-8.15757	-2.58325	0	
1.8747	-11.8152	-2.27771	0	
1.8753	-11.5265	-3.49989	0	
1.8760	-9.67358	-3.19435	0	
1.8767	-9.67358	-1.36107	0	
1.8773	-9.07199	-0.749977	0	
1.8780	-9.07199	-2.58325	0	
1.8787	-8.75916	-3.49989	0	
1.8793	-7.84474	-2.58325	0	
1.8800	-6.32874	-2.8888	0	
1.8807	-2.67106	-3.80544	0	
1.8813	4.04269	-1.97216	0	
1.8820	9.55326	-1.66661	0	
1.8827	13.2109	-4.41653	0	
1.8833	15.0398	-4.11098	0	
1.8840	11.0693	-1.66661	0	
1.8847	7.4116	-2.8888	0	
1.8853	12.2965	-3.49989	0	
1.8860	17.783	-0.749977	0	
1.8867	14.7269	-0.138885	0	
1.8873	11.9837	-2.27771	0	
1.8880	13.8125	-2.8888	0	
1.8887	11.0693	-3.19435	0	
1.8893	5.26994	-2.27771	0	
1.8900	5.87153	-1.36107	0	
1.8907	8.92761	-1.66661	0	
1.8913	8.92761	-1.66661	0	
1.8920	14.1254	-0.444431	0	
1.8927	21.1279	-0.138885	0	
1.8933	18.3846	0.777754	0	
1.8940	9.24043	4.13876	0	
1.8947	3.75393	4.44431	0	
1.8953	-1.13099	0.166661	0	
1.8960	-6.32874	-1.36107	0	
1.8967	-7.55598	0.777754	0	
1.8973	-4.4999	1.0833	0	
1.8980	-0.842227	-0.138885	0	
1.8987	-0.5294	-1.05552	0	
1.8993	-3.87424	-3.19435	0	
1.9000	-4.18707	-3.19435	0	
1.9007	2.83951	0.166661	0	
1.9013	10.4677	1.38885	0	
1.9020	12.5853	-1.97216	0	
1.9027	11.6709	-2.8888	0	
1.9033	11.0693	1.99994	0	
1.9040	10.7564	5.0554	0	
1.9047	11.0693	2.61103	0	
1.9053	13.8125	0.166661	0	
1.9060	15.9542	-0.138885	0	
1.9067	13.8125	0.166661	0	
1.9073	10.4677	-1.66661	0	
1.9080	11.0693	-2.8888	0	
1.9087	13.8125	-1.05552	0	
1.9093	13.8125	0.777754	0	
1.9100	7.70036	1.38885	0	
1.9107	1.29944	1.38885	0	
1.9113	1.61226	0.166661	0	
1.9120	5.26994	-1.05552	0	
1.9127	3.75393	0.472208	0	
1.9133	0.385018	0.777754	0	
1.9140	-1.44382	-0.138885	0	
1.9147	-6.64156	1.38885	0	
1.9153	-12.7297	2.30548	0	
1.9160	-10.9008	1.0833	0	
1.9167	-9.07199	2.30548	0	
1.9173	-16.7002	3.22212	0	
1.9180	-24.6412	0.777754	0	
1.9187	-27.0716	0.472208	0	
1.9193	-31.0421	3.52767	0	
1.9200	-32.8709	3.83321	0	
1.9207	-23.7267	1.38885	0	
1.9213	-11.5265	1.38885	0	
1.9220	-4.81273	2.30548	0	
1.9227	-0.5294	0.472208	0	
1.9233	1.61226	-1.05552	0	
1.9240	2.21385	-1.36107	0	
1.9247	5.58276	-0.444431	0	
1.9253	10.1549	1.0833	0	
1.9260	11.0693	1.38885	0	
1.9267	12.8981	-1.97216	0	
1.9273	15.6414	-4.41653	0	
1.9280	14.7269	-3.19435	0	
1.9287	12.5853	-1.36107	0	
1.9293	11.3821	-0.444431	0	
1.9300	8.61478	1.69439	0	
1.9307	5.58276	2.30548	0	
1.9313	4.66834	-0.138885	0	
1.9320	1.90103	-1.97216	0	
1.9327	-3.58548	-2.58325	0	
1.9333	-15.1842	-2.27771	0	
1.9340	-31.0421	-0.138885	0	
1.9347	-37.7558	0.166661	0	
1.9353	-29.2132	0.472208	0	
1.9360	-20.9835	4.13876	0	
1.9367	-18.8418	6.58313	0	
1.9373	-15.7857	3.83321	0	
1.9380	-13.6441	1.38885	0	
1.9387	-15.4729	2.91658	0	
1.9393	-14.8713	5.0554	0	
1.9400	-9.98641	4.13876	0	
1.9407	-3.58548	1.0833	0	
1.9413	0.986609	-0.749977	0	
1.9420	5.58276	-0.138885	0	
1.9427	11.0693	-0.444431	0	
1.9433	14.7269	-2.27771	0	
1.9440	14.7269	-1.05552	0	
1.9447	14.7269	0.472208	0	
1.9453	15.6414	-1.66661	0	
1.9460	17.4702	-1.05552	0	
1.9467	18.0959	2.30548	0	
1.9473	15.6414	-0.444431	0	
1.9480	11.6709	-4.72208	0	
1.9487	7.4116	-3.19435	0	
1.9493	1.90103	-0.444431	0	
1.9500	-0.216573	-0.444431	0	
1.9507	1.90103	-0.138885	0	
1.9513	2.83951	-1.05552	0	
1.9520	-1.75665	-1.97216	0	
1.9527	-10.588	-0.138885	0	
1.9533	-20.0691	1.0833	0	
1.9540	-24.6412	0.777754	0	
1.9547	-21.8979	0.777754	0	
1.9553	-18.2402	-0.444431	0	
1.9560	-15.1842	0.166661	0	
1.9567	-11.8152	3.22212	0	
1.9573	-12.4409	2.30548	0	
1.9580	-13.3553	-0.444431	0	
1.9587	-9.38482	0.472208	0	
1.9593	-6.32874	1.38885	0	
1.9600	-6.01591	0.472208	0	
1.9607	-3.27265	0.777754	0	
1.9613	0.0721909	0.472208	0	
1.9620	2.83951	0.166661	0	
1.9627	8.32602	2.30548	0	
1.9633	11.0693	1.0833	0	
1.9640	10.4677	-2.27771	0	
1.9647	10.1549	0.777754	0	
1.9653	10.7564	3.22212	0	
1.9660	12.8981	-0.749977	0	
1.9667	15.0398	-1.66661	0	
1.9673	14.7269	0.777754	0	
1.9680	15.6414	-1.66661	0	
1.9687	15.0398	-4.11098	0	
1.9693	8.01319	-1.97216	0	
1.9700	1.90103	0.166661	0	
1.9707	0.986609	0.166661	0	
1.9713	-2.95983	1.38885	0	
1.9720	-10.9008	1.99994	0	
1.9727	-14.2697	0.777754	0	
1.9733	-13.9569	1.99994	0	
1.9740	-13.3553	3.52767	0	
1.9747	-12.7297	3.22212	0	
1.9753	-14.5585	2.30548	0	
1.9760	-14.5585	1.99994	0	
1.9767	-10.9008	1.99994	0	
1.9773	-11.8152	2.61103	0	
1.9780	-14.5585	3.83321	0	
1.9787	-10.2992	3.22212	0	
1.9793	-6.32874	1.0833	0	
1.9800	-7.84474	1.69439	0	
1.9807	-5.41432	5.66649	0	
1.9813	1.29944	5.0554	0	
1.9820	5.26994	1.0833	0	
1.9827	8.32602	0.472208	0	
1.9833	12.5853	1.38885	0	
1.9840	12.2965	0.166661	0	
1.9847	9.24043	0.472208	0	
1.9853	11.0693	0.472208	0	
1.9860	15.3285	-2.8888	0	
1.9867	14.7269	-3.49989	0	
1.9873	12.8981	-2.27771	0	
1.9880	15.3285	-4.11098	0	
1.9887	15.9542	-2.58325	0	
1.9893	10.4677	3.22212	0	
1.9900	5.58276	2.30548	0	
1.9907	3.75393	-1.66661	0	
1.9913	0.0721909	0.777754	0	
1.9920	-5.41432	1.38885	0	
1.9927	-9.67358	-2.27771	0	
1.9933	-13.0425	-2.27771	0	
1.9940	-16.3873	-0.444431	0	
1.9947	-17.9274	-1.36107	0	
1.9953	-16.7002	-1.97216	0	
1.9960	-14.5585	-0.444431	0	
1.9967	-14.5585	0.472208	0	
1.9973	-13.6441	-0.138885	0	
1.9980	-11.2137	-2.58325	0	
1.9987	-9.67358	-4.41653	0	
1.9993	-7.24315	-4.11098	0	
2.0000	-4.81273	-3.80544	0	
2.0007	-6.32874	-4.11098	0	
2.0013	-5.10149	-4.11098	0	
2.0020	3.75393	-4.11098	0	
2.0027	9.55326	-5.02762	0	
2.0033	8.32602	-4.41653	0	
2.0040	9.24043	-2.27771	0	
2.0047	11.3821	-0.444431	0	
2.0053	9.55326	-2.27771	0	
2.0060	9.24043	-3.49989	0	
2.0067	11.9837	-1.36107	0	
2.0073	12.8981	-0.138885	0	
2.0080	9.55326	-2.27771	0	
2.0087	6.18435	-2.27771	0	
2.0093	4.95711	1.38885	0	
2.0100	5.58276	3.22212	0	
2.0107	3.75393	3.22212	0	
2.0113	-1.13099	2.30548	0	
2.0120	-2.04541	0.777754	0	
2.0127	0.986609	-1.05552	0	
2.0133	-1.75665	-2.27771	0	
2.0140	-10.9008	-3.80544	0	
2.0147	-14.5585	-2.27771	0	
2.0153	-12.4409	0.472208	0	
2.0160	-12.1281	0.166661	0	
2.0167	-12.7297	-1.05552	0	
2.0173	-11.2137	0.472208	0	
2.0180	-11.5265	1.38885	0	
2.0187	-11.8152	-1.36107	0	
2.0193	-6.32874	-3.19435	0	
2.0200	0.0721909	-2.8888	0	
2.0207	0.0721909	-2.27771	0	
2.0213	-0.842227	-1.05552	0	
2.0220	2.83951	0.472208	0	
2.0227	5.26994	-0.138885	0	
2.0233	6.18435	-0.749977	0	
2.0240	10.7564	-1.66661	0	
2.0247	15.0398	-3.80544	0	
2.0253	16.267	-3.80544	0	
2.0260	16.5558	-0.444431	0	
2.0267	13.4997	1.38885	0	
2.0273	7.4116	-1.36107	0	
2.0280	6.49718	-3.49989	0	
2.0287	8.32602	-2.27771	0	
2.0293	4.04269	-0.444431	0	
2.0300	-1.75665	-1.36107	0	
2.0307	-2.95983	-2.27771	0	
2.0313	-3.27265	-1.66661	0	
2.0320	-5.72714	-1.36107	0	
2.0327	-8.15757	-1.05552	0	
2.0333	-8.15757	0.472208	0	
2.0340	-8.15757	1.38885	0	
2.0347	-10.588	1.0833	0	
2.0353	-13.9569	0.472208	0	
2.0360	-15.1842	-0.444431	0	
2.0367	-14.2697	-0.138885	0	
2.0373	-12.4409	0.777754	0	
2.0380	-11.5265	1.0833	0	
2.0387	-7.24315	2.30548	0	
2.0393	0.697845	3.22212	0	
2.0400	3.12827	0.472208	0	
2.0407	0.0721909	-2.27771	0	
2.0413	1.61226	-0.444431	0	
2.0420	8.61478	1.99994	0	
2.0427	11.9837	1.0833	0	
2.0433	11.9837	-0.444431	0	
2.0440	11.9837	-0.138885	0	
2.0447	14.1254	-0.444431	0	
2.0453	14.7269	-1.36107	0	
2.0460	10.1549	-0.749977	0	
2.0467	4.66834	-0.138885	0	
2.0473	2.83951	-1.36107	0	
2.0480	1.90103	-0.444431	0	
2.0487	3.75393	2.91658	0	
2.0493	9.84203	2.30548	0	
2.0500	12.2965	-1.36107	0	
2.0507	7.4116	-1.36107	0	
2.0513	0.0721909	1.69439	0	
2.0520	-3.87424	2.61103	0	
2.0527	-2.35824	0.472208	0	
2.0533	-4.81273	1.0833	0	
2.0540	-12.7297	4.44431	0	
2.0547	-11.8152	4.74985	0	
2.0553	-8.4704	1.69439	0	
2.0560	-17.9274	1.38885	0	
2.0567	-24.3283	1.69439	0	
2.0573	-19.1547	-0.749977	0	
2.0580	-29.5261	-1.05552	0	
2.0587	-51.809	2.30548	0	
2.0593	-52.0978	0.777754	0	
2.0600	-32.8709	-3.19435	0	
2.0607	-18.2402	-2.27771	0	
2.0613	-9.98641	0.472208	0	
2.0620	-2.95983	-1.36107	0	
2.0627	0.986609	-2.27771	0	
2.0633	7.70036	-0.444431	0	
2.0640	15.6414	-1.66661	0	
2.0647	16.5558	-4.11098	0	
2.0653	16.5558	-1.66661	0	
2.0660	15.6414	0.777754	0	
2.0667	5.58276	-0.444431	0	
2.0673	-3.87424	-1.97216	0	
2.0680	-0.216573	-3.19435	0	
2.0687	2.83951	-4.11098	0	
2.0693	-1.44382	-2.27771	0	
2.0700	-2.04541	-0.749977	0	
2.0707	0.0721909	-2.27771	0	
2.0713	-2.67106	-1.36107	0	
2.0720	-5.72714	1.0833	0	
2.0727	-9.67358	0.166661	0	
2.0733	-14.2697	-1.05552	0	
2.0740	-12.7297	-0.138885	0	
2.0747	-10.588	0.472208	0	
2.0753	-12.7297	1.38885	0	
2.0760	-10.9008	1.38885	0	
2.0767	-8.75916	-0.749977	0	
2.0773	-10.588	-1.66661	0	
2.0780	-7.55598	0.777754	0	
2.0787	-1.13099	2.30548	0	
2.0793	1.61226	1.38885	0	
2.0800	6.18435	1.38885	0	
2.0807	11.9837	1.38885	0	
2.0813	16.5558	-0.444431	0	
2.0820	22.6679	-1.97216	0	
2.0827	25.724	-1.05552	0	
2.0833	25.4112	0.472208	0	
2.0840	31.2105	-0.444431	0	
2.0847	33.9538	-1.36107	0	
2.0853	25.0984	-0.138885	0	
2.0860	21.7535	1.69439	0	
2.0867	27.8416	0.777754	0	
2.0873	25.724	-1.05552	0	
2.0880	17.4702	-1.97216	0	
2.0887	16.8686	-0.444431	0	
2.0893	19.299	-0.444431	0	
2.0900	18.3846	-3.19435	0	
2.0907	15.3285	-3.19435	0	
2.0913	9.84203	1.38885	0	
2.0920	4.04269	1.99994	0	
2.0927	0.697845	-1.36107	0	
2.0933	-3.27265	-0.444431	0	
2.0940	-6.32874	0.777754	0	
2.0947	-7.24315	-1.66661	0	
2.0953	-7.84474	-0.444431	0	
2.0960	-9.67358	2.61103	0	
2.0967	-9.07199	1.0833	0	
2.0973	-7.24315	1.38885	0	
2.0980	-8.15757	3.83321	0	
2.0987	-7.24315	1.99994	0	
2.0993	-4.4999	0.777754	0	
2.1000	-2.67106	4.13876	0	
2.1007	1.90103	2.30548	0	
2.1013	8.32602	-2.8888	0	
2.1020	10.1549	-1.36107	0	
2.1027	10.7564	1.0833	0	
2.1033	11.9837	-1.36107	0	
2.1040	10.7564	-2.27771	0	
2.1047	9.24043	-1.05552	0	
2.1053	11.9837	-2.58325	0	
2.1060	15.0398	-4.11098	0	
2.1067	18.3846	-5.02762	0	
2.1073	20.2135	-6.52758	0	
2.1080	13.8125	-6.83312	0	
2.1087	4.66834	-5.02762	0	
2.1093	3.4411	-3.19435	0	
2.1100	4.35552	-1.66661	0	
2.1107	0.0721909	0.166661	0	
2.1113	-6.32874	0.472208	0	
2.1120	-12.1281	-0.138885	0	
2.1127	-17.3258	1.69439	0	
2.1133	-18.2402	3.83321	0	
2.1140	-13.6441	2.30548	0	
2.1147	-9.98641	1.38885	0	
2.1153	-10.9008	1.99994	0	
2.1160	-13.6441	-0.444431	0	
2.1167	-13.3553	-1.66661	0	
2.1173	-13.6441	1.99994	0	
2.1180	-16.3873	1.38885	0	
2.1187	-16.3873	-0.444431	0	
2.1193	-11.5265	4.13876	0	
2.1200	-7.55598	6.27758	0	
2.1207	-5.72714	1.38885	0	
2.1213	-2.67106	0.472208	0	
2.1220	1.29944	1.69439	0	
2.1227	5.58276	0.472208	0	
2.1233	10.7564	0.472208	0	
2.1240	13.2109	1.38885	0	
2.1247	10.1549	0.166661	0	
2.1253	7.4116	-0.138885	0	
2.1260	10.4677	1.0833	0	
2.1267	15.3285	1.38885	0	
2.1273	16.5558	2.30548	0	
2.1280	14.4141	1.0833	0	
2.1287	9.84203	-2.58325	0	
2.1293	6.78594	-2.27771	0	
2.1300	5.87153	0.472208	0	
2.1307	0.986609	0.472208	0	
2.1313	-6.32874	-1.36107	0	
2.1320	-8.4704	-1.66661	0	
2.1327	-6.93033	-1.66661	0	
2.1333	-5.72714	-0.749977	0	
2.1340	-3.58548	-0.138885	0	
2.1347	-2.67106	-1.66661	0	
2.1353	-6.32874	-1.36107	0	
2.1360	-12.1281	2.30548	0	
2.1367	-13.6441	1.38885	0	
2.1373	-10.9008	-2.27771	0	
2.1380	-9.38482	0.166661	0	
2.1387	-8.4704	1.69439	0	
2.1393	-1.13099	-3.19435	0	
2.1400	8.01319	-3.49989	0	
2.1407	11.6709	1.38885	0	
2.1413	14.1254	-1.36107	0	
2.1420	19.0103	-5.02762	0	
2.1427	21.1279	-1.97216	0	
2.1433	19.9247	-0.444431	0	
2.1440	18.0959	-2.8888	0	
2.1447	13.8125	-1.05552	0	
2.1453	8.01319	2.30548	0	
2.1460	6.49718	1.0833	0	
2.1467	9.24043	-0.444431	0	
2.1473	8.01319	-0.138885	0	
2.1480	-2.67106	0.777754	0	
2.1487	-13.3553	0.166661	0	
2.1493	-12.4409	-2.27771	0	
2.1500	-7.24315	-1.66661	0	
2.1507	-9.07199	2.30548	0	
2.1513	-12.7297	3.52767	0	
2.1520	-13.6441	1.38885	0	
2.1527	-15.4729	1.69439	0	
2.1533	-15.1842	3.22212	0	
2.1540	-9.98641	2.30548	0	
2.1547	-6.64156	0.472208	0	
2.1553	-7.55598	-0.749977	0	
2.1560	-9.67358	-1.05552	0	
2.1567	-11.8152	0.166661	0	
2.1573	-11.8152	-1.05552	0	
2.1580	-7.84474	-2.8888	0	
2.1587	-4.18707	-1.97216	0	
2.1593	-4.18707	-0.444431	0	
2.1600	-6.32874	-1.36107	0	
2.1607	-6.32874	-2.27771	0	
2.1613	-0.842227	-1.66661	0	
2.1620	1.90103	-1.36107	0	
2.1627	-6.01591	-1.05552	0	
2.1633	-10.588	-1.36107	0	
2.1640	0.0721909	-2.27771	0	
2.1647	9.24043	-2.8888	0	
2.1653	8.32602	-3.49989	0	
2.1660	7.4116	-3.19435	0	
2.1667	8.32602	-0.444431	0	
2.1673	5.87153	1.38885	0	
2.1680	2.83951	-1.05552	0	
2.1687	0.986609	-2.27771	0	
2.1693	-2.04541	0.472208	0	
2.1700	-5.41432	0.472208	0	
2.1707	-7.24315	-1.36107	0	
2.1713	-10.2992	-0.749977	0	
2.1720	-14.5585	-0.444431	0	
2.1727	-16.3873	-1.36107	0	
2.1733	-16.7002	-0.444431	0	
2.1740	-17.3258	0.166661	0	
2.1747	-15.1842	-1.05552	0	
2.1753	-10.9008	-1.36107	0	
2.1760	-10.9008	-3.19435	0	
2.1767	-12.7297	-4.11098	0	
2.1773	-10.588	-0.749977	0	
2.1780	-9.67358	1.0833	0	
2.1787	-13.6441	-0.138885	0	
2.1793	-13.9569	1.38885	0	
2.1800	-5.41432	1.99994	0	
2.1807	4.66834	0.472208	0	
2.1813	4.95711	2.91658	0	
2.1820	0.986609	5.0554	0	
2.1827	2.83951	1.0833	0	
2.1833	8.61478	-0.444431	0	
2.1840	11.6709	2.61103	0	
2.1847	12.2965	2.30548	0	
2.1853	13.2109	-0.138885	0	
2.1860	12.5853	-0.138885	0	
2.1867	10.1549	-0.749977	0	
2.1873	9.55326	-3.49989	0	
2.1880	11.3821	-4.41653	0	
2.1887	9.55326	-2.27771	0	
2.1893	5.87153	0.472208	0	
2.1900	7.4116	0.472208	0	
2.1907	9.24043	-0.749977	0	
2.1913	4.95711	-1.36107	0	
2.1920	3.75393	-2.27771	0	
2.1927	5.58276	-3.80544	0	
2.1933	4.66834	-3.49989	0	
2.1940	3.75393	-2.8888	0	
2.1947	0.986609	-2.27771	0	
2.1953	-9.07199	-0.138885	0	
2.1960	-14.2697	0.777754	0	
2.1967	-9.98641	-1.05552	0	
2.1973	-8.15757	-2.58325	0	
2.1980	-8.4704	-3.19435	0	
2.1987	-5.10149	-4.11098	0	
2.1993	-1.75665	-4.11098	0	
2.2000	2.52668	-3.80544	0	
2.2007	10.1549	-4.11098	0	
2.2013	13.8125	-4.11098	0	
2.2020	13.2109	-3.49989	0	
2.2027	14.7269	-4.11098	0	
2.2033	19.299	-4.41653	0	
2.2040	24.184	-3.19435	0	
2.2047	26.9272	-2.58325	0	
2.2053	27.5529	-4.11098	0	
2.2060	25.724	-4.11098	0	
2.2067	19.9247	-1.36107	0	
2.2073	12.5853	0.472208	0	
2.2080	9.84203	-1.66661	0	
2.2087	5.26994	-3.19435	0	
2.2093	-8.15757	-1.05552	0	
2.2100	-19.1547	0.166661	0	
2.2107	-17.6146	-1.97216	0	
2.2113	-12.7297	-1.97216	0	
2.2120	-11.8152	0.472208	0	
2.2127	-11.5265	1.0833	0	
2.2133	-11.8152	-0.444431	0	
2.2140	-12.1281	-1.36107	0	
2.2147	-10.9008	0.472208	0	
2.2153	-10.9008	2.30548	0	
2.2160	-13.6441	0.472208	0	
2.2167	-14.5585	-1.66661	0	
2.2173	-12.7297	-0.138885	0	
2.2180	-11.8152	1.38885	0	
2.2187	-7.24315	0.472208	0	
2.2193	-1.75665	0.472208	0	
2.2200	-1.75665	0.472208	0	
2.2207	-8.75916	-1.36107	0	
2.2213	-14.5585	-1.36107	0	
2.2220	-11.5265	-0.444431	0	
2.2227	0.385018	-1.05552	0	
2.2233	10.1549	-1.05552	0	
2.2240	11.0693	-1.05552	0	
2.2247	11.0693	-1.66661	0	
2.2253	15.6414	0.777754	0	
2.2260	19.299	4.13876	0	
2.2267	17.4702	2.61103	0	
2.2273	11.9837	-0.138885	0	
2.2280	9.24043	-0.444431	0	
2.2287	10.1549	0.777754	0	
2.2293	6.18435	2.91658	0	
2.2300	0.0721909	4.13876	0	
2.2307	-1.75665	2.30548	0	
2.2313	-3.87424	0.472208	0	
2.2320	-10.9008	-0.444431	0	
2.2327	-14.8713	-1.36107	0	
2.2333	-16.0986	-1.36107	0	
2.2340	-19.1547	-0.138885	0	
2.2347	-22.1867	0.166661	0	
2.2353	-22.8123	0.166661	0	
2.2360	-20.9835	1.0833	0	
2.2367	-17.9274	1.38885	0	
2.2373	-14.5585	0.472208	0	
2.2380	-11.5265	-0.138885	0	
2.2387	-7.24315	0.472208	0	
2.2393	-1.44382	0.166661	0	
2.2400	1.90103	-0.749977	0	
2.2407	2.83951	-1.05552	0	
2.2413	4.35552	-2.27771	0	
2.2420	8.92761	-3.49989	0	
2.2427	13.2109	-1.36107	0	
2.2433	15.6414	0.166661	0	
2.2440	15.9542	-2.27771	0	
2.2447	14.1254	-2.58325	0	
2.2453	11.6709	0.166661	0	
2.2460	10.7564	-0.138885	0	
2.2467	11.6709	-0.444431	0	
2.2473	12.2965	1.0833	0	
2.2480	9.24043	-0.138885	0	
2.2487	5.26994	-1.66661	0	
2.2493	6.18435	-0.444431	0	
2.2500	6.49718	-1.36107	0	
2.2507	2.21385	-3.80544	0	
2.2513	0.986609	-1.97216	0	
2.2520	-0.842227	0.472208	0	
2.2527	-6.64156	0.166661	0	
2.2533	-6.64156	1.38885	0	
2.2540	-1.75665	1.69439	0	
2.2547	-5.72714	-0.444431	0	
2.2553	-12.1281	-0.749977	0	
2.2560	-11.5265	0.166661	0	
2.2567	-12.1281	-0.749977	0	
2.2573	-14.5585	-1.05552	0	
2.2580	-12.7297	0.472208	0	
2.2587	-11.2137	0.472208	0	
2.2593	-12.4409	1.38885	0	
2.2600	-11.8152	3.22212	0	
2.2607	-9.07199	2.30548	0	
2.2613	-6.32874	2.30548	0	
2.2620	-1.75665	5.0554	0	
2.2627	0.0721909	2.61103	0	
2.2633	0.697845	-0.749977	0	
2.2640	4.35552	1.99994	0	
2.2647	8.61478	3.22212	0	
2.2653	9.24043	-0.138885	0	
2.2660	7.4116	0.472208	0	
2.2667	3.75393	-0.444431	0	
2.2673	-0.842227	-4.72208	0	
2.2680	-2.35824	-2.27771	0	
2.2687	-0.842227	1.0833	0	
2.2693	-0.216573	-3.19435	0	
2.2700	-0.842227	-2.8888	0	
2.2707	-4.18707	2.30548	0	
2.2713	-9.98641	-0.749977	0	
2.2720	-13.6441	-4.11098	0	
2.2727	-10.9008	-1.66661	0	
2.2733	-8.4704	-2.8888	0	
2.2740	-10.2992	-4.11098	0	
2.2747	-9.98641	0.472208	0	
2.2753	-4.4999	0.472208	0	
2.2760	0.697845	-3.49989	0	
2.2767	-0.842227	-2.8888	0	
2.2773	-5.72714	-0.444431	0	
2.2780	-7.24315	0.777754	0	
2.2787	-2.35824	4.13876	0	
2.2793	4.95711	4.13876	0	
2.2800	11.0693	1.38885	0	
2.2807	14.4141	3.22212	0	
2.2813	17.783	4.13876	0	
2.2820	22.0423	-2.27771	0	
2.2827	22.6679	-3.80544	0	
2.2833	20.5263	2.30548	0	
2.2840	19.9247	4.13876	0	
2.2847	17.4702	0.472208	0	
2.2853	10.1549	0.166661	0	
2.2860	4.95711	2.91658	0	
2.2867	5.26994	3.22212	0	
2.2873	2.83951	1.69439	0	
2.2880	-6.32874	0.777754	0	
2.2887	-15.1842	2.61103	0	
2.2893	-16.7002	3.52767	0	
2.2900	-14.5585	1.99994	0	
2.2907	-12.7297	0.472208	0	
2.2913	-12.7297	-0.444431	0	
2.2920	-11.2137	-2.58325	0	
2.2927	-9.98641	-2.8888	0	
2.2933	-12.4409	-0.749977	0	
2.2940	-17.3258	-1.36107	0	
2.2947	-21.8979	-2.58325	0	
2.2953	-23.1011	1.0833	0	
2.2960	-19.1547	5.0554	0	
2.2967	-13.3553	4.74985	0	
2.2973	-13.0425	2.30548	0	
2.2980	-15.1842	1.38885	0	
2.2987	-10.2992	1.0833	0	
2.2993	-3.87424	0.166661	0	
2.3000	-5.41432	0.166661	0	
2.3007	-7.84474	1.38885	0	
2.3013	-2.04541	2.91658	0	
2.3020	4.66834	3.52767	0	
2.3027	6.49718	2.61103	0	
2.3033	10.7564	0.166661	0	
2.3040	19.0103	-2.27771	0	
2.3047	23.5824	-2.27771	0	
2.3053	22.0423	-3.49989	0	
2.3060	18.3846	-4.11098	0	
2.3067	17.783	-1.36107	0	
2.3073	20.2135	-0.444431	0	
2.3080	22.0423	-3.80544	0	
2.3087	22.0423	-3.19435	0	
2.3093	19.299	-0.444431	0	
2.3100	11.0693	-1.36107	0	
2.3107	-3.58548	-1.66661	0	
2.3113	-15.1842	1.0833	0	
2.3120	-16.0986	1.38885	0	
2.3127	-7.84474	-1.05552	0	
2.3133	-0.842227	-2.27771	0	
2.3140	-2.67106	-1.36107	0	
2.3147	-6.93033	0.472208	0	
2.3153	-7.84474	1.69439	0	
2.3160	-8.15757	0.472208	0	
2.3167	-10.9008	0.166661	0	
2.3173	-11.5265	0.777754	0	
2.3180	-7.55598	0.166661	0	
2.3187	-2.04541	0.166661	0	
2.3193	0.0721909	1.38885	0	
2.3200	1.90103	-0.444431	0	
2.3207	6.49718	-4.72208	0	
2.3213	9.84203	-4.41653	0	
2.3220	10.4677	-2.27771	0	
2.3227	12.5853	-4.11098	0	
2.3233	14.7269	-4.11098	0	
2.3240	16.267	0.166661	0	
2.3247	18.6974	-0.138885	0	
2.3253	17.1814	-4.11098	0	
2.3260	14.1254	-3.19435	0	
2.3267	17.4702	-0.138885	0	
2.3273	19.299	-1.36107	0	
2.3280	14.7269	-2.27771	0	
2.3287	12.2965	-2.8888	0	
2.3293	9.84203	-5.02762	0	
2.3300	6.18435	-4.72208	0	
2.3307	7.4116	-1.97216	0	
2.3313	7.4116	-2.27771	0	
2.3320	-1.75665	-2.58325	0	
2.3327	-11.8152	0.472208	0	
2.3333	-17.6146	1.99994	0	
2.3340	-17.9274	-1.66661	0	
2.3347	-11.8152	-4.72208	0	
2.3353	-9.98641	-2.58325	0	
2.3360	-16.0986	0.777754	0	
2.3367	-17.6146	1.0833	0	
2.3373	-16.0986	-1.36107	0	
2.3380	-16.7002	-4.11098	0	
2.3387	-13.6441	-5.02762	0	
2.3393	-7.84474	-1.97216	0	
2.3400	-6.32874	1.69439	0	
2.3407	-6.01591	0.472208	0	
2.3413	-4.81273	-1.05552	0	
2.3420	-3.27265	1.0833	0	
2.3427	2.83951	1.38885	0	
2.3433	8.32602	1.38885	0	
2.3440	8.32602	3.22212	0	
2.3447	8.32602	1.99994	0	
2.3453	9.24043	-2.27771	0	
2.3460	6.49718	-1.36107	0	
2.3467	3.75393	0.166661	0	
2.3473	4.95711	-1.36107	0	
2.3480	6.18435	-0.749977	0	
2.3487	4.04269	0.166661	0	
2.3493	0.986609	-3.19435	0	
2.3500	-0.5294	-3.80544	0	
2.3507	-0.842227	-1.05552	0	
2.3513	-4.18707	-1.36107	0	
2.3520	-8.15757	-1.36107	0	
2.3527	-9.98641	0.166661	0	
2.3533	-13.0425	-0.138885	0	
2.3540	-15.4729	-0.138885	0	
2.3547	-13.3553	1.0833	0	
2.3553	-13.0425	0.472208	0	
2.3560	-16.3873	1.0833	0	
2.3567	-15.7857	1.99994	0	
2.3573	-14.2697	-0.444431	0	
2.3580	-16.3873	-1.05552	0	
2.3587	-15.4729	4.13876	0	
2.3593	-10.2992	6.58313	0	
2.3600	-7.24315	2.30548	0	
2.3607	-4.4999	-1.36107	0	
2.3613	-0.842227	-0.444431	0	
2.3620	0.385018	0.166661	0	
2.3627	4.04269	-2.27771	0	
2.3633	12.2965	-2.27771	0	
2.3640	14.4141	-1.05552	0	
2.3647	11.0693	-2.8888	0	
2.3653	12.5853	-4.11098	0	
2.3660	13.8125	-2.27771	0	
2.3667	11.9837	-2.27771	0	
2.3673	12.8981	-2.58325	0	
2.3680	12.8981	-0.444431	0	
2.3687	8.01319	0.166661	0	
2.3693	6.49718	-1.36107	0	
2.3700	8.32602	-0.444431	0	
2.3707	6.49718	-0.444431	0	
2.3713	2.52668	-1.66661	0	
2.3720	-3.27265	-0.444431	0	
2.3727	-10.9008	1.99994	0	
2.3733	-13.9569	3.52767	0	
2.3740	-12.4409	4.44431	0	
2.3747	-9.98641	4.13876	0	
2.3753	-7.24315	3.52767	0	
2.3760	-3.87424	2.30548	0	
2.3767	0.0721909	-1.05552	0	
2.3773	4.04269	-1.36107	0	
2.3780	8.32602	1.99994	0	
2.3787	11.6709	0.472208	0	
2.3793	13.8125	-2.8888	0	
2.3800	16.267	-1.36107	0	
2.3807	19.9247	0.166661	0	
2.3813	22.0423	-0.444431	0	
2.3820	21.1279	0.472208	0	
2.3827	22.0423	-0.138885	0	
2.3833	27.5529	-3.19435	0	
2.3840	30.2961	-2.27771	0	
2.3847	25.724	-0.444431	0	
2.3853	12.8981	-1.36107	0	
2.3860	-2.67106	-0.749977	0	
2.3867	-12.7297	1.99994	0	
2.3873	-12.7297	3.22212	0	
2.3880	-7.55598	1.38885	0	
2.3887	-4.4999	-0.138885	0	
2.3893	-2.04541	0.166661	0	
2.3900	1.61226	0.777754	0	
2.3907	-0.842227	1.69439	0	
2.3913	-9.07199	2.61103	0	
2.3920	-10.588	1.99994	0	
2.3927	-8.75916	1.0833	0	
2.3933	-11.8152	0.472208	0	
2.3940	-13.6441	-0.138885	0	
2.3947	-11.2137	2.30548	0	
2.3953	-11.5265	5.97204	0	
2.3960	-12.7297	3.52767	0	
2.3967	-13.0425	-1.05552	0	
2.3973	-12.7297	-0.138885	0	
2.3980	-9.38482	0.472208	0	
2.3987	-6.32874	-1.36107	0	
2.3993	-6.93033	-0.444431	0	
2.4000	-3.87424	1.38885	0	
2.4007	1.29944	-0.444431	0	
2.4013	4.35552	0.166661	0	
2.4020	7.4116	1.0833	0	
2.4027	8.61478	-1.66661	0	
2.4033	7.09877	-3.19435	0	
2.4040	9.24043	-1.97216	0	
2.4047	11.9837	-1.05552	0	
2.4053	10.4677	0.166661	0	
2.4060	8.61478	0.472208	0	
2.4067	8.32602	-1.36107	0	
2.4073	8.61478	-1.97216	0	
2.4080	10.1549	-1.36107	0	
2.4087	9.24043	-0.749977	0	
2.4093	5.58276	-0.444431	0	
2.4100	3.12827	-0.444431	0	
2.4107	0.986609	-1.36107	0	
2.4113	-3.58548	-0.749977	0	
2.4120	-7.24315	1.69439	0	
2.4127	-8.15757	3.22212	0	
2.4133	-9.98641	1.38885	0	
2.4140	-12.1281	-2.27771	0	
2.4147	-13.3553	-3.19435	0	
2.4153	-12.1281	-1.36107	0	
2.4160	-9.38482	-0.749977	0	
2.4167	-9.67358	-1.36107	0	
2.4173	-12.7297	-0.749977	0	
2.4180	-11.8152	-0.444431	0	
2.4187	-6.64156	0.777754	0	
2.4193	-3.87424	2.91658	0	
2.4200	-2.67106	2.91658	0	
2.4207	1.61226	2.30548	0	
2.4213	7.4116	0.472208	0	
2.4220	11.0693	-5.02762	0	
2.4227	12.2965	-6.83312	0	
2.4233	11.3821	-1.05552	0	
2.4240	9.24043	1.99994	0	
2.4247	11.0693	-2.58325	0	
2.4253	15.3285	-5.02762	0	
2.4260	15.6414	-2.58325	0	
2.4267	11.3821	0.166661	0	
2.4273	8.61478	0.472208	0	
2.4280	9.24043	-0.444431	0	
2.4287	9.84203	-1.66661	0	
2.4293	8.32602	-1.36107	0	
2.4300	4.66834	0.166661	0	
2.4307	-1.13099	2.30548	0	
2.4313	-5.41432	2.30548	0	
2.4320	-5.72714	-0.444431	0	
2.4327	-6.32874	-0.444431	0	
2.4333	-10.9008	2.30548	0	
2.4340	-14.2697	3.22212	0	
2.4347	-14.2697	1.69439	0	
2.4353	-15.4729	2.61103	0	
2.4360	-18.529	3.22212	0	
2.4367	-19.7562	1.38885	0	
2.4373	-17.013	0.777754	0	
2.4380	-13.6441	-0.444431	0	
2.4387	-12.4409	-1.05552	0	
2.4393	-10.9008	1.38885	0	
2.4400	-5.72714	3.22212	0	
2.4407	-2.67106	2.91658	0	
2.4413	-3.58548	3.83321	0	
2.4420	-0.5294	4.13876	0	
2.4427	7.70036	2.91658	0	
2.4433	13.2109	2.61103	0	
2.4440	17.4702	1.38885	0	
2.4447	20.5263	0.166661	0	
2.4453	15.9542	1.99994	0	
2.4460	10.1549	3.52767	0	
2.4467	11.9837	2.30548	0	
2.4473	15.6414	1.0833	0	
2.4480	13.2109	0.166661	0	
2.4487	6.49718	-0.444431	0	
2.4493	-2.95983	1.38885	0	
2.4500	-8.15757	0.777754	0	
2.4507	-6.01591	-1.05552	0	
2.4513	-5.72714	0.166661	0	
2.4520	-8.75916	-1.05552	0	
2.4527	-9.67358	-4.11098	0	
2.4533	-12.7297	-1.97216	0	
2.4540	-17.013	2.30548	0	
2.4547	-17.9274	1.99994	0	
2.4553	-15.7857	1.38885	0	
2.4560	-9.98641	0.166661	0	
2.4567	-4.4999	-3.49989	0	
2.4573	-9.98641	-2.8888	0	
2.4580	-18.2402	1.38885	0	
2.4587	-17.3258	0.472208	0	
2.4593	-11.2137	-1.97216	0	
2.4600	-5.10149	-1.36107	0	
2.4607	1.90103	-2.27771	0	
2.4613	4.66834	-4.41653	0	
2.4620	4.04269	-2.27771	0	
2.4627	8.01319	1.38885	0	
2.4633	14.1254	-0.138885	0	
2.4640	17.783	-2.27771	0	
2.4647	18.6974	-2.8888	0	
2.4653	16.8686	-3.19435	0	
2.4660	14.1254	-2.27771	0	
2.4667	12.2965	-0.444431	0	
2.4673	10.1549	0.166661	0	
2.4680	8.61478	-0.138885	0	
2.4687	8.92761	-0.749977	0	
2.4693	7.4116	-0.444431	0	
2.4700	3.12827	1.69439	0	
2.4707	-3.87424	2.91658	0	
2.4713	-9.98641	0.472208	0	
2.4720	-11.5265	-1.05552	0	
2.4727	-12.1281	0.777754	0	
2.4733	-13.9569	0.472208	0	
2.4740	-13.6441	-2.8888	0	
2.4747	-15.4729	-2.58325	0	
2.4753	-19.1547	-0.444431	0	
2.4760	-17.9274	-0.444431	0	
2.4767	-14.5585	-1.05552	0	
2.4773	-13.3553	-0.138885	0	
2.4780	-10.2992	-0.444431	0	
2.4787	-9.07199	-0.749977	0	
2.4793	-12.7297	-0.138885	0	
2.4800	-13.6441	-1.36107	0	
2.4807	-10.9008	-1.36107	0	
2.4813	-5.72714	1.38885	0	
2.4820	1.29944	3.22212	0	
2.4827	4.95711	2.30548	0	
2.4833	2.83951	1.38885	0	
2.4840	2.52668	0.472208	0	
2.4847	8.01319	0.472208	0	
2.4853	13.8125	-0.444431	0	
2.4860	14.1254	-2.27771	0	
2.4867	9.24043	-2.27771	0	
2.4873	5.58276	-0.444431	0	
2.4880	5.26994	-1.97216	0	
2.4887	6.49718	-5.02762	0	
2.4893	8.61478	-3.19435	0	
2.4900	8.61478	-0.138885	0	
2.4907	3.4411	-0.444431	0	
2.4913	-1.13099	-1.36107	0	
2.4920	-1.44382	-1.05552	0	
2.4927	-0.5294	-1.36107	0	
2.4933	-3.27265	-3.19435	0	
2.4940	-13.9569	-3.19435	0	
2.4947	-28.2988	-0.138885	0	
2.4953	-33.7853	1.38885	0	
2.4960	-29.2132	-0.138885	0	
2.4967	-22.8123	-0.444431	0	
2.4973	-19.1547	-0.749977	0	
2.4980	-19.1547	-2.8888	0	
2.4987	-19.1547	-4.11098	0	
2.4993	-13.6441	-2.27771	0	
2.5000	-7.24315	-1.36107	0	
2.5007	-4.18707	-1.66661	0	
2.5013	0.986609	-2.27771	0	
2.5020	8.92761	-1.66661	0	
2.5027	9.55326	-1.05552	0	
2.5033	5.87153	-1.36107	0	
2.5040	7.4116	-2.27771	0	
2.5047	11.9837	-0.444431	0	
2.5053	13.8125	1.38885	0	
2.5060	17.4702	-0.444431	0	
2.5067	20.2135	-2.27771	0	
2.5073	15.0398	-0.138885	0	
2.5080	6.78594	0.777754	0	
2.5087	4.66834	-0.749977	0	
2.5093	5.87153	-0.444431	0	
2.5100	4.35552	0.472208	0	
2.5107	0.385018	-0.444431	0	
2.5113	-3.27265	-1.66661	0	
2.5120	-6.32874	-1.36107	0	
2.5127	-9.38482	0.472208	0	
2.5133	-13.0425	1.0833	0	
2.5140	-16.0986	-0.444431	0	
2.5147	-16.0986	-1.97216	0	
2.5153	-15.4729	-1.36107	0	
2.5160	-18.2402	0.166661	0	
2.5167	-19.7562	1.38885	0	
2.5173	-18.2402	1.69439	0	
2.5180	-16.3873	1.0833	0	
2.5187	-14.2697	2.30548	0	
2.5193	-8.15757	1.38885	0	
2.5200	-0.5294	-1.36107	0	
2.5207	2.83951	0.166661	0	
2.5213	3.75393	3.52767	0	
2.5220	8.92761	0.472208	0	
2.5227	14.7269	-3.19435	0	
2.5233	14.1254	-0.749977	0	
2.5240	10.7564	1.38885	0	
2.5247	12.2965	0.777754	0	
2.5253	15.6414	0.166661	0	
2.5260	14.1254	0.166661	0	
2.5267	13.4997	-0.444431	0	
2.5273	15.9542	-0.749977	0	
2.5280	15.0398	-0.138885	0	
2.5287	10.1549	0.777754	0	
2.5293	8.61478	-1.66661	0	
2.5300	10.4677	-5.63871	0	
2.5307	9.84203	-4.41653	0	
2.5313	7.09877	-0.138885	0	
2.5320	2.83951	-0.444431	0	
2.5327	-2.95983	-1.97216	0	
2.5333	-7.24315	-0.749977	0	
2.5340	-8.15757	-0.138885	0	
2.5347	-8.4704	-1.36107	0	
2.5353	-9.67358	-1.36107	0	
2.5360	-10.2992	-0.444431	0	
2.5367	-11.8152	-0.138885	0	
2.5373	-11.5265	-0.444431	0	
2.5380	-8.15757	-0.444431	0	
2.5387	-5.41432	0.166661	0	
2.5393	-1.13099	0.472208	0	
2.5400	4.95711	-0.138885	0	
2.5407	6.18435	-1.36107	0	
2.5413	5.58276	-1.36107	0	
2.5420	12.2965	-0.444431	0	
2.5427	19.299	-1.36107	0	
2.5433	16.5558	-2.27771	0	
2.5440	12.8981	-0.444431	0	
2.5447	14.4141	-0.444431	0	
2.5453	16.8686	-4.11098	0	
2.5460	19.0103	-4.11098	0	
2.5467	19.299	1.0833	0	
2.5473	17.1814	2.30548	0	
2.5480	15.3285	-2.58325	0	
2.5487	11.9837	-5.02762	0	
2.5493	6.18435	-2.8888	0	
2.5500	1.61226	-0.444431	0	
2.5507	-1.75665	-1.36107	0	
2.5513	-4.18707	-3.80544	0	
2.5520	-2.67106	-1.66661	0	
2.5527	-2.67106	2.30548	0	
2.5533	-8.75916	0.777754	0	
2.5540	-11.5265	-2.27771	0	
2.5547	-8.75916	-1.05552	0	
2.5553	-6.64156	0.777754	0	
2.5560	-4.18707	0.166661	0	
2.5567	-3.58548	0.166661	0	
2.5573	-13.3553	1.38885	0	
2.5580	-21.2723	2.30548	0	
2.5587	-16.3873	3.22212	0	
2.5593	-9.67358	2.61103	0	
2.5600	-7.24315	0.472208	0	
2.5607	-3.87424	-1.36107	0	
2.5613	-1.75665	-1.97216	0	
2.5620	-2.04541	-2.27771	0	
2.5627	1.29944	-2.27771	0	
2.5633	6.18435	-1.36107	0	
2.5640	8.61478	0.166661	0	
2.5647	13.8125	0.472208	0	
2.5653	16.5558	-1.36107	0	
2.5660	13.2109	-3.80544	0	
2.5667	11.6709	-4.11098	0	
2.5673	13.8125	-2.27771	0	
2.5680	12.5853	0.166661	0	
2.5687	7.09877	0.472208	0	
2.5693	0.385018	-0.444431	0	
2.5700	-4.81273	-0.749977	0	
2.5707	-3.27265	-1.05552	0	
2.5713	-0.5294	-1.66661	0	
2.5720	-6.32874	-2.58325	0	
2.5727	-13.3553	-3.19435	0	
2.5733	-12.7297	-2.27771	0	
2.5740	-11.8152	-0.444431	0	
2.5747	-15.4729	-0.138885	0	
2.5753	-16.3873	0.166661	0	
2.5760	-14.8713	0.777754	0	
2.5767	-16.7002	0.472208	0	
2.5773	-18.2402	0.472208	0	
2.5780	-16.0986	1.99994	0	
2.5787	-13.3553	2.91658	0	
2.5793	-10.9008	2.30548	0	
2.5800	-9.07199	1.69439	0	
2.5807	-3.58548	0.777754	0	
2.5813	8.32602	-1.66661	0	
2.5820	14.4141	-3.19435	0	
2.5827	7.70036	-0.444431	0	
2.5833	6.49718	1.0833	0	
2.5840	14.7269	-1.97216	0	
2.5847	17.4702	-2.58325	0	
2.5853	13.8125	-0.749977	0	
2.5860	13.4997	-2.27771	0	
2.5867	16.267	-4.72208	0	
2.5873	18.3846	-4.11098	0	
2.5880	15.3285	-2.27771	0	
2.5887	5.87153	-0.444431	0	
2.5893	-0.216573	-1.36107	0	
2.5900	0.986609	-3.49989	0	
2.5907	2.21385	-1.36107	0	
2.5913	0.0721909	0.472208	0	
2.5920	-8.15757	-2.8888	0	
2.5927	-16.3873	-2.27771	0	
2.5933	-14.2697	3.22212	0	
2.5940	-7.24315	3.22212	0	
2.5947	-10.9008	1.38885	0	
2.5953	-15.4729	2.30548	0	
2.5960	-13.9569	1.69439	0	
2.5967	-17.3258	0.777754	0	
2.5973	-20.0691	2.91658	0	
2.5980	-8.75916	1.99994	0	
2.5987	4.04269	-2.27771	0	
2.5993	8.32602	-3.19435	0	
2.6000	10.4677	-1.66661	0	
2.6007	11.6709	1.69439	0	
2.6013	10.7564	5.0554	0	
2.6020	10.1549	1.99994	0	
2.6027	8.32602	-2.58325	0	
2.6033	6.49718	1.0833	0	
2.6040	11.0693	4.74985	0	
2.6047	14.7269	-0.444431	0	
2.6053	13.8125	-3.80544	0	
2.6060	14.1254	-1.05552	0	
2.6067	13.8125	-0.749977	0	
2.6073	10.7564	-1.97216	0	
2.6080	11.9837	0.166661	0	
2.6087	14.7269	-0.138885	0	
2.6093	12.2965	-3.49989	0	
2.6100	10.1549	-2.8888	0	
2.6107	7.4116	-0.444431	0	
2.6113	-0.842227	0.472208	0	
2.6120	-7.55598	0.777754	0	
2.6127	-7.24315	0.777754	0	
2.6133	-9.07199	0.166661	0	
2.6140	-13.6441	0.166661	0	
2.6147	-12.7297	0.777754	0	
2.6153	-10.2992	4.13876	0	
2.6160	-9.67358	5.97204	0	
2.6167	-8.15757	2.30548	0	
2.6173	-9.98641	1.38885	0	
2.6180	-16.0986	4.13876	0	
2.6187	-15.4729	2.30548	0	
2.6193	-9.07199	-0.749977	0	
2.6200	-4.4999	1.38885	0	
2.6207	-1.44382	2.30548	0	
2.6213	1.90103	0.166661	0	
2.6220	7.4116	-1.36107	0	
2.6227	14.7269	-4.11098	0	
2.6233	19.6119	-5.63871	0	
2.6240	19.6119	-3.19435	0	
2.6247	19.299	-5.02762	0	
2.6253	17.4702	-9.58304	0	
2.6260	13.8125	-7.44421	0	
2.6267	15.6414	-3.80544	0	
2.6273	22.0423	-2.8888	0	
2.6280	20.5263	-1.97216	0	
2.6287	12.2965	-3.19435	0	
2.6293	7.70036	-5.02762	0	
2.6300	6.78594	-3.49989	0	
2.6307	2.21385	-1.36107	0	
2.6313	-4.81273	-2.58325	0	
2.6320	-9.38482	-2.27771	0	
2.6327	-10.9008	0.472208	0	
2.6333	-10.2992	-0.749977	0	
2.6340	-9.98641	-3.19435	0	
2.6347	-11.5265	-0.444431	0	
2.6353	-14.5585	3.22212	0	
2.6360	-14.5585	2.61103	0	
2.6367	-13.0425	1.69439	0	
2.6373	-11.8152	2.91658	0	
2.6380	-8.75916	2.61103	0	
2.6387	-5.72714	1.0833	0	
2.6393	-4.4999	1.0833	0	
2.6400	-0.216573	1.38885	0	
2.6407	4.66834	-0.444431	0	
2.6413	8.32602	-1.36107	0	
2.6420	11.9837	-1.05552	0	
2.6427	8.61478	-0.749977	0	
2.6433	-3.58548	-1.36107	0	
2.6440	-8.15757	-0.749977	0	
2.6447	0.0721909	1.38885	0	
2.6453	4.35552	2.91658	0	
2.6460	5.26994	0.777754	0	
2.6467	8.32602	-1.05552	0	
2.6473	7.4116	0.777754	0	
2.6480	2.21385	3.22212	0	
2.6487	0.986609	2.30548	0	
2.6493	3.75393	0.472208	0	
2.6500	3.12827	1.38885	0	
2.6507	-1.75665	3.52767	0	
2.6513	-8.15757	3.83321	0	
2.6520	-11.2137	2.61103	0	
2.6527	-15.4729	3.22212	0	
2.6533	-20.6707	3.52767	0	
2.6540	-20.3578	3.83321	0	
2.6547	-16.3873	4.44431	0	
2.6553	-15.7857	5.36094	0	
2.6560	-15.4729	5.0554	0	
2.6567	-16.3873	3.22212	0	
2.6573	-19.4434	2.30548	0	
2.6580	-17.6146	2.30548	0	
2.6587	-10.9008	2.91658	0	
2.6593	-8.75916	2.30548	0	
2.6600	-8.15757	1.38885	0	
2.6607	-2.67106	0.777754	0	
2.6613	3.75393	-1.36107	0	
2.6620	7.70036	-0.444431	0	
2.6627	11.0693	2.30548	0	
2.6633	15.3285	3.22212	0	
2.6640	16.5558	2.30548	0	
2.6647	14.4141	3.52767	0	
2.6653	16.267	2.30548	0	
2.6660	20.8391	-3.80544	0	
2.6667	18.6974	-4.41653	0	
2.6673	12.8981	0.472208	0	
2.6680	13.2109	1.99994	0	
2.6687	15.6414	-1.05552	0	
2.6693	11.9837	-1.36107	0	
2.6700	5.87153	-0.444431	0	
2.6707	1.90103	-0.444431	0	
2.6713	-0.216573	0.166661	0	
2.6720	-2.95983	1.99994	0	
2.6727	-7.84474	1.99994	0	
2.6733	-12.7297	1.38885	0	
2.6740	-13.6441	0.777754	0	
2.6747	-13.6441	0.472208	0	
2.6753	-16.0986	0.472208	0	
2.6760	-17.6146	0.472208	0	
2.6767	-15.7857	0.166661	0	
2.6773	-13.3553	0.777754	0	
2.6780	-11.8152	1.0833	0	
2.6787	-7.55598	-1.36107	0	
2.6793	-2.67106	-1.97216	0	
2.6800	-1.44382	0.472208	0	
2.6807	-1.44382	1.0833	0	
2.6813	3.12827	-1.36107	0	
2.6820	9.24043	-2.58325	0	
2.6827	8.92761	-1.66661	0	
2.6833	4.04269	-1.05552	0	
2.6840	2.52668	-0.749977	0	
2.6847	5.58276	-0.444431	0	
2.6853	10.4677	-1.36107	0	
2.6860	13.8125	-1.36107	0	
2.6867	13.8125	0.472208	0	
2.6873	12.2965	0.777754	0	
2.6880	11.3821	-1.97216	0	
2.6887	11.3821	-2.8888	0	
2.6893	9.24043	-0.444431	0	
2.6900	4.35552	0.166661	0	
2.6907	-0.842227	-0.749977	0	
2.6913	-4.81273	-0.444431	0	
2.6920	-8.75916	-0.444431	0	
2.6927	-12.1281	-3.19435	0	
2.6933	-11.8152	-5.33317	0	
2.6940	-10.9008	-5.02762	0	
2.6947	-15.4729	-3.80544	0	
2.6953	-19.7562	-3.49989	0	
2.6960	-16.0986	-3.19435	0	
2.6967	-13.6441	-2.27771	0	
2.6973	-16.3873	-4.11098	0	
2.6980	-13.6441	-4.11098	0	
2.6987	-7.24315	-1.36107	0	
2.6993	-4.81273	-0.138885	0	
2.7000	-1.13099	-1.36107	0	
2.7007	4.35552	-0.749977	0	
2.7013	5.26994	0.472208	0	
2.7020	4.66834	-1.36107	0	
2.7027	8.32602	-3.49989	0	
2.7033	11.3821	-4.41653	0	
2.7040	12.8981	-5.63871	0	
2.7047	10.7564	-5.02762	0	
2.7053	5.58276	-3.19435	0	
2.7060	6.49718	-2.8888	0	
2.7067	12.5853	-4.11098	0	
2.7073	13.2109	-4.41653	0	
2.7080	9.24043	-4.41653	0	
2.7087	10.4677	-4.41653	0	
2.7093	11.6709	-4.11098	0	
2.7100	6.49718	-2.58325	0	
2.7107	-0.842227	-1.36107	0	
2.7113	-4.81273	-1.36107	0	
2.7120	-6.32874	-1.66661	0	
2.7127	-6.32874	-1.66661	0	
2.7133	-6.93033	-0.749977	0	
2.7140	-9.98641	0.472208	0	
2.7147	-13.3553	1.0833	0	
2.7153	-12.4409	0.777754	0	
2.7160	-7.24315	1.0833	0	
2.7167	-4.4999	2.91658	0	
2.7173	-5.72714	3.52767	0	
2.7180	-5.41432	3.22212	0	
2.7187	-1.75665	3.22212	0	
2.7193	1.61226	1.69439	0	
2.7200	4.04269	-0.444431	0	
2.7207	8.01319	-0.749977	0	
2.7213	12.2965	-1.36107	0	
2.7220	16.5558	-2.8888	0	
2.7227	20.5263	0.166661	0	
2.7233	22.9808	2.61103	0	
2.7240	23.8952	0.472208	0	
2.7247	23.5824	-0.444431	0	
2.7253	21.1279	0.472208	0	
2.7260	19.9247	-1.36107	0	
2.7267	22.3551	-2.27771	0	
2.7273	22.9808	0.472208	0	
2.7280	19.299	1.38885	0	
2.7287	15.9542	-0.138885	0	
2.7293	13.8125	1.0833	0	
2.7300	10.1549	1.38885	0	
2.7307	6.78594	-1.66661	0	
2.7313	3.4411	-1.36107	0	
2.7320	-2.04541	0.472208	0	
2.7327	-7.24315	-0.444431	0	
2.7333	-9.38482	1.0833	0	
2.7340	-11.5265	3.22212	0	
2.7347	-13.6441	-0.444431	0	
2.7353	-13.6441	-2.58325	0	
2.7360	-13.6441	1.69439	0	
2.7367	-14.5585	1.69439	0	
2.7373	-16.3873	-1.36107	0	
2.7380	-18.529	1.38885	0	
2.7387	-20.0691	3.22212	0	
2.7393	-16.3873	0.472208	0	
2.7400	-8.4704	2.30548	0	
2.7407	-1.75665	4.74985	0	
2.7413	0.697845	3.52767	0	
2.7420	1.90103	4.13876	0	
2.7427	1.29944	2.91658	0	
2.7433	-2.67106	-0.444431	0	
2.7440	-4.4999	-0.749977	0	
2.7447	0.0721909	-0.444431	0	
2.7453	6.49718	-3.19435	0	
2.7460	14.1254	-2.58325	0	
2.7467	21.1279	0.166661	0	
2.7473	19.9247	0.166661	0	
2.7480	9.24043	-1.05552	0	
2.7487	0.385018	-0.749977	0	
2.7493	-0.5294	-1.05552	0	
2.7500	-1.13099	-0.749977	0	
2.7507	-9.98641	0.472208	0	
2.7513	-20.3578	0.166661	0	
2.7520	-21.8979	-1.05552	0	
2.7527	-22.4995	-0.444431	0	
2.7533	-32.5822	1.0833	0	
2.7540	-41.1247	1.38885	0	
2.7547	-35.3254	-0.138885	0	
2.7553	-23.7267	-1.36107	0	
2.7560	-12.7297	-0.138885	0	
2.7567	-2.04541	2.30548	0	
2.7573	1.29944	2.30548	0	
2.7580	-2.67106	0.777754	0	
2.7587	-6.32874	2.30548	0	
2.7593	-7.24315	3.22212	0	
2.7600	-3.87424	0.472208	0	
2.7607	3.75393	-1.05552	0	
2.7613	7.09877	0.472208	0	
2.7620	8.01319	-0.444431	0	
2.7627	15.3285	-1.97216	0	
2.7633	15.6414	-0.749977	0	
2.7640	5.26994	-1.97216	0	
2.7647	6.49718	-4.11098	0	
2.7653	21.4407	-3.80544	0	
2.7660	27.24	-4.11098	0	
2.7667	22.6679	-4.41653	0	
2.7673	22.6679	-2.8888	0	
2.7680	26.3256	-1.36107	0	
2.7687	24.184	-2.27771	0	
2.7693	16.5558	-4.41653	0	
2.7700	8.32602	-5.94426	0	
2.7707	-1.44382	-3.80544	0	
2.7713	-17.3258	0.777754	0	
2.7720	-30.7533	1.38885	0	
2.7727	-29.8148	1.38885	0	
2.7733	-21.5851	2.91658	0	
2.7740	-17.6146	2.30548	0	
2.7747	-16.3873	1.0833	0	
2.7753	-16.0986	1.0833	0	
2.7760	-17.3258	1.0833	0	
2.7767	-15.4729	1.0833	0	
2.7773	-13.6441	1.99994	0	
2.7780	-13.9569	2.61103	0	
2.7787	-11.5265	3.22212	0	
2.7793	-5.72714	2.91658	0	
2.7800	-4.81273	1.69439	0	
2.7807	-5.41432	2.30548	0	
2.7813	1.29944	2.91658	0	
2.7820	8.32602	2.30548	0	
2.7827	8.32602	3.22212	0	
2.7833	7.70036	2.61103	0	
2.7840	10.4677	-0.444431	0	
2.7847	9.55326	-0.444431	0	
2.7853	8.32602	3.22212	0	
2.7860	11.6709	5.66649	0	
2.7867	15.6414	5.97204	0	
2.7873	16.5558	3.22212	0	
2.7880	13.4997	-0.138885	0	
2.7887	3.4411	0.777754	0	
2.7893	-6.64156	1.99994	0	
2.7900	-7.55598	-0.749977	0	
2.7907	-4.81273	-0.138885	0	
2.7913	-3.87424	3.52767	0	
2.7920	-2.04541	0.166661	0	
2.7927	-3.58548	-4.11098	0	
2.7933	-13.3553	0.472208	0	
2.7940	-21.8979	4.13876	0	
2.7947	-19.4434	1.38885	0	
2.7953	-12.1281	0.166661	0	
2.7960	-9.98641	1.0833	0	
2.7967	-12.4409	0.472208	0	
2.7973	-16.3873	1.38885	0	
2.7980	-20.0691	1.38885	0	
2.7987	-18.8418	-1.36107	0	
2.7993	-12.1281	-1.05552	0	
2.8000	-5.41432	1.38885	0	
2.8007	-1.44382	0.472208	0	
2.8013	0.0721909	-0.138885	0	
2.8020	-0.842227	0.472208	0	
2.8027	1.90103	-1.66661	0	
2.8033	9.24043	-2.58325	0	
2.8040	12.8981	-1.66661	0	
2.8047	13.2109	-3.80544	0	
2.8053	15.0398	-4.11098	0	
2.8060	12.8981	-1.36107	0	
2.8067	7.4116	0.472208	0	
2.8073	7.70036	-0.444431	0	
2.8080	10.1549	-0.444431	0	
2.8087	8.32602	-1.05552	0	
2.8093	6.49718	-1.36107	0	
2.8100	6.18435	-1.05552	0	
2.8107	4.35552	-2.8888	0	
2.8113	0.986609	-3.80544	0	
2.8120	-4.4999	-2.27771	0	
2.8127	-10.2992	-3.19435	0	
2.8133	-9.67358	-3.49989	0	
2.8140	-5.41432	0.166661	0	
2.8147	-6.32874	0.166661	0	
2.8153	-8.4704	-2.8888	0	
2.8160	-7.24315	-2.58325	0	
2.8167	-8.4704	-1.36107	0	
2.8173	-11.8152	-1.05552	0	
2.8180	-10.2992	1.69439	0	
2.8187	-6.32874	2.61103	0	
2.8193	-5.41432	0.777754	0	
2.8200	-3.87424	1.38885	0	
2.8207	1.90103	2.30548	0	
2.8213	8.01319	0.472208	0	
2.8220	11.0693	1.0833	0	
2.8227	14.4141	3.22212	0	
2.8233	16.5558	0.472208	0	
2.8240	18.0959	-3.19435	0	
2.8247	22.6679	-2.27771	0	
2.8253	26.6384	0.472208	0	
2.8260	24.184	0.472208	0	
2.8267	20.5263	-1.97216	0	
2.8273	22.3551	-2.8888	0	
2.8280	23.2695	-3.19435	0	
2.8287	19.299	-4.11098	0	
2.8293	14.7269	-4.11098	0	
2.8300	10.1549	-1.36107	0	
2.8307	5.58276	-1.66661	0	
2.8313	4.35552	-4.11098	0	
2.8320	1.90103	-2.58325	0	
2.8327	-2.67106	-0.138885	0	
2.8333	-5.41432	-1.36107	0	
2.8340	-6.01591	-1.97216	0	
2.8347	-6.32874	0.777754	0	
2.8353	-4.4999	1.0833	0	
2.8360	-3.58548	-1.05552	0	
2.8367	-8.4704	0.777754	0	
2.8373	-11.8152	3.22212	0	
2.8380	-7.55598	0.166661	0	
2.8387	-2.95983	-3.49989	0	
2.8393	-1.75665	-2.27771	0	
2.8400	0.0721909	-0.749977	0	
2.8407	1.90103	-3.19435	0	
2.8413	4.66834	-4.11098	0	
2.8420	11.3821	-2.27771	0	
2.8427	18.3846	-1.36107	0	
2.8433	21.1279	-1.36107	0	
2.8440	22.3551	-1.05552	0	
2.8447	24.4968	-2.27771	0	
2.8453	25.724	-5.33317	0	
2.8460	22.0423	-5.63871	0	
2.8467	8.92761	-2.8888	0	
2.8473	-3.58548	-0.444431	0	
2.8480	-3.58548	0.472208	0	
2.8487	1.90103	0.472208	0	
2.8493	0.986609	-2.27771	0	
2.8500	-3.58548	-4.11098	0	
2.8507	-4.81273	-4.11098	0	
2.8513	-4.4999	-3.80544	0	
2.8520	-9.98641	-3.49989	0	
2.8527	-22.8123	-0.749977	0	
2.8533	-31.0421	1.38885	0	
2.8540	-28.2988	2.61103	0	
2.8547	-22.8123	3.22212	0	
2.8553	-17.3258	4.13876	0	
2.8560	-10.588	5.97204	0	
2.8567	-6.64156	5.97204	0	
2.8573	-2.95983	1.38885	0	
2.8580	5.87153	-1.05552	0	
2.8587	12.5853	2.30548	0	
2.8593	9.84203	2.30548	0	
2.8600	9.24043	-1.36107	0	
2.8607	12.8981	-1.36107	0	
2.8613	9.24043	0.472208	0	
2.8620	2.83951	-1.97216	0	
2.8627	4.95711	-5.33317	0	
2.8633	6.49718	-4.11098	0	
2.8640	0.385018	-1.05552	0	
2.8647	-3.27265	-1.66661	0	
2.8653	0.0721909	-2.8888	0	
2.8660	3.4411	0.472208	0	
2.8667	4.35552	1.0833	0	
2.8673	5.58276	-2.8888	0	
2.8680	6.49718	-2.8888	0	
2.8687	6.78594	0.166661	0	
2.8693	6.78594	-0.444431	0	
2.8700	3.12827	-2.8888	0	
2.8707	-3.58548	-3.19435	0	
2.8713	-8.4704	-2.58325	0	
2.8720	-9.98641	-0.749977	0	
2.8727	-13.0425	1.0833	0	
2.8733	-17.9274	0.777754	0	
2.8740	-17.6146	0.472208	0	
2.8747	-14.2697	1.69439	0	
2.8753	-13.9569	1.99994	0	
2.8760	-13.6441	0.472208	0	
2.8767	-12.4409	0.472208	0	
2.8773	-17.013	1.0833	0	
2.8780	-22.4995	0.166661	0	
2.8787	-19.7562	-1.36107	0	
2.8793	-13.3553	0.472208	0	
2.8800	-6.64156	2.30548	0	
2.8807	0.986609	1.38885	0	
2.8813	4.35552	0.777754	0	
2.8820	4.35552	1.38885	0	
2.8827	11.6709	-1.05552	0	
2.8833	16.5558	-2.27771	0	
2.8840	7.09877	1.0833	0	
2.8847	0.0721909	3.52767	0	
2.8853	6.78594	1.99994	0	
2.8860	13.8125	0.472208	0	
2.8867	14.4141	1.38885	0	
2.8873	15.0398	2.30548	0	
2.8880	16.5558	0.777754	0	
2.8887	15.6414	-0.138885	0	
2.8893	12.2965	2.91658	0	
2.8900	4.66834	3.22212	0	
2.8907	-1.75665	-1.05552	0	
2.8913	-3.58548	-1.36107	0	
2.8920	-6.93033	-0.444431	0	
2.8927	-12.4409	-2.8888	0	
2.8933	-10.9008	-0.444431	0	
2.8940	-6.32874	2.61103	0	
2.8947	-8.4704	-1.05552	0	
2.8953	-12.1281	-2.27771	0	
2.8960	-10.9008	1.38885	0	
2.8967	-11.5265	1.0833	0	
2.8973	-13.6441	0.472208	0	
2.8980	-12.7297	2.30548	0	
2.8987	-11.8152	0.777754	0	
2.8993	-13.3553	0.777754	0	
2.9000	-9.98641	4.13876	0	
2.9007	-3.58548	3.52767	0	
2.9013	-1.44382	2.30548	0	
2.9020	-1.44382	2.91658	0	
2.9027	1.61226	2.61103	0	
2.9033	7.09877	2.30548	0	
2.9040	9.55326	2.30548	0	
2.9047	9.24043	0.472208	0	
2.9053	11.0693	-0.138885	0	
2.9060	15.3285	1.69439	0	
2.9067	14.4141	1.69439	0	
2.9073	10.1549	0.166661	0	
2.9080	7.70036	-1.36107	0	
2.9087	6.78594	-1.05552	0	
2.9093	4.95711	-0.444431	0	
2.9100	3.75393	-1.36107	0	
2.9107	0.986609	-2.27771	0	
2.9113	-3.87424	0.166661	0	
2.9120	-8.15757	1.99994	0	
2.9127	-10.9008	1.38885	0	
2.9133	-13.9569	2.30548	0	
2.9140	-16.3873	2.61103	0	
2.9147	-14.5585	0.472208	0	
2.9153	-9.98641	-0.444431	0	
2.9160	-8.4704	2.30548	0	
2.9167	-12.7297	5.0554	0	
2.9173	-15.4729	3.22212	0	
2.9180	-13.3553	0.472208	0	
2.9187	-12.1281	0.472208	0	
2.9193	-13.0425	0.166661	0	
2.9200	-10.2992	-0.444431	0	
2.9207	-4.18707	0.777754	0	
2.9213	0.0721909	1.38885	0	
2.9220	0.986609	1.99994	0	
2.9227	2.83951	3.83321	0	
2.9233	7.70036	1.99994	0	
2.9240	14.7269	-2.27771	0	
2.9247	20.5263	-2.27771	0	
2.9253	22.0423	-0.138885	0	
2.9260	22.0423	-0.749977	0	
2.9267	21.7535	-2.27771	0	
2.9273	18.0959	-2.8888	0	
2.9280	13.4997	-3.19435	0	
2.9287	12.5853	-3.49989	0	
2.9293	14.1254	-5.02762	0	
