0.0000	-37.2741	1.46655	1
0.0007	-41.2496	2.98951	0	
0.0013	-40.3425	5.75339	0	
0.0020	-40.0223	4.82269	0	
0.0027	-39.4353	2.39725	0	
0.0033	-36.9806	4.23043	0	
0.0040	-31.8044	6.65588	0	
0.0047	-22.9461	6.06362	0	
0.0053	-16.2224	4.82269	0	
0.0060	-11.6598	3.29974	0	
0.0067	-0.667038	2.08701	0	
0.0073	8.19123	3.29974	0	
0.0080	8.19123	3.29974	0	
0.0087	12.7538	1.46655	0	
0.0093	23.1329	1.46655	0	
0.0100	27.4019	0.253826	0	
0.0107	31.671	-2.48185	0	
0.0113	33.8322	-1.26913	0	
0.0120	25.5876	0.564058	0	
0.0127	20.0912	-0.958898	0	
0.0133	23.7466	-1.26913	0	
0.0140	22.8394	-0.366638	0	
0.0147	17.0228	-1.26913	0	
0.0153	11.8466	-1.26913	0	
0.0160	5.73653	0.253826	0	
0.0167	1.46748	-1.26913	0	
0.0173	-2.80156	-2.79209	0	
0.0180	-12.567	-2.79209	0	
0.0187	-18.3569	-3.72278	0	
0.0193	-16.836	-4.03301	0	
0.0200	-19.2907	-4.03301	0	
0.0207	-24.1735	-4.93551	0	
0.0213	-22.0389	-3.41255	0	
0.0220	-21.1051	-0.366638	0	
0.0227	-28.4425	0.253826	0	
0.0233	-33.005	-0.366638	0	
0.0240	-29.3497	0.564058	0	
0.0247	-19.5842	-0.366638	0	
0.0253	-9.20513	-3.72278	0	
0.0260	-2.80156	-3.10232	0	
0.0267	-0.053363	0.253826	0	
0.0273	6.05671	0.87429	0	
0.0280	15.502	-1.57936	0	
0.0287	21.612	-3.10232	0	
0.0293	26.4948	-2.19983	0	
0.0300	35.0328	-1.26913	0	
0.0307	39.0084	-1.26913	0	
0.0313	34.7393	-1.88959	0	
0.0320	29.8566	-0.648667	0	
0.0327	28.3358	0.87429	0	
0.0333	28.3358	-0.958898	0	
0.0340	28.9495	-3.41255	0	
0.0347	26.4948	-3.41255	0	
0.0353	16.7293	-3.10232	0	
0.0360	7.57755	-2.79209	0	
0.0367	3.30851	-0.958898	0	
0.0373	-2.80156	-0.366638	0	
0.0380	-11.9533	-1.88959	0	
0.0387	-18.9706	-2.19983	0	
0.0393	-23.2396	-2.19983	0	
0.0400	-26.9217	-2.19983	0	
0.0407	-31.8044	-2.79209	0	
0.0413	-36.3669	-3.72278	0	
0.0420	-34.8461	-3.72278	0	
0.0427	-29.3497	-1.26913	0	
0.0433	-27.8288	2.39725	0	
0.0440	-27.5087	3.60997	0	
0.0447	-22.6259	2.39725	0	
0.0453	-16.836	0.564058	0	
0.0460	-11.0462	0.253826	0	
0.0467	-2.50806	0.564058	0	
0.0473	1.78766	-0.648667	0	
0.0480	5.12285	-1.88959	0	
0.0487	13.6876	-3.10232	0	
0.0493	21.9055	-4.31504	0	
0.0500	24.6537	-4.31504	0	
0.0507	27.4019	-3.41255	0	
0.0513	28.9495	-2.48185	0	
0.0520	27.7221	-2.79209	0	
0.0527	30.1501	-3.10232	0	
0.0533	31.9911	-2.79209	0	
0.0540	29.243	-2.19983	0	
0.0547	25.5876	-2.79209	0	
0.0553	19.184	-3.41255	0	
0.0560	9.0984	-4.93551	0	
0.0567	1.17399	-5.838	0	
0.0573	-4.93608	-3.41255	0	
0.0580	-13.7943	-0.366638	0	
0.0587	-21.7188	0.564058	0	
0.0593	-25.9878	2.39725	0	
0.0600	-28.1223	2.98951	0	
0.0607	-29.3497	0.564058	0	
0.0613	-32.3914	0.87429	0	
0.0620	-33.9389	3.9202	0	
0.0627	-33.005	4.82269	0	
0.0633	-33.6187	2.39725	0	
0.0640	-31.1907	0.87429	0	
0.0647	-21.4253	2.70748	0	
0.0653	-12.567	6.06362	0	
0.0660	-7.0706	5.75339	0	
0.0667	-0.053363	2.70748	0	
0.0673	6.3502	2.08701	0	
0.0680	12.1401	1.46655	0	
0.0687	20.7049	-0.0564058	0	
0.0693	26.4948	-0.958898	0	
0.0700	26.4948	-1.57936	0	
0.0707	28.0156	-1.88959	0	
0.0713	31.084	-0.648667	0	
0.0720	30.1501	-0.958898	0	
0.0727	28.6293	-2.48185	0	
0.0733	26.4948	-0.958898	0	
0.0740	22.8394	1.46655	0	
0.0747	20.3847	-0.648667	0	
0.0753	15.8221	-3.72278	0	
0.0760	5.44303	-2.48185	0	
0.0767	-3.41524	-0.366638	0	
0.0773	-8.29795	0.564058	0	
0.0780	-14.7015	2.08701	0	
0.0787	-21.7188	2.98951	0	
0.0793	-24.7871	1.77678	0	
0.0800	-26.6015	1.46655	0	
0.0807	-29.0562	1.46655	0	
0.0813	-31.1907	0.564058	0	
0.0820	-30.8705	1.46655	0	
0.0827	-28.4425	5.13293	0	
0.0833	-28.1223	6.06362	0	
0.0840	-28.736	5.13293	0	
0.0847	-22.6259	5.13293	0	
0.0853	-11.9533	4.82269	0	
0.0860	-5.54976	2.70748	0	
0.0867	-0.960535	2.98951	0	
0.0873	7.57755	4.23043	0	
0.0880	16.1156	1.46655	0	
0.0887	22.8394	-4.03301	0	
0.0893	30.1501	-5.24574	0	
0.0900	33.2185	-1.57936	0	
0.0907	32.8983	0.564058	0	
0.0913	32.8983	-1.26913	0	
0.0920	30.1501	-1.88959	0	
0.0927	26.2013	-0.0564058	0	
0.0933	26.4948	1.15632	0	
0.0940	28.3358	-0.0564058	0	
0.0947	23.1329	-0.366638	0	
0.0953	13.3674	1.15632	0	
0.0960	4.50918	1.46655	0	
0.0967	-2.80156	-1.26913	0	
0.0973	-11.0462	-4.03301	0	
0.0980	-18.3569	-2.19983	0	
0.0987	-24.1735	0.564058	0	
0.0993	-30.577	0.87429	0	
0.1000	-34.8461	2.39725	0	
0.1007	-34.8461	4.82269	0	
0.1013	-33.005	3.29974	0	
0.1020	-32.0979	1.46655	0	
0.1027	-29.9634	3.29974	0	
0.1033	-29.0562	3.9202	0	
0.1040	-28.4425	2.39725	0	
0.1047	-22.6259	3.29974	0	
0.1053	-16.836	3.9202	0	
0.1060	-13.4742	2.39725	0	
0.1067	-5.84325	3.29974	0	
0.1073	3.30851	3.60997	0	
0.1080	10.6192	1.15632	0	
0.1087	18.8638	1.46655	0	
0.1093	25.8811	2.98951	0	
0.1100	28.0156	0.253826	0	
0.1107	29.243	-2.19983	0	
0.1113	30.4703	-2.19983	0	
0.1120	31.671	-3.72278	0	
0.1127	34.4192	-4.93551	0	
0.1133	32.8983	-5.24574	0	
0.1140	25.8811	-7.38916	0	
0.1147	20.0912	-9.50437	0	
0.1153	13.0739	-7.67119	0	
0.1160	5.12285	-4.03301	0	
0.1167	1.17399	-0.648667	0	
0.1173	-4.93608	0.564058	0	
0.1180	-15.3152	-1.88959	0	
0.1187	-19.9044	-3.72278	0	
0.1193	-22.0389	-3.10232	0	
0.1200	-27.5087	-3.10232	0	
0.1207	-30.577	-3.10232	0	
0.1213	-31.1907	-2.79209	0	
0.1220	-30.8705	-0.366638	0	
0.1227	-27.5087	1.46655	0	
0.1233	-24.7871	-0.0564058	0	
0.1240	-24.7871	-2.19983	0	
0.1247	-21.7188	0.564058	0	
0.1253	-14.0878	1.15632	0	
0.1260	-6.45693	-2.79209	0	
0.1267	0.853809	-2.79209	0	
0.1273	8.19123	0.564058	0	
0.1280	13.6876	0.564058	0	
0.1287	17.6365	-1.26913	0	
0.1293	21.9055	-1.57936	0	
0.1300	28.0156	-1.26913	0	
0.1307	31.084	-0.0564058	0	
0.1313	29.5364	0.253826	0	
0.1320	30.1501	-3.10232	0	
0.1327	32.8983	-4.03301	0	
0.1333	30.7638	-0.366638	0	
0.1340	28.9495	0.253826	0	
0.1347	27.4019	-2.79209	0	
0.1353	16.4358	-2.48185	0	
0.1360	2.37466	-1.26913	0	
0.1367	-1.89439	-2.19983	0	
0.1373	-5.54976	-0.366638	0	
0.1380	-16.2224	1.15632	0	
0.1387	-26.308	0.253826	0	
0.1393	-33.005	1.46655	0	
0.1400	-39.4353	4.23043	0	
0.1407	-42.1568	3.60997	0	
0.1413	-43.3842	2.39725	0	
0.1420	-46.4525	5.13293	0	
0.1427	-45.8389	6.06362	0	
0.1433	-40.9561	5.13293	0	
0.1440	-34.8461	5.44316	0	
0.1447	-25.9878	4.82269	0	
0.1453	-16.5425	1.77678	0	
0.1460	-10.726	2.08701	0	
0.1467	-3.09506	4.23043	0	
0.1473	8.19123	2.08701	0	
0.1480	17.0228	-0.648667	0	
0.1487	21.9055	1.77678	0	
0.1493	25.5876	4.82269	0	
0.1500	27.4019	2.98951	0	
0.1507	31.3775	-0.366638	0	
0.1513	37.4875	-0.0564058	0	
0.1520	38.7149	-0.366638	0	
0.1527	36.2602	-3.10232	0	
0.1533	35.353	-4.31504	0	
0.1540	31.084	-2.19983	0	
0.1547	22.8394	-0.366638	0	
0.1553	17.343	-1.26913	0	
0.1560	12.7538	-2.19983	0	
0.1567	4.21568	-0.648667	0	
0.1573	-2.80156	-0.0564058	0	
0.1580	-8.29795	0.253826	0	
0.1587	-15.0217	0.87429	0	
0.1593	-20.1979	0.564058	0	
0.1600	-22.6259	-0.0564058	0	
0.1607	-25.6943	0.253826	0	
0.1613	-26.6015	0.564058	0	
0.1620	-24.1735	0.87429	0	
0.1627	-22.0389	1.77678	0	
0.1633	-20.8116	1.77678	0	
0.1640	-18.9706	-0.366638	0	
0.1647	-15.6087	-1.88959	0	
0.1653	-11.6598	-0.366638	0	
0.1660	-6.77711	0.87429	0	
0.1667	-0.053363	1.15632	0	
0.1673	10.6192	2.08701	0	
0.1680	21.612	1.77678	0	
0.1687	28.6293	-0.648667	0	
0.1693	31.9911	-1.26913	0	
0.1700	33.512	0.253826	0	
0.1707	36.8739	-0.0564058	0	
0.1713	39.0084	-0.366638	0	
0.1720	34.7393	0.564058	0	
0.1727	29.243	0.564058	0	
0.1733	28.9495	-1.26913	0	
0.1740	26.7882	-1.57936	0	
0.1747	19.4775	-0.366638	0	
0.1753	15.502	-0.366638	0	
0.1760	15.2085	-2.48185	0	
0.1767	7.57755	-2.48185	0	
0.1773	-6.16343	-0.0564058	0	
0.1780	-13.1807	0.564058	0	
0.1787	-15.6087	-0.648667	0	
0.1793	-25.6943	0.564058	0	
0.1800	-37.8878	2.70748	0	
0.1807	-39.7288	2.70748	0	
0.1813	-36.0734	2.39725	0	
0.1820	-35.7532	2.39725	0	
0.1827	-35.7532	-0.0564058	0	
0.1833	-33.6187	-0.366638	0	
0.1840	-29.6699	1.46655	0	
0.1847	-23.8533	1.46655	0	
0.1853	-17.4497	1.46655	0	
0.1860	-10.4325	2.39725	0	
0.1867	-2.80156	1.15632	0	
0.1873	2.69483	-1.26913	0	
0.1880	7.25737	0.564058	0	
0.1887	13.3674	1.46655	0	
0.1893	20.9984	-3.10232	0	
0.1900	24.6537	-4.31504	0	
0.1907	25.5876	-0.366638	0	
0.1913	26.4948	0.253826	0	
0.1920	26.2013	-2.79209	0	
0.1927	24.3602	-1.57936	0	
0.1933	24.6537	0.564058	0	
0.1940	25.2674	-0.366638	0	
0.1947	19.184	-1.26913	0	
0.1953	6.05671	-2.19983	0	
0.1960	-4.02891	-1.88959	0	
0.1967	-6.45693	-0.958898	0	
0.1973	-7.97778	-0.366638	0	
0.1980	-18.0634	1.15632	0	
0.1987	-30.577	1.77678	0	
0.1993	-34.8461	0.564058	0	
0.2000	-33.3252	-0.366638	0	
0.2007	-34.2324	-0.0564058	0	
0.2013	-36.6871	-1.57936	0	
0.2020	-38.5014	-2.19983	0	
0.2027	-38.2079	-0.648667	0	
0.2033	-35.1396	0.564058	0	
0.2040	-32.7115	2.08701	0	
0.2047	-29.0562	3.29974	0	
0.2053	-18.3569	1.77678	0	
0.2060	-7.97778	-0.958898	0	
0.2067	-4.64259	-1.26913	0	
0.2073	1.17399	-1.26913	0	
0.2080	11.8466	-1.57936	0	
0.2087	18.2502	-0.648667	0	
0.2093	20.9984	-0.0564058	0	
0.2100	25.8811	-1.88959	0	
0.2107	31.084	-4.03301	0	
0.2113	34.7393	-4.03301	0	
0.2120	31.3775	-1.88959	0	
0.2127	25.2674	-2.79209	0	
0.2133	28.6293	-5.55597	0	
0.2140	34.7393	-5.24574	0	
0.2147	29.243	-3.72278	0	
0.2153	20.7049	-4.31504	0	
0.2160	13.9811	-5.24574	0	
0.2167	2.37466	-3.10232	0	
0.2173	-11.0462	-0.648667	0	
0.2180	-18.0634	-0.0564058	0	
0.2187	-22.3324	0.253826	0	
0.2193	-25.3741	-0.0564058	0	
0.2200	-28.1223	-0.366638	0	
0.2207	-32.7115	0.87429	0	
0.2213	-35.1396	2.98951	0	
0.2220	-33.6187	3.29974	0	
0.2227	-30.8705	2.98951	0	
0.2233	-26.308	4.51246	0	
0.2240	-21.1051	5.75339	0	
0.2247	-18.0634	3.29974	0	
0.2253	-12.567	0.564058	0	
0.2260	-2.80156	0.564058	0	
0.2267	2.37466	0.253826	0	
0.2273	3.60201	0.564058	0	
0.2280	9.41858	2.98951	0	
0.2287	17.9567	3.29974	0	
0.2293	20.9984	-0.366638	0	
0.2300	22.8394	-1.26913	0	
0.2307	28.9495	0.564058	0	
0.2313	32.8983	-0.648667	0	
0.2320	31.9911	-3.10232	0	
0.2327	32.8983	-2.19983	0	
0.2333	34.1257	-0.648667	0	
0.2340	27.7221	-1.26913	0	
0.2347	20.0912	0.253826	0	
0.2353	17.9567	0.87429	0	
0.2360	12.4603	-0.648667	0	
0.2367	2.69483	0.253826	0	
0.2373	-3.41524	0.564058	0	
0.2380	-9.5253	-2.48185	0	
0.2387	-18.6771	-0.958898	0	
0.2393	-22.9461	3.60997	0	
0.2400	-22.9461	1.15632	0	
0.2407	-28.1223	-1.88959	0	
0.2413	-33.9389	2.08701	0	
0.2420	-32.0979	4.82269	0	
0.2427	-27.5087	3.9202	0	
0.2433	-27.5087	4.23043	0	
0.2440	-26.6015	3.60997	0	
0.2447	-21.1051	1.46655	0	
0.2453	-13.7943	1.77678	0	
0.2460	-7.0706	2.39725	0	
0.2467	0.240134	-0.366638	0	
0.2473	10.6192	-3.10232	0	
0.2480	18.2502	-2.79209	0	
0.2487	20.3847	-3.10232	0	
0.2493	24.3602	-4.31504	0	
0.2500	32.8983	-4.62527	0	
0.2507	37.4875	-4.31504	0	
0.2513	34.1257	-4.03301	0	
0.2520	28.3358	-0.366638	0	
0.2527	24.3602	1.77678	0	
0.2533	27.4019	-2.19983	0	
0.2540	31.9911	-3.72278	0	
0.2547	26.7882	0.253826	0	
0.2553	15.502	-0.366638	0	
0.2560	7.25737	-3.10232	0	
0.2567	-2.50806	0.253826	0	
0.2573	-13.1807	1.77678	0	
0.2580	-16.5425	-2.79209	0	
0.2587	-17.4497	-4.03301	0	
0.2593	-22.9461	-1.26913	0	
0.2600	-26.9217	-0.366638	0	
0.2607	-26.6015	0.87429	0	
0.2613	-29.0562	0.564058	0	
0.2620	-31.8044	-2.19983	0	
0.2627	-27.2152	0.564058	0	
0.2633	-22.9461	5.13293	0	
0.2640	-23.8533	2.39725	0	
0.2647	-20.4914	-0.958898	0	
0.2653	-10.139	1.15632	0	
0.2660	-3.41524	0.564058	0	
0.2667	1.78766	-2.19983	0	
0.2673	11.2329	-0.366638	0	
0.2680	19.184	-0.648667	0	
0.2687	22.8394	-4.03301	0	
0.2693	26.7882	-4.03301	0	
0.2700	31.084	-3.10232	0	
0.2707	34.7393	-4.93551	0	
0.2713	37.4875	-4.93551	0	
0.2720	37.4875	-4.03301	0	
0.2727	35.6465	-4.93551	0	
0.2733	33.8322	-4.03301	0	
0.2740	29.243	-1.26913	0	
0.2747	23.4531	-2.19983	0	
0.2753	18.8638	-1.88959	0	
0.2760	12.7538	0.87429	0	
0.2767	3.60201	-1.26913	0	
0.2773	-7.39078	-3.72278	0	
0.2780	-19.2907	-2.19983	0	
0.2787	-28.4425	-1.26913	0	
0.2793	-33.9389	-2.19983	0	
0.2800	-37.2741	-0.366638	0	
0.2807	-36.6871	2.98951	0	
0.2813	-36.3669	3.9202	0	
0.2820	-37.5943	2.70748	0	
0.2827	-37.5943	1.46655	0	
0.2833	-35.1396	2.39725	0	
0.2840	-33.3252	3.60997	0	
0.2847	-29.9634	2.39725	0	
0.2853	-22.0389	-0.648667	0	
0.2860	-12.8605	-0.958898	0	
0.2867	-6.16343	1.15632	0	
0.2873	-0.053363	1.46655	0	
0.2880	7.25737	-3.10232	0	
0.2887	14.5948	-5.838	0	
0.2893	20.9984	-0.0564058	0	
0.2900	28.6293	5.13293	0	
0.2907	36.5537	1.46655	0	
0.2913	37.4875	-1.88959	0	
0.2920	31.9911	-0.366638	0	
0.2927	27.7221	-2.19983	0	
0.2933	25.5876	-4.31504	0	
0.2940	21.3185	-0.648667	0	
0.2947	14.8883	2.98951	0	
0.2953	9.0984	-0.0564058	0	
0.2960	3.60201	-2.19983	0	
0.2967	-0.960535	1.46655	0	
0.2973	-3.09506	2.70748	0	
0.2980	-3.41524	0.253826	0	
0.2987	-8.91163	-0.366638	0	
0.2993	-24.1735	1.77678	0	
0.3000	-38.2079	2.39725	0	
0.3007	-41.2496	3.29974	0	
0.3013	-39.1151	5.75339	0	
0.3020	-38.5014	6.34565	0	
0.3027	-37.2741	4.23043	0	
0.3033	-34.5526	2.08701	0	
0.3040	-28.1223	0.564058	0	
0.3047	-16.836	-0.648667	0	
0.3053	-6.45693	-0.366638	0	
0.3060	0.853809	0.253826	0	
0.3067	8.19123	-1.57936	0	
0.3073	13.3674	-3.41255	0	
0.3080	16.4358	-1.26913	0	
0.3087	23.4531	1.15632	0	
0.3093	30.1501	-0.0564058	0	
0.3100	31.9911	-2.19983	0	
0.3107	34.7393	-1.57936	0	
0.3113	37.781	-0.366638	0	
0.3120	36.5537	-0.648667	0	
0.3127	37.1674	-1.26913	0	
0.3133	38.3947	-1.57936	0	
0.3140	31.671	-3.10232	0	
0.3147	21.612	-4.93551	0	
0.3153	16.4358	-5.838	0	
0.3160	10.9394	-4.31504	0	
0.3167	1.78766	-1.26913	0	
0.3173	-4.93608	-0.0564058	0	
0.3180	-11.3396	-1.57936	0	
0.3187	-19.5842	-1.26913	0	
0.3193	-24.467	-0.366638	0	
0.3200	-27.5087	-2.79209	0	
0.3207	-32.0979	-2.19983	0	
0.3213	-33.005	2.98951	0	
0.3220	-31.8044	3.60997	0	
0.3227	-33.005	-0.366638	0	
0.3233	-32.0979	-0.648667	0	
0.3240	-24.7871	0.564058	0	
0.3247	-18.3569	-0.366638	0	
0.3253	-14.0878	-0.648667	0	
0.3260	-6.45693	0.253826	0	
0.3267	-0.667038	-0.958898	0	
0.3273	1.17399	-1.26913	0	
0.3280	8.19123	0.253826	0	
0.3287	20.0912	-0.366638	0	
0.3293	28.0156	-2.79209	0	
0.3300	30.4703	-3.72278	0	
0.3307	33.512	-2.79209	0	
0.3313	34.7393	-1.26913	0	
0.3320	30.4703	-0.366638	0	
0.3327	25.8811	-0.0564058	0	
0.3333	24.3602	0.253826	0	
0.3340	23.7466	0.253826	0	
0.3347	20.9984	-1.26913	0	
0.3353	13.3674	-2.19983	0	
0.3360	2.69483	-1.26913	0	
0.3367	-4.64259	0.564058	0	
0.3373	-8.91163	1.15632	0	
0.3380	-13.7943	0.87429	0	
0.3387	-21.1051	-0.0564058	0	
0.3393	-27.5087	-1.26913	0	
0.3400	-31.1907	-0.366638	0	
0.3407	-31.8044	1.77678	0	
0.3413	-31.8044	2.08701	0	
0.3420	-31.8044	-1.26913	0	
0.3427	-30.2568	-2.48185	0	
0.3433	-28.4425	0.253826	0	
0.3440	-24.7871	0.87429	0	
0.3447	-19.2907	-1.88959	0	
0.3453	-15.0217	-0.366638	0	
0.3460	-11.3396	2.39725	0	
0.3467	-2.80156	-0.648667	0	
0.3473	7.57755	-3.41255	0	
0.3480	13.6876	0.253826	0	
0.3487	17.9567	2.39725	0	
0.3493	23.7466	0.564058	0	
0.3500	28.0156	0.564058	0	
0.3507	33.8322	0.253826	0	
0.3513	41.7566	-2.79209	0	
0.3520	43.8911	-3.72278	0	
0.3527	35.9667	-3.10232	0	
0.3533	26.4948	-4.03301	0	
0.3540	20.0912	-5.55597	0	
0.3547	13.6876	-4.93551	0	
0.3553	6.3502	-4.03301	0	
0.3560	0.560312	-3.10232	0	
0.3567	-5.54976	-3.10232	0	
0.3573	-11.6598	-4.03301	0	
0.3580	-15.6087	-2.19983	0	
0.3587	-21.7188	1.77678	0	
0.3593	-31.1907	1.46655	0	
0.3600	-36.9806	-3.10232	0	
0.3607	-34.5526	-2.48185	0	
0.3613	-31.4842	2.98951	0	
0.3620	-35.7532	4.23043	0	
0.3627	-40.9561	-0.0564058	0	
0.3633	-36.6871	-0.958898	0	
0.3640	-25.6943	1.46655	0	
0.3647	-17.1562	2.98951	0	
0.3653	-13.7943	2.98951	0	
0.3660	-10.139	2.08701	0	
0.3667	-2.80156	0.253826	0	
0.3673	5.12285	1.46655	0	
0.3680	10.9394	5.13293	0	
0.3687	17.343	5.44316	0	
0.3693	23.7466	3.60997	0	
0.3700	25.5876	2.98951	0	
0.3707	28.3358	2.98951	0	
0.3713	35.353	4.23043	0	
0.3720	35.9667	4.23043	0	
0.3727	28.6293	2.70748	0	
0.3733	25.8811	1.46655	0	
0.3740	26.7882	2.98951	0	
0.3747	23.7466	2.39725	0	
0.3753	19.184	-1.88959	0	
0.3760	14.5948	-4.03301	0	
0.3767	5.12285	-2.48185	0	
0.3773	-2.80156	-0.0564058	0	
0.3780	-4.64259	1.46655	0	
0.3787	-7.97778	1.15632	0	
0.3793	-15.3152	0.87429	0	
0.3800	-22.0389	1.15632	0	
0.3807	-26.308	0.87429	0	
0.3813	-27.2152	-1.88959	0	
0.3820	-24.467	-2.79209	0	
0.3827	-21.1051	0.564058	0	
0.3833	-20.1979	2.98951	0	
0.3840	-16.5425	2.39725	0	
0.3847	-7.0706	2.39725	0	
0.3853	2.69483	1.46655	0	
0.3860	5.73653	-2.79209	0	
0.3867	4.21568	-3.41255	0	
0.3873	7.87105	-0.648667	0	
0.3880	18.2502	0.564058	0	
0.3887	23.7466	1.77678	0	
0.3893	22.2257	1.46655	0	
0.3900	26.4948	-3.10232	0	
0.3907	35.353	-4.03301	0	
0.3913	35.0328	-1.88959	0	
0.3920	30.4703	-2.19983	0	
0.3927	31.9911	-3.41255	0	
0.3933	30.1501	-2.79209	0	
0.3940	21.612	-4.03301	0	
0.3947	15.502	-5.55597	0	
0.3953	10.9394	-4.03301	0	
0.3960	1.78766	-2.19983	0	
0.3967	-4.64259	-2.19983	0	
0.3973	-10.139	-2.48185	0	
0.3980	-20.1979	-3.10232	0	
0.3987	-27.8288	-2.79209	0	
0.3993	-31.1907	-0.0564058	0	
0.4000	-35.7532	1.77678	0	
0.4007	-38.2079	1.46655	0	
0.4013	-38.5014	0.564058	0	
0.4020	-39.1151	-0.366638	0	
0.4027	-36.0734	-1.26913	0	
0.4033	-33.6187	-0.0564058	0	
0.4040	-35.7532	0.564058	0	
0.4047	-34.8461	-0.958898	0	
0.4053	-25.6943	1.15632	0	
0.4060	-15.9289	4.51246	0	
0.4067	-8.91163	1.46655	0	
0.4073	-2.80156	-2.19983	0	
0.4080	4.50918	-0.366638	0	
0.4087	14.5948	0.253826	0	
0.4093	20.0912	-1.26913	0	
0.4100	21.9055	-0.366638	0	
0.4107	27.4019	-0.958898	0	
0.4113	32.6048	-3.41255	0	
0.4120	31.084	-2.19983	0	
0.4127	30.1501	-1.57936	0	
0.4133	30.4703	-3.72278	0	
0.4140	28.0156	-3.10232	0	
0.4147	24.0667	-1.57936	0	
0.4153	18.2502	-1.57936	0	
0.4160	7.25737	-0.366638	0	
0.4167	-2.18788	0.564058	0	
0.4173	-7.0706	-1.26913	0	
0.4180	-11.9533	-2.19983	0	
0.4187	-22.0389	0.564058	0	
0.4193	-31.4842	1.46655	0	
0.4200	-30.8705	-0.648667	0	
0.4207	-28.4425	-0.958898	0	
0.4213	-34.2324	0.564058	0	
0.4220	-37.5943	1.77678	0	
0.4227	-33.005	3.29974	0	
0.4233	-31.1907	2.98951	0	
0.4240	-28.4425	1.15632	0	
0.4247	-19.2907	2.70748	0	
0.4253	-12.567	8.7993	0	
0.4260	-10.4325	11.8452	0	
0.4267	-5.54976	8.48907	0	
0.4273	1.78766	4.23043	0	
0.4280	12.1401	4.51246	0	
0.4287	22.5192	5.75339	0	
0.4293	26.2013	2.98951	0	
0.4300	27.4019	0.564058	0	
0.4307	33.2185	1.77678	0	
0.4313	35.9667	2.08701	0	
0.4320	31.9911	-0.366638	0	
0.4327	29.5364	-2.19983	0	
0.4333	30.1501	-2.19983	0	
0.4340	28.3358	-0.366638	0	
0.4347	24.9739	0.253826	0	
0.4353	20.3847	-2.19983	0	
0.4360	11.8466	-1.57936	0	
0.4367	-0.053363	1.46655	0	
0.4373	-11.0462	1.15632	0	
0.4380	-19.5842	-0.366638	0	
0.4387	-23.8533	-0.0564058	0	
0.4393	-23.8533	-0.648667	0	
0.4400	-22.9461	-0.958898	0	
0.4407	-23.8533	-0.366638	0	
0.4413	-28.4425	-1.57936	0	
0.4420	-31.4842	-1.88959	0	
0.4427	-28.736	0.87429	0	
0.4433	-30.2568	2.98951	0	
0.4440	-39.7288	3.60997	0	
0.4447	-41.2496	3.29974	0	
0.4453	-31.1907	2.70748	0	
0.4460	-21.1051	3.29974	0	
0.4467	-10.139	3.29974	0	
0.4473	2.37466	2.39725	0	
0.4480	6.96388	1.77678	0	
0.4487	9.0984	0.564058	0	
0.4493	18.2502	-0.958898	0	
0.4500	25.5876	-1.88959	0	
0.4507	29.243	-2.19983	0	
0.4513	34.4192	-3.10232	0	
0.4520	35.6465	-3.10232	0	
0.4527	31.9911	-3.10232	0	
0.4533	31.671	-1.88959	0	
0.4540	31.9911	0.564058	0	
0.4547	24.3602	0.564058	0	
0.4553	15.8221	-2.48185	0	
0.4560	11.8466	-4.03301	0	
0.4567	5.44303	-4.03301	0	
0.4573	-3.70873	-2.79209	0	
0.4580	-11.9533	0.564058	0	
0.4587	-18.9706	1.46655	0	
0.4593	-24.7871	0.564058	0	
0.4600	-27.2152	1.46655	0	
0.4607	-30.2568	2.08701	0	
0.4613	-36.3669	0.564058	0	
0.4620	-39.4353	-0.0564058	0	
0.4627	-34.8461	2.08701	0	
0.4633	-29.3497	1.77678	0	
0.4640	-27.5087	-0.648667	0	
0.4647	-23.5598	-0.366638	0	
0.4653	-14.408	1.46655	0	
0.4660	-6.45693	-0.366638	0	
0.4667	-3.70873	-2.19983	0	
0.4673	1.78766	-0.648667	0	
0.4680	13.9811	-0.366638	0	
0.4687	23.7466	-2.48185	0	
0.4693	28.3358	-4.03301	0	
0.4700	32.2846	-4.03301	0	
0.4707	35.0328	-4.03301	0	
0.4713	33.512	-3.41255	0	
0.4720	28.6293	-2.79209	0	
0.4727	21.9055	-1.26913	0	
0.4733	16.1156	1.46655	0	
0.4740	16.4358	1.15632	0	
0.4747	16.4358	-2.19983	0	
0.4753	9.71207	-4.31504	0	
0.4760	2.98833	-4.03301	0	
0.4767	-0.667038	-1.57936	0	
0.4773	-8.29795	1.15632	0	
0.4780	-15.3152	-0.366638	0	
0.4787	-17.4497	-3.10232	0	
0.4793	-22.0389	-3.10232	0	
0.4800	-29.3497	-1.26913	0	
0.4807	-32.0979	0.564058	0	
0.4813	-33.005	0.564058	0	
0.4820	-31.1907	-1.26913	0	
0.4827	-26.9217	-0.648667	0	
0.4833	-26.9217	1.46655	0	
0.4840	-25.6943	-1.26913	0	
0.4847	-15.3152	-4.62527	0	
0.4853	-5.54976	-3.10232	0	
0.4860	-0.053363	-0.366638	0	
0.4867	7.25737	-2.19983	0	
0.4873	13.0739	-4.03301	0	
0.4880	17.9567	-3.41255	0	
0.4887	25.8811	-3.10232	0	
0.4893	30.4703	-4.62527	0	
0.4900	32.8983	-4.93551	0	
0.4907	40.5292	-3.41255	0	
0.4913	42.3703	-4.03301	0	
0.4920	34.1257	-5.55597	0	
0.4927	31.9911	-4.62527	0	
0.4933	31.9911	-2.19983	0	
0.4940	19.771	-0.958898	0	
0.4947	9.71207	-0.0564058	0	
0.4953	10.0056	1.46655	0	
0.4960	7.25737	2.39725	0	
0.4967	-0.373541	1.46655	0	
0.4973	-4.32241	1.15632	0	
0.4980	-8.29795	1.46655	0	
0.4987	-15.6087	2.39725	0	
0.4993	-21.1051	3.9202	0	
0.5000	-24.7871	4.23043	0	
0.5007	-25.9878	2.70748	0	
0.5013	-23.5598	1.46655	0	
0.5020	-22.9461	2.39725	0	
0.5027	-25.6943	3.60997	0	
0.5033	-25.6943	2.98951	0	
0.5040	-22.0389	1.46655	0	
0.5047	-18.0634	1.15632	0	
0.5053	-11.9533	0.253826	0	
0.5060	-4.93608	-0.0564058	0	
0.5067	2.08116	-0.0564058	0	
0.5073	12.1401	-1.26913	0	
0.5080	20.0912	-1.26913	0	
0.5087	21.3185	1.77678	0	
0.5093	25.5876	1.46655	0	
0.5100	34.7393	-2.79209	0	
0.5107	37.1674	-2.19983	0	
0.5113	33.8322	-0.366638	0	
0.5120	34.1257	-3.72278	0	
0.5127	35.6465	-4.31504	0	
0.5133	30.1501	-2.79209	0	
0.5140	20.0912	-4.62527	0	
0.5147	12.7538	-4.93551	0	
0.5153	9.0984	-3.10232	0	
0.5160	4.50918	-5.55597	0	
0.5167	-1.57421	-8.29165	0	
0.5173	-8.91163	-4.03301	0	
0.5180	-15.6087	-0.0564058	0	
0.5187	-19.9044	0.253826	0	
0.5193	-23.2396	1.46655	0	
0.5200	-27.5087	2.70748	0	
0.5207	-31.1907	1.46655	0	
0.5213	-36.3669	-1.26913	0	
0.5220	-38.5014	-1.26913	0	
0.5227	-36.0734	1.77678	0	
0.5233	-33.9389	4.51246	0	
0.5240	-30.577	3.60997	0	
0.5247	-22.3324	2.70748	0	
0.5253	-17.4497	4.23043	0	
0.5260	-15.6087	4.23043	0	
0.5267	-5.54976	2.39725	0	
0.5273	3.92218	2.39725	0	
0.5280	7.25737	2.08701	0	
0.5287	14.8883	-0.958898	0	
0.5293	23.7466	-2.79209	0	
0.5300	27.1084	-0.0564058	0	
0.5307	32.8983	1.15632	0	
0.5313	39.3019	-3.10232	0	
0.5320	39.3019	-6.14823	0	
0.5327	37.781	-4.31504	0	
0.5333	34.1257	-0.958898	0	
0.5340	23.7466	2.39725	0	
0.5347	13.6876	2.98951	0	
0.5353	7.25737	2.39725	0	
0.5360	2.98833	1.77678	0	
0.5367	-1.89439	0.87429	0	
0.5373	-11.0462	1.46655	0	
0.5380	-18.9706	3.9202	0	
0.5387	-20.1979	2.70748	0	
0.5393	-22.9461	0.87429	0	
0.5400	-29.3497	2.39725	0	
0.5407	-31.4842	2.98951	0	
0.5413	-31.1907	0.564058	0	
0.5420	-32.0979	0.564058	0	
0.5427	-31.1907	3.29974	0	
0.5433	-29.9634	4.23043	0	
0.5440	-26.6015	3.9202	0	
0.5447	-20.1979	2.39725	0	
0.5453	-14.0878	1.46655	0	
0.5460	-5.84325	2.08701	0	
0.5467	2.69483	2.98951	0	
0.5473	5.12285	3.60997	0	
0.5480	8.19123	3.60997	0	
0.5487	20.0912	1.77678	0	
0.5493	28.3358	0.253826	0	
0.5500	26.7882	-0.958898	0	
0.5507	28.3358	-1.88959	0	
0.5513	31.9911	-0.366638	0	
0.5520	28.6293	0.564058	0	
0.5527	23.4531	-1.26913	0	
0.5533	21.9055	-2.19983	0	
0.5540	20.9984	-0.648667	0	
0.5547	17.343	-1.57936	0	
0.5553	10.9394	-2.19983	0	
0.5560	2.69483	-1.88959	0	
0.5567	-2.50806	-4.03301	0	
0.5573	-5.25626	-5.838	0	
0.5580	-11.9533	-2.79209	0	
0.5587	-21.1051	-0.958898	0	
0.5593	-27.5087	-2.79209	0	
0.5600	-31.4842	-1.88959	0	
0.5607	-32.0979	0.87429	0	
0.5613	-29.3497	0.564058	0	
0.5620	-26.9217	-0.366638	0	
0.5627	-25.6943	-0.0564058	0	
0.5633	-22.0389	-0.366638	0	
0.5640	-18.3569	-0.366638	0	
0.5647	-19.2907	0.87429	0	
0.5653	-19.2907	0.253826	0	
0.5660	-12.8605	-0.648667	0	
0.5667	-6.45693	-1.26913	0	
0.5673	-1.28071	-3.72278	0	
0.5680	7.25737	-4.03301	0	
0.5687	16.4358	-1.26913	0	
0.5693	20.3847	-1.26913	0	
0.5700	23.7466	-3.72278	0	
0.5707	27.4019	-3.10232	0	
0.5713	28.3358	-3.10232	0	
0.5720	29.5364	-4.03301	0	
0.5727	29.5364	-0.648667	0	
0.5733	25.5876	-0.366638	0	
0.5740	21.9055	-4.03301	0	
0.5747	17.9567	-2.79209	0	
0.5753	10.0056	0.564058	0	
0.5760	5.44303	-1.26913	0	
0.5767	3.30851	-2.19983	0	
0.5773	-6.45693	-0.0564058	0	
0.5780	-17.7432	1.15632	0	
0.5787	-21.4253	0.87429	0	
0.5793	-22.3324	1.46655	0	
0.5800	-24.7871	0.87429	0	
0.5807	-26.6015	-2.19983	0	
0.5813	-28.736	-3.41255	0	
0.5820	-29.6699	-1.26913	0	
0.5827	-28.736	1.15632	0	
0.5833	-25.6943	0.564058	0	
0.5840	-21.1051	-2.19983	0	
0.5847	-16.836	-3.41255	0	
0.5853	-10.726	-0.648667	0	
0.5860	-0.960535	4.23043	0	
0.5867	8.48472	5.13293	0	
0.5873	16.4358	3.29974	0	
0.5880	21.3185	2.70748	0	
0.5887	20.9984	1.15632	0	
0.5893	23.4531	-2.19983	0	
0.5900	31.9911	-2.48185	0	
0.5907	35.9667	0.564058	0	
0.5913	34.7393	1.15632	0	
0.5920	35.9667	-1.26913	0	
0.5927	35.0328	-2.79209	0	
0.5933	30.1501	-3.10232	0	
0.5940	27.1084	-2.19983	0	
0.5947	21.612	-0.0564058	0	
0.5953	10.0056	1.15632	0	
0.5960	-0.053363	-0.366638	0	
0.5967	-8.29795	-0.958898	0	
0.5973	-16.5425	-0.366638	0	
0.5980	-20.1979	-1.26913	0	
0.5987	-22.9461	-2.48185	0	
0.5993	-28.1223	-2.48185	0	
0.6000	-29.3497	-2.48185	0	
0.6007	-30.577	-2.19983	0	
0.6013	-34.5526	-1.26913	0	
0.6020	-30.8705	-1.88959	0	
0.6027	-22.9461	-2.48185	0	
0.6033	-22.9461	-0.648667	0	
0.6040	-24.1735	0.564058	0	
0.6047	-18.9706	-1.26913	0	
0.6053	-11.0462	-1.57936	0	
0.6060	-2.50806	-1.26913	0	
0.6067	4.82936	-1.88959	0	
0.6073	10.0056	-0.958898	0	
0.6080	17.343	-0.366638	0	
0.6087	24.9739	-0.366638	0	
0.6093	27.1084	0.253826	0	
0.6100	28.9495	0.564058	0	
0.6107	32.8983	-0.366638	0	
0.6113	31.671	-1.26913	0	
0.6120	28.3358	-1.26913	0	
0.6127	28.9495	-0.958898	0	
0.6133	29.243	0.253826	0	
0.6140	24.6537	1.15632	0	
0.6147	18.2502	0.564058	0	
0.6153	10.0056	-0.0564058	0	
0.6160	2.98833	-0.366638	0	
0.6167	0.240134	0.564058	0	
0.6173	-5.54976	1.15632	0	
0.6180	-15.9289	1.15632	0	
0.6187	-23.5598	2.08701	0	
0.6193	-29.3497	3.29974	0	
0.6200	-36.9806	2.98951	0	
0.6207	-41.2496	4.23043	0	
0.6213	-39.7288	5.13293	0	
0.6220	-38.2079	3.60997	0	
0.6227	-37.2741	3.9202	0	
0.6233	-33.6187	4.51246	0	
0.6240	-29.0562	3.29974	0	
0.6247	-23.8533	4.51246	0	
0.6253	-16.2224	6.06362	0	
0.6260	-7.97778	2.39725	0	
0.6267	-1.57421	0.253826	0	
0.6273	5.73653	2.39725	0	
0.6280	14.8883	2.39725	0	
0.6287	22.2257	-0.958898	0	
0.6293	27.1084	-1.88959	0	
0.6300	31.671	-1.26913	0	
0.6307	35.6465	-2.19983	0	
0.6313	37.781	-4.03301	0	
0.6320	36.5537	-3.41255	0	
0.6327	33.2185	-0.648667	0	
0.6333	30.7638	-1.88959	0	
0.6340	26.4948	-2.79209	0	
0.6347	19.184	1.46655	0	
0.6353	10.9394	3.29974	0	
0.6360	4.50918	0.87429	0	
0.6367	0.560312	1.77678	0	
0.6373	-1.89439	2.98951	0	
0.6380	-10.139	1.15632	0	
0.6387	-23.8533	1.46655	0	
0.6393	-29.3497	2.08701	0	
0.6400	-27.8288	-0.0564058	0	
0.6407	-32.0979	-0.0564058	0	
0.6413	-35.7532	0.564058	0	
0.6420	-33.9389	0.253826	0	
0.6427	-33.005	1.46655	0	
0.6433	-29.6699	1.46655	0	
0.6440	-21.1051	-1.26913	0	
0.6447	-15.3152	-1.57936	0	
0.6453	-11.0462	-0.366638	0	
0.6460	-5.84325	-1.26913	0	
0.6467	-5.84325	-1.57936	0	
0.6473	-2.80156	-0.648667	0	
0.6480	9.71207	-1.57936	0	
0.6487	17.343	-1.26913	0	
0.6493	17.0228	2.39725	0	
0.6500	22.5192	1.46655	0	
0.6507	28.9495	-3.10232	0	
0.6513	29.243	-4.03301	0	
0.6520	30.7638	-2.19983	0	
0.6527	32.6048	-1.26913	0	
0.6533	30.1501	-0.958898	0	
0.6540	28.3358	-0.648667	0	
0.6547	26.2013	-0.958898	0	
0.6553	21.9055	-0.0564058	0	
0.6560	17.343	2.08701	0	
0.6567	8.19123	2.39725	0	
0.6573	-4.64259	0.253826	0	
0.6580	-13.1807	-1.26913	0	
0.6587	-16.5425	-0.0564058	0	
0.6593	-20.8116	2.08701	0	
0.6600	-24.1735	2.98951	0	
0.6607	-27.5087	2.70748	0	
0.6613	-29.9634	1.46655	0	
0.6620	-27.2152	0.253826	0	
0.6627	-23.5598	0.564058	0	
0.6633	-21.4253	4.23043	0	
0.6640	-16.2224	5.13293	0	
0.6647	-9.20513	2.08701	0	
0.6653	-6.45693	0.564058	0	
0.6660	-2.50806	2.08701	0	
0.6667	6.05671	2.08701	0	
0.6673	12.7538	-0.958898	0	
0.6680	15.502	-2.19983	0	
0.6687	21.9055	-0.0564058	0	
0.6693	32.2846	2.70748	0	
0.6700	35.9667	2.98951	0	
0.6707	32.6048	0.87429	0	
0.6713	32.8983	-0.648667	0	
0.6720	35.6465	-1.26913	0	
0.6727	32.2846	-0.958898	0	
0.6733	27.7221	0.564058	0	
0.6740	23.7466	0.253826	0	
0.6747	15.2085	-0.366638	0	
0.6753	7.25737	0.564058	0	
0.6760	4.50918	1.46655	0	
0.6767	-0.960535	1.77678	0	
0.6773	-11.0462	3.29974	0	
0.6780	-18.6771	2.39725	0	
0.6787	-23.5598	-0.366638	0	
0.6793	-28.1223	-0.648667	0	
0.6800	-29.9634	0.87429	0	
0.6807	-31.4842	1.15632	0	
0.6813	-34.8461	1.46655	0	
0.6820	-35.7532	2.08701	0	
0.6827	-33.9389	3.60997	0	
0.6833	-33.6187	5.13293	0	
0.6840	-31.4842	4.23043	0	
0.6847	-23.2396	2.39725	0	
0.6853	-13.1807	2.39725	0	
0.6860	-5.54976	2.08701	0	
0.6867	-0.667038	2.08701	0	
0.6873	3.92218	3.29974	0	
0.6880	9.41858	2.39725	0	
0.6887	15.2085	2.08701	0	
0.6893	21.612	2.39725	0	
0.6900	28.0156	0.253826	0	
0.6907	29.243	-0.958898	0	
0.6913	28.0156	0.253826	0	
0.6920	33.512	-2.48185	0	
0.6927	35.6465	-4.03301	0	
0.6933	26.2013	1.15632	0	
0.6940	18.8638	2.08701	0	
0.6947	20.0912	-1.26913	0	
0.6953	16.1156	-0.366638	0	
0.6960	5.44303	-0.648667	0	
0.6967	-1.89439	-4.31504	0	
0.6973	-7.0706	-3.41255	0	
0.6980	-12.8605	-0.648667	0	
0.6987	-21.1051	-2.48185	0	
0.6993	-29.9634	-3.10232	0	
0.7000	-34.8461	-1.26913	0	
0.7007	-35.7532	-1.57936	0	
0.7013	-36.9806	-0.958898	0	
0.7020	-36.6871	0.87429	0	
0.7027	-33.6187	-1.26913	0	
0.7033	-30.2568	-2.48185	0	
0.7040	-26.6015	0.564058	0	
0.7047	-22.0389	0.87429	0	
0.7053	-15.6087	-0.0564058	0	
0.7060	-3.70873	2.39725	0	
0.7067	3.60201	2.39725	0	
0.7073	3.30851	-2.19983	0	
0.7080	8.8049	-4.62527	0	
0.7087	20.0912	-4.03301	0	
0.7093	22.2257	-4.03301	0	
0.7100	19.771	-3.41255	0	
0.7107	22.8394	-4.03301	0	
0.7113	26.4948	-6.14823	0	
0.7120	26.4948	-6.14823	0	
0.7127	27.1084	-4.31504	0	
0.7133	27.1084	-4.31504	0	
0.7140	22.2257	-4.93551	0	
0.7147	14.8883	-6.14823	0	
0.7153	8.8049	-6.76869	0	
0.7160	2.98833	-1.26913	0	
0.7167	-2.50806	3.9202	0	
0.7173	-8.91163	0.564058	0	
0.7180	-16.2224	-2.19983	0	
0.7187	-21.7188	1.46655	0	
0.7193	-24.467	2.39725	0	
0.7200	-29.3497	-1.26913	0	
0.7207	-37.5943	-0.958898	0	
0.7213	-40.9561	0.87429	0	
0.7220	-39.4353	0.564058	0	
0.7227	-39.1151	0.253826	0	
0.7233	-36.9806	-0.648667	0	
0.7240	-29.3497	-2.79209	0	
0.7247	-19.2907	-2.48185	0	
0.7253	-11.0462	-0.0564058	0	
0.7260	-2.18788	-0.366638	0	
0.7267	7.25737	-1.57936	0	
0.7273	15.8221	-0.0564058	0	
0.7280	21.3185	1.46655	0	
0.7287	24.3602	-0.366638	0	
0.7293	25.5876	-1.57936	0	
0.7300	27.1084	-1.88959	0	
0.7307	31.9911	-4.03301	0	
0.7313	41.1429	-4.93551	0	
0.7320	42.3703	-3.10232	0	
0.7327	32.8983	-1.57936	0	
0.7333	25.5876	-2.48185	0	
0.7340	24.9739	-2.19983	0	
0.7347	23.4531	-1.88959	0	
0.7353	20.9984	-4.03301	0	
0.7360	15.502	-4.93551	0	
0.7367	3.30851	-1.26913	0	
0.7373	-6.45693	1.15632	0	
0.7380	-11.3396	0.564058	0	
0.7387	-19.9044	2.39725	0	
0.7393	-27.5087	4.23043	0	
0.7400	-27.8288	2.08701	0	
0.7407	-29.3497	-0.0564058	0	
0.7413	-31.8044	-0.0564058	0	
0.7420	-29.9634	-0.366638	0	
0.7427	-29.6699	-0.366638	0	
0.7433	-30.577	1.77678	0	
0.7440	-25.6943	2.70748	0	
0.7447	-19.2907	0.87429	0	
0.7453	-11.6598	-1.26913	0	
0.7460	-0.667038	-1.88959	0	
0.7467	8.8049	-1.26913	0	
0.7473	14.8883	-2.79209	0	
0.7480	19.184	-4.93551	0	
0.7487	20.0912	-4.31504	0	
0.7493	20.7049	-2.79209	0	
0.7500	24.6537	-3.10232	0	
0.7507	28.3358	-3.72278	0	
0.7513	31.084	-1.26913	0	
0.7520	33.8322	-0.648667	0	
0.7527	34.7393	-4.93551	0	
0.7533	32.8983	-6.76869	0	
0.7540	28.6293	-1.57936	0	
0.7547	22.2257	0.87429	0	
0.7553	13.6876	-1.26913	0	
0.7560	5.73653	-0.958898	0	
0.7567	-0.667038	-0.648667	0	
0.7573	-6.77711	-3.10232	0	
0.7580	-13.7943	-2.19983	0	
0.7587	-20.8116	-0.366638	0	
0.7593	-26.308	-1.26913	0	
0.7600	-31.8044	-1.26913	0	
0.7607	-35.7532	-1.26913	0	
0.7613	-35.7532	-2.19983	0	
0.7620	-34.2324	-0.366638	0	
0.7627	-35.4597	0.564058	0	
0.7633	-34.8461	-2.48185	0	
0.7640	-28.4425	-2.48185	0	
0.7647	-21.7188	0.253826	0	
0.7653	-18.6771	-1.57936	0	
0.7660	-14.7015	-2.79209	0	
0.7667	-5.54976	1.15632	0	
0.7673	2.69483	3.9202	0	
0.7680	9.71207	3.60997	0	
0.7687	15.8221	2.39725	0	
0.7693	21.9055	0.564058	0	
0.7700	28.3358	0.253826	0	
0.7707	33.512	1.15632	0	
0.7713	34.1257	0.564058	0	
0.7720	31.671	0.564058	0	
0.7727	28.0156	1.15632	0	
0.7733	23.1329	0.564058	0	
0.7740	20.3847	-0.366638	0	
0.7747	21.3185	-0.648667	0	
0.7753	16.1156	-1.26913	0	
0.7760	2.98833	-0.958898	0	
0.7767	-4.64259	-0.366638	0	
0.7773	-6.45693	-0.366638	0	
0.7780	-15.3152	-0.958898	0	
0.7787	-25.9878	0.253826	0	
0.7793	-27.8288	2.39725	0	
0.7800	-27.5087	3.60997	0	
0.7807	-33.3252	4.23043	0	
0.7813	-38.5014	4.51246	0	
0.7820	-37.2741	4.23043	0	
0.7827	-35.7532	1.46655	0	
0.7833	-34.2324	0.564058	0	
0.7840	-28.736	2.70748	0	
0.7847	-20.1979	3.9202	0	
0.7853	-11.0462	1.46655	0	
0.7860	-3.41524	-0.366638	0	
0.7867	3.30851	0.87429	0	
0.7873	7.25737	3.60997	0	
0.7880	10.0056	4.23043	0	
0.7887	17.6365	2.39725	0	
0.7893	27.4019	2.08701	0	
0.7900	29.8566	1.46655	0	
0.7907	28.3358	-1.26913	0	
0.7913	30.7638	-1.57936	0	
0.7920	35.6465	-0.366638	0	
0.7927	37.4875	-2.19983	0	
0.7933	36.5537	-4.03301	0	
0.7940	31.671	-4.31504	0	
0.7947	22.8394	-3.72278	0	
0.7953	15.8221	-1.26913	0	
0.7960	11.5531	0.564058	0	
0.7967	6.3502	-0.366638	0	
0.7973	-1.57421	-0.0564058	0	
0.7980	-10.139	1.15632	0	
0.7987	-16.5425	0.253826	0	
0.7993	-20.8116	-1.26913	0	
0.8000	-23.5598	-0.648667	0	
0.8007	-25.3741	0.87429	0	
0.8013	-26.308	2.08701	0	
0.8020	-26.308	1.77678	0	
0.8027	-25.6943	1.46655	0	
0.8033	-22.3324	2.70748	0	
0.8040	-16.836	2.39725	0	
0.8047	-13.1807	0.564058	0	
0.8053	-8.91163	1.15632	0	
0.8060	-0.053363	1.77678	0	
0.8067	5.44303	0.564058	0	
0.8073	6.67038	0.564058	0	
0.8080	12.1401	2.39725	0	
0.8087	21.9055	1.46655	0	
0.8093	29.243	-0.366638	0	
0.8100	33.512	-0.648667	0	
0.8107	34.4192	-0.366638	0	
0.8113	32.8983	-0.958898	0	
0.8120	32.6048	-1.26913	0	
0.8127	32.8983	-2.19983	0	
0.8133	30.1501	-4.03301	0	
0.8140	26.2013	-4.03301	0	
0.8147	21.9055	-1.26913	0	
0.8153	16.4358	-1.26913	0	
0.8160	10.0056	-3.72278	0	
0.8167	1.78766	-4.03301	0	
0.8173	-6.45693	-4.03301	0	
0.8180	-12.567	-4.03301	0	
0.8187	-20.1979	-2.19983	0	
0.8193	-28.1223	-0.0564058	0	
0.8200	-29.3497	-2.19983	0	
0.8207	-28.4425	-4.03301	0	
0.8213	-31.1907	-1.88959	0	
0.8220	-30.577	-0.648667	0	
0.8227	-24.467	-2.19983	0	
0.8233	-20.1979	-3.72278	0	
0.8240	-19.2907	-3.72278	0	
0.8247	-16.5425	-2.19983	0	
0.8253	-9.20513	-1.26913	0	
0.8260	-3.41524	-1.26913	0	
0.8267	-2.80156	-1.57936	0	
0.8273	-0.960535	-2.79209	0	
0.8280	8.19123	-4.03301	0	
0.8287	18.2502	-4.03301	0	
0.8293	22.2257	-3.41255	0	
0.8300	25.8811	-3.41255	0	
0.8307	30.4703	-3.10232	0	
0.8313	29.5364	-3.10232	0	
0.8320	26.4948	-4.31504	0	
0.8327	27.1084	-4.31504	0	
0.8333	26.4948	-1.26913	0	
0.8340	22.5192	0.564058	0	
0.8347	17.6365	-3.10232	0	
0.8353	10.9394	-5.55597	0	
0.8360	2.69483	-4.03301	0	
0.8367	-5.25626	-4.03301	0	
0.8373	-13.4742	-3.10232	0	
0.8380	-21.4253	-1.26913	0	
0.8387	-25.6943	-0.366638	0	
0.8393	-30.2568	-0.0564058	0	
0.8400	-37.2741	1.46655	0	
0.8407	-41.2496	-0.366638	0	
0.8413	-40.3425	-1.88959	0	
0.8420	-37.5943	1.77678	0	
0.8427	-36.9806	3.29974	0	
0.8433	-34.5526	0.253826	0	
0.8440	-26.6015	1.15632	0	
0.8447	-19.5842	3.60997	0	
0.8453	-16.5425	3.29974	0	
0.8460	-12.567	3.9202	0	
0.8467	-4.93608	4.23043	0	
0.8473	3.60201	1.46655	0	
0.8480	11.5531	1.15632	0	
0.8487	16.7293	3.60997	0	
0.8493	20.3847	3.9202	0	
0.8500	27.1084	3.29974	0	
0.8507	33.8322	3.29974	0	
0.8513	35.6465	2.98951	0	
0.8520	35.0328	2.98951	0	
0.8527	32.8983	3.29974	0	
0.8533	27.7221	1.77678	0	
0.8540	22.5192	-0.958898	0	
0.8547	15.8221	-0.366638	0	
0.8553	6.3502	2.39725	0	
0.8560	-0.960535	1.46655	0	
0.8567	-4.02891	-1.57936	0	
0.8573	-8.29795	-0.958898	0	
0.8580	-16.836	0.564058	0	
0.8587	-24.1735	-0.648667	0	
0.8593	-29.0562	-0.366638	0	
0.8600	-33.6187	1.15632	0	
0.8607	-36.9806	-0.0564058	0	
0.8613	-36.0734	-1.57936	0	
0.8620	-34.8461	0.564058	0	
0.8627	-35.4597	5.13293	0	
0.8633	-31.4842	8.7993	0	
0.8640	-24.7871	8.48907	0	
0.8647	-20.1979	5.44316	0	
0.8653	-14.7015	1.77678	0	
0.8660	-5.84325	-0.366638	0	
0.8667	0.853809	-0.648667	0	
0.8673	9.71207	-0.366638	0	
0.8680	19.4775	-0.648667	0	
0.8687	22.8394	-0.366638	0	
0.8693	22.8394	0.87429	0	
0.8700	25.2674	2.39725	0	
0.8707	27.4019	2.98951	0	
0.8713	30.7638	1.15632	0	
0.8720	35.6465	-2.19983	0	
0.8727	35.6465	-1.88959	0	
0.8733	29.243	-2.19983	0	
0.8740	24.3602	-4.93551	0	
0.8747	20.9984	-4.03301	0	
0.8753	16.7293	-0.958898	0	
0.8760	11.2329	-1.26913	0	
0.8767	1.46748	-2.19983	0	
0.8773	-11.6598	0.564058	0	
0.8780	-21.1051	0.87429	0	
0.8787	-23.2396	0.564058	0	
0.8793	-22.6259	1.77678	0	
0.8800	-23.8533	0.564058	0	
0.8807	-26.9217	-1.88959	0	
0.8813	-31.4842	0.564058	0	
0.8820	-34.8461	4.23043	0	
0.8827	-34.8461	3.60997	0	
0.8833	-31.4842	2.98951	0	
0.8840	-26.9217	2.39725	0	
0.8847	-19.2907	-0.0564058	0	
0.8853	-12.567	2.08701	0	
0.8860	-9.20513	6.34565	0	
0.8867	-5.25626	5.13293	0	
0.8873	3.60201	1.77678	0	
0.8880	13.6876	1.46655	0	
0.8887	21.9055	-0.0564058	0	
0.8893	26.2013	-0.366638	0	
0.8900	29.243	2.08701	0	
0.8907	35.353	1.46655	0	
0.8913	38.1012	-2.19983	0	
0.8920	34.7393	-2.48185	0	
0.8927	32.2846	-0.958898	0	
0.8933	31.9911	-2.48185	0	
0.8940	28.6293	-4.03301	0	
0.8947	24.6537	-3.10232	0	
0.8953	17.9567	-2.19983	0	
0.8960	7.87105	-3.41255	0	
0.8967	-0.960535	-2.79209	0	
0.8973	-9.5253	-0.366638	0	
0.8980	-20.1979	0.564058	0	
0.8987	-27.2152	-0.0564058	0	
0.8993	-28.1223	-0.0564058	0	
0.9000	-29.0562	-0.0564058	0	
0.9007	-31.4842	0.253826	0	
0.9013	-33.9389	-0.366638	0	
0.9020	-34.8461	-1.57936	0	
0.9027	-31.1907	-0.0564058	0	
0.9033	-27.5087	2.70748	0	
0.9040	-25.6943	1.46655	0	
0.9047	-22.3324	0.564058	0	
0.9053	-16.5425	2.98951	0	
0.9060	-8.59145	3.9202	0	
0.9067	0.240134	1.46655	0	
0.9073	8.48472	-0.366638	0	
0.9080	17.9567	-1.26913	0	
0.9087	26.4948	-1.26913	0	
0.9093	31.3775	-0.366638	0	
0.9100	35.6465	-1.26913	0	
0.9107	40.8494	-2.19983	0	
0.9113	40.8494	-0.648667	0	
0.9120	37.4875	1.46655	0	
0.9127	32.6048	1.46655	0	
0.9133	22.2257	1.15632	0	
0.9140	12.7538	-0.0564058	0	
0.9147	10.6192	-0.648667	0	
0.9153	7.87105	-0.648667	0	
0.9160	0.853809	-0.958898	0	
0.9167	-6.16343	-1.26913	0	
0.9173	-11.9533	0.253826	0	
0.9180	-18.0634	2.08701	0	
0.9187	-23.5598	2.08701	0	
0.9193	-27.8288	2.08701	0	
0.9200	-30.2568	5.13293	0	
0.9207	-33.005	6.06362	0	
0.9213	-36.0734	1.46655	0	
0.9220	-34.8461	0.564058	0	
0.9227	-31.1907	5.44316	0	
0.9233	-32.3914	6.96611	0	
0.9240	-32.0979	5.44316	0	
0.9247	-23.8533	5.44316	0	
0.9253	-14.0878	3.9202	0	
0.9260	-7.97778	2.08701	0	
0.9267	-0.373541	2.39725	0	
0.9273	10.3257	-0.366638	0	
0.9280	19.771	-2.79209	0	
0.9287	25.8811	0.564058	0	
0.9293	32.6048	0.87429	0	
0.9300	39.9156	-2.79209	0	
0.9307	41.1429	-3.10232	0	
0.9313	37.4875	-1.57936	0	
0.9320	34.7393	-1.88959	0	
0.9327	31.671	-0.648667	0	
0.9333	26.4948	-1.26913	0	
0.9340	23.7466	-2.48185	0	
0.9347	20.9984	0.253826	0	
0.9353	14.5948	1.46655	0	
0.9360	5.44303	-1.26913	0	
0.9367	-2.50806	-1.26913	0	
0.9373	-8.29795	1.46655	0	
0.9380	-11.9533	0.564058	0	
0.9387	-15.9289	-0.0564058	0	
0.9393	-21.7188	1.46655	0	
0.9400	-26.6015	4.23043	0	
0.9407	-29.3497	6.06362	0	
0.9413	-31.1907	4.23043	0	
0.9420	-30.8705	1.15632	0	
0.9427	-29.6699	1.77678	0	
0.9433	-28.4425	1.46655	0	
0.9440	-24.7871	-1.26913	0	
0.9447	-17.7432	1.46655	0	
0.9453	-11.6598	3.29974	0	
0.9460	-5.54976	-0.366638	0	
0.9467	1.78766	-0.648667	0	
0.9473	9.0984	1.46655	0	
0.9480	16.4358	-0.366638	0	
0.9487	23.4531	-2.48185	0	
0.9493	27.7221	-1.88959	0	
0.9500	32.2846	-3.41255	0	
0.9507	36.5537	-6.14823	0	
0.9513	35.0328	-5.838	0	
0.9520	30.7638	-4.62527	0	
0.9527	28.3358	-4.03301	0	
0.9533	25.8811	-3.72278	0	
0.9540	22.8394	-3.72278	0	
0.9547	20.9984	-4.03301	0	
0.9553	14.8883	-3.72278	0	
0.9560	5.12285	-1.57936	0	
0.9567	-0.667038	-0.958898	0	
0.9573	-3.70873	-1.88959	0	
0.9580	-9.8188	-1.26913	0	
0.9587	-17.7432	0.564058	0	
0.9593	-22.0389	0.564058	0	
0.9600	-23.2396	0.87429	0	
0.9607	-29.3497	1.46655	0	
0.9613	-36.6871	1.46655	0	
0.9620	-31.8044	1.46655	0	
0.9627	-21.1051	0.253826	0	
0.9633	-21.4253	0.564058	0	
0.9640	-25.0806	3.29974	0	
0.9647	-20.1979	3.60997	0	
0.9653	-14.7015	-1.26913	0	
0.9660	-10.4325	-3.72278	0	
0.9667	-1.57421	-1.88959	0	
0.9673	6.05671	1.15632	0	
0.9680	8.19123	2.70748	0	
0.9687	12.7538	1.46655	0	
0.9693	18.8638	-0.648667	0	
0.9700	21.9055	0.253826	0	
0.9707	25.8811	-0.0564058	0	
0.9713	28.3358	-3.10232	0	
0.9720	24.3602	-4.03301	0	
0.9727	20.0912	-3.72278	0	
0.9733	18.8638	-4.31504	0	
0.9740	15.502	-3.10232	0	
0.9747	10.0056	-0.648667	0	
0.9753	3.30851	-0.958898	0	
0.9760	-4.93608	-1.88959	0	
0.9767	-11.3396	-2.79209	0	
0.9773	-16.5425	-4.03301	0	
0.9780	-24.7871	-3.10232	0	
0.9787	-32.0979	-0.366638	0	
0.9793	-34.2324	-1.26913	0	
0.9800	-35.1396	-2.19983	0	
0.9807	-38.2079	-0.0564058	0	
0.9813	-38.8216	-0.0564058	0	
0.9820	-35.7532	-2.19983	0	
0.9827	-33.9389	-2.19983	0	
0.9833	-33.3252	-1.57936	0	
0.9840	-29.3497	-3.41255	0	
0.9847	-22.6259	-3.72278	0	
0.9853	-14.7015	-3.10232	0	
0.9860	-2.50806	-4.03301	0	
0.9867	9.71207	-3.41255	0	
0.9873	12.4603	-0.366638	0	
0.9880	12.7538	-0.958898	0	
0.9887	20.9984	-2.48185	0	
0.9893	30.1501	-0.366638	0	
0.9900	32.6048	0.87429	0	
0.9907	29.8566	-0.366638	0	
0.9913	28.9495	-0.958898	0	
0.9920	32.6048	-2.19983	0	
0.9927	32.8983	-4.31504	0	
0.9933	25.5876	-4.03301	0	
0.9940	19.4775	-2.19983	0	
0.9947	16.7293	-1.57936	0	
0.9953	11.8466	-1.26913	0	
0.9960	6.05671	0.253826	0	
0.9967	3.60201	-0.648667	0	
0.9973	0.853809	-3.41255	0	
0.9980	-2.18788	-4.62527	0	
0.9987	-4.32241	-3.10232	0	
0.9993	-8.29795	-1.26913	0	
1.0000	-18.0634	-0.366638	0	
1.0007	-29.6699	2.08701	0	
1.0013	-36.0734	5.13293	0	
1.0020	-33.005	4.23043	0	
1.0027	-27.8288	-0.0564058	0	
1.0033	-26.6015	0.564058	0	
1.0040	-21.1051	2.70748	0	
1.0047	-8.59145	-0.0564058	0	
1.0053	-0.373541	-0.958898	0	
1.0060	-0.053363	2.70748	0	
1.0067	0.853809	2.98951	0	
1.0073	6.96388	1.77678	0	
1.0080	14.5948	3.9202	0	
1.0087	21.9055	2.39725	0	
1.0093	28.3358	-2.19983	0	
1.0100	32.8983	-0.958898	0	
1.0107	36.8739	0.564058	0	
1.0113	40.2357	-1.26913	0	
1.0120	39.3019	-0.648667	0	
1.0127	35.6465	-0.0564058	0	
1.0133	31.671	-3.41255	0	
1.0140	28.3358	-4.31504	0	
1.0147	25.8811	-0.958898	0	
1.0153	22.2257	2.39725	0	
1.0160	12.7538	2.70748	0	
1.0167	2.69483	2.08701	0	
1.0173	-2.80156	0.564058	0	
1.0180	-10.726	-2.19983	0	
1.0187	-22.0389	-2.19983	0	
1.0193	-28.1223	1.77678	0	
1.0200	-30.2568	3.9202	0	
1.0207	-36.0734	1.46655	0	
1.0213	-38.5014	1.77678	0	
1.0220	-34.5526	4.82269	0	
1.0227	-31.8044	5.13293	0	
1.0233	-27.5087	3.60997	0	
1.0240	-19.9044	2.98951	0	
1.0247	-19.9044	2.98951	0	
1.0253	-24.7871	3.29974	0	
1.0260	-18.3569	2.39725	0	
1.0267	-3.70873	0.253826	0	
1.0273	7.25737	-0.648667	0	
1.0280	15.2085	-1.26913	0	
1.0287	21.9055	-0.958898	0	
1.0293	25.8811	0.564058	0	
1.0300	27.4019	-2.19983	0	
1.0307	26.4948	-5.24574	0	
1.0313	27.1084	-2.19983	0	
1.0320	28.3358	0.564058	0	
1.0327	26.7882	-3.72278	0	
1.0333	24.0667	-4.93551	0	
1.0340	20.9984	-2.79209	0	
1.0347	13.6876	-2.48185	0	
1.0353	7.57755	-3.10232	0	
1.0360	4.50918	-1.26913	0	
1.0367	-4.02891	-0.0564058	0	
1.0373	-15.3152	-0.958898	0	
1.0380	-18.3569	-1.26913	0	
1.0387	-19.9044	-0.366638	0	
1.0393	-27.5087	1.15632	0	
1.0400	-35.1396	2.39725	0	
1.0407	-38.2079	2.39725	0	
1.0413	-38.8216	2.39725	0	
1.0420	-38.8216	2.70748	0	
1.0427	-37.5943	3.29974	0	
1.0433	-33.005	5.13293	0	
1.0440	-24.467	6.96611	0	
1.0447	-17.1562	4.51246	0	
1.0453	-11.6598	2.70748	0	
1.0460	-4.32241	4.23043	0	
1.0467	3.30851	3.29974	0	
1.0473	7.57755	1.46655	0	
1.0480	12.7538	3.29974	0	
1.0487	22.2257	3.9202	0	
1.0493	30.1501	1.46655	0	
1.0500	31.084	2.39725	0	
1.0507	30.1501	2.08701	0	
1.0513	30.4703	-3.72278	0	
1.0520	32.6048	-3.10232	0	
1.0527	34.1257	2.08701	0	
1.0533	30.4703	-1.88959	0	
1.0540	23.1329	-6.76869	0	
1.0547	19.771	-3.10232	0	
1.0553	16.4358	-0.366638	0	
1.0560	6.3502	-2.19983	0	
1.0567	-4.64259	-1.88959	0	
1.0573	-11.3396	-0.366638	0	
1.0580	-15.6087	-0.366638	0	
1.0587	-20.1979	0.564058	0	
1.0593	-23.5598	-0.0564058	0	
1.0600	-26.9217	-1.26913	0	
1.0607	-31.1907	0.564058	0	
1.0613	-34.8461	2.70748	0	
1.0620	-35.7532	1.46655	0	
1.0627	-31.1907	2.39725	0	
1.0633	-25.9878	6.34565	0	
1.0640	-23.2396	5.75339	0	
1.0647	-18.0634	1.46655	0	
1.0653	-8.91163	0.564058	0	
1.0660	-2.50806	1.15632	0	
1.0667	0.853809	0.87429	0	
1.0673	8.19123	2.39725	0	
1.0680	17.343	3.9202	0	
1.0687	22.8394	0.564058	0	
1.0693	25.5876	-3.72278	0	
1.0700	31.084	-3.10232	0	
1.0707	36.5537	-1.26913	0	
1.0713	38.3947	-2.48185	0	
1.0720	35.9667	-4.31504	0	
1.0727	33.2185	-4.93551	0	
1.0733	30.1501	-4.31504	0	
1.0740	24.6537	-2.79209	0	
1.0747	16.4358	-2.19983	0	
1.0753	10.9394	-3.72278	0	
1.0760	7.57755	-1.26913	0	
1.0767	-0.960535	4.23043	0	
1.0773	-10.139	4.23043	0	
1.0780	-12.567	-1.26913	0	
1.0787	-18.3569	-4.03301	0	
1.0793	-29.6699	-3.10232	0	
1.0800	-33.9389	-1.26913	0	
1.0807	-32.3914	1.46655	0	
1.0813	-32.0979	3.60997	0	
1.0820	-28.736	4.82269	0	
1.0827	-25.6943	3.60997	0	
1.0833	-26.6015	1.46655	0	
1.0840	-23.8533	-0.0564058	0	
1.0847	-17.4497	-0.648667	0	
1.0853	-13.7943	-0.958898	0	
1.0860	-7.97778	-0.366638	0	
1.0867	0.853809	-1.26913	0	
1.0873	7.25737	-2.19983	0	
1.0880	12.7538	-0.648667	0	
1.0887	19.184	-0.958898	0	
1.0893	25.2674	-3.41255	0	
1.0900	29.243	-1.88959	0	
1.0907	26.4948	1.77678	0	
1.0913	21.3185	1.77678	0	
1.0920	22.2257	0.87429	0	
1.0927	25.8811	-0.366638	0	
1.0933	24.3602	-1.88959	0	
1.0940	20.9984	-2.79209	0	
1.0947	19.184	-4.03301	0	
1.0953	14.5948	-4.31504	0	
1.0960	6.3502	-3.10232	0	
1.0967	-2.80156	-2.48185	0	
1.0973	-7.97778	-4.03301	0	
1.0980	-11.0462	-4.03301	0	
1.0987	-18.3569	-3.10232	0	
1.0993	-27.5087	-2.19983	0	
1.1000	-30.577	-0.366638	0	
1.1007	-33.005	0.87429	0	
1.1013	-37.5943	-0.366638	0	
1.1020	-36.6871	0.564058	0	
1.1027	-32.3914	2.08701	0	
1.1033	-31.1907	2.39725	0	
1.1040	-27.5087	2.98951	0	
1.1047	-20.1979	3.29974	0	
1.1053	-16.2224	2.08701	0	
1.1060	-9.20513	0.564058	0	
1.1067	2.98833	0.87429	0	
1.1073	10.9394	1.77678	0	
1.1080	14.5948	1.46655	0	
1.1087	20.0912	-0.0564058	0	
1.1093	22.5192	-0.366638	0	
1.1100	24.9739	-0.0564058	0	
1.1107	32.6048	-1.26913	0	
1.1113	35.6465	-3.10232	0	
1.1120	32.8983	-2.19983	0	
1.1127	30.4703	-1.57936	0	
1.1133	26.4948	-1.26913	0	
1.1140	20.3847	-0.366638	0	
1.1147	18.8638	0.564058	0	
1.1153	15.502	0.564058	0	
1.1160	8.19123	1.46655	0	
1.1167	2.69483	2.08701	0	
1.1173	-4.02891	0.87429	0	
1.1180	-15.3152	1.15632	0	
1.1187	-24.1735	2.39725	0	
1.1193	-30.2568	2.08701	0	
1.1200	-34.2324	1.46655	0	
1.1207	-33.3252	2.39725	0	
1.1213	-34.5526	2.98951	0	
1.1220	-41.5698	4.23043	0	
1.1227	-42.1568	5.44316	0	
1.1233	-31.1907	3.9202	0	
1.1240	-19.9044	2.70748	0	
1.1247	-14.7015	5.13293	0	
1.1253	-12.567	6.34565	0	
1.1260	-7.39078	4.51246	0	
1.1267	1.78766	3.29974	0	
1.1273	11.8466	2.08701	0	
1.1280	18.5703	-0.366638	0	
1.1287	23.1329	-1.26913	0	
1.1293	23.1329	-0.0564058	0	
1.1300	21.612	-0.366638	0	
1.1307	28.0156	-1.26913	0	
1.1313	38.3947	-2.19983	0	
1.1320	39.6221	-3.72278	0	
1.1327	33.8322	-4.93551	0	
1.1333	30.1501	-4.62527	0	
1.1340	28.3358	-4.03301	0	
1.1347	24.6537	-2.19983	0	
1.1353	15.502	-0.0564058	0	
1.1360	4.50918	-0.0564058	0	
1.1367	0.853809	-2.19983	0	
1.1373	-1.89439	-2.19983	0	
1.1380	-9.5253	-1.26913	0	
1.1387	-15.9289	-1.88959	0	
1.1393	-19.2907	-1.26913	0	
1.1400	-25.6943	0.253826	0	
1.1407	-32.0979	0.564058	0	
1.1413	-31.8044	0.564058	0	
1.1420	-25.3741	-0.366638	0	
1.1427	-20.4914	-1.57936	0	
1.1433	-22.6259	-0.958898	0	
1.1440	-25.3741	-0.0564058	0	
1.1447	-21.1051	-1.26913	0	
1.1453	-13.7943	-1.57936	0	
1.1460	-9.8188	-0.958898	0	
1.1467	-2.80156	-1.26913	0	
1.1473	7.25737	-0.648667	0	
1.1480	14.5948	-0.366638	0	
1.1487	19.771	-0.958898	0	
1.1493	25.5876	-0.958898	0	
1.1500	31.3775	0.564058	0	
1.1507	36.2602	-0.366638	0	
1.1513	37.4875	-2.48185	0	
1.1520	32.8983	-4.03301	0	
1.1527	29.243	-4.62527	0	
1.1533	29.8566	-4.31504	0	
1.1540	27.4019	-2.79209	0	
1.1547	18.8638	-1.26913	0	
1.1553	11.2329	-1.26913	0	
1.1560	5.44303	-2.79209	0	
1.1567	-1.89439	-2.19983	0	
1.1573	-10.139	0.87429	0	
1.1580	-18.3569	3.29974	0	
1.1587	-25.3741	2.08701	0	
1.1593	-29.3497	0.564058	0	
1.1600	-32.0979	1.77678	0	
1.1607	-33.005	3.9202	0	
1.1613	-31.4842	2.39725	0	
1.1620	-33.005	1.46655	0	
1.1627	-35.7532	4.23043	0	
1.1633	-33.005	5.75339	0	
1.1640	-25.3741	3.9202	0	
1.1647	-17.4497	2.70748	0	
1.1653	-6.45693	2.39725	0	
1.1660	5.44303	-0.366638	0	
1.1667	15.8221	-1.57936	0	
1.1673	23.7466	-1.26913	0	
1.1680	26.2013	-2.19983	0	
1.1687	20.9984	-1.26913	0	
1.1693	17.343	3.29974	0	
1.1700	21.9055	2.39725	0	
1.1707	27.4019	-1.88959	0	
1.1713	27.7221	-1.88959	0	
1.1720	28.3358	-2.19983	0	
1.1727	30.7638	-5.24574	0	
1.1733	29.243	-3.10232	0	
1.1740	24.6537	1.46655	0	
1.1747	21.3185	-2.19983	0	
1.1753	16.1156	-5.838	0	
1.1760	7.87105	-4.03301	0	
1.1767	0.853809	-3.10232	0	
1.1773	-6.45693	-3.10232	0	
1.1780	-16.2224	-1.26913	0	
1.1787	-23.8533	-2.48185	0	
1.1793	-26.308	-4.03301	0	
1.1800	-25.3741	-1.88959	0	
1.1807	-26.9217	-1.88959	0	
1.1813	-32.0979	-4.31504	0	
1.1820	-32.3914	-1.57936	0	
1.1827	-27.8288	2.08701	0	
1.1833	-24.467	-0.0564058	0	
1.1840	-21.4253	-0.958898	0	
1.1847	-15.3152	1.46655	0	
1.1853	-7.39078	2.39725	0	
1.1860	-0.667038	2.08701	0	
1.1867	2.69483	2.39725	0	
1.1873	7.25737	1.46655	0	
1.1880	15.502	1.77678	0	
1.1887	20.9984	1.77678	0	
1.1893	21.9055	-0.0564058	0	
1.1900	26.2013	0.564058	0	
1.1907	31.671	1.77678	0	
1.1913	31.9911	0.564058	0	
1.1920	31.3775	-0.648667	0	
1.1927	32.6048	-1.57936	0	
1.1933	31.3775	-3.10232	0	
1.1940	27.4019	-1.88959	0	
1.1947	22.8394	-1.26913	0	
1.1953	17.6365	-4.03301	0	
1.1960	10.9394	-3.41255	0	
1.1967	3.60201	-2.19983	0	
1.1973	-4.64259	-2.48185	0	
1.1980	-15.9289	-0.366638	0	
1.1987	-28.1223	2.08701	0	
1.1993	-34.5526	0.564058	0	
1.2000	-35.7532	1.46655	0	
1.2007	-36.9806	2.98951	0	
1.2013	-38.5014	-0.366638	0	
1.2020	-37.5943	-1.57936	0	
1.2027	-34.8461	2.08701	0	
1.2033	-29.9634	0.253826	0	
1.2040	-25.6943	-3.72278	0	
1.2047	-23.2396	-0.366638	0	
1.2053	-16.836	3.60997	0	
1.2060	-8.29795	1.46655	0	
1.2067	-2.80156	-1.26913	0	
1.2073	5.12285	-1.88959	0	
1.2080	16.7293	-2.19983	0	
1.2087	23.7466	-2.19983	0	
1.2093	26.4948	-3.10232	0	
1.2100	30.4703	-4.93551	0	
1.2107	32.8983	-4.03301	0	
1.2113	31.084	-1.88959	0	
1.2120	27.1084	-1.26913	0	
1.2127	22.5192	-0.958898	0	
1.2133	20.3847	-0.366638	0	
1.2140	20.0912	-0.958898	0	
1.2147	16.4358	-0.366638	0	
1.2153	8.19123	0.87429	0	
1.2160	-0.053363	0.253826	0	
1.2167	-6.16343	-3.10232	0	
1.2173	-11.0462	-4.31504	0	
1.2180	-17.4497	-3.10232	0	
1.2187	-24.7871	-1.26913	0	
1.2193	-30.2568	-2.19983	0	
1.2200	-34.2324	-3.10232	0	
1.2207	-33.6187	-4.03301	0	
1.2213	-29.9634	-4.93551	0	
1.2220	-33.3252	-1.88959	0	
1.2227	-40.636	5.13293	0	
1.2233	-37.8878	7.27635	0	
1.2240	-29.3497	4.51246	0	
1.2247	-21.7188	1.77678	0	
1.2253	-10.139	0.564058	0	
1.2260	-0.373541	0.564058	0	
1.2267	1.78766	0.87429	0	
1.2273	5.44303	-2.19983	0	
1.2280	12.1401	-5.24574	0	
1.2287	16.4358	-3.72278	0	
1.2293	23.7466	-2.19983	0	
1.2300	31.9911	-4.03301	0	
1.2307	34.7393	-3.10232	0	
1.2313	36.5537	0.253826	0	
1.2320	36.5537	-1.26913	0	
1.2327	29.243	-2.19983	0	
1.2333	22.8394	1.46655	0	
1.2340	21.9055	0.87429	0	
1.2347	14.8883	-4.31504	0	
1.2353	3.30851	-5.55597	0	
1.2360	-4.64259	-3.72278	0	
1.2367	-11.0462	-3.10232	0	
1.2373	-17.7432	-3.10232	0	
1.2380	-23.8533	-4.03301	0	
1.2387	-28.1223	-2.48185	0	
1.2393	-32.3914	1.46655	0	
1.2400	-36.0734	1.77678	0	
1.2407	-37.8878	-0.366638	0	
1.2413	-36.3669	0.87429	0	
1.2420	-33.9389	2.70748	0	
1.2427	-31.8044	1.46655	0	
1.2433	-26.9217	1.46655	0	
1.2440	-19.2907	1.15632	0	
1.2447	-14.7015	-0.366638	0	
1.2453	-12.8605	-0.648667	0	
1.2460	-8.29795	-0.366638	0	
1.2467	-0.373541	0.564058	0	
1.2473	5.12285	2.98951	0	
1.2480	8.48472	2.39725	0	
1.2487	16.1156	-1.26913	0	
1.2493	25.8811	-2.48185	0	
1.2500	31.9911	-3.10232	0	
1.2507	36.2602	-6.14823	0	
1.2513	39.6221	-7.98142	0	
1.2520	39.0084	-5.838	0	
1.2527	37.4875	-5.24574	0	
1.2533	38.3947	-7.07893	0	
1.2540	34.7393	-6.76869	0	
1.2547	25.2674	-3.41255	0	
1.2553	16.4358	-1.26913	0	
1.2560	9.0984	-1.88959	0	
1.2567	2.08116	-1.57936	0	
1.2573	-4.64259	-0.366638	0	
1.2580	-13.7943	-0.366638	0	
1.2587	-19.9044	-1.57936	0	
1.2593	-18.6771	-1.57936	0	
1.2600	-18.6771	-1.57936	0	
1.2607	-27.2152	-2.19983	0	
1.2613	-33.3252	-0.366638	0	
1.2620	-29.6699	3.29974	0	
1.2627	-28.4425	3.9202	0	
1.2633	-32.7115	2.39725	0	
1.2640	-30.577	3.29974	0	
1.2647	-22.9461	5.13293	0	
1.2653	-16.836	5.44316	0	
1.2660	-7.0706	4.23043	0	
1.2667	4.21568	2.98951	0	
1.2673	9.71207	3.29974	0	
1.2680	15.2085	3.60997	0	
1.2687	24.3602	0.87429	0	
1.2693	28.3358	-1.26913	0	
1.2700	27.7221	-0.648667	0	
1.2707	29.243	0.253826	0	
1.2713	33.8322	-0.366638	0	
1.2720	36.8739	-1.88959	0	
1.2727	33.8322	-3.10232	0	
1.2733	27.1084	-2.19983	0	
1.2740	25.2674	-0.366638	0	
1.2747	24.9739	-1.26913	0	
1.2753	15.502	-0.648667	0	
1.2760	1.46748	2.70748	0	
1.2767	-6.16343	2.39725	0	
1.2773	-9.20513	-1.26913	0	
1.2780	-14.0878	-0.366638	0	
1.2787	-23.2396	3.29974	0	
1.2793	-31.8044	3.60997	0	
1.2800	-34.5526	1.15632	0	
1.2807	-33.9389	2.08701	0	
1.2813	-35.1396	5.44316	0	
1.2820	-34.5526	5.13293	0	
1.2827	-31.8044	2.70748	0	
1.2833	-29.3497	3.60997	0	
1.2840	-23.8533	4.51246	0	
1.2847	-15.6087	2.39725	0	
1.2853	-11.6598	2.39725	0	
1.2860	-8.59145	5.13293	0	
1.2867	-3.41524	4.82269	0	
1.2873	2.37466	1.46655	0	
1.2880	11.8466	0.253826	0	
1.2887	21.9055	1.46655	0	
1.2893	25.8811	1.77678	0	
1.2900	28.3358	-0.0564058	0	
1.2907	32.8983	-1.57936	0	
1.2913	33.8322	-2.19983	0	
1.2920	32.6048	-3.10232	0	
1.2927	32.8983	-4.03301	0	
1.2933	29.5364	-4.03301	0	
1.2940	22.5192	-2.19983	0	
1.2947	15.2085	-1.26913	0	
1.2953	5.44303	-0.958898	0	
1.2960	-3.41524	0.87429	0	
1.2967	-9.5253	1.46655	0	
1.2973	-15.6087	-1.57936	0	
1.2980	-19.2907	-1.57936	0	
1.2987	-22.3324	1.15632	0	
1.2993	-27.8288	-0.366638	0	
1.3000	-31.4842	-2.79209	0	
1.3007	-31.1907	0.87429	0	
1.3013	-30.8705	3.60997	0	
1.3020	-31.4842	1.77678	0	
1.3027	-33.005	2.70748	0	
1.3033	-32.3914	3.9202	0	
1.3040	-25.9878	-0.366638	0	
1.3047	-18.3569	-3.41255	0	
1.3053	-14.0878	-0.0564058	0	
1.3060	-5.25626	2.70748	0	
1.3067	7.25737	1.77678	0	
1.3073	11.8466	2.98951	0	
1.3080	13.3674	5.13293	0	
1.3087	21.9055	3.60997	0	
1.3093	29.5364	-0.366638	0	
1.3100	30.4703	-3.10232	0	
1.3107	32.2846	-2.19983	0	
1.3113	37.1674	-0.366638	0	
1.3120	36.8739	-2.19983	0	
1.3127	31.9911	-4.62527	0	
1.3133	28.6293	-2.19983	0	
1.3140	24.6537	-2.19983	0	
1.3147	17.343	-5.838	0	
1.3153	11.5531	-4.03301	0	
1.3160	7.57755	-0.366638	0	
1.3167	0.853809	-1.88959	0	
1.3173	-8.29795	-2.48185	0	
1.3180	-16.5425	-1.26913	0	
1.3187	-22.9461	-1.57936	0	
1.3193	-26.9217	-1.88959	0	
1.3200	-30.2568	-2.48185	0	
1.3207	-36.0734	-2.79209	0	
1.3213	-37.5943	-0.648667	0	
1.3220	-33.9389	-0.958898	0	
1.3227	-33.005	-2.19983	0	
1.3233	-33.005	-0.366638	0	
1.3240	-28.4425	-0.648667	0	
1.3247	-22.0389	-2.19983	0	
1.3253	-16.2224	2.08701	0	
1.3260	-8.29795	4.51246	0	
1.3267	0.853809	1.15632	0	
1.3273	9.71207	-0.958898	0	
1.3280	15.502	-0.366638	0	
1.3287	18.2502	0.564058	0	
1.3293	23.7466	0.87429	0	
1.3300	35.0328	-2.79209	0	
1.3307	40.2357	-6.76869	0	
1.3313	35.0328	-5.838	0	
1.3320	28.9495	-4.03301	0	
1.3327	24.9739	-3.10232	0	
1.3333	20.3847	-1.88959	0	
1.3340	16.4358	-1.26913	0	
1.3347	14.3013	-2.19983	0	
1.3353	10.9394	-2.48185	0	
1.3360	6.05671	-2.48185	0	
1.3367	-1.89439	-2.19983	0	
1.3373	-13.7943	-0.366638	0	
1.3380	-23.5598	1.46655	0	
1.3387	-29.3497	3.29974	0	
1.3393	-34.2324	5.75339	0	
1.3400	-36.3669	5.13293	0	
1.3407	-37.5943	1.46655	0	
1.3413	-40.0223	1.77678	0	
1.3420	-40.0223	4.23043	0	
1.3427	-35.7532	3.29974	0	
1.3433	-30.2568	1.15632	0	
1.3440	-22.3324	3.29974	0	
1.3447	-12.8605	4.51246	0	
1.3453	-9.8188	2.39725	0	
1.3460	-10.726	2.08701	0	
1.3467	-6.45693	2.70748	0	
1.3473	2.69483	3.29974	0	
1.3480	12.4603	4.82269	0	
1.3487	18.8638	3.60997	0	
1.3493	23.4531	1.15632	0	
1.3500	28.6293	0.564058	0	
1.3507	33.8322	-0.366638	0	
1.3513	34.4192	-1.26913	0	
1.3520	33.512	0.253826	0	
1.3527	33.8322	-0.648667	0	
1.3533	32.8983	-3.10232	0	
1.3540	28.3358	-1.26913	0	
1.3547	22.8394	-0.366638	0	
1.3553	15.8221	-3.41255	0	
1.3560	5.73653	-2.19983	0	
1.3567	-4.93608	0.564058	0	
1.3573	-13.1807	-2.19983	0	
1.3580	-17.4497	-5.24574	0	
1.3587	-20.4914	-4.03301	0	
1.3593	-24.7871	-1.88959	0	
1.3600	-29.6699	-1.57936	0	
1.3607	-33.005	-1.26913	0	
1.3613	-34.8461	1.15632	0	
1.3620	-35.7532	1.77678	0	
1.3627	-34.5526	-1.88959	0	
1.3633	-30.8705	-3.41255	0	
1.3640	-22.9461	-1.88959	0	
1.3647	-14.408	-0.366638	0	
1.3653	-10.139	1.15632	0	
1.3660	-4.64259	2.08701	0	
1.3667	4.50918	-0.648667	0	
1.3673	12.7538	-1.88959	0	
1.3680	17.9567	0.564058	0	
1.3687	24.6537	-0.958898	0	
1.3693	33.8322	-4.93551	0	
1.3700	38.3947	-4.62527	0	
1.3707	33.512	-1.88959	0	
1.3713	28.9495	-1.57936	0	
1.3720	31.3775	-3.41255	0	
1.3727	32.8983	-4.03301	0	
1.3733	28.3358	-3.10232	0	
1.3740	23.7466	-1.88959	0	
1.3747	18.8638	-1.57936	0	
1.3753	10.9394	-0.366638	0	
1.3760	5.44303	0.87429	0	
1.3767	2.37466	2.39725	0	
1.3773	-3.70873	3.29974	0	
1.3780	-11.9533	2.08701	0	
1.3787	-16.836	-0.0564058	0	
1.3793	-20.8116	1.46655	0	
1.3800	-27.5087	4.23043	0	
1.3807	-34.5526	3.9202	0	
1.3813	-37.2741	3.29974	0	
1.3820	-36.6871	4.82269	0	
1.3827	-34.2324	5.44316	0	
1.3833	-31.1907	4.23043	0	
1.3840	-26.308	2.98951	0	
1.3847	-18.9706	3.29974	0	
1.3853	-10.726	4.23043	0	
1.3860	-3.70873	3.9202	0	
1.3867	3.60201	2.08701	0	
1.3873	11.8466	-0.648667	0	
1.3880	17.343	-1.26913	0	
1.3887	20.0912	2.39725	0	
1.3893	23.7466	5.75339	0	
1.3900	28.6293	3.60997	0	
1.3907	33.8322	1.46655	0	
1.3913	38.3947	2.08701	0	
1.3920	38.7149	1.15632	0	
1.3927	34.1257	0.564058	0	
1.3933	31.084	2.08701	0	
1.3940	27.4019	3.9202	0	
1.3947	20.0912	4.51246	0	
1.3953	14.5948	3.9202	0	
1.3960	10.9394	1.77678	0	
1.3967	-0.053363	-0.366638	0	
1.3973	-12.8605	-1.26913	0	
1.3980	-18.3569	-1.26913	0	
1.3987	-20.1979	0.564058	0	
1.3993	-22.6259	2.98951	0	
1.4000	-23.2396	3.29974	0	
1.4007	-28.736	2.98951	0	
1.4013	-35.7532	3.29974	0	
1.4020	-33.9389	2.39725	0	
1.4027	-30.2568	1.15632	0	
1.4033	-30.577	3.29974	0	
1.4040	-24.7871	5.13293	0	
1.4047	-17.1562	2.39725	0	
1.4053	-13.7943	1.46655	0	
1.4060	-7.0706	5.13293	0	
1.4067	4.21568	5.13293	0	
1.4073	10.6192	1.46655	0	
1.4080	15.8221	-0.366638	0	
1.4087	23.7466	0.253826	0	
1.4093	28.3358	-1.26913	0	
1.4100	30.1501	-3.10232	0	
1.4107	33.2185	-3.41255	0	
1.4113	36.8739	-3.10232	0	
1.4120	40.2357	-3.10232	0	
1.4127	39.9156	-3.72278	0	
1.4133	36.5537	-3.10232	0	
1.4140	31.671	-3.10232	0	
1.4147	21.3185	-2.48185	0	
1.4153	10.9394	-1.26913	0	
1.4160	7.87105	-1.26913	0	
1.4167	3.30851	-4.62527	0	
1.4173	-6.45693	-7.67119	0	
1.4180	-14.0878	-6.76869	0	
1.4187	-22.0389	-3.72278	0	
1.4193	-30.8705	-2.79209	0	
1.4200	-33.6187	-3.10232	0	
1.4207	-34.8461	-2.19983	0	
1.4213	-38.8216	-1.26913	0	
1.4220	-39.1151	-1.57936	0	
1.4227	-36.3669	-2.19983	0	
1.4233	-32.7115	-1.57936	0	
1.4240	-24.1735	-0.366638	0	
1.4247	-16.5425	-0.366638	0	
1.4253	-15.3152	-0.958898	0	
1.4260	-11.0462	-0.366638	0	
1.4267	0.240134	-0.648667	0	
1.4273	7.87105	-1.88959	0	
1.4280	8.8049	-0.648667	0	
1.4287	10.9394	0.87429	0	
1.4293	19.184	-1.26913	0	
1.4300	26.4948	-3.10232	0	
1.4307	28.9495	-2.79209	0	
1.4313	31.084	-4.03301	0	
1.4320	29.243	-5.838	0	
1.4327	19.184	-3.10232	0	
1.4333	15.502	-0.648667	0	
1.4340	23.4531	-3.41255	0	
1.4347	23.1329	-4.62527	0	
1.4353	8.19123	-2.48185	0	
1.4360	-5.54976	-2.48185	0	
1.4367	-11.3396	-4.62527	0	
1.4373	-15.6087	-4.31504	0	
1.4380	-19.9044	-3.41255	0	
1.4387	-21.7188	-2.79209	0	
1.4393	-23.5598	-0.366638	0	
1.4400	-27.5087	1.15632	0	
1.4407	-33.005	-0.958898	0	
1.4413	-35.7532	-2.19983	0	
1.4420	-33.6187	0.87429	0	
1.4427	-28.736	2.39725	0	
1.4433	-25.9878	1.46655	0	
1.4440	-24.1735	2.39725	0	
1.4447	-17.4497	3.29974	0	
1.4453	-7.68428	1.46655	0	
1.4460	-0.667038	-0.366638	0	
1.4467	5.12285	1.46655	0	
1.4473	10.9394	5.13293	0	
1.4480	15.8221	6.06362	0	
1.4487	21.9055	1.46655	0	
1.4493	27.4019	-2.19983	0	
1.4500	30.1501	0.253826	0	
1.4507	35.0328	1.77678	0	
1.4513	39.9156	-0.0564058	0	
1.4520	40.2357	-0.958898	0	
1.4527	38.7149	-0.958898	0	
1.4533	33.2185	-1.26913	0	
1.4540	22.2257	0.253826	0	
1.4547	14.5948	-1.26913	0	
1.4553	10.0056	-4.03301	0	
1.4560	2.69483	-3.10232	0	
1.4567	-4.32241	-1.26913	0	
1.4573	-10.139	-1.88959	0	
1.4580	-18.6771	-0.366638	0	
1.4587	-25.9878	-0.0564058	0	
1.4593	-29.9634	-2.19983	0	
1.4600	-32.7115	-0.366638	0	
1.4607	-33.9389	3.29974	0	
1.4613	-33.9389	2.70748	0	
1.4620	-33.9389	0.87429	0	
1.4627	-32.3914	0.564058	0	
1.4633	-28.736	0.253826	0	
1.4640	-24.1735	1.77678	0	
1.4647	-18.3569	3.60997	0	
1.4653	-10.139	2.98951	0	
1.4660	-1.28071	1.77678	0	
1.4667	6.3502	1.46655	0	
1.4673	16.4358	-0.958898	0	
1.4680	27.1084	-3.41255	0	
1.4687	29.243	-2.48185	0	
1.4693	27.1084	-1.57936	0	
1.4700	31.671	-3.41255	0	
1.4707	35.353	-4.03301	0	
1.4713	31.084	-2.79209	0	
1.4720	30.4703	-1.88959	0	
1.4727	31.9911	-2.19983	0	
1.4733	27.4019	-0.958898	0	
1.4740	22.5192	-0.366638	0	
1.4747	19.771	-2.19983	0	
1.4753	11.5531	-3.41255	0	
1.4760	0.853809	-3.41255	0	
1.4767	-8.29795	-3.10232	0	
1.4773	-18.0634	-0.648667	0	
1.4780	-24.1735	1.15632	0	
1.4787	-25.6943	-0.958898	0	
1.4793	-29.3497	-2.79209	0	
1.4800	-34.8461	-0.648667	0	
1.4807	-37.2741	0.564058	0	
1.4813	-36.0734	0.564058	0	
1.4820	-31.4842	-0.0564058	0	
1.4827	-24.7871	-2.19983	0	
1.4833	-20.8116	-2.79209	0	
1.4840	-18.3569	-0.366638	0	
1.4847	-15.0217	-0.0564058	0	
1.4853	-10.139	-1.26913	0	
1.4860	-4.64259	1.77678	0	
1.4867	1.78766	3.29974	0	
1.4873	10.0056	-0.958898	0	
1.4880	18.5703	-3.10232	0	
1.4887	27.1084	-0.958898	0	
1.4893	32.6048	-1.26913	0	
1.4900	31.9911	-1.26913	0	
1.4907	28.6293	1.77678	0	
1.4913	29.243	1.46655	0	
1.4920	31.084	-3.72278	0	
1.4927	31.3775	-4.93551	0	
1.4933	32.8983	-2.19983	0	
1.4940	30.7638	-2.79209	0	
1.4947	21.3185	-4.62527	0	
1.4953	13.3674	-4.03301	0	
1.4960	8.48472	-1.26913	0	
1.4967	-1.57421	-0.366638	0	
1.4973	-11.0462	-1.26913	0	
1.4980	-13.7943	0.253826	0	
1.4987	-17.7432	3.29974	0	
1.4993	-23.5598	2.70748	0	
1.5000	-24.7871	0.564058	0	
1.5007	-28.736	1.46655	0	
1.5013	-33.9389	2.08701	0	
1.5020	-30.2568	0.564058	0	
1.5027	-25.6943	1.77678	0	
1.5033	-22.9461	2.98951	0	
1.5040	-12.567	-0.0564058	0	
1.5047	-3.70873	-1.26913	0	
1.5053	-7.68428	-0.366638	0	
1.5060	-10.726	-0.366638	0	
1.5067	-2.18788	0.564058	0	
1.5073	8.48472	0.87429	0	
1.5080	18.2502	-0.648667	0	
1.5087	26.4948	-1.57936	0	
1.5093	28.3358	-2.19983	0	
1.5100	29.243	-3.10232	0	
1.5107	34.1257	-0.958898	0	
1.5113	37.1674	2.39725	0	
1.5120	35.0328	1.77678	0	
1.5127	32.8983	1.46655	0	
1.5133	31.084	2.70748	0	
1.5140	27.4019	0.87429	0	
1.5147	21.9055	-2.19983	0	
1.5153	13.9811	-0.366638	0	
1.5160	6.05671	2.39725	0	
1.5167	-2.80156	0.564058	0	
1.5173	-13.7943	0.564058	0	
1.5180	-21.1051	2.70748	0	
1.5187	-25.6943	3.9202	0	
1.5193	-30.8705	3.9202	0	
1.5200	-32.7115	3.29974	0	
1.5207	-32.7115	2.08701	0	
1.5213	-34.8461	2.08701	0	
1.5220	-35.1396	1.46655	0	
1.5227	-33.005	-0.648667	0	
1.5233	-34.2324	1.15632	0	
1.5240	-34.2324	5.13293	0	
1.5247	-29.3497	6.06362	0	
1.5253	-23.8533	4.82269	0	
1.5260	-14.7015	3.29974	0	
1.5267	-0.053363	-0.366638	0	
1.5273	8.19123	-2.48185	0	
1.5280	10.0056	-1.26913	0	
1.5287	13.9811	-1.26913	0	
1.5293	18.8638	-3.10232	0	
1.5300	21.9055	-4.03301	0	
1.5307	25.8811	-4.93551	0	
1.5313	30.1501	-4.31504	0	
1.5320	31.084	-4.03301	0	
1.5327	27.7221	-6.14823	0	
1.5333	22.2257	-6.76869	0	
1.5340	20.7049	-4.62527	0	
1.5347	21.612	-4.03301	0	
1.5353	15.502	-4.62527	0	
1.5360	4.82936	-4.03301	0	
1.5367	-2.80156	-4.03301	0	
1.5373	-13.7943	-0.958898	0	
1.5380	-30.2568	2.08701	0	
1.5387	-38.5014	0.87429	0	
1.5393	-35.4597	-1.26913	0	
1.5400	-35.1396	-0.366638	0	
1.5407	-39.7288	1.46655	0	
1.5413	-39.1151	1.77678	0	
1.5420	-35.1396	1.15632	0	
1.5427	-32.7115	0.87429	0	
1.5433	-28.4425	1.46655	0	
1.5440	-22.9461	-0.0564058	0	
1.5447	-17.4497	-3.10232	0	
1.5453	-8.29795	-2.19983	0	
1.5460	1.78766	0.253826	0	
1.5467	10.0056	-2.48185	0	
1.5473	16.1156	-5.838	0	
1.5480	20.3847	-4.62527	0	
1.5487	25.2674	-4.03301	0	
1.5493	32.8983	-5.55597	0	
1.5500	39.0084	-5.838	0	
1.5507	40.2357	-5.24574	0	
1.5513	39.0084	-4.93551	0	
1.5520	34.1257	-4.93551	0	
1.5527	30.7638	-3.41255	0	
1.5533	32.2846	-2.19983	0	
1.5540	28.9495	-2.19983	0	
1.5547	16.1156	-4.03301	0	
1.5553	4.82936	-4.62527	0	
1.5560	0.240134	-2.19983	0	
1.5567	-4.64259	-0.366638	0	
1.5573	-12.2735	-1.57936	0	
1.5580	-18.3569	-3.10232	0	
1.5587	-22.6259	-2.19983	0	
1.5593	-28.4425	0.253826	0	
1.5600	-34.8461	1.15632	0	
1.5607	-36.6871	1.77678	0	
1.5613	-33.9389	5.13293	0	
1.5620	-32.3914	7.27635	0	
1.5627	-33.3252	5.44316	0	
1.5633	-32.0979	3.60997	0	
1.5640	-26.9217	3.9202	0	
1.5647	-21.1051	3.29974	0	
1.5653	-16.5425	3.60997	0	
1.5660	-11.0462	5.13293	0	
1.5667	-3.70873	3.9202	0	
1.5673	2.08116	2.70748	0	
1.5680	10.0056	4.51246	0	
1.5687	18.2502	5.75339	0	
1.5693	21.9055	5.75339	0	
1.5700	24.0667	6.96611	0	
1.5707	30.1501	5.75339	0	
1.5713	34.4192	2.98951	0	
1.5720	31.3775	2.70748	0	
1.5727	26.4948	3.60997	0	
1.5733	25.2674	3.29974	0	
1.5740	25.5876	3.9202	0	
1.5747	19.771	5.44316	0	
1.5753	8.19123	5.75339	0	
1.5760	-0.053363	4.51246	0	
1.5767	-5.25626	3.9202	0	
1.5773	-14.0878	4.82269	0	
1.5780	-22.6259	5.13293	0	
1.5787	-22.9461	4.23043	0	
1.5793	-22.9461	3.9202	0	
1.5800	-29.3497	4.23043	0	
1.5807	-34.8461	3.29974	0	
1.5813	-33.9389	3.29974	0	
1.5820	-31.8044	3.29974	0	
1.5827	-26.6015	2.39725	0	
1.5833	-19.2907	1.77678	0	
1.5840	-17.4497	1.15632	0	
1.5847	-17.7432	-0.0564058	0	
1.5853	-13.1807	1.15632	0	
1.5860	-3.70873	3.9202	0	
1.5867	5.12285	3.29974	0	
1.5873	13.6876	1.46655	0	
1.5880	21.612	1.15632	0	
1.5887	29.5364	-0.366638	0	
1.5893	33.8322	-3.10232	0	
1.5900	32.6048	-2.19983	0	
1.5907	34.7393	-0.366638	0	
1.5913	40.5292	-4.03301	0	
1.5920	37.4875	-5.838	0	
1.5927	28.3358	-3.72278	0	
1.5933	25.5876	-3.10232	0	
1.5940	25.2674	-4.03301	0	
1.5947	19.771	-2.48185	0	
1.5953	13.6876	-3.10232	0	
1.5960	8.19123	-5.24574	0	
1.5967	0.853809	-4.93551	0	
1.5973	-5.54976	-4.93551	0	
1.5980	-12.567	-4.93551	0	
1.5987	-22.0389	-3.72278	0	
1.5993	-28.1223	-1.88959	0	
1.6000	-29.0562	2.08701	0	
1.6007	-29.9634	7.27635	0	
1.6013	-30.2568	6.06362	0	
1.6020	-29.6699	2.08701	0	
1.6027	-28.736	2.39725	0	
1.6033	-23.8533	1.77678	0	
1.6040	-15.6087	-0.648667	0	
1.6047	-11.0462	0.564058	0	
1.6053	-5.84325	1.15632	0	
1.6060	1.78766	-2.79209	0	
1.6067	6.3502	-2.48185	0	
1.6073	9.41858	0.87429	0	
1.6080	15.502	-1.26913	0	
1.6087	19.184	-3.10232	0	
1.6093	18.8638	-1.88959	0	
1.6100	21.3185	-3.10232	0	
1.6107	26.7882	-4.03301	0	
1.6113	26.7882	-0.0564058	0	
1.6120	24.9739	2.39725	0	
1.6127	26.4948	-0.958898	0	
1.6133	26.4948	-3.41255	0	
1.6140	23.7466	-2.48185	0	
1.6147	20.0912	-0.366638	0	
1.6153	10.9394	0.253826	0	
1.6160	-0.667038	-3.10232	0	
1.6167	-4.64259	-4.03301	0	
1.6173	-5.84325	0.87429	0	
1.6180	-14.7015	4.51246	0	
1.6187	-23.5598	4.23043	0	
1.6193	-26.6015	4.82269	0	
1.6200	-30.2568	4.51246	0	
1.6207	-33.9389	0.87429	0	
1.6213	-35.1396	-0.958898	0	
1.6220	-36.3669	-0.0564058	0	
1.6227	-35.7532	0.253826	0	
1.6233	-30.8705	0.564058	0	
1.6240	-24.7871	1.77678	0	
1.6247	-18.0634	2.39725	0	
1.6253	-10.4325	2.08701	0	
1.6260	-4.02891	1.46655	0	
1.6267	1.46748	2.39725	0	
1.6273	8.8049	3.60997	0	
1.6280	16.4358	2.70748	0	
1.6287	22.8394	0.564058	0	
1.6293	26.7882	0.564058	0	
1.6300	28.3358	1.46655	0	
1.6307	29.5364	1.77678	0	
1.6313	33.512	2.98951	0	
1.6320	35.6465	4.23043	0	
1.6327	31.084	2.70748	0	
1.6333	26.4948	1.15632	0	
1.6340	26.7882	2.39725	0	
1.6347	23.1329	2.98951	0	
1.6353	12.4603	1.15632	0	
1.6360	5.44303	-0.366638	0	
1.6367	2.08116	1.15632	0	
1.6373	-6.77711	1.77678	0	
1.6380	-17.4497	0.253826	0	
1.6387	-21.7188	-0.0564058	0	
1.6393	-24.7871	0.87429	0	
1.6400	-30.577	-0.648667	0	
1.6407	-33.6187	-2.48185	0	
1.6413	-33.005	-1.57936	0	
1.6420	-30.8705	-2.19983	0	
1.6427	-28.4425	-4.31504	0	
1.6433	-26.308	-3.41255	0	
1.6440	-19.9044	-0.958898	0	
1.6447	-11.3396	-0.958898	0	
1.6453	-7.97778	-2.19983	0	
1.6460	-6.45693	-2.19983	0	
1.6467	0.853809	-0.366638	0	
1.6473	9.41858	0.87429	0	
1.6480	13.0739	-0.366638	0	
1.6487	18.2502	-3.10232	0	
1.6493	26.4948	-3.72278	0	
1.6500	31.671	-3.10232	0	
1.6507	32.6048	-3.10232	0	
1.6513	31.9911	-2.79209	0	
1.6520	31.9911	-3.10232	0	
1.6527	31.084	-4.62527	0	
1.6533	27.7221	-3.72278	0	
1.6540	21.9055	-1.26913	0	
1.6547	18.5703	-1.57936	0	
1.6553	16.1156	-1.88959	0	
1.6560	9.0984	-0.958898	0	
1.6567	0.240134	-2.19983	0	
1.6573	-4.93608	-3.41255	0	
1.6580	-12.8605	-1.26913	0	
1.6587	-27.2152	-0.0564058	0	
1.6593	-37.5943	-1.57936	0	
1.6600	-40.0223	-1.88959	0	
1.6607	-40.0223	-0.958898	0	
1.6613	-37.8878	0.87429	0	
1.6620	-33.3252	2.39725	0	
1.6627	-29.6699	-0.366638	0	
1.6633	-26.308	-4.31504	0	
1.6640	-22.0389	-2.48185	0	
1.6647	-19.9044	1.77678	0	
1.6653	-16.836	1.46655	0	
1.6660	-6.77711	-1.26913	0	
1.6667	4.82936	-2.19983	0	
1.6673	10.6192	-1.88959	0	
1.6680	16.4358	-1.26913	0	
1.6687	27.1084	-1.26913	0	
1.6693	32.8983	-1.26913	0	
1.6700	31.3775	0.564058	0	
1.6707	30.4703	-1.26913	0	
1.6713	28.9495	-4.93551	0	
1.6720	24.6537	-4.03301	0	
1.6727	25.8811	-0.648667	0	
1.6733	30.1501	-0.648667	0	
1.6740	27.4019	-1.88959	0	
1.6747	19.4775	-0.648667	0	
1.6753	10.9394	-0.958898	0	
1.6760	0.240134	-3.10232	0	
1.6767	-7.0706	-1.57936	0	
1.6773	-9.5253	1.77678	0	
1.6780	-17.4497	3.29974	0	
1.6787	-29.0562	2.70748	0	
1.6793	-34.5526	1.46655	0	
1.6800	-34.5526	0.87429	0	
1.6807	-34.2324	1.46655	0	
1.6813	-32.7115	2.08701	0	
1.6820	-30.8705	1.77678	0	
1.6827	-31.8044	2.08701	0	
1.6833	-30.8705	1.46655	0	
1.6840	-24.7871	0.564058	0	
1.6847	-18.3569	1.77678	0	
1.6853	-11.9533	2.39725	0	
1.6860	-1.89439	-0.366638	0	
1.6867	4.50918	-0.958898	0	
1.6873	7.25737	0.564058	0	
1.6880	14.5948	-0.0564058	0	
1.6887	23.4531	-0.366638	0	
1.6893	27.7221	1.46655	0	
1.6900	31.084	3.29974	0	
1.6907	32.8983	4.23043	0	
1.6913	31.9911	2.98951	0	
1.6920	32.8983	-0.366638	0	
1.6927	32.6048	-0.366638	0	
1.6933	28.3358	1.77678	0	
1.6940	25.8811	0.253826	0	
1.6947	24.6537	-0.958898	0	
1.6953	19.184	2.08701	0	
1.6960	9.41858	2.98951	0	
1.6967	-2.50806	0.564058	0	
1.6973	-14.7015	-0.366638	0	
1.6980	-21.7188	-0.366638	0	
1.6987	-22.3324	-0.366638	0	
1.6993	-22.6259	1.15632	0	
1.7000	-23.8533	1.46655	0	
1.7007	-26.9217	0.253826	0	
1.7013	-33.005	0.87429	0	
1.7020	-35.1396	1.46655	0	
1.7027	-30.2568	-0.958898	0	
1.7033	-22.9461	-1.26913	0	
1.7040	-20.8116	2.08701	0	
1.7047	-21.7188	2.98951	0	
1.7053	-20.1979	1.15632	0	
1.7060	-13.1807	0.87429	0	
1.7067	-1.89439	0.564058	0	
1.7073	8.19123	-1.26913	0	
1.7080	13.3674	-0.958898	0	
1.7087	16.7293	-0.0564058	0	
1.7093	24.6537	-1.57936	0	
1.7100	33.512	-3.72278	0	
1.7107	36.2602	-4.93551	0	
1.7113	36.2602	-4.62527	0	
1.7120	36.5537	-1.26913	0	
1.7127	34.7393	0.253826	0	
1.7133	29.8566	-2.19983	0	
1.7140	23.7466	-2.19983	0	
1.7147	19.184	-0.366638	0	
1.7153	14.3013	-0.648667	0	
1.7160	8.19123	-2.19983	0	
1.7167	0.853809	-1.26913	0	
1.7173	-9.20513	0.564058	0	
1.7180	-22.0389	0.253826	0	
1.7187	-29.9634	-1.26913	0	
1.7193	-31.1907	-1.26913	0	
1.7200	-34.5526	0.564058	0	
1.7207	-38.8216	-0.366638	0	
1.7213	-38.2079	-3.72278	0	
1.7220	-33.9389	-2.79209	0	
1.7227	-30.8705	2.70748	0	
1.7233	-27.8288	4.82269	0	
1.7240	-21.1051	0.564058	0	
1.7247	-13.7943	-1.26913	0	
1.7253	-8.91163	2.08701	0	
1.7260	-2.50806	0.564058	0	
1.7267	8.48472	-5.24574	0	
1.7273	16.4358	-4.62527	0	
1.7280	15.2085	0.253826	0	
1.7287	13.3674	-0.958898	0	
1.7293	20.3847	-3.72278	0	
1.7300	31.084	-1.26913	0	
1.7307	35.6465	0.253826	0	
1.7313	35.0328	-0.648667	0	
1.7320	33.512	-0.366638	0	
1.7327	31.671	-1.26913	0	
1.7333	31.084	-3.41255	0	
1.7340	31.3775	-1.57936	0	
1.7347	22.5192	0.564058	0	
1.7353	7.57755	-1.57936	0	
1.7360	0.560312	-3.72278	0	
1.7367	-1.57421	-2.79209	0	
1.7373	-9.5253	-1.88959	0	
1.7380	-18.6771	-1.88959	0	
1.7387	-23.8533	-0.366638	0	
1.7393	-29.3497	1.77678	0	
1.7400	-33.005	3.29974	0	
1.7407	-31.1907	1.46655	0	
1.7413	-32.0979	-1.26913	0	
1.7420	-34.8461	-1.26913	0	
1.7427	-31.1907	0.564058	0	
1.7433	-26.6015	2.39725	0	
1.7440	-26.308	3.29974	0	
1.7447	-21.7188	2.39725	0	
1.7453	-11.0462	1.46655	0	
1.7460	-1.89439	1.77678	0	
1.7467	6.3502	1.46655	0	
1.7473	13.9811	0.253826	0	
1.7480	16.7293	-0.366638	0	
1.7487	20.9984	-0.0564058	0	
1.7493	30.4703	-1.57936	0	
1.7500	35.0328	-2.19983	0	
1.7507	32.8983	-0.958898	0	
1.7513	31.3775	-1.26913	0	
1.7520	31.3775	-2.19983	0	
1.7527	30.7638	-1.26913	0	
1.7533	28.3358	-1.26913	0	
1.7540	22.5192	-3.10232	0	
1.7547	16.4358	-3.10232	0	
1.7553	11.5531	-1.57936	0	
1.7560	3.30851	-2.19983	0	
1.7567	-6.45693	-2.19983	0	
1.7573	-12.567	-0.366638	0	
1.7580	-16.2224	-0.366638	0	
1.7587	-21.1051	-2.19983	0	
1.7593	-25.6943	-2.19983	0	
1.7600	-29.9634	-1.88959	0	
1.7607	-36.6871	-2.48185	0	
1.7613	-41.2496	-0.366638	0	
1.7620	-39.1151	2.39725	0	
1.7627	-35.7532	0.564058	0	
1.7633	-34.5526	0.253826	0	
1.7640	-30.8705	3.29974	0	
1.7647	-23.8533	3.60997	0	
1.7653	-15.0217	0.87429	0	
1.7660	-6.16343	1.77678	0	
1.7667	0.853809	3.29974	0	
1.7673	8.19123	1.46655	0	
1.7680	20.0912	0.253826	0	
1.7687	28.9495	0.564058	0	
1.7693	30.1501	-1.88959	0	
1.7700	31.9911	-4.93551	0	
1.7707	35.6465	-4.03301	0	
1.7713	35.9667	-4.03301	0	
1.7720	37.1674	-6.14823	0	
1.7727	38.3947	-6.76869	0	
1.7733	32.2846	-5.55597	0	
1.7740	22.8394	-5.55597	0	
1.7747	17.343	-6.14823	0	
1.7753	9.0984	-4.93551	0	
1.7760	0.853809	-0.366638	0	
1.7767	-1.89439	4.51246	0	
1.7773	-7.39078	5.13293	0	
1.7780	-18.9706	2.70748	0	
1.7787	-23.8533	1.15632	0	
1.7793	-25.6943	-1.26913	0	
1.7800	-33.005	-1.88959	0	
1.7807	-36.3669	0.87429	0	
1.7813	-33.005	2.08701	0	
1.7820	-32.7115	1.46655	0	
1.7827	-33.9389	2.39725	0	
1.7833	-30.577	3.60997	0	
1.7840	-23.5598	3.29974	0	
1.7847	-14.0878	1.46655	0	
1.7853	-8.91163	-1.26913	0	
1.7860	-9.5253	-1.26913	0	
1.7867	-6.16343	-0.958898	0	
1.7873	2.69483	-0.958898	0	
1.7880	10.3257	0.253826	0	
1.7887	18.5703	1.77678	0	
1.7893	28.9495	0.564058	0	
1.7900	34.1257	-0.0564058	0	
1.7907	32.8983	1.46655	0	
1.7913	30.7638	0.87429	0	
1.7920	30.4703	-2.19983	0	
1.7927	31.9911	-2.48185	0	
1.7933	30.7638	-0.958898	0	
1.7940	27.1084	-1.26913	0	
1.7947	24.3602	-1.57936	0	
1.7953	17.6365	0.253826	0	
1.7960	6.3502	1.46655	0	
1.7967	-2.80156	0.87429	0	
1.7973	-9.5253	1.15632	0	
1.7980	-15.3152	0.564058	0	
1.7987	-18.6771	-1.26913	0	
1.7993	-22.0389	-0.958898	0	
1.8000	-25.6943	-0.366638	0	
1.8007	-27.5087	-0.958898	0	
1.8013	-30.2568	0.564058	0	
1.8020	-31.4842	0.564058	0	
1.8027	-26.6015	-1.88959	0	
1.8033	-22.3324	-0.648667	0	
1.8040	-22.9461	3.29974	0	
1.8047	-17.7432	2.08701	0	
1.8053	-6.16343	-0.958898	0	
1.8060	-0.053363	-0.366638	0	
1.8067	3.30851	-0.366638	0	
1.8073	12.7538	-2.19983	0	
1.8080	22.2257	-1.26913	0	
1.8087	29.243	-2.19983	0	
1.8093	38.3947	-3.41255	0	
1.8100	43.5976	-2.19983	0	
1.8107	40.2357	-1.57936	0	
1.8113	37.4875	-3.10232	0	
1.8120	37.4875	0.253826	0	
1.8127	33.8322	2.39725	0	
1.8133	25.5876	-0.648667	0	
1.8140	17.0228	-2.19983	0	
1.8147	9.0984	0.564058	0	
1.8153	2.98833	-0.366638	0	
1.8160	-0.960535	-1.88959	0	
1.8167	-6.16343	-0.366638	0	
1.8173	-14.0878	-0.0564058	0	
1.8180	-21.7188	0.564058	0	
1.8187	-25.9878	1.77678	0	
1.8193	-29.9634	-0.0564058	0	
1.8200	-33.9389	-2.79209	0	
1.8207	-36.6871	-1.26913	0	
1.8213	-38.5014	-0.0564058	0	
1.8220	-39.1151	-0.648667	0	
1.8227	-34.5526	-0.958898	0	
1.8233	-28.1223	-0.648667	0	
1.8240	-22.6259	-1.88959	0	
1.8247	-16.5425	-1.57936	0	
1.8253	-12.2735	-0.648667	0	
1.8260	-9.20513	-2.19983	0	
1.8267	-1.57421	-2.79209	0	
1.8273	6.96388	-1.88959	0	
1.8280	12.4603	-3.10232	0	
1.8287	20.3847	-4.03301	0	
1.8293	27.1084	-3.10232	0	
1.8300	27.4019	-4.03301	0	
1.8307	29.243	-4.93551	0	
1.8313	31.9911	-1.57936	0	
1.8320	27.4019	0.87429	0	
1.8327	22.8394	-2.19983	0	
1.8333	21.9055	-2.19983	0	
1.8340	17.343	0.564058	0	
1.8347	10.3257	0.564058	0	
1.8353	6.05671	-0.366638	0	
1.8360	-0.373541	1.15632	0	
1.8367	-7.39078	1.46655	0	
1.8373	-12.2735	0.87429	0	
1.8380	-17.4497	1.15632	0	
1.8387	-22.0389	0.564058	0	
1.8393	-25.6943	-0.366638	0	
1.8400	-32.3914	-1.26913	0	
1.8407	-33.3252	-3.10232	0	
1.8413	-27.5087	-4.03301	0	
1.8420	-25.6943	-3.10232	0	
1.8427	-27.2152	-1.26913	0	
1.8433	-25.6943	1.15632	0	
1.8440	-24.1735	4.23043	0	
1.8447	-23.5598	5.44316	0	
1.8453	-19.2907	3.60997	0	
1.8460	-11.3396	1.15632	0	
1.8467	0.853809	0.564058	0	
1.8473	13.6876	1.46655	0	
1.8480	19.771	1.46655	0	
1.8487	24.6537	0.253826	0	
1.8493	29.8566	-0.958898	0	
1.8500	29.243	-0.366638	0	
1.8507	29.243	1.77678	0	
1.8513	33.8322	2.70748	0	
1.8520	33.8322	0.564058	0	
1.8527	29.243	-1.26913	0	
1.8533	28.3358	-0.958898	0	
1.8540	28.0156	-1.88959	0	
1.8547	21.9055	-1.88959	0	
1.8553	12.1401	0.564058	0	
1.8560	1.78766	-0.366638	0	
1.8567	-6.77711	-3.72278	0	
1.8573	-12.8605	-1.26913	0	
1.8580	-18.6771	1.46655	0	
1.8587	-23.2396	-1.26913	0	
1.8593	-26.6015	-0.958898	0	
1.8600	-29.3497	2.70748	0	
1.8607	-31.1907	0.564058	0	
1.8613	-32.3914	-2.48185	0	
1.8620	-33.005	-0.648667	0	
1.8627	-29.0562	0.564058	0	
1.8633	-24.467	-1.26913	0	
1.8640	-22.0389	-2.19983	0	
1.8647	-15.6087	-2.19983	0	
1.8653	-8.29795	-2.19983	0	
1.8660	-3.41524	-1.57936	0	
1.8667	4.21568	-1.26913	0	
1.8673	12.1401	0.87429	0	
1.8680	12.7538	1.77678	0	
1.8687	14.5948	-0.366638	0	
1.8693	21.9055	-0.366638	0	
1.8700	25.2674	0.87429	0	
1.8707	26.4948	0.564058	0	
1.8713	31.084	1.15632	0	
1.8720	33.512	1.77678	0	
1.8727	32.2846	-0.366638	0	
1.8733	31.3775	-0.0564058	0	
1.8740	28.0156	0.87429	0	
1.8747	20.9984	-4.03301	0	
1.8753	12.4603	-4.93551	0	
1.8760	2.08116	-0.958898	0	
1.8767	-7.39078	-1.26913	0	
1.8773	-14.7015	-2.48185	0	
1.8780	-22.0389	-0.0564058	0	
1.8787	-28.1223	0.87429	0	
1.8793	-31.8044	-0.0564058	0	
1.8800	-33.3252	0.564058	0	
1.8807	-33.005	0.564058	0	
1.8813	-33.005	-0.366638	0	
1.8820	-32.3914	0.87429	0	
1.8827	-29.9634	1.46655	0	
1.8833	-30.2568	1.46655	0	
1.8840	-30.8705	1.77678	0	
1.8847	-22.3324	-0.0564058	0	
1.8853	-11.3396	-1.26913	0	
1.8860	-2.80156	1.46655	0	
1.8867	6.96388	3.60997	0	
1.8873	13.0739	3.29974	0	
1.8880	15.2085	2.39725	0	
1.8887	24.6537	2.39725	0	
1.8893	33.512	0.564058	0	
1.8900	32.8983	-1.88959	0	
1.8907	34.4192	-2.19983	0	
1.8913	39.9156	-1.88959	0	
1.8920	38.1012	-2.19983	0	
1.8927	31.9911	-3.10232	0	
1.8933	27.4019	-1.88959	0	
1.8940	22.5192	0.564058	0	
1.8947	17.343	0.253826	0	
1.8953	10.0056	-2.48185	0	
1.8960	-2.50806	-4.03301	0	
1.8967	-10.139	-1.26913	0	
1.8973	-10.139	2.39725	0	
1.8980	-14.7015	2.98951	0	
1.8987	-25.9878	1.46655	0	
1.8993	-30.8705	-0.0564058	0	
1.9000	-30.2568	-0.366638	0	
1.9007	-31.4842	2.39725	0	
1.9013	-33.6187	6.06362	0	
1.9020	-32.7115	5.44316	0	
1.9027	-31.1907	3.29974	0	
1.9033	-28.4425	4.23043	0	
1.9040	-21.1051	4.82269	0	
1.9047	-14.0878	1.77678	0	
1.9053	-9.20513	2.08701	0	
1.9060	0.853809	4.23043	0	
1.9067	15.502	3.29974	0	
1.9073	20.3847	3.29974	0	
1.9080	14.5948	5.44316	0	
1.9087	15.502	3.60997	0	
1.9093	26.2013	1.15632	0	
1.9100	31.671	2.39725	0	
1.9107	31.3775	3.29974	0	
1.9113	34.7393	-0.0564058	0	
1.9120	36.5537	-2.19983	0	
1.9127	31.9911	-0.958898	0	
1.9133	28.3358	-0.0564058	0	
1.9140	26.4948	-0.0564058	0	
1.9147	20.0912	0.253826	0	
1.9153	10.6192	-0.958898	0	
1.9160	2.37466	-2.48185	0	
1.9167	-3.70873	-0.366638	0	
1.9173	-9.20513	3.29974	0	
1.9180	-15.6087	3.60997	0	
1.9187	-24.7871	3.29974	0	
1.9193	-32.0979	3.60997	0	
1.9200	-34.2324	2.98951	0	
1.9207	-35.4597	2.70748	0	
1.9213	-38.8216	2.98951	0	
1.9220	-39.7288	1.46655	0	
1.9227	-36.6871	1.46655	0	
1.9233	-33.9389	2.39725	0	
1.9240	-29.6699	2.39725	0	
1.9247	-20.1979	2.98951	0	
1.9253	-10.726	2.39725	0	
1.9260	-4.02891	-2.19983	0	
1.9267	2.37466	-4.03301	0	
1.9273	7.87105	-0.648667	0	
1.9280	13.6876	1.46655	0	
1.9287	21.9055	-0.958898	0	
1.9293	27.4019	-2.19983	0	
1.9300	29.243	-1.88959	0	
1.9307	33.512	-3.41255	0	
1.9313	37.1674	-4.03301	0	
1.9320	38.7149	-3.72278	0	
1.9327	39.6221	-6.76869	0	
1.9333	35.6465	-7.98142	0	
1.9340	26.7882	-2.48185	0	
1.9347	19.184	1.46655	0	
1.9353	13.3674	-2.19983	0	
1.9360	6.3502	-3.72278	0	
1.9367	-3.09506	-0.366638	0	
1.9373	-15.6087	-0.0564058	0	
1.9380	-25.0806	-1.26913	0	
1.9387	-28.4425	-0.366638	0	
1.9393	-31.4842	1.46655	0	
1.9400	-33.9389	0.564058	0	
1.9407	-33.005	-0.366638	0	
1.9413	-34.5526	0.253826	0	
1.9420	-39.1151	0.87429	0	
1.9427	-37.8878	0.87429	0	
1.9433	-31.1907	0.564058	0	
1.9440	-26.308	0.253826	0	
1.9447	-20.8116	-0.0564058	0	
1.9453	-10.4325	-0.366638	0	
1.9460	-0.960535	-2.19983	0	
1.9467	3.30851	-3.10232	0	
1.9473	7.87105	-1.57936	0	
1.9480	16.1156	-1.26913	0	
1.9487	24.0667	-3.41255	0	
1.9493	28.9495	-2.79209	0	
1.9500	32.2846	-1.57936	0	
1.9507	35.353	-3.10232	0	
1.9513	33.8322	-2.79209	0	
1.9520	28.3358	-2.48185	0	
1.9527	25.5876	-3.72278	0	
1.9533	25.5876	-0.648667	0	
1.9540	22.8394	1.77678	0	
1.9547	15.502	-2.79209	0	
1.9553	8.19123	-4.62527	0	
1.9560	3.60201	-0.0564058	0	
1.9567	-2.80156	1.77678	0	
1.9573	-11.9533	2.39725	0	
1.9580	-19.9044	4.23043	0	
1.9587	-25.0806	0.564058	0	
1.9593	-29.6699	-2.48185	0	
1.9600	-33.005	1.46655	0	
1.9607	-34.5526	4.23043	0	
1.9613	-35.1396	2.39725	0	
1.9620	-33.9389	2.39725	0	
1.9627	-30.577	2.98951	0	
1.9633	-26.6015	2.98951	0	
1.9640	-19.5842	2.98951	0	
1.9647	-11.0462	1.46655	0	
1.9653	-9.20513	0.564058	0	
1.9660	-9.20513	2.39725	0	
1.9667	-0.053363	2.39725	0	
1.9673	10.9394	0.564058	0	
1.9680	17.343	1.46655	0	
1.9687	24.6537	0.564058	0	
1.9693	28.9495	-2.19983	0	
1.9700	27.4019	-0.0564058	0	
1.9707	30.7638	3.60997	0	
1.9713	38.7149	0.87429	0	
1.9720	38.3947	-2.48185	0	
1.9727	31.9911	-1.88959	0	
1.9733	29.8566	-2.19983	0	
1.9740	28.9495	-4.31504	0	
1.9747	20.3847	-4.03301	0	
1.9753	7.25737	-2.48185	0	
1.9760	-1.28071	-2.48185	0	
1.9767	-3.70873	-0.648667	0	
1.9773	-7.39078	1.46655	0	
1.9780	-17.4497	0.564058	0	
1.9787	-26.6015	1.15632	0	
1.9793	-28.4425	2.98951	0	
1.9800	-27.5087	2.39725	0	
1.9807	-29.3497	1.77678	0	
1.9813	-28.4425	2.39725	0	
1.9820	-24.467	0.253826	0	
1.9827	-22.9461	-1.26913	0	
1.9833	-22.6259	0.564058	0	
1.9840	-18.3569	0.564058	0	
1.9847	-12.567	-0.366638	0	
1.9853	-7.39078	1.77678	0	
1.9860	0.853809	2.08701	0	
1.9867	9.71207	-0.648667	0	
1.9873	13.6876	-1.26913	0	
1.9880	16.4358	-1.57936	0	
1.9887	20.9984	-3.10232	0	
1.9893	25.5876	-2.19983	0	
1.9900	31.084	-0.648667	0	
1.9907	33.8322	-2.48185	0	
1.9913	31.084	-4.03301	0	
1.9920	28.6293	-4.31504	0	
1.9927	31.9911	-5.55597	0	
1.9933	31.9911	-5.838	0	
1.9940	25.5876	-4.62527	0	
1.9947	18.2502	-4.93551	0	
1.9953	10.6192	-4.93551	0	
1.9960	1.17399	-4.03301	0	
1.9967	-6.45693	-3.72278	0	
1.9973	-12.8605	-4.03301	0	
1.9980	-21.7188	-3.10232	0	
1.9987	-31.1907	-0.648667	0	
1.9993	-35.1396	-0.648667	0	
2.0000	-35.7532	-2.79209	0	
2.0007	-39.4353	-2.19983	0	
2.0013	-41.5698	0.564058	0	
2.0020	-37.8878	-0.0564058	0	
2.0027	-33.6187	-0.366638	0	
2.0033	-32.3914	0.564058	0	
2.0040	-29.3497	-0.648667	0	
2.0047	-22.6259	-3.10232	0	
2.0053	-15.9289	-1.26913	0	
2.0060	-9.20513	-0.648667	0	
2.0067	0.240134	-4.03301	0	
2.0073	9.41858	-4.03301	0	
2.0080	13.6876	-2.19983	0	
2.0087	16.7293	-3.10232	0	
2.0093	23.7466	-3.72278	0	
2.0100	30.1501	-3.10232	0	
2.0107	30.7638	-0.958898	0	
2.0113	29.8566	1.15632	0	
2.0120	30.7638	-0.366638	0	
2.0127	31.084	-2.79209	0	
2.0133	28.6293	-1.57936	0	
2.0140	23.7466	-0.366638	0	
2.0147	19.184	-2.19983	0	
2.0153	13.6876	-1.26913	0	
2.0160	4.50918	0.87429	0	
2.0167	-5.54976	0.564058	0	
2.0173	-13.4742	-1.57936	0	
2.0180	-18.9706	-2.79209	0	
2.0187	-21.4253	-3.10232	0	
2.0193	-24.7871	-3.10232	0	
2.0200	-31.1907	-2.19983	0	
2.0207	-32.7115	-0.366638	0	
2.0213	-27.5087	0.253826	0	
2.0220	-25.3741	-2.19983	0	
2.0227	-25.3741	-3.72278	0	
2.0233	-20.1979	-2.79209	0	
2.0240	-14.0878	-1.26913	0	
2.0247	-12.8605	0.253826	0	
2.0253	-14.408	0.253826	0	
2.0260	-10.726	-1.88959	0	
2.0267	-0.053363	-2.19983	0	
2.0273	9.41858	1.15632	0	
2.0280	14.5948	1.77678	0	
2.0287	20.0912	-0.0564058	0	
2.0293	26.7882	-0.0564058	0	
2.0300	31.3775	-1.26913	0	
2.0307	33.2185	-4.31504	0	
2.0313	32.8983	-3.72278	0	
2.0320	31.9911	-0.648667	0	
2.0327	31.671	-0.366638	0	
2.0333	29.243	0.253826	0	
2.0340	23.7466	0.253826	0	
2.0347	18.2502	-2.79209	0	
2.0353	12.7538	-4.31504	0	
2.0360	4.21568	-3.10232	0	
2.0367	-4.93608	-2.19983	0	
2.0373	-12.8605	-1.88959	0	
2.0380	-20.8116	-0.0564058	0	
2.0387	-26.6015	1.46655	0	
2.0393	-31.1907	2.39725	0	
2.0400	-37.5943	2.39725	0	
2.0407	-42.1568	1.15632	0	
2.0413	-41.2496	2.70748	0	
2.0420	-40.0223	6.06362	0	
2.0427	-39.4353	4.51246	0	
2.0433	-34.8461	1.77678	0	
2.0440	-30.2568	2.39725	0	
2.0447	-25.6943	2.39725	0	
2.0453	-15.3152	0.253826	0	
2.0460	-5.54976	2.39725	0	
2.0467	-0.960535	5.44316	0	
2.0473	7.25737	4.51246	0	
2.0480	18.5703	2.39725	0	
2.0487	23.7466	1.15632	0	
2.0493	26.7882	-0.366638	0	
2.0500	30.1501	0.87429	0	
2.0507	30.1501	1.77678	0	
2.0513	30.7638	-1.26913	0	
2.0520	33.512	-3.10232	0	
2.0527	31.9911	-1.88959	0	
2.0533	25.8811	-3.10232	0	
2.0540	20.0912	-3.10232	0	
2.0547	15.502	-0.366638	0	
2.0553	12.1401	-1.88959	0	
2.0560	7.25737	-2.79209	0	
2.0567	-3.41524	1.46655	0	
2.0573	-16.836	2.08701	0	
2.0580	-25.3741	0.253826	0	
2.0587	-27.5087	-0.0564058	0	
2.0593	-28.1223	-2.19983	0	
2.0600	-29.6699	-3.10232	0	
2.0607	-29.6699	0.253826	0	
2.0613	-27.8288	1.15632	0	
2.0620	-29.6699	-0.958898	0	
2.0627	-34.5526	0.87429	0	
2.0633	-35.1396	4.82269	0	
2.0640	-29.3497	5.44316	0	
2.0647	-19.5842	2.39725	0	
2.0653	-7.39078	-2.19983	0	
2.0660	2.98833	-2.79209	0	
2.0667	7.25737	0.564058	0	
2.0673	9.41858	2.70748	0	
2.0680	17.0228	1.77678	0	
2.0687	27.7221	0.564058	0	
2.0693	33.8322	0.87429	0	
2.0700	33.8322	1.77678	0	
2.0707	32.2846	1.15632	0	
2.0713	33.2185	-0.958898	0	
2.0720	35.6465	-1.26913	0	
2.0727	36.5537	1.15632	0	
2.0733	34.7393	1.46655	0	
2.0740	28.6293	-0.366638	0	
2.0747	21.9055	-0.366638	0	
2.0753	14.8883	2.08701	0	
2.0760	6.3502	2.39725	0	
2.0767	-2.80156	-0.366638	0	
2.0773	-9.8188	-0.0564058	0	
2.0780	-17.4497	3.29974	0	
2.0787	-25.6943	4.51246	0	
2.0793	-30.577	4.23043	0	
2.0800	-31.1907	5.75339	0	
2.0807	-28.1223	4.23043	0	
2.0813	-25.9878	2.98951	0	
2.0820	-28.1223	5.13293	0	
2.0827	-30.2568	5.13293	0	
2.0833	-27.5087	1.15632	0	
2.0840	-23.2396	1.46655	0	
2.0847	-19.2907	3.9202	0	
2.0853	-12.8605	4.23043	0	
2.0860	-5.84325	5.13293	0	
2.0867	2.08116	5.75339	0	
2.0873	10.6192	1.77678	0	
2.0880	14.5948	-1.57936	0	
2.0887	17.343	-0.958898	0	
2.0893	24.9739	0.87429	0	
2.0900	30.4703	0.564058	0	
2.0907	31.9911	-2.19983	0	
2.0913	36.2602	-4.93551	0	
2.0920	35.6465	-4.93551	0	
2.0927	26.4948	-3.41255	0	
2.0933	23.4531	-3.41255	0	
2.0940	26.4948	-4.62527	0	
2.0947	20.0912	-4.31504	0	
2.0953	7.87105	-2.48185	0	
2.0960	0.853809	-1.88959	0	
2.0967	-5.54976	-3.10232	0	
2.0973	-15.0217	-3.10232	0	
2.0980	-22.0389	0.564058	0	
2.0987	-25.6943	2.39725	0	
2.0993	-28.4425	0.564058	0	
2.1000	-29.0562	-2.19983	0	
2.1007	-29.3497	-1.88959	0	
2.1013	-29.6699	-0.366638	0	
2.1020	-28.4425	-1.26913	0	
2.1027	-26.6015	-1.26913	0	
2.1033	-23.8533	0.564058	0	
2.1040	-18.0634	0.253826	0	
2.1047	-11.0462	-0.0564058	0	
2.1053	-3.70873	1.46655	0	
2.1060	3.92218	2.39725	0	
2.1067	9.71207	3.9202	0	
2.1073	13.6876	7.27635	0	
2.1080	21.9055	6.34565	0	
2.1087	30.4703	0.87429	0	
2.1093	35.6465	-1.88959	0	
2.1100	40.8494	-1.57936	0	
2.1107	44.1846	-1.88959	0	
2.1113	42.6638	-1.88959	0	
2.1120	41.4364	-0.648667	0	
2.1127	40.8494	0.564058	0	
2.1133	35.353	0.564058	0	
2.1140	27.4019	0.253826	0	
2.1147	20.9984	-0.0564058	0	
2.1153	14.8883	-1.26913	0	
2.1160	8.19123	-2.19983	0	
2.1167	-0.053363	-0.366638	0	
2.1173	-9.20513	1.46655	0	
2.1180	-16.836	-0.648667	0	
2.1187	-22.9461	-1.26913	0	
2.1193	-30.2568	1.46655	0	
2.1200	-35.7532	1.77678	0	
2.1207	-37.2741	1.15632	0	
2.1213	-36.9806	1.15632	0	
2.1220	-34.8461	0.564058	0	
2.1227	-32.0979	1.46655	0	
2.1233	-30.577	4.23043	0	
2.1240	-24.7871	3.9202	0	
2.1247	-15.0217	0.253826	0	
2.1253	-10.4325	-0.648667	0	
2.1260	-8.29795	1.15632	0	
2.1267	0.240134	-0.0564058	0	
2.1273	11.8466	-1.26913	0	
2.1280	19.771	0.564058	0	
2.1287	23.4531	0.564058	0	
2.1293	24.6537	-2.48185	0	
2.1300	27.7221	-2.48185	0	
2.1307	33.2185	-1.57936	0	
2.1313	34.7393	-3.41255	0	
2.1320	31.084	-4.03301	0	
2.1327	29.243	-3.10232	0	
2.1333	30.1501	-4.31504	0	
2.1340	26.7882	-3.41255	0	
2.1347	18.5703	0.564058	0	
2.1353	12.4603	-0.958898	0	
2.1360	7.57755	-4.93551	0	
2.1367	1.78766	-4.31504	0	
2.1373	-3.70873	-3.10232	0	
2.1380	-10.4325	-3.41255	0	
2.1387	-23.8533	-1.26913	0	
2.1393	-36.3669	2.39725	0	
2.1400	-38.2079	3.29974	0	
2.1407	-36.6871	1.46655	0	
2.1413	-38.5014	-0.366638	0	
2.1420	-38.8216	0.564058	0	
2.1427	-35.1396	1.15632	0	
2.1433	-31.1907	-2.19983	0	
2.1440	-26.6015	-3.10232	0	
2.1447	-21.1051	0.87429	0	
2.1453	-15.6087	1.15632	0	
2.1460	-8.91163	-1.88959	0	
2.1467	-0.667038	-0.648667	0	
2.1473	7.57755	1.46655	0	
2.1480	16.4358	0.253826	0	
2.1487	24.9739	-0.366638	0	
2.1493	30.4703	0.253826	0	
2.1500	34.7393	-1.26913	0	
2.1507	36.2602	-3.41255	0	
2.1513	29.243	-4.62527	0	
2.1520	21.9055	-4.62527	0	
2.1527	25.2674	-4.31504	0	
2.1533	31.084	-4.93551	0	
2.1540	28.3358	-4.93551	0	
2.1547	19.184	-3.72278	0	
2.1553	8.8049	-0.958898	0	
2.1560	0.853809	1.15632	0	
2.1567	-0.960535	0.87429	0	
2.1573	-3.09506	-0.648667	0	
2.1580	-12.2735	1.15632	0	
2.1587	-21.7188	3.29974	0	
2.1593	-26.6015	0.87429	0	
2.1600	-31.1907	-0.958898	0	
2.1607	-33.9389	1.46655	0	
2.1613	-33.3252	1.77678	0	
2.1620	-31.4842	0.87429	0	
2.1627	-29.3497	3.29974	0	
2.1633	-27.8288	4.51246	0	
2.1640	-24.1735	3.29974	0	
2.1647	-16.2224	4.23043	0	
2.1653	-9.8188	4.23043	0	
2.1660	-6.16343	2.39725	0	
2.1667	1.78766	2.08701	0	
2.1673	11.5531	1.46655	0	
2.1680	18.2502	-0.366638	0	
2.1687	24.3602	-0.0564058	0	
2.1693	29.5364	0.87429	0	
2.1700	31.671	0.564058	0	
2.1707	34.4192	0.564058	0	
2.1713	39.3019	1.15632	0	
2.1720	39.3019	1.46655	0	
2.1727	33.2185	0.564058	0	
2.1733	25.5876	-2.48185	0	
2.1740	20.0912	-4.03301	0	
2.1747	15.502	-2.19983	0	
2.1753	10.0056	0.564058	0	
2.1760	5.44303	0.564058	0	
2.1767	1.78766	-0.366638	0	
2.1773	-6.77711	-1.26913	0	
2.1780	-18.6771	-1.26913	0	
2.1787	-25.0806	-0.0564058	0	
2.1793	-27.5087	-1.88959	0	
2.1800	-31.4842	-3.72278	0	
2.1807	-33.3252	-0.366638	0	
2.1813	-32.7115	3.29974	0	
2.1820	-31.4842	1.77678	0	
2.1827	-28.4425	1.15632	0	
2.1833	-25.0806	3.60997	0	
2.1840	-23.2396	3.60997	0	
2.1847	-17.4497	1.46655	0	
2.1853	-7.68428	1.77678	0	
2.1860	0.853809	0.87429	0	
2.1867	8.48472	-3.10232	0	
2.1873	15.2085	-4.03301	0	
2.1880	19.771	-3.10232	0	
2.1887	24.6537	-4.03301	0	
2.1893	31.084	-3.10232	0	
2.1900	33.8322	-0.958898	0	
2.1907	32.8983	-3.41255	0	
2.1913	32.8983	-7.07893	0	
2.1920	34.1257	-4.03301	0	
2.1927	32.8983	-0.0564058	0	
2.1933	27.7221	-1.26913	0	
2.1940	22.8394	-4.03301	0	
2.1947	18.2502	-2.19983	0	
2.1953	11.2329	0.87429	0	
2.1960	4.50918	-1.26913	0	
2.1967	0.853809	-4.03301	0	
2.1973	-4.93608	-2.19983	0	
2.1980	-15.9289	-2.19983	0	
2.1987	-24.1735	-4.62527	0	
2.1993	-25.6943	-1.26913	0	
2.2000	-28.736	2.98951	0	
2.2007	-35.4597	0.564058	0	
2.2013	-37.2741	-0.648667	0	
2.2020	-33.3252	0.253826	0	
2.2027	-31.1907	-1.88959	0	
2.2033	-30.2568	-0.648667	0	
2.2040	-25.6943	3.29974	0	
2.2047	-20.4914	2.70748	0	
2.2053	-16.5425	2.08701	0	
2.2060	-9.8188	3.29974	0	
2.2067	0.853809	0.87429	0	
2.2073	7.57755	-1.26913	0	
2.2080	13.0739	0.253826	0	
2.2087	23.1329	-0.366638	0	
2.2093	29.243	-1.26913	0	
2.2100	23.4531	0.564058	0	
2.2107	19.771	0.564058	0	
2.2113	24.9739	-3.41255	0	
2.2120	26.4948	-6.45846	0	
2.2127	22.8394	-6.45846	0	
2.2133	23.4531	-5.55597	0	
2.2140	22.8394	-4.93551	0	
2.2147	13.6876	-4.62527	0	
2.2153	4.82936	-5.24574	0	
2.2160	0.853809	-5.24574	0	
2.2167	-4.64259	-3.72278	0	
2.2173	-11.3396	-4.03301	0	
2.2180	-18.0634	-4.62527	0	
2.2187	-28.736	-1.26913	0	
2.2193	-35.7532	-0.0564058	0	
2.2200	-29.6699	-3.72278	0	
2.2207	-23.5598	-4.03301	0	
2.2213	-28.1223	-3.10232	0	
2.2220	-34.2324	-3.41255	0	
2.2227	-35.7532	-0.366638	0	
2.2233	-34.8461	3.9202	0	
2.2240	-28.4425	1.46655	0	
2.2247	-19.5842	-2.19983	0	
2.2253	-12.567	-0.366638	0	
2.2260	-2.80156	0.253826	0	
2.2267	7.25737	-2.48185	0	
2.2273	14.5948	-3.72278	0	
2.2280	22.2257	-1.88959	0	
2.2287	28.9495	-1.26913	0	
2.2293	28.9495	-1.57936	0	
2.2300	29.243	-0.366638	0	
2.2307	33.8322	0.564058	0	
2.2313	33.2185	-0.366638	0	
2.2320	30.1501	-0.0564058	0	
2.2327	30.7638	1.77678	0	
2.2333	28.3358	1.77678	0	
2.2340	21.9055	1.46655	0	
2.2347	16.4358	2.98951	0	
2.2353	12.7538	2.98951	0	
2.2360	6.67038	2.70748	0	
2.2367	-0.373541	4.82269	0	
2.2373	-8.29795	6.06362	0	
2.2380	-15.9289	4.51246	0	
2.2387	-24.1735	4.23043	0	
2.2393	-31.1907	4.51246	0	
2.2400	-33.6187	3.60997	0	
2.2407	-33.005	4.23043	0	
2.2413	-33.9389	5.44316	0	
2.2420	-33.9389	4.82269	0	
2.2427	-32.3914	3.60997	0	
2.2433	-30.8705	3.60997	0	
2.2440	-26.6015	3.60997	0	
2.2447	-19.5842	5.13293	0	
2.2453	-14.0878	4.23043	0	
2.2460	-8.59145	-0.366638	0	
2.2467	-0.960535	-0.366638	0	
2.2473	8.19123	3.29974	0	
2.2480	17.9567	0.564058	0	
2.2487	23.4531	-4.03301	0	
2.2493	22.8394	-1.57936	0	
2.2500	24.6537	1.46655	0	
2.2507	31.084	0.253826	0	
2.2513	32.8983	-0.366638	0	
2.2520	29.5364	-0.0564058	0	
2.2527	26.7882	-0.366638	0	
2.2533	25.8811	-0.648667	0	
2.2540	24.0667	-2.79209	0	
2.2547	18.2502	-3.41255	0	
2.2553	6.05671	-0.0564058	0	
2.2560	-6.16343	1.46655	0	
2.2567	-12.567	-0.958898	0	
2.2573	-17.4497	-4.03301	0	
2.2580	-22.3324	-6.14823	0	
2.2587	-24.7871	-5.55597	0	
2.2593	-31.1907	-2.19983	0	
2.2600	-38.8216	-2.19983	0	
2.2607	-39.4353	-2.19983	0	
2.2613	-36.6871	3.29974	0	
2.2620	-35.7532	7.58658	0	
2.2627	-33.9389	6.06362	0	
2.2633	-32.0979	2.70748	0	
2.2640	-31.1907	-0.648667	0	
2.2647	-23.5598	-2.19983	0	
2.2653	-12.2735	-0.366638	0	
2.2660	-3.70873	0.253826	0	
2.2667	3.60201	0.253826	0	
2.2673	9.71207	2.39725	0	
2.2680	12.4603	2.08701	0	
2.2687	15.502	1.15632	0	
2.2693	20.9984	2.70748	0	
2.2700	26.4948	1.15632	0	
2.2707	31.084	-2.19983	0	
2.2713	31.084	-0.958898	0	
2.2720	28.0156	-0.366638	0	
2.2727	27.1084	-2.48185	0	
2.2733	25.2674	-1.57936	0	
2.2740	20.0912	-0.366638	0	
2.2747	15.8221	-2.19983	0	
2.2753	10.9394	-2.79209	0	
2.2760	0.853809	-0.958898	0	
2.2767	-5.84325	-0.648667	0	
2.2773	-7.97778	-0.648667	0	
2.2780	-14.7015	-0.366638	0	
2.2787	-23.8533	-1.26913	0	
2.2793	-24.7871	-1.26913	0	
2.2800	-24.7871	2.08701	0	
2.2807	-33.005	3.29974	0	
2.2813	-38.2079	0.253826	0	
2.2820	-33.005	-1.88959	0	
2.2827	-26.9217	-0.366638	0	
2.2833	-24.7871	1.46655	0	
2.2840	-21.1051	1.15632	0	
2.2847	-12.8605	-0.648667	0	
2.2853	-4.02891	-2.79209	0	
2.2860	0.853809	-2.79209	0	
2.2867	4.50918	-2.79209	0	
2.2873	12.4603	-5.24574	0	
2.2880	21.3185	-6.14823	0	
2.2887	24.6537	-4.03301	0	
2.2893	23.4531	-1.57936	0	
2.2900	21.612	-0.648667	0	
2.2907	20.3847	-0.648667	0	
2.2913	22.5192	-2.19983	0	
2.2920	28.3358	-1.88959	0	
2.2927	31.671	-0.0564058	0	
2.2933	26.2013	-0.958898	0	
2.2940	16.4358	-2.79209	0	
2.2947	11.2329	-2.19983	0	
2.2953	7.87105	-2.48185	0	
2.2960	0.853809	-3.41255	0	
2.2967	-5.54976	-2.19983	0	
2.2973	-9.20513	-1.88959	0	
2.2980	-16.5425	-3.10232	0	
2.2987	-24.7871	-0.958898	0	
2.2993	-26.308	1.46655	0	
2.3000	-26.9217	0.564058	0	
2.3007	-31.1907	-0.648667	0	
2.3013	-31.1907	-1.26913	0	
2.3020	-26.308	-2.19983	0	
2.3027	-26.308	-1.26913	0	
2.3033	-29.0562	-0.0564058	0	
2.3040	-24.7871	0.253826	0	
2.3047	-15.6087	0.253826	0	
2.3053	-7.68428	0.564058	0	
2.3060	-0.667038	1.77678	0	
2.3067	5.12285	2.70748	0	
2.3073	10.0056	0.564058	0	
2.3080	17.343	-1.26913	0	
2.3087	24.0667	-0.0564058	0	
2.3093	28.3358	-0.648667	0	
2.3100	31.9911	-2.19983	0	
2.3107	32.8983	-0.0564058	0	
2.3113	31.671	-0.0564058	0	
2.3120	33.8322	-3.72278	0	
2.3127	35.9667	-4.03301	0	
2.3133	31.671	-2.48185	0	
2.3140	25.5876	-2.48185	0	
2.3147	22.2257	-2.19983	0	
2.3153	18.2502	-2.19983	0	
2.3160	7.57755	-2.19983	0	
2.3167	-7.0706	0.87429	0	
2.3173	-13.7943	2.08701	0	
2.3180	-10.139	-0.648667	0	
2.3187	-12.8605	-1.57936	0	
2.3193	-23.2396	1.15632	0	
2.3200	-26.6015	3.60997	0	
2.3207	-26.9217	4.82269	0	
2.3213	-31.8044	5.75339	0	
2.3220	-32.0979	6.65588	0	
2.3227	-27.8288	6.06362	0	
2.3233	-27.8288	3.9202	0	
2.3240	-23.8533	3.29974	0	
2.3247	-13.1807	4.51246	0	
2.3253	-6.45693	4.51246	0	
2.3260	-0.960535	3.9202	0	
2.3267	9.0984	3.60997	0	
2.3273	15.2085	3.60997	0	
2.3280	17.0228	4.51246	0	
2.3287	24.3602	5.13293	0	
2.3293	30.7638	2.39725	0	
2.3300	30.7638	0.87429	0	
2.3307	34.7393	1.77678	0	
2.3313	40.2357	-0.366638	0	
2.3320	38.3947	-3.41255	0	
2.3327	37.1674	-3.10232	0	
2.3333	39.9156	-1.57936	0	
2.3340	35.6465	-2.79209	0	
2.3347	24.3602	-3.72278	0	
2.3353	14.5948	-2.79209	0	
2.3360	6.3502	-0.648667	0	
2.3367	-0.667038	-0.648667	0	
2.3373	-6.16343	-3.10232	0	
2.3380	-14.7015	-4.03301	0	
2.3387	-20.4914	-1.26913	0	
2.3393	-20.8116	-0.648667	0	
2.3400	-23.8533	-4.03301	0	
2.3407	-28.736	-5.24574	0	
2.3413	-26.6015	-2.19983	0	
2.3420	-24.7871	0.564058	0	
2.3427	-27.5087	0.564058	0	
2.3433	-26.9217	1.15632	0	
2.3440	-22.0389	2.98951	0	
2.3447	-14.7015	3.29974	0	
2.3453	-3.70873	1.77678	0	
2.3460	4.82936	0.87429	0	
2.3467	5.12285	2.08701	0	
2.3473	5.73653	3.29974	0	
2.3480	14.5948	3.60997	0	
2.3487	24.3602	2.98951	0	
2.3493	28.0156	1.46655	0	
2.3500	30.1501	-0.0564058	0	
2.3507	34.7393	-0.0564058	0	
2.3513	36.5537	0.564058	0	
2.3520	33.8322	-0.0564058	0	
2.3527	32.2846	-1.26913	0	
2.3533	31.084	-1.26913	0	
2.3540	22.8394	-1.26913	0	
2.3547	14.3013	-1.57936	0	
2.3553	11.2329	-2.19983	0	
2.3560	4.50918	-1.88959	0	
2.3567	-7.68428	0.253826	0	
2.3573	-15.9289	0.87429	0	
2.3580	-18.6771	-0.0564058	0	
2.3587	-23.8533	1.77678	0	
2.3593	-32.3914	3.60997	0	
2.3600	-39.1151	1.15632	0	
2.3607	-37.2741	-0.366638	0	
2.3613	-32.7115	2.98951	0	
2.3620	-34.2324	5.44316	0	
2.3627	-35.7532	4.82269	0	
2.3633	-28.1223	5.13293	0	
2.3640	-21.4253	6.96611	0	
2.3647	-20.4914	5.75339	0	
2.3653	-14.7015	2.98951	0	
2.3660	-2.80156	3.29974	0	
2.3667	5.73653	3.29974	0	
2.3673	12.7538	-0.0564058	0	
2.3680	21.9055	-2.19983	0	
2.3687	27.7221	-0.958898	0	
2.3693	27.4019	-0.0564058	0	
2.3700	28.0156	-1.88959	0	
2.3707	34.7393	-2.79209	0	
2.3713	41.1429	-3.10232	0	
2.3720	40.2357	-3.72278	0	
2.3727	33.8322	-2.48185	0	
2.3733	26.4948	-0.366638	0	
2.3740	20.9984	-0.648667	0	
2.3747	18.5703	-1.26913	0	
2.3753	14.3013	-0.366638	0	
2.3760	6.3502	-0.366638	0	
2.3767	-1.57421	-1.26913	0	
2.3773	-7.39078	-1.26913	0	
2.3780	-14.408	-0.366638	0	
2.3787	-22.6259	1.77678	0	
2.3793	-27.8288	4.23043	0	
2.3800	-30.2568	4.23043	0	
2.3807	-32.7115	4.82269	0	
2.3813	-34.5526	7.86861	0	
2.3820	-33.005	6.65588	0	
2.3827	-31.1907	3.29974	0	
2.3833	-30.2568	5.75339	0	
2.3840	-26.308	7.27635	0	
2.3847	-18.0634	1.46655	0	
2.3853	-11.9533	-0.648667	0	
2.3860	-8.29795	5.13293	0	
2.3867	-1.89439	8.17884	0	
2.3873	4.82936	6.65588	0	
2.3880	11.2329	4.51246	0	
2.3887	19.184	1.77678	0	
2.3893	26.2013	0.253826	0	
2.3900	30.4703	1.46655	0	
2.3907	34.7393	0.564058	0	
2.3913	38.3947	-2.79209	0	
2.3920	36.5537	-2.79209	0	
2.3927	31.084	-0.648667	0	
2.3933	26.7882	-0.366638	0	
2.3940	22.8394	-1.88959	0	
2.3947	15.8221	-4.31504	0	
2.3953	7.87105	-5.838	0	
2.3960	0.853809	-4.62527	0	
2.3967	-4.02891	-3.10232	0	
2.3973	-10.139	-2.79209	0	
2.3980	-20.4914	-3.72278	0	
2.3987	-30.2568	-4.03301	0	
2.3993	-32.0979	-3.72278	0	
2.4000	-31.1907	-2.48185	0	
2.4007	-34.5526	-2.19983	0	
2.4013	-37.5943	-2.19983	0	
2.4020	-35.1396	-0.366638	0	
2.4027	-31.1907	1.15632	0	
2.4033	-29.3497	-0.648667	0	
2.4040	-29.0562	-2.48185	0	
2.4047	-25.3741	-0.366638	0	
2.4053	-13.4742	2.08701	0	
2.4060	-0.960535	0.564058	0	
2.4067	3.92218	-2.48185	0	
2.4073	8.8049	-3.72278	0	
2.4080	17.343	-2.79209	0	
2.4087	20.9984	-2.19983	0	
2.4093	20.9984	-3.10232	0	
2.4100	22.8394	-4.31504	0	
2.4107	23.7466	-5.838	0	
2.4113	24.0667	-7.67119	0	
2.4120	25.8811	-7.38916	0	
2.4127	24.6537	-5.838	0	
2.4133	20.7049	-7.38916	0	
2.4140	17.343	-8.91211	0	
2.4147	10.0056	-5.838	0	
2.4153	1.17399	-4.03301	0	
2.4160	-0.053363	-4.93551	0	
2.4167	0.853809	-5.838	0	
2.4173	-4.93608	-7.07893	0	
2.4180	-15.0217	-7.98142	0	
2.4187	-22.6259	-4.93551	0	
2.4193	-29.6699	-0.958898	0	
2.4200	-37.5943	-0.366638	0	
2.4207	-42.477	-0.366638	0	
2.4213	-40.636	0.87429	0	
2.4220	-36.3669	1.15632	0	
2.4227	-33.9389	0.253826	0	
2.4233	-29.3497	-0.366638	0	
2.4240	-20.8116	-0.648667	0	
2.4247	-15.0217	-0.958898	0	
2.4253	-11.9533	-1.88959	0	
2.4260	-7.0706	-3.41255	0	
2.4267	-1.89439	-2.79209	0	
2.4273	5.73653	-2.19983	0	
2.4280	18.5703	-4.93551	0	
2.4287	27.4019	-5.55597	0	
2.4293	28.0156	-3.10232	0	
2.4300	28.9495	-3.41255	0	
2.4307	34.1257	-4.93551	0	
2.4313	37.1674	-4.93551	0	
2.4320	34.7393	-6.76869	0	
2.4327	28.9495	-8.29165	0	
2.4333	21.3185	-4.03301	0	
2.4340	14.5948	-0.958898	0	
2.4347	8.19123	-2.19983	0	
2.4353	0.853809	-2.79209	0	
2.4360	-6.16343	-3.10232	0	
2.4367	-11.3396	-4.03301	0	
2.4373	-16.5425	-3.10232	0	
2.4380	-24.467	0.253826	0	
2.4387	-32.0979	0.87429	0	
2.4393	-36.6871	1.46655	0	
2.4400	-40.9561	5.13293	0	
2.4407	-43.7043	7.86861	0	
2.4413	-41.2496	6.06362	0	
2.4420	-38.5014	3.29974	0	
2.4427	-38.5014	4.23043	0	
2.4433	-33.9389	6.65588	0	
2.4440	-24.7871	7.27635	0	
2.4447	-18.0634	6.96611	0	
2.4453	-12.2735	6.65588	0	
2.4460	-3.09506	5.44316	0	
2.4467	5.44303	4.82269	0	
2.4473	13.9811	4.82269	0	
2.4480	22.8394	2.39725	0	
2.4487	29.8566	-0.366638	0	
2.4493	35.0328	-0.366638	0	
2.4500	38.7149	-0.366638	0	
2.4507	36.5537	-2.79209	0	
2.4513	32.8983	-2.79209	0	
2.4520	35.6465	-1.57936	0	
2.4527	38.3947	-1.26913	0	
2.4533	31.9911	0.564058	0	
2.4540	23.1329	2.08701	0	
2.4547	17.343	0.253826	0	
2.4553	10.0056	-0.366638	0	
2.4560	1.78766	2.39725	0	
2.4567	-5.25626	3.29974	0	
2.4573	-13.7943	1.77678	0	
2.4580	-22.0389	1.77678	0	
2.4587	-25.9878	3.60997	0	
2.4593	-29.3497	6.06362	0	
2.4600	-33.9389	7.27635	0	
2.4607	-36.0734	5.13293	0	
2.4613	-35.7532	2.08701	0	
2.4620	-36.3669	3.29974	0	
2.4627	-38.8216	6.96611	0	
2.4633	-36.0734	6.96611	0	
2.4640	-22.0389	2.70748	0	
2.4647	-8.29795	0.87429	0	
2.4653	-8.59145	3.29974	0	
2.4660	-10.139	3.60997	0	
2.4667	2.37466	1.77678	0	
2.4673	19.184	0.253826	0	
2.4680	26.4948	-1.26913	0	
2.4687	29.243	-1.57936	0	
2.4693	32.8983	-0.0564058	0	
2.4700	36.2602	-0.958898	0	
2.4707	36.8739	-3.41255	0	
2.4713	37.4875	-3.41255	0	
2.4720	39.0084	-2.79209	0	
2.4727	37.4875	-2.79209	0	
2.4733	31.671	-0.958898	0	
2.4740	25.2674	0.253826	0	
2.4747	20.0912	-0.366638	0	
2.4753	14.5948	-0.648667	0	
2.4760	6.3502	-1.26913	0	
2.4767	-2.80156	-3.41255	0	
2.4773	-8.59145	-4.31504	0	
2.4780	-13.4742	-3.72278	0	
2.4787	-21.7188	-2.19983	0	
2.4793	-26.6015	-1.57936	0	
2.4800	-25.0806	-1.26913	0	
2.4807	-24.7871	-0.366638	0	
2.4813	-27.2152	0.564058	0	
2.4820	-28.1223	0.87429	0	
2.4827	-25.9878	1.46655	0	
2.4833	-20.1979	3.29974	0	
2.4840	-14.408	2.98951	0	
2.4847	-11.0462	-0.366638	0	
2.4853	-4.93608	-1.26913	0	
2.4860	3.60201	1.46655	0	
2.4867	10.3257	2.70748	0	
2.4873	16.7293	1.46655	0	
2.4880	20.9984	0.564058	0	
2.4887	21.612	0.253826	0	
2.4893	26.2013	-0.958898	0	
2.4900	33.2185	-1.57936	0	
2.4907	35.6465	-1.57936	0	
2.4913	35.6465	-0.958898	0	
2.4920	34.4192	-0.0564058	0	
2.4927	30.1501	-0.366638	0	
2.4933	26.2013	-1.57936	0	
2.4940	21.612	-1.26913	0	
2.4947	11.2329	0.253826	0	
2.4953	1.46748	0.253826	0	
2.4960	-3.70873	-2.19983	0	
2.4967	-10.4325	-2.79209	0	
2.4973	-18.9706	-0.0564058	0	
2.4980	-23.2396	0.564058	0	
2.4987	-26.6015	-0.958898	0	
2.4993	-33.6187	0.564058	0	
2.5000	-41.8633	2.98951	0	
2.5007	-45.2252	2.70748	0	
2.5013	-41.2496	3.60997	0	
2.5020	-35.4597	4.82269	0	
2.5027	-32.3914	2.39725	0	
2.5033	-31.4842	0.87429	0	
2.5040	-25.0806	0.564058	0	
2.5047	-14.0878	0.564058	0	
2.5053	-5.54976	1.46655	0	
2.5060	-0.960535	3.9202	0	
2.5067	4.82936	5.13293	0	
2.5073	13.3674	4.23043	0	
2.5080	21.9055	-0.366638	0	
2.5087	28.0156	-3.10232	0	
2.5093	30.4703	-1.26913	0	
2.5100	30.4703	-0.366638	0	
2.5107	31.084	0.253826	0	
2.5113	31.9911	3.29974	0	
2.5120	32.2846	2.39725	0	
2.5127	31.3775	-2.19983	0	
2.5133	28.6293	-2.19983	0	
2.5140	24.6537	-0.366638	0	
2.5147	20.9984	-1.26913	0	
2.5153	14.3013	-1.26913	0	
2.5160	3.30851	-0.0564058	0	
2.5167	-4.64259	-2.19983	0	
2.5173	-9.20513	-4.03301	0	
2.5180	-13.7943	-2.19983	0	
2.5187	-16.5425	-0.366638	0	
2.5193	-18.3569	-2.19983	0	
2.5200	-25.6943	-3.10232	0	
2.5207	-30.2568	-1.57936	0	
2.5213	-27.8288	-0.0564058	0	
2.5220	-26.9217	-0.366638	0	
2.5227	-30.577	-1.26913	0	
2.5233	-30.2568	-0.648667	0	
2.5240	-23.5598	1.46655	0	
2.5247	-15.0217	4.23043	0	
2.5253	-7.39078	4.82269	0	
2.5260	-0.053363	3.29974	0	
2.5267	6.05671	3.29974	0	
2.5273	10.3257	2.39725	0	
2.5280	11.2329	0.564058	0	
2.5287	13.3674	-1.26913	0	
2.5293	21.9055	-3.10232	0	
2.5300	31.084	-3.41255	0	
2.5307	33.8322	-2.48185	0	
2.5313	31.3775	-2.19983	0	
2.5320	28.6293	-2.79209	0	
2.5327	28.6293	-2.19983	0	
2.5333	30.7638	-2.79209	0	
2.5340	26.4948	-4.03301	0	
2.5347	15.502	-1.26913	0	
2.5353	9.0984	0.564058	0	
2.5360	7.57755	-2.79209	0	
2.5367	0.853809	-3.10232	0	
2.5373	-11.0462	1.46655	0	
2.5380	-18.3569	2.08701	0	
2.5387	-23.5598	1.46655	0	
2.5393	-27.8288	4.23043	0	
2.5400	-26.6015	4.23043	0	
2.5407	-25.3741	-0.366638	0	
2.5413	-30.2568	-1.88959	0	
2.5420	-33.9389	-0.958898	0	
2.5427	-31.1907	-0.648667	0	
2.5433	-30.8705	1.46655	0	
2.5440	-29.6699	3.29974	0	
2.5447	-22.0389	2.39725	0	
2.5453	-12.2735	1.77678	0	
2.5460	-1.57421	2.98951	0	
2.5467	9.71207	2.39725	0	
2.5473	15.2085	1.46655	0	
2.5480	16.7293	1.15632	0	
2.5487	21.9055	-0.366638	0	
2.5493	26.4948	-0.0564058	0	
2.5500	27.4019	1.77678	0	
2.5507	28.6293	-0.0564058	0	
2.5513	29.5364	-2.48185	0	
2.5520	27.4019	-0.366638	0	
2.5527	22.8394	-0.366638	0	
2.5533	19.184	-3.72278	0	
2.5540	15.502	-3.10232	0	
2.5547	10.0056	-0.958898	0	
2.5553	2.69483	-2.19983	0	
2.5560	-2.80156	-3.72278	0	
2.5567	-8.91163	-3.10232	0	
2.5573	-17.4497	-2.19983	0	
2.5580	-23.5598	-0.0564058	0	
2.5587	-26.308	1.46655	0	
2.5593	-32.0979	0.564058	0	
2.5600	-41.2496	0.253826	0	
2.5607	-45.5187	0.87429	0	
2.5613	-43.3842	0.564058	0	
2.5620	-41.2496	0.564058	0	
2.5627	-38.5014	1.46655	0	
2.5633	-32.0979	0.253826	0	
2.5640	-28.4425	0.253826	0	
2.5647	-26.6015	0.564058	0	
2.5653	-19.2907	-1.26913	0	
2.5660	-9.20513	-1.88959	0	
2.5667	-1.89439	0.564058	0	
2.5673	6.3502	-0.0564058	0	
2.5680	15.502	-3.10232	0	
2.5687	23.7466	-3.41255	0	
2.5693	33.2185	-3.41255	0	
2.5700	39.0084	-4.93551	0	
2.5707	36.8739	-4.31504	0	
2.5713	35.6465	-3.10232	0	
2.5720	36.5537	-3.72278	0	
2.5727	30.1501	-3.10232	0	
2.5733	21.9055	-0.0564058	0	
2.5740	20.0912	1.46655	0	
2.5747	16.4358	-1.26913	0	
2.5753	9.0984	-4.03301	0	
2.5760	4.50918	-2.79209	0	
2.5767	-1.89439	0.87429	0	
2.5773	-11.9533	1.77678	0	
2.5780	-16.5425	-0.366638	0	
2.5787	-18.3569	-1.88959	0	
2.5793	-26.308	-0.958898	0	
2.5800	-34.8461	-0.366638	0	
2.5807	-34.5526	0.253826	0	
2.5813	-31.8044	1.15632	0	
2.5820	-33.9389	0.253826	0	
2.5827	-34.5526	-0.958898	0	
2.5833	-29.6699	0.253826	0	
2.5840	-23.8533	2.08701	0	
2.5847	-18.0634	2.98951	0	
2.5853	-8.29795	2.70748	0	
2.5860	0.853809	2.08701	0	
2.5867	5.44303	2.39725	0	
2.5873	11.8466	1.46655	0	
2.5880	20.0912	-1.57936	0	
2.5887	25.2674	-2.79209	0	
2.5893	29.8566	-2.19983	0	
2.5900	32.8983	-1.26913	0	
2.5907	32.6048	0.253826	0	
2.5913	35.0328	-0.0564058	0	
2.5920	37.4875	-2.79209	0	
2.5927	30.1501	-2.48185	0	
2.5933	23.1329	-1.57936	0	
2.5940	25.5876	-4.03301	0	
2.5947	25.5876	-4.62527	0	
2.5953	17.343	-1.88959	0	
2.5960	8.8049	-2.79209	0	
2.5967	2.37466	-5.838	0	
2.5973	-6.16343	-5.55597	0	
2.5980	-17.4497	-2.79209	0	
2.5987	-25.6943	-0.958898	0	
2.5993	-27.5087	-0.0564058	0	
2.6000	-26.308	0.253826	0	
2.6007	-28.4425	0.253826	0	
2.6013	-31.4842	-0.366638	0	
2.6020	-29.6699	-0.648667	0	
2.6027	-24.7871	0.564058	0	
2.6033	-20.1979	1.46655	0	
2.6040	-16.5425	1.77678	0	
2.6047	-11.9533	3.9202	0	
2.6053	-6.16343	5.13293	0	
2.6060	-0.053363	3.29974	0	
2.6067	6.3502	2.08701	0	
2.6073	14.5948	2.98951	0	
2.6080	22.8394	2.70748	0	
2.6087	27.7221	1.46655	0	
2.6093	31.3775	2.08701	0	
2.6100	34.7393	2.98951	0	
2.6107	35.6465	2.08701	0	
2.6113	37.4875	1.46655	0	
2.6120	41.1429	2.98951	0	
2.6127	37.4875	2.98951	0	
2.6133	27.1084	0.87429	0	
2.6140	23.4531	1.46655	0	
2.6147	23.1329	2.39725	0	
2.6153	13.0739	2.08701	0	
2.6160	-0.667038	2.98951	0	
2.6167	-5.25626	4.23043	0	
2.6173	-7.39078	2.39725	0	
2.6180	-16.5425	1.46655	0	
2.6187	-28.1223	3.9202	0	
2.6193	-34.8461	3.29974	0	
2.6200	-36.6871	1.15632	0	
2.6207	-35.4597	1.46655	0	
2.6213	-33.6187	2.08701	0	
2.6220	-30.577	1.77678	0	
2.6227	-26.6015	2.39725	0	
2.6233	-24.1735	2.98951	0	
2.6240	-20.4914	2.08701	0	
2.6247	-12.8605	0.253826	0	
2.6253	-5.54976	-3.10232	0	
2.6260	0.853809	-4.03301	0	
2.6267	10.0056	-0.366638	0	
2.6273	15.8221	2.08701	0	
2.6280	19.184	-1.88959	0	
2.6287	26.4948	-4.03301	0	
2.6293	30.7638	-3.10232	0	
2.6300	29.243	-4.03301	0	
2.6307	29.243	-6.76869	0	
2.6313	29.8566	-6.45846	0	
2.6320	23.4531	-4.93551	0	
2.6327	18.2502	-4.93551	0	
2.6333	20.0912	-7.07893	0	
2.6340	20.9984	-8.60188	0	
2.6347	14.5948	-7.67119	0	
2.6353	3.92218	-4.03301	0	
2.6360	-5.54976	-2.79209	0	
2.6367	-10.726	-3.10232	0	
2.6373	-14.7015	-2.19983	0	
2.6380	-22.0389	-0.958898	0	
2.6387	-28.4425	-0.366638	0	
2.6393	-29.9634	1.46655	0	
2.6400	-32.7115	4.51246	0	
2.6407	-35.4597	5.75339	0	
2.6413	-33.9389	4.23043	0	
2.6420	-33.005	2.70748	0	
2.6427	-33.005	4.51246	0	
2.6433	-29.6699	7.86861	0	
2.6440	-24.467	6.65588	0	
2.6447	-19.2907	2.98951	0	
2.6453	-12.567	3.29974	0	
2.6460	-5.54976	4.23043	0	
2.6467	0.853809	2.70748	0	
2.6473	7.57755	1.46655	0	
2.6480	12.7538	0.87429	0	
2.6487	18.2502	-0.0564058	0	
2.6493	24.9739	0.564058	0	
2.6500	29.5364	0.253826	0	
2.6507	32.8983	-1.26913	0	
2.6513	35.0328	0.253826	0	
2.6520	32.2846	1.46655	0	
2.6527	28.6293	-1.57936	0	
2.6533	29.243	-3.72278	0	
2.6540	22.8394	-3.10232	0	
2.6547	8.19123	-3.72278	0	
2.6553	1.17399	-4.31504	0	
2.6560	-0.960535	-3.72278	0	
2.6567	-9.8188	-2.48185	0	
2.6573	-16.5425	-1.57936	0	
2.6580	-17.4497	-1.26913	0	
2.6587	-22.3324	-0.958898	0	
2.6593	-25.9878	-0.0564058	0	
2.6600	-25.0806	-2.19983	0	
2.6607	-28.4425	-4.03301	0	
2.6613	-30.577	-1.26913	0	
2.6620	-22.9461	-0.366638	0	
2.6627	-17.4497	-2.19983	0	
2.6633	-18.9706	-0.366638	0	
2.6640	-13.7943	1.77678	0	
2.6647	-5.54976	-0.958898	0	
2.6653	-5.25626	-1.57936	0	
2.6660	-3.70873	1.46655	0	
2.6667	8.19123	0.564058	0	
2.6673	17.9567	-3.10232	0	
2.6680	18.8638	-2.79209	0	
2.6687	20.9984	-0.648667	0	
2.6693	26.2013	-0.366638	0	
2.6700	27.7221	-1.26913	0	
2.6707	27.7221	-4.31504	0	
2.6713	29.5364	-7.67119	0	
2.6720	30.1501	-7.07893	0	
2.6727	28.0156	-5.24574	0	
2.6733	25.2674	-4.93551	0	
2.6740	20.9984	-4.62527	0	
2.6747	14.5948	-3.10232	0	
2.6753	7.25737	-2.79209	0	
2.6760	0.560312	-2.19983	0	
2.6767	-7.39078	0.564058	0	
2.6773	-15.6087	2.08701	0	
2.6780	-22.9461	-0.648667	0	
2.6787	-29.0562	-3.10232	0	
2.6793	-33.3252	-0.958898	0	
2.6800	-36.9806	1.46655	0	
2.6807	-39.4353	0.564058	0	
2.6813	-36.6871	0.564058	0	
2.6820	-32.0979	2.39725	0	
2.6827	-30.8705	1.77678	0	
2.6833	-29.6699	-0.958898	0	
2.6840	-25.3741	-1.26913	0	
2.6847	-17.4497	-0.366638	0	
2.6853	-6.45693	-2.19983	0	
2.6860	2.69483	-2.19983	0	
2.6867	7.25737	-0.366638	0	
2.6873	14.5948	-2.19983	0	
2.6880	27.1084	-6.14823	0	
2.6887	33.8322	-6.14823	0	
2.6893	32.2846	-4.93551	0	
2.6900	31.9911	-8.60188	0	
2.6907	34.7393	-10.4351	0	
2.6913	38.7149	-6.14823	0	
2.6920	38.7149	-1.88959	0	
2.6927	30.1501	-0.648667	0	
2.6933	21.612	-0.958898	0	
2.6940	21.612	-2.19983	0	
2.6947	21.9055	-4.03301	0	
2.6953	14.8883	-3.41255	0	
2.6960	6.67038	-0.958898	0	
2.6967	-2.18788	-0.366638	0	
2.6973	-14.7015	-2.19983	0	
2.6980	-21.1051	-3.41255	0	
2.6987	-19.2907	-1.57936	0	
2.6993	-23.8533	0.564058	0	
2.7000	-36.0734	2.08701	0	
2.7007	-40.0223	4.23043	0	
2.7013	-36.6871	5.13293	0	
2.7020	-36.6871	1.46655	0	
2.7027	-34.2324	-1.88959	0	
2.7033	-27.2152	-0.366638	0	
2.7040	-23.8533	1.15632	0	
2.7047	-22.0389	-0.958898	0	
2.7053	-16.2224	-0.958898	0	
2.7060	-8.91163	1.15632	0	
2.7067	-0.960535	0.87429	0	
2.7073	7.25737	-1.26913	0	
2.7080	14.8883	-2.79209	0	
2.7087	23.7466	-2.19983	0	
2.7093	30.1501	-2.19983	0	
2.7100	31.671	-3.72278	0	
2.7107	32.8983	-4.31504	0	
2.7113	33.2185	-4.62527	0	
2.7120	28.3358	-5.838	0	
2.7127	25.2674	-5.838	0	
2.7133	24.9739	-4.93551	0	
2.7140	17.6365	-6.45846	0	
2.7147	10.3257	-5.838	0	
2.7153	10.9394	-2.19983	0	
2.7160	6.96388	-2.19983	0	
2.7167	-4.02891	-3.72278	0	
2.7173	-9.8188	-0.366638	0	
2.7180	-12.8605	2.39725	0	
2.7187	-21.1051	0.564058	0	
2.7193	-27.8288	-1.26913	0	
2.7200	-31.1907	0.564058	0	
2.7207	-35.7532	3.60997	0	
2.7213	-36.9806	3.9202	0	
2.7220	-36.6871	1.46655	0	
2.7227	-36.9806	1.77678	0	
2.7233	-32.0979	4.82269	0	
2.7240	-21.1051	5.13293	0	
2.7247	-13.7943	2.39725	0	
2.7253	-10.139	1.15632	0	
2.7260	-4.02891	0.87429	0	
2.7267	5.12285	0.564058	0	
2.7273	13.6876	0.564058	0	
2.7280	18.5703	-0.366638	0	
2.7287	20.7049	-0.648667	0	
2.7293	25.2674	0.87429	0	
2.7300	30.4703	2.70748	0	
2.7307	30.7638	2.98951	0	
2.7313	31.3775	1.15632	0	
2.7320	33.512	-1.57936	0	
2.7327	31.671	-1.88959	0	
2.7333	28.3358	-0.958898	0	
2.7340	23.7466	-2.19983	0	
2.7347	13.9811	-2.19983	0	
2.7353	4.21568	0.564058	0	
2.7360	-0.960535	0.564058	0	
2.7367	-7.39078	-0.0564058	0	
2.7373	-14.7015	2.39725	0	
2.7380	-20.1979	2.70748	0	
2.7387	-23.5598	1.46655	0	
2.7393	-27.5087	5.13293	0	
2.7400	-32.3914	8.17884	0	
2.7407	-35.7532	6.06362	0	
2.7413	-35.4597	5.13293	0	
2.7420	-34.2324	4.23043	0	
2.7427	-32.7115	2.70748	0	
2.7433	-27.8288	3.29974	0	
2.7440	-22.9461	3.60997	0	
2.7447	-18.6771	2.39725	0	
2.7453	-11.9533	2.98951	0	
2.7460	-5.54976	5.13293	0	
2.7467	1.17399	3.29974	0	
2.7473	10.9394	0.564058	0	
2.7480	18.2502	-1.26913	0	
2.7487	21.9055	-0.366638	0	
2.7493	28.0156	2.98951	0	
2.7500	33.512	4.51246	0	
2.7507	35.6465	3.29974	0	
2.7513	37.1674	1.77678	0	
2.7520	35.9667	-0.366638	0	
2.7527	33.2185	-3.72278	0	
2.7533	34.7393	-4.03301	0	
2.7540	31.671	-0.366638	0	
2.7547	19.184	1.46655	0	
2.7553	8.48472	0.253826	0	
2.7560	3.60201	0.564058	0	
2.7567	-2.50806	2.39725	0	
2.7573	-7.39078	2.70748	0	
2.7580	-9.5253	1.77678	0	
2.7587	-13.7943	1.46655	0	
2.7593	-20.1979	2.39725	0	
2.7600	-25.0806	2.70748	0	
2.7607	-30.2568	1.46655	0	
2.7613	-31.8044	-0.958898	0	
2.7620	-30.2568	-1.26913	0	
2.7627	-30.2568	0.564058	0	
2.7633	-27.8288	2.39725	0	
2.7640	-21.4253	2.39725	0	
2.7647	-17.4497	1.77678	0	
2.7653	-10.139	1.46655	0	
2.7660	7.25737	0.564058	0	
2.7667	21.3185	-0.0564058	0	
2.7673	20.0912	-0.0564058	0	
2.7680	15.502	-0.0564058	0	
2.7687	18.2502	0.564058	0	
2.7693	22.8394	2.08701	0	
2.7700	27.4019	1.46655	0	
2.7707	31.9911	-0.366638	0	
2.7713	32.2846	-0.366638	0	
2.7720	28.9495	0.564058	0	
2.7727	26.4948	-2.48185	0	
2.7733	23.7466	-3.10232	0	
2.7740	20.9984	-2.19983	0	
2.7747	17.0228	-4.31504	0	
2.7753	7.57755	-4.93551	0	
2.7760	-4.02891	-2.19983	0	
2.7767	-10.726	-3.10232	0	
2.7773	-15.3152	-4.31504	0	
2.7780	-21.1051	-3.10232	0	
2.7787	-22.6259	-2.19983	0	
2.7793	-25.3741	-0.366638	0	
2.7800	-33.9389	3.29974	0	
2.7807	-39.1151	5.13293	0	
2.7813	-39.1151	4.23043	0	
2.7820	-38.8216	2.98951	0	
2.7827	-35.4597	0.564058	0	
2.7833	-28.1223	0.253826	0	
2.7840	-20.8116	-0.366638	0	
2.7847	-12.2735	-3.10232	0	
2.7853	-5.84325	-1.26913	0	
2.7860	-5.54976	2.98951	0	
2.7867	-3.09506	0.87429	0	
2.7873	4.50918	-1.26913	0	
2.7880	10.6192	0.564058	0	
2.7887	16.4358	-0.958898	0	
2.7893	24.6537	-4.62527	0	
2.7900	29.243	-3.72278	0	
2.7907	30.4703	-1.57936	0	
2.7913	31.9911	-4.03301	0	
2.7920	34.1257	-5.838	0	
2.7927	34.4192	-5.24574	0	
2.7933	29.5364	-5.55597	0	
2.7940	20.0912	-5.24574	0	
2.7947	13.0739	-2.48185	0	
2.7953	8.19123	-0.0564058	0	
2.7960	-0.667038	-0.366638	0	
2.7967	-9.20513	-1.57936	0	
2.7973	-11.9533	-2.79209	0	
2.7980	-15.9289	-3.10232	0	
2.7987	-22.6259	-0.958898	0	
2.7993	-26.6015	1.77678	0	
2.8000	-30.8705	3.29974	0	
2.8007	-35.7532	4.82269	0	
2.8013	-35.7532	3.60997	0	
2.8020	-31.1907	1.15632	0	
2.8027	-28.4425	2.70748	0	
2.8033	-27.5087	5.44316	0	
2.8040	-22.9461	3.29974	0	
2.8047	-16.2224	0.564058	0	
2.8053	-11.3396	1.46655	0	
2.8060	-6.45693	2.98951	0	
2.8067	2.69483	1.46655	0	
2.8073	11.8466	-0.958898	0	
2.8080	15.502	-2.48185	0	
2.8087	17.343	-3.10232	0	
2.8093	23.7466	-1.26913	0	
2.8100	30.1501	1.15632	0	
2.8107	34.1257	-0.648667	0	
2.8113	37.4875	-2.19983	0	
2.8120	38.7149	0.564058	0	
2.8127	34.7393	0.564058	0	
2.8133	29.8566	-2.79209	0	
2.8140	26.4948	-1.57936	0	
2.8147	19.4775	0.564058	0	
2.8153	8.8049	-0.0564058	0	
2.8160	-0.053363	0.87429	0	
2.8167	-7.97778	0.564058	0	
2.8173	-12.8605	-1.26913	0	
2.8180	-13.7943	0.564058	0	
2.8187	-15.9289	1.15632	0	
2.8193	-20.8116	-3.10232	0	
2.8200	-22.0389	-1.57936	0	
2.8207	-20.4914	4.23043	0	
2.8213	-23.8533	4.23043	0	
2.8220	-29.6699	2.39725	0	
2.8227	-28.4425	3.9202	0	
2.8233	-22.9461	4.82269	0	
2.8240	-20.1979	3.29974	0	
2.8247	-15.0217	2.08701	0	
2.8253	-2.18788	1.15632	0	
2.8260	9.41858	1.46655	0	
2.8267	15.8221	1.77678	0	
2.8273	20.9984	0.87429	0	
2.8280	24.0667	0.253826	0	
2.8287	25.5876	-1.26913	0	
2.8293	31.3775	-3.41255	0	
2.8300	38.7149	-4.03301	0	
2.8307	43.5976	-2.19983	0	
2.8313	45.412	-1.88959	0	
2.8320	40.2357	-4.03301	0	
2.8327	30.7638	-4.93551	0	
2.8333	27.1084	-4.03301	0	
2.8340	23.1329	-2.19983	0	
2.8347	11.8466	-1.26913	0	
2.8353	2.37466	-0.648667	0	
2.8360	-1.89439	-0.648667	0	
2.8367	-8.29795	-1.88959	0	
2.8373	-15.0217	-3.10232	0	
2.8380	-20.1979	-1.26913	0	
2.8387	-28.4425	2.39725	0	
2.8393	-35.4597	2.70748	0	
2.8400	-37.5943	0.564058	0	
2.8407	-39.1151	1.46655	0	
2.8413	-39.1151	4.51246	0	
2.8420	-35.1396	4.23043	0	
2.8427	-32.3914	3.60997	0	
2.8433	-30.577	4.82269	0	
2.8440	-26.9217	5.13293	0	
2.8447	-22.9461	6.06362	0	
2.8453	-16.836	4.23043	0	
2.8460	-4.64259	0.564058	0	
2.8467	7.57755	0.253826	0	
2.8473	12.7538	1.46655	0	
2.8480	15.8221	-0.366638	0	
2.8487	22.5192	-0.366638	0	
2.8493	26.7882	1.46655	0	
2.8500	28.6293	0.253826	0	
2.8507	31.9911	-1.57936	0	
2.8513	33.8322	-1.57936	0	
2.8520	31.671	-3.10232	0	
2.8527	31.671	-4.62527	0	
2.8533	32.2846	-4.62527	0	
2.8540	28.3358	-4.93551	0	
2.8547	22.2257	-5.838	0	
2.8553	15.502	-6.45846	0	
2.8560	2.37466	-5.55597	0	
2.8567	-11.6598	-3.72278	0	
2.8573	-15.6087	-4.31504	0	
2.8580	-18.3569	-4.93551	0	
2.8587	-29.6699	-1.26913	0	
2.8593	-38.5014	0.87429	0	
2.8600	-37.8878	-1.57936	0	
2.8607	-39.4353	-1.88959	0	
2.8613	-41.5698	0.253826	0	
2.8620	-36.9806	1.15632	0	
2.8627	-34.5526	1.46655	0	
2.8633	-36.3669	-1.26913	0	
2.8640	-30.577	-4.31504	0	
2.8647	-21.1051	-3.10232	0	
2.8653	-16.5425	-0.648667	0	
2.8660	-9.8188	-0.366638	0	
2.8667	-0.960535	-0.366638	0	
2.8673	2.69483	-1.57936	0	
2.8680	6.05671	-3.10232	0	
2.8687	12.4603	-1.88959	0	
2.8693	17.9567	-0.366638	0	
2.8700	23.4531	-3.10232	0	
2.8707	28.9495	-5.55597	0	
2.8713	29.5364	-4.62527	0	
2.8720	28.3358	-2.79209	0	
2.8727	27.7221	-3.10232	0	
2.8733	26.4948	-4.31504	0	
2.8740	23.7466	-3.10232	0	
2.8747	15.8221	-1.57936	0	
2.8753	1.78766	-0.648667	0	
2.8760	-7.68428	2.39725	0	
2.8767	-10.726	3.29974	0	
2.8773	-13.4742	1.46655	0	
2.8780	-17.7432	2.39725	0	
2.8787	-23.5598	2.08701	0	
2.8793	-31.1907	-1.26913	0	
2.8800	-33.9389	-0.0564058	0	
2.8807	-32.7115	3.9202	0	
2.8813	-32.3914	1.46655	0	
2.8820	-29.0562	-0.648667	0	
2.8827	-24.467	1.46655	0	
2.8833	-23.5598	1.46655	0	
2.8840	-17.4497	-1.26913	0	
2.8847	-5.25626	-1.26913	0	
2.8853	-0.960535	0.253826	0	
2.8860	-1.57421	0.87429	0	
2.8867	7.25737	0.564058	0	
2.8873	21.612	0.253826	0	
2.8880	28.3358	0.253826	0	
2.8887	28.3358	-0.366638	0	
2.8893	29.243	-2.19983	0	
2.8900	31.084	-2.19983	0	
2.8907	31.3775	-1.57936	0	
2.8913	34.7393	-2.19983	0	
2.8920	39.3019	-4.03301	0	
2.8927	39.3019	-5.838	0	
2.8933	35.353	-5.55597	0	
2.8940	31.671	-3.72278	0	
2.8947	22.2257	-2.19983	0	
2.8953	10.6192	-2.19983	0	
2.8960	4.21568	-2.48185	0	
2.8967	-0.960535	-2.79209	0	
2.8973	-10.726	-0.958898	0	
2.8980	-21.4253	1.46655	0	
2.8987	-31.1907	2.70748	0	
2.8993	-35.4597	3.60997	0	
2.9000	-34.8461	3.29974	0	
2.9007	-37.2741	2.39725	0	
2.9013	-39.7288	2.70748	0	
2.9020	-34.2324	2.39725	0	
2.9027	-28.4425	1.46655	0	
2.9033	-29.6699	3.29974	0	
2.9040	-31.1907	5.75339	0	
2.9047	-31.1907	7.27635	0	
2.9053	-28.1223	8.48907	0	
2.9060	-17.4497	6.06362	0	
2.9067	-4.64259	2.39725	0	
2.9073	3.30851	3.29974	0	
2.9080	9.41858	3.29974	0	
2.9087	14.5948	-0.366638	0	
2.9093	18.2502	-1.26913	0	
2.9100	23.7466	-0.958898	0	
2.9107	31.3775	-1.88959	0	
2.9113	38.1012	-1.57936	0	
2.9120	38.7149	-0.366638	0	
2.9127	28.3358	-0.366638	0	
2.9133	16.1156	-0.0564058	0	
2.9140	13.3674	1.46655	0	
2.9147	13.6876	3.29974	0	
2.9153	8.19123	3.60997	0	
2.9160	0.853809	1.15632	0	
2.9167	-5.84325	-1.57936	0	
2.9173	-12.8605	-2.19983	0	
2.9180	-19.2907	-1.26913	0	
2.9187	-23.5598	1.77678	0	
2.9193	-27.5087	5.75339	0	
2.9200	-31.8044	5.75339	0	
2.9207	-32.7115	4.51246	0	
2.9213	-29.3497	4.51246	0	
2.9220	-26.6015	3.60997	0	
2.9227	-25.9878	2.98951	0	
2.9233	-22.0389	4.23043	0	
2.9240	-16.5425	4.51246	0	
2.9247	-11.9533	4.51246	0	
2.9253	-5.25626	5.13293	0	
2.9260	1.78766	3.60997	0	
2.9267	9.0984	2.39725	0	
2.9273	20.0912	4.23043	0	
2.9280	28.3358	6.06362	0	
2.9287	29.8566	4.23043	0	
2.9293	32.8983	0.87429	0	
2.9300	37.1674	-0.366638	0	
2.9307	38.1012	-0.366638	0	
2.9313	39.9156	-1.26913	0	
2.9320	39.3019	-3.41255	0	
2.9327	29.8566	-5.55597	0	
2.9333	21.612	-5.838	0	
2.9340	16.7293	-4.62527	0	
