0.0000	-4.52405	4.0324	1
0.0007	-3.60878	3.11498	0	
0.0013	-2.69351	1.57882	0	
0.0020	-4.52405	3.71237	0	
0.0027	-3.92259	3.41367	0	
0.0033	-3.29497	-2.68827	0	
0.0040	-7.26986	-4.52312	0	
0.0047	-9.41421	-0.554722	0	
0.0053	-4.52405	0.362703	0	
0.0060	-2.3797	-1.47215	0	
0.0067	-3.29497	-0.554722	0	
0.0073	-0.862969	-0.554722	0	
0.0080	0.0523012	-3.60569	0	
0.0087	-2.3797	-5.12051	0	
0.0093	0.0523012	-4.20308	0	
0.0100	5.54392	-1.77084	0	
0.0107	5.25627	-2.98696	0	
0.0113	1.88284	-6.95536	0	
0.0120	2.79811	-7.27539	0	
0.0127	5.85773	-4.52312	0	
0.0133	6.773	-4.52312	0	
0.0140	4.94246	-4.20308	0	
0.0147	2.79811	-1.47215	0	
0.0153	3.71338	-0.554722	0	
0.0160	4.62865	-0.554722	0	
0.0167	3.71338	0.981431	0	
0.0173	4.341	1.28013	0	
0.0180	6.17154	0.661399	0	
0.0187	5.85773	0.362703	0	
0.0193	6.45919	1.57882	0	
0.0200	9.205	3.11498	0	
0.0207	10.1203	3.11498	0	
0.0213	9.205	4.3311	0	
0.0220	7.68827	6.76334	0	
0.0227	3.11192	6.76334	0	
0.0233	-2.69351	4.94982	0	
0.0240	-3.60878	6.16595	0	
0.0247	-0.862969	8.29949	0	
0.0253	-1.15063	6.76334	0	
0.0260	-1.77824	4.3311	0	
0.0267	0.0523012	4.94982	0	
0.0273	0.0523012	6.16595	0	
0.0280	-3.60878	5.86725	0	
0.0287	-4.52405	5.24852	0	
0.0293	-2.69351	3.71237	0	
0.0300	-2.69351	1.28013	0	
0.0307	-4.21024	2.19755	0	
0.0313	-5.43932	4.0324	0	
0.0320	-7.58367	1.57882	0	
0.0327	-10.0157	0.0640064	0	
0.0333	-7.26986	1.57882	0	
0.0340	0.0523012	2.19755	0	
0.0347	4.02719	2.19755	0	
0.0353	1.59519	4.0324	0	
0.0360	1.28138	5.24852	0	
0.0367	5.54392	5.86725	0	
0.0373	5.54392	6.16595	0	
0.0380	2.79811	5.86725	0	
0.0387	4.02719	4.62979	0	
0.0393	7.37446	3.71237	0	
0.0400	6.45919	2.19755	0	
0.0407	5.25627	2.79494	0	
0.0413	5.54392	3.41367	0	
0.0420	6.773	1.57882	0	
0.0427	6.45919	0.981431	0	
0.0433	3.11192	1.57882	0	
0.0440	-0.235355	-1.15211	0	
0.0447	0.0523012	-3.30699	0	
0.0453	0.0523012	-0.554722	0	
0.0460	-0.235355	0.661399	0	
0.0467	0.0523012	-1.47215	0	
0.0473	-3.29497	-1.47215	0	
0.0480	-9.41421	-1.77084	0	
0.0487	-6.95605	-4.52312	0	
0.0493	0.366108	-5.12051	0	
0.0500	-0.862969	-4.52312	0	
0.0507	-4.83786	-5.12051	0	
0.0513	-2.98117	-3.30699	0	
0.0520	-1.77824	-1.15211	0	
0.0527	-4.52405	-1.47215	0	
0.0533	-4.83786	-0.554722	0	
0.0540	-3.60878	1.28013	0	
0.0547	-3.60878	0.0640064	0	
0.0553	-3.29497	-0.554722	0	
0.0560	-2.69351	0.362703	0	
0.0567	-3.92259	-0.554722	0	
0.0573	-3.29497	0.0640064	0	
0.0580	-1.77824	3.11498	0	
0.0587	-2.0659	3.11498	0	
0.0593	0.679915	0.362703	0	
0.0600	6.17154	4.0324	0	
0.0607	6.45919	4.0324	0	
0.0613	2.79811	4.0324	0	
0.0620	2.79811	4.0324	0	
0.0627	4.02719	4.0324	0	
0.0633	1.59519	4.0324	0	
0.0640	-2.0659	4.0324	0	
0.0647	-3.60878	4.0324	0	
0.0653	-1.15063	4.0324	0	
0.0660	0.967571	4.0324	0	
0.0667	-1.46443	4.0324	0	
0.0673	-3.60878	4.0324	0	
0.0680	-3.60878	4.0324	0	
0.0687	-7.26986	4.0324	0	
0.0693	-11.2447	4.0324	0	
0.0700	-10.0157	4.0324	0	
0.0707	-8.18513	4.0324	0	
0.0713	-8.78659	4.0324	0	
0.0720	-7.58367	4.0324	0	
0.0727	-6.35459	4.0324	0	
0.0733	-7.26986	4.0324	0	
0.0740	-6.6684	4.0324	0	
0.0747	-1.77824	4.0324	0	
0.0753	2.79811	4.0324	0	
0.0760	4.94246	4.0324	0	
0.0767	4.02719	4.0324	0	
0.0773	1.88284	4.0324	0	
0.0780	2.79811	4.0324	0	
0.0787	5.85773	4.0324	0	
0.0793	8.91735	4.0324	0	
0.0800	10.7479	4.0324	0	
0.0807	9.83262	4.0324	0	
0.0813	6.45919	4.0324	0	
0.0820	5.25627	4.0324	0	
0.0827	6.17154	4.0324	0	
0.0833	7.37446	4.0324	0	
0.0840	7.68827	-3.30699	0	
0.0847	3.42573	-1.47215	0	
0.0853	0.0523012	-0.256025	0	
0.0860	1.28138	-2.06954	0	
0.0867	3.11192	-4.20308	0	
0.0873	2.51046	-4.20308	0	
0.0880	2.19665	-3.60569	0	
0.0887	1.88284	-4.20308	0	
0.0893	0.967571	-5.12051	0	
0.0900	0.679915	-5.12051	0	
0.0907	0.0523012	-3.30699	0	
0.0913	0.366108	-0.853418	0	
0.0920	0.967571	-0.554722	0	
0.0927	-0.862969	-0.256025	0	
0.0933	-2.3797	0.0640064	0	
0.0940	0.0523012	-0.554722	0	
0.0947	3.11192	0.0640064	0	
0.0953	6.45919	2.19755	0	
0.0960	8.91735	3.71237	0	
0.0967	9.205	4.94982	0	
0.0973	9.51881	2.79494	0	
0.0980	8.91735	-2.38957	0	
0.0987	5.54392	-4.20308	0	
0.0993	3.11192	-4.20308	0	
0.1000	3.11192	-4.20308	0	
0.1007	2.79811	-2.38957	0	
0.1013	3.42573	-1.47215	0	
0.1020	5.54392	-2.68827	0	
0.1027	2.79811	-0.256025	0	
0.1033	-2.69351	3.11498	0	
0.1040	-1.77824	2.19755	0	
0.1047	1.88284	1.57882	0	
0.1053	1.28138	1.28013	0	
0.1060	-0.862969	-2.38957	0	
0.1067	-1.15063	-3.30699	0	
0.1073	-4.21024	-1.47215	0	
0.1080	-8.18513	-3.30699	0	
0.1087	-6.04078	-4.82181	0	
0.1093	-2.98117	-3.90439	0	
0.1100	-2.98117	-4.20308	0	
0.1107	0.967571	-6.65666	0	
0.1113	4.62865	-6.95536	0	
0.1120	-2.69351	-5.12051	0	
0.1127	-9.1004	-2.98696	0	
0.1133	-5.75313	-4.20308	0	
0.1140	-2.3797	-6.95536	0	
0.1147	-1.77824	-5.44054	0	
0.1153	1.59519	-3.30699	0	
0.1160	4.341	-3.30699	0	
0.1167	2.51046	-3.60569	0	
0.1173	1.88284	-2.98696	0	
0.1180	2.79811	-2.38957	0	
0.1187	1.88284	-0.256025	0	
0.1193	1.88284	0.362703	0	
0.1200	4.02719	-1.47215	0	
0.1207	3.71338	-1.47215	0	
0.1213	1.28138	-1.15211	0	
0.1220	2.79811	-2.98696	0	
0.1227	4.62865	-3.30699	0	
0.1233	4.02719	-0.554722	0	
0.1240	5.25627	2.19755	0	
0.1247	5.85773	3.71237	0	
0.1253	0.967571	3.11498	0	
0.1260	-2.0659	2.19755	0	
0.1267	-0.235355	3.11498	0	
0.1273	-0.862969	4.62979	0	
0.1280	-3.92259	4.94982	0	
0.1287	-3.60878	4.94982	0	
0.1293	-2.69351	5.54722	0	
0.1300	-2.3797	6.16595	0	
0.1307	0.679915	6.16595	0	
0.1313	1.88284	4.94982	0	
0.1320	-0.549162	3.71237	0	
0.1327	0.366108	3.11498	0	
0.1333	4.62865	2.19755	0	
0.1340	4.62865	1.28013	0	
0.1347	0.679915	2.19755	0	
0.1353	-0.549162	4.0324	0	
0.1360	0.0523012	4.94982	0	
0.1367	-0.549162	5.86725	0	
0.1373	-0.862969	4.94982	0	
0.1380	-0.235355	3.11498	0	
0.1387	-0.862969	4.62979	0	
0.1393	-2.0659	8.00079	0	
0.1400	-3.29497	8.29949	0	
0.1407	-3.60878	5.86725	0	
0.1413	-2.0659	3.11498	0	
0.1420	0.967571	0.981431	0	
0.1427	1.88284	1.28013	0	
0.1433	0.967571	1.57882	0	
0.1440	0.967571	-0.554722	0	
0.1447	0.366108	-2.68827	0	
0.1453	-1.77824	-0.853418	0	
0.1460	-2.0659	2.19755	0	
0.1467	-2.3797	2.79494	0	
0.1473	-6.04078	0.362703	0	
0.1480	-8.78659	-1.47215	0	
0.1487	-6.6684	0.362703	0	
0.1493	-5.43932	0.0640064	0	
0.1500	-8.49894	-2.68827	0	
0.1507	-9.70186	-2.98696	0	
0.1513	-6.95605	-1.77084	0	
0.1520	-7.26986	-2.98696	0	
0.1527	-10.9309	-2.38957	0	
0.1533	-11.5324	0.0640064	0	
0.1540	-10.0157	-1.77084	0	
0.1547	-8.49894	-3.30699	0	
0.1553	-7.26986	0.0640064	0	
0.1560	-8.18513	1.28013	0	
0.1567	-11.8462	-0.554722	0	
0.1573	-10.9309	-0.554722	0	
0.1580	-6.04078	-0.256025	0	
0.1587	-4.21024	-1.77084	0	
0.1593	-5.43932	-2.38957	0	
0.1600	-4.52405	-1.47215	0	
0.1607	-2.69351	-1.77084	0	
0.1613	-1.46443	-2.68827	0	
0.1620	-1.46443	-2.98696	0	
0.1627	-2.98117	-2.68827	0	
0.1633	-1.15063	-1.77084	0	
0.1640	2.51046	-0.554722	0	
0.1647	0.366108	-1.15211	0	
0.1653	-5.12551	-0.554722	0	
0.1660	-3.92259	2.49625	0	
0.1667	0.0523012	2.79494	0	
0.1673	-1.77824	0.0640064	0	
0.1680	-3.29497	0.362703	0	
0.1687	-1.77824	0.0640064	0	
0.1693	-4.52405	-3.60569	0	
0.1700	-10.6171	-5.12051	0	
0.1707	-11.8462	-4.52312	0	
0.1713	-10.9309	-6.35796	0	
0.1720	-11.8462	-7.87278	0	
0.1727	-11.8462	-6.95536	0	
0.1733	-10.6171	-6.35796	0	
0.1740	-6.95605	-6.03793	0	
0.1747	-1.77824	-4.52312	0	
0.1753	0.366108	-4.20308	0	
0.1760	-1.15063	-5.44054	0	
0.1767	-1.77824	-4.52312	0	
0.1773	-2.69351	-2.06954	0	
0.1780	-5.75313	-0.853418	0	
0.1787	-5.75313	-1.47215	0	
0.1793	-2.3797	-0.554722	0	
0.1800	-1.77824	0.362703	0	
0.1807	-2.98117	-0.554722	0	
0.1813	-2.3797	-2.06954	0	
0.1820	-1.15063	0.0640064	0	
0.1827	-2.0659	2.79494	0	
0.1833	-2.69351	1.28013	0	
0.1840	-1.15063	-1.47215	0	
0.1847	-0.549162	-1.77084	0	
0.1853	0.366108	-1.47215	0	
0.1860	4.02719	-1.47215	0	
0.1867	7.37446	0.0640064	0	
0.1873	5.54392	0.0640064	0	
0.1880	1.28138	-1.77084	0	
0.1887	-2.3797	-1.77084	0	
0.1893	-4.52405	0.362703	0	
0.1900	-2.3797	1.28013	0	
0.1907	1.59519	-0.554722	0	
0.1913	2.79811	-1.47215	0	
0.1920	2.51046	0.0640064	0	
0.1927	2.79811	0.0640064	0	
0.1933	1.59519	0.0640064	0	
0.1940	0.967571	0.0640064	0	
0.1947	2.79811	0.0640064	0	
0.1953	3.71338	0.0640064	0	
0.1960	2.51046	0.0640064	0	
0.1967	4.02719	0.0640064	0	
0.1973	5.54392	0.0640064	0	
0.1980	4.62865	0.0640064	0	
0.1987	6.17154	0.0640064	0	
0.1993	10.1203	0.0640064	0	
0.2000	10.1203	0.0640064	0	
0.2007	8.60354	0.0640064	0	
0.2013	10.1203	0.0640064	0	
0.2020	11.3494	0.0640064	0	
0.2027	8.91735	0.0640064	0	
0.2033	4.94246	0.0640064	0	
0.2040	4.62865	2.49625	0	
0.2047	6.17154	1.28013	0	
0.2053	3.11192	1.28013	0	
0.2060	-0.549162	2.19755	0	
0.2067	0.0523012	2.79494	0	
0.2073	0.0523012	2.19755	0	
0.2080	-2.98117	2.19755	0	
0.2087	-2.0659	1.57882	0	
0.2093	0.0523012	-0.554722	0	
0.2100	-1.77824	-2.68827	0	
0.2107	-2.69351	-2.68827	0	
0.2113	-0.862969	-1.47215	0	
0.2120	-1.77824	-0.853418	0	
0.2127	-3.60878	-0.554722	0	
0.2133	-2.98117	1.28013	0	
0.2140	-1.77824	2.79494	0	
0.2147	-0.862969	1.89886	0	
0.2153	-2.0659	2.49625	0	
0.2160	-4.21024	5.24852	0	
0.2167	-2.0659	5.86725	0	
0.2173	2.51046	4.0324	0	
0.2180	2.79811	2.19755	0	
0.2187	1.88284	1.28013	0	
0.2193	5.85773	2.19755	0	
0.2200	8.28973	2.49625	0	
0.2207	4.341	2.19755	0	
0.2213	1.59519	2.79494	0	
0.2220	3.71338	0.981431	0	
0.2227	4.94246	-2.38957	0	
0.2233	4.02719	-1.77084	0	
0.2240	4.62865	-1.47215	0	
0.2247	4.62865	-2.98696	0	
0.2253	1.88284	-2.06954	0	
0.2260	0.967571	-1.77084	0	
0.2267	4.62865	-4.20308	0	
0.2273	5.54392	-4.20308	0	
0.2280	2.19665	-1.77084	0	
0.2287	0.0523012	-1.15211	0	
0.2293	-1.15063	-1.15211	0	
0.2300	-2.69351	-1.77084	0	
0.2307	-1.15063	-0.853418	0	
0.2313	-0.235355	2.79494	0	
0.2320	-2.0659	3.11498	0	
0.2327	-1.46443	-0.853418	0	
0.2333	-0.862969	0.0640064	0	
0.2340	-1.77824	5.54722	0	
0.2347	0.366108	6.76334	0	
0.2353	0.679915	4.94982	0	
0.2360	-4.52405	3.11498	0	
0.2367	-3.60878	1.57882	0	
0.2373	0.967571	1.28013	0	
0.2380	-1.77824	0.661399	0	
0.2387	-4.52405	0.362703	0	
0.2393	-1.77824	2.49625	0	
0.2400	0.0523012	3.11498	0	
0.2407	0.0523012	0.661399	0	
0.2413	0.366108	1.89886	0	
0.2420	-0.862969	5.24852	0	
0.2427	-0.862969	3.41367	0	
0.2433	0.679915	0.661399	0	
0.2440	-1.77824	2.79494	0	
0.2447	-3.60878	3.11498	0	
0.2453	0.967571	0.661399	0	
0.2460	0.967571	1.28013	0	
0.2467	-7.87132	3.41367	0	
0.2473	-13.0753	3.41367	0	
0.2480	-10.0157	1.28013	0	
0.2487	-7.26986	-0.554722	0	
0.2493	-7.26986	0.362703	0	
0.2500	-4.52405	2.19755	0	
0.2507	-0.235355	1.57882	0	
0.2513	0.967571	-0.853418	0	
0.2520	0.967571	-0.554722	0	
0.2527	2.79811	1.28013	0	
0.2533	3.42573	0.0640064	0	
0.2540	1.59519	-4.20308	0	
0.2547	1.59519	-3.90439	0	
0.2553	3.11192	-0.256025	0	
0.2560	2.51046	-1.47215	0	
0.2567	0.967571	-5.12051	0	
0.2573	2.51046	-4.52312	0	
0.2580	4.62865	-3.30699	0	
0.2587	5.85773	-4.20308	0	
0.2593	5.54392	-2.06954	0	
0.2600	3.42573	0.362703	0	
0.2607	0.967571	-1.47215	0	
0.2613	2.19665	-1.15211	0	
0.2620	4.62865	1.28013	0	
0.2627	4.94246	0.362703	0	
0.2633	6.45919	-0.554722	0	
0.2640	10.1203	-0.256025	0	
0.2647	8.00208	-1.47215	0	
0.2653	1.88284	-2.38957	0	
0.2660	1.88284	-1.15211	0	
0.2667	4.62865	-1.15211	0	
0.2673	2.79811	-0.554722	0	
0.2680	3.11192	0.661399	0	
0.2687	5.54392	-0.554722	0	
0.2693	2.79811	-2.98696	0	
0.2700	-0.862969	-1.47215	0	
0.2707	-0.235355	0.362703	0	
0.2713	1.28138	-0.853418	0	
0.2720	3.71338	-0.554722	0	
0.2727	6.45919	3.11498	0	
0.2733	4.62865	3.11498	0	
0.2740	1.28138	1.57882	0	
0.2747	3.71338	2.19755	0	
0.2753	4.94246	2.19755	0	
0.2760	2.79811	2.19755	0	
0.2767	4.62865	3.11498	0	
0.2773	7.68827	0.362703	0	
0.2780	5.54392	-3.30699	0	
0.2787	1.88284	-1.15211	0	
0.2793	1.88284	0.981431	0	
0.2800	1.88284	-1.47215	0	
0.2807	2.19665	-2.06954	0	
0.2813	4.02719	-1.47215	0	
0.2820	4.62865	-2.38957	0	
0.2827	1.59519	-0.554722	0	
0.2833	-3.60878	0.981431	0	
0.2840	-5.75313	0.661399	0	
0.2847	-5.12551	2.19755	0	
0.2853	-3.60878	2.79494	0	
0.2860	-2.0659	0.661399	0	
0.2867	0.0523012	-0.554722	0	
0.2873	-1.46443	-0.256025	0	
0.2880	-9.1004	-2.06954	0	
0.2887	-13.6768	-3.90439	0	
0.2893	-11.2447	-2.38957	0	
0.2900	-9.1004	-0.853418	0	
0.2907	-8.78659	-1.77084	0	
0.2913	-6.6684	-1.77084	0	
0.2920	-4.21024	-0.256025	0	
0.2927	-3.29497	-1.77084	0	
0.2933	-1.46443	-4.20308	0	
0.2940	0.0523012	-2.06954	0	
0.2947	0.0523012	0.981431	0	
0.2953	0.0523012	-1.15211	0	
0.2960	0.967571	-3.30699	0	
0.2967	2.79811	-2.06954	0	
0.2973	4.62865	-2.38957	0	
0.2980	3.42573	-3.30699	0	
0.2987	2.51046	-2.38957	0	
0.2993	3.11192	-2.68827	0	
0.3000	1.59519	-5.73924	0	
0.3007	0.967571	-6.65666	0	
0.3013	2.19665	-5.44054	0	
0.3020	0.967571	-5.12051	0	
0.3027	-0.235355	-4.20308	0	
0.3033	1.28138	-1.77084	0	
0.3040	1.59519	-2.98696	0	
0.3047	0.967571	-5.12051	0	
0.3053	2.51046	-4.20308	0	
0.3060	2.51046	-3.30699	0	
0.3067	-0.549162	-2.38957	0	
0.3073	-1.46443	-2.38957	0	
0.3080	0.679915	-4.20308	0	
0.3087	2.79811	-3.30699	0	
0.3093	3.71338	-1.15211	0	
0.3100	2.51046	-2.68827	0	
0.3107	1.28138	-2.38957	0	
0.3113	0.679915	1.57882	0	
0.3120	-1.15063	-0.256025	0	
0.3127	0.0523012	-0.256025	0	
0.3133	3.71338	-0.256025	0	
0.3140	2.79811	-0.256025	0	
0.3147	-4.52405	-0.256025	0	
0.3153	-10.9309	-0.256025	0	
0.3160	-8.78659	-0.256025	0	
0.3167	-3.60878	-0.256025	0	
0.3173	-3.29497	-0.256025	0	
0.3180	-5.75313	-0.256025	0	
0.3187	-3.60878	-0.256025	0	
0.3193	0.967571	-0.256025	0	
0.3200	4.94246	-0.256025	0	
0.3207	9.205	-0.256025	0	
0.3213	10.1203	-0.256025	0	
0.3220	4.62865	-0.256025	0	
0.3227	0.679915	-0.256025	0	
0.3233	-0.862969	-0.256025	0	
0.3240	-2.69351	2.19755	0	
0.3247	-2.0659	3.11498	0	
0.3253	-0.549162	-0.256025	0	
0.3260	-2.69351	-0.554722	0	
0.3267	-5.43932	2.19755	0	
0.3273	-4.21024	1.28013	0	
0.3280	-5.12551	-0.554722	0	
0.3287	-9.70186	-0.554722	0	
0.3293	-10.9309	-1.15211	0	
0.3300	-8.18513	-0.554722	0	
0.3307	-6.35459	0.362703	0	
0.3313	-4.83786	-2.06954	0	
0.3320	-2.98117	-2.98696	0	
0.3327	-2.98117	-0.256025	0	
0.3333	-2.69351	0.362703	0	
0.3340	-1.77824	-0.554722	0	
0.3347	-4.52405	0.362703	0	
0.3353	-6.04078	1.28013	0	
0.3360	-1.15063	0.0640064	0	
0.3367	0.0523012	-0.256025	0	
0.3373	-4.52405	-0.256025	0	
0.3380	-4.52405	-1.15211	0	
0.3387	-1.46443	-0.853418	0	
0.3393	-1.77824	-0.853418	0	
0.3400	-1.77824	-2.38957	0	
0.3407	0.366108	-2.38957	0	
0.3413	0.0523012	-0.554722	0	
0.3420	-0.549162	-0.554722	0	
0.3427	0.0523012	-3.30699	0	
0.3433	-0.549162	-2.98696	0	
0.3440	0.967571	-2.38957	0	
0.3447	4.02719	-4.82181	0	
0.3453	1.59519	-5.44054	0	
0.3460	-3.29497	-2.38957	0	
0.3467	-1.77824	-2.68827	0	
0.3473	1.88284	-4.20308	0	
0.3480	0.967571	-3.90439	0	
0.3487	-2.69351	-5.44054	0	
0.3493	-3.92259	-10.0063	0	
0.3500	-5.75313	-7.87278	0	
0.3507	-8.49894	-2.38957	0	
0.3513	-7.58367	-1.77084	0	
0.3520	-1.77824	-3.60569	0	
0.3527	0.967571	-2.98696	0	
0.3533	0.679915	-3.60569	0	
0.3540	0.967571	-4.20308	0	
0.3547	2.19665	-3.90439	0	
0.3553	3.11192	-5.12051	0	
0.3560	6.45919	-6.03793	0	
0.3567	9.83262	-3.30699	0	
0.3573	8.60354	-0.554722	0	
0.3580	7.37446	-1.77084	0	
0.3587	10.1203	0.0640064	0	
0.3593	12.5784	4.0324	0	
0.3600	11.3494	2.49625	0	
0.3607	9.205	-1.15211	0	
0.3613	6.773	-0.853418	0	
0.3620	4.02719	-0.256025	0	
0.3627	3.11192	-1.47215	0	
0.3633	5.25627	-2.68827	0	
0.3640	6.773	-3.30699	0	
0.3647	5.85773	-4.20308	0	
0.3653	5.85773	-4.20308	0	
0.3660	7.37446	-2.06954	0	
0.3667	5.54392	0.0640064	0	
0.3673	1.88284	1.28013	0	
0.3680	0.967571	1.28013	0	
0.3687	0.679915	0.981431	0	
0.3693	-3.60878	0.0640064	0	
0.3700	-6.04078	-0.554722	0	
0.3707	-2.69351	-1.47215	0	
0.3713	0.366108	-1.47215	0	
0.3720	-0.235355	0.362703	0	
0.3727	-0.862969	1.28013	0	
0.3733	-2.69351	1.28013	0	
0.3740	-6.6684	1.28013	0	
0.3747	-5.43932	0.0640064	0	
0.3753	0.967571	0.0640064	0	
0.3760	1.28138	2.49625	0	
0.3767	-1.77824	-0.554722	0	
0.3773	-4.52405	-6.35796	0	
0.3780	-8.49894	-2.68827	0	
0.3787	-9.70186	4.0324	0	
0.3793	-4.21024	2.79494	0	
0.3800	-0.862969	0.0640064	0	
0.3807	-2.69351	0.661399	0	
0.3813	-2.69351	-0.853418	0	
0.3820	-0.235355	-2.38957	0	
0.3827	1.88284	-0.554722	0	
0.3833	1.88284	-1.15211	0	
0.3840	-2.98117	-2.68827	0	
0.3847	-8.49894	-1.47215	0	
0.3853	-7.26986	0.362703	0	
0.3860	-4.52405	0.981431	0	
0.3867	-2.69351	1.89886	0	
0.3873	-0.862969	2.49625	0	
0.3880	-1.46443	1.28013	0	
0.3887	-2.98117	-1.77084	0	
0.3893	-0.549162	-2.38957	0	
0.3900	4.02719	-1.47215	0	
0.3907	5.25627	-1.77084	0	
0.3913	3.71338	-0.853418	0	
0.3920	2.51046	1.57882	0	
0.3927	3.71338	2.19755	0	
0.3933	6.45919	2.49625	0	
0.3940	7.08681	3.41367	0	
0.3947	6.45919	1.89886	0	
0.3953	7.68827	1.28013	0	
0.3960	8.28973	4.0324	0	
0.3967	6.45919	3.71237	0	
0.3973	6.17154	0.661399	0	
0.3980	7.37446	2.49625	0	
0.3987	6.45919	5.54722	0	
0.3993	3.71338	2.79494	0	
0.4000	1.28138	-0.554722	0	
0.4007	0.679915	-1.47215	0	
0.4013	0.967571	-2.68827	0	
0.4020	1.88284	-3.30699	0	
0.4027	2.79811	-1.47215	0	
0.4033	0.366108	-2.06954	0	
0.4040	-3.92259	-5.44054	0	
0.4047	-7.26986	-5.12051	0	
0.4053	-8.18513	-2.98696	0	
0.4060	-7.26986	-4.82181	0	
0.4067	-9.70186	-7.27539	0	
0.4073	-11.8462	-5.12051	0	
0.4080	-9.1004	-3.60569	0	
0.4087	-4.52405	-4.82181	0	
0.4093	-4.83786	-5.73924	0	
0.4100	-5.43932	-4.52312	0	
0.4107	-5.75313	-3.30699	0	
0.4113	-7.26986	-2.98696	0	
0.4120	-5.12551	-3.30699	0	
0.4127	-0.862969	-3.90439	0	
0.4133	-0.235355	-3.60569	0	
0.4140	0.0523012	-2.38957	0	
0.4147	0.967571	-1.47215	0	
0.4153	-2.0659	-0.853418	0	
0.4160	-8.18513	1.28013	0	
0.4167	-7.87132	3.41367	0	
0.4173	-2.0659	2.79494	0	
0.4180	1.88284	0.661399	0	
0.4187	3.11192	0.661399	0	
0.4193	3.71338	1.28013	0	
0.4200	1.88284	1.89886	0	
0.4207	-0.549162	3.11498	0	
0.4213	0.967571	3.41367	0	
0.4220	3.42573	1.28013	0	
0.4227	2.79811	-0.554722	0	
0.4233	2.19665	2.49625	0	
0.4240	2.19665	4.94982	0	
0.4247	-0.549162	1.28013	0	
0.4253	-3.60878	-1.77084	0	
0.4260	-3.29497	0.0640064	0	
0.4267	-3.60878	-0.554722	0	
0.4273	-5.12551	-4.52312	0	
0.4280	-5.12551	-2.38957	0	
0.4287	-3.92259	1.89886	0	
0.4293	-4.52405	0.981431	0	
0.4300	-5.75313	1.57882	0	
0.4307	-6.6684	5.24852	0	
0.4313	-6.6684	4.0324	0	
0.4320	-6.35459	0.362703	0	
0.4327	-5.43932	0.0640064	0	
0.4333	-3.92259	-1.15211	0	
0.4340	-2.69351	-2.06954	0	
0.4347	-2.69351	0.661399	0	
0.4353	-2.3797	2.49625	0	
0.4360	0.0523012	1.28013	0	
0.4367	0.967571	0.362703	0	
0.4373	-1.77824	0.981431	0	
0.4380	-4.21024	0.661399	0	
0.4387	-2.0659	0.362703	0	
0.4393	1.59519	2.19755	0	
0.4400	2.51046	4.3311	0	
0.4407	1.28138	4.0324	0	
0.4413	0.967571	2.19755	0	
0.4420	1.88284	2.49625	0	
0.4427	4.02719	3.11498	0	
0.4433	7.37446	3.11498	0	
0.4440	6.45919	2.19755	0	
0.4447	0.967571	1.28013	0	
0.4453	-2.69351	0.362703	0	
0.4460	-3.29497	-0.853418	0	
0.4467	-2.3797	-2.68827	0	
0.4473	2.51046	-3.30699	0	
0.4480	6.17154	-3.30699	0	
0.4487	1.88284	-3.30699	0	
0.4493	-1.77824	-3.60569	0	
0.4500	0.366108	-4.20308	0	
0.4507	0.679915	-4.82181	0	
0.4513	0.967571	-4.20308	0	
0.4520	6.45919	-4.20308	0	
0.4527	8.28973	-4.52312	0	
0.4533	5.54392	-4.20308	0	
0.4540	5.54392	-3.30699	0	
0.4547	4.62865	-3.30699	0	
0.4553	2.51046	-2.98696	0	
0.4560	3.71338	-2.38957	0	
0.4567	3.71338	-3.30699	0	
0.4573	0.967571	-4.20308	0	
0.4580	1.88284	-3.90439	0	
0.4587	3.42573	-3.30699	0	
0.4593	0.967571	-1.77084	0	
0.4600	0.679915	0.661399	0	
0.4607	1.88284	1.28013	0	
0.4613	0.0523012	-0.853418	0	
0.4620	-1.77824	-1.47215	0	
0.4627	0.0523012	-0.853418	0	
0.4633	0.967571	0.362703	0	
0.4640	0.366108	3.71237	0	
0.4647	-1.15063	4.62979	0	
0.4653	-3.60878	0.981431	0	
0.4660	-3.92259	-0.554722	0	
0.4667	-2.98117	2.79494	0	
0.4673	-2.98117	4.3311	0	
0.4680	-2.0659	3.11498	0	
0.4687	-2.69351	2.19755	0	
0.4693	-5.75313	2.19755	0	
0.4700	-6.35459	4.0324	0	
0.4707	-4.52405	5.24852	0	
0.4713	-7.26986	4.62979	0	
0.4720	-10.0157	3.11498	0	
0.4727	-5.43932	1.28013	0	
0.4733	-1.46443	2.49625	0	
0.4740	-2.3797	6.76334	0	
0.4747	-3.60878	7.08337	0	
0.4753	-3.60878	2.79494	0	
0.4760	-4.83786	3.11498	0	
0.4767	-5.43932	4.94982	0	
0.4773	-5.12551	2.19755	0	
0.4780	-4.52405	1.28013	0	
0.4787	-0.862969	3.11498	0	
0.4793	2.79811	1.89886	0	
0.4800	-0.235355	0.362703	0	
0.4807	-2.0659	0.981431	0	
0.4813	1.88284	0.362703	0	
0.4820	1.59519	0.981431	0	
0.4827	-3.60878	1.57882	0	
0.4833	-2.69351	-2.38957	0	
0.4840	0.967571	-4.82181	0	
0.4847	-0.235355	-3.30699	0	
0.4853	-2.69351	-3.60569	0	
0.4860	-3.92259	-4.20308	0	
0.4867	-4.83786	-2.38957	0	
0.4873	-3.92259	-1.47215	0	
0.4880	-2.69351	-4.20308	0	
0.4887	-2.69351	-6.95536	0	
0.4893	-2.69351	-6.03793	0	
0.4900	-4.21024	-3.30699	0	
0.4907	-6.95605	-1.47215	0	
0.4913	-7.26986	-2.38957	0	
0.4920	-4.83786	-4.20308	0	
0.4927	-4.52405	-4.52312	0	
0.4933	-5.12551	-4.20308	0	
0.4940	-4.52405	-2.06954	0	
0.4947	-3.29497	0.362703	0	
0.4953	-1.77824	0.981431	0	
0.4960	0.366108	0.362703	0	
0.4967	1.88284	1.28013	0	
0.4973	0.967571	0.981431	0	
0.4980	-0.549162	-1.15211	0	
0.4987	2.79811	-1.47215	0	
0.4993	7.08681	0.0640064	0	
0.5000	5.25627	1.28013	0	
0.5007	1.88284	0.362703	0	
0.5013	2.79811	-1.15211	0	
0.5020	2.79811	-1.15211	0	
0.5027	1.59519	0.981431	0	
0.5033	1.88284	1.28013	0	
0.5040	0.0523012	0.362703	0	
0.5047	-3.60878	1.57882	0	
0.5053	-1.77824	2.49625	0	
0.5060	0.967571	0.0640064	0	
0.5067	-0.235355	0.362703	0	
0.5073	-0.862969	3.71237	0	
0.5080	1.59519	1.57882	0	
0.5087	2.79811	-3.30699	0	
0.5093	1.28138	-2.38957	0	
0.5100	-2.69351	0.661399	0	
0.5107	-5.75313	-0.554722	0	
0.5113	-2.98117	-2.68827	0	
0.5120	0.366108	-1.77084	0	
0.5127	-0.862969	0.0640064	0	
0.5133	0.0523012	1.28013	0	
0.5140	2.79811	1.28013	0	
0.5147	2.51046	1.28013	0	
0.5153	2.19665	2.19755	0	
0.5160	3.42573	3.41367	0	
0.5167	4.341	3.11498	0	
0.5173	7.37446	2.19755	0	
0.5180	9.205	1.28013	0	
0.5187	4.94246	0.362703	0	
0.5193	2.51046	2.19755	0	
0.5200	4.62865	1.57882	0	
0.5207	4.62865	-1.47215	0	
0.5213	4.94246	-0.554722	0	
0.5220	7.37446	2.19755	0	
0.5227	7.08681	0.362703	0	
0.5233	4.94246	0.661399	0	
0.5240	5.54392	4.94982	0	
0.5247	4.62865	4.3311	0	
0.5253	3.42573	1.89886	0	
0.5260	3.71338	3.71237	0	
0.5267	1.59519	3.41367	0	
0.5273	-2.69351	-0.853418	0	
0.5280	-0.862969	-1.47215	0	
0.5287	4.02719	0.0640064	0	
0.5293	4.62865	-1.77084	0	
0.5300	4.341	-3.30699	0	
0.5307	4.62865	-2.68827	0	
0.5313	0.967571	-1.47215	0	
0.5320	-2.69351	-0.256025	0	
0.5327	0.0523012	0.0640064	0	
0.5333	0.679915	-1.47215	0	
0.5340	-2.69351	-1.47215	0	
0.5347	-2.3797	-0.554722	0	
0.5353	-0.549162	-0.554722	0	
0.5360	-0.862969	0.661399	0	
0.5367	0.679915	3.11498	0	
0.5373	2.51046	1.28013	0	
0.5380	1.59519	0.362703	0	
0.5387	0.679915	2.19755	0	
0.5393	1.59519	2.79494	0	
0.5400	0.967571	2.19755	0	
0.5407	-1.77824	2.49625	0	
0.5413	-2.3797	2.19755	0	
0.5420	1.88284	2.19755	0	
0.5427	2.19665	3.11498	0	
0.5433	-2.69351	2.79494	0	
0.5440	-1.77824	2.19755	0	
0.5447	4.62865	2.49625	0	
0.5453	5.85773	2.19755	0	
0.5460	4.62865	1.28013	0	
0.5467	6.45919	1.89886	0	
0.5473	5.25627	3.11498	0	
0.5480	3.11192	2.19755	0	
0.5487	4.62865	0.0640064	0	
0.5493	2.79811	0.981431	0	
0.5500	-1.46443	2.49625	0	
0.5507	0.0523012	-0.554722	0	
0.5513	2.19665	-2.06954	0	
0.5520	0.0523012	2.19755	0	
0.5527	-0.862969	4.94982	0	
0.5533	1.28138	5.24852	0	
0.5540	3.71338	5.54722	0	
0.5547	4.341	2.19755	0	
0.5553	4.62865	-0.554722	0	
0.5560	5.85773	1.57882	0	
0.5567	7.37446	2.49625	0	
0.5573	6.773	0.661399	0	
0.5580	5.85773	1.28013	0	
0.5587	5.54392	1.28013	0	
0.5593	6.17154	-0.256025	0	
0.5600	5.85773	0.0640064	0	
0.5607	4.62865	-1.47215	0	
0.5613	3.71338	-3.90439	0	
0.5620	4.94246	-2.98696	0	
0.5627	2.79811	-0.554722	0	
0.5633	-3.29497	0.981431	0	
0.5640	-7.87132	1.28013	0	
0.5647	-7.58367	0.362703	0	
0.5653	-5.43932	0.981431	0	
0.5660	-5.43932	0.981431	0	
0.5667	-8.78659	-2.06954	0	
0.5673	-9.41421	-3.60569	0	
0.5680	-7.26986	-2.06954	0	
0.5687	-7.87132	-2.68827	0	
0.5693	-10.0157	-3.90439	0	
0.5700	-12.7615	-2.38957	0	
0.5707	-14.9058	-2.38957	0	
0.5713	-10.6171	-4.20308	0	
0.5720	-3.92259	-4.82181	0	
0.5727	-7.87132	-4.20308	0	
0.5733	-11.8462	-4.52312	0	
0.5740	-3.29497	-5.12051	0	
0.5747	2.79811	-4.20308	0	
0.5753	0.366108	-3.30699	0	
0.5760	0.967571	-2.68827	0	
0.5767	2.19665	-1.77084	0	
0.5773	-1.15063	-1.15211	0	
0.5780	-3.92259	-1.47215	0	
0.5787	-5.12551	0.0640064	0	
0.5793	-6.95605	3.71237	0	
0.5800	-4.52405	4.62979	0	
0.5807	-0.549162	4.3311	0	
0.5813	0.0523012	4.3311	0	
0.5820	1.88284	2.19755	0	
0.5827	1.88284	0.981431	0	
0.5833	-3.29497	0.362703	0	
0.5840	-3.29497	-3.30699	0	
0.5847	0.967571	-4.20308	0	
0.5853	-0.862969	-0.853418	0	
0.5860	-3.92259	-0.554722	0	
0.5867	-0.862969	-2.38957	0	
0.5873	0.967571	-2.98696	0	
0.5880	0.967571	-2.38957	0	
0.5887	1.88284	-1.15211	0	
0.5893	0.967571	-1.15211	0	
0.5900	0.967571	-4.82181	0	
0.5907	4.341	-7.87278	0	
0.5913	7.37446	-7.27539	0	
0.5920	8.91735	-4.52312	0	
0.5927	11.3494	-1.15211	0	
0.5933	12.8661	-1.47215	0	
0.5940	11.0355	-4.82181	0	
0.5947	9.205	-5.12051	0	
0.5953	9.205	-3.60569	0	
0.5960	11.0355	-4.82181	0	
0.5967	10.4341	-4.20308	0	
0.5973	7.37446	-3.30699	0	
0.5980	6.773	-4.20308	0	
0.5987	6.45919	-2.98696	0	
0.5993	4.62865	-0.554722	0	
0.6000	5.25627	-3.60569	0	
0.6007	5.85773	-6.03793	0	
0.6013	3.42573	-3.30699	0	
0.6020	4.341	-1.47215	0	
0.6027	6.773	-3.60569	0	
0.6033	4.02719	-4.52312	0	
0.6040	2.19665	-3.30699	0	
0.6047	3.71338	-1.47215	0	
0.6053	0.679915	-1.15211	0	
0.6060	-3.60878	-1.47215	0	
0.6067	-1.77824	-2.06954	0	
0.6073	-0.862969	-3.30699	0	
0.6080	-4.52405	-3.90439	0	
0.6087	-6.35459	-3.30699	0	
0.6093	-3.60878	-1.47215	0	
0.6100	-1.15063	-1.47215	0	
0.6107	1.28138	-3.30699	0	
0.6113	2.79811	-4.82181	0	
0.6120	1.28138	-4.52312	0	
0.6127	1.88284	-4.20308	0	
0.6133	3.71338	-5.44054	0	
0.6140	0.0523012	-5.44054	0	
0.6147	-3.92259	-3.30699	0	
0.6153	-2.3797	-2.68827	0	
0.6160	-0.549162	-3.90439	0	
0.6167	2.51046	-3.30699	0	
0.6173	7.37446	-2.68827	0	
0.6180	5.25627	-4.20308	0	
0.6187	-0.862969	-4.20308	0	
0.6193	1.28138	-1.47215	0	
0.6200	5.25627	-0.853418	0	
0.6207	1.88284	-2.98696	0	
0.6213	0.967571	-2.98696	0	
0.6220	2.79811	-1.47215	0	
0.6227	1.59519	-1.47215	0	
0.6233	-1.46443	-2.38957	0	
0.6240	-4.21024	-1.77084	0	
0.6247	-4.52405	-0.554722	0	
0.6253	-1.15063	-0.554722	0	
0.6260	-0.235355	-2.38957	0	
0.6267	-5.43932	-3.30699	0	
0.6273	-8.78659	-0.853418	0	
0.6280	-7.87132	-2.98696	0	
0.6287	-6.04078	-8.79021	0	
0.6293	-4.52405	-7.87278	0	
0.6300	-5.43932	-3.60569	0	
0.6307	-6.35459	-6.35796	0	
0.6313	-3.60878	-10.0063	0	
0.6320	-2.69351	-7.87278	0	
0.6327	-4.52405	-5.44054	0	
0.6333	-2.69351	-4.20308	0	
0.6340	0.967571	-3.30699	0	
0.6347	1.59519	-3.30699	0	
0.6353	0.967571	-3.30699	0	
0.6360	0.967571	-2.38957	0	
0.6367	0.366108	-2.68827	0	
0.6373	-0.862969	-3.30699	0	
0.6380	-0.549162	-3.60569	0	
0.6387	0.679915	-4.82181	0	
0.6393	-0.862969	-4.20308	0	
0.6400	-2.3797	-1.47215	0	
0.6407	-0.862969	0.0640064	0	
0.6413	-1.15063	1.28013	0	
0.6420	-3.60878	1.89886	0	
0.6427	-2.69351	0.981431	0	
0.6433	-1.46443	1.57882	0	
0.6440	-4.21024	3.11498	0	
0.6447	-3.92259	1.28013	0	
0.6453	-0.862969	-1.15211	0	
0.6460	-2.3797	-0.554722	0	
0.6467	-4.52405	0.981431	0	
0.6473	-4.83786	3.11498	0	
0.6480	-6.6684	1.89886	0	
0.6487	-7.26986	-1.77084	0	
0.6493	-5.75313	-0.853418	0	
0.6500	-5.75313	3.71237	0	
0.6507	-4.52405	4.0324	0	
0.6513	-0.549162	2.19755	0	
0.6520	-0.862969	0.362703	0	
0.6527	-6.35459	-0.256025	0	
0.6533	-8.49894	2.79494	0	
0.6540	-5.43932	4.94982	0	
0.6547	-2.69351	2.79494	0	
0.6553	-3.92259	3.71237	0	
0.6560	-3.92259	6.16595	0	
0.6567	-1.77824	4.94982	0	
0.6573	-2.98117	4.0324	0	
0.6580	-4.83786	6.46464	0	
0.6587	-2.98117	6.76334	0	
0.6593	-1.77824	4.94982	0	
0.6600	-1.77824	3.11498	0	
0.6607	1.88284	2.19755	0	
0.6613	4.341	3.41367	0	
0.6620	5.54392	5.24852	0	
0.6627	8.28973	4.94982	0	
0.6633	5.54392	4.0324	0	
0.6640	-1.77824	4.0324	0	
0.6647	-5.43932	4.0324	0	
0.6653	-8.18513	4.0324	0	
0.6660	-10.9309	3.71237	0	
0.6667	-6.35459	2.19755	0	
0.6673	-2.3797	0.661399	0	
0.6680	-6.04078	0.661399	0	
0.6687	-7.26986	2.19755	0	
0.6693	-5.75313	3.41367	0	
0.6700	-7.26986	3.11498	0	
0.6707	-6.6684	3.11498	0	
0.6713	-3.29497	3.41367	0	
0.6720	-2.69351	1.89886	0	
0.6727	-2.69351	-0.256025	0	
0.6733	0.679915	0.0640064	0	
0.6740	3.71338	0.362703	0	
0.6747	5.54392	0.0640064	0	
0.6753	5.25627	0.661399	0	
0.6760	4.341	-0.554722	0	
0.6767	5.25627	-3.60569	0	
0.6773	4.62865	-1.77084	0	
0.6780	2.51046	2.19755	0	
0.6787	2.79811	0.981431	0	
0.6793	4.94246	-0.853418	0	
0.6800	6.45919	0.981431	0	
0.6807	8.91735	1.28013	0	
0.6813	8.28973	0.661399	0	
0.6820	4.94246	2.19755	0	
0.6827	4.62865	2.19755	0	
0.6833	4.02719	0.661399	0	
0.6840	-0.862969	1.89886	0	
0.6847	-3.60878	3.71237	0	
0.6853	0.0523012	3.41367	0	
0.6860	1.88284	3.11498	0	
0.6867	-0.862969	2.19755	0	
0.6873	-2.69351	0.661399	0	
0.6880	-1.77824	0.981431	0	
0.6887	-1.77824	2.19755	0	
0.6893	-5.12551	2.19755	0	
0.6900	-6.95605	3.11498	0	
0.6907	-4.52405	2.49625	0	
0.6913	-1.46443	0.0640064	0	
0.6920	-1.15063	-0.853418	0	
0.6927	-3.92259	0.362703	0	
0.6933	-7.58367	-0.554722	0	
0.6940	-7.26986	-2.68827	0	
0.6947	-2.98117	-3.30699	0	
0.6953	-3.60878	-1.47215	0	
0.6960	-8.18513	-0.256025	0	
0.6967	-7.87132	-0.554722	0	
0.6973	-3.29497	-0.853418	0	
0.6980	-2.3797	1.28013	0	
0.6987	-5.43932	3.11498	0	
0.6993	-6.35459	1.89886	0	
0.7000	-3.92259	1.57882	0	
0.7007	-2.69351	2.19755	0	
0.7013	-3.60878	0.661399	0	
0.7020	-3.60878	1.28013	0	
0.7027	-2.3797	4.3311	0	
0.7033	-2.0659	4.3311	0	
0.7040	-2.69351	2.19755	0	
0.7047	-2.0659	0.661399	0	
0.7053	-0.549162	-0.554722	0	
0.7060	0.967571	-1.47215	0	
0.7067	0.0523012	-0.853418	0	
0.7073	-0.235355	-1.47215	0	
0.7080	3.71338	-1.77084	0	
0.7087	7.08681	0.362703	0	
0.7093	3.42573	0.362703	0	
0.7100	-0.862969	-3.30699	0	
0.7107	-0.862969	-4.20308	0	
0.7113	-1.15063	-4.20308	0	
0.7120	-3.60878	-5.73924	0	
0.7127	-3.60878	-4.82181	0	
0.7133	-1.46443	-2.38957	0	
0.7140	-1.46443	-2.38957	0	
0.7147	-2.3797	-2.68827	0	
0.7153	-0.862969	-1.77084	0	
0.7160	2.79811	-1.77084	0	
0.7167	3.71338	-1.47215	0	
0.7173	3.42573	-0.256025	0	
0.7180	5.85773	0.0640064	0	
0.7187	8.00208	0.661399	0	
0.7193	4.94246	2.79494	0	
0.7200	2.51046	4.0324	0	
0.7207	4.341	2.79494	0	
0.7213	4.62865	0.362703	0	
0.7220	2.19665	0.0640064	0	
0.7227	1.88284	1.57882	0	
0.7233	1.28138	0.981431	0	
0.7240	0.967571	-0.554722	0	
0.7247	1.88284	-0.256025	0	
0.7253	2.51046	0.362703	0	
0.7260	-0.862969	2.19755	0	
0.7267	-2.98117	4.3311	0	
0.7273	-2.3797	5.54722	0	
0.7280	-2.98117	6.46464	0	
0.7287	-5.75313	6.76334	0	
0.7293	-6.6684	4.0324	0	
0.7300	-5.43932	4.62979	0	
0.7307	-6.95605	8.59819	0	
0.7313	-9.1004	8.29949	0	
0.7320	-6.04078	5.24852	0	
0.7327	-2.0659	6.46464	0	
0.7333	-2.0659	6.16595	0	
0.7340	-2.69351	4.94982	0	
0.7347	-2.69351	7.08337	0	
0.7353	-2.0659	7.08337	0	
0.7360	0.967571	3.11498	0	
0.7367	4.02719	2.49625	0	
0.7373	3.71338	4.94982	0	
0.7380	3.42573	3.41367	0	
0.7387	1.88284	0.362703	0	
0.7393	-2.0659	2.19755	0	
0.7400	-2.98117	5.86725	0	
0.7407	-0.235355	7.08337	0	
0.7413	0.967571	5.86725	0	
0.7420	2.19665	5.24852	0	
0.7427	4.341	3.11498	0	
0.7433	2.51046	-0.554722	0	
0.7440	0.967571	-1.47215	0	
0.7447	2.79811	-0.554722	0	
0.7453	2.79811	-1.77084	0	
0.7460	0.0523012	-1.47215	0	
0.7467	-1.46443	0.362703	0	
0.7473	-1.77824	-2.06954	0	
0.7480	-0.862969	-5.12051	0	
0.7487	1.88284	-4.52312	0	
0.7493	-0.862969	-4.20308	0	
0.7500	-8.78659	-6.03793	0	
0.7507	-11.8462	-6.35796	0	
0.7513	-9.41421	-6.03793	0	
0.7520	-8.18513	-5.44054	0	
0.7527	-6.95605	-3.60569	0	
0.7533	-1.77824	-3.30699	0	
0.7540	0.967571	-3.90439	0	
0.7547	-3.29497	-3.30699	0	
0.7553	-6.04078	-2.38957	0	
0.7560	-2.69351	-2.06954	0	
0.7567	-0.862969	-1.15211	0	
0.7573	-1.46443	-2.38957	0	
0.7580	0.679915	-4.20308	0	
0.7587	0.967571	-4.52312	0	
0.7593	0.0523012	-5.44054	0	
0.7600	1.28138	-5.73924	0	
0.7607	3.11192	-4.52312	0	
0.7613	1.28138	-4.52312	0	
0.7620	1.88284	-6.35796	0	
0.7627	6.45919	-6.95536	0	
0.7633	8.91735	-6.95536	0	
0.7640	8.60354	-7.27539	0	
0.7647	6.45919	-8.17148	0	
0.7653	4.341	-7.27539	0	
0.7660	6.773	-5.12051	0	
0.7667	8.91735	-6.35796	0	
0.7673	6.45919	-10.3264	0	
0.7680	7.68827	-11.2224	0	
0.7687	11.3494	-10.6251	0	
0.7693	4.62865	-11.5425	0	
0.7700	-3.60878	-11.2224	0	
0.7707	-0.862969	-9.0889	0	
0.7713	2.19665	-7.87278	0	
0.7720	-0.235355	-6.03793	0	
0.7727	2.51046	-5.12051	0	
0.7733	7.37446	-7.57409	0	
0.7740	3.71338	-9.70763	0	
0.7747	-0.862969	-7.27539	0	
0.7753	1.28138	-5.12051	0	
0.7760	5.25627	-5.12051	0	
0.7767	5.85773	-3.30699	0	
0.7773	3.71338	0.0640064	0	
0.7780	-1.77824	-0.554722	0	
0.7787	-7.26986	-1.47215	0	
0.7793	-7.87132	0.362703	0	
0.7800	-5.43932	0.981431	0	
0.7807	-4.21024	1.57882	0	
0.7813	-2.3797	5.24852	0	
0.7820	-1.77824	4.62979	0	
0.7827	-3.29497	0.0640064	0	
0.7833	-1.77824	0.981431	0	
0.7840	1.88284	2.49625	0	
0.7847	0.0523012	-1.47215	0	
0.7853	-2.0659	-3.30699	0	
0.7860	1.28138	-1.47215	0	
0.7867	1.28138	-0.256025	0	
0.7873	-3.60878	-0.554722	0	
0.7880	-5.12551	-0.256025	0	
0.7887	-4.21024	-1.77084	0	
0.7893	-5.12551	-2.98696	0	
0.7900	-4.21024	-2.06954	0	
0.7907	-4.52405	-0.853418	0	
0.7913	-7.87132	-0.554722	0	
0.7920	-9.41421	-0.853418	0	
0.7927	-8.18513	-2.06954	0	
0.7933	-4.52405	-1.47215	0	
0.7940	0.967571	-0.554722	0	
0.7947	2.79811	-3.30699	0	
0.7953	0.967571	-5.12051	0	
0.7960	3.11192	-2.06954	0	
0.7967	4.02719	0.362703	0	
0.7973	0.366108	-3.30699	0	
0.7980	0.679915	-4.52312	0	
0.7987	2.51046	-1.47215	0	
0.7993	-0.549162	0.362703	0	
0.8000	-0.862969	1.28013	0	
0.8007	0.967571	4.0324	0	
0.8013	-1.15063	2.79494	0	
0.8020	-2.98117	0.661399	0	
0.8027	-0.549162	4.0324	0	
0.8033	-0.235355	6.16595	0	
0.8040	-1.46443	3.11498	0	
0.8047	-0.862969	3.11498	0	
0.8053	-1.77824	5.24852	0	
0.8060	-2.0659	3.11498	0	
0.8067	-0.235355	1.89886	0	
0.8073	-0.862969	3.71237	0	
0.8080	-2.3797	3.41367	0	
0.8087	-3.29497	2.79494	0	
0.8093	-2.98117	1.57882	0	
0.8100	-0.235355	-0.554722	0	
0.8107	1.28138	0.661399	0	
0.8113	-0.862969	3.41367	0	
0.8120	-1.77824	2.49625	0	
0.8127	-0.235355	2.19755	0	
0.8133	0.679915	3.11498	0	
0.8140	2.51046	3.11498	0	
0.8147	3.71338	3.71237	0	
0.8153	2.51046	4.0324	0	
0.8160	2.79811	2.19755	0	
0.8167	4.62865	0.362703	0	
0.8173	4.94246	-0.256025	0	
0.8180	6.45919	-1.47215	0	
0.8187	7.68827	0.0640064	0	
0.8193	5.25627	3.11498	0	
0.8200	4.02719	2.79494	0	
0.8207	4.94246	3.41367	0	
0.8213	4.62865	6.46464	0	
0.8220	6.45919	5.54722	0	
0.8227	8.00208	2.49625	0	
0.8233	5.54392	2.49625	0	
0.8240	7.37446	3.71237	0	
0.8247	11.3494	4.62979	0	
0.8253	7.08681	6.76334	0	
0.8260	0.366108	7.68076	0	
0.8267	0.967571	5.24852	0	
0.8273	4.02719	4.3311	0	
0.8280	5.85773	6.46464	0	
0.8287	6.45919	5.86725	0	
0.8293	2.79811	2.49625	0	
0.8300	-2.0659	0.362703	0	
0.8307	0.679915	0.0640064	0	
0.8313	4.341	-0.554722	0	
0.8320	-0.235355	-0.256025	0	
0.8327	-6.6684	0.0640064	0	
0.8333	-6.95605	-0.256025	0	
0.8340	-3.29497	1.28013	0	
0.8347	0.967571	3.71237	0	
0.8353	4.62865	4.94982	0	
0.8360	3.71338	5.54722	0	
0.8367	1.28138	5.24852	0	
0.8373	1.28138	5.54722	0	
0.8380	1.88284	6.16595	0	
0.8387	-1.77824	5.54722	0	
0.8393	-7.26986	4.62979	0	
0.8400	-7.26986	4.62979	0	
0.8407	-1.46443	4.3311	0	
0.8413	1.28138	4.94982	0	
0.8420	0.967571	5.86725	0	
0.8427	0.679915	4.62979	0	
0.8433	0.679915	3.11498	0	
0.8440	-0.862969	4.0324	0	
0.8447	-1.77824	3.71237	0	
0.8453	-1.46443	0.362703	0	
0.8460	0.967571	-0.853418	0	
0.8467	1.88284	0.362703	0	
0.8473	-1.77824	0.362703	0	
0.8480	-7.26986	-0.256025	0	
0.8487	-7.26986	-1.47215	0	
0.8493	-6.04078	-3.30699	0	
0.8500	-3.60878	-3.60569	0	
0.8507	1.88284	-2.06954	0	
0.8513	4.62865	-1.47215	0	
0.8520	0.967571	-2.38957	0	
0.8527	-3.29497	-2.38957	0	
0.8533	-3.92259	-2.38957	0	
0.8540	-4.21024	-2.98696	0	
0.8547	-3.29497	-2.98696	0	
0.8553	-0.862969	-2.68827	0	
0.8560	-0.549162	-2.06954	0	
0.8567	-0.862969	-1.47215	0	
0.8573	-0.235355	-2.68827	0	
0.8580	0.967571	-3.30699	0	
0.8587	1.88284	-3.30699	0	
0.8593	0.967571	-3.60569	0	
0.8600	-1.46443	-2.38957	0	
0.8607	-2.3797	0.362703	0	
0.8613	-2.69351	0.362703	0	
0.8620	-3.92259	-2.38957	0	
0.8627	-4.52405	-3.30699	0	
0.8633	-3.92259	-1.47215	0	
0.8640	-4.52405	-0.853418	0	
0.8647	-4.52405	-2.98696	0	
0.8653	-2.0659	-3.60569	0	
0.8660	-0.235355	-2.98696	0	
0.8667	-0.549162	-3.60569	0	
0.8673	-3.29497	-3.30699	0	
0.8680	-5.43932	-3.30699	0	
0.8687	-4.52405	-6.03793	0	
0.8693	-2.69351	-7.57409	0	
0.8700	-3.29497	-4.82181	0	
0.8707	-3.60878	-6.03793	0	
0.8713	-3.60878	-9.70763	0	
0.8720	-4.83786	-6.95536	0	
0.8727	-3.92259	-3.30699	0	
0.8733	-1.15063	-3.90439	0	
0.8740	-3.60878	-4.20308	0	
0.8747	-6.95605	-4.20308	0	
0.8753	-6.04078	-5.12051	0	
0.8760	-6.35459	-5.12051	0	
0.8767	-6.95605	-2.98696	0	
0.8773	-2.69351	-2.06954	0	
0.8780	0.0523012	-2.38957	0	
0.8787	-0.862969	-2.68827	0	
0.8793	0.967571	-2.06954	0	
0.8800	2.79811	-0.554722	0	
0.8807	1.88284	-0.554722	0	
0.8813	4.02719	-2.98696	0	
0.8820	7.68827	-2.06954	0	
0.8827	6.45919	0.0640064	0	
0.8833	4.02719	-0.853418	0	
0.8840	3.71338	-0.256025	0	
0.8847	2.19665	2.19755	0	
0.8853	2.19665	0.362703	0	
0.8860	2.79811	-2.06954	0	
0.8867	1.88284	1.28013	0	
0.8873	1.88284	3.71237	0	
0.8880	2.79811	2.79494	0	
0.8887	0.967571	2.79494	0	
0.8893	1.28138	1.89886	0	
0.8900	3.71338	0.0640064	0	
0.8907	2.19665	0.661399	0	
0.8913	-2.3797	0.981431	0	
0.8920	-5.43932	-0.256025	0	
0.8927	-5.12551	0.661399	0	
0.8933	-2.69351	1.57882	0	
0.8940	0.967571	-0.256025	0	
0.8947	2.19665	-0.554722	0	
0.8953	3.11192	0.0640064	0	
0.8960	7.37446	0.661399	0	
0.8967	8.60354	3.11498	0	
0.8973	0.679915	5.54722	0	
0.8980	-6.35459	5.24852	0	
0.8987	-3.29497	6.16595	0	
0.8993	1.59519	8.00079	0	
0.9000	2.51046	6.76334	0	
0.9007	1.88284	3.71237	0	
0.9013	0.967571	2.79494	0	
0.9020	0.967571	3.11498	0	
0.9027	1.88284	2.79494	0	
0.9033	0.967571	2.49625	0	
0.9040	1.88284	3.11498	0	
0.9047	4.62865	2.19755	0	
0.9053	2.19665	0.661399	0	
0.9060	-1.77824	-0.554722	0	
0.9067	-1.77824	-0.853418	0	
0.9073	-0.235355	0.661399	0	
0.9080	0.679915	3.11498	0	
0.9087	-0.235355	3.11498	0	
0.9093	-2.69351	2.49625	0	
0.9100	-1.46443	2.19755	0	
0.9107	1.88284	1.28013	0	
0.9113	1.88284	2.19755	0	
0.9120	0.0523012	3.71237	0	
0.9127	0.967571	1.89886	0	
0.9133	1.88284	0.362703	0	
0.9140	2.79811	1.89886	0	
0.9147	1.59519	1.89886	0	
0.9153	-2.98117	0.362703	0	
0.9160	-7.26986	0.661399	0	
0.9167	-5.43932	-0.256025	0	
0.9173	-0.549162	-2.06954	0	
0.9180	0.967571	-0.554722	0	
0.9187	-0.549162	1.57882	0	
0.9193	-1.77824	0.362703	0	
0.9200	-1.77824	-2.38957	0	
0.9207	-0.862969	-4.20308	0	
0.9213	1.59519	-3.30699	0	
0.9220	3.42573	-1.47215	0	
0.9227	2.79811	-2.38957	0	
0.9233	1.88284	-4.20308	0	
0.9240	1.28138	-4.20308	0	
0.9247	-0.235355	-2.98696	0	
0.9253	-1.15063	-1.47215	0	
0.9260	-0.235355	-1.47215	0	
0.9267	-0.549162	-5.12051	0	
0.9273	-1.77824	-6.03793	0	
0.9280	-3.29497	-5.12051	0	
0.9287	-3.92259	-10.6251	0	
0.9293	-4.52405	-13.3773	0	
0.9300	-6.04078	-6.65666	0	
0.9307	-5.43932	-5.12051	0	
0.9313	-1.77824	-9.70763	0	
0.9320	-1.46443	-6.65666	0	
0.9327	-3.29497	-3.30699	0	
0.9333	1.59519	-5.44054	0	
0.9340	5.54392	-4.20308	0	
0.9347	-1.15063	-1.77084	0	
0.9353	-7.26986	-3.90439	0	
0.9360	-4.52405	-3.60569	0	
0.9367	-4.52405	-1.77084	0	
0.9373	-7.26986	-3.30699	0	
0.9380	-6.04078	-1.77084	0	
0.9387	-2.98117	1.89886	0	
0.9393	-0.862969	0.362703	0	
0.9400	2.19665	-2.38957	0	
0.9407	3.71338	-3.30699	0	
0.9413	1.59519	-5.12051	0	
0.9420	2.79811	-6.35796	0	
0.9427	5.54392	-4.82181	0	
0.9433	2.79811	-5.12051	0	
0.9440	-0.235355	-7.87278	0	
0.9447	0.0523012	-8.79021	0	
0.9453	-1.77824	-6.95536	0	
0.9460	-3.29497	-4.52312	0	
0.9467	-1.15063	-2.98696	0	
0.9473	-0.549162	-2.06954	0	
0.9480	-2.69351	-2.38957	0	
0.9487	-5.43932	-4.20308	0	
0.9493	-8.18513	-4.20308	0	
0.9500	-8.49894	-2.68827	0	
0.9507	-6.04078	-3.30699	0	
0.9513	-6.04078	-5.73924	0	
0.9520	-4.83786	-6.35796	0	
0.9527	0.366108	-6.35796	0	
0.9533	2.79811	-7.87278	0	
0.9540	4.62865	-6.95536	0	
0.9547	8.28973	-3.60569	0	
0.9553	7.68827	-2.06954	0	
0.9560	4.02719	-2.98696	0	
0.9567	4.94246	-2.06954	0	
0.9573	4.341	-0.256025	0	
0.9580	0.0523012	-1.47215	0	
0.9587	0.967571	-1.47215	0	
0.9593	5.25627	1.28013	0	
0.9600	8.28973	0.0640064	0	
0.9607	9.205	-6.03793	0	
0.9613	8.00208	-7.87278	0	
0.9620	5.85773	-4.20308	0	
0.9627	5.85773	-2.38957	0	
0.9633	4.62865	-4.20308	0	
0.9640	2.79811	-5.44054	0	
0.9647	4.62865	3.11498	0	
0.9653	4.62865	17.7511	0	
0.9660	2.51046	22.9569	0	
0.9667	2.79811	17.4524	0	
0.9673	4.94246	12.2679	0	
0.9680	3.42573	8.59819	0	
0.9687	0.0523012	4.0324	0	
0.9693	-1.46443	2.19755	0	
0.9700	0.366108	4.94982	0	
0.9707	1.59519	5.86725	0	
0.9713	3.11192	4.3311	0	
0.9720	7.68827	2.79494	0	
0.9727	12.8661	1.57882	0	
0.9733	12.8661	0.981431	0	
0.9740	11.0355	1.28013	0	
0.9747	11.0355	1.89886	0	
0.9753	8.60354	0.981431	0	
0.9760	5.54392	2.19755	0	
0.9767	6.17154	3.71237	0	
0.9773	8.28973	0.661399	0	
0.9780	9.205	0.362703	0	
0.9787	8.91735	4.0324	0	
0.9793	7.37446	1.89886	0	
0.9800	4.62865	-1.77084	0	
0.9807	5.25627	0.661399	0	
0.9813	7.68827	0.362703	0	
0.9820	7.37446	-3.90439	0	
0.9827	6.17154	-1.15211	0	
0.9833	5.54392	4.62979	0	
0.9840	2.19665	4.3311	0	
0.9847	-0.862969	2.19755	0	
0.9853	0.967571	2.79494	0	
0.9860	1.28138	2.79494	0	
0.9867	-4.21024	2.19755	0	
0.9873	-8.18513	1.89886	0	
0.9880	-7.26986	1.57882	0	
0.9887	-5.43932	0.362703	0	
0.9893	-4.52405	-0.554722	0	
0.9900	-5.12551	0.981431	0	
0.9907	-7.58367	2.19755	0	
0.9913	-10.0157	0.362703	0	
0.9920	-12.7615	-0.554722	0	
0.9927	-16.7364	3.41367	0	
0.9933	-17.6516	4.94982	0	
0.9940	-16.7364	3.11498	0	
0.9947	-17.6516	3.11498	0	
0.9953	-16.1088	4.94982	0	
0.9960	-11.2447	3.41367	0	
0.9967	-6.35459	1.28013	0	
0.9973	0.967571	1.89886	0	
0.9980	9.205	1.28013	0	
0.9987	10.4341	-2.38957	0	
0.9993	9.51881	-3.30699	0	
1.0000	10.4341	-1.47215	0	
1.0007	10.1203	-1.47215	0	
1.0013	9.205	-1.47215	0	
1.0020	7.37446	-0.256025	0	
1.0027	1.59519	-0.853418	0	
1.0033	0.0523012	-2.38957	0	
1.0040	2.79811	-1.47215	0	
1.0047	1.88284	-2.38957	0	
1.0053	0.679915	-5.12051	0	
1.0060	-0.235355	-4.20308	0	
1.0067	-2.98117	-2.38957	0	
1.0073	-3.92259	-2.38957	0	
1.0080	-3.29497	-3.30699	0	
1.0087	-5.43932	-3.90439	0	
1.0093	-6.35459	-1.47215	0	
1.0100	-4.52405	1.28013	0	
1.0107	-6.35459	-0.256025	0	
1.0113	-8.49894	-1.47215	0	
1.0120	-6.95605	0.362703	0	
1.0127	-4.52405	-0.256025	0	
1.0133	-3.29497	-0.554722	0	
1.0140	-3.92259	2.19755	0	
1.0147	-5.43932	1.57882	0	
1.0153	-7.26986	0.362703	0	
1.0160	-7.87132	2.79494	0	
1.0167	-6.95605	1.57882	0	
1.0173	-5.75313	-0.853418	0	
1.0180	-6.04078	4.94982	0	
1.0187	-5.43932	11.9692	0	
1.0193	-3.29497	9.51561	0	
1.0200	-3.60878	3.41367	0	
1.0207	-6.04078	1.57882	0	
1.0213	-5.12551	2.79494	0	
1.0220	-2.3797	2.79494	0	
1.0227	0.366108	0.362703	0	
1.0233	4.341	-0.554722	0	
1.0240	7.37446	0.362703	0	
1.0247	6.45919	1.57882	0	
1.0253	2.51046	3.11498	0	
1.0260	-0.549162	1.89886	0	
1.0267	1.28138	-0.853418	0	
1.0273	2.79811	0.661399	0	
1.0280	0.0523012	4.0324	0	
1.0287	-0.862969	0.981431	0	
1.0293	-2.3797	-2.06954	0	
1.0300	-15.5073	-0.256025	0	
1.0307	-28.3211	0.661399	0	
1.0313	-26.4905	-0.554722	0	
1.0320	-20.6851	-0.554722	0	
1.0327	-18.2531	-1.47215	0	
1.0333	-13.3629	-3.60569	0	
1.0340	-10.0157	-2.98696	0	
1.0347	-10.9309	-2.06954	0	
1.0353	-10.0157	-3.60569	0	
1.0360	-7.26986	-4.52312	0	
1.0367	-6.35459	-3.90439	0	
1.0373	-5.75313	-1.77084	0	
1.0380	-4.21024	0.362703	0	
1.0387	-1.77824	0.362703	0	
1.0393	5.54392	-2.06954	0	
1.0400	16.2395	-3.30699	0	
1.0407	21.1035	-2.38957	0	
1.0413	19.5868	-4.20308	0	
1.0420	18.07	-6.03793	0	
1.0427	17.7562	-2.98696	0	
1.0433	15.9257	0.362703	0	
1.0440	14.409	-1.15211	0	
1.0447	14.6966	-1.47215	0	
1.0453	13.7814	0.0640064	0	
1.0460	9.205	-0.853418	0	
1.0467	0.967571	-3.30699	0	
1.0473	-7.26986	-4.52312	0	
1.0480	-13.3629	-4.20308	0	
1.0487	-26.4905	-2.38957	0	
1.0493	-48.7708	-1.47215	0	
1.0500	-61.5846	-2.06954	0	
1.0507	-55.7792	-0.554722	0	
1.0513	-44.5083	0.661399	0	
1.0520	-32.296	-3.60569	0	
1.0527	-19.1684	-4.82181	0	
1.0533	-14.2782	0.661399	0	
1.0540	-12.7615	0.981431	0	
1.0547	1.88284	-4.20308	0	
1.0553	19.273	-2.38957	0	
1.0560	22.9341	0.362703	0	
1.0567	17.4424	-2.06954	0	
1.0573	13.7814	-1.77084	0	
1.0580	13.1799	2.19755	0	
1.0587	14.0952	1.57882	0	
1.0593	12.5784	1.28013	0	
1.0600	8.91735	3.71237	0	
1.0607	10.1203	3.11498	0	
1.0613	12.5784	3.41367	0	
1.0620	12.8661	5.86725	0	
1.0627	18.9853	3.71237	0	
1.0633	26.5951	1.89886	0	
1.0640	19.5868	5.24852	0	
1.0647	2.51046	5.86725	0	
1.0653	-10.6171	0.0640064	0	
1.0660	-16.4226	-2.38957	0	
1.0667	-17.024	-0.554722	0	
1.0673	-19.1684	-2.06954	0	
1.0680	-24.66	-5.44054	0	
1.0687	-28.9225	-5.73924	0	
1.0693	-31.6684	-4.82181	0	
1.0700	-34.728	-6.35796	0	
1.0707	-31.9822	-4.82181	0	
1.0713	-28.3211	-0.554722	0	
1.0720	-27.4058	-2.06954	0	
1.0727	-16.1088	-6.35796	0	
1.0733	6.773	-3.60569	0	
1.0740	24.7646	1.28013	0	
1.0747	35.4602	-0.256025	0	
1.0753	34.2311	-4.20308	0	
1.0760	19.273	-3.30699	0	
1.0767	14.409	-0.853418	0	
1.0773	29.3671	-0.554722	0	
1.0780	38.206	0.0640064	0	
1.0787	28.4518	1.28013	0	
1.0793	17.4424	1.57882	0	
1.0800	11.3494	0.362703	0	
1.0807	5.54392	-0.554722	0	
1.0813	4.62865	-0.853418	0	
1.0820	13.1799	0.661399	0	
1.0827	23.8493	4.62979	0	
1.0833	28.4518	4.94982	0	
1.0840	28.4518	1.28013	0	
1.0847	29.6548	-1.15211	0	
1.0853	35.1464	-3.90439	0	
1.0860	43.0962	-8.17148	0	
1.0867	48.5878	-10.9238	0	
1.0873	51.0198	-10.0063	0	
1.0880	54.0794	-0.256025	0	
1.0887	54.0794	15.9376	0	
1.0893	51.935	14.7001	0	
1.0900	40.9518	-4.52312	0	
1.0907	-7.87132	-10.0063	0	
1.0913	-84.4664	-0.256025	0	
1.0920	-116.213	0.0640064	0	
1.0927	-82.9496	-5.12051	0	
1.0933	-49.3723	-3.30699	0	
1.0940	-49.0846	-4.20308	0	
1.0947	-59.1526	-10.9238	0	
1.0953	-72.2802	-10.6251	0	
1.0960	-84.7802	-6.95536	0	
1.0967	-80.5176	-6.03793	0	
1.0973	-65.8733	2.19755	0	
1.0980	-48.1694	14.7001	0	
1.0987	-20.0836	13.7827	0	
1.0993	7.37446	7.68076	0	
1.1000	24.1631	11.3505	0	
1.1007	46.1296	7.68076	0	
1.1013	71.1557	-5.12051	0	
1.1020	78.4779	-2.98696	0	
1.1027	69.639	3.71237	0	
1.1033	55.5961	-4.20308	0	
1.1040	44.6129	-5.12051	0	
1.1047	41.5533	5.24852	0	
1.1053	25.6799	10.433	0	
1.1060	-11.2447	17.7511	0	
1.1067	-34.1265	26.0079	0	
1.1073	-27.4058	16.8337	0	
1.1080	-20.9989	3.11498	0	
1.1087	-24.66	0.661399	0	
1.1093	-25.5753	0.0640064	0	
1.1100	-23.7447	-6.35796	0	
1.1107	-11.2447	-16.4283	0	
1.1113	25.3922	-24.3651	0	
1.1120	64.1474	-27.7148	0	
1.1127	63.8336	-27.4161	0	
1.1133	22.3326	-15.1908	0	
1.1140	-18.2531	6.46464	0	
1.1147	-30.4654	8.29949	0	
1.1153	-21.9142	-6.35796	0	
1.1160	-11.8462	-4.52312	0	
1.1167	-4.52405	4.3311	0	
1.1173	2.51046	-0.853418	0	
1.1180	6.773	-6.03793	0	
1.1187	6.773	-4.20308	0	
1.1193	8.91735	-4.82181	0	
1.1200	9.205	-4.82181	0	
1.1207	2.79811	-2.38957	0	
1.1213	4.62865	0.661399	0	
1.1220	11.6632	7.08337	0	
1.1227	3.11192	11.0518	0	
1.1233	-8.49894	6.76334	0	
1.1240	-9.70186	4.0324	0	
1.1247	-19.7698	3.71237	0	
1.1253	-41.4487	-2.38957	0	
1.1260	-61.2708	-7.87278	0	
1.1267	-82.0344	-7.27539	0	
1.1273	-99.7383	-3.90439	0	
1.1280	-110.722	-0.853418	0	
1.1287	-107.06	-0.554722	0	
1.1293	-65.8733	-3.30699	0	
1.1300	-6.6684	-4.20308	0	
1.1307	8.60354	-0.256025	0	
1.1313	2.19665	7.68076	0	
1.1320	38.206	13.1853	0	
1.1327	90.6902	10.433	0	
1.1333	101.072	5.24852	0	
1.1340	74.5291	8.59819	0	
1.1347	47.9602	14.1027	0	
1.1353	43.0962	9.81431	0	
1.1360	51.6212	5.54722	0	
1.1367	45.842	8.00079	0	
1.1373	22.9341	9.51561	0	
1.1380	12.5784	8.00079	0	
1.1387	19.9006	7.08337	0	
1.1393	25.9937	4.62979	0	
1.1400	24.7646	1.28013	0	
1.1407	22.3326	1.28013	0	
1.1413	20.1882	0.362703	0	
1.1420	16.841	-3.90439	0	
1.1427	15.9257	-6.03793	0	
1.1433	15.0104	-5.12051	0	
1.1440	7.68827	-3.90439	0	
1.1447	0.967571	-4.82181	0	
1.1453	3.11192	-6.95536	0	
1.1460	5.85773	-4.20308	0	
1.1467	5.54392	-2.38957	0	
1.1473	16.841	-6.03793	0	
1.1480	27.8242	-7.87278	0	
1.1487	13.4937	-5.44054	0	
1.1493	-3.92259	-3.30699	0	
1.1500	10.4341	3.41367	0	
1.1507	34.2311	9.51561	0	
1.1513	35.1464	5.86725	0	
1.1520	27.5104	0.981431	0	
1.1527	21.7311	-0.554722	0	
1.1533	13.7814	-2.06954	0	
1.1540	14.0952	-3.60569	0	
1.1547	17.4424	-4.52312	0	
1.1553	8.91735	-1.47215	0	
1.1560	5.54392	8.59819	0	
1.1567	8.28973	7.68076	0	
1.1573	-20.9989	-8.79021	0	
1.1580	-64.6442	-12.4599	0	
1.1587	-67.39	0.981431	0	
1.1593	-39.6181	4.3311	0	
1.1600	-22.228	0.661399	0	
1.1607	-14.592	3.11498	0	
1.1613	-8.49894	0.362703	0	
1.1620	-10.0157	-6.65666	0	
1.1627	-14.9058	-7.87278	0	
1.1633	-15.5073	-8.49151	0	
1.1640	-10.9309	-12.4599	0	
1.1647	-4.21024	-8.79021	0	
1.1653	-2.0659	5.86725	0	
1.1660	-6.35459	15.6176	0	
1.1667	-10.9309	11.9692	0	
1.1673	-14.592	5.54722	0	
1.1680	-17.3378	4.62979	0	
1.1687	-11.8462	3.11498	0	
1.1693	-4.83786	0.0640064	0	
1.1700	-6.35459	1.28013	0	
1.1707	-9.1004	4.3311	0	
1.1713	-5.75313	3.41367	0	
1.1720	-2.0659	2.19755	0	
1.1727	-0.862969	3.71237	0	
1.1733	0.679915	4.0324	0	
1.1740	0.679915	2.49625	0	
1.1747	-1.77824	1.57882	0	
1.1753	-0.862969	3.41367	0	
1.1760	3.71338	4.62979	0	
1.1767	4.02719	1.28013	0	
1.1773	-4.21024	-1.47215	0	
1.1780	-16.7364	1.28013	0	
1.1787	-27.092	1.89886	0	
1.1793	-32.8974	-1.47215	0	
1.1800	-35.957	-1.77084	0	
1.1807	-36.5585	-1.47215	0	
1.1813	-36.5585	-2.68827	0	
1.1820	-34.1265	-2.38957	0	
1.1827	-22.8295	-5.12051	0	
1.1833	-12.16	-10.3264	0	
1.1840	-13.9906	-8.79021	0	
1.1847	-8.18513	-7.57409	0	
1.1853	24.7646	-5.73924	0	
1.1860	54.9947	6.76334	0	
1.1867	54.9947	13.1853	0	
1.1873	46.7572	1.89886	0	
1.1880	43.3838	-2.38957	0	
1.1887	24.7646	3.71237	0	
1.1893	-2.98117	1.57882	0	
1.1900	-12.16	-1.47215	0	
1.1907	-4.52405	1.28013	0	
1.1913	1.59519	-1.15211	0	
1.1920	4.02719	-2.98696	0	
1.1927	3.71338	1.28013	0	
1.1933	0.0523012	2.19755	0	
1.1940	-2.69351	0.0640064	0	
1.1947	-0.235355	0.661399	0	
1.1953	2.51046	0.661399	0	
1.1960	1.88284	0.362703	0	
1.1967	-0.549162	0.981431	0	
1.1973	-1.46443	-1.47215	0	
1.1980	1.88284	-4.20308	0	
1.1987	4.94246	-2.98696	0	
1.1993	3.71338	0.362703	0	
1.2000	1.88284	3.11498	0	
1.2007	4.62865	5.54722	0	
1.2013	8.28973	7.38207	0	
1.2020	8.00208	9.51561	0	
1.2027	3.71338	12.5666	0	
1.2033	1.28138	15.9376	0	
1.2040	1.59519	15.0202	0	
1.2047	2.19665	3.11498	0	
1.2053	1.88284	-13.3773	0	
1.2060	0.679915	-20.9941	0	
1.2067	-2.98117	-19.1592	0	
1.2073	-6.35459	-16.727	0	
1.2080	-6.35459	-15.5109	0	
1.2087	-2.69351	-14.5934	0	
1.2093	-0.862969	-14.5934	0	
1.2100	-2.3797	-12.4599	0	
1.2107	-4.52405	-6.35796	0	
1.2113	-5.12551	-2.98696	0	
1.2120	-5.75313	-4.20308	0	
1.2127	-6.6684	-4.20308	0	
1.2133	-7.58367	-3.90439	0	
1.2140	-6.35459	-5.12051	0	
1.2147	-2.69351	-6.95536	0	
1.2153	-1.15063	-5.73924	0	
1.2160	-0.862969	-4.20308	0	
1.2167	1.59519	-5.12051	0	
1.2173	2.79811	-4.52312	0	
1.2180	0.0523012	-2.38957	0	
1.2187	-1.46443	-1.77084	0	
1.2193	-2.69351	-3.30699	0	
1.2200	-8.18513	-4.20308	0	
1.2207	-12.7615	-3.60569	0	
1.2213	-13.3629	-2.98696	0	
1.2220	-13.0753	-2.98696	0	
1.2227	-10.6171	-3.60569	0	
1.2233	-5.43932	-3.90439	0	
1.2240	-4.21024	-4.20308	0	
1.2247	-6.95605	-3.30699	0	
1.2253	-10.0157	-1.15211	0	
1.2260	-11.8462	-1.47215	0	
1.2267	-9.70186	-3.30699	0	
1.2273	-3.60878	-3.30699	0	
1.2280	-0.549162	-4.52312	0	
1.2287	-2.69351	-6.03793	0	
1.2293	-3.60878	-5.12051	0	
1.2300	-4.21024	-3.30699	0	
1.2307	-8.78659	-3.60569	0	
1.2313	-16.4226	-4.20308	0	
1.2320	-17.6516	-4.82181	0	
1.2327	-6.35459	-5.44054	0	
1.2333	3.71338	-4.52312	0	
1.2340	-2.0659	-2.68827	0	
1.2347	-9.70186	-1.47215	0	
1.2353	-6.35459	-2.06954	0	
1.2360	-7.26986	-1.47215	0	
1.2367	-6.04078	0.981431	0	
1.2373	11.9508	0.0640064	0	
1.2380	14.6966	-2.06954	0	
1.2387	-20.0836	0.362703	0	
1.2393	-46.9403	2.49625	0	
1.2400	-31.6684	-0.853418	0	
1.2407	-6.6684	-1.77084	0	
1.2413	-0.235355	0.362703	0	
1.2420	0.0523012	-0.853418	0	
1.2427	9.83262	-0.853418	0	
1.2433	22.0188	4.3311	0	
1.2440	22.0188	6.16595	0	
1.2447	12.5784	4.62979	0	
1.2453	6.17154	5.86725	0	
1.2460	0.967571	6.76334	0	
1.2467	-8.18513	4.94982	0	
1.2473	-11.8462	3.11498	0	
1.2480	-9.41421	2.79494	0	
1.2487	-11.5324	1.57882	0	
1.2493	-13.9906	2.19755	0	
1.2500	-12.7615	3.41367	0	
1.2507	-12.7615	2.49625	0	
1.2513	-8.78659	0.362703	0	
1.2520	-0.235355	-0.554722	0	
1.2527	2.79811	-1.47215	0	
1.2533	4.341	-4.20308	0	
1.2540	7.68827	-5.12051	0	
1.2547	7.68827	-3.90439	0	
1.2553	7.68827	-4.20308	0	
1.2560	8.91735	-2.98696	0	
1.2567	1.88284	0.661399	0	
1.2573	-4.83786	0.661399	0	
1.2580	-0.862969	-1.47215	0	
1.2587	-0.862969	2.49625	0	
1.2593	-9.1004	7.38207	0	
1.2600	-10.0157	6.76334	0	
1.2607	-2.69351	7.68076	0	
1.2613	2.51046	8.91822	0	
1.2620	6.17154	6.46464	0	
1.2627	5.85773	4.0324	0	
1.2633	3.11192	4.62979	0	
1.2640	3.11192	4.94982	0	
1.2647	0.967571	6.16595	0	
1.2653	-4.52405	8.59819	0	
1.2660	-0.862969	8.59819	0	
1.2667	5.54392	5.86725	0	
1.2673	2.51046	4.3311	0	
1.2680	-2.0659	3.41367	0	
1.2687	-0.549162	2.19755	0	
1.2693	0.0523012	0.981431	0	
1.2700	-1.77824	0.661399	0	
1.2707	-1.77824	0.362703	0	
1.2713	-1.77824	-1.47215	0	
1.2720	-2.69351	-2.38957	0	
1.2727	-3.29497	0.0640064	0	
1.2733	-1.77824	1.89886	0	
1.2740	0.967571	0.362703	0	
1.2747	2.79811	1.57882	0	
1.2753	3.11192	4.62979	0	
1.2760	5.54392	4.94982	0	
1.2767	7.68827	4.94982	0	
1.2773	6.17154	5.86725	0	
1.2780	3.71338	4.94982	0	
1.2787	3.71338	4.0324	0	
1.2793	4.62865	5.24852	0	
1.2800	6.17154	4.94982	0	
1.2807	8.00208	3.11498	0	
1.2813	8.60354	3.71237	0	
1.2820	11.9508	4.0324	0	
1.2827	15.9257	0.661399	0	
1.2833	13.7814	-0.554722	0	
1.2840	8.28973	1.28013	0	
1.2847	8.00208	1.28013	0	
1.2853	10.1203	0.362703	0	
1.2860	8.28973	2.19755	0	
1.2867	2.79811	3.41367	0	
1.2873	1.88284	1.28013	0	
1.2880	6.45919	-1.15211	0	
1.2887	9.51881	0.362703	0	
1.2893	8.60354	0.981431	0	
1.2900	7.37446	-0.554722	0	
1.2907	2.79811	-0.554722	0	
1.2913	-1.46443	-1.47215	0	
1.2920	-0.549162	-3.90439	0	
1.2927	-4.83786	-2.38957	0	
1.2933	-17.3378	0.0640064	0	
1.2940	-18.2531	-2.06954	0	
1.2947	-9.70186	-2.38957	0	
1.2953	-9.70186	-0.554722	0	
1.2960	-13.9906	-1.47215	0	
1.2967	-13.0753	-1.15211	0	
1.2973	-9.1004	0.362703	0	
1.2980	0.366108	-0.554722	0	
1.2987	10.1203	1.28013	0	
1.2993	7.37446	4.0324	0	
1.3000	0.0523012	1.28013	0	
1.3007	-5.75313	0.981431	0	
1.3013	-17.3378	3.11498	0	
1.3020	-21.9142	1.57882	0	
1.3027	-3.92259	1.28013	0	
1.3033	11.0355	4.0324	0	
1.3040	0.967571	3.11498	0	
1.3047	-4.83786	2.19755	0	
1.3053	13.7814	4.0324	0	
1.3060	28.138	2.19755	0	
1.3067	17.1548	0.981431	0	
1.3073	2.79811	3.11498	0	
1.3080	5.25627	0.661399	0	
1.3087	15.6119	-4.52312	0	
1.3093	22.0188	-4.20308	0	
1.3100	20.8159	-1.77084	0	
1.3107	17.4424	-2.38957	0	
1.3113	18.6715	0.362703	0	
1.3120	18.3577	5.54722	0	
1.3127	7.08681	6.16595	0	
1.3133	-6.35459	4.0324	0	
1.3140	-13.6768	2.19755	0	
1.3147	-15.5073	0.0640064	0	
1.3153	-13.9906	-0.554722	0	
1.3160	-10.6171	0.981431	0	
1.3167	-6.6684	0.0640064	0	
1.3173	-1.77824	-1.47215	0	
1.3180	-1.46443	0.362703	0	
1.3187	-2.3797	1.89886	0	
1.3193	12.5784	0.362703	0	
1.3200	37.2907	0.362703	0	
1.3207	43.0962	1.57882	0	
1.3213	27.5104	1.89886	0	
1.3220	13.1799	3.11498	0	
1.3227	7.68827	4.62979	0	
1.3233	5.85773	4.94982	0	
1.3240	8.91735	4.62979	0	
1.3247	15.0104	2.19755	0	
1.3253	14.6966	-0.554722	0	
1.3260	9.83262	-0.554722	0	
1.3267	8.91735	0.362703	0	
1.3273	9.51881	0.0640064	0	
1.3280	6.773	0.661399	0	
1.3287	7.68827	-0.256025	0	
1.3293	13.7814	-4.20308	0	
1.3300	17.4424	-6.03793	0	
1.3307	20.1882	-4.20308	0	
1.3313	22.0188	-5.12051	0	
1.3320	15.3242	-8.17148	0	
1.3327	3.11192	-8.79021	0	
1.3333	-7.26986	-9.0889	0	
1.3340	-17.3378	-9.40893	0	
1.3347	-21.3127	-6.35796	0	
1.3353	-14.2782	-4.20308	0	
1.3360	-3.60878	-5.73924	0	
1.3367	3.11192	-9.0889	0	
1.3373	0.679915	-9.70763	0	
1.3380	-8.49894	-7.27539	0	
1.3387	-2.3797	-4.20308	0	
1.3393	22.0188	-2.98696	0	
1.3400	35.1464	-2.38957	0	
1.3407	31.1976	-1.15211	0	
1.3413	24.7646	0.362703	0	
1.3420	9.83262	2.19755	0	
1.3427	-17.6516	5.24852	0	
1.3433	-40.2196	6.76334	0	
1.3440	-53.0334	5.24852	0	
1.3447	-60.0679	4.0324	0	
1.3453	-60.0679	6.46464	0	
1.3460	-61.2708	8.29949	0	
1.3467	-64.6442	5.86725	0	
1.3473	-58.8388	0.362703	0	
1.3480	-42.3639	-5.44054	0	
1.3487	-20.0836	-6.95536	0	
1.3493	-0.549162	-5.44054	0	
1.3500	1.88284	-6.03793	0	
1.3507	-5.43932	-6.95536	0	
1.3513	-8.18513	0.661399	0	
1.3520	-20.0836	12.2679	0	
1.3527	-46.025	13.7827	0	
1.3533	-50.2876	7.08337	0	
1.3540	-25.5753	3.41367	0	
1.3547	-4.52405	3.11498	0	
1.3553	3.71338	2.19755	0	
1.3560	7.37446	2.19755	0	
1.3567	7.37446	2.19755	0	
1.3573	16.5272	1.28013	0	
1.3580	41.2656	0.362703	0	
1.3587	55.9099	2.19755	0	
1.3593	50.4183	4.0324	0	
1.3600	42.1809	4.0324	0	
1.3607	37.6045	3.41367	0	
1.3613	27.8242	1.89886	0	
1.3620	18.3577	0.362703	0	
1.3627	14.6966	0.661399	0	
1.3633	15.6119	2.19755	0	
1.3640	15.6119	2.19755	0	
1.3647	10.1203	1.28013	0	
1.3653	0.967571	1.28013	0	
1.3660	-2.69351	0.981431	0	
1.3667	-0.862969	-0.853418	0	
1.3673	0.366108	-1.15211	0	
1.3680	1.88284	-1.15211	0	
1.3687	4.341	-4.20308	0	
1.3693	6.45919	-6.95536	0	
1.3700	10.1203	-6.03793	0	
1.3707	11.9508	-6.03793	0	
1.3713	8.00208	-5.12051	0	
1.3720	4.62865	1.57882	0	
1.3727	2.19665	7.08337	0	
1.3733	-7.87132	6.16595	0	
1.3740	-24.0585	6.76334	0	
1.3747	-31.6684	8.59819	0	
1.3753	-25.5753	4.94982	0	
1.3760	-17.9393	5.24852	0	
1.3767	-16.7364	12.2679	0	
1.3773	-12.4477	10.7317	0	
1.3780	-1.77824	2.19755	0	
1.3787	2.79811	0.661399	0	
1.3793	7.68827	1.89886	0	
1.3800	27.5104	0.362703	0	
1.3807	42.1809	4.0324	0	
1.3813	27.2228	8.29949	0	
1.3820	3.42573	1.28013	0	
1.3827	-2.0659	-7.87278	0	
1.3833	0.679915	-8.79021	0	
1.3840	-3.29497	-8.17148	0	
1.3847	-8.78659	-10.9238	0	
1.3853	-9.1004	-11.5425	0	
1.3860	-6.35459	-9.0889	0	
1.3867	-2.69351	-7.57409	0	
1.3873	-1.46443	-7.27539	0	
1.3880	-5.12551	-7.87278	0	
1.3887	-10.9309	-8.79021	0	
1.3893	-10.9309	-7.87278	0	
1.3900	-8.49894	-6.03793	0	
1.3907	-10.9309	-6.35796	0	
1.3913	-10.9309	-5.73924	0	
1.3920	-6.35459	-2.68827	0	
1.3927	-13.3629	-4.20308	0	
1.3933	-27.4058	-11.2224	0	
1.3940	-24.0585	-13.3773	0	
1.3947	-9.1004	-9.40893	0	
1.3953	-3.60878	-9.70763	0	
1.3960	-1.77824	-12.4599	0	
1.3967	3.42573	-10.3264	0	
1.3973	1.59519	-9.70763	0	
1.3980	0.366108	-11.8412	0	
1.3987	10.4341	-12.4599	0	
1.3993	15.0104	-16.1083	0	
1.4000	8.91735	-14.2948	0	
1.4007	11.3494	1.28013	0	
1.4013	13.7814	9.21691	0	
1.4020	-3.92259	0.981431	0	
1.4027	-21.9142	-1.15211	0	
1.4033	-18.2531	4.62979	0	
1.4040	-6.04078	4.94982	0	
1.4047	-1.46443	4.3311	0	
1.4053	-4.21024	2.79494	0	
1.4060	-6.6684	-1.77084	0	
1.4067	-3.60878	-1.47215	0	
1.4073	-1.46443	-0.554722	0	
1.4080	-10.9309	-4.82181	0	
1.4087	-25.5753	-3.30699	0	
1.4093	-30.7531	2.19755	0	
1.4100	-25.5753	3.11498	0	
1.4107	-19.1684	1.28013	0	
1.4113	-14.2782	0.362703	0	
1.4120	-6.6684	-0.554722	0	
1.4127	-1.77824	1.28013	0	
1.4133	-1.77824	1.89886	0	
1.4140	0.0523012	0.362703	0	
1.4147	4.62865	1.89886	0	
1.4153	3.71338	3.41367	0	
1.4160	0.967571	2.19755	0	
1.4167	4.62865	0.362703	0	
1.4173	9.205	-1.77084	0	
1.4180	10.1203	-3.30699	0	
1.4187	9.205	-1.47215	0	
1.4193	5.85773	0.362703	0	
1.4200	0.967571	1.28013	0	
1.4207	2.51046	4.0324	0	
1.4213	9.205	3.11498	0	
1.4220	11.3494	-0.256025	0	
1.4227	9.205	-0.853418	0	
1.4233	7.68827	-0.554722	0	
1.4240	9.205	-0.554722	0	
1.4247	11.3494	0.661399	0	
1.4253	5.54392	1.28013	0	
1.4260	-10.9309	0.362703	0	
1.4267	-26.4905	-4.20308	0	
1.4273	-28.0073	-10.6251	0	
1.4280	-22.228	-14.2948	0	
1.4287	-27.4058	-16.1083	0	
1.4293	-45.4236	-15.5109	0	
1.4300	-56.093	-4.20308	0	
1.4307	-51.2028	13.1853	0	
1.4313	-47.2541	28.7389	0	
1.4320	-46.9403	40.0466	0	
1.4327	-34.728	35.1608	0	
1.4333	-14.9058	13.484	0	
1.4340	0.967571	3.11498	0	
1.4347	19.9006	7.38207	0	
1.4353	47.9602	0.0640064	0	
1.4360	87.0291	-13.3773	0	
1.4367	119.064	-15.5109	0	
1.4373	111.741	-15.1908	0	
1.4380	75.1306	-18.8605	0	
1.4387	55.9099	-17.0257	0	
1.4393	49.7907	-10.6251	0	
1.4400	31.7991	-7.87278	0	
1.4407	16.5272	-7.87278	0	
1.4413	17.1548	-6.65666	0	
1.4420	16.841	-4.20308	0	
1.4427	11.9508	-3.30699	0	
1.4433	9.205	-2.38957	0	
1.4440	8.00208	-1.47215	0	
1.4447	7.37446	-3.30699	0	
1.4453	4.62865	-4.20308	0	
1.4460	-1.46443	-3.60569	0	
1.4467	-2.69351	-4.52312	0	
1.4473	1.28138	-6.03793	0	
1.4480	1.59519	-3.30699	0	
1.4487	-2.0659	-0.554722	0	
1.4493	-3.60878	-1.47215	0	
1.4500	-3.29497	-2.38957	0	
1.4507	-1.15063	-1.15211	0	
1.4513	0.366108	-2.06954	0	
1.4520	-1.77824	-3.30699	0	
1.4527	-4.52405	-1.47215	0	
1.4533	-3.60878	-0.554722	0	
1.4540	-0.862969	-2.06954	0	
1.4547	1.28138	-2.98696	0	
1.4553	0.967571	-2.98696	0	
1.4560	-2.69351	-3.30699	0	
1.4567	-6.35459	-1.47215	0	
1.4573	-9.1004	2.19755	0	
1.4580	-14.592	3.11498	0	
1.4587	-22.8295	2.19755	0	
1.4593	-27.4058	2.79494	0	
1.4600	-24.3462	3.71237	0	
1.4607	-16.1088	3.41367	0	
1.4613	-7.87132	2.79494	0	
1.4620	-2.69351	2.19755	0	
1.4627	-1.15063	1.57882	0	
1.4633	0.967571	2.49625	0	
1.4640	10.1203	4.94982	0	
1.4647	22.0188	5.54722	0	
1.4653	22.0188	4.3311	0	
1.4660	12.8661	3.11498	0	
1.4667	10.4341	1.57882	0	
1.4673	13.7814	-0.554722	0	
1.4680	9.83262	-1.47215	0	
1.4687	3.42573	-3.30699	0	
1.4693	4.02719	-5.73924	0	
1.4700	0.366108	-5.12051	0	
1.4707	-17.024	-2.38957	0	
1.4713	-26.8043	-1.47215	0	
1.4720	-15.8211	-3.30699	0	
1.4727	-6.95605	-4.20308	0	
1.4733	-11.8462	-5.12051	0	
1.4740	-14.592	-6.95536	0	
1.4747	-16.7364	-6.95536	0	
1.4753	-27.4058	-6.03793	0	
1.4760	-32.5836	-6.35796	0	
1.4767	-21.3127	-6.03793	0	
1.4773	-8.18513	-4.20308	0	
1.4780	-0.862969	-1.47215	0	
1.4787	5.54392	-0.256025	0	
1.4793	11.6632	-0.554722	0	
1.4800	12.2646	-1.47215	0	
1.4807	7.08681	-1.47215	0	
1.4813	2.51046	0.362703	0	
1.4820	8.91735	0.661399	0	
1.4827	20.5021	-0.853418	0	
1.4833	22.6464	-1.47215	0	
1.4840	18.6715	0.0640064	0	
1.4847	20.1882	-0.853418	0	
1.4853	21.7311	-1.47215	0	
1.4860	18.07	0.362703	0	
1.4867	10.1203	0.661399	0	
1.4873	-2.98117	-1.15211	0	
1.4880	-14.9058	-2.06954	0	
1.4887	-18.5669	-0.853418	0	
1.4893	-22.8295	0.362703	0	
1.4900	-27.092	-0.256025	0	
1.4907	-19.4822	-1.47215	0	
1.4913	-10.6171	0.981431	0	
1.4920	-12.16	3.71237	0	
1.4927	-18.8546	0.981431	0	
1.4933	-28.9225	-2.38957	0	
1.4940	-39.3043	-2.38957	0	
1.4947	-36.8723	-2.38957	0	
1.4953	-24.3462	-2.98696	0	
1.4960	-18.2531	-3.30699	0	
1.4967	-22.8295	-2.68827	0	
1.4973	-30.1516	-0.554722	0	
1.4980	-29.5502	0.362703	0	
1.4987	-21.9142	-0.554722	0	
1.4993	-17.6516	1.28013	0	
1.5000	-22.8295	3.41367	0	
1.5007	-25.5753	2.19755	0	
1.5013	-15.8211	1.57882	0	
1.5020	-2.0659	2.19755	0	
1.5027	3.11192	1.28013	0	
1.5033	7.08681	1.28013	0	
1.5040	15.6119	2.19755	0	
1.5047	17.4424	2.19755	0	
1.5053	10.1203	3.71237	0	
1.5060	6.45919	4.94982	0	
1.5067	4.62865	3.71237	0	
1.5073	-2.69351	4.0324	0	
1.5080	-5.12551	4.94982	0	
1.5087	-0.549162	4.3311	0	
1.5093	0.967571	4.0324	0	
1.5100	3.71338	0.981431	0	
1.5107	7.68827	-3.30699	0	
1.5113	7.37446	-0.256025	0	
1.5120	17.4424	4.0324	0	
1.5127	39.1213	3.11498	0	
1.5133	40.9518	4.3311	0	
1.5140	24.7646	6.46464	0	
1.5147	20.5021	3.11498	0	
1.5153	24.4769	1.28013	0	
1.5160	18.6715	2.19755	0	
1.5167	11.6632	0.0640064	0	
1.5173	9.205	2.49625	0	
1.5180	0.967571	13.1853	0	
1.5187	-13.0753	17.1537	0	
1.5193	-15.1935	11.6492	0	
1.5200	-3.60878	8.59819	0	
1.5207	-4.52405	8.59819	0	
1.5213	-22.8295	6.46464	0	
1.5220	-31.0669	5.86725	0	
1.5227	-24.9738	10.1343	0	
1.5233	-23.7447	14.7001	0	
1.5240	-8.49894	15.6176	0	
1.5247	32.4006	12.5666	0	
1.5253	59.8848	9.21691	0	
1.5260	47.9602	9.21691	0	
1.5267	25.6799	10.1343	0	
1.5273	22.3326	7.68076	0	
1.5280	35.4602	2.19755	0	
1.5287	52.2489	-1.15211	0	
1.5293	60.8001	0.0640064	0	
1.5300	54.3671	2.79494	0	
1.5307	44.0114	0.981431	0	
1.5313	37.8922	-0.554722	0	
1.5320	29.0533	9.51561	0	
1.5327	15.9257	22.6369	0	
1.5333	7.37446	22.0395	0	
1.5340	-8.78659	11.3505	0	
1.5347	-42.0501	6.76334	0	
1.5353	-65.5595	7.08337	0	
1.5360	-64.6442	4.94982	0	
1.5367	-58.8388	2.49625	0	
1.5373	-57.0083	4.3311	0	
1.5380	-55.4915	5.86725	0	
1.5387	-53.9486	4.0324	0	
1.5393	-48.7708	2.49625	0	
1.5400	-44.7959	4.62979	0	
1.5407	-48.457	4.62979	0	
1.5413	-44.1945	3.11498	0	
1.5420	-29.5502	4.3311	0	
1.5427	-25.5753	3.11498	0	
1.5433	-25.8891	-0.853418	0	
1.5440	-15.5073	-0.853418	0	
1.5447	-8.49894	-2.38957	0	
1.5453	-13.3629	-6.95536	0	
1.5460	-12.7615	-7.87278	0	
1.5467	-4.21024	-6.65666	0	
1.5473	-1.77824	-4.20308	0	
1.5480	-1.77824	5.86725	0	
1.5487	5.85773	8.00079	0	
1.5493	15.9257	-8.79021	0	
1.5500	23.5617	-17.0257	0	
1.5507	34.8587	-9.70763	0	
1.5513	47.6725	-8.79021	0	
1.5520	53.7656	-4.52312	0	
1.5527	47.9602	11.9692	0	
1.5533	28.4518	11.9692	0	
1.5540	6.45919	-8.79021	0	
1.5547	-0.862969	-16.727	0	
1.5553	-1.15063	-6.95536	0	
1.5560	-6.35459	-1.47215	0	
1.5567	-6.6684	-1.15211	0	
1.5573	-0.549162	4.0324	0	
1.5580	4.02719	12.2679	0	
1.5587	11.3494	14.4014	0	
1.5593	18.07	11.3505	0	
1.5600	8.00208	8.00079	0	
1.5607	-13.6768	5.86725	0	
1.5613	-28.6349	2.79494	0	
1.5620	-37.4738	-2.06954	0	
1.5627	-48.7708	-10.0063	0	
1.5633	-57.6097	-17.0257	0	
1.5640	-59.1526	-17.0257	0	
1.5647	-55.7792	-13.0573	0	
1.5653	-43.8807	-9.0889	0	
1.5660	-17.3378	-5.44054	0	
1.5667	17.4424	-5.12051	0	
1.5673	50.4183	-8.79021	0	
1.5680	70.8681	-8.17148	0	
1.5687	63.2321	-3.30699	0	
1.5693	39.7227	-1.47215	0	
1.5700	36.3755	-2.06954	0	
1.5707	50.706	-2.68827	0	
1.5713	53.4518	-4.20308	0	
1.5720	44.2991	-6.03793	0	
1.5727	37.6045	-6.65666	0	
1.5733	34.2311	-7.87278	0	
1.5740	31.1976	-8.17148	0	
1.5747	23.2479	-8.49151	0	
1.5753	11.3494	-10.6251	0	
1.5760	1.59519	-11.5425	0	
1.5767	-15.5073	-9.70763	0	
1.5773	-42.9654	-7.87278	0	
1.5780	-53.0334	-5.12051	0	
1.5787	-37.4738	-3.30699	0	
1.5793	-24.66	-2.38957	0	
1.5800	-25.8891	0.362703	0	
1.5807	-24.9738	2.79494	0	
1.5813	-20.6851	-0.256025	0	
1.5820	-18.5669	-1.77084	0	
1.5827	-10.9309	1.89886	0	
1.5833	1.88284	2.79494	0	
1.5840	6.773	1.28013	0	
1.5847	2.79811	2.19755	0	
1.5853	3.71338	1.28013	0	
1.5860	15.0104	-2.98696	0	
1.5867	31.7991	-1.47215	0	
1.5873	48.5878	4.3311	0	
1.5880	57.7405	3.11498	0	
1.5887	48.8754	-4.20308	0	
1.5893	23.8493	-7.87278	0	
1.5900	-1.15063	-5.12051	0	
1.5907	-18.8546	-3.30699	0	
1.5913	-40.5334	-4.20308	0	
1.5920	-60.3555	-5.44054	0	
1.5927	-50.2876	-4.82181	0	
1.5933	-20.0836	-4.20308	0	
1.5940	-5.43932	-4.52312	0	
1.5947	-3.92259	-3.90439	0	
1.5953	10.1203	-1.47215	0	
1.5960	28.4518	1.28013	0	
1.5967	29.9686	0.981431	0	
1.5973	20.1882	-3.60569	0	
1.5980	11.0355	-4.52312	0	
1.5987	3.42573	3.11498	0	
1.5993	-0.862969	8.59819	0	
1.6000	0.0523012	4.94982	0	
1.6007	4.62865	0.0640064	0	
1.6013	11.0355	-2.68827	0	
1.6020	15.0104	-5.12051	0	
1.6027	14.6966	-4.20308	0	
1.6033	13.7814	-1.77084	0	
1.6040	11.0355	0.661399	0	
1.6047	2.79811	3.41367	0	
1.6053	-0.862969	3.41367	0	
1.6060	7.37446	1.28013	0	
1.6067	9.83262	2.19755	0	
1.6073	1.88284	1.28013	0	
1.6080	-0.235355	-3.30699	0	
1.6087	-0.862969	-3.30699	0	
1.6093	0.967571	-0.554722	0	
1.6100	21.1035	-2.68827	0	
1.6107	34.2311	-3.60569	0	
1.6113	10.7479	0.362703	0	
1.6120	-17.3378	2.19755	0	
1.6127	-30.1516	0.362703	0	
1.6133	-47.5418	0.362703	0	
1.6140	-57.6097	0.661399	0	
1.6147	-48.457	-1.47215	0	
1.6153	-40.8472	-2.98696	0	
1.6160	-34.728	-2.38957	0	
1.6167	-24.0585	-0.256025	0	
1.6173	-21.9142	1.89886	0	
1.6180	-20.0836	0.0640064	0	
1.6187	-9.70186	-5.12051	0	
1.6193	-0.862969	-4.82181	0	
1.6200	10.4341	0.0640064	0	
1.6207	26.9089	-0.554722	0	
1.6213	27.5104	-3.60569	0	
1.6220	23.8493	1.89886	0	
1.6227	42.4685	8.00079	0	
1.6233	66.8932	5.54722	0	
1.6240	71.7833	0.981431	0	
1.6247	54.9947	1.57882	0	
1.6253	27.5104	3.41367	0	
1.6260	9.51881	0.0640064	0	
1.6267	4.341	-6.95536	0	
1.6273	-6.04078	-9.40893	0	
1.6280	-24.66	-8.79021	0	
1.6287	-39.9319	-10.6251	0	
1.6293	-46.3388	-6.95536	0	
1.6300	-40.5334	8.59819	0	
1.6307	-26.8043	21.1221	0	
1.6313	-17.3378	19.5859	0	
1.6320	-6.35459	13.1853	0	
1.6327	7.37446	6.76334	0	
1.6333	6.45919	-1.47215	0	
1.6340	-5.43932	-6.03793	0	
1.6347	-8.49894	-6.35796	0	
1.6353	-13.0753	-8.79021	0	
1.6360	-29.5502	-14.8921	0	
1.6367	-41.1349	-13.0573	0	
1.6373	-44.1945	-0.853418	0	
1.6380	-47.5418	1.28013	0	
1.6387	-42.9654	-6.65666	0	
1.6393	-21.3127	4.3311	0	
1.6400	11.9508	22.9569	0	
1.6407	42.4685	8.29949	0	
1.6413	47.0449	-18.8605	0	
1.6420	30.57	-19.4793	0	
1.6427	27.2228	-8.79021	0	
1.6433	39.4351	-7.57409	0	
1.6440	45.2144	-4.20308	0	
1.6447	35.1464	-0.554722	0	
1.6453	9.205	-2.06954	0	
1.6460	-17.3378	-1.47215	0	
1.6467	-18.8546	0.981431	0	
1.6473	-3.60878	-0.853418	0	
1.6480	1.28138	-2.06954	0	
1.6487	-2.69351	-0.554722	0	
1.6493	-4.83786	-1.47215	0	
1.6500	-5.75313	-2.38957	0	
1.6507	-4.21024	-1.47215	0	
1.6513	-0.549162	-1.47215	0	
1.6520	1.88284	-1.77084	0	
1.6527	2.19665	-1.47215	0	
1.6533	-3.29497	-1.47215	0	
1.6540	-9.41421	-1.47215	0	
1.6547	-6.95605	-0.554722	0	
1.6553	-3.60878	-2.98696	0	
1.6560	-9.41421	-4.52312	0	
1.6567	-17.9393	-0.853418	0	
1.6573	-22.8295	1.57882	0	
1.6580	-22.228	-1.47215	0	
1.6587	-17.3378	-1.15211	0	
1.6593	-15.1935	1.89886	0	
1.6600	-18.2531	0.0640064	0	
1.6607	-11.8462	-1.15211	0	
1.6613	11.3494	1.28013	0	
1.6620	39.4351	1.28013	0	
1.6627	58.6557	0.362703	0	
1.6633	63.8336	1.28013	0	
1.6640	51.3336	1.57882	0	
1.6647	34.2311	1.28013	0	
1.6653	33.3158	0.981431	0	
1.6660	37.8922	-1.47215	0	
1.6667	25.3922	-3.30699	0	
1.6673	16.2395	-3.90439	0	
1.6680	28.4518	-4.20308	0	
1.6687	29.3671	-4.20308	0	
1.6693	-0.235355	-0.554722	0	
1.6700	-33.4989	3.11498	0	
1.6707	-52.7457	5.54722	0	
1.6713	-56.6945	5.86725	0	
1.6720	-44.5083	5.86725	0	
1.6727	-28.3211	4.0324	0	
1.6733	-21.3127	2.49625	0	
1.6740	-17.3378	3.41367	0	
1.6747	-14.2782	4.62979	0	
1.6753	-12.7615	1.89886	0	
1.6760	-8.78659	-0.554722	0	
1.6767	-5.12551	1.28013	0	
1.6773	-4.21024	4.0324	0	
1.6780	-2.69351	3.11498	0	
1.6787	-2.98117	0.362703	0	
1.6793	-4.21024	0.362703	0	
1.6800	-1.46443	2.19755	0	
1.6807	1.88284	2.19755	0	
1.6813	2.79811	1.28013	0	
1.6820	3.71338	3.41367	0	
1.6827	2.19665	5.86725	0	
1.6833	-1.15063	3.11498	0	
1.6840	-2.0659	-0.256025	0	
1.6847	-3.60878	-0.554722	0	
1.6853	-6.95605	-0.554722	0	
1.6860	-12.16	-1.47215	0	
1.6867	-18.2531	-1.47215	0	
1.6873	-15.5073	-1.47215	0	
1.6880	-6.6684	-2.06954	0	
1.6887	-10.3295	0.0640064	0	
1.6893	-20.0836	3.11498	0	
1.6900	-13.6768	4.0324	0	
1.6907	-0.862969	3.11498	0	
1.6913	0.967571	0.362703	0	
1.6920	-3.60878	-1.15211	0	
1.6927	-9.70186	-0.256025	0	
1.6933	-9.70186	0.661399	0	
1.6940	-4.52405	0.0640064	0	
1.6947	-14.9058	0.362703	0	
1.6953	-30.1516	2.79494	0	
1.6960	-14.2782	3.71237	0	
1.6967	12.5784	1.57882	0	
1.6973	14.6966	0.362703	0	
1.6980	12.5784	1.28013	0	
1.6987	19.273	0.0640064	0	
1.6993	15.3242	-3.30699	0	
1.7000	4.94246	-4.20308	0	
1.7007	7.37446	-4.20308	0	
1.7013	12.8661	-5.12051	0	
1.7020	8.28973	-2.38957	0	
1.7027	6.773	4.62979	0	
1.7033	23.2479	6.46464	0	
1.7040	45.5282	3.41367	0	
1.7047	47.3587	4.3311	0	
1.7053	36.0616	7.68076	0	
1.7060	31.1976	9.21691	0	
1.7067	21.4173	9.51561	0	
1.7073	-0.549162	9.21691	0	
1.7080	-14.2782	3.71237	0	
1.7087	-16.1088	-6.35796	0	
1.7093	-15.8211	-14.2948	0	
1.7100	-8.78659	-11.8412	0	
1.7107	-2.69351	-3.30699	0	
1.7113	-12.16	2.19755	0	
1.7120	-18.2531	1.57882	0	
1.7127	-2.69351	-1.47215	0	
1.7133	10.4341	-5.12051	0	
1.7140	1.59519	-8.79021	0	
1.7147	-11.5324	-9.70763	0	
1.7153	-8.78659	-13.676	0	
1.7160	4.94246	-22.2102	0	
1.7167	12.5784	-22.5302	0	
1.7173	9.205	-16.727	0	
1.7180	6.17154	-18.2418	0	
1.7187	1.28138	-10.6251	0	
1.7193	-24.3462	17.7511	0	
1.7200	-62.8137	34.2434	0	
1.7207	-75.026	21.4208	0	
1.7213	-48.1694	6.46464	0	
1.7220	-18.2531	0.362703	0	
1.7227	-22.8295	-3.30699	0	
1.7233	-48.457	-6.95536	0	
1.7240	-39.3043	-13.0573	0	
1.7247	7.37446	-9.40893	0	
1.7253	31.4853	11.6492	0	
1.7260	21.4173	21.4208	0	
1.7267	20.1882	12.2679	0	
1.7273	25.6799	16.2363	0	
1.7280	19.5868	23.2556	0	
1.7287	19.273	12.2679	0	
1.7293	24.1631	8.59819	0	
1.7300	14.0952	18.0711	0	
1.7307	2.19665	11.3505	0	
1.7313	-1.77824	-6.03793	0	
1.7320	-17.024	-15.5109	0	
1.7327	-35.957	-20.9941	0	
1.7333	-30.7531	-18.8605	0	
1.7340	-9.1004	-11.5425	0	
1.7347	-0.235355	-9.70763	0	
1.7353	-4.52405	-0.554722	0	
1.7360	-5.12551	18.0711	0	
1.7367	-3.92259	11.3505	0	
1.7373	-2.69351	-15.1908	0	
1.7380	13.1799	-17.9431	0	
1.7387	38.206	0.362703	0	
1.7393	44.2991	1.89886	0	
1.7400	38.5198	-11.2224	0	
1.7407	32.4006	-12.1399	0	
1.7413	2.19665	0.362703	0	
1.7420	-39.6181	10.7317	0	
1.7427	-45.7112	11.3505	0	
1.7433	-28.9225	6.16595	0	
1.7440	-29.2363	1.28013	0	
1.7447	-34.4403	-1.47215	0	
1.7453	-34.728	-2.38957	0	
1.7460	-46.6265	0.981431	0	
1.7467	-57.9235	4.94982	0	
1.7473	-46.6265	3.41367	0	
1.7480	-17.9393	1.89886	0	
1.7487	13.4937	2.19755	0	
1.7493	36.0616	0.661399	0	
1.7500	42.1809	2.79494	0	
1.7507	38.206	5.54722	0	
1.7513	30.57	-2.38957	0	
1.7520	20.8159	-10.9238	0	
1.7527	11.9508	-10.6251	0	
1.7533	10.1203	-8.49151	0	
1.7540	20.1882	-5.44054	0	
1.7547	26.3075	-3.60569	0	
1.7553	5.25627	-5.44054	0	
1.7560	-17.3378	4.94982	0	
1.7567	-13.0753	23.853	0	
1.7573	-4.83786	16.8337	0	
1.7580	-0.549162	-4.20308	0	
1.7587	12.8661	-3.30699	0	
1.7593	15.9257	8.59819	0	
1.7600	7.37446	7.68076	0	
1.7607	0.967571	5.86725	0	
1.7613	-28.3211	8.59819	0	
1.7620	-66.7886	8.59819	0	
1.7627	-62.1861	7.68076	0	
1.7633	-42.9654	7.68076	0	
1.7640	-44.7959	7.68076	0	
1.7647	-30.4654	7.68076	0	
1.7653	4.94246	6.46464	0	
1.7660	27.2228	5.24852	0	
1.7667	40.3503	6.76334	0	
1.7673	51.6212	8.00079	0	
1.7680	50.706	5.86725	0	
1.7687	45.2144	3.11498	0	
1.7693	38.206	1.28013	0	
1.7700	26.5951	-0.554722	0	
1.7707	19.273	-1.77084	0	
1.7713	17.4424	-2.38957	0	
1.7720	14.6966	-1.77084	0	
1.7727	12.8661	1.28013	0	
1.7733	12.5784	2.79494	0	
1.7740	16.5272	0.362703	0	
1.7747	18.3577	-1.15211	0	
1.7753	10.1203	-1.15211	0	
1.7760	8.91735	-3.90439	0	
1.7767	22.9341	-6.95536	0	
1.7773	31.7991	-6.03793	0	
1.7780	30.8838	-3.30699	0	
1.7787	27.5104	-1.77084	0	
1.7793	18.6715	-1.77084	0	
1.7800	9.205	-3.90439	0	
1.7807	-0.549162	-3.60569	0	
1.7813	-15.8211	-4.20308	0	
1.7820	-12.7615	-8.79021	0	
1.7827	5.25627	-6.35796	0	
1.7833	-9.70186	5.86725	0	
1.7840	-46.6265	9.21691	0	
1.7847	-46.9403	2.19755	0	
1.7853	-25.2615	4.94982	0	
1.7860	-25.2615	12.2679	0	
1.7867	-30.1516	10.7317	0	
1.7873	-18.5669	0.362703	0	
1.7880	-6.35459	-15.1908	0	
1.7887	3.11192	-27.096	0	
1.7893	4.94246	-28.9309	0	
1.7900	-19.7698	-25.8799	0	
1.7907	-46.025	-10.9238	0	
1.7913	-23.4309	14.7001	0	
1.7920	25.0784	20.8021	0	
1.7927	38.8075	2.49625	0	
1.7933	21.1035	-7.57409	0	
1.7940	8.28973	-6.65666	0	
1.7947	0.366108	-10.0063	0	
1.7953	-10.0157	-11.8412	0	
1.7960	-11.8462	-10.6251	0	
1.7967	-5.75313	-17.0257	0	
1.7973	-1.77824	-23.4477	0	
1.7980	2.79811	-14.8921	0	
1.7987	15.9257	1.57882	0	
1.7993	35.774	10.433	0	
1.8000	55.2823	4.62979	0	
1.8007	74.5291	-3.60569	0	
1.8013	83.0542	0.981431	0	
1.8020	49.503	11.3505	0	
1.8027	-12.4477	8.91822	0	
1.8033	-38.1014	-0.554722	0	
1.8040	-19.1684	-1.47215	0	
1.8047	-4.21024	-0.853418	0	
1.8053	-1.46443	-8.79021	0	
1.8060	5.85773	-17.0257	0	
1.8067	17.1548	-22.5302	0	
1.8073	35.1464	-27.096	0	
1.8080	55.9099	-16.1083	0	
1.8087	72.6986	1.28013	0	
1.8093	85.1986	-5.12051	0	
1.8100	73.9015	-17.0257	0	
1.8107	26.5951	0.362703	0	
1.8113	-27.4058	18.9886	0	
1.8120	-63.729	1.28013	0	
1.8127	-69.822	-20.3967	0	
1.8133	-54.8639	-16.4283	0	
1.8140	-59.4403	-3.60569	0	
1.8147	-72.5679	6.76334	0	
1.8153	-47.8556	12.8866	0	
1.8160	-20.0836	6.76334	0	
1.8167	-20.9989	-2.38957	0	
1.8173	-10.9309	-3.60569	0	
1.8180	0.967571	-6.95536	0	
1.8187	-10.0157	-14.2948	0	
1.8193	-4.52405	-14.2948	0	
1.8200	14.6966	-10.6251	0	
1.8207	11.0355	-9.40893	0	
1.8213	9.51881	-11.5425	0	
1.8220	12.8661	-17.0257	0	
1.8227	-10.0157	-13.3773	0	
1.8233	-33.8127	0.362703	0	
1.8240	-38.389	0.0640064	0	
1.8247	-54.8639	-6.65666	0	
1.8253	-74.3984	3.11498	0	
1.8260	-71.3649	11.6492	0	
1.8267	-57.9235	5.86725	0	
1.8273	-39.3043	1.28013	0	
1.8280	-10.0157	-3.30699	0	
1.8287	5.85773	-7.27539	0	
1.8293	0.0523012	5.54722	0	
1.8300	-6.6684	15.3189	0	
1.8307	-5.43932	3.41367	0	
1.8313	-4.52405	-8.49151	0	
1.8320	-9.1004	-14.2948	0	
1.8327	-19.4822	-17.3457	0	
1.8333	-31.0669	-9.0889	0	
1.8340	-29.2363	-1.15211	0	
1.8347	-16.4226	5.24852	0	
1.8353	-2.98117	29.9763	0	
1.8360	12.8661	47.066	0	
1.8367	27.5104	27.224	0	
1.8373	27.8242	0.661399	0	
1.8380	29.3671	-10.0063	0	
1.8387	46.7572	-4.20308	0	
1.8393	54.0794	20.5034	0	
1.8400	45.5282	25.6879	0	
1.8407	50.4183	-0.853418	0	
1.8413	63.2321	6.16595	0	
1.8420	80.0208	32.7072	0	
1.8427	117.233	0.661399	0	
1.8433	119.979	-46.6393	0	
1.8440	30.57	-35.6515	0	
1.8447	-76.5427	-3.90439	0	
1.8453	-108.577	4.3311	0	
1.8460	-82.9496	3.71237	0	
1.8467	-48.457	6.76334	0	
1.8473	-17.6516	16.535	0	
1.8480	8.60354	27.5227	0	
1.8487	33.0282	24.1731	0	
1.8493	46.1296	11.9692	0	
1.8500	41.2656	2.49625	0	
1.8507	35.774	-4.82181	0	
1.8513	33.3158	-6.95536	0	
1.8520	14.409	-1.47215	0	
1.8527	-2.98117	2.19755	0	
1.8533	2.79811	0.661399	0	
1.8540	-1.46443	1.57882	0	
1.8547	-45.7112	6.76334	0	
1.8553	-90.2718	8.29949	0	
1.8560	-100.052	2.19755	0	
1.8567	-98.823	-3.30699	0	
1.8573	-104.315	-3.90439	0	
1.8580	-94.2467	-6.03793	0	
1.8587	-64.9319	-5.12051	0	
1.8593	-43.2792	0.362703	0	
1.8600	-27.7196	-0.256025	0	
1.8607	4.02719	0.981431	0	
1.8613	58.6557	13.1853	0	
1.8620	123.666	19.906	0	
1.8627	157.531	14.7001	0	
1.8633	124.268	10.7317	0	
1.8640	65.3764	14.1027	0	
1.8647	53.4518	17.4524	0	
1.8653	72.071	12.5666	0	
1.8660	65.9779	4.62979	0	
1.8667	40.3503	-0.554722	0	
1.8673	25.9937	-15.5109	0	
1.8680	21.7311	-37.4864	0	
1.8687	7.08681	-34.4354	0	
1.8693	-23.4309	-13.9747	0	
1.8700	-46.3388	-8.79021	0	
1.8707	-40.5334	-8.79021	0	
1.8713	-27.4058	-2.38957	0	
1.8720	-30.1516	-4.20308	0	
1.8727	-35.6432	-8.17148	0	
1.8733	-33.8127	-0.554722	0	
1.8740	-36.2709	4.94982	0	
1.8747	-41.1349	4.62979	0	
1.8753	-31.6684	6.76334	0	
1.8760	-8.18513	8.59819	0	
1.8767	5.25627	7.68076	0	
1.8773	-4.83786	8.00079	0	
1.8780	-12.7615	8.00079	0	
1.8787	11.3494	7.38207	0	
1.8793	45.5282	7.68076	0	
1.8800	53.1641	4.0324	0	
1.8807	39.7227	-0.853418	0	
1.8813	25.3922	0.362703	0	
1.8820	16.841	4.0324	0	
1.8827	18.6715	2.49625	0	
1.8833	24.7646	0.661399	0	
1.8840	18.6715	2.19755	0	
1.8847	6.773	3.71237	0	
1.8853	3.11192	4.0324	0	
1.8860	2.79811	2.79494	0	
1.8867	0.967571	-0.554722	0	
1.8873	2.51046	-1.15211	0	
1.8880	4.341	3.11498	0	
1.8887	0.0523012	4.94982	0	
1.8893	-13.6768	3.71237	0	
1.8900	-31.9822	3.11498	0	
1.8907	-35.3556	0.981431	0	
1.8913	-20.3975	-0.554722	0	
1.8920	-13.3629	2.19755	0	
1.8927	-11.8462	4.3311	0	
1.8933	4.02719	4.0324	0	
1.8940	7.68827	2.19755	0	
1.8947	-11.5324	-3.30699	0	
1.8953	-13.9906	-11.5425	0	
1.8960	-12.7615	-17.0257	0	
1.8967	-35.6432	-19.4793	0	
1.8973	-28.3211	-14.5934	0	
1.8980	23.8493	-4.20308	0	
1.8987	45.5282	0.362703	0	
1.8993	26.5951	2.19755	0	
1.9000	18.3577	8.59819	0	
1.9007	15.3242	11.0518	0	
1.9013	0.967571	4.0324	0	
1.9020	-10.9309	-3.30699	0	
1.9027	-20.0836	-9.70763	0	
1.9033	-21.9142	-21.6128	0	
1.9040	-8.78659	-42.6709	0	
1.9047	1.59519	-60.0593	0	
1.9053	5.54392	-53.0399	0	
1.9060	20.1882	-33.518	0	
1.9067	36.6893	-26.7973	0	
1.9073	39.7227	-12.4599	0	
1.9080	40.3503	25.6879	0	
1.9087	54.0794	37.8918	0	
1.9093	55.9099	9.51561	0	
1.9100	7.68827	-0.853418	0	
1.9107	-57.6097	15.9376	0	
1.9113	-72.2802	21.1221	0	
1.9120	-49.0846	26.904	0	
1.9127	-24.0585	38.8092	0	
1.9133	8.60354	20.5034	0	
1.9140	17.7562	-13.676	0	
1.9147	-16.1088	-19.778	0	
1.9153	-26.4905	-10.6251	0	
1.9160	-14.2782	4.0324	0	
1.9167	-55.7792	24.4718	0	
1.9173	-105.23	14.7001	0	
1.9180	-93.3314	-12.4599	0	
1.9187	-86.0093	-1.47215	0	
1.9193	-115.612	17.1537	0	
1.9200	-119.56	-5.44054	0	
1.9207	-94.5343	-22.8289	0	
1.9213	-70.4497	-6.95536	0	
1.9220	-35.0418	-1.77084	0	
1.9227	-0.549162	-15.5109	0	
1.9233	22.9341	-18.2418	0	
1.9240	62.3168	-6.95536	0	
1.9247	92.5207	1.89886	0	
1.9253	78.7917	3.71237	0	
1.9260	54.3671	2.79494	0	
1.9267	41.2656	1.28013	0	
1.9273	24.7646	-1.15211	0	
1.9280	6.45919	-1.47215	0	
1.9287	-25.2615	1.57882	0	
1.9293	-67.39	2.79494	0	
1.9300	-72.5679	5.24852	0	
1.9307	-45.1097	10.7317	0	
1.9313	-29.8378	11.0518	0	
1.9320	-15.1935	3.71237	0	
1.9327	5.54392	-4.82181	0	
1.9333	0.366108	-9.40893	0	
1.9340	-21.9142	-6.03793	0	
1.9347	-35.957	0.362703	0	
1.9353	-52.4319	2.19755	0	
1.9360	-71.3649	4.94982	0	
1.9367	-63.1013	15.0202	0	
1.9373	-19.1684	25.3892	0	
1.9380	31.4853	27.8214	0	
1.9387	53.1641	22.9569	0	
1.9393	40.638	16.8337	0	
1.9400	25.6799	14.1027	0	
1.9407	36.6893	11.9692	0	
1.9413	60.4863	8.59819	0	
1.9420	54.0794	5.54722	0	
1.9427	19.5868	6.76334	0	
1.9433	0.967571	13.1853	0	
1.9440	0.679915	15.6176	0	
1.9447	-6.6684	10.1343	0	
1.9453	-12.7615	6.16595	0	
1.9460	-3.92259	7.38207	0	
1.9467	9.83262	4.94982	0	
1.9473	25.6799	-0.554722	0	
1.9480	44.0114	-0.554722	0	
1.9487	57.7405	1.57882	0	
1.9493	59.571	1.28013	0	
1.9500	50.1045	-0.554722	0	
1.9507	40.3503	-0.554722	0	
1.9513	24.1631	4.0324	0	
1.9520	-10.3295	10.433	0	
1.9527	-31.9822	13.1853	0	
1.9533	-13.6768	14.7001	0	
1.9540	3.71338	16.535	0	
1.9547	0.967571	14.4014	0	
1.9553	10.4341	5.86725	0	
1.9560	35.774	-4.20308	0	
1.9567	45.2144	-12.1399	0	
1.9573	33.0282	-16.1083	0	
1.9580	22.0188	-22.2102	0	
1.9587	31.1976	-29.8483	0	
1.9593	42.4685	-23.4477	0	
1.9600	30.2824	-4.20308	0	
1.9607	19.9006	1.28013	0	
1.9613	23.8493	-6.03793	0	
1.9620	10.7479	-5.44054	0	
1.9627	-6.6684	-1.77084	0	
1.9633	4.62865	-5.12051	0	
1.9640	15.3242	-6.03793	0	
1.9647	4.341	-2.06954	0	
1.9653	-4.21024	-1.15211	0	
1.9660	-12.7615	-3.30699	0	
1.9667	-19.1684	-6.65666	0	
1.9673	-6.04078	-10.3264	0	
1.9680	-0.549162	-9.70763	0	
1.9687	-17.3378	-10.3264	0	
1.9693	-17.9393	-14.2948	0	
1.9700	-3.60878	-8.79021	0	
1.9707	-5.75313	6.76334	0	
1.9713	-16.7364	13.1853	0	
1.9720	-26.8043	4.0324	0	
1.9727	-39.0167	-3.30699	0	
1.9733	-37.7876	-2.38957	0	
1.9740	-24.66	-2.06954	0	
1.9747	-16.4226	-3.30699	0	
1.9753	-5.12551	-0.256025	0	
1.9760	8.00208	1.28013	0	
1.9767	8.28973	-1.77084	0	
1.9773	0.967571	-0.853418	0	
1.9780	-12.16	3.11498	0	
1.9787	-24.0585	0.661399	0	
1.9793	-9.70186	-5.44054	0	
1.9800	3.42573	-7.87278	0	
1.9807	-24.66	-4.82181	0	
1.9813	-51.2028	-3.30699	0	
1.9820	-35.6432	-6.95536	0	
1.9827	-16.4226	-1.15211	0	
1.9833	-7.87132	16.8337	0	
1.9840	19.273	14.1027	0	
1.9847	63.5459	-9.70763	0	
1.9853	106.25	-15.1908	0	
1.9860	138.598	-6.95536	0	
1.9867	153.87	-8.79021	0	
1.9873	150.209	-6.03793	0	
1.9880	114.487	6.76334	0	
1.9887	49.503	15.3189	0	
1.9893	-7.26986	21.1221	0	
1.9900	-50.6014	19.5859	0	
1.9907	-95.162	-1.47215	0	
1.9913	-111.951	-21.9115	0	
1.9920	-94.5343	-24.3651	0	
1.9927	-78.0595	-24.9625	0	
1.9933	-63.4152	-27.096	0	
1.9940	-39.3043	-18.8605	0	
1.9947	-3.60878	-7.87278	0	
1.9953	50.706	-1.47215	0	
1.9960	76.6473	13.484	0	
1.9967	26.5951	32.7072	0	
1.9973	-31.3807	27.5227	0	
1.9980	-25.5753	-6.65666	0	
1.9987	7.37446	-31.6831	0	
1.9993	17.4424	-17.0257	0	
2.0000	10.4341	10.433	0	
2.0007	8.60354	9.51561	0	
2.0013	11.9508	-9.40893	0	
2.0020	0.967571	-13.3773	0	
2.0027	-17.3378	-3.60569	0	
2.0033	-10.9309	0.362703	0	
2.0040	11.0355	0.981431	0	
2.0047	7.68827	4.0324	0	
2.0053	-14.2782	3.11498	0	
2.0060	-12.16	-2.38957	0	
2.0067	7.68827	-0.853418	0	
2.0073	11.3494	10.433	0	
2.0080	17.4424	18.9886	0	
2.0087	34.5449	20.2047	0	
2.0093	12.8661	26.6053	0	
2.0100	-28.0073	32.4085	0	
2.0107	-27.4058	17.1537	0	
2.0113	-28.3211	-1.47215	0	
2.0120	-64.6442	3.41367	0	
2.0127	-88.7551	22.3382	0	
2.0133	-112.866	33.6247	0	
2.0140	-147.646	20.5034	0	
2.0147	-131.773	-13.9747	0	
2.0153	-90.2718	-27.4161	0	
2.0160	-89.0427	-8.79021	0	
2.0167	-90.2718	-8.79021	0	
2.0173	-65.2457	-33.198	0	
2.0180	-35.6432	-39.0012	0	
2.0187	16.841	-31.6831	0	
2.0193	77.8764	-23.4477	0	
2.0200	79.707	3.11498	0	
2.0207	25.3922	22.6369	0	
2.0213	-25.5753	3.71237	0	
2.0220	-32.8974	-13.9747	0	
2.0227	3.42573	-6.03793	0	
2.0233	38.5198	-6.03793	0	
2.0240	51.6212	-16.1083	0	
2.0247	63.8336	-12.1399	0	
2.0253	62.6306	-3.90439	0	
2.0260	38.5198	-4.20308	0	
2.0267	35.774	-5.12051	0	
2.0273	51.0198	-5.12051	0	
2.0280	30.2824	-6.03793	0	
2.0287	-8.18513	-7.57409	0	
2.0293	-15.5073	-13.0573	0	
2.0300	-4.21024	-15.1908	0	
2.0307	2.19665	-10.3264	0	
2.0313	7.08681	-11.8412	0	
2.0320	7.08681	-13.9747	0	
2.0327	7.68827	4.62979	0	
2.0333	22.6464	24.1731	0	
2.0340	27.5104	15.6176	0	
2.0347	4.62865	1.28013	0	
2.0353	-6.6684	6.76334	0	
2.0360	9.83262	13.484	0	
2.0367	21.7311	9.21691	0	
2.0373	22.0188	7.38207	0	
2.0380	28.4518	7.68076	0	
2.0387	39.4351	2.19755	0	
2.0393	56.5114	-3.60569	0	
2.0400	73.9015	-5.44054	0	
2.0407	71.1557	-5.44054	0	
2.0413	48.8754	-2.38957	0	
2.0420	18.3577	-0.256025	0	
2.0427	-14.592	-2.06954	0	
2.0433	-22.8295	-4.20308	0	
2.0440	4.02719	-6.35796	0	
2.0447	29.3671	-10.3264	0	
2.0453	35.1464	-8.17148	0	
2.0460	36.0616	-0.853418	0	
2.0467	32.4006	1.28013	0	
2.0473	25.0784	1.57882	0	
2.0480	17.4424	9.81431	0	
2.0487	-3.60878	17.7511	0	
2.0493	-39.3043	13.1853	0	
2.0500	-78.0595	4.94982	0	
2.0507	-109.205	0.362703	0	
2.0513	-106.459	-6.03793	0	
2.0520	-73.1955	-12.4599	0	
2.0527	-59.4403	-12.7586	0	
2.0533	-70.4497	-13.676	0	
2.0540	-60.9831	-10.6251	0	
2.0547	-32.8974	4.94982	0	
2.0553	-19.1684	12.8866	0	
2.0560	-17.3378	2.49625	0	
2.0567	-11.8462	-2.38957	0	
2.0573	-6.95605	1.89886	0	
2.0580	-5.12551	-2.68827	0	
2.0587	-1.77824	-6.65666	0	
2.0593	4.341	-2.06954	0	
2.0600	10.4341	-0.256025	0	
2.0607	13.7814	1.89886	0	
2.0613	14.409	8.59819	0	
2.0620	13.1799	7.68076	0	
2.0627	10.1203	2.19755	0	
2.0633	11.0355	2.19755	0	
2.0640	20.1882	1.89886	0	
2.0647	22.6464	-0.554722	0	
2.0653	3.42573	0.362703	0	
2.0660	-21.3127	0.661399	0	
2.0667	-21.9142	-2.06954	0	
2.0673	-0.862969	-6.03793	0	
2.0680	10.4341	-9.70763	0	
2.0687	2.51046	-7.57409	0	
2.0693	0.0523012	-2.06954	0	
2.0700	13.1799	-1.77084	0	
2.0707	43.0962	-7.87278	0	
2.0713	87.6306	-14.2948	0	
2.0720	106.564	-12.7586	0	
2.0727	81.8513	-1.15211	0	
2.0733	74.8168	8.00079	0	
2.0740	83.368	16.535	0	
2.0747	21.4173	34.8408	0	
2.0753	-64.0166	32.4085	0	
2.0760	-52.1181	-2.98696	0	
2.0767	18.9853	-14.5934	0	
2.0773	52.2489	12.2679	0	
2.0780	51.3336	23.5543	0	
2.0787	38.5198	10.7317	0	
2.0793	14.6966	5.86725	0	
2.0800	-12.16	11.3505	0	
2.0807	-51.8304	24.4718	0	
2.0813	-86.2969	32.4085	0	
2.0820	-85.094	2.49625	0	
2.0827	-79.6024	-39.0012	0	
2.0833	-80.2038	-36.569	0	
2.0840	-34.728	-12.4599	0	
2.0847	25.6799	-12.4599	0	
2.0853	19.273	-11.5425	0	
2.0860	-31.3807	15.9376	0	
2.0867	-57.3221	32.4085	0	
2.0873	-53.9486	12.2679	0	
2.0880	-34.1265	-8.17148	0	
2.0887	-1.46443	0.661399	0	
2.0893	34.2311	12.5666	0	
2.0900	69.0375	-1.47215	0	
2.0907	71.1557	-25.5812	0	
2.0913	6.45919	-46.3193	0	
2.0920	-57.6097	-65.5638	0	
2.0927	-40.5334	-74.098	0	
2.0933	3.71338	-63.729	0	
2.0940	7.68827	-32.6006	0	
2.0947	5.54392	23.2556	0	
2.0953	39.4351	72.0712	0	
2.0960	108.996	66.8866	0	
2.0967	172.489	37.8918	0	
2.0973	159.963	28.7389	0	
2.0980	105.047	8.91822	0	
2.0987	96.8094	-21.2928	0	
2.0993	98.0124	-11.5425	0	
2.1000	67.8085	-0.256025	0	
2.1007	54.9947	-43.5883	0	
2.1013	29.6548	-77.7677	0	
2.1020	-49.3723	-47.8554	0	
2.1027	-120.476	-9.0889	0	
2.1033	-169.613	8.59819	0	
2.1040	-185.8	28.7389	0	
2.1047	-93.9329	40.3453	0	
2.1053	13.7814	27.5227	0	
2.1060	5.25627	7.68076	0	
2.1067	-16.4226	-4.52312	0	
2.1073	7.37446	-4.52312	0	
2.1080	-46.3388	5.86725	0	
2.1087	-134.832	11.3505	0	
2.1093	-115.298	9.51561	0	
2.1100	-50.2876	10.433	0	
2.1107	-37.7876	10.433	0	
2.1113	-41.7625	10.1343	0	
2.1120	-40.2196	14.7001	0	
2.1127	-43.8807	15.6176	0	
2.1133	-33.2112	8.59819	0	
2.1140	-10.0157	0.362703	0	
2.1147	-1.15063	-4.82181	0	
2.1153	-4.52405	-4.20308	0	
2.1160	-5.43932	-4.20308	0	
2.1167	-1.77824	-9.0889	0	
2.1173	0.366108	0.0640064	0	
2.1180	-2.0659	24.1731	0	
2.1187	-2.69351	30.275	0	
2.1193	1.59519	15.3189	0	
2.1200	3.71338	9.81431	0	
2.1207	3.71338	14.1027	0	
2.1213	3.71338	9.81431	0	
2.1220	-1.46443	-0.554722	0	
2.1227	-6.95605	-6.95536	0	
2.1233	-6.35459	-11.2224	0	
2.1240	-5.75313	-13.3773	0	
2.1247	-4.52405	-14.2948	0	
2.1253	0.967571	-25.8799	0	
2.1260	2.79811	-42.6709	0	
2.1267	3.11192	-30.7657	0	
2.1273	9.205	2.49625	0	
2.1280	9.51881	14.7001	0	
2.1287	0.967571	19.906	0	
2.1293	-1.77824	45.2312	0	
2.1300	0.967571	42.1802	0	
2.1307	2.79811	-4.20308	0	
2.1313	7.08681	-25.8799	0	
2.1320	11.0355	-10.0063	0	
2.1327	11.0355	-2.38957	0	
2.1333	11.0355	-2.06954	0	
2.1340	10.4341	4.0324	0	
2.1347	8.28973	5.54722	0	
2.1353	8.28973	4.0324	0	
2.1360	8.28973	4.94982	0	
2.1367	9.83262	3.41367	0	
2.1373	11.0355	2.79494	0	
2.1380	9.205	3.71237	0	
2.1387	12.2646	1.89886	0	
2.1393	17.4424	2.49625	0	
2.1400	10.1203	6.76334	0	
2.1407	2.19665	5.86725	0	
2.1413	7.68827	2.49625	0	
2.1420	11.3494	3.11498	0	
2.1427	9.83262	3.71237	0	
2.1433	14.409	0.981431	0	
2.1440	15.6119	-0.853418	0	
2.1447	5.85773	1.28013	0	
2.1453	1.59519	3.71237	0	
2.1460	4.94246	4.62979	0	
2.1467	5.54392	4.0324	0	
2.1473	2.79811	2.19755	0	
2.1480	-1.77824	-0.554722	0	
2.1487	-6.6684	-0.853418	0	
2.1493	-4.52405	-0.256025	0	
2.1500	-0.862969	-0.853418	0	
2.1507	-4.83786	-2.38957	0	
2.1513	-7.26986	-2.38957	0	
2.1520	-4.52405	1.28013	0	
2.1527	-3.60878	8.29949	0	
2.1533	3.42573	11.9692	0	
2.1540	21.1035	9.51561	0	
2.1547	32.4006	6.46464	0	
2.1553	32.4006	2.79494	0	
2.1560	31.7991	0.362703	0	
2.1567	28.7395	1.89886	0	
2.1573	25.0784	2.49625	0	
2.1580	27.5104	1.28013	0	
2.1587	28.4518	3.11498	0	
2.1593	11.0355	4.0324	0	
2.1600	-24.66	2.19755	0	
2.1607	-57.3221	4.0324	0	
2.1613	-62.4999	8.00079	0	
2.1620	-42.0501	6.16595	0	
2.1627	-21.6004	1.28013	0	
2.1633	-13.3629	1.57882	0	
2.1640	-6.95605	3.11498	0	
2.1647	0.967571	1.57882	0	
2.1653	0.967571	0.362703	0	
2.1660	0.0523012	0.661399	0	
2.1667	7.08681	-1.77084	0	
2.1673	11.0355	-3.90439	0	
2.1680	7.08681	-1.47215	0	
2.1687	14.0952	-1.47215	0	
2.1693	22.9341	-3.30699	0	
2.1700	10.1203	-1.77084	0	
2.1707	-8.18513	-1.15211	0	
2.1713	-7.26986	-4.52312	0	
2.1720	11.9508	-6.95536	0	
2.1727	35.4602	-7.87278	0	
2.1733	30.8838	-8.79021	0	
2.1740	-11.8462	-9.40893	0	
2.1747	-44.7959	-11.5425	0	
2.1753	-45.1097	-11.2224	0	
2.1760	-52.7457	-6.95536	0	
2.1767	-67.7038	-6.03793	0	
2.1773	-56.4068	-9.40893	0	
2.1780	-36.5585	-10.9238	0	
2.1787	-15.1935	-12.7586	0	
2.1793	48.8754	-14.2948	0	
2.1800	125.497	-9.40893	0	
2.1807	131.276	-3.30699	0	
2.1813	87.0291	-0.554722	0	
2.1820	57.1129	2.19755	0	
2.1827	22.3326	3.11498	0	
2.1833	-16.4226	2.49625	0	
2.1840	-10.6171	4.0324	0	
2.1847	3.71338	5.86725	0	
2.1853	-21.3127	2.79494	0	
2.1860	-30.1516	-1.77084	0	
2.1867	9.83262	-2.38957	0	
2.1873	33.0282	-1.47215	0	
2.1880	4.02719	-2.38957	0	
2.1887	-31.3807	-3.30699	0	
2.1893	-28.0073	-2.68827	0	
2.1900	11.6632	-3.90439	0	
2.1907	44.0114	-5.73924	0	
2.1913	42.4685	-4.20308	0	
2.1920	26.5951	-2.38957	0	
2.1927	12.8661	-4.20308	0	
2.1933	-6.95605	-5.44054	0	
2.1940	-31.9822	-1.47215	0	
2.1947	-46.3388	1.57882	0	
2.1953	-43.8807	-1.15211	0	
2.1960	-32.8974	-2.98696	0	
2.1967	-23.7447	-0.256025	0	
2.1973	-22.8295	2.19755	0	
2.1980	-28.0073	1.28013	0	
2.1987	-26.4905	0.362703	0	
2.1993	-12.4477	0.362703	0	
2.2000	-3.60878	-1.47215	0	
2.2007	-14.9058	-2.68827	0	
2.2013	-30.1516	-1.47215	0	
2.2020	-22.228	-1.15211	0	
2.2027	11.0355	-4.20308	0	
2.2033	45.5282	-4.82181	0	
2.2040	57.1129	-2.68827	0	
2.2047	54.9947	-1.47215	0	
2.2053	54.9947	0.362703	0	
2.2060	45.842	3.11498	0	
2.2067	22.9341	1.57882	0	
2.2073	4.02719	-2.38957	0	
2.2080	-10.0157	-2.98696	0	
2.2087	-35.6432	-1.47215	0	
2.2093	-64.9319	-1.77084	0	
2.2100	-77.458	-3.30699	0	
2.2107	-60.9831	-6.03793	0	
2.2113	-28.9225	-7.27539	0	
2.2120	-7.26986	-3.60569	0	
2.2127	-3.60878	-0.256025	0	
2.2133	-8.18513	-1.47215	0	
2.2140	-13.0753	-1.15211	0	
2.2147	-15.5073	-0.554722	0	
2.2153	-20.0836	-2.38957	0	
2.2160	-28.3211	-2.38957	0	
2.2167	-26.8043	-1.47215	0	
2.2173	-14.2782	-2.98696	0	
2.2180	-6.35459	-3.30699	0	
2.2187	-3.92259	-5.12051	0	
2.2193	-1.77824	-7.87278	0	
2.2200	-6.35459	3.71237	0	
2.2207	-9.41421	19.5859	0	
2.2213	-3.92259	11.6492	0	
2.2220	0.679915	-5.44054	0	
2.2227	3.71338	-5.12051	0	
2.2233	12.5784	1.28013	0	
2.2240	17.7562	1.28013	0	
2.2247	14.6966	3.71237	0	
2.2253	11.0355	7.38207	0	
2.2260	8.28973	5.24852	0	
2.2267	5.25627	2.79494	0	
2.2273	0.0523012	2.79494	0	
2.2280	-5.43932	3.41367	0	
2.2287	-2.69351	3.11498	0	
2.2293	0.366108	0.661399	0	
2.2300	0.366108	-2.06954	0	
2.2307	13.1799	-0.554722	0	
2.2313	24.1631	1.28013	0	
2.2320	11.0355	-0.554722	0	
2.2327	6.45919	-3.30699	0	
2.2333	19.273	-3.60569	0	
2.2340	10.1203	-1.77084	0	
2.2347	-3.92259	1.28013	0	
2.2353	8.28973	3.11498	0	
2.2360	21.1035	2.19755	0	
2.2367	26.5951	0.362703	0	
2.2373	43.6976	-2.68827	0	
2.2380	53.4518	-6.35796	0	
2.2387	44.9267	-7.57409	0	
2.2393	35.774	-3.30699	0	
2.2400	22.0188	-0.853418	0	
2.2407	-5.75313	-5.12051	0	
2.2413	-46.025	-5.73924	0	
2.2420	-89.6703	2.19755	0	
2.2427	-105.23	8.00079	0	
2.2433	-83.5511	5.24852	0	
2.2440	-59.1526	0.981431	0	
2.2447	-42.3639	0.362703	0	
2.2453	-22.5156	0.362703	0	
2.2460	-3.92259	0.362703	0	
2.2467	22.3326	-2.06954	0	
2.2473	64.7488	-5.73924	0	
2.2480	90.6902	-7.87278	0	
2.2487	75.1306	-6.03793	0	
2.2493	33.9435	-5.12051	0	
2.2500	-0.235355	-6.65666	0	
2.2507	-10.0157	-8.17148	0	
2.2513	0.679915	-8.79021	0	
2.2520	22.3326	-6.65666	0	
2.2527	43.6976	-2.68827	0	
2.2533	46.7572	-4.82181	0	
2.2540	38.5198	-6.03793	0	
2.2547	42.1809	7.68076	0	
2.2553	49.7907	18.6685	0	
2.2560	41.8671	7.08337	0	
2.2567	23.8493	0.362703	0	
2.2573	2.19665	11.9692	0	
2.2580	-19.1684	16.2363	0	
2.2587	-32.5836	8.00079	0	
2.2593	-39.3043	4.62979	0	
2.2600	-42.0501	4.0324	0	
2.2607	-26.4905	-0.554722	0	
2.2613	4.94246	-2.98696	0	
2.2620	31.1976	-2.98696	0	
2.2627	42.4685	-3.30699	0	
2.2633	51.3336	-2.06954	0	
2.2640	58.6557	3.41367	0	
2.2647	40.0365	12.5666	0	
2.2653	-3.92259	16.8337	0	
2.2660	-33.8127	11.9692	0	
2.2667	-43.8807	6.76334	0	
2.2673	-53.0334	8.00079	0	
2.2680	-41.7625	6.76334	0	
2.2687	-28.0073	-4.20308	0	
2.2693	-67.7038	-17.0257	0	
2.2700	-116.213	-23.1276	0	
2.2707	-94.2467	-26.7973	0	
2.2713	-41.4487	-27.096	0	
2.2720	-14.592	-12.4599	0	
2.2727	9.51881	10.7317	0	
2.2733	32.4006	16.2363	0	
2.2740	31.4853	2.19755	0	
2.2747	27.5104	-9.40893	0	
2.2753	33.0282	-11.2224	0	
2.2760	29.6548	-10.9238	0	
2.2767	13.1799	-9.70763	0	
2.2773	-3.60878	-5.73924	0	
2.2780	-10.9309	-2.06954	0	
2.2787	-11.8462	0.362703	0	
2.2793	-24.0585	1.28013	0	
2.2800	-38.389	2.19755	0	
2.2807	-32.296	4.94982	0	
2.2813	-17.3378	4.94982	0	
2.2820	-3.29497	0.362703	0	
2.2827	16.841	0.362703	0	
2.2833	26.9089	8.29949	0	
2.2840	13.7814	11.0518	0	
2.2847	4.62865	2.79494	0	
2.2853	9.205	-4.20308	0	
2.2860	2.79811	-4.20308	0	
2.2867	-9.70186	-2.38957	0	
2.2873	-1.77824	-2.98696	0	
2.2880	16.5272	-4.82181	0	
2.2887	15.3242	-8.49151	0	
2.2893	-2.69351	-10.6251	0	
2.2900	-17.3378	-10.6251	0	
2.2907	-27.7196	-10.0063	0	
2.2913	-39.3043	-9.0889	0	
2.2920	-41.1349	-11.2224	0	
2.2927	-27.7196	-14.5934	0	
2.2933	-10.0157	-15.1908	0	
2.2940	11.0355	-20.6954	0	
2.2947	49.1892	-25.8799	0	
2.2953	80.3084	-6.35796	0	
2.2960	70.2405	24.1731	0	
2.2967	47.9602	25.0905	0	
2.2973	53.1641	5.86725	0	
2.2980	53.1641	6.76334	0	
2.2987	23.2479	19.906	0	
2.2993	-1.15063	17.1537	0	
2.3000	-18.2531	9.51561	0	
2.3007	-56.6945	20.5034	0	
2.3013	-86.9245	32.4085	0	
2.3020	-73.1955	17.4524	0	
2.3027	-42.9654	-6.03793	0	
2.3033	-34.4403	-10.6251	0	
2.3040	-43.593	-4.82181	0	
2.3047	-47.5418	-2.68827	0	
2.3053	-40.8472	0.362703	0	
2.3060	-33.8127	3.11498	0	
2.3067	-26.8043	1.57882	0	
2.3073	-16.4226	-1.47215	0	
2.3080	-14.592	-4.20308	0	
2.3087	-19.4822	-2.38957	0	
2.3093	-19.1684	3.11498	0	
2.3100	-24.66	2.79494	0	
2.3107	-27.4058	0.0640064	0	
2.3113	-2.0659	3.71237	0	
2.3120	26.5951	4.94982	0	
2.3127	23.2479	0.362703	0	
2.3133	8.28973	-2.06954	0	
2.3140	5.54392	-1.47215	0	
2.3147	1.88284	-3.30699	0	
2.3153	-9.1004	-6.03793	0	
2.3160	-16.1088	-8.79021	0	
2.3167	-14.592	-7.87278	0	
2.3173	-13.6768	-3.90439	0	
2.3180	-14.592	-4.82181	0	
2.3187	-14.592	-10.6251	0	
2.3193	-23.4309	-10.9238	0	
2.3200	-32.8974	-6.95536	0	
2.3207	-18.2531	-6.35796	0	
2.3213	8.28973	-7.57409	0	
2.3220	15.9257	-6.03793	0	
2.3227	24.7646	-2.38957	0	
2.3233	53.4518	-0.554722	0	
2.3240	73.3001	-6.95536	0	
2.3247	67.8085	-20.0767	0	
2.3253	53.4518	-28.9309	0	
2.3260	40.3503	-25.2612	0	
2.3267	33.9435	-22.8289	0	
2.3273	35.774	-25.2612	0	
2.3280	30.2824	-10.6251	0	
2.3287	16.5272	21.1221	0	
2.3293	11.3494	31.4911	0	
2.3300	9.83262	15.6176	0	
2.3307	2.79811	6.16595	0	
2.3313	-1.77824	7.68076	0	
2.3320	-3.60878	1.28013	0	
2.3327	-8.49894	-4.20308	0	
2.3333	-8.78659	1.28013	0	
2.3340	-1.46443	2.49625	0	
2.3347	6.45919	-5.73924	0	
2.3353	17.7562	-2.38957	0	
2.3360	29.0533	11.3505	0	
2.3367	27.5104	11.9692	0	
2.3373	15.6119	7.38207	0	
2.3380	3.71338	13.7827	0	
2.3387	-5.12551	21.7195	0	
2.3393	-7.26986	23.5543	0	
2.3400	-4.52405	22.3382	0	
2.3407	-7.26986	16.535	0	
2.3413	-14.2782	12.2679	0	
2.3420	-14.592	13.1853	0	
2.3427	-6.6684	7.38207	0	
2.3433	6.17154	-2.38957	0	
2.3440	17.4424	-5.12051	0	
2.3447	20.5021	-13.9747	0	
2.3453	24.7646	-28.9309	0	
2.3460	38.5198	-30.7657	0	
2.3467	44.6129	-13.3773	0	
2.3473	30.57	11.0518	0	
2.3480	11.6632	25.0905	0	
2.3487	9.205	18.3698	0	
2.3493	19.9006	4.62979	0	
2.3500	15.3242	-3.60569	0	
2.3507	-11.5324	-9.70763	0	
2.3513	-33.2112	-6.03793	0	
2.3520	-36.5585	4.0324	0	
2.3527	-37.4738	0.362703	0	
2.3533	-42.9654	-1.47215	0	
2.3540	-44.1945	8.00079	0	
2.3547	-29.8378	-0.554722	0	
2.3553	-19.4822	-16.4283	0	
2.3560	-44.7959	-11.8412	0	
2.3567	-75.9413	-7.27539	0	
2.3573	-62.8137	-4.82181	0	
2.3580	-32.296	17.7511	0	
2.3587	-26.8043	31.4911	0	
2.3593	-31.0669	20.5034	0	
2.3600	-29.8378	15.6176	0	
2.3607	-26.1767	10.7317	0	
2.3613	-8.78659	-4.52312	0	
2.3620	11.0355	-2.06954	0	
2.3627	1.88284	12.8866	0	
2.3633	-14.592	10.7317	0	
2.3640	5.54392	6.76334	0	
2.3647	39.1213	10.433	0	
2.3653	44.6129	7.68076	0	
2.3660	44.0114	1.57882	0	
2.3667	51.0198	-0.554722	0	
2.3673	36.3755	-2.06954	0	
2.3680	9.83262	-1.77084	0	
2.3687	-3.29497	-1.47215	0	
2.3693	-23.1433	-5.44054	0	
2.3700	-46.6265	-9.70763	0	
2.3707	-47.5418	-8.79021	0	
2.3713	-53.661	-4.20308	0	
2.3720	-73.1955	2.19755	0	
2.3727	-63.4152	4.3311	0	
2.3733	-32.5836	1.28013	0	
2.3740	-13.3629	1.89886	0	
2.3747	13.7814	2.79494	0	
2.3753	57.4267	-1.47215	0	
2.3760	85.1986	-4.20308	0	
2.3767	78.7917	-4.52312	0	
2.3773	58.6557	-5.44054	0	
2.3780	57.7405	2.19755	0	
2.3787	70.5543	12.5666	0	
2.3793	57.7405	8.59819	0	
2.3800	21.7311	0.362703	0	
2.3807	-1.46443	3.11498	0	
2.3813	-9.41421	4.94982	0	
2.3820	-7.26986	0.362703	0	
2.3827	4.94246	0.362703	0	
2.3833	15.3242	3.11498	0	
2.3840	19.5868	1.89886	0	
2.3847	26.9089	-0.554722	0	
2.3853	29.9686	-2.06954	0	
2.3860	24.1631	-2.98696	0	
2.3867	12.8661	-2.68827	0	
2.3873	-5.75313	-2.38957	0	
2.3880	-20.9989	-1.47215	0	
2.3887	-17.024	0.362703	0	
2.3893	-7.26986	1.28013	0	
2.3900	-6.6684	0.661399	0	
2.3907	-4.83786	-0.554722	0	
2.3913	0.366108	-0.256025	0	
2.3920	0.366108	0.981431	0	
2.3927	-2.69351	0.661399	0	
2.3933	-4.83786	-1.47215	0	
2.3940	-7.26986	-2.06954	0	
2.3947	-7.87132	-0.554722	0	
2.3953	-6.35459	-1.15211	0	
2.3960	-3.92259	-5.73924	0	
2.3967	-0.862969	-12.4599	0	
2.3973	0.679915	-15.1908	0	
2.3980	1.88284	-12.4599	0	
2.3987	11.6632	-8.17148	0	
2.3993	26.3075	-6.95536	0	
2.4000	30.8838	-7.87278	0	
2.4007	26.5951	-9.40893	0	
2.4013	25.6799	-8.79021	0	
2.4020	25.3922	-6.03793	0	
2.4027	20.8159	-4.82181	0	
2.4033	19.273	-5.12051	0	
2.4040	23.8493	-6.03793	0	
2.4047	21.4173	-8.17148	0	
2.4053	9.205	-9.0889	0	
2.4060	-5.43932	-6.95536	0	
2.4067	-17.3378	-6.35796	0	
2.4073	-18.5669	-7.87278	0	
2.4080	-4.52405	-9.0889	0	
2.4087	1.88284	-9.70763	0	
2.4093	-14.592	-7.57409	0	
2.4100	-35.957	-3.30699	0	
2.4107	-44.7959	-1.77084	0	
2.4113	-45.7112	-1.47215	0	
2.4120	-39.3043	0.661399	0	
2.4127	-27.4058	0.981431	0	
2.4133	-14.9058	-0.554722	0	
2.4140	2.51046	-1.15211	0	
2.4147	18.3577	-2.38957	0	
2.4153	22.0188	-2.68827	0	
2.4160	28.7395	0.661399	0	
2.4167	45.2144	1.57882	0	
2.4173	48.274	-1.77084	0	
2.4180	26.9089	-1.47215	0	
2.4187	-0.235355	3.11498	0	
2.4193	-14.592	4.0324	0	
2.4200	-14.2782	2.19755	0	
2.4207	-18.2531	3.41367	0	
2.4213	-32.296	4.62979	0	
2.4220	-38.389	2.49625	0	
2.4227	-33.2112	1.28013	0	
2.4233	-33.2112	2.79494	0	
2.4240	-35.3556	4.0324	0	
2.4247	-30.4654	3.71237	0	
2.4253	-23.4309	0.661399	0	
2.4260	-16.4226	-1.47215	0	
2.4267	-7.58367	1.89886	0	
2.4273	4.341	4.94982	0	
2.4280	22.3326	3.11498	0	
2.4287	38.8075	4.94982	0	
2.4293	41.2656	10.433	0	
2.4300	30.57	12.5666	0	
2.4307	17.1548	12.5666	0	
2.4313	6.17154	9.51561	0	
2.4320	-6.35459	4.0324	0	
2.4327	-23.7447	2.49625	0	
2.4333	-31.0669	2.19755	0	
2.4340	-19.7698	-0.853418	0	
2.4347	-9.1004	3.41367	0	
2.4353	-10.0157	12.2679	0	
2.4360	-7.26986	11.3505	0	
2.4367	0.0523012	7.08337	0	
2.4373	6.45919	10.7317	0	
2.4380	18.6715	12.8866	0	
2.4387	29.9686	9.51561	0	
2.4393	24.7646	5.54722	0	
2.4400	14.409	1.28013	0	
2.4407	19.273	-1.77084	0	
2.4413	36.6893	-0.554722	0	
2.4420	52.2489	1.89886	0	
2.4427	61.4016	1.28013	0	
2.4433	66.2917	-1.15211	0	
2.4440	59.571	1.28013	0	
2.4447	44.0114	7.08337	0	
2.4453	40.3503	7.08337	0	
2.4460	36.9769	1.89886	0	
2.4467	0.967571	2.19755	0	
2.4473	-46.9403	6.16595	0	
2.4480	-70.1359	4.94982	0	
2.4487	-89.0427	3.11498	0	
2.4493	-113.781	4.62979	0	
2.4500	-107.976	4.0324	0	
2.4507	-74.7122	-0.853418	0	
2.4513	-53.3472	-6.03793	0	
2.4520	-42.3639	-6.95536	0	
2.4527	-31.0669	-6.65666	0	
2.4533	-29.2363	-10.6251	0	
2.4540	-31.6684	-9.70763	0	
2.4547	-31.0669	4.0324	0	
2.4553	-38.389	15.0202	0	
2.4560	-48.457	9.51561	0	
2.4567	-51.8304	2.19755	0	
2.4573	-55.7792	-0.554722	0	
2.4580	-51.8304	-8.49151	0	
2.4587	-37.7876	-16.1083	0	
2.4593	-27.4058	-13.0573	0	
2.4600	-1.15063	-12.1399	0	
2.4607	45.5282	-13.676	0	
2.4613	66.8932	1.28013	0	
2.4620	59.571	19.2872	0	
2.4627	63.8336	10.433	0	
2.4633	66.5794	-5.44054	0	
2.4640	45.842	-1.77084	0	
2.4647	25.0784	-2.68827	0	
2.4653	25.3922	-21.6128	0	
2.4660	40.0365	-28.6322	0	
2.4667	33.0282	-23.1276	0	
2.4673	-21.9142	-23.4477	0	
2.4680	-70.7373	-6.95536	0	
2.4687	-57.6097	28.7389	0	
2.4693	-22.8295	30.8724	0	
2.4700	-3.92259	-1.77084	0	
2.4707	11.6632	-16.1083	0	
2.4713	13.7814	-10.9238	0	
2.4720	0.967571	-13.3773	0	
2.4727	3.71338	-15.5109	0	
2.4733	10.1203	-12.1399	0	
2.4740	1.28138	-11.5425	0	
2.4747	0.366108	-11.2224	0	
2.4753	1.28138	-10.3264	0	
2.4760	-21.6004	-11.2224	0	
2.4767	-44.1945	-9.70763	0	
2.4773	-39.3043	-7.27539	0	
2.4780	-26.1767	-7.87278	0	
2.4787	-16.4226	-6.95536	0	
2.4793	-3.29497	-5.44054	0	
2.4800	1.59519	-4.82181	0	
2.4807	2.79811	-3.30699	0	
2.4813	20.8159	-3.60569	0	
2.4820	34.2311	-3.90439	0	
2.4827	18.9853	1.57882	0	
2.4833	7.68827	4.62979	0	
2.4840	8.91735	3.11498	0	
2.4847	-14.592	5.24852	0	
2.4853	-38.389	6.16595	0	
2.4860	-16.7364	0.362703	0	
2.4867	15.3242	-6.65666	0	
2.4873	18.07	-12.7586	0	
2.4880	10.1203	-6.95536	0	
2.4887	-0.235355	17.1537	0	
2.4893	-8.18513	31.4911	0	
2.4900	10.1203	14.4014	0	
2.4907	41.2656	-4.20308	0	
2.4913	43.6976	-1.77084	0	
2.4920	23.8493	2.49625	0	
2.4927	14.409	-8.49151	0	
2.4933	21.4173	-25.8799	0	
2.4940	29.0533	-28.9309	0	
2.4947	29.6548	-10.3264	0	
2.4953	28.138	9.81431	0	
2.4960	15.6119	11.3505	0	
2.4967	-13.9906	2.19755	0	
2.4973	-27.4058	-1.77084	0	
2.4980	-9.41421	-3.30699	0	
2.4987	0.967571	-4.20308	0	
2.4993	-5.43932	-2.68827	0	
2.5000	-2.3797	0.362703	0	
2.5007	-2.69351	2.79494	0	
2.5013	-19.7698	5.24852	0	
2.5020	-26.4905	5.24852	0	
2.5027	-19.1684	3.11498	0	
2.5033	-17.3378	3.41367	0	
2.5040	-14.9058	5.86725	0	
2.5047	-11.5324	5.86725	0	
2.5053	-12.16	3.71237	0	
2.5060	-8.18513	1.28013	0	
2.5067	-3.29497	0.661399	0	
2.5073	0.0523012	2.79494	0	
2.5080	12.5784	4.3311	0	
2.5087	24.1631	3.11498	0	
2.5093	20.5021	2.79494	0	
2.5100	16.5272	4.0324	0	
2.5107	15.6119	3.11498	0	
2.5113	6.773	2.19755	0	
2.5120	-0.549162	3.41367	0	
2.5127	-4.21024	3.41367	0	
2.5133	-10.9309	4.0324	0	
2.5140	-10.6171	5.86725	0	
2.5147	-2.3797	3.41367	0	
2.5153	-0.549162	-0.554722	0	
2.5160	-1.15063	-1.47215	0	
2.5167	-2.98117	-2.98696	0	
2.5173	-10.0157	-5.73924	0	
2.5180	-10.9309	-6.03793	0	
2.5187	-8.18513	-2.38957	0	
2.5193	-10.9309	10.433	0	
2.5200	0.967571	21.7195	0	
2.5207	22.0188	12.2679	0	
2.5213	7.68827	-6.03793	0	
2.5220	-27.7196	-6.65666	0	
2.5227	-30.4654	0.661399	0	
2.5233	-8.49894	0.362703	0	
2.5240	2.51046	-0.554722	0	
2.5247	5.85773	0.362703	0	
2.5253	8.00208	-2.06954	0	
2.5260	1.28138	-0.853418	0	
2.5267	-4.21024	3.71237	0	
2.5273	0.967571	3.11498	0	
2.5280	8.28973	1.28013	0	
2.5287	9.51881	3.11498	0	
2.5293	7.37446	3.11498	0	
2.5300	4.62865	1.57882	0	
2.5307	3.71338	2.19755	0	
2.5313	4.02719	0.661399	0	
2.5320	4.62865	-4.52312	0	
2.5327	8.28973	-7.27539	0	
2.5333	13.7814	-7.87278	0	
2.5340	16.5272	-11.5425	0	
2.5347	18.6715	-10.3264	0	
2.5353	20.1882	2.49625	0	
2.5360	12.8661	13.1853	0	
2.5367	0.967571	9.51561	0	
2.5373	-8.78659	-0.554722	0	
2.5380	-18.5669	-6.03793	0	
2.5387	-26.1767	-7.57409	0	
2.5393	-24.66	-4.20308	0	
2.5400	-19.7698	0.661399	0	
2.5407	-18.8546	3.41367	0	
2.5413	-17.024	2.79494	0	
2.5420	-4.21024	0.981431	0	
2.5427	22.3326	2.79494	0	
2.5433	43.0962	10.433	0	
2.5440	35.774	17.1537	0	
2.5447	14.6966	15.3189	0	
2.5453	7.68827	8.91822	0	
2.5460	12.8661	3.41367	0	
2.5467	26.3075	-0.256025	0	
2.5473	44.9267	-0.853418	0	
2.5480	46.4434	2.19755	0	
2.5487	25.6799	4.94982	0	
2.5493	11.3494	3.71237	0	
2.5500	16.5272	1.89886	0	
2.5507	22.6464	1.57882	0	
2.5513	17.4424	-0.256025	0	
2.5520	10.1203	-4.82181	0	
2.5527	8.00208	-6.03793	0	
2.5533	3.11192	-2.98696	0	
2.5540	-4.83786	-1.47215	0	
2.5547	-5.43932	-2.38957	0	
2.5553	-1.15063	-1.77084	0	
2.5560	-2.98117	-1.47215	0	
2.5567	-8.18513	-2.06954	0	
2.5573	-10.9309	-2.06954	0	
2.5580	-10.9309	-2.06954	0	
2.5587	-8.49894	-2.68827	0	
2.5593	-8.18513	-3.60569	0	
2.5600	-8.18513	-4.82181	0	
2.5607	-6.6684	-4.82181	0	
2.5613	-11.2447	-2.68827	0	
2.5620	-17.024	-0.853418	0	
2.5627	-10.6171	1.28013	0	
2.5633	-1.77824	3.71237	0	
2.5640	-0.235355	1.89886	0	
2.5647	3.71338	0.661399	0	
2.5653	17.1548	4.62979	0	
2.5660	32.1129	5.54722	0	
2.5667	43.0962	0.981431	0	
2.5673	50.1045	0.362703	0	
2.5680	61.4016	2.19755	0	
2.5687	64.1474	0.661399	0	
2.5693	34.8587	-0.853418	0	
2.5700	-7.26986	0.0640064	0	
2.5707	-34.728	0.0640064	0	
2.5713	-62.4999	1.28013	0	
2.5720	-88.4413	6.46464	0	
2.5727	-74.1107	8.29949	0	
2.5733	-27.4058	5.24852	0	
2.5740	9.51881	5.24852	0	
2.5747	22.3326	5.86725	0	
2.5753	22.3326	1.89886	0	
2.5760	22.0188	1.28013	0	
2.5767	22.0188	6.46464	0	
2.5773	15.6119	6.76334	0	
2.5780	11.9508	4.94982	0	
2.5787	6.45919	7.68076	0	
2.5793	-28.3211	7.68076	0	
2.5800	-84.1787	4.94982	0	
2.5807	-106.145	6.76334	0	
2.5813	-78.0595	7.68076	0	
2.5820	-46.3388	2.79494	0	
2.5827	-42.9654	-0.853418	0	
2.5833	-46.3388	-0.554722	0	
2.5840	-44.1945	0.0640064	0	
2.5847	-51.2028	0.362703	0	
2.5853	-42.6777	-0.554722	0	
2.5860	-3.92259	-2.38957	0	
2.5867	10.4341	-0.554722	0	
2.5873	-10.3295	1.89886	0	
2.5880	-6.35459	-0.554722	0	
2.5887	16.5272	-4.82181	0	
2.5893	11.6632	-9.70763	0	
2.5900	-0.549162	-14.5934	0	
2.5907	0.967571	-16.4283	0	
2.5913	-6.6684	-14.8921	0	
2.5920	-20.3975	-8.17148	0	
2.5927	-23.7447	2.19755	0	
2.5933	-21.6004	3.11498	0	
2.5940	-3.60878	-4.82181	0	
2.5947	31.7991	2.19755	0	
2.5953	48.5878	19.2872	0	
2.5960	38.8075	17.1537	0	
2.5967	34.5449	5.24852	0	
2.5973	36.6893	7.68076	0	
2.5980	25.9937	15.0202	0	
2.5987	13.1799	9.51561	0	
2.5993	10.1203	-4.20308	0	
2.6000	1.28138	-11.8412	0	
2.6007	-14.9058	-8.79021	0	
2.6013	-13.0753	-11.5425	0	
2.6020	2.19665	-18.2418	0	
2.6027	2.79811	-2.06954	0	
2.6033	1.28138	23.2556	0	
2.6040	13.7814	18.6685	0	
2.6047	10.1203	4.0324	0	
2.6053	-5.75313	4.0324	0	
2.6060	4.62865	-1.77084	0	
2.6067	23.2479	-13.0573	0	
2.6073	18.6715	-11.2224	0	
2.6080	19.273	-9.70763	0	
2.6087	34.2311	-10.6251	0	
2.6093	32.1129	4.0324	0	
2.6100	13.7814	15.0202	0	
2.6107	-1.77824	0.362703	0	
2.6113	-8.18513	-15.1908	0	
2.6120	-3.29497	-12.7586	0	
2.6127	-2.69351	-4.52312	0	
2.6133	-18.2531	-1.15211	0	
2.6140	-26.4905	0.362703	0	
2.6147	-13.6768	-1.47215	0	
2.6153	0.366108	-4.20308	0	
2.6160	3.71338	-3.60569	0	
2.6167	1.28138	-4.20308	0	
2.6173	-0.862969	-7.27539	0	
2.6180	0.366108	-6.03793	0	
2.6187	0.967571	-3.90439	0	
2.6193	-2.69351	-9.70763	0	
2.6200	-3.92259	-16.1083	0	
2.6207	-1.77824	-16.1083	0	
2.6213	-6.35459	-17.0257	0	
2.6220	-16.4226	-17.0257	0	
2.6227	-18.2531	-3.90439	0	
2.6233	-13.6768	11.3505	0	
2.6240	-13.9906	13.7827	0	
2.6247	-17.3378	10.433	0	
2.6253	-16.1088	5.24852	0	
2.6260	-14.592	-3.30699	0	
2.6267	-15.1935	-9.40893	0	
2.6273	-11.8462	-10.3264	0	
2.6280	-8.18513	-10.6251	0	
2.6287	-9.1004	-9.70763	0	
2.6293	-7.26986	-6.95536	0	
2.6300	3.71338	-4.52312	0	
2.6307	15.9257	-2.98696	0	
2.6313	25.3922	-1.47215	0	
2.6320	32.4006	-1.47215	0	
2.6327	29.6548	-5.12051	0	
2.6333	16.841	-8.17148	0	
2.6340	4.94246	-6.95536	0	
2.6347	-1.15063	-8.79021	0	
2.6353	-7.87132	-14.2948	0	
2.6360	-20.3975	-10.6251	0	
2.6367	-33.8127	-2.06954	0	
2.6373	-33.8127	-0.256025	0	
2.6380	-18.2531	-0.256025	0	
2.6387	-5.75313	4.62979	0	
2.6393	0.679915	4.62979	0	
2.6400	8.60354	-0.256025	0	
2.6407	14.409	0.0640064	0	
2.6413	16.5272	1.28013	0	
2.6420	20.1882	-1.15211	0	
2.6427	22.3326	-2.98696	0	
2.6433	20.1882	-3.30699	0	
2.6440	15.6119	-5.12051	0	
2.6447	6.45919	-6.95536	0	
2.6453	-2.3797	-6.03793	0	
2.6460	-3.60878	-0.554722	0	
2.6467	-10.0157	4.94982	0	
2.6473	-30.4654	2.79494	0	
2.6480	-46.025	-2.38957	0	
2.6487	-42.3639	-0.554722	0	
2.6493	-23.4309	3.11498	0	
2.6500	7.37446	0.661399	0	
2.6507	35.774	0.362703	0	
2.6513	35.1464	8.29949	0	
2.6520	14.0952	14.1027	0	
2.6527	4.62865	9.51561	0	
2.6533	5.54392	3.71237	0	
2.6540	0.366108	4.0324	0	
2.6547	-1.77824	3.11498	0	
2.6553	-1.15063	-3.30699	0	
2.6560	-18.5669	-5.44054	0	
2.6567	-37.4738	-1.47215	0	
2.6573	-31.0669	0.0640064	0	
2.6580	-17.9393	-6.95536	0	
2.6587	-12.7615	-15.5109	0	
2.6593	0.967571	-11.5425	0	
2.6600	23.5617	2.79494	0	
2.6607	42.4685	8.00079	0	
2.6613	54.0794	0.661399	0	
2.6620	41.5533	-4.20308	0	
2.6627	8.28973	-2.38957	0	
2.6633	-12.7615	-0.554722	0	
2.6640	-19.1684	0.661399	0	
2.6647	-28.3211	-0.853418	0	
2.6653	-32.8974	-4.20308	0	
2.6660	-28.9225	-2.98696	0	
2.6667	-27.4058	-0.554722	0	
2.6673	-25.5753	-2.06954	0	
2.6680	-13.9906	-1.47215	0	
2.6687	3.11192	0.661399	0	
2.6693	22.3326	0.0640064	0	
2.6700	41.8671	-0.554722	0	
2.6707	46.7572	-2.06954	0	
2.6713	17.1548	-5.12051	0	
2.6720	-35.6432	-5.12051	0	
2.6727	-67.7038	-4.20308	0	
2.6733	-61.2708	-5.73924	0	
2.6740	-41.1349	-6.65666	0	
2.6747	-24.0585	-5.12051	0	
2.6753	-8.78659	-1.77084	0	
2.6760	14.6966	3.41367	0	
2.6767	54.0794	5.24852	0	
2.6773	76.0459	4.0324	0	
2.6780	49.1892	4.94982	0	
2.6787	17.1548	4.3311	0	
2.6793	26.5951	3.11498	0	
2.6800	45.2144	3.11498	0	
2.6807	39.7227	-0.256025	0	
2.6813	27.8242	1.28013	0	
2.6820	22.9341	17.7511	0	
2.6827	21.1035	23.853	0	
2.6833	20.1882	3.11498	0	
2.6840	19.273	-10.6251	0	
2.6847	20.1882	-2.06954	0	
2.6853	20.1882	4.62979	0	
2.6860	13.7814	3.71237	0	
2.6867	12.8661	8.29949	0	
2.6873	21.1035	11.6492	0	
2.6880	22.0188	6.16595	0	
2.6887	19.273	-1.47215	0	
2.6893	24.4769	-7.87278	0	
2.6900	23.2479	-15.1908	0	
2.6907	5.85773	-17.0257	0	
2.6913	-17.6516	-11.2224	0	
2.6920	-38.389	-5.12051	0	
2.6927	-42.0501	-4.20308	0	
2.6933	-24.66	-3.60569	0	
2.6940	-16.4226	-3.30699	0	
2.6947	-27.7196	-4.20308	0	
2.6953	-30.1516	-4.20308	0	
2.6960	-19.4822	-4.20308	0	
2.6967	-15.1935	-6.95536	0	
2.6973	-4.52405	-6.95536	0	
2.6980	15.9257	-0.256025	0	
2.6987	13.4937	5.54722	0	
2.6993	-6.04078	5.54722	0	
2.7000	-6.04078	3.71237	0	
2.7007	4.02719	3.41367	0	
2.7013	2.51046	3.71237	0	
2.7020	-0.862969	2.19755	0	
2.7027	-5.12551	0.362703	0	
2.7033	-15.5073	-0.554722	0	
2.7040	-24.66	-2.38957	0	
2.7047	-35.957	-3.30699	0	
2.7053	-46.6265	-0.256025	0	
2.7060	-36.2709	3.71237	0	
2.7067	-15.8211	4.3311	0	
2.7073	-10.6171	4.0324	0	
2.7080	-14.592	4.3311	0	
2.7087	-20.9989	2.79494	0	
2.7093	-27.092	0.0640064	0	
2.7100	-17.3378	2.19755	0	
2.7107	-4.52405	8.91822	0	
2.7113	-13.0753	10.7317	0	
2.7120	-25.8891	5.54722	0	
2.7127	-31.9822	2.19755	0	
2.7133	-36.5585	2.19755	0	
2.7140	-19.7698	1.89886	0	
2.7147	12.8661	1.57882	0	
2.7153	18.3577	1.28013	0	
2.7160	0.967571	0.362703	0	
2.7167	0.366108	2.49625	0	
2.7173	12.5784	4.94982	0	
2.7180	16.5272	2.79494	0	
2.7187	11.9508	0.362703	0	
2.7193	7.37446	1.28013	0	
2.7200	7.08681	2.19755	0	
2.7207	7.37446	4.0324	0	
2.7213	7.08681	7.08337	0	
2.7220	7.37446	4.3311	0	
2.7227	0.967571	1.28013	0	
2.7233	-8.18513	3.41367	0	
2.7240	-7.58367	0.362703	0	
2.7247	-2.0659	-0.853418	0	
2.7253	-3.60878	11.3505	0	
2.7260	-3.60878	20.8021	0	
2.7267	3.11192	14.7001	0	
2.7273	14.6966	6.46464	0	
2.7280	31.7991	3.11498	0	
2.7287	46.1296	0.981431	0	
2.7293	41.5533	0.362703	0	
2.7300	25.9937	-2.06954	0	
2.7307	12.8661	-8.49151	0	
2.7313	-3.60878	-17.6444	0	
2.7320	-16.7364	-24.3651	0	
2.7327	-9.70186	-22.5302	0	
2.7333	3.42573	-17.0257	0	
2.7340	0.967571	-12.4599	0	
2.7347	-3.60878	5.24852	0	
2.7353	2.79811	26.6053	0	
2.7360	8.91735	16.8337	0	
2.7367	11.9508	-5.44054	0	
2.7373	19.9006	-5.12051	0	
2.7380	23.5617	2.19755	0	
2.7387	16.5272	-2.38957	0	
2.7393	11.3494	-5.12051	0	
2.7400	17.1548	-2.38957	0	
2.7407	28.4518	-2.98696	0	
2.7413	34.5449	-3.60569	0	
2.7420	36.0616	-4.20308	0	
2.7427	40.9518	-6.03793	0	
2.7433	41.5533	-6.03793	0	
2.7440	24.7646	-3.90439	0	
2.7447	2.79811	-2.38957	0	
2.7453	-6.35459	-3.30699	0	
2.7460	-7.26986	-4.82181	0	
2.7467	-14.592	-4.20308	0	
2.7473	-29.2363	-2.68827	0	
2.7480	-42.0501	0.0640064	0	
2.7487	-42.6777	3.11498	0	
2.7493	-34.1265	2.19755	0	
2.7500	-27.092	-4.82181	0	
2.7507	-18.8546	-10.6251	0	
2.7513	-6.04078	-9.0889	0	
2.7520	2.79811	-6.03793	0	
2.7527	8.28973	-6.65666	0	
2.7533	18.07	-9.40893	0	
2.7540	27.2228	-12.4599	0	
2.7547	30.8838	-13.3773	0	
2.7553	36.6893	-11.2224	0	
2.7560	38.8075	-11.8412	0	
2.7567	26.5951	-14.2948	0	
2.7573	8.28973	-6.03793	0	
2.7580	-3.60878	5.86725	0	
2.7587	-12.16	4.3311	0	
2.7593	-14.2782	-2.98696	0	
2.7600	-6.04078	-3.30699	0	
2.7607	-7.26986	1.89886	0	
2.7613	-23.1433	12.5666	0	
2.7620	-26.4905	16.8337	0	
2.7627	-18.2531	-0.256025	0	
2.7633	-20.3975	-16.1083	0	
2.7640	-19.4822	-11.2224	0	
2.7647	-17.3378	-6.03793	0	
2.7653	-38.7029	-6.65666	0	
2.7660	-49.6861	0.0640064	0	
2.7667	-24.0585	5.86725	0	
2.7673	-16.7364	4.94982	0	
2.7680	-36.2709	6.16595	0	
2.7687	-23.4309	9.81431	0	
2.7693	6.773	9.81431	0	
2.7700	8.00208	8.29949	0	
2.7707	2.51046	5.86725	0	
2.7713	10.1203	4.94982	0	
2.7720	12.8661	4.62979	0	
2.7727	12.8661	2.19755	0	
2.7733	13.7814	3.41367	0	
2.7740	6.45919	8.91822	0	
2.7747	1.88284	12.5666	0	
2.7753	6.45919	14.7001	0	
2.7760	8.00208	14.1027	0	
2.7767	6.45919	7.68076	0	
2.7773	9.51881	3.11498	0	
2.7780	9.205	2.49625	0	
2.7787	1.59519	-3.30699	0	
2.7793	-3.29497	-11.5425	0	
2.7800	-1.77824	-13.3773	0	
2.7807	0.967571	-12.4599	0	
2.7813	1.59519	-11.2224	0	
2.7820	2.51046	-3.60569	0	
2.7827	3.42573	8.00079	0	
2.7833	3.42573	13.1853	0	
2.7840	3.11192	11.6492	0	
2.7847	3.71338	8.59819	0	
2.7853	3.11192	5.86725	0	
2.7860	1.59519	4.62979	0	
2.7867	0.0523012	5.54722	0	
2.7873	-3.60878	6.16595	0	
2.7880	-7.58367	2.49625	0	
2.7887	-7.26986	-4.52312	0	
2.7893	-5.12551	-11.5425	0	
2.7900	-11.2447	-10.0063	0	
2.7907	-20.6851	-2.68827	0	
2.7913	-24.66	0.362703	0	
2.7920	-29.8378	-0.554722	0	
2.7927	-31.9822	1.57882	0	
2.7933	-19.1684	1.89886	0	
2.7940	-6.6684	-3.30699	0	
2.7947	-9.70186	-6.95536	0	
2.7953	-8.78659	-9.0889	0	
2.7960	3.11192	-8.79021	0	
2.7967	15.9257	-2.38957	0	
2.7973	28.4518	6.16595	0	
2.7980	31.7991	11.3505	0	
2.7987	17.4424	16.8337	0	
2.7993	1.28138	18.6685	0	
2.8000	-7.58367	12.8866	0	
2.8007	-8.18513	5.24852	0	
2.8013	2.19665	0.661399	0	
2.8020	5.25627	-3.90439	0	
2.8027	-1.15063	-8.49151	0	
2.8033	15.6119	-11.5425	0	
2.8040	43.0962	-7.87278	0	
2.8047	33.3158	1.28013	0	
2.8053	7.68827	7.68076	0	
2.8060	9.51881	7.38207	0	
2.8067	23.8493	5.24852	0	
2.8073	23.8493	3.71237	0	
2.8080	13.7814	0.661399	0	
2.8087	0.967571	-4.20308	0	
2.8093	-16.4226	-7.27539	0	
2.8100	-35.6432	-5.73924	0	
2.8107	-45.7112	-4.52312	0	
2.8113	-36.2709	-5.44054	0	
2.8120	-16.4226	1.89886	0	
2.8127	-10.9309	13.484	0	
2.8133	-20.6851	11.9692	0	
2.8140	-22.5156	2.79494	0	
2.8147	-11.8462	0.362703	0	
2.8153	-8.49894	0.362703	0	
2.8160	-11.2447	0.0640064	0	
2.8167	-6.35459	4.0324	0	
2.8173	1.28138	5.86725	0	
2.8180	6.773	3.41367	0	
2.8187	10.7479	3.71237	0	
2.8193	2.19665	5.86725	0	
2.8200	-20.6851	4.3311	0	
2.8207	-35.6432	1.89886	0	
2.8213	-29.2363	3.11498	0	
2.8220	-9.70186	3.41367	0	
2.8227	7.08681	-0.554722	0	
2.8233	11.9508	-1.77084	0	
2.8240	8.91735	2.19755	0	
2.8247	5.85773	4.0324	0	
2.8253	4.94246	-1.15211	0	
2.8260	11.9508	-5.12051	0	
2.8267	24.4769	-4.82181	0	
2.8273	29.9686	-3.30699	0	
2.8280	26.5951	-2.38957	0	
2.8287	14.6966	-2.98696	0	
2.8293	-3.60878	-3.60569	0	
2.8300	-9.70186	-4.20308	0	
2.8307	5.54392	-4.20308	0	
2.8313	18.07	-4.52312	0	
2.8320	15.0104	-4.82181	0	
2.8327	2.79811	-7.27539	0	
2.8333	-19.1684	-8.79021	0	
2.8340	-43.2792	-4.82181	0	
2.8347	-43.8807	-2.06954	0	
2.8353	-21.3127	-4.52312	0	
2.8360	-4.52405	-3.90439	0	
2.8367	-3.60878	2.49625	0	
2.8373	-6.35459	4.0324	0	
2.8380	0.0523012	0.362703	0	
2.8387	14.6966	-2.98696	0	
2.8393	32.4006	-8.17148	0	
2.8400	41.5533	-12.1399	0	
2.8407	32.7144	-13.0573	0	
2.8413	6.45919	-13.676	0	
2.8420	-16.4226	-1.47215	0	
2.8427	-17.024	19.5859	0	
2.8433	-3.60878	16.535	0	
2.8440	3.71338	-4.20308	0	
2.8447	8.60354	-6.35796	0	
2.8453	17.1548	5.24852	0	
2.8460	11.9508	6.76334	0	
2.8467	-10.0157	2.19755	0	
2.8473	-24.0585	0.362703	0	
2.8480	-18.8546	-0.554722	0	
2.8487	-3.92259	0.0640064	0	
2.8493	10.1203	1.28013	0	
2.8500	11.6632	3.11498	0	
2.8507	0.967571	4.94982	0	
2.8513	-4.21024	4.62979	0	
2.8520	2.19665	2.49625	0	
2.8527	15.9257	1.89886	0	
2.8533	30.2824	1.28013	0	
2.8540	28.138	-0.554722	0	
2.8547	10.4341	-2.38957	0	
2.8553	1.88284	-4.82181	0	
2.8560	-4.21024	-4.20308	0	
2.8567	-23.1433	0.362703	0	
2.8573	-31.0669	2.79494	0	
2.8580	-20.0836	3.11498	0	
2.8587	-11.2447	2.19755	0	
2.8593	-4.83786	-1.15211	0	
2.8600	-0.235355	-1.47215	0	
2.8607	-8.18513	2.19755	0	
2.8613	-10.0157	2.19755	0	
2.8620	9.83262	-0.554722	0	
2.8627	29.6548	-0.554722	0	
2.8633	30.8838	-1.77084	0	
2.8640	15.0104	-5.44054	0	
2.8647	-2.98117	-6.35796	0	
2.8653	-11.8462	-5.12051	0	
2.8660	-27.7196	-4.52312	0	
2.8667	-55.7792	-3.30699	0	
2.8673	-61.2708	-2.38957	0	
2.8680	-39.9319	-2.38957	0	
2.8687	-24.66	1.28013	0	
2.8693	-12.7615	3.11498	0	
2.8700	11.0355	-1.77084	0	
2.8707	31.4853	-5.12051	0	
2.8713	43.0962	-2.68827	0	
2.8720	52.8503	-1.77084	0	
2.8727	52.2489	-3.60569	0	
2.8733	42.7823	-2.68827	0	
2.8740	37.6045	-0.554722	0	
2.8747	35.1464	-0.554722	0	
2.8753	27.8242	-1.15211	0	
2.8760	11.9508	0.362703	0	
2.8767	-10.9309	2.19755	0	
2.8773	-22.8295	1.28013	0	
2.8780	-16.4226	0.362703	0	
2.8787	-7.87132	4.0324	0	
2.8793	-4.52405	7.38207	0	
2.8800	0.0523012	8.59819	0	
2.8807	3.11192	12.2679	0	
2.8813	3.71338	14.1027	0	
2.8820	8.00208	9.51561	0	
2.8827	12.5784	0.661399	0	
2.8833	10.1203	-15.8096	0	
2.8840	2.51046	-29.2296	0	
2.8847	-3.60878	-28.6322	0	
2.8853	-5.12551	-28.0134	0	
2.8860	-4.21024	-22.5302	0	
2.8867	-9.41421	8.59819	0	
2.8873	-22.5156	32.4085	0	
2.8880	-27.7196	17.1537	0	
2.8887	-19.4822	-1.15211	0	
2.8893	-11.8462	4.0324	0	
2.8900	-7.58367	6.76334	0	
2.8907	4.02719	1.28013	0	
2.8913	16.5272	1.57882	0	
2.8920	30.57	4.0324	0	
2.8927	53.4518	4.3311	0	
2.8933	44.6129	4.62979	0	
2.8940	-18.2531	4.3311	0	
2.8947	-60.6693	3.71237	0	
2.8953	-34.728	1.89886	0	
2.8960	-0.549162	-1.15211	0	
2.8967	3.71338	0.362703	0	
2.8973	5.25627	4.0324	0	
2.8980	8.91735	-0.554722	0	
2.8987	6.45919	-9.40893	0	
2.8993	4.62865	-11.8412	0	
2.9000	2.19665	-9.40893	0	
2.9007	-3.92259	-8.79021	0	
2.9013	-8.18513	-9.40893	0	
2.9020	-17.6516	-7.87278	0	
2.9027	-35.6432	-5.12051	0	
2.9033	-40.2196	-4.20308	0	
2.9040	-23.4309	-6.35796	0	
2.9047	-7.87132	-6.65666	0	
2.9053	-1.46443	-6.03793	0	
2.9060	5.54392	-11.2224	0	
2.9067	11.0355	-17.0257	0	
2.9073	16.5272	-16.1083	0	
2.9080	34.8587	-15.1908	0	
2.9087	45.842	-17.0257	0	
2.9093	32.7144	-17.6444	0	
2.9100	22.9341	-17.9431	0	
2.9107	22.3326	-11.5425	0	
2.9113	0.967571	4.94982	0	
2.9120	-21.9142	12.2679	0	
2.9127	-18.5669	6.76334	0	
2.9133	-10.0157	4.94982	0	
2.9140	-4.83786	4.94982	0	
2.9147	7.37446	0.0640064	0	
2.9153	1.88284	-0.554722	0	
2.9160	-23.7447	1.89886	0	
2.9167	-33.4989	0.0640064	0	
2.9173	-27.7196	0.0640064	0	
2.9180	-30.7531	2.19755	0	
2.9187	-23.7447	2.79494	0	
2.9193	2.19665	4.62979	0	
2.9200	14.6966	4.0324	0	
2.9207	0.967571	-0.554722	0	
2.9213	-11.8462	-1.77084	0	
2.9220	-9.41421	-6.03793	0	
2.9227	-5.43932	-14.5934	0	
2.9233	-4.52405	-8.17148	0	
2.9240	-3.60878	7.68076	0	
2.9247	-5.75313	5.54722	0	
2.9253	-0.862969	-4.20308	0	
2.9260	23.5617	7.08337	0	
2.9267	44.9267	25.0905	0	
2.9273	38.206	19.2872	0	
2.9280	19.273	4.0324	0	
2.9287	9.205	2.49625	0	
2.9293	1.88284	4.0324	0	
2.9300	-0.235355	-0.256025	0	
2.9307	3.42573	-1.77084	0	
2.9313	0.366108	-0.554722	0	
2.9320	-9.1004	-0.853418	0	
2.9327	-10.6171	0.362703	0	
2.9333	-10.0157	1.28013	0	
2.9340	-12.16	1.28013	0	
2.9347	-0.862969	2.79494	0	
2.9353	18.3577	2.19755	0	
2.9360	16.5272	-0.256025	0	
2.9367	0.0523012	1.89886	0	
2.9373	0.0523012	4.0324	0	
2.9380	19.5868	1.89886	0	
2.9387	42.1809	-0.256025	0	
2.9393	51.935	0.362703	0	
2.9400	39.4351	2.19755	0	
2.9407	15.6119	6.76334	0	
2.9413	4.62865	10.1343	0	
2.9420	4.62865	9.51561	0	
2.9427	-6.35459	8.59819	0	
2.9433	-22.8295	10.433	0	
2.9440	-19.1684	9.51561	0	
2.9447	1.28138	3.11498	0	
2.9453	13.1799	-2.68827	0	
2.9460	18.07	-2.68827	0	
