0.0000	-8.84511	5.48359	1
0.0007	-11.5801	9.14681	0	
0.0013	-10.3581	11.5964	0	
0.0020	-9.74707	9.7536	0	
0.0027	-8.84511	8.54002	0	
0.0033	-5.79005	9.14681	0	
0.0040	-3.34601	8.83218	0	
0.0047	-4.85899	8.83218	0	
0.0053	-5.47	7.93323	0	
0.0060	-0.611011	5.19143	0	
0.0067	3.98612	5.19143	0	
0.0073	4.88808	5.79822	0	
0.0080	4.88808	3.66322	0	
0.0087	2.15308	6.09038	0	
0.0093	-2.12399	10.9897	0	
0.0100	0	9.7536	0	
0.0107	6.11011	6.69717	0	
0.0113	7.65218	7.01181	0	
0.0120	7.65218	4.56217	0	
0.0127	10.3872	-0.314632	0	
0.0133	15.8863	-0.314632	0	
0.0140	25.9534	0	0	
0.0147	31.1324	-0.314632	0	
0.0153	24.7314	1.52821	0	
0.0160	15.8863	2.135	0	
0.0167	13.1222	-0.314632	0	
0.0173	14.6643	-1.23606	0	
0.0180	10.9982	-0.314632	0	
0.0187	-2.735	-0.314632	0	
0.0193	-16.7591	-0.314632	0	
0.0200	-21.9673	-0.921423	0	
0.0207	-30.8124	-1.52821	0	
0.0213	-38.1445	0.292159	0	
0.0220	-21.6472	1.82037	0	
0.0227	2.7641	0	0	
0.0233	10.0962	-2.135	0	
0.0240	8.55415	-3.05643	0	
0.0247	10.3872	-2.135	0	
0.0253	18.3303	-2.44964	0	
0.0260	32.0635	-3.37106	0	
0.0267	33.8965	-3.05643	0	
0.0273	17.1083	-1.23606	0	
0.0280	1.22202	0.292159	0	
0.0287	-10.6781	-0.314632	0	
0.0293	-22.5783	-2.76427	0	
0.0300	-19.8142	-4.58464	0	
0.0307	-7.01207	-3.97785	0	
0.0313	-5.79005	-2.44964	0	
0.0320	-9.13606	-3.97785	0	
0.0327	-7.91404	-5.19143	0	
0.0333	-9.13606	-4.58464	0	
0.0340	-8.84511	-3.97785	0	
0.0347	-3.95702	-5.79822	0	
0.0353	-4.85899	-7.32644	0	
0.0360	-5.17904	-4.58464	0	
0.0367	3.05505	-2.76427	0	
0.0373	11.2891	-2.76427	0	
0.0380	18.0103	-1.23606	0	
0.0387	28.6884	-1.84285	0	
0.0393	33.5765	-6.11286	0	
0.0400	25.9534	-5.79822	0	
0.0407	15.2753	-0.629265	0	
0.0413	7.65218	1.52821	0	
0.0420	4.88808	0.606791	0	
0.0427	2.15308	-0.921423	0	
0.0433	-11.5801	-3.97785	0	
0.0440	-23.4803	-4.89927	0	
0.0447	-17.6902	-3.97785	0	
0.0453	-9.74707	-3.66322	0	
0.0460	-10.0671	-3.05643	0	
0.0467	-4.56803	-0.921423	0	
0.0473	0.320053	-0.629265	0	
0.0480	-7.30303	-2.135	0	
0.0487	-11.5801	-3.97785	0	
0.0493	-7.91404	-4.89927	0	
0.0500	-7.30303	-3.97785	0	
0.0507	-1.51298	-2.135	0	
0.0513	12.8312	-3.05643	0	
0.0520	23.2184	-5.79822	0	
0.0527	27.7864	-4.89927	0	
0.0533	27.7864	-1.52821	0	
0.0540	20.4543	0.292159	0	
0.0547	17.7193	-0.921423	0	
0.0553	17.1083	-1.23606	0	
0.0560	1.22202	1.21358	0	
0.0567	-19.8142	3.34859	0	
0.0573	-32.6454	2.7418	0	
0.0580	-51.2667	1.21358	0	
0.0587	-72.9139	0.898949	0	
0.0593	-79.9551	3.34859	0	
0.0600	-71.4009	3.95538	0	
0.0607	-52.7797	1.21358	0	
0.0613	-33.2564	0.606791	0	
0.0620	-27.4664	1.82037	0	
0.0627	-27.7573	-0.629265	0	
0.0633	-15.2462	-3.66322	0	
0.0640	7.33213	-2.44964	0	
0.0647	31.4525	-1.23606	0	
0.0653	48.5317	-0.314632	0	
0.0660	52.4887	1.52821	0	
0.0667	56.4748	0.292159	0	
0.0673	66.2219	-1.52821	0	
0.0680	69.597	-0.314632	0	
0.0687	74.165	-0.314632	0	
0.0693	84.5522	-1.84285	0	
0.0700	72.6521	0.292159	0	
0.0707	36.3406	1.21358	0	
0.0713	7.65218	-1.23606	0	
0.0720	-11.5801	-2.135	0	
0.0727	-32.0344	-0.629265	0	
0.0733	-41.4905	-0.629265	0	
0.0740	-35.9914	-0.629265	0	
0.0747	-28.0774	-2.135	0	
0.0753	-17.9812	-3.97785	0	
0.0760	-7.91404	-3.05643	0	
0.0767	-7.62308	0	0	
0.0773	-13.1222	-0.314632	0	
0.0780	-16.7591	-1.23606	0	
0.0787	-25.3133	0.606791	0	
0.0793	-38.7555	4.27001	0	
0.0800	-41.8106	5.19143	0	
0.0807	-31.4234	3.34859	0	
0.0813	-15.8572	2.42716	0	
0.0820	0.611011	4.27001	0	
0.0827	14.0532	4.8768	0	
0.0833	19.5523	1.21358	0	
0.0840	20.7744	-1.23606	0	
0.0847	23.5094	0.606791	0	
0.0853	23.2184	3.03395	0	
0.0860	17.3993	3.95538	0	
0.0867	12.2202	2.7418	0	
0.0873	10.6781	0.898949	0	
0.0880	10.9982	1.52821	0	
0.0887	13.1222	3.34859	0	
0.0893	14.9552	1.52821	0	
0.0900	10.0962	0.606791	0	
0.0907	0.320053	5.48359	0	
0.0913	-6.40106	8.22539	0	
0.0920	-5.17904	5.79822	0	
0.0927	-2.44404	6.09038	0	
0.0933	-5.17904	7.93323	0	
0.0940	-11.5801	4.27001	0	
0.0947	-17.3702	-1.23606	0	
0.0953	-19.8142	-3.37106	0	
0.0960	-16.7591	-2.76427	0	
0.0967	-9.45612	0	0	
0.0973	-6.08101	0.292159	0	
0.0980	-6.69202	-3.97785	0	
0.0987	-3.34601	-5.79822	0	
0.0993	-0.611011	-2.135	0	
0.1000	-3.63697	-1.52821	0	
0.1007	-3.05505	-3.05643	0	
0.1013	1.22202	-0.921423	0	
0.1020	-2.735	-0.314632	0	
0.1027	-14.6352	-2.76427	0	
0.1033	-22.5783	-2.76427	0	
0.1040	-19.2032	-3.66322	0	
0.1047	-8.52505	-8.56249	0	
0.1053	-4.56803	-8.85465	0	
0.1060	-14.9552	-3.97785	0	
0.1067	-28.3683	-3.97785	0	
0.1073	-37.8245	-4.89927	0	
0.1080	-43.0326	-0.921423	0	
0.1087	-36.3115	2.42716	0	
0.1093	-18.9122	1.82037	0	
0.1100	-5.47	1.52821	0	
0.1107	-0.901968	2.135	0	
0.1113	-7.01207	0	0	
0.1120	-17.3702	-3.05643	0	
0.1127	-11.2891	-3.05643	0	
0.1133	14.3442	-1.23606	0	
0.1140	25.9534	-1.84285	0	
0.1147	7.04117	-3.37106	0	
0.1153	-12.5112	-1.84285	0	
0.1160	-8.84511	1.21358	0	
0.1167	3.05505	1.21358	0	
0.1173	10.3872	-0.921423	0	
0.1180	25.3424	-3.37106	0	
0.1187	38.4646	-3.97785	0	
0.1193	28.0774	-2.135	0	
0.1200	15.8863	-0.314632	0	
0.1207	25.9534	-0.921423	0	
0.1213	40.5886	-0.921423	0	
0.1220	45.1857	1.52821	0	
0.1227	42.4216	4.27001	0	
0.1233	28.6884	5.19143	0	
0.1240	11.2891	4.27001	0	
0.1247	1.22202	4.56217	0	
0.1253	-12.8021	6.40501	0	
0.1260	-33.8674	6.40501	0	
0.1267	-44.5456	4.27001	0	
0.1273	-38.7555	2.42716	0	
0.1280	-31.1033	0.898949	0	
0.1287	-30.4923	0.606791	0	
0.1293	-23.4803	0.898949	0	
0.1300	0.320053	-0.314632	0	
0.1307	26.8554	-1.84285	0	
0.1313	46.4077	0	0	
0.1320	58.5988	1.52821	0	
0.1327	49.4628	0.292159	0	
0.1333	25.3424	-0.921423	0	
0.1340	17.7193	0.606791	0	
0.1347	21.9964	2.135	0	
0.1353	20.4543	0.898949	0	
0.1360	22.2873	0	0	
0.1367	25.0223	1.52821	0	
0.1373	15.5662	4.56217	0	
0.1380	2.7641	7.01181	0	
0.1387	-9.13606	5.79822	0	
0.1393	-22.2582	1.82037	0	
0.1400	-24.4113	0.606791	0	
0.1407	-20.4252	1.82037	0	
0.1413	-23.8003	-0.314632	0	
0.1420	-23.8003	-1.23606	0	
0.1427	-19.8142	4.27001	0	
0.1433	-28.3683	11.5964	0	
0.1440	-39.0465	12.4954	0	
0.1447	-32.6454	9.7536	0	
0.1453	-14.6352	10.675	0	
0.1460	5.81915	9.46144	0	
0.1467	22.6074	1.52821	0	
0.1473	25.9534	-1.52821	0	
0.1480	14.3442	3.03395	0	
0.1487	-0.901968	-0.921423	0	
0.1493	-5.17904	-14.9675	0	
0.1500	-1.51298	-27.4629	0	
0.1507	-9.13606	-32.3622	0	
0.1513	-32.6454	-29.6204	0	
0.1520	-61.9448	-20.1589	0	
0.1527	-93.3682	-14.9675	0	
0.1533	-111.99	-14.9675	0	
0.1540	-98.5473	-12.2257	0	
0.1547	-64.0688	-9.77608	0	
0.1553	-22.5783	-11.3043	0	
0.1560	23.2184	-7.64107	0	
0.1567	60.7519	-0.314632	0	
0.1573	87.6073	3.03395	0	
0.1580	104.977	1.52821	0	
0.1587	99.1874	3.34859	0	
0.1593	83.9412	6.40501	0	
0.1600	85.4542	6.09038	0	
0.1607	79.3441	3.34859	0	
0.1613	57.3768	1.21358	0	
0.1620	51.2667	-2.135	0	
0.1627	43.9637	-5.50607	0	
0.1633	6.72112	-3.97785	0	
0.1640	-21.9673	0.898949	0	
0.1647	-17.9812	4.56217	0	
0.1653	-8.52505	4.56217	0	
0.1660	-2.44404	2.42716	0	
0.1667	3.05505	3.03395	0	
0.1673	-0.611011	6.40501	0	
0.1680	-8.84511	7.01181	0	
0.1687	-8.84511	4.27001	0	
0.1693	-5.17904	1.21358	0	
0.1700	-4.24798	-1.23606	0	
0.1707	-11.2891	0.606791	0	
0.1713	-23.4803	4.8768	0	
0.1720	-25.9243	3.66322	0	
0.1727	-20.7453	1.82037	0	
0.1733	-26.8554	4.27001	0	
0.1740	-38.1445	5.19143	0	
0.1747	-39.9775	3.34859	0	
0.1753	-36.6024	4.56217	0	
0.1760	-32.0344	4.8768	0	
0.1767	-19.2032	2.42716	0	
0.1773	-1.22202	1.21358	0	
0.1780	20.4543	-1.23606	0	
0.1787	52.8088	-2.76427	0	
0.1793	78.7331	-0.314632	0	
0.1800	76.3181	1.21358	0	
0.1807	59.8208	0.292159	0	
0.1813	48.8517	-0.629265	0	
0.1820	31.4525	-3.97785	0	
0.1827	0	-4.89927	0	
0.1833	-40.5886	-0.314632	0	
0.1840	-80.8571	2.7418	0	
0.1847	-104.977	0.898949	0	
0.1853	-106.81	-0.314632	0	
0.1860	-97.6453	-2.76427	0	
0.1867	-76.289	-3.97785	0	
0.1873	-44.5456	0.606791	0	
0.1880	-17.6902	5.19143	0	
0.1887	3.37511	3.95538	0	
0.1893	21.0653	1.82037	0	
0.1900	26.8554	2.135	0	
0.1907	28.6884	2.7418	0	
0.1913	36.0205	3.03395	0	
0.1920	34.1875	3.66322	0	
0.1927	24.4113	5.19143	0	
0.1933	25.0223	3.34859	0	
0.1940	30.5214	-3.05643	0	
0.1947	31.4525	-6.71965	0	
0.1953	35.1186	-3.97785	0	
0.1960	38.7555	-0.314632	0	
0.1967	31.4525	2.7418	0	
0.1973	17.7193	5.19143	0	
0.1980	11.6092	4.27001	0	
0.1987	14.3442	7.6186	0	
0.1993	22.8983	20.1365	0	
0.2000	29.0085	22.8783	0	
0.2007	15.2753	8.83218	0	
0.2013	-17.3702	-0.921423	0	
0.2020	-49.7246	1.82037	0	
0.2027	-73.5249	1.21358	0	
0.2033	-88.4801	-3.97785	0	
0.2040	-83.9121	-4.27001	0	
0.2047	-63.7779	-2.76427	0	
0.2053	-40.2685	-3.37106	0	
0.2060	-16.7591	-3.05643	0	
0.2067	-2.44404	0.292159	0	
0.2073	-10.6781	4.56217	0	
0.2080	-28.0774	5.79822	0	
0.2087	-21.6472	0.606791	0	
0.2093	13.7332	-6.71965	0	
0.2100	45.1857	-9.77608	0	
0.2107	41.5196	-8.85465	0	
0.2113	12.8312	-8.56249	0	
0.2120	-9.13606	-12.5179	0	
0.2127	-13.7332	-18.6307	0	
0.2133	-7.30303	-15.2597	0	
0.2140	3.37511	-2.76427	0	
0.2147	18.9413	2.42716	0	
0.2153	36.9516	-4.89927	0	
0.2160	44.5747	-7.03428	0	
0.2167	37.8536	0.292159	0	
0.2173	34.1875	3.34859	0	
0.2180	35.4095	-0.314632	0	
0.2187	29.6195	-1.23606	0	
0.2193	22.2873	0.606791	0	
0.2200	13.1222	-0.921423	0	
0.2207	-5.79005	-4.27001	0	
0.2213	-18.5922	-5.79822	0	
0.2220	-15.2462	-6.71965	0	
0.2227	-14.3442	-7.64107	0	
0.2233	-16.7591	-6.11286	0	
0.2240	-9.74707	-4.89927	0	
0.2247	-3.05505	-5.79822	0	
0.2253	-6.40106	-4.89927	0	
0.2260	-9.74707	-3.05643	0	
0.2267	-8.23409	-1.84285	0	
0.2273	-7.30303	-0.314632	0	
0.2280	-5.17904	-2.44964	0	
0.2287	-0.611011	-5.79822	0	
0.2293	4.88808	-2.76427	0	
0.2300	13.4422	-1.23606	0	
0.2307	25.0223	-7.32644	0	
0.2313	34.1875	-10.0682	0	
0.2320	33.8965	-5.50607	0	
0.2327	25.3424	-2.135	0	
0.2333	8.26319	1.52821	0	
0.2340	-14.3442	5.19143	0	
0.2347	-29.9104	3.34859	0	
0.2353	-40.8795	-0.314632	0	
0.2360	-66.5129	1.52821	0	
0.2367	-89.4112	4.8768	0	
0.2373	-77.191	5.48359	0	
0.2380	-50.6557	2.7418	0	
0.2387	-42.1015	-0.629265	0	
0.2393	-35.3804	-0.629265	0	
0.2400	-9.74707	2.42716	0	
0.2407	22.6074	3.66322	0	
0.2413	51.8777	0.606791	0	
0.2420	75.3871	-2.76427	0	
0.2427	89.1203	-0.629265	0	
0.2433	92.7863	3.03395	0	
0.2440	85.1632	3.66322	0	
0.2447	62.5849	3.03395	0	
0.2453	33.2855	3.66322	0	
0.2460	2.15308	5.19143	0	
0.2467	-29.9104	5.19143	0	
0.2473	-49.1136	0.292159	0	
0.2480	-52.1687	-4.27001	0	
0.2487	-62.8468	-4.58464	0	
0.2493	-85.1341	-2.135	0	
0.2500	-86.9672	-0.314632	0	
0.2507	-59.7917	0.292159	0	
0.2513	-26.2444	-1.23606	0	
0.2520	5.81915	-0.314632	0	
0.2527	42.1306	3.34859	0	
0.2533	73.2631	1.52821	0	
0.2540	88.2183	-0.629265	0	
0.2547	86.6762	5.48359	0	
0.2553	73.554	10.9897	0	
0.2560	60.4319	7.01181	0	
0.2567	57.9878	3.03395	0	
0.2573	58.5988	5.19143	0	
0.2580	52.4887	6.40501	0	
0.2587	44.5747	4.27001	0	
0.2593	37.8536	3.34859	0	
0.2600	29.0085	5.48359	0	
0.2607	21.0653	7.93323	0	
0.2613	18.6213	6.09038	0	
0.2620	15.8863	2.7418	0	
0.2627	7.65218	1.52821	0	
0.2633	-2.44404	1.52821	0	
0.2640	-8.23409	1.21358	0	
0.2647	-13.7332	1.52821	0	
0.2653	-19.8142	1.52821	0	
0.2660	-17.9812	0.606791	0	
0.2667	-7.62308	0.606791	0	
0.2673	0	-0.629265	0	
0.2680	2.15308	-2.135	0	
0.2687	3.98612	-3.97785	0	
0.2693	4.88808	-5.19143	0	
0.2700	5.20814	-5.50607	0	
0.2707	7.94314	-6.11286	0	
0.2713	8.8742	-6.71965	0	
0.2720	5.81915	-4.89927	0	
0.2727	-0.611011	-3.97785	0	
0.2733	-15.8572	-4.89927	0	
0.2740	-31.7144	-3.66322	0	
0.2747	-35.3804	-1.23606	0	
0.2753	-33.5474	-2.76427	0	
0.2760	-40.2685	-3.97785	0	
0.2767	-50.9466	-3.97785	0	
0.2773	-58.5697	-4.89927	0	
0.2780	-66.2219	-4.89927	0	
0.2787	-71.6919	-3.97785	0	
0.2793	-68.6659	-5.19143	0	
0.2800	-63.1669	-6.42749	0	
0.2807	-56.4457	-4.89927	0	
0.2813	-34.1584	-3.66322	0	
0.2820	-5.17904	-1.23606	0	
0.2827	5.20814	3.34859	0	
0.2833	0.931064	4.56217	0	
0.2840	-2.44404	2.42716	0	
0.2847	-1.83303	3.03395	0	
0.2853	5.81915	3.66322	0	
0.2860	14.3442	0.606791	0	
0.2867	18.0103	-2.135	0	
0.2873	28.0774	-3.97785	0	
0.2880	29.0085	-6.71965	0	
0.2887	-2.44404	-5.79822	0	
0.2893	-24.0913	-2.135	0	
0.2900	9.48521	-4.27001	0	
0.2907	54.6418	-8.85465	0	
0.2913	57.9878	-5.79822	0	
0.2920	31.4525	-1.52821	0	
0.2927	10.3872	-4.58464	0	
0.2933	3.66606	-9.16928	0	
0.2940	-9.74707	-8.56249	0	
0.2947	-39.0465	-5.50607	0	
0.2953	-54.9328	-5.79822	0	
0.2960	-48.2116	-8.24786	0	
0.2967	-44.2255	-7.03428	0	
0.2973	-42.7125	-2.135	0	
0.2980	-27.4664	-1.23606	0	
0.2987	-11.2891	-3.37106	0	
0.2993	-12.5112	-2.135	0	
0.3000	-28.0774	2.7418	0	
0.3007	-40.2685	4.56217	0	
0.3013	-38.7555	2.42716	0	
0.3020	-33.8674	-0.314632	0	
0.3027	-30.8124	-0.314632	0	
0.3033	-19.8142	0.606791	0	
0.3040	-7.91404	-1.23606	0	
0.3047	3.05505	-2.135	0	
0.3053	26.8554	0.606791	0	
0.3060	45.1857	-0.314632	0	
0.3067	36.9516	-0.314632	0	
0.3073	21.9964	7.32644	0	
0.3080	14.9552	12.2032	0	
0.3087	4.88808	9.7536	0	
0.3093	1.83303	9.7536	0	
0.3100	20.4543	7.93323	0	
0.3107	47.0187	-1.52821	0	
0.3113	65.6109	-7.64107	0	
0.3120	80.5661	-4.27001	0	
0.3127	87.2872	0.292159	0	
0.3133	75.3871	3.03395	0	
0.3140	51.2667	2.135	0	
0.3147	30.2305	0.292159	0	
0.3153	18.9413	2.42716	0	
0.3160	14.0532	5.19143	0	
0.3167	8.8742	5.19143	0	
0.3173	3.05505	7.01181	0	
0.3180	1.22202	8.22539	0	
0.3187	0	9.14681	0	
0.3193	-3.34601	12.4954	0	
0.3200	-4.85899	13.4168	0	
0.3207	-4.85899	10.675	0	
0.3213	-6.40106	11.5964	0	
0.3220	-6.08101	11.5964	0	
0.3227	-4.24798	6.09038	0	
0.3233	-3.34601	4.27001	0	
0.3240	2.44404	7.01181	0	
0.3247	5.4991	6.69717	0	
0.3253	0	4.8768	0	
0.3260	-2.735	7.01181	0	
0.3267	0.320053	7.32644	0	
0.3273	4.88808	1.52821	0	
0.3280	15.8863	-3.66322	0	
0.3287	17.1083	-3.97785	0	
0.3293	-8.84511	-2.76427	0	
0.3300	-35.3804	-3.97785	0	
0.3307	-32.6454	-4.89927	0	
0.3313	-22.5783	-4.89927	0	
0.3320	-30.8124	-3.37106	0	
0.3327	-41.1996	-1.84285	0	
0.3333	-32.6454	-1.23606	0	
0.3340	-14.9552	0.292159	0	
0.3347	-9.74707	3.95538	0	
0.3353	-6.08101	6.40501	0	
0.3360	18.3303	5.79822	0	
0.3367	41.5196	3.34859	0	
0.3373	35.1186	-1.23606	0	
0.3380	24.1204	-6.42749	0	
0.3387	32.0635	-8.24786	0	
0.3393	34.7985	-5.50607	0	
0.3400	24.1204	-3.05643	0	
0.3407	22.2873	-4.27001	0	
0.3413	25.9534	-6.42749	0	
0.3420	20.4543	-4.27001	0	
0.3427	14.0532	-1.23606	0	
0.3433	7.04117	-1.52821	0	
0.3440	-4.24798	-3.05643	0	
0.3447	-10.6781	-3.66322	0	
0.3453	-12.5112	-3.97785	0	
0.3460	-17.6902	-3.05643	0	
0.3467	-15.2462	-2.135	0	
0.3473	-2.735	-4.89927	0	
0.3480	1.83303	-7.32644	0	
0.3487	0.931064	-6.11286	0	
0.3493	4.59713	-5.79822	0	
0.3500	2.7641	-6.42749	0	
0.3507	-13.4131	-5.19143	0	
0.3513	-33.5474	-5.19143	0	
0.3520	-45.4475	-6.71965	0	
0.3527	-43.6436	-6.71965	0	
0.3533	-36.6024	-6.71965	0	
0.3540	-36.9225	-8.85465	0	
0.3547	-35.9914	-9.46144	0	
0.3553	-23.8003	-6.71965	0	
0.3560	-13.7332	-6.11286	0	
0.3567	-12.5112	-8.85465	0	
0.3573	-7.91404	-7.64107	0	
0.3580	3.37511	-2.135	0	
0.3587	16.4973	0.606791	0	
0.3593	30.8415	-3.05643	0	
0.3600	32.6745	-8.56249	0	
0.3607	4.88808	-9.46144	0	
0.3613	-35.7005	-7.93323	0	
0.3620	-57.6678	-9.46144	0	
0.3627	-47.6006	-9.77608	0	
0.3633	-14.6352	0.292159	0	
0.3640	13.7332	13.4168	0	
0.3647	14.0532	14.3382	0	
0.3653	1.83303	6.09038	0	
0.3660	3.05505	0.292159	0	
0.3667	5.4991	-1.84285	0	
0.3673	-3.34601	-3.05643	0	
0.3680	-8.84511	-3.97785	0	
0.3687	-6.08101	-3.66322	0	
0.3693	-2.735	-3.66322	0	
0.3700	1.22202	-6.11286	0	
0.3707	-0.290957	-7.64107	0	
0.3713	-9.13606	-4.89927	0	
0.3720	-8.23409	-4.89927	0	
0.3727	-1.83303	-6.11286	0	
0.3733	-3.34601	-3.66322	0	
0.3740	3.66606	-2.44964	0	
0.3747	21.3854	-4.89927	0	
0.3753	25.9534	-4.89927	0	
0.3760	29.2994	-3.97785	0	
0.3767	36.9516	-3.66322	0	
0.3773	23.2184	-2.44964	0	
0.3780	3.37511	-1.23606	0	
0.3787	14.6643	2.135	0	
0.3793	30.8415	5.79822	0	
0.3800	20.7744	2.135	0	
0.3807	3.37511	-3.66322	0	
0.3813	-8.23409	-1.52821	0	
0.3820	-18.9122	1.52821	0	
0.3827	-21.0362	0.898949	0	
0.3833	-15.8572	3.34859	0	
0.3840	-15.2462	6.09038	0	
0.3847	-23.4803	6.69717	0	
0.3853	-31.7144	8.22539	0	
0.3860	-32.6454	8.22539	0	
0.3867	-34.4785	5.48359	0	
0.3873	-40.8795	3.95538	0	
0.3880	-37.8245	1.52821	0	
0.3887	-29.9104	-1.23606	0	
0.3893	-28.9794	-0.629265	0	
0.3900	-12.8021	1.52821	0	
0.3907	16.4973	1.52821	0	
0.3913	20.4543	3.34859	0	
0.3920	7.65218	6.40501	0	
0.3927	10.6781	7.01181	0	
0.3933	14.9552	6.09038	0	
0.3940	6.72112	5.19143	0	
0.3947	5.4991	4.8768	0	
0.3953	16.7882	4.56217	0	
0.3960	21.9964	5.19143	0	
0.3967	2.7641	6.40501	0	
0.3973	-28.9794	6.40501	0	
0.3980	-41.4905	3.03395	0	
0.3987	-29.5904	0.606791	0	
0.3993	-11.5801	1.21358	0	
0.4000	4.27707	1.21358	0	
0.4007	12.5112	1.52821	0	
0.4013	15.8863	2.7418	0	
0.4020	25.9534	4.27001	0	
0.4027	21.9964	4.56217	0	
0.4033	-9.13606	4.8768	0	
0.4040	-33.8674	7.01181	0	
0.4047	-38.7555	8.83218	0	
0.4053	-48.2116	6.69717	0	
0.4060	-60.7228	2.42716	0	
0.4067	-69.277	0.898949	0	
0.4073	-75.358	-0.314632	0	
0.4080	-56.4457	-2.76427	0	
0.4087	-7.01207	-4.58464	0	
0.4093	38.7555	-8.85465	0	
0.4100	63.4869	-11.9111	0	
0.4107	65.9309	-5.79822	0	
0.4113	49.7537	2.42716	0	
0.4120	41.5196	5.48359	0	
0.4127	52.4887	6.09038	0	
0.4133	56.1548	4.27001	0	
0.4140	46.4077	1.21358	0	
0.4147	35.4095	1.21358	0	
0.4153	16.7882	2.7418	0	
0.4160	4.88808	1.21358	0	
0.4167	20.7744	-0.314632	0	
0.4173	34.1875	0.606791	0	
0.4180	26.2444	-1.23606	0	
0.4187	31.7435	-3.97785	0	
0.4193	53.0997	-3.05643	0	
0.4200	53.4198	0.606791	0	
0.4207	36.9516	-0.921423	0	
0.4213	27.1754	-4.58464	0	
0.4220	18.9413	-3.97785	0	
0.4227	4.59713	-0.314632	0	
0.4233	-2.12399	0.606791	0	
0.4240	2.7641	0.292159	0	
0.4247	4.59713	2.42716	0	
0.4253	2.15308	4.8768	0	
0.4260	5.81915	5.79822	0	
0.4267	0.931064	4.27001	0	
0.4273	-17.6902	0.898949	0	
0.4280	-16.1772	-1.23606	0	
0.4287	8.8742	-0.921423	0	
0.4293	24.1204	-1.23606	0	
0.4300	26.2444	-1.84285	0	
0.4307	23.2184	2.135	0	
0.4313	6.72112	6.69717	0	
0.4320	-10.0671	4.8768	0	
0.4327	-17.0792	3.66322	0	
0.4333	-25.9243	8.22539	0	
0.4340	-27.4664	10.9897	0	
0.4347	-17.3702	9.7536	0	
0.4353	-17.3702	9.14681	0	
0.4360	-21.3563	5.79822	0	
0.4367	-14.9552	-2.135	0	
0.4373	-20.7453	-4.89927	0	
0.4380	-39.9775	-2.135	0	
0.4387	-41.1996	-2.44964	0	
0.4393	-24.7023	-5.19143	0	
0.4400	-10.9691	-5.19143	0	
0.4407	-1.22202	-3.05643	0	
0.4413	1.22202	-1.23606	0	
0.4420	-3.05505	-0.314632	0	
0.4427	1.22202	-0.314632	0	
0.4433	11.6092	-0.921423	0	
0.4440	18.0103	-1.23606	0	
0.4447	24.4113	-2.44964	0	
0.4453	19.8433	-3.97785	0	
0.4460	-4.24798	-3.05643	0	
0.4467	-21.6472	0.292159	0	
0.4473	-29.9104	0.898949	0	
0.4480	-54.6127	0.898949	0	
0.4487	-76.9	6.69717	0	
0.4493	-69.277	14.3382	0	
0.4500	-47.8916	13.4168	0	
0.4507	-25.3133	8.83218	0	
0.4513	-3.63697	7.32644	0	
0.4520	1.22202	6.09038	0	
0.4527	-0.290957	2.135	0	
0.4533	14.9552	-1.23606	0	
0.4540	28.6884	-2.135	0	
0.4547	19.5523	-1.52821	0	
0.4553	2.44404	0	0	
0.4560	-2.12399	-1.23606	0	
0.4567	13.4422	-4.58464	0	
0.4573	36.0205	-8.56249	0	
0.4580	45.1857	-11.5964	0	
0.4587	47.6297	-3.97785	0	
0.4593	51.5867	12.4954	0	
0.4600	40.2976	15.2597	0	
0.4607	7.04117	3.95538	0	
0.4613	-37.2135	2.42716	0	
0.4620	-75.358	8.54002	0	
0.4627	-73.5249	4.27001	0	
0.4633	-36.3115	-1.23606	0	
0.4640	-9.45612	-1.52821	0	
0.4647	1.83303	-5.50607	0	
0.4653	20.4543	-8.24786	0	
0.4660	39.6866	-3.05643	0	
0.4667	53.4198	-1.52821	0	
0.4673	61.3629	-3.97785	0	
0.4680	44.5747	-1.23606	0	
0.4687	17.1083	2.135	0	
0.4693	9.16516	-1.52821	0	
0.4700	6.11011	-4.89927	0	
0.4707	-4.56803	-5.79822	0	
0.4713	-6.08101	-8.24786	0	
0.4720	-6.08101	-12.5179	0	
0.4727	-17.0792	-14.9675	0	
0.4733	-18.3012	-14.9675	0	
0.4740	-8.84511	-12.2257	0	
0.4747	-15.8572	-7.64107	0	
0.4753	-26.2444	-3.66322	0	
0.4760	-11.5801	-2.76427	0	
0.4767	9.48521	-4.89927	0	
0.4773	19.2323	-6.11286	0	
0.4780	25.3424	-5.19143	0	
0.4787	27.4664	-4.89927	0	
0.4793	25.9534	-3.05643	0	
0.4800	22.2873	-2.135	0	
0.4807	-0.901968	-5.50607	0	
0.4813	-30.2014	-7.64107	0	
0.4820	-27.1463	-4.89927	0	
0.4827	-14.9552	-5.79822	0	
0.4833	-25.3133	-7.03428	0	
0.4840	-25.3133	-2.44964	0	
0.4847	-6.69202	-1.23606	0	
0.4853	1.22202	-5.79822	0	
0.4860	3.37511	-8.24786	0	
0.4867	-0.611011	-6.71965	0	
0.4873	-24.4113	-4.89927	0	
0.4880	-34.7694	-2.135	0	
0.4887	-12.8021	-0.314632	0	
0.4893	3.05505	-1.23606	0	
0.4900	-2.12399	0.898949	0	
0.4907	-8.52505	2.7418	0	
0.4913	-12.8021	1.52821	0	
0.4920	-17.6902	1.52821	0	
0.4927	-18.3012	2.7418	0	
0.4933	-13.4131	2.42716	0	
0.4940	-2.12399	0.292159	0	
0.4947	6.72112	-1.23606	0	
0.4953	7.33213	-1.52821	0	
0.4960	11.2891	-0.629265	0	
0.4967	25.0223	-0.629265	0	
0.4973	31.4525	-0.921423	0	
0.4980	26.5644	0.292159	0	
0.4987	25.3424	0.606791	0	
0.4993	25.9534	0.292159	0	
0.5000	22.2873	3.34859	0	
0.5007	23.8003	7.01181	0	
0.5013	20.4543	6.40501	0	
0.5020	-6.69202	4.27001	0	
0.5027	-38.1445	4.56217	0	
0.5033	-57.3477	6.09038	0	
0.5040	-80.5661	10.675	0	
0.5047	-91.5352	15.5518	0	
0.5053	-61.0138	11.5964	0	
0.5060	-22.8693	2.7418	0	
0.5067	-0.611011	-0.314632	0	
0.5073	25.0223	1.52821	0	
0.5080	35.1186	4.27001	0	
0.5087	10.0962	6.69717	0	
0.5093	-1.51298	8.22539	0	
0.5100	19.5523	9.46144	0	
0.5107	33.8965	6.40501	0	
0.5113	29.6195	1.21358	0	
0.5120	25.0223	0.898949	0	
0.5127	30.5214	1.52821	0	
0.5133	46.0877	-2.44964	0	
0.5140	58.9189	-3.66322	0	
0.5147	64.7089	-2.44964	0	
0.5153	66.542	-3.97785	0	
0.5160	41.5196	-2.135	0	
0.5167	-9.74707	2.7418	0	
0.5173	-34.7694	4.56217	0	
0.5180	-16.7591	5.19143	0	
0.5187	-0.611011	5.19143	0	
0.5193	-6.08101	4.27001	0	
0.5200	-13.4131	7.6186	0	
0.5207	-8.23409	9.7536	0	
0.5213	1.22202	2.42716	0	
0.5220	4.88808	-3.37106	0	
0.5227	2.15308	-2.135	0	
0.5233	-2.735	-1.23606	0	
0.5240	-16.1772	-0.314632	0	
0.5247	-25.6333	2.42716	0	
0.5253	-5.47	0.292159	0	
0.5260	25.3424	-6.71965	0	
0.5267	32.3545	-11.5964	0	
0.5273	26.2444	-11.5964	0	
0.5280	20.7744	-10.6975	0	
0.5287	-0.611011	-11.3043	0	
0.5293	-27.1463	-5.50607	0	
0.5300	-26.5353	10.3604	0	
0.5307	-3.95702	18.9229	0	
0.5313	13.7332	9.14681	0	
0.5320	11.2891	-1.23606	0	
0.5327	-9.13606	-2.135	0	
0.5333	-24.0913	-1.52821	0	
0.5340	-13.4131	-2.135	0	
0.5347	-1.51298	-3.37106	0	
0.5353	-6.40106	-4.89927	0	
0.5360	-7.01207	-3.97785	0	
0.5367	-1.51298	-2.135	0	
0.5373	-11.9002	-4.27001	0	
0.5380	-27.1463	-5.79822	0	
0.5387	-27.1463	-3.66322	0	
0.5393	-28.6884	-2.44964	0	
0.5400	-39.9775	-5.79822	0	
0.5407	-39.9775	-9.77608	0	
0.5413	-22.2582	-7.64107	0	
0.5420	-5.47	1.52821	0	
0.5427	2.7641	8.22539	0	
0.5433	12.8312	6.40501	0	
0.5440	26.5644	3.34859	0	
0.5447	32.9655	5.19143	0	
0.5453	31.4525	7.32644	0	
0.5460	34.1875	4.56217	0	
0.5467	35.4095	0.606791	0	
0.5473	17.7193	-2.44964	0	
0.5480	0	-7.64107	0	
0.5487	2.7641	-10.3829	0	
0.5493	3.05505	-8.56249	0	
0.5500	-19.5232	-11.9111	0	
0.5507	-41.8106	-14.0461	0	
0.5513	-49.1136	-3.05643	0	
0.5520	-50.6557	3.03395	0	
0.5527	-50.9466	-9.16928	0	
0.5533	-53.0997	-21.3725	0	
0.5540	-55.5438	-19.2375	0	
0.5547	-48.2116	-10.3829	0	
0.5553	-42.1015	-5.19143	0	
0.5560	-43.0326	-3.05643	0	
0.5567	-23.4803	8.22539	0	
0.5573	7.33213	26.5415	0	
0.5580	15.5662	23.1929	0	
0.5587	22.2873	1.21358	0	
0.5593	44.2546	-2.76427	0	
0.5600	46.0877	8.83218	0	
0.5607	36.3406	8.83218	0	
0.5613	51.5867	4.27001	0	
0.5620	72.0411	5.19143	0	
0.5627	68.986	1.52821	0	
0.5633	43.0326	-3.97785	0	
0.5640	-2.735	-1.23606	0	
0.5647	-31.7144	4.27001	0	
0.5653	-10.3581	7.32644	0	
0.5660	20.1633	7.93323	0	
0.5667	23.8003	4.27001	0	
0.5673	28.0774	-0.921423	0	
0.5680	35.7296	-3.05643	0	
0.5687	18.6213	-4.27001	0	
0.5693	-9.45612	-3.97785	0	
0.5700	-25.0223	-1.23606	0	
0.5707	-36.9225	-0.314632	0	
0.5713	-59.1807	-0.314632	0	
0.5720	-89.0912	1.52821	0	
0.5727	-99.4783	-0.314632	0	
0.5733	-60.1118	-5.79822	0	
0.5740	2.15308	-7.64107	0	
0.5747	35.1186	-3.37106	0	
0.5753	44.8656	0.606791	0	
0.5760	59.2098	1.52821	0	
0.5767	55.8638	1.21358	0	
0.5773	26.8554	2.7418	0	
0.5780	14.0532	5.19143	0	
0.5787	17.1083	7.01181	0	
0.5793	-1.51298	9.7536	0	
0.5800	-29.5904	14.6304	0	
0.5807	-39.9775	16.1586	0	
0.5813	-43.3236	13.1247	0	
0.5820	-46.6696	9.7536	0	
0.5827	-50.9466	6.40501	0	
0.5833	-61.3338	1.21358	0	
0.5840	-61.9448	-2.44964	0	
0.5847	-33.5474	-3.97785	0	
0.5853	2.7641	-9.46144	0	
0.5860	20.7744	-15.2597	0	
0.5867	25.3424	-15.2597	0	
0.5873	29.9104	-11.3043	0	
0.5880	36.0205	-6.71965	0	
0.5887	50.3647	-3.37106	0	
0.5893	76.6091	-2.135	0	
0.5900	83.6212	2.135	0	
0.5907	53.0997	9.7536	0	
0.5913	33.2855	10.675	0	
0.5920	50.3647	7.01181	0	
0.5927	49.7537	10.675	0	
0.5933	11.9002	9.46144	0	
0.5940	-19.2032	1.21358	0	
0.5947	-31.7144	3.34859	0	
0.5953	-37.2135	10.3604	0	
0.5960	-32.6454	2.7418	0	
0.5967	-35.0895	-9.46144	0	
0.5973	-60.7228	-11.5964	0	
0.5980	-82.0791	-8.24786	0	
0.5987	-67.1239	-6.42749	0	
0.5993	-17.9812	-7.64107	0	
0.6000	39.6866	-8.24786	0	
0.6007	78.1221	-6.11286	0	
0.6013	85.7742	-3.97785	0	
0.6020	73.554	1.52821	0	
0.6027	52.8088	6.69717	0	
0.6033	31.4525	1.82037	0	
0.6040	18.6213	-4.89927	0	
0.6047	14.9552	-3.37106	0	
0.6053	11.2891	-3.97785	0	
0.6060	3.05505	-9.77608	0	
0.6067	-2.44404	-3.97785	0	
0.6073	4.88808	8.54002	0	
0.6080	27.1754	11.5964	0	
0.6087	51.2667	6.09038	0	
0.6093	59.5299	-0.921423	0	
0.6100	52.1978	-4.58464	0	
0.6107	45.4766	-3.05643	0	
0.6113	41.5196	-0.629265	0	
0.6120	25.9534	1.21358	0	
0.6127	-0.611011	5.19143	0	
0.6133	-12.5112	6.69717	0	
0.6140	-3.34601	1.82037	0	
0.6147	4.27707	-1.52821	0	
0.6153	2.15308	0.606791	0	
0.6160	-8.23409	5.19143	0	
0.6167	-45.7676	7.6186	0	
0.6173	-117.489	4.27001	0	
0.6180	-179.724	0.292159	0	
0.6187	-185.544	0.292159	0	
0.6193	-136.11	-1.23606	0	
0.6200	-75.067	-2.135	0	
0.6207	-38.1445	5.19143	0	
0.6213	-15.8572	8.83218	0	
0.6220	6.72112	0.292159	0	
0.6227	26.8554	-7.03428	0	
0.6233	57.3768	-5.50607	0	
0.6240	94.2993	-0.629265	0	
0.6247	96.1323	6.69717	0	
0.6253	74.4851	11.8886	0	
0.6260	70.819	9.7536	0	
0.6267	64.0979	4.56217	0	
0.6273	50.6557	2.135	0	
0.6280	71.721	2.135	0	
0.6287	100.118	3.03395	0	
0.6293	82.3991	2.42716	0	
0.6300	44.2546	1.52821	0	
0.6307	26.8554	6.09038	0	
0.6313	30.5214	7.93323	0	
0.6320	36.9516	2.42716	0	
0.6327	22.8983	-1.23606	0	
0.6333	-5.47	-2.135	0	
0.6340	-17.3702	-2.44964	0	
0.6347	-13.7332	0.606791	0	
0.6353	-15.2462	0.606791	0	
0.6360	-17.0792	-6.42749	0	
0.6367	-19.2032	-7.64107	0	
0.6373	-31.4234	-0.921423	0	
0.6380	-38.1445	-0.314632	0	
0.6387	-21.6472	-3.97785	0	
0.6393	1.22202	-1.23606	0	
0.6400	3.98612	0.898949	0	
0.6407	-11.2891	-1.23606	0	
0.6413	-25.0223	-2.135	0	
0.6420	-26.5353	-2.44964	0	
0.6427	-25.0223	-3.97785	0	
0.6433	-27.4664	-3.97785	0	
0.6440	-28.6884	-1.52821	0	
0.6447	-25.3133	-0.314632	0	
0.6453	-21.9673	-1.23606	0	
0.6460	-16.7591	-2.44964	0	
0.6467	-11.2891	-3.66322	0	
0.6473	-15.8572	-3.66322	0	
0.6480	-26.2444	-2.44964	0	
0.6487	-24.0913	-2.135	0	
0.6493	-13.4131	-3.37106	0	
0.6500	-9.13606	-3.97785	0	
0.6507	-7.30303	-5.79822	0	
0.6513	-4.24798	-9.16928	0	
0.6520	-2.44404	-9.77608	0	
0.6527	6.43016	-9.46144	0	
0.6533	21.9964	-9.46144	0	
0.6540	26.8554	-7.32644	0	
0.6547	16.1772	-4.58464	0	
0.6553	5.81915	-5.19143	0	
0.6560	2.15308	-6.71965	0	
0.6567	-1.22202	-6.42749	0	
0.6573	-5.47	-6.71965	0	
0.6580	-6.08101	-5.79822	0	
0.6587	-7.62308	-3.37106	0	
0.6593	-15.8572	-3.66322	0	
0.6600	-21.6472	-3.97785	0	
0.6607	-16.1772	-2.44964	0	
0.6613	-8.84511	-1.23606	0	
0.6620	-6.40106	-1.23606	0	
0.6627	-9.74707	-0.314632	0	
0.6633	-16.1772	-0.314632	0	
0.6640	-14.3442	-1.23606	0	
0.6647	2.7641	2.42716	0	
0.6653	18.6213	5.79822	0	
0.6660	21.3854	3.34859	0	
0.6667	27.4664	0.292159	0	
0.6673	37.8536	-0.314632	0	
0.6680	25.3424	-3.37106	0	
0.6687	-5.79005	-5.50607	0	
0.6693	-25.9243	-2.76427	0	
0.6700	-27.1463	-0.629265	0	
0.6707	-23.1893	-1.52821	0	
0.6713	-23.4803	-0.314632	0	
0.6720	-29.9104	1.52821	0	
0.6727	-32.6454	0.606791	0	
0.6733	-27.1463	1.52821	0	
0.6740	-20.1343	1.52821	0	
0.6747	-15.2462	-0.629265	0	
0.6753	-19.5232	1.52821	0	
0.6760	-35.9914	5.48359	0	
0.6767	-43.3236	3.66322	0	
0.6773	-32.6454	2.135	0	
0.6780	-27.1463	5.19143	0	
0.6787	-29.9104	6.40501	0	
0.6793	-23.8003	6.09038	0	
0.6800	-14.3442	7.32644	0	
0.6807	-10.0671	6.40501	0	
0.6813	-5.79005	3.34859	0	
0.6820	-2.44404	3.34859	0	
0.6827	-0.611011	4.8768	0	
0.6833	5.81915	4.8768	0	
0.6840	10.9982	3.34859	0	
0.6847	7.65218	3.03395	0	
0.6853	3.66606	4.56217	0	
0.6860	6.72112	4.8768	0	
0.6867	11.9002	2.42716	0	
0.6873	13.1222	2.7418	0	
0.6880	13.1222	4.8768	0	
0.6887	15.2753	3.03395	0	
0.6893	15.8863	0.606791	0	
0.6900	14.9552	0.292159	0	
0.6907	14.6643	0.606791	0	
0.6913	12.8312	1.21358	0	
0.6920	13.1222	2.7418	0	
0.6927	17.1083	3.03395	0	
0.6933	14.3442	2.42716	0	
0.6940	4.88808	1.21358	0	
0.6947	3.05505	-0.921423	0	
0.6953	3.66606	0.606791	0	
0.6960	-5.17904	3.34859	0	
0.6967	-9.74707	0.898949	0	
0.6973	-1.22202	-0.314632	0	
0.6980	4.88808	3.95538	0	
0.6987	1.83303	3.95538	0	
0.6993	-1.22202	-0.921423	0	
0.7000	1.22202	-2.44964	0	
0.7007	1.22202	-2.44964	0	
0.7013	-6.69202	-3.97785	0	
0.7020	-10.3581	-3.66322	0	
0.7027	-2.44404	-3.97785	0	
0.7033	4.59713	-5.79822	0	
0.7040	8.55415	-5.50607	0	
0.7047	13.4422	-4.27001	0	
0.7053	13.1222	-5.19143	0	
0.7060	17.1083	-4.58464	0	
0.7067	35.1186	-3.66322	0	
0.7073	42.7416	-3.37106	0	
0.7080	32.3545	-2.135	0	
0.7087	28.3974	-3.05643	0	
0.7093	22.8983	-3.97785	0	
0.7100	3.98612	0.292159	0	
0.7107	-3.34601	3.34859	0	
0.7113	4.59713	0.898949	0	
0.7120	2.7641	0.606791	0	
0.7127	-1.51298	2.42716	0	
0.7133	3.98612	0.606791	0	
0.7140	-3.63697	0.606791	0	
0.7147	-28.0774	1.52821	0	
0.7153	-36.3115	0.292159	0	
0.7160	-25.0223	0.606791	0	
0.7167	-14.0241	1.82037	0	
0.7173	-5.47	0.606791	0	
0.7180	-0.901968	1.52821	0	
0.7187	-7.91404	3.66322	0	
0.7193	-16.7591	0.606791	0	
0.7200	-17.0792	-1.84285	0	
0.7207	-15.8572	1.21358	0	
0.7213	-15.2462	1.52821	0	
0.7220	-15.2462	-0.629265	0	
0.7227	-15.8572	0.898949	0	
0.7233	-10.6781	2.7418	0	
0.7240	-3.34601	0.292159	0	
0.7247	0	-1.23606	0	
0.7253	10.3872	0.898949	0	
0.7260	26.8554	2.42716	0	
0.7267	27.7864	1.52821	0	
0.7273	18.6213	-0.314632	0	
0.7280	15.8863	-0.629265	0	
0.7287	14.9552	0.606791	0	
0.7293	13.4422	0.606791	0	
0.7300	14.6643	0.606791	0	
0.7307	9.48521	1.52821	0	
0.7313	1.83303	2.135	0	
0.7320	-0.290957	1.21358	0	
0.7327	-8.84511	0.898949	0	
0.7333	-18.9122	1.52821	0	
0.7340	-8.84511	1.82037	0	
0.7347	8.8742	2.42716	0	
0.7353	17.3993	0.606791	0	
0.7360	22.8983	-3.05643	0	
0.7367	20.7744	-0.921423	0	
0.7373	3.98612	3.66322	0	
0.7380	-11.2891	3.03395	0	
0.7387	-22.5783	-1.23606	0	
0.7393	-33.5474	-3.97785	0	
0.7400	-32.6454	-4.89927	0	
0.7407	-28.0774	-3.97785	0	
0.7413	-36.3115	-0.314632	0	
0.7420	-41.8106	1.52821	0	
0.7427	-33.5474	0.292159	0	
0.7433	-14.6352	-0.314632	0	
0.7440	18.3303	-0.314632	0	
0.7447	49.1427	1.21358	0	
0.7453	48.8517	3.66322	0	
0.7460	23.5094	2.42716	0	
0.7467	-2.12399	-1.23606	0	
0.7473	-16.1772	-1.23606	0	
0.7480	-10.3581	0.606791	0	
0.7487	4.59713	0	0	
0.7493	8.55415	0	0	
0.7500	3.37511	0.606791	0	
0.7507	1.83303	-0.629265	0	
0.7513	7.65218	-0.921423	0	
0.7520	18.0103	1.82037	0	
0.7527	21.6763	3.03395	0	
0.7533	10.3872	0.606791	0	
0.7540	-6.69202	-2.76427	0	
0.7547	-17.0792	-3.97785	0	
0.7553	-14.3442	-3.97785	0	
0.7560	-5.17904	-6.71965	0	
0.7567	5.81915	-7.93323	0	
0.7573	25.3424	-4.58464	0	
0.7580	43.3527	-2.76427	0	
0.7587	46.0877	-4.89927	0	
0.7593	51.2667	-5.19143	0	
0.7600	68.375	-3.97785	0	
0.7607	68.375	-5.79822	0	
0.7613	43.3527	-7.32644	0	
0.7620	17.3993	-7.64107	0	
0.7627	-2.44404	-9.46144	0	
0.7633	-22.5783	-9.16928	0	
0.7640	-41.8106	-4.58464	0	
0.7647	-53.0997	-2.76427	0	
0.7653	-46.9896	-4.89927	0	
0.7660	-28.3683	-5.79822	0	
0.7667	-18.9122	-4.89927	0	
0.7673	-15.2462	-4.58464	0	
0.7680	2.44404	-3.97785	0	
0.7687	21.3854	-3.37106	0	
0.7693	21.3854	-5.79822	0	
0.7700	15.2753	-6.71965	0	
0.7707	15.8863	-3.97785	0	
0.7713	14.9552	-5.19143	0	
0.7720	11.9002	-10.0682	0	
0.7727	9.16516	-10.0682	0	
0.7733	3.66606	-6.42749	0	
0.7740	-1.83303	-3.97785	0	
0.7747	-8.52505	-3.05643	0	
0.7753	-19.8142	-3.05643	0	
0.7760	-24.4113	-2.44964	0	
0.7767	-17.9812	0.606791	0	
0.7773	-9.45612	0.292159	0	
0.7780	-3.34601	-3.05643	0	
0.7787	-4.24798	-2.135	0	
0.7793	-11.2891	-0.314632	0	
0.7800	-11.9002	-0.921423	0	
0.7807	-15.2462	2.42716	0	
0.7813	-39.0465	7.32644	0	
0.7820	-55.8347	7.01181	0	
0.7827	-43.0326	7.01181	0	
0.7833	-30.8124	7.93323	0	
0.7840	-35.9914	4.27001	0	
0.7847	-35.7005	2.7418	0	
0.7853	-28.0774	5.48359	0	
0.7860	-25.9243	5.48359	0	
0.7867	-15.8572	3.66322	0	
0.7873	9.48521	4.27001	0	
0.7880	25.9534	1.52821	0	
0.7887	19.5523	-2.135	0	
0.7893	13.4422	-0.314632	0	
0.7900	23.8003	2.42716	0	
0.7907	27.7864	1.52821	0	
0.7913	14.9552	1.52821	0	
0.7920	5.4991	2.42716	0	
0.7927	5.81915	3.03395	0	
0.7933	8.8742	2.42716	0	
0.7940	16.4973	1.21358	0	
0.7947	21.6763	1.21358	0	
0.7953	19.5523	2.7418	0	
0.7960	21.0653	3.03395	0	
0.7967	21.3854	2.135	0	
0.7973	8.8742	2.42716	0	
0.7980	-1.83303	3.03395	0	
0.7987	0.320053	3.34859	0	
0.7993	2.7641	2.7418	0	
0.8000	0.931064	2.7418	0	
0.8007	3.98612	3.03395	0	
0.8013	13.1222	1.82037	0	
0.8020	21.0653	1.21358	0	
0.8027	22.2873	2.42716	0	
0.8033	15.5662	4.8768	0	
0.8040	0.320053	6.40501	0	
0.8047	-15.2462	5.79822	0	
0.8053	-20.7453	3.03395	0	
0.8060	-21.6472	1.52821	0	
0.8067	-25.9243	1.52821	0	
0.8073	-25.9243	-0.314632	0	
0.8080	-20.7453	-1.52821	0	
0.8087	-16.1772	0.292159	0	
0.8093	1.22202	0	0	
0.8100	21.3854	-1.52821	0	
0.8107	9.77617	-2.135	0	
0.8113	-12.8021	-3.05643	0	
0.8120	-3.05505	-4.58464	0	
0.8127	15.5662	-4.89927	0	
0.8133	7.65218	-4.89927	0	
0.8140	-7.01207	-5.19143	0	
0.8147	-9.74707	-4.89927	0	
0.8153	-10.3581	-5.19143	0	
0.8160	-9.74707	-4.89927	0	
0.8167	-5.17904	-4.27001	0	
0.8173	-3.95702	-6.11286	0	
0.8180	-1.51298	-7.32644	0	
0.8187	5.81915	-4.89927	0	
0.8193	8.55415	-3.66322	0	
0.8200	5.4991	-5.19143	0	
0.8207	9.16516	-3.66322	0	
0.8213	18.0103	1.82037	0	
0.8220	16.7882	3.95538	0	
0.8227	8.26319	3.34859	0	
0.8233	5.81915	2.42716	0	
0.8240	14.0532	0.898949	0	
0.8247	25.9534	1.21358	0	
0.8253	25.9534	3.34859	0	
0.8260	10.6781	4.27001	0	
0.8267	-1.51298	5.19143	0	
0.8273	-5.79005	6.09038	0	
0.8280	-14.0241	2.42716	0	
0.8287	-16.4682	0.606791	0	
0.8293	-3.63697	4.27001	0	
0.8300	9.48521	4.56217	0	
0.8307	14.6643	2.42716	0	
0.8313	12.5112	4.56217	0	
0.8320	4.88808	7.01181	0	
0.8327	6.72112	4.56217	0	
0.8333	16.4973	2.135	0	
0.8340	7.65218	0.898949	0	
0.8347	-17.0792	0.606791	0	
0.8353	-33.8674	3.66322	0	
0.8360	-46.6696	4.8768	0	
0.8367	-58.2788	1.21358	0	
0.8373	-52.7797	-0.629265	0	
0.8380	-34.4785	0.606791	0	
0.8387	-20.7453	-1.84285	0	
0.8393	-14.0241	-4.58464	0	
0.8400	-9.74707	-2.135	0	
0.8407	-3.34601	1.52821	0	
0.8413	6.11011	1.52821	0	
0.8420	7.65218	2.42716	0	
0.8427	1.22202	3.34859	0	
0.8433	-0.611011	0.606791	0	
0.8440	2.15308	-1.23606	0	
0.8447	1.54207	2.135	0	
0.8453	4.59713	3.66322	0	
0.8460	11.2891	-1.23606	0	
0.8467	11.9002	-3.66322	0	
0.8473	12.8312	-0.629265	0	
0.8480	19.8433	-0.629265	0	
0.8487	23.2184	-3.97785	0	
0.8493	20.1633	-4.27001	0	
0.8500	17.7193	-2.44964	0	
0.8507	16.7882	-1.52821	0	
0.8513	18.6213	-2.135	0	
0.8520	19.5523	-3.37106	0	
0.8527	13.1222	-3.37106	0	
0.8533	9.16516	-2.76427	0	
0.8540	14.0532	-3.97785	0	
0.8547	7.94314	-3.97785	0	
0.8553	-15.2462	0	0	
0.8560	-30.8124	0.606791	0	
0.8567	-31.1033	-0.629265	0	
0.8573	-30.8124	0.606791	0	
0.8580	-27.1463	1.21358	0	
0.8587	-17.6902	0.606791	0	
0.8593	-6.40106	1.82037	0	
0.8600	8.55415	1.52821	0	
0.8607	25.0223	0.898949	0	
0.8613	34.5075	3.34859	0	
0.8620	38.7555	5.48359	0	
0.8627	37.5335	5.48359	0	
0.8633	21.9964	6.40501	0	
0.8640	5.4991	4.8768	0	
0.8647	6.72112	1.52821	0	
0.8653	15.8863	1.21358	0	
0.8660	12.2202	3.34859	0	
0.8667	-0.290957	5.48359	0	
0.8673	-1.51298	5.48359	0	
0.8680	13.1222	4.27001	0	
0.8687	23.8003	4.27001	0	
0.8693	18.3303	4.56217	0	
0.8700	9.48521	2.42716	0	
0.8707	5.81915	1.21358	0	
0.8713	2.44404	1.52821	0	
0.8720	-0.611011	1.21358	0	
0.8727	-0.611011	2.135	0	
0.8733	-0.611011	5.19143	0	
0.8740	-0.290957	7.6186	0	
0.8747	1.22202	7.93323	0	
0.8753	-0.611011	6.40501	0	
0.8760	-7.91404	6.09038	0	
0.8767	-13.1222	6.40501	0	
0.8773	-14.3442	1.52821	0	
0.8780	-16.1772	-3.97785	0	
0.8787	-19.8142	-3.05643	0	
0.8793	-19.8142	-2.76427	0	
0.8800	-17.6902	-6.71965	0	
0.8807	-23.4803	-5.50607	0	
0.8813	-34.4785	1.82037	0	
0.8820	-35.7005	4.27001	0	
0.8827	-23.1893	3.34859	0	
0.8833	-2.735	3.95538	0	
0.8840	18.9413	4.8768	0	
0.8847	27.1754	4.27001	0	
0.8853	20.1633	3.34859	0	
0.8860	16.4973	1.82037	0	
0.8867	18.6213	0.292159	0	
0.8873	14.3442	0.606791	0	
0.8880	8.55415	0.898949	0	
0.8887	5.20814	0.606791	0	
0.8893	-2.735	1.52821	0	
0.8900	-7.62308	1.82037	0	
0.8907	-3.95702	0.606791	0	
0.8913	-9.74707	-0.314632	0	
0.8920	-23.4803	-0.314632	0	
0.8927	-21.0362	-0.629265	0	
0.8933	-4.24798	-1.23606	0	
0.8940	8.8742	-0.314632	0	
0.8947	14.3442	0.898949	0	
0.8953	9.48521	1.21358	0	
0.8960	-0.290957	0.606791	0	
0.8967	-2.44404	-0.314632	0	
0.8973	-0.290957	-0.921423	0	
0.8980	-3.34601	-1.52821	0	
0.8987	-6.69202	-0.314632	0	
0.8993	-6.40106	1.82037	0	
0.9000	-5.17904	1.82037	0	
0.9007	-2.12399	1.52821	0	
0.9013	-0.611011	3.03395	0	
0.9020	-2.12399	2.7418	0	
0.9027	0.320053	0.606791	0	
0.9033	2.44404	0.606791	0	
0.9040	-0.290957	2.42716	0	
0.9047	-3.34601	3.34859	0	
0.9053	-4.56803	1.52821	0	
0.9060	-5.79005	-1.23606	0	
0.9067	-2.44404	-0.629265	0	
0.9073	2.15308	1.52821	0	
0.9080	2.7641	0.292159	0	
0.9087	1.54207	-3.66322	0	
0.9093	1.22202	-6.42749	0	
0.9100	0.320053	-6.11286	0	
0.9107	1.22202	-4.58464	0	
0.9113	3.05505	-5.19143	0	
0.9120	4.59713	-6.71965	0	
0.9127	5.81915	-6.11286	0	
0.9133	4.88808	-6.42749	0	
0.9140	1.83303	-8.56249	0	
0.9147	1.83303	-7.93323	0	
0.9153	2.44404	-6.11286	0	
0.9160	-0.901968	-4.89927	0	
0.9167	-3.34601	-3.05643	0	
0.9173	-1.51298	-3.97785	0	
0.9180	-1.83303	-6.42749	0	
0.9187	-3.34601	-6.11286	0	
0.9193	-1.83303	-4.58464	0	
0.9200	0	-4.89927	0	
0.9207	0	-5.79822	0	
0.9213	0.931064	-8.56249	0	
0.9220	1.83303	-9.46144	0	
0.9227	-0.611011	-5.19143	0	
0.9233	-3.95702	-2.135	0	
0.9240	-2.735	-3.37106	0	
0.9247	0.931064	-3.97785	0	
0.9253	0.611011	-4.89927	0	
0.9260	1.22202	-7.32644	0	
0.9267	7.04117	-6.71965	0	
0.9273	8.55415	-6.11286	0	
0.9280	4.88808	-9.46144	0	
0.9287	3.98612	-9.46144	0	
0.9293	4.27707	-6.11286	0	
0.9300	3.98612	-7.32644	0	
0.9307	5.20814	-8.56249	0	
0.9313	3.98612	-6.71965	0	
0.9320	1.54207	-8.24786	0	
0.9327	3.98612	-10.0682	0	
0.9333	5.81915	-9.46144	0	
0.9340	2.7641	-10.6975	0	
0.9347	1.54207	-9.77608	0	
0.9353	1.22202	-3.97785	0	
0.9360	-0.290957	-2.135	0	
0.9367	0	-4.89927	0	
0.9373	0.320053	-4.27001	0	
0.9380	-1.83303	-2.135	0	
0.9387	-2.735	-3.05643	0	
0.9393	-3.34601	-4.89927	0	
0.9400	-3.95702	-3.66322	0	
0.9407	-1.22202	0.292159	0	
0.9413	-0.611011	0.606791	0	
0.9420	-4.24798	-1.23606	0	
0.9427	-4.24798	3.95538	0	
0.9433	-2.44404	8.83218	0	
0.9440	-5.17904	3.03395	0	
0.9447	-4.24798	-0.921423	0	
0.9453	1.22202	3.66322	0	
0.9460	3.05505	2.135	0	
0.9467	4.88808	-3.97785	0	
0.9473	6.72112	-1.52821	0	
0.9480	3.05505	3.03395	0	
0.9487	0.320053	0.898949	0	
0.9493	3.37511	-0.629265	0	
0.9500	5.81915	0.606791	0	
0.9507	3.05505	1.21358	0	
0.9513	1.22202	0.898949	0	
0.9520	1.22202	0.898949	0	
0.9527	1.22202	0	0	
0.9533	2.15308	0.606791	0	
0.9540	2.15308	2.135	0	
0.9547	-1.22202	0.606791	0	
0.9553	-3.34601	-0.629265	0	
0.9560	-4.24798	0.606791	0	
0.9567	-7.01207	-0.314632	0	
0.9573	-7.30303	-1.84285	0	
0.9580	-6.69202	0.606791	0	
0.9587	-9.74707	3.34859	0	
0.9593	-11.9002	3.66322	0	
0.9600	-8.84511	3.34859	0	
0.9607	-7.62308	3.34859	0	
0.9613	-8.84511	4.56217	0	
0.9620	-9.74707	7.6186	0	
0.9627	-10.9691	7.93323	0	
0.9633	-9.74707	6.09038	0	
0.9640	-5.79005	6.09038	0	
0.9647	-4.24798	5.79822	0	
0.9653	-1.22202	5.19143	0	
0.9660	2.44404	7.01181	0	
0.9667	-1.22202	7.01181	0	
0.9673	-5.47	6.09038	0	
0.9680	-1.22202	7.01181	0	
0.9687	2.15308	7.93323	0	
0.9693	1.22202	7.32644	0	
0.9700	2.44404	6.09038	0	
0.9707	3.05505	4.27001	0	
0.9713	0.611011	2.7418	0	
0.9720	-0.611011	3.95538	0	
0.9727	-0.290957	4.56217	0	
0.9733	0.931064	2.7418	0	
0.9740	1.83303	0.606791	0	
0.9747	-1.22202	0.606791	0	
0.9753	-7.30303	1.21358	0	
0.9760	-10.6781	-0.629265	0	
0.9767	-10.9691	-2.44964	0	
0.9773	-11.9002	-1.23606	0	
0.9780	-12.5112	-0.314632	0	
0.9787	-12.8021	0.606791	0	
0.9793	-12.5112	2.42716	0	
0.9800	-10.3581	1.52821	0	
0.9807	-6.40106	0.292159	0	
0.9813	-3.34601	3.03395	0	
0.9820	-2.44404	3.66322	0	
0.9827	-2.44404	0.292159	0	
0.9833	0.611011	-0.629265	0	
0.9840	5.4991	0.292159	0	
0.9847	5.81915	-1.23606	0	
0.9853	0	-1.23606	0	
0.9860	-4.56803	0.606791	0	
0.9867	-3.34601	-0.921423	0	
0.9873	2.15308	-3.66322	0	
0.9880	7.04117	-1.23606	0	
0.9887	6.43016	2.42716	0	
0.9893	1.22202	0.606791	0	
0.9900	-3.95702	-3.05643	0	
0.9907	-7.01207	-2.44964	0	
0.9913	-11.9002	-0.629265	0	
0.9920	-16.1772	-1.23606	0	
0.9927	-14.6352	-0.314632	0	
0.9933	-10.6781	3.34859	0	
0.9940	-9.74707	4.27001	0	
0.9947	-4.24798	3.03395	0	
0.9953	8.26319	2.7418	0	
0.9960	15.5662	3.34859	0	
0.9967	14.9552	3.34859	0	
0.9973	16.1772	3.95538	0	
0.9980	15.5662	6.09038	0	
0.9987	8.55415	8.22539	0	
0.9993	4.88808	7.32644	0	
1.0000	7.65218	5.19143	0	
1.0007	10.6781	4.27001	0	
1.0013	11.2891	3.34859	0	
1.0020	7.04117	3.03395	0	
1.0027	1.54207	5.19143	0	
1.0033	0.931064	3.95538	0	
1.0040	2.15308	-0.314632	0	
1.0047	4.59713	-2.44964	0	
1.0053	7.65218	-3.97785	0	
1.0060	7.65218	-3.97785	0	
1.0067	4.88808	-0.629265	0	
1.0073	6.43016	1.52821	0	
1.0080	11.2891	0	0	
1.0087	12.5112	-1.23606	0	
1.0093	10.3872	-1.52821	0	
1.0100	9.48521	-2.76427	0	
1.0107	10.3872	-3.05643	0	
1.0113	9.77617	-2.76427	0	
1.0120	6.43016	-1.23606	0	
1.0127	3.05505	-0.314632	0	
1.0133	1.83303	-3.97785	0	
1.0140	-0.290957	-5.50607	0	
1.0147	-0.901968	-0.314632	0	
1.0153	0.611011	1.21358	0	
1.0160	-0.901968	-1.23606	0	
1.0167	-3.34601	0	0	
1.0173	-4.24798	1.52821	0	
1.0180	-7.30303	0.606791	0	
1.0187	-11.5801	1.82037	0	
1.0193	-14.3442	1.52821	0	
1.0200	-15.8572	0.606791	0	
1.0207	-13.7332	2.42716	0	
1.0213	-8.23409	2.42716	0	
1.0220	-6.08101	-1.23606	0	
1.0227	-4.24798	-1.23606	0	
1.0233	1.22202	0.292159	0	
1.0240	3.66606	0.292159	0	
1.0247	4.27707	0.606791	0	
1.0253	13.4422	0.606791	0	
1.0260	18.6213	-0.314632	0	
1.0267	11.9002	-0.314632	0	
1.0273	9.48521	-1.23606	0	
1.0280	14.3442	-3.97785	0	
1.0287	10.9982	-3.97785	0	
1.0293	3.66606	-3.05643	0	
1.0300	2.15308	-2.135	0	
1.0307	1.22202	-1.23606	0	
1.0313	-1.51298	-1.23606	0	
1.0320	0.320053	-3.05643	0	
1.0327	2.7641	-3.97785	0	
1.0333	2.44404	-3.97785	0	
1.0340	1.83303	-3.97785	0	
1.0347	2.7641	-1.84285	0	
1.0353	3.98612	-0.629265	0	
1.0360	3.66606	-1.23606	0	
1.0367	2.44404	0	0	
1.0373	2.15308	2.42716	0	
1.0380	1.83303	2.42716	0	
1.0387	0.320053	3.03395	0	
1.0393	-0.611011	3.34859	0	
1.0400	1.22202	2.42716	0	
1.0407	3.98612	3.03395	0	
1.0413	4.59713	4.27001	0	
1.0420	3.66606	5.19143	0	
1.0427	2.15308	6.09038	0	
1.0433	0.320053	7.01181	0	
1.0440	-0.611011	5.48359	0	
1.0447	1.54207	3.34859	0	
1.0453	3.37511	2.42716	0	
1.0460	2.7641	1.52821	0	
1.0467	3.66606	0.606791	0	
1.0473	6.43016	1.82037	0	
1.0480	5.81915	4.27001	0	
1.0487	3.05505	2.7418	0	
1.0493	0.611011	-0.314632	0	
1.0500	-2.44404	-0.314632	0	
1.0507	-3.05505	1.21358	0	
1.0513	-0.611011	0.292159	0	
1.0520	0.611011	0.606791	0	
1.0527	-1.22202	2.135	0	
1.0533	-2.12399	0.292159	0	
1.0540	-0.901968	-1.52821	0	
1.0547	0.931064	-0.314632	0	
1.0553	-0.290957	1.52821	0	
1.0560	-2.735	1.52821	0	
1.0567	2.7641	0.898949	0	
1.0573	13.1222	-1.23606	0	
1.0580	13.4422	-2.135	0	
1.0587	4.59713	-0.921423	0	
1.0593	-0.290957	-0.314632	0	
1.0600	-3.34601	0.898949	0	
1.0607	-7.01207	2.135	0	
1.0613	-5.79005	0.898949	0	
1.0620	-6.40106	0.292159	0	
1.0627	-14.3442	1.52821	0	
1.0633	-16.1772	2.135	0	
1.0640	-10.3581	1.52821	0	
1.0647	-9.74707	0	0	
1.0653	-5.17904	-2.76427	0	
1.0660	13.4422	-2.76427	0	
1.0667	28.6884	1.52821	0	
1.0673	27.7864	3.66322	0	
1.0680	24.4113	1.82037	0	
1.0687	21.6763	-0.921423	0	
1.0693	17.7193	-3.05643	0	
1.0700	14.9552	-3.66322	0	
1.0707	5.81915	-2.76427	0	
1.0713	-7.91404	-2.135	0	
1.0720	-12.1911	-1.23606	0	
1.0727	-14.6352	-1.23606	0	
1.0733	-26.2444	-3.66322	0	
1.0740	-24.4113	-7.32644	0	
1.0747	-9.74707	-9.46144	0	
1.0753	-10.3581	-7.93323	0	
1.0760	-20.7453	-6.71965	0	
1.0767	-22.8693	-7.64107	0	
1.0773	-25.6333	-8.24786	0	
1.0780	-27.1463	-6.71965	0	
1.0787	-18.9122	-5.50607	0	
1.0793	-15.2462	-6.11286	0	
1.0800	-20.1343	-6.42749	0	
1.0807	-16.7591	-5.79822	0	
1.0813	-6.69202	-5.79822	0	
1.0820	2.15308	-5.50607	0	
1.0827	7.94314	-4.89927	0	
1.0833	4.59713	-4.27001	0	
1.0840	-2.44404	-3.05643	0	
1.0847	-4.24798	-2.135	0	
1.0853	-7.91404	-3.97785	0	
1.0860	-16.1772	-7.64107	0	
1.0867	-23.1893	-8.24786	0	
1.0873	-34.7694	-5.50607	0	
1.0880	-43.6436	-3.97785	0	
1.0887	-36.3115	-4.89927	0	
1.0893	-26.5353	-6.11286	0	
1.0900	-24.0913	-7.03428	0	
1.0907	-18.9122	-6.71965	0	
1.0913	-14.9552	-4.89927	0	
1.0920	-12.8021	-6.42749	0	
1.0927	1.54207	-11.3043	0	
1.0933	15.8863	-9.46144	0	
1.0940	8.26319	-3.66322	0	
1.0947	-3.34601	-3.97785	0	
1.0953	-4.85899	-7.32644	0	
1.0960	-4.85899	-3.97785	0	
1.0967	-2.44404	-0.629265	0	
1.0973	3.98612	-0.314632	0	
1.0980	6.72112	0.898949	0	
1.0987	14.6643	2.135	0	
1.0993	29.2994	1.21358	0	
1.1000	30.2305	1.52821	0	
1.1007	17.3993	3.34859	0	
1.1013	9.48521	3.95538	0	
1.1020	5.20814	3.66322	0	
1.1027	-0.611011	3.34859	0	
1.1033	-3.05505	2.42716	0	
1.1040	-1.22202	1.21358	0	
1.1047	0	-0.314632	0	
1.1053	1.22202	-0.314632	0	
1.1060	2.15308	0.606791	0	
1.1067	0.931064	1.52821	0	
1.1073	3.66606	3.66322	0	
1.1080	10.9982	4.27001	0	
1.1087	10.0962	1.82037	0	
1.1093	1.22202	0	0	
1.1100	0.611011	0	0	
1.1107	7.94314	-1.23606	0	
1.1113	10.3872	-3.05643	0	
1.1120	9.77617	-2.44964	0	
1.1127	8.55415	-0.314632	0	
1.1133	-0.290957	2.135	0	
1.1140	-9.13606	0.898949	0	
1.1147	-7.01207	-1.52821	0	
1.1153	-0.611011	0.606791	0	
1.1160	6.11011	2.7418	0	
1.1167	13.1222	0.606791	0	
1.1173	13.1222	0.292159	0	
1.1180	8.26319	3.34859	0	
1.1187	3.66606	3.95538	0	
1.1193	-1.83303	2.42716	0	
1.1200	-4.24798	0.292159	0	
1.1207	-5.17904	-2.135	0	
1.1213	-15.8572	-2.76427	0	
1.1220	-25.6333	-0.629265	0	
1.1227	-25.6333	-0.314632	0	
1.1233	-29.5904	-1.23606	0	
1.1240	-31.7144	-1.23606	0	
1.1247	-15.8572	-0.629265	0	
1.1253	3.98612	0	0	
1.1260	11.9002	0.606791	0	
1.1267	14.0532	2.42716	0	
1.1273	12.8312	3.34859	0	
1.1280	9.16516	1.21358	0	
1.1287	10.3872	0	0	
1.1293	12.8312	3.34859	0	
1.1300	13.4422	5.19143	0	
1.1307	14.6643	2.42716	0	
1.1313	14.3442	0.898949	0	
1.1320	12.2202	2.42716	0	
1.1327	11.2891	2.42716	0	
1.1333	10.3872	1.82037	0	
1.1340	7.65218	1.52821	0	
1.1347	5.4991	1.82037	0	
1.1353	3.05505	2.42716	0	
1.1360	0.320053	1.52821	0	
1.1367	-2.44404	0.606791	0	
1.1373	-4.85899	2.42716	0	
1.1380	-5.17904	5.19143	0	
1.1387	-2.735	2.135	0	
1.1393	1.22202	0.292159	0	
1.1400	3.37511	5.19143	0	
1.1407	1.22202	7.93323	0	
1.1413	2.44404	3.34859	0	
1.1420	9.16516	2.42716	0	
1.1427	8.55415	4.8768	0	
1.1433	-0.901968	3.34859	0	
1.1440	-4.56803	1.52821	0	
1.1447	0.320053	2.135	0	
1.1453	3.98612	0.606791	0	
1.1460	3.98612	-1.23606	0	
1.1467	3.98612	-0.314632	0	
1.1473	3.66606	0	0	
1.1480	1.22202	-2.135	0	
1.1487	0.931064	-3.05643	0	
1.1493	3.66606	-3.05643	0	
1.1500	5.4991	-2.44964	0	
1.1507	4.88808	-2.135	0	
1.1513	4.27707	-1.23606	0	
1.1520	3.66606	-1.52821	0	
1.1527	3.98612	-3.66322	0	
1.1533	5.20814	-3.37106	0	
1.1540	4.88808	-1.52821	0	
1.1547	2.7641	-2.135	0	
1.1553	2.44404	-3.05643	0	
1.1560	3.66606	-2.135	0	
1.1567	2.44404	-2.135	0	
1.1573	-0.611011	-2.135	0	
1.1580	-3.34601	-1.52821	0	
1.1587	-3.34601	-2.44964	0	
1.1593	-1.51298	-2.135	0	
1.1600	-1.51298	0.292159	0	
1.1607	-4.85899	-1.23606	0	
1.1613	-9.13606	-4.58464	0	
1.1620	-13.7332	-3.97785	0	
1.1627	-18.9122	-2.135	0	
1.1633	-20.7453	-3.66322	0	
1.1640	-17.9812	-3.66322	0	
1.1647	-14.3442	-1.52821	0	
1.1653	-11.5801	-1.52821	0	
1.1660	-9.45612	-3.97785	0	
1.1667	-7.01207	-5.50607	0	
1.1673	-2.12399	-4.58464	0	
1.1680	8.8742	-3.66322	0	
1.1687	21.3854	-3.97785	0	
1.1693	30.8415	-4.58464	0	
1.1700	40.5886	-4.27001	0	
1.1707	43.9637	-4.27001	0	
1.1713	35.1186	-3.97785	0	
1.1720	25.9534	-3.37106	0	
1.1727	25.0223	-3.97785	0	
1.1733	23.2184	-3.97785	0	
1.1740	16.4973	-1.84285	0	
1.1747	10.3872	-0.314632	0	
1.1753	4.88808	0.292159	0	
1.1760	1.22202	0.606791	0	
1.1767	0.611011	-0.629265	0	
1.1773	-6.40106	-0.921423	0	
1.1780	-20.7453	1.82037	0	
1.1787	-26.8554	2.135	0	
1.1793	-20.7453	1.52821	0	
1.1800	-14.3442	5.19143	0	
1.1807	-10.6781	6.40501	0	
1.1813	-7.91404	3.34859	0	
1.1820	-3.05505	3.03395	0	
1.1827	3.05505	3.34859	0	
1.1833	4.59713	1.52821	0	
1.1840	-0.901968	1.21358	0	
1.1847	-7.62308	0.606791	0	
1.1853	-12.5112	-1.84285	0	
1.1860	-16.1772	-0.314632	0	
1.1867	-19.5232	3.34859	0	
1.1873	-25.0223	1.82037	0	
1.1880	-28.0774	0	0	
1.1887	-29.2994	0.898949	0	
1.1893	-36.3115	0.606791	0	
1.1900	-32.6454	0.606791	0	
1.1907	-3.05505	2.135	0	
1.1913	25.9534	3.03395	0	
1.1920	34.5075	2.42716	0	
1.1927	32.9655	2.135	0	
1.1933	25.9534	0.606791	0	
1.1940	14.9552	-0.314632	0	
1.1947	10.6781	-0.314632	0	
1.1953	8.55415	-0.921423	0	
1.1960	1.83303	-0.314632	0	
1.1967	0.320053	0.898949	0	
1.1973	-1.51298	0.606791	0	
1.1980	-10.6781	0	0	
1.1987	-14.0241	3.03395	0	
1.1993	-10.9691	3.34859	0	
1.2000	-12.1911	-0.314632	0	
1.2007	-12.5112	-1.23606	0	
1.2013	-8.84511	1.82037	0	
1.2020	-11.2891	3.34859	0	
1.2027	-15.2462	3.66322	0	
1.2033	-12.1911	2.42716	0	
1.2040	-5.17904	0.292159	0	
1.2047	0.611011	1.21358	0	
1.2053	3.37511	3.34859	0	
1.2060	3.37511	1.52821	0	
1.2067	3.66606	0	0	
1.2073	5.20814	1.21358	0	
1.2080	4.59713	2.42716	0	
1.2087	1.54207	4.27001	0	
1.2093	-3.34601	5.19143	0	
1.2100	-10.6781	4.8768	0	
1.2107	-14.3442	4.27001	0	
1.2113	-13.4131	4.27001	0	
1.2120	-16.7591	3.03395	0	
1.2127	-21.6472	1.52821	0	
1.2133	-20.7453	1.82037	0	
1.2140	-14.6352	2.42716	0	
1.2147	-3.05505	0.898949	0	
1.2153	13.1222	-0.314632	0	
1.2160	24.1204	0.292159	0	
1.2167	29.0085	-0.314632	0	
1.2173	35.4095	-2.135	0	
1.2180	42.1306	-2.135	0	
1.2187	43.6436	-0.921423	0	
1.2193	38.7555	0.898949	0	
1.2200	25.0223	4.27001	0	
1.2207	10.3872	4.8768	0	
1.2213	9.48521	1.52821	0	
1.2220	9.48521	0.292159	0	
1.2227	-4.56803	0.606791	0	
1.2233	-16.1772	1.52821	0	
1.2240	-11.9002	4.27001	0	
1.2247	-8.52505	5.19143	0	
1.2253	-8.84511	0.606791	0	
1.2260	0.320053	-1.23606	0	
1.2267	12.8312	1.21358	0	
1.2273	17.1083	0	0	
1.2280	18.0103	-1.52821	0	
1.2287	23.5094	0	0	
1.2293	28.6884	-0.921423	0	
1.2300	25.0223	-2.44964	0	
1.2307	19.5523	0	0	
1.2313	19.5523	1.21358	0	
1.2320	13.1222	0	0	
1.2327	-6.69202	2.7418	0	
1.2333	-27.1463	6.09038	0	
1.2340	-44.8365	5.19143	0	
1.2347	-61.9448	3.66322	0	
1.2353	-62.2358	4.56217	0	
1.2360	-47.2806	5.79822	0	
1.2367	-39.9775	7.6186	0	
1.2373	-36.6024	8.83218	0	
1.2380	-28.0774	7.01181	0	
1.2387	-16.1772	4.27001	0	
1.2393	3.66606	3.95538	0	
1.2400	24.4113	6.09038	0	
1.2407	26.8554	7.01181	0	
1.2413	22.6074	7.01181	0	
1.2420	27.4664	7.01181	0	
1.2427	25.0223	7.93323	0	
1.2433	14.0532	7.32644	0	
1.2440	15.2753	4.56217	0	
1.2447	21.3854	3.03395	0	
1.2453	20.1633	3.95538	0	
1.2460	18.9413	4.56217	0	
1.2467	19.8433	3.34859	0	
1.2473	14.6643	0.898949	0	
1.2480	7.33213	-0.921423	0	
1.2487	4.59713	0.606791	0	
1.2493	6.43016	2.42716	0	
1.2500	10.9982	-1.23606	0	
1.2507	18.0103	-4.89927	0	
1.2513	23.2184	-2.135	0	
1.2520	24.1204	0.292159	0	
1.2527	23.2184	-3.05643	0	
1.2533	22.2873	-3.66322	0	
1.2540	16.7882	-1.84285	0	
1.2547	11.2891	-2.135	0	
1.2553	11.6092	-3.97785	0	
1.2560	8.55415	-4.89927	0	
1.2567	-3.34601	-5.79822	0	
1.2573	-14.3442	-5.19143	0	
1.2580	-20.7453	-5.19143	0	
1.2587	-24.4113	-4.27001	0	
1.2593	-22.5783	-1.23606	0	
1.2600	-17.9812	-1.23606	0	
1.2607	-17.9812	-3.97785	0	
1.2613	-19.8142	-2.135	0	
1.2620	-22.5783	-0.314632	0	
1.2627	-22.5783	-3.05643	0	
1.2633	-15.2462	-3.05643	0	
1.2640	-6.69202	-1.23606	0	
1.2647	-6.08101	-3.66322	0	
1.2653	-5.79005	-3.97785	0	
1.2660	-1.83303	-1.23606	0	
1.2667	0	-2.135	0	
1.2673	3.37511	-4.58464	0	
1.2680	11.9002	-4.58464	0	
1.2687	14.3442	-4.89927	0	
1.2693	11.2891	-6.42749	0	
1.2700	10.6781	-5.19143	0	
1.2707	10.9982	-4.27001	0	
1.2713	6.11011	-5.19143	0	
1.2720	1.22202	-5.79822	0	
1.2727	-3.05505	-6.11286	0	
1.2733	-7.01207	-6.11286	0	
1.2740	-6.08101	-3.97785	0	
1.2747	-3.05505	-2.135	0	
1.2753	-6.08101	-3.37106	0	
1.2760	-7.91404	-3.97785	0	
1.2767	2.15308	-3.66322	0	
1.2773	8.26319	-2.44964	0	
1.2780	0	-1.84285	0	
1.2787	-1.22202	-1.84285	0	
1.2793	12.2202	-0.314632	0	
1.2800	18.6213	2.135	0	
1.2807	14.9552	1.82037	0	
1.2813	8.55415	0	0	
1.2820	-5.79005	0	0	
1.2827	-23.4803	1.21358	0	
1.2833	-31.1033	2.42716	0	
1.2840	-37.8245	4.27001	0	
1.2847	-50.3356	4.8768	0	
1.2853	-51.2667	3.34859	0	
1.2860	-38.7555	-0.314632	0	
1.2867	-36.3115	-2.44964	0	
1.2873	-46.0586	-2.135	0	
1.2880	-43.6436	-1.23606	0	
1.2887	-25.3133	-1.84285	0	
1.2893	-10.3581	-3.66322	0	
1.2900	-3.63697	-4.89927	0	
1.2907	5.4991	-4.89927	0	
1.2913	19.5523	-4.27001	0	
1.2920	32.9655	-5.19143	0	
1.2927	40.5886	-4.27001	0	
1.2933	35.4095	-1.23606	0	
1.2940	24.4113	-1.23606	0	
1.2947	23.2184	-4.89927	0	
1.2953	20.1633	-6.71965	0	
1.2960	-0.290957	-3.97785	0	
1.2967	-17.3702	-0.629265	0	
1.2973	-15.2462	-1.23606	0	
1.2980	-8.23409	-4.89927	0	
1.2987	-6.08101	-5.79822	0	
1.2993	-4.24798	-4.89927	0	
1.3000	-5.79005	-4.89927	0	
1.3007	-7.62308	-5.79822	0	
1.3013	-4.56803	-4.58464	0	
1.3020	-1.51298	-2.135	0	
1.3027	-3.34601	-0.921423	0	
1.3033	-6.40106	-3.37106	0	
1.3040	-5.79005	-5.50607	0	
1.3047	-3.34601	-3.05643	0	
1.3053	-3.05505	-1.23606	0	
1.3060	-1.51298	-3.05643	0	
1.3067	3.05505	-3.05643	0	
1.3073	4.88808	-1.52821	0	
1.3080	3.98612	-1.23606	0	
1.3087	5.81915	-2.135	0	
1.3093	9.16516	-3.05643	0	
1.3100	13.1222	-3.97785	0	
1.3107	19.2323	-5.19143	0	
1.3113	21.3854	-6.42749	0	
1.3120	16.4973	-6.71965	0	
1.3127	10.6781	-5.19143	0	
1.3133	7.65218	-3.97785	0	
1.3140	5.81915	-4.27001	0	
1.3147	7.65218	-4.89927	0	
1.3153	8.8742	-5.50607	0	
1.3160	7.65218	-5.79822	0	
1.3167	4.59713	-4.89927	0	
1.3173	0	-3.97785	0	
1.3180	-2.12399	-2.76427	0	
1.3187	-3.34601	-1.84285	0	
1.3193	-8.84511	-0.629265	0	
1.3200	-11.5801	0.606791	0	
1.3207	-6.69202	1.82037	0	
1.3213	-7.30303	2.42716	0	
1.3220	-10.6781	0.898949	0	
1.3227	-5.79005	-1.84285	0	
1.3233	-1.22202	-3.05643	0	
1.3240	-1.22202	-2.135	0	
1.3247	1.83303	-2.135	0	
1.3253	1.83303	-1.52821	0	
1.3260	-2.44404	0	0	
1.3267	1.22202	-0.314632	0	
1.3273	8.55415	-3.37106	0	
1.3280	11.6092	-3.97785	0	
1.3287	13.1222	-3.66322	0	
1.3293	14.0532	-3.97785	0	
1.3300	12.8312	-3.05643	0	
1.3307	13.1222	-1.52821	0	
1.3313	13.4422	-3.05643	0	
1.3320	9.77617	-5.19143	0	
1.3327	7.04117	-3.97785	0	
1.3333	4.27707	-2.135	0	
1.3340	0.320053	-3.97785	0	
1.3347	-2.44404	-4.89927	0	
1.3353	-5.17904	-3.37106	0	
1.3360	-10.6781	-1.84285	0	
1.3367	-11.5801	-1.23606	0	
1.3373	-7.91404	-0.921423	0	
1.3380	-5.17904	-0.314632	0	
1.3387	-3.95702	1.52821	0	
1.3393	-1.83303	1.82037	0	
1.3400	0.611011	-1.84285	0	
1.3407	6.11011	-2.76427	0	
1.3413	14.9552	0	0	
1.3420	18.9413	-1.52821	0	
1.3427	15.8863	-3.97785	0	
1.3433	12.5112	-0.921423	0	
1.3440	11.2891	1.52821	0	
1.3447	10.6781	1.52821	0	
1.3453	10.0962	1.21358	0	
1.3460	9.48521	0.292159	0	
1.3467	8.55415	0.292159	0	
1.3473	8.8742	1.82037	0	
1.3480	7.65218	1.52821	0	
1.3487	5.81915	0.606791	0	
1.3493	6.72112	2.135	0	
1.3500	6.72112	1.52821	0	
1.3507	1.83303	-1.23606	0	
1.3513	-0.901968	-2.44964	0	
1.3520	2.15308	-1.52821	0	
1.3527	6.43016	0.898949	0	
1.3533	8.26319	3.03395	0	
1.3540	10.6781	1.82037	0	
1.3547	11.2891	2.42716	0	
1.3553	8.26319	6.09038	0	
1.3560	3.98612	6.40501	0	
1.3567	3.05505	3.95538	0	
1.3573	5.20814	4.56217	0	
1.3580	2.7641	5.79822	0	
1.3587	-5.47	6.40501	0	
1.3593	-10.6781	8.83218	0	
1.3600	-7.30303	9.7536	0	
1.3607	-3.34601	7.93323	0	
1.3613	-7.01207	7.93323	0	
1.3620	-16.1772	8.54002	0	
1.3627	-21.3563	5.19143	0	
1.3633	-17.0792	3.34859	0	
1.3640	-9.74707	6.09038	0	
1.3647	-7.30303	7.01181	0	
1.3653	-8.84511	3.95538	0	
1.3660	-11.9002	2.42716	0	
1.3667	-11.5801	2.135	0	
1.3673	-6.40106	0.898949	0	
1.3680	-3.34601	-0.314632	0	
1.3687	-4.56803	-1.84285	0	
1.3693	-6.08101	-3.05643	0	
1.3700	-6.69202	-3.05643	0	
1.3707	-7.01207	-1.84285	0	
1.3713	-4.85899	-0.629265	0	
1.3720	-3.34601	0.292159	0	
1.3727	-5.17904	-0.314632	0	
1.3733	-6.08101	-0.921423	0	
1.3740	-5.47	1.52821	0	
1.3747	-6.08101	2.7418	0	
1.3753	-5.47	1.21358	0	
1.3760	-5.17904	1.52821	0	
1.3767	-7.01207	5.19143	0	
1.3773	-7.91404	7.01181	0	
1.3780	-7.01207	7.93323	0	
1.3787	-9.74707	9.14681	0	
1.3793	-14.3442	11.8886	0	
1.3800	-14.6352	14.3382	0	
1.3807	-10.6781	13.4168	0	
1.3813	-8.84511	9.46144	0	
1.3820	-10.9691	7.93323	0	
1.3827	-8.84511	8.83218	0	
1.3833	-4.56803	9.46144	0	
1.3840	-4.85899	8.83218	0	
1.3847	-6.08101	7.93323	0	
1.3853	-4.24798	7.32644	0	
1.3860	-4.85899	7.01181	0	
1.3867	-3.95702	6.40501	0	
1.3873	1.54207	6.09038	0	
1.3880	3.98612	6.09038	0	
1.3887	2.15308	6.09038	0	
1.3893	3.66606	4.56217	0	
1.3900	7.65218	2.42716	0	
1.3907	6.72112	2.42716	0	
1.3913	4.27707	3.34859	0	
1.3920	3.37511	2.42716	0	
1.3927	1.83303	1.52821	0	
1.3933	1.22202	2.7418	0	
1.3940	2.7641	1.52821	0	
1.3947	2.7641	-3.37106	0	
1.3953	1.54207	-3.66322	0	
1.3960	1.22202	1.52821	0	
1.3967	1.22202	2.42716	0	
1.3973	1.54207	0.606791	0	
1.3980	1.22202	0.606791	0	
1.3987	-2.735	1.21358	0	
1.3993	-7.91404	0.898949	0	
1.4000	-8.84511	2.7418	0	
1.4007	-7.01207	5.48359	0	
1.4013	-6.40106	4.56217	0	
1.4020	-5.17904	1.82037	0	
1.4027	-3.34601	2.42716	0	
1.4033	-4.56803	4.27001	0	
1.4040	-7.30303	3.66322	0	
1.4047	-8.84511	2.135	0	
1.4053	-7.01207	1.52821	0	
1.4060	-3.34601	0.606791	0	
1.4067	0.320053	-0.921423	0	
1.4073	1.54207	-1.84285	0	
1.4080	4.27707	-2.135	0	
1.4087	7.04117	-2.135	0	
1.4093	7.65218	-5.50607	0	
1.4100	8.55415	-9.16928	0	
1.4107	9.16516	-6.42749	0	
1.4113	7.33213	-3.37106	0	
1.4120	5.81915	-5.19143	0	
1.4127	7.65218	-5.79822	0	
1.4133	9.77617	-4.89927	0	
1.4140	9.48521	-7.93323	0	
1.4147	8.55415	-8.56249	0	
1.4153	8.55415	-5.19143	0	
1.4160	8.26319	-5.50607	0	
1.4167	5.4991	-5.79822	0	
1.4173	0.611011	-4.89927	0	
1.4180	-3.95702	-7.32644	0	
1.4187	-4.56803	-7.93323	0	
1.4193	-2.44404	-3.97785	0	
1.4200	-1.22202	-3.05643	0	
1.4207	-0.611011	-5.79822	0	
1.4213	-0.901968	-6.11286	0	
1.4220	-2.44404	-4.27001	0	
1.4227	-3.34601	-5.79822	0	
1.4233	-3.05505	-7.93323	0	
1.4240	-3.34601	-6.42749	0	
1.4247	-3.05505	-4.58464	0	
1.4253	-1.83303	-4.27001	0	
1.4260	-0.611011	-3.97785	0	
1.4267	0.611011	-3.66322	0	
1.4273	-0.611011	-3.05643	0	
1.4280	-4.85899	-2.135	0	
1.4287	-6.08101	-4.58464	0	
1.4293	-2.44404	-7.93323	0	
1.4300	-1.22202	-6.42749	0	
1.4307	-0.611011	-4.89927	0	
1.4313	3.66606	-6.71965	0	
1.4320	5.4991	-6.71965	0	
1.4327	0.611011	-6.71965	0	
1.4333	-1.51298	-8.56249	0	
1.4340	0.611011	-8.56249	0	
1.4347	-1.51298	-6.71965	0	
1.4353	-5.47	-6.11286	0	
1.4360	-3.95702	-6.11286	0	
1.4367	-2.735	-7.64107	0	
1.4373	-4.56803	-7.64107	0	
1.4380	-4.85899	-4.89927	0	
1.4387	-6.08101	-4.89927	0	
1.4393	-9.74707	-4.58464	0	
1.4400	-8.23409	-0.629265	0	
1.4407	-3.34601	-0.921423	0	
1.4413	-3.95702	-3.97785	0	
1.4420	-8.23409	-2.76427	0	
1.4427	-11.2891	-2.135	0	
1.4433	-11.5801	-6.42749	0	
1.4440	-8.52505	-7.32644	0	
1.4447	-4.56803	-3.97785	0	
1.4453	-4.56803	-3.05643	0	
1.4460	-5.79005	-3.97785	0	
1.4467	-2.12399	-3.97785	0	
1.4473	4.88808	-3.97785	0	
1.4480	9.77617	-5.50607	0	
1.4487	9.16516	-6.71965	0	
1.4493	5.81915	-4.58464	0	
1.4500	5.81915	-2.135	0	
1.4507	6.11011	-3.05643	0	
1.4513	3.98612	-5.50607	0	
1.4520	3.66606	-4.89927	0	
1.4527	8.8742	-2.135	0	
1.4533	13.1222	-1.23606	0	
1.4540	10.9982	-2.135	0	
1.4547	5.20814	-0.921423	0	
1.4553	2.15308	-0.314632	0	
1.4560	0.320053	-2.135	0	
1.4567	0	-2.135	0	
1.4573	2.15308	2.42716	0	
1.4580	3.98612	4.27001	0	
1.4587	0	1.52821	0	
1.4593	-4.56803	0.606791	0	
1.4600	-3.34601	1.52821	0	
1.4607	-1.51298	1.82037	0	
1.4613	-1.51298	2.42716	0	
1.4620	0.320053	4.27001	0	
1.4627	1.83303	4.27001	0	
1.4633	0.611011	3.66322	0	
1.4640	-0.611011	4.56217	0	
1.4647	1.22202	5.19143	0	
1.4653	6.72112	4.27001	0	
1.4660	12.8312	4.27001	0	
1.4667	12.2202	4.8768	0	
1.4673	7.04117	5.48359	0	
1.4680	9.48521	4.8768	0	
1.4687	16.4973	0.898949	0	
1.4693	14.9552	0.292159	0	
1.4700	10.6781	4.27001	0	
1.4707	14.0532	4.56217	0	
1.4713	16.7882	3.03395	0	
1.4720	11.9002	6.40501	0	
1.4727	7.33213	9.7536	0	
1.4733	6.72112	9.7536	0	
1.4740	7.04117	11.5964	0	
1.4747	7.65218	10.675	0	
1.4753	7.33213	7.6186	0	
1.4760	2.15308	9.46144	0	
1.4767	-5.79005	12.81	0	
1.4773	-11.5801	12.2032	0	
1.4780	-12.5112	12.2032	0	
1.4787	-11.5801	13.1247	0	
1.4793	-11.2891	10.675	0	
1.4800	-7.91404	8.54002	0	
1.4807	-4.24798	9.14681	0	
1.4813	-2.735	11.2818	0	
1.4820	-0.611011	10.9897	0	
1.4827	-0.290957	8.54002	0	
1.4833	-4.56803	8.22539	0	
1.4840	-5.79005	9.7536	0	
1.4847	-0.611011	8.54002	0	
1.4853	2.44404	7.32644	0	
1.4860	1.54207	6.40501	0	
1.4867	0.320053	2.42716	0	
1.4873	0.320053	1.82037	0	
1.4880	3.66606	5.19143	0	
1.4887	7.65218	3.34859	0	
1.4893	7.65218	0	0	
1.4900	4.59713	0	0	
1.4907	4.27707	-3.05643	0	
1.4913	7.65218	-5.79822	0	
1.4920	9.16516	-3.05643	0	
1.4927	5.81915	-1.23606	0	
1.4933	4.88808	-3.05643	0	
1.4940	6.43016	-3.05643	0	
1.4947	1.22202	-3.37106	0	
1.4953	-7.01207	-2.135	0	
1.4960	-9.13606	1.82037	0	
1.4967	-9.74707	0.606791	0	
1.4973	-12.5112	-3.97785	0	
1.4980	-12.8021	-3.05643	0	
1.4987	-10.6781	0	0	
1.4993	-10.6781	-1.84285	0	
1.5000	-11.2891	-3.97785	0	
1.5007	-10.0671	-3.05643	0	
1.5013	-10.0671	-3.05643	0	
1.5020	-10.0671	-3.97785	0	
1.5027	-7.91404	-3.66322	0	
1.5033	-5.17904	-3.97785	0	
1.5040	-4.24798	-5.79822	0	
1.5047	-5.79005	-6.71965	0	
1.5053	-6.08101	-7.03428	0	
1.5060	-3.34601	-6.42749	0	
1.5067	-2.12399	-5.79822	0	
1.5073	-1.83303	-6.42749	0	
1.5080	1.22202	-7.03428	0	
1.5087	3.37511	-6.42749	0	
1.5093	2.44404	-5.79822	0	
1.5100	3.05505	-6.42749	0	
1.5107	4.88808	-5.79822	0	
1.5113	2.44404	-3.66322	0	
1.5120	-0.290957	-2.44964	0	
1.5127	-0.611011	-4.27001	0	
1.5133	-0.901968	-5.50607	0	
1.5140	-0.611011	-3.97785	0	
1.5147	0.931064	-3.66322	0	
1.5153	1.22202	-5.79822	0	
1.5160	1.22202	-6.71965	0	
1.5167	0.611011	-3.97785	0	
1.5173	-2.735	-3.05643	0	
1.5180	-4.24798	-3.97785	0	
1.5187	-2.735	-3.05643	0	
1.5193	-2.735	-0.314632	0	
1.5200	-2.735	-0.314632	0	
1.5207	-0.901968	-3.05643	0	
1.5213	-1.51298	-3.37106	0	
1.5220	-3.95702	-1.23606	0	
1.5227	-3.34601	1.21358	0	
1.5233	-0.611011	0.898949	0	
1.5240	-0.611011	-2.44964	0	
1.5247	-2.735	-3.97785	0	
1.5253	-5.17904	-1.52821	0	
1.5260	-5.17904	-1.23606	0	
1.5267	-2.44404	-4.58464	0	
1.5273	-0.611011	-3.66322	0	
1.5280	-0.290957	0.606791	0	
1.5287	2.44404	0.292159	0	
1.5293	6.11011	-2.135	0	
1.5300	6.72112	-3.05643	0	
1.5307	5.81915	-3.37106	0	
1.5313	4.88808	-2.135	0	
1.5320	3.37511	-0.921423	0	
1.5327	3.98612	-3.05643	0	
1.5333	6.72112	-4.89927	0	
1.5340	8.55415	-3.97785	0	
1.5347	7.65218	-0.921423	0	
1.5353	5.81915	1.82037	0	
1.5360	2.7641	2.42716	0	
1.5367	0.611011	1.52821	0	
1.5373	0	1.52821	0	
1.5380	-1.51298	2.7418	0	
1.5387	-5.17904	2.135	0	
1.5393	-6.08101	2.42716	0	
1.5400	-5.17904	5.19143	0	
1.5407	-5.17904	6.09038	0	
1.5413	-5.79005	4.56217	0	
1.5420	-6.08101	3.66322	0	
1.5427	-6.08101	5.19143	0	
1.5433	-6.69202	6.09038	0	
1.5440	-6.08101	4.27001	0	
1.5447	-3.05505	3.03395	0	
1.5453	-0.901968	3.34859	0	
1.5460	-1.83303	3.66322	0	
1.5467	-3.95702	5.48359	0	
1.5473	-4.24798	6.09038	0	
1.5480	-1.22202	3.03395	0	
1.5487	4.27707	1.52821	0	
1.5493	9.48521	3.66322	0	
1.5500	9.77617	3.95538	0	
1.5507	7.33213	3.34859	0	
1.5513	6.72112	2.7418	0	
1.5520	9.48521	1.21358	0	
1.5527	10.3872	0.898949	0	
1.5533	9.48521	2.42716	0	
1.5540	10.0962	3.03395	0	
1.5547	8.55415	3.34859	0	
1.5553	1.22202	3.03395	0	
1.5560	-5.17904	2.42716	0	
1.5567	-4.56803	5.19143	0	
1.5573	-4.24798	5.48359	0	
1.5580	-8.52505	1.52821	0	
1.5587	-9.45612	1.21358	0	
1.5593	-6.08101	3.34859	0	
1.5600	-8.52505	2.7418	0	
1.5607	-12.5112	2.42716	0	
1.5613	-7.62308	2.7418	0	
1.5620	1.54207	0.606791	0	
1.5627	5.81915	0	0	
1.5633	6.72112	0.606791	0	
1.5640	7.94314	0.606791	0	
1.5647	8.55415	0.292159	0	
1.5653	8.55415	-0.314632	0	
1.5660	8.8742	-3.05643	0	
1.5667	10.3872	-3.97785	0	
1.5673	11.2891	-3.97785	0	
1.5680	11.2891	-4.89927	0	
1.5687	11.6092	-5.79822	0	
1.5693	11.2891	-6.71965	0	
1.5700	7.65218	-9.46144	0	
1.5707	2.7641	-8.56249	0	
1.5713	1.54207	-6.71965	0	
1.5720	2.7641	-8.24786	0	
1.5727	3.37511	-8.56249	0	
1.5733	3.98612	-5.50607	0	
1.5740	2.44404	-4.89927	0	
1.5747	-1.83303	-5.79822	0	
1.5753	-4.56803	-3.97785	0	
1.5760	-3.95702	-2.44964	0	
1.5767	-4.85899	-2.76427	0	
1.5773	-8.52505	-1.23606	0	
1.5780	-9.74707	-0.314632	0	
1.5787	-10.6781	-0.314632	0	
1.5793	-15.2462	2.135	0	
1.5800	-18.5922	4.56217	0	
1.5807	-15.5662	3.95538	0	
1.5813	-11.5801	1.82037	0	
1.5820	-11.2891	2.7418	0	
1.5827	-11.5801	4.27001	0	
1.5833	-9.74707	1.52821	0	
1.5840	-7.01207	-1.84285	0	
1.5847	-3.95702	-1.52821	0	
1.5853	-3.34601	-1.23606	0	
1.5860	-5.17904	-3.05643	0	
1.5867	-4.85899	-4.89927	0	
1.5873	-0.901968	-3.97785	0	
1.5880	3.66606	-2.44964	0	
1.5887	6.72112	-2.44964	0	
1.5893	6.43016	-3.05643	0	
1.5900	5.4991	-1.23606	0	
1.5907	5.4991	1.21358	0	
1.5913	3.66606	0.292159	0	
1.5920	0.611011	-2.135	0	
1.5927	1.54207	-2.76427	0	
1.5933	7.04117	-0.629265	0	
1.5940	8.55415	1.82037	0	
1.5947	4.88808	1.82037	0	
1.5953	2.15308	-0.629265	0	
1.5960	1.54207	-0.921423	0	
1.5967	-0.611011	0.898949	0	
1.5973	-5.79005	0.606791	0	
1.5980	-7.01207	0	0	
1.5987	-4.24798	-0.314632	0	
1.5993	-4.85899	-0.921423	0	
1.6000	-7.30303	-0.921423	0	
1.6007	-6.08101	2.42716	0	
1.6013	-2.44404	5.48359	0	
1.6020	-0.611011	6.09038	0	
1.6027	0.611011	5.48359	0	
1.6033	3.66606	5.79822	0	
1.6040	6.72112	5.48359	0	
1.6047	7.33213	3.34859	0	
1.6053	6.11011	2.7418	0	
1.6060	6.11011	5.19143	0	
1.6067	6.72112	5.79822	0	
1.6073	9.16516	3.66322	0	
1.6080	14.9552	2.42716	0	
1.6087	18.6213	-0.629265	0	
1.6093	16.4973	-3.97785	0	
1.6100	13.1222	-2.135	0	
1.6107	8.55415	-0.314632	0	
1.6113	1.83303	-2.44964	0	
1.6120	0.611011	-3.05643	0	
1.6127	4.88808	-1.52821	0	
1.6133	6.43016	-2.44964	0	
1.6140	6.72112	-3.97785	0	
1.6147	7.04117	-5.19143	0	
1.6153	2.15308	-6.71965	0	
1.6160	-3.34601	-5.50607	0	
1.6167	-4.56803	-3.66322	0	
1.6173	-4.85899	-3.97785	0	
1.6180	-5.17904	-4.27001	0	
1.6187	-3.63697	-2.76427	0	
1.6193	-3.63697	-2.135	0	
1.6200	-2.44404	-2.76427	0	
1.6207	0	-1.52821	0	
1.6213	-0.290957	0	0	
1.6220	-2.44404	1.52821	0	
1.6227	-3.34601	2.42716	0	
1.6233	-4.24798	2.7418	0	
1.6240	-2.735	3.03395	0	
1.6247	0.931064	3.34859	0	
1.6253	-0.290957	3.34859	0	
1.6260	-3.63697	2.7418	0	
1.6267	-1.51298	1.52821	0	
1.6273	1.83303	1.52821	0	
1.6280	-0.290957	4.27001	0	
1.6287	-2.44404	3.66322	0	
1.6293	1.22202	1.82037	0	
1.6300	4.88808	3.95538	0	
1.6307	3.37511	4.8768	0	
1.6313	0.320053	2.135	0	
1.6320	-1.51298	2.135	0	
1.6327	-0.901968	2.42716	0	
1.6333	4.59713	-0.921423	0	
1.6340	9.48521	-1.52821	0	
1.6347	5.81915	1.52821	0	
1.6353	2.44404	1.52821	0	
1.6360	4.88808	0.606791	0	
1.6367	4.88808	0	0	
1.6373	0.320053	-0.314632	0	
1.6380	-2.735	1.52821	0	
1.6387	-3.34601	4.27001	0	
1.6393	-3.34601	3.03395	0	
1.6400	-1.51298	-1.52821	0	
1.6407	0.320053	-1.52821	0	
1.6413	3.37511	1.21358	0	
1.6420	6.72112	0.606791	0	
1.6427	4.88808	-0.629265	0	
1.6433	-0.901968	2.135	0	
1.6440	-3.05505	3.34859	0	
1.6447	-1.22202	1.21358	0	
1.6453	1.22202	0.606791	0	
1.6460	3.98612	2.42716	0	
1.6467	4.88808	2.42716	0	
1.6473	4.88808	2.135	0	
1.6480	7.04117	4.27001	0	
1.6487	7.65218	6.09038	0	
1.6493	5.81915	5.79822	0	
1.6500	5.81915	3.95538	0	
1.6507	7.94314	2.42716	0	
1.6513	9.48521	2.7418	0	
1.6520	10.0962	3.66322	0	
1.6527	9.48521	4.27001	0	
1.6533	8.55415	4.27001	0	
1.6540	9.16516	4.27001	0	
1.6547	8.8742	5.48359	0	
1.6553	4.27707	5.19143	0	
1.6560	0.931064	3.34859	0	
1.6567	0.931064	2.135	0	
1.6573	1.22202	1.52821	0	
1.6580	1.22202	3.34859	0	
1.6587	0.931064	6.09038	0	
1.6593	-2.44404	6.40501	0	
1.6600	-7.01207	4.27001	0	
1.6607	-8.84511	5.48359	0	
1.6613	-7.30303	6.69717	0	
1.6620	-5.17904	4.27001	0	
1.6627	-4.24798	2.42716	0	
1.6633	-3.95702	3.03395	0	
1.6640	-3.05505	3.95538	0	
1.6647	-1.51298	4.27001	0	
1.6653	-0.290957	3.66322	0	
1.6660	-1.51298	1.52821	0	
1.6667	-4.24798	1.52821	0	
1.6673	-3.63697	3.66322	0	
1.6680	1.22202	4.27001	0	
1.6687	4.59713	0.606791	0	
1.6693	2.7641	-2.44964	0	
1.6700	-0.611011	-2.135	0	
1.6707	0.320053	-1.52821	0	
1.6713	5.81915	-1.84285	0	
1.6720	10.0962	-1.23606	0	
1.6727	6.72112	-2.76427	0	
1.6733	1.22202	-5.79822	0	
1.6740	0.320053	-4.89927	0	
1.6747	0.931064	-3.05643	0	
1.6753	-0.611011	-3.97785	0	
1.6760	-2.735	-5.50607	0	
1.6767	-5.17904	-6.42749	0	
1.6773	-6.69202	-6.42749	0	
1.6780	-8.84511	-4.89927	0	
1.6787	-12.5112	-3.97785	0	
1.6793	-13.7332	-3.97785	0	
1.6800	-11.9002	-2.135	0	
1.6807	-12.8021	-2.44964	0	
1.6813	-14.3442	-4.58464	0	
1.6820	-11.5801	-3.66322	0	
1.6827	-9.45612	-2.135	0	
1.6833	-10.0671	-3.97785	0	
1.6840	-9.45612	-7.03428	0	
1.6847	-7.62308	-9.46144	0	
1.6853	-7.62308	-10.3829	0	
1.6860	-7.01207	-7.93323	0	
1.6867	-4.24798	-5.79822	0	
1.6873	-1.51298	-7.03428	0	
1.6880	-2.44404	-8.56249	0	
1.6887	-4.24798	-7.93323	0	
1.6893	-4.56803	-7.64107	0	
1.6900	-4.24798	-4.89927	0	
1.6907	-2.12399	-1.23606	0	
1.6913	1.22202	-0.921423	0	
1.6920	-0.611011	-3.05643	0	
1.6927	-5.79005	-3.05643	0	
1.6933	-3.63697	-2.44964	0	
1.6940	1.22202	-3.97785	0	
1.6947	-2.12399	-6.11286	0	
1.6953	-6.08101	-5.79822	0	
1.6960	-3.05505	-4.89927	0	
1.6967	-0.901968	-5.50607	0	
1.6973	-3.63697	-5.79822	0	
1.6980	-6.08101	-3.97785	0	
1.6987	-7.01207	-2.135	0	
1.6993	-7.01207	-2.44964	0	
1.7000	-7.01207	-2.135	0	
1.7007	-10.6781	-2.135	0	
1.7013	-12.1911	-3.97785	0	
1.7020	-9.13606	-3.97785	0	
1.7027	-9.13606	-0.314632	0	
1.7033	-11.5801	-0.314632	0	
1.7040	-8.84511	-2.44964	0	
1.7047	-6.40106	-2.135	0	
1.7053	-6.69202	-0.921423	0	
1.7060	-2.735	-1.52821	0	
1.7067	1.22202	-2.135	0	
1.7073	-0.611011	-1.52821	0	
1.7080	0.611011	-1.84285	0	
1.7087	5.81915	-2.135	0	
1.7093	3.98612	-2.135	0	
1.7100	0.320053	-4.27001	0	
1.7107	2.15308	-6.71965	0	
1.7113	5.81915	-6.42749	0	
1.7120	5.4991	-4.89927	0	
1.7127	3.98612	-4.58464	0	
1.7133	4.59713	-4.58464	0	
1.7140	8.55415	-4.89927	0	
1.7147	11.2891	-7.64107	0	
1.7153	5.81915	-7.32644	0	
1.7160	-3.34601	-3.97785	0	
1.7167	-5.47	-3.05643	0	
1.7173	-1.51298	-3.05643	0	
1.7180	-1.22202	-0.629265	0	
1.7187	-6.40106	-1.23606	0	
1.7193	-7.91404	-3.37106	0	
1.7200	-1.83303	-1.23606	0	
1.7207	1.22202	0.898949	0	
1.7213	-2.12399	0.606791	0	
1.7220	-3.34601	0.898949	0	
1.7227	-2.735	0.606791	0	
1.7233	-3.95702	-1.84285	0	
1.7240	-3.05505	-0.629265	0	
1.7247	-0.611011	2.7418	0	
1.7253	0	1.82037	0	
1.7260	2.15308	-1.23606	0	
1.7267	4.88808	-1.84285	0	
1.7273	3.66606	-1.23606	0	
1.7280	4.59713	-1.23606	0	
1.7287	8.55415	-1.52821	0	
1.7293	7.94314	-0.921423	0	
1.7300	3.05505	0	0	
1.7307	3.05505	2.135	0	
1.7313	4.27707	3.66322	0	
1.7320	1.83303	2.42716	0	
1.7327	-0.901968	0.606791	0	
1.7333	-0.901968	2.42716	0	
1.7340	1.22202	4.8768	0	
1.7347	1.22202	4.27001	0	
1.7353	-0.611011	4.27001	0	
1.7360	-0.611011	7.01181	0	
1.7367	0.320053	9.14681	0	
1.7373	-1.83303	9.46144	0	
1.7380	-4.24798	10.3604	0	
1.7387	-6.69202	11.2818	0	
1.7393	-10.3581	10.675	0	
1.7400	-9.74707	9.7536	0	
1.7407	-4.24798	9.46144	0	
1.7413	-2.735	7.93323	0	
1.7420	-4.56803	7.93323	0	
1.7427	-3.34601	8.83218	0	
1.7433	-0.611011	7.01181	0	
1.7440	-0.901968	4.56217	0	
1.7447	-1.51298	6.09038	0	
1.7453	1.22202	7.32644	0	
1.7460	6.72112	7.01181	0	
1.7467	7.65218	8.83218	0	
1.7473	5.81915	9.14681	0	
1.7480	7.65218	6.69717	0	
1.7487	11.9002	5.19143	0	
1.7493	14.0532	4.56217	0	
1.7500	14.0532	4.27001	0	
1.7507	11.6092	4.27001	0	
1.7513	9.48521	2.42716	0	
1.7520	11.2891	0.292159	0	
1.7527	11.2891	2.135	0	
1.7533	6.72112	4.27001	0	
1.7540	4.59713	4.27001	0	
1.7547	3.98612	4.27001	0	
1.7553	1.54207	3.34859	0	
1.7560	0	3.34859	0	
1.7567	-3.05505	5.19143	0	
1.7573	-7.91404	3.95538	0	
1.7580	-7.30303	1.52821	0	
1.7587	-4.56803	3.34859	0	
1.7593	-7.62308	4.56217	0	
1.7600	-9.74707	3.03395	0	
1.7607	-5.17904	3.66322	0	
1.7613	-1.51298	7.01181	0	
1.7620	-1.51298	7.6186	0	
1.7627	0.320053	7.01181	0	
1.7633	0.931064	5.48359	0	
1.7640	-2.12399	3.03395	0	
1.7647	-3.34601	0.606791	0	
1.7653	-0.290957	0.292159	0	
1.7660	0.611011	0.898949	0	
1.7667	-3.05505	0.898949	0	
1.7673	-3.34601	1.21358	0	
1.7680	3.05505	1.82037	0	
1.7687	6.72112	2.135	0	
1.7693	3.66606	1.82037	0	
1.7700	2.15308	1.82037	0	
1.7707	1.83303	2.135	0	
1.7713	0.931064	3.34859	0	
1.7720	1.22202	3.95538	0	
1.7727	1.22202	0.898949	0	
1.7733	-0.611011	-1.52821	0	
1.7740	1.22202	-0.629265	0	
1.7747	4.88808	-0.314632	0	
1.7753	5.4991	-1.52821	0	
1.7760	8.26319	-2.44964	0	
1.7767	11.9002	-3.66322	0	
1.7773	7.33213	-3.97785	0	
1.7780	1.83303	-2.135	0	
1.7787	2.15308	-0.921423	0	
1.7793	1.22202	-2.135	0	
1.7800	-0.901968	-3.05643	0	
1.7807	-0.611011	-3.66322	0	
1.7813	0	-4.89927	0	
1.7820	-3.63697	-5.50607	0	
1.7827	-9.45612	-3.05643	0	
1.7833	-12.5112	-1.23606	0	
1.7840	-10.0671	-3.05643	0	
1.7847	-6.69202	-3.97785	0	
1.7853	-6.08101	-2.44964	0	
1.7860	-3.34601	-1.52821	0	
1.7867	0.931064	-3.37106	0	
1.7873	1.54207	-3.37106	0	
1.7880	1.22202	-1.52821	0	
1.7887	4.88808	-1.84285	0	
1.7893	7.65218	-3.37106	0	
1.7900	6.72112	-4.27001	0	
1.7907	6.43016	-5.79822	0	
1.7913	7.04117	-5.79822	0	
1.7920	5.81915	-3.97785	0	
1.7927	3.37511	-3.37106	0	
1.7933	3.66606	-3.97785	0	
1.7940	4.59713	-4.27001	0	
1.7947	3.98612	-5.50607	0	
1.7953	3.05505	-5.50607	0	
1.7960	2.44404	-2.76427	0	
1.7967	2.7641	-0.314632	0	
1.7973	2.15308	-0.921423	0	
1.7980	0	-0.314632	0	
1.7987	-3.63697	1.52821	0	
1.7993	-7.91404	1.52821	0	
1.8000	-9.45612	1.52821	0	
1.8007	-7.01207	0.606791	0	
1.8013	-3.34601	-0.629265	0	
1.8020	-1.51298	-1.23606	0	
1.8027	-2.12399	-0.921423	0	
1.8033	-3.63697	-1.23606	0	
1.8040	-6.08101	-1.23606	0	
1.8047	-6.40106	-1.23606	0	
1.8053	-2.44404	-2.76427	0	
1.8060	3.37511	-3.97785	0	
1.8067	7.04117	-3.97785	0	
1.8073	6.72112	-3.97785	0	
1.8080	7.65218	-5.19143	0	
1.8087	10.9982	-7.03428	0	
1.8093	13.7332	-8.24786	0	
1.8100	14.0532	-7.03428	0	
1.8107	14.9552	-5.79822	0	
1.8113	16.4973	-6.71965	0	
1.8120	16.4973	-8.56249	0	
1.8127	14.9552	-9.46144	0	
1.8133	12.5112	-10.9897	0	
1.8140	10.3872	-10.9897	0	
1.8147	10.3872	-8.56249	0	
1.8153	7.94314	-6.71965	0	
1.8160	3.05505	-6.11286	0	
1.8167	1.22202	-5.79822	0	
1.8173	1.22202	-7.32644	0	
1.8180	-2.44404	-8.24786	0	
1.8187	-6.08101	-4.89927	0	
1.8193	-3.95702	-1.84285	0	
1.8200	-2.12399	-0.629265	0	
1.8207	-4.56803	-0.314632	0	
1.8213	-4.56803	-2.135	0	
1.8220	-0.901968	-3.97785	0	
1.8227	-0.290957	-1.23606	0	
1.8233	-2.44404	1.21358	0	
1.8240	-2.12399	0.292159	0	
1.8247	-0.611011	-0.314632	0	
1.8253	1.22202	-0.629265	0	
1.8260	1.22202	-3.05643	0	
1.8267	-3.95702	-3.97785	0	
1.8273	-9.45612	-3.97785	0	
1.8280	-4.56803	-4.89927	0	
1.8287	3.05505	-7.93323	0	
1.8293	1.54207	-8.24786	0	
1.8300	-3.63697	-6.71965	0	
1.8307	-1.83303	-7.03428	0	
1.8313	2.15308	-6.11286	0	
1.8320	2.15308	-2.76427	0	
1.8327	1.22202	-2.76427	0	
1.8333	0.931064	-4.89927	0	
1.8340	-0.611011	-3.37106	0	
1.8347	-1.83303	-2.76427	0	
1.8353	-2.12399	-4.27001	0	
1.8360	-3.95702	-3.37106	0	
1.8367	-6.08101	-1.23606	0	
1.8373	-8.23409	-1.84285	0	
1.8380	-12.1911	-1.52821	0	
1.8387	-16.1772	-0.921423	0	
1.8393	-15.8572	0	0	
1.8400	-13.4131	1.21358	0	
1.8407	-14.3442	0	0	
1.8413	-16.1772	-0.921423	0	
1.8420	-13.1222	1.21358	0	
1.8427	-8.52505	0.606791	0	
1.8433	-7.62308	-0.921423	0	
1.8440	-8.84511	0	0	
1.8447	-7.91404	-1.52821	0	
1.8453	-4.85899	-3.97785	0	
1.8460	-1.51298	-3.05643	0	
1.8467	-1.22202	-2.135	0	
1.8473	-2.44404	-2.135	0	
1.8480	-0.611011	0	0	
1.8487	2.15308	-0.314632	0	
1.8493	3.05505	-2.44964	0	
1.8500	3.66606	-2.76427	0	
1.8507	5.4991	-3.97785	0	
1.8513	6.11011	-4.89927	0	
1.8520	4.88808	-3.66322	0	
1.8527	2.15308	-2.44964	0	
1.8533	1.22202	-1.52821	0	
1.8540	1.22202	0	0	
1.8547	3.05505	-3.05643	0	
1.8553	4.27707	-5.79822	0	
1.8560	1.22202	-1.84285	0	
1.8567	-7.01207	2.7418	0	
1.8573	-16.1772	2.7418	0	
1.8580	-20.1343	4.27001	0	
1.8587	-21.6472	6.40501	0	
1.8593	-23.1893	4.27001	0	
1.8600	-21.6472	3.34859	0	
1.8607	-16.7591	5.79822	0	
1.8613	-12.8021	5.79822	0	
1.8620	-10.6781	4.27001	0	
1.8627	-9.74707	4.8768	0	
1.8633	-10.3581	6.40501	0	
1.8640	-10.3581	7.01181	0	
1.8647	-10.3581	7.6186	0	
1.8653	-11.9002	8.22539	0	
1.8660	-10.9691	8.83218	0	
1.8667	-7.01207	7.01181	0	
1.8673	-5.47	4.8768	0	
1.8680	-3.34601	5.79822	0	
1.8687	2.15308	6.69717	0	
1.8693	3.66606	6.09038	0	
1.8700	1.22202	6.40501	0	
1.8707	1.54207	6.09038	0	
1.8713	3.66606	3.66322	0	
1.8720	3.98612	3.34859	0	
1.8727	4.27707	3.34859	0	
1.8733	3.66606	0.606791	0	
1.8740	2.44404	-0.921423	0	
1.8747	3.05505	0.606791	0	
1.8753	2.15308	0.292159	0	
1.8760	-0.901968	-0.314632	0	
1.8767	-1.51298	1.82037	0	
1.8773	0	3.34859	0	
1.8780	-0.290957	2.42716	0	
1.8787	-3.34601	0.606791	0	
1.8793	-7.62308	-0.314632	0	
1.8800	-7.91404	1.82037	0	
1.8807	-3.34601	4.27001	0	
1.8813	-1.22202	4.56217	0	
1.8820	-2.12399	3.34859	0	
1.8827	-0.901968	2.42716	0	
1.8833	2.15308	2.42716	0	
1.8840	4.59713	2.42716	0	
1.8847	3.05505	2.42716	0	
1.8853	-2.44404	1.52821	0	
1.8860	-3.63697	1.52821	0	
1.8867	3.37511	2.7418	0	
1.8873	10.0962	4.27001	0	
1.8880	9.16516	2.7418	0	
1.8887	8.55415	-1.23606	0	
1.8893	12.2202	-0.314632	0	
1.8900	12.8312	2.42716	0	
1.8907	8.55415	-1.23606	0	
1.8913	6.11011	-5.19143	0	
1.8920	9.48521	-3.97785	0	
1.8927	12.2202	-3.05643	0	
1.8933	10.9982	-4.58464	0	
1.8940	8.55415	-5.19143	0	
1.8947	8.55415	-5.79822	0	
1.8953	9.48521	-5.50607	0	
1.8960	7.65218	-3.97785	0	
1.8967	4.88808	-3.05643	0	
1.8973	1.83303	-1.23606	0	
1.8980	-3.34601	0.292159	0	
1.8987	-7.62308	-1.52821	0	
1.8993	-6.08101	-3.97785	0	
1.9000	-4.24798	-2.76427	0	
1.9007	-5.47	0.606791	0	
1.9013	-5.17904	2.42716	0	
1.9020	-3.05505	4.27001	0	
1.9027	-2.44404	4.8768	0	
1.9033	-1.83303	3.34859	0	
1.9040	-1.51298	3.34859	0	
1.9047	-2.44404	4.27001	0	
1.9053	0.320053	3.34859	0	
1.9060	7.65218	3.34859	0	
1.9067	14.0532	5.19143	0	
1.9073	11.9002	6.09038	0	
1.9080	4.88808	4.56217	0	
1.9087	3.37511	4.27001	0	
1.9093	8.55415	4.8768	0	
1.9100	10.3872	3.03395	0	
1.9107	7.33213	2.7418	0	
1.9113	5.81915	3.34859	0	
1.9120	8.26319	0.606791	0	
1.9127	10.6781	0.606791	0	
1.9133	10.9982	5.48359	0	
1.9140	9.16516	6.40501	0	
1.9147	8.55415	2.42716	0	
1.9153	9.48521	3.95538	0	
1.9160	5.4991	6.40501	0	
1.9167	0.611011	2.42716	0	
1.9173	1.22202	-0.921423	0	
1.9180	2.44404	3.34859	0	
1.9187	-0.611011	6.40501	0	
1.9193	-1.51298	4.27001	0	
1.9200	1.54207	1.82037	0	
1.9207	3.05505	1.52821	0	
1.9213	3.05505	2.42716	0	
1.9220	2.15308	2.7418	0	
1.9227	0.320053	2.135	0	
1.9233	2.15308	0.606791	0	
1.9240	6.72112	0.606791	0	
1.9247	4.88808	0.606791	0	
1.9253	1.54207	-1.23606	0	
1.9260	5.81915	-2.135	0	
1.9267	9.77617	1.52821	0	
1.9273	8.8742	5.79822	0	
1.9280	10.3872	3.95538	0	
1.9287	14.9552	-0.314632	0	
1.9293	14.3442	0	0	
1.9300	10.3872	3.03395	0	
1.9307	11.2891	3.34859	0	
1.9313	14.0532	1.52821	0	
1.9320	12.2202	1.52821	0	
1.9327	8.55415	1.82037	0	
1.9333	7.65218	0.292159	0	
1.9340	5.4991	0.606791	0	
1.9347	3.05505	3.03395	0	
1.9353	3.37511	3.95538	0	
1.9360	2.15308	1.82037	0	
1.9367	-3.05505	1.21358	0	
1.9373	-6.08101	2.42716	0	
1.9380	-7.62308	3.95538	0	
1.9387	-12.1911	4.56217	0	
1.9393	-14.3442	5.19143	0	
1.9400	-10.9691	5.19143	0	
1.9407	-8.84511	4.27001	0	
1.9413	-9.45612	3.66322	0	
1.9420	-8.23409	3.03395	0	
1.9427	-7.30303	3.03395	0	
1.9433	-9.74707	2.7418	0	
1.9440	-9.45612	2.135	0	
1.9447	-4.85899	2.7418	0	
1.9453	-3.34601	3.34859	0	
1.9460	-3.63697	1.52821	0	
1.9467	0.320053	3.34859	0	
1.9473	6.11011	6.09038	0	
1.9480	9.48521	1.82037	0	
1.9487	8.8742	-1.52821	0	
1.9493	6.72112	1.52821	0	
1.9500	5.81915	2.42716	0	
1.9507	6.72112	-0.314632	0	
1.9513	6.43016	-2.135	0	
1.9520	6.72112	-4.89927	0	
1.9527	7.65218	-5.50607	0	
1.9533	4.59713	-1.52821	0	
1.9540	1.22202	-1.84285	0	
1.9547	1.22202	-3.97785	0	
1.9553	-0.901968	-2.44964	0	
1.9560	-5.79005	-2.135	0	
1.9567	-8.84511	-4.89927	0	
1.9573	-10.3581	-2.76427	0	
1.9580	-13.1222	0	0	
1.9587	-16.1772	-1.52821	0	
1.9593	-17.3702	-1.84285	0	
1.9600	-14.6352	-2.135	0	
1.9607	-9.13606	-6.42749	0	
1.9613	-6.40106	-7.93323	0	
1.9620	-5.47	-5.79822	0	
1.9627	-3.95702	-6.42749	0	
1.9633	-5.79005	-8.24786	0	
1.9640	-10.0671	-6.42749	0	
1.9647	-7.91404	-5.19143	0	
1.9653	-3.95702	-7.64107	0	
1.9660	-3.95702	-9.16928	0	
1.9667	-3.34601	-8.85465	0	
1.9673	-1.83303	-9.77608	0	
1.9680	-2.44404	-9.77608	0	
1.9687	-0.611011	-7.32644	0	
1.9693	2.15308	-6.71965	0	
1.9700	2.7641	-7.64107	0	
1.9707	4.88808	-5.79822	0	
1.9713	7.94314	-3.97785	0	
1.9720	7.04117	-5.79822	0	
1.9727	8.55415	-6.11286	0	
1.9733	13.1222	-4.58464	0	
1.9740	9.48521	-3.66322	0	
1.9747	3.05505	-3.97785	0	
1.9753	4.59713	-5.50607	0	
1.9760	5.81915	-4.89927	0	
1.9767	1.83303	-1.84285	0	
1.9773	-1.22202	-0.314632	0	
1.9780	-2.44404	-1.52821	0	
1.9787	-5.79005	-0.629265	0	
1.9793	-9.74707	-0.314632	0	
1.9800	-11.2891	-1.84285	0	
1.9807	-10.6781	-1.23606	0	
1.9813	-10.6781	-0.629265	0	
1.9820	-10.9691	-3.05643	0	
1.9827	-9.45612	-2.76427	0	
1.9833	-6.69202	-0.629265	0	
1.9840	-4.85899	-1.52821	0	
1.9847	-4.24798	-2.135	0	
1.9853	-6.08101	1.21358	0	
1.9860	-5.17904	2.7418	0	
1.9867	-0.611011	2.7418	0	
1.9873	1.22202	3.66322	0	
1.9880	-2.12399	3.95538	0	
1.9887	-2.12399	1.82037	0	
1.9893	1.22202	-0.314632	0	
1.9900	2.7641	-0.314632	0	
1.9907	3.98612	1.52821	0	
1.9913	3.98612	1.52821	0	
1.9920	-0.611011	-0.629265	0	
1.9927	-3.63697	0	0	
1.9933	-1.22202	3.34859	0	
1.9940	0.611011	4.27001	0	
1.9947	0	1.52821	0	
1.9953	0.320053	0	0	
1.9960	0	0.898949	0	
1.9967	-3.34601	3.03395	0	
1.9973	-6.69202	3.95538	0	
1.9980	-10.3581	3.95538	0	
1.9987	-15.2462	5.48359	0	
1.9993	-16.7591	7.32644	0	
2.0000	-13.4131	5.48359	0	
2.0007	-9.74707	2.42716	0	
2.0013	-7.30303	1.82037	0	
2.0020	-8.52505	2.42716	0	
2.0027	-10.9691	1.52821	0	
2.0033	-9.13606	0.606791	0	
2.0040	-7.01207	0.606791	0	
2.0047	-9.45612	1.52821	0	
2.0053	-9.45612	1.52821	0	
2.0060	-4.24798	0.606791	0	
2.0067	-0.611011	0.292159	0	
2.0073	3.05505	0	0	
2.0080	9.77617	-2.44964	0	
2.0087	11.2891	-3.05643	0	
2.0093	7.04117	-0.921423	0	
2.0100	6.11011	-2.135	0	
2.0107	9.48521	-4.89927	0	
2.0113	10.6781	-3.97785	0	
2.0120	9.77617	-2.44964	0	
2.0127	9.48521	-3.66322	0	
2.0133	8.26319	-3.05643	0	
2.0140	7.94314	-0.314632	0	
2.0147	10.3872	0	0	
2.0153	8.55415	-2.44964	0	
2.0160	3.98612	-3.97785	0	
2.0167	3.66606	-2.76427	0	
2.0173	3.05505	-2.135	0	
2.0180	-0.901968	-3.97785	0	
2.0187	-2.12399	-2.135	0	
2.0193	-1.51298	2.135	0	
2.0200	-2.735	1.82037	0	
2.0207	-0.611011	1.21358	0	
2.0213	1.54207	3.03395	0	
2.0220	-1.83303	0.606791	0	
2.0227	-4.24798	-3.05643	0	
2.0233	-1.51298	-2.76427	0	
2.0240	0.931064	-2.135	0	
2.0247	4.27707	-1.84285	0	
2.0253	8.55415	-0.314632	0	
2.0260	9.16516	0.898949	0	
2.0267	9.16516	0.898949	0	
2.0273	8.55415	2.135	0	
2.0280	3.98612	2.7418	0	
2.0287	1.22202	1.52821	0	
2.0293	4.27707	-1.23606	0	
2.0300	4.88808	-1.84285	0	
2.0307	2.15308	0.292159	0	
2.0313	1.22202	2.42716	0	
2.0320	0.320053	3.34859	0	
2.0327	-0.611011	4.27001	0	
2.0333	1.83303	3.34859	0	
2.0340	3.98612	1.52821	0	
2.0347	2.7641	0.898949	0	
2.0353	1.22202	-0.629265	0	
2.0360	-3.05505	-1.84285	0	
2.0367	-7.30303	-1.23606	0	
2.0373	-6.40106	-3.05643	0	
2.0380	-3.63697	-4.58464	0	
2.0387	-4.56803	0.292159	0	
2.0393	-7.91404	4.27001	0	
2.0400	-8.84511	2.135	0	
2.0407	-7.01207	0.606791	0	
2.0413	-5.47	2.42716	0	
2.0420	-6.40106	1.52821	0	
2.0427	-6.08101	0	0	
2.0433	-3.34601	2.135	0	
2.0440	-3.63697	5.19143	0	
2.0447	-5.17904	4.27001	0	
2.0453	-1.51298	1.21358	0	
2.0460	3.37511	0.898949	0	
2.0467	3.66606	0.606791	0	
2.0473	3.05505	-1.23606	0	
2.0480	4.88808	0.898949	0	
2.0487	7.33213	2.135	0	
2.0493	7.04117	-2.135	0	
2.0500	4.27707	-3.05643	0	
2.0507	2.7641	-1.23606	0	
2.0513	4.59713	-3.66322	0	
2.0520	6.72112	-4.27001	0	
2.0527	6.72112	-1.23606	0	
2.0533	7.04117	-2.44964	0	
2.0540	7.65218	-5.79822	0	
2.0547	6.72112	-2.76427	0	
2.0553	5.81915	1.52821	0	
2.0560	2.15308	1.52821	0	
2.0567	-3.95702	3.03395	0	
2.0573	-7.62308	4.27001	0	
2.0580	-5.17904	1.21358	0	
2.0587	0	-3.05643	0	
2.0593	2.44404	-3.97785	0	
2.0600	0	-0.921423	0	
2.0607	-3.95702	2.135	0	
2.0613	-6.69202	3.03395	0	
2.0620	-10.6781	2.135	0	
2.0627	-13.1222	1.82037	0	
2.0633	-9.74707	4.8768	0	
2.0640	-7.91404	8.83218	0	
2.0647	-7.62308	7.93323	0	
2.0653	-0.611011	4.27001	0	
2.0660	6.72112	4.27001	0	
2.0667	9.48521	5.79822	0	
2.0673	12.2202	4.27001	0	
2.0680	10.0962	2.42716	0	
2.0687	2.44404	1.52821	0	
2.0693	2.15308	0	0	
2.0700	9.16516	-0.314632	0	
2.0707	11.9002	-0.314632	0	
2.0713	12.2202	0.292159	0	
2.0720	13.4422	1.21358	0	
2.0727	11.9002	1.52821	0	
2.0733	9.48521	0	0	
2.0740	8.8742	-0.314632	0	
2.0747	5.20814	0.606791	0	
2.0753	0.320053	0.606791	0	
2.0760	-0.611011	0.292159	0	
2.0767	0.320053	-0.921423	0	
2.0773	-1.83303	-1.84285	0	
2.0780	-6.69202	-1.52821	0	
2.0787	-8.84511	-3.66322	0	
2.0793	-5.79005	-6.11286	0	
2.0800	-3.34601	-3.97785	0	
2.0807	-4.85899	-1.84285	0	
2.0813	-3.34601	-3.97785	0	
2.0820	-0.611011	-4.27001	0	
2.0827	-2.735	-1.84285	0	
2.0833	-1.83303	-3.05643	0	
2.0840	3.66606	-4.58464	0	
2.0847	3.05505	-3.97785	0	
2.0853	-0.901968	-3.97785	0	
2.0860	1.22202	-3.97785	0	
2.0867	4.27707	-3.66322	0	
2.0873	3.37511	-4.27001	0	
2.0880	4.88808	-5.79822	0	
2.0887	8.55415	-5.79822	0	
2.0893	11.2891	-6.11286	0	
2.0900	12.8312	-4.89927	0	
2.0907	9.48521	-3.66322	0	
2.0913	2.7641	-4.89927	0	
2.0920	-0.611011	-5.19143	0	
2.0927	-0.611011	-3.05643	0	
2.0933	-1.51298	-2.76427	0	
2.0940	-2.44404	-4.27001	0	
2.0947	-2.44404	-3.05643	0	
2.0953	-4.24798	-0.629265	0	
2.0960	-5.47	-1.23606	0	
2.0967	-5.79005	-2.44964	0	
2.0973	-6.40106	-1.23606	0	
2.0980	-9.13606	-0.314632	0	
2.0987	-12.1911	0.292159	0	
2.0993	-13.4131	0.898949	0	
2.1000	-12.8021	0.606791	0	
2.1007	-11.2891	-1.52821	0	
2.1013	-10.0671	-3.05643	0	
2.1020	-8.23409	-2.135	0	
2.1027	-3.95702	-2.135	0	
2.1033	-0.901968	-2.135	0	
2.1040	-3.34601	-2.135	0	
2.1047	-6.69202	-4.58464	0	
2.1053	-7.01207	-5.79822	0	
2.1060	-7.30303	-2.135	0	
2.1067	-7.01207	-1.23606	0	
2.1073	-4.24798	-3.97785	0	
2.1080	-0.901968	-2.135	0	
2.1087	2.15308	1.21358	0	
2.1093	4.88808	-1.84285	0	
2.1100	3.98612	-4.89927	0	
2.1107	3.05505	-1.84285	0	
2.1113	4.59713	0.606791	0	
2.1120	4.88808	-0.921423	0	
2.1127	5.20814	-0.921423	0	
2.1133	5.4991	0.898949	0	
2.1140	3.05505	0.898949	0	
2.1147	0.320053	-0.314632	0	
2.1153	-1.51298	-1.23606	0	
2.1160	-4.56803	-0.314632	0	
2.1167	-5.17904	1.52821	0	
2.1173	-3.63697	1.52821	0	
2.1180	-5.17904	-0.314632	0	
2.1187	-6.08101	0.292159	0	
2.1193	-3.05505	2.135	0	
2.1200	-3.34601	2.42716	0	
2.1207	-7.01207	2.42716	0	
2.1213	-7.91404	1.82037	0	
2.1220	-6.08101	0.898949	0	
2.1227	-2.44404	0.606791	0	
2.1233	-1.22202	0.898949	0	
2.1240	-2.735	-0.314632	0	
2.1247	-2.44404	-3.05643	0	
2.1253	0.320053	-4.89927	0	
2.1260	3.66606	-4.58464	0	
2.1267	11.6092	-3.37106	0	
2.1273	17.3993	-4.89927	0	
2.1280	12.2202	-7.64107	0	
2.1287	7.65218	-6.71965	0	
2.1293	11.6092	-3.97785	0	
2.1300	14.0532	-3.97785	0	
2.1307	10.9982	-6.71965	0	
2.1313	7.04117	-6.71965	0	
2.1320	5.81915	-5.19143	0	
2.1327	7.94314	-3.97785	0	
2.1333	9.48521	-2.135	0	
2.1340	7.33213	-1.23606	0	
2.1347	5.81915	-3.97785	0	
2.1353	7.65218	-5.19143	0	
2.1360	7.65218	-1.84285	0	
2.1367	4.88808	0.606791	0	
2.1373	2.7641	1.52821	0	
2.1380	1.22202	3.66322	0	
2.1387	-0.611011	5.19143	0	
2.1393	-2.12399	5.19143	0	
2.1400	0.320053	6.09038	0	
2.1407	1.54207	6.40501	0	
2.1413	-1.83303	7.01181	0	
2.1420	-4.24798	10.675	0	
2.1427	-0.611011	11.5964	0	
2.1433	-0.901968	8.83218	0	
2.1440	-9.74707	9.7536	0	
2.1447	-15.2462	11.2818	0	
2.1453	-10.6781	8.54002	0	
2.1460	-2.44404	7.01181	0	
2.1467	1.83303	8.83218	0	
2.1473	2.15308	7.93323	0	
2.1480	1.83303	5.19143	0	
2.1487	1.22202	4.27001	0	
2.1493	-0.901968	1.82037	0	
2.1500	0.611011	0.292159	0	
2.1507	3.98612	1.82037	0	
2.1513	0.320053	1.52821	0	
2.1520	-3.34601	-1.23606	0	
2.1527	1.54207	-0.314632	0	
2.1533	5.4991	1.21358	0	
2.1540	3.37511	0.606791	0	
2.1547	2.44404	2.135	0	
2.1553	1.22202	4.27001	0	
2.1560	-4.24798	2.7418	0	
2.1567	-7.62308	1.82037	0	
2.1573	-7.62308	3.34859	0	
2.1580	-6.08101	3.66322	0	
2.1587	-6.40106	3.34859	0	
2.1593	-10.6781	3.95538	0	
2.1600	-14.3442	2.7418	0	
2.1607	-13.4131	2.42716	0	
2.1613	-12.5112	4.56217	0	
2.1620	-11.9002	5.19143	0	
2.1627	-7.91404	5.48359	0	
2.1633	-3.95702	5.79822	0	
2.1640	-2.44404	3.34859	0	
2.1647	-0.290957	0.606791	0	
2.1653	1.54207	0.898949	0	
2.1660	2.15308	1.52821	0	
2.1667	2.15308	0.292159	0	
2.1673	3.37511	-1.84285	0	
2.1680	9.16516	-3.97785	0	
2.1687	12.2202	-3.97785	0	
2.1693	7.94314	-2.44964	0	
2.1700	5.20814	-0.921423	0	
2.1707	8.55415	-0.314632	0	
2.1713	9.16516	-2.135	0	
2.1720	6.72112	-4.27001	0	
2.1727	8.55415	-3.05643	0	
2.1733	9.48521	-2.135	0	
2.1740	6.43016	-5.79822	0	
2.1747	2.44404	-7.93323	0	
2.1753	1.54207	-3.97785	0	
2.1760	1.22202	-1.52821	0	
2.1767	0.320053	-3.97785	0	
2.1773	-0.901968	-4.58464	0	
2.1780	-0.901968	-3.05643	0	
2.1787	-1.51298	-2.76427	0	
2.1793	-3.34601	-4.58464	0	
2.1800	-4.24798	-3.97785	0	
2.1807	-5.17904	-1.23606	0	
2.1813	-7.01207	-0.314632	0	
2.1820	-7.30303	-2.44964	0	
2.1827	-8.23409	-3.05643	0	
2.1833	-8.52505	-0.629265	0	
2.1840	-5.47	1.21358	0	
2.1847	-3.34601	0.898949	0	
2.1853	-2.44404	-0.314632	0	
2.1860	2.44404	-1.84285	0	
2.1867	6.72112	-3.37106	0	
2.1873	4.88808	-4.58464	0	
2.1880	2.44404	-4.89927	0	
2.1887	4.59713	-3.97785	0	
2.1893	5.20814	-4.89927	0	
2.1900	3.05505	-6.11286	0	
2.1907	2.15308	-4.27001	0	
2.1913	3.37511	-3.05643	0	
2.1920	3.66606	-3.97785	0	
2.1927	3.98612	-3.97785	0	
2.1933	5.81915	-1.84285	0	
2.1940	6.11011	-1.52821	0	
2.1947	5.20814	-1.52821	0	
2.1953	6.72112	-1.52821	0	
2.1960	7.65218	-2.76427	0	
2.1967	5.4991	-1.84285	0	
2.1973	3.05505	-0.314632	0	
2.1980	2.15308	-1.84285	0	
2.1987	0.320053	-2.135	0	
2.1993	-0.611011	0.292159	0	
2.2000	2.15308	0	0	
2.2007	4.88808	-2.135	0	
2.2013	2.44404	-3.05643	0	
2.2020	-2.12399	-2.135	0	
2.2027	-4.24798	-1.52821	0	
2.2033	-2.44404	-2.44964	0	
2.2040	-1.22202	-3.05643	0	
2.2047	-3.34601	-1.52821	0	
2.2053	-6.69202	-1.23606	0	
2.2060	-5.79005	-1.23606	0	
2.2067	-2.735	1.82037	0	
2.2073	-2.12399	4.8768	0	
2.2080	-1.83303	3.03395	0	
2.2087	0.320053	1.82037	0	
2.2093	1.22202	3.95538	0	
2.2100	1.83303	3.95538	0	
2.2107	2.15308	2.42716	0	
2.2113	0.611011	3.34859	0	
2.2120	-1.51298	3.03395	0	
2.2127	-2.735	0.606791	0	
2.2133	-2.44404	0.898949	0	
2.2140	-0.290957	3.95538	0	
2.2147	-0.290957	4.56217	0	
2.2153	-4.24798	4.27001	0	
2.2160	-5.79005	4.8768	0	
2.2167	-5.17904	4.8768	0	
2.2173	-8.52505	5.19143	0	
2.2180	-9.74707	4.56217	0	
2.2187	-6.69202	3.03395	0	
2.2193	-6.69202	3.03395	0	
2.2200	-6.40106	4.27001	0	
2.2207	-3.34601	2.42716	0	
2.2213	-4.24798	1.52821	0	
2.2220	-5.17904	2.135	0	
2.2227	-5.17904	1.21358	0	
2.2233	-9.13606	-0.629265	0	
2.2240	-9.74707	-1.23606	0	
2.2247	-1.22202	-1.84285	0	
2.2253	3.05505	-1.23606	0	
2.2260	2.15308	0	0	
2.2267	4.27707	-1.23606	0	
2.2273	7.65218	-2.76427	0	
2.2280	10.0962	-2.135	0	
2.2287	12.5112	-1.52821	0	
2.2293	11.2891	-0.314632	0	
2.2300	8.8742	1.52821	0	
2.2307	10.9982	1.21358	0	
2.2313	12.2202	0.606791	0	
2.2320	10.0962	-0.629265	0	
2.2327	8.26319	-1.84285	0	
2.2333	7.65218	-0.314632	0	
2.2340	5.81915	1.82037	0	
2.2347	3.98612	0.898949	0	
2.2353	3.37511	0.898949	0	
2.2360	2.44404	2.42716	0	
2.2367	0.320053	1.52821	0	
2.2373	-2.12399	-0.314632	0	
2.2380	-5.17904	0.292159	0	
2.2387	-7.01207	3.03395	0	
2.2393	-7.30303	6.40501	0	
2.2400	-11.5801	7.6186	0	
2.2407	-17.9812	5.19143	0	
2.2413	-16.7591	2.42716	0	
2.2420	-11.2891	1.52821	0	
2.2427	-9.74707	2.42716	0	
2.2433	-9.13606	2.42716	0	
2.2440	-9.74707	1.21358	0	
2.2447	-12.5112	-0.314632	0	
2.2453	-11.5801	0.292159	0	
2.2460	-8.23409	3.34859	0	
2.2467	-7.91404	5.48359	0	
2.2473	-5.47	2.42716	0	
2.2480	-2.735	-1.84285	0	
2.2487	-4.24798	0	0	
2.2493	-2.735	1.52821	0	
2.2500	3.05505	-2.44964	0	
2.2507	6.11011	-4.27001	0	
2.2513	8.26319	-2.135	0	
2.2520	7.65218	-2.135	0	
2.2527	-0.290957	-3.66322	0	
2.2533	-6.69202	-2.135	0	
2.2540	-4.56803	-1.23606	0	
2.2547	-1.22202	-2.135	0	
2.2553	1.22202	-3.05643	0	
2.2560	3.37511	-3.97785	0	
2.2567	1.22202	-3.37106	0	
2.2573	-3.34601	-2.135	0	
2.2580	-4.85899	-2.135	0	
2.2587	-5.17904	-3.05643	0	
2.2593	-5.17904	-3.05643	0	
2.2600	-4.24798	-2.135	0	
2.2607	-3.63697	-1.52821	0	
2.2613	-4.85899	-3.05643	0	
2.2620	-6.08101	-3.05643	0	
2.2627	-7.91404	0.898949	0	
2.2633	-9.13606	4.27001	0	
2.2640	-7.91404	4.27001	0	
2.2647	-6.08101	4.56217	0	
2.2653	-4.85899	4.56217	0	
2.2660	-0.611011	3.03395	0	
2.2667	3.66606	5.19143	0	
2.2673	3.05505	7.01181	0	
2.2680	2.15308	2.7418	0	
2.2687	4.59713	-0.314632	0	
2.2693	6.72112	1.52821	0	
2.2700	6.43016	1.21358	0	
2.2707	5.81915	-2.135	0	
2.2713	7.04117	-2.44964	0	
2.2720	7.65218	-1.23606	0	
2.2727	6.43016	-1.84285	0	
2.2733	5.81915	-3.05643	0	
2.2740	6.11011	-2.135	0	
2.2747	3.98612	-0.629265	0	
2.2753	0.320053	-1.23606	0	
2.2760	-1.51298	-3.97785	0	
2.2767	-1.83303	-3.66322	0	
2.2773	-0.611011	-0.921423	0	
2.2780	1.22202	-0.921423	0	
2.2787	0.611011	-1.84285	0	
2.2793	-3.34601	-0.629265	0	
2.2800	-5.47	-2.44964	0	
2.2807	-3.34601	-4.89927	0	
2.2813	-0.611011	-1.84285	0	
2.2820	-0.611011	1.52821	0	
2.2827	1.22202	-1.23606	0	
2.2833	5.20814	-3.97785	0	
2.2840	5.81915	-3.66322	0	
2.2847	2.7641	-3.05643	0	
2.2853	3.98612	-2.44964	0	
2.2860	9.16516	-0.921423	0	
2.2867	8.55415	1.21358	0	
2.2873	3.98612	0.898949	0	
2.2880	5.4991	-3.37106	0	
2.2887	9.77617	-5.79822	0	
2.2893	9.48521	-4.58464	0	
2.2900	8.55415	-3.97785	0	
2.2907	10.9982	-4.89927	0	
2.2913	13.1222	-5.19143	0	
2.2920	12.8312	-5.19143	0	
2.2927	11.2891	-4.89927	0	
2.2933	7.65218	-4.27001	0	
2.2940	5.4991	-4.89927	0	
2.2947	4.88808	-3.97785	0	
2.2953	2.15308	-2.44964	0	
2.2960	-0.901968	-3.37106	0	
2.2967	-1.22202	-1.84285	0	
2.2973	0.320053	1.52821	0	
2.2980	0	0.606791	0	
2.2987	-3.95702	-0.314632	0	
2.2993	-4.56803	1.52821	0	
2.3000	-1.22202	0.898949	0	
2.3007	-3.34601	0.898949	0	
2.3013	-8.23409	4.56217	0	
2.3020	-5.17904	6.09038	0	
2.3027	0	4.27001	0	
2.3033	-2.44404	4.27001	0	
2.3040	-5.79005	5.19143	0	
2.3047	-5.47	6.09038	0	
2.3053	-5.17904	5.19143	0	
2.3060	-4.24798	4.27001	0	
2.3067	-2.12399	5.19143	0	
2.3073	0.320053	5.19143	0	
2.3080	2.15308	1.82037	0	
2.3087	1.22202	-3.05643	0	
2.3093	-3.34601	-3.97785	0	
2.3100	-4.56803	-0.629265	0	
2.3107	-1.83303	-0.314632	0	
2.3113	0.611011	-3.37106	0	
2.3120	2.15308	-2.135	0	
2.3127	3.98612	0.292159	0	
2.3133	3.98612	-3.97785	0	
2.3140	3.66606	-5.79822	0	
2.3147	3.05505	-1.84285	0	
2.3153	-1.51298	-2.44964	0	
2.3160	-8.52505	-3.97785	0	
2.3167	-10.6781	-0.629265	0	
2.3173	-8.84511	0.898949	0	
2.3180	-8.52505	-0.921423	0	
2.3187	-10.0671	-0.314632	0	
2.3193	-10.6781	0.898949	0	
2.3200	-7.91404	0.898949	0	
2.3207	-5.47	3.66322	0	
2.3213	-6.69202	7.01181	0	
2.3220	-9.13606	8.83218	0	
2.3227	-9.13606	9.46144	0	
2.3233	-8.52505	7.32644	0	
2.3240	-8.52505	4.27001	0	
2.3247	-6.40106	3.03395	0	
2.3253	-3.95702	4.56217	0	
2.3260	-3.63697	6.69717	0	
2.3267	-2.735	7.32644	0	
2.3273	-1.51298	7.6186	0	
2.3280	-1.83303	8.54002	0	
2.3287	-0.611011	8.22539	0	
2.3293	3.05505	7.6186	0	
2.3300	4.27707	7.01181	0	
2.3307	1.83303	6.40501	0	
2.3313	1.22202	7.01181	0	
2.3320	3.98612	7.6186	0	
2.3327	6.72112	5.19143	0	
2.3333	8.26319	2.42716	0	
2.3340	10.6781	3.03395	0	
2.3347	12.8312	4.8768	0	
2.3353	13.1222	3.34859	0	
2.3360	12.2202	0.606791	0	
2.3367	9.77617	-0.314632	0	
2.3373	5.20814	0.606791	0	
2.3380	2.15308	2.135	0	
2.3387	1.22202	0.606791	0	
2.3393	0.320053	-3.05643	0	
2.3400	-0.901968	-3.66322	0	
2.3407	-1.22202	-1.52821	0	
2.3413	-0.611011	-1.23606	0	
2.3420	0.320053	-1.52821	0	
2.3427	-2.12399	-1.23606	0	
2.3433	-5.17904	-1.84285	0	
2.3440	-2.44404	-3.05643	0	
2.3447	0.931064	-2.76427	0	
2.3453	0.931064	-1.84285	0	
2.3460	2.7641	-1.52821	0	
2.3467	4.27707	-3.66322	0	
2.3473	2.15308	-7.32644	0	
2.3480	2.15308	-8.24786	0	
2.3487	3.66606	-4.89927	0	
2.3493	0	-3.05643	0	
2.3500	-0.611011	-2.44964	0	
2.3507	4.88808	-0.629265	0	
2.3513	6.43016	0	0	
2.3520	4.88808	-0.314632	0	
2.3527	6.72112	0.606791	0	
2.3533	6.72112	0.898949	0	
2.3540	2.15308	-1.52821	0	
2.3547	0.320053	-3.37106	0	
2.3553	-0.611011	-3.66322	0	
2.3560	-5.17904	-3.37106	0	
2.3567	-8.84511	-2.135	0	
2.3573	-8.84511	-1.84285	0	
2.3580	-12.8021	-3.97785	0	
2.3587	-17.6902	-5.79822	0	
2.3593	-14.0241	-4.89927	0	
2.3600	-9.45612	-4.89927	0	
2.3607	-12.5112	-5.79822	0	
2.3613	-13.7332	-5.79822	0	
2.3620	-9.45612	-5.50607	0	
2.3627	-8.84511	-5.79822	0	
2.3633	-12.5112	-3.97785	0	
2.3640	-12.5112	-2.135	0	
2.3647	-8.84511	-2.135	0	
2.3653	-4.56803	-2.76427	0	
2.3660	-1.83303	-3.66322	0	
2.3667	-2.44404	-6.42749	0	
2.3673	-0.901968	-7.93323	0	
2.3680	5.20814	-7.03428	0	
2.3687	10.6781	-6.71965	0	
2.3693	12.5112	-8.56249	0	
2.3700	12.2202	-9.16928	0	
2.3707	9.77617	-8.56249	0	
2.3713	6.11011	-8.56249	0	
2.3720	5.81915	-7.93323	0	
2.3727	7.94314	-5.79822	0	
2.3733	9.77617	-3.97785	0	
2.3740	8.8742	-3.97785	0	
2.3747	5.20814	-3.97785	0	
2.3753	2.7641	-3.05643	0	
2.3760	1.83303	-1.52821	0	
2.3767	-0.611011	0.292159	0	
2.3773	-6.08101	0.606791	0	
2.3780	-9.74707	-0.314632	0	
2.3787	-9.74707	1.52821	0	
2.3793	-8.23409	3.34859	0	
2.3800	-7.30303	1.52821	0	
2.3807	-6.08101	-0.629265	0	
2.3813	-3.34601	-1.23606	0	
2.3820	-4.24798	-1.23606	0	
2.3827	-8.23409	0.606791	0	
2.3833	-8.84511	3.34859	0	
2.3840	-7.91404	3.34859	0	
2.3847	-8.23409	2.42716	0	
2.3853	-4.85899	3.03395	0	
2.3860	-0.611011	2.42716	0	
2.3867	-3.34601	0.606791	0	
2.3873	-4.24798	2.135	0	
2.3880	2.15308	2.42716	0	
2.3887	5.20814	0.606791	0	
2.3893	3.05505	0.606791	0	
2.3900	4.88808	0.898949	0	
2.3907	7.33213	-0.629265	0	
2.3913	4.59713	-0.314632	0	
2.3920	4.59713	2.42716	0	
2.3927	8.26319	3.95538	0	
2.3933	5.20814	3.95538	0	
2.3940	0.611011	1.82037	0	
2.3947	3.98612	-0.921423	0	
2.3953	8.55415	-1.23606	0	
2.3960	5.20814	-0.921423	0	
2.3967	1.83303	-1.52821	0	
2.3973	1.54207	-0.314632	0	
2.3980	-0.611011	0.898949	0	
2.3987	-2.44404	-0.921423	0	
2.3993	-0.901968	-1.23606	0	
2.4000	-0.290957	0.292159	0	
2.4007	-2.735	-1.23606	0	
2.4013	-3.05505	-2.135	0	
2.4020	0.611011	-0.629265	0	
2.4027	2.7641	0.292159	0	
2.4033	2.44404	-0.629265	0	
2.4040	2.7641	-1.84285	0	
2.4047	2.7641	-1.84285	0	
2.4053	0.320053	-0.314632	0	
2.4060	0.611011	0.898949	0	
2.4067	3.66606	1.82037	0	
2.4073	3.66606	3.66322	0	
2.4080	2.44404	3.03395	0	
2.4087	6.43016	-0.314632	0	
2.4093	10.0962	-0.314632	0	
2.4100	9.48521	1.21358	0	
2.4107	10.6781	0.292159	0	
2.4113	15.8863	-1.23606	0	
2.4120	16.7882	-0.629265	0	
2.4127	12.8312	0	0	
2.4133	10.3872	0.292159	0	
2.4140	7.65218	-0.921423	0	
2.4147	2.15308	-3.05643	0	
2.4153	2.15308	-3.05643	0	
2.4160	7.65218	-3.05643	0	
2.4167	5.20814	-5.79822	0	
2.4173	-2.12399	-7.64107	0	
2.4180	-4.24798	-5.79822	0	
2.4187	-4.56803	-3.97785	0	
2.4193	-7.01207	-2.44964	0	
2.4200	-7.62308	0	0	
2.4207	-6.08101	1.21358	0	
2.4213	-4.24798	0	0	
2.4220	-3.34601	0.292159	0	
2.4227	-5.17904	0.898949	0	
2.4233	-6.69202	1.52821	0	
2.4240	-3.95702	3.03395	0	
2.4247	0.931064	2.42716	0	
2.4253	3.05505	0.606791	0	
2.4260	2.44404	1.52821	0	
2.4267	2.7641	3.34859	0	
2.4273	5.81915	1.82037	0	
2.4280	6.72112	0	0	
2.4287	5.81915	0.898949	0	
2.4293	8.55415	0.606791	0	
2.4300	11.6092	-3.05643	0	
2.4307	10.6781	-4.89927	0	
2.4313	11.9002	-2.76427	0	
2.4320	14.9552	-3.05643	0	
2.4327	11.9002	-5.79822	0	
2.4333	9.48521	-6.42749	0	
2.4340	12.2202	-7.03428	0	
2.4347	12.2202	-7.03428	0	
2.4353	7.04117	-2.76427	0	
2.4360	2.44404	0.606791	0	
2.4367	-1.51298	-2.135	0	
2.4373	-5.47	-2.44964	0	
2.4380	-7.01207	0.606791	0	
2.4387	-7.01207	1.21358	0	
2.4393	-8.84511	1.52821	0	
2.4400	-9.13606	3.34859	0	
2.4407	-9.45612	1.52821	0	
2.4413	-12.5112	-0.921423	0	
2.4420	-13.4131	1.21358	0	
2.4427	-10.0671	2.42716	0	
2.4433	-9.13606	-0.314632	0	
2.4440	-8.52505	-1.84285	0	
2.4447	-5.17904	-1.23606	0	
2.4453	-4.24798	-1.52821	0	
2.4460	-5.47	-2.135	0	
2.4467	-3.05505	-2.44964	0	
2.4473	0.611011	-3.66322	0	
2.4480	1.22202	-3.97785	0	
2.4487	3.05505	-3.97785	0	
2.4493	4.59713	-4.89927	0	
2.4500	3.66606	-5.79822	0	
2.4507	3.98612	-3.97785	0	
2.4513	3.66606	-3.05643	0	
2.4520	0.931064	-3.97785	0	
2.4527	-0.611011	-4.27001	0	
2.4533	0.931064	-3.97785	0	
2.4540	1.83303	-3.05643	0	
2.4547	1.83303	-2.135	0	
2.4553	-0.290957	-3.37106	0	
2.4560	-2.44404	-5.19143	0	
2.4567	-3.05505	-3.97785	0	
2.4573	-5.47	-1.52821	0	
2.4580	-10.0671	-2.135	0	
2.4587	-10.6781	-2.76427	0	
2.4593	-7.01207	-0.629265	0	
2.4600	-6.40106	1.21358	0	
2.4607	-8.23409	2.42716	0	
2.4613	-7.62308	2.42716	0	
2.4620	-6.08101	0.606791	0	
2.4627	-8.84511	1.82037	0	
2.4633	-12.8021	3.95538	0	
2.4640	-10.3581	1.82037	0	
2.4647	-4.56803	0	0	
2.4653	-4.24798	1.21358	0	
2.4660	-6.08101	2.135	0	
2.4667	-3.05505	3.34859	0	
2.4673	1.22202	6.09038	0	
2.4680	1.22202	7.6186	0	
2.4687	0.611011	7.93323	0	
2.4693	4.88808	6.40501	0	
2.4700	9.77617	3.95538	0	
2.4707	10.3872	3.34859	0	
2.4713	9.48521	2.42716	0	
2.4720	7.94314	0.606791	0	
2.4727	6.43016	3.66322	0	
2.4733	5.4991	7.6186	0	
2.4740	4.88808	5.19143	0	
2.4747	3.66606	2.42716	0	
2.4753	1.54207	3.34859	0	
2.4760	-0.611011	4.27001	0	
2.4767	-1.83303	5.79822	0	
2.4773	-0.901968	6.69717	0	
2.4780	-0.611011	5.19143	0	
2.4787	-2.44404	5.19143	0	
2.4793	-4.56803	6.69717	0	
2.4800	-6.08101	4.8768	0	
2.4807	-6.69202	3.66322	0	
2.4813	-4.24798	3.95538	0	
2.4820	-1.51298	3.34859	0	
2.4827	-2.12399	3.34859	0	
2.4833	-2.44404	4.27001	0	
2.4840	-1.51298	2.42716	0	
2.4847	-2.735	1.52821	0	
2.4853	-3.95702	3.95538	0	
2.4860	-0.901968	3.66322	0	
2.4867	2.15308	0.898949	0	
2.4873	3.05505	1.52821	0	
2.4880	5.4991	2.135	0	
2.4887	6.72112	-0.314632	0	
2.4893	3.98612	-1.23606	0	
2.4900	1.22202	0.292159	0	
2.4907	2.44404	0.292159	0	
2.4913	4.88808	-2.76427	0	
2.4920	6.43016	-3.97785	0	
2.4927	8.26319	-0.921423	0	
2.4933	8.8742	2.135	0	
2.4940	6.43016	2.42716	0	
2.4947	2.7641	1.21358	0	
2.4953	2.15308	1.21358	0	
2.4960	2.44404	2.42716	0	
2.4967	-0.611011	3.34859	0	
2.4973	-4.56803	3.34859	0	
2.4980	-5.17904	3.03395	0	
2.4987	-3.95702	3.66322	0	
2.4993	-2.735	4.8768	0	
2.5000	-1.83303	7.01181	0	
2.5007	-3.05505	7.32644	0	
2.5013	-3.95702	4.27001	0	
2.5020	-3.34601	2.135	0	
2.5027	-3.05505	2.7418	0	
2.5033	-2.44404	3.03395	0	
2.5040	-2.12399	2.42716	0	
2.5047	-1.51298	2.7418	0	
2.5053	2.15308	2.7418	0	
2.5060	7.04117	1.52821	0	
2.5067	7.04117	1.52821	0	
2.5073	5.4991	1.82037	0	
2.5080	4.88808	-1.23606	0	
2.5087	1.22202	-4.27001	0	
2.5093	0.611011	-3.05643	0	
2.5100	4.88808	-0.921423	0	
2.5107	7.65218	-2.44964	0	
2.5113	6.43016	-3.97785	0	
2.5120	2.15308	-2.76427	0	
2.5127	-3.63697	-3.05643	0	
2.5133	-6.08101	-4.89927	0	
2.5140	-4.24798	-5.79822	0	
2.5147	-2.44404	-4.89927	0	
2.5153	-4.24798	-3.97785	0	
2.5160	-7.01207	-3.05643	0	
2.5167	-6.08101	-3.05643	0	
2.5173	-2.44404	-3.05643	0	
2.5180	-3.63697	-0.921423	0	
2.5187	-5.17904	1.21358	0	
2.5193	-1.83303	1.52821	0	
2.5200	-3.34601	0.898949	0	
2.5207	-8.23409	0.606791	0	
2.5213	-6.08101	1.21358	0	
2.5220	-0.611011	2.7418	0	
2.5227	1.83303	3.95538	0	
2.5233	3.05505	3.34859	0	
2.5240	0.611011	3.34859	0	
2.5247	-2.735	3.34859	0	
2.5253	-0.611011	2.135	0	
2.5260	2.44404	1.21358	0	
2.5267	3.98612	1.82037	0	
2.5273	6.72112	3.03395	0	
2.5280	6.72112	3.95538	0	
2.5287	3.05505	3.03395	0	
2.5293	0.320053	0.898949	0	
2.5300	-1.51298	2.42716	0	
2.5307	-0.611011	5.48359	0	
2.5313	1.22202	5.19143	0	
2.5320	-2.12399	4.8768	0	
2.5327	-4.56803	7.01181	0	
2.5333	1.22202	6.09038	0	
2.5340	3.05505	2.135	0	
2.5347	-1.83303	1.82037	0	
2.5353	-1.51298	4.8768	0	
2.5360	0.320053	7.01181	0	
2.5367	-4.85899	6.09038	0	
2.5373	-9.74707	2.42716	0	
2.5380	-8.23409	1.21358	0	
2.5387	-4.24798	2.42716	0	
2.5393	-2.44404	1.52821	0	
2.5400	-2.44404	1.21358	0	
2.5407	-1.51298	3.34859	0	
2.5413	1.22202	2.42716	0	
2.5420	-2.12399	-0.314632	0	
2.5427	-9.13606	1.21358	0	
2.5433	-10.6781	1.52821	0	
2.5440	-7.01207	-0.314632	0	
2.5447	-1.51298	1.52821	0	
2.5453	2.7641	3.66322	0	
2.5460	3.98612	0.898949	0	
2.5467	3.66606	-3.37106	0	
2.5473	7.65218	-3.97785	0	
2.5480	11.9002	-2.135	0	
2.5487	8.55415	-1.23606	0	
2.5493	3.05505	-0.921423	0	
2.5500	1.83303	-0.629265	0	
2.5507	2.15308	-2.44964	0	
2.5513	2.7641	-3.97785	0	
2.5520	2.44404	-3.05643	0	
2.5527	-0.611011	-2.44964	0	
2.5533	-3.05505	-2.76427	0	
2.5540	-0.901968	-1.23606	0	
2.5547	0.320053	-0.314632	0	
2.5553	-0.611011	-2.135	0	
2.5560	-0.290957	-1.23606	0	
2.5567	-1.51298	0.606791	0	
2.5573	-4.56803	-0.314632	0	
2.5580	-5.79005	-2.135	0	
2.5587	-7.91404	-3.05643	0	
2.5593	-10.6781	-2.135	0	
2.5600	-7.30303	0.292159	0	
2.5607	-2.735	1.52821	0	
2.5613	-3.05505	-0.314632	0	
2.5620	-4.24798	-1.23606	0	
2.5627	-4.24798	-0.921423	0	
2.5633	-4.24798	-3.05643	0	
2.5640	-2.735	-6.71965	0	
2.5647	0.320053	-6.71965	0	
2.5653	0.931064	-3.05643	0	
2.5660	1.22202	-2.135	0	
2.5667	3.66606	-4.89927	0	
2.5673	5.20814	-5.79822	0	
2.5680	3.66606	-4.89927	0	
2.5687	1.22202	-6.71965	0	
2.5693	1.54207	-9.46144	0	
2.5700	3.98612	-8.85465	0	
2.5707	4.88808	-8.56249	0	
2.5713	6.11011	-10.0682	0	
2.5720	10.3872	-11.3043	0	
2.5727	10.9982	-10.3829	0	
2.5733	4.88808	-9.46144	0	
2.5740	2.7641	-10.3829	0	
2.5747	5.81915	-10.3829	0	
2.5753	5.81915	-8.24786	0	
2.5760	2.15308	-8.24786	0	
2.5767	0	-8.24786	0	
2.5773	-3.34601	-4.89927	0	
2.5780	-7.91404	-2.135	0	
2.5787	-10.6781	-3.05643	0	
2.5793	-9.74707	-3.05643	0	
2.5800	-7.91404	-1.84285	0	
2.5807	-5.17904	0.606791	0	
2.5813	-5.17904	3.03395	0	
2.5820	-8.84511	2.135	0	
2.5827	-12.5112	0.292159	0	
2.5833	-12.1911	3.66322	0	
2.5840	-7.91404	5.79822	0	
2.5847	-3.95702	3.95538	0	
2.5853	-2.735	4.27001	0	
2.5860	-0.611011	6.09038	0	
2.5867	2.7641	4.8768	0	
2.5873	4.59713	1.82037	0	
2.5880	4.59713	-0.629265	0	
2.5887	4.88808	0.898949	0	
2.5893	3.98612	6.09038	0	
2.5900	0.611011	6.09038	0	
2.5907	-0.611011	1.52821	0	
2.5913	1.83303	1.52821	0	
2.5920	4.59713	3.34859	0	
2.5927	5.81915	2.135	0	
2.5933	6.11011	-0.629265	0	
2.5940	4.88808	-2.44964	0	
2.5947	2.15308	-1.52821	0	
2.5953	-1.22202	1.52821	0	
2.5960	-3.63697	0.292159	0	
2.5967	-2.44404	-3.05643	0	
2.5973	0.931064	-2.135	0	
2.5980	0.931064	-1.23606	0	
2.5987	1.54207	-1.84285	0	
2.5993	3.98612	-0.921423	0	
2.6000	3.05505	-0.921423	0	
2.6007	1.54207	-2.135	0	
2.6013	2.7641	-1.23606	0	
2.6020	0.320053	-0.921423	0	
2.6027	-3.34601	-2.135	0	
2.6033	-3.63697	-1.84285	0	
2.6040	-3.63697	-1.52821	0	
2.6047	-3.05505	-0.629265	0	
2.6053	0.611011	1.52821	0	
2.6060	3.05505	2.135	0	
2.6067	4.88808	0.898949	0	
2.6073	6.43016	0	0	
2.6080	4.59713	-1.23606	0	
2.6087	3.66606	-0.314632	0	
2.6093	4.88808	2.7418	0	
2.6100	3.98612	3.66322	0	
2.6107	4.27707	2.135	0	
2.6113	7.33213	0.606791	0	
2.6120	6.72112	-0.314632	0	
2.6127	4.88808	-0.629265	0	
2.6133	6.72112	-0.314632	0	
2.6140	6.72112	-0.314632	0	
2.6147	5.81915	2.42716	0	
2.6153	6.72112	3.34859	0	
2.6160	2.7641	-0.629265	0	
2.6167	-1.83303	-3.05643	0	
2.6173	0.320053	-1.84285	0	
2.6180	1.22202	-0.921423	0	
2.6187	-0.611011	-0.629265	0	
2.6193	0.931064	-0.921423	0	
2.6200	-1.51298	-2.135	0	
2.6207	-10.6781	-1.84285	0	
2.6213	-10.3581	0.292159	0	
2.6220	-1.51298	-0.314632	0	
2.6227	-1.51298	-2.44964	0	
2.6233	-5.17904	-2.76427	0	
2.6240	-2.12399	-1.23606	0	
2.6247	1.22202	-0.629265	0	
2.6253	0.611011	-2.76427	0	
2.6260	0.931064	-4.89927	0	
2.6267	2.15308	-4.89927	0	
2.6273	3.98612	-3.97785	0	
2.6280	7.33213	-4.89927	0	
2.6287	9.16516	-6.42749	0	
2.6293	10.3872	-6.42749	0	
2.6300	12.8312	-5.79822	0	
2.6307	13.4422	-7.32644	0	
2.6313	10.3872	-7.64107	0	
2.6320	9.16516	-5.50607	0	
2.6327	10.0962	-5.19143	0	
2.6333	7.33213	-5.79822	0	
2.6340	1.83303	-3.37106	0	
2.6347	-1.83303	-1.23606	0	
2.6353	-1.83303	-0.629265	0	
2.6360	-0.290957	1.52821	0	
2.6367	-2.735	3.03395	0	
2.6373	-7.62308	1.21358	0	
2.6380	-8.84511	0.898949	0	
2.6387	-9.13606	2.7418	0	
2.6393	-11.5801	2.7418	0	
2.6400	-8.84511	4.27001	0	
2.6407	-5.17904	6.40501	0	
2.6413	-7.30303	7.01181	0	
2.6420	-8.52505	6.69717	0	
2.6427	-6.69202	6.69717	0	
2.6433	-7.91404	5.19143	0	
2.6440	-6.08101	3.03395	0	
2.6447	0.320053	2.42716	0	
2.6453	2.15308	3.34859	0	
2.6460	1.54207	3.34859	0	
2.6467	2.15308	2.135	0	
2.6473	1.54207	1.82037	0	
2.6480	3.98612	3.03395	0	
2.6487	6.11011	1.21358	0	
2.6493	0.320053	-0.921423	0	
2.6500	-6.08101	-0.314632	0	
2.6507	-5.17904	-0.314632	0	
2.6513	-5.17904	0.606791	0	
2.6520	-6.69202	2.135	0	
2.6527	-2.12399	0.606791	0	
2.6533	1.22202	-2.135	0	
2.6540	-0.611011	-2.135	0	
2.6547	-1.22202	-1.23606	0	
2.6553	-1.22202	-1.84285	0	
2.6560	-4.56803	-2.135	0	
2.6567	-6.69202	-2.135	0	
2.6573	-7.91404	-0.921423	0	
2.6580	-11.9002	-0.314632	0	
2.6587	-14.0241	-2.44964	0	
2.6593	-12.1911	-4.58464	0	
2.6600	-12.1911	-3.97785	0	
2.6607	-12.8021	-1.52821	0	
2.6613	-10.9691	1.21358	0	
2.6620	-11.5801	2.42716	0	
2.6627	-12.1911	1.52821	0	
2.6633	-9.74707	1.52821	0	
2.6640	-8.84511	1.52821	0	
2.6647	-7.91404	1.52821	0	
2.6653	-3.63697	3.66322	0	
2.6660	-1.51298	5.48359	0	
2.6667	-0.611011	4.56217	0	
2.6673	3.66606	3.66322	0	
2.6680	5.81915	2.7418	0	
2.6687	2.15308	0	0	
2.6693	1.83303	-1.23606	0	
2.6700	5.4991	0.898949	0	
2.6707	5.20814	0.292159	0	
2.6713	1.54207	-3.37106	0	
2.6720	2.44404	-4.89927	0	
2.6727	6.72112	-3.05643	0	
2.6733	8.55415	-1.23606	0	
2.6740	8.55415	-3.05643	0	
2.6747	8.55415	-4.58464	0	
2.6753	7.65218	-1.23606	0	
2.6760	4.88808	1.52821	0	
2.6767	3.37511	-0.921423	0	
2.6773	1.83303	-2.44964	0	
2.6780	-0.611011	-0.314632	0	
2.6787	-2.44404	0.292159	0	
2.6793	-1.83303	-0.629265	0	
2.6800	1.22202	0.292159	0	
2.6807	2.44404	0.606791	0	
2.6813	-2.12399	-0.629265	0	
2.6820	-7.91404	-3.05643	0	
2.6827	-7.01207	-4.27001	0	
2.6833	-4.24798	-1.23606	0	
2.6840	-5.17904	3.34859	0	
2.6847	-2.44404	0.898949	0	
2.6853	2.44404	-2.135	0	
2.6860	5.4991	0.292159	0	
2.6867	9.48521	1.52821	0	
2.6873	13.1222	-1.23606	0	
2.6880	11.9002	-1.84285	0	
2.6887	8.8742	-2.135	0	
2.6893	7.65218	-3.97785	0	
2.6900	7.33213	-3.97785	0	
2.6907	7.94314	-2.135	0	
2.6913	8.55415	-0.921423	0	
2.6920	8.8742	-2.135	0	
2.6927	10.0962	-3.66322	0	
2.6933	8.8742	-3.97785	0	
2.6940	7.33213	-3.05643	0	
2.6947	7.65218	-3.05643	0	
2.6953	5.81915	-3.05643	0	
2.6960	2.15308	-2.135	0	
2.6967	2.15308	-1.23606	0	
2.6973	1.22202	0.606791	0	
2.6980	-4.24798	0.606791	0	
2.6987	-7.01207	-2.135	0	
2.6993	-5.17904	-3.97785	0	
2.7000	-2.44404	-2.44964	0	
2.7007	0	0.606791	0	
2.7013	-0.290957	1.21358	0	
2.7020	-1.51298	0.292159	0	
2.7027	0	0.292159	0	
2.7033	1.83303	-0.314632	0	
2.7040	2.7641	-1.52821	0	
2.7047	4.27707	0.292159	0	
2.7053	5.81915	3.66322	0	
2.7060	6.72112	3.66322	0	
2.7067	7.65218	2.42716	0	
2.7073	5.4991	5.19143	0	
2.7080	3.98612	7.93323	0	
2.7087	7.65218	6.40501	0	
2.7093	10.3872	5.19143	0	
2.7100	7.04117	5.48359	0	
2.7107	3.37511	5.19143	0	
2.7113	4.59713	4.27001	0	
2.7120	7.94314	5.19143	0	
2.7127	10.9982	6.09038	0	
2.7133	12.2202	6.09038	0	
2.7140	8.55415	5.19143	0	
2.7147	0.611011	4.27001	0	
2.7153	-4.24798	2.7418	0	
2.7160	-2.44404	3.34859	0	
2.7167	-2.44404	6.40501	0	
2.7173	-6.40106	7.01181	0	
2.7180	-6.69202	2.7418	0	
2.7187	-3.95702	2.42716	0	
2.7193	-3.34601	7.32644	0	
2.7200	-3.05505	7.93323	0	
2.7207	-5.17904	4.27001	0	
2.7213	-10.9691	4.8768	0	
2.7220	-11.9002	6.40501	0	
2.7227	-5.47	4.56217	0	
2.7233	-2.44404	4.56217	0	
2.7240	-4.56803	5.48359	0	
2.7247	-5.17904	3.95538	0	
2.7253	-2.12399	3.95538	0	
2.7260	1.83303	3.34859	0	
2.7267	5.20814	-1.23606	0	
2.7273	6.72112	-2.44964	0	
2.7280	7.65218	-1.52821	0	
2.7287	8.8742	-4.27001	0	
2.7293	10.3872	-4.89927	0	
2.7300	9.77617	-2.44964	0	
2.7307	7.04117	-3.97785	0	
2.7313	3.37511	-5.50607	0	
2.7320	0.320053	-1.23606	0	
2.7327	0.320053	0	0	
2.7333	0.931064	-2.76427	0	
2.7340	0.611011	-0.921423	0	
2.7347	1.22202	0.606791	0	
2.7353	1.22202	-1.84285	0	
2.7360	-2.12399	-0.314632	0	
2.7367	-3.05505	3.95538	0	
2.7373	-1.51298	3.03395	0	
2.7380	-4.56803	0.898949	0	
2.7387	-7.91404	2.42716	0	
2.7393	-6.08101	2.42716	0	
2.7400	-4.85899	1.21358	0	
2.7407	-7.91404	2.135	0	
2.7413	-11.5801	1.52821	0	
2.7420	-12.5112	-0.629265	0	
2.7427	-9.13606	1.21358	0	
2.7433	-4.56803	4.27001	0	
2.7440	-2.735	3.34859	0	
2.7447	-4.24798	2.7418	0	
2.7453	-6.08101	3.34859	0	
2.7460	-0.901968	2.135	0	
2.7467	6.43016	1.52821	0	
2.7473	5.4991	2.7418	0	
2.7480	2.15308	3.34859	0	
2.7487	5.20814	4.27001	0	
2.7493	5.81915	6.09038	0	
2.7500	2.15308	3.66322	0	
2.7507	6.72112	0.606791	0	
2.7513	13.7332	0.606791	0	
2.7520	12.2202	0.606791	0	
2.7527	11.2891	0	0	
2.7533	12.2202	-0.314632	0	
2.7540	6.72112	-0.921423	0	
2.7547	1.22202	-1.52821	0	
2.7553	1.22202	-1.23606	0	
2.7560	-0.290957	-2.76427	0	
2.7567	-2.12399	-4.58464	0	
2.7573	0.320053	-3.97785	0	
2.7580	1.22202	-2.76427	0	
2.7587	-3.34601	-3.97785	0	
2.7593	-7.91404	-4.58464	0	
2.7600	-8.23409	-3.66322	0	
2.7607	-5.47	-2.135	0	
2.7613	-4.24798	-1.23606	0	
2.7620	-6.40106	-0.314632	0	
2.7627	-7.91404	0.606791	0	
2.7633	-3.95702	2.135	0	
2.7640	0.931064	2.42716	0	
2.7647	2.44404	0.898949	0	
2.7653	4.27707	-0.314632	0	
2.7660	6.72112	-1.52821	0	
2.7667	5.81915	-2.44964	0	
2.7673	3.98612	-1.84285	0	
2.7680	5.20814	-1.84285	0	
2.7687	6.11011	-3.97785	0	
2.7693	3.98612	-3.97785	0	
2.7700	3.66606	-2.44964	0	
2.7707	4.59713	-3.05643	0	
2.7713	2.44404	-3.97785	0	
2.7720	1.22202	-0.314632	0	
2.7727	3.66606	0	0	
2.7733	3.98612	-4.27001	0	
2.7740	0.320053	-4.89927	0	
2.7747	-0.901968	-2.135	0	
2.7753	0.320053	-4.89927	0	
2.7760	-1.51298	-6.71965	0	
2.7767	-4.24798	-3.37106	0	
2.7773	-4.85899	-3.66322	0	
2.7780	-4.24798	-7.32644	0	
2.7787	-2.44404	-5.79822	0	
2.7793	-1.83303	-3.97785	0	
2.7800	-4.24798	-6.71965	0	
2.7807	-5.17904	-5.79822	0	
2.7813	-1.83303	-2.44964	0	
2.7820	0.611011	-3.66322	0	
2.7827	-2.735	-3.97785	0	
2.7833	-8.84511	-0.629265	0	
2.7840	-10.3581	0	0	
2.7847	-5.17904	-1.52821	0	
2.7853	0.320053	-1.52821	0	
2.7860	-2.12399	-1.84285	0	
2.7867	-7.01207	-1.84285	0	
2.7873	-3.63697	-1.23606	0	
2.7880	4.27707	-2.44964	0	
2.7887	6.72112	-3.37106	0	
2.7893	3.98612	-2.135	0	
2.7900	3.05505	-1.23606	0	
2.7907	4.59713	-0.629265	0	
2.7913	4.59713	-0.921423	0	
2.7920	4.88808	-3.97785	0	
2.7927	6.43016	-5.50607	0	
2.7933	6.11011	-4.27001	0	
2.7940	4.88808	-4.89927	0	
2.7947	3.37511	-6.11286	0	
2.7953	1.22202	-4.27001	0	
2.7960	-0.611011	-3.97785	0	
2.7967	-2.735	-5.79822	0	
2.7973	-6.40106	-5.19143	0	
2.7980	-7.91404	-4.58464	0	
2.7987	-5.17904	-7.32644	0	
2.7993	-3.63697	-7.64107	0	
2.8000	-6.08101	-3.97785	0	
2.8007	-8.84511	-3.05643	0	
2.8013	-10.9691	-3.37106	0	
2.8020	-12.1911	-3.37106	0	
2.8027	-11.2891	-3.05643	0	
2.8033	-9.13606	-1.84285	0	
2.8040	-7.91404	-1.23606	0	
2.8047	-6.40106	-0.921423	0	
2.8053	-4.24798	0	0	
2.8060	-2.44404	-0.921423	0	
2.8067	-3.05505	-2.44964	0	
2.8073	-3.34601	-0.629265	0	
2.8080	0	1.52821	0	
2.8087	0.611011	-0.314632	0	
2.8093	-0.901968	-1.52821	0	
2.8100	0.931064	-0.314632	0	
2.8107	1.22202	0	0	
2.8113	-1.51298	0.898949	0	
2.8120	0.320053	2.42716	0	
2.8127	2.44404	1.21358	0	
2.8133	-3.05505	-1.23606	0	
2.8140	-8.23409	-1.23606	0	
2.8147	-7.01207	-0.314632	0	
2.8153	-6.08101	-0.314632	0	
2.8160	-7.62308	0	0	
2.8167	-8.23409	1.21358	0	
2.8173	-7.30303	2.7418	0	
2.8180	-5.47	3.03395	0	
2.8187	-4.24798	2.42716	0	
2.8193	-4.24798	1.82037	0	
2.8200	-4.24798	2.42716	0	
2.8207	-3.05505	3.34859	0	
2.8213	-4.24798	3.66322	0	
2.8220	-7.30303	3.34859	0	
2.8227	-6.69202	4.27001	0	
2.8233	-2.44404	4.8768	0	
2.8240	-0.611011	3.34859	0	
2.8247	-2.44404	2.7418	0	
2.8253	-1.83303	3.03395	0	
2.8260	0.320053	1.52821	0	
2.8267	0	1.52821	0	
2.8273	-1.51298	4.56217	0	
2.8280	-2.44404	7.01181	0	
2.8287	-2.44404	7.6186	0	
2.8293	-1.22202	6.69717	0	
2.8300	-0.611011	3.66322	0	
2.8307	-0.290957	1.82037	0	
2.8313	1.54207	2.7418	0	
2.8320	1.54207	2.42716	0	
2.8327	-3.34601	2.135	0	
2.8333	-7.01207	3.95538	0	
2.8340	-6.69202	3.95538	0	
2.8347	-5.79005	3.34859	0	
2.8353	-4.56803	5.19143	0	
2.8360	-4.24798	5.79822	0	
2.8367	-6.08101	4.8768	0	
2.8373	-6.40106	6.09038	0	
2.8380	-5.79005	6.69717	0	
2.8387	-6.08101	4.27001	0	
2.8393	-6.08101	3.66322	0	
2.8400	-4.85899	5.48359	0	
2.8407	-3.95702	7.01181	0	
2.8413	-2.735	7.32644	0	
2.8420	-2.12399	7.01181	0	
2.8427	-2.44404	6.40501	0	
2.8433	-1.22202	5.79822	0	
2.8440	2.15308	4.27001	0	
2.8447	4.88808	4.27001	0	
2.8453	5.4991	6.09038	0	
2.8460	7.33213	5.48359	0	
2.8467	10.3872	1.82037	0	
2.8473	10.0962	0.292159	0	
2.8480	7.04117	-0.314632	0	
2.8487	5.81915	-1.23606	0	
2.8493	7.65218	-0.314632	0	
2.8500	12.2202	0	0	
2.8507	14.6643	-3.97785	0	
2.8513	10.3872	-6.11286	0	
2.8520	7.33213	-3.37106	0	
2.8527	8.8742	-0.314632	0	
2.8533	5.81915	1.21358	0	
2.8540	0.320053	1.52821	0	
2.8547	-0.290957	1.52821	0	
2.8553	1.22202	1.52821	0	
2.8560	0.931064	2.42716	0	
2.8567	-0.611011	1.82037	0	
2.8573	-1.83303	0.606791	0	
2.8580	-4.56803	0.292159	0	
2.8587	-7.91404	-0.314632	0	
2.8593	-7.91404	-2.135	0	
2.8600	-3.95702	-2.76427	0	
2.8607	-4.85899	-1.52821	0	
2.8613	-10.0671	-0.629265	0	
2.8620	-8.84511	-1.52821	0	
2.8627	-4.24798	-3.05643	0	
2.8633	-4.24798	-2.76427	0	
2.8640	-4.56803	-1.23606	0	
2.8647	-1.51298	-1.84285	0	
2.8653	0.611011	-4.27001	0	
2.8660	2.44404	-5.50607	0	
2.8667	5.81915	-3.05643	0	
2.8673	6.11011	-0.629265	0	
2.8680	5.4991	-0.314632	0	
2.8687	7.04117	-0.629265	0	
2.8693	8.8742	-1.52821	0	
2.8700	8.8742	-2.135	0	
2.8707	7.65218	0.292159	0	
2.8713	5.20814	2.42716	0	
2.8720	3.98612	-0.629265	0	
2.8727	5.20814	-4.27001	0	
2.8733	5.81915	-3.97785	0	
2.8740	4.27707	-2.44964	0	
2.8747	3.05505	-4.89927	0	
2.8753	1.54207	-7.32644	0	
2.8760	0.611011	-4.89927	0	
2.8767	2.15308	-3.66322	0	
2.8773	1.54207	-6.71965	0	
2.8780	-4.24798	-8.56249	0	
2.8787	-6.40106	-7.03428	0	
2.8793	-1.51298	-6.71965	0	
2.8800	-3.63697	-4.89927	0	
2.8807	-10.9691	-2.135	0	
2.8813	-9.74707	-3.37106	0	
2.8820	-5.17904	-3.97785	0	
2.8827	-7.01207	-1.23606	0	
2.8833	-7.91404	-2.135	0	
2.8840	-3.34601	-5.19143	0	
2.8847	-2.12399	-4.58464	0	
2.8853	-3.34601	-3.97785	0	
2.8860	0	-4.89927	0	
2.8867	3.98612	-3.97785	0	
2.8873	5.81915	-3.37106	0	
2.8880	8.26319	-5.79822	0	
2.8887	11.6092	-6.42749	0	
2.8893	10.9982	-3.97785	0	
2.8900	8.55415	-4.27001	0	
2.8907	7.33213	-6.42749	0	
2.8913	7.65218	-7.03428	0	
2.8920	9.48521	-7.93323	0	
2.8927	12.2202	-7.93323	0	
2.8933	12.2202	-5.50607	0	
2.8940	10.6781	-3.37106	0	
2.8947	8.26319	-3.97785	0	
2.8953	4.59713	-6.71965	0	
2.8960	3.05505	-8.24786	0	
2.8967	1.83303	-6.11286	0	
2.8973	-2.12399	-4.58464	0	
2.8980	-3.05505	-5.19143	0	
2.8987	-1.51298	-3.97785	0	
2.8993	-5.17904	-1.23606	0	
2.9000	-9.74707	0	0	
2.9007	-8.52505	-0.629265	0	
2.9013	-7.01207	-1.84285	0	
2.9020	-5.79005	-2.76427	0	
2.9027	-1.22202	-1.23606	0	
2.9033	2.15308	-0.314632	0	
2.9040	2.15308	-1.23606	0	
2.9047	1.22202	-2.44964	0	
2.9053	0.611011	-2.135	0	
2.9060	0.931064	-1.23606	0	
2.9067	3.05505	-0.921423	0	
2.9073	7.33213	-1.84285	0	
2.9080	9.48521	-3.05643	0	
2.9087	7.65218	-3.05643	0	
2.9093	4.27707	-2.76427	0	
2.9100	4.27707	-3.05643	0	
2.9107	7.65218	-2.76427	0	
2.9113	10.9982	-2.135	0	
2.9120	13.4422	-1.23606	0	
2.9127	14.9552	0.292159	0	
2.9133	14.9552	-1.23606	0	
2.9140	11.2891	-3.05643	0	
2.9147	5.20814	-0.314632	0	
2.9153	2.44404	0.606791	0	
2.9160	1.54207	-1.23606	0	
2.9167	-0.611011	-1.23606	0	
2.9173	-1.51298	0	0	
2.9180	-2.44404	0.606791	0	
2.9187	-6.08101	3.03395	0	
2.9193	-8.23409	5.79822	0	
2.9200	-6.69202	5.19143	0	
2.9207	-7.01207	4.27001	0	
2.9213	-8.52505	5.19143	0	
2.9220	-10.3581	6.09038	0	
2.9227	-14.9552	5.19143	0	
2.9233	-15.8572	5.79822	0	
2.9240	-9.13606	7.01181	0	
2.9247	-5.17904	6.40501	0	
2.9253	-7.62308	4.27001	0	
2.9260	-9.45612	3.34859	0	
2.9267	-8.23409	5.48359	0	
2.9273	-4.56803	7.93323	0	
2.9280	0.320053	6.40501	0	
2.9287	3.37511	2.135	0	
2.9293	4.27707	0.292159	0	
2.9300	2.15308	1.21358	0	
2.9307	-1.51298	0	0	
2.9313	-0.611011	-1.23606	0	
2.9320	0.611011	-0.314632	0	
2.9327	-3.34601	0.606791	0	
2.9333	-5.17904	-0.314632	0	
2.9340	-3.34601	-0.314632	0	
2.9347	-5.79005	-0.314632	0	
2.9353	-9.74707	-1.52821	0	
2.9360	-8.84511	-2.76427	0	
2.9367	-8.84511	-2.135	0	
2.9373	-10.0671	-1.23606	0	
2.9380	-7.91404	-1.52821	0	
2.9387	-7.91404	-2.44964	0	
2.9393	-10.3581	-3.05643	0	
2.9400	-9.45612	-3.05643	0	
2.9407	-6.40106	-2.135	0	
2.9413	-5.17904	-0.921423	0	
2.9420	-6.08101	-1.52821	0	
2.9427	-6.69202	-1.52821	0	
2.9433	-2.735	-0.921423	0	
2.9440	-0.611011	-1.23606	0	
2.9447	-4.56803	0.292159	0	
2.9453	-4.85899	2.42716	0	
2.9460	0.931064	0.606791	0	
2.9467	1.22202	-0.314632	0	
2.9473	-1.83303	2.7418	0	
2.9480	-1.51298	2.42716	0	
2.9487	-1.83303	1.52821	0	
2.9493	-1.83303	2.7418	0	
2.9500	0.611011	0.606791	0	
2.9507	0.931064	-1.84285	0	
2.9513	0	0.606791	0	
2.9520	2.15308	2.42716	0	
2.9527	3.66606	4.27001	0	
2.9533	4.88808	4.56217	0	
2.9540	6.72112	2.42716	0	
2.9547	4.59713	4.27001	0	
2.9553	1.22202	7.6186	0	
2.9560	3.98612	3.03395	0	
2.9567	5.4991	-0.314632	0	
2.9573	3.05505	3.34859	0	
2.9580	3.98612	2.7418	0	
2.9587	5.20814	-0.314632	0	
2.9593	1.54207	2.42716	0	
2.9600	-0.901968	2.7418	0	
2.9607	-1.83303	1.21358	0	
2.9613	-4.56803	3.34859	0	
2.9620	-5.17904	2.7418	0	
2.9627	0.320053	-0.921423	0	
2.9633	3.37511	0.292159	0	
2.9640	0.320053	3.34859	0	
2.9647	-1.83303	3.34859	0	
2.9653	0.320053	2.42716	0	
2.9660	1.83303	1.21358	0	
2.9667	1.83303	-0.314632	0	
2.9673	3.98612	0.898949	0	
2.9680	8.8742	2.7418	0	
2.9687	11.6092	1.52821	0	
2.9693	8.26319	-1.23606	0	
2.9700	3.37511	-3.05643	0	
2.9707	4.59713	-1.84285	0	
2.9713	10.0962	0.606791	0	
2.9720	11.2891	0.898949	0	
2.9727	8.55415	1.21358	0	
2.9733	7.65218	4.27001	0	
2.9740	7.33213	5.79822	0	
2.9747	2.44404	4.8768	0	
2.9753	-2.12399	5.19143	0	
