0.0000	-8.61703	1.10666	1
0.0007	-16.8523	3.24367	0	
0.0013	-18.0521	-1.64091	0	
0.0020	-22.6333	-3.16735	0	
0.0027	-22.0334	-1.64091	0	
0.0033	-12.871	-1.33563	0	
0.0040	-8.88972	2.32781	0	
0.0047	-11.9439	6.60182	0	
0.0053	-9.21695	5.38067	0	
0.0060	-0.654458	1.71724	0	
0.0067	0.872611	0.190804	0	
0.0073	-3.10868	0.190804	0	
0.0080	-2.50876	0.190804	0	
0.0087	2.39968	-1.33563	0	
0.0093	2.67237	-1.9462	0	
0.0100	-3.4359	-0.725055	0	
0.0107	-8.88972	-0.114482	0	
0.0113	-8.88972	0.801377	0	
0.0120	-4.63574	-0.725055	0	
0.0127	-2.78145	-4.38849	0	
0.0133	-2.78145	-2.55677	0	
0.0140	-2.18153	4.7701	0	
0.0147	-1.90884	6.60182	0	
0.0153	-2.18153	4.7701	0	
0.0160	-2.78145	2.93838	0	
0.0167	-4.63574	-1.03034	0	
0.0173	-3.7086	-0.419769	0	
0.0180	2.67237	7.82297	0	
0.0187	6.05374	10.5705	0	
0.0193	1.79976	6.60182	0	
0.0200	3.32683	5.07539	0	
0.0207	10.035	-0.114482	0	
0.0213	11.5621	-12.0207	0	
0.0220	11.2349	-19.6528	0	
0.0227	13.6891	-19.6528	0	
0.0233	12.162	-14.4629	0	
0.0240	6.65366	-6.83078	0	
0.0247	-0.381767	-5.30435	0	
0.0253	-8.61703	-8.05193	0	
0.0260	-12.2711	-4.69378	0	
0.0267	-9.21695	-1.03034	0	
0.0273	-5.83558	-5.30435	0	
0.0280	-3.10868	-10.4942	0	
0.0287	1.1453	-10.7995	0	
0.0293	4.52667	-7.74664	0	
0.0300	4.52667	-3.77792	0	
0.0307	0.872611	-3.47263	0	
0.0313	-1.90884	-5.91493	0	
0.0320	-0.654458	-7.13607	0	
0.0327	4.19944	-7.44136	0	
0.0333	9.70779	-6.5255	0	
0.0340	15.4888	-3.77792	0	
0.0347	19.7974	-2.55677	0	
0.0353	22.8515	-4.08321	0	
0.0360	24.0513	-4.08321	0	
0.0367	19.1429	-3.16735	0	
0.0373	10.3077	-0.725055	0	
0.0380	3.59952	4.7701	0	
0.0387	-1.90884	5.07539	0	
0.0393	-8.2898	-2.55677	0	
0.0400	-10.744	-5.60964	0	
0.0407	-8.2898	-2.86206	0	
0.0413	-7.68988	-2.55677	0	
0.0420	-10.1441	-1.9462	0	
0.0427	-13.7982	1.41195	0	
0.0433	-17.4522	1.10666	0	
0.0440	-17.7794	-1.03034	0	
0.0447	-12.871	0.190804	0	
0.0453	-8.2898	0.801377	0	
0.0460	-8.2898	-0.114482	0	
0.0467	-8.01711	1.41195	0	
0.0473	-3.10868	4.15953	0	
0.0480	1.79976	6.29653	0	
0.0487	1.79976	6.60182	0	
0.0493	-0.0545382	2.32781	0	
0.0500	-1.25438	-1.64091	0	
0.0507	-0.0545382	-0.114482	0	
0.0513	1.79976	3.24367	0	
0.0520	0.872611	3.85424	0	
0.0527	-0.981687	2.93838	0	
0.0533	-3.10868	-1.33563	0	
0.0540	-3.7086	-9.88365	0	
0.0547	-1.90884	-13.5471	0	
0.0553	0.545382	-8.6625	0	
0.0560	0.872611	-4.38849	0	
0.0567	0.872611	-4.69378	0	
0.0573	-0.0545382	-4.38849	0	
0.0580	-1.90884	-2.55677	0	
0.0587	-4.63574	-0.114482	0	
0.0593	-6.16281	2.32781	0	
0.0600	-4.96297	3.24367	0	
0.0607	-1.90884	2.93838	0	
0.0613	-0.654458	2.02252	0	
0.0620	-0.654458	-0.725055	0	
0.0627	1.47253	-3.16735	0	
0.0633	2.9996	-1.64091	0	
0.0640	4.19944	1.10666	0	
0.0647	6.32643	2.02252	0	
0.0653	5.45382	2.6331	0	
0.0660	2.9996	2.02252	0	
0.0667	4.52667	1.10666	0	
0.0673	6.32643	2.6331	0	
0.0680	5.45382	2.93838	0	
0.0687	7.25358	2.32781	0	
0.0693	9.70779	4.7701	0	
0.0700	9.10787	6.29653	0	
0.0707	8.18072	4.46481	0	
0.0713	9.10787	2.32781	0	
0.0720	8.18072	1.10666	0	
0.0727	4.19944	1.41195	0	
0.0733	-2.78145	3.85424	0	
0.0740	-5.83558	3.54896	0	
0.0747	-2.78145	1.41195	0	
0.0753	0.872611	2.93838	0	
0.0760	2.07245	4.7701	0	
0.0767	3.92675	3.85424	0	
0.0773	2.67237	2.93838	0	
0.0780	-0.0545382	2.02252	0	
0.0787	-1.58161	0.496091	0	
0.0793	-1.58161	0.801377	0	
0.0800	-0.654458	0.801377	0	
0.0807	-0.0545382	0.190804	0	
0.0813	-0.981687	1.71724	0	
0.0820	-0.381767	2.32781	0	
0.0827	2.67237	1.41195	0	
0.0833	4.52667	1.71724	0	
0.0840	2.9996	1.71724	0	
0.0847	0.872611	1.41195	0	
0.0853	0.872611	0.801377	0	
0.0860	2.39968	-0.725055	0	
0.0867	2.67237	-1.03034	0	
0.0873	3.59952	-0.419769	0	
0.0880	6.32643	-1.03034	0	
0.0887	5.45382	-1.9462	0	
0.0893	2.67237	-1.03034	0	
0.0900	1.79976	-0.725055	0	
0.0907	1.47253	-1.64091	0	
0.0913	-0.381767	-1.03034	0	
0.0920	-0.981687	-0.419769	0	
0.0927	-1.58161	-1.9462	0	
0.0933	-1.90884	-2.55677	0	
0.0940	0.872611	-1.03034	0	
0.0947	4.52667	-1.03034	0	
0.0953	5.45382	-3.47263	0	
0.0960	6.05374	-4.38849	0	
0.0967	7.25358	-2.86206	0	
0.0973	7.25358	-1.64091	0	
0.0980	6.65366	-3.16735	0	
0.0987	6.98089	-5.60964	0	
0.0993	7.5808	-5.60964	0	
0.1000	6.05374	-4.08321	0	
0.1007	2.67237	-3.16735	0	
0.1013	-0.654458	-1.03034	0	
0.1020	-6.16281	1.10666	0	
0.1027	-10.1441	2.02252	0	
0.1033	-6.49004	3.85424	0	
0.1040	-2.50876	5.38067	0	
0.1047	-4.63574	-0.725055	0	
0.1053	-5.56289	-8.96779	0	
0.1060	-5.23566	-9.27308	0	
0.1067	-6.16281	-6.22021	0	
0.1073	-0.981687	-4.69378	0	
0.1080	6.32643	-1.64091	0	
0.1087	1.79976	4.46481	0	
0.1093	-8.2898	9.3494	0	
0.1100	-10.4168	12.097	0	
0.1107	-10.1441	13.0128	0	
0.1113	-10.744	8.73883	0	
0.1120	-7.68988	2.32781	0	
0.1127	-4.96297	1.71724	0	
0.1133	-6.49004	7.51768	0	
0.1140	-8.01711	12.097	0	
0.1147	-7.68988	13.0128	0	
0.1153	-7.36265	9.65468	0	
0.1160	-8.01711	0.190804	0	
0.1167	-8.2898	-8.96779	0	
0.1173	-4.03582	-9.88365	0	
0.1180	0.872611	-4.69378	0	
0.1187	-1.90884	1.10666	0	
0.1193	-7.08996	2.93838	0	
0.1200	-4.63574	0.801377	0	
0.1207	-1.90884	1.71724	0	
0.1213	-5.83558	4.46481	0	
0.1220	-7.08996	2.6331	0	
0.1227	-2.18153	0.496091	0	
0.1233	0.545382	-1.33563	0	
0.1240	0.872611	-6.83078	0	
0.1247	3.32683	-8.05193	0	
0.1253	4.79936	-3.16735	0	
0.1260	2.9996	-3.16735	0	
0.1267	3.59952	-5.30435	0	
0.1273	7.5808	-3.47263	0	
0.1280	10.3077	-1.03034	0	
0.1287	8.18072	1.71724	0	
0.1293	4.52667	4.46481	0	
0.1300	2.07245	3.85424	0	
0.1307	1.47253	3.54896	0	
0.1313	1.47253	3.24367	0	
0.1320	1.47253	-1.03034	0	
0.1327	0.545382	-6.22021	0	
0.1333	-0.981687	-8.05193	0	
0.1340	-0.0545382	-7.44136	0	
0.1347	0.872611	-4.38849	0	
0.1353	-3.7086	-2.55677	0	
0.1360	-11.6712	-6.5255	0	
0.1367	-12.5438	-9.88365	0	
0.1373	-7.36265	-8.35722	0	
0.1380	-4.63574	-3.77792	0	
0.1387	-3.4359	3.24367	0	
0.1393	-0.981687	10.2653	0	
0.1400	-1.25438	11.4864	0	
0.1407	-2.78145	6.90711	0	
0.1413	-0.0545382	1.71724	0	
0.1420	0.545382	-1.64091	0	
0.1427	-4.03582	-2.55677	0	
0.1433	-6.76273	-0.419769	0	
0.1440	-7.36265	4.7701	0	
0.1447	-9.21695	8.43354	0	
0.1453	-4.63574	6.60182	0	
0.1460	9.10787	1.10666	0	
0.1467	17.0159	-1.33563	0	
0.1473	15.2161	1.10666	0	
0.1480	15.2161	5.68596	0	
0.1487	17.6158	9.95997	0	
0.1493	11.2349	9.3494	0	
0.1500	-0.981687	6.60182	0	
0.1507	-6.49004	10.2653	0	
0.1513	-6.76273	14.8446	0	
0.1520	-7.68988	10.2653	0	
0.1527	-7.36265	5.38067	0	
0.1533	-9.21695	8.43354	0	
0.1540	-18.0521	7.51768	0	
0.1547	-22.9606	-1.64091	0	
0.1553	-16.5251	-10.7995	0	
0.1560	-13.1982	-17.5158	0	
0.1567	-19.5792	-19.0422	0	
0.1573	-22.9606	-10.7995	0	
0.1580	-20.5063	-1.03034	0	
0.1587	-20.1791	2.93838	0	
0.1593	-19.9064	5.38067	0	
0.1600	-14.7253	5.38067	0	
0.1607	-7.68988	3.24367	0	
0.1613	-1.58161	4.46481	0	
0.1620	0.545382	5.68596	0	
0.1627	-2.50876	2.32781	0	
0.1633	-4.03582	-1.03034	0	
0.1640	-3.4359	-1.03034	0	
0.1647	-4.63574	-0.419769	0	
0.1653	-4.63574	-1.33563	0	
0.1660	-0.981687	-5.60964	0	
0.1667	1.47253	-11.1048	0	
0.1673	2.67237	-11.7154	0	
0.1680	5.45382	-8.96779	0	
0.1687	11.5621	-5.60964	0	
0.1693	21.5971	-3.47263	0	
0.1700	28.3053	-2.55677	0	
0.1707	29.2325	-1.64091	0	
0.1713	26.5055	-0.419769	0	
0.1720	16.416	-1.9462	0	
0.1727	0.545382	-4.38849	0	
0.1733	-4.63574	-3.16735	0	
0.1740	-3.10868	-0.725055	0	
0.1747	-11.0167	-0.725055	0	
0.1753	-16.8523	-2.55677	0	
0.1760	-10.1441	-1.9462	0	
0.1767	-0.981687	0.496091	0	
0.1773	3.59952	1.10666	0	
0.1780	4.79936	0.190804	0	
0.1787	3.32683	0.190804	0	
0.1793	0.545382	-2.55677	0	
0.1800	-3.10868	-6.22021	0	
0.1807	-9.54418	-2.25149	0	
0.1813	-13.1982	3.54896	0	
0.1820	-10.744	0.496091	0	
0.1827	-5.56289	-3.77792	0	
0.1833	-2.78145	-7.74664	0	
0.1840	-5.23566	-18.1264	0	
0.1847	-9.21695	-26.0638	0	
0.1853	-8.61703	-19.6528	0	
0.1860	-3.4359	-9.27308	0	
0.1867	1.1453	-5.30435	0	
0.1873	3.59952	-1.64091	0	
0.1880	2.9996	5.07539	0	
0.1887	1.79976	11.4864	0	
0.1893	2.67237	12.097	0	
0.1900	3.32683	5.38067	0	
0.1907	1.79976	-1.64091	0	
0.1913	3.59952	-2.55677	0	
0.1920	6.05374	-3.47263	0	
0.1927	3.59952	-3.47263	0	
0.1933	1.1453	5.68596	0	
0.1940	1.79976	12.097	0	
0.1947	2.67237	1.10666	0	
0.1953	2.67237	-7.13607	0	
0.1960	4.52667	2.02252	0	
0.1967	3.59952	7.21239	0	
0.1973	2.67237	1.10666	0	
0.1980	5.72651	-1.64091	0	
0.1987	8.50795	2.02252	0	
0.1993	8.18072	7.51768	0	
0.2000	9.70779	13.9287	0	
0.2007	12.162	11.7917	0	
0.2013	12.7619	-0.114482	0	
0.2020	10.9076	-7.13607	0	
0.2027	7.8535	-6.83078	0	
0.2033	4.19944	-5.60964	0	
0.2040	-1.25438	-1.64091	0	
0.2047	-6.49004	3.54896	0	
0.2053	-1.90884	5.68596	0	
0.2060	11.8348	8.12825	0	
0.2067	21.9243	9.04411	0	
0.2073	24.6513	3.54896	0	
0.2080	24.6513	-1.9462	0	
0.2087	19.1429	-2.25149	0	
0.2093	12.162	-1.03034	0	
0.2100	11.5621	0.190804	0	
0.2107	13.0892	2.6331	0	
0.2113	13.6891	3.54896	0	
0.2120	15.4888	2.02252	0	
0.2127	14.6162	1.10666	0	
0.2133	4.52667	1.10666	0	
0.2140	-12.871	0.801377	0	
0.2147	-33.9227	1.10666	0	
0.2153	-43.4124	1.71724	0	
0.2160	-33.9227	0.190804	0	
0.2167	-25.0876	-2.55677	0	
0.2173	-30.2687	-2.25149	0	
0.2180	-32.9956	-0.419769	0	
0.2187	-24.7603	-1.33563	0	
0.2193	-17.7794	-2.55677	0	
0.2200	-14.7253	-1.33563	0	
0.2207	-10.744	-1.64091	0	
0.2213	-7.36265	-2.86206	0	
0.2220	-4.63574	-1.03034	0	
0.2227	-0.381767	0.190804	0	
0.2233	4.19944	-1.64091	0	
0.2240	5.72651	-2.55677	0	
0.2247	5.72651	-2.55677	0	
0.2253	7.5808	-3.16735	0	
0.2260	10.3077	-0.725055	0	
0.2267	11.2349	0.801377	0	
0.2273	10.035	-1.33563	0	
0.2280	6.32643	-1.33563	0	
0.2287	0.872611	2.02252	0	
0.2293	-3.7086	2.02252	0	
0.2300	-2.18153	0.190804	0	
0.2307	3.32683	-0.419769	0	
0.2313	6.32643	-0.725055	0	
0.2320	5.12659	-0.114482	0	
0.2327	4.52667	1.10666	0	
0.2333	5.72651	0.190804	0	
0.2340	5.45382	-0.114482	0	
0.2347	4.52667	2.02252	0	
0.2353	4.79936	2.32781	0	
0.2360	8.18072	1.10666	0	
0.2367	10.9076	2.02252	0	
0.2373	9.70779	2.02252	0	
0.2380	9.10787	0.190804	0	
0.2387	11.5621	0.496091	0	
0.2393	11.8348	2.02252	0	
0.2400	11.5621	2.32781	0	
0.2407	13.3619	3.85424	0	
0.2413	12.7619	5.68596	0	
0.2420	8.50795	3.54896	0	
0.2427	6.65366	-0.114482	0	
0.2433	8.50795	-0.725055	0	
0.2440	10.035	-0.725055	0	
0.2447	8.50795	0.190804	0	
0.2453	7.25358	2.93838	0	
0.2460	8.50795	5.99125	0	
0.2467	10.035	8.12825	0	
0.2473	9.10787	6.60182	0	
0.2480	9.10787	-3.47263	0	
0.2487	9.10787	-13.5471	0	
0.2493	9.10787	-10.7995	0	
0.2500	10.6349	-0.725055	0	
0.2507	8.18072	3.85424	0	
0.2513	1.79976	3.85424	0	
0.2520	-2.18153	3.85424	0	
0.2527	-6.76273	3.54896	0	
0.2533	-11.9439	2.02252	0	
0.2540	-10.4168	0.190804	0	
0.2547	-7.36265	-0.114482	0	
0.2553	-10.1441	3.24367	0	
0.2560	-11.9439	5.68596	0	
0.2567	-10.1441	1.71724	0	
0.2573	-9.21695	-2.55677	0	
0.2580	-8.61703	-0.419769	0	
0.2587	-4.96297	1.71724	0	
0.2593	-1.90884	-1.9462	0	
0.2600	-1.90884	-4.69378	0	
0.2607	-2.78145	-1.9462	0	
0.2613	-1.90884	2.02252	0	
0.2620	-0.381767	1.71724	0	
0.2627	-0.0545382	-2.55677	0	
0.2633	-0.981687	-4.38849	0	
0.2640	-0.381767	-1.9462	0	
0.2647	-0.654458	0.190804	0	
0.2653	-2.18153	-0.114482	0	
0.2660	-4.30851	-1.03034	0	
0.2667	-5.56289	-1.64091	0	
0.2673	-4.96297	2.02252	0	
0.2680	-4.03582	6.90711	0	
0.2687	-4.63574	5.68596	0	
0.2693	-4.96297	-0.114482	0	
0.2700	-4.96297	-4.38849	0	
0.2707	-4.96297	-4.38849	0	
0.2713	-1.25438	0.190804	0	
0.2720	2.67237	2.02252	0	
0.2727	0.872611	-1.33563	0	
0.2733	-2.18153	0.190804	0	
0.2740	-0.0545382	5.68596	0	
0.2747	5.45382	3.85424	0	
0.2753	9.10787	0.801377	0	
0.2760	7.5808	0.190804	0	
0.2767	1.79976	-2.86206	0	
0.2773	-2.78145	-2.55677	0	
0.2780	-6.16281	1.71724	0	
0.2787	-6.49004	1.10666	0	
0.2793	3.59952	-2.86206	0	
0.2800	13.6891	-5.30435	0	
0.2807	12.7619	-7.44136	0	
0.2813	15.4888	-5.30435	0	
0.2820	28.9598	2.02252	0	
0.2827	35.668	1.71724	0	
0.2833	33.8137	-8.35722	0	
0.2840	25.9056	-15.3788	0	
0.2847	7.25358	-10.7995	0	
0.2853	-11.0167	-2.86206	0	
0.2860	-16.2524	-1.64091	0	
0.2867	-24.7603	-6.22021	0	
0.2873	-40.031	-7.13607	0	
0.2880	-41.2309	-5.30435	0	
0.2887	-30.2687	-5.91493	0	
0.2893	-22.3606	-5.91493	0	
0.2900	-16.5251	-2.86206	0	
0.2907	-13.1982	-1.03034	0	
0.2913	-13.4709	-1.64091	0	
0.2920	-11.9439	-1.33563	0	
0.2927	-11.0167	2.02252	0	
0.2933	-14.3981	2.32781	0	
0.2940	-14.7253	-0.725055	0	
0.2947	-10.744	-0.725055	0	
0.2953	-9.81687	2.02252	0	
0.2960	-9.54418	2.32781	0	
0.2967	-6.49004	1.71724	0	
0.2973	-4.96297	3.85424	0	
0.2980	-7.68988	5.68596	0	
0.2987	-12.5438	1.10666	0	
0.2993	-14.7253	-5.60964	0	
0.3000	-11.0167	-7.44136	0	
0.3007	-2.78145	-2.25149	0	
0.3013	2.67237	2.02252	0	
0.3020	2.39968	0.496091	0	
0.3027	0.872611	0.496091	0	
0.3033	2.67237	2.02252	0	
0.3040	3.32683	-0.725055	0	
0.3047	0.545382	-3.47263	0	
0.3053	-0.654458	-2.86206	0	
0.3060	0.272691	-3.47263	0	
0.3067	1.1453	-7.74664	0	
0.3073	2.67237	-9.57836	0	
0.3080	1.79976	-4.38849	0	
0.3087	-0.0545382	3.24367	0	
0.3093	1.1453	4.15953	0	
0.3100	3.59952	2.93838	0	
0.3107	3.92675	7.82297	0	
0.3113	7.25358	11.1811	0	
0.3120	10.6349	5.99125	0	
0.3127	8.78064	3.54896	0	
0.3133	5.72651	3.54896	0	
0.3140	4.52667	-0.725055	0	
0.3147	3.92675	-3.47263	0	
0.3153	3.92675	-1.33563	0	
0.3160	2.07245	-1.64091	0	
0.3167	0.872611	-2.86206	0	
0.3173	0.872611	-0.725055	0	
0.3180	-2.50876	4.46481	0	
0.3187	-4.63574	10.5705	0	
0.3193	-0.654458	13.0128	0	
0.3200	3.32683	9.95997	0	
0.3207	5.12659	2.6331	0	
0.3213	10.6349	-7.74664	0	
0.3220	13.3619	-13.5471	0	
0.3227	10.6349	-8.96779	0	
0.3233	10.9076	-3.47263	0	
0.3240	11.8348	-3.47263	0	
0.3247	10.3077	-2.55677	0	
0.3253	12.7619	0.801377	0	
0.3260	18.543	2.02252	0	
0.3267	22.5243	0.496091	0	
0.3273	22.5243	-1.64091	0	
0.3280	17.3431	-2.55677	0	
0.3287	9.10787	-1.03034	0	
0.3293	0.872611	-2.55677	0	
0.3300	-8.88972	-4.08321	0	
0.3307	-16.5251	0.190804	0	
0.3313	-14.998	2.02252	0	
0.3320	-11.0167	-3.47263	0	
0.3327	-9.54418	-3.77792	0	
0.3333	-3.7086	2.6331	0	
0.3340	7.5808	3.85424	0	
0.3347	11.8348	2.93838	0	
0.3353	2.9996	3.85424	0	
0.3360	-11.3439	2.93838	0	
0.3367	-20.5063	0.801377	0	
0.3373	-24.7603	2.93838	0	
0.3380	-30.2687	3.85424	0	
0.3387	-32.3957	1.71724	0	
0.3393	-24.4876	0.190804	0	
0.3400	-14.0708	1.41195	0	
0.3407	-8.2898	3.54896	0	
0.3413	-4.63574	3.85424	0	
0.3420	-4.03582	2.32781	0	
0.3427	-8.88972	2.02252	0	
0.3433	-10.744	2.6331	0	
0.3440	-5.23566	1.71724	0	
0.3447	-0.981687	1.10666	0	
0.3453	-0.981687	2.6331	0	
0.3460	0.872611	6.90711	0	
0.3467	8.78064	10.2653	0	
0.3473	18.2703	6.60182	0	
0.3480	22.197	2.02252	0	
0.3487	19.1429	1.10666	0	
0.3493	17.0159	-4.08321	0	
0.3500	17.0159	-10.4942	0	
0.3507	15.4888	-7.13607	0	
0.3513	11.8348	-0.725055	0	
0.3520	3.59952	1.10666	0	
0.3527	-11.0167	2.6331	0	
0.3533	-22.3606	3.85424	0	
0.3540	-28.4144	1.41195	0	
0.3547	-32.9956	0.190804	0	
0.3553	-29.6688	0.801377	0	
0.3560	-19.3065	1.71724	0	
0.3567	-16.5251	4.7701	0	
0.3573	-17.4522	8.43354	0	
0.3580	-11.0167	9.04411	0	
0.3587	-4.30851	8.73883	0	
0.3593	-2.50876	9.04411	0	
0.3600	-0.981687	6.60182	0	
0.3607	-0.654458	3.24367	0	
0.3613	-0.981687	-0.114482	0	
0.3620	1.1453	-4.38849	0	
0.3627	2.9996	-4.99907	0	
0.3633	6.32643	0.496091	0	
0.3640	10.6349	2.93838	0	
0.3647	10.6349	-3.16735	0	
0.3653	9.10787	-8.6625	0	
0.3660	10.035	-7.13607	0	
0.3667	9.10787	-1.64091	0	
0.3673	6.65366	4.15953	0	
0.3680	6.05374	4.7701	0	
0.3687	3.59952	-1.03034	0	
0.3693	-0.654458	-6.22021	0	
0.3700	-0.381767	-8.05193	0	
0.3707	3.92675	-13.5471	0	
0.3713	6.98089	-20.2634	0	
0.3720	6.98089	-23.011	0	
0.3727	4.52667	-23.6215	0	
0.3733	1.1453	-19.0422	0	
0.3740	1.79976	-5.30435	0	
0.3747	5.72651	9.04411	0	
0.3753	5.72651	14.8446	0	
0.3760	2.39968	12.4023	0	
0.3767	0.872611	6.60182	0	
0.3773	0.272691	4.46481	0	
0.3780	-0.0545382	5.68596	0	
0.3787	1.79976	4.7701	0	
0.3793	5.45382	2.02252	0	
0.3800	10.6349	2.32781	0	
0.3807	13.6891	2.93838	0	
0.3813	10.3077	0.496091	0	
0.3820	6.05374	0.496091	0	
0.3827	7.25358	0.496091	0	
0.3833	7.25358	-3.16735	0	
0.3840	3.32683	-1.64091	0	
0.3847	1.1453	3.85424	0	
0.3853	1.47253	1.10666	0	
0.3860	0.872611	-3.77792	0	
0.3867	-1.25438	-1.64091	0	
0.3873	-4.63574	-1.33563	0	
0.3880	-8.2898	-0.114482	0	
0.3887	-11.0167	12.7075	0	
0.3893	-11.3439	22.1714	0	
0.3900	-6.76273	18.508	0	
0.3907	3.59952	11.7917	0	
0.3913	14.8889	1.10666	0	
0.3920	25.2512	-10.7995	0	
0.3927	33.4864	-8.96779	0	
0.3933	32.2866	-1.64091	0	
0.3940	15.4888	-2.55677	0	
0.3947	-4.30851	-3.47263	0	
0.3953	-12.5438	-1.64091	0	
0.3960	-18.6521	-2.55677	0	
0.3967	-31.7957	-1.33563	0	
0.3973	-37.5768	2.02252	0	
0.3980	-30.5959	0.801377	0	
0.3987	-20.1791	-0.725055	0	
0.3993	-11.3439	0.496091	0	
0.4000	-4.63574	-1.64091	0	
0.4007	-3.10868	-4.38849	0	
0.4013	-1.58161	-2.55677	0	
0.4020	2.9996	-1.64091	0	
0.4027	4.52667	-1.64091	0	
0.4033	3.59952	-0.725055	0	
0.4040	4.79936	-1.64091	0	
0.4047	4.79936	-4.08321	0	
0.4053	1.1453	-4.38849	0	
0.4060	0.545382	-3.47263	0	
0.4067	3.59952	-4.38849	0	
0.4073	4.19944	-6.22021	0	
0.4080	1.79976	-4.69378	0	
0.4087	2.07245	1.10666	0	
0.4093	2.67237	5.68596	0	
0.4100	1.79976	4.7701	0	
0.4107	0.872611	2.93838	0	
0.4113	0.545382	0.801377	0	
0.4120	-0.654458	-5.30435	0	
0.4127	-0.0545382	-8.05193	0	
0.4133	-0.0545382	-2.86206	0	
0.4140	-1.25438	-1.33563	0	
0.4147	-2.78145	-5.30435	0	
0.4153	-4.03582	-4.69378	0	
0.4160	-4.63574	-1.33563	0	
0.4167	-2.78145	-0.114482	0	
0.4173	-4.30851	1.10666	0	
0.4180	-6.76273	2.02252	0	
0.4187	-2.78145	-0.114482	0	
0.4193	2.67237	-1.64091	0	
0.4200	4.19944	-1.64091	0	
0.4207	10.6349	-2.86206	0	
0.4213	21.9243	-2.86206	0	
0.4220	28.3053	-1.9462	0	
0.4227	30.7595	-2.55677	0	
0.4233	28.3053	-3.77792	0	
0.4240	17.6158	-2.55677	0	
0.4247	9.10787	-0.725055	0	
0.4253	8.18072	-0.725055	0	
0.4260	6.32643	0.496091	0	
0.4267	2.39968	2.02252	0	
0.4273	1.79976	1.10666	0	
0.4280	-1.25438	0.190804	0	
0.4287	-8.2898	-1.33563	0	
0.4293	-12.2711	-7.44136	0	
0.4300	-10.1441	-11.4101	0	
0.4307	-5.83558	-5.91493	0	
0.4313	-2.78145	0.496091	0	
0.4320	-3.10868	0.801377	0	
0.4327	-6.16281	-0.725055	0	
0.4333	-10.1441	-1.33563	0	
0.4340	-12.5438	-1.64091	0	
0.4347	-13.7982	-1.33563	0	
0.4353	-16.5251	-0.114482	0	
0.4360	-19.3065	1.10666	0	
0.4367	-16.8523	1.10666	0	
0.4373	-11.9439	0.801377	0	
0.4380	-11.0167	0.190804	0	
0.4387	-11.0167	-1.03034	0	
0.4393	-7.36265	-1.64091	0	
0.4400	-5.56289	0.801377	0	
0.4407	-7.36265	1.71724	0	
0.4413	-7.68988	0.190804	0	
0.4420	-4.96297	1.10666	0	
0.4427	-3.10868	0.190804	0	
0.4433	-1.25438	-4.38849	0	
0.4440	0.545382	-3.47263	0	
0.4447	-1.90884	3.54896	0	
0.4453	-5.56289	4.7701	0	
0.4460	-5.56289	0.190804	0	
0.4467	-2.78145	-3.47263	0	
0.4473	-0.0545382	-4.08321	0	
0.4480	6.05374	-2.86206	0	
0.4487	15.8161	-1.9462	0	
0.4493	26.1783	0.496091	0	
0.4500	34.7408	4.15953	0	
0.4507	42.3762	2.6331	0	
0.4513	42.6488	-1.03034	0	
0.4520	22.197	2.93838	0	
0.4527	-11.0167	9.3494	0	
0.4533	-29.9415	11.1811	0	
0.4540	-32.123	16.6763	0	
0.4547	-34.25	26.4454	0	
0.4553	-33.9227	31.9406	0	
0.4560	-24.1604	32.2459	0	
0.4567	-17.7794	23.0873	0	
0.4573	-20.1791	1.10666	0	
0.4580	-22.0334	-16.9052	0	
0.4587	-19.3065	-16.6	0	
0.4593	-12.871	-12.6312	0	
0.4600	-5.56289	-18.1264	0	
0.4607	-1.90884	-29.7273	0	
0.4613	-0.381767	-37.3594	0	
0.4620	1.47253	-33.0854	0	
0.4627	-0.0545382	-19.9581	0	
0.4633	-5.83558	-10.1889	0	
0.4640	-9.81687	-1.64091	0	
0.4647	-11.0167	8.43354	0	
0.4653	-11.0167	11.1811	0	
0.4660	-7.08996	7.21239	0	
0.4667	-0.0545382	4.7701	0	
0.4673	2.67237	2.02252	0	
0.4680	1.79976	-1.9462	0	
0.4687	4.79936	-1.03034	0	
0.4693	6.98089	1.10666	0	
0.4700	2.07245	-1.64091	0	
0.4707	-0.654458	-4.38849	0	
0.4713	2.67237	-1.64091	0	
0.4720	3.32683	3.54896	0	
0.4727	-0.981687	5.68596	0	
0.4733	-1.90884	2.93838	0	
0.4740	2.07245	-2.55677	0	
0.4747	4.52667	-4.38849	0	
0.4753	3.32683	-3.47263	0	
0.4760	2.67237	-1.64091	0	
0.4767	7.25358	-0.419769	0	
0.4773	12.162	-0.114482	0	
0.4780	10.035	-1.33563	0	
0.4787	7.25358	-0.725055	0	
0.4793	11.5621	-0.114482	0	
0.4800	13.6891	-2.25149	0	
0.4807	9.38056	-3.47263	0	
0.4813	7.8535	-1.64091	0	
0.4820	11.2349	-0.114482	0	
0.4827	11.8348	-0.725055	0	
0.4833	10.3077	0.190804	0	
0.4840	10.3077	1.10666	0	
0.4847	9.38056	-0.114482	0	
0.4853	8.18072	-1.64091	0	
0.4860	7.5808	-1.9462	0	
0.4867	3.32683	-3.16735	0	
0.4873	-1.90884	-4.38849	0	
0.4880	-2.18153	-1.64091	0	
0.4887	-3.4359	5.38067	0	
0.4893	-6.16281	9.3494	0	
0.4900	-1.90884	9.65468	0	
0.4907	8.18072	11.1811	0	
0.4913	14.8889	8.43354	0	
0.4920	15.4888	-1.03034	0	
0.4927	13.6891	-5.91493	0	
0.4933	16.1433	-4.38849	0	
0.4940	22.8515	-4.69378	0	
0.4947	25.9056	-5.30435	0	
0.4953	26.5055	-4.38849	0	
0.4960	28.6325	-5.60964	0	
0.4967	25.2512	-6.5255	0	
0.4973	10.035	-7.13607	0	
0.4980	-6.49004	-9.88365	0	
0.4987	-12.871	-8.35722	0	
0.4993	-15.9251	-1.9462	0	
0.5000	-25.3602	2.02252	0	
0.5007	-33.9227	3.54896	0	
0.5013	-27.5418	3.24367	0	
0.5020	-8.2898	1.71724	0	
0.5027	10.3077	4.7701	0	
0.5033	22.5243	9.3494	0	
0.5040	20.67	6.60182	0	
0.5047	4.52667	2.93838	0	
0.5053	-8.01711	2.02252	0	
0.5060	-9.21695	-1.9462	0	
0.5067	-14.7253	-3.16735	0	
0.5073	-23.2333	1.10666	0	
0.5080	-20.5063	1.71724	0	
0.5087	-12.2711	1.10666	0	
0.5093	-10.4168	3.24367	0	
0.5100	-8.61703	2.02252	0	
0.5107	-3.7086	-0.419769	0	
0.5113	-2.18153	3.24367	0	
0.5120	-3.10868	7.21239	0	
0.5127	-2.50876	4.46481	0	
0.5133	-0.654458	-0.725055	0	
0.5140	1.79976	-3.47263	0	
0.5147	2.9996	-4.38849	0	
0.5153	1.79976	-3.77792	0	
0.5160	0.272691	0.190804	0	
0.5167	-1.25438	4.7701	0	
0.5173	-1.90884	3.54896	0	
0.5180	1.79976	-1.9462	0	
0.5187	4.52667	-4.38849	0	
0.5193	3.59952	-2.86206	0	
0.5200	3.92675	-1.9462	0	
0.5207	4.52667	-1.64091	0	
0.5213	2.07245	-0.419769	0	
0.5220	-0.381767	0.496091	0	
0.5227	-4.63574	-0.419769	0	
0.5233	-9.21695	-1.03034	0	
0.5240	-7.68988	-0.114482	0	
0.5247	-3.4359	1.10666	0	
0.5253	-0.654458	1.71724	0	
0.5260	2.07245	1.10666	0	
0.5267	4.52667	1.10666	0	
0.5273	4.79936	1.71724	0	
0.5280	5.72651	1.71724	0	
0.5287	6.98089	1.10666	0	
0.5293	6.98089	1.41195	0	
0.5300	6.05374	2.93838	0	
0.5307	5.12659	3.24367	0	
0.5313	4.79936	2.93838	0	
0.5320	4.52667	2.6331	0	
0.5327	1.79976	1.41195	0	
0.5333	0.545382	0.190804	0	
0.5340	1.47253	2.02252	0	
0.5347	-0.981687	5.07539	0	
0.5353	-7.36265	5.38067	0	
0.5360	-12.2711	2.32781	0	
0.5367	-12.871	-3.16735	0	
0.5373	-11.0167	-7.44136	0	
0.5380	-7.68988	-3.47263	0	
0.5387	-4.63574	5.99125	0	
0.5393	-2.78145	10.5705	0	
0.5400	-3.4359	9.3494	0	
0.5407	-5.23566	5.68596	0	
0.5413	-3.7086	-2.55677	0	
0.5420	0.872611	-9.27308	0	
0.5427	4.19944	-6.22021	0	
0.5433	6.32643	1.10666	0	
0.5440	6.32643	3.54896	0	
0.5447	5.45382	4.7701	0	
0.5453	6.65366	6.60182	0	
0.5460	10.035	7.51768	0	
0.5467	9.10787	7.82297	0	
0.5473	1.47253	5.68596	0	
0.5480	-4.63574	2.32781	0	
0.5487	-3.10868	0.496091	0	
0.5493	1.1453	-1.64091	0	
0.5500	3.59952	-2.55677	0	
0.5507	7.25358	0.190804	0	
0.5513	16.416	-2.55677	0	
0.5520	25.5784	-12.6312	0	
0.5527	26.7782	-15.3788	0	
0.5533	21.9243	-10.1889	0	
0.5540	13.6891	-9.88365	0	
0.5547	0.872611	-11.1048	0	
0.5553	-12.871	-11.4101	0	
0.5560	-19.3065	-13.2418	0	
0.5567	-22.3606	-9.88365	0	
0.5573	-27.5418	-2.55677	0	
0.5580	-27.2145	-0.419769	0	
0.5587	-17.4522	2.6331	0	
0.5593	-9.81687	11.4864	0	
0.5600	-7.36265	13.9287	0	
0.5607	-5.23566	8.43354	0	
0.5613	-2.78145	6.29653	0	
0.5620	-0.0545382	5.99125	0	
0.5627	6.98089	3.54896	0	
0.5633	10.9076	3.54896	0	
0.5640	6.05374	4.7701	0	
0.5647	-0.381767	2.93838	0	
0.5653	-3.10868	2.02252	0	
0.5660	-10.4168	3.85424	0	
0.5667	-22.0334	2.93838	0	
0.5673	-25.6875	-0.725055	0	
0.5680	-21.4335	-1.9462	0	
0.5687	-19.5792	-2.55677	0	
0.5693	-19.5792	-4.99907	0	
0.5700	-16.8523	-6.5255	0	
0.5707	-12.2711	-5.60964	0	
0.5713	-7.08996	-4.69378	0	
0.5720	-5.23566	-2.55677	0	
0.5727	-7.36265	0.801377	0	
0.5733	-4.63574	2.02252	0	
0.5740	3.92675	0.801377	0	
0.5747	7.25358	-0.725055	0	
0.5753	5.45382	-2.55677	0	
0.5760	6.05374	-2.55677	0	
0.5767	3.92675	-1.33563	0	
0.5773	-3.7086	-2.25149	0	
0.5780	-9.81687	-4.38849	0	
0.5787	-12.871	-4.38849	0	
0.5793	-14.998	-2.55677	0	
0.5800	-12.871	-1.64091	0	
0.5807	-5.56289	-1.9462	0	
0.5813	1.79976	-1.64091	0	
0.5820	3.92675	0.801377	0	
0.5827	2.67237	4.15953	0	
0.5833	4.52667	6.90711	0	
0.5840	7.25358	7.82297	0	
0.5847	5.45382	4.46481	0	
0.5853	3.59952	1.41195	0	
0.5860	4.52667	3.54896	0	
0.5867	4.79936	2.93838	0	
0.5873	4.79936	-1.64091	0	
0.5880	5.45382	0.190804	0	
0.5887	4.19944	4.46481	0	
0.5893	4.52667	6.29653	0	
0.5900	7.5808	14.5393	0	
0.5907	4.52667	16.6763	0	
0.5913	-1.58161	-6.22021	0	
0.5920	0.872611	-28.2008	0	
0.5927	4.79936	-24.5374	0	
0.5933	0.872611	-15.0735	0	
0.5940	-2.78145	-11.1048	0	
0.5947	-1.25438	-4.08321	0	
0.5953	-0.981687	1.10666	0	
0.5960	-2.50876	-1.03034	0	
0.5967	-1.90884	-0.725055	0	
0.5973	-1.58161	0.801377	0	
0.5980	-3.7086	0.190804	0	
0.5987	-5.83558	2.02252	0	
0.5993	-5.56289	2.32781	0	
0.6000	-1.90884	-1.64091	0	
0.6007	0.545382	-2.55677	0	
0.6013	1.79976	-1.33563	0	
0.6020	4.52667	-4.69378	0	
0.6027	6.65366	-7.13607	0	
0.6033	5.12659	-2.55677	0	
0.6040	4.79936	3.85424	0	
0.6047	8.78064	7.82297	0	
0.6053	10.9076	11.1811	0	
0.6060	8.18072	8.43354	0	
0.6067	4.52667	-4.69378	0	
0.6073	2.07245	-18.1264	0	
0.6080	-3.7086	-19.9581	0	
0.6087	-10.1441	-13.5471	0	
0.6093	-11.0167	-8.35722	0	
0.6100	-8.2898	-4.38849	0	
0.6107	-8.2898	1.41195	0	
0.6113	-8.88972	4.7701	0	
0.6120	-7.36265	4.46481	0	
0.6127	-6.76273	5.38067	0	
0.6133	-8.88972	5.38067	0	
0.6140	-9.81687	2.32781	0	
0.6147	-8.2898	3.54896	0	
0.6153	-7.08996	7.51768	0	
0.6160	-5.56289	4.7701	0	
0.6167	-0.981687	-0.725055	0	
0.6173	2.9996	0.801377	0	
0.6180	3.92675	2.93838	0	
0.6187	9.10787	2.02252	0	
0.6193	21.9243	3.24367	0	
0.6200	33.4864	3.85424	0	
0.6207	35.0135	0.801377	0	
0.6213	23.1242	-0.725055	0	
0.6220	3.92675	-0.114482	0	
0.6227	-5.56289	-1.03034	0	
0.6233	-4.63574	0.190804	0	
0.6240	-9.21695	1.41195	0	
0.6247	-14.0708	-0.419769	0	
0.6253	-7.36265	1.71724	0	
0.6260	-0.981687	7.21239	0	
0.6267	-2.78145	7.51768	0	
0.6273	-0.654458	6.29653	0	
0.6280	4.79936	7.82297	0	
0.6287	4.19944	8.43354	0	
0.6293	-0.981687	7.51768	0	
0.6300	-4.63574	7.51768	0	
0.6307	-5.23566	5.68596	0	
0.6313	-2.78145	2.02252	0	
0.6320	-0.381767	1.10666	0	
0.6327	-1.90884	2.6331	0	
0.6333	-5.83558	1.41195	0	
0.6340	-8.61703	-2.25149	0	
0.6347	-8.01711	-4.38849	0	
0.6353	-3.7086	-3.77792	0	
0.6360	0.872611	-6.5255	0	
0.6367	5.45382	-11.7154	0	
0.6373	11.8348	-13.2418	0	
0.6380	16.416	-12.0207	0	
0.6387	17.6158	-10.1889	0	
0.6393	19.7974	-8.05193	0	
0.6400	19.1429	-8.6625	0	
0.6407	10.3077	-10.7995	0	
0.6413	2.07245	-8.96779	0	
0.6420	4.79936	-5.60964	0	
0.6427	8.78064	-2.55677	0	
0.6433	2.9996	3.85424	0	
0.6440	-4.03582	9.04411	0	
0.6447	-12.2711	9.3494	0	
0.6453	-25.0876	9.04411	0	
0.6460	-29.6688	6.29653	0	
0.6467	-18.6521	1.10666	0	
0.6473	-6.76273	0.496091	0	
0.6480	-1.90884	2.02252	0	
0.6487	1.79976	-0.419769	0	
0.6493	5.12659	2.93838	0	
0.6500	7.25358	12.097	0	
0.6507	6.32643	11.7917	0	
0.6513	3.59952	2.32781	0	
0.6520	2.39968	-2.25149	0	
0.6527	2.07245	-0.114482	0	
0.6533	-3.7086	1.10666	0	
0.6540	-11.9439	0.190804	0	
0.6547	-12.5438	2.02252	0	
0.6553	-6.76273	4.7701	0	
0.6560	-1.25438	2.6331	0	
0.6567	1.1453	-0.725055	0	
0.6573	-0.0545382	0.190804	0	
0.6580	-2.78145	2.6331	0	
0.6587	-1.90884	3.54896	0	
0.6593	-0.0545382	2.02252	0	
0.6600	-0.0545382	-1.9462	0	
0.6607	2.07245	-4.38849	0	
0.6613	7.5808	-3.16735	0	
0.6620	10.035	-3.47263	0	
0.6627	10.3077	-6.22021	0	
0.6633	13.9618	-8.35722	0	
0.6640	14.8889	-6.5255	0	
0.6647	10.035	3.24367	0	
0.6653	6.05374	15.1498	0	
0.6660	6.05374	17.8974	0	
0.6667	3.92675	13.9287	0	
0.6673	0.545382	8.43354	0	
0.6680	0.545382	0.801377	0	
0.6687	2.67237	-2.55677	0	
0.6693	3.32683	2.93838	0	
0.6700	2.9996	7.51768	0	
0.6707	5.45382	6.60182	0	
0.6713	7.8535	5.99125	0	
0.6720	6.98089	5.38067	0	
0.6727	4.52667	-0.725055	0	
0.6733	2.9996	-11.7154	0	
0.6740	2.67237	-22.4004	0	
0.6747	1.1453	-23.9268	0	
0.6753	-4.63574	-16.6	0	
0.6760	-10.4168	-10.4942	0	
0.6767	-11.3439	-8.96779	0	
0.6773	-11.9439	-8.05193	0	
0.6780	-13.7982	-6.22021	0	
0.6787	-11.9439	-5.30435	0	
0.6793	-6.76273	-3.16735	0	
0.6800	1.1453	0.190804	0	
0.6807	11.5621	-1.64091	0	
0.6813	17.0159	-5.91493	0	
0.6820	15.8161	-6.22021	0	
0.6827	15.4888	-4.38849	0	
0.6833	14.8889	-6.83078	0	
0.6840	10.9076	-7.74664	0	
0.6847	7.8535	-6.5255	0	
0.6853	6.98089	-7.44136	0	
0.6860	1.79976	-5.60964	0	
0.6867	-9.21695	-0.419769	0	
0.6873	-18.3794	1.10666	0	
0.6880	-18.3794	2.32781	0	
0.6887	-12.5438	6.90711	0	
0.6893	-8.2898	5.99125	0	
0.6900	-5.83558	0.190804	0	
0.6907	-1.90884	-0.725055	0	
0.6913	5.72651	-0.114482	0	
0.6920	16.416	-1.64091	0	
0.6927	24.3786	-1.33563	0	
0.6933	21.9243	-0.419769	0	
0.6940	10.3077	-1.64091	0	
0.6947	-2.78145	-1.03034	0	
0.6953	-11.0167	-0.725055	0	
0.6960	-13.7982	-1.64091	0	
0.6967	-18.9793	1.10666	0	
0.6973	-25.6875	4.15953	0	
0.6980	-22.9606	3.54896	0	
0.6987	-14.3981	2.93838	0	
0.6993	-9.54418	0.190804	0	
0.7000	-7.36265	-6.5255	0	
0.7007	-4.96297	-8.6625	0	
0.7013	-4.63574	-5.30435	0	
0.7020	-6.16281	-4.38849	0	
0.7027	-4.63574	-4.69378	0	
0.7033	-0.981687	-2.86206	0	
0.7040	2.9996	1.10666	0	
0.7047	5.72651	2.93838	0	
0.7053	7.25358	-0.725055	0	
0.7060	5.45382	-3.77792	0	
0.7067	2.39968	-1.9462	0	
0.7073	2.07245	-0.725055	0	
0.7080	-0.0545382	-0.725055	0	
0.7087	-9.81687	1.10666	0	
0.7093	-17.7794	0.190804	0	
0.7100	-15.5979	-2.55677	0	
0.7107	-11.0167	-0.725055	0	
0.7113	-8.2898	-0.725055	0	
0.7120	-0.381767	-2.25149	0	
0.7127	9.70779	0.496091	0	
0.7133	13.9618	3.54896	0	
0.7140	13.6891	2.02252	0	
0.7147	13.0892	1.10666	0	
0.7153	11.8348	0.190804	0	
0.7160	10.035	-1.9462	0	
0.7167	8.18072	-4.08321	0	
0.7173	5.45382	-4.08321	0	
0.7180	2.07245	-2.86206	0	
0.7187	-1.58161	-0.725055	0	
0.7193	-8.2898	2.6331	0	
0.7200	-18.3794	2.93838	0	
0.7207	-21.4335	-3.47263	0	
0.7213	-12.5438	-10.4942	0	
0.7220	-0.981687	-6.5255	0	
0.7227	5.45382	-0.419769	0	
0.7233	7.8535	-1.64091	0	
0.7240	7.5808	-3.47263	0	
0.7247	4.79936	-1.33563	0	
0.7253	-3.10868	-0.419769	0	
0.7260	-12.2711	2.32781	0	
0.7267	-12.5438	6.60182	0	
0.7273	-5.56289	5.68596	0	
0.7280	-6.49004	4.7701	0	
0.7287	-12.871	8.12825	0	
0.7293	-12.871	8.73883	0	
0.7300	-11.0167	6.60182	0	
0.7307	-10.1441	4.46481	0	
0.7313	-5.56289	2.93838	0	
0.7320	-0.654458	6.60182	0	
0.7327	-2.18153	10.2653	0	
0.7333	-4.63574	0.496091	0	
0.7340	-2.78145	-13.5471	0	
0.7347	-0.981687	-17.2105	0	
0.7353	-0.654458	-16.6	0	
0.7360	0.545382	-15.6841	0	
0.7367	-0.981687	-10.4942	0	
0.7373	-4.63574	-9.88365	0	
0.7380	-5.23566	-16.2947	0	
0.7387	-1.90884	-16.9052	0	
0.7393	2.9996	-10.7995	0	
0.7400	8.18072	-5.91493	0	
0.7407	10.035	2.6331	0	
0.7413	9.10787	16.0657	0	
0.7420	10.3077	24.0031	0	
0.7427	15.2161	20.9503	0	
0.7433	17.3431	8.12825	0	
0.7440	14.6162	-2.55677	0	
0.7447	10.9076	-3.77792	0	
0.7453	9.10787	-2.55677	0	
0.7460	8.78064	-3.47263	0	
0.7467	10.035	-2.86206	0	
0.7473	10.9076	-0.725055	0	
0.7480	8.78064	1.71724	0	
0.7487	4.52667	2.6331	0	
0.7493	2.67237	2.02252	0	
0.7500	0.272691	2.32781	0	
0.7507	-1.90884	3.85424	0	
0.7513	-0.654458	3.54896	0	
0.7520	2.67237	4.46481	0	
0.7527	8.18072	6.60182	0	
0.7533	19.1429	3.85424	0	
0.7540	27.4327	-1.03034	0	
0.7547	28.3053	-3.47263	0	
0.7553	28.9598	-4.38849	0	
0.7560	22.5243	-2.86206	0	
0.7567	3.92675	-0.419769	0	
0.7573	-10.4168	-0.419769	0	
0.7580	-15.9251	0.496091	0	
0.7587	-26.8873	2.93838	0	
0.7593	-38.8312	1.10666	0	
0.7600	-35.4498	-0.725055	0	
0.7607	-23.8877	2.02252	0	
0.7613	-18.6521	2.02252	0	
0.7620	-14.7253	-0.114482	0	
0.7627	-7.08996	1.10666	0	
0.7633	-2.18153	2.02252	0	
0.7640	1.1453	0.801377	0	
0.7647	6.32643	0.801377	0	
0.7653	7.25358	1.10666	0	
0.7660	5.45382	0.190804	0	
0.7667	6.32643	0.496091	0	
0.7673	7.25358	0.801377	0	
0.7680	6.65366	-0.725055	0	
0.7687	7.25358	1.10666	0	
0.7693	7.25358	7.82297	0	
0.7700	6.32643	11.1811	0	
0.7707	7.5808	11.1811	0	
0.7713	8.50795	12.7075	0	
0.7720	7.25358	12.097	0	
0.7727	6.65366	9.3494	0	
0.7733	3.32683	10.5705	0	
0.7740	-2.18153	13.9287	0	
0.7747	-1.58161	11.1811	0	
0.7753	3.32683	5.68596	0	
0.7760	4.19944	2.6331	0	
0.7767	3.59952	-1.33563	0	
0.7773	3.32683	-8.35722	0	
0.7780	2.07245	-17.2105	0	
0.7787	5.45382	-23.9268	0	
0.7793	10.035	-23.3163	0	
0.7800	9.38056	-16.2947	0	
0.7807	7.25358	-9.88365	0	
0.7813	7.8535	-9.88365	0	
0.7820	6.32643	-11.7154	0	
0.7827	5.72651	-8.35722	0	
0.7833	10.035	-2.55677	0	
0.7840	10.3077	-1.03034	0	
0.7847	8.50795	-0.114482	0	
0.7853	11.5621	0.190804	0	
0.7860	13.6891	-2.86206	0	
0.7867	11.2349	-0.725055	0	
0.7873	11.5621	8.12825	0	
0.7880	10.6349	9.3494	0	
0.7887	-0.981687	2.93838	0	
0.7893	-12.871	2.02252	0	
0.7900	-14.0708	4.46481	0	
0.7907	-11.0167	4.15953	0	
0.7913	-11.6712	3.85424	0	
0.7920	-14.0708	4.15953	0	
0.7927	-18.3794	6.29653	0	
0.7933	-22.6333	7.82297	0	
0.7940	-23.8877	4.7701	0	
0.7947	-23.8877	0.801377	0	
0.7953	-21.7062	2.32781	0	
0.7960	-14.3981	2.32781	0	
0.7967	-7.68988	-2.25149	0	
0.7973	-6.49004	-2.55677	0	
0.7980	-4.30851	1.71724	0	
0.7987	-0.981687	3.85424	0	
0.7993	-3.7086	4.46481	0	
0.8000	-9.21695	8.43354	0	
0.8007	-16.5251	15.1498	0	
0.8013	-25.6875	19.4239	0	
0.8020	-25.6875	17.5921	0	
0.8027	-15.3252	13.3181	0	
0.8033	-10.1441	12.097	0	
0.8040	-8.61703	8.43354	0	
0.8047	-2.18153	0.496091	0	
0.8053	0.545382	-2.55677	0	
0.8060	-4.63574	2.6331	0	
0.8067	-6.49004	6.90711	0	
0.8073	-4.30851	6.90711	0	
0.8080	-2.78145	2.93838	0	
0.8087	-0.0545382	-7.13607	0	
0.8093	2.39968	-16.9052	0	
0.8100	0.272691	-17.5158	0	
0.8107	-0.654458	-9.88365	0	
0.8113	0.872611	-3.47263	0	
0.8120	1.47253	-6.22021	0	
0.8127	0.272691	-9.88365	0	
0.8133	-0.381767	-5.91493	0	
0.8140	0.545382	-1.64091	0	
0.8147	3.32683	-3.47263	0	
0.8153	5.45382	-1.03034	0	
0.8160	4.79936	2.93838	0	
0.8167	4.52667	1.10666	0	
0.8173	4.52667	0.190804	0	
0.8180	4.79936	2.02252	0	
0.8187	5.45382	-1.03034	0	
0.8193	5.12659	-5.30435	0	
0.8200	3.59952	-6.22021	0	
0.8207	2.9996	-8.05193	0	
0.8213	0.872611	-9.88365	0	
0.8220	-4.63574	-8.05193	0	
0.8227	-10.744	-6.22021	0	
0.8233	-13.4709	-4.38849	0	
0.8240	-12.871	-1.9462	0	
0.8247	-8.01711	2.02252	0	
0.8253	0.545382	10.2653	0	
0.8260	10.3077	16.6763	0	
0.8267	20.67	14.5393	0	
0.8273	30.1596	10.2653	0	
0.8280	33.8137	8.73883	0	
0.8287	24.9785	6.90711	0	
0.8293	6.65366	6.90711	0	
0.8300	-8.01711	10.2653	0	
0.8307	-11.9439	10.5705	0	
0.8313	-13.7982	7.51768	0	
0.8320	-19.5792	3.24367	0	
0.8327	-21.1063	-2.55677	0	
0.8333	-17.4522	-7.44136	0	
0.8340	-16.2524	-3.77792	0	
0.8347	-15.5979	5.68596	0	
0.8353	-12.5438	8.43354	0	
0.8360	-9.54418	2.02252	0	
0.8367	-4.03582	-4.38849	0	
0.8373	2.67237	-7.13607	0	
0.8380	5.12659	-8.05193	0	
0.8387	4.52667	-5.30435	0	
0.8393	6.65366	-1.33563	0	
0.8400	7.25358	0.190804	0	
0.8407	6.05374	2.6331	0	
0.8413	6.32643	6.60182	0	
0.8420	6.05374	6.29653	0	
0.8427	5.45382	1.10666	0	
0.8433	8.18072	-0.725055	0	
0.8440	10.3077	3.54896	0	
0.8447	9.10787	7.51768	0	
0.8453	7.25358	5.68596	0	
0.8460	4.52667	-2.25149	0	
0.8467	0.872611	-8.05193	0	
0.8473	-0.0545382	-8.35722	0	
0.8480	2.9996	-5.30435	0	
0.8487	5.45382	-1.03034	0	
0.8493	4.52667	0.496091	0	
0.8500	4.52667	-2.55677	0	
0.8507	5.45382	-4.38849	0	
0.8513	5.12659	-2.86206	0	
0.8520	2.07245	-1.64091	0	
0.8527	0.872611	-1.33563	0	
0.8533	-0.381767	-0.725055	0	
0.8540	-3.7086	-2.55677	0	
0.8547	-4.30851	-3.47263	0	
0.8553	-2.18153	-1.33563	0	
0.8560	-2.78145	0.496091	0	
0.8567	-4.96297	-0.725055	0	
0.8573	-5.23566	-1.33563	0	
0.8580	-5.56289	0.496091	0	
0.8587	-4.96297	3.54896	0	
0.8593	-2.50876	5.38067	0	
0.8600	-0.0545382	4.7701	0	
0.8607	1.79976	4.46481	0	
0.8613	3.92675	7.82297	0	
0.8620	5.45382	9.04411	0	
0.8627	4.52667	5.68596	0	
0.8633	2.07245	3.85424	0	
0.8640	3.32683	2.02252	0	
0.8647	9.70779	-1.9462	0	
0.8653	12.7619	-5.60964	0	
0.8660	10.035	-11.7154	0	
0.8667	11.2349	-19.0422	0	
0.8673	17.3431	-18.1264	0	
0.8680	20.3973	-10.7995	0	
0.8687	19.4701	-5.60964	0	
0.8693	13.6891	-4.69378	0	
0.8700	-0.981687	-6.22021	0	
0.8707	-15.5979	-5.30435	0	
0.8713	-22.3606	5.07539	0	
0.8720	-30.2687	15.4551	0	
0.8727	-40.9582	13.0128	0	
0.8733	-43.0851	-0.419769	0	
0.8740	-36.7042	-14.7682	0	
0.8747	-29.0688	-17.8211	0	
0.8753	-20.1791	-7.13607	0	
0.8760	-10.4168	2.02252	0	
0.8767	-6.49004	5.38067	0	
0.8773	-4.63574	9.3494	0	
0.8780	-0.981687	9.95997	0	
0.8787	1.47253	8.12825	0	
0.8793	1.79976	9.95997	0	
0.8800	0.872611	7.51768	0	
0.8807	-3.7086	-2.86206	0	
0.8813	-7.68988	-7.13607	0	
0.8820	-6.49004	-6.83078	0	
0.8827	-6.16281	-10.7995	0	
0.8833	-6.16281	-11.7154	0	
0.8840	-1.58161	-4.38849	0	
0.8847	0.872611	-0.114482	0	
0.8853	-2.78145	-2.55677	0	
0.8860	-3.4359	-3.47263	0	
0.8867	-0.981687	0.190804	0	
0.8873	-1.25438	2.6331	0	
0.8880	1.1453	1.41195	0	
0.8887	9.10787	1.41195	0	
0.8893	15.4888	4.15953	0	
0.8900	21.3244	4.15953	0	
0.8907	30.7595	1.71724	0	
0.8913	34.7408	3.54896	0	
0.8920	24.0513	6.60182	0	
0.8927	5.72651	2.02252	0	
0.8933	-5.56289	-6.5255	0	
0.8940	-9.54418	-8.96779	0	
0.8947	-14.7253	-5.30435	0	
0.8953	-19.9064	-3.77792	0	
0.8960	-19.3065	-3.47263	0	
0.8967	-14.998	-1.64091	0	
0.8973	-11.9439	-0.725055	0	
0.8980	-8.88972	-1.64091	0	
0.8987	-5.56289	-1.33563	0	
0.8993	-1.25438	1.10666	0	
0.9000	2.67237	5.07539	0	
0.9007	1.79976	10.2653	0	
0.9013	-1.90884	8.43354	0	
0.9020	-1.25438	0.496091	0	
0.9027	2.07245	-1.9462	0	
0.9033	2.67237	2.02252	0	
0.9040	1.47253	3.85424	0	
0.9047	0.872611	2.32781	0	
0.9053	2.9996	-0.114482	0	
0.9060	6.32643	-3.47263	0	
0.9067	6.98089	-4.99907	0	
0.9073	5.45382	-4.38849	0	
0.9080	4.19944	-8.96779	0	
0.9087	3.59952	-15.9894	0	
0.9093	4.52667	-17.2105	0	
0.9100	5.45382	-12.9365	0	
0.9107	2.9996	-8.05193	0	
0.9113	-0.0545382	-4.08321	0	
0.9120	-4.30851	-3.16735	0	
0.9127	-11.9439	-1.64091	0	
0.9133	-19.9064	5.99125	0	
0.9140	-18.0521	12.097	0	
0.9147	-5.56289	9.04411	0	
0.9153	7.8535	4.15953	0	
0.9160	13.3619	3.54896	0	
0.9167	14.6162	2.32781	0	
0.9173	18.2703	-1.64091	0	
0.9180	21.9243	-4.08321	0	
0.9187	23.4514	-1.64091	0	
0.9193	22.197	0.496091	0	
0.9200	15.8161	-1.9462	0	
0.9207	6.98089	-2.55677	0	
0.9213	-0.0545382	0.496091	0	
0.9220	-6.76273	-0.725055	0	
0.9227	-13.1982	-3.77792	0	
0.9233	-14.0708	-1.03034	0	
0.9240	-11.0167	-0.725055	0	
0.9247	-12.2711	-4.69378	0	
0.9253	-19.3065	-3.16735	0	
0.9260	-22.9606	0.190804	0	
0.9267	-18.3794	-0.725055	0	
0.9273	-12.871	-0.419769	0	
0.9280	-9.54418	-0.114482	0	
0.9287	-6.16281	-2.55677	0	
0.9293	-4.63574	-2.86206	0	
0.9300	-4.03582	-2.55677	0	
0.9307	-0.654458	-4.08321	0	
0.9313	0.272691	-3.16735	0	
0.9320	-1.90884	0.496091	0	
0.9327	4.52667	1.41195	0	
0.9333	17.3431	-0.725055	0	
0.9340	23.7241	-1.03034	0	
0.9347	18.543	0.190804	0	
0.9353	1.79976	0.496091	0	
0.9360	-14.0708	-0.725055	0	
0.9367	-18.6521	-1.33563	0	
0.9373	-21.1063	0.190804	0	
0.9380	-25.6875	0.190804	0	
0.9387	-20.8336	-1.33563	0	
0.9393	-8.2898	-1.64091	0	
0.9400	-4.63574	-0.114482	0	
0.9407	-7.36265	2.02252	0	
0.9413	-8.2898	2.02252	0	
0.9420	-6.49004	-0.114482	0	
0.9427	-2.78145	-1.33563	0	
0.9433	2.67237	-0.725055	0	
0.9440	8.18072	-1.9462	0	
0.9447	11.8348	-4.08321	0	
0.9453	11.2349	-0.114482	0	
0.9460	10.3077	10.2653	0	
0.9467	14.8889	19.7291	0	
0.9473	20.67	23.6979	0	
0.9480	21.9243	21.8661	0	
0.9487	20.9972	10.5705	0	
0.9493	20.07	-3.16735	0	
0.9500	16.7432	-7.13607	0	
0.9507	14.289	-3.47263	0	
0.9513	11.2349	3.85424	0	
0.9520	1.1453	12.097	0	
0.9527	-11.0167	8.43354	0	
0.9533	-15.3252	-4.69378	0	
0.9540	-9.54418	-11.7154	0	
0.9547	0.872611	-14.1577	0	
0.9553	7.5808	-18.4317	0	
0.9560	7.25358	-14.7682	0	
0.9567	6.05374	-5.30435	0	
0.9573	8.50795	-1.9462	0	
0.9580	9.10787	-1.33563	0	
0.9587	5.45382	-0.725055	0	
0.9593	2.07245	-2.25149	0	
0.9600	-0.654458	-0.419769	0	
0.9607	-2.50876	1.10666	0	
0.9613	-0.654458	-6.5255	0	
0.9620	2.07245	-14.7682	0	
0.9627	3.59952	-17.8211	0	
0.9633	3.59952	-20.874	0	
0.9640	-0.0545382	-20.874	0	
0.9647	-4.30851	-12.6312	0	
0.9653	-4.03582	-3.47263	0	
0.9660	-0.981687	2.93838	0	
0.9667	0.872611	9.95997	0	
0.9673	2.67237	13.9287	0	
0.9680	5.45382	8.43354	0	
0.9687	7.8535	-0.725055	0	
0.9693	6.98089	-2.25149	0	
0.9700	2.9996	2.02252	0	
0.9707	0.872611	2.6331	0	
0.9713	3.59952	-0.114482	0	
0.9720	6.32643	-0.725055	0	
0.9727	6.05374	2.93838	0	
0.9733	5.45382	6.90711	0	
0.9740	5.45382	7.51768	0	
0.9747	2.07245	2.93838	0	
0.9753	0.872611	-3.16735	0	
0.9760	3.92675	-4.69378	0	
0.9767	3.59952	-0.419769	0	
0.9773	0.545382	4.15953	0	
0.9780	-0.981687	4.15953	0	
0.9787	-3.7086	2.32781	0	
0.9793	-5.23566	2.6331	0	
0.9800	-1.90884	4.7701	0	
0.9807	-3.7086	6.60182	0	
0.9813	-11.9439	5.68596	0	
0.9820	-12.2711	6.29653	0	
0.9827	-6.16281	7.21239	0	
0.9833	-1.58161	2.02252	0	
0.9840	2.9996	-7.13607	0	
0.9847	8.18072	-7.74664	0	
0.9853	10.035	-2.55677	0	
0.9860	10.3077	-1.03034	0	
0.9867	11.5621	0.190804	0	
0.9873	13.6891	2.02252	0	
0.9880	14.289	-1.33563	0	
0.9887	9.10787	-6.83078	0	
0.9893	4.52667	-7.13607	0	
0.9900	5.45382	-6.5255	0	
0.9907	4.52667	-8.96779	0	
0.9913	-2.18153	-9.88365	0	
0.9920	-6.16281	-9.88365	0	
0.9927	-8.01711	-10.4942	0	
0.9933	-11.9439	-8.96779	0	
0.9940	-15.9251	-6.22021	0	
0.9947	-18.9793	-4.38849	0	
0.9953	-21.1063	-1.64091	0	
0.9960	-17.125	2.93838	0	
0.9967	-9.21695	9.04411	0	
0.9973	-2.50876	14.8446	0	
0.9980	12.162	15.7604	0	
0.9987	36.5406	9.3494	0	
0.9993	55.1926	4.46481	0	
1.0000	62.1735	5.07539	0	
1.0007	58.5195	5.99125	0	
1.0013	42.9761	4.15953	0	
1.0020	27.4327	3.24367	0	
1.0027	17.9431	2.32781	0	
1.0033	-0.0545382	-1.64091	0	
1.0040	-23.8877	-3.47263	0	
1.0047	-33.3228	0.801377	0	
1.0053	-26.6146	2.93838	0	
1.0060	-16.5251	0.801377	0	
1.0067	-8.01711	0.190804	0	
1.0073	-6.16281	0.190804	0	
1.0080	-15.9251	1.71724	0	
1.0087	-33.3228	9.04411	0	
1.0093	-46.7392	16.6763	0	
1.0100	-46.7392	17.5921	0	
1.0107	-34.5227	11.1811	0	
1.0113	-23.5605	-0.725055	0	
1.0120	-21.7062	-10.1889	0	
1.0127	-22.6333	-9.88365	0	
1.0133	-18.3794	-5.91493	0	
1.0140	-12.2711	-4.38849	0	
1.0147	-11.3439	-2.55677	0	
1.0153	-14.7253	-1.33563	0	
1.0160	-12.871	0.190804	0	
1.0167	-7.36265	2.02252	0	
1.0173	-6.76273	0.190804	0	
1.0180	-7.68988	-2.86206	0	
1.0187	-6.16281	0.190804	0	
1.0193	-5.56289	3.54896	0	
1.0200	-4.96297	0.496091	0	
1.0207	-1.90884	-1.03034	0	
1.0213	-2.18153	0.801377	0	
1.0220	-5.56289	-1.64091	0	
1.0227	-4.63574	-3.47263	0	
1.0233	-0.981687	1.41195	0	
1.0240	-0.981687	4.7701	0	
1.0247	-0.0545382	3.85424	0	
1.0253	5.45382	2.93838	0	
1.0260	8.18072	1.71724	0	
1.0267	6.65366	2.32781	0	
1.0273	6.32643	9.04411	0	
1.0280	7.25358	13.9287	0	
1.0287	9.70779	10.2653	0	
1.0293	13.6891	6.90711	0	
1.0300	16.416	7.82297	0	
1.0307	16.7432	7.51768	0	
1.0313	16.7432	6.60182	0	
1.0320	13.3619	8.12825	0	
1.0327	8.78064	8.43354	0	
1.0333	9.38056	5.07539	0	
1.0340	9.10787	0.190804	0	
1.0347	0.272691	-1.9462	0	
1.0353	-4.63574	2.32781	0	
1.0360	-1.58161	6.60182	0	
1.0367	-3.10868	4.7701	0	
1.0373	-8.61703	1.10666	0	
1.0380	-6.49004	-3.77792	0	
1.0387	-2.78145	-15.0735	0	
1.0393	-1.58161	-22.7057	0	
1.0400	3.32683	-18.1264	0	
1.0407	7.5808	-11.7154	0	
1.0413	10.9076	-12.3259	0	
1.0420	21.9243	-11.1048	0	
1.0427	35.3407	-7.13607	0	
1.0433	41.449	-3.77792	0	
1.0440	42.0489	0.190804	0	
1.0447	29.5597	2.32781	0	
1.0453	2.9996	3.85424	0	
1.0460	-16.8523	10.5705	0	
1.0467	-24.4876	12.7075	0	
1.0473	-30.2687	-1.64091	0	
1.0480	-29.0688	-14.4629	0	
1.0487	-17.7794	-11.7154	0	
1.0493	-12.5438	-4.38849	0	
1.0500	-15.5979	-0.419769	0	
1.0507	-14.3981	1.71724	0	
1.0513	-9.81687	-0.725055	0	
1.0520	-6.49004	-4.08321	0	
1.0527	1.79976	-5.91493	0	
1.0533	10.6349	-7.74664	0	
1.0540	9.38056	-5.30435	0	
1.0547	7.8535	-1.03034	0	
1.0553	17.0159	-3.47263	0	
1.0560	24.3786	-8.6625	0	
1.0567	24.6513	-6.83078	0	
1.0573	27.7054	-1.9462	0	
1.0580	26.5055	1.10666	0	
1.0587	10.035	3.54896	0	
1.0593	-8.01711	5.38067	0	
1.0600	-18.0521	3.54896	0	
1.0607	-25.0876	-1.03034	0	
1.0613	-22.3606	-4.99907	0	
1.0620	-4.96297	-4.38849	0	
1.0627	11.8348	-0.419769	0	
1.0633	15.4888	1.10666	0	
1.0640	7.5808	0.801377	0	
1.0647	-4.96297	0.801377	0	
1.0653	-16.5251	-0.725055	0	
1.0660	-27.5418	-3.77792	0	
1.0667	-39.4311	-2.86206	0	
1.0673	-41.5581	0.190804	0	
1.0680	-30.5959	0.190804	0	
1.0687	-19.3065	-2.55677	0	
1.0693	-13.1982	-2.25149	0	
1.0700	-8.2898	-0.419769	0	
1.0707	-6.76273	-0.725055	0	
1.0713	-9.54418	-1.64091	0	
1.0720	-10.1441	-4.08321	0	
1.0727	-8.2898	-8.96779	0	
1.0733	-7.08996	-15.3788	0	
1.0740	-4.63574	-17.2105	0	
1.0747	0.272691	-11.7154	0	
1.0753	3.32683	-0.725055	0	
1.0760	4.19944	5.07539	0	
1.0767	5.45382	2.02252	0	
1.0773	7.25358	-2.55677	0	
1.0780	10.6349	-0.725055	0	
1.0787	13.9618	6.60182	0	
1.0793	10.3077	13.6234	0	
1.0800	2.39968	12.4023	0	
1.0807	1.79976	3.24367	0	
1.0813	4.79936	-2.86206	0	
1.0820	-1.90884	-1.03034	0	
1.0827	-12.5438	0.496091	0	
1.0833	-14.998	-1.64091	0	
1.0840	-12.871	-1.33563	0	
1.0847	-9.21695	2.02252	0	
1.0853	-1.58161	0.496091	0	
1.0860	7.8535	-2.25149	0	
1.0867	17.9431	-1.03034	0	
1.0873	30.4868	-0.725055	0	
1.0880	39.322	-1.64091	0	
1.0887	42.9761	-0.725055	0	
1.0893	42.9761	-1.33563	0	
1.0900	31.9594	-2.55677	0	
1.0907	12.162	0.190804	0	
1.0913	-1.25438	2.02252	0	
1.0920	-9.54418	0.190804	0	
1.0927	-21.1063	-0.114482	0	
1.0933	-29.3415	1.10666	0	
1.0940	-26.8873	1.41195	0	
1.0947	-18.3794	0.190804	0	
1.0953	-11.6712	-1.33563	0	
1.0960	-9.54418	1.41195	0	
1.0967	-8.88972	6.60182	0	
1.0973	-7.36265	4.7701	0	
1.0980	-6.49004	0.496091	0	
1.0987	-5.56289	2.32781	0	
1.0993	-3.10868	4.46481	0	
1.1000	-1.90884	2.02252	0	
1.1007	0.872611	0.496091	0	
1.1013	6.05374	-0.725055	0	
1.1020	7.25358	-1.33563	0	
1.1027	5.45382	2.6331	0	
1.1033	5.45382	5.68596	0	
1.1040	5.72651	4.7701	0	
1.1047	6.05374	3.24367	0	
1.1053	7.25358	2.32781	0	
1.1060	5.72651	1.41195	0	
1.1067	4.79936	2.93838	0	
1.1073	6.32643	4.7701	0	
1.1080	6.65366	3.24367	0	
1.1087	6.32643	-1.33563	0	
1.1093	6.32643	-2.86206	0	
1.1100	2.67237	-1.03034	0	
1.1107	-0.981687	0.801377	0	
1.1113	0.872611	-0.725055	0	
1.1120	3.32683	-5.91493	0	
1.1127	1.79976	-9.57836	0	
1.1133	-2.78145	-6.83078	0	
1.1140	-6.76273	-2.25149	0	
1.1147	-6.49004	-0.725055	0	
1.1153	-4.63574	0.496091	0	
1.1160	-6.49004	-0.419769	0	
1.1167	-9.54418	-12.9365	0	
1.1173	-8.2898	-31.559	0	
1.1180	-4.63574	-37.0541	0	
1.1187	-2.50876	-25.7585	0	
1.1193	-0.981687	-12.6312	0	
1.1200	2.07245	-6.83078	0	
1.1207	4.52667	-1.9462	0	
1.1213	6.65366	5.68596	0	
1.1220	10.035	6.60182	0	
1.1227	11.2349	-0.725055	0	
1.1233	6.65366	-4.08321	0	
1.1240	1.79976	0.190804	0	
1.1247	2.67237	2.6331	0	
1.1253	6.05374	1.71724	0	
1.1260	8.18072	1.71724	0	
1.1267	7.25358	4.7701	0	
1.1273	2.07245	7.51768	0	
1.1280	-2.78145	5.38067	0	
1.1287	1.79976	1.71724	0	
1.1293	12.7619	3.24367	0	
1.1300	19.1429	3.24367	0	
1.1307	17.0159	-3.77792	0	
1.1313	13.6891	-6.83078	0	
1.1320	12.7619	-2.55677	0	
1.1327	13.9618	-0.419769	0	
1.1333	13.3619	-0.725055	0	
1.1340	5.72651	-1.03034	0	
1.1347	-6.49004	-2.25149	0	
1.1353	-17.125	0.496091	0	
1.1360	-24.7603	3.24367	0	
1.1367	-32.123	-1.33563	0	
1.1373	-34.8499	-3.16735	0	
1.1380	-31.1958	3.85424	0	
1.1387	-22.3606	5.99125	0	
1.1393	-12.871	3.85424	0	
1.1400	-7.68988	6.60182	0	
1.1407	-7.68988	5.68596	0	
1.1413	-5.83558	0.190804	0	
1.1420	-1.90884	-1.64091	0	
1.1427	-1.90884	-2.25149	0	
1.1433	-3.10868	-1.9462	0	
1.1440	-0.381767	4.15953	0	
1.1447	1.79976	10.2653	0	
1.1453	4.52667	12.4023	0	
1.1460	8.50795	13.0128	0	
1.1467	6.32643	5.99125	0	
1.1473	2.67237	-6.83078	0	
1.1480	3.59952	-9.88365	0	
1.1487	6.98089	-5.30435	0	
1.1493	9.10787	-3.47263	0	
1.1500	8.50795	-3.47263	0	
1.1507	0.872611	-2.25149	0	
1.1513	-5.83558	0.190804	0	
1.1520	-6.49004	4.15953	0	
1.1527	-11.6712	4.7701	0	
1.1533	-18.9793	0.801377	0	
1.1540	-17.4522	0.801377	0	
1.1547	-14.7253	1.71724	0	
1.1553	-15.5979	0.190804	0	
1.1560	-11.9439	1.71724	0	
1.1567	-8.2898	4.46481	0	
1.1573	-6.49004	2.02252	0	
1.1580	3.59952	-1.64091	0	
1.1587	18.2703	-3.77792	0	
1.1593	28.0326	-4.38849	0	
1.1600	36.5406	-0.114482	0	
1.1607	39.322	2.02252	0	
1.1613	29.2325	-3.47263	0	
1.1620	14.8889	-9.27308	0	
1.1627	4.19944	-13.5471	0	
1.1633	-4.63574	-14.4629	0	
1.1640	-9.21695	-4.69378	0	
1.1647	-12.871	5.99125	0	
1.1653	-24.7603	9.04411	0	
1.1660	-35.4498	9.3494	0	
1.1667	-30.5959	9.3494	0	
1.1673	-17.7794	8.43354	0	
1.1680	-11.9439	11.7917	0	
1.1687	-10.4168	13.9287	0	
1.1693	-8.2898	12.4023	0	
1.1700	-9.81687	13.3181	0	
1.1707	-11.6712	14.234	0	
1.1713	-6.16281	9.65468	0	
1.1720	-0.0545382	7.51768	0	
1.1727	1.79976	7.82297	0	
1.1733	6.05374	4.7701	0	
1.1740	8.78064	0.190804	0	
1.1747	5.12659	-4.69378	0	
1.1753	1.47253	-10.4942	0	
1.1760	0.545382	-12.6312	0	
1.1767	-0.981687	-9.88365	0	
1.1773	-1.90884	-6.5255	0	
1.1780	-1.90884	-3.77792	0	
1.1787	-2.18153	-2.55677	0	
1.1793	-0.654458	-0.419769	0	
1.1800	0.272691	2.6331	0	
1.1807	0.872611	3.85424	0	
1.1813	5.45382	5.38067	0	
1.1820	8.50795	7.21239	0	
1.1827	8.78064	7.82297	0	
1.1833	10.035	9.65468	0	
1.1840	10.035	9.95997	0	
1.1847	12.7619	2.6331	0	
1.1853	20.07	-3.47263	0	
1.1860	20.9972	-0.114482	0	
1.1867	13.0892	2.02252	0	
1.1873	8.18072	-1.64091	0	
1.1880	8.18072	-7.13607	0	
1.1887	8.50795	-17.2105	0	
1.1893	9.10787	-24.5374	0	
1.1900	6.65366	-18.4317	0	
1.1907	0.272691	-7.13607	0	
1.1913	-5.56289	-2.55677	0	
1.1920	-7.08996	-2.55677	0	
1.1927	0.872611	-2.25149	0	
1.1933	15.2161	-3.47263	0	
1.1940	23.1242	-4.38849	0	
1.1947	20.67	-1.64091	0	
1.1953	13.6891	1.41195	0	
1.1960	7.5808	0.190804	0	
1.1967	8.18072	-1.64091	0	
1.1973	13.0892	0.190804	0	
1.1980	9.38056	2.02252	0	
1.1987	0.872611	1.10666	0	
1.1993	-1.90884	0.801377	0	
1.2000	-6.76273	0.496091	0	
1.2007	-18.3794	-1.64091	0	
1.2013	-27.8145	-2.55677	0	
1.2020	-30.8686	-5.30435	0	
1.2027	-26.2874	-9.57836	0	
1.2033	-14.7253	-7.74664	0	
1.2040	-7.36265	-3.77792	0	
1.2047	-10.1441	-5.30435	0	
1.2053	-14.0708	-7.13607	0	
1.2060	-13.4709	-6.22021	0	
1.2067	-11.9439	-6.22021	0	
1.2073	-9.21695	-3.77792	0	
1.2080	-6.49004	2.02252	0	
1.2087	-7.68988	4.7701	0	
1.2093	-6.16281	4.7701	0	
1.2100	2.39968	-0.725055	0	
1.2107	14.289	-8.35722	0	
1.2113	25.5784	-4.99907	0	
1.2120	26.1783	3.85424	0	
1.2127	13.6891	1.71724	0	
1.2133	6.65366	-3.77792	0	
1.2140	12.7619	-2.55677	0	
1.2147	16.1433	-2.86206	0	
1.2153	14.289	-5.30435	0	
1.2160	13.3619	-4.69378	0	
1.2167	8.78064	-0.725055	0	
1.2173	-2.78145	5.68596	0	
1.2180	-18.3794	7.51768	0	
1.2187	-35.4498	0.190804	0	
1.2193	-44.0123	-5.60964	0	
1.2200	-36.0497	-5.30435	0	
1.2207	-22.3606	-4.08321	0	
1.2213	-13.7982	-1.9462	0	
1.2220	-6.49004	0.801377	0	
1.2227	-2.78145	1.10666	0	
1.2233	-5.23566	1.71724	0	
1.2240	-5.23566	3.24367	0	
1.2247	1.1453	2.93838	0	
1.2253	5.45382	1.10666	0	
1.2260	1.79976	0.801377	0	
1.2267	-2.18153	1.71724	0	
1.2273	-1.90884	2.6331	0	
1.2280	-0.0545382	1.10666	0	
1.2287	-0.0545382	0.496091	0	
1.2293	-0.654458	3.24367	0	
1.2300	1.1453	3.85424	0	
1.2307	3.59952	2.02252	0	
1.2313	3.59952	3.24367	0	
1.2320	2.39968	6.29653	0	
1.2327	2.9996	4.7701	0	
1.2333	3.59952	2.32781	0	
1.2340	3.92675	2.93838	0	
1.2347	5.45382	2.93838	0	
1.2353	5.45382	1.41195	0	
1.2360	3.59952	0.801377	0	
1.2367	4.79936	0.190804	0	
1.2373	7.5808	-0.419769	0	
1.2380	7.8535	0.496091	0	
1.2387	4.52667	1.10666	0	
1.2393	-0.654458	-0.725055	0	
1.2400	-5.23566	-1.64091	0	
1.2407	-7.68988	1.10666	0	
1.2413	-11.9439	3.54896	0	
1.2420	-17.125	4.15953	0	
1.2427	-18.9793	3.54896	0	
1.2433	-15.9251	1.10666	0	
1.2440	-10.1441	-0.419769	0	
1.2447	-4.30851	0.190804	0	
1.2453	-3.7086	-3.47263	0	
1.2460	-4.96297	-8.96779	0	
1.2467	-1.58161	-8.35722	0	
1.2473	1.79976	-5.30435	0	
1.2480	0.872611	-3.16735	0	
1.2487	0.872611	-0.725055	0	
1.2493	3.32683	-2.55677	0	
1.2500	3.59952	-7.13607	0	
1.2507	1.79976	-1.33563	0	
1.2513	1.47253	10.2653	0	
1.2520	2.67237	11.4864	0	
1.2527	3.92675	3.85424	0	
1.2533	3.59952	-0.419769	0	
1.2540	2.07245	-1.64091	0	
1.2547	2.9996	-2.25149	0	
1.2553	6.32643	-1.64091	0	
1.2560	8.18072	-1.64091	0	
1.2567	6.65366	-2.86206	0	
1.2573	2.67237	-1.64091	0	
1.2580	1.79976	1.41195	0	
1.2587	4.52667	3.24367	0	
1.2593	6.98089	5.68596	0	
1.2600	6.32643	7.51768	0	
1.2607	6.32643	6.60182	0	
1.2613	9.70779	7.21239	0	
1.2620	11.5621	8.43354	0	
1.2627	8.18072	5.99125	0	
1.2633	5.72651	3.85424	0	
1.2640	8.18072	5.07539	0	
1.2647	10.035	6.60182	0	
1.2653	6.98089	9.3494	0	
1.2660	2.67237	9.95997	0	
1.2667	-1.58161	5.99125	0	
1.2673	-4.96297	4.46481	0	
1.2680	-3.4359	4.15953	0	
1.2687	0.872611	-4.08321	0	
1.2693	1.1453	-13.2418	0	
1.2700	2.39968	-11.4101	0	
1.2707	5.12659	-3.16735	0	
1.2713	5.45382	0.190804	0	
1.2720	5.12659	-9.88365	0	
1.2727	5.45382	-27.5903	0	
1.2733	0.545382	-31.2537	0	
1.2740	-8.61703	-18.1264	0	
1.2747	-12.871	-8.6625	0	
1.2753	-11.6712	-8.35722	0	
1.2760	-8.61703	-9.88365	0	
1.2767	-4.63574	-8.96779	0	
1.2773	1.79976	-5.30435	0	
1.2780	10.9076	-3.77792	0	
1.2787	19.1429	-4.69378	0	
1.2793	27.1055	-2.86206	0	
1.2800	33.8137	-0.725055	0	
1.2807	31.6867	-1.64091	0	
1.2813	18.543	-1.64091	0	
1.2820	6.65366	-2.86206	0	
1.2827	-0.0545382	-7.74664	0	
1.2833	-9.81687	-9.88365	0	
1.2840	-21.1063	-6.83078	0	
1.2847	-28.1417	-1.33563	0	
1.2853	-28.7416	3.24367	0	
1.2860	-22.9606	4.46481	0	
1.2867	-15.5979	6.60182	0	
1.2873	-14.0708	12.097	0	
1.2880	-11.0167	11.1811	0	
1.2887	0.872611	2.93838	0	
1.2893	10.6349	0.801377	0	
1.2900	11.5621	4.15953	0	
1.2907	14.289	5.68596	0	
1.2913	20.07	6.60182	0	
1.2920	19.1429	6.60182	0	
1.2927	15.8161	5.68596	0	
1.2933	13.3619	5.38067	0	
1.2940	-2.78145	3.54896	0	
1.2947	-27.5418	2.6331	0	
1.2953	-33.65	5.68596	0	
1.2960	-23.8877	5.99125	0	
1.2967	-21.1063	2.02252	0	
1.2973	-22.0334	0.801377	0	
1.2980	-20.5063	2.02252	0	
1.2987	-26.2874	2.02252	0	
1.2993	-34.5227	2.93838	0	
1.3000	-32.9956	3.24367	0	
1.3007	-26.0147	2.93838	0	
1.3013	-19.3065	2.93838	0	
1.3020	-12.871	1.41195	0	
1.3027	-7.36265	-0.114482	0	
1.3033	-4.63574	1.41195	0	
1.3040	-4.63574	2.02252	0	
1.3047	-5.56289	0.801377	0	
1.3053	-4.63574	1.41195	0	
1.3060	-3.7086	2.02252	0	
1.3067	-4.30851	1.10666	0	
1.3073	-2.78145	2.02252	0	
1.3080	-0.981687	0.496091	0	
1.3087	-1.25438	-1.64091	0	
1.3093	1.79976	0.190804	0	
1.3100	9.70779	1.10666	0	
1.3107	12.7619	-1.64091	0	
1.3113	11.5621	-1.64091	0	
1.3120	14.6162	0.496091	0	
1.3127	19.4701	-0.419769	0	
1.3133	18.8702	-0.419769	0	
1.3140	14.6162	2.6331	0	
1.3147	11.5621	2.93838	0	
1.3153	8.18072	1.10666	0	
1.3160	4.79936	2.02252	0	
1.3167	4.19944	2.93838	0	
1.3173	6.05374	0.801377	0	
1.3180	8.50795	-1.03034	0	
1.3187	9.10787	-0.419769	0	
1.3193	6.98089	-0.114482	0	
1.3200	5.45382	4.7701	0	
1.3207	5.45382	13.9287	0	
1.3213	2.9996	13.3181	0	
1.3220	2.07245	3.85424	0	
1.3227	7.25358	2.02252	0	
1.3233	10.9076	4.7701	0	
1.3240	9.10787	2.93838	0	
1.3247	10.035	1.41195	0	
1.3253	13.6891	2.02252	0	
1.3260	11.8348	0.190804	0	
1.3267	6.65366	1.10666	0	
1.3273	5.45382	5.07539	0	
1.3280	8.18072	2.02252	0	
1.3287	10.035	-8.05193	0	
1.3293	9.70779	-14.4629	0	
1.3300	10.035	-15.0735	0	
1.3307	10.035	-10.4942	0	
1.3313	5.45382	-1.9462	0	
1.3320	1.79976	4.7701	0	
1.3327	5.12659	7.51768	0	
1.3333	6.32643	6.60182	0	
1.3340	2.67237	-1.03034	0	
1.3347	4.19944	-12.0207	0	
1.3353	12.7619	-15.3788	0	
1.3360	20.07	-11.1048	0	
1.3367	25.5784	-6.22021	0	
1.3373	30.1596	-0.419769	0	
1.3380	30.4868	3.54896	0	
1.3387	20.9972	0.190804	0	
1.3393	3.32683	-8.6625	0	
1.3400	-11.0167	-16.9052	0	
1.3407	-17.7794	-17.2105	0	
1.3413	-28.4144	-7.74664	0	
1.3420	-40.3582	-0.725055	0	
1.3427	-37.3041	1.41195	0	
1.3433	-23.8877	7.51768	0	
1.3440	-16.2524	11.4864	0	
1.3447	-10.1441	10.2653	0	
1.3453	-1.90884	16.6763	0	
1.3460	-1.58161	25.8349	0	
1.3467	-5.23566	22.1714	0	
1.3473	-4.03582	7.51768	0	
1.3480	-2.78145	-8.96779	0	
1.3487	-5.56289	-22.7057	0	
1.3493	-7.68988	-24.5374	0	
1.3500	-8.01711	-16.6	0	
1.3507	-8.2898	-12.3259	0	
1.3513	-9.54418	-11.1048	0	
1.3520	-11.0167	-8.6625	0	
1.3527	-10.1441	-5.30435	0	
1.3533	-7.68988	1.41195	0	
1.3540	-5.56289	9.65468	0	
1.3547	-4.63574	12.7075	0	
1.3553	-5.83558	13.9287	0	
1.3560	-7.08996	16.9816	0	
1.3567	-5.56289	13.0128	0	
1.3573	-4.96297	5.68596	0	
1.3580	-5.56289	6.90711	0	
1.3587	-4.63574	9.95997	0	
1.3593	-5.56289	5.07539	0	
1.3600	-7.68988	2.6331	0	
1.3607	-5.56289	4.15953	0	
1.3613	-3.10868	1.10666	0	
1.3620	-3.7086	-3.47263	0	
1.3627	-0.981687	-5.30435	0	
1.3633	0.545382	-5.30435	0	
1.3640	-3.10868	-4.08321	0	
1.3647	-3.4359	-2.25149	0	
1.3653	1.79976	-5.30435	0	
1.3660	7.8535	-9.27308	0	
1.3667	17.9431	-9.88365	0	
1.3673	30.1596	-9.88365	0	
1.3680	35.668	-7.74664	0	
1.3687	33.2137	-2.55677	0	
1.3693	26.1783	-1.03034	0	
1.3700	18.8702	-4.38849	0	
1.3707	15.4888	-7.13607	0	
1.3713	8.18072	-5.91493	0	
1.3720	-5.23566	-3.16735	0	
1.3727	-5.56289	-1.64091	0	
1.3733	8.18072	-3.16735	0	
1.3740	13.6891	-5.91493	0	
1.3747	11.2349	-4.99907	0	
1.3753	16.7432	-2.25149	0	
1.3760	21.5971	-2.86206	0	
1.3767	19.7974	-4.38849	0	
1.3773	18.543	-2.55677	0	
1.3780	5.12659	-1.64091	0	
1.3787	-30.2687	-1.64091	0	
1.3793	-58.6285	2.6331	0	
1.3800	-60.1556	5.68596	0	
1.3807	-50.3933	5.38067	0	
1.3813	-42.158	4.7701	0	
1.3820	-30.5959	0.190804	0	
1.3827	-14.3981	-6.22021	0	
1.3833	2.39968	-1.64091	0	
1.3840	16.416	9.04411	0	
1.3847	21.9243	9.04411	0	
1.3853	19.1429	4.7701	0	
1.3860	12.7619	7.51768	0	
1.3867	4.52667	9.3494	0	
1.3873	-5.23566	6.60182	0	
1.3880	-21.4335	5.38067	0	
1.3887	-40.3582	3.85424	0	
1.3893	-44.9394	-1.9462	0	
1.3900	-31.7957	-5.91493	0	
1.3907	-18.3794	-4.69378	0	
1.3913	-12.2711	-5.91493	0	
1.3920	-9.54418	-9.27308	0	
1.3927	-8.01711	-10.7995	0	
1.3933	-3.10868	-11.4101	0	
1.3940	0.872611	-10.7995	0	
1.3947	-1.25438	-6.5255	0	
1.3953	-2.18153	-3.77792	0	
1.3960	-0.0545382	-5.30435	0	
1.3967	-1.58161	-6.22021	0	
1.3973	-2.18153	-5.60964	0	
1.3980	2.07245	-6.22021	0	
1.3987	5.72651	-7.13607	0	
1.3993	7.25358	-5.60964	0	
1.4000	9.38056	-2.55677	0	
1.4007	12.7619	-1.03034	0	
1.4013	14.8889	-3.16735	0	
1.4020	16.1433	-6.22021	0	
1.4027	15.8161	-10.7995	0	
1.4033	14.6162	-13.8524	0	
1.4040	13.9618	-6.22021	0	
1.4047	15.4888	7.21239	0	
1.4053	17.3431	12.7075	0	
1.4060	13.9618	9.04411	0	
1.4067	9.10787	-0.725055	0	
1.4073	8.18072	-11.1048	0	
1.4080	10.035	-9.57836	0	
1.4087	11.5621	-0.114482	0	
1.4093	13.3619	4.46481	0	
1.4100	11.8348	8.43354	0	
1.4107	6.65366	12.097	0	
1.4113	3.32683	3.85424	0	
1.4120	0.872611	-6.22021	0	
1.4127	-2.78145	-4.38849	0	
1.4133	-4.63574	0.496091	0	
1.4140	-2.50876	1.10666	0	
1.4147	-1.58161	2.93838	0	
1.4153	-2.78145	3.85424	0	
1.4160	-0.981687	-1.33563	0	
1.4167	1.47253	-4.69378	0	
1.4173	-0.381767	-2.55677	0	
1.4180	-0.981687	0.496091	0	
1.4187	0.545382	0.801377	0	
1.4193	-1.58161	0.190804	0	
1.4200	-0.981687	1.10666	0	
1.4207	3.32683	2.93838	0	
1.4213	1.79976	4.15953	0	
1.4220	-0.654458	5.99125	0	
1.4227	4.79936	8.43354	0	
1.4233	7.8535	9.3494	0	
1.4240	6.32643	13.6234	0	
1.4247	12.7619	21.2556	0	
1.4253	17.3431	19.1186	0	
1.4260	13.9618	5.38067	0	
1.4267	13.6891	-8.05193	0	
1.4273	12.162	-13.5471	0	
1.4280	1.1453	-12.0207	0	
1.4287	-7.68988	-6.83078	0	
1.4293	-10.744	-4.99907	0	
1.4300	-15.5979	-6.83078	0	
1.4307	-17.4522	-6.5255	0	
1.4313	-11.3439	-6.22021	0	
1.4320	4.79936	-7.74664	0	
1.4327	35.3407	-5.60964	0	
1.4333	66.1548	-0.419769	0	
1.4340	75.6444	3.54896	0	
1.4347	62.1735	3.85424	0	
1.4353	38.3949	3.85424	0	
1.4360	18.8702	7.21239	0	
1.4367	9.10787	10.2653	0	
1.4373	-11.6712	6.60182	0	
1.4380	-46.7392	2.02252	0	
1.4387	-62.3371	1.41195	0	
1.4393	-53.1747	-0.725055	0	
1.4400	-53.1747	-4.08321	0	
1.4407	-64.7368	-3.47263	0	
1.4413	-61.0827	-3.77792	0	
1.4420	-45.2121	-4.69378	0	
1.4427	-33.3228	-1.33563	0	
1.4433	-26.8873	5.38067	0	
1.4440	-24.1604	8.73883	0	
1.4447	-22.9606	5.38067	0	
1.4453	-18.9793	-0.419769	0	
1.4460	-12.871	-0.725055	0	
1.4467	-9.54418	2.02252	0	
1.4473	-8.2898	-1.03034	0	
1.4480	-9.21695	-4.99907	0	
1.4487	-11.0167	-4.38849	0	
1.4493	-10.4168	-3.47263	0	
1.4500	-8.61703	-3.47263	0	
1.4507	-9.21695	-2.25149	0	
1.4513	-8.01711	-2.55677	0	
1.4520	-3.4359	-2.25149	0	
1.4527	-1.90884	1.41195	0	
1.4533	-0.381767	3.85424	0	
1.4540	3.59952	3.54896	0	
1.4547	2.67237	3.85424	0	
1.4553	0.872611	2.32781	0	
1.4560	3.92675	-2.55677	0	
1.4567	5.72651	-4.38849	0	
1.4573	4.79936	0.190804	0	
1.4580	5.12659	4.46481	0	
1.4587	3.59952	6.60182	0	
1.4593	2.39968	7.51768	0	
1.4600	4.79936	6.60182	0	
1.4607	4.19944	5.38067	0	
1.4613	-0.0545382	6.29653	0	
1.4620	-0.654458	6.60182	0	
1.4627	2.07245	2.6331	0	
1.4633	7.25358	-2.55677	0	
1.4640	12.162	-4.38849	0	
1.4647	8.78064	-4.38849	0	
1.4653	3.92675	-7.13607	0	
1.4660	9.38056	-11.7154	0	
1.4667	15.4888	-14.7682	0	
1.4673	11.8348	-12.3259	0	
1.4680	7.25358	-3.16735	0	
1.4687	6.98089	6.90711	0	
1.4693	5.12659	13.0128	0	
1.4700	1.79976	13.6234	0	
1.4707	0.872611	7.82297	0	
1.4713	1.79976	-2.55677	0	
1.4720	2.07245	-8.96779	0	
1.4727	3.59952	-5.91493	0	
1.4733	6.32643	0.190804	0	
1.4740	9.10787	2.93838	0	
1.4747	9.10787	4.7701	0	
1.4753	3.59952	6.90711	0	
1.4760	-2.50876	2.93838	0	
1.4767	-6.76273	-4.08321	0	
1.4773	-8.01711	-3.47263	0	
1.4780	-5.83558	2.93838	0	
1.4787	-4.63574	3.54896	0	
1.4793	-4.03582	-2.25149	0	
1.4800	0.545382	-6.22021	0	
1.4807	7.8535	-4.69378	0	
1.4813	11.8348	-1.03034	0	
1.4820	13.6891	0.190804	0	
1.4827	10.6349	0.190804	0	
1.4833	5.45382	-0.114482	0	
1.4840	10.9076	-0.114482	0	
1.4847	23.4514	0.190804	0	
1.4853	24.0513	1.10666	0	
1.4860	19.4701	2.02252	0	
1.4867	19.7974	5.07539	0	
1.4873	10.6349	7.21239	0	
1.4880	-11.9439	4.7701	0	
1.4887	-30.5959	0.496091	0	
1.4893	-41.2309	-1.03034	0	
1.4900	-47.3391	-0.419769	0	
1.4907	-40.9582	2.02252	0	
1.4913	-27.5418	3.85424	0	
1.4920	-21.4335	5.99125	0	
1.4927	-20.1791	8.73883	0	
1.4933	-17.4522	7.21239	0	
1.4940	-16.8523	-0.419769	0	
1.4947	-16.5251	-4.08321	0	
1.4953	-12.871	-1.9462	0	
1.4960	-8.2898	-3.16735	0	
1.4967	-5.56289	-4.69378	0	
1.4973	-5.56289	-3.16735	0	
1.4980	-8.2898	-4.38849	0	
1.4987	-6.16281	-7.13607	0	
1.4993	3.59952	-3.47263	0	
1.5000	11.8348	-1.9462	0	
1.5007	17.0159	-12.0207	0	
1.5013	24.9785	-22.4004	0	
1.5020	34.4136	-23.9268	0	
1.5027	41.449	-22.0951	0	
1.5033	46.6301	-17.2105	0	
1.5040	44.8304	-7.74664	0	
1.5047	32.8865	0.496091	0	
1.5053	20.07	8.43354	0	
1.5060	7.25358	16.9816	0	
1.5067	-15.5979	18.508	0	
1.5073	-40.3582	13.9287	0	
1.5080	-47.0664	12.7075	0	
1.5087	-35.777	12.097	0	
1.5093	-21.4335	9.3494	0	
1.5100	-12.5438	7.51768	0	
1.5107	-8.2898	4.46481	0	
1.5113	-4.96297	-2.25149	0	
1.5120	-1.90884	-12.9365	0	
1.5127	-4.63574	-25.7585	0	
1.5133	-9.21695	-26.0638	0	
1.5140	-6.49004	-11.4101	0	
1.5147	-1.90884	-0.419769	0	
1.5153	-2.78145	3.54896	0	
1.5160	-4.96297	8.43354	0	
1.5167	-4.63574	7.21239	0	
1.5173	-4.63574	0.190804	0	
1.5180	-3.7086	1.10666	0	
1.5187	-1.90884	5.68596	0	
1.5193	0.545382	7.82297	0	
1.5200	5.72651	13.6234	0	
1.5207	14.6162	17.2868	0	
1.5213	23.4514	13.6234	0	
1.5220	29.2325	8.73883	0	
1.5227	28.3053	-0.114482	0	
1.5233	14.6162	-13.2418	0	
1.5240	-4.96297	-15.0735	0	
1.5247	-14.3981	-9.57836	0	
1.5253	-11.9439	-12.3259	0	
1.5260	-12.5438	-15.0735	0	
1.5267	-16.8523	-7.74664	0	
1.5273	-15.3252	-2.25149	0	
1.5280	-8.88972	-4.99907	0	
1.5287	-4.30851	-5.30435	0	
1.5293	-2.78145	-1.9462	0	
1.5300	-4.03582	-2.55677	0	
1.5307	-4.03582	-4.38849	0	
1.5313	-2.50876	-3.16735	0	
1.5320	-4.03582	-1.03034	0	
1.5327	-6.49004	-1.33563	0	
1.5333	-4.96297	-1.33563	0	
1.5340	-5.56289	0.801377	0	
1.5347	-9.81687	2.93838	0	
1.5353	-9.54418	3.24367	0	
1.5360	-4.96297	3.85424	0	
1.5367	-0.0545382	6.60182	0	
1.5373	5.72651	7.21239	0	
1.5380	12.162	4.7701	0	
1.5387	17.3431	3.24367	0	
1.5393	17.6158	3.85424	0	
1.5400	12.4347	3.54896	0	
1.5407	7.8535	2.93838	0	
1.5413	7.25358	2.02252	0	
1.5420	6.32643	0.801377	0	
1.5427	6.32643	0.801377	0	
1.5433	9.38056	1.10666	0	
1.5440	9.10787	-0.725055	0	
1.5447	3.92675	-0.419769	0	
1.5453	0.272691	3.24367	0	
1.5460	0.872611	3.85424	0	
1.5467	4.79936	1.71724	0	
1.5473	9.38056	0.496091	0	
1.5480	11.2349	-2.55677	0	
1.5487	16.7432	-5.60964	0	
1.5493	31.0868	-3.47263	0	
1.5500	45.1031	-1.64091	0	
1.5507	47.5573	-3.47263	0	
1.5513	42.0489	-2.86206	0	
1.5520	32.6138	0.496091	0	
1.5527	17.3431	1.41195	0	
1.5533	-4.63574	0.801377	0	
1.5540	-27.2145	1.10666	0	
1.5547	-38.5039	2.93838	0	
1.5553	-35.1771	4.7701	0	
1.5560	-22.6333	5.07539	0	
1.5567	-14.0708	4.15953	0	
1.5573	-14.7253	4.46481	0	
1.5580	-16.5251	5.38067	0	
1.5587	-15.3252	5.68596	0	
1.5593	-13.7982	5.99125	0	
1.5600	-11.0167	2.6331	0	
1.5607	-6.49004	-3.47263	0	
1.5613	-4.96297	-5.30435	0	
1.5620	-4.63574	-2.86206	0	
1.5627	3.32683	-3.16735	0	
1.5633	13.6891	-3.77792	0	
1.5640	13.6891	-1.64091	0	
1.5647	6.32643	-0.725055	0	
1.5653	2.39968	-2.86206	0	
1.5660	-0.0545382	-1.9462	0	
1.5667	-1.25438	-0.725055	0	
1.5673	2.9996	-3.16735	0	
1.5680	10.3077	-3.16735	0	
1.5687	18.2703	-1.33563	0	
1.5693	31.9594	-1.64091	0	
1.5700	42.6488	1.10666	0	
1.5707	29.2325	5.68596	0	
1.5713	3.59952	4.46481	0	
1.5720	-6.16281	1.10666	0	
1.5727	-10.1441	1.41195	0	
1.5733	-29.9415	0.190804	0	
1.5740	-51.3204	-4.38849	0	
1.5747	-50.3933	-4.99907	0	
1.5753	-32.3957	-1.64091	0	
1.5760	-16.5251	1.10666	0	
1.5767	-10.4168	1.10666	0	
1.5773	-10.744	-1.03034	0	
1.5780	-15.5979	-5.30435	0	
1.5787	-23.8877	-6.83078	0	
1.5793	-27.5418	-0.419769	0	
1.5800	-23.2333	5.68596	0	
1.5807	-17.7794	2.02252	0	
1.5813	-12.2711	-5.30435	0	
1.5820	-7.36265	-10.7995	0	
1.5827	-5.56289	-16.2947	0	
1.5833	-5.56289	-18.1264	0	
1.5840	-4.63574	-15.9894	0	
1.5847	-2.78145	-15.3788	0	
1.5853	1.47253	-10.1889	0	
1.5860	6.65366	3.85424	0	
1.5867	8.18072	18.508	0	
1.5873	8.18072	26.7507	0	
1.5880	11.8348	28.8877	0	
1.5887	14.6162	27.6666	0	
1.5893	12.7619	21.2556	0	
1.5900	10.9076	8.43354	0	
1.5907	10.035	-5.30435	0	
1.5913	8.78064	-13.2418	0	
1.5920	4.52667	-17.2105	0	
1.5927	-0.981687	-19.0422	0	
1.5933	-3.10868	-14.4629	0	
1.5940	-1.90884	-7.13607	0	
1.5947	-0.981687	-3.77792	0	
1.5953	-0.0545382	-1.9462	0	
1.5960	1.79976	1.71724	0	
1.5967	2.39968	5.38067	0	
1.5973	2.67237	8.43354	0	
1.5980	-0.981687	9.04411	0	
1.5987	-6.76273	6.90711	0	
1.5993	-7.36265	4.15953	0	
1.6000	-2.78145	1.10666	0	
1.6007	1.79976	-1.33563	0	
1.6013	5.12659	-1.9462	0	
1.6020	6.05374	-1.03034	0	
1.6027	3.59952	-0.419769	0	
1.6033	2.67237	-1.64091	0	
1.6040	6.32643	-6.22021	0	
1.6047	9.70779	-9.57836	0	
1.6053	10.9076	-7.44136	0	
1.6060	10.9076	-3.16735	0	
1.6067	10.9076	-1.33563	0	
1.6073	12.7619	-0.114482	0	
1.6080	14.6162	1.10666	0	
1.6087	12.4347	1.41195	0	
1.6093	8.50795	2.02252	0	
1.6100	7.8535	0.801377	0	
1.6107	11.5621	-1.03034	0	
1.6113	15.4888	-1.9462	0	
1.6120	16.416	-1.64091	0	
1.6127	16.416	-0.725055	0	
1.6133	18.2703	1.41195	0	
1.6140	14.6162	2.32781	0	
1.6147	5.45382	3.85424	0	
1.6153	-0.0545382	5.68596	0	
1.6160	1.1453	5.07539	0	
1.6167	1.47253	1.41195	0	
1.6173	-2.18153	-3.47263	0	
1.6180	-4.96297	-6.5255	0	
1.6187	-3.10868	-1.64091	0	
1.6193	-0.654458	6.60182	0	
1.6200	-2.78145	8.43354	0	
1.6207	-3.7086	6.29653	0	
1.6213	0.872611	6.60182	0	
1.6220	-1.90884	6.60182	0	
1.6227	-14.7253	6.90711	0	
1.6233	-21.4335	9.04411	0	
1.6240	-22.0334	7.21239	0	
1.6247	-22.3606	0.801377	0	
1.6253	-12.5438	-2.25149	0	
1.6260	5.12659	0.190804	0	
1.6267	17.3431	4.7701	0	
1.6273	24.6513	5.68596	0	
1.6280	26.7782	2.32781	0	
1.6287	16.416	-1.33563	0	
1.6293	-1.58161	-0.725055	0	
1.6300	-19.9064	1.71724	0	
1.6307	-36.7042	2.6331	0	
1.6313	-40.9582	1.10666	0	
1.6320	-29.6688	0.190804	0	
1.6327	-18.3794	1.10666	0	
1.6333	-17.4522	0.496091	0	
1.6340	-18.3794	-1.03034	0	
1.6347	-13.7982	0.190804	0	
1.6353	-9.21695	2.02252	0	
1.6360	-8.2898	0.496091	0	
1.6367	-4.96297	-0.725055	0	
1.6373	4.19944	0.190804	0	
1.6380	13.6891	0.190804	0	
1.6387	20.67	-0.419769	0	
1.6393	21.5971	1.10666	0	
1.6400	15.2161	1.41195	0	
1.6407	9.70779	0.190804	0	
1.6413	6.98089	1.10666	0	
1.6420	-4.30851	1.10666	0	
1.6427	-22.6333	-1.33563	0	
1.6433	-30.2687	-1.33563	0	
1.6440	-19.5792	0.801377	0	
1.6447	-6.16281	0.496091	0	
1.6453	-3.4359	0.190804	0	
1.6460	-5.23566	0.801377	0	
1.6467	-2.78145	0.190804	0	
1.6473	-0.0545382	1.41195	0	
1.6480	-0.0545382	3.54896	0	
1.6487	0.272691	3.24367	0	
1.6493	-0.654458	2.6331	0	
1.6500	-1.25438	2.93838	0	
1.6507	-0.0545382	2.6331	0	
1.6513	-0.981687	0.190804	0	
1.6520	-1.25438	-1.64091	0	
1.6527	3.92675	-0.725055	0	
1.6533	6.05374	2.32781	0	
1.6540	3.59952	4.7701	0	
1.6547	5.72651	3.85424	0	
1.6553	6.98089	1.10666	0	
1.6560	3.32683	-2.25149	0	
1.6567	7.8535	-2.86206	0	
1.6573	17.3431	0.496091	0	
1.6580	19.4701	5.99125	0	
1.6587	22.5243	11.1811	0	
1.6593	31.0868	12.097	0	
1.6600	36.8678	5.68596	0	
1.6607	41.449	-4.69378	0	
1.6613	39.9219	-9.57836	0	
1.6620	17.3431	-6.83078	0	
1.6627	-9.81687	-0.114482	0	
1.6633	-15.9251	3.85424	0	
1.6640	-12.871	3.85424	0	
1.6647	-15.5979	4.7701	0	
1.6653	-15.5979	7.51768	0	
1.6660	-11.0167	7.21239	0	
1.6667	-6.76273	5.68596	0	
1.6673	-2.18153	5.99125	0	
1.6680	0.545382	9.04411	0	
1.6687	-0.0545382	16.9816	0	
1.6693	0.872611	21.2556	0	
1.6700	3.59952	8.73883	0	
1.6707	4.52667	-13.5471	0	
1.6713	4.52667	-23.6215	0	
1.6720	2.67237	-18.4317	0	
1.6727	-2.50876	-11.7154	0	
1.6733	-7.36265	-12.6312	0	
1.6740	-11.0167	-16.6	0	
1.6747	-11.9439	-15.0735	0	
1.6753	-3.7086	-9.27308	0	
1.6760	12.162	-6.22021	0	
1.6767	28.0326	-6.22021	0	
1.6773	40.2492	-6.5255	0	
1.6780	48.7571	-8.6625	0	
1.6787	50.2842	-10.1889	0	
1.6793	44.8304	-7.13607	0	
1.6800	35.3407	-4.99907	0	
1.6807	14.8889	-7.74664	0	
1.6813	-18.9793	-6.83078	0	
1.6820	-44.0123	-1.64091	0	
1.6827	-43.4124	0.190804	0	
1.6833	-31.1958	0.496091	0	
1.6840	-20.8336	1.10666	0	
1.6847	-10.1441	0.190804	0	
1.6853	-2.50876	-1.03034	0	
1.6860	-1.90884	-0.114482	0	
1.6867	-6.49004	1.41195	0	
1.6873	-21.7062	2.32781	0	
1.6880	-39.4311	0.190804	0	
1.6887	-37.5768	-2.86206	0	
1.6893	-22.3606	-2.55677	0	
1.6900	-16.5251	-1.03034	0	
1.6907	-16.5251	-0.725055	0	
1.6913	-12.871	-0.725055	0	
1.6920	-11.9439	-2.55677	0	
1.6927	-13.4709	-0.725055	0	
1.6933	-11.0167	6.60182	0	
1.6940	-6.49004	7.51768	0	
1.6947	-1.58161	2.93838	0	
1.6953	3.32683	3.85424	0	
1.6960	3.92675	5.68596	0	
1.6967	0.872611	4.15953	0	
1.6973	-0.981687	0.496091	0	
1.6980	-1.58161	-8.96779	0	
1.6987	-0.0545382	-16.2947	0	
1.6993	2.07245	-12.0207	0	
1.7000	2.07245	-7.44136	0	
1.7007	2.07245	-8.96779	0	
1.7013	4.52667	-8.6625	0	
1.7020	5.45382	-6.83078	0	
1.7027	3.92675	-5.91493	0	
1.7033	3.92675	-3.47263	0	
1.7040	4.52667	-1.33563	0	
1.7047	2.39968	0.496091	0	
1.7053	0.545382	0.801377	0	
1.7060	0.545382	-5.30435	0	
1.7067	-2.18153	-9.57836	0	
1.7073	-7.08996	-4.38849	0	
1.7080	-10.1441	-0.725055	0	
1.7087	-12.5438	-2.86206	0	
1.7093	-11.9439	-4.38849	0	
1.7100	-2.78145	-3.16735	0	
1.7107	8.78064	-1.33563	0	
1.7113	16.1433	1.10666	0	
1.7120	25.9056	1.10666	0	
1.7127	33.4864	0.190804	0	
1.7133	24.6513	0.801377	0	
1.7140	5.72651	-0.725055	0	
1.7147	-5.56289	-1.9462	0	
1.7153	-8.2898	0.801377	0	
1.7160	-12.871	2.02252	0	
1.7167	-18.3794	-0.114482	0	
1.7173	-17.125	-1.64091	0	
1.7180	-11.9439	-2.25149	0	
1.7187	-11.0167	-2.86206	0	
1.7193	-11.0167	-2.86206	0	
1.7200	-8.61703	-1.64091	0	
1.7207	-9.21695	4.7701	0	
1.7213	-9.21695	14.5393	0	
1.7220	2.07245	18.2027	0	
1.7227	13.6891	11.4864	0	
1.7233	14.6162	1.10666	0	
1.7240	13.0892	-6.5255	0	
1.7247	13.3619	-8.05193	0	
1.7253	11.5621	-4.08321	0	
1.7260	9.38056	-0.725055	0	
1.7267	7.8535	-1.03034	0	
1.7273	3.59952	-0.725055	0	
1.7280	-1.25438	1.41195	0	
1.7287	-5.56289	1.10666	0	
1.7293	-11.9439	0.190804	0	
1.7300	-21.7062	2.32781	0	
1.7307	-28.4144	3.85424	0	
1.7313	-26.6146	4.7701	0	
1.7320	-18.0521	10.2653	0	
1.7327	-12.5438	15.7604	0	
1.7333	-11.3439	16.6763	0	
1.7340	-5.83558	16.6763	0	
1.7347	5.45382	16.6763	0	
1.7353	17.3431	14.8446	0	
1.7360	23.1242	12.4023	0	
1.7367	20.67	10.5705	0	
1.7373	15.4888	7.82297	0	
1.7380	15.4888	5.38067	0	
1.7387	12.7619	0.190804	0	
1.7393	1.79976	-9.57836	0	
1.7400	-4.03582	-19.9581	0	
1.7407	1.79976	-31.8643	0	
1.7413	8.18072	-40.107	0	
1.7420	10.9076	-32.4748	0	
1.7427	13.6891	-18.4317	0	
1.7433	8.78064	-14.1577	0	
1.7440	-6.76273	-10.4942	0	
1.7447	-23.2333	1.10666	0	
1.7453	-29.3415	10.5705	0	
1.7460	-22.6333	15.7604	0	
1.7467	-12.2711	20.9503	0	
1.7473	-6.49004	17.5921	0	
1.7480	-0.654458	7.51768	0	
1.7487	5.12659	2.6331	0	
1.7493	4.52667	1.41195	0	
1.7500	2.07245	0.190804	0	
1.7507	-1.58161	2.93838	0	
1.7513	-10.744	8.12825	0	
1.7520	-16.5251	8.43354	0	
1.7527	-11.3439	5.07539	0	
1.7533	-4.63574	-0.419769	0	
1.7540	-2.78145	-4.38849	0	
1.7547	-0.654458	-4.08321	0	
1.7553	-0.654458	-2.86206	0	
1.7560	-4.63574	-2.55677	0	
1.7567	-6.49004	0.801377	0	
1.7573	-6.49004	4.15953	0	
1.7580	-9.21695	1.41195	0	
1.7587	-12.5438	-2.55677	0	
1.7593	-12.2711	-3.16735	0	
1.7600	-8.2898	-1.64091	0	
1.7607	-0.981687	-0.725055	0	
1.7613	10.035	-1.64091	0	
1.7620	21.9243	-3.47263	0	
1.7627	29.8324	-1.64091	0	
1.7633	30.1596	0.801377	0	
1.7640	21.9243	-1.33563	0	
1.7647	7.25358	-2.55677	0	
1.7653	-8.2898	1.10666	0	
1.7660	-16.8523	2.32781	0	
1.7667	-18.3794	0.496091	0	
1.7673	-16.5251	3.24367	0	
1.7680	-11.3439	6.60182	0	
1.7687	-3.10868	3.24367	0	
1.7693	6.32643	-1.9462	0	
1.7700	16.416	-2.86206	0	
1.7707	24.0513	-2.55677	0	
1.7713	22.197	-3.47263	0	
1.7720	17.0159	-4.38849	0	
1.7727	14.289	-4.08321	0	
1.7733	10.9076	-1.9462	0	
1.7740	8.18072	-0.419769	0	
1.7747	8.50795	-0.725055	0	
1.7753	6.98089	0.190804	0	
1.7760	1.79976	1.71724	0	
1.7767	-1.58161	-1.9462	0	
1.7773	-2.78145	-7.74664	0	
1.7780	-3.7086	-5.60964	0	
1.7787	-2.78145	1.10666	0	
1.7793	-0.654458	1.71724	0	
1.7800	1.47253	-3.16735	0	
1.7807	3.32683	-4.99907	0	
1.7813	1.79976	-4.08321	0	
1.7820	-0.981687	-4.38849	0	
1.7827	-1.90884	-3.47263	0	
1.7833	-1.58161	-0.725055	0	
1.7840	-1.90884	-0.725055	0	
1.7847	-1.90884	-3.16735	0	
1.7853	-3.7086	-4.69378	0	
1.7860	-1.90884	-4.08321	0	
1.7867	8.78064	-1.9462	0	
1.7873	16.416	0.801377	0	
1.7880	14.8889	1.41195	0	
1.7887	14.6162	-0.725055	0	
1.7893	16.7432	-2.25149	0	
1.7900	17.9431	-1.64091	0	
1.7907	23.7241	-2.86206	0	
1.7913	35.668	-4.99907	0	
1.7920	42.6488	-4.99907	0	
1.7927	39.9219	-4.38849	0	
1.7933	28.9598	-4.08321	0	
1.7940	11.2349	-1.64091	0	
1.7947	-8.2898	0.190804	0	
1.7953	-28.7416	0.801377	0	
1.7960	-45.2121	1.10666	0	
1.7967	-46.7392	0.801377	0	
1.7973	-35.4498	-1.33563	0	
1.7980	-25.6875	-4.08321	0	
1.7987	-18.0521	-7.13607	0	
1.7993	-5.23566	-8.6625	0	
1.8000	7.5808	-8.6625	0	
1.8007	8.18072	-9.27308	0	
1.8013	-3.7086	-8.05193	0	
1.8020	-10.1441	0.496091	0	
1.8027	-4.03582	11.7917	0	
1.8033	2.07245	16.371	0	
1.8040	5.12659	10.2653	0	
1.8047	14.6162	-1.9462	0	
1.8053	19.4701	-10.7995	0	
1.8060	6.98089	-8.05193	0	
1.8067	-13.4709	-1.64091	0	
1.8073	-30.2687	1.41195	0	
1.8080	-41.2309	3.85424	0	
1.8087	-41.2309	7.51768	0	
1.8093	-30.2687	6.29653	0	
1.8100	-21.1063	-0.419769	0	
1.8107	-17.4522	-5.91493	0	
1.8113	-15.5979	-9.88365	0	
1.8120	-16.5251	-12.0207	0	
1.8127	-18.3794	-7.13607	0	
1.8133	-16.8523	-0.114482	0	
1.8140	-11.9439	1.41195	0	
1.8147	-8.61703	3.54896	0	
1.8153	-5.56289	11.1811	0	
1.8160	-1.58161	15.1498	0	
1.8167	-0.0545382	7.51768	0	
1.8173	-2.18153	-2.86206	0	
1.8180	-3.10868	-3.47263	0	
1.8187	0.545382	0.496091	0	
1.8193	3.32683	-1.03034	0	
1.8200	2.67237	-7.13607	0	
1.8207	3.92675	-13.2418	0	
1.8213	7.25358	-20.2634	0	
1.8220	9.10787	-21.1792	0	
1.8227	11.8348	-11.7154	0	
1.8233	14.289	-4.69378	0	
1.8240	13.3619	-5.30435	0	
1.8247	12.4347	-2.86206	0	
1.8253	13.3619	0.801377	0	
1.8260	10.9076	-0.419769	0	
1.8267	8.78064	0.190804	0	
1.8273	10.035	2.93838	0	
1.8280	7.8535	3.24367	0	
1.8287	1.1453	3.85424	0	
1.8293	-2.78145	5.07539	0	
1.8300	-8.01711	2.02252	0	
1.8307	-17.7794	-4.08321	0	
1.8313	-22.0334	-6.22021	0	
1.8320	-15.5979	-2.55677	0	
1.8327	-9.21695	0.801377	0	
1.8333	-7.68988	-1.03034	0	
1.8340	-6.76273	-1.64091	0	
1.8347	-1.25438	1.71724	0	
1.8353	2.9996	2.93838	0	
1.8360	-1.25438	0.801377	0	
1.8367	-7.36265	1.41195	0	
1.8373	-5.56289	4.7701	0	
1.8380	-1.90884	7.51768	0	
1.8387	-2.18153	7.51768	0	
1.8393	1.1453	4.15953	0	
1.8400	5.72651	0.801377	0	
1.8407	4.19944	0.190804	0	
1.8413	2.67237	1.10666	0	
1.8420	6.65366	2.93838	0	
1.8427	6.98089	4.15953	0	
1.8433	4.19944	4.15953	0	
1.8440	9.38056	4.15953	0	
1.8447	21.3244	5.99125	0	
1.8453	31.0868	6.29653	0	
1.8460	33.4864	4.7701	0	
1.8467	26.5055	4.7701	0	
1.8473	11.5621	5.07539	0	
1.8480	-0.381767	2.93838	0	
1.8487	-5.56289	-2.25149	0	
1.8493	-13.1982	-4.99907	0	
1.8500	-22.0334	-3.47263	0	
1.8507	-22.9606	-1.03034	0	
1.8513	-16.5251	-1.03034	0	
1.8520	-7.36265	-1.33563	0	
1.8527	4.79936	1.71724	0	
1.8533	17.9431	5.68596	0	
1.8540	26.5055	8.73883	0	
1.8547	26.1783	13.9287	0	
1.8553	18.8702	19.4239	0	
1.8560	12.162	18.8133	0	
1.8567	6.98089	13.6234	0	
1.8573	-4.96297	8.12825	0	
1.8580	-21.7062	2.93838	0	
1.8587	-31.1958	-1.64091	0	
1.8593	-28.7416	-2.25149	0	
1.8600	-16.5251	0.496091	0	
1.8607	-2.78145	2.02252	0	
1.8613	4.19944	1.10666	0	
1.8620	4.79936	0.496091	0	
1.8627	6.98089	1.41195	0	
1.8633	7.8535	3.54896	0	
1.8640	4.19944	3.54896	0	
1.8647	0.872611	-1.33563	0	
1.8653	-0.981687	-5.91493	0	
1.8660	-5.56289	-5.60964	0	
1.8667	-8.61703	-5.30435	0	
1.8673	-10.1441	-8.35722	0	
1.8680	-17.125	-8.6625	0	
1.8687	-23.5605	-4.38849	0	
1.8693	-19.5792	-1.33563	0	
1.8700	-13.7982	-2.25149	0	
1.8707	-10.744	-2.55677	0	
1.8713	-4.63574	-1.64091	0	
1.8720	-0.381767	-1.9462	0	
1.8727	-5.23566	-3.16735	0	
1.8733	-8.2898	-4.38849	0	
1.8740	-3.7086	-4.69378	0	
1.8747	-0.981687	-4.38849	0	
1.8753	-4.30851	-4.69378	0	
1.8760	-6.49004	-5.60964	0	
1.8767	-5.83558	-5.30435	0	
1.8773	-5.83558	-5.30435	0	
1.8780	-5.56289	-4.99907	0	
1.8787	-3.7086	-2.86206	0	
1.8793	-1.90884	-0.419769	0	
1.8800	-1.58161	-0.725055	0	
1.8807	-1.58161	-2.25149	0	
1.8813	-2.50876	-4.08321	0	
1.8820	-2.18153	-4.99907	0	
1.8827	-0.381767	-1.9462	0	
1.8833	1.47253	2.93838	0	
1.8840	8.18072	7.21239	0	
1.8847	22.8515	9.95997	0	
1.8853	34.4136	6.60182	0	
1.8860	40.5219	-5.30435	0	
1.8867	42.9761	-14.4629	0	
1.8873	33.8137	-11.7154	0	
1.8880	13.3619	-4.69378	0	
1.8887	-8.88972	-2.25149	0	
1.8893	-31.1958	-2.55677	0	
1.8900	-41.2309	-2.55677	0	
1.8907	-29.6688	-1.64091	0	
1.8913	-11.6712	-0.725055	0	
1.8920	-0.381767	0.190804	0	
1.8927	11.8348	1.71724	0	
1.8933	24.0513	1.71724	0	
1.8940	31.0868	0.190804	0	
1.8947	28.9598	-0.725055	0	
1.8953	12.4347	0.190804	0	
1.8960	-6.49004	1.10666	0	
1.8967	-13.4709	0.801377	0	
1.8973	-19.9064	-0.725055	0	
1.8980	-33.9227	-0.419769	0	
1.8987	-38.2313	1.10666	0	
1.8993	-28.4144	-1.64091	0	
1.9000	-18.3794	-6.5255	0	
1.9007	-11.3439	-7.13607	0	
1.9013	-5.56289	-4.08321	0	
1.9020	-0.381767	-0.725055	0	
1.9027	7.25358	2.32781	0	
1.9033	18.8702	3.85424	0	
1.9040	25.9056	4.7701	0	
1.9047	21.9243	7.21239	0	
1.9053	13.3619	7.51768	0	
1.9060	6.32643	5.68596	0	
1.9067	-4.03582	5.99125	0	
1.9073	-19.5792	2.93838	0	
1.9080	-31.4685	-3.47263	0	
1.9087	-32.123	-4.08321	0	
1.9093	-24.1604	-0.725055	0	
1.9100	-15.5979	-4.38849	0	
1.9107	-11.9439	-12.6312	0	
1.9113	-10.1441	-14.7682	0	
1.9120	-5.56289	-12.0207	0	
1.9127	-2.78145	-8.96779	0	
1.9133	-4.03582	-7.13607	0	
1.9140	-2.18153	-5.91493	0	
1.9147	1.47253	-2.55677	0	
1.9153	0.272691	3.54896	0	
1.9160	-0.981687	5.38067	0	
1.9167	0.872611	5.07539	0	
1.9173	-1.90884	7.21239	0	
1.9180	-3.7086	5.68596	0	
1.9187	3.32683	-0.114482	0	
1.9193	9.10787	-0.419769	0	
1.9200	6.32643	-0.114482	0	
1.9207	2.67237	-6.83078	0	
1.9213	5.45382	-9.57836	0	
1.9220	15.4888	-2.55677	0	
1.9227	28.0326	2.93838	0	
1.9233	31.0868	5.68596	0	
1.9240	25.9056	9.65468	0	
1.9247	26.1783	9.3494	0	
1.9253	27.7054	4.7701	0	
1.9260	21.5971	3.85424	0	
1.9267	15.8161	5.68596	0	
1.9273	13.6891	5.38067	0	
1.9280	8.18072	4.7701	0	
1.9287	1.47253	6.60182	0	
1.9293	-7.36265	8.12825	0	
1.9300	-20.1791	8.12825	0	
1.9307	-28.4144	9.04411	0	
1.9313	-26.0147	5.68596	0	
1.9320	-15.5979	-7.13607	0	
1.9327	-1.58161	-21.1792	0	
1.9333	11.8348	-24.8427	0	
1.9340	21.5971	-19.0422	0	
1.9347	22.197	-14.4629	0	
1.9353	10.3077	-14.1577	0	
1.9360	-4.30851	-9.88365	0	
1.9367	-11.0167	-0.725055	0	
1.9373	-15.5979	7.82297	0	
1.9380	-23.5605	11.4864	0	
1.9387	-23.8877	3.85424	0	
1.9393	-14.7253	-13.8524	0	
1.9400	-6.49004	-25.148	0	
1.9407	-5.56289	-20.874	0	
1.9413	-7.08996	-12.9365	0	
1.9420	-4.63574	-8.96779	0	
1.9427	-1.90884	-3.77792	0	
1.9433	-3.7086	-1.64091	0	
1.9440	-1.58161	-5.60964	0	
1.9447	4.79936	-4.38849	0	
1.9453	6.32643	5.38067	0	
1.9460	6.65366	11.7917	0	
1.9467	10.9076	15.4551	0	
1.9473	13.6891	19.4239	0	
1.9480	11.8348	16.371	0	
1.9487	9.38056	8.73883	0	
1.9493	6.32643	7.51768	0	
1.9500	5.45382	9.3494	0	
1.9507	8.50795	7.51768	0	
1.9513	9.10787	8.12825	0	
1.9520	7.25358	9.65468	0	
1.9527	7.8535	6.29653	0	
1.9533	12.7619	3.85424	0	
1.9540	21.5971	3.85424	0	
1.9547	31.9594	0.190804	0	
1.9553	37.4677	-1.64091	0	
1.9560	33.8137	2.02252	0	
1.9567	22.8515	1.41195	0	
1.9573	2.9996	-1.64091	0	
1.9580	-21.1063	0.190804	0	
1.9587	-36.9769	3.24367	0	
1.9593	-36.7042	2.93838	0	
1.9600	-22.6333	2.93838	0	
1.9607	-7.36265	2.93838	0	
1.9613	-0.654458	2.93838	0	
1.9620	-1.58161	3.54896	0	
1.9627	-3.7086	3.54896	0	
1.9633	-3.7086	3.85424	0	
1.9640	-3.7086	4.7701	0	
1.9647	-3.7086	5.38067	0	
1.9653	-3.4359	6.60182	0	
1.9660	-3.7086	6.90711	0	
1.9667	-3.10868	3.54896	0	
1.9673	-0.0545382	2.02252	0	
1.9680	2.67237	3.85424	0	
1.9687	1.1453	5.07539	0	
1.9693	-3.10868	4.46481	0	
1.9700	-6.49004	2.6331	0	
1.9707	-8.2898	0.190804	0	
1.9713	-10.1441	0.496091	0	
1.9720	-11.9439	2.32781	0	
1.9727	-14.998	2.6331	0	
1.9733	-17.7794	2.93838	0	
1.9740	-11.9439	2.02252	0	
1.9747	2.9996	0.496091	0	
1.9753	13.6891	4.7701	0	
1.9760	21.9243	11.7917	0	
1.9767	36.8678	12.097	0	
1.9773	42.0489	10.8758	0	
1.9780	28.3053	10.5705	0	
1.9787	15.2161	8.12825	0	
1.9793	7.5808	6.60182	0	
1.9800	-7.36265	7.51768	0	
1.9807	-21.7062	3.85424	0	
1.9813	-19.9064	-0.725055	0	
1.9820	-4.30851	0.801377	0	
1.9827	15.8161	1.10666	0	
1.9833	31.3594	-4.99907	0	
1.9840	32.8865	-9.57836	0	
1.9847	19.1429	-8.05193	0	
1.9853	-1.58161	-5.30435	0	
1.9860	-16.5251	-3.47263	0	
1.9867	-21.4335	-1.64091	0	
1.9873	-24.7603	-1.64091	0	
1.9880	-27.8145	-4.08321	0	
1.9887	-22.0334	-4.38849	0	
1.9893	-10.1441	-1.64091	0	
1.9900	-4.63574	-0.725055	0	
1.9907	-6.76273	-2.55677	0	
1.9913	-6.16281	-6.22021	0	
1.9920	3.59952	-8.05193	0	
1.9927	11.8348	-7.74664	0	
1.9933	11.2349	-5.60964	0	
1.9940	9.10787	-3.47263	0	
1.9947	4.79936	-1.64091	0	
1.9953	-5.56289	-2.25149	0	
1.9960	-10.1441	-3.16735	0	
1.9967	-5.56289	-3.47263	0	
1.9973	-6.49004	-5.30435	0	
1.9980	-13.7982	-7.44136	0	
1.9987	-17.7794	-4.38849	0	
1.9993	-20.5063	-0.725055	0	
2.0000	-22.6333	-1.03034	0	
2.0007	-18.3794	-1.33563	0	
2.0013	-11.0167	-3.47263	0	
2.0020	-3.7086	-7.13607	0	
2.0027	2.9996	-5.91493	0	
2.0033	8.18072	-2.55677	0	
2.0040	9.38056	-2.86206	0	
2.0047	4.52667	-3.47263	0	
2.0053	-3.4359	-1.9462	0	
2.0060	-4.30851	-2.25149	0	
2.0067	1.79976	-4.38849	0	
2.0073	4.79936	-5.60964	0	
2.0080	4.19944	-4.69378	0	
2.0087	4.52667	-1.64091	0	
2.0093	1.79976	-0.114482	0	
2.0100	-2.78145	-1.33563	0	
2.0107	-4.03582	-1.9462	0	
2.0113	-3.10868	-2.55677	0	
2.0120	-2.78145	-4.38849	0	
2.0127	-2.78145	-6.22021	0	
2.0133	-1.58161	-5.30435	0	
2.0140	-0.381767	-4.08321	0	
2.0147	-0.381767	-3.77792	0	
2.0153	-0.381767	-0.725055	0	
2.0160	1.79976	6.60182	0	
2.0167	3.92675	11.1811	0	
2.0173	5.12659	13.9287	0	
2.0180	6.65366	16.0657	0	
2.0187	10.3077	11.4864	0	
2.0193	12.7619	2.02252	0	
2.0200	10.9076	0.190804	0	
2.0207	5.72651	5.07539	0	
2.0213	2.67237	9.3494	0	
2.0220	4.52667	12.7075	0	
2.0227	7.25358	13.3181	0	
2.0233	4.52667	3.85424	0	
2.0240	1.79976	-14.7682	0	
2.0247	5.12659	-30.3378	0	
2.0253	8.18072	-31.8643	0	
2.0260	6.32643	-22.7057	0	
2.0267	5.12659	-13.5471	0	
2.0273	4.19944	-10.4942	0	
2.0280	-1.58161	-10.7995	0	
2.0287	-11.3439	-9.57836	0	
2.0293	-22.3606	-6.83078	0	
2.0300	-30.2687	-4.38849	0	
2.0307	-28.4144	-4.38849	0	
2.0313	-14.3981	-6.83078	0	
2.0320	7.25358	-5.91493	0	
2.0327	32.6138	-0.114482	0	
2.0333	52.4112	1.41195	0	
2.0340	60.3737	-1.9462	0	
2.0347	55.7925	-1.64091	0	
2.0353	38.0676	0.190804	0	
2.0360	11.8348	-1.03034	0	
2.0367	-14.3981	-0.114482	0	
2.0373	-39.4311	0.496091	0	
2.0380	-58.6285	-1.64091	0	
2.0387	-58.3558	-0.725055	0	
2.0393	-46.1393	0.190804	0	
2.0400	-40.031	-3.77792	0	
2.0407	-32.7229	-4.38849	0	
2.0413	-18.9793	-1.64091	0	
2.0420	-10.4168	-1.64091	0	
2.0427	-4.63574	-2.86206	0	
2.0433	6.98089	-5.60964	0	
2.0440	15.2161	-10.1889	0	
2.0447	15.4888	-10.1889	0	
2.0453	15.4888	-6.5255	0	
2.0460	12.162	-5.60964	0	
2.0467	5.72651	-6.22021	0	
2.0473	6.32643	-7.13607	0	
2.0480	8.18072	-8.6625	0	
2.0487	1.1453	-3.16735	0	
2.0493	-6.16281	9.95997	0	
2.0500	-8.61703	18.508	0	
2.0507	-15.5979	18.508	0	
2.0513	-23.8877	15.7604	0	
2.0520	-25.3602	13.3181	0	
2.0527	-23.8877	11.7917	0	
2.0533	-20.1791	13.9287	0	
2.0540	-12.871	17.2868	0	
2.0547	-10.4168	15.4551	0	
2.0553	-11.0167	10.2653	0	
2.0560	-4.63574	6.29653	0	
2.0567	-0.654458	2.02252	0	
2.0573	-5.56289	-1.64091	0	
2.0580	-2.78145	-0.419769	0	
2.0587	6.05374	0.801377	0	
2.0593	5.12659	-3.47263	0	
2.0600	-0.0545382	-9.88365	0	
2.0607	0.872611	-10.7995	0	
2.0613	0.545382	-4.38849	0	
2.0620	-0.654458	0.801377	0	
2.0627	4.79936	-1.64091	0	
2.0633	10.035	-4.38849	0	
2.0640	9.10787	-1.33563	0	
2.0647	7.5808	-1.33563	0	
2.0653	6.32643	-6.83078	0	
2.0660	3.92675	-8.96779	0	
2.0667	7.25358	-7.74664	0	
2.0673	16.1433	-9.27308	0	
2.0680	21.3244	-11.4101	0	
2.0687	20.67	-9.88365	0	
2.0693	18.543	-5.30435	0	
2.0700	19.1429	0.190804	0	
2.0707	19.1429	3.85424	0	
2.0713	14.6162	4.7701	0	
2.0720	8.18072	4.46481	0	
2.0727	3.59952	3.85424	0	
2.0733	-3.7086	1.41195	0	
2.0740	-11.0167	-1.64091	0	
2.0747	-10.744	-1.33563	0	
2.0753	-6.16281	1.71724	0	
2.0760	0.872611	2.32781	0	
2.0767	15.8161	-0.725055	0	
2.0773	31.0868	-1.9462	0	
2.0780	40.2492	1.10666	0	
2.0787	48.1572	8.43354	0	
2.0793	53.6656	14.8446	0	
2.0800	45.703	13.9287	0	
2.0807	23.1242	6.29653	0	
2.0813	-7.68988	-2.55677	0	
2.0820	-32.3957	-6.83078	0	
2.0827	-39.4311	-4.38849	0	
2.0833	-38.2313	-0.114482	0	
2.0840	-43.4124	0.801377	0	
2.0847	-46.7392	1.10666	0	
2.0853	-37.5768	2.6331	0	
2.0860	-23.8877	2.02252	0	
2.0867	-14.998	2.32781	0	
2.0873	-9.21695	5.68596	0	
2.0880	-4.63574	4.46481	0	
2.0887	-6.76273	2.02252	0	
2.0893	-11.6712	5.38067	0	
2.0900	-11.6712	8.73883	0	
2.0907	-11.0167	9.04411	0	
2.0913	-14.7253	9.95997	0	
2.0920	-15.5979	6.60182	0	
2.0927	-12.871	-2.55677	0	
2.0933	-11.3439	-4.38849	0	
2.0940	-11.9439	2.02252	0	
2.0947	-8.2898	3.85424	0	
2.0953	0.272691	1.10666	0	
2.0960	10.035	1.10666	0	
2.0967	20.3973	1.71724	0	
2.0973	30.7595	-0.419769	0	
2.0980	33.4864	-0.725055	0	
2.0987	28.9598	1.10666	0	
2.0993	23.7241	0.190804	0	
2.1000	9.10787	-2.86206	0	
2.1007	-16.2524	-4.08321	0	
2.1013	-28.4144	-5.60964	0	
2.1020	-22.6333	-8.96779	0	
2.1027	-19.9064	-8.96779	0	
2.1033	-23.2333	-4.38849	0	
2.1040	-22.6333	0.190804	0	
2.1047	-18.6521	2.02252	0	
2.1053	-15.3252	3.85424	0	
2.1060	-11.6712	8.43354	0	
2.1067	-8.2898	10.5705	0	
2.1073	-3.4359	5.07539	0	
2.1080	0.545382	-0.725055	0	
2.1087	-0.381767	-0.114482	0	
2.1093	-1.58161	2.02252	0	
2.1100	-1.90884	1.41195	0	
2.1107	-3.4359	1.10666	0	
2.1113	0.545382	-0.114482	0	
2.1120	10.9076	-1.64091	0	
2.1127	17.3431	-0.725055	0	
2.1133	18.2703	1.10666	0	
2.1140	17.3431	2.93838	0	
2.1147	15.2161	2.32781	0	
2.1153	12.162	-0.725055	0	
2.1160	11.8348	-1.9462	0	
2.1167	13.0892	-1.64091	0	
2.1173	11.2349	-3.77792	0	
2.1180	4.79936	-3.47263	0	
2.1187	-2.78145	2.32781	0	
2.1193	-11.3439	3.85424	0	
2.1200	-18.3794	0.801377	0	
2.1207	-16.5251	-0.114482	0	
2.1213	-8.61703	0.190804	0	
2.1220	-5.23566	-0.419769	0	
2.1227	-5.23566	0.190804	0	
2.1233	-2.50876	-0.114482	0	
2.1240	1.79976	-1.9462	0	
2.1247	4.52667	-1.03034	0	
2.1253	6.98089	0.496091	0	
2.1260	8.78064	0.190804	0	
2.1267	10.6349	1.10666	0	
2.1273	14.6162	4.7701	0	
2.1280	20.3973	5.99125	0	
2.1287	25.2512	5.68596	0	
2.1293	27.7054	6.60182	0	
2.1300	26.5055	5.68596	0	
2.1307	18.543	2.6331	0	
2.1313	3.59952	5.07539	0	
2.1320	-9.21695	9.3494	0	
2.1327	-11.3439	2.6331	0	
2.1333	-11.9439	-3.77792	0	
2.1340	-15.5979	2.93838	0	
2.1347	-15.3252	5.38067	0	
2.1353	-8.01711	-9.57836	0	
2.1360	-4.63574	-23.6215	0	
2.1367	-9.81687	-24.8427	0	
2.1373	-15.5979	-19.9581	0	
2.1380	-12.5438	-14.4629	0	
2.1387	5.12659	-9.27308	0	
2.1393	29.2325	-6.22021	0	
2.1400	46.0302	-4.69378	0	
2.1407	51.2113	-4.08321	0	
2.1413	43.9032	-3.77792	0	
2.1420	21.3244	-0.725055	0	
2.1427	-9.21695	2.02252	0	
2.1433	-35.777	2.02252	0	
2.1440	-52.5748	1.10666	0	
2.1447	-54.7018	1.10666	0	
2.1453	-40.6309	2.02252	0	
2.1460	-23.5605	4.7701	0	
2.1467	-14.0708	7.51768	0	
2.1473	-11.0167	6.90711	0	
2.1480	-8.61703	4.46481	0	
2.1487	-5.83558	4.7701	0	
2.1493	-3.4359	5.68596	0	
2.1500	-3.10868	2.02252	0	
2.1507	-3.7086	-4.38849	0	
2.1513	-2.18153	-7.74664	0	
2.1520	0.272691	-7.13607	0	
2.1527	0.872611	-7.44136	0	
2.1533	-1.90884	-7.13607	0	
2.1540	-1.90884	-4.08321	0	
2.1547	2.9996	2.02252	0	
2.1553	7.25358	7.51768	0	
2.1560	9.10787	4.46481	0	
2.1567	11.8348	-5.30435	0	
2.1573	9.10787	-9.88365	0	
2.1580	1.79976	-6.5255	0	
2.1587	1.79976	-1.9462	0	
2.1593	5.45382	0.801377	0	
2.1600	4.19944	1.10666	0	
2.1607	4.19944	-1.03034	0	
2.1613	6.98089	-2.25149	0	
2.1620	6.65366	-1.9462	0	
2.1627	6.32643	-2.55677	0	
2.1633	6.98089	-2.86206	0	
2.1640	4.19944	-2.55677	0	
2.1647	-0.0545382	-4.38849	0	
2.1653	-1.25438	-5.30435	0	
2.1660	2.67237	-5.30435	0	
2.1667	7.5808	-6.5255	0	
2.1673	11.8348	-4.08321	0	
2.1680	20.07	4.7701	0	
2.1687	29.2325	13.6234	0	
2.1693	31.3594	16.6763	0	
2.1700	30.7595	13.9287	0	
2.1707	26.5055	9.3494	0	
2.1713	9.10787	8.43354	0	
2.1720	-8.61703	9.3494	0	
2.1727	-12.871	5.68596	0	
2.1733	-17.4522	2.02252	0	
2.1740	-26.6146	3.54896	0	
2.1747	-26.0147	4.15953	0	
2.1753	-23.2333	-0.114482	0	
2.1760	-30.8686	-4.38849	0	
2.1767	-35.1771	-5.60964	0	
2.1773	-27.5418	-5.91493	0	
2.1780	-18.3794	-5.30435	0	
2.1787	-11.3439	-3.16735	0	
2.1793	-6.49004	-1.33563	0	
2.1800	-6.16281	1.10666	0	
2.1807	-5.56289	5.38067	0	
2.1813	-1.90884	10.2653	0	
2.1820	0.872611	13.3181	0	
2.1827	3.59952	11.1811	0	
2.1833	5.45382	3.85424	0	
2.1840	3.59952	-1.03034	0	
2.1847	2.9996	1.41195	0	
2.1853	6.05374	4.46481	0	
2.1860	7.5808	1.41195	0	
2.1867	8.18072	0.190804	0	
2.1873	9.38056	1.71724	0	
2.1880	8.50795	0.496091	0	
2.1887	7.25358	-1.9462	0	
2.1893	8.18072	-2.55677	0	
2.1900	11.8348	-4.69378	0	
2.1907	14.6162	-5.30435	0	
2.1913	14.289	-1.9462	0	
2.1920	10.9076	-1.9462	0	
2.1927	8.78064	-7.44136	0	
2.1933	5.45382	-11.1048	0	
2.1940	-1.90884	-9.88365	0	
2.1947	-6.49004	-6.5255	0	
2.1953	-4.63574	-4.38849	0	
2.1960	-3.10868	-5.30435	0	
2.1967	-6.49004	-5.60964	0	
2.1973	-10.4168	-0.114482	0	
2.1980	-14.7253	5.38067	0	
2.1987	-21.1063	1.41195	0	
2.1993	-24.4876	-6.22021	0	
2.2000	-20.1791	-6.83078	0	
2.2007	-10.744	-3.16735	0	
2.2013	-0.381767	-1.64091	0	
2.2020	10.035	-0.725055	0	
2.2027	23.7241	-1.33563	0	
2.2033	41.449	-2.55677	0	
2.2040	56.9924	-1.03034	0	
2.2047	62.1735	-2.25149	0	
2.2053	56.7197	-5.91493	0	
2.2060	41.449	-3.16735	0	
2.2067	11.8348	2.6331	0	
2.2073	-30.2687	2.32781	0	
2.2080	-61.41	-0.725055	0	
2.2087	-59.5557	-3.47263	0	
2.2093	-36.377	-4.99907	0	
2.2100	-19.3065	-2.86206	0	
2.2107	-12.871	-1.03034	0	
2.2113	-10.1441	-1.64091	0	
2.2120	-12.5438	-1.64091	0	
2.2127	-16.5251	0.190804	0	
2.2133	-14.7253	-0.114482	0	
2.2140	-11.0167	-1.33563	0	
2.2147	-11.9439	0.190804	0	
2.2153	-13.7982	1.71724	0	
2.2160	-13.7982	-0.419769	0	
2.2167	-14.998	-2.25149	0	
2.2173	-14.7253	-0.419769	0	
2.2180	-4.30851	1.10666	0	
2.2187	11.8348	1.10666	0	
2.2193	22.5243	1.71724	0	
2.2200	29.5597	0.801377	0	
2.2207	38.3949	0.190804	0	
2.2213	45.1031	2.02252	0	
2.2220	45.4303	2.93838	0	
2.2227	34.4136	2.93838	0	
2.2233	12.7619	4.15953	0	
2.2240	-7.36265	2.02252	0	
2.2247	-20.8336	-0.725055	0	
2.2253	-37.5768	1.71724	0	
2.2260	-51.9203	2.6331	0	
2.2267	-48.5935	-1.64091	0	
2.2273	-33.65	-1.64091	0	
2.2280	-22.3606	1.10666	0	
2.2287	-15.5979	-0.114482	0	
2.2293	-10.4168	-1.33563	0	
2.2300	-9.21695	0.190804	0	
2.2307	-9.81687	0.801377	0	
2.2313	-7.08996	2.02252	0	
2.2320	-0.654458	2.93838	0	
2.2327	8.18072	0.190804	0	
2.2333	15.4888	-3.47263	0	
2.2340	14.6162	-6.5255	0	
2.2347	5.45382	-7.13607	0	
2.2353	-4.63574	-1.33563	0	
2.2360	-8.2898	8.12825	0	
2.2367	-8.88972	12.097	0	
2.2373	-8.2898	8.73883	0	
2.2380	-7.36265	2.02252	0	
2.2387	-6.49004	-7.13607	0	
2.2393	-5.56289	-12.3259	0	
2.2400	-4.96297	-8.05193	0	
2.2407	-8.61703	-2.86206	0	
2.2413	-12.2711	-4.99907	0	
2.2420	-5.83558	-7.74664	0	
2.2427	7.5808	-5.60964	0	
2.2433	22.8515	-4.38849	0	
2.2440	42.9761	-4.38849	0	
2.2447	60.9737	-0.725055	0	
2.2453	64.0278	2.93838	0	
2.2460	60.0465	4.15953	0	
2.2467	46.6301	4.7701	0	
2.2473	8.18072	4.46481	0	
2.2480	-29.3415	3.54896	0	
2.2487	-29.9415	5.38067	0	
2.2493	-13.7982	5.68596	0	
2.2500	-9.21695	0.190804	0	
2.2507	-2.50876	-2.86206	0	
2.2513	9.10787	0.801377	0	
2.2520	9.38056	3.85424	0	
2.2527	3.32683	-2.55677	0	
2.2533	-3.7086	-15.3788	0	
2.2540	-19.3065	-25.4533	0	
2.2547	-37.5768	-27.8956	0	
2.2553	-43.4124	-24.5374	0	
2.2560	-36.377	-13.5471	0	
2.2567	-22.9606	1.10666	0	
2.2573	-14.0708	7.82297	0	
2.2580	-14.3981	6.29653	0	
2.2587	-12.871	3.85424	0	
2.2593	-6.49004	0.190804	0	
2.2600	-6.49004	-4.99907	0	
2.2607	-11.3439	-4.08321	0	
2.2613	-10.744	0.801377	0	
2.2620	-5.23566	1.71724	0	
2.2627	0.872611	-0.419769	0	
2.2633	8.18072	-1.64091	0	
2.2640	12.4347	-1.64091	0	
2.2647	9.38056	0.496091	0	
2.2653	7.5808	4.15953	0	
2.2660	10.035	4.7701	0	
2.2667	10.3077	4.15953	0	
2.2673	10.035	4.7701	0	
2.2680	10.9076	5.99125	0	
2.2687	10.3077	8.73883	0	
2.2693	8.78064	11.7917	0	
2.2700	7.25358	11.4864	0	
2.2707	4.19944	8.73883	0	
2.2713	4.19944	5.99125	0	
2.2720	8.50795	3.24367	0	
2.2727	9.70779	-0.114482	0	
2.2733	8.18072	-2.86206	0	
2.2740	8.18072	-2.86206	0	
2.2747	8.18072	-3.16735	0	
2.2753	12.7619	-8.35722	0	
2.2760	24.6513	-14.7682	0	
2.2767	29.2325	-14.4629	0	
2.2773	21.9243	-8.35722	0	
2.2780	17.3431	-3.16735	0	
2.2787	16.7432	-2.55677	0	
2.2793	12.4347	-5.30435	0	
2.2800	4.79936	-8.05193	0	
2.2807	-1.90884	-8.05193	0	
2.2813	-8.01711	-5.91493	0	
2.2820	-9.21695	-0.725055	0	
2.2827	-9.21695	6.60182	0	
2.2833	-13.7982	9.3494	0	
2.2840	-18.3794	4.7701	0	
2.2847	-16.5251	0.190804	0	
2.2853	-11.9439	0.190804	0	
2.2860	-7.68988	5.68596	0	
2.2867	-4.63574	8.12825	0	
2.2873	-2.50876	0.801377	0	
2.2880	-0.0545382	-8.35722	0	
2.2887	1.47253	-8.96779	0	
2.2893	0.545382	-5.30435	0	
2.2900	0.272691	-4.38849	0	
2.2907	2.39968	-4.69378	0	
2.2913	2.67237	-5.30435	0	
2.2920	1.79976	-6.22021	0	
2.2927	2.67237	-4.08321	0	
2.2933	2.07245	-1.03034	0	
2.2940	-0.0545382	0.496091	0	
2.2947	-0.654458	2.32781	0	
2.2953	-1.25438	4.46481	0	
2.2960	-0.654458	3.85424	0	
2.2967	5.45382	1.71724	0	
2.2973	9.38056	-0.725055	0	
2.2980	3.59952	-2.55677	0	
2.2987	-2.50876	-4.08321	0	
2.2993	-5.23566	-1.9462	0	
2.3000	-11.9439	2.6331	0	
2.3007	-17.7794	6.60182	0	
2.3013	-17.125	9.04411	0	
2.3020	-15.3252	11.4864	0	
2.3027	-13.1982	9.3494	0	
2.3033	-5.56289	-0.725055	0	
2.3040	6.65366	-11.1048	0	
2.3047	23.7241	-9.88365	0	
2.3053	38.9948	-1.9462	0	
2.3060	40.8491	1.71724	0	
2.3067	35.0135	2.32781	0	
2.3073	32.2866	2.93838	0	
2.3080	20.9972	2.93838	0	
2.3087	-2.18153	3.85424	0	
2.3093	-19.3065	4.46481	0	
2.3100	-26.6146	2.32781	0	
2.3107	-32.123	0.190804	0	
2.3113	-35.777	0.190804	0	
2.3120	-37.904	-2.25149	0	
2.3127	-34.8499	-5.30435	0	
2.3133	-18.3794	-1.33563	0	
2.3140	2.67237	5.38067	0	
2.3147	11.2349	6.60182	0	
2.3153	10.3077	5.38067	0	
2.3160	5.12659	6.60182	0	
2.3167	-7.36265	7.21239	0	
2.3173	-24.7603	5.07539	0	
2.3180	-39.4311	2.93838	0	
2.3187	-45.5394	4.15953	0	
2.3193	-39.4311	5.07539	0	
2.3200	-27.8145	0.801377	0	
2.3207	-18.3794	-4.69378	0	
2.3213	-11.6712	-3.47263	0	
2.3220	-6.76273	0.496091	0	
2.3227	-8.2898	0.190804	0	
2.3233	-8.88972	0.190804	0	
2.3240	-1.90884	4.7701	0	
2.3247	4.79936	7.82297	0	
2.3253	4.19944	8.43354	0	
2.3260	3.59952	9.3494	0	
2.3267	7.25358	9.65468	0	
2.3273	8.50795	8.73883	0	
2.3280	6.05374	9.3494	0	
2.3287	3.32683	9.04411	0	
2.3293	2.39968	6.60182	0	
2.3300	3.59952	3.54896	0	
2.3307	6.65366	1.10666	0	
2.3313	8.18072	-2.55677	0	
2.3320	7.8535	-11.1048	0	
2.3327	6.98089	-23.9268	0	
2.3333	7.8535	-31.8643	0	
2.3340	9.38056	-29.1167	0	
2.3347	8.78064	-21.4845	0	
2.3353	7.25358	-13.2418	0	
2.3360	8.18072	-4.69378	0	
2.3367	7.8535	2.93838	0	
2.3373	3.59952	8.43354	0	
2.3380	0.272691	10.2653	0	
2.3387	1.47253	7.51768	0	
2.3393	4.52667	2.93838	0	
2.3400	8.78064	0.190804	0	
2.3407	15.2161	1.71724	0	
2.3413	16.416	3.85424	0	
2.3420	8.18072	2.02252	0	
2.3427	-1.90884	-1.64091	0	
2.3433	-6.49004	-2.55677	0	
2.3440	-4.03582	0.190804	0	
2.3447	1.79976	5.07539	0	
2.3453	6.32643	9.65468	0	
2.3460	10.6349	11.1811	0	
2.3467	20.07	7.82297	0	
2.3473	32.6138	2.93838	0	
2.3480	42.9761	0.801377	0	
2.3487	51.2113	2.02252	0	
2.3493	47.83	3.54896	0	
2.3500	26.5055	2.02252	0	
2.3507	0.872611	0.190804	0	
2.3513	-19.3065	2.02252	0	
2.3520	-33.9227	4.15953	0	
2.3527	-33.9227	1.71724	0	
2.3533	-18.0521	-1.03034	0	
2.3540	-9.81687	-0.725055	0	
2.3547	-16.5251	1.41195	0	
2.3553	-19.9064	6.90711	0	
2.3560	-15.9251	11.4864	0	
2.3567	-14.0708	2.6331	0	
2.3573	-18.3794	-13.5471	0	
2.3580	-28.7416	-16.9052	0	
2.3587	-38.2313	-6.83078	0	
2.3593	-38.5039	1.10666	0	
2.3600	-32.3957	0.496091	0	
2.3607	-20.5063	-3.77792	0	
2.3613	-3.7086	-6.22021	0	
2.3620	12.4347	-3.16735	0	
2.3627	28.6325	-0.725055	0	
2.3633	46.6301	-1.64091	0	
2.3640	54.8654	0.496091	0	
2.3647	50.8841	5.07539	0	
2.3653	39.322	8.12825	0	
2.3660	13.9618	9.95997	0	
2.3667	-22.0334	7.82297	0	
2.3673	-47.6664	-2.86206	0	
2.3680	-54.0473	-12.3259	0	
2.3687	-48.8662	-11.1048	0	
2.3693	-37.3041	-5.30435	0	
2.3700	-20.1791	-1.33563	0	
2.3707	-4.63574	1.10666	0	
2.3713	3.92675	0.190804	0	
2.3720	7.25358	-1.64091	0	
2.3727	8.18072	-1.64091	0	
2.3733	6.05374	-1.64091	0	
2.3740	2.67237	-2.25149	0	
2.3747	2.39968	-2.55677	0	
2.3753	0.545382	-3.16735	0	
2.3760	-7.68988	-3.16735	0	
2.3767	-13.7982	-0.725055	0	
2.3773	-15.3252	-0.419769	0	
2.3780	-20.1791	-1.03034	0	
2.3787	-26.6146	1.10666	0	
2.3793	-24.1604	3.85424	0	
2.3800	-14.7253	3.85424	0	
2.3807	-7.68988	3.85424	0	
2.3813	-5.56289	4.46481	0	
2.3820	-2.78145	3.85424	0	
2.3827	2.9996	2.02252	0	
2.3833	7.25358	2.32781	0	
2.3840	8.50795	5.07539	0	
2.3847	10.9076	7.21239	0	
2.3853	14.289	5.99125	0	
2.3860	16.1433	4.7701	0	
2.3867	13.3619	5.07539	0	
2.3873	6.65366	1.10666	0	
2.3880	0.872611	-3.16735	0	
2.3887	-4.63574	-0.419769	0	
2.3893	-8.88972	2.02252	0	
2.3900	-9.54418	-1.64091	0	
2.3907	-8.2898	-1.03034	0	
2.3913	-6.49004	1.41195	0	
2.3920	-2.78145	-4.99907	0	
2.3927	-0.0545382	-11.7154	0	
2.3933	-0.381767	-8.96779	0	
2.3940	1.1453	-6.83078	0	
2.3947	3.92675	-7.74664	0	
2.3953	4.79936	-3.16735	0	
2.3960	10.6349	-0.114482	0	
2.3967	18.8702	-5.30435	0	
2.3973	22.8515	-6.22021	0	
2.3980	29.5597	2.32781	0	
2.3987	42.0489	5.68596	0	
2.3993	40.2492	-0.419769	0	
2.4000	19.1429	-4.38849	0	
2.4007	0.872611	-3.77792	0	
2.4013	-9.81687	-3.47263	0	
2.4020	-22.9606	-5.30435	0	
2.4027	-32.3957	-7.74664	0	
2.4033	-26.2874	-8.6625	0	
2.4040	-11.9439	-8.05193	0	
2.4047	-1.90884	-9.27308	0	
2.4053	1.79976	-11.4101	0	
2.4060	2.9996	-9.27308	0	
2.4067	5.72651	-4.38849	0	
2.4073	10.6349	-0.114482	0	
2.4080	10.9076	4.7701	0	
2.4087	8.50795	10.2653	0	
2.4093	10.035	11.1811	0	
2.4100	9.38056	9.3494	0	
2.4107	2.67237	7.51768	0	
2.4113	-0.981687	1.71724	0	
2.4120	-0.981687	-2.55677	0	
2.4127	-3.4359	2.93838	0	
2.4133	-3.7086	9.04411	0	
2.4140	-1.25438	6.60182	0	
2.4147	-1.90884	5.07539	0	
2.4153	1.79976	8.73883	0	
2.4160	13.6891	9.04411	0	
2.4167	22.197	5.68596	0	
2.4173	26.7782	5.68596	0	
2.4180	31.6867	7.51768	0	
2.4187	31.9594	6.90711	0	
2.4193	26.1783	3.24367	0	
2.4200	13.9618	-2.55677	0	
2.4207	-1.25438	-11.1048	0	
2.4213	-3.4359	-21.7898	0	
2.4220	14.289	-28.2008	0	
2.4227	27.4327	-23.6215	0	
2.4233	22.197	-14.4629	0	
2.4240	14.289	-9.88365	0	
2.4247	6.65366	-8.35722	0	
2.4253	-15.3252	-7.74664	0	
2.4260	-43.6851	-9.88365	0	
2.4267	-53.7746	-12.0207	0	
2.4273	-42.7579	-11.1048	0	
2.4280	-29.0688	-6.83078	0	
2.4287	-22.0334	-0.419769	0	
2.4293	-17.4522	4.15953	0	
2.4300	-14.7253	2.93838	0	
2.4307	-14.7253	-2.86206	0	
2.4313	-14.7253	-7.74664	0	
2.4320	-10.4168	-9.88365	0	
2.4327	-4.96297	-9.88365	0	
2.4333	-4.03582	-6.22021	0	
2.4340	-6.76273	-0.725055	0	
2.4347	-7.36265	2.93838	0	
2.4353	-5.56289	2.6331	0	
2.4360	-4.03582	-2.86206	0	
2.4367	-0.981687	-15.3788	0	
2.4373	4.52667	-23.3163	0	
2.4380	9.70779	-15.3788	0	
2.4387	12.7619	-2.55677	0	
2.4393	13.6891	-0.725055	0	
2.4400	14.289	-4.38849	0	
2.4407	14.6162	-5.60964	0	
2.4413	14.6162	-3.77792	0	
2.4420	14.8889	-0.725055	0	
2.4427	13.3619	0.496091	0	
2.4433	7.8535	0.801377	0	
2.4440	5.12659	2.32781	0	
2.4447	9.10787	3.24367	0	
2.4453	8.50795	2.93838	0	
2.4460	-4.30851	5.68596	0	
2.4467	-16.5251	7.51768	0	
2.4473	-19.3065	5.68596	0	
2.4480	-17.4522	4.7701	0	
2.4487	-14.0708	5.68596	0	
2.4493	-8.2898	5.68596	0	
2.4500	-6.49004	7.21239	0	
2.4507	-9.54418	8.12825	0	
2.4513	-11.0167	5.07539	0	
2.4520	-7.68988	4.46481	0	
2.4527	-4.03582	10.2653	0	
2.4533	-4.96297	13.9287	0	
2.4540	-8.2898	9.65468	0	
2.4547	-8.2898	2.32781	0	
2.4553	-7.36265	-1.33563	0	
2.4560	-9.54418	-1.03034	0	
2.4567	-12.2711	-0.419769	0	
2.4573	-10.744	-1.03034	0	
2.4580	-7.36265	-1.33563	0	
2.4587	-5.56289	0.190804	0	
2.4593	-4.03582	2.02252	0	
2.4600	-1.90884	3.85424	0	
2.4607	2.67237	7.51768	0	
2.4613	6.65366	11.1811	0	
2.4620	8.18072	13.3181	0	
2.4627	11.5621	15.1498	0	
2.4633	20.9972	14.8446	0	
2.4640	33.4864	11.1811	0	
2.4647	37.4677	7.82297	0	
2.4653	27.7054	5.99125	0	
2.4660	16.1433	3.24367	0	
2.4667	11.8348	1.41195	0	
2.4673	2.9996	3.24367	0	
2.4680	-15.5979	3.85424	0	
2.4687	-21.1063	2.6331	0	
2.4693	-6.16281	2.93838	0	
2.4700	13.6891	3.54896	0	
2.4707	29.2325	2.6331	0	
2.4713	39.322	2.93838	0	
2.4720	37.195	4.15953	0	
2.4727	23.4514	2.02252	0	
2.4733	2.67237	0.190804	0	
2.4740	-19.3065	2.02252	0	
2.4747	-23.8877	2.32781	0	
2.4753	-9.21695	0.801377	0	
2.4760	-4.63574	1.41195	0	
2.4767	-17.125	1.41195	0	
2.4773	-21.1063	2.32781	0	
2.4780	-11.9439	7.82297	0	
2.4787	-11.9439	7.82297	0	
2.4793	-20.8336	-0.725055	0	
2.4800	-19.9064	-4.99907	0	
2.4807	-13.1982	-3.47263	0	
2.4813	-11.9439	-6.22021	0	
2.4820	-12.5438	-8.05193	0	
2.4827	-8.61703	-5.30435	0	
2.4833	-3.10868	-5.30435	0	
2.4840	2.07245	-7.44136	0	
2.4847	6.32643	-4.69378	0	
2.4853	7.25358	-2.55677	0	
2.4860	7.25358	-5.60964	0	
2.4867	10.035	-7.13607	0	
2.4873	13.6891	-8.05193	0	
2.4880	13.0892	-12.9365	0	
2.4887	8.78064	-14.4629	0	
2.4893	6.65366	-9.88365	0	
2.4900	6.65366	-5.91493	0	
2.4907	5.12659	-4.69378	0	
2.4913	3.92675	-3.47263	0	
2.4920	0.872611	-0.725055	0	
2.4927	-7.36265	5.99125	0	
2.4933	-14.0708	13.3181	0	
2.4940	-13.1982	12.097	0	
2.4947	-10.1441	7.51768	0	
2.4953	-9.81687	7.21239	0	
2.4960	-9.21695	5.99125	0	
2.4967	-4.63574	2.93838	0	
2.4973	-1.90884	2.93838	0	
2.4980	-4.03582	4.7701	0	
2.4987	-4.03582	4.15953	0	
2.4993	0.872611	4.15953	0	
2.5000	2.07245	4.15953	0	
2.5007	-2.50876	2.02252	0	
2.5013	-4.96297	-0.419769	0	
2.5020	-3.7086	0.496091	0	
2.5027	-0.654458	2.93838	0	
2.5033	2.9996	1.10666	0	
2.5040	6.05374	-0.725055	0	
2.5047	8.18072	1.10666	0	
2.5053	11.8348	2.02252	0	
2.5060	17.0159	2.32781	0	
2.5067	22.197	5.99125	0	
2.5073	22.8515	6.29653	0	
2.5080	15.8161	1.10666	0	
2.5087	2.07245	-0.114482	0	
2.5093	-21.1063	2.93838	0	
2.5100	-47.6664	3.85424	0	
2.5107	-54.7018	5.07539	0	
2.5113	-37.5768	6.60182	0	
2.5120	-20.1791	2.93838	0	
2.5127	-9.54418	1.41195	0	
2.5133	3.92675	6.29653	0	
2.5140	17.3431	7.51768	0	
2.5147	25.5784	2.6331	0	
2.5153	27.4327	-0.419769	0	
2.5160	18.2703	-1.03034	0	
2.5167	-0.0545382	-1.64091	0	
2.5173	-19.9064	-0.725055	0	
2.5180	-40.3582	0.496091	0	
2.5187	-51.6476	0.190804	0	
2.5193	-41.8853	2.02252	0	
2.5200	-26.6146	0.496091	0	
2.5207	-19.3065	-8.6625	0	
2.5213	-7.08996	-15.6841	0	
2.5220	17.3431	-15.3788	0	
2.5227	37.4677	-11.7154	0	
2.5233	48.7571	-7.13607	0	
2.5240	60.3737	-2.86206	0	
2.5247	65.8821	-1.64091	0	
2.5253	56.3925	-0.114482	0	
2.5260	32.8865	0.496091	0	
2.5267	2.39968	-3.47263	0	
2.5273	-25.6875	-4.38849	0	
2.5280	-42.7579	1.41195	0	
2.5287	-50.3933	4.7701	0	
2.5293	-52.8475	4.46481	0	
2.5300	-48.5935	5.38067	0	
2.5307	-35.777	4.7701	0	
2.5313	-20.5063	1.10666	0	
2.5320	-10.1441	-0.725055	0	
2.5327	-3.7086	-1.64091	0	
2.5333	-1.25438	-0.725055	0	
2.5340	-2.18153	3.85424	0	
2.5347	-0.981687	7.82297	0	
2.5353	3.59952	9.04411	0	
2.5360	4.52667	8.43354	0	
2.5367	1.1453	2.02252	0	
2.5373	-0.381767	-13.5471	0	
2.5380	-2.18153	-26.0638	0	
2.5387	-6.76273	-23.9268	0	
2.5393	-10.1441	-14.7682	0	
2.5400	-11.9439	-8.96779	0	
2.5407	-11.6712	-5.30435	0	
2.5413	-8.2898	-0.114482	0	
2.5420	-4.63574	5.38067	0	
2.5427	-3.7086	9.3494	0	
2.5433	-4.03582	9.04411	0	
2.5440	-3.7086	3.85424	0	
2.5447	-0.981687	0.190804	0	
2.5453	2.07245	-1.03034	0	
2.5460	0.872611	-4.69378	0	
2.5467	-2.78145	-10.4942	0	
2.5473	-1.25438	-10.1889	0	
2.5480	2.67237	-5.60964	0	
2.5487	4.19944	-6.22021	0	
2.5493	5.45382	-11.4101	0	
2.5500	6.32643	-10.7995	0	
2.5507	6.32643	-5.60964	0	
2.5513	6.65366	-2.55677	0	
2.5520	7.5808	-1.33563	0	
2.5527	8.50795	-0.725055	0	
2.5533	8.50795	-0.725055	0	
2.5540	7.5808	1.10666	0	
2.5547	5.45382	2.93838	0	
2.5553	2.9996	1.10666	0	
2.5560	3.32683	-1.03034	0	
2.5567	4.79936	-0.419769	0	
2.5573	2.67237	0.190804	0	
2.5580	2.67237	-0.725055	0	
2.5587	11.8348	-1.03034	0	
2.5593	24.6513	-1.03034	0	
2.5600	33.4864	-1.9462	0	
2.5607	37.4677	-1.9462	0	
2.5613	35.9407	-0.419769	0	
2.5620	31.9594	-0.114482	0	
2.5627	26.5055	-3.16735	0	
2.5633	10.3077	-5.30435	0	
2.5640	-11.0167	-5.30435	0	
2.5647	-17.4522	-5.91493	0	
2.5653	-6.49004	-4.38849	0	
2.5660	4.52667	-2.25149	0	
2.5667	7.8535	-2.25149	0	
2.5673	8.78064	-1.33563	0	
2.5680	10.9076	1.41195	0	
2.5687	15.4888	0.801377	0	
2.5693	21.9243	-1.33563	0	
2.5700	24.3786	0.190804	0	
2.5707	21.3244	1.41195	0	
2.5713	15.4888	-1.33563	0	
2.5720	6.98089	-3.77792	0	
2.5727	-6.16281	-4.69378	0	
2.5733	-12.871	-4.69378	0	
2.5740	-6.16281	-2.55677	0	
2.5747	1.79976	-0.725055	0	
2.5753	1.47253	-2.25149	0	
2.5760	-1.58161	-3.77792	0	
2.5767	-4.96297	-1.33563	0	
2.5773	-12.2711	-0.419769	0	
2.5780	-28.7416	-3.47263	0	
2.5787	-49.5207	-3.47263	0	
2.5793	-57.7559	-0.725055	0	
2.5800	-45.5394	-0.725055	0	
2.5807	-31.7957	-1.33563	0	
2.5813	-27.5418	-1.33563	0	
2.5820	-23.8877	-2.86206	0	
2.5827	-16.5251	-2.55677	0	
2.5833	-12.2711	-1.33563	0	
2.5840	-11.3439	-2.55677	0	
2.5847	-10.1441	-1.64091	0	
2.5853	-6.76273	2.93838	0	
2.5860	-4.03582	2.6331	0	
2.5867	-1.58161	0.190804	0	
2.5873	2.67237	-0.419769	0	
2.5880	5.72651	-2.55677	0	
2.5887	4.52667	-3.47263	0	
2.5893	4.19944	1.41195	0	
2.5900	6.32643	3.54896	0	
2.5907	7.25358	-2.86206	0	
2.5913	8.18072	-11.7154	0	
2.5920	10.035	-18.1264	0	
2.5927	8.78064	-19.3475	0	
2.5933	4.52667	-15.3788	0	
2.5940	3.32683	-8.96779	0	
2.5947	3.32683	-0.419769	0	
2.5953	2.67237	7.51768	0	
2.5960	2.07245	6.60182	0	
2.5967	2.07245	-1.33563	0	
2.5973	2.9996	-6.22021	0	
2.5980	5.45382	-0.725055	0	
2.5987	6.65366	11.4864	0	
2.5993	6.32643	19.4239	0	
2.6000	5.72651	18.508	0	
2.6007	4.52667	15.4551	0	
2.6013	2.9996	12.4023	0	
2.6020	2.07245	9.04411	0	
2.6027	4.79936	8.43354	0	
2.6033	12.7619	9.3494	0	
2.6040	23.7241	5.99125	0	
2.6047	31.6867	3.54896	0	
2.6053	30.1596	2.93838	0	
2.6060	20.07	-0.114482	0	
2.6067	8.18072	-2.25149	0	
2.6073	-4.03582	1.10666	0	
2.6080	-18.6521	5.68596	0	
2.6087	-29.0688	5.99125	0	
2.6093	-23.2333	4.7701	0	
2.6100	-4.96297	5.68596	0	
2.6107	12.7619	7.21239	0	
2.6113	24.0513	5.38067	0	
2.6120	27.4327	2.93838	0	
2.6127	19.1429	5.68596	0	
2.6133	2.39968	10.5705	0	
2.6140	-11.9439	12.4023	0	
2.6147	-18.3794	9.3494	0	
2.6153	-21.7062	1.71724	0	
2.6160	-23.2333	-3.16735	0	
2.6167	-18.9793	0.496091	0	
2.6173	-12.5438	4.7701	0	
2.6180	-9.21695	2.93838	0	
2.6187	-4.96297	0.801377	0	
2.6193	1.79976	1.41195	0	
2.6200	1.79976	2.02252	0	
2.6207	-5.56289	0.190804	0	
2.6213	-5.56289	-2.55677	0	
2.6220	2.39968	-3.16735	0	
2.6227	3.59952	-2.25149	0	
2.6233	-1.25438	-0.725055	0	
2.6240	1.79976	3.24367	0	
2.6247	14.289	5.38067	0	
2.6253	24.6513	1.10666	0	
2.6260	24.6513	-2.55677	0	
2.6267	19.1429	-1.03034	0	
2.6273	15.2161	-0.725055	0	
2.6280	10.6349	0.496091	0	
2.6287	3.92675	4.15953	0	
2.6293	4.52667	5.68596	0	
2.6300	13.6891	4.7701	0	
2.6307	21.3244	2.6331	0	
2.6313	22.8515	-2.86206	0	
2.6320	12.4347	-6.22021	0	
2.6327	-11.0167	-3.47263	0	
2.6333	-28.4144	0.496091	0	
2.6340	-37.5768	-1.33563	0	
2.6347	-51.0477	-4.99907	0	
2.6353	-56.5015	-4.38849	0	
2.6360	-38.8312	-2.25149	0	
2.6367	-19.9064	-4.38849	0	
2.6373	-15.5979	-7.13607	0	
2.6380	-15.3252	-4.99907	0	
2.6387	-11.3439	-6.22021	0	
2.6393	-6.16281	-10.7995	0	
2.6400	-0.981687	-11.4101	0	
2.6407	-0.654458	-7.13607	0	
2.6413	-2.18153	-2.55677	0	
2.6420	0.872611	0.190804	0	
2.6427	4.52667	0.190804	0	
2.6433	4.52667	2.93838	0	
2.6440	6.05374	6.60182	0	
2.6447	6.98089	1.10666	0	
2.6453	4.52667	-5.91493	0	
2.6460	1.1453	-3.47263	0	
2.6467	-1.58161	-1.03034	0	
2.6473	-1.90884	-3.77792	0	
2.6480	3.32683	-1.9462	0	
2.6487	6.05374	1.41195	0	
2.6493	0.545382	1.10666	0	
2.6500	-2.78145	2.93838	0	
2.6507	3.92675	5.99125	0	
2.6513	14.6162	6.60182	0	
2.6520	27.4327	7.21239	0	
2.6527	34.1409	7.51768	0	
2.6533	24.0513	5.68596	0	
2.6540	7.5808	5.99125	0	
2.6547	1.79976	6.29653	0	
2.6553	-6.76273	5.99125	0	
2.6560	-24.4876	8.12825	0	
2.6567	-30.2687	10.8758	0	
2.6573	-18.6521	12.097	0	
2.6580	-6.16281	5.38067	0	
2.6587	5.45382	-15.3788	0	
2.6593	20.07	-30.9484	0	
2.6600	24.0513	-23.6215	0	
2.6607	12.162	-12.3259	0	
2.6613	-2.78145	-10.7995	0	
2.6620	-11.6712	-6.22021	0	
2.6627	-16.5251	-1.64091	0	
2.6633	-21.1063	-5.30435	0	
2.6640	-22.3606	-6.5255	0	
2.6647	-15.5979	-3.47263	0	
2.6653	-6.49004	-5.30435	0	
2.6660	-2.78145	-6.5255	0	
2.6667	-3.7086	-4.08321	0	
2.6673	-2.18153	-6.83078	0	
2.6680	0.872611	-7.44136	0	
2.6687	-0.0545382	2.02252	0	
2.6693	-0.0545382	9.95997	0	
2.6700	2.67237	11.1811	0	
2.6707	1.79976	9.3494	0	
2.6713	-0.981687	-0.725055	0	
2.6720	4.19944	-10.4942	0	
2.6727	12.7619	-8.35722	0	
2.6733	16.416	-5.91493	0	
2.6740	16.1433	-9.57836	0	
2.6747	14.289	-8.6625	0	
2.6753	9.70779	-3.47263	0	
2.6760	2.67237	-1.9462	0	
2.6767	-5.83558	-3.16735	0	
2.6773	-9.54418	-6.83078	0	
2.6780	-1.90884	-9.27308	0	
2.6787	6.05374	-5.91493	0	
2.6793	2.67237	-1.64091	0	
2.6800	-2.78145	0.190804	0	
2.6807	-4.63574	5.68596	0	
2.6813	-7.08996	8.12825	0	
2.6820	-8.2898	4.7701	0	
2.6827	-4.63574	4.15953	0	
2.6833	3.92675	5.38067	0	
2.6840	14.289	4.46481	0	
2.6847	21.3244	4.15953	0	
2.6853	23.7241	0.801377	0	
2.6860	24.0513	-4.99907	0	
2.6867	18.543	-4.08321	0	
2.6873	1.79976	-1.64091	0	
2.6880	-19.9064	-5.30435	0	
2.6887	-32.123	-6.5255	0	
2.6893	-30.8686	-1.9462	0	
2.6900	-22.6333	-0.725055	0	
2.6907	-12.5438	-3.47263	0	
2.6913	-0.381767	-6.83078	0	
2.6920	13.0892	-12.0207	0	
2.6927	24.6513	-13.8524	0	
2.6933	33.4864	-10.4942	0	
2.6940	44.8304	-8.96779	0	
2.6947	54.5927	-8.05193	0	
2.6953	46.6301	-4.99907	0	
2.6960	15.2161	-3.77792	0	
2.6967	-13.4709	-0.725055	0	
2.6973	-18.9793	7.82297	0	
2.6980	-20.5063	13.9287	0	
2.6987	-32.123	14.5393	0	
2.6993	-37.5768	13.0128	0	
2.7000	-33.9227	9.3494	0	
2.7007	-32.123	5.68596	0	
2.7013	-28.4144	4.46481	0	
2.7020	-19.5792	1.71724	0	
2.7027	-14.7253	0.190804	0	
2.7033	-11.9439	3.85424	0	
2.7040	-8.2898	5.68596	0	
2.7047	-5.83558	3.85424	0	
2.7053	-2.78145	4.15953	0	
2.7060	-0.381767	4.7701	0	
2.7067	-2.18153	4.7701	0	
2.7073	-1.90884	4.7701	0	
2.7080	0.872611	3.54896	0	
2.7087	-0.0545382	1.71724	0	
2.7093	-0.381767	1.41195	0	
2.7100	2.67237	2.02252	0	
2.7107	2.39968	3.85424	0	
2.7113	1.1453	5.38067	0	
2.7120	5.45382	3.85424	0	
2.7127	6.32643	2.93838	0	
2.7133	0.272691	3.54896	0	
2.7140	-4.03582	2.6331	0	
2.7147	-3.7086	2.93838	0	
2.7153	-1.90884	5.68596	0	
2.7160	0.545382	5.68596	0	
2.7167	2.67237	4.7701	0	
2.7173	2.67237	2.6331	0	
2.7180	2.67237	-3.16735	0	
2.7187	5.45382	-5.30435	0	
2.7193	10.9076	-1.03034	0	
2.7200	14.6162	-0.725055	0	
2.7207	14.6162	-2.86206	0	
2.7213	13.0892	-1.03034	0	
2.7220	14.6162	-0.419769	0	
2.7227	19.7974	-2.55677	0	
2.7233	21.9243	-3.16735	0	
2.7240	20.9972	-3.47263	0	
2.7247	20.67	-4.38849	0	
2.7253	14.6162	-3.47263	0	
2.7260	0.545382	-2.55677	0	
2.7267	-7.36265	-0.725055	0	
2.7273	-6.76273	2.6331	0	
2.7280	-10.1441	2.32781	0	
2.7287	-12.5438	0.190804	0	
2.7293	-8.2898	2.02252	0	
2.7300	-5.83558	3.54896	0	
2.7307	-8.2898	-1.33563	0	
2.7313	-11.0167	-5.60964	0	
2.7320	-8.88972	-4.99907	0	
2.7327	3.59952	-4.38849	0	
2.7333	17.3431	-7.13607	0	
2.7340	17.6158	-7.13607	0	
2.7347	10.9076	-1.64091	0	
2.7353	6.65366	2.02252	0	
2.7360	5.12659	1.10666	0	
2.7367	5.45382	2.02252	0	
2.7373	2.9996	4.7701	0	
2.7380	-6.49004	3.85424	0	
2.7387	-11.9439	0.496091	0	
2.7393	-11.0167	1.41195	0	
2.7400	-18.3794	5.99125	0	
2.7407	-28.7416	10.5705	0	
2.7413	-26.6146	8.43354	0	
2.7420	-17.4522	-2.55677	0	
2.7427	-11.9439	-12.0207	0	
2.7433	-7.68988	-12.6312	0	
2.7440	-3.10868	-8.96779	0	
2.7447	-1.58161	-6.5255	0	
2.7453	-1.25438	-4.99907	0	
2.7460	0.272691	-3.47263	0	
2.7467	1.79976	-2.55677	0	
2.7473	0.872611	-2.86206	0	
2.7480	-1.90884	-1.33563	0	
2.7487	-2.78145	2.6331	0	
2.7493	-2.18153	2.93838	0	
2.7500	-4.30851	1.41195	0	
2.7507	-8.01711	3.24367	0	
2.7513	-12.2711	4.7701	0	
2.7520	-18.0521	2.02252	0	
2.7527	-20.1791	-3.16735	0	
2.7533	-16.2524	-8.96779	0	
2.7540	-11.6712	-8.6625	0	
2.7547	-5.83558	1.10666	0	
2.7553	11.5621	4.15953	0	
2.7560	35.3407	-4.38849	0	
2.7567	52.1385	-6.83078	0	
2.7573	58.2468	-1.03034	0	
2.7580	52.1385	1.10666	0	
2.7587	38.3949	2.02252	0	
2.7593	23.7241	2.6331	0	
2.7600	-0.981687	-0.419769	0	
2.7607	-32.123	-0.114482	0	
2.7613	-37.5768	4.7701	0	
2.7620	-19.9064	4.46481	0	
2.7627	-15.3252	1.71724	0	
2.7633	-25.0876	4.15953	0	
2.7640	-26.8873	8.12825	0	
2.7647	-25.6875	8.12825	0	
2.7653	-27.5418	2.93838	0	
2.7660	-23.5605	-8.35722	0	
2.7667	-14.3981	-17.2105	0	
2.7673	-10.1441	-14.1577	0	
2.7680	-8.2898	-3.77792	0	
2.7687	-5.56289	2.02252	0	
2.7693	-6.49004	2.6331	0	
2.7700	-9.54418	0.190804	0	
2.7707	-10.744	-4.69378	0	
2.7713	-11.0167	-8.96779	0	
2.7720	-11.0167	-8.6625	0	
2.7727	-4.96297	-6.22021	0	
2.7733	7.25358	-4.08321	0	
2.7740	17.3431	-4.08321	0	
2.7747	17.9431	-6.22021	0	
2.7753	14.289	-7.13607	0	
2.7760	13.6891	-6.83078	0	
2.7767	13.9618	-8.05193	0	
2.7773	11.8348	-8.05193	0	
2.7780	7.5808	-2.86206	0	
2.7787	1.79976	2.02252	0	
2.7793	-6.49004	4.15953	0	
2.7800	-14.0708	10.2653	0	
2.7807	-20.1791	16.6763	0	
2.7813	-23.2333	15.1498	0	
2.7820	-19.9064	12.4023	0	
2.7827	-12.2711	12.097	0	
2.7833	-5.23566	9.3494	0	
2.7840	0.272691	6.60182	0	
2.7847	2.07245	8.12825	0	
2.7853	2.67237	9.3494	0	
2.7860	6.05374	6.60182	0	
2.7867	6.65366	2.93838	0	
2.7873	4.52667	-1.03034	0	
2.7880	4.79936	-2.25149	0	
2.7887	5.45382	2.02252	0	
2.7893	3.59952	5.68596	0	
2.7900	2.39968	3.85424	0	
2.7907	-0.0545382	1.10666	0	
2.7913	-2.78145	1.10666	0	
2.7920	-0.0545382	1.41195	0	
2.7927	3.92675	2.93838	0	
2.7933	0.872611	5.68596	0	
2.7940	-6.16281	5.07539	0	
2.7947	-11.9439	2.02252	0	
2.7953	-13.7982	1.10666	0	
2.7960	-11.0167	1.71724	0	
2.7967	-7.36265	1.10666	0	
2.7973	-3.4359	1.10666	0	
2.7980	7.8535	2.93838	0	
2.7987	26.1783	4.15953	0	
2.7993	42.9761	3.24367	0	
2.8000	54.8654	2.32781	0	
2.8007	57.9195	4.46481	0	
2.8013	46.9574	6.29653	0	
2.8020	25.9056	4.15953	0	
2.8027	9.70779	0.801377	0	
2.8033	0.872611	-1.9462	0	
2.8040	-15.5979	-4.38849	0	
2.8047	-34.5227	-2.55677	0	
2.8053	-36.7042	3.54896	0	
2.8060	-29.3415	8.73883	0	
2.8067	-30.5959	11.7917	0	
2.8073	-32.123	10.2653	0	
2.8080	-26.6146	-0.725055	0	
2.8087	-21.7062	-11.7154	0	
2.8093	-15.9251	-10.7995	0	
2.8100	-6.49004	-4.99907	0	
2.8107	-4.63574	-2.55677	0	
2.8113	-8.01711	-0.725055	0	
2.8120	-3.7086	0.190804	0	
2.8127	1.79976	-1.33563	0	
2.8133	1.79976	-0.725055	0	
2.8140	2.39968	1.41195	0	
2.8147	4.79936	0.496091	0	
2.8153	7.5808	-3.16735	0	
2.8160	11.5621	-5.60964	0	
2.8167	11.5621	-5.30435	0	
2.8173	7.25358	-4.08321	0	
2.8180	7.25358	-3.16735	0	
2.8187	6.98089	-3.47263	0	
2.8193	0.545382	-5.60964	0	
2.8200	-4.96297	-8.96779	0	
2.8207	-8.61703	-9.57836	0	
2.8213	-15.9251	-8.96779	0	
2.8220	-18.3794	-9.27308	0	
2.8227	-11.0167	-6.22021	0	
2.8233	-5.56289	-1.64091	0	
2.8240	-3.7086	-1.9462	0	
2.8247	-4.03582	-2.55677	0	
2.8253	-6.49004	3.24367	0	
2.8260	-7.36265	7.51768	0	
2.8267	-4.30851	7.51768	0	
2.8273	-3.7086	7.82297	0	
2.8280	-0.0545382	5.38067	0	
2.8287	6.32643	-1.64091	0	
2.8293	6.65366	-7.13607	0	
2.8300	3.59952	-8.96779	0	
2.8307	5.45382	-6.5255	0	
2.8313	5.45382	-1.64091	0	
2.8320	2.67237	0.190804	0	
2.8327	4.19944	1.41195	0	
2.8333	10.3077	5.38067	0	
2.8340	16.1433	6.60182	0	
2.8347	16.416	2.93838	0	
2.8353	9.38056	-2.25149	0	
2.8360	6.05374	-7.13607	0	
2.8367	12.7619	-8.35722	0	
2.8373	16.7432	-3.47263	0	
2.8380	11.8348	2.93838	0	
2.8387	6.98089	5.38067	0	
2.8393	5.72651	5.38067	0	
2.8400	2.67237	2.32781	0	
2.8407	-3.7086	-0.725055	0	
2.8413	-11.6712	1.10666	0	
2.8420	-14.998	3.54896	0	
2.8427	-7.68988	2.02252	0	
2.8433	4.79936	2.32781	0	
2.8440	10.3077	4.7701	0	
2.8447	10.9076	2.6331	0	
2.8453	13.9618	-3.77792	0	
2.8460	10.9076	-12.6312	0	
2.8467	-1.25438	-21.4845	0	
2.8473	-8.2898	-21.7898	0	
2.8480	-5.56289	-14.1577	0	
2.8487	-3.4359	-10.4942	0	
2.8493	-1.90884	-9.88365	0	
2.8500	1.79976	-6.22021	0	
2.8507	6.05374	-4.38849	0	
2.8513	10.9076	-4.08321	0	
2.8520	18.2703	0.190804	0	
2.8527	20.3973	3.54896	0	
2.8533	10.9076	4.7701	0	
2.8540	0.872611	6.60182	0	
2.8547	4.79936	6.60182	0	
2.8553	12.7619	3.24367	0	
2.8560	8.18072	3.85424	0	
2.8567	1.79976	5.68596	0	
2.8573	12.162	2.93838	0	
2.8580	26.5055	-1.64091	0	
2.8587	24.3786	-2.55677	0	
2.8593	7.25358	0.190804	0	
2.8600	-6.76273	-2.55677	0	
2.8607	-13.4709	-9.27308	0	
2.8613	-25.0876	-9.57836	0	
2.8620	-39.1039	-4.08321	0	
2.8627	-39.7038	-1.64091	0	
2.8633	-29.0688	-1.03034	0	
2.8640	-19.5792	-1.33563	0	
2.8647	-13.4709	-6.83078	0	
2.8653	-10.1441	-9.88365	0	
2.8660	-12.2711	-3.47263	0	
2.8667	-16.2524	0.496091	0	
2.8673	-16.5251	-0.725055	0	
2.8680	-14.7253	0.190804	0	
2.8687	-11.0167	0.190804	0	
2.8693	-8.2898	-1.64091	0	
2.8700	-10.1441	-0.419769	0	
2.8707	-13.7982	1.71724	0	
2.8713	-14.7253	2.6331	0	
2.8720	-10.1441	3.85424	0	
2.8727	-3.4359	2.6331	0	
2.8733	-0.0545382	-1.03034	0	
2.8740	-0.981687	0.190804	0	
2.8747	-0.0545382	3.54896	0	
2.8753	3.59952	3.54896	0	
2.8760	4.52667	2.32781	0	
2.8767	2.67237	1.41195	0	
2.8773	1.47253	1.10666	0	
2.8780	0.872611	6.90711	0	
2.8787	1.79976	16.371	0	
2.8793	4.79936	17.2868	0	
2.8800	3.92675	10.2653	0	
2.8807	-1.90884	1.41195	0	
2.8813	-8.01711	-8.96779	0	
2.8820	-9.21695	-18.1264	0	
2.8827	-6.16281	-19.3475	0	
2.8833	-3.7086	-14.1577	0	
2.8840	-4.03582	-7.44136	0	
2.8847	-2.78145	-2.55677	0	
2.8853	-2.78145	-0.725055	0	
2.8860	-6.16281	1.10666	0	
2.8867	-0.381767	5.68596	0	
2.8873	14.8889	8.73883	0	
2.8880	26.7782	6.60182	0	
2.8887	37.4677	2.93838	0	
2.8893	48.1572	1.10666	0	
2.8900	44.1759	-0.114482	0	
2.8907	29.5597	1.71724	0	
2.8913	20.9972	7.51768	0	
2.8920	13.9618	9.04411	0	
2.8927	5.72651	1.41195	0	
2.8933	3.92675	-2.55677	0	
2.8940	-1.90884	1.10666	0	
2.8947	-14.998	0.496091	0	
2.8953	-17.4522	-1.9462	0	
2.8960	-10.744	1.71724	0	
2.8967	-11.3439	4.7701	0	
2.8973	-12.871	0.496091	0	
2.8980	-9.21695	-2.25149	0	
2.8987	-9.21695	-1.03034	0	
2.8993	-11.0167	-1.9462	0	
2.9000	-8.61703	-2.55677	0	
2.9007	-5.56289	0.190804	0	
2.9013	0.872611	0.496091	0	
2.9020	12.7619	0.190804	0	
2.9027	24.3786	4.7701	0	
2.9033	35.0135	7.21239	0	
2.9040	42.0489	2.02252	0	
2.9047	37.4677	0.496091	0	
2.9053	28.0326	4.15953	0	
2.9060	20.07	5.07539	0	
2.9067	6.32643	7.51768	0	
2.9073	-8.61703	9.3494	0	
2.9080	-20.1791	1.10666	0	
2.9087	-36.0497	-8.35722	0	
2.9093	-43.0851	-7.13607	0	
2.9100	-30.8686	-3.77792	0	
2.9107	-17.7794	-3.16735	0	
2.9113	-17.125	-1.03034	0	
2.9120	-20.1791	0.496091	0	
2.9127	-23.8877	0.190804	0	
2.9133	-25.6875	1.10666	0	
2.9140	-22.6333	3.85424	0	
2.9147	-19.5792	4.46481	0	
2.9153	-15.9251	2.32781	0	
2.9160	-8.01711	0.190804	0	
2.9167	-5.56289	1.10666	0	
2.9173	-5.56289	3.24367	0	
2.9180	5.45382	2.02252	0	
2.9187	19.7974	0.801377	0	
2.9193	22.8515	2.02252	0	
2.9200	18.2703	2.93838	0	
2.9207	10.9076	0.801377	0	
2.9213	-3.7086	-2.55677	0	
2.9220	-25.0876	-2.86206	0	
2.9227	-43.0851	-1.03034	0	
2.9233	-45.5394	-1.03034	0	
2.9240	-32.9956	-0.419769	0	
2.9247	-20.5063	2.93838	0	
2.9253	-11.3439	6.90711	0	
2.9260	-1.58161	12.4023	0	
2.9267	2.9996	17.2868	0	
2.9273	-0.381767	12.7075	0	
2.9280	-1.58161	3.85424	0	
2.9287	1.79976	2.32781	0	
2.9293	2.9996	3.85424	0	
2.9300	2.67237	1.10666	0	
2.9307	3.32683	-3.77792	0	
2.9313	2.9996	-8.6625	0	
2.9320	3.32683	-9.57836	0	
2.9327	5.45382	-4.99907	0	
2.9333	5.72651	-2.55677	0	
2.9340	2.07245	-5.30435	0	
2.9347	0.872611	-4.69378	0	
2.9353	1.1453	-2.55677	0	
2.9360	-0.0545382	-5.91493	0	
2.9367	2.67237	-8.35722	0	
2.9373	6.32643	-4.38849	0	
2.9380	5.12659	-1.03034	0	
2.9387	5.72651	-1.33563	0	
2.9393	9.10787	-0.725055	0	
2.9400	6.65366	0.190804	0	
2.9407	6.98089	-0.725055	0	
2.9413	14.8889	-2.25149	0	
2.9420	18.2703	-2.55677	0	
2.9427	15.4888	-3.77792	0	
2.9433	15.4888	-4.99907	0	
2.9440	14.8889	-4.38849	0	
2.9447	11.2349	-3.16735	0	
2.9453	10.3077	-1.33563	0	
2.9460	12.7619	-1.03034	0	
2.9467	18.8702	-3.47263	0	
2.9473	28.3053	-3.16735	0	
2.9480	33.8137	2.6331	0	
2.9487	26.7782	7.51768	0	
2.9493	10.035	9.04411	0	
2.9500	-4.63574	8.43354	0	
2.9507	-8.88972	3.24367	0	
2.9513	-11.0167	-7.13607	0	
2.9520	-18.0521	-13.8524	0	
2.9527	-23.5605	-16.2947	0	
2.9533	-23.5605	-19.6528	0	
2.9540	-18.6521	-18.1264	0	
2.9547	-9.54418	-7.44136	0	
2.9553	-1.90884	1.10666	0	
2.9560	1.79976	1.41195	0	
2.9567	7.25358	1.10666	0	
2.9573	10.9076	2.93838	0	
