0.0000	2.57719	-2.55806	1
0.0007	4.38671	-1.62786	0	
0.0013	4.38671	-2.55806	0	
0.0020	3.78354	-3.43013	0	
0.0027	4.71571	-3.13944	0	
0.0033	6.52523	-4.36034	0	
0.0040	8.06058	-4.65103	0	
0.0047	8.38958	-1.62786	0	
0.0053	6.85423	-0.697654	0	
0.0060	7.45741	-1.62786	0	
0.0067	15.6825	-0.697654	0	
0.0073	29.1168	-0.988343	0	
0.0080	38.274	-3.13944	0	
0.0087	45.0186	-3.13944	0	
0.0093	54.1759	-2.55806	0	
0.0100	57.1917	-2.55806	0	
0.0107	45.6218	-0.697654	0	
0.0113	26.0461	-0.697654	0	
0.0120	7.45741	-2.20924	0	
0.0127	-12.3925	-2.20924	0	
0.0133	-33.4487	-1.62786	0	
0.0140	-48.0893	-1.33717	0	
0.0147	-49.8988	-0.116276	0	
0.0153	-40.4674	-0.406965	0	
0.0160	-30.378	-0.406965	0	
0.0167	-25.8268	1.10462	0	
0.0173	-21.2207	1.10462	0	
0.0180	-15.7373	-0.988343	0	
0.0187	-16.6695	-2.20924	0	
0.0193	-15.7373	-3.77896	0	
0.0200	-2.63203	-2.55806	0	
0.0207	13.2698	2.96503	0	
0.0213	22.0981	5.69751	0	
0.0220	21.4949	3.89523	0	
0.0227	7.78641	2.32551	0	
0.0233	-5.97689	2.03482	0	
0.0240	-3.50937	1.45345	0	
0.0247	-2.63203	1.45345	0	
0.0253	-15.4083	2.03482	0	
0.0260	-16.3405	1.10462	0	
0.0267	-2.02885	1.10462	0	
0.0273	1.37085	2.32551	0	
0.0280	-0.767674	1.45345	0	
0.0287	4.71571	-0.988343	0	
0.0293	2.9062	0.232551	0	
0.0300	-10.8571	2.03482	0	
0.0307	-16.9437	0.52324	0	
0.0313	-6.90907	0.232551	0	
0.0320	6.52523	2.32551	0	
0.0327	11.4054	2.67434	0	
0.0333	17.821	1.45345	0	
0.0340	31.2553	1.74413	0	
0.0347	33.7228	1.10462	0	
0.0353	19.0274	0.52324	0	
0.0360	9.92493	2.32551	0	
0.0367	16.6147	4.47661	0	
0.0373	28.1846	5.40682	0	
0.0380	34.9292	5.98819	0	
0.0387	25.7719	6.62771	0	
0.0393	3.50937	5.11613	0	
0.0400	-11.1313	3.25572	0	
0.0407	-13.9278	3.89523	0	
0.0413	-17.8758	4.7673	0	
0.0420	-20.0144	2.96503	0	
0.0427	-14.531	2.03482	0	
0.0433	-10.8571	3.25572	0	
0.0440	-11.7893	2.03482	0	
0.0447	-9.04759	-0.406965	0	
0.0453	-4.77055	1.45345	0	
0.0460	-5.37372	3.89523	0	
0.0467	-6.90907	2.67434	0	
0.0473	-5.37372	1.74413	0	
0.0480	-3.50937	2.32551	0	
0.0487	-2.30302	1.45345	0	
0.0493	1.04184	0.52324	0	
0.0500	4.38671	2.03482	0	
0.0507	2.57719	2.96503	0	
0.0513	-2.30302	1.74413	0	
0.0520	-0.493505	1.74413	0	
0.0527	7.45741	1.74413	0	
0.0533	12.0086	0.232551	0	
0.0540	11.1313	2.03482	0	
0.0547	12.0086	5.98819	0	
0.0553	12.6666	2.67434	0	
0.0560	6.52523	-2.20924	0	
0.0567	-3.2352	1.45345	0	
0.0573	-10.8571	4.18592	0	
0.0580	-16.0663	-0.697654	0	
0.0587	-18.808	-3.43013	0	
0.0593	-19.6854	-1.33717	0	
0.0600	-20.2885	-1.91855	0	
0.0607	-19.4112	-3.43013	0	
0.0613	-16.9437	-0.988343	0	
0.0620	-15.4083	1.10462	0	
0.0627	-12.3925	-0.116276	0	
0.0633	-1.09668	-1.33717	0	
0.0640	16.6147	-0.697654	0	
0.0647	27.5814	-0.406965	0	
0.0653	20.2885	-2.55806	0	
0.0660	9.26692	-6.22075	0	
0.0667	12.3376	-7.44164	0	
0.0673	22.0981	-7.44164	0	
0.0680	25.1687	-6.80212	0	
0.0687	24.2366	-4.36034	0	
0.0693	25.1687	-1.91855	0	
0.0700	29.4458	-1.33717	0	
0.0707	31.5843	-0.697654	0	
0.0713	16.9437	-0.406965	0	
0.0720	-11.7893	-0.697654	0	
0.0727	-26.4299	-2.55806	0	
0.0733	-20.0144	-4.65103	0	
0.0740	-14.202	-4.06965	0	
0.0747	-22.1529	-0.697654	0	
0.0753	-30.707	-0.697654	0	
0.0760	-23.6882	-3.77896	0	
0.0767	-7.18324	-4.06965	0	
0.0773	2.24819	-1.62786	0	
0.0780	4.71571	-0.406965	0	
0.0787	12.0086	-1.91855	0	
0.0793	23.9624	-5.58123	0	
0.0800	31.2553	-5.58123	0	
0.0807	30.3231	-2.55806	0	
0.0813	13.873	-3.43013	0	
0.0820	-18.15	-6.22075	0	
0.0827	-48.3635	-4.65103	0	
0.0833	-63.6621	-2.55806	0	
0.0840	-70.6809	-4.06965	0	
0.0847	-77.3706	-3.13944	0	
0.0853	-73.6967	-2.55806	0	
0.0860	-55.108	-6.22075	0	
0.0867	-28.8426	-6.51144	0	
0.0873	-0.767674	-3.77896	0	
0.0880	17.821	-4.99985	0	
0.0887	13.873	-7.09281	0	
0.0893	-1.37085	-4.65103	0	
0.0900	-6.90907	-3.77896	0	
0.0907	-7.18324	-4.99985	0	
0.0913	-14.531	-2.55806	0	
0.0920	-20.0144	-0.697654	0	
0.0927	-17.2727	-2.55806	0	
0.0933	-14.531	-0.697654	0	
0.0940	-9.92493	3.89523	0	
0.0947	6.52523	1.45345	0	
0.0953	24.8397	-3.13944	0	
0.0960	31.2553	-2.84875	0	
0.0967	34.9292	-2.84875	0	
0.0973	43.4833	-2.84875	0	
0.0980	46.8281	-0.116276	0	
0.0987	40.7416	0.232551	0	
0.0993	29.4458	-3.13944	0	
0.1000	11.4054	-3.43013	0	
0.1007	-11.7893	-0.697654	0	
0.1013	-24.5656	-0.406965	0	
0.1020	-17.5468	-1.62786	0	
0.1027	-6.25106	-2.20924	0	
0.1033	-8.71859	-2.20924	0	
0.1040	-19.6854	-2.55806	0	
0.1047	-23.6882	-2.20924	0	
0.1053	-21.2207	0.232551	0	
0.1060	-19.0822	2.96503	0	
0.1067	-13.5988	2.03482	0	
0.1073	-4.77055	0.232551	0	
0.1080	0.767674	0.813929	0	
0.1087	5.31889	1.74413	0	
0.1093	9.92493	0.232551	0	
0.1100	6.52523	-0.697654	0	
0.1107	-1.69985	1.10462	0	
0.1113	-2.63203	2.32551	0	
0.1120	3.78354	0.813929	0	
0.1127	9.26692	-0.988343	0	
0.1133	10.1991	0.232551	0	
0.1140	10.5281	0.232551	0	
0.1147	11.4054	-2.55806	0	
0.1153	12.0086	-2.55806	0	
0.1160	11.1313	-0.116276	0	
0.1167	11.7344	0.813929	0	
0.1173	15.0793	0.232551	0	
0.1180	18.4242	0.232551	0	
0.1187	17.821	-0.697654	0	
0.1193	14.8051	-2.55806	0	
0.1200	11.4054	-0.988343	0	
0.1207	9.59593	2.03482	0	
0.1213	9.26692	2.67434	0	
0.1220	8.66375	2.03482	0	
0.1227	5.64789	1.45345	0	
0.1233	1.97402	0.232551	0	
0.1240	2.9062	0.232551	0	
0.1247	9.26692	1.10462	0	
0.1253	11.1313	-0.406965	0	
0.1260	4.11254	-1.33717	0	
0.1267	-1.37085	0.813929	0	
0.1273	-4.44154	0.232551	0	
0.1280	-9.04759	-1.33717	0	
0.1287	-5.97689	1.10462	0	
0.1293	1.04184	2.03482	0	
0.1300	-5.37372	-0.697654	0	
0.1307	-15.4083	0.232551	0	
0.1313	-14.8051	1.45345	0	
0.1320	-12.0635	-0.406965	0	
0.1327	-13.5988	-0.697654	0	
0.1333	-12.3925	-0.406965	0	
0.1340	-7.78641	-0.697654	0	
0.1347	-2.9062	1.74413	0	
0.1353	1.64502	2.03482	0	
0.1360	8.38958	-0.697654	0	
0.1367	20.2885	1.10462	0	
0.1373	32.1875	3.89523	0	
0.1380	39.2062	2.67434	0	
0.1387	40.7416	2.03482	0	
0.1393	27.3073	0.813929	0	
0.1400	5.31889	-3.77896	0	
0.1407	7.45741	-4.65103	0	
0.1413	32.7907	-2.20924	0	
0.1420	45.2928	-1.91855	0	
0.1427	36.7387	-1.91855	0	
0.1433	18.7532	-0.697654	0	
0.1440	-6.90907	-0.697654	0	
0.1447	-35.2582	-0.697654	0	
0.1453	-56.3144	-1.33717	0	
0.1460	-69.7487	-2.55806	0	
0.1467	-74.3547	-1.33717	0	
0.1473	-67.6102	-0.697654	0	
0.1480	-56.0402	-3.43013	0	
0.1487	-47.4861	-1.91855	0	
0.1493	-40.4674	2.32551	0	
0.1500	-30.9811	-0.406965	0	
0.1507	-23.0851	-5.58123	0	
0.1513	-20.9465	-5.58123	0	
0.1520	-20.0144	-3.77896	0	
0.1527	-21.2207	-1.62786	0	
0.1533	-28.2394	1.10462	0	
0.1540	-31.9133	1.10462	0	
0.1547	-24.2914	-0.406965	0	
0.1553	-12.3925	-0.406965	0	
0.1560	-5.64789	0.52324	0	
0.1567	-4.11254	2.03482	0	
0.1573	-2.63203	2.32551	0	
0.1580	3.78354	0.232551	0	
0.1587	14.8051	-1.62786	0	
0.1593	24.8397	-1.91855	0	
0.1600	30.9811	-2.55806	0	
0.1607	33.1197	-1.62786	0	
0.1613	34.9292	0.232551	0	
0.1620	38.274	-0.697654	0	
0.1627	34.9292	-2.20924	0	
0.1633	17.821	-1.62786	0	
0.1640	-2.9062	-0.988343	0	
0.1647	-8.71859	-0.988343	0	
0.1653	3.18036	-1.33717	0	
0.1660	16.6147	-2.20924	0	
0.1667	22.0981	-1.62786	0	
0.1673	24.5656	-0.697654	0	
0.1680	22.4271	0.232551	0	
0.1687	14.1471	1.45345	0	
0.1693	10.1991	2.03482	0	
0.1700	11.7344	1.10462	0	
0.1707	3.78354	1.74413	0	
0.1713	-9.92493	2.67434	0	
0.1720	-14.8051	2.03482	0	
0.1727	-14.531	2.03482	0	
0.1733	-16.3405	2.96503	0	
0.1740	-10.8571	3.25572	0	
0.1747	3.18036	2.96503	0	
0.1753	12.6666	1.10462	0	
0.1760	18.15	-0.697654	0	
0.1767	26.7041	0.52324	0	
0.1773	32.4617	2.96503	0	
0.1780	33.3938	3.54641	0	
0.1787	33.7228	2.03482	0	
0.1793	23.9624	0.52324	0	
0.1800	2.24819	0.232551	0	
0.1807	-9.92493	-1.62786	0	
0.1813	-8.11541	-3.13944	0	
0.1820	-10.8571	-2.55806	0	
0.1827	-18.808	-1.91855	0	
0.1833	-22.4271	-2.84875	0	
0.1840	-24.5656	-0.697654	0	
0.1847	-24.8946	1.74413	0	
0.1853	-19.0822	-0.988343	0	
0.1860	-9.92493	-1.91855	0	
0.1867	1.04184	1.10462	0	
0.1873	11.1313	1.45345	0	
0.1880	12.9408	-1.62786	0	
0.1887	8.06058	-2.55806	0	
0.1893	7.1284	0.232551	0	
0.1900	9.92493	2.03482	0	
0.1907	10.5281	3.25572	0	
0.1913	10.1991	3.89523	0	
0.1920	8.38958	3.54641	0	
0.1927	4.11254	2.96503	0	
0.1933	1.04184	2.96503	0	
0.1940	4.71571	3.25572	0	
0.1947	12.0086	2.03482	0	
0.1953	15.6825	1.45345	0	
0.1960	12.0086	2.32551	0	
0.1967	4.71571	2.03482	0	
0.1973	-4.44154	2.03482	0	
0.1980	-8.71859	1.45345	0	
0.1987	-4.44154	-0.116276	0	
0.1993	0.438671	0.232551	0	
0.2000	1.37085	2.03482	0	
0.2007	4.11254	1.10462	0	
0.2013	8.66375	-0.116276	0	
0.2020	8.66375	1.10462	0	
0.2027	8.06058	2.03482	0	
0.2033	8.06058	1.45345	0	
0.2040	1.64502	0.813929	0	
0.2047	-8.38958	0.232551	0	
0.2053	-11.7893	0.813929	0	
0.2060	-11.7893	1.10462	0	
0.2067	-12.9956	1.10462	0	
0.2073	-13.2698	-0.116276	0	
0.2080	-9.92493	0.813929	0	
0.2087	-5.97689	2.03482	0	
0.2093	-2.63203	1.45345	0	
0.2100	0.109668	-0.406965	0	
0.2107	6.52523	-0.988343	0	
0.2113	13.873	-1.33717	0	
0.2120	13.873	-1.62786	0	
0.2127	9.26692	-3.13944	0	
0.2133	9.59593	-3.43013	0	
0.2140	8.38958	-0.697654	0	
0.2147	3.78354	2.03482	0	
0.2153	8.38958	1.10462	0	
0.2160	21.1659	0.52324	0	
0.2167	28.1846	0.813929	0	
0.2173	23.9624	-0.697654	0	
0.2180	12.0086	-1.62786	0	
0.2187	1.97402	-1.33717	0	
0.2193	-5.97689	-2.20924	0	
0.2200	-17.8758	-2.55806	0	
0.2207	-24.2914	-0.988343	0	
0.2213	-13.2698	-0.988343	0	
0.2220	-1.09668	-1.62786	0	
0.2227	7.78641	-0.697654	0	
0.2233	31.5843	-0.697654	0	
0.2240	54.45	-1.62786	0	
0.2247	48.3635	-2.55806	0	
0.2253	31.8585	-1.91855	0	
0.2260	22.4271	-0.697654	0	
0.2267	0.109668	-1.62786	0	
0.2273	-29.1716	-4.65103	0	
0.2280	-37.3967	-4.65103	0	
0.2287	-37.9999	-4.06965	0	
0.2293	-51.16	-5.29054	0	
0.2300	-55.7112	-3.13944	0	
0.2307	-41.6737	1.10462	0	
0.2313	-32.8455	-0.116276	0	
0.2320	-33.1197	-0.988343	0	
0.2327	-30.1038	1.45345	0	
0.2333	-26.7041	2.03482	0	
0.2340	-27.6363	1.10462	0	
0.2347	-26.4299	1.74413	0	
0.2353	-21.8239	2.03482	0	
0.2360	-15.4083	2.03482	0	
0.2367	-8.11541	2.67434	0	
0.2373	-2.63203	2.32551	0	
0.2380	2.9062	1.74413	0	
0.2387	9.26692	2.03482	0	
0.2393	10.8023	2.03482	0	
0.2400	8.66375	2.03482	0	
0.2407	11.1313	2.32551	0	
0.2413	13.873	2.96503	0	
0.2420	14.4761	3.89523	0	
0.2427	15.0793	2.32551	0	
0.2433	11.7344	0.232551	0	
0.2440	3.18036	2.03482	0	
0.2447	-4.11254	6.62771	0	
0.2453	-15.7373	7.20909	0	
0.2460	-30.378	5.69751	0	
0.2467	-30.378	4.7673	0	
0.2473	-18.808	3.89523	0	
0.2480	-17.2727	3.89523	0	
0.2487	-20.0144	3.54641	0	
0.2493	-13.9278	1.74413	0	
0.2500	-6.58006	2.32551	0	
0.2507	-5.37372	4.47661	0	
0.2513	-6.90907	3.25572	0	
0.2520	-9.92493	2.96503	0	
0.2527	-12.6666	3.54641	0	
0.2533	-11.1313	2.67434	0	
0.2540	-7.18324	1.74413	0	
0.2547	-2.02885	2.03482	0	
0.2553	1.37085	0.52324	0	
0.2560	0.438671	1.10462	0	
0.2567	0.438671	3.89523	0	
0.2573	0.767674	3.89523	0	
0.2580	-5.04472	2.32551	0	
0.2587	-9.92493	4.18592	0	
0.2593	-6.25106	5.11613	0	
0.2600	-1.09668	3.25572	0	
0.2607	0.109668	4.7673	0	
0.2613	2.9062	7.20909	0	
0.2620	6.52523	4.7673	0	
0.2627	7.78641	2.03482	0	
0.2633	8.38958	2.96503	0	
0.2640	11.7344	4.18592	0	
0.2647	16.2857	3.54641	0	
0.2653	18.7532	2.32551	0	
0.2660	21.1659	2.03482	0	
0.2667	26.7041	1.10462	0	
0.2673	30.9811	0.52324	0	
0.2680	28.8426	1.74413	0	
0.2687	22.7012	2.03482	0	
0.2693	15.0793	0.232551	0	
0.2700	7.1284	-0.116276	0	
0.2707	1.97402	3.25572	0	
0.2713	1.04184	3.89523	0	
0.2720	0.438671	0.52324	0	
0.2727	-2.63203	-1.33717	0	
0.2733	-9.32176	-2.55806	0	
0.2740	-14.202	-3.43013	0	
0.2747	-9.65076	-1.33717	0	
0.2753	-0.767674	0.232551	0	
0.2760	-1.69985	-1.62786	0	
0.2767	-6.25106	-0.697654	0	
0.2773	-4.44154	1.45345	0	
0.2780	-2.30302	-0.697654	0	
0.2787	-4.11254	-2.55806	0	
0.2793	-3.50937	-0.988343	0	
0.2800	-4.77055	0.232551	0	
0.2807	-6.90907	0.232551	0	
0.2813	2.24819	0.52324	0	
0.2820	19.3564	-0.988343	0	
0.2827	31.5843	-1.62786	0	
0.2833	36.4645	-0.697654	0	
0.2840	33.997	-0.697654	0	
0.2847	31.2553	-0.697654	0	
0.2853	40.1384	-0.406965	0	
0.2860	46.8281	-0.988343	0	
0.2867	30.049	-1.33717	0	
0.2873	-0.767674	-0.697654	0	
0.2880	-22.1529	-2.55806	0	
0.2887	-27.3073	-4.36034	0	
0.2893	-22.7561	-2.84875	0	
0.2900	-20.0144	-2.55806	0	
0.2907	-20.6175	-4.06965	0	
0.2913	-13.5988	-3.13944	0	
0.2920	-5.97689	-0.988343	0	
0.2927	-9.04759	-0.988343	0	
0.2933	-10.8571	-1.33717	0	
0.2940	-11.7893	-0.406965	0	
0.2947	-25.8268	-1.62786	0	
0.2953	-38.603	-3.13944	0	
0.2960	-33.1197	-2.55806	0	
0.2967	-23.9624	-1.62786	0	
0.2973	-20.9465	-2.84875	0	
0.2980	-14.202	-4.36034	0	
0.2987	-9.04759	-2.55806	0	
0.2993	-9.65076	-0.697654	0	
0.3000	-7.78641	-1.62786	0	
0.3007	-5.64789	-1.62786	0	
0.3013	-7.78641	0.232551	0	
0.3020	-8.38958	-0.988343	0	
0.3027	-8.11541	-3.43013	0	
0.3033	-8.11541	-1.91855	0	
0.3040	-1.69985	0.52324	0	
0.3047	4.38671	-0.697654	0	
0.3053	6.25106	-2.55806	0	
0.3060	15.6825	-3.13944	0	
0.3067	31.2553	-5.87192	0	
0.3073	35.5324	-7.73233	0	
0.3080	27.5814	-5.29054	0	
0.3087	15.6825	-4.36034	0	
0.3093	1.04184	-5.87192	0	
0.3100	-20.2885	-4.36034	0	
0.3107	-42.6059	-2.55806	0	
0.3113	-46.2798	-4.06965	0	
0.3120	-28.5684	-6.51144	0	
0.3127	-14.8051	-7.09281	0	
0.3133	-13.5988	-6.51144	0	
0.3140	-9.92493	-4.65103	0	
0.3147	-4.44154	-2.20924	0	
0.3153	-4.44154	-0.697654	0	
0.3160	1.64502	-0.697654	0	
0.3167	11.1313	0.232551	0	
0.3173	11.1313	2.03482	0	
0.3180	8.06058	2.32551	0	
0.3187	8.38958	2.03482	0	
0.3193	8.38958	2.96503	0	
0.3200	11.1313	2.67434	0	
0.3207	16.6147	1.45345	0	
0.3213	16.6147	2.67434	0	
0.3220	15.6825	3.89523	0	
0.3227	24.2366	1.45345	0	
0.3233	36.7387	-0.988343	0	
0.3240	38.603	-1.33717	0	
0.3247	33.997	-1.91855	0	
0.3253	32.1875	-3.13944	0	
0.3260	31.5843	-1.91855	0	
0.3267	25.1687	-0.406965	0	
0.3273	14.4761	-0.697654	0	
0.3280	-1.69985	-2.20924	0	
0.3287	-24.5656	-3.43013	0	
0.3293	-42.6059	-3.13944	0	
0.3300	-42.2769	-1.91855	0	
0.3307	-30.1038	-1.62786	0	
0.3313	-14.8051	-1.91855	0	
0.3320	3.50937	-1.62786	0	
0.3327	17.5468	-2.55806	0	
0.3333	13.873	-1.91855	0	
0.3340	-6.25106	0.813929	0	
0.3347	-25.8268	0.52324	0	
0.3353	-32.2423	-2.20924	0	
0.3360	-26.4299	-0.697654	0	
0.3367	-18.808	1.74413	0	
0.3373	-16.3405	-0.697654	0	
0.3380	-14.531	-3.43013	0	
0.3387	-8.38958	-2.20924	0	
0.3393	-4.44154	-2.20924	0	
0.3400	-5.37372	-3.43013	0	
0.3407	-6.58006	-3.43013	0	
0.3413	-8.11541	-2.55806	0	
0.3420	-12.6666	-2.55806	0	
0.3427	-11.7893	-2.84875	0	
0.3433	-3.2352	-3.43013	0	
0.3440	3.78354	-1.91855	0	
0.3447	7.45741	0.813929	0	
0.3453	10.5281	2.03482	0	
0.3460	8.99276	0.813929	0	
0.3467	9.26692	0.232551	0	
0.3473	20.2885	2.03482	0	
0.3480	28.1846	2.32551	0	
0.3487	25.7719	0.52324	0	
0.3493	27.5814	-1.62786	0	
0.3500	35.2033	-0.116276	0	
0.3507	35.5324	2.67434	0	
0.3513	28.8426	3.25572	0	
0.3520	18.7532	2.67434	0	
0.3527	4.71571	1.10462	0	
0.3533	-5.64789	-0.697654	0	
0.3540	-8.71859	-1.62786	0	
0.3547	-13.2698	0.232551	0	
0.3553	-18.15	1.45345	0	
0.3560	-15.4083	0.232551	0	
0.3567	-11.4603	-1.62786	0	
0.3573	-12.6666	-0.988343	0	
0.3580	-12.3925	0.52324	0	
0.3587	-8.71859	1.45345	0	
0.3593	-7.18324	2.03482	0	
0.3600	-5.37372	2.67434	0	
0.3607	0.109668	2.03482	0	
0.3613	2.9062	0.813929	0	
0.3620	3.78354	1.10462	0	
0.3627	7.45741	5.11613	0	
0.3633	7.45741	7.84861	0	
0.3640	1.97402	5.69751	0	
0.3647	1.97402	3.89523	0	
0.3653	8.99276	4.7673	0	
0.3660	14.1471	5.11613	0	
0.3667	19.0274	2.03482	0	
0.3673	23.9624	-1.33717	0	
0.3680	23.0302	-1.91855	0	
0.3687	21.4949	0.232551	0	
0.3693	25.7719	1.45345	0	
0.3700	29.72	-1.62786	0	
0.3707	32.4617	-3.43013	0	
0.3713	34.9292	-0.697654	0	
0.3720	22.0981	-0.697654	0	
0.3727	-6.25106	-2.55806	0	
0.3733	-23.6882	0.232551	0	
0.3740	-21.8239	2.03482	0	
0.3747	-23.6882	0.813929	0	
0.3753	-34.326	2.96503	0	
0.3760	-33.7228	4.7673	0	
0.3767	-16.0663	2.03482	0	
0.3773	-5.37372	2.03482	0	
0.3780	-20.0144	3.89523	0	
0.3787	-43.4833	2.03482	0	
0.3793	-51.7632	-0.116276	0	
0.3800	-43.4833	1.10462	0	
0.3807	-32.8455	0.52324	0	
0.3813	-23.3592	-0.988343	0	
0.3820	-11.4603	-0.697654	0	
0.3827	2.24819	0.232551	0	
0.3833	11.1313	1.10462	0	
0.3840	11.4054	2.03482	0	
0.3847	5.92206	1.10462	0	
0.3853	-2.63203	0.813929	0	
0.3860	-11.7893	1.10462	0	
0.3867	-17.2727	1.10462	0	
0.3873	-19.4112	2.03482	0	
0.3880	-16.6695	2.03482	0	
0.3887	-8.11541	-0.988343	0	
0.3893	-0.493505	-1.91855	0	
0.3900	0.767674	1.10462	0	
0.3907	-0.767674	0.52324	0	
0.3913	0.438671	-2.20924	0	
0.3920	5.92206	-2.55806	0	
0.3927	12.0086	-2.84875	0	
0.3933	10.1991	-3.43013	0	
0.3940	0.109668	-2.55806	0	
0.3947	-5.64789	-1.62786	0	
0.3953	-3.50937	-1.62786	0	
0.3960	-1.69985	-2.55806	0	
0.3967	-1.69985	-4.06965	0	
0.3973	3.78354	-2.84875	0	
0.3980	11.1313	-0.697654	0	
0.3987	13.2698	-1.33717	0	
0.3993	14.8051	-2.20924	0	
0.4000	22.0981	-1.33717	0	
0.4007	26.3751	-0.697654	0	
0.4013	21.1659	-0.988343	0	
0.4020	16.2857	0.232551	0	
0.4027	12.0086	1.45345	0	
0.4033	-3.2352	1.45345	0	
0.4040	-20.9465	1.74413	0	
0.4047	-23.3592	2.67434	0	
0.4053	-13.9278	1.74413	0	
0.4060	-5.97689	-2.20924	0	
0.4067	-1.69985	-3.43013	0	
0.4073	-2.63203	-0.116276	0	
0.4080	-8.11541	1.45345	0	
0.4087	-9.04759	-0.116276	0	
0.4093	-0.767674	-0.697654	0	
0.4100	11.1313	1.45345	0	
0.4107	20.2885	1.45345	0	
0.4113	26.7041	-3.13944	0	
0.4120	33.3938	-5.58123	0	
0.4127	40.4126	-2.20924	0	
0.4133	41.9479	0.813929	0	
0.4140	38.274	0.52324	0	
0.4147	34.9292	0.813929	0	
0.4153	32.1875	1.10462	0	
0.4160	27.5814	0.232551	0	
0.4167	18.7532	0.52324	0	
0.4173	3.18036	3.25572	0	
0.4180	-19.0822	4.7673	0	
0.4187	-38.9321	3.25572	0	
0.4193	-45.0186	0.52324	0	
0.4200	-33.7228	-0.406965	0	
0.4207	-11.4603	1.10462	0	
0.4213	9.26692	0.813929	0	
0.4220	20.2885	-0.406965	0	
0.4227	26.9783	-0.697654	0	
0.4233	27.5814	-0.406965	0	
0.4240	12.0086	0.232551	0	
0.4247	-13.9278	0.232551	0	
0.4253	-24.5656	-0.697654	0	
0.4260	-12.6666	-3.13944	0	
0.4267	8.06058	-3.77896	0	
0.4273	21.1659	-3.43013	0	
0.4280	23.9624	-3.13944	0	
0.4287	18.7532	-3.13944	0	
0.4293	2.9062	-2.84875	0	
0.4300	-25.4978	-2.55806	0	
0.4307	-49.2957	-1.62786	0	
0.4313	-55.7112	-0.697654	0	
0.4320	-59.3851	-2.20924	0	
0.4327	-60.3173	-2.55806	0	
0.4333	-43.8123	0.232551	0	
0.4340	-26.4299	1.45345	0	
0.4347	-26.4299	0.232551	0	
0.4353	-30.378	1.10462	0	
0.4360	-28.2394	2.32551	0	
0.4367	-25.4978	1.74413	0	
0.4373	-20.9465	-0.697654	0	
0.4380	-10.5281	-3.77896	0	
0.4387	2.24819	-3.43013	0	
0.4393	16.6147	0.813929	0	
0.4400	23.6334	2.03482	0	
0.4407	15.6825	1.10462	0	
0.4413	4.11254	2.96503	0	
0.4420	1.64502	3.54641	0	
0.4427	3.78354	1.45345	0	
0.4433	8.99276	1.10462	0	
0.4440	12.6666	0.52324	0	
0.4447	6.85423	-2.20924	0	
0.4453	1.04184	-2.84875	0	
0.4460	1.37085	-1.62786	0	
0.4467	-6.25106	0.52324	0	
0.4473	-19.4112	2.96503	0	
0.4480	-21.8239	0.52324	0	
0.4487	-16.9437	-3.43013	0	
0.4493	-12.6666	-2.20924	0	
0.4500	-6.25106	-0.697654	0	
0.4507	1.04184	-2.55806	0	
0.4513	7.78641	-0.988343	0	
0.4520	13.2698	-0.406965	0	
0.4527	14.8051	-2.84875	0	
0.4533	13.873	-2.55806	0	
0.4540	15.0793	-1.62786	0	
0.4547	14.8051	-2.55806	0	
0.4553	12.0086	-1.91855	0	
0.4560	10.1991	-1.62786	0	
0.4567	9.26692	-3.43013	0	
0.4573	10.8023	-2.55806	0	
0.4580	14.8051	-0.697654	0	
0.4587	15.6825	0.52324	0	
0.4593	10.8023	0.52324	0	
0.4600	5.64789	-1.91855	0	
0.4607	1.37085	-3.77896	0	
0.4613	-5.97689	-2.20924	0	
0.4620	-15.4083	-2.84875	0	
0.4627	-21.5497	-5.58123	0	
0.4633	-19.6854	-3.43013	0	
0.4640	-4.77055	0.52324	0	
0.4647	25.1687	-0.697654	0	
0.4653	49.2408	-4.36034	0	
0.4660	38.8772	-3.13944	0	
0.4667	12.0086	-0.116276	0	
0.4673	6.52523	-0.697654	0	
0.4680	9.26692	-2.20924	0	
0.4687	-3.2352	0.813929	0	
0.4693	-16.6695	1.45345	0	
0.4700	-21.5497	-2.55806	0	
0.4707	-31.3101	-2.84875	0	
0.4713	-40.7416	-0.697654	0	
0.4720	-35.5872	-2.84875	0	
0.4727	-20.9465	-4.65103	0	
0.4733	-10.5281	-2.55806	0	
0.4740	-4.44154	-1.62786	0	
0.4747	3.78354	-0.697654	0	
0.4753	12.9408	2.32551	0	
0.4760	16.0115	2.96503	0	
0.4767	13.2698	2.67434	0	
0.4773	12.0086	4.47661	0	
0.4780	13.873	5.69751	0	
0.4787	14.8051	4.7673	0	
0.4793	15.6825	2.96503	0	
0.4800	15.6825	2.96503	0	
0.4807	13.873	4.47661	0	
0.4813	11.1313	3.25572	0	
0.4820	5.64789	2.03482	0	
0.4827	0.109668	3.25572	0	
0.4833	-2.9062	2.67434	0	
0.4840	-7.51224	-0.697654	0	
0.4847	-11.4603	1.10462	0	
0.4853	-6.58006	3.25572	0	
0.4860	-0.164502	0.232551	0	
0.4867	2.9062	-0.697654	0	
0.4873	14.8051	3.89523	0	
0.4880	36.4645	5.69751	0	
0.4887	50.173	2.32551	0	
0.4893	51.1052	-0.697654	0	
0.4900	44.3606	-0.697654	0	
0.4907	31.2553	1.74413	0	
0.4913	20.2885	2.96503	0	
0.4920	12.3376	2.03482	0	
0.4927	-4.44154	1.74413	0	
0.4933	-27.3073	0.232551	0	
0.4940	-37.3967	-0.988343	0	
0.4947	-34.655	0.52324	0	
0.4953	-28.2394	0.232551	0	
0.4960	-21.8239	-2.20924	0	
0.4967	-12.9956	-1.62786	0	
0.4973	4.11254	-1.91855	0	
0.4980	31.2553	-4.06965	0	
0.4987	55.3822	-1.62786	0	
0.4993	65.7458	2.32551	0	
0.5000	64.8136	2.32551	0	
0.5007	53.2437	1.74413	0	
0.5013	23.9624	0.52324	0	
0.5020	-16.9437	-0.988343	0	
0.5027	-46.2798	0.52324	0	
0.5033	-51.7632	1.10462	0	
0.5040	-51.4342	-1.33717	0	
0.5047	-63.6621	-1.62786	0	
0.5053	-76.7674	-0.116276	0	
0.5060	-74.3547	-0.697654	0	
0.5067	-59.0561	0.232551	0	
0.5073	-40.7416	2.32551	0	
0.5080	-26.1009	2.03482	0	
0.5087	-19.0822	2.03482	0	
0.5093	-17.2727	2.96503	0	
0.5100	-14.8051	2.03482	0	
0.5107	-12.3925	0.813929	0	
0.5113	-9.65076	0.813929	0	
0.5120	-7.51224	-0.406965	0	
0.5127	-6.25106	-2.55806	0	
0.5133	-1.69985	-0.988343	0	
0.5140	5.92206	2.03482	0	
0.5147	7.1284	0.232551	0	
0.5153	1.37085	-2.55806	0	
0.5160	0.109668	-0.116276	0	
0.5167	3.78354	1.74413	0	
0.5173	5.64789	-1.62786	0	
0.5180	7.1284	-3.13944	0	
0.5187	11.1313	-1.33717	0	
0.5193	12.0086	-1.62786	0	
0.5200	8.66375	-3.43013	0	
0.5207	5.92206	-3.43013	0	
0.5213	4.71571	-3.77896	0	
0.5220	3.50937	-3.77896	0	
0.5227	2.24819	-2.55806	0	
0.5233	3.50937	-3.43013	0	
0.5240	4.98988	-5.87192	0	
0.5247	5.64789	-4.36034	0	
0.5253	4.38671	-2.55806	0	
0.5260	1.04184	-2.84875	0	
0.5267	1.97402	-2.55806	0	
0.5273	8.99276	-0.697654	0	
0.5280	12.3376	0.52324	0	
0.5287	8.06058	-0.116276	0	
0.5293	5.64789	-2.55806	0	
0.5300	8.99276	-1.33717	0	
0.5307	12.6666	2.03482	0	
0.5313	12.0086	1.45345	0	
0.5320	7.78641	-0.406965	0	
0.5327	2.24819	1.45345	0	
0.5333	-2.63203	2.67434	0	
0.5340	-8.11541	1.45345	0	
0.5347	-11.1313	2.03482	0	
0.5353	-10.8571	4.7673	0	
0.5360	-8.11541	6.33702	0	
0.5367	-3.2352	4.7673	0	
0.5373	8.66375	2.67434	0	
0.5380	26.3751	2.03482	0	
0.5387	38.8772	2.03482	0	
0.5393	39.4804	-0.406965	0	
0.5400	32.7907	-0.697654	0	
0.5407	25.7719	2.67434	0	
0.5413	18.4242	3.89523	0	
0.5420	12.9408	1.10462	0	
0.5427	13.2698	-0.697654	0	
0.5433	15.6825	0.232551	0	
0.5440	10.8023	1.74413	0	
0.5447	0.109668	0.232551	0	
0.5453	-3.83837	-0.406965	0	
0.5460	1.04184	1.74413	0	
0.5467	4.38671	0.813929	0	
0.5473	1.97402	-1.62786	0	
0.5480	4.11254	0.232551	0	
0.5487	12.0086	2.32551	0	
0.5493	14.8051	0.232551	0	
0.5500	4.38671	-0.406965	0	
0.5507	-20.0144	1.10462	0	
0.5513	-48.0893	-0.406965	0	
0.5520	-60.3173	-1.62786	0	
0.5527	-53.9017	0.232551	0	
0.5533	-46.2798	3.25572	0	
0.5540	-41.0706	3.54641	0	
0.5547	-31.9133	0.232551	0	
0.5553	-22.7561	-0.116276	0	
0.5560	-15.7373	3.89523	0	
0.5567	-9.04759	4.7673	0	
0.5573	-7.18324	2.32551	0	
0.5580	-8.11541	2.03482	0	
0.5587	-5.37372	2.67434	0	
0.5593	-0.767674	1.45345	0	
0.5600	0.767674	2.03482	0	
0.5607	2.24819	2.67434	0	
0.5613	5.31889	0.813929	0	
0.5620	5.64789	1.10462	0	
0.5627	5.31889	2.03482	0	
0.5633	7.1284	0.232551	0	
0.5640	7.45741	0.232551	0	
0.5647	4.71571	1.45345	0	
0.5653	2.57719	0.232551	0	
0.5660	3.50937	-0.406965	0	
0.5667	4.11254	-0.697654	0	
0.5673	2.57719	-2.84875	0	
0.5680	1.64502	-3.43013	0	
0.5687	1.37085	-2.84875	0	
0.5693	0.109668	-4.06965	0	
0.5700	0.767674	-4.99985	0	
0.5707	3.78354	-4.06965	0	
0.5713	3.78354	-3.43013	0	
0.5720	1.97402	-3.13944	0	
0.5727	2.24819	-2.55806	0	
0.5733	2.9062	-2.55806	0	
0.5740	1.97402	-2.20924	0	
0.5747	5.64789	-1.33717	0	
0.5753	11.7344	-1.91855	0	
0.5760	12.9408	-4.06965	0	
0.5767	9.26692	-4.99985	0	
0.5773	7.45741	-3.77896	0	
0.5780	9.26692	-1.62786	0	
0.5787	9.59593	-1.62786	0	
0.5793	6.52523	-4.06965	0	
0.5800	6.52523	-5.29054	0	
0.5807	11.1313	-3.77896	0	
0.5813	17.5468	-1.62786	0	
0.5820	27.5814	-1.62786	0	
0.5827	41.9479	-3.43013	0	
0.5833	46.8281	-4.36034	0	
0.5840	38.8772	-2.55806	0	
0.5847	31.5843	-0.697654	0	
0.5853	26.7041	-0.697654	0	
0.5860	14.4761	-1.91855	0	
0.5867	-2.63203	-3.43013	0	
0.5873	-10.2539	-4.99985	0	
0.5880	-6.90907	-4.99985	0	
0.5887	-2.02885	-2.55806	0	
0.5893	0.109668	-0.697654	0	
0.5900	-3.2352	-2.20924	0	
0.5907	-10.5281	-2.84875	0	
0.5913	-12.3925	-1.62786	0	
0.5920	-8.71859	-0.406965	0	
0.5927	-20.9465	0.232551	0	
0.5933	-54.5049	1.45345	0	
0.5940	-76.7674	1.74413	0	
0.5947	-68.5423	0.813929	0	
0.5953	-51.16	-0.406965	0	
0.5960	-41.6737	-0.697654	0	
0.5967	-31.9133	0.52324	0	
0.5973	-24.2914	0.813929	0	
0.5980	-28.2394	0.813929	0	
0.5987	-30.707	2.32551	0	
0.5993	-20.0144	3.25572	0	
0.6000	-6.90907	2.03482	0	
0.6007	-3.50937	2.03482	0	
0.6013	-12.3925	2.67434	0	
0.6020	-19.6854	0.813929	0	
0.6027	-14.531	0.232551	0	
0.6033	-2.63203	1.74413	0	
0.6040	3.78354	2.03482	0	
0.6047	7.78641	2.03482	0	
0.6053	10.8023	2.32551	0	
0.6060	10.8023	1.10462	0	
0.6067	11.4054	0.232551	0	
0.6073	8.38958	0.232551	0	
0.6080	-3.2352	0.232551	0	
0.6087	-11.7893	-0.406965	0	
0.6093	-9.04759	-1.91855	0	
0.6100	-4.77055	-1.62786	0	
0.6107	-3.2352	0.52324	0	
0.6113	0.767674	-1.62786	0	
0.6120	7.1284	-4.99985	0	
0.6127	12.0086	-3.77896	0	
0.6133	16.6147	-3.43013	0	
0.6140	21.1659	-5.87192	0	
0.6147	25.4429	-2.20924	0	
0.6153	25.7719	2.32551	0	
0.6160	21.4949	-0.697654	0	
0.6167	16.9437	-4.99985	0	
0.6173	13.873	-3.77896	0	
0.6180	8.99276	-0.697654	0	
0.6187	1.64502	-0.697654	0	
0.6193	0.109668	-2.84875	0	
0.6200	6.52523	-3.77896	0	
0.6207	12.6666	-3.43013	0	
0.6213	12.0086	-4.06965	0	
0.6220	8.38958	-2.55806	0	
0.6227	6.25106	-0.116276	0	
0.6233	3.50937	-1.62786	0	
0.6240	-0.767674	-2.55806	0	
0.6247	-5.97689	1.10462	0	
0.6253	-6.58006	2.03482	0	
0.6260	-1.09668	-0.406965	0	
0.6267	3.50937	-0.988343	0	
0.6273	4.71571	-0.116276	0	
0.6280	9.26692	-0.988343	0	
0.6287	14.4761	-1.91855	0	
0.6293	12.9408	-1.33717	0	
0.6300	7.45741	0.232551	0	
0.6307	6.25106	1.10462	0	
0.6313	6.85423	1.10462	0	
0.6320	4.71571	0.52324	0	
0.6327	4.71571	-0.406965	0	
0.6333	12.9408	0.232551	0	
0.6340	19.9595	0.813929	0	
0.6347	20.5627	-0.697654	0	
0.6353	17.5468	-1.62786	0	
0.6360	9.26692	0.232551	0	
0.6367	2.57719	1.10462	0	
0.6373	5.64789	0.232551	0	
0.6380	4.98988	0.813929	0	
0.6387	-2.9062	0.813929	0	
0.6393	-5.37372	0.813929	0	
0.6400	-8.11541	3.54641	0	
0.6407	-14.531	3.54641	0	
0.6413	-8.11541	0.52324	0	
0.6420	8.38958	0.52324	0	
0.6427	28.5136	1.10462	0	
0.6433	59.0561	-2.55806	0	
0.6440	79.7833	-3.43013	0	
0.6447	70.955	-1.62786	0	
0.6453	45.896	-2.20924	0	
0.6460	15.6825	-1.91855	0	
0.6467	-14.8051	0.813929	0	
0.6473	-30.9811	0.232551	0	
0.6480	-37.3967	-1.91855	0	
0.6487	-45.9508	-1.33717	0	
0.6493	-49.8988	0.232551	0	
0.6500	-51.16	-0.116276	0	
0.6507	-51.4342	0.52324	0	
0.6513	-44.1413	2.96503	0	
0.6520	-42.6059	3.89523	0	
0.6527	-55.108	1.74413	0	
0.6533	-58.1787	-0.697654	0	
0.6540	-44.4154	0.813929	0	
0.6547	-31.3101	2.67434	0	
0.6553	-23.0851	2.96503	0	
0.6560	-17.2727	4.18592	0	
0.6567	-13.2698	5.11613	0	
0.6573	-9.92493	4.47661	0	
0.6580	-9.04759	3.89523	0	
0.6587	-7.18324	2.67434	0	
0.6593	0.109668	-0.116276	0	
0.6600	4.71571	0.52324	0	
0.6607	3.78354	2.96503	0	
0.6613	6.52523	2.96503	0	
0.6620	9.26692	1.74413	0	
0.6627	7.45741	0.52324	0	
0.6633	12.0086	-1.62786	0	
0.6640	21.1659	-1.33717	0	
0.6647	23.0302	0.813929	0	
0.6653	19.9595	0.52324	0	
0.6660	15.6825	-1.33717	0	
0.6667	7.78641	-0.988343	0	
0.6673	1.37085	0.813929	0	
0.6680	-1.37085	1.45345	0	
0.6687	-8.11541	-1.33717	0	
0.6693	-17.2727	-4.06965	0	
0.6700	-17.2727	-1.62786	0	
0.6707	-4.44154	1.10462	0	
0.6713	9.26692	-1.33717	0	
0.6720	13.544	-3.13944	0	
0.6727	10.8023	-0.697654	0	
0.6733	10.1991	1.10462	0	
0.6740	10.8023	1.74413	0	
0.6747	9.92493	2.32551	0	
0.6753	11.1313	1.74413	0	
0.6760	14.8051	1.45345	0	
0.6767	16.6147	3.89523	0	
0.6773	16.9437	4.47661	0	
0.6780	18.4242	2.03482	0	
0.6787	16.0115	-0.116276	0	
0.6793	12.6666	0.52324	0	
0.6800	16.6147	1.74413	0	
0.6807	19.6854	0.232551	0	
0.6813	11.1313	-0.697654	0	
0.6820	1.04184	0.52324	0	
0.6827	-0.767674	0.232551	0	
0.6833	-2.30302	-1.62786	0	
0.6840	-6.25106	-0.116276	0	
0.6847	-5.37372	-0.697654	0	
0.6853	1.64502	-4.36034	0	
0.6860	9.26692	-4.36034	0	
0.6867	14.1471	-2.55806	0	
0.6873	16.2857	-3.77896	0	
0.6880	20.2885	-4.99985	0	
0.6887	22.4271	-2.84875	0	
0.6893	13.2698	-1.91855	0	
0.6900	-7.51224	-3.43013	0	
0.6907	-30.9811	-4.36034	0	
0.6913	-44.7444	-4.06965	0	
0.6920	-42.2769	-4.06965	0	
0.6927	-33.4487	-6.22075	0	
0.6933	-29.1716	-7.44164	0	
0.6940	-23.6882	-3.43013	0	
0.6947	-12.6666	0.232551	0	
0.6953	-5.64789	-0.116276	0	
0.6960	-2.63203	-0.988343	0	
0.6967	2.57719	-3.13944	0	
0.6973	6.25106	-4.99985	0	
0.6980	8.38958	-3.43013	0	
0.6987	13.544	-1.62786	0	
0.6993	12.9408	-1.62786	0	
0.7000	1.97402	-1.33717	0	
0.7007	-7.18324	-0.406965	0	
0.7013	-11.7893	0.232551	0	
0.7020	-17.8758	0.232551	0	
0.7027	-20.9465	-0.116276	0	
0.7033	-17.2727	-0.406965	0	
0.7040	-11.7893	-1.91855	0	
0.7047	-4.77055	-4.65103	0	
0.7053	6.52523	-3.43013	0	
0.7060	16.9437	-0.116276	0	
0.7067	23.0302	-1.33717	0	
0.7073	30.3231	-5.87192	0	
0.7080	37.0677	-7.44164	0	
0.7087	33.997	-5.87192	0	
0.7093	25.7719	-3.43013	0	
0.7100	18.15	-2.84875	0	
0.7107	7.78641	-2.84875	0	
0.7113	-7.51224	-1.91855	0	
0.7120	-20.2885	-1.33717	0	
0.7127	-22.1529	-2.55806	0	
0.7133	-14.202	-3.13944	0	
0.7140	-6.25106	-1.62786	0	
0.7147	-3.50937	0.813929	0	
0.7153	-1.37085	-0.116276	0	
0.7160	0.767674	-4.36034	0	
0.7167	1.04184	-4.65103	0	
0.7173	0.438671	-1.62786	0	
0.7180	-0.767674	-2.84875	0	
0.7187	-3.2352	-6.22075	0	
0.7193	-2.02885	-2.55806	0	
0.7200	1.97402	0.52324	0	
0.7207	4.71571	-2.84875	0	
0.7213	8.38958	-4.06965	0	
0.7220	8.38958	-1.91855	0	
0.7227	-3.2352	-1.62786	0	
0.7233	-15.4083	1.45345	0	
0.7240	-17.5468	5.69751	0	
0.7247	-16.0663	3.89523	0	
0.7253	-14.202	-0.406965	0	
0.7260	-9.04759	-0.116276	0	
0.7267	-3.50937	2.03482	0	
0.7273	1.04184	1.45345	0	
0.7280	6.25106	-0.406965	0	
0.7287	4.71571	0.232551	0	
0.7293	-3.2352	2.67434	0	
0.7300	-6.90907	4.7673	0	
0.7307	-2.30302	6.62771	0	
0.7313	7.1284	6.62771	0	
0.7320	15.0793	4.7673	0	
0.7327	17.2178	1.10462	0	
0.7333	10.8023	-0.116276	0	
0.7340	-2.63203	2.96503	0	
0.7347	-12.6666	4.7673	0	
0.7353	-7.18324	2.96503	0	
0.7360	7.78641	3.54641	0	
0.7367	22.0981	6.62771	0	
0.7373	39.2062	5.69751	0	
0.7380	52.3115	3.89523	0	
0.7387	44.3606	4.7673	0	
0.7393	18.15	4.18592	0	
0.7400	-2.63203	4.47661	0	
0.7407	-9.04759	7.55792	0	
0.7413	-16.6695	6.62771	0	
0.7420	-37.1225	3.54641	0	
0.7427	-58.7819	3.54641	0	
0.7433	-67.6102	3.54641	0	
0.7440	-63.9363	3.25572	0	
0.7447	-54.779	5.69751	0	
0.7453	-44.7444	4.7673	0	
0.7460	-36.4645	0.232551	0	
0.7467	-27.0331	1.45345	0	
0.7473	-14.8051	5.69751	0	
0.7480	-5.64789	3.89523	0	
0.7487	-4.44154	1.10462	0	
0.7493	-5.97689	3.25572	0	
0.7500	-4.11254	4.18592	0	
0.7507	-0.767674	3.89523	0	
0.7513	0.438671	3.89523	0	
0.7520	1.37085	2.96503	0	
0.7527	2.24819	3.54641	0	
0.7533	0.109668	5.98819	0	
0.7540	-6.58006	4.47661	0	
0.7547	-12.0635	2.03482	0	
0.7553	-10.8571	4.47661	0	
0.7560	-4.44154	5.69751	0	
0.7567	2.57719	3.89523	0	
0.7573	7.1284	3.89523	0	
0.7580	5.64789	4.7673	0	
0.7587	-0.767674	4.18592	0	
0.7593	-2.63203	4.7673	0	
0.7600	3.78354	4.7673	0	
0.7607	8.38958	2.67434	0	
0.7613	16.0115	3.54641	0	
0.7620	32.4617	3.89523	0	
0.7627	43.4833	0.52324	0	
0.7633	40.4126	-0.697654	0	
0.7640	35.8614	0.52324	0	
0.7647	32.1875	-2.55806	0	
0.7653	26.7041	-5.87192	0	
0.7660	23.9624	-2.20924	0	
0.7667	23.0302	0.232551	0	
0.7673	17.821	-3.43013	0	
0.7680	7.1284	-4.65103	0	
0.7687	-8.38958	-2.55806	0	
0.7693	-23.3592	-4.36034	0	
0.7700	-28.2394	-7.09281	0	
0.7707	-23.6882	-5.29054	0	
0.7713	-12.6666	-2.55806	0	
0.7720	-0.767674	-1.62786	0	
0.7727	6.52523	-3.13944	0	
0.7733	15.0793	-4.36034	0	
0.7740	27.5814	-2.84875	0	
0.7747	31.2553	-0.406965	0	
0.7753	24.8397	-0.697654	0	
0.7760	19.6854	-1.91855	0	
0.7767	15.0793	-3.43013	0	
0.7773	9.26692	-5.29054	0	
0.7780	2.9062	-4.06965	0	
0.7787	-7.51224	-0.697654	0	
0.7793	-14.202	-0.988343	0	
0.7800	-0.767674	-1.62786	0	
0.7807	19.3564	-0.116276	0	
0.7813	24.2366	-0.116276	0	
0.7820	16.6147	1.10462	0	
0.7827	6.25106	3.89523	0	
0.7833	-9.92493	-0.116276	0	
0.7840	-28.2394	-4.99985	0	
0.7847	-32.5165	-1.62786	0	
0.7853	-17.8758	0.232551	0	
0.7860	3.50937	-4.06965	0	
0.7867	13.2698	-3.43013	0	
0.7873	1.04184	1.45345	0	
0.7880	-22.7561	-0.116276	0	
0.7887	-37.3967	-2.55806	0	
0.7893	-38.603	-2.20924	0	
0.7900	-34.0518	-3.43013	0	
0.7907	-24.2914	-3.13944	0	
0.7913	-12.9956	-0.406965	0	
0.7920	-6.90907	-1.62786	0	
0.7927	-8.71859	-3.43013	0	
0.7933	-16.9437	-2.55806	0	
0.7940	-23.9624	-2.55806	0	
0.7947	-20.0144	-2.84875	0	
0.7953	-12.6666	0.232551	0	
0.7960	-12.6666	1.10462	0	
0.7967	-11.4603	-0.697654	0	
0.7973	-2.9062	-0.406965	0	
0.7980	6.52523	0.813929	0	
0.7987	14.8051	1.10462	0	
0.7993	21.1659	1.10462	0	
0.8000	21.1659	-0.697654	0	
0.8007	19.6854	-0.988343	0	
0.8013	20.2885	2.03482	0	
0.8020	18.4242	1.10462	0	
0.8027	13.2698	-3.43013	0	
0.8033	8.99276	-1.33717	0	
0.8040	3.78354	2.03482	0	
0.8047	-2.30302	-0.116276	0	
0.8053	-5.37372	-1.62786	0	
0.8060	-7.51224	-0.116276	0	
0.8067	-9.92493	0.232551	0	
0.8073	-9.92493	1.74413	0	
0.8080	-9.04759	4.7673	0	
0.8087	-7.51224	4.7673	0	
0.8093	-3.50937	0.813929	0	
0.8100	1.97402	-2.55806	0	
0.8107	11.4054	-3.43013	0	
0.8113	27.5814	-1.62786	0	
0.8120	40.4126	-0.697654	0	
0.8127	40.4126	-4.36034	0	
0.8133	31.2553	-5.87192	0	
0.8140	16.9437	-2.55806	0	
0.8147	5.92206	-1.62786	0	
0.8153	2.9062	-2.20924	0	
0.8160	-5.04472	0.232551	0	
0.8167	-21.2207	0.232551	0	
0.8173	-26.4299	-2.20924	0	
0.8180	-12.6666	-0.697654	0	
0.8187	6.52523	1.10462	0	
0.8193	21.1659	-1.91855	0	
0.8200	28.1846	-4.36034	0	
0.8207	27.5814	-2.84875	0	
0.8213	24.8397	-1.62786	0	
0.8220	22.0981	-1.33717	0	
0.8227	19.3564	-1.62786	0	
0.8233	13.873	-1.91855	0	
0.8240	1.97402	-0.988343	0	
0.8247	-9.92493	-0.697654	0	
0.8253	-12.6666	-0.988343	0	
0.8260	-12.6666	-0.116276	0	
0.8267	-16.9437	-0.988343	0	
0.8273	-18.15	-2.84875	0	
0.8280	-13.5988	-0.406965	0	
0.8287	-13.9278	2.03482	0	
0.8293	-29.7748	2.03482	0	
0.8300	-51.7632	2.96503	0	
0.8307	-57.5207	1.45345	0	
0.8313	-41.0706	-2.84875	0	
0.8320	-18.15	-4.36034	0	
0.8327	2.24819	-4.99985	0	
0.8333	21.1659	-7.44164	0	
0.8340	34.9292	-6.22075	0	
0.8347	36.4645	-1.62786	0	
0.8353	21.4949	-1.91855	0	
0.8360	-5.37372	-5.29054	0	
0.8367	-28.8426	-3.43013	0	
0.8373	-38.3289	2.03482	0	
0.8380	-37.3967	4.7673	0	
0.8387	-30.9811	1.45345	0	
0.8393	-19.4112	-1.62786	0	
0.8400	-9.32176	1.45345	0	
0.8407	-4.77055	4.7673	0	
0.8413	-2.9062	2.67434	0	
0.8420	0.767674	0.232551	0	
0.8427	7.1284	2.03482	0	
0.8433	11.1313	3.25572	0	
0.8440	9.26692	1.45345	0	
0.8447	8.06058	-0.697654	0	
0.8453	9.59593	-1.91855	0	
0.8460	9.26692	-1.62786	0	
0.8467	10.8023	-0.116276	0	
0.8473	15.4083	-0.406965	0	
0.8480	13.2698	-0.697654	0	
0.8487	3.18036	0.232551	0	
0.8493	-3.50937	1.10462	0	
0.8500	-3.50937	0.813929	0	
0.8507	-1.09668	-0.116276	0	
0.8513	2.24819	-0.697654	0	
0.8520	4.71571	-0.406965	0	
0.8527	4.71571	1.45345	0	
0.8533	2.57719	2.03482	0	
0.8540	-1.69985	0.52324	0	
0.8547	-7.18324	1.45345	0	
0.8553	-7.51224	5.69751	0	
0.8560	-3.83837	6.62771	0	
0.8567	-2.02885	3.89523	0	
0.8573	0.109668	1.74413	0	
0.8580	2.57719	0.813929	0	
0.8587	1.37085	0.52324	0	
0.8593	1.37085	0.813929	0	
0.8600	11.1313	0.813929	0	
0.8607	23.6334	0.52324	0	
0.8613	31.8585	1.45345	0	
0.8620	46.225	2.32551	0	
0.8627	65.1426	2.03482	0	
0.8633	69.6939	1.74413	0	
0.8640	55.3822	2.03482	0	
0.8647	40.4126	2.32551	0	
0.8653	27.3073	1.45345	0	
0.8660	5.64789	-0.116276	0	
0.8667	-17.2727	-0.697654	0	
0.8673	-25.1687	0.232551	0	
0.8680	-22.4271	-0.116276	0	
0.8687	-24.5656	-0.697654	0	
0.8693	-31.5843	1.10462	0	
0.8700	-33.7228	0.52324	0	
0.8707	-25.4978	-4.36034	0	
0.8713	-9.04759	-5.29054	0	
0.8720	10.1991	-0.697654	0	
0.8727	19.0274	-0.116276	0	
0.8733	15.6825	0.232551	0	
0.8740	14.4761	3.89523	0	
0.8747	17.5468	3.54641	0	
0.8753	5.92206	1.10462	0	
0.8760	-17.2727	2.03482	0	
0.8767	-29.4458	1.45345	0	
0.8773	-38.3289	-1.62786	0	
0.8780	-59.0561	-2.20924	0	
0.8787	-66.678	-3.13944	0	
0.8793	-49.2957	-4.06965	0	
0.8800	-34.0518	-2.84875	0	
0.8807	-28.2394	-3.77896	0	
0.8813	-21.2207	-5.29054	0	
0.8820	-17.2727	-4.36034	0	
0.8827	-17.2727	-4.06965	0	
0.8833	-15.1341	-3.43013	0	
0.8840	-14.202	-0.116276	0	
0.8847	-13.9278	-0.697654	0	
0.8853	-8.38958	-4.06965	0	
0.8860	-3.83837	-2.20924	0	
0.8867	-3.50937	0.52324	0	
0.8873	-4.44154	-1.62786	0	
0.8880	-4.44154	-3.43013	0	
0.8887	0.109668	-3.77896	0	
0.8893	7.45741	-3.13944	0	
0.8900	14.4761	-1.62786	0	
0.8907	28.5136	-2.55806	0	
0.8913	43.4833	-5.29054	0	
0.8920	39.4804	-5.58123	0	
0.8927	20.8917	-4.65103	0	
0.8933	12.0086	-4.36034	0	
0.8940	12.3376	-3.77896	0	
0.8947	3.78354	-3.13944	0	
0.8953	-15.7373	-3.43013	0	
0.8960	-30.378	-2.55806	0	
0.8967	-30.378	-0.116276	0	
0.8973	-24.5656	0.232551	0	
0.8980	-19.6854	-0.697654	0	
0.8987	-13.5988	-0.406965	0	
0.8993	-6.25106	1.45345	0	
0.9000	-0.767674	2.96503	0	
0.9007	4.71571	2.32551	0	
0.9013	11.1313	0.52324	0	
0.9020	14.1471	0.813929	0	
0.9027	14.1471	2.67434	0	
0.9033	16.9437	2.32551	0	
0.9040	22.4271	2.32551	0	
0.9047	20.8917	5.40682	0	
0.9053	13.873	5.69751	0	
0.9060	10.5281	2.32551	0	
0.9067	9.59593	1.10462	0	
0.9073	6.52523	2.67434	0	
0.9080	5.64789	2.03482	0	
0.9087	2.57719	2.32551	0	
0.9093	-5.04472	3.89523	0	
0.9100	-7.78641	2.96503	0	
0.9107	-5.97689	3.54641	0	
0.9113	-6.25106	6.9184	0	
0.9120	-3.2352	5.69751	0	
0.9127	2.9062	1.74413	0	
0.9133	11.1313	1.10462	0	
0.9140	26.7041	2.03482	0	
0.9147	41.0157	-0.116276	0	
0.9153	43.4833	0.232551	0	
0.9160	50.173	2.96503	0	
0.9167	55.9854	1.74413	0	
0.9173	33.7228	-1.62786	0	
0.9180	4.98988	-2.20924	0	
0.9187	2.9062	-0.697654	0	
0.9193	0.767674	0.232551	0	
0.9200	-25.1687	2.03482	0	
0.9207	-45.6218	1.74413	0	
0.9213	-40.7416	-1.62786	0	
0.9220	-23.6882	-0.697654	0	
0.9227	-10.2539	3.54641	0	
0.9233	-6.58006	3.54641	0	
0.9240	-9.32176	0.813929	0	
0.9247	-7.78641	-0.406965	0	
0.9253	-2.63203	-0.697654	0	
0.9260	-1.69985	0.232551	0	
0.9267	-2.30302	0.232551	0	
0.9273	-1.09668	-2.55806	0	
0.9280	-3.50937	-4.99985	0	
0.9287	-12.6666	-3.43013	0	
0.9293	-21.8239	-2.55806	0	
0.9300	-24.5656	-2.55806	0	
0.9307	-20.2885	-1.33717	0	
0.9313	-10.5281	-1.33717	0	
0.9320	1.04184	-2.55806	0	
0.9327	7.78641	-3.13944	0	
0.9333	5.64789	-2.84875	0	
0.9340	-2.63203	-1.62786	0	
0.9347	-8.71859	-0.697654	0	
0.9353	-6.58006	-2.20924	0	
0.9360	-4.77055	-3.43013	0	
0.9367	-9.92493	-1.62786	0	
0.9373	-12.9956	2.03482	0	
0.9380	-9.65076	2.96503	0	
0.9387	-6.25106	0.52324	0	
0.9393	-4.44154	-1.33717	0	
0.9400	-2.02885	-0.116276	0	
0.9407	-2.63203	-0.697654	0	
0.9413	-2.63203	-1.91855	0	
0.9420	0.109668	0.52324	0	
0.9427	-0.164502	2.03482	0	
0.9433	-1.37085	-1.33717	0	
0.9440	2.24819	-0.697654	0	
0.9447	3.78354	2.32551	0	
0.9453	2.9062	0.52324	0	
0.9460	7.1284	-0.697654	0	
0.9467	13.2698	1.45345	0	
0.9473	15.4083	1.10462	0	
0.9480	15.6825	-0.697654	0	
0.9487	14.4761	-0.697654	0	
0.9493	12.3376	-1.91855	0	
0.9500	15.6825	-2.55806	0	
0.9507	22.4271	-0.988343	0	
0.9513	29.4458	0.232551	0	
0.9520	39.2062	-0.697654	0	
0.9527	47.1571	-1.62786	0	
0.9533	41.3447	-1.62786	0	
0.9540	24.5656	-1.62786	0	
0.9547	12.9408	-0.697654	0	
0.9553	7.45741	1.10462	0	
0.9560	-7.18324	2.03482	0	
0.9567	-35.8614	-0.988343	0	
0.9573	-60.3173	-3.77896	0	
0.9580	-61.7978	-2.84875	0	
0.9587	-42.8801	-2.20924	0	
0.9593	-22.1529	-2.55806	0	
0.9600	-8.38958	-2.84875	0	
0.9607	4.11254	-3.43013	0	
0.9613	19.9595	-3.13944	0	
0.9620	33.997	-2.84875	0	
0.9627	32.1875	-5.58123	0	
0.9633	2.9062	-8.02302	0	
0.9640	-38.3289	-5.29054	0	
0.9647	-59.9883	-3.77896	0	
0.9653	-55.7112	-4.36034	0	
0.9660	-45.9508	-1.91855	0	
0.9667	-38.3289	0.232551	0	
0.9673	-27.0331	-0.697654	0	
0.9680	-16.3405	-0.406965	0	
0.9687	-13.2698	-0.697654	0	
0.9693	-12.0635	-4.65103	0	
0.9700	-5.97689	-5.87192	0	
0.9707	4.98988	-5.29054	0	
0.9713	14.4761	-6.51144	0	
0.9720	16.9437	-5.58123	0	
0.9727	16.0115	-3.13944	0	
0.9733	13.873	-3.77896	0	
0.9740	10.1991	-3.43013	0	
0.9747	7.1284	-0.697654	0	
0.9753	7.1284	-0.697654	0	
0.9760	9.59593	-1.62786	0	
0.9767	13.873	-2.20924	0	
0.9773	15.6825	-3.43013	0	
0.9780	17.2178	-2.55806	0	
0.9787	22.4271	1.10462	0	
0.9793	26.7041	0.813929	0	
0.9800	23.0302	-0.406965	0	
0.9807	17.5468	0.52324	0	
0.9813	14.1471	0.52324	0	
0.9820	13.873	0.813929	0	
0.9827	16.2857	2.03482	0	
0.9833	11.1313	0.52324	0	
0.9840	-3.2352	-0.988343	0	
0.9847	-10.8571	1.10462	0	
0.9853	-9.04759	0.813929	0	
0.9860	-6.90907	-2.84875	0	
0.9867	-3.83837	-1.62786	0	
0.9873	-0.164502	1.74413	0	
0.9880	-0.767674	1.10462	0	
0.9887	-4.44154	-1.33717	0	
0.9893	-9.04759	-2.55806	0	
0.9900	-9.65076	-1.33717	0	
0.9907	-1.69985	-0.697654	0	
0.9913	5.64789	-3.43013	0	
0.9920	6.52523	-4.36034	0	
0.9927	13.873	-0.406965	0	
0.9933	26.0461	2.03482	0	
0.9940	28.1846	0.232551	0	
0.9947	20.2885	-2.84875	0	
0.9953	13.873	-3.43013	0	
0.9960	12.0086	-2.55806	0	
0.9967	14.8051	-2.55806	0	
0.9973	19.9595	-4.65103	0	
0.9980	22.0981	-4.36034	0	
0.9987	22.0981	-0.988343	0	
0.9993	27.5814	-0.406965	0	
1.0000	34.9292	-1.91855	0	
1.0007	28.8426	-2.55806	0	
1.0013	4.98988	-1.62786	0	
1.0020	-16.3405	-0.988343	0	
1.0027	-24.2914	0.52324	0	
1.0033	-32.2423	1.10462	0	
1.0040	-37.7257	0.52324	0	
1.0047	-20.0144	-0.116276	0	
1.0053	8.06058	0.52324	0	
1.0060	15.6825	2.03482	0	
1.0067	4.38671	2.03482	0	
1.0073	-10.2539	2.96503	0	
1.0080	-21.5497	4.7673	0	
1.0087	-25.4978	3.54641	0	
1.0093	-31.9133	0.232551	0	
1.0100	-45.9508	0.232551	0	
1.0107	-47.4861	1.74413	0	
1.0113	-30.1038	3.25572	0	
1.0120	-17.5468	4.18592	0	
1.0127	-12.9956	3.25572	0	
1.0133	-4.11254	2.32551	0	
1.0140	0.767674	4.47661	0	
1.0147	-3.2352	6.33702	0	
1.0153	-3.50937	5.69751	0	
1.0160	-1.69985	5.69751	0	
1.0167	-7.78641	5.98819	0	
1.0173	-16.9437	6.33702	0	
1.0180	-21.8239	7.55792	0	
1.0187	-19.4112	7.55792	0	
1.0193	-11.7893	4.7673	0	
1.0200	-5.04472	2.03482	0	
1.0207	-0.767674	2.67434	0	
1.0213	4.71571	2.32551	0	
1.0220	11.7344	0.52324	0	
1.0227	20.2885	0.52324	0	
1.0233	33.1197	2.96503	0	
1.0240	41.0157	4.47661	0	
1.0247	33.7228	5.11613	0	
1.0253	20.5627	4.7673	0	
1.0260	8.66375	2.96503	0	
1.0267	-9.92493	0.52324	0	
1.0273	-34.326	0.813929	0	
1.0280	-48.3635	0.232551	0	
1.0287	-43.2091	-2.20924	0	
1.0293	-29.4458	-2.55806	0	
1.0300	-22.1529	-0.697654	0	
1.0307	-19.0822	1.10462	0	
1.0313	-12.9956	1.74413	0	
1.0320	-9.92493	-0.697654	0	
1.0327	-10.8571	-2.20924	0	
1.0333	-9.32176	0.52324	0	
1.0340	-8.11541	1.10462	0	
1.0347	-8.11541	-2.20924	0	
1.0353	-3.50937	-2.20924	0	
1.0360	1.04184	-0.406965	0	
1.0367	0.109668	-1.62786	0	
1.0373	-2.63203	-1.62786	0	
1.0380	-2.9062	1.74413	0	
1.0387	-2.30302	2.96503	0	
1.0393	-1.09668	2.67434	0	
1.0400	1.37085	2.67434	0	
1.0407	5.31889	1.10462	0	
1.0413	7.45741	-0.697654	0	
1.0420	8.38958	-0.406965	0	
1.0427	10.5281	1.10462	0	
1.0433	12.0086	0.232551	0	
1.0440	11.1313	-1.33717	0	
1.0447	11.1313	-3.13944	0	
1.0453	9.59593	-5.29054	0	
1.0460	5.64789	-3.77896	0	
1.0467	4.71571	-0.406965	0	
1.0473	6.85423	-2.20924	0	
1.0480	5.31889	-3.43013	0	
1.0487	1.97402	-0.406965	0	
1.0493	1.04184	-1.62786	0	
1.0500	1.04184	-5.29054	0	
1.0507	3.78354	-3.13944	0	
1.0513	8.99276	-1.33717	0	
1.0520	9.92493	-4.36034	0	
1.0527	7.1284	-2.20924	0	
1.0533	6.25106	2.03482	0	
1.0540	7.45741	-0.116276	0	
1.0547	6.85423	-2.20924	0	
1.0553	5.92206	-0.697654	0	
1.0560	7.45741	0.232551	0	
1.0567	8.06058	-0.697654	0	
1.0573	7.45741	-1.62786	0	
1.0580	9.26692	-1.33717	0	
1.0587	11.1313	2.03482	0	
1.0593	5.31889	2.03482	0	
1.0600	-3.2352	-2.84875	0	
1.0607	-3.83837	-3.77896	0	
1.0613	-0.767674	-0.697654	0	
1.0620	-2.30302	-1.62786	0	
1.0627	-7.18324	-4.36034	0	
1.0633	-11.4603	-4.65103	0	
1.0640	-14.202	-4.36034	0	
1.0647	-11.1313	-4.36034	0	
1.0653	-2.30302	-1.62786	0	
1.0660	3.18036	1.10462	0	
1.0667	3.78354	0.232551	0	
1.0673	7.1284	-1.33717	0	
1.0680	11.4054	-0.988343	0	
1.0687	10.1991	-1.62786	0	
1.0693	7.1284	-1.33717	0	
1.0700	5.64789	0.232551	0	
1.0707	3.18036	-0.988343	0	
1.0713	0.767674	-2.55806	0	
1.0720	0.109668	0.232551	0	
1.0727	0.109668	0.52324	0	
1.0733	0.438671	-1.62786	0	
1.0740	2.9062	-0.988343	0	
1.0747	6.52523	-0.988343	0	
1.0753	8.66375	-1.62786	0	
1.0760	6.25106	0.52324	0	
1.0767	-0.767674	1.10462	0	
1.0773	-4.44154	-0.697654	0	
1.0780	-1.69985	0.232551	0	
1.0787	1.04184	0.52324	0	
1.0793	-1.09668	-2.20924	0	
1.0800	-2.9062	-2.55806	0	
1.0807	-1.09668	-0.406965	0	
1.0813	2.9062	1.10462	0	
1.0820	8.06058	1.45345	0	
1.0827	14.1471	0.232551	0	
1.0833	17.2178	0.232551	0	
1.0840	17.5468	1.74413	0	
1.0847	23.9624	1.10462	0	
1.0853	31.2553	-0.406965	0	
1.0860	24.8397	0.52324	0	
1.0867	10.1991	0.52324	0	
1.0873	1.04184	-2.20924	0	
1.0880	-7.18324	-2.84875	0	
1.0887	-20.9465	-0.988343	0	
1.0893	-29.7748	1.10462	0	
1.0900	-29.1716	2.32551	0	
1.0907	-26.1009	1.10462	0	
1.0913	-21.5497	-0.116276	0	
1.0920	-9.32176	-0.988343	0	
1.0927	8.38958	-3.43013	0	
1.0933	21.1659	-3.13944	0	
1.0940	23.6334	-0.697654	0	
1.0947	16.2857	-2.84875	0	
1.0953	-1.69985	-4.99985	0	
1.0960	-23.6882	-2.55806	0	
1.0967	-30.378	-3.13944	0	
1.0973	-24.5656	-4.36034	0	
1.0980	-24.5656	-1.33717	0	
1.0987	-27.0331	-0.988343	0	
1.0993	-24.2914	-3.77896	0	
1.1000	-27.6363	-1.91855	0	
1.1007	-35.2582	-1.62786	0	
1.1013	-30.707	-4.65103	0	
1.1020	-20.0144	-2.84875	0	
1.1027	-14.8051	0.813929	0	
1.1033	-11.7893	-1.62786	0	
1.1040	-9.92493	-3.43013	0	
1.1047	-8.71859	0.232551	0	
1.1053	-5.37372	2.03482	0	
1.1060	-2.63203	0.52324	0	
1.1067	-2.30302	0.232551	0	
1.1073	-1.09668	-0.116276	0	
1.1080	-3.2352	-0.697654	0	
1.1087	-6.90907	0.232551	0	
1.1093	-2.63203	-0.116276	0	
1.1100	2.24819	0.232551	0	
1.1107	-2.30302	2.67434	0	
1.1113	-5.97689	2.32551	0	
1.1120	-1.37085	1.10462	0	
1.1127	1.04184	2.96503	0	
1.1133	-0.164502	3.25572	0	
1.1140	0.767674	1.74413	0	
1.1147	3.18036	1.74413	0	
1.1153	6.25106	1.45345	0	
1.1160	9.59593	1.10462	0	
1.1167	14.4761	2.96503	0	
1.1173	26.3751	1.74413	0	
1.1180	40.7416	-0.697654	0	
1.1187	43.7574	2.03482	0	
1.1193	37.3419	3.89523	0	
1.1200	33.1197	1.45345	0	
1.1207	26.3751	1.74413	0	
1.1213	7.78641	2.96503	0	
1.1220	-17.2727	0.232551	0	
1.1227	-34.655	-1.33717	0	
1.1233	-33.7228	0.52324	0	
1.1240	-19.0822	0.232551	0	
1.1247	-5.37372	-1.33717	0	
1.1253	-0.767674	-0.697654	0	
1.1260	-4.77055	-0.116276	0	
1.1267	-12.0635	-0.697654	0	
1.1273	-12.6666	0.52324	0	
1.1280	-9.04759	1.74413	0	
1.1287	-9.92493	2.03482	0	
1.1293	-7.18324	2.96503	0	
1.1300	5.31889	3.89523	0	
1.1307	18.4242	2.96503	0	
1.1313	33.3938	2.96503	0	
1.1320	51.3793	1.10462	0	
1.1327	62.4009	-1.62786	0	
1.1333	66.349	-1.33717	0	
1.1340	60.5366	0.232551	0	
1.1347	31.5843	-0.697654	0	
1.1353	-6.90907	-0.406965	0	
1.1360	-31.5843	2.96503	0	
1.1367	-47.4861	3.25572	0	
1.1373	-59.3851	1.45345	0	
1.1380	-53.9017	2.96503	0	
1.1387	-35.5872	4.7673	0	
1.1393	-21.8239	4.18592	0	
1.1400	-21.2207	2.96503	0	
1.1407	-29.4458	3.89523	0	
1.1413	-33.7228	5.40682	0	
1.1420	-26.7041	5.69751	0	
1.1427	-18.15	4.7673	0	
1.1433	-14.531	3.25572	0	
1.1440	-8.38958	2.67434	0	
1.1447	0.438671	2.03482	0	
1.1453	4.71571	2.03482	0	
1.1460	1.04184	2.03482	0	
1.1467	-4.77055	1.74413	0	
1.1473	-2.63203	2.03482	0	
1.1480	7.78641	2.32551	0	
1.1487	17.5468	2.67434	0	
1.1493	26.7041	5.11613	0	
1.1500	36.7387	7.55792	0	
1.1507	42.2221	5.11613	0	
1.1513	39.4804	1.45345	0	
1.1520	26.9783	0.813929	0	
1.1527	4.71571	1.10462	0	
1.1533	-17.2727	2.03482	0	
1.1540	-30.1038	1.45345	0	
1.1547	-40.4674	-0.697654	0	
1.1553	-48.0893	0.232551	0	
1.1560	-42.0027	2.03482	0	
1.1567	-27.3073	0.232551	0	
1.1573	-13.2698	-0.697654	0	
1.1580	0.767674	0.813929	0	
1.1587	7.45741	0.813929	0	
1.1593	4.71571	-0.697654	0	
1.1600	3.78354	-0.116276	0	
1.1607	6.85423	2.03482	0	
1.1613	7.1284	2.96503	0	
1.1620	5.92206	1.10462	0	
1.1627	6.52523	-0.697654	0	
1.1633	9.26692	-1.62786	0	
1.1640	13.2698	-1.62786	0	
1.1647	14.4761	-0.988343	0	
1.1653	10.8023	0.232551	0	
1.1660	6.52523	-1.62786	0	
1.1667	-0.164502	-3.77896	0	
1.1673	-10.2539	-2.20924	0	
1.1680	-11.7893	-0.697654	0	
1.1687	0.767674	-2.55806	0	
1.1693	18.15	-3.13944	0	
1.1700	31.8585	-0.406965	0	
1.1707	37.0677	1.74413	0	
1.1713	33.7228	-0.116276	0	
1.1720	26.9783	-3.13944	0	
1.1727	16.2857	-2.55806	0	
1.1733	-0.164502	-1.62786	0	
1.1740	-11.1313	-1.62786	0	
1.1747	-10.5281	0.52324	0	
1.1753	-6.58006	2.67434	0	
1.1760	4.98988	1.45345	0	
1.1767	32.7907	0.232551	0	
1.1773	57.7949	-0.406965	0	
1.1780	62.4009	-1.91855	0	
1.1787	46.4991	-1.62786	0	
1.1793	9.59593	0.232551	0	
1.1800	-36.4645	-0.697654	0	
1.1807	-68.5423	-2.55806	0	
1.1813	-84.9925	-2.20924	0	
1.1820	-89.5986	-0.988343	0	
1.1827	-74.9579	-0.697654	0	
1.1833	-51.16	-0.988343	0	
1.1840	-37.3967	-0.988343	0	
1.1847	-30.707	-0.697654	0	
1.1853	-23.0851	-1.62786	0	
1.1860	-15.7373	-1.62786	0	
1.1867	-5.37372	1.10462	0	
1.1873	2.9062	2.96503	0	
1.1880	1.97402	2.03482	0	
1.1887	-2.63203	0.52324	0	
1.1893	-6.58006	-0.406965	0	
1.1900	-14.531	-0.697654	0	
1.1907	-19.0822	-0.697654	0	
1.1913	-12.3925	-1.62786	0	
1.1920	-3.2352	-2.55806	0	
1.1927	0.438671	-1.91855	0	
1.1933	3.78354	-0.988343	0	
1.1940	12.0086	-2.20924	0	
1.1947	19.9595	-3.77896	0	
1.1953	19.6854	-2.55806	0	
1.1960	16.2857	-1.33717	0	
1.1967	16.0115	-1.62786	0	
1.1973	13.873	-1.91855	0	
1.1980	4.98988	-1.62786	0	
1.1987	-1.69985	-0.988343	0	
1.1993	-0.493505	0.232551	0	
1.2000	3.18036	0.813929	0	
1.2007	8.66375	1.10462	0	
1.2013	19.6854	2.67434	0	
1.2020	29.4458	3.89523	0	
1.2027	33.3938	2.32551	0	
1.2033	36.1355	0.52324	0	
1.2040	34.6002	0.813929	0	
1.2047	26.7041	1.74413	0	
1.2053	18.4242	1.10462	0	
1.2060	8.06058	0.232551	0	
1.2067	-9.32176	0.813929	0	
1.2073	-21.2207	0.232551	0	
1.2080	-19.0822	-1.62786	0	
1.2087	-8.38958	-1.62786	0	
1.2093	1.04184	0.813929	0	
1.2100	1.04184	0.232551	0	
1.2107	-2.9062	-2.84875	0	
1.2113	3.50937	-3.43013	0	
1.2120	12.9408	-0.697654	0	
1.2127	8.99276	0.232551	0	
1.2133	-2.63203	-0.988343	0	
1.2140	-7.18324	0.232551	0	
1.2147	-0.164502	3.25572	0	
1.2153	10.5281	2.03482	0	
1.2160	12.0086	-0.406965	0	
1.2167	4.71571	0.52324	0	
1.2173	1.04184	1.45345	0	
1.2180	-1.37085	1.10462	0	
1.2187	-7.51224	2.96503	0	
1.2193	-8.11541	4.18592	0	
1.2200	1.04184	2.96503	0	
1.2207	9.26692	2.03482	0	
1.2213	10.1991	3.89523	0	
1.2220	9.59593	4.47661	0	
1.2227	12.9408	2.96503	0	
1.2233	21.4949	2.67434	0	
1.2240	30.9811	2.96503	0	
1.2247	32.1875	0.52324	0	
1.2253	18.7532	-0.697654	0	
1.2260	-2.9062	1.10462	0	
1.2267	-20.0144	1.10462	0	
1.2273	-30.9811	-0.697654	0	
1.2280	-40.1384	2.03482	0	
1.2287	-39.5352	2.96503	0	
1.2293	-29.1716	-1.62786	0	
1.2300	-24.2914	-2.20924	0	
1.2307	-28.5684	1.10462	0	
1.2313	-26.4299	-1.62786	0	
1.2320	-14.202	-3.43013	0	
1.2327	-4.44154	0.232551	0	
1.2333	4.71571	2.03482	0	
1.2340	19.3564	-0.697654	0	
1.2347	29.4458	-3.43013	0	
1.2353	26.3751	-6.22075	0	
1.2360	18.4242	-5.87192	0	
1.2367	13.873	-3.43013	0	
1.2373	4.71571	-3.13944	0	
1.2380	-16.3405	-4.36034	0	
1.2387	-34.326	-3.77896	0	
1.2393	-29.1716	-4.36034	0	
1.2400	-8.38958	-6.22075	0	
1.2407	2.9062	-5.87192	0	
1.2413	2.57719	-3.43013	0	
1.2420	4.98988	-3.43013	0	
1.2427	8.66375	-5.29054	0	
1.2433	7.1284	-4.65103	0	
1.2440	3.50937	-2.84875	0	
1.2447	2.9062	-2.55806	0	
1.2453	4.38671	-2.20924	0	
1.2460	4.98988	-1.62786	0	
1.2467	2.9062	-3.77896	0	
1.2473	1.97402	-4.36034	0	
1.2480	3.18036	-1.62786	0	
1.2487	1.04184	-1.62786	0	
1.2493	-0.767674	-5.29054	0	
1.2500	4.11254	-4.99985	0	
1.2507	4.71571	-3.13944	0	
1.2513	-2.30302	-3.43013	0	
1.2520	-2.9062	-4.06965	0	
1.2527	3.50937	-5.29054	0	
1.2533	6.52523	-7.73233	0	
1.2540	8.38958	-5.29054	0	
1.2547	10.1991	-1.62786	0	
1.2553	8.99276	-4.06965	0	
1.2560	12.0086	-6.51144	0	
1.2567	20.2885	-6.22075	0	
1.2573	23.6334	-5.58123	0	
1.2580	21.1659	-3.43013	0	
1.2587	19.6854	-0.697654	0	
1.2593	18.4242	-2.84875	0	
1.2600	14.8051	-6.80212	0	
1.2607	9.92493	-4.65103	0	
1.2613	7.45741	-2.20924	0	
1.2620	9.26692	-5.58123	0	
1.2627	9.26692	-8.31371	0	
1.2633	5.31889	-5.29054	0	
1.2640	8.38958	-2.55806	0	
1.2647	21.1659	-3.43013	0	
1.2653	26.7041	-3.43013	0	
1.2660	15.0793	-2.20924	0	
1.2667	1.04184	-2.84875	0	
1.2673	-7.18324	-4.36034	0	
1.2680	-13.5988	-3.43013	0	
1.2687	-13.2698	-1.33717	0	
1.2693	-2.63203	-0.406965	0	
1.2700	-0.164502	-0.988343	0	
1.2707	-15.7373	-0.697654	0	
1.2713	-30.1038	2.03482	0	
1.2720	-33.1197	3.89523	0	
1.2727	-32.5165	2.03482	0	
1.2733	-26.4299	-0.406965	0	
1.2740	-15.4083	-1.33717	0	
1.2747	-8.11541	-1.91855	0	
1.2753	-6.90907	-2.84875	0	
1.2760	-7.78641	-1.62786	0	
1.2767	-9.04759	0.232551	0	
1.2773	-8.38958	-0.988343	0	
1.2780	-5.04472	-3.13944	0	
1.2787	3.18036	-0.697654	0	
1.2793	12.6666	1.10462	0	
1.2800	13.544	-1.33717	0	
1.2807	5.64789	-1.62786	0	
1.2813	-2.9062	1.74413	0	
1.2820	-9.32176	0.813929	0	
1.2827	-9.92493	-3.13944	0	
1.2833	-2.02885	-2.55806	0	
1.2840	1.04184	0.52324	0	
1.2847	-6.58006	0.52324	0	
1.2853	-8.11541	-1.62786	0	
1.2860	3.50937	-3.13944	0	
1.2867	15.6825	-2.55806	0	
1.2873	23.0302	-0.988343	0	
1.2880	23.9624	-0.697654	0	
1.2887	12.9408	1.45345	0	
1.2893	-0.767674	3.54641	0	
1.2900	-7.18324	0.232551	0	
1.2907	-20.0144	-2.20924	0	
1.2913	-43.2091	2.32551	0	
1.2920	-51.7632	5.98819	0	
1.2927	-36.4645	4.7673	0	
1.2933	-15.4083	3.89523	0	
1.2940	2.24819	3.89523	0	
1.2947	19.9595	3.89523	0	
1.2953	29.4458	4.7673	0	
1.2960	23.9624	4.7673	0	
1.2967	11.4054	3.89523	0	
1.2973	0.109668	3.89523	0	
1.2980	-9.65076	4.47661	0	
1.2987	-23.6882	5.69751	0	
1.2993	-34.655	5.11613	0	
1.3000	-27.3073	2.96503	0	
1.3007	-7.18324	3.25572	0	
1.3013	4.71571	6.62771	0	
1.3020	7.45741	5.98819	0	
1.3027	11.4054	3.54641	0	
1.3033	14.8051	3.89523	0	
1.3040	16.2857	5.11613	0	
1.3047	20.8917	3.89523	0	
1.3053	26.0461	4.18592	0	
1.3060	30.3231	5.11613	0	
1.3067	35.2033	2.96503	0	
1.3073	38.603	0.813929	0	
1.3080	36.1355	1.10462	0	
1.3087	18.15	0.813929	0	
1.3093	-19.0822	-1.33717	0	
1.3100	-52.0373	1.10462	0	
1.3107	-58.4529	5.69751	0	
1.3113	-48.0893	4.18592	0	
1.3120	-39.2611	0.52324	0	
1.3127	-32.5165	0.232551	0	
1.3133	-28.5684	-0.116276	0	
1.3140	-27.0331	1.45345	0	
1.3147	-20.2885	3.89523	0	
1.3153	-14.202	1.10462	0	
1.3160	-10.8571	-2.20924	0	
1.3167	-0.767674	0.232551	0	
1.3173	10.1991	2.67434	0	
1.3180	12.0086	1.45345	0	
1.3187	12.6666	1.10462	0	
1.3193	17.5468	1.45345	0	
1.3200	19.0274	0.52324	0	
1.3207	16.0115	0.232551	0	
1.3213	10.8023	1.74413	0	
1.3220	2.9062	3.25572	0	
1.3227	-1.09668	2.32551	0	
1.3233	2.9062	-0.697654	0	
1.3240	6.52523	-2.55806	0	
1.3247	7.45741	-3.43013	0	
1.3253	7.78641	-3.43013	0	
1.3260	2.9062	-1.62786	0	
1.3267	-5.37372	0.232551	0	
1.3273	-9.04759	1.10462	0	
1.3280	-8.11541	2.03482	0	
1.3287	-7.51224	2.03482	0	
1.3293	-5.64789	1.10462	0	
1.3300	2.9062	1.10462	0	
1.3307	15.0793	-0.697654	0	
1.3313	21.1659	-4.36034	0	
1.3320	16.2857	-6.22075	0	
1.3327	9.26692	-5.58123	0	
1.3333	8.06058	-2.55806	0	
1.3340	10.1991	0.813929	0	
1.3347	4.71571	-0.116276	0	
1.3353	-9.92493	-3.77896	0	
1.3360	-19.0822	-4.36034	0	
1.3367	-13.5988	-3.13944	0	
1.3373	-7.18324	-2.55806	0	
1.3380	-9.65076	-1.62786	0	
1.3387	-9.92493	-0.988343	0	
1.3393	-1.69985	0.232551	0	
1.3400	6.85423	0.232551	0	
1.3407	16.6147	-1.33717	0	
1.3413	32.1875	-2.84875	0	
1.3420	38.603	-2.84875	0	
1.3427	30.3231	-2.55806	0	
1.3433	26.7041	-2.55806	0	
1.3440	36.4645	-1.91855	0	
1.3447	38.603	-2.55806	0	
1.3453	22.4271	-2.55806	0	
1.3460	-1.69985	-2.20924	0	
1.3467	-25.4978	-1.91855	0	
1.3473	-41.6737	-2.55806	0	
1.3480	-44.7444	-4.06965	0	
1.3487	-45.3476	-4.36034	0	
1.3493	-54.779	-1.62786	0	
1.3500	-61.1946	-1.62786	0	
1.3507	-59.0561	-4.36034	0	
1.3513	-61.7978	-2.55806	0	
1.3520	-67.6102	1.45345	0	
1.3527	-56.3144	0.232551	0	
1.3533	-30.1038	-4.06965	0	
1.3540	-6.25106	-5.29054	0	
1.3547	11.1313	-4.06965	0	
1.3553	21.1659	-1.62786	0	
1.3560	19.3564	-0.988343	0	
1.3567	8.66375	-1.91855	0	
1.3573	1.04184	-2.84875	0	
1.3580	5.64789	-2.84875	0	
1.3587	17.5468	-1.62786	0	
1.3593	23.0302	0.232551	0	
1.3600	19.6854	-1.62786	0	
1.3607	16.2857	-5.29054	0	
1.3613	15.6825	-5.29054	0	
1.3620	15.4083	-1.62786	0	
1.3627	16.6147	-0.697654	0	
1.3633	18.4242	-1.62786	0	
1.3640	15.6825	-2.20924	0	
1.3647	11.4054	-1.33717	0	
1.3653	9.92493	-1.62786	0	
1.3660	9.26692	-1.91855	0	
1.3667	9.92493	-1.33717	0	
1.3673	11.4054	-1.62786	0	
1.3680	9.92493	-0.697654	0	
1.3687	7.78641	2.03482	0	
1.3693	11.1313	2.96503	0	
1.3700	13.873	0.232551	0	
1.3707	12.0086	0.232551	0	
1.3713	13.2698	1.10462	0	
1.3720	17.5468	0.232551	0	
1.3727	18.7532	1.74413	0	
1.3733	17.5468	3.89523	0	
1.3740	17.821	2.03482	0	
1.3747	18.4242	0.232551	0	
1.3753	15.0793	0.813929	0	
1.3760	7.1284	0.813929	0	
1.3767	0.767674	-1.33717	0	
1.3773	-1.69985	-1.91855	0	
1.3780	-6.90907	1.10462	0	
1.3787	-13.9278	3.89523	0	
1.3793	-9.04759	1.10462	0	
1.3800	3.78354	-2.84875	0	
1.3807	10.1991	-3.13944	0	
1.3813	13.873	-2.55806	0	
1.3820	16.0115	-1.62786	0	
1.3827	9.26692	-0.116276	0	
1.3833	1.04184	-0.697654	0	
1.3840	-0.767674	-0.988343	0	
1.3847	-4.44154	1.74413	0	
1.3853	-12.9956	1.10462	0	
1.3860	-20.9465	-2.55806	0	
1.3867	-29.1716	-1.62786	0	
1.3873	-35.2582	2.32551	0	
1.3880	-31.3101	2.03482	0	
1.3887	-25.4978	0.52324	0	
1.3893	-21.8239	1.74413	0	
1.3900	-10.2539	1.45345	0	
1.3907	6.52523	-1.62786	0	
1.3913	13.2698	-2.20924	0	
1.3920	12.3376	-0.697654	0	
1.3927	13.873	-1.62786	0	
1.3933	17.5468	-0.697654	0	
1.3940	20.2885	3.89523	0	
1.3947	25.4429	3.89523	0	
1.3953	32.1875	-0.406965	0	
1.3960	36.7387	1.74413	0	
1.3967	33.7228	4.7673	0	
1.3973	16.9437	2.03482	0	
1.3980	-9.92493	0.813929	0	
1.3987	-26.4299	2.32551	0	
1.3993	-24.8946	-0.116276	0	
1.4000	-21.8239	-3.43013	0	
1.4007	-24.8946	-2.20924	0	
1.4013	-22.7561	0.232551	0	
1.4020	-15.1341	0.52324	0	
1.4027	-9.32176	0.232551	0	
1.4033	-2.63203	0.232551	0	
1.4040	7.78641	0.813929	0	
1.4047	19.6854	1.10462	0	
1.4053	32.4617	1.10462	0	
1.4060	38.603	1.10462	0	
1.4067	28.5136	0.232551	0	
1.4073	8.06058	-1.62786	0	
1.4080	-7.78641	-1.91855	0	
1.4087	-20.9465	-0.988343	0	
1.4093	-46.554	1.10462	0	
1.4100	-75.8352	3.89523	0	
1.4107	-74.0257	4.7673	0	
1.4113	-47.4861	3.89523	0	
1.4120	-32.8455	3.89523	0	
1.4127	-27.3073	2.96503	0	
1.4133	-12.0635	2.67434	0	
1.4140	-2.02885	2.32551	0	
1.4147	-3.83837	0.232551	0	
1.4153	-0.767674	-0.697654	0	
1.4160	4.71571	1.45345	0	
1.4167	5.64789	0.813929	0	
1.4173	9.26692	-3.13944	0	
1.4180	7.45741	-0.988343	0	
1.4187	-7.51224	2.03482	0	
1.4193	-20.9465	-0.988343	0	
1.4200	-25.4978	-2.55806	0	
1.4207	-25.4978	0.52324	0	
1.4213	-17.8758	2.32551	0	
1.4220	-7.51224	2.03482	0	
1.4227	-5.04472	2.03482	0	
1.4233	-7.18324	2.96503	0	
1.4240	-9.65076	2.96503	0	
1.4247	-11.7893	2.03482	0	
1.4253	-11.4603	2.32551	0	
1.4260	-7.18324	3.89523	0	
1.4267	-0.767674	3.25572	0	
1.4273	7.45741	1.10462	0	
1.4280	10.8023	0.813929	0	
1.4287	9.92493	-0.116276	0	
1.4293	12.3376	0.232551	0	
1.4300	12.9408	3.54641	0	
1.4307	4.38671	3.89523	0	
1.4313	-2.63203	0.232551	0	
1.4320	1.04184	-0.697654	0	
1.4327	4.71571	0.52324	0	
1.4333	3.78354	0.813929	0	
1.4340	6.25106	0.813929	0	
1.4347	12.9408	-0.406965	0	
1.4353	15.6825	-0.697654	0	
1.4360	13.873	1.74413	0	
1.4367	11.1313	2.03482	0	
1.4373	8.06058	0.52324	0	
1.4380	7.1284	2.32551	0	
1.4387	12.6666	3.54641	0	
1.4393	19.3564	1.10462	0	
1.4400	22.0981	-0.406965	0	
1.4407	30.9811	-0.697654	0	
1.4413	48.9666	-0.697654	0	
1.4420	61.1946	0.232551	0	
1.4427	62.4009	-0.406965	0	
1.4433	55.9854	-1.62786	0	
1.4440	32.1875	-0.988343	0	
1.4447	-4.11254	-0.988343	0	
1.4453	-27.3073	-2.20924	0	
1.4460	-32.8455	-1.33717	0	
1.4467	-38.3289	-0.406965	0	
1.4473	-49.8988	0.232551	0	
1.4480	-62.1268	1.45345	0	
1.4487	-65.8006	0.813929	0	
1.4493	-55.7112	-1.91855	0	
1.4500	-40.7416	-2.55806	0	
1.4507	-29.7748	-3.77896	0	
1.4513	-20.9465	-6.51144	0	
1.4520	-16.3405	-7.09281	0	
1.4527	-13.9278	-6.22075	0	
1.4533	-8.38958	-5.29054	0	
1.4540	-5.37372	-3.43013	0	
1.4547	-4.44154	-4.06965	0	
1.4553	6.52523	-6.22075	0	
1.4560	22.7012	-4.36034	0	
1.4567	33.1197	-3.43013	0	
1.4573	48.6376	-6.22075	0	
1.4580	66.9522	-5.58123	0	
1.4587	64.8136	-2.55806	0	
1.4593	45.0186	-3.43013	0	
1.4600	26.3751	-2.55806	0	
1.4607	5.92206	1.10462	0	
1.4613	-21.8239	-0.697654	0	
1.4620	-42.8801	-3.43013	0	
1.4627	-44.7444	-0.406965	0	
1.4633	-37.9999	-0.697654	0	
1.4640	-37.3967	-4.65103	0	
1.4647	-36.7935	-4.06965	0	
1.4653	-24.5656	-2.84875	0	
1.4660	-8.71859	-5.58123	0	
1.4667	-2.30302	-3.43013	0	
1.4673	2.24819	1.74413	0	
1.4680	10.8023	0.232551	0	
1.4687	13.873	-2.55806	0	
1.4693	9.26692	-1.62786	0	
1.4700	2.9062	0.232551	0	
1.4707	-4.44154	1.45345	0	
1.4713	-7.51224	1.10462	0	
1.4720	-0.767674	-1.62786	0	
1.4727	4.11254	-0.988343	0	
1.4733	0.109668	2.96503	0	
1.4740	4.71571	3.89523	0	
1.4747	23.0302	-0.406965	0	
1.4753	36.4645	-1.91855	0	
1.4760	36.7387	-0.697654	0	
1.4767	26.9783	0.232551	0	
1.4773	10.1991	2.03482	0	
1.4780	1.97402	4.18592	0	
1.4787	7.78641	2.96503	0	
1.4793	6.52523	0.52324	0	
1.4800	-5.37372	1.45345	0	
1.4807	-2.63203	3.25572	0	
1.4813	12.9408	3.25572	0	
1.4820	16.6147	2.67434	0	
1.4827	10.1991	1.10462	0	
1.4833	10.1991	0.813929	0	
1.4840	13.544	2.03482	0	
1.4847	13.873	1.10462	0	
1.4853	14.1471	-1.62786	0	
1.4860	20.5627	-1.62786	0	
1.4867	27.3073	-0.697654	0	
1.4873	17.2178	-1.62786	0	
1.4880	-16.3405	-2.20924	0	
1.4887	-52.9695	-3.13944	0	
1.4893	-66.4038	-4.65103	0	
1.4900	-60.3173	-4.65103	0	
1.4907	-52.0373	-4.36034	0	
1.4913	-41.6737	-4.06965	0	
1.4920	-28.2394	-1.62786	0	
1.4927	-20.9465	-0.697654	0	
1.4933	-19.0822	-2.55806	0	
1.4940	-14.531	-2.20924	0	
1.4947	-8.71859	-0.697654	0	
1.4953	-5.97689	-2.55806	0	
1.4960	-1.69985	-3.13944	0	
1.4967	6.25106	-0.116276	0	
1.4973	11.4054	0.232551	0	
1.4980	9.92493	-2.84875	0	
1.4987	11.4054	-2.84875	0	
1.4993	20.2885	-0.697654	0	
1.5000	22.7012	-0.697654	0	
1.5007	22.7012	-1.91855	0	
1.5013	34.326	-2.55806	0	
1.5020	37.9999	-3.43013	0	
1.5027	13.2698	-4.36034	0	
1.5033	-12.6666	-2.84875	0	
1.5040	-17.8758	-0.988343	0	
1.5047	-20.9465	-1.91855	0	
1.5053	-35.5872	-3.13944	0	
1.5060	-48.3635	-1.91855	0	
1.5067	-42.6059	-0.697654	0	
1.5073	-17.8758	-0.988343	0	
1.5080	8.06058	-1.91855	0	
1.5087	20.5627	-1.62786	0	
1.5093	24.8397	-0.988343	0	
1.5100	29.4458	-1.62786	0	
1.5107	34.6002	-0.697654	0	
1.5113	37.6709	1.74413	0	
1.5120	35.5324	2.96503	0	
1.5127	28.5136	3.89523	0	
1.5133	19.9595	4.7673	0	
1.5140	12.0086	2.67434	0	
1.5147	4.98988	0.232551	0	
1.5153	-1.69985	2.32551	0	
1.5160	-4.77055	3.89523	0	
1.5167	0.109668	1.45345	0	
1.5173	9.26692	2.32551	0	
1.5180	16.0115	5.69751	0	
1.5187	23.3044	2.96503	0	
1.5193	31.5843	-0.697654	0	
1.5200	36.7387	0.52324	0	
1.5207	41.9479	2.67434	0	
1.5213	43.1543	3.54641	0	
1.5220	24.5656	5.11613	0	
1.5227	-7.51224	5.40682	0	
1.5233	-29.7748	3.89523	0	
1.5240	-39.5352	2.67434	0	
1.5247	-48.3635	2.03482	0	
1.5253	-51.16	2.32551	0	
1.5260	-36.7935	2.96503	0	
1.5267	-9.92493	2.03482	0	
1.5273	10.8023	2.96503	0	
1.5280	18.4242	3.54641	0	
1.5287	24.5656	1.74413	0	
1.5293	35.2033	1.10462	0	
1.5300	36.7387	3.54641	0	
1.5307	21.8239	4.47661	0	
1.5313	4.71571	5.69751	0	
1.5320	-3.50937	7.84861	0	
1.5327	-12.9956	5.98819	0	
1.5333	-31.9133	3.25572	0	
1.5340	-47.4861	3.25572	0	
1.5347	-47.7603	3.25572	0	
1.5353	-37.1225	3.89523	0	
1.5360	-23.6882	5.98819	0	
1.5367	-13.2698	6.33702	0	
1.5373	-9.32176	3.89523	0	
1.5380	-8.71859	0.813929	0	
1.5387	-4.44154	0.52324	0	
1.5393	1.37085	3.54641	0	
1.5400	5.31889	4.47661	0	
1.5407	8.66375	1.45345	0	
1.5413	11.1313	1.74413	0	
1.5420	9.92493	3.54641	0	
1.5427	5.92206	2.67434	0	
1.5433	1.97402	2.96503	0	
1.5440	-1.69985	5.98819	0	
1.5447	-4.44154	4.7673	0	
1.5453	-8.11541	1.10462	0	
1.5460	-8.11541	1.74413	0	
1.5467	-1.37085	3.89523	0	
1.5473	4.11254	4.7673	0	
1.5480	2.9062	2.96503	0	
1.5487	11.1313	-0.406965	0	
1.5493	29.4458	-0.988343	0	
1.5500	33.997	-0.697654	0	
1.5507	24.8397	-3.43013	0	
1.5513	24.5656	-4.36034	0	
1.5520	26.7041	-0.697654	0	
1.5527	17.5468	-1.33717	0	
1.5533	9.92493	-3.77896	0	
1.5540	9.59593	-1.33717	0	
1.5547	0.438671	0.232551	0	
1.5553	-24.5656	-3.43013	0	
1.5560	-47.4861	-3.43013	0	
1.5567	-46.554	-0.406965	0	
1.5573	-26.7041	-2.20924	0	
1.5580	-15.1341	-3.77896	0	
1.5587	-16.3405	-0.988343	0	
1.5593	-15.1341	-0.116276	0	
1.5600	-10.2539	-2.20924	0	
1.5607	-1.69985	-2.55806	0	
1.5613	17.5468	-1.62786	0	
1.5620	37.0677	-1.91855	0	
1.5627	41.3447	-2.55806	0	
1.5633	33.1197	-1.91855	0	
1.5640	20.2885	-1.33717	0	
1.5647	9.26692	-1.62786	0	
1.5653	2.9062	-3.13944	0	
1.5660	-8.11541	-2.84875	0	
1.5667	-20.9465	-1.91855	0	
1.5673	-23.0851	-1.91855	0	
1.5680	-15.4083	-1.62786	0	
1.5687	-4.44154	-2.20924	0	
1.5693	8.99276	-2.84875	0	
1.5700	14.4761	-1.62786	0	
1.5707	-2.9062	-1.33717	0	
1.5713	-32.2423	-5.29054	0	
1.5720	-45.0186	-7.73233	0	
1.5727	-40.1384	-3.77896	0	
1.5733	-40.7416	-0.697654	0	
1.5740	-49.6247	-3.13944	0	
1.5747	-46.554	-4.36034	0	
1.5753	-29.4458	-1.33717	0	
1.5760	-15.7373	0.52324	0	
1.5767	-5.64789	-2.55806	0	
1.5773	12.9408	-3.77896	0	
1.5780	32.4617	-0.697654	0	
1.5787	33.3938	-0.116276	0	
1.5793	18.4242	-2.84875	0	
1.5800	5.64789	-3.43013	0	
1.5807	1.97402	-1.91855	0	
1.5813	-0.164502	-1.91855	0	
1.5820	-6.25106	-1.62786	0	
1.5827	-11.7893	-0.697654	0	
1.5833	-10.8571	-0.697654	0	
1.5840	-7.51224	-1.62786	0	
1.5847	-8.38958	-1.62786	0	
1.5853	-10.2539	0.232551	0	
1.5860	-8.11541	0.232551	0	
1.5867	-5.04472	-2.55806	0	
1.5873	-3.50937	-2.55806	0	
1.5880	-3.50937	2.03482	0	
1.5887	-5.04472	3.54641	0	
1.5893	-3.83837	1.45345	0	
1.5900	1.04184	2.67434	0	
1.5907	9.26692	4.18592	0	
1.5913	24.5656	1.45345	0	
1.5920	45.0186	-1.91855	0	
1.5927	57.5207	-3.43013	0	
1.5933	55.3822	-2.55806	0	
1.5940	43.7574	-0.697654	0	
1.5947	26.7041	-0.116276	0	
1.5953	4.98988	0.813929	0	
1.5960	-19.0822	1.10462	0	
1.5967	-30.378	-0.697654	0	
1.5973	-20.0144	-0.697654	0	
1.5980	-5.37372	1.45345	0	
1.5987	-2.30302	0.232551	0	
1.5993	-3.2352	-1.91855	0	
1.6000	0.109668	-0.697654	0	
1.6007	2.9062	-1.33717	0	
1.6013	2.9062	-3.43013	0	
1.6020	-2.9062	-2.55806	0	
1.6027	-10.2539	-0.697654	0	
1.6033	-9.92493	0.232551	0	
1.6040	-5.37372	0.232551	0	
1.6047	0.767674	-1.62786	0	
1.6053	17.2178	-3.77896	0	
1.6060	36.7387	-3.77896	0	
1.6067	48.3635	-3.13944	0	
1.6073	55.9854	-2.55806	0	
1.6080	52.3115	-1.62786	0	
1.6087	26.7041	-0.697654	0	
1.6093	-4.44154	-1.33717	0	
1.6100	-21.5497	-4.06965	0	
1.6107	-27.0331	-5.29054	0	
1.6113	-20.6175	-2.20924	0	
1.6120	-0.493505	-0.406965	0	
1.6127	19.3564	-1.62786	0	
1.6133	20.8917	-0.697654	0	
1.6140	1.64502	1.10462	0	
1.6147	-20.9465	-0.116276	0	
1.6153	-32.2423	-0.697654	0	
1.6160	-41.0706	1.10462	0	
1.6167	-52.3663	0.813929	0	
1.6173	-45.9508	-0.697654	0	
1.6180	-19.6854	-0.988343	0	
1.6187	2.57719	-0.988343	0	
1.6193	5.64789	-0.406965	0	
1.6200	-5.37372	0.232551	0	
1.6207	-16.3405	-0.116276	0	
1.6213	-16.6695	-0.116276	0	
1.6220	-12.6666	0.52324	0	
1.6227	-15.1341	0.813929	0	
1.6233	-21.5497	-0.406965	0	
1.6240	-24.5656	-3.43013	0	
1.6247	-21.2207	-4.36034	0	
1.6253	-13.5988	1.10462	0	
1.6260	-7.18324	2.96503	0	
1.6267	-3.2352	-1.62786	0	
1.6273	1.97402	-2.84875	0	
1.6280	3.78354	0.813929	0	
1.6287	-1.09668	-1.33717	0	
1.6293	-5.37372	-7.09281	0	
1.6300	-6.25106	-6.22075	0	
1.6307	-4.77055	-1.62786	0	
1.6313	1.97402	-1.62786	0	
1.6320	8.06058	-4.36034	0	
1.6327	6.52523	-6.22075	0	
1.6333	5.64789	-6.22075	0	
1.6340	11.4054	-2.55806	0	
1.6347	19.3564	-0.116276	0	
1.6353	32.4617	-1.62786	0	
1.6360	50.173	-2.84875	0	
1.6367	55.6564	-2.55806	0	
1.6373	42.8801	-2.20924	0	
1.6380	26.7041	-1.91855	0	
1.6387	12.0086	-2.20924	0	
1.6393	-9.92493	-3.13944	0	
1.6400	-27.9653	-1.62786	0	
1.6407	-27.9653	1.10462	0	
1.6413	-17.2727	2.96503	0	
1.6420	-9.32176	2.96503	0	
1.6427	-6.25106	2.03482	0	
1.6433	-7.51224	-1.62786	0	
1.6440	-6.25106	-2.84875	0	
1.6447	6.52523	0.813929	0	
1.6453	17.5468	3.89523	0	
1.6460	14.8051	2.32551	0	
1.6467	12.0086	-0.116276	0	
1.6473	18.4242	-0.116276	0	
1.6480	23.9624	1.10462	0	
1.6487	30.3231	-0.116276	0	
1.6493	38.274	-1.91855	0	
1.6500	35.2033	-2.20924	0	
1.6507	25.1687	-1.62786	0	
1.6513	11.4054	-3.43013	0	
1.6520	-10.2539	-4.65103	0	
1.6527	-22.1529	-1.62786	0	
1.6533	-13.5988	0.52324	0	
1.6540	-8.11541	-2.55806	0	
1.6547	-11.7893	-3.77896	0	
1.6553	-10.8571	0.813929	0	
1.6560	-10.8571	1.74413	0	
1.6567	-15.4083	-0.988343	0	
1.6573	-20.2885	-0.697654	0	
1.6580	-31.9133	-1.62786	0	
1.6587	-40.1384	-4.65103	0	
1.6593	-32.2423	-4.06965	0	
1.6600	-21.2207	-2.84875	0	
1.6607	-16.3405	-4.65103	0	
1.6613	-9.04759	-3.43013	0	
1.6620	-4.44154	-1.33717	0	
1.6627	-7.18324	-3.43013	0	
1.6633	-6.58006	-4.99985	0	
1.6640	-0.493505	-1.62786	0	
1.6647	3.50937	-0.697654	0	
1.6653	2.9062	-2.84875	0	
1.6660	1.04184	-1.62786	0	
1.6667	1.04184	0.52324	0	
1.6673	-0.164502	-0.697654	0	
1.6680	-8.38958	-3.43013	0	
1.6687	-21.5497	-3.43013	0	
1.6693	-28.5684	-1.62786	0	
1.6700	-27.6363	-0.116276	0	
1.6707	-22.4271	1.10462	0	
1.6713	-10.8571	1.74413	0	
1.6720	11.7344	0.232551	0	
1.6727	37.6709	-0.697654	0	
1.6733	55.0532	1.10462	0	
1.6740	56.9176	2.03482	0	
1.6747	41.6189	0.52324	0	
1.6753	17.821	0.813929	0	
1.6760	-3.50937	2.03482	0	
1.6767	-22.4271	2.03482	0	
1.6773	-39.2611	1.10462	0	
1.6780	-38.603	1.10462	0	
1.6787	-22.7561	2.67434	0	
1.6793	-16.3405	2.67434	0	
1.6800	-20.2885	2.03482	0	
1.6807	-18.808	2.96503	0	
1.6813	-15.4083	3.25572	0	
1.6820	-15.1341	2.03482	0	
1.6827	-7.18324	4.7673	0	
1.6833	2.24819	8.13929	0	
1.6840	3.18036	5.69751	0	
1.6847	2.57719	3.25572	0	
1.6853	6.25106	5.11613	0	
1.6860	8.38958	5.69751	0	
1.6867	4.71571	3.89523	0	
1.6873	-1.69985	3.54641	0	
1.6880	-4.44154	2.96503	0	
1.6887	-3.83837	1.45345	0	
1.6893	-1.69985	0.52324	0	
1.6900	6.52523	1.45345	0	
1.6907	18.15	3.89523	0	
1.6913	26.7041	4.7673	0	
1.6920	31.5843	3.89523	0	
1.6927	18.4242	5.11613	0	
1.6933	-17.2727	5.69751	0	
1.6940	-38.603	3.54641	0	
1.6947	-25.8268	2.32551	0	
1.6953	-6.25106	3.89523	0	
1.6960	0.109668	4.47661	0	
1.6967	-2.30302	5.40682	0	
1.6973	-12.3925	4.7673	0	
1.6980	-21.8239	1.10462	0	
1.6987	-26.4299	0.232551	0	
1.6993	-34.326	4.18592	0	
1.7000	-32.8455	5.98819	0	
1.7007	-4.77055	3.54641	0	
1.7013	29.1168	0.232551	0	
1.7020	38.603	2.03482	0	
1.7027	27.9104	7.20909	0	
1.7033	16.9437	5.98819	0	
1.7040	12.9408	1.74413	0	
1.7047	7.45741	2.67434	0	
1.7053	-3.50937	4.47661	0	
1.7060	-12.3925	2.03482	0	
1.7067	-19.6854	1.10462	0	
1.7073	-25.8268	1.74413	0	
1.7080	-16.6695	0.813929	0	
1.7087	5.64789	0.52324	0	
1.7093	16.2857	0.813929	0	
1.7100	8.38958	0.232551	0	
1.7107	-2.30302	-0.697654	0	
1.7113	-5.37372	-0.116276	0	
1.7120	-4.77055	1.74413	0	
1.7127	-7.78641	2.03482	0	
1.7133	-5.64789	-1.62786	0	
1.7140	12.0086	-3.43013	0	
1.7147	27.9104	-0.406965	0	
1.7153	22.0981	1.10462	0	
1.7160	9.59593	-0.116276	0	
1.7167	6.85423	-0.116276	0	
1.7173	8.99276	-1.62786	0	
1.7180	14.1471	-2.55806	0	
1.7187	26.3751	0.232551	0	
1.7193	40.4126	-0.116276	0	
1.7200	52.6405	-4.06965	0	
1.7207	67.8843	-3.77896	0	
1.7213	86.1989	-0.116276	0	
1.7220	84.6635	1.10462	0	
1.7227	37.0677	0.52324	0	
1.7233	-28.5684	0.232551	0	
1.7240	-56.6434	-0.697654	0	
1.7247	-55.3822	-1.62786	0	
1.7253	-61.5236	-0.116276	0	
1.7260	-66.0748	1.74413	0	
1.7267	-52.3663	1.74413	0	
1.7273	-35.5872	0.52324	0	
1.7280	-24.8946	0.232551	0	
1.7287	-18.808	-0.697654	0	
1.7293	-22.7561	-2.55806	0	
1.7300	-30.9811	-2.55806	0	
1.7307	-30.707	-0.406965	0	
1.7313	-20.0144	0.232551	0	
1.7320	-9.04759	-0.697654	0	
1.7327	-5.97689	-0.697654	0	
1.7333	-9.92493	-1.62786	0	
1.7340	-8.11541	-4.36034	0	
1.7347	2.24819	-4.06965	0	
1.7353	12.0086	-2.55806	0	
1.7360	17.821	-4.06965	0	
1.7367	21.4949	-5.58123	0	
1.7373	19.6854	-4.36034	0	
1.7380	9.59593	-2.20924	0	
1.7387	-4.44154	-1.91855	0	
1.7393	-12.6666	-2.55806	0	
1.7400	-6.90907	-1.33717	0	
1.7407	9.92493	0.813929	0	
1.7413	25.1687	0.52324	0	
1.7420	33.1197	0.813929	0	
1.7427	30.6521	2.03482	0	
1.7433	16.9437	1.10462	0	
1.7440	5.31889	0.232551	0	
1.7447	5.92206	2.03482	0	
1.7453	2.9062	1.74413	0	
1.7460	-12.6666	-1.62786	0	
1.7467	-20.9465	-2.55806	0	
1.7473	-14.531	-1.62786	0	
1.7480	-9.32176	-1.62786	0	
1.7487	-8.11541	-0.988343	0	
1.7493	-0.767674	0.52324	0	
1.7500	9.26692	-0.116276	0	
1.7507	14.4761	-2.55806	0	
1.7513	17.821	-1.62786	0	
1.7520	21.1659	0.232551	0	
1.7527	20.2885	-0.116276	0	
1.7533	13.544	0.232551	0	
1.7540	7.45741	2.32551	0	
1.7547	7.78641	1.10462	0	
1.7553	13.544	-2.20924	0	
1.7560	23.0302	-2.55806	0	
1.7567	34.6002	-2.55806	0	
1.7573	41.9479	-2.84875	0	
1.7580	40.7416	-1.33717	0	
1.7587	34.9292	-0.697654	0	
1.7593	17.5468	-1.33717	0	
1.7600	-27.3073	0.232551	0	
1.7607	-77.0964	1.10462	0	
1.7613	-85.3215	-0.697654	0	
1.7620	-56.9176	-1.62786	0	
1.7627	-34.984	-0.116276	0	
1.7633	-27.6363	-0.406965	0	
1.7640	-20.9465	-0.697654	0	
1.7647	-17.8758	-1.62786	0	
1.7653	-20.0144	-4.36034	0	
1.7660	-17.2727	-3.43013	0	
1.7667	-13.2698	0.232551	0	
1.7673	-16.6695	-1.62786	0	
1.7680	-22.1529	-3.77896	0	
1.7687	-17.5468	-1.33717	0	
1.7693	-5.37372	-1.33717	0	
1.7700	1.97402	-3.77896	0	
1.7707	6.25106	-0.697654	0	
1.7713	15.6825	3.54641	0	
1.7720	24.2366	2.03482	0	
1.7727	23.9624	-0.116276	0	
1.7733	13.873	0.232551	0	
1.7740	-3.83837	-0.697654	0	
1.7747	-19.4112	-1.33717	0	
1.7753	-19.0822	1.10462	0	
1.7760	-6.25106	4.18592	0	
1.7767	5.31889	4.18592	0	
1.7773	12.9408	2.67434	0	
1.7780	15.4083	2.03482	0	
1.7787	9.92493	2.03482	0	
1.7793	4.98988	2.03482	0	
1.7800	3.78354	3.89523	0	
1.7807	-2.9062	2.32551	0	
1.7813	-16.9437	-1.91855	0	
1.7820	-26.7041	-0.988343	0	
1.7827	-26.7041	1.74413	0	
1.7833	-17.5468	-1.91855	0	
1.7840	-1.69985	-5.29054	0	
1.7847	15.6825	-3.43013	0	
1.7853	30.3231	-3.13944	0	
1.7860	41.0157	-4.99985	0	
1.7867	41.3447	-2.20924	0	
1.7873	30.6521	0.232551	0	
1.7880	24.8397	-3.13944	0	
1.7887	28.1846	-4.36034	0	
1.7893	22.0981	-0.988343	0	
1.7900	5.31889	-0.988343	0	
1.7907	-5.97689	-3.43013	0	
1.7913	-12.9956	-2.55806	0	
1.7920	-19.6854	-2.55806	0	
1.7927	-13.5988	-5.29054	0	
1.7933	-4.44154	-3.43013	0	
1.7940	-10.5281	1.10462	0	
1.7947	-18.15	0.232551	0	
1.7953	-18.15	-2.55806	0	
1.7960	-25.4978	-0.988343	0	
1.7967	-34.655	1.45345	0	
1.7973	-31.9133	1.45345	0	
1.7980	-24.2914	1.10462	0	
1.7987	-20.2885	0.232551	0	
1.7993	-17.8758	-2.20924	0	
1.8000	-15.7373	-2.20924	0	
1.8007	-10.8571	1.10462	0	
1.8013	-5.04472	-0.697654	0	
1.8020	-3.50937	-4.36034	0	
1.8027	3.50937	-2.20924	0	
1.8033	18.7532	-0.116276	0	
1.8040	29.4458	-2.84875	0	
1.8047	37.6709	-3.43013	0	
1.8053	52.6405	-2.55806	0	
1.8060	63.6073	-2.55806	0	
1.8067	61.4688	0.232551	0	
1.8073	47.7603	2.96503	0	
1.8080	15.4083	1.74413	0	
1.8087	-32.2423	2.03482	0	
1.8093	-66.678	3.25572	0	
1.8100	-66.4038	3.25572	0	
1.8107	-39.5352	5.11613	0	
1.8113	-17.8758	4.47661	0	
1.8120	-14.202	0.232551	0	
1.8127	-12.6666	2.67434	0	
1.8133	-4.11254	8.42998	0	
1.8140	0.438671	7.20909	0	
1.8147	-1.69985	4.18592	0	
1.8153	-3.50937	2.03482	0	
1.8160	-3.50937	-1.62786	0	
1.8167	1.64502	-0.697654	0	
1.8173	7.45741	4.47661	0	
1.8180	0.438671	4.7673	0	
1.8187	-12.6666	1.74413	0	
1.8193	-9.92493	0.813929	0	
1.8200	6.25106	1.74413	0	
1.8207	17.821	2.96503	0	
1.8213	15.6825	3.89523	0	
1.8220	4.98988	4.47661	0	
1.8227	0.109668	3.89523	0	
1.8233	10.1991	2.96503	0	
1.8240	22.0981	2.67434	0	
1.8247	24.2366	2.03482	0	
1.8253	25.1687	-0.697654	0	
1.8260	34.9292	-1.62786	0	
1.8267	46.8281	-0.406965	0	
1.8273	48.6376	-0.406965	0	
1.8280	33.997	0.52324	0	
1.8287	6.25106	1.10462	0	
1.8293	-20.9465	-3.77896	0	
1.8300	-37.3967	-7.09281	0	
1.8307	-49.0215	-3.13944	0	
1.8313	-57.5207	-2.84875	0	
1.8320	-49.2957	-6.22075	0	
1.8327	-25.4978	-3.77896	0	
1.8333	-4.11254	-1.62786	0	
1.8340	8.06058	-2.84875	0	
1.8347	13.873	-1.62786	0	
1.8353	14.1471	-2.55806	0	
1.8360	12.9408	-6.22075	0	
1.8367	12.6666	-2.84875	0	
1.8373	9.59593	0.52324	0	
1.8380	4.98988	-2.20924	0	
1.8387	3.78354	-1.91855	0	
1.8393	2.9062	0.232551	0	
1.8400	4.38671	-0.697654	0	
1.8407	16.2857	-0.406965	0	
1.8413	33.1197	0.232551	0	
1.8420	40.4126	-3.13944	0	
1.8427	30.6521	-3.43013	0	
1.8433	5.31889	-1.62786	0	
1.8440	-24.2914	-3.43013	0	
1.8447	-40.4674	-3.43013	0	
1.8453	-42.0027	-2.55806	0	
1.8460	-40.4674	-4.36034	0	
1.8467	-40.7416	-4.06965	0	
1.8473	-34.655	-1.91855	0	
1.8480	-20.0144	-4.06965	0	
1.8487	-6.90907	-4.65103	0	
1.8493	-0.767674	-1.33717	0	
1.8500	7.45741	-0.406965	0	
1.8507	21.4949	-0.988343	0	
1.8513	27.9104	1.10462	0	
1.8520	19.9595	0.52324	0	
1.8527	11.1313	-2.55806	0	
1.8533	4.98988	-2.84875	0	
1.8540	-11.7893	-2.55806	0	
1.8547	-33.7228	-2.55806	0	
1.8553	-37.3967	-2.20924	0	
1.8560	-26.7041	-2.84875	0	
1.8567	-19.4112	-2.55806	0	
1.8573	-12.3925	1.45345	0	
1.8580	-0.767674	3.89523	0	
1.8587	0.438671	2.96503	0	
1.8593	-9.92493	2.67434	0	
1.8600	-12.9956	2.67434	0	
1.8607	-8.71859	1.45345	0	
1.8613	-8.11541	1.10462	0	
1.8620	-7.18324	1.74413	0	
1.8627	-5.97689	1.74413	0	
1.8633	-9.04759	1.74413	0	
1.8640	-5.97689	2.03482	0	
1.8647	8.99276	1.45345	0	
1.8653	16.0115	0.52324	0	
1.8660	7.45741	0.52324	0	
1.8667	0.438671	0.52324	0	
1.8673	3.78354	-1.33717	0	
1.8680	12.9408	-3.43013	0	
1.8687	34.6002	-2.20924	0	
1.8693	64.2105	-0.988343	0	
1.8700	78.8511	-1.62786	0	
1.8707	67.5553	-0.116276	0	
1.8713	42.2221	2.96503	0	
1.8720	18.7532	3.25572	0	
1.8727	13.544	2.67434	0	
1.8733	21.1659	3.89523	0	
1.8740	12.9408	3.54641	0	
1.8747	-6.25106	1.45345	0	
1.8753	-7.51224	0.813929	0	
1.8760	-5.37372	0.813929	0	
1.8767	-18.479	0.813929	0	
1.8773	-26.7041	2.03482	0	
1.8780	-20.6175	2.96503	0	
1.8787	-18.15	2.96503	0	
1.8793	-17.2727	2.96503	0	
1.8800	-9.04759	1.10462	0	
1.8807	-2.63203	-1.91855	0	
1.8813	-2.02885	-2.20924	0	
1.8820	-1.69985	-0.697654	0	
1.8827	-2.02885	-0.116276	0	
1.8833	-1.69985	-0.116276	0	
1.8840	-1.09668	-0.988343	0	
1.8847	-2.02885	-1.91855	0	
1.8853	-0.493505	0.232551	0	
1.8860	2.24819	3.25572	0	
1.8867	-0.767674	2.32551	0	
1.8873	-6.25106	0.232551	0	
1.8880	-7.18324	2.03482	0	
1.8887	-5.97689	3.54641	0	
1.8893	-6.25106	0.52324	0	
1.8900	-8.11541	-0.697654	0	
1.8907	-6.25106	1.10462	0	
1.8913	-0.493505	0.52324	0	
1.8920	6.52523	0.232551	0	
1.8927	15.0793	1.10462	0	
1.8933	35.8614	-0.697654	0	
1.8940	63.9363	-1.62786	0	
1.8947	78.8511	0.52324	0	
1.8953	71.2292	-0.116276	0	
1.8960	52.3115	-0.697654	0	
1.8967	29.72	2.03482	0	
1.8973	2.9062	2.96503	0	
1.8980	-27.3073	2.03482	0	
1.8987	-45.6218	2.96503	0	
1.8993	-45.3476	2.32551	0	
1.9000	-37.3967	2.67434	0	
1.9007	-36.4645	4.7673	0	
1.9013	-38.603	2.96503	0	
1.9020	-36.4645	-1.33717	0	
1.9027	-28.5684	-0.697654	0	
1.9033	-22.1529	0.232551	0	
1.9040	-22.1529	-1.33717	0	
1.9047	-21.8239	0.52324	0	
1.9053	-12.6666	2.03482	0	
1.9060	-2.02885	0.813929	0	
1.9067	-0.493505	-0.116276	0	
1.9073	-3.50937	-2.55806	0	
1.9080	-1.69985	-5.87192	0	
1.9087	8.06058	-4.36034	0	
1.9093	23.3044	-1.62786	0	
1.9100	38.8772	-3.43013	0	
1.9107	47.4313	-4.65103	0	
1.9113	40.7416	-0.988343	0	
1.9120	17.5468	0.813929	0	
1.9127	-7.78641	-1.91855	0	
1.9133	-16.9437	-1.91855	0	
1.9140	-15.1341	0.232551	0	
1.9147	-12.6666	-0.697654	0	
1.9153	-3.83837	-3.43013	0	
1.9160	12.0086	-4.06965	0	
1.9167	13.873	-2.20924	0	
1.9173	-1.69985	-0.406965	0	
1.9180	-10.8571	-1.62786	0	
1.9187	-7.18324	-4.99985	0	
1.9193	-10.5281	-4.36034	0	
1.9200	-27.9653	-0.116276	0	
1.9207	-40.1384	0.52324	0	
1.9213	-35.2582	-1.91855	0	
1.9220	-20.2885	-2.55806	0	
1.9227	-3.2352	-2.20924	0	
1.9233	11.1313	-2.20924	0	
1.9240	17.5468	-1.33717	0	
1.9247	19.3564	-0.697654	0	
1.9253	21.1659	-0.697654	0	
1.9260	21.1659	-0.116276	0	
1.9267	15.0793	-1.62786	0	
1.9273	6.52523	-2.84875	0	
1.9280	-0.164502	-2.55806	0	
1.9287	-4.77055	-1.91855	0	
1.9293	-12.0635	-0.697654	0	
1.9300	-22.7561	0.813929	0	
1.9307	-25.8268	-1.33717	0	
1.9313	-17.5468	-4.36034	0	
1.9320	-7.18324	-3.43013	0	
1.9327	-0.767674	-1.62786	0	
1.9333	3.50937	-3.13944	0	
1.9340	4.11254	-2.55806	0	
1.9347	1.37085	0.232551	0	
1.9353	1.97402	0.232551	0	
1.9360	7.45741	-1.62786	0	
1.9367	13.873	-1.62786	0	
1.9373	15.6825	-2.55806	0	
1.9380	13.873	-1.91855	0	
1.9387	13.873	-0.116276	0	
1.9393	19.9595	-0.697654	0	
1.9400	26.0461	-3.13944	0	
1.9407	24.5656	-2.55806	0	
1.9413	26.7041	-2.55806	0	
1.9420	40.1384	-4.36034	0	
1.9427	47.7603	-3.43013	0	
1.9433	39.4804	-2.84875	0	
1.9440	26.7041	-5.29054	0	
1.9447	10.8023	-5.87192	0	
1.9453	-14.531	-4.36034	0	
1.9460	-41.3447	-6.22075	0	
1.9467	-58.4529	-7.73233	0	
1.9473	-56.6434	-4.36034	0	
1.9480	-38.603	-0.988343	0	
1.9487	-22.4271	-1.33717	0	
1.9493	-14.531	-1.62786	0	
1.9500	-9.04759	-1.62786	0	
1.9507	-7.78641	-1.62786	0	
1.9513	-12.6666	-2.20924	0	
1.9520	-11.7893	-2.55806	0	
1.9527	-5.37372	-2.55806	0	
1.9533	-3.2352	-0.988343	0	
1.9540	-4.44154	-0.697654	0	
1.9547	-5.04472	1.74413	0	
1.9553	-5.04472	4.7673	0	
1.9560	-5.04472	1.10462	0	
1.9567	-5.37372	-3.77896	0	
1.9573	-5.04472	-0.697654	0	
1.9580	-2.63203	2.03482	0	
1.9587	2.9062	-0.697654	0	
1.9593	11.1313	-0.697654	0	
1.9600	22.4271	1.74413	0	
1.9607	34.6002	-0.116276	0	
1.9613	45.6218	0.232551	0	
1.9620	45.2928	2.03482	0	
1.9627	25.1687	-0.697654	0	
1.9633	-0.767674	-2.55806	0	
1.9640	-14.8051	2.96503	0	
1.9647	-25.4978	5.69751	0	
1.9653	-35.8614	2.03482	0	
1.9660	-29.4458	1.10462	0	
1.9667	-13.5988	2.32551	0	
1.9673	-11.4603	0.52324	0	
1.9680	-12.9956	-1.62786	0	
1.9687	1.97402	-0.116276	0	
1.9693	21.1659	2.03482	0	
1.9700	27.5814	0.52324	0	
1.9707	28.1846	0.232551	0	
1.9713	34.9292	2.96503	0	
1.9720	45.2928	3.89523	0	
1.9727	39.8094	2.03482	0	
1.9733	3.78354	2.03482	0	
1.9740	-38.603	3.89523	0	
1.9747	-54.5049	3.25572	0	
1.9753	-58.1787	2.03482	0	
1.9760	-72.8194	2.67434	0	
1.9767	-79.2349	2.96503	0	
1.9773	-63.059	2.67434	0	
1.9780	-42.0027	3.89523	0	
1.9787	-27.6363	5.98819	0	
1.9793	-16.3405	6.62771	0	
1.9800	-9.65076	6.33702	0	
1.9807	-6.90907	4.47661	0	
1.9813	-7.18324	1.10462	0	
1.9820	-8.71859	0.232551	0	
1.9827	-3.83837	2.32551	0	
1.9833	3.50937	1.74413	0	
1.9840	-0.767674	-0.406965	0	
1.9847	-9.32176	0.52324	0	
1.9853	-5.64789	1.45345	0	
1.9860	5.64789	0.52324	0	
1.9867	16.6147	1.10462	0	
1.9873	30.6521	2.03482	0	
1.9880	47.4313	1.10462	0	
1.9887	55.0532	0.232551	0	
1.9893	45.896	-1.33717	0	
1.9900	27.9104	-3.43013	0	
1.9907	8.66375	-3.43013	0	
1.9913	-16.3405	-1.62786	0	
1.9920	-38.9321	-0.406965	0	
1.9927	-37.3967	0.813929	0	
1.9933	-15.4083	0.813929	0	
1.9940	1.04184	-0.697654	0	
1.9947	5.31889	-2.20924	0	
1.9953	7.1284	-2.20924	0	
1.9960	8.38958	-1.62786	0	
1.9967	7.45741	-0.988343	0	
1.9973	3.78354	-2.84875	0	
1.9980	-5.37372	-4.36034	0	
1.9987	-14.8051	-3.13944	0	
1.9993	-16.6695	-3.43013	0	
2.0000	-12.0635	-4.99985	0	
2.0007	-4.44154	-2.84875	0	
2.0013	6.52523	-0.697654	0	
2.0020	19.0274	-1.33717	0	
2.0027	26.7041	-1.33717	0	
2.0033	29.4458	-2.20924	0	
2.0040	21.1659	-6.22075	0	
2.0047	-3.2352	-6.80212	0	
2.0053	-27.3073	-4.06965	0	
2.0060	-32.8455	-5.29054	0	
2.0067	-27.9653	-6.22075	0	
2.0073	-24.2914	-4.36034	0	
2.0080	-13.9278	-5.29054	0	
2.0087	1.97402	-7.09281	0	
2.0093	12.0086	-5.29054	0	
2.0100	16.6147	-3.43013	0	
2.0107	18.15	-4.36034	0	
2.0113	12.3376	-5.29054	0	
2.0120	4.71571	-6.22075	0	
2.0127	1.04184	-6.22075	0	
2.0133	-1.37085	-4.99985	0	
2.0140	-6.25106	-5.29054	0	
2.0147	-18.808	-4.06965	0	
2.0153	-36.7935	-0.116276	0	
2.0160	-42.6059	0.232551	0	
2.0167	-27.9653	-0.697654	0	
2.0173	-7.18324	0.232551	0	
2.0180	9.59593	0.232551	0	
2.0187	19.9595	-2.55806	0	
2.0193	19.3564	-4.99985	0	
2.0200	13.873	-4.36034	0	
2.0207	16.6147	-2.20924	0	
2.0213	22.7012	-1.62786	0	
2.0220	23.6334	-2.84875	0	
2.0227	28.8426	-3.13944	0	
2.0233	42.2221	-1.62786	0	
2.0240	47.4313	-0.116276	0	
2.0247	32.4617	0.232551	0	
2.0253	12.0086	0.813929	0	
2.0260	4.71571	1.10462	0	
2.0267	4.98988	0.52324	0	
2.0273	-5.04472	-0.406965	0	
2.0280	-21.8239	-0.988343	0	
2.0287	-28.2394	0.52324	0	
2.0293	-26.1009	2.96503	0	
2.0300	-26.7041	2.03482	0	
2.0307	-23.6882	-1.62786	0	
2.0313	-10.2539	-2.20924	0	
2.0320	-1.69985	0.52324	0	
2.0327	-9.04759	1.45345	0	
2.0333	-19.0822	1.10462	0	
2.0340	-20.0144	2.67434	0	
2.0347	-15.1341	4.47661	0	
2.0353	-11.4603	3.89523	0	
2.0360	-8.38958	2.96503	0	
2.0367	-3.2352	2.96503	0	
2.0373	8.06058	4.7673	0	
2.0380	20.5627	3.54641	0	
2.0387	26.7041	0.52324	0	
2.0393	33.7228	0.232551	0	
2.0400	52.6405	1.45345	0	
2.0407	72.4355	0.813929	0	
2.0413	77.0416	1.10462	0	
2.0420	63.2783	1.10462	0	
2.0427	29.4458	0.813929	0	
2.0433	-20.6175	3.54641	0	
2.0440	-64.8685	5.40682	0	
2.0447	-82.2508	2.03482	0	
2.0453	-73.4226	0.232551	0	
2.0460	-59.9883	0.813929	0	
2.0467	-54.779	-0.116276	0	
2.0473	-46.554	0.813929	0	
2.0480	-25.1687	3.54641	0	
2.0487	-5.97689	2.32551	0	
2.0493	-5.37372	0.232551	0	
2.0500	-12.6666	2.03482	0	
2.0507	-11.7893	3.54641	0	
2.0513	-6.25106	3.89523	0	
2.0520	-4.11254	5.40682	0	
2.0527	-3.83837	5.11613	0	
2.0533	-1.69985	1.45345	0	
2.0540	1.37085	0.232551	0	
2.0547	4.11254	2.32551	0	
2.0553	4.71571	1.10462	0	
2.0560	3.78354	-1.62786	0	
2.0567	2.9062	-1.33717	0	
2.0573	2.9062	-1.62786	0	
2.0580	6.52523	-1.91855	0	
2.0587	16.6147	-1.62786	0	
2.0593	27.5814	-3.43013	0	
2.0600	32.4617	-5.29054	0	
2.0607	32.7907	-3.43013	0	
2.0613	28.8426	-1.33717	0	
2.0620	21.4949	-0.697654	0	
2.0627	15.6825	1.10462	0	
2.0633	8.06058	0.813929	0	
2.0640	-4.44154	-0.988343	0	
2.0647	-14.531	0.232551	0	
2.0653	-20.6175	0.232551	0	
2.0660	-26.4299	-2.55806	0	
2.0667	-24.8946	-0.697654	0	
2.0673	-16.3405	2.03482	0	
2.0680	-13.2698	1.10462	0	
2.0687	-15.7373	0.813929	0	
2.0693	-16.6695	1.74413	0	
2.0700	-14.531	2.67434	0	
2.0707	-8.38958	5.11613	0	
2.0713	0.109668	5.69751	0	
2.0720	4.71571	3.54641	0	
2.0727	7.78641	3.54641	0	
2.0733	13.544	3.25572	0	
2.0740	18.7532	1.10462	0	
2.0747	21.1659	1.74413	0	
2.0753	25.4429	3.25572	0	
2.0760	34.9292	3.89523	0	
2.0767	48.3635	3.89523	0	
2.0773	61.4688	3.54641	0	
2.0780	65.1426	2.96503	0	
2.0787	50.173	3.54641	0	
2.0793	26.7041	4.7673	0	
2.0800	11.7344	6.62771	0	
2.0807	-0.493505	8.77881	0	
2.0813	-20.0144	8.42998	0	
2.0820	-35.5872	5.11613	0	
2.0827	-38.3289	4.7673	0	
2.0833	-34.984	7.55792	0	
2.0840	-28.2394	8.77881	0	
2.0847	-17.8758	7.20909	0	
2.0853	-9.65076	5.69751	0	
2.0860	-5.64789	4.7673	0	
2.0867	-5.97689	3.89523	0	
2.0873	-4.77055	5.11613	0	
2.0880	1.04184	7.84861	0	
2.0887	2.24819	5.98819	0	
2.0893	-6.25106	1.45345	0	
2.0900	-11.7893	-0.116276	0	
2.0907	-6.90907	0.232551	0	
2.0913	0.438671	-0.116276	0	
2.0920	8.66375	0.52324	0	
2.0927	23.3044	0.52324	0	
2.0933	45.896	0.232551	0	
2.0940	68.2133	1.10462	0	
2.0947	79.1801	-0.697654	0	
2.0953	70.626	-3.43013	0	
2.0960	38.8772	-1.62786	0	
2.0967	-13.2698	0.52324	0	
2.0973	-64.5395	-2.55806	0	
2.0980	-88.6664	-4.06965	0	
2.0987	-85.9247	-1.91855	0	
2.0993	-71.284	0.232551	0	
2.1000	-50.2278	1.74413	0	
2.1007	-32.5165	1.45345	0	
2.1013	-27.0331	-0.406965	0	
2.1020	-26.4299	0.232551	0	
2.1027	-18.15	1.10462	0	
2.1033	-8.11541	0.232551	0	
2.1040	-6.90907	0.232551	0	
2.1047	-12.6666	0.52324	0	
2.1053	-18.15	0.232551	0	
2.1060	-18.15	0.232551	0	
2.1067	-12.6666	0.232551	0	
2.1073	-5.37372	-0.697654	0	
2.1080	-0.767674	-0.406965	0	
2.1087	-0.767674	-2.55806	0	
2.1093	-4.44154	-6.22075	0	
2.1100	-8.71859	-4.36034	0	
2.1107	-9.32176	-0.116276	0	
2.1113	-5.04472	-0.697654	0	
2.1120	-1.69985	-2.55806	0	
2.1127	-0.767674	-1.62786	0	
2.1133	4.71571	-1.62786	0	
2.1140	14.8051	-1.91855	0	
2.1147	16.6147	1.10462	0	
2.1153	7.78641	2.03482	0	
2.1160	0.109668	-0.697654	0	
2.1167	1.64502	-0.697654	0	
2.1173	12.9408	1.74413	0	
2.1180	27.3073	2.32551	0	
2.1187	33.1197	1.10462	0	
2.1193	28.8426	-1.91855	0	
2.1200	23.9624	-4.99985	0	
2.1207	18.15	-3.43013	0	
2.1213	8.06058	-0.697654	0	
2.1220	1.04184	-4.36034	0	
2.1227	0.767674	-8.95322	0	
2.1233	2.9062	-6.51144	0	
2.1240	3.18036	-3.43013	0	
2.1247	1.37085	-5.29054	0	
2.1253	0.109668	-6.80212	0	
2.1260	3.50937	-4.65103	0	
2.1267	8.66375	-3.77896	0	
2.1273	9.26692	-4.65103	0	
2.1280	3.50937	-4.65103	0	
2.1287	-3.50937	-4.06965	0	
2.1293	-6.25106	-3.77896	0	
2.1300	-6.25106	-3.43013	0	
2.1307	-6.90907	-2.20924	0	
2.1313	-3.50937	-1.91855	0	
2.1320	5.31889	-2.55806	0	
2.1327	18.4242	-3.77896	0	
2.1333	33.997	-4.36034	0	
2.1340	43.4833	-3.43013	0	
2.1347	40.1384	-2.20924	0	
2.1353	23.0302	-0.988343	0	
2.1360	1.37085	0.232551	0	
2.1367	-10.8571	-1.33717	0	
2.1373	-10.5281	-2.55806	0	
2.1380	-11.7893	0.232551	0	
2.1387	-17.2727	1.45345	0	
2.1393	-11.7893	-1.33717	0	
2.1400	2.24819	-0.406965	0	
2.1407	11.1313	0.52324	0	
2.1413	7.45741	-4.36034	0	
2.1420	-4.44154	-5.29054	0	
2.1427	-11.7893	-1.62786	0	
2.1433	-7.18324	-1.91855	0	
2.1440	1.04184	-2.84875	0	
2.1447	3.78354	0.52324	0	
2.1453	2.9062	-0.406965	0	
2.1460	-0.767674	-3.43013	0	
2.1467	-10.8571	-1.91855	0	
2.1473	-24.5656	-1.33717	0	
2.1480	-31.3101	-2.20924	0	
2.1487	-25.1687	0.232551	0	
2.1493	-12.9956	1.10462	0	
2.1500	-3.83837	-1.91855	0	
2.1507	0.109668	-1.62786	0	
2.1513	3.78354	0.232551	0	
2.1520	12.6666	-2.55806	0	
2.1527	23.0302	-3.43013	0	
2.1533	33.1197	-0.406965	0	
2.1540	44.0864	-0.988343	0	
2.1547	44.6896	-2.55806	0	
2.1553	22.7012	0.52324	0	
2.1560	-4.44154	2.96503	0	
2.1567	-20.0144	1.45345	0	
2.1573	-35.8614	0.813929	0	
2.1580	-44.7444	0.813929	0	
2.1587	-30.378	0.52324	0	
2.1593	-14.202	2.67434	0	
2.1600	-17.5468	2.32551	0	
2.1607	-24.2914	0.232551	0	
2.1613	-26.4299	0.232551	0	
2.1620	-32.2423	1.74413	0	
2.1627	-34.326	0.52324	0	
2.1633	-28.2394	-0.406965	0	
2.1640	-21.8239	-0.116276	0	
2.1647	-14.202	-0.697654	0	
2.1653	-5.37372	-1.62786	0	
2.1660	-1.69985	-2.55806	0	
2.1667	-2.63203	-1.91855	0	
2.1673	-4.44154	1.10462	0	
2.1680	-3.83837	2.03482	0	
2.1687	-1.09668	-0.697654	0	
2.1693	-0.164502	-1.62786	0	
2.1700	0.109668	1.10462	0	
2.1707	5.64789	1.10462	0	
2.1713	11.1313	0.232551	0	
2.1720	9.59593	0.813929	0	
2.1727	10.1991	-0.116276	0	
2.1733	15.0793	-2.84875	0	
2.1740	16.6147	-1.91855	0	
2.1747	9.59593	0.52324	0	
2.1753	-0.767674	-1.62786	0	
2.1760	-8.11541	-4.36034	0	
2.1767	-6.58006	-4.65103	0	
2.1773	0.767674	-5.58123	0	
2.1780	6.85423	-6.80212	0	
2.1787	8.38958	-5.58123	0	
2.1793	5.92206	-4.36034	0	
2.1800	4.98988	-5.58123	0	
2.1807	7.45741	-7.44164	0	
2.1813	8.66375	-6.80212	0	
2.1820	7.78641	-3.43013	0	
2.1827	4.71571	-0.988343	0	
2.1833	-1.69985	-0.697654	0	
2.1840	-6.25106	-0.697654	0	
2.1847	-3.2352	-0.697654	0	
2.1853	7.78641	-2.55806	0	
2.1860	29.72	-4.99985	0	
2.1867	55.0532	-4.99985	0	
2.1873	63.0041	-5.29054	0	
2.1880	51.3793	-7.09281	0	
2.1887	37.6709	-8.02302	0	
2.1893	19.6854	-5.87192	0	
2.1900	-13.5988	-4.36034	0	
2.1907	-48.3635	-4.36034	0	
2.1913	-63.9363	-4.36034	0	
2.1920	-59.6593	-4.36034	0	
2.1927	-45.3476	-4.06965	0	
2.1933	-29.7748	-1.91855	0	
2.1940	-20.0144	-0.697654	0	
2.1947	-15.4083	-0.697654	0	
2.1953	-11.4603	-1.62786	0	
2.1960	-9.92493	-1.62786	0	
2.1967	-10.8571	0.232551	0	
2.1973	-10.5281	1.74413	0	
2.1980	-9.32176	2.03482	0	
2.1987	-8.38958	1.74413	0	
2.1993	-7.18324	2.03482	0	
2.2000	-9.04759	2.96503	0	
2.2007	-11.7893	2.96503	0	
2.2013	-9.92493	4.7673	0	
2.2020	-1.69985	5.69751	0	
2.2027	7.45741	2.96503	0	
2.2033	12.6666	2.03482	0	
2.2040	14.4761	6.33702	0	
2.2047	15.4083	7.84861	0	
2.2053	13.873	3.54641	0	
2.2060	7.45741	2.03482	0	
2.2067	0.767674	4.7673	0	
2.2073	-3.83837	4.47661	0	
2.2080	-6.25106	3.25572	0	
2.2087	-5.64789	5.98819	0	
2.2093	-1.37085	5.98819	0	
2.2100	4.71571	3.25572	0	
2.2107	5.64789	3.89523	0	
2.2113	-1.69985	3.25572	0	
2.2120	-4.44154	-0.406965	0	
2.2127	5.64789	-0.116276	0	
2.2133	16.6147	1.45345	0	
2.2140	18.7532	0.813929	0	
2.2147	19.3564	2.03482	0	
2.2153	23.0302	2.32551	0	
2.2160	22.0981	-1.62786	0	
2.2167	17.2178	-1.62786	0	
2.2173	14.8051	2.96503	0	
2.2180	15.6825	3.25572	0	
2.2187	13.873	1.10462	0	
2.2193	10.1991	1.45345	0	
2.2200	7.1284	2.32551	0	
2.2207	5.31889	1.10462	0	
2.2213	9.59593	0.232551	0	
2.2220	20.2885	1.10462	0	
2.2227	21.1659	2.96503	0	
2.2233	9.26692	2.67434	0	
2.2240	0.767674	2.96503	0	
2.2247	-4.77055	3.89523	0	
2.2253	-21.8239	3.54641	0	
2.2260	-45.6218	2.32551	0	
2.2267	-62.73	2.03482	0	
2.2273	-59.3851	2.03482	0	
2.2280	-28.2394	3.54641	0	
2.2287	12.0086	5.11613	0	
2.2293	31.2553	5.11613	0	
2.2300	31.2553	5.69751	0	
2.2307	27.9104	5.40682	0	
2.2313	15.0793	2.67434	0	
2.2320	-9.65076	1.10462	0	
2.2327	-26.1009	2.96503	0	
2.2333	-23.6882	3.54641	0	
2.2340	-15.1341	2.03482	0	
2.2347	-9.92493	2.96503	0	
2.2353	-4.77055	4.7673	0	
2.2360	1.97402	4.47661	0	
2.2367	4.71571	1.10462	0	
2.2373	2.9062	-0.406965	0	
2.2380	1.37085	1.10462	0	
2.2387	-0.164502	1.10462	0	
2.2393	-4.11254	1.74413	0	
2.2400	-5.97689	3.54641	0	
2.2407	-1.37085	2.32551	0	
2.2413	4.11254	1.10462	0	
2.2420	4.11254	4.18592	0	
2.2427	2.9062	4.7673	0	
2.2433	2.24819	0.813929	0	
2.2440	-3.2352	-0.406965	0	
2.2447	-8.71859	2.03482	0	
2.2453	-5.37372	3.25572	0	
2.2460	4.98988	4.47661	0	
2.2467	18.4242	4.18592	0	
2.2473	25.7719	1.45345	0	
2.2480	16.0115	-1.33717	0	
2.2487	1.37085	-1.33717	0	
2.2493	-0.493505	1.10462	0	
2.2500	-4.77055	2.67434	0	
2.2507	-20.0144	0.232551	0	
2.2513	-23.6882	-1.33717	0	
2.2520	-11.1313	-0.697654	0	
2.2527	-3.50937	-3.13944	0	
2.2533	-1.37085	-6.22075	0	
2.2540	2.9062	-3.77896	0	
2.2547	3.50937	0.232551	0	
2.2553	-4.77055	0.813929	0	
2.2560	-15.7373	0.813929	0	
2.2567	-19.0822	0.232551	0	
2.2573	-7.78641	-1.62786	0	
2.2580	7.1284	-0.406965	0	
2.2587	11.1313	2.96503	0	
2.2593	11.1313	2.03482	0	
2.2600	15.4083	0.813929	0	
2.2607	14.8051	2.96503	0	
2.2613	5.64789	2.03482	0	
2.2620	-5.37372	-1.33717	0	
2.2627	-14.531	-0.406965	0	
2.2633	-24.2914	0.52324	0	
2.2640	-34.984	-1.62786	0	
2.2647	-38.9321	-0.697654	0	
2.2653	-27.6363	2.32551	0	
2.2660	-10.2539	1.10462	0	
2.2667	-2.9062	-0.988343	0	
2.2673	-0.767674	0.232551	0	
2.2680	3.78354	0.52324	0	
2.2687	7.45741	-1.62786	0	
2.2693	10.8023	-2.55806	0	
2.2700	14.4761	-4.65103	0	
2.2707	9.26692	-8.02302	0	
2.2713	-1.69985	-7.44164	0	
2.2720	-5.37372	-4.36034	0	
2.2727	-1.37085	-2.55806	0	
2.2733	2.9062	-0.697654	0	
2.2740	4.71571	1.10462	0	
2.2747	5.64789	-0.697654	0	
2.2753	6.52523	-1.33717	0	
2.2760	7.45741	-0.406965	0	
2.2767	7.45741	-2.20924	0	
2.2773	8.06058	-4.06965	0	
2.2780	9.59593	-4.06965	0	
2.2787	10.1991	-3.77896	0	
2.2793	12.0086	-2.20924	0	
2.2800	19.3564	-0.697654	0	
2.2807	29.4458	-1.91855	0	
2.2813	36.7387	-1.62786	0	
2.2820	43.1543	0.52324	0	
2.2827	52.3115	0.813929	0	
2.2833	49.8988	0.52324	0	
2.2840	20.5627	1.74413	0	
2.2847	-13.5988	2.03482	0	
2.2853	-25.4978	3.89523	0	
2.2860	-28.8426	5.98819	0	
2.2867	-39.2611	2.67434	0	
2.2873	-40.4674	-2.20924	0	
2.2880	-27.3073	-0.697654	0	
2.2887	-17.5468	2.03482	0	
2.2893	-14.202	1.45345	0	
2.2900	-9.04759	0.813929	0	
2.2907	0.109668	2.32551	0	
2.2913	9.26692	2.03482	0	
2.2920	10.5281	-0.406965	0	
2.2927	10.1991	-1.62786	0	
2.2933	19.6854	-0.116276	0	
2.2940	26.9783	2.03482	0	
2.2947	19.3564	2.03482	0	
2.2953	8.38958	0.232551	0	
2.2960	0.109668	0.232551	0	
2.2967	-15.7373	2.67434	0	
2.2973	-34.655	2.03482	0	
2.2980	-41.3447	-1.62786	0	
2.2987	-32.8455	-2.20924	0	
2.2993	-14.8051	0.52324	0	
2.3000	-2.63203	0.52324	0	
2.3007	-2.63203	-0.697654	0	
2.3013	-5.97689	-0.406965	0	
2.3020	-5.37372	-0.697654	0	
2.3027	-0.767674	-0.697654	0	
2.3033	7.45741	0.232551	0	
2.3040	13.873	-0.988343	0	
2.3047	12.9408	-2.55806	0	
2.3053	9.26692	-1.62786	0	
2.3060	4.71571	-0.697654	0	
2.3067	1.64502	-1.91855	0	
2.3073	1.97402	-0.697654	0	
2.3080	-1.09668	0.52324	0	
2.3087	-10.5281	-1.62786	0	
2.3093	-18.15	-3.77896	0	
2.3100	-20.0144	-3.43013	0	
2.3107	-15.1341	-3.13944	0	
2.3113	-6.25106	-3.13944	0	
2.3120	-4.11254	-1.91855	0	
2.3127	-5.97689	-2.20924	0	
2.3133	-1.37085	-3.43013	0	
2.3140	3.50937	-2.55806	0	
2.3147	2.24819	0.232551	0	
2.3153	3.50937	-0.116276	0	
2.3160	6.52523	-1.62786	0	
2.3167	5.31889	-0.988343	0	
2.3173	3.78354	0.232551	0	
2.3180	4.98988	-1.62786	0	
2.3187	7.1284	-2.20924	0	
2.3193	8.38958	-0.697654	0	
2.3200	6.52523	-1.91855	0	
2.3207	2.9062	-3.43013	0	
2.3213	2.57719	-0.697654	0	
2.3220	2.9062	0.232551	0	
2.3227	3.50937	-1.62786	0	
2.3233	5.92206	-0.116276	0	
2.3240	6.52523	1.74413	0	
2.3247	4.38671	0.813929	0	
2.3253	3.18036	-0.116276	0	
2.3260	1.64502	-0.697654	0	
2.3267	1.04184	-0.988343	0	
2.3273	4.11254	1.10462	0	
2.3280	4.38671	2.03482	0	
2.3287	1.97402	-0.116276	0	
2.3293	3.18036	-0.697654	0	
2.3300	3.18036	-1.33717	0	
2.3307	-4.44154	-2.84875	0	
2.3313	-15.4083	-0.406965	0	
2.3320	-18.479	4.18592	0	
2.3327	-10.2539	4.47661	0	
2.3333	0.109668	2.67434	0	
2.3340	3.50937	2.03482	0	
2.3347	4.71571	1.10462	0	
2.3353	6.52523	2.03482	0	
2.3360	6.85423	2.96503	0	
2.3367	11.1313	0.52324	0	
2.3373	16.6147	-1.62786	0	
2.3380	13.2698	-0.406965	0	
2.3387	6.25106	1.45345	0	
2.3393	1.04184	-0.116276	0	
2.3400	-9.32176	-1.91855	0	
2.3407	-20.0144	0.232551	0	
2.3413	-18.479	2.96503	0	
2.3420	-8.71859	2.03482	0	
2.3427	-2.30302	0.232551	0	
2.3433	0.438671	0.52324	0	
2.3440	0.109668	1.10462	0	
2.3447	-2.63203	0.232551	0	
2.3453	-4.44154	0.232551	0	
2.3460	-5.04472	0.232551	0	
2.3467	-11.4603	-1.62786	0	
2.3473	-19.6854	-1.91855	0	
2.3480	-20.0144	0.813929	0	
2.3487	-16.9437	2.96503	0	
2.3493	-16.9437	2.32551	0	
2.3500	-9.65076	2.67434	0	
2.3507	6.85423	3.25572	0	
2.3513	16.6147	1.45345	0	
2.3520	13.873	0.52324	0	
2.3527	7.45741	1.10462	0	
2.3533	2.57719	0.813929	0	
2.3540	1.64502	1.10462	0	
2.3547	1.97402	3.54641	0	
2.3553	2.24819	2.96503	0	
2.3560	4.98988	1.10462	0	
2.3567	6.52523	2.96503	0	
2.3573	1.64502	2.32551	0	
2.3580	-1.09668	-0.697654	0	
2.3587	1.04184	-0.406965	0	
2.3593	1.04184	1.10462	0	
2.3600	1.64502	1.10462	0	
2.3607	5.31889	2.03482	0	
2.3613	8.66375	2.96503	0	
2.3620	15.0793	2.32551	0	
2.3627	25.7719	3.54641	0	
2.3633	32.1875	2.67434	0	
2.3640	31.5843	-0.697654	0	
2.3647	21.1659	-0.697654	0	
2.3653	-3.50937	1.10462	0	
2.3660	-24.5656	-0.697654	0	
2.3667	-27.9653	-1.91855	0	
2.3673	-30.9811	-0.697654	0	
2.3680	-39.2611	-0.697654	0	
2.3687	-31.3101	-1.91855	0	
2.3693	-10.8571	-1.33717	0	
2.3700	-3.50937	1.10462	0	
2.3707	-5.64789	0.52324	0	
2.3713	-4.11254	-3.43013	0	
2.3720	-3.83837	-3.13944	0	
2.3727	-2.02885	1.74413	0	
2.3733	4.71571	1.45345	0	
2.3740	5.64789	-2.20924	0	
2.3747	0.767674	-0.116276	0	
2.3753	1.97402	0.813929	0	
2.3760	6.52523	-3.77896	0	
2.3767	9.92493	-4.36034	0	
2.3773	13.873	-3.77896	0	
2.3780	13.544	-7.44164	0	
2.3787	4.71571	-7.73233	0	
2.3793	-4.11254	-4.36034	0	
2.3800	-4.11254	-6.22075	0	
2.3807	1.97402	-7.09281	0	
2.3813	5.92206	-3.43013	0	
2.3820	4.71571	-3.43013	0	
2.3827	3.50937	-5.87192	0	
2.3833	6.25106	-3.77896	0	
2.3840	12.9408	-3.13944	0	
2.3847	23.0302	-6.51144	0	
2.3853	32.1875	-6.22075	0	
2.3860	38.274	-3.43013	0	
2.3867	39.2062	-5.87192	0	
2.3873	32.7907	-8.31371	0	
2.3880	25.4429	-7.09281	0	
2.3887	26.9783	-6.22075	0	
2.3893	26.9783	-6.22075	0	
2.3900	7.45741	-4.99985	0	
2.3907	-21.2207	-3.77896	0	
2.3913	-37.3967	-4.99985	0	
2.3920	-45.6218	-5.29054	0	
2.3927	-59.3851	-4.65103	0	
2.3933	-69.7487	-4.99985	0	
2.3940	-63.9363	-4.65103	0	
2.3947	-47.4861	-3.43013	0	
2.3953	-31.3101	-2.55806	0	
2.3960	-16.0663	-2.84875	0	
2.3967	-1.69985	-3.77896	0	
2.3973	10.5281	-2.20924	0	
2.3980	16.6147	1.45345	0	
2.3987	9.26692	2.32551	0	
2.3993	-9.65076	0.232551	0	
2.4000	-26.1009	-0.697654	0	
2.4007	-36.1904	-0.116276	0	
2.4013	-39.2611	1.10462	0	
2.4020	-31.9133	0.232551	0	
2.4027	-20.9465	-0.697654	0	
2.4033	-17.8758	1.10462	0	
2.4040	-16.3405	1.45345	0	
2.4047	-9.32176	-2.84875	0	
2.4053	-3.2352	-3.43013	0	
2.4060	-0.164502	0.52324	0	
2.4067	1.97402	0.232551	0	
2.4073	-0.767674	-1.62786	0	
2.4080	-7.51224	1.10462	0	
2.4087	-9.65076	1.10462	0	
2.4093	-3.50937	-2.55806	0	
2.4100	3.50937	-2.55806	0	
2.4107	4.71571	-1.33717	0	
2.4113	4.11254	-1.62786	0	
2.4120	2.57719	-1.91855	0	
2.4127	-0.767674	-3.43013	0	
2.4133	-2.02885	-4.99985	0	
2.4140	2.9062	-1.62786	0	
2.4147	8.99276	3.25572	0	
2.4153	8.99276	1.45345	0	
2.4160	3.50937	-4.36034	0	
2.4167	1.64502	-4.99985	0	
2.4173	8.06058	-1.62786	0	
2.4180	14.8051	-0.988343	0	
2.4187	15.6825	-2.20924	0	
2.4193	16.2857	0.52324	0	
2.4200	23.9624	2.96503	0	
2.4207	27.3073	0.232551	0	
2.4213	19.6854	-2.20924	0	
2.4220	16.6147	-0.406965	0	
2.4227	27.3073	2.03482	0	
2.4233	34.6002	2.67434	0	
2.4240	31.8585	1.45345	0	
2.4247	31.2553	-0.697654	0	
2.4253	31.2553	-0.697654	0	
2.4260	22.7012	0.813929	0	
2.4267	11.1313	-0.697654	0	
2.4273	4.71571	-2.20924	0	
2.4280	-2.02885	-1.62786	0	
2.4287	-9.92493	-2.20924	0	
2.4293	-6.25106	-2.55806	0	
2.4300	8.66375	-0.116276	0	
2.4307	24.2366	2.03482	0	
2.4313	32.7907	2.03482	0	
2.4320	33.7228	1.74413	0	
2.4327	28.5136	-0.697654	0	
2.4333	22.0981	-2.55806	0	
2.4340	16.9437	1.10462	0	
2.4347	4.71571	5.11613	0	
2.4353	-17.2727	3.89523	0	
2.4360	-34.655	2.03482	0	
2.4367	-35.8614	2.96503	0	
2.4373	-26.1009	5.69751	0	
2.4380	-15.7373	6.33702	0	
2.4387	-6.58006	3.25572	0	
2.4393	1.64502	1.10462	0	
2.4400	4.71571	3.25572	0	
2.4407	4.11254	4.47661	0	
2.4413	3.50937	2.03482	0	
2.4420	6.25106	2.03482	0	
2.4427	15.0793	2.03482	0	
2.4433	30.3231	-2.20924	0	
2.4440	49.2408	-1.62786	0	
2.4447	63.0041	4.7673	0	
2.4453	57.7949	6.62771	0	
2.4460	36.7387	4.7673	0	
2.4467	14.1471	7.55792	0	
2.4473	-15.1341	8.13929	0	
2.4480	-52.9695	3.89523	0	
2.4487	-76.4384	2.67434	0	
2.4493	-79.8381	5.69751	0	
2.4500	-81.6476	4.7673	0	
2.4507	-79.2349	-0.406965	0	
2.4513	-62.73	-0.697654	0	
2.4520	-42.0027	3.54641	0	
2.4527	-24.8946	5.11613	0	
2.4533	-11.1313	2.67434	0	
2.4540	-6.25106	2.03482	0	
2.4547	-8.11541	3.89523	0	
2.4553	-8.11541	4.47661	0	
2.4560	-6.25106	3.89523	0	
2.4567	-3.2352	5.40682	0	
2.4573	0.109668	7.20909	0	
2.4580	4.38671	5.69751	0	
2.4587	11.1313	1.74413	0	
2.4593	16.2857	-0.406965	0	
2.4600	12.0086	2.67434	0	
2.4607	1.04184	4.7673	0	
2.4613	-8.38958	3.89523	0	
2.4620	-15.1341	3.89523	0	
2.4627	-17.2727	4.7673	0	
2.4633	-13.5988	2.96503	0	
2.4640	-9.04759	2.67434	0	
2.4647	-3.2352	5.40682	0	
2.4653	7.1284	3.89523	0	
2.4660	15.4083	0.232551	0	
2.4667	13.2698	1.45345	0	
2.4673	8.99276	3.25572	0	
2.4680	12.0086	1.74413	0	
2.4687	15.0793	0.52324	0	
2.4693	10.1991	1.74413	0	
2.4700	2.9062	2.03482	0	
2.4707	-1.69985	0.52324	0	
2.4713	-8.71859	-0.988343	0	
2.4720	-16.6695	1.10462	0	
2.4727	-21.5497	2.96503	0	
2.4733	-23.6882	0.52324	0	
2.4740	-23.6882	-0.697654	0	
2.4747	-16.6695	1.10462	0	
2.4753	-4.77055	0.232551	0	
2.4760	3.18036	-0.406965	0	
2.4767	8.38958	2.03482	0	
2.4773	15.0793	0.813929	0	
2.4780	20.5627	-1.62786	0	
2.4787	22.0981	-1.33717	0	
2.4793	22.0981	-2.20924	0	
2.4800	22.0981	-4.06965	0	
2.4807	20.5627	-2.84875	0	
2.4813	14.8051	-1.62786	0	
2.4820	1.04184	-0.988343	0	
2.4827	-9.92493	2.03482	0	
2.4833	-5.97689	2.03482	0	
2.4840	3.50937	-1.62786	0	
2.4847	7.45741	-1.62786	0	
2.4853	14.8051	-0.116276	0	
2.4860	26.7041	-0.697654	0	
2.4867	37.3419	-0.116276	0	
2.4873	40.7416	2.32551	0	
2.4880	32.1875	1.10462	0	
2.4887	16.2857	-2.55806	0	
2.4893	3.18036	-2.55806	0	
2.4900	-9.65076	0.52324	0	
2.4907	-17.2727	2.03482	0	
2.4913	-8.11541	2.03482	0	
2.4920	3.78354	2.32551	0	
2.4927	5.64789	0.232551	0	
2.4933	6.52523	-2.84875	0	
2.4940	6.52523	-2.55806	0	
2.4947	-0.164502	-0.406965	0	
2.4953	-7.18324	-0.697654	0	
2.4960	-20.0144	0.52324	0	
2.4967	-42.0027	2.32551	0	
2.4973	-52.0373	0.232551	0	
2.4980	-41.3447	-0.988343	0	
2.4987	-30.378	0.232551	0	
2.4993	-26.1009	0.232551	0	
2.5000	-20.0144	0.232551	0	
2.5007	-12.6666	2.96503	0	
2.5013	-9.92493	2.96503	0	
2.5020	-7.51224	1.10462	0	
2.5027	-2.63203	1.10462	0	
2.5033	1.64502	0.813929	0	
2.5040	0.109668	-0.406965	0	
2.5047	-4.44154	-0.116276	0	
2.5053	-6.25106	-1.91855	0	
2.5060	-4.77055	-4.99985	0	
2.5067	-3.2352	-4.99985	0	
2.5073	0.109668	-5.29054	0	
2.5080	3.78354	-7.09281	0	
2.5087	3.50937	-5.29054	0	
2.5093	2.57719	-4.36034	0	
2.5100	4.71571	-7.09281	0	
2.5107	5.64789	-6.51144	0	
2.5113	6.52523	-2.84875	0	
2.5120	10.5281	-3.43013	0	
2.5127	9.92493	-6.22075	0	
2.5133	5.64789	-5.87192	0	
2.5140	9.26692	-4.99985	0	
2.5147	20.2885	-3.43013	0	
2.5153	25.4429	-1.91855	0	
2.5160	21.4949	-3.43013	0	
2.5167	11.4054	-5.58123	0	
2.5173	1.37085	-3.77896	0	
2.5180	1.97402	-2.20924	0	
2.5187	16.9437	-2.84875	0	
2.5193	33.1197	-3.43013	0	
2.5200	34.9292	-3.13944	0	
2.5207	20.2885	-2.84875	0	
2.5213	1.97402	-3.13944	0	
2.5220	-3.2352	-4.36034	0	
2.5227	0.767674	-6.22075	0	
2.5233	-2.30302	-6.80212	0	
2.5240	-13.9278	-4.99985	0	
2.5247	-19.0822	-3.43013	0	
2.5253	-15.1341	-3.13944	0	
2.5260	-11.7893	-3.13944	0	
2.5267	-6.25106	-2.20924	0	
2.5273	4.98988	-2.55806	0	
2.5280	12.3376	-3.13944	0	
2.5287	15.4083	-2.20924	0	
2.5293	21.4949	-2.20924	0	
2.5300	26.9783	-1.33717	0	
2.5307	31.5843	1.45345	0	
2.5313	27.3073	1.10462	0	
2.5320	-4.11254	-0.406965	0	
2.5327	-40.4674	1.74413	0	
2.5333	-40.7416	2.67434	0	
2.5340	-25.4978	0.232551	0	
2.5347	-27.9653	0.232551	0	
2.5353	-29.1716	1.74413	0	
2.5360	-17.5468	-0.406965	0	
2.5367	-9.92493	-0.697654	0	
2.5373	1.04184	2.03482	0	
2.5380	24.2366	4.18592	0	
2.5387	40.1384	3.89523	0	
2.5393	37.9999	2.96503	0	
2.5400	23.0302	3.25572	0	
2.5407	4.98988	4.7673	0	
2.5413	-7.18324	4.47661	0	
2.5420	-23.6882	3.54641	0	
2.5427	-50.2278	5.40682	0	
2.5433	-62.4009	5.11613	0	
2.5440	-46.554	1.45345	0	
2.5447	-24.5656	0.813929	0	
2.5453	-8.11541	2.03482	0	
2.5460	5.31889	0.52324	0	
2.5467	16.9437	-1.33717	0	
2.5473	31.2553	-0.406965	0	
2.5480	44.3606	1.10462	0	
2.5487	43.1543	2.96503	0	
2.5493	30.049	2.32551	0	
2.5500	13.2698	-0.697654	0	
2.5507	-11.1313	0.232551	0	
2.5513	-42.8801	2.96503	0	
2.5520	-67.007	2.03482	0	
2.5527	-70.3519	2.96503	0	
2.5533	-52.3663	5.98819	0	
2.5540	-30.1038	3.54641	0	
2.5547	-17.2727	2.03482	0	
2.5553	-11.1313	5.11613	0	
2.5560	-3.2352	4.7673	0	
2.5567	5.64789	2.03482	0	
2.5573	9.59593	2.96503	0	
2.5580	8.66375	2.96503	0	
2.5587	6.52523	0.232551	0	
2.5593	8.99276	0.232551	0	
2.5600	12.6666	0.232551	0	
2.5607	8.38958	-0.988343	0	
2.5613	1.37085	-0.697654	0	
2.5620	0.109668	0.52324	0	
2.5627	1.37085	0.232551	0	
2.5633	1.04184	-2.20924	0	
2.5640	6.25106	-2.55806	0	
2.5647	12.9408	0.232551	0	
2.5653	13.2698	1.10462	0	
2.5660	12.3376	0.232551	0	
2.5667	14.8051	0.52324	0	
2.5673	15.6825	-0.988343	0	
2.5680	11.7344	-3.43013	0	
2.5687	5.64789	-1.62786	0	
2.5693	2.24819	-0.697654	0	
2.5700	7.45741	-2.55806	0	
2.5707	19.0274	-0.697654	0	
2.5713	27.9104	1.10462	0	
2.5720	28.5136	-0.697654	0	
2.5727	24.2366	0.232551	0	
2.5733	23.0302	1.45345	0	
2.5740	23.0302	-1.62786	0	
2.5747	12.6666	-3.43013	0	
2.5753	-6.25106	-2.55806	0	
2.5760	-20.6175	-1.62786	0	
2.5767	-26.7041	-0.697654	0	
2.5773	-18.15	-1.33717	0	
2.5780	12.3376	-3.43013	0	
2.5787	46.4991	-3.13944	0	
2.5793	57.7949	-3.43013	0	
2.5800	39.4804	-4.65103	0	
2.5807	2.9062	-1.91855	0	
2.5813	-26.4299	-0.697654	0	
2.5820	-33.4487	-5.29054	0	
2.5827	-37.1225	-6.51144	0	
2.5833	-49.8988	-4.36034	0	
2.5840	-52.9695	-5.29054	0	
2.5847	-40.4674	-6.80212	0	
2.5853	-29.1716	-6.22075	0	
2.5860	-20.2885	-5.58123	0	
2.5867	-8.71859	-5.29054	0	
2.5873	2.9062	-6.51144	0	
2.5880	8.06058	-8.02302	0	
2.5887	4.71571	-7.73233	0	
2.5893	-6.90907	-5.29054	0	
2.5900	-17.8758	-2.55806	0	
2.5907	-16.3405	0.232551	0	
2.5913	-7.78641	-0.116276	0	
2.5920	-10.2539	-3.13944	0	
2.5927	-20.0144	-5.58123	0	
2.5933	-21.5497	-7.09281	0	
2.5940	-18.479	-6.51144	0	
2.5947	-19.6854	-5.29054	0	
2.5953	-19.4112	-4.99985	0	
2.5960	-17.2727	-4.36034	0	
2.5967	-15.7373	-3.13944	0	
2.5973	-7.18324	-3.13944	0	
2.5980	4.71571	-2.55806	0	
2.5987	12.0086	-0.116276	0	
2.5993	23.9624	1.74413	0	
2.6000	44.0864	2.03482	0	
2.6007	54.1759	2.67434	0	
2.6013	47.7603	4.18592	0	
2.6020	37.6709	4.7673	0	
2.6027	32.1875	2.96503	0	
2.6033	17.5468	0.813929	0	
2.6040	-9.92493	-0.116276	0	
2.6047	-30.1038	-0.697654	0	
2.6053	-31.3101	0.232551	0	
2.6060	-25.4978	1.45345	0	
2.6067	-22.4271	-0.988343	0	
2.6073	-17.2727	-3.77896	0	
2.6080	-7.18324	-2.20924	0	
2.6087	4.38671	0.232551	0	
2.6093	7.45741	-0.406965	0	
2.6100	3.78354	-1.33717	0	
2.6107	10.8023	0.232551	0	
2.6113	26.7041	2.96503	0	
2.6120	33.997	5.69751	0	
2.6127	32.7907	5.69751	0	
2.6133	21.8239	4.18592	0	
2.6140	-2.9062	4.47661	0	
2.6147	-17.2727	5.40682	0	
2.6153	-9.04759	4.47661	0	
2.6160	-4.77055	4.47661	0	
2.6167	-6.58006	5.69751	0	
2.6173	2.9062	5.11613	0	
2.6180	8.06058	2.96503	0	
2.6187	-3.50937	2.67434	0	
2.6193	-11.1313	3.25572	0	
2.6200	-9.92493	2.03482	0	
2.6207	-11.7893	0.232551	0	
2.6213	-11.7893	-0.697654	0	
2.6220	-5.37372	-0.697654	0	
2.6227	-1.69985	-0.697654	0	
2.6233	-1.69985	-0.988343	0	
2.6240	-1.69985	0.232551	0	
2.6247	-1.69985	2.67434	0	
2.6253	-1.37085	2.96503	0	
2.6260	1.04184	1.45345	0	
2.6267	4.38671	-0.116276	0	
2.6273	6.52523	-2.84875	0	
2.6280	6.85423	-4.06965	0	
2.6287	4.11254	-1.62786	0	
2.6293	-0.164502	-0.406965	0	
2.6300	-1.37085	-1.91855	0	
2.6307	3.18036	-1.91855	0	
2.6313	12.9408	-0.697654	0	
2.6320	22.4271	0.232551	0	
2.6327	25.1687	0.813929	0	
2.6333	23.0302	1.10462	0	
2.6340	21.1659	0.232551	0	
2.6347	19.0274	-0.697654	0	
2.6353	14.4761	-0.697654	0	
2.6360	7.45741	1.45345	0	
2.6367	-2.30302	4.47661	0	
2.6373	-11.7893	4.7673	0	
2.6380	-12.3925	3.54641	0	
2.6387	-7.51224	2.96503	0	
2.6393	-4.44154	0.813929	0	
2.6400	-4.77055	-1.62786	0	
2.6407	-10.8571	-1.62786	0	
2.6413	-18.479	-1.33717	0	
2.6420	-18.15	-0.697654	0	
2.6427	-12.6666	2.96503	0	
2.6433	-15.4083	5.69751	0	
2.6440	-21.8239	4.7673	0	
2.6447	-18.479	2.96503	0	
2.6453	-14.202	3.89523	0	
2.6460	-20.2885	5.11613	0	
2.6467	-26.1009	5.11613	0	
2.6473	-20.0144	3.25572	0	
2.6480	-9.32176	2.03482	0	
2.6487	1.04184	2.96503	0	
2.6493	12.9408	3.89523	0	
2.6500	17.5468	3.25572	0	
2.6507	9.26692	2.67434	0	
2.6513	-0.493505	1.10462	0	
2.6520	-2.9062	-1.33717	0	
2.6527	-1.69985	-0.697654	0	
2.6533	4.71571	2.03482	0	
2.6540	18.4242	1.10462	0	
2.6547	32.1875	-2.84875	0	
2.6553	35.8614	-4.65103	0	
2.6560	28.1846	-3.13944	0	
2.6567	20.8917	-1.62786	0	
2.6573	25.1687	-2.84875	0	
2.6580	32.7907	-4.36034	0	
2.6587	26.9783	-1.62786	0	
2.6593	11.1313	1.45345	0	
2.6600	-0.164502	-0.406965	0	
2.6607	-8.71859	-0.697654	0	
2.6613	-25.8268	1.74413	0	
2.6620	-52.0373	1.74413	0	
2.6627	-69.1455	0.232551	0	
2.6633	-62.4009	1.74413	0	
2.6640	-43.2091	2.96503	0	
2.6647	-25.4978	2.67434	0	
2.6653	-5.97689	2.03482	0	
2.6660	13.2698	0.813929	0	
2.6667	23.0302	1.10462	0	
2.6673	26.0461	3.54641	0	
2.6680	22.0981	3.54641	0	
2.6687	1.97402	2.96503	0	
2.6693	-24.5656	4.18592	0	
2.6700	-36.7935	3.89523	0	
2.6707	-36.4645	2.67434	0	
2.6713	-36.4645	1.74413	0	
2.6720	-38.3289	-1.62786	0	
2.6727	-35.8614	-1.91855	0	
2.6733	-26.4299	1.45345	0	
2.6740	-14.531	1.10462	0	
2.6747	-8.11541	-0.988343	0	
2.6753	-5.64789	0.232551	0	
2.6760	-0.767674	0.232551	0	
2.6767	2.24819	-1.62786	0	
2.6773	1.97402	-0.116276	0	
2.6780	1.37085	0.52324	0	
2.6787	-0.767674	-0.988343	0	
2.6793	0.109668	-2.55806	0	
2.6800	6.52523	-2.55806	0	
2.6807	8.06058	-1.91855	0	
2.6813	1.97402	-1.91855	0	
2.6820	-2.30302	-2.20924	0	
2.6827	-4.77055	1.10462	0	
2.6833	-4.44154	2.96503	0	
2.6840	3.18036	-0.988343	0	
2.6847	9.92493	-2.20924	0	
2.6853	11.1313	1.10462	0	
2.6860	16.2857	-0.697654	0	
2.6867	26.0461	-3.13944	0	
2.6873	31.8585	0.813929	0	
2.6880	28.5136	2.32551	0	
2.6887	15.6825	-1.91855	0	
2.6893	4.98988	-3.43013	0	
2.6900	5.31889	-0.988343	0	
2.6907	10.1991	-0.697654	0	
2.6913	15.6825	-2.55806	0	
2.6920	24.2366	-3.43013	0	
2.6927	29.1168	-4.36034	0	
2.6933	27.5814	-4.65103	0	
2.6940	25.7719	-4.99985	0	
2.6947	21.1659	-5.29054	0	
2.6953	11.1313	-5.29054	0	
2.6960	8.38958	-3.43013	0	
2.6967	15.4083	-1.91855	0	
2.6973	19.6854	-2.84875	0	
2.6980	19.0274	-2.55806	0	
2.6987	23.3044	0.232551	0	
2.6993	35.2033	2.03482	0	
2.7000	50.7762	0.232551	0	
2.7007	58.1239	-0.697654	0	
2.7013	40.4126	-0.406965	0	
2.7020	4.98988	-1.91855	0	
2.7027	-19.6854	-1.33717	0	
2.7033	-29.4458	2.32551	0	
2.7040	-37.3967	3.25572	0	
2.7047	-37.3967	1.10462	0	
2.7053	-27.3073	1.74413	0	
2.7060	-23.0851	2.96503	0	
2.7067	-23.6882	2.96503	0	
2.7073	-23.0851	3.54641	0	
2.7080	-35.5872	3.25572	0	
2.7087	-60.3173	1.10462	0	
2.7093	-72.4904	-0.697654	0	
2.7100	-67.9392	-0.116276	0	
2.7107	-60.9204	0.813929	0	
2.7113	-56.6434	1.10462	0	
2.7120	-49.2957	1.10462	0	
2.7127	-29.1716	0.232551	0	
2.7133	3.18036	-0.697654	0	
2.7140	23.0302	-0.988343	0	
2.7147	18.4242	-0.697654	0	
2.7153	8.66375	-1.62786	0	
2.7160	7.1284	-1.33717	0	
2.7167	5.64789	0.52324	0	
2.7173	2.24819	0.52324	0	
2.7180	3.50937	-0.697654	0	
2.7187	6.52523	0.52324	0	
2.7193	5.31889	1.10462	0	
2.7200	7.45741	0.232551	0	
2.7207	17.5468	2.03482	0	
2.7213	25.7719	5.69751	0	
2.7220	27.3073	6.33702	0	
2.7227	25.4429	5.69751	0	
2.7233	23.0302	5.40682	0	
2.7240	19.9595	5.11613	0	
2.7247	16.9437	4.7673	0	
2.7253	12.3376	3.89523	0	
2.7260	5.64789	3.54641	0	
2.7267	-3.83837	4.7673	0	
2.7273	-13.5988	4.47661	0	
2.7280	-16.3405	1.74413	0	
2.7287	-9.32176	2.03482	0	
2.7293	-2.63203	2.03482	0	
2.7300	1.04184	-1.62786	0	
2.7307	4.98988	-1.91855	0	
2.7313	9.59593	2.67434	0	
2.7320	13.873	2.67434	0	
2.7327	18.7532	-0.697654	0	
2.7333	23.0302	0.232551	0	
2.7340	23.6334	3.89523	0	
2.7347	21.1659	5.11613	0	
2.7353	18.4242	3.54641	0	
2.7360	15.6825	0.232551	0	
2.7367	8.38958	-2.55806	0	
2.7373	-2.63203	-1.62786	0	
2.7380	-8.71859	-0.116276	0	
2.7387	-4.11254	-1.62786	0	
2.7393	3.78354	-3.77896	0	
2.7400	7.45741	-5.29054	0	
2.7407	8.06058	-4.36034	0	
2.7413	7.78641	-1.62786	0	
2.7420	10.5281	-1.91855	0	
2.7427	16.9437	-5.58123	0	
2.7433	23.6334	-4.99985	0	
2.7440	31.2553	-0.697654	0	
2.7447	39.8094	-1.62786	0	
2.7453	38.8772	-4.06965	0	
2.7460	19.9595	-2.55806	0	
2.7467	-6.25106	-0.116276	0	
2.7473	-27.6363	0.52324	0	
2.7480	-46.883	-0.116276	0	
2.7487	-62.4009	-1.91855	0	
2.7493	-61.1946	-2.84875	0	
2.7500	-39.8642	-1.33717	0	
2.7507	-13.5988	0.232551	0	
2.7513	4.71571	-1.33717	0	
2.7520	17.5468	-3.43013	0	
2.7527	30.9811	-2.55806	0	
2.7533	43.7574	-0.697654	0	
2.7540	46.4991	-2.20924	0	
2.7547	29.4458	-3.43013	0	
2.7553	0.767674	-0.697654	0	
2.7560	-18.808	-0.116276	0	
2.7567	-23.0851	-4.36034	0	
2.7573	-25.1687	-4.65103	0	
2.7580	-27.6363	-2.20924	0	
2.7587	-24.5656	-2.55806	0	
2.7593	-20.0144	-1.62786	0	
2.7600	-16.3405	-0.116276	0	
2.7607	-7.18324	-2.55806	0	
2.7613	7.45741	-4.36034	0	
2.7620	18.15	-2.55806	0	
2.7627	24.5656	-2.84875	0	
2.7633	27.5814	-7.09281	0	
2.7640	19.3564	-7.44164	0	
2.7647	3.78354	-5.87192	0	
2.7653	-8.11541	-6.22075	0	
2.7660	-23.0851	-5.58123	0	
2.7667	-47.4861	-4.06965	0	
2.7673	-64.8685	-4.65103	0	
2.7680	-60.5914	-4.36034	0	
2.7687	-44.4154	-1.62786	0	
2.7693	-34.655	-0.406965	0	
2.7700	-32.2423	-2.20924	0	
2.7707	-17.8758	-3.43013	0	
2.7713	10.1991	-1.62786	0	
2.7720	22.7012	0.813929	0	
2.7727	13.873	0.232551	0	
2.7733	7.78641	-0.116276	0	
2.7740	6.52523	0.52324	0	
2.7747	3.18036	-2.55806	0	
2.7753	4.71571	-5.87192	0	
2.7760	7.1284	-3.43013	0	
2.7767	4.11254	-1.33717	0	
2.7773	6.52523	-1.91855	0	
2.7780	14.8051	-2.55806	0	
2.7787	13.873	-3.13944	0	
2.7793	10.8023	-4.65103	0	
2.7800	12.9408	-5.29054	0	
2.7807	12.0086	-3.77896	0	
2.7813	6.25106	-0.697654	0	
2.7820	3.18036	2.03482	0	
2.7827	2.9062	2.03482	0	
2.7833	0.109668	-0.406965	0	
2.7840	-7.78641	-0.697654	0	
2.7847	-19.0822	-0.697654	0	
2.7853	-29.1716	-0.116276	0	
2.7860	-31.9133	1.45345	0	
2.7867	-25.1687	-0.697654	0	
2.7873	-16.6695	-4.36034	0	
2.7880	-12.9956	-1.62786	0	
2.7887	-5.37372	1.45345	0	
2.7893	10.1991	-1.62786	0	
2.7900	20.2885	-3.43013	0	
2.7907	19.3564	-1.62786	0	
2.7913	18.4242	0.232551	0	
2.7920	19.6854	2.03482	0	
2.7927	20.8917	4.7673	0	
2.7933	23.6334	2.67434	0	
2.7940	26.0461	-1.62786	0	
2.7947	37.6709	-1.62786	0	
2.7953	65.1426	-0.697654	0	
2.7960	85.5957	-1.62786	0	
2.7967	81.5928	0.232551	0	
2.7973	66.678	2.03482	0	
2.7980	46.8281	0.232551	0	
2.7987	12.0086	-0.697654	0	
2.7993	-30.9811	0.52324	0	
2.8000	-59.3851	-0.697654	0	
2.8007	-62.1268	-1.62786	0	
2.8013	-56.9176	1.10462	0	
2.8020	-59.3851	2.96503	0	
2.8027	-52.9695	1.74413	0	
2.8033	-27.6363	1.74413	0	
2.8040	-8.11541	2.67434	0	
2.8047	-3.83837	0.813929	0	
2.8053	-1.37085	-0.406965	0	
2.8060	0.109668	-0.697654	0	
2.8067	0.767674	-0.697654	0	
2.8073	2.57719	0.813929	0	
2.8080	-1.69985	0.52324	0	
2.8087	-8.71859	-1.62786	0	
2.8093	-10.2539	0.52324	0	
2.8100	-16.3405	3.54641	0	
2.8107	-25.4978	1.45345	0	
2.8113	-20.9465	0.813929	0	
2.8120	-9.92493	1.10462	0	
2.8127	-5.04472	-1.62786	0	
2.8133	-0.767674	-3.13944	0	
2.8140	1.37085	-1.91855	0	
2.8147	-0.164502	-3.13944	0	
2.8153	0.109668	-3.43013	0	
2.8160	2.24819	-1.33717	0	
2.8167	3.78354	1.10462	0	
2.8173	5.64789	1.10462	0	
2.8180	5.64789	-0.697654	0	
2.8187	4.98988	-2.55806	0	
2.8193	5.64789	-2.55806	0	
2.8200	2.9062	-0.988343	0	
2.8207	-1.37085	0.813929	0	
2.8213	-0.164502	1.74413	0	
2.8220	2.24819	-0.116276	0	
2.8227	0.109668	0.232551	0	
2.8233	-2.9062	2.67434	0	
2.8240	-2.02885	0.813929	0	
2.8247	6.52523	-0.988343	0	
2.8253	18.4242	3.25572	0	
2.8260	19.9595	4.7673	0	
2.8267	10.5281	0.813929	0	
2.8273	4.38671	-0.697654	0	
2.8280	5.31889	-1.62786	0	
2.8287	7.45741	-3.43013	0	
2.8293	7.78641	-2.20924	0	
2.8300	5.64789	-0.988343	0	
2.8307	-0.164502	-2.20924	0	
2.8313	-7.18324	-1.62786	0	
2.8320	-11.4603	0.232551	0	
2.8327	-8.11541	-0.697654	0	
2.8333	-0.164502	-1.91855	0	
2.8340	1.97402	-1.62786	0	
2.8347	0.767674	0.232551	0	
2.8353	6.52523	1.10462	0	
2.8360	11.1313	-0.697654	0	
2.8367	4.11254	-2.84875	0	
2.8373	-5.37372	-2.55806	0	
2.8380	-9.04759	-1.33717	0	
2.8387	-5.04472	-0.406965	0	
2.8393	9.26692	1.10462	0	
2.8400	27.9104	0.232551	0	
2.8407	37.6709	-0.697654	0	
2.8413	38.274	-0.116276	0	
2.8420	32.1875	-1.33717	0	
2.8427	16.2857	-1.62786	0	
2.8433	1.04184	1.10462	0	
2.8440	-5.04472	1.45345	0	
2.8447	-16.0663	-0.697654	0	
2.8453	-35.8614	0.232551	0	
2.8460	-39.8642	0.813929	0	
2.8467	-23.3592	-0.406965	0	
2.8473	-10.2539	1.10462	0	
2.8480	-6.58006	1.74413	0	
2.8487	-1.09668	-0.116276	0	
2.8493	4.38671	0.813929	0	
2.8500	3.78354	2.03482	0	
2.8507	0.767674	-1.33717	0	
2.8513	-5.64789	-1.62786	0	
2.8520	-10.8571	1.74413	0	
2.8527	-9.32176	-0.697654	0	
2.8533	-9.92493	-5.29054	0	
2.8540	-14.531	-3.13944	0	
2.8547	-6.25106	-1.62786	0	
2.8553	14.4761	-4.36034	0	
2.8560	30.3231	-4.99985	0	
2.8567	33.1197	-1.91855	0	
2.8573	19.3564	-1.62786	0	
2.8580	-5.37372	-3.43013	0	
2.8587	-23.9624	-2.84875	0	
2.8593	-30.378	-1.91855	0	
2.8600	-33.7228	-3.13944	0	
2.8607	-33.7228	-3.77896	0	
2.8613	-25.4978	-3.13944	0	
2.8620	-15.4083	-4.06965	0	
2.8627	-5.97689	-3.43013	0	
2.8633	5.64789	-1.62786	0	
2.8640	12.9408	-3.43013	0	
2.8647	11.1313	-4.36034	0	
2.8653	8.38958	-1.62786	0	
2.8660	8.06058	-1.62786	0	
2.8667	5.31889	-5.29054	0	
2.8673	-2.02885	-4.99985	0	
2.8680	-8.38958	-3.43013	0	
2.8687	-14.531	-5.29054	0	
2.8693	-24.8946	-6.80212	0	
2.8700	-31.9133	-4.99985	0	
2.8707	-26.7041	-0.697654	0	
2.8713	-16.9437	1.10462	0	
2.8720	-8.38958	-1.33717	0	
2.8727	2.9062	-2.55806	0	
2.8733	16.2857	-0.697654	0	
2.8740	29.4458	1.45345	0	
2.8747	45.6218	3.89523	0	
2.8753	57.1917	5.11613	0	
2.8760	53.2437	4.7673	0	
2.8767	40.1384	5.11613	0	
2.8773	22.7012	6.62771	0	
2.8780	-6.25106	5.98819	0	
2.8787	-38.3289	4.7673	0	
2.8793	-52.0373	5.98819	0	
2.8800	-45.6218	8.77881	0	
2.8807	-33.4487	7.55792	0	
2.8813	-20.0144	2.03482	0	
2.8820	-10.2539	1.10462	0	
2.8827	-7.51224	5.11613	0	
2.8833	-7.18324	6.62771	0	
2.8840	-8.71859	3.25572	0	
2.8847	-17.8758	2.03482	0	
2.8853	-26.4299	3.25572	0	
2.8860	-20.9465	3.54641	0	
2.8867	-8.38958	1.45345	0	
2.8873	-0.767674	-0.697654	0	
2.8880	5.64789	-0.697654	0	
2.8887	17.2178	0.232551	0	
2.8893	25.4429	-0.406965	0	
2.8900	21.4949	-1.33717	0	
2.8907	9.26692	-0.116276	0	
2.8913	2.24819	1.10462	0	
2.8920	3.78354	0.232551	0	
2.8927	4.71571	-1.62786	0	
2.8933	2.9062	0.232551	0	
2.8940	0.767674	1.10462	0	
2.8947	-4.44154	-2.55806	0	
2.8953	-12.6666	-2.84875	0	
2.8960	-17.5468	0.813929	0	
2.8967	-16.0663	1.10462	0	
2.8973	-11.4603	0.52324	0	
2.8980	-6.90907	2.03482	0	
2.8987	-3.2352	-0.988343	0	
2.8993	0.109668	-5.29054	0	
2.9000	3.78354	-1.62786	0	
2.9007	10.5281	2.67434	0	
2.9013	21.8239	1.10462	0	
2.9020	31.2553	1.10462	0	
2.9027	29.72	2.67434	0	
2.9033	13.2698	0.52324	0	
2.9040	-6.25106	-0.697654	0	
2.9047	-11.4603	0.813929	0	
2.9053	-9.04759	0.813929	0	
2.9060	-17.8758	0.52324	0	
2.9067	-21.8239	1.10462	0	
2.9073	3.18036	0.232551	0	
2.9080	33.997	-0.116276	0	
2.9087	38.603	2.03482	0	
2.9093	21.1659	1.10462	0	
2.9100	-3.50937	-1.62786	0	
2.9107	-20.6175	-1.33717	0	
2.9113	-22.1529	-0.406965	0	
2.9120	-21.5497	0.232551	0	
2.9127	-26.4299	2.32551	0	
2.9133	-23.6882	2.03482	0	
2.9140	-16.3405	-1.62786	0	
2.9147	-20.0144	-0.697654	0	
2.9153	-25.8268	1.74413	0	
2.9160	-21.8239	-0.406965	0	
2.9167	-13.5988	-2.20924	0	
2.9173	-7.78641	-0.697654	0	
2.9180	-3.50937	-0.406965	0	
2.9187	0.767674	-1.62786	0	
2.9193	4.71571	-1.33717	0	
2.9200	5.64789	-1.33717	0	
2.9207	-0.164502	-3.43013	0	
2.9213	-2.30302	-3.43013	0	
2.9220	4.98988	-1.62786	0	
2.9227	14.4761	-2.55806	0	
2.9233	24.8397	-5.29054	0	
2.9240	38.274	-4.06965	0	
2.9247	40.1384	-1.62786	0	
2.9253	25.7719	-0.406965	0	
2.9260	13.873	0.813929	0	
2.9267	5.92206	1.10462	0	
2.9273	-13.5988	-0.406965	0	
2.9280	-36.7935	1.10462	0	
2.9287	-37.1225	4.18592	0	
2.9293	-16.3405	4.7673	0	
2.9300	1.37085	2.67434	0	
2.9307	8.06058	2.03482	0	
2.9313	13.544	3.89523	0	
2.9320	23.3044	4.7673	0	
2.9327	30.9811	2.32551	0	
2.9333	28.5136	1.10462	0	
2.9340	18.15	3.25572	0	
2.9347	8.06058	4.7673	0	
2.9353	-2.63203	4.7673	0	
2.9360	-10.8571	3.89523	0	
2.9367	-7.51224	2.32551	0	
2.9373	4.71571	1.74413	0	
2.9380	13.2698	2.03482	0	
2.9387	16.0115	1.10462	0	
2.9393	16.6147	0.232551	0	
2.9400	15.6825	1.74413	0	
2.9407	10.1991	2.96503	0	
2.9413	-7.51224	2.03482	0	
2.9420	-30.1038	0.52324	0	
