0.0000	33.0738	3.87457	1
0.0007	14.4594	5.10531	0	
0.0013	-5.3738	6.33606	0	
0.0020	-30.0822	4.78623	0	
0.0027	-47.2008	3.55549	0	
0.0033	-46.8684	4.46715	0	
0.0040	-37.4504	3.87457	0	
0.0047	-32.5198	3.55549	0	
0.0053	-33.794	5.69789	0	
0.0060	-32.2428	5.37881	0	
0.0067	-25.8164	1.73216	0	
0.0073	-18.836	0.227916	0	
0.0080	-9.63961	0.820497	0	
0.0087	-1.7174	2.05124	0	
0.0093	-2.0498	3.55549	0	
0.0100	-2.6592	3.55549	0	
0.0107	6.5372	3.87457	0	
0.0113	14.7364	6.60956	0	
0.0120	12.0218	5.69789	0	
0.0127	2.216	3.87457	0	
0.0133	-6.5926	4.78623	0	
0.0140	-10.249	4.19365	0	
0.0147	-6.3156	2.05124	0	
0.0153	4.0996	2.37032	0	
0.0160	15.3458	3.28199	0	
0.0167	26.3704	3.55549	0	
0.0173	39.5002	5.10531	0	
0.0180	48.6412	6.60956	0	
0.0187	48.0318	6.60956	0	
0.0193	38.5584	6.60956	0	
0.0200	24.5422	4.78623	0	
0.0207	12.2988	2.9629	0	
0.0213	4.986	2.05124	0	
0.0220	-8.75321	-0.683747	0	
0.0227	-32.5198	-3.14524	0	
0.0233	-44.1538	-1.91449	0	
0.0240	-37.4504	0.227916	0	
0.0247	-28.5864	1.41308	0	
0.0253	-21.2736	2.9629	0	
0.0260	-12.4096	3.87457	0	
0.0267	-9.97201	3.87457	0	
0.0273	-12.4096	2.64382	0	
0.0280	-14.2378	1.41308	0	
0.0287	-17.8942	1.73216	0	
0.0293	-20.6642	3.55549	0	
0.0300	-20.9412	6.01698	0	
0.0307	-23.9882	9.07105	0	
0.0313	-21.2736	12.3986	0	
0.0320	-5.7062	11.2135	0	
0.0327	8.64241	1.13958	0	
0.0333	11.4124	-9.84596	0	
0.0340	10.1936	-11.0767	0	
0.0347	9.86121	-4.37598	0	
0.0353	8.36541	0.501415	0	
0.0360	5.9278	1.73216	0	
0.0367	5.3184	2.05124	0	
0.0373	10.4706	2.64382	0	
0.0380	19.3346	3.87457	0	
0.0387	26.6474	2.9629	0	
0.0393	34.902	0.501415	0	
0.0400	42.2148	-0.683747	0	
0.0407	33.0738	0.501415	0	
0.0413	4.709	1.13958	0	
0.0420	-17.2848	-1.00283	0	
0.0427	-20.9412	-4.37598	0	
0.0433	-19.7224	-4.0569	0	
0.0440	-21.883	0.227916	0	
0.0447	-22.16	1.41308	0	
0.0453	-19.113	-1.00283	0	
0.0460	-14.5148	-0.683747	0	
0.0467	-10.8584	1.41308	0	
0.0473	-11.1908	-1.32191	0	
0.0480	-8.42081	-3.14524	0	
0.0487	0.7202	0.501415	0	
0.0493	5.9278	2.64382	0	
0.0500	8.03301	0.227916	0	
0.0507	15.9552	-1.00283	0	
0.0513	21.1628	-1.64099	0	
0.0520	16.5646	-4.37598	0	
0.0527	14.127	-4.96856	0	
0.0533	15.6782	-3.46432	0	
0.0540	8.03301	-3.46432	0	
0.0547	-7.5344	-3.46432	0	
0.0553	-17.2848	-1.64099	0	
0.0560	-15.789	-0.683747	0	
0.0567	-9.36261	-1.00283	0	
0.0573	-1.108	-3.46432	0	
0.0580	6.8142	-6.51839	0	
0.0587	12.2988	-5.60673	0	
0.0593	21.1628	-2.82616	0	
0.0600	36.7302	-3.46432	0	
0.0607	42.5472	-3.73782	0	
0.0613	28.1986	-1.64099	0	
0.0620	11.4124	-1.00283	0	
0.0627	0.997201	-1.00283	0	
0.0633	-15.4566	-0.410248	0	
0.0640	-33.794	-1.64099	0	
0.0647	-32.8522	-1.64099	0	
0.0653	-17.8942	-0.410248	0	
0.0660	-11.8002	-1.00283	0	
0.0667	-20.0548	-0.683747	0	
0.0673	-28.254	2.05124	0	
0.0680	-25.207	2.05124	0	
0.0687	-16.066	-1.64099	0	
0.0693	-13.6284	-1.91449	0	
0.0700	-19.7224	-0.683747	0	
0.0707	-23.3788	-1.91449	0	
0.0713	-15.4566	-2.55266	0	
0.0720	-0.831001	-1.32191	0	
0.0727	12.0218	-2.23357	0	
0.0733	23.3234	-4.37598	0	
0.0740	34.5696	-3.14524	0	
0.0747	35.7884	-2.23357	0	
0.0753	21.1628	-3.46432	0	
0.0760	2.8808	-2.55266	0	
0.0767	-10.8584	-0.683747	0	
0.0773	-21.2736	-2.23357	0	
0.0780	-23.7112	-2.82616	0	
0.0787	-15.4566	-2.55266	0	
0.0793	-4.4874	-3.46432	0	
0.0800	2.5484	-2.23357	0	
0.0807	7.4236	-1.32191	0	
0.0813	9.58421	-3.46432	0	
0.0820	7.1466	-3.14524	0	
0.0827	3.7672	-2.23357	0	
0.0833	4.709	-5.28765	0	
0.0840	7.4236	-4.64948	0	
0.0847	12.0218	-0.410248	0	
0.0853	22.1046	-0.683747	0	
0.0860	33.0738	-2.82616	0	
0.0867	39.7772	-1.32191	0	
0.0873	42.5472	-0.410248	0	
0.0880	33.0738	-1.64099	0	
0.0887	6.5372	-0.683747	0	
0.0893	-15.4566	-0.410248	0	
0.0900	-14.8472	-2.82616	0	
0.0907	-5.9832	-4.37598	0	
0.0913	-3.5456	-2.82616	0	
0.0920	-4.7644	-2.55266	0	
0.0927	-8.14381	-4.37598	0	
0.0933	-17.2848	-5.60673	0	
0.0940	-27.3676	-4.37598	0	
0.0947	-28.5864	-2.55266	0	
0.0953	-22.16	-1.00283	0	
0.0960	-20.6642	-0.410248	0	
0.0967	-22.4924	-1.64099	0	
0.0973	-14.5148	-5.28765	0	
0.0980	-3.878	-5.28765	0	
0.0987	-4.7644	1.41308	0	
0.0993	-9.03021	8.43288	0	
0.1000	-3.5456	8.43288	0	
0.1007	2.5484	2.37032	0	
0.1013	0.7202	-7.43005	0	
0.1020	-4.4874	-15.635	0	
0.1027	-7.5344	-11.9884	0	
0.1033	-8.42081	-1.91449	0	
0.1040	-12.6866	-1.00283	0	
0.1047	-20.9412	-4.0569	0	
0.1053	-22.7694	-0.410248	0	
0.1060	-17.8942	2.05124	0	
0.1067	-14.5148	0.227916	0	
0.1073	-9.63961	2.9629	0	
0.1080	3.7672	4.46715	0	
0.1087	16.5646	0.227916	0	
0.1093	24.8192	-1.00283	0	
0.1100	34.902	2.05124	0	
0.1107	44.3754	1.41308	0	
0.1113	46.2036	0.227916	0	
0.1120	47.6994	2.64382	0	
0.1127	43.1566	3.87457	0	
0.1133	16.897	3.87457	0	
0.1140	-21.883	5.69789	0	
0.1147	-44.1538	6.60956	0	
0.1153	-41.9932	5.10531	0	
0.1160	-31.9104	3.87457	0	
0.1167	-31.9104	2.64382	0	
0.1173	-36.2316	2.37032	0	
0.1180	-28.8634	5.10531	0	
0.1187	-13.9054	6.60956	0	
0.1193	-8.75321	3.87457	0	
0.1200	-12.0772	2.05124	0	
0.1207	-15.1242	2.64382	0	
0.1213	-17.2848	-0.0911663	0	
0.1220	-17.2848	-2.23357	0	
0.1227	-16.066	0.227916	0	
0.1233	-17.2848	1.41308	0	
0.1240	-17.0078	0.501415	0	
0.1247	-11.1908	2.05124	0	
0.1253	-7.5344	3.55549	0	
0.1260	-8.14381	1.13958	0	
0.1267	-6.5926	0.501415	0	
0.1273	-3.5456	2.9629	0	
0.1280	0.997201	2.37032	0	
0.1287	11.6894	1.73216	0	
0.1293	24.5422	3.28199	0	
0.1300	31.2456	1.73216	0	
0.1307	35.179	-2.82616	0	
0.1313	38.5584	-1.91449	0	
0.1320	38.2814	3.28199	0	
0.1327	27.5892	2.9629	0	
0.1333	5.9278	-0.0911663	0	
0.1340	-13.6284	0.501415	0	
0.1347	-16.3984	1.13958	0	
0.1353	-8.14381	-1.00283	0	
0.1360	-1.7174	-1.00283	0	
0.1367	5.9278	-0.410248	0	
0.1373	14.7364	-1.91449	0	
0.1380	18.7252	-1.91449	0	
0.1387	21.1628	-0.410248	0	
0.1393	22.3816	-1.32191	0	
0.1400	13.85	-1.00283	0	
0.1407	-0.831001	2.9629	0	
0.1413	-12.6866	5.69789	0	
0.1420	-21.2736	2.9629	0	
0.1427	-24.5976	0.227916	0	
0.1433	-19.113	-0.0911663	0	
0.1440	-12.4096	0.227916	0	
0.1447	-9.36261	0.820497	0	
0.1453	-6.3156	1.41308	0	
0.1460	-3.5456	-0.683747	0	
0.1467	-0.4986	-3.46432	0	
0.1473	9.58421	-2.82616	0	
0.1480	20.8858	-1.64099	0	
0.1487	22.1046	-3.14524	0	
0.1493	17.5064	-2.82616	0	
0.1500	13.85	-0.683747	0	
0.1507	9.25181	-1.00283	0	
0.1513	7.4236	-3.73782	0	
0.1520	8.97481	-3.73782	0	
0.1527	9.86121	-1.64099	0	
0.1533	8.64241	-0.0911663	0	
0.1540	4.709	0.227916	0	
0.1547	-2.6592	0.820497	0	
0.1553	-3.878	0.820497	0	
0.1560	2.8808	-0.0911663	0	
0.1567	8.03301	0.820497	0	
0.1573	8.97481	3.55549	0	
0.1580	10.4706	3.87457	0	
0.1587	10.1936	2.05124	0	
0.1593	7.75601	-0.410248	0	
0.1600	3.7672	-0.683747	0	
0.1607	-1.7174	1.13958	0	
0.1613	-1.108	1.13958	0	
0.1620	8.03301	-2.55266	0	
0.1627	19.3346	-3.14524	0	
0.1633	27.8662	-0.0911663	0	
0.1640	27.5892	-0.410248	0	
0.1647	14.4594	-1.91449	0	
0.1653	4.709	1.13958	0	
0.1660	9.25181	4.46715	0	
0.1667	10.1936	4.46715	0	
0.1673	-4.155	2.9629	0	
0.1680	-16.3984	1.13958	0	
0.1687	-16.6754	-1.91449	0	
0.1693	-14.8472	-2.55266	0	
0.1700	-18.5036	0.227916	0	
0.1707	-26.1488	4.78623	0	
0.1713	-25.8164	10.5753	0	
0.1720	-9.97201	9.39013	0	
0.1727	8.03301	-4.0569	0	
0.1733	10.803	-15.3615	0	
0.1740	6.2048	-11.6693	0	
0.1747	5.5954	-3.46432	0	
0.1753	7.1466	-1.91449	0	
0.1760	6.8142	-2.55266	0	
0.1767	-2.0498	-1.91449	0	
0.1773	-24.5976	-3.46432	0	
0.1780	-40.165	-3.46432	0	
0.1787	-35.2898	-0.410248	0	
0.1793	-26.1488	1.13958	0	
0.1800	-25.207	0.227916	0	
0.1807	-20.9412	-1.32191	0	
0.1813	-12.6866	-2.55266	0	
0.1820	-8.14381	-0.410248	0	
0.1827	-5.0968	1.13958	0	
0.1833	0.1108	0.227916	0	
0.1840	3.1578	2.64382	0	
0.1847	5.3184	6.92864	0	
0.1853	6.5372	3.87457	0	
0.1860	7.1466	-0.683747	0	
0.1867	6.8142	1.13958	0	
0.1873	2.216	3.55549	0	
0.1880	-9.03021	2.9629	0	
0.1887	-22.4924	2.37032	0	
0.1893	-27.6446	2.37032	0	
0.1900	-20.3318	2.64382	0	
0.1907	-8.14381	2.37032	0	
0.1913	-0.831001	0.227916	0	
0.1920	3.7672	-1.64099	0	
0.1927	7.4236	-1.32191	0	
0.1933	9.86121	-0.0911663	0	
0.1940	14.127	1.41308	0	
0.1947	15.3458	1.73216	0	
0.1953	7.1466	-0.0911663	0	
0.1960	2.216	-0.410248	0	
0.1967	7.1466	-0.410248	0	
0.1973	7.1466	-1.64099	0	
0.1980	1.939	-0.683747	0	
0.1987	1.3296	0.820497	0	
0.1993	-0.831001	-1.64099	0	
0.2000	-12.0772	-2.82616	0	
0.2007	-23.7112	-1.64099	0	
0.2013	-25.5394	-2.55266	0	
0.2020	-17.6172	-4.64948	0	
0.2027	-10.8584	-4.96856	0	
0.2033	-8.75321	-1.91449	0	
0.2040	-6.3156	0.227916	0	
0.2047	-5.9832	-3.14524	0	
0.2053	-7.81141	-7.11097	0	
0.2060	-3.5456	-6.19931	0	
0.2067	5.5954	-4.37598	0	
0.2073	9.25181	-4.37598	0	
0.2080	6.5372	-1.64099	0	
0.2087	3.1578	-0.410248	0	
0.2093	4.3766	-3.73782	0	
0.2100	12.9082	-4.37598	0	
0.2107	26.038	-1.64099	0	
0.2113	34.902	-3.14524	0	
0.2120	28.808	-5.60673	0	
0.2127	11.08	-4.37598	0	
0.2133	-1.7174	-1.91449	0	
0.2140	-4.4874	-0.0911663	0	
0.2147	-8.14381	-0.410248	0	
0.2153	-14.8472	-2.55266	0	
0.2160	-15.1242	-2.82616	0	
0.2167	-9.97201	-0.0911663	0	
0.2173	-5.0968	-0.683747	0	
0.2180	-0.831001	-1.00283	0	
0.2187	0.1108	0.820497	0	
0.2193	-3.5456	0.501415	0	
0.2200	-7.202	-0.683747	0	
0.2207	-10.8584	0.501415	0	
0.2213	-17.2848	0.820497	0	
0.2220	-19.113	-0.0911663	0	
0.2227	-16.3984	2.05124	0	
0.2233	-12.4096	2.05124	0	
0.2240	-2.6592	-1.00283	0	
0.2247	10.803	0.227916	0	
0.2253	21.4952	4.19365	0	
0.2260	37.949	4.78623	0	
0.2267	60.5522	4.19365	0	
0.2273	71.5214	5.10531	0	
0.2280	57.1728	2.9629	0	
0.2287	22.1046	-0.683747	0	
0.2293	-11.8002	1.13958	0	
0.2300	-29.4728	7.52122	0	
0.2307	-41.3838	10.3018	0	
0.2313	-50.2478	9.39013	0	
0.2320	-36.5086	4.46715	0	
0.2327	-8.14381	-6.79189	0	
0.2333	4.709	-14.4499	0	
0.2340	2.216	-8.61521	0	
0.2347	2.8808	-0.683747	0	
0.2353	3.1578	-0.683747	0	
0.2360	-3.878	-3.46432	0	
0.2367	-15.1242	-3.46432	0	
0.2373	-20.9412	-1.32191	0	
0.2380	-15.1242	0.501415	0	
0.2387	-6.3156	-0.0911663	0	
0.2393	-6.925	-2.23357	0	
0.2400	-13.9054	-0.683747	0	
0.2407	-19.113	1.73216	0	
0.2413	-18.2266	1.73216	0	
0.2420	-12.6866	1.13958	0	
0.2427	-10.8584	2.05124	0	
0.2433	-13.6284	-0.0911663	0	
0.2440	-13.019	-2.82616	0	
0.2447	-15.4566	-3.46432	0	
0.2453	-28.254	-4.37598	0	
0.2460	-37.4504	-4.37598	0	
0.2467	-32.5198	-1.64099	0	
0.2473	-25.5394	-2.23357	0	
0.2480	-17.2848	-4.37598	0	
0.2487	1.3296	-2.82616	0	
0.2493	18.3928	-2.55266	0	
0.2500	23.9328	-5.88023	0	
0.2507	27.2568	-5.28765	0	
0.2513	34.5696	-3.73782	0	
0.2520	39.5002	-5.88023	0	
0.2527	36.7302	-5.60673	0	
0.2533	29.085	-3.14524	0	
0.2540	22.3816	-3.73782	0	
0.2547	19.3346	-3.14524	0	
0.2553	15.9552	-0.683747	0	
0.2560	11.08	-0.683747	0	
0.2567	9.25181	-2.55266	0	
0.2573	11.08	-3.46432	0	
0.2580	9.86121	-4.37598	0	
0.2587	5.5954	-2.23357	0	
0.2593	4.0996	0.820497	0	
0.2600	11.6894	0.227916	0	
0.2607	25.1516	-2.23357	0	
0.2613	34.902	-2.82616	0	
0.2620	37.6166	-2.55266	0	
0.2627	36.1208	-1.91449	0	
0.2633	34.5696	-1.64099	0	
0.2640	37.0072	-1.00283	0	
0.2647	35.179	-1.64099	0	
0.2653	11.4124	-1.91449	0	
0.2660	-26.4258	-1.32191	0	
0.2667	-45.6496	-0.0911663	0	
0.2673	-40.165	-0.0911663	0	
0.2680	-34.071	0.227916	0	
0.2687	-37.4504	0.227916	0	
0.2693	-38.6692	1.41308	0	
0.2700	-33.794	5.69789	0	
0.2707	-27.3676	7.24772	0	
0.2713	-20.0548	3.55549	0	
0.2720	-9.63961	2.05124	0	
0.2727	-0.831001	3.55549	0	
0.2733	2.5484	2.05124	0	
0.2740	3.7672	0.501415	0	
0.2747	4.3766	2.64382	0	
0.2753	2.216	3.28199	0	
0.2760	1.939	3.28199	0	
0.2767	7.1466	5.69789	0	
0.2773	14.127	5.69789	0	
0.2780	19.3346	1.73216	0	
0.2787	24.2098	-0.683747	0	
0.2793	24.8192	0.227916	0	
0.2800	15.6782	-0.0911663	0	
0.2807	5.5954	-0.410248	0	
0.2813	3.7672	1.41308	0	
0.2820	1.939	2.9629	0	
0.2827	-10.5814	1.13958	0	
0.2833	-21.883	0.227916	0	
0.2840	-20.0548	1.73216	0	
0.2847	-10.8584	2.05124	0	
0.2853	-4.4874	2.9629	0	
0.2860	-1.4404	5.37881	0	
0.2867	-0.831001	4.78623	0	
0.2873	-2.0498	2.37032	0	
0.2880	-9.97201	2.9629	0	
0.2887	-26.4258	4.46715	0	
0.2893	-39.2786	2.05124	0	
0.2900	-35.6222	0.227916	0	
0.2907	-19.113	2.05124	0	
0.2913	-5.3738	2.9629	0	
0.2920	1.939	1.41308	0	
0.2927	8.64241	1.13958	0	
0.2933	15.0688	1.73216	0	
0.2940	11.6894	1.13958	0	
0.2947	1.6066	0.227916	0	
0.2953	-0.2216	1.13958	0	
0.2960	4.3766	3.55549	0	
0.2967	3.7672	3.87457	0	
0.2973	-0.831001	-0.683747	0	
0.2980	-0.831001	-5.60673	0	
0.2987	2.8808	-4.64948	0	
0.2993	11.08	-0.0911663	0	
0.3000	21.7722	4.19365	0	
0.3007	21.7722	8.43288	0	
0.3013	7.1466	5.69789	0	
0.3020	-5.3738	-7.11097	0	
0.3027	-4.4874	-15.3615	0	
0.3033	-3.5456	-9.84596	0	
0.3040	-14.5148	-2.55266	0	
0.3047	-23.9882	-3.46432	0	
0.3053	-20.3318	-6.51839	0	
0.3060	-11.8002	-6.19931	0	
0.3067	-5.3738	-4.37598	0	
0.3073	0.7202	-3.46432	0	
0.3080	10.803	-3.73782	0	
0.3087	21.4952	-2.82616	0	
0.3093	26.6474	-3.46432	0	
0.3100	28.4756	-5.88023	0	
0.3107	31.855	-5.28765	0	
0.3113	23.9328	-3.46432	0	
0.3120	-5.3738	-4.37598	0	
0.3127	-31.301	-4.37598	0	
0.3133	-35.6222	-0.0911663	0	
0.3140	-30.4146	1.73216	0	
0.3147	-22.16	-0.683747	0	
0.3153	-5.9832	-1.91449	0	
0.3160	5.5954	-0.683747	0	
0.3167	6.5372	-0.683747	0	
0.3173	9.25181	-1.32191	0	
0.3180	14.7364	-1.00283	0	
0.3187	13.5176	-0.683747	0	
0.3193	9.86121	-1.32191	0	
0.3200	13.5176	-1.64099	0	
0.3207	19.6116	-1.64099	0	
0.3213	20.2764	-1.32191	0	
0.3220	17.5064	-3.14524	0	
0.3227	16.2876	-4.96856	0	
0.3233	13.85	-3.46432	0	
0.3240	9.25181	0.227916	0	
0.3247	4.986	0.227916	0	
0.3253	-1.108	-1.91449	0	
0.3260	-8.42081	-2.55266	0	
0.3267	-13.296	-1.64099	0	
0.3273	-19.113	-1.00283	0	
0.3280	-23.9882	-1.64099	0	
0.3287	-19.7224	-4.0569	0	
0.3293	-11.8002	-5.28765	0	
0.3300	-7.202	-3.14524	0	
0.3307	-0.831001	-0.0911663	0	
0.3313	4.986	-0.683747	0	
0.3320	8.36541	-3.73782	0	
0.3327	13.85	-5.28765	0	
0.3333	14.7364	-4.64948	0	
0.3340	12.9082	-3.73782	0	
0.3347	21.7722	-2.55266	0	
0.3353	27.8662	-1.64099	0	
0.3360	14.127	-2.23357	0	
0.3367	-0.4986	-2.55266	0	
0.3373	-0.831001	-1.91449	0	
0.3380	-6.925	-1.91449	0	
0.3387	-24.93	-2.23357	0	
0.3393	-32.8522	-1.32191	0	
0.3400	-21.883	-0.683747	0	
0.3407	-10.249	-1.32191	0	
0.3413	-7.81141	0.227916	0	
0.3420	-12.4096	2.9629	0	
0.3427	-22.7694	3.28199	0	
0.3433	-34.6804	0.227916	0	
0.3440	-37.4504	-2.23357	0	
0.3447	-31.024	-0.683747	0	
0.3453	-21.5506	0.820497	0	
0.3460	-13.296	-1.91449	0	
0.3467	-8.75321	-4.96856	0	
0.3473	-7.202	-4.37598	0	
0.3480	-5.3738	-3.73782	0	
0.3487	-1.4404	-3.46432	0	
0.3493	7.4236	-1.00283	0	
0.3500	20.5534	0.227916	0	
0.3507	33.3508	-0.0911663	0	
0.3513	39.7772	2.05124	0	
0.3520	31.5226	2.9629	0	
0.3527	7.1466	-0.0911663	0	
0.3533	-17.0078	-1.64099	0	
0.3540	-28.254	1.13958	0	
0.3547	-33.794	5.10531	0	
0.3553	-35.8992	8.15938	0	
0.3560	-31.024	5.69789	0	
0.3567	-23.1018	1.13958	0	
0.3573	-16.3984	0.501415	0	
0.3580	-8.14381	2.37032	0	
0.3587	4.709	2.37032	0	
0.3593	18.1158	2.05124	0	
0.3600	28.1986	2.64382	0	
0.3607	30.9132	2.9629	0	
0.3613	24.2098	4.19365	0	
0.3620	8.64241	2.9629	0	
0.3627	-6.3156	0.227916	0	
0.3633	-13.296	1.73216	0	
0.3640	-18.2266	3.87457	0	
0.3647	-24.5976	3.55549	0	
0.3653	-21.883	4.46715	0	
0.3660	-6.925	4.46715	0	
0.3667	5.9278	2.05124	0	
0.3673	7.75601	1.73216	0	
0.3680	4.0996	3.87457	0	
0.3687	4.3766	3.28199	0	
0.3693	7.1466	2.9629	0	
0.3700	5.5954	6.01698	0	
0.3707	0.1108	8.43288	0	
0.3713	-3.5456	7.8403	0	
0.3720	-4.4874	4.19365	0	
0.3727	-0.4986	1.13958	0	
0.3733	4.709	2.05124	0	
0.3740	7.4236	4.19365	0	
0.3747	11.08	7.52122	0	
0.3753	12.9082	10.5753	0	
0.3760	7.1466	6.60956	0	
0.3767	3.4902	-6.79189	0	
0.3773	8.36541	-15.3615	0	
0.3780	9.58421	-10.4841	0	
0.3787	0.997201	-3.73782	0	
0.3793	-9.97201	-4.37598	0	
0.3800	-19.113	-4.96856	0	
0.3807	-21.883	0.501415	0	
0.3813	-16.3984	4.78623	0	
0.3820	-10.249	3.87457	0	
0.3827	-7.202	2.9629	0	
0.3833	-5.3738	3.87457	0	
0.3840	-3.2686	4.78623	0	
0.3847	-0.4986	2.9629	0	
0.3853	0.997201	1.41308	0	
0.3860	-0.2216	2.64382	0	
0.3867	1.3296	3.87457	0	
0.3873	6.5372	3.55549	0	
0.3880	10.4706	3.55549	0	
0.3887	12.2988	3.28199	0	
0.3893	13.85	2.64382	0	
0.3900	12.9082	1.13958	0	
0.3907	11.08	-0.410248	0	
0.3913	12.0218	-2.82616	0	
0.3920	14.7364	-4.96856	0	
0.3927	18.3928	-3.46432	0	
0.3933	23.9328	0.227916	0	
0.3940	30.0268	1.41308	0	
0.3947	33.0738	0.227916	0	
0.3953	33.9602	0.227916	0	
0.3960	36.1208	0.227916	0	
0.3967	33.3508	-1.91449	0	
0.3973	17.5064	-1.64099	0	
0.3980	0.1108	0.501415	0	
0.3987	-2.6592	-0.0911663	0	
0.3993	-1.7174	-1.00283	0	
0.4000	-13.6284	-0.410248	0	
0.4007	-28.5864	-1.32191	0	
0.4013	-37.118	-1.64099	0	
0.4020	-44.7632	1.13958	0	
0.4027	-42.935	2.05124	0	
0.4033	-20.9412	-0.683747	0	
0.4040	4.709	-1.00283	0	
0.4047	12.9082	-1.00283	0	
0.4053	11.4124	-2.23357	0	
0.4060	12.9082	-0.683747	0	
0.4067	12.0218	2.05124	0	
0.4073	-2.6592	2.05124	0	
0.4080	-24.3206	0.227916	0	
0.4087	-32.2428	0.820497	0	
0.4093	-23.3788	2.05124	0	
0.4100	-14.5148	1.13958	0	
0.4107	-13.019	-0.683747	0	
0.4113	-10.8584	-1.64099	0	
0.4120	-8.14381	-1.32191	0	
0.4127	-6.3156	-0.683747	0	
0.4133	-0.2216	-1.32191	0	
0.4140	7.4236	-2.82616	0	
0.4147	5.3184	-3.14524	0	
0.4153	-6.3156	-1.64099	0	
0.4160	-11.8002	-0.683747	0	
0.4167	-5.9832	0.227916	0	
0.4173	3.7672	1.41308	0	
0.4180	8.36541	0.820497	0	
0.4187	7.75601	-0.683747	0	
0.4193	7.1466	-0.0911663	0	
0.4200	9.25181	2.05124	0	
0.4207	12.0218	3.55549	0	
0.4213	11.08	3.87457	0	
0.4220	5.3184	3.55549	0	
0.4227	-3.5456	3.28199	0	
0.4233	-11.4678	3.87457	0	
0.4240	-13.9054	5.37881	0	
0.4247	-12.4096	4.78623	0	
0.4253	-9.97201	2.37032	0	
0.4260	-6.3156	1.13958	0	
0.4267	-1.7174	1.13958	0	
0.4273	1.6066	1.13958	0	
0.4280	3.7672	1.13958	0	
0.4287	5.5954	2.05124	0	
0.4293	6.8142	-0.410248	0	
0.4300	4.3766	-2.82616	0	
0.4307	-1.108	-0.410248	0	
0.4313	-2.9362	2.9629	0	
0.4320	2.8808	2.05124	0	
0.4327	10.1936	1.41308	0	
0.4333	15.6782	3.87457	0	
0.4340	23.9328	3.87457	0	
0.4347	34.902	2.9629	0	
0.4353	41.6054	4.46715	0	
0.4360	36.1208	4.78623	0	
0.4367	14.127	2.05124	0	
0.4373	-12.0772	0.501415	0	
0.4380	-24.5976	1.73216	0	
0.4387	-22.4924	-0.683747	0	
0.4393	-17.0078	-3.73782	0	
0.4400	-12.4096	-3.46432	0	
0.4407	-7.5344	-1.64099	0	
0.4413	-2.6592	-1.32191	0	
0.4420	-0.831001	-3.14524	0	
0.4427	-1.4404	-4.37598	0	
0.4433	-2.0498	-3.14524	0	
0.4440	-4.4874	-2.23357	0	
0.4447	-10.8584	-3.46432	0	
0.4453	-15.4566	-2.82616	0	
0.4460	-10.5814	-1.64099	0	
0.4467	2.8808	-3.73782	0	
0.4473	18.3928	-6.51839	0	
0.4480	26.3704	-8.02263	0	
0.4487	24.8192	-8.61521	0	
0.4493	19.3346	-6.51839	0	
0.4500	13.2406	-1.32191	0	
0.4507	2.5484	3.87457	0	
0.4513	-11.8002	4.78623	0	
0.4520	-14.5148	-4.64948	0	
0.4527	3.7672	-18.6891	0	
0.4533	26.6474	-19.0082	0	
0.4540	36.3978	-8.02263	0	
0.4547	31.5226	-4.37598	0	
0.4553	14.7364	-5.60673	0	
0.4560	-8.14381	-3.14524	0	
0.4567	-20.6642	-1.64099	0	
0.4573	-24.5976	-2.23357	0	
0.4580	-36.5086	-0.410248	0	
0.4587	-48.4196	1.73216	0	
0.4593	-47.8102	2.05124	0	
0.4600	-41.7162	1.13958	0	
0.4607	-35.2898	-0.0911663	0	
0.4613	-23.9882	-0.410248	0	
0.4620	-16.3984	1.73216	0	
0.4627	-18.2266	2.9629	0	
0.4633	-20.6642	2.05124	0	
0.4640	-18.5036	2.37032	0	
0.4647	-13.296	2.05124	0	
0.4653	-7.81141	-0.410248	0	
0.4660	-6.3156	-1.64099	0	
0.4667	-6.3156	-1.32191	0	
0.4673	0.1108	-2.55266	0	
0.4680	7.75601	-4.37598	0	
0.4687	6.2048	-2.55266	0	
0.4693	2.216	1.13958	0	
0.4700	5.5954	1.13958	0	
0.4707	9.58421	-0.410248	0	
0.4713	9.25181	-0.0911663	0	
0.4720	8.36541	0.501415	0	
0.4727	5.3184	-1.32191	0	
0.4733	-1.108	-3.14524	0	
0.4740	-2.9362	-2.55266	0	
0.4747	2.216	-1.00283	0	
0.4753	8.36541	0.227916	0	
0.4760	15.0688	0.820497	0	
0.4767	21.1628	0.227916	0	
0.4773	20.5534	-0.0911663	0	
0.4780	16.2876	2.05124	0	
0.4787	16.2876	3.87457	0	
0.4793	17.7834	3.55549	0	
0.4800	15.0688	4.46715	0	
0.4807	8.97481	5.10531	0	
0.4813	3.4902	2.9629	0	
0.4820	2.8808	2.05124	0	
0.4827	6.5372	5.10531	0	
0.4833	10.1936	7.24772	0	
0.4840	14.7364	6.01698	0	
0.4847	22.714	5.10531	0	
0.4853	31.5226	4.19365	0	
0.4860	35.179	2.9629	0	
0.4867	25.4286	3.87457	0	
0.4873	-1.4404	4.78623	0	
0.4880	-25.8164	3.87457	0	
0.4887	-30.4146	2.37032	0	
0.4893	-27.6446	1.73216	0	
0.4900	-26.7582	0.820497	0	
0.4907	-18.2266	0.227916	0	
0.4913	-6.3156	0.227916	0	
0.4920	-5.0968	0.227916	0	
0.4927	-7.5344	-0.683747	0	
0.4933	-1.4404	-1.91449	0	
0.4940	9.25181	-3.46432	0	
0.4947	19.6116	-3.73782	0	
0.4953	32.7414	-3.14524	0	
0.4960	47.6994	0.227916	0	
0.4967	56.2864	1.13958	0	
0.4973	53.5164	-2.55266	0	
0.4980	42.2148	-4.37598	0	
0.4987	25.4286	-0.0911663	0	
0.4993	8.03301	2.05124	0	
0.5000	-9.63961	-1.32191	0	
0.5007	-30.0822	-3.14524	0	
0.5013	-37.4504	-1.00283	0	
0.5020	-15.789	1.41308	0	
0.5027	12.2988	2.9629	0	
0.5033	17.174	1.73216	0	
0.5040	7.1466	-2.82616	0	
0.5047	-3.5456	-5.28765	0	
0.5053	-22.7694	-1.32191	0	
0.5060	-52.6854	5.37881	0	
0.5067	-71.2998	9.66363	0	
0.5073	-66.7016	10.5753	0	
0.5080	-53.0178	2.37032	0	
0.5087	-44.7632	-11.3958	0	
0.5093	-36.5086	-15.0424	0	
0.5100	-25.5394	-6.79189	0	
0.5107	-21.5506	-1.64099	0	
0.5113	-20.6642	-3.46432	0	
0.5120	-13.296	-4.64948	0	
0.5127	-5.3738	-2.55266	0	
0.5133	-2.0498	-0.0911663	0	
0.5140	2.216	-0.683747	0	
0.5147	8.03301	-3.46432	0	
0.5153	12.9082	-4.37598	0	
0.5160	14.7364	-2.55266	0	
0.5167	11.6894	-1.64099	0	
0.5173	8.36541	-0.683747	0	
0.5180	9.25181	0.227916	0	
0.5187	7.75601	0.501415	0	
0.5193	5.9278	2.05124	0	
0.5200	12.0218	2.9629	0	
0.5207	19.3346	0.227916	0	
0.5213	15.9552	-1.91449	0	
0.5220	6.5372	-0.683747	0	
0.5227	0.1108	0.227916	0	
0.5233	-0.4986	-1.64099	0	
0.5240	4.986	-3.46432	0	
0.5247	19.0022	-5.60673	0	
0.5253	33.9602	-5.60673	0	
0.5260	39.5002	-1.64099	0	
0.5267	35.179	1.41308	0	
0.5273	22.714	1.13958	0	
0.5280	-1.108	0.227916	0	
0.5287	-25.5394	0.227916	0	
0.5293	-31.9104	-0.410248	0	
0.5300	-24.3206	-1.32191	0	
0.5307	-19.7224	-1.32191	0	
0.5313	-20.9412	-0.683747	0	
0.5320	-23.1018	-0.410248	0	
0.5327	-26.4258	0.501415	0	
0.5333	-30.0822	0.227916	0	
0.5340	-27.3676	-2.82616	0	
0.5347	-17.0078	-2.55266	0	
0.5353	-6.3156	2.05124	0	
0.5360	-2.0498	2.64382	0	
0.5367	-3.5456	-1.32191	0	
0.5373	-8.14381	-3.14524	0	
0.5380	-11.4678	-1.32191	0	
0.5387	-8.42081	0.227916	0	
0.5393	2.216	-0.410248	0	
0.5400	12.6312	-0.0911663	0	
0.5407	18.1158	3.28199	0	
0.5413	24.8192	4.19365	0	
0.5420	33.3508	0.501415	0	
0.5427	35.5114	0.820497	0	
0.5433	29.085	2.05124	0	
0.5440	20.8858	-2.82616	0	
0.5447	20.5534	-4.37598	0	
0.5453	27.5892	0.227916	0	
0.5460	29.6944	-0.0911663	0	
0.5467	24.8192	-1.64099	0	
0.5473	22.991	2.9629	0	
0.5480	24.2098	4.19365	0	
0.5487	21.1628	0.227916	0	
0.5493	14.7364	-1.64099	0	
0.5500	7.4236	-1.91449	0	
0.5507	-3.878	-1.64099	0	
0.5513	-22.4924	0.501415	0	
0.5520	-39.5556	-0.0911663	0	
0.5527	-40.4974	-3.46432	0	
0.5533	-26.1488	-2.82616	0	
0.5540	-13.296	-1.32191	0	
0.5547	-10.249	-2.55266	0	
0.5553	-11.1908	-2.55266	0	
0.5560	-10.8584	-1.00283	0	
0.5567	-8.75321	-1.64099	0	
0.5573	-6.5926	-1.64099	0	
0.5580	-6.925	1.13958	0	
0.5587	-7.5344	2.37032	0	
0.5593	-7.5344	2.05124	0	
0.5600	-7.5344	2.37032	0	
0.5607	-4.155	3.55549	0	
0.5613	1.939	2.37032	0	
0.5620	5.5954	-0.0911663	0	
0.5627	8.97481	-0.410248	0	
0.5633	14.7364	0.820497	0	
0.5640	17.5064	1.13958	0	
0.5647	22.991	2.9629	0	
0.5653	33.0738	4.78623	0	
0.5660	32.7414	3.87457	0	
0.5667	24.2098	1.41308	0	
0.5673	22.1046	0.820497	0	
0.5680	15.3458	2.05124	0	
0.5687	-2.0498	4.19365	0	
0.5693	-8.75321	4.78623	0	
0.5700	-5.7062	3.55549	0	
0.5707	-14.8472	2.37032	0	
0.5713	-28.5864	0.227916	0	
0.5720	-30.0822	-1.64099	0	
0.5727	-27.3676	1.13958	0	
0.5733	-27.0352	4.78623	0	
0.5740	-27.3676	5.37881	0	
0.5747	-28.254	5.69789	0	
0.5753	-27.3676	-1.32191	0	
0.5760	-20.6642	-11.9884	0	
0.5767	-10.249	-11.3958	0	
0.5773	-0.831001	-4.37598	0	
0.5780	3.4902	-4.37598	0	
0.5787	3.7672	-6.19931	0	
0.5793	6.5372	-3.73782	0	
0.5800	9.58421	-4.37598	0	
0.5807	5.3184	-4.37598	0	
0.5813	-1.4404	-1.64099	0	
0.5820	-4.155	-1.32191	0	
0.5827	-7.81141	-2.23357	0	
0.5833	-12.6866	-2.82616	0	
0.5840	-13.296	-4.37598	0	
0.5847	-9.63961	-4.37598	0	
0.5853	-5.7062	-2.55266	0	
0.5860	-1.7174	-1.64099	0	
0.5867	-1.108	-1.64099	0	
0.5873	-6.925	-1.00283	0	
0.5880	-18.2266	-2.23357	0	
0.5887	-29.4728	-4.37598	0	
0.5893	-28.254	-4.0569	0	
0.5900	-13.9054	-2.55266	0	
0.5907	1.6066	-0.683747	0	
0.5913	14.7364	1.13958	0	
0.5920	30.6362	0.227916	0	
0.5927	43.4336	-1.64099	0	
0.5933	40.3866	-0.410248	0	
0.5940	26.9798	-0.0911663	0	
0.5947	18.7252	-2.82616	0	
0.5953	15.0688	-4.0569	0	
0.5960	6.5372	-2.55266	0	
0.5967	-8.75321	-1.64099	0	
0.5973	-22.4924	-0.683747	0	
0.5980	-27.0352	-1.00283	0	
0.5987	-23.1018	-2.55266	0	
0.5993	-10.8584	-0.683747	0	
0.6000	9.25181	1.13958	0	
0.6007	27.5892	-1.64099	0	
0.6013	33.3508	-2.23357	0	
0.6020	31.2456	2.64382	0	
0.6027	31.5226	3.55549	0	
0.6033	26.6474	1.41308	0	
0.6040	-1.7174	2.64382	0	
0.6047	-41.1068	2.37032	0	
0.6053	-57.893	1.73216	0	
0.6060	-46.8684	4.46715	0	
0.6067	-35.6222	3.87457	0	
0.6073	-35.2898	-0.410248	0	
0.6080	-35.6222	0.820497	0	
0.6087	-31.024	4.78623	0	
0.6093	-23.1018	4.78623	0	
0.6100	-19.113	3.87457	0	
0.6107	-19.4454	3.87457	0	
0.6113	-15.4566	3.87457	0	
0.6120	-5.7062	4.46715	0	
0.6127	2.8808	4.46715	0	
0.6133	9.86121	3.87457	0	
0.6140	12.9082	4.78623	0	
0.6147	6.5372	4.78623	0	
0.6153	0.1108	2.9629	0	
0.6160	2.216	4.19365	0	
0.6167	2.5484	4.78623	0	
0.6173	-0.831001	2.9629	0	
0.6180	-0.831001	3.87457	0	
0.6187	-2.0498	5.69789	0	
0.6193	-5.7062	4.19365	0	
0.6200	-3.2686	4.78623	0	
0.6207	6.2048	6.01698	0	
0.6213	13.85	5.37881	0	
0.6220	20.8858	6.60956	0	
0.6227	26.9798	8.43288	0	
0.6233	28.4756	6.01698	0	
0.6240	27.2568	4.46715	0	
0.6247	26.3704	5.10531	0	
0.6253	22.1046	3.87457	0	
0.6260	17.7834	5.10531	0	
0.6267	18.3928	7.8403	0	
0.6273	15.3458	5.69789	0	
0.6280	6.8142	3.55549	0	
0.6287	4.3766	4.46715	0	
0.6293	7.75601	2.37032	0	
0.6300	11.6894	-0.410248	0	
0.6307	18.1158	0.227916	0	
0.6313	22.991	-1.00283	0	
0.6320	21.1628	-2.82616	0	
0.6327	16.5646	-0.0911663	0	
0.6333	10.803	0.227916	0	
0.6340	2.5484	-3.14524	0	
0.6347	-1.7174	-1.64099	0	
0.6353	0.1108	1.13958	0	
0.6360	1.939	-0.410248	0	
0.6367	2.8808	-0.683747	0	
0.6373	1.6066	0.227916	0	
0.6380	-1.108	-1.64099	0	
0.6387	-3.2686	-4.0569	0	
0.6393	-4.4874	-4.96856	0	
0.6400	-8.14381	-5.28765	0	
0.6407	-13.9054	-3.46432	0	
0.6413	-20.6642	0.227916	0	
0.6420	-25.5394	2.37032	0	
0.6427	-22.4924	1.41308	0	
0.6433	-11.8002	-1.64099	0	
0.6440	-1.7174	-3.73782	0	
0.6447	7.1466	-0.410248	0	
0.6453	13.85	5.69789	0	
0.6460	12.0218	8.75196	0	
0.6467	2.216	7.52122	0	
0.6473	-3.878	-1.32191	0	
0.6480	-4.155	-13.8117	0	
0.6487	-6.3156	-17.1848	0	
0.6493	-9.97201	-9.25338	0	
0.6500	-6.925	-3.73782	0	
0.6507	7.75601	-3.46432	0	
0.6513	23.9328	-3.46432	0	
0.6520	31.2456	-5.28765	0	
0.6527	28.1986	-7.11097	0	
0.6533	11.08	-4.0569	0	
0.6540	-18.2266	-1.91449	0	
0.6547	-38.3368	-4.0569	0	
0.6553	-34.6804	-5.28765	0	
0.6560	-25.8164	-5.28765	0	
0.6567	-27.3676	-4.64948	0	
0.6573	-27.3676	-3.14524	0	
0.6580	-20.6642	-3.14524	0	
0.6587	-10.5814	-4.37598	0	
0.6593	0.1108	-1.91449	0	
0.6600	6.5372	0.227916	0	
0.6607	5.3184	-1.91449	0	
0.6613	4.0996	-3.46432	0	
0.6620	3.7672	-2.23357	0	
0.6627	-1.4404	-2.23357	0	
0.6633	-5.0968	-2.55266	0	
0.6640	-4.155	-2.55266	0	
0.6647	-5.7062	-2.23357	0	
0.6653	-2.9362	-0.410248	0	
0.6660	13.2406	0.227916	0	
0.6667	29.4174	-3.46432	0	
0.6673	35.7884	-5.88023	0	
0.6680	44.3754	-2.55266	0	
0.6687	53.184	0.227916	0	
0.6693	48.9182	2.05124	0	
0.6700	34.902	4.78623	0	
0.6707	21.1628	3.87457	0	
0.6713	5.5954	-0.683747	0	
0.6720	-20.9412	-3.14524	0	
0.6727	-53.9042	-2.55266	0	
0.6733	-66.7016	-1.64099	0	
0.6740	-45.6496	0.227916	0	
0.6747	-19.4454	1.13958	0	
0.6753	-14.2378	-0.410248	0	
0.6760	-19.113	-0.0911663	0	
0.6767	-21.2736	1.13958	0	
0.6773	-25.207	0.501415	0	
0.6780	-31.301	1.13958	0	
0.6787	-31.301	2.05124	0	
0.6793	-22.7694	-0.0911663	0	
0.6800	-11.8002	-1.00283	0	
0.6807	-5.0968	1.13958	0	
0.6813	-3.5456	0.820497	0	
0.6820	-3.5456	-1.00283	0	
0.6827	-2.0498	-1.91449	0	
0.6833	0.7202	-3.46432	0	
0.6840	0.3878	-3.46432	0	
0.6847	-2.6592	-1.00283	0	
0.6853	-2.3268	-1.91449	0	
0.6860	3.7672	-3.46432	0	
0.6867	9.25181	-2.23357	0	
0.6873	14.127	-0.683747	0	
0.6880	22.714	1.13958	0	
0.6887	28.1986	2.37032	0	
0.6893	25.761	1.13958	0	
0.6900	17.7834	0.501415	0	
0.6907	0.3878	2.05124	0	
0.6913	-22.4924	2.64382	0	
0.6920	-29.1958	3.55549	0	
0.6927	-15.1242	4.19365	0	
0.6933	-2.6592	1.13958	0	
0.6940	2.8808	-0.410248	0	
0.6947	8.97481	2.05124	0	
0.6953	12.2988	2.9629	0	
0.6960	13.85	0.820497	0	
0.6967	15.0688	1.13958	0	
0.6973	6.5372	1.73216	0	
0.6980	-6.925	0.227916	0	
0.6987	-9.03021	-2.23357	0	
0.6993	-5.9832	-3.14524	0	
0.7000	-7.5344	-4.0569	0	
0.7007	-5.9832	-4.0569	0	
0.7013	-1.4404	-1.91449	0	
0.7020	-3.5456	-1.64099	0	
0.7027	-4.7644	-4.37598	0	
0.7033	2.216	-4.0569	0	
0.7040	8.36541	-1.64099	0	
0.7047	9.25181	-1.64099	0	
0.7053	12.2988	-0.0911663	0	
0.7060	19.3346	2.9629	0	
0.7067	22.714	2.9629	0	
0.7073	20.2764	0.501415	0	
0.7080	18.1158	-1.00283	0	
0.7087	16.5646	-3.14524	0	
0.7093	8.64241	-1.91449	0	
0.7100	-5.9832	4.19365	0	
0.7107	-13.296	8.43288	0	
0.7113	-9.63961	5.10531	0	
0.7120	-9.36261	-5.28765	0	
0.7127	-18.2266	-14.1308	0	
0.7133	-22.16	-11.6693	0	
0.7140	-15.1242	-4.96856	0	
0.7147	-7.5344	-4.0569	0	
0.7153	-4.155	-3.73782	0	
0.7160	1.939	-1.64099	0	
0.7167	14.7364	-3.46432	0	
0.7173	28.4756	-5.28765	0	
0.7180	35.5114	-3.14524	0	
0.7187	35.7884	-1.91449	0	
0.7193	33.9602	-1.32191	0	
0.7200	28.4756	0.501415	0	
0.7207	19.944	0.501415	0	
0.7213	12.6312	-0.410248	0	
0.7220	7.1466	-0.683747	0	
0.7227	-1.4404	-3.14524	0	
0.7233	-14.2378	-5.28765	0	
0.7240	-24.3206	-3.46432	0	
0.7247	-22.16	-1.32191	0	
0.7253	-13.6284	-0.683747	0	
0.7260	-9.63961	-1.32191	0	
0.7267	-7.202	-1.64099	0	
0.7273	-0.4986	-0.410248	0	
0.7280	5.9278	1.13958	0	
0.7287	12.0218	0.820497	0	
0.7293	18.3928	1.13958	0	
0.7300	17.5064	2.37032	0	
0.7307	15.0688	0.227916	0	
0.7313	23.3234	-3.14524	0	
0.7320	31.5226	-2.55266	0	
0.7327	26.038	-0.683747	0	
0.7333	14.127	1.73216	0	
0.7340	5.9278	4.19365	0	
0.7347	-5.0968	3.55549	0	
0.7353	-23.1018	1.13958	0	
0.7360	-35.6222	2.05124	0	
0.7367	-29.1958	1.73216	0	
0.7373	-6.5926	-0.683747	0	
0.7380	17.5064	0.227916	0	
0.7387	26.038	3.55549	0	
0.7393	14.127	3.87457	0	
0.7400	-5.0968	2.64382	0	
0.7407	-18.5036	2.05124	0	
0.7413	-29.1958	2.05124	0	
0.7420	-37.4504	2.37032	0	
0.7427	-43.212	2.9629	0	
0.7433	-52.6854	5.37881	0	
0.7440	-58.5024	7.52122	0	
0.7447	-50.2478	5.69789	0	
0.7453	-35.0128	2.37032	0	
0.7460	-23.9882	2.05124	0	
0.7467	-19.113	2.64382	0	
0.7473	-19.113	1.73216	0	
0.7480	-19.113	1.41308	0	
0.7487	-13.6284	2.05124	0	
0.7493	-5.3738	2.05124	0	
0.7500	1.939	2.64382	0	
0.7507	7.75601	4.46715	0	
0.7513	12.6312	5.10531	0	
0.7520	16.5646	3.55549	0	
0.7527	18.1158	2.64382	0	
0.7533	15.9552	2.9629	0	
0.7540	14.4594	2.05124	0	
0.7547	12.0218	0.227916	0	
0.7553	3.7672	-0.0911663	0	
0.7560	-4.155	1.13958	0	
0.7567	-1.7174	2.9629	0	
0.7573	4.709	2.64382	0	
0.7580	7.75601	-1.32191	0	
0.7587	8.03301	-3.14524	0	
0.7593	7.4236	-2.55266	0	
0.7600	7.1466	-3.73782	0	
0.7607	8.36541	-3.46432	0	
0.7613	8.36541	0.501415	0	
0.7620	4.709	-2.55266	0	
0.7627	-4.155	-9.57246	0	
0.7633	-16.3984	-8.61521	0	
0.7640	-20.6642	-5.28765	0	
0.7647	-12.6866	-6.19931	0	
0.7653	-4.7644	-3.14524	0	
0.7660	-0.831001	-0.0911663	0	
0.7667	5.5954	-4.96856	0	
0.7673	10.803	-7.11097	0	
0.7680	11.08	-3.14524	0	
0.7687	9.25181	-3.46432	0	
0.7693	4.709	-5.28765	0	
0.7700	0.3878	-3.14524	0	
0.7707	6.5372	-4.37598	0	
0.7713	22.714	-6.51839	0	
0.7720	34.2926	-4.96856	0	
0.7727	31.5226	-6.19931	0	
0.7733	19.0022	-8.34172	0	
0.7740	12.6312	-5.28765	0	
0.7747	17.5064	-2.82616	0	
0.7753	16.5646	-3.14524	0	
0.7760	3.1578	-2.23357	0	
0.7767	-8.42081	-1.91449	0	
0.7773	-14.2378	-2.55266	0	
0.7780	-23.3788	-1.91449	0	
0.7787	-27.6446	-1.91449	0	
0.7793	-15.4566	-2.55266	0	
0.7800	-1.108	-3.14524	0	
0.7807	0.7202	-4.0569	0	
0.7813	1.6066	-3.46432	0	
0.7820	6.5372	-1.32191	0	
0.7827	1.939	2.64382	0	
0.7833	-8.75321	5.10531	0	
0.7840	-9.03021	0.227916	0	
0.7847	-4.4874	-5.28765	0	
0.7853	-7.5344	0.820497	0	
0.7860	-13.019	9.39013	0	
0.7867	-12.0772	11.806	0	
0.7873	-9.97201	12.3986	0	
0.7880	-5.3738	5.37881	0	
0.7887	9.25181	-9.25338	0	
0.7893	23.9328	-11.6693	0	
0.7900	25.1516	-2.23357	0	
0.7907	19.0022	2.37032	0	
0.7913	15.6782	4.19365	0	
0.7920	9.58421	6.01698	0	
0.7927	-5.3738	3.87457	0	
0.7933	-20.9412	5.37881	0	
0.7940	-25.5394	7.8403	0	
0.7947	-17.2848	4.78623	0	
0.7953	-6.925	4.19365	0	
0.7960	-6.3156	8.15938	0	
0.7967	-10.249	6.60956	0	
0.7973	-8.42081	5.10531	0	
0.7980	-0.831001	8.15938	0	
0.7987	4.709	7.52122	0	
0.7993	5.3184	6.60956	0	
0.8000	3.7672	10.3018	0	
0.8007	1.939	11.487	0	
0.8013	0.7202	10.3018	0	
0.8020	1.6066	7.52122	0	
0.8027	3.7672	4.78623	0	
0.8033	5.3184	8.15938	0	
0.8040	4.986	10.5753	0	
0.8047	4.3766	4.78623	0	
0.8053	4.709	2.9629	0	
0.8060	5.9278	8.43288	0	
0.8067	4.986	7.52122	0	
0.8073	0.1108	2.37032	0	
0.8080	-5.0968	2.9629	0	
0.8087	-5.3738	4.46715	0	
0.8093	-5.0968	4.46715	0	
0.8100	-6.925	3.87457	0	
0.8107	-8.14381	1.13958	0	
0.8113	-9.36261	-0.0911663	0	
0.8120	-14.2378	2.9629	0	
0.8127	-17.2848	2.05124	0	
0.8133	-12.6866	-2.55266	0	
0.8140	-4.7644	-2.23357	0	
0.8147	2.216	1.13958	0	
0.8153	11.4124	1.41308	0	
0.8160	17.5064	-0.410248	0	
0.8167	15.0688	-0.683747	0	
0.8173	12.0218	0.501415	0	
0.8180	15.3458	1.13958	0	
0.8187	23.3234	-1.00283	0	
0.8193	30.9132	-0.683747	0	
0.8200	36.3978	1.73216	0	
0.8207	39.5002	-1.64099	0	
0.8213	31.2456	-8.02263	0	
0.8220	-2.3268	-7.11097	0	
0.8227	-46.5914	-3.46432	0	
0.8233	-64.5964	-5.28765	0	
0.8240	-53.6272	-6.51839	0	
0.8247	-41.1068	-4.37598	0	
0.8253	-35.6222	-4.0569	0	
0.8260	-28.254	-5.28765	0	
0.8267	-19.7224	-6.19931	0	
0.8273	-13.019	-7.11097	0	
0.8280	-8.75321	-5.60673	0	
0.8287	-4.7644	-4.64948	0	
0.8293	1.3296	-7.70355	0	
0.8300	3.7672	-8.9343	0	
0.8307	0.7202	-6.79189	0	
0.8313	0.1108	-6.19931	0	
0.8320	2.8808	-5.28765	0	
0.8327	4.986	-4.64948	0	
0.8333	6.5372	-5.60673	0	
0.8340	4.709	-5.60673	0	
0.8347	0.997201	-3.14524	0	
0.8353	4.0996	-2.55266	0	
0.8360	7.75601	-4.37598	0	
0.8367	6.2048	-4.37598	0	
0.8373	7.4236	-2.55266	0	
0.8380	12.9082	-1.91449	0	
0.8387	20.2764	-1.64099	0	
0.8393	37.3396	-0.683747	0	
0.8400	56.2864	-2.55266	0	
0.8407	54.7352	-3.73782	0	
0.8413	40.3866	-0.683747	0	
0.8420	33.0738	2.64382	0	
0.8427	20.5534	1.13958	0	
0.8433	-8.42081	-2.82616	0	
0.8440	-34.071	-4.37598	0	
0.8447	-40.165	-1.91449	0	
0.8453	-39.2786	3.87457	0	
0.8460	-45.0402	11.2135	0	
0.8467	-51.4666	13.3559	0	
0.8473	-48.4196	6.60956	0	
0.8480	-34.4034	-7.11097	0	
0.8487	-17.8942	-17.5039	0	
0.8493	-9.97201	-15.3615	0	
0.8500	-11.8002	-6.51839	0	
0.8507	-13.9054	-4.0569	0	
0.8513	-11.8002	-7.11097	0	
0.8520	-9.97201	-6.19931	0	
0.8527	-8.14381	-3.46432	0	
0.8533	-4.155	-4.64948	0	
0.8540	-2.6592	-7.11097	0	
0.8547	-0.831001	-5.88023	0	
0.8553	9.25181	-3.46432	0	
0.8560	21.4952	-1.64099	0	
0.8567	26.6474	-0.683747	0	
0.8573	30.0268	-1.32191	0	
0.8580	35.7884	-1.91449	0	
0.8587	37.3396	-2.23357	0	
0.8593	33.0738	-3.14524	0	
0.8600	29.6944	-1.91449	0	
0.8607	26.6474	0.820497	0	
0.8613	18.3928	-1.32191	0	
0.8620	5.9278	-6.19931	0	
0.8627	1.3296	-6.19931	0	
0.8633	8.36541	-3.73782	0	
0.8640	11.4124	-3.14524	0	
0.8647	2.216	-2.55266	0	
0.8653	-4.4874	-2.55266	0	
0.8660	-2.3268	-4.0569	0	
0.8667	-2.6592	-3.46432	0	
0.8673	-4.4874	-1.91449	0	
0.8680	0.3878	-2.23357	0	
0.8687	5.3184	-1.00283	0	
0.8693	4.709	0.820497	0	
0.8700	-2.9362	-0.683747	0	
0.8707	-19.4454	-2.55266	0	
0.8713	-31.6334	-2.55266	0	
0.8720	-25.207	-2.23357	0	
0.8727	-15.4566	-2.55266	0	
0.8733	-13.6284	-2.82616	0	
0.8740	-6.5926	-2.55266	0	
0.8747	3.4902	-2.55266	0	
0.8753	2.8808	-3.73782	0	
0.8760	-2.6592	-3.46432	0	
0.8767	-5.7062	-0.0911663	0	
0.8773	-11.4678	1.41308	0	
0.8780	-18.5036	0.820497	0	
0.8787	-20.3318	1.41308	0	
0.8793	-17.0078	1.73216	0	
0.8800	-11.8002	1.73216	0	
0.8807	-8.42081	3.28199	0	
0.8813	-7.202	3.55549	0	
0.8820	-0.831001	4.19365	0	
0.8827	12.6312	6.33606	0	
0.8833	21.1628	2.64382	0	
0.8840	15.6782	-1.32191	0	
0.8847	7.4236	3.87457	0	
0.8853	8.97481	6.01698	0	
0.8860	6.5372	0.501415	0	
0.8867	-9.63961	0.227916	0	
0.8873	-17.0078	3.55549	0	
0.8880	-4.7644	1.13958	0	
0.8887	5.3184	1.13958	0	
0.8893	8.64241	5.69789	0	
0.8900	21.4952	5.37881	0	
0.8907	36.7302	2.05124	0	
0.8913	38.8908	2.64382	0	
0.8920	32.132	4.19365	0	
0.8927	21.7722	4.78623	0	
0.8933	0.997201	4.78623	0	
0.8940	-26.1488	3.87457	0	
0.8947	-43.8214	2.37032	0	
0.8953	-42.935	2.05124	0	
0.8960	-26.4258	2.37032	0	
0.8967	-8.42081	2.05124	0	
0.8973	-1.108	2.05124	0	
0.8980	0.1108	1.41308	0	
0.8987	4.3766	-0.410248	0	
0.8993	6.5372	0.227916	0	
0.9000	1.939	4.19365	0	
0.9007	-9.03021	5.69789	0	
0.9013	-22.7694	3.87457	0	
0.9020	-30.0822	4.78623	0	
0.9027	-23.7112	5.69789	0	
0.9033	-13.019	3.87457	0	
0.9040	-5.0968	4.46715	0	
0.9047	7.1466	6.33606	0	
0.9053	22.1046	6.60956	0	
0.9060	29.4174	6.60956	0	
0.9067	25.761	7.24772	0	
0.9073	8.36541	5.37881	0	
0.9080	-12.6866	3.87457	0	
0.9087	-19.4454	5.69789	0	
0.9093	-14.8472	7.24772	0	
0.9100	-15.4566	6.01698	0	
0.9107	-17.8942	4.46715	0	
0.9113	-14.2378	4.19365	0	
0.9120	-14.5148	4.19365	0	
0.9127	-22.7694	2.9629	0	
0.9133	-27.0352	1.13958	0	
0.9140	-22.7694	2.9629	0	
0.9147	-19.113	5.69789	0	
0.9153	-17.6172	3.87457	0	
0.9160	-8.42081	1.13958	0	
0.9167	8.36541	0.501415	0	
0.9173	17.174	0.227916	0	
0.9180	14.7364	-0.410248	0	
0.9187	15.6782	0.501415	0	
0.9193	20.2764	0.227916	0	
0.9200	17.7834	-1.64099	0	
0.9207	11.08	-2.55266	0	
0.9213	8.64241	-2.55266	0	
0.9220	9.25181	-1.64099	0	
0.9227	9.58421	0.227916	0	
0.9233	10.1936	0.227916	0	
0.9240	10.4706	0.820497	0	
0.9247	7.75601	2.64382	0	
0.9253	5.3184	2.05124	0	
0.9260	6.2048	0.501415	0	
0.9267	7.4236	1.41308	0	
0.9273	8.64241	0.227916	0	
0.9280	11.4124	-1.32191	0	
0.9287	9.86121	0.227916	0	
0.9293	1.3296	0.820497	0	
0.9300	-4.4874	-2.23357	0	
0.9307	-4.155	-4.37598	0	
0.9313	-3.2686	-3.14524	0	
0.9320	-1.7174	2.64382	0	
0.9327	-0.2216	9.39013	0	
0.9333	-0.831001	11.2135	0	
0.9340	-1.108	5.37881	0	
0.9347	1.6066	-5.28765	0	
0.9353	7.4236	-15.0424	0	
0.9360	16.5646	-14.1308	0	
0.9367	25.761	-7.11097	0	
0.9373	30.3038	-5.28765	0	
0.9380	26.6474	-6.19931	0	
0.9387	12.2988	-4.64948	0	
0.9393	-2.3268	-5.88023	0	
0.9400	-5.3738	-8.9343	0	
0.9407	-6.3156	-8.02263	0	
0.9413	-5.3738	-5.60673	0	
0.9420	9.25181	-4.64948	0	
0.9427	22.1046	-5.60673	0	
0.9433	17.5064	-8.02263	0	
0.9440	12.6312	-8.34172	0	
0.9447	15.6782	-4.37598	0	
0.9453	8.36541	-2.55266	0	
0.9460	-11.4678	-6.19931	0	
0.9467	-25.5394	-6.79189	0	
0.9473	-25.5394	-3.14524	0	
0.9480	-19.113	-1.00283	0	
0.9487	-19.7224	-1.91449	0	
0.9493	-23.3788	-3.14524	0	
0.9500	-15.789	-3.73782	0	
0.9507	-3.878	-3.46432	0	
0.9513	1.939	-3.46432	0	
0.9520	9.58421	-4.0569	0	
0.9527	17.7834	-3.73782	0	
0.9533	14.4594	-3.14524	0	
0.9540	-3.878	-2.55266	0	
0.9547	-28.5864	-1.32191	0	
0.9553	-45.6496	-2.55266	0	
0.9560	-46.8684	-5.88023	0	
0.9567	-41.7162	-6.19931	0	
0.9573	-36.841	-3.73782	0	
0.9580	-26.4258	-3.46432	0	
0.9587	-14.5148	-3.73782	0	
0.9593	-8.14381	-2.55266	0	
0.9600	-3.5456	-0.683747	0	
0.9607	-1.7174	-1.91449	0	
0.9613	-8.42081	-4.64948	0	
0.9620	-14.5148	-4.64948	0	
0.9627	-9.36261	-3.46432	0	
0.9633	-2.6592	-4.37598	0	
0.9640	-3.5456	-3.73782	0	
0.9647	-4.4874	-1.32191	0	
0.9653	-1.7174	0.227916	0	
0.9660	0.997201	1.13958	0	
0.9667	5.5954	1.13958	0	
0.9673	10.1936	-0.0911663	0	
0.9680	7.4236	0.227916	0	
0.9687	4.709	1.13958	0	
0.9693	9.86121	-0.683747	0	
0.9700	14.7364	-0.0911663	0	
0.9707	18.1158	2.05124	0	
0.9713	24.2098	0.501415	0	
0.9720	27.2568	-0.410248	0	
0.9727	27.2568	1.73216	0	
0.9733	30.3038	1.13958	0	
0.9740	26.6474	-1.64099	0	
0.9747	12.0218	-0.410248	0	
0.9753	2.5484	1.13958	0	
0.9760	-0.831001	-0.683747	0	
0.9767	-4.4874	-0.683747	0	
0.9773	-2.0498	2.05124	0	
0.9780	1.3296	2.05124	0	
0.9787	-5.9832	1.13958	0	
0.9793	-13.296	1.13958	0	
0.9800	-9.03021	2.05124	0	
0.9807	-2.9362	3.87457	0	
0.9813	-2.3268	5.37881	0	
0.9820	-2.0498	2.64382	0	
0.9827	-0.831001	-1.32191	0	
0.9833	-0.831001	-0.410248	0	
0.9840	-1.4404	1.13958	0	
0.9847	-1.7174	-1.64099	0	
0.9853	0.997201	-2.23357	0	
0.9860	6.5372	-0.683747	0	
0.9867	8.36541	-0.683747	0	
0.9873	3.4902	-0.410248	0	
0.9880	0.3878	0.820497	0	
0.9887	5.3184	0.227916	0	
0.9893	13.5176	0.501415	0	
0.9900	20.5534	3.55549	0	
0.9907	22.1046	2.9629	0	
0.9913	10.803	-0.683747	0	
0.9920	-7.202	0.501415	0	
0.9927	-15.4566	5.37881	0	
0.9933	-14.5148	7.52122	0	
0.9940	-16.3984	6.33606	0	
0.9947	-15.789	2.37032	0	
0.9953	-5.0968	-3.14524	0	
0.9960	10.1936	-7.70355	0	
0.9967	26.3704	-6.51839	0	
0.9973	41.6054	-0.410248	0	
0.9980	42.2148	3.28199	0	
0.9987	19.3346	2.9629	0	
0.9993	-10.5814	2.64382	0	
1.0000	-26.4258	1.73216	0	
1.0007	-31.301	-0.0911663	0	
1.0013	-37.7274	-0.683747	0	
1.0020	-41.7162	0.501415	0	
1.0027	-34.6804	1.73216	0	
1.0033	-24.3206	1.73216	0	
1.0040	-17.0078	0.820497	0	
1.0047	-11.4678	0.227916	0	
1.0053	-7.202	2.05124	0	
1.0060	-3.5456	2.9629	0	
1.0067	4.709	2.64382	0	
1.0073	21.4952	2.37032	0	
1.0080	42.2148	-0.0911663	0	
1.0087	50.4694	-2.55266	0	
1.0093	42.8242	0.227916	0	
1.0100	32.4644	2.05124	0	
1.0107	21.7722	1.13958	0	
1.0113	0.1108	2.9629	0	
1.0120	-24.5976	2.9629	0	
1.0127	-35.2898	-0.0911663	0	
1.0133	-31.024	1.73216	0	
1.0140	-23.7112	4.78623	0	
1.0147	-18.2266	2.37032	0	
1.0153	-12.4096	1.73216	0	
1.0160	-3.5456	4.19365	0	
1.0167	0.997201	4.78623	0	
1.0173	-1.7174	5.69789	0	
1.0180	-6.3156	7.52122	0	
1.0187	-9.03021	7.52122	0	
1.0193	-11.4678	8.43288	0	
1.0200	-13.019	7.52122	0	
1.0207	-10.8584	3.55549	0	
1.0213	-4.4874	2.37032	0	
1.0220	1.939	3.55549	0	
1.0227	2.5484	2.9629	0	
1.0233	4.709	1.13958	0	
1.0240	9.86121	-3.14524	0	
1.0247	9.86121	-5.28765	0	
1.0253	9.25181	-2.55266	0	
1.0260	13.85	-1.32191	0	
1.0267	15.6782	-4.0569	0	
1.0273	14.127	-3.14524	0	
1.0280	14.7364	-0.683747	0	
1.0287	11.6894	-3.46432	0	
1.0293	3.4902	-5.28765	0	
1.0300	3.1578	-1.91449	0	
1.0307	14.127	0.227916	0	
1.0313	26.6474	0.501415	0	
1.0320	27.5892	2.37032	0	
1.0327	16.5646	2.37032	0	
1.0333	9.86121	1.41308	0	
1.0340	16.2876	1.73216	0	
1.0347	20.8858	2.05124	0	
1.0353	11.6894	2.05124	0	
1.0360	-6.3156	1.41308	0	
1.0367	-21.883	-0.683747	0	
1.0373	-26.1488	-1.64099	0	
1.0380	-21.883	1.73216	0	
1.0387	-21.5506	2.9629	0	
1.0393	-22.4924	-0.0911663	0	
1.0400	-21.2736	-0.683747	0	
1.0407	-28.8634	1.13958	0	
1.0413	-38.9462	-0.683747	0	
1.0420	-33.794	-2.82616	0	
1.0427	-23.1018	-1.91449	0	
1.0433	-22.7694	-2.55266	0	
1.0440	-21.883	-3.46432	0	
1.0447	-15.4566	-1.64099	0	
1.0453	-12.6866	-0.683747	0	
1.0460	-10.5814	-0.683747	0	
1.0467	-5.3738	2.05124	0	
1.0473	-3.878	4.46715	0	
1.0480	-3.2686	2.9629	0	
1.0487	0.1108	2.64382	0	
1.0493	-2.3268	4.19365	0	
1.0500	-8.14381	2.64382	0	
1.0507	-4.4874	0.820497	0	
1.0513	3.7672	2.05124	0	
1.0520	7.1466	2.05124	0	
1.0527	7.4236	1.13958	0	
1.0533	9.25181	0.820497	0	
1.0540	12.2988	0.227916	0	
1.0547	19.6116	1.13958	0	
1.0553	24.2098	2.37032	0	
1.0560	22.714	-0.0911663	0	
1.0567	23.9328	-2.55266	0	
1.0573	28.808	-1.32191	0	
1.0580	30.3038	-1.91449	0	
1.0587	36.7302	-4.96856	0	
1.0593	48.9182	-5.60673	0	
1.0600	47.6994	-5.88023	0	
1.0607	31.855	-6.19931	0	
1.0613	18.1158	-4.96856	0	
1.0620	3.7672	-4.37598	0	
1.0627	-19.113	-6.19931	0	
1.0633	-36.5086	-4.0569	0	
1.0640	-35.6222	-1.32191	0	
1.0647	-23.9882	-4.37598	0	
1.0653	-13.296	-8.9343	0	
1.0660	-5.0968	-7.70355	0	
1.0667	0.7202	-1.91449	0	
1.0673	3.1578	1.73216	0	
1.0680	0.1108	3.55549	0	
1.0687	-6.3156	1.41308	0	
1.0693	-10.8584	-8.34172	0	
1.0700	-13.296	-16.2732	0	
1.0707	-16.066	-12.6265	0	
1.0713	-15.1242	-5.88023	0	
1.0720	-8.14381	-6.19931	0	
1.0727	0.3878	-7.11097	0	
1.0733	9.25181	-4.37598	0	
1.0740	15.9552	-1.91449	0	
1.0747	19.3346	-3.14524	0	
1.0753	24.8192	-4.96856	0	
1.0760	30.6362	-3.14524	0	
1.0767	32.4644	1.73216	0	
1.0773	44.9848	3.55549	0	
1.0780	70.912	0.501415	0	
1.0787	82.4907	-1.64099	0	
1.0793	62.9898	-0.683747	0	
1.0800	23.9328	0.501415	0	
1.0807	-20.6642	1.13958	0	
1.0813	-56.0648	1.13958	0	
1.0820	-79.2221	0.227916	0	
1.0827	-95.3989	0.227916	0	
1.0833	-96.3407	2.9629	0	
1.0840	-73.4604	3.55549	0	
1.0847	-45.6496	0.227916	0	
1.0853	-31.6334	-3.14524	0	
1.0860	-24.3206	-1.64099	0	
1.0867	-18.836	2.64382	0	
1.0873	-16.066	2.9629	0	
1.0880	-11.1908	1.13958	0	
1.0887	-6.3156	2.64382	0	
1.0893	-9.36261	3.28199	0	
1.0900	-14.8472	0.501415	0	
1.0907	-11.1908	-0.410248	0	
1.0913	-2.3268	0.501415	0	
1.0920	3.4902	0.227916	0	
1.0927	7.4236	0.227916	0	
1.0933	11.08	-0.683747	0	
1.0940	12.9082	-2.55266	0	
1.0947	11.4124	-2.23357	0	
1.0953	8.97481	-2.55266	0	
1.0960	8.03301	-4.64948	0	
1.0967	9.58421	-1.91449	0	
1.0973	10.803	1.41308	0	
1.0980	11.08	-0.683747	0	
1.0987	12.9082	-3.46432	0	
1.0993	13.85	-4.37598	0	
1.1000	12.6312	-5.28765	0	
1.1007	11.4124	-4.0569	0	
1.1013	8.97481	-4.0569	0	
1.1020	4.709	-6.51839	0	
1.1027	2.216	-3.46432	0	
1.1033	0.997201	2.05124	0	
1.1040	1.939	1.73216	0	
1.1047	4.709	1.13958	0	
1.1053	3.1578	2.05124	0	
1.1060	-3.2686	2.37032	0	
1.1067	-6.3156	3.55549	0	
1.1073	-5.7062	4.78623	0	
1.1080	-5.0968	3.87457	0	
1.1087	-3.5456	3.87457	0	
1.1093	-2.0498	3.87457	0	
1.1100	-2.6592	2.64382	0	
1.1107	-2.0498	2.05124	0	
1.1113	2.8808	2.05124	0	
1.1120	8.36541	1.41308	0	
1.1127	9.86121	0.820497	0	
1.1133	10.1936	0.501415	0	
1.1140	12.9082	3.28199	0	
1.1147	20.2764	6.60956	0	
1.1153	26.038	4.78623	0	
1.1160	25.4286	1.73216	0	
1.1167	25.761	2.37032	0	
1.1173	35.5114	1.41308	0	
1.1180	45.8712	-2.23357	0	
1.1187	45.2618	-0.683747	0	
1.1193	35.5114	2.37032	0	
1.1200	22.1046	2.05124	0	
1.1207	0.1108	1.41308	0	
1.1213	-31.9104	2.37032	0	
1.1220	-53.9042	2.05124	0	
1.1227	-51.799	1.73216	0	
1.1233	-39.2786	1.13958	0	
1.1240	-31.9104	0.501415	0	
1.1247	-24.3206	1.13958	0	
1.1253	-10.5814	0.501415	0	
1.1260	2.5484	0.820497	0	
1.1267	13.85	4.78623	0	
1.1273	20.2764	5.10531	0	
1.1280	12.6312	-1.00283	0	
1.1287	-4.4874	-1.64099	0	
1.1293	-8.75321	3.87457	0	
1.1300	3.4902	4.19365	0	
1.1307	10.1936	2.05124	0	
1.1313	2.8808	2.9629	0	
1.1320	-2.3268	1.73216	0	
1.1327	-2.6592	-0.683747	0	
1.1333	-17.2848	-0.683747	0	
1.1340	-36.5086	-0.683747	0	
1.1347	-38.9462	-1.32191	0	
1.1353	-35.2898	1.13958	0	
1.1360	-37.7274	3.87457	0	
1.1367	-39.5556	3.55549	0	
1.1373	-41.1068	2.37032	0	
1.1380	-46.8684	0.227916	0	
1.1387	-45.3726	-2.55266	0	
1.1393	-36.2316	-1.32191	0	
1.1400	-31.024	4.19365	0	
1.1407	-27.3676	8.43288	0	
1.1413	-21.2736	9.98271	0	
1.1420	-17.8942	6.01698	0	
1.1427	-14.8472	-4.96856	0	
1.1433	-12.0772	-13.2191	0	
1.1440	-17.0078	-9.57246	0	
1.1447	-19.7224	-2.82616	0	
1.1453	-12.4096	-2.55266	0	
1.1460	-6.925	-2.82616	0	
1.1467	-7.202	-2.55266	0	
1.1473	-4.7644	-3.14524	0	
1.1480	-3.5456	-1.64099	0	
1.1487	-4.7644	-0.410248	0	
1.1493	2.5484	-3.46432	0	
1.1500	16.5646	-5.60673	0	
1.1507	25.4286	-2.55266	0	
1.1513	30.3038	-1.91449	0	
1.1520	35.5114	-5.28765	0	
1.1527	37.6166	-4.96856	0	
1.1533	33.0738	-1.91449	0	
1.1540	23.3234	-2.55266	0	
1.1547	16.2876	-2.55266	0	
1.1553	15.9552	1.13958	0	
1.1560	18.3928	-0.0911663	0	
1.1567	20.8858	-5.88023	0	
1.1573	24.2098	-5.88023	0	
1.1580	26.9798	-2.82616	0	
1.1587	30.9132	-2.82616	0	
1.1593	39.1678	-1.64099	0	
1.1600	46.4806	-0.683747	0	
1.1607	50.137	-3.46432	0	
1.1613	45.8712	-4.37598	0	
1.1620	23.6004	-2.82616	0	
1.1627	-9.63961	-2.55266	0	
1.1633	-28.254	-1.64099	0	
1.1640	-31.9104	-0.683747	0	
1.1647	-32.8522	-1.64099	0	
1.1653	-26.7582	-0.683747	0	
1.1660	-13.6284	-0.0911663	0	
1.1667	-11.4678	-2.23357	0	
1.1673	-17.2848	-0.410248	0	
1.1680	-14.2378	3.87457	0	
1.1687	-8.14381	2.64382	0	
1.1693	-9.36261	0.227916	0	
1.1700	-8.14381	0.820497	0	
1.1707	1.3296	-0.0911663	0	
1.1713	9.86121	-3.46432	0	
1.1720	15.6782	-4.96856	0	
1.1727	20.5534	-4.37598	0	
1.1733	20.2764	-4.64948	0	
1.1740	19.6116	-5.28765	0	
1.1747	26.3704	-4.37598	0	
1.1753	37.0072	-3.46432	0	
1.1760	46.813	-2.55266	0	
1.1767	52.2976	0.820497	0	
1.1773	45.5942	1.13958	0	
1.1780	27.5892	-1.91449	0	
1.1787	8.36541	-0.683747	0	
1.1793	-10.8584	2.05124	0	
1.1800	-24.5976	-0.410248	0	
1.1807	-24.5976	-2.55266	0	
1.1813	-24.93	-0.683747	0	
1.1820	-34.6804	-0.410248	0	
1.1827	-38.0598	0.227916	0	
1.1833	-35.0128	2.9629	0	
1.1840	-37.4504	1.73216	0	
1.1847	-42.3256	0.501415	0	
1.1853	-45.6496	3.87457	0	
1.1860	-51.1896	3.87457	0	
1.1867	-47.4778	-0.683747	0	
1.1873	-30.4146	-1.32191	0	
1.1880	-15.4566	-0.0911663	0	
1.1887	-10.8584	-2.82616	0	
1.1893	-8.14381	-3.46432	0	
1.1900	-6.3156	-0.410248	0	
1.1907	-5.7062	0.227916	0	
1.1913	-5.0968	-1.00283	0	
1.1920	-4.4874	-1.00283	0	
1.1927	-0.831001	-1.91449	0	
1.1933	4.3766	-2.55266	0	
1.1940	6.5372	0.820497	0	
1.1947	6.2048	2.37032	0	
1.1953	2.216	-0.0911663	0	
1.1960	-6.3156	-0.683747	0	
1.1967	-9.03021	1.13958	0	
1.1973	-3.5456	1.41308	0	
1.1980	0.7202	2.05124	0	
1.1987	4.0996	1.41308	0	
1.1993	7.4236	0.227916	0	
1.2000	4.986	0.820497	0	
1.2007	2.5484	2.05124	0	
1.2013	4.709	2.37032	0	
1.2020	3.7672	1.73216	0	
1.2027	1.6066	-0.410248	0	
1.2033	4.3766	-2.55266	0	
1.2040	5.9278	-0.683747	0	
1.2047	7.4236	3.87457	0	
1.2053	12.9082	6.01698	0	
1.2060	14.127	0.501415	0	
1.2067	11.08	-10.165	0	
1.2073	13.2406	-14.4499	0	
1.2080	15.9552	-8.34172	0	
1.2087	13.2406	-2.55266	0	
1.2093	12.0218	-1.91449	0	
1.2100	10.4706	-1.64099	0	
1.2107	4.709	-0.0911663	0	
1.2113	1.939	1.13958	0	
1.2120	0.997201	2.37032	0	
1.2127	-4.4874	2.9629	0	
1.2133	-6.925	1.41308	0	
1.2140	-2.6592	-0.0911663	0	
1.2147	2.8808	2.05124	0	
1.2153	8.97481	5.69789	0	
1.2160	18.3928	5.10531	0	
1.2167	28.4756	2.05124	0	
1.2173	39.1678	2.05124	0	
1.2180	49.5276	2.05124	0	
1.2187	56.8958	-0.410248	0	
1.2193	52.2976	1.73216	0	
1.2200	25.761	5.10531	0	
1.2207	-8.75321	2.37032	0	
1.2213	-22.7694	-2.23357	0	
1.2220	-25.5394	-1.64099	0	
1.2227	-37.4504	1.41308	0	
1.2233	-42.935	2.9629	0	
1.2240	-34.6804	2.9629	0	
1.2247	-27.6446	2.37032	0	
1.2253	-22.4924	0.820497	0	
1.2260	-13.6284	-0.683747	0	
1.2267	-7.202	-0.683747	0	
1.2273	-8.14381	1.13958	0	
1.2280	-10.8584	2.37032	0	
1.2287	-12.6866	1.13958	0	
1.2293	-9.03021	0.227916	0	
1.2300	3.4902	1.13958	0	
1.2307	19.944	2.05124	0	
1.2313	32.132	2.05124	0	
1.2320	39.7772	2.9629	0	
1.2327	52.907	2.9629	0	
1.2333	65.095	0.501415	0	
1.2340	56.5634	-0.410248	0	
1.2347	36.3978	-0.0911663	0	
1.2353	22.1046	-1.00283	0	
1.2360	-0.831001	-0.410248	0	
1.2367	-37.4504	2.37032	0	
1.2373	-58.5024	2.9629	0	
1.2380	-47.4778	1.13958	0	
1.2387	-27.0352	-0.683747	0	
1.2393	-18.2266	-1.64099	0	
1.2400	-21.2736	-3.46432	0	
1.2407	-22.4924	-1.91449	0	
1.2413	-13.9054	2.05124	0	
1.2420	-7.202	2.64382	0	
1.2427	-9.97201	0.227916	0	
1.2433	-12.4096	-0.0911663	0	
1.2440	-8.75321	1.41308	0	
1.2447	-6.3156	0.227916	0	
1.2453	-7.202	-1.64099	0	
1.2460	-7.5344	-1.64099	0	
1.2467	-5.9832	1.13958	0	
1.2473	-5.7062	3.87457	0	
1.2480	-9.63961	3.87457	0	
1.2487	-14.8472	2.05124	0	
1.2493	-14.5148	2.37032	0	
1.2500	-5.7062	2.05124	0	
1.2507	3.4902	1.13958	0	
1.2513	7.4236	3.28199	0	
1.2520	10.1936	3.87457	0	
1.2527	16.897	-0.0911663	0	
1.2533	22.991	-1.00283	0	
1.2540	27.8662	0.820497	0	
1.2547	37.949	-1.64099	0	
1.2553	41.9378	-2.55266	0	
1.2560	24.8192	-0.410248	0	
1.2567	0.3878	0.227916	0	
1.2573	-8.42081	-0.683747	0	
1.2580	-9.03021	-1.00283	0	
1.2587	-14.2378	-1.64099	0	
1.2593	-14.8472	-1.64099	0	
1.2600	-9.97201	-1.32191	0	
1.2607	-13.6284	-0.683747	0	
1.2613	-22.7694	-0.410248	0	
1.2620	-23.7112	0.227916	0	
1.2627	-18.2266	2.05124	0	
1.2633	-17.0078	3.28199	0	
1.2640	-20.0548	1.13958	0	
1.2647	-19.4454	-1.64099	0	
1.2653	-13.296	0.227916	0	
1.2660	-6.3156	0.227916	0	
1.2667	-2.6592	-2.82616	0	
1.2673	-1.108	-1.32191	0	
1.2680	-0.2216	2.9629	0	
1.2687	-1.7174	0.501415	0	
1.2693	-3.5456	-2.55266	0	
1.2700	-2.9362	0.227916	0	
1.2707	-0.2216	2.9629	0	
1.2713	4.0996	-0.0911663	0	
1.2720	12.9082	-4.64948	0	
1.2727	25.761	-6.19931	0	
1.2733	39.5002	-6.51839	0	
1.2740	50.4694	-4.37598	0	
1.2747	51.3558	0.501415	0	
1.2753	32.4644	4.46715	0	
1.2760	10.803	3.87457	0	
1.2767	5.5954	-3.73782	0	
1.2773	0.997201	-14.7234	0	
1.2780	-17.2848	-16.2732	0	
1.2787	-24.93	-7.43005	0	
1.2793	-13.6284	-1.64099	0	
1.2800	-6.3156	-3.73782	0	
1.2807	-8.14381	-4.37598	0	
1.2813	-9.36261	-2.23357	0	
1.2820	-11.8002	-0.683747	0	
1.2827	-15.1242	1.13958	0	
1.2833	-11.8002	2.37032	0	
1.2840	-1.7174	0.227916	0	
1.2847	6.2048	-1.32191	0	
1.2853	8.03301	-0.0911663	0	
1.2860	4.3766	0.227916	0	
1.2867	0.7202	-1.91449	0	
1.2873	1.939	-2.82616	0	
1.2880	8.36541	-1.64099	0	
1.2887	15.9552	-1.32191	0	
1.2893	22.991	-2.55266	0	
1.2900	28.4756	-3.46432	0	
1.2907	34.902	-4.37598	0	
1.2913	46.2036	-4.64948	0	
1.2920	55.0122	-3.73782	0	
1.2927	45.8712	-2.55266	0	
1.2933	20.8858	-1.64099	0	
1.2940	-5.3738	-1.00283	0	
1.2947	-28.254	-0.0911663	0	
1.2953	-46.259	2.9629	0	
1.2960	-53.0178	3.87457	0	
1.2967	-48.6966	1.73216	0	
1.2973	-34.4034	0.820497	0	
1.2980	-14.5148	2.05124	0	
1.2987	-2.6592	1.41308	0	
1.2993	-1.7174	0.227916	0	
1.3000	-4.4874	0.227916	0	
1.3007	-11.8002	-0.683747	0	
1.3013	-20.9412	-2.82616	0	
1.3020	-20.9412	-3.46432	0	
1.3027	-15.4566	-2.82616	0	
1.3033	-6.5926	-0.683747	0	
1.3040	13.5176	0.227916	0	
1.3047	39.5002	-1.64099	0	
1.3053	55.0122	-1.00283	0	
1.3060	58.3916	0.820497	0	
1.3067	48.6412	0.227916	0	
1.3073	20.2764	0.227916	0	
1.3080	-9.97201	1.13958	0	
1.3087	-21.2736	0.501415	0	
1.3093	-22.16	0.501415	0	
1.3100	-30.4146	2.05124	0	
1.3107	-39.2786	2.64382	0	
1.3113	-37.7274	1.73216	0	
1.3120	-28.8634	0.227916	0	
1.3127	-19.4454	1.13958	0	
1.3133	-11.1908	2.9629	0	
1.3140	-2.3268	-0.0911663	0	
1.3147	9.25181	-4.64948	0	
1.3153	20.5534	-4.37598	0	
1.3160	28.808	-2.82616	0	
1.3167	31.5226	-2.23357	0	
1.3173	26.6474	-0.410248	0	
1.3180	17.7834	1.13958	0	
1.3187	8.97481	1.73216	0	
1.3193	-6.3156	1.73216	0	
1.3200	-27.6446	-1.32191	0	
1.3207	-38.0598	-2.55266	0	
1.3213	-33.4616	-0.410248	0	
1.3220	-29.1958	-0.410248	0	
1.3227	-30.0822	-0.683747	0	
1.3233	-27.977	2.05124	0	
1.3240	-20.0548	0.820497	0	
1.3247	-13.9054	-3.46432	0	
1.3253	-13.9054	-1.91449	0	
1.3260	-13.6284	1.41308	0	
1.3267	-9.03021	1.73216	0	
1.3273	-4.4874	1.41308	0	
1.3280	-3.2686	1.73216	0	
1.3287	-3.5456	-0.410248	0	
1.3293	-3.5456	-1.64099	0	
1.3300	-0.831001	-1.00283	0	
1.3307	4.709	-0.683747	0	
1.3313	5.9278	-1.00283	0	
1.3320	4.709	-0.410248	0	
1.3327	6.5372	-0.0911663	0	
1.3333	7.1466	0.227916	0	
1.3340	6.5372	0.501415	0	
1.3347	8.03301	-2.23357	0	
1.3353	9.25181	-5.88023	0	
1.3360	12.0218	-2.82616	0	
1.3367	19.944	3.87457	0	
1.3373	29.6944	6.92864	0	
1.3380	34.5696	4.78623	0	
1.3387	34.902	-2.82616	0	
1.3393	33.0738	-12.6265	0	
1.3400	30.6362	-14.1308	0	
1.3407	30.6362	-8.02263	0	
1.3413	26.6474	-4.64948	0	
1.3420	6.5372	-2.55266	0	
1.3427	-26.1488	0.227916	0	
1.3433	-48.4196	-0.0911663	0	
1.3440	-51.1896	-0.0911663	0	
1.3447	-44.4308	1.13958	0	
1.3453	-32.8522	-1.32191	0	
1.3460	-16.066	-4.0569	0	
1.3467	3.1578	-1.32191	0	
1.3473	20.5534	2.05124	0	
1.3480	33.0738	1.73216	0	
1.3487	36.7302	-1.64099	0	
1.3493	31.2456	-3.46432	0	
1.3500	17.5064	0.501415	0	
1.3507	0.1108	3.87457	0	
1.3513	-15.4566	0.820497	0	
1.3520	-26.4258	-1.91449	0	
1.3527	-32.8522	-0.410248	0	
1.3533	-30.4146	0.227916	0	
1.3540	-23.3788	1.13958	0	
1.3547	-16.3984	2.64382	0	
1.3553	-8.75321	1.13958	0	
1.3560	-5.3738	0.501415	0	
1.3567	-8.14381	2.05124	0	
1.3573	-13.019	0.227916	0	
1.3580	-21.883	-0.0911663	0	
1.3587	-32.2428	3.87457	0	
1.3593	-30.4146	3.87457	0	
1.3600	-17.0078	1.13958	0	
1.3607	-6.925	2.37032	0	
1.3613	-1.4404	3.87457	0	
1.3620	3.1578	3.87457	0	
1.3627	4.3766	4.46715	0	
1.3633	2.8808	3.55549	0	
1.3640	1.939	1.73216	0	
1.3647	2.8808	3.55549	0	
1.3653	5.9278	5.10531	0	
1.3660	10.803	3.28199	0	
1.3667	18.3928	3.28199	0	
1.3673	31.855	6.33606	0	
1.3680	40.3866	5.69789	0	
1.3687	30.0268	1.41308	0	
1.3693	15.0688	0.501415	0	
1.3700	13.85	3.28199	0	
1.3707	11.08	3.87457	0	
1.3713	-7.5344	2.64382	0	
1.3720	-27.3676	2.9629	0	
1.3727	-33.1292	2.9629	0	
1.3733	-31.301	2.05124	0	
1.3740	-31.024	1.13958	0	
1.3747	-32.5198	0.820497	0	
1.3753	-30.0822	-0.0911663	0	
1.3760	-18.5036	0.501415	0	
1.3767	-5.3738	1.13958	0	
1.3773	-1.108	0.227916	0	
1.3780	2.216	1.13958	0	
1.3787	12.6312	3.28199	0	
1.3793	19.944	2.05124	0	
1.3800	16.5646	-0.410248	0	
1.3807	9.58421	0.227916	0	
1.3813	4.709	2.37032	0	
1.3820	0.997201	2.9629	0	
1.3827	-0.2216	2.64382	0	
1.3833	3.7672	2.9629	0	
1.3840	10.4706	3.28199	0	
1.3847	14.4594	2.64382	0	
1.3853	20.5534	2.64382	0	
1.3860	33.3508	3.87457	0	
1.3867	45.8712	2.9629	0	
1.3873	49.2506	1.13958	0	
1.3880	38.5584	1.41308	0	
1.3887	12.2988	1.73216	0	
1.3893	-12.4096	2.05124	0	
1.3900	-18.5036	1.13958	0	
1.3907	-19.7224	-2.82616	0	
1.3913	-29.1958	-4.96856	0	
1.3920	-34.071	-2.55266	0	
1.3927	-28.5864	-1.64099	0	
1.3933	-25.207	-1.64099	0	
1.3940	-22.7694	-0.0911663	0	
1.3947	-12.0772	-0.410248	0	
1.3953	1.6066	-3.14524	0	
1.3960	12.2988	-3.46432	0	
1.3967	21.7722	-3.14524	0	
1.3973	25.1516	-3.46432	0	
1.3980	15.6782	-3.46432	0	
1.3987	3.1578	-3.46432	0	
1.3993	-0.4986	-2.82616	0	
1.4000	2.5484	-0.410248	0	
1.4007	8.36541	-0.410248	0	
1.4013	14.7364	-3.73782	0	
1.4020	11.08	-6.19931	0	
1.4027	-6.3156	-5.28765	0	
1.4033	-22.16	-2.82616	0	
1.4040	-26.4258	-1.32191	0	
1.4047	-26.7582	-0.0911663	0	
1.4053	-33.794	1.13958	0	
1.4060	-42.6026	1.73216	0	
1.4067	-41.7162	0.227916	0	
1.4073	-31.301	-2.82616	0	
1.4080	-20.9412	-5.88023	0	
1.4087	-14.5148	-5.28765	0	
1.4093	-11.4678	-1.91449	0	
1.4100	-7.202	-0.683747	0	
1.4107	1.6066	-3.46432	0	
1.4113	7.4236	-4.96856	0	
1.4120	3.7672	-4.37598	0	
1.4127	-0.4986	-1.91449	0	
1.4133	0.7202	1.13958	0	
1.4140	1.6066	4.19365	0	
1.4147	2.8808	8.15938	0	
1.4153	6.2048	6.33606	0	
1.4160	6.2048	-5.88023	0	
1.4167	5.5954	-16.2732	0	
1.4173	13.85	-14.1308	0	
1.4180	30.3038	-8.02263	0	
1.4187	44.9848	-5.88023	0	
1.4193	48.9182	-5.28765	0	
1.4200	41.6054	-6.51839	0	
1.4207	27.5892	-7.70355	0	
1.4213	13.85	-4.96856	0	
1.4220	4.986	-3.14524	0	
1.4227	-1.7174	-4.0569	0	
1.4233	-9.63961	-3.73782	0	
1.4240	-10.8584	-3.46432	0	
1.4247	-5.7062	-5.60673	0	
1.4253	-3.5456	-4.96856	0	
1.4260	-5.0968	-1.64099	0	
1.4267	-4.7644	0.501415	0	
1.4273	-0.2216	0.820497	0	
1.4280	9.86121	-0.410248	0	
1.4287	19.3346	-0.683747	0	
1.4293	19.944	-0.683747	0	
1.4300	14.4594	-3.46432	0	
1.4307	2.8808	-3.73782	0	
1.4313	-16.3984	1.13958	0	
1.4320	-28.5864	2.05124	0	
1.4327	-29.1958	-1.64099	0	
1.4333	-28.5864	-2.82616	0	
1.4340	-26.7582	-1.64099	0	
1.4347	-17.8942	-1.64099	0	
1.4353	-11.1908	0.501415	0	
1.4360	-9.97201	3.55549	0	
1.4367	-7.202	2.37032	0	
1.4373	-4.7644	1.41308	0	
1.4380	-4.4874	2.37032	0	
1.4387	-0.4986	0.227916	0	
1.4393	3.7672	-1.32191	0	
1.4400	2.5484	2.9629	0	
1.4407	0.997201	3.87457	0	
1.4413	4.3766	-0.0911663	0	
1.4420	8.97481	0.227916	0	
1.4427	11.08	3.55549	0	
1.4433	12.2988	1.13958	0	
1.4440	13.2406	-1.91449	0	
1.4447	11.08	0.501415	0	
1.4453	9.25181	2.37032	0	
1.4460	12.2988	1.13958	0	
1.4467	12.2988	-0.0911663	0	
1.4473	6.5372	-1.64099	0	
1.4480	5.5954	-1.91449	0	
1.4487	3.4902	-0.410248	0	
1.4493	-11.8002	0.820497	0	
1.4500	-26.7582	1.73216	0	
1.4507	-20.3318	2.37032	0	
1.4513	0.997201	1.13958	0	
1.4520	20.2764	2.37032	0	
1.4527	33.9602	5.69789	0	
1.4533	40.719	3.87457	0	
1.4540	36.7302	0.227916	0	
1.4547	24.2098	2.9629	0	
1.4553	13.2406	5.69789	0	
1.4560	4.3766	4.78623	0	
1.4567	-13.9054	6.01698	0	
1.4573	-37.4504	7.24772	0	
1.4580	-45.3726	4.78623	0	
1.4587	-35.6222	5.37881	0	
1.4593	-24.5976	8.43288	0	
1.4600	-18.2266	7.52122	0	
1.4607	-14.5148	6.01698	0	
1.4613	-11.8002	5.69789	0	
1.4620	-10.8584	1.73216	0	
1.4627	-10.8584	-0.683747	0	
1.4633	-8.14381	2.9629	0	
1.4640	-1.4404	4.46715	0	
1.4647	4.3766	0.227916	0	
1.4653	10.803	-2.82616	0	
1.4660	21.1628	-2.82616	0	
1.4667	26.6474	-2.23357	0	
1.4673	17.7834	-1.64099	0	
1.4680	4.986	-1.64099	0	
1.4687	-0.831001	-2.55266	0	
1.4693	-5.9832	-3.14524	0	
1.4700	-15.789	-3.46432	0	
1.4707	-19.113	-2.55266	0	
1.4713	-8.14381	-1.64099	0	
1.4720	8.97481	-1.64099	0	
1.4727	22.1046	0.227916	0	
1.4733	25.761	1.41308	0	
1.4740	25.1516	0.227916	0	
1.4747	32.132	-0.683747	0	
1.4753	47.6994	-3.14524	0	
1.4760	61.771	-7.70355	0	
1.4767	66.3138	-8.02263	0	
1.4773	51.3558	-5.28765	0	
1.4780	13.85	-2.82616	0	
1.4787	-23.3788	0.227916	0	
1.4793	-40.7744	1.73216	0	
1.4800	-44.7632	-0.0911663	0	
1.4807	-43.8214	-0.683747	0	
1.4813	-41.1068	-0.410248	0	
1.4820	-44.1538	-2.55266	0	
1.4827	-48.6966	-0.410248	0	
1.4833	-41.7162	6.33606	0	
1.4840	-26.7582	9.66363	0	
1.4847	-18.2266	7.52122	0	
1.4853	-17.0078	-1.91449	0	
1.4860	-13.9054	-13.5382	0	
1.4867	-8.75321	-14.4499	0	
1.4873	-7.202	-5.88023	0	
1.4880	-11.8002	-0.410248	0	
1.4887	-15.789	-0.683747	0	
1.4893	-14.8472	-1.64099	0	
1.4900	-11.4678	-2.55266	0	
1.4907	-6.3156	-2.55266	0	
1.4913	-0.831001	-2.23357	0	
1.4920	1.3296	-1.64099	0	
1.4927	0.7202	0.501415	0	
1.4933	1.939	1.13958	0	
1.4940	3.7672	-0.683747	0	
1.4947	4.709	-0.410248	0	
1.4953	8.36541	0.227916	0	
1.4960	13.5176	-1.64099	0	
1.4967	18.3928	-1.64099	0	
1.4973	25.761	0.227916	0	
1.4980	30.3038	-1.64099	0	
1.4987	31.855	-3.46432	0	
1.4993	38.8908	-3.46432	0	
1.5000	44.9848	-4.0569	0	
1.5007	36.7302	-4.0569	0	
1.5013	23.3234	-2.23357	0	
1.5020	18.3928	-2.55266	0	
1.5027	12.6312	-3.73782	0	
1.5033	-7.202	-2.23357	0	
1.5040	-31.6334	-0.410248	0	
1.5047	-40.7744	-2.55266	0	
1.5053	-31.9104	-4.96856	0	
1.5060	-26.4258	-4.0569	0	
1.5067	-34.6804	-1.91449	0	
1.5073	-37.4504	-1.91449	0	
1.5080	-24.5976	-2.23357	0	
1.5087	-8.42081	-2.23357	0	
1.5093	-1.4404	-0.683747	0	
1.5100	-1.108	2.37032	0	
1.5107	-2.3268	4.46715	0	
1.5113	-1.4404	2.05124	0	
1.5120	-1.7174	0.501415	0	
1.5127	-9.03021	2.9629	0	
1.5133	-21.5506	1.13958	0	
1.5140	-29.4728	-3.14524	0	
1.5147	-24.5976	-2.23357	0	
1.5153	-7.202	0.227916	0	
1.5160	12.2988	-1.64099	0	
1.5167	29.4174	-4.0569	0	
1.5173	45.5942	-4.37598	0	
1.5180	52.907	-3.14524	0	
1.5187	40.1096	0.227916	0	
1.5193	13.85	2.9629	0	
1.5200	-5.0968	0.227916	0	
1.5207	-10.249	-2.23357	0	
1.5213	-13.019	-0.410248	0	
1.5220	-20.9412	1.13958	0	
1.5227	-28.5864	0.820497	0	
1.5233	-28.254	-0.410248	0	
1.5240	-20.6642	-2.82616	0	
1.5247	-9.97201	-3.46432	0	
1.5253	-2.6592	1.13958	0	
1.5260	-1.7174	3.28199	0	
1.5267	-2.9362	-1.32191	0	
1.5273	-3.5456	-5.28765	0	
1.5280	-6.3156	-3.73782	0	
1.5287	-9.03021	-0.683747	0	
1.5293	-4.4874	0.820497	0	
1.5300	4.0996	1.13958	0	
1.5307	10.1936	0.501415	0	
1.5313	15.3458	0.227916	0	
1.5320	19.3346	0.227916	0	
1.5327	16.5646	-0.410248	0	
1.5333	12.0218	-0.683747	0	
1.5340	11.6894	-0.683747	0	
1.5347	10.803	-1.64099	0	
1.5353	7.4236	-2.82616	0	
1.5360	3.7672	-2.82616	0	
1.5367	-6.3156	-1.64099	0	
1.5373	-20.9412	-0.410248	0	
1.5380	-23.9882	-0.683747	0	
1.5387	-17.0078	-2.23357	0	
1.5393	-12.6866	-1.00283	0	
1.5400	-10.8584	0.501415	0	
1.5407	-9.03021	0.227916	0	
1.5413	-11.1908	-0.683747	0	
1.5420	-12.6866	1.13958	0	
1.5427	-9.36261	2.9629	0	
1.5433	-8.42081	1.73216	0	
1.5440	-9.63961	-1.00283	0	
1.5447	-4.4874	-1.91449	0	
1.5453	4.3766	-0.683747	0	
1.5460	7.75601	-0.410248	0	
1.5467	11.08	-0.683747	0	
1.5473	19.3346	-0.683747	0	
1.5480	23.3234	-1.32191	0	
1.5487	16.2876	-0.683747	0	
1.5493	8.64241	2.64382	0	
1.5500	8.03301	3.87457	0	
1.5507	7.4236	-0.683747	0	
1.5513	5.3184	-3.73782	0	
1.5520	7.4236	0.227916	0	
1.5527	10.803	5.69789	0	
1.5533	11.08	10.5753	0	
1.5540	12.0218	12.3986	0	
1.5547	13.85	5.37881	0	
1.5553	11.4124	-6.51839	0	
1.5560	8.03301	-9.84596	0	
1.5567	8.36541	-3.46432	0	
1.5573	9.25181	3.28199	0	
1.5580	9.25181	4.78623	0	
1.5587	18.7252	2.9629	0	
1.5593	37.6166	2.9629	0	
1.5600	52.5746	5.37881	0	
1.5607	52.907	5.37881	0	
1.5613	44.3754	4.78623	0	
1.5620	44.043	6.60956	0	
1.5627	44.6524	6.92864	0	
1.5633	26.9798	5.69789	0	
1.5640	2.8808	6.60956	0	
1.5647	-13.9054	6.92864	0	
1.5653	-44.7632	5.37881	0	
1.5660	-83.2109	5.69789	0	
1.5667	-88.0861	5.37881	0	
1.5673	-63.987	2.37032	0	
1.5680	-45.6496	1.73216	0	
1.5687	-34.6804	2.64382	0	
1.5693	-23.7112	3.28199	0	
1.5700	-16.6754	4.19365	0	
1.5707	-11.1908	3.28199	0	
1.5713	-3.878	1.13958	0	
1.5720	3.7672	2.9629	0	
1.5727	10.1936	5.69789	0	
1.5733	11.4124	4.78623	0	
1.5740	8.97481	2.9629	0	
1.5747	3.4902	1.73216	0	
1.5753	-10.249	0.820497	0	
1.5760	-23.9882	0.820497	0	
1.5767	-25.207	0.227916	0	
1.5773	-17.2848	-0.0911663	0	
1.5780	-5.3738	1.41308	0	
1.5787	5.5954	2.05124	0	
1.5793	4.709	0.227916	0	
1.5800	-2.0498	1.13958	0	
1.5807	-2.6592	2.05124	0	
1.5813	-2.6592	-1.00283	0	
1.5820	-5.0968	-1.64099	0	
1.5827	-5.0968	1.13958	0	
1.5833	-9.03021	0.501415	0	
1.5840	-17.2848	-1.00283	0	
1.5847	-16.6754	1.13958	0	
1.5853	-10.8584	2.37032	0	
1.5860	-8.75321	1.13958	0	
1.5867	-10.8584	0.227916	0	
1.5873	-14.2378	-1.64099	0	
1.5880	-11.1908	-3.46432	0	
1.5887	-0.4986	-2.82616	0	
1.5893	4.3766	-3.14524	0	
1.5900	-1.4404	-4.37598	0	
1.5907	-2.6592	-4.37598	0	
1.5913	4.3766	-5.28765	0	
1.5920	10.803	-6.79189	0	
1.5927	12.9082	-4.96856	0	
1.5933	10.1936	-4.96856	0	
1.5940	6.8142	-6.51839	0	
1.5947	8.36541	-5.28765	0	
1.5953	9.58421	-3.46432	0	
1.5960	7.1466	-3.14524	0	
1.5967	7.4236	-0.683747	0	
1.5973	9.58421	-0.410248	0	
1.5980	8.64241	-4.37598	0	
1.5987	8.64241	-5.28765	0	
1.5993	12.9082	-4.0569	0	
1.6000	21.7722	-5.60673	0	
1.6007	36.7302	-6.19931	0	
1.6013	51.3558	-4.37598	0	
1.6020	52.2976	-2.82616	0	
1.6027	40.1096	-0.410248	0	
1.6033	24.5422	1.41308	0	
1.6040	10.4706	0.227916	0	
1.6047	-4.7644	-0.0911663	0	
1.6053	-27.3676	0.227916	0	
1.6060	-50.2478	-1.64099	0	
1.6067	-54.5136	-1.91449	0	
1.6073	-41.9932	-2.23357	0	
1.6080	-35.6222	-3.73782	0	
1.6087	-37.118	-4.96856	0	
1.6093	-29.4728	-4.0569	0	
1.6100	-15.4566	-2.55266	0	
1.6107	-8.14381	-0.410248	0	
1.6113	-6.5926	-0.410248	0	
1.6120	-0.2216	-1.64099	0	
1.6127	12.0218	-2.23357	0	
1.6133	23.9328	-3.46432	0	
1.6140	30.3038	-3.14524	0	
1.6147	36.3978	0.227916	0	
1.6153	44.043	1.13958	0	
1.6160	40.719	-0.410248	0	
1.6167	23.6004	0.227916	0	
1.6173	8.03301	-0.0911663	0	
1.6180	-7.202	-1.64099	0	
1.6187	-33.794	0.227916	0	
1.6193	-53.9042	2.9629	0	
1.6200	-47.4778	3.55549	0	
1.6207	-28.8634	2.9629	0	
1.6213	-14.8472	-2.82616	0	
1.6220	-3.5456	-14.4499	0	
1.6227	5.5954	-18.0965	0	
1.6233	4.709	-10.7576	0	
1.6240	-3.5456	-5.28765	0	
1.6247	-14.5148	-6.19931	0	
1.6253	-23.1018	-5.28765	0	
1.6260	-20.6642	-3.14524	0	
1.6267	-12.0772	-3.46432	0	
1.6273	-7.81141	-4.64948	0	
1.6280	-6.5926	-3.46432	0	
1.6287	-4.4874	-2.23357	0	
1.6293	-4.4874	-2.82616	0	
1.6300	-6.925	-4.96856	0	
1.6307	-5.3738	-5.28765	0	
1.6313	2.8808	-2.55266	0	
1.6320	10.803	0.227916	0	
1.6327	8.97481	0.227916	0	
1.6333	3.7672	0.501415	0	
1.6340	5.3184	0.820497	0	
1.6347	10.1936	-1.00283	0	
1.6353	12.0218	-1.91449	0	
1.6360	10.1936	-0.683747	0	
1.6367	3.4902	-0.683747	0	
1.6373	-3.5456	-1.64099	0	
1.6380	-2.0498	0.820497	0	
1.6387	2.8808	3.87457	0	
1.6393	3.1578	1.41308	0	
1.6400	1.6066	-1.32191	0	
1.6407	0.997201	-0.0911663	0	
1.6413	-1.108	0.501415	0	
1.6420	-0.831001	0.820497	0	
1.6427	5.5954	1.73216	0	
1.6433	13.85	-0.683747	0	
1.6440	22.1046	-2.55266	0	
1.6447	34.902	0.227916	0	
1.6453	50.7464	-0.0911663	0	
1.6460	65.095	-1.64099	0	
1.6467	72.7402	2.05124	0	
1.6473	63.5992	2.05124	0	
1.6480	32.132	-3.14524	0	
1.6487	-7.202	-3.14524	0	
1.6493	-36.5086	0.227916	0	
1.6500	-53.0178	1.73216	0	
1.6507	-62.4358	3.87457	0	
1.6513	-65.2058	5.37881	0	
1.6520	-59.3888	4.78623	0	
1.6527	-44.1538	6.60956	0	
1.6533	-27.3676	7.8403	0	
1.6540	-16.066	6.33606	0	
1.6547	-9.03021	6.60956	0	
1.6553	-5.0968	7.52122	0	
1.6560	-6.3156	5.69789	0	
1.6567	-8.14381	5.37881	0	
1.6573	-5.3738	4.19365	0	
1.6580	-4.4874	0.227916	0	
1.6587	-9.36261	0.501415	0	
1.6593	-9.97201	4.19365	0	
1.6600	-4.4874	1.41308	0	
1.6607	0.1108	-3.14524	0	
1.6613	0.1108	-0.683747	0	
1.6620	1.3296	2.9629	0	
1.6627	4.986	0.227916	0	
1.6633	10.1936	-1.64099	0	
1.6640	15.6782	1.13958	0	
1.6647	20.2764	2.05124	0	
1.6653	21.7722	2.05124	0	
1.6660	23.3234	2.05124	0	
1.6667	25.4286	0.501415	0	
1.6673	24.5422	1.73216	0	
1.6680	17.7834	6.01698	0	
1.6687	8.36541	6.60956	0	
1.6693	1.939	2.9629	0	
1.6700	3.1578	2.9629	0	
1.6707	9.58421	4.19365	0	
1.6713	17.7834	3.87457	0	
1.6720	31.2456	2.9629	0	
1.6727	48.6412	3.28199	0	
1.6733	55.954	3.28199	0	
1.6740	44.043	3.55549	0	
1.6747	24.2098	3.28199	0	
1.6753	2.8808	0.227916	0	
1.6760	-27.3676	-0.683747	0	
1.6767	-59.1118	2.9629	0	
1.6773	-65.4828	3.87457	0	
1.6780	-43.212	0.820497	0	
1.6787	-20.3318	-0.410248	0	
1.6793	-12.0772	-0.410248	0	
1.6800	-10.5814	-1.64099	0	
1.6807	-9.03021	1.41308	0	
1.6813	-8.42081	5.69789	0	
1.6820	-10.8584	3.55549	0	
1.6827	-18.2266	-0.410248	0	
1.6833	-28.254	-0.0911663	0	
1.6840	-32.8522	1.73216	0	
1.6847	-28.254	2.9629	0	
1.6853	-18.2266	2.64382	0	
1.6860	-7.202	0.820497	0	
1.6867	1.939	1.41308	0	
1.6873	8.36541	3.87457	0	
1.6880	11.08	4.78623	0	
1.6887	5.5954	4.78623	0	
1.6893	-5.9832	5.69789	0	
1.6900	-8.75321	4.78623	0	
1.6907	2.8808	0.501415	0	
1.6913	16.897	-0.410248	0	
1.6920	21.1628	4.19365	0	
1.6927	19.0022	7.52122	0	
1.6933	19.3346	8.43288	0	
1.6940	25.4286	7.52122	0	
1.6947	32.7414	-1.64099	0	
1.6953	36.3978	-13.5382	0	
1.6960	33.3508	-13.5382	0	
1.6967	16.2876	-6.19931	0	
1.6973	-9.03021	-4.37598	0	
1.6980	-25.207	-4.37598	0	
1.6987	-30.6916	-3.46432	0	
1.6993	-35.8992	-3.46432	0	
1.7000	-37.4504	-2.55266	0	
1.7007	-30.4146	-1.64099	0	
1.7013	-20.9412	-3.46432	0	
1.7020	-17.6172	-4.0569	0	
1.7027	-17.2848	-1.91449	0	
1.7033	-14.2378	-0.683747	0	
1.7040	-7.5344	-1.91449	0	
1.7047	-0.4986	-3.73782	0	
1.7053	3.7672	-3.73782	0	
1.7060	2.8808	-3.73782	0	
1.7067	-0.831001	-4.37598	0	
1.7073	-0.831001	-4.37598	0	
1.7080	1.3296	-5.28765	0	
1.7087	0.997201	-6.19931	0	
1.7093	-0.2216	-4.37598	0	
1.7100	-0.4986	-1.64099	0	
1.7107	0.997201	-1.64099	0	
1.7113	6.2048	-1.91449	0	
1.7120	10.803	-2.82616	0	
1.7127	11.08	-5.88023	0	
1.7133	10.803	-6.51839	0	
1.7140	9.58421	-4.64948	0	
1.7147	8.36541	-4.37598	0	
1.7153	13.85	-3.46432	0	
1.7160	21.1628	-1.64099	0	
1.7167	21.1628	-0.683747	0	
1.7173	17.5064	-1.64099	0	
1.7180	18.1158	-4.0569	0	
1.7187	19.944	-4.0569	0	
1.7193	18.1158	-0.0911663	0	
1.7200	15.6782	-0.683747	0	
1.7207	12.9082	-4.64948	0	
1.7213	9.25181	-2.55266	0	
1.7220	5.5954	1.73216	0	
1.7227	2.5484	-0.683747	0	
1.7233	3.7672	-3.46432	0	
1.7240	14.7364	-1.64099	0	
1.7247	30.3038	-2.23357	0	
1.7253	33.9602	-3.73782	0	
1.7260	22.714	-0.683747	0	
1.7267	9.86121	3.87457	0	
1.7273	-0.831001	4.46715	0	
1.7280	-17.2848	1.13958	0	
1.7287	-37.4504	-2.55266	0	
1.7293	-49.029	-4.37598	0	
1.7300	-47.4778	-4.37598	0	
1.7307	-37.4504	-3.46432	0	
1.7313	-29.1958	-3.46432	0	
1.7320	-34.6804	-4.37598	0	
1.7327	-45.6496	-5.28765	0	
1.7333	-45.982	-4.96856	0	
1.7340	-36.5086	-4.0569	0	
1.7347	-32.8522	-1.64099	0	
1.7353	-37.7274	-0.0911663	0	
1.7360	-40.4974	-2.23357	0	
1.7367	-35.6222	-1.91449	0	
1.7373	-23.9882	2.64382	0	
1.7380	-11.8002	3.28199	0	
1.7387	-6.3156	-0.683747	0	
1.7393	-2.6592	-1.64099	0	
1.7400	2.5484	-0.410248	0	
1.7407	1.6066	-2.55266	0	
1.7413	-2.3268	-3.73782	0	
1.7420	-0.2216	-2.23357	0	
1.7427	2.8808	-1.91449	0	
1.7433	1.6066	-3.14524	0	
1.7440	-1.4404	-2.82616	0	
1.7447	-5.3738	-3.73782	0	
1.7453	-9.03021	-4.64948	0	
1.7460	-7.5344	-2.82616	0	
1.7467	-3.5456	-0.0911663	0	
1.7473	-0.831001	0.227916	0	
1.7480	4.709	-0.410248	0	
1.7487	11.08	1.13958	0	
1.7493	12.6312	1.73216	0	
1.7500	10.1936	-0.410248	0	
1.7507	9.86121	-1.91449	0	
1.7513	12.9082	-1.64099	0	
1.7520	15.0688	-1.64099	0	
1.7527	16.897	-2.23357	0	
1.7533	22.3816	-1.91449	0	
1.7540	33.0738	0.227916	0	
1.7547	45.8712	2.64382	0	
1.7553	54.4028	2.37032	0	
1.7560	49.5276	0.820497	0	
1.7567	33.9602	0.501415	0	
1.7573	22.3816	1.73216	0	
1.7580	13.5176	3.87457	0	
1.7587	-2.3268	6.01698	0	
1.7593	-16.066	8.43288	0	
1.7600	-16.3984	10.3018	0	
1.7607	-9.63961	4.78623	0	
1.7613	-1.108	-7.70355	0	
1.7620	9.25181	-11.3958	0	
1.7627	15.6782	-3.46432	0	
1.7633	13.85	0.820497	0	
1.7640	9.25181	-2.55266	0	
1.7647	5.5954	-4.0569	0	
1.7653	2.8808	-1.91449	0	
1.7660	-1.108	-1.00283	0	
1.7667	-6.3156	-1.91449	0	
1.7673	-10.249	-1.00283	0	
1.7680	-18.2266	0.820497	0	
1.7687	-26.7582	-0.683747	0	
1.7693	-22.4924	-2.55266	0	
1.7700	-9.03021	-0.0911663	0	
1.7707	-1.4404	2.05124	0	
1.7713	5.5954	2.64382	0	
1.7720	18.1158	2.9629	0	
1.7727	21.7722	1.41308	0	
1.7733	14.7364	0.501415	0	
1.7740	8.36541	2.64382	0	
1.7747	3.4902	1.41308	0	
1.7753	1.6066	-1.64099	0	
1.7760	11.4124	-0.683747	0	
1.7767	28.808	1.41308	0	
1.7773	44.6524	2.05124	0	
1.7780	52.907	2.37032	0	
1.7787	44.043	0.227916	0	
1.7793	21.4952	-1.64099	0	
1.7800	6.5372	-0.410248	0	
1.7807	8.03301	-1.64099	0	
1.7813	13.2406	-4.64948	0	
1.7820	14.127	-2.82616	0	
1.7827	4.709	-2.55266	0	
1.7833	-17.0078	-5.28765	0	
1.7840	-38.3368	-2.23357	0	
1.7847	-53.6272	2.9629	0	
1.7853	-72.2416	2.9629	0	
1.7860	-84.0973	1.73216	0	
1.7867	-70.081	2.64382	0	
1.7873	-46.5914	0.227916	0	
1.7880	-39.2786	-3.14524	0	
1.7887	-35.8992	-1.64099	0	
1.7893	-27.0352	0.227916	0	
1.7900	-24.5976	0.227916	0	
1.7907	-25.5394	1.13958	0	
1.7913	-20.0548	2.05124	0	
1.7920	-16.6754	0.501415	0	
1.7927	-16.066	-0.683747	0	
1.7933	-11.8002	-1.64099	0	
1.7940	-10.8584	-2.55266	0	
1.7947	-13.6284	-2.82616	0	
1.7953	-9.97201	-1.64099	0	
1.7960	-5.0968	-0.683747	0	
1.7967	-1.108	-1.32191	0	
1.7973	11.6894	-2.55266	0	
1.7980	29.4174	-2.82616	0	
1.7987	37.3396	-2.55266	0	
1.7993	30.6362	-0.683747	0	
1.8000	15.6782	2.05124	0	
1.8007	3.7672	1.13958	0	
1.8013	-2.3268	-0.683747	0	
1.8020	-14.8472	2.37032	0	
1.8027	-27.3676	2.05124	0	
1.8033	-22.4924	-1.64099	0	
1.8040	-10.8584	1.13958	0	
1.8047	-9.03021	3.28199	0	
1.8053	-8.14381	-2.23357	0	
1.8060	-4.4874	-1.91449	0	
1.8067	-5.0968	3.28199	0	
1.8073	-7.202	1.41308	0	
1.8080	-6.925	-0.410248	0	
1.8087	-5.7062	3.28199	0	
1.8093	-3.2686	3.28199	0	
1.8100	0.7202	2.37032	0	
1.8107	4.0996	4.46715	0	
1.8113	8.03301	2.64382	0	
1.8120	12.0218	-0.683747	0	
1.8127	16.897	1.73216	0	
1.8133	20.5534	3.87457	0	
1.8140	17.5064	2.05124	0	
1.8147	12.2988	1.41308	0	
1.8153	13.2406	2.9629	0	
1.8160	13.2406	3.28199	0	
1.8167	6.2048	1.41308	0	
1.8173	0.997201	-0.0911663	0	
1.8180	0.7202	-1.00283	0	
1.8187	0.1108	-1.91449	0	
1.8193	1.939	-1.64099	0	
1.8200	11.4124	1.41308	0	
1.8207	26.3704	2.05124	0	
1.8213	32.132	1.13958	0	
1.8220	15.3458	1.41308	0	
1.8227	-11.1908	2.05124	0	
1.8233	-21.883	1.13958	0	
1.8240	-17.2848	0.227916	0	
1.8247	-16.6754	0.227916	0	
1.8253	-20.9412	1.13958	0	
1.8260	-15.789	0.820497	0	
1.8267	-2.0498	0.501415	0	
1.8273	8.64241	2.37032	0	
1.8280	13.5176	4.19365	0	
1.8287	15.9552	2.37032	0	
1.8293	14.127	0.227916	0	
1.8300	7.4236	0.820497	0	
1.8307	1.939	2.64382	0	
1.8313	-2.6592	5.69789	0	
1.8320	-9.03021	9.98271	0	
1.8327	-9.36261	8.15938	0	
1.8333	1.939	-1.32191	0	
1.8340	18.3928	-11.9884	0	
1.8347	29.6944	-16.2732	0	
1.8353	27.5892	-10.4841	0	
1.8360	15.6782	-3.46432	0	
1.8367	6.5372	-4.96856	0	
1.8373	1.3296	-7.11097	0	
1.8380	-5.0968	-2.55266	0	
1.8387	-9.97201	-0.683747	0	
1.8393	-11.8002	-2.55266	0	
1.8400	-15.1242	-1.32191	0	
1.8407	-20.6642	-0.0911663	0	
1.8413	-30.6916	0.820497	0	
1.8420	-43.8214	4.46715	0	
1.8427	-49.306	5.10531	0	
1.8433	-43.8214	2.37032	0	
1.8440	-35.2898	4.19365	0	
1.8447	-27.0352	7.52122	0	
1.8453	-17.2848	6.60956	0	
1.8460	-5.3738	6.01698	0	
1.8467	6.8142	6.60956	0	
1.8473	16.2876	5.69789	0	
1.8480	21.1628	2.9629	0	
1.8487	23.9328	1.13958	0	
1.8493	25.761	1.41308	0	
1.8500	28.4756	1.73216	0	
1.8507	29.4174	1.13958	0	
1.8513	26.9798	2.37032	0	
1.8520	25.1516	2.9629	0	
1.8527	24.8192	-1.00283	0	
1.8533	23.3234	-2.23357	0	
1.8540	22.991	1.41308	0	
1.8547	22.991	2.05124	0	
1.8553	19.3346	-0.0911663	0	
1.8560	16.2876	-0.0911663	0	
1.8567	17.7834	-1.32191	0	
1.8573	21.1628	-4.0569	0	
1.8580	25.761	-3.46432	0	
1.8587	30.9132	-0.683747	0	
1.8593	32.7414	-0.410248	0	
1.8600	28.1986	-0.683747	0	
1.8607	19.3346	1.13958	0	
1.8613	11.6894	1.73216	0	
1.8620	7.75601	0.501415	0	
1.8627	2.8808	1.13958	0	
1.8633	-4.4874	1.13958	0	
1.8640	-9.97201	-1.00283	0	
1.8647	-17.8942	-2.55266	0	
1.8653	-27.0352	-2.82616	0	
1.8660	-27.6446	-2.55266	0	
1.8667	-19.4454	-0.0911663	0	
1.8673	-11.8002	0.501415	0	
1.8680	-6.925	0.227916	0	
1.8687	-0.831001	2.05124	0	
1.8693	4.3766	2.05124	0	
1.8700	4.709	-1.64099	0	
1.8707	4.709	-1.00283	0	
1.8713	12.6312	2.9629	0	
1.8720	21.1628	2.05124	0	
1.8727	24.8192	-0.683747	0	
1.8733	30.9132	0.227916	0	
1.8740	42.2148	1.73216	0	
1.8747	48.9182	1.13958	0	
1.8753	41.3284	-0.410248	0	
1.8760	15.9552	-1.00283	0	
1.8767	-12.6866	-1.64099	0	
1.8773	-27.977	-1.64099	0	
1.8780	-35.6222	1.13958	0	
1.8787	-44.1538	2.05124	0	
1.8793	-41.1068	-2.82616	0	
1.8800	-26.7582	-5.28765	0	
1.8807	-20.0548	0.227916	0	
1.8813	-19.7224	2.64382	0	
1.8820	-13.296	-0.683747	0	
1.8827	-9.97201	-1.91449	0	
1.8833	-17.0078	0.820497	0	
1.8840	-23.3788	3.28199	0	
1.8847	-23.7112	2.05124	0	
1.8853	-19.7224	-0.410248	0	
1.8860	-11.8002	1.13958	0	
1.8867	-5.9832	3.28199	0	
1.8873	-9.97201	3.28199	0	
1.8880	-17.2848	4.19365	0	
1.8887	-16.6754	3.87457	0	
1.8893	-9.97201	-0.410248	0	
1.8900	-2.6592	-1.32191	0	
1.8907	3.7672	0.227916	0	
1.8913	9.25181	-2.23357	0	
1.8920	15.0688	-4.37598	0	
1.8927	22.3816	-2.23357	0	
1.8933	30.6362	-0.410248	0	
1.8940	37.6166	-0.0911663	0	
1.8947	38.2814	-0.683747	0	
1.8953	28.808	-2.82616	0	
1.8960	21.1628	-4.37598	0	
1.8967	22.1046	-4.37598	0	
1.8973	18.1158	-2.82616	0	
1.8980	-0.831001	0.227916	0	
1.8987	-23.1018	1.73216	0	
1.8993	-40.165	-1.32191	0	
1.9000	-53.9042	-2.23357	0	
1.9007	-56.6742	-0.0911663	0	
1.9013	-41.7162	-1.64099	0	
1.9020	-22.4924	-2.82616	0	
1.9027	-15.789	-1.91449	0	
1.9033	-16.6754	-3.46432	0	
1.9040	-12.6866	-5.28765	0	
1.9047	-8.14381	-3.73782	0	
1.9053	-9.97201	-2.55266	0	
1.9060	-10.8584	-3.73782	0	
1.9067	-9.36261	-4.64948	0	
1.9073	-15.4566	-5.28765	0	
1.9080	-26.1488	-4.64948	0	
1.9087	-24.93	-1.91449	0	
1.9093	-13.019	-0.683747	0	
1.9100	-6.5926	-1.64099	0	
1.9107	-8.75321	-3.46432	0	
1.9113	-8.75321	-5.60673	0	
1.9120	-5.0968	-4.37598	0	
1.9127	-3.878	2.37032	0	
1.9133	-4.4874	9.39013	0	
1.9140	0.1108	9.39013	0	
1.9147	10.803	0.820497	0	
1.9153	26.6474	-9.57246	0	
1.9160	45.8712	-13.5382	0	
1.9167	54.7352	-11.3958	0	
1.9173	39.7772	-7.11097	0	
1.9180	13.5176	-3.46432	0	
1.9187	0.1108	-2.55266	0	
1.9193	-5.0968	-0.683747	0	
1.9200	-18.5036	2.37032	0	
1.9207	-28.254	2.64382	0	
1.9213	-21.2736	1.41308	0	
1.9220	-13.6284	2.37032	0	
1.9227	-11.1908	1.73216	0	
1.9233	-5.0968	0.501415	0	
1.9240	1.6066	3.87457	0	
1.9247	3.7672	4.78623	0	
1.9253	8.03301	-0.410248	0	
1.9260	12.0218	-2.23357	0	
1.9267	13.85	-0.0911663	0	
1.9273	16.5646	-0.410248	0	
1.9280	19.3346	-0.0911663	0	
1.9287	18.3928	2.9629	0	
1.9293	16.5646	3.55549	0	
1.9300	11.08	2.05124	0	
1.9307	3.7672	2.05124	0	
1.9313	1.939	2.64382	0	
1.9320	7.4236	1.73216	0	
1.9327	17.174	0.820497	0	
1.9333	28.4756	1.13958	0	
1.9340	33.6832	2.05124	0	
1.9347	25.761	3.28199	0	
1.9353	10.1936	3.87457	0	
1.9360	-0.4986	2.64382	0	
1.9367	-1.7174	2.05124	0	
1.9373	-3.5456	3.28199	0	
1.9380	-20.9412	3.55549	0	
1.9387	-39.5556	3.87457	0	
1.9393	-37.4504	4.19365	0	
1.9400	-24.5976	2.64382	0	
1.9407	-23.1018	2.05124	0	
1.9413	-24.93	3.55549	0	
1.9420	-19.4454	2.37032	0	
1.9427	-12.6866	-0.683747	0	
1.9433	-9.03021	-0.0911663	0	
1.9440	-4.4874	1.13958	0	
1.9447	4.986	0.227916	0	
1.9453	15.3458	-0.0911663	0	
1.9460	17.7834	-0.0911663	0	
1.9467	12.9082	-1.00283	0	
1.9473	11.6894	-1.91449	0	
1.9480	16.897	-3.46432	0	
1.9487	23.9328	-5.28765	0	
1.9493	31.855	-6.19931	0	
1.9500	32.4644	-5.60673	0	
1.9507	19.0022	-5.28765	0	
1.9513	-3.2686	-6.19931	0	
1.9520	-25.5394	-7.11097	0	
1.9527	-41.1068	-6.19931	0	
1.9533	-44.4308	-3.73782	0	
1.9540	-35.8992	-1.00283	0	
1.9547	-23.1018	-0.683747	0	
1.9553	-13.6284	-4.37598	0	
1.9560	-9.63961	-4.0569	0	
1.9567	-6.925	-0.0911663	0	
1.9573	-2.0498	-2.55266	0	
1.9580	2.216	-6.51839	0	
1.9587	3.1578	-2.55266	0	
1.9593	3.7672	0.820497	0	
1.9600	5.5954	-3.46432	0	
1.9607	5.9278	-3.46432	0	
1.9613	2.216	1.13958	0	
1.9620	-1.4404	-0.683747	0	
1.9627	3.1578	-4.37598	0	
1.9633	14.7364	-3.14524	0	
1.9640	25.761	-1.64099	0	
1.9647	31.855	-1.64099	0	
1.9653	35.5114	-2.55266	0	
1.9660	34.902	-2.82616	0	
1.9667	21.1628	-1.64099	0	
1.9673	-2.0498	-0.410248	0	
1.9680	-17.8942	-2.82616	0	
1.9687	-19.4454	-5.28765	0	
1.9693	-20.0548	-2.55266	0	
1.9700	-26.4258	2.05124	0	
1.9707	-30.6916	2.9629	0	
1.9713	-28.254	2.37032	0	
1.9720	-21.883	1.13958	0	
1.9727	-13.9054	-0.683747	0	
1.9733	-9.03021	-1.64099	0	
1.9740	-6.925	1.73216	0	
1.9747	-1.4404	7.24772	0	
1.9753	6.2048	9.98271	0	
1.9760	12.0218	3.87457	0	
1.9767	21.4952	-8.9343	0	
1.9773	36.1208	-14.7234	0	
1.9780	47.09	-8.34172	0	
1.9787	45.8712	-0.683747	0	
1.9793	35.5114	0.227916	0	
1.9800	24.5422	-1.64099	0	
1.9807	16.897	-2.23357	0	
1.9813	5.5954	-1.64099	0	
1.9820	-12.4096	0.820497	0	
1.9827	-27.3676	0.227916	0	
1.9833	-31.024	-2.55266	0	
1.9840	-31.9104	0.227916	0	
1.9847	-36.841	4.19365	0	
1.9853	-36.5086	2.37032	0	
1.9860	-27.3676	0.227916	0	
1.9867	-22.7694	1.13958	0	
1.9873	-28.8634	1.13958	0	
1.9880	-33.794	2.64382	0	
1.9887	-29.8052	5.69789	0	
1.9893	-22.16	5.69789	0	
1.9900	-17.0078	4.78623	0	
1.9907	-13.9054	6.60956	0	
1.9913	-12.6866	6.60956	0	
1.9920	-10.8584	6.01698	0	
1.9927	-5.3738	6.60956	0	
1.9933	1.939	5.37881	0	
1.9940	6.5372	4.19365	0	
1.9947	11.08	3.87457	0	
1.9953	22.3816	3.87457	0	
1.9960	36.7302	5.10531	0	
1.9967	42.5472	7.24772	0	
1.9973	40.3866	5.37881	0	
1.9980	36.1208	2.9629	0	
1.9987	33.0738	3.28199	0	
1.9993	33.0738	3.28199	0	
2.0000	31.855	2.9629	0	
2.0007	21.7722	4.19365	0	
2.0013	5.3184	4.19365	0	
2.0020	-8.75321	2.64382	0	
2.0027	-16.3984	2.37032	0	
2.0033	-13.6284	2.05124	0	
2.0040	-0.4986	1.13958	0	
2.0047	11.08	0.501415	0	
2.0053	12.0218	-0.0911663	0	
2.0060	8.36541	0.820497	0	
2.0067	4.986	2.9629	0	
2.0073	-3.878	1.73216	0	
2.0080	-21.5506	0.820497	0	
2.0087	-36.5086	4.19365	0	
2.0093	-37.118	4.46715	0	
2.0100	-27.6446	-0.683747	0	
2.0107	-20.0548	-1.64099	0	
2.0113	-17.8942	1.41308	0	
2.0120	-19.113	2.64382	0	
2.0127	-23.7112	2.05124	0	
2.0133	-26.7582	1.41308	0	
2.0140	-20.9412	1.41308	0	
2.0147	-10.249	2.64382	0	
2.0153	-4.155	2.05124	0	
2.0160	-2.0498	1.73216	0	
2.0167	0.1108	3.87457	0	
2.0173	3.4902	2.9629	0	
2.0180	6.5372	-1.32191	0	
2.0187	7.1466	-1.64099	0	
2.0193	5.5954	-0.410248	0	
2.0200	8.36541	-0.410248	0	
2.0207	12.2988	2.05124	0	
2.0213	8.36541	2.05124	0	
2.0220	0.3878	-2.82616	0	
2.0227	1.939	-2.82616	0	
2.0233	7.4236	1.41308	0	
2.0240	6.5372	-0.410248	0	
2.0247	7.1466	-3.73782	0	
2.0253	12.2988	-1.32191	0	
2.0260	15.6782	2.9629	0	
2.0267	22.991	3.87457	0	
2.0273	41.6054	3.28199	0	
2.0280	55.954	3.55549	0	
2.0287	46.813	3.87457	0	
2.0293	25.761	3.55549	0	
2.0300	15.9552	2.9629	0	
2.0307	13.85	2.37032	0	
2.0313	-4.155	2.64382	0	
2.0320	-33.4616	1.13958	0	
2.0327	-44.7632	-0.683747	0	
2.0333	-41.1068	2.05124	0	
2.0340	-42.3256	4.19365	0	
2.0347	-39.2786	1.13958	0	
2.0353	-22.7694	-0.683747	0	
2.0360	-8.42081	1.13958	0	
2.0367	-2.6592	1.13958	0	
2.0373	-0.4986	2.05124	0	
2.0380	-2.3268	4.46715	0	
2.0387	-2.6592	2.9629	0	
2.0393	2.216	-0.410248	0	
2.0400	4.3766	0.227916	0	
2.0407	3.7672	2.64382	0	
2.0413	3.4902	2.9629	0	
2.0420	1.6066	1.13958	0	
2.0427	0.1108	-0.683747	0	
2.0433	0.3878	-2.55266	0	
2.0440	-0.4986	-5.28765	0	
2.0447	1.939	-7.11097	0	
2.0453	7.1466	-4.0569	0	
2.0460	9.25181	2.05124	0	
2.0467	13.5176	5.10531	0	
2.0473	21.1628	1.41308	0	
2.0480	26.038	-10.165	0	
2.0487	32.132	-19.9198	0	
2.0493	43.1566	-16.5923	0	
2.0500	50.4694	-8.9343	0	
2.0507	47.6994	-8.61521	0	
2.0513	33.6832	-8.9343	0	
2.0520	12.0218	-7.11097	0	
2.0527	-1.108	-7.43005	0	
2.0533	-5.3738	-7.70355	0	
2.0540	-14.2378	-5.60673	0	
2.0547	-27.3676	-5.28765	0	
2.0553	-41.3838	-6.19931	0	
2.0560	-55.4554	-6.79189	0	
2.0567	-50.5248	-7.43005	0	
2.0573	-23.9882	-5.88023	0	
2.0580	-1.7174	-4.37598	0	
2.0587	0.7202	-5.60673	0	
2.0593	-8.14381	-5.28765	0	
2.0600	-18.2266	-1.64099	0	
2.0607	-21.883	-1.91449	0	
2.0613	-26.1488	-5.60673	0	
2.0620	-40.4974	-3.46432	0	
2.0627	-49.306	0.501415	0	
2.0633	-39.2786	-1.00283	0	
2.0640	-27.6446	-4.37598	0	
2.0647	-26.4258	-3.73782	0	
2.0653	-27.3676	-2.82616	0	
2.0660	-25.5394	-3.46432	0	
2.0667	-20.9412	-4.0569	0	
2.0673	-14.8472	-3.73782	0	
2.0680	-14.2378	-4.0569	0	
2.0687	-18.5036	-2.55266	0	
2.0693	-18.2266	-1.32191	0	
2.0700	-7.81141	-2.55266	0	
2.0707	7.1466	-3.46432	0	
2.0713	18.3928	-3.46432	0	
2.0720	23.3234	-4.37598	0	
2.0727	26.038	-3.46432	0	
2.0733	27.5892	1.13958	0	
2.0740	24.8192	2.9629	0	
2.0747	22.3816	0.227916	0	
2.0753	24.2098	-1.00283	0	
2.0760	26.6474	-1.32191	0	
2.0767	27.5892	-2.55266	0	
2.0773	26.6474	-2.55266	0	
2.0780	23.3234	-2.82616	0	
2.0787	18.7252	-5.60673	0	
2.0793	16.2876	-5.28765	0	
2.0800	15.6782	-1.91449	0	
2.0807	15.6782	-1.64099	0	
2.0813	16.2876	-3.46432	0	
2.0820	19.6116	-3.73782	0	
2.0827	23.9328	-3.73782	0	
2.0833	23.6004	-3.46432	0	
2.0840	21.4952	-0.410248	0	
2.0847	22.1046	2.37032	0	
2.0853	14.4594	2.64382	0	
2.0860	-9.03021	1.73216	0	
2.0867	-31.301	-1.64099	0	
2.0873	-35.0128	-5.28765	0	
2.0880	-29.4728	-4.96856	0	
2.0887	-27.6446	-1.32191	0	
2.0893	-22.7694	1.13958	0	
2.0900	-9.03021	2.37032	0	
2.0907	6.5372	2.64382	0	
2.0913	19.3346	1.41308	0	
2.0920	33.6832	0.227916	0	
2.0927	41.3284	0.227916	0	
2.0933	30.9132	0.501415	0	
2.0940	8.03301	0.227916	0	
2.0947	-15.4566	0.227916	0	
2.0953	-35.6222	1.13958	0	
2.0960	-50.2478	2.37032	0	
2.0967	-52.076	0.820497	0	
2.0973	-38.6692	-0.683747	0	
2.0980	-19.113	0.227916	0	
2.0987	-3.2686	0.227916	0	
2.0993	2.8808	-2.55266	0	
2.1000	3.7672	-2.82616	0	
2.1007	3.1578	-2.82616	0	
2.1013	-3.5456	-5.88023	0	
2.1020	-18.2266	-6.51839	0	
2.1027	-27.977	-1.64099	0	
2.1033	-26.1488	2.05124	0	
2.1040	-20.9412	1.13958	0	
2.1047	-16.3984	-0.683747	0	
2.1053	-9.03021	-0.683747	0	
2.1060	-2.6592	0.227916	0	
2.1067	-2.6592	0.227916	0	
2.1073	-3.5456	-0.683747	0	
2.1080	1.3296	-0.410248	0	
2.1087	3.7672	1.13958	0	
2.1093	-2.3268	2.05124	0	
2.1100	-7.5344	1.13958	0	
2.1107	-6.3156	-1.91449	0	
2.1113	-6.3156	-3.14524	0	
2.1120	-8.14381	-0.683747	0	
2.1127	-4.7644	1.13958	0	
2.1133	3.7672	0.227916	0	
2.1140	13.85	0.227916	0	
2.1147	26.038	0.501415	0	
2.1153	36.7302	-1.32191	0	
2.1160	38.2814	-2.55266	0	
2.1167	31.2456	-1.32191	0	
2.1173	24.2098	-0.683747	0	
2.1180	21.4952	-1.00283	0	
2.1187	14.7364	-1.32191	0	
2.1193	0.1108	-1.32191	0	
2.1200	-10.8584	-0.683747	0	
2.1207	-7.81141	-0.0911663	0	
2.1213	2.216	-1.64099	0	
2.1220	4.986	-0.683747	0	
2.1227	1.939	6.01698	0	
2.1233	7.4236	13.0368	0	
2.1240	17.5064	10.3018	0	
2.1247	18.1158	-1.64099	0	
2.1253	12.0218	-11.3958	0	
2.1260	6.2048	-10.165	0	
2.1267	-3.878	-4.96856	0	
2.1273	-18.5036	-3.46432	0	
2.1280	-32.8522	-1.64099	0	
2.1287	-40.165	1.73216	0	
2.1293	-31.024	0.227916	0	
2.1300	-8.42081	-2.55266	0	
2.1307	9.25181	-1.00283	0	
2.1313	22.1046	1.13958	0	
2.1320	31.2456	0.820497	0	
2.1327	19.3346	1.41308	0	
2.1333	-10.5814	1.13958	0	
2.1340	-27.3676	-1.00283	0	
2.1347	-27.977	-0.683747	0	
2.1353	-28.254	2.05124	0	
2.1360	-24.93	1.73216	0	
2.1367	-10.8584	-0.683747	0	
2.1373	2.5484	-1.64099	0	
2.1380	5.5954	-1.00283	0	
2.1387	5.5954	-0.0911663	0	
2.1393	9.58421	0.820497	0	
2.1400	11.08	-1.00283	0	
2.1407	6.5372	-3.14524	0	
2.1413	5.3184	-1.00283	0	
2.1420	4.3766	0.501415	0	
2.1427	-6.3156	-1.00283	0	
2.1433	-21.5506	-1.00283	0	
2.1440	-28.8634	2.05124	0	
2.1447	-32.5198	2.64382	0	
2.1453	-35.8992	0.820497	0	
2.1460	-33.794	0.501415	0	
2.1467	-26.1488	1.13958	0	
2.1473	-19.7224	0.501415	0	
2.1480	-11.4678	0.227916	0	
2.1487	3.7672	1.13958	0	
2.1493	18.7252	0.820497	0	
2.1500	25.761	-0.683747	0	
2.1507	28.4756	1.13958	0	
2.1513	33.0738	3.55549	0	
2.1520	35.7884	2.9629	0	
2.1527	36.7302	2.37032	0	
2.1533	43.766	4.19365	0	
2.1540	50.137	2.64382	0	
2.1547	46.813	0.227916	0	
2.1553	37.0072	2.9629	0	
2.1560	28.4756	5.10531	0	
2.1567	19.6116	2.37032	0	
2.1573	6.5372	0.227916	0	
2.1580	-5.7062	1.13958	0	
2.1587	-3.5456	2.05124	0	
2.1593	9.25181	2.64382	0	
2.1600	6.5372	1.13958	0	
2.1607	-16.066	-1.32191	0	
2.1613	-30.0822	-0.410248	0	
2.1620	-27.977	1.13958	0	
2.1627	-30.4146	-1.64099	0	
2.1633	-40.165	-4.37598	0	
2.1640	-41.3838	-4.37598	0	
2.1647	-32.8522	-4.37598	0	
2.1653	-22.16	-4.37598	0	
2.1660	-13.6284	-2.55266	0	
2.1667	-8.42081	-0.410248	0	
2.1673	-4.7644	-1.32191	0	
2.1680	-0.831001	-2.82616	0	
2.1687	0.7202	-0.410248	0	
2.1693	0.997201	2.64382	0	
2.1700	5.5954	2.64382	0	
2.1707	9.58421	3.55549	0	
2.1713	10.1936	4.78623	0	
2.1720	12.2988	3.87457	0	
2.1727	14.4594	2.9629	0	
2.1733	15.3458	2.64382	0	
2.1740	19.3346	2.37032	0	
2.1747	21.4952	2.64382	0	
2.1753	19.0022	3.28199	0	
2.1760	21.1628	3.55549	0	
2.1767	26.038	3.55549	0	
2.1773	24.8192	3.55549	0	
2.1780	21.1628	4.78623	0	
2.1787	13.85	7.52122	0	
2.1793	-1.7174	8.15938	0	
2.1800	-14.8472	5.37881	0	
2.1807	-20.9412	3.87457	0	
2.1813	-27.3676	4.46715	0	
2.1820	-28.254	4.46715	0	
2.1827	-13.296	3.28199	0	
2.1833	6.8142	2.9629	0	
2.1840	19.3346	3.55549	0	
2.1847	27.8662	2.9629	0	
2.1853	33.6832	0.820497	0	
2.1860	22.991	-1.00283	0	
2.1867	-7.202	-1.64099	0	
2.1873	-31.6334	-2.23357	0	
2.1880	-36.841	-1.91449	0	
2.1887	-38.9462	-1.00283	0	
2.1893	-41.9932	-1.00283	0	
2.1900	-33.794	-1.00283	0	
2.1907	-23.7112	-0.683747	0	
2.1913	-23.7112	-1.64099	0	
2.1920	-21.883	-1.91449	0	
2.1927	-14.5148	1.13958	0	
2.1933	-10.5814	5.37881	0	
2.1940	-7.202	5.37881	0	
2.1947	-0.831001	3.87457	0	
2.1953	2.5484	5.69789	0	
2.1960	5.5954	6.33606	0	
2.1967	8.97481	0.820497	0	
2.1973	7.4236	-2.23357	0	
2.1980	3.1578	2.9629	0	
2.1987	0.7202	7.8403	0	
2.1993	-2.6592	8.43288	0	
2.2000	-6.3156	9.66363	0	
2.2007	-7.202	4.78623	0	
2.2013	-4.4874	-9.25338	0	
2.2020	-1.7174	-16.2732	0	
2.2027	-3.5456	-9.57246	0	
2.2033	-7.202	-4.37598	0	
2.2040	-2.6592	-4.0569	0	
2.2047	9.25181	-3.14524	0	
2.2053	21.1628	-4.64948	0	
2.2060	36.7302	-7.11097	0	
2.2067	57.1728	-3.46432	0	
2.2073	68.142	-3.46432	0	
2.2080	58.724	-7.43005	0	
2.2087	33.0738	-3.14524	0	
2.2093	4.3766	2.9629	0	
2.2100	-21.2736	0.227916	0	
2.2107	-49.9154	-1.64099	0	
2.2113	-71.6322	2.05124	0	
2.2120	-63.0452	1.13958	0	
2.2127	-35.2898	-1.64099	0	
2.2133	-19.113	-2.82616	0	
2.2140	-18.2266	-3.73782	0	
2.2147	-18.2266	-3.46432	0	
2.2153	-10.8584	-1.64099	0	
2.2160	5.9278	-2.55266	0	
2.2167	20.5534	-2.82616	0	
2.2173	24.8192	-1.64099	0	
2.2180	30.9132	-1.64099	0	
2.2187	48.3088	-1.64099	0	
2.2193	61.1616	0.227916	0	
2.2200	47.09	1.73216	0	
2.2207	9.86121	4.46715	0	
2.2213	-18.5036	5.10531	0	
2.2220	-24.3206	-0.410248	0	
2.2227	-30.0822	-4.0569	0	
2.2233	-40.4974	-1.64099	0	
2.2240	-34.6804	-1.64099	0	
2.2247	-15.789	-4.37598	0	
2.2253	-6.925	-3.46432	0	
2.2260	-7.202	-0.683747	0	
2.2267	-6.5926	-1.64099	0	
2.2273	-6.5926	-4.0569	0	
2.2280	-9.03021	-5.28765	0	
2.2287	-11.8002	-4.37598	0	
2.2293	-9.97201	-2.23357	0	
2.2300	-1.108	-1.64099	0	
2.2307	5.5954	-3.46432	0	
2.2313	8.03301	-3.46432	0	
2.2320	9.86121	-1.64099	0	
2.2327	7.1466	0.227916	0	
2.2333	0.1108	1.13958	0	
2.2340	5.5954	0.227916	0	
2.2347	22.1046	-3.46432	0	
2.2353	27.5892	-3.73782	0	
2.2360	22.1046	-0.0911663	0	
2.2367	15.0688	1.41308	0	
2.2373	4.986	-0.0911663	0	
2.2380	-8.14381	-0.0911663	0	
2.2387	-13.019	-0.683747	0	
2.2393	-11.1908	-2.55266	0	
2.2400	-13.6284	0.227916	0	
2.2407	-17.2848	1.73216	0	
2.2413	-12.4096	-2.23357	0	
2.2420	-6.5926	-2.55266	0	
2.2427	-6.925	0.501415	0	
2.2433	-5.9832	-2.82616	0	
2.2440	-0.831001	-6.19931	0	
2.2447	0.1108	-2.23357	0	
2.2453	-1.7174	0.227916	0	
2.2460	-1.108	-2.23357	0	
2.2467	-0.4986	-2.23357	0	
2.2473	-1.7174	-1.64099	0	
2.2480	-1.7174	-2.55266	0	
2.2487	-2.3268	-0.683747	0	
2.2493	-0.831001	1.13958	0	
2.2500	8.97481	-0.0911663	0	
2.2507	23.9328	0.227916	0	
2.2513	36.1208	2.9629	0	
2.2520	40.3866	0.501415	0	
2.2527	34.902	-4.96856	0	
2.2533	22.991	-5.28765	0	
2.2540	14.7364	-1.64099	0	
2.2547	6.5372	-0.0911663	0	
2.2553	-9.36261	-0.410248	0	
2.2560	-22.7694	1.13958	0	
2.2567	-20.9412	1.13958	0	
2.2573	-12.6866	-1.00283	0	
2.2580	-7.202	-0.0911663	0	
2.2587	-2.9362	2.05124	0	
2.2593	-1.4404	1.13958	0	
2.2600	-4.7644	0.227916	0	
2.2607	-8.14381	1.13958	0	
2.2613	-8.14381	-2.23357	0	
2.2620	-7.202	-4.0569	0	
2.2627	-4.155	2.37032	0	
2.2633	1.939	8.75196	0	
2.2640	6.2048	6.60956	0	
2.2647	9.25181	-1.91449	0	
2.2653	18.3928	-12.3074	0	
2.2660	29.085	-16.5923	0	
2.2667	29.4174	-11.0767	0	
2.2673	20.2764	-4.64948	0	
2.2680	9.58421	-3.73782	0	
2.2687	-5.3738	-3.46432	0	
2.2693	-22.7694	-3.46432	0	
2.2700	-26.4258	-5.28765	0	
2.2707	-8.14381	-5.28765	0	
2.2713	17.174	-3.46432	0	
2.2720	31.2456	-2.55266	0	
2.2727	32.7414	-0.683747	0	
2.2733	22.991	-0.683747	0	
2.2740	4.709	-1.32191	0	
2.2747	-5.3738	-0.0911663	0	
2.2753	-2.0498	-1.32191	0	
2.2760	-5.7062	-3.73782	0	
2.2767	-20.3318	-1.32191	0	
2.2773	-22.7694	2.64382	0	
2.2780	-11.1908	2.37032	0	
2.2787	-7.81141	2.05124	0	
2.2793	-12.6866	3.55549	0	
2.2800	-16.6754	3.87457	0	
2.2807	-21.2736	2.64382	0	
2.2813	-23.7112	1.13958	0	
2.2820	-20.0548	-0.0911663	0	
2.2827	-19.7224	0.501415	0	
2.2833	-24.3206	2.64382	0	
2.2840	-28.8634	3.28199	0	
2.2847	-35.6222	2.37032	0	
2.2853	-45.6496	1.13958	0	
2.2860	-49.306	0.227916	0	
2.2867	-42.3256	0.820497	0	
2.2873	-33.1292	2.37032	0	
2.2880	-24.93	2.64382	0	
2.2887	-17.2848	2.64382	0	
2.2893	-11.8002	3.28199	0	
2.2900	-6.3156	2.9629	0	
2.2907	1.6066	0.820497	0	
2.2913	7.1466	2.05124	0	
2.2920	5.9278	5.69789	0	
2.2927	3.1578	6.01698	0	
2.2933	3.7672	4.19365	0	
2.2940	5.3184	2.64382	0	
2.2947	4.986	1.13958	0	
2.2953	4.709	-0.0911663	0	
2.2960	7.75601	-0.410248	0	
2.2967	12.6312	-1.64099	0	
2.2973	12.0218	-1.64099	0	
2.2980	6.2048	0.501415	0	
2.2987	3.4902	0.227916	0	
2.2993	1.3296	-3.46432	0	
2.3000	-1.4404	-4.96856	0	
2.3007	3.4902	-3.73782	0	
2.3013	10.1936	-3.46432	0	
2.3020	7.1466	-3.46432	0	
2.3027	6.5372	-2.55266	0	
2.3033	18.1158	-2.55266	0	
2.3040	25.4286	-3.14524	0	
2.3047	19.944	-1.32191	0	
2.3053	13.85	-0.683747	0	
2.3060	12.6312	-2.55266	0	
2.3067	12.6312	-1.64099	0	
2.3073	14.4594	0.501415	0	
2.3080	20.2764	-1.64099	0	
2.3087	29.4174	-2.55266	0	
2.3093	39.5002	-0.683747	0	
2.3100	41.3284	-1.64099	0	
2.3107	27.5892	-0.0911663	0	
2.3113	6.5372	3.87457	0	
2.3120	-3.2686	2.37032	0	
2.3127	-6.3156	-0.410248	0	
2.3133	-18.2266	2.37032	0	
2.3140	-29.4728	2.37032	0	
2.3147	-24.3206	-1.91449	0	
2.3153	-13.9054	-1.00283	0	
2.3160	-9.03021	1.73216	0	
2.3167	0.997201	0.227916	0	
2.3173	12.9082	0.501415	0	
2.3180	15.3458	3.28199	0	
2.3187	19.0022	4.19365	0	
2.3193	31.855	4.46715	0	
2.3200	42.2148	5.10531	0	
2.3207	47.6994	3.55549	0	
2.3213	55.0122	1.41308	0	
2.3220	63.5992	1.41308	0	
2.3227	68.142	1.73216	0	
2.3233	58.724	-0.410248	0	
2.3240	28.808	-3.46432	0	
2.3247	-7.202	-4.37598	0	
2.3253	-33.794	-2.23357	0	
2.3260	-53.0178	0.227916	0	
2.3267	-65.4828	1.13958	0	
2.3273	-69.804	0.501415	0	
2.3280	-76.175	-0.683747	0	
2.3287	-87.1997	-0.683747	0	
2.3293	-86.2579	-1.00283	0	
2.3300	-68.5298	-2.55266	0	
2.3307	-50.2478	-3.46432	0	
2.3313	-39.888	-1.64099	0	
2.3320	-32.8522	-0.410248	0	
2.3327	-23.3788	-0.683747	0	
2.3333	-13.296	-0.410248	0	
2.3340	-6.925	-2.55266	0	
2.3347	-3.878	-4.37598	0	
2.3353	-2.6592	-0.683747	0	
2.3360	-1.7174	1.41308	0	
2.3367	0.3878	-1.32191	0	
2.3373	5.5954	-1.32191	0	
2.3380	8.36541	-0.683747	0	
2.3387	7.75601	-3.46432	0	
2.3393	9.58421	-1.64099	0	
2.3400	10.803	4.78623	0	
2.3407	4.986	8.43288	0	
2.3413	-2.9362	6.60956	0	
2.3420	-10.8584	-1.91449	0	
2.3427	-18.2266	-12.6265	0	
2.3433	-17.8942	-11.0767	0	
2.3440	-8.75321	-1.64099	0	
2.3447	0.997201	-1.91449	0	
2.3453	8.36541	-6.19931	0	
2.3460	11.4124	-2.82616	0	
2.3467	7.1466	0.501415	0	
2.3473	3.4902	-2.55266	0	
2.3480	10.1936	-3.73782	0	
2.3487	23.9328	0.227916	0	
2.3493	35.7884	0.501415	0	
2.3500	40.719	-3.14524	0	
2.3507	32.132	-1.32191	0	
2.3513	19.3346	3.28199	0	
2.3520	15.3458	3.28199	0	
2.3527	15.6782	3.87457	0	
2.3533	13.5176	6.60956	0	
2.3540	18.7252	3.55549	0	
2.3547	35.5114	0.501415	0	
2.3553	47.6994	2.05124	0	
2.3560	37.0072	1.13958	0	
2.3567	10.803	-0.683747	0	
2.3573	-5.9832	1.13958	0	
2.3580	-9.36261	1.13958	0	
2.3587	-14.2378	-1.32191	0	
2.3593	-20.0548	-1.64099	0	
2.3600	-22.7694	-1.64099	0	
2.3607	-32.5198	-1.64099	0	
2.3613	-43.8214	1.13958	0	
2.3620	-38.9462	2.9629	0	
2.3627	-26.4258	2.37032	0	
2.3633	-20.0548	2.05124	0	
2.3640	-15.789	0.501415	0	
2.3647	-9.97201	-1.91449	0	
2.3653	-7.81141	0.227916	0	
2.3660	-7.202	3.87457	0	
2.3667	-4.4874	2.05124	0	
2.3673	2.8808	1.13958	0	
2.3680	13.85	5.69789	0	
2.3687	24.8192	5.37881	0	
2.3693	33.6832	2.05124	0	
2.3700	38.5584	4.19365	0	
2.3707	34.902	5.37881	0	
2.3713	25.1516	2.05124	0	
2.3720	14.7364	3.28199	0	
2.3727	0.997201	5.69789	0	
2.3733	-13.6284	2.05124	0	
2.3740	-14.5148	-0.410248	0	
2.3747	-0.831001	1.73216	0	
2.3753	11.6894	2.05124	0	
2.3760	16.2876	0.227916	0	
2.3767	17.5064	-0.410248	0	
2.3773	13.5176	1.13958	0	
2.3780	0.1108	2.37032	0	
2.3787	-13.6284	1.73216	0	
2.3793	-20.6642	-0.0911663	0	
2.3800	-30.6916	-1.32191	0	
2.3807	-44.7632	-0.410248	0	
2.3813	-48.4196	2.37032	0	
2.3820	-37.4504	2.64382	0	
2.3827	-21.883	-0.683747	0	
2.3833	-9.03021	-1.32191	0	
2.3840	-2.6592	-1.00283	0	
2.3847	3.1578	-4.64948	0	
2.3853	13.85	-6.19931	0	
2.3860	18.3928	-2.55266	0	
2.3867	10.1936	-0.683747	0	
2.3873	3.4902	-1.91449	0	
2.3880	3.7672	-2.23357	0	
2.3887	3.7672	-2.55266	0	
2.3893	5.3184	-2.82616	0	
2.3900	11.08	-2.55266	0	
2.3907	15.3458	-0.683747	0	
2.3913	15.0688	1.13958	0	
2.3920	10.4706	0.227916	0	
2.3927	4.0996	-3.46432	0	
2.3933	0.3878	-1.64099	0	
2.3940	2.216	2.37032	0	
2.3947	8.03301	0.820497	0	
2.3953	11.08	-1.64099	0	
2.3960	10.1936	-0.683747	0	
2.3967	11.08	0.227916	0	
2.3973	11.08	-0.410248	0	
2.3980	5.3184	-1.00283	0	
2.3987	4.709	-2.55266	0	
2.3993	9.25181	-1.64099	0	
2.4000	7.4236	2.9629	0	
2.4007	7.75601	4.19365	0	
2.4013	14.127	2.37032	0	
2.4020	9.58421	2.05124	0	
2.4027	1.939	2.37032	0	
2.4033	9.25181	1.73216	0	
2.4040	18.3928	1.13958	0	
2.4047	23.3234	0.820497	0	
2.4053	38.2814	1.73216	0	
2.4060	58.1146	3.28199	0	
2.4067	70.5796	3.87457	0	
2.4073	67.865	0.820497	0	
2.4080	36.7302	-2.55266	0	
2.4087	-6.5926	-3.14524	0	
2.4093	-30.4146	0.820497	0	
2.4100	-41.1068	8.75196	0	
2.4107	-58.5024	16.6834	0	
2.4113	-67.311	13.0368	0	
2.4120	-62.1588	-0.683747	0	
2.4127	-56.6742	-8.9343	0	
2.4133	-48.0872	-7.43005	0	
2.4140	-30.4146	-5.28765	0	
2.4147	-17.6172	-2.23357	0	
2.4153	-14.8472	1.73216	0	
2.4160	-12.6866	-0.683747	0	
2.4167	-8.75321	-4.0569	0	
2.4173	-7.5344	-2.23357	0	
2.4180	-9.03021	-1.64099	0	
2.4187	-12.4096	-2.55266	0	
2.4193	-13.9054	-0.410248	0	
2.4200	-10.8584	1.13958	0	
2.4207	-7.202	1.13958	0	
2.4213	-6.925	0.227916	0	
2.4220	-7.202	-1.64099	0	
2.4227	-7.202	-1.64099	0	
2.4233	-9.97201	0.227916	0	
2.4240	-12.0772	-2.55266	0	
2.4247	-6.5926	-4.64948	0	
2.4253	4.709	-1.64099	0	
2.4260	17.5064	0.227916	0	
2.4267	29.4174	-0.410248	0	
2.4273	32.4644	0.227916	0	
2.4280	29.085	0.227916	0	
2.4287	25.4286	-1.64099	0	
2.4293	16.5646	-1.64099	0	
2.4300	-1.4404	-0.683747	0	
2.4307	-18.5036	-0.683747	0	
2.4313	-23.7112	-0.683747	0	
2.4320	-19.7224	-1.00283	0	
2.4327	-15.4566	-0.683747	0	
2.4333	-19.113	-0.0911663	0	
2.4340	-24.5976	0.227916	0	
2.4347	-20.3318	1.41308	0	
2.4353	-9.03021	2.64382	0	
2.4360	-1.7174	2.37032	0	
2.4367	0.997201	0.227916	0	
2.4373	1.939	-2.23357	0	
2.4380	2.8808	-1.32191	0	
2.4387	5.5954	0.820497	0	
2.4393	7.1466	-0.0911663	0	
2.4400	4.0996	-0.683747	0	
2.4407	-1.108	0.820497	0	
2.4413	-2.3268	0.227916	0	
2.4420	0.1108	-0.410248	0	
2.4427	2.8808	1.13958	0	
2.4433	5.5954	0.227916	0	
2.4440	8.36541	-1.91449	0	
2.4447	14.127	-1.64099	0	
2.4453	27.8662	-2.55266	0	
2.4460	35.7884	-1.91449	0	
2.4467	16.5646	1.13958	0	
2.4473	-14.5148	2.05124	0	
2.4480	-27.3676	0.227916	0	
2.4487	-27.0352	-0.683747	0	
2.4493	-24.5976	-0.683747	0	
2.4500	-12.6866	0.227916	0	
2.4507	6.5372	2.05124	0	
2.4513	23.6004	1.73216	0	
2.4520	38.5584	-0.683747	0	
2.4527	40.1096	-2.23357	0	
2.4533	26.6474	-0.683747	0	
2.4540	22.3816	0.501415	0	
2.4547	26.9798	-0.683747	0	
2.4553	17.7834	-2.23357	0	
2.4560	3.4902	-1.64099	0	
2.4567	1.939	-3.14524	0	
2.4573	3.7672	-5.60673	0	
2.4580	-4.7644	-4.0569	0	
2.4587	-22.4924	-0.683747	0	
2.4593	-38.3368	-0.683747	0	
2.4600	-43.5444	-1.64099	0	
2.4607	-39.888	-2.55266	0	
2.4613	-34.6804	-3.73782	0	
2.4620	-27.3676	-3.73782	0	
2.4627	-18.5036	-3.14524	0	
2.4633	-16.3984	-4.0569	0	
2.4640	-20.0548	-5.60673	0	
2.4647	-19.4454	-4.37598	0	
2.4653	-15.4566	-1.64099	0	
2.4660	-10.8584	-0.0911663	0	
2.4667	0.1108	-1.32191	0	
2.4673	13.5176	-2.82616	0	
2.4680	15.6782	-3.14524	0	
2.4687	12.2988	-2.55266	0	
2.4693	14.4594	-1.64099	0	
2.4700	12.9082	-0.410248	0	
2.4707	6.8142	2.05124	0	
2.4713	8.64241	1.13958	0	
2.4720	14.7364	-3.46432	0	
2.4727	14.7364	-5.60673	0	
2.4733	12.0218	-2.23357	0	
2.4740	11.08	2.9629	0	
2.4747	9.25181	7.52122	0	
2.4753	10.1936	5.69789	0	
2.4760	15.9552	-5.88023	0	
2.4767	19.944	-15.3615	0	
2.4773	18.3928	-12.9	0	
2.4780	13.2406	-6.51839	0	
2.4787	7.75601	-4.0569	0	
2.4793	7.1466	-3.46432	0	
2.4800	9.25181	-4.0569	0	
2.4807	6.8142	-4.96856	0	
2.4813	0.7202	-4.64948	0	
2.4820	-2.3268	-4.37598	0	
2.4827	-0.4986	-4.37598	0	
2.4833	3.7672	-1.64099	0	
2.4840	7.4236	-1.32191	0	
2.4847	8.36541	-2.55266	0	
2.4853	5.5954	-1.91449	0	
2.4860	0.1108	-1.64099	0	
2.4867	-1.7174	-4.96856	0	
2.4873	5.3184	-5.88023	0	
2.4880	18.1158	-3.46432	0	
2.4887	27.8662	-4.37598	0	
2.4893	34.902	-8.02263	0	
2.4900	41.9378	-6.51839	0	
2.4907	48.3088	-2.23357	0	
2.4913	45.8712	-2.55266	0	
2.4920	24.8192	-4.96856	0	
2.4927	0.1108	-4.37598	0	
2.4933	-5.3738	-2.23357	0	
2.4940	-2.9362	-1.91449	0	
2.4947	-11.4678	-1.00283	0	
2.4953	-19.4454	0.820497	0	
2.4960	-19.4454	1.73216	0	
2.4967	-27.3676	-0.0911663	0	
2.4973	-42.935	-3.46432	0	
2.4980	-48.4196	-2.82616	0	
2.4987	-40.4974	0.820497	0	
2.4993	-31.9104	1.41308	0	
2.5000	-29.1958	-0.410248	0	
2.5007	-29.4728	1.13958	0	
2.5013	-24.3206	3.28199	0	
2.5020	-17.8942	1.73216	0	
2.5027	-13.6284	0.227916	0	
2.5033	-6.3156	1.13958	0	
2.5040	3.7672	2.05124	0	
2.5047	9.86121	1.13958	0	
2.5053	12.0218	-0.0911663	0	
2.5060	9.86121	0.227916	0	
2.5067	0.997201	1.73216	0	
2.5073	-7.5344	2.37032	0	
2.5080	-12.6866	0.227916	0	
2.5087	-14.2378	-0.0911663	0	
2.5093	-5.0968	2.37032	0	
2.5100	14.127	2.05124	0	
2.5107	26.6474	0.501415	0	
2.5113	20.2764	2.9629	0	
2.5120	2.8808	4.78623	0	
2.5127	-5.0968	3.28199	0	
2.5133	-1.7174	2.05124	0	
2.5140	-8.14381	-0.0911663	0	
2.5147	-26.4258	-2.55266	0	
2.5153	-34.6804	0.820497	0	
2.5160	-30.6916	5.69789	0	
2.5167	-30.0822	3.55549	0	
2.5173	-28.254	0.501415	0	
2.5180	-20.0548	2.9629	0	
2.5187	-13.6284	4.19365	0	
2.5193	-12.4096	2.9629	0	
2.5200	-10.8584	3.55549	0	
2.5207	-11.8002	3.87457	0	
2.5213	-17.8942	2.37032	0	
2.5220	-24.3206	2.37032	0	
2.5227	-28.8634	2.9629	0	
2.5233	-31.024	2.64382	0	
2.5240	-26.4258	3.28199	0	
2.5247	-17.6172	4.19365	0	
2.5253	-14.8472	3.55549	0	
2.5260	-20.3318	2.37032	0	
2.5267	-23.7112	1.73216	0	
2.5273	-14.2378	1.73216	0	
2.5280	1.939	2.9629	0	
2.5287	12.0218	3.55549	0	
2.5293	13.5176	3.28199	0	
2.5300	16.897	2.9629	0	
2.5307	24.8192	1.41308	0	
2.5313	30.3038	0.501415	0	
2.5320	30.9132	0.227916	0	
2.5327	32.132	-1.32191	0	
2.5333	38.5584	-1.32191	0	
2.5340	48.6412	1.13958	0	
2.5347	51.3558	1.41308	0	
2.5353	36.1208	1.73216	0	
2.5360	13.85	2.9629	0	
2.5367	6.5372	1.73216	0	
2.5373	15.3458	-0.410248	0	
2.5380	27.8662	-0.0911663	0	
2.5387	40.3866	-1.64099	0	
2.5393	44.043	-2.82616	0	
2.5400	30.0268	-0.683747	0	
2.5407	8.64241	0.501415	0	
2.5413	-10.8584	0.820497	0	
2.5420	-36.841	3.28199	0	
2.5427	-59.9982	3.55549	0	
2.5433	-58.7794	1.13958	0	
2.5440	-38.9462	1.13958	0	
2.5447	-20.0548	2.05124	0	
2.5453	-9.97201	-0.0911663	0	
2.5460	-7.81141	-1.64099	0	
2.5467	-10.249	-0.0911663	0	
2.5473	-13.296	1.73216	0	
2.5480	-17.8942	2.05124	0	
2.5487	-20.6642	0.501415	0	
2.5493	-16.6754	-1.32191	0	
2.5500	-11.4678	-0.683747	0	
2.5507	-8.14381	1.41308	0	
2.5513	-3.5456	3.87457	0	
2.5520	0.997201	7.24772	0	
2.5527	2.5484	5.69789	0	
2.5533	0.997201	-5.28765	0	
2.5540	0.1108	-15.9541	0	
2.5547	2.8808	-15.635	0	
2.5553	7.75601	-10.4841	0	
2.5560	13.2406	-8.9343	0	
2.5567	24.8192	-9.84596	0	
2.5573	38.5584	-9.25338	0	
2.5580	42.5472	-7.43005	0	
2.5587	35.5114	-5.88023	0	
2.5593	24.8192	-4.37598	0	
2.5600	12.9082	-2.23357	0	
2.5607	1.6066	-1.32191	0	
2.5613	-8.42081	-2.82616	0	
2.5620	-17.8942	-3.14524	0	
2.5627	-23.7112	-2.23357	0	
2.5633	-20.0548	-2.55266	0	
2.5640	-8.14381	-2.55266	0	
2.5647	2.8808	-1.64099	0	
2.5653	7.75601	-1.64099	0	
2.5660	6.8142	-1.64099	0	
2.5667	4.0996	-0.0911663	0	
2.5673	2.5484	0.227916	0	
2.5680	-0.2216	-1.00283	0	
2.5687	-5.3738	-1.64099	0	
2.5693	-5.7062	-1.91449	0	
2.5700	1.939	-2.55266	0	
2.5707	13.5176	-1.00283	0	
2.5713	25.4286	-0.683747	0	
2.5720	33.0738	-2.55266	0	
2.5727	34.902	-3.46432	0	
2.5733	37.0072	-2.55266	0	
2.5740	34.902	-1.91449	0	
2.5747	12.9082	-1.32191	0	
2.5753	-14.8472	-0.683747	0	
2.5760	-23.3788	-0.410248	0	
2.5767	-20.9412	0.501415	0	
2.5773	-23.7112	0.820497	0	
2.5780	-22.7694	-1.64099	0	
2.5787	-16.3984	-3.14524	0	
2.5793	-16.3984	-1.00283	0	
2.5800	-18.2266	1.13958	0	
2.5807	-13.6284	2.05124	0	
2.5813	-11.1908	2.64382	0	
2.5820	-11.8002	1.41308	0	
2.5827	-4.4874	1.13958	0	
2.5833	2.8808	2.37032	0	
2.5840	3.4902	2.9629	0	
2.5847	4.3766	0.501415	0	
2.5853	4.709	-1.32191	0	
2.5860	1.939	-1.64099	0	
2.5867	3.7672	-1.00283	0	
2.5873	4.0996	-0.683747	0	
2.5880	-4.4874	-1.00283	0	
2.5887	-12.6866	-1.91449	0	
2.5893	-19.113	-0.683747	0	
2.5900	-26.4258	0.820497	0	
2.5907	-21.2736	0.227916	0	
2.5913	-1.7174	-1.32191	0	
2.5920	14.4594	-2.55266	0	
2.5927	21.7722	-2.82616	0	
2.5933	24.5422	-2.23357	0	
2.5940	25.4286	-1.32191	0	
2.5947	29.6944	-2.55266	0	
2.5953	34.2926	-4.37598	0	
2.5960	30.3038	-4.0569	0	
2.5967	24.5422	-3.46432	0	
2.5973	16.897	-2.23357	0	
2.5980	-4.155	1.13958	0	
2.5987	-27.0352	2.64382	0	
2.5993	-29.4728	0.820497	0	
2.6000	-15.4566	0.227916	0	
2.6007	0.7202	1.13958	0	
2.6013	16.5646	-1.32191	0	
2.6020	26.3704	-1.64099	0	
2.6027	22.991	1.13958	0	
2.6033	14.7364	0.820497	0	
2.6040	4.986	-0.410248	0	
2.6047	-14.5148	2.05124	0	
2.6053	-34.071	2.05124	0	
2.6060	-36.5086	-1.00283	0	
2.6067	-28.8634	-0.683747	0	
2.6073	-21.2736	0.227916	0	
2.6080	-14.5148	0.820497	0	
2.6087	-13.296	2.64382	0	
2.6093	-16.3984	4.19365	0	
2.6100	-13.296	4.19365	0	
2.6107	-9.03021	4.78623	0	
2.6113	-9.97201	4.19365	0	
2.6120	-7.81141	3.87457	0	
2.6127	-5.3738	6.60956	0	
2.6133	-8.14381	8.15938	0	
2.6140	-8.14381	7.52122	0	
2.6147	-3.5456	9.39013	0	
2.6153	0.997201	9.98271	0	
2.6160	6.8142	6.60956	0	
2.6167	14.4594	2.9629	0	
2.6173	21.7722	1.13958	0	
2.6180	27.5892	2.05124	0	
2.6187	29.085	7.8403	0	
2.6193	29.6944	15.7718	0	
2.6200	35.179	18.2333	0	
2.6207	35.7884	8.15938	0	
2.6213	24.5422	-5.88023	0	
2.6220	12.2988	-10.165	0	
2.6227	8.97481	-7.11097	0	
2.6233	8.36541	-4.64948	0	
2.6240	3.4902	-1.64099	0	
2.6247	2.216	1.73216	0	
2.6253	11.4124	0.227916	0	
2.6260	22.714	-0.683747	0	
2.6267	29.085	1.13958	0	
2.6273	30.3038	0.501415	0	
2.6280	13.85	-0.683747	0	
2.6287	-20.0548	0.227916	0	
2.6293	-41.3838	1.13958	0	
2.6300	-42.935	1.41308	0	
2.6307	-45.0402	1.13958	0	
2.6313	-48.4196	0.820497	0	
2.6320	-42.3256	0.820497	0	
2.6327	-35.2898	0.227916	0	
2.6333	-31.024	-0.410248	0	
2.6340	-23.7112	1.41308	0	
2.6347	-14.5148	2.05124	0	
2.6353	-9.03021	-0.683747	0	
2.6360	-7.5344	-0.683747	0	
2.6367	-7.202	-0.410248	0	
2.6373	-3.5456	-3.73782	0	
2.6380	4.0996	-3.46432	0	
2.6387	10.803	-0.683747	0	
2.6393	17.5064	-1.64099	0	
2.6400	23.9328	-2.55266	0	
2.6407	24.2098	-0.0911663	0	
2.6413	19.3346	-0.683747	0	
2.6420	12.9082	-3.14524	0	
2.6427	2.8808	-3.14524	0	
2.6433	-11.8002	-2.23357	0	
2.6440	-25.5394	-0.683747	0	
2.6447	-32.8522	-0.683747	0	
2.6453	-27.0352	-2.82616	0	
2.6460	-13.6284	-2.23357	0	
2.6467	-5.3738	-0.410248	0	
2.6473	-8.75321	-1.00283	0	
2.6480	-13.6284	-1.64099	0	
2.6487	-9.97201	-1.64099	0	
2.6493	-2.3268	-0.410248	0	
2.6500	-1.7174	2.37032	0	
2.6507	-2.6592	1.13958	0	
2.6513	5.3184	-2.23357	0	
2.6520	12.0218	0.227916	0	
2.6527	9.58421	2.05124	0	
2.6533	3.7672	-2.82616	0	
2.6540	-4.4874	-4.37598	0	
2.6547	-12.6866	-1.32191	0	
2.6553	-9.97201	-1.91449	0	
2.6560	1.939	-3.46432	0	
2.6567	12.9082	-3.46432	0	
2.6573	24.8192	-5.88023	0	
2.6580	35.5114	-5.88023	0	
2.6587	33.0738	-2.55266	0	
2.6593	21.1628	-1.64099	0	
2.6600	12.9082	-2.82616	0	
2.6607	5.5954	-3.46432	0	
2.6613	-8.42081	-5.28765	0	
2.6620	-21.2736	-6.19931	0	
2.6627	-20.3318	-5.88023	0	
2.6633	-11.8002	-5.28765	0	
2.6640	-5.9832	-3.73782	0	
2.6647	-0.2216	-3.14524	0	
2.6653	8.36541	-3.46432	0	
2.6660	18.7252	-2.82616	0	
2.6667	21.4952	-1.64099	0	
2.6673	2.8808	-2.82616	0	
2.6680	-23.7112	-2.82616	0	
2.6687	-30.4146	-0.410248	0	
2.6693	-25.5394	-0.410248	0	
2.6700	-28.254	-2.55266	0	
2.6707	-27.3676	-2.55266	0	
2.6713	-12.4096	-1.64099	0	
2.6720	0.997201	-1.64099	0	
2.6727	4.709	-0.410248	0	
2.6733	6.5372	0.820497	0	
2.6740	7.4236	1.73216	0	
2.6747	6.2048	2.05124	0	
2.6753	7.4236	2.64382	0	
2.6760	8.36541	4.78623	0	
2.6767	6.5372	6.01698	0	
2.6773	8.36541	4.78623	0	
2.6780	16.2876	3.55549	0	
2.6787	23.6004	3.87457	0	
2.6793	24.8192	2.9629	0	
2.6800	18.1158	1.13958	0	
2.6807	6.8142	1.41308	0	
2.6813	-2.0498	4.46715	0	
2.6820	-5.3738	4.46715	0	
2.6827	-9.63961	-1.64099	0	
2.6833	-18.2266	-5.60673	0	
2.6840	-25.8164	0.227916	0	
2.6847	-26.1488	7.24772	0	
2.6853	-17.6172	7.8403	0	
2.6860	-7.202	5.69789	0	
2.6867	-4.155	-0.683747	0	
2.6873	-7.81141	-10.7576	0	
2.6880	-7.202	-13.5382	0	
2.6887	0.1108	-7.43005	0	
2.6893	7.1466	-2.82616	0	
2.6900	10.1936	-1.64099	0	
2.6907	10.1936	-0.683747	0	
2.6913	6.5372	0.227916	0	
2.6920	2.216	-0.0911663	0	
2.6927	2.216	0.501415	0	
2.6933	8.03301	2.9629	0	
2.6940	12.6312	5.37881	0	
2.6947	9.58421	5.69789	0	
2.6953	5.5954	3.87457	0	
2.6960	10.1936	1.13958	0	
2.6967	20.2764	1.13958	0	
2.6973	28.808	3.55549	0	
2.6980	35.179	3.28199	0	
2.6987	38.5584	0.820497	0	
2.6993	31.2456	1.41308	0	
2.7000	15.0688	2.64382	0	
2.7007	4.0996	2.05124	0	
2.7013	-4.155	2.64382	0	
2.7020	-22.16	2.05124	0	
2.7027	-39.2786	-0.0911663	0	
2.7033	-36.5086	0.501415	0	
2.7040	-22.7694	2.05124	0	
2.7047	-14.5148	1.41308	0	
2.7053	-11.1908	2.9629	0	
2.7060	-5.3738	4.19365	0	
2.7067	4.709	2.05124	0	
2.7073	16.5646	-0.0911663	0	
2.7080	26.9798	-1.00283	0	
2.7087	33.9602	-1.91449	0	
2.7093	33.3508	-0.410248	0	
2.7100	31.855	2.05124	0	
2.7107	40.1096	2.05124	0	
2.7113	44.043	0.820497	0	
2.7120	23.9328	-0.0911663	0	
2.7127	-7.202	-1.91449	0	
2.7133	-26.1488	-2.55266	0	
2.7140	-33.794	-1.00283	0	
2.7147	-40.165	0.227916	0	
2.7153	-51.1896	-0.410248	0	
2.7160	-56.0648	-1.32191	0	
2.7167	-42.935	-0.0911663	0	
2.7173	-24.93	1.13958	0	
2.7180	-17.2848	0.501415	0	
2.7187	-13.296	0.501415	0	
2.7193	-8.75321	1.73216	0	
2.7200	-5.3738	1.13958	0	
2.7207	0.997201	-0.0911663	0	
2.7213	4.709	0.820497	0	
2.7220	-0.2216	3.28199	0	
2.7227	-2.0498	3.55549	0	
2.7233	-0.2216	1.13958	0	
2.7240	-4.4874	-0.683747	0	
2.7247	-9.97201	-0.683747	0	
2.7253	-13.9054	-0.683747	0	
2.7260	-20.0548	-1.64099	0	
2.7267	-22.16	-1.32191	0	
2.7273	-17.2848	0.501415	0	
2.7280	-11.8002	0.501415	0	
2.7287	-6.5926	-0.410248	0	
2.7293	-4.4874	-0.0911663	0	
2.7300	-10.8584	0.227916	0	
2.7307	-13.296	-0.683747	0	
2.7313	-4.155	-1.00283	0	
2.7320	2.5484	0.501415	0	
2.7327	1.939	1.13958	0	
2.7333	4.709	-0.0911663	0	
2.7340	9.25181	-1.00283	0	
2.7347	9.25181	-1.64099	0	
2.7353	8.64241	-1.64099	0	
2.7360	6.2048	-0.0911663	0	
2.7367	-0.4986	0.820497	0	
2.7373	-2.0498	0.227916	0	
2.7380	1.3296	-0.410248	0	
2.7387	3.7672	-1.00283	0	
2.7393	7.75601	-0.683747	0	
2.7400	8.97481	1.73216	0	
2.7407	0.1108	2.05124	0	
2.7413	-5.3738	0.820497	0	
2.7420	-4.7644	1.73216	0	
2.7427	-11.4678	2.64382	0	
2.7433	-20.0548	0.501415	0	
2.7440	-14.5148	0.227916	0	
2.7447	-2.3268	4.78623	0	
2.7453	2.8808	6.92864	0	
2.7460	2.8808	4.78623	0	
2.7467	5.5954	4.46715	0	
2.7473	10.1936	5.69789	0	
2.7480	9.25181	3.87457	0	
2.7487	5.9278	2.9629	0	
2.7493	6.5372	4.19365	0	
2.7500	11.4124	2.05124	0	
2.7507	22.1046	-1.64099	0	
2.7513	36.3978	-1.64099	0	
2.7520	39.5002	-1.32191	0	
2.7527	32.4644	-1.91449	0	
2.7533	31.855	-0.0911663	0	
2.7540	35.7884	0.501415	0	
2.7547	29.4174	-0.683747	0	
2.7553	13.5176	1.13958	0	
2.7560	6.5372	2.64382	0	
2.7567	20.2764	-0.683747	0	
2.7573	37.0072	-2.55266	0	
2.7580	28.4756	-0.0911663	0	
2.7587	-3.5456	-1.00283	0	
2.7593	-31.024	-3.46432	0	
2.7600	-39.888	-1.64099	0	
2.7607	-41.7162	4.46715	0	
2.7613	-45.6496	7.52122	0	
2.7620	-44.1538	-0.0911663	0	
2.7627	-31.301	-11.9884	0	
2.7633	-17.0078	-13.5382	0	
2.7640	-11.4678	-6.79189	0	
2.7647	-13.6284	-4.64948	0	
2.7653	-22.7694	-4.96856	0	
2.7660	-37.4504	-2.55266	0	
2.7667	-45.6496	-2.23357	0	
2.7673	-40.7744	-2.82616	0	
2.7680	-31.024	-1.00283	0	
2.7687	-26.7582	-0.683747	0	
2.7693	-25.8164	-1.64099	0	
2.7700	-21.5506	0.227916	0	
2.7707	-9.03021	0.820497	0	
2.7713	7.4236	-0.683747	0	
2.7720	15.3458	-0.410248	0	
2.7727	14.7364	0.227916	0	
2.7733	20.2764	0.820497	0	
2.7740	30.0268	1.13958	0	
2.7747	27.5892	0.501415	0	
2.7753	15.6782	0.227916	0	
2.7760	9.25181	2.05124	0	
2.7767	13.85	2.05124	0	
2.7773	23.6004	0.820497	0	
2.7780	29.4174	0.227916	0	
2.7787	28.1986	-1.00283	0	
2.7793	24.5422	-1.64099	0	
2.7800	19.944	0.227916	0	
2.7807	15.9552	-0.410248	0	
2.7813	15.6782	-2.55266	0	
2.7820	13.85	-1.00283	0	
2.7827	9.25181	0.501415	0	
2.7833	6.8142	-1.64099	0	
2.7840	1.3296	-4.0569	0	
2.7847	-7.5344	-5.28765	0	
2.7853	-7.81141	-7.43005	0	
2.7860	-0.2216	-7.11097	0	
2.7867	3.4902	-2.82616	0	
2.7873	6.5372	0.227916	0	
2.7880	14.127	-0.683747	0	
2.7887	22.714	-1.91449	0	
2.7893	33.3508	0.227916	0	
2.7900	39.7772	1.73216	0	
2.7907	23.9328	1.73216	0	
2.7913	-11.1908	2.37032	0	
2.7920	-35.8992	1.73216	0	
2.7927	-39.2786	-0.0911663	0	
2.7933	-35.2898	1.13958	0	
2.7940	-28.5864	2.05124	0	
2.7947	-14.5148	-1.00283	0	
2.7953	0.997201	-2.55266	0	
2.7960	7.1466	-0.683747	0	
2.7967	7.1466	-1.91449	0	
2.7973	8.03301	-2.55266	0	
2.7980	7.4236	-0.0911663	0	
2.7987	5.9278	-1.64099	0	
2.7993	4.3766	-4.37598	0	
2.8000	-2.6592	-1.00283	0	
2.8007	-14.8472	3.55549	0	
2.8013	-19.4454	3.87457	0	
2.8020	-10.249	2.9629	0	
2.8027	5.3184	0.820497	0	
2.8033	20.8858	-1.64099	0	
2.8040	41.3284	-0.683747	0	
2.8047	61.4386	0.227916	0	
2.8053	60.2198	-0.683747	0	
2.8060	36.3978	-0.410248	0	
2.8067	13.85	2.05124	0	
2.8073	-4.4874	2.64382	0	
2.8080	-34.6804	0.227916	0	
2.8087	-63.987	-2.55266	0	
2.8093	-67.034	-1.32191	0	
2.8100	-45.6496	1.41308	0	
2.8107	-21.883	0.227916	0	
2.8113	-9.03021	-2.82616	0	
2.8120	-9.97201	-2.82616	0	
2.8127	-17.0078	-1.32191	0	
2.8133	-19.7224	0.227916	0	
2.8140	-15.1242	1.41308	0	
2.8147	-7.202	-0.0911663	0	
2.8153	-1.7174	-1.91449	0	
2.8160	-2.0498	1.73216	0	
2.8167	-3.2686	3.87457	0	
2.8173	-4.4874	1.13958	0	
2.8180	-9.97201	1.13958	0	
2.8187	-11.8002	3.87457	0	
2.8193	-2.6592	0.820497	0	
2.8200	8.03301	-2.82616	0	
2.8207	12.0218	-0.0911663	0	
2.8213	16.5646	1.41308	0	
2.8220	22.1046	-1.64099	0	
2.8227	23.6004	-4.37598	0	
2.8233	21.1628	-5.28765	0	
2.8240	15.6782	-5.28765	0	
2.8247	8.36541	-2.55266	0	
2.8253	-0.4986	2.05124	0	
2.8260	-10.249	6.60956	0	
2.8267	-13.6284	4.78623	0	
2.8273	-5.7062	-7.70355	0	
2.8280	-2.0498	-17.1848	0	
2.8287	-10.8584	-11.6693	0	
2.8293	-14.5148	-3.14524	0	
2.8300	-6.3156	-1.64099	0	
2.8307	-3.5456	-1.64099	0	
2.8313	-7.5344	0.227916	0	
2.8320	-2.0498	-0.410248	0	
2.8327	9.25181	-3.46432	0	
2.8333	14.7364	-3.46432	0	
2.8340	16.897	-2.82616	0	
2.8347	19.3346	-2.82616	0	
2.8353	22.1046	-1.32191	0	
2.8360	30.9132	1.13958	0	
2.8367	42.2148	0.501415	0	
2.8373	39.5002	0.227916	0	
2.8380	17.7834	0.501415	0	
2.8387	-5.9832	-0.410248	0	
2.8393	-20.3318	-1.32191	0	
2.8400	-27.977	-0.0911663	0	
2.8407	-29.1958	-0.410248	0	
2.8413	-21.883	-1.32191	0	
2.8420	-10.249	-1.32191	0	
2.8427	1.3296	-0.683747	0	
2.8433	11.08	-0.683747	0	
2.8440	15.9552	0.227916	0	
2.8447	13.85	1.13958	0	
2.8453	3.4902	1.73216	0	
2.8460	-10.249	0.820497	0	
2.8467	-17.6172	-0.410248	0	
2.8473	-20.9412	1.13958	0	
2.8480	-28.254	2.05124	0	
2.8487	-31.6334	-0.410248	0	
2.8493	-17.8942	-1.32191	0	
2.8500	1.6066	1.13958	0	
2.8507	11.6894	2.37032	0	
2.8513	13.85	2.05124	0	
2.8520	12.0218	1.13958	0	
2.8527	8.97481	1.13958	0	
2.8533	8.36541	3.55549	0	
2.8540	4.709	4.78623	0	
2.8547	-6.3156	2.37032	0	
2.8553	-13.019	1.13958	0	
2.8560	-9.03021	1.73216	0	
2.8567	-4.7644	-1.91449	0	
2.8573	-4.155	-3.73782	0	
2.8580	-5.3738	0.820497	0	
2.8587	-13.9054	3.55549	0	
2.8593	-27.0352	2.05124	0	
2.8600	-32.8522	2.9629	0	
2.8607	-30.6916	4.78623	0	
2.8613	-26.4258	5.69789	0	
2.8620	-20.9412	4.78623	0	
2.8627	-17.0078	3.28199	0	
2.8633	-12.6866	2.05124	0	
2.8640	-3.2686	2.05124	0	
2.8647	6.5372	1.13958	0	
2.8653	9.25181	1.13958	0	
2.8660	8.36541	0.227916	0	
2.8667	6.5372	-2.55266	0	
2.8673	2.5484	-1.64099	0	
2.8680	2.8808	1.73216	0	
2.8687	12.0218	-0.410248	0	
2.8693	19.3346	-3.14524	0	
2.8700	19.944	-0.683747	0	
2.8707	21.1628	0.227916	0	
2.8713	25.761	-0.0911663	0	
2.8720	25.761	0.820497	0	
2.8727	18.7252	-1.32191	0	
2.8733	13.85	-4.37598	0	
2.8740	16.5646	-4.96856	0	
2.8747	22.3816	-4.96856	0	
2.8753	22.714	-4.0569	0	
2.8760	14.7364	-1.32191	0	
2.8767	-3.5456	-2.82616	0	
2.8773	-25.5394	-5.28765	0	
2.8780	-35.0128	-1.64099	0	
2.8787	-30.6916	0.820497	0	
2.8793	-28.5864	-1.64099	0	
2.8800	-30.0822	0.501415	0	
2.8807	-26.1488	3.55549	0	
2.8813	-20.9412	0.501415	0	
2.8820	-18.836	-1.64099	0	
2.8827	-15.1242	-1.00283	0	
2.8833	-12.6866	-3.46432	0	
2.8840	-16.3984	-3.73782	0	
2.8847	-17.6172	-0.410248	0	
2.8853	-13.6284	0.820497	0	
2.8860	-9.03021	-0.683747	0	
2.8867	-2.0498	-1.64099	0	
2.8873	7.4236	-2.23357	0	
2.8880	9.25181	0.227916	0	
2.8887	4.709	3.28199	0	
2.8893	5.9278	1.13958	0	
2.8900	10.4706	-3.46432	0	
2.8907	11.08	-3.46432	0	
2.8913	12.9082	-1.32191	0	
2.8920	17.174	0.227916	0	
2.8927	18.3928	1.13958	0	
2.8933	18.3928	1.13958	0	
2.8940	20.8858	-1.00283	0	
2.8947	26.038	-4.0569	0	
2.8953	34.5696	-4.96856	0	
2.8960	46.2036	-1.32191	0	
2.8967	50.7464	4.19365	0	
2.8973	39.1678	6.60956	0	
2.8980	19.944	1.13958	0	
2.8987	10.4706	-9.57246	0	
2.8993	7.4236	-12.9	0	
2.9000	-6.5926	-8.9343	0	
2.9007	-25.5394	-5.60673	0	
2.9013	-28.254	-4.0569	0	
2.9020	-17.8942	-3.14524	0	
2.9027	-8.42081	-4.96856	0	
2.9033	-4.4874	-4.37598	0	
2.9040	-5.7062	-1.00283	0	
2.9047	-9.97201	-2.23357	0	
2.9053	-9.03021	-4.37598	0	
2.9060	-3.878	-2.23357	0	
2.9067	-3.2686	-1.32191	0	
2.9073	-10.8584	-1.91449	0	
2.9080	-21.883	-0.683747	0	
2.9087	-28.8634	0.227916	0	
2.9093	-30.6916	0.227916	0	
2.9100	-28.8634	2.9629	0	
2.9107	-22.16	3.55549	0	
2.9113	-12.6866	2.05124	0	
2.9120	-5.3738	3.28199	0	
2.9127	-2.9362	4.46715	0	
2.9133	-2.9362	1.13958	0	
2.9140	-2.3268	-0.410248	0	
2.9147	-0.831001	3.55549	0	
2.9153	0.1108	5.37881	0	
2.9160	0.1108	2.05124	0	
2.9167	1.939	0.227916	0	
2.9173	6.8142	2.64382	0	
2.9180	15.3458	4.46715	0	
2.9187	22.1046	4.78623	0	
2.9193	22.1046	4.19365	0	
2.9200	22.991	1.73216	0	
2.9207	31.855	-1.64099	0	
2.9213	41.3284	-2.23357	0	
2.9220	51.0788	-0.410248	0	
2.9227	62.3804	0.227916	0	
2.9233	55.0122	-1.00283	0	
2.9240	12.2988	-0.0911663	0	
2.9247	-35.8992	2.9629	0	
2.9253	-51.799	4.46715	0	
2.9260	-52.4084	3.87457	0	
2.9267	-72.2416	2.9629	0	
2.9273	-92.9613	1.41308	0	
2.9280	-81.9921	0.820497	0	
2.9287	-56.0648	1.73216	0	
2.9293	-42.6026	1.13958	0	
2.9300	-36.841	-1.00283	0	
2.9307	-29.8052	-1.64099	0	
2.9313	-20.0548	-1.00283	0	
2.9320	-4.7644	-1.64099	0	
2.9327	9.25181	-2.55266	0	
2.9333	17.5064	-3.14524	0	
2.9340	23.9328	-4.37598	0	
2.9347	27.8662	-4.64948	0	
2.9353	24.8192	-2.82616	0	
2.9360	20.2764	-2.55266	0	
2.9367	20.2764	-4.37598	0	
2.9373	19.3346	-3.14524	0	
2.9380	13.85	1.73216	0	
2.9387	3.7672	3.28199	0	
2.9393	-5.7062	2.05124	0	
2.9400	-9.03021	2.9629	0	
2.9407	-6.5926	4.19365	0	
2.9413	-0.831001	1.41308	0	
2.9420	2.5484	-1.91449	0	
2.9427	0.7202	-1.91449	0	
2.9433	-2.0498	0.227916	0	
2.9440	-1.7174	-0.410248	0	
2.9447	-2.3268	-4.0569	0	
2.9453	-2.0498	-4.96856	0	
2.9460	4.709	-1.64099	0	
2.9467	13.2406	-1.64099	0	
2.9473	19.6116	-4.96856	0	
2.9480	29.4174	-5.88023	0	
2.9487	43.4336	-3.46432	0	
2.9493	53.184	0.227916	0	
2.9500	54.1258	0.820497	0	
2.9507	44.6524	-1.91449	0	
2.9513	30.3038	-3.14524	0	
2.9520	17.7834	-0.683747	0	
2.9527	-1.7174	-0.410248	0	
2.9533	-31.9104	-2.55266	0	
2.9540	-49.306	-2.23357	0	
2.9547	-44.4308	-0.410248	0	
2.9553	-33.1292	0.227916	0	
2.9560	-25.207	0.501415	0	
2.9567	-17.6172	1.13958	0	
2.9573	-10.249	0.501415	0	
2.9580	-5.3738	0.227916	0	
2.9587	-2.9362	0.820497	0	
2.9593	-1.4404	2.05124	0	
2.9600	2.8808	1.73216	0	
2.9607	5.5954	0.820497	0	
2.9613	6.8142	1.13958	0	
2.9620	12.0218	0.820497	0	
2.9627	19.3346	-1.00283	0	
2.9633	28.808	-0.683747	0	
2.9640	43.4336	0.227916	0	
2.9647	49.2506	0.501415	0	
2.9653	40.3866	2.37032	0	
2.9660	36.3978	4.78623	0	
2.9667	31.855	4.46715	0	
2.9673	-0.2216	2.05124	0	
2.9680	-46.5914	-1.64099	0	
2.9687	-66.0922	-2.55266	0	
2.9693	-51.1896	1.13958	0	
2.9700	-31.9104	6.01698	0	
2.9707	-25.5394	8.75196	0	
2.9713	-21.883	5.37881	0	
2.9720	-13.6284	-6.79189	0	
2.9727	-9.36261	-15.635	0	
2.9733	-9.03021	-10.4841	0	
2.9740	-9.97201	-3.46432	0	
2.9747	-18.5036	-4.37598	0	
2.9753	-26.4258	-6.79189	0	
2.9760	-20.9412	-7.11097	0	
2.9767	-12.6866	-7.43005	0	
2.9773	-10.5814	-4.37598	0	
2.9780	-4.7644	-1.91449	0	
2.9787	0.997201	-3.46432	0	
2.9793	-0.831001	-2.82616	0	
2.9800	-3.878	-0.0911663	0	
2.9807	-8.14381	-1.64099	0	
2.9813	-14.5148	-2.55266	0	
2.9820	-12.6866	1.13958	0	
2.9827	-5.3738	0.227916	0	
2.9833	-2.9362	-1.64099	0	
2.9840	-0.831001	1.73216	0	
2.9847	5.9278	2.05124	0	
2.9853	8.36541	-3.46432	0	
2.9860	7.4236	-4.64948	0	
