0.0000	30.2635	-15.713	1
0.0007	32.4142	-16.0311	0	
0.0013	41.8363	-15.713	0	
0.0020	48.2884	-14.7588	0	
0.0027	42.758	-12.6594	0	
0.0033	33.3359	-10.1785	0	
0.0040	31.4925	-8.07914	0	
0.0047	33.0287	-6.87045	0	
0.0053	32.4142	-6.2343	0	
0.0060	31.1852	-4.70753	0	
0.0067	32.1069	-2.54461	0	
0.0073	30.878	-2.54461	0	
0.0080	22.3264	-1.654	0	
0.0087	10.4463	1.97207	0	
0.0093	9.52455	2.29015	0	
0.0100	20.4829	1.97207	0	
0.0107	31.7997	5.34369	0	
0.0113	44.2943	7.50661	0	
0.0120	58.9395	7.18853	0	
0.0127	65.9549	8.7153	0	
0.0133	60.783	9.35145	0	
0.0140	52.8459	6.87045	0	
0.0147	43.987	8.07914	0	
0.0153	29.649	12.0869	0	
0.0160	13.7747	12.0869	0	
0.0167	0.665694	10.8782	0	
0.0173	-11.5216	12.405	0	
0.0180	-21.3022	12.9775	0	
0.0187	-25.9109	10.8782	0	
0.0193	-27.3959	10.2421	0	
0.0200	-24.0674	13.2956	0	
0.0207	-14.2868	14.8224	0	
0.0213	-8.19316	15.713	0	
0.0220	-7.27143	19.4027	0	
0.0227	2.50915	21.2475	0	
0.0233	14.6965	18.194	0	
0.0240	9.2173	16.6672	0	
0.0247	-6.04245	17.5578	0	
0.0253	-19.4588	16.0311	0	
0.0260	-33.5407	16.6672	0	
0.0267	-32.619	17.8759	0	
0.0273	-10.0366	14.5043	0	
0.0280	10.7535	12.6594	0	
0.0287	19.5612	14.8224	0	
0.0293	23.2481	11.4508	0	
0.0300	20.4829	4.77115	0	
0.0307	18.6906	4.45307	0	
0.0313	18.6906	7.50661	0	
0.0320	5.22314	11.7688	0	
0.0327	-12.4434	18.5121	0	
0.0333	-11.2656	21.5656	0	
0.0340	-0.870523	17.5578	0	
0.0347	11.624	13.9318	0	
0.0353	37.8934	12.6594	0	
0.0360	63.5482	8.39722	0	
0.0367	70.2563	0.763384	0	
0.0373	70.8708	-5.91622	0	
0.0380	71.7925	-13.5501	0	
0.0387	62.012	-19.9752	0	
0.0393	51.6169	-14.5043	0	
0.0400	54.3821	-2.86269	0	
0.0407	49.4662	-3.49884	0	
0.0413	22.3264	-13.232	0	
0.0420	-3.32847	-14.7588	0	
0.0427	-15.2085	-9.92399	0	
0.0433	-35.333	-7.76107	0	
0.0440	-53.9724	-7.76107	0	
0.0447	-39.9416	-8.39722	0	
0.0453	-8.80764	-8.96976	0	
0.0460	7.68109	-8.96976	0	
0.0467	15.0037	-9.92399	0	
0.0473	22.6336	-9.92399	0	
0.0480	21.4046	-5.34369	0	
0.0487	10.139	-1.654	0	
0.0493	-7.27143	-2.29015	0	
0.0500	-28.9321	-1.97207	0	
0.0507	-43.8846	-1.97207	0	
0.0513	-52.4362	-4.07138	0	
0.0520	-62.2168	-2.54461	0	
0.0527	-62.8313	1.39954	0	
0.0533	-38.0982	1.08146	0	
0.0540	-0.256036	-0.763384	0	
0.0547	20.1757	0.508923	0	
0.0553	11.0608	2.29015	0	
0.0560	-14.9013	1.39954	0	
0.0567	-35.0258	0.763384	0	
0.0573	-38.0982	4.77115	0	
0.0580	-34.104	11.7688	0	
0.0587	-37.1765	12.9775	0	
0.0593	-49.1077	7.82468	0	
0.0600	-56.4304	8.39722	0	
0.0607	-48.186	16.6672	0	
0.0613	-30.4683	20.2933	0	
0.0620	-15.823	15.1404	0	
0.0627	-8.5004	9.35145	0	
0.0633	-6.65694	4.77115	0	
0.0640	-7.57867	-3.18077	0	
0.0647	-9.72938	-13.5501	0	
0.0653	-11.5216	-18.4484	0	
0.0660	-7.88591	-17.2398	0	
0.0667	3.99416	-14.1862	0	
0.0673	20.1757	-11.4508	0	
0.0680	29.649	-8.39722	0	
0.0687	22.0191	-8.07914	0	
0.0693	2.8164	-8.65168	0	
0.0700	-9.72938	-8.07914	0	
0.0707	-11.5216	-8.07914	0	
0.0713	-17.052	-8.65168	0	
0.0720	-27.3959	-8.96976	0	
0.0727	-26.2181	-8.96976	0	
0.0733	-14.9013	-6.55238	0	
0.0740	-2.0995	-3.49884	0	
0.0747	15.6182	-1.97207	0	
0.0753	30.5707	-0.445307	0	
0.0760	31.7997	0.508923	0	
0.0767	31.4925	-1.654	0	
0.0773	33.3359	-4.70753	0	
0.0780	26.8838	-5.02561	0	
0.0787	21.7119	-4.38946	0	
0.0793	26.8838	-4.70753	0	
0.0800	28.7273	-4.38946	0	
0.0807	26.5766	-2.86269	0	
0.0813	30.5707	-2.54461	0	
0.0820	36.0499	-4.70753	0	
0.0827	36.0499	-6.2343	0	
0.0833	26.3205	-6.2343	0	
0.0840	4.91589	-5.02561	0	
0.0847	-13.6723	-2.54461	0	
0.0853	-19.1515	-1.654	0	
0.0860	-19.1515	-4.70753	0	
0.0867	-17.3593	-6.87045	0	
0.0873	-10.6511	-4.07138	0	
0.0880	-1.48501	-0.763384	0	
0.0887	11.368	1.08146	0	
0.0893	25.3988	0.508923	0	
0.0900	41.273	-1.01785	0	
0.0907	67.1839	-0.763384	0	
0.0913	85.8233	1.71761	0	
0.0920	69.3346	2.60823	0	
0.0927	31.4925	2.60823	0	
0.0933	-0.870523	2.60823	0	
0.0940	-29.8538	2.29015	0	
0.0947	-58.5299	1.71761	0	
0.0953	-82.034	0.508923	0	
0.0960	-99.4445	-1.654	0	
0.0967	-101.902	-1.97207	0	
0.0973	-83.5702	-1.654	0	
0.0980	-60.9878	-1.33592	0	
0.0987	-43.2701	0.190846	0	
0.0993	-27.0886	1.39954	0	
0.1000	-13.3651	1.71761	0	
0.1007	-4.81348	1.97207	0	
0.1013	2.8164	0.190846	0	
0.1020	6.45211	-2.29015	0	
0.1027	2.50915	-0.445307	0	
0.1033	-6.04245	1.97207	0	
0.1040	-15.2085	1.71761	0	
0.1047	-24.3746	4.77115	0	
0.1053	-38.0982	9.03337	0	
0.1060	-44.4991	6.55238	0	
0.1067	-24.9891	3.81692	0	
0.1073	1.58742	6.29792	0	
0.1080	10.4463	4.77115	0	
0.1087	13.4675	1.39954	0	
0.1093	20.1757	1.97207	0	
0.1100	20.4829	1.08146	0	
0.1107	18.6906	-1.654	0	
0.1113	14.3892	0.190846	0	
0.1120	-2.71398	1.97207	0	
0.1127	-13.9796	-1.01785	0	
0.1133	-3.32847	-1.97207	0	
0.1140	6.75936	0.763384	0	
0.1147	4.91589	0.763384	0	
0.1153	4.91589	-1.97207	0	
0.1160	11.9313	-3.49884	0	
0.1167	17.7689	-0.445307	0	
0.1173	20.1757	2.9263	0	
0.1180	25.0915	-1.654	0	
0.1187	35.1282	-10.1785	0	
0.1193	38.8151	-11.7052	0	
0.1200	25.3988	-7.12492	0	
0.1207	-1.17777	-0.763384	0	
0.1213	-35.6402	4.77115	0	
0.1220	-63.753	7.50661	0	
0.1227	-68.6177	11.1327	0	
0.1233	-60.3733	18.7665	0	
0.1240	-50.9	19.4027	0	
0.1247	-30.7755	10.2421	0	
0.1253	-0.56328	3.81692	0	
0.1260	19.5612	2.29015	0	
0.1267	19.5612	1.08146	0	
0.1273	9.2173	3.24438	0	
0.1280	-2.71398	3.81692	0	
0.1287	-19.766	-4.38946	0	
0.1293	-41.7339	-8.39722	0	
0.1300	-49.3638	-2.54461	0	
0.1307	-33.848	-1.654	0	
0.1313	-13.9796	-5.34369	0	
0.1320	-5.42797	-4.07138	0	
0.1327	-3.32847	-4.38946	0	
0.1333	0.358451	-8.96976	0	
0.1340	2.50915	-8.07914	0	
0.1347	-0.56328	-3.49884	0	
0.1353	-8.19316	-2.54461	0	
0.1360	-14.2868	1.08146	0	
0.1367	-16.1303	8.7153	0	
0.1373	-10.0366	10.8782	0	
0.1380	4.60865	8.39722	0	
0.1387	22.0191	10.5601	0	
0.1393	34.5137	14.1862	0	
0.1400	41.8363	12.405	0	
0.1407	48.2884	6.87045	0	
0.1413	55.6111	1.97207	0	
0.1420	58.6323	-1.654	0	
0.1427	51.6169	-7.12492	0	
0.1433	47.9812	-13.5501	0	
0.1440	57.7106	-15.3949	0	
0.1447	67.7984	-12.3414	0	
0.1453	67.1839	-9.92399	0	
0.1460	67.7984	-7.12492	0	
0.1467	71.4853	-4.07138	0	
0.1473	61.7047	-4.70753	0	
0.1480	44.2943	-6.87045	0	
0.1487	39.1223	-2.29015	0	
0.1493	40.0441	2.9263	0	
0.1500	38.8151	1.08146	0	
0.1507	44.9087	0.190846	0	
0.1513	54.6893	2.9263	0	
0.1520	48.2884	0.190846	0	
0.1527	14.3892	-4.70753	0	
0.1533	-34.4113	-1.654	0	
0.1540	-66.467	2.29015	0	
0.1547	-66.467	1.97207	0	
0.1553	-59.4516	1.39954	0	
0.1560	-61.2951	1.08146	0	
0.1567	-59.1444	1.08146	0	
0.1573	-51.5145	6.87045	0	
0.1580	-44.4991	14.1862	0	
0.1587	-33.5407	17.8759	0	
0.1593	-20.995	20.0388	0	
0.1600	-17.6665	21.2475	0	
0.1607	-17.3593	18.5121	0	
0.1613	-15.2085	13.6137	0	
0.1620	-17.052	6.87045	0	
0.1627	-18.8443	-2.86269	0	
0.1633	-16.7448	-9.60591	0	
0.1640	-14.2868	-6.87045	0	
0.1647	-12.7506	-2.54461	0	
0.1653	-10.0366	-5.34369	0	
0.1660	-10.6511	-9.92399	0	
0.1667	-16.7448	-10.1785	0	
0.1673	-22.5312	-8.96976	0	
0.1680	-25.2964	-8.07914	0	
0.1687	-25.6036	-6.2343	0	
0.1693	-21.6095	-3.49884	0	
0.1700	-16.4375	-0.127231	0	
0.1707	-12.7506	-0.445307	0	
0.1713	-6.3497	-8.96976	0	
0.1720	2.20191	-15.0768	0	
0.1727	6.14487	-8.65168	0	
0.1733	2.20191	-1.654	0	
0.1740	-11.5216	-3.81692	0	
0.1747	-27.7031	-6.2343	0	
0.1753	-26.4741	-5.34369	0	
0.1760	-7.88591	-6.87045	0	
0.1767	3.99416	-7.44299	0	
0.1773	1.58742	-5.34369	0	
0.1780	-0.870523	-5.34369	0	
0.1787	-0.56328	-5.34369	0	
0.1793	-3.02123	-3.81692	0	
0.1800	-12.1361	-3.49884	0	
0.1807	-22.2239	-3.81692	0	
0.1813	-20.6877	-4.38946	0	
0.1820	-11.8289	-7.12492	0	
0.1827	-11.8289	-7.76107	0	
0.1833	-17.9737	-5.34369	0	
0.1840	-18.5882	-6.2343	0	
0.1847	-16.1303	-11.7052	0	
0.1853	-9.72938	-12.9775	0	
0.1860	1.28018	-8.65168	0	
0.1867	7.68109	-1.33592	0	
0.1873	9.2173	4.77115	0	
0.1880	14.3892	7.82468	0	
0.1887	16.5399	9.92399	0	
0.1893	13.1603	13.6137	0	
0.1900	12.853	17.2398	0	
0.1907	10.139	19.0846	0	
0.1913	-1.48501	20.9294	0	
0.1920	-10.3439	25.1917	0	
0.1927	-11.5216	28.5633	0	
0.1933	-11.5216	23.0924	0	
0.1940	-11.2656	15.713	0	
0.1947	-10.6511	14.8224	0	
0.1953	-10.6511	13.2956	0	
0.1960	-2.0995	4.45307	0	
0.1967	14.3892	-7.76107	0	
0.1973	28.1128	-21.502	0	
0.1980	33.3359	-32.7619	0	
0.1987	30.5707	-30.0264	0	
0.1993	21.7119	-20.8658	0	
0.2000	6.75936	-17.2398	0	
0.2007	-18.8443	-12.6594	0	
0.2013	-42.6556	-3.49884	0	
0.2020	-44.4991	-1.654	0	
0.2027	-31.0828	-4.38946	0	
0.2033	-19.766	-3.81692	0	
0.2040	-8.5004	-1.01785	0	
0.2047	2.50915	-0.127231	0	
0.2053	-0.56328	-0.127231	0	
0.2060	-15.823	-1.01785	0	
0.2067	-28.3176	-0.763384	0	
0.2073	-31.6973	1.97207	0	
0.2080	-28.6248	2.29015	0	
0.2087	-21.6095	-0.763384	0	
0.2093	-4.50624	-1.654	0	
0.2100	19.8684	1.08146	0	
0.2107	25.0915	1.97207	0	
0.2113	4.30141	0.508923	0	
0.2120	-3.63571	0.190846	0	
0.2127	15.6182	-0.127231	0	
0.2133	29.9562	-0.763384	0	
0.2140	26.8838	-1.654	0	
0.2147	21.4046	-2.29015	0	
0.2153	16.8472	-1.33592	0	
0.2160	15.9255	-0.445307	0	
0.2167	15.311	0.190846	0	
0.2173	-0.56328	1.97207	0	
0.2180	-17.6665	2.9263	0	
0.2187	-12.4434	-0.763384	0	
0.2193	-0.256036	-4.07138	0	
0.2200	3.12364	-4.70753	0	
0.2207	9.52455	-6.2343	0	
0.2213	19.2539	-8.96976	0	
0.2220	21.7119	-7.12492	0	
0.2227	21.0974	-1.654	0	
0.2233	27.4983	2.9263	0	
0.2240	41.273	5.34369	0	
0.2247	45.216	5.97984	0	
0.2253	23.8626	4.77115	0	
0.2260	-13.9796	1.97207	0	
0.2267	-56.4304	1.71761	0	
0.2273	-95.143	5.66176	0	
0.2280	-102.773	8.39722	0	
0.2287	-76.2476	6.87045	0	
0.2293	-49.3638	6.55238	0	
0.2300	-32.0045	9.35145	0	
0.2307	-14.2868	9.35145	0	
0.2313	-6.96418	8.39722	0	
0.2320	-13.0578	11.1327	0	
0.2327	-16.1303	15.713	0	
0.2333	-8.80764	17.5578	0	
0.2340	3.73813	16.9853	0	
0.2347	13.4675	15.713	0	
0.2353	14.082	15.4585	0	
0.2360	13.7747	13.9318	0	
0.2367	20.1757	3.81692	0	
0.2373	25.0915	-10.4965	0	
0.2380	19.5612	-14.5043	0	
0.2387	6.14487	-8.07914	0	
0.2393	-1.48501	-4.70753	0	
0.2400	10.4463	-8.07914	0	
0.2407	33.9504	-13.5501	0	
0.2413	48.5957	-16.6036	0	
0.2420	50.6952	-15.713	0	
0.2427	44.6015	-11.1327	0	
0.2433	34.8209	-1.97207	0	
0.2440	28.42	8.39722	0	
0.2447	19.5612	11.4508	0	
0.2453	-1.48501	8.07914	0	
0.2460	-18.281	7.50661	0	
0.2467	-10.6511	6.55238	0	
0.2473	1.28018	0.190846	0	
0.2480	0.358451	-2.54461	0	
0.2487	-1.48501	-0.445307	0	
0.2493	3.12364	-1.654	0	
0.2500	1.28018	-4.38946	0	
0.2507	-7.88591	-2.54461	0	
0.2513	-15.5158	-0.763384	0	
0.2520	-15.2085	-0.763384	0	
0.2527	-3.32847	-1.654	0	
0.2533	12.2385	-5.34369	0	
0.2540	16.8472	-7.12492	0	
0.2547	7.0666	-4.38946	0	
0.2553	-4.50624	-4.70753	0	
0.2560	-10.6511	-4.38946	0	
0.2567	-19.766	0.190846	0	
0.2573	-30.4683	1.08146	0	
0.2580	-29.8538	-2.86269	0	
0.2587	-21.6095	-1.654	0	
0.2593	-21.3022	5.66176	0	
0.2600	-21.6095	12.0869	0	
0.2607	-12.7506	15.1404	0	
0.2613	-0.256036	20.2933	0	
0.2620	15.0037	25.5097	0	
0.2627	37.8934	21.2475	0	
0.2633	62.6265	7.50661	0	
0.2640	79.9857	0.190846	0	
0.2647	83.3654	-0.763384	0	
0.2653	72.6631	-8.65168	0	
0.2660	55.9183	-19.9752	0	
0.2667	33.6432	-25.7642	0	
0.2673	10.4463	-25.128	0	
0.2680	-2.0995	-16.6036	0	
0.2687	-10.3439	-8.07914	0	
0.2693	-23.4529	-13.8681	0	
0.2700	-33.5407	-27.609	0	
0.2707	-42.9629	-26.9729	0	
0.2713	-58.2226	-13.5501	0	
0.2720	-60.9878	-3.81692	0	
0.2727	-44.4991	-1.654	0	
0.2733	-28.0104	-0.127231	0	
0.2740	-17.9737	4.135	0	
0.2747	-11.5216	5.97984	0	
0.2753	-9.72938	1.08146	0	
0.2760	-6.96418	-5.02561	0	
0.2767	-3.02123	-8.07914	0	
0.2773	-3.32847	-12.3414	0	
0.2780	-5.42797	-13.5501	0	
0.2787	0.358451	-9.92399	0	
0.2793	12.2385	-11.1327	0	
0.2800	19.5612	-17.2398	0	
0.2807	16.8472	-16.2855	0	
0.2813	11.9313	-11.7052	0	
0.2820	14.3892	-8.96976	0	
0.2827	17.7689	-7.12492	0	
0.2833	14.3892	-6.87045	0	
0.2840	9.2173	-6.2343	0	
0.2847	8.60282	-1.654	0	
0.2853	11.368	1.71761	0	
0.2860	13.1603	-1.97207	0	
0.2867	13.1603	-5.34369	0	
0.2873	13.7747	-4.70753	0	
0.2880	12.853	-2.54461	0	
0.2887	8.60282	-0.127231	0	
0.2893	6.75936	3.24438	0	
0.2900	9.83179	4.77115	0	
0.2907	11.9313	3.81692	0	
0.2913	11.0608	2.60823	0	
0.2920	8.60282	5.02561	0	
0.2927	3.43088	7.82468	0	
0.2933	0.665694	1.08146	0	
0.2940	6.45211	-12.0233	0	
0.2947	11.9313	-17.5578	0	
0.2953	14.082	-13.5501	0	
0.2960	20.4829	-8.07914	0	
0.2967	25.3988	3.24438	0	
0.2973	19.5612	20.0388	0	
0.2980	12.2385	27.3546	0	
0.2987	10.4463	23.0924	0	
0.2993	0.358451	17.2398	0	
0.3000	-22.5312	14.5043	0	
0.3007	-40.8634	13.6137	0	
0.3013	-49.9783	12.9775	0	
0.3020	-58.8371	9.03337	0	
0.3027	-62.8313	5.02561	0	
0.3033	-50.9	3.81692	0	
0.3040	-26.7814	-0.763384	0	
0.3047	-1.48501	-8.07914	0	
0.3053	15.9255	-10.4965	0	
0.3060	21.7119	-9.28784	0	
0.3067	17.7689	-9.28784	0	
0.3073	4.91589	-9.60591	0	
0.3080	-20.6877	-7.12492	0	
0.3087	-47.8788	-3.49884	0	
0.3093	-59.4516	-1.654	0	
0.3100	-58.8371	-2.54461	0	
0.3107	-53.3579	-3.18077	0	
0.3113	-40.2489	-1.33592	0	
0.3120	-30.4683	-0.763384	0	
0.3127	-38.0982	-1.97207	0	
0.3133	-52.7435	-2.86269	0	
0.3140	-53.9724	-2.29015	0	
0.3147	-40.8634	-1.654	0	
0.3153	-20.6877	-2.54461	0	
0.3160	0.358451	-2.29015	0	
0.3167	12.2385	2.9263	0	
0.3173	12.2385	9.92399	0	
0.3180	6.14487	12.9775	0	
0.3187	0.0512072	15.1404	0	
0.3193	-4.50624	21.2475	0	
0.3200	-6.3497	20.9294	0	
0.3207	-4.81348	11.4508	0	
0.3213	2.20191	6.87045	0	
0.3220	12.2385	7.18853	0	
0.3227	17.4617	3.81692	0	
0.3233	15.6182	1.97207	0	
0.3240	12.5458	-1.654	0	
0.3247	10.139	-23.6013	0	
0.3253	7.98833	-48.6657	0	
0.3260	7.0666	-53.8186	0	
0.3267	7.68109	-45.9303	0	
0.3273	11.9313	-39.187	0	
0.3280	17.7689	-32.1893	0	
0.3287	19.5612	-19.9752	0	
0.3293	19.5612	-6.55238	0	
0.3300	18.6906	5.66176	0	
0.3307	14.6965	20.0388	0	
0.3313	11.9313	34.9884	0	
0.3320	15.6182	37.4058	0	
0.3327	18.9467	27.9271	0	
0.3333	19.5612	26.7184	0	
0.3340	18.6906	34.0342	0	
0.3347	15.0037	30.09	0	
0.3353	8.60282	20.6114	0	
0.3360	-0.56328	22.1381	0	
0.3367	-11.2656	25.8278	0	
0.3373	-14.5941	18.5121	0	
0.3380	-9.42213	8.39722	0	
0.3387	-5.12072	-4.38946	0	
0.3393	7.68109	-28.4997	0	
0.3400	37.5861	-47.1389	0	
0.3407	58.0178	-42.2406	0	
0.3413	53.7676	-29.4539	0	
0.3420	46.445	-23.0287	0	
0.3427	46.445	-16.9217	0	
0.3433	46.1377	-11.1327	0	
0.3440	50.6952	-8.96976	0	
0.3447	58.325	-5.91622	0	
0.3453	49.7734	-2.86269	0	
0.3460	18.9467	-7.76107	0	
0.3467	-23.4529	-20.2933	0	
0.3473	-60.6806	-27.291	0	
0.3480	-62.524	-14.5043	0	
0.3487	-32.3118	7.18853	0	
0.3493	-20.995	14.8224	0	
0.3500	-41.4779	8.07914	0	
0.3507	-47.8788	3.81692	0	
0.3513	-28.0104	3.49884	0	
0.3520	-11.5216	-0.127231	0	
0.3527	-6.96418	-2.29015	0	
0.3533	-6.3497	0.763384	0	
0.3540	-9.11489	2.60823	0	
0.3547	-15.823	0.190846	0	
0.3553	-24.3746	-2.29015	0	
0.3560	-28.0104	-0.445307	0	
0.3567	-23.4529	2.29015	0	
0.3573	-20.995	2.9263	0	
0.3580	-22.2239	3.81692	0	
0.3587	-17.9737	7.18853	0	
0.3593	-14.2868	6.87045	0	
0.3600	-16.1303	4.135	0	
0.3607	-14.5941	5.97984	0	
0.3613	-4.81348	8.7153	0	
0.3620	8.29557	5.34369	0	
0.3627	22.3264	1.08146	0	
0.3633	37.8934	2.29015	0	
0.3640	57.0961	10.2421	0	
0.3647	70.8708	27.609	0	
0.3653	55.6111	48.9838	0	
0.3660	11.624	64.8876	0	
0.3667	-19.1515	79.5191	0	
0.3673	-12.1361	92.3058	0	
0.3680	7.68109	89.8884	0	
0.3687	16.5399	71.8853	0	
0.3693	15.311	45.3577	0	
0.3700	0.665694	14.8224	0	
0.3707	-26.2181	-7.44299	0	
0.3713	-49.1077	-19.3391	0	
0.3720	-67.3887	-40.1413	0	
0.3727	-85.7209	-70.2949	0	
0.3733	-82.6485	-83.1452	0	
0.3740	-57.3009	-71.2492	0	
0.3747	-36.8692	-53.8186	0	
0.3753	-25.6036	-42.5586	0	
0.3760	-16.1303	-33.398	0	
0.3767	-14.9013	-24.8736	0	
0.3773	-23.7602	-20.2933	0	
0.3780	-25.6036	-18.7665	0	
0.3787	-10.0366	-18.1304	0	
0.3793	9.52455	-16.9217	0	
0.3800	14.6965	-14.5043	0	
0.3807	12.5458	-12.6594	0	
0.3813	17.4617	-12.6594	0	
0.3820	26.0133	-13.5501	0	
0.3827	33.6432	-13.5501	0	
0.3833	34.5137	-11.7052	0	
0.3840	15.9255	-9.28784	0	
0.3847	-10.0366	-8.39722	0	
0.3853	-18.8443	-7.76107	0	
0.3860	-18.8443	-8.07914	0	
0.3867	-20.995	-11.4508	0	
0.3873	-15.2085	-13.5501	0	
0.3880	-2.40674	-10.4965	0	
0.3887	6.45211	-5.59815	0	
0.3893	16.8472	-0.763384	0	
0.3900	30.2635	5.66176	0	
0.3907	37.8934	6.87045	0	
0.3913	41.273	1.97207	0	
0.3920	42.4508	0.763384	0	
0.3927	40.6585	0.190846	0	
0.3933	39.4296	-4.38946	0	
0.3940	40.3513	-5.02561	0	
0.3947	39.7368	1.71761	0	
0.3953	33.3359	5.34369	0	
0.3960	16.8472	3.81692	0	
0.3967	-2.40674	-1.01785	0	
0.3973	-13.0578	-7.12492	0	
0.3980	-23.1457	-4.70753	0	
0.3987	-36.562	2.9263	0	
0.3993	-39.0199	2.29015	0	
0.4000	-28.9321	-0.763384	0	
0.4007	-18.8443	1.71761	0	
0.4013	-7.88591	1.71761	0	
0.4020	7.37384	0.763384	0	
0.4027	20.1757	2.60823	0	
0.4033	21.4046	0.763384	0	
0.4040	8.29557	-0.763384	0	
0.4047	-13.9796	4.135	0	
0.4053	-35.333	4.135	0	
0.4060	-51.2072	-7.12492	0	
0.4067	-54.5869	-18.4484	0	
0.4073	-39.0199	-21.8201	0	
0.4080	-21.6095	-16.2855	0	
0.4087	-18.281	-3.49884	0	
0.4093	-20.6877	16.6672	0	
0.4100	-15.2085	35.879	0	
0.4107	-2.71398	42.3042	0	
0.4113	15.0037	41.0955	0	
0.4120	39.7368	42.8767	0	
0.4127	66.2622	34.6703	0	
0.4133	77.579	15.4585	0	
0.4140	63.8554	7.82468	0	
0.4147	36.6644	9.03337	0	
0.4153	7.68109	3.81692	0	
0.4160	-21.9167	0.508923	0	
0.4167	-35.333	-2.86269	0	
0.4173	-21.9167	-10.8146	0	
0.4180	-6.3497	-7.12492	0	
0.4187	-1.79225	2.9263	0	
0.4193	8.60282	1.71761	0	
0.4200	22.0191	-0.763384	0	
0.4207	25.706	4.45307	0	
0.4213	32.1069	3.81692	0	
0.4220	39.1223	1.71761	0	
0.4227	22.6336	5.66176	0	
0.4233	-11.2656	6.87045	0	
0.4240	-30.1611	4.135	0	
0.4247	-24.3746	5.66176	0	
0.4253	-12.4434	9.35145	0	
0.4260	-18.5882	9.35145	0	
0.4267	-38.7127	6.29792	0	
0.4273	-48.186	3.81692	0	
0.4280	-41.1706	2.60823	0	
0.4287	-34.7185	0.763384	0	
0.4293	-31.6973	1.97207	0	
0.4300	-24.0674	5.02561	0	
0.4307	-11.8289	3.49884	0	
0.4313	2.20191	1.97207	0	
0.4320	16.2327	6.55238	0	
0.4327	27.191	8.39722	0	
0.4333	36.0499	5.66176	0	
0.4340	48.5957	2.60823	0	
0.4347	61.0902	-0.445307	0	
0.4353	65.6477	0.190846	0	
0.4360	58.9395	5.02561	0	
0.4367	49.1589	2.60823	0	
0.4373	49.7734	-3.81692	0	
0.4380	54.3821	-1.654	0	
0.4387	41.273	1.71761	0	
0.4393	15.6182	-2.54461	0	
0.4400	10.7535	-6.55238	0	
0.4407	34.2064	-7.44299	0	
0.4413	58.0178	-6.55238	0	
0.4420	63.8554	-2.29015	0	
0.4427	47.3667	-1.654	0	
0.4433	6.14487	-5.91622	0	
0.4440	-40.8634	-2.54461	0	
0.4447	-64.6235	4.135	0	
0.4453	-63.753	1.39954	0	
0.4460	-54.5869	-0.127231	0	
0.4467	-40.8634	5.97984	0	
0.4473	-22.5312	9.03337	0	
0.4480	-4.50624	10.2421	0	
0.4487	9.83179	12.405	0	
0.4493	19.5612	6.55238	0	
0.4500	20.4829	-3.81692	0	
0.4507	10.7535	-11.4508	0	
0.4513	-3.32847	-22.3926	0	
0.4520	-10.6511	-31.8713	0	
0.4527	-13.3651	-26.4004	0	
0.4533	-19.1515	-14.1862	0	
0.4540	-18.8443	-8.96976	0	
0.4547	-7.88591	-8.07914	0	
0.4553	-2.40674	-5.91622	0	
0.4560	-1.17777	-5.34369	0	
0.4567	13.1603	-4.07138	0	
0.4573	27.8055	-0.763384	0	
0.4580	16.5399	1.39954	0	
0.4587	-10.6511	1.71761	0	
0.4593	-23.1457	1.08146	0	
0.4600	-14.9013	-0.127231	0	
0.4607	-4.19899	-2.29015	0	
0.4613	-0.56328	-1.654	0	
0.4620	0.358451	0.190846	0	
0.4627	2.20191	-0.763384	0	
0.4633	1.28018	-1.01785	0	
0.4640	-2.71398	0.508923	0	
0.4647	-9.72938	1.39954	0	
0.4653	-17.052	3.81692	0	
0.4660	-21.6095	6.29792	0	
0.4667	-21.9167	4.135	0	
0.4673	-16.7448	1.97207	0	
0.4680	-4.50624	4.77115	0	
0.4687	10.4463	5.66176	0	
0.4693	19.2539	2.9263	0	
0.4700	16.2327	1.08146	0	
0.4707	6.45211	-0.763384	0	
0.4713	-5.42797	-2.86269	0	
0.4720	-22.5312	-4.07138	0	
0.4727	-37.4837	-7.12492	0	
0.4733	-34.104	-8.96976	0	
0.4740	-17.6665	-2.54461	0	
0.4747	-11.5216	4.77115	0	
0.4753	-13.0578	8.39722	0	
0.4760	-7.88591	10.2421	0	
0.4767	-1.48501	8.7153	0	
0.4773	1.58742	5.97984	0	
0.4780	4.91589	6.87045	0	
0.4787	7.68109	7.50661	0	
0.4793	12.2385	3.49884	0	
0.4800	19.5612	0.763384	0	
0.4807	19.5612	1.97207	0	
0.4813	14.082	1.39954	0	
0.4820	14.082	-2.86269	0	
0.4827	12.2385	-6.87045	0	
0.4833	2.8164	-7.12492	0	
0.4840	0.0512072	-5.59815	0	
0.4847	8.91006	-8.07914	0	
0.4853	15.0037	-8.96976	0	
0.4860	16.2327	-4.38946	0	
0.4867	25.706	-2.29015	0	
0.4873	39.7368	-3.81692	0	
0.4880	45.216	1.39954	0	
0.4887	36.0499	7.82468	0	
0.4893	18.3834	6.55238	0	
0.4900	2.50915	6.55238	0	
0.4907	-11.5216	9.35145	0	
0.4913	-32.0045	7.18853	0	
0.4920	-45.4208	1.97207	0	
0.4927	-29.2393	-7.12492	0	
0.4933	5.53038	-23.6013	0	
0.4940	24.1698	-29.1358	0	
0.4947	24.1698	-19.3391	0	
0.4953	28.7273	-16.0311	0	
0.4960	36.9716	-19.3391	0	
0.4967	34.2064	-13.8681	0	
0.4973	20.7901	-4.70753	0	
0.4980	-1.17777	-3.81692	0	
0.4987	-35.6402	-6.87045	0	
0.4993	-61.9095	-7.12492	0	
0.5000	-58.5299	-4.38946	0	
0.5007	-42.3484	-2.29015	0	
0.5013	-31.6973	-2.86269	0	
0.5020	-16.4375	-4.70753	0	
0.5027	2.50915	-4.38946	0	
0.5033	10.4463	-4.70753	0	
0.5040	14.6965	-6.2343	0	
0.5047	24.4771	-4.70753	0	
0.5053	26.5766	-1.33592	0	
0.5060	19.8684	-0.445307	0	
0.5067	22.9408	-0.445307	0	
0.5073	33.9504	2.60823	0	
0.5080	38.2006	4.135	0	
0.5087	33.3359	1.71761	0	
0.5093	17.1544	0.190846	0	
0.5100	-16.4375	1.97207	0	
0.5107	-51.8217	2.60823	0	
0.5113	-67.696	1.08146	0	
0.5120	-61.9095	-1.654	0	
0.5127	-44.1918	-2.29015	0	
0.5133	-28.0104	1.08146	0	
0.5140	-20.0732	4.135	0	
0.5147	-15.2085	2.29015	0	
0.5153	-5.73521	-0.127231	0	
0.5160	1.28018	0.508923	0	
0.5167	-0.56328	1.97207	0	
0.5173	-3.32847	2.9263	0	
0.5180	-2.71398	4.77115	0	
0.5187	-4.19899	4.77115	0	
0.5193	-2.40674	3.24438	0	
0.5200	9.52455	3.49884	0	
0.5207	21.4046	3.81692	0	
0.5213	19.8684	0.190846	0	
0.5220	12.853	-3.49884	0	
0.5227	11.0608	-2.54461	0	
0.5233	14.082	1.71761	0	
0.5240	19.5612	6.55238	0	
0.5247	26.0133	8.39722	0	
0.5253	34.5137	5.34369	0	
0.5260	47.6739	5.02561	0	
0.5267	54.6893	12.0869	0	
0.5273	46.1377	19.4027	0	
0.5280	26.0133	18.7665	0	
0.5287	-0.256036	13.9318	0	
0.5293	-27.0886	10.2421	0	
0.5300	-41.1706	2.9263	0	
0.5307	-37.1765	-9.92399	0	
0.5313	-24.3746	-15.713	0	
0.5320	-14.2868	-6.2343	0	
0.5327	-7.88591	6.55238	0	
0.5333	-3.32847	9.60591	0	
0.5340	3.12364	5.66176	0	
0.5347	10.4463	-2.29015	0	
0.5353	9.83179	-12.0233	0	
0.5360	-1.48501	-14.1862	0	
0.5367	-12.1361	-9.92399	0	
0.5373	-8.80764	-11.1327	0	
0.5380	3.99416	-17.2398	0	
0.5387	13.7747	-20.8658	0	
0.5393	17.7689	-24.5555	0	
0.5400	23.5553	-25.128	0	
0.5407	29.649	-17.2398	0	
0.5413	21.4046	-8.96976	0	
0.5420	-4.50624	-5.34369	0	
0.5427	-25.9109	-5.34369	0	
0.5433	-28.9321	-7.76107	0	
0.5440	-28.9321	-11.1327	0	
0.5447	-35.333	-10.4965	0	
0.5453	-39.0199	-8.39722	0	
0.5460	-40.8634	-8.65168	0	
0.5467	-49.671	-6.2343	0	
0.5473	-68.0032	0.508923	0	
0.5480	-86.8987	5.02561	0	
0.5487	-88.1277	4.45307	0	
0.5493	-65.238	2.9263	0	
0.5500	-35.333	4.77115	0	
0.5507	-11.5216	8.39722	0	
0.5513	4.60865	9.35145	0	
0.5520	6.45211	2.9263	0	
0.5527	-5.73521	-3.18077	0	
0.5533	-16.1303	-0.763384	0	
0.5540	-24.9891	3.24438	0	
0.5547	-40.8634	-0.763384	0	
0.5553	-50.9	-4.38946	0	
0.5560	-44.4991	-3.49884	0	
0.5567	-38.0982	-2.54461	0	
0.5573	-39.9416	-0.763384	0	
0.5580	-41.7339	1.97207	0	
0.5587	-44.8063	0.190846	0	
0.5593	-40.8634	0.763384	0	
0.5600	-21.9167	5.66176	0	
0.5607	-2.40674	4.77115	0	
0.5613	3.73813	1.97207	0	
0.5620	2.8164	7.18853	0	
0.5627	2.20191	11.4508	0	
0.5633	9.2173	8.07914	0	
0.5640	26.0133	5.66176	0	
0.5647	38.8151	6.55238	0	
0.5653	42.4508	9.35145	0	
0.5660	51.6169	12.9775	0	
0.5667	62.6265	12.9775	0	
0.5673	58.9395	2.60823	0	
0.5680	50.0807	-8.96976	0	
0.5687	49.1589	-11.7052	0	
0.5693	50.6952	-6.87045	0	
0.5700	47.9812	-3.18077	0	
0.5707	47.3667	-0.763384	0	
0.5713	47.9812	2.9263	0	
0.5720	43.3725	5.34369	0	
0.5727	35.1282	4.77115	0	
0.5733	25.3988	5.66176	0	
0.5740	15.9255	5.66176	0	
0.5747	15.9255	2.9263	0	
0.5753	25.0915	1.08146	0	
0.5760	26.3205	1.08146	0	
0.5767	18.6906	1.97207	0	
0.5773	22.3264	4.45307	0	
0.5780	36.3571	6.29792	0	
0.5787	41.5803	4.135	0	
0.5793	42.4508	3.24438	0	
0.5800	51.0024	5.34369	0	
0.5807	60.1685	5.66176	0	
0.5813	58.0178	3.24438	0	
0.5820	49.7734	0.508923	0	
0.5827	43.987	-1.01785	0	
0.5833	37.8934	0.190846	0	
0.5840	32.1069	2.60823	0	
0.5847	30.5707	1.97207	0	
0.5853	25.0915	-1.01785	0	
0.5860	6.45211	-2.54461	0	
0.5867	-15.2085	-1.33592	0	
0.5873	-25.2964	-0.445307	0	
0.5880	-26.2181	-1.654	0	
0.5887	-23.7602	-1.01785	0	
0.5893	-17.6665	1.39954	0	
0.5900	-12.4434	0.190846	0	
0.5907	-13.3651	-2.54461	0	
0.5913	-20.3805	-1.654	0	
0.5920	-28.9321	-1.01785	0	
0.5927	-31.39	-3.18077	0	
0.5933	-21.9167	-4.07138	0	
0.5940	-8.80764	-5.02561	0	
0.5947	-1.17777	-8.07914	0	
0.5953	3.12364	-10.4965	0	
0.5960	13.1603	-11.1327	0	
0.5967	29.0345	-12.0233	0	
0.5973	35.1282	-11.7052	0	
0.5980	21.0974	-5.59815	0	
0.5987	2.50915	3.81692	0	
0.5993	-4.19899	8.39722	0	
0.6000	-7.27143	5.34369	0	
0.6007	-20.3805	1.71761	0	
0.6013	-40.2489	1.08146	0	
0.6020	-54.8942	0.763384	0	
0.6027	-54.2797	-0.763384	0	
0.6033	-41.7339	-0.445307	0	
0.6040	-33.5407	0.190846	0	
0.6047	-35.0258	0.190846	0	
0.6053	-44.1918	2.60823	0	
0.6060	-54.5869	7.18853	0	
0.6067	-50.9	10.2421	0	
0.6073	-30.7755	10.5601	0	
0.6080	-17.6665	11.1327	0	
0.6087	-17.052	13.9318	0	
0.6093	-9.72938	18.7665	0	
0.6100	3.43088	20.9294	0	
0.6107	11.368	16.0311	0	
0.6113	13.1603	7.50661	0	
0.6120	2.50915	-2.86269	0	
0.6127	-20.3805	-15.0768	0	
0.6133	-33.5407	-20.8658	0	
0.6140	-33.848	-15.0768	0	
0.6147	-34.4113	-6.55238	0	
0.6153	-27.7031	-1.654	0	
0.6160	-10.6511	4.77115	0	
0.6167	2.8164	12.0869	0	
0.6173	17.7689	16.9853	0	
0.6180	38.2006	21.8201	0	
0.6187	35.1282	21.2475	0	
0.6193	6.14487	10.5601	0	
0.6200	-6.96418	-0.763384	0	
0.6207	3.12364	-6.87045	0	
0.6213	3.99416	-12.0233	0	
0.6220	-1.48501	-15.713	0	
0.6227	13.4675	-12.6594	0	
0.6233	33.9504	-8.96976	0	
0.6240	36.3571	-8.96976	0	
0.6247	35.7427	-12.3414	0	
0.6253	36.9716	-19.6571	0	
0.6260	15.311	-23.3468	0	
0.6267	-16.7448	-17.2398	0	
0.6273	-24.3746	-7.76107	0	
0.6280	-17.9737	-4.07138	0	
0.6287	-20.995	-2.29015	0	
0.6293	-22.2239	0.190846	0	
0.6300	-17.052	-0.763384	0	
0.6307	-22.5312	-4.07138	0	
0.6313	-32.3118	-4.38946	0	
0.6320	-32.3118	-3.49884	0	
0.6327	-31.0828	-4.38946	0	
0.6333	-31.6973	-3.81692	0	
0.6340	-29.5466	-0.763384	0	
0.6347	-29.5466	-0.445307	0	
0.6353	-26.4741	-0.127231	0	
0.6360	-10.6511	3.81692	0	
0.6367	6.45211	7.50661	0	
0.6373	15.0037	6.55238	0	
0.6380	25.706	5.02561	0	
0.6387	36.3571	1.97207	0	
0.6393	26.8838	0.190846	0	
0.6400	-6.04245	3.24438	0	
0.6407	-37.7909	3.49884	0	
0.6413	-50.9	0.763384	0	
0.6420	-52.129	5.34369	0	
0.6427	-52.4362	10.2421	0	
0.6433	-46.3425	5.02561	0	
0.6440	-33.5407	1.08146	0	
0.6447	-20.6877	3.49884	0	
0.6453	-10.9583	2.9263	0	
0.6460	-4.81348	1.08146	0	
0.6467	-0.870523	2.9263	0	
0.6473	11.368	3.24438	0	
0.6480	27.8055	2.9263	0	
0.6487	28.7273	5.34369	0	
0.6493	18.6906	5.66176	0	
0.6500	23.5553	3.24438	0	
0.6507	46.7522	1.71761	0	
0.6513	62.9337	0.508923	0	
0.6520	55.6111	1.08146	0	
0.6527	31.4925	3.81692	0	
0.6533	2.20191	4.77115	0	
0.6540	-24.9891	2.29015	0	
0.6547	-37.4837	1.08146	0	
0.6553	-31.6973	2.29015	0	
0.6560	-20.6877	5.66176	0	
0.6567	-14.2868	6.55238	0	
0.6573	-10.6511	3.81692	0	
0.6580	-7.88591	0.763384	0	
0.6587	-9.42213	1.71761	0	
0.6593	-12.4434	2.60823	0	
0.6600	-9.11489	2.29015	0	
0.6607	-5.12072	2.60823	0	
0.6613	-11.8289	2.9263	0	
0.6620	-28.3176	1.71761	0	
0.6627	-39.9416	-0.763384	0	
0.6633	-42.9629	-3.49884	0	
0.6640	-43.2701	-5.59815	0	
0.6647	-35.9475	-6.87045	0	
0.6653	-18.5882	-6.2343	0	
0.6660	-6.3497	-3.49884	0	
0.6667	-2.40674	3.81692	0	
0.6673	3.12364	15.713	0	
0.6680	7.68109	19.4027	0	
0.6687	8.60282	5.02561	0	
0.6693	15.0037	-8.07914	0	
0.6700	27.191	-4.38946	0	
0.6707	41.273	1.39954	0	
0.6713	65.0332	0.190846	0	
0.6720	94.631	1.08146	0	
0.6727	107.484	1.97207	0	
0.6733	81.8292	-1.654	0	
0.6740	16.8472	-2.54461	0	
0.6747	-45.4208	1.71761	0	
0.6753	-61.2951	2.29015	0	
0.6760	-59.1444	0.763384	0	
0.6767	-83.263	1.08146	0	
0.6773	-101.902	3.81692	0	
0.6780	-81.7268	4.45307	0	
0.6787	-51.5145	1.08146	0	
0.6793	-33.848	-0.763384	0	
0.6800	-22.5312	0.190846	0	
0.6807	-18.281	-0.445307	0	
0.6813	-15.823	-1.654	0	
0.6820	-9.11489	-2.54461	0	
0.6827	-3.02123	-4.07138	0	
0.6833	7.37384	-3.49884	0	
0.6840	25.706	-0.763384	0	
0.6847	33.0287	-0.127231	0	
0.6853	15.0037	0.190846	0	
0.6860	-10.6511	0.190846	0	
0.6867	-17.9737	-3.49884	0	
0.6873	-9.11489	-5.02561	0	
0.6880	-3.32847	0.190846	0	
0.6887	0.0512072	3.24438	0	
0.6893	12.853	0.190846	0	
0.6900	29.0345	-1.33592	0	
0.6907	44.2943	0.190846	0	
0.6913	58.6323	-1.654	0	
0.6920	54.9966	-5.91622	0	
0.6927	29.3417	-4.38946	0	
0.6933	8.60282	1.39954	0	
0.6940	3.12364	3.81692	0	
0.6947	-1.48501	4.77115	0	
0.6953	-4.50624	9.60591	0	
0.6960	-2.0995	12.405	0	
0.6967	0.358451	12.0869	0	
0.6973	2.20191	10.5601	0	
0.6980	4.60865	7.82468	0	
0.6987	3.99416	5.02561	0	
0.6993	0.358451	1.39954	0	
0.7000	-0.870523	-1.97207	0	
0.7007	0.665694	1.71761	0	
0.7013	4.91589	7.50661	0	
0.7020	11.0608	4.77115	0	
0.7027	20.7901	-0.763384	0	
0.7033	33.9504	-4.38946	0	
0.7040	42.758	-13.5501	0	
0.7047	43.3725	-24.5555	0	
0.7053	40.0441	-29.4539	0	
0.7060	33.9504	-32.5074	0	
0.7067	25.0915	-30.9807	0	
0.7073	19.2539	-20.8658	0	
0.7080	15.311	-15.3949	0	
0.7087	3.43088	-15.713	0	
0.7093	-11.2656	-12.0233	0	
0.7100	-12.7506	-8.96976	0	
0.7107	-4.19899	-11.4508	0	
0.7113	4.30141	-11.7052	0	
0.7120	11.368	-9.92399	0	
0.7127	14.082	-9.60591	0	
0.7133	8.29557	-7.76107	0	
0.7140	0.358451	-6.2343	0	
0.7147	-4.19899	-6.87045	0	
0.7153	-6.65694	-6.55238	0	
0.7160	-0.56328	-4.70753	0	
0.7167	19.5612	-4.38946	0	
0.7173	44.6015	-4.38946	0	
0.7180	53.4604	-3.81692	0	
0.7187	34.5137	-4.70753	0	
0.7193	1.89467	-7.12492	0	
0.7200	-17.052	-8.07914	0	
0.7207	-20.6877	-5.59815	0	
0.7213	-27.3959	-2.54461	0	
0.7220	-33.848	-3.18077	0	
0.7227	-27.3959	-2.86269	0	
0.7233	-23.1457	3.81692	0	
0.7240	-31.0828	13.6137	0	
0.7247	-33.5407	18.5121	0	
0.7253	-31.6973	16.6672	0	
0.7260	-39.0199	11.4508	0	
0.7267	-38.7127	8.39722	0	
0.7273	-23.4529	8.39722	0	
0.7280	-14.2868	8.07914	0	
0.7287	-13.3651	5.02561	0	
0.7293	-5.42797	2.60823	0	
0.7300	2.20191	2.29015	0	
0.7307	10.4463	1.97207	0	
0.7313	25.0915	-0.445307	0	
0.7320	31.4925	-1.01785	0	
0.7327	30.5707	0.190846	0	
0.7333	32.4142	1.08146	0	
0.7340	20.4829	-0.445307	0	
0.7347	-7.88591	-1.654	0	
0.7353	-25.2964	-1.33592	0	
0.7360	-28.0104	-1.33592	0	
0.7367	-28.3176	-0.763384	0	
0.7373	-25.2964	0.508923	0	
0.7380	-17.3593	-0.445307	0	
0.7387	-11.2656	-0.763384	0	
0.7393	-6.04245	1.08146	0	
0.7400	-1.79225	-0.763384	0	
0.7407	1.89467	-5.02561	0	
0.7413	5.83763	-2.86269	0	
0.7420	7.98833	0.763384	0	
0.7427	10.7535	1.08146	0	
0.7433	19.5612	2.60823	0	
0.7440	28.7273	5.97984	0	
0.7447	32.7214	11.4508	0	
0.7453	33.3359	17.8759	0	
0.7460	30.2635	9.92399	0	
0.7467	21.4046	-14.1862	0	
0.7473	8.91006	-25.128	0	
0.7480	-1.48501	-15.3949	0	
0.7487	-4.50624	-6.55238	0	
0.7493	-4.19899	-3.49884	0	
0.7500	-9.42213	0.190846	0	
0.7507	-17.9737	0.190846	0	
0.7513	-22.2239	-1.33592	0	
0.7520	-18.8443	-0.763384	0	
0.7527	-9.11489	-0.445307	0	
0.7533	0.358451	0.190846	0	
0.7540	2.50915	1.97207	0	
0.7547	1.28018	-0.763384	0	
0.7553	2.20191	-4.38946	0	
0.7560	0.665694	-2.54461	0	
0.7567	-4.19899	1.08146	0	
0.7573	-0.56328	2.9263	0	
0.7580	11.368	1.97207	0	
0.7587	18.6906	-1.654	0	
0.7593	19.5612	-4.38946	0	
0.7600	20.4829	-3.49884	0	
0.7607	19.5612	-2.29015	0	
0.7613	20.4829	-0.127231	0	
0.7620	23.2481	2.60823	0	
0.7627	22.3264	4.45307	0	
0.7633	24.1698	8.07914	0	
0.7640	36.3571	12.9775	0	
0.7647	44.2943	15.1404	0	
0.7653	40.6585	14.8224	0	
0.7660	43.6798	12.6594	0	
0.7667	58.0178	4.77115	0	
0.7673	69.3346	-5.34369	0	
0.7680	67.7984	-16.0311	0	
0.7687	48.9029	-26.4004	0	
0.7693	24.1698	-25.4461	0	
0.7700	13.4675	-10.8146	0	
0.7707	11.9313	-4.38946	0	
0.7713	1.28018	-8.07914	0	
0.7720	-9.42213	-5.91622	0	
0.7727	-4.50624	-3.18077	0	
0.7733	9.83179	-8.07914	0	
0.7740	19.5612	-8.65168	0	
0.7747	20.1757	-5.02561	0	
0.7753	17.7689	-6.2343	0	
0.7760	12.2385	-6.2343	0	
0.7767	0.358451	-4.38946	0	
0.7773	-8.80764	-8.07914	0	
0.7780	-9.72938	-11.1327	0	
0.7787	-10.3439	-11.1327	0	
0.7793	-11.2656	-12.6594	0	
0.7800	-9.11489	-11.7052	0	
0.7807	-9.72938	-5.59815	0	
0.7813	-7.88591	-0.763384	0	
0.7820	4.30141	6.29792	0	
0.7827	16.2327	15.4585	0	
0.7833	14.082	20.2933	0	
0.7840	2.20191	23.983	0	
0.7847	-10.0366	27.609	0	
0.7853	-21.6095	23.0924	0	
0.7860	-27.7031	13.9318	0	
0.7867	-20.6877	12.9775	0	
0.7873	-1.17777	16.0311	0	
0.7880	20.4829	10.2421	0	
0.7887	35.4354	-1.654	0	
0.7893	33.9504	-4.38946	0	
0.7900	8.29557	-0.127231	0	
0.7907	-18.8443	-5.91622	0	
0.7913	-24.9891	-20.8658	0	
0.7920	-26.2181	-27.609	0	
0.7927	-34.7185	-23.9194	0	
0.7933	-32.619	-20.8658	0	
0.7940	-19.766	-19.0846	0	
0.7947	-12.7506	-14.1862	0	
0.7953	-4.19899	-8.96976	0	
0.7960	11.9313	-7.12492	0	
0.7967	18.9467	-3.81692	0	
0.7973	6.45211	-0.445307	0	
0.7980	-17.052	0.763384	0	
0.7987	-35.9475	2.29015	0	
0.7993	-42.6556	1.71761	0	
0.8000	-43.5774	-2.86269	0	
0.8007	-39.9416	-1.01785	0	
0.8013	-25.9109	5.66176	0	
0.8020	-3.32847	4.77115	0	
0.8027	14.082	3.24438	0	
0.8033	19.5612	9.60591	0	
0.8040	15.311	9.35145	0	
0.8047	4.91589	3.24438	0	
0.8053	-5.42797	7.50661	0	
0.8060	-12.4434	13.2956	0	
0.8067	-15.2085	12.405	0	
0.8073	-15.5158	14.5043	0	
0.8080	-14.9013	16.6672	0	
0.8087	-12.7506	12.0869	0	
0.8093	-11.5216	11.1327	0	
0.8100	-13.3651	15.713	0	
0.8107	-14.9013	18.5121	0	
0.8113	-12.4434	14.5043	0	
0.8120	-11.8289	-1.654	0	
0.8127	-13.0578	-19.0846	0	
0.8133	-11.8289	-20.5477	0	
0.8140	-10.6511	-11.7052	0	
0.8147	-10.6511	-5.34369	0	
0.8153	-7.57867	-1.654	0	
0.8160	0.358451	-1.33592	0	
0.8167	12.2385	-3.18077	0	
0.8173	34.8209	-1.33592	0	
0.8180	58.9395	0.190846	0	
0.8187	58.0178	0.508923	0	
0.8193	26.3205	4.45307	0	
0.8200	0.0512072	5.34369	0	
0.8207	-2.71398	0.508923	0	
0.8213	-9.42213	-1.654	0	
0.8220	-34.4113	-1.33592	0	
0.8227	-50.9	-0.763384	0	
0.8233	-43.2701	1.39954	0	
0.8240	-26.7814	0.190846	0	
0.8247	-15.823	-3.49884	0	
0.8253	-12.4434	-1.01785	0	
0.8260	-13.3651	1.97207	0	
0.8267	-9.42213	0.508923	0	
0.8273	-0.256036	0.508923	0	
0.8280	2.50915	0.763384	0	
0.8287	-3.32847	-3.49884	0	
0.8293	-7.57867	-6.87045	0	
0.8300	-10.0366	-4.70753	0	
0.8307	-14.5941	-0.763384	0	
0.8313	-14.2868	1.71761	0	
0.8320	-4.19899	1.39954	0	
0.8327	6.75936	0.763384	0	
0.8333	14.6965	-0.127231	0	
0.8340	20.7901	0.190846	0	
0.8347	15.9255	3.81692	0	
0.8353	-5.12072	6.55238	0	
0.8360	-26.2181	4.135	0	
0.8367	-34.104	0.763384	0	
0.8373	-36.562	0.763384	0	
0.8380	-37.7909	2.9263	0	
0.8387	-34.7185	7.18853	0	
0.8393	-28.6248	11.4508	0	
0.8400	-15.2085	12.9775	0	
0.8407	8.29557	14.5043	0	
0.8413	23.8626	16.0311	0	
0.8420	19.5612	12.0869	0	
0.8427	11.624	4.77115	0	
0.8433	12.5458	1.08146	0	
0.8440	14.3892	-5.02561	0	
0.8447	9.2173	-18.1304	0	
0.8453	2.20191	-23.6013	0	
0.8460	3.12364	-15.3949	0	
0.8467	8.60282	-8.07914	0	
0.8473	14.6965	-7.12492	0	
0.8480	25.0915	-5.59815	0	
0.8487	38.8151	-2.86269	0	
0.8493	47.0595	-2.29015	0	
0.8500	50.6952	-1.97207	0	
0.8507	52.8459	-2.29015	0	
0.8513	48.5957	-2.54461	0	
0.8520	31.7997	-1.33592	0	
0.8527	4.91589	0.190846	0	
0.8533	-17.9737	-0.445307	0	
0.8540	-19.766	-1.654	0	
0.8547	-10.6511	-1.654	0	
0.8553	-6.96418	-0.127231	0	
0.8560	-7.57867	-0.763384	0	
0.8567	-12.7506	-4.38946	0	
0.8573	-24.9891	-7.12492	0	
0.8580	-33.2335	-6.87045	0	
0.8587	-37.1765	-5.59815	0	
0.8593	-44.8063	-6.55238	0	
0.8600	-44.4991	-6.2343	0	
0.8607	-34.7185	1.97207	0	
0.8613	-28.9321	12.6594	0	
0.8620	-23.4529	14.8224	0	
0.8627	-11.2656	9.35145	0	
0.8633	-1.48501	5.66176	0	
0.8640	1.28018	6.29792	0	
0.8647	1.28018	6.55238	0	
0.8653	3.12364	5.66176	0	
0.8660	7.0666	3.81692	0	
0.8667	10.4463	2.29015	0	
0.8673	6.75936	1.39954	0	
0.8680	-3.02123	1.71761	0	
0.8687	-10.0366	2.9263	0	
0.8693	-10.6511	3.81692	0	
0.8700	-7.88591	3.81692	0	
0.8707	-6.04245	1.97207	0	
0.8713	-0.256036	0.508923	0	
0.8720	7.68109	1.08146	0	
0.8727	10.7535	1.97207	0	
0.8733	11.368	-0.445307	0	
0.8740	13.1603	-2.54461	0	
0.8747	10.139	-0.763384	0	
0.8753	1.58742	0.508923	0	
0.8760	-6.3497	-0.763384	0	
0.8767	-16.1303	-1.01785	0	
0.8773	-25.2964	-0.445307	0	
0.8780	-28.0104	-1.33592	0	
0.8787	-30.7755	-2.86269	0	
0.8793	-34.4113	-3.49884	0	
0.8800	-31.6973	-2.86269	0	
0.8807	-24.3746	-1.33592	0	
0.8813	-16.4375	-1.01785	0	
0.8820	-3.02123	-2.54461	0	
0.8827	9.2173	-2.54461	0	
0.8833	9.52455	-1.33592	0	
0.8840	7.0666	-0.763384	0	
0.8847	6.14487	-2.29015	0	
0.8853	3.12364	-3.49884	0	
0.8860	4.91589	-2.54461	0	
0.8867	14.6965	-0.763384	0	
0.8873	24.4771	-1.654	0	
0.8880	33.3359	-2.29015	0	
0.8887	39.7368	-0.127231	0	
0.8893	35.1282	0.508923	0	
0.8900	25.0915	1.39954	0	
0.8907	22.3264	2.9263	0	
0.8913	22.6336	0.763384	0	
0.8920	13.1603	-4.38946	0	
0.8927	-2.40674	-6.87045	0	
0.8933	-9.72938	-8.07914	0	
0.8940	-4.19899	-7.76107	0	
0.8947	3.73813	-4.38946	0	
0.8953	7.68109	-3.49884	0	
0.8960	9.83179	-5.34369	0	
0.8967	4.91589	-3.49884	0	
0.8973	-10.0366	-0.763384	0	
0.8980	-23.7602	-1.654	0	
0.8987	-26.4741	-2.29015	0	
0.8993	-23.7602	0.190846	0	
0.9000	-20.995	1.71761	0	
0.9007	-20.3805	0.763384	0	
0.9013	-20.995	0.190846	0	
0.9020	-19.1515	2.29015	0	
0.9027	-14.9013	2.9263	0	
0.9033	-13.0578	0.508923	0	
0.9040	-11.5216	0.190846	0	
0.9047	-6.96418	1.97207	0	
0.9053	-0.256036	1.71761	0	
0.9060	8.60282	-0.763384	0	
0.9067	15.6182	0.508923	0	
0.9073	17.7689	4.135	0	
0.9080	18.9467	4.77115	0	
0.9087	13.7747	4.77115	0	
0.9093	-6.04245	8.07914	0	
0.9100	-24.3746	8.07914	0	
0.9107	-30.7755	1.97207	0	
0.9113	-37.1765	-1.654	0	
0.9120	-42.6556	0.190846	0	
0.9127	-36.562	5.34369	0	
0.9133	-25.6036	11.1327	0	
0.9140	-16.4375	8.39722	0	
0.9147	-5.73521	-8.07914	0	
0.9153	0.665694	-18.7665	0	
0.9160	-0.56328	-12.3414	0	
0.9167	2.50915	-4.70753	0	
0.9173	12.2385	-5.34369	0	
0.9180	17.4617	-5.91622	0	
0.9187	13.4675	-2.29015	0	
0.9193	9.52455	-0.763384	0	
0.9200	9.83179	-2.54461	0	
0.9207	10.4463	-2.54461	0	
0.9213	8.29557	-0.127231	0	
0.9220	7.68109	2.29015	0	
0.9227	7.68109	1.71761	0	
0.9233	3.99416	-0.127231	0	
0.9240	0.972938	-0.763384	0	
0.9247	6.45211	0.190846	0	
0.9253	19.2539	-1.01785	0	
0.9260	29.649	-2.54461	0	
0.9267	32.7214	-0.763384	0	
0.9273	30.878	2.9263	0	
0.9280	28.7273	3.81692	0	
0.9287	27.191	1.97207	0	
0.9293	28.7273	1.08146	0	
0.9300	33.3359	-0.445307	0	
0.9307	36.0499	-2.54461	0	
0.9313	31.4925	-3.49884	0	
0.9320	22.0191	-4.38946	0	
0.9327	15.6182	-5.02561	0	
0.9333	16.8472	-2.54461	0	
0.9340	24.4771	-3.81692	0	
0.9347	33.6432	-7.12492	0	
0.9353	37.2789	-5.02561	0	
0.9360	28.7273	-2.54461	0	
0.9367	10.4463	-3.49884	0	
0.9373	-9.42213	1.08146	0	
0.9380	-26.4741	5.66176	0	
0.9387	-31.6973	0.508923	0	
0.9393	-16.1303	-1.97207	0	
0.9400	2.20191	0.763384	0	
0.9407	-1.79225	-2.29015	0	
0.9413	-19.766	-3.81692	0	
0.9420	-30.7755	-1.33592	0	
0.9427	-32.3118	-5.34369	0	
0.9433	-24.3746	-8.39722	0	
0.9440	-6.3497	-3.49884	0	
0.9447	10.7535	-1.01785	0	
0.9453	24.1698	-1.33592	0	
0.9460	42.758	2.9263	0	
0.9467	51.9241	6.55238	0	
0.9473	37.5861	14.1862	0	
0.9480	13.4675	26.7184	0	
0.9487	-13.3651	26.7184	0	
0.9493	-47.8788	12.9775	0	
0.9500	-72.2534	1.08146	0	
0.9507	-70.7684	-9.60591	0	
0.9513	-56.4304	-20.8658	0	
0.9520	-42.6556	-19.9752	0	
0.9527	-31.6973	-9.60591	0	
0.9533	-22.2239	-4.70753	0	
0.9540	-11.8289	-5.59815	0	
0.9547	-2.40674	-4.07138	0	
0.9553	0.972938	-0.127231	0	
0.9560	0.665694	1.97207	0	
0.9567	3.99416	1.08146	0	
0.9573	9.52455	-1.33592	0	
0.9580	15.9255	-0.763384	0	
0.9587	20.7901	0.190846	0	
0.9593	23.2481	-0.763384	0	
0.9600	26.0133	-1.33592	0	
0.9607	23.8626	0.190846	0	
0.9613	7.68109	-1.33592	0	
0.9620	-14.2868	-4.07138	0	
0.9627	-24.0674	-4.07138	0	
0.9633	-23.7602	-3.18077	0	
0.9640	-24.6819	-2.54461	0	
0.9647	-23.7602	-1.654	0	
0.9653	-17.6665	-1.01785	0	
0.9660	-10.6511	-0.763384	0	
0.9667	-6.3497	1.39954	0	
0.9673	-8.5004	2.60823	0	
0.9680	-16.4375	1.39954	0	
0.9687	-20.995	1.97207	0	
0.9693	-17.052	2.60823	0	
0.9700	-13.3651	1.39954	0	
0.9707	-13.9796	1.08146	0	
0.9713	-5.73521	0.763384	0	
0.9720	19.8684	-1.33592	0	
0.9727	53.1531	-2.29015	0	
0.9733	69.9491	-0.763384	0	
0.9740	50.6952	0.508923	0	
0.9747	10.4463	1.08146	0	
0.9753	-13.3651	1.71761	0	
0.9760	-11.5216	0.190846	0	
0.9767	-8.80764	-2.29015	0	
0.9773	-13.0578	-2.29015	0	
0.9780	-13.9796	-1.33592	0	
0.9787	-10.3439	-0.763384	0	
0.9793	-5.42797	-1.654	0	
0.9800	1.89467	-2.29015	0	
0.9807	3.99416	-0.763384	0	
0.9813	0.358451	1.39954	0	
0.9820	0.358451	1.71761	0	
0.9827	5.22314	1.39954	0	
0.9833	7.0666	1.08146	0	
0.9840	3.73813	-0.763384	0	
0.9847	-5.12072	-1.654	0	
0.9853	-15.5158	0.763384	0	
0.9860	-17.052	1.08146	0	
0.9867	-10.3439	-2.54461	0	
0.9873	-4.19899	-5.34369	0	
0.9880	-1.48501	-3.81692	0	
0.9887	0.358451	-1.97207	0	
0.9893	2.20191	-3.49884	0	
0.9900	5.83763	-4.07138	0	
0.9907	10.7535	-2.54461	0	
0.9913	16.2327	-1.97207	0	
0.9920	21.4046	-1.33592	0	
0.9927	21.0974	0.190846	0	
0.9933	13.1603	-1.654	0	
0.9940	6.75936	-3.49884	0	
0.9947	3.12364	0.190846	0	
0.9953	3.43088	3.81692	0	
0.9960	21.7119	1.71761	0	
0.9967	51.9241	-0.763384	0	
0.9973	59.8613	-1.654	0	
0.9980	38.8151	-3.18077	0	
0.9987	16.5399	-1.97207	0	
0.9993	0.972938	-0.445307	0	
1.0000	-20.6877	-0.445307	0	
1.0007	-43.2701	0.763384	0	
1.0013	-51.8217	1.97207	0	
1.0020	-46.957	0.190846	0	
1.0027	-36.2547	-1.654	0	
1.0033	-23.1457	0.190846	0	
1.0040	-12.1361	1.08146	0	
1.0047	-4.19899	-1.01785	0	
1.0053	6.75936	-2.86269	0	
1.0060	21.0974	-2.54461	0	
1.0067	30.5707	-1.654	0	
1.0073	36.6644	-2.54461	0	
1.0080	36.0499	-2.54461	0	
1.0087	16.8472	-1.654	0	
1.0093	-9.11489	-1.01785	0	
1.0100	-12.4434	-0.763384	0	
1.0107	7.68109	-0.127231	0	
1.0113	29.9562	-1.01785	0	
1.0120	42.4508	-1.33592	0	
1.0127	45.216	1.97207	0	
1.0133	40.0441	5.34369	0	
1.0140	29.3417	5.34369	0	
1.0147	13.1603	4.135	0	
1.0153	-5.42797	4.77115	0	
1.0160	-25.2964	3.81692	0	
1.0167	-44.8063	1.97207	0	
1.0173	-57.3009	3.81692	0	
1.0180	-62.524	6.87045	0	
1.0187	-63.1385	5.66176	0	
1.0193	-51.5145	3.24438	0	
1.0200	-28.9321	3.81692	0	
1.0207	-16.1303	3.24438	0	
1.0213	-16.7448	1.97207	0	
1.0220	-18.281	2.29015	0	
1.0227	-17.9737	2.60823	0	
1.0233	-16.1303	0.763384	0	
1.0240	-11.5216	0.508923	0	
1.0247	-8.5004	1.71761	0	
1.0253	-9.72938	1.97207	0	
1.0260	-9.11489	2.29015	0	
1.0267	-6.65694	2.29015	0	
1.0273	-5.73521	1.08146	0	
1.0280	-4.19899	1.08146	0	
1.0287	0.358451	1.97207	0	
1.0293	6.45211	2.29015	0	
1.0300	11.9313	1.39954	0	
1.0307	15.311	-0.127231	0	
1.0313	17.1544	-2.54461	0	
1.0320	17.7689	-4.38946	0	
1.0327	14.6965	-3.18077	0	
1.0333	7.98833	-0.445307	0	
1.0340	3.12364	0.508923	0	
1.0347	-0.870523	0.508923	0	
1.0353	-7.88591	1.97207	0	
1.0360	-16.1303	1.71761	0	
1.0367	-20.995	-1.33592	0	
1.0373	-17.9737	-1.654	0	
1.0380	-7.88591	1.08146	0	
1.0387	-0.56328	1.71761	0	
1.0393	1.28018	0.190846	0	
1.0400	2.20191	1.08146	0	
1.0407	3.99416	3.49884	0	
1.0413	4.91589	4.77115	0	
1.0420	9.2173	3.81692	0	
1.0427	12.2385	1.08146	0	
1.0433	8.60282	-2.86269	0	
1.0440	9.52455	-5.91622	0	
1.0447	17.7689	-7.12492	0	
1.0453	22.3264	-5.34369	0	
1.0460	23.2481	0.190846	0	
1.0467	25.706	2.60823	0	
1.0473	25.3988	-2.54461	0	
1.0480	17.1544	-4.70753	0	
1.0487	2.20191	3.49884	0	
1.0493	-11.5216	8.7153	0	
1.0500	-16.4375	4.135	0	
1.0507	-19.766	1.71761	0	
1.0513	-23.1457	5.02561	0	
1.0520	-20.0732	5.66176	0	
1.0527	-13.0578	2.9263	0	
1.0533	-3.32847	1.08146	0	
1.0540	14.6965	-1.33592	0	
1.0547	31.4925	-1.654	0	
1.0553	39.4296	-0.445307	0	
1.0560	45.5232	-1.654	0	
1.0567	50.3879	-3.81692	0	
1.0573	47.9812	-2.54461	0	
1.0580	36.9716	-1.97207	0	
1.0587	11.9313	-2.29015	0	
1.0593	-17.052	-0.127231	0	
1.0600	-31.39	0.763384	0	
1.0607	-40.8634	-2.29015	0	
1.0613	-54.5869	-2.86269	0	
1.0620	-54.5869	0.190846	0	
1.0627	-46.6498	1.97207	0	
1.0633	-49.671	1.08146	0	
1.0640	-52.7435	1.97207	0	
1.0647	-42.9629	4.135	0	
1.0653	-34.7185	3.81692	0	
1.0660	-32.619	1.39954	0	
1.0667	-28.3176	0.763384	0	
1.0673	-25.6036	1.71761	0	
1.0680	-28.0104	1.97207	0	
1.0687	-27.7031	1.08146	0	
1.0693	-23.4529	0.508923	0	
1.0700	-18.8443	0.508923	0	
1.0707	-10.9583	-1.33592	0	
1.0713	0.0512072	-2.54461	0	
1.0720	4.91589	0.190846	0	
1.0727	7.68109	1.97207	0	
1.0733	17.1544	-1.33592	0	
1.0740	24.1698	-1.97207	0	
1.0747	22.3264	1.39954	0	
1.0753	21.7119	2.60823	0	
1.0760	22.3264	1.08146	0	
1.0767	20.1757	0.190846	0	
1.0773	17.7689	1.08146	0	
1.0780	14.082	1.97207	0	
1.0787	9.52455	1.08146	0	
1.0793	11.624	-1.33592	0	
1.0800	14.082	-0.127231	0	
1.0807	10.139	1.08146	0	
1.0813	11.368	-1.33592	0	
1.0820	17.7689	-2.86269	0	
1.0827	17.7689	-2.54461	0	
1.0833	11.9313	-4.07138	0	
1.0840	7.68109	-4.38946	0	
1.0847	6.14487	-3.49884	0	
1.0853	6.45211	-4.38946	0	
1.0860	4.60865	-4.70753	0	
1.0867	-0.870523	-4.70753	0	
1.0873	-2.40674	-5.34369	0	
1.0880	1.89467	-4.07138	0	
1.0887	7.37384	-1.654	0	
1.0893	12.853	-1.654	0	
1.0900	15.311	-1.01785	0	
1.0907	12.2385	0.190846	0	
1.0913	6.75936	0.763384	0	
1.0920	1.89467	0.763384	0	
1.0927	2.20191	0.190846	0	
1.0933	3.99416	-0.763384	0	
1.0940	3.43088	-1.654	0	
1.0947	11.624	-3.18077	0	
1.0953	32.7214	-3.49884	0	
1.0960	45.216	-1.654	0	
1.0967	40.3513	-2.54461	0	
1.0973	34.2064	-5.34369	0	
1.0980	28.42	-5.34369	0	
1.0987	11.368	-2.54461	0	
1.0993	-10.9583	0.508923	0	
1.1000	-22.5312	0.508923	0	
1.1007	-20.0732	-2.54461	0	
1.1013	-15.5158	-3.49884	0	
1.1020	-19.766	-1.654	0	
1.1027	-22.5312	0.190846	0	
1.1033	-12.7506	0.508923	0	
1.1040	2.20191	0.190846	0	
1.1047	14.6965	-1.97207	0	
1.1053	26.0133	-3.49884	0	
1.1060	32.4142	-3.18077	0	
1.1067	28.7273	-0.763384	0	
1.1073	21.4046	1.71761	0	
1.1080	15.9255	0.763384	0	
1.1087	11.9313	-2.29015	0	
1.1093	3.99416	-2.54461	0	
1.1100	-10.6511	-2.54461	0	
1.1107	-28.0104	-4.07138	0	
1.1113	-48.4933	-5.02561	0	
1.1120	-68.3105	-5.34369	0	
1.1127	-73.1751	-5.34369	0	
1.1133	-60.6806	-5.34369	0	
1.1140	-41.7339	-5.34369	0	
1.1147	-20.3805	-3.81692	0	
1.1153	0.0512072	-2.54461	0	
1.1160	11.9313	-5.34369	0	
1.1167	13.4675	-5.02561	0	
1.1173	2.8164	-0.127231	0	
1.1180	-19.766	-1.33592	0	
1.1187	-37.1765	-5.91622	0	
1.1193	-37.1765	-3.81692	0	
1.1200	-28.3176	-0.127231	0	
1.1207	-17.052	-2.29015	0	
1.1213	3.73813	-3.49884	0	
1.1220	25.706	-1.654	0	
1.1227	27.8055	-0.763384	0	
1.1233	11.9313	0.508923	0	
1.1240	-0.870523	3.81692	0	
1.1247	-12.4434	2.60823	0	
1.1253	-30.7755	-2.86269	0	
1.1260	-37.7909	-1.654	0	
1.1267	-23.4529	0.763384	0	
1.1273	-6.04245	-4.38946	0	
1.1280	3.99416	-9.92399	0	
1.1287	10.4463	-9.28784	0	
1.1293	12.853	-10.8146	0	
1.1300	12.5458	-11.4508	0	
1.1307	5.83763	-9.92399	0	
1.1313	-11.5216	-11.1327	0	
1.1320	-25.2964	-6.87045	0	
1.1327	-29.2393	7.18853	0	
1.1333	-30.1611	12.405	0	
1.1340	-17.6665	6.29792	0	
1.1347	9.83179	4.77115	0	
1.1353	23.5553	3.81692	0	
1.1360	18.0762	-1.01785	0	
1.1367	16.5399	0.190846	0	
1.1373	18.0762	3.49884	0	
1.1380	11.368	-0.445307	0	
1.1387	3.99416	-2.54461	0	
1.1393	0.0512072	-1.654	0	
1.1400	-2.40674	-4.07138	0	
1.1407	-1.17777	-3.81692	0	
1.1413	4.60865	0.190846	0	
1.1420	13.1603	0.508923	0	
1.1427	22.9408	0.190846	0	
1.1433	27.191	1.97207	0	
1.1440	23.8626	-0.763384	0	
1.1447	20.1757	-5.34369	0	
1.1453	20.7901	-5.59815	0	
1.1460	24.1698	-3.49884	0	
1.1467	29.3417	-1.01785	0	
1.1473	32.7214	-0.127231	0	
1.1480	34.2064	-2.54461	0	
1.1487	35.4354	-3.18077	0	
1.1493	33.0287	1.08146	0	
1.1500	22.0191	1.97207	0	
1.1507	1.89467	-1.01785	0	
1.1513	-19.1515	-0.763384	0	
1.1520	-27.3959	1.08146	0	
1.1527	-22.2239	1.39954	0	
1.1533	-15.823	1.39954	0	
1.1540	-13.0578	-0.127231	0	
1.1547	-10.3439	-2.54461	0	
1.1553	-6.3497	-1.33592	0	
1.1560	-2.40674	1.08146	0	
1.1567	-2.71398	1.08146	0	
1.1573	-10.9583	0.508923	0	
1.1580	-17.6665	0.190846	0	
1.1587	-17.052	1.97207	0	
1.1593	-13.3651	5.66176	0	
1.1600	-7.88591	7.82468	0	
1.1607	3.73813	8.7153	0	
1.1613	21.4046	5.66176	0	
1.1620	38.8151	-5.59815	0	
1.1627	42.1436	-13.5501	0	
1.1633	32.1069	-5.91622	0	
1.1640	21.4046	4.45307	0	
1.1647	6.75936	3.81692	0	
1.1653	-16.1303	0.190846	0	
1.1660	-29.5466	2.9263	0	
1.1667	-23.4529	5.02561	0	
1.1673	-15.2085	3.24438	0	
1.1680	-14.5941	1.97207	0	
1.1687	-14.2868	3.49884	0	
1.1693	-9.11489	5.02561	0	
1.1700	-2.40674	5.34369	0	
1.1707	-1.17777	3.49884	0	
1.1713	-5.12072	1.08146	0	
1.1720	-10.0366	1.71761	0	
1.1727	-10.6511	4.135	0	
1.1733	-0.56328	3.49884	0	
1.1740	11.9313	1.08146	0	
1.1747	4.30141	1.71761	0	
1.1753	-17.052	3.24438	0	
1.1760	-24.6819	2.9263	0	
1.1767	-18.8443	2.29015	0	
1.1773	-14.2868	1.71761	0	
1.1780	-7.88591	0.190846	0	
1.1787	-2.40674	-0.127231	0	
1.1793	-4.81348	0.763384	0	
1.1800	-3.89175	1.08146	0	
1.1807	4.60865	1.97207	0	
1.1813	7.0666	4.45307	0	
1.1820	5.53038	6.87045	0	
1.1827	11.368	6.29792	0	
1.1833	18.6906	3.81692	0	
1.1840	18.0762	2.9263	0	
1.1847	15.6182	3.24438	0	
1.1853	13.1603	2.9263	0	
1.1860	9.52455	2.9263	0	
1.1867	10.7535	3.49884	0	
1.1873	16.5399	1.97207	0	
1.1880	13.4675	0.763384	0	
1.1887	4.91589	-0.127231	0	
1.1893	3.43088	-1.33592	0	
1.1900	6.14487	-1.654	0	
1.1907	6.75936	-2.54461	0	
1.1913	9.52455	-3.49884	0	
1.1920	11.368	-0.763384	0	
1.1927	7.98833	1.71761	0	
1.1933	3.12364	0.190846	0	
1.1940	-3.63571	0.190846	0	
1.1947	-10.9583	1.71761	0	
1.1953	-11.5216	1.08146	0	
1.1960	-6.65694	1.08146	0	
1.1967	-1.48501	2.29015	0	
1.1973	6.45211	0.763384	0	
1.1980	15.9255	-1.654	0	
1.1987	21.4046	-0.763384	0	
1.1993	18.9467	0.190846	0	
1.2000	12.2385	0.190846	0	
1.2007	7.98833	0.763384	0	
1.2013	3.99416	0.763384	0	
1.2020	-10.9583	0.508923	0	
1.2027	-24.9891	0.508923	0	
1.2033	-17.9737	-0.763384	0	
1.2040	-0.56328	-2.54461	0	
1.2047	8.60282	-3.18077	0	
1.2053	18.0762	-3.81692	0	
1.2060	30.878	-3.81692	0	
1.2067	27.8055	-3.18077	0	
1.2073	9.52455	-2.86269	0	
1.2080	5.22314	-0.763384	0	
1.2087	19.8684	1.39954	0	
1.2093	31.4925	0.763384	0	
1.2100	35.1282	-0.445307	0	
1.2107	41.5803	1.71761	0	
1.2113	45.216	3.49884	0	
1.2120	29.649	4.135	0	
1.2127	5.83763	3.81692	0	
1.2133	-6.04245	1.08146	0	
1.2140	-17.9737	-2.29015	0	
1.2147	-42.9629	-2.29015	0	
1.2153	-64.6235	-1.654	0	
1.2160	-74.7114	-2.54461	0	
1.2167	-80.4978	-0.445307	0	
1.2173	-71.9462	2.9263	0	
1.2180	-45.4208	1.71761	0	
1.2187	-25.2964	-1.97207	0	
1.2193	-20.3805	-0.763384	0	
1.2200	-17.3593	1.71761	0	
1.2207	-11.2656	0.190846	0	
1.2213	-2.40674	-0.445307	0	
1.2220	4.91589	1.71761	0	
1.2227	8.60282	0.190846	0	
1.2233	13.4675	-3.49884	0	
1.2240	11.368	-3.49884	0	
1.2247	-17.6665	-0.763384	0	
1.2253	-53.9724	0.190846	0	
1.2260	-64.3163	1.08146	0	
1.2267	-50.9	0.763384	0	
1.2273	-28.9321	-1.33592	0	
1.2280	-6.96418	-1.97207	0	
1.2287	3.73813	-1.654	0	
1.2293	1.28018	-1.97207	0	
1.2300	-5.12072	-0.763384	0	
1.2307	-17.9737	0.763384	0	
1.2313	-37.4837	0.508923	0	
1.2320	-47.8788	0.763384	0	
1.2327	-35.9475	2.9263	0	
1.2333	-9.11489	2.60823	0	
1.2340	7.68109	-1.654	0	
1.2347	6.75936	-5.34369	0	
1.2353	7.37384	-6.87045	0	
1.2360	19.5612	-8.65168	0	
1.2367	27.4983	-12.3414	0	
1.2373	25.0915	-12.0233	0	
1.2380	21.7119	-8.96976	0	
1.2387	16.5399	-8.96976	0	
1.2393	5.83763	-7.76107	0	
1.2400	-1.48501	0.763384	0	
1.2407	0.358451	9.35145	0	
1.2413	1.89467	8.39722	0	
1.2420	1.58742	1.08146	0	
1.2427	14.082	-3.49884	0	
1.2433	41.5803	-1.97207	0	
1.2440	68.7201	1.08146	0	
1.2447	76.35	1.08146	0	
1.2453	56.2255	0.508923	0	
1.2460	32.4142	-0.763384	0	
1.2467	34.2064	-3.81692	0	
1.2473	39.4296	-4.38946	0	
1.2480	28.7273	-0.127231	0	
1.2487	29.0345	0.763384	0	
1.2493	36.6644	-3.18077	0	
1.2500	14.3892	-4.07138	0	
1.2507	-16.4375	-2.29015	0	
1.2513	-17.052	-1.654	0	
1.2520	-2.71398	-0.763384	0	
1.2527	-1.48501	0.190846	0	
1.2533	-17.9737	-2.29015	0	
1.2540	-44.4991	-4.38946	0	
1.2547	-63.4458	-1.654	0	
1.2553	-62.524	1.97207	0	
1.2560	-52.7435	1.08146	0	
1.2567	-43.2701	-1.01785	0	
1.2573	-34.4113	-0.127231	0	
1.2580	-29.8538	1.97207	0	
1.2587	-33.5407	2.9263	0	
1.2593	-41.1706	3.81692	0	
1.2600	-45.4208	3.49884	0	
1.2607	-40.2489	1.97207	0	
1.2613	-28.3176	0.763384	0	
1.2620	-13.3651	-0.127231	0	
1.2627	2.20191	-1.01785	0	
1.2633	11.368	-1.33592	0	
1.2640	17.1544	-1.97207	0	
1.2647	29.649	-4.70753	0	
1.2653	42.4508	-4.38946	0	
1.2660	40.6585	-0.763384	0	
1.2667	31.4925	0.508923	0	
1.2673	24.1698	-0.127231	0	
1.2680	6.75936	0.190846	0	
1.2687	-16.7448	-1.33592	0	
1.2693	-20.6877	-2.54461	0	
1.2700	-6.04245	0.190846	0	
1.2707	4.30141	2.9263	0	
1.2713	9.52455	1.39954	0	
1.2720	14.082	-0.763384	0	
1.2727	14.3892	0.508923	0	
1.2733	15.311	2.9263	0	
1.2740	18.6906	2.29015	0	
1.2747	16.2327	-1.01785	0	
1.2753	14.082	-2.86269	0	
1.2760	20.4829	-3.49884	0	
1.2767	30.2635	-2.86269	0	
1.2773	34.2064	1.39954	0	
1.2780	28.7273	4.77115	0	
1.2787	16.8472	3.24438	0	
1.2793	9.83179	3.49884	0	
1.2800	0.972938	4.135	0	
1.2807	-19.4588	-0.127231	0	
1.2813	-32.3118	-2.29015	0	
1.2820	-21.6095	3.24438	0	
1.2827	-2.40674	8.39722	0	
1.2833	11.368	7.50661	0	
1.2840	22.6336	0.763384	0	
1.2847	32.7214	-9.92399	0	
1.2853	36.9716	-17.5578	0	
1.2860	26.3205	-16.0311	0	
1.2867	4.30141	-8.39722	0	
1.2873	-7.88591	-2.86269	0	
1.2880	-4.50624	-1.33592	0	
1.2887	-2.71398	0.763384	0	
1.2893	-7.57867	1.97207	0	
1.2900	-10.3439	-0.763384	0	
1.2907	-9.72938	-2.54461	0	
1.2913	-5.12072	-1.654	0	
1.2920	1.58742	-1.654	0	
1.2927	3.12364	-3.18077	0	
1.2933	3.43088	-3.18077	0	
1.2940	10.4463	-1.33592	0	
1.2947	17.4617	0.190846	0	
1.2953	17.7689	-0.445307	0	
1.2960	13.7747	-3.18077	0	
1.2967	9.2173	-6.2343	0	
1.2973	6.75936	-5.91622	0	
1.2980	7.0666	-2.29015	0	
1.2987	6.45211	-0.127231	0	
1.2993	1.58742	-1.33592	0	
1.3000	-2.40674	-2.54461	0	
1.3007	-8.80764	-2.86269	0	
1.3013	-20.6877	-3.49884	0	
1.3020	-28.6248	-2.54461	0	
1.3027	-24.3746	-0.445307	0	
1.3033	-14.2868	-0.763384	0	
1.3040	1.28018	-1.97207	0	
1.3047	22.0191	-0.127231	0	
1.3053	31.4925	1.08146	0	
1.3060	23.2481	-0.763384	0	
1.3067	14.6965	-0.127231	0	
1.3073	12.2385	1.08146	0	
1.3080	5.83763	-2.29015	0	
1.3087	-3.02123	-2.86269	0	
1.3093	-6.65694	1.97207	0	
1.3100	-5.12072	2.29015	0	
1.3107	-6.04245	-1.33592	0	
1.3113	-8.5004	-1.01785	0	
1.3120	-6.04245	-3.49884	0	
1.3127	-1.79225	-8.96976	0	
1.3133	-1.17777	-8.07914	0	
1.3140	-0.56328	-6.2343	0	
1.3147	4.91589	-8.39722	0	
1.3153	8.91006	-8.96976	0	
1.3160	6.45211	-10.1785	0	
1.3167	3.99416	-10.8146	0	
1.3173	6.14487	-2.54461	0	
1.3180	7.0666	9.35145	0	
1.3187	4.91589	13.2956	0	
1.3193	6.14487	10.2421	0	
1.3200	13.4675	7.50661	0	
1.3207	16.5399	6.87045	0	
1.3213	9.83179	5.66176	0	
1.3220	2.20191	3.81692	0	
1.3227	-2.40674	2.9263	0	
1.3233	-6.04245	4.135	0	
1.3240	-3.89175	3.81692	0	
1.3247	1.28018	2.9263	0	
1.3253	1.28018	2.9263	0	
1.3260	5.53038	1.39954	0	
1.3267	19.8684	-1.01785	0	
1.3273	23.2481	-1.654	0	
1.3280	6.45211	-1.97207	0	
1.3287	-6.96418	-0.763384	0	
1.3293	-13.6723	1.97207	0	
1.3300	-30.4683	1.97207	0	
1.3307	-49.3638	-1.01785	0	
1.3313	-52.4362	-1.654	0	
1.3320	-35.333	0.190846	0	
1.3327	-6.3497	-0.763384	0	
1.3333	15.6182	-1.97207	0	
1.3340	19.2539	-1.33592	0	
1.3347	20.7901	0.763384	0	
1.3353	41.273	0.763384	0	
1.3360	64.4187	-0.127231	0	
1.3367	51.6169	0.508923	0	
1.3373	0.972938	0.190846	0	
1.3380	-41.1706	-1.33592	0	
1.3387	-52.7435	-0.763384	0	
1.3393	-55.5086	1.97207	0	
1.3400	-56.6864	1.97207	0	
1.3407	-46.0353	1.08146	0	
1.3413	-28.3176	0.763384	0	
1.3420	-12.1361	0.508923	0	
1.3427	0.0512072	0.763384	0	
1.3433	2.8164	2.60823	0	
1.3440	0.358451	3.81692	0	
1.3447	-1.79225	2.29015	0	
1.3453	-10.6511	-0.763384	0	
1.3460	-23.7602	-1.97207	0	
1.3467	-26.7814	-0.763384	0	
1.3473	-23.4529	-0.127231	0	
1.3480	-24.9891	0.190846	0	
1.3487	-20.6877	2.9263	0	
1.3493	-4.50624	4.77115	0	
1.3500	4.91589	2.9263	0	
1.3507	0.358451	2.9263	0	
1.3513	1.89467	5.02561	0	
1.3520	13.1603	3.81692	0	
1.3527	16.2327	0.190846	0	
1.3533	15.0037	-0.445307	0	
1.3540	26.8838	1.39954	0	
1.3547	44.6015	1.97207	0	
1.3553	47.3667	1.08146	0	
1.3560	27.8055	0.190846	0	
1.3567	1.58742	1.39954	0	
1.3573	-9.42213	2.9263	0	
1.3580	-5.12072	5.34369	0	
1.3587	0.972938	7.50661	0	
1.3593	10.139	4.77115	0	
1.3600	21.4046	0.508923	0	
1.3607	24.4771	1.08146	0	
1.3613	16.8472	3.24438	0	
1.3620	3.12364	1.97207	0	
1.3627	-9.11489	2.29015	0	
1.3633	-12.1361	2.9263	0	
1.3640	-13.3651	0.508923	0	
1.3647	-21.6095	-1.01785	0	
1.3653	-28.9321	0.763384	0	
1.3660	-32.0045	1.39954	0	
1.3667	-29.8538	1.97207	0	
1.3673	-19.766	2.29015	0	
1.3680	-6.04245	2.9263	0	
1.3687	11.368	3.81692	0	
1.3693	40.3513	3.49884	0	
1.3700	64.7259	1.08146	0	
1.3707	64.4187	1.97207	0	
1.3713	55.3038	2.60823	0	
1.3720	50.3879	1.39954	0	
1.3727	32.7214	2.9263	0	
1.3733	2.20191	1.97207	0	
1.3740	-12.4434	-2.54461	0	
1.3747	-1.79225	-0.445307	0	
1.3753	12.853	5.02561	0	
1.3760	8.60282	4.77115	0	
1.3767	-11.2656	5.02561	0	
1.3773	-25.2964	7.18853	0	
1.3780	-28.0104	4.45307	0	
1.3787	-25.9109	1.97207	0	
1.3793	-16.1303	3.49884	0	
1.3800	-3.32847	6.29792	0	
1.3807	0.0512072	9.35145	0	
1.3813	-5.12072	4.77115	0	
1.3820	-6.04245	-8.96976	0	
1.3827	-2.71398	-18.1304	0	
1.3833	-2.40674	-16.6036	0	
1.3840	-7.27143	-11.7052	0	
1.3847	-11.5216	-8.07914	0	
1.3853	-12.4434	-7.44299	0	
1.3860	-15.2085	-5.34369	0	
1.3867	-19.766	5.97984	0	
1.3873	-16.4375	16.6672	0	
1.3880	-6.96418	13.6137	0	
1.3887	-1.48501	7.50661	0	
1.3893	-2.40674	6.29792	0	
1.3900	-2.71398	4.77115	0	
1.3907	-0.56328	3.81692	0	
1.3913	2.8164	5.66176	0	
1.3920	6.45211	4.45307	0	
1.3927	6.14487	-0.763384	0	
1.3933	0.665694	-3.81692	0	
1.3940	-3.02123	-3.49884	0	
1.3947	0.358451	-1.33592	0	
1.3953	7.68109	-0.127231	0	
1.3960	15.0037	-1.97207	0	
1.3967	18.6906	-2.86269	0	
1.3973	16.2327	-1.33592	0	
1.3980	12.2385	-0.763384	0	
1.3987	13.1603	-2.54461	0	
1.3993	13.1603	-4.38946	0	
1.4000	6.14487	-5.02561	0	
1.4007	-3.32847	-5.34369	0	
1.4013	-8.80764	-5.91622	0	
1.4020	-6.3497	-5.59815	0	
1.4027	0.358451	-4.38946	0	
1.4033	6.75936	-4.38946	0	
1.4040	14.082	-3.81692	0	
1.4047	23.5553	-5.02561	0	
1.4053	31.7997	-7.12492	0	
1.4060	30.5707	-5.34369	0	
1.4067	15.311	-2.29015	0	
1.4073	-3.32847	-2.86269	0	
1.4080	-11.5216	-3.18077	0	
1.4087	-13.6723	-1.654	0	
1.4093	-18.281	-2.54461	0	
1.4100	-19.1515	-3.18077	0	
1.4107	-11.5216	-2.54461	0	
1.4113	-5.12072	-3.49884	0	
1.4120	-3.89175	-3.18077	0	
1.4127	-3.32847	-1.97207	0	
1.4133	-0.870523	-3.18077	0	
1.4140	6.45211	-1.97207	0	
1.4147	17.7689	-0.763384	0	
1.4153	21.0974	-3.49884	0	
1.4160	11.9313	-4.07138	0	
1.4167	1.28018	-1.654	0	
1.4173	-0.870523	-3.81692	0	
1.4180	-2.0995	-4.70753	0	
1.4187	-9.42213	-3.49884	0	
1.4193	-16.1303	-6.2343	0	
1.4200	-20.995	-7.44299	0	
1.4207	-29.8538	-2.86269	0	
1.4213	-28.9321	-1.654	0	
1.4220	-6.04245	-3.49884	0	
1.4227	20.4829	-2.54461	0	
1.4233	36.0499	-1.654	0	
1.4240	54.3821	-2.29015	0	
1.4247	76.0427	-0.763384	0	
1.4253	80.6002	1.08146	0	
1.4260	51.9241	0.763384	0	
1.4267	-0.56328	0.190846	0	
1.4273	-40.2489	-0.763384	0	
1.4280	-52.129	-1.654	0	
1.4287	-59.7588	-2.54461	0	
1.4293	-68.3105	-2.86269	0	
1.4300	-63.4458	-1.654	0	
1.4307	-58.2226	-0.127231	0	
1.4313	-62.2168	0.190846	0	
1.4320	-58.8371	1.97207	0	
1.4327	-48.186	3.49884	0	
1.4333	-44.1918	1.97207	0	
1.4340	-37.1765	-0.763384	0	
1.4347	-18.5882	-1.01785	0	
1.4353	2.20191	0.508923	0	
1.4360	12.853	0.508923	0	
1.4367	8.60282	0.190846	0	
1.4373	-2.0995	1.39954	0	
1.4380	-2.71398	2.9263	0	
1.4387	2.50915	1.97207	0	
1.4393	-1.48501	1.08146	0	
1.4400	-10.6511	1.08146	0	
1.4407	-17.9737	1.08146	0	
1.4413	-30.7755	1.71761	0	
1.4420	-45.7281	3.24438	0	
1.4427	-53.6652	2.9263	0	
1.4433	-58.5299	-0.445307	0	
1.4440	-62.524	-1.33592	0	
1.4447	-55.5086	-1.01785	0	
1.4453	-43.8846	-3.18077	0	
1.4460	-36.2547	-4.38946	0	
1.4467	-17.9737	-3.81692	0	
1.4473	12.2385	-5.34369	0	
1.4480	31.4925	-6.2343	0	
1.4487	32.4142	-5.34369	0	
1.4493	30.5707	-3.81692	0	
1.4500	32.4142	-2.54461	0	
1.4507	30.878	-1.654	0	
1.4513	25.0915	-0.763384	0	
1.4520	18.6906	-0.445307	0	
1.4527	12.2385	-2.29015	0	
1.4533	8.91006	-5.59815	0	
1.4540	9.2173	-6.2343	0	
1.4547	7.98833	-4.07138	0	
1.4553	8.60282	-2.86269	0	
1.4560	12.853	-2.54461	0	
1.4567	9.2173	-0.445307	0	
1.4573	-1.79225	1.08146	0	
1.4580	-4.81348	0.190846	0	
1.4587	0.972938	-0.763384	0	
1.4593	8.60282	-1.33592	0	
1.4600	22.3264	-0.763384	0	
1.4607	38.8151	2.29015	0	
1.4613	52.5386	1.71761	0	
1.4620	59.554	-1.01785	0	
1.4627	45.5232	-0.763384	0	
1.4633	4.91589	-1.01785	0	
1.4640	-34.4113	-1.654	0	
1.4647	-53.9724	1.08146	0	
1.4653	-67.3887	2.60823	0	
1.4660	-73.4824	1.97207	0	
1.4667	-56.6864	4.45307	0	
1.4673	-27.0886	4.45307	0	
1.4680	-0.56328	-0.763384	0	
1.4687	17.7689	-0.127231	0	
1.4693	19.5612	5.02561	0	
1.4700	7.68109	7.18853	0	
1.4707	0.665694	4.77115	0	
1.4713	-3.32847	-5.91622	0	
1.4720	-17.052	-19.9752	0	
1.4727	-27.0886	-21.1839	0	
1.4733	-17.9737	-13.8681	0	
1.4740	0.0512072	-11.7052	0	
1.4747	11.368	-11.1327	0	
1.4753	15.0037	-7.12492	0	
1.4760	15.0037	-3.49884	0	
1.4767	13.1603	3.49884	0	
1.4773	8.29557	11.1327	0	
1.4780	3.73813	10.8782	0	
1.4787	1.89467	4.77115	0	
1.4793	-0.870523	1.39954	0	
1.4800	3.99416	0.763384	0	
1.4807	25.706	-0.763384	0	
1.4813	44.9087	-1.01785	0	
1.4820	41.8363	0.190846	0	
1.4827	26.8838	0.763384	0	
1.4833	13.7747	1.39954	0	
1.4840	0.0512072	4.135	0	
1.4847	-18.5882	5.66176	0	
1.4853	-32.9263	4.77115	0	
1.4860	-27.0886	3.81692	0	
1.4867	-6.96418	3.49884	0	
1.4873	0.0512072	2.9263	0	
1.4880	-5.12072	2.60823	0	
1.4887	0.358451	3.24438	0	
1.4893	13.1603	1.97207	0	
1.4900	11.368	1.39954	0	
1.4907	-1.48501	2.9263	0	
1.4913	-8.80764	4.77115	0	
1.4920	-4.50624	3.81692	0	
1.4927	5.22314	2.60823	0	
1.4933	15.0037	2.9263	0	
1.4940	23.5553	3.81692	0	
1.4947	32.4142	3.81692	0	
1.4953	37.8934	3.49884	0	
1.4960	35.1282	1.97207	0	
1.4967	24.7843	0.190846	0	
1.4973	15.6182	-0.127231	0	
1.4980	9.2173	1.08146	0	
1.4987	1.28018	0.190846	0	
1.4993	-6.04245	-1.01785	0	
1.5000	-8.5004	-0.127231	0	
1.5007	-6.96418	1.08146	0	
1.5013	-3.32847	0.190846	0	
1.5020	-2.40674	-1.33592	0	
1.5027	-8.80764	-0.763384	0	
1.5033	-17.6665	1.97207	0	
1.5040	-21.6095	2.9263	0	
1.5047	-22.5312	1.97207	0	
1.5053	-19.1515	1.97207	0	
1.5060	-3.63571	3.49884	0	
1.5067	25.0915	2.9263	0	
1.5073	58.0178	0.763384	0	
1.5080	79.1152	-0.763384	0	
1.5087	71.7925	-1.654	0	
1.5093	42.758	-2.54461	0	
1.5100	21.4046	-1.654	0	
1.5107	16.8472	-0.445307	0	
1.5113	15.6182	0.508923	0	
1.5120	14.082	0.763384	0	
1.5127	17.7689	-0.127231	0	
1.5133	23.2481	-1.654	0	
1.5140	29.3417	-1.654	0	
1.5147	39.1223	-1.654	0	
1.5153	48.2884	-3.18077	0	
1.5160	47.0595	-4.38946	0	
1.5167	32.1069	-3.49884	0	
1.5173	16.8472	-2.29015	0	
1.5180	14.082	-1.97207	0	
1.5187	15.9255	-2.54461	0	
1.5193	14.3892	-1.97207	0	
1.5200	19.5612	-1.01785	0	
1.5207	32.4142	-3.18077	0	
1.5213	40.3513	-5.34369	0	
1.5220	38.2006	-3.81692	0	
1.5227	24.1698	-0.763384	0	
1.5233	4.91589	1.08146	0	
1.5240	-5.73521	0.508923	0	
1.5247	-16.7448	-1.33592	0	
1.5253	-37.1765	-2.54461	0	
1.5260	-36.2547	-1.654	0	
1.5267	-1.79225	0.190846	0	
1.5273	28.42	-0.127231	0	
1.5280	42.4508	-0.127231	0	
1.5287	63.5482	1.71761	0	
1.5293	82.7509	0.763384	0	
1.5300	86.7451	-4.07138	0	
1.5307	93.7605	-6.2343	0	
1.5313	105.333	-5.91622	0	
1.5320	106.562	-5.91622	0	
1.5327	111.734	-4.07138	0	
1.5333	135.853	-2.29015	0	
1.5340	165.143	-4.38946	0	
1.5347	195.048	-4.38946	0	
1.5353	229.255	-1.33592	0	
1.5360	245.436	-1.01785	0	
1.5367	236.27	-2.54461	0	
1.5373	225.261	-1.654	0	
1.5380	220.703	-2.54461	0	
1.5387	214.917	-4.38946	0	
1.5393	217.016	-4.38946	0	
1.5400	231.662	-3.49884	0	
1.5407	245.129	-3.18077	0	
1.5413	242.978	-2.54461	0	
1.5420	225.568	-1.654	0	
1.5427	206.672	-2.29015	0	
1.5433	196.585	-2.86269	0	
1.5440	184.397	-4.38946	0	
1.5447	165.143	-4.38946	0	
1.5453	154.492	-0.763384	0	
1.5460	164.836	3.81692	0	
1.5467	191.105	0.190846	0	
1.5473	217.324	-10.8146	0	
1.5480	232.891	-19.0846	0	
1.5487	236.577	-18.1304	0	
1.5493	231.969	-11.4508	0	
1.5500	221.932	-6.87045	0	
1.5507	209.079	-8.07914	0	
1.5513	197.199	-8.65168	0	
1.5520	199.35	-6.87045	0	
1.5527	219.167	-7.12492	0	
1.5533	234.427	-10.4965	0	
1.5540	232.891	-10.8146	0	
1.5547	231.662	-9.28784	0	
1.5553	230.74	-7.76107	0	
1.5560	203.907	-6.2343	0	
1.5567	153.878	-5.34369	0	
1.5573	107.484	-4.38946	0	
1.5580	74.8138	-1.97207	0	
1.5587	47.6739	0.190846	0	
1.5593	22.6336	1.08146	0	
1.5600	3.99416	0.190846	0	
1.5607	-8.80764	-1.654	0	
1.5613	-22.2239	-3.81692	0	
1.5620	-36.8692	-4.07138	0	
1.5627	-49.671	-3.18077	0	
1.5633	-65.5453	-1.654	0	
1.5640	-81.4195	1.71761	0	
1.5647	-88.1277	8.39722	0	
1.5653	-88.4349	15.1404	0	
1.5660	-88.1277	16.0311	0	
1.5667	-82.9557	13.6137	0	
1.5673	-78.3983	12.9775	0	
1.5680	-76.8621	12.0869	0	
1.5687	-65.5453	10.2421	0	
1.5693	-45.1136	10.5601	0	
1.5700	-31.39	10.2421	0	
1.5707	-23.4529	5.66176	0	
1.5713	-13.6723	3.49884	0	
1.5720	-5.12072	6.55238	0	
1.5727	4.91589	7.50661	0	
1.5733	18.6906	6.55238	0	
1.5740	21.4046	9.35145	0	
1.5747	1.28018	11.1327	0	
1.5753	-31.6973	9.60591	0	
1.5760	-71.0756	9.92399	0	
1.5767	-127.199	11.1327	0	
1.5773	-183.373	7.50661	0	
1.5780	-205.648	5.66176	0	
1.5787	-205.341	8.39722	0	
1.5793	-213.893	8.7153	0	
1.5800	-223.929	6.29792	0	
1.5807	-224.236	5.66176	0	
1.5813	-230.637	4.45307	0	
1.5820	-249.584	1.97207	0	
1.5827	-268.787	0.508923	0	
1.5833	-284.354	-0.763384	0	
1.5840	-294.442	-1.97207	0	
1.5847	-300.535	-0.763384	0	
1.5853	-303.608	1.08146	0	
1.5860	-294.134	0.763384	0	
1.5867	-267.609	0.190846	0	
1.5873	-234.324	1.39954	0	
1.5880	-203.498	1.97207	0	
1.5887	-182.451	1.71761	0	
1.5893	-176.972	1.39954	0	
1.5900	-174.514	0.190846	0	
1.5907	-164.119	-1.01785	0	
1.5913	-154.953	-0.445307	0	
1.5920	-151.01	1.71761	0	
1.5927	-145.838	1.71761	0	
1.5933	-141.23	-0.763384	0	
1.5940	-136.365	-4.38946	0	
1.5947	-121.105	-5.34369	0	
1.5953	-106.767	-3.18077	0	
1.5960	-115.933	-1.654	0	
1.5967	-144.302	-2.54461	0	
1.5973	-171.749	-2.54461	0	
1.5980	-192.539	-0.763384	0	
1.5987	-211.127	-2.86269	0	
1.5993	-223.315	-6.55238	0	
1.6000	-223.929	-4.70753	0	
1.6007	-217.528	-0.127231	0	
1.6013	-214.2	-0.763384	0	
1.6020	-214.2	-0.763384	0	
1.6027	-215.685	2.29015	0	
1.6033	-218.45	1.08146	0	
1.6040	-227.616	-2.29015	0	
1.6047	-249.584	-1.654	0	
1.6053	-277.953	-1.654	0	
1.6060	-287.119	-3.81692	0	
1.6067	-262.386	-3.49884	0	
1.6073	-224.236	-1.654	0	
1.6080	-193.717	-0.127231	0	
1.6087	-165.041	1.97207	0	
1.6093	-136.979	1.08146	0	
1.6100	-121.412	-2.54461	0	
1.6107	-110.403	-1.97207	0	
1.6113	-91.2001	0.508923	0	
1.6120	-72.8679	1.08146	0	
1.6127	-53.9724	1.39954	0	
1.6133	-26.7814	1.97207	0	
1.6140	-7.88591	1.08146	0	
1.6147	-11.8289	2.9263	0	
1.6153	-24.0674	6.55238	0	
1.6160	-36.562	5.97984	0	
1.6167	-57.3009	2.9263	0	
1.6173	-77.4765	3.81692	0	
1.6180	-87.2059	5.34369	0	
1.6187	-93.3508	2.29015	0	
1.6193	-96.9865	0.508923	0	
1.6200	-96.6793	1.39954	0	
1.6207	-97.601	0.190846	0	
1.6213	-98.2155	-1.01785	0	
1.6220	-93.9653	1.97207	0	
1.6227	-88.7421	2.60823	0	
1.6233	-88.4349	-1.654	0	
1.6240	-91.5073	-1.654	0	
1.6247	-92.4291	1.08146	0	
1.6253	-86.6426	-0.445307	0	
1.6260	-71.0756	-0.763384	0	
1.6267	-39.6344	1.71761	0	
1.6273	4.60865	-0.763384	0	
1.6280	35.1282	-5.34369	0	
1.6287	38.2006	-3.81692	0	
1.6293	29.649	-0.763384	0	
1.6300	20.4829	-1.654	0	
1.6307	12.2385	-3.18077	0	
1.6313	17.4617	-1.01785	0	
1.6320	35.4354	0.508923	0	
1.6327	53.4604	0.190846	0	
1.6333	65.9549	-0.127231	0	
1.6340	72.0486	0.190846	0	
1.6347	76.9645	1.08146	0	
1.6353	78.1935	1.71761	0	
1.6360	57.7106	-0.127231	0	
1.6367	20.4829	-1.01785	0	
1.6373	1.28018	0.190846	0	
1.6380	3.12364	-1.654	0	
1.6387	0.358451	-4.07138	0	
1.6393	-8.80764	-2.86269	0	
1.6400	-14.2868	-2.54461	0	
1.6407	-16.1303	-5.34369	0	
1.6413	-17.9737	-4.38946	0	
1.6420	-21.3022	-0.763384	0	
1.6427	-28.6248	-0.445307	0	
1.6433	-38.4054	-1.654	0	
1.6440	-43.5774	-1.654	0	
1.6447	-43.5774	-1.654	0	
1.6453	-41.1706	-2.29015	0	
1.6460	-29.5466	-3.49884	0	
1.6467	-1.79225	-2.29015	0	
1.6473	26.8838	-0.445307	0	
1.6480	45.216	-1.654	0	
1.6487	58.9395	-2.54461	0	
1.6493	72.3558	0.190846	0	
1.6500	83.6726	0.763384	0	
1.6507	102.005	-0.763384	0	
1.6513	126.687	-0.127231	0	
1.6520	143.79	-0.445307	0	
1.6527	151.42	-2.29015	0	
1.6533	162.685	-0.763384	0	
1.6540	178.56	0.763384	0	
1.6547	180.71	-0.763384	0	
1.6553	158.742	-0.763384	0	
1.6560	124.28	0.190846	0	
1.6567	90.0735	-1.654	0	
1.6573	61.7047	-2.86269	0	
1.6580	43.987	-1.97207	0	
1.6587	35.1282	-3.49884	0	
1.6593	28.7273	-6.2343	0	
1.6600	28.7273	-5.34369	0	
1.6607	36.9716	-4.38946	0	
1.6613	42.4508	-5.34369	0	
1.6620	44.6015	-5.02561	0	
1.6627	50.3879	-5.34369	0	
1.6633	51.3097	-5.02561	0	
1.6640	39.7368	-2.86269	0	
1.6647	22.9408	-2.86269	0	
1.6653	6.14487	-4.38946	0	
1.6660	-6.65694	-3.49884	0	
1.6667	-0.56328	-3.18077	0	
1.6673	29.3417	-3.49884	0	
1.6680	64.1627	-2.86269	0	
1.6687	89.459	-4.38946	0	
1.6693	105.333	-5.91622	0	
1.6700	108.098	-1.654	0	
1.6707	100.776	-0.127231	0	
1.6713	101.083	-5.34369	0	
1.6720	115.421	-5.02561	0	
1.6727	133.088	0.508923	0	
1.6733	145.941	0.190846	0	
1.6740	154.185	-0.445307	0	
1.6747	159.357	0.508923	0	
1.6753	156.592	-3.49884	0	
1.6760	132.217	-4.38946	0	
1.6767	91.917	0.508923	0	
1.6773	65.3404	-0.445307	0	
1.6780	58.9395	-5.02561	0	
1.6787	52.2314	-2.86269	0	
1.6793	38.8151	-0.763384	0	
1.6800	29.0345	-1.654	0	
1.6807	26.8838	-0.445307	0	
1.6813	28.42	0.763384	0	
1.6820	28.42	-0.763384	0	
1.6827	23.5553	-1.654	0	
1.6833	18.6906	-1.654	0	
1.6840	18.6906	-1.654	0	
1.6847	18.6906	0.190846	0	
1.6853	13.1603	1.71761	0	
1.6860	9.52455	0.190846	0	
1.6867	16.8472	0.508923	0	
1.6873	25.0915	2.29015	0	
1.6880	21.0974	0.508923	0	
1.6887	18.0762	-1.654	0	
1.6893	30.878	0.190846	0	
1.6900	52.5386	1.97207	0	
1.6907	75.4283	1.08146	0	
1.6913	97.3962	0.763384	0	
1.6920	112.349	0.190846	0	
1.6927	120.593	-1.33592	0	
1.6933	125.765	-0.763384	0	
1.6940	124.843	1.39954	0	
1.6947	123.973	2.60823	0	
1.6953	124.587	1.97207	0	
1.6960	107.484	1.39954	0	
1.6967	67.1839	1.08146	0	
1.6973	26.0133	1.08146	0	
1.6980	-7.57867	-1.33592	0	
1.6987	-33.2335	-4.38946	0	
1.6993	-38.0982	-4.07138	0	
1.7000	-25.2964	-1.654	0	
1.7007	-17.6665	-1.97207	0	
1.7013	-23.4529	-3.49884	0	
1.7020	-35.0258	-2.86269	0	
1.7027	-47.8788	-1.01785	0	
1.7033	-62.2168	-0.127231	0	
1.7040	-78.3983	0.190846	0	
1.7047	-93.3508	0.190846	0	
1.7053	-98.2155	1.97207	0	
1.7060	-82.034	3.81692	0	
1.7067	-46.3425	2.9263	0	
1.7073	-8.19316	1.97207	0	
1.7080	17.1544	1.97207	0	
1.7087	28.7273	1.71761	0	
1.7093	30.2635	0.190846	0	
1.7100	26.8838	-2.54461	0	
1.7107	24.7843	-3.81692	0	
1.7113	22.6336	-1.01785	0	
1.7120	17.7689	0.508923	0	
1.7127	15.9255	-2.29015	0	
1.7133	24.1698	-4.38946	0	
1.7140	38.8151	-4.38946	0	
1.7147	56.5328	-4.70753	0	
1.7153	71.7925	-5.02561	0	
1.7160	68.1056	-4.38946	0	
1.7167	40.6585	-5.34369	0	
1.7173	11.368	-4.07138	0	
1.7180	-4.19899	-1.97207	0	
1.7187	-14.5941	-1.654	0	
1.7193	-30.7755	-2.29015	0	
1.7200	-48.4933	-3.18077	0	
1.7207	-58.5299	-3.49884	0	
1.7213	-58.2226	-0.445307	0	
1.7220	-50.2855	0.763384	0	
1.7227	-42.6556	-1.654	0	
1.7233	-45.4208	-0.127231	0	
1.7240	-62.8313	1.08146	0	
1.7247	-82.034	-3.49884	0	
1.7253	-82.3412	-7.12492	0	
1.7260	-64.3163	-5.34369	0	
1.7267	-40.8634	-3.81692	0	
1.7273	-24.6819	-2.54461	0	
1.7280	-24.3746	0.508923	0	
1.7287	-33.5407	3.81692	0	
1.7293	-32.619	9.35145	0	
1.7300	-20.0732	15.713	0	
1.7307	-7.88591	16.6672	0	
1.7313	2.50915	13.2956	0	
1.7320	13.4675	8.07914	0	
1.7327	25.706	4.135	0	
1.7333	37.2789	5.02561	0	
1.7340	41.273	5.66176	0	
1.7347	41.8363	2.29015	0	
1.7353	46.445	0.190846	0	
1.7360	39.7368	1.08146	0	
1.7367	12.5458	-0.127231	0	
1.7373	-16.7448	-1.654	0	
1.7380	-41.1706	0.190846	0	
1.7387	-63.753	0.508923	0	
1.7393	-70.7684	-1.654	0	
1.7400	-61.6023	-1.654	0	
1.7407	-57.3009	-0.127231	0	
1.7413	-65.5453	-2.29015	0	
1.7420	-75.6331	-3.49884	0	
1.7427	-83.263	-0.763384	0	
1.7433	-86.6426	0.763384	0	
1.7440	-86.6426	-2.29015	0	
1.7447	-90.2784	-4.07138	0	
1.7453	-95.4503	-3.49884	0	
1.7460	-90.2784	-3.49884	0	
1.7467	-78.3983	-3.18077	0	
1.7473	-74.7114	-1.654	0	
1.7480	-68.3105	-0.127231	0	
1.7487	-37.1765	0.190846	0	
1.7493	-5.73521	1.08146	0	
1.7500	-1.79225	2.9263	0	
1.7507	-3.02123	5.02561	0	
1.7513	14.082	4.77115	0	
1.7520	29.3417	1.39954	0	
1.7527	34.2064	-1.01785	0	
1.7533	38.2006	-0.763384	0	
1.7540	35.1282	1.08146	0	
1.7547	23.5553	1.97207	0	
1.7553	18.3834	1.97207	0	
1.7560	11.0608	2.9263	0	
1.7567	-7.88591	2.29015	0	
1.7573	-23.7602	1.08146	0	
1.7580	-33.5407	1.71761	0	
1.7587	-44.8063	3.49884	0	
1.7593	-52.7435	3.81692	0	
1.7600	-58.2226	2.9263	0	
1.7607	-69.8467	2.29015	0	
1.7613	-81.1123	3.49884	0	
1.7620	-88.1277	5.66176	0	
1.7627	-98.5227	5.66176	0	
1.7633	-106.767	3.24438	0	
1.7640	-102.773	1.08146	0	
1.7647	-91.5073	0.508923	0	
1.7653	-77.4765	2.9263	0	
1.7660	-54.5869	5.66176	0	
1.7667	-30.4683	5.66176	0	
1.7673	-22.2239	4.135	0	
1.7680	-26.2181	2.9263	0	
1.7687	-24.3746	2.29015	0	
1.7693	-17.052	2.29015	0	
1.7700	-9.42213	1.97207	0	
1.7707	3.43088	1.08146	0	
1.7713	17.7689	1.71761	0	
1.7720	26.3205	1.97207	0	
1.7727	33.6432	-0.445307	0	
1.7733	40.6585	-1.654	0	
1.7740	46.1377	-1.654	0	
1.7747	58.6323	-2.86269	0	
1.7753	69.6418	-2.86269	0	
1.7760	60.4757	-2.29015	0	
1.7767	39.7368	-3.18077	0	
1.7773	27.4983	-1.97207	0	
1.7780	23.5553	-0.127231	0	
1.7787	19.5612	-1.654	0	
1.7793	8.29557	-1.654	0	
1.7800	-19.4588	1.97207	0	
1.7807	-59.1444	0.763384	0	
1.7813	-88.7421	-4.70753	0	
1.7820	-93.0435	-6.2343	0	
1.7827	-82.9557	-4.38946	0	
1.7833	-75.6331	-3.49884	0	
1.7840	-70.1539	-3.49884	0	
1.7847	-60.6806	-3.49884	0	
1.7853	-52.7435	-3.49884	0	
1.7860	-38.7127	-4.38946	0	
1.7867	-9.42213	-4.38946	0	
1.7873	19.8684	-2.54461	0	
1.7880	42.4508	-2.54461	0	
1.7887	65.3404	-4.38946	0	
1.7893	72.6631	-3.81692	0	
1.7900	56.2255	-1.654	0	
1.7907	38.5078	-1.654	0	
1.7913	22.9408	-1.33592	0	
1.7920	3.99416	-1.01785	0	
1.7927	9.2173	-3.81692	0	
1.7933	44.2943	-6.87045	0	
1.7940	78.5007	-7.76107	0	
1.7947	102.875	-8.96976	0	
1.7953	122.744	-7.76107	0	
1.7960	124.587	-3.49884	0	
1.7967	104.719	-2.54461	0	
1.7973	83.6726	-5.34369	0	
1.7980	69.9491	-3.49884	0	
1.7987	59.554	0.763384	0	
1.7993	56.2255	0.508923	0	
1.8000	65.6477	-2.86269	0	
1.8007	86.4378	-6.2343	0	
1.8013	110.198	-8.07914	0	
1.8020	121.822	-7.44299	0	
1.8027	116.036	-6.87045	0	
1.8033	106.562	-6.2343	0	
1.8040	99.8541	-3.81692	0	
1.8047	88.2301	-0.763384	0	
1.8053	79.9857	-1.654	0	
1.8060	100.469	-4.07138	0	
1.8067	146.248	-4.38946	0	
1.8073	179.789	-3.49884	0	
1.8080	181.939	-4.70753	0	
1.8087	169.752	-5.02561	0	
1.8093	156.899	-1.654	0	
1.8100	143.175	1.39954	0	
1.8107	132.473	2.9263	0	
1.8113	133.702	4.77115	0	
1.8120	144.712	4.77115	0	
1.8127	155.363	-0.127231	0	
1.8133	158.435	-1.654	0	
1.8140	154.492	2.60823	0	
1.8147	147.426	4.135	0	
1.8153	129.759	4.135	0	
1.8160	91.917	3.81692	0	
1.8167	38.8151	-5.02561	0	
1.8173	-16.7448	-16.2855	0	
1.8180	-64.3163	-14.7588	0	
1.8187	-100.981	-6.55238	0	
1.8193	-135.75	-3.18077	0	
1.8200	-171.135	1.97207	0	
1.8207	-199.247	11.4508	0	
1.8213	-219.986	16.6672	0	
1.8220	-232.174	15.1404	0	
1.8227	-236.168	12.0869	0	
1.8233	-245.897	10.5601	0	
1.8240	-259.979	10.2421	0	
1.8247	-277.031	7.82468	0	
1.8253	-321.889	4.77115	0	
1.8260	-376.834	4.77115	0	
1.8267	-388.765	7.50661	0	
1.8273	-378.678	8.7153	0	
1.8280	-402.182	8.39722	0	
1.8287	-439.102	8.39722	0	
1.8293	-455.284	7.50661	0	
1.8300	-460.148	4.77115	0	
1.8307	-465.627	2.60823	0	
1.8313	-472.08	4.135	0	
1.8320	-475.715	5.66176	0	
1.8327	-466.856	2.60823	0	
1.8333	-453.747	-0.763384	0	
1.8340	-449.19	-0.763384	0	
1.8347	-443.66	1.08146	0	
1.8353	-432.701	1.08146	0	
1.8360	-428.707	0.508923	0	
1.8367	-424.457	1.08146	0	
1.8373	-409.504	3.81692	0	
1.8380	-392.401	3.81692	0	
1.8387	-379.906	-0.127231	0	
1.8393	-365.876	-2.29015	0	
1.8400	-344.778	-1.97207	0	
1.8407	-316.41	-1.97207	0	
1.8413	-285.583	-0.763384	0	
1.8420	-260.85	-1.01785	0	
1.8427	-255.37	-3.49884	0	
1.8433	-267.609	-1.97207	0	
1.8440	-279.796	-0.127231	0	
1.8447	-279.796	-2.54461	0	
1.8453	-265.151	-1.97207	0	
1.8460	-231.559	0.190846	0	
1.8467	-191.31	-3.18077	0	
1.8473	-162.583	-4.38946	0	
1.8480	-134.521	-0.127231	0	
1.8487	-93.658	-0.763384	0	
1.8493	-52.7435	-3.81692	0	
1.8500	-24.3746	-3.18077	0	
1.8507	-8.19316	-2.54461	0	
1.8513	-1.79225	-2.29015	0	
1.8520	2.8164	-0.763384	0	
1.8527	3.73813	-1.654	0	
1.8533	-4.50624	-3.49884	0	
1.8540	-6.04245	-0.763384	0	
1.8547	11.0608	1.08146	0	
1.8553	36.6644	-0.445307	0	
1.8560	63.5482	-2.86269	0	
1.8567	83.6726	-4.38946	0	
1.8573	83.6726	-3.18077	0	
1.8580	75.121	-1.01785	0	
1.8587	80.9074	-1.654	0	
1.8593	97.0889	-2.54461	0	
1.8600	113.885	-1.654	0	
1.8607	143.175	-1.01785	0	
1.8613	182.247	-1.654	0	
1.8620	208.157	-2.54461	0	
1.8627	210.615	-2.54461	0	
1.8633	199.964	-1.654	0	
1.8640	184.397	-1.33592	0	
1.8647	170.059	-3.49884	0	
1.8653	164.529	-5.59815	0	
1.8660	166.987	-6.55238	0	
1.8667	173.388	-5.59815	0	
1.8673	185.268	-4.07138	0	
1.8680	195.356	-3.49884	0	
1.8687	198.735	-3.18077	0	
1.8693	200.835	-1.33592	0	
1.8700	206.058	-0.763384	0	
1.8707	208.157	-0.763384	0	
1.8713	209.386	0.190846	0	
1.8720	216.402	0.190846	0	
1.8727	228.026	-1.01785	0	
1.8733	240.52	0.190846	0	
1.8740	247.536	1.08146	0	
1.8747	242.057	-0.127231	0	
1.8753	225.875	-1.654	0	
1.8760	205.751	-3.49884	0	
1.8767	182.861	-3.49884	0	
1.8773	164.222	-1.654	0	
1.8780	162.429	-4.07138	0	
1.8787	172.466	-6.2343	0	
1.8793	180.71	-3.49884	0	
1.8800	181.632	-4.70753	0	
1.8807	177.945	-4.38946	0	
1.8813	170.315	9.60591	0	
1.8820	162.429	23.3468	0	
1.8827	154.492	22.7743	0	
1.8833	140.103	12.9775	0	
1.8840	122.437	-0.763384	0	
1.8847	115.728	-8.65168	0	
1.8853	121.822	-3.49884	0	
1.8860	127.916	1.39954	0	
1.8867	128.53	-2.29015	0	
1.8873	128.53	-1.97207	0	
1.8880	131.295	3.49884	0	
1.8887	136.775	3.24438	0	
1.8893	142.561	0.763384	0	
1.8900	146.862	1.08146	0	
1.8907	147.426	1.71761	0	
1.8913	146.555	1.71761	0	
1.8920	144.404	1.97207	0	
1.8927	132.78	1.08146	0	
1.8933	108.713	0.763384	0	
1.8940	84.2871	1.97207	0	
1.8947	69.3346	1.97207	0	
1.8953	65.0332	0.763384	0	
1.8960	72.3558	1.08146	0	
1.8967	87.6156	1.39954	0	
1.8973	95.5527	-0.763384	0	
1.8980	92.2242	-0.127231	0	
1.8987	86.1306	3.49884	0	
1.8993	76.0427	3.24438	0	
1.9000	58.6323	1.97207	0	
1.9007	42.4508	2.9263	0	
1.9013	38.8151	0.190846	0	
1.9020	47.6739	-2.54461	0	
1.9027	59.8613	-1.654	0	
1.9033	63.8554	-1.33592	0	
1.9040	59.554	-1.33592	0	
1.9047	55.3038	1.97207	0	
1.9053	52.5386	2.9263	0	
1.9060	51.6169	0.190846	0	
1.9067	56.7888	1.08146	0	
1.9073	62.3192	1.97207	0	
1.9080	60.4757	0.190846	0	
1.9087	54.9966	2.60823	0	
1.9093	48.5957	5.02561	0	
1.9100	38.2006	2.29015	0	
1.9107	25.0915	0.508923	0	
1.9113	14.082	2.60823	0	
1.9120	8.29557	2.9263	0	
1.9127	8.60282	1.08146	0	
1.9133	10.139	1.08146	0	
1.9140	8.60282	1.08146	0	
1.9147	10.7535	0.763384	0	
1.9153	17.7689	-0.445307	0	
1.9160	22.3264	-2.54461	0	
1.9167	22.0191	-2.86269	0	
1.9173	19.2539	-1.01785	0	
1.9180	18.6906	-0.445307	0	
1.9187	24.1698	-0.763384	0	
1.9193	34.2064	-1.01785	0	
1.9200	40.0441	-1.01785	0	
1.9207	39.7368	-0.763384	0	
1.9213	37.2789	-1.33592	0	
1.9220	35.1282	-2.54461	0	
1.9227	31.1852	-2.29015	0	
1.9233	26.0133	-1.01785	0	
1.9240	22.3264	-1.654	0	
1.9247	21.7119	-1.654	0	
1.9253	19.8684	-0.763384	0	
1.9260	17.7689	-0.445307	0	
1.9267	17.7689	-0.127231	0	
1.9273	17.4617	-0.763384	0	
1.9280	15.9255	-2.54461	0	
1.9287	17.1544	-3.81692	0	
1.9293	16.8472	-4.38946	0	
1.9300	11.624	-4.38946	0	
1.9307	12.2385	-1.654	0	
1.9313	21.4046	0.508923	0	
1.9320	28.42	-1.97207	0	
1.9327	26.5766	-5.59815	0	
1.9333	21.7119	-7.44299	0	
1.9340	25.3988	-8.07914	0	
1.9347	41.5803	-7.12492	0	
1.9353	58.9395	-8.07914	0	
1.9360	69.3346	-8.65168	0	
1.9367	76.9645	-5.34369	0	
1.9373	77.8862	-3.81692	0	
1.9380	58.325	-4.70753	0	
1.9387	19.5612	-1.97207	0	
1.9393	-16.1303	2.29015	0	
1.9400	-32.619	1.97207	0	
1.9407	-39.9416	-1.33592	0	
1.9413	-56.1231	-1.97207	0	
1.9420	-76.2476	-1.33592	0	
1.9427	-79.8833	-1.33592	0	
1.9433	-64.3163	-1.654	0	
1.9440	-46.0353	-1.33592	0	
1.9447	-35.333	-1.97207	0	
1.9453	-30.7755	-2.54461	0	
1.9460	-26.2181	-0.763384	0	
1.9467	-20.995	0.190846	0	
1.9473	-17.9737	-1.97207	0	
1.9480	-12.7506	-1.97207	0	
1.9487	-4.19899	0.190846	0	
1.9493	0.972938	-0.763384	0	
1.9500	0.358451	-3.49884	0	
1.9507	5.53038	-4.70753	0	
1.9513	16.8472	-5.34369	0	
1.9520	22.9408	-5.34369	0	
1.9527	21.7119	-3.49884	0	
1.9533	21.4046	-1.01785	0	
1.9540	27.8055	-1.33592	0	
1.9547	36.9716	-2.86269	0	
1.9553	45.216	-2.86269	0	
1.9560	50.3879	-2.29015	0	
1.9567	43.0653	-2.86269	0	
1.9573	18.6906	-2.86269	0	
1.9580	-4.50624	-0.445307	0	
1.9587	-12.7506	-0.763384	0	
1.9593	-15.823	-3.81692	0	
1.9600	-15.2085	-2.54461	0	
1.9607	-6.96418	1.71761	0	
1.9613	-4.19899	1.08146	0	
1.9620	-13.3651	-1.654	0	
1.9627	-22.2239	-1.33592	0	
1.9633	-27.3959	-0.127231	0	
1.9640	-32.0045	0.190846	0	
1.9647	-30.1611	1.71761	0	
1.9653	-24.3746	1.39954	0	
1.9660	-17.6665	-0.763384	0	
1.9667	-7.27143	0.508923	0	
1.9673	1.28018	3.24438	0	
1.9680	3.12364	3.24438	0	
1.9687	6.14487	2.60823	0	
1.9693	11.9313	1.97207	0	
1.9700	13.1603	0.508923	0	
1.9707	15.311	0.508923	0	
1.9713	22.6336	2.29015	0	
1.9720	24.7843	4.135	0	
1.9727	21.7119	4.45307	0	
1.9733	21.7119	0.190846	0	
1.9740	18.3834	-6.2343	0	
1.9747	7.68109	-7.44299	0	
1.9753	1.58742	-5.59815	0	
1.9760	1.28018	-3.18077	0	
1.9767	1.89467	-0.763384	0	
1.9773	4.91589	-8.96976	0	
1.9780	10.7535	-22.7107	0	
1.9787	18.0762	-16.2855	0	
1.9793	26.8838	3.81692	0	
1.9800	28.7273	10.2421	0	
1.9807	27.4983	5.34369	0	
1.9813	36.0499	2.60823	0	
1.9820	37.5861	2.60823	0	
1.9827	16.8472	3.81692	0	
1.9833	-7.57867	6.29792	0	
1.9840	-31.0828	4.77115	0	
1.9847	-61.9095	1.97207	0	
1.9853	-72.5607	1.71761	0	
1.9860	-51.8217	0.190846	0	
1.9867	-32.619	1.08146	0	
1.9873	-23.4529	5.97984	0	
1.9880	-11.5216	7.50661	0	
1.9887	-6.65694	6.29792	0	
1.9893	-6.96418	6.87045	0	
1.9900	-0.56328	6.87045	0	
1.9907	1.28018	4.45307	0	
1.9913	-6.04245	2.9263	0	
1.9920	-2.71398	2.60823	0	
1.9927	9.2173	0.508923	0	
1.9933	8.60282	-1.654	0	
1.9940	-2.71398	-0.763384	0	
1.9947	-8.80764	1.39954	0	
1.9953	-10.6511	1.97207	0	
1.9960	-17.9737	2.29015	0	
1.9967	-27.0886	2.29015	0	
1.9973	-29.2393	0.763384	0	
1.9980	-25.2964	-0.127231	0	
1.9987	-16.1303	1.71761	0	
1.9993	-6.04245	2.9263	0	
2.0000	-1.79225	3.81692	0	
2.0007	5.53038	5.02561	0	
2.0013	21.4046	4.135	0	
2.0020	31.7997	0.763384	0	
2.0027	28.7273	0.190846	0	
2.0033	23.2481	1.97207	0	
2.0040	20.4829	1.97207	0	
2.0047	19.5612	0.763384	0	
2.0053	22.0191	-0.763384	0	
2.0060	26.3205	-2.54461	0	
2.0067	31.4925	-1.654	0	
2.0073	37.5861	1.08146	0	
2.0080	38.8151	1.39954	0	
2.0087	36.0499	2.29015	0	
2.0093	34.5137	4.135	0	
2.0100	27.8055	2.60823	0	
2.0107	16.2327	0.190846	0	
2.0113	9.52455	1.39954	0	
2.0120	8.91006	2.9263	0	
2.0127	12.5458	2.60823	0	
2.0133	18.6906	2.60823	0	
2.0140	19.5612	2.9263	0	
2.0147	19.2539	3.24438	0	
2.0153	24.1698	4.135	0	
2.0160	22.3264	2.9263	0	
2.0167	10.4463	1.39954	0	
2.0173	6.75936	1.97207	0	
2.0180	8.29557	1.97207	0	
2.0187	3.12364	-0.127231	0	
2.0193	1.58742	-1.33592	0	
2.0200	5.83763	-1.33592	0	
2.0207	7.37384	-0.763384	0	
2.0213	13.4675	-0.763384	0	
2.0220	27.8055	-4.07138	0	
2.0227	39.7368	-7.12492	0	
2.0233	47.3667	-5.91622	0	
2.0240	48.9029	-4.07138	0	
2.0247	29.649	-4.07138	0	
2.0253	1.28018	-1.654	0	
2.0260	-8.80764	-0.445307	0	
2.0267	-1.48501	-3.81692	0	
2.0273	9.52455	-7.76107	0	
2.0280	23.8626	-8.07914	0	
2.0287	39.4296	-6.55238	0	
2.0293	40.0441	-5.34369	0	
2.0300	18.6906	-4.38946	0	
2.0307	-3.89175	-2.86269	0	
2.0313	0.972938	-1.654	0	
2.0320	25.706	-2.86269	0	
2.0327	38.5078	-4.70753	0	
2.0333	33.0287	-3.49884	0	
2.0340	20.4829	-1.654	0	
2.0347	-6.65694	-0.763384	0	
2.0353	-48.186	-1.654	0	
2.0360	-71.3829	-5.91622	0	
2.0367	-60.0661	-9.60591	0	
2.0373	-37.1765	-9.60591	0	
2.0380	-19.1515	-8.39722	0	
2.0387	-4.50624	-7.12492	0	
2.0393	5.22314	-5.34369	0	
2.0400	8.91006	-5.34369	0	
2.0407	8.60282	-7.12492	0	
2.0413	3.12364	-7.12492	0	
2.0420	-2.40674	-5.91622	0	
2.0427	-4.50624	-5.34369	0	
2.0433	-8.80764	-4.38946	0	
2.0440	-14.2868	-3.49884	0	
2.0447	-17.6665	-1.97207	0	
2.0453	-17.9737	-0.763384	0	
2.0460	-14.2868	0.190846	0	
2.0467	-8.19316	0.763384	0	
2.0473	-9.72938	0.508923	0	
2.0480	-16.4375	0.763384	0	
2.0487	-15.5158	1.97207	0	
2.0493	-9.72938	0.190846	0	
2.0500	-8.80764	-2.54461	0	
2.0507	-7.88591	0.763384	0	
2.0513	-3.32847	4.77115	0	
2.0520	-0.56328	2.9263	0	
2.0527	-0.56328	1.08146	0	
2.0533	2.8164	1.97207	0	
2.0540	6.75936	0.508923	0	
2.0547	8.91006	-0.763384	0	
2.0553	11.368	-0.763384	0	
2.0560	12.2385	-1.654	0	
2.0567	8.60282	0.190846	0	
2.0573	6.75936	4.77115	0	
2.0580	8.60282	0.190846	0	
2.0587	9.83179	-14.1862	0	
2.0593	10.4463	-19.9752	0	
2.0600	12.853	-12.6594	0	
2.0607	11.624	-7.44299	0	
2.0613	6.14487	-10.1785	0	
2.0620	3.12364	-11.7052	0	
2.0627	4.91589	-11.4508	0	
2.0633	7.68109	-13.5501	0	
2.0640	9.52455	-13.5501	0	
2.0647	12.2385	-10.1785	0	
2.0653	19.5612	-8.07914	0	
2.0660	29.0345	-4.07138	0	
2.0667	36.9716	5.66176	0	
2.0673	40.6585	12.0869	0	
2.0680	40.6585	9.03337	0	
2.0687	38.5078	6.29792	0	
2.0693	35.4354	7.50661	0	
2.0700	27.8055	6.55238	0	
2.0707	10.139	2.9263	0	
2.0713	-13.9796	1.71761	0	
2.0720	-28.3176	4.45307	0	
2.0727	-24.0674	5.66176	0	
2.0733	-8.80764	4.45307	0	
2.0740	4.91589	4.135	0	
2.0747	14.3892	6.55238	0	
2.0753	15.9255	7.50661	0	
2.0760	-0.256036	5.66176	0	
2.0767	-35.9475	5.34369	0	
2.0773	-66.467	5.34369	0	
2.0780	-71.0756	3.81692	0	
2.0787	-61.6023	2.9263	0	
2.0793	-52.4362	5.02561	0	
2.0800	-38.0982	5.66176	0	
2.0807	-24.3746	3.24438	0	
2.0813	-18.8443	2.60823	0	
2.0820	-7.88591	4.77115	0	
2.0827	14.082	5.02561	0	
2.0833	29.649	3.24438	0	
2.0840	36.0499	1.39954	0	
2.0847	38.8151	1.39954	0	
2.0853	31.4925	1.97207	0	
2.0860	12.2385	1.39954	0	
2.0867	-8.19316	-0.763384	0	
2.0873	-19.766	-0.763384	0	
2.0880	-18.5882	0.190846	0	
2.0887	-11.2656	1.08146	0	
2.0893	-7.88591	1.08146	0	
2.0900	-6.3497	0.508923	0	
2.0907	-6.04245	0.190846	0	
2.0913	-10.3439	0.763384	0	
2.0920	-9.72938	1.08146	0	
2.0927	3.12364	-0.763384	0	
2.0933	17.7689	-2.29015	0	
2.0940	21.4046	-2.29015	0	
2.0947	15.311	-1.33592	0	
2.0953	3.99416	1.08146	0	
2.0960	-14.9013	1.71761	0	
2.0967	-35.333	-0.763384	0	
2.0973	-37.1765	-0.763384	0	
2.0980	-16.1303	2.29015	0	
2.0987	2.8164	1.97207	0	
2.0993	3.43088	-0.445307	0	
2.1000	-0.870523	-0.445307	0	
2.1007	-0.870523	-0.445307	0	
2.1013	-0.870523	-0.763384	0	
2.1020	0.358451	1.97207	0	
2.1027	0.665694	2.9263	0	
2.1033	-3.89175	0.508923	0	
2.1040	-9.11489	0.190846	0	
2.1047	-12.4434	1.97207	0	
2.1053	-15.823	2.29015	0	
2.1060	-15.2085	2.60823	0	
2.1067	-6.3497	3.81692	0	
2.1073	7.0666	2.60823	0	
2.1080	22.3264	0.190846	0	
2.1087	41.273	-0.127231	0	
2.1093	63.8554	0.190846	0	
2.1100	79.1152	0.190846	0	
2.1107	65.3404	1.08146	0	
2.1113	15.6182	0.190846	0	
2.1120	-39.0199	-2.29015	0	
2.1127	-67.696	-1.01785	0	
2.1133	-74.0969	-0.763384	0	
2.1140	-66.467	-2.54461	0	
2.1147	-40.5561	0.190846	0	
2.1153	-5.12072	4.135	0	
2.1160	14.3892	1.39954	0	
2.1167	10.139	-0.127231	0	
2.1173	0.665694	3.49884	0	
2.1180	-3.02123	3.81692	0	
2.1187	-11.2656	1.39954	0	
2.1193	-24.3746	1.71761	0	
2.1200	-22.8384	0.763384	0	
2.1207	-6.04245	-1.97207	0	
2.1213	4.30141	-0.763384	0	
2.1220	-1.79225	1.97207	0	
2.1227	-15.2085	2.9263	0	
2.1233	-24.3746	2.9263	0	
2.1240	-24.9891	3.24438	0	
2.1247	-19.1515	4.45307	0	
2.1253	-13.3651	6.55238	0	
2.1260	-9.11489	8.07914	0	
2.1267	-6.96418	7.18853	0	
2.1273	-5.12072	6.29792	0	
2.1280	-4.19899	5.66176	0	
2.1287	-3.32847	2.9263	0	
2.1293	-3.02123	1.08146	0	
2.1300	-3.02123	2.9263	0	
2.1307	-2.0995	3.24438	0	
2.1313	2.20191	2.9263	0	
2.1320	8.29557	2.29015	0	
2.1327	11.624	-8.07914	0	
2.1333	11.9313	-23.0287	0	
2.1340	13.1603	-22.7107	0	
2.1347	17.1544	-12.6594	0	
2.1353	19.5612	-8.39722	0	
2.1360	18.6906	-4.07138	0	
2.1367	17.1544	5.02561	0	
2.1373	11.624	9.03337	0	
2.1380	2.20191	4.77115	0	
2.1387	-3.32847	-0.445307	0	
2.1393	-9.11489	-1.654	0	
2.1400	-22.8384	1.08146	0	
2.1407	-29.5466	1.97207	0	
2.1413	-23.1457	-0.127231	0	
2.1420	-15.5158	-0.445307	0	
2.1427	-4.19899	1.08146	0	
2.1433	11.368	0.190846	0	
2.1440	14.3892	0.763384	0	
2.1447	9.83179	1.97207	0	
2.1453	16.5399	1.71761	0	
2.1460	28.7273	2.29015	0	
2.1467	32.7214	2.60823	0	
2.1473	29.649	0.763384	0	
2.1480	21.7119	0.190846	0	
2.1487	7.98833	-1.33592	0	
2.1493	-10.0366	-4.38946	0	
2.1500	-24.0674	-5.02561	0	
2.1507	-21.9167	-3.49884	0	
2.1513	-11.8289	-3.81692	0	
2.1520	-6.96418	-2.54461	0	
2.1527	-1.17777	-0.763384	0	
2.1533	7.0666	-1.33592	0	
2.1540	8.29557	-1.33592	0	
2.1547	6.75936	-0.763384	0	
2.1553	10.139	-2.54461	0	
2.1560	12.2385	-1.01785	0	
2.1567	10.4463	1.97207	0	
2.1573	-2.71398	-0.763384	0	
2.1580	-26.2181	-3.49884	0	
2.1587	-36.2547	-1.33592	0	
2.1593	-27.0886	-1.97207	0	
2.1600	-24.3746	-5.02561	0	
2.1607	-31.6973	-3.81692	0	
2.1613	-28.9321	-2.54461	0	
2.1620	-19.766	-3.18077	0	
2.1627	-16.1303	-0.763384	0	
2.1633	-13.6723	0.190846	0	
2.1640	-11.8289	-1.97207	0	
2.1647	-11.2656	-2.29015	0	
2.1653	-8.19316	-1.33592	0	
2.1660	-7.88591	-1.654	0	
2.1667	-11.5216	0.190846	0	
2.1673	-12.1361	1.08146	0	
2.1680	-10.6511	-1.654	0	
2.1687	-10.3439	-1.654	0	
2.1693	-4.81348	0.190846	0	
2.1700	8.60282	-0.445307	0	
2.1707	18.9467	-0.763384	0	
2.1713	20.4829	0.190846	0	
2.1720	17.4617	-0.127231	0	
2.1727	14.082	1.97207	0	
2.1733	12.5458	3.81692	0	
2.1740	9.52455	1.39954	0	
2.1747	4.91589	1.08146	0	
2.1753	0.972938	1.71761	0	
2.1760	-4.19899	-1.01785	0	
2.1767	-16.1303	-2.54461	0	
2.1773	-26.7814	-1.01785	0	
2.1780	-24.3746	-0.763384	0	
2.1787	-12.7506	0.508923	0	
2.1793	-2.40674	2.29015	0	
2.1800	5.83763	1.71761	0	
2.1807	16.8472	1.08146	0	
2.1813	27.4983	1.71761	0	
2.1820	27.8055	1.08146	0	
2.1827	18.9467	2.9263	0	
2.1833	11.9313	3.81692	0	
2.1840	7.37384	0.508923	0	
2.1847	-6.3497	-1.33592	0	
2.1853	-26.2181	0.763384	0	
2.1860	-35.333	0.508923	0	
2.1867	-28.3176	-1.01785	0	
2.1873	-13.3651	0.190846	0	
2.1880	0.358451	1.08146	0	
2.1887	11.0608	0.190846	0	
2.1893	18.3834	0.190846	0	
2.1900	21.4046	1.08146	0	
2.1907	21.4046	-1.97207	0	
2.1913	19.5612	-6.55238	0	
2.1920	12.853	-5.34369	0	
2.1927	-1.48501	-1.01785	0	
2.1933	-17.9737	-1.97207	0	
2.1940	-31.6973	-4.70753	0	
2.1947	-37.4837	-3.49884	0	
2.1953	-32.3118	-2.54461	0	
2.1960	-24.9891	-3.81692	0	
2.1967	-24.0674	-1.654	0	
2.1973	-21.9167	0.763384	0	
2.1980	-16.7448	-1.33592	0	
2.1987	-16.4375	-1.654	0	
2.1993	-15.2085	-0.445307	0	
2.2000	-7.57867	-3.49884	0	
2.2007	-3.02123	-5.02561	0	
2.2013	-5.42797	-3.18077	0	
2.2020	-7.88591	-5.34369	0	
2.2027	-7.57867	-7.76107	0	
2.2033	-5.12072	-5.02561	0	
2.2040	-0.870523	-4.07138	0	
2.2047	6.14487	-6.2343	0	
2.2053	23.8626	-5.91622	0	
2.2060	42.758	-4.38946	0	
2.2067	38.8151	-3.81692	0	
2.2073	19.5612	-5.34369	0	
2.2080	8.60282	-7.44299	0	
2.2087	-5.73521	-7.44299	0	
2.2093	-31.6973	-6.2343	0	
2.2100	-43.5774	-7.12492	0	
2.2107	-40.8634	-7.76107	0	
2.2113	-41.7339	-6.2343	0	
2.2120	-36.2547	-2.29015	0	
2.2127	-17.9737	6.55238	0	
2.2133	-7.57867	13.9318	0	
2.2140	-4.81348	17.5578	0	
2.2147	4.91589	17.8759	0	
2.2153	11.9313	6.55238	0	
2.2160	7.37384	-12.0233	0	
2.2167	3.99416	-17.2398	0	
2.2173	3.12364	-6.87045	0	
2.2180	2.20191	-1.97207	0	
2.2187	8.60282	-3.81692	0	
2.2193	21.7119	-1.97207	0	
2.2200	31.1852	-0.763384	0	
2.2207	32.7214	-3.81692	0	
2.2213	24.1698	-4.38946	0	
2.2220	4.91589	-2.29015	0	
2.2227	-8.19316	-4.07138	0	
2.2233	-10.0366	-6.2343	0	
2.2240	-17.052	-4.07138	0	
2.2247	-27.0886	-1.654	0	
2.2253	-24.3746	-1.01785	0	
2.2260	-15.823	-1.97207	0	
2.2267	-11.8289	-2.86269	0	
2.2273	-7.88591	-0.763384	0	
2.2280	-3.32847	1.39954	0	
2.2287	-1.48501	-1.01785	0	
2.2293	0.358451	-3.49884	0	
2.2300	2.50915	-1.97207	0	
2.2307	5.83763	-0.763384	0	
2.2313	11.0608	0.190846	0	
2.2320	12.2385	1.39954	0	
2.2327	9.83179	-0.763384	0	
2.2333	8.91006	-2.54461	0	
2.2340	8.29557	-0.763384	0	
2.2347	7.0666	-0.763384	0	
2.2353	6.75936	0.190846	0	
2.2360	3.12364	3.49884	0	
2.2367	-2.0995	1.08146	0	
2.2373	-0.56328	-3.18077	0	
2.2380	3.12364	-1.33592	0	
2.2387	4.30141	0.508923	0	
2.2393	14.3892	-1.01785	0	
2.2400	28.7273	0.190846	0	
2.2407	28.7273	1.97207	0	
2.2413	19.2539	1.08146	0	
2.2420	13.7747	-0.763384	0	
2.2427	7.98833	-1.654	0	
2.2433	-2.71398	-0.763384	0	
2.2440	-10.9583	1.39954	0	
2.2447	-14.9013	1.39954	0	
2.2453	-17.3593	1.97207	0	
2.2460	-12.4434	3.49884	0	
2.2467	6.45211	2.29015	0	
2.2473	28.1128	1.97207	0	
2.2480	37.8934	4.77115	0	
2.2487	34.2064	5.66176	0	
2.2493	18.6906	6.55238	0	
2.2500	-11.5216	9.60591	0	
2.2507	-49.671	9.35145	0	
2.2513	-72.8679	7.18853	0	
2.2520	-68.3105	5.97984	0	
2.2527	-41.4779	3.49884	0	
2.2533	-12.4434	1.71761	0	
2.2540	2.20191	2.9263	0	
2.2547	2.20191	2.29015	0	
2.2553	0.358451	1.39954	0	
2.2560	0.972938	3.81692	0	
2.2567	1.28018	4.135	0	
2.2573	1.58742	1.08146	0	
2.2580	-0.56328	0.190846	0	
2.2587	-6.65694	0.190846	0	
2.2593	-10.6511	0.190846	0	
2.2600	-5.73521	1.39954	0	
2.2607	7.68109	1.97207	0	
2.2613	22.3264	-0.763384	0	
2.2620	31.7997	-2.29015	0	
2.2627	32.4142	-2.54461	0	
2.2633	24.4771	-3.49884	0	
2.2640	10.4463	-2.54461	0	
2.2647	-4.81348	-0.763384	0	
2.2653	-20.6877	-2.29015	0	
2.2660	-39.0199	-2.54461	0	
2.2667	-47.5715	-0.763384	0	
2.2673	-37.1765	-2.54461	0	
2.2680	-22.5312	-3.18077	0	
2.2687	-16.1303	-0.127231	0	
2.2693	-8.80764	0.763384	0	
2.2700	2.20191	1.71761	0	
2.2707	8.91006	5.97984	0	
2.2713	7.68109	5.02561	0	
2.2720	2.8164	-0.127231	0	
2.2727	3.43088	1.97207	0	
2.2733	6.75936	7.50661	0	
2.2740	2.8164	4.77115	0	
2.2747	-1.48501	-4.70753	0	
2.2753	4.91589	-12.9775	0	
2.2760	4.91589	-15.0768	0	
2.2767	-11.8289	-12.6594	0	
2.2773	-25.2964	-8.96976	0	
2.2780	-21.6095	-5.34369	0	
2.2787	-9.42213	-4.70753	0	
2.2793	0.665694	-6.55238	0	
2.2800	3.73813	-5.34369	0	
2.2807	5.53038	-5.02561	0	
2.2813	10.4463	-8.96976	0	
2.2820	12.2385	-8.96976	0	
2.2827	12.2385	-4.38946	0	
2.2833	14.3892	-5.02561	0	
2.2840	11.0608	-6.55238	0	
2.2847	4.91589	-3.49884	0	
2.2853	6.45211	-1.654	0	
2.2860	10.4463	-1.97207	0	
2.2867	12.853	-0.763384	0	
2.2873	15.9255	-2.54461	0	
2.2880	17.7689	-7.44299	0	
2.2887	17.1544	-8.96976	0	
2.2893	15.311	-7.44299	0	
2.2900	10.4463	-8.07914	0	
2.2907	9.52455	-8.39722	0	
2.2913	13.1603	-8.65168	0	
2.2920	9.52455	-5.91622	0	
2.2927	1.28018	3.81692	0	
2.2933	1.28018	14.1862	0	
2.2940	9.2173	15.713	0	
2.2947	23.5553	10.5601	0	
2.2953	46.445	6.55238	0	
2.2960	59.8613	4.135	0	
2.2967	48.5957	2.9263	0	
2.2973	28.42	2.9263	0	
2.2980	14.3892	1.39954	0	
2.2987	-5.42797	0.508923	0	
2.2993	-38.7127	3.49884	0	
2.3000	-60.9878	5.66176	0	
2.3007	-57.9154	2.60823	0	
2.3013	-49.671	0.508923	0	
2.3020	-48.186	2.9263	0	
2.3027	-38.7127	4.77115	0	
2.3033	-22.2239	4.135	0	
2.3040	-16.7448	2.9263	0	
2.3047	-18.281	2.29015	0	
2.3053	-14.9013	1.08146	0	
2.3060	-12.1361	-0.445307	0	
2.3067	-16.4375	-1.33592	0	
2.3073	-21.6095	-0.445307	0	
2.3080	-22.2239	1.97207	0	
2.3087	-21.6095	1.97207	0	
2.3093	-20.0732	-0.445307	0	
2.3100	-14.2868	0.190846	0	
2.3107	-9.42213	3.49884	0	
2.3113	-3.63571	2.60823	0	
2.3120	17.7689	0.190846	0	
2.3127	51.6169	2.60823	0	
2.3133	67.1839	3.81692	0	
2.3140	55.9183	0.508923	0	
2.3147	44.2943	-0.445307	0	
2.3153	52.2314	0.190846	0	
2.3160	60.4757	-1.654	0	
2.3167	42.4508	-1.33592	0	
2.3173	8.60282	0.508923	0	
2.3180	-10.6511	-0.763384	0	
2.3187	-21.9167	-0.763384	0	
2.3193	-44.4991	1.39954	0	
2.3200	-61.9095	-0.445307	0	
2.3207	-53.3579	-2.54461	0	
2.3213	-34.4113	0.190846	0	
2.3220	-24.0674	2.60823	0	
2.3227	-22.5312	1.39954	0	
2.3233	-26.4741	-0.763384	0	
2.3240	-33.5407	-2.54461	0	
2.3247	-34.4113	-1.97207	0	
2.3253	-28.9321	1.08146	0	
2.3260	-22.8384	1.39954	0	
2.3267	-17.052	0.508923	0	
2.3273	-10.3439	1.08146	0	
2.3280	-6.65694	0.190846	0	
2.3287	-8.5004	-1.97207	0	
2.3293	-7.57867	-3.49884	0	
2.3300	-0.56328	-1.97207	0	
2.3307	6.75936	1.08146	0	
2.3313	11.368	1.71761	0	
2.3320	13.7747	-0.763384	0	
2.3327	15.9255	-0.445307	0	
2.3333	17.7689	2.60823	0	
2.3340	14.6965	2.9263	0	
2.3347	3.99416	2.29015	0	
2.3353	-8.19316	3.49884	0	
2.3360	-14.9013	3.49884	0	
2.3367	-15.5158	1.97207	0	
2.3373	-11.2656	1.08146	0	
2.3380	-4.19899	1.08146	0	
2.3387	1.89467	1.39954	0	
2.3393	3.43088	0.763384	0	
2.3400	0.972938	-0.763384	0	
2.3407	-0.870523	-0.763384	0	
2.3413	2.20191	-0.763384	0	
2.3420	6.75936	-2.29015	0	
2.3427	8.91006	-0.445307	0	
2.3433	10.7535	2.9263	0	
2.3440	11.624	3.49884	0	
2.3447	9.52455	3.24438	0	
2.3453	10.7535	2.9263	0	
2.3460	16.8472	0.190846	0	
2.3467	16.8472	0.190846	0	
2.3473	12.853	1.39954	0	
2.3480	13.7747	-1.01785	0	
2.3487	12.5458	-1.97207	0	
2.3493	2.8164	1.97207	0	
2.3500	-6.96418	1.97207	0	
2.3507	-8.80764	-0.763384	0	
2.3513	-3.89175	-1.33592	0	
2.3520	3.43088	-3.49884	0	
2.3527	7.37384	-5.59815	0	
2.3533	10.7535	-1.654	0	
2.3540	18.6906	0.190846	0	
2.3547	28.42	-3.49884	0	
2.3553	35.1282	-3.18077	0	
2.3560	31.4925	1.08146	0	
2.3567	10.7535	-0.763384	0	
2.3573	-14.2868	-4.70753	0	
2.3580	-23.4529	-3.81692	0	
2.3587	-18.8443	0.763384	0	
2.3593	-11.2656	4.135	0	
2.3600	3.99416	5.34369	0	
2.3607	28.7273	4.77115	0	
2.3613	50.6952	1.08146	0	
2.3620	54.6893	-1.654	0	
2.3627	39.7368	2.9263	0	
2.3633	18.3834	10.2421	0	
2.3640	-1.48501	9.92399	0	
2.3647	-27.3959	1.97207	0	
2.3653	-56.4304	-7.12492	0	
2.3660	-68.9249	-13.5501	0	
2.3667	-58.8371	-12.6594	0	
2.3673	-42.6556	-6.2343	0	
2.3680	-31.6973	-3.49884	0	
2.3687	-28.0104	-6.55238	0	
2.3693	-29.2393	-8.07914	0	
2.3700	-28.0104	-7.76107	0	
2.3707	-28.0104	-10.4965	0	
2.3713	-33.2335	-13.232	0	
2.3720	-32.0045	-11.7052	0	
2.3727	-20.995	-7.44299	0	
2.3733	-14.2868	-0.763384	0	
2.3740	-13.3651	7.82468	0	
2.3747	-8.80764	12.0869	0	
2.3753	-6.04245	9.35145	0	
2.3760	-10.0366	5.97984	0	
2.3767	-9.72938	3.24438	0	
2.3773	-3.63571	0.190846	0	
2.3780	-2.40674	-0.763384	0	
2.3787	-2.40674	0.508923	0	
2.3793	9.52455	0.190846	0	
2.3800	22.6336	-0.763384	0	
2.3807	19.5612	-2.54461	0	
2.3813	7.0666	-2.86269	0	
2.3820	2.20191	1.08146	0	
2.3827	6.75936	4.77115	0	
2.3833	13.1603	4.135	0	
2.3840	16.8472	2.9263	0	
2.3847	19.5612	1.71761	0	
2.3853	25.706	-0.127231	0	
2.3860	24.1698	0.190846	0	
2.3867	9.2173	-0.445307	0	
2.3873	1.89467	-2.54461	0	
2.3880	13.7747	-1.654	0	
2.3887	26.5766	1.71761	0	
2.3893	26.8838	1.08146	0	
2.3900	21.4046	-0.445307	0	
2.3907	16.8472	-0.127231	0	
2.3913	15.9255	-0.763384	0	
2.3920	15.0037	-1.97207	0	
2.3927	12.2385	-1.33592	0	
2.3933	11.368	-0.445307	0	
2.3940	14.082	-0.763384	0	
2.3947	15.6182	-0.445307	0	
2.3953	13.1603	-1.33592	0	
2.3960	10.4463	-4.07138	0	
2.3967	10.4463	-4.07138	0	
2.3973	10.4463	-1.654	0	
2.3980	3.73813	-1.97207	0	
2.3987	-3.63571	-3.49884	0	
2.3993	-6.96418	-2.54461	0	
2.4000	-19.1515	-2.54461	0	
2.4007	-35.0258	-2.29015	0	
2.4013	-28.9321	1.39954	0	
2.4020	-2.71398	1.97207	0	
2.4027	19.5612	-1.654	0	
2.4033	24.1698	-2.29015	0	
2.4040	12.5458	-1.01785	0	
2.4047	-6.04245	-2.54461	0	
2.4053	-21.6095	-2.86269	0	
2.4060	-34.4113	-1.33592	0	
2.4067	-43.2701	-1.97207	0	
2.4073	-42.6556	-2.29015	0	
2.4080	-36.8692	0.763384	0	
2.4087	-23.4529	2.9263	0	
2.4093	-0.256036	3.24438	0	
2.4100	14.6965	2.60823	0	
2.4107	11.0608	1.08146	0	
2.4113	4.60865	0.763384	0	
2.4120	5.22314	4.45307	0	
2.4127	3.12364	5.66176	0	
2.4133	-7.88591	2.60823	0	
2.4140	-19.766	-0.127231	0	
2.4147	-19.766	-1.01785	0	
2.4153	-8.5004	-2.86269	0	
2.4160	-1.79225	-5.34369	0	
2.4167	-6.04245	-5.34369	0	
2.4173	-12.7506	-3.18077	0	
2.4180	-15.823	-1.97207	0	
2.4187	-14.2868	-3.18077	0	
2.4193	-10.0366	-2.54461	0	
2.4200	-8.5004	-0.763384	0	
2.4207	-12.1361	-0.445307	0	
2.4213	-13.3651	0.190846	0	
2.4220	-9.72938	2.29015	0	
2.4227	-7.57867	3.24438	0	
2.4233	-7.57867	2.9263	0	
2.4240	-5.12072	1.97207	0	
2.4247	-1.79225	0.190846	0	
2.4253	-3.32847	-0.445307	0	
2.4260	-8.19316	0.190846	0	
2.4267	-12.7506	-1.33592	0	
2.4273	-18.8443	-0.445307	0	
2.4280	-22.8384	1.97207	0	
2.4287	-18.281	-0.127231	0	
2.4293	-7.27143	-3.49884	0	
2.4300	1.28018	-1.33592	0	
2.4307	4.60865	0.763384	0	
2.4313	4.91589	-1.97207	0	
2.4320	4.30141	-3.49884	0	
2.4327	3.12364	-1.33592	0	
2.4333	1.58742	-1.33592	0	
2.4340	2.50915	-2.86269	0	
2.4347	5.83763	-2.54461	0	
2.4353	10.4463	-1.01785	0	
2.4360	14.082	-1.654	0	
2.4367	15.311	-2.54461	0	
2.4373	13.1603	-1.654	0	
2.4380	10.139	-0.445307	0	
2.4387	7.68109	-1.654	0	
2.4393	6.75936	-2.54461	0	
2.4400	7.68109	-1.33592	0	
2.4407	5.22314	-0.445307	0	
2.4413	1.58742	-1.01785	0	
2.4420	2.20191	-1.97207	0	
2.4427	0.972938	-2.54461	0	
2.4433	-3.89175	-0.763384	0	
2.4440	-1.48501	2.60823	0	
2.4447	5.53038	1.97207	0	
2.4453	7.37384	-0.763384	0	
2.4460	9.52455	-0.127231	0	
2.4467	14.6965	0.508923	0	
2.4473	13.4675	-2.54461	0	
2.4480	11.368	-5.34369	0	
2.4487	12.853	-3.49884	0	
2.4493	7.68109	-2.29015	0	
2.4500	1.28018	-3.49884	0	
2.4507	6.75936	-4.38946	0	
2.4513	15.0037	-4.07138	0	
2.4520	15.311	-5.59815	0	
2.4527	14.082	-3.18077	0	
2.4533	15.9255	10.5601	0	
2.4540	15.9255	20.6114	0	
2.4547	8.91006	12.405	0	
2.4553	-3.89175	-3.49884	0	
2.4560	-12.4434	-9.92399	0	
2.4567	-11.5216	-7.12492	0	
2.4573	-7.27143	-1.97207	0	
2.4580	3.99416	0.190846	0	
2.4587	28.42	0.508923	0	
2.4593	52.2314	2.60823	0	
2.4600	58.9395	3.24438	0	
2.4607	45.5232	1.08146	0	
2.4613	17.7689	1.08146	0	
2.4620	-9.72938	3.24438	0	
2.4627	-22.5312	2.60823	0	
2.4633	-27.0886	1.08146	0	
2.4640	-30.7755	1.97207	0	
2.4647	-28.0104	2.60823	0	
2.4653	-21.6095	1.97207	0	
2.4660	-21.6095	4.135	0	
2.4667	-26.4741	6.29792	0	
2.4673	-25.6036	4.135	0	
2.4680	-17.3593	1.39954	0	
2.4687	-12.1361	2.9263	0	
2.4693	-12.4434	5.34369	0	
2.4700	-10.6511	4.77115	0	
2.4707	-10.6511	3.81692	0	
2.4713	-24.0674	2.29015	0	
2.4720	-35.6402	1.71761	0	
2.4727	-25.2964	2.9263	0	
2.4733	-4.81348	2.9263	0	
2.4740	4.30141	1.08146	0	
2.4747	3.99416	0.763384	0	
2.4753	4.60865	1.97207	0	
2.4760	3.12364	3.24438	0	
2.4767	0.0512072	4.135	0	
2.4773	4.60865	1.97207	0	
2.4780	13.1603	-0.127231	0	
2.4787	13.1603	2.29015	0	
2.4793	6.45211	4.45307	0	
2.4800	1.28018	1.39954	0	
2.4807	-0.56328	-0.127231	0	
2.4813	0.358451	-0.127231	0	
2.4820	3.12364	-2.54461	0	
2.4827	4.30141	-2.54461	0	
2.4833	7.98833	1.39954	0	
2.4840	15.0037	1.71761	0	
2.4847	17.7689	-0.445307	0	
2.4853	17.7689	-0.127231	0	
2.4860	18.0762	-0.445307	0	
2.4867	13.4675	-4.07138	0	
2.4873	7.37384	-6.55238	0	
2.4880	9.2173	-4.07138	0	
2.4887	10.4463	-0.127231	0	
2.4893	-1.48501	-0.763384	0	
2.4900	-17.9737	-4.38946	0	
2.4907	-23.4529	-5.02561	0	
2.4913	-17.6665	-3.18077	0	
2.4920	-7.27143	-1.33592	0	
2.4927	5.53038	-1.654	0	
2.4933	15.6182	-4.38946	0	
2.4940	27.4983	-3.81692	0	
2.4947	52.2314	0.190846	0	
2.4953	73.892	1.97207	0	
2.4960	66.8767	2.29015	0	
2.4967	43.987	4.77115	0	
2.4973	27.4983	5.02561	0	
2.4980	3.99416	2.60823	0	
2.4987	-31.6973	1.71761	0	
2.4993	-54.5869	1.97207	0	
2.5000	-54.8942	1.71761	0	
2.5007	-44.4991	1.71761	0	
2.5013	-28.9321	1.97207	0	
2.5020	-3.63571	1.08146	0	
2.5027	28.7273	-1.97207	0	
2.5033	54.3821	-3.18077	0	
2.5040	56.2255	1.39954	0	
2.5047	34.8209	4.77115	0	
2.5053	3.99416	2.60823	0	
2.5060	-36.2547	1.39954	0	
2.5067	-78.3983	2.9263	0	
2.5073	-94.5286	2.60823	0	
2.5080	-72.8679	0.190846	0	
2.5087	-42.0411	0.763384	0	
2.5093	-26.4741	1.97207	0	
2.5100	-20.0732	1.08146	0	
2.5107	-10.3439	-1.01785	0	
2.5113	-3.32847	-0.445307	0	
2.5120	-7.57867	2.29015	0	
2.5127	-13.3651	3.24438	0	
2.5133	-17.052	2.60823	0	
2.5140	-25.2964	1.71761	0	
2.5147	-30.7755	1.39954	0	
2.5153	-24.0674	1.39954	0	
2.5160	-11.2656	1.08146	0	
2.5167	-0.56328	1.39954	0	
2.5173	5.83763	1.08146	0	
2.5180	7.68109	-0.763384	0	
2.5187	7.68109	-2.86269	0	
2.5193	6.45211	-2.29015	0	
2.5200	2.50915	0.508923	0	
2.5207	2.50915	1.08146	0	
2.5213	4.30141	-1.654	0	
2.5220	0.358451	-3.49884	0	
2.5227	-1.79225	-1.33592	0	
2.5233	2.20191	1.08146	0	
2.5240	0.358451	0.508923	0	
2.5247	-5.42797	-1.33592	0	
2.5253	-4.50624	-1.654	0	
2.5260	-1.17777	-1.654	0	
2.5267	0.972938	-2.86269	0	
2.5273	5.22314	-5.91622	0	
2.5280	8.91006	-7.76107	0	
2.5287	7.68109	-5.02561	0	
2.5293	7.98833	-2.29015	0	
2.5300	11.368	-2.54461	0	
2.5307	15.9255	-0.763384	0	
2.5313	26.5766	3.24438	0	
2.5320	43.3725	2.9263	0	
2.5327	54.6893	1.71761	0	
2.5333	52.5386	3.24438	0	
2.5340	40.9658	2.9263	0	
2.5347	27.191	4.77115	0	
2.5353	18.0762	11.1327	0	
2.5360	10.139	4.77115	0	
2.5367	-4.81348	-11.1327	0	
2.5373	-20.6877	-14.5043	0	
2.5380	-22.8384	-7.12492	0	
2.5387	-15.2085	-3.49884	0	
2.5393	-6.96418	-1.33592	0	
2.5400	3.43088	-1.01785	0	
2.5407	20.4829	-5.34369	0	
2.5413	33.6432	-7.76107	0	
2.5420	27.8055	-7.12492	0	
2.5427	8.91006	-7.76107	0	
2.5433	0.665694	-10.1785	0	
2.5440	6.14487	-11.7052	0	
2.5447	4.91589	-8.39722	0	
2.5453	-6.04245	1.08146	0	
2.5460	-13.0578	8.39722	0	
2.5467	-17.052	7.50661	0	
2.5473	-20.0732	4.77115	0	
2.5480	-16.4375	3.24438	0	
2.5487	-8.19316	0.508923	0	
2.5493	-3.32847	-2.29015	0	
2.5500	1.89467	-3.49884	0	
2.5507	11.9313	-4.07138	0	
2.5513	20.7901	-4.07138	0	
2.5520	25.0915	-5.02561	0	
2.5527	26.8838	-6.2343	0	
2.5533	26.0133	-5.34369	0	
2.5540	23.2481	-3.81692	0	
2.5547	25.3988	-3.49884	0	
2.5553	28.7273	-4.07138	0	
2.5560	28.42	-4.38946	0	
2.5567	22.6336	-4.38946	0	
2.5573	6.45211	-2.54461	0	
2.5580	-17.9737	-1.33592	0	
2.5587	-33.5407	-1.97207	0	
2.5593	-38.7127	-1.654	0	
2.5600	-45.4208	0.763384	0	
2.5607	-46.3425	0.190846	0	
2.5613	-35.6402	-3.81692	0	
2.5620	-26.7814	-4.07138	0	
2.5627	-20.995	-1.654	0	
2.5633	-9.72938	-2.54461	0	
2.5640	-0.870523	-4.07138	0	
2.5647	0.0512072	-2.29015	0	
2.5653	2.20191	-1.97207	0	
2.5660	4.30141	-5.91622	0	
2.5667	-4.19899	-6.2343	0	
2.5673	-19.4588	-2.54461	0	
2.5680	-29.2393	-1.97207	0	
2.5687	-25.2964	-3.81692	0	
2.5693	-10.9583	-3.18077	0	
2.5700	0.358451	-3.18077	0	
2.5707	2.20191	-4.70753	0	
2.5713	2.20191	-2.54461	0	
2.5720	0.358451	0.508923	0	
2.5727	-8.80764	0.190846	0	
2.5733	-27.0886	0.190846	0	
2.5740	-47.2643	0.763384	0	
2.5747	-53.6652	-0.445307	0	
2.5753	-40.2489	-1.33592	0	
2.5760	-24.0674	-1.01785	0	
2.5767	-17.3593	-2.54461	0	
2.5773	-13.9796	-2.86269	0	
2.5780	-9.72938	-0.763384	0	
2.5787	-6.65694	-0.127231	0	
2.5793	0.0512072	-1.33592	0	
2.5800	7.68109	-0.445307	0	
2.5807	9.52455	0.763384	0	
2.5813	10.7535	-1.01785	0	
2.5820	13.7747	-3.49884	0	
2.5827	13.1603	-4.07138	0	
2.5833	11.9313	-3.49884	0	
2.5840	13.1603	-1.33592	0	
2.5847	13.4675	1.08146	0	
2.5853	9.52455	0.763384	0	
2.5860	7.68109	-1.01785	0	
2.5867	10.4463	-0.763384	0	
2.5873	13.1603	1.39954	0	
2.5880	10.4463	2.9263	0	
2.5887	5.83763	1.97207	0	
2.5893	2.50915	1.08146	0	
2.5900	-2.40674	1.71761	0	
2.5907	-7.27143	1.97207	0	
2.5913	-3.02123	1.08146	0	
2.5920	9.83179	1.08146	0	
2.5927	22.0191	1.97207	0	
2.5933	28.1128	1.08146	0	
2.5940	23.8626	-0.445307	0	
2.5947	6.14487	0.190846	0	
2.5953	-11.5216	-1.01785	0	
2.5960	-15.2085	-3.49884	0	
2.5967	-12.1361	-2.54461	0	
2.5973	-10.6511	-1.01785	0	
2.5980	-5.12072	-3.18077	0	
2.5987	3.12364	-2.86269	0	
2.5993	3.99416	-0.445307	0	
2.6000	4.30141	-3.49884	0	
2.6007	7.98833	-7.44299	0	
2.6013	3.73813	-5.34369	0	
2.6020	-4.19899	-0.763384	0	
2.6027	-4.81348	1.39954	0	
2.6033	-4.81348	3.81692	0	
2.6040	-5.42797	6.55238	0	
2.6047	3.99416	7.18853	0	
2.6053	20.4829	5.66176	0	
2.6060	36.0499	2.60823	0	
2.6067	46.1377	2.60823	0	
2.6073	41.273	8.39722	0	
2.6080	21.7119	10.8782	0	
2.6087	2.8164	1.08146	0	
2.6093	-13.6723	-13.8681	0	
2.6100	-32.3118	-20.8658	0	
2.6107	-39.6344	-16.2855	0	
2.6113	-29.8538	-8.07914	0	
2.6120	-21.6095	-4.70753	0	
2.6127	-24.3746	-5.59815	0	
2.6133	-26.4741	-3.81692	0	
2.6140	-22.5312	-1.33592	0	
2.6147	-17.052	-3.18077	0	
2.6153	-8.19316	-6.2343	0	
2.6160	2.20191	-5.91622	0	
2.6167	5.22314	-6.2343	0	
2.6173	2.50915	-10.1785	0	
2.6180	0.665694	-12.3414	0	
2.6187	-0.870523	-6.2343	0	
2.6193	-0.56328	4.77115	0	
2.6200	1.28018	12.0869	0	
2.6207	-1.79225	9.60591	0	
2.6213	-6.04245	1.71761	0	
2.6220	-6.04245	-2.29015	0	
2.6227	-7.57867	-0.127231	0	
2.6233	-10.6511	0.508923	0	
2.6240	-6.65694	-0.763384	0	
2.6247	-0.870523	0.190846	0	
2.6253	0.0512072	1.97207	0	
2.6260	4.91589	4.45307	0	
2.6267	19.8684	6.55238	0	
2.6273	34.8209	6.55238	0	
2.6280	44.2943	3.81692	0	
2.6287	49.1589	3.81692	0	
2.6293	49.7734	5.66176	0	
2.6300	46.1377	5.02561	0	
2.6307	38.8151	1.71761	0	
2.6313	25.3988	-0.763384	0	
2.6320	3.99416	-0.445307	0	
2.6327	-23.1457	0.190846	0	
2.6333	-47.2643	0.190846	0	
2.6340	-55.5086	2.29015	0	
2.6347	-42.6556	4.135	0	
2.6353	-21.6095	3.24438	0	
2.6360	-7.88591	1.97207	0	
2.6367	1.28018	2.29015	0	
2.6373	10.4463	1.08146	0	
2.6380	14.6965	-0.763384	0	
2.6387	10.7535	0.508923	0	
2.6393	0.358451	3.81692	0	
2.6400	-12.1361	4.135	0	
2.6407	-21.6095	1.08146	0	
2.6413	-23.7602	-1.33592	0	
2.6420	-15.823	-0.763384	0	
2.6427	-0.870523	-0.445307	0	
2.6433	10.4463	-1.654	0	
2.6440	13.1603	-0.763384	0	
2.6447	11.368	0.763384	0	
2.6453	9.52455	-1.97207	0	
2.6460	6.75936	-3.81692	0	
2.6467	1.28018	-0.445307	0	
2.6473	-4.50624	-0.127231	0	
2.6480	-11.8289	-3.49884	0	
2.6487	-23.7602	-0.763384	0	
2.6493	-36.562	2.9263	0	
2.6500	-40.8634	0.763384	0	
2.6507	-35.9475	-0.763384	0	
2.6513	-28.9321	2.29015	0	
2.6520	-24.3746	1.08146	0	
2.6527	-17.9737	-1.654	0	
2.6533	-6.04245	0.190846	0	
2.6540	3.99416	2.9263	0	
2.6547	3.12364	4.77115	0	
2.6553	2.20191	5.34369	0	
2.6560	10.139	4.45307	0	
2.6567	8.60282	3.24438	0	
2.6573	-10.6511	2.60823	0	
2.6580	-22.5312	1.97207	0	
2.6587	-11.5216	3.81692	0	
2.6593	7.68109	3.81692	0	
2.6600	21.4046	1.08146	0	
2.6607	27.8055	1.39954	0	
2.6613	24.1698	4.77115	0	
2.6620	13.4675	2.9263	0	
2.6627	3.12364	1.71761	0	
2.6633	-8.80764	5.02561	0	
2.6640	-27.0886	4.135	0	
2.6647	-36.8692	0.190846	0	
2.6653	-26.7814	1.39954	0	
2.6660	-14.2868	3.81692	0	
2.6667	-9.72938	1.97207	0	
2.6673	1.28018	0.763384	0	
2.6680	15.9255	1.39954	0	
2.6687	19.8684	1.97207	0	
2.6693	18.6906	3.24438	0	
2.6700	15.9255	3.49884	0	
2.6707	0.358451	1.71761	0	
2.6713	-21.6095	1.39954	0	
2.6720	-26.2181	2.29015	0	
2.6727	-10.0366	2.29015	0	
2.6733	7.98833	1.08146	0	
2.6740	14.6965	-0.763384	0	
2.6747	13.7747	-0.445307	0	
2.6753	15.0037	2.60823	0	
2.6760	16.2327	3.81692	0	
2.6767	14.082	3.24438	0	
2.6773	15.6182	3.49884	0	
2.6780	22.0191	2.9263	0	
2.6787	26.3205	1.08146	0	
2.6793	26.0133	2.9263	0	
2.6800	15.6182	4.77115	0	
2.6807	-3.89175	3.81692	0	
2.6813	-15.5158	3.81692	0	
2.6820	-17.052	4.45307	0	
2.6827	-20.0732	2.9263	0	
2.6833	-21.9167	0.763384	0	
2.6840	-16.1303	1.08146	0	
2.6847	-8.5004	0.763384	0	
2.6853	-2.40674	-0.445307	0	
2.6860	3.99416	-1.33592	0	
2.6867	8.60282	-3.49884	0	
2.6873	9.83179	-5.34369	0	
2.6880	10.4463	-2.54461	0	
2.6887	13.4675	1.97207	0	
2.6893	18.3834	2.60823	0	
2.6900	22.0191	1.08146	0	
2.6907	21.0974	-0.445307	0	
2.6913	15.311	-0.763384	0	
2.6920	8.60282	1.97207	0	
2.6927	6.45211	7.18853	0	
2.6933	10.139	8.39722	0	
2.6940	8.60282	1.08146	0	
2.6947	-5.12072	-9.92399	0	
2.6953	-19.766	-12.3414	0	
2.6960	-22.5312	-4.38946	0	
2.6967	-18.8443	2.60823	0	
2.6973	-14.2868	1.97207	0	
2.6980	-3.63571	-1.01785	0	
2.6987	12.2385	-2.54461	0	
2.6993	21.4046	-2.54461	0	
2.7000	21.4046	-2.54461	0	
2.7007	15.311	-3.49884	0	
2.7013	5.53038	-5.59815	0	
2.7020	-8.19316	-5.59815	0	
2.7027	-25.6036	-2.54461	0	
2.7033	-35.333	-1.654	0	
2.7040	-19.4588	-2.29015	0	
2.7047	9.83179	0.190846	0	
2.7053	20.4829	0.763384	0	
2.7060	10.4463	-3.81692	0	
2.7067	2.20191	-7.12492	0	
2.7073	3.12364	-5.59815	0	
2.7080	4.60865	-4.38946	0	
2.7087	-1.17777	-5.59815	0	
2.7093	-13.0578	-6.2343	0	
2.7100	-20.0732	-8.07914	0	
2.7107	-17.052	-10.8146	0	
2.7113	-12.4434	-10.1785	0	
2.7120	-7.88591	-8.96976	0	
2.7127	0.358451	-8.07914	0	
2.7133	5.53038	-1.654	0	
2.7140	5.83763	7.50661	0	
2.7147	7.68109	10.5601	0	
2.7153	6.75936	6.55238	0	
2.7160	2.20191	1.97207	0	
2.7167	1.28018	0.508923	0	
2.7173	3.99416	1.08146	0	
2.7180	3.73813	-0.445307	0	
2.7187	2.8164	-2.54461	0	
2.7193	0.0512072	-3.49884	0	
2.7200	-5.12072	-3.49884	0	
2.7207	-6.65694	-4.70753	0	
2.7213	-4.81348	-4.38946	0	
2.7220	-3.02123	-2.54461	0	
2.7227	3.12364	-3.18077	0	
2.7233	12.2385	-4.07138	0	
2.7240	20.7901	-3.81692	0	
2.7247	31.4925	-5.34369	0	
2.7253	32.4142	-7.12492	0	
2.7260	13.1603	-4.38946	0	
2.7267	-8.80764	-1.97207	0	
2.7273	-16.1303	-3.81692	0	
2.7280	-17.052	-6.2343	0	
2.7287	-13.3651	-6.2343	0	
2.7293	1.58742	-3.49884	0	
2.7300	21.0974	-1.01785	0	
2.7307	28.1128	-0.445307	0	
2.7313	20.7901	-1.97207	0	
2.7320	10.7535	-4.38946	0	
2.7327	-3.63571	-2.54461	0	
2.7333	-28.6248	0.508923	0	
2.7340	-45.1136	-0.127231	0	
2.7347	-34.4113	-1.97207	0	
2.7353	-14.5941	-0.127231	0	
2.7360	-6.96418	-1.01785	0	
2.7367	-4.81348	-5.02561	0	
2.7373	-0.56328	-4.07138	0	
2.7380	1.89467	-3.18077	0	
2.7387	3.12364	-5.91622	0	
2.7393	1.28018	-3.49884	0	
2.7400	-3.02123	0.508923	0	
2.7407	-3.63571	-1.654	0	
2.7413	-6.04245	-2.86269	0	
2.7420	-8.5004	0.508923	0	
2.7427	-1.48501	1.71761	0	
2.7433	5.83763	0.763384	0	
2.7440	3.12364	0.763384	0	
2.7447	0.972938	-0.127231	0	
2.7453	2.8164	-1.654	0	
2.7460	4.60865	-1.97207	0	
2.7467	17.4617	-1.33592	0	
2.7473	37.8934	0.190846	0	
2.7480	44.6015	0.508923	0	
2.7487	34.2064	0.763384	0	
2.7493	17.7689	3.24438	0	
2.7500	-5.12072	5.97984	0	
2.7507	-28.0104	5.97984	0	
2.7513	-37.4837	5.34369	0	
2.7520	-33.2335	5.97984	0	
2.7527	-21.6095	5.34369	0	
2.7533	-8.5004	1.97207	0	
2.7540	-0.56328	-0.127231	0	
2.7547	-1.79225	2.60823	0	
2.7553	-5.73521	4.77115	0	
2.7560	-7.88591	2.9263	0	
2.7567	-10.3439	1.97207	0	
2.7573	-13.3651	2.60823	0	
2.7580	-13.3651	1.08146	0	
2.7587	-7.57867	-0.445307	0	
2.7593	-1.48501	2.29015	0	
2.7600	-4.19899	4.45307	0	
2.7607	-10.3439	1.39954	0	
2.7613	-12.7506	-2.54461	0	
2.7620	-15.2085	-1.654	0	
2.7627	-16.1303	-0.127231	0	
2.7633	-12.7506	-1.654	0	
2.7640	-12.4434	-3.49884	0	
2.7647	-14.9013	-1.33592	0	
2.7653	-10.9583	0.190846	0	
2.7660	-1.79225	-1.01785	0	
2.7667	3.99416	-1.01785	0	
2.7673	5.83763	1.71761	0	
2.7680	5.83763	2.29015	0	
2.7687	5.83763	-0.445307	0	
2.7693	7.68109	-0.763384	0	
2.7700	9.52455	3.81692	0	
2.7707	12.2385	6.29792	0	
2.7713	15.0037	3.81692	0	
2.7720	18.0762	1.97207	0	
2.7727	21.4046	2.9263	0	
2.7733	15.9255	1.71761	0	
2.7740	-2.0995	1.39954	0	
2.7747	-16.4375	4.77115	0	
2.7753	-19.766	4.135	0	
2.7760	-22.8384	-0.763384	0	
2.7767	-26.4741	-0.127231	0	
2.7773	-25.9109	4.77115	0	
2.7780	-20.995	5.97984	0	
2.7787	-8.5004	2.9263	0	
2.7793	6.75936	-5.02561	0	
2.7800	12.2385	-14.5043	0	
2.7807	21.4046	-13.5501	0	
2.7813	42.758	-3.81692	0	
2.7820	47.3667	1.08146	0	
2.7827	28.42	0.190846	0	
2.7833	10.4463	0.508923	0	
2.7840	-6.3497	0.508923	0	
2.7847	-30.4683	-1.01785	0	
2.7853	-41.7339	-0.445307	0	
2.7860	-32.0045	-0.445307	0	
2.7867	-17.052	-2.54461	0	
2.7873	-11.5216	-2.29015	0	
2.7880	-13.3651	-0.127231	0	
2.7887	-14.2868	-0.445307	0	
2.7893	-7.88591	-0.445307	0	
2.7900	2.8164	1.39954	0	
2.7907	10.4463	1.08146	0	
2.7913	10.4463	-1.654	0	
2.7920	6.45211	-3.49884	0	
2.7927	6.75936	-2.54461	0	
2.7933	10.139	-1.33592	0	
2.7940	8.91006	-0.445307	0	
2.7947	7.98833	0.190846	0	
2.7953	11.368	0.190846	0	
2.7960	16.8472	-0.445307	0	
2.7967	28.42	-0.763384	0	
2.7973	39.4296	-0.445307	0	
2.7980	34.2064	0.190846	0	
2.7987	20.4829	1.71761	0	
2.7993	12.853	2.9263	0	
2.8000	3.12364	1.71761	0	
2.8007	-11.8289	0.190846	0	
2.8013	-16.4375	0.763384	0	
2.8020	-7.88591	1.08146	0	
2.8027	-0.256036	0.508923	0	
2.8033	4.91589	2.29015	0	
2.8040	8.60282	2.9263	0	
2.8047	7.68109	0.763384	0	
2.8053	4.60865	-0.127231	0	
2.8060	1.28018	0.763384	0	
2.8067	-7.88591	-1.33592	0	
2.8073	-21.3022	-3.49884	0	
2.8080	-26.2181	-2.29015	0	
2.8087	-19.1515	-0.445307	0	
2.8093	-10.6511	0.190846	0	
2.8100	-6.04245	1.71761	0	
2.8107	-1.79225	1.97207	0	
2.8113	3.12364	0.508923	0	
2.8120	4.30141	0.508923	0	
2.8127	0.0512072	0.763384	0	
2.8133	-5.12072	-2.29015	0	
2.8140	-6.65694	-3.18077	0	
2.8147	-7.88591	1.39954	0	
2.8153	-11.2656	2.9263	0	
2.8160	-10.6511	0.190846	0	
2.8167	-4.19899	0.190846	0	
2.8173	2.20191	1.08146	0	
2.8180	7.68109	-2.54461	0	
2.8187	12.2385	-3.49884	0	
2.8193	14.082	-0.763384	0	
2.8200	12.853	-1.654	0	
2.8207	9.83179	-5.59815	0	
2.8213	8.29557	-5.02561	0	
2.8220	7.0666	-2.29015	0	
2.8227	0.358451	-1.01785	0	
2.8233	-9.72938	-1.654	0	
2.8240	-14.5941	-3.49884	0	
2.8247	-15.2085	-2.86269	0	
2.8253	-10.6511	1.08146	0	
2.8260	-0.56328	2.29015	0	
2.8267	6.14487	0.190846	0	
2.8273	6.14487	-0.127231	0	
2.8280	7.0666	0.508923	0	
2.8287	7.98833	-0.127231	0	
2.8293	8.91006	-0.445307	0	
2.8300	16.8472	0.763384	0	
2.8307	22.6336	2.29015	0	
2.8313	18.0762	1.97207	0	
2.8320	12.853	-1.654	0	
2.8327	11.9313	-4.70753	0	
2.8333	8.60282	-2.86269	0	
2.8340	3.99416	-0.127231	0	
2.8347	0.358451	-0.127231	0	
2.8353	0.358451	0.190846	0	
2.8360	2.20191	-0.127231	0	
2.8367	-6.96418	-0.763384	0	
2.8373	-28.9321	1.97207	0	
2.8380	-41.4779	3.24438	0	
2.8387	-38.4054	-1.01785	0	
2.8393	-37.7909	-2.54461	0	
2.8400	-35.9475	1.71761	0	
2.8407	-19.766	2.9263	0	
2.8413	-0.56328	-0.445307	0	
2.8420	13.1603	-1.654	0	
2.8427	28.7273	-0.445307	0	
2.8433	44.6015	1.08146	0	
2.8440	41.273	1.08146	0	
2.8447	15.6182	-1.33592	0	
2.8453	-13.9796	-2.54461	0	
2.8460	-30.7755	-0.763384	0	
2.8467	-37.1765	0.190846	0	
2.8473	-41.7339	0.508923	0	
2.8480	-43.5774	1.97207	0	
2.8487	-35.333	1.08146	0	
2.8493	-19.1515	-0.445307	0	
2.8500	-0.56328	1.08146	0	
2.8507	22.3264	2.9263	0	
2.8513	47.0595	1.08146	0	
2.8520	57.4033	-0.763384	0	
2.8527	47.3667	-0.763384	0	
2.8533	30.5707	-0.763384	0	
2.8540	6.14487	-1.33592	0	
2.8547	-34.4113	-1.33592	0	
2.8553	-71.6901	-0.763384	0	
2.8560	-75.6331	0.190846	0	
2.8567	-54.8942	-0.763384	0	
2.8573	-34.7185	-1.97207	0	
2.8580	-23.4529	-1.33592	0	
2.8587	-17.6665	-1.01785	0	
2.8593	-13.9796	-1.654	0	
2.8600	-9.11489	0.190846	0	
2.8607	-6.04245	0.190846	0	
2.8613	-4.50624	-2.29015	0	
2.8620	4.30141	-1.97207	0	
2.8627	21.4046	-1.33592	0	
2.8633	29.3417	-3.18077	0	
2.8640	23.2481	-2.54461	0	
2.8647	17.4617	0.190846	0	
2.8653	19.5612	1.71761	0	
2.8660	27.8055	1.97207	0	
2.8667	36.9716	1.39954	0	
2.8673	42.4508	0.190846	0	
2.8680	40.6585	1.39954	0	
2.8687	36.0499	2.29015	0	
2.8693	31.1852	1.08146	0	
2.8700	20.4829	1.39954	0	
2.8707	6.75936	2.29015	0	
2.8713	-1.17777	0.190846	0	
2.8720	-10.0366	-0.127231	0	
2.8727	-24.3746	2.60823	0	
2.8733	-28.9321	2.9263	0	
2.8740	-17.9737	0.190846	0	
2.8747	-7.57867	-0.763384	0	
2.8753	-5.12072	0.508923	0	
2.8760	-10.3439	1.08146	0	
2.8767	-19.4588	1.97207	0	
2.8773	-19.766	4.77115	0	
2.8780	-9.72938	7.50661	0	
2.8787	-5.12072	9.03337	0	
2.8793	0.0512072	7.50661	0	
2.8800	14.3892	2.9263	0	
2.8807	26.5766	0.508923	0	
2.8813	34.8209	3.49884	0	
2.8820	45.216	6.29792	0	
2.8827	38.5078	3.81692	0	
2.8833	9.83179	-5.91622	0	
2.8840	-11.2656	-16.6036	0	
2.8847	-15.2085	-16.2855	0	
2.8853	-15.5158	-6.87045	0	
2.8860	-13.3651	-3.18077	0	
2.8867	-7.27143	-5.02561	0	
2.8873	-3.63571	-4.38946	0	
2.8880	-6.04245	-5.34369	0	
2.8887	-18.281	-8.07914	0	
2.8893	-33.5407	-8.07914	0	
2.8900	-33.5407	-8.07914	0	
2.8907	-17.052	-8.96976	0	
2.8913	2.50915	-7.76107	0	
2.8920	13.7747	-5.59815	0	
2.8927	13.1603	-0.127231	0	
2.8933	6.14487	9.92399	0	
2.8940	0.665694	14.8224	0	
2.8947	-2.40674	10.2421	0	
2.8953	-5.42797	5.66176	0	
2.8960	-5.42797	4.135	0	
2.8967	-2.40674	2.9263	0	
2.8973	-2.40674	1.08146	0	
2.8980	-2.0995	0.763384	0	
2.8987	10.4463	2.29015	0	
2.8993	32.1069	2.9263	0	
2.9000	43.3725	1.71761	0	
2.9007	40.3513	1.08146	0	
2.9013	37.2789	2.60823	0	
2.9020	39.1223	4.45307	0	
2.9027	28.42	5.66176	0	
2.9033	1.28018	3.81692	0	
2.9040	-22.5312	1.71761	0	
2.9047	-36.2547	2.9263	0	
2.9053	-51.2072	3.81692	0	
2.9060	-58.8371	1.08146	0	
2.9067	-44.1918	0.763384	0	
2.9073	-23.7602	2.29015	0	
2.9080	-15.2085	1.39954	0	
2.9087	-12.4434	0.190846	0	
2.9093	-10.6511	-1.33592	0	
2.9100	-12.1361	-1.97207	0	
2.9107	-10.6511	-0.127231	0	
2.9113	-8.80764	1.39954	0	
2.9120	-10.6511	0.190846	0	
2.9127	-9.42213	-1.33592	0	
2.9133	-6.96418	-1.33592	0	
2.9140	-7.88591	-2.29015	0	
2.9147	-0.56328	-3.81692	0	
2.9153	14.6965	-4.38946	0	
2.9160	27.8055	-4.38946	0	
2.9167	36.0499	-3.18077	0	
2.9173	25.706	0.190846	0	
2.9180	-0.256036	1.71761	0	
2.9187	2.20191	-1.654	0	
2.9193	36.9716	-6.2343	0	
2.9200	50.3879	-4.07138	0	
2.9207	34.2064	1.08146	0	
2.9213	20.4829	-0.763384	0	
2.9220	17.7689	-12.6594	0	
2.9227	23.8626	-20.8658	0	
2.9233	36.6644	-16.9217	0	
2.9240	37.5861	-8.39722	0	
2.9247	26.8838	-4.07138	0	
2.9253	18.3834	-2.86269	0	
2.9260	10.7535	-2.54461	0	
2.9267	5.53038	-4.07138	0	
2.9273	7.0666	-5.59815	0	
2.9280	3.12364	-6.87045	0	
2.9287	-7.88591	-7.76107	0	
2.9293	-14.2868	-5.59815	0	
2.9300	-21.3022	-3.49884	0	
2.9307	-31.6973	-3.81692	0	
2.9313	-32.9263	-4.07138	0	
2.9320	-25.6036	-2.86269	0	
2.9327	-23.1457	-1.654	0	
2.9333	-27.3959	-0.127231	0	
2.9340	-35.333	0.508923	0	
2.9347	-40.8634	-1.97207	0	
2.9353	-34.7185	-3.81692	0	
2.9360	-17.9737	-2.54461	0	
2.9367	-3.32847	-0.763384	0	
2.9373	3.99416	-1.01785	0	
2.9380	7.37384	-4.07138	0	
2.9387	8.91006	-8.39722	0	
2.9393	9.83179	-10.8146	0	
2.9400	5.83763	-10.1785	0	
2.9407	-3.32847	-10.1785	0	
2.9413	-9.72938	-9.92399	0	
2.9420	-6.96418	-7.76107	0	
2.9427	4.30141	-1.654	0	
2.9433	19.5612	6.87045	0	
2.9440	25.3988	11.4508	0	
2.9447	17.1544	9.35145	0	
2.9453	13.1603	6.87045	0	
2.9460	15.0037	5.66176	0	
2.9467	8.60282	3.49884	0	
2.9473	4.91589	1.08146	0	
2.9480	15.0037	-0.127231	0	
2.9487	18.0762	-1.33592	0	
2.9493	4.91589	-0.445307	0	
2.9500	-9.42213	1.97207	0	
2.9507	-24.3746	3.81692	0	
2.9513	-43.5774	3.81692	0	
2.9520	-50.9	1.97207	0	
2.9527	-38.0982	-0.763384	0	
2.9533	-22.8384	-1.01785	0	
2.9540	-16.1303	0.190846	0	
2.9547	-11.5216	0.190846	0	
2.9553	-5.42797	-0.445307	0	
2.9560	-1.48501	-0.127231	0	
2.9567	0.358451	0.763384	0	
2.9573	1.28018	-0.763384	0	
2.9580	0.972938	-3.18077	0	
2.9587	1.58742	-2.54461	0	
2.9593	3.12364	0.190846	0	
2.9600	3.99416	2.9263	0	
2.9607	5.53038	5.66176	0	
2.9613	5.83763	5.97984	0	
2.9620	0.358451	2.9263	0	
2.9627	-7.88591	2.9263	0	
2.9633	-10.6511	5.97984	0	
2.9640	-6.04245	2.60823	0	
2.9647	2.20191	-1.654	0	
2.9653	13.7747	1.08146	0	
2.9660	29.649	1.97207	0	
2.9667	46.445	0.508923	0	
2.9673	52.2314	1.97207	0	
