0.0000	-14.4528	-1.64372	1
0.0007	-15.3388	-1.64372	0	
0.0013	-25.1402	-2.28294	0	
0.0020	-30.6223	-2.28294	0	
0.0027	-25.4171	0.182636	0	
0.0033	-20.5441	1.09581	0	
0.0040	-16.8893	-1.36977	0	
0.0047	-10.7981	-3.47007	0	
0.0053	-4.98374	-2.28294	0	
0.0060	-0.11075	-0.730542	0	
0.0067	4.48537	-0.136977	0	
0.0073	5.98049	0.456589	0	
0.0080	7.19874	0.456589	0	
0.0087	8.14011	0.776201	0	
0.0093	6.58961	0.456589	0	
0.0100	6.92186	-2.28294	0	
0.0107	10.2444	-4.1093	0	
0.0113	7.19874	-2.5569	0	
0.0120	-1.60587	-0.136977	0	
0.0127	-7.14336	5.06814	0	
0.0133	-10.7981	5.98131	0	
0.0140	-12.6255	-7.76201	0	
0.0147	-6.20199	-16.3002	0	
0.0153	1.71662	-5.61604	0	
0.0160	2.04887	1.09581	0	
0.0167	-1.329	-4.70286	0	
0.0173	-4.98374	-5.34209	0	
0.0180	-7.14336	-2.87651	0	
0.0187	-0.11075	-3.47007	0	
0.0193	12.7362	2.60256	0	
0.0200	21.264	9.31441	0	
0.0207	28.2966	6.89449	0	
0.0213	33.7787	5.98131	0	
0.0220	31.0099	5.6617	0	
0.0227	27.0783	-1.96333	0	
0.0233	29.7917	-7.4424	0	
0.0240	30.1239	-5.93565	0	
0.0247	19.4366	-4.38325	0	
0.0253	0.498374	-1.64372	0	
0.0260	-18.4398	5.6617	0	
0.0267	-24.808	13.926	0	
0.0273	-19.049	16.6655	0	
0.0280	-14.1206	16.6655	0	
0.0287	-10.7981	20.3182	0	
0.0293	-3.76549	24.5645	0	
0.0300	4.15312	16.6655	0	
0.0307	13.3454	-4.38325	0	
0.0313	23.9773	-23.9253	0	
0.0320	33.1696	-29.45	0	
0.0327	43.8569	-18.1266	0	
0.0333	47.7885	-0.456589	0	
0.0340	32.2282	9.04046	0	
0.0347	10.5766	11.1408	0	
0.0353	-4.37462	13.2867	0	
0.0360	-29.0718	14.8391	0	
0.0367	-59.6388	13.6063	0	
0.0373	-63.9026	11.4604	0	
0.0380	-42.1957	8.12728	0	
0.0387	-25.7493	1.09581	0	
0.0393	-20.8763	-8.08162	0	
0.0400	-18.7167	-15.387	0	
0.0407	-17.4985	-19.0398	0	
0.0413	-17.2216	-18.7658	0	
0.0420	-14.7297	-15.7067	0	
0.0427	-13.8437	-12.0539	0	
0.0433	-17.2216	-10.8212	0	
0.0440	-18.4398	-10.5015	0	
0.0447	-13.8437	-8.35557	0	
0.0453	-3.76549	-7.76201	0	
0.0460	12.1271	-8.9948	0	
0.0467	27.0783	-8.08162	0	
0.0473	32.8373	-6.84883	0	
0.0480	30.1239	-9.26875	0	
0.0487	16.6678	-8.35557	0	
0.0493	-9.24761	-2.28294	0	
0.0500	-26.9676	0.182636	0	
0.0507	-23.922	-1.64372	0	
0.0513	-15.948	0.776201	0	
0.0520	-12.6255	3.83535	0	
0.0527	-8.02936	2.92217	0	
0.0533	-3.48862	2.60256	0	
0.0540	-4.09774	4.74852	0	
0.0547	-9.85673	3.83535	0	
0.0553	-19.049	1.09581	0	
0.0560	-19.3258	-0.456589	0	
0.0567	-1.93812	-0.730542	0	
0.0573	16.6678	-1.64372	0	
0.0580	25.251	-2.5569	0	
0.0587	30.4008	0.182636	0	
0.0593	31.3422	4.42891	0	
0.0600	17.8861	4.74852	0	
0.0607	-4.37462	2.60256	0	
0.0613	-17.4985	2.00899	0	
0.0620	-20.8763	2.00899	0	
0.0627	-28.7949	1.41543	0	
0.0633	-37.6549	0.776201	0	
0.0640	-28.1858	1.68938	0	
0.0647	-7.42024	5.34209	0	
0.0653	0.498374	11.4604	0	
0.0660	-0.387624	16.0263	0	
0.0667	0.2215	18.1722	0	
0.0673	0.498374	17.5787	0	
0.0680	3.87624	15.4327	0	
0.0687	13.0131	11.4604	0	
0.0693	13.9545	6.25527	0	
0.0700	6.92186	-0.730542	0	
0.0707	3.54399	-5.02248	0	
0.0713	6.92186	-4.1093	0	
0.0720	16.391	-4.1093	0	
0.0727	24.9187	-8.08162	0	
0.0733	23.0913	-8.9948	0	
0.0740	20.6548	-4.1093	0	
0.0747	27.6875	2.00899	0	
0.0753	32.5604	2.3286	0	
0.0760	29.5148	0.456589	0	
0.0767	25.251	-0.730542	0	
0.0773	19.1043	-4.38325	0	
0.0780	4.15312	-8.08162	0	
0.0787	-15.3388	-4.38325	0	
0.0793	-28.7949	0.182636	0	
0.0800	-29.0718	-2.5569	0	
0.0807	-23.922	-4.70286	0	
0.0813	-24.5311	1.09581	0	
0.0820	-27.2445	7.48806	0	
0.0827	-22.3715	6.57488	0	
0.0833	-15.6711	-5.34209	0	
0.0840	-13.5115	-18.1266	0	
0.0847	-8.97073	-17.533	0	
0.0853	0.2215	-8.08162	0	
0.0860	6.31274	-2.87651	0	
0.0867	9.35836	-1.64372	0	
0.0873	18.8275	-1.36977	0	
0.0880	32.2282	-3.47007	0	
0.0887	33.1696	-3.78969	0	
0.0893	13.9545	-2.28294	0	
0.0900	-8.36161	-3.19612	0	
0.0907	-12.0164	-4.38325	0	
0.0913	0.498374	-2.28294	0	
0.0920	8.41699	-0.136977	0	
0.0927	4.76224	0.182636	0	
0.0933	-2.215	2.00899	0	
0.0940	-8.97073	4.74852	0	
0.0947	-21.1532	5.06814	0	
0.0953	-37.6549	2.92217	0	
0.0960	-43.137	2.92217	0	
0.0967	-30.9546	3.83535	0	
0.0973	-18.7167	2.00899	0	
0.0980	-20.8763	-1.64372	0	
0.0987	-22.3715	-4.1093	0	
0.0993	-10.7981	-3.78969	0	
0.1000	1.43975	-5.02248	0	
0.1007	6.58961	-10.8212	0	
0.1013	11.1857	-16.3002	0	
0.1020	14.5636	-14.4739	0	
0.1027	12.404	-10.5015	0	
0.1033	9.35836	-8.08162	0	
0.1040	6.92186	-2.5569	0	
0.1047	2.04887	7.2141	0	
0.1053	-2.54725	12.9671	0	
0.1060	-6.81111	12.9671	0	
0.1067	-13.5115	9.95364	0	
0.1073	-16.6125	5.6617	0	
0.1080	-11.6841	1.68938	0	
0.1087	-8.02936	-1.36977	0	
0.1093	-5.31599	-1.64372	0	
0.1100	6.58961	0.456589	0	
0.1107	25.8601	2.60256	0	
0.1113	39.8699	3.24178	0	
0.1120	42.0296	2.92217	0	
0.1127	30.4008	2.60256	0	
0.1133	13.9545	2.60256	0	
0.1140	1.1075	2.3286	0	
0.1147	-15.3388	2.00899	0	
0.1153	-41.9188	1.68938	0	
0.1160	-59.0296	1.09581	0	
0.1167	-52.883	1.68938	0	
0.1173	-37.9318	5.34209	0	
0.1180	-22.9806	6.89449	0	
0.1187	-7.14336	3.51573	0	
0.1193	2.658	5.6617	0	
0.1200	10.2444	14.1999	0	
0.1207	28.9057	19.405	0	
0.1213	43.2478	22.7381	0	
0.1220	32.5604	28.2628	0	
0.1227	15.7818	28.2628	0	
0.1233	13.6222	18.1722	0	
0.1240	16.6678	1.09581	0	
0.1247	13.3454	-17.533	0	
0.1253	4.76224	-26.0712	0	
0.1260	-0.719874	-22.7381	0	
0.1267	6.92186	-19.3594	0	
0.1273	20.6548	-17.533	0	
0.1280	23.9773	-12.9671	0	
0.1287	19.7135	-12.9671	0	
0.1293	16.6678	-18.4462	0	
0.1300	13.9545	-19.679	0	
0.1307	15.1727	-17.2134	0	
0.1313	23.0913	-15.387	0	
0.1320	30.4008	-10.8212	0	
0.1327	31.9513	-5.02248	0	
0.1333	25.251	-1.96333	0	
0.1340	8.14011	0.776201	0	
0.1347	-7.75249	3.51573	0	
0.1353	-6.81111	0.456589	0	
0.1360	0.830624	-6.25527	0	
0.1367	-5.31599	-6.84883	0	
0.1373	-22.7037	-1.64372	0	
0.1380	-31.5637	-0.730542	0	
0.1387	-24.5311	-4.38325	0	
0.1393	-13.2346	-3.47007	0	
0.1400	-6.53424	2.00899	0	
0.1407	-1.93812	1.09581	0	
0.1413	3.87624	-5.93565	0	
0.1420	5.70361	-7.4424	0	
0.1427	0.2215	-4.1093	0	
0.1433	0.2215	-2.5569	0	
0.1440	18.4952	-0.456589	0	
0.1447	43.2478	1.09581	0	
0.1453	61.5215	-2.28294	0	
0.1460	71.932	-2.87651	0	
0.1467	60.6355	3.83535	0	
0.1473	19.1043	9.63402	0	
0.1480	-20.8763	12.6932	0	
0.1487	-34.8862	12.3736	0	
0.1493	-45.9058	0.456589	0	
0.1500	-66.9483	-13.8803	0	
0.1507	-72.1535	-11.1408	0	
0.1513	-54.4335	1.41543	0	
0.1520	-40.0914	4.74852	0	
0.1527	-35.8276	1.68938	0	
0.1533	-26.9676	2.60256	0	
0.1540	-12.6255	4.74852	0	
0.1547	0.830624	3.83535	0	
0.1553	14.2313	2.92217	0	
0.1560	25.5278	3.83535	0	
0.1567	33.1696	4.74852	0	
0.1573	36.8243	4.15496	0	
0.1580	25.8601	2.3286	0	
0.1587	1.71662	3.51573	0	
0.1593	-14.7297	6.25527	0	
0.1600	-21.7623	6.57488	0	
0.1607	-28.7949	4.74852	0	
0.1613	-23.3128	3.24178	0	
0.1620	-3.76549	2.00899	0	
0.1627	7.80786	3.51573	0	
0.1633	8.74923	6.25527	0	
0.1640	10.2444	3.83535	0	
0.1647	9.63523	0.776201	0	
0.1653	6.92186	2.60256	0	
0.1660	2.658	2.92217	0	
0.1667	-3.48862	-0.730542	0	
0.1673	-3.15637	-0.730542	0	
0.1680	-0.719874	4.42891	0	
0.1687	-7.14336	9.31441	0	
0.1693	-8.63848	5.98131	0	
0.1700	2.32575	-2.5569	0	
0.1707	5.70361	-5.93565	0	
0.1713	-5.31599	-3.78969	0	
0.1720	-13.2346	-6.25527	0	
0.1727	-15.3388	-10.5015	0	
0.1733	-14.4528	-10.1819	0	
0.1740	-8.63848	-8.08162	0	
0.1747	-0.11075	-7.16844	0	
0.1753	11.7949	-5.61604	0	
0.1760	27.6875	-2.28294	0	
0.1767	34.9969	5.06814	0	
0.1773	28.5734	12.0539	0	
0.1780	28.5734	13.6063	0	
0.1787	41.6973	10.2276	0	
0.1793	41.0882	5.6617	0	
0.1800	14.8405	2.3286	0	
0.1807	-9.85673	2.00899	0	
0.1813	-15.6711	2.00899	0	
0.1820	-16.2802	-0.730542	0	
0.1827	-18.1076	-3.78969	0	
0.1833	-16.2802	-6.25527	0	
0.1840	-22.7037	-5.61604	0	
0.1847	-44.3553	-2.5569	0	
0.1853	-62.0753	-1.64372	0	
0.1860	-58.6974	-2.5569	0	
0.1867	-45.5735	-0.136977	0	
0.1873	-34.6093	1.09581	0	
0.1880	-21.7623	0.182636	0	
0.1887	-3.48862	1.68938	0	
0.1893	15.7818	1.41543	0	
0.1900	29.5148	-2.5569	0	
0.1907	25.251	-3.78969	0	
0.1913	3.54399	-1.64372	0	
0.1920	-9.57986	-1.64372	0	
0.1927	-1.93812	-4.38325	0	
0.1933	4.48537	-5.34209	0	
0.1940	0.2215	-5.02248	0	
0.1947	-0.719874	-4.70286	0	
0.1953	2.658	-1.64372	0	
0.1960	3.87624	5.6617	0	
0.1967	3.87624	9.95364	0	
0.1973	-0.996748	8.40123	0	
0.1980	-8.97073	5.34209	0	
0.1987	-9.57986	3.24178	0	
0.1993	-6.20199	2.00899	0	
0.2000	-6.20199	4.15496	0	
0.2007	-2.215	9.95364	0	
0.2013	5.37137	14.8391	0	
0.2020	7.53099	13.2867	0	
0.2027	10.5766	-0.730542	0	
0.2033	17.8861	-18.4462	0	
0.2040	21.5408	-21.7793	0	
0.2047	22.15	-11.7343	0	
0.2053	21.264	-3.47007	0	
0.2060	14.8405	-1.05015	0	
0.2067	8.14011	-6.25527	0	
0.2073	2.93487	-15.387	0	
0.2080	-9.85673	-17.2134	0	
0.2087	-25.1402	-9.26875	0	
0.2093	-32.4497	-2.5569	0	
0.2100	-32.1728	2.92217	0	
0.2107	-25.4171	11.78	0	
0.2113	-13.2346	18.4918	0	
0.2120	-2.54725	12.3736	0	
0.2127	2.04887	-3.78969	0	
0.2133	4.15312	-13.5607	0	
0.2140	3.87624	-13.5607	0	
0.2147	4.15312	-13.5607	0	
0.2153	2.93487	-12.9671	0	
0.2160	-6.20199	-6.84883	0	
0.2167	-13.5115	-1.96333	0	
0.2173	-7.75249	-2.87651	0	
0.2180	-2.215	-1.05015	0	
0.2187	-6.20199	6.25527	0	
0.2193	-6.20199	8.72085	0	
0.2200	-0.719874	1.68938	0	
0.2207	3.87624	-8.08162	0	
0.2213	19.7135	-14.4739	0	
0.2220	50.5573	-20.8661	0	
0.2227	72.2089	-30.6371	0	
0.2233	70.7137	-34.6094	0	
0.2240	52.7169	-30.0435	0	
0.2247	24.3096	-23.9253	0	
0.2253	-5.31599	-18.1266	0	
0.2260	-32.4497	-5.34209	0	
0.2267	-59.0296	9.04046	0	
0.2273	-72.1535	15.7523	0	
0.2280	-60.2479	13.6063	0	
0.2287	-38.8732	7.48806	0	
0.2293	-21.7623	1.68938	0	
0.2300	-10.189	-1.64372	0	
0.2307	-7.14336	-2.87651	0	
0.2313	-8.02936	-1.64372	0	
0.2320	-3.48862	2.92217	0	
0.2327	1.1075	5.6617	0	
0.2333	2.04887	6.89449	0	
0.2340	2.93487	9.63402	0	
0.2347	4.48537	9.31441	0	
0.2353	6.58961	3.83535	0	
0.2360	9.96748	0.456589	0	
0.2367	11.1857	1.68938	0	
0.2373	10.2444	1.41543	0	
0.2380	10.2444	1.09581	0	
0.2387	11.1857	2.60256	0	
0.2393	11.1857	4.15496	0	
0.2400	10.5766	4.74852	0	
0.2407	11.1857	2.00899	0	
0.2413	17.6092	-1.96333	0	
0.2420	24.3096	-1.64372	0	
0.2427	26.7461	1.09581	0	
0.2433	34.9969	1.09581	0	
0.2440	50.5573	-1.05015	0	
0.2447	57.8668	-0.456589	0	
0.2453	51.1664	1.09581	0	
0.2460	34.3878	1.41543	0	
0.2467	4.76224	0.182636	0	
0.2473	-26.6353	-0.136977	0	
0.2480	-41.3097	4.15496	0	
0.2487	-47.124	11.78	0	
0.2493	-53.8244	15.4327	0	
0.2500	-48.01	12.9671	0	
0.2507	-29.0718	12.6932	0	
0.2513	-21.4855	13.6063	0	
0.2520	-29.4041	10.8668	0	
0.2527	-33.3911	8.40123	0	
0.2533	-26.9676	8.12728	0	
0.2540	-19.049	6.57488	0	
0.2547	-11.6841	3.83535	0	
0.2553	-3.48862	-5.34209	0	
0.2560	2.93487	-20.5922	0	
0.2567	5.70361	-25.158	0	
0.2573	5.37137	-14.7935	0	
0.2580	2.93487	-7.76201	0	
0.2587	0.2215	-5.34209	0	
0.2593	-4.37462	-0.730542	0	
0.2600	-11.6841	-0.456589	0	
0.2607	-15.6711	-4.1093	0	
0.2613	-12.9024	-2.5569	0	
0.2620	-6.20199	2.00899	0	
0.2627	0.830624	4.74852	0	
0.2633	8.14011	5.06814	0	
0.2640	11.7949	5.06814	0	
0.2647	7.80786	3.83535	0	
0.2653	1.1075	-2.87651	0	
0.2660	-2.215	-8.08162	0	
0.2667	-1.60587	-2.28294	0	
0.2673	0.2215	3.83535	0	
0.2680	2.93487	2.00899	0	
0.2687	6.92186	2.92217	0	
0.2693	10.2444	7.48806	0	
0.2700	12.1271	5.34209	0	
0.2707	15.4496	0.182636	0	
0.2713	19.4366	-2.87651	0	
0.2720	21.5408	-3.47007	0	
0.2727	23.3682	4.42891	0	
0.2733	25.8601	12.9671	0	
0.2740	24.9187	12.9671	0	
0.2747	18.4952	10.2276	0	
0.2753	11.1857	2.3286	0	
0.2760	2.93487	-14.4739	0	
0.2767	-6.53424	-21.7793	0	
0.2773	-12.6255	-14.4739	0	
0.2780	-14.1206	-9.90798	0	
0.2787	-13.5115	-10.8212	0	
0.2793	-9.85673	-7.76201	0	
0.2800	-3.48862	-4.38325	0	
0.2807	2.04887	-2.87651	0	
0.2813	10.2444	2.00899	0	
0.2820	20.6548	6.57488	0	
0.2827	28.9057	5.6617	0	
0.2833	32.5604	5.34209	0	
0.2840	30.4008	12.9671	0	
0.2847	31.9513	23.0577	0	
0.2853	45.9612	22.1446	0	
0.2860	52.0524	11.4604	0	
0.2867	34.9969	1.41543	0	
0.2873	21.8731	-7.16844	0	
0.2880	17.6092	-16.3002	0	
0.2887	-5.31599	-21.7793	0	
0.2893	-37.6549	-19.3594	0	
0.2900	-50.1697	-9.26875	0	
0.2907	-46.1827	0.456589	0	
0.2913	-34.6093	-0.136977	0	
0.2920	-20.8763	-4.70286	0	
0.2927	-16.8893	-1.64372	0	
0.2933	-15.062	2.92217	0	
0.2940	0.830624	2.60256	0	
0.2947	20.0457	2.92217	0	
0.2953	23.3682	3.83535	0	
0.2960	9.63523	2.3286	0	
0.2967	-8.97073	2.3286	0	
0.2973	-19.6581	4.42891	0	
0.2980	-21.4855	3.24178	0	
0.2987	-24.5311	2.00899	0	
0.2993	-29.0718	3.51573	0	
0.3000	-26.6353	5.06814	0	
0.3007	-19.3258	4.15496	0	
0.3013	-16.2802	2.00899	0	
0.3020	-19.049	1.41543	0	
0.3027	-20.8763	4.15496	0	
0.3033	-19.935	3.83535	0	
0.3040	-19.3258	1.68938	0	
0.3047	-21.4855	4.74852	0	
0.3053	-18.4398	6.57488	0	
0.3060	-6.20199	3.24178	0	
0.3067	6.58961	3.83535	0	
0.3073	10.8535	4.74852	0	
0.3080	6.92186	0.182636	0	
0.3087	1.1075	-2.5569	0	
0.3093	-0.719874	-0.730542	0	
0.3100	2.32575	0.776201	0	
0.3107	3.54399	3.51573	0	
0.3113	1.1075	4.74852	0	
0.3120	2.04887	2.00899	0	
0.3127	5.37137	2.3286	0	
0.3133	3.26712	4.74852	0	
0.3140	0.830624	3.24178	0	
0.3147	4.48537	1.68938	0	
0.3153	7.53099	1.68938	0	
0.3160	5.70361	1.41543	0	
0.3167	2.93487	1.68938	0	
0.3173	2.93487	0.456589	0	
0.3180	6.58961	-0.730542	0	
0.3187	8.41699	1.09581	0	
0.3193	4.15312	2.00899	0	
0.3200	-1.60587	-1.96333	0	
0.3207	-4.09774	-2.28294	0	
0.3213	-6.20199	3.83535	0	
0.3220	-8.02936	4.42891	0	
0.3227	-2.215	-1.64372	0	
0.3233	5.98049	-1.96333	0	
0.3240	6.58961	4.15496	0	
0.3247	6.31274	5.6617	0	
0.3253	11.1857	5.34209	0	
0.3260	15.4496	7.2141	0	
0.3267	20.0457	4.42891	0	
0.3273	32.8373	-2.28294	0	
0.3280	42.3064	-5.61604	0	
0.3287	35.8829	-8.08162	0	
0.3293	20.9317	-9.58836	0	
0.3300	8.74923	-5.34209	0	
0.3307	3.26712	-1.05015	0	
0.3313	-1.60587	-0.730542	0	
0.3320	-15.948	1.09581	0	
0.3327	-30.9546	2.92217	0	
0.3333	-29.4041	1.09581	0	
0.3340	-25.4171	1.09581	0	
0.3347	-35.4953	2.3286	0	
0.3353	-40.9774	1.09581	0	
0.3360	-29.4041	-1.05015	0	
0.3367	-15.3388	-0.136977	0	
0.3373	-8.63848	3.83535	0	
0.3380	-4.70687	9.63402	0	
0.3387	-2.87949	13.6063	0	
0.3393	-2.87949	13.2867	0	
0.3400	-3.48862	12.6932	0	
0.3407	-2.54725	10.5472	0	
0.3413	0.2215	1.68938	0	
0.3420	0.498374	-6.84883	0	
0.3427	-0.719874	-5.34209	0	
0.3433	1.71662	0.182636	0	
0.3440	3.87624	-3.47007	0	
0.3447	3.54399	-13.2411	0	
0.3453	2.93487	-18.7658	0	
0.3460	-3.48862	-16.3002	0	
0.3467	-14.7297	-10.1819	0	
0.3473	-14.7297	-4.38325	0	
0.3480	-4.37462	0.776201	0	
0.3487	0.2215	1.09581	0	
0.3493	-0.11075	-9.58836	0	
0.3500	2.32575	-21.7793	0	
0.3507	2.32575	-18.1266	0	
0.3513	-0.996748	-5.34209	0	
0.3520	-2.54725	-0.456589	0	
0.3527	0.2215	0.182636	0	
0.3533	3.26712	2.92217	0	
0.3540	6.31274	-0.136977	0	
0.3547	8.74923	-8.08162	0	
0.3553	11.1857	-11.7343	0	
0.3560	10.2444	-12.0539	0	
0.3567	1.43975	-10.8212	0	
0.3573	-8.97073	-8.9948	0	
0.3580	-9.57986	-8.9948	0	
0.3587	-1.329	-6.25527	0	
0.3593	3.87624	5.6617	0	
0.3600	5.09449	15.7523	0	
0.3607	11.7949	15.7523	0	
0.3613	24.5865	10.2276	0	
0.3620	38.6517	4.74852	0	
0.3627	56.3716	1.09581	0	
0.3633	75.2545	0.456589	0	
0.3640	82.6194	1.09581	0	
0.3647	70.7137	2.00899	0	
0.3653	37.1012	2.92217	0	
0.3660	-8.97073	1.68938	0	
0.3667	-46.5149	0.182636	0	
0.3673	-67.5574	-2.5569	0	
0.3680	-73.9809	-17.533	0	
0.3687	-59.3065	-39.4949	0	
0.3693	-35.2184	-47.4396	0	
0.3700	-22.7037	-43.4673	0	
0.3707	-18.1076	-36.4358	0	
0.3713	-12.0164	-23.6513	0	
0.3720	-14.4528	-10.8212	0	
0.3727	-21.4855	2.92217	0	
0.3733	-19.3258	30.3632	0	
0.3740	-15.948	56.0234	0	
0.3747	-18.1076	49.6312	0	
0.3753	-22.0946	20.9118	0	
0.3760	-26.3585	5.06814	0	
0.3767	-27.2445	9.31441	0	
0.3773	-23.3128	16.3459	0	
0.3780	-19.049	17.5787	0	
0.3787	-13.5115	17.5787	0	
0.3793	-6.20199	18.4918	0	
0.3800	-2.54725	14.8391	0	
0.3807	1.71662	3.83535	0	
0.3813	7.53099	-7.16844	0	
0.3820	10.8535	-15.7067	0	
0.3827	13.9545	-19.0398	0	
0.3833	17.0001	-15.387	0	
0.3840	13.6222	-10.5015	0	
0.3847	6.58961	-9.90798	0	
0.3853	4.76224	-10.1819	0	
0.3860	6.58961	-10.1819	0	
0.3867	7.19874	-11.4147	0	
0.3873	3.26712	-9.58836	0	
0.3880	-2.54725	-5.61604	0	
0.3887	-3.15637	-4.70286	0	
0.3893	-0.719874	-3.47007	0	
0.3900	-2.87949	0.182636	0	
0.3907	-8.02936	2.92217	0	
0.3913	-9.85673	2.00899	0	
0.3920	-8.97073	0.776201	0	
0.3927	-5.31599	0.182636	0	
0.3933	-0.11075	0.776201	0	
0.3940	8.14011	5.06814	0	
0.3947	22.15	11.4604	0	
0.3953	31.0099	12.9671	0	
0.3960	24.3096	11.4604	0	
0.3967	14.8405	15.1131	0	
0.3973	15.7818	19.405	0	
0.3980	22.15	17.5787	0	
0.3987	25.8601	10.2276	0	
0.3993	29.1826	-0.456589	0	
0.4000	32.2282	-10.8212	0	
0.4007	29.5148	-17.2134	0	
0.4013	15.4496	-18.4462	0	
0.4020	1.1075	-10.5015	0	
0.4027	1.1075	0.456589	0	
0.4033	-1.93812	-4.38325	0	
0.4040	-21.7623	-23.0121	0	
0.4047	-35.4953	-30.0435	0	
0.4053	-28.7949	-19.9529	0	
0.4060	-21.4855	-9.26875	0	
0.4067	-20.8763	-5.34209	0	
0.4073	-15.3388	-2.87651	0	
0.4080	-5.59287	-1.05015	0	
0.4087	1.1075	-3.47007	0	
0.4093	5.98049	-5.02248	0	
0.4100	13.0131	-3.19612	0	
0.4107	21.5408	-5.02248	0	
0.4113	27.6875	-6.84883	0	
0.4120	28.5734	-2.28294	0	
0.4127	28.2966	-0.456589	0	
0.4133	31.3422	-2.28294	0	
0.4140	34.6647	0.182636	0	
0.4147	27.9643	0.182636	0	
0.4153	13.9545	-5.34209	0	
0.4160	-1.60587	-3.78969	0	
0.4167	-20.5441	2.00899	0	
0.4173	-32.7819	0.182636	0	
0.4180	-16.8893	-2.87651	0	
0.4187	18.2183	-3.78969	0	
0.4193	35.8829	-6.52922	0	
0.4200	22.4822	-5.61604	0	
0.4207	-10.4659	-1.36977	0	
0.4213	-44.6875	1.09581	0	
0.4220	-62.6844	7.48806	0	
0.4227	-59.6388	17.2591	0	
0.4233	-45.2967	16.6655	0	
0.4240	-26.9676	9.04046	0	
0.4247	-12.9024	6.57488	0	
0.4253	-11.4072	7.80767	0	
0.4260	-12.2932	7.48806	0	
0.4267	-6.20199	9.04046	0	
0.4273	1.1075	9.31441	0	
0.4280	5.37137	5.34209	0	
0.4287	6.92186	2.3286	0	
0.4293	0.2215	3.83535	0	
0.4300	-14.7297	4.42891	0	
0.4307	-33.6679	2.00899	0	
0.4313	-51.3879	0.182636	0	
0.4320	-55.3195	0.456589	0	
0.4327	-39.1501	0.182636	0	
0.4333	-20.5441	-0.456589	0	
0.4340	-11.075	0.182636	0	
0.4347	-6.53424	0.182636	0	
0.4353	-4.09774	-1.96333	0	
0.4360	-2.87949	-3.78969	0	
0.4367	-2.215	-3.78969	0	
0.4373	-4.09774	-4.1093	0	
0.4380	-4.70687	-3.47007	0	
0.4387	-0.719874	-2.5569	0	
0.4393	2.658	-3.78969	0	
0.4400	3.26712	-3.19612	0	
0.4407	5.98049	1.09581	0	
0.4413	7.19874	2.00899	0	
0.4420	5.09449	0.456589	0	
0.4427	7.80786	1.09581	0	
0.4433	13.9545	0.776201	0	
0.4440	13.9545	-2.28294	0	
0.4447	9.35836	-3.47007	0	
0.4453	5.70361	-3.19612	0	
0.4460	5.98049	-1.36977	0	
0.4467	12.1271	0.776201	0	
0.4473	21.264	0.456589	0	
0.4480	26.7461	-0.730542	0	
0.4487	28.5734	0.182636	0	
0.4493	33.1696	1.09581	0	
0.4500	43.5247	2.00899	0	
0.4507	54.8212	2.00899	0	
0.4513	55.7625	-1.05015	0	
0.4520	38.6517	-3.19612	0	
0.4527	13.9545	-2.5569	0	
0.4533	-0.996748	-1.36977	0	
0.4540	-8.63848	1.41543	0	
0.4547	-22.0946	4.15496	0	
0.4553	-35.4953	3.83535	0	
0.4560	-30.6223	2.92217	0	
0.4567	-4.70687	2.60256	0	
0.4573	15.4496	1.09581	0	
0.4580	-2.87949	-0.456589	0	
0.4587	-44.9644	3.24178	0	
0.4593	-62.0753	13.2867	0	
0.4600	-46.7918	20.6378	0	
0.4607	-31.5637	14.1999	0	
0.4613	-19.6581	6.25527	0	
0.4620	-5.31599	12.0539	0	
0.4627	2.04887	18.7658	0	
0.4633	2.93487	13.2867	0	
0.4640	2.93487	6.57488	0	
0.4647	0.498374	3.83535	0	
0.4653	2.32575	1.09581	0	
0.4660	10.8535	1.09581	0	
0.4667	13.9545	1.68938	0	
0.4673	10.2444	-3.47007	0	
0.4680	4.15312	-8.35557	0	
0.4687	-4.37462	-8.08162	0	
0.4693	-8.97073	-8.08162	0	
0.4700	-5.59287	-12.6475	0	
0.4707	-3.48862	-16.9394	0	
0.4713	-2.54725	-13.8803	0	
0.4720	1.43975	-4.1093	0	
0.4727	4.76224	2.92217	0	
0.4733	7.80786	0.182636	0	
0.4740	11.518	-3.47007	0	
0.4747	11.518	0.182636	0	
0.4753	10.5766	3.83535	0	
0.4760	16.391	2.92217	0	
0.4767	26.4692	5.6617	0	
0.4773	36.8243	5.6617	0	
0.4780	48.1208	-7.4424	0	
0.4787	55.1534	-18.7658	0	
0.4793	52.3847	-11.7343	0	
0.4800	44.466	-2.28294	0	
0.4807	30.4008	-2.5569	0	
0.4813	3.87624	-3.47007	0	
0.4820	-20.8763	-1.05015	0	
0.4827	-25.4171	-1.96333	0	
0.4833	-14.7297	-2.28294	0	
0.4840	-3.48862	0.182636	0	
0.4847	3.87624	0.456589	0	
0.4853	5.70361	-0.456589	0	
0.4860	1.1075	1.09581	0	
0.4867	-9.85673	2.3286	0	
0.4873	-23.3128	1.41543	0	
0.4880	-27.2445	5.06814	0	
0.4887	-19.049	13.6063	0	
0.4893	-10.4659	15.7523	0	
0.4900	-1.60587	9.04046	0	
0.4907	11.7949	0.182636	0	
0.4913	15.7818	-6.25527	0	
0.4920	8.41699	-6.52922	0	
0.4927	7.19874	-1.36977	0	
0.4933	9.35836	2.3286	0	
0.4940	6.58961	1.41543	0	
0.4947	8.74923	1.41543	0	
0.4953	14.8405	2.00899	0	
0.4960	10.2444	1.09581	0	
0.4967	0.830624	0.776201	0	
0.4973	1.71662	1.41543	0	
0.4980	15.4496	0.182636	0	
0.4987	33.7787	-1.36977	0	
0.4993	44.7429	-0.136977	0	
0.5000	46.2934	3.83535	0	
0.5007	46.5703	5.6617	0	
0.5013	40.4791	1.68938	0	
0.5020	22.7591	-2.87651	0	
0.5027	5.09449	-1.96333	0	
0.5033	-15.3388	0.776201	0	
0.5040	-49.8374	1.09581	0	
0.5047	-74.8669	0.776201	0	
0.5053	-69.6616	0.456589	0	
0.5060	-54.7104	-0.136977	0	
0.5067	-45.9058	0.776201	0	
0.5073	-35.4953	2.60256	0	
0.5080	-24.5311	2.3286	0	
0.5087	-17.2216	1.41543	0	
0.5093	-11.6841	1.09581	0	
0.5100	-12.6255	1.09581	0	
0.5107	-19.6581	-0.456589	0	
0.5113	-21.4855	-1.64372	0	
0.5120	-19.049	-0.730542	0	
0.5127	-22.7037	-0.136977	0	
0.5133	-28.1858	-1.96333	0	
0.5140	-26.3585	-0.730542	0	
0.5147	-17.2216	3.24178	0	
0.5153	-8.02936	3.51573	0	
0.5160	-2.54725	0.456589	0	
0.5167	-0.11075	0.182636	0	
0.5173	2.04887	-0.730542	0	
0.5180	3.87624	-6.84883	0	
0.5187	5.70361	-10.8212	0	
0.5193	4.76224	-5.61604	0	
0.5200	0.498374	2.92217	0	
0.5207	-2.87949	4.42891	0	
0.5213	-1.329	-3.19612	0	
0.5220	-1.329	-7.4424	0	
0.5227	-8.02936	-4.38325	0	
0.5233	-14.4528	-5.34209	0	
0.5240	-17.2216	-8.9948	0	
0.5247	-18.1076	-6.52922	0	
0.5253	-13.5115	-2.5569	0	
0.5260	-3.48862	-3.47007	0	
0.5267	5.70361	-5.34209	0	
0.5273	13.9545	-6.84883	0	
0.5280	17.8861	-8.9948	0	
0.5287	14.2313	-6.52922	0	
0.5293	10.5766	-2.5569	0	
0.5300	11.518	-2.5569	0	
0.5307	12.7362	-2.5569	0	
0.5313	14.2313	-0.136977	0	
0.5320	17.0001	-0.730542	0	
0.5327	21.5408	-3.78969	0	
0.5333	34.3878	-1.96333	0	
0.5340	50.5573	3.51573	0	
0.5347	51.7755	2.92217	0	
0.5353	36.4921	-2.87651	0	
0.5360	18.8275	-6.84883	0	
0.5367	3.54399	-6.52922	0	
0.5373	-18.7167	-5.93565	0	
0.5380	-41.9188	-6.25527	0	
0.5387	-44.6875	-6.52922	0	
0.5393	-26.9676	-5.34209	0	
0.5400	-8.36161	-2.5569	0	
0.5407	7.80786	-1.05015	0	
0.5413	23.3682	0.182636	0	
0.5420	27.6875	1.09581	0	
0.5427	22.15	1.68938	0	
0.5433	17.277	2.00899	0	
0.5440	6.58961	1.41543	0	
0.5447	-8.63848	-0.730542	0	
0.5453	-16.2802	-0.730542	0	
0.5460	-20.8763	4.74852	0	
0.5467	-29.0718	12.0539	0	
0.5473	-35.4953	12.6932	0	
0.5480	-34.0002	2.00899	0	
0.5487	-19.935	-8.35557	0	
0.5493	5.09449	-7.16844	0	
0.5500	26.137	0.182636	0	
0.5507	34.9969	2.92217	0	
0.5513	30.7331	3.24178	0	
0.5520	9.35836	2.92217	0	
0.5527	-15.6711	-0.730542	0	
0.5533	-17.8307	-3.78969	0	
0.5540	-3.15637	-5.02248	0	
0.5547	2.04887	-6.52922	0	
0.5553	-4.37462	-7.16844	0	
0.5560	-13.8437	-7.16844	0	
0.5567	-19.3258	-6.25527	0	
0.5573	-14.4528	-1.36977	0	
0.5580	-9.85673	6.57488	0	
0.5587	-21.7623	12.0539	0	
0.5593	-35.2184	14.8391	0	
0.5600	-28.1858	19.405	0	
0.5607	-10.7981	26.1169	0	
0.5613	-3.76549	29.45	0	
0.5620	-3.48862	23.6513	0	
0.5627	2.04887	11.1408	0	
0.5633	8.74923	-2.5569	0	
0.5640	6.58961	-14.1543	0	
0.5647	-1.93812	-20.5922	0	
0.5653	-7.75249	-16.9394	0	
0.5660	-12.6255	-5.34209	0	
0.5667	-17.2216	4.42891	0	
0.5673	-13.2346	8.40123	0	
0.5680	-2.54725	10.2276	0	
0.5687	2.93487	7.48806	0	
0.5693	1.71662	1.09581	0	
0.5700	-0.719874	-1.64372	0	
0.5707	-1.93812	2.00899	0	
0.5713	-1.93812	4.74852	0	
0.5720	-0.387624	5.98131	0	
0.5727	1.1075	5.06814	0	
0.5733	3.54399	-0.730542	0	
0.5740	7.80786	-4.38325	0	
0.5747	10.2444	-2.5569	0	
0.5753	10.5766	-4.70286	0	
0.5760	13.3454	-10.5015	0	
0.5767	15.7818	-10.5015	0	
0.5773	12.1271	-12.6475	0	
0.5780	5.37137	-22.7381	0	
0.5787	-0.387624	-24.2449	0	
0.5793	-6.20199	-13.8803	0	
0.5800	-8.63848	-8.67519	0	
0.5807	-5.31599	-8.08162	0	
0.5813	-0.719874	-3.47007	0	
0.5820	8.41699	-0.730542	0	
0.5827	27.6875	-1.64372	0	
0.5833	45.0752	-2.28294	0	
0.5840	49.9482	-1.36977	0	
0.5847	41.4204	-1.64372	0	
0.5853	19.7135	-6.25527	0	
0.5860	2.32575	-8.9948	0	
0.5867	0.830624	-1.05015	0	
0.5873	-8.63848	5.06814	0	
0.5880	-31.5637	-2.87651	0	
0.5887	-31.8406	-9.90798	0	
0.5893	-7.14336	-6.84883	0	
0.5900	6.31274	-4.1093	0	
0.5907	5.70361	-1.96333	0	
0.5913	15.7818	3.83535	0	
0.5920	33.4464	5.98131	0	
0.5927	43.8569	4.74852	0	
0.5933	42.9155	5.6617	0	
0.5940	24.3096	5.6617	0	
0.5947	-11.075	2.92217	0	
0.5953	-40.0914	1.09581	0	
0.5960	-44.0784	1.09581	0	
0.5967	-27.8536	4.42891	0	
0.5973	-3.76549	11.78	0	
0.5980	13.0131	17.8526	0	
0.5987	9.63523	14.1999	0	
0.5993	-5.31599	-2.87651	0	
0.6000	-16.2802	-21.7793	0	
0.6007	-29.6809	-22.7381	0	
0.6013	-46.1827	-9.26875	0	
0.6020	-51.6648	-1.05015	0	
0.6027	-46.7918	-1.96333	0	
0.6033	-38.8732	-2.87651	0	
0.6040	-26.0262	-3.19612	0	
0.6047	-15.3388	-5.34209	0	
0.6053	-12.9024	-6.25527	0	
0.6060	-10.7981	-4.38325	0	
0.6067	-9.24761	-3.47007	0	
0.6073	-11.6841	-2.5569	0	
0.6080	-8.97073	-0.136977	0	
0.6087	-1.93812	1.68938	0	
0.6093	4.15312	2.00899	0	
0.6100	12.1271	2.3286	0	
0.6107	13.3454	2.92217	0	
0.6113	3.87624	0.776201	0	
0.6120	0.2215	-1.64372	0	
0.6127	4.76224	0.182636	0	
0.6133	4.15312	3.83535	0	
0.6140	4.48537	5.6617	0	
0.6147	10.5766	5.6617	0	
0.6153	14.8405	4.15496	0	
0.6160	16.0587	1.68938	0	
0.6167	18.8275	2.00899	0	
0.6173	21.264	3.24178	0	
0.6180	25.5278	1.09581	0	
0.6187	32.2282	-0.730542	0	
0.6193	33.1696	-1.64372	0	
0.6200	26.7461	-5.61604	0	
0.6207	20.6548	-7.76201	0	
0.6213	19.7135	-3.78969	0	
0.6220	14.8405	-1.64372	0	
0.6227	-1.93812	-0.136977	0	
0.6233	-22.0946	7.80767	0	
0.6240	-34.0002	14.5195	0	
0.6247	-35.4953	14.1999	0	
0.6253	-26.3585	11.1408	0	
0.6260	-11.6841	6.57488	0	
0.6267	-5.92511	2.92217	0	
0.6273	-6.20199	3.83535	0	
0.6280	0.830624	3.83535	0	
0.6287	10.5766	2.60256	0	
0.6293	10.5766	4.42891	0	
0.6300	8.74923	5.6617	0	
0.6307	15.1727	1.68938	0	
0.6313	23.0913	-2.28294	0	
0.6320	26.7461	-0.730542	0	
0.6327	29.7917	2.3286	0	
0.6333	33.1696	2.00899	0	
0.6340	28.5734	2.00899	0	
0.6347	7.80786	1.68938	0	
0.6353	-20.5441	-2.28294	0	
0.6360	-35.4953	-3.78969	0	
0.6367	-33.0588	-1.05015	0	
0.6373	-28.1858	-1.96333	0	
0.6380	-21.4855	-4.38325	0	
0.6387	-4.37462	-2.5569	0	
0.6393	11.1857	-1.64372	0	
0.6400	13.9545	-4.38325	0	
0.6407	10.2444	-3.19612	0	
0.6413	7.53099	-0.730542	0	
0.6420	1.71662	-1.36977	0	
0.6427	-4.37462	0.182636	0	
0.6433	-5.92511	2.60256	0	
0.6440	-6.53424	1.41543	0	
0.6447	-11.075	-0.730542	0	
0.6453	-14.4528	-3.19612	0	
0.6460	-12.6255	-5.93565	0	
0.6467	-8.97073	-6.52922	0	
0.6473	-6.20199	-1.36977	0	
0.6480	1.1075	4.74852	0	
0.6487	9.35836	1.68938	0	
0.6493	11.518	-6.52922	0	
0.6500	12.7362	-8.08162	0	
0.6507	16.6678	-4.1093	0	
0.6513	17.6092	-1.05015	0	
0.6520	13.9545	2.92217	0	
0.6527	8.41699	8.12728	0	
0.6533	6.31274	9.63402	0	
0.6540	8.74923	7.2141	0	
0.6547	13.0131	1.41543	0	
0.6553	20.0457	-3.47007	0	
0.6560	41.6973	-4.38325	0	
0.6567	74.3685	-6.25527	0	
0.6573	88.9875	-13.5607	0	
0.6580	71.5997	-20.2725	0	
0.6587	34.3878	-19.0398	0	
0.6593	-9.85673	-10.5015	0	
0.6600	-55.3195	-3.47007	0	
0.6607	-90.7595	0.182636	0	
0.6613	-98.6781	8.40123	0	
0.6620	-78.8539	22.1446	0	
0.6627	-52.6062	30.3632	0	
0.6633	-32.7819	28.2628	0	
0.6640	-17.2216	19.7246	0	
0.6647	-11.4072	9.31441	0	
0.6653	-18.7167	-0.730542	0	
0.6660	-21.4855	-12.0539	0	
0.6667	-10.4659	-17.533	0	
0.6673	-5.59287	-8.67519	0	
0.6680	-17.2216	-3.19612	0	
0.6687	-29.0718	-19.3594	0	
0.6693	-30.6223	-36.7554	0	
0.6700	-26.9676	-33.1027	0	
0.6707	-23.3128	-19.679	0	
0.6713	-20.2672	-8.9948	0	
0.6720	-19.049	-2.87651	0	
0.6727	-19.6581	-2.5569	0	
0.6733	-21.4855	-2.87651	0	
0.6740	-17.8307	0.456589	0	
0.6747	-4.37462	1.68938	0	
0.6753	8.14011	0.776201	0	
0.6760	5.37137	2.92217	0	
0.6767	-3.48862	4.42891	0	
0.6773	-2.87949	2.92217	0	
0.6780	5.37137	2.92217	0	
0.6787	11.1857	4.15496	0	
0.6793	20.6548	5.98131	0	
0.6800	39.5931	7.48806	0	
0.6807	57.8668	4.74852	0	
0.6813	64.5671	-1.36977	0	
0.6820	52.9938	-5.34209	0	
0.6827	24.9187	-4.38325	0	
0.6833	0.2215	-3.47007	0	
0.6840	-8.63848	-6.52922	0	
0.6847	-14.4528	-9.26875	0	
0.6853	-20.8763	-6.25527	0	
0.6860	-18.1076	-1.36977	0	
0.6867	-13.5115	-1.64372	0	
0.6873	-12.9024	0.182636	0	
0.6880	-7.14336	10.2276	0	
0.6887	2.658	16.3459	0	
0.6893	6.58961	9.63402	0	
0.6900	10.5766	3.83535	0	
0.6907	16.6678	7.2141	0	
0.6913	20.0457	10.2276	0	
0.6920	21.264	5.98131	0	
0.6927	17.6092	3.24178	0	
0.6933	7.53099	2.60256	0	
0.6940	1.1075	-1.05015	0	
0.6947	-1.93812	-2.87651	0	
0.6953	-12.0164	-0.456589	0	
0.6960	-26.0262	-1.64372	0	
0.6967	-37.0458	-2.5569	0	
0.6973	-43.4139	4.15496	0	
0.6980	-40.0914	9.31441	0	
0.6987	-25.4171	5.06814	0	
0.6993	-7.75249	1.09581	0	
0.7000	13.3454	1.68938	0	
0.7007	41.4204	2.3286	0	
0.7013	58.199	1.09581	0	
0.7020	48.1208	-2.5569	0	
0.7027	26.137	-7.4424	0	
0.7033	12.404	-6.25527	0	
0.7040	5.37137	1.09581	0	
0.7047	-3.48862	3.83535	0	
0.7053	-12.6255	-0.136977	0	
0.7060	-9.85673	-4.1093	0	
0.7067	10.5766	-3.78969	0	
0.7073	35.8829	-2.28294	0	
0.7080	43.2478	-1.64372	0	
0.7087	29.5148	-3.47007	0	
0.7093	9.63523	-1.64372	0	
0.7100	-6.81111	2.92217	0	
0.7107	-25.1402	2.00899	0	
0.7113	-42.8048	-3.19612	0	
0.7120	-46.7918	-3.47007	0	
0.7127	-34.0002	-1.05015	0	
0.7133	-18.1076	-1.64372	0	
0.7140	-9.85673	-2.28294	0	
0.7147	-6.20199	-1.05015	0	
0.7153	-2.54725	0.182636	0	
0.7160	-0.719874	1.68938	0	
0.7167	-0.719874	0.456589	0	
0.7173	-0.387624	-1.64372	0	
0.7180	-2.215	-0.456589	0	
0.7187	-9.24761	2.00899	0	
0.7193	-14.4528	1.09581	0	
0.7200	-10.7981	-0.730542	0	
0.7207	-5.31599	-0.730542	0	
0.7213	-3.15637	-0.456589	0	
0.7220	1.1075	0.182636	0	
0.7227	13.6222	0.182636	0	
0.7233	34.3878	0.776201	0	
0.7240	57.2576	1.09581	0	
0.7247	59.085	-1.96333	0	
0.7253	31.6191	-5.34209	0	
0.7260	3.54399	-4.38325	0	
0.7267	-6.81111	-3.78969	0	
0.7273	-12.2932	-3.19612	0	
0.7280	-17.8307	-0.136977	0	
0.7287	-14.7297	0.456589	0	
0.7293	-7.75249	-0.730542	0	
0.7300	-3.48862	1.41543	0	
0.7307	0.2215	3.51573	0	
0.7313	5.70361	2.60256	0	
0.7320	10.2444	3.83535	0	
0.7327	13.0131	4.15496	0	
0.7333	16.6678	0.182636	0	
0.7340	23.0913	0.182636	0	
0.7347	27.0783	3.83535	0	
0.7353	28.5734	1.68938	0	
0.7360	34.9969	0.776201	0	
0.7367	45.0752	10.8668	0	
0.7373	46.5703	21.2314	0	
0.7380	27.6875	12.9671	0	
0.7387	-2.54725	-11.1408	0	
0.7393	-19.935	-25.4777	0	
0.7400	-17.4985	-19.3594	0	
0.7407	-19.049	-9.58836	0	
0.7413	-29.4041	-6.84883	0	
0.7420	-28.7949	-5.93565	0	
0.7427	-13.8437	-4.70286	0	
0.7433	-5.31599	-4.1093	0	
0.7440	-9.57986	-3.47007	0	
0.7447	-15.3388	-4.38325	0	
0.7453	-18.7167	-3.47007	0	
0.7460	-20.8763	-0.136977	0	
0.7467	-17.4985	-1.64372	0	
0.7473	-8.97073	-5.34209	0	
0.7480	-0.387624	-3.47007	0	
0.7487	6.92186	-0.730542	0	
0.7493	14.2313	-1.36977	0	
0.7500	17.6092	2.00899	0	
0.7507	17.6092	10.8668	0	
0.7513	13.3454	15.7523	0	
0.7520	4.76224	14.5195	0	
0.7527	1.1075	13.2867	0	
0.7533	2.04887	16.6655	0	
0.7540	-5.59287	20.6378	0	
0.7547	-19.3258	21.551	0	
0.7553	-27.2445	18.4918	0	
0.7560	-32.7819	10.5472	0	
0.7567	-31.8406	0.182636	0	
0.7573	-15.062	-12.0539	0	
0.7580	4.76224	-27.304	0	
0.7587	15.7818	-35.2487	0	
0.7593	24.9187	-24.5645	0	
0.7600	28.9057	-11.7343	0	
0.7607	18.2183	-12.6475	0	
0.7613	1.71662	-13.5607	0	
0.7620	-9.85673	-8.9948	0	
0.7627	-19.049	-10.8212	0	
0.7633	-28.4627	-10.1819	0	
0.7640	-35.2184	-2.28294	0	
0.7647	-31.8406	-3.78969	0	
0.7653	-18.7167	-13.2411	0	
0.7660	-7.75249	-14.7935	0	
0.7667	-5.59287	-13.5607	0	
0.7673	-5.31599	-12.0539	0	
0.7680	-0.996748	-4.1093	0	
0.7687	1.1075	5.06814	0	
0.7693	0.2215	8.40123	0	
0.7700	0.498374	8.12728	0	
0.7707	4.15312	5.6617	0	
0.7713	8.14011	2.92217	0	
0.7720	11.518	4.42891	0	
0.7727	14.5636	3.24178	0	
0.7733	13.6222	-0.730542	0	
0.7740	11.1857	-0.456589	0	
0.7747	11.518	1.09581	0	
0.7753	10.8535	0.182636	0	
0.7760	5.09449	-1.36977	0	
0.7767	-3.15637	-3.47007	0	
0.7773	-9.57986	-5.61604	0	
0.7780	-10.7981	-5.02248	0	
0.7787	-5.92511	-3.19612	0	
0.7793	-2.54725	-1.05015	0	
0.7800	-7.75249	2.00899	0	
0.7807	-13.5115	0.182636	0	
0.7813	-15.3388	-3.78969	0	
0.7820	-11.6841	-1.64372	0	
0.7827	2.04887	1.41543	0	
0.7833	22.15	-1.36977	0	
0.7840	35.2738	-3.47007	0	
0.7847	38.0426	0.182636	0	
0.7853	34.9969	3.83535	0	
0.7860	22.7591	2.3286	0	
0.7867	-1.93812	0.182636	0	
0.7873	-32.7819	2.3286	0	
0.7880	-52.883	2.92217	0	
0.7887	-48.3423	0.182636	0	
0.7893	-30.6223	0.182636	0	
0.7900	-17.2216	2.3286	0	
0.7907	-1.93812	2.00899	0	
0.7913	15.1727	2.00899	0	
0.7920	20.0457	2.92217	0	
0.7927	16.391	1.68938	0	
0.7933	6.58961	0.182636	0	
0.7940	-22.3715	-0.730542	0	
0.7947	-52.883	-1.36977	0	
0.7953	-53.8244	0.182636	0	
0.7960	-37.0458	2.00899	0	
0.7967	-27.2445	2.00899	0	
0.7973	-18.1076	1.09581	0	
0.7980	-1.60587	0.456589	0	
0.7987	16.391	1.09581	0	
0.7993	34.3878	1.41543	0	
0.8000	46.9025	-1.36977	0	
0.8007	45.9612	-3.47007	0	
0.8013	34.9969	-2.5569	0	
0.8020	20.3226	-4.38325	0	
0.8027	5.70361	-6.25527	0	
0.8033	-3.48862	-1.36977	0	
0.8040	-8.63848	5.98131	0	
0.8047	-16.2802	8.40123	0	
0.8053	-21.7623	6.57488	0	
0.8060	-15.062	-0.456589	0	
0.8067	2.93487	-9.26875	0	
0.8073	16.391	-8.67519	0	
0.8080	10.8535	0.456589	0	
0.8087	-4.98374	8.40123	0	
0.8093	-11.4072	11.1408	0	
0.8100	-8.36161	6.25527	0	
0.8107	-13.5115	-6.25527	0	
0.8113	-30.9546	-11.4147	0	
0.8120	-42.8048	-3.47007	0	
0.8127	-37.3227	4.42891	0	
0.8133	-21.7623	3.83535	0	
0.8140	-10.189	1.09581	0	
0.8147	-4.70687	0.182636	0	
0.8153	1.43975	0.776201	0	
0.8160	8.41699	1.09581	0	
0.8167	11.1857	1.09581	0	
0.8173	6.58961	2.00899	0	
0.8180	0.2215	2.00899	0	
0.8187	-0.996748	4.42891	0	
0.8193	2.04887	6.57488	0	
0.8200	2.658	3.24178	0	
0.8207	1.1075	-0.730542	0	
0.8213	2.04887	1.09581	0	
0.8220	5.98049	1.09581	0	
0.8227	9.35836	-0.730542	0	
0.8233	7.53099	3.51573	0	
0.8240	2.32575	8.40123	0	
0.8247	2.32575	8.72085	0	
0.8253	9.96748	9.95364	0	
0.8260	17.8861	10.2276	0	
0.8267	22.4822	6.25527	0	
0.8273	17.277	1.41543	0	
0.8280	1.1075	-0.730542	0	
0.8287	-8.97073	2.60256	0	
0.8293	-8.97073	9.63402	0	
0.8300	-17.2216	8.72085	0	
0.8307	-26.9676	0.182636	0	
0.8313	-19.935	-3.47007	0	
0.8320	-1.60587	-5.02248	0	
0.8327	18.4952	-6.25527	0	
0.8333	39.2608	2.60256	0	
0.8340	45.352	16.0263	0	
0.8347	29.1826	21.2314	0	
0.8353	12.7362	19.7246	0	
0.8360	15.4496	18.7658	0	
0.8367	24.9187	16.9394	0	
0.8373	21.8731	13.926	0	
0.8380	8.74923	9.04046	0	
0.8387	5.37137	-0.730542	0	
0.8393	13.0131	-11.4147	0	
0.8400	18.8275	-18.4462	0	
0.8407	24.5865	-23.0121	0	
0.8413	34.3878	-25.4777	0	
0.8420	32.2282	-24.2449	0	
0.8427	5.98049	-19.9529	0	
0.8433	-29.0718	-12.9671	0	
0.8440	-55.6518	-6.25527	0	
0.8447	-73.3717	-4.1093	0	
0.8453	-83.7269	-2.87651	0	
0.8460	-78.5216	1.09581	0	
0.8467	-56.5378	5.06814	0	
0.8473	-30.3454	7.48806	0	
0.8480	-12.0164	8.72085	0	
0.8487	-2.54725	4.15496	0	
0.8493	3.87624	-4.38325	0	
0.8500	6.58961	-5.34209	0	
0.8507	5.70361	-1.96333	0	
0.8513	6.58961	-4.70286	0	
0.8520	10.2444	-9.58836	0	
0.8527	5.70361	-8.35557	0	
0.8533	-11.4072	-3.47007	0	
0.8540	-22.7037	-0.730542	0	
0.8547	-18.1076	-1.05015	0	
0.8553	-7.42024	-0.730542	0	
0.8560	-2.215	2.92217	0	
0.8567	1.1075	4.74852	0	
0.8573	5.70361	3.51573	0	
0.8580	7.53099	1.68938	0	
0.8587	8.41699	-0.136977	0	
0.8593	11.7949	-1.96333	0	
0.8600	13.9545	-1.64372	0	
0.8607	9.96748	-1.64372	0	
0.8613	5.98049	-3.47007	0	
0.8620	8.14011	-2.5569	0	
0.8627	10.8535	-0.730542	0	
0.8633	13.0131	-3.78969	0	
0.8640	20.6548	-5.34209	0	
0.8647	31.3422	-4.70286	0	
0.8653	37.4334	-8.67519	0	
0.8660	35.8829	-8.67519	0	
0.8667	22.15	-1.36977	0	
0.8673	2.93487	1.09581	0	
0.8680	-7.14336	-3.47007	0	
0.8687	-14.4528	-3.78969	0	
0.8693	-30.9546	-1.36977	0	
0.8700	-43.4139	-1.96333	0	
0.8707	-39.4823	-3.19612	0	
0.8713	-30.3454	-1.96333	0	
0.8720	-21.7623	-1.36977	0	
0.8727	-10.7981	-2.28294	0	
0.8733	-6.81111	-3.47007	0	
0.8740	-8.63848	-1.64372	0	
0.8747	2.658	1.68938	0	
0.8753	25.251	2.3286	0	
0.8760	38.0426	-0.730542	0	
0.8767	37.7103	-1.64372	0	
0.8773	28.5734	1.68938	0	
0.8780	10.2444	6.57488	0	
0.8787	-6.20199	8.40123	0	
0.8793	-13.2346	4.74852	0	
0.8800	-10.7981	-5.34209	0	
0.8807	1.1075	-12.6475	0	
0.8813	17.0001	-12.9671	0	
0.8820	23.0913	-12.3279	0	
0.8827	20.3226	-11.7343	0	
0.8833	18.4952	-3.47007	0	
0.8840	19.1043	5.06814	0	
0.8847	16.6678	5.34209	0	
0.8853	6.92186	5.98131	0	
0.8860	-0.11075	10.2276	0	
0.8867	5.09449	8.40123	0	
0.8873	11.1857	2.92217	0	
0.8880	7.53099	0.456589	0	
0.8887	5.37137	0.776201	0	
0.8893	8.41699	0.776201	0	
0.8900	4.48537	-3.47007	0	
0.8907	-9.85673	-12.6475	0	
0.8913	-24.1988	-16.3002	0	
0.8920	-28.1858	-11.1408	0	
0.8927	-18.4398	-7.4424	0	
0.8933	-0.719874	-5.02248	0	
0.8940	18.2183	4.74852	0	
0.8947	35.6061	15.7523	0	
0.8953	47.5117	19.405	0	
0.8960	55.1534	15.7523	0	
0.8967	59.6941	9.31441	0	
0.8973	42.0296	5.06814	0	
0.8980	-5.31599	4.42891	0	
0.8987	-50.1697	4.15496	0	
0.8993	-64.1795	3.24178	0	
0.9000	-59.0296	2.00899	0	
0.9007	-51.0557	-1.36977	0	
0.9013	-38.8732	-3.47007	0	
0.9020	-27.2445	-1.36977	0	
0.9027	-26.3585	0.182636	0	
0.9033	-28.4627	-1.36977	0	
0.9040	-25.7493	-1.64372	0	
0.9047	-23.3128	-0.456589	0	
0.9053	-22.7037	-1.36977	0	
0.9060	-19.3258	-2.5569	0	
0.9067	-15.062	-0.730542	0	
0.9073	-9.24761	3.83535	0	
0.9080	-0.996748	6.57488	0	
0.9087	9.35836	7.80767	0	
0.9093	20.9317	9.63402	0	
0.9100	29.5148	9.31441	0	
0.9107	28.2966	6.57488	0	
0.9113	15.1727	3.24178	0	
0.9120	-1.60587	0.182636	0	
0.9127	-9.85673	0.182636	0	
0.9133	-9.85673	2.00899	0	
0.9140	-16.6125	0.182636	0	
0.9147	-27.5767	-5.93565	0	
0.9153	-21.7623	-10.5015	0	
0.9160	-2.54725	-9.90798	0	
0.9167	6.58961	-5.34209	0	
0.9173	4.15312	-1.36977	0	
0.9180	3.87624	-1.96333	0	
0.9187	7.19874	-1.36977	0	
0.9193	7.80786	5.06814	0	
0.9200	2.93487	9.31441	0	
0.9207	-5.31599	8.40123	0	
0.9213	-12.2932	7.48806	0	
0.9220	-14.1206	6.57488	0	
0.9227	-9.85673	1.41543	0	
0.9233	-2.54725	-6.52922	0	
0.9240	3.54399	-11.4147	0	
0.9247	6.31274	-11.7343	0	
0.9253	4.76224	-8.35557	0	
0.9260	0.830624	-7.16844	0	
0.9267	-0.996748	-7.16844	0	
0.9273	-1.329	-2.5569	0	
0.9280	-5.31599	4.74852	0	
0.9287	-12.0164	6.89449	0	
0.9293	-13.5115	3.83535	0	
0.9300	-8.63848	-2.5569	0	
0.9307	-2.54725	-10.8212	0	
0.9313	7.53099	-19.679	0	
0.9320	22.15	-25.158	0	
0.9327	33.1696	-25.4777	0	
0.9333	39.5931	-21.5053	0	
0.9340	47.5117	-15.387	0	
0.9347	46.5703	-8.67519	0	
0.9353	30.1239	-4.1093	0	
0.9360	15.4496	-4.38325	0	
0.9367	11.1857	-5.34209	0	
0.9373	5.70361	-3.19612	0	
0.9380	-0.387624	-3.47007	0	
0.9387	-4.09774	-5.93565	0	
0.9393	-10.4659	-4.1093	0	
0.9400	-17.2216	-0.730542	0	
0.9407	-22.7037	-1.64372	0	
0.9413	-34.8862	-5.02248	0	
0.9420	-47.4009	-6.52922	0	
0.9427	-45.5735	-3.78969	0	
0.9433	-37.0458	1.68938	0	
0.9440	-33.6679	3.83535	0	
0.9447	-29.6809	1.68938	0	
0.9453	-17.8307	2.00899	0	
0.9460	-3.48862	4.15496	0	
0.9467	5.37137	6.25527	0	
0.9473	2.93487	9.95364	0	
0.9480	-6.20199	10.5472	0	
0.9487	-8.63848	2.3286	0	
0.9493	1.71662	-8.08162	0	
0.9500	13.9545	-9.90798	0	
0.9507	24.5865	-7.16844	0	
0.9513	37.7103	-5.34209	0	
0.9520	44.1338	-4.70286	0	
0.9527	32.2282	-4.1093	0	
0.9533	16.0587	-1.36977	0	
0.9540	8.74923	2.60256	0	
0.9547	-3.76549	3.83535	0	
0.9553	-26.6353	1.09581	0	
0.9560	-40.9774	2.00899	0	
0.9567	-37.3227	7.2141	0	
0.9573	-23.922	9.95364	0	
0.9580	-8.36161	6.57488	0	
0.9587	2.32575	-0.730542	0	
0.9593	6.58961	-6.25527	0	
0.9600	7.19874	-4.38325	0	
0.9607	6.92186	1.09581	0	
0.9613	5.09449	2.92217	0	
0.9620	2.658	5.6617	0	
0.9627	2.04887	9.31441	0	
0.9633	2.93487	8.40123	0	
0.9640	4.48537	5.6617	0	
0.9647	6.92186	4.74852	0	
0.9653	9.02611	2.00899	0	
0.9660	8.14011	1.41543	0	
0.9667	4.15312	6.25527	0	
0.9673	0.830624	9.95364	0	
0.9680	-2.87949	11.4604	0	
0.9687	-9.85673	15.4327	0	
0.9693	-16.2802	16.3459	0	
0.9700	-14.4528	10.2276	0	
0.9707	-4.98374	1.41543	0	
0.9713	5.09449	-6.84883	0	
0.9720	15.1727	-10.5015	0	
0.9727	27.9643	-6.84883	0	
0.9733	42.3064	-2.5569	0	
0.9740	54.212	0.182636	0	
0.9747	57.8668	8.40123	0	
0.9753	44.7429	16.6655	0	
0.9760	22.15	16.3459	0	
0.9767	5.70361	12.9671	0	
0.9773	-13.2346	10.8668	0	
0.9780	-39.4823	8.40123	0	
0.9787	-47.7332	7.48806	0	
0.9793	-30.9546	9.04046	0	
0.9800	-13.8437	7.80767	0	
0.9807	2.04887	4.42891	0	
0.9813	25.8601	2.92217	0	
0.9820	37.4334	3.24178	0	
0.9827	29.5148	2.3286	0	
0.9833	13.0131	1.41543	0	
0.9840	-12.2932	2.92217	0	
0.9847	-38.2641	5.34209	0	
0.9853	-47.4009	5.6617	0	
0.9860	-51.0557	6.25527	0	
0.9867	-59.3065	5.98131	0	
0.9873	-54.7104	4.42891	0	
0.9880	-37.3227	2.60256	0	
0.9887	-25.7493	0.776201	0	
0.9893	-20.8763	-0.730542	0	
0.9900	-15.6711	1.09581	0	
0.9907	-12.2932	2.00899	0	
0.9913	-2.54725	-0.136977	0	
0.9920	15.1727	-3.78969	0	
0.9927	26.137	-4.38325	0	
0.9933	27.6875	-1.36977	0	
0.9940	32.5604	-0.456589	0	
0.9947	41.0882	-3.47007	0	
0.9953	46.2934	-4.1093	0	
0.9960	41.0882	-1.05015	0	
0.9967	19.1043	-1.64372	0	
0.9973	-7.42024	-5.34209	0	
0.9980	-23.5897	-5.34209	0	
0.9987	-32.1728	-2.28294	0	
0.9993	-28.4627	-1.64372	0	
1.0000	-9.85673	-2.5569	0	
1.0007	2.658	-1.96333	0	
1.0013	1.71662	-0.136977	0	
1.0020	1.43975	-0.730542	0	
1.0027	0.2215	-4.38325	0	
1.0033	-5.92511	-8.35557	0	
1.0040	-7.14336	-9.90798	0	
1.0047	-5.92511	-8.67519	0	
1.0053	-4.37462	-7.16844	0	
1.0060	4.76224	-6.25527	0	
1.0067	19.4366	-5.61604	0	
1.0073	32.2282	-5.61604	0	
1.0080	40.8113	-6.25527	0	
1.0087	37.4334	-5.02248	0	
1.0093	22.15	-3.47007	0	
1.0100	13.3454	-5.02248	0	
1.0107	12.404	-5.34209	0	
1.0113	6.31274	-2.28294	0	
1.0120	1.1075	-0.730542	0	
1.0127	8.41699	0.456589	0	
1.0133	17.0001	3.51573	0	
1.0140	14.8405	2.60256	0	
1.0147	5.70361	1.41543	0	
1.0153	-9.85673	5.6617	0	
1.0160	-29.6809	6.57488	0	
1.0167	-37.6549	0.456589	0	
1.0173	-33.6679	-0.730542	0	
1.0180	-33.0588	6.89449	0	
1.0187	-32.7819	13.926	0	
1.0193	-22.7037	15.4327	0	
1.0200	-11.6841	10.8668	0	
1.0207	-8.97073	5.98131	0	
1.0213	-9.85673	10.2276	0	
1.0220	-7.14336	17.5787	0	
1.0227	-0.996748	16.3459	0	
1.0233	2.93487	8.40123	0	
1.0240	3.87624	3.83535	0	
1.0247	6.31274	3.83535	0	
1.0253	7.80786	1.41543	0	
1.0260	3.54399	-8.08162	0	
1.0267	2.04887	-22.4185	0	
1.0273	6.58961	-30.9567	0	
1.0280	10.8535	-29.45	0	
1.0287	18.8275	-22.7381	0	
1.0293	33.1696	-16.6198	0	
1.0300	44.1338	-14.4739	0	
1.0307	48.1208	-12.6475	0	
1.0313	50.5573	-11.7343	0	
1.0320	47.1794	-15.9806	0	
1.0327	32.2282	-19.0398	0	
1.0333	6.58961	-11.7343	0	
1.0340	-25.7493	-2.5569	0	
1.0347	-51.997	-2.5569	0	
1.0353	-60.2479	-8.08162	0	
1.0360	-53.4922	-11.7343	0	
1.0367	-40.7006	-12.3279	0	
1.0373	-27.2445	-12.3279	0	
1.0380	-17.2216	-10.5015	0	
1.0387	-12.6255	-7.16844	0	
1.0393	-10.7981	-6.25527	0	
1.0400	-8.36161	-3.47007	0	
1.0407	-5.31599	7.2141	0	
1.0413	0.2215	14.1999	0	
1.0420	6.58961	8.72085	0	
1.0427	12.404	3.83535	0	
1.0433	13.9545	6.57488	0	
1.0440	6.92186	7.48806	0	
1.0447	-7.75249	2.92217	0	
1.0453	-16.2802	0.182636	0	
1.0460	-12.6255	0.182636	0	
1.0467	-10.7981	0.776201	0	
1.0473	-16.8893	2.60256	0	
1.0480	-20.5441	4.74852	0	
1.0487	-17.4985	4.15496	0	
1.0493	-15.3388	2.00899	0	
1.0500	-12.9024	3.83535	0	
1.0507	-4.09774	7.2141	0	
1.0513	8.74923	7.2141	0	
1.0520	14.5636	4.42891	0	
1.0527	7.80786	3.51573	0	
1.0533	-1.60587	4.42891	0	
1.0540	3.87624	2.92217	0	
1.0547	25.8601	0.182636	0	
1.0553	41.4204	0.776201	0	
1.0560	32.2282	3.83535	0	
1.0567	13.9545	4.74852	0	
1.0573	6.58961	2.92217	0	
1.0580	3.26712	1.09581	0	
1.0587	-2.54725	2.00899	0	
1.0593	2.658	4.15496	0	
1.0600	16.0587	5.06814	0	
1.0607	14.5636	4.15496	0	
1.0613	5.70361	4.74852	0	
1.0620	12.404	5.06814	0	
1.0627	24.9187	3.51573	0	
1.0633	33.7787	3.83535	0	
1.0640	49.0068	4.15496	0	
1.0647	70.3815	2.00899	0	
1.0653	85.9418	2.00899	0	
1.0660	88.1015	5.98131	0	
1.0667	66.4499	8.12728	0	
1.0673	31.3422	7.48806	0	
1.0680	11.518	4.74852	0	
1.0687	-4.09774	-0.456589	0	
1.0693	-37.3227	-4.1093	0	
1.0700	-60.5248	1.09581	0	
1.0707	-56.87	12.0539	0	
1.0713	-51.997	13.926	0	
1.0720	-52.6062	-3.78969	0	
1.0727	-52.6062	-21.7793	0	
1.0733	-60.2479	-16.6198	0	
1.0740	-62.6844	-1.05015	0	
1.0747	-44.6875	4.74852	0	
1.0753	-26.9676	7.2141	0	
1.0760	-22.9806	12.0539	0	
1.0767	-20.5441	10.2276	0	
1.0773	-15.6711	1.68938	0	
1.0780	-9.57986	-4.38325	0	
1.0787	-2.87949	-6.25527	0	
1.0793	-4.09774	-6.25527	0	
1.0800	-12.0164	-2.5569	0	
1.0807	-14.1206	0.182636	0	
1.0813	-8.02936	-1.05015	0	
1.0820	-2.54725	-2.87651	0	
1.0827	-5.31599	-0.136977	0	
1.0833	-15.948	2.00899	0	
1.0840	-26.0262	2.00899	0	
1.0847	-30.0132	7.48806	0	
1.0853	-29.0718	12.9671	0	
1.0860	-25.1402	11.1408	0	
1.0867	-16.8893	9.63402	0	
1.0873	-7.14336	10.2276	0	
1.0880	-1.60587	4.42891	0	
1.0887	-0.996748	-3.47007	0	
1.0893	0.498374	-3.47007	0	
1.0900	8.14011	-1.96333	0	
1.0907	20.3226	-5.34209	0	
1.0913	34.9969	-9.90798	0	
1.0920	45.352	-10.1819	0	
1.0927	48.3977	-5.34209	0	
1.0933	43.8569	-0.136977	0	
1.0940	34.3878	0.776201	0	
1.0947	24.3096	0.182636	0	
1.0953	18.4952	1.41543	0	
1.0960	20.3226	1.09581	0	
1.0967	27.0783	-0.136977	0	
1.0973	23.9773	-0.136977	0	
1.0980	6.58961	1.09581	0	
1.0987	-10.7981	2.3286	0	
1.0993	-22.7037	6.57488	0	
1.1000	-34.2771	12.0539	0	
1.1007	-36.4367	12.9671	0	
1.1013	-20.5441	7.48806	0	
1.1020	2.93487	-0.136977	0	
1.1027	20.3226	-4.38325	0	
1.1033	25.5278	-3.78969	0	
1.1040	17.6092	-0.730542	0	
1.1047	6.58961	2.00899	0	
1.1053	5.70361	4.42891	0	
1.1060	8.14011	5.6617	0	
1.1067	4.15312	4.74852	0	
1.1073	5.70361	2.00899	0	
1.1080	23.0913	0.182636	0	
1.1087	37.4334	-0.136977	0	
1.1093	24.9187	0.182636	0	
1.1100	0.498374	-0.456589	0	
1.1107	-9.85673	-1.64372	0	
1.1113	-10.7981	-4.1093	0	
1.1120	-15.3388	-7.16844	0	
1.1127	-19.935	-7.76201	0	
1.1133	-17.4985	-6.52922	0	
1.1140	-7.14336	-5.34209	0	
1.1147	0.498374	-0.730542	0	
1.1153	-9.24761	5.6617	0	
1.1160	-22.9806	9.04046	0	
1.1167	-19.3258	11.1408	0	
1.1173	-14.4528	16.9394	0	
1.1180	-31.5637	21.8249	0	
1.1187	-54.4335	16.9394	0	
1.1193	-55.6518	5.34209	0	
1.1200	-36.4367	1.41543	0	
1.1207	-19.935	6.57488	0	
1.1213	-15.6711	8.40123	0	
1.1220	-14.1206	5.06814	0	
1.1227	-9.85673	6.57488	0	
1.1233	0.830624	8.40123	0	
1.1240	23.7005	3.51573	0	
1.1247	47.7885	-3.78969	0	
1.1253	52.7169	-14.4739	0	
1.1260	39.2608	-26.6648	0	
1.1267	20.9317	-27.578	0	
1.1273	10.5766	-18.4462	0	
1.1280	10.8535	-13.5607	0	
1.1287	5.98049	-11.4147	0	
1.1293	-6.20199	-8.08162	0	
1.1300	-6.81111	-8.9948	0	
1.1307	2.658	-11.1408	0	
1.1313	3.54399	-10.8212	0	
1.1320	-1.93812	-10.8212	0	
1.1327	-7.14336	-11.1408	0	
1.1333	-8.36161	-12.3279	0	
1.1340	1.43975	-13.5607	0	
1.1347	13.6222	-9.26875	0	
1.1353	11.7949	-3.47007	0	
1.1360	3.87624	-5.02248	0	
1.1367	0.498374	-8.9948	0	
1.1373	-2.54725	-8.67519	0	
1.1380	-5.59287	-7.76201	0	
1.1387	-4.37462	-5.02248	0	
1.1393	-0.387624	0.182636	0	
1.1400	2.04887	2.00899	0	
1.1407	0.2215	-0.730542	0	
1.1413	-3.48862	-1.96333	0	
1.1420	-4.09774	-2.5569	0	
1.1427	-8.63848	-2.5569	0	
1.1433	-19.3258	0.182636	0	
1.1440	-24.5311	3.24178	0	
1.1447	-23.5897	4.42891	0	
1.1453	-23.5897	3.51573	0	
1.1460	-14.7297	1.41543	0	
1.1467	0.2215	1.68938	0	
1.1473	3.54399	5.34209	0	
1.1480	2.04887	8.72085	0	
1.1487	12.1271	4.74852	0	
1.1493	24.9187	-8.08162	0	
1.1500	33.1696	-17.2134	0	
1.1507	35.2738	-12.3279	0	
1.1513	19.4366	-3.19612	0	
1.1520	-8.63848	-2.5569	0	
1.1527	-22.0946	-3.78969	0	
1.1533	-18.7167	-1.05015	0	
1.1540	-15.3388	-1.64372	0	
1.1547	-10.4659	-4.1093	0	
1.1553	-0.387624	-3.47007	0	
1.1560	4.15312	-4.1093	0	
1.1567	1.1075	-6.52922	0	
1.1573	-3.48862	-5.02248	0	
1.1580	-12.6255	-4.1093	0	
1.1587	-23.5897	-6.52922	0	
1.1593	-23.5897	-4.70286	0	
1.1600	-15.6711	-2.87651	0	
1.1607	-10.7981	-6.25527	0	
1.1613	-7.14336	-4.38325	0	
1.1620	0.2215	0.182636	0	
1.1627	7.80786	-2.87651	0	
1.1633	7.53099	-6.84883	0	
1.1640	1.1075	-7.16844	0	
1.1647	-3.48862	-8.9948	0	
1.1653	-4.37462	-7.16844	0	
1.1660	-5.31599	0.456589	0	
1.1667	-4.70687	6.89449	0	
1.1673	2.93487	13.6063	0	
1.1680	13.0131	15.7523	0	
1.1687	17.0001	5.98131	0	
1.1693	15.7818	-4.1093	0	
1.1700	12.1271	-3.19612	0	
1.1707	7.80786	0.182636	0	
1.1713	8.41699	-0.730542	0	
1.1720	10.2444	-2.5569	0	
1.1727	-3.76549	-2.5569	0	
1.1733	-26.0262	-1.64372	0	
1.1740	-28.7949	-6.25527	0	
1.1747	-14.4528	-11.4147	0	
1.1753	-7.14336	-9.90798	0	
1.1760	-9.57986	-8.08162	0	
1.1767	-8.02936	-8.9948	0	
1.1773	-1.93812	-3.78969	0	
1.1780	2.04887	3.51573	0	
1.1787	3.87624	1.41543	0	
1.1793	3.87624	-5.02248	0	
1.1800	-1.93812	-11.7343	0	
1.1807	-11.6841	-17.533	0	
1.1813	-14.4528	-15.0674	0	
1.1820	-9.24761	-5.34209	0	
1.1827	-4.98374	-1.05015	0	
1.1833	0.2215	-3.47007	0	
1.1840	11.1857	-4.38325	0	
1.1847	17.277	-5.34209	0	
1.1853	13.9545	-7.16844	0	
1.1860	12.7362	-3.47007	0	
1.1867	15.4496	1.68938	0	
1.1873	14.8405	-1.05015	0	
1.1880	15.7818	-5.02248	0	
1.1887	20.9317	-1.05015	0	
1.1893	22.15	3.51573	0	
1.1900	18.4952	4.42891	0	
1.1907	9.35836	7.2141	0	
1.1913	-6.53424	9.04046	0	
1.1920	-19.049	7.48806	0	
1.1927	-25.4171	7.2141	0	
1.1933	-30.3454	6.89449	0	
1.1940	-18.4398	2.00899	0	
1.1947	17.277	-3.78969	0	
1.1953	49.6159	-2.87651	0	
1.1960	59.085	3.83535	0	
1.1967	48.7299	6.89449	0	
1.1973	25.251	0.776201	0	
1.1980	2.32575	-7.16844	0	
1.1987	-11.4072	-7.76201	0	
1.1993	-23.5897	-2.5569	0	
1.2000	-33.3911	2.00899	0	
1.2007	-33.6679	2.92217	0	
1.2013	-32.4497	2.60256	0	
1.2020	-30.9546	2.92217	0	
1.2027	-20.8763	1.68938	0	
1.2033	-8.36161	1.68938	0	
1.2040	-7.14336	4.42891	0	
1.2047	-14.4528	5.06814	0	
1.2053	-22.7037	6.89449	0	
1.2060	-30.0132	16.3459	0	
1.2067	-34.6093	24.5645	0	
1.2073	-24.5311	25.5233	0	
1.2080	2.658	20.3182	0	
1.2087	26.7461	7.48806	0	
1.2093	24.9187	-4.38325	0	
1.2100	4.48537	-4.38325	0	
1.2107	-10.7981	-5.34209	0	
1.2113	-13.5115	-13.5607	0	
1.2120	-19.935	-12.6475	0	
1.2127	-36.4367	-2.5569	0	
1.2133	-45.5735	0.456589	0	
1.2140	-40.0914	1.09581	0	
1.2147	-31.2314	4.42891	0	
1.2153	-20.2672	2.00899	0	
1.2160	0.830624	-1.36977	0	
1.2167	23.9773	1.68938	0	
1.2173	36.2152	1.09581	0	
1.2180	36.4921	-5.34209	0	
1.2187	31.0099	-4.38325	0	
1.2193	25.8601	0.456589	0	
1.2200	26.7461	-0.136977	0	
1.2207	29.7917	0.182636	0	
1.2213	31.0099	4.74852	0	
1.2220	35.8829	5.34209	0	
1.2227	45.0752	3.51573	0	
1.2233	49.339	3.51573	0	
1.2240	42.9155	1.09581	0	
1.2247	32.2282	-2.5569	0	
1.2253	21.264	-1.64372	0	
1.2260	9.96748	-0.136977	0	
1.2267	-3.48862	1.68938	0	
1.2273	-16.6125	4.15496	0	
1.2280	-23.5897	3.24178	0	
1.2287	-26.0262	1.09581	0	
1.2293	-29.0718	3.51573	0	
1.2300	-27.8536	4.15496	0	
1.2307	-16.2802	0.776201	0	
1.2313	-4.09774	0.182636	0	
1.2320	1.1075	2.00899	0	
1.2327	6.92186	2.00899	0	
1.2333	11.518	5.34209	0	
1.2340	5.70361	10.8668	0	
1.2347	-0.996748	9.04046	0	
1.2353	1.43975	-0.136977	0	
1.2360	7.19874	-8.08162	0	
1.2367	14.8405	-11.7343	0	
1.2373	28.5734	-11.7343	0	
1.2380	38.9839	-7.16844	0	
1.2387	39.5931	-4.38325	0	
1.2393	30.4008	-7.16844	0	
1.2400	7.53099	-8.9948	0	
1.2407	-19.049	-8.08162	0	
1.2413	-24.5311	-8.67519	0	
1.2420	-8.97073	-9.90798	0	
1.2427	2.93487	-8.67519	0	
1.2433	4.15312	-6.25527	0	
1.2440	1.1075	-2.87651	0	
1.2447	-4.37462	3.83535	0	
1.2453	-15.6711	10.2276	0	
1.2460	-29.4041	11.1408	0	
1.2467	-38.2641	7.48806	0	
1.2473	-39.1501	3.83535	0	
1.2480	-37.0458	4.74852	0	
1.2487	-35.4953	8.40123	0	
1.2493	-31.2314	9.63402	0	
1.2500	-24.5311	10.2276	0	
1.2507	-20.8763	11.4604	0	
1.2513	-17.2216	8.40123	0	
1.2520	-12.6255	5.34209	0	
1.2527	-10.4659	5.34209	0	
1.2533	-11.6841	1.41543	0	
1.2540	-13.5115	-4.38325	0	
1.2547	-20.2672	-3.19612	0	
1.2553	-32.7819	-1.64372	0	
1.2560	-36.4367	-5.34209	0	
1.2567	-21.4855	-4.38325	0	
1.2573	-2.215	1.09581	0	
1.2580	5.98049	-0.456589	0	
1.2587	4.76224	-6.25527	0	
1.2593	3.26712	-4.38325	0	
1.2600	9.35836	1.68938	0	
1.2607	27.0783	1.68938	0	
1.2613	49.9482	-4.38325	0	
1.2620	67.945	-7.16844	0	
1.2627	77.0819	-5.34209	0	
1.2633	71.3229	-2.87651	0	
1.2640	46.9025	-0.456589	0	
1.2647	18.2183	2.3286	0	
1.2653	-2.54725	2.00899	0	
1.2660	-23.5897	-0.730542	0	
1.2667	-45.9058	-0.456589	0	
1.2673	-55.0427	1.41543	0	
1.2680	-44.9644	0.776201	0	
1.2687	-26.9676	0.182636	0	
1.2693	-15.3388	2.00899	0	
1.2700	-14.4528	4.74852	0	
1.2707	-12.0164	4.15496	0	
1.2713	-2.87949	1.09581	0	
1.2720	-0.719874	-1.64372	0	
1.2727	-6.20199	-1.64372	0	
1.2733	-5.31599	-0.136977	0	
1.2740	-0.719874	0.776201	0	
1.2747	2.658	-0.136977	0	
1.2753	5.70361	-3.19612	0	
1.2760	7.19874	-3.47007	0	
1.2767	10.8535	-0.730542	0	
1.2773	23.3682	-0.730542	0	
1.2780	36.8243	-1.05015	0	
1.2787	43.8569	6.25527	0	
1.2793	50.5573	11.1408	0	
1.2800	54.5443	7.48806	0	
1.2807	44.7429	7.48806	0	
1.2813	20.3226	11.4604	0	
1.2820	-7.14336	9.31441	0	
1.2827	-27.2445	3.51573	0	
1.2833	-36.7136	-0.456589	0	
1.2840	-38.2641	-3.78969	0	
1.2847	-33.3911	-5.02248	0	
1.2853	-20.5441	-4.38325	0	
1.2860	-4.70687	-3.78969	0	
1.2867	8.14011	-0.730542	0	
1.2873	20.3226	-1.05015	0	
1.2880	32.2282	-11.1408	0	
1.2887	28.5734	-17.2134	0	
1.2893	3.54399	-12.6475	0	
1.2900	-20.2672	-6.84883	0	
1.2907	-26.3585	-3.47007	0	
1.2913	-23.5897	-1.36977	0	
1.2920	-19.3258	-1.64372	0	
1.2927	-13.8437	-1.64372	0	
1.2933	-9.24761	0.182636	0	
1.2940	-5.31599	1.09581	0	
1.2947	5.98049	0.182636	0	
1.2953	24.9187	0.182636	0	
1.2960	38.6517	-1.36977	0	
1.2967	36.8243	-2.5569	0	
1.2973	29.5148	-1.64372	0	
1.2980	31.3422	-0.136977	0	
1.2987	32.5604	1.68938	0	
1.2993	17.277	1.68938	0	
1.3000	-4.09774	-1.05015	0	
1.3007	-15.3388	-2.87651	0	
1.3013	-21.4855	-2.87651	0	
1.3020	-26.6353	-4.1093	0	
1.3027	-27.5767	-5.34209	0	
1.3033	-29.0718	-3.47007	0	
1.3040	-36.4367	-0.456589	0	
1.3047	-40.3683	-1.64372	0	
1.3053	-34.6093	-4.38325	0	
1.3060	-22.7037	-3.47007	0	
1.3067	-10.189	0.182636	0	
1.3073	-1.60587	2.00899	0	
1.3080	0.830624	0.182636	0	
1.3087	-1.60587	-0.730542	0	
1.3093	-2.54725	1.68938	0	
1.3100	-1.60587	1.09581	0	
1.3107	-6.53424	-1.64372	0	
1.3113	-19.049	0.776201	0	
1.3120	-27.2445	3.83535	0	
1.3127	-21.7623	2.00899	0	
1.3133	-11.075	3.24178	0	
1.3140	-6.81111	7.48806	0	
1.3147	-6.81111	5.98131	0	
1.3153	-5.31599	3.83535	0	
1.3160	-1.60587	5.98131	0	
1.3167	2.32575	4.74852	0	
1.3173	5.70361	-0.136977	0	
1.3180	7.53099	-4.70286	0	
1.3187	4.76224	-6.25527	0	
1.3193	-1.93812	-1.05015	0	
1.3200	-6.81111	5.6617	0	
1.3207	-2.87949	2.92217	0	
1.3213	5.70361	-5.02248	0	
1.3220	8.41699	-7.16844	0	
1.3227	6.92186	-6.84883	0	
1.3233	5.09449	-8.08162	0	
1.3240	-0.719874	-8.08162	0	
1.3247	-6.20199	-8.9948	0	
1.3253	-3.48862	-9.26875	0	
1.3260	-1.93812	-7.16844	0	
1.3267	-9.57986	-6.25527	0	
1.3273	-13.5115	-6.25527	0	
1.3280	-8.97073	-4.70286	0	
1.3287	-2.54725	-4.70286	0	
1.3293	5.37137	-4.70286	0	
1.3300	13.0131	-0.730542	0	
1.3307	15.4496	4.74852	0	
1.3313	14.2313	8.12728	0	
1.3320	13.3454	8.72085	0	
1.3327	10.5766	5.98131	0	
1.3333	7.19874	2.92217	0	
1.3340	5.09449	2.3286	0	
1.3347	8.14011	-0.136977	0	
1.3353	17.0001	-4.38325	0	
1.3360	23.3682	-3.19612	0	
1.3367	21.8731	1.09581	0	
1.3373	20.6548	3.83535	0	
1.3380	19.1043	3.83535	0	
1.3387	10.8535	-2.28294	0	
1.3393	6.92186	-8.08162	0	
1.3400	14.8405	-4.38325	0	
1.3407	18.4952	2.00899	0	
1.3413	11.7949	2.92217	0	
1.3420	7.80786	7.48806	0	
1.3427	11.1857	13.2867	0	
1.3433	7.19874	5.6617	0	
1.3440	-13.5115	-10.8212	0	
1.3447	-32.4497	-19.0398	0	
1.3453	-27.2445	-14.4739	0	
1.3460	-15.3388	-10.8212	0	
1.3467	-19.935	-14.7935	0	
1.3473	-24.1988	-18.7658	0	
1.3480	-15.3388	-12.9671	0	
1.3487	-11.6841	-5.02248	0	
1.3493	-11.6841	-5.34209	0	
1.3500	-1.60587	-9.26875	0	
1.3507	6.92186	-8.08162	0	
1.3513	7.19874	-5.02248	0	
1.3520	10.5766	-4.70286	0	
1.3527	17.8861	-4.70286	0	
1.3533	23.9773	-3.19612	0	
1.3540	30.7331	-1.05015	0	
1.3547	34.3878	0.182636	0	
1.3553	31.6191	-0.456589	0	
1.3560	28.5734	-0.456589	0	
1.3567	23.7005	1.09581	0	
1.3573	13.6222	0.456589	0	
1.3580	2.93487	-1.05015	0	
1.3587	-10.7981	1.09581	0	
1.3593	-26.9676	3.51573	0	
1.3600	-29.0718	1.09581	0	
1.3607	-11.075	0.456589	0	
1.3613	9.63523	2.00899	0	
1.3620	19.4366	0.776201	0	
1.3627	14.5636	-0.730542	0	
1.3633	2.04887	-0.456589	0	
1.3640	-3.48862	-0.730542	0	
1.3647	-5.92511	0.182636	0	
1.3653	-20.8763	2.60256	0	
1.3660	-34.8862	2.60256	0	
1.3667	-32.7819	2.3286	0	
1.3673	-29.0718	5.6617	0	
1.3680	-29.0718	7.48806	0	
1.3687	-18.1076	7.48806	0	
1.3693	0.830624	7.80767	0	
1.3700	13.9545	7.2141	0	
1.3707	23.9773	4.15496	0	
1.3713	31.0099	1.09581	0	
1.3720	29.5148	-0.730542	0	
1.3727	23.0913	1.41543	0	
1.3733	16.6678	6.57488	0	
1.3740	8.74923	6.57488	0	
1.3747	0.498374	0.182636	0	
1.3753	-6.20199	-3.78969	0	
1.3760	-8.02936	-2.5569	0	
1.3767	-3.48862	-0.730542	0	
1.3773	-4.98374	-0.730542	0	
1.3780	-15.6711	-1.64372	0	
1.3787	-22.3715	-5.02248	0	
1.3793	-16.2802	-8.67519	0	
1.3800	-7.14336	-7.4424	0	
1.3807	-3.48862	-5.34209	0	
1.3813	-4.70687	-5.61604	0	
1.3820	-7.14336	-0.730542	0	
1.3827	-14.1206	9.31441	0	
1.3833	-22.0946	16.0263	0	
1.3840	-16.6125	17.5787	0	
1.3847	0.2215	17.2591	0	
1.3853	8.41699	12.0539	0	
1.3860	9.63523	2.92217	0	
1.3867	13.0131	-1.36977	0	
1.3873	5.37137	0.456589	0	
1.3880	-19.935	4.42891	0	
1.3887	-41.9188	7.2141	0	
1.3893	-42.1957	7.2141	0	
1.3900	-26.0262	5.98131	0	
1.3907	-14.4528	8.40123	0	
1.3913	-19.6581	12.6932	0	
1.3920	-26.9676	11.78	0	
1.3927	-23.3128	6.89449	0	
1.3933	-14.1206	4.74852	0	
1.3940	-8.02936	3.83535	0	
1.3947	-5.31599	2.00899	0	
1.3953	-4.70687	2.00899	0	
1.3960	-3.15637	1.09581	0	
1.3967	1.1075	-1.36977	0	
1.3973	6.58961	0.182636	0	
1.3980	14.5636	3.51573	0	
1.3987	25.251	2.00899	0	
1.3993	33.1696	0.182636	0	
1.4000	28.9057	-0.730542	0	
1.4007	14.5636	-0.456589	0	
1.4013	3.87624	1.09581	0	
1.4020	-1.60587	1.09581	0	
1.4027	-10.7981	-0.730542	0	
1.4033	-19.049	2.00899	0	
1.4040	-16.8893	4.74852	0	
1.4047	-7.14336	2.60256	0	
1.4053	4.76224	2.92217	0	
1.4060	15.7818	6.57488	0	
1.4067	16.0587	6.89449	0	
1.4073	11.1857	7.80767	0	
1.4080	13.0131	16.6655	0	
1.4087	17.277	24.8841	0	
1.4093	14.8405	20.3182	0	
1.4100	12.7362	3.24178	0	
1.4107	14.8405	-8.08162	0	
1.4113	12.1271	-7.76201	0	
1.4120	4.48537	-7.4424	0	
1.4127	1.1075	-9.90798	0	
1.4133	1.71662	-8.08162	0	
1.4140	0.2215	-2.87651	0	
1.4147	0.830624	-1.64372	0	
1.4153	4.48537	-5.02248	0	
1.4160	4.76224	-8.67519	0	
1.4167	2.04887	-5.61604	0	
1.4173	2.32575	-2.5569	0	
1.4180	5.98049	-8.08162	0	
1.4187	9.02611	-12.0539	0	
1.4193	10.8535	-7.16844	0	
1.4200	11.518	-3.19612	0	
1.4207	10.5766	-4.38325	0	
1.4213	7.53099	-3.47007	0	
1.4220	3.26712	-1.96333	0	
1.4227	2.04887	-1.64372	0	
1.4233	2.93487	2.00899	0	
1.4240	2.93487	5.6617	0	
1.4247	4.15312	5.06814	0	
1.4253	4.48537	5.06814	0	
1.4260	-0.719874	8.72085	0	
1.4267	-3.15637	11.1408	0	
1.4273	5.70361	6.57488	0	
1.4280	15.4496	-3.47007	0	
1.4287	19.4366	-9.90798	0	
1.4293	24.5865	-9.90798	0	
1.4300	29.5148	-14.4739	0	
1.4307	28.2966	-23.3317	0	
1.4313	22.4822	-22.7381	0	
1.4320	10.2444	-11.7343	0	
1.4327	-4.98374	-4.70286	0	
1.4333	-10.7981	-4.70286	0	
1.4340	-11.6841	-3.78969	0	
1.4347	-16.2802	-2.28294	0	
1.4353	-6.81111	-1.64372	0	
1.4360	25.251	-0.730542	0	
1.4367	54.5443	1.09581	0	
1.4373	58.8081	1.09581	0	
1.4380	36.2152	0.776201	0	
1.4387	-0.11075	0.456589	0	
1.4393	-29.4041	-0.730542	0	
1.4400	-45.5735	-3.19612	0	
1.4407	-53.8244	-2.5569	0	
1.4413	-43.7462	-0.730542	0	
1.4420	-13.8437	-0.730542	0	
1.4427	5.70361	-1.64372	0	
1.4433	-2.215	-0.730542	0	
1.4440	-22.9806	1.68938	0	
1.4447	-43.137	5.6617	0	
1.4453	-58.4205	10.5472	0	
1.4460	-62.9613	10.2276	0	
1.4467	-51.0557	2.3286	0	
1.4473	-23.922	-6.52922	0	
1.4480	1.43975	-9.90798	0	
1.4487	6.58961	-9.26875	0	
1.4493	-4.98374	-12.3279	0	
1.4500	-13.2346	-12.6475	0	
1.4507	-13.5115	-4.38325	0	
1.4513	-21.1532	-0.456589	0	
1.4520	-37.3227	-1.64372	0	
1.4527	-40.7006	9.04046	0	
1.4533	-27.5767	23.0577	0	
1.4540	-18.1076	20.6378	0	
1.4547	-14.7297	12.3736	0	
1.4553	-8.63848	9.95364	0	
1.4560	-3.76549	5.34209	0	
1.4567	-1.60587	0.182636	0	
1.4573	-0.719874	1.68938	0	
1.4580	-4.37462	3.83535	0	
1.4587	-7.42024	2.92217	0	
1.4593	-4.09774	2.00899	0	
1.4600	-1.60587	2.00899	0	
1.4607	1.1075	1.09581	0	
1.4613	8.41699	-0.136977	0	
1.4620	10.2444	-1.36977	0	
1.4627	5.98049	-1.36977	0	
1.4633	7.19874	-1.36977	0	
1.4640	14.2313	-1.36977	0	
1.4647	19.7135	-2.5569	0	
1.4653	19.4366	-5.02248	0	
1.4660	12.404	-3.47007	0	
1.4667	4.48537	0.456589	0	
1.4673	2.04887	0.182636	0	
1.4680	1.1075	-0.730542	0	
1.4687	-5.59287	1.68938	0	
1.4693	-14.4528	-0.136977	0	
1.4700	-9.85673	-4.38325	0	
1.4707	5.98049	-1.96333	0	
1.4713	12.1271	5.98131	0	
1.4720	10.5766	10.2276	0	
1.4727	20.3226	1.68938	0	
1.4733	34.3878	-14.4739	0	
1.4740	35.8829	-19.0398	0	
1.4747	21.264	-11.1408	0	
1.4753	0.2215	-6.84883	0	
1.4760	-9.85673	-7.76201	0	
1.4767	-2.54725	-6.25527	0	
1.4773	2.658	-3.78969	0	
1.4780	-3.48862	-1.05015	0	
1.4787	-4.37462	-0.136977	0	
1.4793	3.54399	-3.47007	0	
1.4800	7.19874	-5.34209	0	
1.4807	4.15312	-2.5569	0	
1.4813	-0.11075	-0.456589	0	
1.4820	-3.76549	-0.730542	0	
1.4827	-3.76549	-1.96333	0	
1.4833	-1.329	-3.19612	0	
1.4840	-2.54725	-1.64372	0	
1.4847	-8.97073	-0.730542	0	
1.4853	-9.24761	-2.5569	0	
1.4860	-0.996748	-1.36977	0	
1.4867	3.54399	1.09581	0	
1.4873	0.2215	-0.456589	0	
1.4880	-0.11075	-0.730542	0	
1.4887	3.87624	1.41543	0	
1.4893	7.19874	0.456589	0	
1.4900	8.14011	-0.730542	0	
1.4907	8.74923	0.182636	0	
1.4913	17.0001	-2.5569	0	
1.4920	33.1696	-4.38325	0	
1.4927	45.0752	-2.28294	0	
1.4933	43.2478	-1.05015	0	
1.4940	31.3422	-0.730542	0	
1.4947	12.1271	1.09581	0	
1.4953	-10.7981	-0.456589	0	
1.4960	-30.3454	-3.19612	0	
1.4967	-36.1044	1.41543	0	
1.4973	-19.049	8.72085	0	
1.4980	10.2444	11.78	0	
1.4987	23.9773	13.2867	0	
1.4993	13.0131	12.6932	0	
1.5000	-2.54725	5.98131	0	
1.5007	-9.85673	1.09581	0	
1.5013	-16.2802	-0.136977	0	
1.5020	-26.6353	-2.28294	0	
1.5027	-31.2314	-5.34209	0	
1.5033	-23.5897	-9.26875	0	
1.5040	-9.85673	-13.5607	0	
1.5047	4.76224	-10.8212	0	
1.5053	15.7818	-2.87651	0	
1.5060	15.4496	1.09581	0	
1.5067	2.93487	2.92217	0	
1.5073	-15.3388	4.15496	0	
1.5080	-30.3454	2.00899	0	
1.5087	-35.2184	5.06814	0	
1.5093	-36.4367	14.5195	0	
1.5100	-37.3227	19.7246	0	
1.5107	-27.2445	19.7246	0	
1.5113	-11.6841	11.78	0	
1.5120	-7.14336	-5.93565	0	
1.5127	-8.63848	-18.1266	0	
1.5133	-4.09774	-16.6198	0	
1.5140	1.43975	-12.0539	0	
1.5147	1.1075	-9.58836	0	
1.5153	0.830624	-9.90798	0	
1.5160	6.58961	-11.7343	0	
1.5167	17.6092	-5.61604	0	
1.5173	30.7331	5.6617	0	
1.5180	40.4791	5.98131	0	
1.5187	41.6973	-4.38325	0	
1.5193	35.2738	-12.0539	0	
1.5200	23.9773	-10.5015	0	
1.5207	9.02611	-4.38325	0	
1.5213	-8.02936	-1.96333	0	
1.5220	-24.5311	-3.19612	0	
1.5227	-34.2771	-1.64372	0	
1.5233	-28.1858	-0.730542	0	
1.5240	-14.4528	-3.78969	0	
1.5247	-8.02936	-5.61604	0	
1.5253	-7.14336	-3.47007	0	
1.5260	-2.87949	1.41543	0	
1.5267	-0.719874	7.48806	0	
1.5273	-2.215	10.8668	0	
1.5280	5.09449	10.2276	0	
1.5287	22.15	8.40123	0	
1.5293	38.9839	2.92217	0	
1.5300	51.7755	-5.34209	0	
1.5307	53.326	-7.16844	0	
1.5313	32.2282	-3.47007	0	
1.5320	2.04887	-2.5569	0	
1.5327	-9.85673	-2.28294	0	
1.5333	-8.02936	3.83535	0	
1.5340	-9.85673	10.8668	0	
1.5347	-10.7981	9.31441	0	
1.5353	-10.7981	-2.5569	0	
1.5360	-21.1532	-15.387	0	
1.5367	-31.8406	-17.8526	0	
1.5373	-27.2445	-9.58836	0	
1.5380	-18.1076	-4.70286	0	
1.5387	-14.7297	-6.25527	0	
1.5393	-12.0164	-5.02248	0	
1.5400	-7.14336	-1.36977	0	
1.5407	-4.09774	-0.136977	0	
1.5413	-1.93812	1.09581	0	
1.5420	1.1075	1.68938	0	
1.5427	4.76224	-1.96333	0	
1.5433	7.19874	-3.19612	0	
1.5440	7.19874	1.09581	0	
1.5447	5.98049	1.09581	0	
1.5453	5.70361	-2.5569	0	
1.5460	7.53099	-0.730542	0	
1.5467	10.2444	2.92217	0	
1.5473	11.1857	2.92217	0	
1.5480	7.80786	2.60256	0	
1.5487	1.1075	1.68938	0	
1.5493	-2.54725	-0.136977	0	
1.5500	-1.60587	-1.05015	0	
1.5507	-3.76549	-0.730542	0	
1.5513	-8.97073	-1.36977	0	
1.5520	-3.15637	-1.64372	0	
1.5527	7.53099	-1.96333	0	
1.5533	6.92186	-1.64372	0	
1.5540	0.2215	0.182636	0	
1.5547	-0.719874	0.182636	0	
1.5553	-3.76549	-0.456589	0	
1.5560	-11.6841	1.09581	0	
1.5567	-14.4528	2.92217	0	
1.5573	-10.7981	2.00899	0	
1.5580	-5.59287	1.09581	0	
1.5587	-2.215	1.09581	0	
1.5593	-5.59287	-0.730542	0	
1.5600	-12.0164	-1.64372	0	
1.5607	-14.1206	0.776201	0	
1.5613	-15.6711	2.00899	0	
1.5620	-18.7167	-1.64372	0	
1.5627	-15.062	-6.25527	0	
1.5633	-6.20199	-5.02248	0	
1.5640	-1.93812	-1.64372	0	
1.5647	0.2215	-2.28294	0	
1.5653	7.80786	-4.38325	0	
1.5660	22.15	-4.38325	0	
1.5667	34.9969	-3.47007	0	
1.5673	40.4791	-3.47007	0	
1.5680	41.4204	-3.47007	0	
1.5687	40.8113	-4.38325	0	
1.5693	30.1239	-5.02248	0	
1.5700	9.35836	-4.38325	0	
1.5707	-10.7981	-4.1093	0	
1.5713	-28.1858	-5.61604	0	
1.5720	-39.7592	-6.84883	0	
1.5727	-33.0588	-5.34209	0	
1.5733	-11.6841	-3.19612	0	
1.5740	6.92186	-2.87651	0	
1.5747	15.4496	-3.78969	0	
1.5753	16.0587	-4.1093	0	
1.5760	12.1271	-3.47007	0	
1.5767	0.830624	-2.5569	0	
1.5773	-23.5897	-2.5569	0	
1.5780	-49.5605	-5.02248	0	
1.5787	-60.2479	-7.4424	0	
1.5793	-60.5248	-8.08162	0	
1.5800	-53.4922	-5.02248	0	
1.5807	-30.3454	2.00899	0	
1.5813	-4.37462	7.48806	0	
1.5820	11.518	6.57488	0	
1.5827	27.6875	4.74852	0	
1.5833	42.3064	2.3286	0	
1.5840	45.352	-3.78969	0	
1.5847	46.9025	-6.84883	0	
1.5853	50.5573	2.92217	0	
1.5860	43.2478	9.63402	0	
1.5867	22.7591	1.09581	0	
1.5873	0.2215	-6.25527	0	
1.5880	-19.6581	0.182636	0	
1.5887	-34.6093	5.98131	0	
1.5893	-40.0914	5.34209	0	
1.5900	-38.5409	5.98131	0	
1.5907	-33.6679	4.74852	0	
1.5913	-24.808	-0.136977	0	
1.5920	-13.8437	0.456589	0	
1.5927	-6.53424	4.74852	0	
1.5933	1.71662	5.98131	0	
1.5940	18.8275	8.72085	0	
1.5947	34.3878	12.0539	0	
1.5953	33.4464	10.5472	0	
1.5960	24.3096	9.31441	0	
1.5967	23.0913	11.4604	0	
1.5973	24.3096	12.9671	0	
1.5980	13.9545	12.9671	0	
1.5987	-4.70687	12.0539	0	
1.5993	-10.189	9.31441	0	
1.6000	-0.387624	1.09581	0	
1.6007	8.41699	-12.3279	0	
1.6013	9.35836	-23.3317	0	
1.6020	4.76224	-23.9253	0	
1.6027	-1.93812	-19.0398	0	
1.6033	-1.60587	-12.9671	0	
1.6040	4.15312	-7.16844	0	
1.6047	5.37137	-5.34209	0	
1.6053	0.498374	-4.38325	0	
1.6060	-6.20199	-1.05015	0	
1.6067	-13.8437	0.456589	0	
1.6073	-19.935	-0.136977	0	
1.6080	-23.5897	1.41543	0	
1.6087	-25.4171	1.09581	0	
1.6093	-21.4855	-2.28294	0	
1.6100	-16.2802	-1.36977	0	
1.6107	-13.2346	4.74852	0	
1.6113	-8.97073	9.31441	0	
1.6120	-5.31599	9.63402	0	
1.6127	-4.37462	8.40123	0	
1.6133	3.87624	9.31441	0	
1.6140	17.8861	12.3736	0	
1.6147	27.0783	14.1999	0	
1.6153	39.5931	12.0539	0	
1.6160	62.4629	5.98131	0	
1.6167	69.7724	-4.70286	0	
1.6173	44.7429	-15.387	0	
1.6180	14.2313	-15.9806	0	
1.6187	0.2215	-8.35557	0	
1.6193	-12.6255	-3.19612	0	
1.6200	-34.0002	-1.36977	0	
1.6207	-51.0557	0.182636	0	
1.6213	-51.6648	0.776201	0	
1.6220	-35.4953	1.41543	0	
1.6227	-17.8307	1.68938	0	
1.6233	-10.7981	-1.64372	0	
1.6240	-13.2346	-4.1093	0	
1.6247	-21.1532	-1.96333	0	
1.6253	-27.2445	0.182636	0	
1.6260	-19.6581	2.3286	0	
1.6267	-4.70687	4.42891	0	
1.6273	1.43975	4.42891	0	
1.6280	0.498374	4.15496	0	
1.6287	2.93487	5.06814	0	
1.6293	8.41699	3.24178	0	
1.6300	12.1271	1.68938	0	
1.6307	12.404	3.51573	0	
1.6313	11.1857	3.24178	0	
1.6320	8.41699	0.776201	0	
1.6327	3.26712	1.41543	0	
1.6333	-1.60587	3.24178	0	
1.6340	-7.14336	3.83535	0	
1.6347	-16.2802	3.24178	0	
1.6353	-24.5311	2.00899	0	
1.6360	-25.1402	2.00899	0	
1.6367	-17.2216	2.00899	0	
1.6373	-7.42024	1.41543	0	
1.6380	-2.54725	2.00899	0	
1.6387	-2.54725	3.24178	0	
1.6393	-2.215	2.00899	0	
1.6400	-2.54725	-1.05015	0	
1.6407	-2.54725	-2.5569	0	
1.6413	5.70361	-1.64372	0	
1.6420	13.9545	2.00899	0	
1.6427	13.0131	3.83535	0	
1.6433	8.74923	2.60256	0	
1.6440	2.93487	2.00899	0	
1.6447	-6.20199	2.00899	0	
1.6453	-6.81111	-0.730542	0	
1.6460	-0.387624	-0.730542	0	
1.6467	0.2215	3.24178	0	
1.6473	0.2215	3.24178	0	
1.6480	3.26712	0.456589	0	
1.6487	0.830624	1.68938	0	
1.6493	-1.329	1.09581	0	
1.6500	4.76224	-1.36977	0	
1.6507	11.518	1.68938	0	
1.6513	14.8405	5.6617	0	
1.6520	19.4366	4.74852	0	
1.6527	24.9187	5.6617	0	
1.6533	36.8243	4.74852	0	
1.6540	51.4433	-1.64372	0	
1.6547	56.6485	-5.02248	0	
1.6553	54.8212	-4.70286	0	
1.6560	51.4433	-0.730542	0	
1.6567	40.4791	11.1408	0	
1.6573	28.2966	12.0539	0	
1.6580	25.8601	-8.08162	0	
1.6587	19.7135	-16.3002	0	
1.6593	6.92186	-1.05015	0	
1.6600	-2.87949	6.89449	0	
1.6607	-20.8763	-1.64372	0	
1.6613	-42.5279	-7.16844	0	
1.6620	-38.5409	-5.34209	0	
1.6627	-15.3388	-4.38325	0	
1.6633	-0.719874	-7.16844	0	
1.6640	6.31274	-12.0539	0	
1.6647	2.93487	-15.387	0	
1.6653	-16.2802	-13.2411	0	
1.6660	-32.7819	-5.34209	0	
1.6667	-39.1501	2.60256	0	
1.6673	-49.2283	5.6617	0	
1.6680	-45.9058	5.6617	0	
1.6687	-16.2802	7.80767	0	
1.6693	6.31274	11.1408	0	
1.6700	-2.54725	9.95364	0	
1.6707	-20.8763	6.89449	0	
1.6713	-25.1402	2.92217	0	
1.6720	-21.1532	-4.1093	0	
1.6727	-22.3715	-7.16844	0	
1.6733	-25.1402	-4.38325	0	
1.6740	-20.2672	-7.16844	0	
1.6747	-17.2216	-14.4739	0	
1.6753	-20.8763	-15.387	0	
1.6760	-15.3388	-9.90798	0	
1.6767	-3.48862	-8.08162	0	
1.6773	1.71662	-8.35557	0	
1.6780	6.58961	-7.76201	0	
1.6787	13.0131	-5.34209	0	
1.6793	10.5766	-3.47007	0	
1.6800	5.37137	-4.38325	0	
1.6807	4.76224	-4.38325	0	
1.6813	4.76224	0.182636	0	
1.6820	8.41699	2.92217	0	
1.6827	13.6222	1.41543	0	
1.6833	13.0131	2.00899	0	
1.6840	12.7362	2.92217	0	
1.6847	14.8405	0.182636	0	
1.6853	12.1271	-0.730542	0	
1.6860	9.35836	1.41543	0	
1.6867	9.96748	0.182636	0	
1.6873	11.1857	-2.87651	0	
1.6880	17.6092	-3.47007	0	
1.6887	28.2966	-2.28294	0	
1.6893	32.2282	-1.64372	0	
1.6900	29.1826	-0.730542	0	
1.6907	23.9773	1.09581	0	
1.6913	22.15	3.24178	0	
1.6920	28.2966	3.24178	0	
1.6927	31.9513	2.00899	0	
1.6933	26.137	1.09581	0	
1.6940	22.15	2.00899	0	
1.6947	16.6678	2.60256	0	
1.6953	-6.81111	1.41543	0	
1.6960	-41.9188	2.00899	0	
1.6967	-64.7886	2.92217	0	
1.6973	-63.5704	1.09581	0	
1.6980	-43.7462	0.182636	0	
1.6987	-20.8763	2.00899	0	
1.6993	-7.14336	2.00899	0	
1.7000	-5.31599	1.68938	0	
1.7007	-10.7981	4.74852	0	
1.7013	-15.3388	5.98131	0	
1.7020	-12.6255	6.25527	0	
1.7027	-2.215	9.04046	0	
1.7033	8.41699	5.6617	0	
1.7040	9.35836	-1.64372	0	
1.7047	5.70361	-0.730542	0	
1.7053	8.41699	3.51573	0	
1.7060	11.1857	1.68938	0	
1.7067	15.7818	1.09581	0	
1.7073	37.7103	2.92217	0	
1.7080	58.8081	2.00899	0	
1.7087	49.0068	1.68938	0	
1.7093	17.0001	2.00899	0	
1.7100	-15.3388	-0.456589	0	
1.7107	-37.6549	-0.730542	0	
1.7113	-43.7462	1.09581	0	
1.7120	-41.3097	1.41543	0	
1.7127	-42.8048	1.09581	0	
1.7133	-40.9774	2.3286	0	
1.7140	-29.6809	3.51573	0	
1.7147	-16.2802	5.6617	0	
1.7153	-8.02936	5.98131	0	
1.7160	-2.54725	4.74852	0	
1.7167	-0.719874	5.06814	0	
1.7173	-5.31599	5.98131	0	
1.7180	-10.7981	6.57488	0	
1.7187	-9.24761	9.95364	0	
1.7193	-4.98374	9.95364	0	
1.7200	-8.02936	1.09581	0	
1.7207	-14.7297	-9.58836	0	
1.7213	-19.935	-14.7935	0	
1.7220	-24.808	-13.2411	0	
1.7227	-23.3128	-5.34209	0	
1.7233	-11.6841	1.09581	0	
1.7240	-1.60587	1.41543	0	
1.7247	0.498374	2.3286	0	
1.7253	3.26712	7.80767	0	
1.7260	6.31274	16.0263	0	
1.7267	10.2444	23.3773	0	
1.7273	23.9773	15.7523	0	
1.7280	40.8113	-8.9948	0	
1.7287	43.2478	-21.1857	0	
1.7293	32.2282	-11.4147	0	
1.7300	16.391	-4.1093	0	
1.7307	1.1075	-5.34209	0	
1.7313	-8.02936	-2.5569	0	
1.7320	-8.36161	-0.730542	0	
1.7327	-4.98374	-4.1093	0	
1.7333	-7.14336	-5.34209	0	
1.7340	-19.049	-5.61604	0	
1.7347	-24.5311	-7.16844	0	
1.7353	-11.4072	-8.67519	0	
1.7360	1.43975	-13.2411	0	
1.7367	3.87624	-16.3002	0	
1.7373	14.8405	-12.0539	0	
1.7380	38.9839	-7.4424	0	
1.7387	63.3489	-6.25527	0	
1.7393	79.8506	-4.38325	0	
1.7400	77.0819	-3.19612	0	
1.7407	58.8081	-2.87651	0	
1.7413	42.6387	-1.36977	0	
1.7420	18.8275	-0.730542	0	
1.7427	-23.5897	-0.730542	0	
1.7433	-52.2739	1.09581	0	
1.7440	-51.0557	1.68938	0	
1.7447	-45.5735	-0.136977	0	
1.7453	-44.3553	-0.730542	0	
1.7460	-37.0458	-0.730542	0	
1.7467	-26.6353	-1.96333	0	
1.7473	-16.8893	-2.28294	0	
1.7480	-6.20199	-1.64372	0	
1.7487	1.1075	-0.730542	0	
1.7493	3.54399	1.09581	0	
1.7500	2.32575	2.92217	0	
1.7507	-3.76549	1.09581	0	
1.7513	-6.20199	0.182636	0	
1.7520	-3.15637	2.00899	0	
1.7527	-2.54725	2.92217	0	
1.7533	2.93487	1.09581	0	
1.7540	23.3682	-0.730542	0	
1.7547	49.0068	-4.70286	0	
1.7553	63.958	-8.67519	0	
1.7560	61.8538	-6.25527	0	
1.7567	39.8699	1.09581	0	
1.7573	7.53099	4.15496	0	
1.7580	-22.9806	2.92217	0	
1.7587	-51.6648	3.83535	0	
1.7593	-70.2708	3.24178	0	
1.7600	-60.2479	-1.05015	0	
1.7607	-35.8276	-1.96333	0	
1.7613	-22.9806	-0.136977	0	
1.7620	-21.7623	-2.5569	0	
1.7627	-22.0946	-4.38325	0	
1.7633	-26.3585	-2.28294	0	
1.7640	-30.0132	-1.05015	0	
1.7647	-25.4171	-2.5569	0	
1.7653	-17.2216	-2.5569	0	
1.7660	-11.4072	-2.5569	0	
1.7667	-5.92511	-2.87651	0	
1.7673	-1.329	-1.96333	0	
1.7680	0.830624	-0.730542	0	
1.7687	1.43975	-0.730542	0	
1.7693	0.2215	1.09581	0	
1.7700	-3.48862	5.6617	0	
1.7707	-8.02936	11.78	0	
1.7713	-8.97073	12.0539	0	
1.7720	-5.92511	6.89449	0	
1.7727	-1.93812	5.6617	0	
1.7733	-1.329	8.40123	0	
1.7740	1.1075	6.25527	0	
1.7747	8.74923	1.09581	0	
1.7753	12.404	-2.28294	0	
1.7760	6.31274	-4.38325	0	
1.7767	1.1075	-2.87651	0	
1.7773	6.58961	-4.38325	0	
1.7780	14.2313	-10.5015	0	
1.7787	19.4366	-9.90798	0	
1.7793	24.9187	-2.28294	0	
1.7800	27.6875	-1.05015	0	
1.7807	25.8601	-4.38325	0	
1.7813	26.7461	-5.34209	0	
1.7820	25.251	-5.93565	0	
1.7827	13.9545	-4.38325	0	
1.7833	2.658	-1.64372	0	
1.7840	-1.60587	-2.5569	0	
1.7847	-10.7981	-1.64372	0	
1.7853	-20.8763	2.92217	0	
1.7860	-19.935	-0.730542	0	
1.7867	-16.2802	-9.26875	0	
1.7873	-10.7981	-8.35557	0	
1.7880	0.830624	-1.36977	0	
1.7887	8.14011	-2.28294	0	
1.7893	7.19874	-9.90798	0	
1.7900	9.63523	-13.8803	0	
1.7907	12.1271	-9.26875	0	
1.7913	2.93487	-4.1093	0	
1.7920	-9.85673	-3.47007	0	
1.7927	-12.2932	-2.5569	0	
1.7933	-4.37462	0.776201	0	
1.7940	4.48537	2.00899	0	
1.7947	10.2444	1.09581	0	
1.7953	16.6678	1.41543	0	
1.7960	24.9187	1.09581	0	
1.7967	27.3552	-1.05015	0	
1.7973	13.9545	-1.64372	0	
1.7980	-12.6255	-0.456589	0	
1.7987	-31.8406	1.09581	0	
1.7993	-28.1858	1.41543	0	
1.8000	-14.1206	-0.136977	0	
1.8007	-3.48862	-1.05015	0	
1.8013	5.98049	4.74852	0	
1.8020	13.3454	19.405	0	
1.8027	15.7818	27.6236	0	
1.8033	19.1043	16.6655	0	
1.8040	25.5278	-2.5569	0	
1.8047	31.0099	-6.84883	0	
1.8053	36.8243	1.68938	0	
1.8060	46.5703	7.48806	0	
1.8067	57.8668	5.98131	0	
1.8073	64.2903	3.51573	0	
1.8080	59.6941	5.34209	0	
1.8087	43.5247	5.98131	0	
1.8093	18.4952	4.15496	0	
1.8100	-11.6841	10.2276	0	
1.8107	-43.137	22.7381	0	
1.8113	-74.8669	27.6236	0	
1.8120	-91.0363	25.7973	0	
1.8127	-72.7626	20.3182	0	
1.8133	-33.0588	14.8391	0	
1.8140	-9.85673	14.8391	0	
1.8147	-18.1076	11.1408	0	
1.8153	-34.6093	-0.730542	0	
1.8160	-39.7592	-8.08162	0	
1.8167	-40.0914	-13.5607	0	
1.8173	-45.2967	-28.5368	0	
1.8180	-40.0914	-35.5226	0	
1.8187	-17.2216	-23.3317	0	
1.8193	-3.48862	-12.0539	0	
1.8200	-13.8437	-9.58836	0	
1.8207	-22.0946	-8.35557	0	
1.8213	-16.2802	-7.76201	0	
1.8220	-16.2802	-7.16844	0	
1.8227	-24.808	-5.34209	0	
1.8233	-25.1402	-5.02248	0	
1.8240	-16.2802	-4.1093	0	
1.8247	-8.02936	-2.28294	0	
1.8253	1.71662	-1.05015	0	
1.8260	12.1271	0.776201	0	
1.8267	12.1271	0.456589	0	
1.8273	4.15312	-4.1093	0	
1.8280	2.658	-6.84883	0	
1.8287	3.54399	-5.93565	0	
1.8293	2.04887	-5.61604	0	
1.8300	9.02611	-5.34209	0	
1.8307	23.0913	-3.78969	0	
1.8313	29.1826	-4.70286	0	
1.8320	22.15	-5.93565	0	
1.8327	8.14011	-4.38325	0	
1.8333	2.04887	-4.38325	0	
1.8340	10.2444	-7.16844	0	
1.8347	15.4496	-6.84883	0	
1.8353	5.70361	-2.28294	0	
1.8360	-2.54725	1.68938	0	
1.8367	-2.54725	4.42891	0	
1.8373	-0.719874	8.72085	0	
1.8380	4.15312	9.95364	0	
1.8387	8.41699	3.51573	0	
1.8393	4.48537	-4.1093	0	
1.8400	0.2215	-6.52922	0	
1.8407	5.70361	-6.84883	0	
1.8413	12.7362	-5.93565	0	
1.8420	9.35836	-0.730542	0	
1.8427	0.830624	7.48806	0	
1.8433	-0.387624	12.0539	0	
1.8440	4.48537	9.63402	0	
1.8447	3.87624	5.6617	0	
1.8453	1.71662	2.00899	0	
1.8460	6.92186	-4.38325	0	
1.8467	11.7949	-10.5015	0	
1.8473	10.2444	-8.9948	0	
1.8480	9.96748	-5.02248	0	
1.8487	13.0131	-5.61604	0	
1.8493	13.3454	-6.84883	0	
1.8500	13.3454	-4.70286	0	
1.8507	15.4496	-3.19612	0	
1.8513	18.2183	-1.96333	0	
1.8520	19.4366	1.41543	0	
1.8527	17.277	3.83535	0	
1.8533	16.6678	3.24178	0	
1.8540	23.3682	1.41543	0	
1.8547	32.2282	1.09581	0	
1.8553	34.0556	2.60256	0	
1.8560	16.0587	3.24178	0	
1.8567	-17.2216	2.00899	0	
1.8573	-37.0458	1.09581	0	
1.8580	-36.4367	1.09581	0	
1.8587	-42.5279	0.776201	0	
1.8593	-51.6648	2.3286	0	
1.8600	-40.3683	4.74852	0	
1.8607	-22.7037	4.15496	0	
1.8613	-14.7297	2.92217	0	
1.8620	-4.37462	3.24178	0	
1.8627	8.41699	0.776201	0	
1.8633	12.1271	-3.19612	0	
1.8640	13.6222	0.182636	0	
1.8647	21.5408	8.12728	0	
1.8653	31.0099	8.40123	0	
1.8660	31.9513	-1.96333	0	
1.8667	13.0131	-10.8212	0	
1.8673	-20.5441	-6.52922	0	
1.8680	-34.8862	1.68938	0	
1.8687	-14.7297	-0.730542	0	
1.8693	4.15312	-7.76201	0	
1.8700	-4.37462	-7.16844	0	
1.8707	-16.2802	-4.1093	0	
1.8713	-16.6125	-5.93565	0	
1.8720	-29.4041	-4.70286	0	
1.8727	-51.3879	1.68938	0	
1.8733	-52.2739	3.24178	0	
1.8740	-34.2771	0.456589	0	
1.8747	-13.8437	0.182636	0	
1.8753	8.41699	1.09581	0	
1.8760	22.15	1.09581	0	
1.8767	14.2313	2.60256	0	
1.8773	3.87624	3.24178	0	
1.8780	10.2444	2.3286	0	
1.8787	24.9187	-1.05015	0	
1.8793	37.7103	-8.08162	0	
1.8800	48.7299	-10.8212	0	
1.8807	45.9612	-4.70286	0	
1.8813	25.5278	-2.5569	0	
1.8820	5.37137	-4.38325	0	
1.8827	-3.48862	-0.136977	0	
1.8833	-8.63848	3.83535	0	
1.8840	-13.8437	0.182636	0	
1.8847	-15.062	0.182636	0	
1.8853	-15.3388	4.15496	0	
1.8860	-19.049	4.15496	0	
1.8867	-25.4171	1.09581	0	
1.8873	-30.9546	-2.5569	0	
1.8880	-34.8862	-2.28294	0	
1.8887	-36.4367	4.15496	0	
1.8893	-30.0132	6.25527	0	
1.8900	-16.2802	3.83535	0	
1.8907	-5.92511	8.12728	0	
1.8913	-4.37462	11.4604	0	
1.8920	-3.15637	6.57488	0	
1.8927	1.71662	2.3286	0	
1.8933	3.87624	-1.64372	0	
1.8940	2.93487	-8.08162	0	
1.8947	-0.719874	-9.26875	0	
1.8953	-7.14336	-8.35557	0	
1.8960	-10.7981	-11.7343	0	
1.8967	-11.075	-8.9948	0	
1.8973	-7.14336	-1.05015	0	
1.8980	15.7818	1.09581	0	
1.8987	51.7755	-0.730542	0	
1.8993	63.3489	-2.28294	0	
1.9000	44.466	-5.34209	0	
1.9007	30.4008	-5.61604	0	
1.9013	28.5734	-1.96333	0	
1.9020	20.6548	-2.28294	0	
1.9027	10.2444	-3.78969	0	
1.9033	3.87624	-0.456589	0	
1.9040	-3.48862	2.92217	0	
1.9047	-0.719874	1.09581	0	
1.9053	20.0457	-0.136977	0	
1.9060	42.9155	1.09581	0	
1.9067	49.6159	-0.136977	0	
1.9073	38.3194	-3.47007	0	
1.9080	19.4366	-5.34209	0	
1.9087	6.31274	-3.19612	0	
1.9093	-6.20199	2.00899	0	
1.9100	-24.1988	1.68938	0	
1.9107	-32.1728	-5.34209	0	
1.9113	-20.8763	-7.16844	0	
1.9120	-5.92511	-1.96333	0	
1.9127	1.1075	0.182636	0	
1.9133	-1.60587	0.776201	0	
1.9140	-9.57986	3.83535	0	
1.9147	-14.7297	2.92217	0	
1.9153	-19.049	-0.136977	0	
1.9160	-30.0132	2.3286	0	
1.9167	-37.9318	6.57488	0	
1.9173	-30.0132	5.6617	0	
1.9180	-14.4528	5.06814	0	
1.9187	-6.53424	9.31441	0	
1.9193	-5.31599	11.1408	0	
1.9200	-4.70687	6.89449	0	
1.9207	-2.54725	5.34209	0	
1.9213	0.498374	14.5195	0	
1.9220	7.53099	21.8249	0	
1.9227	20.6548	8.40123	0	
1.9233	35.8829	-15.7067	0	
1.9240	54.212	-24.8384	0	
1.9247	68.5541	-16.9394	0	
1.9253	54.212	-8.08162	0	
1.9260	13.0131	-2.87651	0	
1.9267	-19.3258	2.60256	0	
1.9273	-31.8406	5.34209	0	
1.9280	-45.2967	5.06814	0	
1.9287	-58.4205	5.98131	0	
1.9293	-48.6192	6.57488	0	
1.9300	-21.7623	3.51573	0	
1.9307	-4.09774	-0.730542	0	
1.9313	-3.48862	-1.64372	0	
1.9320	-6.20199	2.00899	0	
1.9327	-2.54725	4.74852	0	
1.9333	-5.31599	2.92217	0	
1.9340	-18.4398	1.41543	0	
1.9347	-27.2445	2.60256	0	
1.9353	-25.4171	0.456589	0	
1.9360	-19.049	-1.64372	0	
1.9367	-10.189	2.60256	0	
1.9373	-3.76549	10.5472	0	
1.9380	-4.98374	21.2314	0	
1.9387	-3.48862	34.0615	0	
1.9393	9.63523	38.3078	0	
1.9400	26.7461	28.5368	0	
1.9407	30.7331	14.1999	0	
1.9413	14.8405	2.00899	0	
1.9420	-9.24761	-6.25527	0	
1.9427	-25.4171	-10.8212	0	
1.9433	-31.2314	-11.7343	0	
1.9440	-31.5637	-11.7343	0	
1.9447	-26.9676	-12.6475	0	
1.9453	-20.2672	-14.1543	0	
1.9460	-14.7297	-14.7935	0	
1.9467	-11.4072	-13.2411	0	
1.9473	-9.85673	-12.0539	0	
1.9480	-6.20199	-11.7343	0	
1.9487	1.1075	-10.1819	0	
1.9493	5.70361	-6.84883	0	
1.9500	5.70361	-5.61604	0	
1.9507	4.76224	-8.08162	0	
1.9513	6.58961	-8.67519	0	
1.9520	9.63523	-6.25527	0	
1.9527	13.3454	-6.25527	0	
1.9533	16.6678	-10.5015	0	
1.9540	18.4952	-9.90798	0	
1.9547	15.7818	-5.93565	0	
1.9553	13.6222	-5.61604	0	
1.9560	17.277	-4.70286	0	
1.9567	19.4366	-1.36977	0	
1.9573	14.8405	-2.28294	0	
1.9580	10.8535	-5.34209	0	
1.9587	3.26712	-3.78969	0	
1.9593	-11.6841	-3.19612	0	
1.9600	-18.1076	-6.25527	0	
1.9607	-13.8437	-5.34209	0	
1.9613	-15.3388	-0.456589	0	
1.9620	-14.4528	1.41543	0	
1.9627	0.830624	0.776201	0	
1.9633	19.1043	1.68938	0	
1.9640	32.2282	2.00899	0	
1.9647	42.3064	1.41543	0	
1.9653	37.4334	2.00899	0	
1.9660	21.264	-1.64372	0	
1.9667	15.4496	-5.93565	0	
1.9673	20.3226	-1.64372	0	
1.9680	18.8275	3.83535	0	
1.9687	10.8535	0.182636	0	
1.9693	3.54399	-3.47007	0	
1.9700	3.26712	-1.05015	0	
1.9707	8.74923	1.68938	0	
1.9713	5.09449	1.68938	0	
1.9720	-7.14336	-0.456589	0	
1.9727	-8.02936	-2.5569	0	
1.9733	-5.31599	-1.05015	0	
1.9740	-19.935	1.41543	0	
1.9747	-37.3227	1.41543	0	
1.9753	-39.4823	2.3286	0	
1.9760	-37.0458	3.51573	0	
1.9767	-38.2641	0.776201	0	
1.9773	-40.9774	-1.05015	0	
1.9780	-44.0784	-2.5569	0	
1.9787	-39.1501	-8.35557	0	
1.9793	-21.7623	-11.7343	0	
1.9800	-1.329	-5.02248	0	
1.9807	14.8405	1.09581	0	
1.9813	18.4952	3.83535	0	
1.9820	6.92186	13.926	0	
1.9827	-0.719874	26.1169	0	
1.9833	6.58961	26.7104	0	
1.9840	13.9545	19.0854	0	
1.9847	10.5766	9.31441	0	
1.9853	2.93487	-0.136977	0	
1.9860	0.2215	-2.28294	0	
1.9867	5.70361	1.09581	0	
1.9873	10.2444	-4.38325	0	
1.9880	8.74923	-13.8803	0	
1.9887	12.7362	-12.6475	0	
1.9893	23.3682	-4.1093	0	
1.9900	25.8601	3.83535	0	
1.9907	19.1043	9.31441	0	
1.9913	11.518	10.2276	0	
1.9920	-0.719874	6.57488	0	
1.9927	-21.4855	6.25527	0	
1.9933	-36.4367	5.34209	0	
1.9940	-30.0132	1.09581	0	
1.9947	-8.02936	0.776201	0	
1.9953	8.14011	2.00899	0	
1.9960	11.7949	1.09581	0	
1.9967	13.3454	1.68938	0	
1.9973	15.7818	3.24178	0	
1.9980	11.518	1.41543	0	
1.9987	3.26712	0.776201	0	
1.9993	0.2215	4.42891	0	
2.0000	-0.719874	7.48806	0	
2.0007	-6.53424	7.80767	0	
2.0013	-14.4528	2.00899	0	
2.0020	-19.6581	-9.58836	0	
2.0027	-22.9806	-13.5607	0	
2.0033	-16.2802	-6.52922	0	
2.0040	3.54399	-1.05015	0	
2.0047	17.6092	-0.136977	0	
2.0053	14.2313	2.3286	0	
2.0060	8.41699	3.51573	0	
2.0067	9.35836	2.00899	0	
2.0073	9.96748	5.6617	0	
2.0080	7.19874	10.5472	0	
2.0087	3.54399	11.1408	0	
2.0093	0.830624	12.0539	0	
2.0100	0.2215	12.9671	0	
2.0107	-0.11075	7.48806	0	
2.0113	0.830624	-0.730542	0	
2.0120	2.93487	-8.35557	0	
2.0127	3.54399	-19.3594	0	
2.0133	4.76224	-24.8384	0	
2.0140	8.41699	-17.2134	0	
2.0147	13.6222	-7.16844	0	
2.0153	23.0913	-5.02248	0	
2.0160	34.9969	-4.38325	0	
2.0167	41.6973	-3.47007	0	
2.0173	56.0394	-4.1093	0	
2.0180	84.7236	-4.70286	0	
2.0187	98.4566	-5.02248	0	
2.0193	78.0232	-2.28294	0	
2.0200	43.8569	6.57488	0	
2.0207	16.0587	9.31441	0	
2.0213	-0.719874	-1.05015	0	
2.0220	-15.062	-10.5015	0	
2.0227	-34.0002	-9.26875	0	
2.0233	-41.5866	-8.9948	0	
2.0240	-29.6809	-12.3279	0	
2.0247	-26.0262	-9.58836	0	
2.0253	-40.0914	-1.64372	0	
2.0260	-46.5149	2.00899	0	
2.0267	-39.4823	1.09581	0	
2.0273	-36.1044	-0.456589	0	
2.0280	-39.1501	-0.730542	0	
2.0287	-46.7918	-0.136977	0	
2.0293	-54.7104	-1.36977	0	
2.0300	-50.4465	-0.730542	0	
2.0307	-32.4497	5.06814	0	
2.0313	-14.7297	9.31441	0	
2.0320	-2.54725	3.83535	0	
2.0327	18.4952	-3.47007	0	
2.0333	45.0752	-4.1093	0	
2.0340	51.1664	-1.64372	0	
2.0347	33.7787	0.776201	0	
2.0353	17.6092	3.83535	0	
2.0360	3.26712	4.74852	0	
2.0367	-21.7623	4.74852	0	
2.0373	-39.1501	5.6617	0	
2.0380	-32.7819	3.51573	0	
2.0387	-20.8763	-1.64372	0	
2.0393	-19.6581	-2.5569	0	
2.0400	-16.2802	1.41543	0	
2.0407	-1.329	3.83535	0	
2.0413	13.0131	8.72085	0	
2.0420	15.1727	16.6655	0	
2.0427	9.02611	17.5787	0	
2.0433	-0.387624	11.1408	0	
2.0440	-10.7981	5.34209	0	
2.0447	-16.2802	-0.730542	0	
2.0453	-15.062	-6.84883	0	
2.0460	-14.1206	-7.16844	0	
2.0467	-16.2802	-4.70286	0	
2.0473	-18.1076	-5.02248	0	
2.0480	-17.4985	-3.78969	0	
2.0487	-11.6841	-1.05015	0	
2.0493	4.15312	-0.456589	0	
2.0500	23.0913	0.456589	0	
2.0507	30.1239	2.60256	0	
2.0513	24.9187	2.92217	0	
2.0520	19.7135	5.06814	0	
2.0527	19.4366	11.1408	0	
2.0533	17.277	14.1999	0	
2.0540	11.1857	12.9671	0	
2.0547	6.92186	11.78	0	
2.0553	7.19874	8.40123	0	
2.0560	9.63523	2.60256	0	
2.0567	18.4952	-2.5569	0	
2.0573	37.1012	-8.9948	0	
2.0580	60.9124	-14.7935	0	
2.0587	78.3001	-12.9671	0	
2.0593	72.818	-6.84883	0	
2.0600	38.6517	-3.78969	0	
2.0607	1.71662	-0.730542	0	
2.0613	-17.2216	2.60256	0	
2.0620	-35.4953	2.92217	0	
2.0627	-59.6388	2.92217	0	
2.0633	-65.3978	2.00899	0	
2.0640	-49.5605	-3.47007	0	
2.0647	-32.7819	-7.16844	0	
2.0653	-24.1988	-2.28294	0	
2.0660	-22.3715	4.42891	0	
2.0667	-19.935	8.12728	0	
2.0673	-10.4659	3.83535	0	
2.0680	1.1075	-9.58836	0	
2.0687	10.5766	-17.533	0	
2.0693	18.2183	-10.1819	0	
2.0700	19.1043	-1.64372	0	
2.0707	13.3454	-0.730542	0	
2.0713	5.70361	-1.36977	0	
2.0720	-1.93812	-1.64372	0	
2.0727	-5.31599	-1.64372	0	
2.0733	-7.75249	-0.136977	0	
2.0740	-16.6125	1.09581	0	
2.0747	-26.3585	0.776201	0	
2.0753	-27.2445	2.00899	0	
2.0760	-23.3128	3.83535	0	
2.0767	-20.2672	4.15496	0	
2.0773	-19.049	4.42891	0	
2.0780	-17.2216	4.15496	0	
2.0787	-10.7981	3.83535	0	
2.0793	-3.48862	5.6617	0	
2.0800	-2.87949	7.48806	0	
2.0807	-6.81111	6.25527	0	
2.0813	-8.02936	2.60256	0	
2.0820	-3.48862	2.00899	0	
2.0827	1.1075	5.06814	0	
2.0833	1.71662	9.31441	0	
2.0840	2.32575	10.5472	0	
2.0847	3.54399	5.98131	0	
2.0853	1.43975	-5.02248	0	
2.0860	-2.54725	-14.7935	0	
2.0867	-5.31599	-16.3002	0	
2.0873	-7.75249	-10.5015	0	
2.0880	-14.7297	-4.38325	0	
2.0887	-26.0262	-5.02248	0	
2.0893	-26.9676	-11.4147	0	
2.0900	-8.97073	-12.3279	0	
2.0907	11.518	-5.02248	0	
2.0913	18.2183	-0.136977	0	
2.0920	17.0001	-0.730542	0	
2.0927	14.2313	-0.730542	0	
2.0933	12.1271	-0.136977	0	
2.0940	15.4496	-1.64372	0	
2.0947	19.4366	-2.5569	0	
2.0953	13.6222	-1.36977	0	
2.0960	2.04887	-0.456589	0	
2.0967	-11.4072	-2.5569	0	
2.0973	-24.5311	-5.93565	0	
2.0980	-28.7949	-7.16844	0	
2.0987	-18.7167	-5.02248	0	
2.0993	-5.31599	-2.28294	0	
2.1000	1.71662	-1.64372	0	
2.1007	9.02611	-3.47007	0	
2.1013	26.137	-6.25527	0	
2.1020	48.3977	-6.25527	0	
2.1027	60.0264	-5.34209	0	
2.1033	52.7169	-5.61604	0	
2.1040	31.0099	-6.52922	0	
2.1047	1.1075	-7.76201	0	
2.1053	-31.8406	-7.16844	0	
2.1060	-55.3195	-2.5569	0	
2.1067	-56.2609	1.09581	0	
2.1073	-38.8732	-1.96333	0	
2.1080	-20.5441	-4.38325	0	
2.1087	-7.14336	-1.64372	0	
2.1093	3.87624	-2.87651	0	
2.1100	9.35836	-6.25527	0	
2.1107	5.70361	-5.02248	0	
2.1113	0.830624	-4.38325	0	
2.1120	-1.93812	-5.61604	0	
2.1127	-8.63848	-4.38325	0	
2.1133	-18.1076	-4.70286	0	
2.1140	-24.808	-7.4424	0	
2.1147	-26.3585	-6.84883	0	
2.1153	-21.1532	-3.47007	0	
2.1160	-12.2932	-1.36977	0	
2.1167	-5.31599	1.09581	0	
2.1173	0.2215	2.00899	0	
2.1180	7.80786	1.09581	0	
2.1187	14.5636	2.60256	0	
2.1193	18.4952	3.51573	0	
2.1200	21.5408	1.68938	0	
2.1207	23.9773	2.00899	0	
2.1213	24.9187	3.83535	0	
2.1220	23.7005	3.51573	0	
2.1227	23.9773	4.15496	0	
2.1233	31.6191	3.83535	0	
2.1240	44.1338	0.776201	0	
2.1247	49.0068	-1.05015	0	
2.1253	41.6973	-1.05015	0	
2.1260	29.5148	-3.47007	0	
2.1267	21.264	-7.16844	0	
2.1273	9.35836	-8.08162	0	
2.1280	-12.9024	-7.16844	0	
2.1287	-34.6093	-5.93565	0	
2.1293	-45.5735	-6.25527	0	
2.1300	-48.3423	-5.02248	0	
2.1307	-37.0458	3.24178	0	
2.1313	-18.1076	12.3736	0	
2.1320	-11.075	11.78	0	
2.1327	-15.948	5.98131	0	
2.1333	-25.4171	4.74852	0	
2.1340	-38.2641	5.34209	0	
2.1347	-37.0458	3.83535	0	
2.1353	-16.6125	3.51573	0	
2.1360	-1.60587	3.83535	0	
2.1367	4.76224	2.00899	0	
2.1373	15.7818	2.92217	0	
2.1380	21.8731	5.6617	0	
2.1387	15.1727	2.00899	0	
2.1393	2.04887	-2.87651	0	
2.1400	-13.8437	1.41543	0	
2.1407	-23.3128	12.6932	0	
2.1413	-20.8763	23.0577	0	
2.1420	-15.6711	26.4365	0	
2.1427	-5.92511	20.6378	0	
2.1433	15.7818	14.5195	0	
2.1440	36.2152	17.5787	0	
2.1447	40.2022	21.551	0	
2.1453	22.4822	14.8391	0	
2.1460	-9.57986	2.00899	0	
2.1467	-30.0132	-12.6475	0	
2.1473	-22.0946	-26.0712	0	
2.1480	-6.20199	-37.349	0	
2.1487	-1.60587	-41.6409	0	
2.1493	-0.719874	-34.2898	0	
2.1500	2.04887	-21.7793	0	
2.1507	0.2215	-14.4739	0	
2.1513	-5.59287	-9.58836	0	
2.1520	-8.02936	-4.1093	0	
2.1527	-7.14336	-4.70286	0	
2.1533	-7.42024	-7.76201	0	
2.1540	-10.7981	-7.4424	0	
2.1547	-14.1206	-8.9948	0	
2.1553	-15.3388	-11.1408	0	
2.1560	-12.6255	-9.90798	0	
2.1567	-3.48862	-6.52922	0	
2.1573	2.658	2.3286	0	
2.1580	5.37137	11.1408	0	
2.1587	19.4366	6.89449	0	
2.1593	46.2934	-5.34209	0	
2.1600	70.7137	-11.1408	0	
2.1607	80.792	-11.1408	0	
2.1613	71.5997	-9.58836	0	
2.1620	47.7885	-6.52922	0	
2.1627	22.4822	-4.38325	0	
2.1633	-10.4659	-4.1093	0	
2.1640	-53.2153	-3.47007	0	
2.1647	-76.6942	-1.36977	0	
2.1653	-69.0525	1.41543	0	
2.1660	-51.6648	-0.136977	0	
2.1667	-28.7949	-5.61604	0	
2.1673	1.71662	-6.84883	0	
2.1680	19.1043	-3.47007	0	
2.1687	22.4822	-1.36977	0	
2.1693	30.4008	-1.36977	0	
2.1700	34.3878	-1.64372	0	
2.1707	21.264	-0.730542	0	
2.1713	-2.54725	0.182636	0	
2.1720	-25.7493	0.776201	0	
2.1727	-34.8862	0.776201	0	
2.1733	-22.7037	1.09581	0	
2.1740	-11.4072	1.09581	0	
2.1747	-16.8893	2.92217	0	
2.1753	-22.7037	4.15496	0	
2.1760	-16.2802	3.51573	0	
2.1767	-6.20199	2.60256	0	
2.1773	-0.11075	1.68938	0	
2.1780	2.04887	-0.136977	0	
2.1787	2.04887	-1.05015	0	
2.1793	3.26712	-0.730542	0	
2.1800	3.54399	-2.28294	0	
2.1807	1.43975	-2.5569	0	
2.1813	2.93487	-2.28294	0	
2.1820	6.58961	-3.78969	0	
2.1827	10.2444	-3.78969	0	
2.1833	13.9545	-0.136977	0	
2.1840	13.0131	0.456589	0	
2.1847	6.31274	-0.730542	0	
2.1853	2.93487	0.776201	0	
2.1860	6.31274	1.09581	0	
2.1867	11.1857	0.182636	0	
2.1873	16.391	2.00899	0	
2.1880	23.7005	2.00899	0	
2.1887	26.7461	-3.78969	0	
2.1893	22.15	-5.02248	0	
2.1900	14.8405	0.182636	0	
2.1907	10.5766	1.09581	0	
2.1913	9.63523	0.456589	0	
2.1920	8.74923	3.51573	0	
2.1927	4.15312	4.15496	0	
2.1933	-4.37462	2.92217	0	
2.1940	-9.24761	2.00899	0	
2.1947	-4.70687	-4.1093	0	
2.1953	7.53099	-6.25527	0	
2.1960	19.4366	2.3286	0	
2.1967	15.7818	9.95364	0	
2.1973	-4.98374	8.40123	0	
2.1980	-19.935	7.2141	0	
2.1987	-18.7167	7.48806	0	
2.1993	-20.5441	4.74852	0	
2.2000	-24.1988	2.60256	0	
2.2007	-14.7297	1.09581	0	
2.2013	-7.75249	-1.36977	0	
2.2020	-15.062	-2.28294	0	
2.2027	-19.049	-1.64372	0	
2.2033	-11.4072	-1.64372	0	
2.2040	1.1075	-1.05015	0	
2.2047	17.277	0.182636	0	
2.2053	29.5148	1.09581	0	
2.2060	34.9969	2.92217	0	
2.2067	37.7103	5.6617	0	
2.2073	30.4008	7.2141	0	
2.2080	9.35836	10.5472	0	
2.2087	-9.85673	13.926	0	
2.2093	-26.3585	7.48806	0	
2.2100	-48.9514	-5.34209	0	
2.2107	-58.4205	-10.8212	0	
2.2113	-42.8048	-6.52922	0	
2.2120	-23.922	-1.64372	0	
2.2127	-16.2802	1.41543	0	
2.2133	-15.948	4.74852	0	
2.2140	-13.5115	6.57488	0	
2.2147	-1.60587	4.15496	0	
2.2153	18.2183	1.09581	0	
2.2160	40.8113	-1.64372	0	
2.2167	56.9808	-4.38325	0	
2.2173	52.7169	-5.34209	0	
2.2180	34.6647	0.456589	0	
2.2187	23.0913	9.31441	0	
2.2193	15.4496	12.6932	0	
2.2200	1.1075	10.2276	0	
2.2207	-15.062	8.12728	0	
2.2213	-34.6093	6.57488	0	
2.2220	-54.7104	5.6617	0	
2.2227	-54.4335	5.06814	0	
2.2233	-36.7136	2.00899	0	
2.2240	-22.3715	-2.87651	0	
2.2247	-9.85673	-6.84883	0	
2.2253	7.80786	-10.5015	0	
2.2260	25.251	-15.387	0	
2.2267	38.0426	-17.8526	0	
2.2273	41.0882	-14.4739	0	
2.2280	30.4008	-2.28294	0	
2.2287	13.0131	12.0539	0	
2.2293	-8.97073	14.5195	0	
2.2300	-30.6223	5.6617	0	
2.2307	-32.1728	-0.456589	0	
2.2313	-15.3388	0.776201	0	
2.2320	-5.31599	2.3286	0	
2.2327	-4.09774	-0.136977	0	
2.2333	1.1075	-5.34209	0	
2.2340	6.92186	-7.16844	0	
2.2347	7.53099	-4.70286	0	
2.2353	5.98049	-5.93565	0	
2.2360	3.87624	-10.8212	0	
2.2367	3.54399	-9.90798	0	
2.2373	5.37137	-4.38325	0	
2.2380	4.76224	-2.28294	0	
2.2387	2.32575	0.182636	0	
2.2393	2.32575	1.68938	0	
2.2400	4.76224	-2.28294	0	
2.2407	6.92186	-4.38325	0	
2.2413	7.80786	-1.64372	0	
2.2420	3.87624	-0.730542	0	
2.2427	-0.719874	2.00899	0	
2.2433	2.658	7.80767	0	
2.2440	7.53099	9.63402	0	
2.2447	5.37137	9.95364	0	
2.2453	5.70361	15.1131	0	
2.2460	13.0131	19.405	0	
2.2467	17.277	18.4918	0	
2.2473	8.74923	17.2591	0	
2.2480	-8.02936	13.6063	0	
2.2487	-23.5897	5.98131	0	
2.2493	-28.1858	-1.64372	0	
2.2500	-24.5311	-12.0539	0	
2.2507	-22.0946	-25.4777	0	
2.2513	-16.6125	-30.0435	0	
2.2520	-3.76549	-21.7793	0	
2.2527	4.48537	-11.7343	0	
2.2533	4.76224	-8.08162	0	
2.2540	8.74923	-6.25527	0	
2.2547	20.0457	-5.93565	0	
2.2553	32.2282	-8.9948	0	
2.2560	34.9969	-9.90798	0	
2.2567	18.8275	-7.76201	0	
2.2573	-4.09774	-7.76201	0	
2.2580	-12.2932	-8.9948	0	
2.2587	-13.5115	-8.08162	0	
2.2593	-12.6255	-6.25527	0	
2.2600	3.87624	-0.136977	0	
2.2607	21.8731	9.31441	0	
2.2613	17.6092	13.6063	0	
2.2620	-1.329	11.4604	0	
2.2627	-26.3585	8.12728	0	
2.2633	-58.4205	5.6617	0	
2.2640	-84.6128	6.57488	0	
2.2647	-90.7595	10.5472	0	
2.2653	-77.6356	11.1408	0	
2.2660	-51.997	7.48806	0	
2.2667	-31.5637	3.83535	0	
2.2673	-25.4171	4.74852	0	
2.2680	-21.7623	7.48806	0	
2.2687	-16.2802	9.95364	0	
2.2693	-17.8307	10.5472	0	
2.2700	-19.6581	8.40123	0	
2.2707	-13.5115	4.15496	0	
2.2713	-4.70687	4.74852	0	
2.2720	1.71662	7.80767	0	
2.2727	5.37137	7.2141	0	
2.2733	4.76224	5.98131	0	
2.2740	6.31274	8.72085	0	
2.2747	16.6678	8.72085	0	
2.2753	26.4692	4.15496	0	
2.2760	28.9057	2.92217	0	
2.2767	29.1826	6.25527	0	
2.2773	28.2966	8.40123	0	
2.2780	21.5408	4.74852	0	
2.2787	14.8405	-3.78969	0	
2.2793	13.9545	-11.7343	0	
2.2800	12.1271	-11.7343	0	
2.2807	5.70361	-9.26875	0	
2.2813	2.04887	-11.7343	0	
2.2820	1.71662	-15.0674	0	
2.2827	2.93487	-14.7935	0	
2.2833	7.19874	-12.6475	0	
2.2840	12.1271	-8.35557	0	
2.2847	11.1857	-1.05015	0	
2.2853	7.19874	4.15496	0	
2.2860	5.70361	6.57488	0	
2.2867	7.53099	7.48806	0	
2.2873	12.1271	3.24178	0	
2.2880	17.6092	-4.38325	0	
2.2887	18.8275	-8.08162	0	
2.2893	13.0131	-8.08162	0	
2.2900	7.19874	-8.67519	0	
2.2907	10.5766	-6.25527	0	
2.2913	20.6548	-1.64372	0	
2.2920	26.7461	-1.36977	0	
2.2927	28.2966	-1.64372	0	
2.2933	31.6191	-1.05015	0	
2.2940	34.0556	-2.28294	0	
2.2947	23.0913	-2.28294	0	
2.2953	-1.60587	-0.730542	0	
2.2960	-22.9806	-1.96333	0	
2.2967	-30.9546	-1.64372	0	
2.2973	-32.1728	1.09581	0	
2.2980	-28.1858	0.182636	0	
2.2987	-13.2346	-1.64372	0	
2.2993	6.31274	-1.64372	0	
2.3000	20.3226	-1.36977	0	
2.3007	31.3422	-1.05015	0	
2.3013	35.8829	-0.456589	0	
2.3020	25.8601	-1.36977	0	
2.3027	8.14011	-1.36977	0	
2.3033	-8.63848	0.776201	0	
2.3040	-23.5897	0.182636	0	
2.3047	-27.8536	-0.730542	0	
2.3053	-18.1076	-0.456589	0	
2.3060	-8.36161	0.776201	0	
2.3067	-3.48862	3.24178	0	
2.3073	1.1075	8.12728	0	
2.3080	3.87624	13.926	0	
2.3087	8.14011	19.405	0	
2.3093	17.8861	16.9394	0	
2.3100	24.9187	3.24178	0	
2.3107	21.264	-8.08162	0	
2.3113	2.32575	-9.90798	0	
2.3120	-25.7493	-10.8212	0	
2.3127	-40.9774	-9.90798	0	
2.3133	-38.8732	-4.70286	0	
2.3140	-40.9774	-5.02248	0	
2.3147	-51.6648	-10.5015	0	
2.3153	-49.5605	-8.9948	0	
2.3160	-30.6223	-2.5569	0	
2.3167	-10.189	-0.730542	0	
2.3173	-1.93812	-2.5569	0	
2.3180	-4.98374	-1.96333	0	
2.3187	-7.42024	-0.730542	0	
2.3193	0.498374	-2.5569	0	
2.3200	17.8861	-4.38325	0	
2.3207	37.4334	-3.78969	0	
2.3213	49.0068	-2.5569	0	
2.3220	45.0752	-5.34209	0	
2.3227	27.0783	-6.25527	0	
2.3233	3.87624	2.3286	0	
2.3240	-15.3388	14.5195	0	
2.3247	-32.7819	16.9394	0	
2.3253	-46.1827	12.9671	0	
2.3260	-40.0914	11.4604	0	
2.3267	-11.075	9.95364	0	
2.3273	10.2444	3.83535	0	
2.3280	8.41699	0.456589	0	
2.3287	1.43975	3.24178	0	
2.3293	1.1075	3.83535	0	
2.3300	2.04887	1.09581	0	
2.3307	2.04887	0.776201	0	
2.3313	-0.11075	0.776201	0	
2.3320	-3.48862	1.09581	0	
2.3327	2.93487	5.06814	0	
2.3333	20.9317	10.8668	0	
2.3340	39.5931	13.926	0	
2.3347	47.1794	15.4327	0	
2.3353	35.6061	14.5195	0	
2.3360	7.80786	12.0539	0	
2.3367	-11.6841	10.2276	0	
2.3373	-12.0164	7.80767	0	
2.3380	-4.98374	3.51573	0	
2.3387	6.58961	0.776201	0	
2.3393	27.6875	-3.19612	0	
2.3400	47.5117	-12.6475	0	
2.3407	52.9938	-19.0398	0	
2.3413	45.6843	-12.0539	0	
2.3420	27.3552	2.00899	0	
2.3427	1.71662	8.12728	0	
2.3433	-26.3585	5.6617	0	
2.3440	-55.0427	4.74852	0	
2.3447	-70.603	11.1408	0	
2.3453	-57.1469	17.5787	0	
2.3460	-34.0002	17.8526	0	
2.3467	-24.5311	8.40123	0	
2.3473	-19.3258	-11.1408	0	
2.3480	-10.4659	-29.1304	0	
2.3487	-7.42024	-30.9567	0	
2.3493	-8.36161	-20.8661	0	
2.3500	-3.76549	-12.6475	0	
2.3507	1.71662	-8.35557	0	
2.3513	2.04887	-4.70286	0	
2.3520	0.498374	-3.78969	0	
2.3527	0.2215	-2.5569	0	
2.3533	2.04887	0.182636	0	
2.3540	7.80786	1.09581	0	
2.3547	21.8731	-0.730542	0	
2.3553	40.4791	-0.456589	0	
2.3560	54.212	2.00899	0	
2.3567	51.7755	1.68938	0	
2.3573	36.8243	-1.05015	0	
2.3580	22.7591	-1.96333	0	
2.3587	13.0131	-1.36977	0	
2.3593	-1.60587	-2.87651	0	
2.3600	-22.3715	-2.87651	0	
2.3607	-39.1501	1.09581	0	
2.3613	-46.1827	2.3286	0	
2.3620	-39.4823	-0.730542	0	
2.3627	-23.5897	0.456589	0	
2.3633	-11.6841	2.00899	0	
2.3640	-5.59287	-1.05015	0	
2.3647	2.32575	-1.96333	0	
2.3653	9.35836	-0.730542	0	
2.3660	10.5766	-4.70286	0	
2.3667	9.63523	-7.76201	0	
2.3673	7.53099	-5.34209	0	
2.3680	5.70361	-3.78969	0	
2.3687	5.98049	-4.70286	0	
2.3693	9.63523	-6.84883	0	
2.3700	14.5636	-9.90798	0	
2.3707	15.4496	-8.08162	0	
2.3713	11.1857	-3.47007	0	
2.3720	7.19874	-3.78969	0	
2.3727	-3.76549	-6.25527	0	
2.3733	-24.808	-5.34209	0	
2.3740	-36.4367	-5.02248	0	
2.3747	-33.3911	-4.38325	0	
2.3753	-32.4497	-2.87651	0	
2.3760	-31.8406	-2.5569	0	
2.3767	-21.7623	-0.730542	0	
2.3773	-12.6255	2.00899	0	
2.3780	-7.75249	-4.70286	0	
2.3787	-4.98374	-14.1543	0	
2.3793	-6.20199	-10.1819	0	
2.3800	-6.20199	1.09581	0	
2.3807	-2.215	3.83535	0	
2.3813	-0.719874	2.3286	0	
2.3820	5.70361	3.51573	0	
2.3827	17.0001	2.00899	0	
2.3833	18.4952	-2.87651	0	
2.3840	11.1857	-5.34209	0	
2.3847	2.93487	-5.61604	0	
2.3853	-9.57986	-5.61604	0	
2.3860	-19.6581	-4.38325	0	
2.3867	-18.1076	-4.38325	0	
2.3873	-13.2346	-2.5569	0	
2.3880	-8.97073	7.48806	0	
2.3887	-5.59287	19.0854	0	
2.3893	-12.2932	20.3182	0	
2.3900	-23.922	14.8391	0	
2.3907	-25.1402	10.2276	0	
2.3913	-17.8307	8.40123	0	
2.3920	-8.63848	11.1408	0	
2.3927	4.48537	15.7523	0	
2.3933	17.277	13.6063	0	
2.3940	21.264	7.2141	0	
2.3947	19.4366	1.41543	0	
2.3953	20.0457	-8.08162	0	
2.3960	23.9773	-19.9529	0	
2.3967	24.9187	-20.8661	0	
2.3973	20.3226	-9.26875	0	
2.3980	16.391	2.92217	0	
2.3987	14.8405	7.48806	0	
2.3993	8.14011	6.57488	0	
2.4000	-0.996748	3.83535	0	
2.4007	-4.37462	3.83535	0	
2.4013	-3.15637	7.2141	0	
2.4020	2.93487	5.6617	0	
2.4027	12.1271	-4.38325	0	
2.4033	14.2313	-13.2411	0	
2.4040	9.96748	-13.2411	0	
2.4047	7.80786	-11.4147	0	
2.4053	0.498374	-12.3279	0	
2.4060	-13.2346	-10.5015	0	
2.4067	-19.3258	-4.38325	0	
2.4073	-16.8893	0.456589	0	
2.4080	-16.6125	2.92217	0	
2.4087	-17.8307	7.2141	0	
2.4093	-12.2932	9.31441	0	
2.4100	4.76224	0.182636	0	
2.4107	24.9187	-14.7935	0	
2.4113	30.7331	-18.1266	0	
2.4120	22.15	-8.9948	0	
2.4127	15.4496	-1.96333	0	
2.4133	14.8405	-0.730542	0	
2.4140	20.3226	-1.05015	0	
2.4147	34.9969	0.776201	0	
2.4153	55.1534	2.92217	0	
2.4160	73.1502	1.68938	0	
2.4167	81.0689	-0.456589	0	
2.4173	70.1046	1.41543	0	
2.4180	36.2152	3.51573	0	
2.4187	-8.97073	1.68938	0	
2.4193	-46.5149	0.182636	0	
2.4200	-70.2708	2.00899	0	
2.4207	-84.0037	5.6617	0	
2.4213	-83.1177	6.25527	0	
2.4220	-63.2935	2.00899	0	
2.4227	-41.9188	1.09581	0	
2.4233	-40.7006	6.57488	0	
2.4240	-51.997	7.48806	0	
2.4247	-49.5605	3.24178	0	
2.4253	-24.5311	4.42891	0	
2.4260	5.98049	6.57488	0	
2.4267	15.4496	3.83535	0	
2.4273	2.658	1.41543	0	
2.4280	-10.4659	0.456589	0	
2.4287	-12.6255	-0.456589	0	
2.4293	-9.85673	0.776201	0	
2.4300	-4.37462	1.09581	0	
2.4307	0.2215	-0.136977	0	
2.4313	-9.24761	1.68938	0	
2.4320	-27.8536	4.15496	0	
2.4327	-34.0002	3.83535	0	
2.4333	-28.1858	3.24178	0	
2.4340	-24.5311	2.92217	0	
2.4347	-19.935	2.00899	0	
2.4353	-9.57986	1.68938	0	
2.4360	-2.54725	0.182636	0	
2.4367	-3.15637	-1.64372	0	
2.4373	-3.15637	-1.36977	0	
2.4380	-0.719874	-1.64372	0	
2.4387	1.43975	-2.5569	0	
2.4393	1.43975	0.182636	0	
2.4400	-0.11075	1.09581	0	
2.4407	1.43975	0.182636	0	
2.4413	5.70361	3.83535	0	
2.4420	10.2444	8.12728	0	
2.4427	17.6092	7.2141	0	
2.4433	23.7005	9.04046	0	
2.4440	23.9773	14.8391	0	
2.4447	28.5734	14.8391	0	
2.4453	33.4464	9.31441	0	
2.4460	23.0913	3.83535	0	
2.4467	7.53099	-3.78969	0	
2.4473	3.54399	-14.4739	0	
2.4480	7.19874	-21.5053	0	
2.4487	12.1271	-19.9529	0	
2.4493	15.7818	-13.2411	0	
2.4500	14.2313	-7.16844	0	
2.4507	8.14011	-3.47007	0	
2.4513	-1.60587	-3.19612	0	
2.4520	-11.4072	-3.78969	0	
2.4527	-12.0164	-1.96333	0	
2.4533	-8.63848	0.456589	0	
2.4540	-12.2932	0.456589	0	
2.4547	-10.4659	-2.5569	0	
2.4553	4.76224	-8.08162	0	
2.4560	18.8275	-14.4739	0	
2.4567	21.8731	-13.5607	0	
2.4573	10.2444	-5.02248	0	
2.4580	-8.02936	2.00899	0	
2.4587	-13.5115	2.00899	0	
2.4593	-12.2932	-0.136977	0	
2.4600	-22.9806	-0.730542	0	
2.4607	-26.9676	-1.64372	0	
2.4613	-4.37462	-3.47007	0	
2.4620	22.15	-3.47007	0	
2.4627	34.9969	-2.87651	0	
2.4633	29.5148	-3.19612	0	
2.4640	1.43975	-3.47007	0	
2.4647	-23.5897	-3.78969	0	
2.4653	-20.8763	-4.70286	0	
2.4660	-10.7981	-5.34209	0	
2.4667	-10.189	-4.38325	0	
2.4673	-0.719874	-3.78969	0	
2.4680	18.4952	-0.730542	0	
2.4687	30.7331	2.92217	0	
2.4693	38.9839	3.83535	0	
2.4700	43.2478	2.60256	0	
2.4707	27.9643	0.776201	0	
2.4713	-0.11075	-2.5569	0	
2.4720	-16.8893	-3.47007	0	
2.4727	-12.2932	-2.5569	0	
2.4733	2.32575	-6.25527	0	
2.4740	12.1271	-11.7343	0	
2.4747	12.1271	-10.1819	0	
2.4753	9.35836	-5.93565	0	
2.4760	8.14011	-4.38325	0	
2.4767	2.93487	-1.64372	0	
2.4773	-8.02936	3.51573	0	
2.4780	-15.3388	4.15496	0	
2.4787	-11.4072	2.92217	0	
2.4793	-3.48862	2.92217	0	
2.4800	-3.48862	-1.36977	0	
2.4807	-6.20199	-6.25527	0	
2.4813	-5.31599	1.09581	0	
2.4820	-7.42024	17.2591	0	
2.4827	-15.062	25.7973	0	
2.4833	-18.4398	21.551	0	
2.4840	-13.8437	5.6617	0	
2.4847	-8.63848	-7.16844	0	
2.4853	-8.02936	-7.16844	0	
2.4860	-9.57986	-3.47007	0	
2.4867	-5.31599	-2.87651	0	
2.4873	3.54399	2.00899	0	
2.4880	10.2444	2.60256	0	
2.4887	19.1043	-4.1093	0	
2.4893	34.6647	-1.64372	0	
2.4900	46.2934	5.6617	0	
2.4907	47.7885	2.00899	0	
2.4913	38.0426	0.182636	0	
2.4920	16.6678	4.15496	0	
2.4927	-1.93812	3.24178	0	
2.4933	-6.20199	3.83535	0	
2.4940	-8.02936	5.6617	0	
2.4947	-13.2346	-5.34209	0	
2.4953	-8.97073	-15.0674	0	
2.4960	-4.98374	-9.90798	0	
2.4967	-14.4528	-2.87651	0	
2.4973	-21.4855	1.41543	0	
2.4980	-13.8437	7.2141	0	
2.4987	-2.215	4.74852	0	
2.4993	1.71662	-1.64372	0	
2.5000	-1.60587	-0.136977	0	
2.5007	-1.329	-0.136977	0	
2.5013	12.7362	-7.16844	0	
2.5020	31.3422	-6.84883	0	
2.5027	45.0752	-1.05015	0	
2.5033	51.4433	-3.19612	0	
2.5040	40.4791	-5.61604	0	
2.5047	5.37137	2.00899	0	
2.5053	-32.7819	6.57488	0	
2.5060	-48.01	3.83535	0	
2.5067	-44.0784	2.92217	0	
2.5073	-41.9188	2.92217	0	
2.5080	-49.2283	0.456589	0	
2.5087	-55.9287	2.92217	0	
2.5093	-51.0557	6.57488	0	
2.5100	-39.4823	1.41543	0	
2.5107	-31.8406	-2.5569	0	
2.5113	-30.6223	2.00899	0	
2.5120	-29.6809	3.24178	0	
2.5127	-24.5311	-0.456589	0	
2.5133	-19.935	-0.730542	0	
2.5140	-17.4985	-0.730542	0	
2.5147	-15.062	-3.47007	0	
2.5153	-12.0164	-3.19612	0	
2.5160	-5.59287	-0.136977	0	
2.5167	6.31274	0.776201	0	
2.5173	17.277	-0.730542	0	
2.5180	20.9317	-1.64372	0	
2.5187	23.0913	2.00899	0	
2.5193	27.9643	7.48806	0	
2.5200	32.5604	9.95364	0	
2.5207	33.1696	9.95364	0	
2.5213	34.6647	11.78	0	
2.5220	37.1012	9.31441	0	
2.5227	31.3422	-4.1093	0	
2.5233	16.391	-16.9394	0	
2.5240	5.98049	-15.9806	0	
2.5247	0.2215	-8.35557	0	
2.5253	-17.8307	-5.93565	0	
2.5260	-43.137	-5.61604	0	
2.5267	-54.4335	-2.87651	0	
2.5273	-51.0557	-1.64372	0	
2.5280	-44.0784	-1.64372	0	
2.5287	-34.6093	0.776201	0	
2.5293	-31.8406	2.3286	0	
2.5300	-38.8732	1.09581	0	
2.5307	-36.1044	0.456589	0	
2.5313	-16.8893	1.68938	0	
2.5320	0.498374	2.3286	0	
2.5327	13.0131	2.92217	0	
2.5333	21.8731	0.776201	0	
2.5340	15.7818	-5.02248	0	
2.5347	3.54399	-8.08162	0	
2.5353	3.87624	-6.84883	0	
2.5360	12.7362	-4.1093	0	
2.5367	18.4952	-2.5569	0	
2.5373	21.264	-3.47007	0	
2.5380	18.4952	-5.02248	0	
2.5387	15.1727	-2.87651	0	
2.5393	19.7135	-1.64372	0	
2.5400	24.3096	-4.38325	0	
2.5407	19.4366	-4.38325	0	
2.5413	14.8405	-0.730542	0	
2.5420	17.0001	0.182636	0	
2.5427	23.0913	-0.730542	0	
2.5433	39.8699	0.182636	0	
2.5440	67.3359	0.776201	0	
2.5447	89.3197	0.776201	0	
2.5453	94.525	2.3286	0	
2.5460	85.0558	2.00899	0	
2.5467	64.2903	-1.64372	0	
2.5473	39.8699	-1.64372	0	
2.5480	6.58961	2.00899	0	
2.5487	-42.1957	1.41543	0	
2.5493	-75.8082	-2.5569	0	
2.5500	-64.5118	-0.730542	0	
2.5507	-34.6093	4.42891	0	
2.5513	-14.4528	2.92217	0	
2.5520	-1.60587	0.182636	0	
2.5527	-1.93812	5.06814	0	
2.5533	-13.5115	9.31441	0	
2.5540	-18.1076	8.40123	0	
2.5547	-21.1532	10.5472	0	
2.5553	-34.6093	8.40123	0	
2.5560	-37.3227	-5.61604	0	
2.5567	-25.7493	-15.387	0	
2.5573	-17.4985	-9.26875	0	
2.5580	-11.6841	-3.47007	0	
2.5587	-5.31599	-1.64372	0	
2.5593	-7.14336	2.92217	0	
2.5600	-8.36161	5.34209	0	
2.5607	0.2215	2.92217	0	
2.5613	5.98049	3.83535	0	
2.5620	4.76224	5.34209	0	
2.5627	4.76224	2.92217	0	
2.5633	2.93487	1.68938	0	
2.5640	-0.996748	2.92217	0	
2.5647	1.43975	2.92217	0	
2.5653	5.09449	2.00899	0	
2.5660	1.43975	1.41543	0	
2.5667	-2.54725	-0.456589	0	
2.5673	-0.719874	-4.1093	0	
2.5680	-0.719874	-8.08162	0	
2.5687	-4.37462	-6.52922	0	
2.5693	-7.75249	0.182636	0	
2.5700	-7.75249	2.92217	0	
2.5707	-2.87949	0.182636	0	
2.5713	4.15312	2.00899	0	
2.5720	10.8535	6.57488	0	
2.5727	19.1043	5.6617	0	
2.5733	29.5148	5.6617	0	
2.5740	36.2152	9.95364	0	
2.5747	35.8829	12.0539	0	
2.5753	28.9057	9.31441	0	
2.5760	15.7818	5.6617	0	
2.5767	-3.48862	1.41543	0	
2.5773	-22.9806	3.83535	0	
2.5780	-36.4367	13.2867	0	
2.5787	-40.0914	12.0539	0	
2.5793	-38.5409	-1.64372	0	
2.5800	-35.8276	-7.4424	0	
2.5807	-30.9546	-5.93565	0	
2.5813	-22.9806	-10.5015	0	
2.5820	-18.1076	-12.3279	0	
2.5827	-19.049	-5.93565	0	
2.5833	-18.1076	-1.96333	0	
2.5840	-11.4072	1.09581	0	
2.5847	-4.37462	5.98131	0	
2.5853	-3.48862	3.83535	0	
2.5860	-5.31599	0.182636	0	
2.5867	-3.48862	1.68938	0	
2.5873	7.19874	-1.05015	0	
2.5880	22.7591	-3.78969	0	
2.5887	34.0556	1.41543	0	
2.5893	45.9612	3.51573	0	
2.5900	62.4629	0.776201	0	
2.5907	72.818	1.68938	0	
2.5913	68.5541	2.92217	0	
2.5920	49.6159	2.92217	0	
2.5927	11.1857	5.34209	0	
2.5933	-38.2641	4.42891	0	
2.5940	-69.3848	-0.136977	0	
2.5947	-70.8799	-1.96333	0	
2.5953	-57.4791	-1.64372	0	
2.5960	-41.3097	2.92217	0	
2.5967	-25.7493	12.3736	0	
2.5973	-11.6841	17.2591	0	
2.5980	3.26712	13.6063	0	
2.5987	14.2313	8.40123	0	
2.5993	14.2313	3.83535	0	
2.6000	8.14011	-3.78969	0	
2.6007	4.15312	-12.6475	0	
2.6013	0.498374	-13.5607	0	
2.6020	-5.59287	-3.47007	0	
2.6027	-11.4072	5.6617	0	
2.6033	-15.3388	5.98131	0	
2.6040	-15.6711	5.6617	0	
2.6047	-10.7981	8.40123	0	
2.6053	-1.60587	5.98131	0	
2.6060	14.8405	-0.136977	0	
2.6067	33.1696	-3.47007	0	
2.6073	35.8829	-8.08162	0	
2.6080	24.3096	-12.6475	0	
2.6087	20.9317	-7.76201	0	
2.6093	27.3552	0.182636	0	
2.6100	23.9773	-5.34209	0	
2.6107	12.7362	-19.0398	0	
2.6113	11.1857	-23.0121	0	
2.6120	20.6548	-16.3002	0	
2.6127	28.5734	-7.4424	0	
2.6133	24.5865	-2.28294	0	
2.6140	2.658	-1.36977	0	
2.6147	-29.0718	-1.36977	0	
2.6153	-52.2739	0.182636	0	
2.6160	-65.73	0.456589	0	
2.6167	-76.6942	0.456589	0	
2.6173	-75.8082	2.3286	0	
2.6180	-54.7104	2.60256	0	
2.6187	-33.6679	0.456589	0	
2.6193	-25.1402	-0.730542	0	
2.6200	-12.6255	-0.730542	0	
2.6207	9.96748	0.182636	0	
2.6213	20.9317	0.456589	0	
2.6220	12.1271	-1.64372	0	
2.6227	0.2215	-4.38325	0	
2.6233	-6.20199	-3.19612	0	
2.6240	-15.948	0.776201	0	
2.6247	-24.1988	0.776201	0	
2.6253	-16.2802	-2.5569	0	
2.6260	2.93487	-1.96333	0	
2.6267	17.277	1.09581	0	
2.6273	21.264	-1.64372	0	
2.6280	16.0587	-8.67519	0	
2.6287	2.93487	-10.5015	0	
2.6293	-8.02936	-7.16844	0	
2.6300	-8.02936	-4.38325	0	
2.6307	0.830624	-0.730542	0	
2.6313	13.0131	2.92217	0	
2.6320	23.3682	1.41543	0	
2.6327	35.8829	-1.64372	0	
2.6333	58.8081	-1.64372	0	
2.6340	79.8506	-1.64372	0	
2.6347	77.4141	-4.1093	0	
2.6353	54.212	-7.16844	0	
2.6360	23.0913	-8.08162	0	
2.6367	-5.31599	-6.52922	0	
2.6373	-16.2802	-4.38325	0	
2.6380	-8.63848	-1.96333	0	
2.6387	8.74923	7.2141	0	
2.6393	30.1239	17.8526	0	
2.6400	42.0296	18.4918	0	
2.6407	38.6517	12.0539	0	
2.6413	28.5734	7.2141	0	
2.6420	2.04887	3.51573	0	
2.6427	-41.5866	1.09581	0	
2.6433	-59.3065	2.00899	0	
2.6440	-41.9188	2.60256	0	
2.6447	-34.2771	0.182636	0	
2.6453	-43.4139	-0.456589	0	
2.6460	-41.3097	-0.456589	0	
2.6467	-30.6223	-1.36977	0	
2.6473	-22.7037	-1.05015	0	
2.6480	-13.2346	2.00899	0	
2.6487	-8.02936	9.04046	0	
2.6493	-10.4659	17.5787	0	
2.6500	-8.97073	21.2314	0	
2.6507	-2.87949	19.9986	0	
2.6513	-2.54725	19.0854	0	
2.6520	-4.98374	19.405	0	
2.6527	-6.53424	13.926	0	
2.6533	-5.59287	-1.36977	0	
2.6540	-0.387624	-11.7343	0	
2.6547	4.76224	-6.84883	0	
2.6553	4.48537	-5.34209	0	
2.6560	6.92186	-23.6513	0	
2.6567	16.6678	-37.075	0	
2.6573	22.15	-24.2449	0	
2.6580	20.6548	-8.08162	0	
2.6587	21.264	-8.08162	0	
2.6593	24.5865	-10.1819	0	
2.6600	22.4822	-6.25527	0	
2.6607	15.1727	-2.5569	0	
2.6613	6.92186	-1.96333	0	
2.6620	2.04887	-5.34209	0	
2.6627	4.76224	-9.58836	0	
2.6633	12.7362	-7.4424	0	
2.6640	9.63523	-3.19612	0	
2.6647	-7.14336	-3.19612	0	
2.6653	-20.5441	-4.1093	0	
2.6660	-19.049	-4.70286	0	
2.6667	-12.2932	-6.25527	0	
2.6673	-8.97073	-5.34209	0	
2.6680	-8.97073	-2.87651	0	
2.6687	-9.24761	-1.64372	0	
2.6693	-9.85673	0.182636	0	
2.6700	-10.7981	0.456589	0	
2.6707	-12.6255	-2.87651	0	
2.6713	-14.4528	-2.87651	0	
2.6720	-12.6255	-1.64372	0	
2.6727	-6.53424	-4.38325	0	
2.6733	-1.60587	-4.1093	0	
2.6740	3.54399	-0.730542	0	
2.6747	17.6092	-3.19612	0	
2.6753	38.3194	-6.52922	0	
2.6760	54.8212	-6.84883	0	
2.6767	56.0394	-8.67519	0	
2.6773	35.8829	-7.16844	0	
2.6780	9.02611	-1.96333	0	
2.6787	-3.76549	-3.47007	0	
2.6793	-9.85673	-6.25527	0	
2.6800	-23.5897	-3.19612	0	
2.6807	-32.1728	-2.5569	0	
2.6813	-23.922	-3.78969	0	
2.6820	-10.7981	-0.456589	0	
2.6827	-0.11075	0.776201	0	
2.6833	9.63523	-1.05015	0	
2.6840	16.6678	0.456589	0	
2.6847	14.2313	0.182636	0	
2.6853	1.1075	-1.36977	0	
2.6860	-16.8893	2.00899	0	
2.6867	-33.3911	6.89449	0	
2.6873	-39.4823	7.48806	0	
2.6880	-24.808	-0.136977	0	
2.6887	-2.215	-13.5607	0	
2.6893	4.48537	-18.4462	0	
2.6900	9.02611	-9.90798	0	
2.6907	27.0783	-3.47007	0	
2.6913	34.3878	-2.28294	0	
2.6920	23.9773	0.182636	0	
2.6927	17.8861	-0.456589	0	
2.6933	13.6222	-2.5569	0	
2.6940	1.1075	0.456589	0	
2.6947	-3.48862	2.60256	0	
2.6953	-1.329	-0.730542	0	
2.6960	-12.9024	-2.5569	0	
2.6967	-30.3454	-0.730542	0	
2.6973	-32.1728	0.182636	0	
2.6980	-28.1858	0.182636	0	
2.6987	-34.6093	0.776201	0	
2.6993	-38.5409	-0.730542	0	
2.7000	-27.8536	-2.5569	0	
2.7007	-15.3388	-2.5569	0	
2.7013	-5.31599	-1.64372	0	
2.7020	11.1857	-0.730542	0	
2.7027	25.251	0.456589	0	
2.7033	20.0457	2.00899	0	
2.7040	2.32575	2.92217	0	
2.7047	-11.4072	4.15496	0	
2.7053	-18.1076	3.83535	0	
2.7060	-25.1402	2.3286	0	
2.7067	-31.8406	2.92217	0	
2.7073	-31.8406	2.60256	0	
2.7080	-22.7037	-0.136977	0	
2.7087	-11.075	-2.5569	0	
2.7093	-0.387624	-4.38325	0	
2.7100	6.92186	-6.25527	0	
2.7107	6.58961	-4.70286	0	
2.7113	2.93487	-2.5569	0	
2.7120	3.26712	-1.64372	0	
2.7127	7.80786	5.6617	0	
2.7133	13.3454	15.4327	0	
2.7140	18.4952	20.9118	0	
2.7147	25.251	20.9118	0	
2.7153	36.2152	14.5195	0	
2.7160	44.1338	6.57488	0	
2.7167	44.1338	4.74852	0	
2.7173	31.9513	6.25527	0	
2.7180	4.76224	6.57488	0	
2.7187	-21.4855	8.40123	0	
2.7193	-26.0262	8.40123	0	
2.7200	-24.1988	5.6617	0	
2.7207	-31.5637	5.6617	0	
2.7213	-30.6223	6.57488	0	
2.7220	-15.3388	4.42891	0	
2.7227	-2.87949	2.00899	0	
2.7233	5.98049	3.24178	0	
2.7240	16.6678	9.04046	0	
2.7247	20.6548	12.3736	0	
2.7253	16.6678	7.48806	0	
2.7260	13.9545	2.92217	0	
2.7267	14.2313	6.89449	0	
2.7273	13.0131	12.6932	0	
2.7280	4.15312	13.6063	0	
2.7287	-8.02936	11.78	0	
2.7293	-12.0164	6.89449	0	
2.7300	-8.36161	-1.64372	0	
2.7307	-6.53424	-10.8212	0	
2.7313	-4.37462	-17.533	0	
2.7320	3.87624	-19.9529	0	
2.7327	13.0131	-15.9806	0	
2.7333	14.8405	-10.5015	0	
2.7340	13.9545	-6.52922	0	
2.7347	18.2183	-3.47007	0	
2.7353	25.8601	-3.47007	0	
2.7360	31.0099	-4.70286	0	
2.7367	31.9513	-5.93565	0	
2.7373	33.4464	-7.16844	0	
2.7380	33.1696	-5.34209	0	
2.7387	20.6548	-1.05015	0	
2.7393	0.2215	-1.64372	0	
2.7400	-9.24761	-3.78969	0	
2.7407	-10.189	0.182636	0	
2.7413	-19.049	3.51573	0	
2.7420	-25.4171	0.182636	0	
2.7427	-15.062	-4.38325	0	
2.7433	-4.37462	-5.34209	0	
2.7440	-7.14336	-1.64372	0	
2.7447	-13.2346	3.51573	0	
2.7453	-18.7167	4.74852	0	
2.7460	-26.9676	2.92217	0	
2.7467	-30.3454	7.48806	0	
2.7473	-24.1988	12.9671	0	
2.7480	-16.2802	10.2276	0	
2.7487	-14.1206	3.83535	0	
2.7493	-16.8893	5.6617	0	
2.7500	-19.049	12.9671	0	
2.7507	-19.6581	12.0539	0	
2.7513	-20.2672	-2.87651	0	
2.7520	-17.2216	-19.9529	0	
2.7527	-7.14336	-19.0398	0	
2.7533	1.1075	-5.02248	0	
2.7540	4.76224	0.182636	0	
2.7547	13.6222	-7.16844	0	
2.7553	28.5734	-11.7343	0	
2.7560	41.0882	-9.90798	0	
2.7567	46.5703	-5.61604	0	
2.7573	49.6159	-1.36977	0	
2.7580	49.6159	0.776201	0	
2.7587	36.2152	0.182636	0	
2.7593	1.1075	2.00899	0	
2.7600	-38.5409	3.83535	0	
2.7607	-58.0883	2.92217	0	
2.7613	-54.7104	2.92217	0	
2.7620	-47.4009	2.00899	0	
2.7627	-45.9058	-2.87651	0	
2.7633	-44.6875	-1.96333	0	
2.7640	-37.0458	3.83535	0	
2.7647	-26.6353	2.92217	0	
2.7653	-20.8763	-2.5569	0	
2.7660	-21.4855	-2.28294	0	
2.7667	-19.935	-1.05015	0	
2.7673	-3.15637	-1.36977	0	
2.7680	25.8601	2.00899	0	
2.7687	43.5247	5.98131	0	
2.7693	45.6843	8.12728	0	
2.7700	45.9612	9.31441	0	
2.7707	34.0556	7.48806	0	
2.7713	4.76224	3.83535	0	
2.7720	-12.6255	3.24178	0	
2.7727	-8.63848	2.92217	0	
2.7733	-2.54725	0.182636	0	
2.7740	3.26712	-0.730542	0	
2.7747	9.96748	2.60256	0	
2.7753	11.7949	7.48806	0	
2.7760	15.1727	10.5472	0	
2.7767	18.4952	12.3736	0	
2.7773	9.63523	14.5195	0	
2.7780	1.71662	13.926	0	
2.7787	1.43975	8.72085	0	
2.7793	-5.31599	2.60256	0	
2.7800	-10.7981	-2.5569	0	
2.7807	4.76224	-3.47007	0	
2.7813	27.9643	4.42891	0	
2.7820	27.6875	14.1999	0	
2.7827	2.93487	16.6655	0	
2.7833	-15.062	15.7523	0	
2.7840	-15.062	15.1131	0	
2.7847	-22.3715	11.4604	0	
2.7853	-40.0914	4.74852	0	
2.7860	-38.5409	-1.05015	0	
2.7867	-18.1076	-1.05015	0	
2.7873	-3.48862	3.51573	0	
2.7880	-0.719874	1.68938	0	
2.7887	-1.60587	-11.4147	0	
2.7893	-0.996748	-20.8661	0	
2.7900	1.71662	-19.9529	0	
2.7907	4.48537	-19.3594	0	
2.7913	3.26712	-20.8661	0	
2.7920	-4.70687	-18.1266	0	
2.7927	-13.5115	-13.2411	0	
2.7933	-10.4659	-8.9948	0	
2.7940	-2.54725	-1.64372	0	
2.7947	-10.7981	7.48806	0	
2.7953	-25.7493	9.31441	0	
2.7960	-24.5311	5.98131	0	
2.7967	-12.6255	6.25527	0	
2.7973	-3.76549	7.48806	0	
2.7980	5.98049	2.00899	0	
2.7987	22.15	-4.70286	0	
2.7993	39.5931	-5.02248	0	
2.8000	45.0752	-1.64372	0	
2.8007	35.6061	-2.28294	0	
2.8013	23.9773	-3.47007	0	
2.8020	9.35836	-3.47007	0	
2.8027	-21.1532	-3.47007	0	
2.8033	-51.997	-3.47007	0	
2.8040	-54.1013	-2.87651	0	
2.8047	-32.7819	-3.47007	0	
2.8053	-10.7981	-4.1093	0	
2.8060	8.41699	-4.1093	0	
2.8067	28.9057	-4.38325	0	
2.8073	45.0752	-3.47007	0	
2.8080	53.326	-1.36977	0	
2.8087	47.7885	-0.456589	0	
2.8093	22.4822	-1.05015	0	
2.8100	-7.75249	-1.64372	0	
2.8107	-26.6353	-1.36977	0	
2.8113	-40.0914	-0.456589	0	
2.8120	-50.1697	-0.136977	0	
2.8127	-46.7918	-0.456589	0	
2.8133	-36.1044	-0.730542	0	
2.8140	-30.0132	-1.05015	0	
2.8147	-25.1402	-0.456589	0	
2.8153	-16.6125	2.92217	0	
2.8160	-10.189	3.83535	0	
2.8167	-8.97073	2.3286	0	
2.8173	-7.14336	3.83535	0	
2.8180	2.32575	6.57488	0	
2.8187	15.4496	7.48806	0	
2.8193	22.4822	10.2276	0	
2.8200	19.7135	12.9671	0	
2.8207	14.2313	9.63402	0	
2.8213	13.6222	3.83535	0	
2.8220	15.7818	-1.05015	0	
2.8227	13.9545	-8.9948	0	
2.8233	9.35836	-18.4462	0	
2.8240	5.98049	-19.9529	0	
2.8247	3.26712	-13.5607	0	
2.8253	3.87624	-5.93565	0	
2.8260	10.2444	0.456589	0	
2.8267	13.9545	5.06814	0	
2.8273	12.7362	0.182636	0	
2.8280	16.391	-12.9671	0	
2.8287	24.9187	-18.1266	0	
2.8293	31.6191	-11.1408	0	
2.8300	38.3194	-4.70286	0	
2.8307	42.0296	-3.78969	0	
2.8313	33.4464	-4.70286	0	
2.8320	13.9545	-5.34209	0	
2.8327	-7.14336	-4.1093	0	
2.8333	-21.1532	-1.36977	0	
2.8340	-25.4171	-2.28294	0	
2.8347	-26.0262	-4.38325	0	
2.8353	-22.3715	-2.5569	0	
2.8360	-7.42024	-0.136977	0	
2.8367	16.6678	0.182636	0	
2.8373	42.9155	1.41543	0	
2.8380	65.7854	3.83535	0	
2.8387	61.8538	3.83535	0	
2.8393	13.9545	2.92217	0	
2.8400	-40.0914	4.74852	0	
2.8407	-55.6518	6.89449	0	
2.8413	-49.2283	2.00899	0	
2.8420	-50.1697	-8.08162	0	
2.8427	-48.6192	-12.0539	0	
2.8433	-35.4953	-7.16844	0	
2.8440	-21.1532	-1.05015	0	
2.8447	-14.1206	0.182636	0	
2.8453	-9.85673	-1.64372	0	
2.8460	-0.11075	-3.19612	0	
2.8467	15.1727	-4.38325	0	
2.8473	26.7461	-3.47007	0	
2.8480	23.9773	-0.730542	0	
2.8487	1.1075	-1.36977	0	
2.8493	-31.2314	-4.38325	0	
2.8500	-47.4009	-0.730542	0	
2.8507	-43.7462	3.24178	0	
2.8513	-32.7819	-0.730542	0	
2.8520	-13.5115	-3.47007	0	
2.8527	5.70361	1.68938	0	
2.8533	8.74923	4.15496	0	
2.8540	6.31274	3.83535	0	
2.8547	15.1727	4.74852	0	
2.8553	17.6092	2.60256	0	
2.8560	-1.60587	-2.87651	0	
2.8567	-19.3258	-5.61604	0	
2.8573	-10.7981	-1.64372	0	
2.8580	10.2444	4.42891	0	
2.8587	18.4952	4.74852	0	
2.8593	16.391	0.182636	0	
2.8600	16.0587	-0.730542	0	
2.8607	13.0131	-0.136977	0	
2.8613	7.53099	-0.136977	0	
2.8620	4.76224	0.182636	0	
2.8627	-1.60587	0.182636	0	
2.8633	-9.85673	-3.19612	0	
2.8640	-6.81111	-10.1819	0	
2.8647	-2.215	-14.4739	0	
2.8653	-6.20199	-8.08162	0	
2.8660	-2.87949	2.3286	0	
2.8667	13.9545	3.51573	0	
2.8673	27.6875	-0.730542	0	
2.8680	33.1696	-1.64372	0	
2.8687	29.5148	-0.730542	0	
2.8693	12.1271	-1.05015	0	
2.8700	-8.02936	-0.730542	0	
2.8707	-14.4528	-1.05015	0	
2.8713	-15.948	-1.64372	0	
2.8720	-25.7493	-1.64372	0	
2.8727	-33.6679	-0.456589	0	
2.8733	-26.9676	2.3286	0	
2.8740	-15.3388	5.98131	0	
2.8747	-6.81111	9.04046	0	
2.8753	0.2215	11.4604	0	
2.8760	5.37137	10.8668	0	
2.8767	6.58961	7.48806	0	
2.8773	6.58961	7.48806	0	
2.8780	5.98049	7.48806	0	
2.8787	4.76224	0.182636	0	
2.8793	5.98049	-4.70286	0	
2.8800	9.63523	-2.5569	0	
2.8807	9.35836	-4.38325	0	
2.8813	3.54399	-9.90798	0	
2.8820	-4.98374	-8.35557	0	
2.8827	-10.189	-2.28294	0	
2.8833	-9.24761	0.182636	0	
2.8840	-4.37462	-1.05015	0	
2.8847	1.43975	-1.64372	0	
2.8853	4.48537	-0.730542	0	
2.8860	5.09449	-0.456589	0	
2.8867	5.70361	-0.456589	0	
2.8873	5.09449	-0.136977	0	
2.8880	3.54399	0.776201	0	
2.8887	6.58961	2.00899	0	
2.8893	12.1271	3.51573	0	
2.8900	13.0131	3.83535	0	
2.8907	20.3226	4.74852	0	
2.8913	38.6517	6.57488	0	
2.8920	53.6029	6.89449	0	
2.8927	54.5443	6.57488	0	
2.8933	40.8113	7.48806	0	
2.8940	13.0131	10.2276	0	
2.8947	-12.2932	12.9671	0	
2.8953	-19.935	5.6617	0	
2.8960	-23.5897	-12.9671	0	
2.8967	-34.6093	-22.4185	0	
2.8973	-38.5409	-11.1408	0	
2.8980	-31.5637	0.776201	0	
2.8987	-19.6581	2.3286	0	
2.8993	-2.215	3.83535	0	
2.9000	14.8405	5.34209	0	
2.9007	24.9187	2.60256	0	
2.9013	34.0556	-0.730542	0	
2.9020	38.6517	-1.36977	0	
2.9027	27.6875	0.182636	0	
2.9033	7.80786	-1.64372	0	
2.9040	-13.5115	-5.93565	0	
2.9047	-29.6809	-4.1093	0	
2.9053	-25.4171	0.182636	0	
2.9060	-8.63848	-1.05015	0	
2.9067	-7.14336	-1.64372	0	
2.9073	-14.4528	2.3286	0	
2.9080	-14.1206	3.83535	0	
2.9087	-17.2216	2.92217	0	
2.9093	-23.922	1.41543	0	
2.9100	-18.1076	-1.64372	0	
2.9107	-2.87949	0.182636	0	
2.9113	5.98049	5.98131	0	
2.9120	10.2444	6.57488	0	
2.9127	14.8405	4.74852	0	
2.9133	16.6678	5.6617	0	
2.9140	15.7818	7.48806	0	
2.9147	16.0587	5.6617	0	
2.9153	21.264	-2.5569	0	
2.9160	31.9513	-11.7343	0	
2.9167	43.2478	-11.1408	0	
2.9173	50.5573	-5.34209	0	
2.9180	50.225	-6.25527	0	
2.9187	33.7787	-7.16844	0	
2.9193	0.830624	-3.19612	0	
2.9200	-31.5637	-0.456589	0	
2.9207	-54.7104	0.182636	0	
2.9213	-75.476	0.182636	0	
2.9220	-81.5672	-0.730542	0	
2.9227	-65.73	-1.36977	0	
2.9233	-43.4139	-2.5569	0	
2.9240	-26.6353	-5.93565	0	
2.9247	-8.02936	-5.61604	0	
2.9253	9.96748	-2.5569	0	
2.9260	19.1043	-2.5569	0	
2.9267	21.8731	-3.47007	0	
2.9273	27.9643	-2.5569	0	
2.9280	31.9513	-1.96333	0	
2.9287	13.6222	-3.47007	0	
2.9293	-24.1988	-3.47007	0	
2.9300	-51.6648	-1.64372	0	
2.9307	-56.5378	-1.05015	0	
2.9313	-54.4335	-1.96333	0	
2.9320	-50.7788	-1.64372	0	
2.9327	-40.9774	0.182636	0	
2.9333	-30.9546	1.41543	0	
2.9340	-20.8763	1.09581	0	
2.9347	-8.02936	1.09581	0	
2.9353	0.2215	0.182636	0	
2.9360	-2.54725	-1.96333	0	
2.9367	-5.31599	-1.96333	0	
2.9373	-0.719874	0.182636	0	
2.9380	2.04887	0.776201	0	
2.9387	-1.93812	-0.136977	0	
2.9393	-2.215	1.09581	0	
2.9400	1.71662	2.00899	0	
2.9407	-0.11075	-1.64372	0	
2.9413	-1.329	-6.25527	0	
2.9420	5.98049	-7.16844	0	
2.9427	8.41699	-7.16844	0	
2.9433	5.09449	-6.52922	0	
2.9440	13.0131	-5.61604	0	
2.9447	26.7461	-3.47007	0	
2.9453	29.1826	3.83535	0	
2.9460	21.8731	12.3736	0	
2.9467	13.0131	14.1999	0	
2.9473	6.31274	10.2276	0	
2.9480	2.93487	7.48806	0	
2.9487	0.498374	5.6617	0	
2.9493	1.71662	4.42891	0	
2.9500	16.6678	3.83535	0	
2.9507	38.0426	2.92217	0	
2.9513	54.5443	3.83535	0	
2.9520	74.6454	3.51573	0	
2.9527	100.007	-0.456589	0	
2.9533	111.304	-0.730542	0	
2.9540	97.5706	9.95364	0	
2.9547	62.4629	23.3773	0	
2.9553	15.1727	25.7973	0	
2.9560	-35.4953	15.7523	0	
2.9567	-85.8865	7.2141	0	
2.9573	-122.157	12.0539	0	
2.9580	-117.007	19.405	0	
2.9587	-74.8669	15.7523	0	
2.9593	-34.2771	6.57488	0	
2.9600	-15.6711	-1.36977	0	
2.9607	-10.7981	-10.8212	0	
2.9613	-7.75249	-23.6513	0	
2.9620	-2.87949	-34.0159	0	
2.9627	2.93487	-33.3766	0	
2.9633	12.1271	-22.7381	0	
2.9640	23.0913	-18.1266	0	
2.9647	33.7787	-24.2449	0	
2.9653	38.6517	-23.6513	0	
2.9660	27.9643	-12.3279	0	
2.9667	0.2215	-5.34209	0	
2.9673	-24.808	-1.96333	0	
