0.0000	37.7198	-3.23892	1
0.0007	39.5585	-2.31923	0	
0.0013	33.1493	-4.43852	0	
0.0020	32.2562	-5.6781	0	
0.0027	38.035	-3.55881	0	
0.0033	34.6728	-4.43852	0	
0.0040	21.2765	-5.998	0	
0.0047	6.61936	-3.83872	0	
0.0053	-13.2387	-3.83872	0	
0.0060	-31.5207	-4.43852	0	
0.0067	-34.5677	-3.83872	0	
0.0073	-29.682	-7.1976	0	
0.0080	-30.3124	-8.71709	0	
0.0087	-35.776	-2.63912	0	
0.0093	-39.4535	-0.799733	0	
0.0100	-37.93	-4.75841	0	
0.0107	-29.9972	-3.23892	0	
0.0113	-21.1714	0.11996	0	
0.0120	-15.3401	-1.71943	0	
0.0127	-8.353	-2.31923	0	
0.0133	1.10323	0.11996	0	
0.0140	14.5521	-0.199933	0	
0.0147	31.3631	-1.71943	0	
0.0153	40.5042	-1.99933	0	
0.0160	32.2562	-1.39953	0	
0.0167	17.5991	-0.799733	0	
0.0173	16.3908	-1.39953	0	
0.0180	29.7871	-2.91903	0	
0.0187	34.4101	-3.83872	0	
0.0193	21.5917	-2.91903	0	
0.0200	9.35115	-1.71943	0	
0.0207	-4.04516	0.11996	0	
0.0213	-32.729	1.95935	0	
0.0220	-57.4728	2.87904	0	
0.0227	-48.5945	1.95935	0	
0.0233	-16.8636	1.63945	0	
0.0240	7.82765	2.87904	0	
0.0247	10.2968	3.47884	0	
0.0253	-7.09217	4.07864	0	
0.0260	-25.7419	5.59813	0	
0.0267	-36.4065	2.87904	0	
0.0273	-45.2848	-0.799733	0	
0.0280	-45.5475	-1.07964	0	
0.0287	-22.6949	-0.799733	0	
0.0293	14.8673	-0.47984	0	
0.0300	45.7051	1.03965	0	
0.0307	55.424	-1.71943	0	
0.0313	48.4369	-5.35821	0	
0.0320	39.8737	-1.39953	0	
0.0327	25.847	1.03965	0	
0.0333	-4.04516	-2.63912	0	
0.0340	-26.3198	-1.99933	0	
0.0347	-24.7963	1.03965	0	
0.0353	-16.6009	0.11996	0	
0.0360	-10.1917	0.11996	0	
0.0367	-2.52166	2.87904	0	
0.0373	0.840553	2.87904	0	
0.0380	2.62673	3.15895	0	
0.0387	8.77327	4.39853	0	
0.0393	12.3982	2.87904	0	
0.0400	12.1355	2.87904	0	
0.0407	13.0286	3.79873	0	
0.0413	10.5594	2.87904	0	
0.0420	0.840553	2.87904	0	
0.0427	-9.8765	5.91802	0	
0.0433	-13.2387	7.15761	0	
0.0440	-4.36037	4.99833	0	
0.0447	11.1899	1.95935	0	
0.0453	20.6461	1.03965	0	
0.0460	18.8074	3.47884	0	
0.0467	12.1355	3.79873	0	
0.0473	6.61936	2.23925	0	
0.0480	1.41843	0.71976	0	
0.0487	-6.19908	-0.199933	0	
0.0493	-16.6009	-0.47984	0	
0.0500	-30.3124	-1.39953	0	
0.0507	-39.4535	-2.63912	0	
0.0513	-31.5207	-1.71943	0	
0.0520	-9.8765	-0.799733	0	
0.0527	8.14286	-4.15861	0	
0.0533	16.0756	-6.2779	0	
0.0540	16.9687	-1.07964	0	
0.0547	12.7134	2.23925	0	
0.0553	10.2968	0.11996	0	
0.0560	13.0286	-1.71943	0	
0.0567	13.9217	0.11996	0	
0.0573	11.5051	1.95935	0	
0.0580	5.72627	2.87904	0	
0.0587	-5.30599	0.71976	0	
0.0593	-12.9235	-2.63912	0	
0.0600	-8.93088	-1.71943	0	
0.0607	-2.52166	1.35955	0	
0.0613	1.10323	0.439853	0	
0.0620	5.72627	-0.199933	0	
0.0627	10.5594	1.63945	0	
0.0633	15.7604	1.03965	0	
0.0640	16.0756	-0.799733	0	
0.0647	2.94194	-0.799733	0	
0.0653	-15.0249	-0.799733	0	
0.0660	-19.0175	-0.47984	0	
0.0667	-17.494	-0.799733	0	
0.0673	-24.2184	-1.99933	0	
0.0680	-25.4267	-1.99933	0	
0.0687	-13.8166	-0.199933	0	
0.0693	-7.09217	0.11996	0	
0.0700	-8.61567	0.71976	0	
0.0707	-5.30599	2.23925	0	
0.0713	2.04885	1.35955	0	
0.0720	5.41106	0.11996	0	
0.0727	8.45807	1.03965	0	
0.0733	10.5594	0.439853	0	
0.0740	10.2968	-1.99933	0	
0.0747	8.45807	-2.31923	0	
0.0753	3.88756	-0.799733	0	
0.0760	-4.67558	-0.47984	0	
0.0767	-9.8765	-0.199933	0	
0.0773	-8.03779	0.439853	0	
0.0780	-3.15207	0.439853	0	
0.0787	0.210138	-0.799733	0	
0.0793	-0.682949	-1.71943	0	
0.0800	-3.78249	-1.71943	0	
0.0807	-3.78249	-1.71943	0	
0.0813	-0.420277	-1.71943	0	
0.0820	1.10323	-0.799733	0	
0.0827	2.04885	-1.07964	0	
0.0833	3.25714	-0.47984	0	
0.0840	2.62673	2.55915	0	
0.0847	-0.420277	4.07864	0	
0.0853	-0.682949	1.95935	0	
0.0860	1.73364	1.03965	0	
0.0867	4.78065	1.03965	0	
0.0873	7.51244	-1.71943	0	
0.0880	10.8747	-4.43852	0	
0.0887	13.659	-2.31923	0	
0.0893	9.66636	-0.199933	0	
0.0900	-1.62857	-2.31923	0	
0.0907	-7.09217	-5.0783	0	
0.0913	-2.52166	-4.43852	0	
0.0920	-2.20645	-2.31923	0	
0.0927	-4.36037	-2.31923	0	
0.0933	16.706	-2.63912	0	
0.0940	59.7318	-1.07964	0	
0.0947	94.5097	-1.71943	0	
0.0953	104.596	-2.91903	0	
0.0960	88.1005	-2.31923	0	
0.0967	47.8065	-1.99933	0	
0.0973	2.04885	-3.23892	0	
0.0980	-37.3521	-3.23892	0	
0.0987	-72.4452	-1.99933	0	
0.0993	-88.5733	0.11996	0	
0.1000	-81.271	1.35955	0	
0.1007	-76.0701	-0.47984	0	
0.1013	-80.3779	-0.799733	0	
0.1020	-69.3456	1.63945	0	
0.1027	-43.1309	-0.199933	0	
0.1033	-24.5336	-3.83872	0	
0.1040	-18.7023	-3.83872	0	
0.1047	-15.3401	-4.43852	0	
0.1053	-11.7152	-5.35821	0	
0.1060	-10.4544	-2.31923	0	
0.1067	-4.67558	-0.799733	0	
0.1073	9.35115	-3.23892	0	
0.1080	16.706	-2.63912	0	
0.1087	4.78065	-1.07964	0	
0.1093	-14.1318	-1.39953	0	
0.1100	-23.9032	-0.799733	0	
0.1107	-15.9705	-0.199933	0	
0.1113	9.03595	-1.07964	0	
0.1120	36.8267	-0.199933	0	
0.1127	56.9475	0.11996	0	
0.1133	77.436	-1.39953	0	
0.1140	96.6636	-2.31923	0	
0.1147	92.671	-1.99933	0	
0.1153	53.9005	-1.99933	0	
0.1160	0.525346	-1.39953	0	
0.1167	-39.7687	0.11996	0	
0.1173	-67.2443	2.55915	0	
0.1180	-85.8415	5.59813	0	
0.1187	-82.1641	5.59813	0	
0.1193	-56.8424	1.35955	0	
0.1200	-37.93	-1.07964	0	
0.1207	-29.4194	0.11996	0	
0.1213	-10.7696	0.439853	0	
0.1220	11.1899	-0.47984	0	
0.1227	20.6461	0.71976	0	
0.1233	31.941	2.23925	0	
0.1240	51.7991	1.63945	0	
0.1247	56.0544	0.71976	0	
0.1253	38.035	1.63945	0	
0.1260	22.1696	1.95935	0	
0.1267	16.0756	0.11996	0	
0.1273	7.51244	-0.47984	0	
0.1280	-0.682949	-0.47984	0	
0.1287	-2.52166	-1.71943	0	
0.1293	-0.998157	-2.31923	0	
0.1300	2.04885	-1.71943	0	
0.1307	5.41106	-1.99933	0	
0.1313	4.46544	-2.63912	0	
0.1320	1.10323	-0.47984	0	
0.1327	-0.682949	0.11996	0	
0.1333	-0.682949	-2.63912	0	
0.1340	1.73364	-3.55881	0	
0.1347	7.51244	-0.799733	0	
0.1353	13.659	0.439853	0	
0.1360	20.9613	-0.799733	0	
0.1367	26.7401	0.11996	0	
0.1373	23.1152	1.63945	0	
0.1380	14.5521	0.11996	0	
0.1387	13.0286	-1.71943	0	
0.1393	12.7134	-0.799733	0	
0.1400	3.57235	0.11996	0	
0.1407	-7.09217	-2.31923	0	
0.1413	-13.8166	-2.63912	0	
0.1420	-21.7493	-0.199933	0	
0.1427	-26.3198	-0.799733	0	
0.1433	-23.588	-2.63912	0	
0.1440	-20.8562	-0.799733	0	
0.1447	-20.8562	1.95935	0	
0.1453	-23.588	1.95935	0	
0.1460	-25.4267	0.439853	0	
0.1467	-12.6083	-1.71943	0	
0.1473	21.2765	-1.71943	0	
0.1480	53.6378	3.15895	0	
0.1487	65.1954	3.15895	0	
0.1493	55.1613	-2.63912	0	
0.1500	26.7401	-3.55881	0	
0.1507	-9.8765	-1.39953	0	
0.1513	-45.2848	-4.43852	0	
0.1520	-74.8618	-4.43852	0	
0.1527	-86.4719	0.11996	0	
0.1533	-72.4452	-0.199933	0	
0.1540	-50.1705	-0.799733	0	
0.1547	-35.776	2.87904	0	
0.1553	-24.2184	2.55915	0	
0.1560	-10.1917	-1.71943	0	
0.1567	5.72627	-0.799733	0	
0.1573	27.3705	2.23925	0	
0.1580	46.283	1.63945	0	
0.1587	39.8737	0.439853	0	
0.1593	7.51244	0.11996	0	
0.1600	-21.7493	-2.63912	0	
0.1607	-31.5207	-3.83872	0	
0.1613	-35.1982	-2.31923	0	
0.1620	-36.0913	0.11996	0	
0.1627	-21.7493	1.03965	0	
0.1633	0.210138	-0.47984	0	
0.1640	9.35115	-1.99933	0	
0.1647	8.45807	-0.799733	0	
0.1653	10.2968	1.95935	0	
0.1660	13.9217	1.95935	0	
0.1667	16.706	1.35955	0	
0.1673	15.4452	1.95935	0	
0.1680	9.98157	0.71976	0	
0.1687	2.94194	-1.39953	0	
0.1693	-4.36037	-0.799733	0	
0.1700	-7.72258	-0.799733	0	
0.1707	-0.998157	-1.39953	0	
0.1713	6.61936	-0.799733	0	
0.1720	7.51244	0.11996	0	
0.1727	9.98157	0.439853	0	
0.1733	13.9217	0.439853	0	
0.1740	13.659	-0.799733	0	
0.1747	14.8673	-2.31923	0	
0.1753	16.706	-1.99933	0	
0.1760	11.5051	-1.39953	0	
0.1767	4.46544	0.71976	0	
0.1773	-1.31336	2.23925	0	
0.1780	-9.56129	-0.199933	0	
0.1787	-10.4544	-1.71943	0	
0.1793	-2.20645	0.439853	0	
0.1800	3.25714	0.11996	0	
0.1807	10.8747	-2.63912	0	
0.1813	28.2636	-1.07964	0	
0.1820	46.283	2.87904	0	
0.1827	54.2157	3.79873	0	
0.1833	46.5982	1.63945	0	
0.1840	22.4848	-0.199933	0	
0.1847	-4.36037	-0.199933	0	
0.1853	-24.2184	-0.199933	0	
0.1860	-36.7217	-0.199933	0	
0.1867	-32.1512	0.11996	0	
0.1873	-11.7152	-0.47984	0	
0.1880	2.94194	-2.31923	0	
0.1887	3.57235	-1.71943	0	
0.1893	1.41843	-0.799733	0	
0.1900	0.525346	-1.71943	0	
0.1907	1.10323	-0.799733	0	
0.1913	5.41106	-0.199933	0	
0.1920	13.0286	-1.99933	0	
0.1927	22.1696	-1.99933	0	
0.1933	26.4774	-2.63912	0	
0.1940	20.6461	-5.0783	0	
0.1947	11.1899	-4.43852	0	
0.1953	4.78065	-1.99933	0	
0.1960	-0.420277	-0.799733	0	
0.1967	-5.30599	-0.199933	0	
0.1973	-10.7696	-2.31923	0	
0.1980	-21.7493	-5.6781	0	
0.1987	-36.4065	-5.0783	0	
0.1993	-44.6544	-3.83872	0	
0.2000	-40.6618	-4.43852	0	
0.2007	-31.5207	-2.63912	0	
0.2013	-21.4341	-1.07964	0	
0.2020	-13.5014	-1.71943	0	
0.2027	-10.1917	-0.799733	0	
0.2033	-7.72258	1.03965	0	
0.2040	-3.78249	-0.199933	0	
0.2047	-4.99078	-0.799733	0	
0.2053	-7.72258	-1.07964	0	
0.2060	-4.36037	-1.99933	0	
0.2067	-2.20645	0.11996	0	
0.2073	-5.30599	2.23925	0	
0.2080	-3.78249	0.439853	0	
0.2087	0.210138	0.11996	0	
0.2093	-4.36037	1.35955	0	
0.2100	-10.7696	1.03965	0	
0.2107	-6.19908	-0.199933	0	
0.2113	2.62673	-0.799733	0	
0.2120	8.45807	-0.799733	0	
0.2127	11.1899	0.11996	0	
0.2133	9.35115	-1.07964	0	
0.2140	8.45807	-4.15861	0	
0.2147	13.659	-3.83872	0	
0.2153	12.7134	-2.31923	0	
0.2160	-0.682949	-3.83872	0	
0.2167	-13.2387	-3.23892	0	
0.2173	-21.1714	0.11996	0	
0.2180	-29.4194	-1.39953	0	
0.2187	-23.0101	-4.75841	0	
0.2193	2.94194	-4.75841	0	
0.2200	37.4572	-4.43852	0	
0.2207	78.6443	-4.43852	0	
0.2213	113.737	-2.91903	0	
0.2220	123.824	-1.39953	0	
0.2227	113.737	0.11996	0	
0.2233	79.8526	2.87904	0	
0.2240	13.0286	3.79873	0	
0.2247	-54.741	3.79873	0	
0.2253	-84.0028	3.79873	0	
0.2260	-83.4249	2.55915	0	
0.2267	-73.9687	0.439853	0	
0.2273	-63.2516	-1.39953	0	
0.2280	-53.2175	-2.91903	0	
0.2287	-40.977	-2.63912	0	
0.2293	-29.682	-3.23892	0	
0.2300	-21.7493	-5.0783	0	
0.2307	-15.3401	-3.23892	0	
0.2313	-16.2857	-0.799733	0	
0.2320	-25.1115	-2.63912	0	
0.2327	-27.8433	-2.63912	0	
0.2333	-23.588	0.11996	0	
0.2340	-21.4341	-0.799733	0	
0.2347	-13.5014	-1.99933	0	
0.2353	2.36406	0.11996	0	
0.2360	17.5991	1.95935	0	
0.2367	25.5318	0.439853	0	
0.2373	25.847	-1.99933	0	
0.2380	28.5788	-1.71943	0	
0.2387	41.3972	1.95935	0	
0.2393	49.6452	2.55915	0	
0.2400	44.4442	0.11996	0	
0.2407	37.7198	-0.799733	0	
0.2413	26.7401	-1.07964	0	
0.2420	3.57235	-2.63912	0	
0.2427	-18.3871	-1.71943	0	
0.2433	-25.7419	1.35955	0	
0.2440	-24.2184	2.87904	0	
0.2447	-20.8562	1.95935	0	
0.2453	-20.2258	-1.07964	0	
0.2460	-24.2184	-2.91903	0	
0.2467	-23.588	-1.71943	0	
0.2473	-15.0249	-2.31923	0	
0.2480	-8.61567	-2.91903	0	
0.2487	-6.51429	0.71976	0	
0.2493	-3.46728	3.47884	0	
0.2500	0.210138	1.95935	0	
0.2507	3.88756	1.63945	0	
0.2513	8.45807	1.63945	0	
0.2520	8.14286	-1.39953	0	
0.2527	8.77327	-2.91903	0	
0.2533	20.3309	-0.199933	0	
0.2540	28.5788	1.03965	0	
0.2547	20.6461	-1.39953	0	
0.2553	10.5594	-1.71943	0	
0.2560	4.78065	0.11996	0	
0.2567	-3.46728	1.03965	0	
0.2573	-8.61567	1.63945	0	
0.2580	-9.24608	1.95935	0	
0.2587	-15.3401	1.03965	0	
0.2593	-23.9032	0.11996	0	
0.2600	-27.2654	2.87904	0	
0.2607	-25.4267	5.91802	0	
0.2613	-19.9106	4.07864	0	
0.2620	-8.03779	1.95935	0	
0.2627	6.61936	3.79873	0	
0.2633	18.5447	4.99833	0	
0.2640	29.7871	1.03965	0	
0.2647	40.1889	-1.71943	0	
0.2653	34.0949	0.71976	0	
0.2660	15.7604	1.03965	0	
0.2667	13.0286	-1.71943	0	
0.2673	18.5447	1.03965	0	
0.2680	3.25714	5.91802	0	
0.2687	-21.7493	4.07864	0	
0.2693	-38.2452	0.11996	0	
0.2700	-46.4931	0.11996	0	
0.2707	-40.6618	0.11996	0	
0.2713	-26.0571	-0.799733	0	
0.2720	-21.1714	0.439853	0	
0.2727	-12.6083	0.439853	0	
0.2733	13.0286	1.95935	0	
0.2740	34.0949	5.31822	0	
0.2747	40.5042	4.71842	0	
0.2753	40.8194	2.55915	0	
0.2760	37.1419	2.87904	0	
0.2767	23.6931	1.63945	0	
0.2773	-2.83687	-1.71943	0	
0.2780	-30.6277	0.439853	0	
0.2787	-33.6747	3.79873	0	
0.2793	-11.0848	2.87904	0	
0.2800	9.35115	1.03965	0	
0.2807	15.7604	0.439853	0	
0.2813	10.2968	1.95935	0	
0.2820	-4.99078	3.79873	0	
0.2827	-19.6479	2.55915	0	
0.2833	-29.4194	-0.47984	0	
0.2840	-37.3521	0.11996	0	
0.2847	-39.1383	1.03965	0	
0.2853	-33.6747	-0.47984	0	
0.2860	-26.3198	0.11996	0	
0.2867	-15.3401	1.95935	0	
0.2873	-3.46728	0.11996	0	
0.2880	2.04885	-1.71943	0	
0.2887	3.88756	-0.799733	0	
0.2893	4.78065	-0.799733	0	
0.2900	2.62673	-1.39953	0	
0.2907	-0.682949	0.11996	0	
0.2913	-1.62857	1.03965	0	
0.2920	4.46544	-0.799733	0	
0.2927	13.9217	-1.07964	0	
0.2933	14.8673	0.439853	0	
0.2940	12.7134	1.03965	0	
0.2947	28.5788	0.11996	0	
0.2953	50.5383	-1.07964	0	
0.2960	54.2157	-1.99933	0	
0.2967	42.9207	-2.63912	0	
0.2973	22.1696	-2.91903	0	
0.2980	-12.2931	-3.83872	0	
0.2987	-41.2922	-3.55881	0	
0.2993	-40.977	-3.55881	0	
0.3000	-22.6949	-3.55881	0	
0.3007	-10.7696	-2.63912	0	
0.3013	-9.8765	-2.31923	0	
0.3020	-10.7696	-1.99933	0	
0.3027	-5.30599	-0.799733	0	
0.3033	2.94194	-0.799733	0	
0.3040	4.78065	-4.15861	0	
0.3047	1.73364	-5.6781	0	
0.3053	0.525346	-4.43852	0	
0.3060	0.210138	-3.23892	0	
0.3067	-0.420277	-2.63912	0	
0.3073	3.88756	-2.91903	0	
0.3080	11.8203	-3.55881	0	
0.3087	11.8203	-2.91903	0	
0.3093	1.73364	-2.63912	0	
0.3100	-3.46728	-2.63912	0	
0.3107	2.94194	-1.71943	0	
0.3113	13.0286	-2.63912	0	
0.3120	19.1226	-4.43852	0	
0.3127	23.1152	-3.23892	0	
0.3133	26.1622	0.11996	0	
0.3140	28.0009	0.71976	0	
0.3147	21.5917	-0.47984	0	
0.3153	-4.67558	-0.799733	0	
0.3160	-37.3521	-0.199933	0	
0.3167	-44.3392	1.03965	0	
0.3173	-26.9502	0.439853	0	
0.3180	-6.82949	0.11996	0	
0.3187	5.98894	1.63945	0	
0.3193	7.51244	2.87904	0	
0.3200	3.25714	2.23925	0	
0.3207	3.57235	1.35955	0	
0.3213	-3.46728	0.11996	0	
0.3220	-24.5336	0.11996	0	
0.3227	-32.1512	2.55915	0	
0.3233	-16.6009	3.15895	0	
0.3240	-1.94378	0.11996	0	
0.3247	4.78065	-2.63912	0	
0.3253	9.98157	-0.799733	0	
0.3260	7.51244	0.439853	0	
0.3267	-0.682949	-0.47984	0	
0.3273	-5.88387	-0.47984	0	
0.3280	-10.1917	0.71976	0	
0.3287	-8.93088	-1.07964	0	
0.3293	2.04885	-3.55881	0	
0.3300	13.3438	-2.63912	0	
0.3307	21.5917	-1.71943	0	
0.3313	31.3631	-3.55881	0	
0.3320	38.3502	-4.75841	0	
0.3327	36.8267	-2.91903	0	
0.3333	29.2092	0.11996	0	
0.3340	17.9143	2.87904	0	
0.3347	6.61936	2.23925	0	
0.3353	-5.30599	1.63945	0	
0.3360	-14.447	3.15895	0	
0.3367	-14.1318	2.87904	0	
0.3373	-11.7152	1.95935	0	
0.3380	-20.541	3.79873	0	
0.3387	-30.9429	4.99833	0	
0.3393	-29.1042	2.87904	0	
0.3400	-19.0175	1.63945	0	
0.3407	-8.93088	1.63945	0	
0.3413	-0.420277	1.03965	0	
0.3420	8.45807	1.03965	0	
0.3427	23.1152	0.11996	0	
0.3433	40.1889	-1.71943	0	
0.3440	45.9678	-0.799733	0	
0.3447	34.4101	-1.07964	0	
0.3453	10.2968	-5.0783	0	
0.3460	-16.8636	-6.8777	0	
0.3467	-37.6148	-5.0783	0	
0.3473	-51.0636	-4.15861	0	
0.3480	-54.1106	-3.55881	0	
0.3487	-41.9226	-0.799733	0	
0.3493	-26.9502	-0.799733	0	
0.3500	-20.541	-2.63912	0	
0.3507	-6.19908	-1.71943	0	
0.3513	21.8544	-1.71943	0	
0.3520	38.6654	-4.43852	0	
0.3527	38.6654	-3.23892	0	
0.3533	39.5585	2.23925	0	
0.3540	41.3972	2.55915	0	
0.3547	27.3705	-1.71943	0	
0.3553	-0.998157	-2.63912	0	
0.3560	-19.9106	-1.07964	0	
0.3567	-8.93088	0.11996	0	
0.3573	13.659	1.63945	0	
0.3580	20.0682	0.439853	0	
0.3587	23.1152	-1.71943	0	
0.3593	43.236	0.11996	0	
0.3600	57.2627	0.11996	0	
0.3607	50.5383	-3.55881	0	
0.3613	36.8267	-2.91903	0	
0.3620	5.72627	-0.199933	0	
0.3627	-42.8157	-1.71943	0	
0.3633	-71.1843	-1.71943	0	
0.3640	-70.6065	0.11996	0	
0.3647	-65.7208	-1.71943	0	
0.3653	-54.741	-2.63912	0	
0.3660	-35.776	0.439853	0	
0.3667	-26.9502	-0.47984	0	
0.3673	-22.0645	-3.55881	0	
0.3680	-12.2931	-2.91903	0	
0.3687	-11.4	-3.83872	0	
0.3693	-19.3327	-6.5978	0	
0.3700	-22.6949	-3.83872	0	
0.3707	-21.7493	0.11996	0	
0.3713	-21.1714	-1.07964	0	
0.3720	-19.0175	-2.91903	0	
0.3727	-15.3401	-1.07964	0	
0.3733	-13.5014	0.439853	0	
0.3740	-14.447	-0.199933	0	
0.3747	-14.447	-0.47984	0	
0.3753	-11.9779	1.63945	0	
0.3760	-8.93088	3.15895	0	
0.3767	6.30415	2.87904	0	
0.3773	36.8267	3.15895	0	
0.3780	59.7318	4.07864	0	
0.3787	63.3567	1.95935	0	
0.3793	55.1613	0.11996	0	
0.3800	39.8737	1.63945	0	
0.3807	27.0553	2.87904	0	
0.3813	17.5991	3.47884	0	
0.3820	-4.04516	3.15895	0	
0.3827	-28.1585	1.03965	0	
0.3833	-29.4194	-0.199933	0	
0.3840	-17.494	1.03965	0	
0.3847	-12.6083	1.03965	0	
0.3853	-8.93088	0.11996	0	
0.3860	-4.99078	0.71976	0	
0.3867	-4.04516	0.11996	0	
0.3873	-2.52166	-1.71943	0	
0.3880	-0.682949	-0.47984	0	
0.3887	1.41843	2.23925	0	
0.3893	9.98157	1.03965	0	
0.3900	22.1696	-2.63912	0	
0.3907	26.1622	-1.71943	0	
0.3913	22.8	0.439853	0	
0.3920	19.753	-0.799733	0	
0.3927	18.5447	-1.71943	0	
0.3933	20.3309	0.71976	0	
0.3940	22.4848	0.439853	0	
0.3947	17.2839	-0.47984	0	
0.3953	6.30415	1.95935	0	
0.3960	3.25714	3.15895	0	
0.3967	4.78065	1.03965	0	
0.3973	1.10323	1.95935	0	
0.3980	2.62673	2.55915	0	
0.3987	13.0286	0.11996	0	
0.3993	15.7604	-0.47984	0	
0.4000	13.0286	0.11996	0	
0.4007	13.0286	-1.71943	0	
0.4013	2.94194	-0.799733	0	
0.4020	-17.1788	1.95935	0	
0.4027	-26.9502	1.03965	0	
0.4033	-29.4194	-0.199933	0	
0.4040	-36.4065	-0.47984	0	
0.4047	-39.7687	-1.71943	0	
0.4053	-40.977	-0.199933	0	
0.4060	-44.6544	3.15895	0	
0.4067	-37.93	3.47884	0	
0.4073	-20.8562	1.95935	0	
0.4080	-4.36037	1.63945	0	
0.4087	18.5447	1.95935	0	
0.4093	50.5383	3.15895	0	
0.4100	79.5373	4.71842	0	
0.4107	96.6636	4.71842	0	
0.4113	91.7779	4.07864	0	
0.4120	52.6922	3.79873	0	
0.4127	-3.78249	3.47884	0	
0.4133	-44.3392	1.03965	0	
0.4140	-54.741	-1.99933	0	
0.4147	-43.7613	-2.63912	0	
0.4153	-27.8433	-0.47984	0	
0.4160	-17.1788	0.71976	0	
0.4167	-13.8166	1.03965	0	
0.4173	-19.0175	0.71976	0	
0.4180	-23.588	-1.71943	0	
0.4187	-11.7152	-2.63912	0	
0.4193	9.03595	-1.71943	0	
0.4200	18.5447	-3.55881	0	
0.4207	17.9143	-5.998	0	
0.4213	15.7604	-4.15861	0	
0.4220	10.8747	-3.55881	0	
0.4227	2.62673	-5.0783	0	
0.4233	-6.51429	-4.75841	0	
0.4240	-14.447	-5.0783	0	
0.4247	-17.1788	-7.51749	0	
0.4253	-16.6009	-6.8777	0	
0.4260	-19.0175	-4.15861	0	
0.4267	-17.494	-3.83872	0	
0.4273	-4.36037	-3.55881	0	
0.4280	14.5521	-1.71943	0	
0.4287	30.1023	-2.31923	0	
0.4293	33.1493	-3.55881	0	
0.4300	17.2839	-1.99933	0	
0.4307	-4.36037	-1.07964	0	
0.4313	-19.6479	-2.63912	0	
0.4320	-33.6747	-1.99933	0	
0.4327	-43.1309	-0.799733	0	
0.4333	-35.776	-0.47984	0	
0.4340	-20.8562	1.03965	0	
0.4347	-11.4	1.95935	0	
0.4353	-6.19908	1.03965	0	
0.4360	-4.04516	1.35955	0	
0.4367	-3.15207	2.87904	0	
0.4373	1.10323	1.03965	0	
0.4380	2.94194	1.95935	0	
0.4387	-0.998157	6.23792	0	
0.4393	-5.56866	4.71842	0	
0.4400	-10.4544	-1.71943	0	
0.4407	-11.0848	-0.47984	0	
0.4413	-4.36037	2.23925	0	
0.4420	3.88756	-1.71943	0	
0.4427	17.5991	-3.83872	0	
0.4433	39.5585	-0.799733	0	
0.4440	56.3696	-0.199933	0	
0.4447	58.7862	-2.63912	0	
0.4453	48.7521	-2.63912	0	
0.4460	30.1023	-1.99933	0	
0.4467	15.7604	-3.55881	0	
0.4473	5.98894	-4.43852	0	
0.4480	-22.0645	-3.83872	0	
0.4487	-52.9023	-3.55881	0	
0.4493	-52.5871	-2.31923	0	
0.4500	-41.6074	-1.71943	0	
0.4507	-46.4931	-1.71943	0	
0.4513	-47.071	-0.199933	0	
0.4520	-33.0442	1.95935	0	
0.4527	-24.7963	1.63945	0	
0.4533	-25.4267	0.11996	0	
0.4540	-19.0175	-1.07964	0	
0.4547	-3.15207	-0.199933	0	
0.4553	14.8673	0.439853	0	
0.4560	33.1493	-1.39953	0	
0.4567	56.0544	-1.99933	0	
0.4573	76.8055	1.03965	0	
0.4580	81.6913	3.15895	0	
0.4587	70.7115	0.71976	0	
0.4593	42.3429	-0.799733	0	
0.4600	-9.24608	1.03965	0	
0.4607	-61.7281	2.55915	0	
0.4613	-84.9484	2.87904	0	
0.4620	-83.7401	1.95935	0	
0.4627	-74.8618	0.439853	0	
0.4633	-60.2046	0.71976	0	
0.4640	-41.9226	1.35955	0	
0.4647	-26.9502	1.63945	0	
0.4653	-17.1788	2.23925	0	
0.4660	-13.5014	1.95935	0	
0.4667	-12.9235	1.63945	0	
0.4673	-9.8765	2.87904	0	
0.4680	-6.82949	1.35955	0	
0.4687	-7.72258	-2.31923	0	
0.4693	-8.93088	-0.799733	0	
0.4700	-8.93088	1.63945	0	
0.4707	-9.56129	-0.799733	0	
0.4713	-8.93088	-1.71943	0	
0.4720	-3.15207	0.71976	0	
0.4727	8.45807	-0.47984	0	
0.4733	21.8544	-3.55881	0	
0.4740	31.6258	-1.99933	0	
0.4747	39.5585	0.11996	0	
0.4753	53.3226	-2.31923	0	
0.4760	65.1954	-4.43852	0	
0.4767	58.7862	-3.83872	0	
0.4773	38.6654	-3.55881	0	
0.4780	23.1152	-3.55881	0	
0.4787	11.1899	-3.23892	0	
0.4793	-5.56866	-3.55881	0	
0.4800	-13.8166	-4.15861	0	
0.4807	-10.7696	-2.31923	0	
0.4813	-9.56129	-0.47984	0	
0.4820	-9.24608	-1.99933	0	
0.4827	-6.82949	-4.15861	0	
0.4833	-9.24608	-2.63912	0	
0.4840	-13.2387	-0.799733	0	
0.4847	-10.7696	-1.71943	0	
0.4853	-8.03779	-2.63912	0	
0.4860	-3.15207	-1.99933	0	
0.4867	5.98894	-0.799733	0	
0.4873	11.8203	-0.799733	0	
0.4880	12.7134	-1.71943	0	
0.4887	12.7134	-1.71943	0	
0.4893	9.66636	0.11996	0	
0.4900	4.78065	-0.799733	0	
0.4907	2.62673	-2.63912	0	
0.4913	3.88756	-1.07964	0	
0.4920	7.82765	0.439853	0	
0.4927	11.5051	-1.99933	0	
0.4933	11.1899	-2.63912	0	
0.4940	16.0756	0.11996	0	
0.4947	26.4774	1.03965	0	
0.4953	26.7401	0.439853	0	
0.4960	24.3235	1.03965	0	
0.4967	33.1493	-0.199933	0	
0.4973	34.0949	0.439853	0	
0.4980	8.14286	3.47884	0	
0.4987	-27.2654	1.63945	0	
0.4993	-50.4332	-1.99933	0	
0.5000	-63.2516	1.03965	0	
0.5007	-68.1373	4.71842	0	
0.5013	-61.1502	2.87904	0	
0.5020	-39.7687	3.47884	0	
0.5027	-8.03779	5.59813	0	
0.5033	22.8	4.71842	0	
0.5040	36.8267	2.87904	0	
0.5047	35.3032	1.63945	0	
0.5053	35.6184	-0.799733	0	
0.5060	34.0949	1.03965	0	
0.5067	10.2968	4.07864	0	
0.5073	-24.7963	1.63945	0	
0.5080	-42.8157	-1.71943	0	
0.5087	-45.5475	0.11996	0	
0.5093	-47.7014	1.63945	0	
0.5100	-41.6074	0.11996	0	
0.5107	-24.5336	-0.47984	0	
0.5113	-13.2387	-1.71943	0	
0.5120	-11.4	-0.799733	0	
0.5127	-10.4544	2.87904	0	
0.5133	-11.9779	2.55915	0	
0.5140	-16.2857	-0.199933	0	
0.5147	-14.447	0.71976	0	
0.5153	-8.93088	1.03965	0	
0.5160	-5.30599	-2.91903	0	
0.5167	2.36406	-5.0783	0	
0.5173	13.0286	-3.55881	0	
0.5180	17.9143	-1.71943	0	
0.5187	16.706	-0.199933	0	
0.5193	15.1825	0.11996	0	
0.5200	15.7604	-1.39953	0	
0.5207	20.0682	-1.71943	0	
0.5213	24.9539	-0.199933	0	
0.5220	25.2166	-0.799733	0	
0.5227	23.6931	-2.63912	0	
0.5233	23.1152	-0.47984	0	
0.5240	18.5447	1.95935	0	
0.5247	13.0286	0.439853	0	
0.5253	9.35115	-0.799733	0	
0.5260	2.04885	1.95935	0	
0.5267	-9.8765	4.07864	0	
0.5273	-19.3327	1.95935	0	
0.5280	-22.3797	-0.199933	0	
0.5287	-18.1244	-0.199933	0	
0.5293	-10.1917	-0.199933	0	
0.5300	-4.67558	0.11996	0	
0.5307	-2.52166	2.55915	0	
0.5313	0.840553	4.71842	0	
0.5320	9.35115	3.79873	0	
0.5327	21.2765	1.95935	0	
0.5333	31.941	1.95935	0	
0.5340	37.7198	1.03965	0	
0.5347	41.3972	1.63945	0	
0.5353	41.3972	3.15895	0	
0.5360	34.988	1.03965	0	
0.5367	27.3705	-0.47984	0	
0.5373	22.1696	3.47884	0	
0.5380	13.0286	6.23792	0	
0.5387	-3.15207	4.99833	0	
0.5393	-23.588	5.31822	0	
0.5400	-45.8627	4.71842	0	
0.5407	-58.9963	0.11996	0	
0.5413	-49.2249	-1.99933	0	
0.5420	-27.2654	-1.71943	0	
0.5427	-15.0249	-4.15861	0	
0.5433	-10.7696	-7.1976	0	
0.5440	-4.36037	-7.1976	0	
0.5447	-1.31336	-7.1976	0	
0.5453	-0.682949	-9.03698	0	
0.5460	11.8203	-8.71709	0	
0.5467	31.3631	-7.1976	0	
0.5473	39.5585	-8.43718	0	
0.5480	34.988	-8.71709	0	
0.5487	22.8	-4.43852	0	
0.5493	1.10323	-2.63912	0	
0.5500	-27.2654	-4.43852	0	
0.5507	-48.9097	-4.75841	0	
0.5513	-52.9023	-2.63912	0	
0.5520	-44.6544	-3.23892	0	
0.5527	-35.776	-4.75841	0	
0.5533	-24.7963	-3.83872	0	
0.5540	-11.7152	-2.63912	0	
0.5547	-4.67558	-3.55881	0	
0.5553	-3.78249	-2.31923	0	
0.5560	-0.998157	-0.199933	0	
0.5567	1.73364	-0.799733	0	
0.5573	2.94194	-1.39953	0	
0.5580	8.45807	-0.799733	0	
0.5587	18.5447	-1.99933	0	
0.5593	27.6857	-2.63912	0	
0.5600	33.1493	-0.199933	0	
0.5607	32.2562	1.03965	0	
0.5613	24.6387	1.03965	0	
0.5620	10.5594	1.03965	0	
0.5627	-12.2931	0.439853	0	
0.5633	-39.1383	0.71976	0	
0.5640	-55.3189	3.47884	0	
0.5647	-48.0166	2.23925	0	
0.5653	-21.1714	-0.47984	0	
0.5660	14.8673	1.63945	0	
0.5667	49.6452	3.47884	0	
0.5673	68.5576	2.87904	0	
0.5680	65.1954	3.79873	0	
0.5687	47.2286	3.47884	0	
0.5693	15.7604	0.11996	0	
0.5700	-26.635	-0.799733	0	
0.5707	-57.4728	-0.799733	0	
0.5713	-62.3585	0.439853	0	
0.5720	-53.4802	4.07864	0	
0.5727	-40.0839	3.79873	0	
0.5733	-22.3797	-0.47984	0	
0.5740	-6.19908	0.11996	0	
0.5747	1.10323	2.87904	0	
0.5753	2.62673	0.71976	0	
0.5760	0.210138	0.11996	0	
0.5767	-1.62857	1.95935	0	
0.5773	1.10323	1.03965	0	
0.5780	2.04885	-0.799733	0	
0.5787	-0.682949	0.11996	0	
0.5793	0.210138	0.439853	0	
0.5800	3.88756	1.35955	0	
0.5807	4.15023	1.95935	0	
0.5813	2.04885	-1.39953	0	
0.5820	2.62673	-3.83872	0	
0.5827	5.09585	-1.99933	0	
0.5833	4.46544	-0.799733	0	
0.5840	5.41106	-1.39953	0	
0.5847	9.03595	-0.799733	0	
0.5853	6.61936	-1.99933	0	
0.5860	4.78065	-4.75841	0	
0.5867	18.2295	-5.35821	0	
0.5873	31.6258	-5.35821	0	
0.5880	30.4175	-5.998	0	
0.5887	30.1023	-6.2779	0	
0.5893	33.4645	-5.6781	0	
0.5900	23.1152	-4.43852	0	
0.5907	7.51244	-2.63912	0	
0.5913	1.73364	-3.55881	0	
0.5920	-2.83687	-6.5978	0	
0.5927	-8.353	-8.11729	0	
0.5933	-12.6083	-7.1976	0	
0.5940	-19.9106	-5.998	0	
0.5947	-21.4341	-5.6781	0	
0.5953	-9.24608	-5.35821	0	
0.5960	4.46544	-5.0783	0	
0.5967	13.3438	-5.35821	0	
0.5973	19.753	-5.35821	0	
0.5980	16.706	-3.55881	0	
0.5987	7.24977	-2.63912	0	
0.5993	5.72627	-3.55881	0	
0.6000	11.1899	-4.43852	0	
0.6007	14.5521	-3.83872	0	
0.6013	12.1355	-1.71943	0	
0.6020	5.09585	1.63945	0	
0.6027	-2.83687	0.439853	0	
0.6033	-11.7152	-3.83872	0	
0.6040	-21.1714	-2.63912	0	
0.6047	-21.1714	1.03965	0	
0.6053	-11.9779	0.11996	0	
0.6060	-5.88387	-1.39953	0	
0.6067	2.94194	-0.199933	0	
0.6073	22.1696	-0.47984	0	
0.6080	38.035	-1.71943	0	
0.6087	38.9807	-2.91903	0	
0.6093	30.4175	-2.63912	0	
0.6100	16.3908	0.439853	0	
0.6107	-4.36037	3.15895	0	
0.6113	-32.1512	1.03965	0	
0.6120	-50.1705	-1.39953	0	
0.6127	-35.776	0.11996	0	
0.6133	0.210138	3.47884	0	
0.6140	24.9539	4.71842	0	
0.6147	30.4175	2.55915	0	
0.6153	31.0479	-0.799733	0	
0.6160	26.1622	-2.63912	0	
0.6167	16.706	-2.31923	0	
0.6173	16.706	-0.799733	0	
0.6180	23.6931	0.71976	0	
0.6187	15.1825	0.71976	0	
0.6193	-8.61567	0.11996	0	
0.6200	-26.635	0.11996	0	
0.6207	-33.3595	-0.799733	0	
0.6213	-35.5134	-1.99933	0	
0.6220	-29.682	-1.71943	0	
0.6227	-22.0645	0.439853	0	
0.6233	-24.7963	2.87904	0	
0.6240	-31.836	2.23925	0	
0.6247	-33.9899	-0.799733	0	
0.6253	-30.9429	-1.07964	0	
0.6260	-22.3797	0.11996	0	
0.6267	-10.4544	0.439853	0	
0.6273	-3.15207	0.11996	0	
0.6280	0.210138	-0.799733	0	
0.6287	2.62673	-1.39953	0	
0.6293	3.88756	1.35955	0	
0.6300	5.41106	3.79873	0	
0.6307	6.61936	2.55915	0	
0.6313	5.41106	1.03965	0	
0.6320	6.61936	1.95935	0	
0.6327	8.77327	3.15895	0	
0.6333	5.72627	2.87904	0	
0.6340	-1.94378	3.79873	0	
0.6347	-14.1318	5.31822	0	
0.6353	-26.3198	3.79873	0	
0.6360	-25.4267	1.03965	0	
0.6367	-13.8166	0.439853	0	
0.6373	-4.36037	1.35955	0	
0.6380	8.14286	0.71976	0	
0.6387	25.5318	1.03965	0	
0.6393	36.8267	2.87904	0	
0.6400	39.5585	2.23925	0	
0.6407	36.5115	1.63945	0	
0.6413	29.5244	3.47884	0	
0.6420	21.5917	3.79873	0	
0.6427	4.78065	2.23925	0	
0.6433	-21.1714	2.23925	0	
0.6440	-30.9429	2.23925	0	
0.6447	-19.6479	1.35955	0	
0.6453	-12.2931	0.439853	0	
0.6460	-11.7152	0.11996	0	
0.6467	-7.40737	-0.199933	0	
0.6473	-10.7696	-0.799733	0	
0.6480	-22.6949	-2.91903	0	
0.6487	-25.4267	-3.23892	0	
0.6493	-17.8092	-0.799733	0	
0.6500	-11.0848	1.35955	0	
0.6507	-11.7152	1.03965	0	
0.6513	-15.3401	0.71976	0	
0.6520	-11.4	0.11996	0	
0.6527	0.210138	-0.799733	0	
0.6533	10.5594	-1.99933	0	
0.6540	20.3309	-1.99933	0	
0.6547	29.5244	0.11996	0	
0.6553	29.2092	-0.799733	0	
0.6560	19.4378	-3.55881	0	
0.6567	11.5051	-1.99933	0	
0.6573	10.2968	1.95935	0	
0.6580	10.2968	1.03965	0	
0.6587	8.45807	-0.799733	0	
0.6593	4.46544	0.71976	0	
0.6600	-0.105069	2.87904	0	
0.6607	-5.56866	3.79873	0	
0.6613	-11.0848	3.47884	0	
0.6620	-11.9779	1.35955	0	
0.6627	-6.51429	0.439853	0	
0.6633	-2.20645	2.55915	0	
0.6640	-6.19908	3.15895	0	
0.6647	-11.7152	0.439853	0	
0.6653	-9.8765	-1.07964	0	
0.6660	-7.09217	1.35955	0	
0.6667	-6.19908	2.87904	0	
0.6673	-3.46728	-0.799733	0	
0.6680	-2.52166	-3.23892	0	
0.6687	-3.78249	-0.799733	0	
0.6693	-1.31336	0.11996	0	
0.6700	0.210138	-1.71943	0	
0.6707	-2.52166	-0.47984	0	
0.6713	-0.998157	1.03965	0	
0.6720	3.25714	-0.799733	0	
0.6727	1.41843	-0.199933	0	
0.6733	1.10323	0.11996	0	
0.6740	6.61936	-3.83872	0	
0.6747	9.35115	-1.71943	0	
0.6753	9.66636	4.07864	0	
0.6760	10.8747	2.55915	0	
0.6767	8.45807	-0.199933	0	
0.6773	9.03595	1.63945	0	
0.6780	19.1226	1.63945	0	
0.6787	30.4175	1.63945	0	
0.6793	37.7198	3.79873	0	
0.6800	41.3972	2.23925	0	
0.6807	30.7327	-0.799733	0	
0.6813	4.78065	0.11996	0	
0.6820	-13.5014	0.11996	0	
0.6827	-18.3871	-1.71943	0	
0.6833	-23.0101	-2.31923	0	
0.6840	-25.4267	-3.55881	0	
0.6847	-15.6553	-5.6781	0	
0.6853	-1.62857	-4.43852	0	
0.6860	6.61936	-1.99933	0	
0.6867	9.35115	-0.47984	0	
0.6873	9.03595	0.11996	0	
0.6880	6.61936	-0.799733	0	
0.6887	4.46544	-1.99933	0	
0.6893	2.94194	-1.71943	0	
0.6900	-0.682949	-1.39953	0	
0.6907	-7.40737	-1.71943	0	
0.6913	-8.03779	-0.199933	0	
0.6920	4.15023	2.55915	0	
0.6927	23.6931	1.95935	0	
0.6933	35.3032	-0.799733	0	
0.6940	31.3631	-0.799733	0	
0.6947	18.2295	-0.199933	0	
0.6953	0.210138	-0.799733	0	
0.6960	-24.2184	-1.99933	0	
0.6967	-46.4931	-2.31923	0	
0.6973	-52.2719	-1.71943	0	
0.6980	-46.1779	1.03965	0	
0.6987	-44.6544	1.35955	0	
0.6993	-52.9023	-1.71943	0	
0.7000	-58.1032	-1.39953	0	
0.7007	-39.1383	2.23925	0	
0.7013	-2.20645	2.55915	0	
0.7020	21.8544	0.439853	0	
0.7027	21.2765	-0.199933	0	
0.7033	12.1355	-0.799733	0	
0.7040	5.98894	-0.199933	0	
0.7047	2.94194	1.63945	0	
0.7053	3.88756	0.11996	0	
0.7060	8.45807	-1.07964	0	
0.7067	15.4452	-0.47984	0	
0.7073	21.5917	-2.63912	0	
0.7080	23.3779	-5.0783	0	
0.7087	20.0682	-2.91903	0	
0.7093	11.1899	-1.71943	0	
0.7100	1.41843	-2.63912	0	
0.7107	-2.83687	-1.71943	0	
0.7113	-7.09217	-1.99933	0	
0.7120	-17.1788	-4.43852	0	
0.7127	-24.7963	-3.55881	0	
0.7133	-21.7493	-0.199933	0	
0.7140	-15.0249	-0.47984	0	
0.7147	-9.8765	-3.23892	0	
0.7153	-6.51429	-2.63912	0	
0.7160	-6.82949	0.11996	0	
0.7167	-7.72258	-0.199933	0	
0.7173	-0.682949	-2.91903	0	
0.7180	15.7604	-3.55881	0	
0.7187	34.0949	-2.91903	0	
0.7193	46.283	-4.43852	0	
0.7200	44.129	-2.91903	0	
0.7207	30.1023	0.11996	0	
0.7213	19.1226	-1.07964	0	
0.7220	12.1355	-4.43852	0	
0.7227	-4.36037	-3.23892	0	
0.7233	-23.588	-3.23892	0	
0.7240	-26.0571	-6.2779	0	
0.7247	-17.8092	-5.998	0	
0.7253	-16.2857	-3.55881	0	
0.7260	-17.1788	-4.43852	0	
0.7267	-14.447	-6.2779	0	
0.7273	-14.1318	-4.43852	0	
0.7280	-15.0249	-1.99933	0	
0.7287	-12.9235	-0.799733	0	
0.7293	-12.2931	-0.799733	0	
0.7300	-11.9779	-1.39953	0	
0.7307	-5.30599	-1.39953	0	
0.7313	2.94194	-1.39953	0	
0.7320	4.15023	-2.31923	0	
0.7327	2.04885	-2.91903	0	
0.7333	2.36406	-2.63912	0	
0.7340	5.72627	-1.71943	0	
0.7347	7.51244	0.11996	0	
0.7353	2.04885	0.71976	0	
0.7360	-6.82949	-0.799733	0	
0.7367	-8.61567	-0.47984	0	
0.7373	-8.93088	0.71976	0	
0.7380	-10.7696	-0.799733	0	
0.7387	-1.31336	-1.07964	0	
0.7393	18.5447	0.439853	0	
0.7400	32.2562	-0.799733	0	
0.7407	40.1889	-1.99933	0	
0.7413	40.8194	-0.199933	0	
0.7420	18.5447	0.11996	0	
0.7427	-15.6553	-0.799733	0	
0.7433	-29.9972	1.03965	0	
0.7440	-27.5807	1.03965	0	
0.7447	-32.4664	-1.99933	0	
0.7453	-38.2452	-2.63912	0	
0.7460	-31.2055	-1.99933	0	
0.7467	-15.0249	-2.63912	0	
0.7473	2.62673	-1.71943	0	
0.7480	12.1355	-0.799733	0	
0.7487	7.24977	-1.07964	0	
0.7493	0.210138	-0.199933	0	
0.7500	2.62673	1.03965	0	
0.7507	3.25714	-0.799733	0	
0.7513	-6.19908	-1.39953	0	
0.7520	-18.3871	1.03965	0	
0.7527	-30.6277	1.03965	0	
0.7533	-41.2922	0.11996	0	
0.7540	-43.7613	1.63945	0	
0.7547	-33.6747	1.95935	0	
0.7553	-16.2857	-0.799733	0	
0.7560	-0.105069	-1.07964	0	
0.7567	8.45807	2.23925	0	
0.7573	13.0286	3.47884	0	
0.7580	18.5447	1.35955	0	
0.7587	19.4378	1.03965	0	
0.7593	12.3982	2.23925	0	
0.7600	6.93456	2.23925	0	
0.7607	5.72627	1.95935	0	
0.7613	4.46544	2.55915	0	
0.7620	2.36406	2.87904	0	
0.7627	0.840553	1.95935	0	
0.7633	2.62673	2.87904	0	
0.7640	8.45807	4.39853	0	
0.7647	9.35115	3.15895	0	
0.7653	8.77327	0.71976	0	
0.7660	20.0682	-0.199933	0	
0.7667	34.0949	-0.199933	0	
0.7673	35.6184	0.11996	0	
0.7680	30.4175	1.03965	0	
0.7687	23.1152	2.23925	0	
0.7693	7.51244	2.87904	0	
0.7700	-14.7622	3.15895	0	
0.7707	-34.5677	2.23925	0	
0.7713	-40.977	1.03965	0	
0.7720	-29.4194	0.11996	0	
0.7727	-16.6009	-0.199933	0	
0.7733	-11.7152	0.439853	0	
0.7740	-4.04516	1.03965	0	
0.7747	4.78065	0.439853	0	
0.7753	4.46544	-0.799733	0	
0.7760	-1.31336	-1.07964	0	
0.7767	-7.72258	-0.799733	0	
0.7773	-10.7696	-1.39953	0	
0.7780	-6.19908	-1.07964	0	
0.7787	4.15023	-0.199933	0	
0.7793	16.9687	-1.07964	0	
0.7800	33.4645	-1.39953	0	
0.7807	46.5982	0.439853	0	
0.7813	51.7991	0.439853	0	
0.7820	44.7595	0.11996	0	
0.7827	18.5447	1.63945	0	
0.7833	-8.03779	1.63945	0	
0.7840	-11.0848	-0.799733	0	
0.7847	-1.31336	0.11996	0	
0.7853	6.61936	2.87904	0	
0.7860	13.9217	0.71976	0	
0.7867	13.3438	-2.31923	0	
0.7873	4.15023	-0.799733	0	
0.7880	2.62673	0.71976	0	
0.7887	1.10323	-1.71943	0	
0.7893	-12.9235	-1.99933	0	
0.7900	-23.9032	-0.799733	0	
0.7907	-15.3401	-1.71943	0	
0.7913	-1.31336	-1.71943	0	
0.7920	-0.682949	-1.39953	0	
0.7927	-9.8765	-3.23892	0	
0.7933	-15.0249	-4.15861	0	
0.7940	-13.5014	-2.31923	0	
0.7947	-12.6083	-1.99933	0	
0.7953	-15.3401	-2.63912	0	
0.7960	-15.3401	-2.63912	0	
0.7967	-12.6083	-3.55881	0	
0.7973	-10.1917	-3.55881	0	
0.7980	-7.72258	-0.47984	0	
0.7987	6.61936	-0.799733	0	
0.7993	36.1963	-3.55881	0	
0.8000	52.6922	-2.63912	0	
0.8007	33.1493	-0.799733	0	
0.8013	2.94194	-0.799733	0	
0.8020	-11.4	1.03965	0	
0.8027	-24.5336	2.87904	0	
0.8033	-42.8157	1.03965	0	
0.8040	-39.7687	-0.47984	0	
0.8047	-15.3401	-0.199933	0	
0.8053	5.09585	-2.63912	0	
0.8060	14.8673	-3.55881	0	
0.8067	17.9143	-0.799733	0	
0.8073	14.8673	0.11996	0	
0.8080	8.45807	-2.31923	0	
0.8087	1.10323	-1.71943	0	
0.8093	-6.19908	-0.199933	0	
0.8100	-7.09217	-1.71943	0	
0.8107	-2.52166	-1.99933	0	
0.8113	-4.36037	1.63945	0	
0.8120	-11.9779	3.79873	0	
0.8127	-12.6083	2.87904	0	
0.8133	-2.52166	1.95935	0	
0.8140	6.93456	1.35955	0	
0.8147	10.2968	1.03965	0	
0.8153	9.98157	2.87904	0	
0.8160	6.61936	3.79873	0	
0.8167	-2.20645	0.71976	0	
0.8173	-11.0848	-0.799733	0	
0.8180	-14.1318	-0.799733	0	
0.8187	-11.7152	-2.63912	0	
0.8193	-7.40737	-3.23892	0	
0.8200	-5.56866	1.03965	0	
0.8207	-5.30599	1.95935	0	
0.8213	0.210138	0.11996	0	
0.8220	9.66636	1.03965	0	
0.8227	15.7604	0.71976	0	
0.8233	17.5991	-1.99933	0	
0.8240	15.7604	-0.47984	0	
0.8247	6.61936	3.15895	0	
0.8253	-3.46728	3.79873	0	
0.8260	-12.6083	4.71842	0	
0.8267	-21.7493	3.79873	0	
0.8273	-24.2184	-0.799733	0	
0.8280	-14.7622	0.11996	0	
0.8287	-4.04516	4.07864	0	
0.8293	1.41843	2.87904	0	
0.8300	2.04885	0.439853	0	
0.8307	0.525346	1.95935	0	
0.8313	2.62673	1.03965	0	
0.8320	6.93456	-0.799733	0	
0.8327	7.82765	-1.71943	0	
0.8333	9.35115	-1.99933	0	
0.8340	13.9217	-2.63912	0	
0.8347	18.5447	-3.23892	0	
0.8353	22.8	-5.0783	0	
0.8360	26.4774	-4.15861	0	
0.8367	24.3235	-1.71943	0	
0.8373	22.1696	-1.71943	0	
0.8380	26.7401	-1.71943	0	
0.8387	37.7198	-0.47984	0	
0.8393	55.424	-1.39953	0	
0.8400	74.9668	-3.23892	0	
0.8407	79.8526	-1.71943	0	
0.8413	57.8931	1.03965	0	
0.8420	13.0286	1.35955	0	
0.8427	-30.6277	1.95935	0	
0.8433	-51.9567	1.95935	0	
0.8440	-64.5125	-0.799733	0	
0.8447	-75.4922	-2.91903	0	
0.8453	-67.5595	-2.63912	0	
0.8460	-43.7613	-2.91903	0	
0.8467	-30.6277	-4.43852	0	
0.8473	-29.1042	-2.63912	0	
0.8480	-27.2654	-1.71943	0	
0.8487	-26.3198	-5.0783	0	
0.8493	-30.6277	-4.75841	0	
0.8500	-39.1383	-1.39953	0	
0.8507	-45.5475	-3.23892	0	
0.8513	-41.9226	-5.35821	0	
0.8520	-29.1042	-1.39953	0	
0.8527	-12.6083	1.03965	0	
0.8533	4.46544	0.11996	0	
0.8540	19.753	-0.47984	0	
0.8547	34.988	-0.799733	0	
0.8553	50.5383	-1.07964	0	
0.8560	51.4839	1.03965	0	
0.8567	29.2092	1.63945	0	
0.8573	5.72627	-0.199933	0	
0.8580	-1.62857	0.11996	0	
0.8587	-9.24608	2.23925	0	
0.8593	-28.1585	3.47884	0	
0.8600	-40.0839	2.87904	0	
0.8607	-31.5207	0.71976	0	
0.8613	-9.8765	-1.07964	0	
0.8620	6.61936	-1.39953	0	
0.8627	9.03595	-1.07964	0	
0.8633	2.04885	-0.799733	0	
0.8640	-0.682949	1.03965	0	
0.8647	1.73364	1.95935	0	
0.8653	2.94194	0.11996	0	
0.8660	3.88756	-0.799733	0	
0.8667	6.61936	-1.39953	0	
0.8673	10.5594	-2.31923	0	
0.8680	12.3982	-2.31923	0	
0.8687	11.1899	-2.31923	0	
0.8693	7.51244	-3.23892	0	
0.8700	2.94194	-3.23892	0	
0.8707	-1.94378	-2.31923	0	
0.8713	-4.36037	-3.23892	0	
0.8720	1.10323	-5.0783	0	
0.8727	9.35115	-5.35821	0	
0.8733	8.45807	-4.15861	0	
0.8740	-2.83687	-2.63912	0	
0.8747	-14.447	-1.71943	0	
0.8753	-18.7023	-2.63912	0	
0.8760	-18.1244	-4.43852	0	
0.8767	-18.1244	-3.55881	0	
0.8773	-18.7023	-0.199933	0	
0.8780	-14.447	1.03965	0	
0.8787	-4.04516	-1.39953	0	
0.8793	5.98894	-2.63912	0	
0.8800	12.3982	-1.39953	0	
0.8807	20.9613	1.35955	0	
0.8813	38.6654	1.95935	0	
0.8820	58.7862	1.03965	0	
0.8827	65.1954	1.03965	0	
0.8833	56.0544	2.87904	0	
0.8840	42.3429	1.03965	0	
0.8847	22.8	-2.31923	0	
0.8853	-10.4544	-3.55881	0	
0.8860	-41.9226	-2.63912	0	
0.8867	-55.0037	0.11996	0	
0.8873	-56.5797	1.63945	0	
0.8880	-55.3189	-0.47984	0	
0.8887	-51.9567	-1.71943	0	
0.8893	-43.7613	0.11996	0	
0.8900	-33.6747	1.95935	0	
0.8907	-25.7419	0.71976	0	
0.8913	-22.0645	-0.47984	0	
0.8920	-18.1244	-0.199933	0	
0.8927	-13.2387	0.439853	0	
0.8933	-8.61567	1.03965	0	
0.8940	-3.46728	1.95935	0	
0.8947	-0.420277	2.87904	0	
0.8953	0.525346	2.87904	0	
0.8960	5.72627	1.95935	0	
0.8967	13.659	1.63945	0	
0.8973	17.2839	1.95935	0	
0.8980	15.7604	1.63945	0	
0.8987	13.0286	0.439853	0	
0.8993	13.659	-0.799733	0	
0.9000	13.9217	-2.31923	0	
0.9007	6.30415	-4.43852	0	
0.9013	-4.04516	-6.2779	0	
0.9020	-6.19908	-5.0783	0	
0.9027	-3.46728	-1.71943	0	
0.9033	-1.62857	-1.71943	0	
0.9040	3.25714	-4.43852	0	
0.9047	13.0286	-5.0783	0	
0.9053	28.5788	-2.63912	0	
0.9060	43.5512	-2.91903	0	
0.9067	44.129	-4.75841	0	
0.9073	29.5244	-2.63912	0	
0.9080	8.77327	0.71976	0	
0.9087	-14.7622	0.11996	0	
0.9093	-33.3595	-1.07964	0	
0.9100	-28.4737	0.11996	0	
0.9107	2.36406	1.35955	0	
0.9113	32.5714	0.11996	0	
0.9120	34.988	-0.799733	0	
0.9127	17.5991	-1.71943	0	
0.9133	4.78065	-3.55881	0	
0.9140	-4.36037	-2.91903	0	
0.9147	-21.7493	1.03965	0	
0.9153	-33.9899	1.95935	0	
0.9160	-32.4664	-2.63912	0	
0.9167	-27.5807	-4.75841	0	
0.9173	-22.3797	-2.63912	0	
0.9180	-12.2931	-1.71943	0	
0.9187	-2.83687	-1.99933	0	
0.9193	6.61936	-1.07964	0	
0.9200	18.8074	-0.47984	0	
0.9207	22.1696	-1.39953	0	
0.9213	11.1899	-1.71943	0	
0.9220	-1.62857	-1.71943	0	
0.9227	-10.7696	-1.71943	0	
0.9233	-22.3797	-1.99933	0	
0.9240	-33.3595	-2.31923	0	
0.9247	-35.5134	-1.71943	0	
0.9253	-30.3124	0.11996	0	
0.9260	-18.1244	0.11996	0	
0.9267	3.88756	-1.39953	0	
0.9273	25.5318	0.11996	0	
0.9280	34.988	3.47884	0	
0.9287	31.3631	0.71976	0	
0.9293	18.5447	-5.35821	0	
0.9300	1.73364	-4.75841	0	
0.9307	-8.353	-0.199933	0	
0.9313	-9.24608	-0.799733	0	
0.9320	-4.36037	-2.63912	0	
0.9327	1.10323	0.439853	0	
0.9333	2.36406	1.03965	0	
0.9340	2.94194	-1.39953	0	
0.9347	11.1899	0.439853	0	
0.9353	26.7401	2.23925	0	
0.9360	43.236	0.71976	0	
0.9367	45.7051	1.63945	0	
0.9373	26.7401	2.87904	0	
0.9380	3.57235	1.95935	0	
0.9387	-10.7696	3.79873	0	
0.9393	-23.588	4.99833	0	
0.9400	-27.8433	1.95935	0	
0.9407	-14.1318	0.71976	0	
0.9413	-2.20645	2.87904	0	
0.9420	-1.94378	1.95935	0	
0.9427	-5.56866	1.63945	0	
0.9433	-17.8092	4.71842	0	
0.9440	-32.729	4.39853	0	
0.9447	-29.1042	1.35955	0	
0.9453	-13.5014	1.03965	0	
0.9460	-2.52166	2.87904	0	
0.9467	5.09585	4.71842	0	
0.9473	8.45807	6.23792	0	
0.9480	5.98894	7.15761	0	
0.9487	5.98894	5.31822	0	
0.9493	3.88756	1.95935	0	
0.9500	-4.36037	1.95935	0	
0.9507	-10.4544	4.71842	0	
0.9513	-12.9235	4.99833	0	
0.9520	-20.541	3.79873	0	
0.9527	-26.3198	3.79873	0	
0.9533	-25.4267	3.15895	0	
0.9540	-19.9106	2.87904	0	
0.9547	-4.36037	4.07864	0	
0.9553	20.3309	4.71842	0	
0.9560	35.3032	2.87904	0	
0.9567	34.988	1.03965	0	
0.9573	28.2636	1.03965	0	
0.9580	12.7134	2.55915	0	
0.9587	-10.7696	3.15895	0	
0.9593	-21.7493	1.95935	0	
0.9600	-6.19908	3.15895	0	
0.9607	27.3705	6.23792	0	
0.9613	52.1143	5.59813	0	
0.9620	46.283	2.87904	0	
0.9627	22.8	3.47884	0	
0.9633	3.88756	6.51782	0	
0.9640	-18.7023	8.0773	0	
0.9647	-52.5871	6.83772	0	
0.9653	-73.3383	5.59813	0	
0.9660	-66.929	6.23792	0	
0.9667	-55.6341	6.83772	0	
0.9673	-50.1705	4.71842	0	
0.9680	-38.8756	2.23925	0	
0.9687	-21.7493	3.15895	0	
0.9693	-10.4544	3.47884	0	
0.9700	-0.998157	1.03965	0	
0.9707	13.9217	1.95935	0	
0.9713	28.2636	3.79873	0	
0.9720	36.8267	3.79873	0	
0.9727	38.6654	4.07864	0	
0.9733	26.4774	5.59813	0	
0.9740	5.98894	4.71842	0	
0.9747	-5.30599	3.47884	0	
0.9753	-1.62857	3.79873	0	
0.9760	8.77327	3.47884	0	
0.9767	16.706	3.47884	0	
0.9773	18.5447	3.79873	0	
0.9780	15.4452	2.87904	0	
0.9787	7.82765	3.47884	0	
0.9793	-7.72258	3.15895	0	
0.9800	-22.3797	2.23925	0	
0.9807	-24.5336	3.79873	0	
0.9813	-16.6009	5.59813	0	
0.9820	0.840553	4.71842	0	
0.9827	26.1622	4.39853	0	
0.9833	41.082	4.07864	0	
0.9840	29.7871	3.15895	0	
0.9847	5.72627	3.15895	0	
0.9853	-12.9235	2.23925	0	
0.9860	-26.3198	1.03965	0	
0.9867	-33.9899	2.87904	0	
0.9873	-29.4194	4.39853	0	
0.9880	-15.9705	1.35955	0	
0.9887	-8.03779	-0.799733	0	
0.9893	-7.40737	-0.799733	0	
0.9900	-10.1917	-1.71943	0	
0.9907	-22.6949	-3.55881	0	
0.9913	-41.6074	-3.55881	0	
0.9920	-45.5475	-3.83872	0	
0.9927	-26.635	-4.43852	0	
0.9933	-0.420277	-3.23892	0	
0.9940	25.847	-1.07964	0	
0.9947	61.2553	-1.39953	0	
0.9953	107.643	-3.23892	0	
0.9960	147.622	-2.63912	0	
0.9967	157.078	-0.199933	0	
0.9973	121.04	0.439853	0	
0.9980	44.4442	-0.799733	0	
0.9987	-39.1383	-2.63912	0	
0.9993	-89.2037	-4.43852	0	
1.0000	-94.4046	-4.15861	0	
1.0007	-76.7005	-5.35821	0	
1.0013	-53.7954	-9.95668	0	
1.0020	-32.729	-9.63678	0	
1.0027	-18.3871	-4.43852	0	
1.0033	-10.7696	-4.43852	0	
1.0040	-4.67558	-5.6781	0	
1.0047	-4.36037	-1.71943	0	
1.0053	-8.93088	-0.799733	0	
1.0060	-8.93088	-4.75841	0	
1.0067	-4.67558	-5.6781	0	
1.0073	-4.99078	-6.2779	0	
1.0080	-7.72258	-9.03698	0	
1.0087	-8.61567	-5.6781	0	
1.0093	-7.40737	-1.07964	0	
1.0100	-5.30599	-3.55881	0	
1.0107	-5.88387	-5.35821	0	
1.0113	-6.19908	-1.71943	0	
1.0120	-3.15207	-1.99933	0	
1.0127	-4.36037	-5.35821	0	
1.0133	-4.36037	-5.0783	0	
1.0140	8.45807	-4.43852	0	
1.0147	24.3235	-5.998	0	
1.0153	27.6857	-5.0783	0	
1.0160	19.4378	-3.83872	0	
1.0167	9.98157	-5.0783	0	
1.0173	13.0286	-5.0783	0	
1.0180	29.5244	-3.55881	0	
1.0187	35.3032	-3.23892	0	
1.0193	24.0083	-1.07964	0	
1.0200	14.5521	2.55915	0	
1.0207	12.1355	1.63945	0	
1.0213	11.1899	-1.99933	0	
1.0220	13.9217	-1.39953	0	
1.0227	17.5991	0.71976	0	
1.0233	19.4378	0.11996	0	
1.0240	22.1696	0.11996	0	
1.0247	23.1152	1.35955	0	
1.0253	17.9143	-0.799733	0	
1.0260	9.66636	-4.75841	0	
1.0267	5.72627	-4.43852	0	
1.0273	4.46544	-1.07964	0	
1.0280	2.36406	-0.799733	0	
1.0287	2.04885	-2.31923	0	
1.0293	3.57235	-2.31923	0	
1.0300	1.73364	-4.15861	0	
1.0307	0.210138	-6.8777	0	
1.0313	6.61936	-3.55881	0	
1.0320	18.5447	1.03965	0	
1.0327	33.1493	-1.71943	0	
1.0333	41.3972	-5.998	0	
1.0340	38.9807	-4.75841	0	
1.0347	42.6055	-1.99933	0	
1.0353	60.6249	-1.99933	0	
1.0360	70.7115	-3.55881	0	
1.0367	59.7318	-4.43852	0	
1.0373	33.1493	-2.31923	0	
1.0380	-8.93088	0.71976	0	
1.0387	-55.3189	-0.199933	0	
1.0393	-84.0028	-1.71943	0	
1.0400	-88.5733	-1.39953	0	
1.0407	-71.8148	-2.91903	0	
1.0413	-43.1309	-4.43852	0	
1.0420	-24.7963	-1.99933	0	
1.0427	-20.8562	-1.71943	0	
1.0433	-15.6553	-5.6781	0	
1.0440	-11.7152	-6.2779	0	
1.0447	-19.0175	-3.83872	0	
1.0453	-26.9502	-4.43852	0	
1.0460	-28.1585	-5.6781	0	
1.0467	-33.3595	-3.83872	0	
1.0473	-39.1383	-2.91903	0	
1.0480	-33.3595	-4.75841	0	
1.0487	-22.0645	-6.2779	0	
1.0493	-18.1244	-6.2779	0	
1.0500	-8.93088	-5.35821	0	
1.0507	9.03595	-6.2779	0	
1.0513	19.1226	-8.43718	0	
1.0520	21.8544	-6.5978	0	
1.0527	31.0479	-3.55881	0	
1.0533	42.3429	-3.55881	0	
1.0540	49.6452	-4.75841	0	
1.0547	47.8065	-4.43852	0	
1.0553	24.9539	-5.998	0	
1.0560	-10.7696	-6.8777	0	
1.0567	-44.9696	-4.43852	0	
1.0573	-83.1097	-4.15861	0	
1.0580	-110.585	-5.6781	0	
1.0587	-98.6599	-5.0783	0	
1.0593	-64.1972	-2.91903	0	
1.0600	-37.93	-3.55881	0	
1.0607	-20.2258	-4.15861	0	
1.0613	-8.93088	-3.83872	0	
1.0620	-8.03779	-4.15861	0	
1.0627	-8.93088	-5.0783	0	
1.0633	-7.40737	-5.998	0	
1.0640	-10.7696	-5.35821	0	
1.0647	-15.3401	-2.63912	0	
1.0653	-16.8636	-0.799733	0	
1.0660	-16.6009	-2.31923	0	
1.0667	-12.6083	-4.15861	0	
1.0673	-7.09217	-2.31923	0	
1.0680	-4.36037	-0.199933	0	
1.0687	-0.998157	-1.07964	0	
1.0693	3.88756	-2.31923	0	
1.0700	5.98894	-2.63912	0	
1.0707	7.24977	-2.63912	0	
1.0713	11.1899	-0.47984	0	
1.0720	15.4452	2.87904	0	
1.0727	16.3908	2.87904	0	
1.0733	14.8673	-0.799733	0	
1.0740	16.3908	-1.39953	0	
1.0747	22.4848	2.23925	0	
1.0753	28.894	2.55915	0	
1.0760	31.3631	-1.07964	0	
1.0767	31.941	-0.199933	0	
1.0773	32.8866	2.87904	0	
1.0780	30.7327	1.95935	0	
1.0787	26.7401	0.71976	0	
1.0793	27.3705	1.95935	0	
1.0800	25.847	1.03965	0	
1.0807	14.5521	-1.71943	0	
1.0813	2.94194	-0.799733	0	
1.0820	0.840553	2.23925	0	
1.0827	3.88756	3.15895	0	
1.0833	7.51244	1.95935	0	
1.0840	10.2968	1.95935	0	
1.0847	12.7134	3.15895	0	
1.0853	14.2369	2.87904	0	
1.0860	5.41106	1.03965	0	
1.0867	-8.93088	2.55915	0	
1.0873	-9.56129	4.39853	0	
1.0880	-0.420277	1.95935	0	
1.0887	0.840553	0.71976	0	
1.0893	-0.998157	4.39853	0	
1.0900	-0.682949	7.15761	0	
1.0907	-8.03779	4.07864	0	
1.0913	-17.1788	1.63945	0	
1.0920	-15.9705	2.87904	0	
1.0927	-14.447	3.79873	0	
1.0933	-19.0175	1.95935	0	
1.0940	-17.1788	2.87904	0	
1.0947	-4.36037	5.91802	0	
1.0953	7.51244	5.59813	0	
1.0960	15.1825	4.39853	0	
1.0967	18.5447	6.51782	0	
1.0973	11.8203	5.59813	0	
1.0980	1.73364	2.55915	0	
1.0987	3.88756	3.79873	0	
1.0993	18.5447	3.79873	0	
1.1000	34.0949	0.439853	0	
1.1007	41.082	1.03965	0	
1.1013	33.1493	1.95935	0	
1.1020	20.3309	-0.799733	0	
1.1027	14.8673	-1.07964	0	
1.1033	3.57235	0.11996	0	
1.1040	-21.7493	-1.39953	0	
1.1047	-42.8157	-0.47984	0	
1.1053	-51.9567	1.63945	0	
1.1060	-56.5797	0.11996	0	
1.1067	-54.741	-1.07964	0	
1.1073	-44.024	-1.71943	0	
1.1080	-29.1042	-4.75841	0	
1.1087	-11.9779	-4.75841	0	
1.1093	-0.682949	-2.63912	0	
1.1100	1.73364	-2.31923	0	
1.1107	3.57235	-1.39953	0	
1.1113	2.04885	-0.199933	0	
1.1120	-9.8765	-2.63912	0	
1.1127	-25.4267	-2.31923	0	
1.1133	-35.5134	1.95935	0	
1.1140	-38.2452	1.35955	0	
1.1147	-29.9972	-0.799733	0	
1.1153	-14.447	0.71976	0	
1.1160	-4.04516	2.23925	0	
1.1167	-1.62857	0.439853	0	
1.1173	-2.52166	-0.799733	0	
1.1180	-1.94378	-1.71943	0	
1.1187	4.15023	-1.71943	0	
1.1193	11.5051	0.11996	0	
1.1200	16.0756	1.03965	0	
1.1207	26.7401	-0.47984	0	
1.1213	46.9134	-0.199933	0	
1.1220	60.6249	1.03965	0	
1.1227	57.8931	0.71976	0	
1.1233	39.8737	-0.799733	0	
1.1240	14.2369	-0.47984	0	
1.1247	-10.1917	1.63945	0	
1.1253	-29.9972	2.87904	0	
1.1260	-46.4931	2.55915	0	
1.1267	-50.7484	2.87904	0	
1.1273	-36.4065	3.79873	0	
1.1280	-19.9106	1.95935	0	
1.1287	-15.0249	-0.47984	0	
1.1293	-10.7696	-0.799733	0	
1.1300	-2.52166	0.71976	0	
1.1307	1.10323	1.63945	0	
1.1313	4.15023	2.87904	0	
1.1320	11.1899	3.15895	0	
1.1327	14.2369	2.23925	0	
1.1333	12.7134	1.95935	0	
1.1340	14.2369	1.95935	0	
1.1347	18.5447	1.95935	0	
1.1353	18.5447	3.79873	0	
1.1360	15.7604	5.59813	0	
1.1367	11.1899	5.59813	0	
1.1373	5.72627	4.39853	0	
1.1380	2.94194	2.55915	0	
1.1387	2.36406	0.11996	0	
1.1393	2.94194	0.439853	0	
1.1400	2.36406	3.15895	0	
1.1407	-1.31336	4.39853	0	
1.1413	-4.36037	4.07864	0	
1.1420	8.77327	4.71842	0	
1.1427	37.4572	6.23792	0	
1.1433	49.6452	5.59813	0	
1.1440	26.7401	3.15895	0	
1.1447	-5.88387	3.79873	0	
1.1453	-20.2258	3.79873	0	
1.1460	-22.0645	1.03965	0	
1.1467	-23.2728	0.439853	0	
1.1473	-24.5336	2.23925	0	
1.1480	-24.5336	1.03965	0	
1.1487	-16.2857	-0.799733	0	
1.1493	1.10323	0.439853	0	
1.1500	11.1899	-1.07964	0	
1.1507	13.0286	-3.55881	0	
1.1513	24.6387	-1.07964	0	
1.1520	45.7051	-0.199933	0	
1.1527	57.2627	-2.63912	0	
1.1533	55.7392	-3.23892	0	
1.1540	51.4839	-3.83872	0	
1.1547	48.7521	-5.998	0	
1.1553	33.1493	-5.0783	0	
1.1560	-4.36037	-1.71943	0	
1.1567	-39.7687	-1.99933	0	
1.1573	-49.2249	-5.0783	0	
1.1580	-49.8553	-5.0783	0	
1.1587	-57.4728	-2.63912	0	
1.1593	-55.0037	-1.07964	0	
1.1600	-36.7217	-0.799733	0	
1.1607	-20.8562	-0.799733	0	
1.1613	-12.9235	-2.63912	0	
1.1620	-5.56866	-5.6781	0	
1.1627	2.94194	-5.998	0	
1.1633	7.51244	-5.35821	0	
1.1640	4.46544	-5.998	0	
1.1647	-4.99078	-6.2779	0	
1.1653	-15.3401	-7.1976	0	
1.1660	-19.6479	-8.11729	0	
1.1667	-18.1244	-6.8777	0	
1.1673	-20.8562	-7.51749	0	
1.1680	-29.4194	-12.076	0	
1.1687	-30.9429	-11.1563	0	
1.1693	-24.7963	-4.43852	0	
1.1700	-19.0175	-2.63912	0	
1.1707	-11.7152	-4.43852	0	
1.1713	-7.40737	-3.55881	0	
1.1720	-10.7696	-3.55881	0	
1.1727	-6.51429	-4.43852	0	
1.1733	5.72627	-1.71943	0	
1.1740	9.03595	-0.799733	0	
1.1747	6.93456	-3.55881	0	
1.1753	9.98157	-4.43852	0	
1.1760	11.1899	-2.91903	0	
1.1767	13.659	-4.43852	0	
1.1773	24.6387	-7.1976	0	
1.1780	28.2636	-6.2779	0	
1.1787	19.4378	-3.55881	0	
1.1793	16.9687	-2.31923	0	
1.1800	32.5714	-2.31923	0	
1.1807	65.1954	-1.71943	0	
1.1813	97.8719	-1.07964	0	
1.1820	103.651	-1.71943	0	
1.1827	81.6913	-1.71943	0	
1.1833	51.4839	0.11996	0	
1.1840	10.8747	0.11996	0	
1.1847	-36.0913	-3.55881	0	
1.1853	-63.2516	-4.15861	0	
1.1860	-70.2913	-1.07964	0	
1.1867	-75.177	-0.799733	0	
1.1873	-69.9761	-1.39953	0	
1.1880	-48.0166	-0.799733	0	
1.1887	-29.1042	-1.71943	0	
1.1893	-21.4341	-1.39953	0	
1.1900	-16.8636	0.439853	0	
1.1907	-16.6009	-0.47984	0	
1.1913	-18.7023	-1.39953	0	
1.1920	-15.3401	0.11996	0	
1.1927	-10.7696	-0.47984	0	
1.1933	-8.93088	-3.23892	0	
1.1940	-5.56866	-2.31923	0	
1.1947	0.210138	0.439853	0	
1.1953	6.30415	0.11996	0	
1.1960	10.2968	-0.199933	0	
1.1967	10.2968	2.23925	0	
1.1973	7.82765	1.95935	0	
1.1980	8.77327	-0.47984	0	
1.1987	13.0286	0.439853	0	
1.1993	14.2369	1.95935	0	
1.2000	11.5051	1.35955	0	
1.2007	9.98157	2.87904	0	
1.2013	9.35115	5.59813	0	
1.2020	5.09585	4.71842	0	
1.2027	0.525346	3.79873	0	
1.2033	-0.682949	4.71842	0	
1.2040	-2.20645	3.79873	0	
1.2047	-2.20645	3.15895	0	
1.2053	3.57235	4.71842	0	
1.2060	7.24977	4.07864	0	
1.2067	6.30415	4.71842	0	
1.2073	11.8203	8.0773	0	
1.2080	23.3779	6.83772	0	
1.2087	29.7871	4.07864	0	
1.2093	24.6387	3.15895	0	
1.2100	9.98157	0.439853	0	
1.2107	-4.36037	-1.07964	0	
1.2113	-8.93088	1.35955	0	
1.2120	-4.36037	1.03965	0	
1.2127	8.77327	-0.199933	0	
1.2133	33.1493	3.79873	0	
1.2140	55.7392	6.51782	0	
1.2147	58.5235	3.79873	0	
1.2153	42.9207	3.47884	0	
1.2160	19.753	4.71842	0	
1.2167	-9.56129	2.23925	0	
1.2173	-38.2452	0.439853	0	
1.2180	-52.9023	1.03965	0	
1.2187	-49.8553	0.439853	0	
1.2193	-37.3521	-0.799733	0	
1.2200	-24.7963	0.11996	0	
1.2207	-16.2857	1.63945	0	
1.2213	-14.447	0.11996	0	
1.2220	-19.9106	-1.71943	0	
1.2227	-25.4267	-1.39953	0	
1.2233	-19.0175	-0.47984	0	
1.2240	-0.682949	-2.91903	0	
1.2247	15.7604	-5.35821	0	
1.2253	24.9539	-3.55881	0	
1.2260	30.7327	-1.07964	0	
1.2267	35.3032	-1.07964	0	
1.2273	30.1023	-1.71943	0	
1.2280	2.94194	-1.07964	0	
1.2287	-33.3595	-3.23892	0	
1.2293	-44.9696	-6.5978	0	
1.2300	-32.1512	-4.75841	0	
1.2307	-25.1115	-1.39953	0	
1.2313	-26.9502	-2.63912	0	
1.2320	-23.0101	-2.63912	0	
1.2327	-16.6009	1.63945	0	
1.2333	-10.1917	2.23925	0	
1.2340	-2.52166	0.439853	0	
1.2347	-2.83687	1.95935	0	
1.2353	-9.8765	1.95935	0	
1.2360	-12.2931	-0.199933	0	
1.2367	-10.1917	1.63945	0	
1.2373	-6.19908	2.55915	0	
1.2380	-3.15207	-1.71943	0	
1.2387	-8.93088	-2.91903	0	
1.2393	-17.1788	0.11996	0	
1.2400	-17.8092	-1.07964	0	
1.2407	-15.0249	-3.55881	0	
1.2413	-4.36037	-1.07964	0	
1.2420	16.706	1.03965	0	
1.2427	27.6857	-0.799733	0	
1.2433	20.9613	-1.71943	0	
1.2440	13.9217	-2.63912	0	
1.2447	12.1355	-5.35821	0	
1.2453	7.82765	-3.83872	0	
1.2460	2.04885	-1.39953	0	
1.2467	-3.15207	-2.63912	0	
1.2473	-8.353	-2.63912	0	
1.2480	-12.6083	-1.39953	0	
1.2487	-19.3327	-4.15861	0	
1.2493	-27.2654	-6.2779	0	
1.2500	-24.5336	-4.15861	0	
1.2507	-8.61567	-5.35821	0	
1.2513	7.82765	-9.03698	0	
1.2520	17.2839	-6.2779	0	
1.2527	20.3309	-3.55881	0	
1.2533	19.4378	-5.35821	0	
1.2540	20.3309	-3.83872	0	
1.2547	26.7401	-0.799733	0	
1.2553	32.8866	-2.91903	0	
1.2560	33.7797	-4.43852	0	
1.2567	28.894	-1.39953	0	
1.2573	20.3309	-2.31923	0	
1.2580	10.5594	-5.0783	0	
1.2587	-5.30599	-1.07964	0	
1.2593	-25.4267	2.87904	0	
1.2600	-32.1512	0.11996	0	
1.2607	-19.3327	0.11996	0	
1.2613	-4.04516	2.23925	0	
1.2620	6.30415	0.11996	0	
1.2627	12.3982	-0.799733	0	
1.2633	12.1355	1.95935	0	
1.2640	9.98157	0.439853	0	
1.2647	10.5594	-1.71943	0	
1.2653	7.51244	0.71976	0	
1.2660	2.04885	2.55915	0	
1.2667	0.840553	0.71976	0	
1.2673	-3.15207	0.11996	0	
1.2680	-11.7152	1.03965	0	
1.2687	-15.9705	0.11996	0	
1.2693	-9.8765	-1.07964	0	
1.2700	5.98894	-0.47984	0	
1.2707	27.6857	0.11996	0	
1.2713	35.6184	-0.47984	0	
1.2720	20.9613	-0.199933	0	
1.2727	2.94194	1.95935	0	
1.2733	-3.46728	2.55915	0	
1.2740	-5.56866	0.71976	0	
1.2747	-11.0848	1.03965	0	
1.2753	-14.447	1.35955	0	
1.2760	-15.6553	-0.47984	0	
1.2767	-19.9106	-0.199933	0	
1.2773	-24.2184	1.35955	0	
1.2780	-21.4341	0.439853	0	
1.2787	-7.40737	0.11996	0	
1.2793	14.8673	1.95935	0	
1.2800	34.0949	1.95935	0	
1.2807	39.5585	1.03965	0	
1.2813	43.5512	1.03965	0	
1.2820	56.0544	1.35955	0	
1.2827	45.3899	1.35955	0	
1.2833	-7.09217	1.35955	0	
1.2840	-57.4728	1.95935	0	
1.2847	-68.4525	1.95935	0	
1.2853	-58.3659	-1.71943	0	
1.2860	-46.8083	-4.43852	0	
1.2867	-31.836	-4.15861	0	
1.2873	-22.3797	-4.75841	0	
1.2880	-22.3797	-5.998	0	
1.2887	-17.1788	-3.83872	0	
1.2893	-10.7696	-2.63912	0	
1.2900	-17.1788	-3.23892	0	
1.2907	-29.682	-1.71943	0	
1.2913	-33.0442	-0.199933	0	
1.2920	-23.588	0.11996	0	
1.2927	-5.88387	0.439853	0	
1.2933	11.1899	0.11996	0	
1.2940	25.847	-1.07964	0	
1.2947	41.7125	-1.39953	0	
1.2953	51.7991	-0.47984	0	
1.2960	48.7521	2.23925	0	
1.2967	36.8267	6.23792	0	
1.2973	20.9613	5.59813	0	
1.2980	-1.94378	0.439853	0	
1.2987	-26.635	-3.55881	0	
1.2993	-38.5604	-2.91903	0	
1.3000	-29.9972	-1.07964	0	
1.3007	-8.93088	-1.39953	0	
1.3013	7.82765	-2.91903	0	
1.3020	14.8673	-2.91903	0	
1.3027	16.706	-1.71943	0	
1.3033	16.9687	-1.71943	0	
1.3040	16.0756	-1.07964	0	
1.3047	15.4452	0.71976	0	
1.3053	14.8673	1.03965	0	
1.3060	11.5051	0.11996	0	
1.3067	9.66636	0.439853	0	
1.3073	14.2369	1.95935	0	
1.3080	13.0286	3.15895	0	
1.3087	1.10323	3.79873	0	
1.3093	-3.15207	3.47884	0	
1.3100	4.78065	1.35955	0	
1.3107	5.72627	-0.199933	0	
1.3113	-0.420277	0.11996	0	
1.3120	-3.46728	1.35955	0	
1.3127	-12.6083	0.439853	0	
1.3133	-28.7889	-1.71943	0	
1.3140	-34.5677	-1.39953	0	
1.3147	-28.1585	0.11996	0	
1.3153	-17.1788	-1.39953	0	
1.3160	-3.78249	-2.63912	0	
1.3167	6.61936	0.71976	0	
1.3173	5.72627	2.87904	0	
1.3180	-1.62857	1.95935	0	
1.3187	-5.56866	1.95935	0	
1.3193	-4.36037	2.55915	0	
1.3200	-1.31336	0.439853	0	
1.3207	-0.105069	-0.47984	0	
1.3213	2.04885	0.71976	0	
1.3220	12.3982	0.71976	0	
1.3227	25.2166	1.35955	0	
1.3233	32.2562	2.87904	0	
1.3240	31.3631	3.79873	0	
1.3247	18.2295	4.39853	0	
1.3253	-4.67558	2.87904	0	
1.3260	-19.9106	-0.799733	0	
1.3267	-20.8562	-0.799733	0	
1.3273	-22.6949	1.95935	0	
1.3280	-29.9972	3.79873	0	
1.3287	-25.7419	3.79873	0	
1.3293	-14.1318	1.35955	0	
1.3300	-13.5014	1.03965	0	
1.3307	-16.2857	3.79873	0	
1.3313	-3.15207	3.15895	0	
1.3320	17.5991	0.11996	0	
1.3327	31.6258	-1.07964	0	
1.3333	41.7125	-1.71943	0	
1.3340	51.7991	-2.63912	0	
1.3347	61.8332	-1.39953	0	
1.3353	66.141	1.03965	0	
1.3360	52.377	1.63945	0	
1.3367	25.2166	2.23925	0	
1.3373	1.10323	3.47884	0	
1.3380	-23.0101	2.55915	0	
1.3387	-47.7014	0.439853	0	
1.3393	-51.0636	0.11996	0	
1.3400	-27.8433	0.11996	0	
1.3407	-3.46728	-1.71943	0	
1.3413	2.04885	-1.39953	0	
1.3420	-2.83687	1.03965	0	
1.3427	-1.31336	1.95935	0	
1.3433	-3.15207	2.23925	0	
1.3440	-20.541	2.87904	0	
1.3447	-34.5677	-0.799733	0	
1.3453	-29.682	-3.83872	0	
1.3460	-20.2258	-1.99933	0	
1.3467	-13.5014	-0.799733	0	
1.3473	-4.36037	-1.99933	0	
1.3480	0.210138	0.11996	0	
1.3487	3.57235	2.23925	0	
1.3493	16.0756	1.95935	0	
1.3500	30.4175	2.87904	0	
1.3507	30.4175	2.87904	0	
1.3513	20.0682	0.439853	0	
1.3520	13.659	1.35955	0	
1.3527	11.1899	2.55915	0	
1.3533	2.04885	0.71976	0	
1.3540	-8.61567	1.63945	0	
1.3547	-4.36037	3.79873	0	
1.3553	5.72627	0.11996	0	
1.3560	1.41843	-2.63912	0	
1.3567	-13.5014	1.63945	0	
1.3573	-25.4267	5.31822	0	
1.3580	-29.4194	4.39853	0	
1.3587	-29.1042	2.55915	0	
1.3593	-31.836	0.439853	0	
1.3600	-36.0913	-0.47984	0	
1.3607	-31.5207	0.11996	0	
1.3613	-20.541	-0.47984	0	
1.3620	-16.2857	-2.63912	0	
1.3627	-17.1788	-1.71943	0	
1.3633	-12.9235	1.63945	0	
1.3640	2.04885	1.95935	0	
1.3647	18.5447	0.71976	0	
1.3653	20.9613	-0.199933	0	
1.3660	9.35115	-1.71943	0	
1.3667	-3.46728	-3.55881	0	
1.3673	-8.93088	-3.55881	0	
1.3680	-6.51429	-2.31923	0	
1.3687	-4.36037	-2.31923	0	
1.3693	-1.94378	-4.43852	0	
1.3700	13.9217	-5.6781	0	
1.3707	35.6184	-4.43852	0	
1.3713	43.5512	-2.91903	0	
1.3720	47.4913	-2.63912	0	
1.3727	50.5383	-4.75841	0	
1.3733	33.7797	-6.5978	0	
1.3740	7.51244	-5.6781	0	
1.3747	-0.682949	-3.83872	0	
1.3753	-0.682949	-4.43852	0	
1.3760	-9.8765	-5.6781	0	
1.3767	-18.7023	-6.2779	0	
1.3773	-20.8562	-6.2779	0	
1.3780	-21.1714	-4.75841	0	
1.3787	-16.6009	-2.63912	0	
1.3793	-5.88387	-1.71943	0	
1.3800	3.88756	-2.91903	0	
1.3807	7.24977	-5.6781	0	
1.3813	8.77327	-6.2779	0	
1.3820	10.2968	-3.83872	0	
1.3827	5.41106	-2.63912	0	
1.3833	-7.09217	-3.23892	0	
1.3840	-17.8092	-1.39953	0	
1.3847	-22.0645	1.35955	0	
1.3853	-21.4341	2.87904	0	
1.3860	-16.2857	2.23925	0	
1.3867	-13.5014	0.11996	0	
1.3873	-19.0175	-0.47984	0	
1.3880	-22.6949	1.35955	0	
1.3887	-13.5014	1.95935	0	
1.3893	4.46544	1.63945	0	
1.3900	20.0682	1.95935	0	
1.3907	22.1696	1.03965	0	
1.3913	10.8747	1.03965	0	
1.3920	-1.31336	1.03965	0	
1.3927	-5.30599	-1.71943	0	
1.3933	-2.52166	-2.91903	0	
1.3940	10.8747	1.35955	0	
1.3947	37.1419	2.87904	0	
1.3953	61.5705	-0.199933	0	
1.3960	67.6645	-0.199933	0	
1.3967	62.4636	1.35955	0	
1.3973	54.8461	0.439853	0	
1.3980	36.8267	-0.47984	0	
1.3987	13.659	0.11996	0	
1.3993	12.1355	0.11996	0	
1.4000	35.3032	-1.71943	0	
1.4007	48.4369	-1.71943	0	
1.4013	30.4175	-0.199933	0	
1.4020	-1.62857	1.95935	0	
1.4027	-29.682	3.79873	0	
1.4033	-54.4258	3.79873	0	
1.4040	-73.0231	1.35955	0	
1.4047	-72.4452	1.35955	0	
1.4053	-56.2645	4.71842	0	
1.4060	-42.5005	5.91802	0	
1.4067	-37.6148	3.47884	0	
1.4073	-38.2452	1.95935	0	
1.4080	-42.8157	1.95935	0	
1.4087	-44.024	1.03965	0	
1.4093	-35.776	-1.71943	0	
1.4100	-27.5807	-2.31923	0	
1.4107	-26.3198	-1.39953	0	
1.4113	-25.7419	-1.99933	0	
1.4120	-22.6949	-2.91903	0	
1.4127	-16.6009	-2.91903	0	
1.4133	-5.30599	-4.15861	0	
1.4140	7.24977	-5.35821	0	
1.4147	17.9143	-2.91903	0	
1.4153	34.6728	0.439853	0	
1.4160	53.9005	0.71976	0	
1.4167	58.2083	-2.63912	0	
1.4173	46.283	-3.83872	0	
1.4180	31.3631	-0.199933	0	
1.4187	19.4378	1.95935	0	
1.4193	17.5991	0.11996	0	
1.4200	25.847	1.63945	0	
1.4207	20.3309	4.71842	0	
1.4213	-4.99078	3.47884	0	
1.4220	-21.1714	2.55915	0	
1.4227	-20.2258	3.79873	0	
1.4233	-22.6949	3.79873	0	
1.4240	-25.7419	4.07864	0	
1.4247	-22.3797	3.47884	0	
1.4253	-20.8562	0.11996	0	
1.4260	-19.9106	0.439853	0	
1.4267	-15.0249	4.39853	0	
1.4273	-11.0848	4.07864	0	
1.4280	-10.1917	1.03965	0	
1.4287	-10.7696	-0.799733	0	
1.4293	-13.5014	-2.91903	0	
1.4300	-13.2387	-3.55881	0	
1.4307	-10.1917	-2.63912	0	
1.4313	-9.24608	-3.55881	0	
1.4320	-4.99078	-2.63912	0	
1.4327	1.10323	-0.799733	0	
1.4333	2.04885	-0.799733	0	
1.4340	2.62673	-0.199933	0	
1.4347	6.61936	0.71976	0	
1.4353	8.45807	-0.199933	0	
1.4360	9.98157	0.11996	0	
1.4367	14.2369	1.03965	0	
1.4373	16.0756	0.439853	0	
1.4380	15.4452	-0.199933	0	
1.4387	14.8673	-0.199933	0	
1.4393	12.1355	-1.39953	0	
1.4400	5.41106	-1.99933	0	
1.4407	-5.88387	-1.99933	0	
1.4413	-18.1244	-1.71943	0	
1.4420	-22.3797	-0.799733	0	
1.4427	-16.8636	-0.47984	0	
1.4433	-10.1917	-3.23892	0	
1.4440	-3.46728	-5.35821	0	
1.4447	5.09585	-4.15861	0	
1.4453	11.5051	-2.63912	0	
1.4460	13.9217	-2.63912	0	
1.4467	12.3982	-3.83872	0	
1.4473	9.03595	-3.55881	0	
1.4480	10.2968	-2.91903	0	
1.4487	14.5521	-4.15861	0	
1.4493	10.2968	-6.5978	0	
1.4500	0.210138	-7.1976	0	
1.4507	-5.30599	-5.6781	0	
1.4513	-11.9779	-5.35821	0	
1.4520	-21.7493	-5.998	0	
1.4527	-21.7493	-5.6781	0	
1.4533	-12.6083	-5.0783	0	
1.4540	-2.52166	-4.75841	0	
1.4547	10.2968	-2.63912	0	
1.4553	21.2765	1.03965	0	
1.4560	20.9613	1.95935	0	
1.4567	16.3908	2.23925	0	
1.4573	16.3908	4.07864	0	
1.4580	15.7604	3.15895	0	
1.4587	8.77327	0.11996	0	
1.4593	-5.88387	0.71976	0	
1.4600	-22.6949	2.55915	0	
1.4607	-34.2525	2.23925	0	
1.4613	-37.0369	1.03965	0	
1.4620	-33.9899	1.03965	0	
1.4627	-26.0571	2.23925	0	
1.4633	-14.447	3.79873	0	
1.4640	-2.52166	3.15895	0	
1.4647	9.66636	1.35955	0	
1.4653	22.1696	0.71976	0	
1.4660	30.7327	-0.199933	0	
1.4667	26.7401	-0.799733	0	
1.4673	6.61936	1.63945	0	
1.4680	-16.6009	2.87904	0	
1.4687	-27.5807	-0.799733	0	
1.4693	-26.3198	-2.63912	0	
1.4700	-23.588	0.11996	0	
1.4707	-18.7023	0.439853	0	
1.4713	-1.94378	-0.47984	0	
1.4720	22.4848	1.03965	0	
1.4727	39.5585	1.95935	0	
1.4733	40.8194	1.03965	0	
1.4740	27.6857	1.03965	0	
1.4747	6.30415	1.35955	0	
1.4753	-16.2857	2.23925	0	
1.4760	-39.4535	3.15895	0	
1.4767	-54.4258	0.439853	0	
1.4773	-42.8157	-3.55881	0	
1.4780	-8.03779	-1.99933	0	
1.4787	32.8866	0.11996	0	
1.4793	64.6175	-2.31923	0	
1.4800	64.3023	-4.15861	0	
1.4807	30.4175	-2.31923	0	
1.4813	6.61936	-4.75841	0	
1.4820	3.25714	-8.71709	0	
1.4827	-10.1917	-5.998	0	
1.4833	-29.682	-3.23892	0	
1.4840	-26.3198	-6.2779	0	
1.4847	-11.7152	-6.2779	0	
1.4853	-5.88387	-3.55881	0	
1.4860	-3.46728	-4.75841	0	
1.4867	0.210138	-6.2779	0	
1.4873	0.210138	-4.43852	0	
1.4880	-2.83687	-4.15861	0	
1.4887	-6.51429	-3.55881	0	
1.4893	-6.19908	-1.07964	0	
1.4900	-0.998157	-1.71943	0	
1.4907	2.04885	-3.55881	0	
1.4913	5.41106	-3.55881	0	
1.4920	10.8747	-3.83872	0	
1.4927	10.2968	-4.43852	0	
1.4933	2.94194	-3.55881	0	
1.4940	-0.998157	-1.71943	0	
1.4947	1.73364	0.439853	0	
1.4953	5.41106	1.03965	0	
1.4960	5.98894	-1.39953	0	
1.4967	2.94194	-3.55881	0	
1.4973	0.210138	-2.63912	0	
1.4980	2.36406	-1.39953	0	
1.4987	7.82765	-1.99933	0	
1.4993	10.2968	-2.63912	0	
1.5000	7.24977	-1.71943	0	
1.5007	3.25714	-0.799733	0	
1.5013	4.15023	-1.71943	0	
1.5020	4.78065	-2.91903	0	
1.5027	3.88756	-2.63912	0	
1.5033	9.98157	-1.39953	0	
1.5040	20.9613	-0.47984	0	
1.5047	24.9539	0.11996	0	
1.5053	20.6461	-0.799733	0	
1.5060	13.659	-1.71943	0	
1.5067	8.45807	-0.799733	0	
1.5073	13.3438	-0.799733	0	
1.5080	20.9613	-2.63912	0	
1.5087	16.706	-2.91903	0	
1.5093	12.7134	-2.91903	0	
1.5100	21.2765	-3.83872	0	
1.5107	24.6387	-2.31923	0	
1.5113	15.4452	-0.199933	0	
1.5120	8.45807	-1.71943	0	
1.5127	-0.105069	-1.99933	0	
1.5133	-21.7493	1.03965	0	
1.5140	-39.7687	0.71976	0	
1.5147	-37.0369	-1.71943	0	
1.5153	-19.0175	-0.199933	0	
1.5160	9.35115	-0.199933	0	
1.5167	44.4442	-1.99933	0	
1.5173	59.7318	-1.71943	0	
1.5180	39.2959	-2.31923	0	
1.5187	8.77327	-3.55881	0	
1.5193	-9.56129	-0.799733	0	
1.5200	-29.4194	2.23925	0	
1.5207	-57.788	1.03965	0	
1.5213	-74.8618	0.439853	0	
1.5220	-66.2986	0.439853	0	
1.5227	-44.3392	-1.07964	0	
1.5233	-30.9429	-1.07964	0	
1.5240	-29.4194	-1.07964	0	
1.5247	-27.2654	-3.83872	0	
1.5253	-20.2258	-5.35821	0	
1.5260	-16.6009	-4.43852	0	
1.5267	-10.7696	-3.83872	0	
1.5273	4.78065	-4.43852	0	
1.5280	21.2765	-3.23892	0	
1.5287	28.2636	0.439853	0	
1.5293	17.2839	2.87904	0	
1.5300	-9.8765	1.95935	0	
1.5307	-29.4194	0.439853	0	
1.5313	-31.5207	1.03965	0	
1.5320	-37.3521	0.71976	0	
1.5327	-48.3318	-0.199933	0	
1.5333	-42.5005	0.11996	0	
1.5340	-25.1115	-0.47984	0	
1.5347	-14.7622	-0.799733	0	
1.5353	-8.93088	1.03965	0	
1.5360	-4.04516	1.95935	0	
1.5367	-4.36037	0.11996	0	
1.5373	-7.09217	0.11996	0	
1.5380	-6.19908	1.95935	0	
1.5387	-1.94378	2.55915	0	
1.5393	1.10323	1.03965	0	
1.5400	-1.31336	1.03965	0	
1.5407	-2.52166	2.87904	0	
1.5413	-1.62857	2.87904	0	
1.5420	-3.78249	2.23925	0	
1.5427	2.94194	3.79873	0	
1.5433	22.4848	2.55915	0	
1.5440	32.8866	-1.07964	0	
1.5447	32.5714	-0.199933	0	
1.5453	39.5585	3.15895	0	
1.5460	44.129	3.15895	0	
1.5467	37.7198	2.55915	0	
1.5473	35.3032	1.95935	0	
1.5480	34.0949	1.03965	0	
1.5487	28.2636	3.47884	0	
1.5493	31.941	5.59813	0	
1.5500	39.5585	4.07864	0	
1.5507	31.3631	4.39853	0	
1.5513	13.659	5.59813	0	
1.5520	-6.19908	4.71842	0	
1.5527	-33.6747	4.71842	0	
1.5533	-48.3318	4.99833	0	
1.5540	-34.5677	2.23925	0	
1.5547	-20.541	2.87904	0	
1.5553	-24.5336	7.43752	0	
1.5560	-19.9106	7.43752	0	
1.5567	2.04885	4.71842	0	
1.5573	17.5991	3.79873	0	
1.5580	19.4378	2.87904	0	
1.5587	19.1226	1.35955	0	
1.5593	18.8074	1.95935	0	
1.5600	19.1226	1.63945	0	
1.5607	16.706	-1.39953	0	
1.5613	3.88756	-1.71943	0	
1.5620	-14.1318	1.03965	0	
1.5627	-24.2184	0.71976	0	
1.5633	-26.9502	-1.07964	0	
1.5640	-28.4737	0.11996	0	
1.5647	-27.2654	1.03965	0	
1.5653	-26.3198	-1.07964	0	
1.5660	-24.2184	-4.43852	0	
1.5667	-7.72258	-4.43852	0	
1.5673	16.3908	-2.31923	0	
1.5680	26.7401	-0.199933	0	
1.5687	27.3705	-0.47984	0	
1.5693	38.6654	-1.39953	0	
1.5700	66.7189	-0.799733	0	
1.5707	100.288	-0.199933	0	
1.5713	113.737	-1.99933	0	
1.5720	93.3014	-2.63912	0	
1.5727	53.6378	-2.31923	0	
1.5733	9.03595	-1.71943	0	
1.5740	-41.2922	-0.799733	0	
1.5747	-83.4249	-0.199933	0	
1.5753	-94.9825	-0.47984	0	
1.5760	-76.7005	-0.799733	0	
1.5767	-47.3862	-2.31923	0	
1.5773	-25.7419	-2.91903	0	
1.5780	-21.7493	-2.63912	0	
1.5787	-29.1042	-3.55881	0	
1.5793	-37.3521	-5.6781	0	
1.5800	-40.6618	-5.0783	0	
1.5807	-37.3521	-2.91903	0	
1.5813	-29.1042	-2.31923	0	
1.5820	-22.0645	-1.71943	0	
1.5827	-16.2857	-1.71943	0	
1.5833	-11.0848	-2.63912	0	
1.5840	-12.9235	-1.71943	0	
1.5847	-18.1244	-0.799733	0	
1.5853	-17.8092	-2.63912	0	
1.5860	-16.2857	-3.23892	0	
1.5867	-16.2857	-1.71943	0	
1.5873	-9.56129	-1.39953	0	
1.5880	5.72627	-1.39953	0	
1.5887	22.1696	-1.39953	0	
1.5893	34.6728	-1.39953	0	
1.5900	30.7327	-0.47984	0	
1.5907	7.82765	0.71976	0	
1.5913	-13.8166	0.439853	0	
1.5920	-20.8562	0.11996	0	
1.5927	-21.4341	0.439853	0	
1.5933	-19.0175	1.03965	0	
1.5940	-8.353	0.11996	0	
1.5947	4.46544	-1.39953	0	
1.5953	8.45807	-2.63912	0	
1.5960	7.24977	-2.91903	0	
1.5967	14.5521	-1.71943	0	
1.5973	35.9336	1.63945	0	
1.5980	56.3696	1.63945	0	
1.5987	55.424	-1.39953	0	
1.5993	28.894	-0.199933	0	
1.6000	1.10323	2.55915	0	
1.6007	1.73364	1.35955	0	
1.6013	18.5447	0.11996	0	
1.6020	17.9143	1.63945	0	
1.6027	4.78065	1.63945	0	
1.6033	-2.52166	1.95935	0	
1.6040	-8.353	3.79873	0	
1.6047	-10.1917	3.15895	0	
1.6053	-7.72258	2.87904	0	
1.6060	-19.9106	3.79873	0	
1.6067	-39.1383	0.71976	0	
1.6073	-38.2452	-0.799733	0	
1.6080	-25.7419	4.39853	0	
1.6087	-16.8636	6.23792	0	
1.6093	4.46544	1.35955	0	
1.6100	43.236	1.95935	0	
1.6107	74.389	4.71842	0	
1.6113	77.1208	1.03965	0	
1.6120	54.8461	-1.71943	0	
1.6127	22.1696	2.87904	0	
1.6133	-11.9779	4.71842	0	
1.6140	-47.7014	2.23925	0	
1.6147	-70.6065	3.15895	0	
1.6153	-63.2516	5.31822	0	
1.6160	-37.3521	4.71842	0	
1.6167	-15.3401	3.79873	0	
1.6173	-2.52166	2.87904	0	
1.6180	2.94194	0.11996	0	
1.6187	-0.105069	0.11996	0	
1.6193	-1.31336	3.47884	0	
1.6200	4.15023	4.07864	0	
1.6207	10.2968	2.23925	0	
1.6213	18.5447	2.23925	0	
1.6220	32.5714	3.15895	0	
1.6227	44.129	2.87904	0	
1.6233	51.1687	1.95935	0	
1.6240	52.377	1.95935	0	
1.6247	32.2562	2.87904	0	
1.6253	-1.31336	1.95935	0	
1.6260	-13.2387	0.439853	0	
1.6267	-1.94378	1.03965	0	
1.6273	-1.62857	2.23925	0	
1.6280	-20.2258	0.11996	0	
1.6287	-36.4065	-1.07964	0	
1.6293	-40.6618	0.11996	0	
1.6300	-42.8157	-0.799733	0	
1.6307	-45.2848	-2.31923	0	
1.6313	-38.2452	-0.799733	0	
1.6320	-24.7963	-1.71943	0	
1.6327	-17.8092	-2.63912	0	
1.6333	-14.7622	0.11996	0	
1.6340	-8.03779	1.03965	0	
1.6347	-3.78249	-0.799733	0	
1.6353	-3.78249	-1.07964	0	
1.6360	0.210138	-1.39953	0	
1.6367	2.94194	-1.39953	0	
1.6373	-1.31336	0.11996	0	
1.6380	-4.04516	1.03965	0	
1.6387	0.210138	0.11996	0	
1.6393	2.94194	-1.71943	0	
1.6400	-0.420277	-3.23892	0	
1.6407	1.10323	-1.71943	0	
1.6413	14.8673	-1.07964	0	
1.6420	28.894	-2.91903	0	
1.6427	31.6258	-1.71943	0	
1.6433	25.847	1.03965	0	
1.6440	20.0682	-0.799733	0	
1.6447	14.8673	-2.31923	0	
1.6453	10.8747	-1.07964	0	
1.6460	7.51244	-1.71943	0	
1.6467	1.10323	-2.63912	0	
1.6473	-9.8765	-2.31923	0	
1.6480	-19.0175	-3.55881	0	
1.6487	-18.7023	-4.43852	0	
1.6493	-9.8765	-2.91903	0	
1.6500	1.73364	-1.71943	0	
1.6507	13.9217	-1.99933	0	
1.6513	24.0083	-2.91903	0	
1.6520	26.7401	-1.71943	0	
1.6527	22.1696	0.71976	0	
1.6533	17.9143	0.71976	0	
1.6540	19.4378	-0.799733	0	
1.6547	25.5318	-1.39953	0	
1.6553	28.5788	-2.91903	0	
1.6560	24.0083	-2.31923	0	
1.6567	13.659	1.03965	0	
1.6573	5.09585	0.71976	0	
1.6580	1.10323	-2.63912	0	
1.6587	-1.62857	-2.31923	0	
1.6593	-4.36037	-1.71943	0	
1.6600	-4.04516	-3.55881	0	
1.6607	-4.99078	-4.15861	0	
1.6613	-17.1788	-2.31923	0	
1.6620	-31.5207	-1.07964	0	
1.6627	-31.836	-0.47984	0	
1.6633	-24.5336	0.11996	0	
1.6640	-19.0175	-0.799733	0	
1.6647	-14.447	-2.91903	0	
1.6653	-11.4	-3.55881	0	
1.6660	-8.93088	-1.99933	0	
1.6667	-1.62857	-1.71943	0	
1.6673	4.46544	-2.63912	0	
1.6680	2.04885	-1.99933	0	
1.6687	-1.62857	-1.71943	0	
1.6693	-3.46728	-1.39953	0	
1.6700	-6.51429	0.11996	0	
1.6707	-6.82949	-1.39953	0	
1.6713	-8.03779	-4.75841	0	
1.6720	-19.6479	-4.75841	0	
1.6727	-30.9429	-5.0783	0	
1.6733	-29.1042	-7.51749	0	
1.6740	-18.7023	-6.8777	0	
1.6747	-0.682949	-4.43852	0	
1.6753	29.5244	-4.43852	0	
1.6760	65.8258	-3.55881	0	
1.6767	100.026	-1.71943	0	
1.6773	117.415	-3.23892	0	
1.6780	92.0931	-3.83872	0	
1.6787	29.2092	-2.31923	0	
1.6793	-34.883	-2.91903	0	
1.6800	-69.3456	-4.43852	0	
1.6807	-63.882	-3.83872	0	
1.6813	-38.5604	-4.43852	0	
1.6820	-27.2654	-5.6781	0	
1.6827	-28.4737	-5.35821	0	
1.6833	-20.8562	-5.998	0	
1.6840	-11.7152	-6.2779	0	
1.6847	-15.3401	-3.55881	0	
1.6853	-27.2654	-2.91903	0	
1.6860	-40.3991	-4.75841	0	
1.6867	-47.3862	-3.83872	0	
1.6873	-41.9226	-2.91903	0	
1.6880	-30.6277	-4.15861	0	
1.6887	-22.6949	-3.83872	0	
1.6893	-17.494	-3.55881	0	
1.6900	-14.447	-2.91903	0	
1.6907	-16.8636	-0.199933	0	
1.6913	-22.6949	-0.799733	0	
1.6920	-23.588	-6.5978	0	
1.6927	-18.1244	-7.7974	0	
1.6933	-11.9779	-3.55881	0	
1.6940	-9.8765	-0.799733	0	
1.6947	-6.82949	-0.799733	0	
1.6953	-2.20645	0.11996	0	
1.6960	-0.420277	-0.199933	0	
1.6967	-1.62857	-2.63912	0	
1.6973	4.15023	-2.91903	0	
1.6980	27.0553	-0.199933	0	
1.6987	50.8535	0.11996	0	
1.6993	48.4369	-2.91903	0	
1.7000	24.0083	-4.15861	0	
1.7007	5.72627	-0.799733	0	
1.7013	-1.94378	1.95935	0	
1.7020	-15.3401	1.03965	0	
1.7027	-33.9899	0.71976	0	
1.7033	-35.776	1.03965	0	
1.7040	-13.5014	-1.07964	0	
1.7047	10.8747	-4.15861	0	
1.7053	19.4378	-2.31923	0	
1.7060	25.847	-0.199933	0	
1.7067	41.082	-2.63912	0	
1.7073	50.8535	-4.15861	0	
1.7080	49.0148	-4.43852	0	
1.7087	50.5383	-6.2779	0	
1.7093	57.8931	-5.998	0	
1.7100	53.0074	-3.83872	0	
1.7107	20.9613	-4.43852	0	
1.7113	-25.7419	-4.75841	0	
1.7120	-58.9963	-1.71943	0	
1.7127	-60.5198	-0.199933	0	
1.7133	-35.776	-0.799733	0	
1.7140	-4.04516	0.11996	0	
1.7147	20.3309	0.71976	0	
1.7153	35.6184	-0.47984	0	
1.7160	37.4572	-1.07964	0	
1.7167	18.5447	-0.199933	0	
1.7173	-8.353	2.23925	0	
1.7180	-22.3797	4.39853	0	
1.7187	-24.5336	4.39853	0	
1.7193	-23.588	3.15895	0	
1.7200	-16.6009	3.15895	0	
1.7207	-8.03779	5.59813	0	
1.7213	-11.0848	7.43752	0	
1.7220	-18.3871	5.59813	0	
1.7227	-15.0249	3.47884	0	
1.7233	-7.09217	4.71842	0	
1.7240	-1.94378	4.71842	0	
1.7247	9.66636	4.39853	0	
1.7253	25.847	4.71842	0	
1.7260	34.4101	3.15895	0	
1.7267	37.7198	1.35955	0	
1.7273	34.988	1.95935	0	
1.7280	22.4848	1.95935	0	
1.7287	14.8673	1.03965	0	
1.7293	15.7604	3.47884	0	
1.7300	7.51244	5.59813	0	
1.7307	-6.19908	5.59813	0	
1.7313	-6.82949	5.59813	0	
1.7320	-4.36037	4.39853	0	
1.7327	-20.2258	1.95935	0	
1.7333	-43.4461	1.03965	0	
1.7340	-46.8083	0.11996	0	
1.7347	-28.7889	1.03965	0	
1.7353	-8.93088	3.15895	0	
1.7360	-0.682949	4.71842	0	
1.7367	-1.62857	4.71842	0	
1.7373	-1.94378	4.07864	0	
1.7380	6.30415	3.15895	0	
1.7387	15.4452	3.15895	0	
1.7393	14.2369	4.07864	0	
1.7400	5.98894	3.79873	0	
1.7407	-1.31336	2.23925	0	
1.7413	-5.88387	1.95935	0	
1.7420	-4.36037	1.35955	0	
1.7427	-1.94378	1.03965	0	
1.7433	-6.19908	3.47884	0	
1.7440	-10.7696	4.71842	0	
1.7447	-12.9235	1.63945	0	
1.7453	-18.1244	-0.799733	0	
1.7460	-20.8562	-0.799733	0	
1.7467	-20.541	-1.71943	0	
1.7473	-25.7419	-2.63912	0	
1.7480	-27.2654	-1.71943	0	
1.7487	-19.3327	-1.39953	0	
1.7493	-14.447	-3.23892	0	
1.7500	-14.447	-3.55881	0	
1.7507	-11.7152	-3.23892	0	
1.7513	-8.93088	-6.2779	0	
1.7520	1.10323	-7.51749	0	
1.7527	24.0083	-4.75841	0	
1.7533	36.8267	-2.91903	0	
1.7540	30.4175	-3.55881	0	
1.7547	26.7401	-3.55881	0	
1.7553	27.6857	-2.91903	0	
1.7560	20.9613	-2.63912	0	
1.7567	15.7604	-2.31923	0	
1.7573	18.2295	-3.55881	0	
1.7580	15.7604	-3.55881	0	
1.7587	8.14286	-1.71943	0	
1.7593	2.04885	-0.199933	0	
1.7600	-6.19908	0.439853	0	
1.7607	-18.7023	2.23925	0	
1.7613	-25.1115	2.87904	0	
1.7620	-20.2258	1.03965	0	
1.7627	-8.61567	1.35955	0	
1.7633	1.10323	4.71842	0	
1.7640	5.72627	4.71842	0	
1.7647	10.2968	1.63945	0	
1.7653	15.4452	1.35955	0	
1.7660	13.0286	2.23925	0	
1.7667	3.88756	1.03965	0	
1.7673	-1.31336	1.03965	0	
1.7680	0.525346	2.23925	0	
1.7687	1.10323	1.03965	0	
1.7693	-2.52166	-1.39953	0	
1.7700	-6.19908	-1.39953	0	
1.7707	-4.99078	0.11996	0	
1.7713	5.72627	2.23925	0	
1.7720	25.2166	2.87904	0	
1.7727	40.5042	1.03965	0	
1.7733	38.6654	0.71976	0	
1.7740	25.2166	1.95935	0	
1.7747	8.45807	-0.199933	0	
1.7753	-13.2387	-1.71943	0	
1.7760	-33.6747	1.35955	0	
1.7767	-41.9226	2.87904	0	
1.7773	-38.2452	1.63945	0	
1.7780	-29.682	1.63945	0	
1.7787	-15.9705	2.87904	0	
1.7793	-1.62857	3.79873	0	
1.7800	4.46544	3.47884	0	
1.7807	3.88756	1.95935	0	
1.7813	3.88756	1.35955	0	
1.7820	4.15023	1.03965	0	
1.7827	-0.420277	-0.799733	0	
1.7833	-7.09217	-2.31923	0	
1.7840	-7.40737	-1.99933	0	
1.7847	-2.83687	-0.799733	0	
1.7853	-0.420277	0.11996	0	
1.7860	-0.420277	-0.47984	0	
1.7867	0.525346	-2.31923	0	
1.7873	2.36406	-1.71943	0	
1.7880	4.78065	0.439853	0	
1.7887	8.45807	0.11996	0	
1.7893	13.659	-0.799733	0	
1.7900	24.3235	0.11996	0	
1.7907	38.6654	0.71976	0	
1.7913	43.236	1.03965	0	
1.7920	33.1493	1.03965	0	
1.7927	16.0756	0.71976	0	
1.7933	-5.30599	-0.199933	0	
1.7940	-31.2055	-0.799733	0	
1.7947	-44.9696	-0.799733	0	
1.7953	-33.6747	-0.199933	0	
1.7960	-12.2931	1.63945	0	
1.7967	-5.56866	4.39853	0	
1.7973	-17.1788	4.71842	0	
1.7980	-24.5336	3.79873	0	
1.7987	-18.3871	4.71842	0	
1.7993	-22.0645	4.39853	0	
1.8000	-36.7217	1.63945	0	
1.8007	-32.729	1.63945	0	
1.8013	-10.4544	2.87904	0	
1.8020	2.04885	1.03965	0	
1.8027	6.61936	-0.47984	0	
1.8033	14.2369	-1.07964	0	
1.8040	15.1825	-1.99933	0	
1.8047	10.2968	-1.07964	0	
1.8053	13.0286	-1.07964	0	
1.8060	16.0756	-3.55881	0	
1.8067	7.24977	-3.55881	0	
1.8073	-2.83687	-1.71943	0	
1.8080	-1.62857	-1.99933	0	
1.8087	1.41843	-1.71943	0	
1.8093	-3.78249	-0.799733	0	
1.8100	-8.03779	-0.799733	0	
1.8107	2.04885	0.11996	0	
1.8113	17.2839	0.71976	0	
1.8120	17.5991	-0.799733	0	
1.8127	-0.998157	-1.71943	0	
1.8133	-20.8562	-1.99933	0	
1.8140	-29.682	-1.71943	0	
1.8147	-33.3595	1.95935	0	
1.8153	-33.3595	5.59813	0	
1.8160	-23.0101	4.39853	0	
1.8167	-9.24608	2.23925	0	
1.8173	-3.46728	1.35955	0	
1.8180	-4.04516	0.11996	0	
1.8187	-5.88387	-1.71943	0	
1.8193	-4.36037	-1.99933	0	
1.8200	6.61936	-1.39953	0	
1.8207	22.4848	-1.71943	0	
1.8213	33.7797	-3.55881	0	
1.8220	36.8267	-3.55881	0	
1.8227	25.2166	-0.799733	0	
1.8233	2.62673	0.71976	0	
1.8240	-11.0848	-1.07964	0	
1.8247	-19.0175	-1.99933	0	
1.8253	-32.729	-1.71943	0	
1.8260	-34.2525	-3.55881	0	
1.8267	-16.6009	-6.5978	0	
1.8273	-4.36037	-7.7974	0	
1.8280	-4.04516	-6.5978	0	
1.8287	-1.62857	-5.35821	0	
1.8293	1.10323	-4.43852	0	
1.8300	-1.62857	-4.15861	0	
1.8307	-10.4544	-4.15861	0	
1.8313	-25.4267	-3.55881	0	
1.8320	-35.776	-2.31923	0	
1.8327	-33.0442	-2.63912	0	
1.8333	-19.3327	-4.75841	0	
1.8340	7.51244	-6.2779	0	
1.8347	42.3429	-5.6781	0	
1.8353	60.047	-4.75841	0	
1.8360	55.1613	-4.43852	0	
1.8367	44.7595	-5.35821	0	
1.8373	41.082	-5.35821	0	
1.8380	45.3899	-1.71943	0	
1.8387	46.283	1.03965	0	
1.8393	28.5788	-0.799733	0	
1.8400	5.98894	-2.63912	0	
1.8407	3.25714	-1.71943	0	
1.8413	9.98157	-2.63912	0	
1.8420	7.82765	-3.23892	0	
1.8427	1.10323	-2.63912	0	
1.8433	-6.82949	-2.91903	0	
1.8440	-12.9235	-3.55881	0	
1.8447	-6.82949	-3.55881	0	
1.8453	6.30415	-1.99933	0	
1.8460	11.8203	0.11996	0	
1.8467	13.0286	-1.99933	0	
1.8473	16.0756	-5.35821	0	
1.8480	12.3982	-4.15861	0	
1.8487	-1.62857	-2.91903	0	
1.8493	-17.1788	-3.55881	0	
1.8500	-25.4267	-0.799733	0	
1.8507	-33.3595	0.439853	0	
1.8513	-51.0636	-1.71943	0	
1.8520	-63.2516	-0.199933	0	
1.8527	-46.4931	2.23925	0	
1.8533	-11.7152	0.71976	0	
1.8540	15.7604	0.71976	0	
1.8547	30.7327	3.15895	0	
1.8553	28.5788	2.55915	0	
1.8560	6.61936	1.35955	0	
1.8567	-12.9235	3.79873	0	
1.8573	-17.1788	3.79873	0	
1.8580	-18.3871	0.71976	0	
1.8587	-19.6479	-0.199933	0	
1.8593	-14.447	2.23925	0	
1.8600	-7.09217	3.47884	0	
1.8607	-4.04516	2.55915	0	
1.8613	-3.46728	2.55915	0	
1.8620	-1.31336	2.55915	0	
1.8627	0.525346	0.11996	0	
1.8633	1.10323	-1.39953	0	
1.8640	2.62673	1.03965	0	
1.8647	2.94194	2.23925	0	
1.8653	-0.998157	1.35955	0	
1.8660	-3.15207	0.11996	0	
1.8667	-1.94378	-0.799733	0	
1.8673	-2.83687	-1.07964	0	
1.8680	-3.46728	-0.47984	0	
1.8687	-0.682949	-1.07964	0	
1.8693	3.57235	-1.71943	0	
1.8700	10.2968	-0.199933	0	
1.8707	19.4378	-0.199933	0	
1.8713	25.5318	-1.07964	0	
1.8720	27.6857	0.11996	0	
1.8727	28.5788	1.03965	0	
1.8733	27.6857	-0.799733	0	
1.8740	24.3235	-1.99933	0	
1.8747	20.0682	-0.47984	0	
1.8753	15.4452	0.71976	0	
1.8760	11.1899	-0.799733	0	
1.8767	4.15023	-1.07964	0	
1.8773	-4.36037	1.03965	0	
1.8780	-6.82949	0.11996	0	
1.8787	-5.30599	-1.71943	0	
1.8793	-4.99078	-0.799733	0	
1.8800	-3.46728	0.11996	0	
1.8807	-1.31336	-1.71943	0	
1.8813	-3.78249	-1.71943	0	
1.8820	-7.72258	-1.99933	0	
1.8827	-8.03779	-2.63912	0	
1.8833	-7.09217	-1.07964	0	
1.8840	-3.78249	-0.199933	0	
1.8847	5.09585	-1.07964	0	
1.8853	15.7604	-0.199933	0	
1.8860	24.6387	-0.799733	0	
1.8867	30.7327	-2.31923	0	
1.8873	28.5788	1.03965	0	
1.8880	13.659	1.95935	0	
1.8887	-12.6083	-3.55881	0	
1.8893	-40.0839	-6.2779	0	
1.8900	-56.5797	-3.83872	0	
1.8907	-54.4258	-2.91903	0	
1.8913	-37.93	-4.43852	0	
1.8920	-15.3401	-5.0783	0	
1.8927	8.45807	-3.83872	0	
1.8933	31.6258	-1.71943	0	
1.8940	51.4839	-2.63912	0	
1.8947	59.7318	-4.43852	0	
1.8953	51.4839	-2.91903	0	
1.8960	32.2562	-2.31923	0	
1.8967	9.03595	-3.23892	0	
1.8973	-16.2857	-3.23892	0	
1.8980	-33.3595	-2.91903	0	
1.8987	-39.1383	-2.63912	0	
1.8993	-47.7014	-2.31923	0	
1.9000	-58.3659	-3.55881	0	
1.9007	-51.694	-4.43852	0	
1.9013	-24.5336	-4.75841	0	
1.9020	7.51244	-4.75841	0	
1.9027	27.6857	-2.63912	0	
1.9033	22.4848	-0.799733	0	
1.9040	-1.62857	-2.63912	0	
1.9047	-22.6949	-3.23892	0	
1.9053	-33.3595	-1.39953	0	
1.9060	-42.8157	-3.23892	0	
1.9067	-50.7484	-2.91903	0	
1.9073	-47.3862	0.11996	0	
1.9080	-37.93	-0.799733	0	
1.9087	-29.9972	-1.99933	0	
1.9093	-21.7493	0.11996	0	
1.9100	-16.2857	-0.47984	0	
1.9107	-16.8636	-2.91903	0	
1.9113	-17.494	-3.55881	0	
1.9120	-13.8166	-3.23892	0	
1.9127	-14.447	-0.47984	0	
1.9133	-11.0848	1.95935	0	
1.9140	11.5051	-0.47984	0	
1.9147	34.6728	-0.799733	0	
1.9153	34.988	3.47884	0	
1.9160	27.6857	5.59813	0	
1.9167	27.0553	5.31822	0	
1.9173	22.8	5.59813	0	
1.9180	16.706	4.07864	0	
1.9187	18.8074	1.95935	0	
1.9193	23.3779	3.47884	0	
1.9200	23.1152	5.59813	0	
1.9207	20.0682	4.07864	0	
1.9213	18.8074	2.23925	0	
1.9220	22.8	1.95935	0	
1.9227	22.8	1.95935	0	
1.9233	11.5051	1.35955	0	
1.9240	1.41843	1.95935	0	
1.9247	1.10323	4.39853	0	
1.9253	-1.31336	5.59813	0	
1.9260	-7.09217	3.79873	0	
1.9267	-5.56866	3.47884	0	
1.9273	-2.20645	3.79873	0	
1.9280	-4.36037	2.55915	0	
1.9287	-3.46728	3.79873	0	
1.9293	9.66636	7.15761	0	
1.9300	29.2092	6.23792	0	
1.9307	42.9207	2.55915	0	
1.9313	47.2286	2.55915	0	
1.9320	42.9207	4.07864	0	
1.9327	26.7401	3.15895	0	
1.9333	2.36406	1.63945	0	
1.9340	-15.0249	-0.199933	0	
1.9347	-9.24608	-1.71943	0	
1.9353	19.4378	-1.39953	0	
1.9360	43.5512	0.439853	0	
1.9367	35.9336	1.03965	0	
1.9373	5.41106	0.11996	0	
1.9380	-22.6949	-1.71943	0	
1.9387	-37.0369	-2.31923	0	
1.9393	-35.5134	0.11996	0	
1.9400	-23.588	1.03965	0	
1.9407	-17.1788	-0.799733	0	
1.9413	-23.0101	-2.31923	0	
1.9420	-35.1982	-2.31923	0	
1.9427	-51.3788	-1.71943	0	
1.9433	-62.3585	-0.47984	0	
1.9440	-61.7281	1.03965	0	
1.9447	-60.2046	1.95935	0	
1.9453	-56.8424	1.95935	0	
1.9460	-40.977	0.439853	0	
1.9467	-23.588	0.11996	0	
1.9473	-15.6553	0.11996	0	
1.9480	-9.56129	-0.799733	0	
1.9487	-1.94378	-0.199933	0	
1.9493	1.41843	0.71976	0	
1.9500	2.04885	-0.199933	0	
1.9507	4.46544	0.71976	0	
1.9513	7.82765	2.23925	0	
1.9520	6.61936	-0.799733	0	
1.9527	-0.420277	-3.55881	0	
1.9533	-7.40737	-1.99933	0	
1.9540	-11.0848	-3.23892	0	
1.9547	-10.7696	-5.35821	0	
1.9553	-6.19908	-3.55881	0	
1.9560	0.210138	-2.63912	0	
1.9567	3.88756	-4.43852	0	
1.9573	1.10323	-3.55881	0	
1.9580	-4.36037	-2.31923	0	
1.9587	-6.19908	-3.23892	0	
1.9593	-3.78249	-1.99933	0	
1.9600	-0.420277	-0.47984	0	
1.9607	7.51244	-1.99933	0	
1.9613	17.5991	-4.43852	0	
1.9620	19.753	-5.0783	0	
1.9627	18.8074	-2.91903	0	
1.9633	25.847	-1.39953	0	
1.9640	33.1493	-4.43852	0	
1.9647	32.2562	-6.5978	0	
1.9653	28.0009	-2.91903	0	
1.9660	23.1152	-0.199933	0	
1.9667	20.0682	-1.07964	0	
1.9673	17.9143	0.439853	0	
1.9680	13.9217	1.03965	0	
1.9687	13.9217	-2.63912	0	
1.9693	21.2765	-2.31923	0	
1.9700	23.1152	0.11996	0	
1.9707	16.706	0.439853	0	
1.9713	12.1355	2.87904	0	
1.9720	10.5594	5.91802	0	
1.9727	11.8203	2.87904	0	
1.9733	16.706	0.439853	0	
1.9740	19.4378	1.95935	0	
1.9747	17.2839	1.03965	0	
1.9753	14.5521	-0.799733	0	
1.9760	14.2369	0.11996	0	
1.9767	14.8673	1.03965	0	
1.9773	18.5447	2.87904	0	
1.9780	28.0009	3.79873	0	
1.9787	37.4572	1.03965	0	
1.9793	34.0949	0.439853	0	
1.9800	20.3309	1.63945	0	
1.9807	9.35115	0.71976	0	
1.9813	4.46544	-0.199933	0	
1.9820	2.04885	-0.799733	0	
1.9827	6.61936	-1.07964	0	
1.9833	16.706	1.35955	0	
1.9840	28.5788	3.79873	0	
1.9847	46.5982	1.63945	0	
1.9853	49.0148	-1.71943	0	
1.9860	13.0286	-0.799733	0	
1.9867	-21.7493	2.87904	0	
1.9873	-20.541	3.79873	0	
1.9880	-28.7889	0.439853	0	
1.9887	-67.8221	-0.199933	0	
1.9893	-84.0028	1.03965	0	
1.9900	-62.0433	0.11996	0	
1.9907	-42.8157	0.439853	0	
1.9913	-33.3595	2.23925	0	
1.9920	-22.3797	-0.199933	0	
1.9927	-18.1244	-3.23892	0	
1.9933	-21.4341	-2.63912	0	
1.9940	-23.0101	-2.91903	0	
1.9947	-20.2258	-3.55881	0	
1.9953	-12.9235	-3.55881	0	
1.9960	-4.67558	-5.35821	0	
1.9967	2.04885	-5.6781	0	
1.9973	8.45807	-2.91903	0	
1.9980	11.1899	-2.31923	0	
1.9987	9.66636	-2.91903	0	
1.9993	6.30415	-2.63912	0	
2.0000	1.10323	-4.43852	0	
2.0007	-0.682949	-6.2779	0	
2.0013	6.93456	-4.15861	0	
2.0020	18.5447	-0.799733	0	
2.0027	25.847	-1.07964	0	
2.0033	23.1152	-3.55881	0	
2.0040	14.5521	-3.23892	0	
2.0047	7.51244	-0.799733	0	
2.0053	-5.30599	-0.799733	0	
2.0060	-29.1042	-2.31923	0	
2.0067	-40.6618	-1.71943	0	
2.0073	-32.729	0.11996	0	
2.0080	-29.9972	-1.71943	0	
2.0087	-38.2452	-3.55881	0	
2.0093	-42.8157	-1.07964	0	
2.0100	-41.2922	1.63945	0	
2.0107	-34.2525	1.35955	0	
2.0113	-21.4341	0.71976	0	
2.0120	-13.8166	1.03965	0	
2.0127	-13.2387	1.03965	0	
2.0133	-8.03779	1.03965	0	
2.0140	3.88756	1.95935	0	
2.0147	17.9143	2.87904	0	
2.0153	38.3502	1.95935	0	
2.0160	59.4166	1.03965	0	
2.0167	60.6249	1.03965	0	
2.0173	35.9336	0.71976	0	
2.0180	3.88756	0.11996	0	
2.0187	-22.0645	-1.71943	0	
2.0193	-37.3521	-3.55881	0	
2.0200	-30.6277	-2.63912	0	
2.0207	-6.51429	-0.799733	0	
2.0213	15.1825	-1.99933	0	
2.0220	35.9336	-4.43852	0	
2.0227	58.7862	-2.91903	0	
2.0233	72.235	-1.39953	0	
2.0240	69.5032	-1.71943	0	
2.0247	51.7991	-1.99933	0	
2.0253	27.0553	-2.63912	0	
2.0260	2.62673	-3.23892	0	
2.0267	-26.3198	-1.39953	0	
2.0273	-53.7954	0.11996	0	
2.0280	-59.3115	-0.799733	0	
2.0287	-48.5945	0.11996	0	
2.0293	-41.6074	0.11996	0	
2.0300	-39.1383	-1.99933	0	
2.0307	-39.1383	-1.39953	0	
2.0313	-40.6618	1.63945	0	
2.0320	-36.0913	1.63945	0	
2.0327	-24.7963	0.439853	0	
2.0333	-13.8166	0.11996	0	
2.0340	-4.36037	-0.47984	0	
2.0347	5.72627	-0.199933	0	
2.0353	21.5917	0.439853	0	
2.0360	44.129	-0.47984	0	
2.0367	58.7862	0.439853	0	
2.0373	55.424	3.47884	0	
2.0380	40.1889	3.79873	0	
2.0387	17.9143	4.07864	0	
2.0393	-9.24608	4.39853	0	
2.0400	-34.5677	-0.799733	0	
2.0407	-43.1309	-4.43852	0	
2.0413	-24.5336	-1.07964	0	
2.0420	7.51244	1.03965	0	
2.0427	28.894	-0.799733	0	
2.0433	32.8866	0.439853	0	
2.0440	19.4378	2.23925	0	
2.0447	-2.20645	0.439853	0	
2.0453	-7.72258	0.439853	0	
2.0460	-0.682949	2.87904	0	
2.0467	-9.8765	2.87904	0	
2.0473	-30.6277	0.11996	0	
2.0480	-36.0913	-1.71943	0	
2.0487	-29.4194	-1.71943	0	
2.0493	-21.7493	0.439853	0	
2.0500	-11.9779	2.87904	0	
2.0507	-3.46728	1.35955	0	
2.0513	2.94194	-2.63912	0	
2.0520	9.03595	-1.99933	0	
2.0527	9.98157	1.03965	0	
2.0533	5.09585	0.71976	0	
2.0540	4.46544	-2.31923	0	
2.0547	11.1899	-1.71943	0	
2.0553	17.2839	0.11996	0	
2.0560	18.5447	-0.47984	0	
2.0567	17.2839	-1.07964	0	
2.0573	14.8673	0.71976	0	
2.0580	8.77327	1.63945	0	
2.0587	2.04885	-0.199933	0	
2.0593	0.525346	-1.07964	0	
2.0600	2.04885	1.03965	0	
2.0607	1.10323	1.95935	0	
2.0613	0.840553	-0.199933	0	
2.0620	3.88756	-1.71943	0	
2.0627	5.09585	-1.71943	0	
2.0633	5.72627	-2.63912	0	
2.0640	7.51244	-2.63912	0	
2.0647	6.30415	-1.71943	0	
2.0653	4.15023	-1.71943	0	
2.0660	2.36406	-1.99933	0	
2.0667	-4.36037	-1.71943	0	
2.0673	-11.7152	-2.31923	0	
2.0680	-13.5014	-3.55881	0	
2.0687	-11.7152	-3.23892	0	
2.0693	-2.83687	-2.63912	0	
2.0700	21.5917	-1.71943	0	
2.0707	53.3226	-0.799733	0	
2.0713	71.0267	-0.199933	0	
2.0720	59.1014	0.439853	0	
2.0727	20.9613	1.95935	0	
2.0733	-22.6949	2.55915	0	
2.0740	-54.741	1.35955	0	
2.0747	-78.224	1.35955	0	
2.0753	-88.3106	2.87904	0	
2.0760	-75.177	1.63945	0	
2.0767	-52.2719	-3.23892	0	
2.0773	-38.2452	-3.83872	0	
2.0780	-30.9429	0.11996	0	
2.0787	-27.2654	1.95935	0	
2.0793	-25.4267	1.03965	0	
2.0800	-16.2857	1.35955	0	
2.0807	1.10323	1.95935	0	
2.0813	16.706	1.35955	0	
2.0820	23.1152	1.03965	0	
2.0827	18.5447	-0.799733	0	
2.0833	6.61936	-3.55881	0	
2.0840	-0.105069	-4.15861	0	
2.0847	-3.78249	-3.55881	0	
2.0853	-13.8166	-2.63912	0	
2.0860	-21.7493	-0.799733	0	
2.0867	-19.9106	0.11996	0	
2.0873	-22.6949	0.71976	0	
2.0880	-31.5207	2.87904	0	
2.0887	-30.3124	2.55915	0	
2.0893	-25.7419	0.439853	0	
2.0900	-37.6148	0.11996	0	
2.0907	-55.9493	-1.71943	0	
2.0913	-53.7954	-3.55881	0	
2.0920	-35.1982	-1.71943	0	
2.0927	-17.8092	0.439853	0	
2.0933	-6.19908	0.439853	0	
2.0940	3.88756	1.03965	0	
2.0947	10.5594	0.439853	0	
2.0953	9.03595	-1.07964	0	
2.0960	2.94194	1.03965	0	
2.0967	1.41843	2.87904	0	
2.0973	4.46544	1.03965	0	
2.0980	2.36406	-0.199933	0	
2.0987	-7.09217	1.03965	0	
2.0993	-13.5014	0.71976	0	
2.1000	-9.8765	-0.799733	0	
2.1007	-2.83687	-0.47984	0	
2.1013	0.210138	1.03965	0	
2.1020	11.1899	0.439853	0	
2.1027	38.9807	-1.71943	0	
2.1033	65.8258	-1.71943	0	
2.1040	71.0267	-0.199933	0	
2.1047	55.7392	-0.799733	0	
2.1053	35.3032	-1.07964	0	
2.1060	22.8	-0.47984	0	
2.1067	13.3438	0.11996	0	
2.1073	1.73364	1.63945	0	
2.1080	2.94194	2.87904	0	
2.1087	24.0083	1.35955	0	
2.1093	43.5512	0.11996	0	
2.1100	47.8065	1.03965	0	
2.1107	43.5512	2.55915	0	
2.1113	35.9336	3.79873	0	
2.1120	18.5447	2.55915	0	
2.1127	-10.4544	-0.47984	0	
2.1133	-36.7217	-2.63912	0	
2.1140	-42.1853	-3.23892	0	
2.1147	-36.7217	-0.199933	0	
2.1153	-36.4065	4.99833	0	
2.1160	-35.1982	4.39853	0	
2.1167	-23.588	-0.47984	0	
2.1173	-8.03779	1.35955	0	
2.1180	5.98894	5.31822	0	
2.1187	14.5521	2.23925	0	
2.1193	10.2968	-0.799733	0	
2.1200	2.36406	2.23925	0	
2.1207	2.04885	2.23925	0	
2.1213	4.78065	-1.99933	0	
2.1220	5.98894	-1.99933	0	
2.1227	7.82765	2.87904	0	
2.1233	12.1355	2.87904	0	
2.1240	13.9217	-2.31923	0	
2.1247	13.3438	-3.83872	0	
2.1253	12.7134	-2.91903	0	
2.1260	9.98157	-4.15861	0	
2.1267	8.77327	-4.75841	0	
2.1273	19.1226	-3.55881	0	
2.1280	37.7198	-3.55881	0	
2.1287	43.236	-3.83872	0	
2.1293	24.3235	-2.63912	0	
2.1300	-0.682949	-3.83872	0	
2.1307	-12.2931	-3.55881	0	
2.1313	-16.2857	0.11996	0	
2.1320	-22.3797	2.87904	0	
2.1327	-23.9032	2.87904	0	
2.1333	-26.635	1.03965	0	
2.1340	-42.8157	-1.71943	0	
2.1347	-54.741	-3.83872	0	
2.1353	-42.1853	-4.43852	0	
2.1360	-19.9106	-4.75841	0	
2.1367	-4.99078	-2.63912	0	
2.1373	1.73364	-1.39953	0	
2.1380	0.525346	-1.99933	0	
2.1387	-0.682949	-1.71943	0	
2.1393	2.94194	-1.99933	0	
2.1400	7.51244	-4.43852	0	
2.1407	16.0756	-2.91903	0	
2.1413	28.0009	0.439853	0	
2.1420	28.894	-2.63912	0	
2.1427	21.5917	-3.83872	0	
2.1433	16.9687	0.11996	0	
2.1440	12.3982	1.03965	0	
2.1447	15.7604	-0.799733	0	
2.1453	34.4101	-0.799733	0	
2.1460	45.7051	-1.71943	0	
2.1467	32.8866	-2.63912	0	
2.1473	13.3438	0.439853	0	
2.1480	1.41843	0.439853	0	
2.1487	-7.09217	-3.55881	0	
2.1493	-10.7696	-3.55881	0	
2.1500	-2.20645	-0.799733	0	
2.1507	16.9687	-0.47984	0	
2.1513	34.0949	0.71976	0	
2.1520	31.3631	2.87904	0	
2.1527	8.14286	2.87904	0	
2.1533	-15.9705	1.03965	0	
2.1540	-27.2654	-0.199933	0	
2.1547	-27.8433	-1.39953	0	
2.1553	-24.2184	-1.99933	0	
2.1560	-20.541	-2.91903	0	
2.1567	-17.494	-1.99933	0	
2.1573	-14.1318	-0.199933	0	
2.1580	-13.5014	0.11996	0	
2.1587	-17.1788	0.11996	0	
2.1593	-20.541	-0.47984	0	
2.1600	-19.3327	-3.55881	0	
2.1607	-12.9235	-5.35821	0	
2.1613	-3.78249	-3.55881	0	
2.1620	2.04885	-3.55881	0	
2.1627	4.46544	-3.55881	0	
2.1633	7.51244	-1.39953	0	
2.1640	9.35115	-1.71943	0	
2.1647	9.35115	-1.39953	0	
2.1653	9.66636	1.95935	0	
2.1660	8.45807	-0.199933	0	
2.1667	10.5594	-5.35821	0	
2.1673	21.2765	-4.43852	0	
2.1680	28.0009	-2.63912	0	
2.1687	27.6857	-4.15861	0	
2.1693	26.7401	-2.31923	0	
2.1700	22.4848	1.95935	0	
2.1707	14.2369	1.95935	0	
2.1713	13.0286	-0.199933	0	
2.1720	10.2968	-1.71943	0	
2.1727	-4.67558	-2.63912	0	
2.1733	-21.1714	-0.799733	0	
2.1740	-29.9972	1.63945	0	
2.1747	-36.0913	-0.799733	0	
2.1753	-34.2525	-2.91903	0	
2.1760	-16.6009	0.71976	0	
2.1767	3.88756	3.79873	0	
2.1773	11.5051	1.35955	0	
2.1780	7.82765	-0.799733	0	
2.1787	4.15023	1.03965	0	
2.1793	5.41106	1.35955	0	
2.1800	8.77327	-0.47984	0	
2.1807	9.35115	0.11996	0	
2.1813	9.66636	0.11996	0	
2.1820	18.2295	-1.39953	0	
2.1827	29.5244	-0.199933	0	
2.1833	28.0009	3.15895	0	
2.1840	15.1825	2.87904	0	
2.1847	-0.998157	1.35955	0	
2.1853	-26.9502	3.15895	0	
2.1860	-51.0636	4.71842	0	
2.1867	-37.6148	4.71842	0	
2.1873	5.98894	5.91802	0	
2.1880	27.6857	6.51782	0	
2.1887	13.9217	4.39853	0	
2.1893	-3.15207	4.71842	0	
2.1900	-13.5014	6.51782	0	
2.1907	-18.3871	4.71842	0	
2.1913	-13.2387	2.23925	0	
2.1920	-8.03779	3.15895	0	
2.1927	-7.40737	4.07864	0	
2.1933	2.04885	3.47884	0	
2.1940	15.7604	2.87904	0	
2.1947	24.0083	1.03965	0	
2.1953	39.5585	-0.799733	0	
2.1960	53.3226	0.439853	0	
2.1967	46.9134	0.11996	0	
2.1973	35.6184	-1.71943	0	
2.1980	25.5318	-2.31923	0	
2.1987	2.36406	-4.15861	0	
2.1993	-24.7963	-3.83872	0	
2.2000	-39.4535	1.03965	0	
2.2007	-42.8157	1.03965	0	
2.2013	-32.729	-5.35821	0	
2.2020	-15.3401	-5.35821	0	
2.2027	-9.56129	-1.71943	0	
2.2033	-16.2857	-3.23892	0	
2.2040	-22.3797	-5.998	0	
2.2047	-23.0101	-5.6781	0	
2.2053	-19.0175	-4.43852	0	
2.2060	-15.3401	-3.55881	0	
2.2067	-13.5014	-4.15861	0	
2.2073	-6.19908	-5.35821	0	
2.2080	3.88756	-4.75841	0	
2.2087	5.98894	-4.43852	0	
2.2093	5.72627	-2.63912	0	
2.2100	8.14286	-1.39953	0	
2.2107	9.98157	-3.83872	0	
2.2113	16.3908	-5.35821	0	
2.2120	33.1493	-4.43852	0	
2.2127	49.6452	-6.2779	0	
2.2133	53.3226	-6.8777	0	
2.2140	43.236	-2.91903	0	
2.2147	22.1696	-2.31923	0	
2.2153	-3.15207	-2.91903	0	
2.2160	-26.3198	0.439853	0	
2.2167	-37.3521	0.11996	0	
2.2173	-32.729	-4.43852	0	
2.2180	-23.2728	-3.83872	0	
2.2187	-18.3871	-2.31923	0	
2.2193	-16.2857	-4.43852	0	
2.2200	-11.7152	-2.63912	0	
2.2207	-5.30599	2.23925	0	
2.2213	0.210138	1.35955	0	
2.2220	-3.15207	-2.63912	0	
2.2227	-14.7622	-1.99933	0	
2.2233	-20.2258	0.11996	0	
2.2240	-11.7152	1.95935	0	
2.2247	4.46544	4.07864	0	
2.2253	20.3309	5.31822	0	
2.2260	38.9807	3.47884	0	
2.2267	60.6249	1.03965	0	
2.2273	72.8655	1.35955	0	
2.2280	62.7788	3.47884	0	
2.2287	31.3631	5.31822	0	
2.2293	-15.6553	5.59813	0	
2.2300	-63.882	4.07864	0	
2.2307	-86.1567	1.03965	0	
2.2313	-72.13	1.03965	0	
2.2320	-41.2922	3.47884	0	
2.2327	-15.3401	4.39853	0	
2.2333	4.15023	3.79873	0	
2.2340	19.1226	4.07864	0	
2.2347	21.8544	2.87904	0	
2.2353	11.1899	-0.47984	0	
2.2360	-0.998157	-1.07964	0	
2.2367	-14.447	2.55915	0	
2.2373	-39.1383	5.91802	0	
2.2380	-51.0636	6.51782	0	
2.2387	-23.588	3.15895	0	
2.2393	9.66636	-1.39953	0	
2.2400	12.3982	-1.99933	0	
2.2407	5.09585	-0.47984	0	
2.2413	9.03595	-0.799733	0	
2.2420	12.1355	-0.799733	0	
2.2427	8.14286	0.11996	0	
2.2433	1.10323	0.11996	0	
2.2440	-7.09217	1.03965	0	
2.2447	-11.7152	1.03965	0	
2.2453	-6.82949	-1.07964	0	
2.2460	4.78065	0.71976	0	
2.2467	13.3438	4.71842	0	
2.2473	11.5051	3.15895	0	
2.2480	3.88756	-0.799733	0	
2.2487	0.525346	-3.55881	0	
2.2493	-1.62857	-5.35821	0	
2.2500	-5.30599	-6.2779	0	
2.2507	-5.56866	-3.83872	0	
2.2513	-6.82949	-2.63912	0	
2.2520	-9.8765	-2.91903	0	
2.2527	1.10323	-2.31923	0	
2.2533	16.0756	-0.47984	0	
2.2540	9.03595	1.35955	0	
2.2547	-0.105069	-0.799733	0	
2.2553	19.4378	-5.35821	0	
2.2560	46.283	-6.5978	0	
2.2567	60.3097	-5.0783	0	
2.2573	77.436	-3.55881	0	
2.2580	100.288	-1.71943	0	
2.2587	110.69	1.03965	0	
2.2593	102.758	2.87904	0	
2.2600	72.5502	4.39853	0	
2.2607	16.0756	2.87904	0	
2.2613	-52.2719	-0.799733	0	
2.2620	-104.754	-1.71943	0	
2.2627	-117.31	-0.799733	0	
2.2633	-95.2977	-0.799733	0	
2.2640	-70.9217	-3.23892	0	
2.2647	-58.6811	-4.15861	0	
2.2653	-49.2249	-2.63912	0	
2.2660	-41.6074	-1.71943	0	
2.2667	-40.0839	-2.63912	0	
2.2673	-37.3521	-2.91903	0	
2.2680	-30.3124	-3.83872	0	
2.2687	-23.588	-5.998	0	
2.2693	-18.7023	-5.6781	0	
2.2700	-16.2857	-3.83872	0	
2.2707	-11.4	-5.35821	0	
2.2713	0.525346	-7.51749	0	
2.2720	9.35115	-6.2779	0	
2.2727	14.8673	-3.55881	0	
2.2733	31.0479	-3.23892	0	
2.2740	55.1613	-5.35821	0	
2.2747	75.9125	-7.1976	0	
2.2753	79.5373	-5.998	0	
2.2760	54.2157	-2.31923	0	
2.2767	12.1355	-1.07964	0	
2.2773	-22.0645	-1.99933	0	
2.2780	-48.5945	-1.71943	0	
2.2787	-70.6065	-0.799733	0	
2.2793	-68.4525	0.11996	0	
2.2800	-40.6618	0.71976	0	
2.2807	-15.9705	0.11996	0	
2.2813	-8.353	-0.799733	0	
2.2820	-8.93088	0.11996	0	
2.2827	-12.6083	0.11996	0	
2.2833	-22.3797	-3.23892	0	
2.2840	-30.9429	-3.55881	0	
2.2847	-28.1585	-1.71943	0	
2.2853	-23.2728	-2.63912	0	
2.2860	-26.9502	-3.83872	0	
2.2867	-27.2654	-1.99933	0	
2.2873	-8.61567	-2.31923	0	
2.2880	26.7401	-4.15861	0	
2.2887	53.6378	-2.31923	0	
2.2893	52.377	-1.07964	0	
2.2900	35.3032	-1.99933	0	
2.2907	19.4378	-1.71943	0	
2.2913	-4.04516	-2.31923	0	
2.2920	-31.5207	-4.43852	0	
2.2927	-31.836	-1.71943	0	
2.2933	-4.36037	1.03965	0	
2.2940	17.5991	-1.99933	0	
2.2947	21.5917	-3.23892	0	
2.2953	20.6461	-0.199933	0	
2.2960	19.4378	-0.199933	0	
2.2967	16.706	-0.799733	0	
2.2973	6.93456	1.03965	0	
2.2980	-13.8166	1.63945	0	
2.2987	-28.7889	1.95935	0	
2.2993	-15.3401	3.15895	0	
2.3000	15.1825	3.47884	0	
2.3007	42.3429	3.79873	0	
2.3013	57.8931	3.47884	0	
2.3020	46.283	0.11996	0	
2.3027	8.77327	-0.799733	0	
2.3033	-15.9705	0.71976	0	
2.3040	-15.3401	0.439853	0	
2.3047	-17.1788	1.03965	0	
2.3053	-21.1714	1.03965	0	
2.3060	-14.447	-1.07964	0	
2.3067	-9.8765	0.439853	0	
2.3073	-9.8765	4.71842	0	
2.3080	-7.09217	3.79873	0	
2.3087	-10.1917	2.23925	0	
2.3093	-16.2857	3.47884	0	
2.3100	-16.2857	1.95935	0	
2.3107	-20.8562	1.03965	0	
2.3113	-31.836	4.71842	0	
2.3120	-29.9972	4.71842	0	
2.3127	-19.6479	1.95935	0	
2.3133	-13.2387	3.79873	0	
2.3140	-4.99078	6.23792	0	
2.3147	7.51244	5.31822	0	
2.3153	19.4378	4.71842	0	
2.3160	29.2092	6.51782	0	
2.3167	28.5788	7.43752	0	
2.3173	17.5991	5.59813	0	
2.3180	10.2968	4.39853	0	
2.3187	4.15023	5.91802	0	
2.3193	-15.3401	5.91802	0	
2.3200	-32.4664	2.87904	0	
2.3207	-26.9502	3.79873	0	
2.3213	-12.2931	7.43752	0	
2.3220	-7.09217	6.51782	0	
2.3227	-6.51429	3.79873	0	
2.3233	-4.99078	3.47884	0	
2.3240	-3.46728	1.63945	0	
2.3247	-1.31336	0.71976	0	
2.3253	1.10323	2.87904	0	
2.3260	2.94194	1.03965	0	
2.3267	5.72627	-2.91903	0	
2.3273	8.14286	-2.31923	0	
2.3280	6.30415	0.71976	0	
2.3287	4.15023	1.03965	0	
2.3293	4.46544	0.71976	0	
2.3300	2.94194	1.95935	0	
2.3307	2.04885	2.87904	0	
2.3313	6.61936	3.79873	0	
2.3320	18.5447	4.07864	0	
2.3327	39.2959	3.15895	0	
2.3333	62.4636	2.87904	0	
2.3340	67.0341	2.87904	0	
2.3347	49.6452	1.95935	0	
2.3353	26.4774	1.35955	0	
2.3360	0.210138	0.71976	0	
2.3367	-29.1042	-1.07964	0	
2.3373	-39.1383	0.11996	0	
2.3380	-20.2258	4.07864	0	
2.3387	2.62673	4.39853	0	
2.3393	7.24977	1.63945	0	
2.3400	3.57235	2.23925	0	
2.3407	0.840553	4.71842	0	
2.3413	-9.8765	4.07864	0	
2.3420	-27.2654	1.95935	0	
2.3427	-29.1042	2.23925	0	
2.3433	-15.6553	1.03965	0	
2.3440	-11.4	-3.23892	0	
2.3447	-15.9705	-4.43852	0	
2.3453	-10.7696	-1.07964	0	
2.3460	-7.09217	1.95935	0	
2.3467	-22.6949	1.95935	0	
2.3473	-45.5475	1.03965	0	
2.3480	-55.0037	1.63945	0	
2.3487	-48.9097	3.47884	0	
2.3493	-37.3521	1.95935	0	
2.3500	-24.7963	-1.07964	0	
2.3507	-11.0848	-0.47984	0	
2.3513	-0.998157	0.439853	0	
2.3520	4.78065	-1.71943	0	
2.3527	15.4452	-0.199933	0	
2.3533	28.2636	2.23925	0	
2.3540	32.2562	0.439853	0	
2.3547	29.5244	0.11996	0	
2.3553	24.0083	1.95935	0	
2.3560	16.9687	-0.47984	0	
2.3567	11.1899	-1.07964	0	
2.3573	-2.83687	2.87904	0	
2.3580	-26.635	4.39853	0	
2.3587	-31.5207	2.87904	0	
2.3593	-6.82949	1.63945	0	
2.3600	19.4378	-0.799733	0	
2.3607	29.7871	-2.63912	0	
2.3613	34.988	-3.83872	0	
2.3620	38.6654	-3.83872	0	
2.3627	32.2562	-1.71943	0	
2.3633	13.659	-0.799733	0	
2.3640	-6.51429	-3.23892	0	
2.3647	-25.7419	-4.43852	0	
2.3653	-49.5401	-2.91903	0	
2.3660	-66.2986	-0.799733	0	
2.3667	-62.0433	-0.47984	0	
2.3673	-46.8083	-3.55881	0	
2.3680	-32.1512	-5.6781	0	
2.3687	-14.1318	-4.43852	0	
2.3693	10.5594	-4.75841	0	
2.3700	46.9134	-3.83872	0	
2.3707	85.3687	-0.799733	0	
2.3713	94.1945	-1.71943	0	
2.3720	71.2894	-3.55881	0	
2.3727	46.9134	-1.39953	0	
2.3733	23.1152	-1.71943	0	
2.3740	-13.8166	-3.23892	0	
2.3747	-42.5005	-1.39953	0	
2.3753	-34.883	-2.31923	0	
2.3760	-7.72258	-4.75841	0	
2.3767	2.62673	-2.63912	0	
2.3773	-8.03779	-1.71943	0	
2.3780	-19.0175	-2.91903	0	
2.3787	-23.2728	0.11996	0	
2.3793	-28.7889	1.35955	0	
2.3800	-34.5677	-1.71943	0	
2.3807	-29.9972	-0.799733	0	
2.3813	-15.6553	-0.799733	0	
2.3820	-6.19908	-5.6781	0	
2.3827	-4.99078	-6.5978	0	
2.3833	-2.83687	-2.31923	0	
2.3840	-0.105069	-1.71943	0	
2.3847	-2.20645	-4.75841	0	
2.3853	-2.20645	-7.1976	0	
2.3860	3.88756	-8.11729	0	
2.3867	8.77327	-7.51749	0	
2.3873	15.7604	-6.2779	0	
2.3880	26.7401	-6.2779	0	
2.3887	32.2562	-6.5978	0	
2.3893	33.1493	-6.2779	0	
2.3900	36.1963	-5.35821	0	
2.3907	34.988	-4.43852	0	
2.3913	26.7401	-5.0783	0	
2.3920	16.9687	-6.5978	0	
2.3927	1.10323	-6.8777	0	
2.3933	-26.635	-5.998	0	
2.3940	-52.9023	-5.35821	0	
2.3947	-57.1576	-5.6781	0	
2.3953	-39.1383	-5.35821	0	
2.3960	-22.0645	-3.55881	0	
2.3967	-19.6479	-2.31923	0	
2.3973	-19.6479	-2.63912	0	
2.3980	-12.6083	-2.91903	0	
2.3987	1.73364	-5.35821	0	
2.3993	23.6931	-7.1976	0	
2.4000	44.4442	-4.43852	0	
2.4007	50.8535	-1.07964	0	
2.4013	45.3899	-1.71943	0	
2.4020	31.0479	-3.23892	0	
2.4027	10.5594	-2.63912	0	
2.4033	-0.420277	-1.39953	0	
2.4040	0.840553	-1.71943	0	
2.4047	3.88756	-2.31923	0	
2.4053	10.2968	-1.71943	0	
2.4060	16.706	-0.199933	0	
2.4067	11.1899	0.439853	0	
2.4073	5.41106	0.11996	0	
2.4080	8.45807	-0.199933	0	
2.4087	11.8203	-1.07964	0	
2.4093	12.1355	-2.63912	0	
2.4100	13.9217	-2.31923	0	
2.4107	16.3908	0.71976	0	
2.4113	17.5991	1.95935	0	
2.4120	12.7134	-0.47984	0	
2.4127	6.61936	-1.39953	0	
2.4133	9.03595	1.03965	0	
2.4140	13.9217	1.63945	0	
2.4147	18.5447	1.35955	0	
2.4153	29.5244	3.79873	0	
2.4160	30.7327	5.31822	0	
2.4167	14.8673	2.87904	0	
2.4173	5.72627	0.439853	0	
2.4180	2.36406	0.439853	0	
2.4187	-14.7622	1.35955	0	
2.4193	-36.7217	1.95935	0	
2.4200	-52.9023	1.35955	0	
2.4207	-62.0433	0.11996	0	
2.4213	-50.7484	-0.799733	0	
2.4220	-27.2654	0.11996	0	
2.4227	-15.0249	1.63945	0	
2.4233	-4.99078	1.95935	0	
2.4240	15.1825	1.03965	0	
2.4247	30.4175	0.11996	0	
2.4253	29.7871	0.11996	0	
2.4260	15.4452	1.95935	0	
2.4267	-7.72258	2.55915	0	
2.4273	-27.8433	0.439853	0	
2.4280	-40.6618	1.03965	0	
2.4287	-50.7484	3.79873	0	
2.4293	-51.694	1.95935	0	
2.4300	-38.8756	-1.39953	0	
2.4307	-20.541	0.71976	0	
2.4313	-4.67558	2.55915	0	
2.4320	5.98894	-0.799733	0	
2.4327	12.7134	-2.31923	0	
2.4333	18.8074	0.439853	0	
2.4340	24.6387	1.63945	0	
2.4347	25.5318	0.11996	0	
2.4353	24.3235	-0.799733	0	
2.4360	26.4774	-3.23892	0	
2.4367	28.2636	-5.0783	0	
2.4373	24.0083	-2.91903	0	
2.4380	17.5991	-0.799733	0	
2.4387	15.7604	-2.63912	0	
2.4393	18.5447	-3.55881	0	
2.4400	18.2295	-2.31923	0	
2.4407	3.88756	-2.31923	0	
2.4413	-20.8562	-2.63912	0	
2.4420	-34.5677	-2.63912	0	
2.4427	-40.3991	-3.55881	0	
2.4433	-60.2046	-5.0783	0	
2.4440	-71.8148	-2.91903	0	
2.4447	-44.6544	-0.799733	0	
2.4453	-4.04516	-0.799733	0	
2.4460	15.4452	-0.799733	0	
2.4467	18.5447	-0.47984	0	
2.4473	20.6461	-0.799733	0	
2.4480	25.847	-0.199933	0	
2.4487	21.8544	0.439853	0	
2.4493	-4.67558	-0.799733	0	
2.4500	-36.4065	-1.07964	0	
2.4507	-43.1309	-0.799733	0	
2.4513	-36.4065	-1.71943	0	
2.4520	-35.776	-1.99933	0	
2.4527	-31.5207	-0.799733	0	
2.4533	-19.0175	-2.63912	0	
2.4540	-10.1917	-3.55881	0	
2.4547	-1.31336	1.03965	0	
2.4553	8.45807	3.79873	0	
2.4560	9.35115	1.95935	0	
2.4567	3.57235	0.439853	0	
2.4573	-4.36037	1.03965	0	
2.4580	-16.6009	2.23925	0	
2.4587	-25.4267	4.71842	0	
2.4593	-24.7963	3.15895	0	
2.4600	-18.3871	-1.07964	0	
2.4607	-0.682949	-1.39953	0	
2.4613	24.0083	2.23925	0	
2.4620	39.2959	4.71842	0	
2.4627	46.5982	5.91802	0	
2.4633	48.7521	5.31822	0	
2.4640	30.4175	3.15895	0	
2.4647	-7.72258	2.87904	0	
2.4653	-38.5604	2.87904	0	
2.4660	-47.3862	1.03965	0	
2.4667	-36.4065	-0.799733	0	
2.4673	-20.541	-1.71943	0	
2.4680	-14.447	-2.63912	0	
2.4687	-11.7152	-1.99933	0	
2.4693	-3.46728	-0.47984	0	
2.4700	2.94194	-1.71943	0	
2.4707	6.93456	-2.91903	0	
2.4713	12.1355	0.11996	0	
2.4720	12.1355	3.79873	0	
2.4727	11.5051	2.87904	0	
2.4733	19.4378	1.95935	0	
2.4740	26.4774	1.95935	0	
2.4747	25.2166	1.03965	0	
2.4753	22.1696	1.35955	0	
2.4760	17.5991	2.87904	0	
2.4767	8.45807	2.87904	0	
2.4773	2.04885	3.15895	0	
2.4780	-0.420277	2.87904	0	
2.4787	-5.56866	0.439853	0	
2.4793	-11.0848	-1.71943	0	
2.4800	-8.93088	-1.99933	0	
2.4807	-2.20645	-1.39953	0	
2.4813	2.04885	-0.47984	0	
2.4820	3.88756	-0.799733	0	
2.4827	3.57235	0.11996	0	
2.4833	-1.31336	1.03965	0	
2.4840	-5.30599	-0.799733	0	
2.4847	-5.30599	-2.63912	0	
2.4853	-5.30599	-1.07964	0	
2.4860	-0.105069	-1.07964	0	
2.4867	17.9143	-2.91903	0	
2.4873	45.9678	-1.39953	0	
2.4880	74.6516	-1.07964	0	
2.4887	84.4231	-3.55881	0	
2.4893	61.5705	-1.71943	0	
2.4900	29.5244	0.439853	0	
2.4907	12.3982	-1.39953	0	
2.4913	-4.36037	-1.39953	0	
2.4920	-27.5807	-0.799733	0	
2.4927	-27.8433	-3.83872	0	
2.4933	-4.99078	-2.91903	0	
2.4940	2.94194	3.15895	0	
2.4947	-10.1917	4.71842	0	
2.4953	-22.0645	1.95935	0	
2.4960	-28.7889	1.03965	0	
2.4967	-40.6618	-0.47984	0	
2.4973	-55.0037	-3.83872	0	
2.4980	-58.1032	-4.15861	0	
2.4987	-47.3862	-0.799733	0	
2.4993	-34.5677	0.11996	0	
2.5000	-26.635	-2.31923	0	
2.5007	-27.8433	-3.55881	0	
2.5013	-40.0839	-2.63912	0	
2.5020	-50.7484	-2.63912	0	
2.5027	-43.7613	-4.15861	0	
2.5033	-24.2184	-4.15861	0	
2.5040	0.210138	-2.63912	0	
2.5047	24.9539	-2.91903	0	
2.5053	39.5585	-4.15861	0	
2.5060	40.1889	-1.71943	0	
2.5067	26.7401	2.23925	0	
2.5073	2.62673	3.15895	0	
2.5080	-24.5336	1.63945	0	
2.5087	-48.3318	0.11996	0	
2.5093	-64.5125	-0.199933	0	
2.5100	-62.6737	0.11996	0	
2.5107	-43.4461	1.63945	0	
2.5113	-21.7493	2.87904	0	
2.5120	-2.83687	1.95935	0	
2.5127	12.7134	1.35955	0	
2.5133	24.6387	1.95935	0	
2.5140	38.3502	1.63945	0	
2.5147	50.5383	-2.63912	0	
2.5153	46.5982	-4.15861	0	
2.5160	32.2562	0.439853	0	
2.5167	28.2636	3.79873	0	
2.5173	35.9336	1.63945	0	
2.5180	38.9807	1.03965	0	
2.5187	29.7871	3.47884	0	
2.5193	15.1825	3.79873	0	
2.5200	4.78065	2.87904	0	
2.5207	5.72627	2.87904	0	
2.5213	23.1152	2.23925	0	
2.5220	51.4839	1.03965	0	
2.5227	74.389	1.03965	0	
2.5233	74.9668	-0.799733	0	
2.5240	52.377	-3.23892	0	
2.5247	24.3235	-1.71943	0	
2.5253	11.1899	0.439853	0	
2.5260	6.61936	-0.799733	0	
2.5267	-4.67558	-1.39953	0	
2.5273	-12.6083	0.71976	0	
2.5280	-6.82949	1.95935	0	
2.5287	-2.20645	0.439853	0	
2.5293	-6.82949	-1.71943	0	
2.5300	-7.40737	-2.63912	0	
2.5307	-3.46728	-0.799733	0	
2.5313	-11.0848	1.03965	0	
2.5320	-29.1042	-0.47984	0	
2.5327	-35.1982	-1.39953	0	
2.5333	-28.1585	0.11996	0	
2.5340	-21.4341	-1.39953	0	
2.5347	-14.7622	-3.55881	0	
2.5353	-0.998157	-1.71943	0	
2.5360	17.9143	0.11996	0	
2.5367	38.3502	-1.71943	0	
2.5373	53.0074	-2.63912	0	
2.5380	56.9475	-0.799733	0	
2.5387	51.4839	1.95935	0	
2.5393	28.2636	2.87904	0	
2.5400	-20.8562	0.439853	0	
2.5407	-73.6535	-2.63912	0	
2.5413	-97.4516	-1.07964	0	
2.5420	-85.8415	2.87904	0	
2.5427	-58.9963	1.95935	0	
2.5433	-38.2452	0.11996	0	
2.5440	-23.588	0.11996	0	
2.5447	-1.62857	0.439853	0	
2.5453	22.1696	0.11996	0	
2.5460	33.1493	1.35955	0	
2.5467	33.7797	2.23925	0	
2.5473	28.5788	0.11996	0	
2.5480	12.1355	-1.71943	0	
2.5487	-10.7696	0.11996	0	
2.5493	-26.9502	0.11996	0	
2.5500	-29.682	-2.63912	0	
2.5507	-24.5336	-1.39953	0	
2.5513	-22.6949	1.95935	0	
2.5520	-26.3198	-0.799733	0	
2.5527	-28.1585	-5.0783	0	
2.5533	-26.9502	-2.31923	0	
2.5540	-25.4267	0.11996	0	
2.5547	-21.7493	-2.31923	0	
2.5553	-13.8166	-2.63912	0	
2.5560	5.41106	-2.63912	0	
2.5567	36.5115	-7.1976	0	
2.5573	61.2553	-8.71709	0	
2.5580	67.6645	-3.55881	0	
2.5587	63.6719	-1.39953	0	
2.5593	45.0747	-4.43852	0	
2.5600	1.10323	-4.15861	0	
2.5607	-44.6544	-1.71943	0	
2.5613	-61.4129	-4.43852	0	
2.5620	-55.6341	-8.43718	0	
2.5627	-44.9696	-5.6781	0	
2.5633	-31.836	-1.71943	0	
2.5640	-19.3327	-2.63912	0	
2.5647	-16.6009	-2.63912	0	
2.5653	-14.447	-0.799733	0	
2.5660	2.36406	-1.07964	0	
2.5667	19.1226	-2.63912	0	
2.5673	16.3908	-2.63912	0	
2.5680	9.03595	-3.55881	0	
2.5687	10.8747	-2.63912	0	
2.5693	10.8747	0.11996	0	
2.5700	6.61936	-0.799733	0	
2.5707	6.61936	-3.83872	0	
2.5713	5.41106	-3.83872	0	
2.5720	2.04885	-1.71943	0	
2.5727	5.72627	-0.199933	0	
2.5733	10.8747	1.03965	0	
2.5740	13.659	2.55915	0	
2.5747	17.5991	2.87904	0	
2.5753	18.8074	1.95935	0	
2.5760	15.7604	0.11996	0	
2.5767	17.5991	-0.47984	0	
2.5773	23.6931	0.439853	0	
2.5780	31.3631	1.03965	0	
2.5787	43.8664	1.03965	0	
2.5793	57.8931	1.35955	0	
2.5800	61.5705	0.71976	0	
2.5807	46.9134	-1.71943	0	
2.5813	23.3779	-1.07964	0	
2.5820	-1.31336	1.95935	0	
2.5827	-31.2055	1.63945	0	
2.5833	-59.6267	-0.47984	0	
2.5840	-63.2516	0.439853	0	
2.5847	-48.9097	1.03965	0	
2.5853	-44.3392	0.11996	0	
2.5860	-44.6544	1.03965	0	
2.5867	-35.1982	0.11996	0	
2.5873	-25.4267	-3.23892	0	
2.5880	-21.7493	-2.91903	0	
2.5887	-16.8636	-1.39953	0	
2.5893	-9.56129	-1.99933	0	
2.5900	-0.682949	1.35955	0	
2.5907	6.93456	4.39853	0	
2.5913	9.03595	-0.47984	0	
2.5920	7.51244	-1.39953	0	
2.5927	8.14286	4.71842	0	
2.5933	10.2968	4.39853	0	
2.5940	11.1899	-0.47984	0	
2.5947	6.61936	1.03965	0	
2.5953	-2.52166	2.87904	0	
2.5960	-8.03779	1.95935	0	
2.5967	-7.09217	2.55915	0	
2.5973	-0.420277	3.47884	0	
2.5980	15.7604	3.47884	0	
2.5987	34.988	3.79873	0	
2.5993	44.7595	1.63945	0	
2.6000	45.9678	0.11996	0	
2.6007	40.5042	2.23925	0	
2.6013	31.3631	1.95935	0	
2.6020	23.3779	0.11996	0	
2.6027	6.61936	1.35955	0	
2.6033	-23.588	1.95935	0	
2.6040	-45.2848	1.35955	0	
2.6047	-52.5871	1.95935	0	
2.6053	-61.4129	0.11996	0	
2.6060	-63.882	-2.31923	0	
2.6067	-45.5475	-1.39953	0	
2.6073	-27.2654	-0.799733	0	
2.6080	-23.9032	-1.39953	0	
2.6087	-26.0571	-1.07964	0	
2.6093	-24.5336	-2.31923	0	
2.6100	-20.8562	-3.55881	0	
2.6107	-14.7622	-1.99933	0	
2.6113	-2.20645	0.71976	0	
2.6120	15.7604	1.03965	0	
2.6127	26.1622	-1.39953	0	
2.6133	24.0083	-3.55881	0	
2.6140	17.9143	-2.31923	0	
2.6147	13.0286	-2.63912	0	
2.6153	9.35115	-3.23892	0	
2.6160	10.8747	-1.07964	0	
2.6167	12.1355	-1.39953	0	
2.6173	12.1355	-3.55881	0	
2.6180	15.1825	0.71976	0	
2.6187	15.7604	3.79873	0	
2.6193	8.45807	-0.799733	0	
2.6200	1.73364	-2.63912	0	
2.6207	-1.62857	0.71976	0	
2.6213	0.210138	0.11996	0	
2.6220	9.03595	-0.47984	0	
2.6227	18.8074	1.95935	0	
2.6233	40.5042	2.87904	0	
2.6240	81.3761	3.15895	0	
2.6247	108.221	3.79873	0	
2.6253	96.9263	2.23925	0	
2.6260	74.389	2.87904	0	
2.6267	56.0544	5.31822	0	
2.6273	22.8	5.59813	0	
2.6280	-19.3327	4.99833	0	
2.6287	-45.5475	3.79873	0	
2.6293	-54.741	2.87904	0	
2.6300	-58.3659	1.63945	0	
2.6307	-63.882	-0.799733	0	
2.6313	-68.4525	-0.799733	0	
2.6320	-58.1032	1.95935	0	
2.6327	-33.9899	1.35955	0	
2.6333	-12.6083	-1.71943	0	
2.6340	5.72627	1.03965	0	
2.6347	18.5447	4.39853	0	
2.6353	9.03595	1.95935	0	
2.6360	-12.9235	0.11996	0	
2.6367	-17.494	0.439853	0	
2.6373	-9.8765	-0.199933	0	
2.6380	-4.67558	-0.199933	0	
2.6387	3.25714	-0.47984	0	
2.6393	16.3908	-0.799733	0	
2.6400	26.4774	-0.47984	0	
2.6407	27.6857	-0.799733	0	
2.6413	15.7604	-2.63912	0	
2.6420	-0.682949	-0.799733	0	
2.6427	-12.2931	1.03965	0	
2.6433	-18.7023	0.11996	0	
2.6440	-15.3401	-1.39953	0	
2.6447	-5.56866	-3.23892	0	
2.6453	-11.0848	-3.55881	0	
2.6460	-29.4194	1.03965	0	
2.6467	-43.1309	1.95935	0	
2.6473	-51.0636	-1.71943	0	
2.6480	-45.2848	-0.799733	0	
2.6487	-20.2258	2.87904	0	
2.6493	0.525346	1.63945	0	
2.6500	4.15023	1.63945	0	
2.6507	5.72627	2.87904	0	
2.6513	9.35115	-0.47984	0	
2.6520	11.8203	-2.31923	0	
2.6527	10.8747	0.439853	0	
2.6533	5.09585	1.63945	0	
2.6540	-0.420277	2.23925	0	
2.6547	-2.83687	3.79873	0	
2.6553	-10.1917	2.23925	0	
2.6560	-13.5014	0.439853	0	
2.6567	-2.20645	1.35955	0	
2.6573	7.51244	0.11996	0	
2.6580	2.94194	-1.39953	0	
2.6587	-3.46728	0.71976	0	
2.6593	-4.67558	0.71976	0	
2.6600	-6.19908	-2.91903	0	
2.6607	-6.51429	-3.55881	0	
2.6613	-3.46728	-2.63912	0	
2.6620	-1.62857	-3.83872	0	
2.6627	-1.94378	-3.55881	0	
2.6633	-1.31336	-1.71943	0	
2.6640	0.840553	-2.31923	0	
2.6647	6.93456	-3.83872	0	
2.6653	25.847	-3.55881	0	
2.6660	51.1687	-3.23892	0	
2.6667	61.5705	-3.83872	0	
2.6673	49.6452	-4.43852	0	
2.6680	25.5318	-3.55881	0	
2.6687	-3.46728	-3.55881	0	
2.6693	-33.6747	-3.55881	0	
2.6700	-45.2848	-1.71943	0	
2.6707	-26.635	0.11996	0	
2.6713	1.10323	-2.63912	0	
2.6720	8.45807	-2.63912	0	
2.6727	-11.9779	1.95935	0	
2.6733	-37.93	2.55915	0	
2.6740	-41.9226	0.439853	0	
2.6747	-25.1115	1.03965	0	
2.6753	-15.3401	1.03965	0	
2.6760	-13.8166	0.11996	0	
2.6767	-1.62857	1.95935	0	
2.6773	18.5447	1.95935	0	
2.6780	32.2562	0.11996	0	
2.6787	34.988	1.03965	0	
2.6793	25.5318	0.11996	0	
2.6800	12.3982	-1.39953	0	
2.6807	2.04885	1.03965	0	
2.6813	-18.1244	1.03965	0	
2.6820	-36.7217	-1.71943	0	
2.6827	-26.635	-0.799733	0	
2.6833	-5.30599	0.439853	0	
2.6840	-2.52166	-1.99933	0	
2.6847	-7.09217	-3.83872	0	
2.6853	-2.83687	-3.55881	0	
2.6860	2.04885	-2.63912	0	
2.6867	5.41106	-1.07964	0	
2.6873	9.66636	-0.799733	0	
2.6880	9.98157	-1.71943	0	
2.6887	6.61936	-1.71943	0	
2.6893	5.09585	-0.799733	0	
2.6900	5.72627	-1.39953	0	
2.6907	7.51244	0.11996	0	
2.6913	9.66636	1.03965	0	
2.6920	8.14286	-1.39953	0	
2.6927	5.09585	-1.39953	0	
2.6933	7.24977	0.11996	0	
2.6940	14.2369	-0.799733	0	
2.6947	23.3779	-0.799733	0	
2.6953	29.5244	1.03965	0	
2.6960	29.2092	0.11996	0	
2.6967	25.5318	-0.47984	0	
2.6973	21.2765	1.63945	0	
2.6980	15.4452	1.63945	0	
2.6987	9.35115	0.11996	0	
2.6993	2.36406	1.03965	0	
2.7000	-8.03779	1.03965	0	
2.7007	-14.7622	-0.47984	0	
2.7013	-10.7696	1.35955	0	
2.7020	-2.20645	2.87904	0	
2.7027	0.840553	-0.199933	0	
2.7033	-1.31336	-1.39953	0	
2.7040	-2.20645	2.87904	0	
2.7047	-3.15207	3.15895	0	
2.7053	-6.19908	-1.71943	0	
2.7060	-4.99078	-3.23892	0	
2.7067	4.15023	-1.39953	0	
2.7073	11.5051	-0.199933	0	
2.7080	11.8203	0.439853	0	
2.7087	12.1355	1.35955	0	
2.7093	15.4452	1.03965	0	
2.7100	16.9687	1.03965	0	
2.7107	16.3908	0.11996	0	
2.7113	12.7134	-1.39953	0	
2.7120	6.61936	-2.63912	0	
2.7127	0.840553	-2.63912	0	
2.7133	-6.51429	-1.71943	0	
2.7140	-19.3327	-1.07964	0	
2.7147	-30.9429	0.439853	0	
2.7153	-31.2055	1.63945	0	
2.7160	-20.541	0.11996	0	
2.7167	-3.15207	-1.07964	0	
2.7173	16.3908	0.439853	0	
2.7180	28.894	2.87904	0	
2.7187	27.6857	1.03965	0	
2.7193	20.0682	-2.63912	0	
2.7200	16.0756	-2.63912	0	
2.7207	12.1355	-0.799733	0	
2.7213	-1.94378	-0.799733	0	
2.7220	-15.0249	-0.799733	0	
2.7227	-6.19908	1.03965	0	
2.7233	25.5318	-0.47984	0	
2.7240	58.2083	-3.55881	0	
2.7247	66.4562	-2.63912	0	
2.7253	38.9807	-1.39953	0	
2.7260	-2.52166	-2.91903	0	
2.7267	-30.9429	-1.71943	0	
2.7273	-55.6341	-0.799733	0	
2.7280	-88.5733	-4.43852	0	
2.7287	-103.546	-3.83872	0	
2.7293	-91.3576	1.03965	0	
2.7300	-82.1641	0.11996	0	
2.7307	-81.5862	-3.23892	0	
2.7313	-69.3456	-0.799733	0	
2.7320	-48.5945	-0.47984	0	
2.7327	-33.6747	-5.0783	0	
2.7333	-24.7963	-4.43852	0	
2.7340	-18.3871	0.439853	0	
2.7347	-13.5014	1.95935	0	
2.7353	-8.93088	0.11996	0	
2.7360	-5.30599	-1.07964	0	
2.7367	-3.46728	-0.47984	0	
2.7373	-2.52166	1.03965	0	
2.7380	3.88756	1.03965	0	
2.7387	17.5991	1.03965	0	
2.7393	26.4774	3.79873	0	
2.7400	21.5917	4.99833	0	
2.7407	12.3982	2.87904	0	
2.7413	8.77327	1.03965	0	
2.7420	7.82765	1.03965	0	
2.7427	6.93456	-0.799733	0	
2.7433	10.5594	1.03965	0	
2.7440	18.5447	5.59813	0	
2.7447	18.2295	4.39853	0	
2.7453	3.88756	-0.47984	0	
2.7460	-8.93088	-1.71943	0	
2.7467	-6.82949	0.11996	0	
2.7473	9.98157	2.55915	0	
2.7480	37.4572	3.15895	0	
2.7487	62.4636	0.439853	0	
2.7493	65.8258	-1.99933	0	
2.7500	52.6922	-0.47984	0	
2.7507	42.6055	1.35955	0	
2.7513	28.0009	1.63945	0	
2.7520	-1.62857	0.71976	0	
2.7527	-28.1585	0.11996	0	
2.7533	-34.2525	0.71976	0	
2.7540	-23.2728	-0.199933	0	
2.7547	-6.19908	-3.55881	0	
2.7553	-1.62857	-2.91903	0	
2.7560	-14.447	-0.799733	0	
2.7567	-20.2258	-1.99933	0	
2.7573	-9.8765	-2.31923	0	
2.7580	-10.7696	-0.47984	0	
2.7587	-23.9032	-2.91903	0	
2.7593	-19.6479	-5.0783	0	
2.7600	-0.682949	-1.71943	0	
2.7607	7.24977	-1.07964	0	
2.7613	3.25714	-4.15861	0	
2.7620	-0.682949	-5.35821	0	
2.7627	-3.78249	-4.43852	0	
2.7633	-8.61567	-3.55881	0	
2.7640	-14.1318	-3.55881	0	
2.7647	-20.8562	-3.83872	0	
2.7653	-29.9972	-3.55881	0	
2.7660	-45.2848	-1.71943	0	
2.7667	-60.2046	-1.71943	0	
2.7673	-58.1032	-2.63912	0	
2.7680	-37.3521	-2.31923	0	
2.7687	-17.1788	-2.31923	0	
2.7693	-6.19908	-2.63912	0	
2.7700	4.78065	-1.99933	0	
2.7707	22.4848	-1.07964	0	
2.7713	41.3972	-1.71943	0	
2.7720	52.377	-3.83872	0	
2.7727	48.1217	-5.0783	0	
2.7733	24.9539	-1.71943	0	
2.7740	-3.46728	2.87904	0	
2.7747	-17.1788	3.47884	0	
2.7753	-14.7622	1.35955	0	
2.7760	-8.93088	1.03965	0	
2.7767	-3.78249	0.11996	0	
2.7773	1.10323	-1.39953	0	
2.7780	2.04885	-0.47984	0	
2.7787	0.525346	0.11996	0	
2.7793	2.62673	-2.63912	0	
2.7800	12.1355	-1.99933	0	
2.7807	25.5318	0.11996	0	
2.7813	31.941	-2.31923	0	
2.7820	25.847	-4.43852	0	
2.7827	18.5447	-2.31923	0	
2.7833	18.5447	-2.31923	0	
2.7840	16.9687	-3.55881	0	
2.7847	13.3438	-3.83872	0	
2.7853	12.7134	-5.35821	0	
2.7860	11.8203	-5.35821	0	
2.7867	9.98157	-4.43852	0	
2.7873	11.5051	-4.75841	0	
2.7880	10.2968	-4.43852	0	
2.7887	4.78065	-1.99933	0	
2.7893	6.30415	-3.55881	0	
2.7900	13.0286	-4.43852	0	
2.7907	15.7604	-2.91903	0	
2.7913	19.4378	-4.15861	0	
2.7920	27.0553	-4.15861	0	
2.7927	28.2636	-0.799733	0	
2.7933	24.3235	-1.71943	0	
2.7940	23.3779	-4.15861	0	
2.7947	20.9613	-1.71943	0	
2.7953	13.9217	0.439853	0	
2.7960	6.61936	-1.07964	0	
2.7967	-0.420277	-1.07964	0	
2.7973	-3.46728	-0.199933	0	
2.7980	1.10323	-3.23892	0	
2.7987	5.98894	-5.35821	0	
2.7993	4.78065	-2.63912	0	
2.8000	-6.19908	-0.199933	0	
2.8007	-23.0101	-0.799733	0	
2.8013	-31.836	-0.799733	0	
2.8020	-26.3198	0.71976	0	
2.8027	-13.5014	1.03965	0	
2.8033	5.98894	-0.199933	0	
2.8040	26.1622	-1.71943	0	
2.8047	35.9336	-2.31923	0	
2.8053	37.7198	-0.47984	0	
2.8060	38.6654	1.03965	0	
2.8067	37.7198	-0.199933	0	
2.8073	37.7198	1.03965	0	
2.8080	38.3502	2.55915	0	
2.8087	27.6857	1.95935	0	
2.8093	1.10323	1.95935	0	
2.8100	-32.729	3.15895	0	
2.8107	-53.4802	1.95935	0	
2.8113	-42.8157	1.63945	0	
2.8120	-22.0645	2.87904	0	
2.8127	-23.588	2.23925	0	
2.8133	-34.5677	2.87904	0	
2.8140	-34.5677	3.79873	0	
2.8147	-34.5677	3.47884	0	
2.8153	-33.3595	4.39853	0	
2.8160	-19.0175	3.47884	0	
2.8167	-1.31336	0.11996	0	
2.8173	6.61936	-0.47984	0	
2.8180	-3.78249	0.439853	0	
2.8187	-28.7889	-0.47984	0	
2.8193	-42.8157	1.95935	0	
2.8200	-40.0839	4.99833	0	
2.8207	-39.1383	2.87904	0	
2.8213	-35.5134	1.95935	0	
2.8220	-17.8092	3.79873	0	
2.8227	-6.19908	2.55915	0	
2.8233	-10.7696	-1.07964	0	
2.8240	-17.1788	-1.71943	0	
2.8247	-23.0101	-1.39953	0	
2.8253	-26.0571	-2.63912	0	
2.8260	-19.0175	-5.35821	0	
2.8267	-9.56129	-5.35821	0	
2.8273	-7.09217	-3.83872	0	
2.8280	-6.19908	-5.35821	0	
2.8287	-2.52166	-7.1976	0	
2.8293	-0.682949	-3.83872	0	
2.8300	-1.62857	0.11996	0	
2.8307	-0.105069	0.11996	0	
2.8313	1.73364	-1.71943	0	
2.8320	2.94194	-2.91903	0	
2.8327	4.78065	-2.63912	0	
2.8333	4.78065	-1.39953	0	
2.8340	2.04885	-0.199933	0	
2.8347	4.46544	0.71976	0	
2.8353	9.98157	0.11996	0	
2.8360	12.1355	-1.71943	0	
2.8367	13.9217	-1.39953	0	
2.8373	15.7604	0.11996	0	
2.8380	11.8203	-0.47984	0	
2.8387	9.03595	-1.71943	0	
2.8393	11.5051	-1.39953	0	
2.8400	13.0286	-2.31923	0	
2.8407	13.9217	-2.31923	0	
2.8413	14.8673	0.439853	0	
2.8420	11.1899	1.95935	0	
2.8427	5.41106	1.03965	0	
2.8433	1.10323	1.03965	0	
2.8440	-3.46728	1.03965	0	
2.8447	-5.88387	0.71976	0	
2.8453	-2.52166	0.71976	0	
2.8460	0.840553	0.11996	0	
2.8467	8.45807	-0.799733	0	
2.8473	31.6258	0.71976	0	
2.8480	61.8332	1.03965	0	
2.8487	70.7115	-0.799733	0	
2.8493	49.6452	0.11996	0	
2.8500	21.8544	2.87904	0	
2.8507	0.210138	2.87904	0	
2.8513	-24.2184	2.87904	0	
2.8520	-40.3991	4.07864	0	
2.8527	-23.9032	3.79873	0	
2.8533	9.03595	2.23925	0	
2.8540	16.0756	3.47884	0	
2.8547	-6.82949	3.79873	0	
2.8553	-31.2055	1.63945	0	
2.8560	-39.1383	1.03965	0	
2.8567	-35.5134	1.95935	0	
2.8573	-30.6277	2.55915	0	
2.8580	-28.4737	1.63945	0	
2.8587	-26.635	1.03965	0	
2.8593	-25.1115	1.95935	0	
2.8600	-19.0175	1.35955	0	
2.8607	-5.30599	0.11996	0	
2.8613	5.72627	1.03965	0	
2.8620	6.93456	0.71976	0	
2.8627	4.46544	-2.63912	0	
2.8633	-1.62857	-2.63912	0	
2.8640	-11.4	0.71976	0	
2.8647	-18.7023	0.11996	0	
2.8653	-26.3198	-1.39953	0	
2.8660	-32.729	1.03965	0	
2.8667	-25.4267	2.23925	0	
2.8673	-9.8765	0.11996	0	
2.8680	-1.62857	-1.07964	0	
2.8687	1.73364	0.11996	0	
2.8693	2.94194	2.55915	0	
2.8700	-1.62857	4.39853	0	
2.8707	-8.93088	3.15895	0	
2.8713	-15.0249	-1.07964	0	
2.8720	-20.8562	-5.0783	0	
2.8727	-21.1714	-3.23892	0	
2.8733	-10.7696	0.11996	0	
2.8740	7.24977	-0.799733	0	
2.8747	24.9539	-2.31923	0	
2.8753	29.2092	-0.47984	0	
2.8760	22.1696	1.03965	0	
2.8767	22.1696	0.71976	0	
2.8773	24.3235	0.71976	0	
2.8780	11.1899	-1.99933	0	
2.8787	-3.78249	-5.35821	0	
2.8793	-1.31336	-4.75841	0	
2.8800	9.03595	-4.43852	0	
2.8807	12.1355	-5.35821	0	
2.8813	6.93456	-5.0783	0	
2.8820	-0.682949	-5.35821	0	
2.8827	-2.83687	-6.5978	0	
2.8833	-0.105069	-5.6781	0	
2.8840	0.840553	-5.998	0	
2.8847	1.41843	-8.11729	0	
2.8853	4.78065	-6.5978	0	
2.8860	6.61936	-4.43852	0	
2.8867	6.61936	-5.35821	0	
2.8873	7.24977	-4.43852	0	
2.8880	6.61936	-3.55881	0	
2.8887	1.10323	-6.2779	0	
2.8893	-6.82949	-7.1976	0	
2.8900	-9.8765	-3.55881	0	
2.8907	-8.03779	-1.07964	0	
2.8913	-4.36037	0.11996	0	
2.8920	7.51244	1.63945	0	
2.8927	31.941	0.11996	0	
2.8933	56.6848	-1.39953	0	
2.8940	75.282	1.63945	0	
2.8947	77.1208	2.87904	0	
2.8953	52.377	-0.199933	0	
2.8960	22.1696	-0.799733	0	
2.8967	8.14286	1.63945	0	
2.8973	-6.19908	3.47884	0	
2.8980	-23.0101	5.31822	0	
2.8987	-16.2857	5.59813	0	
2.8993	3.88756	3.79873	0	
2.9000	3.88756	3.47884	0	
2.9007	-11.9779	4.71842	0	
2.9013	-25.1115	4.07864	0	
2.9020	-40.977	1.35955	0	
2.9027	-52.5871	-0.47984	0	
2.9033	-38.8756	1.03965	0	
2.9040	-16.2857	2.55915	0	
2.9047	-12.9235	1.35955	0	
2.9053	-15.0249	0.11996	0	
2.9060	-3.46728	1.95935	0	
2.9067	4.15023	3.79873	0	
2.9073	0.840553	3.79873	0	
2.9080	0.210138	1.95935	0	
2.9087	4.46544	1.95935	0	
2.9093	4.15023	4.71842	0	
2.9100	1.73364	5.59813	0	
2.9107	2.36406	4.39853	0	
2.9113	9.35115	4.07864	0	
2.9120	19.4378	3.47884	0	
2.9127	22.1696	1.35955	0	
2.9133	16.9687	1.63945	0	
2.9140	11.8203	2.55915	0	
2.9147	2.94194	1.95935	0	
2.9153	-16.2857	2.55915	0	
2.9160	-31.836	4.39853	0	
2.9167	-27.8433	5.31822	0	
2.9173	-18.1244	5.59813	0	
2.9180	-17.8092	4.71842	0	
2.9187	-15.6553	3.79873	0	
2.9193	-8.03779	5.31822	0	
2.9200	-10.1917	5.31822	0	
2.9207	-17.8092	2.55915	0	
2.9213	-21.7493	1.63945	0	
2.9220	-27.2654	1.03965	0	
2.9227	-26.9502	-0.47984	0	
2.9233	-16.2857	0.11996	0	
2.9240	-10.1917	1.63945	0	
2.9247	-1.31336	1.03965	0	
2.9253	19.4378	0.11996	0	
2.9260	23.1152	-1.71943	0	
2.9267	4.46544	-1.71943	0	
2.9273	-0.682949	-0.47984	0	
2.9280	4.15023	-1.71943	0	
2.9287	-6.51429	-3.55881	0	
2.9293	-16.6009	-1.99933	0	
2.9300	-7.09217	-1.99933	0	
2.9307	4.15023	-4.43852	0	
2.9313	10.5594	-3.83872	0	
2.9320	21.5917	-3.23892	0	
2.9327	34.6728	-2.91903	0	
2.9333	47.2286	-1.39953	0	
2.9340	56.9475	-1.71943	0	
2.9347	44.129	-2.91903	0	
2.9353	9.35115	-1.39953	0	
2.9360	-16.2857	-0.799733	0	
2.9367	-22.6949	-2.63912	0	
2.9373	-21.1714	-3.23892	0	
2.9380	-5.88387	-2.63912	0	
2.9387	25.5318	-3.55881	0	
2.9393	56.0544	-4.43852	0	
2.9400	67.9797	-5.6781	0	
2.9407	54.2157	-5.0783	0	
2.9413	31.6258	-1.71943	0	
2.9420	24.9539	-2.31923	0	
2.9427	20.3309	-4.75841	0	
2.9433	-5.88387	-3.23892	0	
2.9440	-25.7419	-2.91903	0	
2.9447	-20.2258	-7.1976	0	
2.9453	-24.5336	-7.1976	0	
2.9460	-48.3318	-4.43852	0	
2.9467	-55.0037	-5.35821	0	
2.9473	-38.2452	-5.998	0	
2.9480	-29.682	-5.0783	0	
2.9487	-36.7217	-3.83872	0	
2.9493	-45.8627	-2.63912	0	
2.9500	-52.9023	-3.83872	0	
2.9507	-51.0636	-5.998	0	
2.9513	-29.1042	-2.63912	0	
2.9520	2.36406	1.03965	0	
2.9527	15.7604	-1.71943	0	
2.9533	9.03595	-2.31923	0	
