0.0000	31.338	-0.40074	1
0.0007	20.3854	-0.734691	0	
0.0013	15.7738	-1.3358	0	
0.0020	15.4594	-3.47308	0	
0.0027	14.8829	-5.27641	0	
0.0033	22.2196	-2.53802	0	
0.0040	37.1549	-1.3358	0	
0.0047	48.4219	-2.87197	0	
0.0053	47.8454	-0.734691	0	
0.0060	34.3774	1.73654	0	
0.0067	5.08325	-1.93691	0	
0.0073	-35.7924	-5.27641	0	
0.0080	-67.5496	-3.74024	0	
0.0087	-73.6285	-3.47308	0	
0.0093	-60.5273	-3.47308	0	
0.0100	-44.3343	-0.40074	0	
0.0107	-32.124	-0.734691	0	
0.0113	-25.7307	-2.53802	0	
0.0120	-23.2677	1.40259	0	
0.0127	-16.2454	3.87382	0	
0.0133	-4.66401	0.20037	0	
0.0140	2.35821	-1.60296	0	
0.0147	2.35821	-0.40074	0	
0.0153	-0.104809	-0.40074	0	
0.0160	-4.34958	-0.0667901	0	
0.0167	-9.53764	2.07049	0	
0.0173	-11.0574	3.53987	0	
0.0180	-6.49817	3.87382	0	
0.0187	-0.104809	4.47493	0	
0.0193	2.98706	3.53987	0	
0.0200	2.35821	1.13543	0	
0.0207	4.82123	1.40259	0	
0.0213	14.2541	4.80888	0	
0.0220	24.0013	4.80888	0	
0.0227	25.5735	3.53987	0	
0.0233	23.1104	4.80888	0	
0.0240	23.4249	4.80888	0	
0.0247	23.1104	2.6716	0	
0.0253	14.2541	0.801481	0	
0.0260	1.1529	0.20037	0	
0.0267	-6.8126	1.73654	0	
0.0273	-12.0007	3.53987	0	
0.0280	-21.7479	2.6716	0	
0.0287	-25.4162	2.93876	0	
0.0293	-16.5599	4.47493	0	
0.0300	-5.55489	2.07049	0	
0.0307	5.08325	0.801481	0	
0.0313	17.608	4.20777	0	
0.0320	23.4249	5.40999	0	
0.0327	22.2196	4.20777	0	
0.0333	18.8133	5.67715	0	
0.0340	1.1529	3.53987	0	
0.0347	-22.6388	-0.0667901	0	
0.0353	-29.0846	0.53432	0	
0.0360	-25.1018	1.40259	0	
0.0367	-21.7479	0.801481	0	
0.0373	-9.53764	2.07049	0	
0.0380	3.87794	2.07049	0	
0.0387	3.87794	0.20037	0	
0.0393	0.524046	-0.0667901	0	
0.0400	0.838474	1.40259	0	
0.0407	-1.62454	2.6716	0	
0.0413	-5.29287	3.53987	0	
0.0420	-7.07463	2.07049	0	
0.0427	-9.85207	-1.93691	0	
0.0433	-11.6862	-3.13913	0	
0.0440	-9.85207	-0.40074	0	
0.0447	-3.14428	1.40259	0	
0.0453	0.524046	1.40259	0	
0.0460	-1.31012	0.801481	0	
0.0467	7.54627	-0.0667901	0	
0.0473	24.6302	-0.734691	0	
0.0480	24.3157	1.73654	0	
0.0487	14.8829	2.6716	0	
0.0493	13.6252	0.53432	0	
0.0500	-0.104809	0.20037	0	
0.0507	-30.6043	1.40259	0	
0.0513	-44.3343	0.53432	0	
0.0520	-35.4779	1.13543	0	
0.0527	-22.9532	2.6716	0	
0.0533	-12.2627	1.13543	0	
0.0540	-4.34958	1.13543	0	
0.0547	-2.82985	2.33765	0	
0.0553	-0.104809	1.13543	0	
0.0560	4.82123	1.13543	0	
0.0567	3.87794	2.07049	0	
0.0573	0.209619	0.801481	0	
0.0580	2.67264	2.07049	0	
0.0587	6.65539	4.80888	0	
0.0593	8.43715	3.53987	0	
0.0600	12.4199	2.93876	0	
0.0607	16.4026	3.27271	0	
0.0613	15.4594	0.801481	0	
0.0620	15.7738	-0.0667901	0	
0.0627	21.2763	2.6716	0	
0.0633	24.0013	2.07049	0	
0.0640	20.9619	0.20037	0	
0.0647	20.071	1.40259	0	
0.0653	20.9619	0.20037	0	
0.0660	16.4026	-3.47308	0	
0.0667	6.34096	-3.47308	0	
0.0673	-6.8126	-1.93691	0	
0.0680	-18.0796	-1.60296	0	
0.0687	-19.9138	-0.40074	0	
0.0693	-15.0401	0.20037	0	
0.0700	-13.5204	-0.40074	0	
0.0707	-11.6862	-0.734691	0	
0.0713	-4.34958	-1.00185	0	
0.0720	1.46733	-0.40074	0	
0.0727	3.87794	2.07049	0	
0.0733	6.34096	2.07049	0	
0.0740	6.91741	-1.60296	0	
0.0747	8.43715	-2.53802	0	
0.0753	13.6252	1.13543	0	
0.0760	20.071	2.07049	0	
0.0767	25.8355	0.20037	0	
0.0773	27.0932	-0.40074	0	
0.0780	24.0013	0.53432	0	
0.0787	24.0013	0.53432	0	
0.0793	24.9446	-0.734691	0	
0.0800	19.1277	-1.93691	0	
0.0807	14.5685	-0.40074	0	
0.0813	20.9619	2.6716	0	
0.0820	28.2985	2.33765	0	
0.0827	31.338	0.801481	0	
0.0833	37.4693	1.40259	0	
0.0840	43.2338	2.07049	0	
0.0847	35.3207	2.07049	0	
0.0853	15.7738	2.6716	0	
0.0860	1.46733	2.6716	0	
0.0867	-4.66401	1.40259	0	
0.0873	-17.1887	2.6716	0	
0.0880	-34.5871	3.87382	0	
0.0887	-43.129	2.07049	0	
0.0893	-48.5791	2.07049	0	
0.0900	-60.7894	4.20777	0	
0.0907	-66.2919	2.07049	0	
0.0913	-48.8935	-1.60296	0	
0.0920	-19.0229	-0.40074	0	
0.0927	-0.68126	0.53432	0	
0.0933	-8.01791	-2.53802	0	
0.0940	-24.2109	-2.53802	0	
0.0947	-30.9187	-1.00185	0	
0.0953	-33.6438	-2.53802	0	
0.0960	-36.4212	-1.3358	0	
0.0967	-30.6043	2.6716	0	
0.0973	-21.1191	2.93876	0	
0.0980	-12.5771	0.801481	0	
0.0987	-2.51542	-0.734691	0	
0.0993	0.524046	-1.60296	0	
0.1000	-5.55489	-2.87197	0	
0.1007	-3.45871	-4.07419	0	
0.1013	8.75157	-2.87197	0	
0.1020	20.3854	0.20037	0	
0.1027	35.9496	-1.60296	0	
0.1033	48.7363	-5.27641	0	
0.1040	38.6746	-2.53802	0	
0.1047	17.608	-0.40074	0	
0.1053	5.39768	-3.13913	0	
0.1060	-5.29287	-3.13913	0	
0.1067	-21.1191	-2.20407	0	
0.1073	-27.2504	-3.47308	0	
0.1080	-21.1191	-2.20407	0	
0.1087	-16.2454	-0.734691	0	
0.1093	-18.0796	-2.53802	0	
0.1100	-20.5426	-3.13913	0	
0.1107	-16.8743	-1.60296	0	
0.1113	-10.7429	-3.47308	0	
0.1120	-7.07463	-4.6753	0	
0.1127	-0.68126	-3.13913	0	
0.1133	16.7171	-3.13913	0	
0.1140	39.8799	-2.53802	0	
0.1147	55.4441	-0.0667901	0	
0.1153	59.7413	-0.40074	0	
0.1160	53.0335	-2.53802	0	
0.1167	30.1327	-2.53802	0	
0.1173	-3.14428	-1.00185	0	
0.1180	-23.8965	-1.00185	0	
0.1187	-19.2849	-2.20407	0	
0.1193	-3.72073	-0.0667901	0	
0.1200	6.65539	1.40259	0	
0.1207	13.9396	-2.53802	0	
0.1213	20.3854	-5.61036	0	
0.1220	18.8133	-3.13913	0	
0.1227	7.86069	-2.20407	0	
0.1233	-4.97844	-4.07419	0	
0.1240	-12.8915	-2.53802	0	
0.1247	-16.2454	-1.00185	0	
0.1253	-17.1887	-3.47308	0	
0.1260	-19.2849	-5.61036	0	
0.1267	-20.2282	-5.27641	0	
0.1273	-18.0796	-4.34135	0	
0.1280	-15.3546	-5.87752	0	
0.1287	-12.2627	-6.47864	0	
0.1293	-0.104809	-2.53802	0	
0.1300	20.9619	0.20037	0	
0.1307	43.2338	-2.87197	0	
0.1313	57.9071	-4.34135	0	
0.1320	53.0335	-0.734691	0	
0.1327	27.9841	-0.40074	0	
0.1333	5.7121	-1.93691	0	
0.1340	-2.20099	-0.40074	0	
0.1347	-4.34958	1.40259	0	
0.1353	-4.34958	1.13543	0	
0.1360	-0.68126	1.13543	0	
0.1367	2.98706	-0.0667901	0	
0.1373	6.02653	-2.53802	0	
0.1380	10.5857	-3.47308	0	
0.1387	13.9396	-3.47308	0	
0.1393	17.2935	-2.53802	0	
0.1400	23.4249	-1.3358	0	
0.1407	23.4249	-1.93691	0	
0.1413	8.43715	-2.20407	0	
0.1420	-9.53764	-0.40074	0	
0.1427	-13.8348	0.20037	0	
0.1433	-13.206	-2.20407	0	
0.1440	-22.3768	-3.74024	0	
0.1447	-31.8096	-3.47308	0	
0.1453	-33.3293	-1.3358	0	
0.1460	-36.4212	1.13543	0	
0.1467	-40.9804	0.801481	0	
0.1473	-36.1068	-1.60296	0	
0.1480	-27.2504	-1.93691	0	
0.1487	-26.3071	-0.40074	0	
0.1493	-23.5821	-0.40074	0	
0.1500	-13.206	0.801481	0	
0.1507	-5.86932	2.07049	0	
0.1513	-5.86932	-0.40074	0	
0.1520	-6.49817	-0.40074	0	
0.1527	-5.29287	2.07049	0	
0.1533	-2.51542	-0.40074	0	
0.1540	2.98706	-1.60296	0	
0.1547	6.34096	2.33765	0	
0.1553	6.65539	2.93876	0	
0.1560	6.65539	0.53432	0	
0.1567	2.98706	2.07049	0	
0.1573	-8.33234	1.40259	0	
0.1580	-18.0796	-1.60296	0	
0.1587	-17.1887	-0.734691	0	
0.1593	-12.5771	0.20037	0	
0.1600	-11.0574	-1.60296	0	
0.1607	-8.90879	-1.00185	0	
0.1613	1.1529	-1.60296	0	
0.1620	19.1277	-3.47308	0	
0.1627	37.7837	-1.60296	0	
0.1633	46.9021	-0.734691	0	
0.1640	41.7141	-1.00185	0	
0.1647	28.2985	2.33765	0	
0.1653	13.0488	3.87382	0	
0.1660	-9.85207	-0.734691	0	
0.1667	-36.4212	-1.60296	0	
0.1673	-45.5396	0.801481	0	
0.1680	-34.5871	-0.734691	0	
0.1687	-22.6388	-3.13913	0	
0.1693	-16.2454	-0.40074	0	
0.1700	-8.90879	3.87382	0	
0.1707	-0.104809	3.53987	0	
0.1713	12.7343	-0.734691	0	
0.1720	24.9446	0.53432	0	
0.1727	18.5512	4.47493	0	
0.1733	-1.31012	1.73654	0	
0.1740	-12.5771	-1.93691	0	
0.1747	-19.5993	0.20037	0	
0.1753	-29.9754	2.07049	0	
0.1760	-28.1413	1.13543	0	
0.1767	-14.4113	1.40259	0	
0.1773	-6.18375	0.20037	0	
0.1780	-7.07463	-1.00185	0	
0.1787	-8.64676	-0.0667901	0	
0.1793	-6.49817	0.53432	0	
0.1800	1.46733	1.40259	0	
0.1807	8.43715	2.07049	0	
0.1813	8.75157	1.13543	0	
0.1820	9.38043	2.6716	0	
0.1827	13.9396	4.80888	0	
0.1833	18.5512	2.6716	0	
0.1840	19.1277	-0.0667901	0	
0.1847	14.5685	1.40259	0	
0.1853	10.5857	2.93876	0	
0.1860	10.5857	2.07049	0	
0.1867	2.04378	0.20037	0	
0.1873	-12.5771	1.40259	0	
0.1880	-9.85207	2.93876	0	
0.1887	7.86069	1.73654	0	
0.1893	19.4421	1.13543	0	
0.1900	29.5038	2.07049	0	
0.1907	46.9021	1.40259	0	
0.1913	57.5927	1.13543	0	
0.1920	56.3874	3.27271	0	
0.1927	52.0902	2.6716	0	
0.1933	42.9718	-0.0667901	0	
0.1940	20.9619	-0.734691	0	
0.1947	-12.5771	-1.60296	0	
0.1953	-47.3738	-2.53802	0	
0.1960	-64.4577	-1.00185	0	
0.1967	-56.5446	-0.0667901	0	
0.1973	-38.8318	0.20037	0	
0.1980	-21.7479	1.13543	0	
0.1987	-4.97844	-0.0667901	0	
0.1993	6.65539	-1.00185	0	
0.2000	10.9002	1.13543	0	
0.2007	14.2541	2.93876	0	
0.2013	15.1973	2.07049	0	
0.2020	11.8434	2.33765	0	
0.2027	8.75157	3.53987	0	
0.2033	3.56351	4.20777	0	
0.2040	-8.64676	3.87382	0	
0.2047	-19.5993	3.27271	0	
0.2053	-25.1018	3.87382	0	
0.2060	-24.7874	2.07049	0	
0.2067	-17.4507	-0.40074	0	
0.2073	-9.85207	2.07049	0	
0.2080	-8.33234	3.27271	0	
0.2087	-8.01791	-2.20407	0	
0.2093	-7.07463	-4.07419	0	
0.2100	-10.1665	-1.00185	0	
0.2107	-11.3718	-3.13913	0	
0.2113	-10.7429	-6.47864	0	
0.2120	-13.8348	-5.27641	0	
0.2127	-16.5599	-5.61036	0	
0.2133	-15.3546	-7.14654	0	
0.2140	-12.5771	-4.34135	0	
0.2147	-2.51542	-0.734691	0	
0.2153	14.2541	-0.734691	0	
0.2160	29.5038	-2.87197	0	
0.2167	40.1944	-3.74024	0	
0.2173	41.3997	-2.53802	0	
0.2180	23.7393	-1.3358	0	
0.2187	0.838474	-1.60296	0	
0.2193	-9.85207	-2.87197	0	
0.2200	-14.7257	-3.13913	0	
0.2207	-19.5993	-2.87197	0	
0.2213	-15.931	-1.60296	0	
0.2220	-4.34958	-0.734691	0	
0.2227	9.38043	-2.20407	0	
0.2233	26.7788	-1.60296	0	
0.2240	38.6746	0.20037	0	
0.2247	34.1154	-1.60296	0	
0.2253	23.1104	-3.74024	0	
0.2260	13.9396	-1.00185	0	
0.2267	-5.29287	1.13543	0	
0.2273	-32.7529	0.20037	0	
0.2280	-44.0199	-0.0667901	0	
0.2287	-33.0149	-0.0667901	0	
0.2293	-18.7085	0.20037	0	
0.2300	-11.6862	2.93876	0	
0.2307	-7.38905	3.53987	0	
0.2313	-2.82985	2.33765	0	
0.2320	0.838474	2.93876	0	
0.2327	4.82123	2.93876	0	
0.2333	6.65539	1.13543	0	
0.2340	3.56351	-0.0667901	0	
0.2347	-2.20099	-0.40074	0	
0.2353	-4.66401	0.20037	0	
0.2360	-3.45871	1.13543	0	
0.2367	-3.14428	1.73654	0	
0.2373	1.1529	1.40259	0	
0.2380	12.7343	0.20037	0	
0.2387	23.1104	-0.734691	0	
0.2393	27.6696	0.20037	0	
0.2400	29.5038	-0.40074	0	
0.2407	26.7788	-2.20407	0	
0.2413	20.6474	-1.60296	0	
0.2420	18.5512	-0.734691	0	
0.2427	16.0882	-1.60296	0	
0.2433	10.5857	-0.734691	0	
0.2440	2.35821	0.20037	0	
0.2447	-15.0401	-1.60296	0	
0.2453	-38.8318	-1.60296	0	
0.2460	-48.5791	-0.734691	0	
0.2467	-38.5174	-3.47308	0	
0.2473	-24.473	-4.6753	0	
0.2480	-14.4113	-2.53802	0	
0.2487	-3.14428	-2.53802	0	
0.2493	4.82123	-3.13913	0	
0.2500	-3.45871	-1.3358	0	
0.2507	-23.8965	-0.734691	0	
0.2513	-34.8491	0.20037	0	
0.2520	-26.3071	3.53987	0	
0.2527	-8.33234	3.53987	0	
0.2533	9.066	1.40259	0	
0.2540	23.1104	3.27271	0	
0.2547	33.1721	3.87382	0	
0.2553	40.5088	0.20037	0	
0.2560	44.4915	-1.3358	0	
0.2567	41.7141	2.6716	0	
0.2573	28.6129	3.53987	0	
0.2580	-1.62454	0.20037	0	
0.2587	-38.5174	-0.734691	0	
0.2593	-52.8763	-0.734691	0	
0.2600	-34.5871	-1.00185	0	
0.2607	-5.29287	0.53432	0	
0.2613	13.9396	3.27271	0	
0.2620	13.6252	2.6716	0	
0.2627	-5.55489	0.20037	0	
0.2633	-22.9532	-0.734691	0	
0.2640	-28.4557	-1.00185	0	
0.2647	-32.7529	0.53432	0	
0.2653	-34.8491	2.07049	0	
0.2660	-29.9754	-0.40074	0	
0.2667	-25.7307	-0.734691	0	
0.2673	-24.473	3.87382	0	
0.2680	-18.7085	3.27271	0	
0.2687	-10.4809	-1.00185	0	
0.2693	-3.14428	-0.734691	0	
0.2700	2.04378	-0.40074	0	
0.2707	4.82123	-1.93691	0	
0.2713	9.066	-0.0667901	0	
0.2720	9.066	2.07049	0	
0.2727	2.98706	1.13543	0	
0.2733	3.30149	0.801481	0	
0.2740	10.2713	1.13543	0	
0.2747	13.0488	-0.734691	0	
0.2753	16.4026	-1.00185	0	
0.2760	20.3854	0.20037	0	
0.2767	18.8133	0.801481	0	
0.2773	17.608	2.07049	0	
0.2780	20.3854	2.6716	0	
0.2787	18.5512	-1.60296	0	
0.2793	15.1973	-5.27641	0	
0.2800	17.0315	-2.53802	0	
0.2807	19.4421	-0.0667901	0	
0.2813	17.9224	-1.3358	0	
0.2820	14.8829	-1.93691	0	
0.2827	14.2541	-2.87197	0	
0.2833	18.5512	-3.47308	0	
0.2840	23.4249	-1.3358	0	
0.2847	22.4816	0.20037	0	
0.2853	20.3854	-1.3358	0	
0.2860	23.7393	-2.20407	0	
0.2867	32.8577	-1.93691	0	
0.2873	37.1549	-1.00185	0	
0.2880	23.1104	1.13543	0	
0.2887	-0.104809	1.13543	0	
0.2893	-17.1887	0.53432	0	
0.2900	-39.1463	1.40259	0	
0.2907	-68.126	0.53432	0	
0.2913	-75.7771	-2.53802	0	
0.2920	-55.0249	-3.13913	0	
0.2927	-35.1635	-2.87197	0	
0.2933	-25.7307	-3.47308	0	
0.2940	-18.0796	-3.47308	0	
0.2947	-12.0007	-4.07419	0	
0.2953	-8.90879	-4.34135	0	
0.2960	-6.8126	-2.87197	0	
0.2967	-6.18375	-3.13913	0	
0.2973	-5.29287	-6.21147	0	
0.2980	-0.995688	-6.21147	0	
0.2987	-0.104809	-4.34135	0	
0.2993	-7.07463	-3.74024	0	
0.3000	-15.0401	-2.87197	0	
0.3007	-15.3546	-2.53802	0	
0.3013	-10.1665	-4.34135	0	
0.3020	-3.45871	-4.34135	0	
0.3027	6.34096	-2.20407	0	
0.3033	18.5512	-1.00185	0	
0.3040	31.6524	-1.00185	0	
0.3047	46.0113	-1.60296	0	
0.3053	50.256	-3.13913	0	
0.3060	28.2985	-4.07419	0	
0.3067	-5.55489	-1.93691	0	
0.3073	-25.4162	0.20037	0	
0.3080	-34.5871	-1.00185	0	
0.3087	-37.3121	-1.60296	0	
0.3093	-21.1191	-1.3358	0	
0.3100	3.30149	-2.20407	0	
0.3107	11.2146	-2.53802	0	
0.3113	9.066	-0.734691	0	
0.3120	8.17512	-1.00185	0	
0.3127	6.65539	-3.47308	0	
0.3133	6.02653	-2.53802	0	
0.3140	4.5068	0.53432	0	
0.3147	-2.20099	0.801481	0	
0.3153	-5.55489	-0.0667901	0	
0.3160	-5.29287	2.33765	0	
0.3167	-7.38905	4.80888	0	
0.3173	-6.49817	2.07049	0	
0.3180	-1.62454	-0.0667901	0	
0.3187	0.524046	0.801481	0	
0.3193	2.35821	-1.3358	0	
0.3200	5.7121	-2.53802	0	
0.3207	9.066	0.20037	0	
0.3213	16.4026	-1.3358	0	
0.3220	25.8355	-2.53802	0	
0.3227	29.1894	2.6716	0	
0.3233	24.6302	3.27271	0	
0.3240	14.5685	-2.53802	0	
0.3247	0.838474	-2.87197	0	
0.3253	-8.64676	0.20037	0	
0.3260	-12.5771	-0.0667901	0	
0.3267	-13.5204	-0.0667901	0	
0.3273	-6.18375	1.13543	0	
0.3280	7.54627	1.13543	0	
0.3287	16.7171	0.20037	0	
0.3293	24.9446	-0.734691	0	
0.3300	37.4693	0.20037	0	
0.3307	34.1154	2.33765	0	
0.3313	2.04378	1.13543	0	
0.3320	-35.7924	-0.40074	0	
0.3327	-47.3738	3.27271	0	
0.3333	-29.399	5.07604	0	
0.3340	-5.55489	1.73654	0	
0.3347	2.98706	0.53432	0	
0.3353	1.72935	3.27271	0	
0.3360	0.524046	3.53987	0	
0.3367	-6.18375	1.13543	0	
0.3373	-16.5599	0.20037	0	
0.3380	-13.8348	1.40259	0	
0.3387	0.209619	2.07049	0	
0.3393	10.2713	1.40259	0	
0.3400	13.3632	2.93876	0	
0.3407	13.6252	2.6716	0	
0.3413	7.54627	-1.3358	0	
0.3420	-3.45871	-1.3358	0	
0.3427	-10.7429	2.93876	0	
0.3433	-8.33234	2.93876	0	
0.3440	-3.45871	0.20037	0	
0.3447	-5.55489	0.801481	0	
0.3453	-10.4809	1.73654	0	
0.3460	-10.1665	2.07049	0	
0.3467	-11.3718	4.80888	0	
0.3473	-16.2454	3.27271	0	
0.3480	-16.2454	-3.47308	0	
0.3487	-11.6862	-4.34135	0	
0.3493	-9.85207	1.13543	0	
0.3500	-8.01791	2.6716	0	
0.3507	-0.366832	0.20037	0	
0.3513	11.529	0.20037	0	
0.3520	23.4249	1.13543	0	
0.3527	28.6129	1.73654	0	
0.3533	20.3854	2.6716	0	
0.3540	4.5068	2.07049	0	
0.3547	-6.8126	1.40259	0	
0.3553	-8.90879	3.27271	0	
0.3560	-5.86932	4.80888	0	
0.3567	-2.51542	5.40999	0	
0.3573	1.1529	4.80888	0	
0.3580	6.34096	1.73654	0	
0.3587	9.38043	2.6716	0	
0.3593	10.2713	6.0111	0	
0.3600	12.1055	3.53987	0	
0.3607	11.2146	1.13543	0	
0.3613	0.209619	4.47493	0	
0.3620	-8.64676	3.87382	0	
0.3627	-2.51542	1.73654	0	
0.3633	9.066	5.07604	0	
0.3640	10.9002	4.80888	0	
0.3647	6.02653	-0.734691	0	
0.3653	2.98706	0.20037	0	
0.3660	-0.366832	4.20777	0	
0.3667	-0.995688	3.53987	0	
0.3673	9.066	2.07049	0	
0.3680	19.1277	1.13543	0	
0.3687	13.0488	1.13543	0	
0.3693	-0.104809	2.6716	0	
0.3700	-4.97844	4.80888	0	
0.3707	-4.66401	3.87382	0	
0.3713	-5.55489	2.6716	0	
0.3720	-10.1665	4.47493	0	
0.3727	-19.0229	6.61222	0	
0.3733	-18.7085	3.87382	0	
0.3740	-4.97844	0.801481	0	
0.3747	6.65539	1.13543	0	
0.3753	10.2713	-0.40074	0	
0.3760	10.9002	-4.34135	0	
0.3767	11.2146	-2.53802	0	
0.3773	16.0882	0.801481	0	
0.3780	26.7788	-1.3358	0	
0.3787	36.8405	-3.13913	0	
0.3793	41.7141	-0.40074	0	
0.3800	31.338	1.13543	0	
0.3807	2.04378	0.801481	0	
0.3813	-26.3071	1.13543	0	
0.3820	-43.391	0.20037	0	
0.3827	-53.5051	-1.00185	0	
0.3833	-50.1512	0.53432	0	
0.3840	-33.9582	3.87382	0	
0.3847	-22.0623	2.33765	0	
0.3853	-19.5993	-0.734691	0	
0.3860	-18.0796	1.40259	0	
0.3867	-14.4113	5.40999	0	
0.3873	-4.34958	3.53987	0	
0.3880	12.7343	-0.0667901	0	
0.3887	27.0932	-0.0667901	0	
0.3893	34.1154	1.13543	0	
0.3900	30.1327	1.73654	0	
0.3907	9.38043	3.53987	0	
0.3913	-24.7874	3.87382	0	
0.3920	-56.5446	1.13543	0	
0.3927	-67.5496	-0.40074	0	
0.3933	-52.2474	0.20037	0	
0.3940	-25.7307	-0.734691	0	
0.3947	-2.82985	-1.60296	0	
0.3953	16.7171	-0.734691	0	
0.3960	33.1721	-0.734691	0	
0.3967	32.8577	-2.53802	0	
0.3973	17.0315	-5.27641	0	
0.3980	3.56351	-7.14654	0	
0.3987	-4.03516	-5.27641	0	
0.3993	-12.5771	-2.53802	0	
0.4000	-16.5599	-2.53802	0	
0.4007	-14.7257	-3.13913	0	
0.4013	-13.206	-1.60296	0	
0.4020	-10.7429	-2.20407	0	
0.4027	-6.49817	-3.13913	0	
0.4033	-5.86932	-0.40074	0	
0.4040	-6.18375	-0.734691	0	
0.4047	-5.29287	-5.27641	0	
0.4053	-7.07463	-4.07419	0	
0.4060	-6.18375	-0.734691	0	
0.4067	-0.366832	-4.34135	0	
0.4073	2.98706	-6.81259	0	
0.4080	4.5068	-2.87197	0	
0.4087	9.066	-1.60296	0	
0.4093	13.0488	-4.34135	0	
0.4100	14.2541	-2.53802	0	
0.4107	10.2713	-0.734691	0	
0.4113	4.19237	-2.87197	0	
0.4120	2.98706	-4.07419	0	
0.4127	3.87794	-2.53802	0	
0.4133	-3.45871	-3.47308	0	
0.4140	-11.0574	-4.07419	0	
0.4147	-8.01791	-0.0667901	0	
0.4153	-0.995688	-0.734691	0	
0.4160	1.72935	-5.00925	0	
0.4167	4.19237	-4.34135	0	
0.4173	5.7121	-3.74024	0	
0.4180	5.7121	-7.74765	0	
0.4187	13.9396	-6.81259	0	
0.4193	26.1499	-1.3358	0	
0.4200	27.9841	-1.60296	0	
0.4207	25.259	-3.74024	0	
0.4213	26.1499	-0.734691	0	
0.4220	23.1104	0.801481	0	
0.4227	16.4026	-1.00185	0	
0.4233	14.8829	-0.734691	0	
0.4240	11.8434	0.53432	0	
0.4247	7.23184	-0.0667901	0	
0.4253	7.86069	-1.93691	0	
0.4260	6.02653	-3.74024	0	
0.4267	4.82123	-6.21147	0	
0.4273	22.2196	-8.01481	0	
0.4280	47.8454	-9.88493	0	
0.4287	55.1297	-10.486	0	
0.4293	48.7363	-8.94987	0	
0.4300	40.5088	-8.01481	0	
0.4307	30.1327	-8.01481	0	
0.4313	16.7171	-5.87752	0	
0.4320	-1.62454	1.40259	0	
0.4327	-26.3071	10.6196	0	
0.4333	-45.5396	13.9591	0	
0.4340	-56.5446	7.54728	0	
0.4347	-57.1735	0.53432	0	
0.4353	-35.7924	1.13543	0	
0.4360	-2.51542	2.07049	0	
0.4367	6.65539	-0.0667901	0	
0.4373	-8.90879	0.20037	0	
0.4380	-21.1191	0.53432	0	
0.4387	-24.7874	-1.60296	0	
0.4393	-26.6216	-0.40074	0	
0.4400	-22.3768	4.47493	0	
0.4407	-14.4113	2.93876	0	
0.4413	-10.7429	-2.53802	0	
0.4420	-8.01791	-1.93691	0	
0.4427	-4.34958	1.40259	0	
0.4433	-5.86932	-0.0667901	0	
0.4440	-7.38905	-1.93691	0	
0.4447	-4.66401	1.40259	0	
0.4453	-6.8126	3.53987	0	
0.4460	-13.8348	1.73654	0	
0.4467	-14.4113	2.33765	0	
0.4473	-8.33234	4.20777	0	
0.4480	-5.29287	1.73654	0	
0.4487	-10.7429	0.53432	0	
0.4493	-16.5599	1.73654	0	
0.4500	-15.0401	-0.734691	0	
0.4507	-8.90879	-2.53802	0	
0.4513	-5.86932	-0.0667901	0	
0.4520	-6.18375	1.40259	0	
0.4527	-4.34958	0.53432	0	
0.4533	1.46733	-0.0667901	0	
0.4540	7.54627	-0.0667901	0	
0.4547	8.75157	-0.0667901	0	
0.4553	6.34096	-0.734691	0	
0.4560	7.54627	-2.53802	0	
0.4567	10.0093	-4.34135	0	
0.4573	7.86069	-2.87197	0	
0.4580	5.08325	-0.734691	0	
0.4587	4.5068	0.801481	0	
0.4593	3.87794	1.73654	0	
0.4600	6.34096	2.6716	0	
0.4607	13.6252	1.73654	0	
0.4613	20.071	-0.40074	0	
0.4620	22.2196	-0.734691	0	
0.4627	20.071	2.07049	0	
0.4633	11.8434	2.93876	0	
0.4640	3.56351	1.40259	0	
0.4647	-0.104809	1.73654	0	
0.4653	-5.29287	2.07049	0	
0.4660	-13.206	-0.40074	0	
0.4667	-11.6862	-1.93691	0	
0.4673	6.34096	0.20037	0	
0.4680	34.1154	2.33765	0	
0.4687	60.6322	3.27271	0	
0.4693	70.6938	4.47493	0	
0.4700	53.0335	2.33765	0	
0.4707	16.4026	-0.40074	0	
0.4713	-17.1887	1.40259	0	
0.4720	-40.0371	3.87382	0	
0.4727	-52.8763	2.07049	0	
0.4733	-49.2079	-0.40074	0	
0.4740	-30.2899	-1.60296	0	
0.4747	-13.206	-2.87197	0	
0.4753	-9.22322	-4.34135	0	
0.4760	-8.33234	-6.21147	0	
0.4767	-4.03516	-5.61036	0	
0.4773	-9.85207	-1.60296	0	
0.4780	-28.7701	-1.3358	0	
0.4787	-35.7924	-4.6753	0	
0.4793	-23.5821	-4.6753	0	
0.4800	-10.1665	-2.53802	0	
0.4807	-1.88657	-3.74024	0	
0.4813	2.35821	-3.13913	0	
0.4820	-0.68126	0.801481	0	
0.4827	-2.20099	2.33765	0	
0.4833	5.39768	2.07049	0	
0.4840	12.7343	1.40259	0	
0.4847	13.3632	0.20037	0	
0.4853	10.9002	-1.3358	0	
0.4860	5.7121	-0.0667901	0	
0.4867	4.82123	0.53432	0	
0.4873	7.86069	-0.40074	0	
0.4880	7.54627	-0.40074	0	
0.4887	5.08325	0.801481	0	
0.4893	4.82123	2.07049	0	
0.4900	1.1529	2.6716	0	
0.4907	-2.51542	0.53432	0	
0.4913	0.209619	-3.74024	0	
0.4920	-2.82985	-4.34135	0	
0.4927	-15.669	0.53432	0	
0.4933	-24.473	2.6716	0	
0.4940	-20.857	0.20037	0	
0.4947	-4.66401	-1.00185	0	
0.4953	21.9051	-0.0667901	0	
0.4960	46.0113	-0.40074	0	
0.4967	50.8849	-0.734691	0	
0.4973	35.9496	0.53432	0	
0.4980	18.5512	1.13543	0	
0.4987	6.02653	0.53432	0	
0.4993	-6.8126	0.53432	0	
0.5000	-19.5993	0.20037	0	
0.5007	-23.5821	0.801481	0	
0.5013	-18.0796	0.20037	0	
0.5020	-8.33234	-1.60296	0	
0.5027	-0.366832	-1.3358	0	
0.5033	3.30149	2.33765	0	
0.5040	4.19237	3.27271	0	
0.5047	5.39768	0.53432	0	
0.5053	6.65539	-1.3358	0	
0.5060	6.65539	-0.734691	0	
0.5067	4.82123	1.13543	0	
0.5073	1.1529	2.07049	0	
0.5080	-0.104809	-0.734691	0	
0.5087	2.98706	-3.47308	0	
0.5093	6.65539	-2.53802	0	
0.5100	5.08325	0.53432	0	
0.5107	3.87794	-0.0667901	0	
0.5113	5.7121	-3.13913	0	
0.5120	6.02653	-2.53802	0	
0.5127	4.5068	-0.734691	0	
0.5133	6.34096	-2.20407	0	
0.5140	10.2713	-3.74024	0	
0.5147	13.0488	-1.00185	0	
0.5153	15.7738	1.13543	0	
0.5160	19.4421	-0.734691	0	
0.5167	24.0013	-1.60296	0	
0.5173	30.4471	-1.60296	0	
0.5180	32.8577	-3.74024	0	
0.5187	25.5735	-5.27641	0	
0.5193	11.529	-2.53802	0	
0.5200	-0.104809	0.20037	0	
0.5207	-1.62454	-0.734691	0	
0.5213	2.35821	-2.87197	0	
0.5220	1.46733	-2.87197	0	
0.5227	0.209619	-1.3358	0	
0.5233	-1.31012	-0.40074	0	
0.5240	-16.8743	-0.734691	0	
0.5247	-34.2726	-1.00185	0	
0.5253	-30.6043	0.20037	0	
0.5260	-20.2282	1.40259	0	
0.5267	-20.857	1.73654	0	
0.5273	-20.857	2.33765	0	
0.5280	-16.2454	2.93876	0	
0.5287	-15.3546	2.07049	0	
0.5293	-13.5204	1.40259	0	
0.5300	-9.53764	1.73654	0	
0.5307	-6.8126	2.6716	0	
0.5313	3.87794	3.87382	0	
0.5320	23.1104	2.93876	0	
0.5327	34.1154	-0.0667901	0	
0.5333	26.7788	0.53432	0	
0.5340	8.43715	2.93876	0	
0.5347	-3.45871	2.93876	0	
0.5353	-2.51542	2.07049	0	
0.5360	2.98706	2.33765	0	
0.5367	7.54627	3.27271	0	
0.5373	13.6252	5.67715	0	
0.5380	12.1055	6.94617	0	
0.5387	-1.62454	3.53987	0	
0.5393	-19.9138	1.13543	0	
0.5400	-33.9582	1.73654	0	
0.5407	-35.4779	0.20037	0	
0.5413	-23.5821	-0.40074	0	
0.5420	-12.2627	1.73654	0	
0.5427	-11.6862	2.07049	0	
0.5433	-15.3546	1.40259	0	
0.5440	-20.857	2.6716	0	
0.5447	-29.399	1.40259	0	
0.5453	-36.6832	-1.3358	0	
0.5460	-37.3121	-0.40074	0	
0.5467	-31.4952	2.07049	0	
0.5473	-23.5821	2.07049	0	
0.5480	-14.4113	0.53432	0	
0.5487	-4.34958	-0.734691	0	
0.5493	2.04378	-0.40074	0	
0.5500	6.34096	2.07049	0	
0.5507	6.91741	2.07049	0	
0.5513	0.209619	-0.734691	0	
0.5520	-5.55489	0.53432	0	
0.5527	2.98706	3.87382	0	
0.5533	13.9396	1.73654	0	
0.5540	12.4199	0.20037	0	
0.5547	7.23184	2.93876	0	
0.5553	2.98706	2.07049	0	
0.5560	-5.86932	-1.60296	0	
0.5567	-11.3718	-1.93691	0	
0.5573	-7.07463	-0.734691	0	
0.5580	-4.03516	-1.3358	0	
0.5587	-6.18375	-1.60296	0	
0.5593	-0.995688	0.53432	0	
0.5600	10.5857	2.33765	0	
0.5607	22.2196	1.13543	0	
0.5613	40.1944	-0.734691	0	
0.5620	59.7413	0.801481	0	
0.5627	61.5754	2.93876	0	
0.5633	49.6796	2.6716	0	
0.5640	35.0063	3.53987	0	
0.5647	7.54627	5.67715	0	
0.5653	-26.0451	3.53987	0	
0.5660	-39.1463	-0.734691	0	
0.5667	-33.9582	-1.00185	0	
0.5673	-23.2677	1.13543	0	
0.5680	-14.4113	1.13543	0	
0.5687	-12.2627	-1.00185	0	
0.5693	-9.85207	-1.93691	0	
0.5700	-2.20099	0.20037	0	
0.5707	-3.45871	0.20037	0	
0.5713	-15.3546	-1.60296	0	
0.5720	-23.5821	-0.734691	0	
0.5727	-32.7529	0.20037	0	
0.5733	-42.8146	-0.734691	0	
0.5740	-39.4607	-1.00185	0	
0.5747	-26.0451	-1.00185	0	
0.5753	-17.1887	-2.53802	0	
0.5760	-12.5771	-2.87197	0	
0.5767	-7.38905	-2.20407	0	
0.5773	-2.82985	-2.87197	0	
0.5780	2.04378	-5.87752	0	
0.5787	7.54627	-8.01481	0	
0.5793	11.2146	-6.21147	0	
0.5800	13.3632	-3.74024	0	
0.5807	18.5512	-4.34135	0	
0.5813	27.0932	-4.34135	0	
0.5820	28.6129	-1.60296	0	
0.5827	18.2368	-1.00185	0	
0.5833	5.7121	-2.87197	0	
0.5840	0.838474	-4.6753	0	
0.5847	2.98706	-5.27641	0	
0.5853	7.54627	-4.6753	0	
0.5860	7.23184	-3.13913	0	
0.5867	0.209619	-2.20407	0	
0.5873	-7.07463	-1.60296	0	
0.5880	-10.1665	-2.53802	0	
0.5887	-9.85207	-5.27641	0	
0.5893	-3.45871	-6.21147	0	
0.5900	8.75157	-3.74024	0	
0.5907	18.8133	-2.20407	0	
0.5913	18.8133	-3.13913	0	
0.5920	12.7343	-2.53802	0	
0.5927	10.2713	-0.0667901	0	
0.5933	11.2146	-0.0667901	0	
0.5940	9.066	-1.00185	0	
0.5947	4.82123	-1.3358	0	
0.5953	2.04378	-2.20407	0	
0.5960	-0.68126	-1.60296	0	
0.5967	-2.82985	0.53432	0	
0.5973	0.524046	-0.734691	0	
0.5980	11.2146	-2.20407	0	
0.5987	24.3157	-0.734691	0	
0.5993	38.989	-2.20407	0	
0.6000	52.4046	-5.27641	0	
0.6007	56.9638	-3.47308	0	
0.6013	48.1599	-1.3358	0	
0.6020	27.9841	-0.40074	0	
0.6027	-0.104809	1.40259	0	
0.6033	-36.4212	0.801481	0	
0.6040	-69.0693	-3.47308	0	
0.6047	-76.3535	-3.47308	0	
0.6053	-56.5446	-1.3358	0	
0.6060	-36.4212	-0.0667901	0	
0.6067	-29.0846	1.40259	0	
0.6073	-23.5821	1.13543	0	
0.6080	-17.7652	-1.60296	0	
0.6087	-14.4113	-1.60296	0	
0.6093	-8.33234	-0.734691	0	
0.6100	3.30149	-2.20407	0	
0.6107	13.0488	-1.00185	0	
0.6113	11.529	1.13543	0	
0.6120	-2.20099	2.07049	0	
0.6127	-15.931	4.20777	0	
0.6133	-19.0229	4.80888	0	
0.6140	-17.7652	1.13543	0	
0.6147	-13.8348	-0.40074	0	
0.6153	2.35821	1.40259	0	
0.6160	26.1499	2.93876	0	
0.6167	40.1944	4.80888	0	
0.6173	44.1771	5.40999	0	
0.6180	46.9021	3.87382	0	
0.6187	37.7837	2.93876	0	
0.6193	6.65539	2.07049	0	
0.6200	-29.661	2.07049	0	
0.6207	-48.3171	4.47493	0	
0.6213	-46.1685	5.07604	0	
0.6220	-32.124	2.93876	0	
0.6227	-19.9138	2.6716	0	
0.6233	-15.3546	2.93876	0	
0.6240	-12.0007	2.33765	0	
0.6247	-9.53764	2.93876	0	
0.6253	-12.2627	2.07049	0	
0.6260	-13.206	-0.734691	0	
0.6267	-9.53764	-2.20407	0	
0.6273	-8.90879	-4.07419	0	
0.6280	-10.4809	-4.34135	0	
0.6287	-7.38905	-0.734691	0	
0.6293	-3.72073	0.20037	0	
0.6300	-2.51542	-1.00185	0	
0.6307	-0.104809	0.53432	0	
0.6313	2.04378	1.13543	0	
0.6320	1.72935	-0.40074	0	
0.6327	1.46733	1.13543	0	
0.6333	5.7121	2.07049	0	
0.6340	13.6252	-1.00185	0	
0.6347	18.5512	-1.60296	0	
0.6353	17.2935	-1.93691	0	
0.6360	14.5685	-5.00925	0	
0.6367	12.7343	-4.6753	0	
0.6373	10.5857	-1.00185	0	
0.6380	9.38043	-0.734691	0	
0.6387	3.87794	-1.60296	0	
0.6393	-9.85207	-1.60296	0	
0.6400	-19.5993	-1.93691	0	
0.6407	-15.931	-1.3358	0	
0.6413	-8.90879	-0.734691	0	
0.6420	-6.8126	-2.53802	0	
0.6427	-4.66401	-1.93691	0	
0.6433	2.98706	0.20037	0	
0.6440	11.2146	-1.3358	0	
0.6447	14.8829	-0.734691	0	
0.6453	16.7171	2.6716	0	
0.6460	21.9051	1.40259	0	
0.6467	27.6696	-2.20407	0	
0.6473	27.6696	-1.3358	0	
0.6480	21.5907	-0.40074	0	
0.6487	11.8434	-0.734691	0	
0.6493	2.98706	-1.00185	0	
0.6500	-7.07463	-2.20407	0	
0.6507	-22.0623	-1.60296	0	
0.6513	-33.9582	0.801481	0	
0.6520	-35.4779	-0.0667901	0	
0.6527	-28.4557	-1.93691	0	
0.6533	-11.6862	0.20037	0	
0.6540	11.2146	1.13543	0	
0.6547	23.7393	-1.00185	0	
0.6553	28.6129	-1.00185	0	
0.6560	36.2116	1.40259	0	
0.6567	40.8232	2.33765	0	
0.6573	37.7837	1.40259	0	
0.6580	27.6696	0.801481	0	
0.6587	7.23184	2.07049	0	
0.6593	-12.0007	2.07049	0	
0.6600	-11.3718	-0.0667901	0	
0.6607	-0.68126	-1.3358	0	
0.6613	0.524046	-0.40074	0	
0.6620	-6.18375	-0.40074	0	
0.6627	-22.3768	-0.734691	0	
0.6633	-45.5396	-0.734691	0	
0.6640	-60.5273	-2.20407	0	
0.6647	-57.1735	-3.47308	0	
0.6653	-43.7055	-4.34135	0	
0.6660	-30.9187	-6.81259	0	
0.6667	-20.857	-6.21147	0	
0.6673	-14.4113	-3.74024	0	
0.6680	-9.22322	-5.27641	0	
0.6687	-7.07463	-6.21147	0	
0.6693	-6.8126	-3.47308	0	
0.6700	-5.29287	-1.60296	0	
0.6707	-2.20099	-3.13913	0	
0.6713	2.98706	-4.34135	0	
0.6720	7.54627	-3.74024	0	
0.6727	8.75157	-2.20407	0	
0.6733	9.38043	-1.3358	0	
0.6740	10.5857	-2.53802	0	
0.6747	9.38043	-4.07419	0	
0.6753	6.34096	-4.07419	0	
0.6760	6.91741	-3.74024	0	
0.6767	9.066	-3.47308	0	
0.6773	8.75157	-1.93691	0	
0.6780	7.54627	-0.40074	0	
0.6787	5.08325	-0.734691	0	
0.6793	4.5068	-2.53802	0	
0.6800	6.91741	-3.47308	0	
0.6807	7.54627	-2.20407	0	
0.6813	7.23184	-1.3358	0	
0.6820	10.2713	-1.3358	0	
0.6827	12.4199	-0.0667901	0	
0.6833	7.86069	2.33765	0	
0.6840	3.30149	2.6716	0	
0.6847	2.98706	1.13543	0	
0.6853	2.04378	0.801481	0	
0.6860	2.35821	0.20037	0	
0.6867	7.86069	-2.53802	0	
0.6873	12.4199	-3.47308	0	
0.6880	13.0488	-0.734691	0	
0.6887	12.4199	0.20037	0	
0.6893	10.2713	-1.60296	0	
0.6900	7.23184	-3.13913	0	
0.6907	7.54627	-2.20407	0	
0.6913	4.5068	-2.20407	0	
0.6920	-10.1665	-2.53802	0	
0.6927	-21.7479	-1.3358	0	
0.6933	-12.8915	-1.00185	0	
0.6940	9.69486	-2.53802	0	
0.6947	31.9668	-1.00185	0	
0.6953	46.9021	2.07049	0	
0.6960	50.5705	0.20037	0	
0.6967	40.5088	-2.53802	0	
0.6973	13.6252	1.13543	0	
0.6980	-21.7479	4.20777	0	
0.6987	-40.0371	1.73654	0	
0.6993	-26.936	0.801481	0	
0.7000	-0.104809	1.73654	0	
0.7007	17.2935	0.20037	0	
0.7013	26.4643	-0.734691	0	
0.7020	37.7837	2.07049	0	
0.7027	43.8627	2.6716	0	
0.7033	30.4471	1.73654	0	
0.7040	0.209619	2.33765	0	
0.7047	-35.4779	2.33765	0	
0.7053	-68.7549	1.13543	0	
0.7060	-88.5638	0.20037	0	
0.7067	-83.3758	-1.3358	0	
0.7073	-63.5668	-1.00185	0	
0.7080	-47.3738	2.07049	0	
0.7087	-40.0371	2.6716	0	
0.7093	-33.6438	0.20037	0	
0.7100	-25.4162	1.40259	0	
0.7107	-21.1191	2.93876	0	
0.7113	-21.7479	2.07049	0	
0.7120	-18.7085	1.40259	0	
0.7127	-7.70348	2.07049	0	
0.7133	2.04378	1.40259	0	
0.7140	6.02653	1.73654	0	
0.7147	7.54627	1.73654	0	
0.7153	5.39768	0.801481	0	
0.7160	2.35821	0.53432	0	
0.7167	2.98706	0.20037	0	
0.7173	3.56351	0.20037	0	
0.7180	0.209619	1.13543	0	
0.7187	-4.34958	0.53432	0	
0.7193	-5.29287	-0.0667901	0	
0.7200	-1.62454	-0.734691	0	
0.7207	4.5068	-3.13913	0	
0.7213	10.5857	-3.13913	0	
0.7220	11.529	1.13543	0	
0.7227	6.65539	3.53987	0	
0.7233	5.7121	3.27271	0	
0.7240	10.2713	2.93876	0	
0.7247	10.2713	1.73654	0	
0.7253	8.17512	1.13543	0	
0.7260	15.4594	0.801481	0	
0.7267	33.1721	-1.93691	0	
0.7273	50.8849	-3.13913	0	
0.7280	56.073	-0.40074	0	
0.7287	44.4915	0.20037	0	
0.7293	21.9051	-0.734691	0	
0.7300	-9.22322	0.53432	0	
0.7307	-34.5871	0.801481	0	
0.7313	-33.9582	0.20037	0	
0.7320	-21.4335	0.801481	0	
0.7327	-17.1887	0.20037	0	
0.7333	-11.6862	-1.00185	0	
0.7340	-3.45871	-1.3358	0	
0.7347	-2.82985	-1.60296	0	
0.7353	-3.14428	0.20037	0	
0.7360	-1.31012	2.6716	0	
0.7367	-4.97844	1.73654	0	
0.7373	-5.29287	-0.0667901	0	
0.7380	1.46733	0.801481	0	
0.7387	4.19237	0.20037	0	
0.7393	5.08325	-2.53802	0	
0.7400	12.1055	-1.3358	0	
0.7407	20.6474	0.801481	0	
0.7413	27.0932	0.53432	0	
0.7420	31.6524	0.801481	0	
0.7427	34.3774	0.53432	0	
0.7433	38.0458	-1.3358	0	
0.7440	37.7837	-1.60296	0	
0.7447	23.4249	-0.734691	0	
0.7453	2.04378	-2.53802	0	
0.7460	-12.2627	-4.34135	0	
0.7467	-17.1887	-3.47308	0	
0.7473	-19.2849	-2.20407	0	
0.7480	-19.0229	0.20037	0	
0.7487	-14.0968	2.93876	0	
0.7493	-8.01791	0.20037	0	
0.7500	-3.72073	-3.13913	0	
0.7507	4.82123	-1.93691	0	
0.7513	23.1104	-0.40074	0	
0.7520	35.9496	-0.40074	0	
0.7527	27.6696	0.20037	0	
0.7533	4.82123	-0.734691	0	
0.7540	-11.6862	-0.734691	0	
0.7547	-15.3546	2.07049	0	
0.7553	-14.0968	2.07049	0	
0.7560	-12.2627	-1.3358	0	
0.7567	-11.6862	-0.734691	0	
0.7573	-20.857	1.13543	0	
0.7580	-37.3121	0.20037	0	
0.7587	-43.129	0.801481	0	
0.7593	-35.4779	2.07049	0	
0.7600	-25.7307	1.73654	0	
0.7607	-12.2627	1.73654	0	
0.7613	6.65539	2.07049	0	
0.7620	24.9446	1.13543	0	
0.7627	38.3602	0.53432	0	
0.7633	40.5088	-0.0667901	0	
0.7640	32.2813	-0.734691	0	
0.7647	26.7788	-0.734691	0	
0.7653	16.7171	-1.3358	0	
0.7660	-9.22322	-0.40074	0	
0.7667	-29.661	1.40259	0	
0.7673	-28.7701	-0.734691	0	
0.7680	-23.5821	-2.53802	0	
0.7687	-22.6388	0.53432	0	
0.7693	-17.7652	0.53432	0	
0.7700	-12.2627	-3.13913	0	
0.7707	-9.85207	-2.53802	0	
0.7713	-8.90879	0.53432	0	
0.7720	-10.4809	2.07049	0	
0.7727	-10.1665	4.20777	0	
0.7733	-4.97844	2.93876	0	
0.7740	2.35821	0.20037	0	
0.7747	11.529	0.801481	0	
0.7753	20.9619	1.73654	0	
0.7760	23.4249	0.20037	0	
0.7767	21.2763	1.13543	0	
0.7773	18.5512	3.53987	0	
0.7780	15.4594	2.6716	0	
0.7787	11.8434	1.13543	0	
0.7793	5.08325	1.73654	0	
0.7800	-5.86932	1.73654	0	
0.7807	-11.6862	0.20037	0	
0.7813	-9.22322	-1.3358	0	
0.7820	-5.29287	-1.3358	0	
0.7827	0.209619	-0.0667901	0	
0.7833	5.39768	0.53432	0	
0.7840	3.30149	0.20037	0	
0.7847	1.1529	0.801481	0	
0.7853	5.7121	3.27271	0	
0.7860	6.65539	4.47493	0	
0.7867	2.35821	3.53987	0	
0.7873	4.19237	2.33765	0	
0.7880	9.066	1.40259	0	
0.7887	6.91741	0.53432	0	
0.7893	4.19237	1.73654	0	
0.7900	1.1529	2.93876	0	
0.7907	-7.38905	2.07049	0	
0.7913	-13.5204	1.13543	0	
0.7920	-9.85207	1.13543	0	
0.7927	-4.03516	-1.93691	0	
0.7933	1.72935	-3.74024	0	
0.7940	7.54627	-1.3358	0	
0.7947	8.43715	1.13543	0	
0.7953	8.43715	1.13543	0	
0.7960	14.2541	1.13543	0	
0.7967	27.6696	0.20037	0	
0.7973	42.0285	-0.734691	0	
0.7980	47.8454	-0.734691	0	
0.7987	39.8799	-1.3358	0	
0.7993	28.2985	-0.734691	0	
0.8000	20.3854	-0.734691	0	
0.8007	10.5857	-5.27641	0	
0.8013	0.209619	-5.87752	0	
0.8020	-2.20099	-1.60296	0	
0.8027	-0.366832	-2.20407	0	
0.8033	-2.51542	-3.47308	0	
0.8040	-1.62454	-0.734691	0	
0.8047	11.2146	-0.734691	0	
0.8053	24.9446	-2.53802	0	
0.8060	25.259	-0.734691	0	
0.8067	21.5907	-2.20407	0	
0.8073	26.7788	-4.34135	0	
0.8080	29.5038	-0.0667901	0	
0.8087	10.2713	0.20037	0	
0.8093	-26.936	-3.13913	0	
0.8100	-53.5051	-0.734691	0	
0.8107	-52.8763	-0.734691	0	
0.8113	-41.6093	-5.61036	0	
0.8120	-34.5871	-5.61036	0	
0.8127	-25.4162	-4.34135	0	
0.8133	-17.1887	-6.21147	0	
0.8140	-18.7085	-2.87197	0	
0.8147	-20.857	1.40259	0	
0.8153	-12.5771	-0.734691	0	
0.8160	-3.14428	-1.00185	0	
0.8167	-2.20099	1.13543	0	
0.8173	-6.18375	-0.734691	0	
0.8180	-4.34958	-1.3358	0	
0.8187	-0.366832	0.53432	0	
0.8193	-0.995688	0.20037	0	
0.8200	-0.68126	0.20037	0	
0.8207	4.82123	2.07049	0	
0.8213	5.08325	2.33765	0	
0.8220	2.04378	1.40259	0	
0.8227	7.54627	1.13543	0	
0.8233	15.4594	1.13543	0	
0.8240	15.7738	1.13543	0	
0.8247	16.0882	1.13543	0	
0.8253	17.2935	-0.734691	0	
0.8260	15.7738	-1.60296	0	
0.8267	16.0882	0.20037	0	
0.8273	19.1277	2.33765	0	
0.8280	21.2763	0.53432	0	
0.8287	21.2763	-0.734691	0	
0.8293	16.7171	0.801481	0	
0.8300	8.43715	0.53432	0	
0.8307	4.19237	0.20037	0	
0.8313	3.87794	2.33765	0	
0.8320	1.1529	2.6716	0	
0.8327	-6.18375	1.13543	0	
0.8333	-14.4113	2.07049	0	
0.8340	-19.0229	1.13543	0	
0.8347	-14.4113	-0.734691	0	
0.8353	-3.72073	1.40259	0	
0.8360	3.30149	2.93876	0	
0.8367	6.65539	1.13543	0	
0.8373	8.75157	-0.0667901	0	
0.8380	6.65539	2.07049	0	
0.8387	4.19237	4.80888	0	
0.8393	11.2146	3.87382	0	
0.8400	17.608	1.13543	0	
0.8407	12.1055	1.13543	0	
0.8413	7.86069	2.6716	0	
0.8420	11.8434	2.07049	0	
0.8427	16.4026	2.07049	0	
0.8433	24.0013	5.40999	0	
0.8440	25.8355	6.0111	0	
0.8447	7.23184	2.33765	0	
0.8453	-9.53764	-1.60296	0	
0.8460	-5.29287	-1.60296	0	
0.8467	-5.86932	2.07049	0	
0.8473	-17.7652	2.93876	0	
0.8480	-21.1191	0.53432	0	
0.8487	-23.5821	0.801481	0	
0.8493	-33.0149	2.93876	0	
0.8500	-37.3121	3.27271	0	
0.8507	-36.9977	2.93876	0	
0.8513	-34.8491	2.07049	0	
0.8520	-23.5821	-0.40074	0	
0.8527	-12.0007	-1.3358	0	
0.8533	-7.07463	-0.40074	0	
0.8540	-2.51542	1.13543	0	
0.8547	1.46733	2.93876	0	
0.8553	3.87794	2.93876	0	
0.8560	6.65539	0.53432	0	
0.8567	5.39768	0.53432	0	
0.8573	-1.88657	2.07049	0	
0.8580	-12.8915	2.33765	0	
0.8587	-22.9532	1.73654	0	
0.8593	-19.0229	0.801481	0	
0.8600	-4.03516	0.53432	0	
0.8607	2.98706	0.801481	0	
0.8613	3.30149	-1.00185	0	
0.8620	4.19237	-1.93691	0	
0.8627	-1.88657	0.801481	0	
0.8633	-11.6862	1.73654	0	
0.8640	-14.7257	0.20037	0	
0.8647	-15.931	1.73654	0	
0.8653	-20.5426	2.07049	0	
0.8660	-19.9138	-0.40074	0	
0.8667	-13.5204	-0.0667901	0	
0.8673	-10.1665	1.13543	0	
0.8680	-10.4809	1.13543	0	
0.8687	-9.85207	1.13543	0	
0.8693	-10.7429	0.801481	0	
0.8700	-14.4113	-1.00185	0	
0.8707	-16.2454	-1.93691	0	
0.8713	-12.0007	-2.20407	0	
0.8720	-7.70348	-1.93691	0	
0.8727	-4.34958	-0.734691	0	
0.8733	6.02653	0.20037	0	
0.8740	27.6696	-1.3358	0	
0.8747	50.5705	-2.53802	0	
0.8753	63.4096	-1.60296	0	
0.8760	61.5754	-0.40074	0	
0.8767	44.1771	-2.20407	0	
0.8773	13.9396	-5.27641	0	
0.8780	-12.2627	-5.87752	0	
0.8787	-13.5204	-4.34135	0	
0.8793	2.35821	-3.47308	0	
0.8800	10.2713	-4.34135	0	
0.8807	1.1529	-5.27641	0	
0.8813	-18.394	-4.07419	0	
0.8820	-37.6265	-2.53802	0	
0.8827	-40.9804	-4.07419	0	
0.8833	-28.1413	-5.61036	0	
0.8840	-16.2454	-5.61036	0	
0.8847	-13.5204	-5.27641	0	
0.8853	-13.5204	-4.34135	0	
0.8860	-13.5204	-4.34135	0	
0.8867	-12.8915	-3.47308	0	
0.8873	-10.7429	-1.60296	0	
0.8880	-8.64676	-1.93691	0	
0.8887	-4.66401	-3.47308	0	
0.8893	4.82123	-4.07419	0	
0.8900	18.8133	-4.34135	0	
0.8907	30.4471	-4.07419	0	
0.8913	28.9274	-2.53802	0	
0.8920	11.529	-3.13913	0	
0.8927	-7.70348	-4.07419	0	
0.8933	-17.1887	-2.87197	0	
0.8940	-23.5821	-3.13913	0	
0.8947	-27.5648	-3.47308	0	
0.8953	-19.5993	-1.60296	0	
0.8960	-1.62454	-2.53802	0	
0.8967	19.7565	-5.27641	0	
0.8973	38.3602	-3.13913	0	
0.8980	46.0113	-1.3358	0	
0.8987	45.068	-3.13913	0	
0.8993	44.7536	-2.87197	0	
0.9000	42.3429	-1.60296	0	
0.9007	29.5038	-2.53802	0	
0.9013	9.066	-2.53802	0	
0.9020	-11.6862	-1.60296	0	
0.9027	-25.7307	-3.13913	0	
0.9033	-33.3293	-2.87197	0	
0.9040	-41.8713	-1.00185	0	
0.9047	-48.0026	-3.13913	0	
0.9053	-41.6093	-6.21147	0	
0.9060	-29.399	-5.00925	0	
0.9067	-13.8348	-2.53802	0	
0.9073	11.8434	-2.53802	0	
0.9080	37.4693	-1.93691	0	
0.9087	46.3257	0.53432	0	
0.9093	41.3997	1.40259	0	
0.9100	33.1721	1.73654	0	
0.9107	17.9224	2.93876	0	
0.9113	-9.85207	2.07049	0	
0.9120	-33.6438	0.20037	0	
0.9127	-34.2726	0.53432	0	
0.9133	-22.6388	2.07049	0	
0.9140	-19.9138	2.93876	0	
0.9147	-20.5426	2.93876	0	
0.9153	-14.4113	1.13543	0	
0.9160	-8.33234	0.53432	0	
0.9167	-3.72073	2.93876	0	
0.9173	0.524046	3.87382	0	
0.9180	0.209619	4.20777	0	
0.9187	-0.104809	7.54728	0	
0.9193	5.39768	6.0111	0	
0.9200	7.86069	1.13543	0	
0.9207	4.5068	2.07049	0	
0.9213	3.87794	4.47493	0	
0.9220	5.39768	2.07049	0	
0.9227	2.35821	0.53432	0	
0.9233	1.1529	2.33765	0	
0.9240	4.19237	1.73654	0	
0.9247	4.5068	0.53432	0	
0.9253	3.56351	2.07049	0	
0.9260	10.5857	2.93876	0	
0.9267	19.4421	2.93876	0	
0.9273	19.4421	1.13543	0	
0.9280	18.5512	1.13543	0	
0.9287	25.8355	2.6716	0	
0.9293	20.6474	2.07049	0	
0.9300	-12.2627	0.20037	0	
0.9307	-41.8713	2.33765	0	
0.9313	-40.9804	2.93876	0	
0.9320	-25.7307	-1.00185	0	
0.9327	-17.1887	-1.60296	0	
0.9333	-12.2627	2.33765	0	
0.9340	-9.22322	1.73654	0	
0.9347	-8.33234	-1.60296	0	
0.9353	-3.45871	-1.60296	0	
0.9360	7.23184	0.20037	0	
0.9367	17.608	1.13543	0	
0.9373	29.5038	1.40259	0	
0.9380	42.0285	-0.734691	0	
0.9387	46.5877	-3.74024	0	
0.9393	37.7837	-4.07419	0	
0.9400	18.5512	-1.60296	0	
0.9407	-4.34958	-0.734691	0	
0.9413	-24.473	-0.734691	0	
0.9420	-36.9977	-1.3358	0	
0.9427	-34.2726	-2.53802	0	
0.9433	-22.6388	-2.20407	0	
0.9440	-19.0229	-2.53802	0	
0.9447	-17.7652	-3.74024	0	
0.9453	-6.18375	-4.34135	0	
0.9460	4.5068	-3.13913	0	
0.9467	5.39768	-4.07419	0	
0.9473	8.17512	-5.87752	0	
0.9480	10.5857	-5.27641	0	
0.9487	7.54627	-3.47308	0	
0.9493	5.39768	-2.87197	0	
0.9500	3.87794	-2.53802	0	
0.9507	2.35821	-1.93691	0	
0.9513	3.87794	-1.60296	0	
0.9520	-0.68126	-1.60296	0	
0.9527	-13.8348	-1.3358	0	
0.9533	-16.5599	-1.60296	0	
0.9540	-6.49817	-3.47308	0	
0.9547	-5.29287	-3.47308	0	
0.9553	-14.4113	-3.47308	0	
0.9560	-18.0796	-4.07419	0	
0.9567	-14.4113	-3.47308	0	
0.9573	-10.4809	-1.3358	0	
0.9580	-3.72073	-1.3358	0	
0.9587	13.6252	-2.53802	0	
0.9593	38.3602	-1.3358	0	
0.9600	58.2215	-1.00185	0	
0.9607	67.0779	-2.53802	0	
0.9613	62.1519	-1.00185	0	
0.9620	43.8627	3.27271	0	
0.9627	15.1973	3.87382	0	
0.9633	-21.1191	0.20037	0	
0.9640	-54.0816	-2.53802	0	
0.9647	-68.126	-3.47308	0	
0.9653	-63.5668	-2.53802	0	
0.9660	-53.5051	0.20037	0	
0.9667	-44.6487	1.40259	0	
0.9673	-36.6832	-0.734691	0	
0.9680	-27.5648	-2.87197	0	
0.9687	-17.4507	-1.93691	0	
0.9693	-9.22322	-1.60296	0	
0.9700	-4.34958	-2.87197	0	
0.9707	-1.88657	-3.47308	0	
0.9713	-5.29287	-2.53802	0	
0.9720	-8.90879	-2.53802	0	
0.9727	-9.22322	-4.07419	0	
0.9733	-11.0574	-2.53802	0	
0.9740	-15.931	0.20037	0	
0.9747	-17.1887	0.20037	0	
0.9753	-11.0574	-0.734691	0	
0.9760	-0.995688	-0.734691	0	
0.9767	8.17512	-1.60296	0	
0.9773	20.3854	-0.0667901	0	
0.9780	41.1376	1.73654	0	
0.9787	60.9466	-0.734691	0	
0.9793	71.3227	-0.734691	0	
0.9800	69.803	4.47493	0	
0.9807	40.1944	4.20777	0	
0.9813	-14.7257	0.53432	0	
0.9820	-50.4133	1.73654	0	
0.9827	-51.0421	2.07049	0	
0.9833	-44.6487	-1.60296	0	
0.9840	-36.6832	-1.00185	0	
0.9847	-18.0796	1.73654	0	
0.9853	0.209619	1.13543	0	
0.9860	10.5857	-0.40074	0	
0.9867	13.6252	0.20037	0	
0.9873	7.54627	0.801481	0	
0.9880	1.72935	1.13543	0	
0.9887	2.98706	1.40259	0	
0.9893	2.04378	1.40259	0	
0.9900	2.04378	-0.734691	0	
0.9907	6.02653	-2.87197	0	
0.9913	4.82123	-2.53802	0	
0.9920	0.209619	-2.20407	0	
0.9927	2.35821	-2.20407	0	
0.9933	8.17512	-0.734691	0	
0.9940	11.8434	1.13543	0	
0.9947	14.5685	0.801481	0	
0.9953	15.1973	0.20037	0	
0.9960	13.0488	-1.60296	0	
0.9967	4.82123	-3.74024	0	
0.9973	-10.7429	-1.60296	0	
0.9980	-22.3768	1.73654	0	
0.9987	-16.2454	1.13543	0	
0.9993	-0.995688	-0.0667901	0	
1.0000	8.43715	-0.0667901	0	
1.0007	10.2713	-0.734691	0	
1.0013	10.9002	-0.734691	0	
1.0020	12.7343	-0.0667901	0	
1.0027	12.4199	-1.60296	0	
1.0033	7.54627	-3.47308	0	
1.0040	-0.104809	-2.20407	0	
1.0047	-7.07463	0.801481	0	
1.0053	-12.0007	2.07049	0	
1.0060	-15.931	0.53432	0	
1.0067	-19.9138	-0.734691	0	
1.0073	-22.3768	-1.00185	0	
1.0080	-22.0623	-2.87197	0	
1.0087	-19.0229	-3.74024	0	
1.0093	-12.0007	-1.60296	0	
1.0100	-6.18375	-0.734691	0	
1.0107	-3.45871	-1.00185	0	
1.0113	7.54627	-0.0667901	0	
1.0120	29.5038	-1.60296	0	
1.0127	47.8454	-3.74024	0	
1.0133	59.4269	-1.60296	0	
1.0140	69.803	0.20037	0	
1.0147	69.803	-2.53802	0	
1.0153	52.7191	-4.34135	0	
1.0160	28.6129	-1.3358	0	
1.0167	-4.66401	0.20037	0	
1.0173	-47.3738	-1.60296	0	
1.0180	-73.3141	-0.734691	0	
1.0187	-66.6063	1.13543	0	
1.0193	-45.5396	-0.734691	0	
1.0200	-31.4952	-3.74024	0	
1.0207	-23.5821	-3.13913	0	
1.0213	-15.3546	-1.93691	0	
1.0220	-7.38905	-2.53802	0	
1.0227	-1.62454	-3.13913	0	
1.0233	3.87794	-2.20407	0	
1.0240	9.69486	-1.60296	0	
1.0247	16.0882	-0.734691	0	
1.0253	23.1104	1.73654	0	
1.0260	22.2196	2.93876	0	
1.0267	6.34096	2.07049	0	
1.0273	-9.22322	1.40259	0	
1.0280	-17.4507	-0.0667901	0	
1.0287	-26.3071	-1.00185	0	
1.0293	-31.4952	0.53432	0	
1.0300	-24.7874	1.73654	0	
1.0307	-15.0401	0.20037	0	
1.0313	-8.01791	0.20037	0	
1.0320	-1.88657	0.20037	0	
1.0327	-0.366832	-0.734691	0	
1.0333	-1.88657	-0.0667901	0	
1.0340	-1.31012	-0.0667901	0	
1.0347	-0.366832	-0.734691	0	
1.0353	-0.995688	1.40259	0	
1.0360	0.209619	2.6716	0	
1.0367	2.98706	1.40259	0	
1.0373	4.82123	2.33765	0	
1.0380	6.65539	3.53987	0	
1.0387	7.54627	2.6716	0	
1.0393	7.54627	3.53987	0	
1.0400	8.75157	3.87382	0	
1.0407	13.0488	2.93876	0	
1.0413	16.7171	3.53987	0	
1.0420	17.608	2.93876	0	
1.0427	24.6302	2.07049	0	
1.0433	44.1771	3.53987	0	
1.0440	64.6149	2.93876	0	
1.0447	72.528	2.93876	0	
1.0453	62.4663	7.54728	0	
1.0460	33.801	7.54728	0	
1.0467	-12.8915	2.07049	0	
1.0473	-58.3788	2.6716	0	
1.0480	-72.4232	5.67715	0	
1.0487	-51.671	3.53987	0	
1.0493	-26.0451	2.07049	0	
1.0500	-15.931	3.53987	0	
1.0507	-14.7257	2.07049	0	
1.0513	-15.3546	0.20037	0	
1.0520	-17.7652	1.40259	0	
1.0527	-17.1887	1.73654	0	
1.0533	-11.0574	1.13543	0	
1.0540	-5.55489	1.40259	0	
1.0547	-3.45871	1.13543	0	
1.0553	0.838474	-0.0667901	0	
1.0560	5.7121	0.20037	0	
1.0567	6.65539	2.93876	0	
1.0573	6.02653	3.27271	0	
1.0580	7.54627	0.801481	0	
1.0587	8.43715	0.801481	0	
1.0593	4.82123	1.73654	0	
1.0600	0.524046	0.20037	0	
1.0607	2.67264	-0.0667901	0	
1.0613	10.5857	1.73654	0	
1.0620	17.608	0.53432	0	
1.0627	17.9224	-1.60296	0	
1.0633	17.0315	-0.734691	0	
1.0640	26.7788	-1.3358	0	
1.0647	38.6746	-3.13913	0	
1.0653	28.6129	-2.87197	0	
1.0660	-0.366832	-1.93691	0	
1.0667	-24.473	-2.53802	0	
1.0673	-43.391	-2.53802	0	
1.0680	-60.5273	-1.93691	0	
1.0687	-58.3788	-1.93691	0	
1.0693	-40.9804	-2.87197	0	
1.0700	-28.4557	-4.07419	0	
1.0707	-16.2454	-3.74024	0	
1.0713	4.19237	-2.53802	0	
1.0720	24.9446	-1.60296	0	
1.0727	38.3602	-0.734691	0	
1.0733	37.7837	0.20037	0	
1.0740	27.0932	0.53432	0	
1.0747	18.5512	0.20037	0	
1.0753	4.5068	0.53432	0	
1.0760	-16.2454	0.801481	0	
1.0767	-19.2849	2.07049	0	
1.0773	-6.18375	4.20777	0	
1.0780	2.04378	4.47493	0	
1.0787	9.066	0.53432	0	
1.0793	17.608	-1.93691	0	
1.0800	14.8829	0.53432	0	
1.0807	5.08325	2.93876	0	
1.0813	-0.366832	1.73654	0	
1.0820	-6.49817	2.07049	0	
1.0827	-14.7257	2.33765	0	
1.0833	-19.0229	0.20037	0	
1.0840	-19.0229	-0.734691	0	
1.0847	-15.669	0.20037	0	
1.0853	-11.3718	-1.60296	0	
1.0860	-6.18375	-3.13913	0	
1.0867	-0.68126	-1.93691	0	
1.0873	2.35821	-0.734691	0	
1.0880	5.08325	-1.60296	0	
1.0887	11.529	-3.47308	0	
1.0893	15.4594	-2.53802	0	
1.0900	13.3632	-0.0667901	0	
1.0907	9.066	-0.734691	0	
1.0913	5.39768	-1.93691	0	
1.0920	1.1529	-0.734691	0	
1.0927	-8.64676	-0.734691	0	
1.0933	-21.7479	-3.47308	0	
1.0940	-26.0451	-3.13913	0	
1.0947	-21.1191	-1.3358	0	
1.0953	-22.0623	-2.53802	0	
1.0960	-22.6388	-1.93691	0	
1.0967	-8.90879	1.40259	0	
1.0973	10.2713	0.53432	0	
1.0980	29.5038	-2.53802	0	
1.0987	48.7363	-1.3358	0	
1.0993	57.2783	0.20037	0	
1.1000	53.3479	-0.734691	0	
1.1007	43.5482	-0.734691	0	
1.1013	21.2763	0.20037	0	
1.1020	-11.6862	1.13543	0	
1.1027	-27.2504	2.07049	0	
1.1033	-16.2454	0.801481	0	
1.1040	-4.34958	-0.0667901	0	
1.1047	-0.995688	2.07049	0	
1.1053	2.67264	1.40259	0	
1.1060	7.86069	-1.00185	0	
1.1067	12.1055	1.40259	0	
1.1073	15.1973	2.07049	0	
1.1080	9.38043	-1.93691	0	
1.1087	-5.29287	-3.13913	0	
1.1093	-16.2454	-2.53802	0	
1.1100	-21.7479	-3.47308	0	
1.1107	-28.7701	-2.20407	0	
1.1113	-32.7529	-1.3358	0	
1.1120	-32.4385	-1.60296	0	
1.1127	-28.4557	-0.40074	0	
1.1133	-15.3546	-1.00185	0	
1.1140	0.209619	-2.20407	0	
1.1147	2.98706	0.20037	0	
1.1153	-1.88657	1.73654	0	
1.1160	-0.68126	0.801481	0	
1.1167	1.72935	2.33765	0	
1.1173	-3.72073	3.27271	0	
1.1180	-9.85207	2.6716	0	
1.1187	-11.6862	2.07049	0	
1.1193	-14.4113	1.13543	0	
1.1200	-17.4507	2.07049	0	
1.1207	-13.5204	4.80888	0	
1.1213	-5.29287	3.87382	0	
1.1220	-0.104809	1.13543	0	
1.1227	1.1529	2.93876	0	
1.1233	1.72935	3.27271	0	
1.1240	2.98706	1.13543	0	
1.1247	6.02653	0.20037	0	
1.1253	7.86069	-0.0667901	0	
1.1260	2.35821	-1.00185	0	
1.1267	-5.29287	1.40259	0	
1.1273	-8.33234	4.20777	0	
1.1280	-8.90879	2.33765	0	
1.1287	-8.90879	-1.3358	0	
1.1293	-2.82985	-2.87197	0	
1.1300	8.17512	-2.87197	0	
1.1307	23.7393	-2.20407	0	
1.1313	38.989	-0.734691	0	
1.1320	40.5088	-1.60296	0	
1.1327	32.2813	-4.07419	0	
1.1333	31.6524	-5.00925	0	
1.1340	27.4076	-3.74024	0	
1.1347	3.30149	-3.13913	0	
1.1353	-18.0796	-3.47308	0	
1.1360	-16.2454	-3.47308	0	
1.1367	-4.34958	-3.47308	0	
1.1373	0.209619	-2.53802	0	
1.1380	-3.14428	-2.20407	0	
1.1387	-4.66401	-2.53802	0	
1.1393	-2.82985	-1.60296	0	
1.1400	-7.70348	-0.0667901	0	
1.1407	-15.931	-1.60296	0	
1.1413	-13.5204	-4.07419	0	
1.1420	-3.45871	-1.60296	0	
1.1427	5.08325	1.13543	0	
1.1433	11.529	-1.00185	0	
1.1440	11.529	-2.53802	0	
1.1447	2.04378	0.53432	0	
1.1453	-8.64676	2.6716	0	
1.1460	-17.1887	1.13543	0	
1.1467	-21.4335	-0.40074	0	
1.1473	-15.931	0.53432	0	
1.1480	-6.49817	1.73654	0	
1.1487	-4.97844	0.20037	0	
1.1493	-8.33234	-3.47308	0	
1.1500	-8.01791	-4.34135	0	
1.1507	-4.34958	-1.60296	0	
1.1513	-0.68126	-0.40074	0	
1.1520	0.524046	-0.734691	0	
1.1527	3.87794	-1.00185	0	
1.1533	14.8829	-2.20407	0	
1.1540	30.4471	-2.53802	0	
1.1547	42.0285	-0.734691	0	
1.1553	38.6746	-0.734691	0	
1.1560	14.8829	-2.20407	0	
1.1567	-19.9138	-2.53802	0	
1.1573	-39.1463	-2.20407	0	
1.1580	-34.5871	-1.60296	0	
1.1587	-23.5821	-1.3358	0	
1.1593	-19.2849	-2.20407	0	
1.1600	-15.3546	-2.87197	0	
1.1607	-7.38905	-3.74024	0	
1.1613	1.46733	-4.34135	0	
1.1620	13.9396	-1.3358	0	
1.1627	31.6524	2.33765	0	
1.1633	40.5088	0.53432	0	
1.1640	28.6129	-1.3358	0	
1.1647	6.65539	0.801481	0	
1.1653	-8.90879	0.801481	0	
1.1660	-18.0796	-1.60296	0	
1.1667	-22.6388	-1.3358	0	
1.1673	-18.7085	-1.00185	0	
1.1680	-11.0574	-2.20407	0	
1.1687	-7.07463	-1.93691	0	
1.1693	-6.18375	-2.53802	0	
1.1700	-8.90879	-3.47308	0	
1.1707	-17.1887	-3.47308	0	
1.1713	-26.3071	-4.07419	0	
1.1720	-26.6216	-5.27641	0	
1.1727	-12.0007	-5.00925	0	
1.1733	9.38043	-4.6753	0	
1.1740	20.6474	-5.00925	0	
1.1747	22.2196	-4.07419	0	
1.1753	24.9446	-3.13913	0	
1.1760	28.6129	-3.47308	0	
1.1767	24.9446	-4.6753	0	
1.1773	14.5685	-5.27641	0	
1.1780	1.1529	-2.53802	0	
1.1787	-8.90879	0.53432	0	
1.1793	-13.5204	-1.3358	0	
1.1800	-14.7257	-3.74024	0	
1.1807	-11.0574	-3.13913	0	
1.1813	-2.51542	-2.53802	0	
1.1820	-0.104809	-2.87197	0	
1.1827	-4.34958	-1.60296	0	
1.1833	-4.03516	-1.00185	0	
1.1840	0.524046	-1.3358	0	
1.1847	2.67264	-1.3358	0	
1.1853	0.524046	-3.47308	0	
1.1860	-2.82985	-5.27641	0	
1.1867	1.1529	-3.47308	0	
1.1873	14.2541	-2.20407	0	
1.1880	24.0013	-3.13913	0	
1.1887	24.0013	-2.20407	0	
1.1893	19.4421	-2.87197	0	
1.1900	12.4199	-5.27641	0	
1.1907	6.65539	-3.13913	0	
1.1913	2.98706	-0.734691	0	
1.1920	-3.72073	-4.07419	0	
1.1927	-7.07463	-6.47864	0	
1.1933	-0.68126	-5.87752	0	
1.1940	6.65539	-6.21147	0	
1.1947	14.2541	-3.74024	0	
1.1953	27.6696	1.73654	0	
1.1960	33.4866	2.6716	0	
1.1967	26.7788	0.20037	0	
1.1973	16.7171	0.801481	0	
1.1980	-4.34958	1.13543	0	
1.1987	-33.6438	-0.734691	0	
1.1993	-40.0371	-0.734691	0	
1.2000	-23.5821	-0.0667901	0	
1.2007	-11.6862	-0.40074	0	
1.2013	-9.53764	-0.0667901	0	
1.2020	-10.7429	-1.3358	0	
1.2027	-16.2454	-0.734691	0	
1.2033	-23.2677	2.93876	0	
1.2040	-26.6216	2.33765	0	
1.2047	-26.0451	-1.60296	0	
1.2053	-24.7874	-1.60296	0	
1.2060	-26.3071	0.20037	0	
1.2067	-23.2677	-0.734691	0	
1.2073	-11.6862	0.801481	0	
1.2080	-3.72073	2.07049	0	
1.2087	-3.45871	-0.0667901	0	
1.2093	-0.68126	-0.734691	0	
1.2100	1.1529	0.53432	0	
1.2107	-2.82985	1.40259	0	
1.2113	-7.07463	4.20777	0	
1.2120	-14.7257	5.67715	0	
1.2127	-24.7874	2.93876	0	
1.2133	-20.857	2.07049	0	
1.2140	-6.18375	4.80888	0	
1.2147	0.209619	5.67715	0	
1.2153	3.56351	5.07604	0	
1.2160	16.4026	5.40999	0	
1.2167	31.338	5.67715	0	
1.2173	40.1944	5.40999	0	
1.2180	41.1376	4.47493	0	
1.2187	27.9841	3.87382	0	
1.2193	7.23184	2.93876	0	
1.2200	-6.49817	2.07049	0	
1.2207	-13.5204	1.40259	0	
1.2213	-18.0796	1.40259	0	
1.2220	-13.5204	0.20037	0	
1.2227	0.209619	-0.40074	0	
1.2233	15.4594	-0.0667901	0	
1.2240	29.8182	-1.60296	0	
1.2247	38.989	-2.53802	0	
1.2253	33.1721	-1.00185	0	
1.2260	14.2541	0.801481	0	
1.2267	-11.6862	0.801481	0	
1.2273	-38.8318	-0.40074	0	
1.2280	-52.2474	-2.53802	0	
1.2287	-41.8713	-4.34135	0	
1.2293	-22.3768	-3.74024	0	
1.2300	-12.2627	-2.87197	0	
1.2307	-10.4809	-2.87197	0	
1.2313	-9.53764	-2.53802	0	
1.2320	-8.01791	-1.3358	0	
1.2327	-3.14428	-2.53802	0	
1.2333	2.67264	-3.13913	0	
1.2340	2.04378	-1.3358	0	
1.2347	2.35821	-2.87197	0	
1.2353	13.9396	-7.14654	0	
1.2360	25.5735	-5.27641	0	
1.2367	28.6129	-1.00185	0	
1.2373	32.2813	-2.53802	0	
1.2380	37.1549	-3.47308	0	
1.2387	37.4693	-0.734691	0	
1.2393	31.0235	-1.60296	0	
1.2400	20.071	-3.74024	0	
1.2407	10.2713	-2.53802	0	
1.2413	4.19237	-3.13913	0	
1.2420	-10.1665	-5.00925	0	
1.2427	-30.9187	-1.3358	0	
1.2433	-39.1463	2.07049	0	
1.2440	-40.3516	-0.0667901	0	
1.2447	-46.4829	-0.734691	0	
1.2453	-44.6487	2.93876	0	
1.2460	-31.8096	2.93876	0	
1.2467	-20.2282	1.13543	0	
1.2473	-12.5771	2.33765	0	
1.2480	-6.49817	2.93876	0	
1.2487	-6.18375	1.13543	0	
1.2493	-7.07463	2.07049	0	
1.2500	-6.49817	2.93876	0	
1.2507	-10.1665	1.40259	0	
1.2513	-12.5771	2.07049	0	
1.2520	-9.22322	4.47493	0	
1.2527	-5.29287	2.33765	0	
1.2533	-4.97844	0.801481	0	
1.2540	-7.07463	2.33765	0	
1.2547	-8.33234	2.07049	0	
1.2553	-4.34958	0.53432	0	
1.2560	2.04378	2.6716	0	
1.2567	7.54627	3.27271	0	
1.2573	18.5512	2.07049	0	
1.2580	35.0063	3.53987	0	
1.2587	46.9021	3.53987	0	
1.2593	47.2166	2.07049	0	
1.2600	42.3429	3.87382	0	
1.2607	42.3429	3.87382	0	
1.2613	40.1944	0.53432	0	
1.2620	19.4421	1.13543	0	
1.2627	-4.97844	3.87382	0	
1.2633	-6.18375	2.33765	0	
1.2640	2.04378	-0.0667901	0	
1.2647	-3.14428	0.20037	0	
1.2653	-14.4113	0.801481	0	
1.2660	-19.0229	2.33765	0	
1.2667	-19.9138	4.47493	0	
1.2673	-22.0623	3.27271	0	
1.2680	-20.857	0.801481	0	
1.2687	-7.07463	0.20037	0	
1.2693	12.1055	0.20037	0	
1.2700	23.1104	-0.40074	0	
1.2707	24.9446	-1.3358	0	
1.2713	16.7171	0.53432	0	
1.2720	-3.45871	3.53987	0	
1.2727	-19.0229	3.27271	0	
1.2733	-20.857	0.20037	0	
1.2740	-21.4335	-0.40074	0	
1.2747	-23.5821	1.13543	0	
1.2753	-19.0229	0.20037	0	
1.2760	-15.3546	-0.0667901	0	
1.2767	-14.4113	2.33765	0	
1.2773	-12.8915	1.40259	0	
1.2780	-14.4113	-0.734691	0	
1.2787	-14.7257	1.40259	0	
1.2793	-1.62454	2.6716	0	
1.2800	20.3854	-0.734691	0	
1.2807	37.7837	-1.00185	0	
1.2813	48.7363	2.07049	0	
1.2820	50.5705	2.07049	0	
1.2827	33.4866	1.73654	0	
1.2833	0.209619	2.93876	0	
1.2840	-23.8965	0.20037	0	
1.2847	-20.857	-3.47308	0	
1.2853	-3.72073	-1.60296	0	
1.2860	10.2713	1.73654	0	
1.2867	20.9619	0.20037	0	
1.2873	22.4816	-0.734691	0	
1.2880	15.1973	0.20037	0	
1.2887	16.0882	0.20037	0	
1.2893	24.9446	-1.93691	0	
1.2900	24.9446	-2.20407	0	
1.2907	19.1277	-2.20407	0	
1.2913	14.5685	-4.07419	0	
1.2920	7.23184	-4.07419	0	
1.2927	-0.995688	-1.00185	0	
1.2933	-3.45871	0.20037	0	
1.2940	-0.68126	-1.00185	0	
1.2947	4.19237	-0.734691	0	
1.2953	2.98706	1.13543	0	
1.2960	-11.6862	1.13543	0	
1.2967	-31.8096	-0.734691	0	
1.2973	-37.941	-3.74024	0	
1.2980	-27.8269	-4.6753	0	
1.2987	-19.9138	-4.07419	0	
1.2993	-23.5821	-5.27641	0	
1.3000	-25.1018	-6.21147	0	
1.3007	-15.931	-3.74024	0	
1.3013	-9.22322	-2.53802	0	
1.3020	-10.4809	-5.27641	0	
1.3027	-8.90879	-7.14654	0	
1.3033	-6.18375	-5.00925	0	
1.3040	-8.01791	-4.34135	0	
1.3047	-8.90879	-6.47864	0	
1.3053	-7.70348	-7.14654	0	
1.3060	-7.07463	-4.07419	0	
1.3067	-5.29287	-3.74024	0	
1.3073	-3.45871	-6.21147	0	
1.3080	-2.82985	-3.74024	0	
1.3087	-4.97844	0.53432	0	
1.3093	-9.53764	-1.60296	0	
1.3100	-11.0574	-5.27641	0	
1.3107	-6.18375	-2.87197	0	
1.3113	-1.62454	-1.60296	0	
1.3120	-0.995688	-4.34135	0	
1.3127	2.67264	-4.07419	0	
1.3133	8.75157	-1.60296	0	
1.3140	12.7343	-3.47308	0	
1.3147	12.1055	-4.34135	0	
1.3153	8.75157	-1.60296	0	
1.3160	7.86069	-1.93691	0	
1.3167	7.54627	-4.34135	0	
1.3173	2.67264	-2.53802	0	
1.3180	0.838474	0.801481	0	
1.3187	10.9002	0.53432	0	
1.3193	26.7788	0.53432	0	
1.3200	36.8405	2.6716	0	
1.3207	38.3602	3.53987	0	
1.3213	36.526	3.27271	0	
1.3220	36.2116	3.87382	0	
1.3227	31.0235	3.87382	0	
1.3233	13.0488	3.87382	0	
1.3240	-9.85207	4.20777	0	
1.3247	-22.6388	2.6716	0	
1.3253	-23.5821	1.13543	0	
1.3260	-19.9138	2.6716	0	
1.3267	-15.931	2.93876	0	
1.3273	-9.85207	0.20037	0	
1.3280	-0.68126	0.20037	0	
1.3287	6.34096	2.93876	0	
1.3293	7.54627	1.73654	0	
1.3300	4.82123	-1.60296	0	
1.3307	-3.72073	-0.40074	0	
1.3313	-18.7085	2.07049	0	
1.3320	-33.3293	0.53432	0	
1.3327	-40.9804	-1.3358	0	
1.3333	-40.666	-0.40074	0	
1.3340	-33.0149	0.20037	0	
1.3347	-22.6388	-0.40074	0	
1.3353	-14.4113	0.20037	0	
1.3360	-8.01791	0.53432	0	
1.3367	-2.20099	0.20037	0	
1.3373	1.46733	1.73654	0	
1.3380	3.56351	2.07049	0	
1.3387	9.38043	0.20037	0	
1.3393	17.0315	-0.40074	0	
1.3400	18.5512	-0.40074	0	
1.3407	17.608	-0.734691	0	
1.3413	20.9619	0.20037	0	
1.3420	25.8355	1.40259	0	
1.3427	29.1894	0.53432	0	
1.3433	30.1327	1.13543	0	
1.3440	27.4076	2.93876	0	
1.3447	22.4816	2.6716	0	
1.3453	17.0315	0.20037	0	
1.3460	11.529	-1.3358	0	
1.3467	4.19237	-1.60296	0	
1.3473	-2.82985	-1.3358	0	
1.3480	-1.62454	-2.53802	0	
1.3487	2.98706	-3.47308	0	
1.3493	-4.97844	-1.60296	0	
1.3500	-19.9138	0.20037	0	
1.3507	-28.4557	-0.40074	0	
1.3513	-42.8146	-1.60296	0	
1.3520	-62.0471	-1.3358	0	
1.3527	-55.6013	-0.40074	0	
1.3533	-32.124	-0.0667901	0	
1.3540	-20.5426	-0.734691	0	
1.3547	-10.4809	-1.3358	0	
1.3553	7.54627	-1.93691	0	
1.3560	13.6252	-2.53802	0	
1.3567	5.7121	-1.93691	0	
1.3573	2.35821	-1.60296	0	
1.3580	2.67264	-1.60296	0	
1.3587	2.04378	-1.60296	0	
1.3593	5.7121	-1.60296	0	
1.3600	12.4199	-0.40074	0	
1.3607	13.9396	2.07049	0	
1.3613	11.529	0.53432	0	
1.3620	10.0093	-1.3358	0	
1.3627	7.86069	2.07049	0	
1.3633	2.35821	2.07049	0	
1.3640	-4.03516	-1.60296	0	
1.3647	-8.64676	1.13543	0	
1.3653	-9.85207	4.80888	0	
1.3660	-6.18375	2.33765	0	
1.3667	-0.104809	2.6716	0	
1.3673	2.35821	5.67715	0	
1.3680	4.5068	3.27271	0	
1.3687	6.65539	1.73654	0	
1.3693	2.98706	5.07604	0	
1.3700	-0.104809	6.34505	0	
1.3707	2.98706	4.20777	0	
1.3713	3.56351	2.6716	0	
1.3720	2.98706	2.07049	0	
1.3727	11.8434	3.27271	0	
1.3733	24.0013	4.80888	0	
1.3740	36.8405	3.87382	0	
1.3747	51.1993	2.6716	0	
1.3753	51.5138	2.6716	0	
1.3760	31.9668	1.40259	0	
1.3767	13.3632	0.20037	0	
1.3773	3.30149	1.40259	0	
1.3780	-10.4809	2.6716	0	
1.3787	-20.2282	1.13543	0	
1.3793	-17.4507	1.13543	0	
1.3800	-14.7257	4.80888	0	
1.3807	-15.931	5.67715	0	
1.3813	-11.6862	2.07049	0	
1.3820	-5.29287	0.801481	0	
1.3827	-4.34958	1.40259	0	
1.3833	-3.72073	1.40259	0	
1.3840	-1.88657	2.07049	0	
1.3847	-2.51542	2.07049	0	
1.3853	-2.51542	-1.3358	0	
1.3860	-0.366832	-1.60296	0	
1.3867	0.838474	-0.0667901	0	
1.3873	2.35821	-2.20407	0	
1.3880	5.7121	-2.53802	0	
1.3887	6.34096	0.53432	0	
1.3893	6.65539	-0.40074	0	
1.3900	9.066	-3.13913	0	
1.3907	7.86069	-0.734691	0	
1.3913	3.30149	1.13543	0	
1.3920	-0.366832	-0.734691	0	
1.3927	-4.97844	-1.3358	0	
1.3933	-5.55489	0.20037	0	
1.3940	4.82123	-0.734691	0	
1.3947	17.0315	-1.60296	0	
1.3953	19.4421	-1.3358	0	
1.3960	12.7343	-1.60296	0	
1.3967	-0.68126	-1.3358	0	
1.3973	-17.4507	-0.40074	0	
1.3980	-29.9754	-0.40074	0	
1.3987	-32.7529	-1.00185	0	
1.3993	-24.473	-1.00185	0	
1.4000	-8.01791	-1.00185	0	
1.4007	-0.68126	-1.60296	0	
1.4013	-2.20099	-1.93691	0	
1.4020	4.82123	-1.3358	0	
1.4027	16.7171	-0.734691	0	
1.4033	15.7738	-2.20407	0	
1.4040	13.0488	-4.07419	0	
1.4047	13.9396	-2.87197	0	
1.4053	-0.995688	-0.0667901	0	
1.4060	-26.6216	0.53432	0	
1.4067	-31.2332	-0.734691	0	
1.4073	-17.1887	-1.60296	0	
1.4080	-9.22322	-1.93691	0	
1.4087	-11.3718	-1.93691	0	
1.4093	-15.3546	-2.53802	0	
1.4100	-20.857	-3.13913	0	
1.4107	-27.5648	-2.20407	0	
1.4113	-32.7529	-0.40074	0	
1.4120	-31.8096	0.20037	0	
1.4127	-21.4335	0.20037	0	
1.4133	-10.1665	0.53432	0	
1.4140	-6.8126	0.53432	0	
1.4147	-4.34958	1.13543	0	
1.4153	0.524046	3.87382	0	
1.4160	0.209619	4.80888	0	
1.4167	-5.86932	3.87382	0	
1.4173	-8.01791	3.53987	0	
1.4180	-7.70348	1.40259	0	
1.4187	-10.1665	-1.3358	0	
1.4193	-14.0968	-1.3358	0	
1.4200	-15.669	-0.734691	0	
1.4207	-13.5204	-1.00185	0	
1.4213	-6.8126	-1.60296	0	
1.4220	3.30149	-2.87197	0	
1.4227	21.5907	-4.07419	0	
1.4233	51.7758	-1.60296	0	
1.4240	82.3277	1.13543	0	
1.4247	88.0922	1.13543	0	
1.4253	62.4663	0.801481	0	
1.4260	25.8355	1.13543	0	
1.4267	-8.01791	1.13543	0	
1.4273	-41.2948	0.801481	0	
1.4280	-61.4182	1.73654	0	
1.4287	-52.8763	3.87382	0	
1.4293	-32.7529	2.33765	0	
1.4300	-23.8965	-1.00185	0	
1.4307	-21.7479	0.53432	0	
1.4313	-19.2849	3.27271	0	
1.4320	-16.5599	1.13543	0	
1.4327	-12.5771	-0.0667901	0	
1.4333	-8.90879	1.13543	0	
1.4340	-6.18375	0.20037	0	
1.4347	-1.88657	-1.00185	0	
1.4353	2.04378	-0.40074	0	
1.4360	2.04378	-1.3358	0	
1.4367	0.838474	-2.53802	0	
1.4373	1.72935	-0.40074	0	
1.4380	3.56351	0.801481	0	
1.4387	7.54627	-0.734691	0	
1.4393	13.9396	-1.3358	0	
1.4400	16.7171	-0.734691	0	
1.4407	12.7343	-0.734691	0	
1.4413	10.2713	-3.47308	0	
1.4420	11.2146	-6.47864	0	
1.4427	11.2146	-5.61036	0	
1.4433	16.0882	-3.74024	0	
1.4440	27.0932	-5.27641	0	
1.4447	29.5038	-6.47864	0	
1.4453	20.3854	-4.34135	0	
1.4460	11.8434	-3.47308	0	
1.4467	5.08325	-3.74024	0	
1.4473	-2.20099	-2.20407	0	
1.4480	-8.01791	-0.734691	0	
1.4487	-8.01791	-0.0667901	0	
1.4493	-6.49817	0.20037	0	
1.4500	-14.7257	-0.0667901	0	
1.4507	-29.9754	-0.734691	0	
1.4513	-33.6438	-1.3358	0	
1.4520	-23.2677	-1.60296	0	
1.4527	-12.0007	-1.3358	0	
1.4533	-0.68126	-1.00185	0	
1.4540	13.9396	-2.53802	0	
1.4547	24.9446	-4.34135	0	
1.4553	29.1894	-3.13913	0	
1.4560	27.4076	-1.3358	0	
1.4567	24.3157	-2.53802	0	
1.4573	23.4249	-3.74024	0	
1.4580	21.2763	-1.60296	0	
1.4587	20.3854	-0.40074	0	
1.4593	24.9446	-2.87197	0	
1.4600	18.2368	-4.07419	0	
1.4607	-4.66401	-1.93691	0	
1.4613	-18.7085	-1.00185	0	
1.4620	-22.3768	-0.734691	0	
1.4627	-38.8318	-0.734691	0	
1.4633	-56.5446	-2.20407	0	
1.4640	-49.2079	-1.00185	0	
1.4647	-34.2726	1.73654	0	
1.4653	-29.9754	1.13543	0	
1.4660	-26.0451	-0.734691	0	
1.4667	-18.0796	-0.0667901	0	
1.4673	-16.2454	-0.0667901	0	
1.4680	-16.2454	-1.60296	0	
1.4687	-11.6862	-1.3358	0	
1.4693	-9.85207	0.20037	0	
1.4700	-9.85207	1.40259	0	
1.4707	-7.38905	2.6716	0	
1.4713	-3.14428	2.07049	0	
1.4720	2.98706	0.53432	0	
1.4727	10.9002	0.20037	0	
1.4733	15.4594	1.13543	0	
1.4740	16.7171	2.93876	0	
1.4747	19.7565	2.93876	0	
1.4753	24.3157	1.13543	0	
1.4760	24.3157	1.73654	0	
1.4767	18.8133	4.20777	0	
1.4773	13.3632	6.34505	0	
1.4780	11.2146	5.67715	0	
1.4787	12.1055	1.13543	0	
1.4793	18.5512	-0.734691	0	
1.4800	29.1894	3.87382	0	
1.4807	35.9496	5.40999	0	
1.4813	43.2338	1.13543	0	
1.4820	53.3479	1.13543	0	
1.4827	48.7363	4.20777	0	
1.4833	28.9274	2.6716	0	
1.4840	14.5685	2.07049	0	
1.4847	6.02653	3.53987	0	
1.4853	-2.51542	2.6716	0	
1.4860	-4.34958	2.93876	0	
1.4867	-1.62454	3.53987	0	
1.4873	-1.88657	0.801481	0	
1.4880	-7.70348	1.13543	0	
1.4887	-28.1413	3.53987	0	
1.4893	-54.0816	0.53432	0	
1.4900	-59.2696	-4.34135	0	
1.4907	-43.7055	-3.47308	0	
1.4913	-26.936	0.801481	0	
1.4920	-11.6862	2.07049	0	
1.4927	-1.62454	-1.60296	0	
1.4933	1.1529	-4.34135	0	
1.4940	2.35821	-1.60296	0	
1.4947	4.19237	-1.00185	0	
1.4953	6.65539	-3.47308	0	
1.4960	8.43715	-1.60296	0	
1.4967	2.04378	0.801481	0	
1.4973	-5.86932	-1.3358	0	
1.4980	-5.29287	-1.93691	0	
1.4987	-9.85207	1.13543	0	
1.4993	-21.7479	2.07049	0	
1.5000	-20.2282	-0.734691	0	
1.5007	-8.01791	-1.60296	0	
1.5013	0.209619	0.20037	0	
1.5020	4.5068	0.20037	0	
1.5027	4.82123	-1.60296	0	
1.5033	3.56351	-2.20407	0	
1.5040	12.1055	-1.3358	0	
1.5047	22.796	-1.93691	0	
1.5053	20.9619	-3.13913	0	
1.5060	14.8829	-5.00925	0	
1.5067	14.8829	-7.14654	0	
1.5073	12.7343	-6.21147	0	
1.5080	2.67264	-3.13913	0	
1.5087	-8.90879	-4.07419	0	
1.5093	-15.931	-5.27641	0	
1.5100	-21.1191	-1.93691	0	
1.5107	-26.6216	0.20037	0	
1.5113	-26.0451	-0.734691	0	
1.5120	-16.5599	-0.734691	0	
1.5127	-10.7429	-0.40074	0	
1.5133	-10.7429	-3.13913	0	
1.5140	-5.29287	-3.47308	0	
1.5147	1.1529	-1.00185	0	
1.5153	1.1529	-1.3358	0	
1.5160	2.98706	-1.60296	0	
1.5167	7.54627	0.53432	0	
1.5173	6.02653	0.20037	0	
1.5180	4.19237	-3.13913	0	
1.5187	6.02653	-4.07419	0	
1.5193	4.82123	-4.34135	0	
1.5200	3.56351	-4.34135	0	
1.5207	5.7121	-1.93691	0	
1.5213	6.91741	-3.74024	0	
1.5220	6.02653	-8.34876	0	
1.5227	4.82123	-4.34135	0	
1.5233	1.46733	1.13543	0	
1.5240	-0.995688	-1.3358	0	
1.5247	-2.51542	-2.20407	0	
1.5253	-5.29287	0.20037	0	
1.5260	-8.64676	-2.53802	0	
1.5267	-8.64676	-5.00925	0	
1.5273	-0.68126	-3.74024	0	
1.5280	17.2935	-3.13913	0	
1.5287	39.3035	-0.734691	0	
1.5293	52.7191	2.07049	0	
1.5300	49.6796	-0.40074	0	
1.5307	30.1327	-1.00185	0	
1.5313	10.0093	4.47493	0	
1.5320	0.209619	5.67715	0	
1.5327	-8.90879	2.07049	0	
1.5333	-19.5993	2.07049	0	
1.5340	-20.5426	3.87382	0	
1.5347	-19.0229	2.33765	0	
1.5353	-22.9532	1.40259	0	
1.5360	-22.3768	2.07049	0	
1.5367	-15.3546	0.801481	0	
1.5373	-11.0574	-1.93691	0	
1.5380	-8.01791	-1.93691	0	
1.5387	-3.45871	0.20037	0	
1.5393	3.87794	0.20037	0	
1.5400	15.7738	-1.00185	0	
1.5407	28.6129	-0.40074	0	
1.5413	34.6919	1.73654	0	
1.5420	28.6129	2.33765	0	
1.5427	13.0488	1.13543	0	
1.5433	-6.8126	-1.60296	0	
1.5440	-29.9754	-3.74024	0	
1.5447	-48.5791	-1.93691	0	
1.5453	-45.5396	0.20037	0	
1.5460	-22.6388	-1.60296	0	
1.5467	1.1529	-3.74024	0	
1.5473	23.1104	-3.74024	0	
1.5480	46.0113	-4.6753	0	
1.5487	59.7413	-3.47308	0	
1.5493	60.3177	1.13543	0	
1.5500	46.5877	1.13543	0	
1.5507	12.4199	-1.3358	0	
1.5513	-26.3071	-0.40074	0	
1.5520	-37.3121	0.801481	0	
1.5527	-24.473	-0.734691	0	
1.5533	-18.0796	-0.40074	0	
1.5540	-22.9532	-0.734691	0	
1.5547	-22.6388	-3.47308	0	
1.5553	-20.2282	-2.87197	0	
1.5560	-26.6216	-2.53802	0	
1.5567	-31.2332	-5.27641	0	
1.5573	-25.4162	-5.00925	0	
1.5580	-16.2454	-1.60296	0	
1.5587	-6.18375	-1.60296	0	
1.5593	2.98706	-2.53802	0	
1.5600	2.98706	-1.3358	0	
1.5607	-3.14428	-0.734691	0	
1.5613	-3.45871	-1.60296	0	
1.5620	1.1529	-3.74024	0	
1.5627	0.209619	-4.34135	0	
1.5633	-3.14428	-1.60296	0	
1.5640	-4.97844	0.801481	0	
1.5647	-7.07463	1.13543	0	
1.5653	-7.07463	1.13543	0	
1.5660	-5.29287	0.53432	0	
1.5667	-5.55489	-1.3358	0	
1.5673	-5.86932	-2.53802	0	
1.5680	-3.45871	0.53432	0	
1.5687	-3.14428	4.20777	0	
1.5693	-3.45871	2.6716	0	
1.5700	-1.62454	-2.20407	0	
1.5707	0.209619	-0.734691	0	
1.5713	2.98706	2.07049	0	
1.5720	4.19237	-0.734691	0	
1.5727	-0.104809	-1.3358	0	
1.5733	-4.66401	3.53987	0	
1.5740	-5.29287	4.47493	0	
1.5747	-4.66401	1.73654	0	
1.5753	3.56351	2.6716	0	
1.5760	19.4421	4.47493	0	
1.5767	25.259	4.80888	0	
1.5773	20.3854	4.80888	0	
1.5780	21.2763	3.87382	0	
1.5787	23.4249	1.73654	0	
1.5793	19.1277	1.40259	0	
1.5800	19.4421	2.93876	0	
1.5807	26.7788	4.80888	0	
1.5813	28.9274	4.47493	0	
1.5820	30.4471	3.53987	0	
1.5827	35.9496	4.47493	0	
1.5833	28.2985	4.47493	0	
1.5840	5.7121	3.87382	0	
1.5847	-12.5771	3.53987	0	
1.5853	-28.1413	2.07049	0	
1.5860	-43.7055	0.801481	0	
1.5867	-41.2948	2.93876	0	
1.5873	-19.5993	2.33765	0	
1.5880	-2.82985	-1.60296	0	
1.5887	0.209619	-0.734691	0	
1.5893	-1.88657	2.33765	0	
1.5900	-4.03516	1.40259	0	
1.5907	-7.07463	0.20037	0	
1.5913	-16.2454	1.40259	0	
1.5920	-26.936	2.6716	0	
1.5927	-29.399	3.27271	0	
1.5933	-27.8269	3.87382	0	
1.5940	-21.7479	3.53987	0	
1.5947	-4.03516	2.6716	0	
1.5953	10.5857	2.93876	0	
1.5960	11.8434	3.53987	0	
1.5967	13.6252	2.6716	0	
1.5973	20.071	0.801481	0	
1.5980	20.9619	1.73654	0	
1.5987	19.4421	3.87382	0	
1.5993	19.4421	4.47493	0	
1.6000	17.0315	3.87382	0	
1.6007	10.9002	3.53987	0	
1.6013	4.5068	1.40259	0	
1.6020	-0.68126	-0.40074	0	
1.6027	-7.70348	0.20037	0	
1.6033	-20.5426	0.53432	0	
1.6040	-31.4952	0.53432	0	
1.6047	-28.7701	0.53432	0	
1.6053	-10.1665	0.20037	0	
1.6060	14.2541	0.20037	0	
1.6067	24.6302	0.801481	0	
1.6073	15.7738	0.20037	0	
1.6080	8.43715	-0.734691	0	
1.6087	6.34096	-0.40074	0	
1.6093	-10.4809	0.801481	0	
1.6100	-23.8965	1.73654	0	
1.6107	-6.18375	0.801481	0	
1.6113	21.2763	-2.53802	0	
1.6120	28.2985	-3.47308	0	
1.6127	24.3157	1.13543	0	
1.6133	18.5512	3.87382	0	
1.6140	-6.49817	0.20037	0	
1.6147	-45.5396	-1.00185	0	
1.6153	-64.1433	2.07049	0	
1.6160	-48.8935	2.07049	0	
1.6167	-27.2504	1.13543	0	
1.6173	-20.857	2.07049	0	
1.6180	-19.9138	0.53432	0	
1.6187	-15.0401	0.53432	0	
1.6193	-11.6862	3.53987	0	
1.6200	-12.5771	2.93876	0	
1.6207	-12.2627	-0.40074	0	
1.6213	-8.64676	-0.734691	0	
1.6220	-6.8126	-1.00185	0	
1.6227	-4.66401	-2.53802	0	
1.6233	2.35821	-2.20407	0	
1.6240	7.86069	-2.87197	0	
1.6247	4.5068	-3.74024	0	
1.6253	1.1529	-2.53802	0	
1.6260	3.56351	-3.47308	0	
1.6267	4.19237	-6.47864	0	
1.6273	3.87794	-5.27641	0	
1.6280	6.02653	-1.3358	0	
1.6287	6.34096	-2.53802	0	
1.6293	8.17512	-5.61036	0	
1.6300	15.4594	-4.07419	0	
1.6307	18.5512	-1.3358	0	
1.6313	15.1973	-2.53802	0	
1.6320	14.8829	-5.27641	0	
1.6327	16.4026	-6.21147	0	
1.6333	14.8829	-5.61036	0	
1.6340	11.2146	-3.47308	0	
1.6347	6.65539	-2.53802	0	
1.6353	-0.366832	-4.34135	0	
1.6360	-10.7429	-3.74024	0	
1.6367	-18.0796	-2.53802	0	
1.6373	-14.7257	-4.34135	0	
1.6380	-6.18375	-6.47864	0	
1.6387	1.1529	-6.47864	0	
1.6393	13.0488	-6.21147	0	
1.6400	28.9274	-6.21147	0	
1.6407	39.8799	-6.21147	0	
1.6413	40.1944	-3.47308	0	
1.6420	27.9841	-1.3358	0	
1.6427	10.2713	-2.87197	0	
1.6433	-1.88657	-3.47308	0	
1.6440	-8.01791	-0.734691	0	
1.6447	-12.5771	-1.3358	0	
1.6453	-9.22322	-2.87197	0	
1.6460	0.209619	-0.734691	0	
1.6467	6.65539	0.53432	0	
1.6473	6.65539	-0.734691	0	
1.6480	2.35821	-1.60296	0	
1.6487	-6.18375	-1.3358	0	
1.6493	-15.931	-0.0667901	0	
1.6500	-22.0623	0.20037	0	
1.6507	-23.2677	-1.60296	0	
1.6513	-19.0229	-1.3358	0	
1.6520	-12.5771	1.73654	0	
1.6527	-7.07463	0.20037	0	
1.6533	2.35821	-2.53802	0	
1.6540	17.0315	-0.734691	0	
1.6547	28.2985	2.07049	0	
1.6553	29.1894	2.6716	0	
1.6560	24.9446	2.07049	0	
1.6567	22.2196	0.20037	0	
1.6573	18.2368	0.53432	0	
1.6580	10.9002	2.33765	0	
1.6587	3.30149	1.13543	0	
1.6593	-7.07463	-1.60296	0	
1.6600	-26.3071	-0.40074	0	
1.6607	-44.9632	2.07049	0	
1.6613	-46.4829	2.33765	0	
1.6620	-30.6043	-0.0667901	0	
1.6627	-18.394	-3.74024	0	
1.6633	-20.2282	-3.47308	0	
1.6640	-20.5426	-0.0667901	0	
1.6647	-10.7429	0.801481	0	
1.6653	-3.45871	-1.93691	0	
1.6660	-0.995688	-2.87197	0	
1.6667	11.2146	-1.00185	0	
1.6673	31.9668	0.20037	0	
1.6680	46.9021	-0.0667901	0	
1.6687	51.5138	-0.0667901	0	
1.6693	46.3257	-0.40074	0	
1.6700	30.1327	-0.0667901	0	
1.6707	-1.62454	1.13543	0	
1.6713	-40.666	1.40259	0	
1.6720	-64.7721	0.801481	0	
1.6727	-63.8812	0.801481	0	
1.6733	-52.5618	2.07049	0	
1.6740	-38.203	2.6716	0	
1.6747	-15.3546	1.40259	0	
1.6753	12.7343	0.801481	0	
1.6760	34.1154	2.07049	0	
1.6767	42.3429	1.13543	0	
1.6773	38.0458	-0.40074	0	
1.6780	26.1499	1.13543	0	
1.6787	6.34096	2.07049	0	
1.6793	-16.8743	1.13543	0	
1.6800	-26.3071	1.40259	0	
1.6807	-19.9138	2.33765	0	
1.6813	-12.8915	2.07049	0	
1.6820	-8.90879	3.27271	0	
1.6827	-3.45871	4.20777	0	
1.6833	3.30149	2.07049	0	
1.6840	13.9396	-1.00185	0	
1.6847	29.8182	-1.60296	0	
1.6853	38.989	0.20037	0	
1.6860	30.4471	0.20037	0	
1.6867	5.7121	-1.00185	0	
1.6873	-20.857	1.13543	0	
1.6880	-33.9582	3.87382	0	
1.6887	-34.8491	2.33765	0	
1.6893	-32.7529	1.40259	0	
1.6900	-26.6216	4.20777	0	
1.6907	-18.7085	4.47493	0	
1.6913	-11.3718	2.07049	0	
1.6920	-1.88657	2.07049	0	
1.6927	1.72935	2.07049	0	
1.6933	-5.29287	-1.00185	0	
1.6940	-9.53764	-3.74024	0	
1.6947	-9.85207	-3.74024	0	
1.6953	-15.3546	-2.87197	0	
1.6960	-18.0796	-2.20407	0	
1.6967	-13.8348	-1.60296	0	
1.6973	-10.7429	-1.60296	0	
1.6980	-5.55489	-1.3358	0	
1.6987	2.98706	-0.734691	0	
1.6993	5.08325	-1.93691	0	
1.7000	5.39768	-3.47308	0	
1.7007	8.43715	-1.00185	0	
1.7013	3.87794	2.07049	0	
1.7020	-6.18375	2.07049	0	
1.7027	-4.34958	2.6716	0	
1.7033	10.2713	3.27271	0	
1.7040	22.2196	1.40259	0	
1.7047	23.1104	0.20037	0	
1.7053	15.7738	-0.40074	0	
1.7060	9.38043	-0.734691	0	
1.7067	10.0093	1.13543	0	
1.7073	12.1055	2.93876	0	
1.7080	8.43715	0.53432	0	
1.7087	4.82123	-0.734691	0	
1.7093	3.87794	1.40259	0	
1.7100	-5.29287	2.07049	0	
1.7107	-17.4507	1.13543	0	
1.7113	-15.3546	-0.734691	0	
1.7120	-3.72073	-2.87197	0	
1.7127	-0.995688	-1.93691	0	
1.7133	-1.31012	0.20037	0	
1.7140	5.08325	-0.40074	0	
1.7147	10.0093	-0.40074	0	
1.7153	8.43715	1.40259	0	
1.7160	8.43715	-0.0667901	0	
1.7167	9.38043	-2.20407	0	
1.7173	6.02653	1.13543	0	
1.7180	1.1529	3.53987	0	
1.7187	-3.14428	1.40259	0	
1.7193	-7.07463	1.13543	0	
1.7200	-10.4809	2.6716	0	
1.7207	-12.2627	1.13543	0	
1.7213	-12.8915	-0.0667901	0	
1.7220	-7.07463	1.40259	0	
1.7227	7.23184	2.07049	0	
1.7233	19.4421	-0.734691	0	
1.7240	22.2196	-1.60296	0	
1.7247	19.7565	0.801481	0	
1.7253	16.0882	2.93876	0	
1.7260	4.19237	1.13543	0	
1.7267	-20.857	-0.40074	0	
1.7273	-40.0371	0.20037	0	
1.7280	-28.7701	-0.734691	0	
1.7287	10.5857	-1.3358	0	
1.7293	52.4046	2.6716	0	
1.7300	72.266	3.87382	0	
1.7307	65.5058	-0.734691	0	
1.7313	48.7363	-2.53802	0	
1.7320	32.5957	-0.40074	0	
1.7327	9.38043	-0.0667901	0	
1.7333	-20.857	-1.3358	0	
1.7340	-39.7751	-2.20407	0	
1.7347	-35.7924	-2.53802	0	
1.7353	-16.2454	-1.60296	0	
1.7360	-2.51542	-1.60296	0	
1.7367	-5.29287	-2.20407	0	
1.7373	-10.7429	-0.734691	0	
1.7380	-7.07463	-2.53802	0	
1.7387	3.30149	-7.4137	0	
1.7393	17.608	-7.4137	0	
1.7400	27.9841	-3.74024	0	
1.7407	28.6129	-3.74024	0	
1.7413	26.7788	-5.00925	0	
1.7420	24.3157	-3.47308	0	
1.7427	13.3632	-2.53802	0	
1.7433	-3.45871	-3.13913	0	
1.7440	-20.5426	-2.53802	0	
1.7447	-40.9804	-2.20407	0	
1.7453	-60.5273	-2.20407	0	
1.7460	-71.1655	-3.47308	0	
1.7467	-71.1655	-6.21147	0	
1.7473	-60.2129	-7.14654	0	
1.7480	-40.9804	-6.21147	0	
1.7487	-22.3768	-6.21147	0	
1.7493	-8.90879	-8.61592	0	
1.7500	-1.88657	-9.21703	0	
1.7507	2.04378	-8.01481	0	
1.7513	6.65539	-8.01481	0	
1.7520	9.38043	-9.55098	0	
1.7527	8.75157	-8.61592	0	
1.7533	7.86069	-7.14654	0	
1.7540	4.82123	-8.34876	0	
1.7547	-3.14428	-10.1521	0	
1.7553	-14.4113	-8.01481	0	
1.7560	-22.6388	-4.34135	0	
1.7567	-20.2282	-4.6753	0	
1.7573	-10.4809	-6.21147	0	
1.7580	-1.31012	-5.61036	0	
1.7587	4.5068	-4.6753	0	
1.7593	7.86069	-4.6753	0	
1.7600	9.066	-3.13913	0	
1.7607	7.23184	-1.00185	0	
1.7613	5.39768	-1.60296	0	
1.7620	7.54627	-1.93691	0	
1.7627	12.1055	-0.734691	0	
1.7633	12.1055	0.20037	0	
1.7640	6.02653	0.53432	0	
1.7647	1.1529	0.53432	0	
1.7653	-2.20099	-0.734691	0	
1.7660	-2.51542	-1.60296	0	
1.7667	2.98706	-0.0667901	0	
1.7673	4.5068	0.53432	0	
1.7680	-2.82985	-0.734691	0	
1.7687	-6.8126	-1.3358	0	
1.7693	-2.20099	-1.00185	0	
1.7700	-2.82985	-0.734691	0	
1.7707	-5.55489	0.20037	0	
1.7713	3.56351	2.07049	0	
1.7720	16.7171	2.93876	0	
1.7727	25.259	1.13543	0	
1.7733	37.7837	0.20037	0	
1.7740	50.256	3.27271	0	
1.7747	46.0113	4.80888	0	
1.7753	28.2985	3.87382	0	
1.7760	11.529	5.67715	0	
1.7767	-0.366832	6.34505	0	
1.7773	-10.1665	2.33765	0	
1.7780	-16.2454	-0.40074	0	
1.7787	-17.7652	0.53432	0	
1.7793	-19.0229	2.07049	0	
1.7800	-20.857	2.93876	0	
1.7807	-18.7085	2.93876	0	
1.7813	-7.07463	0.53432	0	
1.7820	14.8829	-0.40074	0	
1.7827	48.4219	2.33765	0	
1.7833	76.8252	4.80888	0	
1.7840	75.3055	4.80888	0	
1.7847	53.0335	5.07604	0	
1.7853	31.6524	6.34505	0	
1.7860	-2.51542	6.0111	0	
1.7867	-56.5446	3.87382	0	
1.7873	-90.7124	2.6716	0	
1.7880	-78.5021	2.33765	0	
1.7887	-50.4133	0.53432	0	
1.7893	-36.4212	-0.734691	0	
1.7900	-27.2504	0.801481	0	
1.7907	-15.0401	2.33765	0	
1.7913	-7.07463	2.07049	0	
1.7920	-3.72073	3.27271	0	
1.7927	3.87794	3.87382	0	
1.7933	14.5685	1.73654	0	
1.7940	22.2196	0.53432	0	
1.7947	22.2196	2.93876	0	
1.7953	13.9396	3.27271	0	
1.7960	7.86069	0.20037	0	
1.7967	10.0093	-0.0667901	0	
1.7973	13.0488	2.33765	0	
1.7980	17.608	3.27271	0	
1.7987	28.6129	2.33765	0	
1.7993	34.6919	1.13543	0	
1.8000	24.3157	-0.734691	0	
1.8007	9.38043	-0.40074	0	
1.8013	4.5068	2.07049	0	
1.8020	6.02653	0.801481	0	
1.8027	-2.51542	-1.3358	0	
1.8033	-19.0229	0.53432	0	
1.8040	-25.1018	1.73654	0	
1.8047	-24.7874	0.20037	0	
1.8053	-34.8491	0.53432	0	
1.8060	-44.3343	2.07049	0	
1.8067	-37.3121	2.07049	0	
1.8073	-21.7479	3.53987	0	
1.8080	-12.5771	2.93876	0	
1.8087	-9.85207	-0.40074	0	
1.8093	-10.7429	-0.0667901	0	
1.8100	-9.85207	2.93876	0	
1.8107	-6.8126	3.87382	0	
1.8113	-2.51542	3.87382	0	
1.8120	0.209619	3.87382	0	
1.8127	1.46733	2.07049	0	
1.8133	2.98706	0.20037	0	
1.8140	7.86069	-1.00185	0	
1.8147	10.2713	-3.13913	0	
1.8153	9.066	-3.74024	0	
1.8160	11.2146	-1.93691	0	
1.8167	14.8829	-1.00185	0	
1.8173	14.2541	-0.734691	0	
1.8180	12.7343	-0.0667901	0	
1.8187	10.9002	-1.3358	0	
1.8193	7.54627	-2.87197	0	
1.8200	7.23184	-2.53802	0	
1.8207	7.23184	-1.3358	0	
1.8213	3.30149	-0.734691	0	
1.8220	4.82123	-1.00185	0	
1.8227	16.4026	-1.00185	0	
1.8233	28.2985	1.13543	0	
1.8240	37.7837	2.6716	0	
1.8247	42.3429	2.33765	0	
1.8253	29.1894	2.07049	0	
1.8260	4.82123	1.40259	0	
1.8267	-9.22322	-1.00185	0	
1.8273	-15.3546	-1.60296	0	
1.8280	-25.4162	0.53432	0	
1.8287	-28.1413	-1.00185	0	
1.8293	-20.2282	-2.87197	0	
1.8300	-20.5426	0.801481	0	
1.8307	-28.1413	2.6716	0	
1.8313	-22.6388	-0.0667901	0	
1.8320	-6.8126	-0.0667901	0	
1.8327	0.209619	0.20037	0	
1.8333	-3.14428	-3.47308	0	
1.8340	-6.8126	-5.00925	0	
1.8347	-6.18375	-1.93691	0	
1.8353	-2.82985	-1.00185	0	
1.8360	-0.68126	-2.20407	0	
1.8367	1.1529	-2.20407	0	
1.8373	10.5857	-1.60296	0	
1.8380	29.5038	-1.60296	0	
1.8387	43.2338	-1.00185	0	
1.8393	39.8799	0.801481	0	
1.8400	29.1894	-0.0667901	0	
1.8407	18.8133	-3.13913	0	
1.8413	0.838474	-1.60296	0	
1.8420	-26.0451	3.53987	0	
1.8427	-41.2948	2.93876	0	
1.8433	-35.7924	-1.00185	0	
1.8440	-22.0623	-1.00185	0	
1.8447	-13.8348	0.53432	0	
1.8453	-12.5771	0.20037	0	
1.8460	-10.4809	1.13543	0	
1.8467	2.98706	3.53987	0	
1.8473	24.3157	3.27271	0	
1.8480	39.3035	1.40259	0	
1.8487	43.2338	2.33765	0	
1.8493	36.8405	3.27271	0	
1.8500	13.9396	1.40259	0	
1.8507	-15.931	0.20037	0	
1.8513	-30.9187	0.801481	0	
1.8520	-23.2677	1.13543	0	
1.8527	-4.34958	-0.734691	0	
1.8533	9.066	-2.87197	0	
1.8540	9.38043	-0.734691	0	
1.8547	8.75157	3.87382	0	
1.8553	17.608	4.47493	0	
1.8560	28.6129	1.13543	0	
1.8567	33.1721	0.53432	0	
1.8573	28.2985	2.07049	0	
1.8580	19.4421	0.53432	0	
1.8587	16.0882	0.53432	0	
1.8593	9.38043	3.87382	0	
1.8600	-13.5204	4.47493	0	
1.8607	-34.2726	2.07049	0	
1.8613	-31.2332	1.13543	0	
1.8620	-18.0796	1.13543	0	
1.8627	-11.0574	1.13543	0	
1.8633	-7.38905	2.93876	0	
1.8640	-6.8126	3.87382	0	
1.8647	-9.22322	0.20037	0	
1.8653	-13.5204	-1.60296	0	
1.8660	-20.857	1.73654	0	
1.8667	-29.9754	4.47493	0	
1.8673	-37.3121	2.93876	0	
1.8680	-37.3121	0.801481	0	
1.8687	-26.6216	0.20037	0	
1.8693	-7.07463	-0.734691	0	
1.8700	13.6252	-2.87197	0	
1.8707	30.7615	-4.34135	0	
1.8713	33.1721	-3.13913	0	
1.8720	14.8829	-1.93691	0	
1.8727	-3.14428	-2.87197	0	
1.8733	-7.70348	-3.47308	0	
1.8740	-12.8915	-2.53802	0	
1.8747	-23.5821	-2.20407	0	
1.8753	-27.2504	-2.87197	0	
1.8760	-24.2109	-3.74024	0	
1.8767	-18.394	-4.34135	0	
1.8773	-10.4809	-4.6753	0	
1.8780	-8.64676	-5.00925	0	
1.8787	-12.5771	-5.27641	0	
1.8793	-9.53764	-5.61036	0	
1.8800	-3.14428	-5.27641	0	
1.8807	-5.29287	-4.07419	0	
1.8813	-7.70348	-3.74024	0	
1.8820	-3.45871	-5.00925	0	
1.8827	-1.62454	-4.34135	0	
1.8833	-2.51542	-2.87197	0	
1.8840	-0.995688	-2.53802	0	
1.8847	-0.366832	-3.13913	0	
1.8853	-0.104809	-3.13913	0	
1.8860	3.56351	-3.47308	0	
1.8867	6.65539	-4.07419	0	
1.8873	7.54627	-3.13913	0	
1.8880	11.2146	-2.53802	0	
1.8887	15.1973	-2.53802	0	
1.8893	15.7738	-3.13913	0	
1.8900	13.9396	-3.13913	0	
1.8907	9.69486	-3.47308	0	
1.8913	1.72935	-3.47308	0	
1.8920	-6.18375	-2.53802	0	
1.8927	-11.0574	-1.00185	0	
1.8933	-12.5771	1.40259	0	
1.8940	-9.22322	2.07049	0	
1.8947	-0.995688	0.20037	0	
1.8953	10.2713	-2.20407	0	
1.8960	24.0013	-2.53802	0	
1.8967	35.3207	-1.60296	0	
1.8973	36.8405	-1.93691	0	
1.8980	28.6129	-1.60296	0	
1.8987	10.2713	0.20037	0	
1.8993	-17.4507	1.73654	0	
1.9000	-31.2332	1.13543	0	
1.9007	-10.7429	1.73654	0	
1.9013	17.608	2.07049	0	
1.9020	23.1104	1.13543	0	
1.9027	16.7171	1.13543	0	
1.9033	10.2713	2.07049	0	
1.9040	-8.01791	2.07049	0	
1.9047	-28.7701	3.87382	0	
1.9053	-26.0451	4.80888	0	
1.9060	-8.90879	2.93876	0	
1.9067	-2.82985	2.93876	0	
1.9073	-5.29287	5.67715	0	
1.9080	-6.18375	3.87382	0	
1.9087	-5.86932	1.13543	0	
1.9093	-5.29287	2.07049	0	
1.9100	-5.86932	2.33765	0	
1.9107	-8.33234	0.801481	0	
1.9113	-8.90879	0.801481	0	
1.9120	-10.1665	0.20037	0	
1.9127	-17.4507	-1.60296	0	
1.9133	-21.4335	-2.20407	0	
1.9140	-8.90879	-1.60296	0	
1.9147	10.2713	-0.734691	0	
1.9153	21.2763	-0.40074	0	
1.9160	26.7788	-1.60296	0	
1.9167	31.338	-0.734691	0	
1.9173	32.5957	1.13543	0	
1.9180	30.1327	-0.734691	0	
1.9187	20.9619	-0.734691	0	
1.9193	6.34096	1.73654	0	
1.9200	-1.88657	0.53432	0	
1.9207	-1.62454	-1.93691	0	
1.9213	-5.29287	0.20037	0	
1.9220	-11.6862	1.40259	0	
1.9227	-8.01791	1.40259	0	
1.9233	-0.366832	2.93876	0	
1.9240	-3.45871	2.07049	0	
1.9247	-12.8915	-1.3358	0	
1.9253	-16.2454	-2.53802	0	
1.9260	-17.4507	-2.53802	0	
1.9267	-26.6216	-1.60296	0	
1.9273	-35.1635	-0.0667901	0	
1.9280	-29.0846	-3.47308	0	
1.9287	-16.2454	-7.14654	0	
1.9293	-9.85207	-4.34135	0	
1.9300	-9.22322	-4.07419	0	
1.9307	-12.5771	-6.21147	0	
1.9313	-22.0623	-4.07419	0	
1.9320	-29.399	-3.47308	0	
1.9327	-27.8269	-6.21147	0	
1.9333	-22.6388	-5.27641	0	
1.9340	-16.2454	-3.74024	0	
1.9347	-6.8126	-4.34135	0	
1.9353	1.1529	-4.34135	0	
1.9360	2.04378	-3.47308	0	
1.9367	2.04378	-2.20407	0	
1.9373	2.67264	-0.40074	0	
1.9380	0.838474	-1.00185	0	
1.9387	0.209619	-2.87197	0	
1.9393	2.35821	-2.87197	0	
1.9400	4.5068	-3.13913	0	
1.9407	10.0093	-2.53802	0	
1.9413	17.2935	-0.40074	0	
1.9420	16.7171	0.20037	0	
1.9427	11.2146	-0.0667901	0	
1.9433	10.5857	0.53432	0	
1.9440	10.2713	-0.734691	0	
1.9447	4.82123	-2.87197	0	
1.9453	1.72935	-1.00185	0	
1.9460	2.04378	1.73654	0	
1.9467	2.04378	-0.0667901	0	
1.9473	6.02653	-3.74024	0	
1.9480	13.3632	-2.53802	0	
1.9487	16.4026	1.13543	0	
1.9493	12.7343	0.20037	0	
1.9500	6.91741	-2.87197	0	
1.9507	2.04378	-1.00185	0	
1.9513	-3.45871	0.20037	0	
1.9520	-7.07463	-1.3358	0	
1.9527	-4.97844	-0.0667901	0	
1.9533	2.04378	1.13543	0	
1.9540	4.82123	-1.60296	0	
1.9547	3.87794	-1.3358	0	
1.9553	3.30149	0.53432	0	
1.9560	2.04378	-2.53802	0	
1.9567	-0.104809	-5.27641	0	
1.9573	0.209619	-1.93691	0	
1.9580	2.04378	1.13543	0	
1.9587	2.04378	0.20037	0	
1.9593	0.209619	-1.60296	0	
1.9600	-3.14428	-2.20407	0	
1.9607	-3.72073	-1.60296	0	
1.9613	0.838474	1.13543	0	
1.9620	10.0093	3.53987	0	
1.9627	19.7565	2.93876	0	
1.9633	24.0013	2.07049	0	
1.9640	21.9051	0.801481	0	
1.9647	17.9224	-0.0667901	0	
1.9653	13.9396	1.13543	0	
1.9660	8.17512	2.07049	0	
1.9667	3.56351	-0.0667901	0	
1.9673	2.98706	-0.734691	0	
1.9680	2.67264	1.40259	0	
1.9687	-3.45871	1.73654	0	
1.9693	-16.2454	1.13543	0	
1.9700	-25.4162	2.07049	0	
1.9707	-18.7085	3.53987	0	
1.9713	-5.29287	4.47493	0	
1.9720	-0.68126	4.20777	0	
1.9727	-0.104809	2.33765	0	
1.9733	3.30149	3.87382	0	
1.9740	5.7121	6.34505	0	
1.9747	5.7121	4.80888	0	
1.9753	0.209619	3.53987	0	
1.9760	-11.3718	4.20777	0	
1.9767	-21.7479	5.67715	0	
1.9773	-25.7307	8.48234	0	
1.9780	-22.6388	9.35061	0	
1.9787	-11.0574	6.34505	0	
1.9793	0.524046	4.80888	0	
1.9800	6.65539	5.67715	0	
1.9807	19.7565	4.80888	0	
1.9813	32.8577	3.27271	0	
1.9820	22.4816	3.53987	0	
1.9827	7.54627	2.33765	0	
1.9833	20.3854	-0.0667901	0	
1.9840	46.5877	-0.40074	0	
1.9847	57.9071	2.07049	0	
1.9853	54.2388	2.6716	0	
1.9860	43.5482	0.53432	0	
1.9867	17.608	1.13543	0	
1.9873	-27.8269	3.87382	0	
1.9880	-68.7549	2.33765	0	
1.9887	-72.1088	-2.53802	0	
1.9893	-50.1512	-1.93691	0	
1.9900	-40.0371	2.93876	0	
1.9907	-40.0371	3.27271	0	
1.9913	-33.3293	-0.734691	0	
1.9920	-24.473	-1.60296	0	
1.9927	-16.5599	-0.40074	0	
1.9933	-5.55489	-1.60296	0	
1.9940	-0.995688	-2.20407	0	
1.9947	-2.20099	0.801481	0	
1.9953	0.209619	1.73654	0	
1.9960	2.35821	0.20037	0	
1.9967	3.56351	1.13543	0	
1.9973	11.8434	1.13543	0	
1.9980	22.2196	-3.47308	0	
1.9987	27.6696	-4.34135	0	
1.9993	25.8355	-2.53802	0	
2.0000	15.1973	-3.47308	0	
2.0007	6.65539	-3.47308	0	
2.0013	5.7121	-1.3358	0	
2.0020	-8.90879	-1.3358	0	
2.0027	-40.9804	-1.60296	0	
2.0033	-55.9157	-1.00185	0	
2.0040	-41.8713	-2.20407	0	
2.0047	-26.0451	-2.53802	0	
2.0053	-21.7479	0.20037	0	
2.0060	-19.2849	0.801481	0	
2.0067	-16.2454	-0.734691	0	
2.0073	-13.5204	0.20037	0	
2.0080	-10.4809	1.73654	0	
2.0087	-7.07463	0.20037	0	
2.0093	-1.88657	-1.00185	0	
2.0100	5.7121	-0.40074	0	
2.0107	11.529	-0.40074	0	
2.0113	12.7343	-1.60296	0	
2.0120	14.8829	-1.00185	0	
2.0127	18.8133	1.13543	0	
2.0133	21.5907	1.13543	0	
2.0140	25.5735	-0.0667901	0	
2.0147	31.338	-0.40074	0	
2.0153	36.8405	-1.60296	0	
2.0160	39.8799	-3.13913	0	
2.0167	32.2813	-1.60296	0	
2.0173	6.65539	-0.0667901	0	
2.0180	-17.7652	-1.3358	0	
2.0187	-22.6388	-0.0667901	0	
2.0193	-20.5426	2.07049	0	
2.0200	-21.7479	-1.3358	0	
2.0207	-15.669	-3.47308	0	
2.0213	-3.72073	-0.734691	0	
2.0220	3.56351	0.801481	0	
2.0227	5.39768	-0.734691	0	
2.0233	2.98706	-1.60296	0	
2.0240	-0.366832	-4.07419	0	
2.0247	-2.20099	-5.27641	0	
2.0253	-9.85207	-3.47308	0	
2.0260	-17.1887	-3.47308	0	
2.0267	-11.6862	-4.07419	0	
2.0273	-3.14428	-3.47308	0	
2.0280	-4.03516	-4.07419	0	
2.0287	-3.45871	-5.27641	0	
2.0293	2.98706	-3.47308	0	
2.0300	5.39768	-0.734691	0	
2.0307	7.23184	0.20037	0	
2.0313	12.1055	0.20037	0	
2.0320	12.7343	2.33765	0	
2.0327	7.86069	2.93876	0	
2.0333	7.54627	0.20037	0	
2.0340	12.4199	0.53432	0	
2.0347	16.0882	5.07604	0	
2.0353	14.8829	5.67715	0	
2.0360	12.1055	3.87382	0	
2.0367	8.43715	4.80888	0	
2.0373	3.56351	3.87382	0	
2.0380	-0.104809	1.13543	0	
2.0387	-0.68126	2.33765	0	
2.0393	-3.45871	2.6716	0	
2.0400	-6.18375	-1.3358	0	
2.0407	-3.45871	-1.60296	0	
2.0413	2.67264	0.801481	0	
2.0420	4.82123	-0.40074	0	
2.0427	4.82123	-1.93691	0	
2.0433	5.7121	-1.60296	0	
2.0440	8.43715	-1.93691	0	
2.0447	13.9396	-1.60296	0	
2.0453	22.2196	-0.734691	0	
2.0460	27.4076	-1.60296	0	
2.0467	18.2368	-1.60296	0	
2.0473	-0.68126	-0.0667901	0	
2.0480	-8.64676	-1.60296	0	
2.0487	0.209619	-4.34135	0	
2.0493	10.5857	-3.74024	0	
2.0500	13.9396	-1.93691	0	
2.0507	13.9396	-2.53802	0	
2.0513	20.3854	-3.74024	0	
2.0520	36.8405	-4.6753	0	
2.0527	49.0507	-6.81259	0	
2.0533	43.8627	-6.47864	0	
2.0540	29.1894	-3.13913	0	
2.0547	8.17512	-1.3358	0	
2.0553	-26.6216	-2.53802	0	
2.0560	-56.5446	-4.6753	0	
2.0567	-58.0643	-6.21147	0	
2.0573	-41.8713	-5.61036	0	
2.0580	-29.0846	-3.47308	0	
2.0587	-23.2677	-3.13913	0	
2.0593	-21.7479	-3.13913	0	
2.0600	-16.2454	-1.60296	0	
2.0607	1.46733	-0.734691	0	
2.0613	28.2985	-1.60296	0	
2.0620	54.2388	-2.53802	0	
2.0627	70.4318	-3.13913	0	
2.0633	67.9688	-2.53802	0	
2.0640	55.1297	-0.734691	0	
2.0647	39.3035	-0.0667901	0	
2.0653	11.2146	0.20037	0	
2.0660	-20.5426	2.33765	0	
2.0667	-35.1635	2.6716	0	
2.0673	-46.7973	0.53432	0	
2.0680	-72.9997	1.40259	0	
2.0687	-90.398	3.53987	0	
2.0693	-84.3191	2.6716	0	
2.0700	-72.1088	2.33765	0	
2.0707	-58.3788	0.801481	0	
2.0713	-37.941	-3.47308	0	
2.0720	-23.5821	-1.93691	0	
2.0727	-19.5993	2.33765	0	
2.0733	-13.5204	2.07049	0	
2.0740	-0.995688	1.40259	0	
2.0747	13.9396	2.93876	0	
2.0753	31.0235	0.801481	0	
2.0760	37.1549	-0.0667901	0	
2.0767	20.6474	2.07049	0	
2.0773	-4.66401	1.13543	0	
2.0780	-19.0229	-0.0667901	0	
2.0787	-24.7874	1.40259	0	
2.0793	-26.6216	0.20037	0	
2.0800	-20.5426	-0.734691	0	
2.0807	-9.85207	1.13543	0	
2.0813	-1.31012	1.13543	0	
2.0820	5.39768	-1.00185	0	
2.0827	11.2146	-0.40074	0	
2.0833	13.9396	0.801481	0	
2.0840	15.1973	1.13543	0	
2.0847	15.4594	2.07049	0	
2.0853	13.0488	0.801481	0	
2.0860	6.65539	-0.734691	0	
2.0867	2.35821	0.20037	0	
2.0873	3.87794	1.40259	0	
2.0880	6.34096	0.53432	0	
2.0887	4.82123	-1.00185	0	
2.0893	1.1529	-1.60296	0	
2.0900	-1.31012	-2.20407	0	
2.0907	-1.62454	-4.34135	0	
2.0913	-0.366832	-5.61036	0	
2.0920	-0.104809	-3.13913	0	
2.0927	-0.366832	-0.40074	0	
2.0933	1.1529	-1.93691	0	
2.0940	3.87794	-3.74024	0	
2.0947	11.2146	-2.53802	0	
2.0953	19.4421	-2.53802	0	
2.0960	19.4421	-3.47308	0	
2.0967	14.2541	-1.60296	0	
2.0973	13.6252	1.13543	0	
2.0980	14.8829	2.33765	0	
2.0987	14.2541	2.93876	0	
2.0993	16.0882	2.6716	0	
2.1000	17.0315	2.07049	0	
2.1007	13.9396	2.93876	0	
2.1013	9.38043	2.93876	0	
2.1020	3.87794	1.73654	0	
2.1027	0.524046	1.73654	0	
2.1033	8.17512	0.20037	0	
2.1040	20.071	-1.60296	0	
2.1047	22.4816	-1.3358	0	
2.1053	19.1277	-0.734691	0	
2.1060	17.608	-1.60296	0	
2.1067	15.4594	-1.60296	0	
2.1073	8.43715	-0.734691	0	
2.1080	-2.20099	0.20037	0	
2.1087	-15.0401	0.53432	0	
2.1093	-28.1413	0.20037	0	
2.1100	-40.9804	1.13543	0	
2.1107	-46.7973	2.93876	0	
2.1113	-29.661	1.73654	0	
2.1120	9.38043	-0.0667901	0	
2.1127	45.3824	0.53432	0	
2.1133	65.5058	0.801481	0	
2.1140	73.7857	-0.0667901	0	
2.1147	76.8252	1.13543	0	
2.1153	70.6938	2.33765	0	
2.1160	38.989	1.13543	0	
2.1167	-20.5426	0.20037	0	
2.1173	-69.3313	-0.734691	0	
2.1180	-83.3758	-0.734691	0	
2.1187	-85.5244	2.33765	0	
2.1193	-85.8388	3.27271	0	
2.1200	-67.5496	-0.0667901	0	
2.1207	-43.391	-0.40074	0	
2.1213	-34.5871	1.13543	0	
2.1220	-30.9187	-1.00185	0	
2.1227	-25.1018	-1.60296	0	
2.1233	-23.5821	0.20037	0	
2.1240	-20.857	-0.0667901	0	
2.1247	-11.6862	-0.40074	0	
2.1253	-1.62454	-1.00185	0	
2.1260	5.08325	-4.34135	0	
2.1267	6.65539	-3.47308	0	
2.1273	6.91741	0.53432	0	
2.1280	10.2713	-1.3358	0	
2.1287	10.0093	-3.47308	0	
2.1293	2.98706	-1.3358	0	
2.1300	-5.29287	-0.734691	0	
2.1307	-15.931	-0.0667901	0	
2.1313	-26.3071	3.53987	0	
2.1320	-25.4162	3.53987	0	
2.1327	-15.0401	0.53432	0	
2.1333	-2.82985	1.13543	0	
2.1340	13.0488	1.73654	0	
2.1347	30.4471	0.801481	0	
2.1353	37.7837	2.07049	0	
2.1360	32.8577	4.20777	0	
2.1367	27.6696	3.27271	0	
2.1373	24.0013	2.07049	0	
2.1380	9.69486	1.13543	0	
2.1387	-17.4507	1.13543	0	
2.1393	-33.3293	2.33765	0	
2.1400	-24.473	2.07049	0	
2.1407	-9.85207	-0.40074	0	
2.1413	-5.29287	-1.60296	0	
2.1420	-3.45871	-0.734691	0	
2.1427	-0.104809	-1.00185	0	
2.1433	2.04378	-2.53802	0	
2.1440	5.39768	-1.60296	0	
2.1447	7.23184	1.40259	0	
2.1453	4.82123	1.13543	0	
2.1460	2.98706	-1.00185	0	
2.1467	3.87794	0.53432	0	
2.1473	4.82123	2.93876	0	
2.1480	5.08325	2.93876	0	
2.1487	3.87794	3.27271	0	
2.1493	0.209619	3.27271	0	
2.1500	-2.82985	2.93876	0	
2.1507	-3.45871	3.87382	0	
2.1513	-4.34958	2.07049	0	
2.1520	-4.66401	-1.00185	0	
2.1527	-3.45871	-0.40074	0	
2.1533	1.1529	1.13543	0	
2.1540	6.65539	-0.0667901	0	
2.1547	8.43715	0.801481	0	
2.1553	6.65539	2.07049	0	
2.1560	5.7121	1.40259	0	
2.1567	5.7121	1.40259	0	
2.1573	5.7121	0.53432	0	
2.1580	9.38043	-1.93691	0	
2.1587	12.1055	-0.734691	0	
2.1593	9.69486	2.07049	0	
2.1600	8.17512	1.40259	0	
2.1607	9.38043	-0.0667901	0	
2.1613	8.75157	0.801481	0	
2.1620	8.43715	2.07049	0	
2.1627	10.2713	3.53987	0	
2.1633	5.39768	2.93876	0	
2.1640	-2.82985	0.20037	0	
2.1647	-2.51542	-0.734691	0	
2.1653	4.5068	2.33765	0	
2.1660	8.17512	3.27271	0	
2.1667	10.5857	1.13543	0	
2.1673	14.8829	1.13543	0	
2.1680	18.5512	1.73654	0	
2.1687	26.1499	0.53432	0	
2.1693	35.3207	-0.0667901	0	
2.1700	34.3774	1.13543	0	
2.1707	24.9446	1.13543	0	
2.1713	17.2935	-1.00185	0	
2.1720	10.2713	-2.53802	0	
2.1727	-1.62454	-1.60296	0	
2.1733	-13.206	0.20037	0	
2.1740	-18.0796	0.801481	0	
2.1747	-16.8743	1.13543	0	
2.1753	-22.6388	2.33765	0	
2.1760	-42.5002	2.93876	0	
2.1767	-57.1735	2.6716	0	
2.1773	-48.5791	2.93876	0	
2.1780	-31.4952	1.13543	0	
2.1787	-20.5426	0.20037	0	
2.1793	-14.7257	2.07049	0	
2.1800	-9.85207	2.6716	0	
2.1807	-4.34958	-0.734691	0	
2.1813	1.1529	-2.53802	0	
2.1820	4.5068	-0.734691	0	
2.1827	6.02653	-0.40074	0	
2.1833	3.87794	-1.93691	0	
2.1840	-6.49817	-1.00185	0	
2.1847	-18.0796	0.53432	0	
2.1853	-24.2109	-0.734691	0	
2.1860	-25.7307	-2.87197	0	
2.1867	-19.9138	-1.60296	0	
2.1873	-8.90879	-1.3358	0	
2.1880	-1.62454	-4.34135	0	
2.1887	2.98706	-3.74024	0	
2.1893	6.91741	-1.60296	0	
2.1900	6.65539	-4.34135	0	
2.1907	6.65539	-7.4137	0	
2.1913	15.7738	-5.27641	0	
2.1920	26.1499	-4.34135	0	
2.1927	30.4471	-5.27641	0	
2.1933	31.338	-3.47308	0	
2.1940	31.338	-1.60296	0	
2.1947	28.2985	-1.93691	0	
2.1953	24.0013	-2.53802	0	
2.1960	18.2368	-2.53802	0	
2.1967	8.43715	-2.53802	0	
2.1973	-2.82985	-2.87197	0	
2.1980	-9.85207	-3.74024	0	
2.1987	-3.72073	-3.74024	0	
2.1993	13.9396	-2.20407	0	
2.2000	27.0932	-3.13913	0	
2.2007	27.9841	-5.87752	0	
2.2013	20.3854	-4.07419	0	
2.2020	-1.62454	-0.734691	0	
2.2027	-36.4212	-2.53802	0	
2.2033	-52.8763	-5.27641	0	
2.2040	-38.203	-5.61036	0	
2.2047	-18.0796	-5.87752	0	
2.2053	-8.01791	-5.87752	0	
2.2060	-1.88657	-3.47308	0	
2.2067	0.838474	-1.3358	0	
2.2073	2.04378	-1.93691	0	
2.2080	3.56351	-4.34135	0	
2.2087	1.1529	-5.27641	0	
2.2093	-2.51542	-5.87752	0	
2.2100	-3.45871	-6.21147	0	
2.2107	-8.64676	-4.34135	0	
2.2113	-13.5204	-2.87197	0	
2.2120	-12.8915	-4.34135	0	
2.2127	-15.3546	-5.27641	0	
2.2133	-17.7652	-3.74024	0	
2.2140	-6.49817	-4.07419	0	
2.2147	12.1055	-5.27641	0	
2.2153	27.9841	-4.34135	0	
2.2160	35.3207	-3.47308	0	
2.2167	23.7393	-3.74024	0	
2.2173	0.524046	-1.60296	0	
2.2180	-14.4113	0.53432	0	
2.2187	-22.0623	-1.60296	0	
2.2193	-26.6216	-3.13913	0	
2.2200	-21.7479	-1.93691	0	
2.2207	-14.0968	-2.53802	0	
2.2213	-11.0574	-3.13913	0	
2.2220	-7.07463	-1.00185	0	
2.2227	-5.29287	-0.734691	0	
2.2233	-8.64676	-1.60296	0	
2.2240	-8.01791	0.20037	0	
2.2247	-4.03516	0.20037	0	
2.2253	-3.14428	-3.47308	0	
2.2260	-2.51542	-3.13913	0	
2.2267	-0.104809	2.93876	0	
2.2273	2.04378	4.47493	0	
2.2280	2.04378	-0.0667901	0	
2.2287	0.838474	-1.00185	0	
2.2293	2.04378	3.27271	0	
2.2300	4.19237	4.20777	0	
2.2307	6.65539	1.40259	0	
2.2313	12.1055	1.73654	0	
2.2320	14.5685	2.6716	0	
2.2327	10.5857	0.20037	0	
2.2333	9.38043	-0.40074	0	
2.2340	9.38043	1.13543	0	
2.2347	4.5068	-0.734691	0	
2.2353	1.46733	-1.60296	0	
2.2360	-2.51542	1.13543	0	
2.2367	-16.2454	2.07049	0	
2.2373	-26.0451	1.13543	0	
2.2380	-19.9138	1.73654	0	
2.2387	-12.5771	1.73654	0	
2.2393	-5.29287	0.20037	0	
2.2400	7.54627	0.20037	0	
2.2407	15.4594	1.73654	0	
2.2413	10.9002	2.93876	0	
2.2420	4.82123	2.07049	0	
2.2427	3.87794	0.20037	0	
2.2433	2.98706	-0.40074	0	
2.2440	-1.62454	0.801481	0	
2.2447	-8.01791	-0.40074	0	
2.2453	-11.6862	-1.3358	0	
2.2460	-13.5204	-0.0667901	0	
2.2467	-19.0229	-0.0667901	0	
2.2473	-22.3768	-1.60296	0	
2.2480	-16.2454	-2.87197	0	
2.2487	-7.07463	-3.47308	0	
2.2493	-1.62454	-1.3358	0	
2.2500	4.5068	0.20037	0	
2.2507	10.0093	-1.3358	0	
2.2513	9.38043	-0.734691	0	
2.2520	4.5068	3.27271	0	
2.2527	3.87794	3.27271	0	
2.2533	4.82123	1.13543	0	
2.2540	2.04378	2.07049	0	
2.2547	2.04378	1.40259	0	
2.2553	11.8434	-1.3358	0	
2.2560	24.9446	-1.3358	0	
2.2567	35.0063	0.53432	0	
2.2573	40.1944	2.07049	0	
2.2580	35.6351	2.6716	0	
2.2587	24.9446	1.13543	0	
2.2593	14.8829	-0.734691	0	
2.2600	-2.20099	-0.734691	0	
2.2607	-25.7307	-0.734691	0	
2.2613	-35.4779	0.20037	0	
2.2620	-25.4162	2.6716	0	
2.2627	-9.85207	1.13543	0	
2.2633	3.87794	-1.93691	0	
2.2640	13.0488	-0.0667901	0	
2.2647	14.5685	1.40259	0	
2.2653	12.1055	-1.00185	0	
2.2660	10.9002	-1.60296	0	
2.2667	11.529	-1.60296	0	
2.2673	16.4026	-3.47308	0	
2.2680	17.2935	-2.53802	0	
2.2687	6.91741	-0.40074	0	
2.2693	-8.64676	-1.60296	0	
2.2700	-25.4162	-0.734691	0	
2.2707	-40.0371	2.07049	0	
2.2713	-35.7924	1.13543	0	
2.2720	-13.206	0.20037	0	
2.2727	4.82123	0.53432	0	
2.2733	16.7171	-0.0667901	0	
2.2740	32.5957	0.20037	0	
2.2747	45.6968	0.20037	0	
2.2753	51.5138	-2.53802	0	
2.2760	49.9416	-1.3358	0	
2.2767	31.0235	1.73654	0	
2.2773	-0.366832	0.53432	0	
2.2780	-21.7479	0.53432	0	
2.2787	-32.4385	3.27271	0	
2.2793	-39.1463	1.13543	0	
2.2800	-35.1635	-1.93691	0	
2.2807	-22.6388	-1.3358	0	
2.2813	-17.1887	-2.53802	0	
2.2820	-18.0796	-4.34135	0	
2.2827	-18.0796	-1.3358	0	
2.2833	-17.4507	1.13543	0	
2.2840	-17.1887	-1.3358	0	
2.2847	-16.5599	-1.3358	0	
2.2853	-16.2454	-0.40074	0	
2.2860	-12.0007	-2.20407	0	
2.2867	-8.01791	-2.53802	0	
2.2873	-6.18375	-1.3358	0	
2.2880	-2.82985	-1.93691	0	
2.2887	2.04378	-1.93691	0	
2.2893	5.7121	-0.734691	0	
2.2900	13.0488	-0.40074	0	
2.2907	21.9051	-0.734691	0	
2.2913	24.6302	-1.00185	0	
2.2920	24.9446	-1.93691	0	
2.2927	24.9446	-1.60296	0	
2.2933	23.1104	-0.40074	0	
2.2940	21.5907	0.20037	0	
2.2947	15.4594	1.13543	0	
2.2953	1.1529	2.07049	0	
2.2960	-5.29287	2.93876	0	
2.2967	-5.29287	3.87382	0	
2.2973	-15.931	2.93876	0	
2.2980	-26.3071	3.53987	0	
2.2987	-18.0796	5.40999	0	
2.2993	-8.01791	2.07049	0	
2.3000	-7.38905	-1.93691	0	
2.3007	-5.55489	1.13543	0	
2.3013	-4.34958	2.07049	0	
2.3020	-7.70348	-1.93691	0	
2.3027	-8.64676	-0.40074	0	
2.3033	-7.07463	3.53987	0	
2.3040	-7.07463	1.40259	0	
2.3047	-5.55489	-1.00185	0	
2.3053	-4.03516	-1.00185	0	
2.3060	-6.8126	-2.53802	0	
2.3067	-8.90879	-1.93691	0	
2.3073	-8.33234	1.13543	0	
2.3080	-7.70348	0.53432	0	
2.3087	-6.18375	-1.60296	0	
2.3093	-2.51542	-0.734691	0	
2.3100	1.1529	0.20037	0	
2.3107	3.87794	0.53432	0	
2.3113	4.19237	2.07049	0	
2.3120	2.35821	0.53432	0	
2.3127	2.98706	-2.53802	0	
2.3133	4.19237	-0.734691	0	
2.3140	3.87794	0.801481	0	
2.3147	7.54627	-1.60296	0	
2.3153	19.4421	-2.20407	0	
2.3160	29.8182	-1.3358	0	
2.3167	32.2813	-3.74024	0	
2.3173	28.6129	-5.00925	0	
2.3180	22.796	-1.3358	0	
2.3187	19.4421	0.20037	0	
2.3193	17.608	-1.60296	0	
2.3200	10.0093	-1.3358	0	
2.3207	0.209619	-0.40074	0	
2.3213	-3.72073	-2.20407	0	
2.3220	-9.53764	-3.74024	0	
2.3227	-18.394	-2.20407	0	
2.3233	-20.857	-0.734691	0	
2.3240	-20.5426	-1.93691	0	
2.3247	-26.3071	-3.13913	0	
2.3253	-32.124	-1.00185	0	
2.3260	-32.4385	1.40259	0	
2.3267	-29.0846	1.13543	0	
2.3273	-21.4335	-1.60296	0	
2.3280	-3.45871	-4.34135	0	
2.3287	26.4643	-4.34135	0	
2.3293	63.724	-2.53802	0	
2.3300	100.302	-3.13913	0	
2.3307	121.998	-5.61036	0	
2.3313	110.102	-5.00925	0	
2.3320	67.0779	-1.00185	0	
2.3327	12.7343	-1.00185	0	
2.3333	-41.6093	-4.07419	0	
2.3340	-88.8783	-3.13913	0	
2.3347	-108.111	-0.734691	0	
2.3353	-94.0663	-0.734691	0	
2.3360	-67.2351	-1.60296	0	
2.3367	-41.8713	-1.60296	0	
2.3373	-22.9532	-2.20407	0	
2.3380	-9.53764	-2.87197	0	
2.3387	2.98706	-3.47308	0	
2.3393	12.4199	-4.34135	0	
2.3400	15.7738	-3.47308	0	
2.3407	16.0882	-2.53802	0	
2.3413	13.0488	-3.74024	0	
2.3420	4.82123	-1.93691	0	
2.3427	-7.07463	1.40259	0	
2.3433	-20.857	0.20037	0	
2.3440	-27.2504	-1.93691	0	
2.3447	-23.5821	-0.734691	0	
2.3453	-26.3071	-1.60296	0	
2.3460	-36.9977	-5.00925	0	
2.3467	-36.4212	-3.47308	0	
2.3473	-23.5821	0.53432	0	
2.3480	-12.8915	1.40259	0	
2.3487	-6.8126	-1.00185	0	
2.3493	-4.03516	-3.47308	0	
2.3500	-2.82985	-4.07419	0	
2.3507	1.1529	-2.87197	0	
2.3513	4.82123	-4.34135	0	
2.3520	4.82123	-5.27641	0	
2.3527	5.7121	-2.53802	0	
2.3533	6.65539	-0.734691	0	
2.3540	7.23184	-1.93691	0	
2.3547	9.066	-1.60296	0	
2.3553	10.9002	-1.3358	0	
2.3560	9.38043	-1.60296	0	
2.3567	8.17512	0.53432	0	
2.3573	9.38043	2.6716	0	
2.3580	12.4199	1.13543	0	
2.3587	13.6252	-0.734691	0	
2.3593	13.9396	-0.0667901	0	
2.3600	13.0488	2.07049	0	
2.3607	9.69486	3.27271	0	
2.3613	11.2146	1.40259	0	
2.3620	23.4249	0.20037	0	
2.3627	31.6524	0.20037	0	
2.3633	23.7393	-0.734691	0	
2.3640	8.75157	-0.40074	0	
2.3647	2.04378	2.93876	0	
2.3653	5.08325	2.93876	0	
2.3660	8.43715	-0.0667901	0	
2.3667	3.56351	-1.60296	0	
2.3673	-3.14428	-1.00185	0	
2.3680	-6.49817	-0.0667901	0	
2.3687	-14.4113	1.13543	0	
2.3693	-23.8965	2.07049	0	
2.3700	-25.4162	2.93876	0	
2.3707	-21.7479	2.33765	0	
2.3713	-19.2849	-0.0667901	0	
2.3720	-14.4113	-0.40074	0	
2.3727	-5.29287	1.13543	0	
2.3733	3.30149	0.20037	0	
2.3740	8.17512	0.20037	0	
2.3747	9.38043	3.53987	0	
2.3753	9.066	3.87382	0	
2.3760	8.17512	2.33765	0	
2.3767	5.39768	4.80888	0	
2.3773	2.04378	6.94617	0	
2.3780	-1.88657	5.07604	0	
2.3787	-2.82985	3.87382	0	
2.3793	6.65539	4.20777	0	
2.3800	24.3157	4.20777	0	
2.3807	39.5655	3.87382	0	
2.3813	47.531	3.53987	0	
2.3820	48.7363	2.93876	0	
2.3827	42.3429	3.27271	0	
2.3833	24.9446	3.27271	0	
2.3840	0.209619	2.33765	0	
2.3847	-20.2282	2.93876	0	
2.3853	-30.9187	5.07604	0	
2.3860	-36.4212	5.40999	0	
2.3867	-36.4212	1.73654	0	
2.3873	-25.1018	-1.60296	0	
2.3880	-11.0574	-0.40074	0	
2.3887	-12.0007	2.07049	0	
2.3893	-26.3071	2.07049	0	
2.3900	-33.3293	1.40259	0	
2.3907	-20.5426	0.20037	0	
2.3913	-3.45871	-1.93691	0	
2.3920	1.1529	-0.734691	0	
2.3927	-1.88657	2.93876	0	
2.3933	-8.01791	3.27271	0	
2.3940	-21.7479	1.13543	0	
2.3947	-30.9187	1.13543	0	
2.3953	-22.0623	1.13543	0	
2.3960	-5.86932	1.40259	0	
2.3967	4.19237	2.33765	0	
2.3973	10.5857	2.93876	0	
2.3980	15.7738	3.27271	0	
2.3987	16.0882	2.93876	0	
2.3993	13.9396	2.07049	0	
2.4000	13.6252	3.87382	0	
2.4007	9.38043	4.47493	0	
2.4013	1.1529	2.33765	0	
2.4020	-6.18375	1.73654	0	
2.4027	-11.6862	2.33765	0	
2.4033	-14.4113	0.20037	0	
2.4040	-12.0007	-1.3358	0	
2.4047	-8.33234	0.20037	0	
2.4053	-10.7429	0.53432	0	
2.4060	-14.4113	1.13543	0	
2.4067	-12.0007	3.87382	0	
2.4073	-6.49817	2.07049	0	
2.4080	-3.72073	-1.60296	0	
2.4087	-1.31012	-0.0667901	0	
2.4093	2.35821	1.13543	0	
2.4100	5.08325	-2.87197	0	
2.4107	5.7121	-5.27641	0	
2.4113	8.17512	-4.34135	0	
2.4120	9.69486	-5.27641	0	
2.4127	7.86069	-5.27641	0	
2.4133	6.91741	-1.60296	0	
2.4140	9.69486	-1.3358	0	
2.4147	10.2713	-4.34135	0	
2.4153	9.066	-4.6753	0	
2.4160	11.529	-3.74024	0	
2.4167	13.0488	-4.34135	0	
2.4173	11.529	-3.74024	0	
2.4180	10.5857	-2.87197	0	
2.4187	10.2713	-2.53802	0	
2.4193	9.69486	0.20037	0	
2.4200	11.8434	1.73654	0	
2.4207	10.2713	0.20037	0	
2.4213	2.98706	1.40259	0	
2.4220	2.04378	2.93876	0	
2.4227	5.39768	-0.0667901	0	
2.4233	2.98706	-1.93691	0	
2.4240	3.87794	1.13543	0	
2.4247	16.0882	1.73654	0	
2.4253	23.4249	-1.60296	0	
2.4260	26.7788	-3.47308	0	
2.4267	39.8799	-3.74024	0	
2.4273	40.5088	-2.53802	0	
2.4280	14.8829	-0.734691	0	
2.4287	-8.64676	-1.3358	0	
2.4293	-15.931	-3.13913	0	
2.4300	-21.7479	-3.13913	0	
2.4307	-22.6388	-4.34135	0	
2.4313	-18.394	-7.14654	0	
2.4320	-19.9138	-7.74765	0	
2.4327	-24.473	-6.21147	0	
2.4333	-28.1413	-4.07419	0	
2.4340	-34.5871	-2.20407	0	
2.4347	-33.9582	-1.3358	0	
2.4353	-22.6388	-1.3358	0	
2.4360	-13.206	-1.00185	0	
2.4367	-8.01791	-1.60296	0	
2.4373	-1.88657	-2.53802	0	
2.4380	0.838474	-3.13913	0	
2.4387	1.1529	-3.74024	0	
2.4393	2.98706	-2.53802	0	
2.4400	2.04378	-1.00185	0	
2.4407	-1.88657	-2.53802	0	
2.4413	-3.72073	-3.47308	0	
2.4420	-4.66401	-1.00185	0	
2.4427	-6.8126	-0.0667901	0	
2.4433	-6.8126	-3.47308	0	
2.4440	-3.72073	-5.27641	0	
2.4447	-1.88657	-3.47308	0	
2.4453	-0.995688	-0.734691	0	
2.4460	-0.366832	-1.60296	0	
2.4467	-1.62454	-2.87197	0	
2.4473	-0.68126	-1.60296	0	
2.4480	3.87794	0.20037	0	
2.4487	4.5068	-0.734691	0	
2.4493	3.87794	-0.40074	0	
2.4500	7.54627	0.801481	0	
2.4507	9.38043	1.13543	0	
2.4513	9.066	1.73654	0	
2.4520	12.1055	2.07049	0	
2.4527	12.7343	1.13543	0	
2.4533	4.82123	0.53432	0	
2.4540	-3.14428	-2.20407	0	
2.4547	-8.90879	-5.27641	0	
2.4553	-17.1887	-2.53802	0	
2.4560	-21.7479	0.53432	0	
2.4567	-11.3718	-1.60296	0	
2.4573	13.9396	-0.0667901	0	
2.4580	46.9021	3.87382	0	
2.4587	79.2882	2.07049	0	
2.4593	95.4288	-0.40074	0	
2.4600	82.6421	2.07049	0	
2.4607	51.7758	2.33765	0	
2.4613	11.2146	-0.40074	0	
2.4620	-39.4607	1.13543	0	
2.4627	-77.2968	3.87382	0	
2.4633	-72.7376	2.07049	0	
2.4640	-42.5002	1.13543	0	
2.4647	-20.2282	2.93876	0	
2.4653	-11.0574	1.13543	0	
2.4660	-8.64676	-1.60296	0	
2.4667	-8.90879	-0.734691	0	
2.4673	-8.64676	-0.734691	0	
2.4680	-8.90879	-4.07419	0	
2.4687	-10.7429	-5.27641	0	
2.4693	-13.5204	-2.87197	0	
2.4700	-20.857	-2.20407	0	
2.4707	-29.9754	-3.13913	0	
2.4713	-31.8096	-1.60296	0	
2.4720	-25.4162	0.801481	0	
2.4727	-15.3546	-0.734691	0	
2.4733	-3.45871	-3.47308	0	
2.4740	4.5068	-1.3358	0	
2.4747	6.65539	-0.734691	0	
2.4753	11.2146	-3.47308	0	
2.4760	20.3854	-1.93691	0	
2.4767	25.8355	2.07049	0	
2.4773	24.9446	1.13543	0	
2.4780	23.1104	0.20037	0	
2.4787	29.1894	-0.40074	0	
2.4793	38.0458	-2.87197	0	
2.4800	28.6129	-1.60296	0	
2.4807	-1.31012	2.33765	0	
2.4813	-25.1018	0.801481	0	
2.4820	-33.9582	-1.93691	0	
2.4827	-40.9804	-1.00185	0	
2.4833	-42.8146	0.53432	0	
2.4840	-30.9187	1.73654	0	
2.4847	-17.4507	1.73654	0	
2.4853	-8.64676	-2.53802	0	
2.4860	-1.62454	-4.34135	0	
2.4867	-2.51542	-0.734691	0	
2.4873	-9.85207	0.801481	0	
2.4880	-10.4809	-1.3358	0	
2.4887	-5.29287	-2.87197	0	
2.4893	-2.51542	-2.53802	0	
2.4900	-0.995688	-0.40074	0	
2.4907	-0.104809	1.13543	0	
2.4913	1.1529	0.20037	0	
2.4920	5.7121	-1.00185	0	
2.4927	10.2713	-0.734691	0	
2.4933	11.8434	-1.3358	0	
2.4940	13.6252	-0.734691	0	
2.4947	14.8829	0.53432	0	
2.4953	13.0488	-0.734691	0	
2.4960	9.38043	-1.93691	0	
2.4967	-0.104809	-0.40074	0	
2.4973	-11.0574	2.07049	0	
2.4980	-11.6862	2.93876	0	
2.4987	-5.55489	1.73654	0	
2.4993	-1.62454	0.20037	0	
2.5000	1.72935	2.33765	0	
2.5007	3.87794	4.80888	0	
2.5013	3.30149	2.07049	0	
2.5020	4.5068	-1.60296	0	
2.5027	2.98706	-1.00185	0	
2.5033	-5.86932	-1.00185	0	
2.5040	-13.5204	-1.60296	0	
2.5047	-16.2454	0.20037	0	
2.5053	-18.7085	-1.3358	0	
2.5060	-15.669	-3.13913	0	
2.5067	-3.72073	-0.734691	0	
2.5073	10.2713	0.20037	0	
2.5080	22.2196	-2.53802	0	
2.5087	32.2813	-0.40074	0	
2.5093	34.1154	2.6716	0	
2.5100	31.0235	-0.40074	0	
2.5107	27.9841	-3.47308	0	
2.5113	17.608	-1.60296	0	
2.5120	0.209619	0.20037	0	
2.5127	-1.62454	-1.93691	0	
2.5133	20.6474	-3.74024	0	
2.5140	42.0285	-2.53802	0	
2.5147	46.0113	-1.60296	0	
2.5153	34.6919	-1.00185	0	
2.5160	3.30149	1.13543	0	
2.5167	-38.203	1.13543	0	
2.5173	-59.2696	-1.00185	0	
2.5180	-53.1907	-1.00185	0	
2.5187	-39.7751	-1.60296	0	
2.5193	-22.9532	-2.53802	0	
2.5200	-5.29287	0.20037	0	
2.5207	1.72935	3.27271	0	
2.5213	4.5068	1.73654	0	
2.5220	12.4199	-0.40074	0	
2.5227	27.6696	-2.20407	0	
2.5233	49.3652	-4.34135	0	
2.5240	59.7413	-2.53802	0	
2.5247	39.5655	0.20037	0	
2.5253	8.17512	0.20037	0	
2.5260	-15.669	2.33765	0	
2.5267	-37.3121	5.07604	0	
2.5273	-48.8935	2.07049	0	
2.5280	-39.1463	-0.734691	0	
2.5287	-28.1413	2.07049	0	
2.5293	-29.661	3.53987	0	
2.5300	-37.3121	2.07049	0	
2.5307	-44.0199	1.73654	0	
2.5313	-41.8713	2.6716	0	
2.5320	-30.6043	3.87382	0	
2.5327	-20.5426	5.40999	0	
2.5333	-13.206	3.87382	0	
2.5340	-4.66401	3.27271	0	
2.5347	-2.20099	4.80888	0	
2.5353	-3.45871	3.87382	0	
2.5360	3.87794	2.6716	0	
2.5367	17.608	4.80888	0	
2.5373	27.4076	4.47493	0	
2.5380	27.6696	2.07049	0	
2.5387	20.071	2.93876	0	
2.5393	11.8434	3.87382	0	
2.5400	9.38043	2.6716	0	
2.5407	6.34096	2.93876	0	
2.5413	-2.20099	2.93876	0	
2.5420	-13.5204	1.40259	0	
2.5427	-22.9532	2.6716	0	
2.5433	-25.4162	4.20777	0	
2.5440	-16.2454	2.93876	0	
2.5447	-3.72073	1.13543	0	
2.5453	0.524046	0.801481	0	
2.5460	-0.995688	1.40259	0	
2.5467	1.1529	2.93876	0	
2.5473	7.23184	2.33765	0	
2.5480	12.1055	-0.0667901	0	
2.5487	14.5685	0.53432	0	
2.5493	16.7171	1.73654	0	
2.5500	18.8133	-0.40074	0	
2.5507	18.8133	-1.93691	0	
2.5513	13.9396	-3.13913	0	
2.5520	5.39768	-4.34135	0	
2.5527	0.209619	-3.47308	0	
2.5533	1.1529	-2.20407	0	
2.5540	1.1529	-1.93691	0	
2.5547	3.56351	-1.3358	0	
2.5553	11.8434	-0.734691	0	
2.5560	15.4594	-1.60296	0	
2.5567	11.2146	-1.00185	0	
2.5573	10.0093	-1.00185	0	
2.5580	8.75157	-0.734691	0	
2.5587	2.98706	0.20037	0	
2.5593	0.209619	0.801481	0	
2.5600	-0.68126	-0.40074	0	
2.5607	-7.07463	-1.60296	0	
2.5613	-12.0007	-2.53802	0	
2.5620	-6.18375	-1.3358	0	
2.5627	7.54627	0.20037	0	
2.5633	18.5512	0.20037	0	
2.5640	24.0013	2.33765	0	
2.5647	35.6351	4.47493	0	
2.5653	61.5754	2.07049	0	
2.5660	84.4763	-0.0667901	0	
2.5667	82.6421	2.07049	0	
2.5673	66.7635	1.13543	0	
2.5680	53.6099	-2.87197	0	
2.5687	25.8355	-3.13913	0	
2.5693	-23.5821	-1.60296	0	
2.5700	-51.9854	-1.60296	0	
2.5707	-35.7924	-1.3358	0	
2.5713	-18.0796	1.13543	0	
2.5720	-31.8096	1.40259	0	
2.5727	-50.7277	-0.734691	0	
2.5733	-56.2302	-2.53802	0	
2.5740	-58.6932	-2.53802	0	
2.5747	-57.4355	-3.13913	0	
2.5753	-50.4133	-2.87197	0	
2.5760	-46.7973	-0.734691	0	
2.5767	-43.391	-0.0667901	0	
2.5773	-33.9582	-0.734691	0	
2.5780	-25.4162	-0.734691	0	
2.5787	-19.5993	-0.734691	0	
2.5793	-7.07463	-1.3358	0	
2.5800	10.2713	0.20037	0	
2.5807	20.9619	1.73654	0	
2.5813	18.5512	2.93876	0	
2.5820	12.1055	4.80888	0	
2.5827	9.69486	2.93876	0	
2.5833	7.23184	-1.00185	0	
2.5840	-1.62454	-0.734691	0	
2.5847	-13.206	1.13543	0	
2.5853	-23.5821	0.20037	0	
2.5860	-27.5648	-1.60296	0	
2.5867	-22.0623	-1.93691	0	
2.5873	-12.8915	-3.47308	0	
2.5880	-7.38905	-5.27641	0	
2.5887	-4.66401	-3.74024	0	
2.5893	-4.66401	-0.40074	0	
2.5900	-5.29287	-0.734691	0	
2.5907	-2.51542	-4.34135	0	
2.5913	1.72935	-5.27641	0	
2.5920	4.19237	-2.87197	0	
2.5927	4.5068	-2.20407	0	
2.5933	2.98706	-4.07419	0	
2.5940	3.56351	-3.47308	0	
2.5947	5.7121	-0.734691	0	
2.5953	4.5068	-0.40074	0	
2.5960	3.56351	-1.93691	0	
2.5967	5.39768	-1.93691	0	
2.5973	4.82123	-0.0667901	0	
2.5980	3.87794	0.53432	0	
2.5987	7.23184	0.53432	0	
2.5993	9.066	1.13543	0	
2.6000	8.43715	-0.40074	0	
2.6007	13.9396	-2.53802	0	
2.6013	22.796	-1.3358	0	
2.6020	26.1499	2.07049	0	
2.6027	19.7565	0.801481	0	
2.6033	10.0093	-3.47308	0	
2.6040	5.7121	-3.47308	0	
2.6047	4.5068	-0.734691	0	
2.6053	0.838474	-1.00185	0	
2.6060	-1.62454	-3.13913	0	
2.6067	0.524046	-2.20407	0	
2.6073	8.17512	-0.734691	0	
2.6080	19.4421	-0.40074	0	
2.6087	20.071	0.20037	0	
2.6093	8.17512	-0.0667901	0	
2.6100	1.1529	-3.47308	0	
2.6107	1.46733	-4.6753	0	
2.6113	-3.14428	-5.00925	0	
2.6120	-5.86932	-6.81259	0	
2.6127	2.35821	-5.27641	0	
2.6133	11.8434	-0.734691	0	
2.6140	13.0488	-1.60296	0	
2.6147	9.066	-5.27641	0	
2.6153	4.19237	-3.47308	0	
2.6160	-5.29287	-1.00185	0	
2.6167	-20.2282	-3.13913	0	
2.6173	-24.473	-3.74024	0	
2.6180	-12.5771	0.20037	0	
2.6187	0.209619	0.53432	0	
2.6193	6.91741	-2.20407	0	
2.6200	12.1055	0.53432	0	
2.6207	12.7343	3.27271	0	
2.6213	10.9002	-1.3358	0	
2.6220	13.3632	-3.47308	0	
2.6227	14.8829	2.07049	0	
2.6233	8.43715	3.87382	0	
2.6240	-2.20099	0.801481	0	
2.6247	-13.5204	2.07049	0	
2.6253	-22.3768	4.20777	0	
2.6260	-25.4162	3.27271	0	
2.6267	-23.5821	2.93876	0	
2.6273	-12.8915	3.87382	0	
2.6280	5.08325	3.27271	0	
2.6287	18.5512	2.07049	0	
2.6293	21.2763	0.801481	0	
2.6300	14.5685	-0.40074	0	
2.6307	-2.51542	0.20037	0	
2.6313	-30.9187	1.13543	0	
2.6320	-53.5051	2.07049	0	
2.6327	-47.3738	3.27271	0	
2.6333	-15.3546	2.93876	0	
2.6340	10.2713	0.801481	0	
2.6347	16.7171	1.13543	0	
2.6353	17.9224	2.93876	0	
2.6360	10.0093	2.93876	0	
2.6367	-15.0401	0.801481	0	
2.6373	-32.7529	-0.0667901	0	
2.6380	-25.4162	1.73654	0	
2.6387	-9.85207	4.47493	0	
2.6393	-1.31012	5.07604	0	
2.6400	3.87794	3.87382	0	
2.6407	6.91741	3.27271	0	
2.6413	10.9002	4.80888	0	
2.6420	17.0315	6.0111	0	
2.6427	20.3854	4.80888	0	
2.6433	17.608	3.27271	0	
2.6440	12.1055	3.27271	0	
2.6447	8.43715	4.47493	0	
2.6453	8.43715	5.67715	0	
2.6460	4.82123	3.87382	0	
2.6467	-5.86932	0.801481	0	
2.6473	-18.7085	1.13543	0	
2.6480	-29.9754	2.33765	0	
2.6487	-33.6438	1.13543	0	
2.6493	-23.2677	-0.734691	0	
2.6500	-9.85207	-1.93691	0	
2.6507	-7.38905	-2.53802	0	
2.6513	-4.34958	0.20037	0	
2.6520	7.86069	2.07049	0	
2.6527	22.796	0.20037	0	
2.6533	36.8405	1.13543	0	
2.6540	42.6574	3.53987	0	
2.6547	31.9668	2.07049	0	
2.6553	14.5685	-0.0667901	0	
2.6560	2.04378	0.801481	0	
2.6567	-10.1665	0.20037	0	
2.6573	-19.0229	-1.93691	0	
2.6580	-15.3546	-3.13913	0	
2.6587	-8.01791	-2.20407	0	
2.6593	-6.49817	0.20037	0	
2.6600	-7.70348	1.40259	0	
2.6607	-7.07463	-0.734691	0	
2.6613	-3.45871	-2.87197	0	
2.6620	-0.104809	-2.20407	0	
2.6627	-1.88657	-2.20407	0	
2.6633	-3.45871	-3.74024	0	
2.6640	2.04378	-4.34135	0	
2.6647	8.43715	-4.34135	0	
2.6653	13.9396	-5.87752	0	
2.6660	17.608	-6.81259	0	
2.6667	15.1973	-4.34135	0	
2.6673	13.0488	-2.87197	0	
2.6680	17.608	-4.6753	0	
2.6687	18.8133	-7.14654	0	
2.6693	13.0488	-7.4137	0	
2.6700	10.2713	-6.81259	0	
2.6707	9.066	-6.21147	0	
2.6713	6.34096	-6.21147	0	
2.6720	5.39768	-6.47864	0	
2.6727	2.98706	-6.21147	0	
2.6733	-2.20099	-4.34135	0	
2.6740	-6.8126	-2.20407	0	
2.6747	-15.3546	-2.20407	0	
2.6753	-22.9532	-3.47308	0	
2.6760	-17.7652	-3.13913	0	
2.6767	-4.34958	-2.53802	0	
2.6773	3.87794	-4.07419	0	
2.6780	6.91741	-4.34135	0	
2.6787	6.34096	-3.47308	0	
2.6793	8.43715	-4.34135	0	
2.6800	15.7738	-4.6753	0	
2.6807	18.8133	-4.07419	0	
2.6813	18.2368	-4.6753	0	
2.6820	19.4421	-5.61036	0	
2.6827	14.8829	-5.61036	0	
2.6833	-0.68126	-4.07419	0	
2.6840	-12.8915	-1.60296	0	
2.6847	-20.5426	-2.53802	0	
2.6853	-34.5871	-5.00925	0	
2.6860	-50.7277	-2.87197	0	
2.6867	-48.5791	-1.60296	0	
2.6873	-20.5426	-4.07419	0	
2.6880	12.4199	-2.53802	0	
2.6887	33.1721	-1.00185	0	
2.6893	45.068	-1.93691	0	
2.6900	38.6746	-0.40074	0	
2.6907	12.4199	0.20037	0	
2.6913	-1.31012	-1.93691	0	
2.6920	-0.366832	-1.3358	0	
2.6927	-19.2849	-1.00185	0	
2.6933	-44.3343	-2.53802	0	
2.6940	-44.6487	1.13543	0	
2.6947	-40.3516	3.27271	0	
2.6953	-41.2948	-1.00185	0	
2.6960	-28.1413	-0.734691	0	
2.6967	-12.0007	4.20777	0	
2.6973	-12.0007	2.93876	0	
2.6980	-12.8915	0.801481	0	
2.6987	-8.90879	2.6716	0	
2.6993	-8.33234	2.33765	0	
2.7000	-7.07463	0.20037	0	
2.7007	-4.34958	0.53432	0	
2.7013	-2.20099	2.07049	0	
2.7020	2.04378	2.33765	0	
2.7027	5.08325	2.33765	0	
2.7033	3.87794	2.07049	0	
2.7040	3.87794	1.73654	0	
2.7047	3.87794	1.13543	0	
2.7053	3.87794	1.40259	0	
2.7060	11.2146	2.07049	0	
2.7067	22.4816	1.13543	0	
2.7073	28.2985	1.73654	0	
2.7080	26.1499	4.47493	0	
2.7087	20.3854	4.20777	0	
2.7093	15.1973	2.93876	0	
2.7100	13.0488	5.07604	0	
2.7107	10.0093	5.67715	0	
2.7113	3.87794	2.93876	0	
2.7120	-5.29287	2.93876	0	
2.7127	-15.0401	3.87382	0	
2.7133	-15.931	2.93876	0	
2.7140	-7.70348	3.87382	0	
2.7147	-1.62454	3.87382	0	
2.7153	0.838474	1.40259	0	
2.7160	3.87794	2.6716	0	
2.7167	8.17512	4.20777	0	
2.7173	9.38043	0.20037	0	
2.7180	8.17512	-0.734691	0	
2.7187	10.0093	2.93876	0	
2.7193	19.1277	4.80888	0	
2.7200	29.5038	2.6716	0	
2.7207	34.1154	0.20037	0	
2.7213	31.9668	-1.00185	0	
2.7220	22.4816	0.801481	0	
2.7227	12.4199	2.93876	0	
2.7233	9.38043	2.07049	0	
2.7240	6.65539	1.13543	0	
2.7247	-0.104809	1.13543	0	
2.7253	-6.18375	0.53432	0	
2.7260	-15.0401	2.93876	0	
2.7267	-27.8269	3.53987	0	
2.7273	-27.5648	-0.40074	0	
2.7280	-13.5204	-2.53802	0	
2.7287	-4.03516	-1.3358	0	
2.7293	-3.14428	-0.734691	0	
2.7300	-2.82985	-1.00185	0	
2.7307	-8.64676	-1.60296	0	
2.7313	-21.7479	-2.53802	0	
2.7320	-29.0846	-2.20407	0	
2.7327	-24.473	-1.60296	0	
2.7333	-15.669	-1.60296	0	
2.7340	-7.70348	-0.734691	0	
2.7347	-1.31012	-0.40074	0	
2.7353	3.56351	-2.53802	0	
2.7360	6.91741	-3.74024	0	
2.7367	7.86069	-4.34135	0	
2.7373	9.38043	-4.34135	0	
2.7380	15.7738	-3.47308	0	
2.7387	21.9051	-4.34135	0	
2.7393	17.9224	-5.27641	0	
2.7400	2.98706	-2.53802	0	
2.7407	-11.6862	-2.20407	0	
2.7413	-19.2849	-4.34135	0	
2.7420	-22.3768	-2.87197	0	
2.7427	-20.857	0.20037	0	
2.7433	-12.2627	-1.60296	0	
2.7440	-5.29287	-3.47308	0	
2.7447	-7.38905	-1.93691	0	
2.7453	-7.38905	-2.20407	0	
2.7460	-2.82985	-3.47308	0	
2.7467	-2.51542	-2.53802	0	
2.7473	-3.45871	-0.734691	0	
2.7480	-2.82985	-0.734691	0	
2.7487	-5.29287	-0.40074	0	
2.7493	-6.18375	-1.60296	0	
2.7500	-2.51542	-3.74024	0	
2.7507	-4.34958	-3.74024	0	
2.7513	-6.49817	-1.3358	0	
2.7520	1.1529	-0.0667901	0	
2.7527	8.43715	-0.734691	0	
2.7533	6.91741	-0.0667901	0	
2.7540	10.0093	2.6716	0	
2.7547	24.6302	3.53987	0	
2.7553	40.5088	1.13543	0	
2.7560	46.9021	-0.0667901	0	
2.7567	39.5655	1.13543	0	
2.7573	19.1277	1.13543	0	
2.7580	-4.97844	0.801481	0	
2.7587	-24.473	2.93876	0	
2.7593	-34.2726	2.6716	0	
2.7600	-29.9754	-0.0667901	0	
2.7607	-16.8743	-0.734691	0	
2.7613	-9.22322	-0.0667901	0	
2.7620	-9.85207	-0.734691	0	
2.7627	-10.1665	-1.00185	0	
2.7633	-8.90879	-1.60296	0	
2.7640	-9.53764	-1.93691	0	
2.7647	-8.01791	-0.40074	0	
2.7653	-0.68126	1.73654	0	
2.7660	12.7343	1.13543	0	
2.7667	25.8355	-0.0667901	0	
2.7673	28.6129	0.20037	0	
2.7680	19.7565	1.73654	0	
2.7687	13.9396	1.13543	0	
2.7693	13.3632	-0.734691	0	
2.7700	7.54627	-0.734691	0	
2.7707	-0.68126	2.07049	0	
2.7713	-11.0574	2.6716	0	
2.7720	-33.3293	1.40259	0	
2.7727	-52.5618	1.73654	0	
2.7733	-48.3171	2.6716	0	
2.7740	-33.9582	2.33765	0	
2.7747	-23.2677	1.13543	0	
2.7753	-10.1665	-0.40074	0	
2.7760	-0.68126	0.801481	0	
2.7767	-0.104809	2.33765	0	
2.7773	2.67264	2.07049	0	
2.7780	9.69486	1.13543	0	
2.7787	20.3854	0.20037	0	
2.7793	35.0063	-1.3358	0	
2.7800	40.1944	-1.3358	0	
2.7807	34.1154	0.801481	0	
2.7813	31.0235	2.07049	0	
2.7820	27.6696	3.53987	0	
2.7827	14.8829	5.07604	0	
2.7833	6.65539	3.53987	0	
2.7840	7.86069	1.13543	0	
2.7847	3.56351	1.13543	0	
2.7853	-18.7085	1.40259	0	
2.7860	-52.2474	2.6716	0	
2.7867	-69.6458	3.87382	0	
2.7873	-52.2474	2.07049	0	
2.7880	-24.7874	-1.3358	0	
2.7887	-12.2627	-0.734691	0	
2.7893	-7.70348	0.20037	0	
2.7900	-5.29287	-1.60296	0	
2.7907	-8.01791	-2.20407	0	
2.7913	-8.64676	-0.734691	0	
2.7920	-6.8126	1.13543	0	
2.7927	-7.07463	1.40259	0	
2.7933	-4.66401	-0.734691	0	
2.7940	0.209619	-1.60296	0	
2.7947	2.98706	2.07049	0	
2.7953	10.2713	3.87382	0	
2.7960	21.9051	2.07049	0	
2.7967	24.3157	2.33765	0	
2.7973	18.5512	1.13543	0	
2.7980	17.608	-2.53802	0	
2.7987	18.2368	-2.87197	0	
2.7993	13.0488	-1.60296	0	
2.8000	7.23184	-2.87197	0	
2.8007	2.04378	-2.53802	0	
2.8013	-8.01791	0.20037	0	
2.8020	-15.3546	1.40259	0	
2.8027	-8.01791	0.801481	0	
2.8033	13.0488	-0.734691	0	
2.8040	36.2116	-1.60296	0	
2.8047	45.068	-1.00185	0	
2.8053	32.5957	-1.93691	0	
2.8060	10.9002	-3.74024	0	
2.8067	-5.29287	-2.53802	0	
2.8073	-15.0401	0.20037	0	
2.8080	-22.6388	-0.40074	0	
2.8087	-26.0451	-1.60296	0	
2.8093	-20.857	-0.734691	0	
2.8100	-13.5204	1.13543	0	
2.8107	-11.0574	1.13543	0	
2.8113	-8.64676	0.801481	0	
2.8120	2.04378	1.13543	0	
2.8127	12.1055	0.20037	0	
2.8133	15.7738	-3.47308	0	
2.8140	15.7738	-4.6753	0	
2.8147	12.7343	-2.53802	0	
2.8153	13.9396	-1.3358	0	
2.8160	24.0013	-0.734691	0	
2.8167	26.7788	-0.734691	0	
2.8173	17.9224	-3.47308	0	
2.8180	10.5857	-5.61036	0	
2.8187	3.56351	-2.87197	0	
2.8193	-3.14428	-1.60296	0	
2.8200	-0.68126	-4.34135	0	
2.8207	-0.104809	-4.34135	0	
2.8213	-6.18375	-2.53802	0	
2.8220	-8.01791	-1.60296	0	
2.8227	-14.4113	-0.734691	0	
2.8233	-28.7701	0.53432	0	
2.8240	-26.936	1.40259	0	
2.8247	-12.0007	3.27271	0	
2.8253	-4.34958	4.20777	0	
2.8260	0.524046	1.73654	0	
2.8267	8.17512	0.20037	0	
2.8273	10.9002	1.13543	0	
2.8280	10.5857	0.801481	0	
2.8287	7.54627	0.20037	0	
2.8293	-4.34958	1.40259	0	
2.8300	-14.0968	1.13543	0	
2.8307	-15.3546	0.801481	0	
2.8313	-16.2454	2.6716	0	
2.8320	-22.6388	0.53432	0	
2.8327	-28.7701	-2.53802	0	
2.8333	-26.936	0.20037	0	
2.8340	-12.0007	1.13543	0	
2.8347	12.7343	-1.3358	0	
2.8353	30.4471	1.13543	0	
2.8360	29.5038	2.93876	0	
2.8367	21.5907	0.53432	0	
2.8373	15.7738	2.07049	0	
2.8380	0.209619	5.07604	0	
2.8387	-25.1018	1.40259	0	
2.8393	-34.2726	-1.00185	0	
2.8400	-20.2282	1.73654	0	
2.8407	-7.07463	2.93876	0	
2.8413	-5.29287	4.20777	0	
2.8420	-5.29287	6.61222	0	
2.8427	-3.45871	3.53987	0	
2.8433	-4.97844	-1.3358	0	
2.8440	-12.5771	0.20037	0	
2.8447	-22.6388	2.93876	0	
2.8453	-25.7307	2.93876	0	
2.8460	-22.3768	2.93876	0	
2.8467	-18.0796	3.87382	0	
2.8473	-6.8126	1.40259	0	
2.8480	14.8829	0.20037	0	
2.8487	42.0285	2.6716	0	
2.8493	64.3005	2.93876	0	
2.8500	63.4096	0.801481	0	
2.8507	41.3997	0.53432	0	
2.8513	19.4421	1.13543	0	
2.8520	-3.72073	-0.0667901	0	
2.8527	-35.1635	-2.53802	0	
2.8533	-44.3343	-3.74024	0	
2.8540	-21.1191	-3.47308	0	
2.8547	1.46733	-2.53802	0	
2.8553	11.529	-3.74024	0	
2.8560	18.8133	-4.6753	0	
2.8567	18.2368	-1.93691	0	
2.8573	6.91741	-0.734691	0	
2.8580	-3.14428	-3.13913	0	
2.8587	-8.33234	-3.74024	0	
2.8593	-8.90879	-0.40074	0	
2.8600	-6.18375	2.07049	0	
2.8607	-8.01791	0.20037	0	
2.8613	-16.2454	-2.53802	0	
2.8620	-23.5821	-4.34135	0	
2.8627	-25.1018	-5.61036	0	
2.8633	-21.7479	-5.00925	0	
2.8640	-19.5993	-3.47308	0	
2.8647	-20.857	-4.07419	0	
2.8653	-19.9138	-4.34135	0	
2.8660	-16.2454	-3.47308	0	
2.8667	-12.0007	-3.47308	0	
2.8673	-2.51542	-4.07419	0	
2.8680	9.38043	-4.07419	0	
2.8687	21.9051	-4.6753	0	
2.8693	44.1771	-3.13913	0	
2.8700	67.0779	-1.00185	0	
2.8707	67.9688	-3.74024	0	
2.8713	54.2388	-5.87752	0	
2.8720	44.1771	-2.20407	0	
2.8727	38.6746	-1.60296	0	
2.8733	32.8577	-6.21147	0	
2.8740	22.4816	-7.14654	0	
2.8747	3.87794	-3.47308	0	
2.8753	-15.931	-1.00185	0	
2.8760	-34.5871	-0.734691	0	
2.8767	-48.3171	-2.87197	0	
2.8773	-42.8146	-3.47308	0	
2.8780	-24.2109	0.20037	0	
2.8787	-13.206	2.07049	0	
2.8793	-8.64676	-1.60296	0	
2.8800	-3.45871	-2.53802	0	
2.8807	-3.14428	-0.734691	0	
2.8813	-5.29287	-2.53802	0	
2.8820	-8.01791	-3.13913	0	
2.8827	-12.8915	-0.40074	0	
2.8833	-12.2627	-1.00185	0	
2.8840	-8.33234	-3.47308	0	
2.8847	-10.4809	-1.93691	0	
2.8853	-11.3718	-0.734691	0	
2.8860	-7.07463	-1.93691	0	
2.8867	-3.45871	-1.60296	0	
2.8873	4.5068	-1.3358	0	
2.8880	15.4594	-2.20407	0	
2.8887	17.608	-1.3358	0	
2.8893	14.2541	0.53432	0	
2.8900	12.1055	0.20037	0	
2.8907	8.17512	-0.0667901	0	
2.8913	3.87794	-0.40074	0	
2.8920	-1.62454	-0.40074	0	
2.8927	-12.8915	2.07049	0	
2.8933	-21.7479	3.87382	0	
2.8940	-19.9138	1.73654	0	
2.8947	-14.0968	0.801481	0	
2.8953	-6.18375	3.53987	0	
2.8960	3.87794	3.27271	0	
2.8967	8.75157	0.801481	0	
2.8973	10.5857	1.13543	0	
2.8980	15.7738	0.20037	0	
2.8987	16.0882	-2.20407	0	
2.8993	8.17512	-0.734691	0	
2.9000	0.209619	1.13543	0	
2.9007	-4.34958	-0.40074	0	
2.9013	-4.34958	0.20037	0	
2.9020	-0.104809	1.13543	0	
2.9027	-0.366832	-0.734691	0	
2.9033	-2.51542	-1.60296	0	
2.9040	5.7121	-1.60296	0	
2.9047	19.7565	-2.53802	0	
2.9053	31.338	-0.0667901	0	
2.9060	37.7837	1.40259	0	
2.9067	32.8577	-3.47308	0	
2.9073	20.3854	-6.21147	0	
2.9080	12.1055	-0.734691	0	
2.9087	5.39768	2.93876	0	
2.9093	1.1529	-1.00185	0	
2.9100	12.7343	-2.87197	0	
2.9107	21.5907	0.53432	0	
2.9113	0.209619	1.40259	0	
2.9120	-25.7307	-1.00185	0	
2.9127	-25.4162	-1.3358	0	
2.9133	-11.6862	-0.0667901	0	
2.9140	-1.31012	0.53432	0	
2.9147	10.2713	2.07049	0	
2.9153	24.3157	2.07049	0	
2.9160	29.5038	-1.3358	0	
2.9167	15.7738	-1.3358	0	
2.9173	-8.01791	2.07049	0	
2.9180	-23.5821	1.40259	0	
2.9187	-37.941	-2.20407	0	
2.9193	-57.4355	-1.93691	0	
2.9200	-55.6013	0.20037	0	
2.9207	-27.8269	0.801481	0	
2.9213	-10.7429	-0.734691	0	
2.9220	-13.206	-0.734691	0	
2.9227	-14.4113	-0.734691	0	
2.9233	-12.0007	-0.0667901	0	
2.9240	-10.4809	0.20037	0	
2.9247	-5.29287	-0.734691	0	
2.9253	-0.995688	-2.53802	0	
2.9260	-1.62454	-3.47308	0	
2.9267	-2.51542	-2.20407	0	
2.9273	-2.51542	-0.40074	0	
2.9280	-3.45871	0.20037	0	
2.9287	-2.51542	0.20037	0	
2.9293	0.838474	0.53432	0	
2.9300	4.19237	2.33765	0	
2.9307	6.34096	3.87382	0	
2.9313	8.43715	1.40259	0	
2.9320	9.066	-2.53802	0	
2.9327	4.5068	-2.87197	0	
2.9333	-2.20099	-0.734691	0	
2.9340	-5.29287	-1.00185	0	
2.9347	-7.07463	-2.20407	0	
2.9353	-11.6862	-1.00185	0	
2.9360	-15.3546	-1.60296	0	
2.9367	-13.5204	-2.53802	0	
2.9373	-8.01791	-0.0667901	0	
2.9380	-4.34958	0.20037	0	
2.9387	-2.51542	-3.47308	0	
2.9393	-2.20099	-4.07419	0	
2.9400	-2.51542	-1.60296	0	
2.9407	-0.995688	-2.53802	0	
2.9413	2.67264	-3.47308	0	
2.9420	3.87794	-0.40074	0	
2.9427	2.67264	1.13543	0	
2.9433	5.08325	-1.3358	0	
2.9440	6.65539	-3.47308	0	
2.9447	1.1529	-3.74024	0	
2.9453	-1.62454	-3.13913	0	
2.9460	6.34096	-2.20407	0	
2.9467	16.7171	-1.00185	0	
2.9473	23.1104	-0.40074	0	
2.9480	27.4076	-1.60296	0	
2.9487	34.1154	-2.53802	0	
2.9493	44.7536	-1.3358	0	
2.9500	51.5138	-1.00185	0	
2.9507	42.3429	-1.00185	0	
2.9513	13.9396	-0.734691	0	
2.9520	-19.0229	-1.93691	0	
2.9527	-39.7751	-2.53802	0	
