0.0000	-6.75597	-2.60629	1
0.0007	-4.62251	-3.80919	0	
0.0013	0.296315	-4.41064	0	
0.0020	8.83017	-5.31281	0	
0.0027	17.6603	-5.01209	0	
0.0033	21.9273	-3.20774	0	
0.0040	17.9567	-1.35326	0	
0.0047	11.8526	-0.751813	0	
0.0053	10.371	-2.60629	0	
0.0060	7.58565	-3.80919	0	
0.0067	0.888944	-3.20774	0	
0.0073	-4.91882	-3.20774	0	
0.0080	-7.3486	-2.60629	0	
0.0087	-10.134	0.150363	0	
0.0093	-17.127	1.40338	0	
0.0100	-22.9347	1.05254	0	
0.0107	-15.5861	2.30556	0	
0.0113	3.31872	2.90701	0	
0.0120	18.253	1.05254	0	
0.0127	27.4387	-0.751813	0	
0.0133	34.4317	-1.05254	0	
0.0140	31.7057	-0.451088	0	
0.0147	20.0901	1.40338	0	
0.0153	6.04482	2.30556	0	
0.0160	-12.2674	0.751813	0	
0.0167	-24.7719	-1.05254	0	
0.0173	-15.8825	-1.65399	0	
0.0180	-0.0592629	-1.65399	0	
0.0187	1.77789	0.451088	0	
0.0193	-3.37799	3.20774	0	
0.0200	-6.75597	2.00484	0	
0.0207	-7.64491	-0.751813	0	
0.0213	-0.948206	0.751813	0	
0.0220	10.9636	2.00484	0	
0.0227	13.6897	1.40338	0	
0.0233	7.88197	2.30556	0	
0.0240	4.85956	2.60629	0	
0.0247	-2.78536	1.05254	0	
0.0253	-27.498	1.05254	0	
0.0260	-53.1588	1.70411	0	
0.0267	-55.8849	1.40338	0	
0.0273	-42.1359	1.05254	0	
0.0280	-29.3351	-0.751813	0	
0.0287	-17.127	-0.751813	0	
0.0293	-5.51145	2.00484	0	
0.0300	5.45219	2.00484	0	
0.0307	19.4975	1.05254	0	
0.0313	29.2759	3.20774	0	
0.0320	26.4905	1.40338	0	
0.0327	22.5199	-2.60629	0	
0.0333	17.364	0.451088	0	
0.0340	-2.19273	4.10991	0	
0.0347	-23.5274	2.60629	0	
0.0353	-25.0682	3.20774	0	
0.0360	-17.7196	5.06221	0	
0.0367	-14.6972	3.80919	0	
0.0373	-11.3192	3.80919	0	
0.0380	-9.18575	4.76148	0	
0.0387	-11.3192	2.90701	0	
0.0393	-8.29681	2.00484	0	
0.0400	-2.48904	2.90701	0	
0.0407	-3.6743	2.00484	0	
0.0413	-4.62251	-0.451088	0	
0.0420	-0.355577	0.150363	0	
0.0427	0.296315	3.50846	0	
0.0433	-1.24452	4.10991	0	
0.0440	0.888944	2.00484	0	
0.0447	4.26693	2.90701	0	
0.0453	4.56324	4.10991	0	
0.0460	3.02241	0.751813	0	
0.0467	3.61504	-0.751813	0	
0.0473	12.1489	2.90701	0	
0.0480	22.8755	2.60629	0	
0.0487	29.5722	-0.751813	0	
0.0493	37.5134	-0.751813	0	
0.0500	43.9138	-0.751813	0	
0.0507	41.484	-3.20774	0	
0.0513	35.6763	-2.30556	0	
0.0520	28.9796	0.150363	0	
0.0527	16.1195	-1.05254	0	
0.0533	0.888944	-2.60629	0	
0.0540	-9.18575	-1.95471	0	
0.0547	-17.7196	-0.150363	0	
0.0553	-27.498	1.05254	0	
0.0560	-33.3058	-0.751813	0	
0.0567	-32.7131	-3.80919	0	
0.0573	-27.7943	-3.50846	0	
0.0580	-19.2604	-1.65399	0	
0.0587	-6.16334	-1.65399	0	
0.0593	12.8008	-0.751813	0	
0.0600	30.4611	0.751813	0	
0.0607	37.2171	0.751813	0	
0.0613	34.4317	0.150363	0	
0.0620	29.8685	-1.35326	0	
0.0627	14.6379	-3.50846	0	
0.0633	-16.1788	-3.50846	0	
0.0640	-39.4098	-2.60629	0	
0.0647	-38.4616	-4.10991	0	
0.0653	-29.3351	-4.41064	0	
0.0660	-20.1494	-1.65399	0	
0.0667	-6.16334	-2.30556	0	
0.0673	11.8526	-5.31281	0	
0.0680	26.8461	-4.10991	0	
0.0687	32.002	-1.65399	0	
0.0693	22.5199	-2.60629	0	
0.0700	6.69671	-1.65399	0	
0.0707	-11.3192	1.70411	0	
0.0713	-35.1429	1.70411	0	
0.0720	-52.8032	1.05254	0	
0.0727	-53.1588	2.90701	0	
0.0733	-46.4029	2.00484	0	
0.0740	-33.8984	-1.05254	0	
0.0747	-11.0229	-2.90701	0	
0.0753	10.6673	-3.50846	0	
0.0760	23.4681	-1.65399	0	
0.0767	30.1648	0.451088	0	
0.0773	26.1942	0.150363	0	
0.0780	8.83017	0.150363	0	
0.0787	-14.9935	1.05254	0	
0.0793	-35.4392	-1.05254	0	
0.0800	-40.2988	-1.35326	0	
0.0807	-27.498	1.05254	0	
0.0813	-13.749	-1.05254	0	
0.0820	-10.134	-1.95471	0	
0.0827	-9.18575	2.00484	0	
0.0833	-4.62251	1.40338	0	
0.0840	-1.83715	-2.60629	0	
0.0847	-2.78536	-0.751813	0	
0.0853	-1.54084	2.00484	0	
0.0860	2.42978	1.40338	0	
0.0867	5.15587	-0.451088	0	
0.0873	3.91135	-1.65399	0	
0.0880	2.42978	-1.95471	0	
0.0887	6.40039	-2.90701	0	
0.0893	16.4751	-4.10991	0	
0.0900	24.3571	-1.65399	0	
0.0907	25.6016	1.40338	0	
0.0913	25.3053	-0.150363	0	
0.0920	22.8755	-2.90701	0	
0.0927	18.253	-3.20774	0	
0.0933	17.364	-2.60629	0	
0.0940	20.0901	-1.05254	0	
0.0947	20.742	0.150363	0	
0.0953	19.2012	-1.65399	0	
0.0960	11.5563	-3.50846	0	
0.0967	-5.80776	-3.20774	0	
0.0973	-20.1494	-3.80919	0	
0.0980	-21.9865	-2.60629	0	
0.0987	-14.0453	-0.451088	0	
0.0993	-2.78536	-1.65399	0	
0.1000	3.31872	-2.60629	0	
0.1007	3.31872	0.751813	0	
0.1013	7.58565	1.70411	0	
0.1020	11.8526	-0.451088	0	
0.1027	5.7485	-1.05254	0	
0.1033	-0.0592629	-1.65399	0	
0.1040	1.18526	-3.20774	0	
0.1047	0.888944	-3.80919	0	
0.1053	-2.78536	-1.65399	0	
0.1060	-7.64491	0.150363	0	
0.1067	-12.2674	-1.05254	0	
0.1073	-11.9118	-2.60629	0	
0.1080	-8.59312	0.150363	0	
0.1087	-6.45966	1.70411	0	
0.1093	-0.948206	0.150363	0	
0.1100	11.5563	0.751813	0	
0.1107	29.5722	2.00484	0	
0.1113	48.1807	1.05254	0	
0.1120	60.0926	3.50846	0	
0.1127	64.6558	5.36294	0	
0.1133	57.0109	2.60629	0	
0.1140	24.3571	1.70411	0	
0.1147	-19.5568	3.50846	0	
0.1153	-41.247	2.90701	0	
0.1160	-37.5727	3.80919	0	
0.1167	-26.9054	6.56584	0	
0.1173	-19.2604	6.26511	0	
0.1180	-17.4233	4.76148	0	
0.1187	-16.8307	4.10991	0	
0.1193	-14.9935	1.70411	0	
0.1200	-15.8825	2.30556	0	
0.1207	-17.7196	5.66366	0	
0.1213	-16.1788	4.76148	0	
0.1220	-13.749	1.70411	0	
0.1227	-9.77838	0.150363	0	
0.1233	-3.6743	-0.751813	0	
0.1240	-0.948206	-1.65399	0	
0.1247	3.31872	-1.35326	0	
0.1253	11.8526	-0.751813	0	
0.1260	14.6379	-1.65399	0	
0.1267	7.58565	-3.50846	0	
0.1273	-2.19273	-4.41064	0	
0.1280	-8.88944	-2.30556	0	
0.1287	-10.134	-0.150363	0	
0.1293	-8.29681	-1.35326	0	
0.1300	-11.0229	-2.60629	0	
0.1307	-15.8825	-1.95471	0	
0.1313	-18.6678	-1.65399	0	
0.1320	-19.8531	-1.95471	0	
0.1327	-15.8825	-0.751813	0	
0.1333	-0.948206	-0.150363	0	
0.1340	18.253	-2.60629	0	
0.1347	28.0314	-5.01209	0	
0.1353	25.3053	-4.10991	0	
0.1360	10.9636	-1.05254	0	
0.1367	-14.4009	1.05254	0	
0.1373	-37.5727	-0.150363	0	
0.1380	-42.4322	-3.50846	0	
0.1387	-29.3351	-3.20774	0	
0.1393	-13.749	-1.95471	0	
0.1400	-5.21514	-5.61354	0	
0.1407	0.296315	-9.32249	0	
0.1413	3.31872	-7.46801	0	
0.1420	3.61504	-5.01209	0	
0.1427	5.45219	-4.41064	0	
0.1433	9.4228	-4.41064	0	
0.1440	11.8526	-4.41064	0	
0.1447	8.83017	-4.10991	0	
0.1453	-0.0592629	-5.01209	0	
0.1460	-13.749	-6.26511	0	
0.1467	-25.9572	-5.01209	0	
0.1473	-27.7943	-3.20774	0	
0.1480	-20.505	-5.31281	0	
0.1487	-17.127	-7.16729	0	
0.1493	-19.5568	-4.41064	0	
0.1500	-18.9641	-2.30556	0	
0.1507	-13.749	-2.60629	0	
0.1513	-2.78536	-2.90701	0	
0.1520	19.4975	-2.30556	0	
0.1527	41.484	-2.30556	0	
0.1533	53.9885	-1.95471	0	
0.1540	62.226	-1.05254	0	
0.1547	55.1738	-0.150363	0	
0.1553	21.9273	-1.05254	0	
0.1560	-11.0229	-2.90701	0	
0.1567	-20.8013	-3.20774	0	
0.1573	-20.1494	-0.751813	0	
0.1580	-18.6678	1.05254	0	
0.1587	-9.18575	0.150363	0	
0.1593	1.77789	-1.05254	0	
0.1600	6.04482	-1.05254	0	
0.1607	6.99302	-1.05254	0	
0.1613	8.17828	-3.50846	0	
0.1620	5.45219	-4.41064	0	
0.1627	-2.78536	-1.65399	0	
0.1633	-5.21514	-0.150363	0	
0.1640	1.77789	-2.60629	0	
0.1647	7.58565	-4.10991	0	
0.1653	7.28934	-3.50846	0	
0.1660	5.7485	-1.65399	0	
0.1667	1.48157	-0.751813	0	
0.1673	-6.45966	-1.65399	0	
0.1680	-13.4527	-2.90701	0	
0.1687	-14.4009	-1.35326	0	
0.1693	-5.51145	0.150363	0	
0.1700	8.53386	-1.05254	0	
0.1707	16.1195	-2.30556	0	
0.1713	18.253	-1.05254	0	
0.1720	20.0901	0.451088	0	
0.1727	17.9567	0.150363	0	
0.1733	14.6379	-1.05254	0	
0.1740	10.9636	-1.05254	0	
0.1747	2.72609	0.150363	0	
0.1753	-3.6743	-0.451088	0	
0.1760	-4.32619	-1.65399	0	
0.1767	-5.51145	-0.751813	0	
0.1773	-4.02988	0.451088	0	
0.1780	7.88197	0.150363	0	
0.1787	21.0383	0.451088	0	
0.1793	27.4387	0.150363	0	
0.1800	30.1648	-1.35326	0	
0.1807	30.1648	-0.451088	0	
0.1813	27.4387	2.90701	0	
0.1820	19.7938	2.90701	0	
0.1827	3.02241	-0.150363	0	
0.1833	-14.6972	-2.30556	0	
0.1840	-24.4756	-3.20774	0	
0.1847	-33.3058	-2.90701	0	
0.1853	-41.247	0.150363	0	
0.1860	-37.2764	2.00484	0	
0.1867	-21.9865	2.00484	0	
0.1873	-9.77838	1.70411	0	
0.1880	-5.80776	1.05254	0	
0.1887	-5.21514	0.451088	0	
0.1893	-3.6743	2.00484	0	
0.1900	-2.78536	2.90701	0	
0.1907	-4.91882	2.00484	0	
0.1913	-7.3486	2.00484	0	
0.1920	-5.80776	2.60629	0	
0.1927	-4.62251	2.00484	0	
0.1933	-4.62251	2.00484	0	
0.1940	-0.948206	2.00484	0	
0.1947	0.888944	0.751813	0	
0.1953	-0.948206	-0.751813	0	
0.1960	-0.651892	-0.751813	0	
0.1967	0.592629	-0.451088	0	
0.1973	-0.948206	-0.150363	0	
0.1980	-0.651892	-1.05254	0	
0.1987	0.888944	-1.35326	0	
0.1993	1.18526	-0.150363	0	
0.2000	5.15587	0.150363	0	
0.2007	13.6897	-0.751813	0	
0.2013	22.2236	-0.751813	0	
0.2020	24.3571	0.150363	0	
0.2027	13.0971	0.150363	0	
0.2033	-2.78536	-2.30556	0	
0.2040	-14.0453	-3.50846	0	
0.2047	-25.6608	-1.65399	0	
0.2053	-34.1947	-0.751813	0	
0.2060	-23.5274	-1.35326	0	
0.2067	-0.948206	0.751813	0	
0.2073	13.6897	2.00484	0	
0.2080	17.364	-0.751813	0	
0.2087	16.4751	-1.65399	0	
0.2093	13.6897	1.05254	0	
0.2100	-1.24452	1.05254	0	
0.2107	-29.3351	-2.60629	0	
0.2113	-43.9731	-3.50846	0	
0.2120	-30.876	-1.95471	0	
0.2127	-8.29681	-1.65399	0	
0.2133	10.6673	-2.90701	0	
0.2140	27.1424	-2.60629	0	
0.2147	34.1354	-0.451088	0	
0.2153	29.2759	0.150363	0	
0.2160	13.6897	-0.751813	0	
0.2167	-9.48206	-0.751813	0	
0.2173	-21.0976	0.451088	0	
0.2180	-11.0229	0.451088	0	
0.2187	0.296315	0.150363	0	
0.2193	4.85956	1.05254	0	
0.2200	11.8526	3.20774	0	
0.2207	19.2012	3.20774	0	
0.2213	21.3346	0.451088	0	
0.2220	21.631	-0.751813	0	
0.2227	17.9567	-0.150363	0	
0.2233	13.6897	-1.05254	0	
0.2240	13.986	-0.751813	0	
0.2247	14.2824	2.00484	0	
0.2253	10.9636	2.00484	0	
0.2260	7.28934	-0.150363	0	
0.2267	-0.948206	0.150363	0	
0.2273	-18.3715	1.40338	0	
0.2280	-37.2764	-0.150363	0	
0.2287	-46.4029	-0.451088	0	
0.2293	-46.1065	1.70411	0	
0.2300	-42.1359	1.05254	0	
0.2307	-36.3282	-1.05254	0	
0.2313	-27.2017	-1.65399	0	
0.2320	-16.1788	-1.65399	0	
0.2327	-7.94123	-1.95471	0	
0.2333	-4.91882	-1.05254	0	
0.2340	-4.32619	0.451088	0	
0.2347	-2.78536	0.751813	0	
0.2353	-1.54084	-0.751813	0	
0.2360	0.888944	-2.60629	0	
0.2367	4.56324	-1.05254	0	
0.2373	6.04482	1.05254	0	
0.2380	7.88197	-0.751813	0	
0.2387	16.4751	-1.65399	0	
0.2393	27.4387	0.150363	0	
0.2400	29.2759	-0.751813	0	
0.2407	19.2012	-2.60629	0	
0.2413	1.18526	-1.35326	0	
0.2420	-14.6972	-2.30556	0	
0.2427	-21.0976	-2.60629	0	
0.2433	-22.9347	-0.150363	0	
0.2440	-20.1494	-1.05254	0	
0.2447	-5.21514	-4.10991	0	
0.2453	13.0971	-0.751813	0	
0.2460	21.9273	2.30556	0	
0.2467	28.624	0.150363	0	
0.2473	33.5428	-0.150363	0	
0.2480	19.4975	1.40338	0	
0.2487	-5.51145	1.70411	0	
0.2493	-16.5343	2.30556	0	
0.2500	-12.86	2.90701	0	
0.2507	-8.59312	1.05254	0	
0.2513	-4.91882	-0.150363	0	
0.2520	-3.6743	-0.451088	0	
0.2527	-10.134	0.150363	0	
0.2533	-18.3715	1.05254	0	
0.2540	-18.3715	0.150363	0	
0.2547	-13.749	-0.451088	0	
0.2553	-11.9118	1.70411	0	
0.2560	-9.77838	2.90701	0	
0.2567	-6.45966	2.30556	0	
0.2573	-6.16334	2.90701	0	
0.2580	-5.80776	2.60629	0	
0.2587	-1.54084	2.00484	0	
0.2593	1.18526	2.60629	0	
0.2600	-0.651892	2.60629	0	
0.2607	-0.355577	2.90701	0	
0.2613	1.48157	4.10991	0	
0.2620	-0.0592629	2.00484	0	
0.2627	-1.54084	0.751813	0	
0.2633	-1.24452	2.90701	0	
0.2640	-0.355577	2.30556	0	
0.2647	6.40039	0.150363	0	
0.2653	16.7714	2.90701	0	
0.2660	19.2012	4.41064	0	
0.2667	11.8526	1.70411	0	
0.2673	6.40039	1.05254	0	
0.2680	8.83017	2.00484	0	
0.2687	13.986	1.05254	0	
0.2693	15.2306	2.00484	0	
0.2700	12.8008	2.60629	0	
0.2707	9.4228	1.05254	0	
0.2713	1.77789	1.05254	0	
0.2720	-10.4303	2.60629	0	
0.2727	-18.0159	0.751813	0	
0.2733	-15.2898	-0.751813	0	
0.2740	-6.75597	-1.35326	0	
0.2747	0.296315	-1.65399	0	
0.2753	2.72609	-0.751813	0	
0.2760	1.48157	-1.05254	0	
0.2767	-0.0592629	-2.90701	0	
0.2773	0.888944	-2.90701	0	
0.2780	1.77789	-2.60629	0	
0.2787	-1.24452	-3.80919	0	
0.2793	-4.32619	-2.90701	0	
0.2800	-3.6743	-1.05254	0	
0.2807	-1.83715	-4.10991	0	
0.2813	-0.948206	-5.31281	0	
0.2820	1.18526	-1.65399	0	
0.2827	4.56324	-0.451088	0	
0.2833	8.53386	-1.95471	0	
0.2840	14.2824	0.451088	0	
0.2847	20.0901	2.00484	0	
0.2853	24.7126	-0.751813	0	
0.2860	24.3571	-1.35326	0	
0.2867	12.1489	1.70411	0	
0.2873	-0.948206	1.70411	0	
0.2880	-0.651892	-0.751813	0	
0.2887	3.61504	-0.751813	0	
0.2893	1.18526	-0.751813	0	
0.2900	2.42978	-2.60629	0	
0.2907	6.69671	-3.20774	0	
0.2913	5.45219	-1.05254	0	
0.2920	5.45219	-0.451088	0	
0.2927	8.17828	-1.35326	0	
0.2933	4.26693	-2.30556	0	
0.2940	-2.48904	-2.60629	0	
0.2947	-4.62251	-1.65399	0	
0.2953	-13.1564	-0.751813	0	
0.2960	-27.2017	-1.65399	0	
0.2967	-30.876	-1.05254	0	
0.2973	-27.7943	1.05254	0	
0.2980	-30.5797	1.05254	0	
0.2987	-35.1429	1.05254	0	
0.2993	-37.5727	0.150363	0	
0.3000	-38.8172	-2.90701	0	
0.3007	-34.8466	-4.10991	0	
0.3013	-26.609	-1.65399	0	
0.3020	-16.5343	-2.60629	0	
0.3027	4.56324	-6.26511	0	
0.3033	32.9502	-4.41064	0	
0.3040	52.1514	-0.751813	0	
0.3047	58.5517	-1.95471	0	
0.3053	57.6628	-3.50846	0	
0.3060	43.9138	-3.50846	0	
0.3067	8.83017	-4.10991	0	
0.3073	-35.4392	-4.41064	0	
0.3080	-59.5592	-2.90701	0	
0.3087	-52.2106	-2.30556	0	
0.3093	-29.9278	-2.60629	0	
0.3100	-5.80776	-2.60629	0	
0.3107	16.1195	-1.95471	0	
0.3113	30.1648	-1.05254	0	
0.3120	31.7057	-1.35326	0	
0.3127	25.6016	-2.90701	0	
0.3133	19.7938	-4.10991	0	
0.3140	13.0971	-4.71136	0	
0.3147	4.26693	-3.20774	0	
0.3153	-7.05229	0.751813	0	
0.3160	-19.2604	0.751813	0	
0.3167	-30.5797	-2.60629	0	
0.3173	-37.2764	-1.65399	0	
0.3180	-35.1429	-0.751813	0	
0.3187	-21.9865	-4.10991	0	
0.3193	-2.78536	-4.41064	0	
0.3200	7.28934	-1.35326	0	
0.3207	2.42978	-3.20774	0	
0.3213	-5.51145	-6.86656	0	
0.3220	-9.18575	-5.61354	0	
0.3227	-15.5861	-3.50846	0	
0.3233	-21.0976	-4.41064	0	
0.3240	-16.5343	-4.10991	0	
0.3247	-7.3486	-1.05254	0	
0.3253	-2.19273	-0.451088	0	
0.3260	-0.0592629	-3.50846	0	
0.3267	-0.0592629	-3.80919	0	
0.3273	-0.355577	-2.30556	0	
0.3280	1.77789	-3.20774	0	
0.3287	-0.355577	-3.50846	0	
0.3293	-9.48206	0.150363	0	
0.3300	-11.9118	2.00484	0	
0.3307	-3.6743	0.451088	0	
0.3313	7.28934	-0.751813	0	
0.3320	21.9273	-1.95471	0	
0.3327	37.2171	-2.30556	0	
0.3333	44.8028	-0.451088	0	
0.3340	47.5881	0.451088	0	
0.3347	45.1583	1.05254	0	
0.3353	23.7644	2.00484	0	
0.3360	-6.45966	0.451088	0	
0.3367	-16.5343	-0.751813	0	
0.3373	-6.45966	0.751813	0	
0.3380	7.28934	0.751813	0	
0.3387	15.5269	-0.451088	0	
0.3393	16.4751	1.70411	0	
0.3400	12.5045	3.80919	0	
0.3407	10.371	2.90701	0	
0.3413	12.5045	1.05254	0	
0.3420	13.3934	1.70411	0	
0.3427	7.88197	2.60629	0	
0.3433	-1.24452	2.30556	0	
0.3440	-8.29681	1.40338	0	
0.3447	-13.749	0.451088	0	
0.3453	-20.1494	0.150363	0	
0.3460	-22.6384	-0.150363	0	
0.3467	-19.2604	2.00484	0	
0.3473	-15.5861	5.66366	0	
0.3480	-11.9118	5.36294	0	
0.3487	-6.75597	2.90701	0	
0.3493	-0.948206	3.80919	0	
0.3500	5.45219	4.76148	0	
0.3507	13.3934	1.40338	0	
0.3513	19.4975	0.751813	0	
0.3520	20.0901	2.90701	0	
0.3527	18.253	1.05254	0	
0.3533	18.9049	-2.30556	0	
0.3540	19.2012	-0.150363	0	
0.3547	14.6379	2.60629	0	
0.3553	7.28934	1.05254	0	
0.3560	0.888944	-1.35326	0	
0.3567	-4.02988	1.05254	0	
0.3573	-13.749	4.41064	0	
0.3580	-25.9572	2.60629	0	
0.3587	-25.0682	0.150363	0	
0.3593	-10.4303	3.20774	0	
0.3600	3.61504	6.56584	0	
0.3607	14.2824	4.10991	0	
0.3613	18.6086	2.60629	0	
0.3620	10.6673	3.80919	0	
0.3627	1.77789	2.00484	0	
0.3633	6.40039	-1.65399	0	
0.3640	13.0971	-1.65399	0	
0.3647	11.26	0.751813	0	
0.3653	10.0154	0.150363	0	
0.3660	8.53386	0.150363	0	
0.3667	-8.29681	1.40338	0	
0.3673	-33.8984	-0.451088	0	
0.3680	-40.5951	-3.50846	0	
0.3687	-21.6902	-2.30556	0	
0.3693	0.296315	-1.05254	0	
0.3700	7.88197	-1.35326	0	
0.3707	9.12649	-0.451088	0	
0.3713	11.5563	-1.65399	0	
0.3720	12.8008	-3.80919	0	
0.3727	14.6379	-1.65399	0	
0.3733	15.5269	-1.65399	0	
0.3740	6.40039	-5.61354	0	
0.3747	-10.134	-3.50846	0	
0.3753	-17.4233	1.05254	0	
0.3760	-12.2674	-0.751813	0	
0.3767	-6.16334	-1.65399	0	
0.3773	-9.18575	0.150363	0	
0.3780	-19.8531	-3.20774	0	
0.3787	-24.12	-5.96439	0	
0.3793	-16.1788	-3.50846	0	
0.3800	-8.29681	-2.30556	0	
0.3807	-6.45966	-2.60629	0	
0.3813	0.296315	-0.451088	0	
0.3820	6.40039	0.150363	0	
0.3827	-1.54084	-1.35326	0	
0.3833	-13.749	-1.35326	0	
0.3840	-16.8307	-1.65399	0	
0.3847	-14.4009	-2.90701	0	
0.3853	-11.9118	-4.71136	0	
0.3860	-12.2674	-7.16729	0	
0.3867	-16.5343	-7.76874	0	
0.3873	-20.505	-5.61354	0	
0.3880	-20.505	-4.41064	0	
0.3887	-18.6678	-3.50846	0	
0.3893	-12.86	-1.95471	0	
0.3900	-2.19273	-2.60629	0	
0.3907	10.9636	-3.50846	0	
0.3913	25.0089	-0.751813	0	
0.3920	36.5652	1.70411	0	
0.3927	38.4024	0.150363	0	
0.3933	31.4093	-0.751813	0	
0.3940	22.2236	0.751813	0	
0.3947	10.9636	0.451088	0	
0.3953	-3.6743	-0.150363	0	
0.3960	-19.2604	0.451088	0	
0.3967	-30.2241	-0.150363	0	
0.3973	-30.2241	-1.05254	0	
0.3980	-19.8531	0.751813	0	
0.3987	-8.29681	3.50846	0	
0.3993	-4.02988	2.90701	0	
0.4000	-4.62251	1.70411	0	
0.4007	-4.02988	2.90701	0	
0.4013	-0.0592629	3.80919	0	
0.4020	3.02241	2.90701	0	
0.4027	-0.0592629	3.80919	0	
0.4033	-2.48904	5.06221	0	
0.4040	2.0742	3.80919	0	
0.4047	7.28934	3.80919	0	
0.4053	6.40039	4.41064	0	
0.4060	0.888944	2.00484	0	
0.4067	-2.48904	0.751813	0	
0.4073	2.0742	4.76148	0	
0.4080	8.53386	5.66366	0	
0.4087	10.0154	2.00484	0	
0.4093	12.8008	2.00484	0	
0.4100	19.7938	2.90701	0	
0.4107	21.9273	0.150363	0	
0.4113	18.253	-1.35326	0	
0.4120	14.6379	-0.150363	0	
0.4127	6.69671	0.150363	0	
0.4133	-1.83715	1.05254	0	
0.4140	-3.6743	2.60629	0	
0.4147	-3.08167	3.20774	0	
0.4153	-2.78536	4.41064	0	
0.4160	-0.948206	5.96439	0	
0.4167	-2.78536	4.76148	0	
0.4173	-7.64491	2.30556	0	
0.4180	-10.7266	2.00484	0	
0.4187	-11.0229	2.60629	0	
0.4193	-7.64491	4.10991	0	
0.4200	-0.948206	6.26511	0	
0.4207	8.83017	5.36294	0	
0.4213	21.9273	2.90701	0	
0.4220	34.7281	2.90701	0	
0.4227	44.2101	4.41064	0	
0.4233	56.122	4.10991	0	
0.4240	59.7963	2.90701	0	
0.4247	42.0767	2.90701	0	
0.4253	18.253	4.41064	0	
0.4260	-0.948206	2.90701	0	
0.4267	-23.8237	0.751813	0	
0.4273	-37.5727	1.05254	0	
0.4280	-29.3351	1.05254	0	
0.4287	-16.8307	-1.05254	0	
0.4293	-15.8825	-1.35326	0	
0.4300	-21.3939	-0.150363	0	
0.4307	-28.0906	0.451088	0	
0.4313	-30.2241	2.30556	0	
0.4320	-23.5274	2.90701	0	
0.4327	-17.7196	1.70411	0	
0.4333	-16.8307	3.20774	0	
0.4340	-15.5861	2.30556	0	
0.4347	-14.4009	-1.65399	0	
0.4353	-11.9118	-0.751813	0	
0.4360	-2.78536	2.00484	0	
0.4367	5.45219	0.751813	0	
0.4373	7.28934	1.70411	0	
0.4380	10.0154	1.70411	0	
0.4387	18.253	-4.10991	0	
0.4393	27.4387	-5.01209	0	
0.4400	31.7057	-1.65399	0	
0.4407	25.6016	-3.80919	0	
0.4413	12.1489	-5.61354	0	
0.4420	-1.83715	-4.10991	0	
0.4427	-15.5861	-4.10991	0	
0.4433	-24.7719	-4.10991	0	
0.4440	-22.9347	-2.60629	0	
0.4447	-16.5343	-4.10991	0	
0.4453	-10.7266	-3.20774	0	
0.4460	-1.54084	0.150363	0	
0.4467	8.83017	-0.751813	0	
0.4473	14.9343	-2.60629	0	
0.4480	14.6379	-0.751813	0	
0.4487	9.12649	-0.751813	0	
0.4493	3.91135	-2.60629	0	
0.4500	-3.37799	-2.60629	0	
0.4507	-16.5343	-4.10991	0	
0.4513	-21.9865	-4.41064	0	
0.4520	-18.6678	-1.65399	0	
0.4527	-25.0682	-1.95471	0	
0.4533	-30.2241	-4.10991	0	
0.4540	-18.3715	-2.60629	0	
0.4547	-7.94123	-0.751813	0	
0.4553	-9.18575	-2.60629	0	
0.4560	-5.21514	-2.60629	0	
0.4567	1.48157	-1.65399	0	
0.4573	2.0742	-3.50846	0	
0.4580	3.31872	-3.80919	0	
0.4587	3.31872	-1.65399	0	
0.4593	-1.83715	-0.451088	0	
0.4600	-6.45966	0.150363	0	
0.4607	-9.18575	0.451088	0	
0.4613	-11.9118	-2.60629	0	
0.4620	-12.86	-3.50846	0	
0.4627	-12.86	0.451088	0	
0.4633	-14.0453	2.00484	0	
0.4640	-11.3192	-2.60629	0	
0.4647	-1.83715	-3.50846	0	
0.4653	9.12649	0.150363	0	
0.4660	14.2824	-0.150363	0	
0.4667	16.4751	-1.95471	0	
0.4673	16.1195	0.150363	0	
0.4680	4.56324	3.20774	0	
0.4687	-15.5861	2.00484	0	
0.4693	-25.0682	-0.751813	0	
0.4700	-21.9865	-1.65399	0	
0.4707	-20.1494	-2.30556	0	
0.4713	-20.1494	-3.50846	0	
0.4720	-18.0159	-3.50846	0	
0.4727	-14.6972	-2.30556	0	
0.4733	-7.64491	-2.60629	0	
0.4740	4.26693	-2.60629	0	
0.4747	20.0901	-1.65399	0	
0.4753	42.373	-1.35326	0	
0.4760	63.4706	-1.05254	0	
0.4767	65.2485	0.150363	0	
0.4773	50.3142	-1.65399	0	
0.4780	28.3277	-3.80919	0	
0.4787	-3.37799	-2.30556	0	
0.4793	-37.5727	-0.751813	0	
0.4800	-48.5363	-2.60629	0	
0.4807	-35.1429	-4.41064	0	
0.4813	-18.9641	-4.41064	0	
0.4820	-9.48206	-3.50846	0	
0.4827	-4.32619	-1.65399	0	
0.4833	-1.83715	-1.05254	0	
0.4840	2.72609	-2.30556	0	
0.4847	9.71912	-1.65399	0	
0.4853	13.3934	1.05254	0	
0.4860	16.4751	3.50846	0	
0.4867	20.0901	2.00484	0	
0.4873	17.364	0.150363	0	
0.4880	10.0154	1.05254	0	
0.4887	3.61504	1.05254	0	
0.4893	-2.19273	-1.95471	0	
0.4900	-6.16334	-4.10991	0	
0.4907	-9.18575	-3.20774	0	
0.4913	-15.5861	-2.60629	0	
0.4920	-23.2311	-2.60629	0	
0.4927	-25.3645	-1.95471	0	
0.4933	-15.2898	-1.65399	0	
0.4940	8.17828	-1.65399	0	
0.4947	29.8685	-0.751813	0	
0.4953	34.7281	2.90701	0	
0.4960	33.2465	5.66366	0	
0.4967	32.9502	2.30556	0	
0.4973	25.6016	-0.751813	0	
0.4980	11.8526	1.40338	0	
0.4987	-1.83715	3.20774	0	
0.4993	-18.9641	2.00484	0	
0.5000	-34.8466	2.30556	0	
0.5007	-44.5657	2.90701	0	
0.5013	-51.3217	2.60629	0	
0.5020	-50.0772	2.30556	0	
0.5027	-33.8984	1.40338	0	
0.5033	-16.1788	0.150363	0	
0.5040	-8.59312	0.150363	0	
0.5047	-5.51145	1.40338	0	
0.5053	-4.02988	2.00484	0	
0.5060	-7.05229	2.00484	0	
0.5067	-11.9118	-0.751813	0	
0.5073	-17.127	-2.30556	0	
0.5080	-19.2604	-0.150363	0	
0.5087	-16.8307	1.05254	0	
0.5093	-13.4527	-2.30556	0	
0.5100	-7.3486	-3.80919	0	
0.5107	5.45219	-0.451088	0	
0.5113	24.7126	2.90701	0	
0.5120	44.8028	1.40338	0	
0.5127	57.3665	-0.751813	0	
0.5133	51.5587	-1.35326	0	
0.5140	36.9208	-1.95471	0	
0.5147	20.742	0.150363	0	
0.5153	-7.94123	3.50846	0	
0.5160	-39.1135	0.751813	0	
0.5167	-46.4029	-3.20774	0	
0.5173	-33.6021	-0.150363	0	
0.5180	-20.1494	2.30556	0	
0.5187	-6.45966	-1.65399	0	
0.5193	9.4228	-2.90701	0	
0.5200	20.0901	-0.150363	0	
0.5207	24.7126	0.751813	0	
0.5213	26.8461	-0.150363	0	
0.5220	18.253	-0.751813	0	
0.5227	-4.32619	-0.751813	0	
0.5233	-20.8013	0.150363	0	
0.5240	-13.1564	2.00484	0	
0.5247	2.72609	2.90701	0	
0.5253	5.45219	2.00484	0	
0.5260	2.0742	0.751813	0	
0.5267	6.40039	0.451088	0	
0.5273	13.0971	1.70411	0	
0.5280	14.6379	1.70411	0	
0.5287	5.45219	0.150363	0	
0.5293	-9.18575	-0.150363	0	
0.5300	-16.1788	-0.150363	0	
0.5307	-11.9118	-2.30556	0	
0.5313	-9.77838	-4.10991	0	
0.5320	-14.4009	-3.50846	0	
0.5327	-16.5343	-2.60629	0	
0.5333	-11.9118	0.150363	0	
0.5340	-6.45966	4.76148	0	
0.5347	-3.6743	5.06221	0	
0.5353	-1.83715	-0.451088	0	
0.5360	1.18526	-3.50846	0	
0.5367	3.02241	-2.30556	0	
0.5373	3.31872	-2.60629	0	
0.5380	3.31872	-3.50846	0	
0.5387	0.888944	-1.65399	0	
0.5393	-2.48904	0.150363	0	
0.5400	-1.83715	-1.35326	0	
0.5407	-0.0592629	-2.60629	0	
0.5413	-0.0592629	-1.95471	0	
0.5420	2.72609	-2.30556	0	
0.5427	12.5045	-4.71136	0	
0.5433	23.4681	-5.31281	0	
0.5440	26.8461	-4.71136	0	
0.5447	26.1942	-7.16729	0	
0.5453	35.0836	-7.46801	0	
0.5460	48.4771	-3.50846	0	
0.5467	43.3212	-2.60629	0	
0.5473	21.3346	-5.31281	0	
0.5480	6.04482	-5.31281	0	
0.5487	-8.29681	-4.41064	0	
0.5493	-35.1429	-4.41064	0	
0.5500	-53.1588	-2.90701	0	
0.5507	-39.7061	-3.20774	0	
0.5513	-11.3192	-5.96439	0	
0.5520	7.88197	-5.31281	0	
0.5527	17.9567	-4.41064	0	
0.5533	25.8979	-4.41064	0	
0.5540	24.0607	-3.20774	0	
0.5547	8.83017	-4.10991	0	
0.5553	-7.94123	-7.16729	0	
0.5560	-24.12	-5.31281	0	
0.5567	-42.7878	-0.751813	0	
0.5573	-50.3735	-0.451088	0	
0.5580	-39.4098	-1.35326	0	
0.5587	-25.6608	-0.751813	0	
0.5593	-18.3715	0.150363	0	
0.5600	-15.5861	1.70411	0	
0.5607	-12.2674	1.40338	0	
0.5613	-5.51145	0.150363	0	
0.5620	2.42978	0.150363	0	
0.5627	7.28934	1.05254	0	
0.5633	7.58565	0.751813	0	
0.5640	5.7485	-1.35326	0	
0.5647	7.28934	-2.60629	0	
0.5653	14.9343	-0.150363	0	
0.5660	18.9049	2.00484	0	
0.5667	15.2306	-0.751813	0	
0.5673	8.53386	-2.60629	0	
0.5680	-1.24452	-1.65399	0	
0.5687	-10.4303	-1.95471	0	
0.5693	-9.48206	-0.751813	0	
0.5700	-1.54084	1.70411	0	
0.5707	2.72609	1.70411	0	
0.5713	3.31872	1.70411	0	
0.5720	7.58565	2.90701	0	
0.5727	17.364	2.00484	0	
0.5733	30.8167	1.70411	0	
0.5740	47.2918	2.00484	0	
0.5747	60.6852	0.451088	0	
0.5753	61.9297	2.00484	0	
0.5760	50.3142	4.76148	0	
0.5767	27.735	2.00484	0	
0.5773	-4.02988	-0.451088	0	
0.5780	-30.876	2.00484	0	
0.5787	-38.4616	2.30556	0	
0.5793	-38.4616	1.40338	0	
0.5800	-42.1359	3.80919	0	
0.5807	-40.9507	3.80919	0	
0.5813	-32.0612	0.150363	0	
0.5820	-22.9347	1.05254	0	
0.5827	-17.127	2.60629	0	
0.5833	-15.5861	1.40338	0	
0.5840	-14.9935	2.60629	0	
0.5847	-9.18575	3.50846	0	
0.5853	-1.83715	1.05254	0	
0.5860	-1.83715	2.00484	0	
0.5867	-5.21514	3.80919	0	
0.5873	-5.51145	2.60629	0	
0.5880	-2.19273	3.50846	0	
0.5887	0.592629	5.06221	0	
0.5893	1.77789	2.60629	0	
0.5900	5.15587	2.30556	0	
0.5907	9.4228	5.36294	0	
0.5913	8.53386	3.80919	0	
0.5920	4.56324	2.60629	0	
0.5927	7.58565	4.76148	0	
0.5933	14.9343	3.50846	0	
0.5940	14.2824	1.05254	0	
0.5947	5.7485	2.00484	0	
0.5953	-1.24452	3.80919	0	
0.5960	-5.51145	3.80919	0	
0.5967	-7.94123	2.90701	0	
0.5973	-5.21514	2.00484	0	
0.5980	4.56324	2.00484	0	
0.5987	19.4975	1.05254	0	
0.5993	32.9502	-1.65399	0	
0.6000	36.2689	-1.95471	0	
0.6007	29.2759	0.751813	0	
0.6013	16.4751	1.40338	0	
0.6020	-4.02988	-0.751813	0	
0.6027	-33.0094	-2.90701	0	
0.6033	-56.4775	-1.65399	0	
0.6040	-60.1518	1.05254	0	
0.6047	-46.6992	2.00484	0	
0.6053	-31.4686	2.90701	0	
0.6060	-21.0976	5.06221	0	
0.6067	-14.6972	3.50846	0	
0.6073	-10.134	0.150363	0	
0.6080	-8.88944	-0.751813	0	
0.6087	-9.48206	-0.751813	0	
0.6093	-10.4303	-2.90701	0	
0.6100	-11.6155	-3.20774	0	
0.6107	-9.48206	-1.65399	0	
0.6113	-2.78536	-0.751813	0	
0.6120	5.45219	-1.05254	0	
0.6127	15.5269	-1.95471	0	
0.6133	26.1942	-3.20774	0	
0.6140	31.113	-4.41064	0	
0.6147	32.9502	-5.01209	0	
0.6153	36.2689	-3.80919	0	
0.6160	35.6763	-1.35326	0	
0.6167	31.113	-1.35326	0	
0.6173	25.8979	-1.95471	0	
0.6180	11.8526	-0.451088	0	
0.6187	-12.86	0.150363	0	
0.6193	-32.3575	-1.35326	0	
0.6200	-38.1653	-2.30556	0	
0.6207	-33.6021	-1.95471	0	
0.6213	-23.8237	-1.65399	0	
0.6220	-18.6678	-1.05254	0	
0.6227	-19.5568	-1.35326	0	
0.6233	-17.4233	-1.35326	0	
0.6240	-14.0453	-2.30556	0	
0.6247	-14.4009	-4.41064	0	
0.6253	-8.88944	-2.60629	0	
0.6260	3.31872	1.40338	0	
0.6267	13.0971	-0.751813	0	
0.6273	22.5199	-4.41064	0	
0.6280	28.624	-2.90701	0	
0.6287	21.0383	-1.05254	0	
0.6293	8.17828	-2.30556	0	
0.6300	1.48157	-1.95471	0	
0.6307	-8.29681	-1.95471	0	
0.6313	-19.2604	-2.30556	0	
0.6320	-20.1494	-0.751813	0	
0.6327	-13.4527	-0.751813	0	
0.6333	-8.29681	-1.95471	0	
0.6340	-4.32619	-0.451088	0	
0.6347	1.18526	1.05254	0	
0.6353	7.88197	-1.65399	0	
0.6360	18.253	-2.90701	0	
0.6367	33.5428	-0.451088	0	
0.6373	46.3436	0.451088	0	
0.6380	50.3142	-1.65399	0	
0.6387	46.3436	-1.65399	0	
0.6393	30.8167	-0.751813	0	
0.6400	7.28934	-2.90701	0	
0.6407	-3.6743	-2.30556	0	
0.6413	3.02241	1.05254	0	
0.6420	8.17828	0.751813	0	
0.6427	7.28934	1.05254	0	
0.6433	4.56324	5.96439	0	
0.6440	-11.3192	5.66366	0	
0.6447	-33.8984	1.05254	0	
0.6453	-40.2988	1.40338	0	
0.6460	-31.4686	2.60629	0	
0.6467	-21.6902	0.751813	0	
0.6473	-13.4527	1.05254	0	
0.6480	-8.88944	2.00484	0	
0.6487	-5.21514	0.150363	0	
0.6493	5.7485	-0.751813	0	
0.6500	15.5269	-1.05254	0	
0.6507	16.1195	-0.751813	0	
0.6513	16.4751	0.751813	0	
0.6520	19.2012	2.00484	0	
0.6527	17.0677	2.30556	0	
0.6533	11.5563	1.05254	0	
0.6540	6.99302	-1.65399	0	
0.6547	3.31872	-3.20774	0	
0.6553	-2.78536	-1.05254	0	
0.6560	-10.7266	-0.751813	0	
0.6567	-15.2898	-2.60629	0	
0.6573	-14.9935	-3.80919	0	
0.6580	-14.6972	-2.90701	0	
0.6587	-11.9118	1.05254	0	
0.6593	-6.45966	4.76148	0	
0.6600	-5.21514	4.10991	0	
0.6607	-3.6743	2.90701	0	
0.6613	5.7485	3.20774	0	
0.6620	12.8008	2.90701	0	
0.6627	11.8526	1.05254	0	
0.6633	12.5045	0.150363	0	
0.6640	10.9636	1.70411	0	
0.6647	5.15587	3.80919	0	
0.6653	4.26693	3.80919	0	
0.6660	8.53386	0.451088	0	
0.6667	10.6673	0.150363	0	
0.6673	10.9636	2.90701	0	
0.6680	7.28934	2.60629	0	
0.6687	-4.32619	0.751813	0	
0.6693	-13.1564	2.90701	0	
0.6700	-17.127	3.80919	0	
0.6707	-22.9347	2.00484	0	
0.6713	-25.3645	1.05254	0	
0.6720	-21.0976	0.150363	0	
0.6727	-19.2604	-2.60629	0	
0.6733	-16.8307	-2.30556	0	
0.6740	-2.78536	0.451088	0	
0.6747	15.5269	-1.05254	0	
0.6753	25.0089	-3.50846	0	
0.6760	21.9273	-1.95471	0	
0.6767	9.71912	-1.65399	0	
0.6773	-0.948206	-1.95471	0	
0.6780	-6.45966	0.451088	0	
0.6787	-16.8307	2.00484	0	
0.6793	-29.0388	1.05254	0	
0.6800	-26.2535	2.60629	0	
0.6807	-12.2674	3.80919	0	
0.6813	-0.948206	0.751813	0	
0.6820	3.31872	-1.05254	0	
0.6827	3.61504	1.05254	0	
0.6833	4.85956	1.70411	0	
0.6840	10.6673	0.150363	0	
0.6847	18.9049	0.451088	0	
0.6853	24.3571	2.30556	0	
0.6860	19.2012	3.80919	0	
0.6867	5.15587	3.20774	0	
0.6873	-2.78536	2.00484	0	
0.6880	-9.48206	2.90701	0	
0.6887	-24.7719	2.00484	0	
0.6893	-32.0612	-1.05254	0	
0.6900	-20.1494	-0.751813	0	
0.6907	-5.21514	-0.150363	0	
0.6913	10.0154	-3.20774	0	
0.6920	31.7057	-2.60629	0	
0.6927	46.6399	0.451088	0	
0.6933	46.3436	-0.751813	0	
0.6940	33.8391	-2.60629	0	
0.6947	5.45219	-0.751813	0	
0.6953	-30.2241	0.150363	0	
0.6960	-44.9213	-0.150363	0	
0.6967	-35.7355	1.05254	0	
0.6973	-20.1494	1.40338	0	
0.6980	-8.29681	2.60629	0	
0.6987	-3.6743	3.80919	0	
0.6993	-7.3486	2.60629	0	
0.7000	-10.7266	1.05254	0	
0.7007	-7.3486	0.751813	0	
0.7013	-3.37799	0.150363	0	
0.7020	-0.0592629	0.150363	0	
0.7027	4.56324	0.150363	0	
0.7033	1.77789	-0.150363	0	
0.7040	-6.45966	2.00484	0	
0.7047	-8.29681	3.80919	0	
0.7053	-7.3486	2.30556	0	
0.7060	-13.749	2.00484	0	
0.7067	-17.4233	2.90701	0	
0.7073	-7.64491	1.70411	0	
0.7080	4.85956	1.05254	0	
0.7087	11.5563	2.00484	0	
0.7093	17.364	-0.451088	0	
0.7100	28.3277	-1.95471	0	
0.7107	36.5652	0.751813	0	
0.7113	34.4317	2.00484	0	
0.7120	27.1424	0.150363	0	
0.7127	23.1718	-0.751813	0	
0.7133	18.253	-1.05254	0	
0.7140	6.99302	-0.751813	0	
0.7147	-9.18575	0.150363	0	
0.7153	-26.2535	-0.451088	0	
0.7160	-36.0318	-1.65399	0	
0.7167	-33.0094	0.150363	0	
0.7173	-20.1494	1.40338	0	
0.7180	-6.16334	-0.451088	0	
0.7187	2.72609	-1.65399	0	
0.7193	1.18526	-1.65399	0	
0.7200	-3.6743	-3.80919	0	
0.7207	-8.29681	-6.26511	0	
0.7213	-14.6972	-5.96439	0	
0.7220	-18.3715	-5.61354	0	
0.7227	-10.134	-5.61354	0	
0.7233	-0.0592629	-6.26511	0	
0.7240	4.85956	-6.86656	0	
0.7247	7.58565	-5.61354	0	
0.7253	4.85956	-4.41064	0	
0.7260	-6.16334	-5.61354	0	
0.7267	-13.4527	-5.31281	0	
0.7273	-11.9118	-3.80919	0	
0.7280	-8.88944	-4.10991	0	
0.7287	-5.51145	-3.50846	0	
0.7293	-0.0592629	-1.35326	0	
0.7300	8.17828	-1.05254	0	
0.7307	23.1718	-2.60629	0	
0.7313	37.5134	-2.60629	0	
0.7320	39.9432	-3.20774	0	
0.7327	36.9208	-5.31281	0	
0.7333	34.1354	-6.86656	0	
0.7340	16.4751	-5.96439	0	
0.7347	-10.7266	-3.20774	0	
0.7353	-21.0976	-4.41064	0	
0.7360	-14.6972	-8.06946	0	
0.7367	-9.48206	-6.86656	0	
0.7373	-8.29681	-4.41064	0	
0.7380	-7.94123	-5.31281	0	
0.7387	-8.29681	-3.50846	0	
0.7393	-5.21514	0.150363	0	
0.7400	-1.83715	-0.150363	0	
0.7407	-1.24452	-1.65399	0	
0.7413	-1.54084	-0.751813	0	
0.7420	-2.78536	-1.05254	0	
0.7427	-4.91882	-2.60629	0	
0.7433	-3.37799	-2.90701	0	
0.7440	0.296315	-3.50846	0	
0.7447	5.15587	-4.41064	0	
0.7453	13.6897	-4.41064	0	
0.7460	19.4975	-2.60629	0	
0.7467	19.2012	-0.150363	0	
0.7473	17.364	0.451088	0	
0.7480	12.5045	-0.751813	0	
0.7487	3.02241	-1.35326	0	
0.7493	-0.651892	-1.65399	0	
0.7500	-2.19273	-1.65399	0	
0.7507	-13.1564	-2.60629	0	
0.7513	-21.0976	-2.30556	0	
0.7520	-15.8825	-0.150363	0	
0.7527	-8.59312	1.70411	0	
0.7533	-0.651892	2.00484	0	
0.7540	11.8526	2.90701	0	
0.7547	16.4751	3.50846	0	
0.7553	18.253	3.50846	0	
0.7560	31.4093	2.90701	0	
0.7567	36.5652	0.451088	0	
0.7573	21.9273	-0.751813	0	
0.7580	1.77789	2.90701	0	
0.7587	-22.2829	5.36294	0	
0.7593	-49.7808	3.20774	0	
0.7600	-61.0408	1.05254	0	
0.7607	-54.0478	-1.35326	0	
0.7613	-47.6474	-3.20774	0	
0.7620	-44.5657	0.150363	0	
0.7627	-37.869	4.41064	0	
0.7633	-31.1723	4.10991	0	
0.7640	-25.9572	2.90701	0	
0.7647	-21.9865	2.00484	0	
0.7653	-18.3715	1.40338	0	
0.7660	-15.2898	3.80919	0	
0.7667	-14.0453	3.80919	0	
0.7673	-15.5861	1.05254	0	
0.7680	-14.6972	1.40338	0	
0.7687	-9.18575	2.00484	0	
0.7693	2.0742	-1.65399	0	
0.7700	18.253	-2.60629	0	
0.7707	30.1648	-0.451088	0	
0.7713	33.2465	-0.451088	0	
0.7720	35.0836	-0.150363	0	
0.7727	35.0836	2.00484	0	
0.7733	21.0383	1.05254	0	
0.7740	-1.83715	-1.05254	0	
0.7747	-11.0229	-1.95471	0	
0.7753	-5.80776	-2.90701	0	
0.7760	-1.24452	-2.60629	0	
0.7767	2.42978	-1.05254	0	
0.7773	6.40039	-0.451088	0	
0.7780	6.69671	-2.60629	0	
0.7787	8.17828	-5.96439	0	
0.7793	10.0154	-6.26511	0	
0.7800	4.56324	-2.60629	0	
0.7807	-4.91882	-1.65399	0	
0.7813	-5.51145	-2.60629	0	
0.7820	3.02241	-0.150363	0	
0.7827	10.0154	1.05254	0	
0.7833	10.6673	-2.90701	0	
0.7840	10.0154	-4.71136	0	
0.7847	12.8008	-2.90701	0	
0.7853	14.6379	-3.50846	0	
0.7860	12.8008	-4.41064	0	
0.7867	13.986	-2.90701	0	
0.7873	17.364	-3.20774	0	
0.7880	15.2306	-5.31281	0	
0.7887	12.8008	-4.71136	0	
0.7893	12.1489	-3.50846	0	
0.7900	6.40039	-2.60629	0	
0.7907	0.592629	-0.451088	0	
0.7913	1.18526	1.70411	0	
0.7920	2.72609	0.150363	0	
0.7927	1.77789	-0.751813	0	
0.7933	0.888944	1.05254	0	
0.7940	-0.948206	-0.150363	0	
0.7947	-0.651892	-2.60629	0	
0.7953	1.77789	-0.451088	0	
0.7960	-3.6743	1.40338	0	
0.7967	-14.4009	-0.451088	0	
0.7973	-18.3715	-1.65399	0	
0.7980	-16.1788	-0.751813	0	
0.7987	-13.749	-0.751813	0	
0.7993	-11.3192	-1.65399	0	
0.8000	-14.6972	-1.05254	0	
0.8007	-21.9865	1.05254	0	
0.8013	-22.2829	2.30556	0	
0.8020	-16.8307	1.05254	0	
0.8027	-12.2674	0.150363	0	
0.8033	-11.3192	2.30556	0	
0.8040	-15.5861	4.76148	0	
0.8047	-21.9865	3.80919	0	
0.8053	-23.5274	3.80919	0	
0.8060	-23.8237	7.16729	0	
0.8067	-20.1494	6.56584	0	
0.8073	-4.62251	2.00484	0	
0.8080	16.7714	2.00484	0	
0.8087	36.5652	5.06221	0	
0.8093	58.2554	4.76148	0	
0.8100	79.5901	3.80919	0	
0.8107	86.9387	3.80919	0	
0.8113	67.7375	2.90701	0	
0.8120	28.3277	2.00484	0	
0.8127	-9.18575	2.90701	0	
0.8133	-33.8984	2.00484	0	
0.8140	-50.3735	2.60629	0	
0.8147	-57.7221	5.66366	0	
0.8153	-48.5363	5.66366	0	
0.8160	-30.2241	2.00484	0	
0.8167	-18.0159	0.150363	0	
0.8173	-15.2898	0.751813	0	
0.8180	-15.5861	1.05254	0	
0.8187	-14.6972	1.70411	0	
0.8193	-12.86	5.36294	0	
0.8200	-10.7266	8.42031	0	
0.8207	-8.29681	5.96439	0	
0.8213	-7.3486	2.60629	0	
0.8220	-5.51145	4.41064	0	
0.8227	-1.83715	5.66366	0	
0.8233	-0.651892	2.30556	0	
0.8240	-0.355577	1.70411	0	
0.8247	0.888944	4.76148	0	
0.8253	0.592629	3.80919	0	
0.8260	0.888944	2.00484	0	
0.8267	4.56324	2.00484	0	
0.8273	5.45219	1.05254	0	
0.8280	3.91135	-1.05254	0	
0.8287	5.45219	-1.35326	0	
0.8293	9.4228	-0.150363	0	
0.8300	11.8526	0.451088	0	
0.8307	13.3934	0.150363	0	
0.8313	16.1195	-1.35326	0	
0.8320	19.7938	-2.60629	0	
0.8327	21.631	-1.95471	0	
0.8333	24.3571	-2.60629	0	
0.8340	28.3277	-3.50846	0	
0.8347	29.2759	-2.30556	0	
0.8353	30.1648	-0.751813	0	
0.8360	32.002	-0.150363	0	
0.8367	29.5722	-0.150363	0	
0.8373	28.9796	-0.751813	0	
0.8380	29.2759	-1.35326	0	
0.8387	11.5563	-0.751813	0	
0.8393	-16.5343	-1.35326	0	
0.8400	-30.2241	-4.41064	0	
0.8407	-35.4392	-3.50846	0	
0.8413	-38.8172	-1.65399	0	
0.8420	-29.3351	-4.71136	0	
0.8427	-13.4527	-7.16729	0	
0.8433	-7.3486	-3.20774	0	
0.8440	-5.51145	-0.751813	0	
0.8447	-3.6743	-2.90701	0	
0.8453	-7.64491	-4.41064	0	
0.8460	-11.0229	-5.31281	0	
0.8467	-5.51145	-4.71136	0	
0.8473	1.77789	-1.95471	0	
0.8480	3.31872	-1.65399	0	
0.8487	-0.0592629	-4.41064	0	
0.8493	-1.54084	-5.01209	0	
0.8500	0.888944	-4.41064	0	
0.8507	3.61504	-5.31281	0	
0.8513	4.56324	-4.10991	0	
0.8520	1.18526	-1.35326	0	
0.8527	-6.45966	-1.65399	0	
0.8533	-11.3192	-2.60629	0	
0.8540	-13.1564	-1.35326	0	
0.8547	-18.6678	-0.751813	0	
0.8553	-21.6902	-0.751813	0	
0.8560	-14.6972	0.751813	0	
0.8567	-6.45966	1.40338	0	
0.8573	-4.32619	-0.150363	0	
0.8580	-4.62251	0.150363	0	
0.8587	1.18526	2.00484	0	
0.8593	21.0383	0.150363	0	
0.8600	43.0249	-1.65399	0	
0.8607	48.4771	1.05254	0	
0.8613	42.6693	2.30556	0	
0.8620	33.8391	-0.150363	0	
0.8627	1.77789	0.150363	0	
0.8633	-46.1065	2.00484	0	
0.8640	-64.1225	1.05254	0	
0.8647	-43.0841	1.70411	0	
0.8653	-22.2829	2.90701	0	
0.8660	-18.0159	2.00484	0	
0.8667	-16.5343	1.05254	0	
0.8673	-14.6972	0.751813	0	
0.8680	-17.127	-1.05254	0	
0.8687	-18.0159	-1.95471	0	
0.8693	-15.5861	0.150363	0	
0.8700	-13.1564	2.00484	0	
0.8707	-4.62251	2.30556	0	
0.8713	12.8008	1.05254	0	
0.8720	26.1942	0.150363	0	
0.8727	35.6763	1.05254	0	
0.8733	47.5881	1.40338	0	
0.8740	47.5881	-1.05254	0	
0.8747	28.3277	-2.60629	0	
0.8753	11.8526	-1.05254	0	
0.8760	2.42978	0.150363	0	
0.8767	-11.0229	-0.451088	0	
0.8773	-21.0976	1.05254	0	
0.8780	-23.5274	2.60629	0	
0.8787	-28.3869	1.05254	0	
0.8793	-29.3351	-0.451088	0	
0.8800	-18.0159	-1.05254	0	
0.8807	-7.94123	-2.60629	0	
0.8813	-8.29681	-2.60629	0	
0.8820	-11.0229	-0.451088	0	
0.8827	-10.7266	-0.451088	0	
0.8833	-7.94123	-1.65399	0	
0.8840	-4.02988	-0.451088	0	
0.8847	-1.83715	1.05254	0	
0.8853	-1.54084	-0.751813	0	
0.8860	-0.948206	-1.65399	0	
0.8867	0.888944	-0.751813	0	
0.8873	4.26693	-1.65399	0	
0.8880	7.28934	-1.65399	0	
0.8887	9.12649	-0.150363	0	
0.8893	10.0154	-1.95471	0	
0.8900	10.0154	-5.31281	0	
0.8907	10.371	-2.60629	0	
0.8913	10.9636	0.150363	0	
0.8920	10.9636	-2.30556	0	
0.8927	10.0154	-1.95471	0	
0.8933	9.4228	2.00484	0	
0.8940	8.17828	1.70411	0	
0.8947	6.40039	-0.751813	0	
0.8953	6.04482	-1.65399	0	
0.8960	9.71912	-3.50846	0	
0.8967	16.4751	-4.71136	0	
0.8973	19.2012	-4.10991	0	
0.8980	17.6603	-5.31281	0	
0.8987	17.6603	-8.06946	0	
0.8993	16.1195	-5.61354	0	
0.9000	10.9636	-2.30556	0	
0.9007	8.17828	-1.65399	0	
0.9013	6.04482	-3.20774	0	
0.9020	-3.6743	-5.31281	0	
0.9027	-11.3192	-3.80919	0	
0.9033	-11.9118	-1.65399	0	
0.9040	-11.0229	-2.90701	0	
0.9047	-7.94123	-4.10991	0	
0.9053	-4.62251	-3.50846	0	
0.9060	-7.05229	-4.71136	0	
0.9067	-9.18575	-5.31281	0	
0.9073	-5.51145	-2.90701	0	
0.9080	-3.37799	-3.50846	0	
0.9087	-5.51145	-4.41064	0	
0.9093	-5.51145	-2.60629	0	
0.9100	-3.37799	0.150363	0	
0.9107	-2.19273	1.05254	0	
0.9113	3.02241	0.150363	0	
0.9120	13.6897	-2.30556	0	
0.9127	20.0901	-3.20774	0	
0.9133	17.9567	-2.60629	0	
0.9140	12.8008	-2.60629	0	
0.9147	7.58565	-3.20774	0	
0.9153	2.0742	-3.50846	0	
0.9160	-1.54084	-3.50846	0	
0.9167	-2.19273	-0.751813	0	
0.9173	-3.6743	1.05254	0	
0.9180	-5.51145	-0.451088	0	
0.9187	-0.355577	-0.751813	0	
0.9193	9.71912	-0.451088	0	
0.9200	18.6086	-2.30556	0	
0.9207	29.5722	-3.80919	0	
0.9213	36.9208	-3.50846	0	
0.9220	28.0314	-3.20774	0	
0.9227	18.253	-1.65399	0	
0.9233	27.1424	0.150363	0	
0.9240	32.9502	0.150363	0	
0.9247	17.9567	-0.150363	0	
0.9253	-5.21514	-0.451088	0	
0.9260	-34.491	-2.60629	0	
0.9267	-68.0931	-4.41064	0	
0.9273	-84.2718	-4.41064	0	
0.9280	-78.7604	-2.60629	0	
0.9287	-68.6857	-0.150363	0	
0.9293	-53.4551	-0.150363	0	
0.9300	-33.0094	-2.60629	0	
0.9307	-20.8013	-2.60629	0	
0.9313	-18.6678	-1.05254	0	
0.9320	-19.8531	-2.90701	0	
0.9327	-20.8013	-5.31281	0	
0.9333	-19.2604	-3.50846	0	
0.9340	-18.6678	-1.65399	0	
0.9347	-18.3715	-1.65399	0	
0.9353	-9.77838	0.150363	0	
0.9360	8.53386	4.10991	0	
0.9367	27.4387	3.80919	0	
0.9373	37.5134	0.150363	0	
0.9380	38.6987	-0.751813	0	
0.9387	35.6763	3.20774	0	
0.9393	24.7126	5.66366	0	
0.9400	0.888944	2.90701	0	
0.9407	-16.8307	-1.05254	0	
0.9413	-15.5861	-1.65399	0	
0.9420	-12.86	0.150363	0	
0.9427	-19.8531	-0.751813	0	
0.9433	-21.9865	-0.751813	0	
0.9440	-14.6972	2.90701	0	
0.9447	-8.59312	2.30556	0	
0.9453	-5.21514	-2.60629	0	
0.9460	-0.948206	-1.65399	0	
0.9467	9.12649	2.30556	0	
0.9473	25.3053	0.451088	0	
0.9480	35.0836	-1.35326	0	
0.9487	36.2689	1.05254	0	
0.9493	38.4024	2.00484	0	
0.9500	38.6987	2.00484	0	
0.9507	26.4905	2.00484	0	
0.9513	10.0154	-0.751813	0	
0.9520	-3.08167	0.751813	0	
0.9527	-16.5343	5.06221	0	
0.9533	-29.3351	3.80919	0	
0.9540	-35.4392	2.00484	0	
0.9547	-33.8984	4.76148	0	
0.9553	-20.1494	5.66366	0	
0.9560	5.45219	4.76148	0	
0.9567	21.3346	5.66366	0	
0.9573	18.6086	4.41064	0	
0.9580	6.40039	2.90701	0	
0.9587	-18.6678	4.10991	0	
0.9593	-51.3217	2.90701	0	
0.9600	-62.5816	-0.451088	0	
0.9607	-47.3511	-0.451088	0	
0.9613	-32.3575	0.751813	0	
0.9620	-23.8237	0.150363	0	
0.9627	-12.86	-0.751813	0	
0.9633	-8.88944	-1.35326	0	
0.9640	-12.2674	-1.05254	0	
0.9647	-10.134	-0.751813	0	
0.9653	-3.08167	-2.30556	0	
0.9660	-0.0592629	-3.50846	0	
0.9667	1.77789	-2.90701	0	
0.9673	6.99302	-0.751813	0	
0.9680	11.8526	0.150363	0	
0.9687	14.9343	0.150363	0	
0.9693	14.9343	0.150363	0	
0.9700	12.8008	-0.451088	0	
0.9707	11.5563	-1.65399	0	
0.9713	10.0154	-0.150363	0	
0.9720	9.12649	1.40338	0	
0.9727	11.5563	-1.05254	0	
0.9733	15.2306	-1.65399	0	
0.9740	16.4751	0.451088	0	
0.9747	16.4751	-1.05254	0	
0.9753	15.5269	-1.95471	0	
0.9760	13.6897	1.05254	0	
0.9767	12.5045	0.150363	0	
0.9773	7.88197	-2.60629	0	
0.9780	-4.62251	-1.65399	0	
0.9787	-16.8307	0.150363	0	
0.9793	-19.2604	1.70411	0	
0.9800	-13.1564	3.20774	0	
0.9807	-6.45966	-1.65399	0	
0.9813	-3.08167	-5.01209	0	
0.9820	-0.0592629	0.150363	0	
0.9827	10.0154	2.00484	0	
0.9833	25.8979	-1.65399	0	
0.9840	37.5134	-1.35326	0	
0.9847	38.106	1.05254	0	
0.9853	34.1354	1.05254	0	
0.9860	27.4387	1.70411	0	
0.9867	7.88197	2.90701	0	
0.9873	-15.8825	2.90701	0	
0.9880	-22.9347	3.20774	0	
0.9887	-14.6972	1.40338	0	
0.9893	-7.64491	0.451088	0	
0.9900	-5.21514	3.80919	0	
0.9907	-4.91882	4.76148	0	
0.9913	-6.16334	2.00484	0	
0.9920	-4.91882	1.70411	0	
0.9927	-1.83715	1.40338	0	
0.9933	-0.0592629	-0.751813	0	
0.9940	2.0742	0.451088	0	
0.9947	3.02241	2.00484	0	
0.9953	2.0742	-0.150363	0	
0.9960	4.56324	-1.35326	0	
0.9967	8.53386	-0.150363	0	
0.9973	9.12649	-0.751813	0	
0.9980	10.371	-1.65399	0	
0.9987	17.0677	-2.60629	0	
0.9993	24.3571	-2.60629	0	
1.0000	25.6016	-0.451088	0	
1.0007	23.7644	0.751813	0	
1.0013	25.8979	-0.150363	0	
1.0020	30.1648	0.451088	0	
1.0027	30.1648	0.451088	0	
1.0033	28.3277	-1.65399	0	
1.0040	24.7126	0.751813	0	
1.0047	11.8526	3.20774	0	
1.0053	-5.21514	-0.451088	0	
1.0060	-21.3939	-2.30556	0	
1.0067	-44.9213	1.05254	0	
1.0073	-64.1225	1.70411	0	
1.0080	-56.7739	0.150363	0	
1.0087	-38.8172	2.00484	0	
1.0093	-34.491	2.90701	0	
1.0100	-33.0094	2.00484	0	
1.0107	-21.9865	1.70411	0	
1.0113	-9.48206	1.40338	0	
1.0120	0.888944	1.05254	0	
1.0127	7.28934	2.00484	0	
1.0133	8.83017	1.70411	0	
1.0140	12.1489	0.150363	0	
1.0147	22.5199	2.60629	0	
1.0153	31.4093	4.76148	0	
1.0160	33.8391	1.05254	0	
1.0167	31.7057	-0.150363	0	
1.0173	20.0901	3.80919	0	
1.0180	-4.91882	4.76148	0	
1.0187	-33.6021	0.451088	0	
1.0193	-45.2176	-0.451088	0	
1.0200	-31.4686	2.00484	0	
1.0207	-11.3192	2.60629	0	
1.0213	-5.51145	2.00484	0	
1.0220	-9.48206	0.451088	0	
1.0227	-17.7196	0.451088	0	
1.0233	-32.0612	1.40338	0	
1.0240	-38.8172	-0.751813	0	
1.0247	-29.9278	-3.50846	0	
1.0253	-18.6678	-0.451088	0	
1.0260	-11.9118	2.00484	0	
1.0267	-0.948206	-0.451088	0	
1.0273	12.1489	-0.751813	0	
1.0280	23.7644	-0.451088	0	
1.0287	37.2171	-2.60629	0	
1.0293	46.9362	-1.65399	0	
1.0300	46.6399	0.150363	0	
1.0307	36.9208	-1.95471	0	
1.0313	17.364	-1.35326	0	
1.0320	-2.78536	2.00484	0	
1.0327	-7.05229	-1.05254	0	
1.0333	1.18526	-3.50846	0	
1.0340	8.53386	-1.05254	0	
1.0347	16.4751	-1.95471	0	
1.0353	26.8461	-4.41064	0	
1.0360	30.1648	-2.60629	0	
1.0367	18.9049	-2.30556	0	
1.0373	-0.0592629	-4.10991	0	
1.0380	-8.88944	-3.50846	0	
1.0387	-7.3486	-4.71136	0	
1.0393	-11.0229	-6.26511	0	
1.0400	-17.4233	-3.50846	0	
1.0407	-13.1564	-1.65399	0	
1.0413	-7.05229	-1.65399	0	
1.0420	-11.0229	0.150363	0	
1.0427	-16.1788	1.05254	0	
1.0433	-18.3715	-0.751813	0	
1.0440	-20.8013	-2.60629	0	
1.0447	-18.3715	-3.80919	0	
1.0453	-10.7266	-4.10991	0	
1.0460	-5.51145	-1.95471	0	
1.0467	-3.08167	-2.60629	0	
1.0473	-1.54084	-4.41064	0	
1.0480	-0.948206	-1.65399	0	
1.0487	1.77789	0.751813	0	
1.0493	7.28934	-0.751813	0	
1.0500	7.28934	-0.150363	0	
1.0507	2.72609	0.751813	0	
1.0513	3.61504	-2.60629	0	
1.0520	6.04482	-1.65399	0	
1.0527	2.72609	1.05254	0	
1.0533	1.18526	0.451088	0	
1.0540	8.83017	1.05254	0	
1.0547	19.2012	4.41064	0	
1.0553	28.3277	2.30556	0	
1.0560	35.6763	-0.451088	0	
1.0567	36.2689	2.00484	0	
1.0573	31.7057	2.30556	0	
1.0580	27.4387	-0.751813	0	
1.0587	21.9273	-0.751813	0	
1.0593	14.6379	-0.451088	0	
1.0600	6.99302	-0.451088	0	
1.0607	-5.80776	1.05254	0	
1.0613	-19.2604	1.40338	0	
1.0620	-24.7719	-1.35326	0	
1.0627	-23.2311	-3.50846	0	
1.0633	-21.0976	-4.71136	0	
1.0640	-19.8531	-5.96439	0	
1.0647	-22.2829	-4.71136	0	
1.0653	-30.2241	-1.95471	0	
1.0660	-37.5727	-0.451088	0	
1.0667	-36.6837	-0.150363	0	
1.0673	-29.3351	-0.751813	0	
1.0680	-21.9865	-2.60629	0	
1.0687	-14.0453	-4.10991	0	
1.0693	-0.355577	-3.50846	0	
1.0700	24.0607	-1.65399	0	
1.0707	52.1514	-0.150363	0	
1.0713	68.6264	0.150363	0	
1.0720	72.0044	-0.150363	0	
1.0727	59.5	-0.751813	0	
1.0733	15.5269	0.150363	0	
1.0740	-40.9507	2.00484	0	
1.0747	-59.5592	1.70411	0	
1.0753	-36.3282	1.40338	0	
1.0760	-12.2674	2.30556	0	
1.0767	-0.651892	0.451088	0	
1.0773	10.0154	-2.30556	0	
1.0780	17.6603	-1.65399	0	
1.0787	23.7644	-1.65399	0	
1.0793	31.113	-3.20774	0	
1.0800	31.7057	-1.95471	0	
1.0807	24.7126	-0.451088	0	
1.0813	15.5269	-1.65399	0	
1.0820	-0.651892	-1.65399	0	
1.0827	-21.3939	0.451088	0	
1.0833	-30.5797	1.05254	0	
1.0840	-25.6608	0.451088	0	
1.0847	-23.8237	0.150363	0	
1.0853	-30.2241	0.150363	0	
1.0860	-34.491	-0.451088	0	
1.0867	-36.3282	-0.451088	0	
1.0873	-40.2988	0.150363	0	
1.0880	-39.1135	-1.35326	0	
1.0887	-26.9054	-3.50846	0	
1.0893	-15.5861	-1.65399	0	
1.0900	-11.0229	0.751813	0	
1.0907	-6.16334	-0.751813	0	
1.0913	-0.651892	-0.751813	0	
1.0920	1.18526	2.00484	0	
1.0927	0.888944	0.751813	0	
1.0933	1.77789	-1.35326	0	
1.0940	5.45219	0.150363	0	
1.0947	8.53386	0.751813	0	
1.0953	6.40039	0.150363	0	
1.0960	3.91135	0.751813	0	
1.0967	6.69671	1.05254	0	
1.0973	6.40039	2.00484	0	
1.0980	2.42978	2.90701	0	
1.0987	3.31872	2.60629	0	
1.0993	5.45219	2.90701	0	
1.1000	0.888944	4.10991	0	
1.1007	-2.78536	2.60629	0	
1.1013	-1.24452	2.00484	0	
1.1020	0.296315	4.41064	0	
1.1027	2.0742	2.90701	0	
1.1033	5.45219	-1.65399	0	
1.1040	9.12649	-1.65399	0	
1.1047	11.8526	0.751813	0	
1.1053	12.1489	0.751813	0	
1.1060	10.0154	-0.751813	0	
1.1067	4.85956	-1.65399	0	
1.1073	-3.6743	-0.751813	0	
1.1080	-11.3192	1.05254	0	
1.1087	-11.3192	1.05254	0	
1.1093	-6.45966	-1.05254	0	
1.1100	-1.83715	-1.65399	0	
1.1107	1.18526	-0.150363	0	
1.1113	-0.651892	-0.150363	0	
1.1120	-2.48904	-1.05254	0	
1.1127	3.91135	-1.05254	0	
1.1133	13.6897	-2.30556	0	
1.1140	17.0677	-5.31281	0	
1.1147	19.7938	-5.61354	0	
1.1153	25.6016	-3.80919	0	
1.1160	25.6016	-4.41064	0	
1.1167	17.0677	-4.71136	0	
1.1173	7.88197	-4.41064	0	
1.1180	-0.0592629	-4.41064	0	
1.1187	-4.62251	-3.50846	0	
1.1193	-4.62251	-0.751813	0	
1.1200	-8.29681	-0.451088	0	
1.1207	-14.0453	0.150363	0	
1.1213	-7.05229	-0.751813	0	
1.1220	-0.355577	-4.71136	0	
1.1227	-11.9118	-3.20774	0	
1.1233	-19.8531	4.10991	0	
1.1240	-10.134	5.66366	0	
1.1247	-3.08167	2.90701	0	
1.1253	-4.62251	2.90701	0	
1.1260	-9.18575	2.30556	0	
1.1267	-20.1494	0.150363	0	
1.1273	-33.3058	0.751813	0	
1.1280	-42.4322	1.40338	0	
1.1287	-53.1588	-0.150363	0	
1.1293	-54.9367	-2.30556	0	
1.1300	-41.247	-1.65399	0	
1.1307	-28.0906	1.05254	0	
1.1313	-15.5861	0.451088	0	
1.1320	3.61504	-0.451088	0	
1.1327	17.364	3.80919	0	
1.1333	25.0089	5.66366	0	
1.1340	34.1354	0.150363	0	
1.1347	35.6763	-3.20774	0	
1.1353	25.0089	-1.35326	0	
1.1360	6.04482	-0.751813	0	
1.1367	-21.0976	-1.35326	0	
1.1373	-38.4616	-0.751813	0	
1.1380	-29.3351	0.150363	0	
1.1387	-11.0229	1.05254	0	
1.1393	-1.24452	1.05254	0	
1.1400	4.56324	-1.05254	0	
1.1407	7.58565	-1.05254	0	
1.1413	3.91135	0.751813	0	
1.1420	-0.0592629	0.751813	0	
1.1427	-2.19273	0.150363	0	
1.1433	-5.51145	1.05254	0	
1.1440	-7.3486	2.30556	0	
1.1447	-5.21514	1.05254	0	
1.1453	-2.48904	-1.05254	0	
1.1460	-0.948206	-2.60629	0	
1.1467	-0.948206	-3.50846	0	
1.1473	-0.355577	-5.01209	0	
1.1480	6.40039	-4.71136	0	
1.1487	15.2306	-3.20774	0	
1.1493	17.364	-2.60629	0	
1.1500	18.9049	-2.30556	0	
1.1507	25.3053	-0.150363	0	
1.1513	30.4611	0.451088	0	
1.1520	34.7281	0.150363	0	
1.1527	40.2395	0.150363	0	
1.1533	41.7803	-0.751813	0	
1.1540	43.6175	-1.05254	0	
1.1547	44.5064	-1.05254	0	
1.1553	31.113	-2.30556	0	
1.1560	9.4228	-2.60629	0	
1.1567	-5.80776	0.150363	0	
1.1573	-18.6678	1.40338	0	
1.1580	-30.2241	0.451088	0	
1.1587	-34.8466	-1.05254	0	
1.1593	-35.4392	-2.90701	0	
1.1600	-34.1947	-1.95471	0	
1.1607	-26.609	0.150363	0	
1.1613	-14.4009	-2.30556	0	
1.1620	-1.83715	-5.01209	0	
1.1627	10.6673	-2.60629	0	
1.1633	19.4975	1.05254	0	
1.1640	19.4975	2.90701	0	
1.1647	10.0154	4.41064	0	
1.1653	-8.88944	5.06221	0	
1.1660	-36.3282	3.80919	0	
1.1667	-58.0184	2.00484	0	
1.1673	-52.5069	1.05254	0	
1.1680	-28.3869	0.451088	0	
1.1687	-13.749	0.150363	0	
1.1693	-11.9118	-1.35326	0	
1.1700	-10.134	-2.30556	0	
1.1707	-8.88944	-2.60629	0	
1.1713	-2.78536	-2.60629	0	
1.1720	6.69671	-1.65399	0	
1.1727	6.40039	-0.451088	0	
1.1733	2.0742	-0.451088	0	
1.1740	6.69671	-2.60629	0	
1.1747	10.0154	-3.50846	0	
1.1753	7.58565	-0.751813	0	
1.1760	8.17828	1.70411	0	
1.1767	7.28934	1.05254	0	
1.1773	2.72609	-1.35326	0	
1.1780	3.61504	-1.95471	0	
1.1787	6.69671	0.451088	0	
1.1793	3.31872	2.90701	0	
1.1800	-0.948206	2.00484	0	
1.1807	-1.83715	0.150363	0	
1.1813	0.592629	-1.05254	0	
1.1820	4.56324	-2.60629	0	
1.1827	4.85956	-1.65399	0	
1.1833	-0.948206	0.451088	0	
1.1840	-2.78536	0.451088	0	
1.1847	2.72609	0.150363	0	
1.1853	7.88197	1.40338	0	
1.1860	13.0971	1.70411	0	
1.1867	22.2236	1.40338	0	
1.1873	32.9502	2.00484	0	
1.1880	40.2395	0.451088	0	
1.1887	38.4024	-2.60629	0	
1.1893	27.1424	-2.60629	0	
1.1900	17.364	0.150363	0	
1.1907	10.9636	0.150363	0	
1.1913	-1.54084	-0.451088	0	
1.1920	-16.8307	0.751813	0	
1.1927	-21.0976	1.70411	0	
1.1933	-12.2674	0.751813	0	
1.1940	-0.948206	0.150363	0	
1.1947	7.28934	0.751813	0	
1.1953	14.2824	0.150363	0	
1.1960	16.4751	-1.65399	0	
1.1967	13.0971	-1.65399	0	
1.1973	9.71912	0.451088	0	
1.1980	4.56324	2.60629	0	
1.1987	-9.18575	2.00484	0	
1.1993	-21.9865	0.451088	0	
1.2000	-22.9347	0.150363	0	
1.2007	-17.4233	-1.65399	0	
1.2013	-11.9118	-3.80919	0	
1.2020	-3.6743	-3.50846	0	
1.2027	2.0742	-1.35326	0	
1.2033	-0.651892	-0.150363	0	
1.2040	-6.75597	-0.451088	0	
1.2047	-12.5637	-1.35326	0	
1.2053	-20.8013	-0.751813	0	
1.2060	-29.3351	2.00484	0	
1.2067	-32.0612	2.00484	0	
1.2073	-30.2241	-1.95471	0	
1.2080	-24.7719	-2.60629	0	
1.2087	-14.9935	-1.95471	0	
1.2093	-7.05229	-4.71136	0	
1.2100	-5.21514	-3.20774	0	
1.2107	-4.02988	1.40338	0	
1.2113	-1.83715	-1.35326	0	
1.2120	-2.78536	-6.56584	0	
1.2127	-2.78536	-3.80919	0	
1.2133	0.888944	0.150363	0	
1.2140	1.77789	-1.35326	0	
1.2147	1.77789	-2.60629	0	
1.2153	6.40039	-1.65399	0	
1.2160	12.1489	-1.65399	0	
1.2167	21.0383	-1.35326	0	
1.2173	35.9726	-0.751813	0	
1.2180	44.8028	-0.751813	0	
1.2187	38.4024	-0.751813	0	
1.2193	26.1942	1.05254	0	
1.2200	10.0154	2.90701	0	
1.2207	-16.5343	2.00484	0	
1.2213	-36.6837	-0.451088	0	
1.2220	-33.0094	-0.751813	0	
1.2227	-14.0453	-0.150363	0	
1.2233	3.02241	-1.05254	0	
1.2240	15.8232	-1.65399	0	
1.2247	25.3053	-0.751813	0	
1.2253	26.4905	-1.35326	0	
1.2260	18.253	-4.41064	0	
1.2267	11.8526	-5.31281	0	
1.2273	12.8008	-3.50846	0	
1.2280	8.17828	-2.90701	0	
1.2287	-6.75597	-1.65399	0	
1.2293	-14.9935	1.70411	0	
1.2300	-12.86	1.70411	0	
1.2307	-16.1788	-0.150363	0	
1.2313	-25.0682	1.70411	0	
1.2320	-21.9865	2.00484	0	
1.2327	-7.05229	-1.65399	0	
1.2333	3.61504	-0.751813	0	
1.2340	5.7485	2.60629	0	
1.2347	6.69671	0.451088	0	
1.2353	8.53386	-1.65399	0	
1.2360	11.26	2.00484	0	
1.2367	17.0677	3.20774	0	
1.2373	24.3571	1.70411	0	
1.2380	27.735	1.05254	0	
1.2387	25.8979	0.150363	0	
1.2393	21.0383	0.451088	0	
1.2400	16.7714	2.90701	0	
1.2407	12.5045	2.00484	0	
1.2413	5.45219	-0.751813	0	
1.2420	-0.0592629	1.05254	0	
1.2427	-1.83715	3.20774	0	
1.2433	-3.37799	1.05254	0	
1.2440	-4.91882	0.150363	0	
1.2447	-4.32619	-0.150363	0	
1.2453	-11.9118	0.150363	0	
1.2460	-33.0094	2.30556	0	
1.2467	-48.8326	2.00484	0	
1.2473	-45.8102	-1.05254	0	
1.2480	-31.7649	-0.150363	0	
1.2487	-21.0976	1.70411	0	
1.2493	-16.1788	-0.751813	0	
1.2500	-12.86	-2.30556	0	
1.2507	-9.18575	0.150363	0	
1.2513	-7.64491	2.00484	0	
1.2520	-4.62251	2.00484	0	
1.2527	3.91135	2.30556	0	
1.2533	9.12649	3.50846	0	
1.2540	6.99302	2.90701	0	
1.2547	6.99302	0.451088	0	
1.2553	10.9636	0.150363	0	
1.2560	11.26	1.05254	0	
1.2567	8.83017	-0.150363	0	
1.2573	6.40039	-1.95471	0	
1.2580	-0.948206	-1.65399	0	
1.2587	-12.2674	-0.751813	0	
1.2593	-17.127	0.150363	0	
1.2600	-9.18575	-0.150363	0	
1.2607	0.888944	-2.60629	0	
1.2613	4.85956	-4.41064	0	
1.2620	8.17828	-1.65399	0	
1.2627	9.4228	0.150363	0	
1.2633	2.42978	-1.65399	0	
1.2640	-8.29681	-1.65399	0	
1.2647	-13.749	1.70411	0	
1.2653	-13.4527	0.150363	0	
1.2660	-2.78536	-5.01209	0	
1.2667	14.6379	-4.10991	0	
1.2673	23.7644	-0.751813	0	
1.2680	24.0607	-1.95471	0	
1.2687	19.7938	-2.30556	0	
1.2693	5.45219	0.150363	0	
1.2700	-11.0229	-0.751813	0	
1.2707	-9.77838	-4.41064	0	
1.2713	2.0742	-3.80919	0	
1.2720	4.56324	-0.751813	0	
1.2727	-3.37799	-0.751813	0	
1.2733	-11.0229	-3.50846	0	
1.2740	-12.5637	-0.751813	0	
1.2747	-6.45966	5.66366	0	
1.2753	4.26693	6.56584	0	
1.2760	10.0154	2.90701	0	
1.2767	3.91135	2.60629	0	
1.2773	-4.91882	3.50846	0	
1.2780	-5.80776	2.00484	0	
1.2787	-4.02988	2.00484	0	
1.2793	-8.29681	4.76148	0	
1.2800	-14.9935	6.26511	0	
1.2807	-19.2604	4.41064	0	
1.2813	-16.1788	3.80919	0	
1.2820	-0.948206	6.56584	0	
1.2827	13.6897	6.86656	0	
1.2833	16.4751	3.50846	0	
1.2840	18.253	1.05254	0	
1.2847	21.0383	0.451088	0	
1.2853	13.986	0.150363	0	
1.2860	1.77789	0.150363	0	
1.2867	-6.45966	-0.751813	0	
1.2873	-12.86	-1.95471	0	
1.2880	-17.127	0.751813	0	
1.2887	-18.3715	3.20774	0	
1.2893	-20.8013	0.150363	0	
1.2900	-19.2604	-2.60629	0	
1.2907	-9.77838	-2.30556	0	
1.2913	4.56324	-1.95471	0	
1.2920	20.3864	-1.05254	0	
1.2927	31.7057	0.751813	0	
1.2933	29.5722	-0.150363	0	
1.2940	12.1489	-1.95471	0	
1.2947	-15.2898	-1.35326	0	
1.2953	-33.8984	-1.65399	0	
1.2960	-25.9572	-3.20774	0	
1.2967	-4.02988	-2.60629	0	
1.2973	10.0154	-1.65399	0	
1.2980	19.2012	-1.65399	0	
1.2987	25.8979	-1.35326	0	
1.2993	19.4975	-0.451088	0	
1.3000	4.56324	0.451088	0	
1.3007	-7.3486	-0.451088	0	
1.3013	-19.2604	-1.65399	0	
1.3020	-30.876	-0.751813	0	
1.3027	-32.0612	0.751813	0	
1.3033	-25.3645	-0.751813	0	
1.3040	-18.9641	-1.65399	0	
1.3047	-6.45966	0.150363	0	
1.3053	18.253	0.150363	0	
1.3060	39.9432	-1.05254	0	
1.3067	47.8844	-1.05254	0	
1.3073	47.5881	-1.65399	0	
1.3080	34.7281	-1.95471	0	
1.3087	6.40039	0.150363	0	
1.3093	-18.6678	2.00484	0	
1.3100	-23.5274	1.40338	0	
1.3107	-16.5343	0.150363	0	
1.3113	-10.134	-0.751813	0	
1.3120	-12.86	-1.95471	0	
1.3127	-23.8237	-1.35326	0	
1.3133	-26.609	1.40338	0	
1.3140	-15.5861	2.00484	0	
1.3147	-3.08167	0.451088	0	
1.3153	4.56324	-0.150363	0	
1.3160	10.371	-0.751813	0	
1.3167	11.8526	-1.05254	0	
1.3173	8.17828	-0.150363	0	
1.3180	4.56324	-0.150363	0	
1.3187	2.72609	-1.05254	0	
1.3193	5.15587	0.150363	0	
1.3200	13.0971	1.05254	0	
1.3207	19.7938	-1.05254	0	
1.3213	17.6603	-1.35326	0	
1.3220	8.17828	-0.751813	0	
1.3227	1.77789	-2.30556	0	
1.3233	3.61504	-3.80919	0	
1.3240	6.40039	-4.41064	0	
1.3247	4.26693	-5.31281	0	
1.3253	-2.78536	-5.31281	0	
1.3260	-17.127	-3.80919	0	
1.3267	-33.0094	-2.60629	0	
1.3273	-34.8466	0.150363	0	
1.3280	-21.9865	1.05254	0	
1.3287	-11.0229	-2.60629	0	
1.3293	-3.6743	-4.41064	0	
1.3300	6.04482	-1.65399	0	
1.3307	16.4751	-1.35326	0	
1.3313	24.7126	-4.41064	0	
1.3320	34.1354	-4.41064	0	
1.3327	42.373	-3.50846	0	
1.3333	45.751	-1.95471	0	
1.3340	42.0767	0.150363	0	
1.3347	27.1424	-1.65399	0	
1.3353	4.56324	-3.50846	0	
1.3360	-18.3715	-0.150363	0	
1.3367	-44.2694	0.150363	0	
1.3373	-68.3894	-5.96439	0	
1.3380	-67.7968	-6.26511	0	
1.3387	-45.8102	1.40338	0	
1.3393	-29.9278	4.76148	0	
1.3400	-19.8531	2.90701	0	
1.3407	-8.59312	2.90701	0	
1.3413	-7.05229	3.20774	0	
1.3420	-11.9118	2.30556	0	
1.3427	-7.64491	0.150363	0	
1.3433	-2.48904	-1.35326	0	
1.3440	-4.62251	-0.751813	0	
1.3447	-3.6743	0.451088	0	
1.3453	1.77789	1.05254	0	
1.3460	5.15587	1.70411	0	
1.3467	8.53386	2.60629	0	
1.3473	17.364	2.90701	0	
1.3480	29.8685	1.05254	0	
1.3487	38.106	0.150363	0	
1.3493	36.5652	1.05254	0	
1.3500	32.9502	0.150363	0	
1.3507	28.3277	-2.30556	0	
1.3513	4.26693	-1.65399	0	
1.3520	-30.2241	1.05254	0	
1.3527	-38.4616	0.751813	0	
1.3533	-20.8013	-1.65399	0	
1.3540	-5.51145	-4.10991	0	
1.3547	1.18526	-5.96439	0	
1.3553	3.61504	-4.41064	0	
1.3560	-0.0592629	-0.751813	0	
1.3567	-5.21514	0.150363	0	
1.3573	-7.3486	-1.05254	0	
1.3580	-11.0229	-0.751813	0	
1.3587	-13.749	0.150363	0	
1.3593	-13.4527	-0.150363	0	
1.3600	-12.86	-1.05254	0	
1.3607	-7.94123	-0.751813	0	
1.3613	5.7485	-1.95471	0	
1.3620	19.2012	-5.31281	0	
1.3627	23.7644	-6.26511	0	
1.3633	24.0607	-3.50846	0	
1.3640	23.1718	-2.30556	0	
1.3647	20.742	-1.95471	0	
1.3653	18.253	-0.751813	0	
1.3660	13.6897	0.150363	0	
1.3667	1.18526	-1.95471	0	
1.3673	-13.4527	-3.80919	0	
1.3680	-21.3939	-4.41064	0	
1.3687	-22.6384	-5.01209	0	
1.3693	-18.3715	-3.80919	0	
1.3700	-9.18575	-2.90701	0	
1.3707	-0.948206	-3.80919	0	
1.3713	1.48157	-3.80919	0	
1.3720	4.56324	-2.60629	0	
1.3727	9.4228	-1.35326	0	
1.3733	10.6673	-0.451088	0	
1.3740	7.88197	-0.751813	0	
1.3747	2.72609	-1.65399	0	
1.3753	-3.08167	0.150363	0	
1.3760	-6.45966	2.30556	0	
1.3767	-10.134	2.60629	0	
1.3773	-16.8307	2.60629	0	
1.3780	-18.0159	1.40338	0	
1.3787	-8.59312	-0.751813	0	
1.3793	4.26693	-0.150363	0	
1.3800	15.8232	2.60629	0	
1.3807	22.2236	1.05254	0	
1.3813	17.0677	-0.150363	0	
1.3820	4.56324	1.40338	0	
1.3827	-6.16334	1.05254	0	
1.3833	-16.8307	-1.05254	0	
1.3840	-30.2241	1.05254	0	
1.3847	-37.2764	3.50846	0	
1.3853	-31.1723	2.00484	0	
1.3860	-15.8825	1.05254	0	
1.3867	-1.54084	3.20774	0	
1.3873	9.12649	3.20774	0	
1.3880	19.2012	1.05254	0	
1.3887	31.4093	0.751813	0	
1.3893	44.2101	2.90701	0	
1.3900	49.4253	4.10991	0	
1.3907	43.6175	2.60629	0	
1.3913	29.2759	-1.05254	0	
1.3920	3.61504	-2.30556	0	
1.3927	-31.1723	1.05254	0	
1.3933	-49.1882	3.50846	0	
1.3940	-40.5951	2.90701	0	
1.3947	-25.6608	1.70411	0	
1.3953	-16.5343	0.150363	0	
1.3960	-12.2674	-0.751813	0	
1.3967	-11.9118	2.00484	0	
1.3973	-12.86	3.80919	0	
1.3980	-11.0229	2.00484	0	
1.3987	-6.75597	1.05254	0	
1.3993	1.48157	2.00484	0	
1.4000	12.8008	1.05254	0	
1.4007	25.8979	-0.751813	0	
1.4013	38.4024	0.150363	0	
1.4020	41.1877	2.90701	0	
1.4027	36.2689	3.80919	0	
1.4033	33.8391	3.80919	0	
1.4040	20.0901	2.60629	0	
1.4047	-12.2674	1.70411	0	
1.4053	-35.7355	1.05254	0	
1.4060	-37.5727	-0.451088	0	
1.4067	-37.5727	-0.751813	0	
1.4073	-40.2988	1.70411	0	
1.4080	-32.7131	1.70411	0	
1.4087	-18.6678	-1.05254	0	
1.4093	-10.134	0.451088	0	
1.4100	-2.78536	3.20774	0	
1.4107	6.40039	0.451088	0	
1.4113	8.83017	-1.65399	0	
1.4120	1.18526	0.751813	0	
1.4127	-5.51145	0.751813	0	
1.4133	-9.48206	-2.60629	0	
1.4140	-14.6972	-2.60629	0	
1.4147	-17.4233	0.751813	0	
1.4153	-14.9935	1.70411	0	
1.4160	-8.29681	1.40338	0	
1.4167	8.17828	2.30556	0	
1.4173	31.113	2.00484	0	
1.4180	42.0767	-0.751813	0	
1.4187	36.9208	-1.95471	0	
1.4193	24.7126	-0.751813	0	
1.4200	11.5563	0.150363	0	
1.4207	0.888944	-1.05254	0	
1.4213	-3.6743	-2.30556	0	
1.4220	-7.64491	-2.60629	0	
1.4227	-13.1564	-4.10991	0	
1.4233	-14.9935	-5.96439	0	
1.4240	-10.7266	-4.71136	0	
1.4247	-5.21514	-1.95471	0	
1.4253	-2.48904	-3.50846	0	
1.4260	-2.48904	-5.61354	0	
1.4267	-7.3486	-3.80919	0	
1.4273	-16.5343	-1.95471	0	
1.4280	-23.2311	-3.20774	0	
1.4287	-22.2829	-2.60629	0	
1.4293	-15.2898	-0.451088	0	
1.4300	-7.05229	-1.65399	0	
1.4307	-1.83715	-4.71136	0	
1.4313	-0.355577	-5.96439	0	
1.4320	-0.948206	-5.31281	0	
1.4327	-1.83715	-4.10991	0	
1.4333	-1.24452	-3.20774	0	
1.4340	1.77789	-4.10991	0	
1.4347	5.15587	-4.71136	0	
1.4353	6.69671	-2.90701	0	
1.4360	5.7485	-3.80919	0	
1.4367	3.91135	-6.56584	0	
1.4373	4.56324	-4.41064	0	
1.4380	6.04482	0.150363	0	
1.4387	5.15587	-1.35326	0	
1.4393	3.61504	-4.41064	0	
1.4400	2.0742	-3.80919	0	
1.4407	-0.948206	-2.90701	0	
1.4413	-2.78536	-3.20774	0	
1.4420	-6.45966	-2.60629	0	
1.4427	-12.86	-2.60629	0	
1.4433	-15.5861	-3.50846	0	
1.4440	-11.9118	-4.41064	0	
1.4447	-9.48206	-3.50846	0	
1.4453	-1.83715	-1.95471	0	
1.4460	15.2306	-2.90701	0	
1.4467	28.624	-4.41064	0	
1.4473	34.7281	-2.60629	0	
1.4480	48.7734	-1.05254	0	
1.4487	65.9003	-2.60629	0	
1.4493	62.226	-0.751813	0	
1.4500	44.2101	2.00484	0	
1.4507	33.8391	2.00484	0	
1.4513	17.364	1.05254	0	
1.4520	-21.0976	0.150363	0	
1.4527	-54.0478	-1.65399	0	
1.4533	-61.0408	-0.751813	0	
1.4540	-54.9367	1.05254	0	
1.4547	-46.4029	-1.65399	0	
1.4553	-34.8466	-5.31281	0	
1.4560	-27.2017	-3.50846	0	
1.4567	-24.4756	-0.150363	0	
1.4573	-19.5568	0.150363	0	
1.4580	-11.9118	0.150363	0	
1.4587	0.888944	0.150363	0	
1.4593	21.9273	-1.65399	0	
1.4600	42.373	-1.35326	0	
1.4607	60.6852	2.00484	0	
1.4613	77.1603	2.90701	0	
1.4620	69.871	0.751813	0	
1.4627	24.7126	-1.05254	0	
1.4633	-21.9865	-1.05254	0	
1.4640	-34.8466	-2.90701	0	
1.4647	-32.3575	-5.61354	0	
1.4653	-36.3282	-6.26511	0	
1.4660	-37.5727	-5.31281	0	
1.4667	-34.8466	-3.80919	0	
1.4673	-34.491	-1.35326	0	
1.4680	-30.2241	-1.05254	0	
1.4687	-16.5343	-4.10991	0	
1.4693	-2.78536	-4.10991	0	
1.4700	6.40039	0.751813	0	
1.4707	11.5563	1.40338	0	
1.4713	11.8526	-1.65399	0	
1.4720	7.88197	-1.05254	0	
1.4727	1.77789	1.05254	0	
1.4733	-6.16334	1.05254	0	
1.4740	-11.0229	1.70411	0	
1.4747	-8.29681	1.05254	0	
1.4753	-4.02988	-1.65399	0	
1.4760	-6.75597	-0.451088	0	
1.4767	-13.1564	3.50846	0	
1.4773	-16.1788	3.80919	0	
1.4780	-13.4527	3.50846	0	
1.4787	-8.29681	4.41064	0	
1.4793	-3.6743	3.50846	0	
1.4800	-0.0592629	2.30556	0	
1.4807	-0.0592629	1.05254	0	
1.4813	-5.21514	-0.150363	0	
1.4820	-8.29681	2.00484	0	
1.4827	-4.91882	3.80919	0	
1.4833	-0.651892	1.05254	0	
1.4840	2.42978	0.451088	0	
1.4847	5.15587	5.06221	0	
1.4853	4.56324	5.36294	0	
1.4860	3.31872	2.60629	0	
1.4867	5.45219	3.20774	0	
1.4873	6.99302	2.00484	0	
1.4880	6.40039	-2.60629	0	
1.4887	8.53386	-2.90701	0	
1.4893	13.6897	-1.05254	0	
1.4900	17.9567	-2.60629	0	
1.4907	22.2236	-5.01209	0	
1.4913	27.4387	-4.41064	0	
1.4920	30.1648	-2.90701	0	
1.4927	28.0314	-2.60629	0	
1.4933	22.8755	-3.50846	0	
1.4940	18.253	-2.90701	0	
1.4947	15.5269	-1.65399	0	
1.4953	12.8008	-0.751813	0	
1.4960	10.0154	-0.451088	0	
1.4967	11.5563	-0.751813	0	
1.4973	17.364	-1.65399	0	
1.4980	21.3346	-0.150363	0	
1.4987	17.364	1.40338	0	
1.4993	9.12649	0.751813	0	
1.5000	9.12649	0.150363	0	
1.5007	12.1489	1.05254	0	
1.5013	-2.78536	1.40338	0	
1.5020	-25.3645	2.30556	0	
1.5027	-29.3351	2.60629	0	
1.5033	-21.9865	-0.150363	0	
1.5040	-17.4233	-1.65399	0	
1.5047	-7.64491	-0.150363	0	
1.5053	1.48157	0.150363	0	
1.5060	-1.83715	-0.150363	0	
1.5067	-4.91882	1.40338	0	
1.5073	-2.48904	2.00484	0	
1.5080	-1.83715	1.05254	0	
1.5087	-0.355577	-0.150363	0	
1.5093	0.592629	-0.451088	0	
1.5100	-0.651892	2.00484	0	
1.5107	5.15587	5.66366	0	
1.5113	14.2824	7.46801	0	
1.5120	14.6379	4.41064	0	
1.5127	10.9636	-0.751813	0	
1.5133	8.17828	-3.50846	0	
1.5140	3.02241	-1.65399	0	
1.5147	-1.24452	-0.150363	0	
1.5153	-3.6743	-0.751813	0	
1.5160	-7.64491	-0.751813	0	
1.5167	-7.64491	-0.451088	0	
1.5173	-0.651892	-0.751813	0	
1.5180	5.7485	-1.35326	0	
1.5187	6.40039	-1.65399	0	
1.5193	1.77789	-3.20774	0	
1.5200	-7.3486	-3.20774	0	
1.5207	-19.2604	-1.35326	0	
1.5213	-29.9278	-0.751813	0	
1.5220	-34.1947	-2.60629	0	
1.5227	-31.7649	-1.95471	0	
1.5233	-24.7719	0.150363	0	
1.5240	-15.8825	-0.150363	0	
1.5247	-11.0229	-1.05254	0	
1.5253	-15.5861	1.05254	0	
1.5260	-21.0976	1.05254	0	
1.5267	-19.8531	-1.65399	0	
1.5273	-14.6972	-2.60629	0	
1.5280	-8.59312	-0.751813	0	
1.5287	-0.948206	1.05254	0	
1.5293	10.371	0.150363	0	
1.5300	28.3277	-3.20774	0	
1.5307	44.8028	-3.50846	0	
1.5313	49.4253	-0.150363	0	
1.5320	43.0249	0.150363	0	
1.5327	26.8461	-2.30556	0	
1.5333	-0.0592629	-1.05254	0	
1.5340	-25.0682	-0.751813	0	
1.5347	-28.3869	-2.90701	0	
1.5353	-13.749	-1.95471	0	
1.5360	-3.08167	0.751813	0	
1.5367	-2.48904	0.451088	0	
1.5373	-3.08167	0.751813	0	
1.5380	-2.78536	2.60629	0	
1.5387	-3.08167	3.20774	0	
1.5393	0.888944	2.30556	0	
1.5400	6.40039	-0.150363	0	
1.5407	5.7485	-1.05254	0	
1.5413	2.72609	2.30556	0	
1.5420	-1.83715	4.76148	0	
1.5427	-10.4303	1.05254	0	
1.5433	-14.6972	-0.751813	0	
1.5440	-11.9118	2.60629	0	
1.5447	-16.1788	3.20774	0	
1.5453	-25.6608	0.751813	0	
1.5460	-21.9865	1.05254	0	
1.5467	-0.948206	2.00484	0	
1.5473	28.3277	0.751813	0	
1.5480	50.3142	0.751813	0	
1.5487	50.9068	1.05254	0	
1.5493	38.4024	0.150363	0	
1.5500	28.0314	0.150363	0	
1.5507	9.4228	-1.65399	0	
1.5513	-21.9865	-5.31281	0	
1.5520	-40.0025	-4.10991	0	
1.5527	-35.4392	-0.451088	0	
1.5533	-28.3869	-0.751813	0	
1.5540	-29.3351	-1.95471	0	
1.5547	-25.9572	-2.60629	0	
1.5553	-14.4009	-3.50846	0	
1.5560	-5.51145	-2.30556	0	
1.5567	-4.62251	1.05254	0	
1.5573	-5.80776	-0.150363	0	
1.5580	-6.45966	-2.60629	0	
1.5587	-5.21514	-0.751813	0	
1.5593	-0.948206	-0.150363	0	
1.5600	1.77789	-3.80919	0	
1.5607	1.77789	-5.31281	0	
1.5613	9.12649	-2.60629	0	
1.5620	25.6016	-0.751813	0	
1.5627	37.2171	-2.60629	0	
1.5633	33.8391	-2.90701	0	
1.5640	24.7126	-1.95471	0	
1.5647	18.9049	-1.95471	0	
1.5653	11.5563	-1.65399	0	
1.5660	-3.08167	0.150363	0	
1.5667	-22.6384	-1.65399	0	
1.5673	-41.5433	-3.80919	0	
1.5680	-53.1588	-1.65399	0	
1.5687	-51.3217	1.05254	0	
1.5693	-39.1135	-2.60629	0	
1.5700	-20.1494	-5.31281	0	
1.5707	2.72609	-2.60629	0	
1.5713	16.4751	-0.751813	0	
1.5720	14.9343	-1.65399	0	
1.5727	11.8526	-1.35326	0	
1.5733	10.9636	-2.30556	0	
1.5740	8.53386	-4.41064	0	
1.5747	8.83017	-3.50846	0	
1.5753	6.99302	-1.65399	0	
1.5760	-7.05229	-0.451088	0	
1.5767	-19.8531	2.00484	0	
1.5773	-16.8307	3.50846	0	
1.5780	-10.134	2.90701	0	
1.5787	-14.6972	2.00484	0	
1.5793	-21.6902	2.90701	0	
1.5800	-21.9865	4.76148	0	
1.5807	-21.0976	4.76148	0	
1.5813	-23.8237	2.90701	0	
1.5820	-23.2311	2.60629	0	
1.5827	-18.9641	4.76148	0	
1.5833	-14.6972	4.10991	0	
1.5840	-4.62251	1.70411	0	
1.5847	15.5269	1.70411	0	
1.5853	35.6763	1.40338	0	
1.5860	49.4253	0.150363	0	
1.5867	56.122	0.150363	0	
1.5873	53.0403	-0.150363	0	
1.5880	32.9502	-1.65399	0	
1.5887	-1.24452	-0.150363	0	
1.5893	-29.3351	2.00484	0	
1.5900	-32.0612	2.90701	0	
1.5907	-17.4233	2.90701	0	
1.5913	-6.45966	2.30556	0	
1.5920	-5.21514	0.150363	0	
1.5927	-2.78536	-1.65399	0	
1.5933	5.15587	-2.60629	0	
1.5940	14.6379	-1.05254	0	
1.5947	26.1942	0.451088	0	
1.5953	36.5652	-0.150363	0	
1.5960	36.9208	-0.150363	0	
1.5967	33.8391	0.150363	0	
1.5973	35.9726	-1.65399	0	
1.5980	26.4905	-1.65399	0	
1.5987	6.04482	2.00484	0	
1.5993	0.888944	1.70411	0	
1.6000	1.18526	-1.05254	0	
1.6007	-18.0159	0.150363	0	
1.6013	-35.1429	-0.150363	0	
1.6020	-30.2241	-1.95471	0	
1.6027	-21.3939	0.150363	0	
1.6033	-18.3715	1.05254	0	
1.6040	-12.86	-2.60629	0	
1.6047	-8.29681	-3.50846	0	
1.6053	-5.51145	-0.150363	0	
1.6060	-4.02988	-0.751813	0	
1.6067	-4.62251	-1.65399	0	
1.6073	-4.02988	1.40338	0	
1.6080	-0.355577	0.451088	0	
1.6087	2.42978	-4.10991	0	
1.6093	4.56324	-2.60629	0	
1.6100	6.99302	1.05254	0	
1.6107	7.28934	-0.751813	0	
1.6113	7.88197	-2.30556	0	
1.6120	5.7485	-0.751813	0	
1.6127	1.48157	-0.751813	0	
1.6133	0.888944	-0.150363	0	
1.6140	3.02241	2.00484	0	
1.6147	3.02241	2.00484	0	
1.6153	4.56324	0.451088	0	
1.6160	7.58565	-0.451088	0	
1.6167	9.12649	-0.751813	0	
1.6173	10.0154	0.150363	0	
1.6180	5.45219	-0.751813	0	
1.6187	-7.3486	-4.41064	0	
1.6193	-18.0159	-2.90701	0	
1.6200	-17.4233	0.751813	0	
1.6207	-11.3192	1.05254	0	
1.6213	-7.64491	0.451088	0	
1.6220	-7.94123	-0.150363	0	
1.6227	-7.05229	-3.20774	0	
1.6233	-3.08167	-3.50846	0	
1.6240	1.77789	-0.451088	0	
1.6247	7.28934	-1.65399	0	
1.6253	8.53386	-4.41064	0	
1.6260	4.85956	-3.80919	0	
1.6267	2.72609	-2.30556	0	
1.6273	1.18526	-1.65399	0	
1.6280	-3.08167	-1.35326	0	
1.6287	-3.08167	-2.30556	0	
1.6293	-0.0592629	-2.60629	0	
1.6300	-6.45966	-1.65399	0	
1.6307	-18.0159	-0.751813	0	
1.6313	-19.5568	1.05254	0	
1.6320	-13.1564	0.751813	0	
1.6327	-6.45966	-1.65399	0	
1.6333	-0.0592629	-2.60629	0	
1.6340	3.61504	-0.751813	0	
1.6347	3.02241	-0.150363	0	
1.6353	3.61504	-1.05254	0	
1.6360	6.99302	-2.30556	0	
1.6367	6.40039	-0.751813	0	
1.6373	3.02241	2.30556	0	
1.6380	3.02241	-0.451088	0	
1.6387	4.85956	-4.41064	0	
1.6393	3.61504	-1.05254	0	
1.6400	1.77789	3.20774	0	
1.6407	0.888944	0.451088	0	
1.6413	1.18526	-1.95471	0	
1.6420	6.69671	-2.30556	0	
1.6427	16.4751	-3.50846	0	
1.6433	19.4975	-2.60629	0	
1.6440	13.986	0.751813	0	
1.6447	11.26	0.451088	0	
1.6453	13.6897	0.150363	0	
1.6460	11.5563	1.05254	0	
1.6467	3.02241	-0.751813	0	
1.6473	-5.51145	0.150363	0	
1.6480	-11.9118	3.50846	0	
1.6487	-17.4233	2.00484	0	
1.6493	-22.9347	0.150363	0	
1.6500	-26.609	2.30556	0	
1.6507	-25.9572	2.90701	0	
1.6513	-20.1494	2.60629	0	
1.6520	-13.4527	4.41064	0	
1.6527	-11.9118	2.90701	0	
1.6533	-14.6972	-0.451088	0	
1.6540	-13.749	0.751813	0	
1.6547	-9.18575	2.90701	0	
1.6553	-5.51145	3.50846	0	
1.6560	-2.19273	3.50846	0	
1.6567	1.48157	2.90701	0	
1.6573	9.12649	3.50846	0	
1.6580	21.631	3.80919	0	
1.6587	25.6016	2.00484	0	
1.6593	14.2824	2.30556	0	
1.6600	1.18526	4.10991	0	
1.6607	-6.75597	1.40338	0	
1.6613	-17.127	-1.65399	0	
1.6620	-26.609	-1.05254	0	
1.6627	-24.4756	-1.05254	0	
1.6633	-14.6972	0.451088	0	
1.6640	-8.29681	3.80919	0	
1.6647	-5.80776	2.60629	0	
1.6653	-7.3486	-0.150363	0	
1.6660	-13.1564	2.30556	0	
1.6667	-17.4233	4.41064	0	
1.6673	-15.2898	2.30556	0	
1.6680	-7.3486	1.70411	0	
1.6687	3.61504	3.50846	0	
1.6693	14.2824	4.41064	0	
1.6700	21.9273	3.80919	0	
1.6707	29.8685	2.00484	0	
1.6713	34.4317	0.751813	0	
1.6720	32.9502	1.40338	0	
1.6727	31.7057	1.40338	0	
1.6733	29.5722	1.70411	0	
1.6740	15.5269	3.80919	0	
1.6747	-2.19273	3.80919	0	
1.6753	-9.18575	2.00484	0	
1.6760	-9.48206	2.90701	0	
1.6767	-4.91882	4.41064	0	
1.6773	3.61504	2.60629	0	
1.6780	-5.21514	1.05254	0	
1.6787	-35.7355	1.05254	0	
1.6793	-56.4775	1.70411	0	
1.6800	-53.1588	4.76148	0	
1.6807	-42.1359	7.16729	0	
1.6813	-34.1947	5.66366	0	
1.6820	-27.498	3.80919	0	
1.6827	-19.8531	1.40338	0	
1.6833	-12.5637	-0.150363	0	
1.6840	-7.94123	1.40338	0	
1.6847	-5.80776	2.90701	0	
1.6853	-2.19273	0.451088	0	
1.6860	0.592629	-0.150363	0	
1.6867	0.296315	0.751813	0	
1.6873	3.31872	-1.05254	0	
1.6880	8.53386	-2.60629	0	
1.6887	11.26	-0.751813	0	
1.6893	11.5563	0.751813	0	
1.6900	10.371	1.70411	0	
1.6907	7.88197	2.30556	0	
1.6913	7.28934	1.05254	0	
1.6920	8.17828	-1.05254	0	
1.6927	7.88197	-1.35326	0	
1.6933	6.04482	-0.150363	0	
1.6940	6.40039	1.40338	0	
1.6947	8.17828	1.70411	0	
1.6953	9.12649	0.451088	0	
1.6960	6.99302	1.05254	0	
1.6967	5.45219	2.00484	0	
1.6973	6.40039	0.150363	0	
1.6980	8.53386	-1.65399	0	
1.6987	10.6673	-0.751813	0	
1.6993	10.0154	0.451088	0	
1.7000	6.99302	0.150363	0	
1.7007	5.45219	-0.751813	0	
1.7013	2.72609	-1.65399	0	
1.7020	-3.08167	-2.30556	0	
1.7027	-5.21514	-2.90701	0	
1.7033	-0.948206	-1.65399	0	
1.7040	-0.651892	0.451088	0	
1.7047	-3.6743	-1.65399	0	
1.7053	-0.651892	-5.31281	0	
1.7060	5.7485	-3.80919	0	
1.7067	15.5269	-1.05254	0	
1.7073	34.7281	-0.751813	0	
1.7080	49.4253	-0.751813	0	
1.7087	41.7803	-0.751813	0	
1.7093	25.8979	-0.451088	0	
1.7100	17.9567	0.150363	0	
1.7107	10.371	-0.451088	0	
1.7113	4.56324	-3.50846	0	
1.7120	10.0154	-5.61354	0	
1.7127	18.253	-5.61354	0	
1.7133	23.7644	-3.80919	0	
1.7140	28.9796	-1.65399	0	
1.7147	32.2983	-0.451088	0	
1.7153	35.6763	-0.751813	0	
1.7160	40.5358	-2.60629	0	
1.7167	39.3506	-3.80919	0	
1.7173	29.2759	-2.60629	0	
1.7180	17.0677	-1.05254	0	
1.7187	1.18526	-0.751813	0	
1.7193	-15.8825	0.150363	0	
1.7200	-26.609	0.150363	0	
1.7207	-33.6021	-1.05254	0	
1.7213	-37.869	-1.65399	0	
1.7220	-37.5727	-4.10991	0	
1.7227	-43.9731	-7.46801	0	
1.7233	-60.1518	-6.56584	0	
1.7240	-62.8779	-2.60629	0	
1.7247	-42.4322	-2.60629	0	
1.7253	-15.5861	-5.01209	0	
1.7260	2.72609	-4.10991	0	
1.7267	9.4228	-1.35326	0	
1.7273	10.9636	-2.60629	0	
1.7280	7.58565	-5.31281	0	
1.7287	-9.18575	-2.60629	0	
1.7293	-31.7649	0.751813	0	
1.7300	-36.3282	-2.60629	0	
1.7307	-23.2311	-6.86656	0	
1.7313	-13.749	-5.31281	0	
1.7320	-10.134	-3.80919	0	
1.7327	-4.62251	-6.26511	0	
1.7333	-0.948206	-6.86656	0	
1.7340	-4.02988	-5.31281	0	
1.7347	-5.51145	-6.56584	0	
1.7353	-0.651892	-7.16729	0	
1.7360	1.77789	-6.56584	0	
1.7367	-1.54084	-7.76874	0	
1.7373	-1.83715	-6.56584	0	
1.7380	0.592629	-2.30556	0	
1.7387	-1.83715	-0.150363	0	
1.7393	-6.45966	-0.451088	0	
1.7400	-8.29681	-0.150363	0	
1.7407	-8.59312	-1.05254	0	
1.7413	-8.29681	-1.95471	0	
1.7420	-6.45966	-0.451088	0	
1.7427	-3.6743	0.150363	0	
1.7433	0.888944	-0.751813	0	
1.7440	10.0154	-1.95471	0	
1.7447	23.1718	-1.95471	0	
1.7453	34.7281	-0.751813	0	
1.7460	34.4317	-0.150363	0	
1.7467	23.1718	-2.30556	0	
1.7473	12.8008	-2.30556	0	
1.7480	4.85956	1.05254	0	
1.7487	-3.6743	2.00484	0	
1.7493	-6.45966	-1.05254	0	
1.7500	-5.51145	-1.95471	0	
1.7507	-5.80776	-1.05254	0	
1.7513	-5.80776	-2.30556	0	
1.7520	-7.94123	-3.80919	0	
1.7527	-14.9935	-4.41064	0	
1.7533	-18.9641	-4.41064	0	
1.7540	-13.749	-2.90701	0	
1.7547	-6.16334	-1.95471	0	
1.7553	-0.948206	-2.60629	0	
1.7560	3.91135	-1.95471	0	
1.7567	11.26	-1.65399	0	
1.7573	22.8755	-4.10991	0	
1.7580	35.38	-3.80919	0	
1.7587	39.6469	-0.751813	0	
1.7593	33.8391	-0.451088	0	
1.7600	27.4387	0.150363	0	
1.7607	24.0607	2.00484	0	
1.7613	17.6603	-0.150363	0	
1.7620	4.56324	-1.95471	0	
1.7627	-8.59312	0.451088	0	
1.7633	-12.86	-0.150363	0	
1.7640	-7.64491	-3.20774	0	
1.7647	-3.08167	-1.95471	0	
1.7653	-4.62251	-0.751813	0	
1.7660	-6.45966	-1.65399	0	
1.7667	-6.16334	0.150363	0	
1.7673	-6.45966	2.90701	0	
1.7680	-4.02988	2.30556	0	
1.7687	-0.948206	1.70411	0	
1.7693	-1.83715	2.00484	0	
1.7700	-2.78536	2.00484	0	
1.7707	-1.83715	1.70411	0	
1.7713	-8.29681	2.00484	0	
1.7720	-19.2604	2.00484	0	
1.7727	-20.8013	2.90701	0	
1.7733	-19.5568	2.60629	0	
1.7740	-30.2241	1.70411	0	
1.7747	-42.4322	1.70411	0	
1.7753	-40.9507	3.50846	0	
1.7760	-30.2241	4.41064	0	
1.7767	-17.127	4.41064	0	
1.7773	-1.24452	3.80919	0	
1.7780	12.8008	3.20774	0	
1.7787	21.0383	4.76148	0	
1.7793	24.3571	4.76148	0	
1.7800	18.9049	2.00484	0	
1.7807	8.17828	1.40338	0	
1.7813	-0.948206	3.50846	0	
1.7820	-11.0229	2.90701	0	
1.7827	-21.3939	2.00484	0	
1.7833	-20.1494	2.90701	0	
1.7840	-10.134	2.60629	0	
1.7847	-7.05229	2.00484	0	
1.7853	-7.05229	3.50846	0	
1.7860	-4.02988	3.20774	0	
1.7867	-4.91882	2.30556	0	
1.7873	-8.29681	3.50846	0	
1.7880	-5.80776	3.50846	0	
1.7887	-4.62251	1.70411	0	
1.7893	-7.3486	2.00484	0	
1.7900	-4.32619	3.80919	0	
1.7907	3.31872	3.80919	0	
1.7913	9.71912	1.05254	0	
1.7920	19.2012	1.70411	0	
1.7927	28.624	3.80919	0	
1.7933	30.4611	3.80919	0	
1.7940	30.8167	2.90701	0	
1.7947	34.7281	2.30556	0	
1.7953	28.3277	-0.751813	0	
1.7960	2.72609	-3.20774	0	
1.7967	-21.0976	-3.50846	0	
1.7973	-23.5274	-5.01209	0	
1.7980	-13.749	-5.31281	0	
1.7987	-7.94123	-2.90701	0	
1.7993	-5.51145	-1.95471	0	
1.8000	-3.6743	-1.95471	0	
1.8007	-2.19273	-0.751813	0	
1.8013	4.26693	-0.451088	0	
1.8020	11.8526	-1.65399	0	
1.8027	10.9636	-1.95471	0	
1.8033	6.99302	-2.90701	0	
1.8040	7.28934	-3.50846	0	
1.8047	7.28934	-1.35326	0	
1.8053	6.40039	0.751813	0	
1.8060	5.45219	-1.05254	0	
1.8067	-1.24452	-3.50846	0	
1.8073	-9.77838	-0.751813	0	
1.8080	-9.48206	3.20774	0	
1.8087	-7.64491	2.30556	0	
1.8093	-8.88944	-0.751813	0	
1.8100	-1.83715	-0.451088	0	
1.8107	10.9636	-0.751813	0	
1.8113	15.2306	-2.60629	0	
1.8120	14.6379	-0.751813	0	
1.8127	19.7938	-0.451088	0	
1.8133	23.1718	-1.95471	0	
1.8140	22.8755	0.451088	0	
1.8147	28.624	3.50846	0	
1.8153	33.8391	-0.150363	0	
1.8160	25.6016	-3.50846	0	
1.8167	13.986	-1.35326	0	
1.8173	4.85956	0.751813	0	
1.8180	-11.9118	2.00484	0	
1.8187	-30.5797	3.20774	0	
1.8193	-39.4098	3.80919	0	
1.8200	-47.3511	2.90701	0	
1.8207	-55.8849	2.90701	0	
1.8213	-51.618	2.00484	0	
1.8220	-32.3575	0.451088	0	
1.8227	-13.4527	0.451088	0	
1.8233	-4.32619	2.00484	0	
1.8240	-0.948206	4.41064	0	
1.8247	-0.0592629	4.41064	0	
1.8253	-9.18575	2.90701	0	
1.8260	-19.2604	2.30556	0	
1.8267	-11.0229	1.40338	0	
1.8273	6.99302	-0.751813	0	
1.8280	10.0154	-1.05254	0	
1.8287	2.72609	-0.451088	0	
1.8293	-2.78536	-1.95471	0	
1.8300	-10.4303	-1.65399	0	
1.8307	-16.5343	-0.751813	0	
1.8313	-12.86	-3.20774	0	
1.8320	-6.16334	-4.41064	0	
1.8327	-0.355577	-1.95471	0	
1.8333	5.45219	-0.751813	0	
1.8340	7.28934	-0.751813	0	
1.8347	6.99302	-0.751813	0	
1.8353	8.83017	-2.60629	0	
1.8360	9.12649	-3.80919	0	
1.8367	7.28934	-2.60629	0	
1.8373	8.83017	-3.50846	0	
1.8380	10.6673	-5.61354	0	
1.8387	8.17828	-4.41064	0	
1.8393	7.58565	-3.50846	0	
1.8400	10.371	-4.41064	0	
1.8407	9.12649	-4.41064	0	
1.8413	4.85956	-3.50846	0	
1.8420	5.15587	-3.20774	0	
1.8427	7.28934	-4.41064	0	
1.8433	7.88197	-5.31281	0	
1.8440	8.53386	-4.41064	0	
1.8447	9.71912	-3.20774	0	
1.8453	10.0154	-3.20774	0	
1.8460	10.9636	-1.35326	0	
1.8467	11.26	1.05254	0	
1.8473	10.6673	-0.150363	0	
1.8480	11.26	-2.60629	0	
1.8487	12.1489	-1.95471	0	
1.8493	8.53386	-0.150363	0	
1.8500	0.592629	0.150363	0	
1.8507	-6.16334	-1.05254	0	
1.8513	-7.94123	-1.65399	0	
1.8520	-4.62251	0.451088	0	
1.8527	0.888944	1.05254	0	
1.8533	4.56324	-1.65399	0	
1.8540	4.85956	-1.95471	0	
1.8547	3.61504	-0.751813	0	
1.8553	3.91135	-1.05254	0	
1.8560	4.56324	-0.451088	0	
1.8567	3.91135	1.40338	0	
1.8573	8.17828	0.150363	0	
1.8580	17.364	-1.65399	0	
1.8587	20.0901	-0.751813	0	
1.8593	18.253	-1.05254	0	
1.8600	17.9567	-2.60629	0	
1.8607	14.9343	-1.35326	0	
1.8613	7.58565	-0.451088	0	
1.8620	2.72609	-1.35326	0	
1.8627	0.592629	-1.65399	0	
1.8633	-3.6743	-1.65399	0	
1.8640	-12.86	-2.30556	0	
1.8647	-28.7425	-0.451088	0	
1.8653	-39.1135	2.00484	0	
1.8660	-33.8984	1.05254	0	
1.8667	-21.9865	-0.751813	0	
1.8673	-10.4303	1.05254	0	
1.8680	-0.0592629	1.05254	0	
1.8687	-0.0592629	-1.95471	0	
1.8693	-8.59312	-1.95471	0	
1.8700	-13.749	1.70411	0	
1.8707	-14.9935	2.00484	0	
1.8713	-11.6155	-1.65399	0	
1.8720	4.56324	-2.90701	0	
1.8727	19.2012	-0.751813	0	
1.8733	18.9049	-1.05254	0	
1.8740	17.364	-4.41064	0	
1.8747	18.6086	-5.01209	0	
1.8753	6.99302	-2.90701	0	
1.8760	-8.88944	-2.60629	0	
1.8767	-12.2674	-4.10991	0	
1.8773	-10.7266	-4.41064	0	
1.8780	-14.9935	-2.30556	0	
1.8787	-23.8237	0.150363	0	
1.8793	-33.0094	-0.451088	0	
1.8800	-36.6837	-0.751813	0	
1.8807	-34.8466	-0.150363	0	
1.8813	-33.6021	-0.751813	0	
1.8820	-34.491	-0.751813	0	
1.8827	-33.8984	1.05254	0	
1.8833	-30.2241	-0.451088	0	
1.8840	-22.9347	-4.41064	0	
1.8847	-14.0453	-3.80919	0	
1.8853	-7.3486	-1.65399	0	
1.8860	-2.78536	-3.50846	0	
1.8867	-0.355577	-5.01209	0	
1.8873	2.72609	-2.60629	0	
1.8880	7.58565	-0.451088	0	
1.8887	10.6673	-1.05254	0	
1.8893	8.17828	-0.751813	0	
1.8900	4.56324	1.05254	0	
1.8907	1.77789	1.70411	0	
1.8913	0.888944	0.751813	0	
1.8920	0.296315	2.60629	0	
1.8927	-1.54084	5.06221	0	
1.8933	-1.24452	3.80919	0	
1.8940	7.28934	0.451088	0	
1.8947	23.7644	-0.751813	0	
1.8953	40.2395	-0.751813	0	
1.8960	45.751	0.451088	0	
1.8967	38.4024	2.90701	0	
1.8973	22.8755	3.20774	0	
1.8980	0.592629	2.30556	0	
1.8987	-20.505	1.05254	0	
1.8993	-22.9347	-1.35326	0	
1.9000	-8.59312	-3.50846	0	
1.9007	2.42978	-4.71136	0	
1.9013	6.99302	-4.10991	0	
1.9020	10.9636	-0.751813	0	
1.9027	10.0154	0.150363	0	
1.9033	7.58565	-1.95471	0	
1.9040	12.8008	-2.30556	0	
1.9047	22.8755	-2.30556	0	
1.9053	33.8391	-3.80919	0	
1.9060	40.2395	-4.10991	0	
1.9067	27.735	-2.30556	0	
1.9073	-2.48904	-0.751813	0	
1.9080	-26.609	1.05254	0	
1.9087	-33.8984	3.50846	0	
1.9093	-31.4686	2.60629	0	
1.9100	-27.498	-0.751813	0	
1.9107	-26.9054	-1.35326	0	
1.9113	-31.7649	1.70411	0	
1.9120	-34.491	1.40338	0	
1.9127	-28.3869	-1.05254	0	
1.9133	-20.1494	0.451088	0	
1.9140	-18.9641	3.50846	0	
1.9147	-17.4233	1.05254	0	
1.9153	-7.3486	-2.60629	0	
1.9160	6.99302	-2.30556	0	
1.9167	20.0901	-1.05254	0	
1.9173	32.002	-1.95471	0	
1.9180	37.2171	-2.60629	0	
1.9187	39.3506	-1.65399	0	
1.9193	40.5358	-0.751813	0	
1.9200	26.4905	-1.95471	0	
1.9207	-0.948206	-3.50846	0	
1.9213	-15.8825	-1.65399	0	
1.9220	-14.0453	1.70411	0	
1.9227	-9.77838	1.70411	0	
1.9233	-5.21514	1.05254	0	
1.9240	-2.19273	0.751813	0	
1.9247	-2.78536	-0.751813	0	
1.9253	-2.78536	0.150363	0	
1.9260	-2.48904	1.70411	0	
1.9267	-5.51145	-1.65399	0	
1.9273	-10.4303	-5.01209	0	
1.9280	-15.8825	-2.30556	0	
1.9287	-19.5568	0.451088	0	
1.9293	-21.0976	0.751813	0	
1.9300	-24.7719	0.451088	0	
1.9307	-24.7719	-2.60629	0	
1.9313	-18.3715	-4.41064	0	
1.9320	-14.6972	-1.65399	0	
1.9327	-16.5343	-1.05254	0	
1.9333	-18.6678	-3.50846	0	
1.9340	-18.0159	-1.05254	0	
1.9347	-6.75597	2.00484	0	
1.9353	8.53386	0.150363	0	
1.9360	11.5563	-2.30556	0	
1.9367	9.4228	0.150363	0	
1.9373	14.6379	2.60629	0	
1.9380	15.5269	1.05254	0	
1.9387	8.53386	-1.35326	0	
1.9393	4.26693	0.150363	0	
1.9400	2.42978	2.00484	0	
1.9407	1.77789	0.751813	0	
1.9413	4.56324	-1.05254	0	
1.9420	7.28934	-1.95471	0	
1.9427	10.371	-3.50846	0	
1.9433	13.6897	-3.20774	0	
1.9440	9.4228	-1.05254	0	
1.9447	1.77789	0.751813	0	
1.9453	0.592629	3.20774	0	
1.9460	0.888944	3.20774	0	
1.9467	-3.37799	-0.150363	0	
1.9473	-7.3486	-1.05254	0	
1.9480	-7.3486	0.150363	0	
1.9487	-5.80776	-1.35326	0	
1.9493	-2.78536	-0.150363	0	
1.9500	2.72609	3.80919	0	
1.9507	10.0154	4.76148	0	
1.9513	20.742	3.80919	0	
1.9520	38.106	3.80919	0	
1.9527	51.855	2.00484	0	
1.9533	46.3436	0.751813	0	
1.9540	29.2759	2.90701	0	
1.9547	19.2012	5.06221	0	
1.9553	10.9636	5.36294	0	
1.9560	-4.62251	5.96439	0	
1.9567	-16.8307	6.26511	0	
1.9573	-19.8531	4.76148	0	
1.9580	-23.2311	2.00484	0	
1.9587	-31.7649	1.40338	0	
1.9593	-42.1359	2.30556	0	
1.9600	-47.6474	0.150363	0	
1.9607	-41.247	-4.10991	0	
1.9613	-30.876	-4.10991	0	
1.9620	-21.0976	-1.65399	0	
1.9627	-3.6743	-2.90701	0	
1.9633	21.9273	-4.10991	0	
1.9640	46.0473	-1.95471	0	
1.9647	62.226	-0.751813	0	
1.9653	66.7893	-1.05254	0	
1.9660	61.2778	0.451088	0	
1.9667	42.373	2.00484	0	
1.9673	-1.83715	0.150363	0	
1.9680	-45.5139	-4.41064	0	
1.9687	-43.9731	-6.26511	0	
1.9693	-13.1564	-5.01209	0	
1.9700	4.26693	-4.71136	0	
1.9707	10.9636	-4.71136	0	
1.9713	18.6086	-3.50846	0	
1.9720	17.6603	-2.30556	0	
1.9727	10.9636	-0.751813	0	
1.9733	6.04482	2.30556	0	
1.9740	-5.51145	2.00484	0	
1.9747	-22.9347	0.150363	0	
1.9753	-32.3575	1.70411	0	
1.9760	-30.2241	3.20774	0	
1.9767	-23.8237	1.70411	0	
1.9773	-19.2604	0.451088	0	
1.9780	-14.4009	0.451088	0	
1.9787	-5.51145	0.451088	0	
1.9793	5.45219	0.150363	0	
1.9800	15.5269	0.150363	0	
1.9807	22.8755	1.40338	0	
1.9813	21.9273	2.60629	0	
1.9820	17.0677	1.70411	0	
1.9827	12.8008	0.150363	0	
1.9833	5.15587	-0.751813	0	
1.9840	-4.62251	-1.35326	0	
1.9847	-11.0229	0.150363	0	
1.9853	-19.2604	2.60629	0	
1.9860	-27.498	2.00484	0	
1.9867	-23.8237	-0.751813	0	
1.9873	-5.21514	0.150363	0	
1.9880	14.9343	2.60629	0	
1.9887	19.2012	2.00484	0	
1.9893	7.88197	-0.751813	0	
1.9900	-0.948206	-1.35326	0	
1.9907	1.18526	1.05254	0	
1.9913	3.02241	3.50846	0	
1.9920	2.0742	3.80919	0	
1.9927	6.40039	3.80919	0	
1.9933	9.12649	4.76148	0	
1.9940	4.56324	4.41064	0	
1.9947	-0.355577	2.00484	0	
1.9953	-0.948206	0.150363	0	
1.9960	-0.651892	1.70411	0	
1.9967	-2.78536	2.30556	0	
1.9973	-9.18575	-0.150363	0	
1.9980	-15.8825	-2.60629	0	
1.9987	-17.4233	-2.90701	0	
1.9993	-14.0453	-0.751813	0	
2.0000	-8.88944	1.05254	0	
2.0007	-2.78536	1.05254	0	
2.0013	-0.0592629	-0.150363	0	
2.0020	-0.948206	0.150363	0	
2.0027	-0.651892	-0.751813	0	
2.0033	4.56324	-2.90701	0	
2.0040	10.0154	-2.30556	0	
2.0047	11.8526	1.40338	0	
2.0053	9.71912	2.30556	0	
2.0060	6.40039	0.451088	0	
2.0067	5.45219	-0.150363	0	
2.0073	4.56324	-1.35326	0	
2.0080	1.77789	-2.60629	0	
2.0087	-2.19273	-1.95471	0	
2.0093	-8.29681	-1.05254	0	
2.0100	-11.9118	-1.65399	0	
2.0107	-9.18575	-1.35326	0	
2.0113	-4.02988	-0.751813	0	
2.0120	-4.02988	-1.35326	0	
2.0127	-5.80776	-0.751813	0	
2.0133	-5.51145	0.150363	0	
2.0140	-7.3486	-0.751813	0	
2.0147	-10.4303	0.451088	0	
2.0153	-7.3486	1.70411	0	
2.0160	0.888944	-0.751813	0	
2.0167	10.0154	-1.35326	0	
2.0173	20.3864	2.00484	0	
2.0180	25.6016	1.05254	0	
2.0187	22.5199	-0.451088	0	
2.0193	19.4975	3.20774	0	
2.0200	12.1489	3.20774	0	
2.0207	-8.29681	-2.60629	0	
2.0213	-24.7719	-3.50846	0	
2.0220	-17.4233	0.451088	0	
2.0227	7.88197	1.05254	0	
2.0233	34.1354	-0.150363	0	
2.0240	50.3142	0.451088	0	
2.0247	52.1514	1.40338	0	
2.0253	38.4024	0.751813	0	
2.0260	7.58565	0.150363	0	
2.0267	-25.6608	1.05254	0	
2.0273	-34.8466	1.70411	0	
2.0280	-20.1494	1.05254	0	
2.0287	-8.29681	1.40338	0	
2.0293	-10.4303	1.40338	0	
2.0300	-14.0453	-1.05254	0	
2.0307	-6.45966	-1.05254	0	
2.0313	7.58565	1.05254	0	
2.0320	10.6673	-1.35326	0	
2.0327	1.18526	-2.60629	0	
2.0333	-10.134	0.751813	0	
2.0340	-26.609	1.70411	0	
2.0347	-42.4322	0.751813	0	
2.0353	-43.0841	1.05254	0	
2.0360	-33.0094	-1.35326	0	
2.0367	-27.2017	-4.41064	0	
2.0373	-25.0682	-2.30556	0	
2.0380	-21.9865	-1.95471	0	
2.0387	-17.4233	-5.01209	0	
2.0393	-13.749	-3.80919	0	
2.0400	-11.9118	-1.65399	0	
2.0407	-6.16334	-3.20774	0	
2.0413	5.45219	-3.50846	0	
2.0420	13.0971	-3.20774	0	
2.0427	15.5269	-5.01209	0	
2.0433	16.7714	-5.96439	0	
2.0440	15.8232	-5.31281	0	
2.0447	15.2306	-3.80919	0	
2.0453	16.1195	-2.60629	0	
2.0460	10.6673	-3.80919	0	
2.0467	-0.0592629	-4.10991	0	
2.0473	-7.3486	0.150363	0	
2.0480	-17.4233	2.30556	0	
2.0487	-28.3869	0.150363	0	
2.0493	-26.609	-0.150363	0	
2.0500	-12.2674	0.150363	0	
2.0507	0.296315	0.150363	0	
2.0513	4.56324	2.00484	0	
2.0520	2.72609	2.60629	0	
2.0527	1.77789	-0.451088	0	
2.0533	6.40039	-1.65399	0	
2.0540	10.0154	-0.751813	0	
2.0547	8.53386	-0.751813	0	
2.0553	5.7485	-1.05254	0	
2.0560	3.61504	-1.35326	0	
2.0567	4.85956	-1.95471	0	
2.0573	16.4751	0.150363	0	
2.0580	32.9502	1.70411	0	
2.0587	39.6469	-1.65399	0	
2.0593	40.2395	-3.50846	0	
2.0600	40.5358	-0.751813	0	
2.0607	32.002	-1.65399	0	
2.0613	17.6603	-6.26511	0	
2.0620	14.2824	-5.61354	0	
2.0627	18.253	-1.65399	0	
2.0633	12.8008	-1.35326	0	
2.0640	-0.948206	-1.95471	0	
2.0647	-15.8825	-1.05254	0	
2.0653	-33.6021	-1.65399	0	
2.0660	-43.9731	-4.41064	0	
2.0667	-38.1653	-5.61354	0	
2.0673	-24.7719	-4.71136	0	
2.0680	-15.8825	-3.50846	0	
2.0687	-11.3192	-3.50846	0	
2.0693	-5.51145	-4.10991	0	
2.0700	-0.355577	-3.20774	0	
2.0707	2.72609	-1.95471	0	
2.0713	5.45219	-2.90701	0	
2.0720	8.17828	-2.60629	0	
2.0727	6.99302	-1.05254	0	
2.0733	3.61504	-1.05254	0	
2.0740	1.18526	0.150363	0	
2.0747	-3.6743	2.00484	0	
2.0753	-9.77838	-0.751813	0	
2.0760	-10.134	-2.90701	0	
2.0767	-9.77838	-0.751813	0	
2.0773	-14.0453	-2.60629	0	
2.0780	-17.7196	-5.96439	0	
2.0787	-19.2604	-1.65399	0	
2.0793	-19.2604	0.751813	0	
2.0800	-17.127	-4.41064	0	
2.0807	-14.0453	-5.96439	0	
2.0813	-13.1564	-3.50846	0	
2.0820	-8.29681	-5.31281	0	
2.0827	2.0742	-5.96439	0	
2.0833	15.2306	-2.90701	0	
2.0840	31.113	-2.60629	0	
2.0847	42.373	-4.10991	0	
2.0853	43.0249	-3.50846	0	
2.0860	34.7281	-1.35326	0	
2.0867	17.364	-0.751813	0	
2.0873	-8.88944	-3.50846	0	
2.0880	-27.7943	-5.31281	0	
2.0887	-26.609	-2.30556	0	
2.0893	-13.4527	-0.751813	0	
2.0900	-2.78536	-2.30556	0	
2.0907	6.40039	-1.35326	0	
2.0913	21.0383	-0.751813	0	
2.0920	37.8097	-2.30556	0	
2.0927	45.1583	-0.150363	0	
2.0933	43.0249	2.30556	0	
2.0940	38.106	1.40338	0	
2.0947	29.2759	2.00484	0	
2.0953	15.5269	4.10991	0	
2.0960	-1.24452	2.90701	0	
2.0967	-18.3715	2.60629	0	
2.0973	-29.0388	4.10991	0	
2.0980	-33.6021	2.90701	0	
2.0987	-44.9213	1.05254	0	
2.0993	-61.6927	0.150363	0	
2.1000	-67.7968	-0.451088	0	
2.1007	-60.1518	2.00484	0	
2.1013	-45.5139	3.80919	0	
2.1020	-26.9054	2.00484	0	
2.1027	-12.86	1.05254	0	
2.1033	-10.134	1.40338	0	
2.1040	-10.7266	-1.05254	0	
2.1047	-8.59312	-2.30556	0	
2.1053	-10.7266	-0.751813	0	
2.1060	-15.5861	0.150363	0	
2.1067	-15.5861	1.40338	0	
2.1073	-12.86	2.30556	0	
2.1080	-10.134	0.150363	0	
2.1087	-0.651892	-0.451088	0	
2.1093	14.9343	1.40338	0	
2.1100	33.5428	1.40338	0	
2.1107	58.8481	2.00484	0	
2.1113	77.8122	5.06221	0	
2.1120	70.4636	4.41064	0	
2.1127	53.9885	1.05254	0	
2.1133	47.5881	2.00484	0	
2.1140	28.0314	2.90701	0	
2.1147	-12.2674	2.00484	0	
2.1153	-37.2764	0.451088	0	
2.1160	-35.7355	-0.751813	0	
2.1167	-27.7943	-0.751813	0	
2.1173	-23.8237	2.00484	0	
2.1180	-24.7719	2.30556	0	
2.1187	-29.0388	-2.30556	0	
2.1193	-25.6608	-4.41064	0	
2.1200	-17.4233	-1.65399	0	
2.1207	-13.749	-1.65399	0	
2.1213	-10.7266	-3.80919	0	
2.1220	-2.48904	-2.60629	0	
2.1227	3.31872	0.150363	0	
2.1233	4.26693	0.751813	0	
2.1240	3.91135	0.150363	0	
2.1247	2.72609	0.150363	0	
2.1253	0.888944	1.05254	0	
2.1260	1.18526	2.30556	0	
2.1267	1.18526	1.40338	0	
2.1273	0.592629	0.150363	0	
2.1280	2.72609	0.751813	0	
2.1287	6.04482	1.40338	0	
2.1293	7.28934	1.05254	0	
2.1300	8.83017	1.70411	0	
2.1307	10.0154	2.30556	0	
2.1313	7.88197	1.70411	0	
2.1320	5.45219	0.150363	0	
2.1327	4.85956	-0.150363	0	
2.1333	0.888944	1.05254	0	
2.1340	-2.78536	2.30556	0	
2.1347	0.888944	2.60629	0	
2.1353	6.40039	1.70411	0	
2.1360	8.17828	-0.150363	0	
2.1367	10.371	-1.65399	0	
2.1373	13.3934	-1.05254	0	
2.1380	13.3934	0.150363	0	
2.1387	9.71912	2.00484	0	
2.1393	4.56324	3.80919	0	
2.1400	4.85956	2.30556	0	
2.1407	10.371	-0.451088	0	
2.1413	11.8526	0.150363	0	
2.1420	9.12649	2.30556	0	
2.1427	10.0154	2.00484	0	
2.1433	10.0154	2.00484	0	
2.1440	6.69671	0.150363	0	
2.1447	7.28934	-3.20774	0	
2.1453	9.12649	-3.50846	0	
2.1460	5.45219	-2.60629	0	
2.1467	0.592629	-4.41064	0	
2.1473	-4.91882	-5.31281	0	
2.1480	-15.8825	-5.01209	0	
2.1487	-25.9572	-4.41064	0	
2.1493	-24.12	-1.05254	0	
2.1500	-17.7196	3.20774	0	
2.1507	-16.1788	2.30556	0	
2.1513	-13.749	-1.35326	0	
2.1520	-12.5637	-2.60629	0	
2.1527	-16.5343	-3.20774	0	
2.1533	-11.0229	-3.80919	0	
2.1540	12.8008	-1.05254	0	
2.1547	35.0836	0.751813	0	
2.1553	49.4253	-1.35326	0	
2.1560	64.6558	-0.751813	0	
2.1567	71.3525	2.60629	0	
2.1573	64.6558	2.60629	0	
2.1580	53.0403	1.70411	0	
2.1587	34.1354	2.90701	0	
2.1593	4.85956	2.00484	0	
2.1600	-29.0388	-0.150363	0	
2.1607	-67.1449	1.05254	0	
2.1613	-94.0502	1.40338	0	
2.1620	-86.109	-1.05254	0	
2.1627	-58.9073	-2.60629	0	
2.1633	-43.6768	-0.751813	0	
2.1640	-38.4616	2.30556	0	
2.1647	-31.7649	1.40338	0	
2.1653	-25.0682	-1.65399	0	
2.1660	-22.9347	-1.35326	0	
2.1667	-20.8013	0.451088	0	
2.1673	-10.7266	-0.451088	0	
2.1680	4.56324	-0.751813	0	
2.1687	19.2012	0.751813	0	
2.1693	28.3277	0.751813	0	
2.1700	32.002	0.150363	0	
2.1707	33.5428	0.150363	0	
2.1713	30.1648	0.150363	0	
2.1720	12.1489	0.751813	0	
2.1727	-11.3192	2.00484	0	
2.1733	-16.1788	-0.150363	0	
2.1740	-5.51145	-2.30556	0	
2.1747	1.77789	-1.05254	0	
2.1753	2.0742	-0.751813	0	
2.1760	-3.6743	-1.95471	0	
2.1767	-11.0229	-1.65399	0	
2.1773	-10.4303	-1.95471	0	
2.1780	-6.45966	-3.50846	0	
2.1787	-9.18575	-1.65399	0	
2.1793	-12.5637	-0.150363	0	
2.1800	-7.94123	-2.60629	0	
2.1807	2.0742	-3.50846	0	
2.1813	10.371	-1.65399	0	
2.1820	9.71912	0.150363	0	
2.1827	4.85956	0.150363	0	
2.1833	4.26693	-0.150363	0	
2.1840	4.85956	-0.150363	0	
2.1847	5.45219	1.05254	0	
2.1853	7.28934	1.70411	0	
2.1860	3.61504	0.751813	0	
2.1867	-5.51145	1.40338	0	
2.1873	-11.3192	1.70411	0	
2.1880	-14.9935	-1.05254	0	
2.1887	-16.5343	-1.65399	0	
2.1893	-11.0229	1.05254	0	
2.1900	-2.78536	0.150363	0	
2.1907	1.77789	-2.60629	0	
2.1913	3.91135	-4.41064	0	
2.1920	2.42978	-5.01209	0	
2.1927	0.592629	-2.60629	0	
2.1933	5.7485	2.00484	0	
2.1940	10.9636	1.40338	0	
2.1947	9.71912	-3.50846	0	
2.1953	8.17828	-3.50846	0	
2.1960	6.40039	-1.65399	0	
2.1967	3.31872	-1.35326	0	
2.1973	2.72609	-0.751813	0	
2.1980	3.61504	-1.35326	0	
2.1987	0.888944	-3.50846	0	
2.1993	-0.355577	-3.80919	0	
2.2000	2.0742	-1.05254	0	
2.2007	3.61504	0.150363	0	
2.2013	2.42978	-0.451088	0	
2.2020	3.31872	-1.65399	0	
2.2027	6.40039	-3.20774	0	
2.2033	8.17828	-2.60629	0	
2.2040	7.88197	-0.150363	0	
2.2047	7.88197	1.05254	0	
2.2053	7.28934	-0.150363	0	
2.2060	5.45219	-1.65399	0	
2.2067	0.888944	-0.751813	0	
2.2073	-3.6743	-0.751813	0	
2.2080	-3.08167	-2.60629	0	
2.2087	3.02241	-1.65399	0	
2.2093	5.45219	-0.751813	0	
2.2100	5.15587	-1.95471	0	
2.2107	8.53386	-2.30556	0	
2.2113	10.0154	-1.65399	0	
2.2120	6.69671	-1.65399	0	
2.2127	6.40039	-0.150363	0	
2.2133	9.12649	0.150363	0	
2.2140	11.8526	-1.35326	0	
2.2147	15.8232	-0.751813	0	
2.2153	17.364	0.150363	0	
2.2160	14.6379	-0.751813	0	
2.2167	14.6379	-0.751813	0	
2.2173	15.5269	-1.05254	0	
2.2180	11.8526	-2.60629	0	
2.2187	5.7485	-2.30556	0	
2.2193	1.18526	-1.35326	0	
2.2200	-4.32619	-0.751813	0	
2.2207	-13.749	3.20774	0	
2.2213	-25.3645	6.86656	0	
2.2220	-30.2241	4.76148	0	
2.2227	-26.9054	2.90701	0	
2.2233	-23.8237	3.80919	0	
2.2240	-23.8237	4.10991	0	
2.2247	-20.505	3.20774	0	
2.2253	-15.5861	3.80919	0	
2.2260	-15.8825	5.36294	0	
2.2267	-19.2604	5.96439	0	
2.2273	-18.0159	4.76148	0	
2.2280	-12.86	2.30556	0	
2.2287	-10.7266	1.70411	0	
2.2293	-9.18575	2.00484	0	
2.2300	-2.78536	1.40338	0	
2.2307	5.7485	0.150363	0	
2.2313	13.6897	-0.451088	0	
2.2320	22.8755	0.451088	0	
2.2327	25.0089	0.751813	0	
2.2333	15.2306	-1.65399	0	
2.2340	4.56324	-4.10991	0	
2.2347	-1.83715	-1.65399	0	
2.2353	-12.2674	1.70411	0	
2.2360	-21.0976	-0.150363	0	
2.2367	-18.9641	-2.60629	0	
2.2373	-13.1564	-1.65399	0	
2.2380	-10.7266	-2.90701	0	
2.2387	-8.59312	-5.31281	0	
2.2393	-7.94123	-2.90701	0	
2.2400	-8.29681	0.150363	0	
2.2407	-5.21514	-0.150363	0	
2.2413	-2.19273	0.150363	0	
2.2420	-1.24452	0.150363	0	
2.2427	1.18526	-0.751813	0	
2.2433	2.72609	-0.751813	0	
2.2440	1.48157	-1.65399	0	
2.2447	1.77789	-4.10991	0	
2.2453	4.26693	-1.65399	0	
2.2460	4.85956	1.40338	0	
2.2467	4.85956	-0.751813	0	
2.2473	7.28934	-1.95471	0	
2.2480	11.26	1.70411	0	
2.2487	12.5045	2.00484	0	
2.2493	8.53386	-1.95471	0	
2.2500	5.45219	-2.90701	0	
2.2507	7.58565	-0.751813	0	
2.2513	8.17828	-1.35326	0	
2.2520	2.72609	-3.80919	0	
2.2527	-3.6743	-3.50846	0	
2.2533	-9.48206	-0.751813	0	
2.2540	-12.86	1.40338	0	
2.2547	-6.16334	2.00484	0	
2.2553	10.9636	-0.751813	0	
2.2560	22.5199	-4.10991	0	
2.2567	22.8755	-2.60629	0	
2.2573	19.2012	-0.150363	0	
2.2580	6.69671	-0.751813	0	
2.2587	-18.0159	-0.451088	0	
2.2593	-37.5727	2.00484	0	
2.2600	-37.5727	2.60629	0	
2.2607	-29.3351	2.90701	0	
2.2613	-25.6608	3.80919	0	
2.2620	-22.2829	3.80919	0	
2.2627	-17.127	3.20774	0	
2.2633	-16.5343	2.90701	0	
2.2640	-19.2604	1.05254	0	
2.2647	-18.6678	1.05254	0	
2.2653	-14.6972	2.90701	0	
2.2660	-10.134	2.00484	0	
2.2667	-3.6743	1.05254	0	
2.2673	2.0742	3.20774	0	
2.2680	5.45219	3.80919	0	
2.2687	7.58565	1.05254	0	
2.2693	7.58565	1.40338	0	
2.2700	6.99302	5.96439	0	
2.2707	15.2306	6.56584	0	
2.2713	25.8979	2.00484	0	
2.2720	22.8755	0.451088	0	
2.2727	12.1489	3.50846	0	
2.2733	7.28934	3.50846	0	
2.2740	9.71912	1.05254	0	
2.2747	18.9049	0.150363	0	
2.2753	29.8685	-0.751813	0	
2.2760	33.8391	-1.05254	0	
2.2767	33.2465	-0.451088	0	
2.2773	23.7644	-1.35326	0	
2.2780	0.592629	-2.90701	0	
2.2787	-18.3715	-2.90701	0	
2.2793	-23.5274	-4.10991	0	
2.2800	-29.3351	-4.10991	0	
2.2807	-33.3058	-0.751813	0	
2.2813	-28.7425	0.150363	0	
2.2820	-28.3869	-0.751813	0	
2.2827	-32.3575	1.70411	0	
2.2833	-27.498	4.10991	0	
2.2840	-16.1788	2.30556	0	
2.2847	-8.29681	0.451088	0	
2.2853	-5.51145	-0.451088	0	
2.2860	-3.37799	-0.751813	0	
2.2867	1.48157	-0.751813	0	
2.2873	1.77789	-1.65399	0	
2.2880	-6.16334	-0.751813	0	
2.2887	-12.86	0.150363	0	
2.2893	-12.5637	-0.451088	0	
2.2900	-5.51145	1.70411	0	
2.2907	10.0154	4.41064	0	
2.2913	22.8755	2.60629	0	
2.2920	25.8979	1.05254	0	
2.2927	32.002	2.60629	0	
2.2933	35.6763	2.00484	0	
2.2940	23.1718	0.751813	0	
2.2947	12.5045	2.00484	0	
2.2953	18.253	3.80919	0	
2.2960	24.0607	5.06221	0	
2.2967	12.5045	4.10991	0	
2.2973	-13.1564	2.00484	0	
2.2980	-32.3575	3.80919	0	
2.2987	-28.3869	4.76148	0	
2.2993	-12.5637	2.00484	0	
2.3000	-6.45966	1.05254	0	
2.3007	-10.4303	2.30556	0	
2.3013	-14.6972	1.05254	0	
2.3020	-16.5343	1.05254	0	
2.3027	-15.2898	1.05254	0	
2.3033	-9.18575	-1.65399	0	
2.3040	2.72609	-1.95471	0	
2.3047	15.5269	-1.05254	0	
2.3053	17.364	-3.80919	0	
2.3060	11.5563	-7.16729	0	
2.3067	9.71912	-8.67091	0	
2.3073	11.26	-8.67091	0	
2.3080	16.4751	-5.96439	0	
2.3087	31.7057	-2.90701	0	
2.3093	42.0767	-1.35326	0	
2.3100	31.7057	-1.05254	0	
2.3107	16.1195	-3.50846	0	
2.3113	11.8526	-6.26511	0	
2.3120	8.83017	-5.61354	0	
2.3127	-0.355577	-4.10991	0	
2.3133	-9.77838	-3.80919	0	
2.3140	-13.1564	-3.80919	0	
2.3147	-11.9118	-4.41064	0	
2.3153	-17.7196	-4.41064	0	
2.3160	-33.0094	-2.60629	0	
2.3167	-39.4098	-2.60629	0	
2.3173	-32.0612	-3.80919	0	
2.3180	-22.9347	-4.41064	0	
2.3187	-14.6972	-4.41064	0	
2.3193	-5.80776	-5.01209	0	
2.3200	-4.32619	-5.01209	0	
2.3207	-8.29681	-5.31281	0	
2.3213	-8.29681	-6.26511	0	
2.3220	-5.21514	-5.31281	0	
2.3227	-3.08167	-3.80919	0	
2.3233	-0.948206	-3.50846	0	
2.3240	2.72609	-4.10991	0	
2.3247	5.7485	-3.80919	0	
2.3253	6.04482	-1.95471	0	
2.3260	2.72609	-1.65399	0	
2.3267	-0.651892	-3.20774	0	
2.3273	-2.19273	-1.95471	0	
2.3280	-3.6743	0.150363	0	
2.3287	-3.37799	-1.35326	0	
2.3293	-0.948206	-3.20774	0	
2.3300	1.48157	-2.60629	0	
2.3307	2.0742	-1.65399	0	
2.3313	2.0742	-1.35326	0	
2.3320	3.61504	-1.65399	0	
2.3327	8.17828	-4.41064	0	
2.3333	11.8526	-5.31281	0	
2.3340	9.71912	-2.60629	0	
2.3347	5.7485	-2.60629	0	
2.3353	4.56324	-4.41064	0	
2.3360	4.85956	-2.90701	0	
2.3367	5.7485	-1.05254	0	
2.3373	4.85956	-2.30556	0	
2.3380	0.888944	-3.20774	0	
2.3387	-0.948206	-3.50846	0	
2.3393	1.77789	-3.80919	0	
2.3400	5.15587	-3.50846	0	
2.3407	6.40039	-3.80919	0	
2.3413	5.45219	-4.41064	0	
2.3420	1.18526	-3.20774	0	
2.3427	-2.78536	-1.05254	0	
2.3433	-1.83715	1.05254	0	
2.3440	1.18526	2.30556	0	
2.3447	0.296315	1.05254	0	
2.3453	-1.83715	-1.65399	0	
2.3460	-0.651892	-2.30556	0	
2.3467	3.02241	-1.65399	0	
2.3473	8.17828	-1.05254	0	
2.3480	19.2012	-0.150363	0	
2.3487	26.1942	1.40338	0	
2.3493	18.6086	2.90701	0	
2.3500	10.6673	2.60629	0	
2.3507	15.5269	0.751813	0	
2.3513	21.3346	0.150363	0	
2.3520	18.9049	0.150363	0	
2.3527	18.9049	-0.751813	0	
2.3533	25.8979	1.05254	0	
2.3540	28.3277	4.41064	0	
2.3547	14.6379	5.96439	0	
2.3553	-13.749	3.80919	0	
2.3560	-38.8172	-0.751813	0	
2.3567	-43.9731	-2.60629	0	
2.3573	-31.1723	2.00484	0	
2.3580	-14.4009	4.76148	0	
2.3587	1.77789	2.00484	0	
2.3593	18.253	-0.451088	0	
2.3600	27.735	0.150363	0	
2.3607	21.631	-1.35326	0	
2.3613	10.0154	-3.80919	0	
2.3620	3.61504	-3.50846	0	
2.3627	-3.6743	-3.50846	0	
2.3633	-13.4527	-6.26511	0	
2.3640	-17.7196	-7.16729	0	
2.3647	-20.1494	-4.10991	0	
2.3653	-31.1723	-1.95471	0	
2.3660	-44.9213	-1.05254	0	
2.3667	-47.3511	0.451088	0	
2.3673	-35.4392	0.451088	0	
2.3680	-19.5568	0.451088	0	
2.3687	-8.88944	3.80919	0	
2.3693	-1.54084	5.66366	0	
2.3700	3.31872	2.00484	0	
2.3707	3.61504	-0.451088	0	
2.3713	-0.651892	0.150363	0	
2.3720	-3.08167	-0.751813	0	
2.3727	-0.0592629	-1.35326	0	
2.3733	3.31872	0.451088	0	
2.3740	-0.651892	0.150363	0	
2.3747	-10.7266	-3.50846	0	
2.3753	-18.0159	-3.50846	0	
2.3760	-17.4233	-0.751813	0	
2.3767	-11.3192	-2.90701	0	
2.3773	-3.6743	-6.26511	0	
2.3780	-0.355577	-2.60629	0	
2.3787	-0.0592629	0.751813	0	
2.3793	0.296315	-2.30556	0	
2.3800	0.592629	-4.41064	0	
2.3807	1.18526	-2.60629	0	
2.3813	4.56324	-0.451088	0	
2.3820	6.40039	0.451088	0	
2.3827	4.56324	-0.451088	0	
2.3833	2.72609	-1.05254	0	
2.3840	3.91135	1.05254	0	
2.3847	7.58565	0.751813	0	
2.3853	13.6897	-2.60629	0	
2.3860	14.6379	-0.751813	0	
2.3867	10.371	3.50846	0	
2.3873	10.0154	2.00484	0	
2.3880	12.1489	0.150363	0	
2.3887	10.0154	2.00484	0	
2.3893	5.45219	2.00484	0	
2.3900	-0.948206	0.150363	0	
2.3907	-9.48206	1.05254	0	
2.3913	-8.59312	1.40338	0	
2.3920	4.26693	-1.35326	0	
2.3927	18.253	-2.30556	0	
2.3933	32.002	-1.65399	0	
2.3940	41.1877	-2.60629	0	
2.3947	39.6469	-1.35326	0	
2.3953	34.7281	2.30556	0	
2.3960	25.0089	2.00484	0	
2.3967	-0.355577	0.451088	0	
2.3973	-24.7719	2.90701	0	
2.3980	-24.7719	2.90701	0	
2.3987	-13.4527	1.05254	0	
2.3993	-6.16334	2.00484	0	
2.4000	6.69671	2.90701	0	
2.4007	20.742	2.00484	0	
2.4013	20.0901	2.60629	0	
2.4020	13.3934	1.05254	0	
2.4027	12.8008	-1.35326	0	
2.4033	10.9636	1.05254	0	
2.4040	-0.948206	4.76148	0	
2.4047	-12.86	4.76148	0	
2.4053	-12.86	3.80919	0	
2.4060	-7.94123	4.10991	0	
2.4067	-12.86	3.50846	0	
2.4073	-25.9572	2.90701	0	
2.4080	-29.9278	4.10991	0	
2.4087	-16.5343	3.80919	0	
2.4093	6.04482	1.40338	0	
2.4100	25.6016	2.90701	0	
2.4107	33.8391	5.96439	0	
2.4113	27.4387	4.76148	0	
2.4120	7.58565	1.40338	0	
2.4127	-19.2604	1.40338	0	
2.4133	-38.1653	1.40338	0	
2.4140	-40.2988	-0.451088	0	
2.4147	-32.7131	-1.05254	0	
2.4153	-26.609	-1.35326	0	
2.4160	-23.8237	-1.05254	0	
2.4167	-17.4233	1.05254	0	
2.4173	-6.45966	2.30556	0	
2.4180	-0.0592629	1.05254	0	
2.4187	0.296315	0.451088	0	
2.4193	2.0742	-0.150363	0	
2.4200	3.02241	-2.60629	0	
2.4207	-0.948206	-2.30556	0	
2.4213	-4.02988	-0.451088	0	
2.4220	-1.83715	-3.50846	0	
2.4227	0.888944	-6.56584	0	
2.4233	2.72609	-2.60629	0	
2.4240	2.0742	1.05254	0	
2.4247	-1.54084	0.150363	0	
2.4253	-3.6743	-0.451088	0	
2.4260	-4.62251	-1.95471	0	
2.4267	-8.29681	-3.50846	0	
2.4273	-10.134	-0.751813	0	
2.4280	-7.3486	-0.150363	0	
2.4287	-3.08167	-4.71136	0	
2.4293	1.77789	-5.01209	0	
2.4300	6.99302	-1.95471	0	
2.4307	9.12649	-3.50846	0	
2.4313	11.26	-4.71136	0	
2.4320	12.8008	-2.90701	0	
2.4327	13.0971	-4.41064	0	
2.4333	16.7714	-6.56584	0	
2.4340	20.3864	-3.80919	0	
2.4347	17.364	-1.65399	0	
2.4353	11.8526	-3.50846	0	
2.4360	5.45219	-2.90701	0	
2.4367	-5.21514	0.150363	0	
2.4373	-9.18575	0.751813	0	
2.4380	-4.62251	-0.751813	0	
2.4387	-4.62251	-0.751813	0	
2.4393	-7.94123	-1.05254	0	
2.4400	-5.21514	-2.60629	0	
2.4407	-2.78536	-2.90701	0	
2.4413	-4.02988	-2.30556	0	
2.4420	0.296315	-2.30556	0	
2.4427	10.0154	-1.95471	0	
2.4433	15.5269	-1.35326	0	
2.4440	15.8232	-1.65399	0	
2.4447	16.7714	-3.50846	0	
2.4453	15.8232	-3.80919	0	
2.4460	9.12649	-1.35326	0	
2.4467	3.61504	1.05254	0	
2.4473	3.61504	0.150363	0	
2.4480	-1.83715	-1.65399	0	
2.4487	-14.0453	-1.65399	0	
2.4493	-20.1494	-1.65399	0	
2.4500	-20.505	-1.65399	0	
2.4507	-19.8531	-0.751813	0	
2.4513	-17.7196	-0.150363	0	
2.4520	-19.2604	-0.451088	0	
2.4527	-18.9641	-0.451088	0	
2.4533	-3.6743	-0.751813	0	
2.4540	16.4751	-1.05254	0	
2.4547	28.624	-0.451088	0	
2.4553	40.2395	0.751813	0	
2.4560	54.2848	-0.751813	0	
2.4567	68.3301	-2.60629	0	
2.4573	77.4566	-2.30556	0	
2.4580	67.0856	0.150363	0	
2.4587	40.2395	2.00484	0	
2.4593	10.6673	2.00484	0	
2.4600	-34.1947	0.150363	0	
2.4607	-89.7833	-2.90701	0	
2.4613	-110.229	-2.90701	0	
2.4620	-87.2943	-0.451088	0	
2.4627	-61.6927	1.70411	0	
2.4633	-47.3511	2.00484	0	
2.4640	-36.6837	1.05254	0	
2.4647	-31.1723	0.451088	0	
2.4653	-27.2017	2.30556	0	
2.4660	-21.6902	4.76148	0	
2.4667	-18.0159	4.76148	0	
2.4673	-14.4009	2.00484	0	
2.4680	-10.134	-1.05254	0	
2.4687	-8.59312	-0.150363	0	
2.4693	-8.29681	4.41064	0	
2.4700	-7.94123	4.76148	0	
2.4707	-10.7266	0.150363	0	
2.4713	-13.4527	-0.451088	0	
2.4720	-11.9118	2.00484	0	
2.4727	-7.3486	1.40338	0	
2.4733	-2.19273	-1.05254	0	
2.4740	0.888944	-2.90701	0	
2.4747	3.31872	-4.41064	0	
2.4753	7.28934	-4.41064	0	
2.4760	11.26	-4.41064	0	
2.4767	13.6897	-5.61354	0	
2.4773	14.2824	-6.56584	0	
2.4780	12.5045	-4.41064	0	
2.4787	9.12649	-1.35326	0	
2.4793	7.28934	-1.95471	0	
2.4800	8.83017	-4.41064	0	
2.4807	10.371	-3.50846	0	
2.4813	8.53386	-1.35326	0	
2.4820	3.61504	-1.65399	0	
2.4827	2.42978	-2.60629	0	
2.4833	5.15587	-1.65399	0	
2.4840	4.56324	-1.65399	0	
2.4847	2.42978	-1.95471	0	
2.4853	4.85956	-0.751813	0	
2.4860	6.40039	0.150363	0	
2.4867	1.18526	-0.451088	0	
2.4873	-2.78536	-0.150363	0	
2.4880	-1.83715	-1.35326	0	
2.4887	-0.355577	-3.20774	0	
2.4893	1.48157	-1.95471	0	
2.4900	3.61504	-0.751813	0	
2.4907	3.91135	-0.751813	0	
2.4913	6.04482	1.05254	0	
2.4920	8.53386	2.90701	0	
2.4927	6.04482	2.00484	0	
2.4933	4.26693	1.70411	0	
2.4940	8.53386	2.30556	0	
2.4947	11.26	1.05254	0	
2.4953	11.8526	1.05254	0	
2.4960	15.8232	2.00484	0	
2.4967	19.7938	0.150363	0	
2.4973	20.742	0.150363	0	
2.4980	23.1718	4.10991	0	
2.4987	29.8685	4.76148	0	
2.4993	35.0836	1.05254	0	
2.5000	30.4611	0.451088	0	
2.5007	14.6379	2.00484	0	
2.5013	-2.78536	2.30556	0	
2.5020	-15.2898	3.20774	0	
2.5027	-23.2311	5.06221	0	
2.5033	-24.4756	3.80919	0	
2.5040	-21.0976	1.40338	0	
2.5047	-18.6678	2.30556	0	
2.5053	-13.4527	3.80919	0	
2.5060	-6.45966	3.20774	0	
2.5067	-8.59312	3.80919	0	
2.5073	-12.86	4.41064	0	
2.5080	-10.134	2.90701	0	
2.5087	-8.59312	3.20774	0	
2.5093	-11.0229	5.36294	0	
2.5100	-10.4303	3.80919	0	
2.5107	-9.18575	2.00484	0	
2.5113	-7.64491	2.60629	0	
2.5120	0.592629	2.00484	0	
2.5127	14.6379	-1.05254	0	
2.5133	26.4905	-0.751813	0	
2.5140	31.113	2.00484	0	
2.5147	29.8685	1.40338	0	
2.5153	24.7126	0.150363	0	
2.5160	11.8526	0.150363	0	
2.5167	-10.134	0.150363	0	
2.5173	-25.0682	0.150363	0	
2.5180	-22.9347	1.05254	0	
2.5187	-14.6972	0.150363	0	
2.5193	-9.77838	-1.65399	0	
2.5200	-5.51145	-0.751813	0	
2.5207	0.888944	-0.451088	0	
2.5213	8.17828	-3.50846	0	
2.5220	13.986	-4.10991	0	
2.5227	19.7938	-0.451088	0	
2.5233	26.8461	-0.150363	0	
2.5240	28.3277	-4.41064	0	
2.5247	24.3571	-5.01209	0	
2.5253	24.3571	-3.50846	0	
2.5260	25.3053	-4.41064	0	
2.5267	18.253	-3.80919	0	
2.5273	6.40039	-2.30556	0	
2.5280	-9.18575	-4.41064	0	
2.5287	-29.0388	-5.31281	0	
2.5293	-40.2988	-3.20774	0	
2.5300	-38.4616	-3.50846	0	
2.5307	-33.8984	-4.41064	0	
2.5313	-31.1723	-4.10991	0	
2.5320	-31.4686	-5.61354	0	
2.5327	-37.2764	-4.71136	0	
2.5333	-40.2988	-1.05254	0	
2.5340	-33.8984	-2.60629	0	
2.5347	-25.9572	-4.71136	0	
2.5353	-21.9865	-2.60629	0	
2.5360	-15.5861	-1.95471	0	
2.5367	-7.94123	-3.50846	0	
2.5373	-6.45966	-1.35326	0	
2.5380	-8.59312	-1.05254	0	
2.5387	-6.45966	-4.71136	0	
2.5393	-3.6743	-6.26511	0	
2.5400	-4.02988	-5.61354	0	
2.5407	-1.24452	-5.31281	0	
2.5413	2.42978	-4.10991	0	
2.5420	0.592629	-2.90701	0	
2.5427	-1.83715	-2.90701	0	
2.5433	-0.948206	-1.95471	0	
2.5440	-0.948206	-0.150363	0	
2.5447	-0.651892	-0.451088	0	
2.5453	4.56324	-1.65399	0	
2.5460	8.17828	-0.751813	0	
2.5467	8.17828	1.70411	0	
2.5473	8.17828	0.150363	0	
2.5480	8.83017	-2.60629	0	
2.5487	10.9636	-2.60629	0	
2.5493	13.0971	-0.751813	0	
2.5500	14.9343	-0.751813	0	
2.5507	18.9049	-1.05254	0	
2.5513	21.9273	-1.95471	0	
2.5520	20.3864	-5.01209	0	
2.5527	17.9567	-5.31281	0	
2.5533	13.3934	-3.20774	0	
2.5540	3.61504	-2.60629	0	
2.5547	-4.32619	-2.90701	0	
2.5553	-8.29681	-3.50846	0	
2.5560	-14.6972	-3.80919	0	
2.5567	-17.7196	-1.35326	0	
2.5573	-14.6972	0.451088	0	
2.5580	-13.749	-1.35326	0	
2.5587	-12.86	-1.95471	0	
2.5593	-2.19273	-0.751813	0	
2.5600	10.9636	-0.751813	0	
2.5607	18.9049	0.751813	0	
2.5613	23.7644	1.05254	0	
2.5620	25.6016	-1.35326	0	
2.5627	20.3864	-0.751813	0	
2.5633	16.7714	2.30556	0	
2.5640	17.9567	1.70411	0	
2.5647	12.8008	0.150363	0	
2.5653	5.45219	1.05254	0	
2.5660	6.99302	2.30556	0	
2.5667	4.85956	3.50846	0	
2.5673	-9.48206	3.80919	0	
2.5680	-16.5343	3.20774	0	
2.5687	-9.18575	4.76148	0	
2.5693	-2.19273	5.96439	0	
2.5700	-1.24452	2.90701	0	
2.5707	-0.355577	-1.35326	0	
2.5713	1.18526	-1.65399	0	
2.5720	4.26693	0.451088	0	
2.5727	7.28934	3.50846	0	
2.5733	6.99302	5.96439	0	
2.5740	5.45219	6.56584	0	
2.5747	3.91135	4.76148	0	
2.5753	3.02241	2.00484	0	
2.5760	3.91135	2.30556	0	
2.5767	5.15587	4.10991	0	
2.5773	4.26693	4.41064	0	
2.5780	1.77789	3.80919	0	
2.5787	0.888944	3.80919	0	
2.5793	0.888944	3.50846	0	
2.5800	1.18526	3.20774	0	
2.5807	6.99302	3.50846	0	
2.5813	21.0383	3.80919	0	
2.5820	32.9502	5.66366	0	
2.5827	35.6763	6.56584	0	
2.5833	34.1354	5.06221	0	
2.5840	21.3346	4.41064	0	
2.5847	-7.3486	3.80919	0	
2.5853	-28.3869	3.50846	0	
2.5860	-27.2017	3.80919	0	
2.5867	-21.0976	3.80919	0	
2.5873	-21.9865	3.20774	0	
2.5880	-26.9054	3.80919	0	
2.5887	-33.8984	3.80919	0	
2.5893	-37.5727	3.20774	0	
2.5900	-36.9801	2.90701	0	
2.5907	-32.7131	1.40338	0	
2.5913	-19.2604	-0.150363	0	
2.5920	3.61504	0.751813	0	
2.5927	21.631	1.05254	0	
2.5933	32.9502	-0.751813	0	
2.5940	43.6175	-0.751813	0	
2.5947	47.2918	-1.65399	0	
2.5953	35.38	-3.80919	0	
2.5960	11.8526	-3.80919	0	
2.5967	-18.0159	-2.60629	0	
2.5973	-45.8102	-1.65399	0	
2.5980	-57.7221	-0.451088	0	
2.5987	-50.3735	0.451088	0	
2.5993	-36.3282	-1.65399	0	
2.6000	-27.498	-4.10991	0	
2.6007	-25.3645	-3.50846	0	
2.6013	-25.3645	-0.751813	0	
2.6020	-22.9347	-0.451088	0	
2.6027	-20.1494	-1.95471	0	
2.6033	-17.127	-3.20774	0	
2.6040	-6.45966	-2.90701	0	
2.6047	10.0154	-2.60629	0	
2.6053	24.0607	-3.50846	0	
2.6060	35.9726	-4.71136	0	
2.6067	47.8844	-3.20774	0	
2.6073	48.7734	-2.90701	0	
2.6080	37.5134	-5.01209	0	
2.6087	23.4681	-2.90701	0	
2.6093	6.04482	-1.65399	0	
2.6100	-17.4233	-6.26511	0	
2.6107	-35.4392	-7.16729	0	
2.6113	-42.1359	-2.30556	0	
2.6120	-43.3804	-1.65399	0	
2.6127	-39.4098	-4.10991	0	
2.6133	-32.0612	-3.50846	0	
2.6140	-23.8237	-3.50846	0	
2.6147	-15.8825	-4.71136	0	
2.6153	-11.3192	-4.71136	0	
2.6160	-9.77838	-6.26511	0	
2.6167	-6.75597	-7.16729	0	
2.6173	-4.32619	-3.80919	0	
2.6180	-6.75597	-1.95471	0	
2.6187	-7.3486	-5.31281	0	
2.6193	-2.78536	-5.61354	0	
2.6200	-0.651892	-2.90701	0	
2.6207	0.888944	-2.90701	0	
2.6213	5.7485	-1.65399	0	
2.6220	7.88197	0.751813	0	
2.6227	4.26693	-1.65399	0	
2.6233	-0.0592629	-4.10991	0	
2.6240	-2.78536	-1.65399	0	
2.6247	-2.19273	-0.451088	0	
2.6253	5.15587	-1.05254	0	
2.6260	16.1195	-0.451088	0	
2.6267	19.7938	-0.751813	0	
2.6273	14.6379	-1.95471	0	
2.6280	12.8008	-3.80919	0	
2.6287	21.9273	-5.01209	0	
2.6293	32.002	-2.60629	0	
2.6300	39.0543	-0.751813	0	
2.6307	45.751	-4.41064	0	
2.6313	37.8097	-4.71136	0	
2.6320	6.40039	-0.751813	0	
2.6327	-22.6384	-2.30556	0	
2.6333	-26.9054	-4.41064	0	
2.6340	-18.6678	-1.05254	0	
2.6347	-13.749	0.751813	0	
2.6353	-11.9118	0.751813	0	
2.6360	-10.4303	2.60629	0	
2.6367	-9.18575	2.00484	0	
2.6373	-8.29681	2.00484	0	
2.6380	-4.62251	3.80919	0	
2.6387	-0.651892	1.70411	0	
2.6393	-1.54084	-0.751813	0	
2.6400	-4.62251	2.00484	0	
2.6407	-5.80776	1.70411	0	
2.6413	-7.3486	-1.65399	0	
2.6420	-9.18575	0.751813	0	
2.6427	-10.134	3.80919	0	
2.6433	-11.3192	1.40338	0	
2.6440	-8.29681	0.751813	0	
2.6447	3.31872	2.90701	0	
2.6453	17.364	3.20774	0	
2.6460	27.735	2.90701	0	
2.6467	30.4611	4.41064	0	
2.6473	21.9273	4.76148	0	
2.6480	11.5563	2.60629	0	
2.6487	7.28934	0.150363	0	
2.6493	-0.355577	0.150363	0	
2.6500	-11.0229	1.70411	0	
2.6507	-10.4303	2.90701	0	
2.6513	-2.48904	1.70411	0	
2.6520	0.888944	-0.751813	0	
2.6527	0.888944	-1.65399	0	
2.6533	2.0742	-0.751813	0	
2.6540	5.15587	-0.751813	0	
2.6547	10.0154	-1.35326	0	
2.6553	12.8008	-0.451088	0	
2.6560	10.371	1.70411	0	
2.6567	9.71912	1.05254	0	
2.6573	9.12649	0.150363	0	
2.6580	6.69671	2.30556	0	
2.6587	5.45219	2.90701	0	
2.6593	4.56324	0.150363	0	
2.6600	-1.24452	0.150363	0	
2.6607	-5.80776	1.70411	0	
2.6613	-6.16334	-1.35326	0	
2.6620	-3.08167	-2.90701	0	
2.6627	3.91135	0.150363	0	
2.6633	13.0971	0.150363	0	
2.6640	25.3053	-2.30556	0	
2.6647	43.3212	-0.150363	0	
2.6653	60.3889	0.751813	0	
2.6660	66.493	-3.20774	0	
2.6667	61.6334	-3.80919	0	
2.6673	50.3142	-0.751813	0	
2.6680	34.7281	-0.451088	0	
2.6687	8.53386	-1.65399	0	
2.6693	-28.3869	-1.95471	0	
2.6700	-53.1588	-2.60629	0	
2.6707	-49.4845	-0.451088	0	
2.6713	-36.6837	2.30556	0	
2.6720	-29.3351	0.751813	0	
2.6727	-21.0976	0.451088	0	
2.6733	-14.6972	2.90701	0	
2.6740	-16.8307	0.751813	0	
2.6747	-20.1494	-2.90701	0	
2.6753	-20.1494	-2.90701	0	
2.6760	-18.6678	-4.71136	0	
2.6767	-18.9641	-6.26511	0	
2.6773	-24.4756	-1.65399	0	
2.6780	-32.3575	1.40338	0	
2.6787	-34.8466	1.05254	0	
2.6793	-27.7943	1.40338	0	
2.6800	-12.5637	2.00484	0	
2.6807	2.72609	2.60629	0	
2.6813	14.2824	3.20774	0	
2.6820	25.6016	0.150363	0	
2.6827	32.9502	-1.95471	0	
2.6833	31.4093	1.05254	0	
2.6840	28.3277	1.05254	0	
2.6847	19.7938	-3.50846	0	
2.6853	-3.6743	-3.50846	0	
2.6860	-23.8237	-1.65399	0	
2.6867	-21.0976	-2.30556	0	
2.6873	-8.59312	-2.60629	0	
2.6880	-4.62251	-2.60629	0	
2.6887	-10.4303	-3.50846	0	
2.6893	-16.5343	-1.95471	0	
2.6900	-16.1788	-0.150363	0	
2.6907	-13.749	-0.751813	0	
2.6913	-12.86	-1.35326	0	
2.6920	-7.64491	-1.35326	0	
2.6927	-0.948206	-1.95471	0	
2.6933	-0.0592629	-1.65399	0	
2.6940	0.888944	0.150363	0	
2.6947	5.45219	0.451088	0	
2.6953	11.8526	-1.05254	0	
2.6960	23.1718	-2.60629	0	
2.6967	29.2759	-0.150363	0	
2.6973	17.9567	1.70411	0	
2.6980	7.28934	-0.751813	0	
2.6987	6.40039	-2.30556	0	
2.6993	-0.651892	-0.451088	0	
2.7000	-9.77838	-0.451088	0	
2.7007	-6.16334	-1.65399	0	
2.7013	-0.948206	-1.65399	0	
2.7020	-4.91882	-1.35326	0	
2.7027	-10.7266	-0.451088	0	
2.7033	-11.6155	1.05254	0	
2.7040	-4.91882	-0.451088	0	
2.7047	3.61504	-3.50846	0	
2.7053	2.42978	-2.90701	0	
2.7060	-3.6743	-0.150363	0	
2.7067	-3.37799	0.150363	0	
2.7073	-4.62251	-0.150363	0	
2.7080	-8.88944	-0.451088	0	
2.7087	-3.37799	0.751813	0	
2.7093	2.42978	1.40338	0	
2.7100	-3.08167	-0.751813	0	
2.7107	-4.62251	-2.30556	0	
2.7113	2.0742	-1.05254	0	
2.7120	3.31872	-0.150363	0	
2.7127	0.592629	-0.150363	0	
2.7133	2.72609	0.451088	0	
2.7140	3.61504	0.451088	0	
2.7147	1.18526	0.150363	0	
2.7153	0.888944	0.751813	0	
2.7160	1.77789	0.751813	0	
2.7167	1.77789	1.05254	0	
2.7173	1.48157	2.00484	0	
2.7180	1.77789	2.60629	0	
2.7187	4.56324	3.50846	0	
2.7193	10.9636	4.10991	0	
2.7200	18.9049	1.70411	0	
2.7207	19.4975	0.451088	0	
2.7213	7.28934	3.20774	0	
2.7220	-7.64491	2.30556	0	
2.7227	-12.2674	-1.95471	0	
2.7233	-9.77838	-1.35326	0	
2.7240	-10.7266	-0.451088	0	
2.7247	-12.86	-4.10991	0	
2.7253	-11.0229	-3.20774	0	
2.7260	-8.29681	1.40338	0	
2.7267	-9.18575	0.451088	0	
2.7273	-14.6972	-1.05254	0	
2.7280	-14.6972	-0.451088	0	
2.7287	-0.948206	-1.65399	0	
2.7293	15.5269	-1.35326	0	
2.7300	22.8755	3.50846	0	
2.7307	21.9273	4.76148	0	
2.7313	14.9343	1.05254	0	
2.7320	5.7485	-0.451088	0	
2.7327	5.15587	2.00484	0	
2.7333	12.5045	3.80919	0	
2.7340	14.9343	3.50846	0	
2.7347	11.26	2.00484	0	
2.7353	8.17828	1.70411	0	
2.7360	1.77789	1.05254	0	
2.7367	-11.9118	1.70411	0	
2.7373	-28.0906	5.36294	0	
2.7380	-36.9801	6.56584	0	
2.7387	-34.8466	3.80919	0	
2.7393	-20.8013	2.60629	0	
2.7400	-6.45966	2.00484	0	
2.7407	-13.1564	-0.451088	0	
2.7413	-36.6837	0.451088	0	
2.7420	-47.9437	3.80919	0	
2.7427	-39.7061	4.10991	0	
2.7433	-29.0388	1.70411	0	
2.7440	-22.2829	1.05254	0	
2.7447	-15.5861	2.60629	0	
2.7453	-10.134	4.76148	0	
2.7460	-8.29681	3.80919	0	
2.7467	-9.18575	2.30556	0	
2.7473	-10.134	4.10991	0	
2.7480	-7.3486	5.36294	0	
2.7487	-2.78536	2.30556	0	
2.7493	0.592629	2.00484	0	
2.7500	3.31872	3.80919	0	
2.7507	6.40039	2.90701	0	
2.7513	7.28934	1.70411	0	
2.7520	5.7485	3.80919	0	
2.7527	3.02241	3.80919	0	
2.7533	3.02241	-0.451088	0	
2.7540	6.40039	-2.60629	0	
2.7547	8.53386	-0.751813	0	
2.7553	7.88197	2.30556	0	
2.7560	4.26693	3.80919	0	
2.7567	-3.6743	4.41064	0	
2.7573	-9.18575	3.20774	0	
2.7580	-5.21514	-0.751813	0	
2.7587	1.18526	-2.60629	0	
2.7593	2.72609	1.05254	0	
2.7600	5.7485	1.40338	0	
2.7607	9.4228	-2.30556	0	
2.7613	8.83017	-0.751813	0	
2.7620	9.12649	1.70411	0	
2.7627	11.8526	-1.05254	0	
2.7633	10.0154	-0.751813	0	
2.7640	8.53386	2.30556	0	
2.7647	9.71912	1.05254	0	
2.7653	6.99302	-0.751813	0	
2.7660	4.56324	-0.451088	0	
2.7667	8.17828	-3.20774	0	
2.7673	5.45219	-3.50846	0	
2.7680	-2.78536	-0.451088	0	
2.7687	-0.651892	-1.95471	0	
2.7693	11.5563	-4.41064	0	
2.7700	21.0383	-0.451088	0	
2.7707	32.9502	2.60629	0	
2.7713	49.1289	0.451088	0	
2.7720	52.744	1.05254	0	
2.7727	37.5134	2.60629	0	
2.7733	18.9049	0.751813	0	
2.7740	6.40039	-0.751813	0	
2.7747	-2.78536	1.70411	0	
2.7753	-7.3486	3.80919	0	
2.7760	-5.21514	2.00484	0	
2.7767	-1.83715	0.150363	0	
2.7773	0.888944	1.05254	0	
2.7780	9.12649	2.30556	0	
2.7787	14.6379	2.00484	0	
2.7793	-0.355577	1.05254	0	
2.7800	-25.3645	1.40338	0	
2.7807	-36.6837	2.60629	0	
2.7813	-33.0094	1.05254	0	
2.7820	-22.6384	-2.60629	0	
2.7827	-10.134	-3.50846	0	
2.7833	-2.19273	-2.60629	0	
2.7840	1.77789	-4.41064	0	
2.7847	3.91135	-7.16729	0	
2.7853	1.48157	-5.31281	0	
2.7860	-2.78536	-4.10991	0	
2.7867	-4.91882	-6.26511	0	
2.7873	-10.7266	-7.16729	0	
2.7880	-13.749	-4.71136	0	
2.7887	-6.45966	-3.50846	0	
2.7893	0.888944	-4.41064	0	
2.7900	7.88197	-5.01209	0	
2.7907	24.0607	-4.41064	0	
2.7913	37.5134	-4.10991	0	
2.7920	34.7281	-4.71136	0	
2.7927	18.253	-6.26511	0	
2.7933	-8.59312	-6.26511	0	
2.7940	-30.2241	-5.01209	0	
2.7947	-28.3869	-3.50846	0	
2.7953	-15.5861	-3.20774	0	
2.7960	-12.86	-4.71136	0	
2.7967	-17.127	-5.61354	0	
2.7973	-20.1494	-4.41064	0	
2.7980	-20.505	-2.90701	0	
2.7987	-15.5861	-1.65399	0	
2.7993	-7.3486	-1.95471	0	
2.8000	-4.02988	-4.71136	0	
2.8007	-5.21514	-5.96439	0	
2.8013	-4.91882	-3.50846	0	
2.8020	-8.29681	-0.451088	0	
2.8027	-15.5861	-0.150363	0	
2.8033	-14.6972	-1.65399	0	
2.8040	-5.51145	-1.95471	0	
2.8047	-3.37799	-2.60629	0	
2.8053	-7.94123	-3.20774	0	
2.8060	-9.18575	-3.20774	0	
2.8067	-7.94123	-1.05254	0	
2.8073	-5.80776	0.751813	0	
2.8080	-2.19273	1.05254	0	
2.8087	0.888944	-0.751813	0	
2.8093	2.42978	-1.95471	0	
2.8100	3.31872	-0.150363	0	
2.8107	2.72609	2.30556	0	
2.8113	0.592629	1.70411	0	
2.8120	-2.19273	1.05254	0	
2.8127	-2.19273	2.30556	0	
2.8133	1.77789	2.00484	0	
2.8140	5.7485	1.05254	0	
2.8147	6.40039	2.00484	0	
2.8153	6.99302	2.00484	0	
2.8160	7.88197	2.00484	0	
2.8167	9.12649	3.20774	0	
2.8173	15.2306	2.30556	0	
2.8180	23.7644	-0.451088	0	
2.8187	23.7644	-0.751813	0	
2.8193	14.9343	0.451088	0	
2.8200	7.28934	1.05254	0	
2.8207	1.77789	1.40338	0	
2.8213	-4.91882	0.451088	0	
2.8220	-6.75597	0.751813	0	
2.8227	0.296315	1.05254	0	
2.8233	4.56324	-1.95471	0	
2.8240	-1.24452	-5.01209	0	
2.8247	-9.48206	-1.95471	0	
2.8253	-12.86	0.150363	0	
2.8260	-14.4009	-1.35326	0	
2.8267	-13.4527	-1.35326	0	
2.8273	-4.62251	-0.451088	0	
2.8280	7.58565	-0.751813	0	
2.8287	13.6897	-0.451088	0	
2.8293	11.8526	0.451088	0	
2.8300	8.17828	0.451088	0	
2.8307	7.58565	0.751813	0	
2.8313	9.12649	0.451088	0	
2.8320	9.12649	0.751813	0	
2.8327	7.28934	2.60629	0	
2.8333	6.99302	1.40338	0	
2.8340	3.02241	-2.60629	0	
2.8347	-11.0229	-1.65399	0	
2.8353	-25.0682	1.05254	0	
2.8360	-24.7719	0.451088	0	
2.8367	-15.2898	0.150363	0	
2.8373	-8.88944	0.451088	0	
2.8380	-4.91882	1.70411	0	
2.8387	-0.948206	3.80919	0	
2.8393	-0.651892	2.60629	0	
2.8400	-3.6743	-2.30556	0	
2.8407	-2.78536	-1.95471	0	
2.8413	5.7485	0.751813	0	
2.8420	16.1195	-0.150363	0	
2.8427	21.0383	-0.751813	0	
2.8433	24.0607	-0.751813	0	
2.8440	24.3571	-2.30556	0	
2.8447	9.4228	-1.65399	0	
2.8453	-19.5568	-1.05254	0	
2.8460	-39.4098	-3.50846	0	
2.8467	-37.5727	-4.41064	0	
2.8473	-27.2017	-2.90701	0	
2.8480	-18.3715	-1.95471	0	
2.8487	-7.64491	-2.60629	0	
2.8493	4.56324	-4.41064	0	
2.8500	18.253	-6.26511	0	
2.8507	34.4317	-6.26511	0	
2.8513	43.9138	-6.86656	0	
2.8520	38.6987	-8.06946	0	
2.8527	21.631	-6.26511	0	
2.8533	-8.59312	-5.01209	0	
2.8540	-38.8172	-6.56584	0	
2.8547	-36.9801	-5.31281	0	
2.8553	-3.6743	-2.60629	0	
2.8560	22.2236	-3.20774	0	
2.8567	35.38	-4.10991	0	
2.8573	49.7216	-3.20774	0	
2.8580	57.0109	-4.41064	0	
2.8587	53.3959	-5.01209	0	
2.8593	49.4253	-1.05254	0	
2.8600	33.2465	1.05254	0	
2.8607	-0.948206	-1.65399	0	
2.8613	-28.3869	-3.20774	0	
2.8620	-44.9213	-1.05254	0	
2.8627	-61.989	0.150363	0	
2.8633	-65.6633	-1.05254	0	
2.8640	-49.4845	-1.65399	0	
2.8647	-36.6837	-1.65399	0	
2.8653	-32.0612	-3.50846	0	
2.8660	-24.7719	-6.26511	0	
2.8667	-18.0159	-6.26511	0	
2.8673	-13.749	-4.71136	0	
2.8680	-7.94123	-6.26511	0	
2.8687	-4.62251	-8.97164	0	
2.8693	-1.54084	-8.97164	0	
2.8700	2.42978	-6.26511	0	
2.8707	1.18526	-5.31281	0	
2.8713	0.888944	-5.31281	0	
2.8720	9.12649	-5.01209	0	
2.8727	14.6379	-4.71136	0	
2.8733	14.6379	-4.41064	0	
2.8740	18.6086	-3.50846	0	
2.8747	21.631	-3.50846	0	
2.8753	19.2012	-5.61354	0	
2.8760	19.2012	-7.16729	0	
2.8767	19.2012	-5.31281	0	
2.8773	14.2824	-1.95471	0	
2.8780	10.0154	-0.451088	0	
2.8787	3.61504	-0.451088	0	
2.8793	-8.88944	1.05254	0	
2.8800	-17.4233	3.50846	0	
2.8807	-18.9641	2.30556	0	
2.8813	-21.0976	-2.30556	0	
2.8820	-24.12	-3.80919	0	
2.8827	-25.9572	-1.95471	0	
2.8833	-26.2535	-1.95471	0	
2.8840	-23.2311	-3.80919	0	
2.8847	-20.8013	-3.50846	0	
2.8853	-18.9641	-0.150363	0	
2.8860	-8.88944	1.70411	0	
2.8867	7.88197	0.150363	0	
2.8873	21.631	0.150363	0	
2.8880	30.1648	1.05254	0	
2.8887	32.9502	-0.451088	0	
2.8893	32.2983	-0.751813	0	
2.8900	26.4905	2.00484	0	
2.8907	6.04482	-0.150363	0	
2.8913	-18.9641	-4.41064	0	
2.8920	-23.8237	-1.65399	0	
2.8927	-14.6972	2.00484	0	
2.8933	-8.88944	-0.451088	0	
2.8940	-3.6743	-1.35326	0	
2.8947	2.72609	0.150363	0	
2.8953	4.56324	-0.150363	0	
2.8960	2.0742	1.05254	0	
2.8967	-3.08167	3.80919	0	
2.8973	-9.48206	2.90701	0	
2.8980	-11.3192	2.00484	0	
2.8987	-11.0229	4.76148	0	
2.8993	-10.4303	5.66366	0	
2.9000	-5.80776	3.80919	0	
2.9007	-0.651892	2.90701	0	
2.9013	2.42978	3.50846	0	
2.9020	7.58565	3.20774	0	
2.9027	17.364	2.30556	0	
2.9033	30.1648	1.05254	0	
2.9040	36.2689	0.150363	0	
2.9047	30.4611	0.150363	0	
2.9053	22.8755	0.150363	0	
2.9060	15.5269	0.150363	0	
2.9067	-5.51145	1.05254	0	
2.9073	-29.9278	1.05254	0	
2.9080	-35.7355	-1.05254	0	
2.9087	-30.5797	-1.35326	0	
2.9093	-29.6315	1.70411	0	
2.9100	-25.0682	2.60629	0	
2.9107	-14.9935	2.30556	0	
2.9113	-9.18575	3.50846	0	
2.9120	-8.29681	2.60629	0	
2.9127	-4.91882	-0.751813	0	
2.9133	2.42978	-1.65399	0	
2.9140	10.9636	-0.451088	0	
2.9147	14.6379	2.00484	0	
2.9153	12.8008	5.06221	0	
2.9160	10.9636	3.80919	0	
2.9167	10.371	2.90701	0	
2.9173	10.0154	6.26511	0	
2.9180	11.8526	6.56584	0	
2.9187	17.0677	2.30556	0	
2.9193	21.9273	4.10991	0	
2.9200	22.2236	8.42031	0	
2.9207	18.253	6.56584	0	
2.9213	11.8526	3.20774	0	
2.9220	8.17828	2.90701	0	
2.9227	5.7485	1.40338	0	
2.9233	-1.83715	1.70411	0	
2.9240	-11.9118	4.76148	0	
2.9247	-18.3715	5.66366	0	
2.9253	-24.7719	4.10991	0	
2.9260	-26.609	3.80919	0	
2.9267	-18.0159	3.20774	0	
2.9273	-9.18575	0.150363	0	
2.9280	-9.18575	-1.65399	0	
2.9287	-7.64491	0.150363	0	
2.9293	-3.6743	0.751813	0	
2.9300	-3.6743	-0.150363	0	
2.9307	0.888944	0.150363	0	
2.9313	13.986	1.05254	0	
