0.0000	-5.9915	-4.77446	1
0.0007	-10.5491	-6.28716	0	
0.0013	-9.62736	-4.44355	0	
0.0020	-3.53345	-2.93085	0	
0.0027	0.409675	-4.77446	0	
0.0033	1.94596	-5.38899	0	
0.0040	4.09675	-2.93085	0	
0.0047	1.02419	-2.31632	0	
0.0053	-9.93462	-2.93085	0	
0.0060	-18.4866	-1.70179	0	
0.0067	-19.1011	-0.803621	0	
0.0073	-15.7725	-2.64722	0	
0.0080	-11.7782	-2.93085	0	
0.0087	-8.44955	-0.803621	0	
0.0093	-7.22052	1.93815	0	
0.0100	-5.37698	1.93815	0	
0.0107	-5.06973	-0.472719	0	
0.0113	-3.22619	-3.54539	0	
0.0120	7.42536	-4.44355	0	
0.0127	22.993	-4.77446	0	
0.0133	33.3885	-5.67262	0	
0.0140	34.9248	-5.38899	0	
0.0147	26.9873	-3.82902	0	
0.0153	15.9773	-1.41816	0	
0.0160	12.3415	0.425447	0	
0.0167	5.94029	-0.189087	0	
0.0173	-12.6999	-2.31632	0	
0.0180	-25.5023	-0.803621	0	
0.0187	-22.4809	1.65451	0	
0.0193	-14.8507	0.425447	0	
0.0200	-2.61168	-0.803621	0	
0.0207	12.956	0.0945437	0	
0.0213	14.7483	-1.41816	0	
0.0220	6.24754	-2.64722	0	
0.0227	4.09675	1.03998	0	
0.0233	5.94029	2.26905	0	
0.0240	8.34713	-2.03269	0	
0.0247	19.3571	-4.15992	0	
0.0253	36.4611	-2.03269	0	
0.0260	47.4199	-1.08725	0	
0.0267	43.1695	-0.803621	0	
0.0273	15.0556	0.425447	0	
0.0280	-27.3458	0.0945437	0	
0.0287	-58.4811	1.03998	0	
0.0293	-66.7258	4.67991	0	
0.0300	-61.1952	4.67991	0	
0.0307	-47.4711	1.03998	0	
0.0313	-30.1111	1.03998	0	
0.0320	-15.7725	4.39628	0	
0.0327	-8.14229	2.55268	0	
0.0333	-9.62736	-0.189087	0	
0.0340	-16.643	1.93815	0	
0.0347	-20.0229	3.78175	0	
0.0353	-16.0285	2.55268	0	
0.0360	-11.7782	1.03998	0	
0.0367	-7.52778	1.03998	0	
0.0373	-2.30442	1.03998	0	
0.0380	-1.38265	2.55268	0	
0.0387	-4.76247	2.55268	0	
0.0393	-9.3201	0.0945437	0	
0.0400	-18.7938	-0.189087	0	
0.0407	-27.9603	1.93815	0	
0.0413	-25.5023	3.78175	0	
0.0420	-16.3358	4.39628	0	
0.0427	-10.5491	4.06538	0	
0.0433	-5.68424	2.88358	0	
0.0440	-1.68991	2.26905	0	
0.0447	-3.22619	2.55268	0	
0.0453	-2.61168	2.88358	0	
0.0460	3.48224	3.45085	0	
0.0467	5.63303	2.88358	0	
0.0473	3.17498	1.03998	0	
0.0480	4.40401	0.425447	0	
0.0487	10.1907	1.93815	0	
0.0493	14.441	1.65451	0	
0.0500	13.5705	0.0945437	0	
0.0507	9.2689	1.32361	0	
0.0513	8.34713	2.88358	0	
0.0520	13.8777	0.425447	0	
0.0527	16.2846	-0.803621	0	
0.0533	13.5705	1.65451	0	
0.0540	11.7269	2.55268	0	
0.0547	9.57615	1.93815	0	
0.0553	6.5548	2.88358	0	
0.0560	5.63303	2.26905	0	
0.0567	5.32577	-0.189087	0	
0.0573	5.32577	-0.803621	0	
0.0580	13.8777	-0.472719	0	
0.0587	29.1381	-2.31632	0	
0.0593	43.1695	-2.93085	0	
0.0600	51.4142	-0.803621	0	
0.0607	48.0344	1.03998	0	
0.0613	33.6958	1.03998	0	
0.0620	19.6644	1.03998	0	
0.0627	4.09675	1.93815	0	
0.0633	-23.966	1.32361	0	
0.0640	-51.1582	0.425447	0	
0.0647	-53.8723	-0.803621	0	
0.0653	-34.976	-2.03269	0	
0.0660	-11.7782	-2.31632	0	
0.0667	7.1181	-1.41816	0	
0.0673	24.8365	-1.08725	0	
0.0680	44.0913	-0.189087	0	
0.0687	54.4356	2.88358	0	
0.0693	45.8836	4.67991	0	
0.0700	25.4511	2.88358	0	
0.0707	-0.81935	0.709078	0	
0.0713	-32.8252	0.0945437	0	
0.0720	-53.0017	-0.189087	0	
0.0727	-49.3146	-0.803621	0	
0.0733	-37.434	-1.70179	0	
0.0740	-28.2676	-2.64722	0	
0.0747	-20.9446	-2.31632	0	
0.0753	-18.1793	-1.70179	0	
0.0760	-14.2362	-2.64722	0	
0.0767	1.33144	-1.41816	0	
0.0773	7.1181	1.93815	0	
0.0780	-8.70559	0.425447	0	
0.0787	-18.1793	-4.44355	0	
0.0793	-11.1636	-2.31632	0	
0.0800	-12.6999	3.45085	0	
0.0807	-22.1737	2.88358	0	
0.0813	-18.1793	0.0945437	0	
0.0820	-3.53345	1.03998	0	
0.0827	7.42536	0.0945437	0	
0.0833	13.8777	-2.31632	0	
0.0840	14.7483	-1.41816	0	
0.0847	12.0342	0.0945437	0	
0.0853	10.1907	-0.803621	0	
0.0860	3.78949	-0.803621	0	
0.0867	-9.01285	0.709078	0	
0.0873	-15.158	1.65451	0	
0.0880	-9.01285	3.16721	0	
0.0887	-2.61168	2.26905	0	
0.0893	1.02419	-0.472719	0	
0.0900	6.24754	1.03998	0	
0.0907	7.42536	2.26905	0	
0.0913	2.86772	-0.803621	0	
0.0920	0.102419	-1.70179	0	
0.0927	-0.512094	0.709078	0	
0.0933	-2.61168	0.709078	0	
0.0940	-7.22052	-1.08725	0	
0.0947	-14.5435	-0.189087	0	
0.0953	-21.8664	0.425447	0	
0.0960	-20.9446	-0.803621	0	
0.0967	-14.8507	-2.31632	0	
0.0973	-10.2419	-2.64722	0	
0.0980	-5.06973	-2.64722	0	
0.0987	-1.99717	-2.64722	0	
0.0993	-5.68424	-1.41816	0	
0.1000	-5.37698	1.03998	0	
0.1007	1.33144	0.0945437	0	
0.1013	3.48224	-2.03269	0	
0.1020	2.86772	0.0945437	0	
0.1027	5.63303	3.16721	0	
0.1033	5.32577	1.93815	0	
0.1040	3.17498	1.03998	0	
0.1047	4.40401	1.32361	0	
0.1053	4.71126	0.425447	0	
0.1060	10.8052	1.03998	0	
0.1067	30.3159	1.93815	0	
0.1073	51.4142	0.0945437	0	
0.1080	61.4512	-0.803621	0	
0.1087	58.7371	-0.189087	0	
0.1093	42.2477	-1.70179	0	
0.1100	23.9148	-2.64722	0	
0.1107	14.1338	0.0945437	0	
0.1113	-1.38265	1.93815	0	
0.1120	-27.3458	1.32361	0	
0.1127	-37.434	1.32361	0	
0.1133	-26.7313	-0.472719	0	
0.1140	-18.1793	-2.31632	0	
0.1147	-13.0072	0.0945437	0	
0.1153	2.25321	1.93815	0	
0.1160	19.3571	-1.41816	0	
0.1167	26.6801	-2.64722	0	
0.1173	26.3728	1.03998	0	
0.1180	22.993	2.55268	0	
0.1187	20.2789	0.0945437	0	
0.1193	20.2789	-0.803621	0	
0.1200	12.956	0.425447	0	
0.1207	-3.8407	0.0945437	0	
0.1213	-19.7156	-0.803621	0	
0.1220	-31.9034	0.0945437	0	
0.1227	-42.9135	0.0945437	0	
0.1233	-43.528	-0.472719	0	
0.1240	-30.1111	2.88358	0	
0.1247	-13.6217	4.06538	0	
0.1253	2.25321	1.32361	0	
0.1260	19.3571	1.32361	0	
0.1267	31.8522	2.88358	0	
0.1273	35.232	1.93815	0	
0.1280	23.9148	1.93815	0	
0.1287	-2.91893	3.45085	0	
0.1293	-24.8878	1.93815	0	
0.1300	-26.7313	1.93815	0	
0.1307	-22.7882	4.39628	0	
0.1313	-19.4084	4.67991	0	
0.1320	-13.3144	1.03998	0	
0.1327	-13.3144	-2.64722	0	
0.1333	-14.2362	-1.70179	0	
0.1340	1.6387	2.26905	0	
0.1347	22.6857	2.26905	0	
0.1353	29.3942	-1.70179	0	
0.1360	25.7583	-2.31632	0	
0.1367	15.9773	1.32361	0	
0.1373	-1.68991	0.709078	0	
0.1380	-24.5805	-4.44355	0	
0.1387	-40.4554	-5.05809	0	
0.1393	-37.434	-1.70179	0	
0.1400	-20.3301	-1.70179	0	
0.1407	-11.7782	-0.803621	0	
0.1413	-13.6217	2.88358	0	
0.1420	-11.7782	3.16721	0	
0.1427	-9.93462	1.03998	0	
0.1433	-11.7782	2.88358	0	
0.1440	-9.93462	2.88358	0	
0.1447	-7.52778	-1.70179	0	
0.1453	-8.70559	-1.08725	0	
0.1460	-9.01285	1.32361	0	
0.1467	-8.14229	-2.64722	0	
0.1473	-6.91326	-6.00353	0	
0.1480	-1.99717	-4.15992	0	
0.1487	4.09675	-3.26176	0	
0.1493	6.5548	-2.64722	0	
0.1500	5.63303	-1.41816	0	
0.1507	3.48224	-2.64722	0	
0.1513	2.25321	-3.54539	0	
0.1520	1.94596	-1.41816	0	
0.1527	1.02419	-1.41816	0	
0.1533	-0.81935	-2.93085	0	
0.1540	-0.512094	-1.08725	0	
0.1547	0.716931	-0.472719	0	
0.1553	0.409675	-4.15992	0	
0.1560	0.716931	-3.54539	0	
0.1567	2.86772	1.32361	0	
0.1573	2.86772	1.03998	0	
0.1580	1.6387	-2.31632	0	
0.1587	3.78949	-1.70179	0	
0.1593	7.1181	-1.70179	0	
0.1600	8.65438	-2.64722	0	
0.1607	12.956	-2.31632	0	
0.1613	15.6701	-4.15992	0	
0.1620	8.65438	-6.90169	0	
0.1627	-0.81935	-4.77446	0	
0.1633	1.94596	-3.54539	0	
0.1640	18.1281	-4.44355	0	
0.1647	39.4824	-4.15992	0	
0.1653	57.2009	-4.44355	0	
0.1660	61.4512	-3.54539	0	
0.1667	57.8154	2.55268	0	
0.1673	62.0658	4.67991	0	
0.1680	68.7742	0.425447	0	
0.1687	50.7997	0.425447	0	
0.1693	5.94029	2.88358	0	
0.1700	-36.5123	1.93815	0	
0.1707	-64.8823	1.32361	0	
0.1713	-89.6164	1.65451	0	
0.1720	-100.575	-1.08725	0	
0.1727	-90.2309	-1.70179	0	
0.1733	-74.356	-0.472719	0	
0.1740	-58.4811	-2.93085	0	
0.1747	-37.434	-6.28716	0	
0.1753	-21.5591	-6.00353	0	
0.1760	-17.2576	-3.54539	0	
0.1767	-11.1636	0.0945437	0	
0.1773	-3.22619	1.03998	0	
0.1780	-2.91893	-0.803621	0	
0.1787	-0.81935	-2.03269	0	
0.1793	8.34713	-1.08725	0	
0.1800	7.42536	-0.803621	0	
0.1807	-4.14796	-1.70179	0	
0.1813	-5.06973	-2.31632	0	
0.1820	3.17498	-1.70179	0	
0.1827	6.5548	-0.803621	0	
0.1833	8.34713	-0.472719	0	
0.1840	11.1124	0.0945437	0	
0.1847	5.63303	1.93815	0	
0.1853	1.02419	2.55268	0	
0.1860	6.81085	-0.803621	0	
0.1867	13.2632	-3.82902	0	
0.1873	12.956	-2.93085	0	
0.1880	12.3415	-1.41816	0	
0.1887	12.956	-2.31632	0	
0.1893	9.2689	-2.93085	0	
0.1900	9.2689	-1.41816	0	
0.1907	16.2846	-0.803621	0	
0.1913	18.1281	-2.31632	0	
0.1920	11.1124	-1.41816	0	
0.1927	5.32577	0.425447	0	
0.1933	4.40401	-1.41816	0	
0.1940	8.34713	-2.64722	0	
0.1947	18.7426	-1.70179	0	
0.1953	28.5236	-2.03269	0	
0.1960	26.9873	-2.64722	0	
0.1967	19.3571	0.425447	0	
0.1973	14.1338	2.26905	0	
0.1980	11.7269	0.709078	0	
0.1987	9.2689	-1.08725	0	
0.1993	8.96164	-1.70179	0	
0.2000	12.956	-1.70179	0	
0.2007	18.7426	-1.70179	0	
0.2013	18.1281	-0.803621	0	
0.2020	12.0342	1.03998	0	
0.2027	9.2689	2.55268	0	
0.2033	9.88341	1.03998	0	
0.2040	7.1181	-0.803621	0	
0.2047	-1.99717	-0.472719	0	
0.2053	-13.6217	-0.189087	0	
0.2060	-22.4809	-1.41816	0	
0.2067	-30.1111	-1.41816	0	
0.2073	-32.8252	-0.803621	0	
0.2080	-20.6374	-1.41816	0	
0.2087	3.17498	-2.31632	0	
0.2093	22.993	-2.93085	0	
0.2100	30.6232	-3.26176	0	
0.2107	26.6801	-2.31632	0	
0.2113	19.3571	-1.41816	0	
0.2120	17.5136	-2.03269	0	
0.2127	14.7483	-2.93085	0	
0.2133	1.94596	-3.54539	0	
0.2140	-5.68424	-3.54539	0	
0.2147	4.71126	-1.70179	0	
0.2153	12.3415	-1.41816	0	
0.2160	-0.81935	-3.82902	0	
0.2167	-20.0229	-5.05809	0	
0.2173	-28.8821	-4.15992	0	
0.2180	-32.8252	-4.44355	0	
0.2187	-37.434	-3.82902	0	
0.2193	-34.976	-2.03269	0	
0.2200	-26.7313	-2.93085	0	
0.2207	-23.4027	-3.54539	0	
0.2213	-20.9446	-1.08725	0	
0.2220	-13.0072	-0.472719	0	
0.2227	-8.14229	-4.15992	0	
0.2233	-9.01285	-4.77446	0	
0.2240	-4.76247	-1.08725	0	
0.2247	4.40401	0.709078	0	
0.2253	11.1124	-1.70179	0	
0.2260	16.2846	-2.93085	0	
0.2267	20.5862	-2.31632	0	
0.2273	25.7583	-3.26176	0	
0.2280	32.1595	-3.26176	0	
0.2287	33.3885	-1.70179	0	
0.2293	26.6801	-1.70179	0	
0.2300	20.5862	-2.64722	0	
0.2307	13.8777	-1.41816	0	
0.2313	1.94596	-0.472719	0	
0.2320	-2.61168	-1.41816	0	
0.2327	2.25321	-3.26176	0	
0.2333	0.409675	-3.26176	0	
0.2340	-10.5491	0.0945437	0	
0.2347	-25.5023	0.709078	0	
0.2353	-40.1481	-1.70179	0	
0.2360	-40.1481	-0.803621	0	
0.2367	-24.5805	1.03998	0	
0.2373	-15.4652	-0.472719	0	
0.2380	-17.2576	-1.70179	0	
0.2387	-15.7725	0.0945437	0	
0.2393	-14.8507	2.26905	0	
0.2400	-21.5591	2.88358	0	
0.2407	-26.7313	0.709078	0	
0.2413	-24.5805	-1.41816	0	
0.2420	-15.7725	-0.803621	0	
0.2427	-0.81935	-0.189087	0	
0.2433	11.1124	-0.803621	0	
0.2440	7.73261	-0.189087	0	
0.2447	-1.68991	-2.03269	0	
0.2453	-3.22619	-4.77446	0	
0.2460	-0.204837	-0.803621	0	
0.2467	0.716931	3.78175	0	
0.2473	6.5548	0.0945437	0	
0.2480	15.6701	-2.64722	0	
0.2487	15.6701	1.03998	0	
0.2493	10.4979	1.03998	0	
0.2500	7.42536	-0.803621	0	
0.2507	-0.204837	0.0945437	0	
0.2513	-9.01285	0.709078	0	
0.2520	-4.45521	-0.472719	0	
0.2527	5.01852	0.709078	0	
0.2533	5.32577	1.32361	0	
0.2540	3.78949	-0.189087	0	
0.2547	7.42536	-0.803621	0	
0.2553	9.88341	-0.189087	0	
0.2560	6.5548	-0.189087	0	
0.2567	4.40401	1.32361	0	
0.2573	10.1907	1.93815	0	
0.2580	17.2063	-0.189087	0	
0.2587	14.441	-0.472719	0	
0.2593	7.42536	1.03998	0	
0.2600	4.09675	1.32361	0	
0.2607	1.02419	2.55268	0	
0.2613	-1.38265	4.06538	0	
0.2620	-4.45521	2.88358	0	
0.2627	-11.4709	1.32361	0	
0.2633	-15.4652	2.88358	0	
0.2640	-17.2576	1.93815	0	
0.2647	-26.424	-0.189087	0	
0.2653	-27.3458	-0.472719	0	
0.2660	-6.29875	0.0945437	0	
0.2667	17.5136	0.425447	0	
0.2673	28.5236	1.93815	0	
0.2680	26.0656	1.03998	0	
0.2687	14.441	-0.803621	0	
0.2693	7.1181	0.0945437	0	
0.2700	5.63303	2.26905	0	
0.2707	-5.37698	1.93815	0	
0.2713	-17.2576	1.03998	0	
0.2720	-13.0072	1.65451	0	
0.2727	-3.53345	1.93815	0	
0.2733	0.102419	1.03998	0	
0.2740	4.40401	1.03998	0	
0.2747	8.34713	2.55268	0	
0.2753	11.1124	3.78175	0	
0.2760	15.9773	3.45085	0	
0.2767	15.6701	3.78175	0	
0.2773	5.94029	5.90898	0	
0.2780	-3.22619	4.67991	0	
0.2787	-8.44955	2.55268	0	
0.2793	-19.7156	3.78175	0	
0.2800	-34.6687	3.45085	0	
0.2807	-39.2264	0.425447	0	
0.2813	-35.5905	2.88358	0	
0.2820	-33.747	5.62535	0	
0.2827	-28.2676	2.88358	0	
0.2833	-11.4709	3.78175	0	
0.2840	4.40401	8.03621	0	
0.2847	8.34713	6.23988	0	
0.2853	5.01852	3.78175	0	
0.2860	0.102419	6.80715	0	
0.2867	-4.45521	7.13805	0	
0.2873	-3.22619	4.06538	0	
0.2880	2.25321	4.39628	0	
0.2887	4.40401	4.67991	0	
0.2893	4.71126	3.16721	0	
0.2900	9.2689	3.45085	0	
0.2907	13.2632	2.26905	0	
0.2913	14.1338	0.709078	0	
0.2920	15.6701	1.65451	0	
0.2927	17.2063	1.32361	0	
0.2933	15.6701	-1.70179	0	
0.2940	13.5705	-2.31632	0	
0.2947	8.34713	0.425447	0	
0.2953	-0.81935	2.88358	0	
0.2960	-10.8564	2.55268	0	
0.2967	-19.1011	0.0945437	0	
0.2973	-20.0229	-1.41816	0	
0.2980	-9.93462	-0.803621	0	
0.2987	5.32577	1.65451	0	
0.2993	22.0712	3.78175	0	
0.3000	37.9461	1.93815	0	
0.3007	44.6546	-0.472719	0	
0.3013	37.6389	1.32361	0	
0.3020	25.1438	3.45085	0	
0.3027	11.4197	1.03998	0	
0.3033	-10.8564	-1.08725	0	
0.3040	-34.0542	-0.189087	0	
0.3047	-38.9191	-0.189087	0	
0.3053	-26.1168	-2.93085	0	
0.3060	-12.3927	-5.05809	0	
0.3067	-1.99717	-4.44355	0	
0.3073	8.03987	-2.64722	0	
0.3080	12.0342	-2.31632	0	
0.3087	12.0342	-2.64722	0	
0.3093	14.7483	-2.31632	0	
0.3100	14.7483	-1.70179	0	
0.3107	9.2689	-1.70179	0	
0.3113	1.94596	-2.64722	0	
0.3120	-6.29875	-2.31632	0	
0.3127	-14.5435	-1.70179	0	
0.3133	-20.3301	-3.82902	0	
0.3140	-24.2732	-3.26176	0	
0.3147	-21.8664	2.88358	0	
0.3153	-13.3144	5.62535	0	
0.3160	-9.01285	1.93815	0	
0.3167	-9.62736	0.0945437	0	
0.3173	-7.52778	0.0945437	0	
0.3180	-3.53345	-2.64722	0	
0.3187	3.48224	-3.54539	0	
0.3193	14.7483	-2.31632	0	
0.3200	29.7014	-1.41816	0	
0.3207	49.5707	-2.31632	0	
0.3213	58.4299	-5.67262	0	
0.3220	37.3316	-6.90169	0	
0.3227	7.1181	-1.70179	0	
0.3233	-2.30442	2.26905	0	
0.3240	1.02419	0.425447	0	
0.3247	5.63303	-0.472719	0	
0.3253	11.7269	0.709078	0	
0.3260	9.88341	-0.472719	0	
0.3267	-0.81935	-2.03269	0	
0.3273	-5.06973	-0.803621	0	
0.3280	-12.6999	1.32361	0	
0.3287	-37.434	2.88358	0	
0.3293	-55.4085	3.16721	0	
0.3300	-49.3146	3.16721	0	
0.3307	-35.5905	3.16721	0	
0.3313	-26.1168	2.26905	0	
0.3320	-19.7156	1.65451	0	
0.3327	-15.4652	3.78175	0	
0.3333	-10.2419	5.62535	0	
0.3340	-5.68424	3.45085	0	
0.3347	-6.91326	1.65451	0	
0.3353	-6.29875	2.55268	0	
0.3360	-1.68991	1.93815	0	
0.3367	-0.81935	-0.189087	0	
0.3373	-0.512094	0.0945437	0	
0.3380	5.01852	2.26905	0	
0.3387	6.81085	2.88358	0	
0.3393	2.86772	2.88358	0	
0.3400	0.409675	2.88358	0	
0.3407	-2.61168	3.78175	0	
0.3413	-6.29875	5.01082	0	
0.3420	-3.53345	3.16721	0	
0.3427	2.25321	0.425447	0	
0.3433	4.71126	1.93815	0	
0.3440	7.1181	2.55268	0	
0.3447	10.4979	-1.70179	0	
0.3453	11.4197	-2.64722	0	
0.3460	11.1124	-0.803621	0	
0.3467	12.956	-5.05809	0	
0.3473	14.441	-8.13076	0	
0.3480	11.4197	-4.44355	0	
0.3487	5.32577	-1.70179	0	
0.3493	5.01852	-3.54539	0	
0.3500	11.1124	-5.05809	0	
0.3507	12.3415	-4.15992	0	
0.3513	8.65438	-3.82902	0	
0.3520	11.4197	-4.15992	0	
0.3527	18.7426	-2.64722	0	
0.3533	21.5079	-1.70179	0	
0.3540	22.993	-3.82902	0	
0.3547	25.7583	-5.67262	0	
0.3553	25.1438	-4.15992	0	
0.3560	18.7426	-2.03269	0	
0.3567	11.4197	-0.189087	0	
0.3573	2.56047	1.03998	0	
0.3580	-11.4709	-0.803621	0	
0.3587	-24.8878	-3.26176	0	
0.3593	-30.4184	-3.82902	0	
0.3600	-29.8039	-4.77446	0	
0.3607	-26.424	-5.05809	0	
0.3613	-16.643	-2.93085	0	
0.3620	4.71126	-0.803621	0	
0.3627	31.2377	-0.189087	0	
0.3633	47.7271	-0.189087	0	
0.3640	41.6332	0.0945437	0	
0.3647	12.956	1.03998	0	
0.3653	-23.0954	1.32361	0	
0.3660	-48.7001	-0.189087	0	
0.3667	-60.3246	-2.31632	0	
0.3673	-62.7315	-2.64722	0	
0.3680	-55.7158	-2.03269	0	
0.3687	-37.7413	-1.08725	0	
0.3693	-13.6217	-0.189087	0	
0.3700	8.03987	0.0945437	0	
0.3707	18.1281	-1.41816	0	
0.3713	17.5136	-1.70179	0	
0.3720	18.4354	0.425447	0	
0.3727	26.9873	1.03998	0	
0.3733	37.9461	-0.472719	0	
0.3740	41.6332	0.425447	0	
0.3747	24.5293	3.78175	0	
0.3753	-14.5435	2.88358	0	
0.3760	-53.0017	0.0945437	0	
0.3767	-74.0487	0.425447	0	
0.3773	-82.2935	0.709078	0	
0.3780	-77.6846	0.425447	0	
0.3787	-53.0017	1.65451	0	
0.3793	-21.8664	0.425447	0	
0.3800	-4.76247	-3.54539	0	
0.3807	-2.30442	-4.15992	0	
0.3813	-4.45521	-1.70179	0	
0.3820	-4.45521	-1.08725	0	
0.3827	-0.81935	-2.64722	0	
0.3833	1.33144	-2.64722	0	
0.3840	1.94596	-0.472719	0	
0.3847	2.86772	0.425447	0	
0.3853	4.71126	-0.803621	0	
0.3860	10.4979	-2.31632	0	
0.3867	22.0712	-1.41816	0	
0.3873	30.3159	1.03998	0	
0.3880	27.6018	1.65451	0	
0.3887	19.0499	0.425447	0	
0.3893	12.6487	-0.189087	0	
0.3900	12.0342	1.03998	0	
0.3907	13.2632	1.93815	0	
0.3913	10.1907	-0.803621	0	
0.3920	7.42536	-4.15992	0	
0.3927	8.65438	-4.15992	0	
0.3933	8.96164	-2.31632	0	
0.3940	6.81085	-1.70179	0	
0.3947	7.42536	-1.70179	0	
0.3953	8.34713	-2.03269	0	
0.3960	7.42536	-2.64722	0	
0.3967	8.03987	-1.70179	0	
0.3973	10.4979	-1.08725	0	
0.3980	9.57615	-3.26176	0	
0.3987	7.42536	-3.82902	0	
0.3993	8.03987	-3.54539	0	
0.4000	9.57615	-4.77446	0	
0.4007	9.57615	-5.38899	0	
0.4013	8.03987	-3.54539	0	
0.4020	3.78949	-3.82902	0	
0.4027	1.02419	-4.77446	0	
0.4033	1.94596	-3.26176	0	
0.4040	2.86772	-2.03269	0	
0.4047	3.78949	-2.64722	0	
0.4053	9.88341	-3.26176	0	
0.4060	17.5136	-3.54539	0	
0.4067	21.764	-2.64722	0	
0.4073	22.6857	-1.70179	0	
0.4080	19.9717	-2.64722	0	
0.4087	16.5918	-3.54539	0	
0.4093	19.3571	-4.44355	0	
0.4100	21.764	-5.05809	0	
0.4107	15.9773	-4.44355	0	
0.4113	8.34713	-3.54539	0	
0.4120	1.02419	-3.26176	0	
0.4127	-8.14229	-1.70179	0	
0.4133	-9.62736	-0.803621	0	
0.4140	-3.8407	-1.70179	0	
0.4147	-3.53345	-2.93085	0	
0.4153	-7.22052	-2.93085	0	
0.4160	-5.68424	-2.03269	0	
0.4167	-2.91893	-0.803621	0	
0.4173	-0.204837	-1.70179	0	
0.4180	9.88341	-3.82902	0	
0.4187	27.2946	-3.54539	0	
0.4193	44.3473	-0.472719	0	
0.4200	59.915	1.32361	0	
0.4207	66.3673	1.32361	0	
0.4213	46.4981	2.26905	0	
0.4220	2.86772	2.88358	0	
0.4227	-39.8409	-0.472719	0	
0.4233	-66.7258	-3.54539	0	
0.4240	-78.9136	-1.41816	0	
0.4247	-81.0644	0.709078	0	
0.4253	-76.1483	-0.189087	0	
0.4260	-63.9605	0.0945437	0	
0.4267	-45.0642	1.03998	0	
0.4273	-28.5748	1.03998	0	
0.4280	-20.9446	1.65451	0	
0.4287	-17.5648	1.93815	0	
0.4293	-11.4709	0.0945437	0	
0.4300	-1.68991	0.0945437	0	
0.4307	3.78949	0.709078	0	
0.4313	-2.91893	0.0945437	0	
0.4320	-13.3144	-0.189087	0	
0.4327	-15.4652	-1.41816	0	
0.4333	-12.6999	-1.70179	0	
0.4340	-11.4709	1.03998	0	
0.4347	-9.3201	1.03998	0	
0.4353	-6.91326	-2.64722	0	
0.4360	-6.29875	-2.03269	0	
0.4367	-2.91893	0.425447	0	
0.4373	5.63303	0.425447	0	
0.4380	12.956	1.32361	0	
0.4387	14.7483	1.93815	0	
0.4393	14.1338	0.709078	0	
0.4400	13.8777	1.65451	0	
0.4407	12.0342	4.67991	0	
0.4413	8.65438	4.06538	0	
0.4420	3.17498	2.88358	0	
0.4427	-3.53345	3.78175	0	
0.4433	-2.30442	5.29445	0	
0.4440	7.73261	5.62535	0	
0.4447	12.6487	5.62535	0	
0.4453	9.2689	4.67991	0	
0.4460	8.03987	3.16721	0	
0.4467	11.1124	2.55268	0	
0.4473	13.8777	2.88358	0	
0.4480	16.2846	3.78175	0	
0.4487	21.764	4.67991	0	
0.4493	27.6018	4.67991	0	
0.4500	28.2164	3.78175	0	
0.4507	23.9148	3.16721	0	
0.4513	20.2789	2.26905	0	
0.4520	15.9773	1.65451	0	
0.4527	10.8052	1.65451	0	
0.4533	9.57615	3.45085	0	
0.4540	10.8052	5.01082	0	
0.4547	9.57615	3.78175	0	
0.4553	8.65438	2.88358	0	
0.4560	5.63303	3.16721	0	
0.4567	0.102419	1.93815	0	
0.4573	-0.204837	1.03998	0	
0.4580	0.716931	2.88358	0	
0.4587	-5.37698	3.16721	0	
0.4593	-11.7782	1.93815	0	
0.4600	-15.7725	1.93815	0	
0.4607	-24.8878	2.55268	0	
0.4613	-32.8252	1.32361	0	
0.4620	-31.9034	1.93815	0	
0.4627	-26.424	2.55268	0	
0.4633	-14.5435	1.03998	0	
0.4640	-1.0754	0.709078	0	
0.4647	-5.06973	3.16721	0	
0.4653	-24.5805	3.45085	0	
0.4660	-30.9817	0.0945437	0	
0.4667	-10.8564	-0.472719	0	
0.4673	22.0712	1.93815	0	
0.4680	52.8993	1.03998	0	
0.4687	78.5552	-2.31632	0	
0.4693	100.217	-1.41816	0	
0.4700	113.634	3.16721	0	
0.4707	101.446	3.16721	0	
0.4713	48.6489	0.425447	0	
0.4720	-16.3358	1.32361	0	
0.4727	-48.0856	1.65451	0	
0.4733	-54.794	-1.70179	0	
0.4740	-75.8923	-2.31632	0	
0.4747	-101.19	-0.803621	0	
0.4753	-98.1684	-1.70179	0	
0.4760	-75.585	-1.08725	0	
0.4767	-56.023	1.03998	0	
0.4773	-43.2207	1.65451	0	
0.4780	-34.0542	1.32361	0	
0.4787	-26.7313	1.93815	0	
0.4793	-22.7882	1.65451	0	
0.4800	-22.7882	-0.189087	0	
0.4807	-20.9446	-2.31632	0	
0.4813	-15.4652	-2.64722	0	
0.4820	-11.7782	-1.08725	0	
0.4827	-8.44955	-0.189087	0	
0.4833	-3.53345	0.0945437	0	
0.4840	-3.8407	1.65451	0	
0.4847	-6.29875	0.0945437	0	
0.4853	-2.91893	-3.54539	0	
0.4860	1.02419	-4.44355	0	
0.4867	3.17498	-1.70179	0	
0.4873	5.63303	-0.803621	0	
0.4880	5.94029	-2.64722	0	
0.4887	5.63303	-2.31632	0	
0.4893	8.34713	-0.472719	0	
0.4900	10.4979	-0.803621	0	
0.4907	10.1907	-1.70179	0	
0.4913	10.8052	-0.803621	0	
0.4920	11.1124	0.0945437	0	
0.4927	12.0342	1.03998	0	
0.4933	18.1281	1.93815	0	
0.4940	22.993	1.03998	0	
0.4947	19.9717	0.0945437	0	
0.4953	15.6701	0.425447	0	
0.4960	14.1338	0.0945437	0	
0.4967	12.3415	-1.70179	0	
0.4973	11.4197	-2.64722	0	
0.4980	11.1124	-2.03269	0	
0.4987	8.65438	-0.189087	0	
0.4993	9.2689	2.55268	0	
0.5000	12.0342	2.88358	0	
0.5007	12.0342	0.0945437	0	
0.5013	12.6487	-0.472719	0	
0.5020	13.8777	0.709078	0	
0.5027	9.2689	-0.803621	0	
0.5033	5.94029	-2.64722	0	
0.5040	13.2632	-0.803621	0	
0.5047	19.3571	1.03998	0	
0.5053	21.2007	-1.08725	0	
0.5060	30.0087	-2.64722	0	
0.5067	37.6389	-0.189087	0	
0.5073	31.8522	1.03998	0	
0.5080	22.3785	-0.803621	0	
0.5087	17.2063	-0.472719	0	
0.5093	13.2632	0.709078	0	
0.5100	10.1907	0.0945437	0	
0.5107	9.2689	0.0945437	0	
0.5113	12.6487	1.03998	0	
0.5120	27.9091	-0.189087	0	
0.5127	52.2848	-2.03269	0	
0.5133	62.373	0.0945437	0	
0.5140	42.2477	2.88358	0	
0.5147	8.96164	2.26905	0	
0.5153	-12.6999	0.709078	0	
0.5160	-29.8039	0.0945437	0	
0.5167	-55.7158	-2.03269	0	
0.5173	-71.5907	-5.38899	0	
0.5180	-60.0174	-6.00353	0	
0.5187	-40.7627	-3.54539	0	
0.5193	-27.9603	-2.64722	0	
0.5200	-11.1636	-3.54539	0	
0.5207	9.57615	-3.54539	0	
0.5213	23.9148	-3.54539	0	
0.5220	26.9873	-3.82902	0	
0.5227	15.6701	-3.26176	0	
0.5233	-11.1636	-2.93085	0	
0.5240	-45.0642	-3.54539	0	
0.5247	-67.9548	-0.189087	0	
0.5253	-61.8097	3.78175	0	
0.5260	-31.5962	2.88358	0	
0.5267	-6.29875	0.709078	0	
0.5273	-0.512094	0.0945437	0	
0.5280	1.33144	-1.41816	0	
0.5287	7.1181	-1.41816	0	
0.5293	5.94029	0.425447	0	
0.5300	-2.91893	-1.41816	0	
0.5307	-8.14229	-4.44355	0	
0.5313	-11.1636	-3.54539	0	
0.5320	-18.4866	-1.70179	0	
0.5327	-21.2519	-2.64722	0	
0.5333	-14.2362	-2.93085	0	
0.5340	-5.37698	-1.70179	0	
0.5347	-0.512094	-2.31632	0	
0.5353	1.94596	-4.77446	0	
0.5360	1.02419	-5.38899	0	
0.5367	1.02419	-3.26176	0	
0.5373	2.86772	-1.08725	0	
0.5380	1.33144	-0.472719	0	
0.5387	-1.68991	0.0945437	0	
0.5393	-2.61168	-0.189087	0	
0.5400	-3.53345	-1.70179	0	
0.5407	-2.91893	-3.54539	0	
0.5413	1.94596	-4.77446	0	
0.5420	5.01852	-4.44355	0	
0.5427	5.01852	-2.64722	0	
0.5433	6.24754	-2.64722	0	
0.5440	6.24754	-2.93085	0	
0.5447	5.32577	-2.64722	0	
0.5453	7.42536	-1.70179	0	
0.5460	9.57615	-0.189087	0	
0.5467	9.88341	0.0945437	0	
0.5473	11.7269	-1.70179	0	
0.5480	12.3415	-2.03269	0	
0.5487	9.88341	-1.08725	0	
0.5493	11.1124	-0.472719	0	
0.5500	12.0342	0.0945437	0	
0.5507	7.1181	0.709078	0	
0.5513	3.17498	1.65451	0	
0.5520	2.86772	1.93815	0	
0.5527	1.33144	0.709078	0	
0.5533	0.409675	-0.803621	0	
0.5540	3.48224	-0.472719	0	
0.5547	4.71126	-0.189087	0	
0.5553	6.5548	-0.803621	0	
0.5560	16.2846	-0.803621	0	
0.5567	28.8309	1.03998	0	
0.5573	34.003	2.55268	0	
0.5580	30.6232	2.26905	0	
0.5587	24.5293	1.03998	0	
0.5593	19.3571	1.03998	0	
0.5600	13.8777	2.26905	0	
0.5607	5.01852	1.32361	0	
0.5613	-3.8407	-2.64722	0	
0.5620	-13.9289	-5.38899	0	
0.5627	-32.5179	-2.64722	0	
0.5633	-46.8566	1.32361	0	
0.5640	-39.2264	0.425447	0	
0.5647	-23.0954	-2.64722	0	
0.5653	-14.5435	-2.03269	0	
0.5660	-7.52778	-0.803621	0	
0.5667	2.86772	0.0945437	0	
0.5673	12.3415	1.03998	0	
0.5680	21.2007	0.425447	0	
0.5687	25.7583	-0.472719	0	
0.5693	26.6801	0.709078	0	
0.5700	24.8365	1.65451	0	
0.5707	7.1181	-0.189087	0	
0.5713	-19.4084	0.0945437	0	
0.5720	-22.1737	1.93815	0	
0.5727	-4.45521	0.709078	0	
0.5733	4.40401	-1.41816	0	
0.5740	6.81085	-0.803621	0	
0.5747	9.57615	0.0945437	0	
0.5753	2.25321	2.26905	0	
0.5760	-7.22052	5.01082	0	
0.5767	-8.70559	4.06538	0	
0.5773	-20.3301	1.03998	0	
0.5780	-41.9917	1.32361	0	
0.5787	-47.1638	1.32361	0	
0.5793	-36.205	-1.08725	0	
0.5800	-28.2676	-0.803621	0	
0.5807	-23.4027	2.88358	0	
0.5813	-14.8507	3.16721	0	
0.5820	-6.91326	2.88358	0	
0.5827	-1.38265	5.01082	0	
0.5833	4.71126	4.06538	0	
0.5840	16.5918	0.709078	0	
0.5847	34.3103	-0.189087	0	
0.5853	45.2691	1.03998	0	
0.5860	40.4042	1.65451	0	
0.5867	28.8309	2.26905	0	
0.5873	16.2846	1.93815	0	
0.5880	-3.53345	0.0945437	0	
0.5887	-28.5748	1.65451	0	
0.5893	-41.9917	4.67991	0	
0.5900	-33.4397	3.78175	0	
0.5907	-13.3144	1.93815	0	
0.5913	-0.81935	2.88358	0	
0.5920	2.86772	2.88358	0	
0.5927	7.42536	1.93815	0	
0.5933	10.8052	2.88358	0	
0.5940	5.63303	2.55268	0	
0.5947	-1.38265	1.93815	0	
0.5953	-2.61168	3.78175	0	
0.5960	-0.512094	6.23988	0	
0.5967	1.94596	5.90898	0	
0.5973	1.02419	3.45085	0	
0.5980	-5.06973	1.32361	0	
0.5987	-8.14229	1.65451	0	
0.5993	-3.22619	2.26905	0	
0.6000	1.6387	1.93815	0	
0.6007	-0.81935	0.709078	0	
0.6013	-6.91326	0.0945437	0	
0.6020	-11.1636	0.0945437	0	
0.6027	-10.8564	1.32361	0	
0.6033	-5.06973	1.32361	0	
0.6040	2.25321	-0.803621	0	
0.6047	6.5548	-2.31632	0	
0.6053	8.65438	-0.803621	0	
0.6060	12.956	1.03998	0	
0.6067	19.3571	1.65451	0	
0.6073	23.9148	0.709078	0	
0.6080	24.8365	-0.803621	0	
0.6087	22.6857	-1.70179	0	
0.6093	15.6701	-2.64722	0	
0.6100	4.40401	-2.64722	0	
0.6107	-5.68424	-2.64722	0	
0.6113	-15.4652	-2.03269	0	
0.6120	-25.5023	-1.70179	0	
0.6127	-27.9603	-1.70179	0	
0.6133	-20.0229	-1.41816	0	
0.6140	-8.14229	-1.70179	0	
0.6147	1.02419	-2.64722	0	
0.6153	3.78949	-0.803621	0	
0.6160	2.25321	1.65451	0	
0.6167	4.09675	0.0945437	0	
0.6173	6.5548	-1.70179	0	
0.6180	5.63303	-1.70179	0	
0.6187	8.34713	-0.803621	0	
0.6193	11.7269	0.0945437	0	
0.6200	4.71126	1.32361	0	
0.6207	-4.76247	0.425447	0	
0.6213	-4.45521	-1.70179	0	
0.6220	-5.06973	-0.803621	0	
0.6227	-10.5491	0.425447	0	
0.6233	-9.62736	-0.472719	0	
0.6240	-4.76247	-1.70179	0	
0.6247	-4.45521	-0.472719	0	
0.6253	-1.38265	0.425447	0	
0.6260	2.86772	-1.41816	0	
0.6267	-0.81935	-1.70179	0	
0.6273	-7.83503	-0.189087	0	
0.6280	-9.93462	-1.41816	0	
0.6287	-9.01285	-3.26176	0	
0.6293	-2.61168	-3.54539	0	
0.6300	12.3415	-4.44355	0	
0.6307	29.3942	-3.82902	0	
0.6313	43.4768	-0.803621	0	
0.6320	49.5707	-1.70179	0	
0.6327	44.9618	-4.44355	0	
0.6333	31.2377	-3.26176	0	
0.6340	13.8777	0.0945437	0	
0.6347	-1.99717	-0.472719	0	
0.6353	-20.6374	-2.93085	0	
0.6360	-44.4497	-1.70179	0	
0.6367	-57.8666	1.32361	0	
0.6373	-51.1582	1.32361	0	
0.6380	-40.4554	0.0945437	0	
0.6387	-37.434	-0.189087	0	
0.6393	-32.2107	-1.70179	0	
0.6400	-23.4027	-3.82902	0	
0.6407	-12.6999	-3.26176	0	
0.6413	-0.81935	-2.03269	0	
0.6420	10.1907	-0.803621	0	
0.6427	20.2789	0.425447	0	
0.6433	31.545	-0.803621	0	
0.6440	38.5607	-3.54539	0	
0.6447	31.2377	-3.54539	0	
0.6453	12.0342	-3.82902	0	
0.6460	-7.22052	-4.77446	0	
0.6467	-16.3358	-3.54539	0	
0.6473	-17.2576	-3.82902	0	
0.6480	-16.643	-6.00353	0	
0.6487	-9.62736	-5.38899	0	
0.6493	9.57615	-4.77446	0	
0.6500	26.6801	-2.93085	0	
0.6507	30.3159	1.03998	0	
0.6513	28.8309	1.93815	0	
0.6520	27.6018	-1.41816	0	
0.6527	22.3785	-1.70179	0	
0.6533	15.0556	-1.08725	0	
0.6540	3.78949	-3.26176	0	
0.6547	-13.6217	-2.93085	0	
0.6553	-27.3458	-0.472719	0	
0.6560	-38.0486	-1.41816	0	
0.6567	-50.2364	-2.64722	0	
0.6573	-50.2364	0.0945437	0	
0.6580	-32.8252	1.03998	0	
0.6587	-15.7725	-0.803621	0	
0.6593	-1.0754	-0.803621	0	
0.6600	19.9717	0.0945437	0	
0.6607	37.6389	-1.08725	0	
0.6613	41.9405	-1.08725	0	
0.6620	35.232	0.425447	0	
0.6627	21.764	1.03998	0	
0.6633	3.78949	1.03998	0	
0.6640	-15.4652	0.425447	0	
0.6647	-33.4397	-0.803621	0	
0.6653	-37.7413	-1.08725	0	
0.6660	-26.1168	-0.803621	0	
0.6667	-12.6999	-1.41816	0	
0.6673	-7.52778	-0.803621	0	
0.6680	-5.37698	0.0945437	0	
0.6687	-6.29875	-0.189087	0	
0.6693	-12.0854	0.425447	0	
0.6700	-15.7725	1.93815	0	
0.6707	-10.8564	0.709078	0	
0.6713	-1.0754	-0.472719	0	
0.6720	5.63303	-0.189087	0	
0.6727	6.81085	-0.803621	0	
0.6733	4.09675	-1.70179	0	
0.6740	2.25321	-0.189087	0	
0.6747	0.716931	-0.803621	0	
0.6753	-4.45521	-3.54539	0	
0.6760	-9.3201	-2.93085	0	
0.6767	-9.93462	0.0945437	0	
0.6773	-10.8564	-0.803621	0	
0.6780	-17.2576	-3.82902	0	
0.6787	-22.7882	-3.26176	0	
0.6793	-21.8664	0.709078	0	
0.6800	-18.1793	2.26905	0	
0.6807	-13.0072	0.0945437	0	
0.6813	-1.0754	-0.803621	0	
0.6820	17.5136	1.03998	0	
0.6827	36.1538	2.88358	0	
0.6833	55.0501	1.03998	0	
0.6840	66.9306	-1.08725	0	
0.6847	55.3573	-3.54539	0	
0.6853	26.9873	-3.26176	0	
0.6860	5.63303	0.0945437	0	
0.6867	-4.45521	1.32361	0	
0.6873	-13.6217	-1.08725	0	
0.6880	-25.195	-1.70179	0	
0.6887	-34.6687	-0.803621	0	
0.6893	-35.2833	-3.82902	0	
0.6900	-23.966	-4.15992	0	
0.6907	-13.6217	1.03998	0	
0.6913	-9.01285	3.16721	0	
0.6920	-2.61168	0.0945437	0	
0.6927	4.09675	-0.803621	0	
0.6933	6.24754	1.65451	0	
0.6940	8.34713	1.93815	0	
0.6947	10.8052	0.425447	0	
0.6953	15.3628	0.0945437	0	
0.6960	26.0656	-0.803621	0	
0.6967	34.9248	-1.70179	0	
0.6973	34.9248	-2.64722	0	
0.6980	27.9091	-4.44355	0	
0.6987	14.1338	-5.67262	0	
0.6993	-3.53345	-2.64722	0	
0.7000	-18.1793	-0.189087	0	
0.7007	-30.7256	-0.189087	0	
0.7013	-38.0486	1.65451	0	
0.7020	-30.9817	2.55268	0	
0.7027	-13.3144	-0.472719	0	
0.7033	1.02419	-2.64722	0	
0.7040	12.0342	-2.03269	0	
0.7047	22.993	-1.41816	0	
0.7053	25.1438	-2.03269	0	
0.7060	14.7483	-1.08725	0	
0.7067	0.102419	1.93815	0	
0.7073	-17.5648	1.93815	0	
0.7080	-36.5123	-0.189087	0	
0.7087	-42.9135	1.65451	0	
0.7093	-33.4397	4.39628	0	
0.7100	-21.8664	2.88358	0	
0.7107	-16.3358	1.65451	0	
0.7113	-13.0072	2.88358	0	
0.7120	-10.8564	1.03998	0	
0.7127	-8.70559	-1.70179	0	
0.7133	-5.9915	-0.189087	0	
0.7140	-5.06973	1.65451	0	
0.7147	-2.30442	1.32361	0	
0.7153	2.86772	1.03998	0	
0.7160	4.71126	1.93815	0	
0.7167	1.33144	4.39628	0	
0.7173	-1.38265	4.06538	0	
0.7180	-2.91893	1.93815	0	
0.7187	-3.53345	1.65451	0	
0.7193	-1.0754	1.93815	0	
0.7200	2.56047	0.425447	0	
0.7207	1.94596	0.0945437	0	
0.7213	-3.53345	0.425447	0	
0.7220	-10.2419	0.0945437	0	
0.7227	-12.6999	1.65451	0	
0.7233	-5.68424	0.709078	0	
0.7240	8.65438	-1.70179	0	
0.7247	19.3571	0.425447	0	
0.7253	19.3571	4.06538	0	
0.7260	15.9773	2.26905	0	
0.7267	17.2063	-0.189087	0	
0.7273	19.3571	0.0945437	0	
0.7280	17.8209	-0.803621	0	
0.7287	15.9773	-0.803621	0	
0.7293	20.8934	-0.803621	0	
0.7300	28.5236	-1.70179	0	
0.7307	31.2377	-1.08725	0	
0.7313	33.3885	-1.70179	0	
0.7320	41.6332	-4.44355	0	
0.7327	49.5707	-1.08725	0	
0.7333	49.5707	2.88358	0	
0.7340	34.6175	-1.70179	0	
0.7347	6.5548	-4.44355	0	
0.7353	-15.4652	-2.03269	0	
0.7360	-20.6374	-3.26176	0	
0.7367	-20.0229	-3.82902	0	
0.7373	-13.6217	-1.08725	0	
0.7380	4.09675	-2.03269	0	
0.7387	17.2063	-2.64722	0	
0.7393	15.3628	1.32361	0	
0.7400	7.1181	2.26905	0	
0.7407	1.02419	1.03998	0	
0.7413	-3.8407	0.709078	0	
0.7420	-18.1793	0.425447	0	
0.7427	-44.4497	3.16721	0	
0.7433	-58.4811	8.03621	0	
0.7440	-50.2364	6.80715	0	
0.7447	-39.2264	3.16721	0	
0.7453	-31.2889	2.88358	0	
0.7460	-19.4084	2.26905	0	
0.7467	-11.7782	1.32361	0	
0.7473	-5.37698	3.78175	0	
0.7480	7.1181	5.01082	0	
0.7487	13.8777	2.26905	0	
0.7493	14.441	1.32361	0	
0.7500	22.6857	3.16721	0	
0.7507	32.1595	3.45085	0	
0.7513	29.7014	1.93815	0	
0.7520	21.2007	1.03998	0	
0.7527	14.441	0.709078	0	
0.7533	8.96164	-1.08725	0	
0.7540	-1.68991	-2.64722	0	
0.7547	-17.2576	-0.803621	0	
0.7553	-26.1168	0.709078	0	
0.7560	-21.8664	-0.189087	0	
0.7567	-15.7725	-1.70179	0	
0.7573	-13.9289	-1.70179	0	
0.7580	-13.6217	0.425447	0	
0.7587	-12.6999	2.26905	0	
0.7593	-13.3144	1.93815	0	
0.7600	-13.3144	1.03998	0	
0.7607	-9.01285	0.425447	0	
0.7613	1.02419	-0.803621	0	
0.7620	11.7269	-2.03269	0	
0.7627	15.9773	-2.64722	0	
0.7633	14.441	-3.54539	0	
0.7640	14.1338	-2.31632	0	
0.7647	16.2846	-0.803621	0	
0.7653	16.5918	-0.803621	0	
0.7660	15.3628	1.03998	0	
0.7667	13.8777	2.88358	0	
0.7673	4.71126	1.03998	0	
0.7680	-9.93462	0.0945437	0	
0.7687	-19.1011	1.93815	0	
0.7693	-24.2732	2.88358	0	
0.7700	-28.2676	3.78175	0	
0.7707	-25.5023	3.78175	0	
0.7713	-18.4866	1.93815	0	
0.7720	-14.5435	0.709078	0	
0.7727	-9.3201	0.0945437	0	
0.7733	-2.61168	-0.803621	0	
0.7740	2.56047	-1.70179	0	
0.7747	6.24754	-3.82902	0	
0.7753	5.63303	-5.38899	0	
0.7760	0.409675	-2.64722	0	
0.7767	-1.68991	-0.803621	0	
0.7773	-0.204837	-2.64722	0	
0.7780	0.102419	-3.82902	0	
0.7787	1.02419	-5.38899	0	
0.7793	-1.38265	-6.90169	0	
0.7800	-10.2419	-5.38899	0	
0.7807	-15.7725	-3.54539	0	
0.7813	-14.5435	-3.54539	0	
0.7820	-12.6999	-3.54539	0	
0.7827	-9.93462	-5.05809	0	
0.7833	-7.22052	-6.00353	0	
0.7840	-4.76247	-2.31632	0	
0.7847	0.716931	0.0945437	0	
0.7853	8.65438	-2.64722	0	
0.7860	13.2632	-5.05809	0	
0.7867	16.5918	-5.38899	0	
0.7873	20.5862	-5.05809	0	
0.7880	24.8365	-3.54539	0	
0.7887	34.9248	-2.64722	0	
0.7893	47.1126	-2.64722	0	
0.7900	48.6489	-1.70179	0	
0.7907	42.2477	-1.08725	0	
0.7913	34.9248	-0.472719	0	
0.7920	21.2007	0.425447	0	
0.7927	0.102419	-1.70179	0	
0.7933	-10.8564	-3.82902	0	
0.7940	-9.01285	-1.41816	0	
0.7947	-13.9289	-1.41816	0	
0.7953	-23.966	-5.38899	0	
0.7960	-20.0229	-5.38899	0	
0.7967	-4.14796	-2.93085	0	
0.7973	5.01852	-3.82902	0	
0.7980	4.09675	-2.93085	0	
0.7987	-1.38265	-1.08725	0	
0.7993	-6.29875	-2.31632	0	
0.8000	-8.44955	-0.803621	0	
0.8007	-16.643	1.93815	0	
0.8013	-30.1111	0.0945437	0	
0.8020	-31.9034	-1.41816	0	
0.8027	-19.1011	1.32361	0	
0.8033	-9.01285	1.03998	0	
0.8040	-9.01285	-0.803621	0	
0.8047	-13.3144	1.03998	0	
0.8053	-12.3927	0.425447	0	
0.8060	-3.8407	-0.472719	0	
0.8067	1.6387	2.26905	0	
0.8073	-2.91893	2.88358	0	
0.8080	-6.60601	1.93815	0	
0.8087	-1.68991	2.88358	0	
0.8093	6.24754	1.03998	0	
0.8100	11.4197	-0.803621	0	
0.8107	13.2632	1.93815	0	
0.8113	12.3415	3.78175	0	
0.8120	12.956	0.0945437	0	
0.8127	15.0556	-1.41816	0	
0.8133	14.1338	0.709078	0	
0.8140	5.63303	1.93815	0	
0.8147	-5.37698	1.93815	0	
0.8153	-6.29875	0.0945437	0	
0.8160	0.102419	-0.803621	0	
0.8167	-1.68991	0.0945437	0	
0.8173	-6.29875	-0.803621	0	
0.8180	-1.0754	-0.803621	0	
0.8187	2.86772	1.03998	0	
0.8193	-2.61168	1.03998	0	
0.8200	-5.68424	1.03998	0	
0.8207	-1.99717	3.78175	0	
0.8213	-1.38265	2.88358	0	
0.8220	-2.91893	-1.70179	0	
0.8227	-5.9915	-1.70179	0	
0.8233	-16.3358	1.03998	0	
0.8240	-26.7313	2.55268	0	
0.8247	-22.7882	3.16721	0	
0.8253	-10.5491	2.88358	0	
0.8260	-2.30442	1.93815	0	
0.8267	2.56047	0.425447	0	
0.8273	5.01852	-0.803621	0	
0.8280	5.01852	-0.189087	0	
0.8287	7.1181	2.88358	0	
0.8293	7.1181	4.39628	0	
0.8300	0.102419	2.88358	0	
0.8307	-8.14229	1.32361	0	
0.8313	-12.6999	-0.189087	0	
0.8320	-13.3144	-1.70179	0	
0.8327	-8.14229	-1.08725	0	
0.8333	2.86772	0.709078	0	
0.8340	24.222	1.32361	0	
0.8347	61.4512	1.93815	0	
0.8353	93.5083	2.88358	0	
0.8360	94.7373	2.88358	0	
0.8367	73.383	2.88358	0	
0.8373	42.8622	3.78175	0	
0.8380	-1.68991	3.16721	0	
0.8387	-44.757	0.0945437	0	
0.8393	-57.5593	-0.803621	0	
0.8400	-47.7783	-0.189087	0	
0.8407	-35.8978	-2.31632	0	
0.8413	-22.7882	-4.44355	0	
0.8420	-10.8564	-5.05809	0	
0.8427	-7.52778	-5.05809	0	
0.8433	-8.14229	-4.44355	0	
0.8440	-8.70559	-4.44355	0	
0.8447	-10.5491	-5.38899	0	
0.8453	-11.1636	-6.28716	0	
0.8460	-3.53345	-5.38899	0	
0.8467	12.956	-4.15992	0	
0.8473	28.2164	-4.44355	0	
0.8480	32.1595	-3.26176	0	
0.8487	28.2164	-0.189087	0	
0.8493	22.3785	0.0945437	0	
0.8500	18.4354	-1.70179	0	
0.8507	16.5918	0.0945437	0	
0.8513	8.03987	2.55268	0	
0.8520	-12.6999	1.93815	0	
0.8527	-25.5023	0.709078	0	
0.8533	-18.1793	1.03998	0	
0.8540	-10.8564	0.425447	0	
0.8547	-13.9289	-0.803621	0	
0.8553	-13.6217	-0.472719	0	
0.8560	-9.93462	0.0945437	0	
0.8567	-16.0285	1.65451	0	
0.8573	-25.195	1.93815	0	
0.8580	-22.7882	-0.472719	0	
0.8587	-13.0072	-2.31632	0	
0.8593	-5.9915	-0.472719	0	
0.8600	-5.9915	1.03998	0	
0.8607	-13.0072	0.425447	0	
0.8613	-21.8664	0.0945437	0	
0.8620	-21.8664	-0.472719	0	
0.8627	-13.6217	-1.08725	0	
0.8633	-7.52778	0.0945437	0	
0.8640	-2.61168	0.709078	0	
0.8647	1.94596	-1.08725	0	
0.8653	1.94596	-0.472719	0	
0.8660	0.409675	1.93815	0	
0.8667	-0.81935	2.88358	0	
0.8673	-3.8407	2.55268	0	
0.8680	-4.45521	-0.189087	0	
0.8687	1.02419	-3.82902	0	
0.8693	4.09675	-2.93085	0	
0.8700	2.86772	-0.189087	0	
0.8707	1.33144	0.709078	0	
0.8713	-1.38265	2.88358	0	
0.8720	-0.512094	4.67991	0	
0.8727	5.63303	2.55268	0	
0.8733	8.65438	1.65451	0	
0.8740	12.0342	2.88358	0	
0.8747	20.8934	1.32361	0	
0.8753	24.8365	-0.472719	0	
0.8760	21.2007	-0.189087	0	
0.8767	18.4354	-2.03269	0	
0.8773	17.5136	-3.54539	0	
0.8780	13.8777	-0.803621	0	
0.8787	8.03987	0.0945437	0	
0.8793	-3.53345	0.425447	0	
0.8800	-20.9446	2.88358	0	
0.8807	-31.5962	3.78175	0	
0.8813	-28.8821	1.03998	0	
0.8820	-17.8721	1.32361	0	
0.8827	-9.62736	3.78175	0	
0.8833	-8.14229	2.88358	0	
0.8840	-6.60601	2.55268	0	
0.8847	-4.76247	3.78175	0	
0.8853	-8.70559	1.65451	0	
0.8860	-13.3144	-2.03269	0	
0.8867	-12.6999	-0.803621	0	
0.8873	-12.0854	1.03998	0	
0.8880	-11.4709	-0.472719	0	
0.8887	-8.14229	-0.803621	0	
0.8893	-4.14796	1.03998	0	
0.8900	0.102419	1.03998	0	
0.8907	5.01852	-0.803621	0	
0.8913	7.42536	-0.189087	0	
0.8920	7.1181	1.93815	0	
0.8927	6.5548	1.93815	0	
0.8933	6.5548	1.03998	0	
0.8940	10.4979	0.425447	0	
0.8947	15.6701	-1.41816	0	
0.8953	12.956	-3.26176	0	
0.8960	6.81085	-3.26176	0	
0.8967	11.1124	-3.54539	0	
0.8973	21.2007	-4.44355	0	
0.8980	22.6857	-3.54539	0	
0.8987	12.956	-2.03269	0	
0.8993	0.716931	-3.54539	0	
0.9000	-6.91326	-4.15992	0	
0.9007	-6.29875	-2.03269	0	
0.9013	-0.204837	-1.70179	0	
0.9020	7.1181	-2.93085	0	
0.9027	17.5136	-3.54539	0	
0.9033	30.0087	-2.64722	0	
0.9040	39.4824	-0.803621	0	
0.9047	47.4199	1.03998	0	
0.9053	51.4142	1.03998	0	
0.9060	35.8466	0.425447	0	
0.9067	-3.53345	0.0945437	0	
0.9073	-40.1481	-0.803621	0	
0.9080	-48.0856	-0.803621	0	
0.9087	-28.5748	0.0945437	0	
0.9093	-1.38265	-1.70179	0	
0.9100	16.5918	-2.31632	0	
0.9107	18.1281	0.709078	0	
0.9113	5.32577	1.93815	0	
0.9120	-14.5435	0.0945437	0	
0.9127	-35.5905	0.425447	0	
0.9133	-52.3872	0.0945437	0	
0.9140	-58.4811	-1.08725	0	
0.9147	-45.986	1.32361	0	
0.9153	-27.0385	2.88358	0	
0.9160	-17.8721	-0.803621	0	
0.9167	-17.2576	-1.70179	0	
0.9173	-15.158	0.0945437	0	
0.9180	-9.62736	-1.08725	0	
0.9187	-5.06973	-0.189087	0	
0.9193	-2.91893	1.93815	0	
0.9200	-3.53345	-0.472719	0	
0.9207	-5.37698	-0.803621	0	
0.9213	-9.01285	2.55268	0	
0.9220	-16.9503	1.32361	0	
0.9227	-23.4027	-0.803621	0	
0.9233	-17.5648	0.0945437	0	
0.9240	-4.76247	0.425447	0	
0.9247	2.86772	0.425447	0	
0.9253	6.5548	1.93815	0	
0.9260	10.1907	-0.472719	0	
0.9267	11.1124	-2.31632	0	
0.9273	7.73261	1.65451	0	
0.9280	2.25321	2.26905	0	
0.9287	-5.37698	-2.64722	0	
0.9293	-14.5435	-4.44355	0	
0.9300	-21.8664	-2.31632	0	
0.9307	-21.2519	-2.31632	0	
0.9313	-13.6217	-3.26176	0	
0.9320	-6.91326	-2.64722	0	
0.9327	-2.91893	-1.70179	0	
0.9333	2.86772	-2.64722	0	
0.9340	6.81085	-3.82902	0	
0.9347	7.42536	-4.44355	0	
0.9353	15.9773	-1.70179	0	
0.9360	30.0087	1.03998	0	
0.9367	31.8522	0.0945437	0	
0.9373	20.8934	-2.31632	0	
0.9380	11.7269	-2.31632	0	
0.9387	7.1181	-0.803621	0	
0.9393	2.86772	-1.08725	0	
0.9400	4.40401	-2.31632	0	
0.9407	12.956	-2.03269	0	
0.9413	21.2007	-2.03269	0	
0.9420	26.0656	-1.41816	0	
0.9427	28.8309	1.93815	0	
0.9433	25.7583	3.16721	0	
0.9440	22.6857	-0.472719	0	
0.9447	27.9091	-2.31632	0	
0.9453	31.2377	0.425447	0	
0.9460	22.993	1.93815	0	
0.9467	12.0342	0.0945437	0	
0.9473	5.94029	-1.41816	0	
0.9480	2.86772	-0.803621	0	
0.9487	2.25321	-0.189087	0	
0.9493	1.6387	-1.08725	0	
0.9500	-0.81935	-2.31632	0	
0.9507	0.102419	-1.08725	0	
0.9513	1.02419	0.709078	0	
0.9520	-1.68991	-1.08725	0	
0.9527	1.02419	-3.54539	0	
0.9533	9.2689	-1.08725	0	
0.9540	4.71126	1.93815	0	
0.9547	-16.0285	-0.189087	0	
0.9553	-31.9034	-2.31632	0	
0.9560	-32.8252	-0.803621	0	
0.9567	-30.1111	-1.41816	0	
0.9573	-26.424	-2.93085	0	
0.9580	-12.0854	-0.472719	0	
0.9587	10.1907	1.03998	0	
0.9593	26.6801	-1.70179	0	
0.9600	31.8522	-1.70179	0	
0.9607	30.0087	1.32361	0	
0.9613	27.6018	1.93815	0	
0.9620	26.6801	1.03998	0	
0.9627	17.5136	1.93815	0	
0.9633	-9.62736	2.88358	0	
0.9640	-34.6687	1.93815	0	
0.9647	-35.5905	1.32361	0	
0.9653	-30.9817	2.55268	0	
0.9660	-39.2264	1.93815	0	
0.9667	-42.9135	-0.803621	0	
0.9673	-31.9034	-0.803621	0	
0.9680	-23.4027	0.0945437	0	
0.9687	-20.9446	-1.70179	0	
0.9693	-16.3358	-2.64722	0	
0.9700	-11.7782	0.425447	0	
0.9707	-8.70559	0.709078	0	
0.9713	-4.45521	-2.03269	0	
0.9720	-2.30442	-1.70179	0	
0.9727	-2.61168	0.709078	0	
0.9733	-2.61168	0.0945437	0	
0.9740	-1.68991	-0.803621	0	
0.9747	3.78949	0.0945437	0	
0.9753	9.57615	0.0945437	0	
0.9760	8.65438	-0.472719	0	
0.9767	3.78949	-0.472719	0	
0.9773	-1.0754	-0.189087	0	
0.9780	-8.44955	0.0945437	0	
0.9787	-12.3927	1.03998	0	
0.9793	-8.70559	1.03998	0	
0.9800	-2.30442	0.709078	0	
0.9807	4.71126	1.93815	0	
0.9813	8.65438	2.55268	0	
0.9820	6.81085	1.93815	0	
0.9827	7.42536	1.03998	0	
0.9833	12.3415	0.709078	0	
0.9840	14.441	1.03998	0	
0.9847	16.8991	1.93815	0	
0.9853	21.764	-0.803621	0	
0.9860	20.5862	-2.64722	0	
0.9867	18.4354	-0.189087	0	
0.9873	22.0712	1.32361	0	
0.9880	22.6857	-1.70179	0	
0.9887	16.5918	-2.64722	0	
0.9893	9.2689	0.0945437	0	
0.9900	1.02419	-1.08725	0	
0.9907	-5.37698	-2.64722	0	
0.9913	-7.83503	1.03998	0	
0.9920	-6.91326	3.45085	0	
0.9927	-1.38265	-0.189087	0	
0.9933	6.24754	-3.26176	0	
0.9940	9.2689	-0.803621	0	
0.9947	8.03987	0.0945437	0	
0.9953	10.4979	-3.26176	0	
0.9960	16.5918	-4.44355	0	
0.9967	15.9773	-0.803621	0	
0.9973	6.24754	-0.803621	0	
0.9980	-0.81935	-3.26176	0	
0.9987	-5.9915	-0.803621	0	
0.9993	-20.0229	1.32361	0	
1.0000	-35.8978	-0.803621	0	
1.0007	-39.2264	-1.70179	0	
1.0013	-34.0542	-2.64722	0	
1.0020	-26.424	-5.38899	0	
1.0027	-13.6217	-5.38899	0	
1.0033	4.71126	-3.82902	0	
1.0040	21.2007	-5.05809	0	
1.0047	30.9305	-3.54539	0	
1.0053	30.3159	-0.803621	0	
1.0060	14.441	-0.803621	0	
1.0067	-15.4652	-0.803621	0	
1.0073	-39.2264	1.32361	0	
1.0080	-44.4497	1.32361	0	
1.0087	-38.6119	0.425447	0	
1.0093	-28.2676	-0.803621	0	
1.0100	-13.0072	-1.70179	0	
1.0107	-4.14796	0.425447	0	
1.0113	-6.91326	1.93815	0	
1.0120	-9.3201	-2.03269	0	
1.0127	-6.60601	-4.15992	0	
1.0133	-5.68424	-2.64722	0	
1.0140	-7.22052	-3.54539	0	
1.0147	-4.45521	-4.77446	0	
1.0153	0.716931	-2.64722	0	
1.0160	2.25321	-0.189087	0	
1.0167	5.94029	0.425447	0	
1.0173	19.0499	0.709078	0	
1.0180	32.774	0.709078	0	
1.0187	35.5393	0.0945437	0	
1.0193	29.1381	-1.70179	0	
1.0200	18.4354	-1.70179	0	
1.0207	5.94029	1.93815	0	
1.0213	-2.91893	3.16721	0	
1.0220	-7.22052	-0.189087	0	
1.0227	-6.29875	-1.70179	0	
1.0233	4.71126	0.0945437	0	
1.0240	18.1281	1.03998	0	
1.0247	15.3628	1.03998	0	
1.0253	0.716931	1.03998	0	
1.0260	-9.01285	1.03998	0	
1.0267	-16.3358	-0.803621	0	
1.0273	-24.5805	-2.03269	0	
1.0280	-24.5805	-1.41816	0	
1.0287	-16.3358	-0.803621	0	
1.0293	-9.3201	-2.03269	0	
1.0300	-8.14229	-2.93085	0	
1.0307	-13.6217	-1.70179	0	
1.0313	-22.7882	-0.803621	0	
1.0320	-27.6531	-1.70179	0	
1.0327	-23.6587	-2.03269	0	
1.0333	-14.5435	-1.70179	0	
1.0340	-7.22052	-0.803621	0	
1.0347	-3.53345	-1.41816	0	
1.0353	-0.204837	-2.93085	0	
1.0360	4.09675	-2.64722	0	
1.0367	5.94029	-0.189087	0	
1.0373	4.71126	0.0945437	0	
1.0380	4.09675	-2.64722	0	
1.0387	4.09675	-3.26176	0	
1.0393	1.02419	-1.08725	0	
1.0400	-0.81935	0.0945437	0	
1.0407	3.48224	-0.803621	0	
1.0413	12.0342	-1.70179	0	
1.0420	18.4354	-0.189087	0	
1.0427	19.3571	1.03998	0	
1.0433	16.5918	-0.803621	0	
1.0440	15.6701	-3.26176	0	
1.0447	15.9773	-3.82902	0	
1.0453	10.1907	-2.64722	0	
1.0460	0.716931	-0.803621	0	
1.0467	-2.91893	0.0945437	0	
1.0473	-5.37698	-0.803621	0	
1.0480	-15.4652	-1.08725	0	
1.0487	-22.7882	0.425447	0	
1.0493	-16.3358	1.65451	0	
1.0500	-7.22052	1.03998	0	
1.0507	-4.14796	0.709078	0	
1.0513	0.409675	0.0945437	0	
1.0520	8.96164	0.709078	0	
1.0527	11.7269	1.65451	0	
1.0533	5.94029	0.709078	0	
1.0540	1.94596	-0.803621	0	
1.0547	5.32577	-0.189087	0	
1.0553	9.88341	-0.189087	0	
1.0560	11.1124	-0.803621	0	
1.0567	12.956	1.03998	0	
1.0573	16.2846	1.93815	0	
1.0580	17.8209	1.03998	0	
1.0587	17.2063	0.0945437	0	
1.0593	16.2846	0.425447	0	
1.0600	18.7426	0.709078	0	
1.0607	25.7583	2.55268	0	
1.0613	30.6232	2.88358	0	
1.0620	29.3942	1.32361	0	
1.0627	24.8365	2.26905	0	
1.0633	12.0342	2.88358	0	
1.0640	-13.0072	1.32361	0	
1.0647	-34.3615	2.55268	0	
1.0653	-36.205	3.78175	0	
1.0660	-31.9034	2.26905	0	
1.0667	-33.747	2.88358	0	
1.0673	-33.747	4.67991	0	
1.0680	-24.8878	2.55268	0	
1.0687	-14.8507	1.03998	0	
1.0693	-9.93462	1.03998	0	
1.0700	-7.52778	0.0945437	0	
1.0707	-4.45521	-0.803621	0	
1.0713	-6.29875	0.0945437	0	
1.0720	-9.62736	-0.189087	0	
1.0727	0.102419	0.0945437	0	
1.0733	16.5918	-0.803621	0	
1.0740	19.0499	-2.64722	0	
1.0747	9.2689	-3.26176	0	
1.0753	3.78949	-2.31632	0	
1.0760	5.94029	-2.03269	0	
1.0767	7.1181	-0.803621	0	
1.0773	-3.53345	0.0945437	0	
1.0780	-25.5023	-1.08725	0	
1.0787	-39.5336	-1.70179	0	
1.0793	-36.5123	0.0945437	0	
1.0800	-26.424	1.93815	0	
1.0807	-15.4652	1.93815	0	
1.0813	-0.204837	0.709078	0	
1.0820	18.4354	-0.803621	0	
1.0827	38.8679	-0.189087	0	
1.0833	55.0501	2.88358	0	
1.0840	55.3573	3.78175	0	
1.0847	40.4042	1.93815	0	
1.0853	23.3003	1.93815	0	
1.0860	8.03987	5.62535	0	
1.0867	-12.6999	5.90898	0	
1.0873	-34.3615	1.93815	0	
1.0880	-39.5336	0.0945437	0	
1.0887	-30.1111	-0.189087	0	
1.0893	-24.5805	-1.70179	0	
1.0900	-27.3458	-1.41816	0	
1.0907	-25.5023	1.65451	0	
1.0913	-19.4084	2.55268	0	
1.0920	-15.4652	1.93815	0	
1.0927	-12.6999	2.88358	0	
1.0933	-9.93462	3.78175	0	
1.0940	-10.5491	2.26905	0	
1.0947	-11.7782	1.03998	0	
1.0953	-12.3927	1.03998	0	
1.0960	-11.1636	1.03998	0	
1.0967	-3.53345	1.32361	0	
1.0973	9.2689	2.26905	0	
1.0980	15.3628	3.78175	0	
1.0987	12.956	2.88358	0	
1.0993	11.7269	-0.472719	0	
1.1000	12.0342	-0.189087	0	
1.1007	7.73261	1.93815	0	
1.1013	-0.81935	0.0945437	0	
1.1020	-9.93462	-0.472719	0	
1.1027	-16.3358	1.65451	0	
1.1033	-17.2576	-0.803621	0	
1.1040	-15.158	-3.26176	0	
1.1047	-12.0854	-0.803621	0	
1.1053	-8.44955	-1.08725	0	
1.1060	-4.76247	-4.44355	0	
1.1067	-0.81935	-1.70179	0	
1.1073	8.96164	0.0945437	0	
1.1080	23.9148	-2.93085	0	
1.1087	37.3316	-3.54539	0	
1.1093	45.8836	-1.70179	0	
1.1100	40.7114	-1.70179	0	
1.1107	16.5918	-0.803621	0	
1.1113	-7.83503	0.0945437	0	
1.1120	-10.5491	-1.41816	0	
1.1127	-3.53345	-1.08725	0	
1.1133	-4.76247	0.425447	0	
1.1140	-7.22052	-0.803621	0	
1.1147	-0.81935	-2.93085	0	
1.1153	5.32577	-2.64722	0	
1.1160	3.78949	-2.93085	0	
1.1167	3.78949	-5.38899	0	
1.1173	11.1124	-6.00353	0	
1.1180	19.3571	-4.44355	0	
1.1187	21.2007	-3.82902	0	
1.1193	19.3571	-6.00353	0	
1.1200	18.1281	-6.28716	0	
1.1207	16.5918	-4.77446	0	
1.1213	13.2632	-4.77446	0	
1.1220	5.01852	-5.38899	0	
1.1227	-8.70559	-4.77446	0	
1.1233	-21.8664	-3.54539	0	
1.1240	-29.4966	-3.82902	0	
1.1247	-30.1111	-6.90169	0	
1.1253	-17.2576	-9.02892	0	
1.1260	6.5548	-6.28716	0	
1.1267	28.5236	-5.38899	0	
1.1273	43.1695	-9.64346	0	
1.1280	49.2634	-9.64346	0	
1.1287	42.2477	-5.05809	0	
1.1293	29.3942	-4.44355	0	
1.1300	22.0712	-5.38899	0	
1.1307	15.6701	-2.64722	0	
1.1313	1.94596	-0.803621	0	
1.1320	-10.2419	-1.70179	0	
1.1327	-10.5491	-2.31632	0	
1.1333	-5.37698	-2.93085	0	
1.1340	-4.14796	-4.15992	0	
1.1347	-4.76247	-3.54539	0	
1.1353	-1.0754	-2.03269	0	
1.1360	5.32577	-1.41816	0	
1.1367	8.03987	-1.41816	0	
1.1373	7.1181	-2.64722	0	
1.1380	8.34713	-3.26176	0	
1.1387	9.88341	-1.70179	0	
1.1393	2.86772	-1.70179	0	
1.1400	-13.6217	-3.54539	0	
1.1407	-34.6687	-4.44355	0	
1.1413	-48.3929	-2.64722	0	
1.1420	-43.2207	-1.08725	0	
1.1427	-24.5805	-0.803621	0	
1.1433	-10.5491	-0.189087	0	
1.1440	-6.29875	-0.189087	0	
1.1447	-4.45521	-0.803621	0	
1.1453	-1.0754	-1.70179	0	
1.1460	2.86772	-2.03269	0	
1.1467	5.01852	-1.70179	0	
1.1473	5.01852	-0.472719	0	
1.1480	6.5548	1.03998	0	
1.1487	10.1907	1.93815	0	
1.1493	10.1907	1.32361	0	
1.1500	7.42536	0.709078	0	
1.1507	6.24754	1.32361	0	
1.1513	1.94596	2.55268	0	
1.1520	-9.93462	2.88358	0	
1.1527	-18.1793	3.45085	0	
1.1533	-15.4652	1.65451	0	
1.1540	-9.01285	0.0945437	0	
1.1547	-4.76247	2.88358	0	
1.1553	-3.8407	4.39628	0	
1.1560	-9.62736	1.03998	0	
1.1567	-18.1793	1.03998	0	
1.1573	-22.7882	3.45085	0	
1.1580	-22.7882	1.65451	0	
1.1587	-18.1793	1.03998	0	
1.1593	-10.5491	3.45085	0	
1.1600	-5.06973	3.16721	0	
1.1607	3.17498	3.78175	0	
1.1613	19.3571	7.13805	0	
1.1620	33.0813	5.62535	0	
1.1627	39.7897	1.03998	0	
1.1633	38.2534	0.709078	0	
1.1640	20.8934	1.65451	0	
1.1647	-5.06973	1.32361	0	
1.1653	-20.0229	2.55268	0	
1.1660	-25.5023	3.78175	0	
1.1667	-30.4184	2.88358	0	
1.1673	-32.5179	2.88358	0	
1.1680	-30.9817	3.45085	0	
1.1687	-29.1893	2.88358	0	
1.1693	-23.4027	3.16721	0	
1.1700	-13.0072	4.39628	0	
1.1707	-3.8407	4.67991	0	
1.1713	1.02419	4.06538	0	
1.1720	2.86772	2.26905	0	
1.1727	2.86772	1.32361	0	
1.1733	2.86772	2.88358	0	
1.1740	2.86772	1.93815	0	
1.1747	1.94596	-0.803621	0	
1.1753	0.409675	1.32361	0	
1.1760	-0.512094	5.62535	0	
1.1767	-1.68991	5.01082	0	
1.1773	-4.14796	1.93815	0	
1.1780	-3.53345	1.93815	0	
1.1787	2.86772	2.88358	0	
1.1793	10.1907	1.93815	0	
1.1800	11.1124	-0.189087	0	
1.1807	6.5548	0.425447	0	
1.1813	2.86772	1.65451	0	
1.1820	5.32577	0.0945437	0	
1.1827	8.96164	-0.803621	0	
1.1833	12.0342	1.32361	0	
1.1840	20.2789	1.65451	0	
1.1847	30.0087	0.0945437	0	
1.1853	32.774	1.93815	0	
1.1860	32.1595	2.88358	0	
1.1867	30.3159	1.65451	0	
1.1873	23.9148	0.709078	0	
1.1880	17.5136	0.709078	0	
1.1887	13.2632	1.03998	0	
1.1893	2.86772	3.16721	0	
1.1900	-8.44955	3.16721	0	
1.1907	-8.44955	-0.472719	0	
1.1913	-1.38265	-1.41816	0	
1.1920	6.5548	1.32361	0	
1.1927	17.2063	1.32361	0	
1.1933	24.222	-0.189087	0	
1.1940	18.4354	0.425447	0	
1.1947	4.09675	1.32361	0	
1.1953	-8.70559	1.03998	0	
1.1960	-23.0954	2.55268	0	
1.1967	-41.9917	2.55268	0	
1.1973	-52.0799	-0.472719	0	
1.1980	-42.9135	-0.803621	0	
1.1987	-26.424	1.03998	0	
1.1993	-15.4652	0.709078	0	
1.2000	-9.01285	-1.70179	0	
1.2007	-5.37698	-1.70179	0	
1.2013	-2.61168	-1.70179	0	
1.2020	4.40401	-1.08725	0	
1.2027	12.3415	0.0945437	0	
1.2033	19.6644	-0.472719	0	
1.2040	32.1595	-3.26176	0	
1.2047	42.2477	-3.54539	0	
1.2053	35.5393	-2.03269	0	
1.2060	18.4354	-0.803621	0	
1.2067	6.5548	0.0945437	0	
1.2073	-2.61168	-1.70179	0	
1.2080	-20.3301	-2.31632	0	
1.2087	-39.8409	1.03998	0	
1.2093	-43.2207	1.93815	0	
1.2100	-30.7256	-1.08725	0	
1.2107	-20.9446	-0.803621	0	
1.2113	-20.0229	-0.472719	0	
1.2120	-17.2576	-3.54539	0	
1.2127	-11.7782	-3.54539	0	
1.2133	-7.83503	-3.54539	0	
1.2140	-1.99717	-5.67262	0	
1.2147	7.42536	-3.54539	0	
1.2153	15.3628	-0.803621	0	
1.2160	22.0712	-5.67262	0	
1.2167	28.8309	-8.41439	0	
1.2173	23.9148	-7.51622	0	
1.2180	3.78949	-9.35983	0	
1.2187	-10.8564	-9.97436	0	
1.2193	-6.29875	-7.18532	0	
1.2200	5.63303	-6.61806	0	
1.2207	14.1338	-5.38899	0	
1.2213	20.5862	-4.44355	0	
1.2220	20.2789	-6.28716	0	
1.2227	9.2689	-5.38899	0	
1.2233	-8.14229	-2.64722	0	
1.2240	-22.7882	-1.41816	0	
1.2247	-27.6531	-0.803621	0	
1.2253	-23.6587	-2.64722	0	
1.2260	-22.4809	-6.28716	0	
1.2267	-31.2889	-3.82902	0	
1.2273	-40.1481	0.709078	0	
1.2280	-36.205	-0.803621	0	
1.2287	-21.2519	-3.26176	0	
1.2293	-8.14229	-1.08725	0	
1.2300	-2.61168	1.32361	0	
1.2307	-1.68991	1.03998	0	
1.2313	0.102419	0.0945437	0	
1.2320	3.78949	0.709078	0	
1.2327	2.25321	1.03998	0	
1.2333	-4.14796	-0.189087	0	
1.2340	-4.45521	-0.803621	0	
1.2347	1.94596	-0.189087	0	
1.2353	9.57615	-1.41816	0	
1.2360	22.3785	-1.08725	0	
1.2367	41.326	0.709078	0	
1.2373	56.2791	-0.472719	0	
1.2380	62.373	-2.31632	0	
1.2387	55.6646	-0.803621	0	
1.2393	38.8679	0.0945437	0	
1.2400	25.7583	-0.472719	0	
1.2407	10.8052	0.709078	0	
1.2413	-18.4866	0.425447	0	
1.2420	-44.4497	-2.31632	0	
1.2427	-50.8509	-1.70179	0	
1.2433	-48.3929	0.709078	0	
1.2440	-41.0699	-0.472719	0	
1.2447	-27.6531	-2.64722	0	
1.2453	-20.6374	-2.03269	0	
1.2460	-16.643	-0.803621	0	
1.2467	-5.68424	-1.70179	0	
1.2473	1.94596	-1.08725	0	
1.2480	1.6387	0.709078	0	
1.2487	5.01852	1.03998	0	
1.2493	9.2689	-0.472719	0	
1.2500	3.78949	-1.41816	0	
1.2507	-9.01285	-0.803621	0	
1.2513	-20.0229	1.03998	0	
1.2520	-24.5805	1.32361	0	
1.2527	-20.9446	-0.189087	0	
1.2533	-13.6217	-0.803621	0	
1.2540	-4.45521	-0.472719	0	
1.2547	8.34713	-0.803621	0	
1.2553	22.993	-0.803621	0	
1.2560	41.326	0.0945437	0	
1.2567	66.9306	0.709078	0	
1.2573	82.8055	1.65451	0	
1.2580	62.9875	2.55268	0	
1.2587	17.8209	2.26905	0	
1.2593	-18.4866	1.03998	0	
1.2600	-42.9135	1.03998	0	
1.2607	-64.8823	2.26905	0	
1.2613	-65.804	3.16721	0	
1.2620	-41.0699	2.88358	0	
1.2627	-20.9446	3.45085	0	
1.2633	-15.7725	3.78175	0	
1.2640	-9.01285	2.26905	0	
1.2647	1.02419	0.0945437	0	
1.2653	3.48224	0.0945437	0	
1.2660	3.17498	0.425447	0	
1.2667	7.1181	0.709078	0	
1.2673	8.34713	1.03998	0	
1.2680	5.32577	0.425447	0	
1.2687	8.34713	0.709078	0	
1.2693	15.0556	2.88358	0	
1.2700	16.5918	3.45085	0	
1.2707	14.441	1.93815	0	
1.2713	14.441	1.03998	0	
1.2720	15.6701	1.03998	0	
1.2727	14.7483	1.32361	0	
1.2733	10.4979	1.65451	0	
1.2740	5.63303	1.03998	0	
1.2747	8.34713	-1.08725	0	
1.2753	12.956	-3.54539	0	
1.2760	10.4979	-3.54539	0	
1.2767	5.63303	-0.803621	0	
1.2773	1.02419	0.0945437	0	
1.2780	-7.22052	0.709078	0	
1.2787	-11.7782	4.39628	0	
1.2793	-8.70559	5.62535	0	
1.2800	-6.29875	2.88358	0	
1.2807	-5.68424	3.45085	0	
1.2813	-6.60601	4.67991	0	
1.2820	-12.3927	2.55268	0	
1.2827	-18.4866	1.93815	0	
1.2833	-18.7938	0.709078	0	
1.2840	-17.5648	-3.54539	0	
1.2847	-18.7938	-2.64722	0	
1.2853	-19.1011	0.425447	0	
1.2860	-11.7782	-2.03269	0	
1.2867	6.81085	-3.54539	0	
1.2873	29.7014	0.709078	0	
1.2880	40.7114	1.93815	0	
1.2887	33.0813	-1.41816	0	
1.2893	19.3571	-1.70179	0	
1.2900	13.5705	-1.08725	0	
1.2907	7.73261	-2.64722	0	
1.2913	-12.6999	-3.54539	0	
1.2920	-33.1325	-2.93085	0	
1.2927	-31.9034	-4.44355	0	
1.2933	-18.1793	-6.90169	0	
1.2940	-10.8564	-5.67262	0	
1.2947	-8.14229	-2.64722	0	
1.2953	-7.22052	-2.03269	0	
1.2960	-6.29875	-2.93085	0	
1.2967	0.102419	-2.64722	0	
1.2973	7.73261	-2.31632	0	
1.2980	8.34713	-2.31632	0	
1.2987	5.63303	-0.803621	0	
1.2993	4.09675	0.0945437	0	
1.3000	1.6387	-0.803621	0	
1.3007	0.102419	-0.189087	0	
1.3013	0.716931	0.0945437	0	
1.3020	-0.204837	-1.08725	0	
1.3027	0.102419	-1.08725	0	
1.3033	2.25321	-1.70179	0	
1.3040	1.94596	-4.77446	0	
1.3047	1.02419	-5.05809	0	
1.3053	5.01852	-2.93085	0	
1.3060	10.1907	-3.54539	0	
1.3067	11.1124	-3.54539	0	
1.3073	7.1181	-0.803621	0	
1.3080	1.94596	-1.08725	0	
1.3087	0.716931	-3.54539	0	
1.3093	1.94596	-3.54539	0	
1.3100	-1.68991	-1.70179	0	
1.3107	-4.76247	-2.03269	0	
1.3113	1.94596	-2.93085	0	
1.3120	15.6701	-3.54539	0	
1.3127	31.2377	-2.93085	0	
1.3133	37.9461	-1.70179	0	
1.3140	28.2164	-0.803621	0	
1.3147	19.0499	-0.472719	0	
1.3153	25.7583	0.425447	0	
1.3160	28.5236	1.32361	0	
1.3167	17.8209	0.709078	0	
1.3173	8.96164	-1.41816	0	
1.3180	-3.53345	-1.70179	0	
1.3187	-32.8252	1.03998	0	
1.3193	-60.3246	1.65451	0	
1.3200	-69.1326	-1.41816	0	
1.3207	-68.5181	-2.31632	0	
1.3213	-57.5593	-2.03269	0	
1.3220	-40.1481	-3.54539	0	
1.3227	-34.6687	-4.15992	0	
1.3233	-34.976	-2.03269	0	
1.3240	-20.6374	-2.64722	0	
1.3247	-0.81935	-5.05809	0	
1.3253	9.2689	-4.15992	0	
1.3260	15.0556	-2.03269	0	
1.3267	20.5862	-2.64722	0	
1.3273	24.8365	-3.54539	0	
1.3280	26.9873	-3.54539	0	
1.3287	24.222	-2.64722	0	
1.3293	18.1281	-0.472719	0	
1.3300	12.956	0.709078	0	
1.3307	5.63303	-0.803621	0	
1.3313	-1.0754	-2.31632	0	
1.3320	-0.512094	-2.03269	0	
1.3327	1.6387	-0.803621	0	
1.3333	0.409675	-0.803621	0	
1.3340	0.102419	-1.70179	0	
1.3347	-5.37698	1.03998	0	
1.3353	-18.4866	4.06538	0	
1.3360	-23.966	1.93815	0	
1.3367	-16.643	-0.803621	0	
1.3373	-9.01285	2.55268	0	
1.3380	-7.83503	4.67991	0	
1.3387	-11.7782	1.93815	0	
1.3393	-14.8507	1.65451	0	
1.3400	-13.3144	4.06538	0	
1.3407	-8.14229	4.06538	0	
1.3413	0.102419	1.65451	0	
1.3420	13.5705	0.0945437	0	
1.3427	28.5236	1.03998	0	
1.3433	37.0244	0.425447	0	
1.3440	32.1595	-1.08725	0	
1.3447	17.5136	0.0945437	0	
1.3453	5.63303	1.93815	0	
1.3460	-4.14796	0.709078	0	
1.3467	-20.0229	1.03998	0	
1.3473	-30.4184	2.88358	0	
1.3480	-23.0954	1.65451	0	
1.3487	-3.53345	0.0945437	0	
1.3493	19.3571	2.26905	0	
1.3500	41.326	1.93815	0	
1.3507	51.4142	-1.08725	0	
1.3513	40.4042	0.425447	0	
1.3520	16.5918	2.26905	0	
1.3527	-2.61168	-0.803621	0	
1.3533	-9.93462	-1.08725	0	
1.3540	-15.7725	1.65451	0	
1.3547	-23.0954	0.0945437	0	
1.3553	-19.4084	-1.70179	0	
1.3560	-3.53345	1.32361	0	
1.3567	10.8052	2.26905	0	
1.3573	15.9773	-0.803621	0	
1.3580	9.57615	-0.803621	0	
1.3587	-5.68424	1.03998	0	
1.3593	-16.643	0.0945437	0	
1.3600	-21.8664	0.0945437	0	
1.3607	-35.5905	1.65451	0	
1.3613	-53.309	1.32361	0	
1.3620	-54.794	1.65451	0	
1.3627	-41.9917	2.26905	0	
1.3633	-30.9817	1.93815	0	
1.3640	-22.1737	1.65451	0	
1.3647	-7.52778	2.26905	0	
1.3653	5.63303	2.55268	0	
1.3660	10.1907	3.16721	0	
1.3667	10.8052	5.01082	0	
1.3673	12.0342	5.90898	0	
1.3680	16.8991	5.62535	0	
1.3687	22.0712	5.29445	0	
1.3693	20.5862	4.67991	0	
1.3700	18.7426	4.39628	0	
1.3707	22.993	4.39628	0	
1.3713	24.8365	3.78175	0	
1.3720	21.2007	4.06538	0	
1.3727	22.0712	3.78175	0	
1.3733	28.5236	1.03998	0	
1.3740	28.5236	0.425447	0	
1.3747	16.5918	2.55268	0	
1.3753	-4.45521	1.93815	0	
1.3760	-22.4809	0.709078	0	
1.3767	-31.9034	2.26905	0	
1.3773	-37.434	1.65451	0	
1.3780	-38.3558	-0.189087	0	
1.3787	-30.4184	0.0945437	0	
1.3793	-17.8721	0.425447	0	
1.3800	-10.8564	1.65451	0	
1.3807	-9.01285	2.88358	0	
1.3813	-7.22052	1.03998	0	
1.3820	-4.76247	0.0945437	0	
1.3827	-3.53345	3.45085	0	
1.3833	-0.204837	4.39628	0	
1.3840	5.94029	1.32361	0	
1.3847	11.1124	1.03998	0	
1.3853	11.4197	1.93815	0	
1.3860	10.4979	1.03998	0	
1.3867	8.96164	0.0945437	0	
1.3873	4.71126	0.425447	0	
1.3880	1.94596	-0.189087	0	
1.3887	5.63303	-0.803621	0	
1.3893	7.73261	1.32361	0	
1.3900	2.86772	2.88358	0	
1.3907	1.6387	0.0945437	0	
1.3913	10.4979	-0.472719	0	
1.3920	20.5862	0.709078	0	
1.3927	28.5236	-1.41816	0	
1.3933	34.9248	-2.03269	0	
1.3940	32.1595	-0.472719	0	
1.3947	24.5293	-3.54539	0	
1.3953	24.8365	-6.00353	0	
1.3960	22.993	-3.26176	0	
1.3967	13.5705	-3.54539	0	
1.3973	14.1338	-5.05809	0	
1.3980	22.993	-1.08725	0	
1.3987	14.1338	-0.472719	0	
1.3993	-3.53345	-5.05809	0	
1.4000	-7.52778	-4.77446	0	
1.4007	-9.01285	-2.03269	0	
1.4013	-16.0285	-3.54539	0	
1.4020	-14.5435	-2.64722	0	
1.4027	-6.91326	-1.70179	0	
1.4033	-5.06973	-4.15992	0	
1.4040	-4.45521	-3.54539	0	
1.4047	-4.45521	1.93815	0	
1.4053	-9.93462	1.65451	0	
1.4060	-15.4652	-2.93085	0	
1.4067	-13.6217	-2.31632	0	
1.4073	-4.45521	-0.803621	0	
1.4080	5.32577	-2.64722	0	
1.4087	2.86772	-3.26176	0	
1.4093	-5.37698	-2.31632	0	
1.4100	-6.91326	-1.08725	0	
1.4107	-13.0072	1.32361	0	
1.4113	-24.5805	2.26905	0	
1.4120	-19.1011	-0.803621	0	
1.4127	0.409675	-2.64722	0	
1.4133	18.1281	-1.41816	0	
1.4140	35.232	-1.41816	0	
1.4147	41.6332	-1.08725	0	
1.4153	26.9873	1.03998	0	
1.4160	7.1181	1.93815	0	
1.4167	-15.158	-0.803621	0	
1.4173	-39.2264	-0.803621	0	
1.4180	-43.528	1.03998	0	
1.4187	-29.4966	-0.472719	0	
1.4193	-21.2519	-2.03269	0	
1.4200	-13.6217	0.0945437	0	
1.4207	-2.61168	1.03998	0	
1.4213	-5.9915	-0.803621	0	
1.4220	-15.4652	-0.472719	0	
1.4227	-13.3144	-1.08725	0	
1.4233	-6.60601	-3.26176	0	
1.4240	-6.29875	-1.41816	0	
1.4247	-7.22052	0.0945437	0	
1.4253	-4.14796	-2.03269	0	
1.4260	4.71126	-1.70179	0	
1.4267	19.3571	-1.08725	0	
1.4273	36.7171	-2.64722	0	
1.4280	47.7271	-0.803621	0	
1.4287	50.4924	2.88358	0	
1.4293	52.8993	2.26905	0	
1.4300	45.5763	1.03998	0	
1.4307	19.0499	-0.472719	0	
1.4313	-6.29875	-3.54539	0	
1.4320	-15.4652	-2.64722	0	
1.4327	-22.4809	0.425447	0	
1.4333	-30.1111	-1.70179	0	
1.4340	-25.8095	-4.44355	0	
1.4347	-14.2362	-2.64722	0	
1.4353	-5.68424	-2.31632	0	
1.4360	1.94596	-2.93085	0	
1.4367	12.956	-0.472719	0	
1.4373	23.9148	0.0945437	0	
1.4380	22.993	-2.64722	0	
1.4387	7.1181	-1.70179	0	
1.4393	-9.01285	1.93815	0	
1.4400	-15.158	1.93815	0	
1.4407	-20.6374	-0.803621	0	
1.4413	-28.2676	-1.70179	0	
1.4420	-30.4184	-2.31632	0	
1.4427	-21.8664	-2.64722	0	
1.4433	-5.9915	-2.03269	0	
1.4440	8.34713	-1.70179	0	
1.4447	15.9773	-0.803621	0	
1.4453	21.764	-1.41816	0	
1.4460	24.222	-3.54539	0	
1.4467	20.2789	-2.93085	0	
1.4473	15.0556	0.0945437	0	
1.4480	7.42536	-0.803621	0	
1.4487	-8.14229	-2.31632	0	
1.4493	-22.4809	-1.41816	0	
1.4500	-24.8878	-2.03269	0	
1.4507	-19.1011	-3.26176	0	
1.4513	-8.14229	-1.70179	0	
1.4520	4.71126	-2.31632	0	
1.4527	14.7483	-3.54539	0	
1.4533	25.1438	-1.08725	0	
1.4540	34.003	-0.803621	0	
1.4547	30.9305	-4.77446	0	
1.4553	15.6701	-4.44355	0	
1.4560	-3.53345	-2.03269	0	
1.4567	-18.4866	-2.93085	0	
1.4573	-30.9817	-1.70179	0	
1.4580	-47.7783	2.88358	0	
1.4587	-59.4029	2.55268	0	
1.4593	-49.3146	-1.41816	0	
1.4600	-28.2676	-3.26176	0	
1.4607	-15.158	-3.54539	0	
1.4613	-8.14229	-2.64722	0	
1.4620	-3.22619	-2.64722	0	
1.4627	-1.68991	-3.82902	0	
1.4633	0.102419	-4.15992	0	
1.4640	-0.81935	-2.03269	0	
1.4647	-6.29875	-1.70179	0	
1.4653	-8.14229	-2.03269	0	
1.4660	-7.83503	0.0945437	0	
1.4667	-9.62736	1.03998	0	
1.4673	-2.61168	-0.803621	0	
1.4680	12.6487	-1.70179	0	
1.4687	18.4354	-1.70179	0	
1.4693	15.3628	-2.64722	0	
1.4700	18.4354	0.0945437	0	
1.4707	24.5293	1.93815	0	
1.4713	27.6018	-2.64722	0	
1.4720	29.1381	-4.44355	0	
1.4727	19.9717	-0.189087	0	
1.4733	-4.76247	1.93815	0	
1.4740	-25.195	-0.803621	0	
1.4747	-26.7313	-0.803621	0	
1.4753	-23.6587	1.93815	0	
1.4760	-26.424	1.65451	0	
1.4767	-21.2519	0.0945437	0	
1.4773	-1.0754	1.32361	0	
1.4780	21.2007	2.88358	0	
1.4787	31.2377	1.03998	0	
1.4793	32.1595	-2.03269	0	
1.4800	35.232	-2.03269	0	
1.4807	43.784	-0.803621	0	
1.4813	47.7271	-1.70179	0	
1.4820	38.5607	-3.54539	0	
1.4827	16.8991	-4.77446	0	
1.4833	-8.14229	-4.44355	0	
1.4840	-29.1893	-1.70179	0	
1.4847	-45.986	1.93815	0	
1.4853	-53.8723	1.32361	0	
1.4860	-44.1425	-0.803621	0	
1.4867	-25.195	0.0945437	0	
1.4873	-14.8507	0.425447	0	
1.4880	-14.2362	-1.08725	0	
1.4887	-13.9289	-1.08725	0	
1.4893	-14.2362	-0.189087	0	
1.4900	-16.0285	0.425447	0	
1.4907	-20.0229	2.88358	0	
1.4913	-25.8095	3.78175	0	
1.4920	-24.5805	1.03998	0	
1.4927	-12.3927	-1.08725	0	
1.4933	-1.99717	-1.70179	0	
1.4940	-0.81935	-2.93085	0	
1.4947	-0.204837	-2.64722	0	
1.4953	3.78949	-1.08725	0	
1.4960	9.2689	-3.54539	0	
1.4967	11.4197	-4.44355	0	
1.4973	5.63303	1.03998	0	
1.4980	-1.68991	3.78175	0	
1.4987	1.02419	0.709078	0	
1.4993	8.96164	-1.70179	0	
1.5000	12.956	-1.41816	0	
1.5007	21.2007	0.0945437	0	
1.5013	36.7171	1.03998	0	
1.5020	48.6489	1.65451	0	
1.5027	45.5763	1.93815	0	
1.5033	30.3159	1.32361	0	
1.5040	8.65438	0.0945437	0	
1.5047	-20.9446	1.32361	0	
1.5053	-51.7727	3.78175	0	
1.5060	-60.3246	4.67991	0	
1.5067	-38.6119	5.01082	0	
1.5073	-11.7782	5.62535	0	
1.5080	13.2632	5.29445	0	
1.5087	40.7114	4.39628	0	
1.5093	43.784	3.78175	0	
1.5100	10.1907	2.88358	0	
1.5107	-14.8507	1.93815	0	
1.5113	-11.1636	2.55268	0	
1.5120	-8.14229	3.45085	0	
1.5127	-7.22052	2.88358	0	
1.5133	4.71126	3.78175	0	
1.5140	8.03987	5.90898	0	
1.5147	1.02419	5.62535	0	
1.5153	2.86772	4.39628	0	
1.5160	10.4979	3.16721	0	
1.5167	18.4354	1.03998	0	
1.5173	30.3159	1.32361	0	
1.5180	35.8466	4.67991	0	
1.5187	31.2377	4.39628	0	
1.5193	28.5236	1.65451	0	
1.5200	23.3003	1.93815	0	
1.5207	11.1124	1.65451	0	
1.5213	1.02419	0.709078	0	
1.5220	-12.6999	1.65451	0	
1.5227	-31.9034	0.0945437	0	
1.5233	-35.8978	-1.70179	0	
1.5240	-20.9446	0.709078	0	
1.5247	-6.60601	2.55268	0	
1.5253	1.02419	1.32361	0	
1.5260	1.94596	1.03998	0	
1.5267	-7.22052	0.0945437	0	
1.5273	-18.1793	-1.41816	0	
1.5280	-20.9446	-0.803621	0	
1.5287	-16.643	-1.41816	0	
1.5293	-10.5491	-2.31632	0	
1.5300	-5.68424	-2.03269	0	
1.5307	-4.76247	-3.82902	0	
1.5313	-5.37698	-4.77446	0	
1.5320	-3.53345	-2.64722	0	
1.5327	0.102419	-3.54539	0	
1.5333	2.56047	-6.00353	0	
1.5340	7.42536	-4.44355	0	
1.5347	14.1338	-3.54539	0	
1.5353	15.9773	-4.15992	0	
1.5360	12.956	-2.31632	0	
1.5367	11.1124	-0.803621	0	
1.5373	10.1907	-1.70179	0	
1.5380	8.34713	-2.31632	0	
1.5387	7.42536	-1.70179	0	
1.5393	6.5548	0.0945437	0	
1.5400	4.71126	-0.472719	0	
1.5407	2.56047	-4.44355	0	
1.5413	-4.14796	-4.77446	0	
1.5420	-14.2362	-1.70179	0	
1.5427	-17.2576	-1.70179	0	
1.5433	-15.4652	-1.08725	0	
1.5440	-17.8721	1.32361	0	
1.5447	-22.4809	0.0945437	0	
1.5453	-23.6587	-0.472719	0	
1.5460	-20.9446	1.32361	0	
1.5467	-12.6999	-0.472719	0	
1.5473	-3.53345	-2.64722	0	
1.5480	1.02419	-0.189087	0	
1.5487	13.2632	0.425447	0	
1.5493	36.1538	-1.08725	0	
1.5500	54.7428	-0.803621	0	
1.5507	63.602	-1.70179	0	
1.5513	59.6077	-3.54539	0	
1.5520	33.3885	-3.82902	0	
1.5527	-1.0754	-5.38899	0	
1.5533	-27.9603	-6.00353	0	
1.5540	-50.2364	-1.70179	0	
1.5547	-59.7101	1.32361	0	
1.5553	-46.2421	-0.803621	0	
1.5560	-36.205	-2.03269	0	
1.5567	-41.9917	0.709078	0	
1.5573	-36.205	1.93815	0	
1.5580	-9.3201	-0.472719	0	
1.5587	10.1907	-0.803621	0	
1.5593	14.7483	1.93815	0	
1.5600	14.7483	1.93815	0	
1.5607	11.1124	-1.08725	0	
1.5613	6.5548	-2.93085	0	
1.5620	6.24754	-2.64722	0	
1.5627	8.03987	-1.70179	0	
1.5633	7.42536	-1.70179	0	
1.5640	4.09675	-1.70179	0	
1.5647	-3.8407	-0.803621	0	
1.5653	-15.4652	0.425447	0	
1.5660	-19.4084	-1.08725	0	
1.5667	-13.3144	-4.15992	0	
1.5673	-6.60601	-3.54539	0	
1.5680	-1.99717	-1.70179	0	
1.5687	5.01852	-1.08725	0	
1.5693	12.0342	-1.08725	0	
1.5700	16.2846	-1.08725	0	
1.5707	20.2789	-2.93085	0	
1.5713	19.6644	-4.44355	0	
1.5720	12.0342	-1.70179	0	
1.5727	1.6387	1.93815	0	
1.5733	-5.9915	1.03998	0	
1.5740	-10.8564	-3.54539	0	
1.5747	-10.8564	-4.15992	0	
1.5753	-4.45521	-0.803621	0	
1.5760	0.409675	0.0945437	0	
1.5767	-2.61168	-0.803621	0	
1.5773	-6.29875	-0.803621	0	
1.5780	-2.30442	-1.70179	0	
1.5787	5.01852	-4.77446	0	
1.5793	10.1907	-3.54539	0	
1.5800	11.1124	-0.472719	0	
1.5807	7.42536	-1.70179	0	
1.5813	3.78949	-3.54539	0	
1.5820	2.86772	-2.03269	0	
1.5827	0.102419	-1.41816	0	
1.5833	-4.14796	-2.03269	0	
1.5840	-1.68991	-1.41816	0	
1.5847	3.78949	-1.41816	0	
1.5853	8.34713	-2.93085	0	
1.5860	12.956	-1.70179	0	
1.5867	15.3628	-0.803621	0	
1.5873	12.956	-4.44355	0	
1.5880	8.34713	-7.18532	0	
1.5887	5.32577	-5.38899	0	
1.5893	1.94596	-3.54539	0	
1.5900	1.02419	-4.44355	0	
1.5907	3.78949	-3.54539	0	
1.5913	5.63303	-1.70179	0	
1.5920	0.716931	-1.41816	0	
1.5927	-7.22052	-3.54539	0	
1.5933	-9.01285	-5.38899	0	
1.5940	-4.45521	-3.82902	0	
1.5947	-0.81935	-0.803621	0	
1.5953	-1.0754	-0.803621	0	
1.5960	-4.45521	-2.31632	0	
1.5967	-7.22052	-2.03269	0	
1.5973	-5.68424	-2.31632	0	
1.5980	-4.45521	-4.44355	0	
1.5987	-7.52778	-5.38899	0	
1.5993	-11.1636	-3.82902	0	
1.6000	-13.0072	-1.41816	0	
1.6007	-13.9289	0.0945437	0	
1.6013	-12.3927	-0.472719	0	
1.6020	-8.44955	-0.803621	0	
1.6027	-2.61168	0.709078	0	
1.6033	4.09675	1.03998	0	
1.6040	12.0342	-0.472719	0	
1.6047	22.993	-1.41816	0	
1.6053	31.545	-1.70179	0	
1.6060	25.1438	-1.41816	0	
1.6067	7.1181	1.03998	0	
1.6073	-4.14796	1.65451	0	
1.6080	0.409675	-1.41816	0	
1.6087	13.5705	-2.31632	0	
1.6093	24.222	0.425447	0	
1.6100	26.3728	1.93815	0	
1.6107	24.8365	1.65451	0	
1.6113	28.2164	3.78175	0	
1.6120	29.1381	5.90898	0	
1.6127	20.5862	3.78175	0	
1.6133	3.48224	2.88358	0	
1.6140	-19.7156	5.29445	0	
1.6147	-36.5123	6.52352	0	
1.6153	-37.7413	6.80715	0	
1.6160	-36.205	8.36712	0	
1.6167	-41.0699	7.13805	0	
1.6173	-41.0699	4.67991	0	
1.6180	-28.5748	5.01082	0	
1.6187	-12.6999	4.06538	0	
1.6193	-0.512094	2.88358	0	
1.6200	4.71126	4.67991	0	
1.6207	5.63303	5.01082	0	
1.6213	9.2689	3.78175	0	
1.6220	9.2689	4.39628	0	
1.6227	0.102419	4.67991	0	
1.6233	-9.62736	5.62535	0	
1.6240	-14.2362	9.59619	0	
1.6247	-12.0854	10.1634	0	
1.6253	-2.91893	6.23988	0	
1.6260	3.48224	4.67991	0	
1.6267	1.6387	5.29445	0	
1.6273	-0.81935	5.62535	0	
1.6280	-0.81935	8.65075	0	
1.6287	1.6387	9.26528	0	
1.6293	8.65438	4.67991	0	
1.6300	13.8777	2.88358	0	
1.6307	12.956	3.78175	0	
1.6313	8.65438	2.55268	0	
1.6320	-0.512094	1.65451	0	
1.6327	-10.8564	2.88358	0	
1.6333	-16.9503	2.26905	0	
1.6340	-23.966	1.93815	0	
1.6347	-29.1893	3.16721	0	
1.6353	-21.5591	5.01082	0	
1.6360	-9.01285	7.75258	0	
1.6367	0.716931	8.98165	0	
1.6373	13.5705	6.23988	0	
1.6380	28.5236	4.67991	0	
1.6387	37.6389	5.90898	0	
1.6393	34.6175	5.62535	0	
1.6400	14.1338	3.16721	0	
1.6407	-7.22052	1.93815	0	
1.6413	-9.93462	1.93815	0	
1.6420	-5.68424	2.88358	0	
1.6427	-9.01285	4.39628	0	
1.6433	-12.3927	1.93815	0	
1.6440	-10.8564	-2.31632	0	
1.6447	-4.76247	-1.70179	0	
1.6453	8.34713	1.03998	0	
1.6460	20.2789	1.03998	0	
1.6467	22.993	0.0945437	0	
1.6473	20.8934	-0.472719	0	
1.6480	17.2063	0.0945437	0	
1.6487	12.6487	1.93815	0	
1.6493	6.5548	2.88358	0	
1.6500	-1.99717	1.93815	0	
1.6507	-10.8564	2.88358	0	
1.6513	-19.1011	2.26905	0	
1.6520	-28.8821	1.32361	0	
1.6527	-35.5905	2.88358	0	
1.6533	-29.4966	2.55268	0	
1.6540	-7.22052	0.0945437	0	
1.6547	22.6857	1.65451	0	
1.6553	48.3416	1.93815	0	
1.6560	61.144	-2.64722	0	
1.6567	53.2065	-3.54539	0	
1.6573	27.6018	-0.189087	0	
1.6580	1.6387	0.709078	0	
1.6587	-24.5805	-0.803621	0	
1.6593	-56.9448	-2.64722	0	
1.6600	-71.2834	-2.31632	0	
1.6607	-49.3146	-1.70179	0	
1.6613	-23.966	-2.64722	0	
1.6620	-17.5648	-5.05809	0	
1.6627	-12.0854	-6.00353	0	
1.6633	-3.22619	-6.28716	0	
1.6640	-1.38265	-5.38899	0	
1.6647	-0.81935	-5.38899	0	
1.6653	5.32577	-7.51622	0	
1.6660	11.1124	-5.38899	0	
1.6667	12.956	-1.70179	0	
1.6673	7.42536	-3.54539	0	
1.6680	-0.512094	-6.00353	0	
1.6687	-2.30442	-4.77446	0	
1.6693	0.102419	-6.00353	0	
1.6700	-1.38265	-7.18532	0	
1.6707	-8.44955	-5.05809	0	
1.6713	-17.2576	-4.77446	0	
1.6720	-19.1011	-8.13076	0	
1.6727	-15.4652	-9.64346	0	
1.6733	-12.6999	-8.74529	0	
1.6740	-8.70559	-7.79986	0	
1.6747	-2.61168	-7.79986	0	
1.6753	-1.68991	-6.28716	0	
1.6760	-1.68991	-4.77446	0	
1.6767	2.86772	-7.18532	0	
1.6773	1.6387	-8.41439	0	
1.6780	-4.45521	-3.54539	0	
1.6787	-5.37698	0.0945437	0	
1.6793	-3.22619	-2.64722	0	
1.6800	1.94596	-3.82902	0	
1.6807	10.1907	-1.70179	0	
1.6813	12.3415	-1.70179	0	
1.6820	9.88341	-2.31632	0	
1.6827	11.7269	-1.08725	0	
1.6833	12.956	-1.70179	0	
1.6840	12.0342	-4.15992	0	
1.6847	12.3415	-4.15992	0	
1.6853	6.81085	-1.08725	0	
1.6860	-3.8407	-2.03269	0	
1.6867	-7.22052	-5.05809	0	
1.6873	-3.53345	-3.26176	0	
1.6880	0.716931	-0.472719	0	
1.6887	3.78949	-1.41816	0	
1.6893	1.94596	-1.70179	0	
1.6900	-3.8407	-2.64722	0	
1.6907	-5.06973	-4.77446	0	
1.6913	-2.61168	-2.64722	0	
1.6920	0.102419	-0.189087	0	
1.6927	8.34713	-3.82902	0	
1.6933	21.2007	-4.15992	0	
1.6940	33.0813	0.709078	0	
1.6947	41.0187	0.0945437	0	
1.6953	37.9461	-2.64722	0	
1.6960	15.6701	-1.41816	0	
1.6967	-13.9289	-1.70179	0	
1.6973	-29.1893	-2.64722	0	
1.6980	-30.4184	-0.189087	0	
1.6987	-30.9817	1.32361	0	
1.6993	-27.9603	-0.472719	0	
1.7000	-12.0854	-1.70179	0	
1.7007	5.01852	-1.41816	0	
1.7013	11.1124	-0.472719	0	
1.7020	11.4197	1.32361	0	
1.7027	11.7269	2.88358	0	
1.7033	5.94029	1.93815	0	
1.7040	-3.53345	-0.472719	0	
1.7047	-7.52778	-2.03269	0	
1.7053	-5.9915	-1.70179	0	
1.7060	-6.29875	-1.70179	0	
1.7067	-9.01285	-2.64722	0	
1.7073	-4.76247	-3.26176	0	
1.7080	10.4979	-2.64722	0	
1.7087	24.222	-1.41816	0	
1.7093	22.0712	-0.189087	0	
1.7100	11.1124	1.93815	0	
1.7107	5.94029	4.06538	0	
1.7113	-0.81935	2.88358	0	
1.7120	-21.2519	-0.472719	0	
1.7127	-40.1481	-0.803621	0	
1.7133	-40.1481	0.709078	0	
1.7140	-29.1893	1.32361	0	
1.7147	-22.7882	2.88358	0	
1.7153	-20.0229	3.16721	0	
1.7160	-12.0854	0.709078	0	
1.7167	-0.512094	-0.472719	0	
1.7173	7.1181	0.0945437	0	
1.7180	10.1907	0.425447	0	
1.7187	19.6644	2.26905	0	
1.7193	41.6332	4.67991	0	
1.7200	57.5081	3.16721	0	
1.7207	50.4924	1.03998	0	
1.7213	29.3942	1.65451	0	
1.7220	6.5548	1.93815	0	
1.7227	-23.6587	1.65451	0	
1.7233	-56.6376	2.55268	0	
1.7240	-72.8197	2.26905	0	
1.7247	-66.7258	1.93815	0	
1.7253	-50.2364	3.45085	0	
1.7260	-32.2107	4.06538	0	
1.7267	-15.4652	3.45085	0	
1.7273	2.56047	3.16721	0	
1.7280	20.2789	2.88358	0	
1.7287	25.4511	3.45085	0	
1.7293	17.8209	3.78175	0	
1.7300	11.7269	2.88358	0	
1.7307	6.81085	2.26905	0	
1.7313	0.102419	4.06538	0	
1.7320	-4.45521	4.67991	0	
1.7327	-10.8564	2.55268	0	
1.7333	-16.643	1.03998	0	
1.7340	-5.37698	1.65451	0	
1.7347	13.2632	1.65451	0	
1.7353	22.993	-1.08725	0	
1.7360	30.3159	-2.31632	0	
1.7367	30.3159	0.0945437	0	
1.7373	10.1907	1.03998	0	
1.7380	-9.93462	-0.803621	0	
1.7387	-9.01285	-0.189087	0	
1.7393	0.409675	1.03998	0	
1.7400	7.73261	-0.803621	0	
1.7407	16.5918	-0.803621	0	
1.7413	20.2789	-0.472719	0	
1.7420	13.8777	-0.803621	0	
1.7427	4.71126	0.709078	0	
1.7433	0.716931	1.65451	0	
1.7440	-0.81935	-2.31632	0	
1.7447	-4.76247	-4.44355	0	
1.7453	-4.45521	-2.31632	0	
1.7460	1.33144	-1.08725	0	
1.7467	0.102419	-0.803621	0	
1.7473	-9.3201	0.709078	0	
1.7480	-12.3927	1.03998	0	
1.7487	-9.01285	0.0945437	0	
1.7493	-14.5435	-1.08725	0	
1.7500	-29.1893	-1.08725	0	
1.7507	-37.434	-0.189087	0	
1.7513	-30.1111	-1.70179	0	
1.7520	-15.158	-3.82902	0	
1.7527	-5.37698	-2.31632	0	
1.7533	-1.68991	-0.472719	0	
1.7540	1.02419	-2.03269	0	
1.7547	1.33144	-1.08725	0	
1.7553	0.102419	0.0945437	0	
1.7560	0.716931	-2.64722	0	
1.7567	1.6387	-1.70179	0	
1.7573	3.17498	2.26905	0	
1.7580	6.24754	2.88358	0	
1.7587	8.03987	1.65451	0	
1.7593	8.96164	1.93815	0	
1.7600	11.1124	0.0945437	0	
1.7607	12.6487	-0.472719	0	
1.7613	12.956	1.03998	0	
1.7620	12.956	1.03998	0	
1.7627	11.4197	-0.472719	0	
1.7633	1.94596	-0.803621	0	
1.7640	-16.3358	-1.70179	0	
1.7647	-28.2676	-0.803621	0	
1.7653	-21.8664	1.03998	0	
1.7660	-6.91326	-0.189087	0	
1.7667	4.40401	-2.03269	0	
1.7673	15.3628	-2.03269	0	
1.7680	30.9305	-2.03269	0	
1.7687	45.8836	-2.64722	0	
1.7693	54.1283	-2.64722	0	
1.7700	49.5707	-3.26176	0	
1.7707	30.0087	-3.26176	0	
1.7713	2.56047	-2.03269	0	
1.7720	-20.6374	-1.08725	0	
1.7727	-27.9603	-1.08725	0	
1.7733	-21.8664	-1.08725	0	
1.7740	-17.2576	-1.41816	0	
1.7747	-19.7156	-0.803621	0	
1.7753	-23.0954	-0.189087	0	
1.7760	-23.4027	-0.189087	0	
1.7767	-21.8664	-1.70179	0	
1.7773	-19.1011	-3.26176	0	
1.7780	-14.8507	-2.64722	0	
1.7787	-12.6999	-1.41816	0	
1.7793	-12.6999	-1.70179	0	
1.7800	-9.62736	-1.41816	0	
1.7807	-3.8407	1.65451	0	
1.7813	-1.38265	1.03998	0	
1.7820	-2.61168	-2.03269	0	
1.7827	-0.81935	-0.472719	0	
1.7833	1.02419	3.45085	0	
1.7840	-1.68991	3.45085	0	
1.7847	-3.53345	1.65451	0	
1.7853	-2.61168	1.03998	0	
1.7860	-1.68991	-0.189087	0	
1.7867	1.94596	-2.03269	0	
1.7873	10.8052	-1.08725	0	
1.7880	16.2846	1.93815	0	
1.7887	17.2063	2.55268	0	
1.7893	18.4354	1.03998	0	
1.7900	21.2007	-0.472719	0	
1.7907	26.6801	-0.472719	0	
1.7913	35.8466	-1.70179	0	
1.7920	45.2691	-4.44355	0	
1.7927	45.8836	-5.38899	0	
1.7933	24.8365	-1.08725	0	
1.7940	-10.8564	1.03998	0	
1.7947	-32.5179	-1.08725	0	
1.7953	-33.747	-2.64722	0	
1.7960	-31.2889	-1.70179	0	
1.7967	-26.424	-0.803621	0	
1.7973	-16.643	-1.70179	0	
1.7980	-9.93462	-4.15992	0	
1.7987	-4.14796	-4.44355	0	
1.7993	2.56047	-1.41816	0	
1.8000	2.56047	0.425447	0	
1.8007	-4.14796	-1.70179	0	
1.8013	-11.7782	-2.64722	0	
1.8020	-19.7156	-1.08725	0	
1.8027	-22.7882	-1.41816	0	
1.8033	-19.4084	-1.70179	0	
1.8040	-9.62736	-1.41816	0	
1.8047	12.0342	-0.472719	0	
1.8053	40.4042	-0.472719	0	
1.8060	54.4356	-2.64722	0	
1.8067	46.4981	-3.54539	0	
1.8073	30.3159	-1.70179	0	
1.8080	19.6644	-1.41816	0	
1.8087	10.8052	-3.54539	0	
1.8093	-7.52778	-4.44355	0	
1.8100	-23.4027	-4.44355	0	
1.8107	-19.7156	-4.44355	0	
1.8113	-11.1636	-2.93085	0	
1.8120	-15.4652	-2.64722	0	
1.8127	-20.3301	-3.54539	0	
1.8133	-18.4866	-1.70179	0	
1.8140	-16.0285	-1.41816	0	
1.8147	-10.2419	-1.70179	0	
1.8153	-2.30442	0.0945437	0	
1.8160	-1.68991	1.65451	0	
1.8167	-4.45521	0.709078	0	
1.8173	-2.91893	0.425447	0	
1.8180	0.102419	-0.472719	0	
1.8187	2.25321	-2.03269	0	
1.8193	8.03987	0.0945437	0	
1.8200	12.0342	3.16721	0	
1.8207	11.7269	2.88358	0	
1.8213	11.1124	0.0945437	0	
1.8220	12.3415	-3.26176	0	
1.8227	12.956	-4.44355	0	
1.8233	15.6701	-2.31632	0	
1.8240	22.993	-1.08725	0	
1.8247	30.3159	-2.03269	0	
1.8253	35.5393	-2.93085	0	
1.8260	38.8679	-3.82902	0	
1.8267	38.5607	-4.44355	0	
1.8273	27.2946	-3.54539	0	
1.8280	-0.81935	-3.54539	0	
1.8287	-37.1268	-2.64722	0	
1.8293	-56.023	0.0945437	0	
1.8300	-46.5493	0.0945437	0	
1.8307	-27.9603	-1.08725	0	
1.8313	-15.4652	-0.189087	0	
1.8320	-3.8407	1.65451	0	
1.8327	9.2689	1.03998	0	
1.8333	15.0556	-0.803621	0	
1.8340	15.3628	-2.03269	0	
1.8347	20.2789	-1.41816	0	
1.8353	31.545	-2.03269	0	
1.8360	38.5607	-4.15992	0	
1.8367	27.9091	-1.70179	0	
1.8373	-1.99717	1.32361	0	
1.8380	-35.5905	1.03998	0	
1.8387	-57.2521	1.03998	0	
1.8393	-66.7258	1.32361	0	
1.8400	-69.4399	-1.70179	0	
1.8407	-63.0387	-1.41816	0	
1.8413	-46.8566	1.32361	0	
1.8420	-29.8039	-1.08725	0	
1.8427	-17.2576	-2.93085	0	
1.8433	-9.01285	0.0945437	0	
1.8440	-0.81935	-0.472719	0	
1.8447	12.6487	-3.54539	0	
1.8453	30.9305	-3.82902	0	
1.8460	41.9405	-3.26176	0	
1.8467	37.6389	-1.08725	0	
1.8473	27.6018	1.32361	0	
1.8480	20.2789	0.709078	0	
1.8487	5.94029	-1.70179	0	
1.8493	-21.5591	-3.54539	0	
1.8500	-43.8352	-5.38899	0	
1.8507	-45.6788	-5.05809	0	
1.8513	-33.1325	-2.31632	0	
1.8520	-20.9446	-2.64722	0	
1.8527	-15.4652	-3.82902	0	
1.8533	-11.7782	-1.41816	0	
1.8540	-6.29875	0.709078	0	
1.8547	-4.14796	-0.189087	0	
1.8553	-6.60601	-0.189087	0	
1.8560	-0.81935	0.0945437	0	
1.8567	13.2632	-1.08725	0	
1.8573	17.5136	-0.803621	0	
1.8580	10.1907	1.03998	0	
1.8587	3.17498	-0.803621	0	
1.8593	-0.204837	-1.70179	0	
1.8600	-1.68991	1.93815	0	
1.8607	-2.61168	3.78175	0	
1.8613	-5.06973	0.425447	0	
1.8620	-3.22619	-2.64722	0	
1.8627	3.17498	-0.803621	0	
1.8633	7.42536	1.93815	0	
1.8640	17.5136	1.03998	0	
1.8647	40.4042	-0.803621	0	
1.8653	58.1226	1.03998	0	
1.8660	61.7585	5.01082	0	
1.8667	60.5295	5.62535	0	
1.8673	53.5138	3.16721	0	
1.8680	36.7171	1.93815	0	
1.8687	12.0342	4.06538	0	
1.8693	-17.2576	5.90898	0	
1.8700	-34.6687	4.67991	0	
1.8707	-29.1893	3.16721	0	
1.8713	-20.6374	4.67991	0	
1.8720	-21.2519	5.62535	0	
1.8727	-17.8721	5.62535	0	
1.8733	-7.22052	5.29445	0	
1.8740	-0.81935	3.45085	0	
1.8747	2.25321	3.16721	0	
1.8753	7.1181	5.62535	0	
1.8760	11.4197	4.67991	0	
1.8767	11.7269	1.32361	0	
1.8773	6.81085	1.65451	0	
1.8780	-0.512094	2.26905	0	
1.8787	-3.8407	2.55268	0	
1.8793	-2.61168	5.90898	0	
1.8800	-0.81935	7.13805	0	
1.8807	0.102419	3.78175	0	
1.8813	1.02419	3.16721	0	
1.8820	-4.14796	5.29445	0	
1.8827	-17.5648	5.01082	0	
1.8833	-26.424	5.01082	0	
1.8840	-22.4809	5.01082	0	
1.8847	-17.8721	2.26905	0	
1.8853	-22.7882	1.93815	0	
1.8860	-26.1168	5.01082	0	
1.8867	-17.2576	5.29445	0	
1.8873	-0.204837	4.06538	0	
1.8880	20.2789	4.39628	0	
1.8887	35.8466	2.55268	0	
1.8893	39.4824	0.709078	0	
1.8900	34.3103	1.93815	0	
1.8907	23.9148	3.78175	0	
1.8913	4.71126	2.88358	0	
1.8920	-15.7725	1.65451	0	
1.8927	-20.0229	1.93815	0	
1.8933	-9.3201	2.26905	0	
1.8940	-2.91893	2.26905	0	
1.8947	-8.70559	2.88358	0	
1.8953	-14.5435	1.93815	0	
1.8960	-13.0072	0.0945437	0	
1.8967	-15.4652	1.03998	0	
1.8973	-26.424	1.65451	0	
1.8980	-30.4184	-1.70179	0	
1.8987	-21.5591	-2.93085	0	
1.8993	-11.7782	-0.803621	0	
1.9000	-5.06973	-0.803621	0	
1.9007	1.33144	-0.803621	0	
1.9013	3.48224	2.88358	0	
1.9020	0.102419	3.78175	0	
1.9027	-3.8407	-0.189087	0	
1.9033	-7.22052	-1.08725	0	
1.9040	-8.14229	0.425447	0	
1.9047	-8.14229	-0.803621	0	
1.9053	-8.44955	-1.70179	0	
1.9060	-8.44955	0.0945437	0	
1.9067	-5.9915	1.32361	0	
1.9073	-1.99717	1.03998	0	
1.9080	3.48224	0.709078	0	
1.9087	9.2689	0.0945437	0	
1.9093	10.1907	-0.472719	0	
1.9100	6.5548	-0.189087	0	
1.9107	6.5548	0.709078	0	
1.9113	11.1124	1.93815	0	
1.9120	15.3628	1.93815	0	
1.9127	15.6701	0.425447	0	
1.9133	16.5918	-0.803621	0	
1.9140	24.8365	0.709078	0	
1.9147	37.9461	1.32361	0	
1.9153	45.8836	-0.472719	0	
1.9160	38.8679	-1.70179	0	
1.9167	20.8934	-0.472719	0	
1.9173	2.25321	0.0945437	0	
1.9180	-12.6999	-1.08725	0	
1.9187	-26.7313	-1.70179	0	
1.9193	-34.6687	-1.70179	0	
1.9200	-29.1893	-2.64722	0	
1.9207	-17.2576	-3.82902	0	
1.9213	-8.14229	-2.64722	0	
1.9220	2.56047	-0.472719	0	
1.9227	18.4354	-0.472719	0	
1.9233	32.774	-3.54539	0	
1.9240	37.6389	-3.54539	0	
1.9247	34.003	-1.70179	0	
1.9253	25.1438	-2.64722	0	
1.9260	8.96164	-4.15992	0	
1.9267	-16.3358	-3.54539	0	
1.9273	-32.8252	-5.38899	0	
1.9280	-24.8878	-6.90169	0	
1.9287	-6.60601	-4.44355	0	
1.9293	0.409675	-3.26176	0	
1.9300	1.02419	-4.44355	0	
1.9307	7.1181	-3.82902	0	
1.9313	14.7483	-2.64722	0	
1.9320	16.8991	-2.64722	0	
1.9327	11.4197	-2.03269	0	
1.9333	0.102419	-2.93085	0	
1.9340	-7.52778	-5.05809	0	
1.9347	-5.9915	-4.15992	0	
1.9353	-5.9915	-2.64722	0	
1.9360	-14.5435	-3.26176	0	
1.9367	-25.195	-2.64722	0	
1.9373	-37.434	-1.08725	0	
1.9380	-49.9291	0.425447	0	
1.9387	-52.0799	1.03998	0	
1.9393	-41.0699	-1.70179	0	
1.9400	-24.8878	-3.26176	0	
1.9407	-4.45521	-2.31632	0	
1.9413	20.2789	-3.54539	0	
1.9420	40.0969	-4.44355	0	
1.9427	45.8836	-3.54539	0	
1.9433	35.8466	-5.38899	0	
1.9440	20.2789	-5.05809	0	
1.9447	10.8052	-0.803621	0	
1.9453	-0.204837	-1.08725	0	
1.9460	-22.7882	-3.82902	0	
1.9467	-38.0486	-2.64722	0	
1.9473	-35.2833	-2.64722	0	
1.9480	-32.8252	-5.38899	0	
1.9487	-35.5905	-4.44355	0	
1.9493	-29.1893	-1.70179	0	
1.9500	-15.4652	-0.803621	0	
1.9507	-3.53345	-2.31632	0	
1.9513	5.94029	-5.05809	0	
1.9520	11.4197	-5.05809	0	
1.9527	15.3628	-3.54539	0	
1.9533	17.5136	-4.44355	0	
1.9540	11.7269	-4.44355	0	
1.9547	3.48224	-2.03269	0	
1.9553	0.716931	-1.08725	0	
1.9560	-3.22619	-1.08725	0	
1.9567	-7.52778	-0.189087	0	
1.9573	-5.68424	-1.08725	0	
1.9580	-5.37698	-2.31632	0	
1.9587	-10.2419	-1.70179	0	
1.9593	-11.4709	-3.26176	0	
1.9600	-5.9915	-5.38899	0	
1.9607	6.81085	-3.54539	0	
1.9613	22.3785	-0.472719	0	
1.9620	31.2377	-0.803621	0	
1.9627	36.4611	-1.70179	0	
1.9633	35.5393	-1.70179	0	
1.9640	15.6701	-1.70179	0	
1.9647	-3.8407	-2.64722	0	
1.9653	1.33144	-2.64722	0	
1.9660	10.8052	-0.803621	0	
1.9667	7.42536	0.0945437	0	
1.9673	7.42536	-1.70179	0	
1.9680	13.5705	-4.15992	0	
1.9687	15.6701	-5.05809	0	
1.9693	15.6701	-3.54539	0	
1.9700	11.1124	-1.70179	0	
1.9707	1.33144	-2.64722	0	
1.9713	-7.22052	-5.05809	0	
1.9720	-18.1793	-4.77446	0	
1.9727	-29.1893	-3.82902	0	
1.9733	-25.195	-4.44355	0	
1.9740	-12.6999	-4.44355	0	
1.9747	-7.22052	-4.44355	0	
1.9753	-1.99717	-6.28716	0	
1.9760	7.42536	-7.18532	0	
1.9767	16.5918	-5.38899	0	
1.9773	28.2164	-2.64722	0	
1.9780	34.9248	-2.93085	0	
1.9787	27.2946	-3.26176	0	
1.9793	19.3571	-0.803621	0	
1.9800	16.5918	-0.189087	0	
1.9807	9.57615	-2.93085	0	
1.9813	3.78949	-2.31632	0	
1.9820	4.71126	0.0945437	0	
1.9827	3.17498	-2.03269	0	
1.9833	-2.30442	-4.44355	0	
1.9840	-14.5435	-0.803621	0	
1.9847	-34.6687	1.03998	0	
1.9853	-43.8352	-0.803621	0	
1.9860	-34.3615	-0.803621	0	
1.9867	-21.2519	0.425447	0	
1.9873	-11.7782	-1.41816	0	
1.9880	-3.53345	-2.64722	0	
1.9887	0.102419	0.425447	0	
1.9893	1.02419	2.26905	0	
1.9900	1.02419	1.32361	0	
1.9907	-3.22619	0.0945437	0	
1.9913	-3.53345	-0.189087	0	
1.9920	-0.81935	0.425447	0	
1.9927	-0.81935	1.93815	0	
1.9933	0.409675	1.03998	0	
1.9940	0.716931	-0.189087	0	
1.9947	-12.0854	1.03998	0	
1.9953	-25.195	1.32361	0	
1.9960	-23.6587	0.0945437	0	
1.9967	-18.1793	1.65451	0	
1.9973	-17.8721	2.55268	0	
1.9980	-20.0229	1.93815	0	
1.9987	-23.0954	2.55268	0	
1.9993	-19.4084	3.16721	0	
2.0000	-3.53345	3.78175	0	
2.0007	18.4354	5.62535	0	
2.0013	41.326	4.06538	0	
2.0020	52.592	-1.70179	0	
2.0027	37.9461	-3.26176	0	
2.0033	14.1338	1.03998	0	
2.0040	3.78949	2.88358	0	
2.0047	-0.81935	1.03998	0	
2.0053	-6.29875	-0.189087	0	
2.0060	-4.76247	1.32361	0	
2.0067	-3.53345	2.88358	0	
2.0073	-6.91326	1.65451	0	
2.0080	-3.53345	-0.189087	0	
2.0087	1.94596	1.03998	0	
2.0093	-2.91893	1.03998	0	
2.0100	-13.9289	-0.472719	0	
2.0107	-17.8721	0.709078	0	
2.0113	-13.6217	3.78175	0	
2.0120	-8.44955	3.78175	0	
2.0127	-3.53345	2.55268	0	
2.0133	2.25321	2.88358	0	
2.0140	10.4979	1.93815	0	
2.0147	19.3571	1.32361	0	
2.0153	20.5862	3.16721	0	
2.0160	8.34713	2.88358	0	
2.0167	-6.29875	-0.803621	0	
2.0173	-10.8564	-0.472719	0	
2.0180	-12.3927	1.93815	0	
2.0187	-10.2419	-1.70179	0	
2.0193	2.56047	-4.44355	0	
2.0200	15.3628	0.425447	0	
2.0207	17.5136	3.45085	0	
2.0213	17.5136	0.709078	0	
2.0220	18.4354	-1.08725	0	
2.0227	15.9773	0.425447	0	
2.0233	12.956	1.93815	0	
2.0240	11.1124	3.45085	0	
2.0247	8.96164	4.06538	0	
2.0253	2.86772	5.01082	0	
2.0260	-10.8564	4.39628	0	
2.0267	-20.6374	1.32361	0	
2.0273	-12.3927	0.425447	0	
2.0280	2.56047	2.55268	0	
2.0287	12.956	2.55268	0	
2.0293	24.8365	1.03998	0	
2.0300	35.8466	1.65451	0	
2.0307	33.0813	1.03998	0	
2.0313	18.4354	0.709078	0	
2.0320	0.102419	2.26905	0	
2.0327	-14.5435	2.55268	0	
2.0333	-19.1011	1.32361	0	
2.0340	-17.2576	2.55268	0	
2.0347	-14.5435	4.67991	0	
2.0353	-11.1636	5.01082	0	
2.0360	-16.643	4.67991	0	
2.0367	-37.7413	4.67991	0	
2.0373	-62.7315	3.78175	0	
2.0380	-74.0487	3.78175	0	
2.0387	-64.8823	5.01082	0	
2.0393	-42.9135	4.39628	0	
2.0400	-25.195	1.03998	0	
2.0407	-14.2362	-0.189087	0	
2.0413	-3.53345	1.03998	0	
2.0420	3.78949	-0.189087	0	
2.0427	8.34713	-2.93085	0	
2.0433	13.5705	-2.03269	0	
2.0440	15.6701	1.03998	0	
2.0447	15.6701	2.88358	0	
2.0453	20.8934	3.45085	0	
2.0460	19.6644	4.06538	0	
2.0467	2.56047	3.78175	0	
2.0473	-13.6217	0.709078	0	
2.0480	-15.4652	-3.54539	0	
2.0487	-15.7725	-2.93085	0	
2.0493	-16.3358	0.0945437	0	
2.0500	-5.37698	0.425447	0	
2.0507	10.1907	-1.08725	0	
2.0513	14.441	-1.41816	0	
2.0520	10.1907	-2.64722	0	
2.0527	8.96164	-3.82902	0	
2.0533	5.63303	-2.64722	0	
2.0540	-3.8407	-0.472719	0	
2.0547	-14.5435	1.32361	0	
2.0553	-25.5023	1.93815	0	
2.0560	-33.747	-1.08725	0	
2.0567	-29.8039	-2.93085	0	
2.0573	-13.6217	-0.803621	0	
2.0580	-0.81935	0.425447	0	
2.0587	-1.0754	-0.803621	0	
2.0593	-5.06973	-1.70179	0	
2.0600	-1.99717	-3.54539	0	
2.0607	0.409675	-4.44355	0	
2.0613	-5.37698	-3.54539	0	
2.0620	-10.2419	-2.03269	0	
2.0627	-4.45521	-0.803621	0	
2.0633	9.57615	-0.803621	0	
2.0640	25.7583	-3.82902	0	
2.0647	33.0813	-6.61806	0	
2.0653	30.0087	-6.28716	0	
2.0660	28.8309	-4.77446	0	
2.0667	29.3942	-4.44355	0	
2.0673	20.2789	-5.38899	0	
2.0680	8.34713	-4.44355	0	
2.0687	7.42536	-0.803621	0	
2.0693	8.03987	1.03998	0	
2.0700	7.1181	1.32361	0	
2.0707	14.441	1.65451	0	
2.0713	27.2946	-0.189087	0	
2.0720	29.3942	-1.70179	0	
2.0727	20.2789	1.03998	0	
2.0733	16.5918	1.32361	0	
2.0740	20.2789	-1.70179	0	
2.0747	12.0342	-2.31632	0	
2.0753	-7.22052	-1.08725	0	
2.0760	-8.44955	-4.15992	0	
2.0767	14.1338	-5.67262	0	
2.0773	32.4667	-3.54539	0	
2.0780	34.9248	-2.64722	0	
2.0787	30.9305	-3.54539	0	
2.0793	24.222	-3.54539	0	
2.0800	3.78949	-3.26176	0	
2.0807	-32.8252	-2.64722	0	
2.0813	-65.1895	-2.03269	0	
2.0820	-69.4399	-2.03269	0	
2.0827	-54.794	-0.803621	0	
2.0833	-43.2207	0.425447	0	
2.0840	-36.5123	-0.803621	0	
2.0847	-28.8821	-1.70179	0	
2.0853	-24.2732	0.0945437	0	
2.0860	-18.1793	1.03998	0	
2.0867	-7.22052	1.65451	0	
2.0873	1.6387	2.55268	0	
2.0880	6.24754	1.03998	0	
2.0887	10.8052	0.425447	0	
2.0893	12.0342	2.88358	0	
2.0900	9.2689	2.88358	0	
2.0907	6.5548	1.03998	0	
2.0913	5.63303	1.03998	0	
2.0920	6.24754	-0.803621	0	
2.0927	6.81085	-3.82902	0	
2.0933	6.24754	-2.64722	0	
2.0940	9.2689	-0.189087	0	
2.0947	21.2007	-1.41816	0	
2.0953	34.6175	-1.70179	0	
2.0960	43.4768	0.0945437	0	
2.0967	44.6546	1.65451	0	
2.0973	26.6801	3.45085	0	
2.0980	-3.53345	4.67991	0	
2.0987	-18.4866	3.78175	0	
2.0993	-20.0229	4.06538	0	
2.1000	-23.966	6.52352	0	
2.1007	-22.7882	6.23988	0	
2.1013	-8.70559	3.45085	0	
2.1020	2.56047	1.93815	0	
2.1027	3.17498	2.26905	0	
2.1033	1.02419	1.65451	0	
2.1040	0.716931	1.93815	0	
2.1047	-0.512094	3.78175	0	
2.1053	-2.91893	3.78175	0	
2.1060	-9.01285	1.93815	0	
2.1067	-18.1793	2.88358	0	
2.1073	-23.966	3.45085	0	
2.1080	-20.0229	1.03998	0	
2.1087	-9.93462	1.03998	0	
2.1093	0.102419	2.88358	0	
2.1100	9.88341	1.93815	0	
2.1107	19.0499	-0.803621	0	
2.1113	24.5293	0.0945437	0	
2.1120	27.6018	1.03998	0	
2.1127	27.2946	-1.08725	0	
2.1133	22.6857	-2.03269	0	
2.1140	18.7426	-0.189087	0	
2.1147	14.7483	-1.41816	0	
2.1153	6.5548	-3.26176	0	
2.1160	-1.68991	-0.803621	0	
2.1167	-8.70559	0.425447	0	
2.1173	-21.2519	-2.31632	0	
2.1180	-30.7256	-2.64722	0	
2.1187	-25.5023	-0.472719	0	
2.1193	-17.5648	-0.803621	0	
2.1200	-20.0229	-0.472719	0	
2.1207	-27.0385	-0.472719	0	
2.1213	-30.9817	-2.93085	0	
2.1220	-32.2107	-2.93085	0	
2.1227	-27.3458	0.0945437	0	
2.1233	-11.4709	0.709078	0	
2.1240	12.0342	-0.472719	0	
2.1247	33.6958	-0.472719	0	
2.1253	41.9405	-1.70179	0	
2.1260	37.3316	-2.93085	0	
2.1267	33.3885	-2.03269	0	
2.1273	34.003	-0.803621	0	
2.1280	28.5236	-1.41816	0	
2.1287	13.2632	-2.64722	0	
2.1293	-2.61168	-2.64722	0	
2.1300	-14.2362	-2.64722	0	
2.1307	-19.7156	-5.38899	0	
2.1313	-25.5023	-5.38899	0	
2.1320	-35.5905	-0.803621	0	
2.1327	-40.7627	0.0945437	0	
2.1333	-34.6687	-2.64722	0	
2.1340	-23.0954	-1.70179	0	
2.1347	-7.22052	-0.472719	0	
2.1353	14.441	-2.93085	0	
2.1360	37.3316	-3.54539	0	
2.1367	55.0501	-1.70179	0	
2.1373	62.6803	-2.64722	0	
2.1380	57.5081	-4.44355	0	
2.1387	34.3103	-1.70179	0	
2.1393	-11.7782	-1.08725	0	
2.1400	-55.1013	-5.05809	0	
2.1407	-63.0387	-4.77446	0	
2.1413	-50.5436	-1.70179	0	
2.1420	-45.6788	-2.31632	0	
2.1427	-38.0486	-3.26176	0	
2.1433	-25.8095	-1.70179	0	
2.1440	-20.0229	-2.31632	0	
2.1447	-12.3927	-2.93085	0	
2.1453	-4.45521	-1.70179	0	
2.1460	-4.45521	0.0945437	0	
2.1467	4.40401	1.03998	0	
2.1473	22.0712	0.0945437	0	
2.1480	23.9148	-1.70179	0	
2.1487	12.956	0.0945437	0	
2.1493	5.32577	1.32361	0	
2.1500	0.716931	-2.31632	0	
2.1507	1.02419	-4.44355	0	
2.1513	4.71126	-2.31632	0	
2.1520	2.86772	-3.26176	0	
2.1527	0.102419	-5.05809	0	
2.1533	1.02419	-3.82902	0	
2.1540	1.02419	-3.82902	0	
2.1547	1.02419	-4.44355	0	
2.1553	0.102419	-2.64722	0	
2.1560	-5.68424	-0.803621	0	
2.1567	-7.22052	-1.70179	0	
2.1573	-1.68991	-1.41816	0	
2.1580	-1.38265	0.0945437	0	
2.1587	-1.68991	-0.472719	0	
2.1593	11.4197	-1.70179	0	
2.1600	26.6801	-2.64722	0	
2.1607	31.8522	-2.93085	0	
2.1613	31.8522	-2.64722	0	
2.1620	30.0087	-2.93085	0	
2.1627	25.4511	-4.44355	0	
2.1633	22.0712	-3.54539	0	
2.1640	15.3628	-0.803621	0	
2.1647	1.02419	0.709078	0	
2.1653	-13.6217	-2.03269	0	
2.1660	-24.8878	-3.54539	0	
2.1667	-34.6687	-1.08725	0	
2.1673	-35.5905	0.0945437	0	
2.1680	-26.1168	-1.41816	0	
2.1687	-18.1793	-1.70179	0	
2.1693	-16.0285	1.03998	0	
2.1700	-10.8564	4.67991	0	
2.1707	1.94596	4.06538	0	
2.1713	15.6701	-1.08725	0	
2.1720	27.6018	-3.82902	0	
2.1727	38.5607	0.0945437	0	
2.1733	45.5763	2.88358	0	
2.1740	39.4824	0.0945437	0	
2.1747	24.222	-1.41816	0	
2.1753	9.2689	0.0945437	0	
2.1760	-11.4709	1.32361	0	
2.1767	-40.1481	2.88358	0	
2.1773	-53.8723	4.06538	0	
2.1780	-44.757	3.78175	0	
2.1787	-35.5905	2.55268	0	
2.1793	-32.8252	1.03998	0	
2.1800	-27.0385	-0.803621	0	
2.1807	-23.4027	-0.803621	0	
2.1813	-19.4084	1.03998	0	
2.1820	1.33144	0.425447	0	
2.1827	32.774	0.0945437	0	
2.1833	57.8154	0.425447	0	
2.1840	74.5608	0.425447	0	
2.1847	74.2536	0.709078	0	
2.1853	42.2477	2.88358	0	
2.1860	-8.14229	4.67991	0	
2.1867	-45.986	2.88358	0	
2.1873	-62.117	0.0945437	0	
2.1880	-61.8097	-1.41816	0	
2.1887	-52.0799	-1.70179	0	
2.1893	-38.9191	-0.803621	0	
2.1900	-30.4184	2.55268	0	
2.1907	-26.424	4.67991	0	
2.1913	-21.8664	2.88358	0	
2.1920	-16.643	-0.803621	0	
2.1927	-15.4652	-1.70179	0	
2.1933	-14.2362	-1.08725	0	
2.1940	-11.7782	-1.08725	0	
2.1947	-11.7782	1.03998	0	
2.1953	-8.70559	2.88358	0	
2.1960	-2.61168	1.32361	0	
2.1967	0.716931	0.0945437	0	
2.1973	8.96164	0.709078	0	
2.1980	24.8365	-0.803621	0	
2.1987	32.4667	-2.31632	0	
2.1993	25.7583	-0.803621	0	
2.2000	19.9717	-2.64722	0	
2.2007	19.9717	-7.18532	0	
2.2013	18.1281	-6.28716	0	
2.2020	12.0342	-1.70179	0	
2.2027	9.2689	-0.803621	0	
2.2033	14.7483	-2.93085	0	
2.2040	20.2789	-2.31632	0	
2.2047	19.9717	-0.803621	0	
2.2053	19.6644	-1.70179	0	
2.2060	21.2007	-3.54539	0	
2.2067	20.5862	-1.70179	0	
2.2073	22.993	-0.803621	0	
2.2080	26.9873	-2.64722	0	
2.2087	21.5079	-2.93085	0	
2.2093	8.96164	-0.803621	0	
2.2100	-4.45521	0.709078	0	
2.2107	-20.0229	2.88358	0	
2.2113	-29.1893	3.78175	0	
2.2120	-22.7882	1.65451	0	
2.2127	-13.6217	0.709078	0	
2.2133	-7.22052	1.65451	0	
2.2140	4.71126	-0.189087	0	
2.2147	15.6701	-1.08725	0	
2.2153	15.3628	2.55268	0	
2.2160	12.3415	1.93815	0	
2.2167	12.956	-1.70179	0	
2.2173	10.8052	1.65451	0	
2.2180	5.01852	5.90898	0	
2.2187	2.86772	1.65451	0	
2.2193	4.71126	-1.70179	0	
2.2200	10.1907	0.709078	0	
2.2207	19.3571	0.0945437	0	
2.2213	25.7583	-1.08725	0	
2.2220	21.5079	1.03998	0	
2.2227	13.5705	2.55268	0	
2.2233	4.71126	3.16721	0	
2.2240	-11.4709	4.39628	0	
2.2247	-28.2676	4.06538	0	
2.2253	-28.8821	4.06538	0	
2.2260	-15.158	4.06538	0	
2.2267	2.86772	2.26905	0	
2.2273	20.8934	2.55268	0	
2.2280	36.1538	4.06538	0	
2.2287	40.0969	2.55268	0	
2.2293	21.5079	0.709078	0	
2.2300	-15.4652	2.26905	0	
2.2307	-38.9191	3.78175	0	
2.2313	-36.5123	3.16721	0	
2.2320	-34.3615	2.55268	0	
2.2327	-45.0642	1.65451	0	
2.2333	-48.7001	1.32361	0	
2.2340	-37.434	1.32361	0	
2.2347	-20.6374	-1.08725	0	
2.2353	-4.76247	-3.54539	0	
2.2360	1.33144	-2.31632	0	
2.2367	-0.81935	-1.70179	0	
2.2373	-0.81935	-3.26176	0	
2.2380	-2.61168	-2.64722	0	
2.2387	-10.5491	-0.803621	0	
2.2393	-13.0072	-2.64722	0	
2.2400	-9.93462	-5.05809	0	
2.2407	-11.4709	-4.77446	0	
2.2413	-15.7725	-2.64722	0	
2.2420	-15.7725	-0.472719	0	
2.2427	-10.2419	-1.70179	0	
2.2433	-3.53345	-4.15992	0	
2.2440	-1.99717	-5.38899	0	
2.2447	-3.22619	-5.38899	0	
2.2453	1.02419	-5.38899	0	
2.2460	6.5548	-2.64722	0	
2.2467	6.81085	0.0945437	0	
2.2473	3.78949	-1.41816	0	
2.2480	1.94596	-3.26176	0	
2.2487	-1.38265	-3.54539	0	
2.2493	-3.53345	-3.54539	0	
2.2500	1.02419	-3.26176	0	
2.2507	14.1338	-3.54539	0	
2.2513	28.5236	-3.26176	0	
2.2520	36.7171	-2.03269	0	
2.2527	38.5607	-2.93085	0	
2.2533	32.4667	-4.44355	0	
2.2540	18.1281	-3.54539	0	
2.2547	-1.38265	-3.54539	0	
2.2553	-23.6587	-4.44355	0	
2.2560	-37.434	-0.472719	0	
2.2567	-27.3458	2.88358	0	
2.2573	-3.53345	-1.41816	0	
2.2580	11.1124	-3.54539	0	
2.2587	13.5705	-0.803621	0	
2.2593	11.7269	-1.70179	0	
2.2600	10.1907	-5.67262	0	
2.2607	12.3415	-6.61806	0	
2.2613	12.3415	-6.28716	0	
2.2620	5.32577	-6.00353	0	
2.2627	-1.0754	-2.64722	0	
2.2633	-8.14229	-2.03269	0	
2.2640	-23.0954	-4.77446	0	
2.2647	-33.747	-4.15992	0	
2.2653	-30.1111	0.0945437	0	
2.2660	-23.6587	1.03998	0	
2.2667	-21.8664	0.0945437	0	
2.2673	-19.1011	1.65451	0	
2.2680	-16.3358	3.16721	0	
2.2687	-14.5435	3.16721	0	
2.2693	-8.70559	1.93815	0	
2.2700	0.102419	0.425447	0	
2.2707	7.73261	-0.189087	0	
2.2713	13.8777	0.425447	0	
2.2720	19.0499	1.93815	0	
2.2727	24.5293	3.16721	0	
2.2733	32.4667	2.26905	0	
2.2740	40.4042	1.03998	0	
2.2747	42.2477	1.03998	0	
2.2753	36.7171	1.65451	0	
2.2760	26.6801	0.425447	0	
2.2767	10.8052	1.03998	0	
2.2773	-9.62736	4.67991	0	
2.2780	-21.8664	7.75258	0	
2.2787	-22.1737	5.90898	0	
2.2793	-17.2576	1.93815	0	
2.2800	-4.45521	1.93815	0	
2.2807	17.2063	3.78175	0	
2.2813	37.0244	3.45085	0	
2.2820	46.1908	3.16721	0	
2.2827	41.326	3.78175	0	
2.2833	25.7583	3.16721	0	
2.2840	13.8777	1.93815	0	
2.2847	7.73261	1.93815	0	
2.2853	-7.22052	1.93815	0	
2.2860	-25.5023	2.88358	0	
2.2867	-23.6587	3.78175	0	
2.2873	-1.99717	1.93815	0	
2.2880	16.5918	-0.189087	0	
2.2887	15.0556	0.0945437	0	
2.2893	-5.06973	0.0945437	0	
2.2900	-28.2676	-1.70179	0	
2.2907	-41.9917	-0.803621	0	
2.2913	-48.7001	1.93815	0	
2.2920	-49.9291	2.88358	0	
2.2927	-43.2207	1.93815	0	
2.2933	-34.6687	0.0945437	0	
2.2940	-29.1893	-1.70179	0	
2.2947	-21.5591	-1.70179	0	
2.2953	-9.3201	-0.803621	0	
2.2960	-1.68991	-1.41816	0	
2.2967	-0.81935	-1.08725	0	
2.2973	-2.61168	-0.472719	0	
2.2980	-8.70559	-0.803621	0	
2.2987	-13.6217	-0.803621	0	
2.2993	-10.5491	-0.189087	0	
2.3000	-10.8564	0.0945437	0	
2.3007	-18.4866	0.709078	0	
2.3013	-23.4027	1.32361	0	
2.3020	-27.3458	2.26905	0	
2.3027	-30.1111	2.55268	0	
2.3033	-14.5435	1.32361	0	
2.3040	7.42536	1.03998	0	
2.3047	14.1338	1.65451	0	
2.3053	12.6487	0.709078	0	
2.3060	11.7269	-0.472719	0	
2.3067	6.5548	-0.472719	0	
2.3073	3.48224	-0.803621	0	
2.3080	6.5548	-0.803621	0	
2.3087	10.1907	-0.472719	0	
2.3093	12.956	-2.03269	0	
2.3100	12.956	-1.70179	0	
2.3107	8.65438	1.93815	0	
2.3113	6.24754	1.65451	0	
2.3120	9.2689	-0.803621	0	
2.3127	17.8209	0.425447	0	
2.3133	31.2377	0.0945437	0	
2.3140	42.2477	-2.31632	0	
2.3147	43.1695	0.0945437	0	
2.3153	34.9248	3.78175	0	
2.3160	19.0499	0.425447	0	
2.3167	-3.22619	-5.38899	0	
2.3173	-28.2676	-4.77446	0	
2.3180	-46.8566	-1.08725	0	
2.3187	-45.6788	-1.70179	0	
2.3193	-23.4027	-3.54539	0	
2.3200	-1.68991	-2.64722	0	
2.3207	5.94029	-1.70179	0	
2.3213	9.57615	-4.15992	0	
2.3220	13.2632	-6.28716	0	
2.3227	10.1907	-5.38899	0	
2.3233	1.94596	-3.26176	0	
2.3240	-5.06973	-1.70179	0	
2.3247	-13.0072	-1.41816	0	
2.3253	-24.8878	-2.64722	0	
2.3260	-30.1111	-3.26176	0	
2.3267	-20.0229	-1.70179	0	
2.3273	-7.22052	-1.70179	0	
2.3280	-5.06973	-3.82902	0	
2.3287	-6.29875	-4.44355	0	
2.3293	-2.30442	-3.54539	0	
2.3300	3.78949	-2.64722	0	
2.3307	8.96164	-0.803621	0	
2.3313	10.8052	-2.03269	0	
2.3320	6.24754	-5.38899	0	
2.3327	0.102419	-4.44355	0	
2.3333	-1.68991	-1.08725	0	
2.3340	-2.91893	-2.64722	0	
2.3347	-3.53345	-5.67262	0	
2.3353	-4.45521	-2.93085	0	
2.3360	-9.62736	0.0945437	0	
2.3367	-4.76247	-1.70179	0	
2.3373	16.8991	-4.44355	0	
2.3380	34.3103	-2.93085	0	
2.3387	38.8679	-1.70179	0	
2.3393	46.4981	0.0945437	0	
2.3400	56.8936	3.78175	0	
2.3407	60.5295	4.39628	0	
2.3413	51.4142	0.709078	0	
2.3420	18.1281	-0.472719	0	
2.3427	-25.195	1.32361	0	
2.3433	-41.9917	1.93815	0	
2.3440	-41.3772	0.425447	0	
2.3447	-50.5436	0.425447	0	
2.3453	-51.4654	1.93815	0	
2.3460	-29.1893	2.88358	0	
2.3467	-6.91326	1.65451	0	
2.3473	-1.0754	1.93815	0	
2.3480	-3.22619	4.67991	0	
2.3487	-4.14796	4.39628	0	
2.3493	-1.68991	1.93815	0	
2.3500	0.102419	1.65451	0	
2.3507	1.6387	2.55268	0	
2.3513	4.71126	2.26905	0	
2.3520	6.5548	1.93815	0	
2.3527	5.63303	1.03998	0	
2.3533	4.40401	1.03998	0	
2.3540	2.56047	1.03998	0	
2.3547	1.02419	-1.08725	0	
2.3553	3.78949	-2.64722	0	
2.3560	4.71126	-0.472719	0	
2.3567	1.02419	0.425447	0	
2.3573	0.102419	-2.31632	0	
2.3580	2.56047	-3.82902	0	
2.3587	1.94596	-1.70179	0	
2.3593	3.48224	1.03998	0	
2.3600	7.73261	0.425447	0	
2.3607	6.81085	-1.08725	0	
2.3613	5.01852	-1.41816	0	
2.3620	10.1907	-1.41816	0	
2.3627	16.8991	-0.472719	0	
2.3633	22.0712	1.32361	0	
2.3640	27.2946	0.0945437	0	
2.3647	29.3942	-2.64722	0	
2.3653	30.9305	-1.08725	0	
2.3660	34.9248	0.425447	0	
2.3667	31.8522	-0.803621	0	
2.3673	19.0499	-1.41816	0	
2.3680	7.73261	-0.472719	0	
2.3687	-5.37698	-0.472719	0	
2.3693	-28.2676	-2.31632	0	
2.3700	-42.9135	-4.15992	0	
2.3707	-34.6687	-2.64722	0	
2.3713	-19.4084	-0.189087	0	
2.3720	-13.0072	-1.70179	0	
2.3727	-11.4709	-2.64722	0	
2.3733	-7.52778	-0.803621	0	
2.3740	-0.512094	-1.70179	0	
2.3747	5.94029	-2.93085	0	
2.3753	7.1181	-2.03269	0	
2.3760	4.09675	-2.93085	0	
2.3767	-0.204837	-2.64722	0	
2.3773	-5.9915	1.03998	0	
2.3780	-13.3144	-0.472719	0	
2.3787	-17.2576	-3.26176	0	
2.3793	-13.6217	-0.472719	0	
2.3800	-7.22052	1.03998	0	
2.3807	-6.29875	0.0945437	0	
2.3813	-8.70559	1.65451	0	
2.3820	-9.01285	1.93815	0	
2.3827	-6.60601	0.425447	0	
2.3833	3.48224	1.03998	0	
2.3840	24.8365	0.0945437	0	
2.3847	44.9618	-2.93085	0	
2.3853	56.8936	-1.70179	0	
2.3860	69.6959	2.88358	0	
2.3867	81.6277	2.88358	0	
2.3873	74.8681	-0.803621	0	
2.3880	38.2534	-2.31632	0	
2.3887	-10.8564	-2.03269	0	
2.3893	-44.1425	-1.41816	0	
2.3900	-59.0956	-1.41816	0	
2.3907	-75.2778	-0.803621	0	
2.3913	-90.2309	0.709078	0	
2.3920	-84.7003	1.32361	0	
2.3927	-58.4811	0.0945437	0	
2.3933	-31.5962	0.0945437	0	
2.3940	-17.2576	1.32361	0	
2.3947	-14.8507	1.93815	0	
2.3953	-15.4652	1.93815	0	
2.3960	-12.3927	3.45085	0	
2.3967	-9.01285	4.06538	0	
2.3973	-7.52778	3.78175	0	
2.3980	-7.52778	2.88358	0	
2.3987	-5.37698	1.93815	0	
2.3993	-1.99717	1.65451	0	
2.4000	-1.38265	0.709078	0	
2.4007	-2.91893	-1.08725	0	
2.4013	-1.0754	-2.03269	0	
2.4020	2.86772	-0.189087	0	
2.4027	7.1181	1.03998	0	
2.4033	11.7269	-0.803621	0	
2.4040	15.6701	-2.31632	0	
2.4047	17.5136	0.0945437	0	
2.4053	16.5918	1.65451	0	
2.4060	15.3628	-0.803621	0	
2.4067	22.6857	-1.08725	0	
2.4073	31.8522	1.32361	0	
2.4080	25.1438	1.03998	0	
2.4087	12.3415	-1.70179	0	
2.4093	12.0342	-1.41816	0	
2.4100	14.1338	-1.70179	0	
2.4107	5.63303	-2.93085	0	
2.4113	-7.22052	-1.08725	0	
2.4120	-16.643	0.425447	0	
2.4127	-20.0229	-1.41816	0	
2.4133	-15.158	-1.70179	0	
2.4140	-9.01285	0.425447	0	
2.4147	-8.44955	-0.472719	0	
2.4153	-9.93462	-2.03269	0	
2.4160	-9.3201	1.03998	0	
2.4167	-7.83503	3.78175	0	
2.4173	-4.76247	1.03998	0	
2.4180	-3.53345	-2.64722	0	
2.4187	-5.37698	-1.41816	0	
2.4193	-7.22052	0.425447	0	
2.4200	-7.22052	-1.70179	0	
2.4207	-5.06973	-2.93085	0	
2.4213	0.409675	-0.472719	0	
2.4220	6.24754	1.03998	0	
2.4227	13.2632	-1.41816	0	
2.4233	26.6801	-1.08725	0	
2.4240	36.7171	3.78175	0	
2.4247	36.7171	4.67991	0	
2.4253	36.7171	-0.189087	0	
2.4260	38.2534	-2.93085	0	
2.4267	31.2377	-0.803621	0	
2.4273	20.8934	1.93815	0	
2.4280	14.7483	3.78175	0	
2.4287	5.32577	1.93815	0	
2.4293	-8.44955	-0.803621	0	
2.4300	-19.4084	1.03998	0	
2.4307	-30.4184	2.88358	0	
2.4313	-37.1268	1.03998	0	
2.4320	-31.9034	-0.803621	0	
2.4327	-22.4809	-0.803621	0	
2.4333	-17.2576	-0.803621	0	
2.4340	-14.8507	-1.41816	0	
2.4347	-14.5435	-1.08725	0	
2.4353	-12.6999	-1.08725	0	
2.4360	-8.14229	0.0945437	0	
2.4367	-6.60601	0.0945437	0	
2.4373	-10.8564	-2.31632	0	
2.4380	-13.9289	-3.82902	0	
2.4387	-15.158	-2.31632	0	
2.4393	-16.3358	-0.803621	0	
2.4400	-12.6999	-1.70179	0	
2.4407	4.40401	-1.41816	0	
2.4413	35.8466	-0.803621	0	
2.4420	66.9306	-3.26176	0	
2.4427	77.9407	-5.05809	0	
2.4433	69.6959	-2.64722	0	
2.4440	56.5864	-0.472719	0	
2.4447	38.2534	-2.93085	0	
2.4453	4.40401	-4.44355	0	
2.4460	-40.1481	-1.41816	0	
2.4467	-72.8197	1.65451	0	
2.4473	-74.9705	-0.189087	0	
2.4480	-54.1795	-3.26176	0	
2.4487	-37.434	-2.64722	0	
2.4493	-36.8195	0.425447	0	
2.4500	-35.2833	1.03998	0	
2.4507	-23.6587	-1.08725	0	
2.4513	-13.9289	-2.31632	0	
2.4520	-11.1636	-0.189087	0	
2.4527	-7.83503	-0.472719	0	
2.4533	-5.06973	-3.82902	0	
2.4540	-6.91326	-4.44355	0	
2.4547	-6.60601	-2.64722	0	
2.4553	-2.61168	-3.54539	0	
2.4560	-0.81935	-5.05809	0	
2.4567	-1.99717	-3.26176	0	
2.4573	-1.0754	-1.70179	0	
2.4580	0.716931	-0.803621	0	
2.4587	-2.61168	1.93815	0	
2.4593	-10.2419	2.26905	0	
2.4600	-11.7782	0.0945437	0	
2.4607	-5.37698	-0.803621	0	
2.4613	-4.76247	-1.08725	0	
2.4620	-13.9289	-1.41816	0	
2.4627	-23.6587	1.93815	0	
2.4633	-30.4184	4.06538	0	
2.4640	-33.1325	1.93815	0	
2.4647	-28.2676	-2.03269	0	
2.4653	-19.4084	-2.93085	0	
2.4660	-10.8564	-1.70179	0	
2.4667	-1.38265	-1.70179	0	
2.4673	6.5548	-3.54539	0	
2.4680	12.3415	-3.26176	0	
2.4687	17.5136	-0.803621	0	
2.4693	16.2846	-0.803621	0	
2.4700	11.7269	-1.41816	0	
2.4707	15.3628	-0.472719	0	
2.4713	19.0499	-0.472719	0	
2.4720	14.7483	-2.03269	0	
2.4727	18.4354	-2.64722	0	
2.4733	31.2377	-2.03269	0	
2.4740	34.9248	-2.03269	0	
2.4747	30.0087	-1.70179	0	
2.4753	25.1438	-0.472719	0	
2.4760	20.2789	1.65451	0	
2.4767	17.5136	1.03998	0	
2.4773	13.8777	-2.03269	0	
2.4780	5.32577	-2.64722	0	
2.4787	-4.14796	-0.472719	0	
2.4793	-15.158	0.0945437	0	
2.4800	-30.9817	-0.803621	0	
2.4807	-34.976	-1.70179	0	
2.4813	-19.7156	-2.64722	0	
2.4820	-5.9915	-1.08725	0	
2.4827	-5.37698	1.03998	0	
2.4833	-7.52778	1.65451	0	
2.4840	-11.1636	0.0945437	0	
2.4847	-17.8721	-0.472719	0	
2.4853	-16.9503	1.03998	0	
2.4860	-5.68424	1.65451	0	
2.4867	9.88341	0.0945437	0	
2.4873	31.2377	-1.70179	0	
2.4880	54.4356	-2.03269	0	
2.4887	64.2165	-1.08725	0	
2.4893	66.9306	0.0945437	0	
2.4900	77.6334	1.03998	0	
2.4907	71.5395	0.0945437	0	
2.4913	31.545	-0.189087	0	
2.4920	-4.45521	1.65451	0	
2.4927	-9.93462	3.45085	0	
2.4933	-14.2362	3.45085	0	
2.4940	-36.205	1.65451	0	
2.4947	-54.4868	-0.189087	0	
2.4953	-55.7158	0.425447	0	
2.4960	-49.6219	1.03998	0	
2.4967	-45.6788	-2.31632	0	
2.4973	-41.3772	-3.54539	0	
2.4980	-36.8195	-0.803621	0	
2.4987	-33.747	-1.08725	0	
2.4993	-27.3458	-3.54539	0	
2.5000	-16.0285	-2.64722	0	
2.5007	-11.7782	-1.70179	0	
2.5013	-14.8507	-2.64722	0	
2.5020	-11.1636	-0.189087	0	
2.5027	-5.37698	1.65451	0	
2.5033	-4.14796	0.0945437	0	
2.5040	4.09675	-1.70179	0	
2.5047	15.6701	-2.93085	0	
2.5053	17.8209	-2.31632	0	
2.5060	18.4354	-1.08725	0	
2.5067	25.7583	-2.93085	0	
2.5073	32.4667	-5.38899	0	
2.5080	36.7171	-4.44355	0	
2.5087	36.1538	-1.70179	0	
2.5093	31.545	-0.803621	0	
2.5100	33.6958	-2.64722	0	
2.5107	41.326	-3.54539	0	
2.5113	36.7171	-1.70179	0	
2.5120	19.3571	-1.70179	0	
2.5127	5.01852	-3.54539	0	
2.5133	-3.8407	-1.08725	0	
2.5140	-9.93462	0.0945437	0	
2.5147	-9.93462	-3.26176	0	
2.5153	-8.14229	-4.44355	0	
2.5160	-11.4709	-2.93085	0	
2.5167	-19.1011	-2.64722	0	
2.5173	-28.5748	-0.803621	0	
2.5180	-37.434	-0.189087	0	
2.5187	-31.5962	-2.93085	0	
2.5193	-14.2362	-3.82902	0	
2.5200	-7.52778	-2.64722	0	
2.5207	-14.5435	-2.64722	0	
2.5213	-17.8721	-2.64722	0	
2.5220	-12.3927	-0.803621	0	
2.5227	-1.68991	0.425447	0	
2.5233	15.6701	2.88358	0	
2.5240	31.8522	2.55268	0	
2.5247	38.2534	-0.803621	0	
2.5253	44.0913	-1.41816	0	
2.5260	57.5081	-0.472719	0	
2.5267	66.0601	-2.03269	0	
2.5273	51.4142	-2.64722	0	
2.5280	18.7426	-1.08725	0	
2.5287	-8.70559	-0.803621	0	
2.5293	-22.1737	-0.472719	0	
2.5300	-33.1325	-1.08725	0	
2.5307	-46.2421	-1.70179	0	
2.5313	-52.0799	-0.472719	0	
2.5320	-45.0642	0.0945437	0	
2.5327	-34.976	-1.41816	0	
2.5333	-28.8821	-0.803621	0	
2.5340	-21.8664	0.0945437	0	
2.5347	-10.8564	-0.472719	0	
2.5353	-1.68991	-0.189087	0	
2.5360	8.03987	-0.803621	0	
2.5367	25.1438	-2.64722	0	
2.5373	41.6332	-1.41816	0	
2.5380	43.1695	1.03998	0	
2.5387	30.6232	0.709078	0	
2.5393	14.7483	0.709078	0	
2.5400	-2.61168	1.65451	0	
2.5407	-25.5023	0.0945437	0	
2.5413	-45.6788	-2.03269	0	
2.5420	-48.0856	-1.70179	0	
2.5427	-36.5123	0.425447	0	
2.5433	-30.4184	1.65451	0	
2.5440	-30.4184	1.93815	0	
2.5447	-23.0954	1.65451	0	
2.5453	-12.6999	1.32361	0	
2.5460	-10.8564	1.93815	0	
2.5467	-13.6217	1.93815	0	
2.5473	-13.6217	1.93815	0	
2.5480	-10.5491	2.26905	0	
2.5487	-5.06973	1.65451	0	
2.5493	1.02419	1.93815	0	
2.5500	1.33144	4.67991	0	
2.5507	-1.0754	3.16721	0	
2.5513	-0.81935	-0.803621	0	
2.5520	3.78949	0.0945437	0	
2.5527	12.6487	4.06538	0	
2.5533	22.0712	4.06538	0	
2.5540	25.1438	2.88358	0	
2.5547	23.6075	3.45085	0	
2.5553	22.0712	3.45085	0	
2.5560	19.9717	3.16721	0	
2.5567	15.6701	3.78175	0	
2.5573	10.8052	2.88358	0	
2.5580	6.5548	2.26905	0	
2.5587	2.86772	2.88358	0	
2.5593	1.33144	3.16721	0	
2.5600	2.25321	2.55268	0	
2.5607	4.09675	1.93815	0	
2.5613	2.25321	-0.189087	0	
2.5620	-1.68991	-2.03269	0	
2.5627	2.25321	-1.70179	0	
2.5633	15.6701	-1.70179	0	
2.5640	29.1381	-1.70179	0	
2.5647	36.1538	-0.803621	0	
2.5653	34.6175	1.65451	0	
2.5660	31.545	3.45085	0	
2.5667	34.003	4.39628	0	
2.5673	30.9305	2.88358	0	
2.5680	13.8777	-0.189087	0	
2.5687	-6.29875	0.425447	0	
2.5693	-25.5023	2.88358	0	
2.5700	-46.2421	2.88358	0	
2.5707	-56.3303	0.709078	0	
2.5713	-45.6788	-0.803621	0	
2.5720	-23.4027	-0.803621	0	
2.5727	4.09675	0.0945437	0	
2.5733	35.8466	-0.472719	0	
2.5740	57.8154	-0.803621	0	
2.5747	58.7371	0.0945437	0	
2.5753	48.0344	0.0945437	0	
2.5760	27.9091	-2.64722	0	
2.5767	-8.70559	-4.77446	0	
2.5773	-46.2421	-5.38899	0	
2.5780	-58.7884	-3.26176	0	
2.5787	-51.1582	-1.08725	0	
2.5793	-45.3715	-0.803621	0	
2.5800	-41.3772	-0.189087	0	
2.5807	-33.747	1.03998	0	
2.5813	-24.5805	0.0945437	0	
2.5820	-14.8507	-0.472719	0	
2.5827	-4.45521	0.709078	0	
2.5833	1.94596	0.709078	0	
2.5840	11.1124	-0.803621	0	
2.5847	30.0087	-1.41816	0	
2.5853	43.1695	-1.70179	0	
2.5860	36.4611	-1.70179	0	
2.5867	21.2007	-1.41816	0	
2.5873	2.86772	-2.31632	0	
2.5880	-20.9446	-4.44355	0	
2.5887	-37.434	-4.77446	0	
2.5893	-37.7413	-2.03269	0	
2.5900	-32.5179	-0.189087	0	
2.5907	-25.195	-0.803621	0	
2.5913	-14.8507	-1.70179	0	
2.5920	-7.22052	-4.44355	0	
2.5927	-5.06973	-6.61806	0	
2.5933	-6.29875	-3.54539	0	
2.5940	-9.93462	0.0945437	0	
2.5947	-13.3144	-1.70179	0	
2.5953	-13.6217	-2.31632	0	
2.5960	-14.8507	1.03998	0	
2.5967	-16.0285	0.0945437	0	
2.5973	-13.9289	-4.44355	0	
2.5980	-15.158	-4.77446	0	
2.5987	-23.6587	-3.54539	0	
2.5993	-25.5023	-2.93085	0	
2.6000	-10.8564	-1.41816	0	
2.6007	8.34713	0.0945437	0	
2.6013	18.1281	0.0945437	0	
2.6020	20.2789	0.709078	0	
2.6027	20.8934	0.0945437	0	
2.6033	21.2007	-1.41816	0	
2.6040	20.2789	-0.803621	0	
2.6047	15.3628	-1.70179	0	
2.6053	4.40401	-3.54539	0	
2.6060	-6.29875	-1.70179	0	
2.6067	-13.6217	1.03998	0	
2.6073	-13.9289	-1.08725	0	
2.6080	-5.06973	-4.44355	0	
2.6087	5.01852	-5.05809	0	
2.6093	6.24754	-4.77446	0	
2.6100	-1.99717	-3.26176	0	
2.6107	-11.7782	0.0945437	0	
2.6113	-14.8507	0.0945437	0	
2.6120	-10.2419	-0.803621	0	
2.6127	-3.22619	0.0945437	0	
2.6133	11.4197	0.0945437	0	
2.6140	37.6389	0.0945437	0	
2.6147	60.5295	1.03998	0	
2.6153	68.7742	0.0945437	0	
2.6160	64.5238	-1.08725	0	
2.6167	47.1126	-0.472719	0	
2.6173	17.2063	0.425447	0	
2.6180	-14.5435	0.0945437	0	
2.6187	-38.0486	-0.472719	0	
2.6193	-48.3929	-0.472719	0	
2.6200	-41.3772	-0.189087	0	
2.6207	-23.966	0.0945437	0	
2.6213	-8.14229	-0.472719	0	
2.6220	1.6387	0.0945437	0	
2.6227	8.34713	2.26905	0	
2.6233	12.956	2.26905	0	
2.6240	13.5705	-0.472719	0	
2.6247	13.2632	-1.41816	0	
2.6253	16.2846	1.03998	0	
2.6260	15.9773	1.93815	0	
2.6267	8.34713	0.0945437	0	
2.6273	-1.68991	-0.803621	0	
2.6280	-7.22052	-0.189087	0	
2.6287	-5.37698	-0.472719	0	
2.6293	-1.38265	1.03998	0	
2.6300	-3.53345	3.16721	0	
2.6307	-3.22619	1.65451	0	
2.6313	8.34713	-0.803621	0	
2.6320	11.4197	-1.41816	0	
2.6327	1.02419	-2.64722	0	
2.6333	3.17498	-2.93085	0	
2.6340	20.8934	-0.803621	0	
2.6347	28.5236	-0.189087	0	
2.6353	21.2007	-1.70179	0	
2.6360	12.6487	-0.803621	0	
2.6367	5.01852	-0.803621	0	
2.6373	-6.29875	-1.41816	0	
2.6380	-20.0229	-0.803621	0	
2.6387	-26.1168	-1.70179	0	
2.6393	-20.3301	-1.70179	0	
2.6400	-10.2419	1.32361	0	
2.6407	-1.68991	2.55268	0	
2.6413	4.09675	-1.08725	0	
2.6420	3.17498	-1.70179	0	
2.6427	-2.30442	1.03998	0	
2.6433	-9.01285	0.709078	0	
2.6440	-17.2576	-0.472719	0	
2.6447	-20.3301	1.93815	0	
2.6453	-13.6217	1.65451	0	
2.6460	-5.37698	-1.70179	0	
2.6467	-2.61168	-1.41816	0	
2.6473	-5.37698	1.65451	0	
2.6480	-13.0072	2.88358	0	
2.6487	-18.1793	4.06538	0	
2.6493	-14.2362	5.62535	0	
2.6500	-8.14229	4.06538	0	
2.6507	-3.8407	3.45085	0	
2.6513	7.42536	4.06538	0	
2.6520	22.6857	2.88358	0	
2.6527	33.3885	1.65451	0	
2.6533	34.9248	2.88358	0	
2.6540	21.2007	3.78175	0	
2.6547	-5.68424	3.78175	0	
2.6553	-25.5023	3.16721	0	
2.6560	-28.5748	2.88358	0	
2.6567	-27.3458	3.45085	0	
2.6573	-26.7313	4.67991	0	
2.6580	-20.3301	2.88358	0	
2.6587	-13.6217	0.425447	0	
2.6593	-11.7782	2.88358	0	
2.6600	-9.01285	4.06538	0	
2.6607	-3.53345	0.709078	0	
2.6613	1.94596	0.0945437	0	
2.6620	13.2632	4.39628	0	
2.6627	30.3159	5.62535	0	
2.6633	43.784	3.78175	0	
2.6640	46.1908	3.78175	0	
2.6647	36.4611	3.78175	0	
2.6653	22.6857	3.16721	0	
2.6660	16.2846	5.01082	0	
2.6667	8.96164	5.62535	0	
2.6673	-7.83503	2.88358	0	
2.6680	-18.7938	1.03998	0	
2.6687	-14.5435	1.93815	0	
2.6693	-6.29875	1.65451	0	
2.6700	-1.0754	1.93815	0	
2.6707	5.32577	1.93815	0	
2.6713	8.34713	1.93815	0	
2.6720	5.32577	1.65451	0	
2.6727	1.33144	0.709078	0	
2.6733	1.02419	-0.803621	0	
2.6740	2.25321	-0.189087	0	
2.6747	4.40401	0.425447	0	
2.6753	6.5548	-1.70179	0	
2.6760	4.71126	-2.64722	0	
2.6767	-0.204837	-0.803621	0	
2.6773	-1.38265	-0.803621	0	
2.6780	5.01852	0.425447	0	
2.6787	13.2632	3.16721	0	
2.6793	19.3571	2.88358	0	
2.6800	23.3003	0.0945437	0	
2.6807	25.4511	-1.08725	0	
2.6813	28.5236	0.425447	0	
2.6820	32.4667	1.65451	0	
2.6827	29.3942	1.32361	0	
2.6833	19.0499	1.03998	0	
2.6840	7.73261	1.32361	0	
2.6847	-3.22619	0.425447	0	
2.6853	-16.643	-3.26176	0	
2.6860	-27.6531	-3.54539	0	
2.6867	-30.1111	-0.803621	0	
2.6873	-27.6531	-2.64722	0	
2.6880	-27.9603	-5.67262	0	
2.6887	-22.7882	-3.82902	0	
2.6893	-0.204837	-1.70179	0	
2.6900	26.9873	-1.70179	0	
2.6907	34.9248	-1.70179	0	
2.6913	26.6801	-2.31632	0	
2.6920	19.6644	-1.70179	0	
2.6927	10.1907	1.65451	0	
2.6933	-13.0072	-0.472719	0	
2.6940	-36.5123	-4.15992	0	
2.6947	-39.2264	-1.70179	0	
2.6953	-26.424	0.0945437	0	
2.6960	-19.1011	-2.93085	0	
2.6967	-23.6587	-2.31632	0	
2.6973	-27.0385	0.0945437	0	
2.6980	-27.3458	-0.803621	0	
2.6987	-32.8252	-1.70179	0	
2.6993	-34.976	-1.41816	0	
2.7000	-22.1737	-2.03269	0	
2.7007	-0.204837	-1.70179	0	
2.7013	26.3728	0.0945437	0	
2.7020	48.6489	1.65451	0	
2.7027	40.4042	1.93815	0	
2.7033	5.01852	-1.70179	0	
2.7040	-16.0285	-5.67262	0	
2.7047	-16.3358	-3.54539	0	
2.7053	-20.9446	-1.08725	0	
2.7060	-24.5805	-2.31632	0	
2.7067	-17.2576	-3.26176	0	
2.7073	-13.6217	-2.93085	0	
2.7080	-11.1636	-3.82902	0	
2.7087	2.25321	-4.15992	0	
2.7093	18.4354	-2.64722	0	
2.7100	27.6018	-0.472719	0	
2.7107	29.1381	0.425447	0	
2.7113	19.3571	0.709078	0	
2.7120	4.40401	1.03998	0	
2.7127	-6.29875	1.93815	0	
2.7133	-18.1793	1.65451	0	
2.7140	-31.9034	-0.189087	0	
2.7147	-36.5123	-1.70179	0	
2.7153	-28.5748	-3.54539	0	
2.7160	-16.3358	-4.44355	0	
2.7167	-8.44955	-2.93085	0	
2.7173	-7.83503	-2.64722	0	
2.7180	-9.93462	-3.54539	0	
2.7187	-10.8564	-1.70179	0	
2.7193	-14.8507	-1.41816	0	
2.7200	-20.9446	-4.44355	0	
2.7207	-21.8664	-4.44355	0	
2.7213	-18.4866	-0.472719	0	
2.7220	-13.0072	-1.41816	0	
2.7227	-6.29875	-5.38899	0	
2.7233	-0.81935	-5.05809	0	
2.7240	4.71126	-2.93085	0	
2.7247	11.1124	-2.64722	0	
2.7253	17.8209	-1.70179	0	
2.7260	25.4511	-1.70179	0	
2.7267	32.1595	-2.64722	0	
2.7273	34.003	-1.70179	0	
2.7280	31.545	-0.472719	0	
2.7287	25.7583	-1.08725	0	
2.7293	11.1124	-0.803621	0	
2.7300	-4.45521	0.0945437	0	
2.7307	-1.99717	0.425447	0	
2.7313	12.3415	0.0945437	0	
2.7320	22.3785	-1.70179	0	
2.7327	27.6018	-4.44355	0	
2.7333	34.6175	-4.44355	0	
2.7340	46.4981	-2.03269	0	
2.7347	62.6803	-1.70179	0	
2.7353	73.0758	-3.26176	0	
2.7360	65.4456	-2.93085	0	
2.7367	42.2477	-2.03269	0	
2.7373	9.2689	-2.64722	0	
2.7380	-31.9034	-2.03269	0	
2.7387	-70.9762	0.0945437	0	
2.7393	-93.5595	0.425447	0	
2.7400	-91.4087	-0.472719	0	
2.7407	-69.4399	-1.08725	0	
2.7413	-50.2364	-2.03269	0	
2.7420	-43.8352	-2.64722	0	
2.7427	-36.5123	-0.472719	0	
2.7433	-20.9446	0.0945437	0	
2.7440	-6.29875	-2.03269	0	
2.7447	9.88341	-0.189087	0	
2.7453	30.0087	1.65451	0	
2.7460	38.2534	-0.803621	0	
2.7467	36.7171	-0.189087	0	
2.7473	37.6389	2.55268	0	
2.7480	28.5236	-0.803621	0	
2.7487	3.78949	-3.26176	0	
2.7493	-13.9289	-0.803621	0	
2.7500	-20.9446	-1.08725	0	
2.7507	-32.2107	-2.03269	0	
2.7513	-41.6844	0.425447	0	
2.7520	-37.1268	-0.803621	0	
2.7527	-23.4027	-3.82902	0	
2.7533	-11.4709	-1.08725	0	
2.7540	-7.22052	1.32361	0	
2.7547	-8.44955	0.0945437	0	
2.7553	-8.14229	-0.803621	0	
2.7560	-3.53345	-0.472719	0	
2.7567	0.102419	1.32361	0	
2.7573	0.102419	2.88358	0	
2.7580	-1.99717	1.32361	0	
2.7587	0.102419	-0.472719	0	
2.7593	8.34713	0.425447	0	
2.7600	13.2632	1.03998	0	
2.7607	13.5705	-0.189087	0	
2.7613	14.1338	-0.189087	0	
2.7620	13.2632	-0.472719	0	
2.7627	7.42536	-1.41816	0	
2.7633	3.48224	-0.189087	0	
2.7640	5.63303	1.03998	0	
2.7647	9.57615	0.709078	0	
2.7653	9.2689	1.03998	0	
2.7660	7.42536	1.65451	0	
2.7667	7.42536	-0.189087	0	
2.7673	3.48224	-2.64722	0	
2.7680	-6.29875	-2.03269	0	
2.7687	-12.0854	0.0945437	0	
2.7693	-9.01285	1.03998	0	
2.7700	-5.37698	-0.472719	0	
2.7707	-3.53345	-2.64722	0	
2.7713	0.102419	-2.31632	0	
2.7720	4.71126	-0.189087	0	
2.7727	7.73261	1.03998	0	
2.7733	12.0342	1.03998	0	
2.7740	19.9717	1.03998	0	
2.7747	25.7583	1.65451	0	
2.7753	25.7583	1.03998	0	
2.7760	22.0712	1.03998	0	
2.7767	19.0499	3.16721	0	
2.7773	15.6701	4.67991	0	
2.7780	12.3415	2.26905	0	
2.7787	11.1124	0.0945437	0	
2.7793	6.5548	2.88358	0	
2.7800	-3.53345	5.62535	0	
2.7807	-10.8564	4.06538	0	
2.7813	-10.8564	0.425447	0	
2.7820	-10.5491	-0.803621	0	
2.7827	-11.4709	1.65451	0	
2.7833	-8.14229	2.88358	0	
2.7840	-2.91893	2.26905	0	
2.7847	-3.8407	2.88358	0	
2.7853	-7.22052	3.45085	0	
2.7860	-5.68424	1.32361	0	
2.7867	-3.22619	-0.189087	0	
2.7873	-4.76247	0.0945437	0	
2.7880	-5.68424	-0.472719	0	
2.7887	-4.14796	-0.803621	0	
2.7893	-4.14796	-0.472719	0	
2.7900	-1.38265	-0.189087	0	
2.7907	6.81085	0.0945437	0	
2.7913	11.7269	-0.189087	0	
2.7920	11.1124	-1.70179	0	
2.7927	13.8777	-2.64722	0	
2.7933	24.5293	-2.93085	0	
2.7940	42.2477	-2.03269	0	
2.7947	59.6077	-0.803621	0	
2.7953	67.8524	-1.08725	0	
2.7960	56.8936	-1.41816	0	
2.7967	19.3571	0.709078	0	
2.7973	-30.7256	1.03998	0	
2.7980	-62.117	-1.08725	0	
2.7987	-73.127	1.03998	0	
2.7993	-77.9919	2.88358	0	
2.8000	-63.9605	-0.189087	0	
2.8007	-27.3458	-1.41816	0	
2.8013	-5.37698	0.0945437	0	
2.8020	-13.0072	-0.189087	0	
2.8027	-23.6587	0.0945437	0	
2.8033	-30.9817	1.03998	0	
2.8040	-46.8566	-1.70179	0	
2.8047	-56.6376	-2.64722	0	
2.8053	-47.4711	0.425447	0	
2.8060	-33.1325	1.65451	0	
2.8067	-24.2732	-0.803621	0	
2.8073	-14.2362	-3.26176	0	
2.8080	-1.38265	-4.44355	0	
2.8087	10.1907	-5.38899	0	
2.8093	19.9717	-5.38899	0	
2.8100	26.0656	-3.54539	0	
2.8107	23.3003	-1.70179	0	
2.8113	15.0556	-3.54539	0	
2.8120	8.34713	-5.38899	0	
2.8127	4.09675	-2.64722	0	
2.8133	1.02419	-1.41816	0	
2.8140	-0.81935	-4.15992	0	
2.8147	-0.81935	-5.05809	0	
2.8153	0.409675	-4.15992	0	
2.8160	1.33144	-4.15992	0	
2.8167	1.6387	-3.54539	0	
2.8173	1.94596	-2.64722	0	
2.8180	2.86772	-1.70179	0	
2.8187	4.71126	0.0945437	0	
2.8193	10.4979	0.0945437	0	
2.8200	19.6644	-1.70179	0	
2.8207	23.9148	-1.08725	0	
2.8213	23.9148	0.425447	0	
2.8220	22.993	-1.08725	0	
2.8227	20.5862	-3.26176	0	
2.8233	16.5918	-3.54539	0	
2.8240	9.2689	-4.44355	0	
2.8247	-4.45521	-4.77446	0	
2.8253	-14.2362	-2.93085	0	
2.8260	-4.76247	-2.31632	0	
2.8267	11.7269	-3.54539	0	
2.8273	23.3003	-4.44355	0	
2.8280	34.003	-5.38899	0	
2.8287	43.1695	-5.67262	0	
2.8293	49.5707	-2.03269	0	
2.8300	53.821	1.65451	0	
2.8307	37.3316	-0.803621	0	
2.8313	0.102419	-3.54539	0	
2.8320	-27.6531	-2.64722	0	
2.8327	-42.9135	-3.26176	0	
2.8333	-61.1952	-3.54539	0	
2.8340	-65.1895	0.709078	0	
2.8347	-46.5493	2.26905	0	
2.8353	-32.2107	-0.472719	0	
2.8360	-29.1893	-1.08725	0	
2.8367	-26.1168	-1.70179	0	
2.8373	-26.7313	-4.44355	0	
2.8380	-30.1111	-6.28716	0	
2.8387	-22.4809	-5.38899	0	
2.8393	-3.53345	-3.26176	0	
2.8400	22.0712	-2.03269	0	
2.8407	53.2065	-3.82902	0	
2.8413	75.7899	-3.54539	0	
2.8420	79.4769	-1.08725	0	
2.8427	64.2165	-2.03269	0	
2.8433	28.5236	-2.31632	0	
2.8440	-13.9289	0.425447	0	
2.8447	-37.434	-1.08725	0	
2.8453	-47.7783	-3.54539	0	
2.8460	-64.575	-0.803621	0	
2.8467	-76.7628	1.03998	0	
2.8473	-68.8254	-0.803621	0	
2.8480	-53.8723	-0.803621	0	
2.8487	-41.0699	-0.472719	0	
2.8493	-24.5805	-0.803621	0	
2.8500	-10.5491	-0.803621	0	
2.8507	-9.93462	-1.41816	0	
2.8513	-13.3144	-0.803621	0	
2.8520	-11.4709	2.88358	0	
2.8527	-6.29875	3.45085	0	
2.8533	0.409675	-0.803621	0	
2.8540	7.42536	-2.03269	0	
2.8547	11.1124	1.03998	0	
2.8553	11.4197	1.93815	0	
2.8560	8.96164	1.65451	0	
2.8567	3.17498	1.32361	0	
2.8573	-2.30442	-0.189087	0	
2.8580	-2.61168	-2.03269	0	
2.8587	1.02419	-1.70179	0	
2.8593	7.42536	-1.70179	0	
2.8600	15.0556	-2.31632	0	
2.8607	19.3571	-1.41816	0	
2.8613	17.5136	-1.08725	0	
2.8620	16.5918	-1.70179	0	
2.8627	19.3571	-0.189087	0	
2.8633	18.7426	0.425447	0	
2.8640	16.5918	-0.472719	0	
2.8647	19.3571	-1.08725	0	
2.8653	23.6075	-1.70179	0	
2.8660	24.5293	-1.70179	0	
2.8667	25.4511	-0.803621	0	
2.8673	26.6801	-2.03269	0	
2.8680	21.764	-2.93085	0	
2.8687	11.4197	-0.803621	0	
2.8693	6.5548	1.65451	0	
2.8700	9.88341	2.88358	0	
2.8707	11.4197	3.78175	0	
2.8713	5.63303	1.93815	0	
2.8720	0.102419	-0.803621	0	
2.8727	0.102419	-0.803621	0	
2.8733	0.102419	-0.803621	0	
2.8740	0.102419	-1.70179	0	
2.8747	0.102419	-0.803621	0	
2.8753	-2.30442	0.0945437	0	
2.8760	-4.14796	-0.189087	0	
2.8767	-1.68991	-0.803621	0	
2.8773	-2.61168	-1.41816	0	
2.8780	-2.61168	0.0945437	0	
2.8787	5.63303	2.55268	0	
2.8793	14.7483	1.03998	0	
2.8800	20.2789	-1.08725	0	
2.8807	22.6857	-0.803621	0	
2.8813	15.9773	0.425447	0	
2.8820	2.86772	2.55268	0	
2.8827	-3.53345	4.06538	0	
2.8833	-5.37698	2.55268	0	
2.8840	-7.22052	1.65451	0	
2.8847	-3.53345	1.93815	0	
2.8853	-3.8407	0.425447	0	
2.8860	-11.4709	1.65451	0	
2.8867	-8.14229	3.78175	0	
2.8873	8.96164	1.03998	0	
2.8880	18.7426	-0.472719	0	
2.8887	9.88341	3.78175	0	
2.8893	-8.70559	3.16721	0	
2.8900	-16.3358	-0.472719	0	
2.8907	-5.37698	0.425447	0	
2.8913	7.1181	1.03998	0	
2.8920	3.17498	-0.189087	0	
2.8927	-9.01285	1.93815	0	
2.8933	-16.9503	3.78175	0	
2.8940	-23.4027	2.88358	0	
2.8947	-32.5179	2.88358	0	
2.8953	-37.1268	2.88358	0	
2.8960	-24.5805	-0.189087	0	
2.8967	0.102419	-2.31632	0	
2.8973	19.3571	-0.189087	0	
2.8980	28.5236	1.93815	0	
2.8987	29.7014	1.32361	0	
2.8993	22.993	1.03998	0	
2.9000	8.03987	2.88358	0	
2.9007	-18.1793	4.06538	0	
2.9013	-52.3872	4.06538	0	
2.9020	-75.8923	5.29445	0	
2.9027	-71.898	6.23988	0	
2.9033	-49.6219	4.67991	0	
2.9040	-21.8664	3.16721	0	
2.9047	3.78949	4.67991	0	
2.9053	18.1281	5.62535	0	
2.9060	20.5862	3.78175	0	
2.9067	21.764	1.93815	0	
2.9073	20.8934	3.16721	0	
2.9080	14.1338	5.62535	0	
2.9087	7.1181	6.52352	0	
2.9093	0.409675	4.67991	0	
2.9100	-8.14229	3.45085	0	
2.9107	-11.7782	3.16721	0	
2.9113	-9.3201	3.45085	0	
2.9120	-8.44955	3.16721	0	
2.9127	-7.52778	2.88358	0	
2.9133	-5.06973	2.88358	0	
2.9140	-5.37698	1.65451	0	
2.9147	-1.99717	-0.803621	0	
2.9153	8.65438	-2.03269	0	
2.9160	15.6701	-1.08725	0	
2.9167	16.5918	-0.472719	0	
2.9173	20.2789	0.425447	0	
2.9180	23.3003	1.32361	0	
2.9187	22.6857	-0.189087	0	
2.9193	21.764	-1.08725	0	
2.9200	22.3785	-0.803621	0	
2.9207	24.5293	-2.03269	0	
2.9213	23.3003	-1.08725	0	
2.9220	16.2846	2.88358	0	
2.9227	10.1907	1.65451	0	
2.9233	4.09675	-2.64722	0	
2.9240	-8.70559	-1.41816	0	
2.9247	-14.5435	0.425447	0	
2.9253	-4.45521	-0.189087	0	
2.9260	5.32577	1.32361	0	
2.9267	9.2689	3.16721	0	
2.9273	19.3571	1.93815	0	
2.9280	31.2377	1.03998	0	
