0.0000	7.05236	2.90006	1
0.0007	7.71146	2.00368	0	
0.0013	7.05236	0.474556	0	
0.0020	7.71146	1.68731	0	
0.0027	5.53643	2.90006	0	
0.0033	-0.26364	2.00368	0	
0.0040	-2.96594	2.00368	0	
0.0047	-5.40461	2.00368	0	
0.0053	-13.0502	0.738198	0	
0.0060	-17.3343	-0.738198	0	
0.0067	-11.2047	0.158185	0	
0.0073	-2.10912	3.21644	0	
0.0080	3.69095	2.90006	0	
0.0087	7.38191	0.474556	0	
0.0093	5.86598	3.21644	0	
0.0100	3.69095	5.64194	0	
0.0107	10.1501	-0.158185	0	
0.0113	20.2343	-1.68731	0	
0.0120	23.2662	3.79645	0	
0.0127	22.9366	1.05457	0	
0.0133	21.0912	-4.11282	0	
0.0140	18.0593	0.738198	0	
0.0147	15.6206	3.79645	0	
0.0153	10.1501	-0.474556	0	
0.0160	-0.856829	-1.68731	0	
0.0167	-10.0183	-0.738198	0	
0.0173	-19.773	-2.00368	0	
0.0180	-33.4822	-0.738198	0	
0.0187	-35.9209	1.37094	0	
0.0193	-22.5412	-0.474556	0	
0.0200	-11.8638	-0.158185	0	
0.0207	-9.09556	3.79645	0	
0.0213	-6.32735	3.79645	0	
0.0220	-5.40461	1.05457	0	
0.0227	-7.57964	1.37094	0	
0.0233	-5.40461	1.05457	0	
0.0240	0.659099	-0.738198	0	
0.0247	9.22738	2.26732	0	
0.0253	21.7503	4.11282	0	
0.0260	29.3299	-0.738198	0	
0.0267	24.7821	-2.90006	0	
0.0273	15.9502	-1.37094	0	
0.0280	11.666	-3.53281	0	
0.0287	7.9751	-4.74556	0	
0.0293	-2.96594	-1.37094	0	
0.0300	-20.1025	-0.738198	0	
0.0307	-28.9344	-2.00368	0	
0.0313	-21.8821	-0.738198	0	
0.0320	-10.941	0.158185	0	
0.0327	-3.62504	0.738198	0	
0.0333	2.50458	0.474556	0	
0.0340	4.35005	-1.05457	0	
0.0347	1.25229	-1.68731	0	
0.0353	-2.70231	-0.738198	0	
0.0360	-8.50238	-1.05457	0	
0.0367	-15.4888	0.738198	0	
0.0373	-13.0502	2.58369	0	
0.0380	-4.54778	-0.738198	0	
0.0387	-1.77957	-2.90006	0	
0.0393	-3.29549	0.158185	0	
0.0400	-2.10912	2.26732	0	
0.0407	-0.26364	1.68731	0	
0.0413	0.395459	0.474556	0	
0.0420	3.69095	-2.00368	0	
0.0427	7.05236	-2.90006	0	
0.0433	3.09776	-0.474556	0	
0.0440	-2.37276	0.158185	0	
0.0447	-1.18638	-0.738198	0	
0.0453	2.17503	0.738198	0	
0.0460	1.91139	1.05457	0	
0.0467	-0.527279	-2.00368	0	
0.0473	-3.62504	-3.53281	0	
0.0480	-5.73416	-2.26732	0	
0.0487	-4.21823	-0.158185	0	
0.0493	-2.96594	0.158185	0	
0.0500	-4.81142	-0.738198	0	
0.0507	-6.06371	-1.05457	0	
0.0513	-5.14097	-1.05457	0	
0.0520	-2.70231	-1.68731	0	
0.0527	0.988648	-1.68731	0	
0.0533	2.83413	-1.05457	0	
0.0540	0.988648	-2.26732	0	
0.0547	0.988648	-2.00368	0	
0.0553	2.83413	-1.37094	0	
0.0560	2.17503	-2.58369	0	
0.0567	0.988648	-2.58369	0	
0.0573	2.83413	0.158185	0	
0.0580	3.69095	1.37094	0	
0.0587	2.83413	2.00368	0	
0.0593	7.38191	2.00368	0	
0.0600	11.0729	-0.738198	0	
0.0607	6.78872	-3.21644	0	
0.0613	3.69095	-5.0092	0	
0.0620	8.30465	-5.32557	0	
0.0627	13.182	-3.21644	0	
0.0633	11.9297	-6.27469	0	
0.0640	9.82057	-16.3458	0	
0.0647	10.1501	-19.4041	0	
0.0653	11.9297	-14.184	0	
0.0660	12.5888	-13.6039	0	
0.0667	11.9297	-14.184	0	
0.0673	10.1501	-9.91295	0	
0.0680	4.61369	-5.64194	0	
0.0687	-3.88868	0.474556	0	
0.0693	-11.2047	11.4421	0	
0.0700	-17.6638	13.8676	0	
0.0707	-19.1798	2.58369	0	
0.0713	-9.68875	-5.32557	0	
0.0720	3.42731	-4.42919	0	
0.0727	11.0729	-4.11282	0	
0.0733	17.4661	-4.74556	0	
0.0740	24.7821	-3.53281	0	
0.0747	29.989	-2.90006	0	
0.0753	24.4526	-3.21644	0	
0.0760	4.0205	-1.37094	0	
0.0767	-19.1798	-0.474556	0	
0.0773	-29.8572	-2.00368	0	
0.0780	-36.58	-2.58369	0	
0.0787	-44.8187	0.158185	0	
0.0793	-43.896	2.26732	0	
0.0800	-32.2958	0.158185	0	
0.0807	-19.4434	-2.26732	0	
0.0813	-11.8638	-0.738198	0	
0.0820	-8.17283	2.00368	0	
0.0827	-4.54778	2.00368	0	
0.0833	0.988648	2.90006	0	
0.0840	0.988648	3.79645	0	
0.0847	-3.62504	1.05457	0	
0.0853	-4.54778	-0.738198	0	
0.0860	-6.32735	-0.474556	0	
0.0867	-10.941	-1.37094	0	
0.0873	-11.8638	-2.58369	0	
0.0880	-8.17283	-2.26732	0	
0.0887	-3.62504	-1.37094	0	
0.0893	-1.18638	2.00368	0	
0.0900	-2.37276	4.11282	0	
0.0907	0.395459	2.26732	0	
0.0913	6.45917	2.00368	0	
0.0920	4.35005	4.74556	0	
0.0927	-4.54778	4.11282	0	
0.0933	-8.50238	2.00368	0	
0.0940	-8.17283	2.26732	0	
0.0947	-3.88868	2.58369	0	
0.0953	2.83413	2.26732	0	
0.0960	2.50458	2.90006	0	
0.0967	0.0659099	1.68731	0	
0.0973	6.45917	-1.37094	0	
0.0980	12.5888	-2.00368	0	
0.0987	8.89783	0.158185	0	
0.0993	5.53643	0.738198	0	
0.1000	4.94324	-0.738198	0	
0.1007	2.50458	0.158185	0	
0.1013	0.0659099	3.79645	0	
0.1020	0.988648	2.58369	0	
0.1027	1.91139	-2.58369	0	
0.1033	3.69095	-4.42919	0	
0.1040	7.38191	-3.79645	0	
0.1047	7.9751	-4.11282	0	
0.1053	4.94324	-3.53281	0	
0.1060	7.9751	-1.68731	0	
0.1067	15.0275	0.158185	0	
0.1073	15.0275	0.474556	0	
0.1080	10.1501	-3.21644	0	
0.1087	9.22738	-4.11282	0	
0.1093	9.22738	1.37094	0	
0.1100	4.61369	3.21644	0	
0.1107	-2.70231	0.474556	0	
0.1113	-9.09556	1.68731	0	
0.1120	-12.7865	2.26732	0	
0.1127	-14.5661	-0.738198	0	
0.1133	-18.8502	-1.68731	0	
0.1140	-22.2116	-1.05457	0	
0.1147	-19.1798	-2.58369	0	
0.1153	-13.9729	-2.58369	0	
0.1160	-10.0183	-0.738198	0	
0.1167	0.988648	-2.00368	0	
0.1173	15.6206	-3.53281	0	
0.1180	23.8594	-2.26732	0	
0.1187	28.4731	-1.68731	0	
0.1193	29.3299	-2.58369	0	
0.1200	22.3435	-2.90006	0	
0.1207	18.3889	-4.42919	0	
0.1213	23.8594	-4.42919	0	
0.1220	20.498	-0.738198	0	
0.1227	4.0205	1.05457	0	
0.1233	-4.21823	-0.738198	0	
0.1240	1.25229	-0.738198	0	
0.1247	5.53643	-0.158185	0	
0.1253	1.91139	-0.474556	0	
0.1260	-6.6569	-1.05457	0	
0.1267	-17.3343	-1.68731	0	
0.1273	-24.6503	-0.474556	0	
0.1280	-27.089	1.05457	0	
0.1287	-30.1208	0.738198	0	
0.1293	-31.9663	-0.158185	0	
0.1300	-24.6503	-0.738198	0	
0.1307	-13.6433	-2.26732	0	
0.1313	-6.98645	-2.26732	0	
0.1320	2.83413	0.158185	0	
0.1327	17.4661	-0.474556	0	
0.1333	27.2208	-2.58369	0	
0.1340	23.8594	-1.05457	0	
0.1347	3.69095	1.05457	0	
0.1353	-23.7276	-0.158185	0	
0.1360	-33.8118	-1.37094	0	
0.1367	-27.6822	0.158185	0	
0.1373	-26.8253	1.05457	0	
0.1380	-25.9026	-0.158185	0	
0.1387	-14.5661	-2.26732	0	
0.1393	-8.17283	-1.05457	0	
0.1400	-11.5342	3.21644	0	
0.1407	-10.0183	6.53833	0	
0.1413	-4.54778	6.8547	0	
0.1420	-2.10912	5.64194	0	
0.1427	-0.527279	2.58369	0	
0.1433	0.395459	0.474556	0	
0.1440	-1.18638	2.58369	0	
0.1447	-0.527279	5.32557	0	
0.1453	1.91139	5.06193	0	
0.1460	0.0659099	4.11282	0	
0.1467	-0.856829	4.42919	0	
0.1473	2.83413	3.21644	0	
0.1480	2.50458	1.05457	0	
0.1487	0.0659099	-0.158185	0	
0.1493	1.91139	1.05457	0	
0.1500	4.35005	1.68731	0	
0.1507	5.53643	0.158185	0	
0.1513	8.89783	-0.158185	0	
0.1520	7.38191	0.738198	0	
0.1527	2.17503	1.05457	0	
0.1533	4.35005	2.00368	0	
0.1540	10.1501	3.79645	0	
0.1547	9.49102	4.42919	0	
0.1553	8.30465	2.90006	0	
0.1560	9.22738	0.474556	0	
0.1567	6.45917	-0.474556	0	
0.1573	3.09776	0.158185	0	
0.1580	4.0205	-0.158185	0	
0.1587	4.61369	-0.738198	0	
0.1593	1.91139	1.05457	0	
0.1600	1.91139	3.79645	0	
0.1607	6.45917	5.06193	0	
0.1613	10.4138	1.68731	0	
0.1620	11.666	-2.26732	0	
0.1627	11.3365	-0.474556	0	
0.1633	10.1501	3.21644	0	
0.1640	9.22738	2.00368	0	
0.1647	8.30465	1.37094	0	
0.1653	5.53643	5.32557	0	
0.1660	3.42731	5.95831	0	
0.1667	4.0205	1.37094	0	
0.1673	5.53643	-0.474556	0	
0.1680	7.05236	0.738198	0	
0.1687	6.78872	-1.05457	0	
0.1693	4.61369	-1.68731	0	
0.1700	4.61369	2.90006	0	
0.1707	7.38191	4.42919	0	
0.1713	5.53643	1.37094	0	
0.1720	-0.856829	0.474556	0	
0.1727	-9.09556	0.738198	0	
0.1733	-18.5866	-2.58369	0	
0.1740	-24.0571	-3.21644	0	
0.1747	-20.6957	0.738198	0	
0.1753	-13.9729	2.26732	0	
0.1760	-9.42511	1.05457	0	
0.1767	-6.6569	2.58369	0	
0.1773	-3.62504	2.90006	0	
0.1780	1.25229	-0.738198	0	
0.1787	5.53643	-3.53281	0	
0.1793	7.05236	-1.68731	0	
0.1800	9.22738	-0.158185	0	
0.1807	11.9297	0.158185	0	
0.1813	12.8524	-1.05457	0	
0.1820	12.8524	-2.00368	0	
0.1827	12.8524	0.474556	0	
0.1833	12.8524	2.90006	0	
0.1840	13.182	1.37094	0	
0.1847	10.4138	-0.474556	0	
0.1853	5.86598	0.158185	0	
0.1860	3.42731	-0.474556	0	
0.1867	-1.77957	0.158185	0	
0.1873	-12.457	0.474556	0	
0.1880	-18.8502	-3.53281	0	
0.1887	-17.0048	-5.64194	0	
0.1893	-11.2047	-3.21644	0	
0.1900	-6.98645	-1.68731	0	
0.1907	-7.25009	-0.738198	0	
0.1913	-10.3479	2.26732	0	
0.1920	-11.2047	2.58369	0	
0.1927	-8.76601	-0.738198	0	
0.1933	-2.96594	-2.58369	0	
0.1940	2.17503	-3.53281	0	
0.1947	1.91139	-5.32557	0	
0.1953	-1.77957	-5.32557	0	
0.1960	-1.45002	-3.53281	0	
0.1967	2.83413	-2.58369	0	
0.1973	12.5888	-2.58369	0	
0.1980	25.1117	-3.53281	0	
0.1987	37.5686	-3.79645	0	
0.1993	57.4075	-2.58369	0	
0.2000	80.9373	-1.68731	0	
0.2007	88.2533	-0.738198	0	
0.2013	71.4463	2.26732	0	
0.2020	38.4914	3.79645	0	
0.2027	-2.37276	2.26732	0	
0.2033	-38.3596	1.68731	0	
0.2040	-67.3599	0.474556	0	
0.2047	-91.2193	-0.158185	0	
0.2053	-91.4829	2.00368	0	
0.2060	-66.1735	2.26732	0	
0.2067	-43.5664	-2.00368	0	
0.2073	-34.405	-2.58369	0	
0.2080	-26.1662	-0.158185	0	
0.2087	-20.1025	-0.474556	0	
0.2093	-18.8502	1.05457	0	
0.2100	-16.7411	4.74556	0	
0.2107	-13.0502	2.90006	0	
0.2113	-11.2047	0.738198	0	
0.2120	-10.941	2.90006	0	
0.2127	-10.0183	2.26732	0	
0.2133	-7.84328	-0.738198	0	
0.2140	-6.06371	1.05457	0	
0.2147	-5.40461	4.11282	0	
0.2153	-4.21823	3.79645	0	
0.2160	-3.62504	3.53281	0	
0.2167	-3.88868	2.90006	0	
0.2173	-0.26364	0.474556	0	
0.2180	4.0205	-0.474556	0	
0.2187	5.53643	-0.738198	0	
0.2193	10.1501	-1.68731	0	
0.2200	16.8729	-0.738198	0	
0.2207	18.982	0.158185	0	
0.2213	17.4661	-1.68731	0	
0.2220	16.8729	-2.00368	0	
0.2227	13.7752	-0.738198	0	
0.2233	7.05236	-0.738198	0	
0.2240	0.0659099	-0.158185	0	
0.2247	-5.40461	0.158185	0	
0.2253	-7.57964	-3.79645	0	
0.2260	-7.25009	-5.95831	0	
0.2267	-5.40461	-4.11282	0	
0.2273	-3.62504	-4.11282	0	
0.2280	-1.77957	-2.90006	0	
0.2287	-0.527279	1.05457	0	
0.2293	-0.856829	1.68731	0	
0.2300	-2.70231	-0.158185	0	
0.2307	-1.77957	-0.738198	0	
0.2313	1.25229	-4.11282	0	
0.2320	2.17503	-6.27469	0	
0.2327	0.988648	-1.68731	0	
0.2333	-1.18638	1.05457	0	
0.2340	-3.29549	-1.68731	0	
0.2347	-2.37276	-1.37094	0	
0.2353	2.50458	0.158185	0	
0.2360	7.38191	-1.68731	0	
0.2367	7.38191	-1.68731	0	
0.2373	4.94324	1.37094	0	
0.2380	6.19553	0.738198	0	
0.2387	8.30465	-2.26732	0	
0.2393	8.30465	-2.00368	0	
0.2400	13.7752	-0.738198	0	
0.2407	24.1889	-2.00368	0	
0.2413	24.7821	-3.53281	0	
0.2420	18.3889	-4.74556	0	
0.2427	18.3889	-4.11282	0	
0.2433	17.4661	-1.05457	0	
0.2440	11.3365	-0.158185	0	
0.2447	9.49102	-3.21644	0	
0.2453	9.22738	-4.74556	0	
0.2460	4.94324	-3.79645	0	
0.2467	0.988648	-3.21644	0	
0.2473	-5.73416	-2.58369	0	
0.2480	-16.4116	-2.58369	0	
0.2487	-18.257	-2.58369	0	
0.2493	-11.2047	-2.26732	0	
0.2500	-4.81142	-1.05457	0	
0.2507	3.69095	0.158185	0	
0.2513	11.666	1.37094	0	
0.2520	9.82057	0.474556	0	
0.2527	4.35005	-0.738198	0	
0.2533	1.91139	-0.738198	0	
0.2540	-0.856829	-1.37094	0	
0.2547	-0.26364	-0.474556	0	
0.2553	4.61369	2.00368	0	
0.2560	3.42731	0.738198	0	
0.2567	-2.70231	-2.00368	0	
0.2573	-6.6569	-1.05457	0	
0.2580	-11.8638	-1.68731	0	
0.2587	-16.7411	-3.53281	0	
0.2593	-15.8184	-1.68731	0	
0.2600	-11.8638	-0.474556	0	
0.2607	-8.76601	-1.68731	0	
0.2613	-6.6569	-0.158185	0	
0.2620	-4.54778	0.158185	0	
0.2627	2.17503	-2.58369	0	
0.2633	14.1047	-1.37094	0	
0.2640	25.1117	-0.474556	0	
0.2647	35.13	-2.58369	0	
0.2653	45.2142	-2.00368	0	
0.2660	43.1051	-1.05457	0	
0.2667	25.1117	-2.90006	0	
0.2673	7.38191	-2.58369	0	
0.2680	-2.37276	-2.00368	0	
0.2687	-12.7865	-3.79645	0	
0.2693	-24.6503	-3.21644	0	
0.2700	-35.9209	-0.738198	0	
0.2707	-40.5346	0.738198	0	
0.2713	-28.6049	0.738198	0	
0.2720	-3.62504	-1.68731	0	
0.2727	13.7752	-3.53281	0	
0.2733	14.6979	-1.68731	0	
0.2740	5.53643	0.474556	0	
0.2747	-4.54778	0.738198	0	
0.2753	-10.941	0.474556	0	
0.2760	-21.0253	0.474556	0	
0.2767	-38.3596	4.11282	0	
0.2773	-43.896	7.48744	0	
0.2780	-29.8572	3.21644	0	
0.2787	-19.4434	-0.738198	0	
0.2793	-22.2116	-0.158185	0	
0.2800	-21.6184	-0.738198	0	
0.2807	-17.3343	-0.474556	0	
0.2813	-16.4116	2.26732	0	
0.2820	-13.0502	2.00368	0	
0.2827	-8.17283	2.00368	0	
0.2833	-6.32735	2.26732	0	
0.2840	-4.21823	-1.05457	0	
0.2847	-1.45002	-1.05457	0	
0.2853	-0.856829	3.79645	0	
0.2860	1.91139	2.00368	0	
0.2867	7.05236	-1.68731	0	
0.2873	9.22738	0.474556	0	
0.2880	8.30465	2.26732	0	
0.2887	5.86598	2.90006	0	
0.2893	2.83413	4.74556	0	
0.2900	1.58184	2.90006	0	
0.2907	1.91139	0.158185	0	
0.2913	0.0659099	1.68731	0	
0.2920	-2.96594	3.79645	0	
0.2927	-4.81142	3.79645	0	
0.2933	-5.40461	2.58369	0	
0.2940	-4.54778	0.158185	0	
0.2947	-2.70231	-0.474556	0	
0.2953	-2.70231	1.37094	0	
0.2960	-1.18638	1.68731	0	
0.2967	0.659099	1.68731	0	
0.2973	-1.45002	3.21644	0	
0.2980	-2.37276	3.79645	0	
0.2987	3.69095	3.21644	0	
0.2993	9.22738	3.53281	0	
0.3000	10.1501	2.58369	0	
0.3007	14.1047	0.738198	0	
0.3013	21.7503	1.05457	0	
0.3020	23.8594	1.68731	0	
0.3027	23.5298	-1.68731	0	
0.3033	24.7821	-3.79645	0	
0.3040	23.8594	-0.738198	0	
0.3047	20.2343	0.738198	0	
0.3053	15.6206	-2.26732	0	
0.3060	9.82057	-2.00368	0	
0.3067	2.83413	2.00368	0	
0.3073	-3.62504	2.00368	0	
0.3080	-14.5661	-0.158185	0	
0.3087	-24.6503	1.05457	0	
0.3093	-23.4639	2.90006	0	
0.3100	-13.6433	2.58369	0	
0.3107	-6.98645	1.68731	0	
0.3113	-5.40461	0.158185	0	
0.3120	-5.73416	-1.37094	0	
0.3127	-4.54778	-0.474556	0	
0.3133	-1.45002	0.158185	0	
0.3140	2.17503	-1.68731	0	
0.3147	6.45917	-2.26732	0	
0.3153	13.5115	-1.68731	0	
0.3160	22.3435	-2.58369	0	
0.3167	31.7686	-2.90006	0	
0.3173	38.2277	-1.05457	0	
0.3180	33.614	-0.158185	0	
0.3187	16.8729	-0.738198	0	
0.3193	-3.62504	-1.37094	0	
0.3200	-17.3343	-2.26732	0	
0.3207	-18.8502	-2.90006	0	
0.3213	-14.5661	-1.68731	0	
0.3220	-13.0502	0.158185	0	
0.3227	-12.1274	0.158185	0	
0.3233	-10.941	0.738198	0	
0.3240	-16.4116	1.68731	0	
0.3247	-19.1798	2.90006	0	
0.3253	-8.17283	3.21644	0	
0.3260	3.69095	1.05457	0	
0.3267	5.86598	-0.474556	0	
0.3273	6.78872	1.05457	0	
0.3280	7.9751	0.158185	0	
0.3287	2.17503	-2.00368	0	
0.3293	-5.73416	-0.474556	0	
0.3300	-13.3797	2.00368	0	
0.3307	-22.8048	1.05457	0	
0.3313	-28.6049	1.68731	0	
0.3320	-24.6503	4.11282	0	
0.3327	-17.6638	4.74556	0	
0.3333	-6.32735	2.90006	0	
0.3340	19.3116	1.05457	0	
0.3347	47.3892	-0.738198	0	
0.3353	57.7371	0.158185	0	
0.3360	51.3438	0.158185	0	
0.3367	36.7118	-0.738198	0	
0.3373	13.5115	1.05457	0	
0.3380	-12.7865	2.58369	0	
0.3387	-34.7345	-0.738198	0	
0.3393	-52.1347	-5.64194	0	
0.3400	-57.0121	-6.27469	0	
0.3407	-43.896	-2.58369	0	
0.3413	-26.1662	1.05457	0	
0.3420	-15.4888	2.90006	0	
0.3427	-10.3479	3.79645	0	
0.3433	-11.2047	4.42919	0	
0.3440	-13.3797	2.58369	0	
0.3447	-9.68875	-1.05457	0	
0.3453	-4.54778	-1.68731	0	
0.3460	-3.62504	0.158185	0	
0.3467	-1.77957	-0.158185	0	
0.3473	0.0659099	-2.58369	0	
0.3480	-2.10912	-2.58369	0	
0.3487	-4.54778	0.158185	0	
0.3493	-2.10912	2.26732	0	
0.3500	0.988648	1.37094	0	
0.3507	0.988648	-2.00368	0	
0.3513	0.988648	-4.42919	0	
0.3520	3.69095	-3.21644	0	
0.3527	4.61369	-0.738198	0	
0.3533	2.83413	-1.68731	0	
0.3540	2.83413	-3.53281	0	
0.3547	4.61369	-3.21644	0	
0.3553	5.53643	-0.738198	0	
0.3560	8.30465	0.738198	0	
0.3567	11.0729	0.474556	0	
0.3573	7.71146	0.474556	0	
0.3580	8.89783	0.738198	0	
0.3587	15.6206	0.738198	0	
0.3593	12.5888	0.158185	0	
0.3600	6.45917	0.738198	0	
0.3607	11.9297	1.05457	0	
0.3613	17.4661	2.00368	0	
0.3620	15.9502	2.00368	0	
0.3627	17.7298	1.68731	0	
0.3633	18.3889	0.474556	0	
0.3640	12.5888	0.474556	0	
0.3647	12.5888	1.05457	0	
0.3653	15.9502	2.00368	0	
0.3660	11.0729	0.738198	0	
0.3667	5.53643	-2.00368	0	
0.3673	0.659099	-2.90006	0	
0.3680	-12.1274	-0.738198	0	
0.3687	-22.8048	1.37094	0	
0.3693	-16.4116	0.474556	0	
0.3700	-4.81142	-2.58369	0	
0.3707	0.395459	-2.90006	0	
0.3713	1.91139	0.738198	0	
0.3720	0.988648	1.68731	0	
0.3727	0.0659099	-2.26732	0	
0.3733	3.09776	-3.21644	0	
0.3740	5.53643	-0.474556	0	
0.3747	5.27279	-1.05457	0	
0.3753	6.19553	-1.37094	0	
0.3760	8.30465	2.26732	0	
0.3767	9.22738	3.21644	0	
0.3773	8.63419	1.05457	0	
0.3780	4.61369	1.37094	0	
0.3787	-2.96594	0.738198	0	
0.3793	-8.17283	-2.26732	0	
0.3800	-7.84328	-2.00368	0	
0.3807	-1.77957	-0.738198	0	
0.3813	7.38191	-3.21644	0	
0.3820	12.8524	-3.53281	0	
0.3827	11.0729	0.738198	0	
0.3833	6.45917	2.58369	0	
0.3840	4.61369	1.05457	0	
0.3847	4.61369	0.474556	0	
0.3853	3.09776	0.158185	0	
0.3860	2.83413	-1.68731	0	
0.3867	1.91139	-1.68731	0	
0.3873	-1.77957	-0.474556	0	
0.3880	-0.856829	0.158185	0	
0.3887	8.30465	1.05457	0	
0.3893	18.3889	0.738198	0	
0.3900	22.673	-0.738198	0	
0.3907	15.2911	-0.474556	0	
0.3913	-5.40461	1.68731	0	
0.3920	-23.1344	0.474556	0	
0.3927	-25.573	-4.74556	0	
0.3933	-25.573	-7.80381	0	
0.3940	-28.3413	-5.64194	0	
0.3947	-22.8048	-2.00368	0	
0.3953	-15.2252	-0.158185	0	
0.3960	-17.0048	1.68731	0	
0.3967	-21.0253	2.00368	0	
0.3973	-17.3343	-0.738198	0	
0.3980	-10.941	-0.738198	0	
0.3987	-6.98645	1.68731	0	
0.3993	-4.81142	-1.05457	0	
0.4000	-3.88868	-3.53281	0	
0.4007	-2.70231	-0.158185	0	
0.4013	-0.26364	0.474556	0	
0.4020	2.17503	-1.68731	0	
0.4027	4.61369	0.738198	0	
0.4033	5.86598	2.90006	0	
0.4040	4.94324	2.00368	0	
0.4047	1.91139	2.26732	0	
0.4053	0.0659099	1.68731	0	
0.4060	0.988648	-1.68731	0	
0.4067	1.25229	-2.00368	0	
0.4073	-2.10912	-1.05457	0	
0.4080	-7.25009	-1.05457	0	
0.4087	-8.17283	1.05457	0	
0.4093	-0.856829	0.738198	0	
0.4100	10.4138	-2.90006	0	
0.4107	22.0139	-2.26732	0	
0.4113	33.3504	1.05457	0	
0.4120	37.305	1.68731	0	
0.4127	29.0663	1.37094	0	
0.4133	21.0912	2.90006	0	
0.4140	18.0593	3.21644	0	
0.4147	6.45917	2.26732	0	
0.4153	-10.0183	2.00368	0	
0.4160	-14.5661	2.58369	0	
0.4167	-10.941	2.26732	0	
0.4173	-11.8638	1.05457	0	
0.4180	-12.1274	-0.158185	0	
0.4187	-13.6433	-1.68731	0	
0.4193	-19.4434	-0.738198	0	
0.4200	-21.0253	2.58369	0	
0.4207	-14.8956	3.21644	0	
0.4213	-10.941	1.05457	0	
0.4220	-9.42511	1.37094	0	
0.4227	-8.17283	1.05457	0	
0.4233	-9.09556	-1.68731	0	
0.4240	-9.68875	-0.738198	0	
0.4247	-9.09556	1.68731	0	
0.4253	-5.73416	0.158185	0	
0.4260	2.83413	-1.05457	0	
0.4267	9.49102	0.474556	0	
0.4273	13.7752	0.474556	0	
0.4280	24.7821	-0.738198	0	
0.4287	35.7891	-1.68731	0	
0.4293	36.7118	-1.68731	0	
0.4300	30.5822	-0.738198	0	
0.4307	22.0139	-1.05457	0	
0.4313	10.1501	-3.53281	0	
0.4320	-6.06371	-3.53281	0	
0.4327	-24.9798	-1.37094	0	
0.4333	-37.1732	-3.79645	0	
0.4340	-33.4822	-6.8547	0	
0.4347	-27.4185	-3.53281	0	
0.4353	-29.8572	0.738198	0	
0.4360	-29.5276	-0.158185	0	
0.4367	-21.2889	-2.58369	0	
0.4373	-14.5661	-3.21644	0	
0.4380	-11.5342	-3.53281	0	
0.4387	-8.50238	-3.79645	0	
0.4393	-7.84328	-4.11282	0	
0.4400	-10.6115	-5.0092	0	
0.4407	-12.1274	-4.11282	0	
0.4413	-10.6115	-1.05457	0	
0.4420	-9.42511	0.474556	0	
0.4427	-7.84328	-0.158185	0	
0.4433	0.0659099	-1.68731	0	
0.4440	9.22738	-3.53281	0	
0.4447	9.22738	-5.32557	0	
0.4453	5.53643	-4.11282	0	
0.4460	10.1501	-2.26732	0	
0.4467	15.9502	-2.00368	0	
0.4473	14.6979	-3.79645	0	
0.4480	10.7433	-5.32557	0	
0.4487	6.19553	-5.0092	0	
0.4493	-1.18638	-2.26732	0	
0.4500	-6.6569	-0.738198	0	
0.4507	-9.68875	-1.68731	0	
0.4513	-13.6433	-0.158185	0	
0.4520	-13.0502	0.474556	0	
0.4527	-4.21823	-3.21644	0	
0.4533	6.19553	-5.0092	0	
0.4540	15.9502	-0.738198	0	
0.4547	27.5503	0.158185	0	
0.4553	35.7891	-3.53281	0	
0.4560	33.0209	-3.21644	0	
0.4567	16.5434	-1.05457	0	
0.4573	-6.32735	-2.26732	0	
0.4580	-17.6638	-2.26732	0	
0.4587	-17.3343	-1.05457	0	
0.4593	-20.1025	-2.90006	0	
0.4600	-23.4639	-4.42919	0	
0.4607	-17.9275	-2.26732	0	
0.4613	-11.8638	0.158185	0	
0.4620	-10.6115	-1.37094	0	
0.4627	-9.09556	-3.53281	0	
0.4633	-7.25009	-1.37094	0	
0.4640	-8.17283	2.58369	0	
0.4647	-7.84328	3.21644	0	
0.4653	-6.06371	2.90006	0	
0.4660	-4.54778	3.53281	0	
0.4667	-3.29549	2.90006	0	
0.4673	-2.10912	2.26732	0	
0.4680	-2.37276	2.90006	0	
0.4687	-2.70231	2.58369	0	
0.4693	-0.527279	2.90006	0	
0.4700	0.988648	4.42919	0	
0.4707	-0.26364	3.79645	0	
0.4713	1.25229	3.21644	0	
0.4720	5.27279	5.64194	0	
0.4727	4.35005	6.27469	0	
0.4733	3.69095	2.58369	0	
0.4740	11.0729	1.37094	0	
0.4747	17.4661	2.90006	0	
0.4753	19.3116	2.90006	0	
0.4760	21.4207	3.53281	0	
0.4767	22.0139	4.74556	0	
0.4773	19.9048	4.42919	0	
0.4780	20.2343	4.42919	0	
0.4787	20.8275	6.53833	0	
0.4793	17.4661	7.48744	0	
0.4800	16.2138	5.64194	0	
0.4807	21.0912	5.32557	0	
0.4813	24.7821	5.64194	0	
0.4820	22.9366	4.42919	0	
0.4827	20.8275	2.26732	0	
0.4833	14.1047	2.58369	0	
0.4840	0.0659099	3.53281	0	
0.4847	-7.84328	2.00368	0	
0.4853	-5.40461	0.474556	0	
0.4860	-12.7865	1.05457	0	
0.4867	-27.6822	2.00368	0	
0.4873	-30.1208	1.37094	0	
0.4880	-23.1344	0.158185	0	
0.4887	-20.1025	0.738198	0	
0.4893	-18.257	1.68731	0	
0.4900	-20.1025	1.68731	0	
0.4907	-24.9798	1.37094	0	
0.4913	-22.8048	0.738198	0	
0.4920	-15.4888	1.05457	0	
0.4927	-11.8638	2.00368	0	
0.4933	-9.68875	2.00368	0	
0.4940	-8.17283	-0.738198	0	
0.4947	-7.25009	-1.37094	0	
0.4953	-5.73416	1.05457	0	
0.4960	-4.54778	1.37094	0	
0.4967	-0.856829	-1.68731	0	
0.4973	4.0205	-3.53281	0	
0.4980	1.91139	-2.58369	0	
0.4987	-4.81142	-1.37094	0	
0.4993	-6.6569	-0.158185	0	
0.5000	-6.32735	0.738198	0	
0.5007	-7.25009	1.68731	0	
0.5013	-4.54778	1.37094	0	
0.5020	1.58184	-1.05457	0	
0.5027	5.27279	-3.79645	0	
0.5033	8.30465	-3.79645	0	
0.5040	11.666	-3.53281	0	
0.5047	11.0729	-3.53281	0	
0.5053	9.82057	-3.53281	0	
0.5060	14.6979	-3.53281	0	
0.5067	25.3753	-4.74556	0	
0.5073	33.9436	-6.27469	0	
0.5080	40.0073	-7.17107	0	
0.5087	43.6983	-6.27469	0	
0.5093	36.0527	-3.53281	0	
0.5100	12.8524	-4.74556	0	
0.5107	-10.941	-6.27469	0	
0.5113	-20.1025	-4.42919	0	
0.5120	-19.1798	-3.53281	0	
0.5127	-15.4888	-3.21644	0	
0.5133	-7.57964	-3.53281	0	
0.5140	3.69095	-4.42919	0	
0.5147	10.4138	-2.90006	0	
0.5153	11.0729	1.68731	0	
0.5160	11.9297	1.05457	0	
0.5167	13.182	-2.58369	0	
0.5173	6.45917	-2.90006	0	
0.5180	-4.54778	-2.90006	0	
0.5187	-9.68875	-3.21644	0	
0.5193	-11.2047	-0.474556	0	
0.5200	-11.8638	1.68731	0	
0.5207	-6.6569	0.158185	0	
0.5213	5.53643	-1.05457	0	
0.5220	20.8275	-1.37094	0	
0.5227	34.8663	-2.26732	0	
0.5233	38.8209	-1.68731	0	
0.5240	32.0981	1.05457	0	
0.5247	20.8275	1.05457	0	
0.5253	6.45917	-0.474556	0	
0.5260	-12.457	1.05457	0	
0.5267	-29.264	2.90006	0	
0.5273	-37.5027	1.05457	0	
0.5280	-39.0187	-2.90006	0	
0.5287	-37.1732	-2.58369	0	
0.5293	-31.3731	-0.738198	0	
0.5300	-23.7276	-2.26732	0	
0.5307	-19.1798	-4.42919	0	
0.5313	-17.3343	-3.53281	0	
0.5320	-16.082	-1.68731	0	
0.5327	-13.9729	-2.58369	0	
0.5333	-10.941	-3.21644	0	
0.5340	-6.6569	-2.58369	0	
0.5347	-0.527279	-2.58369	0	
0.5353	6.45917	-0.738198	0	
0.5360	11.0729	2.26732	0	
0.5367	11.9297	1.05457	0	
0.5373	11.0729	-2.58369	0	
0.5380	10.1501	-1.37094	0	
0.5387	7.71146	1.05457	0	
0.5393	6.19553	1.05457	0	
0.5400	4.61369	3.79645	0	
0.5407	-0.26364	5.64194	0	
0.5413	-6.6569	2.26732	0	
0.5420	-12.7865	-0.738198	0	
0.5427	-18.5866	-1.68731	0	
0.5433	-20.1025	-2.58369	0	
0.5440	-14.5661	0.474556	0	
0.5447	-9.09556	2.90006	0	
0.5453	-4.21823	-0.474556	0	
0.5460	3.09776	-2.58369	0	
0.5467	10.4138	0.158185	0	
0.5473	18.0593	0.738198	0	
0.5480	25.3753	-0.738198	0	
0.5487	25.1117	-1.37094	0	
0.5493	16.2138	-1.68731	0	
0.5500	9.22738	-0.474556	0	
0.5507	5.53643	2.00368	0	
0.5513	-0.856829	-0.158185	0	
0.5520	-12.457	-1.68731	0	
0.5527	-22.5412	0.158185	0	
0.5533	-21.6184	-0.474556	0	
0.5540	-10.6115	-1.37094	0	
0.5547	-4.54778	0.474556	0	
0.5553	-6.6569	-0.474556	0	
0.5560	-4.54778	-2.58369	0	
0.5567	0.659099	-0.474556	0	
0.5573	-2.70231	1.37094	0	
0.5580	-10.0183	0.474556	0	
0.5587	-10.6115	1.05457	0	
0.5593	-6.32735	2.58369	0	
0.5600	-1.45002	2.26732	0	
0.5607	2.17503	1.05457	0	
0.5613	4.61369	0.158185	0	
0.5620	5.53643	0.158185	0	
0.5627	3.69095	1.37094	0	
0.5633	1.91139	2.58369	0	
0.5640	4.35005	2.00368	0	
0.5647	4.61369	1.37094	0	
0.5653	2.17503	1.05457	0	
0.5660	4.94324	1.05457	0	
0.5667	12.5888	-0.738198	0	
0.5673	19.3116	-2.58369	0	
0.5680	26.6276	-2.58369	0	
0.5687	34.2072	-1.68731	0	
0.5693	35.7891	-0.738198	0	
0.5700	26.298	-0.738198	0	
0.5707	0.659099	-0.738198	0	
0.5713	-28.3413	0.158185	0	
0.5720	-39.2823	1.05457	0	
0.5727	-37.5027	0.158185	0	
0.5733	-36.8436	-1.37094	0	
0.5740	-33.8118	-1.05457	0	
0.5747	-25.9026	0.474556	0	
0.5753	-19.4434	0.738198	0	
0.5760	-13.6433	0.738198	0	
0.5767	-10.0183	2.90006	0	
0.5773	-11.8638	5.32557	0	
0.5780	-11.5342	4.74556	0	
0.5787	-6.98645	2.26732	0	
0.5793	-6.06371	1.05457	0	
0.5800	-5.73416	0.474556	0	
0.5807	-1.77957	-0.738198	0	
0.5813	1.91139	-2.00368	0	
0.5820	4.35005	-2.90006	0	
0.5827	5.86598	-2.58369	0	
0.5833	4.61369	-0.738198	0	
0.5840	3.69095	-0.474556	0	
0.5847	5.53643	-1.37094	0	
0.5853	7.05236	-1.05457	0	
0.5860	5.53643	-1.05457	0	
0.5867	4.61369	-2.90006	0	
0.5873	5.53643	-3.53281	0	
0.5880	3.42731	-1.68731	0	
0.5887	1.91139	0.738198	0	
0.5893	2.83413	2.00368	0	
0.5900	4.61369	0.158185	0	
0.5907	6.78872	-2.00368	0	
0.5913	10.4138	-0.158185	0	
0.5920	12.2592	2.26732	0	
0.5927	10.4138	1.68731	0	
0.5933	8.30465	0.738198	0	
0.5940	9.82057	0.158185	0	
0.5947	11.0729	-1.37094	0	
0.5953	5.53643	-0.158185	0	
0.5960	-0.856829	2.26732	0	
0.5967	1.91139	3.21644	0	
0.5973	8.30465	2.58369	0	
0.5980	7.38191	0.158185	0	
0.5987	6.19553	-2.26732	0	
0.5993	10.1501	-0.738198	0	
0.6000	13.182	0.158185	0	
0.6007	11.9297	-0.738198	0	
0.6013	10.7433	1.05457	0	
0.6020	7.9751	2.90006	0	
0.6027	0.988648	0.738198	0	
0.6033	-7.84328	0.158185	0	
0.6040	-17.3343	3.79645	0	
0.6047	-25.573	3.79645	0	
0.6053	-24.0571	1.37094	0	
0.6060	-14.5661	2.58369	0	
0.6067	-7.84328	3.21644	0	
0.6073	-6.32735	1.05457	0	
0.6080	-5.40461	0.158185	0	
0.6087	-4.21823	0.474556	0	
0.6093	-5.14097	1.05457	0	
0.6100	-6.32735	2.90006	0	
0.6107	-5.14097	4.42919	0	
0.6113	-1.77957	4.11282	0	
0.6120	0.0659099	2.00368	0	
0.6127	1.25229	-0.158185	0	
0.6133	4.61369	0.158185	0	
0.6140	6.19553	2.90006	0	
0.6147	5.27279	3.79645	0	
0.6153	8.30465	2.58369	0	
0.6160	12.5888	3.79645	0	
0.6167	10.7433	6.53833	0	
0.6173	10.1501	6.27469	0	
0.6180	11.0729	3.53281	0	
0.6187	7.38191	2.26732	0	
0.6193	3.69095	3.53281	0	
0.6200	2.83413	5.95831	0	
0.6207	-1.45002	5.95831	0	
0.6213	-7.57964	3.21644	0	
0.6220	-6.32735	2.00368	0	
0.6227	1.25229	2.90006	0	
0.6233	7.05236	2.90006	0	
0.6240	6.78872	0.738198	0	
0.6247	5.27279	-0.738198	0	
0.6253	5.53643	-0.738198	0	
0.6260	7.38191	0.158185	0	
0.6267	9.22738	1.68731	0	
0.6273	11.9297	1.68731	0	
0.6280	12.8524	0.158185	0	
0.6287	13.7752	-1.05457	0	
0.6293	16.8729	2.00368	0	
0.6300	17.4661	6.27469	0	
0.6307	14.1047	6.8547	0	
0.6313	8.30465	5.64194	0	
0.6320	-6.6569	5.95831	0	
0.6327	-24.6503	5.95831	0	
0.6333	-26.1662	2.90006	0	
0.6340	-16.4116	1.37094	0	
0.6347	-13.0502	2.26732	0	
0.6353	-9.68875	2.58369	0	
0.6360	2.50458	2.58369	0	
0.6367	10.4138	2.58369	0	
0.6373	7.71146	2.00368	0	
0.6380	4.35005	1.05457	0	
0.6387	4.94324	0.738198	0	
0.6393	6.45917	-1.37094	0	
0.6400	-0.856829	-2.00368	0	
0.6407	-16.7411	-1.68731	0	
0.6413	-25.573	-3.21644	0	
0.6420	-17.6638	-4.42919	0	
0.6427	-6.6569	-3.79645	0	
0.6433	-4.54778	-2.26732	0	
0.6440	-7.57964	-0.158185	0	
0.6447	-11.8638	1.05457	0	
0.6453	-19.1798	-0.474556	0	
0.6460	-25.573	-2.00368	0	
0.6467	-25.573	-3.53281	0	
0.6473	-20.6957	-6.27469	0	
0.6480	-14.3024	-5.32557	0	
0.6487	-9.09556	-1.68731	0	
0.6493	-9.42511	-2.26732	0	
0.6500	-13.0502	-3.53281	0	
0.6507	-14.5661	-1.68731	0	
0.6513	-11.5342	-1.68731	0	
0.6520	-5.14097	-5.32557	0	
0.6527	2.83413	-5.0092	0	
0.6533	6.45917	-3.21644	0	
0.6540	8.30465	-5.64194	0	
0.6547	18.3889	-7.17107	0	
0.6553	31.5049	-5.64194	0	
0.6560	33.614	-6.27469	0	
0.6567	25.9685	-8.06745	0	
0.6573	17.1366	-6.27469	0	
0.6580	5.53643	-4.42919	0	
0.6587	-10.0183	-5.0092	0	
0.6593	-23.4639	-5.32557	0	
0.6600	-28.0117	-3.21644	0	
0.6607	-21.8821	-1.68731	0	
0.6613	-12.457	-1.68731	0	
0.6620	-7.84328	-2.90006	0	
0.6627	-4.81142	-2.58369	0	
0.6633	-2.70231	-1.05457	0	
0.6640	-3.88868	-1.05457	0	
0.6647	-3.62504	-2.90006	0	
0.6653	2.17503	-3.53281	0	
0.6660	3.42731	-3.21644	0	
0.6667	-2.10912	-2.58369	0	
0.6673	-1.45002	-1.68731	0	
0.6680	5.53643	-2.26732	0	
0.6687	6.78872	-3.79645	0	
0.6693	3.09776	-4.11282	0	
0.6700	3.69095	-2.90006	0	
0.6707	7.71146	-1.68731	0	
0.6713	10.1501	0.158185	0	
0.6720	10.7433	0.738198	0	
0.6727	8.89783	-1.37094	0	
0.6733	7.71146	-2.00368	0	
0.6740	8.30465	-0.474556	0	
0.6747	4.35005	-1.68731	0	
0.6753	-2.96594	-4.74556	0	
0.6760	-3.62504	-4.11282	0	
0.6767	1.58184	0.474556	0	
0.6773	4.0205	2.58369	0	
0.6780	4.61369	-0.738198	0	
0.6787	7.71146	-4.42919	0	
0.6793	11.9297	-3.21644	0	
0.6800	15.2911	-0.158185	0	
0.6807	15.0275	-0.158185	0	
0.6813	11.666	-2.26732	0	
0.6820	10.1501	-3.79645	0	
0.6827	10.7433	-2.26732	0	
0.6833	8.63419	1.37094	0	
0.6840	3.09776	1.68731	0	
0.6847	-2.70231	0.738198	0	
0.6853	-6.6569	1.68731	0	
0.6860	-10.6115	1.05457	0	
0.6867	-18.257	-0.738198	0	
0.6873	-24.6503	1.05457	0	
0.6880	-21.8821	2.00368	0	
0.6887	-14.5661	1.05457	0	
0.6893	-13.0502	2.58369	0	
0.6900	-12.457	3.79645	0	
0.6907	-7.84328	2.26732	0	
0.6913	-5.40461	2.58369	0	
0.6920	-4.81142	3.21644	0	
0.6927	-1.18638	1.68731	0	
0.6933	-0.26364	1.05457	0	
0.6940	-4.21823	1.37094	0	
0.6947	-2.96594	2.90006	0	
0.6953	0.659099	4.74556	0	
0.6960	-2.70231	3.79645	0	
0.6967	-6.06371	1.37094	0	
0.6973	-1.45002	0.738198	0	
0.6980	2.17503	1.05457	0	
0.6987	0.988648	2.90006	0	
0.6993	-0.856829	5.06193	0	
0.7000	-1.18638	5.06193	0	
0.7007	0.659099	3.53281	0	
0.7013	3.69095	3.53281	0	
0.7020	2.83413	4.74556	0	
0.7027	-0.26364	4.74556	0	
0.7033	-0.26364	2.00368	0	
0.7040	0.0659099	-2.00368	0	
0.7047	-0.527279	-1.37094	0	
0.7053	3.09776	2.90006	0	
0.7060	6.45917	3.53281	0	
0.7067	2.83413	2.00368	0	
0.7073	-0.856829	2.00368	0	
0.7080	0.0659099	1.37094	0	
0.7087	1.91139	0.158185	0	
0.7093	3.69095	-0.738198	0	
0.7100	3.69095	-1.05457	0	
0.7107	-0.527279	-0.158185	0	
0.7113	-4.81142	0.738198	0	
0.7120	-3.62504	-0.738198	0	
0.7127	-2.96594	-1.37094	0	
0.7133	-4.54778	1.05457	0	
0.7140	-2.96594	-0.158185	0	
0.7147	-0.527279	-3.53281	0	
0.7153	-1.45002	-2.58369	0	
0.7160	-0.856829	-1.05457	0	
0.7167	2.83413	-4.42919	0	
0.7173	3.69095	-5.32557	0	
0.7180	2.83413	-2.00368	0	
0.7187	4.94324	-1.68731	0	
0.7193	6.78872	-3.53281	0	
0.7200	3.69095	-4.42919	0	
0.7207	3.69095	-3.53281	0	
0.7213	10.4138	-2.26732	0	
0.7220	15.2911	-1.68731	0	
0.7227	12.5888	-1.68731	0	
0.7233	9.82057	-2.58369	0	
0.7240	9.22738	-1.37094	0	
0.7247	7.05236	0.474556	0	
0.7253	4.35005	-0.158185	0	
0.7260	2.83413	-1.68731	0	
0.7267	0.0659099	0.474556	0	
0.7273	-4.54778	2.26732	0	
0.7280	-10.941	1.37094	0	
0.7287	-18.257	1.05457	0	
0.7293	-22.2116	0.158185	0	
0.7300	-20.3662	-0.158185	0	
0.7307	-13.0502	2.26732	0	
0.7313	-3.62504	3.21644	0	
0.7320	0.988648	-0.738198	0	
0.7327	-1.77957	-3.21644	0	
0.7333	-3.62504	-4.11282	0	
0.7340	-2.70231	-5.32557	0	
0.7347	-3.88868	-3.53281	0	
0.7353	-4.21823	-0.738198	0	
0.7360	0.395459	-2.26732	0	
0.7367	2.50458	-2.00368	0	
0.7373	-1.18638	-0.158185	0	
0.7380	-4.81142	-0.738198	0	
0.7387	-7.25009	-1.68731	0	
0.7393	-10.941	-1.68731	0	
0.7400	-10.6115	-2.58369	0	
0.7407	-5.14097	-2.58369	0	
0.7413	-1.18638	-0.158185	0	
0.7420	0.395459	1.37094	0	
0.7427	3.42731	-1.37094	0	
0.7433	4.61369	-5.64194	0	
0.7440	2.17503	-5.95831	0	
0.7447	0.988648	-2.00368	0	
0.7453	0.988648	-0.474556	0	
0.7460	1.58184	-1.37094	0	
0.7467	3.69095	-1.68731	0	
0.7473	2.50458	-2.26732	0	
0.7480	-3.29549	-2.58369	0	
0.7487	-5.40461	-2.58369	0	
0.7493	-5.40461	-4.11282	0	
0.7500	-6.06371	-5.32557	0	
0.7507	-2.70231	-3.21644	0	
0.7513	3.69095	-0.738198	0	
0.7520	6.19553	-2.26732	0	
0.7527	5.27279	-5.0092	0	
0.7533	4.94324	-5.32557	0	
0.7540	5.53643	-5.0092	0	
0.7547	7.71146	-7.17107	0	
0.7553	10.4138	-8.06745	0	
0.7560	8.30465	-6.27469	0	
0.7567	2.83413	-4.74556	0	
0.7573	-0.856829	-6.27469	0	
0.7580	-2.96594	-7.17107	0	
0.7587	-3.62504	-5.95831	0	
0.7593	-3.29549	-5.32557	0	
0.7600	-2.70231	-7.17107	0	
0.7607	-1.77957	-8.38382	0	
0.7613	-3.62504	-8.06745	0	
0.7620	-9.68875	-5.32557	0	
0.7627	-14.3024	-3.53281	0	
0.7633	-12.1274	-3.53281	0	
0.7640	-6.32735	-3.21644	0	
0.7647	-2.37276	-0.738198	0	
0.7653	0.395459	1.05457	0	
0.7660	4.0205	0.158185	0	
0.7667	11.0729	-0.738198	0	
0.7673	21.7503	-2.26732	0	
0.7680	30.2526	-3.53281	0	
0.7687	33.0209	-4.11282	0	
0.7693	28.4731	-2.00368	0	
0.7700	9.82057	0.738198	0	
0.7707	-13.6433	0.738198	0	
0.7713	-21.0253	-1.68731	0	
0.7720	-14.8956	-2.58369	0	
0.7727	-14.8956	-0.738198	0	
0.7733	-16.4116	0.474556	0	
0.7740	-9.68875	0.158185	0	
0.7747	-3.29549	-0.738198	0	
0.7753	1.91139	-0.738198	0	
0.7760	10.1501	-0.738198	0	
0.7767	15.6206	-0.474556	0	
0.7773	16.2138	1.05457	0	
0.7780	17.1366	1.05457	0	
0.7787	16.2138	-1.68731	0	
0.7793	12.5888	-1.37094	0	
0.7800	6.45917	0.474556	0	
0.7807	-5.73416	-1.05457	0	
0.7813	-17.9275	-1.37094	0	
0.7820	-22.5412	2.90006	0	
0.7827	-24.9798	2.26732	0	
0.7833	-25.2435	-1.68731	0	
0.7840	-16.4116	0.474556	0	
0.7847	-1.45002	2.90006	0	
0.7853	12.8524	1.05457	0	
0.7860	20.498	1.37094	0	
0.7867	13.182	2.26732	0	
0.7873	0.0659099	1.05457	0	
0.7880	-4.81142	1.05457	0	
0.7887	-11.5342	2.26732	0	
0.7893	-28.0117	0.474556	0	
0.7900	-38.3596	0.158185	0	
0.7907	-33.2186	2.90006	0	
0.7913	-21.0253	3.79645	0	
0.7920	-12.7865	1.37094	0	
0.7927	-9.68875	2.00368	0	
0.7933	-5.40461	3.79645	0	
0.7940	2.17503	2.26732	0	
0.7947	6.45917	1.37094	0	
0.7953	8.89783	3.79645	0	
0.7960	10.7433	5.06193	0	
0.7967	8.89783	2.90006	0	
0.7973	6.19553	1.68731	0	
0.7980	7.38191	2.00368	0	
0.7987	6.45917	2.26732	0	
0.7993	-0.26364	3.79645	0	
0.8000	-4.21823	4.42919	0	
0.8007	-0.856829	4.42919	0	
0.8013	4.61369	3.53281	0	
0.8020	6.45917	1.68731	0	
0.8027	3.69095	2.00368	0	
0.8033	2.83413	5.06193	0	
0.8040	8.30465	6.8547	0	
0.8047	15.2911	5.64194	0	
0.8053	14.1047	5.32557	0	
0.8060	10.1501	7.17107	0	
0.8067	11.0729	8.38382	0	
0.8073	11.666	6.27469	0	
0.8080	9.49102	2.90006	0	
0.8087	7.9751	3.21644	0	
0.8093	0.659099	3.21644	0	
0.8100	-11.5342	0.474556	0	
0.8107	-15.8184	1.68731	0	
0.8113	-15.4888	5.64194	0	
0.8120	-19.773	4.74556	0	
0.8127	-17.6638	1.37094	0	
0.8133	-5.14097	1.05457	0	
0.8140	6.45917	2.00368	0	
0.8147	15.2911	2.00368	0	
0.8153	25.7049	2.26732	0	
0.8160	33.9436	2.26732	0	
0.8167	33.0209	1.68731	0	
0.8173	18.3889	1.37094	0	
0.8180	-3.62504	1.05457	0	
0.8187	-14.3024	0.158185	0	
0.8193	-12.1274	0.738198	0	
0.8200	-10.941	0.738198	0	
0.8207	-10.6115	-0.738198	0	
0.8213	-5.14097	-2.26732	0	
0.8220	-0.26364	0.158185	0	
0.8227	1.91139	2.90006	0	
0.8233	4.61369	2.00368	0	
0.8240	3.69095	0.158185	0	
0.8247	-2.96594	1.05457	0	
0.8253	-9.09556	1.37094	0	
0.8260	-9.09556	1.05457	0	
0.8267	-3.62504	2.26732	0	
0.8273	2.83413	2.90006	0	
0.8280	3.69095	1.05457	0	
0.8287	-2.37276	1.37094	0	
0.8293	-7.84328	2.90006	0	
0.8300	-7.84328	1.05457	0	
0.8307	-4.54778	-0.738198	0	
0.8313	0.0659099	0.738198	0	
0.8320	10.1501	2.58369	0	
0.8327	25.9685	1.37094	0	
0.8333	37.305	-1.68731	0	
0.8340	36.7118	-3.79645	0	
0.8347	26.8912	-3.53281	0	
0.8353	13.7752	-1.37094	0	
0.8360	0.659099	-0.474556	0	
0.8367	-15.4888	-1.68731	0	
0.8373	-38.3596	-2.58369	0	
0.8380	-56.0893	-2.58369	0	
0.8387	-53.9802	-3.21644	0	
0.8393	-38.0959	-4.42919	0	
0.8400	-24.9798	-3.79645	0	
0.8407	-16.4116	-4.42919	0	
0.8413	-7.25009	-5.64194	0	
0.8420	-1.77957	-3.53281	0	
0.8427	0.0659099	1.05457	0	
0.8433	1.25229	1.68731	0	
0.8440	1.91139	-1.37094	0	
0.8447	1.91139	-2.58369	0	
0.8453	2.17503	-0.738198	0	
0.8460	0.395459	-1.37094	0	
0.8467	-4.54778	-4.11282	0	
0.8473	-7.57964	-1.37094	0	
0.8480	-6.6569	4.42919	0	
0.8487	-6.06371	3.79645	0	
0.8493	-7.25009	1.05457	0	
0.8500	-8.50238	0.158185	0	
0.8507	-6.32735	-1.68731	0	
0.8513	0.0659099	-2.26732	0	
0.8520	7.38191	2.00368	0	
0.8527	13.7752	3.21644	0	
0.8533	18.982	2.00368	0	
0.8540	24.7821	3.21644	0	
0.8547	32.0981	2.90006	0	
0.8553	31.7686	1.05457	0	
0.8560	15.9502	0.158185	0	
0.8567	-4.81142	-0.738198	0	
0.8573	-15.8184	0.158185	0	
0.8580	-18.5866	3.79645	0	
0.8587	-20.1025	2.26732	0	
0.8593	-19.773	-0.738198	0	
0.8600	-15.8184	2.00368	0	
0.8607	-9.68875	3.53281	0	
0.8613	-5.73416	0.158185	0	
0.8620	-5.73416	-1.68731	0	
0.8627	-5.40461	1.05457	0	
0.8633	-2.70231	3.53281	0	
0.8640	0.988648	2.26732	0	
0.8647	5.86598	-0.474556	0	
0.8653	9.22738	-0.474556	0	
0.8660	6.45917	2.00368	0	
0.8667	3.69095	0.738198	0	
0.8673	5.27279	-0.738198	0	
0.8680	4.61369	1.68731	0	
0.8687	3.69095	3.21644	0	
0.8693	4.94324	0.474556	0	
0.8700	2.83413	-2.00368	0	
0.8707	2.17503	-2.58369	0	
0.8713	6.19553	-1.68731	0	
0.8720	7.71146	-0.738198	0	
0.8727	11.0729	-2.26732	0	
0.8733	18.982	-3.53281	0	
0.8740	19.3116	-1.68731	0	
0.8747	16.8729	-1.05457	0	
0.8753	19.5752	-4.42919	0	
0.8760	20.498	-3.79645	0	
0.8767	18.3889	0.158185	0	
0.8773	16.2138	-0.474556	0	
0.8780	8.30465	-3.21644	0	
0.8787	-4.54778	-0.738198	0	
0.8793	-16.4116	1.68731	0	
0.8800	-26.4958	-1.68731	0	
0.8807	-28.9344	-3.79645	0	
0.8813	-19.1798	-2.58369	0	
0.8820	-8.17283	-2.00368	0	
0.8827	0.988648	-3.53281	0	
0.8833	11.9297	-1.68731	0	
0.8840	16.5434	1.37094	0	
0.8847	13.5115	1.05457	0	
0.8853	11.3365	-0.158185	0	
0.8860	9.22738	2.00368	0	
0.8867	4.94324	3.53281	0	
0.8873	4.35005	2.00368	0	
0.8880	3.69095	2.00368	0	
0.8887	-2.10912	1.37094	0	
0.8893	-7.25009	-1.68731	0	
0.8900	-11.8638	-2.58369	0	
0.8907	-19.1798	-1.68731	0	
0.8913	-22.2116	-1.05457	0	
0.8920	-17.3343	1.05457	0	
0.8927	-13.6433	1.05457	0	
0.8933	-12.457	-2.26732	0	
0.8940	-8.50238	-2.26732	0	
0.8947	-2.96594	-0.158185	0	
0.8953	3.69095	-1.68731	0	
0.8960	15.0275	-2.58369	0	
0.8967	30.5822	-1.68731	0	
0.8973	47.9824	-2.58369	0	
0.8980	62.2848	-2.00368	0	
0.8987	62.2848	0.738198	0	
0.8993	47.6528	-0.738198	0	
0.9000	30.2526	-3.21644	0	
0.9007	11.3365	-2.00368	0	
0.9013	-17.9275	0.158185	0	
0.9020	-48.4438	0.158185	0	
0.9027	-60.9666	-0.738198	0	
0.9033	-53.0575	-3.53281	0	
0.9040	-35.6572	-6.53833	0	
0.9047	-20.1025	-6.27469	0	
0.9053	-12.7865	-1.37094	0	
0.9060	-10.6115	1.68731	0	
0.9067	-6.6569	-2.00368	0	
0.9073	-0.856829	-4.42919	0	
0.9080	7.38191	-1.68731	0	
0.9087	14.1047	-1.05457	0	
0.9093	17.4661	-2.90006	0	
0.9100	23.2662	-1.05457	0	
0.9107	33.9436	1.37094	0	
0.9113	37.5686	-0.158185	0	
0.9120	25.1117	-1.68731	0	
0.9127	2.50458	-1.37094	0	
0.9133	-19.1798	-1.68731	0	
0.9140	-31.9663	-0.158185	0	
0.9147	-37.5027	0.474556	0	
0.9153	-42.3801	-1.68731	0	
0.9160	-42.3801	-0.738198	0	
0.9167	-33.8118	2.90006	0	
0.9173	-24.6503	1.05457	0	
0.9180	-19.1798	-2.26732	0	
0.9187	-14.5661	-1.05457	0	
0.9193	-11.8638	0.738198	0	
0.9200	-10.941	0.474556	0	
0.9207	-8.17283	0.158185	0	
0.9213	-3.62504	-0.738198	0	
0.9220	-2.70231	-2.58369	0	
0.9227	-2.96594	-2.26732	0	
0.9233	-1.45002	-0.738198	0	
0.9240	1.58184	-0.738198	0	
0.9247	4.0205	-2.58369	0	
0.9253	5.53643	-1.68731	0	
0.9260	5.53643	1.05457	0	
0.9267	5.86598	1.05457	0	
0.9273	6.45917	-2.00368	0	
0.9280	6.45917	-1.68731	0	
0.9287	4.61369	-0.474556	0	
0.9293	3.42731	-2.00368	0	
0.9300	7.38191	-2.00368	0	
0.9307	12.2592	1.05457	0	
0.9313	14.1047	1.05457	0	
0.9320	17.4661	-0.738198	0	
0.9327	21.4207	-0.474556	0	
0.9333	20.498	-0.158185	0	
0.9340	17.1366	-2.26732	0	
0.9347	11.666	-2.00368	0	
0.9353	3.69095	0.474556	0	
0.9360	0.0659099	0.738198	0	
0.9367	1.25229	0.158185	0	
0.9373	-4.21823	1.05457	0	
0.9380	-13.6433	-0.474556	0	
0.9387	-14.3024	-3.21644	0	
0.9393	-6.98645	-2.58369	0	
0.9400	0.988648	-1.68731	0	
0.9407	5.86598	-3.79645	0	
0.9413	4.61369	-3.21644	0	
0.9420	0.659099	-1.68731	0	
0.9427	3.09776	-2.90006	0	
0.9433	11.666	-2.90006	0	
0.9440	18.6525	-0.474556	0	
0.9447	22.9366	-0.158185	0	
0.9453	26.8912	-0.474556	0	
0.9460	26.8912	0.738198	0	
0.9467	18.3889	1.05457	0	
0.9473	3.69095	0.158185	0	
0.9480	-12.457	1.05457	0	
0.9487	-24.9798	2.58369	0	
0.9493	-29.264	2.90006	0	
0.9500	-23.4639	2.90006	0	
0.9507	-9.09556	2.26732	0	
0.9513	5.86598	0.474556	0	
0.9520	8.63419	-0.738198	0	
0.9527	-8.17283	-0.738198	0	
0.9533	-26.1662	-1.05457	0	
0.9540	-26.8253	-0.474556	0	
0.9547	-20.6957	1.37094	0	
0.9553	-20.1025	1.05457	0	
0.9560	-17.6638	-1.37094	0	
0.9567	-9.09556	-2.58369	0	
0.9573	-4.21823	-3.53281	0	
0.9580	-3.29549	-3.53281	0	
0.9587	-3.88868	-2.58369	0	
0.9593	-10.0183	-2.26732	0	
0.9600	-15.2252	-1.68731	0	
0.9607	-11.5342	0.158185	0	
0.9613	-6.32735	0.158185	0	
0.9620	-6.98645	-0.474556	0	
0.9627	-5.14097	0.158185	0	
0.9633	1.91139	-0.158185	0	
0.9640	6.45917	-0.738198	0	
0.9647	9.49102	0.738198	0	
0.9653	18.3889	0.158185	0	
0.9660	29.0663	-2.26732	0	
0.9667	33.0209	-1.68731	0	
0.9673	26.8912	0.738198	0	
0.9680	13.7752	1.37094	0	
0.9687	-1.45002	1.37094	0	
0.9693	-15.8184	1.68731	0	
0.9700	-28.6049	2.26732	0	
0.9707	-34.7345	2.90006	0	
0.9713	-29.264	0.474556	0	
0.9720	-18.257	-1.68731	0	
0.9727	-10.3479	-0.738198	0	
0.9733	-3.29549	0.738198	0	
0.9740	0.0659099	-0.474556	0	
0.9747	-1.77957	1.05457	0	
0.9753	-2.70231	2.58369	0	
0.9760	-2.37276	0.158185	0	
0.9767	-4.81142	-0.474556	0	
0.9773	-2.96594	2.58369	0	
0.9780	0.988648	2.00368	0	
0.9787	-0.527279	-0.158185	0	
0.9793	-0.26364	1.05457	0	
0.9800	3.69095	0.158185	0	
0.9807	1.91139	-2.58369	0	
0.9813	0.988648	-0.738198	0	
0.9820	8.30465	1.37094	0	
0.9827	13.5115	2.00368	0	
0.9833	14.6979	4.74556	0	
0.9840	16.2138	5.06193	0	
0.9847	13.7752	1.37094	0	
0.9853	10.1501	2.00368	0	
0.9860	12.8524	4.42919	0	
0.9867	15.9502	1.68731	0	
0.9873	14.6979	0.158185	0	
0.9880	13.5115	1.68731	0	
0.9887	8.30465	1.37094	0	
0.9893	-1.45002	1.68731	0	
0.9900	-5.14097	2.58369	0	
0.9907	-2.96594	1.37094	0	
0.9913	-1.77957	0.738198	0	
0.9920	-1.45002	1.37094	0	
0.9927	-4.54778	0.738198	0	
0.9933	-14.5661	-0.158185	0	
0.9940	-23.1344	-0.474556	0	
0.9947	-21.8821	-0.738198	0	
0.9953	-17.3343	0.474556	0	
0.9960	-13.0502	0.158185	0	
0.9967	-6.98645	-2.00368	0	
0.9973	-1.77957	-2.00368	0	
0.9980	-1.77957	-0.738198	0	
0.9987	-1.45002	-2.58369	0	
0.9993	2.50458	-2.58369	0	
1.0000	5.53643	1.05457	0	
1.0007	5.27279	1.05457	0	
1.0013	3.09776	-2.26732	0	
1.0020	2.50458	0.158185	0	
1.0027	3.09776	3.79645	0	
1.0033	5.27279	2.26732	0	
1.0040	8.30465	1.05457	0	
1.0047	9.22738	2.26732	0	
1.0053	8.30465	1.37094	0	
1.0060	9.49102	0.738198	0	
1.0067	9.82057	2.26732	0	
1.0073	1.91139	3.21644	0	
1.0080	-7.25009	2.26732	0	
1.0087	-6.98645	0.738198	0	
1.0093	-1.45002	-0.474556	0	
1.0100	2.17503	-0.158185	0	
1.0107	5.86598	0.738198	0	
1.0113	11.0729	2.00368	0	
1.0120	18.3889	3.79645	0	
1.0127	30.2526	2.58369	0	
1.0133	38.8209	0.158185	0	
1.0140	32.4277	2.00368	0	
1.0147	18.3889	2.90006	0	
1.0153	11.9297	-1.05457	0	
1.0160	11.9297	-2.00368	0	
1.0167	11.666	0.158185	0	
1.0173	5.27279	-2.26732	0	
1.0180	-1.77957	-3.79645	0	
1.0187	-2.37276	-0.474556	0	
1.0193	-5.73416	0.158185	0	
1.0200	-23.4639	-2.26732	0	
1.0207	-40.205	-0.738198	0	
1.0213	-43.896	2.00368	0	
1.0220	-41.1278	3.21644	0	
1.0227	-34.1413	5.06193	0	
1.0233	-24.3867	2.90006	0	
1.0240	-21.6184	-1.05457	0	
1.0247	-19.1798	0.158185	0	
1.0253	-3.62504	0.738198	0	
1.0260	17.1366	-2.26732	0	
1.0267	32.0981	-0.158185	0	
1.0273	39.1505	2.58369	0	
1.0280	34.5368	-1.37094	0	
1.0287	21.7503	-2.58369	0	
1.0293	10.4138	2.90006	0	
1.0300	-3.62504	3.21644	0	
1.0307	-25.573	-0.158185	0	
1.0313	-40.205	0.158185	0	
1.0320	-37.5027	2.00368	0	
1.0327	-31.9663	1.05457	0	
1.0333	-34.7345	0.158185	0	
1.0340	-32.889	0.738198	0	
1.0347	-21.0253	2.00368	0	
1.0353	-9.09556	0.738198	0	
1.0360	-1.77957	-2.00368	0	
1.0367	3.09776	-3.53281	0	
1.0373	5.53643	-2.00368	0	
1.0380	7.38191	-0.474556	0	
1.0387	9.82057	-0.158185	0	
1.0393	10.1501	-0.738198	0	
1.0400	9.82057	-2.00368	0	
1.0407	11.9297	-3.53281	0	
1.0413	14.6979	-2.58369	0	
1.0420	16.5434	-1.37094	0	
1.0427	20.498	-3.53281	0	
1.0433	29.6594	-5.0092	0	
1.0440	38.4914	-3.53281	0	
1.0447	28.7367	-3.53281	0	
1.0453	-0.856829	-5.32557	0	
1.0460	-24.3867	-5.0092	0	
1.0467	-32.2958	-4.11282	0	
1.0473	-39.2823	-3.53281	0	
1.0480	-43.896	-2.58369	0	
1.0487	-35.6572	-2.00368	0	
1.0493	-24.6503	-1.05457	0	
1.0500	-19.1798	-0.738198	0	
1.0507	-13.9729	-2.58369	0	
1.0513	-9.42511	-2.90006	0	
1.0520	-6.32735	-2.00368	0	
1.0527	-5.73416	-3.53281	0	
1.0533	-6.32735	-2.90006	0	
1.0540	-5.14097	-0.738198	0	
1.0547	-1.77957	-2.90006	0	
1.0553	1.25229	-5.95831	0	
1.0560	5.53643	-4.42919	0	
1.0567	12.8524	-3.53281	0	
1.0573	22.9366	-6.27469	0	
1.0580	34.2072	-8.06745	0	
1.0587	43.6983	-6.27469	0	
1.0593	39.4141	-2.58369	0	
1.0600	22.0139	-1.68731	0	
1.0607	11.3365	-4.11282	0	
1.0613	10.1501	-4.42919	0	
1.0620	-0.856829	-1.05457	0	
1.0627	-17.9275	-1.05457	0	
1.0633	-20.1025	-4.74556	0	
1.0640	-12.457	-3.79645	0	
1.0647	-10.3479	-0.738198	0	
1.0653	-9.42511	-1.68731	0	
1.0660	-6.32735	-2.58369	0	
1.0667	-3.62504	0.158185	0	
1.0673	1.58184	1.05457	0	
1.0680	3.42731	-1.68731	0	
1.0687	-1.45002	-2.58369	0	
1.0693	-3.62504	-2.00368	0	
1.0700	-1.45002	-2.90006	0	
1.0707	-2.70231	-2.58369	0	
1.0713	-4.21823	-0.738198	0	
1.0720	-0.856829	-0.738198	0	
1.0727	3.09776	-1.37094	0	
1.0733	2.83413	-2.00368	0	
1.0740	2.50458	-5.0092	0	
1.0747	4.94324	-5.32557	0	
1.0753	8.63419	-2.58369	0	
1.0760	8.89783	-1.68731	0	
1.0767	7.71146	-2.00368	0	
1.0773	8.89783	0.158185	0	
1.0780	10.1501	0.738198	0	
1.0787	10.1501	-0.738198	0	
1.0793	10.1501	0.158185	0	
1.0800	10.7433	1.05457	0	
1.0807	10.1501	1.05457	0	
1.0813	8.30465	3.79645	0	
1.0820	7.71146	4.74556	0	
1.0827	7.38191	2.00368	0	
1.0833	3.42731	2.90006	0	
1.0840	-2.96594	3.53281	0	
1.0847	-5.14097	2.90006	0	
1.0853	0.395459	5.32557	0	
1.0860	9.22738	4.74556	0	
1.0867	16.5434	-0.738198	0	
1.0873	22.0139	-2.26732	0	
1.0880	26.6276	1.68731	0	
1.0887	31.5049	2.00368	0	
1.0893	31.5049	1.37094	0	
1.0900	21.4207	2.26732	0	
1.0907	9.49102	2.58369	0	
1.0913	3.42731	2.90006	0	
1.0920	-7.84328	2.58369	0	
1.0927	-27.6822	0.738198	0	
1.0933	-32.889	1.05457	0	
1.0940	-12.7865	1.68731	0	
1.0947	13.7752	-0.158185	0	
1.0953	27.5503	-1.05457	0	
1.0960	18.3889	-0.158185	0	
1.0967	-8.17283	-1.68731	0	
1.0973	-28.3413	-4.42919	0	
1.0980	-34.405	-3.79645	0	
1.0987	-45.7415	-0.738198	0	
1.0993	-58.528	2.26732	0	
1.1000	-53.6506	2.00368	0	
1.1007	-37.7664	-2.26732	0	
1.1013	-27.4185	-4.11282	0	
1.1020	-23.7276	-0.738198	0	
1.1027	-21.0253	1.68731	0	
1.1033	-15.4888	0.158185	0	
1.1040	-9.42511	-0.738198	0	
1.1047	-8.50238	-1.37094	0	
1.1053	-6.6569	-1.68731	0	
1.1060	-0.527279	1.05457	0	
1.1067	2.17503	2.00368	0	
1.1073	2.50458	-1.68731	0	
1.1080	4.35005	-2.00368	0	
1.1087	0.659099	1.05457	0	
1.1093	-4.54778	2.00368	0	
1.1100	-0.856829	1.05457	0	
1.1107	4.35005	2.58369	0	
1.1113	8.30465	2.58369	0	
1.1120	17.7298	0.738198	0	
1.1127	28.7367	0.738198	0	
1.1133	35.13	1.37094	0	
1.1140	34.2072	1.05457	0	
1.1147	22.0139	2.90006	0	
1.1153	9.22738	4.74556	0	
1.1160	6.78872	2.58369	0	
1.1167	-0.527279	-1.05457	0	
1.1173	-16.4116	-1.05457	0	
1.1180	-20.1025	-1.37094	0	
1.1187	-11.8638	-2.58369	0	
1.1193	-10.941	-1.68731	0	
1.1200	-14.5661	0.158185	0	
1.1207	-12.7865	-0.738198	0	
1.1213	-9.42511	-0.738198	0	
1.1220	-7.25009	-1.68731	0	
1.1227	-2.37276	-3.53281	0	
1.1233	1.25229	-4.42919	0	
1.1240	1.91139	-4.11282	0	
1.1247	2.17503	-3.53281	0	
1.1253	2.83413	-1.37094	0	
1.1260	2.17503	1.05457	0	
1.1267	3.09776	1.05457	0	
1.1273	5.27279	0.738198	0	
1.1280	5.27279	-1.37094	0	
1.1287	3.69095	-2.00368	0	
1.1293	3.09776	1.05457	0	
1.1300	1.25229	1.37094	0	
1.1307	-0.856829	-1.68731	0	
1.1313	-2.10912	0.738198	0	
1.1320	-2.10912	4.11282	0	
1.1327	-1.18638	0.474556	0	
1.1333	0.0659099	-0.738198	0	
1.1340	0.988648	2.58369	0	
1.1347	3.09776	0.158185	0	
1.1353	5.27279	-2.90006	0	
1.1360	6.45917	0.474556	0	
1.1367	7.38191	0.158185	0	
1.1373	6.45917	-3.79645	0	
1.1380	9.49102	-0.738198	0	
1.1387	19.5752	2.26732	0	
1.1393	27.814	-0.474556	0	
1.1400	26.8912	-1.68731	0	
1.1407	24.1889	-0.474556	0	
1.1413	24.7821	-0.474556	0	
1.1420	25.7049	1.37094	0	
1.1427	25.9685	2.58369	0	
1.1433	25.7049	0.738198	0	
1.1440	25.9685	1.05457	0	
1.1447	26.6276	2.00368	0	
1.1453	17.1366	2.58369	0	
1.1460	-6.6569	5.06193	0	
1.1467	-32.2958	7.48744	0	
1.1473	-47.521	7.80381	0	
1.1480	-51.8052	6.53833	0	
1.1487	-46.0051	4.74556	0	
1.1493	-36.58	4.74556	0	
1.1500	-29.5276	6.27469	0	
1.1507	-22.8048	4.74556	0	
1.1513	-15.2252	2.00368	0	
1.1520	-11.8638	3.53281	0	
1.1527	-11.5342	5.06193	0	
1.1533	-7.25009	4.74556	0	
1.1540	-7.84328	4.74556	0	
1.1547	-13.0502	4.42919	0	
1.1553	-12.1274	3.21644	0	
1.1560	-8.76601	3.53281	0	
1.1567	-9.09556	2.58369	0	
1.1573	-0.527279	1.05457	0	
1.1580	15.6206	1.05457	0	
1.1587	20.498	0.158185	0	
1.1593	16.2138	0.474556	0	
1.1600	11.9297	2.90006	0	
1.1607	2.83413	1.37094	0	
1.1613	-12.457	-2.26732	0	
1.1620	-25.573	-2.26732	0	
1.1627	-33.2186	-2.58369	0	
1.1633	-30.1208	-4.11282	0	
1.1640	-17.6638	-2.00368	0	
1.1647	-8.76601	0.474556	0	
1.1653	-7.25009	1.68731	0	
1.1660	-5.14097	2.00368	0	
1.1667	-0.26364	-0.158185	0	
1.1673	3.69095	-2.58369	0	
1.1680	8.63419	-1.68731	0	
1.1687	17.1366	-2.26732	0	
1.1693	21.0912	-4.11282	0	
1.1700	13.182	-1.68731	0	
1.1707	0.395459	-0.738198	0	
1.1713	-7.25009	-4.42919	0	
1.1720	-12.7865	-5.0092	0	
1.1727	-22.2116	-1.68731	0	
1.1733	-31.0436	-1.37094	0	
1.1740	-32.889	-2.00368	0	
1.1747	-25.573	-0.738198	0	
1.1753	-15.4888	0.158185	0	
1.1760	-8.76601	-1.37094	0	
1.1767	-2.70231	-1.37094	0	
1.1773	3.69095	0.738198	0	
1.1780	7.71146	-1.05457	0	
1.1787	7.38191	-5.64194	0	
1.1793	3.69095	-5.95831	0	
1.1800	0.659099	-3.21644	0	
1.1807	1.91139	-3.21644	0	
1.1813	4.61369	-3.53281	0	
1.1820	4.94324	-3.53281	0	
1.1827	5.27279	-6.27469	0	
1.1833	8.30465	-9.01656	0	
1.1840	14.6979	-5.64194	0	
1.1847	21.4207	-0.474556	0	
1.1853	25.7049	0.158185	0	
1.1860	30.9117	-1.68731	0	
1.1867	40.0073	-1.68731	0	
1.1873	47.6528	-1.05457	0	
1.1880	44.0278	-1.68731	0	
1.1887	24.4526	-2.00368	0	
1.1893	-7.84328	-0.474556	0	
1.1900	-32.889	0.474556	0	
1.1907	-34.1413	-0.474556	0	
1.1913	-22.8048	-1.37094	0	
1.1920	-15.2252	-2.58369	0	
1.1927	-7.25009	-3.53281	0	
1.1933	3.69095	-1.37094	0	
1.1940	8.63419	2.00368	0	
1.1947	6.19553	2.00368	0	
1.1953	1.91139	1.05457	0	
1.1960	-1.18638	2.00368	0	
1.1967	-6.32735	1.68731	0	
1.1973	-16.4116	0.474556	0	
1.1980	-26.4958	3.79645	0	
1.1987	-27.4185	6.8547	0	
1.1993	-18.257	3.21644	0	
1.2000	-7.84328	-0.158185	0	
1.2007	-2.37276	1.68731	0	
1.2013	0.659099	2.58369	0	
1.2020	5.27279	2.58369	0	
1.2027	8.63419	2.90006	0	
1.2033	8.30465	0.158185	0	
1.2040	11.3365	-3.21644	0	
1.2047	18.0593	-2.00368	0	
1.2053	18.3889	-2.26732	0	
1.2060	14.4343	-4.11282	0	
1.2067	13.7752	-0.738198	0	
1.2073	9.22738	3.21644	0	
1.2080	-3.88868	1.68731	0	
1.2087	-16.4116	-2.00368	0	
1.2093	-19.4434	-2.00368	0	
1.2100	-10.3479	1.05457	0	
1.2107	5.27279	2.58369	0	
1.2113	9.22738	1.05457	0	
1.2120	-0.856829	0.474556	0	
1.2127	-9.09556	0.738198	0	
1.2133	-12.7865	0.158185	0	
1.2140	-20.1025	1.05457	0	
1.2147	-28.6049	0.474556	0	
1.2153	-31.0436	-2.00368	0	
1.2160	-24.3867	-2.00368	0	
1.2167	-14.8956	0.474556	0	
1.2173	-9.42511	1.05457	0	
1.2180	-6.32735	1.68731	0	
1.2187	-4.54778	3.79645	0	
1.2193	-4.81142	4.42919	0	
1.2200	-4.54778	5.06193	0	
1.2207	-1.18638	5.95831	0	
1.2213	4.0205	5.06193	0	
1.2220	12.2592	4.74556	0	
1.2227	22.9366	5.64194	0	
1.2233	30.9117	6.8547	0	
1.2240	36.0527	8.06745	0	
1.2247	36.7118	8.06745	0	
1.2253	23.5298	6.53833	0	
1.2260	0.988648	5.06193	0	
1.2267	-13.6433	4.74556	0	
1.2273	-14.8956	3.79645	0	
1.2280	-14.5661	2.90006	0	
1.2287	-15.4888	2.90006	0	
1.2293	-10.3479	5.06193	0	
1.2300	-3.88868	6.27469	0	
1.2307	-2.70231	4.11282	0	
1.2313	-1.18638	3.21644	0	
1.2320	1.91139	4.42919	0	
1.2327	0.0659099	4.42919	0	
1.2333	-1.77957	2.90006	0	
1.2340	0.988648	0.474556	0	
1.2347	0.988648	-0.738198	0	
1.2353	-0.26364	1.05457	0	
1.2360	7.05236	0.738198	0	
1.2367	15.9502	-2.90006	0	
1.2373	18.3889	-3.21644	0	
1.2380	22.3435	-1.37094	0	
1.2387	27.2208	-2.00368	0	
1.2393	22.9366	-0.738198	0	
1.2400	17.4661	1.68731	0	
1.2407	16.5434	-1.05457	0	
1.2413	7.71146	-4.74556	0	
1.2420	-9.42511	-3.21644	0	
1.2427	-20.1025	0.474556	0	
1.2433	-21.8821	2.26732	0	
1.2440	-18.257	1.05457	0	
1.2447	-9.09556	-2.00368	0	
1.2453	-1.45002	-3.21644	0	
1.2460	-1.18638	-2.26732	0	
1.2467	-2.37276	-2.90006	0	
1.2473	-1.77957	-3.53281	0	
1.2480	-1.18638	-2.58369	0	
1.2487	0.988648	-2.58369	0	
1.2493	2.50458	-2.26732	0	
1.2500	1.91139	-1.05457	0	
1.2507	2.17503	-2.58369	0	
1.2513	0.659099	-4.42919	0	
1.2520	-6.06371	-2.58369	0	
1.2527	-10.941	-1.05457	0	
1.2533	-7.25009	-2.26732	0	
1.2540	-1.45002	-1.37094	0	
1.2547	2.83413	0.158185	0	
1.2553	9.49102	-1.37094	0	
1.2560	23.8594	-2.58369	0	
1.2567	42.5119	-1.37094	0	
1.2573	54.0461	-1.68731	0	
1.2580	52.2665	-4.11282	0	
1.2587	37.8982	-2.90006	0	
1.2593	11.9297	1.05457	0	
1.2600	-16.4116	1.05457	0	
1.2607	-35.3277	-1.68731	0	
1.2613	-44.1596	-0.158185	0	
1.2620	-46.6642	1.68731	0	
1.2627	-38.3596	-0.738198	0	
1.2633	-23.4639	-2.58369	0	
1.2640	-11.2047	-2.00368	0	
1.2647	-3.29549	-3.53281	0	
1.2653	0.988648	-4.42919	0	
1.2660	-2.70231	-2.26732	0	
1.2667	-10.0183	-1.05457	0	
1.2673	-13.6433	-2.26732	0	
1.2680	-15.4888	-2.26732	0	
1.2687	-17.0048	-1.68731	0	
1.2693	-14.5661	-0.738198	0	
1.2700	-2.96594	-0.158185	0	
1.2707	14.1047	-0.474556	0	
1.2713	28.7367	0.474556	0	
1.2720	34.8663	1.37094	0	
1.2727	26.6276	-1.37094	0	
1.2733	4.61369	-4.42919	0	
1.2740	-16.4116	-3.79645	0	
1.2747	-23.7276	-3.53281	0	
1.2753	-22.8048	-2.90006	0	
1.2760	-21.6184	1.37094	0	
1.2767	-17.3343	3.21644	0	
1.2773	-10.3479	-1.68731	0	
1.2780	-3.62504	-4.74556	0	
1.2787	2.83413	-2.58369	0	
1.2793	7.9751	1.05457	0	
1.2800	11.9297	2.90006	0	
1.2807	16.8729	0.474556	0	
1.2813	19.9048	-2.58369	0	
1.2820	18.6525	1.05457	0	
1.2827	16.2138	4.74556	0	
1.2833	13.5115	0.158185	0	
1.2840	7.9751	-3.21644	0	
1.2847	2.17503	1.05457	0	
1.2853	1.91139	2.26732	0	
1.2860	5.27279	-1.05457	0	
1.2867	3.69095	-2.58369	0	
1.2873	-1.45002	-2.58369	0	
1.2880	-2.70231	-1.68731	0	
1.2887	-4.54778	0.158185	0	
1.2893	-13.6433	0.158185	0	
1.2900	-23.1344	-1.05457	0	
1.2907	-22.2116	-1.68731	0	
1.2913	-14.5661	-2.00368	0	
1.2920	-6.98645	-3.53281	0	
1.2927	-2.70231	-4.42919	0	
1.2933	-3.88868	-4.42919	0	
1.2940	-3.88868	-5.0092	0	
1.2947	-0.26364	-5.32557	0	
1.2953	0.988648	-3.53281	0	
1.2960	0.395459	-1.68731	0	
1.2967	3.69095	-2.90006	0	
1.2973	7.38191	-4.11282	0	
1.2980	8.89783	-2.58369	0	
1.2987	12.8524	-2.00368	0	
1.2993	17.4661	-2.90006	0	
1.3000	22.9366	-3.53281	0	
1.3007	33.9436	-3.53281	0	
1.3013	43.3687	-3.79645	0	
1.3020	43.6983	-3.79645	0	
1.3027	33.9436	-3.21644	0	
1.3033	19.3116	-2.90006	0	
1.3040	6.78872	-2.90006	0	
1.3047	-5.14097	-2.26732	0	
1.3053	-22.2116	-1.37094	0	
1.3060	-34.1413	-1.68731	0	
1.3067	-26.4958	-2.58369	0	
1.3073	-7.84328	-3.53281	0	
1.3080	5.86598	-3.53281	0	
1.3087	16.5434	-3.53281	0	
1.3093	22.673	-1.68731	0	
1.3100	12.8524	0.474556	0	
1.3107	-10.941	1.37094	0	
1.3113	-30.4504	1.68731	0	
1.3120	-35.0641	2.26732	0	
1.3127	-33.2186	2.26732	0	
1.3133	-31.9663	1.37094	0	
1.3140	-24.9798	0.738198	0	
1.3147	-11.8638	1.05457	0	
1.3153	-0.856829	2.58369	0	
1.3160	8.63419	2.90006	0	
1.3167	20.2343	1.37094	0	
1.3173	27.5503	-0.158185	0	
1.3180	27.814	0.158185	0	
1.3187	25.7049	1.68731	0	
1.3193	21.0912	2.58369	0	
1.3200	12.2592	0.474556	0	
1.3207	-0.856829	-2.00368	0	
1.3213	-10.6115	-1.68731	0	
1.3220	-7.57964	-0.158185	0	
1.3227	1.91139	0.474556	0	
1.3233	1.58184	2.00368	0	
1.3240	-2.70231	2.58369	0	
1.3247	-0.527279	1.68731	0	
1.3253	-1.18638	2.00368	0	
1.3260	-10.6115	2.00368	0	
1.3267	-18.257	-0.158185	0	
1.3273	-21.6184	1.05457	0	
1.3280	-24.9798	4.74556	0	
1.3287	-24.9798	3.79645	0	
1.3293	-18.5866	0.158185	0	
1.3300	-10.941	-1.37094	0	
1.3307	-7.25009	-0.738198	0	
1.3313	-7.25009	1.05457	0	
1.3320	-8.76601	2.90006	0	
1.3327	-8.17283	2.00368	0	
1.3333	-7.25009	-1.05457	0	
1.3340	-8.76601	-2.00368	0	
1.3347	-8.76601	-0.474556	0	
1.3353	-2.70231	-1.37094	0	
1.3360	2.50458	-2.90006	0	
1.3367	1.91139	-1.05457	0	
1.3373	3.42731	-0.158185	0	
1.3380	11.3365	-3.21644	0	
1.3387	20.2343	-4.42919	0	
1.3393	24.7821	-2.58369	0	
1.3400	23.2662	-3.53281	0	
1.3407	18.6525	-5.32557	0	
1.3413	17.4661	-4.11282	0	
1.3420	16.5434	-2.58369	0	
1.3427	13.5115	-2.58369	0	
1.3433	14.6979	-3.53281	0	
1.3440	20.2343	-4.74556	0	
1.3447	22.673	-3.53281	0	
1.3453	22.0139	-1.68731	0	
1.3460	16.5434	-3.53281	0	
1.3467	7.38191	-6.27469	0	
1.3473	9.49102	-4.42919	0	
1.3480	21.0912	-1.68731	0	
1.3487	17.7298	-2.58369	0	
1.3493	-7.57964	-3.79645	0	
1.3500	-34.1413	-1.05457	0	
1.3507	-43.896	1.68731	0	
1.3513	-40.205	-0.738198	0	
1.3520	-36.58	-3.53281	0	
1.3527	-37.1732	-3.21644	0	
1.3533	-32.889	-1.68731	0	
1.3540	-23.4639	-0.158185	0	
1.3547	-18.257	2.00368	0	
1.3553	-17.6638	2.90006	0	
1.3560	-11.8638	2.58369	0	
1.3567	-5.40461	1.05457	0	
1.3573	-4.81142	-3.21644	0	
1.3580	-3.62504	-4.42919	0	
1.3587	0.395459	0.158185	0	
1.3593	1.91139	2.00368	0	
1.3600	2.83413	-0.474556	0	
1.3607	4.0205	0.158185	0	
1.3613	2.83413	0.738198	0	
1.3620	1.58184	-0.738198	0	
1.3627	1.91139	0.738198	0	
1.3633	-1.77957	3.21644	0	
1.3640	-4.54778	2.00368	0	
1.3647	-2.37276	2.90006	0	
1.3653	-0.856829	6.8547	0	
1.3660	-1.45002	7.80381	0	
1.3667	-0.26364	5.64194	0	
1.3673	-1.18638	5.06193	0	
1.3680	-1.77957	6.27469	0	
1.3687	5.53643	5.95831	0	
1.3693	13.7752	4.74556	0	
1.3700	17.1366	4.11282	0	
1.3707	19.9048	4.74556	0	
1.3713	21.4207	3.79645	0	
1.3720	21.0912	1.05457	0	
1.3727	22.673	-0.738198	0	
1.3733	22.0139	-0.474556	0	
1.3740	14.1047	-1.37094	0	
1.3747	6.78872	-0.158185	0	
1.3753	0.0659099	2.26732	0	
1.3760	-13.6433	0.158185	0	
1.3767	-24.6503	-2.58369	0	
1.3773	-15.2252	0.738198	0	
1.3780	4.0205	3.21644	0	
1.3787	13.7752	-0.158185	0	
1.3793	21.0912	-2.58369	0	
1.3800	34.2072	-2.26732	0	
1.3807	39.7437	-2.00368	0	
1.3813	32.0981	0.158185	0	
1.3820	21.0912	3.21644	0	
1.3827	8.63419	2.90006	0	
1.3833	-10.0183	2.00368	0	
1.3840	-28.0117	2.90006	0	
1.3847	-33.8118	3.21644	0	
1.3853	-25.573	2.00368	0	
1.3860	-13.0502	1.68731	0	
1.3867	-7.25009	3.79645	0	
1.3873	-7.57964	4.74556	0	
1.3880	-7.25009	3.79645	0	
1.3887	-5.14097	3.21644	0	
1.3893	-3.62504	4.11282	0	
1.3900	-1.18638	4.74556	0	
1.3907	3.42731	2.90006	0	
1.3913	7.38191	2.90006	0	
1.3920	12.5888	4.74556	0	
1.3927	21.7503	4.11282	0	
1.3933	27.5503	2.00368	0	
1.3940	19.5752	1.68731	0	
1.3947	6.19553	0.738198	0	
1.3953	-1.18638	-0.738198	0	
1.3960	-10.3479	1.05457	0	
1.3967	-32.889	2.90006	0	
1.3973	-51.212	1.05457	0	
1.3980	-45.4119	0.738198	0	
1.3987	-29.264	2.00368	0	
1.3993	-21.8821	0.158185	0	
1.4000	-17.0048	-0.474556	0	
1.4007	-8.76601	1.68731	0	
1.4013	-6.06371	-0.738198	0	
1.4020	-6.32735	-4.74556	0	
1.4027	-1.45002	-3.53281	0	
1.4033	1.58184	-0.738198	0	
1.4040	-3.62504	-1.68731	0	
1.4047	-7.84328	-1.68731	0	
1.4053	-6.06371	0.158185	0	
1.4060	-2.70231	2.00368	0	
1.4067	-0.527279	2.90006	0	
1.4073	1.91139	2.00368	0	
1.4080	1.91139	1.05457	0	
1.4087	-0.856829	2.00368	0	
1.4093	-1.77957	2.26732	0	
1.4100	-1.77957	0.738198	0	
1.4107	-2.70231	0.474556	0	
1.4113	-0.527279	0.474556	0	
1.4120	7.38191	0.158185	0	
1.4127	16.8729	1.05457	0	
1.4133	26.8912	0.158185	0	
1.4140	35.13	-3.53281	0	
1.4147	31.5049	-2.58369	0	
1.4153	11.3365	0.158185	0	
1.4160	-12.1274	-2.58369	0	
1.4167	-20.1025	-3.21644	0	
1.4173	-13.9729	-1.68731	0	
1.4180	-12.457	-2.90006	0	
1.4187	-16.4116	-4.42919	0	
1.4193	-13.0502	-4.42919	0	
1.4200	-4.54778	-6.8547	0	
1.4207	-1.18638	-6.27469	0	
1.4213	-0.26364	-1.68731	0	
1.4220	5.86598	0.158185	0	
1.4227	12.2592	-1.05457	0	
1.4233	11.666	-2.00368	0	
1.4240	4.94324	-3.79645	0	
1.4247	-3.29549	-4.74556	0	
1.4253	-7.84328	-2.90006	0	
1.4260	-6.06371	-2.00368	0	
1.4267	-2.96594	-2.58369	0	
1.4273	-4.81142	-2.90006	0	
1.4280	-8.17283	-2.58369	0	
1.4287	-11.8638	-2.26732	0	
1.4293	-17.3343	-2.58369	0	
1.4300	-20.1025	-3.53281	0	
1.4307	-17.0048	-4.42919	0	
1.4313	-12.1274	-4.42919	0	
1.4320	-8.17283	-6.27469	0	
1.4327	-5.14097	-8.70019	0	
1.4333	-3.29549	-7.80381	0	
1.4340	-0.856829	-5.0092	0	
1.4347	2.83413	-4.74556	0	
1.4353	6.45917	-5.95831	0	
1.4360	11.3365	-5.64194	0	
1.4367	16.8729	-4.42919	0	
1.4373	20.498	-1.68731	0	
1.4380	22.3435	-1.68731	0	
1.4387	26.8912	-4.11282	0	
1.4393	36.7118	-2.58369	0	
1.4400	45.8074	0.474556	0	
1.4407	44.9505	-2.58369	0	
1.4413	33.0209	-4.42919	0	
1.4420	13.7752	-0.738198	0	
1.4427	-10.3479	-0.738198	0	
1.4433	-34.1413	-5.0092	0	
1.4440	-47.521	-5.64194	0	
1.4447	-42.6437	-5.32557	0	
1.4453	-17.3343	-7.17107	0	
1.4460	15.9502	-5.0092	0	
1.4467	41.2596	-2.58369	0	
1.4473	55.8916	-5.64194	0	
1.4480	49.8279	-6.8547	0	
1.4487	18.0593	-2.58369	0	
1.4493	-11.2047	-1.05457	0	
1.4500	-18.257	-2.90006	0	
1.4507	-26.8253	-2.90006	0	
1.4513	-43.3028	-2.26732	0	
1.4520	-41.721	-3.53281	0	
1.4527	-24.9798	-2.58369	0	
1.4533	-17.3343	-0.474556	0	
1.4540	-21.0253	-0.158185	0	
1.4547	-23.7276	1.05457	0	
1.4553	-21.6184	4.74556	0	
1.4560	-15.4888	4.74556	0	
1.4567	-11.5342	0.158185	0	
1.4573	-10.3479	-0.158185	0	
1.4580	-7.84328	2.90006	0	
1.4587	-8.17283	4.11282	0	
1.4593	-13.6433	3.21644	0	
1.4600	-15.8184	0.738198	0	
1.4607	-12.457	-2.58369	0	
1.4613	-9.09556	-3.21644	0	
1.4620	-6.06371	-1.68731	0	
1.4627	-2.70231	-0.738198	0	
1.4633	-0.527279	0.474556	0	
1.4640	1.25229	1.05457	0	
1.4647	1.91139	-0.158185	0	
1.4653	-0.527279	0.474556	0	
1.4660	-2.10912	1.05457	0	
1.4667	-3.62504	-1.05457	0	
1.4673	-5.73416	-1.68731	0	
1.4680	-4.54778	-0.738198	0	
1.4687	-0.856829	-1.37094	0	
1.4693	0.988648	-0.738198	0	
1.4700	3.42731	0.738198	0	
1.4707	6.45917	-0.158185	0	
1.4713	9.22738	-0.738198	0	
1.4720	12.5888	-0.158185	0	
1.4727	13.182	-1.05457	0	
1.4733	10.1501	-2.58369	0	
1.4740	8.89783	-0.738198	0	
1.4747	10.7433	1.05457	0	
1.4753	13.7752	0.474556	0	
1.4760	15.9502	-0.738198	0	
1.4767	13.7752	-1.68731	0	
1.4773	10.1501	-1.68731	0	
1.4780	10.7433	1.05457	0	
1.4787	11.0729	2.90006	0	
1.4793	8.30465	1.05457	0	
1.4800	9.22738	2.00368	0	
1.4807	14.1047	5.32557	0	
1.4813	14.6979	5.64194	0	
1.4820	12.8524	5.32557	0	
1.4827	9.82057	6.8547	0	
1.4833	3.69095	5.95831	0	
1.4840	-0.26364	4.11282	0	
1.4847	1.91139	6.27469	0	
1.4853	6.45917	7.48744	0	
1.4860	7.38191	6.27469	0	
1.4867	7.05236	7.48744	0	
1.4873	5.27279	8.38382	0	
1.4880	3.69095	6.27469	0	
1.4887	6.45917	6.27469	0	
1.4893	10.7433	7.48744	0	
1.4900	11.3365	5.06193	0	
1.4907	14.4343	4.42919	0	
1.4913	22.0139	6.53833	0	
1.4920	23.8594	5.95831	0	
1.4927	15.6206	6.27469	0	
1.4933	5.53643	9.01656	0	
1.4940	-3.29549	6.53833	0	
1.4947	-10.941	3.53281	0	
1.4953	-17.3343	5.32557	0	
1.4960	-22.8048	2.90006	0	
1.4967	-22.8048	-2.58369	0	
1.4973	-19.4434	-0.158185	0	
1.4980	-18.257	4.11282	0	
1.4987	-12.7865	2.00368	0	
1.4993	2.83413	-0.158185	0	
1.5000	22.0139	1.05457	0	
1.5007	32.6913	2.00368	0	
1.5013	27.5503	2.90006	0	
1.5020	12.5888	3.53281	0	
1.5027	4.35005	-0.738198	0	
1.5033	0.988648	-2.90006	0	
1.5040	-14.3024	0.158185	0	
1.5047	-33.4822	2.90006	0	
1.5053	-38.6891	1.05457	0	
1.5060	-39.6118	-0.738198	0	
1.5067	-45.7415	0.738198	0	
1.5073	-43.896	1.68731	0	
1.5080	-25.2435	-1.68731	0	
1.5087	-1.77957	-5.0092	0	
1.5093	10.7433	-3.79645	0	
1.5100	8.30465	-1.05457	0	
1.5107	0.659099	-0.158185	0	
1.5113	-4.81142	-1.37094	0	
1.5120	-15.4888	-3.79645	0	
1.5127	-33.2186	-4.74556	0	
1.5133	-39.9414	-2.58369	0	
1.5140	-29.5276	-1.68731	0	
1.5147	-18.257	-1.68731	0	
1.5153	-13.9729	-0.158185	0	
1.5160	-11.2047	1.68731	0	
1.5167	-12.457	1.05457	0	
1.5173	-19.1798	0.158185	0	
1.5180	-21.0253	1.68731	0	
1.5187	-16.082	2.00368	0	
1.5193	-9.42511	-0.474556	0	
1.5200	-3.29549	-1.05457	0	
1.5207	-2.96594	2.00368	0	
1.5213	-5.73416	3.79645	0	
1.5220	-2.37276	2.00368	0	
1.5227	0.659099	1.37094	0	
1.5233	-4.21823	2.90006	0	
1.5240	-6.06371	4.74556	0	
1.5247	-1.18638	5.06193	0	
1.5253	0.0659099	2.58369	0	
1.5260	-0.856829	-0.158185	0	
1.5267	0.0659099	1.37094	0	
1.5273	-0.856829	5.64194	0	
1.5280	-0.856829	5.95831	0	
1.5287	2.83413	3.79645	0	
1.5293	4.61369	2.90006	0	
1.5300	4.0205	1.68731	0	
1.5307	4.61369	0.474556	0	
1.5313	2.83413	-0.738198	0	
1.5320	0.988648	-2.58369	0	
1.5327	1.91139	-3.53281	0	
1.5333	2.50458	-2.26732	0	
1.5340	4.61369	-0.738198	0	
1.5347	15.2911	-1.37094	0	
1.5353	23.8594	-2.00368	0	
1.5360	19.3116	-2.00368	0	
1.5367	11.9297	-2.58369	0	
1.5373	10.7433	-4.11282	0	
1.5380	12.8524	-3.79645	0	
1.5387	17.7298	-4.11282	0	
1.5393	22.9366	-5.95831	0	
1.5400	28.1435	-3.21644	0	
1.5407	37.305	1.05457	0	
1.5413	44.0278	-0.474556	0	
1.5420	36.7118	-1.68731	0	
1.5427	19.3116	2.00368	0	
1.5433	-1.18638	1.37094	0	
1.5440	-18.8502	-2.00368	0	
1.5447	-25.9026	-0.738198	0	
1.5453	-27.6822	0.158185	0	
1.5460	-33.8118	-1.37094	0	
1.5467	-35.6572	-0.738198	0	
1.5473	-28.9344	-2.58369	0	
1.5480	-25.573	-4.74556	0	
1.5487	-24.0571	-1.68731	0	
1.5493	-15.2252	1.68731	0	
1.5500	-2.37276	-0.474556	0	
1.5507	9.49102	-3.21644	0	
1.5513	23.2662	-4.42919	0	
1.5520	33.0209	-2.90006	0	
1.5527	28.7367	1.37094	0	
1.5533	13.7752	-0.738198	0	
1.5540	0.0659099	-6.8547	0	
1.5547	-12.7865	-5.32557	0	
1.5553	-31.3731	-0.474556	0	
1.5560	-42.9732	-0.474556	0	
1.5567	-33.2186	-1.68731	0	
1.5573	-15.4888	-2.58369	0	
1.5580	-7.57964	-3.79645	0	
1.5587	-4.54778	-4.74556	0	
1.5593	-0.527279	-4.42919	0	
1.5600	-1.18638	-2.90006	0	
1.5607	-1.45002	-0.738198	0	
1.5613	4.94324	-2.26732	0	
1.5620	10.4138	-4.42919	0	
1.5627	14.4343	-3.53281	0	
1.5633	25.7049	-3.21644	0	
1.5640	37.5686	-5.64194	0	
1.5647	34.5368	-6.53833	0	
1.5653	24.7821	-5.32557	0	
1.5660	19.9048	-3.21644	0	
1.5667	11.0729	-2.90006	0	
1.5673	-7.25009	-4.11282	0	
1.5680	-24.9798	-3.21644	0	
1.5687	-30.1208	-1.68731	0	
1.5693	-21.8821	-2.58369	0	
1.5700	-10.941	-3.21644	0	
1.5707	-11.2047	-1.37094	0	
1.5713	-19.1798	-1.37094	0	
1.5720	-20.1025	-1.68731	0	
1.5727	-13.6433	-2.26732	0	
1.5733	-6.06371	-6.27469	0	
1.5740	2.50458	-8.06745	0	
1.5747	12.8524	-3.53281	0	
1.5753	23.8594	-1.05457	0	
1.5760	33.0209	-1.68731	0	
1.5767	36.9754	0.158185	0	
1.5773	28.7367	2.26732	0	
1.5780	8.30465	2.00368	0	
1.5787	-10.0183	2.90006	0	
1.5793	-14.3024	2.26732	0	
1.5800	-10.941	-0.474556	0	
1.5807	-9.42511	-0.738198	0	
1.5813	-8.17283	0.158185	0	
1.5820	-1.77957	-0.474556	0	
1.5827	3.69095	-0.474556	0	
1.5833	2.83413	0.158185	0	
1.5840	3.42731	1.05457	0	
1.5847	9.82057	2.26732	0	
1.5853	15.2911	2.00368	0	
1.5860	16.8729	-0.474556	0	
1.5867	21.0912	-0.158185	0	
1.5873	26.8912	2.00368	0	
1.5880	27.814	1.05457	0	
1.5887	28.1435	-1.05457	0	
1.5893	31.5049	-1.05457	0	
1.5900	32.0981	1.05457	0	
1.5907	23.2662	1.05457	0	
1.5913	5.86598	-1.05457	0	
1.5920	-12.1274	0.158185	0	
1.5927	-22.2116	2.26732	0	
1.5933	-28.3413	0.158185	0	
1.5940	-33.8118	-1.37094	0	
1.5947	-30.1208	2.00368	0	
1.5953	-21.0253	3.79645	0	
1.5960	-18.257	1.05457	0	
1.5967	-21.8821	-1.68731	0	
1.5973	-23.1344	-2.00368	0	
1.5980	-21.8821	-1.68731	0	
1.5987	-15.4888	-2.58369	0	
1.5993	-6.32735	-2.58369	0	
1.6000	-2.37276	-0.474556	0	
1.6007	-1.77957	-0.738198	0	
1.6013	1.25229	-5.32557	0	
1.6020	4.35005	-5.95831	0	
1.6027	5.53643	-2.26732	0	
1.6033	7.38191	-0.738198	0	
1.6040	7.05236	-1.37094	0	
1.6047	5.86598	-0.474556	0	
1.6053	7.9751	-2.00368	0	
1.6060	8.63419	-5.32557	0	
1.6067	5.86598	-5.0092	0	
1.6073	5.53643	-3.53281	0	
1.6080	4.61369	-4.42919	0	
1.6087	0.0659099	-4.42919	0	
1.6093	1.25229	-3.53281	0	
1.6100	6.78872	-3.53281	0	
1.6107	6.45917	-3.53281	0	
1.6113	8.63419	-3.79645	0	
1.6120	21.4207	-4.74556	0	
1.6127	32.0981	-3.21644	0	
1.6133	31.7686	-1.68731	0	
1.6140	26.6276	-2.58369	0	
1.6147	18.3889	-3.79645	0	
1.6153	1.91139	-2.58369	0	
1.6160	-20.3662	0.158185	0	
1.6167	-35.6572	1.37094	0	
1.6173	-33.2186	-2.00368	0	
1.6180	-18.5866	-4.74556	0	
1.6187	-8.17283	-2.90006	0	
1.6193	-4.21823	-2.58369	0	
1.6200	0.395459	-3.21644	0	
1.6207	0.988648	-0.738198	0	
1.6213	-5.73416	-0.738198	0	
1.6220	-10.3479	-2.26732	0	
1.6227	-9.09556	1.05457	0	
1.6233	-4.54778	3.21644	0	
1.6240	6.45917	0.158185	0	
1.6247	20.498	0.158185	0	
1.6253	27.2208	2.58369	0	
1.6260	21.7503	-0.738198	0	
1.6267	3.69095	-2.58369	0	
1.6273	-18.5866	-0.474556	0	
1.6280	-28.3413	0.474556	0	
1.6287	-24.9798	-0.158185	0	
1.6293	-24.9798	-0.474556	0	
1.6300	-28.3413	-0.738198	0	
1.6307	-26.8253	1.37094	0	
1.6313	-22.5412	3.79645	0	
1.6320	-18.5866	1.05457	0	
1.6327	-13.0502	-1.05457	0	
1.6333	-8.50238	0.474556	0	
1.6340	-6.6569	0.474556	0	
1.6347	-4.81142	0.158185	0	
1.6353	-1.45002	2.58369	0	
1.6360	1.25229	4.11282	0	
1.6367	2.83413	2.90006	0	
1.6373	5.27279	1.05457	0	
1.6380	8.63419	-0.158185	0	
1.6387	7.9751	-0.474556	0	
1.6393	3.09776	0.158185	0	
1.6400	6.19553	2.00368	0	
1.6407	18.982	4.74556	0	
1.6413	30.2526	5.06193	0	
1.6420	37.305	2.90006	0	
1.6427	43.1051	3.79645	0	
1.6433	46.7301	4.42919	0	
1.6440	49.4983	-0.738198	0	
1.6447	46.7301	-2.58369	0	
1.6453	27.5503	2.00368	0	
1.6460	3.09776	2.90006	0	
1.6467	-13.9729	0.158185	0	
1.6473	-41.1278	0.738198	0	
1.6480	-77.4441	2.00368	0	
1.6487	-86.6056	0.158185	0	
1.6493	-62.8121	-2.00368	0	
1.6500	-37.5027	-2.90006	0	
1.6507	-23.7276	-1.68731	0	
1.6513	-15.8184	-0.158185	0	
1.6520	-11.8638	-0.738198	0	
1.6527	-7.57964	0.158185	0	
1.6533	-2.96594	3.79645	0	
1.6540	0.988648	3.79645	0	
1.6547	3.42731	0.474556	0	
1.6553	-0.26364	1.05457	0	
1.6560	-11.2047	3.53281	0	
1.6567	-16.082	3.79645	0	
1.6573	-9.09556	4.42919	0	
1.6580	-0.856829	4.42919	0	
1.6587	5.27279	0.474556	0	
1.6593	12.8524	-1.68731	0	
1.6600	22.9366	2.00368	0	
1.6607	33.0209	5.32557	0	
1.6613	34.5368	2.90006	0	
1.6620	17.7298	1.05457	0	
1.6627	-5.14097	4.11282	0	
1.6633	-16.082	5.95831	0	
1.6640	-18.257	3.53281	0	
1.6647	-19.1798	3.79645	0	
1.6653	-16.7411	5.95831	0	
1.6660	-10.941	3.53281	0	
1.6667	-6.98645	0.158185	0	
1.6673	-2.70231	1.05457	0	
1.6680	1.58184	3.79645	0	
1.6687	1.91139	3.79645	0	
1.6693	0.0659099	2.26732	0	
1.6700	-1.18638	1.05457	0	
1.6707	-2.37276	1.37094	0	
1.6713	-3.62504	2.00368	0	
1.6720	-8.17283	1.05457	0	
1.6727	-11.2047	-0.158185	0	
1.6733	-4.54778	0.158185	0	
1.6740	5.53643	-0.738198	0	
1.6747	8.89783	-2.90006	0	
1.6753	11.9297	-3.53281	0	
1.6760	23.8594	-3.21644	0	
1.6767	37.8982	-1.68731	0	
1.6773	43.1051	-1.05457	0	
1.6780	35.7891	-2.00368	0	
1.6787	22.9366	-2.58369	0	
1.6793	12.2592	-2.90006	0	
1.6800	-2.70231	-3.79645	0	
1.6807	-25.573	-5.32557	0	
1.6813	-35.9209	-7.17107	0	
1.6820	-26.4958	-7.17107	0	
1.6827	-16.082	-4.74556	0	
1.6833	-12.457	-3.79645	0	
1.6840	-5.40461	-4.11282	0	
1.6847	2.17503	-2.00368	0	
1.6853	2.83413	-1.68731	0	
1.6860	4.61369	-4.42919	0	
1.6867	13.182	-2.00368	0	
1.6873	20.8275	1.68731	0	
1.6880	22.3435	0.158185	0	
1.6887	21.0912	-0.738198	0	
1.6893	18.0593	1.37094	0	
1.6900	17.4661	0.738198	0	
1.6907	19.9048	-0.738198	0	
1.6913	18.0593	1.05457	0	
1.6920	12.8524	0.474556	0	
1.6927	14.6979	-2.00368	0	
1.6933	18.6525	-1.37094	0	
1.6940	11.0729	0.158185	0	
1.6947	-4.54778	-0.738198	0	
1.6953	-12.7865	-1.68731	0	
1.6960	-14.5661	-2.26732	0	
1.6967	-21.8821	-2.58369	0	
1.6973	-35.6572	-4.11282	0	
1.6980	-41.721	-5.32557	0	
1.6987	-35.3277	-4.11282	0	
1.6993	-25.573	-1.05457	0	
1.7000	-18.8502	0.158185	0	
1.7007	-13.0502	-1.37094	0	
1.7013	-11.5342	-2.00368	0	
1.7020	-12.457	-2.58369	0	
1.7027	-10.941	-2.26732	0	
1.7033	-7.84328	-1.05457	0	
1.7040	-4.54778	-1.37094	0	
1.7047	0.0659099	-2.58369	0	
1.7053	3.69095	-0.738198	0	
1.7060	9.22738	1.37094	0	
1.7067	18.982	0.738198	0	
1.7073	28.7367	-1.05457	0	
1.7080	34.5368	0.158185	0	
1.7087	29.989	2.90006	0	
1.7093	10.4138	2.90006	0	
1.7100	-10.941	0.738198	0	
1.7107	-18.8502	-0.474556	0	
1.7113	-20.3662	0.158185	0	
1.7120	-22.5412	-0.158185	0	
1.7127	-19.1798	-1.68731	0	
1.7133	-10.6115	-2.00368	0	
1.7140	-4.81142	-0.158185	0	
1.7147	-1.18638	0.474556	0	
1.7153	3.09776	-1.05457	0	
1.7160	4.61369	-0.738198	0	
1.7167	0.988648	0.738198	0	
1.7173	-2.70231	1.05457	0	
1.7180	-3.62504	0.158185	0	
1.7187	-5.14097	-1.68731	0	
1.7193	-8.17283	-2.58369	0	
1.7200	-5.40461	-2.00368	0	
1.7207	0.395459	-1.68731	0	
1.7213	3.69095	-3.21644	0	
1.7220	6.45917	-4.11282	0	
1.7227	9.82057	-3.21644	0	
1.7233	11.9297	-2.58369	0	
1.7240	12.5888	-2.90006	0	
1.7247	12.8524	-3.53281	0	
1.7253	12.8524	-2.90006	0	
1.7260	14.4343	0.158185	0	
1.7267	16.2138	2.00368	0	
1.7273	13.7752	0.158185	0	
1.7280	7.05236	-0.474556	0	
1.7287	0.988648	-0.738198	0	
1.7293	-0.26364	-3.53281	0	
1.7300	1.91139	-2.00368	0	
1.7307	-0.856829	2.00368	0	
1.7313	-6.32735	1.05457	0	
1.7320	-1.77957	0.738198	0	
1.7327	8.63419	3.53281	0	
1.7333	14.6979	2.00368	0	
1.7340	23.8594	-0.474556	0	
1.7347	37.5686	2.26732	0	
1.7353	40.3368	4.11282	0	
1.7360	30.2526	2.58369	0	
1.7367	19.9048	2.00368	0	
1.7373	9.22738	2.90006	0	
1.7380	-8.50238	5.32557	0	
1.7387	-26.1662	7.48744	0	
1.7393	-31.0436	4.74556	0	
1.7400	-20.6957	0.158185	0	
1.7407	-8.17283	1.05457	0	
1.7413	-2.70231	3.79645	0	
1.7420	-0.26364	3.21644	0	
1.7427	1.91139	2.26732	0	
1.7433	1.91139	2.58369	0	
1.7440	3.09776	2.90006	0	
1.7447	4.61369	1.68731	0	
1.7453	4.61369	-0.738198	0	
1.7460	5.53643	-0.738198	0	
1.7467	4.94324	1.05457	0	
1.7473	1.25229	-0.474556	0	
1.7480	-1.77957	-2.58369	0	
1.7487	-6.32735	-0.738198	0	
1.7493	-11.8638	0.738198	0	
1.7500	-6.32735	0.158185	0	
1.7507	12.8524	0.474556	0	
1.7513	30.2526	0.158185	0	
1.7520	38.8209	-0.738198	0	
1.7527	40.93	1.05457	0	
1.7533	37.305	1.37094	0	
1.7540	33.3504	-0.738198	0	
1.7547	25.7049	0.158185	0	
1.7553	-3.62504	0.474556	0	
1.7560	-49.1029	-0.738198	0	
1.7567	-73.4895	0.738198	0	
1.7573	-65.5803	2.00368	0	
1.7580	-49.3665	-0.738198	0	
1.7587	-37.5027	-2.00368	0	
1.7593	-23.7276	-0.738198	0	
1.7600	-11.8638	-0.158185	0	
1.7607	-6.6569	0.158185	0	
1.7613	-4.81142	0.158185	0	
1.7620	-2.10912	-2.00368	0	
1.7627	1.58184	-2.00368	0	
1.7633	-0.527279	2.00368	0	
1.7640	-8.76601	5.32557	0	
1.7647	-12.7865	4.74556	0	
1.7653	-12.1274	2.00368	0	
1.7660	-15.2252	-0.738198	0	
1.7667	-17.6638	-0.738198	0	
1.7673	-12.7865	1.05457	0	
1.7680	-5.73416	0.158185	0	
1.7687	-2.96594	-2.58369	0	
1.7693	-3.88868	-1.68731	0	
1.7700	-6.06371	1.68731	0	
1.7707	-5.40461	1.05457	0	
1.7713	-0.856829	-0.158185	0	
1.7720	3.69095	1.05457	0	
1.7727	5.53643	1.37094	0	
1.7733	5.86598	-0.738198	0	
1.7740	6.45917	-1.37094	0	
1.7747	7.9751	1.05457	0	
1.7753	10.1501	4.42919	0	
1.7760	11.3365	5.64194	0	
1.7767	9.82057	3.21644	0	
1.7773	5.53643	1.68731	0	
1.7780	1.91139	0.158185	0	
1.7787	3.09776	-2.58369	0	
1.7793	7.9751	-2.00368	0	
1.7800	9.82057	1.68731	0	
1.7807	5.86598	2.26732	0	
1.7813	2.17503	2.00368	0	
1.7820	2.17503	2.26732	0	
1.7827	2.83413	1.37094	0	
1.7833	1.91139	0.158185	0	
1.7840	-0.527279	0.474556	0	
1.7847	-2.37276	0.158185	0	
1.7853	-1.18638	1.05457	0	
1.7860	0.395459	2.00368	0	
1.7867	-0.856829	-0.158185	0	
1.7873	-1.45002	-2.26732	0	
1.7880	0.659099	-2.26732	0	
1.7887	1.91139	-2.26732	0	
1.7893	1.58184	-2.58369	0	
1.7900	2.17503	-2.90006	0	
1.7907	5.27279	-3.21644	0	
1.7913	7.71146	-2.58369	0	
1.7920	7.71146	-1.68731	0	
1.7927	5.53643	-1.68731	0	
1.7933	3.69095	-2.58369	0	
1.7940	3.69095	-3.53281	0	
1.7947	5.27279	-5.0092	0	
1.7953	3.69095	-5.32557	0	
1.7960	-3.62504	-4.42919	0	
1.7967	-11.2047	-3.53281	0	
1.7973	-13.6433	-2.58369	0	
1.7980	-9.09556	-3.53281	0	
1.7987	0.988648	-4.11282	0	
1.7993	13.5115	-2.26732	0	
1.8000	31.1754	-0.738198	0	
1.8007	56.8143	-1.37094	0	
1.8013	83.0465	-2.58369	0	
1.8020	95.5693	-3.53281	0	
1.8027	80.3441	-4.11282	0	
1.8033	34.2072	-4.42919	0	
1.8040	-21.8821	-3.53281	0	
1.8047	-63.4053	-4.11282	0	
1.8053	-87.8579	-5.0092	0	
1.8060	-96.6898	-3.53281	0	
1.8067	-84.7601	-2.00368	0	
1.8073	-62.2189	-2.26732	0	
1.8080	-47.521	-2.26732	0	
1.8087	-39.2823	-2.58369	0	
1.8093	-30.1208	-4.11282	0	
1.8100	-21.2889	-5.0092	0	
1.8107	-19.4434	-4.74556	0	
1.8113	-20.3662	-4.42919	0	
1.8120	-17.0048	-4.11282	0	
1.8127	-12.1274	-2.90006	0	
1.8133	-11.5342	-1.05457	0	
1.8140	-12.457	1.37094	0	
1.8147	-8.17283	2.00368	0	
1.8153	-1.18638	0.158185	0	
1.8160	2.83413	-1.68731	0	
1.8167	2.50458	-1.68731	0	
1.8173	4.61369	-0.474556	0	
1.8180	9.49102	0.158185	0	
1.8187	12.2592	-0.738198	0	
1.8193	12.5888	0.158185	0	
1.8200	12.8524	2.26732	0	
1.8207	12.8524	3.53281	0	
1.8213	11.0729	3.79645	0	
1.8220	10.4138	3.21644	0	
1.8227	11.666	2.00368	0	
1.8233	14.6979	2.90006	0	
1.8240	18.3889	2.90006	0	
1.8247	18.3889	0.158185	0	
1.8253	15.9502	-0.738198	0	
1.8260	13.182	0.158185	0	
1.8267	6.19553	1.37094	0	
1.8273	-3.88868	2.90006	0	
1.8280	-4.21823	2.00368	0	
1.8287	4.61369	0.738198	0	
1.8293	9.82057	5.06193	0	
1.8300	12.8524	7.17107	0	
1.8307	18.3889	1.68731	0	
1.8313	19.3116	-0.158185	0	
1.8320	11.666	2.90006	0	
1.8327	3.69095	1.37094	0	
1.8333	-10.6115	0.474556	0	
1.8340	-32.889	2.90006	0	
1.8347	-43.3028	2.58369	0	
1.8353	-37.5027	2.00368	0	
1.8360	-32.2958	3.21644	0	
1.8367	-29.264	0.474556	0	
1.8373	-19.1798	-2.58369	0	
1.8380	-8.17283	-1.05457	0	
1.8387	-1.77957	-1.05457	0	
1.8393	9.22738	-3.21644	0	
1.8400	27.5503	-2.00368	0	
1.8407	39.1505	0.158185	0	
1.8413	38.4914	-0.738198	0	
1.8420	32.0981	-2.58369	0	
1.8427	21.0912	-1.68731	0	
1.8433	3.42731	0.738198	0	
1.8440	-15.8184	-0.738198	0	
1.8447	-26.4958	-3.53281	0	
1.8453	-18.8502	-2.90006	0	
1.8460	6.19553	-0.738198	0	
1.8467	27.5503	-0.738198	0	
1.8473	30.2526	-0.474556	0	
1.8480	20.498	0.158185	0	
1.8487	4.61369	-0.158185	0	
1.8493	-12.457	-0.738198	0	
1.8500	-24.9798	-1.68731	0	
1.8507	-33.8118	-1.05457	0	
1.8513	-37.5027	1.68731	0	
1.8520	-29.5276	0.158185	0	
1.8527	-17.6638	-3.53281	0	
1.8533	-11.8638	-1.68731	0	
1.8540	-7.25009	1.05457	0	
1.8547	-1.45002	-2.00368	0	
1.8553	-0.26364	-3.21644	0	
1.8560	-0.527279	-1.05457	0	
1.8567	1.25229	-2.90006	0	
1.8573	1.58184	-4.74556	0	
1.8580	1.58184	-2.26732	0	
1.8587	3.42731	-1.37094	0	
1.8593	4.61369	-2.00368	0	
1.8600	5.53643	1.05457	0	
1.8607	7.05236	4.74556	0	
1.8613	5.86598	2.90006	0	
1.8620	3.42731	-0.474556	0	
1.8627	2.83413	1.05457	0	
1.8633	3.69095	5.32557	0	
1.8640	3.69095	5.95831	0	
1.8647	3.09776	3.53281	0	
1.8653	6.45917	1.05457	0	
1.8660	10.1501	-0.738198	0	
1.8667	7.38191	-1.68731	0	
1.8673	5.27279	0.158185	0	
1.8680	9.22738	2.00368	0	
1.8687	10.1501	1.05457	0	
1.8693	6.78872	-0.474556	0	
1.8700	10.7433	0.158185	0	
1.8707	15.6206	-0.738198	0	
1.8713	12.2592	-3.53281	0	
1.8720	11.0729	-4.11282	0	
1.8727	15.2911	-2.00368	0	
1.8733	15.9502	-2.00368	0	
1.8740	12.8524	-2.58369	0	
1.8747	7.05236	0.158185	0	
1.8753	-4.54778	2.00368	0	
1.8760	-12.7865	2.00368	0	
1.8767	-12.7865	2.90006	0	
1.8773	-12.7865	3.53281	0	
1.8780	-10.6115	2.00368	0	
1.8787	-0.856829	1.37094	0	
1.8793	7.38191	1.05457	0	
1.8800	11.666	0.158185	0	
1.8807	17.1366	0.738198	0	
1.8813	18.982	1.68731	0	
1.8820	14.6979	1.68731	0	
1.8827	10.4138	3.79645	0	
1.8833	-1.18638	5.64194	0	
1.8840	-21.0253	2.90006	0	
1.8847	-30.1208	0.158185	0	
1.8853	-26.4958	-1.68731	0	
1.8860	-26.1662	-3.53281	0	
1.8867	-23.4639	-1.68731	0	
1.8873	-10.941	-0.738198	0	
1.8880	-3.62504	-3.53281	0	
1.8887	-7.25009	-2.58369	0	
1.8893	-10.3479	0.738198	0	
1.8900	-10.0183	-1.37094	0	
1.8907	-9.09556	-3.21644	0	
1.8913	-3.88868	0.474556	0	
1.8920	3.09776	2.26732	0	
1.8927	4.0205	0.158185	0	
1.8933	1.91139	-0.738198	0	
1.8940	3.69095	-0.738198	0	
1.8947	9.49102	-0.158185	0	
1.8953	15.0275	1.05457	0	
1.8960	21.7503	0.158185	0	
1.8967	28.7367	-1.68731	0	
1.8973	25.9685	-1.68731	0	
1.8980	8.30465	-0.738198	0	
1.8987	-10.0183	1.05457	0	
1.8993	-15.2252	2.90006	0	
1.9000	-17.3343	2.00368	0	
1.9007	-29.8572	0.158185	0	
1.9013	-40.205	-0.474556	0	
1.9020	-36.2504	-2.26732	0	
1.9027	-28.3413	-3.21644	0	
1.9033	-26.8253	-1.68731	0	
1.9040	-19.4434	-1.05457	0	
1.9047	-6.32735	-0.738198	0	
1.9053	-0.26364	-1.37094	0	
1.9060	7.71146	-3.53281	0	
1.9067	25.7049	-2.58369	0	
1.9073	35.7891	-1.05457	0	
1.9080	31.1754	-3.21644	0	
1.9087	22.9366	-3.79645	0	
1.9093	13.5115	-1.37094	0	
1.9100	-1.45002	-0.738198	0	
1.9107	-21.0253	-1.37094	0	
1.9113	-36.2504	-1.68731	0	
1.9120	-33.8118	-4.74556	0	
1.9127	-18.8502	-5.0092	0	
1.9133	-11.8638	-1.68731	0	
1.9140	-10.941	-4.11282	0	
1.9147	-4.54778	-9.01656	0	
1.9153	-1.45002	-7.48744	0	
1.9160	-4.54778	-5.0092	0	
1.9167	-5.14097	-5.32557	0	
1.9173	-4.81142	-5.32557	0	
1.9180	-4.81142	-5.32557	0	
1.9187	0.0659099	-6.27469	0	
1.9193	4.94324	-6.27469	0	
1.9200	5.53643	-6.27469	0	
1.9207	11.0729	-5.64194	0	
1.9213	23.8594	-5.32557	0	
1.9220	35.13	-6.27469	0	
1.9227	41.2596	-5.0092	0	
1.9233	48.9051	-2.26732	0	
1.9240	52.8597	-3.21644	0	
1.9247	38.2277	-3.79645	0	
1.9253	11.0729	-1.37094	0	
1.9260	-10.3479	-1.68731	0	
1.9267	-22.2116	-3.21644	0	
1.9273	-28.0117	0.738198	0	
1.9280	-25.2435	3.53281	0	
1.9287	-18.257	2.26732	0	
1.9293	-14.3024	3.21644	0	
1.9300	-13.0502	2.26732	0	
1.9307	-15.8184	-2.58369	0	
1.9313	-21.6184	-1.68731	0	
1.9320	-24.9798	2.58369	0	
1.9327	-25.573	1.05457	0	
1.9333	-23.7276	-1.68731	0	
1.9340	-17.6638	-1.37094	0	
1.9347	-10.941	-2.00368	0	
1.9353	-7.25009	-1.68731	0	
1.9360	-3.88868	1.05457	0	
1.9367	-0.26364	0.738198	0	
1.9373	1.91139	0.158185	0	
1.9380	5.27279	2.00368	0	
1.9387	9.22738	0.738198	0	
1.9393	8.30465	-0.738198	0	
1.9400	1.58184	2.00368	0	
1.9407	-3.62504	3.21644	0	
1.9413	-2.37276	1.05457	0	
1.9420	4.61369	0.474556	0	
1.9427	12.5888	2.00368	0	
1.9433	18.3889	2.00368	0	
1.9440	24.7821	2.90006	0	
1.9447	32.6913	5.64194	0	
1.9453	39.7437	6.8547	0	
1.9460	41.5891	6.27469	0	
1.9467	33.3504	5.95831	0	
1.9473	19.9048	6.53833	0	
1.9480	11.3365	4.74556	0	
1.9487	0.659099	3.53281	0	
1.9493	-23.7276	5.64194	0	
1.9500	-42.6437	5.64194	0	
1.9507	-38.3596	2.00368	0	
1.9513	-24.9798	1.37094	0	
1.9520	-16.082	2.90006	0	
1.9527	-10.3479	1.68731	0	
1.9533	-8.17283	0.474556	0	
1.9540	-7.25009	2.58369	0	
1.9547	-4.54778	3.21644	0	
1.9553	-2.96594	2.58369	0	
1.9560	-0.856829	3.21644	0	
1.9567	5.27279	4.42919	0	
1.9573	12.8524	2.90006	0	
1.9580	22.9366	0.158185	0	
1.9587	33.0209	0.158185	0	
1.9593	33.3504	2.90006	0	
1.9600	26.6276	3.79645	0	
1.9607	23.2662	3.79645	0	
1.9613	16.5434	3.79645	0	
1.9620	0.0659099	3.53281	0	
1.9627	-18.5866	5.06193	0	
1.9633	-33.2186	6.53833	0	
1.9640	-40.5346	2.00368	0	
1.9647	-37.5027	-2.58369	0	
1.9653	-29.264	0.158185	0	
1.9660	-25.2435	4.11282	0	
1.9667	-20.1025	2.26732	0	
1.9673	-7.25009	0.738198	0	
1.9680	4.61369	1.05457	0	
1.9687	7.05236	-0.474556	0	
1.9693	6.45917	-0.738198	0	
1.9700	8.30465	-1.37094	0	
1.9707	10.4138	-3.53281	0	
1.9713	12.2592	-3.21644	0	
1.9720	11.3365	-1.68731	0	
1.9727	4.0205	-2.90006	0	
1.9733	-2.70231	-3.21644	0	
1.9740	-0.26364	-1.37094	0	
1.9747	4.61369	-2.00368	0	
1.9753	-0.26364	-2.00368	0	
1.9760	-11.2047	2.00368	0	
1.9767	-18.257	3.21644	0	
1.9773	-19.773	-0.158185	0	
1.9780	-18.257	-1.68731	0	
1.9787	-14.3024	-2.00368	0	
1.9793	-9.09556	-4.11282	0	
1.9800	-3.88868	-3.21644	0	
1.9807	0.0659099	1.05457	0	
1.9813	1.58184	1.05457	0	
1.9820	2.50458	-1.37094	0	
1.9827	6.19553	-1.37094	0	
1.9833	9.22738	-1.68731	0	
1.9840	8.89783	-2.58369	0	
1.9847	7.38191	-0.738198	0	
1.9853	7.38191	-0.158185	0	
1.9860	6.19553	-3.21644	0	
1.9867	3.42731	-2.58369	0	
1.9873	3.69095	0.158185	0	
1.9880	5.86598	1.05457	0	
1.9887	5.27279	-0.738198	0	
1.9893	3.69095	-4.11282	0	
1.9900	5.86598	-6.27469	0	
1.9907	10.4138	-4.42919	0	
1.9913	15.9502	-2.58369	0	
1.9920	19.3116	-3.53281	0	
1.9927	15.6206	-3.21644	0	
1.9933	7.71146	-2.26732	0	
1.9940	5.27279	-1.68731	0	
1.9947	7.9751	-0.158185	0	
1.9953	11.0729	0.158185	0	
1.9960	13.7752	0.158185	0	
1.9967	11.9297	0.474556	0	
1.9973	0.988648	0.158185	0	
1.9980	-7.25009	0.474556	0	
1.9987	-0.856829	3.53281	0	
1.9993	6.45917	4.74556	0	
2.0000	2.83413	2.90006	0	
2.0007	0.0659099	2.26732	0	
2.0013	-2.37276	2.26732	0	
2.0020	-20.3662	1.05457	0	
2.0027	-39.2823	1.37094	0	
2.0033	-38.3596	2.00368	0	
2.0040	-31.9663	1.05457	0	
2.0047	-33.8118	2.00368	0	
2.0053	-31.9663	2.90006	0	
2.0060	-22.8048	2.58369	0	
2.0067	-14.3024	1.68731	0	
2.0073	-2.96594	-0.474556	0	
2.0080	13.7752	-2.58369	0	
2.0087	28.4731	-2.58369	0	
2.0093	33.614	-2.26732	0	
2.0100	27.5503	-2.58369	0	
2.0107	12.8524	-1.05457	0	
2.0113	-7.25009	-0.738198	0	
2.0120	-31.0436	-1.37094	0	
2.0127	-46.9278	-0.158185	0	
2.0133	-42.0505	-0.738198	0	
2.0140	-26.8253	-4.74556	0	
2.0147	-15.4888	-5.32557	0	
2.0153	-6.6569	-2.26732	0	
2.0160	-0.856829	-2.58369	0	
2.0167	-2.70231	-2.26732	0	
2.0173	-4.54778	2.00368	0	
2.0180	-2.70231	3.21644	0	
2.0187	-3.88868	2.90006	0	
2.0193	-3.88868	3.79645	0	
2.0200	0.0659099	2.58369	0	
2.0207	2.83413	0.474556	0	
2.0213	4.61369	2.00368	0	
2.0220	4.0205	2.26732	0	
2.0227	-0.856829	1.05457	0	
2.0233	0.0659099	0.474556	0	
2.0240	9.82057	-0.158185	0	
2.0247	15.0275	-2.00368	0	
2.0253	14.1047	-2.00368	0	
2.0260	14.4343	-0.474556	0	
2.0267	15.9502	-1.05457	0	
2.0273	16.5434	-2.58369	0	
2.0280	12.8524	-2.00368	0	
2.0287	5.27279	-1.37094	0	
2.0293	0.659099	-1.37094	0	
2.0300	-2.96594	-0.738198	0	
2.0307	-7.84328	0.738198	0	
2.0313	-7.25009	0.474556	0	
2.0320	-2.96594	-0.474556	0	
2.0327	-0.856829	-0.158185	0	
2.0333	2.17503	1.05457	0	
2.0340	6.45917	1.05457	0	
2.0347	4.94324	1.68731	0	
2.0353	1.58184	3.53281	0	
2.0360	3.42731	3.21644	0	
2.0367	5.53643	0.738198	0	
2.0373	4.94324	0.738198	0	
2.0380	7.05236	2.26732	0	
2.0387	14.6979	0.158185	0	
2.0393	21.7503	-2.26732	0	
2.0400	21.0912	-0.158185	0	
2.0407	14.6979	2.58369	0	
2.0413	10.7433	1.05457	0	
2.0420	8.30465	-1.37094	0	
2.0427	1.25229	0.158185	0	
2.0433	0.0659099	1.68731	0	
2.0440	8.89783	-0.158185	0	
2.0447	8.89783	-0.738198	0	
2.0453	-6.06371	2.00368	0	
2.0460	-13.6433	2.00368	0	
2.0467	-11.2047	-0.474556	0	
2.0473	-15.4888	0.158185	0	
2.0480	-19.1798	1.68731	0	
2.0487	-12.1274	0.158185	0	
2.0493	-4.54778	-0.474556	0	
2.0500	-2.10912	0.158185	0	
2.0507	-1.45002	0.158185	0	
2.0513	-3.29549	0.158185	0	
2.0520	-7.57964	0.474556	0	
2.0527	-14.8956	1.05457	0	
2.0533	-23.1344	1.05457	0	
2.0540	-22.8048	0.158185	0	
2.0547	-14.5661	1.05457	0	
2.0553	-10.0183	2.58369	0	
2.0560	-9.42511	-0.738198	0	
2.0567	-8.76601	-2.26732	0	
2.0573	-8.76601	1.68731	0	
2.0580	-6.32735	2.00368	0	
2.0587	0.659099	-0.158185	0	
2.0593	7.38191	2.90006	0	
2.0600	7.71146	3.79645	0	
2.0607	6.45917	-0.158185	0	
2.0613	10.1501	0.474556	0	
2.0620	15.6206	3.79645	0	
2.0627	18.982	2.90006	0	
2.0633	22.0139	2.00368	0	
2.0640	22.0139	3.79645	0	
2.0647	13.7752	2.26732	0	
2.0653	4.35005	-1.05457	0	
2.0660	-1.45002	-1.68731	0	
2.0667	-5.40461	0.158185	0	
2.0673	-3.62504	1.05457	0	
2.0680	6.78872	-0.474556	0	
2.0687	19.5752	-0.738198	0	
2.0693	28.7367	-0.158185	0	
2.0700	28.1435	-0.738198	0	
2.0707	19.3116	0.158185	0	
2.0713	11.0729	2.58369	0	
2.0720	-0.527279	1.05457	0	
2.0727	-21.8821	-1.37094	0	
2.0733	-34.405	0.158185	0	
2.0740	-26.4958	1.37094	0	
2.0747	-16.082	1.05457	0	
2.0753	-10.941	1.37094	0	
2.0760	-5.14097	-0.474556	0	
2.0767	-2.70231	-2.58369	0	
2.0773	-6.32735	-2.58369	0	
2.0780	-4.21823	-4.11282	0	
2.0787	4.61369	-5.64194	0	
2.0793	8.30465	-3.53281	0	
2.0800	7.05236	-2.58369	0	
2.0807	7.71146	-4.11282	0	
2.0813	9.22738	-2.58369	0	
2.0820	7.9751	-0.738198	0	
2.0827	3.69095	-2.58369	0	
2.0833	-2.70231	-3.21644	0	
2.0840	-8.17283	-1.68731	0	
2.0847	-12.457	-1.37094	0	
2.0853	-17.3343	-2.26732	0	
2.0860	-21.2889	-2.58369	0	
2.0867	-17.3343	-1.37094	0	
2.0873	-6.06371	-0.474556	0	
2.0880	5.86598	-0.738198	0	
2.0887	20.2343	-1.68731	0	
2.0893	35.7891	-2.26732	0	
2.0900	44.0278	-2.00368	0	
2.0907	41.5891	-1.68731	0	
2.0913	36.7118	-0.474556	0	
2.0920	23.5298	-0.738198	0	
2.0927	-8.17283	-1.05457	0	
2.0933	-39.0187	-0.738198	0	
2.0940	-43.5664	-0.738198	0	
2.0947	-35.6572	-2.00368	0	
2.0953	-34.405	-1.05457	0	
2.0960	-31.7027	0.158185	0	
2.0967	-22.8048	-0.738198	0	
2.0973	-18.8502	-2.00368	0	
2.0980	-16.4116	-3.79645	0	
2.0987	-6.98645	-4.11282	0	
2.0993	4.0205	-0.474556	0	
2.1000	9.22738	0.738198	0	
2.1007	9.22738	-1.68731	0	
2.1013	8.30465	1.68731	0	
2.1020	7.38191	6.53833	0	
2.1027	5.53643	3.53281	0	
2.1033	4.61369	-0.474556	0	
2.1040	0.988648	1.05457	0	
2.1047	-2.70231	2.58369	0	
2.1053	-3.62504	3.21644	0	
2.1060	-8.17283	2.90006	0	
2.1067	-18.5866	-0.158185	0	
2.1073	-21.2889	0.474556	0	
2.1080	-12.7865	3.79645	0	
2.1087	-6.06371	2.90006	0	
2.1093	-2.70231	0.738198	0	
2.1100	3.09776	-0.474556	0	
2.1107	7.38191	-1.05457	0	
2.1113	10.1501	0.158185	0	
2.1120	14.4343	0.474556	0	
2.1127	16.5434	-1.37094	0	
2.1133	14.1047	0.474556	0	
2.1140	10.1501	2.00368	0	
2.1147	3.69095	-1.68731	0	
2.1153	-4.54778	-1.68731	0	
2.1160	-7.84328	1.37094	0	
2.1167	-2.37276	-1.68731	0	
2.1173	9.22738	-3.79645	0	
2.1180	22.9366	-0.738198	0	
2.1187	33.0209	-1.05457	0	
2.1193	34.8663	-3.21644	0	
2.1200	29.6594	-0.738198	0	
2.1207	20.8275	1.37094	0	
2.1213	3.69095	0.158185	0	
2.1220	-20.1025	-2.26732	0	
2.1227	-35.6572	-3.53281	0	
2.1233	-33.2186	-3.53281	0	
2.1240	-20.1025	-3.21644	0	
2.1247	-3.29549	-1.68731	0	
2.1253	11.9297	0.158185	0	
2.1260	21.7503	-2.58369	0	
2.1267	25.1117	-6.27469	0	
2.1273	18.3889	-5.32557	0	
2.1280	1.58184	-4.11282	0	
2.1287	-10.6115	-5.32557	0	
2.1293	-9.09556	-3.53281	0	
2.1300	-2.70231	-0.474556	0	
2.1307	8.30465	-1.68731	0	
2.1313	25.1117	-4.42919	0	
2.1320	32.0981	-4.42919	0	
2.1327	18.6525	-1.68731	0	
2.1333	3.69095	-0.158185	0	
2.1340	-4.54778	-0.738198	0	
2.1347	-21.2889	-1.37094	0	
2.1353	-49.1029	-2.00368	0	
2.1360	-61.5598	-3.53281	0	
2.1367	-47.8506	-4.42919	0	
2.1373	-26.8253	-4.74556	0	
2.1380	-12.457	-4.11282	0	
2.1387	-5.14097	-2.58369	0	
2.1393	-6.06371	-1.68731	0	
2.1400	-12.1274	-2.00368	0	
2.1407	-12.7865	-1.68731	0	
2.1413	-4.54778	-1.68731	0	
2.1420	4.94324	-1.68731	0	
2.1427	10.1501	-1.68731	0	
2.1433	12.8524	-2.26732	0	
2.1440	15.2911	-3.21644	0	
2.1447	15.2911	-1.68731	0	
2.1453	15.2911	0.158185	0	
2.1460	17.1366	0.158185	0	
2.1467	15.9502	1.05457	0	
2.1473	10.1501	0.474556	0	
2.1480	4.61369	-1.37094	0	
2.1487	-2.70231	-0.738198	0	
2.1493	-12.1274	1.05457	0	
2.1500	-13.0502	-0.158185	0	
2.1507	-6.32735	-3.53281	0	
2.1513	-4.21823	-4.42919	0	
2.1520	-5.73416	-2.58369	0	
2.1527	-5.73416	-0.738198	0	
2.1533	-7.25009	2.00368	0	
2.1540	-10.941	3.79645	0	
2.1547	-9.68875	2.00368	0	
2.1553	2.50458	-0.158185	0	
2.1560	20.8275	0.158185	0	
2.1567	31.5049	2.00368	0	
2.1573	29.0663	3.21644	0	
2.1580	18.6525	3.79645	0	
2.1587	4.61369	2.90006	0	
2.1593	-14.5661	1.37094	0	
2.1600	-36.8436	1.68731	0	
2.1607	-46.0051	3.53281	0	
2.1613	-32.889	2.90006	0	
2.1620	-12.457	0.158185	0	
2.1627	-0.527279	0.474556	0	
2.1633	7.9751	1.37094	0	
2.1640	17.4661	0.738198	0	
2.1647	25.9685	1.37094	0	
2.1653	29.989	3.21644	0	
2.1660	19.9048	2.90006	0	
2.1667	-2.37276	2.26732	0	
2.1673	-15.2252	1.05457	0	
2.1680	-15.8184	-1.37094	0	
2.1687	-19.1798	-0.738198	0	
2.1693	-20.3662	2.58369	0	
2.1700	-11.2047	3.53281	0	
2.1707	-3.88868	2.58369	0	
2.1713	-2.70231	2.00368	0	
2.1720	0.395459	0.158185	0	
2.1727	4.35005	-1.05457	0	
2.1733	4.0205	-1.68731	0	
2.1740	2.17503	-3.53281	0	
2.1747	1.91139	-4.42919	0	
2.1753	2.17503	-1.68731	0	
2.1760	0.395459	0.738198	0	
2.1767	-2.10912	-0.474556	0	
2.1773	0.0659099	-0.738198	0	
2.1780	6.45917	0.738198	0	
2.1787	11.666	2.00368	0	
2.1793	18.3889	1.68731	0	
2.1800	29.989	-1.68731	0	
2.1807	42.5119	-6.27469	0	
2.1813	46.1369	-5.32557	0	
2.1820	36.0527	-0.158185	0	
2.1827	20.2343	2.90006	0	
2.1833	11.0729	2.90006	0	
2.1840	3.42731	0.474556	0	
2.1847	-13.3797	-1.68731	0	
2.1853	-28.9344	-0.738198	0	
2.1860	-28.0117	-0.474556	0	
2.1867	-17.6638	-2.00368	0	
2.1873	-10.6115	-1.68731	0	
2.1880	-6.98645	-0.158185	0	
2.1887	-2.96594	-1.68731	0	
2.1893	1.91139	-4.74556	0	
2.1900	7.71146	-4.42919	0	
2.1907	12.8524	-1.68731	0	
2.1913	15.2911	-2.58369	0	
2.1920	14.6979	-5.32557	0	
2.1927	13.182	-5.32557	0	
2.1933	11.9297	-3.53281	0	
2.1940	4.94324	-1.68731	0	
2.1947	-6.6569	0.474556	0	
2.1953	-12.7865	2.00368	0	
2.1960	-17.3343	1.05457	0	
2.1967	-29.8572	1.05457	0	
2.1973	-35.6572	-0.738198	0	
2.1980	-25.573	-3.53281	0	
2.1987	-16.4116	-1.68731	0	
2.1993	-12.7865	0.474556	0	
2.2000	-2.96594	-2.58369	0	
2.2007	6.78872	-2.90006	0	
2.2013	7.38191	-0.738198	0	
2.2020	6.45917	-3.53281	0	
2.2027	7.9751	-5.64194	0	
2.2033	7.38191	-4.11282	0	
2.2040	2.83413	-4.74556	0	
2.2047	-4.54778	-2.90006	0	
2.2053	-10.0183	2.58369	0	
2.2060	-4.21823	2.00368	0	
2.2067	11.0729	-1.68731	0	
2.2073	23.8594	-0.474556	0	
2.2080	26.6276	2.00368	0	
2.2087	14.4343	1.05457	0	
2.2093	-9.09556	-0.158185	0	
2.2100	-25.573	-1.05457	0	
2.2107	-26.1662	-0.158185	0	
2.2113	-21.8821	1.37094	0	
2.2120	-16.082	0.474556	0	
2.2127	-0.856829	0.158185	0	
2.2133	14.4343	1.37094	0	
2.2140	15.0275	1.05457	0	
2.2147	7.9751	0.158185	0	
2.2153	2.83413	-1.05457	0	
2.2160	-8.17283	-3.21644	0	
2.2167	-25.573	-4.11282	0	
2.2173	-33.2186	-4.11282	0	
2.2180	-24.3867	-4.74556	0	
2.2187	-10.6115	-4.11282	0	
2.2193	-3.62504	-2.90006	0	
2.2200	-2.96594	-3.53281	0	
2.2207	-2.10912	-2.58369	0	
2.2213	0.0659099	-0.158185	0	
2.2220	1.25229	-1.05457	0	
2.2227	0.395459	-3.53281	0	
2.2233	-3.62504	-0.738198	0	
2.2240	-6.06371	2.26732	0	
2.2247	-3.62504	0.738198	0	
2.2253	-0.856829	-0.738198	0	
2.2260	2.83413	0.738198	0	
2.2267	11.666	-0.474556	0	
2.2273	22.9366	-1.68731	0	
2.2280	28.4731	0.738198	0	
2.2287	26.298	1.37094	0	
2.2293	15.2911	-0.474556	0	
2.2300	4.0205	1.68731	0	
2.2307	0.659099	4.42919	0	
2.2313	-4.21823	2.26732	0	
2.2320	-14.8956	0.738198	0	
2.2327	-19.1798	1.68731	0	
2.2333	-14.5661	0.474556	0	
2.2340	-11.8638	-1.37094	0	
2.2347	-9.09556	-0.474556	0	
2.2353	-4.21823	0.158185	0	
2.2360	-3.62504	-0.158185	0	
2.2367	-6.32735	0.474556	0	
2.2373	-7.84328	2.00368	0	
2.2380	-7.25009	1.37094	0	
2.2387	-3.62504	1.37094	0	
2.2393	2.50458	2.26732	0	
2.2400	5.53643	2.90006	0	
2.2407	5.53643	4.11282	0	
2.2413	5.86598	4.11282	0	
2.2420	6.45917	0.474556	0	
2.2427	5.86598	-0.738198	0	
2.2433	5.53643	1.68731	0	
2.2440	4.0205	1.68731	0	
2.2447	-3.62504	-0.474556	0	
2.2453	-13.9729	-0.738198	0	
2.2460	-13.9729	0.158185	0	
2.2467	0.395459	-0.158185	0	
2.2473	13.182	-0.738198	0	
2.2480	13.7752	0.158185	0	
2.2487	8.89783	0.738198	0	
2.2493	7.38191	0.158185	0	
2.2500	9.82057	-0.158185	0	
2.2507	10.1501	1.37094	0	
2.2513	5.27279	1.05457	0	
2.2520	-2.70231	0.738198	0	
2.2527	-6.6569	3.53281	0	
2.2533	-5.73416	3.79645	0	
2.2540	-4.21823	0.158185	0	
2.2547	-8.17283	-0.158185	0	
2.2553	-20.6957	2.26732	0	
2.2560	-36.58	1.37094	0	
2.2567	-42.0505	-0.474556	0	
2.2573	-38.6891	-0.738198	0	
2.2580	-35.0641	1.05457	0	
2.2587	-29.264	3.53281	0	
2.2593	-17.6638	2.58369	0	
2.2600	-7.25009	1.05457	0	
2.2607	0.395459	3.21644	0	
2.2613	6.19553	3.53281	0	
2.2620	3.69095	0.738198	0	
2.2627	-3.88868	1.68731	0	
2.2633	-4.21823	1.68731	0	
2.2640	1.91139	-2.58369	0	
2.2647	5.27279	-2.00368	0	
2.2653	9.49102	1.05457	0	
2.2660	23.5298	-1.68731	0	
2.2667	46.1369	-5.32557	0	
2.2673	64.1303	-2.00368	0	
2.2680	64.1303	2.26732	0	
2.2687	47.9824	2.90006	0	
2.2693	26.6276	2.00368	0	
2.2700	1.58184	2.58369	0	
2.2707	-25.9026	4.74556	0	
2.2713	-46.6642	7.48744	0	
2.2720	-52.7279	7.48744	0	
2.2727	-41.4573	3.79645	0	
2.2733	-23.4639	1.05457	0	
2.2740	-12.457	1.68731	0	
2.2747	-10.0183	1.68731	0	
2.2753	-8.76601	0.474556	0	
2.2760	-8.50238	1.05457	0	
2.2767	-10.0183	1.37094	0	
2.2773	-7.25009	-0.158185	0	
2.2780	-0.26364	0.158185	0	
2.2787	1.91139	1.68731	0	
2.2793	0.395459	2.00368	0	
2.2800	3.69095	2.00368	0	
2.2807	9.49102	1.68731	0	
2.2813	13.7752	2.90006	0	
2.2820	15.6206	5.64194	0	
2.2827	12.8524	2.90006	0	
2.2833	6.45917	-3.21644	0	
2.2840	6.19553	-3.21644	0	
2.2847	10.1501	-1.05457	0	
2.2853	11.3365	-3.79645	0	
2.2860	13.182	-6.27469	0	
2.2867	12.2592	-5.64194	0	
2.2873	2.83413	-6.27469	0	
2.2880	-3.88868	-5.32557	0	
2.2887	-1.77957	-2.90006	0	
2.2893	0.988648	-3.53281	0	
2.2900	4.94324	-3.53281	0	
2.2907	12.8524	-0.738198	0	
2.2913	19.5752	1.05457	0	
2.2920	29.0663	1.05457	0	
2.2927	43.3687	1.05457	0	
2.2933	47.3892	-0.738198	0	
2.2940	32.6913	-1.68731	0	
2.2947	12.2592	-2.00368	0	
2.2953	-0.856829	-1.68731	0	
2.2960	-4.54778	-1.05457	0	
2.2967	-3.88868	-3.21644	0	
2.2973	-5.40461	-5.0092	0	
2.2980	-6.32735	-1.68731	0	
2.2987	-6.32735	0.158185	0	
2.2993	-10.0183	-2.26732	0	
2.3000	-16.4116	-2.58369	0	
2.3007	-17.3343	-0.158185	0	
2.3013	-15.4888	-0.158185	0	
2.3020	-17.9275	-0.738198	0	
2.3027	-21.2889	-2.00368	0	
2.3033	-18.257	-5.64194	0	
2.3040	-11.2047	-6.27469	0	
2.3047	-6.98645	-2.58369	0	
2.3053	-4.54778	0.158185	0	
2.3060	-1.77957	-0.158185	0	
2.3067	0.659099	-1.37094	0	
2.3073	2.50458	-2.26732	0	
2.3080	0.988648	-2.90006	0	
2.3087	-0.527279	-3.79645	0	
2.3093	4.61369	-4.74556	0	
2.3100	9.82057	-4.42919	0	
2.3107	5.86598	-4.11282	0	
2.3113	0.659099	-5.32557	0	
2.3120	0.0659099	-6.53833	0	
2.3127	-2.70231	-6.27469	0	
2.3133	-10.3479	-4.42919	0	
2.3140	-16.7411	-6.27469	0	
2.3147	-14.8956	-8.70019	0	
2.3153	-6.6569	-6.27469	0	
2.3160	-1.45002	-3.21644	0	
2.3167	0.0659099	-4.42919	0	
2.3173	2.83413	-5.95831	0	
2.3180	1.58184	-5.32557	0	
2.3187	-4.54778	-4.42919	0	
2.3193	-6.6569	-2.90006	0	
2.3200	-5.40461	-2.90006	0	
2.3207	-3.62504	-5.0092	0	
2.3213	3.42731	-3.79645	0	
2.3220	14.6979	-0.738198	0	
2.3227	28.7367	-0.738198	0	
2.3233	45.5437	-1.37094	0	
2.3240	51.937	-1.68731	0	
2.3247	42.1823	-4.42919	0	
2.3253	28.7367	-4.42919	0	
2.3260	12.2592	-0.738198	0	
2.3267	-16.4116	1.05457	0	
2.3273	-45.4119	0.738198	0	
2.3280	-56.4189	1.68731	0	
2.3287	-47.521	1.37094	0	
2.3293	-30.4504	-0.158185	0	
2.3300	-21.0253	0.158185	0	
2.3307	-19.4434	0.738198	0	
2.3313	-16.7411	0.158185	0	
2.3320	-12.7865	0.158185	0	
2.3327	-10.941	-0.474556	0	
2.3333	-7.57964	-0.738198	0	
2.3340	-2.10912	-0.158185	0	
2.3347	4.61369	-0.738198	0	
2.3353	15.2911	0.158185	0	
2.3360	25.9685	2.90006	0	
2.3367	23.8594	2.26732	0	
2.3373	4.61369	0.474556	0	
2.3380	-17.3343	2.58369	0	
2.3387	-25.573	4.11282	0	
2.3393	-22.5412	3.21644	0	
2.3400	-20.3662	4.74556	0	
2.3407	-15.4888	6.8547	0	
2.3413	-6.32735	6.53833	0	
2.3420	-2.70231	6.8547	0	
2.3427	-1.18638	5.64194	0	
2.3433	4.94324	3.21644	0	
2.3440	9.22738	5.06193	0	
2.3447	6.78872	7.48744	0	
2.3453	4.61369	4.74556	0	
2.3460	7.71146	2.90006	0	
2.3467	14.1047	5.32557	0	
2.3473	20.2343	7.48744	0	
2.3480	22.673	6.27469	0	
2.3487	22.673	2.90006	0	
2.3493	18.3889	1.37094	0	
2.3500	8.89783	3.53281	0	
2.3507	3.69095	4.74556	0	
2.3513	7.38191	3.53281	0	
2.3520	11.0729	4.74556	0	
2.3527	7.9751	6.8547	0	
2.3533	-0.856829	5.32557	0	
2.3540	-11.8638	4.42919	0	
2.3547	-17.9275	5.95831	0	
2.3553	-18.257	4.74556	0	
2.3560	-19.1798	2.90006	0	
2.3567	-22.8048	4.11282	0	
2.3573	-24.6503	5.64194	0	
2.3580	-20.1025	5.06193	0	
2.3587	-11.8638	4.11282	0	
2.3593	-6.98645	2.90006	0	
2.3600	-5.14097	1.05457	0	
2.3607	-0.26364	0.474556	0	
2.3613	4.0205	2.00368	0	
2.3620	5.53643	2.90006	0	
2.3627	7.9751	1.37094	0	
2.3633	9.49102	0.158185	0	
2.3640	7.71146	2.00368	0	
2.3647	5.53643	3.79645	0	
2.3653	2.17503	1.05457	0	
2.3660	-1.77957	-3.53281	0	
2.3667	-2.37276	-3.79645	0	
2.3673	-3.88868	-1.37094	0	
2.3680	-10.0183	-0.158185	0	
2.3687	-12.7865	-1.68731	0	
2.3693	-8.76601	-1.68731	0	
2.3700	-4.81142	1.05457	0	
2.3707	1.25229	0.158185	0	
2.3713	11.3365	-3.79645	0	
2.3720	21.0912	-3.53281	0	
2.3727	27.5503	-2.00368	0	
2.3733	24.4526	-5.0092	0	
2.3740	13.7752	-5.32557	0	
2.3747	6.45917	-3.53281	0	
2.3753	-2.10912	-5.32557	0	
2.3760	-17.6638	-5.64194	0	
2.3767	-25.573	-2.00368	0	
2.3773	-18.257	-1.68731	0	
2.3780	-10.6115	-3.79645	0	
2.3787	-7.25009	-3.53281	0	
2.3793	-1.45002	-2.58369	0	
2.3800	3.69095	-4.74556	0	
2.3807	7.38191	-6.53833	0	
2.3813	16.2138	-5.32557	0	
2.3820	28.4731	-3.21644	0	
2.3827	36.3823	-3.53281	0	
2.3833	39.4141	-6.27469	0	
2.3840	40.0073	-6.8547	0	
2.3847	36.7118	-5.64194	0	
2.3853	25.9685	-5.32557	0	
2.3860	8.63419	-6.27469	0	
2.3867	-11.8638	-8.06745	0	
2.3873	-28.3413	-9.33294	0	
2.3880	-32.2958	-6.8547	0	
2.3887	-26.4958	-4.74556	0	
2.3893	-24.3867	-5.0092	0	
2.3900	-23.7276	-5.32557	0	
2.3907	-14.3024	-7.17107	0	
2.3913	-4.54778	-9.01656	0	
2.3920	-1.77957	-6.27469	0	
2.3927	3.09776	-3.53281	0	
2.3933	5.27279	-3.79645	0	
2.3940	-6.32735	-2.90006	0	
2.3947	-20.1025	-0.738198	0	
2.3953	-21.8821	-2.58369	0	
2.3960	-16.4116	-6.27469	0	
2.3967	-10.0183	-5.32557	0	
2.3973	-5.40461	-3.21644	0	
2.3980	-6.06371	-4.42919	0	
2.3987	-9.09556	-4.42919	0	
2.3993	-14.5661	-2.00368	0	
2.4000	-24.6503	-2.58369	0	
2.4007	-32.889	-4.74556	0	
2.4013	-31.9663	-2.90006	0	
2.4020	-24.3867	-1.68731	0	
2.4027	-14.8956	-3.53281	0	
2.4033	-7.84328	-3.21644	0	
2.4040	-6.06371	-0.738198	0	
2.4047	-5.40461	-1.05457	0	
2.4053	-1.77957	-0.738198	0	
2.4060	3.09776	2.00368	0	
2.4067	4.35005	2.00368	0	
2.4073	2.83413	-0.738198	0	
2.4080	3.69095	-1.05457	0	
2.4087	5.27279	1.05457	0	
2.4093	1.91139	0.158185	0	
2.4100	-0.856829	-1.68731	0	
2.4107	3.69095	0.474556	0	
2.4113	9.22738	2.90006	0	
2.4120	13.182	3.53281	0	
2.4127	23.5298	3.79645	0	
2.4133	35.7891	2.90006	0	
2.4140	37.5686	-0.474556	0	
2.4147	29.0663	-1.05457	0	
2.4153	17.7298	1.05457	0	
2.4160	9.49102	3.53281	0	
2.4167	-2.37276	4.74556	0	
2.4173	-20.1025	4.11282	0	
2.4180	-27.089	1.68731	0	
2.4187	-15.8184	-0.474556	0	
2.4193	-5.14097	-0.474556	0	
2.4200	1.91139	1.05457	0	
2.4207	14.6979	1.05457	0	
2.4213	24.7821	1.37094	0	
2.4220	26.298	4.11282	0	
2.4227	23.8594	7.48744	0	
2.4233	11.3365	6.53833	0	
2.4240	-5.40461	5.64194	0	
2.4247	-9.09556	5.95831	0	
2.4253	-6.06371	5.95831	0	
2.4260	-6.6569	5.64194	0	
2.4267	-2.96594	4.74556	0	
2.4273	0.0659099	2.90006	0	
2.4280	-7.84328	4.42919	0	
2.4287	-15.2252	8.38382	0	
2.4293	-16.4116	7.17107	0	
2.4300	-19.1798	3.79645	0	
2.4307	-17.6638	6.53833	0	
2.4313	-6.32735	9.59658	0	
2.4320	7.71146	9.33294	0	
2.4327	19.3116	9.91295	0	
2.4333	25.9685	8.06745	0	
2.4340	22.0139	3.79645	0	
2.4347	9.49102	4.74556	0	
2.4353	-2.96594	6.8547	0	
2.4360	-17.0048	3.79645	0	
2.4367	-30.1208	2.90006	0	
2.4373	-30.7799	6.27469	0	
2.4380	-20.1025	3.79645	0	
2.4387	-9.09556	-0.738198	0	
2.4393	-0.856829	2.00368	0	
2.4400	3.69095	5.64194	0	
2.4407	3.69095	4.74556	0	
2.4413	6.45917	2.26732	0	
2.4420	16.2138	1.05457	0	
2.4427	24.7821	2.00368	0	
2.4433	25.7049	3.79645	0	
2.4440	20.8275	3.79645	0	
2.4447	14.4343	2.90006	0	
2.4453	8.89783	3.53281	0	
2.4460	5.86598	3.79645	0	
2.4467	5.86598	4.42919	0	
2.4473	6.78872	5.32557	0	
2.4480	4.61369	2.90006	0	
2.4487	-1.77957	0.158185	0	
2.4493	-13.9729	1.05457	0	
2.4500	-28.6049	2.26732	0	
2.4507	-34.7345	0.158185	0	
2.4513	-27.6822	-1.37094	0	
2.4520	-18.257	-0.738198	0	
2.4527	-12.457	0.158185	0	
2.4533	-6.6569	0.158185	0	
2.4540	-3.88868	-1.68731	0	
2.4547	-6.06371	-1.68731	0	
2.4553	-6.98645	1.05457	0	
2.4560	-5.40461	1.05457	0	
2.4567	-5.40461	-0.474556	0	
2.4573	-4.54778	-0.158185	0	
2.4580	0.988648	-0.738198	0	
2.4587	8.30465	-4.11282	0	
2.4593	12.8524	-4.11282	0	
2.4600	17.4661	-2.26732	0	
2.4607	29.3299	-2.90006	0	
2.4613	39.4141	-3.21644	0	
2.4620	29.6594	-1.68731	0	
2.4627	8.30465	-1.37094	0	
2.4633	-2.70231	-1.05457	0	
2.4640	-8.50238	-0.474556	0	
2.4647	-22.8048	-1.68731	0	
2.4653	-31.9663	-2.58369	0	
2.4660	-19.4434	-2.58369	0	
2.4667	3.69095	-2.00368	0	
2.4673	23.8594	-1.68731	0	
2.4680	36.9754	-2.58369	0	
2.4687	31.5049	-4.42919	0	
2.4693	4.61369	-3.53281	0	
2.4700	-17.0048	-0.738198	0	
2.4707	-15.2252	-0.158185	0	
2.4713	-8.76601	-0.474556	0	
2.4720	-12.1274	-0.474556	0	
2.4727	-15.4888	-3.79645	0	
2.4733	-16.4116	-5.32557	0	
2.4740	-24.0571	-0.158185	0	
2.4747	-31.3731	2.00368	0	
2.4753	-28.0117	-2.58369	0	
2.4760	-20.3662	-3.53281	0	
2.4767	-16.4116	-1.68731	0	
2.4773	-12.1274	-2.26732	0	
2.4780	-4.54778	-2.26732	0	
2.4787	2.83413	-0.738198	0	
2.4793	9.22738	-2.00368	0	
2.4800	17.1366	-2.90006	0	
2.4807	27.814	-2.00368	0	
2.4813	33.9436	-2.00368	0	
2.4820	29.3299	-1.37094	0	
2.4827	19.3116	0.738198	0	
2.4833	10.1501	-0.738198	0	
2.4840	-2.70231	-3.79645	0	
2.4847	-19.1798	-3.79645	0	
2.4853	-23.4639	-2.26732	0	
2.4860	-10.941	-2.58369	0	
2.4867	-0.26364	-3.53281	0	
2.4873	-0.856829	-3.79645	0	
2.4880	0.659099	-3.79645	0	
2.4887	6.45917	-4.11282	0	
2.4893	7.38191	-4.42919	0	
2.4900	6.78872	-5.0092	0	
2.4907	9.49102	-5.0092	0	
2.4913	7.71146	-3.53281	0	
2.4920	3.42731	-1.68731	0	
2.4927	5.27279	-1.37094	0	
2.4933	7.38191	-2.00368	0	
2.4940	7.71146	-2.58369	0	
2.4947	9.49102	-2.90006	0	
2.4953	7.38191	-3.53281	0	
2.4960	2.17503	-5.32557	0	
2.4967	2.50458	-6.27469	0	
2.4973	0.659099	-5.0092	0	
2.4980	-9.68875	-4.42919	0	
2.4987	-16.4116	-5.32557	0	
2.4993	-14.3024	-4.74556	0	
2.5000	-7.84328	-3.53281	0	
2.5007	-1.77957	-4.74556	0	
2.5013	0.988648	-4.11282	0	
2.5020	6.19553	-0.474556	0	
2.5027	17.1366	-0.474556	0	
2.5033	25.1117	-3.53281	0	
2.5040	27.5503	-2.00368	0	
2.5047	26.8912	1.05457	0	
2.5053	13.7752	-0.738198	0	
2.5060	-9.09556	-2.26732	0	
2.5067	-21.2889	0.158185	0	
2.5073	-23.1344	-0.158185	0	
2.5080	-25.9026	-2.58369	0	
2.5087	-25.573	-0.738198	0	
2.5093	-19.773	1.37094	0	
2.5100	-16.082	-0.738198	0	
2.5107	-10.6115	-3.21644	0	
2.5113	2.83413	-2.00368	0	
2.5120	16.5434	-0.158185	0	
2.5127	24.4526	0.158185	0	
2.5133	25.3753	-1.05457	0	
2.5140	19.3116	-1.68731	0	
2.5147	8.89783	-0.738198	0	
2.5153	0.988648	-0.738198	0	
2.5160	-4.81142	0.158185	0	
2.5167	-17.3343	5.06193	0	
2.5173	-31.9663	8.38382	0	
2.5180	-29.264	5.06193	0	
2.5187	-10.941	0.738198	0	
2.5193	-0.527279	0.158185	0	
2.5200	-3.88868	1.05457	0	
2.5207	-7.84328	1.37094	0	
2.5213	-8.76601	0.158185	0	
2.5220	-6.98645	0.158185	0	
2.5227	-1.77957	2.58369	0	
2.5233	1.25229	3.53281	0	
2.5240	0.395459	0.738198	0	
2.5247	3.09776	-0.474556	0	
2.5253	5.53643	1.05457	0	
2.5260	2.50458	1.37094	0	
2.5267	0.659099	0.738198	0	
2.5273	2.17503	-0.738198	0	
2.5280	-0.26364	-1.68731	0	
2.5287	-3.29549	-0.738198	0	
2.5293	-1.77957	-1.05457	0	
2.5300	-3.62504	-2.90006	0	
2.5307	-8.76601	-0.738198	0	
2.5313	-5.40461	2.00368	0	
2.5320	0.0659099	0.158185	0	
2.5327	-1.45002	-1.05457	0	
2.5333	0.988648	1.05457	0	
2.5340	10.1501	0.158185	0	
2.5347	13.182	-2.00368	0	
2.5353	14.1047	-2.00368	0	
2.5360	23.8594	-2.00368	0	
2.5367	41.8528	-3.21644	0	
2.5373	59.5825	-3.21644	0	
2.5380	65.3826	-2.90006	0	
2.5387	56.2211	-2.00368	0	
2.5393	42.7755	-0.474556	0	
2.5400	25.7049	-1.68731	0	
2.5407	-2.96594	-4.42919	0	
2.5413	-34.7345	-2.58369	0	
2.5420	-54.5734	0.474556	0	
2.5427	-57.6052	-1.68731	0	
2.5433	-49.6961	-3.53281	0	
2.5440	-39.0187	-0.738198	0	
2.5447	-24.6503	1.05457	0	
2.5453	-2.10912	1.37094	0	
2.5460	15.2911	1.37094	0	
2.5467	15.0275	1.05457	0	
2.5473	1.25229	1.05457	0	
2.5480	-19.4434	3.79645	0	
2.5487	-36.8436	3.53281	0	
2.5493	-39.0187	-0.474556	0	
2.5500	-36.58	-1.05457	0	
2.5507	-38.3596	2.26732	0	
2.5513	-34.405	2.00368	0	
2.5520	-24.6503	-2.58369	0	
2.5527	-19.1798	-1.68731	0	
2.5533	-14.3024	2.00368	0	
2.5540	-9.09556	1.37094	0	
2.5547	-5.73416	-0.158185	0	
2.5553	2.83413	1.05457	0	
2.5560	15.2911	1.37094	0	
2.5567	20.8275	2.00368	0	
2.5573	17.4661	2.58369	0	
2.5580	11.0729	2.58369	0	
2.5587	5.86598	4.74556	0	
2.5593	0.0659099	6.53833	0	
2.5600	-11.2047	2.90006	0	
2.5607	-22.2116	1.68731	0	
2.5613	-20.3662	3.21644	0	
2.5620	-13.3797	2.00368	0	
2.5627	-13.6433	1.37094	0	
2.5633	-14.8956	4.11282	0	
2.5640	-9.42511	4.11282	0	
2.5647	-1.18638	2.58369	0	
2.5653	4.61369	3.79645	0	
2.5660	7.71146	3.79645	0	
2.5667	10.1501	3.79645	0	
2.5673	10.1501	2.00368	0	
2.5680	7.05236	-2.26732	0	
2.5687	4.94324	-2.58369	0	
2.5693	7.71146	0.738198	0	
2.5700	9.82057	-2.00368	0	
2.5707	7.38191	-5.32557	0	
2.5713	4.61369	-2.00368	0	
2.5720	5.53643	-0.158185	0	
2.5727	6.45917	-1.68731	0	
2.5733	4.35005	-1.05457	0	
2.5740	0.0659099	-0.738198	0	
2.5747	-4.54778	0.738198	0	
2.5753	-7.25009	3.79645	0	
2.5760	-6.32735	1.37094	0	
2.5767	-3.62504	-3.21644	0	
2.5773	-0.856829	-1.68731	0	
2.5780	1.25229	0.474556	0	
2.5787	2.50458	-1.37094	0	
2.5793	2.83413	-1.05457	0	
2.5800	5.86598	-0.738198	0	
2.5807	12.8524	-2.58369	0	
2.5813	22.673	-1.68731	0	
2.5820	35.4595	-0.158185	0	
2.5827	46.7301	-1.68731	0	
2.5833	45.5437	-0.738198	0	
2.5840	34.2072	0.158185	0	
2.5847	22.9366	-2.26732	0	
2.5853	8.30465	-5.0092	0	
2.5860	-13.6433	-4.74556	0	
2.5867	-26.8253	-5.32557	0	
2.5873	-20.6957	-7.17107	0	
2.5880	-8.17283	-7.17107	0	
2.5887	-0.856829	-5.95831	0	
2.5893	-0.527279	-7.80381	0	
2.5900	-8.17283	-8.70019	0	
2.5907	-17.0048	-4.74556	0	
2.5913	-16.4116	-2.26732	0	
2.5920	-12.1274	-3.53281	0	
2.5927	-11.8638	-3.53281	0	
2.5933	-7.84328	-3.79645	0	
2.5940	0.0659099	-5.32557	0	
2.5947	2.50458	-4.42919	0	
2.5953	-2.10912	-3.53281	0	
2.5960	-9.09556	-5.95831	0	
2.5967	-9.68875	-6.27469	0	
2.5973	-0.26364	-5.32557	0	
2.5980	1.25229	-7.48744	0	
2.5987	-17.3343	-7.48744	0	
2.5993	-34.1413	-4.11282	0	
2.6000	-32.889	-3.53281	0	
2.6007	-26.8253	-3.79645	0	
2.6013	-23.1344	-2.58369	0	
2.6020	-13.9729	-3.53281	0	
2.6027	-1.77957	-5.0092	0	
2.6033	9.22738	-3.53281	0	
2.6040	21.4207	-1.68731	0	
2.6047	26.298	-0.738198	0	
2.6053	18.0593	-0.738198	0	
2.6060	8.30465	-0.738198	0	
2.6067	6.19553	0.474556	0	
2.6073	1.25229	3.79645	0	
2.6080	-12.7865	5.06193	0	
2.6087	-24.9798	2.90006	0	
2.6093	-25.573	2.26732	0	
2.6100	-21.0253	2.00368	0	
2.6107	-15.4888	0.474556	0	
2.6113	-9.68875	2.58369	0	
2.6120	-6.98645	4.74556	0	
2.6127	-5.40461	1.68731	0	
2.6133	-1.77957	-0.158185	0	
2.6140	0.988648	2.00368	0	
2.6147	2.17503	2.00368	0	
2.6153	4.61369	1.68731	0	
2.6160	4.94324	4.11282	0	
2.6167	4.0205	5.64194	0	
2.6173	6.19553	4.74556	0	
2.6180	7.05236	4.74556	0	
2.6187	6.19553	4.42919	0	
2.6193	9.22738	4.11282	0	
2.6200	11.666	2.90006	0	
2.6207	12.5888	1.05457	0	
2.6213	15.6206	2.00368	0	
2.6220	15.6206	4.74556	0	
2.6227	11.0729	3.79645	0	
2.6233	10.1501	2.58369	0	
2.6240	10.1501	5.32557	0	
2.6247	7.38191	5.64194	0	
2.6253	7.9751	3.21644	0	
2.6260	8.89783	4.74556	0	
2.6267	4.61369	5.64194	0	
2.6273	-1.18638	3.53281	0	
2.6280	-5.14097	3.79645	0	
2.6287	-6.32735	5.64194	0	
2.6293	-4.81142	6.27469	0	
2.6300	-3.62504	6.53833	0	
2.6307	-2.96594	5.32557	0	
2.6313	-1.77957	2.90006	0	
2.6320	-1.77957	4.42919	0	
2.6327	-1.45002	6.27469	0	
2.6333	0.659099	2.00368	0	
2.6340	2.83413	-1.68731	0	
2.6347	5.27279	-1.05457	0	
2.6353	7.38191	0.158185	0	
2.6360	5.27279	1.05457	0	
2.6367	3.09776	2.00368	0	
2.6373	3.09776	0.738198	0	
2.6380	1.91139	-0.738198	0	
2.6387	3.69095	-0.738198	0	
2.6393	9.22738	-1.68731	0	
2.6400	10.4138	-0.738198	0	
2.6407	5.53643	2.00368	0	
2.6413	0.0659099	2.26732	0	
2.6420	-3.29549	1.37094	0	
2.6427	-5.40461	2.00368	0	
2.6433	-6.32735	2.90006	0	
2.6440	-3.29549	2.26732	0	
2.6447	1.58184	2.90006	0	
2.6453	2.50458	3.79645	0	
2.6460	5.53643	3.21644	0	
2.6467	17.4661	0.158185	0	
2.6473	33.0209	-3.21644	0	
2.6480	44.9505	-2.90006	0	
2.6487	46.1369	-2.58369	0	
2.6493	32.4277	-5.32557	0	
2.6500	18.0593	-7.17107	0	
2.6507	14.4343	-5.0092	0	
2.6513	11.0729	-2.26732	0	
2.6520	4.0205	-0.474556	0	
2.6527	0.0659099	1.05457	0	
2.6533	-9.09556	-0.738198	0	
2.6540	-27.6822	-4.42919	0	
2.6547	-37.5027	-6.27469	0	
2.6553	-31.3731	-5.95831	0	
2.6560	-21.8821	-5.0092	0	
2.6567	-18.8502	-3.79645	0	
2.6573	-20.1025	-2.90006	0	
2.6580	-21.0253	-1.37094	0	
2.6587	-22.5412	0.158185	0	
2.6593	-25.573	0.158185	0	
2.6600	-24.9798	-0.738198	0	
2.6607	-17.0048	-1.68731	0	
2.6613	-8.17283	-3.21644	0	
2.6620	-7.57964	-4.42919	0	
2.6627	-12.7865	-4.11282	0	
2.6633	-15.4888	-2.58369	0	
2.6640	-16.4116	-1.37094	0	
2.6647	-26.1662	-2.58369	0	
2.6653	-39.0187	-4.11282	0	
2.6660	-37.5027	-2.00368	0	
2.6667	-23.7276	0.474556	0	
2.6673	-12.1274	0.158185	0	
2.6680	-2.96594	-1.05457	0	
2.6687	5.86598	-2.00368	0	
2.6693	10.1501	-2.58369	0	
2.6700	10.4138	-1.05457	0	
2.6707	11.0729	-1.68731	0	
2.6713	10.1501	-4.42919	0	
2.6720	6.45917	-2.58369	0	
2.6727	2.50458	-0.158185	0	
2.6733	-4.21823	-0.738198	0	
2.6740	-10.0183	-0.158185	0	
2.6747	-9.42511	1.05457	0	
2.6753	-4.21823	-2.26732	0	
2.6760	-0.26364	-4.11282	0	
2.6767	1.91139	-3.21644	0	
2.6773	3.69095	-3.21644	0	
2.6780	5.53643	-2.26732	0	
2.6787	9.22738	-0.738198	0	
2.6793	11.3365	-2.26732	0	
2.6800	11.0729	-2.58369	0	
2.6807	13.5115	-2.26732	0	
2.6813	14.6979	-3.53281	0	
2.6820	10.1501	-2.00368	0	
2.6827	7.38191	0.158185	0	
2.6833	8.63419	-1.68731	0	
2.6840	9.49102	-2.00368	0	
2.6847	12.8524	1.05457	0	
2.6853	19.3116	0.474556	0	
2.6860	23.8594	0.474556	0	
2.6867	29.6594	3.79645	0	
2.6873	40.3368	2.90006	0	
2.6880	43.1051	-2.26732	0	
2.6887	27.814	-2.26732	0	
2.6893	3.69095	0.474556	0	
2.6900	-11.2047	-0.158185	0	
2.6907	-10.3479	-1.05457	0	
2.6913	-5.14097	1.05457	0	
2.6920	-2.70231	1.68731	0	
2.6927	2.50458	-0.738198	0	
2.6933	10.4138	0.158185	0	
2.6940	10.4138	3.79645	0	
2.6947	7.05236	3.79645	0	
2.6953	7.71146	2.58369	0	
2.6960	4.94324	3.53281	0	
2.6967	-3.29549	2.90006	0	
2.6973	-12.1274	1.05457	0	
2.6980	-26.8253	2.90006	0	
2.6987	-44.8187	3.79645	0	
2.6993	-48.4438	1.05457	0	
2.7000	-35.3277	0.474556	0	
2.7007	-21.8821	2.90006	0	
2.7013	-12.1274	2.00368	0	
2.7020	1.25229	0.474556	0	
2.7027	15.2911	1.68731	0	
2.7033	24.7821	2.00368	0	
2.7040	28.7367	1.05457	0	
2.7047	23.8594	0.158185	0	
2.7053	10.4138	0.738198	0	
2.7060	-0.856829	3.53281	0	
2.7067	-10.0183	4.11282	0	
2.7073	-21.8821	2.26732	0	
2.7080	-26.4958	1.05457	0	
2.7087	-13.9729	-0.158185	0	
2.7093	3.09776	0.158185	0	
2.7100	9.22738	2.58369	0	
2.7107	5.53643	3.21644	0	
2.7113	0.988648	0.738198	0	
2.7120	-3.29549	-0.738198	0	
2.7127	-15.2252	-1.68731	0	
2.7133	-32.2958	-2.00368	0	
2.7140	-34.7345	-1.68731	0	
2.7147	-17.3343	-2.90006	0	
2.7153	-3.62504	-3.21644	0	
2.7160	-0.856829	-0.738198	0	
2.7167	0.988648	0.158185	0	
2.7173	4.35005	0.158185	0	
2.7180	6.45917	1.37094	0	
2.7187	6.78872	-0.738198	0	
2.7193	2.83413	-2.58369	0	
2.7200	-0.856829	1.68731	0	
2.7207	0.0659099	5.06193	0	
2.7213	-1.77957	5.06193	0	
2.7220	-7.25009	4.74556	0	
2.7227	-3.62504	4.74556	0	
2.7233	4.61369	3.21644	0	
2.7240	3.69095	2.00368	0	
2.7247	0.988648	1.05457	0	
2.7253	7.38191	2.90006	0	
2.7260	12.2592	4.42919	0	
2.7267	9.22738	1.05457	0	
2.7273	6.45917	-1.05457	0	
2.7280	7.38191	0.158185	0	
2.7287	3.69095	-0.474556	0	
2.7293	-2.70231	-2.00368	0	
2.7300	-5.73416	-1.68731	0	
2.7307	-5.14097	-1.68731	0	
2.7313	-2.70231	-3.21644	0	
2.7320	0.988648	-2.90006	0	
2.7327	2.50458	-1.37094	0	
2.7333	0.988648	-1.37094	0	
2.7340	1.91139	-2.26732	0	
2.7347	4.61369	0.158185	0	
2.7353	5.53643	3.79645	0	
2.7360	11.3365	1.37094	0	
2.7367	21.7503	-2.90006	0	
2.7373	27.5503	-2.26732	0	
2.7380	29.3299	-2.00368	0	
2.7387	25.7049	-3.53281	0	
2.7393	4.35005	-1.68731	0	
2.7400	-25.573	0.158185	0	
2.7407	-37.5027	-2.00368	0	
2.7413	-31.0436	-1.68731	0	
2.7420	-25.2435	1.05457	0	
2.7427	-23.4639	2.00368	0	
2.7433	-18.257	2.26732	0	
2.7440	-13.3797	2.00368	0	
2.7447	-11.8638	0.158185	0	
2.7453	-10.0183	1.05457	0	
2.7460	-5.73416	3.21644	0	
2.7467	3.42731	3.79645	0	
2.7473	21.0912	2.26732	0	
2.7480	41.2596	-0.738198	0	
2.7487	47.6528	-1.05457	0	
2.7493	38.4914	2.00368	0	
2.7500	24.7821	1.68731	0	
2.7507	12.8524	0.738198	0	
2.7513	0.988648	3.53281	0	
2.7520	-14.5661	4.42919	0	
2.7527	-28.6049	3.53281	0	
2.7533	-29.264	3.79645	0	
2.7540	-23.1344	0.474556	0	
2.7547	-24.6503	-4.42919	0	
2.7553	-30.7799	-3.53281	0	
2.7560	-30.7799	-2.58369	0	
2.7567	-19.773	-3.53281	0	
2.7573	2.17503	-0.158185	0	
2.7580	22.3435	1.37094	0	
2.7587	28.4731	-1.37094	0	
2.7593	27.5503	-0.158185	0	
2.7600	23.2662	1.68731	0	
2.7607	11.0729	-0.738198	0	
2.7613	-5.40461	-2.00368	0	
2.7620	-21.0253	-3.53281	0	
2.7627	-31.7027	-6.27469	0	
2.7633	-27.4185	-5.0092	0	
2.7640	-13.0502	-2.90006	0	
2.7647	-3.29549	-5.0092	0	
2.7653	0.0659099	-4.11282	0	
2.7660	0.988648	-0.738198	0	
2.7667	-0.856829	-2.58369	0	
2.7673	-2.70231	-4.42919	0	
2.7680	-2.10912	-2.58369	0	
2.7687	0.0659099	-1.68731	0	
2.7693	1.25229	-3.21644	0	
2.7700	-0.527279	-2.26732	0	
2.7707	-1.77957	-2.00368	0	
2.7713	1.25229	-3.21644	0	
2.7720	4.35005	-2.58369	0	
2.7727	4.94324	-1.05457	0	
2.7733	6.78872	-2.58369	0	
2.7740	8.30465	-5.64194	0	
2.7747	6.19553	-6.27469	0	
2.7753	3.42731	-4.74556	0	
2.7760	2.50458	-5.0092	0	
2.7767	0.659099	-6.27469	0	
2.7773	-2.70231	-4.74556	0	
2.7780	-6.32735	-1.05457	0	
2.7787	-6.98645	-0.474556	0	
2.7793	-4.54778	-1.68731	0	
2.7800	0.659099	-0.738198	0	
2.7807	5.27279	1.05457	0	
2.7813	6.19553	0.474556	0	
2.7820	7.38191	0.158185	0	
2.7827	9.22738	2.26732	0	
2.7833	9.22738	2.58369	0	
2.7840	8.89783	-1.68731	0	
2.7847	10.4138	-4.74556	0	
2.7853	10.4138	-2.58369	0	
2.7860	10.1501	0.158185	0	
2.7867	14.4343	-2.00368	0	
2.7873	22.0139	-5.32557	0	
2.7880	28.4731	-3.79645	0	
2.7887	32.6913	-2.26732	0	
2.7893	30.2526	-3.21644	0	
2.7900	14.4343	-2.26732	0	
2.7907	-13.6433	-0.474556	0	
2.7913	-36.2504	-1.68731	0	
2.7920	-39.2823	-3.79645	0	
2.7927	-33.8118	-4.42919	0	
2.7933	-31.9663	-4.11282	0	
2.7940	-28.0117	-3.53281	0	
2.7947	-20.1025	-2.90006	0	
2.7953	-12.7865	-3.53281	0	
2.7960	-6.06371	-3.53281	0	
2.7967	-2.70231	-2.58369	0	
2.7973	-2.70231	-2.00368	0	
2.7980	0.0659099	-0.474556	0	
2.7987	3.09776	2.00368	0	
2.7993	1.25229	2.00368	0	
2.8000	0.395459	0.738198	0	
2.8007	1.58184	1.68731	0	
2.8013	-1.18638	1.68731	0	
2.8020	-3.29549	-0.474556	0	
2.8027	-2.10912	-0.474556	0	
2.8033	-4.54778	-0.158185	0	
2.8040	-9.09556	-1.68731	0	
2.8047	-9.42511	-0.738198	0	
2.8053	-10.3479	2.00368	0	
2.8060	-11.8638	1.68731	0	
2.8067	-9.09556	0.738198	0	
2.8073	-5.40461	0.738198	0	
2.8080	-3.62504	0.158185	0	
2.8087	0.988648	1.37094	0	
2.8093	9.49102	4.74556	0	
2.8100	19.3116	4.11282	0	
2.8107	24.1889	0.738198	0	
2.8113	15.9502	1.68731	0	
2.8120	-3.62504	5.06193	0	
2.8127	-16.082	4.74556	0	
2.8133	-13.6433	1.68731	0	
2.8140	-13.3797	1.05457	0	
2.8147	-22.8048	2.00368	0	
2.8153	-24.9798	2.00368	0	
2.8160	-13.3797	2.58369	0	
2.8167	-1.77957	3.53281	0	
2.8173	4.94324	1.68731	0	
2.8180	7.71146	-0.158185	0	
2.8187	2.17503	2.00368	0	
2.8193	-7.25009	4.74556	0	
2.8200	-10.941	4.74556	0	
2.8207	-10.3479	3.79645	0	
2.8213	-10.0183	2.90006	0	
2.8220	-8.76601	2.00368	0	
2.8227	-5.40461	0.158185	0	
2.8233	-2.96594	-0.158185	0	
2.8240	-1.77957	0.738198	0	
2.8247	-0.856829	2.00368	0	
2.8253	-0.26364	2.26732	0	
2.8260	0.988648	2.90006	0	
2.8267	4.94324	1.37094	0	
2.8273	9.82057	-1.68731	0	
2.8280	14.4343	-2.26732	0	
2.8287	21.7503	0.738198	0	
2.8293	30.9117	4.11282	0	
2.8300	34.8663	5.64194	0	
2.8307	29.0663	5.64194	0	
2.8313	10.4138	3.79645	0	
2.8320	-10.941	2.90006	0	
2.8327	-17.0048	3.53281	0	
2.8333	-11.2047	2.58369	0	
2.8340	-7.25009	1.37094	0	
2.8347	0.659099	2.90006	0	
2.8353	15.6206	2.26732	0	
2.8360	25.3753	-0.474556	0	
2.8367	22.9366	0.158185	0	
2.8373	14.6979	2.00368	0	
2.8380	6.45917	-1.05457	0	
2.8387	-5.14097	-3.21644	0	
2.8393	-25.2435	-2.58369	0	
2.8400	-37.7664	-4.11282	0	
2.8407	-26.1662	-5.0092	0	
2.8413	-7.57964	-2.90006	0	
2.8420	-2.70231	-2.58369	0	
2.8427	-1.45002	-2.58369	0	
2.8433	1.25229	0.158185	0	
2.8440	-1.18638	1.05457	0	
2.8447	-1.45002	-0.738198	0	
2.8453	5.53643	-1.37094	0	
2.8460	8.63419	0.158185	0	
2.8467	7.71146	1.05457	0	
2.8473	7.38191	2.58369	0	
2.8480	6.19553	4.74556	0	
2.8487	9.22738	4.74556	0	
2.8493	17.4661	0.158185	0	
2.8500	22.9366	-3.79645	0	
2.8507	26.6276	-2.58369	0	
2.8513	32.0981	-2.58369	0	
2.8520	33.614	-3.79645	0	
2.8527	28.4731	-1.05457	0	
2.8533	15.6206	1.05457	0	
2.8540	0.659099	-2.00368	0	
2.8547	-8.50238	-2.26732	0	
2.8553	-21.0253	1.05457	0	
2.8560	-46.6642	0.474556	0	
2.8567	-64.9212	-1.37094	0	
2.8573	-58.1984	0.158185	0	
2.8580	-40.205	-0.474556	0	
2.8587	-25.2435	-2.58369	0	
2.8593	-17.3343	-2.26732	0	
2.8600	-17.9275	-0.738198	0	
2.8607	-17.3343	-0.158185	0	
2.8613	-11.2047	0.738198	0	
2.8620	-6.98645	0.158185	0	
2.8627	-6.98645	-0.738198	0	
2.8633	-6.32735	1.68731	0	
2.8640	-6.32735	3.53281	0	
2.8647	-6.98645	1.68731	0	
2.8653	-6.32735	0.738198	0	
2.8660	-3.62504	2.90006	0	
2.8667	4.0205	2.26732	0	
2.8673	14.6979	-0.738198	0	
2.8680	23.8594	-0.738198	0	
2.8687	32.4277	0.474556	0	
2.8693	40.3368	0.158185	0	
2.8700	33.614	1.05457	0	
2.8707	10.1501	2.00368	0	
2.8713	-8.17283	1.05457	0	
2.8720	-10.3479	-0.474556	0	
2.8727	-9.09556	0.158185	0	
2.8733	-10.941	-0.738198	0	
2.8740	-10.6115	-2.26732	0	
2.8747	-9.09556	-1.05457	0	
2.8753	-6.6569	0.738198	0	
2.8760	-5.40461	-0.738198	0	
2.8767	-7.84328	-2.26732	0	
2.8773	-9.09556	-1.05457	0	
2.8780	-4.54778	-0.738198	0	
2.8787	-0.26364	-2.58369	0	
2.8793	0.0659099	-3.53281	0	
2.8800	4.61369	-3.53281	0	
2.8807	12.8524	-3.79645	0	
2.8813	16.2138	-3.53281	0	
2.8820	15.9502	-2.58369	0	
2.8827	22.3435	-0.738198	0	
2.8833	35.13	-1.05457	0	
2.8840	44.621	-2.90006	0	
2.8847	43.3687	-2.58369	0	
2.8853	33.9436	-0.738198	0	
2.8860	21.7503	0.474556	0	
2.8867	5.27279	0.738198	0	
2.8873	-16.4116	-1.05457	0	
2.8880	-30.7799	-2.90006	0	
2.8887	-27.4185	-0.474556	0	
2.8893	-15.8184	2.90006	0	
2.8900	-9.09556	2.00368	0	
2.8907	-6.32735	1.37094	0	
2.8913	-2.70231	2.00368	0	
2.8920	0.659099	0.738198	0	
2.8927	-1.45002	0.738198	0	
2.8933	-4.81142	0.738198	0	
2.8940	-2.70231	-1.05457	0	
2.8947	1.58184	-0.158185	0	
2.8953	5.53643	3.21644	0	
2.8960	16.2138	3.79645	0	
2.8967	28.7367	3.53281	0	
2.8973	30.9117	2.26732	0	
2.8980	22.0139	-1.37094	0	
2.8987	15.9502	-2.00368	0	
2.8993	17.1366	0.158185	0	
2.9000	15.6206	-1.37094	0	
2.9007	6.19553	-3.79645	0	
2.9013	-1.77957	-1.37094	0	
2.9020	-0.856829	1.68731	0	
2.9027	3.69095	1.05457	0	
2.9033	9.49102	-1.68731	0	
2.9040	13.7752	-1.05457	0	
2.9047	9.22738	2.00368	0	
2.9053	-1.77957	1.05457	0	
2.9060	-14.8956	-3.79645	0	
2.9067	-32.2958	-4.42919	0	
2.9073	-42.0505	-2.58369	0	
2.9080	-34.7345	-2.58369	0	
2.9087	-24.0571	-2.90006	0	
2.9093	-21.6184	-5.0092	0	
2.9100	-21.6184	-6.53833	0	
2.9107	-21.0253	-3.53281	0	
2.9113	-19.1798	-3.21644	0	
2.9120	-17.3343	-5.95831	0	
2.9127	-16.4116	-3.79645	0	
2.9133	-10.941	-3.79645	0	
2.9140	-0.856829	-9.59658	0	
2.9147	2.83413	-7.48744	0	
2.9153	5.86598	-2.00368	0	
2.9160	18.3889	-5.32557	0	
2.9167	29.3299	-8.38382	0	
2.9173	31.1754	-6.8547	0	
2.9180	21.4207	-7.17107	0	
2.9187	-3.62504	-7.80381	0	
2.9193	-26.4958	-6.27469	0	
2.9200	-28.0117	-6.27469	0	
2.9207	-21.8821	-5.32557	0	
2.9213	-21.2889	-2.26732	0	
2.9220	-17.6638	-2.26732	0	
2.9227	-10.3479	-3.21644	0	
2.9233	-5.73416	-2.58369	0	
2.9240	-2.37276	-2.58369	0	
2.9247	-1.77957	-4.11282	0	
2.9253	-7.25009	-3.53281	0	
2.9260	-11.5342	-2.26732	0	
2.9267	-10.0183	-3.21644	0	
2.9273	-6.98645	-4.42919	0	
2.9280	-3.88868	-4.11282	0	
2.9287	-2.96594	-3.53281	0	
2.9293	-4.54778	-1.68731	0	
2.9300	-3.62504	0.158185	0	
2.9307	0.659099	-1.37094	0	
2.9313	2.17503	-3.53281	0	
2.9320	-1.18638	-2.90006	0	
2.9327	-2.96594	-3.21644	0	
2.9333	-1.45002	-4.42919	0	
2.9340	0.0659099	-2.26732	0	
