0.0000	4.43323	1.20426	1
0.0007	7.75815	-1.20426	0	
0.0013	11.7758	-2.15047	0	
0.0020	13.8538	1.20426	0	
0.0027	15.7241	3.95687	0	
0.0033	16.6246	0.860189	0	
0.0040	16.6246	-2.15047	0	
0.0047	19.049	-2.7526	0	
0.0053	25.7681	-3.95687	0	
0.0060	28.5389	-2.49455	0	
0.0067	17.5251	0.258057	0	
0.0073	0.138538	-3.35474	0	
0.0080	-10.806	-7.65568	0	
0.0087	-16.6246	-4.30094	0	
0.0093	-23.6208	-2.15047	0	
0.0100	-20.9193	-2.49455	0	
0.0107	-8.1045	0.602132	0	
0.0113	-4.43323	1.20426	0	
0.0120	-13.5768	-0.946207	0	
0.0127	-17.248	0.602132	0	
0.0133	-11.4294	1.20426	0	
0.0140	-10.806	-1.54834	0	
0.0147	-13.5768	-0.946207	0	
0.0153	-11.7758	0.258057	0	
0.0160	-8.38157	-2.7526	0	
0.0167	-8.1045	-3.35474	0	
0.0173	-7.204	-3.09668	0	
0.0180	-5.33373	-4.90308	0	
0.0187	-5.68007	-4.559	0	
0.0193	-6.23423	-2.7526	0	
0.0200	-4.43323	-3.35474	0	
0.0207	-4.43323	-4.30094	0	
0.0213	-9.62842	-4.30094	0	
0.0220	-10.2518	-5.84928	0	
0.0227	-3.53273	-4.559	0	
0.0233	-1.66246	-2.49455	0	
0.0240	-7.204	-3.69881	0	
0.0247	-6.58057	-4.559	0	
0.0253	-1.38538	-4.30094	0	
0.0260	-3.53273	-5.50521	0	
0.0267	-8.1045	-4.30094	0	
0.0273	-2.90931	-1.54834	0	
0.0280	11.1523	-2.49455	0	
0.0287	22.0969	-5.24715	0	
0.0293	20.9193	-5.84928	0	
0.0300	12.0528	-5.24715	0	
0.0307	9.28207	-4.30094	0	
0.0313	16.0012	-3.95687	0	
0.0320	22.0969	-3.35474	0	
0.0327	25.7681	-1.54834	0	
0.0333	35.5351	0.258057	0	
0.0340	48.0728	0.258057	0	
0.0347	48.0728	1.20426	0	
0.0353	28.5389	1.46232	0	
0.0360	2.28588	0	0	
0.0367	-14.8236	-2.49455	0	
0.0373	-21.1964	-3.35474	0	
0.0380	-26.3916	-2.7526	0	
0.0387	-37.059	-1.54834	0	
0.0393	-47.1723	-1.54834	0	
0.0400	-46.5489	-4.30094	0	
0.0407	-35.5351	-4.30094	0	
0.0413	-21.8198	-3.95687	0	
0.0420	-10.2518	-6.10734	0	
0.0427	-0.761961	-6.70947	0	
0.0433	8.1045	-3.09668	0	
0.0440	15.7241	-1.20426	0	
0.0447	18.4949	-1.54834	0	
0.0453	17.8715	-0.602132	0	
0.0460	12.0528	-0.344075	0	
0.0467	1.03904	-0.344075	0	
0.0473	-6.23423	-0.946207	0	
0.0480	-7.75815	-3.69881	0	
0.0487	-16.3475	-4.559	0	
0.0493	-28.816	-2.49455	0	
0.0500	-30.0628	-1.89241	0	
0.0507	-24.8676	-2.15047	0	
0.0513	-21.8198	-0.602132	0	
0.0520	-18.772	0.602132	0	
0.0527	-16.0012	1.20426	0	
0.0533	-11.7758	1.20426	0	
0.0540	-1.66246	-0.602132	0	
0.0547	4.71031	-0.946207	0	
0.0553	2.00881	2.15047	0	
0.0560	5.33373	3.35474	0	
0.0567	18.4949	2.15047	0	
0.0573	25.7681	2.15047	0	
0.0580	26.6686	1.20426	0	
0.0587	29.4394	-0.946207	0	
0.0593	29.7858	-0.946207	0	
0.0600	20.2959	1.20426	0	
0.0607	6.23423	2.7526	0	
0.0613	-3.53273	2.7526	0	
0.0620	-9.005	0.258057	0	
0.0627	-14.2002	-2.15047	0	
0.0633	-22.7203	-0.602132	0	
0.0640	-34.6346	2.40853	0	
0.0647	-40.7303	2.15047	0	
0.0653	-34.0112	0.258057	0	
0.0660	-23.6208	-0.602132	0	
0.0667	-20.0188	0.258057	0	
0.0673	-15.7241	1.20426	0	
0.0680	-7.75815	-0.946207	0	
0.0687	-3.18638	-1.89241	0	
0.0693	-2.90931	1.20426	0	
0.0700	-0.484884	1.20426	0	
0.0707	6.23423	-2.7526	0	
0.0713	12.9533	-0.946207	0	
0.0720	15.7241	3.61279	0	
0.0727	14.8236	2.40853	0	
0.0733	16.3475	0.258057	0	
0.0740	17.5251	2.15047	0	
0.0747	11.4294	2.7526	0	
0.0753	-1.38538	2.15047	0	
0.0760	-11.4294	2.40853	0	
0.0767	-13.8538	3.01066	0	
0.0773	-8.72792	3.61279	0	
0.0780	4.71031	3.61279	0	
0.0787	22.4432	1.8064	0	
0.0793	37.9595	1.20426	0	
0.0800	49.5967	3.01066	0	
0.0807	55.069	3.35474	0	
0.0813	54.4456	1.8064	0	
0.0820	41.9771	1.8064	0	
0.0827	4.71031	1.46232	0	
0.0833	-36.1585	0.258057	0	
0.0840	-37.6824	0.602132	0	
0.0847	-8.72792	2.15047	0	
0.0853	8.72792	1.20426	0	
0.0860	4.08688	1.8064	0	
0.0867	-8.1045	3.61279	0	
0.0873	-19.6725	2.15047	0	
0.0880	-25.1447	-1.54834	0	
0.0887	-30.3399	-2.15047	0	
0.0893	-39.2064	1.20426	0	
0.0900	-37.6824	4.21492	0	
0.0907	-24.5906	4.559	0	
0.0913	-15.7241	3.01066	0	
0.0920	-11.7758	2.15047	0	
0.0927	-7.48107	1.20426	0	
0.0933	-8.1045	1.46232	0	
0.0940	-8.72792	3.95687	0	
0.0947	-4.43323	4.559	0	
0.0953	-2.00881	3.61279	0	
0.0960	-1.03904	3.61279	0	
0.0967	2.90931	3.35474	0	
0.0973	5.6108	3.01066	0	
0.0980	6.58057	4.21492	0	
0.0987	12.6763	5.50521	0	
0.0993	17.5251	4.21492	0	
0.1000	16.9017	4.21492	0	
0.1007	19.3954	5.16113	0	
0.1013	24.2442	5.50521	0	
0.1020	19.3954	5.76326	0	
0.1027	9.28207	6.3654	0	
0.1033	6.85765	5.16113	0	
0.1040	10.806	1.46232	0	
0.1047	19.6725	-1.54834	0	
0.1053	31.3097	-1.20426	0	
0.1060	32.2102	0.602132	0	
0.1067	27.6384	0.258057	0	
0.1073	28.816	-1.20426	0	
0.1080	25.7681	-0.344075	0	
0.1087	14.8236	1.20426	0	
0.1093	9.62842	-1.20426	0	
0.1100	3.18638	-3.69881	0	
0.1107	-12.9533	-0.344075	0	
0.1113	-25.4911	4.21492	0	
0.1120	-33.7341	2.15047	0	
0.1127	-43.7781	-1.20426	0	
0.1133	-39.2064	0.860189	0	
0.1140	-17.5251	3.35474	0	
0.1147	-5.68007	2.15047	0	
0.1153	-6.85765	1.8064	0	
0.1160	-4.71031	3.35474	0	
0.1167	2.28588	3.01066	0	
0.1173	8.72792	2.15047	0	
0.1180	11.7758	1.8064	0	
0.1187	9.005	0.258057	0	
0.1193	3.80981	-0.602132	0	
0.1200	-1.66246	0.258057	0	
0.1207	-9.90549	-0.602132	0	
0.1213	-15.447	-2.7526	0	
0.1220	-12.0528	-2.7526	0	
0.1227	-8.1045	-0.344075	0	
0.1233	-9.005	1.20426	0	
0.1240	-9.005	-0.602132	0	
0.1247	-5.95715	-3.69881	0	
0.1253	-2.56296	-3.95687	0	
0.1260	1.38538	-1.54834	0	
0.1267	10.2518	-0.344075	0	
0.1273	23.0666	-0.602132	0	
0.1280	35.8814	0.602132	0	
0.1287	44.1245	1.20426	0	
0.1293	40.4532	-2.49455	0	
0.1300	19.3954	-3.35474	0	
0.1307	-4.08688	-0.344075	0	
0.1313	-13.5768	-0.344075	0	
0.1320	-16.3475	-2.49455	0	
0.1327	-22.4432	-0.602132	0	
0.1333	-22.4432	0.258057	0	
0.1340	-14.8236	-2.7526	0	
0.1347	-9.90549	-3.09668	0	
0.1353	-7.204	-1.20426	0	
0.1360	-4.08688	-3.95687	0	
0.1367	-4.43323	-7.05355	0	
0.1373	-4.71031	-6.10734	0	
0.1380	-2.00881	-4.30094	0	
0.1387	-1.38538	-3.35474	0	
0.1393	0.138538	-3.35474	0	
0.1400	10.806	-6.10734	0	
0.1407	20.9193	-8.85994	0	
0.1413	17.5251	-8.85994	0	
0.1420	7.204	-6.10734	0	
0.1427	-0.761961	-5.84928	0	
0.1433	-4.43323	-8.85994	0	
0.1440	-0.761961	-11.0104	0	
0.1447	5.33373	-9.46207	0	
0.1453	3.80981	-8.85994	0	
0.1460	0.761961	-8.60189	0	
0.1467	4.43323	-6.10734	0	
0.1473	9.62842	-5.84928	0	
0.1480	13.5768	-7.99975	0	
0.1487	20.2959	-6.10734	0	
0.1493	24.8676	-3.09668	0	
0.1500	22.0969	-3.95687	0	
0.1507	18.4949	-5.24715	0	
0.1513	14.8236	-0.946207	0	
0.1520	9.28207	2.40853	0	
0.1527	5.6108	0.258057	0	
0.1533	4.08688	-1.89241	0	
0.1540	0.138538	-0.602132	0	
0.1547	-3.53273	0	0	
0.1553	-4.43323	-0.946207	0	
0.1560	-8.38157	-0.344075	0	
0.1567	-16.6246	2.15047	0	
0.1573	-20.9193	2.40853	0	
0.1580	-20.0188	1.20426	0	
0.1587	-17.5251	1.20426	0	
0.1593	-9.90549	3.61279	0	
0.1600	3.18638	5.16113	0	
0.1607	11.1523	3.95687	0	
0.1613	9.62842	2.7526	0	
0.1620	4.43323	3.01066	0	
0.1627	1.03904	1.46232	0	
0.1633	4.08688	0	0	
0.1640	11.7758	3.01066	0	
0.1647	13.8538	6.10734	0	
0.1653	2.56296	4.21492	0	
0.1660	-12.9533	3.35474	0	
0.1667	-14.4773	4.21492	0	
0.1673	-1.66246	3.01066	0	
0.1680	5.33373	1.46232	0	
0.1687	6.85765	2.15047	0	
0.1693	21.5427	1.20426	0	
0.1700	37.6824	-0.344075	0	
0.1707	31.5868	-0.344075	0	
0.1713	16.9017	1.20426	0	
0.1720	11.1523	2.7526	0	
0.1727	0.138538	2.40853	0	
0.1733	-24.2442	1.20426	0	
0.1740	-46.2026	2.40853	0	
0.1747	-51.1207	4.559	0	
0.1753	-35.8814	2.7526	0	
0.1760	-16.3475	-0.602132	0	
0.1767	-16.0012	1.20426	0	
0.1773	-30.9633	3.95687	0	
0.1780	-40.4532	2.7526	0	
0.1787	-41.3537	0.258057	0	
0.1793	-40.1069	1.20426	0	
0.1800	-36.4356	0.258057	0	
0.1807	-30.0628	-2.49455	0	
0.1813	-25.7681	-0.946207	0	
0.1820	-23.6208	2.15047	0	
0.1827	-22.0969	1.20426	0	
0.1833	-21.1964	0.258057	0	
0.1840	-20.9193	1.8064	0	
0.1847	-19.3954	0.602132	0	
0.1853	-14.8236	-1.20426	0	
0.1860	-9.005	-0.602132	0	
0.1867	-4.43323	-0.602132	0	
0.1873	-1.38538	-2.49455	0	
0.1880	2.00881	-2.49455	0	
0.1887	3.80981	-2.15047	0	
0.1893	3.80981	-2.15047	0	
0.1900	4.43323	-1.54834	0	
0.1907	4.43323	-2.15047	0	
0.1913	3.80981	-2.7526	0	
0.1920	5.05665	-0.344075	0	
0.1927	8.72792	1.46232	0	
0.1933	11.1523	-0.602132	0	
0.1940	12.6763	-2.15047	0	
0.1947	14.4773	1.46232	0	
0.1953	14.8236	3.95687	0	
0.1960	12.0528	2.40853	0	
0.1967	11.1523	1.46232	0	
0.1973	14.2002	0	0	
0.1980	13.5768	-3.35474	0	
0.1987	7.48107	-2.7526	0	
0.1993	3.53273	1.46232	0	
0.2000	4.08688	2.40853	0	
0.2007	5.6108	2.15047	0	
0.2013	5.33373	3.01066	0	
0.2020	3.80981	1.20426	0	
0.2027	1.03904	-2.49455	0	
0.2033	-2.28588	-2.7526	0	
0.2040	-2.28588	-2.15047	0	
0.2047	-0.761961	-1.54834	0	
0.2053	-1.66246	-1.20426	0	
0.2060	-3.80981	-4.30094	0	
0.2067	-2.28588	-7.65568	0	
0.2073	2.00881	-5.50521	0	
0.2080	10.5289	-1.54834	0	
0.2087	28.816	-0.946207	0	
0.2093	45.9255	-1.54834	0	
0.2100	50.4972	-1.20426	0	
0.2107	48.3499	-2.49455	0	
0.2113	41.3537	-3.35474	0	
0.2120	24.5906	-0.946207	0	
0.2127	12.0528	2.15047	0	
0.2133	11.1523	2.15047	0	
0.2140	2.90931	-0.344075	0	
0.2147	-9.28207	-3.35474	0	
0.2153	-6.23423	-6.10734	0	
0.2160	1.38538	-7.05355	0	
0.2167	5.6108	-3.35474	0	
0.2173	20.9193	2.40853	0	
0.2180	36.1585	4.81706	0	
0.2187	33.1107	1.46232	0	
0.2193	25.7681	-1.89241	0	
0.2200	19.049	0.258057	0	
0.2207	1.03904	2.15047	0	
0.2213	-21.8198	-0.602132	0	
0.2220	-44.6786	-3.69881	0	
0.2227	-67.6067	-3.35474	0	
0.2233	-73.079	-3.09668	0	
0.2240	-57.4934	-2.15047	0	
0.2247	-45.9255	0.258057	0	
0.2253	-44.4016	0.602132	0	
0.2260	-42.8776	0	0	
0.2267	-45.3021	-0.602132	0	
0.2273	-48.0728	-1.54834	0	
0.2280	-39.8298	-1.20426	0	
0.2287	-23.6208	-0.602132	0	
0.2293	-5.68007	-1.54834	0	
0.2300	11.7758	-0.946207	0	
0.2307	24.5906	0.258057	0	
0.2313	33.1107	-1.54834	0	
0.2320	41.9771	-1.89241	0	
0.2327	40.7303	0	0	
0.2333	21.1964	-0.602132	0	
0.2340	1.03904	-2.49455	0	
0.2347	-2.56296	-2.49455	0	
0.2353	-3.53273	-2.7526	0	
0.2360	-9.90549	-1.54834	0	
0.2367	-10.5289	0.602132	0	
0.2373	-6.85765	-0.946207	0	
0.2380	-6.23423	-3.35474	0	
0.2387	-5.05665	-0.344075	0	
0.2393	-3.53273	3.35474	0	
0.2400	-5.05665	3.35474	0	
0.2407	-3.53273	3.35474	0	
0.2413	1.38538	3.01066	0	
0.2420	3.18638	2.15047	0	
0.2427	1.03904	3.01066	0	
0.2433	-1.03904	3.01066	0	
0.2440	-1.03904	0.602132	0	
0.2447	1.03904	1.46232	0	
0.2453	1.03904	4.81706	0	
0.2460	-0.138538	3.95687	0	
0.2467	-1.66246	1.8064	0	
0.2473	-1.66246	0.860189	0	
0.2480	-0.484884	-0.946207	0	
0.2487	1.03904	-1.54834	0	
0.2493	1.66246	-0.602132	0	
0.2500	4.71031	-0.344075	0	
0.2507	7.75815	1.8064	0	
0.2513	8.1045	3.95687	0	
0.2520	8.72792	2.15047	0	
0.2527	11.1523	1.8064	0	
0.2533	12.9533	3.95687	0	
0.2540	14.8236	2.40853	0	
0.2547	15.1007	0.258057	0	
0.2553	14.2002	1.46232	0	
0.2560	13.8538	0.860189	0	
0.2567	12.0528	-0.946207	0	
0.2573	9.005	-0.344075	0	
0.2580	8.1045	-0.602132	0	
0.2587	4.71031	-0.946207	0	
0.2593	0.138538	0.258057	0	
0.2600	2.00881	-2.49455	0	
0.2607	6.58057	-4.30094	0	
0.2613	9.28207	0.860189	0	
0.2620	13.2997	1.46232	0	
0.2627	16.3475	-3.35474	0	
0.2633	13.5768	-3.09668	0	
0.2640	11.7758	0.258057	0	
0.2647	14.2002	0.602132	0	
0.2653	18.4949	0.258057	0	
0.2660	23.0666	-0.602132	0	
0.2667	23.6208	-2.15047	0	
0.2673	14.2002	0.258057	0	
0.2680	2.90931	1.20426	0	
0.2687	-2.28588	-2.49455	0	
0.2693	-7.204	-3.09668	0	
0.2700	-13.5768	0	0	
0.2707	-12.6763	-2.15047	0	
0.2713	-7.48107	-6.10734	0	
0.2720	-4.43323	-4.90308	0	
0.2727	-0.761961	-3.35474	0	
0.2733	10.2518	-5.24715	0	
0.2740	23.9671	-5.24715	0	
0.2747	31.3097	-1.20426	0	
0.2753	27.015	0.258057	0	
0.2760	12.9533	0.258057	0	
0.2767	-3.53273	2.15047	0	
0.2773	-21.8198	1.46232	0	
0.2780	-41.0766	-3.35474	0	
0.2787	-45.025	-4.30094	0	
0.2793	-24.5906	-1.20426	0	
0.2800	-8.38157	0.258057	0	
0.2807	-22.4432	-0.602132	0	
0.2813	-40.4532	-1.54834	0	
0.2820	-40.4532	-0.602132	0	
0.2827	-39.8298	1.20426	0	
0.2833	-44.6786	0	0	
0.2840	-41.0766	-1.89241	0	
0.2847	-33.7341	1.20426	0	
0.2853	-30.3399	3.01066	0	
0.2860	-23.3437	0	0	
0.2867	-13.5768	-1.54834	0	
0.2873	-8.1045	-0.602132	0	
0.2880	-2.56296	-1.54834	0	
0.2887	2.00881	-2.15047	0	
0.2893	3.80981	0.258057	0	
0.2900	11.7758	1.46232	0	
0.2907	18.4949	0.258057	0	
0.2913	11.4294	0.258057	0	
0.2920	3.53273	0.258057	0	
0.2927	5.6108	-1.54834	0	
0.2933	5.6108	-2.49455	0	
0.2940	0.761961	0	0	
0.2947	1.03904	1.20426	0	
0.2953	6.23423	0	0	
0.2960	9.28207	0.258057	0	
0.2967	10.5289	0.602132	0	
0.2973	8.1045	-1.20426	0	
0.2980	2.56296	-1.54834	0	
0.2987	-2.90931	-0.602132	0	
0.2993	-6.23423	-0.344075	0	
0.3000	-6.58057	-0.946207	0	
0.3007	-5.33373	0.258057	0	
0.3013	-8.38157	2.15047	0	
0.3020	-11.7758	0.258057	0	
0.3027	-8.72792	-1.89241	0	
0.3033	-0.484884	0.258057	0	
0.3040	11.4294	2.40853	0	
0.3047	27.6384	0.258057	0	
0.3053	35.8814	1.20426	0	
0.3060	27.015	4.21492	0	
0.3067	15.7241	2.40853	0	
0.3073	15.7241	-1.20426	0	
0.3080	18.1485	-0.946207	0	
0.3087	13.2997	-0.946207	0	
0.3093	8.38157	-1.54834	0	
0.3100	7.48107	0.258057	0	
0.3107	4.08688	0.602132	0	
0.3113	-0.138538	-2.15047	0	
0.3120	-0.484884	-0.946207	0	
0.3127	-2.56296	0.860189	0	
0.3133	-6.85765	-2.49455	0	
0.3140	-3.53273	-5.50521	0	
0.3147	3.18638	-4.559	0	
0.3153	5.6108	-2.7526	0	
0.3160	11.1523	-2.7526	0	
0.3167	24.8676	-4.559	0	
0.3173	37.6824	-6.70947	0	
0.3180	42.6006	-4.559	0	
0.3187	32.2102	0.258057	0	
0.3193	8.72792	0.602132	0	
0.3200	-4.43323	-1.20426	0	
0.3207	3.18638	-0.602132	0	
0.3213	13.5768	2.15047	0	
0.3220	12.0528	4.21492	0	
0.3227	-0.138538	5.16113	0	
0.3233	-16.6246	4.21492	0	
0.3240	-26.3916	3.01066	0	
0.3247	-26.3916	3.35474	0	
0.3253	-26.1145	3.61279	0	
0.3260	-19.049	3.35474	0	
0.3267	9.005	4.81706	0	
0.3273	41.6308	6.70947	0	
0.3280	51.3977	5.50521	0	
0.3287	37.6824	2.7526	0	
0.3293	16.6246	2.15047	0	
0.3300	-5.33373	3.01066	0	
0.3307	-35.5351	1.8064	0	
0.3313	-73.079	1.20426	0	
0.3320	-92.3358	2.7526	0	
0.3327	-71.5551	2.40853	0	
0.3333	-33.7341	1.8064	0	
0.3340	-13.5768	3.95687	0	
0.3347	-10.806	4.81706	0	
0.3353	-9.90549	2.15047	0	
0.3360	-7.75815	2.15047	0	
0.3367	-8.72792	4.559	0	
0.3373	-12.3299	3.95687	0	
0.3380	-16.6246	2.7526	0	
0.3387	-18.1485	4.21492	0	
0.3393	-16.3475	5.76326	0	
0.3400	-14.8236	6.3654	0	
0.3407	-11.7758	6.70947	0	
0.3413	-1.66246	6.10734	0	
0.3420	7.48107	4.81706	0	
0.3427	7.75815	3.95687	0	
0.3433	6.85765	2.15047	0	
0.3440	12.0528	1.20426	0	
0.3447	16.3475	2.15047	0	
0.3453	16.6246	2.15047	0	
0.3460	12.9533	1.46232	0	
0.3467	3.80981	2.15047	0	
0.3473	-5.33373	3.01066	0	
0.3480	-8.38157	2.15047	0	
0.3487	-8.72792	1.20426	0	
0.3493	-5.68007	1.8064	0	
0.3500	-0.761961	1.20426	0	
0.3507	-1.03904	-0.602132	0	
0.3513	-3.80981	-1.54834	0	
0.3520	-0.761961	-2.7526	0	
0.3527	2.90931	-3.35474	0	
0.3533	4.71031	-1.54834	0	
0.3540	10.2518	-0.602132	0	
0.3547	15.3778	-1.89241	0	
0.3553	17.5251	-1.54834	0	
0.3560	18.1485	-0.602132	0	
0.3567	14.8236	0	0	
0.3573	11.1523	1.20426	0	
0.3580	12.3299	2.15047	0	
0.3587	10.2518	3.01066	0	
0.3593	3.18638	1.46232	0	
0.3600	1.03904	-1.54834	0	
0.3607	-1.03904	1.46232	0	
0.3613	-9.005	6.96753	0	
0.3620	-12.3299	3.61279	0	
0.3627	-7.75815	-1.54834	0	
0.3633	-0.761961	0.602132	0	
0.3640	8.38157	-0.602132	0	
0.3647	16.3475	-4.30094	0	
0.3653	19.3954	-0.602132	0	
0.3660	25.1447	0.602132	0	
0.3667	36.4356	-3.35474	0	
0.3673	45.6484	-0.602132	0	
0.3680	41.3537	2.7526	0	
0.3687	17.5251	-0.602132	0	
0.3693	-14.4773	-0.946207	0	
0.3700	-28.2618	2.40853	0	
0.3707	-20.9193	0.860189	0	
0.3713	-16.6246	0	0	
0.3720	-17.5251	3.01066	0	
0.3727	-9.005	2.15047	0	
0.3733	2.28588	0	0	
0.3740	4.71031	2.40853	0	
0.3747	4.71031	3.95687	0	
0.3753	8.38157	1.20426	0	
0.3760	8.1045	0.258057	0	
0.3767	4.71031	1.46232	0	
0.3773	3.53273	3.35474	0	
0.3780	2.90931	6.70947	0	
0.3787	2.00881	7.3116	0	
0.3793	3.80981	4.81706	0	
0.3800	5.33373	4.21492	0	
0.3807	2.90931	5.76326	0	
0.3813	2.00881	4.81706	0	
0.3820	5.05665	1.46232	0	
0.3827	10.2518	-2.15047	0	
0.3833	15.7241	-2.7526	0	
0.3840	19.3954	0.258057	0	
0.3847	20.0188	0.602132	0	
0.3853	17.8715	-1.89241	0	
0.3860	12.0528	-1.54834	0	
0.3867	3.80981	1.20426	0	
0.3873	-3.80981	1.20426	0	
0.3880	-10.806	-0.344075	0	
0.3887	-16.3475	-1.89241	0	
0.3893	-17.248	-2.49455	0	
0.3900	-14.8236	-1.20426	0	
0.3907	-13.5768	-0.602132	0	
0.3913	-16.0012	-0.344075	0	
0.3920	-18.1485	2.7526	0	
0.3927	-13.5768	3.01066	0	
0.3933	-5.33373	-0.602132	0	
0.3940	-2.56296	-1.20426	0	
0.3947	-3.53273	1.8064	0	
0.3953	1.03904	1.20426	0	
0.3960	12.6763	-0.344075	0	
0.3967	20.0188	0.258057	0	
0.3973	17.5251	-2.49455	0	
0.3980	15.3778	-4.559	0	
0.3987	17.5251	-3.35474	0	
0.3993	15.3778	-4.559	0	
0.4000	6.23423	-7.3116	0	
0.4007	-1.38538	-5.24715	0	
0.4013	-7.48107	-3.69881	0	
0.4020	-15.1007	-5.50521	0	
0.4027	-16.971	-4.30094	0	
0.4033	-8.72792	-2.49455	0	
0.4040	-0.761961	-4.90308	0	
0.4047	-0.761961	-4.30094	0	
0.4053	-2.28588	-1.20426	0	
0.4060	0.138538	-2.49455	0	
0.4067	0.761961	-2.7526	0	
0.4073	-3.53273	0.258057	0	
0.4080	-7.204	0.860189	0	
0.4087	-6.23423	-1.89241	0	
0.4093	-3.80981	-3.35474	0	
0.4100	-7.48107	-1.54834	0	
0.4107	-16.3475	3.01066	0	
0.4113	-12.6763	4.81706	0	
0.4120	5.6108	1.20426	0	
0.4127	18.1485	-0.946207	0	
0.4133	20.9193	1.20426	0	
0.4140	24.5906	0.258057	0	
0.4147	21.1964	-2.49455	0	
0.4153	0.484884	-1.54834	0	
0.4160	-23.9671	-1.54834	0	
0.4167	-33.1107	-4.30094	0	
0.4173	-26.3916	-6.10734	0	
0.4180	-15.447	-3.95687	0	
0.4187	-6.23423	-2.7526	0	
0.4193	2.90931	-3.69881	0	
0.4200	10.5289	-3.69881	0	
0.4207	16.0012	-1.89241	0	
0.4213	17.8715	-1.89241	0	
0.4220	11.1523	-3.35474	0	
0.4227	-1.66246	-3.35474	0	
0.4233	-4.43323	-3.35474	0	
0.4240	0.138538	-3.35474	0	
0.4247	-3.80981	-2.49455	0	
0.4253	-9.005	-3.35474	0	
0.4260	-1.66246	-6.45141	0	
0.4267	5.95715	-7.05355	0	
0.4273	-2.56296	-4.30094	0	
0.4280	-17.5251	-2.49455	0	
0.4287	-23.0666	-5.50521	0	
0.4293	-23.3437	-7.65568	0	
0.4300	-25.1447	-4.559	0	
0.4307	-24.5906	-1.54834	0	
0.4313	-20.0188	-1.54834	0	
0.4320	-18.1485	-2.49455	0	
0.4327	-20.0188	-4.30094	0	
0.4333	-22.7203	-4.90308	0	
0.4340	-20.9193	-3.35474	0	
0.4347	-10.806	-2.49455	0	
0.4353	1.03904	-2.49455	0	
0.4360	8.38157	-1.20426	0	
0.4367	12.9533	-0.946207	0	
0.4373	10.806	-1.54834	0	
0.4380	-0.484884	0.258057	0	
0.4387	-6.23423	1.20426	0	
0.4393	-3.80981	0	0	
0.4400	-7.48107	1.46232	0	
0.4407	-16.0012	3.01066	0	
0.4413	-19.3954	1.46232	0	
0.4420	-20.0188	0.602132	0	
0.4427	-17.5251	-0.602132	0	
0.4433	-9.90549	-2.49455	0	
0.4440	-4.43323	0	0	
0.4447	-4.43323	2.15047	0	
0.4453	-2.56296	0.258057	0	
0.4460	-0.138538	1.20426	0	
0.4467	1.03904	5.16113	0	
0.4473	1.03904	3.95687	0	
0.4480	0.138538	-0.344075	0	
0.4487	2.90931	0	0	
0.4493	9.28207	1.46232	0	
0.4500	12.0528	1.20426	0	
0.4507	14.4773	0.258057	0	
0.4513	20.2959	-0.344075	0	
0.4520	23.9671	-1.20426	0	
0.4527	25.7681	-3.09668	0	
0.4533	27.2921	-3.69881	0	
0.4540	24.5906	-0.602132	0	
0.4547	21.1964	1.20426	0	
0.4553	20.9193	-2.49455	0	
0.4560	18.4949	-3.35474	0	
0.4567	13.5768	0	0	
0.4573	6.85765	0.258057	0	
0.4580	-10.2518	-0.602132	0	
0.4587	-27.9155	0	0	
0.4593	-27.2921	-1.89241	0	
0.4600	-18.1485	-2.15047	0	
0.4607	-16.6246	3.35474	0	
0.4613	-17.8715	5.50521	0	
0.4620	-17.8715	2.15047	0	
0.4627	-17.8715	0.258057	0	
0.4633	-12.6763	0.258057	0	
0.4640	-1.66246	-0.602132	0	
0.4647	14.2002	0.860189	0	
0.4653	41.0766	2.15047	0	
0.4660	73.4253	0	0	
0.4667	96.2842	-1.54834	0	
0.4673	96.9076	-1.20426	0	
0.4680	69.7541	-2.49455	0	
0.4687	29.4394	-3.09668	0	
0.4693	-0.138538	-2.15047	0	
0.4700	-18.1485	-2.15047	0	
0.4707	-31.8638	-1.54834	0	
0.4713	-39.2064	0.258057	0	
0.4720	-36.7819	1.46232	0	
0.4727	-27.015	1.20426	0	
0.4733	-14.4773	1.20426	0	
0.4740	-12.6763	0.258057	0	
0.4747	-25.4911	0	0	
0.4753	-34.9117	2.15047	0	
0.4760	-38.0288	2.40853	0	
0.4767	-41.0766	-0.602132	0	
0.4773	-36.4356	-0.344075	0	
0.4780	-22.7203	2.7526	0	
0.4787	-14.8236	0.258057	0	
0.4793	-14.2002	-3.69881	0	
0.4800	-12.0528	-1.20426	0	
0.4807	-9.005	2.15047	0	
0.4813	-4.08688	0.602132	0	
0.4820	9.28207	0.258057	0	
0.4827	29.4394	1.8064	0	
0.4833	45.9255	-0.602132	0	
0.4840	51.3977	-1.54834	0	
0.4847	45.9255	0.258057	0	
0.4853	30.3399	-0.602132	0	
0.4860	6.58057	-1.54834	0	
0.4867	-19.3954	0.258057	0	
0.4873	-38.9293	-1.20426	0	
0.4880	-41.3537	-1.20426	0	
0.4887	-27.015	3.95687	0	
0.4893	-10.806	5.16113	0	
0.4900	-3.80981	2.7526	0	
0.4907	-0.761961	3.61279	0	
0.4913	2.56296	4.81706	0	
0.4920	5.6108	3.35474	0	
0.4927	10.806	2.7526	0	
0.4933	17.248	0.258057	0	
0.4940	20.0188	-3.35474	0	
0.4947	20.0188	-3.09668	0	
0.4953	23.3437	-2.7526	0	
0.4960	29.4394	-3.69881	0	
0.4967	31.3097	-2.49455	0	
0.4973	25.7681	-1.89241	0	
0.4980	15.7241	-2.15047	0	
0.4987	5.33373	-0.602132	0	
0.4993	-3.18638	0.258057	0	
0.5000	-8.72792	-1.54834	0	
0.5007	-7.48107	-3.09668	0	
0.5013	-5.95715	-2.49455	0	
0.5020	-13.8538	1.20426	0	
0.5027	-25.4911	3.95687	0	
0.5033	-28.816	4.21492	0	
0.5040	-25.4911	3.35474	0	
0.5047	-20.573	3.01066	0	
0.5053	-16.3475	2.7526	0	
0.5060	-14.2002	4.559	0	
0.5067	-13.2997	5.76326	0	
0.5073	-12.3299	3.01066	0	
0.5080	-13.5768	0.258057	0	
0.5087	-14.4773	0.258057	0	
0.5093	-13.8538	1.8064	0	
0.5100	-7.204	3.95687	0	
0.5107	12.0528	4.81706	0	
0.5113	37.4054	3.95687	0	
0.5120	52.3675	4.81706	0	
0.5127	48.9733	6.96753	0	
0.5133	28.5389	8.85994	0	
0.5140	4.43323	9.46207	0	
0.5147	-5.33373	9.46207	0	
0.5153	-7.75815	7.91374	0	
0.5160	-14.2002	6.96753	0	
0.5167	-17.8715	7.56966	0	
0.5173	-23.6208	7.56966	0	
0.5180	-38.3059	7.3116	0	
0.5187	-44.6786	8.25781	0	
0.5193	-32.4873	9.46207	0	
0.5200	-20.573	10.3223	0	
0.5207	-13.5768	11.2685	0	
0.5213	-5.95715	10.3223	0	
0.5220	-3.53273	6.96753	0	
0.5227	-6.23423	5.50521	0	
0.5233	-4.43323	5.76326	0	
0.5240	0.761961	4.21492	0	
0.5247	5.33373	1.8064	0	
0.5253	9.28207	1.20426	0	
0.5260	10.2518	2.15047	0	
0.5267	9.90549	2.40853	0	
0.5273	12.0528	1.8064	0	
0.5280	12.9533	0.860189	0	
0.5287	11.1523	0.258057	0	
0.5293	12.0528	0.602132	0	
0.5300	15.7241	1.20426	0	
0.5307	14.8236	1.46232	0	
0.5313	13.8538	1.8064	0	
0.5320	16.0012	4.21492	0	
0.5327	18.772	5.76326	0	
0.5333	18.772	1.8064	0	
0.5340	16.6246	-1.89241	0	
0.5347	14.2002	1.20426	0	
0.5353	14.8236	2.15047	0	
0.5360	13.8538	-1.20426	0	
0.5367	6.85765	0.258057	0	
0.5373	1.66246	3.01066	0	
0.5380	0.484884	0.860189	0	
0.5387	-3.80981	-1.54834	0	
0.5393	-6.85765	-1.54834	0	
0.5400	-2.28588	-0.946207	0	
0.5407	0.761961	0.860189	0	
0.5413	-3.53273	0.602132	0	
0.5420	-10.806	-2.7526	0	
0.5427	-19.3954	-3.95687	0	
0.5433	-25.4911	-1.54834	0	
0.5440	-22.7203	-0.602132	0	
0.5447	-12.6763	0.258057	0	
0.5453	5.95715	0.602132	0	
0.5460	32.2102	-1.54834	0	
0.5467	49.8738	-3.95687	0	
0.5473	50.8436	-4.559	0	
0.5480	47.7265	-4.30094	0	
0.5487	49.2504	-2.7526	0	
0.5493	42.2542	-0.946207	0	
0.5500	18.1485	-0.602132	0	
0.5507	-8.1045	0	0	
0.5513	-13.5768	-1.20426	0	
0.5520	-4.08688	-3.95687	0	
0.5527	-6.58057	-3.35474	0	
0.5533	-25.1447	-1.54834	0	
0.5540	-39.2064	-2.49455	0	
0.5547	-41.9771	-2.7526	0	
0.5553	-45.6484	-0.602132	0	
0.5560	-50.4972	-0.344075	0	
0.5567	-45.6484	-1.54834	0	
0.5573	-35.258	-2.7526	0	
0.5580	-31.8638	-4.30094	0	
0.5587	-32.8336	-2.15047	0	
0.5593	-30.0628	0	0	
0.5600	-27.9155	-2.7526	0	
0.5607	-29.7858	-4.30094	0	
0.5613	-30.0628	-2.49455	0	
0.5620	-29.1623	-2.7526	0	
0.5627	-28.816	-3.09668	0	
0.5633	-22.7203	-1.89241	0	
0.5640	-7.48107	-2.49455	0	
0.5647	11.1523	-1.89241	0	
0.5653	28.816	1.20426	0	
0.5660	44.6786	1.20426	0	
0.5667	47.7265	-1.20426	0	
0.5673	29.4394	-0.602132	0	
0.5680	3.80981	-1.20426	0	
0.5687	-9.005	-4.30094	0	
0.5693	-13.8538	-4.30094	0	
0.5700	-20.573	-1.20426	0	
0.5707	-19.049	-0.946207	0	
0.5713	-4.43323	-3.09668	0	
0.5720	6.23423	-3.09668	0	
0.5727	4.43323	-2.49455	0	
0.5733	2.28588	-2.49455	0	
0.5740	5.95715	-1.20426	0	
0.5747	8.1045	1.20426	0	
0.5753	10.2518	1.20426	0	
0.5760	16.0012	-0.344075	0	
0.5767	15.1007	-0.344075	0	
0.5773	3.18638	-0.602132	0	
0.5780	-7.204	-1.54834	0	
0.5787	-9.005	-2.49455	0	
0.5793	-6.58057	-2.49455	0	
0.5800	-1.03904	-1.20426	0	
0.5807	3.80981	-1.54834	0	
0.5813	2.90931	-3.09668	0	
0.5820	2.90931	0.258057	0	
0.5827	7.75815	4.21492	0	
0.5833	13.2997	1.8064	0	
0.5840	16.6246	-2.15047	0	
0.5847	17.5251	-0.602132	0	
0.5853	16.9017	1.46232	0	
0.5860	20.2959	-0.602132	0	
0.5867	22.0969	-2.15047	0	
0.5873	12.0528	-0.946207	0	
0.5880	-0.761961	-0.344075	0	
0.5887	-3.18638	0	0	
0.5893	-1.03904	1.20426	0	
0.5900	2.56296	0.860189	0	
0.5907	9.62842	-1.54834	0	
0.5913	13.8538	-2.49455	0	
0.5920	12.3299	-3.35474	0	
0.5927	7.48107	-4.90308	0	
0.5933	-0.138538	-4.559	0	
0.5940	-8.1045	-2.7526	0	
0.5947	-8.38157	-2.15047	0	
0.5953	-0.761961	-1.54834	0	
0.5960	9.28207	-2.15047	0	
0.5967	15.7241	-3.95687	0	
0.5973	15.3778	-4.30094	0	
0.5980	11.1523	-3.35474	0	
0.5987	6.58057	-5.24715	0	
0.5993	4.08688	-6.10734	0	
0.6000	5.05665	-3.35474	0	
0.6007	7.204	-2.15047	0	
0.6013	6.58057	-4.90308	0	
0.6020	4.71031	-6.10734	0	
0.6027	1.66246	-4.30094	0	
0.6033	-5.05665	-3.69881	0	
0.6040	-11.1523	-4.30094	0	
0.6047	-11.7758	-3.69881	0	
0.6053	-6.85765	-4.30094	0	
0.6060	-0.138538	-4.30094	0	
0.6067	2.00881	-1.54834	0	
0.6073	2.00881	0.258057	0	
0.6080	8.1045	-1.54834	0	
0.6087	9.90549	-2.15047	0	
0.6093	-10.2518	-1.54834	0	
0.6100	-37.4054	-0.602132	0	
0.6107	-43.7781	0.602132	0	
0.6113	-34.6346	0	0	
0.6120	-26.3916	-2.15047	0	
0.6127	-17.8715	-1.20426	0	
0.6133	-4.43323	1.20426	0	
0.6140	2.90931	0.602132	0	
0.6147	1.03904	-1.54834	0	
0.6153	-5.33373	-2.49455	0	
0.6160	-11.7758	-2.49455	0	
0.6167	-12.6763	-3.35474	0	
0.6173	-6.58057	-6.10734	0	
0.6180	-2.00881	-6.70947	0	
0.6187	-2.00881	-5.24715	0	
0.6193	-1.03904	-3.95687	0	
0.6200	-0.138538	-2.7526	0	
0.6207	-3.80981	-4.30094	0	
0.6213	-9.005	-6.70947	0	
0.6220	-9.62842	-4.30094	0	
0.6227	-4.43323	-1.54834	0	
0.6233	-0.138538	-3.09668	0	
0.6240	1.38538	-4.30094	0	
0.6247	11.7758	-2.15047	0	
0.6253	30.6863	-0.344075	0	
0.6260	41.9771	-0.946207	0	
0.6267	39.2064	-3.35474	0	
0.6273	32.2102	-3.95687	0	
0.6280	22.4432	-2.49455	0	
0.6287	3.53273	-3.35474	0	
0.6293	-20.0188	-6.45141	0	
0.6300	-33.7341	-7.05355	0	
0.6307	-29.1623	-4.30094	0	
0.6313	-18.1485	-1.20426	0	
0.6320	-16.3475	0.258057	0	
0.6327	-17.248	0.860189	0	
0.6333	-12.3299	2.15047	0	
0.6340	-5.05665	1.20426	0	
0.6347	2.00881	-1.54834	0	
0.6353	6.58057	0.602132	0	
0.6360	6.85765	4.81706	0	
0.6367	10.2518	3.61279	0	
0.6373	18.4949	2.40853	0	
0.6380	20.0188	4.81706	0	
0.6387	16.9017	5.16113	0	
0.6393	16.6246	4.559	0	
0.6400	14.2002	4.81706	0	
0.6407	9.005	3.95687	0	
0.6413	9.28207	3.01066	0	
0.6420	12.0528	3.95687	0	
0.6427	5.6108	3.61279	0	
0.6433	-8.72792	0.860189	0	
0.6440	-16.3475	-0.344075	0	
0.6447	-11.7758	0.258057	0	
0.6453	-2.56296	2.15047	0	
0.6460	6.58057	3.01066	0	
0.6467	16.0012	1.8064	0	
0.6473	14.8236	1.46232	0	
0.6480	-4.43323	1.20426	0	
0.6487	-25.1447	0.258057	0	
0.6493	-30.6863	0.860189	0	
0.6500	-22.7203	3.01066	0	
0.6507	-10.2518	3.95687	0	
0.6513	3.80981	3.95687	0	
0.6520	16.3475	2.7526	0	
0.6527	13.2997	-0.602132	0	
0.6533	-8.72792	0.258057	0	
0.6540	-29.4394	3.95687	0	
0.6547	-34.3575	3.61279	0	
0.6553	-29.1623	1.20426	0	
0.6560	-18.4949	2.40853	0	
0.6567	-7.204	3.95687	0	
0.6573	-6.85765	3.01066	0	
0.6580	-13.5768	0.602132	0	
0.6587	-12.6763	0.602132	0	
0.6593	-8.1045	0.860189	0	
0.6600	-6.58057	-1.54834	0	
0.6607	-3.80981	-1.54834	0	
0.6613	-1.66246	2.7526	0	
0.6620	-3.80981	4.559	0	
0.6627	-4.71031	1.8064	0	
0.6633	-2.90931	0.258057	0	
0.6640	-2.56296	-0.602132	0	
0.6647	-2.00881	-1.89241	0	
0.6653	-0.484884	1.20426	0	
0.6660	0.484884	4.21492	0	
0.6667	3.53273	3.01066	0	
0.6673	7.48107	3.95687	0	
0.6680	6.85765	6.10734	0	
0.6687	6.58057	3.95687	0	
0.6693	11.1523	1.8064	0	
0.6700	13.2997	3.61279	0	
0.6707	10.2518	4.81706	0	
0.6713	10.806	3.01066	0	
0.6720	14.4773	1.8064	0	
0.6727	16.3475	2.15047	0	
0.6733	19.3954	3.01066	0	
0.6740	23.0666	3.01066	0	
0.6747	23.6208	0.860189	0	
0.6753	23.6208	-0.344075	0	
0.6760	23.0666	0.602132	0	
0.6767	15.3778	0.602132	0	
0.6773	6.23423	0.258057	0	
0.6780	2.56296	0.860189	0	
0.6787	2.28588	0	0	
0.6793	3.80981	-3.35474	0	
0.6800	8.38157	-4.30094	0	
0.6807	12.0528	-1.89241	0	
0.6813	13.8538	-1.89241	0	
0.6820	14.8236	-2.15047	0	
0.6827	13.8538	0	0	
0.6833	15.3778	1.46232	0	
0.6840	17.248	1.20426	0	
0.6847	8.38157	0.258057	0	
0.6853	-9.90549	0	0	
0.6860	-19.049	-0.602132	0	
0.6867	-17.248	-0.344075	0	
0.6873	-20.2959	1.20426	0	
0.6880	-29.4394	3.01066	0	
0.6887	-34.6346	3.95687	0	
0.6893	-32.8336	3.35474	0	
0.6900	-26.7379	2.40853	0	
0.6907	-21.8198	0.258057	0	
0.6913	-17.8715	0	0	
0.6920	-6.58057	3.61279	0	
0.6927	12.9533	4.21492	0	
0.6933	29.7858	0.258057	0	
0.6940	35.8814	0	0	
0.6947	25.4911	2.40853	0	
0.6953	-2.56296	2.7526	0	
0.6960	-24.5906	1.8064	0	
0.6967	-23.6208	1.20426	0	
0.6973	-20.9193	0.860189	0	
0.6980	-26.3916	1.20426	0	
0.6987	-20.9193	0.602132	0	
0.6993	-9.90549	-0.602132	0	
0.7000	-7.48107	-1.89241	0	
0.7007	-5.05665	-3.95687	0	
0.7013	-1.03904	-3.35474	0	
0.7020	-4.43323	-1.20426	0	
0.7027	-8.1045	-0.602132	0	
0.7033	-8.38157	-0.344075	0	
0.7040	-10.5289	-0.602132	0	
0.7047	-7.48107	-2.15047	0	
0.7053	2.90931	-2.49455	0	
0.7060	14.8236	-1.54834	0	
0.7067	31.5868	-2.15047	0	
0.7073	52.3675	-2.49455	0	
0.7080	63.035	-1.54834	0	
0.7087	59.6408	-0.946207	0	
0.7093	48.0728	-1.20426	0	
0.7100	30.3399	-0.946207	0	
0.7107	4.43323	-0.946207	0	
0.7113	-25.1447	-1.20426	0	
0.7120	-42.6006	-2.49455	0	
0.7127	-35.5351	-2.49455	0	
0.7133	-15.1007	-1.20426	0	
0.7140	-1.66246	-0.946207	0	
0.7147	2.56296	-0.602132	0	
0.7153	4.71031	1.20426	0	
0.7160	2.00881	-0.344075	0	
0.7167	-8.1045	-3.35474	0	
0.7173	-15.447	-3.09668	0	
0.7180	-10.5289	-1.89241	0	
0.7187	0.761961	-2.49455	0	
0.7193	6.23423	-1.20426	0	
0.7200	6.85765	0.860189	0	
0.7207	6.85765	-0.602132	0	
0.7213	3.80981	-3.09668	0	
0.7220	-0.761961	-3.35474	0	
0.7227	-0.761961	-2.49455	0	
0.7233	1.03904	-1.54834	0	
0.7240	-1.03904	-1.20426	0	
0.7247	-1.66246	-1.54834	0	
0.7253	5.95715	-0.602132	0	
0.7260	15.7241	0.860189	0	
0.7267	27.2921	1.8064	0	
0.7273	39.2064	0.258057	0	
0.7280	27.2921	-0.602132	0	
0.7287	-9.62842	-1.20426	0	
0.7293	-30.9633	-3.69881	0	
0.7300	-33.7341	-3.35474	0	
0.7307	-55.4154	0.860189	0	
0.7313	-89.5651	1.46232	0	
0.7320	-96.0071	-1.20426	0	
0.7327	-70.0312	-0.602132	0	
0.7333	-35.258	0.258057	0	
0.7340	-11.7758	-1.54834	0	
0.7347	-4.71031	-3.09668	0	
0.7353	-2.28588	-2.7526	0	
0.7360	2.56296	-3.95687	0	
0.7367	5.05665	-4.90308	0	
0.7373	8.1045	-3.69881	0	
0.7380	14.8236	-0.946207	0	
0.7387	21.1964	1.20426	0	
0.7393	29.4394	0	0	
0.7400	37.4054	-1.89241	0	
0.7407	34.6346	0.258057	0	
0.7413	18.772	0.602132	0	
0.7420	-2.56296	-3.95687	0	
0.7427	-21.5427	-5.24715	0	
0.7433	-34.0112	-0.602132	0	
0.7440	-41.3537	1.8064	0	
0.7447	-42.8776	0.258057	0	
0.7453	-30.9633	0.602132	0	
0.7460	-10.2518	0.602132	0	
0.7467	3.18638	-2.49455	0	
0.7473	6.58057	-3.09668	0	
0.7480	9.28207	0	0	
0.7487	11.1523	0.860189	0	
0.7493	12.9533	-0.602132	0	
0.7500	18.772	-0.946207	0	
0.7507	24.8676	-1.20426	0	
0.7513	25.1447	-1.54834	0	
0.7520	24.2442	-0.602132	0	
0.7527	23.0666	-0.602132	0	
0.7533	14.8236	-1.54834	0	
0.7540	6.23423	-2.15047	0	
0.7547	2.56296	-0.602132	0	
0.7553	2.00881	1.8064	0	
0.7560	11.1523	3.61279	0	
0.7567	32.4873	4.21492	0	
0.7573	45.3021	4.21492	0	
0.7580	38.5829	3.95687	0	
0.7587	25.4911	3.95687	0	
0.7593	12.0528	2.7526	0	
0.7600	-11.7758	-0.344075	0	
0.7607	-35.258	-0.344075	0	
0.7613	-38.3059	2.40853	0	
0.7620	-25.1447	1.46232	0	
0.7627	-15.447	-2.15047	0	
0.7633	-13.5768	-3.35474	0	
0.7640	-17.248	-2.15047	0	
0.7647	-23.6208	0	0	
0.7653	-25.4911	2.15047	0	
0.7660	-19.049	3.35474	0	
0.7667	-14.8236	3.61279	0	
0.7673	-14.8236	1.8064	0	
0.7680	-9.90549	-1.20426	0	
0.7687	-2.28588	-2.15047	0	
0.7693	-0.484884	-1.20426	0	
0.7700	2.56296	-1.54834	0	
0.7707	11.4294	-1.20426	0	
0.7713	16.9017	-1.54834	0	
0.7720	16.3475	-3.95687	0	
0.7727	16.6246	-5.50521	0	
0.7733	21.8198	-4.30094	0	
0.7740	30.0628	-5.50521	0	
0.7747	39.2064	-7.65568	0	
0.7753	47.4494	-5.50521	0	
0.7760	52.3675	-2.7526	0	
0.7767	48.3499	-4.30094	0	
0.7773	28.816	-3.35474	0	
0.7780	-0.484884	0	0	
0.7787	-20.9193	-1.54834	0	
0.7793	-27.9155	-6.10734	0	
0.7800	-37.059	-5.84928	0	
0.7807	-54.4456	-1.89241	0	
0.7813	-63.035	-0.946207	0	
0.7820	-53.8914	-2.15047	0	
0.7827	-40.7303	-1.89241	0	
0.7833	-31.5868	-3.09668	0	
0.7840	-22.0969	-5.84928	0	
0.7847	-9.62842	-5.50521	0	
0.7853	1.66246	-2.7526	0	
0.7860	4.71031	-1.54834	0	
0.7867	-0.138538	-1.54834	0	
0.7873	-4.43323	-2.49455	0	
0.7880	-4.08688	-2.49455	0	
0.7887	-5.33373	-0.602132	0	
0.7893	-9.28207	-1.54834	0	
0.7900	-10.806	-2.49455	0	
0.7907	-9.90549	1.20426	0	
0.7913	-8.38157	2.40853	0	
0.7920	-4.43323	-1.54834	0	
0.7927	0.761961	-2.49455	0	
0.7933	6.58057	0.258057	0	
0.7940	14.2002	-0.602132	0	
0.7947	19.3954	-1.89241	0	
0.7953	19.049	-0.602132	0	
0.7960	18.4949	0.258057	0	
0.7967	19.049	1.20426	0	
0.7973	17.5251	1.20426	0	
0.7980	14.8236	0.258057	0	
0.7987	13.8538	0.258057	0	
0.7993	13.2997	0	0	
0.8000	8.38157	-2.49455	0	
0.8007	3.53273	-1.89241	0	
0.8013	4.08688	1.20426	0	
0.8020	5.05665	0.258057	0	
0.8027	1.03904	-0.946207	0	
0.8033	0.484884	1.20426	0	
0.8040	4.71031	2.40853	0	
0.8047	2.00881	2.15047	0	
0.8053	-4.43323	3.35474	0	
0.8060	-0.761961	2.7526	0	
0.8067	12.0528	1.46232	0	
0.8073	22.4432	2.40853	0	
0.8080	30.6863	1.20426	0	
0.8087	45.6484	-0.946207	0	
0.8093	63.312	2.15047	0	
0.8100	66.3599	5.16113	0	
0.8107	49.5967	4.21492	0	
0.8113	24.5906	1.8064	0	
0.8120	2.28588	-0.946207	0	
0.8127	-10.806	-0.602132	0	
0.8133	-13.5768	3.01066	0	
0.8140	-11.4294	3.01066	0	
0.8147	-7.48107	0.860189	0	
0.8153	-9.005	3.01066	0	
0.8160	-20.9193	3.95687	0	
0.8167	-31.3097	3.01066	0	
0.8173	-28.816	5.76326	0	
0.8180	-21.5427	5.76326	0	
0.8187	-12.0528	2.15047	0	
0.8193	-0.761961	3.35474	0	
0.8200	3.53273	7.3116	0	
0.8207	8.1045	6.10734	0	
0.8213	23.9671	4.21492	0	
0.8220	37.9595	5.50521	0	
0.8227	41.0766	5.76326	0	
0.8233	36.4356	3.35474	0	
0.8240	16.9017	2.7526	0	
0.8247	-3.80981	4.81706	0	
0.8253	1.66246	4.81706	0	
0.8260	16.9017	0.602132	0	
0.8267	9.62842	-0.946207	0	
0.8273	-8.1045	0.860189	0	
0.8280	-18.1485	0.860189	0	
0.8287	-32.2102	-0.344075	0	
0.8293	-56.5929	-1.89241	0	
0.8300	-76.4732	-2.49455	0	
0.8307	-77.3737	0.258057	0	
0.8313	-58.4632	1.8064	0	
0.8320	-34.6346	-1.54834	0	
0.8327	-22.7203	-2.49455	0	
0.8333	-19.6725	-0.602132	0	
0.8340	-15.447	-2.49455	0	
0.8347	-11.7758	-3.35474	0	
0.8353	-12.6763	-1.20426	0	
0.8360	-12.9533	-0.946207	0	
0.8367	-12.0528	-1.89241	0	
0.8373	-11.7758	-2.15047	0	
0.8380	-9.005	-3.09668	0	
0.8387	-4.43323	-2.15047	0	
0.8393	-0.138538	0.602132	0	
0.8400	7.48107	-0.344075	0	
0.8407	19.3954	-2.7526	0	
0.8413	29.4394	-1.89241	0	
0.8420	30.3399	0.860189	0	
0.8427	17.248	1.8064	0	
0.8433	-3.80981	1.8064	0	
0.8440	-15.447	2.15047	0	
0.8447	-14.2002	3.61279	0	
0.8453	-15.7241	3.95687	0	
0.8460	-21.8198	2.15047	0	
0.8467	-19.049	0.602132	0	
0.8473	-9.28207	0.258057	0	
0.8480	-1.66246	0.860189	0	
0.8487	3.18638	2.40853	0	
0.8493	5.6108	2.15047	0	
0.8500	6.58057	0	0	
0.8507	12.0528	0.602132	0	
0.8513	19.3954	1.46232	0	
0.8520	21.5427	-0.344075	0	
0.8527	20.573	0	0	
0.8533	21.1964	1.46232	0	
0.8540	19.6725	1.20426	0	
0.8547	14.4773	1.46232	0	
0.8553	8.72792	1.20426	0	
0.8560	4.43323	-0.602132	0	
0.8567	1.03904	1.20426	0	
0.8573	0.484884	3.01066	0	
0.8580	1.38538	-0.344075	0	
0.8587	-2.00881	-1.89241	0	
0.8593	-9.62842	0.602132	0	
0.8600	-12.6763	0.258057	0	
0.8607	-8.38157	-1.54834	0	
0.8613	-3.80981	-0.602132	0	
0.8620	-2.28588	-0.602132	0	
0.8627	-3.18638	-1.54834	0	
0.8633	-3.53273	-0.602132	0	
0.8640	0.484884	-0.602132	0	
0.8647	9.005	-1.54834	0	
0.8653	18.4949	0.602132	0	
0.8660	28.5389	2.7526	0	
0.8667	38.3059	1.20426	0	
0.8673	46.2026	0	0	
0.8680	52.0212	1.20426	0	
0.8687	40.7303	0.258057	0	
0.8693	7.75815	-0.946207	0	
0.8700	-24.5906	1.46232	0	
0.8707	-44.4016	2.7526	0	
0.8713	-58.4632	-0.602132	0	
0.8720	-60.6105	-0.344075	0	
0.8727	-42.2542	2.15047	0	
0.8733	-16.3475	1.20426	0	
0.8740	1.03904	0.860189	0	
0.8747	7.75815	3.01066	0	
0.8753	9.62842	3.95687	0	
0.8760	12.0528	2.15047	0	
0.8767	12.9533	-1.20426	0	
0.8773	9.90549	-1.54834	0	
0.8780	2.90931	1.20426	0	
0.8787	-7.204	2.15047	0	
0.8793	-15.7241	0.602132	0	
0.8800	-17.5251	2.15047	0	
0.8807	-16.971	3.61279	0	
0.8813	-18.772	3.01066	0	
0.8820	-19.049	2.40853	0	
0.8827	-17.248	1.20426	0	
0.8833	-16.3475	-1.20426	0	
0.8840	-16.0012	-1.54834	0	
0.8847	-13.8538	-1.54834	0	
0.8853	-12.0528	-2.49455	0	
0.8860	-8.1045	-0.344075	0	
0.8867	-2.00881	2.15047	0	
0.8873	1.66246	1.20426	0	
0.8880	0.761961	0.860189	0	
0.8887	1.03904	2.7526	0	
0.8893	7.75815	3.01066	0	
0.8900	17.8715	1.8064	0	
0.8907	23.9671	1.20426	0	
0.8913	23.0666	1.20426	0	
0.8920	23.0666	0.602132	0	
0.8927	26.3916	2.15047	0	
0.8933	25.7681	3.01066	0	
0.8940	25.7681	2.15047	0	
0.8947	37.059	3.01066	0	
0.8953	49.5967	5.76326	0	
0.8960	45.9255	5.50521	0	
0.8967	31.8638	4.81706	0	
0.8973	14.8236	6.3654	0	
0.8980	-9.005	4.81706	0	
0.8987	-33.7341	2.15047	0	
0.8993	-43.5011	3.01066	0	
0.9000	-35.8814	3.95687	0	
0.9007	-22.0969	3.01066	0	
0.9013	-15.1007	3.01066	0	
0.9020	-14.4773	1.8064	0	
0.9027	-15.447	0.258057	0	
0.9033	-16.6246	2.15047	0	
0.9040	-19.049	4.81706	0	
0.9047	-19.049	4.81706	0	
0.9053	-16.3475	2.7526	0	
0.9060	-13.2997	0.602132	0	
0.9067	-9.62842	1.20426	0	
0.9073	-6.23423	2.7526	0	
0.9080	-2.56296	1.20426	0	
0.9087	2.90931	0	0	
0.9093	9.28207	0.258057	0	
0.9100	11.4294	0.860189	0	
0.9107	11.4294	0.258057	0	
0.9113	14.4773	0.258057	0	
0.9120	18.1485	0.258057	0	
0.9127	17.5251	0.258057	0	
0.9133	17.5251	0.860189	0	
0.9140	24.8676	0	0	
0.9147	34.6346	-1.54834	0	
0.9153	37.9595	-2.7526	0	
0.9160	33.1107	-2.49455	0	
0.9167	26.6686	-1.20426	0	
0.9173	23.9671	-1.54834	0	
0.9180	23.6208	-2.7526	0	
0.9187	11.7758	-3.09668	0	
0.9193	-13.5768	-3.35474	0	
0.9200	-35.5351	-4.30094	0	
0.9207	-49.3197	-3.69881	0	
0.9213	-61.1647	-1.54834	0	
0.9220	-62.6886	-0.602132	0	
0.9227	-48.9733	-1.20426	0	
0.9233	-37.059	-2.7526	0	
0.9240	-36.1585	-2.15047	0	
0.9247	-35.5351	-0.344075	0	
0.9253	-29.1623	-2.49455	0	
0.9260	-18.4949	-5.50521	0	
0.9267	-6.23423	-3.95687	0	
0.9273	2.00881	-3.09668	0	
0.9280	8.38157	-6.70947	0	
0.9287	17.8715	-7.05355	0	
0.9293	25.4911	-3.09668	0	
0.9300	31.3097	-4.30094	0	
0.9307	41.6308	-6.70947	0	
0.9313	47.4494	-3.69881	0	
0.9320	39.5527	-0.946207	0	
0.9327	24.8676	-1.89241	0	
0.9333	9.90549	-0.602132	0	
0.9340	-6.58057	1.20426	0	
0.9347	-28.5389	0.258057	0	
0.9353	-53.268	-0.344075	0	
0.9360	-63.035	1.46232	0	
0.9367	-42.8776	1.20426	0	
0.9373	-13.5768	0.258057	0	
0.9380	-0.761961	1.20426	0	
0.9387	-1.38538	-0.602132	0	
0.9393	-0.761961	-4.30094	0	
0.9400	-0.761961	-2.7526	0	
0.9407	-3.18638	0.258057	0	
0.9413	-6.23423	-0.602132	0	
0.9420	-10.806	-1.54834	0	
0.9427	-15.7241	0.860189	0	
0.9433	-13.5768	0.602132	0	
0.9440	-6.23423	-1.54834	0	
0.9447	-3.18638	-1.54834	0	
0.9453	-4.43323	-1.20426	0	
0.9460	-4.08688	-2.7526	0	
0.9467	-2.56296	-3.35474	0	
0.9473	-2.00881	-2.15047	0	
0.9480	-1.66246	-1.54834	0	
0.9487	2.00881	-2.49455	0	
0.9493	7.48107	-3.69881	0	
0.9500	8.72792	-1.54834	0	
0.9507	5.6108	3.35474	0	
0.9513	5.05665	3.01066	0	
0.9520	8.1045	-0.602132	0	
0.9527	12.9533	-0.946207	0	
0.9533	16.6246	1.20426	0	
0.9540	13.5768	1.20426	0	
0.9547	5.33373	0	0	
0.9553	1.03904	-2.15047	0	
0.9560	2.56296	-1.20426	0	
0.9567	4.43323	2.15047	0	
0.9573	5.05665	0	0	
0.9580	5.6108	-2.7526	0	
0.9587	4.71031	0.258057	0	
0.9593	3.18638	1.20426	0	
0.9600	1.03904	-2.7526	0	
0.9607	-3.53273	-2.7526	0	
0.9613	-8.38157	-0.344075	0	
0.9620	-5.68007	-1.89241	0	
0.9627	5.6108	-4.559	0	
0.9633	14.8236	-4.90308	0	
0.9640	18.4949	-3.35474	0	
0.9647	25.1447	-1.54834	0	
0.9653	39.5527	-2.15047	0	
0.9660	56.3159	-4.90308	0	
0.9667	67.8838	-6.70947	0	
0.9673	64.2125	-6.10734	0	
0.9680	39.5527	-4.30094	0	
0.9687	3.18638	-2.49455	0	
0.9693	-29.1623	-1.54834	0	
0.9700	-53.5451	-2.49455	0	
0.9707	-71.9014	-3.35474	0	
0.9713	-72.8019	-3.09668	0	
0.9720	-53.5451	-3.35474	0	
0.9727	-37.059	-3.69881	0	
0.9733	-36.1585	-3.35474	0	
0.9740	-39.2064	-2.15047	0	
0.9747	-38.9293	-0.946207	0	
0.9753	-34.0112	0.860189	0	
0.9760	-20.0188	-0.344075	0	
0.9767	-0.138538	-3.95687	0	
0.9773	16.6246	-3.09668	0	
0.9780	28.5389	-0.602132	0	
0.9787	34.9117	-2.49455	0	
0.9793	30.6863	-2.7526	0	
0.9800	20.9193	-1.89241	0	
0.9807	12.6763	-4.30094	0	
0.9813	5.6108	-4.559	0	
0.9820	-4.08688	-2.15047	0	
0.9827	-15.447	-3.35474	0	
0.9833	-22.4432	-3.09668	0	
0.9840	-21.1964	-0.946207	0	
0.9847	-16.0012	-3.35474	0	
0.9853	-10.5289	-4.30094	0	
0.9860	-3.53273	0.258057	0	
0.9867	2.28588	1.20426	0	
0.9873	4.71031	-1.54834	0	
0.9880	6.58057	0.258057	0	
0.9887	6.58057	2.7526	0	
0.9893	2.90931	2.40853	0	
0.9900	0.138538	2.15047	0	
0.9907	-0.138538	0.860189	0	
0.9913	-5.05665	0.258057	0	
0.9920	-11.7758	2.40853	0	
0.9927	-11.4294	3.01066	0	
0.9933	-5.68007	0.258057	0	
0.9940	1.03904	0.258057	0	
0.9947	9.28207	1.46232	0	
0.9953	16.6246	1.46232	0	
0.9960	23.0666	2.40853	0	
0.9967	32.8336	2.7526	0	
0.9973	46.826	0	0	
0.9980	56.3159	-0.946207	0	
0.9987	48.0728	0	0	
0.9993	27.015	-0.946207	0	
1.0000	15.3778	-1.54834	0	
1.0007	17.8715	0.258057	0	
1.0013	16.9017	0.258057	0	
1.0020	5.6108	-1.89241	0	
1.0027	-5.68007	-2.7526	0	
1.0033	-12.0528	-3.09668	0	
1.0040	-13.8538	-3.35474	0	
1.0047	-13.2997	-2.15047	0	
1.0053	-9.005	-1.89241	0	
1.0060	0.761961	-2.7526	0	
1.0067	12.0528	-2.49455	0	
1.0073	16.0012	-0.946207	0	
1.0080	15.1007	-1.54834	0	
1.0087	12.9533	-3.95687	0	
1.0093	7.48107	-3.69881	0	
1.0100	2.28588	-1.89241	0	
1.0107	-1.66246	-1.89241	0	
1.0113	-11.7758	-2.15047	0	
1.0120	-22.4432	-0.344075	0	
1.0127	-22.4432	0	0	
1.0133	-16.3475	-2.49455	0	
1.0140	-7.204	-2.49455	0	
1.0147	9.62842	0.258057	0	
1.0153	20.573	-0.946207	0	
1.0160	16.3475	-3.69881	0	
1.0167	6.58057	-1.20426	0	
1.0173	-1.66246	2.15047	0	
1.0180	-9.62842	0	0	
1.0187	-11.7758	-0.602132	0	
1.0193	-10.2518	2.15047	0	
1.0200	-9.90549	1.20426	0	
1.0207	-7.204	-0.946207	0	
1.0213	0.138538	0	0	
1.0220	4.43323	0.602132	0	
1.0227	4.71031	0	0	
1.0233	5.33373	1.46232	0	
1.0240	7.75815	3.35474	0	
1.0247	10.2518	3.01066	0	
1.0253	9.005	3.01066	0	
1.0260	5.6108	1.8064	0	
1.0267	0.138538	-0.602132	0	
1.0273	-13.5768	-1.20426	0	
1.0280	-31.8638	0	0	
1.0287	-34.6346	1.46232	0	
1.0293	-18.1485	3.61279	0	
1.0300	0.138538	3.95687	0	
1.0307	13.5768	1.20426	0	
1.0313	19.6725	-0.946207	0	
1.0320	17.8715	-0.344075	0	
1.0327	17.5251	0.258057	0	
1.0333	23.6208	1.20426	0	
1.0340	29.4394	3.01066	0	
1.0347	28.5389	2.40853	0	
1.0353	16.0012	0.258057	0	
1.0360	-9.005	-0.344075	0	
1.0367	-30.9633	-0.602132	0	
1.0373	-41.6308	-0.602132	0	
1.0380	-50.2202	0.258057	0	
1.0387	-47.1723	1.20426	0	
1.0393	-14.2002	1.20426	0	
1.0400	27.6384	1.8064	0	
1.0407	50.2202	2.15047	0	
1.0413	51.7441	2.7526	0	
1.0420	30.6863	3.01066	0	
1.0427	-8.1045	2.15047	0	
1.0433	-38.5829	1.20426	0	
1.0440	-56.3159	0.602132	0	
1.0447	-74.6029	0.602132	0	
1.0453	-81.9455	0.258057	0	
1.0460	-64.836	-0.946207	0	
1.0467	-41.0766	1.20426	0	
1.0473	-28.816	5.76326	0	
1.0480	-24.2442	4.81706	0	
1.0487	-21.5427	0.258057	0	
1.0493	-18.4949	1.20426	0	
1.0500	-16.0012	2.15047	0	
1.0507	-11.7758	-1.54834	0	
1.0513	-3.80981	-1.20426	0	
1.0520	0.484884	2.15047	0	
1.0527	2.00881	0.860189	0	
1.0533	10.5289	0	0	
1.0540	19.3954	0.258057	0	
1.0547	16.3475	-3.69881	0	
1.0553	9.005	-3.69881	0	
1.0560	8.38157	1.20426	0	
1.0567	13.2997	-0.344075	0	
1.0573	18.1485	-3.35474	0	
1.0580	19.6725	-0.602132	0	
1.0587	22.0969	0.258057	0	
1.0593	29.4394	-2.49455	0	
1.0600	32.2102	-1.54834	0	
1.0607	28.2618	0	0	
1.0613	24.5906	-1.20426	0	
1.0620	19.3954	-2.49455	0	
1.0627	11.7758	-3.35474	0	
1.0633	9.90549	-1.89241	0	
1.0640	10.806	1.46232	0	
1.0647	10.2518	2.15047	0	
1.0653	14.2002	0.258057	0	
1.0660	13.8538	1.20426	0	
1.0667	1.03904	2.40853	0	
1.0673	-3.53273	1.20426	0	
1.0680	6.58057	-0.602132	0	
1.0687	13.2997	-0.602132	0	
1.0693	14.8236	0.258057	0	
1.0700	15.7241	1.20426	0	
1.0707	10.806	0.602132	0	
1.0713	6.85765	0.258057	0	
1.0720	11.4294	0.602132	0	
1.0727	14.8236	1.20426	0	
1.0733	16.0012	0.860189	0	
1.0740	20.9193	-0.344075	0	
1.0747	19.6725	-1.89241	0	
1.0753	6.85765	-0.602132	0	
1.0760	-7.204	3.01066	0	
1.0767	-17.248	3.95687	0	
1.0773	-21.5427	3.01066	0	
1.0780	-18.772	3.95687	0	
1.0787	-15.1007	5.76326	0	
1.0793	-13.5768	6.70947	0	
1.0800	-8.1045	4.81706	0	
1.0807	5.95715	2.7526	0	
1.0813	21.5427	3.01066	0	
1.0820	21.1964	3.01066	0	
1.0827	2.90931	0	0	
1.0833	-15.447	-2.49455	0	
1.0840	-22.7203	0.602132	0	
1.0847	-25.7681	3.61279	0	
1.0853	-26.3916	2.7526	0	
1.0860	-24.2442	1.20426	0	
1.0867	-19.6725	0.860189	0	
1.0873	-11.4294	-0.602132	0	
1.0880	-2.00881	-2.49455	0	
1.0887	3.53273	-2.49455	0	
1.0893	8.1045	-1.54834	0	
1.0900	11.7758	-2.15047	0	
1.0907	10.806	-2.15047	0	
1.0913	6.58057	-2.15047	0	
1.0920	-1.66246	-1.54834	0	
1.0927	-15.447	0.602132	0	
1.0933	-25.7681	0.860189	0	
1.0940	-26.3916	0.258057	0	
1.0947	-21.5427	1.46232	0	
1.0953	-15.7241	2.15047	0	
1.0960	-12.6763	0.258057	0	
1.0967	-12.6763	0.258057	0	
1.0973	-10.5289	0.860189	0	
1.0980	-5.05665	-0.344075	0	
1.0987	-3.18638	-0.344075	0	
1.0993	-2.00881	1.46232	0	
1.1000	6.23423	2.15047	0	
1.1007	12.9533	0.860189	0	
1.1013	6.58057	-1.89241	0	
1.1020	1.66246	-4.90308	0	
1.1027	13.8538	-5.24715	0	
1.1033	34.9117	-3.35474	0	
1.1040	51.3977	-2.15047	0	
1.1047	59.0174	-2.49455	0	
1.1053	58.4632	-2.49455	0	
1.1060	53.8914	-3.69881	0	
1.1067	46.826	-5.24715	0	
1.1073	26.6686	-6.10734	0	
1.1080	-5.95715	-5.24715	0	
1.1087	-31.8638	-3.35474	0	
1.1093	-35.5351	-0.602132	0	
1.1100	-24.2442	2.15047	0	
1.1107	-16.6246	1.8064	0	
1.1113	-19.6725	-0.602132	0	
1.1120	-24.5906	-0.602132	0	
1.1127	-27.6384	3.01066	0	
1.1133	-35.5351	4.81706	0	
1.1140	-41.0766	1.8064	0	
1.1147	-32.8336	-0.602132	0	
1.1153	-17.248	0	0	
1.1160	-8.1045	-0.946207	0	
1.1167	-2.90931	-2.49455	0	
1.1173	7.204	-0.946207	0	
1.1180	24.8676	0.602132	0	
1.1187	45.9255	-0.602132	0	
1.1193	55.069	-1.54834	0	
1.1200	40.1069	-0.344075	0	
1.1207	6.23423	-0.602132	0	
1.1213	-29.7858	-0.946207	0	
1.1220	-54.4456	-0.946207	0	
1.1227	-59.3637	-0.946207	0	
1.1233	-41.9771	0.258057	0	
1.1240	-12.6763	1.8064	0	
1.1247	15.7241	1.20426	0	
1.1253	35.5351	0.258057	0	
1.1260	42.6006	0.860189	0	
1.1267	28.5389	1.20426	0	
1.1273	-2.90931	2.40853	0	
1.1280	-28.5389	3.01066	0	
1.1287	-37.4054	1.20426	0	
1.1293	-42.6006	0.258057	0	
1.1300	-49.5967	2.15047	0	
1.1307	-52.0212	3.01066	0	
1.1313	-48.3499	1.46232	0	
1.1320	-37.4054	0.860189	0	
1.1327	-20.9193	0.258057	0	
1.1333	-7.75815	-0.602132	0	
1.1340	-0.761961	0.258057	0	
1.1347	8.72792	1.20426	0	
1.1353	16.0012	1.46232	0	
1.1360	14.4773	1.46232	0	
1.1367	12.0528	1.20426	0	
1.1373	13.8538	0.258057	0	
1.1380	16.6246	0.860189	0	
1.1387	16.0012	2.7526	0	
1.1393	12.6763	3.95687	0	
1.1400	8.38157	3.35474	0	
1.1407	3.80981	2.15047	0	
1.1413	1.03904	2.7526	0	
1.1420	2.90931	3.61279	0	
1.1427	9.28207	2.40853	0	
1.1433	15.1007	0.602132	0	
1.1440	19.3954	1.46232	0	
1.1447	21.1964	3.35474	0	
1.1453	18.4949	3.01066	0	
1.1460	13.8538	1.20426	0	
1.1467	10.2518	0.602132	0	
1.1473	6.23423	1.8064	0	
1.1480	2.00881	3.61279	0	
1.1487	-0.484884	3.01066	0	
1.1493	-5.95715	2.7526	0	
1.1500	-14.2002	5.50521	0	
1.1507	-15.447	8.51587	0	
1.1513	-3.53273	7.91374	0	
1.1520	16.6246	7.56966	0	
1.1527	34.9117	8.85994	0	
1.1533	43.1547	8.85994	0	
1.1540	36.7819	7.3116	0	
1.1547	22.4432	4.81706	0	
1.1553	12.6763	2.40853	0	
1.1560	6.23423	2.15047	0	
1.1567	-4.71031	4.81706	0	
1.1573	-15.1007	5.50521	0	
1.1580	-13.5768	3.01066	0	
1.1587	-7.204	2.15047	0	
1.1593	-6.58057	2.15047	0	
1.1600	-8.1045	1.20426	0	
1.1607	-3.18638	0.602132	0	
1.1613	-1.66246	0.860189	0	
1.1620	-9.005	0	0	
1.1627	-14.4773	-1.54834	0	
1.1633	-20.0188	-1.20426	0	
1.1640	-32.8336	-0.344075	0	
1.1647	-32.2102	0.258057	0	
1.1653	-12.6763	0.860189	0	
1.1660	-2.90931	-0.602132	0	
1.1667	-4.08688	-2.15047	0	
1.1673	13.2997	-1.20426	0	
1.1680	44.4016	-0.602132	0	
1.1687	61.511	-1.89241	0	
1.1693	57.2164	-0.602132	0	
1.1700	42.2542	1.20426	0	
1.1707	21.8198	-0.344075	0	
1.1713	-7.204	-1.20426	0	
1.1720	-39.5527	-0.602132	0	
1.1727	-51.3977	1.20426	0	
1.1733	-37.4054	3.01066	0	
1.1740	-22.7203	2.40853	0	
1.1747	-13.5768	-0.344075	0	
1.1753	3.53273	-1.20426	0	
1.1760	19.3954	-1.54834	0	
1.1767	22.0969	-1.20426	0	
1.1773	12.6763	0.860189	0	
1.1780	-6.58057	0.860189	0	
1.1787	-27.2921	-1.20426	0	
1.1793	-37.059	-0.344075	0	
1.1800	-40.1069	0.258057	0	
1.1807	-44.6786	-1.89241	0	
1.1813	-43.5011	-2.49455	0	
1.1820	-32.4873	-2.49455	0	
1.1827	-24.2442	-3.35474	0	
1.1833	-25.4911	-0.602132	0	
1.1840	-26.3916	1.46232	0	
1.1847	-22.4432	-3.35474	0	
1.1853	-19.049	-6.10734	0	
1.1860	-16.971	-4.30094	0	
1.1867	-11.7758	-5.24715	0	
1.1873	-8.72792	-5.24715	0	
1.1880	-8.1045	-3.09668	0	
1.1887	-3.18638	-3.95687	0	
1.1893	2.90931	-3.35474	0	
1.1900	7.204	-0.602132	0	
1.1907	18.1485	-4.30094	0	
1.1913	29.4394	-6.45141	0	
1.1920	27.2921	-1.20426	0	
1.1927	19.3954	-1.54834	0	
1.1933	19.3954	-4.559	0	
1.1940	20.573	-1.89241	0	
1.1947	19.3954	-2.15047	0	
1.1953	20.573	-5.84928	0	
1.1960	22.0969	-2.7526	0	
1.1967	18.4949	-1.54834	0	
1.1973	13.8538	-6.45141	0	
1.1980	12.3299	-5.50521	0	
1.1987	11.1523	0.602132	0	
1.1993	9.90549	1.20426	0	
1.2000	13.8538	-0.602132	0	
1.2007	20.2959	0.258057	0	
1.2013	20.2959	0.860189	0	
1.2020	14.8236	-0.946207	0	
1.2027	16.9017	-0.344075	0	
1.2033	24.8676	2.40853	0	
1.2040	25.1447	0.602132	0	
1.2047	18.1485	-3.35474	0	
1.2053	12.3299	-3.95687	0	
1.2060	10.2518	-2.15047	0	
1.2067	9.28207	-0.602132	0	
1.2073	10.806	-0.602132	0	
1.2080	10.2518	-3.09668	0	
1.2087	5.95715	-4.559	0	
1.2093	7.48107	-1.20426	0	
1.2100	19.049	1.20426	0	
1.2107	28.5389	-0.602132	0	
1.2113	30.6863	-1.54834	0	
1.2120	34.9117	-3.35474	0	
1.2127	37.6824	-4.30094	0	
1.2133	27.2921	0	0	
1.2140	5.95715	3.35474	0	
1.2147	-22.0969	1.20426	0	
1.2153	-48.6962	0	0	
1.2160	-60.8876	2.40853	0	
1.2167	-60.6105	1.46232	0	
1.2173	-55.6924	-2.7526	0	
1.2180	-43.7781	-3.69881	0	
1.2187	-30.3399	-1.20426	0	
1.2193	-19.049	-0.946207	0	
1.2200	-1.66246	-3.35474	0	
1.2207	19.3954	-4.559	0	
1.2213	31.3097	-2.49455	0	
1.2220	32.4873	1.8064	0	
1.2227	22.7203	4.21492	0	
1.2233	3.53273	3.01066	0	
1.2240	-14.4773	3.01066	0	
1.2247	-28.2618	3.35474	0	
1.2253	-39.8298	0.258057	0	
1.2260	-35.8814	-1.54834	0	
1.2267	-10.806	1.8064	0	
1.2273	17.8715	3.35474	0	
1.2280	38.9293	0.860189	0	
1.2287	52.3675	0.602132	0	
1.2293	55.9695	2.7526	0	
1.2300	51.7441	3.95687	0	
1.2307	38.3059	4.21492	0	
1.2313	7.48107	2.15047	0	
1.2320	-30.0628	-0.602132	0	
1.2327	-47.4494	-0.602132	0	
1.2333	-41.0766	-1.20426	0	
1.2340	-33.7341	-2.15047	0	
1.2347	-34.6346	-0.602132	0	
1.2353	-39.2064	-0.602132	0	
1.2360	-42.6006	-2.49455	0	
1.2367	-41.6308	-0.602132	0	
1.2373	-35.258	1.46232	0	
1.2380	-28.5389	-0.602132	0	
1.2387	-27.2921	-2.15047	0	
1.2393	-28.2618	-1.54834	0	
1.2400	-26.7379	-1.20426	0	
1.2407	-21.1964	0.860189	0	
1.2413	-14.4773	3.01066	0	
1.2420	-8.1045	1.20426	0	
1.2427	3.80981	0.258057	0	
1.2433	22.0969	0.602132	0	
1.2440	34.9117	-1.54834	0	
1.2447	33.1107	-2.49455	0	
1.2453	24.5906	-0.602132	0	
1.2460	15.3778	-2.15047	0	
1.2467	2.56296	-4.30094	0	
1.2473	-10.806	-2.15047	0	
1.2480	-23.0666	-1.89241	0	
1.2487	-38.0288	-4.30094	0	
1.2493	-45.6484	-2.49455	0	
1.2500	-30.6863	0.602132	0	
1.2507	-1.66246	0.258057	0	
1.2513	23.0666	-0.344075	0	
1.2520	34.6346	-0.602132	0	
1.2527	34.3575	-2.49455	0	
1.2533	33.1107	-3.35474	0	
1.2540	41.0766	-1.54834	0	
1.2547	47.1723	-0.946207	0	
1.2553	42.2542	-0.602132	0	
1.2560	42.6006	-0.602132	0	
1.2567	49.5967	-1.54834	0	
1.2573	35.258	-0.602132	0	
1.2580	-1.38538	1.46232	0	
1.2587	-26.7379	1.46232	0	
1.2593	-33.1107	1.20426	0	
1.2600	-38.0288	1.8064	0	
1.2607	-41.0766	0.860189	0	
1.2613	-36.4356	-0.344075	0	
1.2620	-34.0112	-0.344075	0	
1.2627	-36.4356	-2.49455	0	
1.2633	-34.0112	-3.09668	0	
1.2640	-24.8676	0.602132	0	
1.2647	-17.248	0.602132	0	
1.2653	-15.447	-3.69881	0	
1.2660	-14.2002	-2.7526	0	
1.2667	-9.005	0.258057	0	
1.2673	-3.53273	-2.15047	0	
1.2680	-0.761961	-2.49455	0	
1.2687	2.28588	1.20426	0	
1.2693	7.75815	0.258057	0	
1.2700	11.4294	-1.54834	0	
1.2707	12.0528	1.46232	0	
1.2713	11.1523	2.40853	0	
1.2720	9.62842	-1.20426	0	
1.2727	9.28207	-1.54834	0	
1.2733	11.1523	0.602132	0	
1.2740	12.3299	0.258057	0	
1.2747	13.5768	-1.20426	0	
1.2753	16.6246	1.20426	0	
1.2760	19.3954	2.40853	0	
1.2767	17.8715	-2.15047	0	
1.2773	14.8236	-4.90308	0	
1.2780	21.5427	-0.946207	0	
1.2787	38.3059	1.46232	0	
1.2793	49.5967	-1.20426	0	
1.2800	45.3021	-0.602132	0	
1.2807	34.0112	1.8064	0	
1.2813	21.8198	-0.344075	0	
1.2820	-1.66246	-2.49455	0	
1.2827	-30.9633	-1.54834	0	
1.2833	-41.9771	-2.49455	0	
1.2840	-32.4873	-6.45141	0	
1.2847	-19.6725	-7.65568	0	
1.2853	-12.9533	-4.30094	0	
1.2860	-15.1007	-1.54834	0	
1.2867	-20.9193	-0.344075	0	
1.2873	-15.447	0.860189	0	
1.2880	-2.28588	2.15047	0	
1.2887	2.00881	3.01066	0	
1.2893	4.43323	2.40853	0	
1.2900	15.3778	0.258057	0	
1.2907	23.3437	-0.602132	0	
1.2913	22.0969	-0.946207	0	
1.2920	15.7241	-3.35474	0	
1.2927	5.05665	-4.559	0	
1.2933	-5.05665	-1.20426	0	
1.2940	-6.85765	-0.602132	0	
1.2947	-9.005	-3.69881	0	
1.2953	-12.6763	-3.35474	0	
1.2960	-10.5289	-2.7526	0	
1.2967	-5.68007	-3.95687	0	
1.2973	-0.484884	-3.35474	0	
1.2980	14.4773	-1.54834	0	
1.2987	34.9117	-1.54834	0	
1.2993	48.9733	-1.20426	0	
1.3000	59.3637	-2.49455	0	
1.3007	63.312	-4.559	0	
1.3013	48.3499	-3.35474	0	
1.3020	17.5251	-1.20426	0	
1.3027	-14.2002	-1.20426	0	
1.3033	-37.059	-0.602132	0	
1.3040	-44.4016	-0.946207	0	
1.3047	-39.2064	-2.15047	0	
1.3053	-34.6346	-0.602132	0	
1.3060	-34.3575	0.258057	0	
1.3067	-27.2921	-2.15047	0	
1.3073	-12.3299	-5.24715	0	
1.3080	-4.43323	-5.84928	0	
1.3087	-7.204	-4.30094	0	
1.3093	-9.62842	-3.35474	0	
1.3100	-10.806	-5.24715	0	
1.3107	-16.6246	-8.25781	0	
1.3113	-18.1485	-6.45141	0	
1.3120	-10.2518	-2.49455	0	
1.3127	-9.90549	-2.49455	0	
1.3133	-19.3954	-2.49455	0	
1.3140	-23.6208	1.20426	0	
1.3147	-19.049	1.8064	0	
1.3153	-14.8236	-1.54834	0	
1.3160	-11.7758	-2.49455	0	
1.3167	-9.005	-1.20426	0	
1.3173	-5.33373	-2.49455	0	
1.3180	2.00881	-3.35474	0	
1.3187	7.48107	-3.35474	0	
1.3193	7.75815	-5.24715	0	
1.3200	7.48107	-6.10734	0	
1.3207	4.08688	-2.49455	0	
1.3213	0.138538	0.258057	0	
1.3220	2.00881	-1.54834	0	
1.3227	7.75815	-1.54834	0	
1.3233	7.204	1.20426	0	
1.3240	2.90931	0.860189	0	
1.3247	4.71031	-0.602132	0	
1.3253	9.28207	0.860189	0	
1.3260	8.38157	0.258057	0	
1.3267	7.75815	-0.602132	0	
1.3273	10.5289	1.46232	0	
1.3280	9.005	2.15047	0	
1.3287	2.90931	-0.344075	0	
1.3293	0.138538	1.46232	0	
1.3300	-0.484884	4.81706	0	
1.3307	-1.66246	3.01066	0	
1.3313	-1.03904	0.860189	0	
1.3320	4.43323	1.20426	0	
1.3327	15.1007	1.8064	0	
1.3333	25.7681	2.15047	0	
1.3340	30.9633	2.15047	0	
1.3347	30.9633	0.602132	0	
1.3353	31.3097	1.8064	0	
1.3360	37.6824	4.81706	0	
1.3367	48.9733	4.21492	0	
1.3373	50.4972	3.61279	0	
1.3380	37.6824	5.76326	0	
1.3387	33.7341	6.70947	0	
1.3393	41.9771	4.559	0	
1.3400	33.7341	3.95687	0	
1.3407	9.28207	6.3654	0	
1.3413	-7.204	8.25781	0	
1.3420	-27.015	7.56966	0	
1.3427	-61.1647	5.76326	0	
1.3433	-77.9971	3.95687	0	
1.3440	-64.836	3.01066	0	
1.3447	-54.7919	4.81706	0	
1.3453	-56.9393	8.25781	0	
1.3460	-49.3197	7.56966	0	
1.3467	-33.7341	4.81706	0	
1.3473	-24.5906	3.35474	0	
1.3480	-17.248	2.7526	0	
1.3487	-10.806	1.8064	0	
1.3493	-13.8538	3.01066	0	
1.3500	-21.1964	5.76326	0	
1.3507	-25.7681	4.81706	0	
1.3513	-31.8638	1.8064	0	
1.3520	-32.8336	1.20426	0	
1.3527	-16.971	3.01066	0	
1.3533	1.38538	2.15047	0	
1.3540	7.75815	0.258057	0	
1.3547	14.8236	2.15047	0	
1.3553	26.3916	3.95687	0	
1.3560	30.3399	1.46232	0	
1.3567	27.9155	0.860189	0	
1.3573	23.6208	3.01066	0	
1.3580	14.8236	2.15047	0	
1.3587	7.48107	0.258057	0	
1.3593	1.66246	2.15047	0	
1.3600	-7.204	3.01066	0	
1.3607	-12.3299	1.20426	0	
1.3613	-10.806	0	0	
1.3620	-13.5768	0.602132	0	
1.3627	-16.6246	1.8064	0	
1.3633	-10.806	3.01066	0	
1.3640	-2.56296	3.01066	0	
1.3647	1.03904	2.7526	0	
1.3653	4.71031	1.20426	0	
1.3660	8.1045	-0.602132	0	
1.3667	6.23423	0.602132	0	
1.3673	-1.66246	3.01066	0	
1.3680	-9.005	1.8064	0	
1.3687	-12.6763	1.20426	0	
1.3693	-14.8236	3.95687	0	
1.3700	-12.6763	3.61279	0	
1.3707	-2.00881	0.860189	0	
1.3713	4.43323	2.15047	0	
1.3720	-1.03904	3.95687	0	
1.3727	-5.68007	1.20426	0	
1.3733	-3.53273	0	0	
1.3740	-0.761961	1.46232	0	
1.3747	3.80981	1.20426	0	
1.3753	8.38157	0.602132	0	
1.3760	3.53273	1.8064	0	
1.3767	-4.43323	1.20426	0	
1.3773	-2.90931	1.20426	0	
1.3780	2.00881	3.01066	0	
1.3787	2.90931	1.8064	0	
1.3793	4.71031	-1.54834	0	
1.3800	10.5289	-1.54834	0	
1.3807	12.9533	-1.54834	0	
1.3813	10.5289	-4.30094	0	
1.3820	8.38157	-5.24715	0	
1.3827	7.204	-5.24715	0	
1.3833	7.48107	-7.05355	0	
1.3840	11.4294	-7.05355	0	
1.3847	14.8236	-5.84928	0	
1.3853	13.2997	-5.24715	0	
1.3860	12.6763	-2.49455	0	
1.3867	16.6246	0.602132	0	
1.3873	20.2959	0	0	
1.3880	26.6686	-1.54834	0	
1.3887	43.1547	-1.20426	0	
1.3893	61.7881	-1.54834	0	
1.3900	66.9833	-3.09668	0	
1.3907	55.6924	-3.09668	0	
1.3913	35.5351	-1.54834	0	
1.3920	14.2002	-0.602132	0	
1.3927	0.484884	-1.54834	0	
1.3933	-4.43323	-2.49455	0	
1.3940	-12.6763	-3.09668	0	
1.3947	-26.3916	-1.89241	0	
1.3953	-31.3097	-0.602132	0	
1.3960	-24.5906	-0.946207	0	
1.3967	-15.7241	-2.15047	0	
1.3973	-9.62842	-1.54834	0	
1.3980	-6.23423	-2.49455	0	
1.3987	-10.806	-5.50521	0	
1.3993	-18.1485	-4.30094	0	
1.4000	-16.3475	-0.344075	0	
1.4007	-15.447	1.20426	0	
1.4013	-27.2921	1.20426	0	
1.4020	-37.6824	0.602132	0	
1.4027	-33.7341	-1.54834	0	
1.4033	-24.5906	-3.35474	0	
1.4040	-11.7758	-2.15047	0	
1.4047	11.4294	0.860189	0	
1.4053	30.3399	0.602132	0	
1.4060	33.1107	-1.89241	0	
1.4067	28.2618	-1.20426	0	
1.4073	19.3954	0	0	
1.4080	2.90931	-2.49455	0	
1.4087	-17.248	-3.95687	0	
1.4093	-34.3575	-4.30094	0	
1.4100	-39.2064	-6.10734	0	
1.4107	-28.816	-6.10734	0	
1.4113	-15.7241	-3.35474	0	
1.4120	-10.806	-3.69881	0	
1.4127	-5.05665	-3.69881	0	
1.4133	2.90931	-1.54834	0	
1.4140	7.48107	-0.946207	0	
1.4147	9.62842	-1.54834	0	
1.4153	9.90549	-0.602132	0	
1.4160	6.23423	-2.15047	0	
1.4167	1.03904	-4.30094	0	
1.4173	-4.43323	-2.49455	0	
1.4180	-11.7758	-0.946207	0	
1.4187	-18.4949	-2.49455	0	
1.4193	-21.8198	-1.20426	0	
1.4200	-23.9671	1.8064	0	
1.4207	-19.6725	0	0	
1.4213	-8.38157	-2.49455	0	
1.4220	-2.56296	-1.54834	0	
1.4227	-6.23423	-3.35474	0	
1.4233	-8.1045	-5.50521	0	
1.4240	-5.05665	-2.7526	0	
1.4247	-5.33373	-0.602132	0	
1.4253	-6.58057	-1.89241	0	
1.4260	-1.38538	-1.54834	0	
1.4267	6.23423	-1.54834	0	
1.4273	9.28207	-4.30094	0	
1.4280	6.85765	-3.35474	0	
1.4287	2.00881	0	0	
1.4293	-2.90931	-1.89241	0	
1.4300	-7.75815	-4.90308	0	
1.4307	-9.90549	-1.89241	0	
1.4313	-4.43323	1.46232	0	
1.4320	3.53273	-0.602132	0	
1.4327	5.05665	-3.95687	0	
1.4333	6.58057	-3.95687	0	
1.4340	12.0528	-1.54834	0	
1.4347	12.9533	-1.20426	0	
1.4353	10.806	-2.7526	0	
1.4360	12.3299	-3.69881	0	
1.4367	13.8538	-3.35474	0	
1.4373	15.3778	-1.54834	0	
1.4380	17.8715	-0.946207	0	
1.4387	15.7241	-2.49455	0	
1.4393	10.2518	-1.89241	0	
1.4400	7.75815	-0.344075	0	
1.4407	9.28207	-2.49455	0	
1.4413	9.28207	-3.95687	0	
1.4420	2.28588	-1.54834	0	
1.4427	-9.90549	-1.20426	0	
1.4433	-14.2002	-2.49455	0	
1.4440	-9.28207	-0.344075	0	
1.4447	-10.2518	0.258057	0	
1.4453	-17.5251	-2.15047	0	
1.4460	-18.1485	-0.344075	0	
1.4467	-8.1045	1.8064	0	
1.4473	3.53273	-0.946207	0	
1.4480	9.28207	-1.54834	0	
1.4487	17.248	1.46232	0	
1.4493	31.5868	2.40853	0	
1.4500	40.1069	2.15047	0	
1.4507	41.3537	2.15047	0	
1.4513	43.7781	1.20426	0	
1.4520	35.5351	0	0	
1.4527	9.90549	-1.54834	0	
1.4533	-11.7758	-2.49455	0	
1.4540	-21.8198	-0.946207	0	
1.4547	-32.4873	0.258057	0	
1.4553	-38.9293	-2.49455	0	
1.4560	-33.3878	-4.30094	0	
1.4567	-27.2921	-3.09668	0	
1.4573	-29.1623	-0.946207	0	
1.4580	-28.816	-1.54834	0	
1.4587	-24.5906	-4.559	0	
1.4593	-26.3916	-5.50521	0	
1.4600	-31.8638	-3.09668	0	
1.4607	-30.3399	-3.09668	0	
1.4613	-23.6208	-6.10734	0	
1.4620	-17.248	-4.30094	0	
1.4627	-10.2518	0.258057	0	
1.4633	-5.95715	-0.602132	0	
1.4640	-5.33373	-2.49455	0	
1.4647	-1.66246	-1.20426	0	
1.4653	2.90931	-1.54834	0	
1.4660	4.43323	-3.35474	0	
1.4667	9.28207	-0.602132	0	
1.4673	16.6246	2.15047	0	
1.4680	14.8236	2.15047	0	
1.4687	7.75815	2.15047	0	
1.4693	5.6108	2.15047	0	
1.4700	3.53273	-0.946207	0	
1.4707	-1.38538	-2.49455	0	
1.4713	-4.08688	0	0	
1.4720	-5.05665	-0.344075	0	
1.4727	-3.80981	-0.946207	0	
1.4733	1.38538	1.8064	0	
1.4740	12.0528	2.40853	0	
1.4747	26.6686	-0.344075	0	
1.4753	36.1585	0.860189	0	
1.4760	32.2102	4.81706	0	
1.4767	22.4432	4.21492	0	
1.4773	16.0012	2.7526	0	
1.4780	13.8538	2.15047	0	
1.4787	14.8236	1.46232	0	
1.4793	10.2518	2.15047	0	
1.4800	-3.53273	3.95687	0	
1.4807	-14.2002	3.61279	0	
1.4813	-12.6763	2.15047	0	
1.4820	-6.58057	0.860189	0	
1.4827	2.00881	-0.602132	0	
1.4833	12.9533	-0.602132	0	
1.4840	16.9017	1.20426	0	
1.4847	14.2002	2.7526	0	
1.4853	13.2997	4.21492	0	
1.4860	12.9533	5.16113	0	
1.4867	15.7241	4.81706	0	
1.4873	25.4911	4.81706	0	
1.4880	28.5389	4.81706	0	
1.4887	16.9017	4.81706	0	
1.4893	6.58057	6.70947	0	
1.4900	6.85765	7.3116	0	
1.4907	2.00881	4.21492	0	
1.4913	-15.7241	2.15047	0	
1.4920	-23.0666	3.95687	0	
1.4927	-8.72792	4.81706	0	
1.4933	6.58057	3.95687	0	
1.4940	12.0528	3.61279	0	
1.4947	7.75815	4.21492	0	
1.4953	-19.6725	4.559	0	
1.4960	-57.8398	3.35474	0	
1.4967	-70.0312	1.20426	0	
1.4973	-55.069	0.258057	0	
1.4980	-39.5527	0.258057	0	
1.4987	-29.1623	1.20426	0	
1.4993	-21.1964	3.01066	0	
1.5000	-17.248	3.95687	0	
1.5007	-13.5768	1.20426	0	
1.5013	-13.2997	-3.09668	0	
1.5020	-17.8715	-1.89241	0	
1.5027	-20.2959	3.01066	0	
1.5033	-20.2959	3.95687	0	
1.5040	-20.9193	0.602132	0	
1.5047	-16.3475	-1.54834	0	
1.5053	-7.48107	-3.35474	0	
1.5060	-0.484884	-5.84928	0	
1.5067	5.33373	-4.30094	0	
1.5073	12.3299	-0.946207	0	
1.5080	19.6725	0	0	
1.5087	22.4432	-0.946207	0	
1.5093	15.7241	-1.54834	0	
1.5100	5.6108	-0.946207	0	
1.5107	7.75815	1.20426	0	
1.5113	16.9017	0.602132	0	
1.5120	16.6246	-2.7526	0	
1.5127	12.0528	-3.69881	0	
1.5133	17.5251	-1.89241	0	
1.5140	26.3916	-0.946207	0	
1.5147	22.0969	0.258057	0	
1.5153	10.2518	1.46232	0	
1.5160	4.71031	1.20426	0	
1.5167	1.38538	3.01066	0	
1.5173	-9.28207	4.81706	0	
1.5180	-23.3437	2.15047	0	
1.5187	-25.1447	-0.602132	0	
1.5193	-11.7758	0.258057	0	
1.5200	2.90931	3.01066	0	
1.5207	8.38157	3.95687	0	
1.5213	8.38157	0.258057	0	
1.5220	6.58057	-4.30094	0	
1.5227	2.00881	-1.89241	0	
1.5233	-4.71031	0	0	
1.5240	-12.9533	-3.69881	0	
1.5247	-18.772	-3.35474	0	
1.5253	-15.447	0.258057	0	
1.5260	-9.005	-1.54834	0	
1.5267	-5.68007	-3.35474	0	
1.5273	-1.03904	-0.344075	0	
1.5280	5.33373	-1.20426	0	
1.5287	12.6763	-4.30094	0	
1.5293	23.0666	-3.35474	0	
1.5300	35.258	-0.602132	0	
1.5307	48.0728	1.20426	0	
1.5313	62.4115	0.258057	0	
1.5320	63.6584	-1.54834	0	
1.5327	42.8776	0.258057	0	
1.5333	16.3475	2.40853	0	
1.5340	-2.56296	1.46232	0	
1.5347	-20.573	1.20426	0	
1.5353	-32.8336	1.20426	0	
1.5360	-20.9193	-1.54834	0	
1.5367	9.28207	-2.49455	0	
1.5373	30.6863	0	0	
1.5380	28.2618	0.860189	0	
1.5387	4.71031	0.258057	0	
1.5393	-26.1145	-1.20426	0	
1.5400	-45.9255	-3.09668	0	
1.5407	-49.8738	-3.69881	0	
1.5413	-47.1723	-2.7526	0	
1.5420	-41.9771	-1.89241	0	
1.5427	-31.8638	-0.602132	0	
1.5433	-22.4432	-0.602132	0	
1.5440	-15.7241	-1.20426	0	
1.5447	-8.38157	1.20426	0	
1.5453	-3.80981	1.46232	0	
1.5460	-3.80981	-1.54834	0	
1.5467	1.66246	0	0	
1.5473	10.5289	3.61279	0	
1.5480	9.90549	1.46232	0	
1.5487	4.71031	-0.602132	0	
1.5493	4.71031	0.258057	0	
1.5500	3.18638	-1.89241	0	
1.5507	-1.03904	-3.09668	0	
1.5513	3.53273	0.258057	0	
1.5520	17.248	1.8064	0	
1.5527	31.3097	2.40853	0	
1.5533	41.3537	4.81706	0	
1.5540	41.3537	3.95687	0	
1.5547	32.4873	2.15047	0	
1.5553	23.0666	2.40853	0	
1.5560	11.1523	0.860189	0	
1.5567	-3.53273	-0.602132	0	
1.5573	-12.6763	0.258057	0	
1.5580	-17.248	-0.602132	0	
1.5587	-16.971	-1.54834	0	
1.5593	-1.66246	1.20426	0	
1.5600	18.4949	0.860189	0	
1.5607	23.9671	-0.602132	0	
1.5613	19.3954	0.860189	0	
1.5620	17.5251	0.860189	0	
1.5627	17.5251	-2.49455	0	
1.5633	17.248	-3.69881	0	
1.5640	10.806	-2.7526	0	
1.5647	-8.1045	-2.49455	0	
1.5653	-26.1145	-1.20426	0	
1.5660	-27.2921	0.258057	0	
1.5667	-23.6208	0.602132	0	
1.5673	-24.5906	-0.602132	0	
1.5680	-19.3954	-1.89241	0	
1.5687	-7.75815	-1.89241	0	
1.5693	0.138538	-1.54834	0	
1.5700	4.43323	-3.09668	0	
1.5707	7.48107	-4.30094	0	
1.5713	5.6108	-1.54834	0	
1.5720	0.138538	0.258057	0	
1.5727	-3.18638	-1.54834	0	
1.5733	-2.56296	-3.09668	0	
1.5740	1.03904	-2.49455	0	
1.5747	5.33373	-0.602132	0	
1.5753	12.9533	0.602132	0	
1.5760	31.5868	0.258057	0	
1.5767	56.5929	0	0	
1.5773	65.4594	0.602132	0	
1.5780	45.9255	0.258057	0	
1.5787	10.2518	-0.602132	0	
1.5793	-21.8198	-0.344075	0	
1.5800	-42.8776	0.860189	0	
1.5807	-55.6924	0.860189	0	
1.5813	-57.2164	-0.602132	0	
1.5820	-48.3499	-2.7526	0	
1.5827	-44.6786	-3.35474	0	
1.5833	-49.3197	-1.54834	0	
1.5840	-42.6006	0	0	
1.5847	-21.1964	-1.54834	0	
1.5853	-1.66246	-2.49455	0	
1.5860	3.80981	-0.602132	0	
1.5867	-5.33373	1.8064	0	
1.5873	-18.1485	3.01066	0	
1.5880	-16.0012	3.01066	0	
1.5887	-4.08688	0.602132	0	
1.5893	2.90931	-2.49455	0	
1.5900	12.0528	-2.49455	0	
1.5907	28.5389	-1.20426	0	
1.5913	37.6824	-2.49455	0	
1.5920	36.1585	-2.15047	0	
1.5927	30.3399	-0.602132	0	
1.5933	11.7758	-2.49455	0	
1.5940	-19.6725	-3.95687	0	
1.5947	-38.9293	-1.54834	0	
1.5953	-33.7341	-0.344075	0	
1.5960	-19.3954	-2.49455	0	
1.5967	-10.5289	-3.95687	0	
1.5973	-7.75815	-3.69881	0	
1.5980	-5.05665	-2.7526	0	
1.5987	-0.484884	-2.49455	0	
1.5993	3.18638	-3.09668	0	
1.6000	4.08688	-1.20426	0	
1.6007	3.53273	1.20426	0	
1.6013	2.28588	0.602132	0	
1.6020	2.90931	-0.344075	0	
1.6027	5.6108	0	0	
1.6033	7.204	-0.946207	0	
1.6040	5.6108	-0.602132	0	
1.6047	5.33373	0.258057	0	
1.6053	6.23423	-1.54834	0	
1.6060	6.23423	-2.49455	0	
1.6067	6.58057	-0.602132	0	
1.6073	6.85765	-0.344075	0	
1.6080	4.71031	-2.15047	0	
1.6087	5.33373	-2.49455	0	
1.6093	12.0528	-0.602132	0	
1.6100	17.8715	0.258057	0	
1.6107	18.4949	1.20426	0	
1.6113	15.7241	1.8064	0	
1.6120	14.2002	2.15047	0	
1.6127	16.0012	1.20426	0	
1.6133	14.8236	1.20426	0	
1.6140	5.05665	1.8064	0	
1.6147	-1.66246	3.01066	0	
1.6153	3.80981	4.81706	0	
1.6160	13.8538	3.95687	0	
1.6167	20.0188	0.602132	0	
1.6173	25.4911	0.602132	0	
1.6180	38.5829	2.15047	0	
1.6187	55.9695	2.15047	0	
1.6193	59.9871	2.40853	0	
1.6200	44.6786	2.40853	0	
1.6207	20.9193	-0.602132	0	
1.6213	-1.66246	-2.49455	0	
1.6220	-19.049	0.258057	0	
1.6227	-32.2102	1.20426	0	
1.6233	-45.9255	-2.49455	0	
1.6240	-56.5929	-3.35474	0	
1.6247	-53.5451	-0.602132	0	
1.6253	-41.9771	0	0	
1.6260	-34.3575	-0.602132	0	
1.6267	-34.0112	0.602132	0	
1.6273	-40.1069	1.20426	0	
1.6280	-40.7303	0.602132	0	
1.6287	-27.015	2.15047	0	
1.6293	-13.5768	3.01066	0	
1.6300	-13.5768	2.15047	0	
1.6307	-15.447	2.15047	0	
1.6313	-9.28207	2.40853	0	
1.6320	-4.43323	1.46232	0	
1.6327	-7.204	2.15047	0	
1.6333	-11.7758	3.01066	0	
1.6340	-11.7758	1.46232	0	
1.6347	-9.90549	1.8064	0	
1.6353	-11.4294	2.7526	0	
1.6360	-12.6763	1.20426	0	
1.6367	-13.2997	2.15047	0	
1.6373	-15.1007	4.559	0	
1.6380	-7.48107	1.46232	0	
1.6387	5.6108	-0.602132	0	
1.6393	9.28207	2.40853	0	
1.6400	12.9533	2.15047	0	
1.6407	29.7858	-2.49455	0	
1.6413	44.1245	-3.69881	0	
1.6420	42.6006	-3.69881	0	
1.6427	34.0112	-2.49455	0	
1.6433	23.9671	1.20426	0	
1.6440	7.75815	0.860189	0	
1.6447	-20.0188	-1.54834	0	
1.6453	-44.6786	0.860189	0	
1.6460	-42.8776	3.01066	0	
1.6467	-24.8676	0.860189	0	
1.6473	-17.5251	0.258057	0	
1.6480	-16.971	0.860189	0	
1.6487	-9.28207	-0.344075	0	
1.6493	-2.28588	-0.602132	0	
1.6500	1.03904	-1.20426	0	
1.6507	5.6108	-4.30094	0	
1.6513	7.48107	-3.69881	0	
1.6520	6.58057	0.602132	0	
1.6527	7.48107	0.860189	0	
1.6533	7.48107	-1.20426	0	
1.6540	11.4294	0.258057	0	
1.6547	27.2921	2.40853	0	
1.6553	47.7265	2.7526	0	
1.6560	62.1345	2.40853	0	
1.6567	66.9833	2.7526	0	
1.6573	57.8398	3.95687	0	
1.6580	36.1585	6.70947	0	
1.6587	8.38157	6.10734	0	
1.6593	-27.2921	0.860189	0	
1.6600	-57.4934	-2.15047	0	
1.6607	-56.3159	0.258057	0	
1.6613	-28.2618	2.15047	0	
1.6620	-3.53273	3.01066	0	
1.6627	7.75815	3.35474	0	
1.6633	10.806	1.8064	0	
1.6640	9.90549	0.258057	0	
1.6647	8.38157	1.20426	0	
1.6653	9.28207	-0.602132	0	
1.6660	12.3299	-4.30094	0	
1.6667	17.5251	-1.89241	0	
1.6673	18.1485	1.20426	0	
1.6680	5.33373	-1.54834	0	
1.6687	-9.28207	-3.35474	0	
1.6693	-7.48107	0	0	
1.6700	3.53273	2.15047	0	
1.6707	5.95715	0.602132	0	
1.6713	0.138538	-1.54834	0	
1.6720	-9.90549	-2.7526	0	
1.6727	-26.7379	-1.54834	0	
1.6733	-42.2542	0	0	
1.6740	-43.7781	-0.602132	0	
1.6747	-35.5351	-0.344075	0	
1.6753	-28.2618	1.8064	0	
1.6760	-24.8676	2.40853	0	
1.6767	-19.6725	2.15047	0	
1.6773	-12.0528	1.20426	0	
1.6780	-7.48107	0	0	
1.6787	-2.90931	-1.54834	0	
1.6793	8.72792	-2.7526	0	
1.6800	23.0666	-2.7526	0	
1.6807	31.5868	-1.54834	0	
1.6813	35.5351	-1.89241	0	
1.6820	29.4394	-1.54834	0	
1.6827	12.3299	0	0	
1.6833	-0.138538	-0.344075	0	
1.6840	-6.23423	-1.54834	0	
1.6847	-20.9193	-0.344075	0	
1.6853	-38.3059	0.602132	0	
1.6860	-41.6308	0.860189	0	
1.6867	-36.1585	2.7526	0	
1.6873	-30.9633	3.01066	0	
1.6880	-23.0666	1.8064	0	
1.6887	-12.0528	0	0	
1.6893	-3.53273	0.258057	0	
1.6900	5.6108	3.35474	0	
1.6907	21.5427	5.50521	0	
1.6913	38.9293	3.01066	0	
1.6920	47.4494	1.8064	0	
1.6927	43.1547	3.95687	0	
1.6933	31.5868	3.35474	0	
1.6940	16.6246	1.46232	0	
1.6947	-6.85765	0.258057	0	
1.6953	-34.6346	-0.344075	0	
1.6960	-43.7781	-0.344075	0	
1.6967	-30.3399	-0.946207	0	
1.6973	-14.4773	-2.7526	0	
1.6980	-7.75815	-1.54834	0	
1.6987	0.138538	-0.602132	0	
1.6993	10.806	-1.89241	0	
1.7000	20.573	-1.89241	0	
1.7007	32.8336	-1.89241	0	
1.7013	43.5011	-3.95687	0	
1.7020	36.4356	-4.30094	0	
1.7027	12.0528	-3.95687	0	
1.7033	-6.85765	-4.30094	0	
1.7040	-13.5768	-3.35474	0	
1.7047	-21.8198	-2.49455	0	
1.7053	-30.9633	-4.30094	0	
1.7060	-29.1623	-3.69881	0	
1.7067	-21.1964	-1.54834	0	
1.7073	-16.3475	-1.89241	0	
1.7080	-9.28207	-2.49455	0	
1.7087	-3.18638	-2.49455	0	
1.7093	-3.53273	-3.35474	0	
1.7100	-1.66246	-3.69881	0	
1.7107	7.204	-5.24715	0	
1.7113	11.1523	-7.05355	0	
1.7120	7.48107	-6.10734	0	
1.7127	6.58057	-4.559	0	
1.7133	5.33373	-7.3116	0	
1.7140	1.66246	-7.65568	0	
1.7147	2.90931	-4.30094	0	
1.7153	8.1045	-4.30094	0	
1.7160	9.62842	-6.10734	0	
1.7167	6.58057	-4.90308	0	
1.7173	4.08688	-4.30094	0	
1.7180	3.18638	-4.559	0	
1.7187	3.53273	-1.54834	0	
1.7193	2.90931	0.258057	0	
1.7200	-1.66246	-0.946207	0	
1.7207	-9.005	-0.602132	0	
1.7213	-9.28207	-0.602132	0	
1.7220	1.66246	-3.95687	0	
1.7227	12.0528	-5.24715	0	
1.7233	14.2002	-2.7526	0	
1.7240	16.6246	-3.09668	0	
1.7247	22.0969	-4.559	0	
1.7253	23.6208	-2.49455	0	
1.7260	21.1964	2.15047	0	
1.7267	22.7203	3.95687	0	
1.7273	26.1145	2.40853	0	
1.7280	23.9671	0.258057	0	
1.7287	15.7241	1.46232	0	
1.7293	7.48107	6.10734	0	
1.7300	9.62842	6.96753	0	
1.7307	19.3954	3.35474	0	
1.7313	19.6725	2.7526	0	
1.7320	9.28207	5.76326	0	
1.7327	4.43323	6.70947	0	
1.7333	0.761961	4.81706	0	
1.7340	-18.1485	3.61279	0	
1.7347	-38.9293	3.01066	0	
1.7353	-40.1069	2.40853	0	
1.7360	-30.0628	1.20426	0	
1.7367	-21.1964	0	0	
1.7373	-12.9533	-0.344075	0	
1.7380	-8.72792	-1.20426	0	
1.7387	-10.806	-2.7526	0	
1.7393	-8.1045	-0.344075	0	
1.7400	1.66246	3.61279	0	
1.7407	5.33373	3.01066	0	
1.7413	-3.80981	1.20426	0	
1.7420	-15.1007	2.40853	0	
1.7427	-19.049	3.61279	0	
1.7433	-19.049	0.258057	0	
1.7440	-15.447	-2.7526	0	
1.7447	-4.43323	0	0	
1.7453	8.1045	3.35474	0	
1.7460	13.8538	3.01066	0	
1.7467	16.0012	2.7526	0	
1.7473	10.2518	2.40853	0	
1.7480	-7.204	-1.20426	0	
1.7487	-21.8198	-4.30094	0	
1.7493	-27.2921	-1.89241	0	
1.7500	-31.8638	2.15047	0	
1.7507	-31.5868	2.40853	0	
1.7513	-20.573	0	0	
1.7520	-9.005	-0.344075	0	
1.7527	-0.761961	0.860189	0	
1.7533	6.58057	0.602132	0	
1.7540	7.48107	1.46232	0	
1.7547	1.38538	3.95687	0	
1.7553	-2.56296	3.35474	0	
1.7560	-4.43323	2.15047	0	
1.7567	-5.33373	3.35474	0	
1.7573	-4.43323	2.7526	0	
1.7580	-0.761961	0.258057	0	
1.7587	3.80981	0.258057	0	
1.7593	5.33373	1.20426	0	
1.7600	-1.66246	0.602132	0	
1.7607	-11.7758	0.258057	0	
1.7613	-14.8236	0.602132	0	
1.7620	-6.85765	2.15047	0	
1.7627	7.204	2.15047	0	
1.7633	14.8236	0.258057	0	
1.7640	10.5289	-0.344075	0	
1.7647	4.08688	0.258057	0	
1.7653	3.80981	-0.602132	0	
1.7660	8.1045	-0.602132	0	
1.7667	10.5289	1.20426	0	
1.7673	7.48107	2.15047	0	
1.7680	3.53273	2.7526	0	
1.7687	3.53273	2.7526	0	
1.7693	2.90931	0.258057	0	
1.7700	6.85765	-1.20426	0	
1.7707	32.2102	0.258057	0	
1.7713	66.3599	-0.602132	0	
1.7720	90.1885	-2.49455	0	
1.7727	106.952	-1.54834	0	
1.7733	112.77	-2.15047	0	
1.7740	93.8598	-5.84928	0	
1.7747	56.5929	-4.30094	0	
1.7753	3.80981	0.860189	0	
1.7760	-57.4934	-0.602132	0	
1.7767	-96.0071	-2.7526	0	
1.7773	-104.804	-1.20426	0	
1.7780	-112.424	-1.54834	0	
1.7787	-113.047	-2.15047	0	
1.7793	-87.4177	1.20426	0	
1.7800	-57.4934	0	0	
1.7807	-42.8776	-3.69881	0	
1.7813	-34.9117	0.258057	0	
1.7820	-28.5389	4.21492	0	
1.7827	-25.4911	0.602132	0	
1.7833	-21.8198	-1.89241	0	
1.7840	-14.4773	0.860189	0	
1.7847	-7.48107	0.602132	0	
1.7853	-3.18638	-0.602132	0	
1.7860	2.28588	0.258057	0	
1.7867	13.8538	-0.344075	0	
1.7873	25.4911	-3.69881	0	
1.7880	33.1107	-3.95687	0	
1.7887	41.9771	-1.54834	0	
1.7893	49.8738	-2.15047	0	
1.7900	50.4972	-4.30094	0	
1.7907	37.059	-3.69881	0	
1.7913	7.48107	-1.54834	0	
1.7920	-25.7681	-0.602132	0	
1.7927	-42.8776	0	0	
1.7933	-46.5489	0.258057	0	
1.7940	-45.6484	-2.15047	0	
1.7947	-38.3059	-5.24715	0	
1.7953	-22.7203	-5.24715	0	
1.7960	-7.204	-3.35474	0	
1.7967	2.56296	-2.49455	0	
1.7973	5.33373	-1.54834	0	
1.7980	3.18638	-0.946207	0	
1.7987	3.80981	-4.30094	0	
1.7993	12.6763	-6.45141	0	
1.8000	21.1964	-2.7526	0	
1.8007	16.9017	-2.7526	0	
1.8013	6.58057	-7.65568	0	
1.8020	2.90931	-7.05355	0	
1.8027	-0.761961	-3.69881	0	
1.8033	-10.806	-4.90308	0	
1.8040	-12.6763	-4.30094	0	
1.8047	-5.33373	-1.54834	0	
1.8053	-3.80981	-2.49455	0	
1.8060	-4.08688	-2.49455	0	
1.8067	2.00881	0.860189	0	
1.8073	3.18638	0.258057	0	
1.8080	-2.00881	-2.49455	0	
1.8087	0.761961	0	0	
1.8093	6.85765	0.860189	0	
1.8100	4.71031	-1.54834	0	
1.8107	2.00881	-0.602132	0	
1.8113	3.53273	0.258057	0	
1.8120	2.90931	-1.54834	0	
1.8127	5.33373	-0.602132	0	
1.8133	16.6246	0.258057	0	
1.8140	24.8676	-0.946207	0	
1.8147	26.3916	0.602132	0	
1.8153	32.4873	2.7526	0	
1.8160	39.8298	0.602132	0	
1.8167	39.5527	-0.602132	0	
1.8173	35.8814	2.15047	0	
1.8180	34.6346	3.35474	0	
1.8187	32.8336	3.95687	0	
1.8193	28.5389	5.16113	0	
1.8200	20.573	3.01066	0	
1.8207	7.48107	-1.89241	0	
1.8213	-9.90549	-0.946207	0	
1.8220	-27.2921	3.35474	0	
1.8227	-38.5829	2.15047	0	
1.8233	-37.4054	-0.946207	0	
1.8240	-24.5906	1.20426	0	
1.8247	-13.5768	3.35474	0	
1.8253	-13.5768	2.15047	0	
1.8260	-14.8236	0	0	
1.8267	-10.806	-1.54834	0	
1.8273	-8.1045	0	0	
1.8280	-4.71031	2.15047	0	
1.8287	7.204	0.602132	0	
1.8293	16.3475	-1.54834	0	
1.8300	12.0528	-0.344075	0	
1.8307	5.6108	-0.344075	0	
1.8313	7.204	-3.35474	0	
1.8320	9.005	-3.69881	0	
1.8327	9.62842	-1.54834	0	
1.8333	14.8236	-1.54834	0	
1.8340	21.5427	-2.49455	0	
1.8347	25.4911	-1.54834	0	
1.8353	26.1145	2.15047	0	
1.8360	17.8715	3.95687	0	
1.8367	1.38538	1.20426	0	
1.8373	-7.75815	-0.602132	0	
1.8380	-7.204	3.01066	0	
1.8387	-10.5289	3.95687	0	
1.8393	-16.0012	-1.20426	0	
1.8400	-17.5251	-3.09668	0	
1.8407	-23.9671	0	0	
1.8413	-36.1585	0.602132	0	
1.8420	-41.6308	-0.344075	0	
1.8427	-39.8298	0	0	
1.8433	-32.8336	-1.54834	0	
1.8440	-16.971	-2.49455	0	
1.8447	1.38538	1.20426	0	
1.8453	8.38157	3.01066	0	
1.8460	6.85765	1.20426	0	
1.8467	6.58057	1.46232	0	
1.8473	3.80981	1.20426	0	
1.8480	-7.204	-2.7526	0	
1.8487	-16.3475	-1.54834	0	
1.8493	-12.6763	2.7526	0	
1.8500	-4.08688	0.258057	0	
1.8507	5.33373	-2.49455	0	
1.8513	26.1145	0	0	
1.8520	53.268	0.860189	0	
1.8527	66.9833	0.258057	0	
1.8533	66.7062	1.20426	0	
1.8540	54.1685	1.46232	0	
1.8547	23.9671	1.46232	0	
1.8553	-12.9533	1.20426	0	
1.8560	-39.2064	-0.344075	0	
1.8567	-56.5929	1.46232	0	
1.8573	-62.1345	3.61279	0	
1.8580	-47.4494	0.258057	0	
1.8587	-30.0628	-0.602132	0	
1.8593	-23.6208	1.8064	0	
1.8600	-20.573	-2.15047	0	
1.8607	-15.1007	-3.35474	0	
1.8613	-9.90549	1.8064	0	
1.8620	-4.71031	-0.946207	0	
1.8627	-1.38538	-5.24715	0	
1.8633	-1.66246	1.46232	0	
1.8640	-0.761961	2.7526	0	
1.8647	1.38538	-4.30094	0	
1.8653	1.03904	-2.49455	0	
1.8660	2.00881	1.8064	0	
1.8667	11.1523	-1.54834	0	
1.8673	23.9671	-1.20426	0	
1.8680	30.6863	2.7526	0	
1.8687	30.3399	1.20426	0	
1.8693	28.2618	-1.54834	0	
1.8700	23.6208	0	0	
1.8707	11.4294	0.860189	0	
1.8713	-4.43323	1.8064	0	
1.8720	-16.3475	2.7526	0	
1.8727	-19.049	2.15047	0	
1.8733	-11.1523	0.860189	0	
1.8740	-0.138538	-2.15047	0	
1.8747	1.03904	-4.30094	0	
1.8753	-7.204	-2.49455	0	
1.8760	-13.5768	0	0	
1.8767	-11.7758	0.602132	0	
1.8773	-8.1045	2.15047	0	
1.8780	-12.9533	2.15047	0	
1.8787	-27.6384	0.860189	0	
1.8793	-37.6824	1.8064	0	
1.8800	-35.258	2.15047	0	
1.8807	-21.5427	1.8064	0	
1.8813	-4.43323	2.7526	0	
1.8820	3.53273	3.01066	0	
1.8827	-2.90931	0	0	
1.8833	-9.90549	-2.7526	0	
1.8840	-7.75815	-3.69881	0	
1.8847	-3.53273	-3.35474	0	
1.8853	0.761961	-2.7526	0	
1.8860	9.005	-3.35474	0	
1.8867	17.5251	-2.49455	0	
1.8873	23.0666	1.20426	0	
1.8880	23.0666	0.258057	0	
1.8887	15.3778	-3.09668	0	
1.8893	7.75815	-1.54834	0	
1.8900	11.7758	0	0	
1.8907	20.2959	-2.15047	0	
1.8913	16.6246	-2.49455	0	
1.8920	0.138538	-0.602132	0	
1.8927	-12.3299	1.20426	0	
1.8933	-12.9533	2.15047	0	
1.8940	-6.23423	1.20426	0	
1.8947	1.66246	-1.54834	0	
1.8953	5.33373	-1.54834	0	
1.8960	4.08688	-0.946207	0	
1.8967	1.38538	-1.54834	0	
1.8973	1.38538	-2.15047	0	
1.8980	2.90931	-1.20426	0	
1.8987	1.03904	-0.602132	0	
1.8993	-3.80981	-1.20426	0	
1.9000	-2.56296	-1.54834	0	
1.9007	4.71031	0.258057	0	
1.9013	10.2518	2.15047	0	
1.9020	10.2518	-0.344075	0	
1.9027	10.806	-1.89241	0	
1.9033	11.4294	-0.602132	0	
1.9040	8.38157	0.258057	0	
1.9047	2.90931	0.860189	0	
1.9053	-1.66246	0.860189	0	
1.9060	-8.72792	-1.20426	0	
1.9067	-14.4773	-2.15047	0	
1.9073	-12.9533	-1.54834	0	
1.9080	-1.38538	-2.7526	0	
1.9087	16.6246	-3.35474	0	
1.9093	34.3575	-1.54834	0	
1.9100	46.5489	-1.89241	0	
1.9107	47.7265	-2.49455	0	
1.9113	35.8814	-1.20426	0	
1.9120	13.8538	-1.20426	0	
1.9127	-14.2002	-2.49455	0	
1.9133	-45.6484	-2.49455	0	
1.9140	-63.312	-0.602132	0	
1.9147	-52.0212	1.8064	0	
1.9153	-27.2921	2.40853	0	
1.9160	-12.0528	1.20426	0	
1.9167	-9.62842	2.15047	0	
1.9173	-13.2997	3.95687	0	
1.9180	-16.3475	3.01066	0	
1.9187	-14.4773	3.01066	0	
1.9193	-10.5289	3.01066	0	
1.9200	-0.138538	0.860189	0	
1.9207	21.8198	0.258057	0	
1.9213	43.5011	1.20426	0	
1.9220	52.0212	0.258057	0	
1.9227	44.4016	0.258057	0	
1.9233	20.0188	1.20426	0	
1.9240	-6.58057	0.258057	0	
1.9247	-17.8715	0.602132	0	
1.9253	-23.6208	0.860189	0	
1.9260	-31.8638	-1.54834	0	
1.9267	-32.8336	-1.54834	0	
1.9273	-30.0628	1.20426	0	
1.9280	-33.7341	1.46232	0	
1.9287	-30.9633	0.258057	0	
1.9293	-11.7758	0.258057	0	
1.9300	16.9017	0.258057	0	
1.9307	40.7303	0	0	
1.9313	49.8738	0.258057	0	
1.9320	40.4532	0	0	
1.9327	23.9671	0	0	
1.9333	16.3475	0.258057	0	
1.9340	10.2518	0	0	
1.9347	-10.806	0.258057	0	
1.9353	-36.4356	0.258057	0	
1.9360	-40.1069	-2.49455	0	
1.9367	-29.7858	-2.7526	0	
1.9373	-21.5427	0.602132	0	
1.9380	-11.7758	0.860189	0	
1.9387	-1.66246	-2.49455	0	
1.9393	-1.66246	-2.15047	0	
1.9400	-3.53273	0.860189	0	
1.9407	-1.03904	1.20426	0	
1.9413	-0.761961	0	0	
1.9420	-2.90931	0.258057	0	
1.9427	-3.53273	2.15047	0	
1.9433	-5.95715	3.01066	0	
1.9440	-14.8236	1.8064	0	
1.9447	-25.7681	0	0	
1.9453	-30.3399	-0.602132	0	
1.9460	-24.8676	-0.602132	0	
1.9467	-19.049	1.20426	0	
1.9473	-19.3954	4.21492	0	
1.9480	-19.049	3.95687	0	
1.9487	-13.5768	1.20426	0	
1.9493	-7.204	0.258057	0	
1.9500	1.03904	1.46232	0	
1.9507	11.7758	1.20426	0	
1.9513	17.5251	-0.602132	0	
1.9520	18.4949	-1.54834	0	
1.9527	22.0969	0.258057	0	
1.9533	26.1145	3.61279	0	
1.9540	26.6686	5.16113	0	
1.9547	29.1623	3.35474	0	
1.9553	40.4532	0.860189	0	
1.9560	57.8398	1.20426	0	
1.9567	68.5072	0.860189	0	
1.9573	60.6105	-2.15047	0	
1.9580	42.8776	-3.35474	0	
1.9587	29.1623	0.860189	0	
1.9593	9.28207	3.95687	0	
1.9600	-25.4911	3.01066	0	
1.9607	-51.3977	0.258057	0	
1.9613	-48.0728	-0.602132	0	
1.9620	-31.5868	0.258057	0	
1.9627	-20.9193	1.20426	0	
1.9633	-9.90549	1.20426	0	
1.9640	8.1045	2.40853	0	
1.9647	24.2442	3.95687	0	
1.9653	34.3575	0.860189	0	
1.9660	34.6346	-2.49455	0	
1.9667	16.9017	-1.20426	0	
1.9673	-7.75815	0	0	
1.9680	-20.9193	-1.20426	0	
1.9687	-24.5906	-1.20426	0	
1.9693	-25.4911	-1.54834	0	
1.9700	-16.3475	-1.89241	0	
1.9707	-2.56296	0.258057	0	
1.9713	4.71031	1.20426	0	
1.9720	9.005	-1.54834	0	
1.9727	12.9533	0	0	
1.9733	11.1523	3.95687	0	
1.9740	7.204	2.7526	0	
1.9747	5.33373	0.602132	0	
1.9753	1.66246	1.20426	0	
1.9760	-5.33373	0.602132	0	
1.9767	-12.6763	1.20426	0	
1.9773	-19.6725	3.35474	0	
1.9780	-21.8198	3.01066	0	
1.9787	-16.3475	2.15047	0	
1.9793	-8.38157	3.61279	0	
1.9800	-5.95715	3.61279	0	
1.9807	-6.58057	1.46232	0	
1.9813	-7.204	-0.602132	0	
1.9820	-8.1045	-2.7526	0	
1.9827	-11.1523	-3.69881	0	
1.9833	-11.1523	-3.09668	0	
1.9840	-8.1045	-2.15047	0	
1.9847	-6.23423	-0.946207	0	
1.9853	-3.53273	-0.602132	0	
1.9860	2.90931	-1.54834	0	
1.9867	8.1045	0	0	
1.9873	13.5768	2.40853	0	
1.9880	27.6384	1.8064	0	
1.9887	44.1245	-0.602132	0	
1.9893	48.9733	0.860189	0	
1.9900	41.6308	2.40853	0	
1.9907	27.9155	0	0	
1.9913	11.4294	-0.602132	0	
1.9920	-7.204	3.01066	0	
1.9927	-25.7681	4.81706	0	
1.9933	-29.4394	4.21492	0	
1.9940	-9.28207	3.95687	0	
1.9947	12.9533	1.20426	0	
1.9953	16.6246	-2.49455	0	
1.9960	12.3299	-0.344075	0	
1.9967	9.28207	3.95687	0	
1.9973	1.03904	3.01066	0	
1.9980	-10.806	0.602132	0	
1.9987	-16.6246	1.20426	0	
1.9993	-14.4773	1.8064	0	
2.0000	-7.204	0.602132	0	
2.0007	-5.33373	1.20426	0	
2.0013	-16.3475	3.61279	0	
2.0020	-27.015	3.61279	0	
2.0027	-26.3916	2.15047	0	
2.0033	-27.015	1.8064	0	
2.0040	-40.7303	1.20426	0	
2.0047	-51.1207	1.20426	0	
2.0053	-41.0766	2.7526	0	
2.0060	-23.0666	1.20426	0	
2.0067	-13.8538	-1.54834	0	
2.0073	-12.0528	-0.344075	0	
2.0080	-9.90549	0.860189	0	
2.0087	-8.1045	1.20426	0	
2.0093	-8.1045	3.35474	0	
2.0100	-9.90549	3.95687	0	
2.0107	-9.90549	0.258057	0	
2.0113	-5.05665	-1.20426	0	
2.0120	2.00881	0.258057	0	
2.0127	4.71031	0.860189	0	
2.0133	4.71031	-0.602132	0	
2.0140	6.58057	-1.54834	0	
2.0147	9.28207	-0.946207	0	
2.0153	13.5768	-0.602132	0	
2.0160	19.3954	-2.7526	0	
2.0167	23.9671	-3.95687	0	
2.0173	21.8198	-2.49455	0	
2.0180	14.4773	-3.09668	0	
2.0187	11.1523	-4.90308	0	
2.0193	10.806	-5.50521	0	
2.0200	7.75815	-6.10734	0	
2.0207	9.90549	-5.24715	0	
2.0213	23.0666	-1.54834	0	
2.0220	36.1585	-0.602132	0	
2.0227	44.6786	-3.95687	0	
2.0233	46.2026	-4.30094	0	
2.0240	30.6863	-1.89241	0	
2.0247	3.53273	-1.20426	0	
2.0253	-14.2002	-2.49455	0	
2.0260	-21.8198	-2.7526	0	
2.0267	-28.2618	-0.946207	0	
2.0273	-26.3916	0	0	
2.0280	-11.7758	-1.89241	0	
2.0287	2.90931	-1.89241	0	
2.0293	7.48107	0	0	
2.0300	2.56296	-0.344075	0	
2.0307	-3.53273	-0.946207	0	
2.0313	-7.204	-1.89241	0	
2.0320	-16.971	-3.35474	0	
2.0327	-30.9633	-2.49455	0	
2.0333	-30.6863	-0.946207	0	
2.0340	-16.3475	-2.49455	0	
2.0347	-8.1045	-2.49455	0	
2.0353	-4.71031	0	0	
2.0360	2.90931	-0.946207	0	
2.0367	6.58057	-2.7526	0	
2.0373	-2.00881	-1.20426	0	
2.0380	-9.005	-1.54834	0	
2.0387	-4.08688	-3.09668	0	
2.0393	3.80981	-2.15047	0	
2.0400	6.58057	-3.09668	0	
2.0407	7.75815	-3.95687	0	
2.0413	13.2997	-0.602132	0	
2.0420	17.8715	-0.946207	0	
2.0427	16.3475	-5.50521	0	
2.0433	10.806	-4.30094	0	
2.0440	6.85765	-1.54834	0	
2.0447	4.71031	-5.24715	0	
2.0453	3.80981	-5.50521	0	
2.0460	5.6108	-1.89241	0	
2.0467	9.62842	-2.49455	0	
2.0473	9.28207	-3.69881	0	
2.0480	5.6108	-1.89241	0	
2.0487	3.53273	-2.15047	0	
2.0493	1.38538	-3.35474	0	
2.0500	-1.66246	-2.49455	0	
2.0507	-3.18638	-1.89241	0	
2.0513	-4.43323	-0.602132	0	
2.0520	-7.48107	1.20426	0	
2.0527	-9.005	0.860189	0	
2.0533	-5.33373	-0.344075	0	
2.0540	1.03904	0	0	
2.0547	4.71031	-0.602132	0	
2.0553	8.72792	-1.89241	0	
2.0560	13.2997	-1.20426	0	
2.0567	17.248	-0.602132	0	
2.0573	21.8198	-0.946207	0	
2.0580	28.5389	0.602132	0	
2.0587	33.3878	0.258057	0	
2.0593	29.7858	-2.15047	0	
2.0600	20.2959	-1.54834	0	
2.0607	16.6246	-1.20426	0	
2.0613	25.1447	-6.10734	0	
2.0620	35.8814	-7.05355	0	
2.0627	38.9293	-1.54834	0	
2.0633	35.8814	-0.344075	0	
2.0640	27.2921	-2.15047	0	
2.0647	9.28207	-0.602132	0	
2.0653	-17.5251	0	0	
2.0660	-54.1685	-1.54834	0	
2.0667	-87.1406	0	0	
2.0673	-89.5651	1.46232	0	
2.0680	-68.5072	1.20426	0	
2.0687	-53.8914	1.46232	0	
2.0693	-43.7781	1.20426	0	
2.0700	-30.0628	1.20426	0	
2.0707	-24.5906	2.15047	0	
2.0713	-19.049	0	0	
2.0720	-2.90931	-0.602132	0	
2.0727	5.95715	1.8064	0	
2.0733	3.53273	1.8064	0	
2.0740	9.005	0.602132	0	
2.0747	22.0969	1.46232	0	
2.0753	28.5389	0.602132	0	
2.0760	27.6384	-0.602132	0	
2.0767	24.8676	1.8064	0	
2.0773	22.4432	1.20426	0	
2.0780	17.5251	-1.20426	0	
2.0787	6.23423	0.258057	0	
2.0793	-6.23423	1.46232	0	
2.0800	-17.5251	1.20426	0	
2.0807	-31.5868	3.01066	0	
2.0813	-40.1069	1.20426	0	
2.0820	-34.6346	-4.30094	0	
2.0827	-23.9671	-3.09668	0	
2.0833	-15.447	0.258057	0	
2.0840	-6.23423	-2.49455	0	
2.0847	-0.138538	-4.559	0	
2.0853	1.03904	-2.49455	0	
2.0860	1.38538	-3.35474	0	
2.0867	1.38538	-5.50521	0	
2.0873	2.90931	-3.69881	0	
2.0880	7.48107	-2.49455	0	
2.0887	10.5289	-2.7526	0	
2.0893	10.5289	-0.602132	0	
2.0900	10.806	0.602132	0	
2.0907	9.005	-2.49455	0	
2.0913	6.85765	-5.24715	0	
2.0920	8.38157	-4.90308	0	
2.0927	9.28207	-4.30094	0	
2.0933	13.8538	-3.95687	0	
2.0940	29.4394	-1.89241	0	
2.0947	45.025	0.602132	0	
2.0953	45.9255	0	0	
2.0960	34.9117	-0.602132	0	
2.0967	21.5427	0.258057	0	
2.0973	12.9533	-1.20426	0	
2.0980	5.05665	-2.49455	0	
2.0987	-10.806	0.258057	0	
2.0993	-26.7379	0.602132	0	
2.1000	-25.4911	-4.559	0	
2.1007	-9.90549	-4.90308	0	
2.1013	6.23423	-0.946207	0	
2.1020	18.772	0	0	
2.1027	28.816	0.860189	0	
2.1033	35.8814	3.01066	0	
2.1040	37.4054	0.258057	0	
2.1047	28.5389	-3.35474	0	
2.1053	12.9533	-2.49455	0	
2.1060	4.71031	-2.15047	0	
2.1067	2.00881	-3.09668	0	
2.1073	-10.2518	-1.89241	0	
2.1080	-30.9633	-0.344075	0	
2.1087	-45.3021	-0.602132	0	
2.1093	-55.069	-0.946207	0	
2.1100	-67.6067	-0.344075	0	
2.1107	-75.5034	1.20426	0	
2.1113	-70.0312	2.15047	0	
2.1120	-53.8914	2.7526	0	
2.1127	-35.5351	3.95687	0	
2.1133	-24.5906	4.559	0	
2.1140	-24.5906	2.15047	0	
2.1147	-29.1623	1.20426	0	
2.1153	-28.816	2.40853	0	
2.1160	-24.2442	-0.602132	0	
2.1167	-17.5251	-3.35474	0	
2.1173	-8.72792	0.602132	0	
2.1180	0.484884	3.01066	0	
2.1187	8.38157	-0.602132	0	
2.1193	12.6763	-1.20426	0	
2.1200	9.90549	1.8064	0	
2.1207	5.6108	0.860189	0	
2.1213	6.58057	-1.54834	0	
2.1220	8.38157	-0.602132	0	
2.1227	11.1523	-1.20426	0	
2.1233	14.8236	-2.7526	0	
2.1240	14.2002	-0.602132	0	
2.1247	12.3299	2.7526	0	
2.1253	14.4773	1.20426	0	
2.1260	12.6763	0.602132	0	
2.1267	10.806	2.40853	0	
2.1273	19.049	1.20426	0	
2.1280	24.8676	-0.946207	0	
2.1287	20.573	0.258057	0	
2.1293	24.5906	0.602132	0	
2.1300	36.7819	-0.602132	0	
2.1307	38.5829	0	0	
2.1313	31.5868	0.258057	0	
2.1320	24.8676	0	0	
2.1327	20.2959	1.8064	0	
2.1333	17.8715	2.15047	0	
2.1340	13.8538	0.258057	0	
2.1347	5.6108	1.8064	0	
2.1353	2.90931	2.40853	0	
2.1360	2.00881	-0.602132	0	
2.1367	-3.53273	-0.602132	0	
2.1373	-3.53273	2.15047	0	
2.1380	7.75815	2.15047	0	
2.1387	12.0528	0.602132	0	
2.1393	8.1045	-0.602132	0	
2.1400	9.90549	-0.946207	0	
2.1407	11.1523	0.602132	0	
2.1413	-6.58057	1.8064	0	
2.1420	-38.0288	1.20426	0	
2.1427	-60.8876	1.46232	0	
2.1433	-62.6886	0.258057	0	
2.1440	-51.1207	-1.54834	0	
2.1447	-41.6308	0	0	
2.1453	-38.5829	1.20426	0	
2.1460	-33.7341	-1.54834	0	
2.1467	-16.6246	-1.89241	0	
2.1473	8.38157	1.20426	0	
2.1480	25.7681	3.01066	0	
2.1487	24.2442	2.15047	0	
2.1493	11.4294	-0.602132	0	
2.1500	3.80981	-1.54834	0	
2.1507	8.38157	0	0	
2.1513	16.0012	1.8064	0	
2.1520	21.5427	1.46232	0	
2.1527	30.3399	2.15047	0	
2.1533	41.3537	3.95687	0	
2.1540	47.7265	3.35474	0	
2.1547	45.3021	2.40853	0	
2.1553	25.7681	2.15047	0	
2.1560	-8.38157	2.15047	0	
2.1567	-27.9155	2.15047	0	
2.1573	-24.5906	1.8064	0	
2.1580	-21.8198	2.15047	0	
2.1587	-21.1964	3.95687	0	
2.1593	-10.806	3.01066	0	
2.1600	-3.53273	0	0	
2.1607	-5.33373	2.15047	0	
2.1613	-5.33373	3.01066	0	
2.1620	-6.85765	-0.602132	0	
2.1627	-15.447	0.258057	0	
2.1633	-21.1964	4.559	0	
2.1640	-20.0188	4.21492	0	
2.1647	-12.6763	4.559	0	
2.1653	-1.66246	6.70947	0	
2.1660	5.6108	4.559	0	
2.1667	1.03904	2.40853	0	
2.1673	-8.38157	3.95687	0	
2.1680	-12.0528	3.61279	0	
2.1687	-9.62842	3.35474	0	
2.1693	-4.43323	4.81706	0	
2.1700	-0.138538	2.7526	0	
2.1707	-0.138538	-1.20426	0	
2.1713	-1.66246	-0.602132	0	
2.1720	2.90931	2.15047	0	
2.1727	12.6763	1.46232	0	
2.1733	20.573	-1.54834	0	
2.1740	25.4911	-4.559	0	
2.1747	24.8676	-3.35474	0	
2.1753	19.6725	-0.946207	0	
2.1760	14.8236	-3.69881	0	
2.1767	12.6763	-6.70947	0	
2.1773	8.38157	-1.20426	0	
2.1780	2.00881	3.95687	0	
2.1787	-2.56296	0.258057	0	
2.1793	-3.80981	-2.7526	0	
2.1800	3.53273	0.258057	0	
2.1807	17.248	2.40853	0	
2.1813	23.9671	0.860189	0	
2.1820	17.5251	0.258057	0	
2.1827	9.62842	0.258057	0	
2.1833	3.53273	-1.20426	0	
2.1840	-12.3299	-0.602132	0	
2.1847	-31.8638	-0.602132	0	
2.1853	-33.7341	-0.946207	0	
2.1860	-19.049	-0.344075	0	
2.1867	-1.66246	0.602132	0	
2.1873	12.0528	-0.344075	0	
2.1880	21.8198	-0.602132	0	
2.1887	28.5389	0.860189	0	
2.1893	37.6824	0.602132	0	
2.1900	37.9595	-1.89241	0	
2.1907	14.2002	-3.35474	0	
2.1913	-21.8198	-3.95687	0	
2.1920	-43.7781	-4.559	0	
2.1927	-47.7957	-2.49455	0	
2.1933	-39.2064	-0.946207	0	
2.1940	-22.0969	-4.559	0	
2.1947	-6.23423	-6.45141	0	
2.1953	-3.80981	-2.15047	0	
2.1960	-17.248	-1.20426	0	
2.1967	-42.6006	-4.30094	0	
2.1973	-67.2604	-2.49455	0	
2.1980	-69.4077	-0.946207	0	
2.1987	-47.7957	-3.35474	0	
2.1993	-26.1145	-2.49455	0	
2.2000	-13.5768	0.602132	0	
2.2007	-2.28588	0.258057	0	
2.2013	9.005	-0.344075	0	
2.2020	12.6763	0.258057	0	
2.2027	8.72792	-0.946207	0	
2.2033	2.00881	-0.946207	0	
2.2040	-4.08688	0	0	
2.2047	-6.58057	-0.602132	0	
2.2053	-5.33373	-0.946207	0	
2.2060	-0.761961	0	0	
2.2067	7.48107	0.258057	0	
2.2073	16.6246	0.602132	0	
2.2080	28.5389	0	0	
2.2087	45.3021	-0.946207	0	
2.2093	54.1685	0.258057	0	
2.2100	52.0212	1.20426	0	
2.2107	52.3675	0	0	
2.2113	49.5967	-0.602132	0	
2.2120	25.4911	-0.344075	0	
2.2127	-7.75815	0.258057	0	
2.2133	-28.2618	1.8064	0	
2.2140	-35.5351	0.258057	0	
2.2147	-33.7341	-3.95687	0	
2.2153	-25.7681	-1.20426	0	
2.2160	-20.2959	3.61279	0	
2.2167	-15.7241	-0.344075	0	
2.2173	-9.62842	-4.30094	0	
2.2180	-7.48107	-0.344075	0	
2.2187	-7.204	2.15047	0	
2.2193	-4.43323	-1.89241	0	
2.2200	-2.56296	-3.09668	0	
2.2207	-2.56296	-0.602132	0	
2.2213	-3.53273	0.602132	0	
2.2220	-6.85765	1.20426	0	
2.2227	-9.28207	0.258057	0	
2.2233	-6.23423	-2.49455	0	
2.2240	0.138538	-1.54834	0	
2.2247	5.33373	0.258057	0	
2.2253	7.48107	-3.09668	0	
2.2260	9.005	-3.35474	0	
2.2267	12.9533	2.15047	0	
2.2273	17.8715	3.01066	0	
2.2280	22.0969	-1.54834	0	
2.2287	23.9671	-0.602132	0	
2.2293	19.049	3.95687	0	
2.2300	11.7758	3.95687	0	
2.2307	7.48107	3.61279	0	
2.2313	2.28588	3.95687	0	
2.2320	1.66246	2.15047	0	
2.2327	14.8236	3.01066	0	
2.2333	30.3399	6.10734	0	
2.2340	35.5351	4.81706	0	
2.2347	30.9633	3.01066	0	
2.2353	12.9533	3.35474	0	
2.2360	-11.1523	1.46232	0	
2.2367	-24.2442	-0.344075	0	
2.2373	-27.2921	2.15047	0	
2.2380	-29.4394	3.01066	0	
2.2387	-24.5906	2.15047	0	
2.2393	-13.5768	2.15047	0	
2.2400	-5.68007	0.602132	0	
2.2407	1.66246	-1.20426	0	
2.2413	12.6763	0	0	
2.2420	22.0969	0	0	
2.2427	26.1145	-0.946207	0	
2.2433	23.9671	-1.89241	0	
2.2440	20.9193	-4.30094	0	
2.2447	17.5251	-4.90308	0	
2.2453	5.6108	-1.20426	0	
2.2460	-13.5768	-1.54834	0	
2.2467	-26.3916	-4.90308	0	
2.2473	-31.5868	-2.49455	0	
2.2480	-30.3399	-0.946207	0	
2.2487	-22.4432	-6.10734	0	
2.2493	-14.2002	-7.05355	0	
2.2500	-10.5289	-1.89241	0	
2.2507	-9.005	-0.344075	0	
2.2513	-8.1045	-0.344075	0	
2.2520	-3.53273	1.20426	0	
2.2527	5.6108	2.15047	0	
2.2533	10.5289	2.40853	0	
2.2540	7.204	0.860189	0	
2.2547	2.56296	-1.54834	0	
2.2553	1.66246	0.258057	0	
2.2560	0.138538	1.8064	0	
2.2567	-4.43323	-1.20426	0	
2.2573	-2.90931	-0.602132	0	
2.2580	11.1523	3.01066	0	
2.2587	22.0969	1.46232	0	
2.2593	18.1485	-1.54834	0	
2.2600	12.0528	-1.20426	0	
2.2607	8.72792	-1.20426	0	
2.2613	-5.33373	0.258057	0	
2.2620	-25.1447	2.15047	0	
2.2627	-29.4394	0.602132	0	
2.2633	-15.1007	-1.54834	0	
2.2640	4.43323	0.258057	0	
2.2647	12.9533	1.20426	0	
2.2653	6.58057	0	0	
2.2660	-2.56296	0.602132	0	
2.2667	-5.05665	2.40853	0	
2.2673	-10.806	3.35474	0	
2.2680	-30.9633	2.7526	0	
2.2687	-51.3977	2.40853	0	
2.2693	-48.9733	3.01066	0	
2.2700	-25.7681	2.7526	0	
2.2707	-5.95715	1.8064	0	
2.2713	-0.138538	2.7526	0	
2.2720	-2.90931	3.01066	0	
2.2727	-7.204	1.20426	0	
2.2733	-8.72792	0.258057	0	
2.2740	-6.23423	1.46232	0	
2.2747	-2.28588	0.860189	0	
2.2753	0.138538	-0.344075	0	
2.2760	-0.761961	0.258057	0	
2.2767	-3.18638	-0.602132	0	
2.2773	-5.33373	-3.35474	0	
2.2780	-7.204	-2.15047	0	
2.2787	-5.95715	1.20426	0	
2.2793	1.66246	-0.344075	0	
2.2800	14.8236	-2.15047	0	
2.2807	26.1145	0.602132	0	
2.2813	35.8814	2.15047	0	
2.2820	46.2026	0.258057	0	
2.2827	50.4972	-0.344075	0	
2.2833	42.6006	1.20426	0	
2.2840	20.2959	2.15047	0	
2.2847	-7.204	2.7526	0	
2.2853	-22.7203	2.7526	0	
2.2860	-25.1447	2.15047	0	
2.2867	-31.8638	2.15047	0	
2.2873	-40.7303	1.20426	0	
2.2880	-36.4356	-0.602132	0	
2.2887	-27.2921	0	0	
2.2893	-23.6208	2.40853	0	
2.2900	-14.4773	4.21492	0	
2.2907	2.00881	3.61279	0	
2.2913	10.5289	1.46232	0	
2.2920	9.28207	1.20426	0	
2.2927	6.58057	2.15047	0	
2.2933	5.6108	2.7526	0	
2.2940	5.6108	2.15047	0	
2.2947	2.90931	0.258057	0	
2.2953	-0.761961	-1.54834	0	
2.2960	1.03904	-0.344075	0	
2.2967	9.90549	1.46232	0	
2.2973	18.1485	-0.344075	0	
2.2980	21.5427	-3.35474	0	
2.2987	19.049	-2.49455	0	
2.2993	12.9533	-0.946207	0	
2.3000	8.1045	-2.15047	0	
2.3007	4.71031	-4.30094	0	
2.3013	-0.138538	-3.95687	0	
2.3020	-6.85765	-2.7526	0	
2.3027	-13.2997	-3.69881	0	
2.3033	-17.248	-4.559	0	
2.3040	-16.0012	-3.69881	0	
2.3047	-6.58057	-3.95687	0	
2.3053	7.48107	-5.24715	0	
2.3060	18.4949	-3.35474	0	
2.3067	20.9193	-0.946207	0	
2.3073	16.0012	-3.69881	0	
2.3080	12.3299	-5.50521	0	
2.3087	13.8538	-1.89241	0	
2.3093	14.4773	-0.602132	0	
2.3100	9.62842	-3.69881	0	
2.3107	5.6108	-3.35474	0	
2.3113	7.75815	-1.54834	0	
2.3120	13.2997	-1.54834	0	
2.3127	20.2959	-2.15047	0	
2.3133	25.7681	-1.89241	0	
2.3140	21.1964	-2.49455	0	
2.3147	7.204	-0.602132	0	
2.3153	0.484884	0.602132	0	
2.3160	6.58057	-1.54834	0	
2.3167	13.2997	-1.89241	0	
2.3173	17.5251	-1.54834	0	
2.3180	24.8676	-4.90308	0	
2.3187	31.3097	-6.10734	0	
2.3193	30.6863	-4.30094	0	
2.3200	21.8198	-3.35474	0	
2.3207	2.28588	-2.49455	0	
2.3213	-19.049	-1.54834	0	
2.3220	-28.2618	-2.49455	0	
2.3227	-24.8676	-3.35474	0	
2.3233	-15.447	-4.30094	0	
2.3240	-7.204	-3.09668	0	
2.3247	-9.005	-0.602132	0	
2.3253	-20.0188	-2.7526	0	
2.3260	-24.5906	-6.70947	0	
2.3267	-15.1007	-4.90308	0	
2.3273	-3.53273	-3.35474	0	
2.3280	5.6108	-6.10734	0	
2.3287	21.8198	-5.24715	0	
2.3293	36.4356	-3.69881	0	
2.3300	27.6384	-5.50521	0	
2.3307	4.43323	-4.90308	0	
2.3313	-7.204	-2.49455	0	
2.3320	-13.2997	-3.95687	0	
2.3327	-33.7341	-5.24715	0	
2.3333	-56.3159	-1.89241	0	
2.3340	-62.1345	-0.602132	0	
2.3347	-54.1685	-2.49455	0	
2.3353	-37.4054	-2.7526	0	
2.3360	-17.248	-2.49455	0	
2.3367	-7.204	-3.95687	0	
2.3373	-9.005	-5.24715	0	
2.3380	-10.806	-3.69881	0	
2.3387	-10.806	-2.7526	0	
2.3393	-11.1523	-4.30094	0	
2.3400	-10.806	-3.69881	0	
2.3407	-8.38157	-0.602132	0	
2.3413	-1.66246	-0.602132	0	
2.3420	5.6108	-3.35474	0	
2.3427	3.80981	-2.7526	0	
2.3433	-3.53273	-0.602132	0	
2.3440	-3.18638	-1.89241	0	
2.3447	0.138538	-3.09668	0	
2.3453	-2.56296	-0.946207	0	
2.3460	-5.05665	-0.602132	0	
2.3467	-3.18638	-3.09668	0	
2.3473	-6.23423	-3.35474	0	
2.3480	-14.4773	-0.946207	0	
2.3487	-18.4949	-0.344075	0	
2.3493	-16.3475	-1.54834	0	
2.3500	-12.9533	-0.946207	0	
2.3507	-11.7758	0.258057	0	
2.3513	-9.62842	0.860189	0	
2.3520	0.138538	0.258057	0	
2.3527	13.2997	-1.20426	0	
2.3533	21.1964	-2.15047	0	
2.3540	24.2442	0.258057	0	
2.3547	24.8676	4.81706	0	
2.3553	20.573	5.16113	0	
2.3560	14.2002	2.15047	0	
2.3567	9.62842	1.8064	0	
2.3573	5.6108	3.95687	0	
2.3580	4.08688	4.21492	0	
2.3587	7.48107	1.8064	0	
2.3593	10.5289	0.258057	0	
2.3600	12.0528	0.258057	0	
2.3607	14.8236	0.258057	0	
2.3613	15.7241	0.258057	0	
2.3620	12.3299	-0.602132	0	
2.3627	12.0528	-0.946207	0	
2.3633	18.4949	-0.344075	0	
2.3640	25.7681	-0.946207	0	
2.3647	28.5389	-2.7526	0	
2.3653	29.4394	-2.15047	0	
2.3660	27.6384	-0.602132	0	
2.3667	21.1964	-0.946207	0	
2.3673	11.4294	-0.344075	0	
2.3680	1.38538	2.15047	0	
2.3687	-14.2002	4.81706	0	
2.3693	-30.3399	6.3654	0	
2.3700	-31.5868	5.76326	0	
2.3707	-17.248	3.35474	0	
2.3713	-0.484884	2.15047	0	
2.3720	15.7241	3.01066	0	
2.3727	22.0969	3.95687	0	
2.3733	8.38157	3.95687	0	
2.3740	-5.68007	3.95687	0	
2.3747	3.80981	3.01066	0	
2.3753	24.5906	1.8064	0	
2.3760	34.3575	0.602132	0	
2.3767	29.7858	0.258057	0	
2.3773	16.6246	2.40853	0	
2.3780	1.03904	4.559	0	
2.3787	-12.0528	4.21492	0	
2.3793	-27.6384	3.61279	0	
2.3800	-48.3499	3.61279	0	
2.3807	-60.2642	3.01066	0	
2.3813	-54.1685	3.01066	0	
2.3820	-43.5011	2.7526	0	
2.3827	-39.2064	1.46232	0	
2.3833	-35.5351	0.602132	0	
2.3840	-27.015	1.20426	0	
2.3847	-19.049	1.8064	0	
2.3853	-11.4294	0.602132	0	
2.3860	1.03904	0.258057	0	
2.3867	14.8236	1.20426	0	
2.3873	21.8198	0.860189	0	
2.3880	23.9671	0.258057	0	
2.3887	26.1145	1.46232	0	
2.3893	29.7858	2.15047	0	
2.3900	30.3399	0.258057	0	
2.3907	24.5906	-1.20426	0	
2.3913	14.8236	0.602132	0	
2.3920	1.66246	3.35474	0	
2.3927	-15.7241	3.01066	0	
2.3933	-31.8638	1.20426	0	
2.3940	-33.7341	0.602132	0	
2.3947	-17.248	1.8064	0	
2.3953	1.38538	2.40853	0	
2.3960	4.43323	3.01066	0	
2.3967	-6.23423	3.95687	0	
2.3973	-19.049	3.95687	0	
2.3980	-31.8638	2.40853	0	
2.3987	-42.2542	0.602132	0	
2.3993	-42.6006	0.258057	0	
2.4000	-32.4873	0.860189	0	
2.4007	-22.7203	2.15047	0	
2.4013	-19.049	3.01066	0	
2.4020	-17.248	4.21492	0	
2.4027	-13.5768	5.76326	0	
2.4033	-8.1045	5.16113	0	
2.4040	0.138538	2.7526	0	
2.4047	9.62842	1.20426	0	
2.4053	14.4773	2.40853	0	
2.4060	13.5768	3.95687	0	
2.4067	13.8538	2.7526	0	
2.4073	17.248	2.7526	0	
2.4080	19.3954	5.50521	0	
2.4087	21.5427	6.10734	0	
2.4093	24.2442	3.95687	0	
2.4100	22.0969	3.95687	0	
2.4107	15.7241	4.81706	0	
2.4113	9.90549	3.01066	0	
2.4120	3.18638	2.15047	0	
2.4127	-1.66246	3.95687	0	
2.4133	1.03904	3.61279	0	
2.4140	5.6108	3.01066	0	
2.4147	5.33373	3.95687	0	
2.4153	9.28207	3.95687	0	
2.4160	19.6725	3.01066	0	
2.4167	28.2618	3.95687	0	
2.4173	35.8814	3.35474	0	
2.4180	39.5527	1.20426	0	
2.4187	25.1447	-0.602132	0	
2.4193	2.00881	-2.49455	0	
2.4200	-9.28207	-3.35474	0	
2.4207	-14.2002	-1.54834	0	
2.4213	-20.2959	0.258057	0	
2.4220	-19.3954	0	0	
2.4227	-7.204	-0.946207	0	
2.4233	13.2997	-0.602132	0	
2.4240	34.9117	-0.602132	0	
2.4247	44.1245	-2.7526	0	
2.4253	37.9595	-3.35474	0	
2.4260	26.6686	-0.344075	0	
2.4267	10.5289	1.46232	0	
2.4273	-8.38157	-0.946207	0	
2.4280	-18.1485	-2.49455	0	
2.4287	-25.1447	0	0	
2.4293	-38.5829	3.61279	0	
2.4300	-46.826	3.01066	0	
2.4307	-46.5489	-0.602132	0	
2.4313	-49.8738	0	0	
2.4320	-48.6962	3.95687	0	
2.4327	-30.6863	2.7526	0	
2.4333	-12.0528	-0.946207	0	
2.4340	-5.05665	0.860189	0	
2.4347	3.80981	3.01066	0	
2.4353	16.3475	2.15047	0	
2.4360	21.5427	1.46232	0	
2.4367	18.4949	3.01066	0	
2.4373	15.3778	3.95687	0	
2.4380	15.3778	1.20426	0	
2.4387	15.7241	-3.95687	0	
2.4393	13.8538	-4.30094	0	
2.4400	11.1523	0.258057	0	
2.4407	10.2518	2.15047	0	
2.4413	6.58057	0.860189	0	
2.4420	-1.38538	0.258057	0	
2.4427	-8.72792	0.860189	0	
2.4433	-11.7758	2.40853	0	
2.4440	-11.4294	3.35474	0	
2.4447	-10.806	3.01066	0	
2.4453	-11.4294	3.35474	0	
2.4460	-10.5289	3.95687	0	
2.4467	-5.33373	5.16113	0	
2.4473	5.05665	4.81706	0	
2.4480	22.0969	2.40853	0	
2.4487	38.5829	1.20426	0	
2.4493	48.0728	0.860189	0	
2.4500	53.8914	-0.602132	0	
2.4507	56.9393	-0.602132	0	
2.4513	49.5967	1.20426	0	
2.4520	26.1145	0.602132	0	
2.4527	-9.90549	-1.89241	0	
2.4533	-34.6346	-4.30094	0	
2.4540	-28.5389	-5.84928	0	
2.4547	-15.447	-5.24715	0	
2.4553	-25.1447	-3.95687	0	
2.4560	-38.5829	-3.95687	0	
2.4567	-31.3097	-1.89241	0	
2.4573	-15.7241	-0.602132	0	
2.4580	-9.005	-3.95687	0	
2.4587	-7.204	-4.90308	0	
2.4593	-3.80981	-0.946207	0	
2.4600	1.03904	0	0	
2.4607	5.95715	-2.49455	0	
2.4613	6.23423	-4.30094	0	
2.4620	-7.204	-4.559	0	
2.4627	-31.8638	-4.559	0	
2.4633	-48.3499	-5.24715	0	
2.4640	-46.826	-6.45141	0	
2.4647	-41.3537	-7.3116	0	
2.4653	-38.5829	-7.3116	0	
2.4660	-30.0628	-7.99975	0	
2.4667	-15.1007	-7.3116	0	
2.4673	1.66246	-6.10734	0	
2.4680	19.3954	-5.24715	0	
2.4687	38.9293	-5.24715	0	
2.4693	58.4632	-5.24715	0	
2.4700	64.836	-3.35474	0	
2.4707	47.7265	-1.89241	0	
2.4713	25.1447	-4.30094	0	
2.4720	15.7241	-7.3116	0	
2.4727	8.1045	-5.50521	0	
2.4733	-1.03904	-2.7526	0	
2.4740	-4.08688	-4.30094	0	
2.4747	-11.4294	-5.24715	0	
2.4753	-28.2618	-3.95687	0	
2.4760	-36.4356	-2.49455	0	
2.4767	-29.4394	-1.54834	0	
2.4773	-19.3954	-1.20426	0	
2.4780	-9.90549	-2.15047	0	
2.4787	-1.66246	-1.54834	0	
2.4793	2.00881	-0.344075	0	
2.4800	1.03904	-1.89241	0	
2.4807	2.28588	-2.7526	0	
2.4813	7.48107	-1.54834	0	
2.4820	12.6763	-2.49455	0	
2.4827	12.9533	-4.559	0	
2.4833	9.28207	-3.09668	0	
2.4840	7.48107	-1.54834	0	
2.4847	8.1045	-2.49455	0	
2.4853	6.85765	-1.54834	0	
2.4860	3.18638	1.20426	0	
2.4867	1.03904	1.20426	0	
2.4873	-0.761961	0.258057	0	
2.4880	-4.08688	0.602132	0	
2.4887	-2.56296	0.860189	0	
2.4893	7.204	1.8064	0	
2.4900	16.9017	3.95687	0	
2.4907	20.0188	3.95687	0	
2.4913	17.8715	3.01066	0	
2.4920	14.4773	4.81706	0	
2.4927	11.7758	5.76326	0	
2.4933	6.23423	4.81706	0	
2.4940	-6.58057	5.16113	0	
2.4947	-18.4949	4.81706	0	
2.4953	-20.573	2.7526	0	
2.4960	-16.3475	3.95687	0	
2.4967	-12.6763	5.76326	0	
2.4973	-8.1045	3.95687	0	
2.4980	1.38538	2.15047	0	
2.4987	15.1007	2.7526	0	
2.4993	28.5389	3.01066	0	
2.5000	37.4054	1.8064	0	
2.5007	34.0112	2.40853	0	
2.5013	12.9533	3.01066	0	
2.5020	-14.4773	0.258057	0	
2.5027	-30.9633	-1.54834	0	
2.5033	-36.4356	0.258057	0	
2.5040	-35.5351	2.15047	0	
2.5047	-22.7203	1.8064	0	
2.5053	1.03904	-0.946207	0	
2.5060	23.9671	-2.49455	0	
2.5067	37.6824	0	0	
2.5073	37.9595	2.15047	0	
2.5080	27.6384	0	0	
2.5087	12.9533	-0.946207	0	
2.5093	-9.005	2.15047	0	
2.5100	-34.9117	1.20426	0	
2.5107	-41.9771	-1.89241	0	
2.5113	-22.4432	-1.20426	0	
2.5120	-1.38538	0.258057	0	
2.5127	9.28207	0	0	
2.5133	16.3475	0.602132	0	
2.5140	16.0012	1.46232	0	
2.5147	9.62842	2.15047	0	
2.5153	4.43323	2.15047	0	
2.5160	-5.33373	1.20426	0	
2.5167	-21.1964	0.258057	0	
2.5173	-31.8638	2.7526	0	
2.5180	-37.4054	4.21492	0	
2.5187	-39.5527	2.40853	0	
2.5193	-33.7341	2.15047	0	
2.5200	-27.2921	3.61279	0	
2.5207	-27.2921	2.15047	0	
2.5213	-23.6208	0	0	
2.5220	-14.4773	0.860189	0	
2.5227	-7.204	2.40853	0	
2.5233	-1.66246	1.20426	0	
2.5240	3.80981	-2.49455	0	
2.5247	2.28588	-3.35474	0	
2.5253	-4.43323	0.258057	0	
2.5260	-7.48107	3.01066	0	
2.5267	-4.43323	1.20426	0	
2.5273	-1.38538	1.46232	0	
2.5280	-2.56296	3.61279	0	
2.5287	-4.43323	1.20426	0	
2.5293	-3.53273	-1.89241	0	
2.5300	-3.80981	-1.20426	0	
2.5307	-3.80981	-1.54834	0	
2.5313	-0.138538	-3.69881	0	
2.5320	5.05665	-3.69881	0	
2.5327	15.1007	-3.95687	0	
2.5333	30.6863	-6.10734	0	
2.5340	38.9293	-6.45141	0	
2.5347	33.1107	-6.10734	0	
2.5353	24.5906	-6.45141	0	
2.5360	18.4949	-4.90308	0	
2.5367	8.38157	-2.15047	0	
2.5373	-3.53273	-0.602132	0	
2.5380	-9.90549	0.602132	0	
2.5387	-9.005	2.15047	0	
2.5393	-9.28207	1.20426	0	
2.5400	-16.3475	-0.344075	0	
2.5407	-22.0969	-0.602132	0	
2.5413	-18.1485	-2.49455	0	
2.5420	-9.90549	-4.30094	0	
2.5427	-1.38538	-3.09668	0	
2.5433	9.62842	-2.49455	0	
2.5440	20.573	-5.24715	0	
2.5447	30.3399	-7.99975	0	
2.5453	38.5829	-7.99975	0	
2.5460	36.4356	-5.24715	0	
2.5467	22.0969	-1.20426	0	
2.5473	5.95715	1.20426	0	
2.5480	-7.204	-0.344075	0	
2.5487	-20.0188	-3.69881	0	
2.5493	-30.9633	-4.30094	0	
2.5500	-33.1107	-2.15047	0	
2.5507	-19.6725	-0.344075	0	
2.5513	5.05665	0.258057	0	
2.5520	26.3916	1.20426	0	
2.5527	38.5829	1.46232	0	
2.5533	42.8776	0.258057	0	
2.5540	30.0628	-0.946207	0	
2.5547	2.28588	0.258057	0	
2.5553	-18.1485	3.01066	0	
2.5560	-27.015	1.20426	0	
2.5567	-32.8336	-3.69881	0	
2.5573	-28.5389	-3.35474	0	
2.5580	-12.9533	-1.54834	0	
2.5587	-4.08688	-3.95687	0	
2.5593	-8.38157	-5.50521	0	
2.5600	-16.3475	-3.09668	0	
2.5607	-21.5427	-1.89241	0	
2.5613	-21.5427	-1.54834	0	
2.5620	-15.447	0	0	
2.5627	-12.6763	0	0	
2.5633	-20.9193	-1.54834	0	
2.5640	-31.3097	-1.54834	0	
2.5647	-28.5389	-0.602132	0	
2.5653	-17.248	-0.602132	0	
2.5660	-10.806	-2.15047	0	
2.5667	-7.75815	-2.49455	0	
2.5673	-2.00881	-0.946207	0	
2.5680	2.00881	-0.946207	0	
2.5687	1.38538	-0.344075	0	
2.5693	0.484884	3.35474	0	
2.5700	2.90931	4.81706	0	
2.5707	6.58057	2.7526	0	
2.5713	6.58057	1.46232	0	
2.5720	2.00881	0.258057	0	
2.5727	-0.761961	-1.20426	0	
2.5733	-2.00881	0.258057	0	
2.5740	-3.80981	1.20426	0	
2.5747	-2.28588	-0.602132	0	
2.5753	2.90931	0	0	
2.5760	7.204	0.602132	0	
2.5767	8.1045	-0.946207	0	
2.5773	5.95715	-0.602132	0	
2.5780	4.43323	0.602132	0	
2.5787	6.58057	-1.54834	0	
2.5793	7.75815	-3.69881	0	
2.5800	6.58057	-3.09668	0	
2.5807	6.58057	-1.54834	0	
2.5813	4.43323	-0.946207	0	
2.5820	0.761961	-1.54834	0	
2.5827	5.6108	-0.602132	0	
2.5833	16.0012	1.20426	0	
2.5840	21.5427	1.20426	0	
2.5847	21.1964	-0.602132	0	
2.5853	14.2002	-1.89241	0	
2.5860	2.56296	-1.89241	0	
2.5867	-2.00881	-2.15047	0	
2.5873	3.80981	-0.946207	0	
2.5880	6.85765	1.46232	0	
2.5887	7.204	2.15047	0	
2.5893	10.2518	0.258057	0	
2.5900	9.90549	0.258057	0	
2.5907	9.62842	3.95687	0	
2.5913	20.2959	5.50521	0	
2.5920	25.7681	3.95687	0	
2.5927	8.1045	3.01066	0	
2.5933	-15.1007	2.40853	0	
2.5940	-21.8198	0.258057	0	
2.5947	-18.772	0.258057	0	
2.5953	-12.6763	2.40853	0	
2.5960	-3.80981	3.61279	0	
2.5967	1.38538	3.01066	0	
2.5973	3.18638	2.15047	0	
2.5980	7.204	1.46232	0	
2.5987	12.0528	2.15047	0	
2.5993	16.6246	2.15047	0	
2.6000	21.1964	1.20426	0	
2.6007	24.8676	0.602132	0	
2.6013	22.7203	2.15047	0	
2.6020	12.6763	4.81706	0	
2.6027	-1.66246	6.3654	0	
2.6033	-19.049	5.50521	0	
2.6040	-40.4532	3.01066	0	
2.6047	-54.7919	1.20426	0	
2.6053	-43.7781	1.46232	0	
2.6060	-20.2959	2.7526	0	
2.6067	-2.28588	2.40853	0	
2.6073	16.6246	2.15047	0	
2.6080	36.4356	2.15047	0	
2.6087	39.5527	3.01066	0	
2.6093	30.9633	3.01066	0	
2.6100	23.9671	2.15047	0	
2.6107	11.1523	1.8064	0	
2.6113	-9.90549	3.01066	0	
2.6120	-22.4432	3.95687	0	
2.6127	-27.2921	5.50521	0	
2.6133	-38.5829	7.3116	0	
2.6140	-50.2202	6.70947	0	
2.6147	-49.3197	3.01066	0	
2.6153	-37.4054	1.8064	0	
2.6160	-22.7203	3.95687	0	
2.6167	-10.5289	3.95687	0	
2.6173	-4.08688	2.40853	0	
2.6180	1.66246	1.8064	0	
2.6187	9.005	0.602132	0	
2.6193	10.806	-0.344075	0	
2.6200	5.6108	0.860189	0	
2.6207	1.03904	-0.344075	0	
2.6213	2.56296	-3.95687	0	
2.6220	7.75815	-6.10734	0	
2.6227	10.806	-5.24715	0	
2.6233	9.90549	-3.95687	0	
2.6240	10.806	-2.49455	0	
2.6247	12.3299	-2.49455	0	
2.6253	9.90549	-2.15047	0	
2.6260	9.28207	-0.946207	0	
2.6267	14.8236	-1.20426	0	
2.6273	17.5251	-3.35474	0	
2.6280	15.1007	-4.30094	0	
2.6287	15.3778	-3.69881	0	
2.6293	18.4949	-4.559	0	
2.6300	22.4432	-5.84928	0	
2.6307	29.4394	-5.24715	0	
2.6313	33.7341	-5.24715	0	
2.6320	29.7858	-6.10734	0	
2.6327	22.0969	-6.70947	0	
2.6333	18.4949	-6.10734	0	
2.6340	18.4949	-6.10734	0	
2.6347	18.1485	-6.45141	0	
2.6353	16.6246	-7.3116	0	
2.6360	16.0012	-7.65568	0	
2.6367	15.7241	-7.05355	0	
2.6373	12.3299	-7.05355	0	
2.6380	3.53273	-6.45141	0	
2.6387	-12.9533	-4.90308	0	
2.6393	-32.8336	-4.90308	0	
2.6400	-45.6484	-5.50521	0	
2.6407	-50.2202	-3.95687	0	
2.6413	-50.2202	-2.7526	0	
2.6420	-42.8776	-4.559	0	
2.6427	-30.3399	-4.30094	0	
2.6433	-21.1964	-1.54834	0	
2.6440	-20.0188	-1.89241	0	
2.6447	-19.3954	-3.09668	0	
2.6453	-15.1007	-1.54834	0	
2.6460	-9.90549	-1.54834	0	
2.6467	-5.33373	-3.35474	0	
2.6473	-1.03904	-2.7526	0	
2.6480	0.761961	-0.602132	0	
2.6487	1.38538	-0.946207	0	
2.6493	3.80981	-0.602132	0	
2.6500	2.90931	0.258057	0	
2.6507	-1.66246	-1.20426	0	
2.6513	-2.00881	-2.49455	0	
2.6520	1.03904	-2.49455	0	
2.6527	2.28588	-2.7526	0	
2.6533	3.18638	-2.15047	0	
2.6540	3.53273	0.258057	0	
2.6547	2.90931	0.258057	0	
2.6553	5.05665	-1.54834	0	
2.6560	8.1045	-0.946207	0	
2.6567	11.7758	1.20426	0	
2.6573	18.4949	1.8064	0	
2.6580	19.3954	2.7526	0	
2.6587	11.1523	3.61279	0	
2.6593	5.33373	3.01066	0	
2.6600	4.08688	1.8064	0	
2.6607	-1.38538	0.258057	0	
2.6613	-5.68007	-1.54834	0	
2.6620	2.00881	-0.602132	0	
2.6627	12.3299	1.8064	0	
2.6633	10.806	2.40853	0	
2.6640	0.138538	2.7526	0	
2.6647	-5.05665	3.95687	0	
2.6653	2.56296	3.01066	0	
2.6660	15.7241	2.40853	0	
2.6667	18.4949	2.7526	0	
2.6673	8.72792	0	0	
2.6680	3.18638	-2.49455	0	
2.6687	3.80981	1.46232	0	
2.6693	-1.66246	3.95687	0	
2.6700	-9.90549	1.20426	0	
2.6707	-12.9533	1.8064	0	
2.6713	-17.8715	3.01066	0	
2.6720	-23.6208	1.20426	0	
2.6727	-22.7203	0.860189	0	
2.6733	-17.5251	2.7526	0	
2.6740	-18.1485	2.7526	0	
2.6747	-31.8638	1.20426	0	
2.6753	-48.6962	0	0	
2.6760	-45.3021	0.258057	0	
2.6767	-19.6725	2.7526	0	
2.6773	6.58057	4.21492	0	
2.6780	21.8198	3.01066	0	
2.6787	26.6686	2.15047	0	
2.6793	21.1964	3.01066	0	
2.6800	17.248	2.7526	0	
2.6807	17.8715	1.20426	0	
2.6813	4.71031	0.860189	0	
2.6820	-20.9193	0.602132	0	
2.6827	-35.258	-1.20426	0	
2.6833	-33.7341	-1.89241	0	
2.6840	-30.9633	-2.49455	0	
2.6847	-34.6346	-2.7526	0	
2.6853	-37.4054	-1.89241	0	
2.6860	-30.0628	-0.602132	0	
2.6867	-12.3299	-2.15047	0	
2.6873	4.71031	-3.35474	0	
2.6880	23.9671	-3.35474	0	
2.6887	49.2504	-2.49455	0	
2.6893	62.1345	-0.602132	0	
2.6900	47.4494	-1.54834	0	
2.6907	18.1485	-5.50521	0	
2.6913	-5.33373	-6.10734	0	
2.6920	-16.3475	-2.15047	0	
2.6927	-21.8198	0.258057	0	
2.6933	-23.6208	0.860189	0	
2.6940	-17.248	3.01066	0	
2.6947	-8.38157	3.95687	0	
2.6953	-8.38157	2.15047	0	
2.6960	-10.5289	1.20426	0	
2.6967	-7.75815	0.258057	0	
2.6973	-5.05665	-1.54834	0	
2.6980	-4.08688	-1.89241	0	
2.6987	-2.56296	-1.20426	0	
2.6993	-0.761961	-2.15047	0	
2.7000	1.66246	-1.54834	0	
2.7007	4.71031	0.602132	0	
2.7013	6.85765	0.258057	0	
2.7020	12.3299	-2.15047	0	
2.7027	21.8198	-1.89241	0	
2.7033	27.2921	-1.54834	0	
2.7040	29.1623	-2.7526	0	
2.7047	31.5868	-3.35474	0	
2.7053	32.2102	-1.20426	0	
2.7060	28.2618	0.860189	0	
2.7067	20.2959	1.20426	0	
2.7073	5.95715	0.258057	0	
2.7080	-11.7758	1.20426	0	
2.7087	-21.8198	3.35474	0	
2.7093	-18.772	5.50521	0	
2.7100	-9.28207	8.25781	0	
2.7107	-7.204	10.3223	0	
2.7113	-11.4294	7.3116	0	
2.7120	-9.005	3.01066	0	
2.7127	1.38538	4.21492	0	
2.7133	12.0528	6.10734	0	
2.7140	25.4911	4.81706	0	
2.7147	44.1245	4.81706	0	
2.7153	57.8398	5.50521	0	
2.7160	61.511	3.01066	0	
2.7167	55.9695	2.15047	0	
2.7173	38.5829	3.35474	0	
2.7180	10.806	2.40853	0	
2.7187	-18.1485	0.602132	0	
2.7193	-38.3059	-0.344075	0	
2.7200	-44.6786	0.258057	0	
2.7207	-45.6484	3.61279	0	
2.7213	-46.826	5.76326	0	
2.7220	-41.6308	3.61279	0	
2.7227	-29.1623	2.7526	0	
2.7233	-11.7758	3.61279	0	
2.7240	13.8538	0.860189	0	
2.7247	41.9771	-1.20426	0	
2.7253	62.6886	0.602132	0	
2.7260	78.8976	1.20426	0	
2.7267	79.521	-0.602132	0	
2.7273	51.3977	-1.20426	0	
2.7280	13.5768	-2.15047	0	
2.7287	-17.5251	-1.89241	0	
2.7293	-49.5967	0.258057	0	
2.7300	-82.5689	1.20426	0	
2.7307	-106.051	0.602132	0	
2.7313	-111.523	0.602132	0	
2.7320	-90.8119	-0.602132	0	
2.7327	-59.3637	-3.35474	0	
2.7333	-41.0766	-2.49455	0	
2.7340	-34.6346	-0.602132	0	
2.7347	-27.2921	-1.20426	0	
2.7353	-14.2002	-1.54834	0	
2.7360	7.48107	-0.344075	0	
2.7367	30.9633	0	0	
2.7373	42.2542	-1.54834	0	
2.7380	37.9595	-1.54834	0	
2.7387	20.2959	0.258057	0	
2.7393	-3.53273	0	0	
2.7400	-19.049	0.258057	0	
2.7407	-23.9671	3.61279	0	
2.7413	-26.1145	3.95687	0	
2.7420	-25.4911	1.8064	0	
2.7427	-21.8198	1.20426	0	
2.7433	-15.447	-0.946207	0	
2.7440	-6.58057	-3.69881	0	
2.7447	-2.28588	-1.54834	0	
2.7453	-1.03904	0.602132	0	
2.7460	4.43323	-0.602132	0	
2.7467	9.005	0.258057	0	
2.7473	12.0528	2.40853	0	
2.7480	23.6208	0.860189	0	
2.7487	35.8814	0.258057	0	
2.7493	32.8336	2.15047	0	
2.7500	26.6686	2.15047	0	
2.7507	27.015	0.602132	0	
2.7513	22.7203	0.860189	0	
2.7520	11.1523	0	0	
2.7527	3.80981	-0.602132	0	
2.7533	2.90931	0.258057	0	
2.7540	5.05665	-0.344075	0	
2.7547	9.62842	-2.49455	0	
2.7553	11.4294	-3.09668	0	
2.7560	6.85765	-1.54834	0	
2.7567	3.80981	0.258057	0	
2.7573	6.58057	2.15047	0	
2.7580	8.38157	2.15047	0	
2.7587	5.6108	0.258057	0	
2.7593	3.18638	-0.946207	0	
2.7600	0.138538	0.258057	0	
2.7607	-3.80981	0.602132	0	
2.7613	-1.38538	-2.7526	0	
2.7620	6.58057	-6.10734	0	
2.7627	9.005	-5.50521	0	
2.7633	5.6108	-2.49455	0	
2.7640	2.90931	-0.602132	0	
2.7647	0.138538	-0.602132	0	
2.7653	0.761961	-2.49455	0	
2.7660	6.58057	-4.30094	0	
2.7667	11.1523	-5.24715	0	
2.7673	10.806	-4.90308	0	
2.7680	9.28207	-4.559	0	
2.7687	5.05665	-3.35474	0	
2.7693	2.00881	-2.49455	0	
2.7700	3.53273	-4.30094	0	
2.7707	4.08688	-6.70947	0	
2.7713	1.03904	-7.05355	0	
2.7720	0.761961	-5.50521	0	
2.7727	2.90931	-3.95687	0	
2.7733	6.23423	-3.35474	0	
2.7740	11.1523	-5.24715	0	
2.7747	13.2997	-6.70947	0	
2.7753	12.3299	-6.10734	0	
2.7760	16.0012	-5.84928	0	
2.7767	24.2442	-7.05355	0	
2.7773	26.6686	-5.50521	0	
2.7780	18.4949	-3.35474	0	
2.7787	6.58057	-3.69881	0	
2.7793	0.761961	-2.49455	0	
2.7800	2.00881	0	0	
2.7807	3.53273	0	0	
2.7813	5.33373	0.258057	0	
2.7820	9.28207	2.15047	0	
2.7827	11.1523	1.46232	0	
2.7833	12.9533	0.602132	0	
2.7840	15.7241	0.860189	0	
2.7847	6.58057	-0.602132	0	
2.7853	-18.1485	-2.49455	0	
2.7860	-40.1069	-2.49455	0	
2.7867	-52.0212	0.258057	0	
2.7873	-58.4632	3.01066	0	
2.7880	-55.6924	1.20426	0	
2.7887	-43.1547	-1.89241	0	
2.7893	-29.7858	-1.54834	0	
2.7900	-16.6246	-1.89241	0	
2.7907	-7.48107	-2.7526	0	
2.7913	-3.53273	-2.15047	0	
2.7920	5.95715	-2.49455	0	
2.7927	24.8676	-3.35474	0	
2.7933	40.1069	-2.49455	0	
2.7940	44.4016	-2.49455	0	
2.7947	36.7819	-2.49455	0	
2.7953	15.3778	0.602132	0	
2.7960	-16.0012	3.35474	0	
2.7967	-50.2202	4.559	0	
2.7973	-77.0273	4.559	0	
2.7980	-76.4732	2.15047	0	
2.7987	-46.2026	0.602132	0	
2.7993	-15.1007	1.46232	0	
2.8000	-3.53273	1.8064	0	
2.8007	-4.08688	3.01066	0	
2.8013	-6.23423	4.81706	0	
2.8020	-9.005	3.35474	0	
2.8027	-13.5768	2.7526	0	
2.8033	-15.447	3.95687	0	
2.8040	-9.62842	2.15047	0	
2.8047	-2.00881	0	0	
2.8053	0.138538	1.20426	0	
2.8060	-0.761961	3.01066	0	
2.8067	2.00881	3.61279	0	
2.8073	9.90549	5.76326	0	
2.8080	15.1007	7.3116	0	
2.8087	13.2997	6.70947	0	
2.8093	9.62842	5.76326	0	
2.8100	10.806	5.16113	0	
2.8107	13.5768	4.81706	0	
2.8113	11.7758	3.95687	0	
2.8120	7.204	2.40853	0	
2.8127	5.95715	2.15047	0	
2.8133	5.95715	2.15047	0	
2.8140	4.71031	1.20426	0	
2.8147	7.204	1.46232	0	
2.8153	14.2002	2.15047	0	
2.8160	20.9193	2.7526	0	
2.8167	29.7858	3.01066	0	
2.8173	43.1547	3.01066	0	
2.8180	54.1685	2.40853	0	
2.8187	60.6105	2.7526	0	
2.8193	60.6105	3.01066	0	
2.8200	40.1069	3.35474	0	
2.8207	2.28588	3.61279	0	
2.8213	-29.4394	3.01066	0	
2.8220	-47.1723	1.46232	0	
2.8227	-56.5929	1.46232	0	
2.8233	-56.3159	2.15047	0	
2.8240	-48.0728	1.8064	0	
2.8247	-41.6308	3.01066	0	
2.8253	-35.5351	3.95687	0	
2.8260	-25.7681	1.20426	0	
2.8267	-17.5251	-0.946207	0	
2.8273	-12.9533	-0.946207	0	
2.8280	-8.1045	-0.946207	0	
2.8287	-5.33373	1.20426	0	
2.8293	-4.71031	4.81706	0	
2.8300	-0.761961	3.35474	0	
2.8307	6.23423	0.258057	0	
2.8313	9.005	1.20426	0	
2.8320	6.58057	1.46232	0	
2.8327	6.58057	-0.344075	0	
2.8333	13.5768	-0.602132	0	
2.8340	22.4432	-2.49455	0	
2.8347	24.8676	-4.30094	0	
2.8353	24.2442	-3.09668	0	
2.8360	24.8676	-3.35474	0	
2.8367	20.2959	-5.24715	0	
2.8373	14.4773	-3.09668	0	
2.8380	14.2002	-1.89241	0	
2.8387	10.5289	-3.35474	0	
2.8393	-0.484884	-1.54834	0	
2.8400	-1.66246	-0.602132	0	
2.8407	8.38157	-1.20426	0	
2.8413	10.2518	-0.344075	0	
2.8420	5.6108	-1.89241	0	
2.8427	10.806	-5.24715	0	
2.8433	20.2959	-4.30094	0	
2.8440	22.4432	-2.7526	0	
2.8447	18.4949	-3.95687	0	
2.8453	5.33373	-3.35474	0	
2.8460	-15.447	-3.35474	0	
2.8467	-23.0666	-4.559	0	
2.8473	-12.9533	-3.09668	0	
2.8480	-8.38157	0	0	
2.8487	-13.5768	1.46232	0	
2.8493	-14.8236	1.8064	0	
2.8500	-16.971	-0.344075	0	
2.8507	-25.4911	-1.20426	0	
2.8513	-31.3097	0.602132	0	
2.8520	-30.0628	0.860189	0	
2.8527	-23.6208	-0.602132	0	
2.8533	-15.447	-0.602132	0	
2.8540	-15.447	0.258057	0	
2.8547	-22.0969	-0.344075	0	
2.8553	-20.2959	-1.20426	0	
2.8560	-12.0528	-0.602132	0	
2.8567	-8.72792	1.20426	0	
2.8573	-7.204	0	0	
2.8580	-2.56296	-4.30094	0	
2.8587	1.03904	-5.24715	0	
2.8593	1.03904	-2.49455	0	
2.8600	-0.138538	-0.602132	0	
2.8607	-1.03904	-0.602132	0	
2.8613	0.138538	-0.946207	0	
2.8620	9.62842	-2.15047	0	
2.8627	29.7858	-1.54834	0	
2.8633	50.2202	0.602132	0	
2.8640	60.6105	2.15047	0	
2.8647	62.4115	2.15047	0	
2.8653	56.9393	1.46232	0	
2.8660	41.3537	0.258057	0	
2.8667	18.4949	0	0	
2.8673	-2.56296	0.258057	0	
2.8680	-13.5768	-0.344075	0	
2.8687	-15.447	0.602132	0	
2.8693	-19.049	2.7526	0	
2.8700	-29.7858	2.15047	0	
2.8707	-32.8336	-0.344075	0	
2.8713	-21.5427	-2.49455	0	
2.8720	-6.58057	-4.30094	0	
2.8727	-1.03904	-3.69881	0	
2.8733	-5.33373	-3.09668	0	
2.8740	-7.204	-4.90308	0	
2.8747	1.03904	-4.559	0	
2.8753	8.38157	-2.15047	0	
2.8760	9.005	-4.30094	0	
2.8767	7.75815	-6.10734	0	
2.8773	4.08688	-2.7526	0	
2.8780	-1.66246	-2.49455	0	
2.8787	-0.761961	-4.30094	0	
2.8793	1.03904	-1.54834	0	
2.8800	-9.005	0.258057	0	
2.8807	-23.3437	-1.89241	0	
2.8813	-28.5389	-1.54834	0	
2.8820	-27.015	-1.54834	0	
2.8827	-23.9671	-3.35474	0	
2.8833	-20.0188	-1.20426	0	
2.8840	-15.1007	0.258057	0	
2.8847	-9.005	-2.49455	0	
2.8853	-2.56296	-2.15047	0	
2.8860	1.03904	-0.602132	0	
2.8867	2.28588	-3.69881	0	
2.8873	1.03904	-3.95687	0	
2.8880	-2.00881	-1.20426	0	
2.8887	-3.18638	-2.49455	0	
2.8893	2.00881	-3.35474	0	
2.8900	11.1523	-1.20426	0	
2.8907	14.8236	-1.54834	0	
2.8913	10.2518	-4.30094	0	
2.8920	8.38157	-3.69881	0	
2.8927	12.0528	-1.89241	0	
2.8933	8.72792	-0.946207	0	
2.8940	-3.80981	-0.946207	0	
2.8947	-12.0528	-0.602132	0	
2.8953	-9.90549	0.258057	0	
2.8960	4.08688	1.46232	0	
2.8967	29.7858	-0.602132	0	
2.8973	52.3675	-1.20426	0	
2.8980	57.4934	3.35474	0	
2.8987	55.9695	6.70947	0	
2.8993	59.9871	5.50521	0	
2.9000	53.268	4.81706	0	
2.9007	13.5768	4.81706	0	
2.9013	-48.3499	2.15047	0	
2.9020	-87.7641	2.15047	0	
2.9027	-78.8976	5.50521	0	
2.9033	-50.2202	5.76326	0	
2.9040	-34.0112	3.95687	0	
2.9047	-18.1485	4.81706	0	
2.9053	7.48107	6.3654	0	
2.9060	17.5251	5.76326	0	
2.9067	5.6108	5.76326	0	
2.9073	-5.33373	7.56966	0	
2.9080	-9.005	6.70947	0	
2.9087	-11.7758	3.95687	0	
2.9093	-7.204	3.61279	0	
2.9100	2.28588	5.16113	0	
2.9107	2.90931	5.50521	0	
2.9113	0.138538	5.76326	0	
2.9120	0.138538	5.76326	0	
2.9127	-2.56296	3.95687	0	
2.9133	-4.43323	1.20426	0	
2.9140	-0.484884	2.15047	0	
2.9147	0.484884	4.21492	0	
2.9153	-3.53273	4.81706	0	
2.9160	-8.38157	4.81706	0	
2.9167	-18.4949	5.50521	0	
2.9173	-26.7379	4.81706	0	
2.9180	-20.2959	3.95687	0	
2.9187	-8.38157	4.81706	0	
2.9193	-1.66246	3.95687	0	
2.9200	6.58057	1.20426	0	
2.9207	16.6246	0.258057	0	
2.9213	18.772	0.258057	0	
2.9220	14.4773	-1.54834	0	
2.9227	12.6763	-0.946207	0	
2.9233	13.5768	1.8064	0	
2.9240	9.62842	2.7526	0	
2.9247	4.71031	2.15047	0	
2.9253	13.2997	3.01066	0	
2.9260	31.3097	4.559	0	
2.9267	34.6346	3.61279	0	
2.9273	18.1485	1.8064	0	
2.9280	2.90931	-0.602132	0	
2.9287	-0.484884	-4.30094	0	
2.9293	2.90931	-4.559	0	
2.9300	5.6108	-2.49455	0	
2.9307	6.58057	-3.35474	0	
2.9313	4.08688	-5.50521	0	
2.9320	-2.00881	-4.30094	0	
2.9327	-8.38157	-3.69881	0	
2.9333	-8.72792	-4.30094	0	
2.9340	-4.43323	-1.54834	0	
2.9347	-3.53273	-2.7526	0	
2.9353	-1.66246	-8.85994	0	
2.9360	7.204	-9.20402	0	
2.9367	13.5768	-4.30094	0	
2.9373	10.5289	-4.30094	0	
2.9380	9.28207	-5.50521	0	
2.9387	19.3954	-3.35474	0	
2.9393	32.8336	-3.95687	0	
2.9400	37.059	-6.45141	0	
2.9407	27.015	-5.50521	0	
2.9413	4.43323	-4.30094	0	
2.9420	-20.573	-4.90308	0	
2.9427	-35.258	-4.559	0	
2.9433	-41.0766	-3.35474	0	
2.9440	-45.6484	-2.49455	0	
2.9447	-42.2542	-3.35474	0	
2.9453	-26.3916	-3.69881	0	
2.9460	-7.204	-4.30094	0	
2.9467	6.23423	-4.559	0	
2.9473	18.4949	-4.559	0	
2.9480	30.6863	-3.69881	0	
2.9487	35.8814	-3.35474	0	
2.9493	29.4394	-3.35474	0	
2.9500	20.2959	-1.54834	0	
2.9507	16.9017	1.20426	0	
2.9513	9.90549	0.602132	0	
2.9520	-8.1045	-2.49455	0	
2.9527	-15.447	-4.90308	0	
2.9533	-1.03904	-5.24715	0	
2.9540	2.90931	-4.30094	0	
2.9547	-18.4949	-4.30094	0	
2.9553	-41.0766	-4.90308	0	
2.9560	-54.1685	-2.7526	0	
2.9567	-62.1345	1.46232	0	
2.9573	-57.8398	2.15047	0	
2.9580	-40.1069	-1.54834	0	
2.9587	-16.6246	-3.95687	0	
2.9593	10.2518	-2.7526	0	
2.9600	30.3399	-0.602132	0	
2.9607	34.0112	-0.602132	0	
2.9613	24.2442	-2.49455	0	
2.9620	10.806	-2.15047	0	
2.9627	1.66246	0.258057	0	
2.9633	-7.75815	1.8064	0	
2.9640	-28.2618	1.8064	0	
2.9647	-44.1245	0.258057	0	
2.9653	-35.8814	-2.49455	0	
2.9660	-18.1485	-2.49455	0	
2.9667	-9.28207	-0.344075	0	
2.9673	-2.00881	-0.946207	0	
2.9680	4.43323	-0.602132	0	
2.9687	5.6108	0.860189	0	
2.9693	9.62842	0.258057	0	
2.9700	14.8236	1.20426	0	
2.9707	11.1523	3.35474	0	
2.9713	3.80981	2.15047	0	
2.9720	0.138538	2.40853	0	
2.9727	-8.1045	3.95687	0	
2.9733	-18.772	1.46232	0	
2.9740	-20.9193	0.258057	0	
2.9747	-14.4773	1.8064	0	
2.9753	-9.62842	-1.20426	0	
2.9760	-7.204	-1.89241	0	
2.9767	-5.68007	3.35474	0	
2.9773	-5.95715	3.35474	0	
2.9780	-3.80981	-0.602132	0	
2.9787	1.03904	0.258057	0	
2.9793	1.03904	0.258057	0	
2.9800	-3.53273	0	0	
2.9807	-5.33373	5.76326	0	
2.9813	-4.43323	10.0642	0	
