0.0007	22.8167	0.290179	0	
0.0013	20.0417	-2.15562	0	
0.0020	16.9969	-2.15562	0	
0.0027	11.524	-2.4458	0	
0.0033	6.62919	-3.35779	0	
0.0040	1.73438	-1.24363	0	
0.0047	-3.73855	1.53381	0	
0.0053	-8.9417	2.11416	0	
0.0060	-16.2646	3.02616	0	
0.0067	-28.4438	6.09377	0	
0.0073	-38.5418	9.45156	0	
0.0080	-41.5866	10.0734	0	
0.0087	-41.2783	8.53956	0	
0.0093	-41.5866	8.82974	0	
0.0100	-38.2335	10.0734	0	
0.0107	-32.4136	8.82974	0	
0.0113	-28.1741	6.09377	0	
0.0120	-23.2792	4.26978	0	
0.0127	-16.573	3.35779	0	
0.0133	-13.2198	3.35779	0	
0.0140	-11.0615	2.4458	0	
0.0147	-5.89689	0.621813	0	
0.0153	-2.23542	0.290179	0	
0.0160	2.35105	0.621813	0	
0.0167	14.8771	-3.06761	0	
0.0173	29.8313	-7.33739	0	
0.0180	37.1543	-7.62757	0	
0.0187	37.1543	-6.09377	0	
0.0193	34.4178	-4.89159	0	
0.0200	33.1845	-4.89159	0	
0.0207	30.1397	-5.18177	0	
0.0213	23.1251	-2.4458	0	
0.0220	16.3803	0.911992	0	
0.0227	13.0271	1.82398	0	
0.0233	8.17086	1.82398	0	
0.0240	2.35105	2.4458	0	
0.0247	-0.693752	2.11416	0	
0.0253	-4.35522	1.53381	0	
0.0260	-12.6032	5.18177	0	
0.0267	-22.0459	8.24938	0	
0.0273	-29.6772	8.24938	0	
0.0280	-36.6918	8.53956	0	
0.0287	-40.0449	10.6537	0	
0.0293	-35.8053	11.6072	0	
0.0300	-29.9855	9.74174	0	
0.0307	-28.1741	8.53956	0	
0.0313	-24.5126	6.38395	0	
0.0320	-17.7678	3.35779	0	
0.0327	-14.1063	3.64797	0	
0.0333	-10.4448	7.29594	0	
0.0340	-4.35522	7.91775	0	
0.0347	-0.385418	7.00576	0	
0.0353	2.35105	5.47195	0	
0.0360	8.47919	3.35779	0	
0.0367	19.4636	0.911992	0	
0.0373	30.7564	-3.06761	0	
0.0380	36.2293	-7.62757	0	
0.0387	33.4928	-8.53956	0	
0.0393	31.6428	-7.62757	0	
0.0400	30.7564	-7.04721	0	
0.0407	23.7032	-3.68942	0	
0.0413	16.1105	-0.621813	0	
0.0420	13.6438	-2.15562	0	
0.0427	9.05732	-2.15562	0	
0.0433	4.20106	-0.911992	0	
0.0440	4.20106	-2.15562	0	
0.0447	3.27605	-1.24363	0	
0.0453	0.231251	2.4458	0	
0.0460	-4.66356	4.55996	0	
0.0467	-15.0313	7.00576	0	
0.0473	-26.0157	10.3635	0	
0.0480	-28.1741	10.9854	0	
0.0487	-27.8657	11.6072	0	
0.0493	-29.6772	12.5192	0	
0.0500	-28.7522	9.74174	0	
0.0507	-25.399	7.62757	0	
0.0513	-20.5428	7.91775	0	
0.0520	-14.1063	6.09377	0	
0.0527	-10.1365	3.64797	0	
0.0533	-8.32503	2.73598	0	
0.0540	-4.97189	1.53381	0	
0.0547	-3.12189	-1.82398	0	
0.0553	-1.00209	-3.9796	0	
0.0560	7.86253	-3.9796	0	
0.0567	21.2751	-4.26978	0	
0.0573	32.5678	-6.71558	0	
0.0580	38.6574	-8.8712	0	
0.0587	37.771	-8.53956	0	
0.0593	33.8012	-8.53956	0	
0.0600	31.6428	-8.53956	0	
0.0607	27.4032	-7.62757	0	
0.0613	21.8917	-7.33739	0	
0.0620	18.5386	-6.71558	0	
0.0627	14.5688	-4.89159	0	
0.0633	9.98232	-3.06761	0	
0.0640	7.86253	-0.621813	0	
0.0647	6.62919	3.02616	0	
0.0653	3.27605	2.4458	0	
0.0660	-2.23542	-0.621813	0	
0.0667	-15.3396	2.4458	0	
0.0673	-31.2189	8.24938	0	
0.0680	-37.0001	9.74174	0	
0.0687	-35.8053	10.9854	0	
0.0693	-36.0751	15.2551	0	
0.0700	-33.0303	13.7213	0	
0.0707	-25.7074	10.3635	0	
0.0713	-22.6626	12.5192	0	
0.0720	-20.2344	14.3432	0	
0.0727	-13.5282	9.74174	0	
0.0733	-11.0615	3.35779	0	
0.0740	-9.55836	-0.911992	0	
0.0747	-3.12189	-3.35779	0	
0.0753	0.539585	-5.51341	0	
0.0760	4.81772	-7.62757	0	
0.0767	17.6136	-11.317	0	
0.0773	29.2147	-12.8093	0	
0.0780	31.6428	-10.3635	0	
0.0787	32.5678	-8.53956	0	
0.0793	33.4928	-9.78319	0	
0.0800	28.9063	-9.78319	0	
0.0807	24.3199	-7.62757	0	
0.0813	21.5834	-7.33739	0	
0.0820	16.1105	-7.04721	0	
0.0827	11.2157	-5.18177	0	
0.0833	9.67399	-2.4458	0	
0.0840	6.93752	0.290179	0	
0.0847	1.15625	2.4458	0	
0.0853	-4.66356	2.73598	0	
0.0860	-10.4448	5.18177	0	
0.0867	-21.7376	7.91775	0	
0.0873	-34.572	8.82974	0	
0.0880	-40.0449	12.1875	0	
0.0887	-38.8501	15.2551	0	
0.0893	-38.2335	12.5192	0	
0.0900	-37.6168	11.6072	0	
0.0907	-32.722	12.5192	0	
0.0913	-27.249	7.62757	0	
0.0920	-22.3542	3.64797	0	
0.0927	-17.4594	4.26978	0	
0.0933	-13.2198	2.11416	0	
0.0940	-9.55836	-0.331634	0	
0.0947	-4.97189	2.11416	0	
0.0953	-2.81355	0.911992	0	
0.0960	1.73438	-3.06761	0	
0.0967	13.3355	-3.9796	0	
0.0973	24.3199	-5.80359	0	
0.0980	28.9063	-8.53956	0	
0.0987	31.9511	-9.45156	0	
0.0993	33.4928	-10.0734	0	
0.1000	29.2147	-8.8712	0	
0.1007	23.4334	-4.89159	0	
0.1013	17.6136	-5.18177	0	
0.1020	10.599	-7.62757	0	
0.1027	7.86253	-5.80359	0	
0.1033	8.17086	-3.9796	0	
0.1040	4.50939	-3.06761	0	
0.1047	-0.0770836	-0.331634	0	
0.1053	-2.50522	1.20217	0	
0.1060	-8.9417	2.73598	0	
0.1067	-20.5428	9.16138	0	
0.1073	-31.5272	13.0995	0	
0.1080	-37.9251	10.6537	0	
0.1087	-38.8501	10.9854	0	
0.1093	-36.0751	12.8093	0	
0.1100	-32.4136	8.82974	0	
0.1107	-27.8657	5.18177	0	
0.1113	-22.3542	6.38395	0	
0.1120	-16.8813	5.18177	0	
0.1127	-11.9865	2.73598	0	
0.1133	-9.25003	3.02616	0	
0.1140	-7.09169	1.53381	0	
0.1147	-3.43022	-2.4458	0	
0.1153	1.15625	-2.73598	0	
0.1160	6.62919	-2.15562	0	
0.1167	16.1105	-6.09377	0	
0.1173	26.4782	-8.24938	0	
0.1180	33.8012	-5.80359	0	
0.1187	38.9658	-5.18177	0	
0.1193	38.6574	-4.89159	0	
0.1200	32.2595	-3.9796	0	
0.1207	27.673	-6.4254	0	
0.1213	26.1699	-7.62757	0	
0.1220	20.0417	-3.06761	0	
0.1227	13.0271	-0.331634	0	
0.1233	10.2907	-1.24363	0	
0.1240	6.93752	0.621813	0	
0.1247	2.35105	2.73598	0	
0.1253	0.539585	2.4458	0	
0.1260	-4.04689	5.18177	0	
0.1267	-15.0313	9.45156	0	
0.1273	-25.399	11.2755	0	
0.1280	-32.4136	12.5192	0	
0.1287	-35.1887	12.5192	0	
0.1293	-32.722	10.3635	0	
0.1300	-27.5574	8.82974	0	
0.1307	-24.2042	8.82974	0	
0.1313	-20.5428	8.53956	0	
0.1320	-15.0313	6.71558	0	
0.1327	-11.3698	4.89159	0	
0.1333	-10.1365	5.47195	0	
0.1340	-6.47502	6.09377	0	
0.1347	-2.81355	1.82398	0	
0.1353	-2.23542	-1.53381	0	
0.1360	3.58439	-2.15562	0	
0.1367	17.3053	-5.18177	0	
0.1373	28.2897	-9.45156	0	
0.1380	33.4928	-9.16138	0	
0.1387	36.846	-9.45156	0	
0.1393	36.2293	-11.6072	0	
0.1400	30.7564	-9.16138	0	
0.1407	26.1699	-5.51341	0	
0.1413	21.5834	-6.71558	0	
0.1420	14.8771	-6.4254	0	
0.1427	9.36566	-0.911992	0	
0.1433	7.86253	3.35779	0	
0.1440	6.93752	2.11416	0	
0.1447	3.89272	1.53381	0	
0.1453	1.15625	3.64797	0	
0.1460	-6.47502	5.18177	0	
0.1467	-20.5428	8.24938	0	
0.1473	-31.5272	14.6333	0	
0.1480	-36.0751	17.0791	0	
0.1487	-39.7366	13.4312	0	
0.1493	-40.0449	10.3635	0	
0.1500	-33.0303	10.3635	0	
0.1507	-28.7522	8.24938	0	
0.1513	-26.9407	5.80359	0	
0.1520	-18.6928	6.09377	0	
0.1527	-11.0615	8.24938	0	
0.1533	-10.1365	7.91775	0	
0.1540	-6.16669	5.18177	0	
0.1547	-1.00209	4.26978	0	
0.1553	-1.31042	4.26978	0	
0.1560	3.89272	1.20217	0	
0.1567	18.8469	-3.68942	0	
0.1573	29.8313	-5.18177	0	
0.1580	33.8012	-5.18177	0	
0.1587	36.2293	-7.62757	0	
0.1593	32.5678	-10.0734	0	
0.1600	24.3199	-8.53956	0	
0.1607	20.6584	-4.60142	0	
0.1613	19.1553	-1.24363	0	
0.1620	14.8771	-0.621813	0	
0.1627	11.8323	-2.15562	0	
0.1633	8.47919	-1.53381	0	
0.1640	1.73438	3.02616	0	
0.1647	-1.92709	5.18177	0	
0.1653	-1.31042	6.09377	0	
0.1660	-7.70836	10.0734	0	
0.1667	-21.4292	13.4312	0	
0.1673	-29.6772	13.4312	0	
0.1680	-33.3387	14.6333	0	
0.1687	-38.2335	16.7889	0	
0.1693	-38.2335	15.877	0	
0.1700	-31.5272	12.5192	0	
0.1707	-26.9407	6.71558	0	
0.1713	-22.0459	0.621813	0	
0.1720	-15.3396	-0.911992	0	
0.1727	-12.2948	0.290179	0	
0.1733	-11.0615	-0.911992	0	
0.1740	-4.97189	-1.82398	0	
0.1747	-0.693752	-0.621813	0	
0.1753	1.15625	-2.15562	0	
0.1760	7.86253	-6.71558	0	
0.1767	18.8469	-9.78319	0	
0.1773	28.2897	-12.8093	0	
0.1780	35.3043	-14.965	0	
0.1787	36.2293	-12.229	0	
0.1793	33.4928	-9.16138	0	
0.1800	31.0647	-7.33739	0	
0.1807	25.8615	-4.60142	0	
0.1813	18.8469	-4.60142	0	
0.1820	14.8771	-7.62757	0	
0.1827	12.1407	-6.09377	0	
0.1833	9.05732	-2.73598	0	
0.1840	7.86253	-2.15562	0	
0.1847	4.20106	-0.331634	0	
0.1853	-2.50522	2.73598	0	
0.1860	-8.01669	3.35779	0	
0.1867	-15.0313	5.18177	0	
0.1873	-26.9407	8.82974	0	
0.1880	-36.0751	9.45156	0	
0.1887	-36.0751	8.82974	0	
0.1893	-34.2637	10.3635	0	
0.1900	-31.8355	9.74174	0	
0.1907	-25.399	8.82974	0	
0.1913	-19.6178	10.6537	0	
0.1920	-17.1896	11.2755	0	
0.1927	-14.1063	5.80359	0	
0.1933	-8.63336	-1.53381	0	
0.1940	-4.04689	-2.73598	0	
0.1947	-4.35522	-0.331634	0	
0.1953	-5.89689	-0.331634	0	
0.1960	0.847919	-2.4458	0	
0.1967	13.9521	-4.60142	0	
0.1973	24.9365	-6.71558	0	
0.1980	31.9511	-8.53956	0	
0.1987	35.921	-8.24938	0	
0.1993	34.4178	-6.09377	0	
0.2000	30.7564	-5.51341	0	
0.2007	27.4032	-4.89159	0	
0.2013	22.5084	-3.9796	0	
0.2020	17.3053	-3.35779	0	
0.2027	16.3803	-1.53381	0	
0.2033	16.1105	1.53381	0	
0.2040	12.1407	0.290179	0	
0.2047	8.47919	-2.15562	0	
0.2053	4.81772	-0.331634	0	
0.2060	-3.73855	3.64797	0	
0.2067	-17.1896	5.47195	0	
0.2073	-29.3688	7.91775	0	
0.2080	-37.0001	8.82974	0	
0.2087	-38.8501	7.91775	0	
0.2093	-35.1887	10.6537	0	
0.2100	-29.9855	12.5192	0	
0.2107	-26.0157	7.62757	0	
0.2113	-22.0459	3.64797	0	
0.2120	-16.8813	3.9796	0	
0.2127	-15.0313	2.11416	0	
0.2133	-15.3396	-0.911992	0	
0.2140	-11.3698	-0.331634	0	
0.2147	-5.28023	0.290179	0	
0.2153	-1.61876	-3.06761	0	
0.2160	5.39585	-6.71558	0	
0.2167	17.3053	-7.9592	0	
0.2173	26.4782	-9.78319	0	
0.2180	32.2595	-13.141	0	
0.2187	36.5376	-13.7213	0	
0.2193	35.921	-11.317	0	
0.2200	30.7564	-9.45156	0	
0.2207	25.5532	-8.53956	0	
0.2213	19.7719	-6.71558	0	
0.2220	14.2605	-3.68942	0	
0.2227	11.524	-1.24363	0	
0.2233	7.86253	0.621813	0	
0.2240	1.73438	3.64797	0	
0.2247	-4.04689	5.47195	0	
0.2253	-5.89689	3.02616	0	
0.2260	-9.55836	3.35779	0	
0.2267	-20.5428	9.16138	0	
0.2273	-33.3387	11.2755	0	
0.2280	-39.7366	9.74174	0	
0.2287	-40.0449	9.74174	0	
0.2293	-38.8501	9.16138	0	
0.2300	-35.8053	7.00576	0	
0.2307	-30.9105	8.53956	0	
0.2313	-25.0907	8.24938	0	
0.2320	-19.0011	3.35779	0	
0.2327	-14.1063	2.4458	0	
0.2333	-9.82816	4.26978	0	
0.2340	-6.47502	3.35779	0	
0.2347	-5.28023	3.35779	0	
0.2353	-4.04689	3.35779	0	
0.2360	2.35105	-1.53381	0	
0.2367	14.2605	-8.53956	0	
0.2373	26.4782	-10.3635	0	
0.2380	34.1095	-8.24938	0	
0.2387	35.6126	-6.71558	0	
0.2393	34.9959	-6.71558	0	
0.2400	32.8762	-5.18177	0	
0.2407	27.0949	-3.06761	0	
0.2413	19.7719	-2.73598	0	
0.2420	15.8021	-3.9796	0	
0.2427	14.2605	-3.06761	0	
0.2433	11.2157	-0.911992	0	
0.2440	6.62919	0.911992	0	
0.2447	2.65938	2.73598	0	
0.2453	-0.0770836	5.47195	0	
0.2460	-4.97189	7.62757	0	
0.2467	-16.573	9.74174	0	
0.2473	-30.2938	11.6072	0	
0.2480	-37.0001	11.8974	0	
0.2487	-35.497	11.6072	0	
0.2493	-33.3387	12.5192	0	
0.2500	-31.5272	11.2755	0	
0.2507	-27.249	8.24938	0	
0.2513	-22.9709	6.09377	0	
0.2520	-19.0011	4.55996	0	
0.2527	-13.2198	3.64797	0	
0.2533	-7.40002	2.4458	0	
0.2540	-4.97189	-2.15562	0	
0.2547	-3.43022	-4.89159	0	
0.2553	1.42605	-3.06761	0	
0.2560	8.17086	-3.68942	0	
0.2567	16.9969	-7.62757	0	
0.2573	26.7865	-8.24938	0	
0.2580	33.8012	-7.33739	0	
0.2587	35.6126	-8.53956	0	
0.2593	33.1845	-8.8712	0	
0.2600	28.9063	-7.62757	0	
0.2607	24.3199	-5.80359	0	
0.2613	17.6136	-4.89159	0	
0.2620	13.0271	-5.80359	0	
0.2627	11.524	-4.60142	0	
0.2633	6.62919	-0.621813	0	
0.2640	-0.0770836	0	0	
0.2647	-0.385418	-0.911992	0	
0.2653	0.539585	2.4458	0	
0.2660	-7.70836	7.00576	0	
0.2667	-21.1209	10.3635	0	
0.2673	-29.6772	13.4312	0	
0.2680	-34.2637	14.6333	0	
0.2687	-35.8053	13.4312	0	
0.2693	-34.572	10.6537	0	
0.2700	-32.4136	5.18177	0	
0.2707	-29.6772	-0.331634	0	
0.2713	-24.2042	-2.15562	0	
0.2720	-17.7678	-1.24363	0	
0.2727	-13.798	-0.621813	0	
0.2733	-11.3698	0.621813	0	
0.2740	-7.40002	0.290179	0	
0.2747	-3.12189	-1.82398	0	
0.2753	-1.92709	-3.9796	0	
0.2760	2.96772	-5.18177	0	
0.2767	15.1855	-6.71558	0	
0.2773	27.4032	-8.53956	0	
0.2780	33.1845	-10.3635	0	
0.2787	34.4178	-8.8712	0	
0.2793	32.5678	-4.89159	0	
0.2800	26.1699	-2.15562	0	
0.2807	17.9219	-2.15562	0	
0.2813	13.9521	-2.15562	0	
0.2820	12.1407	-2.15562	0	
0.2827	9.67399	-3.9796	0	
0.2833	6.93752	-5.80359	0	
0.2840	2.96772	-2.4458	0	
0.2847	-0.385418	4.55996	0	
0.2853	-1.61876	7.29594	0	
0.2860	-6.78336	6.09377	0	
0.2867	-20.5428	7.91775	0	
0.2873	-33.3387	12.1875	0	
0.2880	-38.5418	12.5192	0	
0.2887	-38.5418	11.6072	0	
0.2893	-34.572	13.0995	0	
0.2900	-29.6772	10.6537	0	
0.2907	-28.4438	4.55996	0	
0.2913	-25.399	3.35779	0	
0.2920	-17.7678	3.64797	0	
0.2927	-13.2198	1.53381	0	
0.2933	-11.3698	0.621813	0	
0.2940	-5.58856	4.26978	0	
0.2947	-0.693752	5.80359	0	
0.2953	-0.693752	2.4458	0	
0.2960	4.50939	-0.331634	0	
0.2967	17.9219	-1.24363	0	
0.2973	28.9063	-3.9796	0	
0.2980	33.1845	-7.33739	0	
0.2987	35.921	-10.6952	0	
0.2993	37.771	-12.229	0	
0.3000	34.1095	-8.8712	0	
0.3007	27.673	-3.9796	0	
0.3013	23.7032	-2.15562	0	
0.3020	19.7719	1.20217	0	
0.3027	13.6438	6.09377	0	
0.3033	8.78753	8.82974	0	
0.3040	4.81772	7.91775	0	
0.3047	0.231251	6.09377	0	
0.3053	-1.00209	3.9796	0	
0.3060	-2.81355	5.18177	0	
0.3067	-14.1063	9.16138	0	
0.3073	-28.1741	11.6072	0	
0.3080	-34.2637	11.6072	0	
0.3087	-35.497	10.6537	0	
0.3093	-35.497	9.16138	0	
0.3100	-30.2938	10.6537	0	
0.3107	-22.9709	11.8974	0	
0.3113	-19.3094	10.6537	0	
0.3120	-15.648	10.6537	0	
0.3127	-10.1365	9.45156	0	
0.3133	-7.09169	2.4458	0	
0.3140	-5.28023	-3.06761	0	
0.3147	-1.00209	-2.4458	0	
0.3153	2.35105	-2.15562	0	
0.3160	6.62919	-4.89159	0	
0.3167	16.9969	-7.62757	0	
0.3173	28.598	-7.9592	0	
0.3180	33.1845	-8.53956	0	
0.3187	32.2595	-8.53956	0	
0.3193	30.1397	-6.71558	0	
0.3200	27.0949	-5.80359	0	
0.3207	23.4334	-5.51341	0	
0.3213	19.1553	-3.9796	0	
0.3220	14.2605	-1.53381	0	
0.3227	9.98232	-0.911992	0	
0.3233	6.01252	0.621813	0	
0.3240	2.04272	3.02616	0	
0.3247	2.35105	2.73598	0	
0.3253	3.27605	1.20217	0	
0.3260	-4.97189	3.02616	0	
0.3267	-19.3094	7.29594	0	
0.3273	-29.6772	8.53956	0	
0.3280	-36.3835	8.24938	0	
0.3287	-40.3533	9.74174	0	
0.3293	-35.8053	10.9854	0	
0.3300	-28.7522	9.74174	0	
0.3307	-26.6324	7.91775	0	
0.3313	-22.3542	6.71558	0	
0.3320	-14.4146	4.89159	0	
0.3327	-12.2948	4.26978	0	
0.3333	-13.5282	3.35779	0	
0.3340	-10.1365	1.53381	0	
0.3347	-8.01669	1.53381	0	
0.3353	-8.63336	1.53381	0	
0.3360	-0.385418	-2.4458	0	
0.3367	15.1855	-7.04721	0	
0.3373	24.6282	-9.16138	0	
0.3380	27.0949	-11.8974	0	
0.3387	27.4032	-13.4312	0	
0.3393	27.0949	-10.6952	0	
0.3400	23.4334	-7.62757	0	
0.3407	15.8021	-6.71558	0	
0.3413	9.05732	-5.80359	0	
0.3420	8.78753	-3.35779	0	
0.3427	10.599	-1.24363	0	
0.3433	7.86253	0.621813	0	
0.3440	2.96772	3.35779	0	
0.3447	2.04272	5.18177	0	
0.3453	2.35105	2.4458	0	
0.3460	-2.23542	1.20217	0	
0.3467	-12.2948	7.62757	0	
0.3473	-21.1209	14.3432	0	
0.3480	-26.0157	14.965	0	
0.3487	-30.2938	13.4312	0	
0.3493	-34.2637	12.5192	0	
0.3500	-33.3387	9.45156	0	
0.3507	-26.9407	7.00576	0	
0.3513	-20.5428	6.38395	0	
0.3520	-16.8813	6.09377	0	
0.3527	-13.2198	6.09377	0	
0.3533	-8.63336	4.26978	0	
0.3540	-5.58856	0.621813	0	
0.3547	-3.12189	-1.24363	0	
0.3553	1.15625	-1.53381	0	
0.3560	7.86253	-4.89159	0	
0.3567	17.3053	-8.8712	0	
0.3573	27.0949	-8.53956	0	
0.3580	34.7262	-7.62757	0	
0.3587	38.6574	-6.71558	0	
0.3593	37.1543	-3.35779	0	
0.3600	31.6428	-1.24363	0	
0.3607	26.1699	-1.24363	0	
0.3613	21.2751	-1.24363	0	
0.3620	15.4938	-0.911992	0	
0.3627	10.599	-3.06761	0	
0.3633	9.05732	-6.09377	0	
0.3640	7.55419	-6.71558	0	
0.3647	3.27605	-3.9796	0	
0.3653	-1.61876	1.20217	0	
0.3660	-7.70836	5.80359	0	
0.3667	-18.6928	7.62757	0	
0.3673	-31.5272	9.16138	0	
0.3680	-37.6168	10.3635	0	
0.3687	-37.9251	7.91775	0	
0.3693	-37.3085	6.38395	0	
0.3700	-33.3387	8.82974	0	
0.3707	-25.399	9.45156	0	
0.3713	-20.5428	7.29594	0	
0.3720	-16.8813	6.09377	0	
0.3727	-9.55836	5.47195	0	
0.3733	-4.04689	4.89159	0	
0.3740	-2.81355	5.18177	0	
0.3747	-0.0770836	5.47195	0	
0.3753	3.27605	4.26978	0	
0.3760	6.93752	1.53381	0	
0.3767	16.9969	-3.68942	0	
0.3773	30.7564	-8.53956	0	
0.3780	36.846	-9.45156	0	
0.3787	37.4626	-9.78319	0	
0.3793	36.5376	-9.16138	0	
0.3800	31.3345	-5.51341	0	
0.3807	24.9365	-3.06761	0	
0.3813	19.7719	-3.68942	0	
0.3820	12.7188	-1.53381	0	
0.3827	7.55419	2.4458	0	
0.3833	5.70419	3.9796	0	
0.3840	2.35105	4.26978	0	
0.3847	-1.31042	5.18177	0	
0.3853	-3.73855	6.09377	0	
0.3860	-12.2948	9.45156	0	
0.3867	-25.7074	12.5192	0	
0.3873	-35.1887	12.1875	0	
0.3880	-40.6616	11.6072	0	
0.3887	-44.0147	12.5192	0	
0.3893	-41.5866	11.6072	0	
0.3900	-35.497	8.82974	0	
0.3907	-30.2938	6.71558	0	
0.3913	-25.0907	3.64797	0	
0.3920	-18.6928	0.911992	0	
0.3927	-14.723	0	0	
0.3933	-15.0313	1.20217	0	
0.3940	-14.1063	3.35779	0	
0.3947	-10.4448	1.53381	0	
0.3953	-7.70836	-3.06761	0	
0.3960	-1.31042	-4.26978	0	
0.3967	13.9521	-4.60142	0	
0.3973	29.2147	-7.9592	0	
0.3980	36.2293	-9.78319	0	
0.3987	37.1543	-9.45156	0	
0.3993	35.6126	-10.9854	0	
0.4000	31.9511	-10.9854	0	
0.4007	29.523	-7.62757	0	
0.4013	27.9813	-5.18177	0	
0.4020	26.1699	-3.35779	0	
0.4027	25.2449	-1.24363	0	
0.4033	23.4334	-0.331634	0	
0.4040	16.3803	0	0	
0.4047	10.2907	0	0	
0.4053	7.86253	0.621813	0	
0.4060	1.15625	2.4458	0	
0.4067	-13.2198	6.71558	0	
0.4073	-27.5574	10.6537	0	
0.4080	-36.3835	10.6537	0	
0.4087	-41.2783	6.38395	0	
0.4093	-42.5116	2.4458	0	
0.4100	-41.5866	0.621813	0	
0.4107	-40.6616	-2.4458	0	
0.4113	-37.0001	-3.9796	0	
0.4120	-28.7522	-1.53381	0	
0.4127	-16.8813	0	0	
0.4133	-4.66356	0.621813	0	
0.4140	1.15625	2.4458	0	
0.4147	0.539585	4.26978	0	
0.4153	1.73438	3.9796	0	
0.4160	8.78753	0.290179	0	
0.4167	20.6584	-5.80359	0	
0.4173	32.2595	-10.0734	0	
0.4180	37.1543	-11.317	0	
0.4187	36.5376	-11.317	0	
0.4193	35.3043	-10.3635	0	
0.4200	32.5678	-7.9592	0	
0.4207	28.9063	-8.24938	0	
0.4213	27.9813	-8.53956	0	
0.4220	25.5532	-5.18177	0	
0.4227	18.8469	-1.82398	0	
0.4233	13.9521	0.290179	0	
0.4240	10.9073	2.11416	0	
0.4247	4.50939	0.621813	0	
0.4253	-1.31042	-0.621813	0	
0.4260	-9.55836	4.26978	0	
0.4267	-24.5126	10.3635	0	
0.4273	-39.7366	11.6072	0	
0.4280	-49.8345	12.5192	0	
0.4287	-55.3075	14.0115	0	
0.4293	-51.3377	14.3432	0	
0.4300	-37.9251	16.1671	0	
0.4307	-25.7074	16.1671	0	
0.4313	-20.2344	9.74174	0	
0.4320	-19.3094	2.4458	0	
0.4327	-18.0761	-0.331634	0	
0.4333	-12.9115	-0.331634	0	
0.4340	-9.82816	0.621813	0	
0.4347	-15.648	1.20217	0	
0.4353	-21.4292	0.621813	0	
0.4360	-18.0761	0.290179	0	
0.4367	-10.7532	-1.82398	0	
0.4373	-3.12189	-5.80359	0	
0.4380	2.35105	-8.53956	0	
0.4387	1.73438	-7.33739	0	
0.4393	-2.23542	-6.4254	0	
0.4400	-0.385418	-6.4254	0	
0.4407	1.42605	-4.60142	0	
0.4413	-0.385418	-1.82398	0	
0.4420	3.27605	-1.24363	0	
0.4427	21.2751	-2.15562	0	
0.4433	44.7856	-0.331634	0	
0.4440	57.8898	1.53381	0	
0.4447	52.7252	1.82398	0	
0.4453	35.3043	3.64797	0	
0.4460	15.8021	6.71558	0	
0.4467	-0.385418	5.47195	0	
0.4473	-13.2198	4.55996	0	
0.4480	-21.4292	7.29594	0	
0.4487	-22.3542	7.62757	0	
0.4493	-17.7678	6.71558	0	
0.4500	-13.2198	10.0734	0	
0.4507	-11.3698	11.8974	0	
0.4513	-8.32503	9.16138	0	
0.4520	-4.97189	8.53956	0	
0.4527	-3.12189	7.29594	0	
0.4533	-0.693752	2.11416	0	
0.4540	2.96772	0	0	
0.4547	4.20106	1.82398	0	
0.4553	6.93752	1.20217	0	
0.4560	15.1855	-1.24363	0	
0.4567	25.2449	-4.26978	0	
0.4573	32.5678	-7.9592	0	
0.4580	36.2293	-8.8712	0	
0.4587	33.8012	-6.71558	0	
0.4593	27.9813	-5.51341	0	
0.4600	22.8167	-4.89159	0	
0.4607	16.6886	-3.68942	0	
0.4613	9.05732	-3.06761	0	
0.4620	2.96772	-2.15562	0	
0.4627	-0.385418	-0.331634	0	
0.4633	-2.50522	0.621813	0	
0.4640	-5.89689	1.53381	0	
0.4647	-9.82816	3.35779	0	
0.4653	-15.0313	4.26978	0	
0.4660	-24.2042	5.18177	0	
0.4667	-33.9553	9.45156	0	
0.4673	-39.1585	13.0995	0	
0.4680	-35.8053	12.5192	0	
0.4687	-21.7376	12.1875	0	
0.4693	-4.97189	11.6072	0	
0.4700	2.35105	7.00576	0	
0.4707	-1.92709	4.55996	0	
0.4713	-7.70836	6.71558	0	
0.4720	-7.09169	3.35779	0	
0.4727	-2.23542	-2.15562	0	
0.4733	2.04272	-1.24363	0	
0.4740	2.04272	-0.331634	0	
0.4747	-2.50522	-2.73598	0	
0.4753	-5.28023	-3.35779	0	
0.4760	2.35105	-3.06761	0	
0.4767	18.2303	-5.18177	0	
0.4773	31.9511	-8.24938	0	
0.4780	36.2293	-10.9854	0	
0.4787	35.3043	-10.9854	0	
0.4793	36.5376	-9.16138	0	
0.4800	32.2595	-9.16138	0	
0.4807	15.4938	-8.8712	0	
0.4813	-0.693752	-5.80359	0	
0.4820	-7.70836	-2.73598	0	
0.4827	-14.1063	-0.331634	0	
0.4833	-23.2792	1.82398	0	
0.4840	-31.2189	1.20217	0	
0.4847	-36.6918	0.621813	0	
0.4853	-40.3533	1.53381	0	
0.4860	-41.8949	0.911992	0	
0.4867	-43.1283	3.64797	0	
0.4873	-37.3085	10.0734	0	
0.4880	-20.5428	10.6537	0	
0.4887	0.847919	6.71558	0	
0.4893	17.9219	7.91775	0	
0.4900	18.2303	10.6537	0	
0.4907	2.04272	9.16138	0	
0.4913	-9.55836	7.91775	0	
0.4920	-7.70836	8.53956	0	
0.4927	-5.89689	6.71558	0	
0.4933	-4.97189	3.64797	0	
0.4940	-0.693752	4.26978	0	
0.4947	0.539585	4.26978	0	
0.4953	1.15625	1.53381	0	
0.4960	7.55419	-2.15562	0	
0.4967	16.3803	-5.80359	0	
0.4973	26.4782	-7.62757	0	
0.4980	36.5376	-6.4254	0	
0.4987	38.9658	-6.09377	0	
0.4993	34.4178	-7.62757	0	
0.5000	29.8313	-4.89159	0	
0.5007	23.7032	-2.15562	0	
0.5013	16.9969	-3.68942	0	
0.5020	12.7188	-3.06761	0	
0.5027	9.36566	-0.331634	0	
0.5033	5.39585	0.290179	0	
0.5040	-0.693752	2.73598	0	
0.5047	-8.9417	7.00576	0	
0.5053	-13.798	7.00576	0	
0.5060	-17.4594	7.29594	0	
0.5067	-27.8657	13.4312	0	
0.5073	-38.5418	15.877	0	
0.5080	-42.2033	10.0734	0	
0.5087	-43.3981	4.89159	0	
0.5093	-41.5866	3.35779	0	
0.5100	-34.2637	3.9796	0	
0.5107	-28.1741	6.38395	0	
0.5113	-23.2792	7.00576	0	
0.5120	-15.0313	2.4458	0	
0.5127	-6.47502	-0.621813	0	
0.5133	-3.12189	0.290179	0	
0.5140	-1.92709	-2.73598	0	
0.5147	-1.31042	-6.71558	0	
0.5153	0.539585	-2.15562	0	
0.5160	7.86253	2.73598	0	
0.5167	20.0417	-1.53381	0	
0.5173	28.9063	-5.18177	0	
0.5180	32.2595	-2.73598	0	
0.5187	32.5678	-3.9796	0	
0.5193	31.3345	-10.6952	0	
0.5200	27.4032	-11.8974	0	
0.5207	20.3501	-8.53956	0	
0.5213	14.2605	-6.4254	0	
0.5220	10.599	-3.9796	0	
0.5227	7.86253	-1.24363	0	
0.5233	5.08752	-1.24363	0	
0.5240	2.04272	-0.331634	0	
0.5247	-2.50522	1.53381	0	
0.5253	-4.66356	1.82398	0	
0.5260	-9.55836	3.02616	0	
0.5267	-22.3542	8.82974	0	
0.5273	-33.9553	14.3432	0	
0.5280	-37.0001	13.4312	0	
0.5287	-40.0449	10.0734	0	
0.5293	-41.8949	8.24938	0	
0.5300	-33.3387	8.24938	0	
0.5307	-22.9709	9.16138	0	
0.5313	-20.2344	9.74174	0	
0.5320	-19.0011	9.45156	0	
0.5327	-15.0313	6.38395	0	
0.5333	-9.25003	4.89159	0	
0.5340	-3.73855	7.00576	0	
0.5347	-0.385418	7.29594	0	
0.5353	2.04272	2.73598	0	
0.5360	8.78753	-0.331634	0	
0.5367	18.8469	-2.15562	0	
0.5373	28.2897	-5.80359	0	
0.5380	34.1095	-7.62757	0	
0.5387	34.4178	-4.89159	0	
0.5393	32.5678	-3.06761	0	
0.5400	30.1397	-3.35779	0	
0.5407	24.3199	-2.4458	0	
0.5413	16.9969	-2.15562	0	
0.5420	13.3355	-1.82398	0	
0.5427	11.8323	0.290179	0	
0.5433	7.86253	2.11416	0	
0.5440	1.73438	2.4458	0	
0.5447	-2.81355	3.9796	0	
0.5453	-4.04689	5.47195	0	
0.5460	-8.63336	5.18177	0	
0.5467	-20.5428	6.71558	0	
0.5473	-32.4136	9.74174	0	
0.5480	-36.3835	10.0734	0	
0.5487	-35.1887	9.74174	0	
0.5493	-33.0303	9.45156	0	
0.5500	-29.6772	7.00576	0	
0.5507	-25.399	6.71558	0	
0.5513	-21.4292	5.80359	0	
0.5520	-15.9563	2.11416	0	
0.5527	-11.6782	0.621813	0	
0.5533	-10.4448	1.82398	0	
0.5540	-7.70836	0.290179	0	
0.5547	-1.61876	-1.24363	0	
0.5553	3.27605	-0.911992	0	
0.5560	8.17086	-2.4458	0	
0.5567	17.6136	-5.80359	0	
0.5573	27.0949	-8.24938	0	
0.5580	31.6428	-10.9854	0	
0.5587	32.5678	-12.8093	0	
0.5593	30.7564	-10.3635	0	
0.5600	27.0949	-9.78319	0	
0.5607	24.3199	-12.5192	0	
0.5613	21.5834	-11.8974	0	
0.5620	15.1855	-6.4254	0	
0.5627	8.47919	-3.35779	0	
0.5633	4.20106	-2.73598	0	
0.5640	2.35105	0.621813	0	
0.5647	1.73438	6.09377	0	
0.5653	-0.385418	6.71558	0	
0.5660	-9.25003	3.35779	0	
0.5667	-22.0459	3.9796	0	
0.5673	-30.2938	8.82974	0	
0.5680	-31.5272	10.6537	0	
0.5687	-30.6022	8.24938	0	
0.5693	-30.2938	8.53956	0	
0.5700	-27.8657	9.74174	0	
0.5707	-24.5126	7.00576	0	
0.5713	-20.5428	5.18177	0	
0.5720	-14.1063	6.09377	0	
0.5727	-11.3698	6.38395	0	
0.5733	-12.6032	6.09377	0	
0.5740	-10.1365	3.9796	0	
0.5747	-4.35522	0.911992	0	
0.5753	-0.385418	1.53381	0	
0.5760	5.39585	0.621813	0	
0.5767	15.1855	-7.9592	0	
0.5773	23.4334	-13.7213	0	
0.5780	30.448	-10.3635	0	
0.5787	37.1543	-9.45156	0	
0.5793	39.5824	-10.0734	0	
0.5800	34.9959	-6.09377	0	
0.5807	26.1699	-2.73598	0	
0.5813	16.9969	-3.9796	0	
0.5820	13.0271	-3.35779	0	
0.5827	11.524	-1.24363	0	
0.5833	6.01252	-2.15562	0	
0.5840	2.04272	-2.73598	0	
0.5847	2.96772	-0.331634	0	
0.5853	2.65938	2.73598	0	
0.5860	-2.23542	5.18177	0	
0.5867	-11.9865	10.0734	0	
0.5873	-24.2042	14.0115	0	
0.5880	-31.5272	12.5192	0	
0.5887	-28.7522	10.3635	0	
0.5893	-22.9709	10.6537	0	
0.5900	-20.8511	10.9854	0	
0.5907	-20.5428	8.24938	0	
0.5913	-17.4594	5.47195	0	
0.5920	-11.6782	5.18177	0	
0.5927	-7.40002	6.09377	0	
0.5933	-4.66356	6.38395	0	
0.5940	-1.61876	5.18177	0	
0.5947	-1.31042	0.621813	0	
0.5953	-1.31042	-5.80359	0	
0.5960	3.89272	-10.6952	0	
0.5967	13.3355	-13.141	0	
0.5973	21.8917	-13.141	0	
0.5980	26.1699	-11.317	0	
0.5987	27.0949	-9.45156	0	
0.5993	24.9365	-8.53956	0	
0.6000	22.2001	-6.71558	0	
0.6007	20.0417	-5.51341	0	
0.6013	19.4636	-5.51341	0	
0.6020	17.6136	-3.9796	0	
0.6027	12.449	-0.911992	0	
0.6033	9.05732	1.53381	0	
0.6040	9.36566	2.73598	0	
0.6047	6.62919	1.20217	0	
0.6053	-0.385418	0	0	
0.6060	-10.1365	3.35779	0	
0.6067	-21.7376	6.71558	0	
0.6073	-29.6772	7.91775	0	
0.6080	-31.5272	11.2755	0	
0.6087	-33.9553	14.3432	0	
0.6093	-36.3835	12.1875	0	
0.6100	-33.0303	10.0734	0	
0.6107	-27.8657	9.74174	0	
0.6113	-24.7824	7.91775	0	
0.6120	-19.6178	7.62757	0	
0.6127	-13.2198	8.82974	0	
0.6133	-7.70836	3.9796	0	
0.6140	-3.12189	-0.911992	0	
0.6147	-1.00209	1.20217	0	
0.6153	1.42605	2.4458	0	
0.6160	8.78753	-0.911992	0	
0.6167	15.1855	-3.35779	0	
0.6173	13.9521	-4.89159	0	
0.6180	10.599	-7.33739	0	
0.6187	10.2907	-8.24938	0	
0.6193	9.67399	-8.53956	0	
0.6200	4.81772	-8.53956	0	
0.6207	-2.81355	-5.18177	0	
0.6213	-9.55836	-2.15562	0	
0.6220	-14.4146	-3.06761	0	
0.6227	-17.7678	-3.68942	0	
0.6233	-13.5282	0.621813	0	
0.6240	-1.31042	5.18177	0	
0.6247	12.7188	4.26978	0	
0.6253	27.4032	1.82398	0	
0.6260	38.6574	3.64797	0	
0.6267	33.8012	7.29594	0	
0.6273	13.6438	5.47195	0	
0.6280	-4.35522	1.20217	0	
0.6287	-13.5282	3.35779	0	
0.6293	-17.4594	8.53956	0	
0.6300	-17.1896	7.91775	0	
0.6307	-15.9563	4.55996	0	
0.6313	-15.3396	5.18177	0	
0.6320	-11.3698	8.53956	0	
0.6327	-5.58856	9.74174	0	
0.6333	-3.12189	6.09377	0	
0.6340	-2.50522	0.911992	0	
0.6347	-0.385418	-1.24363	0	
0.6353	1.42605	-0.621813	0	
0.6360	6.62919	-2.73598	0	
0.6367	20.0417	-7.62757	0	
0.6373	31.3345	-9.78319	0	
0.6380	31.9511	-9.45156	0	
0.6387	31.9511	-7.9592	0	
0.6393	34.1095	-5.51341	0	
0.6400	28.9063	-4.89159	0	
0.6407	20.9667	-5.51341	0	
0.6413	19.4636	-3.9796	0	
0.6420	16.9969	-1.24363	0	
0.6427	9.67399	-0.621813	0	
0.6433	4.20106	-0.911992	0	
0.6440	-0.385418	0.621813	0	
0.6447	-5.89689	3.35779	0	
0.6453	-10.4448	5.18177	0	
0.6460	-16.573	9.16138	0	
0.6467	-27.249	13.4312	0	
0.6473	-38.5418	15.2551	0	
0.6480	-46.1731	14.965	0	
0.6487	-48.9095	14.3432	0	
0.6493	-46.1731	10.3635	0	
0.6500	-40.3533	6.09377	0	
0.6507	-34.2637	6.09377	0	
0.6513	-29.0605	5.80359	0	
0.6520	-25.399	3.02616	0	
0.6527	-23.2792	2.4458	0	
0.6533	-20.5428	3.02616	0	
0.6540	-18.0761	3.64797	0	
0.6547	-17.7678	3.9796	0	
0.6553	-17.1896	0.911992	0	
0.6560	-10.4448	-2.15562	0	
0.6567	2.35105	-0.911992	0	
0.6573	16.6886	-1.24363	0	
0.6580	30.7564	-4.89159	0	
0.6587	41.7408	-4.89159	0	
0.6593	46.597	-1.82398	0	
0.6600	43.8606	-1.53381	0	
0.6607	34.1095	-1.82398	0	
0.6613	22.5084	0.621813	0	
0.6620	15.8021	3.35779	0	
0.6627	9.98232	3.35779	0	
0.6633	2.04272	-0.331634	0	
0.6640	-1.61876	-3.68942	0	
0.6647	-0.385418	-1.24363	0	
0.6653	0.847919	5.47195	0	
0.6660	-1.31042	10.0734	0	
0.6667	-14.1063	16.1671	0	
0.6673	-36.0751	23.1729	0	
0.6680	-51.646	23.5045	0	
0.6687	-55.3075	21.6391	0	
0.6693	-53.496	23.7947	0	
0.6700	-51.0293	22.8827	0	
0.6707	-50.7595	16.7889	0	
0.6713	-50.7595	13.4312	0	
0.6720	-46.1731	12.5192	0	
0.6727	-40.0449	8.82974	0	
0.6733	-30.2938	7.62757	0	
0.6740	-6.16669	8.82974	0	
0.6747	25.5532	3.02616	0	
0.6753	52.4168	-6.71558	0	
0.6760	68.5659	-9.78319	0	
0.6767	70.1075	-11.317	0	
0.6773	60.9346	-20.1467	0	
0.6780	53.6116	-27.7743	0	
0.6787	48.7554	-27.7743	0	
0.6793	41.7408	-27.7743	0	
0.6800	37.1543	-30.5103	0	
0.6807	36.846	-29.3081	0	
0.6813	34.4178	-26.8623	0	
0.6820	27.0949	-26.8623	0	
0.6827	16.9969	-24.4165	0	
0.6833	9.36566	-19.5249	0	
0.6840	6.01252	-16.4988	0	
0.6847	4.81772	-13.4312	0	
0.6853	2.35105	-7.9592	0	
0.6860	-7.70836	-5.18177	0	
0.6867	-24.2042	-5.18177	0	
0.6873	-35.1887	-3.06761	0	
0.6880	-38.2335	1.53381	0	
0.6887	-42.5116	5.18177	0	
0.6893	-46.1731	6.71558	0	
0.6900	-40.3533	6.09377	0	
0.6907	-29.9855	3.9796	0	
0.6913	-21.7376	2.4458	0	
0.6920	-13.798	1.82398	0	
0.6927	-7.09169	0.911992	0	
0.6933	-4.66356	0.911992	0	
0.6940	-2.81355	1.53381	0	
0.6947	-2.23542	0.621813	0	
0.6953	-4.35522	-2.15562	0	
0.6960	-3.73855	-3.68942	0	
0.6967	2.35105	-4.60142	0	
0.6973	11.524	-7.62757	0	
0.6980	22.5084	-9.45156	0	
0.6987	29.8313	-4.89159	0	
0.6993	28.9063	-2.15562	0	
0.7000	24.9365	-6.4254	0	
0.7007	21.2751	-7.62757	0	
0.7013	17.3053	-3.06761	0	
0.7020	13.6438	-0.911992	0	
0.7027	9.05732	-1.24363	0	
0.7033	3.27605	1.20217	0	
0.7040	-1.31042	3.64797	0	
0.7047	-2.23542	3.64797	0	
0.7053	0.539585	2.73598	0	
0.7060	1.42605	3.02616	0	
0.7067	-9.25003	7.62757	0	
0.7073	-26.9407	12.8093	0	
0.7080	-37.0001	13.7213	0	
0.7087	-38.8501	14.3432	0	
0.7093	-38.2335	17.9911	0	
0.7100	-36.0751	18.3228	0	
0.7107	-30.9105	15.2551	0	
0.7113	-19.9261	10.6537	0	
0.7120	-5.28023	6.38395	0	
0.7127	4.50939	5.47195	0	
0.7133	5.70419	7.00576	0	
0.7140	0.231251	6.09377	0	
0.7147	-8.32503	3.35779	0	
0.7153	-11.6782	2.4458	0	
0.7160	-4.97189	0.290179	0	
0.7167	4.81772	-2.15562	0	
0.7173	9.67399	-3.9796	0	
0.7180	9.67399	-4.60142	0	
0.7187	6.93752	-3.35779	0	
0.7193	-1.31042	-0.911992	0	
0.7200	-7.09169	0.621813	0	
0.7207	0.539585	3.35779	0	
0.7213	23.7032	7.91775	0	
0.7220	52.7252	7.91775	0	
0.7227	69.1825	5.80359	0	
0.7233	59.1231	5.18177	0	
0.7240	33.4928	3.35779	0	
0.7247	14.8771	1.20217	0	
0.7253	5.70419	3.02616	0	
0.7260	-4.35522	6.38395	0	
0.7267	-16.573	7.91775	0	
0.7273	-26.9407	10.9854	0	
0.7280	-33.647	13.0995	0	
0.7287	-34.572	11.6072	0	
0.7293	-33.3387	10.3635	0	
0.7300	-31.2189	11.2755	0	
0.7307	-25.0907	10.6537	0	
0.7313	-20.5428	8.53956	0	
0.7320	-19.6178	7.91775	0	
0.7327	-16.2646	8.53956	0	
0.7333	-12.2948	7.00576	0	
0.7340	-11.9865	3.35779	0	
0.7347	-10.7532	1.20217	0	
0.7353	-6.47502	1.53381	0	
0.7360	-1.92709	0	0	
0.7367	8.17086	-3.06761	0	
0.7373	23.1251	-4.26978	0	
0.7380	30.7564	-6.09377	0	
0.7387	30.1397	-8.8712	0	
0.7393	27.0949	-8.24938	0	
0.7400	23.4334	-5.80359	0	
0.7407	19.7719	-6.4254	0	
0.7413	15.4938	-6.71558	0	
0.7420	10.599	-4.60142	0	
0.7427	6.62919	-2.15562	0	
0.7433	3.27605	-0.331634	0	
0.7440	1.15625	0.911992	0	
0.7447	-1.31042	-0.331634	0	
0.7453	-7.70836	0.621813	0	
0.7460	-16.8813	6.09377	0	
0.7467	-25.0907	10.6537	0	
0.7473	-34.2637	13.4312	0	
0.7480	-42.8199	17.9911	0	
0.7487	-44.3231	21.6391	0	
0.7493	-40.6616	19.2347	0	
0.7500	-37.0001	15.877	0	
0.7507	-29.6772	17.9911	0	
0.7513	-20.5428	21.6391	0	
0.7520	-15.0313	19.8151	0	
0.7527	-11.0615	17.3693	0	
0.7533	-8.01669	17.9911	0	
0.7540	-4.97189	16.4573	0	
0.7547	0.539585	10.6537	0	
0.7553	6.62919	5.47195	0	
0.7560	11.8323	-0.331634	0	
0.7567	18.8469	-5.80359	0	
0.7573	25.2449	-6.71558	0	
0.7580	29.8313	-3.9796	0	
0.7587	33.4928	-5.51341	0	
0.7593	31.0647	-10.0734	0	
0.7600	27.9813	-10.0734	0	
0.7607	33.8012	-3.9796	0	
0.7613	37.4626	1.82398	0	
0.7620	28.598	2.11416	0	
0.7627	18.5386	-3.68942	0	
0.7633	13.3355	-11.6072	0	
0.7640	4.50939	-18.0326	0	
0.7647	-4.04689	-21.6805	0	
0.7653	-6.78336	-23.5045	0	
0.7660	-12.2948	-24.1263	0	
0.7667	-24.2042	-22.3024	0	
0.7673	-33.9553	-17.4108	0	
0.7680	-38.5418	-12.8093	0	
0.7687	-40.6616	-11.317	0	
0.7693	-40.6616	-10.9854	0	
0.7700	-37.0001	-7.62757	0	
0.7707	-32.722	-2.15562	0	
0.7713	-29.9855	-0.911992	0	
0.7720	-26.324	-4.89159	0	
0.7727	-19.6178	-4.60142	0	
0.7733	-13.798	2.73598	0	
0.7740	-10.4448	6.09377	0	
0.7747	-5.89689	4.26978	0	
0.7753	2.35105	4.26978	0	
0.7760	13.3355	2.11416	0	
0.7767	23.7032	-6.4254	0	
0.7773	27.9813	-14.053	0	
0.7780	30.448	-15.5868	0	
0.7787	33.4928	-15.877	0	
0.7793	32.5678	-15.2551	0	
0.7800	28.9063	-14.053	0	
0.7807	26.1699	-14.965	0	
0.7813	21.5834	-15.2551	0	
0.7820	18.8469	-10.3635	0	
0.7827	21.5834	-3.68942	0	
0.7833	18.8469	-1.24363	0	
0.7840	11.524	-1.24363	0	
0.7847	7.24586	0.290179	0	
0.7853	1.42605	4.55996	0	
0.7860	-9.55836	10.6537	0	
0.7867	-19.6178	15.2551	0	
0.7873	-28.7522	19.2347	0	
0.7880	-35.8053	22.5925	0	
0.7887	-35.8053	22.2609	0	
0.7893	-35.1887	17.9911	0	
0.7900	-38.5418	14.6333	0	
0.7907	-40.0449	12.1875	0	
0.7913	-39.7366	10.3635	0	
0.7920	-35.1887	9.74174	0	
0.7927	-21.4292	7.62757	0	
0.7933	-4.04689	4.26978	0	
0.7940	11.524	3.35779	0	
0.7947	23.7032	2.4458	0	
0.7953	27.9813	-0.621813	0	
0.7960	28.2897	-3.68942	0	
0.7967	33.4928	-8.8712	0	
0.7973	38.3876	-15.877	0	
0.7980	38.9658	-16.4988	0	
0.7987	39.2741	-10.3635	0	
0.7993	37.771	-4.89159	0	
0.8000	32.5678	-1.82398	0	
0.8007	27.9813	-0.331634	0	
0.8013	22.5084	-1.24363	0	
0.8020	15.1855	-2.15562	0	
0.8027	11.8323	-3.68942	0	
0.8033	9.98232	-5.80359	0	
0.8040	4.20106	-4.26978	0	
0.8047	-0.385418	-1.53381	0	
0.8053	-0.693752	0.621813	0	
0.8060	-3.43022	4.55996	0	
0.8067	-13.2198	11.2755	0	
0.8073	-24.7824	16.1671	0	
0.8080	-30.2938	17.9911	0	
0.8087	-30.9105	17.9911	0	
0.8093	-30.9105	15.877	0	
0.8100	-28.7522	14.3432	0	
0.8107	-23.2792	13.7213	0	
0.8113	-19.9261	11.2755	0	
0.8120	-16.573	7.00576	0	
0.8127	-10.4448	5.18177	0	
0.8133	-6.47502	5.18177	0	
0.8140	-5.89689	3.64797	0	
0.8147	-3.73855	1.82398	0	
0.8153	0.539585	0.911992	0	
0.8160	6.93752	-1.53381	0	
0.8167	16.9969	-5.18177	0	
0.8173	25.8615	-7.62757	0	
0.8180	29.8313	-8.53956	0	
0.8187	32.5678	-9.16138	0	
0.8193	32.8762	-8.53956	0	
0.8200	28.9063	-6.71558	0	
0.8207	24.3199	-3.35779	0	
0.8213	19.7719	-0.331634	0	
0.8220	14.2605	3.02616	0	
0.8227	11.524	6.38395	0	
0.8233	8.47919	7.62757	0	
0.8240	1.42605	5.80359	0	
0.8247	-4.04689	5.18177	0	
0.8253	-5.58856	4.55996	0	
0.8260	-11.9865	4.89159	0	
0.8267	-26.0157	10.3635	0	
0.8273	-37.9251	15.877	0	
0.8280	-42.2033	14.3432	0	
0.8287	-39.7366	12.1875	0	
0.8293	-36.3835	12.8093	0	
0.8300	-34.572	12.1875	0	
0.8307	-31.8355	10.6537	0	
0.8313	-25.399	8.53956	0	
0.8320	-17.7678	5.80359	0	
0.8327	-13.2198	6.09377	0	
0.8333	-13.2198	7.91775	0	
0.8340	-11.3698	6.38395	0	
0.8347	-5.89689	5.18177	0	
0.8353	-1.92709	5.18177	0	
0.8360	5.39585	-0.911992	0	
0.8367	20.3501	-5.80359	0	
0.8373	29.8313	-4.60142	0	
0.8380	31.3345	-3.9796	0	
0.8387	34.4178	-6.71558	0	
0.8393	32.5678	-4.60142	0	
0.8400	23.1251	-2.73598	0	
0.8407	19.4636	-5.80359	0	
0.8413	17.9219	-5.51341	0	
0.8420	9.98232	-1.82398	0	
0.8427	3.58439	-2.15562	0	
0.8433	2.35105	-2.15562	0	
0.8440	0.847919	1.53381	0	
0.8447	-0.385418	3.02616	0	
0.8453	-0.385418	2.73598	0	
0.8460	-7.70836	6.09377	0	
0.8467	-21.4292	8.82974	0	
0.8473	-31.5272	8.82974	0	
0.8480	-34.2637	10.6537	0	
0.8487	-34.8803	12.5192	0	
0.8493	-34.2637	11.2755	0	
0.8500	-30.6022	9.74174	0	
0.8507	-26.9407	8.53956	0	
0.8513	-23.2792	4.26978	0	
0.8520	-19.6178	2.11416	0	
0.8527	-16.8813	3.02616	0	
0.8533	-13.2198	0.621813	0	
0.8540	-5.89689	-3.06761	0	
0.8547	-1.92709	-2.15562	0	
0.8553	-1.61876	-2.15562	0	
0.8560	5.70419	-6.71558	0	
0.8567	19.4636	-9.45156	0	
0.8573	29.523	-9.16138	0	
0.8580	33.4928	-10.3635	0	
0.8587	32.8762	-10.3635	0	
0.8593	28.2897	-7.33739	0	
0.8600	23.7032	-6.09377	0	
0.8607	20.6584	-6.09377	0	
0.8613	18.5386	-4.89159	0	
0.8620	15.1855	-3.06761	0	
0.8627	10.599	-1.53381	0	
0.8633	7.24586	0.621813	0	
0.8640	4.81772	1.82398	0	
0.8647	1.15625	2.73598	0	
0.8653	-2.81355	3.35779	0	
0.8660	-8.63336	3.9796	0	
0.8667	-19.6178	5.18177	0	
0.8673	-29.6772	7.91775	0	
0.8680	-33.0303	10.3635	0	
0.8687	-33.3387	10.0734	0	
0.8693	-32.4136	7.29594	0	
0.8700	-28.1741	4.89159	0	
0.8707	-23.2792	3.64797	0	
0.8713	-19.0011	3.35779	0	
0.8720	-13.798	2.4458	0	
0.8727	-8.63336	2.4458	0	
0.8733	-6.16669	2.4458	0	
0.8740	-4.04689	0.911992	0	
0.8747	-0.693752	-1.82398	0	
0.8753	3.27605	-2.73598	0	
0.8760	10.2907	-3.9796	0	
0.8767	21.5834	-6.71558	0	
0.8773	29.523	-10.6952	0	
0.8780	31.0647	-14.965	0	
0.8787	33.1845	-15.877	0	
0.8793	34.1095	-11.8974	0	
0.8800	29.523	-7.9592	0	
0.8807	23.4334	-7.33739	0	
0.8813	18.5386	-5.80359	0	
0.8820	13.9521	-3.06761	0	
0.8827	13.3355	-2.4458	0	
0.8833	12.449	-2.15562	0	
0.8840	5.39585	0.290179	0	
0.8847	1.15625	2.11416	0	
0.8853	0.539585	5.80359	0	
0.8860	-6.78336	11.6072	0	
0.8867	-20.5428	13.4312	0	
0.8873	-29.9855	12.5192	0	
0.8880	-32.4136	13.4312	0	
0.8887	-33.3387	14.965	0	
0.8893	-33.3387	12.8093	0	
0.8900	-29.3688	10.3635	0	
0.8907	-21.7376	8.82974	0	
0.8913	-16.8813	7.29594	0	
0.8920	-12.6032	6.71558	0	
0.8927	-6.78336	6.71558	0	
0.8933	-4.04689	5.18177	0	
0.8940	-2.81355	1.20217	0	
0.8947	0.539585	-3.68942	0	
0.8953	3.58439	-8.24938	0	
0.8960	7.86253	-10.3635	0	
0.8967	18.8469	-9.45156	0	
0.8973	29.8313	-7.04721	0	
0.8980	34.4178	-6.71558	0	
0.8987	34.9959	-8.24938	0	
0.8993	33.1845	-6.71558	0	
0.9000	29.8313	-3.35779	0	
0.9007	27.0949	-3.06761	0	
0.9013	21.5834	-5.51341	0	
0.9020	14.5688	-3.9796	0	
0.9027	12.1407	-0.621813	0	
0.9033	10.599	0.911992	0	
0.9040	6.01252	0.911992	0	
0.9047	3.27605	1.82398	0	
0.9053	1.15625	1.82398	0	
0.9060	-8.63336	2.4458	0	
0.9067	-21.4292	7.00576	0	
0.9073	-30.9105	13.4312	0	
0.9080	-36.6918	15.877	0	
0.9087	-37.9251	14.965	0	
0.9093	-34.572	12.8093	0	
0.9100	-30.6022	11.6072	0	
0.9107	-26.9407	10.3635	0	
0.9113	-21.4292	9.16138	0	
0.9120	-16.573	9.74174	0	
0.9127	-14.4146	10.9854	0	
0.9133	-11.0615	7.91775	0	
0.9140	-4.97189	3.9796	0	
0.9147	-2.23542	2.4458	0	
0.9153	0.231251	0.621813	0	
0.9160	9.36566	-3.68942	0	
0.9167	23.4334	-8.24938	0	
0.9173	33.1845	-11.317	0	
0.9180	35.3043	-11.6072	0	
0.9187	32.5678	-7.62757	0	
0.9193	28.9063	-5.18177	0	
0.9200	25.8615	-7.62757	0	
0.9207	21.2751	-6.4254	0	
0.9213	15.1855	-1.24363	0	
0.9220	11.8323	0	0	
0.9227	9.67399	-0.621813	0	
0.9233	5.08752	1.53381	0	
0.9240	2.65938	2.4458	0	
0.9247	4.50939	0.621813	0	
0.9253	2.04272	0.911992	0	
0.9260	-9.25003	4.26978	0	
0.9267	-22.9709	9.74174	0	
0.9273	-31.5272	14.6333	0	
0.9280	-33.9553	13.7213	0	
0.9287	-34.572	9.74174	0	
0.9293	-34.2637	9.45156	0	
0.9300	-29.6772	10.3635	0	
0.9307	-24.5126	7.29594	0	
0.9313	-22.0459	5.47195	0	
0.9320	-18.0761	7.00576	0	
0.9327	-11.9865	6.38395	0	
0.9333	-8.32503	2.73598	0	
0.9340	-6.78336	0.290179	0	
0.9347	-4.35522	-0.331634	0	
0.9353	-0.0770836	-0.331634	0	
0.9360	7.55419	-0.911992	0	
0.9367	17.9219	-3.9796	0	
0.9373	27.4032	-8.53956	0	
0.9380	32.5678	-10.3635	0	
0.9387	33.4928	-9.45156	0	
0.9393	30.7564	-9.78319	0	
0.9400	27.4032	-10.0734	0	
0.9407	25.2449	-8.53956	0	
0.9413	20.6584	-6.4254	0	
0.9420	13.6438	-5.51341	0	
0.9427	10.2907	-2.73598	0	
0.9433	7.55419	0.621813	0	
0.9440	0.539585	1.20217	0	
0.9447	-4.97189	-1.82398	0	
0.9453	-6.47502	-1.24363	0	
0.9460	-13.798	3.35779	0	
0.9467	-27.8657	5.47195	0	
0.9473	-36.0751	6.09377	0	
0.9480	-38.2335	6.71558	0	
0.9487	-41.8949	5.18177	0	
0.9493	-44.0147	5.47195	0	
0.9500	-42.5116	10.6537	0	
0.9507	-41.2783	11.2755	0	
0.9513	-37.9251	7.91775	0	
0.9520	-33.0303	9.45156	0	
0.9527	-31.8355	8.82974	0	
0.9533	-30.6022	3.64797	0	
0.9540	-26.9407	2.11416	0	
0.9547	-26.0157	1.53381	0	
0.9553	-19.6178	-1.24363	0	
0.9560	2.35105	-2.15562	0	
0.9567	32.5678	-5.51341	0	
0.9573	60.6648	-12.8093	0	
0.9580	77.7388	-16.4988	0	
0.9587	77.4305	-13.141	0	
0.9593	65.8294	-6.4254	0	
0.9600	56.695	-1.82398	0	
0.9607	47.8304	-3.35779	0	
0.9613	37.771	-4.89159	0	
0.9620	30.7564	0.911992	0	
0.9627	24.6282	3.9796	0	
0.9633	16.3803	-0.911992	0	
0.9640	10.9073	-3.35779	0	
0.9647	8.78753	-1.53381	0	
0.9653	5.39585	1.20217	0	
0.9660	-3.12189	4.89159	0	
0.9667	-17.1896	9.16138	0	
0.9673	-30.2938	12.5192	0	
0.9680	-36.0751	14.3432	0	
0.9687	-36.0751	13.7213	0	
0.9693	-34.2637	10.6537	0	
0.9700	-30.6022	8.24938	0	
0.9707	-25.0907	8.24938	0	
0.9713	-21.1209	8.24938	0	
0.9720	-20.5428	6.71558	0	
0.9727	-20.5428	4.26978	0	
0.9733	-14.723	2.4458	0	
0.9740	-6.78336	1.53381	0	
0.9747	-3.43022	0.911992	0	
0.9753	-2.23542	-0.331634	0	
0.9760	3.27605	-2.15562	0	
0.9767	14.5688	-3.9796	0	
0.9773	24.3199	-4.89159	0	
0.9780	27.673	-7.33739	0	
0.9787	29.8313	-11.317	0	
0.9793	31.6428	-11.6072	0	
0.9800	29.8313	-10.0734	0	
0.9807	25.2449	-9.78319	0	
0.9813	20.6584	-7.04721	0	
0.9820	14.5688	-2.15562	0	
0.9827	10.9073	-0.621813	0	
0.9833	7.86253	-0.621813	0	
0.9840	-0.0770836	2.11416	0	
0.9847	-5.58856	4.26978	0	
0.9853	-4.97189	5.18177	0	
0.9860	-12.2948	5.47195	0	
0.9867	-26.6324	6.09377	0	
0.9873	-34.8803	10.3635	0	
0.9880	-37.9251	15.2551	0	
0.9887	-40.9699	14.3432	0	
0.9893	-40.0449	11.2755	0	
0.9900	-35.497	12.1875	0	
0.9907	-32.4136	10.6537	0	
0.9913	-27.8657	5.18177	0	
0.9920	-22.3542	2.4458	0	
0.9927	-19.6178	0.621813	0	
0.9933	-16.573	-3.35779	0	
0.9940	-11.3698	-4.26978	0	
0.9947	-7.40002	-2.15562	0	
0.9953	-2.50522	-1.53381	0	
0.9960	7.24586	-2.73598	0	
0.9967	18.8469	-6.71558	0	
0.9973	24.9365	-9.78319	0	
0.9980	27.0949	-8.53956	0	
0.9987	30.448	-5.80359	0	
0.9993	29.8313	-5.18177	0	
1.0000	22.8167	-5.18177	0	
1.0007	15.4938	-3.68942	0	
1.0013	13.0271	-0.911992	0	
1.0020	12.1407	1.53381	0	
1.0027	9.36566	0.621813	0	
1.0033	5.70419	-0.331634	0	
1.0040	2.35105	1.82398	0	
1.0047	1.15625	3.02616	0	
1.0053	0.847919	2.73598	0	
1.0060	-4.04689	6.09377	0	
1.0067	-16.2646	10.9854	0	
1.0073	-28.7522	13.4312	0	
1.0080	-31.8355	14.3432	0	
1.0087	-29.9855	13.7213	0	
1.0093	-31.5272	9.74174	0	
1.0100	-29.9855	7.91775	0	
1.0107	-23.8959	7.91775	0	
1.0113	-20.5428	7.00576	0	
1.0120	-18.6928	5.47195	0	
1.0127	-12.6032	4.26978	0	
1.0133	-8.01669	0.621813	0	
1.0140	-6.78336	-1.82398	0	
1.0147	-5.28023	-0.331634	0	
1.0153	-3.73855	1.20217	0	
1.0160	2.65938	0.290179	0	
1.0167	18.5386	-3.06761	0	
1.0173	31.6428	-7.9592	0	
1.0180	35.6126	-10.6952	0	
1.0187	37.1543	-11.317	0	
1.0193	35.921	-10.3635	0	
1.0200	30.7564	-7.62757	0	
1.0207	27.0949	-7.04721	0	
1.0213	23.4334	-7.9592	0	
1.0220	16.9969	-5.18177	0	
1.0227	13.3355	-2.15562	0	
1.0233	7.55419	-3.06761	0	
1.0240	-0.385418	-2.4458	0	
1.0247	-1.31042	-0.621813	0	
1.0253	-1.31042	1.20217	0	
1.0260	-10.7532	5.18177	0	
1.0267	-22.6626	6.71558	0	
1.0273	-30.6022	3.35779	0	
1.0280	-35.1887	4.55996	0	
1.0287	-34.572	6.09377	0	
1.0293	-30.6022	2.4458	0	
1.0300	-27.8657	2.4458	0	
1.0307	-24.7824	6.09377	0	
1.0313	-19.9261	5.18177	0	
1.0320	-15.9563	5.18177	0	
1.0327	-11.3698	7.29594	0	
1.0333	-6.78336	5.80359	0	
1.0340	-3.12189	3.35779	0	
1.0347	-1.31042	0.911992	0	
1.0353	2.04272	-2.73598	0	
1.0360	8.47919	-3.68942	0	
1.0367	18.8469	-5.51341	0	
1.0373	28.9063	-11.6072	0	
1.0380	33.8012	-11.317	0	
1.0387	33.4928	-6.09377	0	
1.0393	31.6428	-8.53956	0	
1.0400	30.1397	-10.3635	0	
1.0407	26.1699	-6.09377	0	
1.0413	21.8917	-3.9796	0	
1.0420	18.2303	-2.4458	0	
1.0427	13.3355	-0.331634	0	
1.0433	8.17086	-1.53381	0	
1.0440	5.08752	-3.68942	0	
1.0447	3.27605	-1.24363	0	
1.0453	-1.00209	3.9796	0	
1.0460	-10.1365	8.82974	0	
1.0467	-21.4292	11.6072	0	
1.0473	-30.6022	10.6537	0	
1.0480	-35.1887	10.0734	0	
1.0487	-36.3835	10.6537	0	
1.0493	-33.3387	7.91775	0	
1.0500	-26.0157	6.09377	0	
1.0507	-20.5428	9.16138	0	
1.0513	-19.3094	8.82974	0	
1.0520	-16.573	3.35779	0	
1.0527	-10.4448	0.621813	0	
1.0533	-5.89689	0.621813	0	
1.0540	-3.43022	-1.82398	0	
1.0547	-1.00209	-0.911992	0	
1.0553	1.73438	2.73598	0	
1.0560	6.93752	0	0	
1.0567	18.5386	-6.71558	0	
1.0573	29.8313	-8.53956	0	
1.0580	35.3043	-7.04721	0	
1.0587	35.3043	-7.33739	0	
1.0593	32.5678	-5.80359	0	
1.0600	27.9813	-4.26978	0	
1.0607	22.5084	-5.18177	0	
1.0613	16.6886	-4.26978	0	
1.0620	11.524	-1.53381	0	
1.0627	8.78753	-0.331634	0	
1.0633	6.01252	1.20217	0	
1.0640	2.65938	3.02616	0	
1.0647	0.847919	3.35779	0	
1.0653	-2.23542	4.55996	0	
1.0660	-11.3698	7.91775	0	
1.0667	-23.5876	10.0734	0	
1.0673	-32.4136	11.2755	0	
1.0680	-37.9251	12.5192	0	
1.0687	-39.7366	11.6072	0	
1.0693	-35.1887	10.3635	0	
1.0700	-27.8657	9.74174	0	
1.0707	-22.0459	9.45156	0	
1.0713	-16.573	9.16138	0	
1.0720	-12.9115	7.91775	0	
1.0727	-8.9417	5.18177	0	
1.0733	-3.73855	2.4458	0	
1.0740	-1.92709	0.621813	0	
1.0747	-3.73855	-0.331634	0	
1.0753	-3.43022	-1.24363	0	
1.0760	1.42605	-3.35779	0	
1.0767	11.524	-6.71558	0	
1.0773	24.9365	-7.62757	0	
1.0780	34.4178	-8.53956	0	
1.0787	38.3876	-10.6952	0	
1.0793	37.771	-8.53956	0	
1.0800	31.0647	-2.73598	0	
1.0807	24.9365	-0.911992	0	
1.0813	22.8167	-1.53381	0	
1.0820	17.9219	-0.331634	0	
1.0827	10.2907	0.911992	0	
1.0833	5.39585	0.621813	0	
1.0840	2.96772	2.11416	0	
1.0847	2.04272	3.9796	0	
1.0853	0.231251	3.64797	0	
1.0860	-8.01669	4.26978	0	
1.0867	-20.2344	7.29594	0	
1.0873	-29.6772	7.91775	0	
1.0880	-35.1887	6.09377	0	
1.0887	-36.0751	5.47195	0	
1.0893	-33.3387	5.80359	0	
1.0900	-31.5272	4.89159	0	
1.0907	-29.0605	5.18177	0	
1.0913	-23.5876	6.09377	0	
1.0920	-17.4594	2.4458	0	
1.0927	-12.9115	-2.15562	0	
1.0933	-9.55836	-3.06761	0	
1.0940	-5.89689	-3.9796	0	
1.0947	-1.00209	-3.9796	0	
1.0953	1.15625	-0.911992	0	
1.0960	3.89272	-0.331634	0	
1.0967	13.3355	-3.06761	0	
1.0973	25.2449	-3.68942	0	
1.0980	30.7564	-3.9796	0	
1.0987	30.448	-6.4254	0	
1.0993	26.7865	-5.80359	0	
1.1000	22.8167	-3.68942	0	
1.1007	20.3501	-5.80359	0	
1.1013	15.1855	-8.24938	0	
1.1020	8.78753	-6.71558	0	
1.1027	6.93752	-4.26978	0	
1.1033	6.62919	-2.15562	0	
1.1040	2.04272	-0.621813	0	
1.1047	-2.23542	0.290179	0	
1.1053	-4.35522	3.02616	0	
1.1060	-11.9865	7.62757	0	
1.1067	-24.2042	8.82974	0	
1.1073	-35.1887	8.24938	0	
1.1080	-40.0449	11.6072	0	
1.1087	-39.1585	15.2551	0	
1.1093	-36.0751	14.0115	0	
1.1100	-33.9553	11.2755	0	
1.1107	-29.3688	8.82974	0	
1.1113	-22.9709	6.38395	0	
1.1120	-18.6928	5.80359	0	
1.1127	-14.4146	6.09377	0	
1.1133	-8.9417	3.64797	0	
1.1140	-4.97189	0.290179	0	
1.1147	-3.43022	-0.911992	0	
1.1153	-0.0770836	-0.621813	0	
1.1160	7.86253	-2.15562	0	
1.1167	20.0417	-5.80359	0	
1.1173	29.8313	-9.45156	0	
1.1180	34.4178	-10.0734	0	
1.1187	35.6126	-9.45156	0	
1.1193	33.4928	-8.24938	0	
1.1200	27.9813	-6.09377	0	
1.1207	21.2751	-5.80359	0	
1.1213	14.2605	-5.80359	0	
1.1220	8.78753	-3.35779	0	
1.1227	6.01252	-0.911992	0	
1.1233	5.08752	0	0	
1.1240	0.539585	1.20217	0	
1.1247	-4.04689	2.4458	0	
1.1253	-5.89689	3.64797	0	
1.1260	-12.2948	7.62757	0	
1.1267	-25.399	10.9854	0	
1.1273	-34.572	11.6072	0	
1.1280	-37.0001	11.2755	0	
1.1287	-37.0001	10.6537	0	
1.1293	-37.0001	9.16138	0	
1.1300	-36.0751	8.82974	0	
1.1307	-35.8053	7.62757	0	
1.1313	-35.497	3.9796	0	
1.1320	-34.572	2.11416	0	
1.1327	-32.4136	2.73598	0	
1.1333	-29.9855	2.11416	0	
1.1340	-27.8657	1.53381	0	
1.1347	-24.2042	1.20217	0	
1.1353	-17.4594	0.621813	0	
1.1360	-8.32503	0.621813	0	
1.1367	8.78753	-2.15562	0	
1.1373	34.7262	-6.71558	0	
1.1380	61.8596	-9.45156	0	
1.1387	84.4451	-10.3635	0	
1.1393	95.7378	-10.6952	0	
1.1400	83.8284	-9.78319	0	
1.1407	59.4314	-9.45156	0	
1.1413	43.2439	-9.45156	0	
1.1420	34.1095	-7.62757	0	
1.1427	23.7032	-4.89159	0	
1.1433	16.1105	-2.15562	0	
1.1440	12.449	0.621813	0	
1.1447	9.98232	1.20217	0	
1.1453	5.39585	2.4458	0	
1.1460	-4.97189	9.45156	0	
1.1467	-19.3094	12.5192	0	
1.1473	-29.6772	10.3635	0	
1.1480	-34.2637	14.3432	0	
1.1487	-34.572	17.0791	0	
1.1493	-32.4136	9.74174	0	
1.1500	-28.4438	7.00576	0	
1.1507	-22.9709	8.82974	0	
1.1513	-18.6928	4.55996	0	
1.1520	-16.573	2.11416	0	
1.1527	-13.2198	4.26978	0	
1.1533	-8.01669	1.53381	0	
1.1540	-4.04689	-2.73598	0	
1.1547	-2.23542	-3.06761	0	
1.1553	-0.385418	-4.60142	0	
1.1560	5.39585	-6.71558	0	
1.1567	18.5386	-7.62757	0	
1.1573	28.9063	-8.53956	0	
1.1580	30.7564	-9.45156	0	
1.1587	31.3345	-10.0734	0	
1.1593	30.7564	-10.6952	0	
1.1600	23.4334	-8.24938	0	
1.1607	16.9969	-3.06761	0	
1.1613	15.1855	-1.53381	0	
1.1620	11.8323	-2.15562	0	
1.1627	6.93752	0	0	
1.1633	3.89272	4.26978	0	
1.1640	-1.31042	5.47195	0	
1.1647	-6.78336	3.35779	0	
1.1653	-8.01669	3.35779	0	
1.1660	-15.3396	8.24938	0	
1.1667	-30.6022	11.2755	0	
1.1673	-39.7366	9.45156	0	
1.1680	-40.6616	8.82974	0	
1.1687	-40.3533	11.6072	0	
1.1693	-39.7366	12.1875	0	
1.1700	-37.3085	11.2755	0	
1.1707	-33.3387	8.24938	0	
1.1713	-27.8657	3.64797	0	
1.1720	-22.3542	2.4458	0	
1.1727	-17.7678	2.73598	0	
1.1733	-15.0313	0.290179	0	
1.1740	-11.6782	-1.24363	0	
1.1747	-6.16669	1.53381	0	
1.1753	0.231251	3.35779	0	
1.1760	7.86253	-0.331634	0	
1.1767	18.8469	-5.80359	0	
1.1773	28.598	-8.53956	0	
1.1780	34.4178	-10.0734	0	
1.1787	35.6126	-11.8974	0	
1.1793	31.6428	-10.3635	0	
1.1800	26.7865	-5.18177	0	
1.1807	23.7032	-3.06761	0	
1.1813	19.7719	-3.06761	0	
1.1820	14.2605	-0.621813	0	
1.1827	11.2157	1.53381	0	
1.1833	8.78753	1.53381	0	
1.1840	4.50939	2.11416	0	
1.1847	1.73438	1.82398	0	
1.1853	-0.693752	2.4458	0	
1.1860	-9.55836	6.71558	0	
1.1867	-23.8959	10.6537	0	
1.1873	-33.9553	12.5192	0	
1.1880	-36.6918	12.8093	0	
1.1887	-37.9251	11.8974	0	
1.1893	-38.2335	12.5192	0	
1.1900	-34.2637	13.7213	0	
1.1907	-27.8657	10.6537	0	
1.1913	-22.3542	5.80359	0	
1.1920	-18.0761	4.26978	0	
1.1927	-15.0313	5.18177	0	
1.1933	-12.2948	5.18177	0	
1.1940	-8.32503	3.02616	0	
1.1947	-5.58856	-1.24363	0	
1.1953	-3.12189	-3.06761	0	
1.1960	5.70419	-3.9796	0	
1.1967	19.7719	-6.71558	0	
1.1973	29.8313	-7.9592	0	
1.1980	32.5678	-5.80359	0	
1.1987	34.7262	-5.80359	0	
1.1993	35.6126	-7.62757	0	
1.2000	31.6428	-7.04721	0	
1.2007	26.1699	-4.89159	0	
1.2013	21.8917	-3.68942	0	
1.2020	15.4938	-2.15562	0	
1.2027	6.93752	-1.24363	0	
1.2033	1.73438	-2.4458	0	
1.2040	-4.04689	-3.35779	0	
1.2047	-10.4448	-0.911992	0	
1.2053	-9.55836	2.11416	0	
1.2060	-7.70836	4.26978	0	
1.2067	-14.4146	8.53956	0	
1.2073	-24.2042	11.6072	0	
1.2080	-29.0605	9.74174	0	
1.2087	-31.8355	7.62757	0	
1.2093	-32.1439	8.82974	0	
1.2100	-28.4438	9.45156	0	
1.2107	-23.2792	7.91775	0	
1.2113	-17.7678	8.82974	0	
1.2120	-12.6032	7.00576	0	
1.2127	-10.4448	1.20217	0	
1.2133	-8.63336	-1.82398	0	
1.2140	-3.12189	-2.15562	0	
1.2147	1.42605	-3.06761	0	
1.2153	2.96772	-1.53381	0	
1.2160	9.05732	-2.73598	0	
1.2167	22.2001	-8.8712	0	
1.2173	30.7564	-10.3635	0	
1.2180	32.5678	-8.24938	0	
1.2187	34.1095	-9.45156	0	
1.2193	32.8762	-9.78319	0	
1.2200	27.0949	-7.62757	0	
1.2207	25.2449	-7.9592	0	
1.2213	24.9365	-7.04721	0	
1.2220	19.7719	-3.35779	0	
1.2227	14.2605	-1.24363	0	
1.2233	8.47919	1.20217	0	
1.2240	-3.12189	5.18177	0	
1.2247	-14.1063	6.09377	0	
1.2253	-20.8511	6.09377	0	
1.2260	-30.9105	6.71558	0	
1.2267	-43.3981	7.91775	0	
1.2273	-54.421	12.8093	0	
1.2280	-63.8638	15.877	0	
1.2287	-66.2919	13.4312	0	
1.2293	-60.2023	10.9854	0	
1.2300	-53.496	8.82974	0	
1.2307	-41.5866	2.4458	0	
1.2313	-18.6928	-2.15562	0	
1.2320	9.67399	-0.621813	0	
1.2327	37.1543	-2.15562	0	
1.2333	51.1835	-5.18177	0	
1.2340	38.6574	-3.35779	0	
1.2347	16.6886	-1.82398	0	
1.2353	11.524	-1.53381	0	
1.2360	20.3501	-2.15562	0	
1.2367	29.2147	-8.53956	0	
1.2373	35.3043	-16.1671	0	
1.2380	36.2293	-15.5868	0	
1.2387	32.8762	-11.6072	0	
1.2393	29.8313	-10.3635	0	
1.2400	22.5084	-7.9592	0	
1.2407	13.3355	-5.80359	0	
1.2413	15.8021	-3.9796	0	
1.2420	26.1699	-1.53381	0	
1.2427	26.1699	-1.24363	0	
1.2433	17.3053	-1.53381	0	
1.2440	9.98232	2.4458	0	
1.2447	2.35105	5.18177	0	
1.2453	-6.78336	4.55996	0	
1.2460	-15.648	6.09377	0	
1.2467	-25.399	7.29594	0	
1.2473	-34.8803	7.62757	0	
1.2480	-37.3085	9.74174	0	
1.2487	-36.0751	7.00576	0	
1.2493	-35.1887	2.11416	0	
1.2500	-30.6022	7.62757	0	
1.2507	-24.7824	15.877	0	
1.2513	-23.8959	13.0995	0	
1.2520	-21.7376	8.24938	0	
1.2527	-15.9563	8.53956	0	
1.2533	-10.4448	7.91775	0	
1.2540	-4.97189	6.09377	0	
1.2547	-1.00209	5.18177	0	
1.2553	1.42605	1.20217	0	
1.2560	10.599	-2.15562	0	
1.2567	24.3199	-2.73598	0	
1.2573	31.0647	-4.89159	0	
1.2580	33.4928	-7.9592	0	
1.2587	33.8012	-7.9592	0	
1.2593	27.0949	-7.62757	0	
1.2600	18.2303	-7.62757	0	
1.2607	14.2605	-5.80359	0	
1.2613	9.67399	-3.35779	0	
1.2620	4.20106	-0.331634	0	
1.2627	2.96772	1.82398	0	
1.2633	3.89272	0.290179	0	
1.2640	2.35105	-1.82398	0	
1.2647	-1.31042	-0.331634	0	
1.2653	-7.09169	1.53381	0	
1.2660	-17.7678	3.35779	0	
1.2667	-30.6022	7.91775	0	
1.2673	-39.7366	10.3635	0	
1.2680	-41.8949	8.53956	0	
1.2687	-40.6616	7.91775	0	
1.2693	-40.0449	9.45156	0	
1.2700	-37.9251	9.45156	0	
1.2707	-32.4136	7.91775	0	
1.2713	-25.0907	6.09377	0	
1.2720	-18.6928	4.26978	0	
1.2727	-14.1063	1.53381	0	
1.2733	-10.4448	-2.73598	0	
1.2740	-5.89689	-3.9796	0	
1.2747	-2.81355	-2.15562	0	
1.2753	1.15625	-2.15562	0	
1.2760	9.36566	-5.18177	0	
1.2767	20.3501	-4.89159	0	
1.2773	28.2897	-3.9796	0	
1.2780	31.9511	-7.04721	0	
1.2787	33.1845	-10.6952	0	
1.2793	32.8762	-9.45156	0	
1.2800	29.8313	-6.09377	0	
1.2807	25.8615	-3.35779	0	
1.2813	22.5084	-2.73598	0	
1.2820	17.9219	-2.15562	0	
1.2827	13.9521	0.621813	0	
1.2833	12.449	1.53381	0	
1.2840	5.08752	0.290179	0	
1.2847	-7.09169	0.621813	0	
1.2853	-15.648	3.35779	0	
1.2860	-26.324	4.89159	0	
1.2867	-45.2481	7.00576	0	
1.2873	-58.0825	9.74174	0	
1.2880	-61.1273	12.1875	0	
1.2887	-65.4054	14.965	0	
1.2893	-64.1721	14.6333	0	
1.2900	-56.8491	9.16138	0	
1.2907	-52.2627	6.38395	0	
1.2913	-40.3533	7.62757	0	
1.2920	-14.1063	4.89159	0	
1.2927	14.2605	1.20217	0	
1.2933	39.8908	1.53381	0	
1.2940	53.6116	0.911992	0	
1.2947	45.4022	-2.73598	0	
1.2953	33.1845	-6.4254	0	
1.2960	36.5376	-9.78319	0	
1.2967	44.4772	-12.229	0	
1.2973	48.447	-13.141	0	
1.2980	51.4918	-12.5192	0	
1.2987	49.6804	-6.09377	0	
1.2993	43.2439	0.621813	0	
1.3000	37.1543	-0.911992	0	
1.3007	29.8313	-3.9796	0	
1.3013	23.4334	-1.24363	0	
1.3020	20.3501	0.911992	0	
1.3027	17.3053	-0.621813	0	
1.3033	12.449	-1.53381	0	
1.3040	7.86253	0.290179	0	
1.3047	4.81772	5.47195	0	
1.3053	0.539585	10.6537	0	
1.3060	-8.63336	11.6072	0	
1.3067	-19.6178	9.74174	0	
1.3073	-29.3688	7.29594	0	
1.3080	-37.6168	3.35779	0	
1.3087	-39.1585	3.9796	0	
1.3093	-34.2637	8.82974	0	
1.3100	-30.6022	10.3635	0	
1.3107	-27.8657	8.24938	0	
1.3113	-22.0459	6.71558	0	
1.3120	-16.8813	4.89159	0	
1.3127	-12.9115	3.35779	0	
1.3133	-7.70836	3.35779	0	
1.3140	-5.28023	0.621813	0	
1.3147	-4.97189	-2.73598	0	
1.3153	0.231251	-1.53381	0	
1.3160	9.98232	-0.911992	0	
1.3167	21.8917	-5.51341	0	
1.3173	32.5678	-9.45156	0	
1.3180	39.2741	-8.53956	0	
1.3187	41.7408	-7.62757	0	
1.3193	38.0793	-6.4254	0	
1.3200	28.2897	-3.06761	0	
1.3207	19.4636	-1.24363	0	
1.3213	13.6438	-1.82398	0	
1.3220	6.62919	-0.911992	0	
1.3227	-1.31042	0.911992	0	
1.3233	-4.04689	0.621813	0	
1.3240	-0.385418	1.53381	0	
1.3247	3.58439	4.55996	0	
1.3253	0.231251	4.55996	0	
1.3260	-12.2948	3.64797	0	
1.3267	-26.0157	9.74174	0	
1.3273	-35.497	16.1671	0	
1.3280	-40.3533	13.4312	0	
1.3287	-39.7366	8.53956	0	
1.3293	-34.572	8.24938	0	
1.3300	-30.2938	7.91775	0	
1.3307	-26.6324	7.00576	0	
1.3313	-22.6626	8.53956	0	
1.3320	-19.6178	7.91775	0	
1.3327	-15.0313	4.55996	0	
1.3333	-8.63336	3.35779	0	
1.3340	-4.66356	3.35779	0	
1.3347	-2.50522	2.11416	0	
1.3353	0.847919	1.53381	0	
1.3360	9.98232	-2.15562	0	
1.3367	22.5084	-7.62757	0	
1.3373	30.1397	-9.45156	0	
1.3380	31.9511	-7.9592	0	
1.3387	33.1845	-9.45156	0	
1.3393	32.2595	-10.3635	0	
1.3400	27.0949	-9.45156	0	
1.3407	22.5084	-9.16138	0	
1.3413	20.3501	-7.9592	0	
1.3420	16.1105	-5.80359	0	
1.3427	7.86253	-4.89159	0	
1.3433	2.04272	-2.4458	0	
1.3440	1.15625	3.9796	0	
1.3447	1.73438	6.71558	0	
1.3453	-3.73855	4.55996	0	
1.3460	-15.0313	4.89159	0	
1.3467	-25.7074	7.00576	0	
1.3473	-33.3387	7.62757	0	
1.3480	-38.2335	8.82974	0	
1.3487	-38.8501	10.0734	0	
1.3493	-35.497	8.82974	0	
1.3500	-32.4136	6.38395	0	
1.3507	-28.4438	5.80359	0	
1.3513	-22.3542	3.9796	0	
1.3520	-17.4594	0.911992	0	
1.3527	-12.2948	0.621813	0	
1.3533	-8.01669	2.4458	0	
1.3540	-9.82816	1.53381	0	
1.3547	-18.3844	-0.331634	0	
1.3553	-24.2042	-0.331634	0	
1.3560	-18.3844	-2.15562	0	
1.3567	-4.35522	-7.33739	0	
1.3573	3.89272	-10.9854	0	
1.3580	5.39585	-9.78319	0	
1.3587	6.62919	-7.62757	0	
1.3593	5.39585	-8.24938	0	
1.3600	3.89272	-9.16138	0	
1.3607	11.2157	-7.04721	0	
1.3613	27.0949	-4.60142	0	
1.3620	47.2137	-3.35779	0	
1.3627	67.9877	-1.53381	0	
1.3633	69.1825	1.20217	0	
1.3640	43.5522	1.82398	0	
1.3647	18.8469	2.11416	0	
1.3653	9.98232	4.55996	0	
1.3660	1.42605	7.00576	0	
1.3667	-13.5282	7.62757	0	
1.3673	-25.0907	7.62757	0	
1.3680	-29.6772	9.74174	0	
1.3687	-29.3688	10.6537	0	
1.3693	-26.6324	8.24938	0	
1.3700	-24.2042	6.09377	0	
1.3707	-21.4292	4.55996	0	
1.3713	-17.7678	3.02616	0	
1.3720	-17.7678	3.35779	0	
1.3727	-18.0761	4.55996	0	
1.3733	-18.3844	3.35779	0	
1.3740	-20.8511	2.4458	0	
1.3747	-19.9261	4.26978	0	
1.3753	-10.4448	5.47195	0	
1.3760	2.65938	3.35779	0	
1.3767	16.9969	-1.24363	0	
1.3773	30.7564	-6.71558	0	
1.3780	34.9959	-10.6952	0	
1.3787	27.9813	-10.3635	0	
1.3793	19.4636	-8.24938	0	
1.3800	12.1407	-6.4254	0	
1.3807	1.73438	-5.18177	0	
1.3813	-7.40002	-3.06761	0	
1.3820	-6.78336	0	0	
1.3827	-1.31042	1.82398	0	
1.3833	1.73438	2.11416	0	
1.3840	3.89272	0.621813	0	
1.3847	6.32085	-1.82398	0	
1.3853	8.17086	-2.15562	0	
1.3860	6.93752	0	0	
1.3867	-3.73855	2.4458	0	
1.3873	-20.8511	6.09377	0	
1.3880	-29.0605	12.8093	0	
1.3887	-29.6772	17.0791	0	
1.3893	-32.1439	16.4573	0	
1.3900	-30.2938	14.0115	0	
1.3907	-22.6626	10.3635	0	
1.3913	-17.7678	7.00576	0	
1.3920	-15.9563	6.09377	0	
1.3927	-17.1896	6.09377	0	
1.3933	-22.6626	4.89159	0	
1.3940	-26.9407	2.4458	0	
1.3947	-28.1741	-1.82398	0	
1.3953	-27.8657	-6.09377	0	
1.3960	-20.2344	-8.53956	0	
1.3967	-6.47502	-8.8712	0	
1.3973	3.27605	-8.53956	0	
1.3980	8.78753	-9.45156	0	
1.3987	15.8021	-11.6072	0	
1.3993	27.673	-12.229	0	
1.4000	48.1387	-11.8974	0	
1.4007	72.2273	-10.3635	0	
1.4013	84.4451	-5.18177	0	
1.4020	73.4607	0.911992	0	
1.4027	47.2137	5.18177	0	
1.4033	25.8615	7.62757	0	
1.4040	15.4938	4.89159	0	
1.4047	9.05732	-0.911992	0	
1.4053	2.35105	0	0	
1.4060	-6.78336	7.29594	0	
1.4067	-20.2344	11.6072	0	
1.4073	-31.5272	11.8974	0	
1.4080	-37.3085	12.5192	0	
1.4087	-40.3533	13.7213	0	
1.4093	-37.9251	14.0115	0	
1.4100	-30.2938	11.6072	0	
1.4107	-24.2042	6.71558	0	
1.4113	-20.2344	1.82398	0	
1.4120	-15.648	-1.24363	0	
1.4127	-13.2198	-1.53381	0	
1.4133	-11.6782	-1.82398	0	
1.4140	-7.70836	-3.35779	0	
1.4147	-5.28023	-3.9796	0	
1.4153	-3.12189	-2.15562	0	
1.4160	6.93752	-2.73598	0	
1.4167	24.0115	-3.68942	0	
1.4173	36.2293	-5.18177	0	
1.4180	40.8158	-9.16138	0	
1.4187	40.1991	-9.78319	0	
1.4193	36.5376	-5.51341	0	
1.4200	31.0647	-3.9796	0	
1.4207	24.9365	-5.51341	0	
1.4213	18.8469	-3.06761	0	
1.4220	12.449	-0.911992	0	
1.4227	4.81772	-2.15562	0	
1.4233	0.231251	-0.331634	0	
1.4240	-1.92709	3.02616	0	
1.4247	-3.12189	0	0	
1.4253	-4.04689	-2.15562	0	
1.4260	-8.63336	3.02616	0	
1.4267	-22.3542	8.82974	0	
1.4273	-35.497	10.6537	0	
1.4280	-38.5418	13.0995	0	
1.4287	-38.2335	12.5192	0	
1.4293	-37.6168	7.91775	0	
1.4300	-33.9553	7.00576	0	
1.4307	-29.6772	7.62757	0	
1.4313	-26.0157	3.35779	0	
1.4320	-20.8511	1.82398	0	
1.4327	-17.7678	5.80359	0	
1.4333	-15.9563	6.09377	0	
1.4340	-10.7532	3.02616	0	
1.4347	-5.89689	2.73598	0	
1.4353	-2.23542	2.4458	0	
1.4360	5.70419	-3.06761	0	
1.4367	17.9219	-7.04721	0	
1.4373	27.9813	-5.80359	0	
1.4380	32.8762	-5.51341	0	
1.4387	33.4928	-9.16138	0	
1.4393	30.1397	-10.6952	0	
1.4400	24.9365	-9.16138	0	
1.4407	18.8469	-6.71558	0	
1.4413	11.524	-3.68942	0	
1.4420	2.96772	-1.82398	0	
1.4427	-1.31042	-1.53381	0	
1.4433	-1.92709	-0.331634	0	
1.4440	-6.16669	1.20217	0	
1.4447	-12.2948	-0.331634	0	
1.4453	-13.798	-1.24363	0	
1.4460	-16.8813	3.35779	0	
1.4467	-26.0157	9.45156	0	
1.4473	-32.1439	13.4312	0	
1.4480	-32.4136	14.3432	0	
1.4487	-32.4136	12.8093	0	
1.4493	-32.1439	9.74174	0	
1.4500	-30.2938	5.80359	0	
1.4507	-22.9709	3.35779	0	
1.4513	-7.09169	4.26978	0	
1.4520	6.01252	4.89159	0	
1.4527	6.32085	2.73598	0	
1.4533	4.20106	1.82398	0	
1.4540	6.32085	2.11416	0	
1.4547	6.93752	0.621813	0	
1.4553	7.86253	-2.15562	0	
1.4560	17.3053	-3.9796	0	
1.4567	30.1397	-4.60142	0	
1.4573	38.6574	-4.60142	0	
1.4580	40.8158	-4.60142	0	
1.4587	37.771	-3.06761	0	
1.4593	34.7262	-1.24363	0	
1.4600	33.1845	-1.82398	0	
1.4607	24.6282	-3.06761	0	
1.4613	9.05732	-1.24363	0	
1.4620	-3.12189	1.82398	0	
1.4627	-11.6782	4.55996	0	
1.4633	-17.7678	7.00576	0	
1.4640	-19.0011	5.47195	0	
1.4647	-18.0761	2.73598	0	
1.4653	-22.0459	3.35779	0	
1.4660	-32.1439	4.26978	0	
1.4667	-45.2481	4.55996	0	
1.4673	-52.571	6.71558	0	
1.4680	-48.9095	10.0734	0	
1.4687	-46.4814	8.82974	0	
1.4693	-47.9845	2.11416	0	
1.4700	-38.5418	-2.4458	0	
1.4707	-15.9563	-0.331634	0	
1.4713	1.42605	2.11416	0	
1.4720	3.27605	0.621813	0	
1.4727	-3.12189	-0.331634	0	
1.4733	-2.81355	0.621813	0	
1.4740	7.86253	2.4458	0	
1.4747	13.9521	5.18177	0	
1.4753	13.3355	4.89159	0	
1.4760	21.5834	-0.331634	0	
1.4767	34.4178	-6.09377	0	
1.4773	38.3876	-11.6072	0	
1.4780	41.7408	-16.1671	0	
1.4787	46.2887	-14.6748	0	
1.4793	45.4022	-9.16138	0	
1.4800	46.2887	-4.89159	0	
1.4807	50.2585	-0.911992	0	
1.4813	43.5522	3.9796	0	
1.4820	29.8313	3.64797	0	
1.4827	22.8167	1.53381	0	
1.4833	16.9969	3.02616	0	
1.4840	7.86253	6.09377	0	
1.4847	3.27605	5.18177	0	
1.4853	0.847919	3.64797	0	
1.4860	-10.1365	4.26978	0	
1.4867	-24.7824	6.09377	0	
1.4873	-30.6022	7.91775	0	
1.4880	-26.0157	8.82974	0	
1.4887	-18.6928	8.82974	0	
1.4893	-15.9563	8.82974	0	
1.4900	-17.4594	9.16138	0	
1.4907	-17.4594	9.45156	0	
1.4913	-15.648	8.24938	0	
1.4920	-13.798	5.80359	0	
1.4927	-11.0615	3.35779	0	
1.4933	-6.78336	3.35779	0	
1.4940	-1.31042	4.89159	0	
1.4947	2.35105	4.26978	0	
1.4953	4.20106	1.53381	0	
1.4960	9.98232	-2.15562	0	
1.4967	19.7719	-7.04721	0	
1.4973	27.673	-10.6952	0	
1.4980	30.7564	-11.317	0	
1.4987	31.0647	-8.53956	0	
1.4993	29.2147	-4.89159	0	
1.5000	26.1699	-2.73598	0	
1.5007	21.2751	-4.89159	0	
1.5013	14.5688	-5.80359	0	
1.5020	8.78753	-1.82398	0	
1.5027	5.39585	2.4458	0	
1.5033	2.35105	2.4458	0	
1.5040	-0.693752	1.53381	0	
1.5047	-3.73855	2.4458	0	
1.5053	-7.70836	4.89159	0	
1.5060	-16.573	7.29594	0	
1.5067	-28.4438	8.82974	0	
1.5073	-37.3085	9.74174	0	
1.5080	-42.8199	9.16138	0	
1.5087	-44.9397	7.29594	0	
1.5093	-41.5866	7.00576	0	
1.5100	-37.3085	7.29594	0	
1.5107	-34.8803	4.26978	0	
1.5113	-29.9855	0.621813	0	
1.5120	-23.2792	-1.24363	0	
1.5127	-20.8511	-2.73598	0	
1.5133	-18.3844	-0.911992	0	
1.5140	-12.9115	3.64797	0	
1.5147	-8.9417	2.4458	0	
1.5153	-5.89689	-1.24363	0	
1.5160	3.58439	-0.911992	0	
1.5167	17.9219	-1.82398	0	
1.5173	27.0949	-6.71558	0	
1.5180	28.9063	-8.53956	0	
1.5187	27.673	-6.71558	0	
1.5193	25.8615	-7.62757	0	
1.5200	23.1251	-9.45156	0	
1.5207	18.8469	-7.62757	0	
1.5213	13.3355	-3.06761	0	
1.5220	9.05732	-0.621813	0	
1.5227	7.55419	-0.331634	0	
1.5233	3.27605	-2.15562	0	
1.5240	-2.50522	-5.51341	0	
1.5247	-4.66356	-7.62757	0	
1.5253	-7.70836	-2.15562	0	
1.5260	-18.0761	9.16138	0	
1.5267	-29.3688	16.7889	0	
1.5273	-37.0001	16.7889	0	
1.5280	-41.8949	16.1671	0	
1.5287	-42.5116	18.9031	0	
1.5293	-40.9699	17.3693	0	
1.5300	-37.9251	10.0734	0	
1.5307	-29.0605	3.9796	0	
1.5313	-21.1209	0.911992	0	
1.5320	-18.3844	0.621813	0	
1.5327	-15.648	3.02616	0	
1.5333	-11.0615	3.35779	0	
1.5340	-6.78336	-0.331634	0	
1.5347	-2.23542	-1.82398	0	
1.5353	2.35105	0	0	
1.5360	9.36566	-2.15562	0	
1.5367	23.4334	-6.4254	0	
1.5373	34.4178	-8.8712	0	
1.5380	35.6126	-12.5192	0	
1.5387	35.6126	-14.6748	0	
1.5393	36.2293	-11.317	0	
1.5400	31.0647	-7.04721	0	
1.5407	26.7865	-5.80359	0	
1.5413	23.7032	-5.18177	0	
1.5420	16.9969	-3.9796	0	
1.5427	12.449	-0.911992	0	
1.5433	12.449	3.35779	0	
1.5440	10.2907	4.26978	0	
1.5447	7.55419	3.02616	0	
1.5453	3.89272	5.18177	0	
1.5460	-6.78336	9.74174	0	
1.5467	-21.1209	11.6072	0	
1.5473	-28.7522	12.5192	0	
1.5480	-32.1439	14.0115	0	
1.5487	-33.3387	12.1875	0	
1.5493	-31.5272	9.74174	0	
1.5500	-26.9407	9.45156	0	
1.5507	-23.2792	9.16138	0	
1.5513	-20.2344	7.62757	0	
1.5520	-15.9563	5.18177	0	
1.5527	-12.6032	2.11416	0	
1.5533	-10.7532	0.621813	0	
1.5540	-6.47502	1.53381	0	
1.5547	-0.385418	1.82398	0	
1.5553	2.04272	0	0	
1.5560	5.70419	-2.73598	0	
1.5567	17.9219	-4.89159	0	
1.5573	29.2147	-4.89159	0	
1.5580	32.8762	-4.89159	0	
1.5587	34.1095	-6.71558	0	
1.5593	33.4928	-7.62757	0	
1.5600	28.9063	-5.18177	0	
1.5607	24.3199	-4.89159	0	
1.5613	20.6584	-3.9796	0	
1.5620	17.6136	-0.331634	0	
1.5627	15.1855	0.290179	0	
1.5633	11.2157	-4.60142	0	
1.5640	6.93752	-5.80359	0	
1.5647	4.81772	-2.4458	0	
1.5653	0.231251	0.290179	0	
1.5660	-11.0615	4.26978	0	
1.5667	-22.3542	9.45156	0	
1.5673	-31.2189	13.4312	0	
1.5680	-36.3835	15.5453	0	
1.5687	-36.6918	14.6333	0	
1.5693	-34.2637	10.0734	0	
1.5700	-30.2938	7.91775	0	
1.5707	-24.2042	8.82974	0	
1.5713	-17.4594	5.47195	0	
1.5720	-12.2948	-0.911992	0	
1.5727	-8.63336	-2.15562	0	
1.5733	-7.70836	0.290179	0	
1.5740	-5.89689	0.290179	0	
1.5747	-1.31042	-0.621813	0	
1.5753	3.27605	-1.24363	0	
1.5760	13.0271	-3.9796	0	
1.5767	27.673	-8.53956	0	
1.5773	35.6126	-10.9854	0	
1.5780	34.7262	-10.9854	0	
1.5787	35.6126	-11.317	0	
1.5793	37.1543	-11.317	0	
1.5800	31.3345	-8.53956	0	
1.5807	24.9365	-6.09377	0	
1.5813	22.8167	-5.80359	0	
1.5820	18.5386	-3.35779	0	
1.5827	12.449	0.621813	0	
1.5833	9.67399	2.11416	0	
1.5840	7.24586	0	0	
1.5847	4.20106	-0.911992	0	
1.5853	1.15625	1.82398	0	
1.5860	-8.01669	5.80359	0	
1.5867	-21.4292	6.71558	0	
1.5873	-29.0605	5.80359	0	
1.5880	-31.2189	5.80359	0	
1.5887	-33.0303	7.62757	0	
1.5893	-32.1439	8.82974	0	
1.5900	-26.9407	7.00576	0	
1.5907	-22.9709	6.09377	0	
1.5913	-20.5428	8.82974	0	
1.5920	-16.8813	8.53956	0	
1.5927	-13.2198	2.73598	0	
1.5933	-9.55836	-0.621813	0	
1.5940	-5.58856	0.290179	0	
1.5947	-3.12189	0.290179	0	
1.5953	-0.385418	-2.15562	0	
1.5960	7.86253	-5.80359	0	
1.5967	20.9667	-8.53956	0	
1.5973	29.8313	-10.3635	0	
1.5980	32.5678	-10.9854	0	
1.5987	33.4928	-10.0734	0	
1.5993	31.6428	-8.24938	0	
1.6000	25.5532	-7.04721	0	
1.6007	19.4636	-5.80359	0	
1.6013	16.6886	-4.89159	0	
1.6020	13.3355	-5.80359	0	
1.6027	8.47919	-3.9796	0	
1.6033	5.39585	1.20217	0	
1.6040	3.27605	3.02616	0	
1.6047	0.539585	0.621813	0	
1.6053	-1.92709	1.53381	0	
1.6060	-10.4448	6.09377	0	
1.6067	-25.0907	11.2755	0	
1.6073	-33.9553	15.2551	0	
1.6080	-35.497	17.0791	0	
1.6087	-37.9251	16.1671	0	
1.6093	-37.9251	12.5192	0	
1.6100	-31.8355	7.91775	0	
1.6107	-26.6324	4.55996	0	
1.6113	-24.2042	3.35779	0	
1.6120	-19.9261	4.26978	0	
1.6127	-15.0313	5.47195	0	
1.6133	-10.4448	4.55996	0	
1.6140	-6.78336	0.911992	0	
1.6147	-5.58856	-1.24363	0	
1.6153	-2.23542	-0.911992	0	
1.6160	9.36566	-2.15562	0	
1.6167	23.1251	-5.80359	0	
1.6173	31.9511	-9.16138	0	
1.6180	38.0793	-9.45156	0	
1.6187	40.5074	-7.33739	0	
1.6193	36.2293	-6.09377	0	
1.6200	30.1397	-6.71558	0	
1.6207	24.6282	-5.51341	0	
1.6213	18.8469	-1.82398	0	
1.6220	15.4938	-0.331634	0	
1.6227	13.9521	-0.911992	0	
1.6233	8.78753	0	0	
1.6240	4.20106	1.82398	0	
1.6247	5.70419	3.35779	0	
1.6253	3.58439	5.80359	0	
1.6260	-8.63336	7.91775	0	
1.6267	-20.5428	10.6537	0	
1.6273	-26.6324	13.0995	0	
1.6280	-33.0303	12.1875	0	
1.6287	-37.0001	10.6537	0	
1.6293	-33.3387	11.2755	0	
1.6300	-28.1741	10.6537	0	
1.6307	-24.5126	9.16138	0	
1.6313	-20.2344	7.62757	0	
1.6320	-15.9563	3.02616	0	
1.6327	-12.9115	-2.4458	0	
1.6333	-10.4448	-3.68942	0	
1.6340	-8.32503	-3.06761	0	
1.6347	-3.73855	-4.26978	0	
1.6353	1.42605	-5.80359	0	
1.6360	7.55419	-7.62757	0	
1.6367	20.3501	-7.33739	0	
1.6373	33.4928	-6.71558	0	
1.6380	35.921	-9.45156	0	
1.6387	33.4928	-10.6952	0	
1.6393	32.8762	-6.4254	0	
1.6400	27.0949	-3.35779	0	
1.6407	19.1553	-4.26978	0	
1.6413	16.6886	-3.06761	0	
1.6420	11.524	-0.621813	0	
1.6427	4.50939	-1.82398	0	
1.6433	2.35105	-2.15562	0	
1.6440	-0.385418	0	0	
1.6447	-3.12189	0.621813	0	
1.6453	-4.35522	0.621813	0	
1.6460	-12.2948	3.9796	0	
1.6467	-26.324	8.53956	0	
1.6473	-36.0751	10.6537	0	
1.6480	-41.5866	9.74174	0	
1.6487	-40.9699	8.82974	0	
1.6493	-34.8803	9.16138	0	
1.6500	-29.9855	10.3635	0	
1.6507	-26.324	10.0734	0	
1.6513	-20.5428	8.53956	0	
1.6520	-16.573	6.09377	0	
1.6527	-14.723	3.9796	0	
1.6533	-10.4448	3.02616	0	
1.6540	-7.09169	2.11416	0	
1.6547	-3.73855	1.82398	0	
1.6553	2.35105	2.73598	0	
1.6560	11.524	1.53381	0	
1.6567	22.8167	-3.06761	0	
1.6573	31.9511	-7.04721	0	
1.6580	34.1095	-8.53956	0	
1.6587	32.5678	-8.8712	0	
1.6593	31.6428	-8.24938	0	
1.6600	28.598	-8.24938	0	
1.6607	22.2001	-7.62757	0	
1.6613	17.3053	-2.73598	0	
1.6620	14.5688	2.4458	0	
1.6627	10.9073	1.82398	0	
1.6633	5.08752	0.911992	0	
1.6640	1.42605	3.35779	0	
1.6647	-0.385418	3.9796	0	
1.6653	-4.97189	4.26978	0	
1.6660	-15.0313	9.74174	0	
1.6667	-26.0157	14.3432	0	
1.6673	-33.3387	14.0115	0	
1.6680	-37.0001	13.7213	0	
1.6687	-37.3085	13.4312	0	
1.6693	-35.8053	9.45156	0	
1.6700	-32.1439	7.62757	0	
1.6707	-26.0157	9.74174	0	
1.6713	-19.0011	7.29594	0	
1.6720	-14.1063	1.53381	0	
1.6727	-12.6032	1.53381	0	
1.6733	-9.25003	3.35779	0	
1.6740	-3.12189	0.911992	0	
1.6747	-0.693752	0.290179	0	
1.6753	1.42605	2.4458	0	
1.6760	11.2157	-0.911992	0	
1.6767	23.4334	-7.62757	0	
1.6773	30.1397	-10.9854	0	
1.6780	34.4178	-9.78319	0	
1.6787	38.0793	-7.62757	0	
1.6793	34.4178	-5.51341	0	
1.6800	27.0949	-3.06761	0	
1.6807	23.1251	-1.53381	0	
1.6813	20.3501	-0.331634	0	
1.6820	14.2605	0.621813	0	
1.6827	9.67399	0.621813	0	
1.6833	6.32085	0.621813	0	
1.6840	1.73438	0.290179	0	
1.6847	-1.00209	1.53381	0	
1.6853	-3.12189	3.35779	0	
1.6860	-12.2948	5.47195	0	
1.6867	-25.7074	8.53956	0	
1.6873	-33.3387	9.74174	0	
1.6880	-36.0751	6.71558	0	
1.6887	-37.0001	4.26978	0	
1.6893	-35.1887	6.71558	0	
1.6900	-30.6022	7.29594	0	
1.6907	-24.7824	4.26978	0	
1.6913	-19.0011	3.64797	0	
1.6920	-14.1063	5.18177	0	
1.6927	-9.55836	2.4458	0	
1.6933	-7.09169	-2.73598	0	
1.6940	-7.09169	-3.9796	0	
1.6947	-4.04689	-1.53381	0	
1.6953	3.27605	-3.06761	0	
1.6960	11.524	-7.62757	0	
1.6967	22.2001	-8.53956	0	
1.6973	32.5678	-7.62757	0	
1.6980	36.2293	-10.0734	0	
1.6987	34.7262	-11.317	0	
1.6993	33.4928	-9.45156	0	
1.7000	29.8313	-9.78319	0	
1.7007	23.4334	-10.0734	0	
1.7013	19.4636	-5.80359	0	
1.7020	15.8021	-3.9796	0	
1.7027	10.599	-4.60142	0	
1.7033	4.81772	-2.73598	0	
1.7040	0.539585	0.290179	0	
1.7047	-0.385418	2.11416	0	
1.7053	-1.31042	3.9796	0	
1.7060	-10.4448	7.00576	0	
1.7067	-25.399	9.16138	0	
1.7073	-34.2637	9.45156	0	
1.7080	-36.6918	9.45156	0	
1.7087	-36.0751	10.9854	0	
1.7093	-33.647	10.6537	0	
1.7100	-30.9105	7.00576	0	
1.7107	-27.8657	6.38395	0	
1.7113	-22.3542	7.91775	0	
1.7120	-15.9563	4.26978	0	
1.7127	-11.3698	-0.331634	0	
1.7133	-6.78336	-1.24363	0	
1.7140	-1.92709	-0.621813	0	
1.7147	1.42605	-0.331634	0	
1.7153	3.27605	-0.331634	0	
1.7160	11.2157	-2.15562	0	
1.7167	24.0115	-6.71558	0	
1.7173	32.5678	-9.45156	0	
1.7180	34.4178	-8.24938	0	
1.7187	33.8012	-8.53956	0	
1.7193	31.6428	-11.317	0	
1.7200	28.2897	-9.16138	0	
1.7207	24.0115	-2.73598	0	
1.7213	17.6136	-0.331634	0	
1.7220	11.524	-1.82398	0	
1.7227	9.36566	-0.911992	0	
1.7233	6.62919	0.621813	0	
1.7240	1.15625	1.20217	0	
1.7247	-2.23542	3.35779	0	
1.7253	-4.04689	5.47195	0	
1.7260	-12.2948	7.62757	0	
1.7267	-24.5126	10.9854	0	
1.7273	-33.647	12.8093	0	
1.7280	-37.0001	14.3432	0	
1.7287	-36.6918	16.1671	0	
1.7293	-33.3387	14.3432	0	
1.7300	-28.7522	8.53956	0	
1.7307	-25.0907	6.71558	0	
1.7313	-22.3542	7.62757	0	
1.7320	-17.4594	6.38395	0	
1.7327	-11.3698	3.35779	0	
1.7333	-8.63336	0.621813	0	
1.7340	-8.32503	1.53381	0	
1.7347	-6.78336	2.4458	0	
1.7353	-2.23542	-2.15562	0	
1.7360	8.78753	-6.71558	0	
1.7367	22.2001	-6.71558	0	
1.7373	29.8313	-8.53956	0	
1.7380	33.1845	-10.9854	0	
1.7387	33.8012	-8.53956	0	
1.7393	30.7564	-7.33739	0	
1.7400	26.4782	-7.33739	0	
1.7407	22.5084	-4.26978	0	
1.7413	16.1105	-3.9796	0	
1.7420	10.9073	-5.80359	0	
1.7427	9.36566	-2.73598	0	
1.7433	6.01252	0	0	
1.7440	1.42605	-1.24363	0	
1.7447	-1.00209	-0.331634	0	
1.7453	-4.66356	4.26978	0	
1.7460	-15.0313	9.74174	0	
1.7467	-26.324	14.3432	0	
1.7473	-34.2637	13.0995	0	
1.7480	-38.8501	9.16138	0	
1.7487	-37.9251	10.3635	0	
1.7493	-33.3387	12.1875	0	
1.7500	-29.6772	8.53956	0	
1.7507	-26.9407	6.09377	0	
1.7513	-20.5428	7.29594	0	
1.7520	-13.798	5.80359	0	
1.7527	-11.6782	3.02616	0	
1.7533	-10.7532	1.82398	0	
1.7540	-7.09169	0.290179	0	
1.7547	-3.12189	-0.621813	0	
1.7553	0.539585	-0.331634	0	
1.7560	9.98232	-3.35779	0	
1.7567	23.4334	-7.33739	0	
1.7573	29.2147	-7.62757	0	
1.7580	29.8313	-8.24938	0	
1.7587	30.7564	-8.53956	0	
1.7593	29.2147	-6.09377	0	
1.7600	24.6282	-4.60142	0	
1.7607	23.4334	-3.06761	0	
1.7613	19.1553	0.621813	0	
1.7620	11.2157	0.290179	0	
1.7627	8.78753	-0.911992	0	
1.7633	6.62919	4.26978	0	
1.7640	0.539585	8.53956	0	
1.7647	-0.0770836	6.09377	0	
1.7653	-1.61876	5.80359	0	
1.7660	-12.9115	8.82974	0	
1.7667	-23.8959	9.74174	0	
1.7673	-31.5272	10.6537	0	
1.7680	-39.1585	10.3635	0	
1.7687	-39.1585	9.16138	0	
1.7693	-31.8355	11.6072	0	
1.7700	-28.4438	11.8974	0	
1.7707	-27.249	6.09377	0	
1.7713	-22.3542	2.11416	0	
1.7720	-17.7678	0.911992	0	
1.7727	-14.723	-1.24363	0	
1.7733	-8.63336	-1.53381	0	
1.7740	-4.04689	-0.621813	0	
1.7747	-1.31042	-2.15562	0	
1.7753	2.35105	-5.18177	0	
1.7760	9.67399	-5.51341	0	
1.7767	20.6584	-5.80359	0	
1.7773	30.1397	-8.53956	0	
1.7780	32.5678	-9.78319	0	
1.7787	32.8762	-8.53956	0	
1.7793	33.1845	-7.33739	0	
1.7800	26.7865	-5.80359	0	
1.7807	18.8469	-3.68942	0	
1.7813	17.9219	-3.06761	0	
1.7820	17.6136	-3.06761	0	
1.7827	13.0271	-0.331634	0	
1.7833	9.36566	0.290179	0	
1.7840	5.08752	-2.4458	0	
1.7847	-0.385418	-1.82398	0	
1.7853	-3.12189	2.73598	0	
1.7860	-9.82816	5.47195	0	
1.7867	-23.8959	9.45156	0	
1.7873	-32.4136	16.1671	0	
1.7880	-33.3387	18.9031	0	
1.7887	-33.9553	15.2551	0	
1.7893	-33.3387	10.6537	0	
1.7900	-30.6022	7.91775	0	
1.7907	-24.7824	7.91775	0	
1.7913	-16.2646	7.00576	0	
1.7920	-11.3698	3.35779	0	
1.7927	-11.3698	2.4458	0	
1.7933	-7.70836	4.26978	0	
1.7940	-1.61876	2.4458	0	
1.7947	-2.81355	-1.24363	0	
1.7953	-2.81355	-3.35779	0	
1.7960	7.86253	-6.71558	0	
1.7967	22.2001	-10.3635	0	
1.7973	30.7564	-11.317	0	
1.7980	35.6126	-10.9854	0	
1.7987	37.1543	-7.62757	0	
1.7993	32.5678	-4.89159	0	
1.8000	26.1699	-7.33739	0	
1.8007	21.5834	-8.53956	0	
1.8013	17.3053	-4.89159	0	
1.8020	11.8323	-3.35779	0	
1.8027	8.47919	-2.15562	0	
1.8033	6.01252	3.02616	0	
1.8040	2.04272	3.9796	0	
1.8047	-1.00209	1.53381	0	
1.8053	-3.12189	3.64797	0	
1.8060	-11.0615	6.71558	0	
1.8067	-24.2042	8.53956	0	
1.8073	-31.5272	12.5192	0	
1.8080	-33.9553	14.3432	0	
1.8087	-37.0001	12.5192	0	
1.8093	-36.0751	12.8093	0	
1.8100	-28.7522	12.8093	0	
1.8107	-22.0459	9.74174	0	
1.8113	-17.4594	7.62757	0	
1.8120	-12.2948	6.71558	0	
1.8127	-9.82816	5.18177	0	
1.8133	-8.32503	3.35779	0	
1.8140	-4.04689	1.53381	0	
1.8147	-0.385418	0	0	
1.8153	2.35105	-1.82398	0	
1.8160	11.524	-3.68942	0	
1.8167	23.4334	-4.89159	0	
1.8173	30.7564	-6.71558	0	
1.8180	33.8012	-9.16138	0	
1.8187	34.4178	-8.53956	0	
1.8193	30.7564	-6.4254	0	
1.8200	26.1699	-5.18177	0	
1.8207	22.8167	-3.9796	0	
1.8213	17.3053	-3.06761	0	
1.8220	11.524	-4.89159	0	
1.8227	7.86253	-4.89159	0	
1.8233	4.50939	1.53381	0	
1.8240	0.231251	4.55996	0	
1.8247	-2.81355	1.53381	0	
1.8253	-6.78336	0.911992	0	
1.8260	-17.1896	3.9796	0	
1.8267	-29.6772	5.80359	0	
1.8273	-36.0751	9.16138	0	
1.8280	-37.9251	12.1875	0	
1.8287	-38.2335	10.3635	0	
1.8293	-35.497	10.0734	0	
1.8300	-30.2938	11.6072	0	
1.8307	-25.0907	8.53956	0	
1.8313	-19.6178	4.55996	0	
1.8320	-15.0313	4.55996	0	
1.8327	-13.5282	3.64797	0	
1.8333	-8.9417	2.73598	0	
1.8340	-1.61876	3.35779	0	
1.8347	1.73438	1.20217	0	
1.8353	4.20106	-1.24363	0	
1.8360	13.6438	-1.24363	0	
1.8367	25.5532	-4.89159	0	
1.8373	32.8762	-11.317	0	
1.8380	36.2293	-12.229	0	
1.8387	36.846	-10.0734	0	
1.8393	34.4178	-9.45156	0	
1.8400	29.2147	-8.53956	0	
1.8407	23.1251	-7.62757	0	
1.8413	18.8469	-7.04721	0	
1.8420	16.9969	-4.89159	0	
1.8427	13.0271	-1.82398	0	
1.8433	6.32085	0.621813	0	
1.8440	1.15625	1.53381	0	
1.8447	-1.00209	1.82398	0	
1.8453	-4.97189	3.02616	0	
1.8460	-14.723	6.09377	0	
1.8467	-27.5574	8.82974	0	
1.8473	-36.0751	8.82974	0	
1.8480	-37.9251	8.24938	0	
1.8487	-36.0751	9.74174	0	
1.8493	-33.3387	10.3635	0	
1.8500	-31.5272	7.91775	0	
1.8507	-27.8657	7.00576	0	
1.8513	-22.9709	6.09377	0	
1.8520	-19.3094	3.02616	0	
1.8527	-15.9563	1.53381	0	
1.8533	-12.2948	1.82398	0	
1.8540	-8.63336	-1.24363	0	
1.8547	-3.73855	-3.68942	0	
1.8553	2.65938	-2.15562	0	
1.8560	10.9073	-3.06761	0	
1.8567	21.5834	-7.04721	0	
1.8573	31.0647	-7.33739	0	
1.8580	34.4178	-5.80359	0	
1.8587	34.4178	-5.80359	0	
1.8593	35.3043	-3.9796	0	
1.8600	30.7564	-0.621813	0	
1.8607	22.2001	-0.331634	0	
1.8613	17.9219	-0.911992	0	
1.8620	16.1105	-0.621813	0	
1.8627	11.524	-3.06761	0	
1.8633	6.62919	-6.71558	0	
1.8640	3.27605	-2.15562	0	
1.8647	-0.0770836	5.18177	0	
1.8653	-4.97189	6.09377	0	
1.8660	-14.4146	5.80359	0	
1.8667	-26.324	7.29594	0	
1.8673	-31.5272	7.00576	0	
1.8680	-30.6022	6.09377	0	
1.8687	-32.4136	7.29594	0	
1.8693	-33.3387	5.18177	0	
1.8700	-29.3688	2.11416	0	
1.8707	-24.2042	3.64797	0	
1.8713	-20.5428	5.80359	0	
1.8720	-15.648	4.89159	0	
1.8727	-10.7532	4.26978	0	
1.8733	-7.70836	2.11416	0	
1.8740	-4.97189	-1.82398	0	
1.8747	-1.31042	-3.06761	0	
1.8753	3.27605	-3.9796	0	
1.8760	11.8323	-6.09377	0	
1.8767	23.1251	-7.33739	0	
1.8773	32.5678	-6.4254	0	
1.8780	36.5376	-5.51341	0	
1.8787	35.3043	-4.26978	0	
1.8793	32.5678	-3.35779	0	
1.8800	29.523	-3.35779	0	
1.8807	26.1699	-3.06761	0	
1.8813	22.5084	-2.73598	0	
1.8820	19.4636	-3.06761	0	
1.8827	14.5688	-1.82398	0	
1.8833	8.47919	2.4458	0	
1.8840	3.58439	5.47195	0	
1.8847	1.42605	3.9796	0	
1.8853	-1.61876	3.02616	0	
1.8860	-9.82816	6.38395	0	
1.8867	-22.9709	10.0734	0	
1.8873	-31.8355	11.6072	0	
1.8880	-34.2637	13.0995	0	
1.8887	-33.9553	14.6333	0	
1.8893	-30.2938	12.5192	0	
1.8900	-26.324	9.74174	0	
1.8907	-26.0157	9.74174	0	
1.8913	-23.5876	9.74174	0	
1.8920	-16.8813	6.38395	0	
1.8927	-12.2948	4.26978	0	
1.8933	-8.63336	3.35779	0	
1.8940	-4.04689	0.911992	0	
1.8947	-4.04689	-0.331634	0	
1.8953	-1.61876	0.621813	0	
1.8960	9.67399	-0.621813	0	
1.8967	22.5084	-4.89159	0	
1.8973	31.6428	-7.33739	0	
1.8980	36.2293	-8.53956	0	
1.8987	34.9959	-9.78319	0	
1.8993	30.7564	-9.45156	0	
1.9000	27.0949	-6.71558	0	
1.9007	20.9667	-4.89159	0	
1.9013	16.1105	-3.35779	0	
1.9020	13.3355	-3.06761	0	
1.9027	8.17086	-3.35779	0	
1.9033	3.58439	-2.15562	0	
1.9040	1.42605	1.20217	0	
1.9047	-2.23542	-0.331634	0	
1.9053	-5.89689	-2.4458	0	
1.9060	-11.9865	1.82398	0	
1.9067	-24.2042	9.16138	0	
1.9073	-33.9553	11.6072	0	
1.9080	-34.8803	12.1875	0	
1.9087	-35.497	12.5192	0	
1.9093	-35.1887	8.82974	0	
1.9100	-27.8657	4.89159	0	
1.9107	-22.3542	5.80359	0	
1.9113	-20.5428	5.47195	0	
1.9120	-14.723	1.53381	0	
1.9127	-8.63336	0.621813	0	
1.9133	-8.32503	3.02616	0	
1.9140	-7.09169	2.4458	0	
1.9147	-2.23542	-1.24363	0	
1.9153	2.96772	-2.4458	0	
1.9160	12.1407	-2.15562	0	
1.9167	25.5532	-6.09377	0	
1.9173	33.4928	-10.6952	0	
1.9180	35.6126	-8.8712	0	
1.9187	37.1543	-7.62757	0	
1.9193	34.1095	-9.45156	0	
1.9200	27.673	-8.53956	0	
1.9207	23.4334	-7.9592	0	
1.9213	18.5386	-9.45156	0	
1.9220	11.8323	-5.18177	0	
1.9227	7.86253	-0.911992	0	
1.9233	4.20106	-2.15562	0	
1.9240	0.231251	-2.15562	0	
1.9247	-0.693752	1.20217	0	
1.9253	-3.73855	3.35779	0	
1.9260	-15.0313	7.62757	0	
1.9267	-27.5574	11.2755	0	
1.9273	-34.2637	10.6537	0	
1.9280	-37.9251	10.9854	0	
1.9287	-37.9251	11.2755	0	
1.9293	-34.572	8.82974	0	
1.9300	-30.6022	9.74174	0	
1.9307	-26.0157	10.6537	0	
1.9313	-19.9261	6.09377	0	
1.9320	-14.1063	3.35779	0	
1.9327	-11.0615	4.55996	0	
1.9333	-7.70836	3.64797	0	
1.9340	-2.23542	1.20217	0	
1.9347	2.35105	-0.331634	0	
1.9353	6.32085	-3.06761	0	
1.9360	16.3803	-6.4254	0	
1.9367	27.673	-7.04721	0	
1.9373	33.1845	-7.33739	0	
1.9380	36.2293	-7.33739	0	
1.9387	37.771	-7.62757	0	
1.9393	34.1095	-8.53956	0	
1.9400	29.8313	-6.4254	0	
1.9407	26.1699	-2.15562	0	
1.9413	19.7719	-2.15562	0	
1.9420	13.6438	-3.06761	0	
1.9427	9.98232	-1.82398	0	
1.9433	4.81772	0	0	
1.9440	0.847919	0	0	
1.9447	0.231251	-0.331634	0	
1.9453	-2.50522	1.20217	0	
1.9460	-12.9115	5.18177	0	
1.9467	-27.5574	10.0734	0	
1.9473	-38.2335	11.8974	0	
1.9480	-41.8949	12.1875	0	
1.9487	-41.8949	13.4312	0	
1.9493	-39.7366	13.4312	0	
1.9500	-33.647	11.6072	0	
1.9507	-29.3688	9.74174	0	
1.9513	-25.399	8.53956	0	
1.9520	-17.4594	7.00576	0	
1.9527	-11.6782	6.71558	0	
1.9533	-9.82816	7.62757	0	
1.9540	-5.58856	6.09377	0	
1.9547	-3.43022	2.4458	0	
1.9553	-2.23542	2.11416	0	
1.9560	10.2907	1.53381	0	
1.9567	28.2897	-4.89159	0	
1.9573	35.6126	-11.317	0	
1.9580	36.5376	-10.3635	0	
1.9587	38.0793	-11.317	0	
1.9593	35.3043	-13.141	0	
1.9600	30.1397	-7.33739	0	
1.9607	25.2449	-2.73598	0	
1.9613	19.4636	-3.9796	0	
1.9620	14.2605	-1.82398	0	
1.9627	10.599	1.20217	0	
1.9633	5.70419	-2.15562	0	
1.9640	2.35105	-2.4458	0	
1.9647	2.35105	-0.331634	0	
1.9653	-0.0770836	-0.331634	0	
1.9660	-9.55836	3.02616	0	
1.9667	-22.6626	10.6537	0	
1.9673	-31.8355	15.2551	0	
1.9680	-33.647	17.0791	0	
1.9687	-34.2637	17.9911	0	
1.9693	-34.572	17.3693	0	
1.9700	-28.7522	16.4573	0	
1.9707	-21.4292	14.3432	0	
1.9713	-18.0761	8.24938	0	
1.9720	-15.0313	1.53381	0	
1.9727	-10.1365	-2.15562	0	
1.9733	-6.78336	-2.4458	0	
1.9740	-2.81355	-0.621813	0	
1.9747	1.73438	-1.24363	0	
1.9753	4.50939	-6.4254	0	
1.9760	11.524	-10.9854	0	
1.9767	25.2449	-13.141	0	
1.9773	33.4928	-13.141	0	
1.9780	33.4928	-11.317	0	
1.9787	33.4928	-10.0734	0	
1.9793	35.3043	-10.3635	0	
1.9800	31.6428	-8.53956	0	
1.9807	24.0115	-6.71558	0	
1.9813	17.3053	-8.53956	0	
1.9820	12.449	-8.53956	0	
1.9827	8.78753	-5.80359	0	
1.9833	5.39585	-5.51341	0	
1.9840	1.73438	-3.9796	0	
1.9847	-0.385418	-1.24363	0	
1.9853	-4.04689	0.621813	0	
1.9860	-14.723	4.55996	0	
1.9867	-27.249	9.74174	0	
1.9873	-35.8053	8.82974	0	
1.9880	-39.1585	7.29594	0	
1.9887	-39.4668	10.3635	0	
1.9893	-37.6168	10.9854	0	
1.9900	-35.1887	9.16138	0	
1.9907	-31.5272	10.3635	0	
1.9913	-25.0907	8.82974	0	
1.9920	-18.6928	3.64797	0	
1.9927	-14.723	1.82398	0	
1.9933	-11.9865	3.02616	0	
1.9940	-7.70836	3.35779	0	
1.9947	-5.28023	1.82398	0	
1.9953	-3.43022	-1.82398	0	
1.9960	5.08752	-5.18177	0	
1.9967	20.3501	-6.4254	0	
1.9973	30.1397	-9.16138	0	
1.9980	32.5678	-12.8093	0	
1.9987	31.6428	-10.6952	0	
1.9993	29.8313	-4.89159	0	
2.0000	25.2449	-3.35779	0	
2.0007	19.7719	-5.80359	0	
2.0013	16.1105	-5.80359	0	
2.0020	14.2605	-2.4458	0	
2.0027	10.2907	-0.621813	0	
2.0033	5.08752	-0.331634	0	
2.0040	2.04272	1.53381	0	
2.0047	0.847919	3.35779	0	
2.0053	-3.12189	4.26978	0	
2.0060	-13.798	7.62757	0	
2.0067	-29.0605	13.4312	0	
2.0073	-38.8501	14.6333	0	
2.0080	-40.3533	13.4312	0	
2.0087	-40.6616	14.3432	0	
2.0093	-37.6168	13.4312	0	
2.0100	-28.7522	9.45156	0	
2.0107	-23.5876	6.38395	0	
2.0113	-23.8959	5.18177	0	
2.0120	-18.6928	3.9796	0	
2.0127	-11.3698	4.26978	0	
2.0133	-10.7532	4.55996	0	
2.0140	-8.9417	2.4458	0	
2.0147	-2.81355	1.20217	0	
2.0153	0.847919	0.911992	0	
2.0160	7.24586	-0.621813	0	
2.0167	20.6584	-3.68942	0	
2.0173	29.8313	-7.33739	0	
2.0180	33.4928	-9.16138	0	
2.0187	36.2293	-7.33739	0	
2.0193	33.4928	-5.51341	0	
2.0200	26.1699	-3.9796	0	
2.0207	23.1251	-2.15562	0	
2.0213	21.5834	0.621813	0	
2.0220	16.1105	2.4458	0	
2.0227	11.2157	3.9796	0	
2.0233	6.93752	2.73598	0	
2.0240	1.73438	2.73598	0	
2.0247	-0.0770836	7.29594	0	
2.0253	-1.31042	10.9854	0	
2.0260	-9.55836	11.2755	0	
2.0267	-21.4292	13.7213	0	
2.0273	-29.9855	17.7009	0	
2.0280	-35.1887	17.7009	0	
2.0287	-36.3835	16.1671	0	
2.0293	-33.0303	15.877	0	
2.0300	-26.9407	13.4312	0	
2.0307	-21.1209	8.24938	0	
2.0313	-16.573	3.9796	0	
2.0320	-12.2948	3.35779	0	
2.0327	-8.63336	4.55996	0	
2.0333	-6.78336	3.35779	0	
2.0340	-6.16669	0	0	
2.0347	-4.04689	-2.15562	0	
2.0353	1.15625	-3.35779	0	
2.0360	10.599	-5.80359	0	
2.0367	23.4334	-8.8712	0	
2.0373	30.7564	-10.9854	0	
2.0380	31.9511	-13.141	0	
2.0387	33.1845	-13.141	0	
2.0393	32.2595	-7.62757	0	
2.0400	26.1699	-1.82398	0	
2.0407	21.5834	-2.15562	0	
2.0413	18.8469	-2.73598	0	
2.0420	13.3355	0.621813	0	
2.0427	9.05732	0.621813	0	
2.0433	8.78753	-2.15562	0	
2.0440	6.62919	0.290179	0	
2.0447	3.27605	2.4458	0	
2.0453	-0.385418	0.290179	0	
2.0460	-9.82816	1.53381	0	
2.0467	-22.6626	8.24938	0	
2.0473	-29.6772	12.5192	0	
2.0480	-33.0303	12.5192	0	
2.0487	-36.0751	11.2755	0	
2.0493	-35.1887	9.74174	0	
2.0500	-30.2938	8.24938	0	
2.0507	-25.399	7.29594	0	
2.0513	-21.4292	7.29594	0	
2.0520	-17.7678	7.00576	0	
2.0527	-14.1063	5.47195	0	
2.0533	-8.63336	2.4458	0	
2.0540	-3.12189	1.20217	0	
2.0547	-1.31042	2.11416	0	
2.0553	1.73438	0.911992	0	
2.0560	12.7188	-3.35779	0	
2.0567	26.1699	-4.89159	0	
2.0573	33.8012	-3.9796	0	
2.0580	35.3043	-6.09377	0	
2.0587	34.9959	-11.317	0	
2.0593	33.8012	-12.8093	0	
2.0600	29.8313	-10.9854	0	
2.0607	23.7032	-8.53956	0	
2.0613	20.0417	-6.09377	0	
2.0620	17.6136	-4.26978	0	
2.0627	13.6438	-1.53381	0	
2.0633	8.78753	2.73598	0	
2.0640	4.81772	3.64797	0	
2.0647	2.04272	0.621813	0	
2.0653	-3.12189	2.4458	0	
2.0660	-13.2198	7.91775	0	
2.0667	-24.5126	8.24938	0	
2.0673	-30.2938	6.38395	0	
2.0680	-33.0303	9.16138	0	
2.0687	-36.0751	10.6537	0	
2.0693	-34.572	7.91775	0	
2.0700	-27.8657	6.38395	0	
2.0707	-21.4292	7.00576	0	
2.0713	-17.7678	6.71558	0	
2.0720	-15.9563	6.71558	0	
2.0727	-12.9115	5.18177	0	
2.0733	-7.70836	0.911992	0	
2.0740	-3.43022	0.621813	0	
2.0747	-1.92709	5.18177	0	
2.0753	1.42605	4.89159	0	
2.0760	9.98232	-1.24363	0	
2.0767	20.9667	-4.60142	0	
2.0773	31.0647	-5.80359	0	
2.0780	39.2741	-8.53956	0	
2.0787	40.8158	-10.3635	0	
2.0793	34.9959	-9.78319	0	
2.0800	28.9063	-8.24938	0	
2.0807	25.5532	-5.51341	0	
2.0813	20.3501	-3.68942	0	
2.0820	15.1855	-3.68942	0	
2.0827	12.449	-3.06761	0	
2.0833	6.93752	-0.911992	0	
2.0840	1.42605	1.20217	0	
2.0847	0.847919	1.53381	0	
2.0853	-3.12189	1.53381	0	
2.0860	-14.723	3.9796	0	
2.0867	-24.7824	8.53956	0	
2.0873	-30.6022	11.6072	0	
2.0880	-37.0001	10.6537	0	
2.0887	-40.3533	7.91775	0	
2.0893	-34.8803	6.09377	0	
2.0900	-27.5574	3.9796	0	
2.0907	-23.5876	1.53381	0	
2.0913	-19.3094	1.53381	0	
2.0920	-14.4146	0.621813	0	
2.0927	-12.2948	-1.24363	0	
2.0933	-11.3698	-0.331634	0	
2.0940	-7.70836	0.290179	0	
2.0947	-4.04689	-1.82398	0	
2.0953	-0.385418	-2.4458	0	
2.0960	6.01252	-3.68942	0	
2.0967	18.8469	-8.53956	0	
2.0973	31.6428	-10.6952	0	
2.0980	33.8012	-9.45156	0	
2.0987	28.9063	-9.45156	0	
2.0993	27.673	-8.53956	0	
2.1000	27.0949	-7.33739	0	
2.1007	22.5084	-8.53956	0	
2.1013	16.3803	-7.62757	0	
2.1020	11.8323	-4.26978	0	
2.1027	8.17086	-3.68942	0	
2.1033	6.32085	-3.9796	0	
2.1040	3.58439	-0.911992	0	
2.1047	-0.385418	2.73598	0	
2.1053	-4.04689	4.55996	0	
2.1060	-12.2948	5.80359	0	
2.1067	-26.6324	7.91775	0	
2.1073	-35.8053	11.2755	0	
2.1080	-37.0001	12.8093	0	
2.1087	-37.9251	11.8974	0	
2.1093	-36.6918	10.6537	0	
2.1100	-32.4136	8.53956	0	
2.1107	-28.4438	7.29594	0	
2.1113	-22.3542	9.74174	0	
2.1120	-16.2646	9.74174	0	
2.1127	-14.4146	4.89159	0	
2.1133	-11.0615	1.53381	0	
2.1140	-4.97189	0.911992	0	
2.1147	-1.61876	0.621813	0	
2.1153	1.42605	0	0	
2.1160	11.2157	-3.06761	0	
2.1167	24.6282	-9.45156	0	
2.1173	33.4928	-10.3635	0	
2.1180	35.3043	-7.62757	0	
2.1187	33.8012	-6.4254	0	
2.1193	31.9511	-5.51341	0	
2.1200	29.2147	-3.06761	0	
2.1207	23.4334	-3.06761	0	
2.1213	16.3803	-4.26978	0	
2.1220	12.449	-2.4458	0	
2.1227	10.9073	0.290179	0	
2.1233	7.55419	2.4458	0	
2.1240	2.35105	3.64797	0	
2.1247	0.539585	3.02616	0	
2.1253	-2.81355	2.4458	0	
2.1260	-13.2198	5.18177	0	
2.1267	-23.2792	9.16138	0	
2.1273	-28.7522	10.3635	0	
2.1280	-33.9553	10.3635	0	
2.1287	-36.3835	10.6537	0	
2.1293	-33.3387	9.45156	0	
2.1300	-29.6772	6.09377	0	
2.1307	-26.324	4.26978	0	
2.1313	-21.1209	4.26978	0	
2.1320	-15.3396	3.35779	0	
2.1327	-11.3698	1.53381	0	
2.1333	-8.32503	0.621813	0	
2.1340	-6.16669	-0.331634	0	
2.1347	-3.12189	-1.24363	0	
2.1353	2.04272	-0.331634	0	
2.1360	10.2907	-0.331634	0	
2.1367	23.1251	-4.26978	0	
2.1373	32.5678	-6.71558	0	
2.1380	34.7262	-6.09377	0	
2.1387	35.6126	-6.71558	0	
2.1393	34.7262	-8.53956	0	
2.1400	28.598	-7.04721	0	
2.1407	23.4334	-3.9796	0	
2.1413	20.9667	-2.15562	0	
2.1420	15.8021	-0.911992	0	
2.1427	11.8323	0.621813	0	
2.1433	10.599	0.621813	0	
2.1440	6.01252	0.621813	0	
2.1447	3.27605	1.82398	0	
2.1453	0.231251	3.64797	0	
2.1460	-11.3698	6.09377	0	
2.1467	-23.2792	9.74174	0	
2.1473	-29.3688	12.5192	0	
2.1480	-35.1887	13.4312	0	
2.1487	-37.0001	13.4312	0	
2.1493	-30.6022	12.1875	0	
2.1500	-25.399	10.6537	0	
2.1507	-22.0459	10.6537	0	
2.1513	-16.2646	10.6537	0	
2.1520	-13.5282	8.82974	0	
2.1527	-12.2948	6.71558	0	
2.1533	-7.70836	5.18177	0	
2.1540	-4.97189	2.4458	0	
2.1547	-4.04689	-2.15562	0	
2.1553	1.42605	-7.33739	0	
2.1560	11.524	-10.0734	0	
2.1567	22.5084	-10.3635	0	
2.1573	30.448	-9.78319	0	
2.1580	31.6428	-10.9854	0	
2.1587	29.8313	-12.229	0	
2.1593	28.598	-10.3635	0	
2.1600	25.5532	-6.09377	0	
2.1607	20.6584	-4.89159	0	
2.1613	15.8021	-4.89159	0	
2.1620	11.2157	-2.15562	0	
2.1627	7.24586	0.621813	0	
2.1633	5.08752	0.911992	0	
2.1640	2.96772	1.53381	0	
2.1647	1.42605	0.290179	0	
2.1653	-0.0770836	-1.24363	0	
2.1660	-9.55836	3.35779	0	
2.1667	-26.0157	7.91775	0	
2.1673	-35.1887	8.53956	0	
2.1680	-36.0751	10.9854	0	
2.1687	-36.6918	14.0115	0	
2.1693	-36.6918	11.6072	0	
2.1700	-32.722	9.74174	0	
2.1707	-27.249	11.2755	0	
2.1713	-21.7376	9.74174	0	
2.1720	-14.1063	6.38395	0	
2.1727	-8.63336	5.18177	0	
2.1733	-7.40002	3.64797	0	
2.1740	-5.28023	2.4458	0	
2.1747	-0.385418	4.55996	0	
2.1753	5.08752	5.47195	0	
2.1760	13.3355	-2.15562	0	
2.1767	25.2449	-10.9854	0	
2.1773	33.4928	-11.317	0	
2.1780	34.9959	-8.24938	0	
2.1787	34.7262	-8.8712	0	
2.1793	32.8762	-9.45156	0	
2.1800	27.673	-8.24938	0	
2.1807	22.8167	-7.62757	0	
2.1813	19.4636	-4.89159	0	
2.1820	14.5688	0.621813	0	
2.1827	8.78753	2.4458	0	
2.1833	5.70419	0.911992	0	
2.1840	4.50939	2.4458	0	
2.1847	2.04272	4.55996	0	
2.1853	-4.04689	4.89159	0	
2.1860	-13.5282	6.38395	0	
2.1867	-25.0907	9.74174	0	
2.1873	-34.8803	11.8974	0	
2.1880	-37.0001	12.5192	0	
2.1887	-34.8803	12.5192	0	
2.1893	-32.722	11.6072	0	
2.1900	-29.6772	9.16138	0	
2.1907	-23.8959	5.80359	0	
2.1913	-18.6928	2.73598	0	
2.1920	-16.573	2.11416	0	
2.1927	-13.798	2.4458	0	
2.1933	-9.55836	1.53381	0	
2.1940	-5.58856	0	0	
2.1947	-4.04689	-1.82398	0	
2.1953	-0.385418	-3.68942	0	
2.1960	11.2157	-5.18177	0	
2.1967	24.6282	-6.71558	0	
2.1973	30.7564	-9.45156	0	
2.1980	32.2595	-10.9854	0	
2.1987	32.5678	-9.45156	0	
2.1993	29.8313	-7.33739	0	
2.2000	27.0949	-6.71558	0	
2.2007	24.3199	-4.89159	0	
2.2013	19.1553	-1.24363	0	
2.2020	13.9521	1.20217	0	
2.2027	10.599	1.82398	0	
2.2033	6.32085	3.02616	0	
2.2040	3.27605	3.02616	0	
2.2047	2.04272	2.4458	0	
2.2053	-3.73855	3.9796	0	
2.2060	-15.9563	7.62757	0	
2.2067	-28.4438	9.74174	0	
2.2073	-36.0751	9.74174	0	
2.2080	-37.9251	8.53956	0	
2.2087	-37.0001	7.29594	0	
2.2093	-34.8803	8.53956	0	
2.2100	-30.2938	8.82974	0	
2.2107	-23.2792	6.09377	0	
2.2113	-18.0761	2.73598	0	
2.2120	-15.0313	1.82398	0	
2.2127	-10.4448	2.11416	0	
2.2133	-6.47502	2.11416	0	
2.2140	-4.66356	2.4458	0	
2.2147	-2.23542	2.4458	0	
2.2153	1.73438	-0.331634	0	
2.2160	9.98232	-3.9796	0	
2.2167	24.3199	-6.71558	0	
2.2173	34.7262	-7.62757	0	
2.2180	36.846	-8.53956	0	
2.2187	35.6126	-7.9592	0	
2.2193	32.8762	-5.80359	0	
2.2200	27.0949	-5.51341	0	
2.2207	22.5084	-5.18177	0	
2.2213	19.4636	-2.15562	0	
2.2220	14.2605	-0.911992	0	
2.2227	9.36566	-2.15562	0	
2.2233	5.08752	-3.06761	0	
2.2240	0.539585	-1.82398	0	
2.2247	-2.81355	0.290179	0	
2.2253	-6.78336	2.4458	0	
2.2260	-17.1896	5.80359	0	
2.2267	-29.3688	9.16138	0	
2.2273	-37.0001	10.9854	0	
2.2280	-41.2783	10.9854	0	
2.2287	-42.2033	9.74174	0	
2.2293	-37.9251	7.62757	0	
2.2300	-31.5272	5.80359	0	
2.2307	-26.6324	4.26978	0	
2.2313	-20.5428	3.9796	0	
2.2320	-15.9563	3.64797	0	
2.2327	-13.798	1.53381	0	
2.2333	-11.0615	-2.4458	0	
2.2340	-6.78336	-3.35779	0	
2.2347	-4.04689	0	0	
2.2353	-0.693752	0.621813	0	
2.2360	8.78753	-3.06761	0	
2.2367	22.2001	-6.09377	0	
2.2373	31.6428	-8.8712	0	
2.2380	34.4178	-12.8093	0	
2.2387	34.4178	-12.5192	0	
2.2393	32.8762	-7.62757	0	
2.2400	29.2147	-3.9796	0	
2.2407	22.8167	-2.15562	0	
2.2413	16.1105	-2.15562	0	
2.2420	11.524	-3.68942	0	
2.2427	9.36566	-1.53381	0	
2.2433	8.78753	3.64797	0	
2.2440	6.93752	5.18177	0	
2.2447	3.27605	3.02616	0	
2.2453	-2.50522	3.35779	0	
2.2460	-13.798	7.62757	0	
2.2467	-27.5574	11.6072	0	
2.2473	-35.497	10.6537	0	
2.2480	-38.2335	9.74174	0	
2.2487	-40.0449	11.6072	0	
2.2493	-39.4668	9.45156	0	
2.2500	-34.572	4.55996	0	
2.2507	-28.7522	4.55996	0	
2.2513	-24.2042	4.89159	0	
2.2520	-20.5428	0.911992	0	
2.2527	-16.573	-0.621813	0	
2.2533	-10.4448	-0.331634	0	
2.2540	-6.47502	-1.24363	0	
2.2547	-4.66356	-0.911992	0	
2.2553	0.847919	-0.331634	0	
2.2560	11.8323	-2.73598	0	
2.2567	23.7032	-6.09377	0	
2.2573	31.9511	-9.78319	0	
2.2580	34.9959	-11.6072	0	
2.2587	32.8762	-9.16138	0	
2.2593	29.2147	-5.80359	0	
2.2600	27.0949	-2.73598	0	
2.2607	25.2449	0.621813	0	
2.2613	20.6584	1.53381	0	
2.2620	15.1855	0.621813	0	
2.2627	10.599	3.9796	0	
2.2633	7.55419	5.80359	0	
2.2640	5.39585	0.621813	0	
2.2647	3.27605	-4.60142	0	
2.2653	-3.12189	-3.35779	0	
2.2660	-15.0313	1.82398	0	
2.2667	-25.0907	7.00576	0	
2.2673	-30.6022	10.0734	0	
2.2680	-34.8803	10.9854	0	
2.2687	-35.8053	10.6537	0	
2.2693	-32.4136	9.74174	0	
2.2700	-29.0605	9.74174	0	
2.2707	-27.8657	8.82974	0	
2.2713	-24.2042	6.09377	0	
2.2720	-16.8813	3.9796	0	
2.2727	-10.4448	4.26978	0	
2.2733	-7.70836	2.4458	0	
2.2740	-4.66356	0	0	
2.2747	-2.23542	0.621813	0	
2.2753	0.539585	-1.24363	0	
2.2760	10.599	-5.80359	0	
2.2767	24.3199	-8.24938	0	
2.2773	30.1397	-8.24938	0	
2.2780	31.6428	-9.16138	0	
2.2787	34.7262	-7.9592	0	
2.2793	32.5678	-3.9796	0	
2.2800	26.1699	-0.621813	0	
2.2807	22.8167	0.290179	0	
2.2813	19.7719	-0.911992	0	
2.2820	13.3355	-0.621813	0	
2.2827	8.78753	1.82398	0	
2.2833	6.01252	1.82398	0	
2.2840	3.27605	0.911992	0	
2.2847	0.847919	3.64797	0	
2.2853	-3.12189	3.64797	0	
2.2860	-13.2198	0.621813	0	
2.2867	-25.399	2.4458	0	
2.2873	-33.0303	7.00576	0	
2.2880	-35.1887	6.09377	0	
2.2887	-37.6168	6.09377	0	
2.2893	-37.0001	8.24938	0	
2.2900	-30.6022	6.38395	0	
2.2907	-24.5126	4.26978	0	
2.2913	-21.4292	6.38395	0	
2.2920	-17.7678	5.80359	0	
2.2927	-14.4146	1.82398	0	
2.2933	-9.55836	0.621813	0	
2.2940	-4.04689	1.20217	0	
2.2947	-4.35522	0.290179	0	
2.2953	-4.35522	-2.4458	0	
2.2960	6.93752	-6.09377	0	
2.2967	21.8917	-8.24938	0	
2.2973	29.523	-8.24938	0	
2.2980	32.8762	-7.62757	0	
2.2987	34.4178	-6.71558	0	
2.2993	30.448	-6.09377	0	
2.3000	26.7865	-6.71558	0	
2.3007	25.5532	-7.62757	0	
2.3013	20.3501	-4.89159	0	
2.3020	13.6438	-1.24363	0	
2.3027	11.2157	-1.53381	0	
2.3033	7.24586	-1.82398	0	
2.3040	0.847919	1.53381	0	
2.3047	-2.23542	3.35779	0	
2.3053	-6.47502	3.02616	0	
2.3060	-18.0761	6.09377	0	
2.3067	-29.9855	10.6537	0	
2.3073	-36.3835	11.6072	0	
2.3080	-39.4668	12.5192	0	
2.3087	-37.9251	15.877	0	
2.3093	-33.647	15.877	0	
2.3100	-32.1439	10.0734	0	
2.3107	-29.6772	7.00576	0	
2.3113	-23.8959	7.91775	0	
2.3120	-17.4594	7.91775	0	
2.3127	-11.9865	5.18177	0	
2.3133	-8.9417	2.73598	0	
2.3140	-9.55836	0.911992	0	
2.3147	-8.01669	0.621813	0	
2.3153	-1.31042	0.621813	0	
2.3160	8.78753	-2.15562	0	
2.3167	19.7719	-6.09377	0	
2.3173	28.598	-7.33739	0	
2.3180	33.4928	-7.33739	0	
2.3187	33.4928	-9.45156	0	
2.3193	29.2147	-10.0734	0	
2.3200	24.6282	-7.62757	0	
2.3207	22.8167	-4.89159	0	
2.3213	20.0417	-3.68942	0	
2.3220	14.2605	-2.73598	0	
2.3227	8.78753	-1.82398	0	
2.3233	5.70419	0	0	
2.3240	3.27605	1.20217	0	
2.3247	1.42605	2.11416	0	
2.3253	-3.12189	5.18177	0	
2.3260	-13.2198	9.16138	0	
2.3267	-24.2042	12.1875	0	
2.3273	-32.4136	14.965	0	
2.3280	-37.0001	15.877	0	
2.3287	-35.8053	13.4312	0	
2.3293	-31.5272	10.9854	0	
2.3300	-28.7522	10.3635	0	
2.3307	-25.7074	8.82974	0	
2.3313	-18.0761	6.09377	0	
2.3320	-11.9865	3.9796	0	
2.3327	-8.01669	3.02616	0	
2.3333	-4.97189	2.73598	0	
2.3340	-4.04689	3.02616	0	
2.3347	-2.23542	3.35779	0	
2.3353	3.89272	-0.331634	0	
2.3360	13.3355	-5.80359	0	
2.3367	25.8615	-8.53956	0	
2.3373	35.921	-7.62757	0	
2.3380	36.846	-7.04721	0	
2.3387	35.3043	-6.09377	0	
2.3393	35.3043	-5.18177	0	
2.3400	30.7564	-6.09377	0	
2.3407	24.0115	-5.51341	0	
2.3413	20.6584	-3.06761	0	
2.3420	17.6136	-2.15562	0	
2.3427	12.449	-1.53381	0	
2.3433	7.86253	0	0	
2.3440	4.20106	-0.331634	0	
2.3447	2.65938	0.621813	0	
2.3453	0.539585	4.26978	0	
2.3460	-11.0615	5.18177	0	
2.3467	-26.0157	5.80359	0	
2.3473	-33.647	10.3635	0	
2.3480	-36.0751	12.1875	0	
2.3487	-37.3085	8.82974	0	
2.3493	-37.0001	7.29594	0	
2.3500	-33.0303	7.29594	0	
2.3507	-26.9407	5.80359	0	
2.3513	-20.8511	6.09377	0	
2.3520	-16.8813	6.09377	0	
2.3527	-13.5282	4.26978	0	
2.3533	-8.9417	3.35779	0	
2.3540	-6.16669	3.35779	0	
2.3547	-5.58856	0.621813	0	
2.3553	-0.385418	-1.82398	0	
2.3560	10.2907	-2.15562	0	
2.3567	21.8917	-3.68942	0	
2.3573	29.8313	-7.62757	0	
2.3580	34.7262	-10.6952	0	
2.3587	34.9959	-10.6952	0	
2.3593	30.1397	-8.24938	0	
2.3600	25.2449	-6.09377	0	
2.3607	21.5834	-3.35779	0	
2.3613	16.1105	1.82398	0	
2.3620	12.7188	5.18177	0	
2.3627	11.8323	7.00576	0	
2.3633	6.93752	9.74174	0	
2.3640	0.847919	7.91775	0	
2.3647	-0.385418	-1.53381	0	
2.3653	-5.28023	-5.80359	0	
2.3660	-18.0761	-1.24363	0	
2.3667	-29.6772	4.55996	0	
2.3673	-34.2637	7.91775	0	
2.3680	-36.0751	8.82974	0	
2.3687	-37.3085	8.53956	0	
2.3693	-34.8803	7.62757	0	
2.3700	-29.6772	7.00576	0	
2.3707	-24.7824	5.80359	0	
2.3713	-21.4292	4.89159	0	
2.3720	-18.6928	5.18177	0	
2.3727	-15.648	3.64797	0	
2.3733	-10.4448	0.621813	0	
2.3740	-4.66356	-0.331634	0	
2.3747	-3.12189	1.20217	0	
2.3753	-0.385418	-0.911992	0	
2.3760	9.98232	-4.60142	0	
2.3767	23.4334	-6.09377	0	
2.3773	29.8313	-7.33739	0	
2.3780	32.8762	-8.53956	0	
2.3787	34.1095	-6.71558	0	
2.3793	29.523	-5.80359	0	
2.3800	24.3199	-5.80359	0	
2.3807	21.5834	-3.68942	0	
2.3813	16.1105	-1.82398	0	
2.3820	10.599	-1.24363	0	
2.3827	7.55419	-0.621813	0	
2.3833	2.35105	-1.24363	0	
2.3840	-1.61876	-2.15562	0	
2.3847	-1.00209	0.290179	0	
2.3853	-4.97189	4.55996	0	
2.3860	-15.9563	7.00576	0	
2.3867	-25.0907	7.91775	0	
2.3873	-31.5272	10.3635	0	
2.3880	-37.0001	12.8093	0	
2.3887	-37.0001	13.7213	0	
2.3893	-31.8355	12.5192	0	
2.3900	-28.7522	10.3635	0	
2.3907	-26.324	8.82974	0	
2.3913	-19.6178	6.71558	0	
2.3920	-13.2198	4.55996	0	
2.3927	-10.4448	4.55996	0	
2.3933	-7.70836	6.09377	0	
2.3940	-3.73855	4.55996	0	
2.3947	-2.50522	1.82398	0	
2.3953	1.15625	1.20217	0	
2.3960	12.449	-0.911992	0	
2.3967	25.2449	-4.89159	0	
2.3973	32.2595	-5.51341	0	
2.3980	35.6126	-3.9796	0	
2.3987	38.6574	-5.80359	0	
2.3993	35.3043	-6.09377	0	
2.4000	26.1699	-3.68942	0	
2.4007	21.2751	-3.35779	0	
2.4013	19.7719	-3.9796	0	
2.4020	13.9521	-3.35779	0	
2.4027	6.01252	-3.68942	0	
2.4033	4.20106	-3.68942	0	
2.4040	3.58439	-1.82398	0	
2.4047	-0.385418	-1.53381	0	
2.4053	-5.89689	-0.911992	0	
2.4060	-15.3396	3.64797	0	
2.4067	-27.5574	7.62757	0	
2.4073	-34.572	7.91775	0	
2.4080	-35.8053	7.91775	0	
2.4087	-37.9251	9.74174	0	
2.4093	-37.9251	9.45156	0	
2.4100	-31.5272	6.38395	0	
2.4107	-26.0157	3.9796	0	
2.4113	-25.7074	3.9796	0	
2.4120	-23.8959	2.11416	0	
2.4127	-15.9563	-1.82398	0	
2.4133	-8.63336	-2.4458	0	
2.4140	-5.89689	-2.15562	0	
2.4147	-3.73855	-3.35779	0	
2.4153	1.42605	-3.68942	0	
2.4160	11.2157	-4.26978	0	
2.4167	22.8167	-8.24938	0	
2.4173	29.8313	-10.6952	0	
2.4180	31.6428	-10.6952	0	
2.4187	34.1095	-11.6072	0	
2.4193	33.4928	-10.6952	0	
2.4200	27.9813	-8.53956	0	
2.4207	23.4334	-9.16138	0	
2.4213	20.0417	-7.62757	0	
2.4220	14.8771	-3.06761	0	
2.4227	9.36566	-0.331634	0	
2.4233	2.65938	0.290179	0	
2.4240	-3.12189	0.621813	0	
2.4247	-3.43022	-0.331634	0	
2.4253	-4.97189	0	0	
2.4260	-14.1063	3.9796	0	
2.4267	-25.0907	7.00576	0	
2.4273	-33.647	9.74174	0	
2.4280	-38.2335	12.8093	0	
2.4287	-36.3835	12.5192	0	
2.4293	-32.4136	10.6537	0	
2.4300	-30.2938	10.6537	0	
2.4307	-25.0907	8.53956	0	
2.4313	-17.7678	3.9796	0	
2.4320	-13.2198	3.35779	0	
2.4327	-9.55836	5.80359	0	
2.4333	-5.58856	4.55996	0	
2.4340	-3.43022	2.11416	0	
2.4347	-3.12189	1.53381	0	
2.4353	1.42605	0	0	
2.4360	12.449	-1.82398	0	
2.4367	25.2449	-4.89159	0	
2.4373	32.5678	-11.317	0	
2.4380	34.4178	-13.141	0	
2.4387	35.3043	-8.8712	0	
2.4393	33.1845	-4.89159	0	
2.4400	26.7865	-4.89159	0	
2.4407	21.5834	-4.89159	0	
2.4413	18.8469	-4.89159	0	
2.4420	14.2605	-4.89159	0	
2.4427	10.599	-2.73598	0	
2.4433	9.05732	0.290179	0	
2.4440	5.08752	1.82398	0	
2.4447	0.539585	2.4458	0	
2.4453	-3.12189	5.18177	0	
2.4460	-10.4448	9.74174	0	
2.4467	-22.3542	12.5192	0	
2.4473	-29.6772	12.8093	0	
2.4480	-31.8355	13.4312	0	
2.4487	-32.722	14.3432	0	
2.4493	-31.2189	13.7213	0	
2.4500	-28.1741	10.3635	0	
2.4507	-24.7824	7.00576	0	
2.4513	-18.3844	5.47195	0	
2.4520	-11.3698	3.35779	0	
2.4527	-7.40002	1.20217	0	
2.4533	-5.28023	0.621813	0	
2.4540	-3.73855	1.82398	0	
2.4547	-1.00209	1.53381	0	
2.4553	4.81772	-1.24363	0	
2.4560	13.9521	-4.89159	0	
2.4567	25.2449	-6.71558	0	
2.4573	34.4178	-5.51341	0	
2.4580	37.4626	-6.71558	0	
2.4587	36.846	-9.45156	0	
2.4593	36.846	-6.71558	0	
2.4600	33.4928	-2.4458	0	
2.4607	26.1699	-3.06761	0	
2.4613	20.6584	-3.35779	0	
2.4620	16.1105	-0.331634	0	
2.4627	11.524	2.73598	0	
2.4633	8.17086	5.18177	0	
2.4640	6.62919	7.00576	0	
2.4647	3.58439	7.29594	0	
2.4653	-3.12189	8.24938	0	
2.4660	-12.2948	10.0734	0	
2.4667	-22.0459	9.16138	0	
2.4673	-29.0605	7.29594	0	
2.4680	-32.722	7.00576	0	
2.4687	-32.722	7.00576	0	
2.4693	-30.6022	7.62757	0	
2.4700	-26.9407	8.53956	0	
2.4707	-22.0459	7.62757	0	
2.4713	-17.4594	7.62757	0	
2.4720	-14.723	7.62757	0	
2.4727	-12.2948	3.9796	0	
2.4733	-9.25003	-0.331634	0	
2.4740	-5.58856	-0.621813	0	
2.4747	-3.43022	-1.53381	0	
2.4753	0.231251	-3.9796	0	
2.4760	11.524	-5.80359	0	
2.4767	24.9365	-8.24938	0	
2.4773	32.2595	-10.6952	0	
2.4780	34.7262	-11.6072	0	
2.4787	35.3043	-10.3635	0	
2.4793	33.4928	-10.3635	0	
2.4800	30.7564	-10.3635	0	
2.4807	25.2449	-9.45156	0	
2.4813	17.6136	-5.80359	0	
2.4820	12.1407	-2.73598	0	
2.4827	8.17086	-2.4458	0	
2.4833	4.20106	-1.82398	0	
2.4840	2.65938	1.82398	0	
2.4847	0.847919	3.9796	0	
2.4853	-5.89689	2.11416	0	
2.4860	-14.1063	1.20217	0	
2.4867	-23.2792	4.55996	0	
2.4873	-31.5272	9.16138	0	
2.4880	-34.572	11.2755	0	
2.4887	-33.9553	12.1875	0	
2.4893	-31.8355	12.1875	0	
2.4900	-26.6324	10.6537	0	
2.4907	-20.8511	9.16138	0	
2.4913	-17.1896	8.24938	0	
2.4920	-12.6032	7.62757	0	
2.4927	-7.70836	8.82974	0	
2.4933	-4.97189	6.38395	0	
2.4940	-2.23542	0.621813	0	
2.4947	-0.385418	3.35779	0	
2.4953	3.27605	9.16138	0	
2.4960	15.1855	3.9796	0	
2.4967	27.4032	-5.51341	0	
2.4973	30.448	-7.04721	0	
2.4980	31.3345	-6.09377	0	
2.4987	32.5678	-7.33739	0	
2.4993	29.2147	-7.9592	0	
2.5000	24.9365	-6.71558	0	
2.5007	22.8167	-4.89159	0	
2.5013	16.9969	-7.04721	0	
2.5020	9.98232	-8.53956	0	
2.5027	6.01252	-3.9796	0	
2.5033	3.89272	0.290179	0	
2.5040	2.35105	1.53381	0	
2.5047	0.539585	6.09377	0	
2.5053	-4.97189	8.82974	0	
2.5060	-13.2198	7.62757	0	
2.5067	-24.2042	11.2755	0	
2.5073	-36.0751	16.1671	0	
2.5080	-40.0449	14.3432	0	
2.5087	-35.497	10.9854	0	
2.5093	-32.1439	9.74174	0	
2.5100	-30.6022	7.00576	0	
2.5107	-26.9407	6.09377	0	
2.5113	-22.0459	5.18177	0	
2.5120	-16.8813	2.4458	0	
2.5127	-12.2948	2.73598	0	
2.5133	-9.55836	3.64797	0	
2.5140	-6.47502	1.53381	0	
2.5147	-1.61876	0.621813	0	
2.5153	2.65938	0.911992	0	
2.5160	9.67399	-1.82398	0	
2.5167	20.3501	-4.89159	0	
2.5173	29.523	-6.71558	0	
2.5180	34.9959	-8.53956	0	
2.5187	36.5376	-7.9592	0	
2.5193	33.8012	-5.18177	0	
2.5200	28.9063	-5.51341	0	
2.5207	25.2449	-5.80359	0	
2.5213	19.4636	-4.89159	0	
2.5220	12.449	-6.71558	0	
2.5227	9.36566	-4.89159	0	
2.5233	7.55419	2.11416	0	
2.5240	2.35105	3.35779	0	
2.5247	-1.00209	-2.15562	0	
2.5253	-3.12189	0.621813	0	
2.5260	-11.6782	7.00576	0	
2.5267	-25.7074	6.71558	0	
2.5273	-35.497	6.09377	0	
2.5280	-38.5418	10.6537	0	
2.5287	-37.9251	12.1875	0	
2.5293	-33.647	9.74174	0	
2.5300	-26.9407	8.82974	0	
2.5307	-21.7376	7.29594	0	
2.5313	-19.3094	5.80359	0	
2.5320	-16.573	5.18177	0	
2.5327	-13.2198	3.35779	0	
2.5333	-8.9417	-0.621813	0	
2.5340	-4.04689	-2.4458	0	
2.5347	-1.92709	-2.15562	0	
2.5353	1.15625	-2.73598	0	
2.5360	12.1407	-6.09377	0	
2.5367	26.4782	-10.3635	0	
2.5373	33.1845	-11.317	0	
2.5380	34.4178	-9.45156	0	
2.5387	34.7262	-7.33739	0	
2.5393	31.0647	-6.71558	0	
2.5400	24.3199	-7.04721	0	
2.5407	20.6584	-4.26978	0	
2.5413	17.3053	-0.331634	0	
2.5420	13.0271	0.621813	0	
2.5427	9.67399	-0.331634	0	
2.5433	5.08752	1.82398	0	
2.5440	-0.385418	2.4458	0	
2.5447	-3.12189	-0.331634	0	
2.5453	-5.89689	0.911992	0	
2.5460	-15.9563	7.00576	0	
2.5467	-28.1741	9.16138	0	
2.5473	-35.1887	7.91775	0	
2.5480	-38.2335	9.16138	0	
2.5487	-39.7366	10.9854	0	
2.5493	-37.0001	8.24938	0	
2.5500	-30.9105	4.89159	0	
2.5507	-25.7074	5.18177	0	
2.5513	-22.0459	4.55996	0	
2.5520	-18.0761	2.73598	0	
2.5527	-14.4146	1.82398	0	
2.5533	-11.9865	0.621813	0	
2.5540	-8.63336	-1.24363	0	
2.5547	-3.73855	0	0	
2.5553	3.27605	0.290179	0	
2.5560	13.6438	-3.9796	0	
2.5567	26.1699	-8.8712	0	
2.5573	35.3043	-9.45156	0	
2.5580	38.0793	-9.16138	0	
2.5587	35.3043	-8.8712	0	
2.5593	29.8313	-7.33739	0	
2.5600	26.1699	-6.71558	0	
2.5607	23.1251	-6.09377	0	
2.5613	17.9219	-3.06761	0	
2.5620	12.7188	0.290179	0	
2.5627	9.36566	0.621813	0	
2.5633	4.20106	0.621813	0	
2.5640	1.15625	1.20217	0	
2.5647	1.15625	2.4458	0	
2.5653	-3.43022	5.47195	0	
2.5660	-14.723	8.53956	0	
2.5667	-25.399	10.0734	0	
2.5673	-32.722	13.0995	0	
2.5680	-37.6168	13.7213	0	
2.5687	-37.0001	9.16138	0	
2.5693	-32.1439	6.38395	0	
2.5700	-29.0605	8.24938	0	
2.5707	-27.5574	9.74174	0	
2.5713	-21.7376	9.74174	0	
2.5720	-14.1063	8.82974	0	
2.5727	-12.2948	5.80359	0	
2.5733	-11.9865	3.64797	0	
2.5740	-5.89689	2.4458	0	
2.5747	-0.385418	-1.24363	0	
2.5753	2.35105	-3.35779	0	
2.5760	12.449	-5.18177	0	
2.5767	25.5532	-8.53956	0	
2.5773	31.3345	-10.0734	0	
2.5780	32.8762	-10.0734	0	
2.5787	34.7262	-13.4312	0	
2.5793	34.1095	-15.2551	0	
2.5800	29.8313	-13.141	0	
2.5807	24.3199	-12.5192	0	
2.5813	18.5386	-10.3635	0	
2.5820	14.2605	-4.60142	0	
2.5827	10.2907	-0.621813	0	
2.5833	4.50939	0.621813	0	
2.5840	1.15625	2.4458	0	
2.5847	-0.385418	3.9796	0	
2.5853	-4.04689	6.09377	0	
2.5860	-14.4146	11.2755	0	
2.5867	-28.7522	16.1671	0	
2.5873	-37.0001	16.7889	0	
2.5880	-35.8053	12.5192	0	
2.5887	-34.8803	6.09377	0	
2.5893	-36.0751	1.53381	0	
2.5900	-31.5272	3.35779	0	
2.5907	-26.0157	7.91775	0	
2.5913	-22.6626	9.16138	0	
2.5920	-16.8813	7.62757	0	
2.5927	-11.3698	4.55996	0	
2.5933	-8.9417	0.621813	0	
2.5940	-5.58856	0	0	
2.5947	-2.81355	2.4458	0	
2.5953	1.73438	1.53381	0	
2.5960	14.2605	-3.06761	0	
2.5967	26.7865	-5.51341	0	
2.5973	31.9511	-6.4254	0	
2.5980	36.2293	-9.45156	0	
2.5987	38.9658	-9.78319	0	
2.5993	35.6126	-7.33739	0	
2.6000	29.523	-5.80359	0	
2.6007	22.8167	-6.09377	0	
2.6013	16.6886	-4.60142	0	
2.6020	14.2605	-2.15562	0	
2.6027	12.1407	-1.24363	0	
2.6033	6.01252	-0.331634	0	
2.6040	0.539585	1.82398	0	
2.6047	-1.00209	4.26978	0	
2.6053	-4.66356	5.18177	0	
2.6060	-13.2198	7.00576	0	
2.6067	-25.0907	10.6537	0	
2.6073	-33.3387	12.5192	0	
2.6080	-35.497	12.5192	0	
2.6087	-33.3387	11.6072	0	
2.6093	-31.5272	10.0734	0	
2.6100	-29.6772	8.82974	0	
2.6107	-26.9407	7.91775	0	
2.6113	-19.9261	7.29594	0	
2.6120	-14.723	7.00576	0	
2.6127	-13.5282	7.00576	0	
2.6133	-9.82816	5.18177	0	
2.6140	-3.12189	1.53381	0	
2.6147	-1.00209	-0.621813	0	
2.6153	1.42605	0.621813	0	
2.6160	11.2157	-0.331634	0	
2.6167	24.3199	-5.80359	0	
2.6173	31.6428	-9.45156	0	
2.6180	34.4178	-8.24938	0	
2.6187	34.7262	-6.09377	0	
2.6193	33.1845	-4.89159	0	
2.6200	29.523	-3.06761	0	
2.6207	23.4334	-2.15562	0	
2.6213	15.1855	-2.15562	0	
2.6220	7.55419	-2.4458	0	
2.6227	4.20106	-1.24363	0	
2.6233	2.35105	0.621813	0	
2.6240	-0.693752	0.621813	0	
2.6247	-4.04689	1.53381	0	
2.6253	-7.70836	3.35779	0	
2.6260	-17.7678	4.89159	0	
2.6267	-29.6772	8.82974	0	
2.6273	-35.8053	14.0115	0	
2.6280	-38.2335	14.3432	0	
2.6287	-37.9251	11.8974	0	
2.6293	-34.572	10.3635	0	
2.6300	-32.4136	8.24938	0	
2.6307	-29.0605	6.09377	0	
2.6313	-19.9261	4.55996	0	
2.6320	-13.2198	2.73598	0	
2.6327	-11.0615	3.02616	0	
2.6333	-6.47502	3.64797	0	
2.6340	-2.23542	0.621813	0	
2.6347	-3.73855	-3.06761	0	
2.6353	-1.31042	-4.60142	0	
2.6360	10.2907	-6.09377	0	
2.6367	22.8167	-8.53956	0	
2.6373	30.7564	-10.0734	0	
2.6380	34.4178	-11.317	0	
2.6387	34.4178	-12.229	0	
2.6393	32.5678	-9.78319	0	
2.6400	26.4782	-5.80359	0	
2.6407	19.7719	-6.09377	0	
2.6413	15.8021	-6.71558	0	
2.6420	12.7188	-3.35779	0	
2.6427	8.17086	-0.331634	0	
2.6433	5.39585	-1.24363	0	
2.6440	2.96772	-1.82398	0	
2.6447	-2.23542	0	0	
2.6453	-8.9417	2.4458	0	
2.6460	-17.7678	6.71558	0	
2.6467	-28.7522	10.6537	0	
2.6473	-35.1887	12.1875	0	
2.6480	-35.8053	13.0995	0	
2.6487	-35.1887	11.6072	0	
2.6493	-33.647	7.00576	0	
2.6500	-30.6022	6.71558	0	
2.6507	-25.399	9.74174	0	
2.6513	-19.0011	8.53956	0	
2.6520	-14.4146	6.38395	0	
2.6527	-12.6032	6.71558	0	
2.6533	-8.63336	4.89159	0	
2.6540	-4.04689	1.82398	0	
2.6547	-4.04689	0.290179	0	
2.6553	-0.693752	-0.911992	0	
2.6560	10.599	-2.15562	0	
2.6567	23.1251	-3.9796	0	
2.6573	29.8313	-7.62757	0	
2.6580	32.5678	-9.45156	0	
2.6587	32.5678	-7.62757	0	
2.6593	30.7564	-6.71558	0	
2.6600	27.9813	-8.24938	0	
2.6607	23.7032	-9.78319	0	
2.6613	18.2303	-10.3635	0	
2.6620	13.0271	-8.53956	0	
2.6627	8.78753	-3.06761	0	
2.6633	4.81772	1.20217	0	
2.6640	0.847919	0.911992	0	
2.6647	-0.385418	0.911992	0	
2.6653	-4.04689	4.89159	0	
2.6660	-15.0313	7.91775	0	
2.6667	-28.7522	9.16138	0	
2.6673	-37.3085	11.2755	0	
2.6680	-39.7366	12.8093	0	
2.6687	-37.9251	12.1875	0	
2.6693	-33.3387	10.9854	0	
2.6700	-29.0605	8.82974	0	
2.6707	-25.399	6.09377	0	
2.6713	-20.2344	5.18177	0	
2.6720	-14.723	7.00576	0	
2.6727	-11.3698	8.53956	0	
2.6733	-9.55836	7.29594	0	
2.6740	-5.89689	4.89159	0	
2.6747	-1.61876	3.35779	0	
2.6753	2.35105	1.53381	0	
2.6760	11.8323	-3.06761	0	
2.6767	24.6282	-9.45156	0	
2.6773	32.8762	-12.229	0	
2.6780	37.771	-11.6072	0	
2.6787	39.8908	-12.229	0	
2.6793	34.7262	-13.141	0	
2.6800	27.9813	-9.45156	0	
2.6807	25.8615	-3.9796	0	
2.6813	22.5084	-2.73598	0	
2.6820	17.3053	-4.26978	0	
2.6827	14.2605	-2.4458	0	
2.6833	6.93752	-1.24363	0	
2.6840	0.539585	-1.82398	0	
2.6847	2.35105	1.53381	0	
2.6853	1.42605	6.09377	0	
2.6860	-12.2948	6.09377	0	
2.6867	-26.0157	8.24938	0	
2.6873	-31.5272	12.8093	0	
2.6880	-35.497	12.1875	0	
2.6887	-39.7366	8.82974	0	
2.6893	-37.0001	8.24938	0	
2.6900	-29.3688	8.82974	0	
2.6907	-24.2042	7.29594	0	
2.6913	-19.6178	5.18177	0	
2.6920	-12.9115	2.73598	0	
2.6927	-8.32503	2.11416	0	
2.6933	-6.47502	2.4458	0	
2.6940	-3.12189	1.20217	0	
2.6947	2.35105	0.621813	0	
2.6953	7.86253	-1.24363	0	
2.6960	14.8771	-6.71558	0	
2.6967	23.1251	-10.0734	0	
2.6973	30.7564	-7.04721	0	
2.6980	35.3043	-5.80359	0	
2.6987	34.4178	-7.62757	0	
2.6993	30.7564	-5.80359	0	
2.7000	27.0949	-2.4458	0	
2.7007	22.2001	-3.9796	0	
2.7013	15.8021	-7.04721	0	
2.7020	11.524	-9.16138	0	
2.7027	9.67399	-9.16138	0	
2.7033	6.93752	-4.89159	0	
2.7040	4.50939	0	0	
2.7047	2.04272	1.82398	0	
2.7053	-3.73855	2.73598	0	
2.7060	-12.2948	5.47195	0	
2.7067	-21.4292	7.29594	0	
2.7073	-29.9855	8.53956	0	
2.7080	-36.3835	10.3635	0	
2.7087	-37.0001	11.6072	0	
2.7093	-32.4136	11.8974	0	
2.7100	-26.9407	11.6072	0	
2.7107	-21.1209	9.74174	0	
2.7113	-15.648	7.29594	0	
2.7120	-13.2198	5.80359	0	
2.7127	-10.7532	4.26978	0	
2.7133	-3.12189	2.11416	0	
2.7140	2.35105	0	0	
2.7147	1.15625	-1.24363	0	
2.7153	2.96772	-1.53381	0	
2.7160	16.1105	-2.4458	0	
2.7167	28.9063	-6.71558	0	
2.7173	34.4178	-10.3635	0	
2.7180	36.2293	-9.45156	0	
2.7187	36.2293	-7.33739	0	
2.7193	33.4928	-6.71558	0	
2.7200	30.7564	-7.33739	0	
2.7207	26.4782	-7.04721	0	
2.7213	20.0417	-5.51341	0	
2.7220	15.1855	-3.9796	0	
2.7227	12.1407	-2.4458	0	
2.7233	6.93752	1.20217	0	
2.7240	2.35105	4.55996	0	
2.7247	0.539585	4.26978	0	
2.7253	-3.73855	3.64797	0	
2.7260	-15.0313	7.29594	0	
2.7267	-28.4438	10.6537	0	
2.7273	-37.0001	10.0734	0	
2.7280	-39.4668	9.45156	0	
2.7287	-37.6168	11.2755	0	
2.7293	-33.0303	10.9854	0	
2.7300	-30.6022	7.00576	0	
2.7307	-29.0605	4.26978	0	
2.7313	-22.3542	1.53381	0	
2.7320	-13.5282	-0.621813	0	
2.7327	-10.7532	0.621813	0	
2.7333	-10.7532	1.53381	0	
2.7340	-6.78336	-0.331634	0	
2.7347	-1.61876	3.02616	0	
2.7353	4.20106	4.89159	0	
2.7360	15.1855	-1.82398	0	
2.7367	27.673	-6.71558	0	
2.7373	35.3043	-5.80359	0	
2.7380	37.4626	-7.9592	0	
2.7387	35.3043	-9.16138	0	
2.7393	32.2595	-4.26978	0	
2.7400	29.8313	-1.24363	0	
2.7407	22.5084	-2.73598	0	
2.7413	13.0271	-4.26978	0	
2.7420	11.8323	-2.73598	0	
2.7427	13.3355	1.20217	0	
2.7433	6.93752	2.73598	0	
2.7440	1.42605	0	0	
2.7447	0.539585	0	0	
2.7453	-5.58856	4.26978	0	
2.7460	-17.4594	7.00576	0	
2.7467	-27.249	9.74174	0	
2.7473	-33.9553	10.9854	0	
2.7480	-37.9251	7.62757	0	
2.7487	-37.6168	5.47195	0	
2.7493	-33.3387	7.29594	0	
2.7500	-28.7522	7.00576	0	
2.7507	-25.399	6.09377	0	
2.7513	-21.7376	7.91775	0	
2.7520	-17.1896	6.38395	0	
2.7527	-12.9115	3.02616	0	
2.7533	-9.82816	2.4458	0	
2.7540	-6.47502	1.82398	0	
2.7547	-1.92709	-0.331634	0	
2.7553	3.58439	-3.06761	0	
2.7560	12.449	-4.89159	0	
2.7567	25.2449	-5.80359	0	
2.7573	35.3043	-6.4254	0	
2.7580	37.1543	-8.24938	0	
2.7587	34.9959	-7.62757	0	
2.7593	32.5678	-4.89159	0	
2.7600	27.9813	-4.26978	0	
2.7607	21.5834	-4.89159	0	
2.7613	16.6886	-3.06761	0	
2.7620	12.449	-0.911992	0	
2.7627	7.86253	0.911992	0	
2.7633	4.50939	4.26978	0	
2.7640	2.96772	5.80359	0	
2.7647	0.847919	5.18177	0	
2.7653	-4.97189	5.80359	0	
2.7660	-15.3396	9.74174	0	
2.7667	-27.249	13.4312	0	
2.7673	-35.497	12.8093	0	
2.7680	-37.0001	11.6072	0	
2.7687	-35.1887	13.4312	0	
2.7693	-33.3387	14.3432	0	
2.7700	-29.6772	10.6537	0	
2.7707	-24.2042	8.53956	0	
2.7713	-19.0011	8.82974	0	
2.7720	-16.2646	6.71558	0	
2.7727	-14.4146	3.64797	0	
2.7733	-10.1365	3.02616	0	
2.7740	-4.04689	1.82398	0	
2.7747	-1.61876	0.621813	0	
2.7753	-0.385418	-0.331634	0	
2.7760	9.67399	-2.15562	0	
2.7767	25.2449	-5.80359	0	
2.7773	32.8762	-8.8712	0	
2.7780	34.4178	-10.3635	0	
2.7787	34.7262	-7.62757	0	
2.7793	31.6428	-4.26978	0	
2.7800	27.0949	-4.60142	0	
2.7807	23.1251	-5.51341	0	
2.7813	17.3053	-3.68942	0	
2.7820	11.524	-1.53381	0	
2.7827	9.36566	0	0	
2.7833	6.93752	1.20217	0	
2.7840	3.27605	1.82398	0	
2.7847	2.35105	1.53381	0	
2.7853	-2.23542	2.11416	0	
2.7860	-15.9563	4.55996	0	
2.7867	-28.4438	6.38395	0	
2.7873	-33.3387	9.16138	0	
2.7880	-35.1887	13.0995	0	
2.7887	-35.8053	11.6072	0	
2.7893	-32.1439	6.09377	0	
2.7900	-27.249	5.18177	0	
2.7907	-24.2042	6.71558	0	
2.7913	-19.6178	7.00576	0	
2.7920	-13.5282	6.09377	0	
2.7927	-11.0615	2.11416	0	
2.7933	-8.63336	-2.15562	0	
2.7940	-3.43022	-2.15562	0	
2.7947	-0.385418	-2.4458	0	
2.7953	2.96772	-3.9796	0	
2.7960	13.6438	-1.53381	0	
2.7967	25.5532	-2.4458	0	
2.7973	31.6428	-9.45156	0	
2.7980	35.921	-11.317	0	
2.7987	38.3876	-9.45156	0	
2.7993	34.7262	-9.45156	0	
2.8000	27.9813	-6.71558	0	
2.8007	22.5084	-3.06761	0	
2.8013	16.9969	-2.15562	0	
2.8020	12.449	-1.24363	0	
2.8027	9.36566	-1.53381	0	
2.8033	6.62919	-3.9796	0	
2.8040	3.27605	-2.15562	0	
2.8047	-0.693752	2.73598	0	
2.8053	-5.89689	3.35779	0	
2.8060	-13.798	4.89159	0	
2.8067	-25.399	11.8974	0	
2.8073	-34.8803	16.4573	0	
2.8080	-37.9251	14.3432	0	
2.8087	-37.0001	11.2755	0	
2.8093	-34.2637	9.74174	0	
2.8100	-29.6772	8.82974	0	
2.8107	-25.399	6.38395	0	
2.8113	-19.6178	1.53381	0	
2.8120	-14.1063	-0.331634	0	
2.8127	-12.2948	1.53381	0	
2.8133	-10.1365	0.621813	0	
2.8140	-4.66356	-2.15562	0	
2.8147	-1.61876	-1.24363	0	
2.8153	0.539585	-0.621813	0	
2.8160	9.98232	-5.51341	0	
2.8167	24.6282	-8.53956	0	
2.8173	31.6428	-7.62757	0	
2.8180	29.8313	-8.53956	0	
2.8187	27.673	-8.53956	0	
2.8193	26.4782	-5.18177	0	
2.8200	23.1251	-3.9796	0	
2.8207	20.0417	-5.80359	0	
2.8213	16.9969	-4.89159	0	
2.8220	9.67399	-2.4458	0	
2.8227	4.81772	0	0	
2.8233	4.81772	2.11416	0	
2.8240	2.35105	0.621813	0	
2.8247	-2.23542	-1.24363	0	
2.8253	-5.28023	1.53381	0	
2.8260	-15.0313	5.47195	0	
2.8267	-28.7522	5.47195	0	
2.8273	-34.8803	7.00576	0	
2.8280	-36.3835	11.8974	0	
2.8287	-38.2335	13.4312	0	
2.8293	-35.497	10.3635	0	
2.8300	-30.6022	10.3635	0	
2.8307	-26.0157	13.4312	0	
2.8313	-19.6178	13.0995	0	
2.8320	-14.4146	10.9854	0	
2.8327	-11.0615	8.82974	0	
2.8333	-7.70836	5.18177	0	
2.8340	-5.89689	0	0	
2.8347	-4.04689	-4.26978	0	
2.8353	3.89272	-9.16138	0	
2.8360	14.5688	-10.9854	0	
2.8367	23.7032	-8.53956	0	
2.8373	32.5678	-7.62757	0	
2.8380	35.6126	-10.6952	0	
2.8387	31.6428	-11.6072	0	
2.8393	27.9813	-8.8712	0	
2.8400	25.5532	-7.33739	0	
2.8407	18.8469	-7.04721	0	
2.8413	11.524	-4.89159	0	
2.8420	9.67399	-2.4458	0	
2.8427	8.78753	-1.82398	0	
2.8433	5.08752	1.20217	0	
2.8440	2.35105	5.18177	0	
2.8447	1.15625	4.26978	0	
2.8453	-3.12189	1.53381	0	
2.8460	-14.1063	4.89159	0	
2.8467	-27.5574	9.45156	0	
2.8473	-35.497	10.3635	0	
2.8480	-38.8501	11.8974	0	
2.8487	-39.1585	12.5192	0	
2.8493	-34.2637	9.74174	0	
2.8500	-27.5574	7.00576	0	
2.8507	-24.2042	6.09377	0	
2.8513	-20.8511	5.18177	0	
2.8520	-17.1896	5.18177	0	
2.8527	-14.1063	3.35779	0	
2.8533	-8.9417	-1.24363	0	
2.8540	-4.04689	-2.73598	0	
2.8547	-3.12189	-1.24363	0	
2.8553	1.42605	-0.911992	0	
2.8560	13.0271	-3.9796	0	
2.8567	23.4334	-8.8712	0	
2.8573	30.448	-10.6952	0	
2.8580	36.2293	-9.16138	0	
2.8587	36.2293	-9.45156	0	
2.8593	30.7564	-11.6072	0	
2.8600	25.2449	-10.0734	0	
2.8607	19.4636	-6.71558	0	
2.8613	14.5688	-3.9796	0	
2.8620	11.8323	-2.15562	0	
2.8627	8.78753	-2.73598	0	
2.8633	5.39585	-1.24363	0	
2.8640	4.81772	4.26978	0	
2.8647	2.65938	4.26978	0	
2.8653	-5.28023	2.4458	0	
2.8660	-16.8813	7.91775	0	
2.8667	-27.249	14.965	0	
2.8673	-33.9553	15.2551	0	
2.8680	-35.1887	14.3432	0	
2.8687	-32.722	13.4312	0	
2.8693	-29.9855	10.3635	0	
2.8700	-25.399	7.62757	0	
2.8707	-20.5428	4.55996	0	
2.8713	-19.3094	1.53381	0	
2.8720	-17.1896	1.82398	0	
2.8727	-10.4448	3.35779	0	
2.8733	-3.12189	1.20217	0	
2.8740	-0.693752	-0.911992	0	
2.8747	-0.385418	-1.24363	0	
2.8753	2.35105	-1.82398	0	
2.8760	13.0271	-3.9796	0	
2.8767	26.1699	-7.62757	0	
2.8773	33.4928	-11.317	0	
2.8780	35.3043	-10.3635	0	
2.8787	34.9959	-6.71558	0	
2.8793	31.6428	-3.9796	0	
2.8800	27.673	-3.06761	0	
2.8807	23.4334	-2.4458	0	
2.8813	17.9219	-1.53381	0	
2.8820	14.2605	0.911992	0	
2.8827	13.3355	2.4458	0	
2.8833	9.98232	2.73598	0	
2.8840	5.08752	5.80359	0	
2.8847	1.42605	8.82974	0	
2.8853	-2.50522	9.74174	0	
2.8860	-11.3698	11.8974	0	
2.8867	-24.2042	16.1671	0	
2.8873	-35.497	17.0791	0	
2.8880	-38.8501	15.2551	0	
2.8887	-36.3835	14.965	0	
2.8893	-33.0303	15.2551	0	
2.8900	-29.3688	12.8093	0	
2.8907	-24.5126	9.74174	0	
2.8913	-19.0011	8.82974	0	
2.8920	-15.9563	6.38395	0	
2.8927	-17.7678	1.53381	0	
2.8933	-17.7678	-0.621813	0	
2.8940	-11.9865	-0.331634	0	
2.8947	-6.47502	-1.82398	0	
2.8953	-0.0770836	-2.73598	0	
2.8960	12.7188	-3.9796	0	
2.8967	25.8615	-7.62757	0	
2.8973	31.6428	-9.16138	0	
2.8980	34.7262	-7.04721	0	
2.8987	35.6126	-6.09377	0	
2.8993	32.8762	-4.89159	0	
2.9000	28.9063	-2.4458	0	
2.9007	24.3199	-2.15562	0	
2.9013	18.8469	-1.82398	0	
2.9020	14.2605	0.621813	0	
2.9027	9.67399	2.4458	0	
2.9033	3.27605	3.02616	0	
2.9040	-1.31042	3.35779	0	
2.9047	-1.31042	1.82398	0	
2.9053	-4.66356	3.9796	0	
2.9060	-16.8813	9.45156	0	
2.9067	-28.4438	8.53956	0	
2.9073	-32.4136	4.26978	0	
2.9080	-35.1887	5.18177	0	
2.9087	-38.2335	5.47195	0	
2.9093	-34.572	1.82398	0	
2.9100	-28.1741	2.11416	0	
2.9107	-25.7074	4.26978	0	
2.9113	-21.7376	4.26978	0	
2.9120	-15.0313	4.26978	0	
2.9127	-11.3698	2.73598	0	
2.9133	-9.55836	-0.331634	0	
2.9140	-5.58856	-0.331634	0	
2.9147	-1.92709	-0.331634	0	
2.9153	2.35105	-2.73598	0	
2.9160	12.7188	-4.89159	0	
2.9167	26.1699	-7.33739	0	
2.9173	34.4178	-9.45156	0	
2.9180	37.771	-8.24938	0	
2.9187	37.771	-7.9592	0	
2.9193	33.4928	-10.9854	0	
2.9200	28.598	-9.78319	0	
2.9207	26.1699	-6.4254	0	
2.9213	21.8917	-6.71558	0	
2.9220	15.8021	-7.04721	0	
2.9227	12.449	-4.26978	0	
2.9233	10.9073	-3.06761	0	
2.9240	6.93752	-2.15562	0	
2.9247	2.35105	0.621813	0	
2.9253	-2.81355	2.73598	0	
2.9260	-12.2948	4.26978	0	
2.9267	-25.0907	6.71558	0	
2.9273	-34.2637	9.74174	0	
2.9280	-35.8053	11.6072	0	
2.9287	-34.572	12.5192	0	
2.9293	-33.3387	10.6537	0	
2.9300	-28.7522	6.71558	0	
2.9307	-21.4292	3.35779	0	
2.9313	-16.573	3.02616	0	
2.9320	-13.798	1.82398	0	
2.9327	-11.0615	0.621813	0	
2.9333	-8.9417	0	0	
2.9340	-7.40002	-0.621813	0	
2.9347	-4.35522	-3.06761	0	
2.9353	0.847919	-6.4254	0	
2.9360	11.524	-7.62757	0	
2.9367	24.9365	-7.33739	0	
2.9373	32.8762	-9.16138	0	
2.9380	37.1543	-12.5192	0	
2.9387	39.2741	-11.317	0	
2.9393	35.3043	-7.04721	0	
2.9400	29.2147	-7.04721	0	
2.9407	25.2449	-6.71558	0	
2.9413	20.6584	-2.15562	0	
2.9420	16.1105	-0.331634	0	
2.9427	12.7188	-0.621813	0	
2.9433	6.01252	0.621813	0	
2.9440	0.539585	-0.331634	0	
2.9447	-1.92709	-2.15562	0	
2.9453	-7.70836	1.53381	0	
2.9460	-18.6928	6.71558	0	
2.9467	-27.8657	7.91775	0	
2.9473	-34.572	9.16138	0	
2.9480	-37.9251	10.6537	0	
2.9487	-36.3835	9.45156	0	
2.9493	-34.572	7.29594	0	
2.9500	-32.4136	6.38395	0	
2.9507	-26.9407	4.26978	0	
2.9513	-21.4292	1.82398	0	
2.9520	-16.8813	3.02616	0	
2.9527	-12.2948	3.35779	0	
2.9533	-9.55836	-0.621813	0	
2.9540	-6.78336	-2.15562	0	
2.9547	-3.73855	-0.911992	0	
2.9553	1.15625	-3.06761	0	
2.9560	12.7188	-7.62757	0	
2.9567	27.673	-8.53956	0	
2.9573	32.5678	-7.33739	0	
2.9580	31.6428	-7.04721	0	
2.9587	33.8012	-7.62757	0	
2.9593	32.2595	-7.9592	0	
2.9600	26.1699	-7.9592	0	
2.9607	22.5084	-6.71558	0	
2.9613	18.5386	-4.89159	0	
2.9620	12.449	-2.15562	0	
2.9627	11.2157	2.73598	0	
2.9633	9.36566	5.18177	0	
2.9640	3.27605	5.47195	0	
2.9647	-0.385418	7.00576	0	
2.9653	-4.04689	9.74174	0	
2.9660	-15.0313	10.6537	0	
2.9667	-26.6324	10.6537	0	
2.9673	-34.2637	8.82974	0	
2.9680	-40.3533	5.80359	0	
2.9687	-39.7366	3.35779	0	
2.9693	-32.722	4.26978	0	
2.9700	-29.6772	7.00576	0	
2.9707	-26.9407	9.45156	0	
2.9713	-17.7678	7.62757	0	
2.9720	-11.6782	3.35779	0	
2.9727	-12.6032	-0.911992	0	
2.9733	-9.25003	-3.9796	0	
2.9740	-3.12189	-3.35779	0	
2.9747	-1.92709	-0.621813	0	
2.9753	1.42605	-1.53381	0	
2.9760	11.8323	-4.89159	0	
2.9767	23.7032	-6.71558	0	
