0.0007	24.5213	-2.30481	0	
0.0013	27.88	-3.23417	0	
0.0020	31.8628	-6.28247	0	
0.0027	37.3318	-7.50923	0	
0.0033	35.1918	-7.17466	0	
0.0040	27.88	-5.98508	0	
0.0047	22.6785	-3.82896	0	
0.0053	17.2095	-2.60221	0	
0.0060	10.1949	-0.185872	0	
0.0067	5.91483	3.197	0	
0.0073	1.63475	3.49439	0	
0.0080	-4.16119	1.37545	0	
0.0087	-5.08259	0.446093	0	
0.0093	-6.30123	1.67285	0	
0.0100	-14.2372	3.79179	0	
0.0107	-23.0946	3.49439	0	
0.0113	-27.345	1.67285	0	
0.0120	-31.0306	3.197	0	
0.0127	-31.625	5.31594	0	
0.0133	-26.1263	3.49439	0	
0.0140	-21.549	2.56503	0	
0.0147	-20.0332	5.01854	0	
0.0153	-14.2372	3.49439	0	
0.0160	-8.44127	-1.07806	0	
0.0167	-7.81709	-1.37545	0	
0.0173	-7.81709	0.148698	0	
0.0180	-5.37982	-1.07806	0	
0.0187	-2.02115	-3.82896	0	
0.0193	3.47756	-6.28247	0	
0.0200	12.008	-7.50923	0	
0.0207	20.8654	-6.28247	0	
0.0213	29.3958	-5.65051	0	
0.0220	37.6588	-5.98508	0	
0.0227	41.3147	-3.23417	0	
0.0233	37.0346	1.04088	0	
0.0240	26.9586	-0.185872	0	
0.0247	16.2881	-3.82896	0	
0.0253	9.57073	-4.42375	0	
0.0260	6.50929	-3.82896	0	
0.0267	3.15061	-2.8996	0	
0.0273	-2.94255	-2.00742	0	
0.0280	-7.22263	-3.23417	0	
0.0287	-8.44127	-3.82896	0	
0.0293	-15.4558	-2.00742	0	
0.0300	-28.5636	0.743488	0	
0.0307	-37.421	2.26764	0	
0.0313	-38.9666	4.72115	0	
0.0320	-39.2638	4.72115	0	
0.0327	-37.7182	0.743488	0	
0.0333	-32.5464	0.446093	0	
0.0340	-25.2049	3.49439	0	
0.0347	-18.5173	2.56503	0	
0.0353	-14.8317	-0.483267	0	
0.0360	-14.5344	-1.07806	0	
0.0367	-12.0972	-0.483267	0	
0.0373	-5.08259	-1.37545	0	
0.0380	0.713347	-2.30481	0	
0.0387	2.85339	-2.30481	0	
0.0393	10.7894	-2.8996	0	
0.0400	25.4427	-4.42375	0	
0.0407	34.5973	-5.65051	0	
0.0413	34.5973	-5.65051	0	
0.0420	32.7545	-5.65051	0	
0.0427	31.8628	-4.42375	0	
0.0433	25.4427	-2.30481	0	
0.0440	16.8825	-1.07806	0	
0.0447	11.4135	1.97024	0	
0.0453	5.91483	5.01854	0	
0.0460	-0.505287	3.79179	0	
0.0467	-5.67705	4.08918	0	
0.0473	-9.36267	7.76945	0	
0.0480	-10.8785	7.47205	0	
0.0487	-11.7999	6.2453	0	
0.0493	-15.4558	8.69881	0	
0.0500	-22.1732	7.13748	0	
0.0507	-24.9077	2.56503	0	
0.0513	-19.409	3.49439	0	
0.0520	-11.7999	4.08918	0	
0.0527	-8.44127	0.148698	0	
0.0533	-7.22263	-0.483267	0	
0.0540	-5.67705	0.148698	0	
0.0547	-6.89568	-2.00742	0	
0.0553	-10.2544	-2.30481	0	
0.0560	-9.03572	0.743488	0	
0.0567	-0.802515	1.04088	0	
0.0573	4.36925	0.148698	0	
0.0580	2.55616	1.97024	0	
0.0587	3.77479	4.08918	0	
0.0593	14.4453	2.26764	0	
0.0600	26.3641	-2.00742	0	
0.0607	30.9414	-3.82896	0	
0.0613	31.8628	-4.42375	0	
0.0620	32.7545	-3.82896	0	
0.0627	33.0814	-1.37545	0	
0.0633	29.3958	-0.185872	0	
0.0640	23.5999	-1.71002	0	
0.0647	17.8039	-1.07806	0	
0.0653	11.7108	0.446093	0	
0.0660	6.83624	-1.71002	0	
0.0667	2.55616	-2.30481	0	
0.0673	-2.02115	0.743488	0	
0.0680	-4.78537	1.67285	0	
0.0687	-6.30123	-1.07806	0	
0.0693	-10.2544	-2.8996	0	
0.0700	-18.5173	-1.07806	0	
0.0707	-27.0477	2.56503	0	
0.0713	-30.4064	3.79179	0	
0.0720	-27.345	2.8996	0	
0.0727	-23.9863	2.56503	0	
0.0733	-22.1732	0.743488	0	
0.0740	-17.2987	-1.71002	0	
0.0747	-11.1758	-0.483267	0	
0.0753	-9.36267	1.04088	0	
0.0760	-8.14404	0.148698	0	
0.0767	-4.16119	-0.185872	0	
0.0773	-1.09974	-3.23417	0	
0.0780	0.713347	-11.1523	0	
0.0787	2.85339	-13.9032	0	
0.0793	7.43069	-9.62817	0	
0.0800	18.4281	-8.10402	0	
0.0807	30.02	-10.5575	0	
0.0813	32.16	-10.223	0	
0.0820	28.8014	-6.28247	0	
0.0827	27.2855	-1.07806	0	
0.0833	23.9268	2.56503	0	
0.0840	17.2095	3.197	0	
0.0847	12.6322	1.97024	0	
0.0853	9.57073	0.446093	0	
0.0860	4.07202	0.148698	0	
0.0867	-1.09974	2.56503	0	
0.0873	-2.94255	3.49439	0	
0.0880	-3.86396	2.26764	0	
0.0887	-6.004	3.49439	0	
0.0893	-10.8785	7.13748	0	
0.0900	-20.0332	7.13748	0	
0.0907	-27.9691	4.42375	0	
0.0913	-29.7822	3.49439	0	
0.0920	-28.8905	6.2453	0	
0.0927	-27.9691	8.06684	0	
0.0933	-25.8291	6.84009	0	
0.0940	-21.876	6.2453	0	
0.0947	-16.3772	6.2453	0	
0.0953	-10.2544	3.49439	0	
0.0960	-6.59846	1.67285	0	
0.0967	-3.86396	3.49439	0	
0.0973	-0.505287	4.42375	0	
0.0980	1.33752	2.56503	0	
0.0987	1.93198	2.56503	0	
0.0993	7.43069	2.56503	0	
0.1000	18.4281	-0.483267	0	
0.1007	26.3641	-3.82896	0	
0.1013	29.7228	-3.82896	0	
0.1020	32.16	-2.30481	0	
0.1027	32.4573	-1.37545	0	
0.1033	26.9586	-1.07806	0	
0.1040	20.8654	-0.780662	0	
0.1047	15.9909	0.446093	0	
0.1053	9.57073	1.97024	0	
0.1060	3.15061	3.49439	0	
0.1067	-1.09974	3.197	0	
0.1073	-5.67705	1.97024	0	
0.1080	-8.44127	0.446093	0	
0.1087	-8.7385	-1.07806	0	
0.1093	-13.94	-1.07806	0	
0.1100	-26.1263	1.97024	0	
0.1107	-35.6079	3.49439	0	
0.1113	-37.1237	3.49439	0	
0.1120	-34.3893	2.8996	0	
0.1127	-30.1092	1.67285	0	
0.1133	-24.9077	0.148698	0	
0.1140	-21.2518	-1.07806	0	
0.1147	-17.8931	-2.8996	0	
0.1153	-13.613	-4.12636	0	
0.1160	-9.36267	-3.82896	0	
0.1167	-6.30123	-2.8996	0	
0.1173	-2.64533	-3.23417	0	
0.1180	-0.208059	-5.98508	0	
0.1187	1.63475	-7.17466	0	
0.1193	6.21206	-3.23417	0	
0.1200	16.2881	-2.00742	0	
0.1207	24.5213	-5.98508	0	
0.1213	27.5827	-6.57987	0	
0.1220	29.0986	-3.82896	0	
0.1227	26.9586	-4.42375	0	
0.1233	21.7868	-3.82896	0	
0.1240	18.1012	-2.8996	0	
0.1247	15.9909	-5.65051	0	
0.1253	11.7108	-5.65051	0	
0.1260	9.57073	-0.483267	0	
0.1267	7.13347	1.04088	0	
0.1273	0.713347	1.04088	0	
0.1280	-2.02115	1.67285	0	
0.1287	-1.72392	-0.185872	0	
0.1293	-8.14404	0.743488	0	
0.1300	-19.409	6.54269	0	
0.1307	-25.8291	8.06684	0	
0.1313	-27.9691	7.13748	0	
0.1320	-30.4064	8.06684	0	
0.1327	-29.485	7.47205	0	
0.1333	-23.0946	4.42375	0	
0.1340	-16.0503	2.26764	0	
0.1347	-12.3944	-0.185872	0	
0.1353	-11.1758	-2.00742	0	
0.1360	-8.14404	-2.8996	0	
0.1367	-2.64533	-3.82896	0	
0.1373	1.63475	-3.23417	0	
0.1380	2.25893	-1.37545	0	
0.1387	2.85339	-1.71002	0	
0.1393	9.57073	-3.82896	0	
0.1400	19.944	-6.28247	0	
0.1407	27.2855	-7.17466	0	
0.1413	30.6145	-4.42375	0	
0.1420	31.8628	-2.8996	0	
0.1427	30.9414	-3.53157	0	
0.1433	26.0372	-2.60221	0	
0.1440	20.5682	-1.37545	0	
0.1447	18.1012	-1.07806	0	
0.1453	15.3667	0.743488	0	
0.1460	8.94656	1.67285	0	
0.1467	4.07202	0.446093	0	
0.1473	2.85339	-0.483267	0	
0.1480	2.25893	-2.60221	0	
0.1487	-2.02115	-5.65051	0	
0.1493	-9.95713	-5.05572	0	
0.1500	-20.9546	1.04088	0	
0.1507	-27.9691	5.31594	0	
0.1513	-30.4064	4.42375	0	
0.1520	-32.2492	3.49439	0	
0.1527	-30.7036	5.31594	0	
0.1533	-24.6105	5.61333	0	
0.1540	-19.1117	3.79179	0	
0.1547	-15.4558	4.42375	0	
0.1553	-10.2544	5.01854	0	
0.1560	-5.08259	1.67285	0	
0.1567	-2.02115	-1.07806	0	
0.1573	-0.505287	-1.71002	0	
0.1580	2.55616	-1.37545	0	
0.1587	8.3521	0.148698	0	
0.1593	13.5239	-0.185872	0	
0.1600	21.4598	-3.82896	0	
0.1607	32.16	-3.53157	0	
0.1613	33.6759	-0.185872	0	
0.1620	26.9586	0.446093	0	
0.1627	25.4427	-1.07806	0	
0.1633	27.2855	-0.483267	0	
0.1640	22.3813	0.446093	0	
0.1647	15.6639	1.37545	0	
0.1653	12.6322	1.67285	0	
0.1660	8.94656	1.67285	0	
0.1667	2.85339	2.56503	0	
0.1673	-2.02115	3.49439	0	
0.1680	-4.78537	1.97024	0	
0.1687	-8.14404	1.67285	0	
0.1693	-14.8317	2.56503	0	
0.1700	-21.549	2.8996	0	
0.1707	-26.7505	2.56503	0	
0.1713	-31.0306	2.56503	0	
0.1720	-30.4064	2.56503	0	
0.1727	-25.5319	1.37545	0	
0.1733	-23.3918	-2.00742	0	
0.1740	-22.1732	-4.12636	0	
0.1747	-16.0503	-2.8996	0	
0.1753	-12.3944	-0.185872	0	
0.1760	-10.8785	-0.185872	0	
0.1767	-4.45842	-0.185872	0	
0.1773	0.416119	-0.185872	0	
0.1780	-0.505287	-1.07806	0	
0.1787	1.0403	-1.37545	0	
0.1793	9.86796	-1.07806	0	
0.1800	21.1626	-3.82896	0	
0.1807	28.8014	-7.50923	0	
0.1813	30.9414	-6.87726	0	
0.1820	30.3172	-5.05572	0	
0.1827	29.0986	-4.75832	0	
0.1833	27.2855	-3.82896	0	
0.1840	26.6613	-1.37545	0	
0.1847	25.4427	0.446093	0	
0.1853	18.4281	0.446093	0	
0.1860	12.008	-0.483267	0	
0.1867	10.7894	0.148698	0	
0.1873	6.21206	2.56503	0	
0.1880	2.55616	2.8996	0	
0.1887	2.55616	2.56503	0	
0.1893	-5.08259	5.01854	0	
0.1900	-19.1117	7.13748	0	
0.1907	-25.8291	4.72115	0	
0.1913	-30.1092	2.56503	0	
0.1920	-34.0623	4.72115	0	
0.1927	-28.5636	6.2453	0	
0.1933	-20.9546	3.49439	0	
0.1940	-19.7359	1.67285	0	
0.1947	-16.9717	1.97024	0	
0.1953	-11.1758	1.04088	0	
0.1960	-9.36267	-1.37545	0	
0.1967	-6.89568	-2.60221	0	
0.1973	-0.802515	-2.00742	0	
0.1980	2.25893	-0.185872	0	
0.1987	2.55616	0.148698	0	
0.1993	10.1949	-2.00742	0	
0.2000	23.3027	-3.82896	0	
0.2007	29.0986	-5.98508	0	
0.2013	29.0986	-7.50923	0	
0.2020	30.02	-6.57987	0	
0.2027	29.7228	-3.53157	0	
0.2033	26.3641	-1.07806	0	
0.2040	22.6785	-0.483267	0	
0.2047	16.5853	-0.185872	0	
0.2053	8.94656	1.67285	0	
0.2060	6.21206	3.197	0	
0.2067	4.6962	2.26764	0	
0.2073	0.118891	1.37545	0	
0.2080	-2.64533	2.56503	0	
0.2087	-2.94255	2.56503	0	
0.2093	-9.6599	1.67285	0	
0.2100	-22.1732	2.56503	0	
0.2107	-32.8437	2.8996	0	
0.2113	-35.2809	-0.483267	0	
0.2120	-31.625	-4.42375	0	
0.2127	-28.5636	-3.82896	0	
0.2133	-27.0477	-1.37545	0	
0.2140	-22.1732	-3.23417	0	
0.2147	-14.8317	-5.98508	0	
0.2153	-10.2544	-5.35311	0	
0.2160	-6.004	-3.82896	0	
0.2167	-0.802515	-3.82896	0	
0.2173	2.55616	-2.8996	0	
0.2180	2.85339	-2.8996	0	
0.2187	3.47756	-3.82896	0	
0.2193	8.94656	-4.42375	0	
0.2200	17.5067	-7.50923	0	
0.2207	24.5213	-6.57987	0	
0.2213	28.5041	-1.37545	0	
0.2220	28.1772	-1.71002	0	
0.2227	24.5213	-3.82896	0	
0.2233	21.7868	0.148698	0	
0.2240	16.8825	2.56503	0	
0.2247	9.86796	0.743488	0	
0.2253	7.13347	2.26764	0	
0.2260	6.50929	2.26764	0	
0.2267	2.55616	-1.07806	0	
0.2273	-2.31838	0.148698	0	
0.2280	-6.59846	4.08918	0	
0.2287	-11.1758	5.01854	0	
0.2293	-16.6745	3.79179	0	
0.2300	-25.2049	1.67285	0	
0.2307	-34.6865	1.04088	0	
0.2313	-38.6396	3.49439	0	
0.2320	-37.7182	3.49439	0	
0.2327	-35.9051	1.67285	0	
0.2333	-28.5636	2.26764	0	
0.2340	-19.409	1.67285	0	
0.2347	-16.3772	-2.8996	0	
0.2353	-13.3158	-4.75832	0	
0.2360	-7.51986	-4.12636	0	
0.2367	-4.78537	-5.65051	0	
0.2373	-3.53701	-6.57987	0	
0.2380	0.713347	-4.75832	0	
0.2387	3.77479	-3.82896	0	
0.2393	8.94656	-6.28247	0	
0.2400	18.4281	-9.03338	0	
0.2407	25.4427	-9.33077	0	
0.2413	28.5041	-7.50923	0	
0.2420	30.9414	-5.35311	0	
0.2427	29.0986	-3.82896	0	
0.2433	22.3813	-2.8996	0	
0.2440	15.9909	-1.37545	0	
0.2447	10.7894	-0.483267	0	
0.2453	8.05487	-1.07806	0	
0.2460	5.29065	-1.07806	0	
0.2467	-0.802515	-0.483267	0	
0.2473	-5.08259	-2.00742	0	
0.2480	-4.78537	-3.82896	0	
0.2487	-7.22263	-2.00742	0	
0.2493	-15.7531	2.8996	0	
0.2500	-23.9863	5.31594	0	
0.2507	-30.4064	3.79179	0	
0.2513	-33.4678	1.97024	0	
0.2520	-32.2492	1.37545	0	
0.2527	-30.7036	-0.185872	0	
0.2533	-27.6719	-0.185872	0	
0.2540	-22.1732	1.97024	0	
0.2547	-18.1903	2.56503	0	
0.2553	-13.613	1.67285	0	
0.2560	-8.44127	0.743488	0	
0.2567	-6.59846	-2.00742	0	
0.2573	-2.94255	-3.82896	0	
0.2580	2.85339	-1.07806	0	
0.2587	4.36925	-0.780662	0	
0.2593	8.64933	-2.8996	0	
0.2600	20.8654	-1.71002	0	
0.2607	30.02	0.446093	0	
0.2613	31.8628	-2.30481	0	
0.2620	31.8628	-5.35311	0	
0.2627	28.1772	-5.35311	0	
0.2633	23.5999	-3.82896	0	
0.2640	19.944	-1.71002	0	
0.2647	15.6639	-0.483267	0	
0.2653	10.7894	1.67285	0	
0.2660	7.43069	6.54269	0	
0.2667	3.77479	7.76945	0	
0.2673	0.713347	4.08918	0	
0.2680	0.416119	2.56503	0	
0.2687	-0.208059	4.08918	0	
0.2693	-6.59846	5.31594	0	
0.2700	-18.5173	6.54269	0	
0.2707	-27.6719	7.13748	0	
0.2713	-28.5636	7.13748	0	
0.2720	-29.485	8.9962	0	
0.2727	-29.485	8.9962	0	
0.2733	-22.1732	4.42375	0	
0.2740	-14.2372	3.79179	0	
0.2747	-10.8785	6.2453	0	
0.2753	-7.51986	4.72115	0	
0.2760	-4.16119	2.56503	0	
0.2767	-2.64533	2.56503	0	
0.2773	2.55616	-0.483267	0	
0.2780	6.83624	-2.00742	0	
0.2787	5.6176	-0.780662	0	
0.2793	10.7894	-2.60221	0	
0.2800	25.4427	-4.42375	0	
0.2807	34.5973	-2.8996	0	
0.2813	35.1918	-3.82896	0	
0.2820	33.6759	-4.75832	0	
0.2827	30.9414	-2.00742	0	
0.2833	26.6613	-0.483267	0	
0.2840	22.3813	-0.185872	0	
0.2847	15.6639	1.04088	0	
0.2853	8.05487	1.37545	0	
0.2860	6.21206	0.743488	0	
0.2867	5.6176	0.148698	0	
0.2873	1.93198	-0.780662	0	
0.2880	0.713347	-1.07806	0	
0.2887	0.713347	-1.37545	0	
0.2893	-8.14404	-2.00742	0	
0.2900	-20.3304	-0.185872	0	
0.2907	-25.8291	0.743488	0	
0.2913	-27.6719	-0.483267	0	
0.2920	-30.4064	1.04088	0	
0.2927	-29.485	3.197	0	
0.2933	-24.3132	0.148698	0	
0.2940	-19.409	-2.30481	0	
0.2947	-14.2372	-0.780662	0	
0.2953	-9.36267	-1.37545	0	
0.2960	-4.78537	-3.82896	0	
0.2967	-0.505287	-2.8996	0	
0.2973	1.0403	-1.37545	0	
0.2980	1.63475	-2.00742	0	
0.2987	4.36925	-2.00742	0	
0.2993	12.008	-0.483267	0	
0.3000	22.6785	-2.00742	0	
0.3007	28.8014	-5.35311	0	
0.3013	28.8014	-4.75832	0	
0.3020	30.02	-1.71002	0	
0.3027	32.16	-0.483267	0	
0.3033	28.8014	-0.185872	0	
0.3040	23.0054	1.67285	0	
0.3047	19.6468	0.743488	0	
0.3053	14.148	-4.12636	0	
0.3060	6.21206	-4.75832	0	
0.3067	2.85339	-0.483267	0	
0.3073	1.63475	1.37545	0	
0.3080	-2.02115	-1.07806	0	
0.3087	-6.30123	-0.780662	0	
0.3093	-9.95713	0.743488	0	
0.3100	-19.409	1.97024	0	
0.3107	-29.485	4.72115	0	
0.3113	-31.9223	6.2453	0	
0.3120	-31.3278	4.72115	0	
0.3127	-30.7036	2.56503	0	
0.3133	-24.9077	0.446093	0	
0.3140	-17.8931	-2.00742	0	
0.3147	-16.6745	-2.00742	0	
0.3153	-14.8317	-0.483267	0	
0.3160	-9.03572	-0.185872	0	
0.3167	-6.004	1.04088	0	
0.3173	-4.45842	1.37545	0	
0.3180	-0.505287	-2.00742	0	
0.3187	2.85339	-4.42375	0	
0.3193	9.57073	-4.12636	0	
0.3200	22.6785	-5.05572	0	
0.3207	37.3318	-5.65051	0	
0.3213	44.6733	-3.82896	0	
0.3220	44.0492	-1.07806	0	
0.3227	38.2532	0.743488	0	
0.3233	31.5359	2.8996	0	
0.3240	24.5213	4.08918	0	
0.3247	15.3667	3.49439	0	
0.3253	6.50929	3.197	0	
0.3260	2.55616	2.26764	0	
0.3267	-1.09974	0.148698	0	
0.3273	-13.0186	-0.185872	0	
0.3280	-23.0946	1.04088	0	
0.3287	-21.876	0.743488	0	
0.3293	-22.1732	1.04088	0	
0.3300	-33.1409	4.08918	0	
0.3307	-42.2955	4.42375	0	
0.3313	-42.9197	1.04088	0	
0.3320	-39.561	0.148698	0	
0.3327	-33.1409	0.743488	0	
0.3333	-27.345	-1.07806	0	
0.3340	-24.6105	-2.8996	0	
0.3347	-21.2518	-2.00742	0	
0.3353	-15.7531	-1.07806	0	
0.3360	-12.3944	-0.185872	0	
0.3367	-9.36267	1.67285	0	
0.3373	-4.78537	0.148698	0	
0.3380	-2.02115	-3.23417	0	
0.3387	0.416119	-3.23417	0	
0.3393	7.13347	-1.71002	0	
0.3400	16.5853	-2.8996	0	
0.3407	23.9268	-3.53157	0	
0.3413	29.7228	-2.00742	0	
0.3420	31.2386	0.446093	0	
0.3427	27.88	2.26764	0	
0.3433	23.9268	2.56503	0	
0.3440	21.4598	1.67285	0	
0.3447	18.1012	2.56503	0	
0.3453	13.5239	3.49439	0	
0.3460	8.94656	3.79179	0	
0.3467	3.15061	4.42375	0	
0.3473	0.416119	3.79179	0	
0.3480	0.713347	0.148698	0	
0.3487	-2.64533	-0.780662	0	
0.3493	-12.3944	2.56503	0	
0.3500	-22.1732	4.72115	0	
0.3507	-26.7505	4.08918	0	
0.3513	-27.9691	3.197	0	
0.3520	-28.5636	1.67285	0	
0.3527	-26.7505	1.04088	0	
0.3533	-21.876	2.26764	0	
0.3540	-16.9717	1.97024	0	
0.3547	-13.0186	-0.780662	0	
0.3553	-9.03572	-2.8996	0	
0.3560	-5.67705	-3.53157	0	
0.3567	-1.42669	-4.42375	0	
0.3573	3.47756	-5.35311	0	
0.3580	5.91483	-3.82896	0	
0.3587	7.72792	-2.00742	0	
0.3593	14.4453	-2.8996	0	
0.3600	24.5213	-3.82896	0	
0.3607	32.16	-3.23417	0	
0.3613	36.4401	-2.60221	0	
0.3620	35.8159	-2.60221	0	
0.3627	33.3787	-2.00742	0	
0.3633	30.9414	-1.07806	0	
0.3640	25.4427	0.743488	0	
0.3647	17.2095	1.37545	0	
0.3653	12.008	0.743488	0	
0.3660	8.05487	1.97024	0	
0.3667	3.47756	6.2453	0	
0.3673	2.25893	7.13748	0	
0.3680	1.63475	2.56503	0	
0.3687	-2.94255	0.446093	0	
0.3693	-10.5813	2.56503	0	
0.3700	-21.2518	3.49439	0	
0.3707	-29.1878	3.79179	0	
0.3713	-29.485	5.9479	0	
0.3720	-27.9691	6.2453	0	
0.3727	-27.9691	2.56503	0	
0.3733	-24.9077	0.743488	0	
0.3740	-20.3304	2.26764	0	
0.3747	-16.6745	1.37545	0	
0.3753	-12.0972	-2.8996	0	
0.3760	-8.44127	-4.42375	0	
0.3767	-6.59846	-3.53157	0	
0.3773	-2.31838	-2.8996	0	
0.3780	2.55616	-3.53157	0	
0.3787	4.99343	-3.82896	0	
0.3793	10.7894	-4.12636	0	
0.3800	19.944	-5.35311	0	
0.3807	25.7399	-6.57987	0	
0.3813	28.1772	-6.28247	0	
0.3820	28.8014	-5.98508	0	
0.3827	27.2855	-5.65051	0	
0.3833	23.9268	-3.53157	0	
0.3840	20.8654	-1.07806	0	
0.3847	18.4281	-0.483267	0	
0.3853	14.148	-1.07806	0	
0.3860	9.27351	-2.00742	0	
0.3867	6.21206	-1.37545	0	
0.3873	3.77479	3.197	0	
0.3880	0.416119	5.61333	0	
0.3887	-3.86396	1.67285	0	
0.3893	-10.2544	-2.30481	0	
0.3900	-20.6276	-2.00742	0	
0.3907	-28.8905	-1.71002	0	
0.3913	-32.2492	-1.71002	0	
0.3920	-34.0623	0.446093	0	
0.3927	-34.0623	1.67285	0	
0.3933	-29.1878	0.743488	0	
0.3940	-22.1732	0.446093	0	
0.3947	-16.6745	0.148698	0	
0.3953	-10.2544	-1.71002	0	
0.3960	-6.30123	-3.53157	0	
0.3967	-5.67705	-3.53157	0	
0.3973	-3.53701	-2.30481	0	
0.3980	0.713347	-2.30481	0	
0.3987	2.55616	-2.8996	0	
0.3993	7.13347	-2.00742	0	
0.4000	17.8039	-0.483267	0	
0.4007	25.7399	-0.185872	0	
0.4013	26.9586	-0.780662	0	
0.4020	26.0372	-1.37545	0	
0.4027	24.5213	-1.37545	0	
0.4033	22.3813	-1.07806	0	
0.4040	18.7253	-0.483267	0	
0.4047	11.7108	1.67285	0	
0.4053	6.83624	2.56503	0	
0.4060	7.43069	1.67285	0	
0.4067	4.6962	1.67285	0	
0.4073	-3.23978	3.197	0	
0.4080	-6.004	3.79179	0	
0.4087	-4.78537	2.56503	0	
0.4093	-11.1758	1.67285	0	
0.4100	-22.1732	2.56503	0	
0.4107	-31.0306	2.56503	0	
0.4113	-35.6079	-0.185872	0	
0.4120	-33.1409	-1.07806	0	
0.4127	-26.7505	-1.07806	0	
0.4133	-22.7676	-1.07806	0	
0.4140	-18.5173	-0.185872	0	
0.4147	-10.8785	0.148698	0	
0.4153	-5.37982	-2.8996	0	
0.4160	-3.86396	-6.28247	0	
0.4167	-0.802515	-5.98508	0	
0.4173	4.99343	-4.12636	0	
0.4180	8.3521	-2.8996	0	
0.4187	9.86796	-1.07806	0	
0.4193	15.9909	-0.780662	0	
0.4200	24.8185	-2.8996	0	
0.4207	29.7228	-5.35311	0	
0.4213	30.6145	-5.65051	0	
0.4220	31.8628	-5.05572	0	
0.4227	29.0986	-4.75832	0	
0.4233	19.0226	-3.82896	0	
0.4240	13.2266	-1.07806	0	
0.4247	12.9294	0.148698	0	
0.4253	9.57073	-0.780662	0	
0.4260	5.6176	-0.185872	0	
0.4267	5.29065	3.49439	0	
0.4273	2.55616	5.31594	0	
0.4280	-1.09974	3.49439	0	
0.4287	-2.94255	2.56503	0	
0.4293	-11.1758	3.79179	0	
0.4300	-23.9863	5.01854	0	
0.4307	-31.625	5.31594	0	
0.4313	-33.1409	5.61333	0	
0.4320	-32.8437	4.42375	0	
0.4327	-31.0306	2.26764	0	
0.4333	-28.5636	1.37545	0	
0.4340	-23.6891	0.446093	0	
0.4347	-17.2987	-2.00742	0	
0.4353	-14.8317	-3.23417	0	
0.4360	-14.8317	-2.00742	0	
0.4367	-11.1758	-1.07806	0	
0.4373	-6.30123	-1.07806	0	
0.4380	-3.53701	-0.185872	0	
0.4387	-1.09974	-1.07806	0	
0.4393	5.6176	-3.82896	0	
0.4400	16.2881	-5.65051	0	
0.4407	25.4427	-3.82896	0	
0.4413	29.0986	-2.00742	0	
0.4420	29.7228	-2.00742	0	
0.4427	29.0986	-2.60221	0	
0.4433	25.4427	-1.37545	0	
0.4440	20.5682	0.446093	0	
0.4447	15.3667	1.37545	0	
0.4453	9.57073	0.743488	0	
0.4460	4.36925	-0.483267	0	
0.4467	0.713347	-1.71002	0	
0.4473	-2.31838	0.743488	0	
0.4480	-4.45842	5.31594	0	
0.4487	-7.22263	5.31594	0	
0.4493	-13.613	4.42375	0	
0.4500	-22.1732	7.13748	0	
0.4507	-29.485	10.8177	0	
0.4513	-32.2492	11.1151	0	
0.4520	-31.9223	10.5204	0	
0.4527	-29.485	9.88839	0	
0.4533	-25.8291	8.06684	0	
0.4540	-21.2518	6.2453	0	
0.4547	-15.7531	5.31594	0	
0.4553	-9.95713	2.56503	0	
0.4560	-3.86396	-0.185872	0	
0.4567	-0.208059	-0.185872	0	
0.4573	0.713347	-1.07806	0	
0.4580	2.85339	-3.82896	0	
0.4587	8.64933	-3.82896	0	
0.4593	14.4453	-2.60221	0	
0.4600	19.944	-3.82896	0	
0.4607	27.5827	-4.42375	0	
0.4613	33.0814	-1.71002	0	
0.4620	30.6145	-0.185872	0	
0.4627	23.5999	-0.185872	0	
0.4633	19.6468	0.148698	0	
0.4640	17.8039	-0.185872	0	
0.4647	14.4453	-0.185872	0	
0.4653	10.1949	1.04088	0	
0.4660	5.91483	1.37545	0	
0.4667	1.33752	2.26764	0	
0.4673	-1.09974	5.61333	0	
0.4680	-1.09974	7.13748	0	
0.4687	-4.45842	4.08918	0	
0.4693	-11.1758	1.04088	0	
0.4700	-20.3304	-0.185872	0	
0.4707	-29.485	-0.185872	0	
0.4713	-32.2492	1.67285	0	
0.4720	-26.7505	3.79179	0	
0.4727	-23.0946	2.8996	0	
0.4733	-21.876	1.67285	0	
0.4740	-17.2987	0.446093	0	
0.4747	-12.0972	-3.82896	0	
0.4753	-10.2544	-5.65051	0	
0.4760	-7.51986	-3.82896	0	
0.4767	-3.53701	-3.82896	0	
0.4773	-1.09974	-6.57987	0	
0.4780	0.416119	-5.65051	0	
0.4787	3.15061	-4.75832	0	
0.4793	8.94656	-7.80662	0	
0.4800	17.8039	-9.62817	0	
0.4807	23.5999	-7.80662	0	
0.4813	23.0054	-7.17466	0	
0.4820	20.8654	-9.33077	0	
0.4827	20.2412	-10.223	0	
0.4833	15.9909	-8.10402	0	
0.4840	8.05487	-4.75832	0	
0.4847	1.0403	-3.53157	0	
0.4853	-6.59846	-2.00742	0	
0.4860	-12.0972	-0.185872	0	
0.4867	-15.4558	-0.185872	0	
0.4873	-20.3304	-1.07806	0	
0.4880	-23.3918	-1.07806	0	
0.4887	-22.7676	-0.185872	0	
0.4893	-27.345	0.743488	0	
0.4900	-34.3893	0.446093	0	
0.4907	-31.3278	-1.07806	0	
0.4913	-23.3918	-1.07806	0	
0.4920	-16.0503	-0.185872	0	
0.4927	-2.02115	-0.780662	0	
0.4933	12.6322	0.148698	0	
0.4940	18.4281	0.148698	0	
0.4947	24.5213	-3.82896	0	
0.4953	31.2386	-4.75832	0	
0.4960	28.5041	-1.07806	0	
0.4967	20.8654	0.148698	0	
0.4973	16.2881	-2.30481	0	
0.4980	12.9294	-3.23417	0	
0.4987	13.2266	-3.53157	0	
0.4993	22.3813	-3.82896	0	
0.5000	33.3787	-3.82896	0	
0.5007	38.5504	-5.35311	0	
0.5013	39.7691	-4.42375	0	
0.5020	38.2532	-0.483267	0	
0.5027	32.7545	-0.780662	0	
0.5033	26.3641	-3.82896	0	
0.5040	23.0054	-3.82896	0	
0.5047	19.0226	-2.30481	0	
0.5053	10.7894	-0.185872	0	
0.5060	3.15061	1.37545	0	
0.5067	0.713347	1.37545	0	
0.5073	-2.02115	2.56503	0	
0.5080	-7.81709	5.9479	0	
0.5087	-11.473	6.54269	0	
0.5093	-14.5344	5.01854	0	
0.5100	-22.1732	4.42375	0	
0.5107	-30.4064	4.42375	0	
0.5113	-31.625	4.42375	0	
0.5120	-24.9077	5.01854	0	
0.5127	-14.8317	5.31594	0	
0.5133	-7.81709	4.42375	0	
0.5140	-5.67705	3.79179	0	
0.5147	-4.78537	4.42375	0	
0.5153	-3.53701	3.79179	0	
0.5160	-3.23978	0.743488	0	
0.5167	-1.42669	-0.780662	0	
0.5173	2.55616	0.743488	0	
0.5180	4.07202	1.67285	0	
0.5187	4.07202	0.743488	0	
0.5193	11.0866	-0.185872	0	
0.5200	21.7868	-0.185872	0	
0.5207	29.0986	0.148698	0	
0.5213	31.8628	-0.185872	0	
0.5220	30.9414	-2.00742	0	
0.5227	27.2855	-2.30481	0	
0.5233	22.6785	-1.71002	0	
0.5240	18.1012	-3.53157	0	
0.5247	12.6322	-3.82896	0	
0.5253	8.3521	-1.07806	0	
0.5260	6.21206	-0.185872	0	
0.5267	2.85339	-0.483267	0	
0.5273	-2.94255	2.26764	0	
0.5280	-10.2544	5.01854	0	
0.5287	-13.94	4.42375	0	
0.5293	-18.5173	4.72115	0	
0.5300	-27.9691	6.54269	0	
0.5307	-34.9837	8.06684	0	
0.5313	-34.0623	6.2453	0	
0.5320	-31.0306	3.49439	0	
0.5327	-29.485	1.67285	0	
0.5333	-27.9691	1.67285	0	
0.5340	-28.2664	0.743488	0	
0.5347	-26.7505	-1.07806	0	
0.5353	-20.3304	-2.00742	0	
0.5360	-15.4558	-2.00742	0	
0.5367	-14.2372	-2.30481	0	
0.5373	-8.14404	-3.23417	0	
0.5380	-0.208059	-2.30481	0	
0.5387	3.47756	-1.37545	0	
0.5393	10.4921	-3.53157	0	
0.5400	21.7868	-5.65051	0	
0.5407	26.9586	-5.65051	0	
0.5413	28.5041	-4.75832	0	
0.5420	34.5973	-4.75832	0	
0.5427	37.3318	-3.82896	0	
0.5433	30.9414	-2.00742	0	
0.5440	24.5213	-1.37545	0	
0.5447	18.4281	-2.00742	0	
0.5453	12.6322	-1.07806	0	
0.5460	7.43069	-0.483267	0	
0.5467	1.33752	-1.07806	0	
0.5473	-5.67705	-0.185872	0	
0.5480	-6.59846	3.197	0	
0.5487	-6.89568	4.42375	0	
0.5493	-16.6745	3.197	0	
0.5500	-30.4064	3.197	0	
0.5507	-38.3424	4.72115	0	
0.5513	-39.561	6.84009	0	
0.5520	-40.4824	6.84009	0	
0.5527	-41.9983	2.56503	0	
0.5533	-37.7182	0.446093	0	
0.5540	-27.9691	3.197	0	
0.5547	-23.0946	4.42375	0	
0.5553	-26.1263	1.67285	0	
0.5560	-27.9691	0.148698	0	
0.5567	-22.7676	1.67285	0	
0.5573	-15.4558	4.42375	0	
0.5580	-10.2544	5.31594	0	
0.5587	-5.37982	3.197	0	
0.5593	3.15061	0.446093	0	
0.5600	19.0226	-1.71002	0	
0.5607	34.5973	-3.82896	0	
0.5613	41.3147	-3.23417	0	
0.5620	39.7691	0.148698	0	
0.5627	32.16	-3.82896	0	
0.5633	21.4598	-13.6058	0	
0.5640	15.9909	-16.6541	0	
0.5647	18.1012	-12.9739	0	
0.5653	21.4598	-8.40141	0	
0.5660	22.084	-2.60221	0	
0.5667	16.2881	-0.185872	0	
0.5673	6.21206	-5.98508	0	
0.5680	-0.505287	-11.7471	0	
0.5687	-7.22263	-9.92556	0	
0.5693	-20.3304	-5.98508	0	
0.5700	-30.1092	-4.75832	0	
0.5707	-30.4064	-3.82896	0	
0.5713	-31.3278	-0.780662	0	
0.5720	-31.625	1.04088	0	
0.5727	-23.9863	2.56503	0	
0.5733	-13.0186	6.54269	0	
0.5740	-2.94255	8.06684	0	
0.5747	7.13347	5.9479	0	
0.5753	12.008	4.42375	0	
0.5760	8.05487	1.67285	0	
0.5767	4.36925	-1.07806	0	
0.5773	6.83624	0.743488	0	
0.5780	10.7894	2.56503	0	
0.5787	11.7108	0.446093	0	
0.5793	15.3667	-0.483267	0	
0.5800	27.5827	-1.71002	0	
0.5807	39.7691	-4.75832	0	
0.5813	43.1277	-4.12636	0	
0.5820	39.4718	-1.07806	0	
0.5827	32.7545	-1.37545	0	
0.5833	23.5999	-0.185872	0	
0.5840	13.5239	2.56503	0	
0.5847	4.6962	1.67285	0	
0.5853	0.416119	-0.185872	0	
0.5860	-1.42669	0.148698	0	
0.5867	-4.78537	1.04088	0	
0.5873	-6.59846	2.56503	0	
0.5880	-7.51986	2.56503	0	
0.5887	-15.4558	0.446093	0	
0.5893	-27.345	1.97024	0	
0.5900	-37.1237	5.9479	0	
0.5907	-44.1383	6.2453	0	
0.5913	-45.357	4.72115	0	
0.5920	-41.7011	4.08918	0	
0.5927	-39.561	2.26764	0	
0.5933	-35.9051	0.446093	0	
0.5940	-31.0306	-0.185872	0	
0.5947	-28.5636	-1.37545	0	
0.5953	-23.0946	-2.30481	0	
0.5960	-14.8317	-0.780662	0	
0.5967	-11.7999	2.26764	0	
0.5973	-5.67705	3.49439	0	
0.5980	8.94656	1.67285	0	
0.5987	16.8825	-0.483267	0	
0.5993	18.1012	-1.07806	0	
0.6000	24.8185	-3.23417	0	
0.6007	30.02	-5.05572	0	
0.6013	27.5827	-5.05572	0	
0.6020	26.0372	-6.87726	0	
0.6027	25.1455	-9.92556	0	
0.6033	20.2412	-8.40141	0	
0.6040	15.0694	-4.75832	0	
0.6047	10.7894	-3.82896	0	
0.6053	4.99343	-0.780662	0	
0.6060	0.416119	4.42375	0	
0.6067	-1.72392	6.2453	0	
0.6073	-2.94255	4.72115	0	
0.6080	-4.16119	2.56503	0	
0.6087	-7.51986	0.446093	0	
0.6093	-15.7531	0.743488	0	
0.6100	-26.1263	3.49439	0	
0.6107	-31.625	2.8996	0	
0.6113	-30.4064	-0.483267	0	
0.6120	-27.6719	-1.07806	0	
0.6127	-26.4533	0.446093	0	
0.6133	-25.8291	0.446093	0	
0.6140	-23.6891	-2.00742	0	
0.6147	-20.3304	-2.60221	0	
0.6153	-17.5959	-1.07806	0	
0.6160	-12.3944	-1.37545	0	
0.6167	0.118891	-2.00742	0	
0.6173	9.86796	0.743488	0	
0.6180	6.21206	2.26764	0	
0.6187	-0.208059	1.37545	0	
0.6193	1.63475	-1.07806	0	
0.6200	7.72792	-6.28247	0	
0.6207	16.2881	-9.33077	0	
0.6213	29.0986	-5.05572	0	
0.6220	35.1918	-0.185872	0	
0.6227	26.0372	1.97024	0	
0.6233	14.148	5.31594	0	
0.6240	7.13347	6.84009	0	
0.6247	3.47756	4.72115	0	
0.6253	4.36925	3.79179	0	
0.6260	7.13347	5.31594	0	
0.6267	3.77479	5.31594	0	
0.6273	0.713347	2.56503	0	
0.6280	1.63475	-0.483267	0	
0.6287	-1.42669	0.148698	0	
0.6293	-8.14404	2.56503	0	
0.6300	-13.3158	1.04088	0	
0.6307	-19.7359	-2.30481	0	
0.6313	-26.7505	-1.71002	0	
0.6320	-27.0477	0.148698	0	
0.6327	-21.549	0.743488	0	
0.6333	-19.409	0.446093	0	
0.6340	-21.2518	0.446093	0	
0.6347	-20.3304	2.8996	0	
0.6353	-10.8785	7.47205	0	
0.6360	2.55616	11.1151	0	
0.6367	13.2266	13.5687	0	
0.6373	20.2412	14.1634	0	
0.6380	26.9586	12.0445	0	
0.6387	30.6145	7.76945	0	
0.6393	26.6613	-0.185872	0	
0.6400	22.6785	-8.40141	0	
0.6407	30.02	-12.0817	0	
0.6413	43.4547	-13.6058	0	
0.6420	45.2678	-19.7024	0	
0.6427	38.2532	-21.8214	0	
0.6433	37.3318	-13.9032	0	
0.6440	39.4718	-6.57987	0	
0.6447	37.3318	-5.98508	0	
0.6453	30.02	-2.8996	0	
0.6460	19.6468	0.743488	0	
0.6467	7.72792	-2.8996	0	
0.6473	-1.09974	-5.98508	0	
0.6480	-7.22263	-4.75832	0	
0.6487	-16.0503	-2.8996	0	
0.6493	-29.485	1.67285	0	
0.6500	-41.7011	9.88839	0	
0.6507	-49.3398	14.1634	0	
0.6513	-49.637	13.5687	0	
0.6520	-43.8411	9.88839	0	
0.6527	-38.6396	6.2453	0	
0.6533	-36.2023	10.223	0	
0.6540	-19.7359	19.3679	0	
0.6547	10.4921	23.9403	0	
0.6553	22.6785	24.2377	0	
0.6560	10.7894	13.5687	0	
0.6567	4.99343	-7.50923	0	
0.6573	9.86796	-6.87726	0	
0.6580	11.4135	13.2713	0	
0.6587	12.3052	13.2713	0	
0.6593	16.8825	-5.05572	0	
0.6600	22.6785	-15.7248	0	
0.6607	30.9414	-20.2972	0	
0.6613	34.5973	-16.6541	0	
0.6620	29.0986	-1.37545	0	
0.6627	23.5999	-3.23417	0	
0.6633	20.8654	-21.8214	0	
0.6640	15.9909	-23.9775	0	
0.6647	11.0866	-12.3791	0	
0.6653	5.29065	-6.57987	0	
0.6660	-1.42669	-2.8996	0	
0.6667	-2.02115	3.49439	0	
0.6673	-0.505287	4.42375	0	
0.6680	-3.23978	1.04088	0	
0.6687	-5.37982	0.743488	0	
0.6693	-7.51986	3.49439	0	
0.6700	-15.4558	-4.75832	0	
0.6707	-21.876	-25.2042	0	
0.6713	-22.1732	-34.3491	0	
0.6720	-23.0946	-24.5723	0	
0.6727	-23.9863	-16.0222	0	
0.6733	-21.2518	-15.7248	0	
0.6740	-17.5959	-14.2006	0	
0.6747	-15.1586	-11.4497	0	
0.6753	-13.94	-12.9739	0	
0.6760	-12.7213	-13.3084	0	
0.6767	-8.44127	-10.8549	0	
0.6773	-4.45842	-9.92556	0	
0.6780	-5.08259	-10.8549	0	
0.6787	-3.86396	-9.62817	0	
0.6793	4.07202	-5.05572	0	
0.6800	15.0694	-0.185872	0	
0.6807	24.5213	1.04088	0	
0.6813	29.0986	-1.71002	0	
0.6820	26.9586	-2.00742	0	
0.6827	25.7399	2.26764	0	
0.6833	27.2855	5.31594	0	
0.6840	23.5999	7.13748	0	
0.6847	13.8508	9.88839	0	
0.6853	4.07202	9.88839	0	
0.6860	-6.59846	8.9962	0	
0.6867	-17.5959	10.5204	0	
0.6873	-23.6891	8.9962	0	
0.6880	-26.7505	6.84009	0	
0.6887	-29.485	8.06684	0	
0.6893	-34.9837	8.9962	0	
0.6900	-44.1383	9.88839	0	
0.6907	-51.4501	15.3902	0	
0.6913	-50.5584	21.8214	0	
0.6920	-45.6542	25.7619	0	
0.6927	-38.6396	26.3938	0	
0.6933	-23.0946	21.8214	0	
0.6940	-0.802515	16.9143	0	
0.6947	16.2881	15.6876	0	
0.6953	23.5999	13.2713	0	
0.6960	22.3813	8.9962	0	
0.6967	14.4453	5.31594	0	
0.6973	7.72792	2.8996	0	
0.6980	6.50929	1.37545	0	
0.6987	11.7108	-6.87726	0	
0.6993	22.6785	-28.5499	0	
0.7000	35.1918	-45.0182	0	
0.7007	40.6905	-40.4457	0	
0.7013	37.3318	-29.4793	0	
0.7020	31.8628	-26.7284	0	
0.7027	26.6613	-20.6318	0	
0.7033	19.6468	-10.5575	0	
0.7040	13.2266	-7.80662	0	
0.7047	10.7894	-2.00742	0	
0.7053	9.86796	14.7954	0	
0.7060	4.07202	20.26	0	
0.7067	-4.45842	16.9143	0	
0.7073	-10.2544	28.5128	0	
0.7080	-12.0972	31.5611	0	
0.7087	-13.3158	2.8996	0	
0.7093	-17.5959	-17.8809	0	
0.7100	-23.0946	-11.1523	0	
0.7107	-26.4533	-9.03338	0	
0.7113	-27.345	-14.2006	0	
0.7120	-25.8291	-8.69881	0	
0.7127	-22.4704	-3.82896	0	
0.7133	-19.409	-7.50923	0	
0.7140	-17.5959	-7.50923	0	
0.7147	-12.7213	-5.65051	0	
0.7153	-5.67705	-5.65051	0	
0.7160	0.416119	-4.75832	0	
0.7167	6.21206	-3.82896	0	
0.7173	9.86796	-3.53157	0	
0.7180	9.57073	-0.185872	0	
0.7187	9.57073	-0.185872	0	
0.7193	12.9294	-4.42375	0	
0.7200	18.7253	-6.28247	0	
0.7207	23.3027	-3.82896	0	
0.7213	22.3813	-2.00742	0	
0.7220	14.7722	-2.00742	0	
0.7227	6.50929	-4.12636	0	
0.7233	4.36925	-4.42375	0	
0.7240	6.50929	1.04088	0	
0.7247	6.21206	5.61333	0	
0.7253	1.0403	3.79179	0	
0.7260	-3.53701	3.197	0	
0.7267	-5.37982	6.2453	0	
0.7273	-6.004	5.31594	0	
0.7280	-4.45842	2.26764	0	
0.7287	-3.23978	2.56503	0	
0.7293	-8.44127	3.197	0	
0.7300	-15.7531	2.56503	0	
0.7307	-19.409	4.42375	0	
0.7313	-23.0946	5.9479	0	
0.7320	-25.8291	5.01854	0	
0.7327	-21.549	3.79179	0	
0.7333	-16.9717	4.42375	0	
0.7340	-16.6745	5.01854	0	
0.7347	-14.5344	3.79179	0	
0.7353	-8.44127	1.97024	0	
0.7360	-3.23978	1.97024	0	
0.7367	-0.208059	2.8996	0	
0.7373	2.55616	1.37545	0	
0.7380	5.29065	-0.185872	0	
0.7387	10.7894	1.04088	0	
0.7393	21.7868	1.67285	0	
0.7400	30.3172	-0.483267	0	
0.7407	32.7545	-2.00742	0	
0.7413	33.0814	-2.00742	0	
0.7420	33.9731	-2.00742	0	
0.7427	31.5359	-2.00742	0	
0.7433	25.7399	0.148698	0	
0.7440	22.6785	2.56503	0	
0.7447	21.4598	3.49439	0	
0.7453	17.8039	3.49439	0	
0.7460	14.7722	3.49439	0	
0.7467	11.7108	2.8996	0	
0.7473	5.29065	2.56503	0	
0.7480	0.416119	3.197	0	
0.7487	-2.31838	3.79179	0	
0.7493	-13.613	6.2453	0	
0.7500	-31.625	8.36424	0	
0.7507	-41.4038	6.2453	0	
0.7513	-42.9197	4.72115	0	
0.7520	-43.5439	8.06684	0	
0.7527	-37.7182	7.76945	0	
0.7533	-26.7505	1.67285	0	
0.7540	-20.6276	0.743488	0	
0.7547	-15.7531	5.31594	0	
0.7553	-7.81709	4.42375	0	
0.7560	-5.08259	-2.00742	0	
0.7567	-6.30123	-4.12636	0	
0.7573	-2.94255	-2.60221	0	
0.7580	2.25893	0.446093	0	
0.7587	6.50929	1.67285	0	
0.7593	14.7722	-1.37545	0	
0.7600	26.9586	-5.65051	0	
0.7607	37.3318	-6.57987	0	
0.7613	40.3933	-3.82896	0	
0.7620	35.5187	1.67285	0	
0.7627	30.9414	4.72115	0	
0.7633	27.88	1.67285	0	
0.7640	22.084	-3.53157	0	
0.7647	15.3667	-2.8996	0	
0.7653	9.86796	0.743488	0	
0.7660	4.36925	4.72115	0	
0.7667	1.93198	6.54269	0	
0.7673	2.55616	1.67285	0	
0.7680	2.25893	-5.35311	0	
0.7687	-0.505287	-4.12636	0	
0.7693	-8.7385	1.67285	0	
0.7700	-19.7359	3.79179	0	
0.7707	-25.2049	5.31594	0	
0.7713	-27.0477	8.9962	0	
0.7720	-29.7822	12.6393	0	
0.7727	-29.485	19.0705	0	
0.7733	-26.4533	24.5351	0	
0.7740	-25.5319	19.3679	0	
0.7747	-21.2518	12.6393	0	
0.7753	-11.473	12.3419	0	
0.7760	-5.08259	8.9962	0	
0.7767	-5.67705	-2.8996	0	
0.7773	-8.14404	-14.2006	0	
0.7780	-6.59846	-22.1559	0	
0.7787	0.416119	-26.7284	0	
0.7793	11.4135	-22.1559	0	
0.7800	26.3641	-10.8549	0	
0.7807	36.4401	-4.75832	0	
0.7813	34.5973	-5.35311	0	
0.7820	29.0986	-4.42375	0	
0.7827	26.9586	-3.82896	0	
0.7833	22.3813	-6.28247	0	
0.7840	16.2881	-5.05572	0	
0.7847	12.6322	-2.30481	0	
0.7853	8.05487	-3.23417	0	
0.7860	1.63475	-1.07806	0	
0.7867	-2.31838	5.31594	0	
0.7873	-6.59846	4.72115	0	
0.7880	-12.0972	2.56503	0	
0.7887	-18.1903	8.9962	0	
0.7893	-25.8291	16.3196	0	
0.7900	-32.8437	17.8437	0	
0.7907	-37.7182	18.1411	0	
0.7913	-41.7011	23.3455	0	
0.7920	-38.6396	29.7395	0	
0.7927	-31.3278	22.4162	0	
0.7933	-29.485	-1.07806	0	
0.7940	-28.8905	-12.9739	0	
0.7947	-23.0946	-4.75832	0	
0.7953	-15.1586	-2.30481	0	
0.7960	-5.08259	-5.98508	0	
0.7967	7.13347	-0.185872	0	
0.7973	17.5067	0.743488	0	
0.7980	24.2241	-15.13	0	
0.7987	26.3641	-27.6206	0	
0.7993	25.4427	-29.4793	0	
0.8000	28.5041	-28.5499	0	
0.8007	34.5973	-22.1559	0	
0.8013	33.9731	-9.62817	0	
0.8020	29.3958	-1.07806	0	
0.8027	26.0372	1.97024	0	
0.8033	23.3027	0.743488	0	
0.8040	19.944	-3.82896	0	
0.8047	15.0694	-8.69881	0	
0.8053	8.94656	-11.4497	0	
0.8060	6.21206	-10.223	0	
0.8067	3.77479	-4.75832	0	
0.8073	-2.02115	-0.185872	0	
0.8080	-3.86396	2.56503	0	
0.8087	-4.45842	3.79179	0	
0.8093	-14.2372	4.08918	0	
0.8100	-26.4533	6.54269	0	
0.8107	-31.625	10.8177	0	
0.8113	-34.0623	11.7471	0	
0.8120	-34.9837	13.866	0	
0.8127	-31.3278	18.1411	0	
0.8133	-25.2049	12.6393	0	
0.8140	-20.3304	-1.07806	0	
0.8147	-16.9717	-5.35311	0	
0.8153	-15.7531	-2.60221	0	
0.8160	-14.8317	-5.65051	0	
0.8167	-12.7213	-13.3084	0	
0.8173	-8.44127	-15.7248	0	
0.8180	0.713347	-13.6058	0	
0.8187	15.0694	-9.92556	0	
0.8193	30.02	-7.50923	0	
0.8200	36.7374	-6.57987	0	
0.8207	36.4401	-6.57987	0	
0.8213	39.1746	-8.10402	0	
0.8220	42.5333	-8.40141	0	
0.8227	37.3318	-5.05572	0	
0.8233	28.8014	-3.53157	0	
0.8240	23.9268	-4.75832	0	
0.8247	15.0694	-4.12636	0	
0.8253	1.93198	-1.07806	0	
0.8260	-6.004	-0.185872	0	
0.8267	-10.2544	-1.07806	0	
0.8273	-12.0972	1.37545	0	
0.8280	-7.22263	5.31594	0	
0.8287	-4.45842	8.06684	0	
0.8293	-13.94	9.88839	0	
0.8300	-23.9863	11.1151	0	
0.8307	-27.6719	9.88839	0	
0.8313	-33.1409	8.69881	0	
0.8320	-37.7182	7.76945	0	
0.8327	-33.1409	6.2453	0	
0.8333	-26.4533	5.9479	0	
0.8340	-22.7676	6.2453	0	
0.8347	-18.5173	2.56503	0	
0.8353	-13.3158	-0.483267	0	
0.8360	-10.2544	-0.185872	0	
0.8367	-6.89568	-0.780662	0	
0.8373	-0.505287	-2.8996	0	
0.8380	2.55616	-3.82896	0	
0.8387	4.99343	-5.98508	0	
0.8393	16.2881	-8.40141	0	
0.8400	28.8014	-8.10402	0	
0.8407	30.02	-7.17466	0	
0.8413	28.1772	-9.03338	0	
0.8420	30.02	-9.03338	0	
0.8427	28.8014	-5.35311	0	
0.8433	24.8185	-1.07806	0	
0.8440	20.8654	1.97024	0	
0.8447	14.4453	3.49439	0	
0.8453	9.86796	2.56503	0	
0.8460	8.05487	1.37545	0	
0.8467	4.99343	2.8996	0	
0.8473	1.33752	4.42375	0	
0.8480	0.713347	4.42375	0	
0.8487	-0.802515	7.13748	0	
0.8493	-8.44127	9.2936	0	
0.8500	-21.2518	9.2936	0	
0.8507	-30.4064	10.223	0	
0.8513	-30.1092	12.3419	0	
0.8520	-27.345	8.06684	0	
0.8527	-26.4533	-1.71002	0	
0.8533	-22.7676	-6.57987	0	
0.8540	-17.5959	-4.75832	0	
0.8547	-15.1586	-1.37545	0	
0.8553	-12.3944	0.446093	0	
0.8560	-7.51986	0.446093	0	
0.8567	-4.16119	-0.185872	0	
0.8573	-2.31838	-1.07806	0	
0.8580	0.416119	-1.07806	0	
0.8587	3.77479	-2.00742	0	
0.8593	9.86796	-4.42375	0	
0.8600	18.7253	-5.65051	0	
0.8607	25.4427	-5.65051	0	
0.8613	26.0372	-5.65051	0	
0.8620	25.4427	-5.65051	0	
0.8627	26.3641	-4.75832	0	
0.8633	23.9268	-3.82896	0	
0.8640	17.2095	-3.23417	0	
0.8647	12.9294	-2.8996	0	
0.8653	10.1949	-2.8996	0	
0.8660	6.50929	-2.00742	0	
0.8667	2.55616	-1.07806	0	
0.8673	0.713347	-1.07806	0	
0.8680	-1.09974	0.446093	0	
0.8687	-6.004	-0.185872	0	
0.8693	-14.8317	-3.53157	0	
0.8700	-23.3918	-2.8996	0	
0.8707	-28.2664	0.148698	0	
0.8713	-30.7036	-0.780662	0	
0.8720	-31.0306	-1.37545	0	
0.8727	-28.5636	0.446093	0	
0.8733	-25.8291	0.743488	0	
0.8740	-22.7676	-0.185872	0	
0.8747	-18.8145	-0.185872	0	
0.8753	-14.8317	1.04088	0	
0.8760	-12.0972	3.197	0	
0.8767	-10.2544	3.79179	0	
0.8773	-7.51986	3.197	0	
0.8780	-3.23978	2.56503	0	
0.8787	1.33752	1.04088	0	
0.8793	9.27351	-2.8996	0	
0.8800	20.5682	-4.42375	0	
0.8807	26.3641	-3.23417	0	
0.8813	26.9586	-2.60221	0	
0.8820	28.1772	-3.53157	0	
0.8827	26.0372	-3.82896	0	
0.8833	20.2412	-2.8996	0	
0.8840	19.944	1.37545	0	
0.8847	19.944	3.79179	0	
0.8853	13.5239	1.37545	0	
0.8860	9.86796	0.743488	0	
0.8867	7.43069	6.84009	0	
0.8873	0.118891	12.9367	0	
0.8880	-3.23978	15.3902	0	
0.8887	-2.94255	15.6876	0	
0.8893	-12.7213	17.2117	0	
0.8900	-23.9863	21.4868	0	
0.8907	-25.8291	20.892	0	
0.8913	-28.5636	4.42375	0	
0.8920	-32.2492	-17.2489	0	
0.8927	-27.6719	-21.2266	0	
0.8933	-22.1732	-10.8549	0	
0.8940	-21.2518	-4.12636	0	
0.8947	-17.8931	-2.8996	0	
0.8953	-12.7213	-2.00742	0	
0.8960	-9.36267	-2.8996	0	
0.8967	-4.78537	-2.30481	0	
0.8973	0.416119	-2.60221	0	
0.8980	1.63475	-6.87726	0	
0.8987	2.85339	-7.50923	0	
0.8993	10.4921	-2.00742	0	
0.9000	23.3027	-1.37545	0	
0.9007	32.7545	-3.82896	0	
0.9013	34.3001	-1.07806	0	
0.9020	31.8628	1.37545	0	
0.9027	30.9414	-0.780662	0	
0.9033	29.0986	-2.8996	0	
0.9040	23.5999	-2.8996	0	
0.9047	15.9909	4.08918	0	
0.9053	8.94656	17.5463	0	
0.9060	3.47756	20.892	0	
0.9067	-2.31838	10.8177	0	
0.9073	-8.44127	0.446093	0	
0.9080	-11.473	-5.65051	0	
0.9087	-14.2372	-12.6765	0	
0.9093	-20.3304	-15.4274	0	
0.9100	-27.6719	-12.9739	0	
0.9107	-30.4064	-9.92556	0	
0.9113	-29.1878	-6.57987	0	
0.9120	-27.6719	-4.75832	0	
0.9127	-23.6891	-7.50923	0	
0.9133	-13.0186	-10.223	0	
0.9140	-2.31838	-9.33077	0	
0.9147	1.0403	-7.80662	0	
0.9153	0.713347	-5.65051	0	
0.9160	3.15061	-2.60221	0	
0.9167	4.36925	-0.185872	0	
0.9173	0.713347	2.8996	0	
0.9180	-5.67705	5.9479	0	
0.9187	-6.59846	3.79179	0	
0.9193	-0.208059	-1.07806	0	
0.9200	8.3521	-2.00742	0	
0.9207	13.2266	-0.780662	0	
0.9213	13.8508	-2.30481	0	
0.9220	13.5239	-4.75832	0	
0.9227	10.7894	-3.82896	0	
0.9233	4.99343	-1.07806	0	
0.9240	1.0403	0.148698	0	
0.9247	-1.09974	-0.483267	0	
0.9253	-3.86396	-0.780662	0	
0.9260	-2.31838	0.148698	0	
0.9267	6.83624	1.67285	0	
0.9273	20.8654	2.56503	0	
0.9280	34.8945	2.26764	0	
0.9287	41.9091	0.743488	0	
0.9293	28.5041	1.04088	0	
0.9300	1.63475	4.72115	0	
0.9307	-16.9717	7.47205	0	
0.9313	-20.9546	8.06684	0	
0.9320	-20.9546	6.2453	0	
0.9327	-20.3304	1.67285	0	
0.9333	-17.2987	-0.185872	0	
0.9340	-12.7213	3.49439	0	
0.9347	-9.36267	5.01854	0	
0.9353	-6.59846	3.79179	0	
0.9360	0.118891	6.2453	0	
0.9367	12.008	7.76945	0	
0.9373	18.7253	3.49439	0	
0.9380	17.8039	1.37545	0	
0.9387	19.944	0.743488	0	
0.9393	27.2855	-4.75832	0	
0.9400	32.16	-12.3791	0	
0.9407	35.1918	-11.7471	0	
0.9413	35.5187	-5.65051	0	
0.9420	31.5359	-2.8996	0	
0.9427	22.6785	-2.8996	0	
0.9433	11.0866	0.743488	0	
0.9440	2.25893	4.72115	0	
0.9447	0.713347	3.197	0	
0.9453	-0.208059	1.67285	0	
0.9460	-4.16119	3.197	0	
0.9467	-6.004	3.197	0	
0.9473	-5.37982	2.8996	0	
0.9480	-7.81709	5.01854	0	
0.9487	-12.0972	3.197	0	
0.9493	-16.6745	0.743488	0	
0.9500	-23.3918	4.42375	0	
0.9507	-31.9223	8.06684	0	
0.9513	-35.9051	4.42375	0	
0.9520	-31.3278	1.97024	0	
0.9527	-24.9077	1.67285	0	
0.9533	-22.1732	-0.483267	0	
0.9540	-20.3304	-2.30481	0	
0.9547	-16.6745	-1.07806	0	
0.9553	-14.8317	-0.780662	0	
0.9560	-13.0186	-2.00742	0	
0.9567	-9.03572	-2.60221	0	
0.9573	-6.89568	-1.07806	0	
0.9580	-4.78537	1.04088	0	
0.9587	1.0403	2.56503	0	
0.9593	8.94656	-0.185872	0	
0.9600	18.4281	-3.82896	0	
0.9607	26.9586	-2.8996	0	
0.9613	30.6145	-2.00742	0	
0.9620	30.6145	-2.30481	0	
0.9627	27.5827	-1.71002	0	
0.9633	22.084	-0.185872	0	
0.9640	17.8039	-0.483267	0	
0.9647	15.0694	0.743488	0	
0.9653	8.94656	2.56503	0	
0.9660	3.47756	1.67285	0	
0.9667	2.25893	-0.185872	0	
0.9673	0.713347	0.148698	0	
0.9680	-2.02115	0.148698	0	
0.9687	-6.59846	0.743488	0	
0.9693	-16.3772	3.49439	0	
0.9700	-26.7505	5.31594	0	
0.9707	-33.7651	5.31594	0	
0.9713	-37.7182	4.42375	0	
0.9720	-36.8265	3.197	0	
0.9727	-31.3278	0.446093	0	
0.9733	-24.3132	-2.30481	0	
0.9740	-17.8931	-3.82896	0	
0.9747	-13.3158	-3.82896	0	
0.9753	-9.6599	-3.53157	0	
0.9760	-3.53701	-3.82896	0	
0.9767	2.55616	-5.05572	0	
0.9773	3.47756	-5.98508	0	
0.9780	4.36925	-6.87726	0	
0.9787	7.13347	-9.03338	0	
0.9793	10.1949	-9.33077	0	
0.9800	16.8825	-7.17466	0	
0.9807	23.3027	-5.98508	0	
0.9813	24.2241	-6.28247	0	
0.9820	24.5213	-3.82896	0	
0.9827	24.5213	-0.185872	0	
0.9833	18.7253	0.446093	0	
0.9840	13.2266	0.148698	0	
0.9847	13.2266	0.743488	0	
0.9853	12.008	-0.780662	0	
0.9860	10.1949	-2.8996	0	
0.9867	12.6322	-1.71002	0	
0.9873	13.2266	0.743488	0	
0.9880	9.86796	1.04088	0	
0.9887	5.29065	2.26764	0	
0.9893	-3.86396	4.08918	0	
0.9900	-16.6745	2.8996	0	
0.9907	-23.0946	0.148698	0	
0.9913	-23.0946	0.743488	0	
0.9920	-21.549	2.8996	0	
0.9927	-20.3304	3.49439	0	
0.9933	-18.5173	2.56503	0	
0.9940	-15.4558	2.56503	0	
0.9947	-10.5813	2.8996	0	
0.9953	-6.89568	2.26764	0	
0.9960	-4.78537	-0.185872	0	
0.9967	-1.09974	-2.00742	0	
0.9973	2.85339	-1.71002	0	
0.9980	5.29065	-0.483267	0	
0.9987	7.72792	0.743488	0	
0.9993	14.148	0.743488	0	
1.0000	25.1455	-1.07806	0	
1.0007	32.16	-1.07806	0	
1.0013	30.9414	-0.185872	0	
1.0020	29.3958	-3.82896	0	
1.0027	29.7228	-5.65051	0	
1.0033	24.8185	-2.30481	0	
1.0040	16.5853	-2.00742	0	
1.0047	11.7108	-5.05572	0	
1.0053	8.05487	-4.12636	0	
1.0060	4.07202	-2.30481	0	
1.0067	1.93198	-2.00742	0	
1.0073	1.93198	-0.185872	0	
1.0080	1.0403	0.446093	0	
1.0087	-5.08259	-1.71002	0	
1.0093	-15.7531	-0.185872	0	
1.0100	-24.6105	3.197	0	
1.0107	-29.485	2.8996	0	
1.0113	-32.8437	0.148698	0	
1.0120	-32.2492	-1.07806	0	
1.0127	-27.6719	-1.37545	0	
1.0133	-22.1732	-2.00742	0	
1.0140	-17.5959	-2.8996	0	
1.0147	-13.3158	-3.23417	0	
1.0153	-8.44127	-3.82896	0	
1.0160	-5.67705	-5.65051	0	
1.0167	-6.59846	-4.75832	0	
1.0173	-5.67705	-2.30481	0	
1.0180	-1.09974	-3.82896	0	
1.0187	4.07202	-5.98508	0	
1.0193	12.6322	-5.65051	0	
1.0200	22.6785	-5.98508	0	
1.0207	25.7399	-5.05572	0	
1.0213	25.4427	-3.23417	0	
1.0220	27.2855	-3.53157	0	
1.0227	25.1455	-2.60221	0	
1.0233	18.1012	1.67285	0	
1.0240	14.148	3.197	0	
1.0247	8.64933	3.49439	0	
1.0253	-0.208059	6.2453	0	
1.0260	-3.86396	6.2453	0	
1.0267	-4.78537	3.197	0	
1.0273	-8.14404	3.49439	0	
1.0280	-10.2544	5.9479	0	
1.0287	-13.0186	5.9479	0	
1.0293	-21.876	5.9479	0	
1.0300	-31.9223	3.49439	0	
1.0307	-35.9051	-3.53157	0	
1.0313	-34.9837	-7.50923	0	
1.0320	-31.0306	-4.75832	0	
1.0327	-25.8291	-1.37545	0	
1.0333	-19.409	0.743488	0	
1.0340	-13.94	1.97024	0	
1.0347	-11.7999	-0.185872	0	
1.0353	-11.1758	-2.60221	0	
1.0360	-7.51986	-0.185872	0	
1.0367	-3.86396	0.743488	0	
1.0373	-1.72392	-1.71002	0	
1.0380	0.713347	-2.60221	0	
1.0387	3.15061	-2.30481	0	
1.0393	9.86796	-3.82896	0	
1.0400	21.4598	-4.42375	0	
1.0407	28.8014	-3.82896	0	
1.0413	28.5041	-2.8996	0	
1.0420	28.8014	-1.07806	0	
1.0427	28.1772	0.148698	0	
1.0433	22.6785	0.148698	0	
1.0440	18.4281	0.743488	0	
1.0447	17.8039	3.49439	0	
1.0453	13.5239	5.61333	0	
1.0460	8.64933	5.01854	0	
1.0467	6.21206	1.67285	0	
1.0473	3.77479	0.743488	0	
1.0480	0.118891	3.197	0	
1.0487	-6.59846	5.01854	0	
1.0493	-16.6745	3.79179	0	
1.0500	-23.9863	2.56503	0	
1.0507	-25.8291	3.49439	0	
1.0513	-29.485	5.31594	0	
1.0520	-33.1409	4.72115	0	
1.0527	-30.7036	2.26764	0	
1.0533	-25.8291	0.148698	0	
1.0540	-21.2518	-0.780662	0	
1.0547	-16.6745	-2.00742	0	
1.0553	-11.473	-2.00742	0	
1.0560	-6.59846	-0.483267	0	
1.0567	-2.94255	0.446093	0	
1.0573	-2.02115	1.04088	0	
1.0580	-1.72392	2.26764	0	
1.0587	4.07202	1.04088	0	
1.0593	15.3667	-2.8996	0	
1.0600	29.0986	-4.75832	0	
1.0607	41.3147	-3.82896	0	
1.0613	49.5479	-2.30481	0	
1.0620	55.3438	-1.71002	0	
1.0627	55.968	-1.71002	0	
1.0633	45.5947	-2.60221	0	
1.0640	30.9414	-2.8996	0	
1.0647	22.6785	-2.60221	0	
1.0653	15.3667	-2.00742	0	
1.0660	3.47756	-0.185872	0	
1.0667	-5.67705	2.56503	0	
1.0673	-9.36267	1.67285	0	
1.0680	-11.7999	-0.185872	0	
1.0687	-16.3772	0.743488	0	
1.0693	-25.2049	2.56503	0	
1.0700	-34.9837	1.04088	0	
1.0707	-37.421	0.446093	0	
1.0713	-34.3893	2.56503	0	
1.0720	-31.0306	4.08918	0	
1.0727	-27.6719	4.42375	0	
1.0733	-24.6105	3.49439	0	
1.0740	-21.549	3.197	0	
1.0747	-18.5173	4.42375	0	
1.0753	-16.0503	4.08918	0	
1.0760	-13.94	0.446093	0	
1.0767	-9.95713	-1.71002	0	
1.0773	-5.08259	-0.483267	0	
1.0780	-3.86396	-0.780662	0	
1.0787	-1.72392	-2.8996	0	
1.0793	6.50929	-5.65051	0	
1.0800	17.2095	-12.0817	0	
1.0807	21.7868	-15.13	0	
1.0813	21.7868	-11.4497	0	
1.0820	23.0054	-9.33077	0	
1.0827	25.1455	-9.33077	0	
1.0833	25.7399	-4.12636	0	
1.0840	23.5999	0.743488	0	
1.0847	17.5067	2.56503	0	
1.0853	9.86796	4.42375	0	
1.0860	5.29065	3.49439	0	
1.0867	0.713347	0.148698	0	
1.0873	-2.94255	2.56503	0	
1.0880	-3.23978	5.31594	0	
1.0887	-6.30123	3.49439	0	
1.0893	-14.8317	1.97024	0	
1.0900	-23.6891	3.79179	0	
1.0907	-29.485	6.84009	0	
1.0913	-31.625	8.9962	0	
1.0920	-30.4064	6.54269	0	
1.0927	-26.7505	1.04088	0	
1.0933	-21.2518	-0.483267	0	
1.0940	-13.0186	-0.483267	0	
1.0947	-6.89568	-2.00742	0	
1.0953	-5.37982	-1.07806	0	
1.0960	-3.86396	1.04088	0	
1.0967	-1.09974	-1.07806	0	
1.0973	1.0403	-3.82896	0	
1.0980	3.47756	-3.53157	0	
1.0987	8.64933	-3.53157	0	
1.0993	17.5067	-4.42375	0	
1.1000	28.5041	-4.42375	0	
1.1007	33.9731	-5.35311	0	
1.1013	30.9414	-5.65051	0	
1.1020	27.5827	-4.42375	0	
1.1027	25.7399	-3.53157	0	
1.1033	21.7868	-2.00742	0	
1.1040	17.5067	2.8996	0	
1.1047	14.4453	3.79179	0	
1.1053	10.7894	0.743488	0	
1.1060	7.13347	2.56503	0	
1.1067	3.77479	5.61333	0	
1.1073	0.713347	4.08918	0	
1.1080	-1.09974	2.56503	0	
1.1087	-5.67705	4.08918	0	
1.1093	-14.5344	5.31594	0	
1.1100	-23.3918	6.2453	0	
1.1107	-28.8905	8.06684	0	
1.1113	-32.5464	10.223	0	
1.1120	-33.1409	9.59099	0	
1.1127	-29.1878	5.31594	0	
1.1133	-23.9863	4.42375	0	
1.1140	-20.9546	7.47205	0	
1.1147	-17.2987	6.2453	0	
1.1153	-12.7213	1.97024	0	
1.1160	-8.14404	1.67285	0	
1.1167	-2.02115	1.67285	0	
1.1173	3.77479	0.743488	0	
1.1180	5.91483	2.26764	0	
1.1187	8.64933	2.26764	0	
1.1193	16.8825	-0.483267	0	
1.1200	25.1455	-1.07806	0	
1.1207	29.3958	-0.185872	0	
1.1213	32.16	-0.185872	0	
1.1220	31.8628	-1.07806	0	
1.1227	26.0372	-1.07806	0	
1.1233	19.944	0.446093	0	
1.1240	17.5067	1.04088	0	
1.1247	14.148	-0.780662	0	
1.1253	8.3521	-1.37545	0	
1.1260	5.29065	-0.185872	0	
1.1267	3.47756	-2.00742	0	
1.1273	-2.94255	-3.82896	0	
1.1280	-8.14404	-2.60221	0	
1.1287	-9.36267	-2.8996	0	
1.1293	-15.4558	-3.82896	0	
1.1300	-25.5319	-2.00742	0	
1.1307	-31.625	1.37545	0	
1.1313	-33.1409	2.26764	0	
1.1320	-32.2492	1.37545	0	
1.1327	-28.8905	-0.483267	0	
1.1333	-25.8291	-0.185872	0	
1.1340	-20.6276	-0.185872	0	
1.1347	-14.5344	-1.07806	0	
1.1353	-10.5813	0.446093	0	
1.1360	-6.30123	1.97024	0	
1.1367	-0.208059	-0.780662	0	
1.1373	3.15061	-2.8996	0	
1.1380	4.36925	-1.07806	0	
1.1387	8.64933	-2.00742	0	
1.1393	14.7722	-4.75832	0	
1.1400	22.6785	-5.05572	0	
1.1407	30.6145	-5.35311	0	
1.1413	31.2386	-7.50923	0	
1.1420	25.7399	-7.17466	0	
1.1427	21.7868	-4.42375	0	
1.1433	19.0226	-3.82896	0	
1.1440	15.0694	-3.82896	0	
1.1447	10.4921	-2.00742	0	
1.1453	7.43069	-0.185872	0	
1.1460	4.36925	-0.185872	0	
1.1467	1.63475	0.743488	0	
1.1473	0.118891	1.67285	0	
1.1480	-1.72392	3.197	0	
1.1487	-6.59846	4.42375	0	
1.1493	-14.5344	4.42375	0	
1.1500	-24.9077	3.79179	0	
1.1507	-32.2492	5.31594	0	
1.1513	-32.2492	5.31594	0	
1.1520	-29.1878	3.79179	0	
1.1527	-25.2049	1.97024	0	
1.1533	-20.0332	-2.00742	0	
1.1540	-16.3772	-5.65051	0	
1.1547	-13.94	-4.12636	0	
1.1553	-9.36267	-1.37545	0	
1.1560	-6.59846	-1.07806	0	
1.1567	-4.78537	-2.00742	0	
1.1573	2.55616	-3.82896	0	
1.1580	12.008	-6.57987	0	
1.1587	19.0226	-9.33077	0	
1.1593	26.6613	-9.33077	0	
1.1600	34.5973	-7.80662	0	
1.1607	37.956	-5.35311	0	
1.1613	36.4401	-5.65051	0	
1.1620	32.7545	-8.10402	0	
1.1627	27.5827	-8.40141	0	
1.1633	19.0226	-6.28247	0	
1.1640	8.05487	-3.82896	0	
1.1647	-0.208059	-3.82896	0	
1.1653	-3.53701	-2.8996	0	
1.1660	-4.78537	-0.483267	0	
1.1667	-8.14404	1.04088	0	
1.1673	-11.1758	-0.185872	0	
1.1680	-11.473	-0.780662	0	
1.1687	-13.0186	1.97024	0	
1.1693	-20.0332	5.9479	0	
1.1700	-29.7822	9.2936	0	
1.1707	-34.0623	10.223	0	
1.1713	-33.1409	8.36424	0	
1.1720	-30.7036	8.06684	0	
1.1727	-26.1263	6.2453	0	
1.1733	-19.409	-1.07806	0	
1.1740	-16.6745	-5.98508	0	
1.1747	-15.1586	-3.82896	0	
1.1753	-9.6599	-1.37545	0	
1.1760	-3.86396	0.743488	0	
1.1767	-1.42669	1.67285	0	
1.1773	0.713347	-2.8996	0	
1.1780	4.36925	-5.05572	0	
1.1787	8.94656	-2.60221	0	
1.1793	15.0694	-3.82896	0	
1.1800	23.9268	-7.50923	0	
1.1807	30.02	-5.98508	0	
1.1813	30.9414	-4.75832	0	
1.1820	29.3958	-5.65051	0	
1.1827	26.9586	-3.82896	0	
1.1833	21.7868	-0.185872	0	
1.1840	14.4453	0.148698	0	
1.1847	10.1949	-1.07806	0	
1.1853	9.86796	-1.07806	0	
1.1860	7.13347	1.67285	0	
1.1867	1.63475	5.31594	0	
1.1873	-2.31838	4.72115	0	
1.1880	-5.37982	4.42375	0	
1.1887	-9.36267	6.54269	0	
1.1893	-15.7531	7.47205	0	
1.1900	-24.6105	7.13748	0	
1.1907	-32.2492	7.13748	0	
1.1913	-32.5464	5.31594	0	
1.1920	-28.5636	3.79179	0	
1.1927	-24.3132	6.2453	0	
1.1933	-20.6276	6.84009	0	
1.1940	-16.3772	4.42375	0	
1.1947	-11.473	3.197	0	
1.1953	-7.22263	2.8996	0	
1.1960	-5.37982	2.8996	0	
1.1967	-2.94255	2.8996	0	
1.1973	1.93198	0.743488	0	
1.1980	4.36925	-0.185872	0	
1.1987	6.83624	1.67285	0	
1.1993	17.2095	1.67285	0	
1.2000	28.8014	-2.8996	0	
1.2007	31.5359	-3.82896	0	
1.2013	30.02	-2.8996	0	
1.2020	31.8628	-3.23417	0	
1.2027	32.4573	-3.82896	0	
1.2033	27.2855	-2.30481	0	
1.2040	18.7253	1.67285	0	
1.2047	12.6322	6.2453	0	
1.2053	8.94656	6.2453	0	
1.2060	3.47756	4.42375	0	
1.2067	-1.09974	6.2453	0	
1.2073	-1.72392	7.13748	0	
1.2080	-2.02115	5.9479	0	
1.2087	-7.51986	8.36424	0	
1.2093	-15.7531	9.59099	0	
1.2100	-23.3918	6.2453	0	
1.2107	-29.485	7.13748	0	
1.2113	-31.9223	10.8177	0	
1.2120	-30.7036	8.69881	0	
1.2127	-29.485	5.61333	0	
1.2133	-26.4533	4.42375	0	
1.2140	-20.3304	2.26764	0	
1.2147	-14.8317	3.49439	0	
1.2153	-11.7999	5.31594	0	
1.2160	-8.7385	0.446093	0	
1.2167	-4.78537	-5.35311	0	
1.2173	-2.02115	-4.75832	0	
1.2180	-0.505287	-3.53157	0	
1.2187	3.77479	-4.12636	0	
1.2193	13.2266	-5.05572	0	
1.2200	23.5999	-5.05572	0	
1.2207	28.1772	-3.82896	0	
1.2213	27.5827	-1.71002	0	
1.2220	26.9586	-0.483267	0	
1.2227	26.9586	-2.8996	0	
1.2233	23.3027	-4.12636	0	
1.2240	17.2095	-2.00742	0	
1.2247	13.8508	0.743488	0	
1.2253	12.6322	1.04088	0	
1.2260	9.86796	-0.185872	0	
1.2267	8.05487	-1.07806	0	
1.2273	8.64933	-2.00742	0	
1.2280	5.6176	-2.00742	0	
1.2287	-2.94255	-1.07806	0	
1.2293	-10.8785	-0.483267	0	
1.2300	-16.3772	-1.37545	0	
1.2307	-22.7676	-2.30481	0	
1.2313	-27.9691	-1.37545	0	
1.2320	-28.2664	-0.483267	0	
1.2327	-23.9863	-1.07806	0	
1.2333	-19.409	-0.780662	0	
1.2340	-15.7531	-0.185872	0	
1.2347	-11.7999	-1.07806	0	
1.2353	-8.44127	-1.37545	0	
1.2360	-6.59846	-1.07806	0	
1.2367	-2.94255	-2.00742	0	
1.2373	1.63475	-1.07806	0	
1.2380	1.63475	1.37545	0	
1.2387	2.25893	-0.780662	0	
1.2393	12.3052	-5.98508	0	
1.2400	24.2241	-7.50923	0	
1.2407	27.5827	-7.50923	0	
1.2413	26.3641	-9.33077	0	
1.2420	26.0372	-8.10402	0	
1.2427	25.1455	-3.82896	0	
1.2433	22.6785	-3.82896	0	
1.2440	17.8039	-5.05572	0	
1.2447	11.0866	-3.53157	0	
1.2453	8.64933	-0.185872	0	
1.2460	8.64933	0.743488	0	
1.2467	5.6176	-0.185872	0	
1.2473	1.0403	-1.07806	0	
1.2480	-2.64533	-0.780662	0	
1.2487	-7.81709	1.97024	0	
1.2493	-16.3772	3.49439	0	
1.2500	-23.9863	0.743488	0	
1.2507	-27.6719	-0.780662	0	
1.2513	-28.5636	2.56503	0	
1.2520	-28.2664	3.79179	0	
1.2527	-26.1263	-0.185872	0	
1.2533	-22.1732	-3.23417	0	
1.2540	-16.6745	-1.71002	0	
1.2547	-11.1758	-1.71002	0	
1.2553	-7.51986	-3.23417	0	
1.2560	-5.67705	-2.60221	0	
1.2567	-3.86396	-1.71002	0	
1.2573	0.118891	-2.8996	0	
1.2580	3.15061	-3.23417	0	
1.2587	7.13347	-3.82896	0	
1.2593	15.3667	-5.05572	0	
1.2600	23.5999	-5.65051	0	
1.2607	26.3641	-7.17466	0	
1.2613	28.1772	-7.50923	0	
1.2620	29.7228	-4.75832	0	
1.2627	25.1455	-4.42375	0	
1.2633	19.944	-5.05572	0	
1.2640	18.7253	-1.07806	0	
1.2647	14.148	0.148698	0	
1.2653	7.43069	-4.12636	0	
1.2660	6.21206	-3.82896	0	
1.2667	4.36925	-0.185872	0	
1.2673	-0.208059	-1.37545	0	
1.2680	-3.23978	-1.37545	0	
1.2687	-9.03572	2.56503	0	
1.2693	-20.3304	4.72115	0	
1.2700	-29.485	7.13748	0	
1.2707	-33.7651	8.9962	0	
1.2713	-34.6865	6.2453	0	
1.2720	-31.9223	2.8996	0	
1.2727	-29.1878	2.56503	0	
1.2733	-27.0477	2.8996	0	
1.2740	-21.876	1.67285	0	
1.2747	-17.2987	-0.185872	0	
1.2753	-14.2372	-0.780662	0	
1.2760	-7.81709	-1.07806	0	
1.2767	-1.72392	-1.07806	0	
1.2773	-1.09974	-1.07806	0	
1.2780	-2.02115	-2.00742	0	
1.2787	2.55616	-4.12636	0	
1.2793	15.3667	-5.35311	0	
1.2800	30.9414	-7.17466	0	
1.2807	39.1746	-8.40141	0	
1.2813	40.6905	-3.82896	0	
1.2820	39.7691	1.67285	0	
1.2827	34.3001	2.56503	0	
1.2833	25.1455	3.49439	0	
1.2840	18.1012	5.9479	0	
1.2847	11.7108	5.61333	0	
1.2853	4.07202	5.31594	0	
1.2860	-3.86396	5.31594	0	
1.2867	-13.0186	3.79179	0	
1.2873	-17.5959	4.42375	0	
1.2880	-15.1586	6.2453	0	
1.2887	-16.3772	6.2453	0	
1.2893	-27.6719	8.36424	0	
1.2900	-38.3424	11.4125	0	
1.2907	-38.9666	10.5204	0	
1.2913	-32.8437	7.13748	0	
1.2920	-28.2664	4.72115	0	
1.2927	-26.7505	4.42375	0	
1.2933	-23.6891	4.08918	0	
1.2940	-17.5959	1.67285	0	
1.2947	-13.94	-0.780662	0	
1.2953	-10.8785	-1.07806	0	
1.2960	-6.30123	-1.07806	0	
1.2967	-1.42669	-2.8996	0	
1.2973	2.55616	-3.82896	0	
1.2980	4.99343	-5.65051	0	
1.2987	6.21206	-6.28247	0	
1.2993	13.2266	-4.75832	0	
1.3000	24.5213	-5.35311	0	
1.3007	30.9414	-5.65051	0	
1.3013	30.9414	-2.60221	0	
1.3020	28.5041	-1.37545	0	
1.3027	24.2241	-3.53157	0	
1.3033	18.7253	-1.71002	0	
1.3040	14.4453	2.56503	0	
1.3047	10.1949	1.97024	0	
1.3053	6.50929	-1.71002	0	
1.3060	4.36925	-4.75832	0	
1.3067	1.63475	-6.87726	0	
1.3073	-1.72392	-5.05572	0	
1.3080	-2.94255	-2.60221	0	
1.3087	-7.81709	-1.07806	0	
1.3093	-18.8145	1.97024	0	
1.3100	-27.6719	3.49439	0	
1.3107	-30.4064	1.04088	0	
1.3113	-31.3278	-0.483267	0	
1.3120	-30.7036	1.04088	0	
1.3127	-27.6719	1.67285	0	
1.3133	-23.9863	-0.185872	0	
1.3140	-19.409	-2.30481	0	
1.3147	-15.1586	-3.82896	0	
1.3153	-11.473	-3.53157	0	
1.3160	-6.89568	-1.71002	0	
1.3167	-2.94255	-1.71002	0	
1.3173	-1.09974	-2.8996	0	
1.3180	1.93198	-2.8996	0	
1.3187	8.64933	-3.23417	0	
1.3193	18.1012	-4.42375	0	
1.3200	28.1772	-4.12636	0	
1.3207	33.9731	-3.82896	0	
1.3213	33.9731	-5.05572	0	
1.3220	31.2386	-6.57987	0	
1.3227	27.2855	-5.65051	0	
1.3233	22.084	-4.75832	0	
1.3240	19.3495	-4.75832	0	
1.3247	17.8039	-2.8996	0	
1.3253	13.5239	1.67285	0	
1.3260	8.05487	3.79179	0	
1.3267	3.77479	3.49439	0	
1.3273	0.416119	4.72115	0	
1.3280	-2.64533	6.84009	0	
1.3287	-8.7385	7.47205	0	
1.3293	-20.6276	8.9962	0	
1.3300	-28.5636	10.223	0	
1.3307	-27.9691	8.9962	0	
1.3313	-28.5636	8.69881	0	
1.3320	-29.7822	10.223	0	
1.3327	-25.2049	8.9962	0	
1.3333	-19.1117	5.31594	0	
1.3340	-15.1586	3.197	0	
1.3347	-10.2544	1.37545	0	
1.3353	-7.22263	0.446093	0	
1.3360	-6.30123	2.26764	0	
1.3367	-2.02115	0.148698	0	
1.3373	2.25893	-4.12636	0	
1.3380	3.47756	-3.82896	0	
1.3387	9.86796	-1.37545	0	
1.3393	20.5682	-2.8996	0	
1.3400	27.2855	-3.82896	0	
1.3407	30.3172	-3.53157	0	
1.3413	31.2386	-6.57987	0	
1.3420	27.88	-9.92556	0	
1.3427	24.5213	-8.40141	0	
1.3433	22.084	-5.35311	0	
1.3440	15.6639	-4.42375	0	
1.3447	8.94656	-3.82896	0	
1.3453	8.05487	-2.60221	0	
1.3460	5.29065	-0.185872	0	
1.3467	-0.208059	2.26764	0	
1.3473	-0.802515	2.8996	0	
1.3480	-0.505287	1.97024	0	
1.3487	-7.51986	2.26764	0	
1.3493	-17.5959	5.61333	0	
1.3500	-23.9863	10.5204	0	
1.3507	-27.6719	11.7471	0	
1.3513	-28.5636	9.59099	0	
1.3520	-26.4533	7.13748	0	
1.3527	-21.876	6.2453	0	
1.3533	-17.2987	2.8996	0	
1.3540	-13.613	-0.185872	0	
1.3547	-9.36267	0.743488	0	
1.3553	-2.94255	2.26764	0	
1.3560	2.55616	1.67285	0	
1.3567	4.36925	1.67285	0	
1.3573	4.6962	-0.185872	0	
1.3580	5.6176	-2.8996	0	
1.3587	9.86796	-2.8996	0	
1.3593	18.1012	-3.82896	0	
1.3600	27.2855	-5.98508	0	
1.3607	33.3787	-4.75832	0	
1.3613	34.3001	-3.82896	0	
1.3620	30.9414	-4.75832	0	
1.3627	26.0372	-2.30481	0	
1.3633	21.7868	-1.37545	0	
1.3640	17.8039	-3.53157	0	
1.3647	12.6322	-1.07806	0	
1.3653	7.13347	0.743488	0	
1.3660	4.36925	-2.00742	0	
1.3667	2.85339	-0.780662	0	
1.3673	-0.208059	2.26764	0	
1.3680	-3.53701	1.37545	0	
1.3687	-7.51986	0.743488	0	
1.3693	-14.8317	1.04088	0	
1.3700	-22.4704	1.67285	0	
1.3707	-26.7505	4.42375	0	
1.3713	-29.485	4.42375	0	
1.3720	-30.4064	0.743488	0	
1.3727	-26.7505	1.37545	0	
1.3733	-23.3918	2.56503	0	
1.3740	-20.9546	-0.185872	0	
1.3747	-15.1586	-1.37545	0	
1.3753	-8.7385	-1.07806	0	
1.3760	-6.59846	-2.30481	0	
1.3767	-5.67705	-1.71002	0	
1.3773	-3.23978	1.37545	0	
1.3780	0.118891	0.446093	0	
1.3787	3.47756	-2.30481	0	
1.3793	9.86796	-2.30481	0	
1.3800	20.2412	-2.8996	0	
1.3807	28.1772	-4.12636	0	
1.3813	27.2855	-3.82896	0	
1.3820	23.9268	-2.00742	0	
1.3827	23.5999	-4.12636	0	
1.3833	19.3495	-7.50923	0	
1.3840	14.148	-3.82896	0	
1.3847	13.5239	-0.780662	0	
1.3853	12.3052	-2.8996	0	
1.3860	7.43069	-2.00742	0	
1.3867	4.36925	2.26764	0	
1.3873	2.25893	0.743488	0	
1.3880	-0.802515	-2.30481	0	
1.3887	-4.16119	1.67285	0	
1.3893	-14.2372	4.72115	0	
1.3900	-26.1263	4.42375	0	
1.3907	-30.4064	6.84009	0	
1.3913	-31.3278	8.9962	0	
1.3920	-30.4064	8.9962	0	
1.3927	-21.876	11.4125	0	
1.3933	-10.5813	11.4125	0	
1.3940	-5.37982	6.54269	0	
1.3947	-2.31838	3.197	0	
1.3953	0.713347	0.446093	0	
1.3960	3.15061	-2.60221	0	
1.3967	6.21206	-1.37545	0	
1.3973	6.50929	-0.185872	0	
1.3980	2.85339	-1.37545	0	
1.3987	2.25893	-2.00742	0	
1.3993	6.21206	-2.8996	0	
1.4000	11.7108	-5.05572	0	
1.4007	17.2095	-3.82896	0	
1.4013	21.4598	-1.71002	0	
1.4020	19.944	-2.30481	0	
1.4027	14.4453	-2.30481	0	
1.4033	11.4135	-2.30481	0	
1.4040	9.86796	-3.23417	0	
1.4047	5.6176	-2.00742	0	
1.4053	2.25893	-1.07806	0	
1.4060	1.93198	-0.185872	0	
1.4067	-0.208059	2.8996	0	
1.4073	-5.08259	1.67285	0	
1.4080	-7.22263	-1.37545	0	
1.4087	-9.36267	1.67285	0	
1.4093	-18.5173	5.61333	0	
1.4100	-28.8905	4.42375	0	
1.4107	-31.625	4.72115	0	
1.4113	-32.8437	6.84009	0	
1.4120	-34.0623	5.01854	0	
1.4127	-29.485	2.56503	0	
1.4133	-23.0946	3.49439	0	
1.4140	-21.549	2.8996	0	
1.4147	-18.5173	-1.07806	0	
1.4153	-11.473	-1.07806	0	
1.4160	-8.7385	1.37545	0	
1.4167	-7.81709	0.446093	0	
1.4173	-2.94255	-1.07806	0	
1.4180	0.416119	0.446093	0	
1.4187	2.85339	1.37545	0	
1.4193	13.8508	0.743488	0	
1.4200	27.2855	0.446093	0	
1.4207	31.5359	-1.37545	0	
1.4213	29.7228	-2.8996	0	
1.4220	28.8014	-1.71002	0	
1.4227	26.3641	-1.37545	0	
1.4233	21.7868	-2.8996	0	
1.4240	17.2095	-2.00742	0	
1.4247	12.008	0.148698	0	
1.4253	5.91483	0.446093	0	
1.4260	2.85339	-1.07806	0	
1.4267	2.25893	-2.30481	0	
1.4273	-0.208059	-1.71002	0	
1.4280	-3.86396	-0.185872	0	
1.4287	-8.14404	1.37545	0	
1.4293	-16.6745	2.56503	0	
1.4300	-26.7505	3.49439	0	
1.4307	-32.5464	5.31594	0	
1.4313	-33.1409	5.31594	0	
1.4320	-30.4064	1.97024	0	
1.4327	-25.8291	-1.07806	0	
1.4333	-21.549	-1.07806	0	
1.4340	-17.5959	-2.00742	0	
1.4347	-12.3944	-1.37545	0	
1.4353	-7.51986	0.743488	0	
1.4360	-3.86396	0.743488	0	
1.4367	-0.208059	-0.483267	0	
1.4373	2.55616	-1.71002	0	
1.4380	5.29065	-3.82896	0	
1.4387	8.94656	-3.82896	0	
1.4393	15.3667	-1.37545	0	
1.4400	21.7868	-3.82896	0	
1.4407	26.6613	-7.17466	0	
1.4413	26.3641	-5.98508	0	
1.4420	23.3027	-5.05572	0	
1.4427	21.7868	-5.65051	0	
1.4433	19.6468	-4.75832	0	
1.4440	13.2266	-4.75832	0	
1.4447	7.13347	-6.57987	0	
1.4453	5.29065	-5.65051	0	
1.4460	3.15061	-2.60221	0	
1.4467	-1.09974	0.743488	0	
1.4473	-3.86396	1.67285	0	
1.4480	-2.64533	0.446093	0	
1.4487	-4.78537	1.04088	0	
1.4493	-14.8317	3.49439	0	
1.4500	-25.5319	4.72115	0	
1.4507	-29.7822	6.54269	0	
1.4513	-30.7036	6.2453	0	
1.4520	-29.1878	2.8996	0	
1.4527	-23.0946	1.67285	0	
1.4533	-18.1903	1.04088	0	
1.4540	-15.7531	-4.12636	0	
1.4547	-9.03572	-9.33077	0	
1.4553	-2.64533	-8.40141	0	
1.4560	-2.31838	-5.65051	0	
1.4567	-0.208059	-4.75832	0	
1.4573	6.21206	-5.05572	0	
1.4580	8.94656	-5.65051	0	
1.4587	9.57073	-4.12636	0	
1.4593	17.2095	-3.82896	0	
1.4600	27.2855	-6.57987	0	
1.4607	30.9414	-6.87726	0	
1.4613	30.9414	-5.05572	0	
1.4620	30.9414	-5.98508	0	
1.4627	28.1772	-6.57987	0	
1.4633	22.6785	-3.82896	0	
1.4640	17.2095	-1.71002	0	
1.4647	12.3052	0.743488	0	
1.4653	8.94656	2.56503	0	
1.4660	5.6176	2.56503	0	
1.4667	1.63475	3.197	0	
1.4673	-1.42669	2.56503	0	
1.4680	-2.94255	0.148698	0	
1.4687	-6.59846	0.743488	0	
1.4693	-15.7531	4.42375	0	
1.4700	-23.0946	5.61333	0	
1.4707	-26.4533	6.2453	0	
1.4713	-27.6719	6.2453	0	
1.4720	-27.6719	3.79179	0	
1.4727	-23.9863	3.197	0	
1.4733	-16.6745	4.72115	0	
1.4740	-11.473	4.42375	0	
1.4747	-9.6599	4.08918	0	
1.4753	-7.81709	4.08918	0	
1.4760	-2.02115	1.97024	0	
1.4767	7.13347	1.37545	0	
1.4773	16.5853	-0.185872	0	
1.4780	20.8654	-5.35311	0	
1.4787	22.6785	-9.62817	0	
1.4793	28.5041	-9.33077	0	
1.4800	35.5187	-7.50923	0	
1.4807	35.1918	-6.57987	0	
1.4813	31.2386	-7.17466	0	
1.4820	27.88	-8.40141	0	
1.4827	20.8654	-6.87726	0	
1.4833	10.1949	-3.82896	0	
1.4840	3.15061	-3.82896	0	
1.4847	2.55616	-3.82896	0	
1.4853	3.47756	-3.23417	0	
1.4860	0.713347	-3.23417	0	
1.4867	-4.16119	-0.185872	0	
1.4873	-6.30123	3.197	0	
1.4880	-6.89568	2.56503	0	
1.4887	-11.7999	1.67285	0	
1.4893	-18.8145	3.49439	0	
1.4900	-24.6105	4.08918	0	
1.4907	-28.8905	2.8996	0	
1.4913	-31.3278	2.56503	0	
1.4920	-31.625	2.56503	0	
1.4927	-31.3278	1.37545	0	
1.4933	-28.8905	0.743488	0	
1.4940	-23.9863	0.446093	0	
1.4947	-17.2987	1.04088	0	
1.4953	-12.0972	1.67285	0	
1.4960	-9.95713	-0.185872	0	
1.4967	-6.59846	-1.37545	0	
1.4973	-1.09974	0.446093	0	
1.4980	2.55616	0.743488	0	
1.4987	7.72792	-1.37545	0	
1.4993	18.1012	-2.00742	0	
1.5000	27.2855	-1.37545	0	
1.5007	31.2386	-2.00742	0	
1.5013	30.3172	-2.30481	0	
1.5020	26.3641	-3.53157	0	
1.5027	23.0054	-5.05572	0	
1.5033	20.8654	-2.60221	0	
1.5040	16.2881	2.8996	0	
1.5047	10.4921	4.42375	0	
1.5053	5.6176	3.49439	0	
1.5060	1.63475	3.49439	0	
1.5067	-1.09974	3.49439	0	
1.5073	-2.02115	2.8996	0	
1.5080	-4.45842	3.49439	0	
1.5087	-11.473	4.08918	0	
1.5093	-20.0332	4.72115	0	
1.5100	-27.0477	5.31594	0	
1.5107	-32.5464	5.31594	0	
1.5113	-33.4678	3.49439	0	
1.5120	-29.1878	1.97024	0	
1.5127	-23.9863	2.8996	0	
1.5133	-21.2518	2.26764	0	
1.5140	-17.2987	0.743488	0	
1.5147	-12.0972	1.97024	0	
1.5153	-8.44127	3.197	0	
1.5160	-4.78537	0.148698	0	
1.5167	-2.02115	-2.30481	0	
1.5173	-3.86396	-2.00742	0	
1.5180	-3.23978	-1.37545	0	
1.5187	4.07202	-2.00742	0	
1.5193	15.3667	-3.53157	0	
1.5200	24.5213	-3.82896	0	
1.5207	26.6613	-2.60221	0	
1.5213	23.5999	-3.53157	0	
1.5220	24.5213	-4.12636	0	
1.5227	25.7399	-1.37545	0	
1.5233	20.8654	0.743488	0	
1.5240	13.8508	-0.483267	0	
1.5247	10.4921	-0.185872	0	
1.5253	6.50929	1.37545	0	
1.5260	3.77479	-0.483267	0	
1.5267	4.07202	-5.35311	0	
1.5273	0.713347	-8.69881	0	
1.5280	-6.59846	-6.57987	0	
1.5287	-13.0186	-2.8996	0	
1.5293	-18.5173	-1.07806	0	
1.5300	-24.9077	1.04088	0	
1.5307	-29.485	4.42375	0	
1.5313	-30.4064	4.72115	0	
1.5320	-29.485	2.8996	0	
1.5327	-26.7505	1.67285	0	
1.5333	-20.3304	1.67285	0	
1.5340	-14.5344	1.37545	0	
1.5347	-12.0972	-0.185872	0	
1.5353	-10.5813	-2.8996	0	
1.5360	-7.51986	-2.8996	0	
1.5367	-3.23978	-2.00742	0	
1.5373	-1.09974	-2.00742	0	
1.5380	1.63475	-1.37545	0	
1.5387	7.72792	-1.07806	0	
1.5393	17.5067	-2.8996	0	
1.5400	24.5213	-5.65051	0	
1.5407	27.2855	-8.40141	0	
1.5413	27.5827	-8.69881	0	
1.5420	27.88	-5.98508	0	
1.5427	27.5827	-3.82896	0	
1.5433	23.3027	-2.60221	0	
1.5440	15.3667	0.148698	0	
1.5447	13.5239	0.446093	0	
1.5453	19.3495	-1.37545	0	
1.5460	20.8654	-1.07806	0	
1.5467	14.148	1.67285	0	
1.5473	8.05487	1.67285	0	
1.5480	3.47756	1.37545	0	
1.5487	-5.08259	1.67285	0	
1.5493	-16.6745	3.49439	0	
1.5500	-24.9077	6.84009	0	
1.5507	-31.9223	8.36424	0	
1.5513	-38.9666	5.31594	0	
1.5520	-41.9983	2.56503	0	
1.5527	-35.9051	3.49439	0	
1.5533	-26.7505	5.01854	0	
1.5540	-22.7676	3.49439	0	
1.5547	-19.1117	2.26764	0	
1.5553	-13.3158	2.8996	0	
1.5560	-8.7385	1.97024	0	
1.5567	-4.78537	1.37545	0	
1.5573	1.0403	2.56503	0	
1.5580	5.91483	1.67285	0	
1.5587	11.0866	-1.37545	0	
1.5593	19.0226	-2.8996	0	
1.5600	26.3641	-4.12636	0	
1.5607	31.5359	-4.75832	0	
1.5613	32.7545	-2.8996	0	
1.5620	29.0986	-2.00742	0	
1.5627	24.2241	-2.30481	0	
1.5633	20.8654	-0.780662	0	
1.5640	17.2095	-1.07806	0	
1.5647	11.7108	-2.8996	0	
1.5653	8.64933	0.148698	0	
1.5660	8.94656	3.49439	0	
1.5667	7.13347	4.08918	0	
1.5673	2.55616	5.9479	0	
1.5680	0.416119	7.13748	0	
1.5687	-1.72392	6.2453	0	
1.5693	-9.95713	5.9479	0	
1.5700	-18.1903	1.67285	0	
1.5707	-20.3304	-3.82896	0	
1.5713	-21.2518	-3.82896	0	
1.5720	-21.2518	-2.00742	0	
1.5727	-17.5959	-4.12636	0	
1.5733	-13.94	-3.82896	0	
1.5740	-12.7213	-1.37545	0	
1.5747	-10.2544	-2.30481	0	
1.5753	-7.81709	-2.00742	0	
1.5760	-7.81709	-2.00742	0	
1.5767	-7.81709	-7.17466	0	
1.5773	-4.45842	-7.50923	0	
1.5780	0.713347	-3.82896	0	
1.5787	5.91483	-6.57987	0	
1.5793	13.2266	-10.5575	0	
1.5800	23.3027	-7.50923	0	
1.5807	29.7228	-5.65051	0	
1.5813	28.5041	-6.87726	0	
1.5820	25.4427	-4.75832	0	
1.5827	23.3027	-3.23417	0	
1.5833	20.8654	-3.82896	0	
1.5840	17.2095	-0.780662	0	
1.5847	13.5239	1.67285	0	
1.5853	11.7108	-0.185872	0	
1.5860	9.86796	-1.37545	0	
1.5867	7.13347	-0.185872	0	
1.5873	5.91483	0.446093	0	
1.5880	4.36925	-0.483267	0	
1.5887	-3.53701	-1.07806	0	
1.5893	-13.3158	0.743488	0	
1.5900	-19.1117	3.49439	0	
1.5907	-23.6891	3.49439	0	
1.5913	-26.4533	3.49439	0	
1.5920	-23.0946	4.42375	0	
1.5927	-18.5173	3.49439	0	
1.5933	-14.8317	2.26764	0	
1.5940	-9.36267	2.26764	0	
1.5947	-5.67705	1.67285	0	
1.5953	-4.45842	2.26764	0	
1.5960	-2.02115	1.97024	0	
1.5967	-0.208059	-0.780662	0	
1.5973	0.713347	-2.8996	0	
1.5980	4.36925	-4.12636	0	
1.5987	10.7894	-5.35311	0	
1.5993	16.2881	-3.53157	0	
1.6000	22.3813	-1.37545	0	
1.6007	28.1772	-2.60221	0	
1.6013	30.9414	-1.37545	0	
1.6020	30.02	-1.07806	0	
1.6027	25.7399	-3.82896	0	
1.6033	20.5682	-3.23417	0	
1.6040	15.6639	0.743488	0	
1.6047	11.0866	1.67285	0	
1.6053	7.72792	2.56503	0	
1.6060	5.29065	4.08918	0	
1.6067	2.55616	3.197	0	
1.6073	0.118891	1.37545	0	
1.6080	-3.86396	1.67285	0	
1.6087	-13.94	2.56503	0	
1.6093	-25.2049	2.56503	0	
1.6100	-27.6719	2.56503	0	
1.6107	-23.6891	3.197	0	
1.6113	-19.7359	3.49439	0	
1.6120	-17.5959	1.97024	0	
1.6127	-15.4558	1.67285	0	
1.6133	-12.7213	1.67285	0	
1.6140	-10.2544	0.446093	0	
1.6147	-7.51986	-0.185872	0	
1.6153	-3.53701	0.148698	0	
1.6160	-4.16119	-1.71002	0	
1.6167	-9.6599	-1.71002	0	
1.6173	-12.0972	-0.185872	0	
1.6180	-8.44127	-1.07806	0	
1.6187	-0.208059	-2.8996	0	
1.6193	11.7108	-1.07806	0	
1.6200	19.3495	-0.185872	0	
1.6207	21.7868	-2.60221	0	
1.6213	26.3641	-3.82896	0	
1.6220	30.02	-2.00742	0	
1.6227	24.5213	1.97024	0	
1.6233	19.0226	4.08918	0	
1.6240	18.4281	2.8996	0	
1.6247	14.7722	1.67285	0	
1.6253	9.86796	2.8996	0	
1.6260	8.64933	3.197	0	
1.6267	6.21206	-0.185872	0	
1.6273	1.63475	-1.07806	0	
1.6280	-2.02115	2.56503	0	
1.6287	-8.44127	4.42375	0	
1.6293	-20.0332	4.42375	0	
1.6300	-29.485	6.54269	0	
1.6307	-32.8437	7.76945	0	
1.6313	-31.9223	6.54269	0	
1.6320	-28.2664	5.31594	0	
1.6327	-23.9863	4.08918	0	
1.6333	-20.0332	1.37545	0	
1.6340	-15.1586	-1.07806	0	
1.6347	-10.2544	-3.82896	0	
1.6353	-6.30123	-4.42375	0	
1.6360	-5.08259	-1.07806	0	
1.6367	-3.86396	1.97024	0	
1.6373	0.118891	0.446093	0	
1.6380	3.47756	-2.8996	0	
1.6387	6.21206	-3.82896	0	
1.6393	14.4453	-2.60221	0	
1.6400	24.5213	-1.71002	0	
1.6407	25.4427	-1.07806	0	
1.6413	22.6785	-1.71002	0	
1.6420	22.6785	-3.23417	0	
1.6427	19.944	-2.00742	0	
1.6433	15.3667	1.97024	0	
1.6440	12.6322	1.67285	0	
1.6447	8.05487	-0.185872	0	
1.6453	3.47756	1.97024	0	
1.6460	2.55616	4.42375	0	
1.6467	0.416119	1.37545	0	
1.6473	-2.94255	-2.30481	0	
1.6480	-2.94255	-3.53157	0	
1.6487	-7.22263	-2.00742	0	
1.6493	-17.8931	2.56503	0	
1.6500	-25.8291	4.08918	0	
1.6507	-27.9691	1.97024	0	
1.6513	-30.1092	2.8996	0	
1.6520	-29.485	4.08918	0	
1.6527	-23.0946	0.148698	0	
1.6533	-16.3772	-1.71002	0	
1.6540	-11.1758	0.743488	0	
1.6547	-6.59846	-0.483267	0	
1.6553	-3.53701	-3.82896	0	
1.6560	-0.802515	-3.53157	0	
1.6567	3.47756	-3.82896	0	
1.6573	4.99343	-7.17466	0	
1.6580	4.99343	-7.80662	0	
1.6587	14.148	-7.17466	0	
1.6593	26.3641	-7.17466	0	
1.6600	30.02	-7.50923	0	
1.6607	32.7545	-7.50923	0	
1.6613	39.7691	-7.50923	0	
1.6620	40.096	-7.17466	0	
1.6627	32.16	-6.57987	0	
1.6633	24.5213	-3.82896	0	
1.6640	17.2095	-1.07806	0	
1.6647	10.4921	-0.185872	0	
1.6653	7.72792	-0.483267	0	
1.6660	5.29065	-2.8996	0	
1.6667	-0.208059	-5.35311	0	
1.6673	-4.45842	-3.23417	0	
1.6680	-6.89568	-0.780662	0	
1.6687	-12.3944	-1.37545	0	
1.6693	-21.2518	1.97024	0	
1.6700	-28.5636	6.54269	0	
1.6707	-31.0306	4.72115	0	
1.6713	-30.4064	2.8996	0	
1.6720	-28.5636	4.72115	0	
1.6727	-25.5319	4.42375	0	
1.6733	-21.876	2.8996	0	
1.6740	-17.8931	1.67285	0	
1.6747	-13.0186	-0.780662	0	
1.6753	-7.51986	-0.780662	0	
1.6760	-1.42669	-0.185872	0	
1.6767	3.47756	-3.53157	0	
1.6773	2.55616	-4.42375	0	
1.6780	-0.208059	-2.60221	0	
1.6787	6.83624	-4.75832	0	
1.6793	23.3027	-7.17466	0	
1.6800	35.5187	-5.05572	0	
1.6807	38.2532	-5.98508	0	
1.6813	36.1132	-8.10402	0	
1.6820	31.8628	-4.12636	0	
1.6827	25.4427	-0.185872	0	
1.6833	18.4281	-1.07806	0	
1.6840	12.9294	-0.780662	0	
1.6847	6.83624	1.67285	0	
1.6853	-2.02115	2.56503	0	
1.6860	-10.2544	4.08918	0	
1.6867	-13.94	5.31594	0	
1.6873	-12.7213	3.79179	0	
1.6880	-11.1758	3.49439	0	
1.6887	-16.3772	5.31594	0	
1.6893	-26.4533	6.54269	0	
1.6900	-31.3278	5.9479	0	
1.6907	-30.4064	5.31594	0	
1.6913	-30.7036	4.42375	0	
1.6920	-31.3278	2.56503	0	
1.6927	-27.9691	0.743488	0	
1.6933	-24.9077	0.743488	0	
1.6940	-21.876	-0.185872	0	
1.6947	-15.7531	-2.00742	0	
1.6953	-11.1758	-2.00742	0	
1.6960	-7.81709	-0.185872	0	
1.6967	-2.02115	-0.780662	0	
1.6973	1.63475	-2.8996	0	
1.6980	2.55616	-2.8996	0	
1.6987	7.43069	-2.8996	0	
1.6993	17.5067	-5.98508	0	
1.7000	25.7399	-9.03338	0	
1.7007	29.0986	-9.62817	0	
1.7013	29.7228	-9.33077	0	
1.7020	27.5827	-8.69881	0	
1.7027	21.1626	-7.80662	0	
1.7033	14.4453	-4.42375	0	
1.7040	10.7894	-0.185872	0	
1.7047	7.43069	0.743488	0	
1.7053	3.47756	-0.185872	0	
1.7060	0.416119	1.04088	0	
1.7067	-2.64533	2.8996	0	
1.7073	-5.08259	3.79179	0	
1.7080	-6.59846	5.61333	0	
1.7087	-11.7999	5.31594	0	
1.7093	-22.1732	3.49439	0	
1.7100	-30.4064	4.08918	0	
1.7107	-31.625	6.2453	0	
1.7113	-30.4064	6.2453	0	
1.7120	-28.5636	5.01854	0	
1.7127	-25.8291	1.67285	0	
1.7133	-21.2518	-1.37545	0	
1.7140	-14.8317	-1.07806	0	
1.7147	-8.44127	-0.185872	0	
1.7153	-4.16119	0.743488	0	
1.7160	-2.02115	2.8996	0	
1.7167	0.416119	2.26764	0	
1.7173	3.15061	-1.07806	0	
1.7180	5.29065	0.743488	0	
1.7187	9.27351	3.197	0	
1.7193	17.2095	-1.37545	0	
1.7200	25.1455	-3.82896	0	
1.7207	28.1772	-2.60221	0	
1.7213	26.9586	-3.53157	0	
1.7220	24.8185	-3.53157	0	
1.7227	21.1626	-0.185872	0	
1.7233	16.2881	-0.185872	0	
1.7240	12.9294	-2.30481	0	
1.7247	9.86796	-1.07806	0	
1.7253	6.21206	0.148698	0	
1.7260	4.99343	-0.780662	0	
1.7267	3.77479	-0.185872	0	
1.7273	0.713347	1.67285	0	
1.7280	-1.42669	1.67285	0	
1.7287	-5.37982	2.56503	0	
1.7293	-14.5344	6.2453	0	
1.7300	-22.4704	6.84009	0	
1.7307	-24.6105	3.49439	0	
1.7313	-24.9077	3.49439	0	
1.7320	-24.6105	6.2453	0	
1.7327	-19.409	6.54269	0	
1.7333	-13.94	5.01854	0	
1.7340	-9.36267	5.01854	0	
1.7347	-5.67705	3.49439	0	
1.7353	-4.45842	0.743488	0	
1.7360	-2.31838	0.148698	0	
1.7367	4.07202	-1.37545	0	
1.7373	6.83624	-3.82896	0	
1.7380	6.21206	-3.82896	0	
1.7387	12.3052	-2.8996	0	
1.7393	23.5999	-3.53157	0	
1.7400	30.6145	-3.82896	0	
1.7407	32.4573	-4.42375	0	
1.7413	30.3172	-6.28247	0	
1.7420	27.2855	-5.98508	0	
1.7427	25.4427	-4.75832	0	
1.7433	21.7868	-4.42375	0	
1.7440	15.3667	-2.30481	0	
1.7447	11.4135	-0.483267	0	
1.7453	8.64933	-1.07806	0	
1.7460	2.25893	-0.780662	0	
1.7467	-4.78537	1.67285	0	
1.7473	-6.59846	1.04088	0	
1.7480	-5.37982	0.743488	0	
1.7487	-9.6599	5.31594	0	
1.7493	-21.876	8.9962	0	
1.7500	-33.7651	7.13748	0	
1.7507	-38.3424	7.13748	0	
1.7513	-36.8265	10.5204	0	
1.7520	-33.7651	9.2936	0	
1.7527	-30.4064	2.56503	0	
1.7533	-25.2049	-2.00742	0	
1.7540	-17.8931	-3.82896	0	
1.7547	-12.0972	-4.42375	0	
1.7553	-9.95713	-2.8996	0	
1.7560	-8.14404	-2.00742	0	
1.7567	-4.78537	-5.05572	0	
1.7573	-0.208059	-6.87726	0	
1.7580	3.15061	-5.05572	0	
1.7587	6.21206	-6.57987	0	
1.7593	14.4453	-9.33077	0	
1.7600	25.7399	-7.17466	0	
1.7607	27.88	-6.28247	0	
1.7613	27.2855	-9.62817	0	
1.7620	35.8159	-9.33077	0	
1.7627	40.3933	-3.82896	0	
1.7633	33.6759	-2.00742	0	
1.7640	28.5041	-2.30481	0	
1.7647	24.2241	-1.07806	0	
1.7653	13.2266	-1.07806	0	
1.7660	4.99343	-1.37545	0	
1.7667	2.25893	0.148698	0	
1.7673	-4.45842	0.148698	0	
1.7680	-13.3158	-1.71002	0	
1.7687	-22.1732	-1.71002	0	
1.7693	-32.5464	-0.780662	0	
1.7700	-37.1237	-1.37545	0	
1.7707	-36.2023	-1.07806	0	
1.7713	-38.3424	0.743488	0	
1.7720	-39.561	0.743488	0	
1.7727	-33.1409	-0.185872	0	
1.7733	-25.2049	1.04088	0	
1.7740	-20.3304	3.197	0	
1.7747	-15.1586	1.37545	0	
1.7753	-11.473	-1.07806	0	
1.7760	-8.44127	-0.483267	0	
1.7767	-2.31838	0.148698	0	
1.7773	2.25893	-0.780662	0	
1.7780	1.63475	-2.8996	0	
1.7787	4.6962	-5.98508	0	
1.7793	15.6639	-6.57987	0	
1.7800	23.9268	-3.82896	0	
1.7807	24.5213	-3.82896	0	
1.7813	25.1455	-4.42375	0	
1.7820	26.6613	-1.37545	0	
1.7827	24.5213	-1.07806	0	
1.7833	19.0226	-3.53157	0	
1.7840	13.5239	-1.07806	0	
1.7847	9.27351	0.743488	0	
1.7853	6.21206	-1.71002	0	
1.7860	2.55616	-1.71002	0	
1.7867	-0.802515	0.743488	0	
1.7873	-2.64533	-0.185872	0	
1.7880	-3.86396	-0.185872	0	
1.7887	-9.6599	2.8996	0	
1.7893	-19.409	4.08918	0	
1.7900	-26.7505	3.49439	0	
1.7907	-29.7822	5.01854	0	
1.7913	-31.0306	5.31594	0	
1.7920	-28.5636	3.49439	0	
1.7927	-22.1732	2.56503	0	
1.7933	-18.5173	2.26764	0	
1.7940	-16.9717	-0.780662	0	
1.7947	-11.1758	-2.00742	0	
1.7953	-3.86396	0.446093	0	
1.7960	0.416119	-0.780662	0	
1.7967	3.47756	-4.75832	0	
1.7973	7.72792	-3.53157	0	
1.7980	11.0866	0.743488	0	
1.7987	16.2881	0.148698	0	
1.7993	23.5999	-1.07806	0	
1.8000	31.2386	0.148698	0	
1.8007	37.0346	0.148698	0	
1.8013	37.6588	-1.71002	0	
1.8020	34.5973	-1.71002	0	
1.8027	31.8628	0.446093	0	
1.8033	26.3641	1.37545	0	
1.8040	17.5067	-0.483267	0	
1.8047	10.7894	-2.60221	0	
1.8053	8.05487	-2.30481	0	
1.8060	5.29065	-0.185872	0	
1.8067	2.55616	0.446093	0	
1.8073	0.713347	-1.07806	0	
1.8080	-2.94255	0.743488	0	
1.8087	-9.36267	3.79179	0	
1.8093	-16.3772	2.8996	0	
1.8100	-23.9863	1.97024	0	
1.8107	-29.485	4.08918	0	
1.8113	-31.3278	4.08918	0	
1.8120	-29.485	3.197	0	
1.8127	-23.9863	5.9479	0	
1.8133	-17.5959	4.42375	0	
1.8140	-13.94	-1.37545	0	
1.8147	-12.3944	-2.00742	0	
1.8153	-10.2544	2.56503	0	
1.8160	-8.44127	3.197	0	
1.8167	-6.59846	-0.185872	0	
1.8173	-3.86396	-2.8996	0	
1.8180	-2.94255	-3.23417	0	
1.8187	0.416119	-3.82896	0	
1.8193	9.86796	-5.05572	0	
1.8200	19.6468	-3.82896	0	
1.8207	24.5213	-1.07806	0	
1.8213	26.6613	-0.185872	0	
1.8220	26.3641	-0.780662	0	
1.8227	22.6785	1.04088	0	
1.8233	18.4281	2.56503	0	
1.8240	14.7722	1.97024	0	
1.8247	10.7894	0.743488	0	
1.8253	8.05487	-0.185872	0	
1.8260	5.29065	-0.780662	0	
1.8267	1.63475	-1.71002	0	
1.8273	-1.42669	-1.71002	0	
1.8280	-3.86396	0.743488	0	
1.8287	-9.95713	1.97024	0	
1.8293	-20.3304	0.148698	0	
1.8300	-29.1878	0.446093	0	
1.8307	-31.9223	1.67285	0	
1.8313	-30.1092	0.446093	0	
1.8320	-26.7505	0.743488	0	
1.8327	-21.876	2.8996	0	
1.8333	-16.0503	1.67285	0	
1.8340	-11.7999	-1.07806	0	
1.8347	-8.7385	-0.780662	0	
1.8353	-4.78537	-2.00742	0	
1.8360	-1.09974	-3.23417	0	
1.8367	1.0403	0.446093	0	
1.8373	2.55616	2.8996	0	
1.8380	6.21206	0.743488	0	
1.8387	13.5239	-0.185872	0	
1.8393	22.3813	0.743488	0	
1.8400	29.0986	-0.185872	0	
1.8407	37.3318	-2.8996	0	
1.8413	46.8134	-5.35311	0	
1.8420	48.032	-4.75832	0	
1.8427	40.096	-1.71002	0	
1.8433	31.8628	0.743488	0	
1.8440	24.8185	0.743488	0	
1.8447	16.2881	1.04088	0	
1.8453	8.64933	2.56503	0	
1.8460	3.77479	3.49439	0	
1.8467	-2.02115	4.08918	0	
1.8473	-10.2544	6.2453	0	
1.8480	-17.2987	7.47205	0	
1.8487	-22.4704	5.31594	0	
1.8493	-29.7822	3.49439	0	
1.8500	-37.421	5.31594	0	
1.8507	-41.4038	6.84009	0	
1.8513	-42.9197	6.2453	0	
1.8520	-40.7796	5.31594	0	
1.8527	-32.5464	3.49439	0	
1.8533	-24.6105	1.67285	0	
1.8540	-19.7359	2.56503	0	
1.8547	-13.94	3.79179	0	
1.8553	-9.03572	3.197	0	
1.8560	-6.30123	3.49439	0	
1.8567	-2.02115	2.8996	0	
1.8573	2.55616	-1.37545	0	
1.8580	3.47756	-2.8996	0	
1.8587	8.05487	-1.07806	0	
1.8593	18.7253	-2.30481	0	
1.8600	29.0986	-4.42375	0	
1.8607	32.4573	-2.8996	0	
1.8613	29.7228	-1.07806	0	
1.8620	26.9586	-1.71002	0	
1.8627	25.7399	-1.07806	0	
1.8633	21.7868	-0.185872	0	
1.8640	14.4453	0.446093	0	
1.8647	9.57073	2.56503	0	
1.8653	7.13347	4.08918	0	
1.8660	2.55616	4.42375	0	
1.8667	-1.42669	5.31594	0	
1.8673	-2.02115	5.31594	0	
1.8680	-5.37982	3.49439	0	
1.8687	-17.5959	4.72115	0	
1.8693	-29.485	6.84009	0	
1.8700	-31.9223	5.61333	0	
1.8707	-32.5464	4.08918	0	
1.8713	-34.0623	2.26764	0	
1.8720	-31.625	0.743488	0	
1.8727	-27.345	1.97024	0	
1.8733	-23.9863	3.49439	0	
1.8740	-18.5173	2.56503	0	
1.8747	-12.7213	0.743488	0	
1.8753	-9.03572	-0.185872	0	
1.8760	-4.78537	0.446093	0	
1.8767	-1.72392	0.148698	0	
1.8773	-1.42669	-1.37545	0	
1.8780	0.713347	-2.00742	0	
1.8787	7.13347	-1.37545	0	
1.8793	15.3667	-2.60221	0	
1.8800	22.6785	-3.82896	0	
1.8807	26.3641	-3.82896	0	
1.8813	24.5213	-4.12636	0	
1.8820	21.7868	-5.05572	0	
1.8827	19.3495	-3.82896	0	
1.8833	15.0694	-2.00742	0	
1.8840	9.57073	-1.71002	0	
1.8847	4.6962	-0.483267	0	
1.8853	3.47756	-1.07806	0	
1.8860	4.99343	-3.53157	0	
1.8867	3.47756	-2.8996	0	
1.8873	-1.72392	-0.185872	0	
1.8880	-7.22263	0.148698	0	
1.8887	-14.5344	1.67285	0	
1.8893	-23.3918	5.31594	0	
1.8900	-29.485	4.42375	0	
1.8907	-31.3278	2.56503	0	
1.8913	-30.4064	4.72115	0	
1.8920	-27.0477	5.9479	0	
1.8927	-23.9863	6.2453	0	
1.8933	-20.9546	7.13748	0	
1.8940	-16.0503	5.31594	0	
1.8947	-11.473	2.56503	0	
1.8953	-8.7385	3.197	0	
1.8960	-5.67705	2.56503	0	
1.8967	-2.94255	1.37545	0	
1.8973	-0.505287	2.26764	0	
1.8980	3.15061	1.37545	0	
1.8987	9.57073	0.743488	0	
1.8993	18.1012	1.67285	0	
1.9000	25.4427	-1.07806	0	
1.9007	28.1772	-1.07806	0	
1.9013	27.5827	3.49439	0	
1.9020	25.7399	1.37545	0	
1.9027	23.9268	-3.82896	0	
1.9033	21.4598	-3.23417	0	
1.9040	17.2095	-3.53157	0	
1.9047	13.2266	-5.65051	0	
1.9053	10.7894	-2.8996	0	
1.9060	7.13347	-1.07806	0	
1.9067	3.47756	-0.780662	0	
1.9073	3.15061	2.56503	0	
1.9080	1.63475	3.49439	0	
1.9087	-7.51986	3.197	0	
1.9093	-17.5959	6.84009	0	
1.9100	-23.9863	5.61333	0	
1.9107	-27.345	0.743488	0	
1.9113	-28.5636	3.49439	0	
1.9120	-27.345	5.61333	0	
1.9127	-23.0946	-0.483267	0	
1.9133	-16.6745	-3.53157	0	
1.9140	-10.5813	-2.00742	0	
1.9147	-6.59846	-2.60221	0	
1.9153	-2.02115	-2.00742	0	
1.9160	2.85339	-1.07806	0	
1.9167	5.29065	-3.53157	0	
1.9173	7.72792	-2.60221	0	
1.9180	15.9909	-1.07806	0	
1.9187	29.7228	-3.82896	0	
1.9193	41.0174	-7.17466	0	
1.9200	45.5947	-7.50923	0	
1.9207	46.4864	-6.87726	0	
1.9213	43.1277	-5.98508	0	
1.9220	35.5187	-5.65051	0	
1.9227	28.8014	-5.98508	0	
1.9233	21.4598	-3.82896	0	
1.9240	8.64933	0.148698	0	
1.9247	-1.42669	1.04088	0	
1.9253	-1.09974	-1.07806	0	
1.9260	0.118891	-2.30481	0	
1.9267	-4.16119	0.446093	0	
1.9273	-7.51986	1.67285	0	
1.9280	-8.7385	-1.71002	0	
1.9287	-14.5344	-0.185872	0	
1.9293	-21.549	5.31594	0	
1.9300	-27.9691	6.2453	0	
1.9307	-34.0623	6.2453	0	
1.9313	-34.3893	9.2936	0	
1.9320	-29.7822	6.54269	0	
1.9327	-26.4533	-0.185872	0	
1.9333	-23.9863	-0.780662	0	
1.9340	-19.409	-0.780662	0	
1.9347	-15.7531	-3.53157	0	
1.9353	-13.94	-2.00742	0	
1.9360	-9.95713	-2.00742	0	
1.9367	-4.45842	-5.98508	0	
1.9373	-0.208059	-5.35311	0	
1.9380	2.85339	-2.60221	0	
1.9387	8.05487	-5.65051	0	
1.9393	15.0694	-9.33077	0	
1.9400	22.6785	-9.62817	0	
1.9407	28.5041	-10.223	0	
1.9413	29.0986	-8.40141	0	
1.9420	24.2241	-5.65051	0	
1.9427	19.944	-4.75832	0	
1.9433	18.1012	-3.82896	0	
1.9440	13.8508	-2.00742	0	
1.9447	8.94656	-2.00742	0	
1.9453	5.29065	-2.00742	0	
1.9460	1.63475	-3.82896	0	
1.9467	-2.64533	-7.17466	0	
1.9473	-2.02115	-4.75832	0	
1.9480	-2.02115	-1.07806	0	
1.9487	-9.03572	-2.8996	0	
1.9493	-18.8145	-4.75832	0	
1.9500	-24.9077	-3.82896	0	
1.9507	-28.5636	-4.75832	0	
1.9513	-30.4064	-3.82896	0	
1.9520	-27.6719	-2.30481	0	
1.9527	-21.2518	-3.82896	0	
1.9533	-15.4558	-3.23417	0	
1.9540	-11.7999	-2.30481	0	
1.9547	-9.03572	-4.42375	0	
1.9553	-6.89568	-5.05572	0	
1.9560	-4.78537	-4.42375	0	
1.9567	-1.09974	-7.50923	0	
1.9573	1.33752	-10.223	0	
1.9580	3.15061	-10.8549	0	
1.9587	10.1949	-14.8326	0	
1.9593	20.5682	-17.2489	0	
1.9600	26.3641	-14.8326	0	
1.9607	28.5041	-11.1523	0	
1.9613	30.02	-8.69881	0	
1.9620	29.0986	-8.10402	0	
1.9627	23.3027	-8.40141	0	
1.9633	18.7253	-6.57987	0	
1.9640	16.8825	-2.8996	0	
1.9647	11.7108	-0.185872	0	
1.9653	5.29065	-0.780662	0	
1.9660	2.55616	-2.8996	0	
1.9667	0.713347	-3.53157	0	
1.9673	-0.505287	-2.00742	0	
1.9680	0.118891	-2.8996	0	
1.9687	-5.67705	-3.82896	0	
1.9693	-18.1903	-1.71002	0	
1.9700	-25.2049	0.743488	0	
1.9707	-27.0477	0.148698	0	
1.9713	-30.1092	1.67285	0	
1.9720	-28.5636	2.8996	0	
1.9727	-21.2518	1.37545	0	
1.9733	-15.4558	-0.185872	0	
1.9740	-10.2544	-0.483267	0	
1.9747	-5.67705	-1.07806	0	
1.9753	-5.67705	-1.71002	0	
1.9760	-3.53701	-1.07806	0	
1.9767	2.25893	-0.185872	0	
1.9773	2.55616	-0.483267	0	
1.9780	1.63475	-3.82896	0	
1.9787	7.43069	-5.65051	0	
1.9793	16.5853	-2.8996	0	
1.9800	21.4598	-1.07806	0	
1.9807	23.5999	-2.00742	0	
1.9813	26.0372	-2.8996	0	
1.9820	24.8185	-2.60221	0	
1.9827	19.6468	-1.07806	0	
1.9833	13.5239	-0.780662	0	
1.9840	9.27351	-2.30481	0	
1.9847	6.21206	-2.00742	0	
1.9853	3.47756	-0.780662	0	
1.9860	1.33752	-2.8996	0	
1.9867	-3.53701	-3.53157	0	
1.9873	-6.89568	-0.483267	0	
1.9880	-7.51986	-0.185872	0	
1.9887	-13.3158	-0.483267	0	
1.9893	-24.3132	2.8996	0	
1.9900	-29.7822	5.01854	0	
1.9907	-29.1878	4.42375	0	
1.9913	-28.5636	4.72115	0	
1.9920	-27.345	2.56503	0	
1.9927	-24.9077	-2.00742	0	
1.9933	-21.2518	-3.82896	0	
1.9940	-16.0503	-2.8996	0	
1.9947	-11.473	-0.780662	0	
1.9953	-8.44127	0.743488	0	
1.9960	-3.86396	-0.780662	0	
1.9967	-0.802515	-2.8996	0	
1.9973	-1.42669	-2.8996	0	
1.9980	0.118891	-2.8996	0	
1.9987	8.05487	-2.60221	0	
1.9993	17.5067	-1.07806	0	
2.0000	24.2241	-2.8996	0	
2.0007	25.7399	-5.65051	0	
2.0013	24.2241	-5.05572	0	
2.0020	24.5213	-3.23417	0	
2.0027	28.1772	-2.30481	0	
2.0033	30.9414	0.148698	0	
2.0040	30.02	1.67285	0	
2.0047	23.5999	1.37545	0	
2.0053	13.2266	3.49439	0	
2.0060	4.99343	5.31594	0	
2.0067	2.55616	3.197	0	
2.0073	-0.208059	2.56503	0	
2.0080	-7.22263	3.79179	0	
2.0087	-18.8145	1.37545	0	
2.0093	-33.1409	0.743488	0	
2.0100	-42.2955	4.72115	0	
2.0107	-39.8582	5.61333	0	
2.0113	-34.6865	1.67285	0	
2.0120	-33.1409	0.743488	0	
2.0127	-31.3278	5.01854	0	
2.0133	-24.3132	8.69881	0	
2.0140	-16.9717	6.2453	0	
2.0147	-13.94	2.8996	0	
2.0153	-12.0972	3.49439	0	
2.0160	-7.51986	3.197	0	
2.0167	-1.72392	-0.483267	0	
2.0173	0.416119	-0.185872	0	
2.0180	0.713347	1.67285	0	
2.0187	5.29065	-1.07806	0	
2.0193	14.4453	-2.60221	0	
2.0200	21.7868	-1.07806	0	
2.0207	25.4427	-2.60221	0	
2.0213	26.0372	-2.8996	0	
2.0220	24.2241	-1.07806	0	
2.0227	20.8654	-1.07806	0	
2.0233	17.8039	-0.780662	0	
2.0240	14.4453	0.743488	0	
2.0247	11.7108	1.04088	0	
2.0253	11.0866	1.37545	0	
2.0260	10.1949	0.446093	0	
2.0267	7.72792	-2.30481	0	
2.0273	5.29065	-2.00742	0	
2.0280	2.25893	1.67285	0	
2.0287	-6.004	3.49439	0	
2.0293	-17.5959	2.56503	0	
2.0300	-25.2049	2.8996	0	
2.0307	-27.9691	5.01854	0	
2.0313	-27.345	7.13748	0	
2.0320	-23.6891	6.84009	0	
2.0327	-18.5173	4.08918	0	
2.0333	-15.7531	4.08918	0	
2.0340	-13.613	5.9479	0	
2.0347	-8.44127	4.42375	0	
2.0353	-2.94255	1.67285	0	
2.0360	2.25893	1.37545	0	
2.0367	7.13347	-0.185872	0	
2.0373	8.05487	-1.71002	0	
2.0380	7.13347	-1.07806	0	
2.0387	14.4453	-1.37545	0	
2.0393	25.4427	-5.35311	0	
2.0400	29.0986	-8.40141	0	
2.0407	29.0986	-7.50923	0	
2.0413	30.9414	-6.28247	0	
2.0420	27.88	-7.17466	0	
2.0427	20.5682	-7.50923	0	
2.0433	15.9909	-4.12636	0	
2.0440	12.9294	-1.37545	0	
2.0447	8.3521	-2.8996	0	
2.0453	4.99343	-3.53157	0	
2.0460	2.55616	-1.07806	0	
2.0467	-0.505287	-0.185872	0	
2.0473	-2.94255	-0.185872	0	
2.0480	-5.37982	0.743488	0	
2.0487	-12.0972	0.446093	0	
2.0493	-21.2518	1.67285	0	
2.0500	-27.6719	4.42375	0	
2.0507	-28.2664	3.49439	0	
2.0513	-26.1263	2.56503	0	
2.0520	-24.9077	4.42375	0	
2.0527	-23.9863	3.49439	0	
2.0533	-21.2518	0.743488	0	
2.0540	-15.7531	1.37545	0	
2.0547	-9.36267	1.97024	0	
2.0553	-5.67705	0.446093	0	
2.0560	-3.86396	-1.07806	0	
2.0567	-1.42669	-1.07806	0	
2.0573	0.118891	-0.185872	0	
2.0580	1.63475	-0.780662	0	
2.0587	8.94656	-3.82896	0	
2.0593	19.944	-6.57987	0	
2.0600	26.3641	-6.57987	0	
2.0607	26.3641	-6.28247	0	
2.0613	24.2241	-5.05572	0	
2.0620	20.8654	-4.42375	0	
2.0627	15.3667	-4.42375	0	
2.0633	8.94656	-2.8996	0	
2.0640	2.55616	0.446093	0	
2.0647	0.713347	2.56503	0	
2.0653	3.47756	3.49439	0	
2.0660	5.29065	3.49439	0	
2.0667	2.55616	2.26764	0	
2.0673	0.118891	0.743488	0	
2.0680	-1.09974	0.446093	0	
2.0687	-10.2544	-0.483267	0	
2.0693	-23.6891	-0.483267	0	
2.0700	-26.1263	1.97024	0	
2.0707	-17.8931	3.49439	0	
2.0713	-11.7999	3.197	0	
2.0720	-10.2544	4.08918	0	
2.0727	-9.36267	3.79179	0	
2.0733	-8.44127	0.446093	0	
2.0740	-6.59846	-1.37545	0	
2.0747	-5.37982	-0.780662	0	
2.0753	-5.08259	-2.30481	0	
2.0760	-5.67705	-3.82896	0	
2.0767	-9.36267	-2.30481	0	
2.0773	-14.5344	-3.53157	0	
2.0780	-13.0186	-6.57987	0	
2.0787	-3.86396	-6.28247	0	
2.0793	7.13347	-5.65051	0	
2.0800	15.9909	-7.50923	0	
2.0807	19.944	-6.57987	0	
2.0813	21.4598	-3.82896	0	
2.0820	24.5213	-2.8996	0	
2.0827	23.5999	-2.8996	0	
2.0833	17.8039	-4.12636	0	
2.0840	13.8508	-5.65051	0	
2.0847	10.7894	-3.82896	0	
2.0853	5.91483	-0.780662	0	
2.0860	4.07202	-2.00742	0	
2.0867	2.85339	-3.53157	0	
2.0873	-0.505287	-2.00742	0	
2.0880	-5.08259	1.04088	0	
2.0887	-13.0186	3.49439	0	
2.0893	-23.9863	3.79179	0	
2.0900	-31.3278	2.56503	0	
2.0907	-33.1409	3.49439	0	
2.0913	-31.0306	4.08918	0	
2.0920	-24.9077	0.446093	0	
2.0927	-21.876	-2.00742	0	
2.0933	-20.3304	-1.71002	0	
2.0940	-13.94	-2.30481	0	
2.0947	-8.7385	-2.60221	0	
2.0953	-9.36267	-1.07806	0	
2.0960	-6.59846	-2.00742	0	
2.0967	1.63475	-2.8996	0	
2.0973	7.72792	-2.00742	0	
2.0980	12.3052	-1.37545	0	
2.0987	17.2095	-1.07806	0	
2.0993	23.5999	0.743488	0	
2.1000	31.2386	-0.483267	0	
2.1007	35.1918	-4.42375	0	
2.1013	34.8945	-5.65051	0	
2.1020	32.7545	-3.53157	0	
2.1027	27.2855	-0.780662	0	
2.1033	20.8654	-0.185872	0	
2.1040	14.7722	-0.483267	0	
2.1047	8.05487	0.446093	0	
2.1053	2.55616	0.148698	0	
2.1060	0.416119	-2.60221	0	
2.1067	-2.94255	-2.00742	0	
2.1073	-4.16119	2.56503	0	
2.1080	-4.78537	5.9479	0	
2.1087	-13.0186	7.47205	0	
2.1093	-23.0946	8.9962	0	
2.1100	-25.2049	7.13748	0	
2.1107	-25.5319	5.01854	0	
2.1113	-26.4533	5.61333	0	
2.1120	-22.7676	5.61333	0	
2.1127	-18.1903	3.49439	0	
2.1133	-16.0503	-0.185872	0	
2.1140	-13.0186	-3.53157	0	
2.1147	-9.6599	-2.60221	0	
2.1153	-7.51986	0.446093	0	
2.1160	-3.86396	-1.07806	0	
2.1167	-1.72392	-3.23417	0	
2.1173	-0.208059	-2.00742	0	
2.1180	5.6176	-1.07806	0	
2.1187	12.9294	-3.53157	0	
2.1193	19.944	-5.65051	0	
2.1200	27.2855	-6.57987	0	
2.1207	30.02	-5.65051	0	
2.1213	27.5827	-3.82896	0	
2.1220	25.1455	-2.00742	0	
2.1227	21.7868	-1.07806	0	
2.1233	16.8825	-1.07806	0	
2.1240	12.3052	-3.23417	0	
2.1247	7.72792	-3.53157	0	
2.1253	4.99343	0.446093	0	
2.1260	4.99343	2.56503	0	
2.1267	2.85339	0.743488	0	
2.1273	-2.02115	0.446093	0	
2.1280	-6.004	1.67285	0	
2.1287	-13.3158	1.37545	0	
2.1293	-23.9863	1.97024	0	
2.1300	-28.5636	3.79179	0	
2.1307	-25.5319	2.26764	0	
2.1313	-24.9077	1.04088	0	
2.1320	-25.8291	3.79179	0	
2.1327	-20.9546	4.72115	0	
2.1333	-16.6745	2.26764	0	
2.1340	-16.0503	0.446093	0	
2.1347	-10.5813	-1.07806	0	
2.1353	-2.94255	-2.8996	0	
2.1360	-2.94255	-2.8996	0	
2.1367	-4.45842	-4.75832	0	
2.1373	-0.505287	-7.17466	0	
2.1380	3.47756	-5.35311	0	
2.1387	9.86796	-3.82896	0	
2.1393	21.7868	-5.35311	0	
2.1400	29.0986	-5.05572	0	
2.1407	29.0986	-3.82896	0	
2.1413	28.8014	-3.53157	0	
2.1420	28.1772	-2.00742	0	
2.1427	23.5999	-0.780662	0	
2.1433	18.7253	-0.780662	0	
2.1440	14.148	-0.185872	0	
2.1447	10.7894	-0.185872	0	
2.1453	9.27351	0.743488	0	
2.1460	6.21206	3.79179	0	
2.1467	1.33752	3.197	0	
2.1473	-1.09974	0.743488	0	
2.1480	-3.53701	5.31594	0	
2.1487	-11.473	8.06684	0	
2.1493	-22.1732	3.49439	0	
2.1500	-29.485	3.49439	0	
2.1507	-31.625	8.06684	0	
2.1513	-31.625	7.47205	0	
2.1520	-30.4064	4.42375	0	
2.1527	-27.6719	5.31594	0	
2.1533	-23.0946	5.01854	0	
2.1540	-18.1903	2.56503	0	
2.1547	-13.94	1.67285	0	
2.1553	-10.2544	1.67285	0	
2.1560	-7.22263	0.148698	0	
2.1567	-5.08259	-1.07806	0	
2.1573	-2.31838	-1.37545	0	
2.1580	2.55616	-0.185872	0	
2.1587	9.57073	-0.483267	0	
2.1593	19.0226	-4.75832	0	
2.1600	26.3641	-9.92556	0	
2.1607	27.88	-9.33077	0	
2.1613	26.6613	-4.42375	0	
2.1620	24.8185	-2.00742	0	
2.1627	18.7253	-2.8996	0	
2.1633	12.9294	-1.37545	0	
2.1640	11.7108	3.197	0	
2.1647	8.05487	4.08918	0	
2.1653	0.118891	1.67285	0	
2.1660	-3.53701	1.04088	0	
2.1667	-3.86396	0.148698	0	
2.1673	-6.59846	-1.07806	0	
2.1680	-8.44127	1.04088	0	
2.1687	-12.7213	3.49439	0	
2.1693	-21.549	3.49439	0	
2.1700	-27.0477	4.42375	0	
2.1707	-27.9691	4.42375	0	
2.1713	-30.4064	2.8996	0	
2.1720	-29.7822	2.8996	0	
2.1727	-23.9863	1.37545	0	
2.1733	-18.5173	-0.780662	0	
2.1740	-11.1758	0.148698	0	
2.1747	1.63475	-0.185872	0	
2.1753	10.1949	-2.30481	0	
2.1760	11.7108	-2.00742	0	
2.1767	10.7894	-3.82896	0	
2.1773	10.7894	-6.57987	0	
2.1780	12.9294	-4.75832	0	
2.1787	18.4281	-3.82896	0	
2.1793	24.5213	-6.57987	0	
2.1800	26.9586	-6.57987	0	
2.1807	22.084	-5.35311	0	
2.1813	15.9909	-5.35311	0	
2.1820	15.0694	-2.30481	0	
2.1827	16.5853	1.37545	0	
2.1833	14.4453	1.67285	0	
2.1840	8.05487	2.26764	0	
2.1847	3.47756	1.67285	0	
2.1853	2.25893	-2.00742	0	
2.1860	1.33752	-2.00742	0	
2.1867	-1.42669	0.148698	0	
2.1873	-2.02115	-1.07806	0	
2.1880	-1.42669	-2.60221	0	
2.1887	-8.44127	-0.483267	0	
2.1893	-18.8145	2.8996	0	
2.1900	-23.9863	5.9479	0	
2.1907	-25.8291	6.2453	0	
2.1913	-26.1263	5.31594	0	
2.1920	-21.2518	6.84009	0	
2.1927	-16.0503	6.54269	0	
2.1933	-14.8317	3.197	0	
2.1940	-13.94	3.49439	0	
2.1947	-9.95713	5.61333	0	
2.1953	-4.16119	3.197	0	
2.1960	-1.72392	-1.71002	0	
2.1967	-2.94255	-2.8996	0	
2.1973	-2.02115	-2.30481	0	
2.1980	2.55616	-2.30481	0	
2.1987	8.05487	-2.8996	0	
2.1993	16.2881	-2.30481	0	
2.2000	24.2241	-0.483267	0	
2.2007	25.4427	-0.483267	0	
2.2013	23.3027	-2.8996	0	
2.2020	22.3813	-3.82896	0	
2.2027	19.6468	-3.53157	0	
2.2033	14.7722	-3.82896	0	
2.2040	12.6322	-3.53157	0	
2.2047	10.4921	1.37545	0	
2.2053	6.21206	4.42375	0	
2.2060	2.55616	1.97024	0	
2.2067	0.416119	0.743488	0	
2.2073	-3.53701	2.26764	0	
2.2080	-7.51986	1.04088	0	
2.2087	-13.0186	0.743488	0	
2.2093	-21.2518	5.31594	0	
2.2100	-27.6719	5.31594	0	
2.2107	-30.7036	2.56503	0	
2.2113	-30.4064	5.31594	0	
2.2120	-27.6719	7.13748	0	
2.2127	-23.9863	1.67285	0	
2.2133	-19.409	0.446093	0	
2.2140	-14.2372	4.42375	0	
2.2147	-13.613	2.56503	0	
2.2153	-14.5344	-1.37545	0	
2.2160	-9.95713	-0.780662	0	
2.2167	-3.86396	0.446093	0	
2.2173	-0.208059	-1.07806	0	
2.2180	3.15061	-2.8996	0	
2.2187	8.94656	-4.12636	0	
2.2193	17.2095	-3.53157	0	
2.2200	25.4427	-2.8996	0	
2.2207	26.9586	-5.65051	0	
2.2213	22.3813	-7.80662	0	
2.2220	19.944	-3.82896	0	
2.2227	19.6468	1.04088	0	
2.2233	16.8825	3.197	0	
2.2240	12.9294	2.8996	0	
2.2247	10.7894	0.446093	0	
2.2253	9.86796	-1.37545	0	
2.2260	5.29065	-1.07806	0	
2.2267	-1.09974	-1.07806	0	
2.2273	-1.09974	-0.185872	0	
2.2280	-0.208059	2.56503	0	
2.2287	-10.8785	3.79179	0	
2.2293	-25.5319	3.79179	0	
2.2300	-29.1878	5.61333	0	
2.2307	-27.6719	5.31594	0	
2.2313	-28.5636	1.67285	0	
2.2320	-26.7505	2.26764	0	
2.2327	-19.409	3.49439	0	
2.2333	-12.7213	0.446093	0	
2.2340	-9.36267	-2.8996	0	
2.2347	-6.59846	-2.8996	0	
2.2353	-2.94255	-3.82896	0	
2.2360	0.713347	-7.50923	0	
2.2367	2.55616	-6.57987	0	
2.2373	3.77479	-1.07806	0	
2.2380	7.43069	1.37545	0	
2.2387	14.7722	-2.00742	0	
2.2393	23.5999	-4.42375	0	
2.2400	29.0986	-3.53157	0	
2.2407	30.9414	-2.8996	0	
2.2413	30.6145	-3.82896	0	
2.2420	27.2855	-4.42375	0	
2.2427	21.4598	-3.53157	0	
2.2433	16.5853	-1.07806	0	
2.2440	13.8508	-1.37545	0	
2.2447	9.57073	-2.8996	0	
2.2453	2.85339	-0.483267	0	
2.2460	-1.72392	1.97024	0	
2.2467	-3.86396	-0.483267	0	
2.2473	-4.45842	-2.00742	0	
2.2480	-5.08259	0.743488	0	
2.2487	-10.5813	2.8996	0	
2.2493	-20.6276	1.37545	0	
2.2500	-27.0477	-1.07806	0	
2.2507	-27.345	-0.780662	0	
2.2513	-26.7505	3.197	0	
2.2520	-24.9077	5.61333	0	
2.2527	-20.3304	1.97024	0	
2.2533	-17.8931	-3.82896	0	
2.2540	-16.6745	-3.82896	0	
2.2547	-12.0972	-1.07806	0	
2.2553	-7.22263	-0.185872	0	
2.2560	-4.16119	0.148698	0	
2.2567	-1.42669	1.04088	0	
2.2573	2.25893	0.743488	0	
2.2580	6.50929	0.148698	0	
2.2587	14.148	0.743488	0	
2.2593	23.3027	-2.8996	0	
2.2600	30.02	-7.50923	0	
2.2607	32.7545	-8.10402	0	
2.2613	33.3787	-7.80662	0	
2.2620	32.16	-7.17466	0	
2.2627	28.5041	-3.82896	0	
2.2633	24.2241	-3.23417	0	
2.2640	20.8654	-4.75832	0	
2.2647	17.2095	-2.8996	0	
2.2653	12.9294	-0.185872	0	
2.2660	10.4921	-0.483267	0	
2.2667	6.21206	0.743488	0	
2.2673	0.416119	4.72115	0	
2.2680	-3.86396	6.2453	0	
2.2687	-9.36267	4.42375	0	
2.2693	-17.5959	3.49439	0	
2.2700	-22.1732	5.61333	0	
2.2707	-24.9077	8.06684	0	
2.2713	-27.0477	5.9479	0	
2.2720	-24.3132	2.56503	0	
2.2727	-19.1117	1.67285	0	
2.2733	-18.1903	0.446093	0	
2.2740	-15.4558	0.743488	0	
2.2747	-8.7385	2.56503	0	
2.2753	-6.004	2.56503	0	
2.2760	-6.89568	2.26764	0	
2.2767	-3.53701	2.56503	0	
2.2773	0.713347	0.743488	0	
2.2780	2.25893	-2.00742	0	
2.2787	8.3521	-2.60221	0	
2.2793	20.8654	-3.53157	0	
2.2800	28.1772	-4.75832	0	
2.2807	26.3641	-3.23417	0	
2.2813	26.3641	-0.185872	0	
2.2820	27.88	1.97024	0	
2.2827	23.5999	1.97024	0	
2.2833	19.944	1.97024	0	
2.2840	22.3813	2.8996	0	
2.2847	22.6785	1.67285	0	
2.2853	18.4281	-1.07806	0	
2.2860	15.0694	-1.71002	0	
2.2867	8.94656	-0.185872	0	
2.2873	0.713347	0.446093	0	
2.2880	-4.16119	0.446093	0	
2.2887	-11.1758	1.67285	0	
2.2893	-26.1263	2.8996	0	
2.2900	-40.4824	1.97024	0	
2.2907	-47.497	0.743488	0	
2.2913	-47.497	-0.185872	0	
2.2920	-40.4824	-2.00742	0	
2.2927	-31.3278	-4.12636	0	
2.2933	-25.8291	-4.12636	0	
2.2940	-20.9546	-2.8996	0	
2.2947	-13.94	-2.8996	0	
2.2953	-7.51986	-5.65051	0	
2.2960	-3.86396	-7.80662	0	
2.2967	-3.86396	-7.50923	0	
2.2973	-5.08259	-6.87726	0	
2.2980	-1.09974	-7.50923	0	
2.2987	8.64933	-11.1523	0	
2.2993	19.0226	-14.2006	0	
2.3000	25.1455	-12.6765	0	
2.3007	27.2855	-11.1523	0	
2.3013	26.3641	-13.6058	0	
2.3020	23.5999	-14.498	0	
2.3027	19.6468	-14.8326	0	
2.3033	15.3667	-18.1783	0	
2.3040	10.7894	-16.9515	0	
2.3047	6.83624	-11.4497	0	
2.3053	4.07202	-10.8549	0	
2.3060	0.713347	-10.8549	0	
2.3067	-2.02115	-6.57987	0	
2.3073	-1.09974	-5.05572	0	
2.3080	-2.64533	-6.28247	0	
2.3087	-9.95713	-3.53157	0	
2.3093	-16.9717	-0.185872	0	
2.3100	-23.0946	1.97024	0	
2.3107	-26.4533	4.08918	0	
2.3113	-22.7676	2.8996	0	
2.3120	-17.5959	0.148698	0	
2.3127	-16.9717	0.743488	0	
2.3133	-14.8317	1.97024	0	
2.3140	-9.36267	2.56503	0	
2.3147	-4.78537	3.49439	0	
2.3153	-1.09974	2.8996	0	
2.3160	1.0403	1.97024	0	
2.3167	1.63475	4.42375	0	
2.3173	2.85339	5.31594	0	
2.3180	6.21206	1.67285	0	
2.3187	12.9294	1.37545	0	
2.3193	23.5999	5.31594	0	
2.3200	30.9414	6.84009	0	
2.3207	30.02	5.01854	0	
2.3213	27.5827	4.72115	0	
2.3220	26.3641	7.13748	0	
2.3227	21.7868	7.47205	0	
2.3233	13.5239	5.31594	0	
2.3240	8.3521	6.2453	0	
2.3247	6.21206	8.9962	0	
2.3253	2.55616	10.8177	0	
2.3260	-2.64533	11.7471	0	
2.3267	-4.78537	11.7471	0	
2.3273	-4.78537	13.2713	0	
2.3280	-9.03572	15.3902	0	
2.3287	-17.5959	13.5687	0	
2.3293	-24.9077	12.0445	0	
2.3300	-30.4064	15.0928	0	
2.3307	-34.0623	16.0222	0	
2.3313	-33.1409	13.5687	0	
2.3320	-27.6719	13.5687	0	
2.3327	-23.0946	13.5687	0	
2.3333	-20.6276	8.9962	0	
2.3340	-18.1903	7.47205	0	
2.3347	-14.8317	8.9962	0	
2.3353	-11.473	7.13748	0	
2.3360	-8.44127	4.08918	0	
2.3367	-5.37982	5.31594	0	
2.3373	-2.94255	8.06684	0	
2.3380	0.713347	6.84009	0	
2.3387	8.94656	3.197	0	
2.3393	18.7253	2.56503	0	
2.3400	24.8185	3.49439	0	
2.3407	27.2855	1.67285	0	
2.3413	28.1772	0.743488	0	
2.3420	26.6613	2.26764	0	
2.3427	23.3027	2.26764	0	
2.3433	18.7253	2.26764	0	
2.3440	13.5239	3.49439	0	
2.3447	9.27351	4.42375	0	
2.3453	8.05487	5.01854	0	
2.3460	5.29065	5.31594	0	
2.3467	-1.09974	3.49439	0	
2.3473	-5.37982	0.743488	0	
2.3480	-5.67705	0.148698	0	
2.3487	-12.3944	2.26764	0	
2.3493	-23.6891	5.31594	0	
2.3500	-28.5636	5.61333	0	
2.3507	-28.5636	3.79179	0	
2.3513	-28.5636	3.197	0	
2.3520	-24.9077	2.26764	0	
2.3527	-19.1117	0.446093	0	
2.3533	-16.0503	0.446093	0	
2.3540	-11.1758	1.04088	0	
2.3547	-3.86396	0.743488	0	
2.3553	-0.505287	1.37545	0	
2.3560	-0.208059	2.26764	0	
2.3567	2.55616	1.04088	0	
2.3573	4.36925	-0.185872	0	
2.3580	5.91483	-0.185872	0	
2.3587	11.7108	-1.37545	0	
2.3593	21.7868	-4.12636	0	
2.3600	28.5041	-4.75832	0	
2.3607	28.1772	-1.37545	0	
2.3613	25.7399	-0.780662	0	
2.3620	24.5213	-3.53157	0	
2.3627	21.4598	-3.23417	0	
2.3633	13.8508	-1.07806	0	
2.3640	7.72792	-0.780662	0	
2.3647	6.83624	-0.185872	0	
2.3653	6.50929	1.04088	0	
2.3660	2.55616	0.446093	0	
2.3667	-1.42669	-0.185872	0	
2.3673	-3.86396	-0.483267	0	
2.3680	-6.59846	-2.00742	0	
2.3687	-13.94	-0.483267	0	
2.3693	-23.9863	2.8996	0	
2.3700	-30.7036	4.42375	0	
2.3707	-32.5464	4.72115	0	
2.3713	-31.625	3.79179	0	
2.3720	-29.485	1.67285	0	
2.3727	-26.1263	2.26764	0	
2.3733	-22.4704	4.42375	0	
2.3740	-15.4558	4.42375	0	
2.3747	-7.51986	2.8996	0	
2.3753	-5.37982	-0.483267	0	
2.3760	-5.08259	-5.65051	0	
2.3767	-2.64533	-7.50923	0	
2.3773	-0.208059	-5.05572	0	
2.3780	3.47756	-3.82896	0	
2.3787	12.6322	-3.53157	0	
2.3793	23.5999	-2.8996	0	
2.3800	30.9414	-3.53157	0	
2.3807	33.0814	-6.28247	0	
2.3813	30.9414	-8.69881	0	
2.3820	25.7399	-8.10402	0	
2.3827	20.2412	-5.65051	0	
2.3833	15.6639	-4.75832	0	
2.3840	12.9294	-4.42375	0	
2.3847	10.1949	-2.8996	0	
2.3853	6.83624	-2.00742	0	
2.3860	3.47756	-0.185872	0	
2.3867	-0.208059	2.26764	0	
2.3873	-3.86396	1.97024	0	
2.3880	-6.59846	0.743488	0	
2.3887	-12.7213	1.67285	0	
2.3893	-20.3304	1.67285	0	
2.3900	-25.8291	1.37545	0	
2.3907	-28.5636	2.8996	0	
2.3913	-27.6719	1.67285	0	
2.3920	-22.1732	-0.780662	0	
2.3927	-17.2987	-0.185872	0	
2.3933	-14.5344	-0.780662	0	
2.3940	-7.81709	-2.8996	0	
2.3947	1.63475	-2.00742	0	
2.3953	8.64933	-2.8996	0	
2.3960	13.5239	-5.98508	0	
2.3967	16.2881	-5.65051	0	
2.3973	17.2095	-5.05572	0	
2.3980	18.4281	-6.57987	0	
2.3987	20.5682	-5.65051	0	
2.3993	24.5213	-5.65051	0	
2.4000	28.1772	-8.40141	0	
2.4007	24.8185	-9.33077	0	
2.4013	14.4453	-9.62817	0	
2.4020	8.05487	-9.33077	0	
2.4027	7.13347	-4.42375	0	
2.4033	5.29065	-0.780662	0	
2.4040	2.25893	-1.71002	0	
2.4047	-0.505287	-2.00742	0	
2.4053	-3.53701	0.148698	0	
2.4060	-5.08259	1.37545	0	
2.4067	-6.30123	0.148698	0	
2.4073	-9.36267	-0.185872	0	
2.4080	-12.7213	0.743488	0	
2.4087	-17.2987	0.148698	0	
2.4093	-27.6719	-0.780662	0	
2.4100	-35.6079	0.743488	0	
2.4107	-34.3893	0.743488	0	
2.4113	-32.2492	-0.185872	0	
2.4120	-32.5464	0.743488	0	
2.4127	-27.6719	-0.185872	0	
2.4133	-19.409	-1.37545	0	
2.4140	-13.613	0.446093	0	
2.4147	-8.14404	-0.483267	0	
2.4153	-4.78537	-5.35311	0	
2.4160	-3.86396	-5.35311	0	
2.4167	0.118891	-1.71002	0	
2.4173	5.29065	-1.07806	0	
2.4180	8.05487	-1.37545	0	
2.4187	14.4453	-1.07806	0	
2.4193	25.4427	-3.53157	0	
2.4200	30.02	-5.65051	0	
2.4207	30.9414	-5.35311	0	
2.4213	33.0814	-4.75832	0	
2.4220	30.9414	-3.53157	0	
2.4227	24.2241	-2.00742	0	
2.4233	20.5682	-2.8996	0	
2.4240	15.9909	-2.8996	0	
2.4247	10.1949	-0.185872	0	
2.4253	9.27351	1.37545	0	
2.4260	7.43069	1.37545	0	
2.4267	2.55616	1.04088	0	
2.4273	2.55616	0.446093	0	
2.4280	1.93198	-0.483267	0	
2.4287	-7.51986	-0.185872	0	
2.4293	-18.5173	0.743488	0	
2.4300	-23.9863	2.8996	0	
2.4307	-23.9863	5.01854	0	
2.4313	-22.4704	5.61333	0	
2.4320	-21.876	3.49439	0	
2.4327	-21.2518	0.743488	0	
2.4333	-16.9717	0.148698	0	
2.4340	-11.473	1.67285	0	
2.4347	-7.51986	1.67285	0	
2.4353	-3.53701	1.04088	0	
2.4360	-0.208059	0.446093	0	
2.4367	0.713347	-1.71002	0	
2.4373	1.63475	-2.8996	0	
2.4380	6.21206	-3.23417	0	
2.4387	14.4453	-4.42375	0	
2.4393	22.3813	-5.65051	0	
2.4400	26.3641	-4.75832	0	
2.4407	28.1772	-3.82896	0	
2.4413	27.88	-3.82896	0	
2.4420	24.2241	-2.00742	0	
2.4427	19.944	-2.00742	0	
2.4433	16.2881	-5.65051	0	
2.4440	11.7108	-6.57987	0	
2.4447	9.86796	-2.30481	0	
2.4453	10.1949	-1.07806	0	
2.4460	6.50929	-3.82896	0	
2.4467	1.33752	-3.82896	0	
2.4473	-2.31838	-2.30481	0	
2.4480	-6.59846	-3.82896	0	
2.4487	-13.94	-3.23417	0	
2.4493	-21.876	0.148698	0	
2.4500	-27.6719	1.97024	0	
2.4507	-30.4064	2.26764	0	
2.4513	-30.7036	1.04088	0	
2.4520	-28.5636	0.446093	0	
2.4527	-23.0946	2.56503	0	
2.4533	-17.5959	3.79179	0	
2.4540	-15.1586	1.37545	0	
2.4547	-13.3158	0.446093	0	
2.4553	-10.2544	0.148698	0	
2.4560	-6.59846	-2.00742	0	
2.4567	-2.64533	-2.60221	0	
2.4573	1.63475	-2.60221	0	
2.4580	6.50929	-7.50923	0	
2.4587	15.3667	-11.7471	0	
2.4593	24.5213	-11.7471	0	
2.4600	28.5041	-11.7471	0	
2.4607	28.5041	-10.8549	0	
2.4613	26.3641	-5.65051	0	
2.4620	22.6785	-2.30481	0	
2.4627	19.944	-2.8996	0	
2.4633	15.6639	-2.00742	0	
2.4640	8.64933	0.743488	0	
2.4647	4.99343	1.67285	0	
2.4653	4.36925	2.26764	0	
2.4660	0.713347	4.42375	0	
2.4667	-3.53701	5.31594	0	
2.4673	-5.37982	4.72115	0	
2.4680	-10.2544	4.42375	0	
2.4687	-18.5173	5.9479	0	
2.4693	-25.8291	8.06684	0	
2.4700	-31.0306	6.84009	0	
2.4707	-32.2492	3.49439	0	
2.4713	-29.485	4.42375	0	
2.4720	-27.345	5.61333	0	
2.4727	-24.6105	2.26764	0	
2.4733	-19.409	-1.07806	0	
2.4740	-16.0503	-0.483267	0	
2.4747	-13.94	-1.37545	0	
2.4753	-8.44127	-3.82896	0	
2.4760	-5.37982	-4.42375	0	
2.4767	-3.86396	-5.98508	0	
2.4773	0.713347	-6.57987	0	
2.4780	6.21206	-5.35311	0	
2.4787	12.3052	-6.57987	0	
2.4793	23.9268	-9.33077	0	
2.4800	32.7545	-9.62817	0	
2.4807	31.8628	-6.57987	0	
2.4813	29.0986	-5.35311	0	
2.4820	27.2855	-7.17466	0	
2.4827	22.6785	-7.80662	0	
2.4833	18.7253	-3.53157	0	
2.4840	16.8825	0.743488	0	
2.4847	11.7108	-0.483267	0	
2.4853	6.21206	-1.71002	0	
2.4860	4.6962	0.148698	0	
2.4867	3.47756	0.743488	0	
2.4873	0.416119	0.148698	0	
2.4880	-4.45842	1.67285	0	
2.4887	-12.0972	4.42375	0	
2.4893	-20.9546	5.01854	0	
2.4900	-25.8291	2.56503	0	
2.4907	-28.5636	-1.07806	0	
2.4913	-29.485	-1.07806	0	
2.4920	-25.5319	1.37545	0	
2.4927	-21.2518	2.26764	0	
2.4933	-20.6276	-0.185872	0	
2.4940	-17.2987	-2.00742	0	
2.4947	-11.1758	-1.37545	0	
2.4953	-9.03572	-0.483267	0	
2.4960	-7.81709	-2.00742	0	
2.4967	-4.16119	-3.82896	0	
2.4973	-2.02115	-4.75832	0	
2.4980	0.416119	-5.35311	0	
2.4987	7.13347	-5.05572	0	
2.4993	17.5067	-4.42375	0	
2.5000	25.4427	-4.12636	0	
2.5007	26.3641	-4.12636	0	
2.5013	22.6785	-3.82896	0	
2.5020	21.1626	-1.37545	0	
2.5027	19.944	1.67285	0	
2.5033	15.0694	1.97024	0	
2.5040	9.86796	0.446093	0	
2.5047	8.64933	2.56503	0	
2.5053	6.21206	7.13748	0	
2.5060	0.416119	6.54269	0	
2.5067	-4.78537	2.8996	0	
2.5073	-5.67705	4.42375	0	
2.5080	-8.44127	7.13748	0	
2.5087	-16.6745	7.13748	0	
2.5093	-25.8291	7.47205	0	
2.5100	-31.9223	8.9962	0	
2.5107	-34.3893	7.13748	0	
2.5113	-31.3278	4.72115	0	
2.5120	-25.8291	5.61333	0	
2.5127	-22.1732	5.31594	0	
2.5133	-18.1903	2.26764	0	
2.5140	-13.94	1.37545	0	
2.5147	-10.5813	2.56503	0	
2.5153	-2.94255	2.56503	0	
2.5160	8.94656	0.743488	0	
2.5167	16.2881	-1.37545	0	
2.5173	14.7722	-2.30481	0	
2.5180	15.3667	-1.71002	0	
2.5187	23.5999	-0.185872	0	
2.5193	31.8628	-1.07806	0	
2.5200	32.7545	-3.53157	0	
2.5207	30.6145	-4.42375	0	
2.5213	26.9586	-2.00742	0	
2.5220	17.8039	0.446093	0	
2.5227	8.94656	0.743488	0	
2.5233	7.72792	1.97024	0	
2.5240	8.05487	1.67285	0	
2.5247	5.6176	-0.780662	0	
2.5253	2.55616	-1.07806	0	
2.5260	-1.09974	-1.07806	0	
2.5267	-2.02115	-2.00742	0	
2.5273	0.713347	-1.07806	0	
2.5280	-3.86396	-1.07806	0	
2.5287	-15.7531	-0.780662	0	
2.5293	-24.9077	4.42375	0	
2.5300	-30.4064	7.47205	0	
2.5307	-33.7651	4.42375	0	
2.5313	-32.2492	1.67285	0	
2.5320	-27.6719	0.743488	0	
2.5327	-24.6105	-2.00742	0	
2.5333	-21.549	-2.8996	0	
2.5340	-16.6745	-1.37545	0	
2.5347	-10.5813	-2.30481	0	
2.5353	-7.22263	-3.82896	0	
2.5360	-4.16119	-4.42375	0	
2.5367	-0.505287	-4.42375	0	
2.5373	0.713347	-2.30481	0	
2.5380	3.47756	-1.07806	0	
2.5387	15.0694	-4.12636	0	
2.5393	28.1772	-6.87726	0	
2.5400	31.5359	-5.65051	0	
2.5407	30.6145	-3.82896	0	
2.5413	30.02	-2.30481	0	
2.5420	25.4427	-1.07806	0	
2.5427	20.8654	-1.71002	0	
2.5433	19.3495	-3.23417	0	
2.5440	13.5239	-2.00742	0	
2.5447	6.50929	0.446093	0	
2.5453	5.91483	-1.37545	0	
2.5460	5.29065	-3.53157	0	
2.5467	1.33752	-1.07806	0	
2.5473	-0.208059	0.148698	0	
2.5480	-2.02115	-1.71002	0	
2.5487	-9.95713	-1.71002	0	
2.5493	-19.409	-1.37545	0	
2.5500	-26.7505	-2.8996	0	
2.5507	-28.5636	-2.8996	0	
2.5513	-24.3132	-2.8996	0	
2.5520	-21.2518	-1.37545	0	
2.5527	-18.5173	1.97024	0	
2.5533	-12.0972	1.37545	0	
2.5540	-7.81709	-2.30481	0	
2.5547	-7.81709	-0.780662	0	
2.5553	-3.86396	2.26764	0	
2.5560	2.55616	-0.780662	0	
2.5567	3.47756	-2.8996	0	
2.5573	4.99343	-1.07806	0	
2.5580	10.4921	-2.8996	0	
2.5587	19.0226	-7.17466	0	
2.5593	27.2855	-6.57987	0	
2.5600	31.2386	-4.42375	0	
2.5607	31.8628	-3.82896	0	
2.5613	31.8628	-2.8996	0	
2.5620	28.5041	-1.71002	0	
2.5627	21.4598	-3.82896	0	
2.5633	16.8825	-5.35311	0	
2.5640	14.148	-2.8996	0	
2.5647	9.57073	-0.483267	0	
2.5653	6.21206	-0.185872	0	
2.5660	3.15061	1.37545	0	
2.5667	-1.09974	2.8996	0	
2.5673	-2.02115	2.8996	0	
2.5680	-2.64533	3.49439	0	
2.5687	-13.613	5.01854	0	
2.5693	-26.7505	5.31594	0	
2.5700	-29.7822	3.49439	0	
2.5707	-31.9223	1.67285	0	
2.5713	-36.4996	1.04088	0	
2.5720	-32.2492	1.37545	0	
2.5727	-24.3132	0.743488	0	
2.5733	-22.1732	-1.07806	0	
2.5740	-19.1117	-1.37545	0	
2.5747	-12.0972	-1.07806	0	
2.5753	-8.44127	-1.07806	0	
2.5760	-5.08259	-2.00742	0	
2.5767	-0.208059	-2.30481	0	
2.5773	0.713347	-1.37545	0	
2.5780	2.55616	-0.185872	0	
2.5787	11.7108	-0.185872	0	
2.5793	21.7868	-0.780662	0	
2.5800	24.8185	0.743488	0	
2.5807	25.7399	-0.483267	0	
2.5813	25.1455	-2.60221	0	
2.5820	22.3813	-1.37545	0	
2.5827	19.0226	0.743488	0	
2.5833	13.8508	0.743488	0	
2.5840	7.13347	1.37545	0	
2.5847	2.25893	0.743488	0	
2.5853	-0.802515	1.67285	0	
2.5860	-3.53701	4.42375	0	
2.5867	-5.37982	3.49439	0	
2.5873	-6.59846	-1.07806	0	
2.5880	-9.36267	0.743488	0	
2.5887	-13.94	5.61333	0	
2.5893	-22.1732	4.42375	0	
2.5900	-29.7822	1.67285	0	
2.5907	-30.4064	2.56503	0	
2.5913	-25.8291	3.79179	0	
2.5920	-21.549	3.49439	0	
2.5927	-17.2987	2.56503	0	
2.5933	-14.2372	1.67285	0	
2.5940	-12.0972	3.49439	0	
2.5947	-6.89568	4.72115	0	
2.5953	-2.02115	1.67285	0	
2.5960	-1.42669	0.148698	0	
2.5967	1.33752	2.56503	0	
2.5973	5.6176	2.26764	0	
2.5980	7.13347	-0.185872	0	
2.5987	12.3052	-0.483267	0	
2.5993	25.4427	0.148698	0	
2.6000	31.8628	-0.185872	0	
2.6007	28.8014	-1.37545	0	
2.6013	27.2855	-2.60221	0	
2.6020	25.4427	-2.8996	0	
2.6027	18.7253	-2.30481	0	
2.6033	14.4453	-0.185872	0	
2.6040	10.7894	1.67285	0	
2.6047	4.36925	0.446093	0	
2.6053	0.118891	-0.483267	0	
2.6060	-1.72392	1.04088	0	
2.6067	-5.37982	1.67285	0	
2.6073	-6.89568	0.743488	0	
2.6080	-6.59846	2.56503	0	
2.6087	-14.2372	6.2453	0	
2.6093	-25.8291	7.47205	0	
2.6100	-30.4064	5.01854	0	
2.6107	-27.6719	1.67285	0	
2.6113	-26.1263	-0.185872	0	
2.6120	-25.5319	-2.00742	0	
2.6127	-20.9546	-3.23417	0	
2.6133	-15.1586	-0.780662	0	
2.6140	-11.7999	1.97024	0	
2.6147	-7.81709	-0.483267	0	
2.6153	-2.02115	-2.60221	0	
2.6160	1.33752	-0.780662	0	
2.6167	1.93198	-0.483267	0	
2.6173	2.55616	-2.00742	0	
2.6180	6.21206	-2.8996	0	
2.6187	15.3667	-4.12636	0	
2.6193	26.0372	-6.28247	0	
2.6200	31.2386	-7.17466	0	
2.6207	30.6145	-7.17466	0	
2.6213	27.2855	-6.28247	0	
2.6220	21.7868	-4.75832	0	
2.6227	15.3667	-4.75832	0	
2.6233	12.6322	-5.98508	0	
2.6240	12.3052	-5.05572	0	
2.6247	9.86796	-2.00742	0	
2.6253	5.6176	-0.185872	0	
2.6260	3.15061	-0.185872	0	
2.6267	1.63475	0.148698	0	
2.6273	-2.02115	1.67285	0	
2.6280	-7.51986	3.79179	0	
2.6287	-12.7213	5.9479	0	
2.6293	-20.0332	5.9479	0	
2.6300	-28.5636	3.49439	0	
2.6307	-32.2492	2.26764	0	
2.6313	-29.485	2.56503	0	
2.6320	-24.3132	3.197	0	
2.6327	-19.1117	2.8996	0	
2.6333	-13.0186	0.743488	0	
2.6340	-9.36267	-1.07806	0	
2.6347	-7.22263	0.743488	0	
2.6353	-1.09974	2.56503	0	
2.6360	5.29065	-0.185872	0	
2.6367	8.05487	-2.00742	0	
2.6373	10.1949	-1.07806	0	
2.6380	13.8508	-2.8996	0	
2.6387	19.0226	-3.82896	0	
2.6393	27.88	1.04088	0	
2.6400	34.8945	2.8996	0	
2.6407	32.7545	-2.8996	0	
2.6413	29.0986	-4.75832	0	
2.6420	28.1772	-3.23417	0	
2.6427	24.2241	-2.30481	0	
2.6433	17.8039	-1.07806	0	
2.6440	13.8508	-0.780662	0	
2.6447	10.1949	-0.185872	0	
2.6453	6.83624	3.197	0	
2.6460	3.15061	5.31594	0	
2.6467	-2.94255	3.79179	0	
2.6473	-5.67705	4.08918	0	
2.6480	-6.59846	4.42375	0	
2.6487	-16.0503	4.42375	0	
2.6493	-26.7505	8.06684	0	
2.6500	-29.1878	9.88839	0	
2.6507	-31.3278	7.13748	0	
2.6513	-35.2809	5.31594	0	
2.6520	-29.7822	3.49439	0	
2.6527	-21.2518	-0.185872	0	
2.6533	-16.6745	-0.780662	0	
2.6540	-12.0972	-0.185872	0	
2.6547	-9.36267	-0.483267	0	
2.6553	-8.7385	1.67285	0	
2.6560	-4.78537	1.67285	0	
2.6567	-0.802515	-2.30481	0	
2.6573	-2.94255	-2.8996	0	
2.6580	-1.09974	-0.185872	0	
2.6587	8.94656	-2.00742	0	
2.6593	19.0226	-5.65051	0	
2.6600	24.2241	-6.57987	0	
2.6607	26.9586	-3.82896	0	
2.6613	26.0372	-2.60221	0	
2.6620	21.1626	-3.82896	0	
2.6627	16.2881	-4.12636	0	
2.6633	11.7108	-3.53157	0	
2.6640	9.86796	-3.23417	0	
2.6647	15.6639	0.743488	0	
2.6653	20.8654	5.31594	0	
2.6660	16.2881	3.49439	0	
2.6667	8.94656	2.26764	0	
2.6673	7.43069	5.01854	0	
2.6680	2.55616	5.31594	0	
2.6687	-9.95713	5.61333	0	
2.6693	-21.549	8.9962	0	
2.6700	-27.9691	7.76945	0	
2.6707	-34.9837	4.72115	0	
2.6713	-40.4824	4.72115	0	
2.6720	-38.0452	3.49439	0	
2.6727	-32.5464	1.67285	0	
2.6733	-31.0306	1.67285	0	
2.6740	-27.9691	1.37545	0	
2.6747	-20.6276	-0.185872	0	
2.6753	-13.94	-0.483267	0	
2.6760	-9.03572	-1.37545	0	
2.6767	-4.16119	-2.8996	0	
2.6773	-0.208059	-5.35311	0	
2.6780	6.21206	-8.40141	0	
2.6787	15.6639	-8.40141	0	
2.6793	23.5999	-6.57987	0	
2.6800	27.2855	-6.28247	0	
2.6807	28.1772	-6.57987	0	
2.6813	27.2855	-6.57987	0	
2.6820	25.7399	-5.65051	0	
2.6827	21.1626	-3.82896	0	
2.6833	15.6639	-3.82896	0	
2.6840	13.8508	-4.75832	0	
2.6847	12.6322	-3.82896	0	
2.6853	8.3521	-2.60221	0	
2.6860	4.07202	-2.00742	0	
2.6867	2.55616	-1.07806	0	
2.6873	0.713347	-0.483267	0	
2.6880	-3.53701	-0.483267	0	
2.6887	-10.2544	1.37545	0	
2.6893	-18.5173	2.56503	0	
2.6900	-25.5319	1.04088	0	
2.6907	-27.6719	0.743488	0	
2.6913	-26.4533	1.04088	0	
2.6920	-22.7676	0.446093	0	
2.6927	-18.8145	-0.185872	0	
2.6933	-16.0503	0.743488	0	
2.6940	-11.7999	0.148698	0	
2.6947	-4.78537	-1.71002	0	
2.6953	-1.09974	-2.60221	0	
2.6960	-0.208059	-3.82896	0	
2.6967	2.25893	-5.65051	0	
2.6973	4.6962	-5.65051	0	
2.6980	8.05487	-6.57987	0	
2.6987	15.9909	-8.69881	0	
2.6993	24.5213	-7.17466	0	
2.7000	28.1772	-3.82896	0	
2.7007	29.3958	-3.82896	0	
2.7013	29.0986	-1.71002	0	
2.7020	24.5213	1.97024	0	
2.7027	19.6468	0.446093	0	
2.7033	16.5853	-1.37545	0	
2.7040	13.2266	2.8996	0	
2.7047	9.57073	5.01854	0	
2.7053	5.29065	2.26764	0	
2.7060	1.33752	1.37545	0	
2.7067	-1.09974	2.56503	0	
2.7073	-0.505287	2.8996	0	
2.7080	-2.02115	2.8996	0	
2.7087	-10.8785	4.42375	0	
2.7093	-21.876	5.31594	0	
2.7100	-26.7505	5.31594	0	
2.7107	-27.6719	4.42375	0	
2.7113	-27.6719	2.8996	0	
2.7120	-23.6891	1.37545	0	
2.7127	-17.5959	0.148698	0	
2.7133	-13.94	-1.07806	0	
2.7140	-10.5813	-2.00742	0	
2.7147	-6.59846	-2.60221	0	
2.7153	-4.78537	-4.12636	0	
2.7160	-0.802515	-5.65051	0	
2.7167	5.29065	-4.42375	0	
2.7173	6.21206	-2.60221	0	
2.7180	7.72792	-0.780662	0	
2.7187	17.2095	0.148698	0	
2.7193	25.7399	-2.00742	0	
2.7200	27.5827	-3.82896	0	
2.7207	29.0986	-1.71002	0	
2.7213	29.7228	-1.07806	0	
2.7220	26.3641	-1.37545	0	
2.7227	23.5999	1.67285	0	
2.7233	19.0226	2.56503	0	
2.7240	11.7108	-0.483267	0	
2.7247	7.13347	-1.07806	0	
2.7253	2.85339	0.148698	0	
2.7260	-2.94255	-1.07806	0	
2.7267	-4.78537	-2.30481	0	
2.7273	-4.16119	-2.8996	0	
2.7280	-8.14404	-2.8996	0	
2.7287	-15.4558	-1.37545	0	
2.7293	-25.2049	0.148698	0	
2.7300	-33.1409	-0.483267	0	
2.7307	-32.8437	-0.780662	0	
2.7313	-26.7505	1.67285	0	
2.7320	-22.1732	2.56503	0	
2.7327	-19.409	-1.71002	0	
2.7333	-16.6745	-3.82896	0	
2.7340	-11.7999	-2.00742	0	
2.7347	-6.59846	-0.780662	0	
2.7353	-6.59846	-1.07806	0	
2.7360	-4.78537	-0.185872	0	
2.7367	0.713347	-1.07806	0	
2.7373	0.713347	-3.82896	0	
2.7380	1.63475	-4.42375	0	
2.7387	13.5239	-3.53157	0	
2.7393	23.0054	-3.82896	0	
2.7400	22.3813	-4.12636	0	
2.7407	22.084	-3.82896	0	
2.7413	21.1626	-1.71002	0	
2.7420	15.3667	0.743488	0	
2.7427	11.7108	-0.780662	0	
2.7433	10.7894	-2.8996	0	
2.7440	7.72792	-0.483267	0	
2.7447	5.91483	1.37545	0	
2.7453	4.36925	-1.07806	0	
2.7460	0.416119	-1.37545	0	
2.7467	-1.42669	0.743488	0	
2.7473	0.713347	0.743488	0	
2.7480	-1.42669	-1.37545	0	
2.7487	-11.1758	-4.12636	0	
2.7493	-22.4704	-2.8996	0	
2.7500	-26.7505	4.72115	0	
2.7507	-23.0946	8.9962	0	
2.7513	-16.3772	4.08918	0	
2.7520	-9.95713	-0.185872	0	
2.7527	-6.59846	2.56503	0	
2.7533	-6.89568	4.42375	0	
2.7540	-6.59846	1.97024	0	
2.7547	-6.004	-0.185872	0	
2.7553	-8.14404	-0.483267	0	
2.7560	-7.51986	-1.07806	0	
2.7567	-5.08259	-1.07806	0	
2.7573	-7.22263	1.04088	0	
2.7580	-7.51986	1.67285	0	
2.7587	3.47756	-1.37545	0	
2.7593	13.5239	-2.00742	0	
2.7600	14.148	0.446093	0	
2.7607	12.6322	-0.780662	0	
2.7613	13.2266	-2.60221	0	
2.7620	14.148	-0.780662	0	
2.7627	15.9909	0.148698	0	
2.7633	14.4453	-1.37545	0	
2.7640	7.13347	-0.185872	0	
2.7647	1.63475	1.37545	0	
2.7653	-0.208059	-1.07806	0	
2.7660	-4.45842	-2.30481	0	
2.7667	-7.51986	1.67285	0	
2.7673	-6.30123	3.49439	0	
2.7680	-10.2544	3.49439	0	
2.7687	-18.8145	6.2453	0	
2.7693	-24.6105	8.06684	0	
2.7700	-27.6719	6.54269	0	
2.7707	-29.485	5.31594	0	
2.7713	-27.6719	4.08918	0	
2.7720	-24.3132	1.97024	0	
2.7727	-22.1732	1.97024	0	
2.7733	-16.0503	3.197	0	
2.7740	-7.81709	3.79179	0	
2.7747	-4.78537	5.01854	0	
2.7753	-2.94255	1.97024	0	
2.7760	1.63475	-2.8996	0	
2.7767	3.77479	-2.8996	0	
2.7773	4.07202	-1.37545	0	
2.7780	7.43069	-3.82896	0	
2.7787	15.0694	-5.05572	0	
2.7793	22.6785	-4.75832	0	
2.7800	27.2855	-5.65051	0	
2.7807	28.5041	-4.75832	0	
2.7813	28.1772	-2.30481	0	
2.7820	26.9586	-2.00742	0	
2.7827	23.5999	-1.07806	0	
2.7833	19.3495	1.67285	0	
2.7840	14.7722	1.37545	0	
2.7847	9.27351	0.446093	0	
2.7853	6.21206	1.67285	0	
2.7860	5.29065	1.97024	0	
2.7867	1.93198	0.148698	0	
2.7873	-1.09974	1.37545	0	
2.7880	-2.31838	3.79179	0	
2.7887	-10.5813	3.49439	0	
2.7893	-22.1732	1.37545	0	
2.7900	-25.8291	1.37545	0	
2.7907	-25.2049	1.97024	0	
2.7913	-25.2049	0.446093	0	
2.7920	-20.0332	-2.00742	0	
2.7927	-13.94	-2.30481	0	
2.7933	-10.5813	-1.71002	0	
2.7940	-5.37982	-2.8996	0	
2.7947	-1.42669	-2.30481	0	
2.7953	-1.09974	-0.185872	0	
2.7960	2.25893	-1.37545	0	
2.7967	4.99343	-3.82896	0	
2.7973	4.36925	-2.30481	0	
2.7980	8.3521	-2.8996	0	
2.7987	17.5067	-6.57987	0	
2.7993	23.9268	-7.50923	0	
2.8000	29.0986	-5.65051	0	
2.8007	31.8628	-5.65051	0	
2.8013	28.1772	-5.35311	0	
2.8020	24.5213	-3.82896	0	
2.8027	21.4598	-3.82896	0	
2.8033	16.5853	-2.00742	0	
2.8040	13.5239	0.446093	0	
2.8047	11.7108	1.04088	0	
2.8053	8.05487	2.56503	0	
2.8060	4.07202	3.197	0	
2.8067	1.93198	0.743488	0	
2.8073	-0.802515	-0.185872	0	
2.8080	-3.86396	1.67285	0	
2.8087	-10.2544	1.67285	0	
2.8093	-20.9546	2.56503	0	
2.8100	-26.7505	5.31594	0	
2.8107	-25.8291	3.79179	0	
2.8113	-24.3132	0.743488	0	
2.8120	-21.2518	0.743488	0	
2.8127	-18.1903	-0.185872	0	
2.8133	-17.5959	-1.71002	0	
2.8140	-13.0186	0.446093	0	
2.8147	-5.67705	2.26764	0	
2.8153	-3.86396	-0.185872	0	
2.8160	-2.02115	-2.00742	0	
2.8167	5.29065	-1.71002	0	
2.8173	8.05487	-2.8996	0	
2.8180	8.05487	-3.53157	0	
2.8187	15.9909	-2.30481	0	
2.8193	26.0372	-2.8996	0	
2.8200	30.3172	-2.8996	0	
2.8207	31.8628	0.148698	0	
2.8213	30.02	1.04088	0	
2.8220	24.5213	-1.07806	0	
2.8227	20.5682	-1.07806	0	
2.8233	17.2095	2.26764	0	
2.8240	12.6322	4.08918	0	
2.8247	10.7894	1.37545	0	
2.8253	8.3521	-3.23417	0	
2.8260	2.55616	-3.82896	0	
2.8267	-0.802515	-0.483267	0	
2.8273	-2.31838	0.743488	0	
2.8280	-7.51986	0.148698	0	
2.8287	-15.7531	2.8996	0	
2.8293	-24.3132	5.31594	0	
2.8300	-30.4064	2.8996	0	
2.8307	-31.3278	1.97024	0	
2.8313	-28.5636	5.31594	0	
2.8320	-25.8291	3.79179	0	
2.8327	-22.4704	-2.00742	0	
2.8333	-18.5173	-3.82896	0	
2.8340	-13.613	-1.71002	0	
2.8347	-9.36267	-1.71002	0	
2.8353	-7.81709	-2.8996	0	
2.8360	-5.67705	-2.30481	0	
2.8367	-1.42669	-1.07806	0	
2.8373	0.416119	-0.483267	0	
2.8380	3.47756	0.148698	0	
2.8387	12.6322	-2.60221	0	
2.8393	21.4598	-7.17466	0	
2.8400	24.2241	-6.57987	0	
2.8407	25.1455	-2.30481	0	
2.8413	25.4427	-2.60221	0	
2.8420	23.3027	-4.75832	0	
2.8427	18.1012	-1.71002	0	
2.8433	13.2266	1.04088	0	
2.8440	9.27351	-1.71002	0	
2.8447	6.50929	-3.53157	0	
2.8453	3.77479	-1.71002	0	
2.8460	-0.505287	-0.780662	0	
2.8467	-3.86396	-0.185872	0	
2.8473	-4.78537	0.148698	0	
2.8480	-8.7385	-0.185872	0	
2.8487	-18.5173	1.04088	0	
2.8493	-25.8291	2.56503	0	
2.8500	-26.7505	2.56503	0	
2.8507	-27.6719	2.56503	0	
2.8513	-28.2664	2.56503	0	
2.8520	-24.6105	1.04088	0	
2.8527	-19.7359	-0.780662	0	
2.8533	-16.6745	-0.780662	0	
2.8540	-12.3944	-0.185872	0	
2.8547	-7.51986	-1.37545	0	
2.8553	-2.94255	-3.23417	0	
2.8560	1.63475	-3.23417	0	
2.8567	2.85339	-3.23417	0	
2.8573	2.55616	-4.12636	0	
2.8580	6.21206	-3.82896	0	
2.8587	15.0694	-3.82896	0	
2.8593	23.3027	-7.17466	0	
2.8600	26.6613	-10.223	0	
2.8607	27.2855	-7.80662	0	
2.8613	26.6613	-4.42375	0	
2.8620	23.0054	-3.82896	0	
2.8627	15.3667	-1.37545	0	
2.8633	9.27351	1.67285	0	
2.8640	5.91483	1.04088	0	
2.8647	1.93198	1.67285	0	
2.8653	-1.09974	4.42375	0	
2.8660	-3.53701	4.42375	0	
2.8667	-7.51986	1.67285	0	
2.8673	-10.8785	1.97024	0	
2.8680	-13.0186	2.8996	0	
2.8687	-19.409	2.26764	0	
2.8693	-28.2664	3.79179	0	
2.8700	-32.8437	5.9479	0	
2.8707	-32.2492	3.49439	0	
2.8713	-29.485	1.37545	0	
2.8720	-26.7505	2.56503	0	
2.8727	-23.3918	2.56503	0	
2.8733	-18.5173	-0.185872	0	
2.8740	-14.5344	0.743488	0	
2.8747	-12.0972	2.26764	0	
2.8753	-8.7385	0.148698	0	
2.8760	-5.37982	-1.71002	0	
2.8767	-5.08259	-1.37545	0	
2.8773	-3.53701	-2.60221	0	
2.8780	4.36925	-4.12636	0	
2.8787	14.4453	-3.23417	0	
2.8793	21.7868	-2.00742	0	
2.8800	26.3641	-4.42375	0	
2.8807	27.5827	-6.87726	0	
2.8813	25.1455	-4.75832	0	
2.8820	21.4598	0.446093	0	
2.8827	19.0226	4.42375	0	
2.8833	16.8825	5.31594	0	
2.8840	12.6322	5.01854	0	
2.8847	5.91483	3.197	0	
2.8853	0.713347	-0.483267	0	
2.8860	-0.505287	-2.00742	0	
2.8867	-2.02115	-0.185872	0	
2.8873	-5.67705	-0.483267	0	
2.8880	-7.81709	-2.00742	0	
2.8887	-13.94	1.67285	0	
2.8893	-25.8291	4.42375	0	
2.8900	-28.5636	1.97024	0	
2.8907	-18.5173	2.56503	0	
2.8913	-10.8785	5.31594	0	
2.8920	-11.7999	2.26764	0	
2.8927	-10.2544	-2.00742	0	
2.8933	-4.78537	-1.07806	0	
2.8940	-0.802515	0.148698	0	
2.8947	1.0403	-2.60221	0	
2.8953	0.713347	-5.65051	0	
2.8960	-1.09974	-5.05572	0	
2.8967	-2.64533	-2.00742	0	
2.8973	-5.67705	0.446093	0	
2.8980	-7.22263	-1.37545	0	
2.8987	1.63475	-4.75832	0	
2.8993	13.8508	-7.17466	0	
2.9000	18.1012	-5.65051	0	
2.9007	18.1012	-2.60221	0	
2.9013	18.7253	-2.00742	0	
2.9020	15.6639	-2.00742	0	
2.9027	11.4135	0.743488	0	
2.9033	9.86796	2.56503	0	
2.9040	6.83624	0.743488	0	
2.9047	2.55616	1.04088	0	
2.9053	1.0403	3.79179	0	
2.9060	1.63475	5.01854	0	
2.9067	1.63475	4.08918	0	
2.9073	-1.09974	2.56503	0	
2.9080	-7.22263	1.67285	0	
2.9087	-15.7531	2.56503	0	
2.9093	-22.7676	3.197	0	
2.9100	-25.5319	4.42375	0	
2.9107	-25.2049	5.31594	0	
2.9113	-23.9863	3.49439	0	
2.9120	-22.1732	0.743488	0	
2.9127	-19.409	1.97024	0	
2.9133	-14.5344	1.97024	0	
2.9140	-8.44127	-0.185872	0	
2.9147	-4.45842	1.37545	0	
2.9153	-2.31838	3.79179	0	
2.9160	-0.208059	0.446093	0	
2.9167	2.55616	-3.82896	0	
2.9173	4.36925	-2.30481	0	
2.9180	6.21206	-0.780662	0	
2.9187	13.5239	-2.8996	0	
2.9193	24.5213	-6.28247	0	
2.9200	30.9414	-7.17466	0	
2.9207	30.6145	-6.28247	0	
2.9213	30.02	-5.98508	0	
2.9220	29.7228	-6.28247	0	
2.9227	26.0372	-2.8996	0	
2.9233	19.944	1.67285	0	
2.9240	15.3667	0.743488	0	
2.9247	12.3052	-1.07806	0	
2.9253	9.86796	0.743488	0	
2.9260	8.05487	1.37545	0	
2.9267	5.29065	-0.185872	0	
2.9273	1.63475	1.97024	0	
2.9280	-2.94255	5.31594	0	
2.9287	-12.0972	4.42375	0	
2.9293	-24.9077	4.42375	0	
2.9300	-31.3278	6.2453	0	
2.9307	-30.1092	5.9479	0	
2.9313	-27.345	4.72115	0	
2.9320	-23.6891	4.72115	0	
2.9327	-17.5959	3.49439	0	
2.9333	-12.0972	1.97024	0	
2.9340	-8.14404	-0.780662	0	
2.9347	-4.45842	-3.82896	0	
2.9353	-4.16119	-2.30481	0	
2.9360	-3.86396	0.743488	0	
2.9367	1.0403	0.446093	0	
2.9373	5.29065	-0.780662	0	
2.9380	7.43069	-1.07806	0	
2.9387	14.4453	-2.00742	0	
2.9393	24.5213	-2.00742	0	
2.9400	27.88	-2.00742	0	
2.9407	26.0372	-2.8996	0	
2.9413	26.0372	-3.53157	0	
2.9420	25.7399	-4.75832	0	
2.9427	21.7868	-5.98508	0	
2.9433	16.5853	-5.35311	0	
2.9440	12.6322	-4.12636	0	
2.9447	8.94656	-2.8996	0	
2.9453	4.36925	-1.07806	0	
2.9460	0.118891	-1.37545	0	
2.9467	-2.02115	-1.07806	0	
2.9473	-2.94255	0.743488	0	
2.9480	-7.22263	-0.185872	0	
2.9487	-15.7531	-0.483267	0	
2.9493	-25.2049	3.49439	0	
2.9500	-29.485	4.42375	0	
2.9507	-28.5636	2.56503	0	
2.9513	-25.8291	4.42375	0	
2.9520	-23.0946	5.01854	0	
2.9527	-21.549	2.56503	0	
2.9533	-16.9717	0.148698	0	
2.9540	-10.5813	-1.37545	0	
2.9547	-8.44127	-1.37545	0	
2.9553	-8.14404	-1.71002	0	
2.9560	-5.08259	-2.8996	0	
2.9567	-2.02115	-2.00742	0	
2.9573	-0.802515	-0.780662	0	
