0.0007	-15.662	2.78916	0	
0.0013	-13.5089	3.40012	0	
0.0020	-11.7031	0.664086	0	
0.0027	-3.438	-0.265634	0	
0.0033	2.63927	0.0531268	0	
0.0040	2.95182	-2.39071	0	
0.0047	4.16727	-2.70947	0	
0.0053	6.32036	-0.265634	0	
0.0060	6.32036	0.345324	0	
0.0067	7.22327	-2.70947	0	
0.0073	13.9604	-7.27838	0	
0.0080	22.7811	-7.59714	0	
0.0087	24.6216	-3.32043	0	
0.0093	19.1347	-3.00167	0	
0.0100	14.5507	-5.76426	0	
0.0107	13.6478	-1.16879	0	
0.0113	12.4324	4.30327	0	
0.0120	9.37636	1.886	0	
0.0127	6.63291	0.0531268	0	
0.0133	4.16727	1.886	0	
0.0140	0.833454	0.664086	0	
0.0147	-2.84763	-1.16879	0	
0.0153	-6.80654	0.345324	0	
0.0160	-10.1751	0.956283	0	
0.0167	-11.3905	0.664086	0	
0.0173	-15.3494	2.78916	0	
0.0180	-24.2049	3.69232	0	
0.0187	-29.3793	2.1782	0	
0.0193	-25.7329	0.956283	0	
0.0200	-20.246	0.0531268	0	
0.0207	-16.8774	-1.16879	0	
0.0213	-12.9185	-1.48755	0	
0.0220	-9.23745	-0.876593	0	
0.0227	-6.18145	-1.48755	0	
0.0233	-3.438	-2.39071	0	
0.0240	-2.22254	-2.09851	0	
0.0247	0.208364	-3.00167	0	
0.0253	4.47982	-5.4455	0	
0.0260	5.41745	-5.76426	0	
0.0267	6.00781	-2.70947	0	
0.0273	13.9604	0.0531268	0	
0.0280	20.9753	0.664086	0	
0.0287	19.4473	1.886	0	
0.0293	13.9604	0.664086	0	
0.0300	9.37636	-2.09851	0	
0.0307	5.69527	-2.09851	0	
0.0313	5.41745	-1.16879	0	
0.0320	6.32036	-1.16879	0	
0.0327	4.47982	0.664086	0	
0.0333	1.73636	2.49696	0	
0.0340	-1.00709	0.664086	0	
0.0347	-2.84763	-0.265634	0	
0.0353	-1.31964	1.56724	0	
0.0360	2.63927	3.40012	0	
0.0367	3.26436	2.78916	0	
0.0373	-2.84763	1.886	0	
0.0380	-12.9185	2.49696	0	
0.0387	-20.246	2.78916	0	
0.0393	-22.3644	0.664086	0	
0.0400	-21.774	-2.70947	0	
0.0407	-17.5025	-3.32043	0	
0.0413	-9.23745	-1.48755	0	
0.0420	-2.84763	-0.557832	0	
0.0427	-2.84763	-1.16879	0	
0.0433	-2.53509	-1.48755	0	
0.0440	-2.84763	0.0531268	0	
0.0447	-8.33454	1.56724	0	
0.0453	-15.0369	0.956283	0	
0.0460	-20.246	-1.16879	0	
0.0467	-22.3644	-3.93139	0	
0.0473	-14.4465	-7.27838	0	
0.0480	-1.00709	-8.5003	0	
0.0487	4.47982	-8.2081	0	
0.0493	6.32036	-7.27838	0	
0.0500	12.7102	-6.05646	0	
0.0507	16.3913	-4.22358	0	
0.0513	12.7102	-2.39071	0	
0.0520	11.8073	-0.876593	0	
0.0527	19.7598	-1.16879	0	
0.0533	31.0462	-1.48755	0	
0.0540	36.2205	-1.48755	0	
0.0547	31.0462	-2.09851	0	
0.0553	20.3502	-2.09851	0	
0.0560	14.2382	0.664086	0	
0.0567	10.9044	2.49696	0	
0.0573	2.63927	1.56724	0	
0.0580	-10.4529	1.886	0	
0.0587	-17.5025	2.78916	0	
0.0593	-15.662	3.40012	0	
0.0600	-11.9809	2.49696	0	
0.0607	-8.95963	-0.265634	0	
0.0613	-5.27854	-1.16879	0	
0.0620	-1.91	0.956283	0	
0.0627	1.73636	1.886	0	
0.0633	5.69527	0.956283	0	
0.0640	6.32036	0.664086	0	
0.0647	4.16727	-0.265634	0	
0.0653	5.69527	-0.876593	0	
0.0660	8.1609	-0.265634	0	
0.0667	7.22327	-0.557832	0	
0.0673	9.06381	-1.16879	0	
0.0680	13.3353	-1.16879	0	
0.0687	13.3353	-2.09851	0	
0.0693	12.1198	-2.70947	0	
0.0700	9.96672	-2.09851	0	
0.0707	5.41745	-1.48755	0	
0.0713	5.41745	0.345324	0	
0.0720	8.75127	1.27504	0	
0.0727	5.69527	0.664086	0	
0.0733	1.11127	0.345324	0	
0.0740	-0.104182	-1.77975	0	
0.0747	-3.75054	-3.61263	0	
0.0753	-8.022	-0.265634	0	
0.0760	-8.33454	3.40012	0	
0.0767	-12.9185	3.40012	0	
0.0773	-24.2049	4.30327	0	
0.0780	-32.4353	5.23299	0	
0.0787	-32.4353	4.01108	0	
0.0793	-29.1014	5.84395	0	
0.0800	-26.0454	9.50971	0	
0.0807	-21.4614	7.96903	0	
0.0813	-14.7244	4.91423	0	
0.0820	-10.4529	6.74711	0	
0.0827	-8.95963	7.96903	0	
0.0833	-4.966	4.30327	0	
0.0840	-0.104182	0.956283	0	
0.0847	0.833454	0.345324	0	
0.0853	-0.694545	-0.557832	0	
0.0860	-0.104182	-2.39071	0	
0.0867	4.16727	-3.93139	0	
0.0873	13.6478	-5.4455	0	
0.0880	21.8782	-6.66742	0	
0.0887	21.2531	-6.66742	0	
0.0893	16.3913	-7.27838	0	
0.0900	13.0227	-8.5003	0	
0.0907	9.96672	-6.66742	0	
0.0913	7.22327	-3.93139	0	
0.0920	3.88945	-0.876593	0	
0.0927	-2.22254	0.0531268	0	
0.0933	-6.18145	-2.09851	0	
0.0940	-2.84763	-3.00167	0	
0.0947	-1.91	1.56724	0	
0.0953	-7.43163	5.23299	0	
0.0960	-8.64709	2.49696	0	
0.0967	-9.23745	-0.265634	0	
0.0973	-18.718	1.27504	0	
0.0980	-29.1014	3.40012	0	
0.0987	-27.8513	3.69232	0	
0.0993	-22.0518	3.08136	0	
0.1000	-18.0929	0.664086	0	
0.1007	-13.8214	-2.09851	0	
0.1013	-8.33454	0.345324	0	
0.1020	-2.84763	4.01108	0	
0.1027	-1.00709	3.40012	0	
0.1033	-2.53509	0.956283	0	
0.1040	-0.382	-0.557832	0	
0.1047	6.32036	-3.61263	0	
0.1053	10.9044	-4.22358	0	
0.1060	11.1822	-3.00167	0	
0.1067	13.9604	-4.54235	0	
0.1073	22.7811	-7.27838	0	
0.1080	31.9491	-6.98618	0	
0.1087	34.6925	-5.76426	0	
0.1093	32.852	-3.93139	0	
0.1100	27.0525	-3.32043	0	
0.1107	13.3353	-4.83454	0	
0.1113	-6.494	-3.32043	0	
0.1120	-25.7329	2.49696	0	
0.1127	-40.9782	2.78916	0	
0.1133	-52.8896	-0.265634	0	
0.1140	-56.8485	0.664086	0	
0.1147	-51.3616	2.78916	0	
0.1153	-40.6656	2.49696	0	
0.1160	-31.2198	2.49696	0	
0.1167	-30.0043	3.40012	0	
0.1173	-34.8662	5.84395	0	
0.1180	-27.2609	7.96903	0	
0.1187	2.63927	6.74711	0	
0.1193	37.7485	4.01108	0	
0.1200	57.5778	3.69232	0	
0.1207	56.6749	3.08136	0	
0.1213	39.5891	0.345324	0	
0.1220	19.1347	-1.77975	0	
0.1227	12.1198	-2.70947	0	
0.1233	12.7102	-3.32043	0	
0.1240	5.69527	-3.93139	0	
0.1247	2.63927	-5.76426	0	
0.1253	13.0227	-8.5003	0	
0.1260	21.2531	-6.66742	0	
0.1267	22.7811	-2.09851	0	
0.1273	29.5182	-0.876593	0	
0.1280	37.1234	-3.93139	0	
0.1287	37.436	-4.83454	0	
0.1293	34.1022	-3.93139	0	
0.1300	28.8931	-3.93139	0	
0.1307	21.2531	-4.22358	0	
0.1313	16.0787	-3.00167	0	
0.1320	9.37636	-0.557832	0	
0.1327	-1.00709	0.664086	0	
0.1333	-6.18145	2.1782	0	
0.1340	-3.16018	4.30327	0	
0.1347	-1.31964	4.01108	0	
0.1353	-3.16018	2.49696	0	
0.1360	-5.59109	3.40012	0	
0.1367	-9.86254	5.23299	0	
0.1373	-15.3494	6.13615	0	
0.1380	-20.246	7.06587	0	
0.1387	-24.7953	5.23299	0	
0.1393	-27.5734	1.56724	0	
0.1400	-26.9483	1.56724	0	
0.1407	-26.6358	1.56724	0	
0.1413	-26.9483	-1.48755	0	
0.1420	-21.4614	-2.09851	0	
0.1427	-12.9185	0.664086	0	
0.1433	-8.022	0.956283	0	
0.1440	-5.90363	-0.265634	0	
0.1447	-3.438	-1.48755	0	
0.1453	-1.91	-3.00167	0	
0.1460	-0.104182	-3.93139	0	
0.1467	6.32036	-5.76426	0	
0.1473	16.0787	-7.59714	0	
0.1480	24.3091	-6.05646	0	
0.1487	28.5805	-5.4455	0	
0.1493	30.1085	-5.76426	0	
0.1500	29.2056	-3.00167	0	
0.1507	24.3091	-0.265634	0	
0.1513	15.4884	-1.77975	0	
0.1520	7.53581	-3.61263	0	
0.1527	3.57691	-3.00167	0	
0.1533	2.04891	-2.09851	0	
0.1540	-0.104182	-1.48755	0	
0.1547	-2.84763	-3.00167	0	
0.1553	-3.438	-3.61263	0	
0.1560	-1.91	-1.16879	0	
0.1567	-2.84763	-0.265634	0	
0.1573	-12.606	-1.16879	0	
0.1580	-23.8924	1.886	0	
0.1587	-25.1078	2.78916	0	
0.1593	-20.246	-0.876593	0	
0.1600	-20.246	0.0531268	0	
0.1607	-21.1489	2.49696	0	
0.1613	-17.19	-0.265634	0	
0.1620	-12.9185	-2.09851	0	
0.1627	-10.7654	-0.265634	0	
0.1633	-8.33454	-0.876593	0	
0.1640	-5.90363	-1.77975	0	
0.1647	-5.90363	-0.876593	0	
0.1653	-7.43163	-1.77975	0	
0.1660	-6.494	-2.09851	0	
0.1667	-0.104182	-0.265634	0	
0.1673	9.6889	-1.16879	0	
0.1680	16.3913	-3.93139	0	
0.1687	17.9193	-3.00167	0	
0.1693	17.2942	0.956283	0	
0.1700	14.5507	1.56724	0	
0.1707	10.5918	0.0531268	0	
0.1713	8.43872	-0.557832	0	
0.1720	6.32036	-1.16879	0	
0.1727	2.36145	-0.876593	0	
0.1733	-0.104182	0.345324	0	
0.1740	-1.31964	-1.16879	0	
0.1747	-4.966	-1.77975	0	
0.1753	-6.494	1.56724	0	
0.1760	-4.37563	3.69232	0	
0.1767	-8.33454	3.08136	0	
0.1773	-17.7804	4.30327	0	
0.1780	-22.9894	5.52519	0	
0.1787	-22.9894	3.40012	0	
0.1793	-23.302	2.1782	0	
0.1800	-21.774	3.08136	0	
0.1807	-15.662	1.56724	0	
0.1813	-9.86254	-0.265634	0	
0.1820	-8.33454	0.956283	0	
0.1827	-7.11909	3.40012	0	
0.1833	-3.75054	2.1782	0	
0.1840	-1.63218	-0.265634	0	
0.1847	1.11127	0.345324	0	
0.1853	4.47982	1.56724	0	
0.1860	5.41745	-0.265634	0	
0.1867	7.84836	-2.09851	0	
0.1873	15.7662	-3.00167	0	
0.1880	22.7811	-4.22358	0	
0.1887	23.0936	-3.93139	0	
0.1893	20.0376	-1.48755	0	
0.1900	16.7038	-1.16879	0	
0.1907	15.4884	-2.70947	0	
0.1913	18.2318	-2.70947	0	
0.1920	16.9816	-2.09851	0	
0.1927	9.37636	-1.77975	0	
0.1933	3.26436	-0.265634	0	
0.1940	2.63927	-0.265634	0	
0.1947	1.42382	-1.48755	0	
0.1953	-2.84763	-1.16879	0	
0.1960	-7.43163	0.0531268	0	
0.1967	-11.7031	1.56724	0	
0.1973	-18.718	0.664086	0	
0.1980	-28.1638	-0.265634	0	
0.1987	-34.8662	2.49696	0	
0.1993	-36.7067	4.30327	0	
0.2000	-36.3942	1.27504	0	
0.2007	-34.5883	0.345324	0	
0.2013	-30.3169	2.78916	0	
0.2020	-25.1078	0.664086	0	
0.2027	-20.5238	-2.39071	0	
0.2033	-16.5649	-0.265634	0	
0.2040	-11.078	0.345324	0	
0.2047	-2.84763	-3.00167	0	
0.2053	5.69527	-3.32043	0	
0.2060	16.0787	-2.70947	0	
0.2067	33.1645	-2.70947	0	
0.2073	52.0909	-2.09851	0	
0.2080	58.7932	-2.70947	0	
0.2087	51.7783	-4.83454	0	
0.2093	40.1794	-6.98618	0	
0.2100	30.1085	-6.98618	0	
0.2107	24.3091	-3.32043	0	
0.2113	20.6627	0.664086	0	
0.2120	16.9816	1.56724	0	
0.2127	14.5507	1.56724	0	
0.2133	11.8073	1.886	0	
0.2140	6.91072	1.27504	0	
0.2147	3.26436	1.886	0	
0.2153	2.63927	4.30327	0	
0.2160	-1.00709	4.01108	0	
0.2167	-8.33454	1.886	0	
0.2173	-18.4054	4.91423	0	
0.2180	-26.3233	9.50971	0	
0.2187	-27.8513	8.89875	0	
0.2193	-24.2049	5.52519	0	
0.2200	-20.5238	4.30327	0	
0.2207	-15.662	1.886	0	
0.2213	-9.86254	-1.16879	0	
0.2220	-5.59109	0.0531268	0	
0.2227	-1.00709	2.1782	0	
0.2233	4.47982	1.56724	0	
0.2240	9.37636	0.956283	0	
0.2247	10.9044	0.664086	0	
0.2253	8.75127	-0.265634	0	
0.2260	8.1609	1.27504	0	
0.2267	13.6478	0.956283	0	
0.2273	19.1347	-4.83454	0	
0.2280	20.0376	-7.59714	0	
0.2287	24.6216	-4.83454	0	
0.2293	28.8931	-3.61263	0	
0.2300	22.7811	-3.93139	0	
0.2307	14.5507	-1.48755	0	
0.2313	12.4324	2.49696	0	
0.2320	8.43872	3.08136	0	
0.2327	3.57691	0.664086	0	
0.2333	2.04891	-0.876593	0	
0.2340	-1.63218	-0.876593	0	
0.2347	-4.65345	-1.16879	0	
0.2353	-3.75054	-0.876593	0	
0.2360	-5.59109	0.664086	0	
0.2367	-10.4529	1.56724	0	
0.2373	-16.5649	1.56724	0	
0.2380	-25.7329	3.40012	0	
0.2387	-34.2758	3.40012	0	
0.2393	-35.8038	1.27504	0	
0.2400	-34.8662	1.27504	0	
0.2407	-32.4353	1.886	0	
0.2413	-23.8924	1.56724	0	
0.2420	-15.0369	3.40012	0	
0.2427	-11.3905	3.69232	0	
0.2433	-8.64709	-0.265634	0	
0.2440	-5.27854	-3.00167	0	
0.2447	-1.91	-3.00167	0	
0.2453	2.95182	-3.61263	0	
0.2460	7.84836	-3.00167	0	
0.2467	10.5918	-2.09851	0	
0.2473	14.5507	-5.76426	0	
0.2480	19.1347	-9.11125	0	
0.2487	20.6627	-5.76426	0	
0.2493	18.8222	-3.93139	0	
0.2500	16.3913	-6.37522	0	
0.2507	13.3353	-4.54235	0	
0.2513	7.84836	-1.48755	0	
0.2520	3.57691	-3.93139	0	
0.2527	4.47982	-5.4455	0	
0.2533	7.22327	-3.00167	0	
0.2540	8.1609	-0.876593	0	
0.2547	10.5918	0.345324	0	
0.2553	11.8073	0.664086	0	
0.2560	5.69527	1.56724	0	
0.2567	-4.966	5.52519	0	
0.2573	-19.0305	7.35807	0	
0.2580	-32.4353	4.30327	0	
0.2587	-33.9633	3.69232	0	
0.2593	-24.5174	5.23299	0	
0.2600	-17.5025	2.1782	0	
0.2607	-15.0369	-2.39071	0	
0.2613	-11.7031	-2.70947	0	
0.2620	-8.33454	-0.265634	0	
0.2627	-4.65345	1.886	0	
0.2633	-1.00709	1.56724	0	
0.2640	-1.00709	-3.00167	0	
0.2647	-1.63218	-5.76426	0	
0.2653	2.63927	-3.93139	0	
0.2660	5.41745	-0.265634	0	
0.2667	3.57691	-1.77975	0	
0.2673	2.36145	-5.4455	0	
0.2680	1.42382	-6.66742	0	
0.2687	0.833454	-5.76426	0	
0.2693	1.73636	-5.1533	0	
0.2700	-0.104182	-4.22358	0	
0.2707	-4.06309	-3.61263	0	
0.2713	-5.27854	-3.93139	0	
0.2720	-7.43163	-3.93139	0	
0.2727	-11.9809	-3.00167	0	
0.2733	-10.7654	-1.16879	0	
0.2740	0.208364	0.345324	0	
0.2747	15.1758	2.49696	0	
0.2753	28.5805	3.69232	0	
0.2760	35.0051	2.78916	0	
0.2767	24.0313	1.886	0	
0.2773	1.73636	3.40012	0	
0.2780	-12.606	3.40012	0	
0.2787	-15.662	2.49696	0	
0.2793	-19.0305	2.78916	0	
0.2800	-18.0929	3.40012	0	
0.2807	-10.4529	4.01108	0	
0.2813	-7.43163	4.62204	0	
0.2820	-9.86254	3.69232	0	
0.2827	-6.18145	1.56724	0	
0.2833	-0.104182	0.664086	0	
0.2840	0.833454	1.27504	0	
0.2847	2.63927	0.956283	0	
0.2853	6.00781	0.0531268	0	
0.2860	4.47982	0.0531268	0	
0.2867	6.00781	-0.265634	0	
0.2873	15.4884	-1.77975	0	
0.2880	21.5656	-2.70947	0	
0.2887	21.5656	-1.16879	0	
0.2893	21.2531	-2.39071	0	
0.2900	17.2942	-5.4455	0	
0.2907	9.06381	-4.54235	0	
0.2913	4.16727	-0.876593	0	
0.2920	2.63927	0.664086	0	
0.2927	-0.104182	-0.557832	0	
0.2933	-1.00709	-0.876593	0	
0.2940	-1.31964	1.56724	0	
0.2947	-5.27854	3.40012	0	
0.2953	-8.022	-0.265634	0	
0.2960	-8.64709	-3.00167	0	
0.2967	-12.9185	0.664086	0	
0.2973	-19.3084	2.49696	0	
0.2980	-23.8924	1.56724	0	
0.2987	-26.3233	3.40012	0	
0.2993	-25.4203	5.52519	0	
0.3000	-19.3084	4.30327	0	
0.3007	-13.8214	1.56724	0	
0.3013	-10.7654	-0.557832	0	
0.3020	-6.18145	-3.61263	0	
0.3027	0.520909	-4.22358	0	
0.3033	2.63927	-3.00167	0	
0.3040	2.63927	-2.70947	0	
0.3047	5.69527	-3.32043	0	
0.3053	8.43872	-2.09851	0	
0.3060	8.43872	0.0531268	0	
0.3067	11.8073	-1.48755	0	
0.3073	19.1347	-4.83454	0	
0.3080	23.4062	-4.22358	0	
0.3087	24.6216	-2.09851	0	
0.3093	23.4062	-3.00167	0	
0.3100	19.7598	-3.93139	0	
0.3107	20.0376	-3.32043	0	
0.3113	23.7187	-2.39071	0	
0.3120	21.8782	-3.00167	0	
0.3127	13.0227	-2.70947	0	
0.3133	3.57691	-1.16879	0	
0.3140	-3.16018	0.0531268	0	
0.3147	-8.33454	0.0531268	0	
0.3153	-14.134	0.0531268	0	
0.3160	-19.3084	1.56724	0	
0.3167	-21.1489	3.69232	0	
0.3173	-23.8924	5.52519	0	
0.3180	-28.4763	7.35807	0	
0.3187	-27.8513	7.06587	0	
0.3193	-24.2049	4.62204	0	
0.3200	-21.774	3.08136	0	
0.3207	-12.9185	3.40012	0	
0.3213	1.11127	1.886	0	
0.3220	4.79236	-0.557832	0	
0.3227	-0.104182	-1.77975	0	
0.3233	0.833454	-0.557832	0	
0.3240	4.79236	0.664086	0	
0.3247	3.88945	-1.16879	0	
0.3253	2.63927	-3.93139	0	
0.3260	5.69527	-3.00167	0	
0.3267	11.4947	-1.16879	0	
0.3273	19.1347	-4.22358	0	
0.3280	23.4062	-7.59714	0	
0.3287	22.5033	-4.22358	0	
0.3293	22.1907	-0.876593	0	
0.3300	20.9753	-2.09851	0	
0.3307	13.6478	-2.09851	0	
0.3313	7.53581	0.345324	0	
0.3320	6.63291	1.56724	0	
0.3327	2.63927	0.664086	0	
0.3333	-3.438	-0.557832	0	
0.3340	-3.75054	-1.16879	0	
0.3347	-2.84763	0.0531268	0	
0.3353	-3.438	3.40012	0	
0.3360	-3.16018	4.91423	0	
0.3367	-8.022	4.01108	0	
0.3373	-17.5025	3.40012	0	
0.3380	-19.6209	3.40012	0	
0.3387	-16.5649	4.30327	0	
0.3393	-17.19	6.13615	0	
0.3400	-14.7244	4.91423	0	
0.3407	-6.80654	1.886	0	
0.3413	-3.438	0.0531268	0	
0.3420	-3.438	-1.48755	0	
0.3427	-1.31964	-2.70947	0	
0.3433	1.42382	-1.16879	0	
0.3440	4.47982	0.345324	0	
0.3447	7.84836	0.664086	0	
0.3453	6.32036	0.664086	0	
0.3460	4.16727	-1.48755	0	
0.3467	6.91072	-4.54235	0	
0.3473	9.96672	-4.83454	0	
0.3480	7.22327	-3.93139	0	
0.3487	-1.91	-2.09851	0	
0.3493	-15.662	-1.48755	0	
0.3500	-29.1014	-3.93139	0	
0.3507	-34.5883	-5.76426	0	
0.3513	-30.0043	-3.00167	0	
0.3520	-22.9894	-1.77975	0	
0.3527	-19.9334	-3.93139	0	
0.3533	-16.2524	-3.00167	0	
0.3540	-8.64709	1.56724	0	
0.3547	1.73636	2.78916	0	
0.3553	15.4884	0.0531268	0	
0.3560	28.3027	-1.16879	0	
0.3567	31.0462	0.345324	0	
0.3573	30.1085	2.49696	0	
0.3580	30.1085	4.01108	0	
0.3587	20.9753	4.30327	0	
0.3593	4.79236	4.91423	0	
0.3600	-2.22254	4.91423	0	
0.3607	-0.382	3.69232	0	
0.3613	-0.104182	2.49696	0	
0.3620	-0.104182	1.886	0	
0.3627	1.11127	-0.265634	0	
0.3633	3.26436	-1.77975	0	
0.3640	7.84836	-0.557832	0	
0.3647	10.9044	1.56724	0	
0.3653	9.06381	1.27504	0	
0.3660	10.9044	-0.557832	0	
0.3667	22.7811	-2.09851	0	
0.3673	33.1645	-3.00167	0	
0.3680	36.5331	-3.93139	0	
0.3687	37.436	-4.83454	0	
0.3693	36.2205	-2.39071	0	
0.3700	28.3027	2.1782	0	
0.3707	16.0787	2.49696	0	
0.3713	8.1609	1.27504	0	
0.3720	5.41745	2.49696	0	
0.3727	1.73636	1.56724	0	
0.3733	-8.022	-0.876593	0	
0.3740	-18.0929	1.27504	0	
0.3747	-22.3644	4.30327	0	
0.3753	-22.0518	0.956283	0	
0.3760	-21.1489	-1.48755	0	
0.3767	-22.3644	2.49696	0	
0.3773	-22.9894	5.84395	0	
0.3780	-20.5238	5.84395	0	
0.3787	-20.8364	6.13615	0	
0.3793	-26.9483	6.45491	0	
0.3800	-27.2609	4.01108	0	
0.3807	-16.2524	0.664086	0	
0.3813	-7.70945	-1.16879	0	
0.3820	-4.06309	-1.16879	0	
0.3827	2.95182	-2.09851	0	
0.3833	6.91072	-5.76426	0	
0.3840	-1.63218	-8.5003	0	
0.3847	-13.2311	-5.76426	0	
0.3853	-20.246	-2.09851	0	
0.3860	-20.246	-3.32043	0	
0.3867	-9.23745	-7.27838	0	
0.3873	6.91072	-9.72221	0	
0.3880	17.9193	-8.5003	0	
0.3887	21.8782	-6.66742	0	
0.3893	20.6627	-5.1533	0	
0.3900	16.7038	-4.22358	0	
0.3907	12.7102	-3.00167	0	
0.3913	7.84836	-0.265634	0	
0.3920	4.47982	3.69232	0	
0.3927	3.26436	4.62204	0	
0.3933	-1.00709	1.56724	0	
0.3940	-9.23745	-1.16879	0	
0.3947	-14.7244	-2.39071	0	
0.3953	-17.5025	-2.09851	0	
0.3960	-16.2524	-2.70947	0	
0.3967	-10.7654	-3.93139	0	
0.3973	-11.078	-2.39071	0	
0.3980	-19.3084	0.956283	0	
0.3987	-20.5238	-0.265634	0	
0.3993	-17.5025	-3.93139	0	
0.4000	-20.246	-3.32043	0	
0.4007	-20.8364	-0.876593	0	
0.4013	-12.9185	-1.77975	0	
0.4020	-5.90363	-2.70947	0	
0.4027	-4.65345	-2.39071	0	
0.4033	-2.53509	-1.77975	0	
0.4040	2.63927	-1.48755	0	
0.4047	6.32036	-1.77975	0	
0.4053	7.53581	-1.16879	0	
0.4060	8.75127	0.956283	0	
0.4067	11.8073	0.345324	0	
0.4073	18.2318	-3.32043	0	
0.4080	23.7187	-3.93139	0	
0.4087	25.5593	-3.00167	0	
0.4093	23.4062	-3.00167	0	
0.4100	19.7598	-2.39071	0	
0.4107	13.6478	-1.77975	0	
0.4113	8.1609	-3.00167	0	
0.4120	6.32036	-2.09851	0	
0.4127	4.16727	0.664086	0	
0.4133	0.520909	-0.557832	0	
0.4140	-2.22254	-1.77975	0	
0.4147	-4.966	0.956283	0	
0.4153	-8.33454	1.56724	0	
0.4160	-11.3905	0.345324	0	
0.4167	-15.9745	3.08136	0	
0.4173	-22.0518	5.52519	0	
0.4180	-25.7329	5.23299	0	
0.4187	-27.5734	4.91423	0	
0.4193	-27.5734	3.08136	0	
0.4200	-22.6769	-0.265634	0	
0.4207	-17.19	0.345324	0	
0.4213	-15.9745	1.56724	0	
0.4220	-12.606	0.956283	0	
0.4227	-4.06309	1.27504	0	
0.4233	0.833454	1.56724	0	
0.4240	0.833454	-0.876593	0	
0.4247	3.57691	-3.00167	0	
0.4253	7.22327	-2.70947	0	
0.4260	6.32036	-2.09851	0	
0.4267	7.53581	-2.09851	0	
0.4273	15.4884	-2.39071	0	
0.4280	21.8782	-3.00167	0	
0.4287	18.2318	-3.32043	0	
0.4293	13.0227	-1.16879	0	
0.4300	15.7662	0.0531268	0	
0.4307	20.0376	-0.557832	0	
0.4313	18.5096	1.56724	0	
0.4320	15.7662	4.91423	0	
0.4327	13.0227	3.08136	0	
0.4333	8.43872	0.664086	0	
0.4340	5.41745	2.78916	0	
0.4347	6.32036	4.30327	0	
0.4353	8.1609	2.1782	0	
0.4360	5.41745	2.49696	0	
0.4367	-1.00709	4.30327	0	
0.4373	-10.1751	2.49696	0	
0.4380	-19.3084	2.49696	0	
0.4387	-24.2049	6.13615	0	
0.4393	-22.9894	7.96903	0	
0.4400	-19.0305	4.91423	0	
0.4407	-15.662	-0.265634	0	
0.4413	-11.9809	-3.93139	0	
0.4420	-7.11909	-4.83454	0	
0.4427	-6.494	-5.76426	0	
0.4433	-8.33454	-6.05646	0	
0.4440	-4.37563	-3.93139	0	
0.4447	1.73636	-0.876593	0	
0.4453	3.57691	0.664086	0	
0.4460	5.41745	-0.265634	0	
0.4467	12.7102	-2.09851	0	
0.4473	20.0376	-3.93139	0	
0.4480	23.4062	-6.66742	0	
0.4487	24.6216	-8.81906	0	
0.4493	23.4062	-8.2081	0	
0.4500	18.2318	-4.83454	0	
0.4507	13.0227	-3.93139	0	
0.4513	9.37636	-4.83454	0	
0.4520	6.32036	-4.54235	0	
0.4527	4.47982	-2.70947	0	
0.4533	2.63927	-1.77975	0	
0.4540	-0.694545	-3.00167	0	
0.4547	-4.966	-2.70947	0	
0.4553	-7.11909	0.0531268	0	
0.4560	-9.23745	1.56724	0	
0.4567	-17.19	2.49696	0	
0.4573	-30.3169	4.62204	0	
0.4580	-41.9158	6.45491	0	
0.4587	-47.7152	4.30327	0	
0.4593	-46.7776	3.08136	0	
0.4600	-40.0752	5.23299	0	
0.4607	-33.0603	5.84395	0	
0.4613	-26.6358	3.69232	0	
0.4620	-15.0369	2.78916	0	
0.4627	-4.06309	2.49696	0	
0.4633	-1.63218	1.56724	0	
0.4640	4.79236	1.56724	0	
0.4647	21.8782	0.664086	0	
0.4653	35.6302	-0.876593	0	
0.4660	42.6451	0.664086	0	
0.4667	49.0349	0.0531268	0	
0.4673	47.8194	-4.83454	0	
0.4680	38.0611	-6.37522	0	
0.4687	31.9491	-3.00167	0	
0.4693	30.1085	-3.00167	0	
0.4700	24.6216	-4.54235	0	
0.4707	17.9193	-3.61263	0	
0.4713	13.0227	-1.16879	0	
0.4720	5.41745	-0.265634	0	
0.4727	-0.694545	-1.16879	0	
0.4733	-3.75054	-3.00167	0	
0.4740	-10.1751	-1.77975	0	
0.4747	-14.134	1.56724	0	
0.4753	-8.64709	0.956283	0	
0.4760	-6.18145	0.0531268	0	
0.4767	-16.5649	0.664086	0	
0.4773	-25.7329	-0.876593	0	
0.4780	-24.2049	-0.265634	0	
0.4787	-18.4054	3.69232	0	
0.4793	-11.078	5.23299	0	
0.4800	-5.27854	5.23299	0	
0.4807	-4.966	6.45491	0	
0.4813	-5.90363	3.40012	0	
0.4820	-3.16018	-0.876593	0	
0.4827	-1.00709	0.0531268	0	
0.4833	-1.00709	0.664086	0	
0.4840	-0.694545	-2.09851	0	
0.4847	1.73636	-3.93139	0	
0.4853	2.04891	-4.83454	0	
0.4860	1.42382	-7.27838	0	
0.4867	6.32036	-11.8473	0	
0.4873	15.4884	-13.9989	0	
0.4880	17.2942	-10.9441	0	
0.4887	9.6889	-6.98618	0	
0.4893	1.73636	-6.05646	0	
0.4900	-3.438	-3.93139	0	
0.4907	-6.18145	-0.265634	0	
0.4913	-5.59109	1.56724	0	
0.4920	-5.59109	2.1782	0	
0.4927	-8.33454	0.0531268	0	
0.4933	-12.9185	-3.00167	0	
0.4940	-17.5025	-0.876593	0	
0.4947	-20.246	1.56724	0	
0.4953	-19.3084	-0.876593	0	
0.4960	-14.4465	-1.48755	0	
0.4967	-5.59109	2.78916	0	
0.4973	-0.382	6.13615	0	
0.4980	-5.59109	7.06587	0	
0.4987	-13.8214	6.74711	0	
0.4993	-14.7244	5.52519	0	
0.5000	-13.2311	3.40012	0	
0.5007	-13.2311	1.56724	0	
0.5013	-11.7031	0.0531268	0	
0.5020	-8.022	0.664086	0	
0.5027	-3.75054	0.0531268	0	
0.5033	-0.104182	-1.48755	0	
0.5040	0.833454	-1.16879	0	
0.5047	2.63927	0.0531268	0	
0.5053	10.9044	-0.557832	0	
0.5060	19.4473	-3.00167	0	
0.5067	22.5033	-4.83454	0	
0.5073	26.4622	-4.83454	0	
0.5080	34.6925	-3.93139	0	
0.5087	38.3736	-4.22358	0	
0.5093	34.6925	-5.76426	0	
0.5100	30.1085	-5.76426	0	
0.5107	26.4622	-4.83454	0	
0.5113	20.3502	-4.54235	0	
0.5120	12.7102	-1.77975	0	
0.5127	5.69527	2.49696	0	
0.5133	-1.00709	-0.265634	0	
0.5140	-8.33454	-3.61263	0	
0.5147	-11.3905	-0.265634	0	
0.5153	-8.95963	2.78916	0	
0.5160	-7.70945	2.49696	0	
0.5167	-12.2934	4.01108	0	
0.5173	-18.0929	5.23299	0	
0.5180	-20.8364	4.30327	0	
0.5187	-20.246	4.91423	0	
0.5193	-17.5025	4.30327	0	
0.5200	-17.19	1.56724	0	
0.5207	-20.246	1.27504	0	
0.5213	-22.9894	0.345324	0	
0.5220	-26.3233	-3.32043	0	
0.5227	-29.3793	-5.76426	0	
0.5233	-22.3644	-5.76426	0	
0.5240	-7.11909	-3.00167	0	
0.5247	1.73636	-1.77975	0	
0.5253	2.04891	-3.93139	0	
0.5260	1.73636	-5.76426	0	
0.5267	6.32036	-4.83454	0	
0.5273	18.2318	-6.05646	0	
0.5280	31.6365	-7.88934	0	
0.5287	36.5331	-6.66742	0	
0.5293	30.1085	-5.4455	0	
0.5300	21.5656	-5.76426	0	
0.5307	16.0787	-3.93139	0	
0.5313	10.5918	-1.16879	0	
0.5320	1.42382	1.27504	0	
0.5327	-8.33454	1.886	0	
0.5333	-14.4465	0.0531268	0	
0.5340	-18.718	-1.77975	0	
0.5347	-21.1489	-1.16879	0	
0.5353	-21.4614	1.27504	0	
0.5360	-23.5798	1.886	0	
0.5367	-28.4763	1.56724	0	
0.5373	-32.7478	2.49696	0	
0.5380	-35.8038	4.30327	0	
0.5387	-33.9633	3.69232	0	
0.5393	-21.1489	1.56724	0	
0.5400	-0.694545	0.0531268	0	
0.5407	17.2942	0.956283	0	
0.5413	25.5593	0.345324	0	
0.5420	21.2531	-3.00167	0	
0.5427	11.8073	-3.32043	0	
0.5433	7.22327	-1.48755	0	
0.5440	8.1609	-3.93139	0	
0.5447	7.84836	-6.05646	0	
0.5453	4.47982	-3.32043	0	
0.5460	3.88945	-1.48755	0	
0.5467	10.2793	-3.93139	0	
0.5473	17.2942	-4.83454	0	
0.5480	20.3502	-3.93139	0	
0.5487	23.0936	-3.00167	0	
0.5493	24.6216	-3.00167	0	
0.5500	22.7811	-2.70947	0	
0.5507	23.7187	-0.265634	0	
0.5513	28.3027	3.40012	0	
0.5520	28.8931	5.23299	0	
0.5527	23.7187	4.30327	0	
0.5533	19.1347	2.1782	0	
0.5540	13.3353	0.664086	0	
0.5547	5.69527	2.49696	0	
0.5553	3.57691	4.62204	0	
0.5560	3.26436	6.13615	0	
0.5567	-6.18145	7.06587	0	
0.5573	-19.3084	7.35807	0	
0.5580	-25.7329	7.06587	0	
0.5587	-29.3793	6.13615	0	
0.5593	-32.1227	3.40012	0	
0.5600	-27.2609	2.78916	0	
0.5607	-23.8924	3.69232	0	
0.5613	-26.0454	1.56724	0	
0.5620	-20.246	-1.77975	0	
0.5627	-5.59109	-1.16879	0	
0.5633	3.57691	-0.265634	0	
0.5640	6.32036	-2.39071	0	
0.5647	7.22327	-3.32043	0	
0.5653	6.32036	-4.54235	0	
0.5660	6.32036	-6.66742	0	
0.5667	9.6889	-5.76426	0	
0.5673	15.7662	-3.61263	0	
0.5680	20.0376	-3.93139	0	
0.5687	19.1347	-2.39071	0	
0.5693	14.8633	-0.265634	0	
0.5700	11.4947	-1.16879	0	
0.5707	7.22327	2.1782	0	
0.5713	4.16727	7.35807	0	
0.5720	3.26436	3.40012	0	
0.5727	-0.104182	-2.09851	0	
0.5733	-6.18145	-0.265634	0	
0.5740	-9.86254	0.345324	0	
0.5747	-8.33454	-2.09851	0	
0.5753	-4.06309	1.56724	0	
0.5760	-4.06309	6.13615	0	
0.5767	-10.4529	7.06587	0	
0.5773	-17.7804	7.06587	0	
0.5780	-23.302	5.84395	0	
0.5787	-25.7329	4.30327	0	
0.5793	-23.8924	6.13615	0	
0.5800	-19.3084	5.52519	0	
0.5807	-13.8214	2.1782	0	
0.5813	-7.43163	0.956283	0	
0.5820	-3.75054	1.56724	0	
0.5827	-1.63218	0.956283	0	
0.5833	3.57691	-0.265634	0	
0.5840	9.37636	-2.39071	0	
0.5847	10.2793	-3.93139	0	
0.5853	7.84836	-3.93139	0	
0.5860	4.47982	-4.54235	0	
0.5867	2.95182	-4.83454	0	
0.5873	3.57691	-4.22358	0	
0.5880	4.47982	-5.4455	0	
0.5887	6.00781	-5.4455	0	
0.5893	11.1822	-1.77975	0	
0.5900	16.9816	0.0531268	0	
0.5907	20.6627	-3.00167	0	
0.5913	20.6627	-5.4455	0	
0.5920	13.6478	-4.83454	0	
0.5927	6.32036	-2.09851	0	
0.5933	7.84836	0.345324	0	
0.5940	8.43872	0.664086	0	
0.5947	1.73636	-0.265634	0	
0.5953	-4.06309	0.664086	0	
0.5960	-6.494	2.49696	0	
0.5967	-16.2524	4.91423	0	
0.5973	-30.9073	6.13615	0	
0.5980	-39.4502	5.23299	0	
0.5987	-41.2907	4.01108	0	
0.5993	-40.3878	4.30327	0	
0.6000	-35.1787	4.30327	0	
0.6007	-29.6918	0.956283	0	
0.6013	-26.6358	-3.00167	0	
0.6020	-22.6769	-3.00167	0	
0.6027	-15.662	-0.265634	0	
0.6033	-10.1751	0.956283	0	
0.6040	-2.84763	-0.265634	0	
0.6047	14.2382	-1.77975	0	
0.6053	35.3176	-3.93139	0	
0.6060	47.8194	-3.93139	0	
0.6067	50.5629	-1.77975	0	
0.6073	45.7011	-3.00167	0	
0.6080	33.7896	-4.83454	0	
0.6087	24.0313	-3.61263	0	
0.6093	19.4473	-2.09851	0	
0.6100	10.9044	0.664086	0	
0.6107	-1.31964	4.91423	0	
0.6113	-4.06309	4.91423	0	
0.6120	-1.31964	1.27504	0	
0.6127	-4.37563	-2.09851	0	
0.6133	-6.494	-4.22358	0	
0.6140	-1.31964	-4.54235	0	
0.6147	7.53581	-3.32043	0	
0.6153	16.3913	-3.00167	0	
0.6160	18.8222	-0.265634	0	
0.6167	7.22327	4.30327	0	
0.6173	-11.9809	4.91423	0	
0.6180	-22.3644	4.30327	0	
0.6187	-21.1489	6.74711	0	
0.6193	-17.19	6.45491	0	
0.6200	-19.0305	1.886	0	
0.6207	-21.1489	-2.70947	0	
0.6213	-15.3494	-3.93139	0	
0.6220	-1.63218	-3.93139	0	
0.6227	13.6478	-6.66742	0	
0.6233	21.5656	-10.6519	0	
0.6240	19.4473	-9.72221	0	
0.6247	15.4884	-6.98618	0	
0.6253	14.5507	-4.83454	0	
0.6260	14.5507	-2.09851	0	
0.6267	18.8222	-3.93139	0	
0.6273	29.2056	-8.81906	0	
0.6280	35.908	-7.59714	0	
0.6287	33.7896	-5.76426	0	
0.6293	27.3651	-6.66742	0	
0.6300	20.6627	-3.00167	0	
0.6307	13.6478	1.27504	0	
0.6313	8.75127	-1.16879	0	
0.6320	3.57691	-2.09851	0	
0.6327	-1.00709	-1.48755	0	
0.6333	-4.966	-3.32043	0	
0.6340	-11.078	-2.09851	0	
0.6347	-17.5025	0.956283	0	
0.6353	-19.0305	-1.77975	0	
0.6360	-19.3084	-3.61263	0	
0.6367	-22.6769	0.664086	0	
0.6373	-25.7329	3.40012	0	
0.6380	-24.7953	3.08136	0	
0.6387	-22.9894	3.40012	0	
0.6393	-20.8364	3.40012	0	
0.6400	-18.718	1.56724	0	
0.6407	-19.6209	0.664086	0	
0.6413	-22.9894	2.78916	0	
0.6420	-23.302	4.30327	0	
0.6427	-19.9334	2.49696	0	
0.6433	-16.8774	1.27504	0	
0.6440	-10.7654	-0.265634	0	
0.6447	0.833454	-3.32043	0	
0.6453	7.22327	-3.00167	0	
0.6460	4.79236	-0.557832	0	
0.6467	9.06381	-2.09851	0	
0.6473	21.2531	-3.93139	0	
0.6480	27.0525	-1.77975	0	
0.6487	24.9342	0.345324	0	
0.6493	24.0313	-1.16879	0	
0.6500	20.9753	-3.00167	0	
0.6507	13.9604	-3.00167	0	
0.6513	8.1609	-2.09851	0	
0.6520	3.88945	-0.876593	0	
0.6527	-0.104182	-0.876593	0	
0.6533	-4.65345	-1.16879	0	
0.6540	-10.1751	-0.265634	0	
0.6547	-11.7031	1.886	0	
0.6553	-5.59109	3.40012	0	
0.6560	-1.91	2.49696	0	
0.6567	-6.494	1.886	0	
0.6573	-13.5089	3.69232	0	
0.6580	-19.3084	5.23299	0	
0.6587	-24.2049	5.23299	0	
0.6593	-23.5798	4.30327	0	
0.6600	-19.9334	2.1782	0	
0.6607	-19.3084	1.27504	0	
0.6613	-17.5025	3.08136	0	
0.6620	-11.3905	4.01108	0	
0.6627	-6.80654	1.886	0	
0.6633	-6.494	0.0531268	0	
0.6640	-8.33454	-0.265634	0	
0.6647	-11.078	-0.265634	0	
0.6653	-13.2311	-1.16879	0	
0.6660	-10.4529	-3.00167	0	
0.6667	-1.31964	-4.83454	0	
0.6673	9.6889	-4.83454	0	
0.6680	16.7038	-3.93139	0	
0.6687	19.7598	-4.22358	0	
0.6693	22.7811	-5.4455	0	
0.6700	27.3651	-2.39071	0	
0.6707	34.38	1.56724	0	
0.6713	39.9016	0.345324	0	
0.6720	35.6302	0.664086	0	
0.6727	24.6216	5.23299	0	
0.6733	15.4884	5.52519	0	
0.6740	7.53581	1.56724	0	
0.6747	0.208364	0.0531268	0	
0.6753	-1.63218	0.664086	0	
0.6760	-0.104182	0.664086	0	
0.6767	-1.91	3.40012	0	
0.6773	-9.23745	6.13615	0	
0.6780	-16.2524	5.23299	0	
0.6787	-19.9334	4.62204	0	
0.6793	-21.774	5.23299	0	
0.6800	-24.2049	5.23299	0	
0.6807	-25.7329	3.69232	0	
0.6813	-23.8924	2.49696	0	
0.6820	-15.662	2.1782	0	
0.6827	-3.438	2.78916	0	
0.6833	4.47982	4.01108	0	
0.6840	5.10491	4.30327	0	
0.6847	3.88945	4.62204	0	
0.6853	3.88945	3.40012	0	
0.6860	5.69527	0.664086	0	
0.6867	11.4947	-3.00167	0	
0.6873	19.1347	-3.93139	0	
0.6880	22.5033	-1.16879	0	
0.6887	18.5096	1.56724	0	
0.6893	12.1198	-0.265634	0	
0.6900	6.32036	-4.83454	0	
0.6907	2.95182	-5.76426	0	
0.6913	2.63927	-1.77975	0	
0.6920	3.26436	-0.265634	0	
0.6927	2.04891	-4.22358	0	
0.6933	0.833454	-6.98618	0	
0.6940	0.208364	-3.61263	0	
0.6947	-1.31964	-1.16879	0	
0.6953	-1.91	-2.09851	0	
0.6960	-1.91	-0.265634	0	
0.6967	-4.65345	2.78916	0	
0.6973	-11.9809	4.30327	0	
0.6980	-22.9894	6.74711	0	
0.6987	-32.1227	7.35807	0	
0.6993	-32.7478	4.30327	0	
0.7000	-25.4203	3.69232	0	
0.7007	-19.3084	3.40012	0	
0.7013	-14.134	-0.557832	0	
0.7020	-9.23745	-1.16879	0	
0.7027	-9.23745	3.08136	0	
0.7033	-11.078	2.49696	0	
0.7040	-5.90363	-1.16879	0	
0.7047	4.16727	-1.77975	0	
0.7053	16.3913	-1.77975	0	
0.7060	31.0462	-2.70947	0	
0.7067	40.8045	-4.22358	0	
0.7073	38.6514	-7.59714	0	
0.7080	32.5742	-8.5003	0	
0.7087	28.3027	-6.66742	0	
0.7093	24.6216	-6.98618	0	
0.7100	20.9753	-8.5003	0	
0.7107	19.1347	-6.66742	0	
0.7113	17.9193	-4.83454	0	
0.7120	13.9604	-3.93139	0	
0.7127	8.75127	-2.39071	0	
0.7133	5.41745	-2.09851	0	
0.7140	3.57691	-3.61263	0	
0.7147	-0.104182	-3.00167	0	
0.7153	-1.91	-1.16879	0	
0.7160	-3.438	-0.265634	0	
0.7167	-12.606	0.345324	0	
0.7173	-27.2609	1.56724	0	
0.7180	-33.9633	2.1782	0	
0.7187	-32.1227	2.78916	0	
0.7193	-30.3169	5.52519	0	
0.7200	-27.8513	5.84395	0	
0.7207	-23.8924	3.40012	0	
0.7213	-21.1489	1.56724	0	
0.7220	-17.19	-1.16879	0	
0.7227	-12.606	-4.83454	0	
0.7233	-11.3905	-3.61263	0	
0.7240	-7.11909	0.664086	0	
0.7247	1.42382	0.664086	0	
0.7253	9.06381	-0.876593	0	
0.7260	22.1907	0.664086	0	
0.7267	39.2765	-0.557832	0	
0.7273	44.4509	-4.83454	0	
0.7280	36.8456	-5.76426	0	
0.7287	31.0462	-2.09851	0	
0.7293	26.4622	1.56724	0	
0.7300	20.0376	2.1782	0	
0.7307	14.8633	1.56724	0	
0.7313	9.96672	1.27504	0	
0.7320	3.57691	0.345324	0	
0.7327	0.520909	-0.557832	0	
0.7333	-0.104182	1.56724	0	
0.7340	-1.00709	3.08136	0	
0.7347	1.73636	0.664086	0	
0.7353	5.69527	-0.265634	0	
0.7360	1.42382	3.40012	0	
0.7367	-11.078	5.23299	0	
0.7373	-20.246	3.40012	0	
0.7380	-24.7953	3.40012	0	
0.7387	-29.3793	3.69232	0	
0.7393	-30.5947	0.0531268	0	
0.7400	-28.4763	-1.16879	0	
0.7407	-27.5734	1.886	0	
0.7413	-24.5174	0.0531268	0	
0.7420	-14.7244	-5.4455	0	
0.7427	-5.90363	-7.27838	0	
0.7433	-1.31964	-6.05646	0	
0.7440	2.63927	-6.05646	0	
0.7447	5.41745	-7.59714	0	
0.7453	6.00781	-8.5003	0	
0.7460	7.22327	-8.2081	0	
0.7467	11.1822	-7.59714	0	
0.7473	17.2942	-8.81906	0	
0.7480	22.1907	-9.43002	0	
0.7487	22.5033	-5.4455	0	
0.7493	19.7598	-2.70947	0	
0.7500	16.7038	-3.93139	0	
0.7507	11.4947	-4.22358	0	
0.7513	5.10491	-0.265634	0	
0.7520	2.95182	2.49696	0	
0.7527	3.26436	3.40012	0	
0.7533	0.208364	4.30327	0	
0.7540	-1.63218	3.40012	0	
0.7547	-0.104182	2.1782	0	
0.7553	-2.22254	2.49696	0	
0.7560	-9.23745	2.78916	0	
0.7567	-16.2524	3.08136	0	
0.7573	-26.0454	3.40012	0	
0.7580	-39.4502	2.49696	0	
0.7587	-48.9307	3.40012	0	
0.7593	-52.2645	5.23299	0	
0.7600	-52.2645	0.664086	0	
0.7607	-45.2496	-5.1533	0	
0.7613	-32.7478	-3.61263	0	
0.7620	-23.5798	0.664086	0	
0.7627	-16.8774	-1.16879	0	
0.7633	-10.4529	-5.76426	0	
0.7640	-10.7654	-5.76426	0	
0.7647	-11.9809	-2.09851	0	
0.7653	-5.59109	-2.09851	0	
0.7660	6.00781	-5.76426	0	
0.7667	20.6627	-6.98618	0	
0.7673	36.5331	-4.54235	0	
0.7680	42.02	-2.39071	0	
0.7687	36.2205	-2.70947	0	
0.7693	31.6365	-3.61263	0	
0.7700	31.6365	-3.93139	0	
0.7707	28.3027	-3.32043	0	
0.7713	20.6627	-3.00167	0	
0.7720	16.7038	-2.39071	0	
0.7727	19.4473	-2.09851	0	
0.7733	18.2318	-0.876593	0	
0.7740	6.91072	1.56724	0	
0.7747	-3.438	3.08136	0	
0.7753	-5.59109	1.886	0	
0.7760	-9.23745	0.956283	0	
0.7767	-16.5649	2.1782	0	
0.7773	-19.3084	2.1782	0	
0.7780	-18.4054	1.56724	0	
0.7787	-19.6209	2.1782	0	
0.7793	-18.718	2.49696	0	
0.7800	-13.8214	1.56724	0	
0.7807	-9.54999	1.56724	0	
0.7813	-6.80654	1.886	0	
0.7820	-5.59109	0.664086	0	
0.7827	-3.438	-0.265634	0	
0.7833	0.520909	-1.48755	0	
0.7840	2.95182	-3.00167	0	
0.7847	2.36145	-1.16879	0	
0.7853	2.04891	0.664086	0	
0.7860	6.32036	-1.16879	0	
0.7867	15.1758	-3.32043	0	
0.7873	24.0313	-3.93139	0	
0.7880	28.8931	-3.93139	0	
0.7887	26.7747	-3.32043	0	
0.7893	20.9753	-0.557832	0	
0.7900	16.3913	0.956283	0	
0.7907	12.7102	2.1782	0	
0.7913	9.37636	4.91423	0	
0.7920	7.22327	5.84395	0	
0.7927	3.88945	4.91423	0	
0.7933	-0.104182	7.06587	0	
0.7940	-2.22254	8.89875	0	
0.7947	-3.75054	5.23299	0	
0.7953	-6.18145	2.49696	0	
0.7960	-9.23745	3.08136	0	
0.7967	-13.5089	2.49696	0	
0.7973	-19.9334	0.345324	0	
0.7980	-23.8924	1.886	0	
0.7987	-24.7953	3.08136	0	
0.7993	-25.1078	1.56724	0	
0.8000	-21.774	2.49696	0	
0.8007	-14.7244	4.01108	0	
0.8013	-11.3905	1.56724	0	
0.8020	-10.4529	-1.77975	0	
0.8027	-5.59109	-1.48755	0	
0.8033	1.11127	-0.265634	0	
0.8040	2.63927	-1.48755	0	
0.8047	0.833454	-3.93139	0	
0.8053	1.11127	-4.83454	0	
0.8060	4.47982	-3.61263	0	
0.8067	10.9044	-3.93139	0	
0.8073	19.4473	-5.1533	0	
0.8080	25.5593	-4.83454	0	
0.8087	21.2531	-3.00167	0	
0.8093	12.1198	-1.16879	0	
0.8100	7.84836	0.345324	0	
0.8107	7.22327	1.27504	0	
0.8113	6.00781	1.56724	0	
0.8120	5.41745	0.956283	0	
0.8127	4.79236	0.956283	0	
0.8133	1.42382	1.56724	0	
0.8140	-1.00709	1.886	0	
0.8147	0.833454	2.49696	0	
0.8153	6.00781	4.62204	0	
0.8160	9.06381	6.13615	0	
0.8167	0.833454	6.13615	0	
0.8173	-15.662	6.74711	0	
0.8180	-22.9894	8.57999	0	
0.8187	-20.246	7.96903	0	
0.8193	-21.774	5.84395	0	
0.8200	-21.1489	4.01108	0	
0.8207	-13.2311	1.56724	0	
0.8213	-8.33454	-1.48755	0	
0.8220	-8.33454	-3.00167	0	
0.8227	-4.966	-2.39071	0	
0.8233	-2.22254	-1.16879	0	
0.8240	-1.63218	-0.265634	0	
0.8247	0.833454	0.0531268	0	
0.8253	2.04891	-0.265634	0	
0.8260	3.57691	-0.265634	0	
0.8267	12.1198	-0.265634	0	
0.8273	20.0376	-0.265634	0	
0.8280	20.3502	-0.876593	0	
0.8287	19.1347	-2.39071	0	
0.8293	16.3913	-3.00167	0	
0.8300	11.4947	-2.09851	0	
0.8307	9.06381	-1.16879	0	
0.8313	7.22327	0.345324	0	
0.8320	2.63927	1.886	0	
0.8327	-2.84763	2.49696	0	
0.8333	-9.23745	1.886	0	
0.8340	-12.9185	-1.16879	0	
0.8347	-11.9809	-4.54235	0	
0.8353	-11.9809	-4.54235	0	
0.8360	-13.2311	-0.876593	0	
0.8367	-9.23745	3.40012	0	
0.8373	-5.59109	6.13615	0	
0.8380	-7.43163	6.13615	0	
0.8387	-11.3905	4.30327	0	
0.8393	-12.606	4.30327	0	
0.8400	-11.078	4.30327	0	
0.8407	-7.70945	1.56724	0	
0.8413	-5.59109	-0.265634	0	
0.8420	-6.18145	0.345324	0	
0.8427	-5.59109	-0.265634	0	
0.8433	0.208364	-1.77975	0	
0.8440	5.41745	-0.876593	0	
0.8447	8.1609	0.664086	0	
0.8453	11.4947	-0.557832	0	
0.8460	16.3913	-1.16879	0	
0.8467	20.3502	0.0531268	0	
0.8473	24.6216	0.345324	0	
0.8480	26.4622	-0.265634	0	
0.8487	22.1907	0.345324	0	
0.8493	15.7662	-0.557832	0	
0.8500	11.8073	-1.77975	0	
0.8507	9.06381	0.345324	0	
0.8513	4.79236	1.56724	0	
0.8520	-1.31964	-0.265634	0	
0.8527	-5.59109	-2.09851	0	
0.8533	-4.65345	-2.70947	0	
0.8540	-1.31964	-3.00167	0	
0.8547	2.95182	-2.09851	0	
0.8553	9.06381	-1.16879	0	
0.8560	3.88945	-0.557832	0	
0.8567	-15.0369	0.664086	0	
0.8573	-29.6918	1.27504	0	
0.8580	-32.7478	-0.265634	0	
0.8587	-34.2758	0.0531268	0	
0.8593	-33.3729	0.664086	0	
0.8600	-25.1078	0.0531268	0	
0.8607	-16.5649	0.664086	0	
0.8613	-9.23745	1.27504	0	
0.8620	0.833454	-3.00167	0	
0.8627	9.96672	-7.27838	0	
0.8633	17.2942	-5.4455	0	
0.8640	22.1907	-3.00167	0	
0.8647	17.2942	-4.54235	0	
0.8653	4.79236	-4.83454	0	
0.8660	2.95182	-3.93139	0	
0.8667	15.7662	-4.83454	0	
0.8673	25.2467	-4.83454	0	
0.8680	23.7187	-3.93139	0	
0.8687	19.7598	-3.93139	0	
0.8693	18.2318	-3.93139	0	
0.8700	15.7662	-3.61263	0	
0.8707	13.6478	-4.22358	0	
0.8713	14.8633	-5.1533	0	
0.8720	13.6478	-4.83454	0	
0.8727	9.06381	-4.54235	0	
0.8733	6.91072	-3.00167	0	
0.8740	6.32036	-0.876593	0	
0.8747	3.57691	-1.16879	0	
0.8753	0.833454	-2.70947	0	
0.8760	-3.438	-2.09851	0	
0.8767	-11.078	1.27504	0	
0.8773	-19.3084	3.40012	0	
0.8780	-25.4203	2.1782	0	
0.8787	-27.5734	0.956283	0	
0.8793	-24.7953	4.91423	0	
0.8800	-20.246	5.84395	0	
0.8807	-18.4054	1.56724	0	
0.8813	-15.662	0.956283	0	
0.8820	-10.1751	1.56724	0	
0.8827	-4.966	-1.16879	0	
0.8833	0.833454	-0.265634	0	
0.8840	4.47982	3.40012	0	
0.8847	3.57691	2.49696	0	
0.8853	4.16727	0.664086	0	
0.8860	7.22327	1.27504	0	
0.8867	9.6889	0.664086	0	
0.8873	11.8073	-0.557832	0	
0.8880	13.6478	-1.16879	0	
0.8887	16.9816	-1.16879	0	
0.8893	21.5656	0.345324	0	
0.8900	19.4473	0.664086	0	
0.8907	10.2793	-1.16879	0	
0.8913	5.41745	-1.16879	0	
0.8920	3.57691	1.27504	0	
0.8927	-2.84763	2.1782	0	
0.8933	-8.33454	2.49696	0	
0.8940	-7.43163	2.49696	0	
0.8947	-4.65345	3.40012	0	
0.8953	-2.22254	5.84395	0	
0.8960	-4.65345	7.67683	0	
0.8967	-15.662	5.84395	0	
0.8973	-25.4203	2.1782	0	
0.8980	-27.5734	0.956283	0	
0.8987	-26.6358	1.56724	0	
0.8993	-24.7953	0.664086	0	
0.9000	-22.9894	-1.16879	0	
0.9007	-21.4614	-0.557832	0	
0.9013	-14.7244	0.956283	0	
0.9020	-4.65345	0.664086	0	
0.9027	0.833454	-0.876593	0	
0.9033	1.73636	0.0531268	0	
0.9040	4.47982	2.1782	0	
0.9047	7.22327	1.886	0	
0.9053	6.32036	0.956283	0	
0.9060	6.32036	1.56724	0	
0.9067	11.1822	1.56724	0	
0.9073	19.1347	-0.265634	0	
0.9080	22.5033	-1.48755	0	
0.9087	21.2531	-1.16879	0	
0.9093	19.1347	-0.876593	0	
0.9100	13.0227	0.956283	0	
0.9107	5.69527	1.56724	0	
0.9113	3.57691	-0.876593	0	
0.9120	4.16727	-3.32043	0	
0.9127	1.11127	-3.61263	0	
0.9133	-2.84763	-1.48755	0	
0.9140	-4.65345	1.56724	0	
0.9147	-3.75054	0.664086	0	
0.9153	-3.438	-2.70947	0	
0.9160	-8.95963	-3.61263	0	
0.9167	-18.4054	-2.70947	0	
0.9173	-24.7953	-2.70947	0	
0.9180	-25.7329	-1.16879	0	
0.9187	-23.302	-0.265634	0	
0.9193	-18.4054	-2.39071	0	
0.9200	-12.9185	-3.00167	0	
0.9207	-11.078	-0.876593	0	
0.9213	-10.1751	-0.557832	0	
0.9220	-5.90363	-0.265634	0	
0.9227	-1.91	0.0531268	0	
0.9233	-1.91	-1.16879	0	
0.9240	-0.382	-2.70947	0	
0.9247	2.95182	-2.39071	0	
0.9253	6.63291	-2.70947	0	
0.9260	10.5918	-2.39071	0	
0.9267	15.1758	-0.876593	0	
0.9273	19.7598	-0.876593	0	
0.9280	24.0313	-3.93139	0	
0.9287	24.3091	-6.66742	0	
0.9293	20.9753	-4.54235	0	
0.9300	19.1347	0.664086	0	
0.9307	14.5507	2.49696	0	
0.9313	5.69527	0.345324	0	
0.9320	1.42382	0.345324	0	
0.9327	1.42382	0.345324	0	
0.9333	-1.00709	0.0531268	0	
0.9340	-1.91	3.40012	0	
0.9347	0.208364	4.30327	0	
0.9353	-1.91	0.0531268	0	
0.9360	-9.23745	0.0531268	0	
0.9367	-17.5025	4.30327	0	
0.9373	-22.9894	4.62204	0	
0.9380	-25.7329	3.40012	0	
0.9387	-26.6358	4.30327	0	
0.9393	-24.2049	2.78916	0	
0.9400	-19.0305	2.49696	0	
0.9407	-15.662	4.01108	0	
0.9413	-11.7031	0.956283	0	
0.9420	-2.84763	-2.39071	0	
0.9427	1.73636	-2.09851	0	
0.9433	-0.382	-3.61263	0	
0.9440	1.73636	-6.37522	0	
0.9447	5.41745	-3.61263	0	
0.9453	3.57691	-0.876593	0	
0.9460	5.41745	-3.32043	0	
0.9467	14.8633	-4.83454	0	
0.9473	20.9753	-4.54235	0	
0.9480	21.8782	-3.93139	0	
0.9487	21.8782	-4.22358	0	
0.9493	19.4473	-5.76426	0	
0.9500	14.5507	-5.76426	0	
0.9507	9.96672	-2.39071	0	
0.9513	5.41745	-1.16879	0	
0.9520	1.73636	-2.09851	0	
0.9527	2.04891	-0.265634	0	
0.9533	1.42382	0.0531268	0	
0.9540	-3.438	-1.48755	0	
0.9547	-6.80654	2.1782	0	
0.9553	-7.43163	4.30327	0	
0.9560	-9.23745	1.27504	0	
0.9567	-14.7244	2.49696	0	
0.9573	-20.8364	5.84395	0	
0.9580	-24.5174	6.13615	0	
0.9587	-24.2049	7.06587	0	
0.9593	-21.4614	7.96903	0	
0.9600	-17.5025	4.01108	0	
0.9607	-11.9809	0.956283	0	
0.9613	-10.1751	0.956283	0	
0.9620	-8.64709	-0.557832	0	
0.9627	-2.84763	-2.70947	0	
0.9633	0.833454	-2.39071	0	
0.9640	1.11127	-0.876593	0	
0.9647	4.16727	0.0531268	0	
0.9653	7.53581	-0.265634	0	
0.9660	8.75127	-0.265634	0	
0.9667	15.4884	-0.265634	0	
0.9673	24.0313	-2.09851	0	
0.9680	27.0525	-2.09851	0	
0.9687	27.3651	-0.265634	0	
0.9693	26.4622	-1.77975	0	
0.9700	20.3502	-3.00167	0	
0.9707	16.3913	-2.09851	0	
0.9713	14.5507	-2.70947	0	
0.9720	7.22327	-2.39071	0	
0.9727	0.208364	0.664086	0	
0.9733	-1.00709	2.1782	0	
0.9740	-1.63218	2.49696	0	
0.9747	-3.16018	3.40012	0	
0.9753	-4.37563	1.56724	0	
0.9760	-8.33454	-0.265634	0	
0.9767	-15.9745	1.886	0	
0.9773	-22.9894	4.91423	0	
0.9780	-26.0454	6.13615	0	
0.9787	-24.7953	5.84395	0	
0.9793	-22.9894	2.1782	0	
0.9800	-19.3084	-1.77975	0	
0.9807	-12.9185	-1.48755	0	
0.9813	-8.022	-1.48755	0	
0.9820	-6.494	-3.93139	0	
0.9827	-4.65345	-3.00167	0	
0.9833	-1.31964	0.0531268	0	
0.9840	0.208364	0.664086	0	
0.9847	1.42382	-1.77975	0	
0.9853	4.16727	-3.00167	0	
0.9860	10.5918	-2.70947	0	
0.9867	19.1347	-3.61263	0	
0.9873	24.9342	-5.4455	0	
0.9880	26.7747	-6.05646	0	
0.9887	28.3027	-4.54235	0	
0.9893	27.6776	-3.93139	0	
0.9900	20.9753	-4.54235	0	
0.9907	14.8633	-1.16879	0	
0.9913	12.7102	3.69232	0	
0.9920	9.06381	2.78916	0	
0.9927	6.00781	0.664086	0	
0.9933	4.47982	2.78916	0	
0.9940	-0.104182	3.69232	0	
0.9947	-4.37563	1.886	0	
0.9953	-4.06309	0.345324	0	
0.9960	-8.95963	-1.16879	0	
0.9967	-19.3084	-1.16879	0	
0.9973	-24.7953	1.886	0	
0.9980	-25.4203	0.956283	0	
0.9987	-25.4203	-0.557832	0	
0.9993	-22.9894	2.78916	0	
1.0000	-18.0929	4.62204	0	
1.0007	-14.7244	1.56724	0	
1.0013	-11.078	1.27504	0	
1.0020	-6.18145	3.40012	0	
1.0027	-2.53509	2.1782	0	
1.0033	0.833454	-0.876593	0	
1.0040	2.63927	-3.61263	0	
1.0047	1.11127	-5.1533	0	
1.0053	1.11127	-5.76426	0	
1.0060	8.1609	-6.05646	0	
1.0067	16.3913	-6.05646	0	
1.0073	20.0376	-5.76426	0	
1.0080	21.8782	-4.83454	0	
1.0087	22.7811	-4.83454	0	
1.0093	20.9753	-7.59714	0	
1.0100	16.7038	-10.3332	0	
1.0107	10.9044	-6.37522	0	
1.0113	5.10491	-1.48755	0	
1.0120	2.63927	-2.39071	0	
1.0127	0.520909	-2.09851	0	
1.0133	-5.59109	0.956283	0	
1.0140	-8.33454	0.345324	0	
1.0147	-5.59109	-0.557832	0	
1.0153	-5.59109	0.664086	0	
1.0160	-11.078	0.0531268	0	
1.0167	-18.718	0.664086	0	
1.0173	-26.6358	3.40012	0	
1.0180	-27.5734	2.1782	0	
1.0187	-23.8924	1.56724	0	
1.0193	-22.0518	5.84395	0	
1.0200	-18.718	6.13615	0	
1.0207	-11.078	2.49696	0	
1.0213	-9.23745	0.345324	0	
1.0220	-11.9809	-2.70947	0	
1.0227	-8.64709	-4.22358	0	
1.0233	0.833454	-2.70947	0	
1.0240	5.41745	-1.48755	0	
1.0247	4.79236	-3.93139	0	
1.0253	6.00781	-6.66742	0	
1.0260	11.1822	-9.43002	0	
1.0267	16.3913	-9.72221	0	
1.0273	19.4473	-7.59714	0	
1.0280	22.7811	-5.4455	0	
1.0287	24.6216	-2.70947	0	
1.0293	22.7811	-1.16879	0	
1.0300	20.9753	-3.93139	0	
1.0307	18.8222	-5.4455	0	
1.0313	13.6478	-0.557832	0	
1.0320	6.91072	3.08136	0	
1.0327	2.95182	1.56724	0	
1.0333	1.42382	0.664086	0	
1.0340	-0.104182	2.1782	0	
1.0347	-1.31964	2.1782	0	
1.0353	-2.84763	-0.265634	0	
1.0360	-5.59109	-1.16879	0	
1.0367	-11.7031	2.1782	0	
1.0373	-17.7804	5.23299	0	
1.0380	-19.0305	4.30327	0	
1.0387	-17.19	2.49696	0	
1.0393	-17.5025	1.56724	0	
1.0400	-15.662	0.345324	0	
1.0407	-9.86254	-0.265634	0	
1.0413	-4.65345	-0.876593	0	
1.0420	-3.75054	-3.61263	0	
1.0427	-5.27854	-3.93139	0	
1.0433	-5.90363	-0.876593	0	
1.0440	-2.84763	-1.16879	0	
1.0447	0.833454	-3.32043	0	
1.0453	2.04891	-1.77975	0	
1.0460	5.41745	-1.16879	0	
1.0467	13.3353	-3.32043	0	
1.0473	21.2531	-3.61263	0	
1.0480	26.4622	-3.32043	0	
1.0487	25.5593	-3.93139	0	
1.0493	20.0376	-3.93139	0	
1.0500	18.2318	-2.39071	0	
1.0507	21.5656	-1.16879	0	
1.0513	20.3502	-0.876593	0	
1.0520	12.7102	-1.16879	0	
1.0527	5.41745	0.664086	0	
1.0533	1.73636	3.40012	0	
1.0540	-1.00709	2.1782	0	
1.0547	-2.53509	1.27504	0	
1.0553	-1.31964	3.40012	0	
1.0560	-1.91	3.40012	0	
1.0567	-8.33454	1.56724	0	
1.0573	-15.662	4.01108	0	
1.0580	-19.3084	4.91423	0	
1.0587	-21.1489	1.56724	0	
1.0593	-21.1489	3.08136	0	
1.0600	-18.718	7.96903	0	
1.0607	-14.7244	5.84395	0	
1.0613	-10.4529	0.664086	0	
1.0620	-5.59109	0.0531268	0	
1.0627	-3.16018	1.886	0	
1.0633	-1.31964	0.664086	0	
1.0640	2.95182	-1.48755	0	
1.0647	6.91072	0.345324	0	
1.0653	4.47982	2.1782	0	
1.0660	4.79236	-0.265634	0	
1.0667	16.3913	-4.22358	0	
1.0673	24.0313	-5.76426	0	
1.0680	20.0376	-4.83454	0	
1.0687	17.9193	-3.61263	0	
1.0693	19.4473	-3.32043	0	
1.0700	13.6478	-3.93139	0	
1.0707	6.91072	-3.00167	0	
1.0713	6.00781	-1.16879	0	
1.0720	3.57691	-0.265634	0	
1.0727	0.833454	0.0531268	0	
1.0733	0.208364	-0.557832	0	
1.0740	-2.84763	-2.39071	0	
1.0747	-4.966	-3.61263	0	
1.0753	-2.84763	-2.09851	0	
1.0760	-6.18145	0.664086	0	
1.0767	-14.7244	1.56724	0	
1.0773	-21.1489	1.56724	0	
1.0780	-25.1078	2.49696	0	
1.0787	-26.0454	4.01108	0	
1.0793	-22.0518	3.08136	0	
1.0800	-18.0929	0.664086	0	
1.0807	-16.5649	-1.16879	0	
1.0813	-14.134	-0.876593	0	
1.0820	-10.1751	-0.557832	0	
1.0827	-7.11909	-0.265634	0	
1.0833	-4.65345	-1.16879	0	
1.0840	0.833454	-3.61263	0	
1.0847	5.41745	-4.54235	0	
1.0853	4.16727	-3.93139	0	
1.0860	5.69527	-4.83454	0	
1.0867	15.4884	-5.76426	0	
1.0873	20.3502	-6.37522	0	
1.0880	18.8222	-6.37522	0	
1.0887	19.4473	-6.05646	0	
1.0893	18.2318	-4.83454	0	
1.0900	13.6478	-2.09851	0	
1.0907	12.7102	0.0531268	0	
1.0913	12.1198	0.956283	0	
1.0920	6.63291	1.56724	0	
1.0927	2.63927	3.40012	0	
1.0933	1.42382	6.13615	0	
1.0940	0.520909	5.84395	0	
1.0947	0.520909	4.01108	0	
1.0953	-2.22254	4.30327	0	
1.0960	-8.33454	5.84395	0	
1.0967	-13.2311	4.62204	0	
1.0973	-17.5025	6.45491	0	
1.0980	-19.3084	10.1207	0	
1.0987	-16.2524	7.06587	0	
1.0993	-14.7244	2.78916	0	
1.1000	-13.8214	4.62204	0	
1.1007	-9.23745	4.62204	0	
1.1013	-6.494	0.956283	0	
1.1020	-6.18145	1.56724	0	
1.1027	-2.22254	2.78916	0	
1.1033	0.833454	-0.265634	0	
1.1040	0.208364	-1.48755	0	
1.1047	-1.00709	0.664086	0	
1.1053	-3.75054	0.956283	0	
1.1060	-1.00709	-0.876593	0	
1.1067	10.9044	-3.00167	0	
1.1073	19.1347	-4.83454	0	
1.1080	17.9193	-4.83454	0	
1.1087	16.7038	-4.54235	0	
1.1093	15.4884	-3.93139	0	
1.1100	10.9044	-1.16879	0	
1.1107	8.43872	0.664086	0	
1.1113	5.69527	-0.265634	0	
1.1120	1.42382	-0.557832	0	
1.1127	-1.00709	0.956283	0	
1.1133	-2.22254	1.56724	0	
1.1140	-4.966	-0.265634	0	
1.1147	-6.494	-1.16879	0	
1.1153	-6.494	-0.265634	0	
1.1160	-10.7654	0.956283	0	
1.1167	-18.4054	1.27504	0	
1.1173	-22.6769	2.1782	0	
1.1180	-22.0518	2.49696	0	
1.1187	-21.1489	1.27504	0	
1.1193	-20.246	0.664086	0	
1.1200	-16.8774	-0.265634	0	
1.1207	-13.8214	-2.39071	0	
1.1213	-11.9809	-2.39071	0	
1.1220	-8.64709	-0.265634	0	
1.1227	-6.494	-1.77975	0	
1.1233	-5.27854	-4.22358	0	
1.1240	0.520909	-3.93139	0	
1.1247	3.88945	-3.00167	0	
1.1253	1.11127	-3.93139	0	
1.1260	4.47982	-3.32043	0	
1.1267	17.2942	-1.48755	0	
1.1273	24.0313	-3.00167	0	
1.1280	23.4062	-5.4455	0	
1.1287	22.7811	-5.1533	0	
1.1293	20.9753	-3.93139	0	
1.1300	17.9193	-3.00167	0	
1.1307	14.8633	-2.09851	0	
1.1313	9.6889	0.0531268	0	
1.1320	5.41745	1.27504	0	
1.1327	5.41745	0.345324	0	
1.1333	0.833454	-0.265634	0	
1.1340	-8.022	1.56724	0	
1.1347	-9.23745	2.78916	0	
1.1353	-4.37563	3.08136	0	
1.1360	-7.43163	4.30327	0	
1.1367	-18.4054	5.23299	0	
1.1373	-25.4203	4.62204	0	
1.1380	-23.8924	4.62204	0	
1.1387	-20.8364	4.91423	0	
1.1393	-20.246	3.40012	0	
1.1400	-18.4054	2.1782	0	
1.1407	-12.9185	2.78916	0	
1.1413	-7.70945	2.1782	0	
1.1420	-4.65345	-1.48755	0	
1.1427	-1.91	-5.1533	0	
1.1433	1.73636	-4.83454	0	
1.1440	3.88945	-0.557832	0	
1.1447	4.79236	0.0531268	0	
1.1453	6.00781	-2.70947	0	
1.1460	9.96672	-1.77975	0	
1.1467	17.6067	-0.265634	0	
1.1473	25.5593	-1.16879	0	
1.1480	28.5805	-2.09851	0	
1.1487	27.0525	-3.00167	0	
1.1493	24.0313	-4.22358	0	
1.1500	20.6627	-2.09851	0	
1.1507	15.7662	2.49696	0	
1.1513	9.96672	3.40012	0	
1.1520	5.69527	2.1782	0	
1.1527	2.95182	-0.265634	0	
1.1533	-1.00709	-3.00167	0	
1.1540	-4.966	-1.16879	0	
1.1547	-4.65345	3.40012	0	
1.1553	-4.65345	3.08136	0	
1.1560	-12.9185	1.886	0	
1.1567	-21.4614	4.62204	0	
1.1573	-23.8924	6.45491	0	
1.1580	-24.7953	5.52519	0	
1.1587	-24.7953	4.30327	0	
1.1593	-20.8364	3.40012	0	
1.1600	-15.3494	4.30327	0	
1.1607	-11.7031	6.13615	0	
1.1613	-8.33454	4.30327	0	
1.1620	-4.06309	0.664086	0	
1.1627	-0.104182	0.956283	0	
1.1633	2.95182	2.78916	0	
1.1640	5.10491	1.56724	0	
1.1647	6.32036	-1.16879	0	
1.1653	9.06381	-1.16879	0	
1.1660	16.0787	-0.876593	0	
1.1667	24.9342	-3.93139	0	
1.1673	30.1085	-5.76426	0	
1.1680	28.8931	-3.93139	0	
1.1687	25.8371	-3.61263	0	
1.1693	22.7811	-4.54235	0	
1.1700	16.9816	-2.09851	0	
1.1707	9.6889	-0.265634	0	
1.1713	6.32036	-1.16879	0	
1.1720	5.69527	-0.876593	0	
1.1727	2.36145	-0.265634	0	
1.1733	-3.438	-3.00167	0	
1.1740	-6.18145	-3.93139	0	
1.1747	-4.65345	-2.39071	0	
1.1753	-3.75054	-2.09851	0	
1.1760	-7.43163	-2.09851	0	
1.1767	-15.0369	-1.16879	0	
1.1773	-22.0518	0.956283	0	
1.1780	-25.7329	3.08136	0	
1.1787	-25.4203	1.56724	0	
1.1793	-22.3644	-1.16879	0	
1.1800	-19.3084	-0.265634	0	
1.1807	-15.9745	1.27504	0	
1.1813	-10.1751	1.27504	0	
1.1820	-4.966	1.886	0	
1.1827	-2.84763	2.49696	0	
1.1833	-1.00709	0.956283	0	
1.1840	2.63927	0.0531268	0	
1.1847	5.69527	-1.48755	0	
1.1853	7.22327	-3.32043	0	
1.1860	9.06381	-3.00167	0	
1.1867	15.4884	-3.00167	0	
1.1873	24.6216	-4.83454	0	
1.1880	27.0525	-5.4455	0	
1.1887	22.5033	-3.93139	0	
1.1893	19.4473	-3.93139	0	
1.1900	17.2942	-3.00167	0	
1.1907	11.4947	-1.16879	0	
1.1913	6.63291	0.0531268	0	
1.1920	4.16727	1.886	0	
1.1927	-0.382	1.886	0	
1.1933	-5.59109	0.664086	0	
1.1940	-7.43163	0.956283	0	
1.1947	-7.70945	0.0531268	0	
1.1953	-8.33454	-2.70947	0	
1.1960	-12.9185	-0.876593	0	
1.1967	-20.8364	2.78916	0	
1.1973	-26.6358	3.40012	0	
1.1980	-27.5734	4.30327	0	
1.1987	-27.5734	3.69232	0	
1.1993	-27.5734	0.0531268	0	
1.2000	-21.4614	0.0531268	0	
1.2007	-12.606	1.56724	0	
1.2013	-8.022	-2.09851	0	
1.2020	-6.18145	-5.1533	0	
1.2027	-1.00709	-5.76426	0	
1.2033	2.95182	-6.98618	0	
1.2040	2.04891	-4.54235	0	
1.2047	1.73636	-0.876593	0	
1.2053	5.69527	-4.22358	0	
1.2060	9.96672	-9.43002	0	
1.2067	16.0787	-7.59714	0	
1.2073	23.4062	-7.27838	0	
1.2080	24.3091	-8.5003	0	
1.2087	20.6627	-6.37522	0	
1.2093	18.5096	-4.54235	0	
1.2100	13.6478	-4.54235	0	
1.2107	6.91072	-2.09851	0	
1.2113	6.32036	-0.265634	0	
1.2120	7.53581	-0.265634	0	
1.2127	3.88945	0.664086	0	
1.2133	0.520909	1.56724	0	
1.2140	-0.104182	0.664086	0	
1.2147	-0.382	0.664086	0	
1.2153	-2.84763	2.78916	0	
1.2160	-11.078	4.30327	0	
1.2167	-21.4614	3.08136	0	
1.2173	-24.7953	-1.48755	0	
1.2180	-23.302	-4.83454	0	
1.2187	-22.9894	-2.09851	0	
1.2193	-21.774	1.56724	0	
1.2200	-18.4054	-1.16879	0	
1.2207	-13.2311	-3.61263	0	
1.2213	-5.90363	-0.265634	0	
1.2220	-0.694545	0.0531268	0	
1.2227	-0.104182	-3.93139	0	
1.2233	-0.694545	-5.4455	0	
1.2240	0.520909	-3.93139	0	
1.2247	2.04891	-5.1533	0	
1.2253	5.41745	-6.05646	0	
1.2260	10.5918	-5.4455	0	
1.2267	16.7038	-5.76426	0	
1.2273	22.7811	-5.76426	0	
1.2280	24.6216	-3.93139	0	
1.2287	22.7811	-3.93139	0	
1.2293	21.8782	-4.22358	0	
1.2300	20.0376	-3.61263	0	
1.2307	14.2382	-0.557832	0	
1.2313	7.53581	2.49696	0	
1.2320	2.95182	2.78916	0	
1.2327	1.73636	1.56724	0	
1.2333	2.36145	0.664086	0	
1.2340	0.833454	2.78916	0	
1.2347	-4.65345	5.52519	0	
1.2353	-8.33454	5.84395	0	
1.2360	-11.7031	4.62204	0	
1.2367	-19.3084	4.62204	0	
1.2373	-26.9483	5.23299	0	
1.2380	-28.1638	4.30327	0	
1.2387	-26.0454	3.69232	0	
1.2393	-22.3644	3.69232	0	
1.2400	-16.8774	3.69232	0	
1.2407	-11.3905	3.40012	0	
1.2413	-7.43163	3.08136	0	
1.2420	-4.65345	3.08136	0	
1.2427	-3.75054	2.78916	0	
1.2433	-0.694545	1.56724	0	
1.2440	5.41745	0.345324	0	
1.2447	8.75127	0.664086	0	
1.2453	8.75127	0.664086	0	
1.2460	11.4947	-2.70947	0	
1.2467	19.1347	-6.05646	0	
1.2473	26.4622	-5.1533	0	
1.2480	30.1085	-3.00167	0	
1.2487	29.5182	-4.83454	0	
1.2493	26.4622	-6.98618	0	
1.2500	20.9753	-4.83454	0	
1.2507	14.8633	-1.77975	0	
1.2513	11.4947	-1.77975	0	
1.2520	8.1609	-2.09851	0	
1.2527	1.73636	0.0531268	0	
1.2533	-2.84763	2.49696	0	
1.2540	-2.84763	0.664086	0	
1.2547	-3.75054	-0.557832	0	
1.2553	-6.494	1.56724	0	
1.2560	-10.1751	2.1782	0	
1.2567	-18.4054	3.40012	0	
1.2573	-26.6358	7.06587	0	
1.2580	-26.3233	7.96903	0	
1.2587	-22.9894	3.40012	0	
1.2593	-23.8924	1.56724	0	
1.2600	-23.5798	4.01108	0	
1.2607	-19.6209	4.30327	0	
1.2613	-14.134	2.49696	0	
1.2620	-8.33454	1.56724	0	
1.2627	-5.59109	1.886	0	
1.2633	-5.27854	0.956283	0	
1.2640	-1.00709	-0.876593	0	
1.2647	5.10491	0.0531268	0	
1.2653	8.43872	1.56724	0	
1.2660	12.7102	-1.48755	0	
1.2667	18.2318	-5.76426	0	
1.2673	21.5656	-5.1533	0	
1.2680	21.5656	-3.93139	0	
1.2687	18.2318	-5.76426	0	
1.2693	14.8633	-6.05646	0	
1.2700	16.3913	-3.93139	0	
1.2707	16.9816	-3.00167	0	
1.2713	9.06381	-3.61263	0	
1.2720	2.36145	-3.93139	0	
1.2727	0.833454	-3.00167	0	
1.2733	-1.00709	-0.876593	0	
1.2740	-1.00709	-1.48755	0	
1.2747	3.57691	-3.00167	0	
1.2753	5.41745	-1.16879	0	
1.2760	-1.31964	1.56724	0	
1.2767	-11.078	3.08136	0	
1.2773	-17.7804	5.23299	0	
1.2780	-20.246	6.74711	0	
1.2787	-20.246	4.01108	0	
1.2793	-20.5238	1.886	0	
1.2800	-18.0929	2.49696	0	
1.2807	-11.7031	3.08136	0	
1.2813	-5.59109	1.56724	0	
1.2820	-1.00709	0.345324	0	
1.2827	2.95182	0.345324	0	
1.2833	4.79236	1.56724	0	
1.2840	3.57691	1.27504	0	
1.2847	1.73636	-0.557832	0	
1.2853	0.520909	-0.876593	0	
1.2860	3.26436	-0.265634	0	
1.2867	9.96672	-1.77975	0	
1.2873	14.2382	-2.39071	0	
1.2880	13.3353	-0.876593	0	
1.2887	13.6478	-1.16879	0	
1.2893	17.2942	-3.00167	0	
1.2900	17.9193	-3.32043	0	
1.2907	15.4884	-3.93139	0	
1.2913	11.8073	-4.22358	0	
1.2920	5.69527	-0.265634	0	
1.2927	-0.382	4.01108	0	
1.2933	-3.75054	2.49696	0	
1.2940	-4.37563	0.664086	0	
1.2947	-5.59109	2.78916	0	
1.2953	-8.95963	3.69232	0	
1.2960	-16.5649	3.08136	0	
1.2967	-25.1078	4.30327	0	
1.2973	-28.4763	5.52519	0	
1.2980	-28.4763	5.23299	0	
1.2987	-28.4763	3.40012	0	
1.2993	-27.5734	-0.265634	0	
1.3000	-22.9894	-3.00167	0	
1.3007	-17.19	-1.77975	0	
1.3013	-14.134	-0.876593	0	
1.3020	-11.9809	-3.00167	0	
1.3027	-6.494	-5.1533	0	
1.3033	-0.104182	-5.76426	0	
1.3040	3.57691	-4.22358	0	
1.3047	5.41745	-2.39071	0	
1.3053	4.47982	-3.00167	0	
1.3060	7.22327	-5.76426	0	
1.3067	16.0787	-6.66742	0	
1.3073	20.6627	-5.76426	0	
1.3080	18.5096	-6.66742	0	
1.3087	19.1347	-6.98618	0	
1.3093	19.7598	-4.83454	0	
1.3100	15.4884	-3.93139	0	
1.3107	10.9044	-4.83454	0	
1.3113	9.96672	-4.54235	0	
1.3120	7.84836	-2.09851	0	
1.3127	3.88945	-1.48755	0	
1.3133	0.833454	-2.09851	0	
1.3140	0.208364	0.0531268	0	
1.3147	0.208364	4.30327	0	
1.3153	-2.84763	5.84395	0	
1.3160	-8.33454	3.40012	0	
1.3167	-15.0369	2.49696	0	
1.3173	-22.3644	4.30327	0	
1.3180	-25.4203	6.13615	0	
1.3187	-22.0518	5.23299	0	
1.3193	-19.0305	3.40012	0	
1.3200	-18.4054	0.664086	0	
1.3207	-15.9745	-1.77975	0	
1.3213	-11.3905	-0.876593	0	
1.3220	-6.494	0.956283	0	
1.3227	-2.53509	-0.265634	0	
1.3233	-1.00709	-2.70947	0	
1.3240	-0.104182	-3.32043	0	
1.3247	1.73636	-2.09851	0	
1.3253	5.10491	-1.16879	0	
1.3260	10.9044	-2.39071	0	
1.3267	19.1347	-3.93139	0	
1.3273	27.0525	-5.4455	0	
1.3280	30.1085	-7.59714	0	
1.3287	26.4622	-7.59714	0	
1.3293	22.1907	-6.05646	0	
1.3300	20.0376	-6.66742	0	
1.3307	16.3913	-4.54235	0	
1.3313	12.1198	3.08136	0	
1.3320	9.96672	4.91423	0	
1.3327	7.22327	0.0531268	0	
1.3333	1.73636	0.664086	0	
1.3340	-1.31964	2.49696	0	
1.3347	-0.694545	-2.09851	0	
1.3353	-1.91	-2.70947	0	
1.3360	-8.64709	1.886	0	
1.3367	-16.8774	3.08136	0	
1.3373	-21.1489	3.40012	0	
1.3380	-23.8924	5.84395	0	
1.3387	-25.4203	6.45491	0	
1.3393	-20.8364	6.45491	0	
1.3400	-13.8214	7.35807	0	
1.3407	-10.7654	5.52519	0	
1.3413	-7.43163	3.40012	0	
1.3420	-1.91	4.30327	0	
1.3427	2.63927	4.30327	0	
1.3433	4.16727	0.956283	0	
1.3440	4.79236	-2.39071	0	
1.3447	5.10491	-4.22358	0	
1.3453	6.63291	-5.76426	0	
1.3460	11.8073	-6.98618	0	
1.3467	18.8222	-7.59714	0	
1.3473	24.9342	-6.37522	0	
1.3480	26.4622	-5.4455	0	
1.3487	22.7811	-6.66742	0	
1.3493	20.3502	-5.76426	0	
1.3500	20.0376	-2.39071	0	
1.3507	15.7662	0.0531268	0	
1.3513	7.84836	0.345324	0	
1.3520	4.16727	2.49696	0	
1.3527	3.88945	5.23299	0	
1.3533	1.42382	3.40012	0	
1.3540	-1.00709	0.664086	0	
1.3547	-0.382	2.49696	0	
1.3553	-2.84763	4.62204	0	
1.3560	-8.64709	2.78916	0	
1.3567	-16.5649	3.69232	0	
1.3573	-22.3644	7.35807	0	
1.3580	-23.302	6.13615	0	
1.3587	-22.3644	3.40012	0	
1.3593	-21.1489	4.30327	0	
1.3600	-14.7244	3.08136	0	
1.3607	-8.33454	-0.876593	0	
1.3613	-8.95963	-1.16879	0	
1.3620	-7.11909	-0.876593	0	
1.3627	0.208364	-3.32043	0	
1.3633	2.36145	-3.93139	0	
1.3640	2.63927	-2.39071	0	
1.3647	7.53581	-2.09851	0	
1.3653	9.6889	-4.22358	0	
1.3660	12.1198	-6.37522	0	
1.3667	23.7187	-5.76426	0	
1.3673	32.852	-4.22358	0	
1.3680	31.324	-4.83454	0	
1.3687	28.3027	-6.05646	0	
1.3693	24.6216	-3.93139	0	
1.3700	18.2318	-1.16879	0	
1.3707	14.5507	-2.09851	0	
1.3713	13.6478	-2.09851	0	
1.3720	8.1609	0.345324	0	
1.3727	3.88945	0.664086	0	
1.3733	3.57691	-2.09851	0	
1.3740	1.11127	-0.876593	0	
1.3747	-1.91	2.49696	0	
1.3753	-2.84763	2.1782	0	
1.3760	-8.33454	3.08136	0	
1.3767	-17.5025	6.13615	0	
1.3773	-21.1489	3.40012	0	
1.3780	-22.9894	0.664086	0	
1.3787	-25.4203	2.49696	0	
1.3793	-23.302	1.886	0	
1.3800	-19.0305	-1.16879	0	
1.3807	-16.8774	-0.265634	0	
1.3813	-14.7244	-1.16879	0	
1.3820	-12.9185	-4.83454	0	
1.3827	-11.078	-3.93139	0	
1.3833	-6.80654	-2.09851	0	
1.3840	-4.06309	-3.93139	0	
1.3847	-4.65345	-3.93139	0	
1.3853	-3.16018	-2.09851	0	
1.3860	2.36145	-3.32043	0	
1.3867	11.1822	-5.4455	0	
1.3873	20.9753	-6.66742	0	
1.3880	23.7187	-7.27838	0	
1.3887	20.3502	-4.22358	0	
1.3893	18.2318	-2.70947	0	
1.3900	16.9816	-5.4455	0	
1.3907	12.1198	-4.54235	0	
1.3913	7.22327	0.956283	0	
1.3920	4.47982	0.956283	0	
1.3927	2.04891	-2.09851	0	
1.3933	-1.31964	-0.557832	0	
1.3940	-4.966	0.956283	0	
1.3947	-6.18145	-0.265634	0	
1.3953	-5.90363	0.664086	0	
1.3960	-11.078	3.40012	0	
1.3967	-21.1489	4.01108	0	
1.3973	-26.9483	2.78916	0	
1.3980	-30.0043	0.345324	0	
1.3987	-31.8449	-0.265634	0	
1.3993	-26.9483	2.49696	0	
1.4000	-18.4054	1.56724	0	
1.4007	-15.3494	-3.00167	0	
1.4013	-12.606	-3.61263	0	
1.4020	-6.494	-1.48755	0	
1.4027	-5.59109	-1.16879	0	
1.4033	-7.11909	-0.265634	0	
1.4040	-2.84763	1.56724	0	
1.4047	2.04891	0.345324	0	
1.4053	1.73636	-1.16879	0	
1.4060	5.41745	-2.09851	0	
1.4067	16.7038	-3.93139	0	
1.4073	23.4062	-4.22358	0	
1.4080	23.7187	-2.70947	0	
1.4087	22.7811	-3.32043	0	
1.4093	18.2318	-4.22358	0	
1.4100	12.4324	0.345324	0	
1.4107	10.5918	4.30327	0	
1.4113	9.6889	1.56724	0	
1.4120	5.41745	-1.48755	0	
1.4127	2.63927	0.0531268	0	
1.4133	0.833454	1.56724	0	
1.4140	-1.63218	2.49696	0	
1.4147	-2.84763	4.30327	0	
1.4153	-3.75054	4.62204	0	
1.4160	-8.95963	4.30327	0	
1.4167	-19.3084	5.52519	0	
1.4173	-26.0454	5.23299	0	
1.4180	-25.7329	3.69232	0	
1.4187	-23.8924	4.30327	0	
1.4193	-23.5798	4.01108	0	
1.4200	-20.246	1.56724	0	
1.4207	-13.8214	1.886	0	
1.4213	-8.33454	3.40012	0	
1.4220	-1.91	2.49696	0	
1.4227	2.63927	0.664086	0	
1.4233	3.57691	0.0531268	0	
1.4240	4.79236	-0.265634	0	
1.4247	6.91072	-0.876593	0	
1.4253	9.06381	-1.16879	0	
1.4260	14.5507	0.345324	0	
1.4267	22.1907	-1.16879	0	
1.4273	24.3091	-6.05646	0	
1.4280	20.9753	-7.59714	0	
1.4287	17.9193	-5.1533	0	
1.4293	14.2382	-6.98618	0	
1.4300	9.96672	-8.5003	0	
1.4307	6.32036	-5.1533	0	
1.4313	3.57691	-3.61263	0	
1.4320	2.63927	-3.32043	0	
1.4327	1.42382	0.664086	0	
1.4333	-2.84763	3.69232	0	
1.4340	-6.494	2.78916	0	
1.4347	-5.59109	2.78916	0	
1.4353	-7.43163	3.08136	0	
1.4360	-15.0369	2.49696	0	
1.4367	-21.4614	4.30327	0	
1.4373	-22.9894	6.13615	0	
1.4380	-24.7953	6.13615	0	
1.4387	-26.3233	6.45491	0	
1.4393	-23.8924	6.45491	0	
1.4400	-18.718	5.52519	0	
1.4407	-14.4465	5.23299	0	
1.4413	-10.1751	4.01108	0	
1.4420	-6.18145	2.1782	0	
1.4427	-3.75054	3.40012	0	
1.4433	-1.91	2.78916	0	
1.4440	1.73636	-2.39071	0	
1.4447	7.84836	-4.22358	0	
1.4453	11.1822	-3.61263	0	
1.4460	13.6478	-5.4455	0	
1.4467	20.6627	-5.76426	0	
1.4473	26.4622	-3.32043	0	
1.4480	25.5593	-2.70947	0	
1.4487	22.7811	-3.61263	0	
1.4493	20.3502	-2.09851	0	
1.4500	14.8633	0.664086	0	
1.4507	10.9044	2.49696	0	
1.4513	8.1609	3.40012	0	
1.4520	2.63927	2.78916	0	
1.4527	-1.00709	0.345324	0	
1.4533	-0.104182	-0.876593	0	
1.4540	-0.104182	0.664086	0	
1.4547	-1.91	0.664086	0	
1.4553	-2.22254	-2.39071	0	
1.4560	-7.43163	-3.32043	0	
1.4567	-18.718	-2.09851	0	
1.4573	-25.4203	-3.61263	0	
1.4580	-23.8924	-3.93139	0	
1.4587	-20.246	-0.557832	0	
1.4593	-16.8774	-0.876593	0	
1.4600	-12.9185	-4.22358	0	
1.4607	-8.33454	-2.09851	0	
1.4613	-4.06309	1.886	0	
1.4620	-1.31964	-2.70947	0	
1.4627	0.208364	-6.05646	0	
1.4633	1.73636	-2.70947	0	
1.4640	3.57691	-1.48755	0	
1.4647	5.10491	-4.22358	0	
1.4653	7.53581	-3.93139	0	
1.4660	12.4324	-3.00167	0	
1.4667	18.2318	-5.76426	0	
1.4673	22.7811	-8.2081	0	
1.4680	26.1496	-5.76426	0	
1.4687	26.7747	-3.32043	0	
1.4693	22.1907	-3.00167	0	
1.4700	15.7662	-2.09851	0	
1.4707	11.4947	-2.39071	0	
1.4713	8.1609	-3.00167	0	
1.4720	3.88945	-1.16879	0	
1.4727	1.73636	1.27504	0	
1.4733	0.208364	0.664086	0	
1.4740	-1.63218	-0.876593	0	
1.4747	-3.75054	-0.557832	0	
1.4753	-6.494	1.27504	0	
1.4760	-13.2311	4.62204	0	
1.4767	-21.4614	7.06587	0	
1.4773	-26.6358	6.13615	0	
1.4780	-27.2609	4.30327	0	
1.4787	-25.1078	3.69232	0	
1.4793	-22.0518	2.49696	0	
1.4800	-18.4054	1.886	0	
1.4807	-13.5089	3.08136	0	
1.4813	-10.4529	2.1782	0	
1.4820	-9.23745	0.0531268	0	
1.4827	-5.90363	-1.16879	0	
1.4833	-0.382	-2.09851	0	
1.4840	3.57691	-3.00167	0	
1.4847	4.79236	-3.61263	0	
1.4853	6.00781	-3.93139	0	
1.4860	10.9044	-3.93139	0	
1.4867	18.2318	-3.32043	0	
1.4873	23.0936	-3.32043	0	
1.4880	23.4062	-3.93139	0	
1.4887	20.9753	-3.61263	0	
1.4893	17.2942	-1.77975	0	
1.4900	13.3353	-0.265634	0	
1.4907	9.96672	-0.876593	0	
1.4913	6.91072	-2.09851	0	
1.4920	4.47982	-2.09851	0	
1.4927	3.57691	-1.16879	0	
1.4933	0.833454	0.345324	0	
1.4940	-1.91	1.56724	0	
1.4947	-1.00709	1.56724	0	
1.4953	-2.53509	0.956283	0	
1.4960	-9.86254	1.886	0	
1.4967	-18.718	5.23299	0	
1.4973	-22.9894	7.06587	0	
1.4980	-22.0518	5.23299	0	
1.4987	-20.5238	2.49696	0	
1.4993	-19.0305	1.56724	0	
1.5000	-13.2311	3.40012	0	
1.5007	-7.43163	3.69232	0	
1.5013	-5.90363	1.27504	0	
1.5020	-2.84763	-0.265634	0	
1.5027	2.63927	-0.265634	0	
1.5033	4.47982	-1.16879	0	
1.5040	5.10491	-2.09851	0	
1.5047	6.00781	-2.39071	0	
1.5053	5.69527	-2.39071	0	
1.5060	10.9044	-1.16879	0	
1.5067	20.9753	-1.16879	0	
1.5073	24.6216	-3.00167	0	
1.5080	24.3091	-2.39071	0	
1.5087	25.5593	-2.09851	0	
1.5093	21.5656	-5.4455	0	
1.5100	16.0787	-6.66742	0	
1.5107	14.8633	-3.93139	0	
1.5113	10.5918	-2.39071	0	
1.5120	3.57691	-1.48755	0	
1.5127	2.36145	-1.16879	0	
1.5133	-0.104182	-3.61263	0	
1.5140	-4.37563	-3.00167	0	
1.5147	-3.75054	0.664086	0	
1.5153	-5.90363	0.345324	0	
1.5160	-15.0369	-0.876593	0	
1.5167	-22.3644	3.08136	0	
1.5173	-23.8924	4.91423	0	
1.5180	-24.7953	4.01108	0	
1.5187	-24.7953	4.30327	0	
1.5193	-21.774	2.49696	0	
1.5200	-16.8774	0.956283	0	
1.5207	-9.23745	3.40012	0	
1.5213	-1.91	2.49696	0	
1.5220	-0.382	-1.16879	0	
1.5227	-1.31964	-0.557832	0	
1.5233	1.11127	-0.557832	0	
1.5240	4.79236	-2.70947	0	
1.5247	7.22327	-1.16879	0	
1.5253	9.96672	-0.876593	0	
1.5260	15.4884	-5.76426	0	
1.5267	22.5033	-9.11125	0	
1.5273	25.5593	-7.59714	0	
1.5280	24.6216	-6.37522	0	
1.5287	24.6216	-5.4455	0	
1.5293	21.8782	-3.93139	0	
1.5300	10.9044	-3.93139	0	
1.5307	2.63927	-5.4455	0	
1.5313	3.26436	-6.66742	0	
1.5320	2.36145	-4.83454	0	
1.5327	-4.06309	-1.77975	0	
1.5333	-6.494	-1.16879	0	
1.5340	-6.494	-2.09851	0	
1.5347	-8.33454	0.0531268	0	
1.5353	-8.95963	5.23299	0	
1.5360	-11.3905	7.06587	0	
1.5367	-20.246	4.01108	0	
1.5373	-27.5734	2.49696	0	
1.5380	-27.5734	5.84395	0	
1.5387	-26.0454	6.13615	0	
1.5393	-24.7953	3.08136	0	
1.5400	-21.1489	4.01108	0	
1.5407	-17.5025	4.01108	0	
1.5413	-13.8214	0.664086	0	
1.5420	-7.70945	0.664086	0	
1.5427	-2.53509	0.956283	0	
1.5433	0.520909	-1.16879	0	
1.5440	3.88945	-0.557832	0	
1.5447	6.91072	-0.557832	0	
1.5453	7.22327	-2.39071	0	
1.5460	10.9044	-2.39071	0	
1.5467	19.1347	-3.00167	0	
1.5473	24.3091	-4.54235	0	
1.5480	22.7811	-3.93139	0	
1.5487	19.1347	-3.61263	0	
1.5493	15.4884	-2.09851	0	
1.5500	9.96672	0.956283	0	
1.5507	6.32036	0.664086	0	
1.5513	4.79236	0.956283	0	
1.5520	2.63927	3.40012	0	
1.5527	-1.00709	1.56724	0	
1.5533	-4.966	0.664086	0	
1.5540	-7.70945	6.13615	0	
1.5547	-7.43163	7.67683	0	
1.5553	-6.18145	4.01108	0	
1.5560	-11.078	3.69232	0	
1.5567	-22.0518	4.30327	0	
1.5573	-30.0043	4.01108	0	
1.5580	-29.3793	6.74711	0	
1.5587	-25.4203	7.67683	0	
1.5593	-21.1489	3.40012	0	
1.5600	-16.8774	3.40012	0	
1.5607	-13.5089	5.23299	0	
1.5613	-9.23745	1.886	0	
1.5620	-5.59109	-1.77975	0	
1.5627	-4.06309	-0.876593	0	
1.5633	-2.84763	-2.09851	0	
1.5640	0.208364	-3.93139	0	
1.5647	2.63927	-3.00167	0	
1.5653	6.00781	-2.39071	0	
1.5660	13.3353	-4.83454	0	
1.5667	20.9753	-6.05646	0	
1.5673	24.6216	-4.83454	0	
1.5680	25.8371	-3.61263	0	
1.5687	24.6216	-2.70947	0	
1.5693	20.9753	-2.09851	0	
1.5700	16.3913	-1.16879	0	
1.5707	10.9044	-0.557832	0	
1.5713	6.63291	-0.876593	0	
1.5720	5.69527	-0.876593	0	
1.5727	2.63927	0.0531268	0	
1.5733	-4.65345	0.664086	0	
1.5740	-6.494	0.664086	0	
1.5747	-4.65345	1.27504	0	
1.5753	-9.86254	3.08136	0	
1.5760	-18.4054	5.23299	0	
1.5767	-21.4614	4.30327	0	
1.5773	-21.774	2.49696	0	
1.5780	-24.5174	3.40012	0	
1.5787	-25.4203	3.69232	0	
1.5793	-21.1489	0.956283	0	
1.5800	-15.3494	-1.77975	0	
1.5807	-11.3905	-4.22358	0	
1.5813	-8.022	-6.98618	0	
1.5820	-3.75054	-4.83454	0	
1.5827	-0.382	-1.16879	0	
1.5833	2.63927	-1.16879	0	
1.5840	7.53581	-2.70947	0	
1.5847	9.06381	-2.09851	0	
1.5853	6.63291	-2.70947	0	
1.5860	12.4324	-4.22358	0	
1.5867	24.3091	-5.1533	0	
1.5873	27.9902	-4.22358	0	
1.5880	25.2467	-2.70947	0	
1.5887	24.6216	-2.70947	0	
1.5893	21.5656	-2.70947	0	
1.5900	15.7662	-1.77975	0	
1.5907	14.5507	-2.09851	0	
1.5913	13.6478	-3.61263	0	
1.5920	9.06381	-2.70947	0	
1.5927	5.69527	-1.48755	0	
1.5933	4.47982	-3.32043	0	
1.5940	2.36145	-4.83454	0	
1.5947	-0.104182	-2.39071	0	
1.5953	-3.75054	0.956283	0	
1.5960	-10.1751	0.664086	0	
1.5967	-16.5649	-1.16879	0	
1.5973	-21.4614	-0.557832	0	
1.5980	-24.5174	1.56724	0	
1.5987	-25.4203	3.69232	0	
1.5993	-24.7953	4.30327	0	
1.6000	-21.774	2.49696	0	
1.6007	-14.7244	0.956283	0	
1.6013	-7.70945	0.664086	0	
1.6020	-4.37563	-0.876593	0	
1.6027	-2.22254	-2.70947	0	
1.6033	1.42382	-1.16879	0	
1.6040	2.63927	1.27504	0	
1.6047	1.73636	0.0531268	0	
1.6053	4.79236	-2.70947	0	
1.6060	13.6478	-3.00167	0	
1.6067	22.1907	-1.77975	0	
1.6073	27.3651	-1.77975	0	
1.6080	28.3027	-2.09851	0	
1.6087	25.5593	-0.876593	0	
1.6093	21.5656	-0.265634	0	
1.6100	18.2318	-2.09851	0	
1.6107	16.3913	-2.09851	0	
1.6113	13.6478	-0.265634	0	
1.6120	8.1609	1.27504	0	
1.6127	2.63927	2.78916	0	
1.6133	-0.104182	3.40012	0	
1.6140	-2.22254	0.345324	0	
1.6147	-2.84763	-2.09851	0	
1.6153	-3.75054	0.0531268	0	
1.6160	-11.9809	1.886	0	
1.6167	-21.4614	1.56724	0	
1.6173	-22.9894	2.78916	0	
1.6180	-21.774	3.40012	0	
1.6187	-21.1489	1.886	0	
1.6193	-16.5649	2.49696	0	
1.6200	-12.2934	1.56724	0	
1.6207	-11.9809	-3.00167	0	
1.6213	-8.022	-4.22358	0	
1.6220	-1.31964	-3.00167	0	
1.6227	0.208364	-3.61263	0	
1.6233	2.63927	-4.22358	0	
1.6240	7.22327	-3.00167	0	
1.6247	6.91072	-2.09851	0	
1.6253	8.43872	-2.70947	0	
1.6260	16.3913	-3.32043	0	
1.6267	20.9753	-4.22358	0	
1.6273	20.6627	-4.54235	0	
1.6280	23.4062	-2.39071	0	
1.6287	24.0313	-1.16879	0	
1.6293	20.3502	-1.48755	0	
1.6300	16.0787	-1.48755	0	
1.6307	9.06381	-0.557832	0	
1.6313	2.36145	-0.876593	0	
1.6320	1.42382	-3.32043	0	
1.6327	-0.104182	-4.83454	0	
1.6333	-5.27854	-2.70947	0	
1.6340	-4.966	0.956283	0	
1.6347	-0.382	1.886	0	
1.6353	-3.438	0.956283	0	
1.6360	-12.9185	0.664086	0	
1.6367	-22.0518	2.49696	0	
1.6373	-28.4763	5.23299	0	
1.6380	-29.3793	6.13615	0	
1.6387	-26.9483	4.91423	0	
1.6393	-23.302	3.08136	0	
1.6400	-17.5025	1.27504	0	
1.6407	-12.2934	-0.265634	0	
1.6413	-10.1751	-1.77975	0	
1.6420	-6.494	-0.876593	0	
1.6427	-1.63218	1.886	0	
1.6433	-0.694545	1.886	0	
1.6440	0.520909	-1.77975	0	
1.6447	4.47982	-2.09851	0	
1.6453	6.32036	-1.48755	0	
1.6460	8.1609	-4.83454	0	
1.6467	16.9816	-4.83454	0	
1.6473	24.6216	-1.48755	0	
1.6480	24.6216	-3.32043	0	
1.6487	21.8782	-5.1533	0	
1.6493	17.6067	-2.09851	0	
1.6500	11.1822	1.27504	0	
1.6507	7.22327	1.886	0	
1.6513	6.32036	3.40012	0	
1.6520	4.47982	3.40012	0	
1.6527	1.11127	4.30327	0	
1.6533	-1.63218	5.23299	0	
1.6540	-3.75054	1.886	0	
1.6547	-5.59109	-1.16879	0	
1.6553	-10.1751	2.49696	0	
1.6560	-17.5025	7.06587	0	
1.6567	-24.7953	7.96903	0	
1.6573	-29.6918	7.35807	0	
1.6580	-31.2198	6.45491	0	
1.6587	-29.3793	7.96903	0	
1.6593	-25.7329	9.19094	0	
1.6600	-20.8364	6.74711	0	
1.6607	-15.9745	4.01108	0	
1.6613	-11.9809	4.30327	0	
1.6620	-8.33454	2.49696	0	
1.6627	-3.16018	-1.16879	0	
1.6633	2.63927	-3.32043	0	
1.6640	5.41745	-6.66742	0	
1.6647	5.69527	-10.6519	0	
1.6653	9.37636	-10.3332	0	
1.6660	18.8222	-9.43002	0	
1.6667	26.7747	-10.3332	0	
1.6673	30.1085	-9.11125	0	
1.6680	30.1085	-6.05646	0	
1.6687	24.0313	-4.83454	0	
1.6693	14.8633	-4.22358	0	
1.6700	10.9044	-3.61263	0	
1.6707	9.96672	-3.61263	0	
1.6713	5.41745	-3.61263	0	
1.6720	1.73636	-2.09851	0	
1.6727	0.833454	-0.265634	0	
1.6733	-2.53509	2.1782	0	
1.6740	-6.18145	3.40012	0	
1.6747	-6.18145	2.1782	0	
1.6753	-8.022	0.664086	0	
1.6760	-15.662	1.56724	0	
1.6767	-22.9894	2.49696	0	
1.6773	-27.2609	2.49696	0	
1.6780	-28.1638	2.1782	0	
1.6787	-25.7329	2.1782	0	
1.6793	-22.0518	1.27504	0	
1.6800	-19.3084	-0.265634	0	
1.6807	-13.8214	0.345324	0	
1.6813	-4.966	-0.265634	0	
1.6820	1.11127	-3.61263	0	
1.6827	2.95182	-3.93139	0	
1.6833	5.69527	-1.16879	0	
1.6840	7.84836	-1.16879	0	
1.6847	7.84836	-1.16879	0	
1.6853	10.2793	-0.876593	0	
1.6860	17.2942	-4.22358	0	
1.6867	22.7811	-6.98618	0	
1.6873	24.6216	-5.1533	0	
1.6880	24.9342	-5.4455	0	
1.6887	25.5593	-6.66742	0	
1.6893	22.7811	-3.93139	0	
1.6900	18.2318	-3.00167	0	
1.6907	14.5507	-3.93139	0	
1.6913	11.4947	-0.265634	0	
1.6920	6.32036	3.69232	0	
1.6927	2.04891	1.27504	0	
1.6933	-0.104182	-2.09851	0	
1.6940	-1.91	-3.00167	0	
1.6947	-5.27854	-2.09851	0	
1.6953	-10.1751	-0.265634	0	
1.6960	-16.5649	-0.265634	0	
1.6967	-22.6769	-1.48755	0	
1.6973	-26.6358	-0.265634	0	
1.6980	-26.6358	1.27504	0	
1.6987	-22.6769	-0.557832	0	
1.6993	-19.9334	-1.16879	0	
1.7000	-19.0305	1.56724	0	
1.7007	-13.8214	1.56724	0	
1.7013	-5.27854	-1.48755	0	
1.7020	-0.104182	-2.09851	0	
1.7027	1.11127	-1.16879	0	
1.7033	3.88945	-2.39071	0	
1.7040	7.84836	-2.09851	0	
1.7047	9.06381	-2.09851	0	
1.7053	10.9044	-5.76426	0	
1.7060	18.5096	-8.5003	0	
1.7067	27.3651	-5.76426	0	
1.7073	30.1085	-3.32043	0	
1.7080	27.3651	-4.22358	0	
1.7087	24.6216	-4.83454	0	
1.7093	20.6627	-2.39071	0	
1.7100	14.8633	0.345324	0	
1.7107	10.9044	0.0531268	0	
1.7113	8.75127	0.345324	0	
1.7120	7.22327	1.56724	0	
1.7127	5.10491	-0.265634	0	
1.7133	0.520909	-0.265634	0	
1.7140	-4.37563	4.01108	0	
1.7147	-6.494	6.74711	0	
1.7153	-8.022	6.74711	0	
1.7160	-13.8214	8.57999	0	
1.7167	-22.0518	9.19094	0	
1.7173	-26.9483	7.06587	0	
1.7180	-27.8513	7.06587	0	
1.7187	-26.6358	6.45491	0	
1.7193	-23.302	3.40012	0	
1.7200	-18.4054	3.08136	0	
1.7207	-12.9185	4.91423	0	
1.7213	-8.022	3.08136	0	
1.7220	-4.65345	1.27504	0	
1.7227	-2.53509	1.56724	0	
1.7233	0.520909	-0.876593	0	
1.7240	5.41745	-3.32043	0	
1.7247	9.96672	-1.48755	0	
1.7253	11.8073	0.0531268	0	
1.7260	15.7662	-3.00167	0	
1.7267	22.1907	-5.1533	0	
1.7273	24.6216	-5.1533	0	
1.7280	23.4062	-4.54235	0	
1.7287	22.1907	-3.32043	0	
1.7293	20.0376	-2.39071	0	
1.7300	15.1758	-2.70947	0	
1.7307	10.2793	-0.876593	0	
1.7313	6.32036	1.56724	0	
1.7320	3.88945	1.27504	0	
1.7327	1.11127	-0.876593	0	
1.7333	-2.84763	-1.16879	0	
1.7340	-5.59109	0.345324	0	
1.7347	-5.90363	0.664086	0	
1.7353	-9.54999	0.0531268	0	
1.7360	-17.19	1.56724	0	
1.7367	-22.0518	5.52519	0	
1.7373	-25.1078	6.45491	0	
1.7380	-27.5734	4.91423	0	
1.7387	-27.5734	4.30327	0	
1.7393	-22.9894	3.40012	0	
1.7400	-17.5025	1.56724	0	
1.7407	-12.2934	1.56724	0	
1.7413	-7.70945	2.49696	0	
1.7420	-4.966	1.56724	0	
1.7427	-4.65345	1.56724	0	
1.7433	-3.16018	1.56724	0	
1.7440	-0.104182	0.664086	0	
1.7447	2.63927	1.56724	0	
1.7453	4.79236	0.0531268	0	
1.7460	10.5918	-4.22358	0	
1.7467	18.5096	-6.66742	0	
1.7473	22.7811	-6.66742	0	
1.7480	22.7811	-6.37522	0	
1.7487	21.5656	-3.93139	0	
1.7493	17.9193	-0.557832	0	
1.7500	9.96672	-0.557832	0	
1.7507	3.88945	0.664086	0	
1.7513	3.57691	2.78916	0	
1.7520	1.11127	1.27504	0	
1.7527	-6.18145	-0.265634	0	
1.7533	-8.64709	2.1782	0	
1.7540	-6.80654	4.30327	0	
1.7547	-9.23745	4.30327	0	
1.7553	-13.5089	4.62204	0	
1.7560	-17.7804	4.62204	0	
1.7567	-24.2049	5.23299	0	
1.7573	-28.4763	5.84395	0	
1.7580	-26.9483	4.62204	0	
1.7587	-23.5798	3.40012	0	
1.7593	-19.3084	3.40012	0	
1.7600	-12.9185	3.08136	0	
1.7607	-8.95963	0.956283	0	
1.7613	-6.494	-1.16879	0	
1.7620	-2.84763	-2.09851	0	
1.7627	0.833454	-2.70947	0	
1.7633	2.63927	-3.61263	0	
1.7640	4.16727	-4.54235	0	
1.7647	5.10491	-5.4455	0	
1.7653	8.1609	-6.66742	0	
1.7660	15.1758	-8.2081	0	
1.7667	21.5656	-10.9441	0	
1.7673	24.9342	-12.4582	0	
1.7680	25.8371	-9.43002	0	
1.7687	23.7187	-6.05646	0	
1.7693	19.1347	-6.05646	0	
1.7700	16.3913	-3.00167	0	
1.7707	14.8633	1.56724	0	
1.7713	10.9044	0.0531268	0	
1.7720	6.63291	-2.09851	0	
1.7727	4.79236	-0.265634	0	
1.7733	2.63927	-0.265634	0	
1.7740	-0.382	-2.70947	0	
1.7747	-2.22254	-2.39071	0	
1.7753	-5.90363	0.664086	0	
1.7760	-14.134	3.69232	0	
1.7767	-22.0518	5.23299	0	
1.7773	-25.1078	4.30327	0	
1.7780	-24.5174	4.62204	0	
1.7787	-21.4614	4.30327	0	
1.7793	-18.4054	2.49696	0	
1.7800	-14.7244	1.56724	0	
1.7807	-9.86254	0.345324	0	
1.7813	-6.494	-0.557832	0	
1.7820	-4.966	1.27504	0	
1.7827	-1.00709	2.49696	0	
1.7833	2.63927	-0.265634	0	
1.7840	2.95182	-3.93139	0	
1.7847	4.16727	-4.22358	0	
1.7853	9.06381	-3.00167	0	
1.7860	15.4884	-4.54235	0	
1.7867	22.5033	-8.5003	0	
1.7873	27.6776	-5.4455	0	
1.7880	26.4622	0.664086	0	
1.7887	21.5656	-0.557832	0	
1.7893	19.1347	-2.70947	0	
1.7900	16.9816	0.345324	0	
1.7907	12.7102	-0.265634	0	
1.7913	8.1609	-2.09851	0	
1.7920	2.63927	1.56724	0	
1.7927	-1.91	3.40012	0	
1.7933	-2.53509	1.27504	0	
1.7940	-3.438	0.956283	0	
1.7947	-6.80654	0.0531268	0	
1.7953	-8.33454	-3.00167	0	
1.7960	-11.078	-3.93139	0	
1.7967	-20.246	-2.39071	0	
1.7973	-27.5734	-0.557832	0	
1.7980	-26.6358	0.664086	0	
1.7987	-23.8924	-0.557832	0	
1.7993	-21.4614	-1.16879	0	
1.8000	-16.5649	-0.557832	0	
1.8007	-11.078	-3.32043	0	
1.8013	-7.11909	-6.66742	0	
1.8020	-3.75054	-5.4455	0	
1.8027	-0.382	-3.32043	0	
1.8033	1.73636	-2.70947	0	
1.8040	2.63927	-0.876593	0	
1.8047	3.57691	0.664086	0	
1.8053	6.32036	-2.09851	0	
1.8060	12.7102	-3.93139	0	
1.8067	19.1347	-4.83454	0	
1.8073	22.1907	-6.66742	0	
1.8080	21.2531	-7.27838	0	
1.8087	18.2318	-6.37522	0	
1.8093	14.5507	-6.98618	0	
1.8100	11.8073	-6.66742	0	
1.8107	9.37636	-3.00167	0	
1.8113	4.47982	-0.557832	0	
1.8120	0.520909	0.345324	0	
1.8127	-0.382	2.78916	0	
1.8133	-1.00709	2.78916	0	
1.8140	-3.75054	-0.265634	0	
1.8147	-3.75054	-1.16879	0	
1.8153	-4.966	-0.876593	0	
1.8160	-11.3905	0.956283	0	
1.8167	-17.7804	4.01108	0	
1.8173	-20.246	3.69232	0	
1.8180	-21.774	2.1782	0	
1.8187	-19.3084	3.40012	0	
1.8193	-13.5089	3.40012	0	
1.8200	-10.4529	2.1782	0	
1.8207	-8.64709	2.49696	0	
1.8213	-4.37563	2.1782	0	
1.8220	-1.00709	1.27504	0	
1.8227	0.520909	0.664086	0	
1.8233	3.26436	-1.77975	0	
1.8240	5.10491	-2.39071	0	
1.8247	4.79236	-0.265634	0	
1.8253	7.84836	-0.876593	0	
1.8260	14.5507	-3.00167	0	
1.8267	21.2531	-3.00167	0	
1.8273	25.5593	-4.83454	0	
1.8280	24.3091	-7.59714	0	
1.8287	17.2942	-5.76426	0	
1.8293	11.8073	-2.39071	0	
1.8300	10.2793	-1.16879	0	
1.8307	7.22327	-2.09851	0	
1.8313	2.36145	-3.00167	0	
1.8320	-1.00709	-1.77975	0	
1.8327	-2.84763	0.664086	0	
1.8333	-5.27854	2.1782	0	
1.8340	-6.18145	2.78916	0	
1.8347	-5.59109	3.40012	0	
1.8353	-8.022	4.62204	0	
1.8360	-16.5649	7.67683	0	
1.8367	-25.7329	8.89875	0	
1.8373	-28.4763	7.67683	0	
1.8380	-25.7329	8.89875	0	
1.8387	-22.6769	9.8019	0	
1.8393	-18.4054	6.13615	0	
1.8400	-14.7244	2.78916	0	
1.8407	-11.9809	1.886	0	
1.8413	-7.43163	0.664086	0	
1.8420	-2.22254	0.0531268	0	
1.8427	-1.31964	2.1782	0	
1.8433	-0.104182	1.886	0	
1.8440	2.95182	-0.557832	0	
1.8447	5.10491	-2.09851	0	
1.8453	9.96672	-2.70947	0	
1.8460	20.0376	-4.83454	0	
1.8467	26.4622	-5.76426	0	
1.8473	28.3027	-3.00167	0	
1.8480	27.6776	-0.265634	0	
1.8487	21.8782	-2.09851	0	
1.8493	15.4884	-1.16879	0	
1.8500	14.5507	1.56724	0	
1.8507	11.4947	0.345324	0	
1.8513	5.41745	-0.265634	0	
1.8520	3.88945	3.08136	0	
1.8527	2.63927	2.78916	0	
1.8533	-3.438	0.0531268	0	
1.8540	-6.494	0.956283	0	
1.8547	-6.18145	1.27504	0	
1.8553	-9.54999	-1.16879	0	
1.8560	-16.2524	1.56724	0	
1.8567	-22.3644	6.74711	0	
1.8573	-26.3233	7.06587	0	
1.8580	-24.5174	6.45491	0	
1.8587	-19.0305	7.35807	0	
1.8593	-15.662	7.35807	0	
1.8600	-12.2934	7.06587	0	
1.8607	-8.022	5.23299	0	
1.8613	-4.37563	1.56724	0	
1.8620	-1.00709	0.0531268	0	
1.8627	2.63927	0.956283	0	
1.8633	4.79236	-0.557832	0	
1.8640	6.32036	-2.70947	0	
1.8647	9.06381	-3.93139	0	
1.8653	14.2382	-6.98618	0	
1.8660	21.5656	-8.5003	0	
1.8667	27.0525	-6.98618	0	
1.8673	28.3027	-6.66742	0	
1.8680	25.2467	-6.66742	0	
1.8687	19.7598	-4.22358	0	
1.8693	16.0787	-3.32043	0	
1.8700	15.1758	-3.61263	0	
1.8707	11.8073	-1.16879	0	
1.8713	5.41745	0.956283	0	
1.8720	0.208364	0.664086	0	
1.8727	-4.06309	0.345324	0	
1.8733	-7.11909	-0.265634	0	
1.8740	-7.43163	-1.16879	0	
1.8747	-8.64709	-1.77975	0	
1.8753	-13.2311	-2.70947	0	
1.8760	-20.246	-3.93139	0	
1.8767	-27.8513	-1.77975	0	
1.8773	-31.2198	0.956283	0	
1.8780	-28.4763	0.664086	0	
1.8787	-24.5174	-1.77975	0	
1.8793	-20.246	-3.00167	0	
1.8800	-15.9745	-1.48755	0	
1.8807	-12.606	0.345324	0	
1.8813	-7.11909	0.664086	0	
1.8820	-1.31964	0.956283	0	
1.8827	-1.00709	0.345324	0	
1.8833	1.11127	-0.876593	0	
1.8840	7.84836	-0.265634	0	
1.8847	7.84836	1.56724	0	
1.8853	6.32036	1.56724	0	
1.8860	15.4884	-0.265634	0	
1.8867	24.6216	-1.77975	0	
1.8873	25.5593	-3.00167	0	
1.8880	26.4622	-3.93139	0	
1.8887	25.8371	-3.93139	0	
1.8893	19.4473	-3.93139	0	
1.8900	16.0787	-3.32043	0	
1.8907	15.4884	0.345324	0	
1.8913	10.2793	2.78916	0	
1.8920	4.79236	1.886	0	
1.8927	5.10491	1.56724	0	
1.8933	5.41745	2.49696	0	
1.8940	2.63927	2.49696	0	
1.8947	-0.694545	1.886	0	
1.8953	-5.59109	3.08136	0	
1.8960	-13.5089	5.84395	0	
1.8967	-21.4614	8.28779	0	
1.8973	-24.7953	8.89875	0	
1.8980	-23.8924	6.45491	0	
1.8987	-23.8924	2.78916	0	
1.8993	-22.9894	0.345324	0	
1.9000	-17.7804	-1.16879	0	
1.9007	-13.8214	-1.77975	0	
1.9013	-11.7031	-1.77975	0	
1.9020	-8.022	-1.77975	0	
1.9027	-3.75054	-2.09851	0	
1.9033	-1.00709	-2.09851	0	
1.9040	1.11127	-3.93139	0	
1.9047	2.63927	-5.4455	0	
1.9053	6.32036	-5.4455	0	
1.9060	13.6478	-6.66742	0	
1.9067	21.2531	-8.2081	0	
1.9073	23.7187	-6.37522	0	
1.9080	20.0376	-4.83454	0	
1.9087	17.9193	-4.83454	0	
1.9093	17.6067	-3.32043	0	
1.9100	14.5507	-1.16879	0	
1.9107	8.75127	-0.265634	0	
1.9113	6.32036	2.1782	0	
1.9120	5.69527	3.40012	0	
1.9127	2.63927	1.56724	0	
1.9133	-2.53509	1.886	0	
1.9140	-3.75054	3.69232	0	
1.9147	-1.63218	3.69232	0	
1.9153	-4.966	3.69232	0	
1.9160	-15.0369	4.91423	0	
1.9167	-22.0518	5.23299	0	
1.9173	-22.0518	4.01108	0	
1.9180	-21.1489	2.49696	0	
1.9187	-17.5025	1.886	0	
1.9193	-13.2311	1.56724	0	
1.9200	-13.2311	-0.265634	0	
1.9207	-12.2934	-1.77975	0	
1.9213	-5.59109	-2.09851	0	
1.9220	-1.63218	-1.48755	0	
1.9227	-2.53509	-0.876593	0	
1.9233	-1.00709	-0.876593	0	
1.9240	1.11127	-1.16879	0	
1.9247	1.73636	-1.16879	0	
1.9253	4.79236	-1.77975	0	
1.9260	13.6478	-3.93139	0	
1.9267	20.3502	-6.66742	0	
1.9273	21.8782	-6.05646	0	
1.9280	22.7811	-5.4455	0	
1.9287	20.6627	-6.37522	0	
1.9293	13.9604	-6.05646	0	
1.9300	8.1609	-4.83454	0	
1.9307	5.41745	-4.83454	0	
1.9313	2.04891	-3.00167	0	
1.9320	-0.382	1.56724	0	
1.9327	-1.31964	3.40012	0	
1.9333	-3.438	3.08136	0	
1.9340	-4.37563	3.40012	0	
1.9347	-4.65345	3.40012	0	
1.9353	-8.64709	4.01108	0	
1.9360	-13.8214	5.84395	0	
1.9367	-18.4054	4.30327	0	
1.9373	-22.9894	-0.265634	0	
1.9380	-22.9894	-1.77975	0	
1.9387	-18.4054	-0.876593	0	
1.9393	-16.5649	-1.77975	0	
1.9400	-14.134	-3.00167	0	
1.9407	-8.95963	-1.16879	0	
1.9413	-5.59109	-0.265634	0	
1.9420	-3.75054	-2.09851	0	
1.9427	0.208364	-3.61263	0	
1.9433	2.63927	-3.32043	0	
1.9440	2.63927	-4.83454	0	
1.9447	2.63927	-4.83454	0	
1.9453	6.91072	-3.00167	0	
1.9460	14.8633	-4.22358	0	
1.9467	19.4473	-6.66742	0	
1.9473	19.4473	-3.93139	0	
1.9480	21.5656	-2.39071	0	
1.9487	24.0313	-3.32043	0	
1.9493	20.0376	-0.265634	0	
1.9500	14.8633	1.56724	0	
1.9507	12.4324	-1.16879	0	
1.9513	9.6889	-3.32043	0	
1.9520	6.32036	-2.09851	0	
1.9527	2.95182	-1.48755	0	
1.9533	-0.104182	-3.00167	0	
1.9540	-0.694545	-4.22358	0	
1.9547	0.833454	-3.00167	0	
1.9553	-3.16018	0.956283	0	
1.9560	-13.8214	2.49696	0	
1.9567	-23.8924	0.0531268	0	
1.9573	-27.5734	-1.48755	0	
1.9580	-24.2049	-0.876593	0	
1.9587	-19.9334	-0.876593	0	
1.9593	-18.4054	-0.265634	0	
1.9600	-15.662	0.956283	0	
1.9607	-9.54999	-1.16879	0	
1.9613	-3.75054	-3.00167	0	
1.9620	-0.104182	-1.16879	0	
1.9627	2.36145	-0.876593	0	
1.9633	2.63927	-3.32043	0	
1.9640	2.95182	-4.22358	0	
1.9647	4.16727	-3.00167	0	
1.9653	8.1609	-1.48755	0	
1.9660	15.7662	-3.32043	0	
1.9667	23.4062	-7.27838	0	
1.9673	26.4622	-7.88934	0	
1.9680	25.2467	-4.54235	0	
1.9687	21.8782	-2.39071	0	
1.9693	17.2942	-2.39071	0	
1.9700	12.7102	-1.16879	0	
1.9707	8.75127	0.956283	0	
1.9713	5.69527	1.56724	0	
1.9720	4.16727	-0.557832	0	
1.9727	0.833454	-2.70947	0	
1.9733	-4.65345	-2.39071	0	
1.9740	-6.494	-1.48755	0	
1.9747	-6.494	-0.557832	0	
1.9753	-11.7031	2.1782	0	
1.9760	-19.9334	4.30327	0	
1.9767	-24.7953	4.62204	0	
1.9773	-26.9483	6.13615	0	
1.9780	-28.1638	6.74711	0	
1.9787	-24.7953	2.78916	0	
1.9793	-17.5025	1.56724	0	
1.9800	-11.9809	3.40012	0	
1.9807	-11.078	1.56724	0	
1.9813	-8.33454	-2.70947	0	
1.9820	-2.84763	-3.32043	0	
1.9827	-0.382	-3.93139	0	
1.9833	-0.694545	-4.22358	0	
1.9840	0.833454	-1.77975	0	
1.9847	4.47982	0.664086	0	
1.9853	9.37636	-0.557832	0	
1.9860	16.0787	-2.39071	0	
1.9867	22.5033	-3.93139	0	
1.9873	24.9342	-4.22358	0	
1.9880	23.0936	-3.93139	0	
1.9887	17.9193	-4.54235	0	
1.9893	12.4324	-4.54235	0	
1.9900	9.6889	-0.265634	0	
1.9907	8.1609	4.30327	0	
1.9913	4.47982	3.08136	0	
1.9920	-0.104182	1.886	0	
1.9927	-3.16018	3.69232	0	
1.9933	-5.90363	3.40012	0	
1.9940	-7.70945	0.664086	0	
1.9947	-8.95963	-0.265634	0	
1.9953	-12.9185	0.956283	0	
1.9960	-18.718	2.78916	0	
1.9967	-21.1489	5.23299	0	
1.9973	-21.4614	6.13615	0	
1.9980	-22.0518	5.23299	0	
1.9987	-18.0929	4.30327	0	
1.9993	-11.7031	2.49696	0	
2.0000	-8.64709	-0.876593	0	
2.0007	-5.59109	-1.48755	0	
2.0013	-0.104182	0.956283	0	
2.0020	-0.104182	0.664086	0	
2.0027	-4.65345	-1.16879	0	
2.0033	-6.494	-1.16879	0	
2.0040	-4.37563	0.956283	0	
2.0047	-1.91	0.956283	0	
2.0053	1.73636	-1.16879	0	
2.0060	9.37636	-1.77975	0	
2.0067	17.9193	-0.876593	0	
2.0073	20.6627	-1.16879	0	
2.0080	17.9193	-1.16879	0	
2.0087	14.5507	-0.265634	0	
2.0093	12.7102	-1.16879	0	
2.0100	11.1822	-3.00167	0	
2.0107	9.06381	-2.39071	0	
2.0113	5.41745	-2.09851	0	
2.0120	2.63927	-3.32043	0	
2.0127	0.208364	-3.61263	0	
2.0133	-4.37563	-1.16879	0	
2.0140	-7.43163	1.56724	0	
2.0147	-6.18145	3.08136	0	
2.0153	-7.43163	3.40012	0	
2.0160	-15.662	5.84395	0	
2.0167	-23.302	8.89875	0	
2.0173	-23.8924	7.96903	0	
2.0180	-21.1489	6.45491	0	
2.0187	-18.4054	6.45491	0	
2.0193	-15.9745	3.40012	0	
2.0200	-13.2311	-0.265634	0	
2.0207	-9.86254	-0.557832	0	
2.0213	-5.27854	-1.48755	0	
2.0220	-0.694545	-3.61263	0	
2.0227	2.63927	-2.09851	0	
2.0233	4.47982	-0.265634	0	
2.0240	7.22327	-1.77975	0	
2.0247	9.6889	-3.00167	0	
2.0253	13.6478	-3.00167	0	
2.0260	19.7598	-3.93139	0	
2.0267	26.4622	-5.4455	0	
2.0273	29.2056	-3.93139	0	
2.0280	27.0525	-2.09851	0	
2.0287	21.5656	-2.09851	0	
2.0293	17.2942	-1.16879	0	
2.0300	16.0787	0.956283	0	
2.0307	13.6478	1.27504	0	
2.0313	9.37636	1.56724	0	
2.0320	6.00781	3.40012	0	
2.0327	3.57691	4.30327	0	
2.0333	-0.694545	4.30327	0	
2.0340	-3.16018	6.13615	0	
2.0347	-1.31964	6.45491	0	
2.0353	-3.75054	4.30327	0	
2.0360	-13.2311	4.30327	0	
2.0367	-21.4614	5.23299	0	
2.0373	-23.8924	4.91423	0	
2.0380	-23.302	4.30327	0	
2.0387	-22.3644	5.23299	0	
2.0393	-20.246	4.30327	0	
2.0400	-14.134	0.956283	0	
2.0407	-9.54999	-2.09851	0	
2.0413	-9.23745	-3.61263	0	
2.0420	-6.494	-2.09851	0	
2.0427	-0.382	0.0531268	0	
2.0433	-0.104182	-0.265634	0	
2.0440	-0.104182	-0.265634	0	
2.0447	5.10491	0.956283	0	
2.0453	10.2793	-3.00167	0	
2.0460	15.1758	-8.5003	0	
2.0467	22.1907	-6.98618	0	
2.0473	26.1496	-3.93139	0	
2.0480	24.9342	-5.76426	0	
2.0487	22.7811	-5.76426	0	
2.0493	19.7598	-2.39071	0	
2.0500	15.7662	-3.61263	0	
2.0507	11.8073	-4.54235	0	
2.0513	7.53581	-1.77975	0	
2.0520	3.88945	-0.265634	0	
2.0527	1.42382	0.0531268	0	
2.0533	-1.31964	-0.265634	0	
2.0540	-3.75054	-2.39071	0	
2.0547	-5.59109	-0.557832	0	
2.0553	-8.33454	3.40012	0	
2.0560	-14.4465	1.56724	0	
2.0567	-22.9894	0.345324	0	
2.0573	-28.4763	4.01108	0	
2.0580	-27.2609	4.62204	0	
2.0587	-22.0518	2.1782	0	
2.0593	-18.4054	2.1782	0	
2.0600	-17.7804	0.956283	0	
2.0607	-13.8214	-2.09851	0	
2.0613	-4.966	-3.00167	0	
2.0620	-1.00709	-2.09851	0	
2.0627	-1.91	-0.557832	0	
2.0633	2.04891	-1.16879	0	
2.0640	6.32036	-2.70947	0	
2.0647	5.69527	-3.32043	0	
2.0653	9.37636	-4.83454	0	
2.0660	18.2318	-5.76426	0	
2.0667	21.8782	-3.32043	0	
2.0673	21.2531	-4.22358	0	
2.0680	21.2531	-8.5003	0	
2.0687	19.7598	-6.66742	0	
2.0693	17.2942	-3.93139	0	
2.0700	13.9604	-2.70947	0	
2.0707	8.43872	1.886	0	
2.0713	2.63927	4.30327	0	
2.0720	-1.00709	-0.265634	0	
2.0727	-4.37563	-1.77975	0	
2.0733	-6.494	0.664086	0	
2.0740	-8.64709	0.956283	0	
2.0747	-10.4529	3.40012	0	
2.0753	-12.9185	4.91423	0	
2.0760	-17.7804	3.08136	0	
2.0767	-24.5174	2.1782	0	
2.0773	-26.3233	0.0531268	0	
2.0780	-23.5798	-3.93139	0	
2.0787	-20.8364	-2.09851	0	
2.0793	-17.5025	-0.876593	0	
2.0800	-12.9185	-5.4455	0	
2.0807	-8.33454	-6.37522	0	
2.0813	-2.84763	-3.93139	0	
2.0820	1.11127	-4.54235	0	
2.0827	2.36145	-3.93139	0	
2.0833	5.10491	-0.265634	0	
2.0840	9.06381	0.956283	0	
2.0847	9.96672	1.56724	0	
2.0853	14.2382	1.886	0	
2.0860	24.0313	-1.16879	0	
2.0867	29.8307	-4.22358	0	
2.0873	30.1085	-4.22358	0	
2.0880	29.2056	-3.93139	0	
2.0887	24.6216	-3.61263	0	
2.0893	19.7598	-2.39071	0	
2.0900	17.2942	-2.70947	0	
2.0907	11.8073	-4.22358	0	
2.0913	5.41745	-5.76426	0	
2.0920	2.95182	-6.05646	0	
2.0927	0.833454	-3.93139	0	
2.0933	-3.16018	-0.265634	0	
2.0940	-4.65345	-1.16879	0	
2.0947	-4.966	-3.00167	0	
2.0953	-8.64709	0.0531268	0	
2.0960	-17.5025	3.40012	0	
2.0967	-25.7329	0.956283	0	
2.0973	-25.7329	0.664086	0	
2.0980	-22.3644	4.01108	0	
2.0987	-22.0518	4.91423	0	
2.0993	-19.6209	3.40012	0	
2.1000	-13.8214	2.1782	0	
2.1007	-10.4529	-1.48755	0	
2.1013	-8.64709	-3.61263	0	
2.1020	-3.75054	-1.16879	0	
2.1027	2.36145	-0.557832	0	
2.1033	4.79236	-1.77975	0	
2.1040	3.57691	-0.876593	0	
2.1047	4.47982	1.27504	0	
2.1053	11.4947	0.664086	0	
2.1060	18.5096	-1.77975	0	
2.1067	23.0936	-3.00167	0	
2.1073	26.4622	-2.39071	0	
2.1080	26.1496	-1.16879	0	
2.1087	21.5656	-0.557832	0	
2.1093	19.1347	-1.16879	0	
2.1100	16.7038	-1.48755	0	
2.1107	11.8073	0.345324	0	
2.1113	7.22327	3.08136	0	
2.1120	5.69527	3.69232	0	
2.1127	4.47982	2.49696	0	
2.1133	1.73636	2.1782	0	
2.1140	-2.22254	2.49696	0	
2.1147	-6.494	2.49696	0	
2.1153	-10.1751	3.69232	0	
2.1160	-16.5649	6.13615	0	
2.1167	-24.2049	4.91423	0	
2.1173	-27.8513	-0.265634	0	
2.1180	-26.0454	-2.09851	0	
2.1187	-21.1489	0.664086	0	
2.1193	-13.8214	0.956283	0	
2.1200	-7.70945	-1.77975	0	
2.1207	-5.59109	-3.00167	0	
2.1213	-3.438	-3.00167	0	
2.1220	0.520909	-3.61263	0	
2.1227	4.16727	-3.93139	0	
2.1233	5.69527	-3.93139	0	
2.1240	2.95182	-3.00167	0	
2.1247	-1.31964	-2.09851	0	
2.1253	2.63927	-3.61263	0	
2.1260	14.8633	-6.66742	0	
2.1267	22.7811	-8.81906	0	
2.1273	20.3502	-7.59714	0	
2.1280	16.3913	-5.4455	0	
2.1287	16.0787	-4.54235	0	
2.1293	16.0787	-3.61263	0	
2.1300	11.1822	-1.16879	0	
2.1307	4.47982	1.56724	0	
2.1313	1.73636	3.40012	0	
2.1320	0.208364	4.30327	0	
2.1327	-2.84763	4.01108	0	
2.1333	-3.75054	4.62204	0	
2.1340	-1.63218	4.30327	0	
2.1347	-3.75054	1.27504	0	
2.1353	-10.7654	2.1782	0	
2.1360	-18.4054	6.13615	0	
2.1367	-26.0454	4.62204	0	
2.1373	-29.3793	2.1782	0	
2.1380	-26.6358	3.40012	0	
2.1387	-22.6769	3.40012	0	
2.1393	-20.246	2.49696	0	
2.1400	-15.662	2.49696	0	
2.1407	-9.23745	0.664086	0	
2.1413	-5.59109	-2.09851	0	
2.1420	-3.438	-2.70947	0	
2.1427	0.833454	-3.32043	0	
2.1433	4.47982	-3.00167	0	
2.1440	6.00781	-2.70947	0	
2.1447	7.22327	-3.93139	0	
2.1453	11.8073	-3.93139	0	
2.1460	18.2318	-2.09851	0	
2.1467	22.7811	-2.09851	0	
2.1473	23.0936	-3.93139	0	
2.1480	22.5033	-5.76426	0	
2.1487	21.2531	-6.66742	0	
2.1493	17.2942	-3.93139	0	
2.1500	11.8073	-2.70947	0	
2.1507	8.1609	-6.37522	0	
2.1513	3.88945	-8.5003	0	
2.1520	-0.104182	-4.83454	0	
2.1527	-1.91	-1.16879	0	
2.1533	-3.438	0.345324	0	
2.1540	-6.18145	0.664086	0	
2.1547	-6.494	1.56724	0	
2.1553	-8.64709	2.49696	0	
2.1560	-16.5649	4.30327	0	
2.1567	-22.0518	5.84395	0	
2.1573	-23.302	7.06587	0	
2.1580	-22.9894	6.45491	0	
2.1587	-19.9334	5.52519	0	
2.1593	-16.5649	4.30327	0	
2.1600	-14.7244	3.69232	0	
2.1607	-10.1751	5.23299	0	
2.1613	-4.06309	4.91423	0	
2.1620	-1.91	0.0531268	0	
2.1627	2.04891	-1.16879	0	
2.1633	6.32036	1.886	0	
2.1640	5.69527	0.956283	0	
2.1647	4.79236	-1.48755	0	
2.1653	12.4324	-0.557832	0	
2.1660	22.7811	-2.09851	0	
2.1667	28.3027	-5.1533	0	
2.1673	28.3027	-4.83454	0	
2.1680	27.3651	-2.09851	0	
2.1687	24.3091	-0.876593	0	
2.1693	17.6067	-0.557832	0	
2.1700	12.7102	-1.16879	0	
2.1707	10.9044	-1.48755	0	
2.1713	6.32036	-1.48755	0	
2.1720	0.208364	-2.09851	0	
2.1727	-2.53509	-2.09851	0	
2.1733	-5.59109	-0.265634	0	
2.1740	-10.1751	0.0531268	0	
2.1747	-9.23745	-0.876593	0	
2.1753	-9.23745	0.0531268	0	
2.1760	-17.5025	1.27504	0	
2.1767	-23.8924	1.27504	0	
2.1773	-23.8924	1.56724	0	
2.1780	-24.2049	2.49696	0	
2.1787	-23.302	2.49696	0	
2.1793	-17.7804	3.40012	0	
2.1800	-14.134	2.49696	0	
2.1807	-13.2311	1.56724	0	
2.1813	-10.4529	0.956283	0	
2.1820	-6.494	-1.16879	0	
2.1827	-2.53509	-3.93139	0	
2.1833	1.73636	-3.93139	0	
2.1840	3.57691	-3.00167	0	
2.1847	4.79236	-2.39071	0	
2.1853	9.96672	-1.48755	0	
2.1860	18.8222	-3.93139	0	
2.1867	23.7187	-6.66742	0	
2.1873	23.4062	-3.93139	0	
2.1880	23.4062	0.345324	0	
2.1887	23.4062	-1.16879	0	
2.1893	18.2318	-2.70947	0	
2.1900	11.8073	-1.77975	0	
2.1907	9.37636	-2.39071	0	
2.1913	6.63291	-2.39071	0	
2.1920	2.36145	0.0531268	0	
2.1927	0.833454	2.49696	0	
2.1933	0.833454	3.69232	0	
2.1940	-1.63218	2.78916	0	
2.1947	-5.90363	1.27504	0	
2.1953	-12.2934	4.30327	0	
2.1960	-19.9334	8.89875	0	
2.1967	-25.4203	8.28779	0	
2.1973	-27.8513	4.91423	0	
2.1980	-28.1638	4.30327	0	
2.1987	-23.5798	4.01108	0	
2.1993	-16.2524	0.956283	0	
2.2000	-12.2934	0.0531268	0	
2.2007	-11.9809	1.56724	0	
2.2013	-9.23745	2.49696	0	
2.2020	-3.16018	1.886	0	
2.2027	1.73636	0.664086	0	
2.2033	3.57691	0.956283	0	
2.2040	3.57691	0.664086	0	
2.2047	4.79236	-3.00167	0	
2.2053	9.96672	-5.76426	0	
2.2060	17.2942	-3.93139	0	
2.2067	21.8782	-3.32043	0	
2.2073	22.7811	-3.93139	0	
2.2080	21.8782	-0.876593	0	
2.2087	19.1347	2.78916	0	
2.2093	15.1758	1.886	0	
2.2100	10.9044	-0.265634	0	
2.2107	7.53581	-1.48755	0	
2.2113	3.57691	-3.00167	0	
2.2120	-0.694545	-4.54235	0	
2.2127	-3.438	-4.54235	0	
2.2133	-5.59109	-2.39071	0	
2.2140	-8.33454	-1.16879	0	
2.2147	-11.078	-2.70947	0	
2.2153	-14.4465	-2.39071	0	
2.2160	-20.8364	1.27504	0	
2.2167	-26.0454	3.08136	0	
2.2173	-26.6358	1.56724	0	
2.2180	-25.7329	-0.265634	0	
2.2187	-22.9894	-1.16879	0	
2.2193	-17.5025	-0.557832	0	
2.2200	-12.9185	1.27504	0	
2.2207	-9.54999	0.664086	0	
2.2213	-6.80654	-2.70947	0	
2.2220	-6.18145	-3.00167	0	
2.2227	-4.65345	-1.16879	0	
2.2233	-0.104182	-3.61263	0	
2.2240	2.04891	-4.83454	0	
2.2247	2.63927	-0.265634	0	
2.2253	8.1609	1.56724	0	
2.2260	18.2318	-1.48755	0	
2.2267	27.0525	-1.16879	0	
2.2273	30.1085	0.664086	0	
2.2280	27.3651	0.664086	0	
2.2287	21.8782	2.78916	0	
2.2293	17.2942	4.01108	0	
2.2300	13.6478	1.56724	0	
2.2307	12.1198	0.956283	0	
2.2313	9.37636	1.27504	0	
2.2320	3.57691	-3.00167	0	
2.2327	-1.00709	-3.32043	0	
2.2333	-1.91	0.956283	0	
2.2340	-1.91	0.345324	0	
2.2347	-4.37563	-2.70947	0	
2.2353	-11.7031	0.664086	0	
2.2360	-20.8364	4.30327	0	
2.2367	-24.7953	4.30327	0	
2.2373	-25.4203	4.01108	0	
2.2380	-26.6358	3.40012	0	
2.2387	-25.4203	1.56724	0	
2.2393	-18.4054	1.27504	0	
2.2400	-11.7031	0.0531268	0	
2.2407	-7.43163	-2.39071	0	
2.2413	-3.75054	-2.70947	0	
2.2420	-1.31964	-0.265634	0	
2.2427	2.04891	0.664086	0	
2.2433	6.91072	-0.557832	0	
2.2440	9.06381	-2.70947	0	
2.2447	9.06381	-3.61263	0	
2.2453	14.8633	-3.32043	0	
2.2460	24.6216	-3.61263	0	
2.2467	29.2056	-3.93139	0	
2.2473	29.2056	-3.93139	0	
2.2480	27.6776	-1.16879	0	
2.2487	24.0313	1.56724	0	
2.2493	18.5096	-0.876593	0	
2.2500	13.0227	-3.00167	0	
2.2507	9.37636	0.345324	0	
2.2513	7.84836	2.1782	0	
2.2520	3.57691	0.0531268	0	
2.2527	-1.31964	0.664086	0	
2.2533	-2.22254	1.27504	0	
2.2540	-2.53509	-0.265634	0	
2.2547	-6.494	0.664086	0	
2.2553	-12.606	2.1782	0	
2.2560	-19.9334	3.40012	0	
2.2567	-25.7329	5.84395	0	
2.2573	-25.7329	5.23299	0	
2.2580	-22.3644	1.56724	0	
2.2587	-20.246	0.956283	0	
2.2593	-17.19	2.78916	0	
2.2600	-11.7031	2.78916	0	
2.2607	-6.80654	2.49696	0	
2.2613	-4.65345	2.49696	0	
2.2620	-3.75054	3.40012	0	
2.2627	-0.104182	1.886	0	
2.2633	5.10491	-2.09851	0	
2.2640	5.10491	-3.32043	0	
2.2647	4.47982	-1.48755	0	
2.2653	11.4947	-3.93139	0	
2.2660	20.0376	-7.59714	0	
2.2667	24.6216	-7.59714	0	
2.2673	25.8371	-5.76426	0	
2.2680	21.8782	-4.83454	0	
2.2687	14.5507	-3.32043	0	
2.2693	11.8073	-2.70947	0	
2.2700	9.96672	-2.70947	0	
2.2707	3.57691	-1.16879	0	
2.2713	2.63927	0.0531268	0	
2.2720	4.16727	1.56724	0	
2.2727	-0.104182	4.30327	0	
2.2733	-5.27854	4.01108	0	
2.2740	-3.75054	0.956283	0	
2.2747	-4.65345	0.664086	0	
2.2753	-11.3905	0.664086	0	
2.2760	-19.6209	-0.265634	0	
2.2767	-26.3233	1.56724	0	
2.2773	-27.5734	3.69232	0	
2.2780	-23.8924	2.49696	0	
2.2787	-22.3644	0.664086	0	
2.2793	-19.3084	1.56724	0	
2.2800	-13.2311	0.956283	0	
2.2807	-8.95963	-1.77975	0	
2.2813	-5.59109	-0.557832	0	
2.2820	-1.91	0.664086	0	
2.2827	-0.104182	-2.70947	0	
2.2833	2.36145	-4.22358	0	
2.2840	5.41745	-2.39071	0	
2.2847	7.53581	-2.39071	0	
2.2853	11.8073	-3.93139	0	
2.2860	20.3502	-3.93139	0	
2.2867	27.0525	-4.83454	0	
2.2873	28.3027	-6.66742	0	
2.2880	25.5593	-5.4455	0	
2.2887	20.3502	-3.93139	0	
2.2893	15.4884	-4.54235	0	
2.2900	10.5918	-3.00167	0	
2.2907	4.47982	0.0531268	0	
2.2913	-0.104182	-0.557832	0	
2.2920	-1.63218	-2.39071	0	
2.2927	-2.84763	-1.16879	0	
2.2933	-5.90363	0.664086	0	
2.2940	-8.022	0.0531268	0	
2.2947	-9.54999	0.0531268	0	
2.2953	-14.7244	0.345324	0	
2.2960	-22.6769	0.664086	0	
2.2967	-27.8513	1.56724	0	
2.2973	-28.4763	0.664086	0	
2.2980	-27.5734	-2.39071	0	
2.2987	-25.7329	-3.00167	0	
2.2993	-19.6209	-0.265634	0	
2.3000	-12.9185	-0.265634	0	
2.3007	-9.86254	-2.09851	0	
2.3013	-8.33454	-2.70947	0	
2.3020	-4.65345	-1.77975	0	
2.3027	-0.104182	0.664086	0	
2.3033	1.73636	3.40012	0	
2.3040	2.04891	3.40012	0	
2.3047	4.16727	1.56724	0	
2.3053	9.96672	0.0531268	0	
2.3060	17.6067	-0.557832	0	
2.3067	24.3091	-2.70947	0	
2.3073	25.5593	-4.22358	0	
2.3080	22.1907	-3.61263	0	
2.3087	18.2318	-2.39071	0	
2.3093	15.7662	-3.32043	0	
2.3100	13.6478	-2.39071	0	
2.3107	9.96672	1.27504	0	
2.3113	6.32036	2.49696	0	
2.3120	3.26436	-0.265634	0	
2.3127	1.73636	-3.00167	0	
2.3133	-1.31964	-3.00167	0	
2.3140	-2.84763	0.345324	0	
2.3147	-1.63218	2.49696	0	
2.3153	-5.59109	2.49696	0	
2.3160	-16.2524	2.1782	0	
2.3167	-22.0518	2.49696	0	
2.3173	-19.9334	3.40012	0	
2.3180	-18.4054	4.01108	0	
2.3187	-19.0305	2.78916	0	
2.3193	-15.9745	1.27504	0	
2.3200	-10.1751	-0.265634	0	
2.3207	-5.27854	-2.70947	0	
2.3213	-2.22254	-4.83454	0	
2.3220	-0.104182	-4.83454	0	
2.3227	2.63927	-4.22358	0	
2.3233	5.10491	-3.93139	0	
2.3240	6.91072	-3.00167	0	
2.3247	8.75127	-3.32043	0	
2.3253	14.2382	-4.22358	0	
2.3260	22.5033	-5.76426	0	
2.3267	27.9902	-6.37522	0	
2.3273	28.8931	-3.93139	0	
2.3280	28.3027	-2.70947	0	
2.3287	24.6216	-5.76426	0	
2.3293	17.2942	-5.4455	0	
2.3300	12.1198	0.0531268	0	
2.3307	9.96672	2.49696	0	
2.3313	6.00781	0.664086	0	
2.3320	1.11127	2.49696	0	
2.3327	-2.22254	4.30327	0	
2.3333	-4.966	3.40012	0	
2.3340	-5.59109	2.49696	0	
2.3347	-4.966	2.49696	0	
2.3353	-9.86254	4.01108	0	
2.3360	-19.3084	6.13615	0	
2.3367	-26.3233	5.23299	0	
2.3373	-27.5734	2.49696	0	
2.3380	-25.4203	2.49696	0	
2.3387	-21.1489	5.23299	0	
2.3393	-17.5025	5.84395	0	
2.3400	-14.134	3.08136	0	
2.3407	-8.95963	-0.265634	0	
2.3413	-3.75054	-0.876593	0	
2.3420	-1.00709	-0.265634	0	
2.3427	0.208364	0.664086	0	
2.3433	1.42382	1.27504	0	
2.3440	2.04891	1.886	0	
2.3447	3.57691	1.886	0	
2.3453	9.37636	1.886	0	
2.3460	17.2942	0.664086	0	
2.3467	22.7811	-0.265634	0	
2.3473	23.4062	-1.48755	0	
2.3480	20.9753	-2.09851	0	
2.3487	18.2318	-2.09851	0	
2.3493	14.5507	-2.39071	0	
2.3500	10.9044	-3.93139	0	
2.3507	7.22327	-4.83454	0	
2.3513	2.63927	-4.83454	0	
2.3520	0.208364	-5.76426	0	
2.3527	-0.382	-4.54235	0	
2.3533	-3.16018	-1.77975	0	
2.3540	-7.11909	-0.876593	0	
2.3547	-10.4529	-0.265634	0	
2.3553	-16.5649	2.49696	0	
2.3560	-24.7953	5.23299	0	
2.3567	-30.3169	7.35807	0	
2.3573	-30.9073	4.91423	0	
2.3580	-29.3793	-1.16879	0	
2.3587	-26.3233	-1.48755	0	
2.3593	-21.1489	1.886	0	
2.3600	-15.662	-0.265634	0	
2.3607	-11.078	-3.93139	0	
2.3613	-8.64709	-3.00167	0	
2.3620	-7.11909	-2.09851	0	
2.3627	-2.53509	-2.09851	0	
2.3633	1.73636	-0.876593	0	
2.3640	1.73636	-1.48755	0	
2.3647	4.16727	-4.54235	0	
2.3653	13.0227	-5.76426	0	
2.3660	20.9753	-4.54235	0	
2.3667	24.3091	-5.4455	0	
2.3673	26.1496	-6.05646	0	
2.3680	24.6216	-3.93139	0	
2.3687	19.7598	-2.70947	0	
2.3693	16.3913	-3.61263	0	
2.3700	13.3353	-1.77975	0	
2.3707	9.06381	1.886	0	
2.3713	6.32036	0.664086	0	
2.3720	4.16727	-1.77975	0	
2.3727	1.11127	0.956283	0	
2.3733	0.520909	2.49696	0	
2.3740	0.208364	1.56724	0	
2.3747	-4.37563	3.08136	0	
2.3753	-11.3905	4.30327	0	
2.3760	-17.19	2.1782	0	
2.3767	-21.4614	2.49696	0	
2.3773	-22.6769	4.91423	0	
2.3780	-20.246	4.01108	0	
2.3787	-17.19	2.78916	0	
2.3793	-12.2934	3.08136	0	
2.3800	-7.43163	0.664086	0	
2.3807	-5.90363	-1.48755	0	
2.3813	-3.75054	-2.09851	0	
2.3820	0.520909	-2.09851	0	
2.3827	2.63927	-0.557832	0	
2.3833	3.88945	0.956283	0	
2.3840	7.22327	0.664086	0	
2.3847	11.4947	0.345324	0	
2.3853	17.2942	0.956283	0	
2.3860	24.9342	0.956283	0	
2.3867	27.3651	0.664086	0	
2.3873	26.4622	0.0531268	0	
2.3880	26.4622	-1.77975	0	
2.3887	23.7187	-2.09851	0	
2.3893	17.2942	-1.16879	0	
2.3900	13.3353	-1.48755	0	
2.3907	10.5918	-3.93139	0	
2.3913	7.53581	-6.37522	0	
2.3920	6.32036	-6.66742	0	
2.3927	2.95182	-4.83454	0	
2.3933	-2.84763	-3.61263	0	
2.3940	-6.18145	-2.09851	0	
2.3947	-7.43163	0.345324	0	
2.3953	-12.606	2.49696	0	
2.3960	-19.6209	6.13615	0	
2.3967	-22.0518	8.28779	0	
2.3973	-22.0518	7.06587	0	
2.3980	-20.246	4.30327	0	
2.3987	-16.5649	0.956283	0	
2.3993	-14.134	-1.16879	0	
2.4000	-11.9809	-0.265634	0	
2.4007	-6.494	-0.265634	0	
2.4013	-3.75054	-3.93139	0	
2.4020	-3.75054	-3.93139	0	
2.4027	0.208364	1.56724	0	
2.4033	4.47982	0.664086	0	
2.4040	4.79236	-3.00167	0	
2.4047	6.63291	-1.48755	0	
2.4053	13.0227	0.0531268	0	
2.4060	19.7598	-0.876593	0	
2.4067	23.7187	-1.48755	0	
2.4073	22.1907	-3.61263	0	
2.4080	17.6067	-4.83454	0	
2.4087	14.5507	-2.70947	0	
2.4093	12.7102	-0.876593	0	
2.4100	9.37636	-0.876593	0	
2.4107	4.47982	0.664086	0	
2.4113	1.11127	2.49696	0	
2.4120	0.520909	3.40012	0	
2.4127	-0.104182	4.30327	0	
2.4133	-2.84763	3.40012	0	
2.4140	-5.59109	0.956283	0	
2.4147	-7.43163	1.56724	0	
2.4153	-13.8214	4.91423	0	
2.4160	-22.9894	6.74711	0	
2.4167	-29.3793	7.06587	0	
2.4173	-33.0603	7.67683	0	
2.4180	-30.0043	7.96903	0	
2.4187	-22.9894	5.52519	0	
2.4193	-18.718	0.0531268	0	
2.4200	-15.3494	-3.93139	0	
2.4207	-9.23745	-3.61263	0	
2.4213	-4.65345	-1.48755	0	
2.4220	-2.84763	-0.557832	0	
2.4227	-1.63218	-1.16879	0	
2.4233	-1.00709	-0.876593	0	
2.4240	0.520909	-0.265634	0	
2.4247	4.16727	-3.93139	0	
2.4253	9.06381	-7.27838	0	
2.4260	15.4884	-4.54235	0	
2.4267	22.5033	-1.48755	0	
2.4273	25.8371	-3.32043	0	
2.4280	25.8371	-3.32043	0	
2.4287	22.7811	0.345324	0	
2.4293	17.2942	1.27504	0	
2.4300	13.3353	-0.557832	0	
2.4307	9.96672	-0.265634	0	
2.4313	5.41745	0.664086	0	
2.4320	4.16727	0.956283	0	
2.4327	2.95182	1.56724	0	
2.4333	-2.84763	1.886	0	
2.4340	-7.70945	2.49696	0	
2.4347	-8.33454	5.23299	0	
2.4353	-14.134	5.84395	0	
2.4360	-25.4203	2.49696	0	
2.4367	-31.5323	0.345324	0	
2.4373	-30.9073	3.08136	0	
2.4380	-27.5734	3.69232	0	
2.4387	-23.8924	-0.265634	0	
2.4393	-18.4054	-1.77975	0	
2.4400	-14.134	-0.876593	0	
2.4407	-11.078	-2.70947	0	
2.4413	-7.11909	-3.93139	0	
2.4420	-4.37563	-2.70947	0	
2.4427	-2.84763	-1.16879	0	
2.4433	1.73636	-0.265634	0	
2.4440	6.32036	-0.265634	0	
2.4447	6.32036	-2.39071	0	
2.4453	9.06381	-4.54235	0	
2.4460	18.8222	-5.1533	0	
2.4467	24.3091	-3.61263	0	
2.4473	22.7811	-1.16879	0	
2.4480	21.8782	-2.39071	0	
2.4487	19.7598	-5.4455	0	
2.4493	14.5507	-5.76426	0	
2.4500	10.9044	-3.00167	0	
2.4507	7.22327	-1.16879	0	
2.4513	1.73636	-2.09851	0	
2.4520	-0.694545	-2.09851	0	
2.4527	-0.104182	2.1782	0	
2.4533	-2.22254	3.40012	0	
2.4540	-4.06309	0.0531268	0	
2.4547	-5.59109	0.956283	0	
2.4553	-11.9809	4.91423	0	
2.4560	-19.3084	3.69232	0	
2.4567	-20.8364	2.49696	0	
2.4573	-19.3084	3.40012	0	
2.4580	-19.0305	1.27504	0	
2.4587	-15.662	-0.876593	0	
2.4593	-10.1751	0.345324	0	
2.4600	-8.33454	-0.265634	0	
2.4607	-7.11909	-2.39071	0	
2.4613	-2.84763	-2.70947	0	
2.4620	1.11127	-3.93139	0	
2.4627	3.57691	-4.54235	0	
2.4633	6.32036	-2.09851	0	
2.4640	6.00781	-1.48755	0	
2.4647	6.32036	-3.32043	0	
2.4653	13.3353	-3.61263	0	
2.4660	21.2531	-3.32043	0	
2.4667	26.1496	-3.93139	0	
2.4673	28.5805	-4.22358	0	
2.4680	27.3651	-3.93139	0	
2.4687	22.5033	-2.09851	0	
2.4693	19.1347	-1.48755	0	
2.4700	16.3913	-3.00167	0	
2.4707	11.1822	-1.16879	0	
2.4713	6.32036	3.40012	0	
2.4720	3.57691	1.56724	0	
2.4727	2.63927	-1.16879	0	
2.4733	1.73636	1.886	0	
2.4740	-1.00709	3.08136	0	
2.4747	-4.65345	-0.876593	0	
2.4753	-9.86254	0.664086	0	
2.4760	-17.5025	5.52519	0	
2.4767	-22.9894	6.13615	0	
2.4773	-22.9894	4.30327	0	
2.4780	-20.246	3.40012	0	
2.4787	-15.3494	0.0531268	0	
2.4793	-11.078	-2.09851	0	
2.4800	-11.7031	-1.16879	0	
2.4807	-10.7654	-1.77975	0	
2.4813	-5.27854	-4.54235	0	
2.4820	-3.75054	-4.83454	0	
2.4827	-2.84763	-3.32043	0	
2.4833	3.26436	-1.77975	0	
2.4840	5.41745	-1.16879	0	
2.4847	5.10491	-3.00167	0	
2.4853	12.1198	-4.83454	0	
2.4860	20.0376	-5.76426	0	
2.4867	21.8782	-8.81906	0	
2.4873	22.1907	-12.166	0	
2.4880	20.9753	-8.81906	0	
2.4887	15.4884	-3.93139	0	
2.4893	11.8073	-3.93139	0	
2.4900	8.43872	-3.61263	0	
2.4907	3.57691	-1.16879	0	
2.4913	-0.104182	-1.16879	0	
2.4920	-4.06309	-1.16879	0	
2.4927	-7.43163	-0.265634	0	
2.4933	-6.18145	0.664086	0	
2.4940	-4.37563	1.56724	0	
2.4947	-8.022	3.40012	0	
2.4953	-12.9185	4.91423	0	
2.4960	-19.0305	6.74711	0	
2.4967	-25.4203	5.84395	0	
2.4973	-25.4203	0.664086	0	
2.4980	-21.1489	-1.48755	0	
2.4987	-20.5238	-0.876593	0	
2.4993	-20.246	-3.00167	0	
2.5000	-15.0369	-3.93139	0	
2.5007	-11.9809	-0.557832	0	
2.5013	-10.7654	-1.16879	0	
2.5020	-6.80654	-5.76426	0	
2.5027	-3.438	-6.66742	0	
2.5033	-1.91	-4.54235	0	
2.5040	1.73636	-3.93139	0	
2.5047	6.63291	-4.22358	0	
2.5053	11.8073	-5.76426	0	
2.5060	18.5096	-7.59714	0	
2.5067	24.3091	-7.59714	0	
2.5073	25.5593	-6.98618	0	
2.5080	23.4062	-4.83454	0	
2.5087	20.9753	-2.39071	0	
2.5093	17.9193	-2.39071	0	
2.5100	13.6478	-4.83454	0	
2.5107	8.43872	-4.22358	0	
2.5113	5.41745	-0.265634	0	
2.5120	4.47982	2.49696	0	
2.5127	0.833454	2.49696	0	
2.5133	-3.438	2.49696	0	
2.5140	-4.37563	2.49696	0	
2.5147	-6.494	3.40012	0	
2.5153	-15.0369	5.23299	0	
2.5160	-24.5174	6.74711	0	
2.5167	-28.4763	6.13615	0	
2.5173	-29.1014	7.06587	0	
2.5180	-28.4763	7.67683	0	
2.5187	-25.7329	4.01108	0	
2.5193	-21.1489	0.664086	0	
2.5200	-18.4054	1.27504	0	
2.5207	-15.9745	0.956283	0	
2.5213	-12.606	-0.876593	0	
2.5220	-8.64709	-1.48755	0	
2.5227	-4.65345	-2.09851	0	
2.5233	0.833454	-3.00167	0	
2.5240	3.57691	-2.70947	0	
2.5247	3.88945	-2.09851	0	
2.5253	8.75127	-2.09851	0	
2.5260	17.9193	-1.48755	0	
2.5267	22.7811	-3.93139	0	
2.5273	22.7811	-4.83454	0	
2.5280	22.7811	-2.39071	0	
2.5287	19.4473	-1.16879	0	
2.5293	13.3353	-1.16879	0	
2.5300	12.4324	1.56724	0	
2.5307	12.4324	3.40012	0	
2.5313	6.32036	1.886	0	
2.5320	1.73636	1.56724	0	
2.5327	1.11127	3.40012	0	
2.5333	-0.104182	5.84395	0	
2.5340	-2.22254	5.52519	0	
2.5347	-4.65345	2.1782	0	
2.5353	-10.1751	3.40012	0	
2.5360	-16.8774	7.96903	0	
2.5367	-19.3084	7.96903	0	
2.5373	-18.4054	7.96903	0	
2.5380	-15.662	12.2457	0	
2.5387	-13.2311	10.7316	0	
2.5393	-8.95963	6.13615	0	
2.5400	-3.75054	3.69232	0	
2.5407	-3.75054	-0.876593	0	
2.5413	-4.65345	-2.39071	0	
2.5420	0.833454	3.08136	0	
2.5427	5.41745	4.91423	0	
2.5433	4.47982	2.78916	0	
2.5440	3.57691	3.40012	0	
2.5447	7.22327	2.49696	0	
2.5453	14.8633	-1.48755	0	
2.5460	23.0936	-3.93139	0	
2.5467	26.4622	-3.93139	0	
2.5473	25.5593	-3.00167	0	
2.5480	22.7811	-3.93139	0	
2.5487	20.0376	-4.22358	0	
2.5493	16.3913	-2.39071	0	
2.5500	11.8073	-2.09851	0	
2.5507	6.91072	-4.22358	0	
2.5513	2.63927	-3.32043	0	
2.5520	-0.104182	-0.265634	0	
2.5527	-1.00709	-0.265634	0	
2.5533	-1.91	-0.265634	0	
2.5540	-5.59109	1.56724	0	
2.5547	-8.33454	1.886	0	
2.5553	-10.1751	2.49696	0	
2.5560	-17.7804	1.27504	0	
2.5567	-26.9483	-2.09851	0	
2.5573	-29.1014	-2.09851	0	
2.5580	-26.3233	1.27504	0	
2.5587	-23.8924	2.49696	0	
2.5593	-21.1489	2.49696	0	
2.5600	-16.2524	-0.265634	0	
2.5607	-10.1751	-3.93139	0	
2.5613	-7.11909	-3.93139	0	
2.5620	-6.494	-3.93139	0	
2.5627	-3.75054	-4.83454	0	
2.5633	-0.104182	-3.61263	0	
2.5640	-0.104182	-3.93139	0	
2.5647	3.57691	-7.59714	0	
2.5653	14.2382	-7.27838	0	
2.5660	23.7187	-6.66742	0	
2.5667	27.6776	-7.59714	0	
2.5673	29.2056	-5.1533	0	
2.5680	27.3651	-2.39071	0	
2.5687	22.7811	-2.70947	0	
2.5693	20.0376	-0.557832	0	
2.5700	17.2942	2.49696	0	
2.5707	10.2793	2.49696	0	
2.5713	4.16727	2.49696	0	
2.5720	3.57691	3.40012	0	
2.5727	2.04891	0.664086	0	
2.5733	-4.65345	-2.09851	0	
2.5740	-8.64709	-2.09851	0	
2.5747	-10.1751	-1.16879	0	
2.5753	-17.5025	-1.48755	0	
2.5760	-25.1078	-2.39071	0	
2.5767	-26.9483	-1.77975	0	
2.5773	-28.1638	0.956283	0	
2.5780	-27.2609	2.49696	0	
2.5787	-19.6209	1.886	0	
2.5793	-13.2311	1.886	0	
2.5800	-10.4529	1.886	0	
2.5807	-4.65345	1.56724	0	
2.5813	0.520909	3.08136	0	
2.5820	1.73636	4.91423	0	
2.5827	2.63927	3.40012	0	
2.5833	4.47982	0.664086	0	
2.5840	5.41745	-0.265634	0	
2.5847	7.84836	-1.48755	0	
2.5853	12.4324	-4.54235	0	
2.5860	18.2318	-6.66742	0	
2.5867	24.6216	-6.05646	0	
2.5873	27.6776	-5.76426	0	
2.5880	24.3091	-6.66742	0	
2.5887	20.9753	-6.66742	0	
2.5893	19.1347	-3.93139	0	
2.5900	13.0227	-0.557832	0	
2.5907	7.22327	-0.265634	0	
2.5913	5.10491	-1.16879	0	
2.5920	0.520909	0.0531268	0	
2.5927	-5.59109	1.27504	0	
2.5933	-6.494	-0.265634	0	
2.5940	-6.494	-3.93139	0	
2.5947	-11.078	-5.76426	0	
2.5953	-19.0305	-3.32043	0	
2.5960	-26.0454	1.27504	0	
2.5967	-27.5734	3.40012	0	
2.5973	-26.6358	4.30327	0	
2.5980	-26.6358	5.23299	0	
2.5987	-23.5798	4.30327	0	
2.5993	-16.2524	1.56724	0	
2.6000	-13.8214	0.956283	0	
2.6007	-14.7244	0.956283	0	
2.6013	-11.7031	-0.876593	0	
2.6020	-5.59109	-1.48755	0	
2.6027	-1.63218	-0.876593	0	
2.6033	0.833454	-2.09851	0	
2.6040	3.26436	-3.00167	0	
2.6047	9.06381	-1.16879	0	
2.6053	17.2942	-0.557832	0	
2.6060	22.7811	-2.70947	0	
2.6067	23.7187	-3.93139	0	
2.6073	22.7811	-3.93139	0	
2.6080	20.0376	-3.00167	0	
2.6087	15.4884	0.664086	0	
2.6093	13.6478	0.664086	0	
2.6100	12.7102	-2.39071	0	
2.6107	8.1609	-1.16879	0	
2.6113	3.88945	2.78916	0	
2.6120	2.63927	1.56724	0	
2.6127	-1.31964	-0.557832	0	
2.6133	-6.494	1.886	0	
2.6140	-7.43163	4.30327	0	
2.6147	-8.022	3.40012	0	
2.6153	-15.662	4.91423	0	
2.6160	-24.7953	7.06587	0	
2.6167	-27.5734	7.35807	0	
2.6173	-26.6358	7.06587	0	
2.6180	-25.7329	6.74711	0	
2.6187	-20.246	5.23299	0	
2.6193	-13.2311	5.52519	0	
2.6200	-8.022	6.13615	0	
2.6207	-1.91	1.56724	0	
2.6213	3.57691	0.0531268	0	
2.6220	3.57691	5.23299	0	
2.6227	2.63927	6.13615	0	
2.6233	5.10491	0.664086	0	
2.6240	4.16727	-1.77975	0	
2.6247	5.10491	-1.16879	0	
2.6253	14.2382	-3.32043	0	
2.6260	21.8782	-3.32043	0	
2.6267	23.7187	-3.00167	0	
2.6273	25.5593	-4.83454	0	
2.6280	24.6216	-4.83454	0	
2.6287	18.2318	-2.70947	0	
2.6293	13.3353	-2.09851	0	
2.6300	11.1822	-2.09851	0	
2.6307	8.43872	-2.70947	0	
2.6313	4.47982	-3.93139	0	
2.6320	1.73636	-3.61263	0	
2.6327	0.208364	-2.09851	0	
2.6333	-1.00709	-3.32043	0	
2.6340	-2.84763	-3.61263	0	
2.6347	-6.494	-2.09851	0	
2.6353	-12.9185	-1.16879	0	
2.6360	-22.3644	0.664086	0	
2.6367	-26.0454	3.40012	0	
2.6373	-22.9894	4.91423	0	
2.6380	-21.774	6.13615	0	
2.6387	-20.246	3.40012	0	
2.6393	-15.0369	-0.265634	0	
2.6400	-11.078	-0.265634	0	
2.6407	-6.80654	-0.265634	0	
2.6413	-2.22254	-1.77975	0	
2.6420	-1.91	-1.77975	0	
2.6427	-0.694545	-3.93139	0	
2.6433	3.26436	-8.2081	0	
2.6440	3.57691	-5.1533	0	
2.6447	4.47982	-1.48755	0	
2.6453	13.6478	-4.83454	0	
2.6460	21.8782	-6.98618	0	
2.6467	25.5593	-4.83454	0	
2.6473	27.9902	-6.05646	0	
2.6480	24.9342	-6.98618	0	
2.6487	19.1347	-2.70947	0	
2.6493	17.6067	-0.876593	0	
2.6500	15.7662	-3.93139	0	
2.6507	9.96672	-2.39071	0	
2.6513	5.41745	1.56724	0	
2.6520	2.63927	0.956283	0	
2.6527	-0.382	-0.557832	0	
2.6533	-1.91	1.27504	0	
2.6540	-3.16018	2.49696	0	
2.6547	-7.43163	2.78916	0	
2.6553	-13.8214	6.45491	0	
2.6560	-22.0518	9.8019	0	
2.6567	-27.2609	8.57999	0	
2.6573	-28.4763	5.52519	0	
2.6580	-28.1638	3.69232	0	
2.6587	-23.8924	3.40012	0	
2.6593	-18.4054	4.30327	0	
2.6600	-15.9745	4.01108	0	
2.6607	-11.3905	1.886	0	
2.6613	-4.966	0.664086	0	
2.6620	-1.00709	-1.77975	0	
2.6627	1.73636	-3.93139	0	
2.6633	2.63927	-2.39071	0	
2.6640	4.16727	-0.265634	0	
2.6647	10.9044	-2.09851	0	
2.6653	18.8222	-3.61263	0	
2.6660	22.7811	-4.54235	0	
2.6667	27.3651	-7.59714	0	
2.6673	30.1085	-7.59714	0	
2.6680	27.0525	-3.93139	0	
2.6687	23.0936	-2.70947	0	
2.6693	20.6627	-2.70947	0	
2.6700	15.4884	-2.70947	0	
2.6707	8.75127	-3.32043	0	
2.6713	4.16727	-2.39071	0	
2.6720	0.833454	-0.557832	0	
2.6727	-2.84763	-1.77975	0	
2.6733	-4.06309	-3.00167	0	
2.6740	-3.16018	-1.48755	0	
2.6747	-5.59109	-1.16879	0	
2.6753	-14.4465	0.0531268	0	
2.6760	-23.8924	4.01108	0	
2.6767	-27.5734	4.91423	0	
2.6773	-26.6358	1.27504	0	
2.6780	-24.7953	0.0531268	0	
2.6787	-21.774	0.956283	0	
2.6793	-16.2524	0.664086	0	
2.6800	-11.7031	2.1782	0	
2.6807	-10.1751	3.40012	0	
2.6813	-7.43163	0.664086	0	
2.6820	-1.91	-1.77975	0	
2.6827	-0.694545	-0.557832	0	
2.6833	-1.91	-0.265634	0	
2.6840	1.73636	0.956283	0	
2.6847	7.53581	2.78916	0	
2.6853	13.6478	-0.557832	0	
2.6860	21.5656	-5.76426	0	
2.6867	26.4622	-6.05646	0	
2.6873	23.0936	-3.61263	0	
2.6880	19.7598	-0.557832	0	
2.6887	18.5096	1.27504	0	
2.6893	14.8633	-1.16879	0	
2.6900	11.4947	-3.93139	0	
2.6907	9.06381	-3.00167	0	
2.6913	2.63927	-2.39071	0	
2.6920	-1.91	-4.54235	0	
2.6927	-1.31964	-3.93139	0	
2.6933	-3.75054	-1.77975	0	
2.6940	-8.022	-1.16879	0	
2.6947	-8.33454	-0.876593	0	
2.6953	-13.5089	1.56724	0	
2.6960	-23.8924	1.56724	0	
2.6967	-27.5734	-0.876593	0	
2.6973	-24.5174	0.0531268	0	
2.6980	-22.0518	3.40012	0	
2.6987	-19.3084	3.40012	0	
2.6993	-15.662	2.49696	0	
2.7000	-12.2934	3.08136	0	
2.7007	-9.23745	1.27504	0	
2.7013	-7.43163	-0.265634	0	
2.7020	-5.59109	0.956283	0	
2.7027	0.833454	0.664086	0	
2.7033	5.41745	0.664086	0	
2.7040	6.32036	2.49696	0	
2.7047	8.75127	-1.16879	0	
2.7053	15.7662	-5.4455	0	
2.7060	21.8782	-3.93139	0	
2.7067	24.6216	-3.00167	0	
2.7073	24.6216	-5.76426	0	
2.7080	22.7811	-6.37522	0	
2.7087	19.7598	-4.83454	0	
2.7093	15.4884	-4.22358	0	
2.7100	9.96672	-4.54235	0	
2.7107	6.32036	-3.93139	0	
2.7113	4.79236	-0.265634	0	
2.7120	1.73636	4.01108	0	
2.7127	-1.31964	2.49696	0	
2.7133	-2.53509	-0.557832	0	
2.7140	-4.06309	0.345324	0	
2.7147	-8.33454	2.1782	0	
2.7153	-13.8214	4.30327	0	
2.7160	-19.0305	5.23299	0	
2.7167	-23.8924	2.78916	0	
2.7173	-26.6358	0.664086	0	
2.7180	-23.8924	2.78916	0	
2.7187	-17.5025	1.27504	0	
2.7193	-12.9185	-3.93139	0	
2.7200	-10.7654	-4.83454	0	
2.7207	-7.11909	-3.61263	0	
2.7213	-3.75054	-6.05646	0	
2.7220	-3.16018	-5.76426	0	
2.7227	-0.382	-0.265634	0	
2.7233	2.63927	0.664086	0	
2.7240	2.63927	-2.39071	0	
2.7247	5.41745	-2.09851	0	
2.7253	13.0227	-1.16879	0	
2.7260	19.4473	-2.09851	0	
2.7267	22.7811	-1.16879	0	
2.7273	25.8371	-0.265634	0	
2.7280	24.0313	-0.265634	0	
2.7287	16.0787	0.956283	0	
2.7293	10.9044	-0.265634	0	
2.7300	11.8073	-4.54235	0	
2.7307	11.4947	-4.83454	0	
2.7313	5.41745	-1.48755	0	
2.7320	0.833454	0.0531268	0	
2.7327	-1.91	1.27504	0	
2.7333	-4.966	1.886	0	
2.7340	-8.64709	0.664086	0	
2.7347	-12.9185	2.49696	0	
2.7353	-19.3084	5.23299	0	
2.7360	-26.9483	4.30327	0	
2.7367	-30.0043	3.40012	0	
2.7373	-29.3793	3.40012	0	
2.7380	-26.3233	2.49696	0	
2.7387	-20.8364	2.49696	0	
2.7393	-15.0369	3.40012	0	
2.7400	-12.606	0.956283	0	
2.7407	-9.54999	-1.16879	0	
2.7413	-4.37563	1.27504	0	
2.7420	-1.31964	1.56724	0	
2.7427	1.11127	-3.61263	0	
2.7433	5.69527	-5.4455	0	
2.7440	6.63291	-3.93139	0	
2.7447	7.53581	-3.32043	0	
2.7453	16.7038	-3.93139	0	
2.7460	26.4622	-6.37522	0	
2.7467	27.3651	-7.88934	0	
2.7473	25.8371	-6.98618	0	
2.7480	25.5593	-6.66742	0	
2.7487	20.9753	-5.1533	0	
2.7493	15.7662	-0.265634	0	
2.7500	12.7102	0.664086	0	
2.7507	9.06381	-3.32043	0	
2.7513	4.47982	-3.32043	0	
2.7520	2.04891	-1.77975	0	
2.7527	-1.31964	-3.00167	0	
2.7533	-4.966	-1.48755	0	
2.7540	-6.494	1.56724	0	
2.7547	-10.1751	1.886	0	
2.7553	-18.4054	2.49696	0	
2.7560	-23.8924	4.30327	0	
2.7567	-25.1078	2.49696	0	
2.7573	-24.7953	0.0531268	0	
2.7580	-21.1489	-0.876593	0	
2.7587	-15.662	-2.09851	0	
2.7593	-12.2934	-2.09851	0	
2.7600	-10.4529	-0.876593	0	
2.7607	-7.43163	-1.16879	0	
2.7613	-3.438	-2.09851	0	
2.7620	0.833454	-1.48755	0	
2.7627	4.47982	-1.16879	0	
2.7633	4.47982	-1.48755	0	
2.7640	3.57691	-1.16879	0	
2.7647	9.06381	-0.557832	0	
2.7653	20.0376	-2.70947	0	
2.7660	27.3651	-3.93139	0	
2.7667	30.1085	-3.61263	0	
2.7673	30.4211	-3.00167	0	
2.7680	27.3651	-3.93139	0	
2.7687	24.0313	-3.00167	0	
2.7693	20.9753	-0.557832	0	
2.7700	13.3353	0.664086	0	
2.7707	5.69527	0.345324	0	
2.7713	4.16727	-0.265634	0	
2.7720	2.63927	1.56724	0	
2.7727	-2.22254	4.91423	0	
2.7733	-5.27854	5.52519	0	
2.7740	-7.70945	4.62204	0	
2.7747	-12.2934	4.30327	0	
2.7753	-18.0929	5.23299	0	
2.7760	-27.5734	7.06587	0	
2.7767	-34.8662	8.89875	0	
2.7773	-32.1227	7.96903	0	
2.7780	-25.7329	5.52519	0	
2.7787	-20.8364	5.23299	0	
2.7793	-15.0369	4.30327	0	
2.7800	-12.2934	2.1782	0	
2.7807	-10.1751	2.49696	0	
2.7813	-2.84763	4.91423	0	
2.7820	1.73636	4.01108	0	
2.7827	-0.694545	2.49696	0	
2.7833	1.73636	3.40012	0	
2.7840	5.69527	3.08136	0	
2.7847	7.53581	1.56724	0	
2.7853	14.2382	0.664086	0	
2.7860	22.7811	-1.48755	0	
2.7867	23.7187	-4.83454	0	
2.7873	21.5656	-3.93139	0	
2.7880	19.7598	-0.876593	0	
2.7887	15.7662	-0.265634	0	
2.7893	11.1822	-1.16879	0	
2.7900	8.1609	-1.48755	0	
2.7907	5.41745	-2.39071	0	
2.7913	2.95182	-3.00167	0	
2.7920	0.520909	-2.09851	0	
2.7927	-3.16018	-3.61263	0	
2.7933	-5.27854	-4.83454	0	
2.7940	-3.75054	-3.00167	0	
2.7947	-4.966	-1.16879	0	
2.7953	-15.0369	-0.557832	0	
2.7960	-26.6358	2.49696	0	
2.7967	-27.5734	4.30327	0	
2.7973	-22.6769	1.56724	0	
2.7980	-23.302	-0.265634	0	
2.7987	-22.6769	0.664086	0	
2.7993	-14.7244	0.956283	0	
2.8000	-8.33454	1.56724	0	
2.8007	-5.90363	0.345324	0	
2.8013	-2.22254	-3.00167	0	
2.8020	1.73636	-3.93139	0	
2.8027	3.57691	-3.32043	0	
2.8033	5.10491	-4.22358	0	
2.8040	6.32036	-5.76426	0	
2.8047	10.5918	-5.76426	0	
2.8053	17.9193	-7.27838	0	
2.8060	22.5033	-6.66742	0	
2.8067	24.6216	-3.93139	0	
2.8073	25.8371	-3.93139	0	
2.8080	23.7187	-6.37522	0	
2.8087	19.4473	-5.4455	0	
2.8093	15.4884	-3.93139	0	
2.8100	9.6889	-3.93139	0	
2.8107	4.79236	-1.16879	0	
2.8113	2.63927	0.956283	0	
2.8120	0.833454	0.664086	0	
2.8127	-2.22254	-0.876593	0	
2.8133	-3.75054	-1.77975	0	
2.8140	-3.75054	-1.16879	0	
2.8147	-6.18145	1.56724	0	
2.8153	-15.3494	3.40012	0	
2.8160	-23.8924	4.30327	0	
2.8167	-24.2049	5.23299	0	
2.8173	-22.3644	3.40012	0	
2.8180	-22.9894	-0.265634	0	
2.8187	-19.3084	1.56724	0	
2.8193	-11.9809	6.13615	0	
2.8200	-9.86254	3.69232	0	
2.8207	-8.33454	-1.48755	0	
2.8213	-2.84763	-2.09851	0	
2.8220	1.11127	-3.00167	0	
2.8227	2.36145	-5.4455	0	
2.8233	4.47982	-3.32043	0	
2.8240	7.22327	-0.557832	0	
2.8247	9.6889	-2.09851	0	
2.8253	14.5507	-3.61263	0	
2.8260	21.8782	-3.61263	0	
2.8267	27.3651	-4.54235	0	
2.8273	25.8371	-4.54235	0	
2.8280	19.7598	-3.93139	0	
2.8287	15.4884	-3.93139	0	
2.8293	14.5507	-3.00167	0	
2.8300	9.06381	-1.16879	0	
2.8307	0.833454	-1.16879	0	
2.8313	-2.84763	0.664086	0	
2.8320	-1.91	4.01108	0	
2.8327	-2.84763	5.52519	0	
2.8333	-5.90363	7.35807	0	
2.8340	-8.95963	9.8019	0	
2.8347	-13.2311	7.96903	0	
2.8353	-18.4054	3.08136	0	
2.8360	-22.9894	-0.557832	0	
2.8367	-26.0454	-1.16879	0	
2.8373	-26.3233	0.0531268	0	
2.8380	-22.9894	1.56724	0	
2.8387	-18.0929	0.664086	0	
2.8393	-14.134	-0.265634	0	
2.8400	-11.7031	-1.16879	0	
2.8407	-9.86254	-1.16879	0	
2.8413	-6.494	-0.265634	0	
2.8420	-2.53509	-0.557832	0	
2.8427	-1.00709	-3.00167	0	
2.8433	-1.00709	-3.93139	0	
2.8440	1.11127	-3.93139	0	
2.8447	6.32036	-4.22358	0	
2.8453	14.5507	-4.83454	0	
2.8460	21.8782	-4.83454	0	
2.8467	22.7811	-4.22358	0	
2.8473	19.7598	-3.93139	0	
2.8480	19.1347	-5.1533	0	
2.8487	18.2318	-4.83454	0	
2.8493	11.8073	-0.265634	0	
2.8500	6.32036	0.0531268	0	
2.8507	5.10491	-3.00167	0	
2.8513	2.04891	-1.48755	0	
2.8520	-2.84763	0.664086	0	
2.8527	-4.65345	0.0531268	0	
2.8533	-4.65345	0.664086	0	
2.8540	-7.11909	0.345324	0	
2.8547	-11.3905	-0.876593	0	
2.8553	-18.718	2.78916	0	
2.8560	-25.1078	4.62204	0	
2.8567	-27.2609	1.886	0	
2.8573	-26.9483	1.56724	0	
2.8580	-25.1078	1.56724	0	
2.8587	-20.246	0.664086	0	
2.8593	-14.7244	1.27504	0	
2.8600	-9.86254	-1.77975	0	
2.8607	-4.65345	-6.37522	0	
2.8613	-1.00709	-3.61263	0	
2.8620	0.833454	-0.265634	0	
2.8627	2.95182	-3.32043	0	
2.8633	3.57691	-3.93139	0	
2.8640	4.16727	-3.32043	0	
2.8647	9.06381	-5.76426	0	
2.8653	17.2942	-6.37522	0	
2.8660	25.8371	-3.93139	0	
2.8667	30.7336	-3.00167	0	
2.8673	29.2056	-2.70947	0	
2.8680	25.5593	-2.09851	0	
2.8687	21.8782	-1.16879	0	
2.8693	16.0787	-0.265634	0	
2.8700	11.1822	-0.265634	0	
2.8707	9.37636	0.345324	0	
2.8713	6.00781	2.78916	0	
2.8720	1.11127	3.40012	0	
2.8727	-0.382	4.30327	0	
2.8733	-0.382	7.06587	0	
2.8740	-3.438	7.06587	0	
2.8747	-8.33454	4.62204	0	
2.8753	-13.8214	4.30327	0	
2.8760	-20.246	3.40012	0	
2.8767	-25.4203	2.1782	0	
2.8773	-24.7953	4.91423	0	
2.8780	-20.246	7.06587	0	
2.8787	-15.9745	3.40012	0	
2.8793	-11.078	-0.265634	0	
2.8800	-5.59109	-0.557832	0	
2.8807	-2.84763	-1.77975	0	
2.8813	-4.06309	-3.93139	0	
2.8820	-3.16018	-4.22358	0	
2.8827	2.04891	-3.93139	0	
2.8833	5.41745	-3.93139	0	
2.8840	5.41745	-4.22358	0	
2.8847	8.43872	-3.93139	0	
2.8853	16.3913	-3.93139	0	
2.8860	22.7811	-3.93139	0	
2.8867	27.0525	-3.32043	0	
2.8873	28.3027	-3.00167	0	
2.8880	23.7187	-2.70947	0	
2.8887	17.2942	-2.09851	0	
2.8893	14.5507	-2.09851	0	
2.8900	10.9044	-1.77975	0	
2.8907	4.47982	-0.265634	0	
2.8913	2.63927	0.956283	0	
2.8920	2.63927	1.886	0	
2.8927	0.520909	2.49696	0	
2.8933	0.520909	3.40012	0	
2.8940	1.11127	3.69232	0	
2.8947	-5.90363	2.78916	0	
2.8953	-17.5025	2.78916	0	
2.8960	-24.7953	4.91423	0	
2.8967	-26.9483	7.06587	0	
2.8973	-26.0454	7.06587	0	
2.8980	-22.0518	6.74711	0	
2.8987	-17.5025	5.52519	0	
2.8993	-15.662	2.1782	0	
2.9000	-12.9185	0.664086	0	
2.9007	-7.43163	3.08136	0	
2.9013	-3.16018	2.78916	0	
2.9020	-1.91	-0.876593	0	
2.9027	1.42382	-2.09851	0	
2.9033	6.00781	-1.48755	0	
2.9040	6.32036	-0.265634	0	
2.9047	7.84836	1.886	0	
2.9053	16.0787	0.664086	0	
2.9060	24.3091	-3.93139	0	
2.9067	25.5593	-3.32043	0	
2.9073	22.5033	0.0531268	0	
2.9080	19.1347	-1.77975	0	
2.9087	14.5507	-3.00167	0	
2.9093	9.96672	-0.265634	0	
2.9100	6.91072	-1.77975	0	
2.9107	3.26436	-3.00167	0	
2.9113	-0.694545	-0.265634	0	
2.9120	-4.65345	-0.876593	0	
2.9127	-7.11909	-1.48755	0	
2.9133	-7.43163	1.56724	0	
2.9140	-8.33454	0.345324	0	
2.9147	-12.9185	-2.09851	0	
2.9153	-19.3084	3.40012	0	
2.9160	-25.1078	5.84395	0	
2.9167	-29.3793	0.0531268	0	
2.9173	-30.3169	-0.557832	0	
2.9180	-25.4203	2.49696	0	
2.9187	-19.3084	-1.16879	0	
2.9193	-15.9745	-3.61263	0	
2.9200	-12.9185	-0.557832	0	
2.9207	-9.23745	-0.557832	0	
2.9213	-4.65345	-3.93139	0	
2.9220	0.520909	-3.93139	0	
2.9227	3.57691	-0.876593	0	
2.9233	2.63927	-0.265634	0	
2.9240	4.16727	-5.1533	0	
2.9247	11.4947	-9.72221	0	
2.9253	19.1347	-8.2081	0	
2.9260	24.6216	-5.76426	0	
2.9267	29.2056	-4.54235	0	
2.9273	29.8307	-2.39071	0	
2.9280	25.5593	-3.00167	0	
2.9287	20.0376	-5.76426	0	
2.9293	16.0787	-4.83454	0	
2.9300	12.7102	-2.39071	0	
2.9307	9.06381	-1.48755	0	
2.9313	6.00781	0.664086	0	
2.9320	4.16727	1.886	0	
2.9327	4.16727	-0.876593	0	
2.9333	3.57691	-0.557832	0	
2.9340	1.42382	2.49696	0	
2.9347	-3.438	2.49696	0	
2.9353	-10.7654	0.956283	0	
2.9360	-17.7804	2.49696	0	
2.9367	-21.1489	3.69232	0	
2.9373	-19.6209	3.40012	0	
2.9380	-16.8774	1.886	0	
2.9387	-15.3494	0.345324	0	
2.9393	-12.9185	0.664086	0	
2.9400	-8.022	2.78916	0	
2.9407	-3.438	2.78916	0	
2.9413	-1.91	0.664086	0	
2.9420	0.208364	-0.876593	0	
2.9427	2.63927	-0.265634	0	
2.9433	2.63927	1.27504	0	
2.9440	4.47982	1.886	0	
2.9447	9.37636	1.56724	0	
2.9453	15.1758	-0.876593	0	
2.9460	20.6627	-2.09851	0	
2.9467	23.4062	-1.48755	0	
2.9473	20.3502	-2.39071	0	
2.9480	17.2942	-3.00167	0	
2.9487	15.1758	-0.265634	0	
2.9493	10.2793	-0.265634	0	
2.9500	5.41745	-3.32043	0	
2.9507	2.95182	-1.77975	0	
2.9513	0.833454	1.886	0	
