0.0007	-41.4451	-3.67346	0	
0.0013	-39.909	-1.83673	0	
0.0020	-40.5293	-0.0278292	0	
0.0027	-35.0348	2.11502	0	
0.0033	-24.9616	6.0946	0	
0.0040	-19.4671	5.48236	0	
0.0047	-16.0995	0.890535	0	
0.0053	-11.2253	-0.0278292	0	
0.0060	-6.35117	1.8089	0	
0.0067	2.51093	-0.918365	0	
0.0073	17.4583	-3.06122	0	
0.0080	34.8576	-2.14285	0	
0.0087	50.4253	-1.83673	0	
0.0093	59.2874	-0.918365	0	
0.0100	54.7087	-0.333951	0	
0.0107	48.2984	-0.333951	0	
0.0113	51.6365	1.8089	0	
0.0120	46.4669	1.8089	0	
0.0127	19.9102	-1.53061	0	
0.0133	-0.236323	-0.612243	0	
0.0140	1.89058	3.03339	0	
0.0147	3.42668	2.72726	0	
0.0153	-4.81507	0.890535	0	
0.0160	-8.47807	1.19666	0	
0.0167	-11.5207	3.95175	0	
0.0173	-21.594	7.93133	0	
0.0180	-21.2986	7.93133	0	
0.0187	-7.56232	5.17624	0	
0.0193	-1.44748	5.48236	0	
0.0200	-5.11047	5.78848	0	
0.0207	-7.85772	3.03339	0	
0.0213	-9.39382	1.8089	0	
0.0220	-8.47807	2.72726	0	
0.0227	-2.06782	4.56399	0	
0.0233	2.51093	6.40072	0	
0.0240	4.04702	5.48236	0	
0.0247	7.08968	2.42114	0	
0.0253	9.83693	2.72726	0	
0.0260	11.6684	2.72726	0	
0.0267	15.3314	0.890535	0	
0.0273	17.1629	0.278292	0	
0.0280	15.6268	-2.44897	0	
0.0287	13.2045	-7.34692	0	
0.0293	8.00543	-8.5714	0	
0.0300	0.384024	-6.12243	0	
0.0307	-2.06782	-3.67346	0	
0.0313	0.679427	-1.83673	0	
0.0320	1.59518	-2.75509	0	
0.0327	0.679427	-3.97958	0	
0.0333	-0.531726	-1.83673	0	
0.0340	-2.06782	-0.612243	0	
0.0347	-5.43542	-2.75509	0	
0.0353	-12.1411	-2.75509	0	
0.0360	-18.8467	-1.53061	0	
0.0367	-22.2143	-1.53061	0	
0.0373	-24.9616	3.95175	0	
0.0380	-30.4561	10.6586	0	
0.0387	-33.2033	9.43411	0	
0.0393	-28.0042	6.70685	0	
0.0400	-20.3828	7.01297	0	
0.0407	-14.8883	4.25787	0	
0.0413	-11.2253	0.890535	0	
0.0420	-9.09842	0.278292	0	
0.0427	-6.35117	-0.0278292	0	
0.0433	-1.15207	-1.83673	0	
0.0440	3.13127	-2.75509	0	
0.0447	3.13127	-2.75509	0	
0.0453	2.21552	-2.75509	0	
0.0460	5.25818	-2.75509	0	
0.0467	12.2888	-4.59182	0	
0.0473	17.1629	-6.42855	0	
0.0480	20.5305	-6.73467	0	
0.0487	21.7417	-8.26528	0	
0.0493	18.0787	-9.46194	0	
0.0500	12.2888	-5.51019	0	
0.0507	9.83693	-0.612243	0	
0.0513	8.00543	-0.0278292	0	
0.0520	2.80633	-0.612243	0	
0.0527	-2.06782	0.584414	0	
0.0533	-4.81507	-0.0278292	0	
0.0540	-7.26692	-0.333951	0	
0.0547	-6.94197	1.8089	0	
0.0553	-4.81507	1.8089	0	
0.0560	-6.64657	-0.918365	0	
0.0567	-13.3522	-0.0278292	0	
0.0573	-18.8467	2.72726	0	
0.0580	-19.7625	4.25787	0	
0.0587	-18.5513	4.87012	0	
0.0593	-16.7198	4.56399	0	
0.0600	-13.3522	2.72726	0	
0.0607	-8.47807	1.50278	0	
0.0613	-5.43542	2.11502	0	
0.0620	-3.89932	1.50278	0	
0.0627	-0.856669	0.278292	0	
0.0633	0.679427	0.890535	0	
0.0640	-2.06782	0.890535	0	
0.0647	-2.36323	-0.918365	0	
0.0653	0.679427	-1.83673	0	
0.0660	1.89058	-2.75509	0	
0.0667	4.04702	-5.51019	0	
0.0673	11.0481	-6.42855	0	
0.0680	14.1203	-4.2857	0	
0.0687	12.2888	-3.67346	0	
0.0693	15.3314	-4.59182	0	
0.0700	21.7417	-3.06122	0	
0.0707	22.0371	-0.0278292	0	
0.0713	19.9102	0.278292	0	
0.0720	21.4463	0.278292	0	
0.0727	21.7417	1.50278	0	
0.0733	16.2472	2.42114	0	
0.0740	7.08968	3.64563	0	
0.0747	-1.77242	5.48236	0	
0.0753	-6.64657	4.87012	0	
0.0760	-9.39382	1.50278	0	
0.0767	-15.8041	0.890535	0	
0.0773	-24.0458	3.03339	0	
0.0780	-26.7931	2.72726	0	
0.0787	-22.8051	0.890535	0	
0.0793	-19.4671	0.890535	0	
0.0800	-18.5513	2.11502	0	
0.0807	-14.5929	2.72726	0	
0.0813	-7.56232	0.278292	0	
0.0820	-2.68817	-2.14285	0	
0.0827	-2.98357	0.278292	0	
0.0833	-6.64657	3.03339	0	
0.0840	-9.68922	0.278292	0	
0.0847	-8.18267	-1.53061	0	
0.0853	-7.26692	-0.918365	0	
0.0860	-8.77347	-2.44897	0	
0.0867	-4.81507	-2.75509	0	
0.0873	2.21552	-2.44897	0	
0.0880	4.34243	-5.20407	0	
0.0887	6.17393	-6.42855	0	
0.0893	9.83693	-2.75509	0	
0.0900	9.54152	-1.53061	0	
0.0907	9.83693	-3.67346	0	
0.0913	17.7833	-2.75509	0	
0.0920	31.8149	-0.918365	0	
0.0927	50.7207	-0.918365	0	
0.0933	59.5828	0.584414	0	
0.0940	43.7197	1.8089	0	
0.0947	16.2472	1.19666	0	
0.0953	0.384024	2.72726	0	
0.0960	-5.11047	3.95175	0	
0.0967	-9.39382	2.72726	0	
0.0973	-13.0568	4.25787	0	
0.0980	-15.1837	7.31909	0	
0.0987	-15.8041	5.17624	0	
0.0993	-16.0995	1.8089	0	
0.1000	-16.7198	1.50278	0	
0.1007	-13.9726	2.42114	0	
0.1013	-7.26692	2.42114	0	
0.1020	2.21552	1.8089	0	
0.1027	8.00543	0.584414	0	
0.1033	3.42668	-0.918365	0	
0.1040	-6.35117	-1.53061	0	
0.1047	-11.2253	-0.918365	0	
0.1053	-10.3096	1.50278	0	
0.1060	-5.73082	0.890535	0	
0.1067	5.25818	-3.97958	0	
0.1073	16.2472	-6.42855	0	
0.1080	19.9102	-4.89795	0	
0.1087	19.2898	-4.2857	0	
0.1093	18.9944	-3.67346	0	
0.1100	18.3741	-2.75509	0	
0.1107	20.2056	-3.36734	0	
0.1113	22.0371	-3.67346	0	
0.1120	15.6268	-4.59182	0	
0.1127	4.63783	-5.20407	0	
0.1133	-2.06782	-3.97958	0	
0.1140	-3.89932	-2.75509	0	
0.1147	-4.19473	-3.36734	0	
0.1153	-8.18267	-1.53061	0	
0.1160	-16.7198	0.890535	0	
0.1167	-24.9616	1.19666	0	
0.1173	-29.2154	0.890535	0	
0.1180	-31.3718	2.72726	0	
0.1187	-32.583	3.64563	0	
0.1193	-30.1311	3.33951	0	
0.1200	-24.6366	3.64563	0	
0.1207	-19.4671	4.56399	0	
0.1213	-14.8883	3.33951	0	
0.1220	-10.3096	1.8089	0	
0.1227	-6.64657	0.890535	0	
0.1233	-3.27898	-2.75509	0	
0.1240	-0.856669	-5.51019	0	
0.1247	1.89058	-3.67346	0	
0.1253	4.04702	-3.06122	0	
0.1260	5.87852	-5.81631	0	
0.1267	10.1323	-6.42855	0	
0.1273	17.1629	-6.73467	0	
0.1280	19.2898	-9.76806	0	
0.1287	15.3314	-8.87753	0	
0.1293	11.0481	-5.51019	0	
0.1300	8.92118	-5.51019	0	
0.1307	7.38508	-4.89795	0	
0.1313	5.25818	-2.44897	0	
0.1320	1.59518	-3.67346	0	
0.1327	-1.15207	-5.51019	0	
0.1333	-1.15207	-2.44897	0	
0.1340	-2.06782	0.890535	0	
0.1347	-3.60392	0.890535	0	
0.1353	0.384024	0.584414	0	
0.1360	3.72208	1.8089	0	
0.1367	-1.77242	4.56399	0	
0.1373	-10.9299	6.0946	0	
0.1380	-16.0995	5.48236	0	
0.1387	-18.8467	3.64563	0	
0.1393	-18.2264	4.56399	0	
0.1400	-15.8041	4.87012	0	
0.1407	-16.3949	2.42114	0	
0.1413	-14.5929	0.584414	0	
0.1420	-7.56232	1.50278	0	
0.1427	-4.19473	2.72726	0	
0.1433	-3.89932	2.72726	0	
0.1440	-0.236323	1.19666	0	
0.1447	1.89058	-1.83673	0	
0.1453	2.51093	-3.67346	0	
0.1460	6.79427	-3.36734	0	
0.1467	10.7527	-3.67346	0	
0.1473	16.8675	-5.51019	0	
0.1480	33.0261	-4.89795	0	
0.1487	48.5938	-1.83673	0	
0.1493	51.0457	-0.612243	0	
0.1500	45.5512	-2.44897	0	
0.1507	37.3094	-2.14285	0	
0.1513	26.9112	0.890535	0	
0.1520	18.0787	2.11502	0	
0.1527	10.1323	1.8089	0	
0.1533	1.59518	2.72726	0	
0.1540	-6.02622	2.72726	0	
0.1547	-16.7198	2.72726	0	
0.1553	-29.5403	4.87012	0	
0.1560	-34.1191	7.01297	0	
0.1567	-37.1617	5.78848	0	
0.1573	-47.235	4.87012	0	
0.1580	-47.5304	5.78848	0	
0.1587	-31.3718	6.0946	0	
0.1593	-19.7625	3.64563	0	
0.1600	-18.5513	0.890535	0	
0.1607	-13.0568	-0.0278292	0	
0.1613	-6.94197	1.19666	0	
0.1620	-7.85772	1.50278	0	
0.1627	-9.09842	0.890535	0	
0.1633	-5.73082	-0.0278292	0	
0.1640	-1.44748	-2.44897	0	
0.1647	1.59518	-2.44897	0	
0.1653	-0.856669	0.278292	0	
0.1660	-3.27898	-0.0278292	0	
0.1667	3.42668	-2.44897	0	
0.1673	15.3314	-3.06122	0	
0.1680	20.5305	-3.06122	0	
0.1687	18.9944	-3.67346	0	
0.1693	14.1203	-2.75509	0	
0.1700	7.38508	-1.22449	0	
0.1707	0.97483	1.19666	0	
0.1713	-5.43542	2.11502	0	
0.1720	-9.39382	-0.0278292	0	
0.1727	-10.0142	-1.22449	0	
0.1733	-12.7614	-0.0278292	0	
0.1740	-16.7198	1.19666	0	
0.1747	-14.5929	1.19666	0	
0.1753	-11.5207	1.19666	0	
0.1760	-12.7614	1.8089	0	
0.1767	-10.3096	2.42114	0	
0.1773	-1.15207	2.11502	0	
0.1780	6.79427	0.890535	0	
0.1787	9.83693	1.19666	0	
0.1793	9.83693	1.8089	0	
0.1800	8.00543	1.19666	0	
0.1807	5.87852	1.8089	0	
0.1813	4.96277	2.72726	0	
0.1820	5.87852	0.890535	0	
0.1827	8.00543	-0.612243	0	
0.1833	8.30083	1.19666	0	
0.1840	9.83693	3.03339	0	
0.1847	15.6268	2.11502	0	
0.1853	18.0787	1.19666	0	
0.1860	15.3314	-0.0278292	0	
0.1867	15.3314	-3.67346	0	
0.1873	19.9102	-5.51019	0	
0.1880	20.8259	-3.67346	0	
0.1887	16.2472	-1.53061	0	
0.1893	12.5842	0.890535	0	
0.1900	11.6684	5.48236	0	
0.1907	9.83693	5.48236	0	
0.1913	8.92118	1.8089	0	
0.1920	7.71002	2.72726	0	
0.1927	3.13127	5.48236	0	
0.1933	0.384024	3.03339	0	
0.1940	2.21552	0.890535	0	
0.1947	2.80633	-0.918365	0	
0.1953	2.80633	-3.36734	0	
0.1960	2.51093	-2.75509	0	
0.1967	-4.51967	-0.333951	0	
0.1973	-13.6772	2.11502	0	
0.1980	-14.8883	4.56399	0	
0.1987	-13.0568	3.64563	0	
0.1993	-14.8883	-1.22449	0	
0.2000	-13.3522	-2.14285	0	
0.2007	-8.47807	-0.612243	0	
0.2013	-7.26692	-0.918365	0	
0.2020	-10.3096	-1.22449	0	
0.2027	-12.4365	-1.83673	0	
0.2033	-11.2253	-5.51019	0	
0.2040	-6.64657	-5.51019	0	
0.2047	-0.531726	-1.83673	0	
0.2053	3.42668	0.278292	0	
0.2060	3.72208	0.890535	0	
0.2067	6.79427	-0.333951	0	
0.2073	14.7111	-3.97958	0	
0.2080	18.0787	-5.81631	0	
0.2087	14.4157	-2.75509	0	
0.2093	9.21658	-0.0278292	0	
0.2100	2.51093	-0.0278292	0	
0.2107	-2.98357	1.50278	0	
0.2113	-3.89932	3.64563	0	
0.2120	-4.81507	2.72726	0	
0.2127	-9.39382	1.19666	0	
0.2133	-11.5207	3.33951	0	
0.2140	-10.3096	5.48236	0	
0.2147	-11.2253	4.25787	0	
0.2153	-13.9726	3.03339	0	
0.2160	-19.4671	3.33951	0	
0.2167	-28.92	1.8089	0	
0.2173	-32.2876	2.11502	0	
0.2180	-23.4255	3.95175	0	
0.2187	-9.39382	0.890535	0	
0.2193	1.59518	-2.75509	0	
0.2200	3.42668	-0.918365	0	
0.2207	-0.236323	0.584414	0	
0.2213	-1.15207	-0.918365	0	
0.2220	3.42668	0.890535	0	
0.2227	9.54152	2.72726	0	
0.2233	14.4157	0.890535	0	
0.2240	12.5842	-0.918365	0	
0.2247	6.17393	-0.612243	0	
0.2253	8.00543	0.890535	0	
0.2260	15.6268	1.19666	0	
0.2267	20.8259	-4.2857	0	
0.2273	25.0797	-11.9109	0	
0.2280	27.5316	-12.8293	0	
0.2287	26.6158	-11.6048	0	
0.2293	23.5732	-11.2987	0	
0.2300	13.7953	-8.26528	0	
0.2307	-0.236323	-3.67346	0	
0.2313	-7.56232	-2.75509	0	
0.2320	-9.39382	-0.918365	0	
0.2327	-11.8457	-0.0278292	0	
0.2333	-8.47807	-0.333951	0	
0.2340	-1.77242	0.890535	0	
0.2347	-0.236323	1.19666	0	
0.2353	-0.531726	-1.53061	0	
0.2360	-0.856669	-0.918365	0	
0.2367	-4.51967	4.25787	0	
0.2373	-11.5207	5.48236	0	
0.2380	-17.0152	0.278292	0	
0.2387	-17.931	-2.75509	0	
0.2393	-17.6356	-1.22449	0	
0.2400	-19.7625	-0.333951	0	
0.2407	-19.1421	-1.83673	0	
0.2413	-10.9299	-1.53061	0	
0.2420	-2.98357	-0.0278292	0	
0.2427	-1.44748	-0.612243	0	
0.2433	-0.236323	-0.918365	0	
0.2440	1.89058	-0.0278292	0	
0.2447	1.59518	-0.918365	0	
0.2453	-1.15207	-4.2857	0	
0.2460	-3.60392	-6.42855	0	
0.2467	-1.15207	-5.81631	0	
0.2473	4.34243	-3.97958	0	
0.2480	7.08968	-3.67346	0	
0.2487	4.63783	-5.81631	0	
0.2493	5.25818	-8.26528	0	
0.2500	11.0481	-6.73467	0	
0.2507	15.036	-2.44897	0	
0.2513	15.036	-0.0278292	0	
0.2520	16.8675	-1.22449	0	
0.2527	21.1213	-3.06122	0	
0.2533	22.9528	-2.44897	0	
0.2540	17.1629	-1.83673	0	
0.2547	9.54152	-3.36734	0	
0.2553	8.30083	-3.36734	0	
0.2560	6.17393	-2.44897	0	
0.2567	-3.60392	-2.75509	0	
0.2573	-13.0568	-2.44897	0	
0.2580	-20.3828	-0.918365	0	
0.2587	-31.0469	-0.0278292	0	
0.2593	-39.2886	1.8089	0	
0.2600	-42.3608	4.25787	0	
0.2607	-43.2766	4.87012	0	
0.2613	-37.7821	2.72726	0	
0.2620	-26.7931	-0.0278292	0	
0.2627	-20.6782	-0.333951	0	
0.2633	-15.8041	1.19666	0	
0.2640	-6.35117	-0.0278292	0	
0.2647	-0.236323	-2.75509	0	
0.2653	2.51093	-1.83673	0	
0.2660	12.2888	-0.0278292	0	
0.2667	25.9955	-2.44897	0	
0.2673	40.0567	-4.59182	0	
0.2680	51.3411	-3.67346	0	
0.2687	47.9735	-2.44897	0	
0.2693	32.1103	-0.612243	0	
0.2700	22.0371	1.8089	0	
0.2707	18.699	2.42114	0	
0.2713	12.2888	2.72726	0	
0.2720	7.71002	4.25787	0	
0.2727	10.7527	3.64563	0	
0.2733	13.4999	3.03339	0	
0.2740	10.7527	5.48236	0	
0.2747	4.96277	5.78848	0	
0.2753	-0.236323	3.64563	0	
0.2760	-3.89932	3.33951	0	
0.2767	-11.5207	5.48236	0	
0.2773	-23.7209	7.01297	0	
0.2780	-27.3839	5.48236	0	
0.2787	-22.8051	1.8089	0	
0.2793	-24.0458	0.890535	0	
0.2800	-24.3412	3.64563	0	
0.2807	-13.0568	4.56399	0	
0.2813	-0.236323	1.8089	0	
0.2820	5.55358	-0.918365	0	
0.2827	10.7527	-2.44897	0	
0.2833	13.4999	-3.67346	0	
0.2840	13.4999	-3.67346	0	
0.2847	14.4157	-3.67346	0	
0.2853	12.5842	-3.67346	0	
0.2860	4.63783	-2.75509	0	
0.2867	1.29977	-2.14285	0	
0.2873	1.59518	-1.22449	0	
0.2880	0.384024	-0.0278292	0	
0.2887	-1.15207	-0.612243	0	
0.2893	-3.60392	-0.918365	0	
0.2900	-7.56232	1.19666	0	
0.2907	-8.18267	1.8089	0	
0.2913	-5.73082	-0.0278292	0	
0.2920	-6.35117	0.890535	0	
0.2927	-7.56232	3.64563	0	
0.2933	-7.56232	2.72726	0	
0.2940	-8.18267	1.50278	0	
0.2947	-8.47807	1.8089	0	
0.2953	-9.39382	0.890535	0	
0.2960	-12.4365	0.890535	0	
0.2967	-16.3949	3.03339	0	
0.2973	-21.2986	5.17624	0	
0.2980	-26.4681	5.78848	0	
0.2987	-25.257	5.78848	0	
0.2993	-21.2986	3.64563	0	
0.3000	-21.594	1.19666	0	
0.3007	-21.8894	-0.0278292	0	
0.3013	-15.8041	-1.83673	0	
0.3020	-10.0142	-3.67346	0	
0.3027	-8.47807	-4.2857	0	
0.3033	-7.56232	-4.2857	0	
0.3040	-4.51967	-3.67346	0	
0.3047	-2.06782	-1.83673	0	
0.3053	-0.236323	0.278292	0	
0.3060	3.72208	-0.333951	0	
0.3067	10.1323	-2.75509	0	
0.3073	16.2472	-3.36734	0	
0.3080	18.9944	-2.14285	0	
0.3087	20.2056	-2.75509	0	
0.3093	19.6148	-2.14285	0	
0.3100	15.3314	2.72726	0	
0.3107	12.2888	3.95175	0	
0.3113	13.4999	0.890535	0	
0.3120	14.4157	0.890535	0	
0.3127	12.2888	0.584414	0	
0.3133	10.1323	-3.97958	0	
0.3140	7.38508	-4.59182	0	
0.3147	0.97483	-2.14285	0	
0.3153	-3.27898	-2.14285	0	
0.3160	-5.11047	-1.53061	0	
0.3167	-16.7198	0.584414	0	
0.3173	-33.7941	0.890535	0	
0.3180	-38.0775	2.11502	0	
0.3187	-31.3718	3.33951	0	
0.3193	-27.3839	1.50278	0	
0.3200	-24.9616	0.278292	0	
0.3207	-19.4671	1.19666	0	
0.3213	-15.8041	1.19666	0	
0.3220	-13.0568	0.890535	0	
0.3227	-6.94197	1.50278	0	
0.3233	1.89058	1.8089	0	
0.3240	14.7111	2.72726	0	
0.3247	29.3631	3.33951	0	
0.3253	33.6464	1.8089	0	
0.3260	27.2362	0.584414	0	
0.3267	25.7001	-0.0278292	0	
0.3273	29.9834	-1.22449	0	
0.3280	29.9834	-2.14285	0	
0.3287	25.7001	-2.14285	0	
0.3293	22.6574	-2.75509	0	
0.3300	18.699	-3.67346	0	
0.3307	13.2045	-2.14285	0	
0.3313	7.38508	0.890535	0	
0.3320	3.42668	0.890535	0	
0.3327	2.51093	-0.918365	0	
0.3333	1.59518	0.584414	0	
0.3340	-2.06782	1.50278	0	
0.3347	-3.89932	-0.918365	0	
0.3353	-5.11047	-0.333951	0	
0.3360	-8.47807	2.72726	0	
0.3367	-12.4365	2.72726	0	
0.3373	-18.8467	3.64563	0	
0.3380	-30.4561	4.87012	0	
0.3387	-37.1617	3.03339	0	
0.3393	-34.7099	1.8089	0	
0.3400	-32.2876	3.03339	0	
0.3407	-30.4561	2.11502	0	
0.3413	-23.4255	0.890535	0	
0.3420	-17.931	0.278292	0	
0.3427	-14.8883	-1.83673	0	
0.3433	-8.47807	-3.36734	0	
0.3440	-4.51967	-1.83673	0	
0.3447	-2.06782	-0.612243	0	
0.3453	5.87852	-2.44897	0	
0.3460	18.3741	-5.20407	0	
0.3467	35.4779	-5.51019	0	
0.3473	59.8782	-3.97958	0	
0.3480	72.4033	-4.89795	0	
0.3487	60.2032	-5.81631	0	
0.3493	42.479	-2.75509	0	
0.3500	32.1103	-0.612243	0	
0.3507	20.8259	-3.06122	0	
0.3513	9.83693	-5.51019	0	
0.3520	7.08968	-6.42855	0	
0.3527	5.55358	-4.2857	0	
0.3533	-0.856669	-0.333951	0	
0.3540	-7.26692	0.890535	0	
0.3547	-8.47807	-1.22449	0	
0.3553	-5.43542	-1.83673	0	
0.3560	-4.81507	-1.53061	0	
0.3567	-11.2253	-0.918365	0	
0.3573	-18.8467	0.584414	0	
0.3580	-19.4671	1.19666	0	
0.3587	-15.5087	1.8089	0	
0.3593	-12.4365	3.03339	0	
0.3600	-9.68922	2.11502	0	
0.3607	-6.64657	0.584414	0	
0.3613	-6.35117	1.8089	0	
0.3620	-7.56232	3.64563	0	
0.3627	-5.11047	3.03339	0	
0.3633	0.0590806	1.50278	0	
0.3640	3.42668	1.8089	0	
0.3647	5.87852	2.72726	0	
0.3653	8.92118	0.278292	0	
0.3660	13.4999	-3.36734	0	
0.3667	19.9102	-3.67346	0	
0.3673	24.4889	-1.83673	0	
0.3680	24.1935	-0.612243	0	
0.3687	21.1213	-0.918365	0	
0.3693	17.4583	-2.44897	0	
0.3700	11.9638	-3.67346	0	
0.3707	4.34243	-3.67346	0	
0.3713	-3.60392	-2.14285	0	
0.3720	-6.64657	-0.0278292	0	
0.3727	-3.60392	2.42114	0	
0.3733	-2.98357	2.42114	0	
0.3740	-5.73082	0.278292	0	
0.3747	-4.81507	0.278292	0	
0.3753	-5.43542	1.19666	0	
0.3760	-10.3096	2.11502	0	
0.3767	-14.268	5.48236	0	
0.3773	-19.4671	7.93133	0	
0.3780	-23.7209	6.70685	0	
0.3787	-22.2143	7.01297	0	
0.3793	-20.0579	9.12799	0	
0.3800	-20.0579	7.31909	0	
0.3807	-15.5087	4.87012	0	
0.3813	-8.47807	6.70685	0	
0.3820	-5.11047	6.70685	0	
0.3827	-2.06782	1.50278	0	
0.3833	1.59518	-3.06122	0	
0.3840	2.80633	-4.2857	0	
0.3847	3.42668	-3.67346	0	
0.3853	4.63783	-2.75509	0	
0.3860	6.17393	-1.83673	0	
0.3867	9.83693	-1.53061	0	
0.3873	14.7111	-0.333951	0	
0.3880	18.9944	-1.83673	0	
0.3887	18.0787	-3.97958	0	
0.3893	14.7111	-3.06122	0	
0.3900	13.4999	0.890535	0	
0.3907	13.4999	3.64563	0	
0.3913	10.7527	2.72726	0	
0.3920	8.00543	-0.0278292	0	
0.3927	3.72208	-0.0278292	0	
0.3933	-3.60392	1.19666	0	
0.3940	-9.68922	-0.918365	0	
0.3947	-14.8883	-1.83673	0	
0.3953	-20.9736	1.8089	0	
0.3960	-24.3412	3.03339	0	
0.3967	-24.0458	2.72726	0	
0.3973	-24.9616	3.64563	0	
0.3980	-23.7209	2.42114	0	
0.3987	-17.931	-1.83673	0	
0.3993	-12.1411	-4.89795	0	
0.4000	-9.39382	-6.42855	0	
0.4007	-7.85772	-6.42855	0	
0.4013	-6.94197	-5.51019	0	
0.4020	-7.56232	-4.2857	0	
0.4027	-7.26692	-3.67346	0	
0.4033	-0.236323	-5.20407	0	
0.4040	10.1323	-6.42855	0	
0.4047	12.8796	-2.75509	0	
0.4053	7.08968	-0.333951	0	
0.4060	6.17393	-4.59182	0	
0.4067	12.5842	-7.34692	0	
0.4073	18.699	-6.73467	0	
0.4080	21.7417	-8.26528	0	
0.4087	21.7417	-8.26528	0	
0.4093	17.1629	-5.51019	0	
0.4100	7.71002	-5.51019	0	
0.4107	-4.81507	-5.51019	0	
0.4113	-16.3949	-2.75509	0	
0.4120	-23.7209	-0.333951	0	
0.4127	-26.7931	-0.918365	0	
0.4133	-29.2154	-1.53061	0	
0.4140	-31.6672	-1.53061	0	
0.4147	-31.9626	-0.918365	0	
0.4153	-28.2996	-0.0278292	0	
0.4160	-24.0458	1.8089	0	
0.4167	-24.3412	4.56399	0	
0.4173	-24.9616	5.48236	0	
0.4180	-14.268	4.56399	0	
0.4187	6.79427	3.64563	0	
0.4193	29.9834	3.64563	0	
0.4200	47.9735	4.25787	0	
0.4207	53.7929	4.87012	0	
0.4213	43.7197	2.72726	0	
0.4220	27.5316	-0.918365	0	
0.4227	17.4583	-1.53061	0	
0.4233	12.8796	-1.22449	0	
0.4240	9.83693	-4.89795	0	
0.4247	8.62577	-7.0408	0	
0.4253	7.71002	-3.67346	0	
0.4260	8.00543	-3.36734	0	
0.4267	14.1203	-7.34692	0	
0.4273	20.5305	-8.26528	0	
0.4280	19.9102	-7.34692	0	
0.4287	15.9518	-9.46194	0	
0.4293	15.3314	-11.6048	0	
0.4300	13.4999	-10.6864	0	
0.4307	6.17393	-6.73467	0	
0.4313	-1.15207	-1.53061	0	
0.4320	-5.11047	1.50278	0	
0.4327	-6.64657	1.19666	0	
0.4333	-7.56232	2.72726	0	
0.4340	-11.8457	4.25787	0	
0.4347	-18.2264	0.584414	0	
0.4353	-19.4671	-3.67346	0	
0.4360	-18.2264	-2.44897	0	
0.4367	-23.7209	0.890535	0	
0.4373	-29.5403	1.8089	0	
0.4380	-28.2996	2.72726	0	
0.4387	-25.5524	2.72726	0	
0.4393	-23.1301	0.584414	0	
0.4400	-18.5513	-1.22449	0	
0.4407	-15.8041	-1.83673	0	
0.4413	-14.8883	-3.67346	0	
0.4420	-9.39382	-5.51019	0	
0.4427	-3.60392	-5.20407	0	
0.4433	-2.36323	-5.20407	0	
0.4440	-0.856669	-7.65304	0	
0.4447	2.21552	-9.76806	0	
0.4453	3.72208	-8.26528	0	
0.4460	7.71002	-4.59182	0	
0.4467	13.7953	-3.06122	0	
0.4473	17.4583	-3.36734	0	
0.4480	19.6148	-1.22449	0	
0.4487	19.9102	0.890535	0	
0.4493	16.5426	-0.333951	0	
0.4500	11.6684	-0.918365	0	
0.4507	4.04702	0.890535	0	
0.4513	-5.43542	2.72726	0	
0.4520	-7.56232	3.64563	0	
0.4527	-2.98357	4.87012	0	
0.4533	-4.51967	4.87012	0	
0.4540	-9.09842	5.48236	0	
0.4547	-7.56232	10.3525	0	
0.4553	-4.81507	14.6382	0	
0.4560	-8.47807	13.4137	0	
0.4567	-13.0568	10.3525	0	
0.4573	-15.1837	9.12799	0	
0.4580	-14.268	7.31909	0	
0.4587	-12.1411	6.70685	0	
0.4593	-10.605	9.12799	0	
0.4600	-10.3096	8.54357	0	
0.4607	-9.68922	3.64563	0	
0.4613	-10.605	1.8089	0	
0.4620	-10.3096	1.8089	0	
0.4627	-6.94197	0.278292	0	
0.4633	-4.19473	0.584414	0	
0.4640	-2.98357	1.50278	0	
0.4647	-1.15207	-1.83673	0	
0.4653	1.29977	-3.97958	0	
0.4660	4.34243	-2.75509	0	
0.4667	11.0481	-2.75509	0	
0.4673	19.9102	-3.06122	0	
0.4680	23.5732	-0.0278292	0	
0.4687	20.8259	2.42114	0	
0.4693	16.5426	0.890535	0	
0.4700	14.4157	0.890535	0	
0.4707	14.1203	2.42114	0	
0.4713	11.373	0.890535	0	
0.4720	3.13127	0.890535	0	
0.4727	-2.98357	2.72726	0	
0.4733	-2.06782	0.890535	0	
0.4740	-4.19473	-0.612243	0	
0.4747	-10.9299	2.42114	0	
0.4753	-12.1411	3.03339	0	
0.4760	-10.0142	1.8089	0	
0.4767	-14.268	4.56399	0	
0.4773	-20.0579	7.31909	0	
0.4780	-20.6782	6.0946	0	
0.4787	-18.5513	6.40072	0	
0.4793	-16.7198	9.12799	0	
0.4800	-16.0995	8.54357	0	
0.4807	-15.5087	5.48236	0	
0.4813	-12.4365	3.64563	0	
0.4820	-7.56232	3.95175	0	
0.4827	-1.15207	5.17624	0	
0.4833	6.17393	2.72726	0	
0.4840	10.4573	-1.83673	0	
0.4847	8.62577	-1.83673	0	
0.4853	5.87852	-0.0278292	0	
0.4860	9.54152	-3.06122	0	
0.4867	18.9944	-7.34692	0	
0.4873	26.3204	-7.0408	0	
0.4880	27.2362	-6.12243	0	
0.4887	25.4047	-6.42855	0	
0.4893	22.0371	-5.51019	0	
0.4900	18.0787	-3.67346	0	
0.4907	13.7953	-2.75509	0	
0.4913	9.54152	-1.83673	0	
0.4920	5.25818	0.584414	0	
0.4927	2.21552	3.64563	0	
0.4933	-2.06782	3.33951	0	
0.4940	-6.94197	2.11502	0	
0.4947	-8.18267	4.87012	0	
0.4953	-6.64657	6.0946	0	
0.4960	-9.09842	2.72726	0	
0.4967	-15.8041	3.33951	0	
0.4973	-23.7209	7.62521	0	
0.4980	-30.1311	6.40072	0	
0.4987	-32.583	3.03339	0	
0.4993	-31.6672	4.56399	0	
0.5000	-26.7931	3.95175	0	
0.5007	-20.3828	0.278292	0	
0.5013	-17.6356	-0.612243	0	
0.5020	-14.268	0.890535	0	
0.5027	-7.26692	1.50278	0	
0.5033	-3.89932	-0.0278292	0	
0.5040	-2.36323	-1.83673	0	
0.5047	3.42668	-0.918365	0	
0.5053	10.1323	-0.918365	0	
0.5060	21.1213	-5.51019	0	
0.5067	40.0567	-8.26528	0	
0.5073	48.5938	-5.81631	0	
0.5080	37.3094	-4.89795	0	
0.5087	23.8686	-6.73467	0	
0.5093	18.699	-5.81631	0	
0.5100	13.2045	-3.67346	0	
0.5107	6.17393	-3.06122	0	
0.5113	3.42668	-0.918365	0	
0.5120	5.25818	1.50278	0	
0.5127	7.71002	0.278292	0	
0.5133	11.373	-2.44897	0	
0.5140	16.2472	-3.67346	0	
0.5147	18.699	-3.67346	0	
0.5153	16.2472	-2.75509	0	
0.5160	7.08968	-1.53061	0	
0.5167	-6.02622	-0.918365	0	
0.5173	-15.1837	-0.0278292	0	
0.5180	-16.0995	3.03339	0	
0.5187	-15.8041	6.40072	0	
0.5193	-16.0995	6.0946	0	
0.5200	-12.7614	3.33951	0	
0.5207	-7.56232	1.8089	0	
0.5213	-4.81507	0.890535	0	
0.5220	-2.06782	-0.612243	0	
0.5227	0.0590806	0.584414	0	
0.5233	2.80633	0.890535	0	
0.5240	7.71002	-3.67346	0	
0.5247	9.21658	-5.51019	0	
0.5253	7.71002	-2.75509	0	
0.5260	9.83693	-3.97958	0	
0.5267	14.4157	-8.26528	0	
0.5273	16.5426	-7.0408	0	
0.5280	18.9944	-6.12243	0	
0.5287	21.7417	-7.34692	0	
0.5293	19.6148	-4.59182	0	
0.5300	14.1203	0.278292	0	
0.5307	8.92118	1.8089	0	
0.5313	4.96277	2.42114	0	
0.5320	2.51093	0.890535	0	
0.5327	-0.236323	-1.53061	0	
0.5333	-5.43542	0.278292	0	
0.5340	-12.4365	2.72726	0	
0.5347	-17.6356	1.8089	0	
0.5353	-17.0152	1.8089	0	
0.5360	-13.0568	0.890535	0	
0.5367	-13.9726	-1.22449	0	
0.5373	-19.4671	1.8089	0	
0.5380	-24.3412	5.48236	0	
0.5387	-25.8773	2.72726	0	
0.5393	-22.5097	0.278292	0	
0.5400	-16.3949	2.11502	0	
0.5407	-10.9299	2.72726	0	
0.5413	-8.18267	1.19666	0	
0.5420	-7.56232	-0.612243	0	
0.5427	-5.73082	-2.44897	0	
0.5433	-2.06782	-3.06122	0	
0.5440	1.29977	-2.75509	0	
0.5447	4.04702	-2.75509	0	
0.5453	8.00543	-3.67346	0	
0.5460	11.373	-4.89795	0	
0.5467	17.4583	-6.42855	0	
0.5473	25.9955	-5.51019	0	
0.5480	25.9955	-4.2857	0	
0.5487	21.7417	-5.20407	0	
0.5493	21.7417	-5.51019	0	
0.5500	18.0787	-2.75509	0	
0.5507	8.30083	-0.333951	0	
0.5513	1.59518	-1.22449	0	
0.5520	-4.19473	-0.0278292	0	
0.5527	-7.85772	4.56399	0	
0.5533	-1.77242	7.01297	0	
0.5540	2.51093	5.78848	0	
0.5547	-4.81507	5.48236	0	
0.5553	-13.3522	5.17624	0	
0.5560	-19.4671	3.95175	0	
0.5567	-28.6246	2.72726	0	
0.5573	-31.9626	1.19666	0	
0.5580	-25.5524	0.278292	0	
0.5587	-19.1421	-0.0278292	0	
0.5593	-16.7198	-0.333951	0	
0.5600	-12.7614	-0.918365	0	
0.5607	-8.47807	-2.14285	0	
0.5613	-6.64657	-3.36734	0	
0.5620	-4.19473	-3.36734	0	
0.5627	-1.44748	-3.67346	0	
0.5633	-1.15207	-3.06122	0	
0.5640	-1.77242	-0.612243	0	
0.5647	-0.531726	-1.53061	0	
0.5653	1.59518	-5.81631	0	
0.5660	3.42668	-7.0408	0	
0.5667	6.79427	-3.67346	0	
0.5673	11.0481	-3.06122	0	
0.5680	13.7953	-4.59182	0	
0.5687	16.2472	-3.06122	0	
0.5693	18.9944	1.8089	0	
0.5700	16.8675	3.33951	0	
0.5707	9.83693	0.890535	0	
0.5713	3.42668	0.890535	0	
0.5720	0.679427	3.03339	0	
0.5727	-1.77242	3.64563	0	
0.5733	-2.98357	4.56399	0	
0.5740	-4.81507	4.56399	0	
0.5747	-6.64657	0.890535	0	
0.5753	-6.64657	-0.918365	0	
0.5760	-7.56232	-0.0278292	0	
0.5767	-13.9726	-1.83673	0	
0.5773	-20.0579	-4.59182	0	
0.5780	-20.6782	-3.67346	0	
0.5787	-20.6782	-2.44897	0	
0.5793	-20.3828	-3.67346	0	
0.5800	-17.3106	-3.06122	0	
0.5807	-14.8883	-0.0278292	0	
0.5813	-12.1411	0.278292	0	
0.5820	-6.64657	-0.918365	0	
0.5827	-4.19473	0.584414	0	
0.5833	-4.19473	1.8089	0	
0.5840	-0.531726	-0.333951	0	
0.5847	1.59518	-0.333951	0	
0.5853	-3.89932	3.33951	0	
0.5860	-8.77347	3.64563	0	
0.5867	-6.64657	0.278292	0	
0.5873	-2.98357	-3.97958	0	
0.5880	-4.81507	-8.26528	0	
0.5887	-10.605	-7.34692	0	
0.5893	-16.7198	-3.67346	0	
0.5900	-24.0458	-3.06122	0	
0.5907	-31.9626	-3.97958	0	
0.5913	-33.2033	-2.75509	0	
0.5920	-23.1301	-2.14285	0	
0.5927	-0.236323	-3.36734	0	
0.5933	33.6464	-3.36734	0	
0.5940	64.457	-2.14285	0	
0.5947	66.9088	0.584414	0	
0.5953	44.9308	3.64563	0	
0.5960	25.0797	2.72726	0	
0.5967	15.036	1.19666	0	
0.5973	6.17393	3.95175	0	
0.5980	0.679427	6.40072	0	
0.5987	1.59518	4.87012	0	
0.5993	2.80633	4.25787	0	
0.6000	1.29977	4.56399	0	
0.6007	1.29977	2.11502	0	
0.6013	1.29977	-0.612243	0	
0.6020	-1.77242	0.584414	0	
0.6027	-1.77242	0.890535	0	
0.6033	1.89058	-1.53061	0	
0.6040	3.13127	-1.83673	0	
0.6047	4.34243	0.890535	0	
0.6053	8.92118	3.33951	0	
0.6060	14.4157	2.72726	0	
0.6067	20.8259	1.19666	0	
0.6073	29.0677	1.19666	0	
0.6080	31.8149	0.890535	0	
0.6087	27.5316	-0.612243	0	
0.6093	21.1213	-0.333951	0	
0.6100	12.5842	1.19666	0	
0.6107	5.55358	2.11502	0	
0.6113	4.34243	2.72726	0	
0.6120	3.42668	1.8089	0	
0.6127	-1.15207	-0.0278292	0	
0.6133	-5.43542	0.890535	0	
0.6140	-9.09842	2.72726	0	
0.6147	-12.4365	2.11502	0	
0.6153	-11.8457	0.584414	0	
0.6160	-11.8457	0.278292	0	
0.6167	-19.4671	0.584414	0	
0.6173	-27.7088	-0.0278292	0	
0.6180	-30.4561	-0.0278292	0	
0.6187	-29.2154	0.278292	0	
0.6193	-24.9616	1.19666	0	
0.6200	-18.2264	1.50278	0	
0.6207	-12.1411	1.19666	0	
0.6213	-7.26692	-0.0278292	0	
0.6220	-2.98357	-1.53061	0	
0.6227	-1.15207	-0.0278292	0	
0.6233	0.384024	1.50278	0	
0.6240	2.51093	-0.333951	0	
0.6247	4.34243	-0.0278292	0	
0.6253	8.00543	1.8089	0	
0.6260	12.8796	-0.918365	0	
0.6267	18.9944	-2.75509	0	
0.6273	22.9528	-1.22449	0	
0.6280	22.9528	-2.14285	0	
0.6287	19.9102	-5.20407	0	
0.6293	16.5426	-5.51019	0	
0.6300	13.2045	-4.59182	0	
0.6307	8.00543	-2.44897	0	
0.6313	0.679427	-0.918365	0	
0.6320	-6.35117	-1.22449	0	
0.6327	-10.3096	-0.918365	0	
0.6333	-10.9299	0.278292	0	
0.6340	-12.7614	0.890535	0	
0.6347	-14.8883	2.72726	0	
0.6353	-16.0995	4.56399	0	
0.6360	-18.2264	3.64563	0	
0.6367	-21.8894	2.42114	0	
0.6373	-27.0885	4.56399	0	
0.6380	-31.0469	6.0946	0	
0.6387	-28.92	5.17624	0	
0.6393	-22.2143	4.56399	0	
0.6400	-15.5087	3.64563	0	
0.6407	-12.1411	0.890535	0	
0.6413	-10.9299	-0.333951	0	
0.6420	-7.26692	0.890535	0	
0.6427	0.679427	0.584414	0	
0.6433	6.17393	-0.918365	0	
0.6440	7.08968	-0.0278292	0	
0.6447	8.00543	2.11502	0	
0.6453	9.83693	1.50278	0	
0.6460	13.2045	-1.53061	0	
0.6467	17.7833	-3.97958	0	
0.6473	17.4583	-3.67346	0	
0.6480	14.7111	-1.83673	0	
0.6487	13.7953	-0.918365	0	
0.6493	8.92118	-0.612243	0	
0.6500	2.21552	0.278292	0	
0.6507	2.51093	-0.0278292	0	
0.6513	4.96277	-0.0278292	0	
0.6520	3.72208	2.42114	0	
0.6527	2.51093	3.33951	0	
0.6533	1.59518	3.64563	0	
0.6540	-1.15207	5.78848	0	
0.6547	-1.44748	6.40072	0	
0.6553	-1.77242	4.56399	0	
0.6560	-6.64657	3.95175	0	
0.6567	-14.8883	5.48236	0	
0.6573	-19.4671	5.78848	0	
0.6580	-19.1421	3.33951	0	
0.6587	-16.7198	-1.22449	0	
0.6593	-14.268	-1.83673	0	
0.6600	-9.68922	1.50278	0	
0.6607	-3.89932	1.19666	0	
0.6613	0.0590806	-1.53061	0	
0.6620	2.21552	-1.53061	0	
0.6627	4.04702	-0.0278292	0	
0.6633	5.87852	-0.0278292	0	
0.6640	5.87852	-0.918365	0	
0.6647	4.34243	-1.83673	0	
0.6653	2.51093	-2.75509	0	
0.6660	2.51093	-3.67346	0	
0.6667	4.63783	-4.89795	0	
0.6673	11.9638	-6.12243	0	
0.6680	20.2056	-5.81631	0	
0.6687	21.1213	-5.20407	0	
0.6693	16.2472	-5.51019	0	
0.6700	13.7953	-5.20407	0	
0.6707	12.5842	-4.89795	0	
0.6713	7.71002	-4.89795	0	
0.6720	4.04702	-4.59182	0	
0.6727	3.13127	-3.36734	0	
0.6733	-0.531726	-1.83673	0	
0.6740	-4.81507	-3.67346	0	
0.6747	-4.81507	-6.42855	0	
0.6753	-3.89932	-2.75509	0	
0.6760	-6.64657	1.8089	0	
0.6767	-13.6772	-0.333951	0	
0.6773	-23.7209	-0.0278292	0	
0.6780	-27.3839	3.33951	0	
0.6787	-20.9736	-0.0278292	0	
0.6793	-15.8041	-3.97958	0	
0.6800	-13.9726	-2.44897	0	
0.6807	-9.39382	-0.612243	0	
0.6813	-7.56232	-0.612243	0	
0.6820	-6.94197	1.8089	0	
0.6827	-1.77242	3.33951	0	
0.6833	0.97483	1.19666	0	
0.6840	0.384024	-0.918365	0	
0.6847	4.04702	-3.06122	0	
0.6853	7.08968	-4.59182	0	
0.6860	8.00543	-4.2857	0	
0.6867	14.4157	-5.20407	0	
0.6873	21.7417	-7.34692	0	
0.6880	22.0371	-6.42855	0	
0.6887	21.7417	-4.2857	0	
0.6893	21.4463	-3.67346	0	
0.6900	16.8675	-2.14285	0	
0.6907	11.373	1.50278	0	
0.6913	6.79427	2.72726	0	
0.6920	2.80633	1.19666	0	
0.6927	1.89058	2.11502	0	
0.6933	1.59518	5.78848	0	
0.6940	-1.15207	7.01297	0	
0.6947	-2.36323	6.40072	0	
0.6953	-0.856669	5.48236	0	
0.6960	-2.98357	2.72726	0	
0.6967	-11.2253	1.19666	0	
0.6973	-17.931	2.72726	0	
0.6980	-18.5513	2.72726	0	
0.6987	-17.0152	-0.0278292	0	
0.6993	-17.6356	-3.67346	0	
0.7000	-16.7198	-3.97958	0	
0.7007	-14.268	0.584414	0	
0.7013	-16.3949	0.890535	0	
0.7020	-22.8051	-3.67346	0	
0.7027	-27.3839	0.890535	0	
0.7033	-28.6246	10.3525	0	
0.7040	-27.7088	6.40072	0	
0.7047	-25.8773	0.584414	0	
0.7053	-24.9616	2.11502	0	
0.7060	-25.257	-1.83673	0	
0.7067	-23.7209	-8.26528	0	
0.7073	-16.7198	-4.89795	0	
0.7080	-2.36323	-2.14285	0	
0.7087	20.8259	-4.59182	0	
0.7093	52.5522	-3.36734	0	
0.7100	77.5729	0.584414	0	
0.7107	72.0784	1.19666	0	
0.7113	41.2678	3.33951	0	
0.7120	18.0787	4.87012	0	
0.7127	12.5842	1.8089	0	
0.7133	8.30083	2.11502	0	
0.7140	2.51093	5.17624	0	
0.7147	0.679427	1.19666	0	
0.7153	0.679427	-3.97958	0	
0.7160	-2.98357	-1.83673	0	
0.7167	-9.39382	3.95175	0	
0.7173	-14.8883	6.40072	0	
0.7180	-15.5087	6.40072	0	
0.7187	-13.9726	4.56399	0	
0.7193	-13.9726	2.11502	0	
0.7200	-12.1411	2.11502	0	
0.7207	-7.85772	2.72726	0	
0.7213	-2.06782	1.8089	0	
0.7220	1.59518	-0.0278292	0	
0.7227	1.59518	-0.0278292	0	
0.7233	2.80633	1.8089	0	
0.7240	5.55358	0.890535	0	
0.7247	3.13127	-0.918365	0	
0.7253	2.51093	-1.83673	0	
0.7260	14.1203	-3.36734	0	
0.7267	29.0677	-4.59182	0	
0.7273	34.5622	-3.97958	0	
0.7280	29.9834	-4.89795	0	
0.7287	21.4463	-6.73467	0	
0.7293	16.5426	-6.42855	0	
0.7300	15.3314	-7.95916	0	
0.7307	12.5842	-8.87753	0	
0.7313	8.00543	-4.59182	0	
0.7320	3.42668	-1.83673	0	
0.7327	0.0590806	-3.06122	0	
0.7333	-1.15207	-1.83673	0	
0.7340	-2.36323	-0.0278292	0	
0.7347	-6.64657	-2.14285	0	
0.7353	-8.47807	-2.75509	0	
0.7360	-8.77347	-0.333951	0	
0.7367	-13.0568	-0.333951	0	
0.7373	-19.1421	-0.0278292	0	
0.7380	-21.594	2.72726	0	
0.7387	-20.0579	2.72726	0	
0.7393	-13.9726	-0.0278292	0	
0.7400	-9.09842	-0.918365	0	
0.7407	-8.77347	0.890535	0	
0.7413	-7.26692	0.278292	0	
0.7420	-1.77242	-3.06122	0	
0.7427	2.51093	-4.59182	0	
0.7433	4.04702	-4.2857	0	
0.7440	5.55358	-3.97958	0	
0.7447	7.08968	-6.12243	0	
0.7453	8.62577	-7.34692	0	
0.7460	10.4573	-6.12243	0	
0.7467	15.6268	-6.12243	0	
0.7473	22.6574	-7.65304	0	
0.7480	21.7417	-4.2857	0	
0.7487	14.4157	0.584414	0	
0.7493	10.7527	-0.612243	0	
0.7500	10.1323	-3.06122	0	
0.7507	6.17393	-0.333951	0	
0.7513	0.0590806	0.278292	0	
0.7520	-3.89932	-2.75509	0	
0.7527	-5.11047	-1.83673	0	
0.7533	-6.02622	2.42114	0	
0.7540	-9.39382	5.48236	0	
0.7547	-10.9299	6.40072	0	
0.7553	-10.3096	4.56399	0	
0.7560	-14.8883	1.8089	0	
0.7567	-22.2143	2.72726	0	
0.7573	-24.9616	4.56399	0	
0.7580	-24.6366	5.17624	0	
0.7587	-24.0458	5.48236	0	
0.7593	-22.2143	3.95175	0	
0.7600	-19.7625	1.50278	0	
0.7607	-17.0152	2.11502	0	
0.7613	-14.268	3.03339	0	
0.7620	-12.4365	0.890535	0	
0.7627	-9.68922	0.584414	0	
0.7633	-4.51967	0.584414	0	
0.7640	-0.856669	-2.44897	0	
0.7647	0.97483	-3.97958	0	
0.7653	2.80633	-2.75509	0	
0.7660	4.63783	-2.75509	0	
0.7667	10.4573	-3.36734	0	
0.7673	18.9944	-0.918365	0	
0.7680	20.5305	0.584414	0	
0.7687	17.4583	-0.918365	0	
0.7693	18.0787	-2.75509	0	
0.7700	16.2472	-2.75509	0	
0.7707	12.2888	-2.14285	0	
0.7713	10.7527	-0.918365	0	
0.7720	8.30083	0.584414	0	
0.7727	3.13127	0.584414	0	
0.7733	-0.531726	-0.0278292	0	
0.7740	-4.51967	-0.918365	0	
0.7747	-7.56232	-1.83673	0	
0.7753	-10.3096	-1.22449	0	
0.7760	-18.5513	0.890535	0	
0.7767	-27.7088	2.72726	0	
0.7773	-27.0885	3.64563	0	
0.7780	-23.1301	5.48236	0	
0.7787	-20.3828	5.17624	0	
0.7793	-14.268	3.33951	0	
0.7800	-8.18267	3.33951	0	
0.7807	-6.02622	2.72726	0	
0.7813	-2.06782	0.584414	0	
0.7820	3.13127	1.50278	0	
0.7827	4.34243	3.33951	0	
0.7833	4.63783	1.19666	0	
0.7840	5.55358	-0.333951	0	
0.7847	2.80633	-0.0278292	0	
0.7853	0.97483	-1.53061	0	
0.7860	4.34243	-1.83673	0	
0.7867	11.0481	-1.22449	0	
0.7873	17.4583	-4.59182	0	
0.7880	17.1629	-5.81631	0	
0.7887	11.0481	-2.14285	0	
0.7893	9.83693	-1.53061	0	
0.7900	12.2888	-3.97958	0	
0.7907	8.92118	-2.75509	0	
0.7913	4.04702	-0.333951	0	
0.7920	2.21552	1.19666	0	
0.7927	-1.44748	3.95175	0	
0.7933	-5.73082	4.56399	0	
0.7940	-5.73082	2.42114	0	
0.7947	-4.81507	1.50278	0	
0.7953	-6.64657	-0.0278292	0	
0.7960	-11.2253	-0.918365	0	
0.7967	-17.931	2.11502	0	
0.7973	-22.2143	4.56399	0	
0.7980	-22.2143	4.25787	0	
0.7987	-19.4671	4.87012	0	
0.7993	-14.8883	5.48236	0	
0.8000	-8.77347	4.87012	0	
0.8007	-4.51967	3.33951	0	
0.8013	-2.98357	1.50278	0	
0.8020	-1.15207	1.8089	0	
0.8027	0.97483	3.64563	0	
0.8033	2.51093	3.64563	0	
0.8040	4.34243	3.03339	0	
0.8047	7.08968	2.42114	0	
0.8053	7.08968	-0.918365	0	
0.8060	8.62577	-3.36734	0	
0.8067	16.8675	-3.67346	0	
0.8073	25.0797	-4.89795	0	
0.8080	24.7843	-4.89795	0	
0.8087	22.362	-2.75509	0	
0.8093	21.1213	-1.83673	0	
0.8100	15.6268	-1.83673	0	
0.8107	9.54152	-0.0278292	0	
0.8113	8.62577	2.72726	0	
0.8120	5.25818	5.17624	0	
0.8127	-2.98357	3.64563	0	
0.8133	-6.94197	3.33951	0	
0.8140	-6.94197	8.23745	0	
0.8147	-8.47807	10.9647	0	
0.8153	-8.77347	7.31909	0	
0.8160	-10.3096	5.17624	0	
0.8167	-15.8041	5.78848	0	
0.8173	-17.3106	3.95175	0	
0.8180	-12.1411	1.50278	0	
0.8187	-10.3096	-0.0278292	0	
0.8193	-10.9299	-4.2857	0	
0.8200	-6.94197	-6.73467	0	
0.8207	-2.06782	-3.36734	0	
0.8213	-0.236323	-0.333951	0	
0.8220	1.89058	-2.75509	0	
0.8227	4.34243	-4.2857	0	
0.8233	8.00543	-3.67346	0	
0.8240	13.2045	-4.2857	0	
0.8247	14.7111	-6.12243	0	
0.8253	12.5842	-5.20407	0	
0.8260	16.8675	-3.97958	0	
0.8267	25.9955	-4.59182	0	
0.8273	29.3631	-6.42855	0	
0.8280	25.9955	-7.65304	0	
0.8287	20.2056	-8.26528	0	
0.8293	13.4999	-6.42855	0	
0.8300	4.96277	-3.06122	0	
0.8307	-4.19473	-0.918365	0	
0.8313	-10.3096	-0.918365	0	
0.8320	-9.39382	0.584414	0	
0.8327	-6.64657	4.25787	0	
0.8333	-6.02622	5.48236	0	
0.8340	-6.02622	3.64563	0	
0.8347	-6.64657	2.72726	0	
0.8353	-9.68922	4.25787	0	
0.8360	-13.0568	5.17624	0	
0.8367	-15.5087	4.25787	0	
0.8373	-18.5513	3.95175	0	
0.8380	-22.2143	5.48236	0	
0.8387	-23.1301	4.56399	0	
0.8393	-20.0579	0.584414	0	
0.8400	-16.7198	-0.333951	0	
0.8407	-15.8041	2.72726	0	
0.8413	-13.6772	1.8089	0	
0.8420	-7.85772	-2.44897	0	
0.8427	-2.68817	-1.83673	0	
0.8433	0.679427	1.19666	0	
0.8440	2.51093	-0.0278292	0	
0.8447	1.89058	-1.22449	0	
0.8453	2.51093	0.278292	0	
0.8460	7.38508	-0.918365	0	
0.8467	15.3314	-3.67346	0	
0.8473	20.8259	-2.14285	0	
0.8480	20.8259	-1.53061	0	
0.8487	19.2898	-3.67346	0	
0.8493	18.3741	-5.20407	0	
0.8500	15.3314	-3.67346	0	
0.8507	10.1323	-1.83673	0	
0.8513	8.00543	-0.333951	0	
0.8520	6.17393	0.278292	0	
0.8527	3.13127	0.890535	0	
0.8533	2.80633	0.890535	0	
0.8540	6.79427	-0.612243	0	
0.8547	9.54152	-0.918365	0	
0.8553	3.42668	-0.0278292	0	
0.8560	-14.5929	-0.0278292	0	
0.8567	-31.9626	-0.918365	0	
0.8573	-36.8663	-1.83673	0	
0.8580	-34.1191	-1.22449	0	
0.8587	-30.4561	1.19666	0	
0.8593	-25.8773	3.33951	0	
0.8600	-22.5097	3.03339	0	
0.8607	-18.5513	1.19666	0	
0.8613	-8.18267	-2.14285	0	
0.8620	-0.856669	-3.67346	0	
0.8627	-2.68817	-2.75509	0	
0.8633	-2.06782	-3.67346	0	
0.8640	3.42668	-4.59182	0	
0.8647	6.79427	-1.22449	0	
0.8653	10.7527	-0.612243	0	
0.8660	15.9518	-4.59182	0	
0.8667	18.9944	-5.51019	0	
0.8673	22.9528	-4.2857	0	
0.8680	24.1935	-4.59182	0	
0.8687	15.9518	-3.67346	0	
0.8693	8.92118	-4.89795	0	
0.8700	7.08968	-8.26528	0	
0.8707	2.51093	-6.42855	0	
0.8713	-0.236323	-2.75509	0	
0.8720	2.51093	-3.06122	0	
0.8727	1.59518	-2.75509	0	
0.8733	-2.06782	-0.918365	0	
0.8740	-0.236323	-1.83673	0	
0.8747	0.679427	-2.75509	0	
0.8753	-0.236323	-1.83673	0	
0.8760	1.59518	-1.22449	0	
0.8767	-0.236323	-0.918365	0	
0.8773	-7.56232	0.584414	0	
0.8780	-11.2253	1.19666	0	
0.8787	-10.9299	0.890535	0	
0.8793	-9.39382	-0.0278292	0	
0.8800	-4.51967	-1.22449	0	
0.8807	1.29977	-3.36734	0	
0.8813	4.34243	-4.59182	0	
0.8820	4.63783	-3.97958	0	
0.8827	4.63783	-2.75509	0	
0.8833	7.08968	-1.83673	0	
0.8840	11.373	-0.612243	0	
0.8847	11.6684	0.890535	0	
0.8853	11.373	-2.44897	0	
0.8860	16.2472	-8.26528	0	
0.8867	23.5732	-8.26528	0	
0.8873	26.9112	-2.75509	0	
0.8880	24.7843	-1.83673	0	
0.8887	20.2056	-2.75509	0	
0.8893	16.5426	-0.612243	0	
0.8900	12.5842	0.584414	0	
0.8907	5.87852	0.890535	0	
0.8913	1.29977	3.03339	0	
0.8920	-1.15207	2.72726	0	
0.8927	-4.81507	-0.0278292	0	
0.8933	-6.64657	-0.0278292	0	
0.8940	-4.19473	2.11502	0	
0.8947	-3.89932	2.72726	0	
0.8953	-7.56232	4.56399	0	
0.8960	-10.605	7.62521	0	
0.8967	-17.6356	9.12799	0	
0.8973	-25.8773	10.0464	0	
0.8980	-25.8773	10.0464	0	
0.8987	-21.2986	7.62521	0	
0.8993	-19.7625	5.48236	0	
0.9000	-16.0995	4.25787	0	
0.9007	-10.3096	3.64563	0	
0.9013	-6.02622	3.64563	0	
0.9020	-2.98357	5.48236	0	
0.9027	0.384024	5.17624	0	
0.9033	2.51093	1.50278	0	
0.9040	4.34243	-0.612243	0	
0.9047	3.42668	1.8089	0	
0.9053	2.80633	4.25787	0	
0.9060	8.00543	1.8089	0	
0.9067	15.3314	-2.75509	0	
0.9073	18.0787	-3.67346	0	
0.9080	18.0787	-2.14285	0	
0.9087	15.9518	-3.67346	0	
0.9093	12.5842	-4.59182	0	
0.9100	8.92118	-3.67346	0	
0.9107	4.96277	-3.36734	0	
0.9113	1.89058	-3.06122	0	
0.9120	-2.36323	-1.53061	0	
0.9127	-8.77347	-2.14285	0	
0.9133	-12.4365	-3.67346	0	
0.9140	-12.7614	-3.67346	0	
0.9147	-15.8041	-3.67346	0	
0.9153	-19.7625	-3.36734	0	
0.9160	-22.2143	-0.0278292	0	
0.9167	-26.4681	1.8089	0	
0.9173	-30.4561	0.890535	0	
0.9180	-27.3839	3.64563	0	
0.9187	-19.7625	6.0946	0	
0.9193	-15.5087	2.72726	0	
0.9200	-15.8041	-0.333951	0	
0.9207	-15.5087	-0.918365	0	
0.9213	-9.09842	-4.59182	0	
0.9220	-2.06782	-7.34692	0	
0.9227	0.0590806	-4.59182	0	
0.9233	3.42668	-1.83673	0	
0.9240	7.08968	-3.67346	0	
0.9247	5.25818	-5.51019	0	
0.9253	6.17393	-5.20407	0	
0.9260	13.2045	-4.59182	0	
0.9267	18.0787	-6.12243	0	
0.9273	20.8259	-7.0408	0	
0.9280	21.1213	-5.81631	0	
0.9287	13.7953	-3.97958	0	
0.9293	5.25818	-2.14285	0	
0.9300	4.63783	1.8089	0	
0.9307	5.87852	3.33951	0	
0.9313	3.42668	0.890535	0	
0.9320	-0.856669	1.19666	0	
0.9327	-3.89932	3.95175	0	
0.9333	-4.19473	2.11502	0	
0.9340	-3.89932	1.50278	0	
0.9347	-5.43542	5.48236	0	
0.9353	-7.56232	5.78848	0	
0.9360	-11.8457	3.64563	0	
0.9367	-17.6356	4.56399	0	
0.9373	-18.8467	5.48236	0	
0.9380	-16.7198	5.17624	0	
0.9387	-15.8041	5.48236	0	
0.9393	-14.5929	5.17624	0	
0.9400	-9.39382	5.48236	0	
0.9407	-3.60392	4.56399	0	
0.9413	-0.236323	-2.14285	0	
0.9420	1.59518	-5.81631	0	
0.9427	1.59518	-3.67346	0	
0.9433	0.679427	-4.89795	0	
0.9440	2.51093	-5.51019	0	
0.9447	5.55358	-0.918365	0	
0.9453	6.46933	-0.918365	0	
0.9460	9.83693	-4.2857	0	
0.9467	17.1629	-2.75509	0	
0.9473	20.8259	-3.67346	0	
0.9480	19.9102	-5.51019	0	
0.9487	17.1629	-1.83673	0	
0.9493	10.7527	-1.22449	0	
0.9500	4.63783	-3.67346	0	
0.9507	2.21552	-0.612243	0	
0.9513	0.384024	1.8089	0	
0.9520	0.384024	-0.612243	0	
0.9527	1.29977	-0.0278292	0	
0.9533	-0.531726	0.584414	0	
0.9540	-1.44748	-2.75509	0	
0.9547	0.97483	-3.06122	0	
0.9553	-1.44748	-0.918365	0	
0.9560	-10.3096	2.72726	0	
0.9567	-17.6356	8.23745	0	
0.9573	-20.0579	9.12799	0	
0.9580	-19.4671	4.56399	0	
0.9587	-17.0152	4.25787	0	
0.9593	-14.8883	6.0946	0	
0.9600	-12.1411	4.56399	0	
0.9607	-6.94197	3.03339	0	
0.9613	-2.06782	3.33951	0	
0.9620	1.59518	3.95175	0	
0.9627	1.59518	3.03339	0	
0.9633	0.97483	1.50278	0	
0.9640	4.63783	2.42114	0	
0.9647	7.71002	5.17624	0	
0.9653	8.00543	4.56399	0	
0.9660	15.3314	1.8089	0	
0.9667	26.9112	-1.22449	0	
0.9673	27.827	-3.67346	0	
0.9680	24.4889	-4.2857	0	
0.9687	25.4047	-3.36734	0	
0.9693	21.4463	-1.83673	0	
0.9700	13.7953	-0.0278292	0	
0.9707	9.83693	2.11502	0	
0.9713	6.17393	3.03339	0	
0.9720	1.59518	1.8089	0	
0.9727	-3.60392	0.584414	0	
0.9733	-13.0568	0.890535	0	
0.9740	-21.2986	1.50278	0	
0.9747	-19.7625	-0.612243	0	
0.9753	-17.0152	-2.14285	0	
0.9760	-19.4671	-1.53061	0	
0.9767	-23.1301	-2.14285	0	
0.9773	-25.8773	-2.75509	0	
0.9780	-26.4681	-0.612243	0	
0.9787	-23.1301	0.584414	0	
0.9793	-18.5513	-0.0278292	0	
0.9800	-15.1837	0.584414	0	
0.9807	-12.7614	-0.0278292	0	
0.9813	-8.77347	-2.75509	0	
0.9820	-2.98357	-2.75509	0	
0.9827	1.89058	0.584414	0	
0.9833	2.80633	3.64563	0	
0.9840	4.96277	3.95175	0	
0.9847	7.08968	1.50278	0	
0.9853	7.08968	-2.14285	0	
0.9860	9.83693	-4.59182	0	
0.9867	17.1629	-5.20407	0	
0.9873	20.8259	-4.2857	0	
0.9880	18.9944	-5.20407	0	
0.9887	17.1629	-5.20407	0	
0.9893	15.036	-2.14285	0	
0.9900	11.6684	0.584414	0	
0.9907	7.08968	0.890535	0	
0.9913	3.13127	1.19666	0	
0.9920	0.679427	0.890535	0	
0.9927	-2.36323	-1.22449	0	
0.9933	-6.64657	-0.612243	0	
0.9940	-6.64657	0.890535	0	
0.9947	-3.89932	-0.333951	0	
0.9953	-3.89932	-1.53061	0	
0.9960	-5.43542	-2.14285	0	
0.9967	-8.18267	-2.44897	0	
0.9973	-12.1411	-1.83673	0	
0.9980	-13.0568	-2.75509	0	
0.9987	-10.9299	-2.75509	0	
0.9993	-8.18267	-0.0278292	0	
1.0000	-4.81507	-0.918365	0	
1.0007	0.679427	-7.0408	0	
1.0013	6.46933	-7.65304	0	
1.0020	9.83693	-3.67346	0	
1.0027	8.92118	-1.83673	0	
1.0033	8.92118	0.890535	0	
1.0040	11.373	1.8089	0	
1.0047	12.2888	-0.333951	0	
1.0053	12.8796	0.584414	0	
1.0060	18.0787	1.50278	0	
1.0067	23.5732	-2.44897	0	
1.0073	23.2778	-3.36734	0	
1.0080	21.7417	-1.83673	0	
1.0087	25.0797	-3.67346	0	
1.0093	27.5316	-4.2857	0	
1.0100	22.362	-2.75509	0	
1.0107	10.4573	-3.67346	0	
1.0113	0.97483	-2.44897	0	
1.0120	0.384024	1.19666	0	
1.0127	2.21552	1.8089	0	
1.0133	-1.15207	1.50278	0	
1.0140	-5.43542	1.50278	0	
1.0147	-5.43542	1.8089	0	
1.0153	-7.56232	3.95175	0	
1.0160	-15.1837	5.48236	0	
1.0167	-22.8051	5.48236	0	
1.0173	-27.7088	7.01297	0	
1.0180	-29.5403	6.70685	0	
1.0187	-27.7088	4.25787	0	
1.0193	-24.6366	3.64563	0	
1.0200	-20.3828	2.72726	0	
1.0207	-14.8883	-0.918365	0	
1.0213	-11.2253	-4.59182	0	
1.0220	-10.605	-6.42855	0	
1.0227	-9.39382	-5.51019	0	
1.0233	-6.35117	-3.67346	0	
1.0240	-2.36323	-3.67346	0	
1.0247	0.0590806	-4.2857	0	
1.0253	-2.98357	-4.59182	0	
1.0260	-6.64657	-6.42855	0	
1.0267	-2.06782	-7.95916	0	
1.0273	2.51093	-6.12243	0	
1.0280	0.97483	-5.20407	0	
1.0287	-2.98357	-5.81631	0	
1.0293	-6.64657	-3.67346	0	
1.0300	-12.1411	-2.14285	0	
1.0307	-17.3106	-1.53061	0	
1.0313	-19.7625	3.33951	0	
1.0320	-20.0579	7.31909	0	
1.0327	-17.931	4.87012	0	
1.0333	-14.5929	2.72726	0	
1.0340	-6.02622	3.03339	0	
1.0347	11.6684	1.19666	0	
1.0353	26.9112	1.8089	0	
1.0360	24.1935	7.93133	0	
1.0367	11.373	10.3525	0	
1.0373	3.13127	7.01297	0	
1.0380	1.59518	3.95175	0	
1.0387	2.80633	1.50278	0	
1.0393	6.17393	0.278292	0	
1.0400	9.54152	1.8089	0	
1.0407	9.21658	-0.0278292	0	
1.0413	7.71002	-4.89795	0	
1.0420	8.00543	-4.89795	0	
1.0427	8.30083	-2.44897	0	
1.0433	5.87852	-3.67346	0	
1.0440	6.46933	-4.2857	0	
1.0447	10.4573	-2.44897	0	
1.0453	12.5842	-3.97958	0	
1.0460	17.4583	-5.51019	0	
1.0467	25.9955	-3.06122	0	
1.0473	28.1519	-3.97958	0	
1.0480	25.4047	-8.26528	0	
1.0487	25.0797	-7.34692	0	
1.0493	23.5732	-5.51019	0	
1.0500	19.2898	-6.42855	0	
1.0507	14.1203	-3.97958	0	
1.0513	6.17393	-1.53061	0	
1.0520	0.679427	-3.97958	0	
1.0527	-0.856669	-4.89795	0	
1.0533	-3.27898	-1.22449	0	
1.0540	-5.73082	0.890535	0	
1.0547	-3.60392	1.50278	0	
1.0553	-5.73082	3.64563	0	
1.0560	-14.8883	5.48236	0	
1.0567	-22.2143	6.40072	0	
1.0573	-25.8773	6.40072	0	
1.0580	-26.7931	4.56399	0	
1.0587	-23.4255	4.56399	0	
1.0593	-19.4671	4.87012	0	
1.0600	-15.8041	0.584414	0	
1.0607	-11.5207	-3.67346	0	
1.0613	-9.39382	-1.53061	0	
1.0620	-7.56232	0.890535	0	
1.0627	-3.89932	-0.918365	0	
1.0633	-0.856669	-2.44897	0	
1.0640	0.384024	-1.53061	0	
1.0647	0.0590806	-2.44897	0	
1.0653	2.21552	-4.2857	0	
1.0660	8.92118	-3.67346	0	
1.0667	15.6268	-0.918365	0	
1.0673	17.4583	-0.0278292	0	
1.0680	16.5426	-0.918365	0	
1.0687	15.3314	-0.918365	0	
1.0693	11.6684	0.890535	0	
1.0700	7.38508	1.8089	0	
1.0707	4.34243	0.890535	0	
1.0713	0.679427	1.19666	0	
1.0720	-5.11047	3.03339	0	
1.0727	-9.09842	2.42114	0	
1.0733	-8.47807	-0.0278292	0	
1.0740	-7.56232	0.890535	0	
1.0747	-9.09842	1.50278	0	
1.0753	-10.9299	0.278292	0	
1.0760	-15.1837	3.03339	0	
1.0767	-25.5524	6.0946	0	
1.0773	-33.2033	3.64563	0	
1.0780	-31.0469	3.64563	0	
1.0787	-25.257	7.62521	0	
1.0793	-18.8467	7.01297	0	
1.0800	-9.39382	3.64563	0	
1.0807	-2.98357	5.17624	0	
1.0813	-1.77242	6.70685	0	
1.0820	-0.531726	4.56399	0	
1.0827	0.679427	2.72726	0	
1.0833	2.51093	3.03339	0	
1.0840	9.83693	2.72726	0	
1.0847	15.3314	-0.0278292	0	
1.0853	14.7111	-2.14285	0	
1.0860	15.3314	-3.67346	0	
1.0867	15.6268	-4.89795	0	
1.0873	13.2045	-4.59182	0	
1.0880	13.7953	-3.67346	0	
1.0887	15.036	-4.59182	0	
1.0893	9.83693	-2.44897	0	
1.0900	4.96277	0.584414	0	
1.0907	3.42668	0.584414	0	
1.0913	1.59518	0.890535	0	
1.0920	0.384024	2.42114	0	
1.0927	0.679427	-0.0278292	0	
1.0933	-2.06782	-2.75509	0	
1.0940	-4.81507	-3.36734	0	
1.0947	-2.98357	-3.36734	0	
1.0953	-2.06782	-1.83673	0	
1.0960	-8.47807	-0.333951	0	
1.0967	-17.3106	0.278292	0	
1.0973	-22.2143	2.42114	0	
1.0980	-22.5097	3.03339	0	
1.0987	-17.3106	-0.612243	0	
1.0993	-10.3096	-2.14285	0	
1.1000	-7.26692	0.278292	0	
1.1007	-6.35117	0.278292	0	
1.1013	-2.68817	-0.0278292	0	
1.1020	-1.77242	0.890535	0	
1.1027	-4.81507	0.278292	0	
1.1033	-2.06782	-0.612243	0	
1.1040	7.08968	-0.333951	0	
1.1047	13.2045	-2.44897	0	
1.1053	14.1203	-4.59182	0	
1.1060	17.1629	-4.89795	0	
1.1067	20.5305	-4.89795	0	
1.1073	15.6268	-4.89795	0	
1.1080	8.30083	-2.75509	0	
1.1087	7.38508	-1.22449	0	
1.1093	5.55358	-3.67346	0	
1.1100	-0.856669	-5.81631	0	
1.1107	-2.98357	-3.67346	0	
1.1113	-0.236323	-1.53061	0	
1.1120	-0.531726	-1.83673	0	
1.1127	-1.15207	-1.83673	0	
1.1133	0.0590806	-1.83673	0	
1.1140	-1.77242	-3.36734	0	
1.1147	-6.94197	-2.14285	0	
1.1153	-11.5207	-0.918365	0	
1.1160	-13.6772	-3.67346	0	
1.1167	-13.0568	-4.89795	0	
1.1173	-12.7614	-2.44897	0	
1.1180	-13.9726	-2.75509	0	
1.1187	-12.7614	-2.75509	0	
1.1193	-8.47807	0.584414	0	
1.1200	-5.73082	1.8089	0	
1.1207	-3.89932	0.890535	0	
1.1213	-1.77242	1.50278	0	
1.1220	0.679427	1.50278	0	
1.1227	2.51093	0.278292	0	
1.1233	1.89058	-0.0278292	0	
1.1240	1.59518	-1.83673	0	
1.1247	2.51093	-3.67346	0	
1.1253	2.80633	-1.53061	0	
1.1260	5.25818	-0.612243	0	
1.1267	12.2888	-1.83673	0	
1.1273	17.1629	-0.333951	0	
1.1280	18.9944	2.42114	0	
1.1287	20.2056	0.890535	0	
1.1293	14.4157	-0.0278292	0	
1.1300	2.51093	4.56399	0	
1.1307	-2.06782	8.54357	0	
1.1313	-1.15207	7.62521	0	
1.1320	-4.19473	6.40072	0	
1.1327	-4.81507	5.48236	0	
1.1333	-1.44748	5.48236	0	
1.1340	-2.06782	9.12799	0	
1.1347	-3.27898	12.4953	0	
1.1353	-3.27898	10.3525	0	
1.1360	-9.39382	8.82187	0	
1.1367	-16.7198	8.23745	0	
1.1373	-11.8457	1.8089	0	
1.1380	-1.77242	-3.06122	0	
1.1387	-0.531726	2.11502	0	
1.1393	-4.81507	7.31909	0	
1.1400	-5.73082	4.56399	0	
1.1407	-5.43542	0.890535	0	
1.1413	-5.73082	1.50278	0	
1.1420	-2.98357	0.890535	0	
1.1427	1.89058	-3.06122	0	
1.1433	0.679427	-3.67346	0	
1.1440	-4.51967	-0.918365	0	
1.1447	-5.11047	-0.918365	0	
1.1453	-0.531726	-3.67346	0	
1.1460	4.04702	-4.89795	0	
1.1467	8.92118	-3.97958	0	
1.1473	15.9518	-3.67346	0	
1.1480	20.5305	-4.2857	0	
1.1487	19.9102	-4.2857	0	
1.1493	17.1629	-2.44897	0	
1.1500	14.1203	-0.612243	0	
1.1507	8.00543	-0.612243	0	
1.1513	2.51093	0.890535	0	
1.1520	1.59518	2.72726	0	
1.1527	0.384024	1.19666	0	
1.1533	-3.89932	-0.333951	0	
1.1540	-5.73082	0.890535	0	
1.1547	-3.27898	0.890535	0	
1.1553	-2.68817	-0.918365	0	
1.1560	-9.68922	-1.83673	0	
1.1567	-20.9736	-1.22449	0	
1.1573	-25.5524	0.278292	0	
1.1580	-21.8894	1.19666	0	
1.1587	-17.6356	0.890535	0	
1.1593	-15.5087	0.890535	0	
1.1600	-12.1411	0.584414	0	
1.1607	-6.64657	-0.612243	0	
1.1613	-1.15207	-0.333951	0	
1.1620	0.679427	-0.612243	0	
1.1627	1.29977	-2.44897	0	
1.1633	4.34243	-1.83673	0	
1.1640	7.38508	-0.0278292	0	
1.1647	6.46933	0.278292	0	
1.1653	8.92118	-0.918365	0	
1.1660	16.2472	-2.75509	0	
1.1667	21.7417	-2.75509	0	
1.1673	25.4047	-0.333951	0	
1.1680	27.5316	-0.612243	0	
1.1687	22.6574	-3.67346	0	
1.1693	14.1203	-1.83673	0	
1.1700	8.30083	1.8089	0	
1.1707	3.42668	0.278292	0	
1.1713	-2.68817	-0.918365	0	
1.1720	-5.73082	-0.0278292	0	
1.1727	-6.64657	-0.918365	0	
1.1733	-7.85772	-0.918365	0	
1.1740	-7.56232	0.890535	0	
1.1747	-6.64657	0.890535	0	
1.1753	-6.02622	1.50278	0	
1.1760	-8.47807	3.64563	0	
1.1767	-15.8041	2.72726	0	
1.1773	-21.594	1.19666	0	
1.1780	-19.7625	1.19666	0	
1.1787	-16.7198	0.278292	0	
1.1793	-13.9726	1.19666	0	
1.1800	-8.47807	3.33951	0	
1.1807	-6.35117	2.72726	0	
1.1813	-10.3096	-0.0278292	0	
1.1820	-10.0142	-3.67346	0	
1.1827	-2.68817	-6.42855	0	
1.1833	2.21552	-3.67346	0	
1.1840	3.42668	-1.22449	0	
1.1847	4.96277	-5.81631	0	
1.1853	6.17393	-8.26528	0	
1.1860	11.6684	-4.59182	0	
1.1867	18.3741	-5.51019	0	
1.1873	20.2056	-8.26528	0	
1.1880	18.9944	-4.59182	0	
1.1887	18.0787	-3.67346	0	
1.1893	13.4999	-5.51019	0	
1.1900	9.21658	-3.06122	0	
1.1907	9.21658	1.19666	0	
1.1913	8.30083	1.8089	0	
1.1920	6.17393	2.72726	0	
1.1927	6.46933	3.33951	0	
1.1933	6.17393	1.8089	0	
1.1940	4.96277	0.890535	0	
1.1947	5.55358	2.72726	0	
1.1953	2.51093	4.56399	0	
1.1960	-7.56232	4.25787	0	
1.1967	-17.3106	2.72726	0	
1.1973	-22.8051	-0.0278292	0	
1.1980	-25.257	-1.53061	0	
1.1987	-22.5097	-0.0278292	0	
1.1993	-16.3949	0.584414	0	
1.2000	-12.4365	-2.44897	0	
1.2007	-10.0142	-3.67346	0	
1.2013	-7.56232	-3.67346	0	
1.2020	-6.35117	-3.97958	0	
1.2027	-2.68817	-3.06122	0	
1.2033	2.51093	-0.612243	0	
1.2040	3.42668	-0.918365	0	
1.2047	2.80633	-2.14285	0	
1.2053	5.87852	-3.36734	0	
1.2060	11.0481	-5.81631	0	
1.2067	16.2472	-6.12243	0	
1.2073	17.4583	-2.75509	0	
1.2080	13.7953	-1.22449	0	
1.2087	11.0481	-2.75509	0	
1.2093	11.373	-2.75509	0	
1.2100	9.54152	-0.612243	0	
1.2107	4.96277	0.584414	0	
1.2113	1.59518	-0.0278292	0	
1.2120	-0.531726	-1.22449	0	
1.2127	-2.98357	-0.612243	0	
1.2133	-4.51967	1.8089	0	
1.2140	-4.81507	2.11502	0	
1.2147	-4.81507	2.42114	0	
1.2153	-8.77347	3.33951	0	
1.2160	-17.931	2.72726	0	
1.2167	-24.3412	2.42114	0	
1.2173	-26.1727	4.87012	0	
1.2180	-25.8773	5.48236	0	
1.2187	-20.6782	3.95175	0	
1.2193	-14.268	3.64563	0	
1.2200	-13.0568	3.64563	0	
1.2207	-9.68922	1.50278	0	
1.2213	-2.06782	-0.918365	0	
1.2220	1.29977	-1.83673	0	
1.2227	0.384024	-1.83673	0	
1.2233	0.0590806	1.8089	0	
1.2240	0.97483	4.56399	0	
1.2247	4.34243	0.890535	0	
1.2253	9.54152	-1.53061	0	
1.2260	11.9638	0.278292	0	
1.2267	15.3314	-0.0278292	0	
1.2273	20.8259	-2.14285	0	
1.2280	20.5305	-1.83673	0	
1.2287	17.1629	-0.0278292	0	
1.2293	15.3314	1.8089	0	
1.2300	12.5842	3.95175	0	
1.2307	9.21658	3.64563	0	
1.2313	8.92118	1.8089	0	
1.2320	8.00543	1.19666	0	
1.2327	6.17393	1.8089	0	
1.2333	7.08968	3.03339	0	
1.2340	5.87852	3.95175	0	
1.2347	1.29977	2.72726	0	
1.2353	-2.36323	0.890535	0	
1.2360	-6.35117	2.11502	0	
1.2367	-12.4365	4.87012	0	
1.2373	-14.8883	3.64563	0	
1.2380	-13.6772	-1.22449	0	
1.2387	-16.7198	-2.75509	0	
1.2393	-20.6782	-0.918365	0	
1.2400	-16.7198	-2.44897	0	
1.2407	-7.26692	-2.14285	0	
1.2413	-1.77242	2.42114	0	
1.2420	-2.36323	1.50278	0	
1.2427	-3.89932	-1.22449	0	
1.2433	-2.98357	2.42114	0	
1.2440	0.679427	2.72726	0	
1.2447	3.13127	-3.06122	0	
1.2453	2.51093	-3.36734	0	
1.2460	2.51093	-0.918365	0	
1.2467	7.71002	-2.75509	0	
1.2473	14.4157	-2.14285	0	
1.2480	16.2472	0.890535	0	
1.2487	14.4157	-0.918365	0	
1.2493	13.4999	-3.97958	0	
1.2500	13.4999	-3.97958	0	
1.2507	12.8796	-3.67346	0	
1.2513	10.7527	-3.67346	0	
1.2520	10.4573	-2.75509	0	
1.2527	13.4999	-0.0278292	0	
1.2533	11.6684	1.50278	0	
1.2540	2.51093	0.890535	0	
1.2547	-3.89932	-0.612243	0	
1.2553	-6.02622	-0.918365	0	
1.2560	-9.09842	-0.612243	0	
1.2567	-12.7614	1.19666	0	
1.2573	-16.0995	3.95175	0	
1.2580	-17.6356	3.33951	0	
1.2587	-13.9726	0.584414	0	
1.2593	-8.47807	1.50278	0	
1.2600	-4.81507	3.64563	0	
1.2607	-1.15207	2.11502	0	
1.2613	0.679427	0.278292	0	
1.2620	-0.856669	-1.53061	0	
1.2627	-1.15207	-4.2857	0	
1.2633	0.679427	-4.59182	0	
1.2640	2.51093	-3.67346	0	
1.2647	3.72208	-5.51019	0	
1.2653	4.34243	-5.81631	0	
1.2660	7.71002	-3.67346	0	
1.2667	13.4999	-4.2857	0	
1.2673	16.2472	-4.89795	0	
1.2680	16.5426	-2.44897	0	
1.2687	15.9518	-0.918365	0	
1.2693	11.373	-1.53061	0	
1.2700	5.25818	1.8089	0	
1.2707	2.80633	3.64563	0	
1.2713	1.29977	0.890535	0	
1.2720	-2.06782	-1.83673	0	
1.2727	-5.73082	-1.83673	0	
1.2733	-10.9299	-2.14285	0	
1.2740	-13.9726	-3.36734	0	
1.2747	-13.0568	-3.67346	0	
1.2753	-14.8883	-3.67346	0	
1.2760	-20.6782	-0.612243	0	
1.2767	-26.4681	1.19666	0	
1.2773	-29.8357	-0.612243	0	
1.2780	-29.5403	-1.22449	0	
1.2787	-25.257	-0.333951	0	
1.2793	-20.6782	-2.44897	0	
1.2800	-15.5087	-2.75509	0	
1.2807	-9.09842	0.584414	0	
1.2813	-6.35117	0.890535	0	
1.2820	-5.73082	-3.67346	0	
1.2827	-2.98357	-5.51019	0	
1.2833	-1.15207	-4.59182	0	
1.2840	-1.15207	-4.59182	0	
1.2847	3.42668	-4.2857	0	
1.2853	9.83693	-3.67346	0	
1.2860	12.5842	-3.97958	0	
1.2867	17.1629	-5.51019	0	
1.2873	23.5732	-5.51019	0	
1.2880	23.5732	-4.2857	0	
1.2887	19.2898	-3.67346	0	
1.2893	16.2472	-4.59182	0	
1.2900	12.8796	-4.89795	0	
1.2907	7.38508	-3.36734	0	
1.2913	4.34243	-1.83673	0	
1.2920	3.42668	-2.75509	0	
1.2927	2.21552	-1.83673	0	
1.2933	1.29977	1.8089	0	
1.2940	0.0590806	2.72726	0	
1.2947	-1.44748	1.19666	0	
1.2953	-3.89932	2.72726	0	
1.2960	-9.39382	3.95175	0	
1.2967	-16.7198	3.64563	0	
1.2973	-20.3828	5.48236	0	
1.2980	-20.0579	6.40072	0	
1.2987	-17.6356	2.42114	0	
1.2993	-11.2253	-1.22449	0	
1.3000	-4.51967	0.584414	0	
1.3007	-2.36323	3.64563	0	
1.3013	-0.531726	4.56399	0	
1.3020	4.34243	3.33951	0	
1.3027	7.08968	2.72726	0	
1.3033	7.08968	2.72726	0	
1.3040	9.21658	0.890535	0	
1.3047	11.9638	-1.53061	0	
1.3053	11.6684	-0.333951	0	
1.3060	13.4999	0.278292	0	
1.3067	19.6148	-3.36734	0	
1.3073	21.7417	-3.67346	0	
1.3080	18.3741	0.890535	0	
1.3087	15.9518	1.8089	0	
1.3093	13.4999	1.19666	0	
1.3100	8.00543	4.25787	0	
1.3107	4.34243	4.25787	0	
1.3113	3.13127	0.890535	0	
1.3120	2.51093	1.50278	0	
1.3127	4.04702	-0.0278292	0	
1.3133	3.13127	-4.2857	0	
1.3140	-2.06782	-3.67346	0	
1.3147	-6.02622	-2.75509	0	
1.3153	-10.605	-3.36734	0	
1.3160	-23.1301	0.584414	0	
1.3167	-34.4145	3.64563	0	
1.3173	-35.0348	1.50278	0	
1.3180	-32.2876	0.890535	0	
1.3187	-28.6246	1.8089	0	
1.3193	-21.2986	-0.0278292	0	
1.3200	-14.268	-0.0278292	0	
1.3207	-9.39382	1.19666	0	
1.3213	-2.98357	-0.0278292	0	
1.3220	1.59518	-0.918365	0	
1.3227	2.51093	-2.14285	0	
1.3233	4.34243	-4.59182	0	
1.3240	7.38508	-3.67346	0	
1.3247	7.08968	-0.333951	0	
1.3253	5.87852	-1.83673	0	
1.3260	11.373	-6.42855	0	
1.3267	19.9102	-8.87753	0	
1.3273	19.9102	-8.87753	0	
1.3280	14.4157	-7.65304	0	
1.3287	13.2045	-4.59182	0	
1.3293	12.8796	-0.918365	0	
1.3300	9.21658	1.19666	0	
1.3307	6.17393	1.8089	0	
1.3313	4.96277	2.72726	0	
1.3320	3.13127	3.64563	0	
1.3327	0.0590806	4.56399	0	
1.3333	-6.02622	4.87012	0	
1.3340	-11.5207	5.17624	0	
1.3347	-9.39382	4.56399	0	
1.3353	-7.56232	1.19666	0	
1.3360	-13.0568	-2.44897	0	
1.3367	-18.5513	-1.53061	0	
1.3373	-20.0579	0.890535	0	
1.3380	-20.6782	-0.333951	0	
1.3387	-20.3828	-0.612243	0	
1.3393	-17.931	1.8089	0	
1.3400	-13.6772	1.8089	0	
1.3407	-8.47807	-0.918365	0	
1.3413	-4.81507	-0.918365	0	
1.3420	-3.27898	-0.333951	0	
1.3427	-1.15207	-1.83673	0	
1.3433	2.21552	-2.14285	0	
1.3440	4.34243	-1.53061	0	
1.3447	5.55358	-0.612243	0	
1.3453	8.00543	1.50278	0	
1.3460	13.4999	2.42114	0	
1.3467	19.2898	0.890535	0	
1.3473	20.8259	-1.83673	0	
1.3480	18.9944	-1.83673	0	
1.3487	15.3314	0.890535	0	
1.3493	11.0481	2.72726	0	
1.3500	9.21658	4.25787	0	
1.3507	9.83693	6.40072	0	
1.3513	8.00543	5.48236	0	
1.3520	4.34243	1.19666	0	
1.3527	1.89058	1.8089	0	
1.3533	1.29977	4.56399	0	
1.3540	1.29977	2.42114	0	
1.3547	-0.236323	1.19666	0	
1.3553	-4.81507	4.25787	0	
1.3560	-10.3096	4.87012	0	
1.3567	-17.6356	5.48236	0	
1.3573	-22.8051	8.54357	0	
1.3580	-22.2143	8.23745	0	
1.3587	-18.2264	6.70685	0	
1.3593	-13.9726	6.70685	0	
1.3600	-8.47807	3.33951	0	
1.3607	-2.68817	-0.0278292	0	
1.3613	2.80633	-0.0278292	0	
1.3620	8.92118	-1.83673	0	
1.3627	9.83693	-1.83673	0	
1.3633	4.96277	1.19666	0	
1.3640	2.51093	-0.918365	0	
1.3647	5.25818	-4.59182	0	
1.3653	8.62577	-2.75509	0	
1.3660	11.9638	-1.83673	0	
1.3667	17.1629	-4.59182	0	
1.3673	20.5305	-5.51019	0	
1.3680	19.9102	-5.81631	0	
1.3687	17.1629	-6.42855	0	
1.3693	14.7111	-3.67346	0	
1.3700	9.83693	-1.22449	0	
1.3707	4.34243	-2.44897	0	
1.3713	1.59518	-1.83673	0	
1.3720	-0.236323	-0.918365	0	
1.3727	-2.98357	-2.75509	0	
1.3733	-6.35117	-3.67346	0	
1.3740	-9.39382	-2.75509	0	
1.3747	-10.605	-1.83673	0	
1.3753	-12.1411	-1.83673	0	
1.3760	-18.5513	-1.22449	0	
1.3767	-25.8773	-0.333951	0	
1.3773	-27.0885	1.50278	0	
1.3780	-24.9616	3.95175	0	
1.3787	-21.2986	3.64563	0	
1.3793	-15.8041	1.8089	0	
1.3800	-12.1411	3.95175	0	
1.3807	-10.3096	6.40072	0	
1.3813	-5.43542	4.25787	0	
1.3820	0.679427	1.8089	0	
1.3827	1.89058	1.8089	0	
1.3833	2.80633	-0.0278292	0	
1.3840	6.17393	-2.44897	0	
1.3847	8.00543	-1.53061	0	
1.3853	9.83693	-2.44897	0	
1.3860	15.036	-5.51019	0	
1.3867	20.8259	-4.59182	0	
1.3873	22.6574	-1.83673	0	
1.3880	23.5732	-1.22449	0	
1.3887	22.0371	-1.83673	0	
1.3893	15.9518	-1.22449	0	
1.3900	8.62577	-0.918365	0	
1.3907	4.96277	-1.22449	0	
1.3913	2.51093	-0.918365	0	
1.3920	-0.236323	0.278292	0	
1.3927	-1.15207	0.890535	0	
1.3933	-1.15207	-0.0278292	0	
1.3940	-2.06782	0.278292	0	
1.3947	-2.06782	-0.333951	0	
1.3953	-5.11047	-2.75509	0	
1.3960	-13.3522	-2.75509	0	
1.3967	-19.1421	2.72726	0	
1.3973	-18.5513	5.17624	0	
1.3980	-16.7198	2.11502	0	
1.3987	-15.8041	-0.333951	0	
1.3993	-13.6772	-0.918365	0	
1.4000	-8.77347	-2.44897	0	
1.4007	-0.856669	-2.75509	0	
1.4013	6.17393	-0.918365	0	
1.4020	7.08968	-1.53061	0	
1.4027	7.38508	-3.06122	0	
1.4033	10.4573	-3.36734	0	
1.4040	10.1323	-3.06122	0	
1.4047	8.00543	-3.97958	0	
1.4053	9.21658	-7.34692	0	
1.4060	11.6684	-10.3803	0	
1.4067	12.8796	-8.26528	0	
1.4073	16.5426	-4.59182	0	
1.4080	19.9102	-4.59182	0	
1.4087	18.0787	-4.2857	0	
1.4093	14.4157	-3.06122	0	
1.4100	13.4999	-3.67346	0	
1.4107	13.2045	-2.75509	0	
1.4113	11.6684	-0.0278292	0	
1.4120	7.38508	-0.0278292	0	
1.4127	3.72208	-0.333951	0	
1.4133	0.679427	3.33951	0	
1.4140	-3.60392	7.01297	0	
1.4147	-5.73082	6.40072	0	
1.4153	-8.47807	3.33951	0	
1.4160	-20.3828	0.890535	0	
1.4167	-33.2033	2.72726	0	
1.4173	-35.0348	5.78848	0	
1.4180	-30.7515	5.78848	0	
1.4187	-27.7088	3.03339	0	
1.4193	-22.8051	3.03339	0	
1.4200	-17.6356	3.95175	0	
1.4207	-11.2253	2.42114	0	
1.4213	-2.98357	1.8089	0	
1.4220	2.21552	4.25787	0	
1.4227	4.04702	5.48236	0	
1.4233	7.08968	3.03339	0	
1.4240	8.30083	2.11502	0	
1.4247	6.79427	1.8089	0	
1.4253	8.00543	-2.44897	0	
1.4260	14.1203	-4.59182	0	
1.4267	21.7417	-1.53061	0	
1.4273	22.9528	0.278292	0	
1.4280	17.4583	-0.333951	0	
1.4287	14.4157	1.19666	0	
1.4293	16.2472	1.8089	0	
1.4300	15.6268	-0.918365	0	
1.4307	11.9638	-1.83673	0	
1.4313	8.00543	-0.918365	0	
1.4320	4.34243	-0.612243	0	
1.4327	2.51093	-0.918365	0	
1.4333	-0.236323	-1.22449	0	
1.4340	-4.51967	-1.83673	0	
1.4347	-6.02622	-3.06122	0	
1.4353	-10.9299	-4.2857	0	
1.4360	-21.2986	-2.75509	0	
1.4367	-26.7931	0.584414	0	
1.4373	-24.9616	1.19666	0	
1.4380	-24.0458	2.42114	0	
1.4387	-21.2986	4.56399	0	
1.4393	-16.7198	2.72726	0	
1.4400	-13.9726	-0.333951	0	
1.4407	-10.3096	-0.918365	0	
1.4413	-4.19473	-2.75509	0	
1.4420	-2.36323	-4.59182	0	
1.4427	-2.06782	-2.14285	0	
1.4433	1.29977	-2.75509	0	
1.4440	3.13127	-6.42855	0	
1.4447	3.42668	-4.2857	0	
1.4453	7.08968	-0.333951	0	
1.4460	14.4157	-1.83673	0	
1.4467	21.1213	-3.67346	0	
1.4473	23.5732	-2.75509	0	
1.4480	21.7417	-2.75509	0	
1.4487	18.0787	-3.67346	0	
1.4493	15.036	-1.83673	0	
1.4500	12.5842	-1.22449	0	
1.4507	8.92118	-1.53061	0	
1.4513	5.25818	0.890535	0	
1.4520	2.21552	3.33951	0	
1.4527	0.384024	3.95175	0	
1.4533	-2.06782	4.56399	0	
1.4540	-4.51967	5.17624	0	
1.4547	-6.02622	4.25787	0	
1.4553	-7.56232	3.64563	0	
1.4560	-12.1411	4.25787	0	
1.4567	-17.6356	3.64563	0	
1.4573	-20.0579	1.8089	0	
1.4580	-18.8467	2.72726	0	
1.4587	-17.931	3.33951	0	
1.4593	-15.8041	2.72726	0	
1.4600	-10.9299	4.56399	0	
1.4607	-6.35117	5.48236	0	
1.4613	-3.27898	3.64563	0	
1.4620	0.679427	1.8089	0	
1.4627	2.80633	1.50278	0	
1.4633	2.80633	-0.918365	0	
1.4640	4.34243	-3.06122	0	
1.4647	6.79427	-3.36734	0	
1.4653	8.00543	-3.67346	0	
1.4660	14.1203	-4.89795	0	
1.4667	21.1213	-5.81631	0	
1.4673	20.8259	-4.59182	0	
1.4680	18.0787	-0.918365	0	
1.4687	18.0787	0.584414	0	
1.4693	14.7111	-0.918365	0	
1.4700	8.92118	-0.918365	0	
1.4707	4.63783	-0.918365	0	
1.4713	0.679427	-1.22449	0	
1.4720	-2.06782	0.584414	0	
1.4727	-4.81507	1.50278	0	
1.4733	-10.0142	-0.0278292	0	
1.4740	-10.3096	-0.0278292	0	
1.4747	-6.02622	2.72726	0	
1.4753	-9.39382	4.56399	0	
1.4760	-16.7198	6.0946	0	
1.4767	-17.0152	6.70685	0	
1.4773	-18.5513	5.48236	0	
1.4780	-21.594	3.64563	0	
1.4787	-16.7198	2.42114	0	
1.4793	-9.68922	1.8089	0	
1.4800	-7.56232	3.64563	0	
1.4807	-5.11047	4.25787	0	
1.4813	-3.27898	1.19666	0	
1.4820	-4.81507	-1.83673	0	
1.4827	-3.27898	-3.67346	0	
1.4833	0.679427	-6.42855	0	
1.4840	0.384024	-7.34692	0	
1.4847	-1.77242	-4.2857	0	
1.4853	0.97483	-2.75509	0	
1.4860	8.92118	-4.89795	0	
1.4867	17.4583	-7.65304	0	
1.4873	20.5305	-8.26528	0	
1.4880	17.4583	-7.95916	0	
1.4887	14.4157	-6.42855	0	
1.4893	15.3314	-5.51019	0	
1.4900	13.7953	-6.42855	0	
1.4907	9.54152	-6.42855	0	
1.4913	7.08968	-4.2857	0	
1.4920	5.25818	-3.67346	0	
1.4927	-0.236323	-4.89795	0	
1.4933	-7.26692	-2.75509	0	
1.4940	-12.1411	-0.333951	0	
1.4947	-12.4365	-2.14285	0	
1.4953	-11.5207	-3.67346	0	
1.4960	-17.6356	-1.83673	0	
1.4967	-25.8773	-0.333951	0	
1.4973	-26.7931	-0.918365	0	
1.4980	-22.2143	-0.0278292	0	
1.4987	-18.5513	1.50278	0	
1.4993	-14.268	0.890535	0	
1.5000	-9.39382	-0.333951	0	
1.5007	-6.64657	-0.918365	0	
1.5013	-3.60392	-0.918365	0	
1.5020	0.679427	-2.75509	0	
1.5027	1.89058	-3.67346	0	
1.5033	1.29977	-1.83673	0	
1.5040	1.29977	-0.918365	0	
1.5047	1.89058	-2.75509	0	
1.5053	6.46933	-4.89795	0	
1.5060	14.1203	-6.12243	0	
1.5067	16.2472	-8.26528	0	
1.5073	14.7111	-8.26528	0	
1.5080	15.9518	-4.59182	0	
1.5087	16.2472	-1.22449	0	
1.5093	11.6684	-0.0278292	0	
1.5100	8.00543	-0.0278292	0	
1.5107	6.79427	-0.918365	0	
1.5113	3.42668	-1.83673	0	
1.5120	-1.15207	0.584414	0	
1.5127	-2.68817	3.64563	0	
1.5133	-2.98357	3.33951	0	
1.5140	-3.89932	0.278292	0	
1.5147	-3.27898	-0.918365	0	
1.5153	-2.98357	-0.333951	0	
1.5160	-7.85772	-0.0278292	0	
1.5167	-14.5929	0.890535	0	
1.5173	-17.931	1.8089	0	
1.5180	-16.0995	0.890535	0	
1.5187	-12.4365	0.890535	0	
1.5193	-11.8457	2.42114	0	
1.5200	-13.0568	0.584414	0	
1.5207	-11.2253	-3.06122	0	
1.5213	-9.39382	-0.333951	0	
1.5220	-9.68922	4.25787	0	
1.5227	-7.26692	3.64563	0	
1.5233	-2.06782	3.64563	0	
1.5240	0.679427	3.64563	0	
1.5247	2.51093	1.50278	0	
1.5253	6.46933	0.278292	0	
1.5260	13.4999	-0.0278292	0	
1.5267	20.8259	-3.06122	0	
1.5273	26.6158	-3.36734	0	
1.5280	26.3204	-0.612243	0	
1.5287	21.1213	-1.22449	0	
1.5293	15.3314	-3.06122	0	
1.5300	10.1323	-1.22449	0	
1.5307	6.17393	-0.0278292	0	
1.5313	4.96277	0.890535	0	
1.5320	5.25818	5.17624	0	
1.5327	3.42668	5.78848	0	
1.5333	-2.36323	1.50278	0	
1.5340	-5.73082	0.890535	0	
1.5347	-4.81507	3.64563	0	
1.5353	-7.56232	2.42114	0	
1.5360	-15.8041	1.8089	0	
1.5367	-18.8467	4.87012	0	
1.5373	-16.3949	6.0946	0	
1.5380	-16.7198	3.03339	0	
1.5387	-17.0152	1.50278	0	
1.5393	-10.605	0.584414	0	
1.5400	-5.11047	-0.0278292	0	
1.5407	-4.51967	1.8089	0	
1.5413	-1.77242	1.8089	0	
1.5420	3.42668	-1.53061	0	
1.5427	6.17393	-1.83673	0	
1.5433	8.30083	-0.918365	0	
1.5440	10.1323	-2.75509	0	
1.5447	9.21658	-2.75509	0	
1.5453	11.373	0.278292	0	
1.5460	19.2898	-0.333951	0	
1.5467	25.4047	-3.67346	0	
1.5473	25.0797	-3.67346	0	
1.5480	22.6574	0.278292	0	
1.5487	19.9102	3.33951	0	
1.5493	15.9518	2.72726	0	
1.5500	11.9638	1.8089	0	
1.5507	6.46933	3.33951	0	
1.5513	0.384024	2.11502	0	
1.5520	-1.15207	-1.22449	0	
1.5527	0.97483	-0.0278292	0	
1.5533	-0.856669	3.95175	0	
1.5540	-5.73082	3.64563	0	
1.5547	-9.39382	3.95175	0	
1.5553	-11.2253	7.31909	0	
1.5560	-14.8883	7.62521	0	
1.5567	-19.7625	5.48236	0	
1.5573	-22.8051	5.48236	0	
1.5580	-20.0579	4.87012	0	
1.5587	-15.1837	3.64563	0	
1.5593	-12.7614	1.8089	0	
1.5600	-10.0142	-0.333951	0	
1.5607	-5.73082	-0.612243	0	
1.5613	-2.98357	-1.83673	0	
1.5620	-1.44748	-5.20407	0	
1.5627	1.29977	-5.20407	0	
1.5633	3.42668	-2.44897	0	
1.5640	3.42668	-2.75509	0	
1.5647	3.42668	-3.97958	0	
1.5653	8.62577	-3.67346	0	
1.5660	15.6268	-4.59182	0	
1.5667	18.3741	-5.81631	0	
1.5673	16.8675	-5.20407	0	
1.5680	16.5426	-5.20407	0	
1.5687	17.4583	-4.59182	0	
1.5693	14.4157	-3.36734	0	
1.5700	8.00543	-3.67346	0	
1.5707	4.34243	-3.67346	0	
1.5713	3.42668	-2.14285	0	
1.5720	1.29977	-1.83673	0	
1.5727	-2.98357	-2.75509	0	
1.5733	-6.64657	-3.67346	0	
1.5740	-10.3096	-3.36734	0	
1.5747	-11.2253	-0.0278292	0	
1.5753	-9.39382	3.64563	0	
1.5760	-12.7614	4.87012	0	
1.5767	-20.3828	5.17624	0	
1.5773	-21.594	4.56399	0	
1.5780	-18.2264	1.8089	0	
1.5787	-16.7198	-0.0278292	0	
1.5793	-12.1411	-0.333951	0	
1.5800	-4.19473	-0.333951	0	
1.5807	-2.06782	-1.83673	0	
1.5813	-2.98357	-2.75509	0	
1.5820	-0.531726	-1.83673	0	
1.5827	2.51093	0.584414	0	
1.5833	4.34243	0.890535	0	
1.5840	4.63783	-0.918365	0	
1.5847	2.80633	-2.44897	0	
1.5853	3.42668	-3.67346	0	
1.5860	9.21658	-5.20407	0	
1.5867	11.6684	-7.65304	0	
1.5873	9.21658	-8.87753	0	
1.5880	9.54152	-7.34692	0	
1.5887	8.62577	-6.73467	0	
1.5893	3.13127	-4.59182	0	
1.5900	0.384024	0.584414	0	
1.5907	0.384024	1.19666	0	
1.5913	-2.06782	-2.75509	0	
1.5920	-5.73082	-1.53061	0	
1.5927	-6.64657	2.42114	0	
1.5933	-6.64657	1.19666	0	
1.5940	-6.64657	0.584414	0	
1.5947	-5.73082	3.33951	0	
1.5953	-8.47807	3.64563	0	
1.5960	-16.3949	3.64563	0	
1.5967	-22.2143	5.78848	0	
1.5973	-21.8894	4.56399	0	
1.5980	-19.4671	1.50278	0	
1.5987	-17.6356	2.42114	0	
1.5993	-15.1837	5.17624	0	
1.6000	-13.6772	5.17624	0	
1.6007	-11.8457	3.33951	0	
1.6013	-6.02622	2.42114	0	
1.6020	1.59518	2.72726	0	
1.6027	5.55358	2.42114	0	
1.6033	6.17393	0.890535	0	
1.6040	7.71002	-1.83673	0	
1.6047	9.83693	-3.67346	0	
1.6053	12.8796	-3.67346	0	
1.6060	17.1629	-3.67346	0	
1.6067	20.8259	-6.73467	0	
1.6073	20.8259	-7.65304	0	
1.6080	18.9944	-3.67346	0	
1.6087	19.2898	-1.22449	0	
1.6093	19.2898	-3.36734	0	
1.6100	15.036	-2.75509	0	
1.6107	6.79427	1.19666	0	
1.6113	0.384024	2.11502	0	
1.6120	-0.531726	2.11502	0	
1.6127	0.679427	4.56399	0	
1.6133	-1.77242	4.56399	0	
1.6140	-4.51967	2.42114	0	
1.6147	-4.19473	3.33951	0	
1.6153	-6.94197	5.17624	0	
1.6160	-13.9726	5.48236	0	
1.6167	-18.8467	6.0946	0	
1.6173	-21.2986	5.48236	0	
1.6180	-20.6782	4.56399	0	
1.6187	-15.5087	5.48236	0	
1.6193	-11.2253	3.64563	0	
1.6200	-8.77347	-0.0278292	0	
1.6207	-3.27898	1.19666	0	
1.6213	1.89058	3.33951	0	
1.6220	4.34243	1.19666	0	
1.6227	7.08968	1.19666	0	
1.6233	7.71002	3.03339	0	
1.6240	4.96277	-0.0278292	0	
1.6247	5.25818	-2.14285	0	
1.6253	9.54152	0.278292	0	
1.6260	15.3314	-0.333951	0	
1.6267	19.6148	-3.67346	0	
1.6273	18.9944	-4.59182	0	
1.6280	15.6268	-4.2857	0	
1.6287	13.4999	-2.75509	0	
1.6293	9.83693	0.584414	0	
1.6300	4.96277	2.42114	0	
1.6307	2.51093	3.03339	0	
1.6313	0.384024	2.72726	0	
1.6320	-0.856669	0.278292	0	
1.6327	1.59518	-0.0278292	0	
1.6333	1.29977	0.890535	0	
1.6340	-3.27898	-0.0278292	0	
1.6347	-5.43542	0.278292	0	
1.6353	-4.81507	2.72726	0	
1.6360	-7.26692	2.72726	0	
1.6367	-13.0568	1.8089	0	
1.6373	-17.0152	0.890535	0	
1.6380	-17.3106	-0.918365	0	
1.6387	-15.8041	-0.333951	0	
1.6393	-13.3522	1.50278	0	
1.6400	-8.18267	2.11502	0	
1.6407	-1.77242	2.72726	0	
1.6413	2.51093	-0.333951	0	
1.6420	4.96277	-7.34692	0	
1.6427	8.00543	-7.65304	0	
1.6433	8.92118	-2.75509	0	
1.6440	6.46933	-3.06122	0	
1.6447	6.17393	-3.97958	0	
1.6453	10.4573	-2.44897	0	
1.6460	15.9518	-3.06122	0	
1.6467	19.9102	-4.59182	0	
1.6473	21.7417	-3.67346	0	
1.6480	20.5305	-3.06122	0	
1.6487	15.6268	-4.89795	0	
1.6493	8.30083	-6.12243	0	
1.6500	1.59518	-4.59182	0	
1.6507	-2.06782	-3.06122	0	
1.6513	-2.98357	-2.14285	0	
1.6520	-3.89932	-1.83673	0	
1.6527	-6.64657	-2.75509	0	
1.6533	-10.3096	-1.83673	0	
1.6540	-10.9299	-0.333951	0	
1.6547	-7.85772	-0.0278292	0	
1.6553	-6.94197	2.42114	0	
1.6560	-12.1411	8.23745	0	
1.6567	-19.1421	8.82187	0	
1.6573	-23.1301	3.64563	0	
1.6580	-21.2986	2.72726	0	
1.6587	-17.3106	3.03339	0	
1.6593	-14.5929	0.278292	0	
1.6600	-12.1411	-0.612243	0	
1.6607	-11.8457	-0.0278292	0	
1.6613	-14.8883	-2.14285	0	
1.6620	-15.5087	-4.2857	0	
1.6627	-9.39382	-4.59182	0	
1.6633	-3.89932	-5.51019	0	
1.6640	-0.531726	-4.89795	0	
1.6647	2.21552	-2.44897	0	
1.6653	5.25818	-3.36734	0	
1.6660	11.373	-8.26528	0	
1.6667	16.2472	-8.5714	0	
1.6673	15.3314	-2.14285	0	
1.6680	11.373	0.584414	0	
1.6687	7.08968	-2.14285	0	
1.6693	0.0590806	-2.75509	0	
1.6700	-5.73082	-1.22449	0	
1.6707	-6.35117	-1.53061	0	
1.6713	-6.02622	-0.918365	0	
1.6720	-7.85772	-0.0278292	0	
1.6727	-8.18267	-0.918365	0	
1.6733	-4.81507	-0.0278292	0	
1.6740	-0.531726	0.278292	0	
1.6747	0.0590806	-2.14285	0	
1.6753	-2.98357	-0.918365	0	
1.6760	-6.35117	3.95175	0	
1.6767	-10.605	3.64563	0	
1.6773	-13.9726	0.890535	0	
1.6780	-12.1411	1.50278	0	
1.6787	-10.3096	3.64563	0	
1.6793	-12.7614	2.11502	0	
1.6800	-12.7614	-1.53061	0	
1.6807	-9.39382	-1.53061	0	
1.6813	-6.02622	0.890535	0	
1.6820	-2.98357	0.890535	0	
1.6827	-0.856669	-0.918365	0	
1.6833	-1.77242	-0.0278292	0	
1.6840	-4.81507	0.890535	0	
1.6847	-4.51967	-1.53061	0	
1.6853	2.21552	-1.83673	0	
1.6860	12.8796	-0.612243	0	
1.6867	20.8259	-1.83673	0	
1.6873	21.7417	-3.67346	0	
1.6880	21.1213	-2.75509	0	
1.6887	22.0371	-0.918365	0	
1.6893	17.1629	-0.612243	0	
1.6900	8.92118	-0.918365	0	
1.6907	5.55358	-0.0278292	0	
1.6913	3.42668	1.19666	0	
1.6920	-0.856669	3.33951	0	
1.6927	-3.89932	3.64563	0	
1.6933	-6.02622	0.890535	0	
1.6940	-7.56232	-0.333951	0	
1.6947	-5.73082	2.72726	0	
1.6953	-6.64657	4.56399	0	
1.6960	-13.3522	4.25787	0	
1.6967	-16.7198	4.87012	0	
1.6973	-17.6356	4.87012	0	
1.6980	-19.4671	2.11502	0	
1.6987	-16.0995	0.584414	0	
1.6993	-8.47807	-0.0278292	0	
1.7000	-6.35117	-2.75509	0	
1.7007	-6.64657	-4.59182	0	
1.7013	-4.81507	-4.59182	0	
1.7020	-2.98357	-4.89795	0	
1.7027	-0.236323	-3.67346	0	
1.7033	3.42668	-0.0278292	0	
1.7040	4.34243	0.890535	0	
1.7047	4.63783	-0.0278292	0	
1.7053	8.92118	-0.333951	0	
1.7060	15.9518	-2.14285	0	
1.7067	21.4463	-4.59182	0	
1.7073	23.5732	-4.59182	0	
1.7080	22.362	-4.89795	0	
1.7087	18.0787	-4.59182	0	
1.7093	14.1203	-2.14285	0	
1.7100	11.0481	-0.918365	0	
1.7107	6.79427	-1.53061	0	
1.7113	1.59518	-0.0278292	0	
1.7120	0.97483	0.890535	0	
1.7127	2.51093	-0.0278292	0	
1.7133	0.679427	0.584414	0	
1.7140	-1.15207	0.278292	0	
1.7147	-1.77242	-0.918365	0	
1.7153	-7.56232	-0.0278292	0	
1.7160	-13.9726	1.19666	0	
1.7167	-16.0995	-0.612243	0	
1.7173	-17.931	-2.14285	0	
1.7180	-20.0579	-0.333951	0	
1.7187	-15.8041	3.03339	0	
1.7193	-8.47807	3.64563	0	
1.7200	-4.19473	0.584414	0	
1.7207	-2.06782	-0.612243	0	
1.7213	0.679427	0.278292	0	
1.7220	3.72208	-3.36734	0	
1.7227	7.71002	-6.12243	0	
1.7233	11.0481	-3.06122	0	
1.7240	11.6684	0.278292	0	
1.7247	8.92118	-0.918365	0	
1.7253	9.54152	-2.14285	0	
1.7260	17.4583	-3.67346	0	
1.7267	25.0797	-4.89795	0	
1.7273	24.1935	-4.59182	0	
1.7280	17.7833	-3.97958	0	
1.7287	10.7527	-5.51019	0	
1.7293	6.17393	-5.20407	0	
1.7300	4.34243	-1.83673	0	
1.7307	2.51093	1.50278	0	
1.7313	-0.856669	1.50278	0	
1.7320	-2.06782	-0.0278292	0	
1.7327	-2.06782	-0.0278292	0	
1.7333	-3.89932	1.8089	0	
1.7340	-6.64657	1.50278	0	
1.7347	-7.56232	0.584414	0	
1.7353	-9.68922	1.8089	0	
1.7360	-15.5087	3.64563	0	
1.7367	-21.2986	3.95175	0	
1.7373	-21.8894	2.42114	0	
1.7380	-19.1421	1.19666	0	
1.7387	-15.1837	2.11502	0	
1.7393	-11.5207	2.11502	0	
1.7400	-9.39382	-0.612243	0	
1.7407	-6.35117	-1.83673	0	
1.7413	-0.856669	-1.22449	0	
1.7420	2.51093	-2.44897	0	
1.7427	3.42668	-3.67346	0	
1.7433	6.17393	-2.44897	0	
1.7440	7.71002	-0.918365	0	
1.7447	7.08968	-0.0278292	0	
1.7453	9.54152	0.584414	0	
1.7460	15.9518	-0.0278292	0	
1.7467	21.4463	-0.0278292	0	
1.7473	22.6574	-0.0278292	0	
1.7480	19.2898	-2.44897	0	
1.7487	14.7111	-2.75509	0	
1.7493	11.373	0.278292	0	
1.7500	8.00543	0.890535	0	
1.7507	4.04702	-0.0278292	0	
1.7513	2.80633	0.890535	0	
1.7520	2.51093	1.19666	0	
1.7527	0.679427	1.8089	0	
1.7533	-1.15207	3.03339	0	
1.7540	0.679427	-0.0278292	0	
1.7547	2.80633	-1.53061	0	
1.7553	-0.236323	2.72726	0	
1.7560	-8.47807	5.17624	0	
1.7567	-14.268	4.25787	0	
1.7573	-13.9726	6.0946	0	
1.7580	-12.1411	6.70685	0	
1.7587	-12.1411	2.42114	0	
1.7593	-13.6772	0.584414	0	
1.7600	-13.9726	3.33951	0	
1.7607	-11.8457	4.56399	0	
1.7613	-7.56232	1.19666	0	
1.7620	-1.44748	-3.67346	0	
1.7627	5.25818	-7.34692	0	
1.7633	6.79427	-8.5714	0	
1.7640	3.42668	-8.87753	0	
1.7647	4.34243	-7.34692	0	
1.7653	8.92118	-4.89795	0	
1.7660	12.5842	-3.67346	0	
1.7667	17.1629	-3.06122	0	
1.7673	21.1213	-3.97958	0	
1.7680	19.9102	-4.2857	0	
1.7687	16.2472	-0.333951	0	
1.7693	13.4999	3.03339	0	
1.7700	9.21658	-0.0278292	0	
1.7707	5.25818	-0.612243	0	
1.7713	2.21552	4.56399	0	
1.7720	-0.531726	8.23745	0	
1.7727	-2.36323	6.40072	0	
1.7733	-3.89932	5.48236	0	
1.7740	-6.64657	5.78848	0	
1.7747	-8.77347	8.23745	0	
1.7753	-11.5207	11.2708	0	
1.7760	-18.5513	12.8014	0	
1.7767	-25.5524	10.3525	0	
1.7773	-25.8773	7.31909	0	
1.7780	-23.1301	6.40072	0	
1.7787	-20.3828	5.78848	0	
1.7793	-14.5929	3.03339	0	
1.7800	-9.39382	0.584414	0	
1.7807	-8.47807	-0.0278292	0	
1.7813	-7.85772	-2.75509	0	
1.7820	-5.73082	-3.67346	0	
1.7827	-4.51967	-1.83673	0	
1.7833	-3.60392	-1.83673	0	
1.7840	-1.77242	-4.59182	0	
1.7847	1.29977	-5.81631	0	
1.7853	6.17393	-6.42855	0	
1.7860	15.036	-8.26528	0	
1.7867	21.7417	-7.34692	0	
1.7873	22.6574	-5.51019	0	
1.7880	21.4463	-5.20407	0	
1.7887	19.6148	-2.75509	0	
1.7893	14.7111	-1.22449	0	
1.7900	8.92118	-4.89795	0	
1.7907	4.04702	-5.81631	0	
1.7913	-1.15207	-1.83673	0	
1.7920	-5.73082	-0.612243	0	
1.7927	-7.56232	-0.918365	0	
1.7933	-9.39382	0.278292	0	
1.7940	-9.09842	0.890535	0	
1.7947	-5.73082	1.8089	0	
1.7953	-9.39382	3.33951	0	
1.7960	-20.9736	1.8089	0	
1.7967	-26.7931	0.890535	0	
1.7973	-24.9616	3.95175	0	
1.7980	-22.2143	5.48236	0	
1.7987	-17.6356	3.64563	0	
1.7993	-10.9299	1.8089	0	
1.8000	-6.94197	-0.0278292	0	
1.8007	-6.64657	-1.53061	0	
1.8013	-5.73082	-0.918365	0	
1.8020	-3.89932	0.584414	0	
1.8027	-0.236323	0.278292	0	
1.8033	4.96277	-1.83673	0	
1.8040	4.34243	-4.59182	0	
1.8047	1.59518	-5.81631	0	
1.8053	5.87852	-5.81631	0	
1.8060	13.7953	-5.51019	0	
1.8067	16.8675	-3.67346	0	
1.8073	19.6148	-3.36734	0	
1.8080	22.362	-5.81631	0	
1.8087	18.0787	-6.12243	0	
1.8093	11.6684	-2.75509	0	
1.8100	9.21658	-1.83673	0	
1.8107	5.55358	-2.44897	0	
1.8113	0.679427	-0.333951	0	
1.8120	0.384024	0.890535	0	
1.8127	2.21552	0.890535	0	
1.8133	1.59518	2.72726	0	
1.8140	0.0590806	3.33951	0	
1.8147	-1.77242	2.11502	0	
1.8153	-6.64657	3.64563	0	
1.8160	-13.0568	5.48236	0	
1.8167	-16.7198	3.64563	0	
1.8173	-15.8041	3.64563	0	
1.8180	-12.1411	4.87012	0	
1.8187	-13.6772	1.50278	0	
1.8193	-18.5513	-1.22449	0	
1.8200	-18.5513	0.278292	0	
1.8207	-13.9726	-1.22449	0	
1.8213	-10.0142	-4.89795	0	
1.8220	-3.60392	-4.59182	0	
1.8227	1.59518	-3.67346	0	
1.8233	-1.44748	-4.2857	0	
1.8240	-2.68817	-3.67346	0	
1.8247	2.51093	-3.67346	0	
1.8253	6.17393	-4.89795	0	
1.8260	8.92118	-3.97958	0	
1.8267	16.2472	-3.06122	0	
1.8273	18.9944	-3.67346	0	
1.8280	15.9518	-3.06122	0	
1.8287	14.7111	-0.0278292	0	
1.8293	13.2045	-0.0278292	0	
1.8300	8.30083	0.890535	0	
1.8307	5.87852	4.87012	0	
1.8313	3.72208	5.48236	0	
1.8320	-0.236323	1.50278	0	
1.8327	-2.06782	-0.918365	0	
1.8333	-2.36323	-1.53061	0	
1.8340	-4.19473	-1.83673	0	
1.8347	-5.73082	1.8089	0	
1.8353	-8.77347	6.0946	0	
1.8360	-16.7198	4.56399	0	
1.8367	-22.8051	3.64563	0	
1.8373	-20.6782	3.95175	0	
1.8380	-15.8041	1.8089	0	
1.8387	-12.1411	2.11502	0	
1.8393	-6.94197	5.48236	0	
1.8400	-2.36323	2.11502	0	
1.8407	-0.531726	-2.75509	0	
1.8413	2.51093	-0.333951	0	
1.8420	5.55358	2.11502	0	
1.8427	6.17393	-0.333951	0	
1.8433	7.38508	-0.918365	0	
1.8440	7.71002	0.584414	0	
1.8447	4.63783	1.19666	0	
1.8453	8.00543	0.278292	0	
1.8460	18.0787	-1.83673	0	
1.8467	21.7417	-2.75509	0	
1.8473	19.9102	-1.83673	0	
1.8480	18.0787	-3.36734	0	
1.8487	13.4999	-3.67346	0	
1.8493	8.62577	-1.53061	0	
1.8500	7.08968	-0.918365	0	
1.8507	5.55358	-0.612243	0	
1.8513	4.34243	1.8089	0	
1.8520	4.34243	2.42114	0	
1.8527	3.42668	0.278292	0	
1.8533	3.42668	-1.83673	0	
1.8540	4.04702	-2.44897	0	
1.8547	2.51093	-0.918365	0	
1.8553	-1.15207	0.890535	0	
1.8560	-5.11047	-0.0278292	0	
1.8567	-10.9299	-0.333951	0	
1.8573	-13.9726	0.584414	0	
1.8580	-11.8457	-0.918365	0	
1.8587	-8.47807	-1.83673	0	
1.8593	-5.73082	-0.333951	0	
1.8600	-4.19473	-0.0278292	0	
1.8607	-5.73082	-0.918365	0	
1.8613	-6.02622	-0.0278292	0	
1.8620	-2.68817	-0.918365	0	
1.8627	0.679427	-2.75509	0	
1.8633	2.21552	-0.918365	0	
1.8640	2.51093	3.03339	0	
1.8647	2.51093	4.56399	0	
1.8653	7.38508	1.19666	0	
1.8660	15.3314	-4.59182	0	
1.8667	18.9944	-7.34692	0	
1.8673	18.9944	-4.89795	0	
1.8680	18.699	-2.14285	0	
1.8687	15.3314	-2.14285	0	
1.8693	9.54152	-2.75509	0	
1.8700	4.63783	-1.83673	0	
1.8707	2.51093	-0.0278292	0	
1.8713	1.59518	1.8089	0	
1.8720	-0.856669	2.72726	0	
1.8727	-5.43542	2.72726	0	
1.8733	-10.0142	2.42114	0	
1.8740	-11.5207	2.72726	0	
1.8747	-11.2253	3.64563	0	
1.8753	-13.6772	3.03339	0	
1.8760	-20.3828	0.890535	0	
1.8767	-26.7931	0.584414	0	
1.8773	-26.4681	1.8089	0	
1.8780	-22.8051	1.50278	0	
1.8787	-19.4671	-0.0278292	0	
1.8793	-14.8883	-2.44897	0	
1.8800	-10.3096	-3.67346	0	
1.8807	-8.77347	-1.53061	0	
1.8813	-6.02622	0.890535	0	
1.8820	-0.531726	-0.0278292	0	
1.8827	2.80633	-1.22449	0	
1.8833	2.51093	-1.53061	0	
1.8840	1.29977	-2.75509	0	
1.8847	2.51093	-2.75509	0	
1.8853	7.71002	-2.44897	0	
1.8860	12.8796	-3.67346	0	
1.8867	14.7111	-4.59182	0	
1.8873	14.7111	-3.67346	0	
1.8880	16.2472	-3.97958	0	
1.8887	15.6268	-3.67346	0	
1.8893	11.6684	-0.333951	0	
1.8900	10.4573	1.8089	0	
1.8907	11.6684	0.890535	0	
1.8913	8.92118	1.19666	0	
1.8920	6.17393	3.03339	0	
1.8927	7.08968	3.03339	0	
1.8933	7.08968	1.8089	0	
1.8940	3.13127	-0.612243	0	
1.8947	-2.98357	-3.67346	0	
1.8953	-11.2253	-2.75509	0	
1.8960	-19.1421	0.890535	0	
1.8967	-22.8051	4.56399	0	
1.8973	-21.8894	7.31909	0	
1.8980	-17.931	6.0946	0	
1.8987	-13.0568	1.8089	0	
1.8993	-9.39382	0.890535	0	
1.9000	-7.56232	-0.0278292	0	
1.9007	-8.47807	-3.67346	0	
1.9013	-10.9299	-3.67346	0	
1.9020	-7.56232	-0.333951	0	
1.9027	0.0590806	0.278292	0	
1.9033	4.34243	0.278292	0	
1.9040	5.87852	0.890535	0	
1.9047	9.21658	-0.333951	0	
1.9053	14.4157	-1.22449	0	
1.9060	18.0787	-1.83673	0	
1.9067	20.8259	-3.67346	0	
1.9073	20.5305	-3.06122	0	
1.9080	15.3314	0.890535	0	
1.9087	8.62577	3.95175	0	
1.9093	4.04702	1.8089	0	
1.9100	1.59518	-0.918365	0	
1.9107	-1.15207	1.19666	0	
1.9113	-3.89932	4.25787	0	
1.9120	-3.89932	1.8089	0	
1.9127	-3.27898	-0.918365	0	
1.9133	-4.51967	-0.0278292	0	
1.9140	-7.85772	-1.83673	0	
1.9147	-11.2253	-4.59182	0	
1.9153	-13.0568	-3.06122	0	
1.9160	-15.1837	0.584414	0	
1.9167	-17.6356	1.8089	0	
1.9173	-16.3949	2.11502	0	
1.9180	-13.9726	0.890535	0	
1.9187	-14.8883	-0.918365	0	
1.9193	-14.5929	-0.0278292	0	
1.9200	-10.605	0.278292	0	
1.9207	-7.56232	-1.83673	0	
1.9213	-6.64657	-2.75509	0	
1.9220	-4.51967	-2.75509	0	
1.9227	-2.68817	-3.06122	0	
1.9233	-4.19473	-1.53061	0	
1.9240	-6.02622	0.584414	0	
1.9247	-2.98357	-1.53061	0	
1.9253	4.34243	-4.2857	0	
1.9260	10.1323	-6.12243	0	
1.9267	14.4157	-8.26528	0	
1.9273	18.0787	-8.5714	0	
1.9280	17.4583	-8.26528	0	
1.9287	12.5842	-9.18365	0	
1.9293	11.0481	-7.0408	0	
1.9300	10.7527	-1.83673	0	
1.9307	4.34243	-1.22449	0	
1.9313	-1.15207	-3.06122	0	
1.9320	-2.06782	-0.918365	0	
1.9327	-3.60392	-0.918365	0	
1.9333	-6.64657	-3.67346	0	
1.9340	-6.94197	-3.67346	0	
1.9347	-5.43542	-3.67346	0	
1.9353	-9.09842	-4.59182	0	
1.9360	-18.5513	-5.51019	0	
1.9367	-24.3412	-4.59182	0	
1.9373	-21.594	-1.53061	0	
1.9380	-18.2264	2.42114	0	
1.9387	-17.6356	0.890535	0	
1.9393	-14.8883	-1.83673	0	
1.9400	-10.3096	-0.333951	0	
1.9407	-5.73082	-0.612243	0	
1.9413	-0.856669	-2.75509	0	
1.9420	2.51093	-0.612243	0	
1.9427	5.55358	1.8089	0	
1.9433	8.30083	0.278292	0	
1.9440	8.92118	-0.0278292	0	
1.9447	10.1323	0.890535	0	
1.9453	13.7953	-0.333951	0	
1.9460	18.3741	-2.75509	0	
1.9467	22.6574	-4.2857	0	
1.9473	23.5732	-3.67346	0	
1.9480	20.8259	-0.918365	0	
1.9487	16.2472	-0.0278292	0	
1.9493	11.9638	-0.612243	0	
1.9500	8.00543	0.278292	0	
1.9507	6.79427	1.8089	0	
1.9513	6.17393	4.87012	0	
1.9520	5.25818	7.93133	0	
1.9527	4.34243	5.48236	0	
1.9533	2.21552	-0.918365	0	
1.9540	-0.236323	-4.59182	0	
1.9547	-2.06782	-3.97958	0	
1.9553	-8.47807	0.584414	0	
1.9560	-15.8041	4.87012	0	
1.9567	-18.2264	4.56399	0	
1.9573	-18.5513	3.95175	0	
1.9580	-17.931	5.48236	0	
1.9587	-14.8883	3.03339	0	
1.9593	-12.4365	-0.0278292	0	
1.9600	-10.605	2.11502	0	
1.9607	-5.11047	3.95175	0	
1.9613	-1.15207	3.33951	0	
1.9620	-1.44748	3.95175	0	
1.9627	-0.236323	2.72726	0	
1.9633	2.51093	-0.0278292	0	
1.9640	4.96277	1.8089	0	
1.9647	9.83693	5.17624	0	
1.9653	14.4157	3.33951	0	
1.9660	18.699	1.19666	0	
1.9667	22.6574	1.50278	0	
1.9673	22.6574	0.584414	0	
1.9680	20.5305	-0.918365	0	
1.9687	19.6148	-2.75509	0	
1.9693	13.7953	-2.75509	0	
1.9700	4.63783	-0.918365	0	
1.9707	1.89058	-0.918365	0	
1.9713	0.679427	-2.75509	0	
1.9720	-4.19473	-0.333951	0	
1.9727	-5.11047	2.72726	0	
1.9733	-4.81507	1.8089	0	
1.9740	-7.56232	0.890535	0	
1.9747	-8.47807	3.03339	0	
1.9753	-11.5207	4.87012	0	
1.9760	-21.2986	3.95175	0	
1.9767	-27.3839	2.72726	0	
1.9773	-27.7088	3.03339	0	
1.9780	-27.3839	4.87012	0	
1.9787	-21.8894	5.17624	0	
1.9793	-13.9726	4.56399	0	
1.9800	-11.2253	4.25787	0	
1.9807	-7.56232	1.8089	0	
1.9813	-3.89932	-0.333951	0	
1.9820	-5.73082	1.19666	0	
1.9827	-4.19473	0.890535	0	
1.9833	1.59518	-2.75509	0	
1.9840	2.21552	-2.75509	0	
1.9847	2.21552	-0.333951	0	
1.9853	8.92118	-2.14285	0	
1.9860	15.9518	-4.89795	0	
1.9867	18.9944	-5.51019	0	
1.9873	20.8259	-6.42855	0	
1.9880	19.6148	-6.73467	0	
1.9887	15.6268	-4.89795	0	
1.9893	13.4999	-4.59182	0	
1.9900	11.373	-4.89795	0	
1.9907	7.08968	-2.75509	0	
1.9913	3.42668	-1.53061	0	
1.9920	1.59518	-2.44897	0	
1.9927	-2.98357	-1.83673	0	
1.9933	-7.26692	-0.0278292	0	
1.9940	-7.85772	-2.44897	0	
1.9947	-8.47807	-4.59182	0	
1.9953	-13.0568	-2.75509	0	
1.9960	-19.4671	-0.0278292	0	
1.9967	-24.0458	-1.83673	0	
1.9973	-23.1301	-2.14285	0	
1.9980	-19.4671	0.278292	0	
1.9987	-16.3949	1.50278	0	
1.9993	-11.8457	-0.0278292	0	
2.0000	-8.18267	-0.918365	0	
2.0007	-6.64657	-2.75509	0	
2.0013	-2.68817	-1.83673	0	
2.0020	0.97483	1.8089	0	
2.0027	0.97483	2.72726	0	
2.0033	4.34243	0.584414	0	
2.0040	9.83693	-0.0278292	0	
2.0047	10.4573	-1.53061	0	
2.0053	11.373	-3.06122	0	
2.0060	15.036	-0.918365	0	
2.0067	15.3314	0.278292	0	
2.0073	16.2472	-1.83673	0	
2.0080	18.699	0.278292	0	
2.0087	15.3314	3.64563	0	
2.0093	10.7527	2.42114	0	
2.0100	10.1323	1.8089	0	
2.0107	5.55358	4.25787	0	
2.0113	-2.06782	4.25787	0	
2.0120	-3.89932	3.03339	0	
2.0127	-3.89932	3.64563	0	
2.0133	-6.94197	4.56399	0	
2.0140	-8.47807	5.48236	0	
2.0147	-8.18267	4.87012	0	
2.0153	-10.3096	3.03339	0	
2.0160	-13.6772	2.72726	0	
2.0167	-14.8883	2.72726	0	
2.0173	-13.0568	0.890535	0	
2.0180	-7.56232	-0.918365	0	
2.0187	-3.60392	-0.333951	0	
2.0193	-2.98357	0.278292	0	
2.0200	-0.856669	0.584414	0	
2.0207	2.51093	0.278292	0	
2.0213	1.59518	-0.612243	0	
2.0220	0.384024	-0.333951	0	
2.0227	1.89058	0.890535	0	
2.0233	4.96277	1.8089	0	
2.0240	8.00543	1.8089	0	
2.0247	8.30083	-0.0278292	0	
2.0253	6.46933	-1.22449	0	
2.0260	9.21658	-2.44897	0	
2.0267	15.036	-5.51019	0	
2.0273	15.036	-7.0408	0	
2.0280	10.1323	-3.97958	0	
2.0287	6.79427	-1.83673	0	
2.0293	4.63783	-1.83673	0	
2.0300	2.51093	-0.612243	0	
2.0307	0.97483	0.278292	0	
2.0313	-0.856669	1.19666	0	
2.0320	-2.98357	4.56399	0	
2.0327	-5.73082	5.78848	0	
2.0333	-6.02622	1.8089	0	
2.0340	-4.81507	-1.53061	0	
2.0347	-5.73082	-1.22449	0	
2.0353	-10.3096	0.278292	0	
2.0360	-16.3949	1.8089	0	
2.0367	-20.3828	2.72726	0	
2.0373	-19.7625	3.64563	0	
2.0380	-17.3106	3.64563	0	
2.0387	-14.5929	1.50278	0	
2.0393	-10.3096	-0.918365	0	
2.0400	-4.81507	-1.53061	0	
2.0407	-1.15207	-2.14285	0	
2.0413	0.97483	-2.75509	0	
2.0420	3.42668	-1.83673	0	
2.0427	4.34243	-0.0278292	0	
2.0433	5.55358	0.890535	0	
2.0440	7.38508	-0.0278292	0	
2.0447	8.00543	-1.83673	0	
2.0453	13.4999	-3.97958	0	
2.0460	26.9112	-5.20407	0	
2.0467	37.9002	-4.59182	0	
2.0473	38.2252	-5.20407	0	
2.0480	33.6464	-6.42855	0	
2.0487	27.2362	-3.67346	0	
2.0493	18.9944	0.278292	0	
2.0500	16.2472	-0.918365	0	
2.0507	13.4999	-0.333951	0	
2.0513	1.89058	3.64563	0	
2.0520	-10.3096	2.72726	0	
2.0527	-13.0568	0.584414	0	
2.0533	-12.7614	1.8089	0	
2.0540	-13.9726	0.890535	0	
2.0547	-14.5929	-0.918365	0	
2.0553	-18.2264	-0.333951	0	
2.0560	-23.4255	0.278292	0	
2.0567	-24.3412	0.584414	0	
2.0573	-23.1301	0.278292	0	
2.0580	-22.5097	-1.53061	0	
2.0587	-17.931	-1.83673	0	
2.0593	-10.9299	-0.918365	0	
2.0600	-8.18267	-4.2857	0	
2.0607	-7.26692	-7.95916	0	
2.0613	-2.98357	-6.12243	0	
2.0620	0.97483	-4.89795	0	
2.0627	1.59518	-8.26528	0	
2.0633	2.51093	-8.26528	0	
2.0640	6.79427	-5.20407	0	
2.0647	9.83693	-5.51019	0	
2.0653	11.6684	-7.65304	0	
2.0660	18.9944	-7.95916	0	
2.0667	25.4047	-7.34692	0	
2.0673	23.8686	-8.26528	0	
2.0680	19.6148	-7.34692	0	
2.0687	17.4583	-5.51019	0	
2.0693	13.4999	-4.89795	0	
2.0700	6.79427	-4.59182	0	
2.0707	2.51093	-3.06122	0	
2.0713	-2.06782	-2.14285	0	
2.0720	-7.85772	-1.83673	0	
2.0727	-10.605	0.890535	0	
2.0733	-12.1411	4.25787	0	
2.0740	-13.0568	3.03339	0	
2.0747	-11.2253	1.19666	0	
2.0753	-12.7614	4.56399	0	
2.0760	-20.0579	7.93133	0	
2.0767	-23.1301	6.0946	0	
2.0773	-21.2986	3.64563	0	
2.0780	-20.3828	3.03339	0	
2.0787	-16.3949	2.72726	0	
2.0793	-9.39382	2.42114	0	
2.0800	-6.35117	3.03339	0	
2.0807	-5.11047	3.33951	0	
2.0813	-1.15207	2.42114	0	
2.0820	2.51093	0.890535	0	
2.0827	4.63783	0.890535	0	
2.0833	6.79427	0.890535	0	
2.0840	5.87852	-0.612243	0	
2.0847	3.42668	0.584414	0	
2.0853	5.25818	3.03339	0	
2.0860	9.83693	1.50278	0	
2.0867	10.7527	-0.333951	0	
2.0873	8.62577	2.11502	0	
2.0880	9.83693	1.8089	0	
2.0887	11.0481	-1.22449	0	
2.0893	8.00543	1.19666	0	
2.0900	3.72208	4.25787	0	
2.0907	0.679427	1.8089	0	
2.0913	-2.06782	1.19666	0	
2.0920	-2.98357	2.42114	0	
2.0927	-4.81507	-0.0278292	0	
2.0933	-8.77347	-1.53061	0	
2.0940	-10.0142	0.584414	0	
2.0947	-7.85772	0.278292	0	
2.0953	-11.2253	0.890535	0	
2.0960	-17.0152	4.87012	0	
2.0967	-18.5513	5.78848	0	
2.0973	-17.3106	3.95175	0	
2.0980	-14.8883	2.72726	0	
2.0987	-11.5207	0.584414	0	
2.0993	-9.39382	-0.333951	0	
2.1000	-6.02622	0.584414	0	
2.1007	-0.236323	-0.333951	0	
2.1013	3.13127	-1.83673	0	
2.1020	3.42668	-3.06122	0	
2.1027	4.63783	-5.20407	0	
2.1033	6.46933	-6.12243	0	
2.1040	8.30083	-3.67346	0	
2.1047	10.7527	-3.36734	0	
2.1053	15.036	-4.59182	0	
2.1060	20.5305	-4.59182	0	
2.1067	24.1935	-3.67346	0	
2.1073	24.7843	-3.67346	0	
2.1080	24.4889	-1.83673	0	
2.1087	21.4463	0.890535	0	
2.1093	15.9518	2.11502	0	
2.1100	11.0481	0.890535	0	
2.1107	6.17393	-0.918365	0	
2.1113	0.0590806	-0.0278292	0	
2.1120	-3.27898	1.50278	0	
2.1127	-6.02622	1.8089	0	
2.1133	-11.8457	2.42114	0	
2.1140	-13.3522	4.25787	0	
2.1147	-11.8457	3.33951	0	
2.1153	-16.7198	0.278292	0	
2.1160	-24.9616	1.8089	0	
2.1167	-27.0885	5.78848	0	
2.1173	-24.3412	5.78848	0	
2.1180	-20.3828	3.33951	0	
2.1187	-14.5929	3.64563	0	
2.1193	-8.47807	5.48236	0	
2.1200	-2.06782	5.48236	0	
2.1207	4.96277	4.56399	0	
2.1213	8.00543	2.72726	0	
2.1220	8.00543	1.19666	0	
2.1227	9.83693	1.8089	0	
2.1233	11.6684	3.64563	0	
2.1240	8.62577	4.56399	0	
2.1247	5.87852	2.72726	0	
2.1253	11.6684	-2.14285	0	
2.1260	20.5305	-4.59182	0	
2.1267	23.5732	-1.83673	0	
2.1273	22.362	-0.333951	0	
2.1280	21.4463	-1.83673	0	
2.1287	18.0787	-0.918365	0	
2.1293	11.6684	1.8089	0	
2.1300	6.46933	0.278292	0	
2.1307	3.72208	-0.612243	0	
2.1313	-0.236323	-0.333951	0	
2.1320	-3.89932	-1.83673	0	
2.1327	-3.89932	-1.53061	0	
2.1333	-2.98357	1.50278	0	
2.1340	-4.81507	2.42114	0	
2.1347	-7.56232	1.8089	0	
2.1353	-11.2253	4.25787	0	
2.1360	-16.7198	7.31909	0	
2.1367	-18.8467	8.54357	0	
2.1373	-16.0995	8.23745	0	
2.1380	-13.9726	6.0946	0	
2.1387	-13.0568	2.72726	0	
2.1393	-9.39382	-1.53061	0	
2.1400	-3.27898	-3.67346	0	
2.1407	0.0590806	-2.14285	0	
2.1413	0.679427	-0.918365	0	
2.1420	2.51093	-3.06122	0	
2.1427	5.55358	-3.36734	0	
2.1433	6.46933	-1.22449	0	
2.1440	5.87852	-1.53061	0	
2.1447	9.21658	-3.67346	0	
2.1453	16.2472	-5.20407	0	
2.1460	21.7417	-3.67346	0	
2.1467	24.1935	-3.06122	0	
2.1473	23.5732	-4.89795	0	
2.1480	20.8259	-7.34692	0	
2.1487	17.7833	-6.73467	0	
2.1493	14.4157	-6.12243	0	
2.1500	9.83693	-5.51019	0	
2.1507	6.17393	-2.75509	0	
2.1513	4.34243	1.50278	0	
2.1520	1.29977	4.56399	0	
2.1527	-1.77242	3.95175	0	
2.1533	-0.236323	0.890535	0	
2.1540	1.29977	-0.918365	0	
2.1547	-5.11047	0.890535	0	
2.1553	-15.8041	2.72726	0	
2.1560	-20.6782	3.33951	0	
2.1567	-22.5097	2.42114	0	
2.1573	-26.1727	0.890535	0	
2.1580	-26.4681	0.890535	0	
2.1587	-24.0458	0.890535	0	
2.1593	-23.4255	-0.0278292	0	
2.1600	-20.0579	-0.0278292	0	
2.1607	-12.1411	-1.22449	0	
2.1613	-9.09842	-4.89795	0	
2.1620	-9.09842	-6.42855	0	
2.1627	-4.81507	-4.89795	0	
2.1633	-1.15207	-5.81631	0	
2.1640	-1.77242	-7.34692	0	
2.1647	1.29977	-6.73467	0	
2.1653	8.62577	-6.42855	0	
2.1660	14.7111	-5.51019	0	
2.1667	17.4583	-5.51019	0	
2.1673	17.7833	-8.26528	0	
2.1680	15.6268	-7.95916	0	
2.1687	10.7527	-4.59182	0	
2.1693	4.34243	-4.59182	0	
2.1700	0.679427	-3.67346	0	
2.1707	0.97483	0.278292	0	
2.1713	1.59518	0.890535	0	
2.1720	0.384024	-0.612243	0	
2.1727	-3.89932	1.8089	0	
2.1733	-7.56232	4.25787	0	
2.1740	-6.64657	3.64563	0	
2.1747	-7.56232	2.72726	0	
2.1753	-16.7198	2.72726	0	
2.1760	-26.4681	3.64563	0	
2.1767	-27.7088	4.87012	0	
2.1773	-24.3412	3.64563	0	
2.1780	-20.0579	2.11502	0	
2.1787	-16.3949	2.42114	0	
2.1793	-12.1411	0.890535	0	
2.1800	-6.02622	-0.612243	0	
2.1807	-1.77242	1.50278	0	
2.1813	-1.77242	2.11502	0	
2.1820	-0.856669	-1.83673	0	
2.1827	2.51093	-1.83673	0	
2.1833	4.34243	0.890535	0	
2.1840	4.63783	1.19666	0	
2.1847	7.71002	2.11502	0	
2.1853	12.2888	4.25787	0	
2.1860	16.2472	0.890535	0	
2.1867	19.2898	-2.44897	0	
2.1873	21.1213	-2.75509	0	
2.1880	20.2056	-3.97958	0	
2.1887	15.9518	-3.97958	0	
2.1893	9.83693	-1.83673	0	
2.1900	6.17393	-3.67346	0	
2.1907	5.25818	-5.51019	0	
2.1913	3.13127	-2.44897	0	
2.1920	0.0590806	-0.612243	0	
2.1927	-2.98357	-0.918365	0	
2.1933	-4.81507	0.890535	0	
2.1940	-6.35117	1.19666	0	
2.1947	-7.26692	0.890535	0	
2.1953	-11.2253	5.17624	0	
2.1960	-17.6356	6.40072	0	
2.1967	-20.3828	2.72726	0	
2.1973	-17.6356	2.42114	0	
2.1980	-13.9726	3.95175	0	
2.1987	-10.3096	0.890535	0	
2.1993	-6.35117	-0.918365	0	
2.2000	-3.27898	-0.0278292	0	
2.2007	-0.531726	-2.75509	0	
2.2013	1.89058	-3.67346	0	
2.2020	3.42668	-0.0278292	0	
2.2027	4.34243	-0.333951	0	
2.2033	4.34243	-5.20407	0	
2.2040	4.04702	-6.12243	0	
2.2047	7.38508	-3.97958	0	
2.2053	11.9638	-5.20407	0	
2.2060	15.6268	-6.73467	0	
2.2067	19.6148	-4.2857	0	
2.2073	20.8259	-0.0278292	0	
2.2080	17.1629	1.50278	0	
2.2087	14.7111	0.278292	0	
2.2093	13.4999	-0.333951	0	
2.2100	8.92118	0.278292	0	
2.2107	2.51093	0.584414	0	
2.2113	-0.531726	-0.333951	0	
2.2120	-2.68817	-1.83673	0	
2.2127	-4.19473	-1.53061	0	
2.2133	-6.02622	2.72726	0	
2.2140	-7.26692	3.95175	0	
2.2147	-8.47807	-1.22449	0	
2.2153	-13.0568	-3.67346	0	
2.2160	-20.3828	-0.333951	0	
2.2167	-23.1301	1.19666	0	
2.2173	-20.9736	-0.918365	0	
2.2180	-18.8467	-0.612243	0	
2.2187	-17.0152	0.890535	0	
2.2193	-13.0568	0.890535	0	
2.2200	-9.39382	0.584414	0	
2.2207	-5.73082	1.19666	0	
2.2213	-2.36323	-0.333951	0	
2.2220	1.59518	-3.36734	0	
2.2227	5.55358	-3.97958	0	
2.2233	7.71002	-5.20407	0	
2.2240	8.00543	-8.87753	0	
2.2247	8.00543	-7.95916	0	
2.2253	6.46933	-3.36734	0	
2.2260	8.00543	-3.67346	0	
2.2267	15.3314	-6.73467	0	
2.2273	18.0787	-4.2857	0	
2.2280	14.4157	-2.14285	0	
2.2287	9.21658	-4.89795	0	
2.2293	4.96277	-6.73467	0	
2.2300	1.89058	-4.59182	0	
2.2307	1.29977	-0.918365	0	
2.2313	0.97483	2.72726	0	
2.2320	-1.44748	2.11502	0	
2.2327	-5.11047	-0.0278292	0	
2.2333	-6.35117	2.11502	0	
2.2340	-2.98357	6.0946	0	
2.2347	-2.36323	6.70685	0	
2.2353	-9.68922	6.40072	0	
2.2360	-18.5513	7.31909	0	
2.2367	-20.9736	7.93133	0	
2.2373	-18.5513	6.40072	0	
2.2380	-15.5087	3.64563	0	
2.2387	-12.1411	2.11502	0	
2.2393	-7.56232	3.33951	0	
2.2400	-3.89932	3.03339	0	
2.2407	0.0590806	-1.22449	0	
2.2413	4.04702	-3.36734	0	
2.2420	6.17393	-0.918365	0	
2.2427	8.00543	-1.83673	0	
2.2433	10.7527	-6.42855	0	
2.2440	8.92118	-6.42855	0	
2.2447	4.63783	-2.75509	0	
2.2453	9.21658	-2.75509	0	
2.2460	19.6148	-4.89795	0	
2.2467	22.6574	-5.51019	0	
2.2473	20.8259	-4.89795	0	
2.2480	21.1213	-2.75509	0	
2.2487	18.9944	-0.612243	0	
2.2493	14.1203	-0.0278292	0	
2.2500	9.83693	0.890535	0	
2.2507	5.25818	2.72726	0	
2.2513	1.59518	3.64563	0	
2.2520	0.97483	3.33951	0	
2.2527	-0.236323	1.50278	0	
2.2533	-7.56232	0.584414	0	
2.2540	-13.3522	2.11502	0	
2.2547	-13.9726	3.33951	0	
2.2553	-16.7198	3.64563	0	
2.2560	-23.1301	5.48236	0	
2.2567	-23.7209	5.78848	0	
2.2573	-20.3828	3.03339	0	
2.2580	-20.0579	2.11502	0	
2.2587	-17.6356	2.72726	0	
2.2593	-14.268	0.890535	0	
2.2600	-11.8457	-0.918365	0	
2.2607	-6.64657	-1.83673	0	
2.2613	-3.89932	-2.44897	0	
2.2620	-3.89932	-1.83673	0	
2.2627	1.59518	-0.918365	0	
2.2633	7.71002	-1.83673	0	
2.2640	4.96277	-3.06122	0	
2.2647	5.25818	-3.67346	0	
2.2653	15.6268	-3.67346	0	
2.2660	22.6574	-3.67346	0	
2.2667	20.8259	-3.36734	0	
2.2673	17.1629	-3.97958	0	
2.2680	14.7111	-3.97958	0	
2.2687	14.4157	-2.75509	0	
2.2693	12.5842	-3.06122	0	
2.2700	6.79427	-3.06122	0	
2.2707	2.51093	-0.0278292	0	
2.2713	-0.236323	1.19666	0	
2.2720	-4.19473	-0.918365	0	
2.2727	-5.73082	-1.53061	0	
2.2733	-6.64657	0.278292	0	
2.2740	-9.39382	1.19666	0	
2.2747	-9.39382	2.42114	0	
2.2753	-10.0142	3.33951	0	
2.2760	-14.8883	2.72726	0	
2.2767	-17.0152	2.72726	0	
2.2773	-14.268	1.8089	0	
2.2780	-13.0568	-0.0278292	0	
2.2787	-10.3096	2.11502	0	
2.2793	-3.89932	6.40072	0	
2.2800	-0.236323	5.48236	0	
2.2807	1.29977	2.72726	0	
2.2813	1.89058	2.11502	0	
2.2820	-0.856669	2.72726	0	
2.2827	-2.06782	1.8089	0	
2.2833	1.29977	-1.53061	0	
2.2840	3.13127	-3.06122	0	
2.2847	5.25818	-1.83673	0	
2.2853	12.2888	-0.918365	0	
2.2860	19.6148	-2.14285	0	
2.2867	21.4463	-2.14285	0	
2.2873	20.8259	0.890535	0	
2.2880	18.9944	3.03339	0	
2.2887	15.3314	0.890535	0	
2.2893	11.6684	-1.83673	0	
2.2900	7.08968	1.50278	0	
2.2907	3.42668	4.87012	0	
2.2913	1.59518	3.33951	0	
2.2920	-0.236323	2.42114	0	
2.2927	-1.77242	3.33951	0	
2.2933	-3.60392	0.890535	0	
2.2940	-8.18267	-1.83673	0	
2.2947	-12.1411	-0.0278292	0	
2.2953	-13.3522	1.8089	0	
2.2960	-17.6356	-0.0278292	0	
2.2967	-23.1301	-0.612243	0	
2.2973	-22.5097	2.72726	0	
2.2980	-17.931	4.87012	0	
2.2987	-14.268	1.50278	0	
2.2993	-12.1411	-3.06122	0	
2.3000	-10.0142	-3.36734	0	
2.3007	-6.64657	-2.75509	0	
2.3013	-1.15207	-3.06122	0	
2.3020	1.59518	-1.83673	0	
2.3027	1.59518	-0.918365	0	
2.3033	3.13127	-1.22449	0	
2.3040	4.63783	-0.918365	0	
2.3047	5.25818	-0.918365	0	
2.3053	11.373	-2.75509	0	
2.3060	19.6148	-3.97958	0	
2.3067	21.4463	-3.67346	0	
2.3073	18.9944	-3.67346	0	
2.3080	18.3741	-2.44897	0	
2.3087	17.1629	-0.918365	0	
2.3093	11.373	-0.333951	0	
2.3100	5.25818	0.278292	0	
2.3107	0.384024	1.8089	0	
2.3113	-2.98357	1.8089	0	
2.3120	-5.73082	0.890535	0	
2.3127	-8.18267	2.11502	0	
2.3133	-10.3096	4.56399	0	
2.3140	-11.2253	2.72726	0	
2.3147	-12.7614	0.584414	0	
2.3153	-17.3106	3.33951	0	
2.3160	-21.2986	5.17624	0	
2.3167	-23.1301	2.72726	0	
2.3173	-22.2143	1.8089	0	
2.3180	-20.3828	2.72726	0	
2.3187	-19.4671	0.278292	0	
2.3193	-16.7198	-1.83673	0	
2.3200	-10.3096	-0.612243	0	
2.3207	-3.89932	0.890535	0	
2.3213	-1.77242	-0.0278292	0	
2.3220	0.0590806	-0.918365	0	
2.3227	2.21552	0.584414	0	
2.3233	1.29977	0.584414	0	
2.3240	1.59518	-1.22449	0	
2.3247	7.71002	-2.75509	0	
2.3253	14.7111	-3.67346	0	
2.3260	17.7833	-4.59182	0	
2.3267	16.5426	-4.89795	0	
2.3273	14.1203	-4.89795	0	
2.3280	13.2045	-4.89795	0	
2.3287	13.4999	-3.06122	0	
2.3293	11.6684	-0.918365	0	
2.3300	7.38508	-0.918365	0	
2.3307	2.51093	0.278292	0	
2.3313	-1.15207	2.72726	0	
2.3320	-1.44748	0.890535	0	
2.3327	-1.44748	-0.918365	0	
2.3333	-4.19473	1.8089	0	
2.3340	-5.73082	2.42114	0	
2.3347	-6.02622	-0.0278292	0	
2.3353	-10.9299	0.890535	0	
2.3360	-17.6356	3.95175	0	
2.3367	-20.6782	4.56399	0	
2.3373	-20.9736	3.33951	0	
2.3380	-18.2264	2.42114	0	
2.3387	-12.1411	1.50278	0	
2.3393	-7.56232	0.890535	0	
2.3400	-6.02622	0.278292	0	
2.3407	-2.68817	-1.53061	0	
2.3413	1.59518	-3.36734	0	
2.3420	2.21552	-3.36734	0	
2.3427	2.51093	-3.67346	0	
2.3433	3.72208	-5.20407	0	
2.3440	1.59518	-4.89795	0	
2.3447	1.29977	-0.918365	0	
2.3453	9.54152	-0.333951	0	
2.3460	17.1629	-4.59182	0	
2.3467	18.3741	-5.51019	0	
2.3473	18.699	-3.97958	0	
2.3480	15.3314	-8.26528	0	
2.3487	9.21658	-11.6048	0	
2.3493	8.00543	-5.81631	0	
2.3500	9.21658	-1.53061	0	
2.3507	5.55358	-2.75509	0	
2.3513	3.42668	-1.83673	0	
2.3520	3.72208	1.8089	0	
2.3527	0.679427	1.19666	0	
2.3533	-1.15207	0.890535	0	
2.3540	-1.15207	2.72726	0	
2.3547	-6.94197	2.72726	0	
2.3553	-13.9726	2.72726	0	
2.3560	-17.0152	3.95175	0	
2.3567	-18.5513	1.8089	0	
2.3573	-17.6356	-1.22449	0	
2.3580	-15.1837	0.584414	0	
2.3587	-12.1411	3.03339	0	
2.3593	-6.94197	3.03339	0	
2.3600	-2.98357	4.25787	0	
2.3607	-2.98357	6.0946	0	
2.3613	0.97483	5.48236	0	
2.3620	8.00543	4.25787	0	
2.3627	12.2888	4.56399	0	
2.3633	13.4999	4.87012	0	
2.3640	14.4157	3.95175	0	
2.3647	15.6268	-0.0278292	0	
2.3653	20.8259	-2.75509	0	
2.3660	28.7427	-1.83673	0	
2.3667	30.8992	-1.22449	0	
2.3673	24.7843	-4.89795	0	
2.3680	16.5426	-8.87753	0	
2.3687	11.373	-7.65304	0	
2.3693	7.08968	-4.2857	0	
2.3700	2.51093	-2.75509	0	
2.3707	-0.531726	-2.75509	0	
2.3713	-2.06782	-1.83673	0	
2.3720	-3.27898	-0.333951	0	
2.3727	-4.19473	-0.612243	0	
2.3733	-3.60392	0.278292	0	
2.3740	-3.89932	0.890535	0	
2.3747	-6.64657	0.278292	0	
2.3753	-12.1411	1.8089	0	
2.3760	-17.931	3.03339	0	
2.3767	-21.594	0.278292	0	
2.3773	-22.2143	-0.333951	0	
2.3780	-20.9736	3.64563	0	
2.3787	-16.7198	3.64563	0	
2.3793	-10.605	-0.612243	0	
2.3800	-6.64657	-1.22449	0	
2.3807	-4.81507	0.278292	0	
2.3813	-0.531726	-0.333951	0	
2.3820	3.72208	-0.612243	0	
2.3827	5.55358	1.8089	0	
2.3833	7.38508	1.19666	0	
2.3840	9.54152	-2.14285	0	
2.3847	8.00543	-3.67346	0	
2.3853	8.00543	-3.67346	0	
2.3860	16.2472	-3.97958	0	
2.3867	24.4889	-3.36734	0	
2.3873	24.1935	-1.22449	0	
2.3880	18.0787	0.278292	0	
2.3887	12.5842	1.50278	0	
2.3893	9.21658	1.50278	0	
2.3900	5.25818	0.278292	0	
2.3907	-0.531726	1.19666	0	
2.3913	-6.02622	3.03339	0	
2.3920	-8.47807	1.8089	0	
2.3927	-11.2253	-1.22449	0	
2.3933	-14.5929	-2.44897	0	
2.3940	-15.5087	-2.14285	0	
2.3947	-16.3949	-1.53061	0	
2.3953	-20.6782	0.890535	0	
2.3960	-23.4255	2.42114	0	
2.3967	-23.4255	2.72726	0	
2.3973	-23.4255	2.72726	0	
2.3980	-20.0579	1.8089	0	
2.3987	-12.7614	1.50278	0	
2.3993	-8.47807	2.42114	0	
2.4000	-6.94197	2.11502	0	
2.4007	-2.98357	0.278292	0	
2.4013	0.679427	-0.0278292	0	
2.4020	2.51093	0.278292	0	
2.4027	4.63783	-0.918365	0	
2.4033	6.17393	-0.918365	0	
2.4040	5.87852	-0.333951	0	
2.4047	9.54152	-1.83673	0	
2.4053	16.2472	-3.36734	0	
2.4060	18.0787	-5.20407	0	
2.4067	17.4583	-7.34692	0	
2.4073	18.699	-4.89795	0	
2.4080	18.3741	-1.22449	0	
2.4087	13.2045	-3.36734	0	
2.4093	7.71002	-6.42855	0	
2.4100	4.04702	-6.42855	0	
2.4107	1.59518	-6.73467	0	
2.4113	1.29977	-7.0408	0	
2.4120	-0.236323	-6.42855	0	
2.4127	-3.89932	-5.51019	0	
2.4133	-3.89932	-3.67346	0	
2.4140	-2.06782	-0.918365	0	
2.4147	-6.35117	-0.0278292	0	
2.4153	-12.7614	-0.0278292	0	
2.4160	-16.7198	-0.0278292	0	
2.4167	-20.3828	0.890535	0	
2.4173	-22.8051	4.25787	0	
2.4180	-19.4671	5.17624	0	
2.4187	-12.4365	2.72726	0	
2.4193	-6.64657	2.72726	0	
2.4200	-2.36323	3.64563	0	
2.4207	2.51093	1.50278	0	
2.4213	7.71002	-0.333951	0	
2.4220	10.1323	-0.0278292	0	
2.4227	11.373	-0.0278292	0	
2.4233	12.5842	0.890535	0	
2.4240	12.8796	-0.0278292	0	
2.4247	13.4999	-1.83673	0	
2.4253	16.2472	-0.918365	0	
2.4260	17.4583	1.8089	0	
2.4267	17.1629	0.584414	0	
2.4273	18.9944	-1.22449	0	
2.4280	18.3741	-0.612243	0	
2.4287	14.7111	1.19666	0	
2.4293	12.8796	0.584414	0	
2.4300	9.83693	-2.44897	0	
2.4307	3.72208	-3.06122	0	
2.4313	-0.236323	-0.918365	0	
2.4320	-2.36323	-1.53061	0	
2.4327	-5.11047	-3.06122	0	
2.4333	-6.02622	-0.333951	0	
2.4340	-6.64657	1.8089	0	
2.4347	-12.7614	1.8089	0	
2.4353	-20.3828	3.33951	0	
2.4360	-23.4255	4.56399	0	
2.4367	-23.4255	2.11502	0	
2.4373	-23.1301	1.8089	0	
2.4380	-20.3828	3.64563	0	
2.4387	-15.8041	3.64563	0	
2.4393	-12.4365	2.72726	0	
2.4400	-9.09842	1.8089	0	
2.4407	-6.02622	1.19666	0	
2.4413	-5.73082	2.72726	0	
2.4420	-2.98357	3.64563	0	
2.4427	1.29977	2.72726	0	
2.4433	0.0590806	2.72726	0	
2.4440	-1.15207	3.03339	0	
2.4447	4.96277	2.11502	0	
2.4453	13.2045	1.8089	0	
2.4460	19.9102	-0.918365	0	
2.4467	23.5732	-4.59182	0	
2.4473	20.2056	-3.67346	0	
2.4480	16.2472	-1.83673	0	
2.4487	15.036	-1.53061	0	
2.4493	9.21658	2.42114	0	
2.4500	3.13127	5.48236	0	
2.4507	3.42668	3.33951	0	
2.4513	1.29977	0.584414	0	
2.4520	-5.73082	-0.333951	0	
2.4527	-6.35117	-1.22449	0	
2.4533	-5.73082	0.584414	0	
2.4540	-10.0142	0.890535	0	
2.4547	-13.9726	-3.67346	0	
2.4553	-17.6356	-4.59182	0	
2.4560	-23.7209	0.278292	0	
2.4567	-26.7931	1.8089	0	
2.4573	-24.6366	-1.53061	0	
2.4580	-19.7625	-2.75509	0	
2.4587	-16.3949	-1.83673	0	
2.4593	-12.7614	-0.918365	0	
2.4600	-4.81507	-1.53061	0	
2.4607	1.59518	-3.67346	0	
2.4613	-0.236323	-3.97958	0	
2.4620	-1.15207	-3.36734	0	
2.4627	3.13127	-3.67346	0	
2.4633	5.25818	-3.36734	0	
2.4640	4.63783	-1.83673	0	
2.4647	9.83693	-3.67346	0	
2.4653	17.1629	-6.12243	0	
2.4660	21.7417	-4.59182	0	
2.4667	23.8686	-4.89795	0	
2.4673	22.6574	-6.12243	0	
2.4680	15.9518	-2.75509	0	
2.4687	8.92118	-2.14285	0	
2.4693	6.46933	-5.51019	0	
2.4700	5.25818	-4.59182	0	
2.4707	1.89058	0.278292	0	
2.4713	-1.15207	3.03339	0	
2.4720	-3.27898	3.03339	0	
2.4727	-6.02622	1.8089	0	
2.4733	-7.56232	2.42114	0	
2.4740	-7.56232	4.56399	0	
2.4747	-11.5207	3.64563	0	
2.4753	-19.1421	3.03339	0	
2.4760	-22.2143	7.01297	0	
2.4767	-20.3828	8.23745	0	
2.4773	-20.3828	3.95175	0	
2.4780	-22.2143	1.50278	0	
2.4787	-19.4671	0.890535	0	
2.4793	-12.1411	-0.333951	0	
2.4800	-5.43542	-0.0278292	0	
2.4807	-2.36323	1.19666	0	
2.4813	-2.06782	-1.22449	0	
2.4820	-0.236323	-3.67346	0	
2.4827	4.63783	-1.83673	0	
2.4833	9.54152	-0.0278292	0	
2.4840	10.1323	-3.67346	0	
2.4847	11.373	-7.95916	0	
2.4853	17.1629	-8.26528	0	
2.4860	21.1213	-7.95916	0	
2.4867	19.2898	-7.34692	0	
2.4873	17.1629	-3.97958	0	
2.4880	15.036	-1.53061	0	
2.4887	10.7527	-1.83673	0	
2.4893	7.71002	-0.333951	0	
2.4900	6.46933	3.03339	0	
2.4907	3.42668	3.03339	0	
2.4913	0.679427	1.50278	0	
2.4920	-0.236323	3.33951	0	
2.4927	-1.44748	5.17624	0	
2.4933	-2.06782	3.33951	0	
2.4940	-2.36323	2.11502	0	
2.4947	-7.56232	2.72726	0	
2.4953	-15.8041	-0.0278292	0	
2.4960	-20.0579	-2.44897	0	
2.4967	-21.594	-1.22449	0	
2.4973	-24.6366	-0.918365	0	
2.4980	-24.0458	-2.14285	0	
2.4987	-16.0995	-2.44897	0	
2.4993	-11.2253	-1.53061	0	
2.5000	-9.39382	-0.918365	0	
2.5007	-3.89932	-1.22449	0	
2.5013	2.21552	-3.36734	0	
2.5020	2.21552	-3.06122	0	
2.5027	3.72208	-1.22449	0	
2.5033	8.62577	-3.36734	0	
2.5040	7.71002	-3.67346	0	
2.5047	5.25818	0.890535	0	
2.5053	7.71002	1.8089	0	
2.5060	13.7953	-4.2857	0	
2.5067	19.9102	-6.73467	0	
2.5073	20.8259	-4.59182	0	
2.5080	14.4157	-5.81631	0	
2.5087	7.71002	-6.42855	0	
2.5093	5.25818	-4.2857	0	
2.5100	0.679427	-3.67346	0	
2.5107	-6.35117	-4.59182	0	
2.5113	-6.64657	-3.67346	0	
2.5120	-4.81507	-1.53061	0	
2.5127	-7.85772	0.584414	0	
2.5133	-8.47807	3.64563	0	
2.5140	-5.73082	4.25787	0	
2.5147	-8.47807	3.64563	0	
2.5153	-14.8883	4.56399	0	
2.5160	-17.931	5.78848	0	
2.5167	-21.594	5.78848	0	
2.5173	-21.594	4.56399	0	
2.5180	-14.8883	4.56399	0	
2.5187	-12.1411	5.17624	0	
2.5193	-13.6772	3.64563	0	
2.5200	-9.39382	-1.83673	0	
2.5207	-2.06782	-1.83673	0	
2.5213	0.679427	3.64563	0	
2.5220	3.13127	4.25787	0	
2.5227	6.79427	-0.918365	0	
2.5233	9.21658	-1.22449	0	
2.5240	10.7527	0.890535	0	
2.5247	12.2888	0.890535	0	
2.5253	17.1629	0.584414	0	
2.5260	25.0797	-0.333951	0	
2.5267	28.1519	-2.14285	0	
2.5273	24.1935	-1.53061	0	
2.5280	18.9944	1.19666	0	
2.5287	15.3314	2.42114	0	
2.5293	13.7953	2.42114	0	
2.5300	11.6684	4.56399	0	
2.5307	6.17393	6.70685	0	
2.5313	3.42668	7.31909	0	
2.5320	2.80633	6.40072	0	
2.5327	-0.236323	5.48236	0	
2.5333	-3.60392	6.40072	0	
2.5340	-2.06782	7.31909	0	
2.5347	-2.98357	6.40072	0	
2.5353	-10.605	3.33951	0	
2.5360	-17.0152	1.8089	0	
2.5367	-18.2264	1.19666	0	
2.5373	-18.2264	1.8089	0	
2.5380	-16.7198	2.72726	0	
2.5387	-11.2253	0.584414	0	
2.5393	-5.11047	-2.75509	0	
2.5400	0.0590806	-2.75509	0	
2.5407	4.63783	-1.22449	0	
2.5413	7.08968	-1.22449	0	
2.5420	7.71002	-0.918365	0	
2.5427	8.92118	-1.83673	0	
2.5433	11.373	-4.2857	0	
2.5440	12.5842	-3.97958	0	
2.5447	13.4999	-1.83673	0	
2.5453	17.1629	-2.14285	0	
2.5460	22.362	-4.2857	0	
2.5467	23.8686	-6.42855	0	
2.5473	21.7417	-5.81631	0	
2.5480	20.5305	-2.14285	0	
2.5487	17.1629	1.50278	0	
2.5493	10.7527	0.890535	0	
2.5500	7.71002	-0.918365	0	
2.5507	8.30083	-2.14285	0	
2.5513	5.25818	-2.44897	0	
2.5520	1.59518	-1.22449	0	
2.5527	0.97483	-0.612243	0	
2.5533	-0.856669	-2.75509	0	
2.5540	-5.73082	-2.14285	0	
2.5547	-11.2253	2.11502	0	
2.5553	-17.6356	5.17624	0	
2.5560	-24.0458	3.64563	0	
2.5567	-25.5524	0.890535	0	
2.5573	-24.0458	0.278292	0	
2.5580	-22.8051	1.8089	0	
2.5587	-18.5513	2.42114	0	
2.5593	-13.9726	-0.0278292	0	
2.5600	-10.605	-2.75509	0	
2.5607	-6.64657	-2.44897	0	
2.5613	-3.89932	-1.83673	0	
2.5620	-2.98357	-3.06122	0	
2.5627	-0.236323	-3.67346	0	
2.5633	3.72208	-3.67346	0	
2.5640	4.63783	-4.59182	0	
2.5647	6.17393	-4.59182	0	
2.5653	12.2888	-3.06122	0	
2.5660	17.7833	-2.44897	0	
2.5667	19.6148	-2.44897	0	
2.5673	17.7833	-0.612243	0	
2.5680	13.7953	1.8089	0	
2.5687	10.4573	3.03339	0	
2.5693	6.46933	3.95175	0	
2.5700	-0.856669	3.95175	0	
2.5707	-5.43542	3.64563	0	
2.5713	-4.81507	4.56399	0	
2.5720	-7.56232	3.33951	0	
2.5727	-11.5207	-0.612243	0	
2.5733	-11.2253	-0.918365	0	
2.5740	-11.2253	2.72726	0	
2.5747	-13.9726	4.56399	0	
2.5753	-15.5087	4.87012	0	
2.5760	-19.7625	5.48236	0	
2.5767	-25.8773	4.56399	0	
2.5773	-24.9616	2.72726	0	
2.5780	-18.5513	3.64563	0	
2.5787	-12.7614	5.48236	0	
2.5793	-8.77347	5.17624	0	
2.5800	-6.02622	2.72726	0	
2.5807	-3.89932	0.890535	0	
2.5813	-2.06782	-0.612243	0	
2.5820	0.679427	-1.83673	0	
2.5827	1.89058	-3.67346	0	
2.5833	0.97483	-5.81631	0	
2.5840	-0.531726	-5.81631	0	
2.5847	2.21552	-5.51019	0	
2.5853	10.7527	-7.0408	0	
2.5860	18.0787	-7.65304	0	
2.5867	20.5305	-7.0408	0	
2.5873	19.9102	-8.26528	0	
2.5880	18.0787	-9.46194	0	
2.5887	13.4999	-7.65304	0	
2.5893	9.21658	-5.81631	0	
2.5900	9.83693	-6.73467	0	
2.5907	8.00543	-6.42855	0	
2.5913	2.51093	-3.36734	0	
2.5920	0.0590806	-1.83673	0	
2.5927	-0.531726	-3.36734	0	
2.5933	-4.51967	-1.83673	0	
2.5940	-8.18267	0.584414	0	
2.5947	-10.0142	-0.333951	0	
2.5953	-12.7614	-0.0278292	0	
2.5960	-15.5087	2.11502	0	
2.5967	-16.0995	2.42114	0	
2.5973	-15.5087	1.19666	0	
2.5980	-13.0568	1.50278	0	
2.5987	-9.39382	1.8089	0	
2.5993	-6.35117	1.50278	0	
2.6000	-2.06782	0.278292	0	
2.6007	2.51093	-1.22449	0	
2.6013	5.87852	-2.14285	0	
2.6020	5.25818	-2.75509	0	
2.6027	4.04702	-1.83673	0	
2.6033	4.96277	0.584414	0	
2.6040	3.72208	-0.0278292	0	
2.6047	3.13127	-3.67346	0	
2.6053	11.6684	-4.59182	0	
2.6060	22.6574	-1.83673	0	
2.6067	23.8686	-1.53061	0	
2.6073	20.2056	-4.59182	0	
2.6080	19.2898	-7.65304	0	
2.6087	17.4583	-9.76806	0	
2.6093	14.1203	-9.46194	0	
2.6100	10.4573	-6.42855	0	
2.6107	4.63783	-3.36734	0	
2.6113	-0.531726	-2.44897	0	
2.6120	-3.60392	-2.75509	0	
2.6127	-6.35117	-1.83673	0	
2.6133	-8.77347	-0.0278292	0	
2.6140	-9.39382	0.278292	0	
2.6147	-11.8457	-1.22449	0	
2.6153	-19.1421	-0.918365	0	
2.6160	-26.4681	3.03339	0	
2.6167	-27.3839	5.17624	0	
2.6173	-23.4255	4.87012	0	
2.6180	-19.4671	3.64563	0	
2.6187	-14.8883	1.8089	0	
2.6193	-10.605	1.50278	0	
2.6200	-7.56232	3.33951	0	
2.6207	-4.81507	3.64563	0	
2.6213	-1.15207	2.42114	0	
2.6220	0.679427	0.584414	0	
2.6227	1.29977	-0.0278292	0	
2.6233	1.89058	2.72726	0	
2.6240	1.59518	4.56399	0	
2.6247	4.96277	-0.0278292	0	
2.6253	13.7953	-3.67346	0	
2.6260	20.2056	-1.53061	0	
2.6267	19.2898	-0.612243	0	
2.6273	17.1629	-1.83673	0	
2.6280	16.5426	-0.0278292	0	
2.6287	12.5842	3.33951	0	
2.6293	6.79427	4.87012	0	
2.6300	3.42668	5.48236	0	
2.6307	2.51093	5.48236	0	
2.6313	0.0590806	4.56399	0	
2.6320	-0.856669	3.64563	0	
2.6327	-0.236323	2.72726	0	
2.6333	-1.44748	2.72726	0	
2.6340	-3.27898	2.72726	0	
2.6347	-6.35117	2.42114	0	
2.6353	-13.6772	3.64563	0	
2.6360	-20.0579	4.56399	0	
2.6367	-21.2986	1.8089	0	
2.6373	-21.2986	-0.918365	0	
2.6380	-18.8467	0.584414	0	
2.6387	-11.5207	1.50278	0	
2.6393	-7.85772	1.19666	0	
2.6400	-8.47807	2.42114	0	
2.6407	-3.89932	2.42114	0	
2.6413	2.51093	-1.83673	0	
2.6420	5.25818	-6.42855	0	
2.6427	6.79427	-6.12243	0	
2.6433	8.00543	-3.06122	0	
2.6440	8.92118	-2.75509	0	
2.6447	13.4999	-3.97958	0	
2.6453	19.9102	-3.67346	0	
2.6460	24.1935	-3.36734	0	
2.6467	26.6158	-3.67346	0	
2.6473	25.4047	-4.59182	0	
2.6480	19.9102	-4.59182	0	
2.6487	14.7111	-3.67346	0	
2.6493	10.7527	-1.83673	0	
2.6500	5.87852	-1.22449	0	
2.6507	0.679427	-1.83673	0	
2.6513	-5.73082	0.890535	0	
2.6520	-11.2253	4.25787	0	
2.6527	-12.1411	3.95175	0	
2.6533	-12.1411	1.8089	0	
2.6540	-14.5929	-0.0278292	0	
2.6547	-17.0152	-0.918365	0	
2.6553	-20.9736	-0.918365	0	
2.6560	-26.1727	0.278292	0	
2.6567	-25.8773	2.72726	0	
2.6573	-20.6782	5.48236	0	
2.6580	-17.6356	7.62521	0	
2.6587	-13.9726	7.31909	0	
2.6593	-8.18267	4.87012	0	
2.6600	-3.89932	2.42114	0	
2.6607	-3.60392	1.19666	0	
2.6613	-4.81507	2.72726	0	
2.6620	-3.27898	4.56399	0	
2.6627	0.384024	3.64563	0	
2.6633	2.21552	0.890535	0	
2.6640	3.42668	-2.14285	0	
2.6647	9.83693	-4.2857	0	
2.6653	16.8675	-3.06122	0	
2.6660	19.2898	-0.918365	0	
2.6667	18.0787	-1.83673	0	
2.6673	15.9518	-3.06122	0	
2.6680	14.1203	-0.612243	0	
2.6687	11.373	0.890535	0	
2.6693	7.08968	-0.0278292	0	
2.6700	3.13127	0.278292	0	
2.6707	1.59518	2.11502	0	
2.6713	-0.236323	2.72726	0	
2.6720	-2.06782	2.72726	0	
2.6727	-3.27898	2.42114	0	
2.6733	-2.98357	3.03339	0	
2.6740	-2.98357	4.25787	0	
2.6747	-6.94197	3.03339	0	
2.6753	-15.8041	1.19666	0	
2.6760	-22.2143	1.8089	0	
2.6767	-24.0458	1.19666	0	
2.6773	-23.1301	-2.44897	0	
2.6780	-19.4671	-3.67346	0	
2.6787	-15.1837	-2.44897	0	
2.6793	-11.5207	-2.75509	0	
2.6800	-6.94197	-3.67346	0	
2.6807	-1.77242	-4.89795	0	
2.6813	0.679427	-7.34692	0	
2.6820	0.679427	-7.34692	0	
2.6827	1.89058	-3.67346	0	
2.6833	4.96277	-2.75509	0	
2.6840	6.79427	-3.97958	0	
2.6847	9.21658	-3.97958	0	
2.6853	15.6268	-4.59182	0	
2.6860	21.7417	-4.59182	0	
2.6867	23.5732	-3.36734	0	
2.6873	23.5732	-2.44897	0	
2.6880	20.8259	-2.75509	0	
2.6887	13.2045	-0.918365	0	
2.6893	7.71002	-0.0278292	0	
2.6900	7.38508	-2.75509	0	
2.6907	4.63783	-3.36734	0	
2.6913	1.89058	-0.333951	0	
2.6920	2.21552	1.8089	0	
2.6927	-0.236323	1.8089	0	
2.6933	-3.27898	1.8089	0	
2.6940	-2.36323	2.11502	0	
2.6947	-4.81507	1.8089	0	
2.6953	-13.9726	1.8089	0	
2.6960	-20.0579	1.8089	0	
2.6967	-20.3828	1.19666	0	
2.6973	-22.2143	-0.0278292	0	
2.6980	-23.4255	-1.83673	0	
2.6987	-20.6782	-1.83673	0	
2.6993	-16.3949	-0.0278292	0	
2.7000	-12.1411	-0.612243	0	
2.7007	-4.81507	-3.36734	0	
2.7013	1.59518	-2.75509	0	
2.7020	1.89058	-0.918365	0	
2.7027	2.51093	-1.53061	0	
2.7033	7.71002	-0.333951	0	
2.7040	9.54152	2.42114	0	
2.7047	10.4573	0.584414	0	
2.7053	16.2472	-3.36734	0	
2.7060	21.1213	-3.67346	0	
2.7067	21.7417	-3.97958	0	
2.7073	22.362	-4.89795	0	
2.7080	21.4463	-3.67346	0	
2.7087	15.3314	-2.44897	0	
2.7093	8.62577	-1.83673	0	
2.7100	4.34243	-0.333951	0	
2.7107	1.59518	1.8089	0	
2.7113	-3.60392	1.8089	0	
2.7120	-10.9299	1.50278	0	
2.7127	-13.9726	3.03339	0	
2.7133	-11.2253	4.56399	0	
2.7140	-10.605	4.25787	0	
2.7147	-15.1837	4.56399	0	
2.7153	-20.6782	6.0946	0	
2.7160	-25.8773	6.40072	0	
2.7167	-26.1727	6.40072	0	
2.7173	-20.0579	5.48236	0	
2.7180	-14.8883	3.64563	0	
2.7187	-12.4365	4.56399	0	
2.7193	-6.64657	4.87012	0	
2.7200	-2.06782	1.8089	0	
2.7207	-0.236323	1.19666	0	
2.7213	3.42668	3.64563	0	
2.7220	7.08968	1.8089	0	
2.7227	6.17393	-1.83673	0	
2.7233	6.17393	-0.333951	0	
2.7240	6.79427	1.19666	0	
2.7247	7.38508	-1.53061	0	
2.7253	14.1203	-3.06122	0	
2.7260	21.1213	-1.22449	0	
2.7267	20.5305	-0.333951	0	
2.7273	17.1629	-0.612243	0	
2.7280	13.7953	-2.14285	0	
2.7287	8.62577	-5.51019	0	
2.7293	6.17393	-5.81631	0	
2.7300	6.17393	-3.06122	0	
2.7307	1.59518	-1.22449	0	
2.7313	-3.89932	-0.333951	0	
2.7320	-6.02622	0.278292	0	
2.7327	-10.0142	-1.83673	0	
2.7333	-12.1411	-3.67346	0	
2.7340	-9.68922	-3.06122	0	
2.7347	-12.1411	-1.53061	0	
2.7353	-18.8467	0.890535	0	
2.7360	-22.2143	3.33951	0	
2.7367	-24.6366	2.42114	0	
2.7373	-26.7931	0.890535	0	
2.7380	-22.2143	2.72726	0	
2.7387	-15.5087	4.56399	0	
2.7393	-10.3096	0.890535	0	
2.7400	-4.19473	-1.22449	0	
2.7407	0.0590806	2.72726	0	
2.7413	1.29977	4.56399	0	
2.7420	3.13127	-0.333951	0	
2.7427	5.25818	-1.83673	0	
2.7433	5.55358	1.19666	0	
2.7440	7.71002	-0.918365	0	
2.7447	9.83693	-4.89795	0	
2.7453	13.7953	-3.97958	0	
2.7460	21.7417	-4.2857	0	
2.7467	25.4047	-6.12243	0	
2.7473	21.4463	-3.06122	0	
2.7480	18.0787	0.890535	0	
2.7487	15.3314	-1.83673	0	
2.7493	8.62577	-3.97958	0	
2.7500	4.34243	-0.612243	0	
2.7507	3.13127	2.42114	0	
2.7513	0.97483	1.50278	0	
2.7520	-1.15207	2.72726	0	
2.7527	-2.68817	4.25787	0	
2.7533	-2.68817	2.72726	0	
2.7540	-2.36323	2.72726	0	
2.7547	-6.64657	4.87012	0	
2.7553	-13.9726	6.0946	0	
2.7560	-17.6356	6.40072	0	
2.7567	-18.5513	5.17624	0	
2.7573	-18.8467	3.03339	0	
2.7580	-16.7198	5.17624	0	
2.7587	-10.605	6.70685	0	
2.7593	-5.73082	3.33951	0	
2.7600	-4.19473	0.890535	0	
2.7607	-2.98357	0.890535	0	
2.7613	-0.531726	-0.0278292	0	
2.7620	0.679427	-0.333951	0	
2.7627	1.59518	-0.918365	0	
2.7633	3.42668	-2.75509	0	
2.7640	4.63783	-2.75509	0	
2.7647	7.38508	-2.44897	0	
2.7653	14.7111	-4.2857	0	
2.7660	20.8259	-4.59182	0	
2.7667	21.7417	-5.20407	0	
2.7673	21.7417	-5.51019	0	
2.7680	19.9102	-0.918365	0	
2.7687	12.5842	1.50278	0	
2.7693	6.46933	-1.83673	0	
2.7700	5.25818	-2.75509	0	
2.7707	3.42668	-0.918365	0	
2.7713	0.384024	-0.918365	0	
2.7720	-2.68817	-1.22449	0	
2.7727	-5.11047	-1.53061	0	
2.7733	-5.11047	-1.83673	0	
2.7740	-3.60392	-0.918365	0	
2.7747	-6.64657	0.278292	0	
2.7753	-13.9726	0.584414	0	
2.7760	-19.4671	0.890535	0	
2.7767	-21.2986	2.11502	0	
2.7773	-19.4671	3.95175	0	
2.7780	-15.8041	3.03339	0	
2.7787	-13.0568	-0.918365	0	
2.7793	-9.39382	-1.53061	0	
2.7800	-5.11047	-0.0278292	0	
2.7807	-3.60392	-0.918365	0	
2.7813	-1.77242	-0.918365	0	
2.7820	3.72208	0.584414	0	
2.7827	8.00543	-0.0278292	0	
2.7833	7.38508	-0.0278292	0	
2.7840	9.54152	-0.0278292	0	
2.7847	15.9518	-3.67346	0	
2.7853	22.0371	-6.42855	0	
2.7860	27.5316	-5.51019	0	
2.7867	30.2788	-5.81631	0	
2.7873	26.9112	-6.42855	0	
2.7880	21.7417	-4.89795	0	
2.7887	16.5426	-3.97958	0	
2.7893	9.83693	-4.59182	0	
2.7900	2.80633	-3.36734	0	
2.7907	-2.98357	-0.612243	0	
2.7913	-11.2253	1.50278	0	
2.7920	-17.6356	0.890535	0	
2.7927	-16.3949	-0.918365	0	
2.7933	-12.1411	-0.333951	0	
2.7940	-11.2253	0.890535	0	
2.7947	-14.268	-0.333951	0	
2.7953	-20.6782	-0.0278292	0	
2.7960	-25.5524	2.11502	0	
2.7967	-24.6366	1.19666	0	
2.7973	-20.6782	-1.53061	0	
2.7980	-17.3106	-2.14285	0	
2.7987	-13.0568	-0.333951	0	
2.7993	-10.3096	0.584414	0	
2.8000	-8.47807	-1.83673	0	
2.8007	-4.19473	-3.67346	0	
2.8013	0.679427	-1.53061	0	
2.8020	2.51093	0.278292	0	
2.8027	3.13127	-0.0278292	0	
2.8033	4.63783	0.890535	0	
2.8040	5.87852	0.890535	0	
2.8047	6.79427	-2.44897	0	
2.8053	9.54152	-4.2857	0	
2.8060	15.3314	-3.36734	0	
2.8067	20.8259	-1.22449	0	
2.8073	20.8259	1.8089	0	
2.8080	18.3741	1.8089	0	
2.8087	16.5426	-1.53061	0	
2.8093	13.2045	-0.918365	0	
2.8100	8.00543	3.03339	0	
2.8107	3.72208	4.25787	0	
2.8113	1.59518	2.11502	0	
2.8120	-0.236323	1.19666	0	
2.8127	-1.77242	3.64563	0	
2.8133	-4.19473	5.48236	0	
2.8140	-6.02622	2.72726	0	
2.8147	-7.56232	0.584414	0	
2.8153	-12.1411	3.03339	0	
2.8160	-15.8041	4.25787	0	
2.8167	-15.1837	2.42114	0	
2.8173	-14.8883	2.72726	0	
2.8180	-13.0568	2.72726	0	
2.8187	-7.56232	-1.53061	0	
2.8193	-5.43542	-3.67346	0	
2.8200	-5.43542	-3.36734	0	
2.8207	-0.531726	-4.59182	0	
2.8213	0.384024	-5.51019	0	
2.8220	-6.02622	-5.51019	0	
2.8227	-4.19473	-6.42855	0	
2.8233	4.63783	-4.89795	0	
2.8240	7.08968	-1.83673	0	
2.8247	8.00543	-0.918365	0	
2.8253	15.3314	-2.75509	0	
2.8260	21.7417	-3.06122	0	
2.8267	23.8686	-2.75509	0	
2.8273	23.5732	-3.67346	0	
2.8280	18.9944	-3.36734	0	
2.8287	13.2045	-1.53061	0	
2.8293	10.7527	-0.918365	0	
2.8300	8.00543	-0.918365	0	
2.8307	3.13127	-0.333951	0	
2.8313	0.384024	-0.918365	0	
2.8320	-1.44748	-1.22449	0	
2.8327	-2.68817	0.584414	0	
2.8333	-2.36323	2.11502	0	
2.8340	-3.27898	1.8089	0	
2.8347	-9.68922	2.11502	0	
2.8353	-17.931	3.95175	0	
2.8360	-20.6782	4.25787	0	
2.8367	-19.4671	2.72726	0	
2.8373	-20.6782	3.03339	0	
2.8380	-20.3828	3.64563	0	
2.8387	-14.8883	1.50278	0	
2.8393	-9.39382	-0.0278292	0	
2.8400	-6.35117	-0.612243	0	
2.8407	-2.98357	-1.53061	0	
2.8413	-0.236323	-1.83673	0	
2.8420	1.59518	-0.0278292	0	
2.8427	5.25818	1.50278	0	
2.8433	7.08968	0.890535	0	
2.8440	6.17393	0.278292	0	
2.8447	8.30083	-0.918365	0	
2.8453	15.3314	-2.75509	0	
2.8460	21.4463	-3.67346	0	
2.8467	22.0371	-3.06122	0	
2.8473	18.9944	-0.333951	0	
2.8480	15.6268	1.19666	0	
2.8487	13.2045	0.584414	0	
2.8493	10.1323	-0.0278292	0	
2.8500	5.25818	0.890535	0	
2.8507	0.384024	1.8089	0	
2.8513	-0.856669	3.64563	0	
2.8520	-1.15207	3.64563	0	
2.8527	-5.11047	0.890535	0	
2.8533	-7.56232	0.584414	0	
2.8540	-5.43542	1.8089	0	
2.8547	-6.64657	-0.918365	0	
2.8553	-14.5929	-0.918365	0	
2.8560	-19.1421	4.56399	0	
2.8567	-18.5513	6.40072	0	
2.8573	-17.6356	3.64563	0	
2.8580	-17.3106	3.64563	0	
2.8587	-16.7198	3.95175	0	
2.8593	-14.8883	1.50278	0	
2.8600	-9.39382	-1.22449	0	
2.8607	-4.81507	-3.67346	0	
2.8613	-4.81507	-5.81631	0	
2.8620	-3.27898	-5.20407	0	
2.8627	1.29977	-4.2857	0	
2.8633	1.29977	-4.89795	0	
2.8640	-1.77242	-3.67346	0	
2.8647	3.42668	-1.53061	0	
2.8653	15.9518	-2.14285	0	
2.8660	22.6574	-3.97958	0	
2.8667	19.9102	-2.75509	0	
2.8673	16.5426	-0.333951	0	
2.8680	14.4157	-1.53061	0	
2.8687	11.6684	-3.67346	0	
2.8693	9.83693	-2.44897	0	
2.8700	7.71002	1.50278	0	
2.8707	2.51093	3.95175	0	
2.8713	-0.856669	2.72726	0	
2.8720	-2.06782	0.890535	0	
2.8727	-4.19473	1.19666	0	
2.8733	-5.11047	3.03339	0	
2.8740	-4.19473	4.56399	0	
2.8747	-9.09842	3.95175	0	
2.8753	-16.7198	2.72726	0	
2.8760	-19.4671	5.48236	0	
2.8767	-18.8467	8.23745	0	
2.8773	-17.6356	5.17624	0	
2.8780	-13.6772	0.890535	0	
2.8787	-6.64657	1.50278	0	
2.8793	-1.77242	2.42114	0	
2.8800	-1.77242	1.19666	0	
2.8807	-2.06782	0.890535	0	
2.8813	3.13127	0.278292	0	
2.8820	10.1323	-3.06122	0	
2.8827	11.6684	-4.59182	0	
2.8833	10.7527	-2.75509	0	
2.8840	11.6684	-1.22449	0	
2.8847	14.7111	-3.67346	0	
2.8853	19.6148	-4.89795	0	
2.8860	22.6574	-3.06122	0	
2.8867	19.6148	-2.14285	0	
2.8873	16.2472	-2.14285	0	
2.8880	16.5426	0.584414	0	
2.8887	15.3314	2.72726	0	
2.8893	11.6684	2.11502	0	
2.8900	9.54152	1.8089	0	
2.8907	8.30083	3.64563	0	
2.8913	5.25818	3.64563	0	
2.8920	0.679427	4.25787	0	
2.8927	-2.68817	6.40072	0	
2.8933	-3.89932	6.40072	0	
2.8940	-6.35117	2.72726	0	
2.8947	-12.1411	2.11502	0	
2.8953	-19.1421	6.70685	0	
2.8960	-22.5097	8.23745	0	
2.8967	-22.2143	3.64563	0	
2.8973	-21.2986	2.11502	0	
2.8980	-20.3828	4.56399	0	
2.8987	-16.0995	3.95175	0	
2.8993	-12.1411	0.890535	0	
2.9000	-10.3096	-0.333951	0	
2.9007	-5.11047	-1.22449	0	
2.9013	-1.77242	-2.44897	0	
2.9020	-3.60392	-2.75509	0	
2.9027	-3.60392	-1.53061	0	
2.9033	0.0590806	-0.918365	0	
2.9040	1.59518	-2.44897	0	
2.9047	4.34243	-4.59182	0	
2.9053	11.6684	-6.42855	0	
2.9060	16.2472	-7.34692	0	
2.9067	17.7833	-6.12243	0	
2.9073	16.5426	-3.06122	0	
2.9080	11.6684	-0.333951	0	
2.9087	7.71002	0.584414	0	
2.9093	7.38508	0.278292	0	
2.9100	4.63783	-0.333951	0	
2.9107	-0.236323	-0.0278292	0	
2.9113	-3.27898	0.278292	0	
2.9120	-5.43542	0.278292	0	
2.9127	-8.18267	0.890535	0	
2.9133	-10.605	-0.0278292	0	
2.9140	-13.6772	-1.83673	0	
2.9147	-14.8883	1.19666	0	
2.9153	-14.8883	4.87012	0	
2.9160	-18.5513	2.72726	0	
2.9167	-23.4255	-0.918365	0	
2.9173	-20.0579	0.890535	0	
2.9180	-13.9726	2.72726	0	
2.9187	-13.0568	-0.0278292	0	
2.9193	-12.7614	-1.53061	0	
2.9200	-7.85772	-0.0278292	0	
2.9207	-3.89932	1.50278	0	
2.9213	-3.89932	1.19666	0	
2.9220	-3.89932	-0.918365	0	
2.9227	-2.06782	-2.75509	0	
2.9233	0.0590806	-0.612243	0	
2.9240	1.89058	1.50278	0	
2.9247	7.38508	-1.53061	0	
2.9253	16.5426	-4.89795	0	
2.9260	20.8259	-5.51019	0	
2.9267	20.2056	-6.12243	0	
2.9273	20.5305	-6.42855	0	
2.9280	18.9944	-4.59182	0	
