0.0007	-10.551	3.49023	0	
0.0013	-8.0988	5.00773	0	
0.0020	-9.32491	5.91822	0	
0.0027	-4.74312	4.70423	0	
0.0033	-0.161331	4.40073	0	
0.0040	-3.22661	5.31123	0	
0.0047	-7.19535	4.09723	0	
0.0053	-5.67884	2.57974	0	
0.0060	-2.90395	2.57974	0	
0.0067	1.64557	1.03695	0	
0.0073	8.38919	-1.99803	0	
0.0080	14.4875	-3.54082	0	
0.0087	17.2301	-2.30153	0	
0.0093	19.0693	-1.39104	0	
0.0100	16.9075	-0.784038	0	
0.0107	10.8092	0.733455	0	
0.0113	5.32391	1.34045	0	
0.0120	3.19435	1.64395	0	
0.0127	1.64557	2.57974	0	
0.0133	-2.2909	2.88324	0	
0.0140	-5.67884	1.97274	0	
0.0147	-5.67884	2.57974	0	
0.0153	-8.0988	4.70423	0	
0.0160	-12.3902	3.49023	0	
0.0167	-14.8102	0.733455	0	
0.0173	-17.2624	2.57974	0	
0.0180	-20.9085	5.31123	0	
0.0187	-19.1016	3.18674	0	
0.0193	-13.9067	1.03695	0	
0.0200	-12.3902	1.03695	0	
0.0207	-10.551	1.34045	0	
0.0213	-8.42146	1.34045	0	
0.0220	-9.03452	-1.99803	0	
0.0227	-7.48574	-7.51159	0	
0.0233	-2.2909	-9.33258	0	
0.0240	-0.774387	-7.1828	0	
0.0247	-3.83967	-6.5758	0	
0.0253	-5.67884	-6.5758	0	
0.0260	-3.22661	-5.96881	0	
0.0267	3.48474	-6.5758	0	
0.0273	11.7449	-7.51159	0	
0.0280	17.5205	-8.11859	0	
0.0287	20.2631	-8.42209	0	
0.0293	18.4562	-8.42209	0	
0.0300	13.5518	-7.81509	0	
0.0307	12.0353	-5.66531	0	
0.0313	12.3579	-3.84432	0	
0.0320	7.16308	-4.14781	0	
0.0327	2.58129	-3.84432	0	
0.0333	2.25863	-2.93382	0	
0.0340	-1.09705	-4.75481	0	
0.0347	-5.35618	-3.84432	0	
0.0353	-4.74312	0.126458	0	
0.0360	-5.96923	1.97274	0	
0.0367	-12.3902	2.57974	0	
0.0373	-17.8754	5.00773	0	
0.0380	-20.9085	5.31123	0	
0.0387	-22.4572	3.49023	0	
0.0393	-20.2954	5.31123	0	
0.0400	-15.4232	6.55051	0	
0.0407	-11.1641	5.61472	0	
0.0413	-7.19535	5.91822	0	
0.0420	-2.90395	3.49023	0	
0.0427	0.451726	-0.480539	0	
0.0433	3.19435	0.126458	0	
0.0440	5.93697	3.18674	0	
0.0447	7.16308	1.64395	0	
0.0453	6.55002	-1.08754	0	
0.0460	8.06653	-1.99803	0	
0.0467	13.8744	-2.30153	0	
0.0473	21.8119	-3.84432	0	
0.0480	27.9102	-3.84432	0	
0.0487	30.0398	-3.84432	0	
0.0493	28.2006	-5.05831	0	
0.0500	23.038	-6.2723	0	
0.0507	17.2301	-4.75481	0	
0.0513	12.6483	-1.69453	0	
0.0520	10.1961	-1.08754	0	
0.0527	7.16308	-1.69453	0	
0.0533	2.58129	0.429956	0	
0.0540	0.451726	0.733455	0	
0.0547	-0.161331	-2.60503	0	
0.0553	-1.09705	-0.480539	0	
0.0560	-5.67884	3.49023	0	
0.0567	-12.3902	1.34045	0	
0.0573	-19.3919	0.429956	0	
0.0580	-26.426	5.00773	0	
0.0587	-32.2016	6.22172	0	
0.0593	-32.2016	4.40073	0	
0.0600	-26.1033	5.00773	0	
0.0607	-19.3919	4.40073	0	
0.0613	-12.3902	2.57974	0	
0.0620	-3.83967	1.34045	0	
0.0627	1.06478	0.126458	0	
0.0633	3.48474	1.03695	0	
0.0640	6.84042	-0.177041	0	
0.0647	7.77614	-5.66531	0	
0.0653	7.16308	-5.66531	0	
0.0660	9.58304	-1.08754	0	
0.0667	14.1648	-3.54082	0	
0.0673	18.1336	-7.81509	0	
0.0680	19.9727	-6.2723	0	
0.0687	18.1336	-4.75481	0	
0.0693	16.9075	-5.05831	0	
0.0700	19.0693	-3.84432	0	
0.0707	18.1336	-6.2723	0	
0.0713	13.2614	-9.02908	0	
0.0720	8.38919	-6.2723	0	
0.0727	3.48474	-3.23732	0	
0.0733	-0.161331	-2.93382	0	
0.0740	-2.90395	-2.93382	0	
0.0747	-4.74312	-2.30153	0	
0.0753	-5.67884	-2.60503	0	
0.0760	-6.58229	-3.23732	0	
0.0767	-11.4545	-2.30153	0	
0.0773	-19.3919	0.733455	0	
0.0780	-25.1998	3.49023	0	
0.0787	-26.426	3.49023	0	
0.0793	-23.0703	4.09723	0	
0.0800	-15.7459	5.00773	0	
0.0807	-5.67884	2.88324	0	
0.0813	4.42046	0.126458	0	
0.0820	9.58304	0.733455	0	
0.0827	8.67959	1.97274	0	
0.0833	6.22736	-0.177041	0	
0.0840	3.48474	-1.08754	0	
0.0847	1.64557	1.64395	0	
0.0853	-0.774387	3.18674	0	
0.0860	-6.87269	1.34045	0	
0.0867	-11.4545	-0.177041	0	
0.0873	-8.42146	-0.177041	0	
0.0880	-1.09705	-0.784038	0	
0.0887	7.45348	-1.39104	0	
0.0893	14.4875	-1.39104	0	
0.0900	14.4875	-1.08754	0	
0.0907	13.5518	-0.784038	0	
0.0913	16.2944	0.429956	0	
0.0920	15.3909	0.126458	0	
0.0927	9.9057	-0.784038	0	
0.0933	6.84042	-0.177041	0	
0.0940	3.48474	0.733455	0	
0.0947	-1.71011	1.34045	0	
0.0953	-3.83967	4.70423	0	
0.0960	-3.83967	7.15751	0	
0.0967	-7.8084	4.40073	0	
0.0973	-15.7459	3.79373	0	
0.0980	-20.9085	5.00773	0	
0.0987	-21.5215	1.97274	0	
0.0993	-19.3919	-0.177041	0	
0.1000	-15.4232	1.64395	0	
0.1007	-9.93797	1.34045	0	
0.1013	-6.58229	-0.784038	0	
0.1020	-4.74312	0.733455	0	
0.1027	-2.0005	0.429956	0	
0.1033	0.742121	-2.93382	0	
0.1040	2.58129	-2.60503	0	
0.1047	4.71086	-1.69453	0	
0.1053	4.42046	-3.84432	0	
0.1060	5.61431	-3.84432	0	
0.1067	14.1648	-1.69453	0	
0.1073	21.8119	-3.84432	0	
0.1080	23.038	-6.5758	0	
0.1087	24.5545	-4.45131	0	
0.1093	26.6841	-1.99803	0	
0.1100	24.5545	-2.30153	0	
0.1107	19.3597	-2.60503	0	
0.1113	15.3909	-1.69453	0	
0.1120	11.4222	-2.93382	0	
0.1127	6.84042	-2.30153	0	
0.1133	2.25863	0.733455	0	
0.1140	-2.2909	0.733455	0	
0.1147	-3.22661	-1.08754	0	
0.1153	-2.2909	-1.08754	0	
0.1160	-5.96923	-1.08754	0	
0.1167	-13.584	-1.99803	0	
0.1173	-21.2311	-0.177041	0	
0.1180	-26.7164	3.49023	0	
0.1187	-28.5555	6.22172	0	
0.1193	-27.9425	6.55051	0	
0.1200	-25.8129	4.40073	0	
0.1207	-18.7789	1.34045	0	
0.1213	-10.2284	-0.784038	0	
0.1220	-6.58229	-3.84432	0	
0.1227	-5.67884	-5.96881	0	
0.1233	-4.13006	-2.93382	0	
0.1240	-2.90395	-0.480539	0	
0.1247	1.64557	-3.23732	0	
0.1253	5.61431	-4.14781	0	
0.1260	3.48474	-2.60503	0	
0.1267	5.32391	-3.23732	0	
0.1273	17.2301	-5.66531	0	
0.1280	24.2319	-5.66531	0	
0.1287	23.9415	-3.84432	0	
0.1293	23.3284	-2.93382	0	
0.1300	18.1336	-1.99803	0	
0.1307	10.1961	0.126458	0	
0.1313	6.55002	1.03695	0	
0.1320	2.58129	0.733455	0	
0.1327	-2.90395	0.733455	0	
0.1333	-5.06578	1.34045	0	
0.1340	-6.87269	1.97274	0	
0.1347	-10.2284	3.18674	0	
0.1353	-8.42146	5.61472	0	
0.1360	-6.58229	7.15751	0	
0.1367	-13.9067	5.31123	0	
0.1373	-23.0703	3.79373	0	
0.1380	-26.7164	6.22172	0	
0.1387	-26.7164	6.55051	0	
0.1393	-25.1998	3.79373	0	
0.1400	-20.6181	3.49023	0	
0.1407	-13.9067	1.64395	0	
0.1413	-9.32491	-2.60503	0	
0.1420	-7.48574	-0.480539	0	
0.1427	-2.90395	4.40073	0	
0.1433	2.25863	4.40073	0	
0.1440	2.87169	3.49023	0	
0.1447	1.06478	3.18674	0	
0.1453	0.742121	-0.177041	0	
0.1460	5.03352	-1.08754	0	
0.1467	15.3909	0.733455	0	
0.1473	25.458	-1.99803	0	
0.1480	30.9432	-5.36181	0	
0.1487	32.492	-5.66531	0	
0.1493	30.9432	-5.96881	0	
0.1500	27.2971	-5.66531	0	
0.1507	23.038	-3.84432	0	
0.1513	13.8744	-5.05831	0	
0.1520	1.96823	-5.66531	0	
0.1527	-5.67884	-2.30153	0	
0.1533	-7.48574	0.429956	0	
0.1540	-7.48574	0.429956	0	
0.1547	-7.8084	1.34045	0	
0.1553	-9.61531	5.00773	0	
0.1560	-11.1641	7.15751	0	
0.1567	-12.971	6.85401	0	
0.1573	-18.7789	7.15751	0	
0.1580	-22.7476	9.282	0	
0.1587	-21.2311	8.3715	0	
0.1593	-20.2954	5.00773	0	
0.1600	-19.3919	3.18674	0	
0.1607	-13.2936	0.733455	0	
0.1613	-9.03452	-2.93382	0	
0.1620	-7.48574	-4.14781	0	
0.1627	-2.90395	-3.23732	0	
0.1633	-0.161331	-2.60503	0	
0.1640	0.129065	-2.93382	0	
0.1647	4.42046	-1.39104	0	
0.1653	6.55002	0.429956	0	
0.1660	4.42046	-0.177041	0	
0.1667	8.96998	-3.23732	0	
0.1673	19.3597	-4.14781	0	
0.1680	24.5545	-4.45131	0	
0.1687	24.5545	-6.5758	0	
0.1693	22.1023	-8.72559	0	
0.1700	17.2301	-6.2723	0	
0.1707	12.3579	-3.54082	0	
0.1713	7.16308	-4.45131	0	
0.1720	1.64557	-5.36181	0	
0.1727	1.96823	-1.39104	0	
0.1733	9.58304	3.49023	0	
0.1740	14.1648	4.09723	0	
0.1747	11.1318	2.88324	0	
0.1753	5.32391	3.49023	0	
0.1760	-0.483992	3.49023	0	
0.1767	-7.8084	3.79373	0	
0.1773	-17.8754	6.85401	0	
0.1780	-27.3294	8.9785	0	
0.1787	-31.5885	7.15751	0	
0.1793	-34.0408	5.61472	0	
0.1800	-35.5573	7.15751	0	
0.1807	-28.5555	7.15751	0	
0.1813	-17.8754	2.57974	0	
0.1820	-15.4232	-1.39104	0	
0.1827	-15.1328	0.733455	0	
0.1833	-8.0988	2.57974	0	
0.1840	-0.161331	-0.177041	0	
0.1847	3.19435	-0.480539	0	
0.1853	4.42046	2.88324	0	
0.1860	4.71086	1.97274	0	
0.1867	8.06653	-1.39104	0	
0.1873	16.2944	-1.39104	0	
0.1880	24.5545	-1.08754	0	
0.1887	27.9102	-3.54082	0	
0.1893	24.2319	-3.84432	0	
0.1900	17.5205	-3.23732	0	
0.1907	12.6483	-3.84432	0	
0.1913	8.67959	-3.84432	0	
0.1920	5.03352	-2.30153	0	
0.1927	4.0978	-1.08754	0	
0.1933	3.8074	-1.39104	0	
0.1940	0.129065	-1.69453	0	
0.1947	-2.90395	-0.784038	0	
0.1953	-2.90395	-0.177041	0	
0.1960	-4.45273	0.733455	0	
0.1967	-10.8414	2.57974	0	
0.1973	-17.8754	2.57974	0	
0.1980	-22.7476	2.88324	0	
0.1987	-23.3607	5.91822	0	
0.1993	-19.7146	5.31123	0	
0.2000	-15.7459	1.34045	0	
0.2007	-12.6806	1.64395	0	
0.2013	-9.03452	2.88324	0	
0.2020	-5.06578	0.429956	0	
0.2027	-2.61356	-0.784038	0	
0.2033	1.64557	1.03695	0	
0.2040	5.61431	0.429956	0	
0.2047	6.22736	-1.99803	0	
0.2053	5.93697	-2.60503	0	
0.2060	9.29265	-3.54082	0	
0.2067	15.1006	-6.8793	0	
0.2073	20.8762	-9.93958	0	
0.2080	27.9102	-9.63608	0	
0.2087	31.8789	-8.42209	0	
0.2093	26.3937	-8.11859	0	
0.2100	17.8432	-5.66531	0	
0.2107	16.6171	-1.69453	0	
0.2113	16.2944	0.429956	0	
0.2120	8.06653	-0.177041	0	
0.2127	0.451726	-0.480539	0	
0.2133	-1.71011	-1.08754	0	
0.2140	-2.61356	-2.60503	0	
0.2147	-4.74312	-1.39104	0	
0.2153	-6.58229	1.03695	0	
0.2160	-7.48574	1.97274	0	
0.2167	-10.2284	3.49023	0	
0.2173	-19.7146	5.00773	0	
0.2180	-28.5555	4.40073	0	
0.2187	-27.3294	3.49023	0	
0.2193	-22.1346	2.57974	0	
0.2200	-21.5215	1.34045	0	
0.2207	-20.2954	-0.177041	0	
0.2213	-15.7459	-0.480539	0	
0.2220	-10.2284	-0.784038	0	
0.2227	-5.67884	-0.177041	0	
0.2233	-2.0005	-0.177041	0	
0.2240	-0.483992	-1.99803	0	
0.2247	1.96823	-2.93382	0	
0.2253	5.32391	-1.39104	0	
0.2260	7.45348	-0.480539	0	
0.2267	11.4222	-1.69453	0	
0.2273	19.9727	-1.39104	0	
0.2280	27.9102	0.429956	0	
0.2287	28.2006	0.733455	0	
0.2293	22.7154	0.733455	0	
0.2300	18.7466	3.18674	0	
0.2307	15.3909	5.00773	0	
0.2313	9.58304	3.49023	0	
0.2320	2.87169	2.57974	0	
0.2327	-0.483992	3.79373	0	
0.2333	-4.74312	2.27624	0	
0.2340	-9.93797	-1.08754	0	
0.2347	-10.551	-0.784038	0	
0.2353	-8.42146	2.57974	0	
0.2360	-10.551	3.49023	0	
0.2367	-16.6493	1.03695	0	
0.2373	-22.1346	-1.08754	0	
0.2380	-26.7164	-1.08754	0	
0.2387	-32.2016	1.34045	0	
0.2393	-34.3634	1.97274	0	
0.2400	-30.3947	-2.30153	0	
0.2407	-22.7476	-5.36181	0	
0.2413	-15.7459	-5.05831	0	
0.2420	-10.2284	-6.2723	0	
0.2427	-5.67884	-6.5758	0	
0.2433	-0.161331	-2.30153	0	
0.2440	4.42046	-0.480539	0	
0.2447	8.06653	-4.14781	0	
0.2453	10.8092	-3.84432	0	
0.2460	14.4875	-0.784038	0	
0.2467	18.4562	-1.08754	0	
0.2473	23.6188	-1.69453	0	
0.2480	27.2971	-0.784038	0	
0.2487	26.071	-0.177041	0	
0.2493	20.5858	1.34045	0	
0.2500	17.2301	1.97274	0	
0.2507	15.3909	1.64395	0	
0.2513	11.1318	5.00773	0	
0.2520	11.1318	7.15751	0	
0.2527	16.9075	3.49023	0	
0.2533	18.1336	2.27624	0	
0.2540	13.8744	4.40073	0	
0.2547	10.8092	0.429956	0	
0.2553	5.93697	-5.36181	0	
0.2560	-2.0005	-5.66531	0	
0.2567	-9.93797	-2.93382	0	
0.2573	-20.6181	0.429956	0	
0.2580	-33.1373	2.88324	0	
0.2587	-38.6226	2.88324	0	
0.2593	-38.0095	1.03695	0	
0.2600	-35.5573	-0.177041	0	
0.2607	-29.7816	-1.08754	0	
0.2613	-22.1346	-1.08754	0	
0.2620	-14.8102	-2.60503	0	
0.2627	-6.58229	-5.66531	0	
0.2633	-1.09705	-5.66531	0	
0.2640	1.64557	-3.23732	0	
0.2647	4.42046	-2.30153	0	
0.2653	6.22736	-3.23732	0	
0.2660	5.93697	-3.23732	0	
0.2667	11.4222	-1.99803	0	
0.2673	22.425	-0.480539	0	
0.2680	29.1363	-0.784038	0	
0.2687	27.5875	-1.99803	0	
0.2693	22.7154	-2.93382	0	
0.2700	17.2301	-3.84432	0	
0.2707	12.6483	-2.93382	0	
0.2713	8.06653	-1.08754	0	
0.2720	4.42046	0.429956	0	
0.2727	3.19435	3.79373	0	
0.2733	1.96823	5.91822	0	
0.2740	-0.161331	3.18674	0	
0.2747	-3.51701	1.97274	0	
0.2753	-7.19535	6.22172	0	
0.2760	-10.8414	8.068	0	
0.2767	-14.1971	5.31123	0	
0.2773	-19.3919	4.40073	0	
0.2780	-25.8129	3.18674	0	
0.2787	-29.459	1.03695	0	
0.2793	-29.459	1.34045	0	
0.2800	-27.039	2.88324	0	
0.2807	-22.1346	1.64395	0	
0.2813	-12.971	-0.784038	0	
0.2820	-2.2909	-2.93382	0	
0.2827	5.61431	-3.84432	0	
0.2833	11.7449	-3.84432	0	
0.2840	16.2944	-2.60503	0	
0.2847	17.8432	-2.93382	0	
0.2853	18.4562	-4.14781	0	
0.2860	20.2631	-4.14781	0	
0.2867	21.1988	-4.45131	0	
0.2873	22.7154	-5.05831	0	
0.2880	25.458	-3.84432	0	
0.2887	24.5545	-3.23732	0	
0.2893	22.425	-5.66531	0	
0.2900	21.8119	-6.2723	0	
0.2907	16.2944	-2.93382	0	
0.2913	6.84042	-1.08754	0	
0.2920	3.48474	-3.23732	0	
0.2927	3.19435	-3.23732	0	
0.2933	0.742121	-1.99803	0	
0.2940	-1.09705	-2.60503	0	
0.2947	-3.51701	-2.60503	0	
0.2953	-6.87269	-0.480539	0	
0.2960	-9.32491	-0.480539	0	
0.2967	-14.8102	-0.177041	0	
0.2973	-23.6833	3.79373	0	
0.2980	-24.5868	6.22172	0	
0.2987	-19.7146	5.00773	0	
0.2993	-18.7789	5.61472	0	
0.3000	-18.1658	7.46101	0	
0.3007	-12.6806	6.22172	0	
0.3013	-7.8084	2.88324	0	
0.3020	-5.06578	0.126458	0	
0.3027	-2.0005	0.126458	0	
0.3033	1.64557	1.97274	0	
0.3040	5.61431	0.733455	0	
0.3047	7.77614	-1.99803	0	
0.3053	3.48474	-0.480539	0	
0.3060	-1.09705	0.429956	0	
0.3067	3.19435	-1.39104	0	
0.3073	12.9387	-2.60503	0	
0.3080	20.2631	-2.30153	0	
0.3087	22.7154	-0.177041	0	
0.3093	21.8119	2.27624	0	
0.3100	17.2301	0.733455	0	
0.3107	11.7449	-0.480539	0	
0.3113	5.93697	1.64395	0	
0.3120	1.96823	1.03695	0	
0.3127	0.742121	-1.08754	0	
0.3133	-0.483992	-0.177041	0	
0.3140	-4.13006	-1.08754	0	
0.3147	-5.96923	-2.30153	0	
0.3153	-4.13006	1.97274	0	
0.3160	-5.35618	4.70423	0	
0.3167	-12.0675	1.97274	0	
0.3173	-20.005	1.64395	0	
0.3180	-23.9737	3.49023	0	
0.3187	-24.5868	2.57974	0	
0.3193	-21.2311	-0.177041	0	
0.3200	-17.5528	-0.784038	0	
0.3207	-14.1971	-0.177041	0	
0.3213	-10.2284	0.733455	0	
0.3220	-5.67884	0.733455	0	
0.3227	-2.90395	1.34045	0	
0.3233	-2.90395	1.64395	0	
0.3240	-1.09705	-0.177041	0	
0.3247	3.19435	-1.99803	0	
0.3253	7.77614	0.733455	0	
0.3260	11.1318	2.88324	0	
0.3267	14.7779	-0.177041	0	
0.3273	20.2631	-4.14781	0	
0.3280	26.071	-4.75481	0	
0.3287	27.5875	-2.93382	0	
0.3293	24.2319	-0.177041	0	
0.3300	20.8762	0.733455	0	
0.3307	19.3597	-1.39104	0	
0.3313	16.2944	-2.60503	0	
0.3320	15.3909	-0.177041	0	
0.3327	18.7466	2.57974	0	
0.3333	17.5205	3.79373	0	
0.3340	12.9387	4.70423	0	
0.3347	12.3579	4.09723	0	
0.3353	9.9057	1.64395	0	
0.3360	0.742121	1.64395	0	
0.3367	-10.551	4.40073	0	
0.3373	-22.7476	6.85401	0	
0.3380	-36.1703	8.068	0	
0.3387	-42.5913	7.46101	0	
0.3393	-38.6226	4.40073	0	
0.3400	-31.9112	2.57974	0	
0.3407	-27.039	1.64395	0	
0.3413	-20.9085	-0.480539	0	
0.3420	-13.584	-1.99803	0	
0.3427	-5.96923	-1.39104	0	
0.3433	0.742121	-3.23732	0	
0.3440	3.8074	-5.05831	0	
0.3447	3.48474	-4.75481	0	
0.3453	3.48474	-4.45131	0	
0.3460	4.42046	-3.84432	0	
0.3467	8.67959	-3.84432	0	
0.3473	17.2301	-5.66531	0	
0.3480	24.2319	-5.05831	0	
0.3487	23.9415	-2.60503	0	
0.3493	21.8119	-3.84432	0	
0.3500	19.9727	-2.93382	0	
0.3507	13.5518	2.57974	0	
0.3513	6.55002	4.09723	0	
0.3520	3.19435	2.88324	0	
0.3527	0.742121	4.09723	0	
0.3533	-1.71011	0.733455	0	
0.3540	-3.22661	-4.75481	0	
0.3547	-7.19535	-3.54082	0	
0.3553	-9.03452	-0.480539	0	
0.3560	-7.19535	0.733455	0	
0.3567	-11.7771	1.34045	0	
0.3573	-21.8442	-0.177041	0	
0.3580	-25.8129	-0.480539	0	
0.3587	-25.4902	2.27624	0	
0.3593	-25.8129	2.57974	0	
0.3600	-22.7476	0.733455	0	
0.3607	-16.9397	1.03695	0	
0.3613	-14.5198	0.126458	0	
0.3620	-11.7771	-1.99803	0	
0.3627	-6.58229	-3.23732	0	
0.3633	-3.51701	-3.84432	0	
0.3640	-2.0005	-3.23732	0	
0.3647	0.129065	-2.30153	0	
0.3653	3.48474	-3.84432	0	
0.3660	8.38919	-3.84432	0	
0.3667	13.5518	-0.177041	0	
0.3673	20.2631	-1.08754	0	
0.3680	27.0068	-6.5758	0	
0.3687	27.9102	-8.72559	0	
0.3693	25.458	-6.2723	0	
0.3700	22.425	-3.54082	0	
0.3707	15.7136	-2.60503	0	
0.3713	8.96998	-1.08754	0	
0.3720	6.55002	0.733455	0	
0.3727	3.19435	0.429956	0	
0.3733	-2.2909	1.34045	0	
0.3740	-5.67884	5.91822	0	
0.3747	-8.42146	7.15751	0	
0.3753	-9.61531	4.40073	0	
0.3760	-9.93797	5.31123	0	
0.3767	-14.8102	6.22172	0	
0.3773	-22.1346	4.70423	0	
0.3780	-22.7476	6.85401	0	
0.3787	-20.9085	8.3715	0	
0.3793	-22.4572	4.09723	0	
0.3800	-21.2311	1.64395	0	
0.3807	-16.9397	2.57974	0	
0.3813	-15.7459	-0.177041	0	
0.3820	-13.9067	-2.30153	0	
0.3827	-5.06578	-0.480539	0	
0.3833	1.35518	-0.177041	0	
0.3840	-2.0005	-2.30153	0	
0.3847	-7.48574	-2.93382	0	
0.3853	-4.74312	-2.30153	0	
0.3860	2.25863	-2.30153	0	
0.3867	8.96998	-1.99803	0	
0.3873	16.2944	-2.93382	0	
0.3880	21.8119	-5.05831	0	
0.3887	23.3284	-5.36181	0	
0.3893	22.1023	-3.54082	0	
0.3900	17.2301	-1.99803	0	
0.3907	9.9057	-1.08754	0	
0.3913	6.84042	-0.784038	0	
0.3920	5.03352	-0.784038	0	
0.3927	1.35518	-0.480539	0	
0.3933	-1.38744	-1.69453	0	
0.3940	-4.74312	-3.84432	0	
0.3947	-9.03452	-2.30153	0	
0.3953	-8.42146	1.64395	0	
0.3960	-9.03452	2.57974	0	
0.3967	-20.2954	1.64395	0	
0.3973	-31.2981	2.27624	0	
0.3980	-31.0078	1.97274	0	
0.3987	-29.1686	0.126458	0	
0.3993	-25.8129	-0.177041	0	
0.4000	-12.3902	0.733455	0	
0.4007	2.25863	-0.177041	0	
0.4013	8.06653	-1.99803	0	
0.4020	11.1318	-2.93382	0	
0.4027	12.6483	-1.99803	0	
0.4033	10.8092	-0.177041	0	
0.4040	9.29265	-0.177041	0	
0.4047	7.45348	-3.54082	0	
0.4053	4.71086	-4.75481	0	
0.4060	10.1961	-4.14781	0	
0.4067	23.3284	-5.96881	0	
0.4073	32.492	-7.51159	0	
0.4080	34.6216	-4.45131	0	
0.4087	34.3312	-2.93382	0	
0.4093	28.5233	-3.54082	0	
0.4100	18.1336	-3.23732	0	
0.4107	11.1318	-2.93382	0	
0.4113	5.32391	-2.93382	0	
0.4120	-5.06578	-1.39104	0	
0.4127	-13.2936	-1.08754	0	
0.4133	-12.971	-2.30153	0	
0.4140	-10.551	-1.08754	0	
0.4147	-12.0675	-0.177041	0	
0.4153	-14.8102	-0.480539	0	
0.4160	-15.7459	2.57974	0	
0.4167	-17.2624	4.09723	0	
0.4173	-22.4572	2.27624	0	
0.4180	-27.3294	5.91822	0	
0.4187	-29.1686	10.496	0	
0.4193	-28.5555	5.31123	0	
0.4200	-26.7164	-0.177041	0	
0.4207	-22.1346	2.88324	0	
0.4213	-15.1328	3.79373	0	
0.4220	-7.48574	1.34045	0	
0.4227	-2.90395	1.03695	0	
0.4233	-1.09705	-0.480539	0	
0.4240	2.58129	-1.99803	0	
0.4247	5.32391	-1.08754	0	
0.4253	7.77614	-3.84432	0	
0.4260	11.1318	-7.81509	0	
0.4267	16.6171	-5.05831	0	
0.4273	23.9415	-4.45131	0	
0.4280	29.1363	-9.63608	0	
0.4287	28.2006	-11.1536	0	
0.4293	23.6188	-7.51159	0	
0.4300	21.1988	-5.05831	0	
0.4307	17.2301	-3.54082	0	
0.4313	10.5188	-1.39104	0	
0.4320	5.32391	0.429956	0	
0.4327	2.58129	2.57974	0	
0.4333	0.129065	3.49023	0	
0.4340	-1.38744	1.64395	0	
0.4347	-2.90395	0.733455	0	
0.4353	-4.13006	1.64395	0	
0.4360	-5.06578	1.97274	0	
0.4367	-10.8414	3.18674	0	
0.4373	-19.3919	5.00773	0	
0.4380	-23.3607	5.61472	0	
0.4387	-22.1346	5.91822	0	
0.4393	-20.2954	7.15751	0	
0.4400	-17.5528	7.15751	0	
0.4407	-12.3902	3.49023	0	
0.4413	-7.19535	0.429956	0	
0.4420	-2.90395	1.97274	0	
0.4427	1.35518	2.57974	0	
0.4433	4.42046	-0.480539	0	
0.4440	6.84042	-2.93382	0	
0.4447	7.16308	-3.84432	0	
0.4453	8.06653	-6.5758	0	
0.4460	12.6483	-6.8793	0	
0.4467	20.5858	-5.05831	0	
0.4473	26.3937	-6.2723	0	
0.4480	27.5875	-6.8793	0	
0.4487	27.2971	-4.75481	0	
0.4493	26.3937	-2.93382	0	
0.4500	22.7154	-2.30153	0	
0.4507	16.9075	-1.69453	0	
0.4513	12.6483	-1.39104	0	
0.4520	8.06653	-0.177041	0	
0.4527	4.42046	1.03695	0	
0.4533	2.87169	0.126458	0	
0.4540	0.129065	0.429956	0	
0.4547	-3.83967	3.49023	0	
0.4553	-3.51701	5.00773	0	
0.4560	-5.67884	5.00773	0	
0.4567	-16.3589	6.55051	0	
0.4573	-25.8129	7.76451	0	
0.4580	-24.8772	6.22172	0	
0.4587	-21.5215	3.79373	0	
0.4593	-20.9085	3.49023	0	
0.4600	-16.6493	4.09723	0	
0.4607	-8.42146	1.64395	0	
0.4613	-3.83967	-1.39104	0	
0.4620	-3.83967	-2.30153	0	
0.4627	-0.483992	-1.99803	0	
0.4633	4.0978	-0.177041	0	
0.4640	5.03352	1.03695	0	
0.4647	4.42046	-0.784038	0	
0.4653	4.71086	-1.69453	0	
0.4660	8.06653	-0.177041	0	
0.4667	15.3909	-0.177041	0	
0.4673	22.7154	-0.480539	0	
0.4680	26.3937	2.57974	0	
0.4687	27.5875	2.88324	0	
0.4693	26.3937	0.733455	0	
0.4700	22.1023	1.64395	0	
0.4707	18.1336	1.03695	0	
0.4713	12.6483	-2.93382	0	
0.4720	2.87169	-1.08754	0	
0.4727	-1.71011	2.27624	0	
0.4733	-1.38744	-1.08754	0	
0.4740	-4.74312	-2.93382	0	
0.4747	-9.32491	0.429956	0	
0.4753	-9.61531	0.733455	0	
0.4760	-10.2284	-0.177041	0	
0.4767	-15.1328	1.64395	0	
0.4773	-22.1346	3.49023	0	
0.4780	-25.8129	3.49023	0	
0.4787	-22.1346	4.40073	0	
0.4793	-16.6493	3.49023	0	
0.4800	-16.0363	1.97274	0	
0.4807	-16.0363	1.64395	0	
0.4813	-11.1641	-0.177041	0	
0.4820	-6.25963	-1.39104	0	
0.4827	-3.83967	-1.08754	0	
0.4833	-1.09705	-2.60503	0	
0.4840	0.742121	-3.84432	0	
0.4847	2.58129	-2.93382	0	
0.4853	5.03352	-1.99803	0	
0.4860	6.84042	-0.480539	0	
0.4867	9.9057	1.34045	0	
0.4873	18.7466	1.03695	0	
0.4880	26.071	-0.480539	0	
0.4887	25.458	-2.30153	0	
0.4893	19.6823	-2.60503	0	
0.4900	14.4875	-0.177041	0	
0.4907	12.3579	0.429956	0	
0.4913	9.9057	-1.69453	0	
0.4920	3.8074	-1.99803	0	
0.4927	-0.483992	-2.30153	0	
0.4933	-1.38744	-1.69453	0	
0.4940	-6.58229	1.64395	0	
0.4947	-10.8414	1.03695	0	
0.4953	-7.8084	-2.93382	0	
0.4960	-8.42146	-0.480539	0	
0.4967	-16.6493	4.40073	0	
0.4973	-22.7476	5.31123	0	
0.4980	-25.4902	4.40073	0	
0.4987	-27.039	4.09723	0	
0.4993	-26.7164	4.09723	0	
0.5000	-23.6833	4.40073	0	
0.5007	-18.1658	3.18674	0	
0.5013	-13.584	1.03695	0	
0.5020	-8.42146	-0.177041	0	
0.5027	2.25863	-0.784038	0	
0.5033	11.7449	-0.480539	0	
0.5040	11.7449	0.126458	0	
0.5047	8.96998	-1.69453	0	
0.5053	9.9057	-2.93382	0	
0.5060	10.8092	-2.93382	0	
0.5067	15.3909	-5.66531	0	
0.5073	21.1988	-9.33258	0	
0.5080	19.9727	-8.42209	0	
0.5087	13.5518	-6.8793	0	
0.5093	7.77614	-6.8793	0	
0.5100	4.42046	-3.84432	0	
0.5107	6.22736	-1.08754	0	
0.5113	5.93697	-2.30153	0	
0.5120	-0.483992	-3.23732	0	
0.5127	-4.74312	-2.93382	0	
0.5133	-3.83967	-2.93382	0	
0.5140	-3.83967	-1.99803	0	
0.5147	-4.74312	-1.08754	0	
0.5153	-7.8084	0.126458	0	
0.5160	-15.4232	1.03695	0	
0.5167	-23.9737	0.733455	0	
0.5173	-27.9425	1.64395	0	
0.5180	-29.459	3.18674	0	
0.5187	-31.0078	1.64395	0	
0.5193	-29.7816	-1.08754	0	
0.5200	-24.5868	-0.480539	0	
0.5207	-16.6493	0.429956	0	
0.5213	-9.61531	0.126458	0	
0.5220	-3.83967	-0.480539	0	
0.5227	0.742121	-3.23732	0	
0.5233	5.03352	-4.45131	0	
0.5240	9.9057	-2.60503	0	
0.5247	11.7449	-3.23732	0	
0.5253	8.96998	-4.75481	0	
0.5260	10.5188	-3.84432	0	
0.5267	18.4562	-4.45131	0	
0.5273	27.2971	-5.36181	0	
0.5280	31.8789	-3.23732	0	
0.5287	30.3624	-1.69453	0	
0.5293	25.458	-1.39104	0	
0.5300	20.5858	0.733455	0	
0.5307	14.4875	1.34045	0	
0.5313	7.16308	0.126458	0	
0.5320	0.129065	1.64395	0	
0.5327	-4.74312	2.57974	0	
0.5333	-6.58229	1.34045	0	
0.5340	-8.42146	1.64395	0	
0.5347	-13.584	2.88324	0	
0.5353	-17.2624	5.00773	0	
0.5360	-19.1016	6.55051	0	
0.5367	-25.1998	4.40073	0	
0.5373	-31.5885	2.27624	0	
0.5380	-29.1686	5.31123	0	
0.5387	-20.2954	5.31123	0	
0.5393	-11.4545	-0.784038	0	
0.5400	-5.96923	-1.99803	0	
0.5407	-3.83967	1.64395	0	
0.5413	-3.22661	-1.08754	0	
0.5420	-0.774387	-4.75481	0	
0.5427	4.42046	-2.93382	0	
0.5433	8.38919	-1.08754	0	
0.5440	8.38919	-2.30153	0	
0.5447	7.45348	-2.93382	0	
0.5453	9.58304	-2.93382	0	
0.5460	13.5518	-3.84432	0	
0.5467	18.1336	-1.99803	0	
0.5473	25.458	-0.784038	0	
0.5480	31.5563	-1.99803	0	
0.5487	31.5563	0.126458	0	
0.5493	25.1676	2.57974	0	
0.5500	16.6171	0.126458	0	
0.5507	12.0353	-1.69453	0	
0.5513	10.8092	-1.69453	0	
0.5520	7.77614	-5.05831	0	
0.5527	5.32391	-4.14781	0	
0.5533	3.48474	2.57974	0	
0.5540	-1.09705	2.88324	0	
0.5547	-4.45273	-2.30153	0	
0.5553	-1.09705	-1.99803	0	
0.5560	-2.61356	1.34045	0	
0.5567	-12.0675	2.27624	0	
0.5573	-19.1016	3.49023	0	
0.5580	-21.8442	4.40073	0	
0.5587	-24.5868	3.79373	0	
0.5593	-23.0703	3.79373	0	
0.5600	-17.2624	2.57974	0	
0.5607	-12.3902	-0.480539	0	
0.5613	-9.32491	-0.784038	0	
0.5620	-6.25963	2.57974	0	
0.5627	-3.22661	5.31123	0	
0.5633	-1.09705	3.49023	0	
0.5640	-0.483992	-1.08754	0	
0.5647	0.451726	-2.60503	0	
0.5653	3.48474	0.126458	0	
0.5660	8.67959	-0.177041	0	
0.5667	15.3909	-2.93382	0	
0.5673	25.1676	-2.93382	0	
0.5680	32.1693	-2.30153	0	
0.5687	30.9432	-3.84432	0	
0.5693	22.425	-3.84432	0	
0.5700	14.4875	-1.08754	0	
0.5707	13.5518	-0.480539	0	
0.5713	13.8744	-1.08754	0	
0.5720	7.45348	-1.08754	0	
0.5727	-0.483992	-0.177041	0	
0.5733	-3.83967	2.88324	0	
0.5740	-4.13006	4.70423	0	
0.5747	-5.06578	3.79373	0	
0.5753	-6.87269	5.31123	0	
0.5760	-9.61531	7.76451	0	
0.5767	-14.1971	5.91822	0	
0.5773	-21.2311	4.70423	0	
0.5780	-27.6198	7.76451	0	
0.5787	-28.5555	9.5855	0	
0.5793	-26.7164	8.068	0	
0.5800	-23.3607	5.00773	0	
0.5807	-17.5528	-0.177041	0	
0.5813	-12.971	-2.30153	0	
0.5820	-9.93797	1.03695	0	
0.5827	-5.67884	2.88324	0	
0.5833	-3.22661	-1.99803	0	
0.5840	-2.0005	-6.2723	0	
0.5847	2.58129	-5.36181	0	
0.5853	8.06653	-2.93382	0	
0.5860	9.9057	-2.30153	0	
0.5867	13.5518	-3.84432	0	
0.5873	22.1023	-5.66531	0	
0.5880	28.5233	-4.75481	0	
0.5887	28.2006	-2.93382	0	
0.5893	23.3284	-3.84432	0	
0.5900	17.8432	-5.05831	0	
0.5907	13.5518	-4.75481	0	
0.5913	11.4222	-2.93382	0	
0.5920	10.1961	0.429956	0	
0.5927	6.84042	1.64395	0	
0.5933	1.64557	-0.177041	0	
0.5940	-1.71011	1.03695	0	
0.5947	-4.45273	4.09723	0	
0.5953	-8.42146	1.34045	0	
0.5960	-7.8084	-1.99803	0	
0.5967	-5.06578	0.429956	0	
0.5973	-8.42146	3.49023	0	
0.5980	-13.9067	5.31123	0	
0.5987	-13.9067	8.068	0	
0.5993	-13.584	8.068	0	
0.6000	-14.5198	6.55051	0	
0.6007	-11.1641	5.31123	0	
0.6013	-7.48574	2.27624	0	
0.6020	-11.1641	0.733455	0	
0.6027	-15.7459	0.126458	0	
0.6033	-13.2936	-4.14781	0	
0.6040	-7.48574	-6.5758	0	
0.6047	-4.45273	-3.84432	0	
0.6053	-3.51701	-2.93382	0	
0.6060	-0.483992	-3.84432	0	
0.6067	8.38919	-2.30153	0	
0.6073	19.3597	-4.45131	0	
0.6080	24.8449	-7.1828	0	
0.6087	27.0068	-2.93382	0	
0.6093	26.3937	1.64395	0	
0.6100	20.2631	-0.177041	0	
0.6107	13.5518	-1.08754	0	
0.6113	11.7449	0.126458	0	
0.6120	8.38919	1.03695	0	
0.6127	2.58129	1.97274	0	
0.6133	-0.161331	2.57974	0	
0.6140	-1.38744	2.57974	0	
0.6147	-5.67884	2.88324	0	
0.6153	-10.551	2.27624	0	
0.6160	-14.8102	1.64395	0	
0.6167	-19.7146	3.49023	0	
0.6173	-24.8772	5.31123	0	
0.6180	-30.3947	4.40073	0	
0.6187	-32.5243	2.88324	0	
0.6193	-28.5555	4.40073	0	
0.6200	-21.8442	5.00773	0	
0.6207	-17.8754	1.64395	0	
0.6213	-15.7459	-2.93382	0	
0.6220	-12.971	-4.75481	0	
0.6227	-8.71186	-2.60503	0	
0.6233	-2.0005	1.34045	0	
0.6240	3.48474	1.64395	0	
0.6247	5.03352	-1.39104	0	
0.6253	5.32391	-2.93382	0	
0.6260	8.96998	-2.93382	0	
0.6267	15.1006	-4.75481	0	
0.6273	21.8119	-7.1828	0	
0.6280	26.3937	-6.8793	0	
0.6287	24.5545	-4.75481	0	
0.6293	18.7466	-3.84432	0	
0.6300	14.4875	-3.23732	0	
0.6307	11.7449	-1.08754	0	
0.6313	7.45348	0.126458	0	
0.6320	4.0978	-0.480539	0	
0.6327	2.58129	-2.60503	0	
0.6333	0.742121	-3.84432	0	
0.6340	-1.09705	-2.60503	0	
0.6347	-0.161331	-0.177041	0	
0.6353	2.25863	-0.177041	0	
0.6360	-0.774387	-0.480539	0	
0.6367	-10.2284	1.97274	0	
0.6373	-17.5528	4.40073	0	
0.6380	-18.4885	4.09723	0	
0.6387	-16.6493	2.88324	0	
0.6393	-13.584	2.57974	0	
0.6400	-9.03452	1.64395	0	
0.6407	-5.96923	-1.08754	0	
0.6413	-6.87269	-1.99803	0	
0.6420	-9.03452	-0.784038	0	
0.6427	-6.58229	-2.93382	0	
0.6433	1.06478	-6.2723	0	
0.6440	5.61431	-3.84432	0	
0.6447	5.61431	-1.08754	0	
0.6453	6.55002	-3.54082	0	
0.6460	9.58304	-5.05831	0	
0.6467	15.1006	-4.45131	0	
0.6473	22.7154	-4.75481	0	
0.6480	25.458	-4.14781	0	
0.6487	21.8119	-2.30153	0	
0.6493	21.4892	-1.39104	0	
0.6500	20.8762	0.429956	0	
0.6507	15.3909	2.88324	0	
0.6513	8.96998	3.18674	0	
0.6520	5.03352	1.64395	0	
0.6527	1.64557	-0.177041	0	
0.6533	-1.38744	-3.23732	0	
0.6540	-4.45273	-4.45131	0	
0.6547	-5.96923	-3.23732	0	
0.6553	-5.67884	-0.177041	0	
0.6560	-8.42146	1.03695	0	
0.6567	-16.3589	1.64395	0	
0.6573	-23.3607	3.49023	0	
0.6580	-27.039	4.09723	0	
0.6587	-26.7164	3.79373	0	
0.6593	-22.1346	4.09723	0	
0.6600	-17.8754	2.57974	0	
0.6607	-15.7459	-0.177041	0	
0.6613	-12.0675	0.733455	0	
0.6620	-7.19535	3.18674	0	
0.6627	-3.83967	2.57974	0	
0.6633	0.129065	1.64395	0	
0.6640	4.71086	1.03695	0	
0.6647	5.93697	1.64395	0	
0.6653	5.32391	3.18674	0	
0.6660	8.38919	1.97274	0	
0.6667	15.3909	-1.39104	0	
0.6673	21.8119	-2.60503	0	
0.6680	26.071	-1.69453	0	
0.6687	26.3937	-0.480539	0	
0.6693	22.7154	0.733455	0	
0.6700	18.4562	1.64395	0	
0.6707	13.8744	2.57974	0	
0.6713	8.67959	2.57974	0	
0.6720	5.93697	1.97274	0	
0.6727	5.03352	1.64395	0	
0.6733	0.451726	-0.480539	0	
0.6740	-6.25963	-1.99803	0	
0.6747	-8.0988	2.88324	0	
0.6753	-7.48574	6.22172	0	
0.6760	-9.93797	2.27624	0	
0.6767	-15.7459	1.64395	0	
0.6773	-22.4572	7.76451	0	
0.6780	-27.6198	8.3715	0	
0.6787	-29.1686	3.18674	0	
0.6793	-27.9425	0.733455	0	
0.6800	-24.8772	-0.177041	0	
0.6807	-21.2311	-1.08754	0	
0.6813	-17.5528	-2.60503	0	
0.6820	-12.0675	-3.84432	0	
0.6827	-4.45273	-2.93382	0	
0.6833	0.742121	-0.480539	0	
0.6840	-0.161331	-1.39104	0	
0.6847	-1.71011	-3.54082	0	
0.6853	-0.161331	-4.14781	0	
0.6860	3.8074	-6.2723	0	
0.6867	10.8092	-6.5758	0	
0.6873	18.1336	-4.75481	0	
0.6880	21.1988	-6.2723	0	
0.6887	24.5545	-8.42209	0	
0.6893	29.7494	-4.75481	0	
0.6900	29.1363	-3.54082	0	
0.6907	22.7154	-6.5758	0	
0.6913	17.8432	-6.2723	0	
0.6920	11.4222	-3.23732	0	
0.6927	2.25863	-2.93382	0	
0.6933	-4.45273	-2.60503	0	
0.6940	-7.8084	-2.93382	0	
0.6947	-12.6806	-5.05831	0	
0.6953	-18.7789	-1.99803	0	
0.6960	-26.1033	4.40073	0	
0.6967	-32.2016	3.79373	0	
0.6973	-35.5573	2.57974	0	
0.6980	-38.0095	5.00773	0	
0.6987	-37.3964	2.57974	0	
0.6993	-28.5555	-1.08754	0	
0.7000	-19.7146	-0.480539	0	
0.7007	-14.5198	-1.99803	0	
0.7013	-7.48574	-5.66531	0	
0.7020	-3.22661	-5.96881	0	
0.7027	-3.22661	-5.66531	0	
0.7033	1.64557	-7.1828	0	
0.7040	10.8092	-5.05831	0	
0.7047	14.1648	-2.60503	0	
0.7053	12.6483	-3.23732	0	
0.7060	13.5518	-5.05831	0	
0.7067	20.8762	-6.5758	0	
0.7073	30.0398	-6.5758	0	
0.7080	33.3954	-5.05831	0	
0.7087	29.1363	-4.14781	0	
0.7093	25.7806	-3.23732	0	
0.7100	21.8119	-0.177041	0	
0.7107	11.7449	3.18674	0	
0.7113	2.58129	2.57974	0	
0.7120	0.742121	1.03695	0	
0.7127	0.742121	2.57974	0	
0.7133	-1.09705	4.40073	0	
0.7140	-3.51701	2.57974	0	
0.7147	-5.06578	1.64395	0	
0.7153	-6.58229	2.88324	0	
0.7160	-9.03452	1.64395	0	
0.7167	-15.7459	1.64395	0	
0.7173	-23.6833	4.70423	0	
0.7180	-25.8129	5.31123	0	
0.7187	-23.9737	3.18674	0	
0.7193	-21.8442	2.57974	0	
0.7200	-17.2624	2.27624	0	
0.7207	-11.1641	1.64395	0	
0.7213	-6.25963	2.57974	0	
0.7220	-2.0005	3.49023	0	
0.7227	2.58129	3.18674	0	
0.7233	6.55002	2.88324	0	
0.7240	9.58304	1.03695	0	
0.7247	11.4222	-0.480539	0	
0.7253	12.6483	0.429956	0	
0.7260	15.1006	0.733455	0	
0.7267	18.1336	-1.39104	0	
0.7273	20.5858	-3.84432	0	
0.7280	22.1023	-3.84432	0	
0.7287	21.1988	-1.08754	0	
0.7293	18.1336	1.64395	0	
0.7300	14.7779	-0.784038	0	
0.7307	8.96998	-1.69453	0	
0.7313	2.58129	2.27624	0	
0.7320	1.35518	1.34045	0	
0.7327	1.35518	-3.84432	0	
0.7333	-2.0005	-2.93382	0	
0.7340	-3.51701	1.34045	0	
0.7347	-2.61356	0.126458	0	
0.7353	-3.51701	-2.93382	0	
0.7360	-5.67884	-3.84432	0	
0.7367	-11.1641	-1.99803	0	
0.7373	-20.005	1.97274	0	
0.7380	-24.2641	3.49023	0	
0.7387	-23.9737	3.49023	0	
0.7393	-25.1998	5.00773	0	
0.7400	-23.0703	5.91822	0	
0.7407	-15.7459	4.40073	0	
0.7413	-12.3902	3.49023	0	
0.7420	-11.1641	2.88324	0	
0.7427	-4.74312	1.97274	0	
0.7433	0.742121	2.88324	0	
0.7440	0.451726	1.64395	0	
0.7447	1.64557	-3.84432	0	
0.7453	4.42046	-7.81509	0	
0.7460	7.16308	-7.1828	0	
0.7467	15.3909	-7.1828	0	
0.7473	25.458	-7.81509	0	
0.7480	26.3937	-7.1828	0	
0.7487	21.4892	-5.96881	0	
0.7493	19.9727	-4.75481	0	
0.7500	17.8432	-3.84432	0	
0.7507	11.7449	-4.45131	0	
0.7513	7.45348	-3.23732	0	
0.7520	3.48474	-0.480539	0	
0.7527	-2.61356	-1.08754	0	
0.7533	-4.13006	-1.39104	0	
0.7540	-2.2909	1.64395	0	
0.7547	-5.06578	3.18674	0	
0.7553	-7.8084	1.03695	0	
0.7560	-9.03452	1.64395	0	
0.7567	-16.6493	3.49023	0	
0.7573	-25.4902	3.79373	0	
0.7580	-26.1033	5.31123	0	
0.7587	-24.5868	7.15751	0	
0.7593	-24.2641	5.91822	0	
0.7600	-20.2954	4.40073	0	
0.7607	-13.584	3.49023	0	
0.7613	-7.48574	1.34045	0	
0.7620	-2.0005	-0.480539	0	
0.7627	1.64557	0.126458	0	
0.7633	3.48474	-0.480539	0	
0.7640	6.22736	-2.30153	0	
0.7647	8.06653	-1.99803	0	
0.7653	8.67959	-3.84432	0	
0.7660	10.5188	-6.8793	0	
0.7667	19.3597	-7.1828	0	
0.7673	36.4607	-5.96881	0	
0.7680	47.1408	-8.11859	0	
0.7687	41.946	-8.42209	0	
0.7693	34.0085	-3.54082	0	
0.7700	31.2659	1.64395	0	
0.7707	24.5545	3.18674	0	
0.7713	12.9387	3.49023	0	
0.7720	5.32391	4.40073	0	
0.7727	1.64557	3.49023	0	
0.7733	-5.67884	1.34045	0	
0.7740	-17.5528	0.429956	0	
0.7747	-27.6198	0.733455	0	
0.7753	-26.1033	0.733455	0	
0.7760	-21.5215	2.57974	0	
0.7767	-25.8129	4.40073	0	
0.7773	-32.8147	3.79373	0	
0.7780	-33.1373	2.27624	0	
0.7787	-29.459	2.57974	0	
0.7793	-24.5868	2.57974	0	
0.7800	-21.2311	1.03695	0	
0.7807	-20.005	0.429956	0	
0.7813	-15.7459	1.34045	0	
0.7820	-7.19535	0.126458	0	
0.7827	-3.51701	-2.93382	0	
0.7833	-4.74312	-1.39104	0	
0.7840	-2.0005	1.34045	0	
0.7847	1.64557	-0.480539	0	
0.7853	4.42046	-1.99803	0	
0.7860	9.9057	-1.39104	0	
0.7867	17.8432	-3.84432	0	
0.7873	22.425	-5.66531	0	
0.7880	23.9415	-2.30153	0	
0.7887	23.9415	-2.60503	0	
0.7893	22.7154	-4.75481	0	
0.7900	19.6823	-3.84432	0	
0.7907	14.7779	-5.05831	0	
0.7913	10.8092	-6.5758	0	
0.7920	8.38919	-1.69453	0	
0.7927	4.0978	1.03695	0	
0.7933	-0.161331	-1.08754	0	
0.7940	-1.38744	-0.480539	0	
0.7947	-2.90395	-0.480539	0	
0.7953	-4.74312	-2.30153	0	
0.7960	-5.06578	-0.177041	0	
0.7967	-10.2284	2.57974	0	
0.7973	-19.7146	1.64395	0	
0.7980	-23.0703	3.18674	0	
0.7987	-19.1016	5.31123	0	
0.7993	-15.7459	4.40073	0	
0.8000	-12.6806	3.49023	0	
0.8007	-7.19535	3.79373	0	
0.8013	-2.2909	3.49023	0	
0.8020	1.06478	2.88324	0	
0.8027	1.64557	2.27624	0	
0.8033	-2.0005	1.03695	0	
0.8040	-4.45273	-0.177041	0	
0.8047	0.742121	0.429956	0	
0.8053	5.32391	2.57974	0	
0.8060	6.84042	2.88324	0	
0.8067	12.6483	1.64395	0	
0.8073	21.8119	1.34045	0	
0.8080	23.038	0.733455	0	
0.8087	17.2301	-0.480539	0	
0.8093	15.1006	0.126458	0	
0.8100	15.3909	1.34045	0	
0.8107	11.7449	1.03695	0	
0.8113	7.16308	0.126458	0	
0.8120	3.48474	-0.480539	0	
0.8127	0.742121	-0.177041	0	
0.8133	-1.71011	2.57974	0	
0.8140	-5.67884	5.00773	0	
0.8147	-7.8084	3.49023	0	
0.8153	-5.06578	1.64395	0	
0.8160	-5.67884	1.97274	0	
0.8167	-16.0363	4.40073	0	
0.8173	-25.1998	5.31123	0	
0.8180	-25.8129	5.00773	0	
0.8187	-23.0703	4.40073	0	
0.8193	-20.2954	3.49023	0	
0.8200	-15.1328	0.733455	0	
0.8207	-11.7771	-2.60503	0	
0.8213	-9.61531	-1.39104	0	
0.8220	-5.67884	1.97274	0	
0.8227	-0.483992	0.733455	0	
0.8233	1.35518	-2.93382	0	
0.8240	2.58129	-2.93382	0	
0.8247	5.32391	-1.99803	0	
0.8253	5.93697	-3.84432	0	
0.8260	8.38919	-6.5758	0	
0.8267	17.5205	-7.1828	0	
0.8273	26.3937	-7.1828	0	
0.8280	27.2971	-8.42209	0	
0.8287	24.5545	-9.02908	0	
0.8293	22.1023	-7.1828	0	
0.8300	16.6171	-3.23732	0	
0.8307	8.96998	-1.08754	0	
0.8313	4.0978	-1.99803	0	
0.8320	2.58129	-0.784038	0	
0.8327	1.96823	1.64395	0	
0.8333	0.451726	0.429956	0	
0.8340	-1.09705	-1.99803	0	
0.8347	-2.61356	-1.08754	0	
0.8353	-4.45273	-0.177041	0	
0.8360	-9.61531	0.733455	0	
0.8367	-18.7789	5.31123	0	
0.8373	-27.039	8.3715	0	
0.8380	-29.459	5.91822	0	
0.8387	-27.3294	5.00773	0	
0.8393	-23.3607	6.85401	0	
0.8400	-19.1016	5.31123	0	
0.8407	-14.1971	3.49023	0	
0.8413	-9.32491	4.70423	0	
0.8420	-4.45273	4.09723	0	
0.8427	-0.161331	1.64395	0	
0.8433	1.96823	0.733455	0	
0.8440	2.87169	-2.93382	0	
0.8447	5.03352	-7.51159	0	
0.8453	7.16308	-5.96881	0	
0.8460	8.06653	-4.45131	0	
0.8467	13.8744	-6.5758	0	
0.8473	22.425	-6.5758	0	
0.8480	24.5545	-3.84432	0	
0.8487	22.7154	-4.45131	0	
0.8493	21.8119	-5.36181	0	
0.8500	18.1336	-3.54082	0	
0.8507	13.8744	-1.39104	0	
0.8513	12.0353	0.126458	0	
0.8520	7.16308	2.57974	0	
0.8527	1.06478	2.27624	0	
0.8533	-1.09705	0.429956	0	
0.8540	-3.83967	2.27624	0	
0.8547	-5.67884	4.40073	0	
0.8553	-3.83967	1.97274	0	
0.8560	-6.87269	0.733455	0	
0.8567	-16.0363	4.09723	0	
0.8573	-22.1346	4.09723	0	
0.8580	-23.9737	2.27624	0	
0.8587	-22.1346	2.57974	0	
0.8593	-17.2624	0.733455	0	
0.8600	-12.971	-1.39104	0	
0.8607	-8.42146	1.03695	0	
0.8613	-3.22661	3.49023	0	
0.8620	-0.161331	1.03695	0	
0.8627	2.25863	-0.177041	0	
0.8633	4.42046	0.733455	0	
0.8640	4.42046	-1.08754	0	
0.8647	7.16308	-4.75481	0	
0.8653	17.5205	-6.5758	0	
0.8660	27.5875	-6.5758	0	
0.8667	34.6216	-5.66531	0	
0.8673	40.1068	-5.36181	0	
0.8680	41.0425	-5.96881	0	
0.8687	37.3642	-5.96881	0	
0.8693	30.0398	-5.36181	0	
0.8700	21.1988	-4.14781	0	
0.8707	12.6483	-2.93382	0	
0.8713	1.96823	-2.93382	0	
0.8720	-8.71186	-2.60503	0	
0.8727	-12.0675	0.733455	0	
0.8733	-10.8414	1.03695	0	
0.8740	-12.0675	-1.39104	0	
0.8747	-14.1971	0.126458	0	
0.8753	-12.971	2.88324	0	
0.8760	-14.5198	1.03695	0	
0.8767	-19.3919	0.733455	0	
0.8773	-25.1998	4.09723	0	
0.8780	-31.2981	3.49023	0	
0.8787	-31.9112	1.64395	0	
0.8793	-25.8129	2.57974	0	
0.8800	-21.2311	1.34045	0	
0.8807	-18.7789	-2.60503	0	
0.8813	-12.971	-2.60503	0	
0.8820	-8.71186	0.126458	0	
0.8827	-7.48574	-0.784038	0	
0.8833	-3.51701	-3.23732	0	
0.8840	0.742121	-3.84432	0	
0.8847	2.58129	-5.36181	0	
0.8853	6.22736	-6.5758	0	
0.8860	10.8092	-4.45131	0	
0.8867	14.1648	-2.93382	0	
0.8873	20.8762	-5.66531	0	
0.8880	25.458	-7.51159	0	
0.8887	20.5858	-3.84432	0	
0.8893	15.3909	-1.99803	0	
0.8900	13.5518	-2.60503	0	
0.8907	9.9057	-0.177041	0	
0.8913	7.77614	1.97274	0	
0.8920	7.16308	1.03695	0	
0.8927	1.64557	-0.177041	0	
0.8933	-2.90395	-1.08754	0	
0.8940	-2.90395	-1.08754	0	
0.8947	-5.06578	-0.177041	0	
0.8953	-7.8084	1.03695	0	
0.8960	-10.2284	0.733455	0	
0.8967	-16.0363	0.733455	0	
0.8973	-20.9085	2.27624	0	
0.8980	-21.5215	1.97274	0	
0.8987	-21.2311	2.57974	0	
0.8993	-17.5528	5.91822	0	
0.9000	-11.4545	6.22172	0	
0.9007	-8.71186	2.57974	0	
0.9013	-6.87269	0.733455	0	
0.9020	-3.83967	1.64395	0	
0.9027	-5.67884	1.64395	0	
0.9033	-8.0988	0.733455	0	
0.9040	-2.90395	0.429956	0	
0.9047	2.58129	0.126458	0	
0.9053	3.19435	1.64395	0	
0.9060	5.93697	1.34045	0	
0.9067	13.5518	-1.69453	0	
0.9073	21.8119	-1.99803	0	
0.9080	25.7806	0.429956	0	
0.9087	25.458	0.733455	0	
0.9093	22.425	-1.08754	0	
0.9100	17.5205	-2.93382	0	
0.9107	11.7449	-1.99803	0	
0.9113	6.55002	3.18674	0	
0.9120	0.742121	5.31123	0	
0.9127	-6.58229	0.733455	0	
0.9133	-11.1641	-0.784038	0	
0.9140	-12.971	3.18674	0	
0.9147	-15.1328	4.40073	0	
0.9153	-14.8102	1.34045	0	
0.9160	-13.584	-0.177041	0	
0.9167	-19.7146	1.97274	0	
0.9173	-28.5555	5.91822	0	
0.9180	-31.0078	5.91822	0	
0.9187	-28.8459	1.97274	0	
0.9193	-25.8129	1.64395	0	
0.9200	-23.6833	4.40073	0	
0.9207	-21.5215	3.18674	0	
0.9213	-16.0363	1.03695	0	
0.9220	-9.32491	1.97274	0	
0.9227	-6.87269	2.57974	0	
0.9233	-4.74312	1.64395	0	
0.9240	0.451726	0.429956	0	
0.9247	4.42046	-0.177041	0	
0.9253	5.61431	-0.480539	0	
0.9260	9.9057	-1.69453	0	
0.9267	19.9727	-3.84432	0	
0.9273	29.1363	-6.2723	0	
0.9280	28.8137	-7.51159	0	
0.9287	23.6188	-7.51159	0	
0.9293	22.7154	-5.66531	0	
0.9300	19.9727	-3.23732	0	
0.9307	12.9387	-1.99803	0	
0.9313	8.67959	-1.69453	0	
0.9320	5.03352	-1.08754	0	
0.9327	-2.0005	-0.480539	0	
0.9333	-4.74312	-0.177041	0	
0.9340	-2.2909	0.126458	0	
0.9347	-2.61356	-1.39104	0	
0.9353	-2.90395	-5.05831	0	
0.9360	-2.90395	-6.8793	0	
0.9367	-11.1641	-3.54082	0	
0.9373	-22.4572	-0.480539	0	
0.9380	-25.1998	-0.177041	0	
0.9387	-22.7476	1.97274	0	
0.9393	-20.005	4.09723	0	
0.9400	-15.1328	1.34045	0	
0.9407	-9.32491	-1.99803	0	
0.9413	-4.74312	-3.54082	0	
0.9420	-0.161331	-3.84432	0	
0.9427	4.42046	-2.60503	0	
0.9433	6.84042	-1.99803	0	
0.9440	7.45348	-3.84432	0	
0.9447	8.06653	-3.84432	0	
0.9453	7.77614	-1.69453	0	
0.9460	11.4222	-1.69453	0	
0.9467	22.425	-4.75481	0	
0.9473	30.9432	-5.96881	0	
0.9480	30.3624	-4.14781	0	
0.9487	29.1363	-2.93382	0	
0.9493	28.2006	-2.60503	0	
0.9500	20.8762	-2.93382	0	
0.9507	13.2614	-2.93382	0	
0.9513	9.9057	-1.69453	0	
0.9520	6.22736	0.126458	0	
0.9527	5.93697	0.733455	0	
0.9533	9.9057	0.126458	0	
0.9540	8.38919	-0.177041	0	
0.9547	4.71086	-0.784038	0	
0.9553	5.03352	-0.784038	0	
0.9560	0.129065	-0.177041	0	
0.9567	-12.6806	1.97274	0	
0.9573	-19.7146	5.31123	0	
0.9580	-21.5215	5.31123	0	
0.9587	-28.5555	3.79373	0	
0.9593	-34.3634	4.70423	0	
0.9600	-29.459	5.31123	0	
0.9607	-21.8442	3.18674	0	
0.9613	-17.8754	2.57974	0	
0.9620	-13.9067	1.97274	0	
0.9627	-10.2284	-0.784038	0	
0.9633	-9.03452	-1.99803	0	
0.9640	-6.58229	-3.84432	0	
0.9647	-1.09705	-5.96881	0	
0.9653	3.48474	-3.23732	0	
0.9660	9.9057	-1.08754	0	
0.9667	16.6171	-4.75481	0	
0.9673	20.5858	-5.66531	0	
0.9680	22.7154	-3.84432	0	
0.9687	23.9415	-5.05831	0	
0.9693	20.2631	-6.2723	0	
0.9700	13.8744	-3.84432	0	
0.9707	9.9057	-4.75481	0	
0.9713	5.32391	-4.75481	0	
0.9720	-0.161331	-0.177041	0	
0.9727	-2.90395	2.57974	0	
0.9733	-3.83967	0.733455	0	
0.9740	-7.48574	0.126458	0	
0.9747	-12.6806	1.64395	0	
0.9753	-15.4232	2.27624	0	
0.9760	-17.8754	4.09723	0	
0.9767	-23.9737	7.15751	0	
0.9773	-28.8459	8.068	0	
0.9780	-26.426	6.85401	0	
0.9787	-17.5528	4.40073	0	
0.9793	-10.2284	2.27624	0	
0.9800	-4.13006	1.97274	0	
0.9807	3.48474	2.88324	0	
0.9813	7.77614	2.57974	0	
0.9820	7.16308	2.57974	0	
0.9827	8.96998	6.22172	0	
0.9833	12.0353	8.3715	0	
0.9840	11.7449	7.15751	0	
0.9847	12.6483	4.70423	0	
0.9853	15.3909	3.79373	0	
0.9860	18.1336	2.57974	0	
0.9867	23.6188	1.34045	0	
0.9873	30.9432	1.03695	0	
0.9880	34.0085	-0.177041	0	
0.9887	32.7824	-1.99803	0	
0.9893	28.8137	-1.69453	0	
0.9900	19.0693	0.429956	0	
0.9907	7.16308	0.126458	0	
0.9913	1.96823	1.34045	0	
0.9920	1.35518	5.31123	0	
0.9927	0.742121	4.09723	0	
0.9933	-2.0005	-1.08754	0	
0.9940	-3.83967	-0.480539	0	
0.9947	-2.61356	3.49023	0	
0.9953	-3.83967	4.70423	0	
0.9960	-12.6806	7.15751	0	
0.9967	-22.4572	9.282	0	
0.9973	-26.426	8.9785	0	
0.9980	-27.9425	9.282	0	
0.9987	-28.5555	11.7353	0	
0.9993	-25.1998	10.7995	0	
1.0000	-20.005	7.15751	0	
1.0007	-14.8102	5.00773	0	
1.0013	-9.03452	1.97274	0	
1.0020	-3.51701	-1.99803	0	
1.0027	1.35518	-5.05831	0	
1.0033	5.32391	-7.51159	0	
1.0040	6.22736	-9.63608	0	
1.0047	3.8074	-8.72559	0	
1.0053	4.42046	-5.36181	0	
1.0060	9.29265	-4.45131	0	
1.0067	16.004	-6.5758	0	
1.0073	21.4892	-5.96881	0	
1.0080	22.7154	-3.23732	0	
1.0087	21.4892	-1.99803	0	
1.0093	21.4892	-2.30153	0	
1.0100	19.0693	-2.93382	0	
1.0107	13.2614	-2.60503	0	
1.0113	8.96998	-1.08754	0	
1.0120	6.55002	-1.08754	0	
1.0127	2.58129	-0.480539	0	
1.0133	-0.161331	1.64395	0	
1.0140	-2.61356	1.03695	0	
1.0147	-4.13006	-1.69453	0	
1.0153	-5.06578	-1.08754	0	
1.0160	-9.32491	1.34045	0	
1.0167	-17.5528	1.97274	0	
1.0173	-23.9737	1.64395	0	
1.0180	-26.1033	3.49023	0	
1.0187	-27.3294	4.40073	0	
1.0193	-25.4902	1.97274	0	
1.0200	-20.6181	-1.99803	0	
1.0207	-15.7459	-2.93382	0	
1.0213	-12.0675	-2.60503	0	
1.0220	-8.42146	-2.93382	0	
1.0227	-7.19535	-0.480539	0	
1.0233	-4.13006	0.429956	0	
1.0240	5.93697	-3.84432	0	
1.0247	18.4562	-3.23732	0	
1.0253	23.6188	-1.39104	0	
1.0260	23.9415	-7.51159	0	
1.0267	28.8137	-12.0894	0	
1.0273	33.7181	-9.33258	0	
1.0280	32.492	-9.33258	0	
1.0287	28.8137	-9.33258	0	
1.0293	21.4892	-3.84432	0	
1.0300	9.58304	-2.60503	0	
1.0307	-0.483992	-3.84432	0	
1.0313	-5.06578	-1.08754	0	
1.0320	-5.96923	1.64395	0	
1.0327	-6.58229	1.03695	0	
1.0333	-12.0675	0.126458	0	
1.0340	-20.005	0.733455	0	
1.0347	-19.1016	4.40073	0	
1.0353	-13.584	5.91822	0	
1.0360	-17.8754	2.57974	0	
1.0367	-27.6198	1.97274	0	
1.0373	-31.2981	5.00773	0	
1.0380	-31.9112	4.70423	0	
1.0387	-32.5243	3.18674	0	
1.0393	-29.459	3.49023	0	
1.0400	-22.4572	3.18674	0	
1.0407	-15.1328	3.79373	0	
1.0413	-8.71186	3.49023	0	
1.0420	-2.2909	-0.177041	0	
1.0427	2.58129	-0.177041	0	
1.0433	1.96823	-0.480539	0	
1.0440	0.129065	-5.05831	0	
1.0447	2.87169	-4.75481	0	
1.0453	6.84042	-1.08754	0	
1.0460	8.96998	-3.84432	0	
1.0467	14.1648	-7.81509	0	
1.0473	20.5858	-7.81509	0	
1.0480	23.038	-6.2723	0	
1.0487	22.7154	-1.08754	0	
1.0493	18.1336	2.57974	0	
1.0500	11.7449	-1.69453	0	
1.0507	9.9057	-2.93382	0	
1.0513	8.38919	2.57974	0	
1.0520	4.42046	1.34045	0	
1.0527	3.8074	-1.39104	0	
1.0533	2.87169	2.88324	0	
1.0540	-3.51701	5.31123	0	
1.0547	-5.67884	2.88324	0	
1.0553	-3.22661	2.88324	0	
1.0560	-9.61531	5.31123	0	
1.0567	-19.3919	4.70423	0	
1.0573	-21.8442	1.97274	0	
1.0580	-23.0703	1.34045	0	
1.0587	-23.9737	4.40073	0	
1.0593	-19.7146	6.22172	0	
1.0600	-17.8754	1.97274	0	
1.0607	-17.2624	-0.784038	0	
1.0613	-10.8414	1.34045	0	
1.0620	-4.13006	1.34045	0	
1.0627	-3.51701	-1.69453	0	
1.0633	-2.0005	-2.30153	0	
1.0640	2.25863	-2.93382	0	
1.0647	4.71086	-3.84432	0	
1.0653	6.55002	-4.45131	0	
1.0660	11.1318	-7.51159	0	
1.0667	18.4562	-9.93958	0	
1.0673	26.071	-6.2723	0	
1.0680	29.4267	-2.93382	0	
1.0687	26.6841	-4.75481	0	
1.0693	20.8762	-5.36181	0	
1.0700	14.4875	-1.08754	0	
1.0707	9.9057	-0.177041	0	
1.0713	7.45348	-1.08754	0	
1.0720	4.42046	0.429956	0	
1.0727	0.451726	0.429956	0	
1.0733	-2.0005	-2.60503	0	
1.0740	-4.74312	-3.54082	0	
1.0747	-8.42146	-2.60503	0	
1.0753	-10.551	-0.784038	0	
1.0760	-14.1971	1.64395	0	
1.0767	-21.8442	1.97274	0	
1.0773	-27.039	-0.480539	0	
1.0780	-27.039	-1.08754	0	
1.0787	-26.7164	-0.480539	0	
1.0793	-23.0703	-1.08754	0	
1.0800	-14.1971	-1.69453	0	
1.0807	-6.58229	-2.30153	0	
1.0813	-2.61356	-3.84432	0	
1.0820	2.25863	-3.84432	0	
1.0827	6.22736	-1.08754	0	
1.0833	6.22736	0.126458	0	
1.0840	6.55002	-1.08754	0	
1.0847	8.67959	0.126458	0	
1.0853	9.9057	2.57974	0	
1.0860	12.6483	1.64395	0	
1.0867	19.0693	-0.177041	0	
1.0873	22.7154	-0.177041	0	
1.0880	22.7154	-0.480539	0	
1.0887	23.038	-0.177041	0	
1.0893	21.1988	1.97274	0	
1.0900	16.9075	1.64395	0	
1.0907	13.5518	-0.480539	0	
1.0913	9.9057	1.64395	0	
1.0920	5.93697	3.79373	0	
1.0927	5.93697	-0.177041	0	
1.0933	3.19435	-3.84432	0	
1.0940	-5.35618	-2.30153	0	
1.0947	-9.32491	-0.480539	0	
1.0953	-7.48574	0.733455	0	
1.0960	-12.971	3.79373	0	
1.0967	-23.0703	5.00773	0	
1.0973	-28.8459	4.70423	0	
1.0980	-31.9112	6.85401	0	
1.0987	-31.2981	7.15751	0	
1.0993	-24.8772	4.70423	0	
1.1000	-21.2311	3.79373	0	
1.1007	-21.2311	1.97274	0	
1.1013	-18.1658	-1.99803	0	
1.1020	-13.584	-1.39104	0	
1.1027	-9.32491	0.733455	0	
1.1033	-0.483992	-1.08754	0	
1.1040	8.96998	-1.39104	0	
1.1047	13.8744	-0.177041	0	
1.1053	20.8762	-3.84432	0	
1.1060	32.7824	-7.1828	0	
1.1067	41.0425	-3.54082	0	
1.1073	42.2364	0.126458	0	
1.1080	40.4295	-1.08754	0	
1.1087	36.4607	-1.39104	0	
1.1093	28.5233	-0.177041	0	
1.1100	18.1336	0.733455	0	
1.1107	10.8092	1.03695	0	
1.1113	4.71086	2.27624	0	
1.1120	-5.35618	2.88324	0	
1.1127	-12.3902	2.57974	0	
1.1133	-10.8414	3.49023	0	
1.1140	-9.32491	5.61472	0	
1.1147	-12.6806	5.31123	0	
1.1153	-12.6806	4.70423	0	
1.1160	-13.584	7.15751	0	
1.1167	-22.1346	8.3715	0	
1.1173	-29.459	6.22172	0	
1.1180	-27.6198	6.22172	0	
1.1187	-23.0703	7.46101	0	
1.1193	-20.9085	5.31123	0	
1.1200	-18.1658	2.57974	0	
1.1207	-13.9067	-0.177041	0	
1.1213	-9.32491	-4.45131	0	
1.1220	-5.35618	-6.5758	0	
1.1227	-2.0005	-3.84432	0	
1.1233	0.451726	-2.60503	0	
1.1240	3.19435	-4.45131	0	
1.1247	4.42046	-4.75481	0	
1.1253	4.71086	-2.60503	0	
1.1260	9.58304	-3.54082	0	
1.1267	17.5205	-6.2723	0	
1.1273	22.7154	-5.36181	0	
1.1280	23.3284	-3.84432	0	
1.1287	23.6188	-4.75481	0	
1.1293	23.6188	-5.66531	0	
1.1300	19.0693	-4.75481	0	
1.1307	12.6483	-2.60503	0	
1.1313	8.96998	-0.480539	0	
1.1320	7.45348	-1.39104	0	
1.1327	3.48474	-3.84432	0	
1.1333	-1.09705	-3.84432	0	
1.1340	-3.22661	-2.60503	0	
1.1347	-4.13006	-4.75481	0	
1.1353	-6.58229	-5.66531	0	
1.1360	-10.8414	-3.23732	0	
1.1367	-17.5528	-2.93382	0	
1.1373	-24.8772	-3.84432	0	
1.1380	-28.2329	-2.30153	0	
1.1387	-24.8772	0.733455	0	
1.1393	-20.2954	1.64395	0	
1.1400	-18.1658	1.97274	0	
1.1407	-14.8102	2.57974	0	
1.1413	-9.61531	1.64395	0	
1.1420	-5.67884	-1.08754	0	
1.1427	-2.2909	-1.99803	0	
1.1433	1.35518	-1.99803	0	
1.1440	2.58129	-3.23732	0	
1.1447	3.48474	-4.14781	0	
1.1453	8.06653	-3.23732	0	
1.1460	14.1648	-3.23732	0	
1.1467	18.1336	-5.96881	0	
1.1473	20.8762	-8.11859	0	
1.1480	23.6188	-8.11859	0	
1.1487	23.6188	-7.51159	0	
1.1493	18.1336	-5.05831	0	
1.1500	11.7449	-1.69453	0	
1.1507	10.1961	-1.99803	0	
1.1513	6.22736	-3.54082	0	
1.1520	-2.90395	-1.08754	0	
1.1527	-5.35618	-0.177041	0	
1.1533	-2.0005	-2.93382	0	
1.1540	-3.22661	-2.60503	0	
1.1547	-6.58229	1.97274	0	
1.1553	-7.8084	4.09723	0	
1.1560	-11.1641	2.88324	0	
1.1567	-17.8754	2.88324	0	
1.1573	-23.3607	4.40073	0	
1.1580	-24.8772	4.40073	0	
1.1587	-23.0703	2.57974	0	
1.1593	-20.2954	-0.177041	0	
1.1600	-16.0363	-2.60503	0	
1.1607	-11.1641	-2.60503	0	
1.1613	-6.58229	-0.784038	0	
1.1620	-2.90395	-0.784038	0	
1.1627	0.129065	-2.60503	0	
1.1633	4.0978	-3.84432	0	
1.1640	8.38919	-4.45131	0	
1.1647	9.9057	-4.75481	0	
1.1653	9.58304	-5.05831	0	
1.1660	12.6483	-5.66531	0	
1.1667	18.4562	-3.84432	0	
1.1673	21.8119	-1.99803	0	
1.1680	22.425	-4.75481	0	
1.1687	21.1988	-6.5758	0	
1.1693	19.0693	-3.84432	0	
1.1700	16.004	-1.08754	0	
1.1707	12.0353	-0.177041	0	
1.1713	7.16308	1.64395	0	
1.1720	2.58129	1.97274	0	
1.1727	0.129065	2.57974	0	
1.1733	-2.90395	5.91822	0	
1.1740	-5.96923	5.31123	0	
1.1747	-6.58229	3.49023	0	
1.1753	-7.48574	5.31123	0	
1.1760	-12.3902	7.15751	0	
1.1767	-21.2311	8.068	0	
1.1773	-27.3294	8.068	0	
1.1780	-27.039	5.91822	0	
1.1787	-23.0703	4.40073	0	
1.1793	-18.4885	3.79373	0	
1.1800	-13.584	-0.177041	0	
1.1807	-9.32491	-1.99803	0	
1.1813	-6.25963	0.733455	0	
1.1820	-2.2909	1.34045	0	
1.1827	0.129065	0.429956	0	
1.1833	1.06478	0.126458	0	
1.1840	3.48474	-1.69453	0	
1.1847	5.32391	-3.84432	0	
1.1853	4.0978	-4.75481	0	
1.1860	8.96998	-6.5758	0	
1.1867	20.2631	-8.11859	0	
1.1873	26.3937	-8.11859	0	
1.1880	24.5545	-7.51159	0	
1.1887	22.7154	-4.75481	0	
1.1893	20.2631	-2.60503	0	
1.1900	15.1006	-2.93382	0	
1.1907	10.8092	-3.84432	0	
1.1913	7.45348	-1.69453	0	
1.1920	4.42046	-0.784038	0	
1.1927	5.32391	-1.99803	0	
1.1933	10.5188	-1.99803	0	
1.1940	12.0353	0.733455	0	
1.1947	9.29265	2.27624	0	
1.1953	4.42046	2.88324	0	
1.1960	-2.90395	5.00773	0	
1.1967	-13.2936	8.068	0	
1.1973	-21.2311	9.282	0	
1.1980	-24.8772	8.9785	0	
1.1987	-27.9425	6.22172	0	
1.1993	-31.2981	4.40073	0	
1.2000	-31.5885	4.40073	0	
1.2007	-26.7164	2.88324	0	
1.2013	-21.2311	-0.480539	0	
1.2020	-16.6493	-1.69453	0	
1.2027	-9.03452	-1.39104	0	
1.2033	-1.09705	-2.30153	0	
1.2040	-0.161331	-1.99803	0	
1.2047	0.742121	-0.177041	0	
1.2053	6.22736	-1.08754	0	
1.2060	12.0353	-3.84432	0	
1.2067	19.0693	-4.75481	0	
1.2073	27.2971	-3.54082	0	
1.2080	29.1363	-3.23732	0	
1.2087	24.8449	-4.75481	0	
1.2093	23.038	-5.05831	0	
1.2100	19.0693	-4.75481	0	
1.2107	12.0353	-3.84432	0	
1.2113	8.38919	-2.93382	0	
1.2120	7.16308	-2.93382	0	
1.2127	2.58129	-1.99803	0	
1.2133	-0.774387	1.34045	0	
1.2140	-2.0005	1.97274	0	
1.2147	-2.2909	-0.177041	0	
1.2153	-3.83967	0.733455	0	
1.2160	-9.61531	2.88324	0	
1.2167	-17.8754	2.57974	0	
1.2173	-24.2641	3.79373	0	
1.2180	-27.3294	4.40073	0	
1.2187	-25.8129	2.27624	0	
1.2193	-20.6181	3.18674	0	
1.2200	-16.6493	4.40073	0	
1.2207	-12.6806	2.57974	0	
1.2213	-5.67884	3.49023	0	
1.2220	0.129065	4.40073	0	
1.2227	4.0978	0.126458	0	
1.2233	8.96998	-1.08754	0	
1.2240	10.8092	1.64395	0	
1.2247	7.16308	0.429956	0	
1.2253	6.84042	-1.39104	0	
1.2260	12.6483	-0.177041	0	
1.2267	18.1336	-1.69453	0	
1.2273	20.5858	-2.93382	0	
1.2280	21.4892	-0.480539	0	
1.2287	19.0693	0.429956	0	
1.2293	16.004	0.733455	0	
1.2300	14.7779	1.64395	0	
1.2307	10.8092	-0.784038	0	
1.2313	4.0978	-2.60503	0	
1.2320	1.64557	-0.177041	0	
1.2327	0.451726	2.57974	0	
1.2333	-3.51701	4.09723	0	
1.2340	-5.35618	3.79373	0	
1.2347	-3.51701	2.27624	0	
1.2353	-4.74312	2.57974	0	
1.2360	-12.0675	5.00773	0	
1.2367	-20.2954	5.31123	0	
1.2373	-24.2641	3.49023	0	
1.2380	-24.5868	1.97274	0	
1.2387	-25.4902	-1.39104	0	
1.2393	-24.8772	-4.45131	0	
1.2400	-21.2311	-3.23732	0	
1.2407	-19.1016	-0.784038	0	
1.2413	-18.4885	-0.784038	0	
1.2420	-15.7459	-0.480539	0	
1.2427	-10.551	1.34045	0	
1.2433	-2.90395	-0.177041	0	
1.2440	6.55002	-1.39104	0	
1.2447	13.2614	1.64395	0	
1.2453	17.8432	2.57974	0	
1.2460	25.458	-1.08754	0	
1.2467	31.8789	-1.69453	0	
1.2473	34.6216	-1.08754	0	
1.2480	32.492	-2.30153	0	
1.2487	24.8449	-0.784038	0	
1.2493	18.1336	1.64395	0	
1.2500	16.004	0.733455	0	
1.2507	12.0353	0.733455	0	
1.2513	4.42046	4.40073	0	
1.2520	0.742121	5.00773	0	
1.2527	-0.774387	4.09723	0	
1.2533	-4.13006	5.91822	0	
1.2540	-6.58229	7.46101	0	
1.2547	-8.71186	4.70423	0	
1.2553	-12.3902	1.64395	0	
1.2560	-18.1658	4.40073	0	
1.2567	-25.8129	8.068	0	
1.2573	-30.6851	6.85401	0	
1.2580	-28.2329	4.40073	0	
1.2587	-23.0703	4.70423	0	
1.2593	-19.3919	3.49023	0	
1.2600	-13.9067	1.03695	0	
1.2607	-7.19535	1.34045	0	
1.2613	-3.83967	1.64395	0	
1.2620	-0.483992	0.126458	0	
1.2627	4.42046	0.126458	0	
1.2633	6.22736	0.429956	0	
1.2640	5.03352	-0.784038	0	
1.2647	6.22736	-1.99803	0	
1.2653	8.96998	-3.84432	0	
1.2660	9.58304	-5.96881	0	
1.2667	13.5518	-5.66531	0	
1.2673	19.9727	-4.75481	0	
1.2680	22.7154	-6.5758	0	
1.2687	20.5858	-6.2723	0	
1.2693	18.1336	-2.93382	0	
1.2700	15.1006	-1.08754	0	
1.2707	10.1961	-0.784038	0	
1.2713	5.03352	-0.480539	0	
1.2720	1.64557	-1.69453	0	
1.2727	0.129065	-3.23732	0	
1.2733	-2.0005	-3.54082	0	
1.2740	-5.35618	-1.08754	0	
1.2747	-5.35618	0.733455	0	
1.2753	-4.74312	-0.177041	0	
1.2760	-9.93797	-1.69453	0	
1.2767	-16.6493	-1.08754	0	
1.2773	-20.2954	-0.177041	0	
1.2780	-23.0703	-0.177041	0	
1.2787	-20.6181	0.126458	0	
1.2793	-12.971	1.03695	0	
1.2800	-8.42146	-0.177041	0	
1.2807	-6.58229	-2.93382	0	
1.2813	-3.22661	-3.84432	0	
1.2820	-1.09705	-2.93382	0	
1.2827	4.0978	-3.84432	0	
1.2833	15.3909	-6.8793	0	
1.2840	20.8762	-7.51159	0	
1.2847	19.0693	-4.75481	0	
1.2853	19.6823	-5.05831	0	
1.2860	22.7154	-8.42209	0	
1.2867	23.9415	-8.11859	0	
1.2873	26.3937	-5.05831	0	
1.2880	26.3937	-4.45131	0	
1.2887	17.8432	-5.36181	0	
1.2893	8.06653	-5.66531	0	
1.2900	3.48474	-5.05831	0	
1.2907	1.35518	-2.93382	0	
1.2913	-1.38744	0.733455	0	
1.2920	-3.22661	1.64395	0	
1.2927	-5.67884	0.733455	0	
1.2933	-8.42146	0.126458	0	
1.2940	-9.32491	0.733455	0	
1.2947	-8.0988	0.429956	0	
1.2953	-8.42146	0.733455	0	
1.2960	-12.971	1.97274	0	
1.2967	-19.7146	2.57974	0	
1.2973	-26.7164	1.97274	0	
1.2980	-30.6851	2.27624	0	
1.2987	-29.459	2.88324	0	
1.2993	-25.8129	2.57974	0	
1.3000	-22.1346	1.64395	0	
1.3007	-15.4232	1.64395	0	
1.3013	-8.71186	1.34045	0	
1.3020	-5.67884	0.733455	0	
1.3027	-2.90395	-1.08754	0	
1.3033	-0.774387	-3.54082	0	
1.3040	-0.161331	-2.93382	0	
1.3047	2.25863	-0.177041	0	
1.3053	6.22736	-0.177041	0	
1.3060	9.9057	-2.93382	0	
1.3067	14.4875	-5.66531	0	
1.3073	17.8432	-6.5758	0	
1.3080	19.0693	-5.05831	0	
1.3087	19.9727	-3.54082	0	
1.3093	18.7466	-2.93382	0	
1.3100	14.4875	-1.39104	0	
1.3107	11.7449	-0.480539	0	
1.3113	8.96998	-0.177041	0	
1.3120	3.8074	2.88324	0	
1.3127	-0.161331	4.40073	0	
1.3133	-3.83967	0.733455	0	
1.3140	-8.0988	-1.39104	0	
1.3147	-8.71186	-0.784038	0	
1.3153	-8.0988	-1.39104	0	
1.3160	-10.551	-1.69453	0	
1.3167	-15.1328	0.733455	0	
1.3173	-20.2954	3.49023	0	
1.3180	-23.0703	5.91822	0	
1.3187	-22.7476	6.85401	0	
1.3193	-22.1346	6.22172	0	
1.3200	-20.9085	3.49023	0	
1.3207	-14.8102	-0.480539	0	
1.3213	-8.71186	-1.99803	0	
1.3220	-4.45273	-1.08754	0	
1.3227	-0.161331	-2.93382	0	
1.3233	1.64557	-3.84432	0	
1.3240	2.58129	-2.60503	0	
1.3247	7.45348	-3.54082	0	
1.3253	8.38919	-4.75481	0	
1.3260	7.77614	-3.54082	0	
1.3267	16.004	-4.45131	0	
1.3273	25.1676	-6.5758	0	
1.3280	25.7806	-4.75481	0	
1.3287	26.3937	-3.84432	0	
1.3293	28.5233	-6.2723	0	
1.3300	22.7154	-6.8793	0	
1.3307	13.8744	-5.36181	0	
1.3313	8.96998	-2.30153	0	
1.3320	5.32391	1.64395	0	
1.3327	1.64557	0.429956	0	
1.3333	0.129065	-3.84432	0	
1.3340	-2.90395	-3.54082	0	
1.3347	-8.42146	0.429956	0	
1.3353	-11.7771	2.27624	0	
1.3360	-15.7459	3.49023	0	
1.3367	-23.6833	4.40073	0	
1.3373	-27.6198	4.40073	0	
1.3380	-25.8129	5.91822	0	
1.3387	-23.9737	6.55051	0	
1.3393	-22.1346	4.70423	0	
1.3400	-16.6493	3.79373	0	
1.3407	-9.93797	4.40073	0	
1.3413	-5.96923	3.49023	0	
1.3420	-2.90395	2.57974	0	
1.3427	0.742121	3.49023	0	
1.3433	3.48474	4.09723	0	
1.3440	3.8074	4.09723	0	
1.3447	3.19435	2.88324	0	
1.3453	4.71086	1.97274	0	
1.3460	10.8092	2.57974	0	
1.3467	18.4562	1.64395	0	
1.3473	24.5545	-1.99803	0	
1.3480	25.458	-3.84432	0	
1.3487	22.7154	-1.99803	0	
1.3493	20.2631	-1.08754	0	
1.3500	14.7779	-0.177041	0	
1.3507	7.16308	2.88324	0	
1.3513	4.0978	4.70423	0	
1.3520	3.48474	3.49023	0	
1.3527	-0.161331	3.18674	0	
1.3533	-4.13006	3.49023	0	
1.3540	-4.74312	1.64395	0	
1.3547	-3.51701	-0.784038	0	
1.3553	-2.0005	1.64395	0	
1.3560	-5.96923	4.40073	0	
1.3567	-15.1328	2.88324	0	
1.3573	-20.2954	1.64395	0	
1.3580	-21.2311	3.49023	0	
1.3587	-22.1346	4.09723	0	
1.3593	-19.1016	3.49023	0	
1.3600	-13.9067	5.61472	0	
1.3607	-11.1641	6.22172	0	
1.3613	-9.93797	1.97274	0	
1.3620	-7.48574	-1.08754	0	
1.3627	-5.67884	0.733455	0	
1.3633	-2.2909	1.64395	0	
1.3640	1.96823	-1.99803	0	
1.3647	4.0978	-6.5758	0	
1.3653	6.84042	-9.02908	0	
1.3660	11.7449	-10.2431	0	
1.3667	17.8432	-9.93958	0	
1.3673	23.3284	-7.51159	0	
1.3680	24.5545	-4.75481	0	
1.3687	20.2631	-4.45131	0	
1.3693	16.2944	-4.14781	0	
1.3700	13.2614	-1.99803	0	
1.3707	8.06653	-1.08754	0	
1.3713	2.58129	-2.93382	0	
1.3720	-1.71011	-3.23732	0	
1.3727	-4.74312	-0.177041	0	
1.3733	-6.25963	1.97274	0	
1.3740	-7.48574	2.57974	0	
1.3747	-10.2284	3.79373	0	
1.3753	-12.971	4.40073	0	
1.3760	-16.6493	5.31123	0	
1.3767	-23.3607	7.15751	0	
1.3773	-26.1033	8.068	0	
1.3780	-20.2954	8.068	0	
1.3787	-10.2284	8.068	0	
1.3793	-1.71011	5.91822	0	
1.3800	3.48474	1.64395	0	
1.3807	4.42046	-1.69453	0	
1.3813	2.58129	-3.84432	0	
1.3820	1.64557	-4.75481	0	
1.3827	2.58129	-3.23732	0	
1.3833	1.35518	-1.08754	0	
1.3840	-3.83967	-1.08754	0	
1.3847	-9.32491	-3.23732	0	
1.3853	-9.32491	-6.5758	0	
1.3860	-1.71011	-7.51159	0	
1.3867	7.77614	-5.66531	0	
1.3873	12.3579	-5.36181	0	
1.3880	14.4875	-6.8793	0	
1.3887	16.6171	-7.51159	0	
1.3893	16.2944	-6.8793	0	
1.3900	12.9387	-7.1828	0	
1.3907	8.38919	-7.1828	0	
1.3913	4.0978	-5.05831	0	
1.3920	0.451726	-3.84432	0	
1.3927	-3.83967	-3.84432	0	
1.3933	-7.48574	-3.23732	0	
1.3940	-8.42146	-0.177041	0	
1.3947	-7.48574	-1.08754	0	
1.3953	-9.32491	-4.14781	0	
1.3960	-13.9067	-2.60503	0	
1.3967	-16.9397	1.97274	0	
1.3973	-19.3919	2.27624	0	
1.3980	-20.2954	0.126458	0	
1.3987	-17.2624	0.429956	0	
1.3993	-11.1641	1.64395	0	
1.4000	-7.19535	-0.177041	0	
1.4007	-5.67884	-3.84432	0	
1.4013	-2.90395	-3.84432	0	
1.4020	2.58129	-1.08754	0	
1.4027	7.16308	-0.480539	0	
1.4033	8.38919	-2.60503	0	
1.4040	9.58304	-2.93382	0	
1.4047	11.7449	-2.93382	0	
1.4053	11.7449	-3.23732	0	
1.4060	13.8744	-1.69453	0	
1.4067	21.4892	-1.39104	0	
1.4073	26.3937	-3.54082	0	
1.4080	24.5545	-2.60503	0	
1.4087	22.1023	-1.08754	0	
1.4093	19.0693	-1.69453	0	
1.4100	10.5188	0.429956	0	
1.4107	2.25863	3.49023	0	
1.4113	-1.71011	1.64395	0	
1.4120	-5.35618	1.03695	0	
1.4127	-9.61531	3.49023	0	
1.4133	-11.1641	1.97274	0	
1.4140	-10.2284	1.34045	0	
1.4147	-6.25963	5.31123	0	
1.4153	-0.774387	5.61472	0	
1.4160	1.64557	3.49023	0	
1.4167	-1.71011	3.49023	0	
1.4173	-6.87269	3.18674	0	
1.4180	-9.61531	2.27624	0	
1.4187	-9.93797	2.88324	0	
1.4193	-9.93797	1.03695	0	
1.4200	-8.71186	-1.69453	0	
1.4207	-4.74312	-1.08754	0	
1.4213	-1.38744	0.733455	0	
1.4220	0.451726	1.64395	0	
1.4227	2.87169	0.733455	0	
1.4233	5.93697	-3.23732	0	
1.4240	7.16308	-5.05831	0	
1.4247	7.45348	-4.14781	0	
1.4253	8.96998	-5.05831	0	
1.4260	15.1006	-5.05831	0	
1.4267	24.5545	-2.93382	0	
1.4273	28.2006	-1.08754	0	
1.4280	25.458	0.733455	0	
1.4287	24.2319	1.03695	0	
1.4293	24.5545	-2.30153	0	
1.4300	19.0693	-1.99803	0	
1.4307	12.6483	1.64395	0	
1.4313	8.96998	1.64395	0	
1.4320	5.03352	0.733455	0	
1.4327	1.06478	3.49023	0	
1.4333	-0.483992	3.49023	0	
1.4340	-2.2909	0.733455	0	
1.4347	-3.22661	2.27624	0	
1.4353	-4.45273	5.00773	0	
1.4360	-12.3902	6.22172	0	
1.4367	-22.1346	6.22172	0	
1.4373	-23.0703	5.00773	0	
1.4380	-20.2954	2.88324	0	
1.4387	-20.6181	2.57974	0	
1.4393	-18.7789	4.09723	0	
1.4400	-15.1328	4.40073	0	
1.4407	-13.9067	1.34045	0	
1.4413	-11.4545	-0.784038	0	
1.4420	-5.67884	0.733455	0	
1.4427	-1.09705	-0.480539	0	
1.4433	1.96823	-4.45131	0	
1.4440	3.48474	-4.75481	0	
1.4447	3.8074	-1.99803	0	
1.4453	6.55002	-1.99803	0	
1.4460	13.5518	-1.99803	0	
1.4467	19.9727	-0.784038	0	
1.4473	22.425	0.126458	0	
1.4480	21.4892	-0.177041	0	
1.4487	19.9727	-1.08754	0	
1.4493	17.8432	-1.99803	0	
1.4500	13.5518	-0.177041	0	
1.4507	8.06653	3.79373	0	
1.4513	4.42046	5.91822	0	
1.4520	2.25863	5.31123	0	
1.4527	-1.09705	3.49023	0	
1.4533	-1.38744	2.57974	0	
1.4540	-1.09705	1.64395	0	
1.4547	-6.58229	-1.08754	0	
1.4553	-12.971	-2.93382	0	
1.4560	-17.8754	-1.69453	0	
1.4567	-25.8129	-0.480539	0	
1.4573	-32.8147	-1.08754	0	
1.4580	-31.2981	-0.177041	0	
1.4587	-26.1033	1.64395	0	
1.4593	-23.0703	0.733455	0	
1.4600	-20.2954	-1.39104	0	
1.4607	-16.6493	-0.480539	0	
1.4613	-13.584	2.57974	0	
1.4620	-9.61531	2.57974	0	
1.4627	-4.74312	1.64395	0	
1.4633	0.742121	3.18674	0	
1.4640	5.32391	3.49023	0	
1.4647	5.93697	0.429956	0	
1.4653	5.03352	-2.30153	0	
1.4660	10.1961	-1.99803	0	
1.4667	19.6823	-1.39104	0	
1.4673	23.6188	-0.784038	0	
1.4680	21.1988	-0.784038	0	
1.4687	19.0693	-1.69453	0	
1.4693	20.2631	-0.480539	0	
1.4700	22.1023	1.64395	0	
1.4707	19.6823	0.126458	0	
1.4713	13.5518	-2.30153	0	
1.4720	9.58304	-1.39104	0	
1.4727	6.55002	0.126458	0	
1.4733	-1.09705	1.03695	0	
1.4740	-7.8084	2.27624	0	
1.4747	-9.32491	1.97274	0	
1.4753	-15.1328	-0.177041	0	
1.4760	-29.459	0.429956	0	
1.4767	-40.4617	2.57974	0	
1.4773	-41.3652	1.64395	0	
1.4780	-38.913	-1.08754	0	
1.4787	-34.6538	-2.60503	0	
1.4793	-28.5555	-2.30153	0	
1.4800	-22.7476	-1.99803	0	
1.4807	-15.1328	-2.30153	0	
1.4813	-5.67884	-2.30153	0	
1.4820	0.129065	-1.08754	0	
1.4827	1.35518	-0.480539	0	
1.4833	3.19435	-1.39104	0	
1.4840	5.32391	-2.93382	0	
1.4847	4.71086	-2.60503	0	
1.4853	4.0978	-1.69453	0	
1.4860	7.45348	-2.60503	0	
1.4867	17.2301	-3.84432	0	
1.4873	27.2971	-3.23732	0	
1.4880	26.3937	-3.23732	0	
1.4887	19.6823	-5.66531	0	
1.4893	17.2301	-6.5758	0	
1.4900	15.3909	-6.2723	0	
1.4907	9.9057	-6.8793	0	
1.4913	6.22736	-5.66531	0	
1.4920	4.0978	-1.99803	0	
1.4927	-0.774387	0.126458	0	
1.4933	-4.74312	0.733455	0	
1.4940	-5.67884	1.64395	0	
1.4947	-6.58229	0.429956	0	
1.4953	-5.96923	-1.39104	0	
1.4960	-8.71186	-1.08754	0	
1.4967	-19.3919	0.429956	0	
1.4973	-27.039	0.733455	0	
1.4980	-23.0703	0.429956	0	
1.4987	-18.7789	0.733455	0	
1.4993	-17.2624	1.03695	0	
1.5000	-11.1641	0.126458	0	
1.5007	-5.35618	-1.99803	0	
1.5013	-4.45273	-2.93382	0	
1.5020	-1.38744	-3.23732	0	
1.5027	3.48474	-4.75481	0	
1.5033	5.61431	-5.66531	0	
1.5040	7.16308	-5.05831	0	
1.5047	9.58304	-5.66531	0	
1.5053	10.8092	-4.75481	0	
1.5060	14.4875	-3.84432	0	
1.5067	20.5858	-5.36181	0	
1.5073	23.9415	-5.66531	0	
1.5080	24.5545	-5.05831	0	
1.5087	23.6188	-6.8793	0	
1.5093	19.0693	-6.2723	0	
1.5100	12.9387	-2.93382	0	
1.5107	8.96998	-2.60503	0	
1.5113	5.93697	-1.99803	0	
1.5120	2.25863	0.733455	0	
1.5127	-0.161331	2.27624	0	
1.5133	0.742121	2.88324	0	
1.5140	0.129065	4.40073	0	
1.5147	-4.74312	5.00773	0	
1.5153	-9.61531	5.00773	0	
1.5160	-12.971	5.00773	0	
1.5167	-21.2311	4.40073	0	
1.5173	-29.1686	6.22172	0	
1.5180	-26.7164	8.675	0	
1.5187	-21.2311	8.068	0	
1.5193	-19.7146	5.61472	0	
1.5200	-15.1328	3.79373	0	
1.5207	-7.19535	1.03695	0	
1.5213	-4.74312	-0.480539	0	
1.5220	-3.83967	0.429956	0	
1.5227	0.129065	1.03695	0	
1.5233	4.42046	1.03695	0	
1.5240	6.22736	1.34045	0	
1.5247	7.16308	1.03695	0	
1.5253	9.58304	1.34045	0	
1.5260	15.3909	1.34045	0	
1.5267	21.8119	-0.784038	0	
1.5273	23.9415	-2.93382	0	
1.5280	23.9415	-3.23732	0	
1.5287	23.3284	-1.69453	0	
1.5293	19.9727	-0.177041	0	
1.5300	15.3909	1.34045	0	
1.5307	9.29265	2.57974	0	
1.5313	3.48474	2.57974	0	
1.5320	1.64557	3.49023	0	
1.5327	0.742121	4.40073	0	
1.5333	-2.0005	5.00773	0	
1.5340	-0.774387	5.00773	0	
1.5347	2.87169	1.97274	0	
1.5353	0.451726	-1.99803	0	
1.5360	-6.58229	-1.99803	0	
1.5367	-10.2284	-0.177041	0	
1.5373	-13.9067	-2.93382	0	
1.5380	-19.3919	-5.66531	0	
1.5387	-20.2954	-3.84432	0	
1.5393	-17.2624	-2.60503	0	
1.5400	-15.7459	-3.23732	0	
1.5407	-15.4232	-3.23732	0	
1.5413	-12.0675	-1.99803	0	
1.5420	-7.8084	-1.69453	0	
1.5427	-7.19535	-3.23732	0	
1.5433	-7.48574	-4.75481	0	
1.5440	-4.13006	-4.14781	0	
1.5447	-1.09705	-3.54082	0	
1.5453	-0.161331	-1.99803	0	
1.5460	5.61431	1.03695	0	
1.5467	16.6171	0.733455	0	
1.5473	23.3284	-3.84432	0	
1.5480	23.6188	-4.14781	0	
1.5487	19.9727	-1.99803	0	
1.5493	14.4875	-2.60503	0	
1.5500	9.9057	-2.93382	0	
1.5507	9.58304	-0.480539	0	
1.5513	7.16308	-0.177041	0	
1.5520	1.96823	-0.480539	0	
1.5527	-0.774387	0.126458	0	
1.5533	-2.0005	-0.177041	0	
1.5540	-4.74312	-0.177041	0	
1.5547	-5.67884	0.733455	0	
1.5553	-5.35618	0.733455	0	
1.5560	-11.1641	3.18674	0	
1.5567	-22.4572	8.068	0	
1.5573	-28.5555	7.76451	0	
1.5580	-29.459	4.40073	0	
1.5587	-28.8459	5.00773	0	
1.5593	-23.9737	4.70423	0	
1.5600	-16.6493	1.97274	0	
1.5607	-15.7459	1.34045	0	
1.5613	-17.2624	-0.784038	0	
1.5620	-12.971	-3.23732	0	
1.5627	-7.8084	-0.784038	0	
1.5633	-6.58229	2.27624	0	
1.5640	-5.35618	1.64395	0	
1.5647	-4.74312	2.88324	0	
1.5653	-5.67884	4.09723	0	
1.5660	-3.22661	1.03695	0	
1.5667	4.0978	-1.99803	0	
1.5673	14.4875	-1.39104	0	
1.5680	24.5545	-0.480539	0	
1.5687	29.4267	-0.177041	0	
1.5693	29.1363	-0.177041	0	
1.5700	27.2971	-1.99803	0	
1.5707	22.7154	-1.99803	0	
1.5713	15.3909	-0.177041	0	
1.5720	14.7779	-0.480539	0	
1.5727	18.1336	-2.60503	0	
1.5733	16.2944	-1.99803	0	
1.5740	10.8092	-2.60503	0	
1.5747	6.84042	-3.54082	0	
1.5753	1.64557	0.429956	0	
1.5760	-5.96923	3.49023	0	
1.5767	-14.8102	0.733455	0	
1.5773	-22.7476	0.126458	0	
1.5780	-26.1033	4.40073	0	
1.5787	-27.6198	3.79373	0	
1.5793	-30.072	0.733455	0	
1.5800	-28.5555	-0.177041	0	
1.5807	-19.3919	0.429956	0	
1.5813	-11.4545	1.03695	0	
1.5820	-9.93797	2.27624	0	
1.5827	-8.42146	2.57974	0	
1.5833	-2.90395	4.40073	0	
1.5840	2.58129	3.49023	0	
1.5847	5.61431	-3.84432	0	
1.5853	8.67959	-7.51159	0	
1.5860	13.8744	-5.66531	0	
1.5867	21.1988	-7.81509	0	
1.5873	27.5875	-12.3929	0	
1.5880	29.1363	-10.5466	0	
1.5887	25.7806	-5.66531	0	
1.5893	21.8119	-2.30153	0	
1.5900	18.1336	-0.480539	0	
1.5907	13.8744	-0.784038	0	
1.5913	9.9057	-2.30153	0	
1.5920	3.8074	-2.60503	0	
1.5927	-1.09705	-1.99803	0	
1.5933	-1.09705	-1.99803	0	
1.5940	-2.0005	-0.784038	0	
1.5947	-6.87269	0.126458	0	
1.5953	-9.32491	1.03695	0	
1.5960	-12.0675	3.18674	0	
1.5967	-19.7146	4.40073	0	
1.5973	-22.4572	3.18674	0	
1.5980	-18.4885	2.57974	0	
1.5987	-16.6493	3.49023	0	
1.5993	-14.5198	4.70423	0	
1.6000	-8.42146	4.40073	0	
1.6007	-4.74312	2.57974	0	
1.6013	-3.83967	0.429956	0	
1.6020	0.742121	-1.08754	0	
1.6027	5.32391	-0.480539	0	
1.6033	6.84042	-0.177041	0	
1.6040	8.38919	-1.08754	0	
1.6047	8.96998	-3.23732	0	
1.6053	9.9057	-4.75481	0	
1.6060	14.4875	-5.05831	0	
1.6067	21.8119	-6.2723	0	
1.6073	23.9415	-6.5758	0	
1.6080	21.4892	-3.84432	0	
1.6087	19.9727	-1.39104	0	
1.6093	18.1336	-3.23732	0	
1.6100	12.0353	-3.84432	0	
1.6107	5.32391	-1.69453	0	
1.6113	1.35518	-1.39104	0	
1.6120	-1.09705	-0.177041	0	
1.6127	-3.83967	2.88324	0	
1.6133	-6.58229	2.57974	0	
1.6140	-8.71186	1.03695	0	
1.6147	-6.58229	2.57974	0	
1.6153	-5.67884	4.40073	0	
1.6160	-12.3902	5.61472	0	
1.6167	-21.2311	6.22172	0	
1.6173	-24.2641	3.49023	0	
1.6180	-23.0703	-1.08754	0	
1.6187	-20.2954	-1.08754	0	
1.6193	-17.5528	2.88324	0	
1.6200	-15.1328	5.61472	0	
1.6207	-11.1641	5.61472	0	
1.6213	-5.67884	2.27624	0	
1.6220	-2.61356	0.126458	0	
1.6227	-2.2909	1.03695	0	
1.6233	-0.483992	0.126458	0	
1.6240	4.0978	-3.54082	0	
1.6247	5.93697	-3.23732	0	
1.6253	5.61431	-1.99803	0	
1.6260	11.7449	-3.84432	0	
1.6267	22.425	-5.36181	0	
1.6273	27.9102	-3.84432	0	
1.6280	28.5233	-4.14781	0	
1.6287	27.2971	-5.05831	0	
1.6293	22.1023	-2.93382	0	
1.6300	14.4875	-0.177041	0	
1.6307	9.9057	-0.177041	0	
1.6313	7.77614	-0.177041	0	
1.6320	3.8074	0.733455	0	
1.6327	-0.161331	0.733455	0	
1.6333	-3.83967	-0.480539	0	
1.6340	-6.87269	-1.08754	0	
1.6347	-9.32491	0.733455	0	
1.6353	-13.584	3.49023	0	
1.6360	-20.2954	5.00773	0	
1.6367	-25.8129	6.22172	0	
1.6373	-29.459	5.61472	0	
1.6380	-31.2981	3.18674	0	
1.6387	-28.5555	2.57974	0	
1.6393	-21.2311	5.00773	0	
1.6400	-16.6493	6.22172	0	
1.6407	-13.9067	4.70423	0	
1.6413	-6.58229	1.64395	0	
1.6420	0.129065	-1.69453	0	
1.6427	1.64557	-1.99803	0	
1.6433	4.42046	-0.480539	0	
1.6440	8.06653	0.429956	0	
1.6447	4.42046	1.34045	0	
1.6453	3.48474	1.03695	0	
1.6460	14.4875	-1.99803	0	
1.6467	24.2319	-4.14781	0	
1.6473	23.6188	-2.60503	0	
1.6480	22.7154	-1.08754	0	
1.6487	23.3284	-0.480539	0	
1.6493	18.4562	1.64395	0	
1.6500	12.3579	3.79373	0	
1.6507	9.9057	4.09723	0	
1.6513	7.77614	3.49023	0	
1.6520	6.22736	3.18674	0	
1.6527	6.84042	3.49023	0	
1.6533	3.8074	3.49023	0	
1.6540	-1.09705	2.57974	0	
1.6547	-2.61356	3.49023	0	
1.6553	-4.45273	5.91822	0	
1.6560	-11.4545	7.15751	0	
1.6567	-19.7146	5.31123	0	
1.6573	-23.6833	1.64395	0	
1.6580	-24.8772	0.733455	0	
1.6587	-25.8129	3.18674	0	
1.6593	-24.5868	2.57974	0	
1.6600	-17.5528	-1.08754	0	
1.6607	-9.61531	-1.39104	0	
1.6613	-4.74312	1.34045	0	
1.6620	-2.0005	1.03695	0	
1.6627	1.06478	-1.08754	0	
1.6633	4.0978	-2.60503	0	
1.6640	7.45348	-2.60503	0	
1.6647	8.06653	-0.177041	0	
1.6653	5.61431	1.03695	0	
1.6660	8.96998	-1.99803	0	
1.6667	18.4562	-6.2723	0	
1.6673	23.9415	-7.51159	0	
1.6680	22.1023	-5.96881	0	
1.6687	18.4562	-4.75481	0	
1.6693	13.8744	-6.5758	0	
1.6700	7.77614	-9.02908	0	
1.6707	2.87169	-8.11859	0	
1.6713	-1.09705	-5.36181	0	
1.6720	-5.67884	-3.84432	0	
1.6727	-6.25963	-3.84432	0	
1.6733	-3.83967	-4.75481	0	
1.6740	-4.74312	-3.84432	0	
1.6747	-7.8084	-0.784038	0	
1.6753	-10.8414	1.03695	0	
1.6760	-16.9397	2.88324	0	
1.6767	-23.9737	5.31123	0	
1.6773	-26.7164	4.09723	0	
1.6780	-26.7164	0.126458	0	
1.6787	-25.1998	-0.177041	0	
1.6793	-20.2954	1.34045	0	
1.6800	-13.2936	1.64395	0	
1.6807	-7.8084	1.03695	0	
1.6813	-3.51701	-0.784038	0	
1.6820	-0.161331	-1.99803	0	
1.6827	2.58129	-2.30153	0	
1.6833	5.93697	-3.54082	0	
1.6840	7.16308	-3.84432	0	
1.6847	4.42046	-1.99803	0	
1.6853	6.55002	-2.60503	0	
1.6860	16.2944	-5.66531	0	
1.6867	23.6188	-6.5758	0	
1.6873	24.8449	-4.75481	0	
1.6880	25.458	-3.84432	0	
1.6887	22.7154	-2.93382	0	
1.6893	14.4875	-1.08754	0	
1.6900	9.9057	-1.69453	0	
1.6907	9.9057	-1.99803	0	
1.6913	5.61431	-0.480539	0	
1.6920	1.96823	0.429956	0	
1.6927	1.64557	-0.480539	0	
1.6933	-2.2909	-0.784038	0	
1.6940	-8.0988	0.429956	0	
1.6947	-6.58229	1.34045	0	
1.6953	-4.45273	0.733455	0	
1.6960	-12.0675	0.126458	0	
1.6967	-22.4572	1.34045	0	
1.6973	-26.426	1.64395	0	
1.6980	-25.8129	0.733455	0	
1.6987	-24.5868	1.34045	0	
1.6993	-20.005	0.429956	0	
1.7000	-10.2284	-1.08754	0	
1.7007	1.64557	0.429956	0	
1.7013	8.67959	0.126458	0	
1.7020	8.96998	-2.93382	0	
1.7027	8.96998	-1.99803	0	
1.7033	8.96998	-0.177041	0	
1.7040	6.55002	-3.84432	0	
1.7047	5.93697	-5.96881	0	
1.7053	7.16308	-3.84432	0	
1.7060	7.16308	-3.23732	0	
1.7067	5.93697	-3.84432	0	
1.7073	7.16308	-2.30153	0	
1.7080	9.9057	-1.69453	0	
1.7087	10.8092	-3.23732	0	
1.7093	8.38919	-3.84432	0	
1.7100	3.48474	-3.54082	0	
1.7107	1.06478	-1.99803	0	
1.7113	0.742121	-0.177041	0	
1.7120	-0.161331	-1.08754	0	
1.7127	-2.0005	-1.08754	0	
1.7133	-4.13006	1.64395	0	
1.7140	-5.67884	1.34045	0	
1.7147	-5.67884	-2.93382	0	
1.7153	-7.48574	-1.08754	0	
1.7160	-13.9067	5.91822	0	
1.7167	-21.8442	6.55051	0	
1.7173	-24.8772	2.57974	0	
1.7180	-23.3607	3.49023	0	
1.7187	-20.6181	5.31123	0	
1.7193	-17.5528	2.57974	0	
1.7200	-14.5198	1.03695	0	
1.7207	-11.1641	3.18674	0	
1.7213	-6.87269	2.88324	0	
1.7220	-5.06578	0.126458	0	
1.7227	-4.74312	-1.08754	0	
1.7233	-0.161331	-2.93382	0	
1.7240	5.32391	-4.75481	0	
1.7247	5.93697	-3.84432	0	
1.7253	6.84042	-1.39104	0	
1.7260	14.7779	-0.177041	0	
1.7267	22.1023	-0.480539	0	
1.7273	23.3284	-0.177041	0	
1.7280	23.9415	0.126458	0	
1.7287	24.8449	-0.177041	0	
1.7293	22.1023	-1.08754	0	
1.7300	18.7466	-1.99803	0	
1.7307	17.2301	-0.177041	0	
1.7313	13.5518	3.79373	0	
1.7320	9.9057	5.00773	0	
1.7327	6.22736	3.79373	0	
1.7333	0.129065	2.88324	0	
1.7340	-2.90395	2.57974	0	
1.7347	-0.774387	4.70423	0	
1.7353	-3.51701	8.3715	0	
1.7360	-13.9067	9.889	0	
1.7367	-21.8442	9.889	0	
1.7373	-23.9737	8.068	0	
1.7380	-22.7476	4.70423	0	
1.7387	-18.4885	3.49023	0	
1.7393	-14.5198	4.70423	0	
1.7400	-11.1641	3.49023	0	
1.7407	-6.25963	0.733455	0	
1.7413	-0.774387	0.733455	0	
1.7420	1.64557	-0.177041	0	
1.7427	1.96823	-1.08754	0	
1.7433	2.58129	0.733455	0	
1.7440	2.87169	2.27624	0	
1.7447	3.48474	1.64395	0	
1.7453	4.42046	0.733455	0	
1.7460	8.06653	-3.54082	0	
1.7467	16.2944	-10.2431	0	
1.7473	23.038	-12.0894	0	
1.7480	21.8119	-8.42209	0	
1.7487	19.3597	-5.96881	0	
1.7493	19.6823	-6.2723	0	
1.7500	14.7779	-7.51159	0	
1.7507	6.22736	-6.8793	0	
1.7513	2.58129	-2.93382	0	
1.7520	2.87169	-0.177041	0	
1.7527	0.742121	-1.08754	0	
1.7533	-3.22661	-0.784038	0	
1.7540	-6.25963	-0.177041	0	
1.7547	-6.25963	-2.30153	0	
1.7553	-6.58229	-1.08754	0	
1.7560	-12.6806	2.57974	0	
1.7567	-21.2311	1.64395	0	
1.7573	-23.9737	0.126458	0	
1.7580	-23.6833	1.34045	0	
1.7587	-22.4572	0.733455	0	
1.7593	-18.4885	0.126458	0	
1.7600	-13.2936	1.64395	0	
1.7607	-11.7771	1.64395	0	
1.7613	-9.93797	0.429956	0	
1.7620	-5.67884	-0.177041	0	
1.7627	-2.0005	-2.60503	0	
1.7633	1.64557	-3.84432	0	
1.7640	3.48474	-2.30153	0	
1.7647	2.25863	-0.480539	0	
1.7653	2.58129	-2.30153	0	
1.7660	10.1961	-6.2723	0	
1.7667	20.5858	-8.72559	0	
1.7673	25.458	-7.51159	0	
1.7680	25.7806	-3.84432	0	
1.7687	24.5545	-0.480539	0	
1.7693	22.425	0.429956	0	
1.7700	19.0693	0.733455	0	
1.7707	15.7136	3.18674	0	
1.7713	12.0353	3.79373	0	
1.7720	7.16308	1.34045	0	
1.7727	2.58129	1.03695	0	
1.7733	1.06478	3.49023	0	
1.7740	0.742121	3.18674	0	
1.7747	0.451726	1.64395	0	
1.7753	-2.90395	1.34045	0	
1.7760	-10.8414	1.64395	0	
1.7767	-20.6181	4.40073	0	
1.7773	-23.3607	5.31123	0	
1.7780	-20.2954	1.03695	0	
1.7787	-20.2954	-1.08754	0	
1.7793	-20.005	0.733455	0	
1.7800	-14.1971	-0.177041	0	
1.7807	-9.32491	-0.177041	0	
1.7813	-7.48574	3.49023	0	
1.7820	-2.90395	1.97274	0	
1.7827	0.742121	-1.08754	0	
1.7833	0.451726	0.733455	0	
1.7840	1.64557	1.97274	0	
1.7847	5.32391	-0.177041	0	
1.7853	7.16308	-0.177041	0	
1.7860	11.7449	-2.30153	0	
1.7867	19.9727	-6.5758	0	
1.7873	24.5545	-6.8793	0	
1.7880	24.5545	-4.14781	0	
1.7887	22.1023	-3.84432	0	
1.7893	17.2301	-2.93382	0	
1.7900	10.8092	-0.480539	0	
1.7907	5.93697	0.126458	0	
1.7913	2.87169	0.126458	0	
1.7920	1.06478	-0.177041	0	
1.7927	-0.774387	-2.93382	0	
1.7933	-4.74312	-3.84432	0	
1.7940	-8.0988	-0.784038	0	
1.7947	-7.8084	0.126458	0	
1.7953	-10.2284	-1.08754	0	
1.7960	-19.1016	1.64395	0	
1.7967	-22.1346	3.79373	0	
1.7973	-14.8102	1.97274	0	
1.7980	-10.2284	2.88324	0	
1.7987	-9.32491	3.79373	0	
1.7993	-3.83967	0.733455	0	
1.8000	1.96823	-0.177041	0	
1.8007	-2.0005	0.429956	0	
1.8013	-6.58229	-1.08754	0	
1.8020	-3.83967	-0.480539	0	
1.8027	-4.13006	0.126458	0	
1.8033	-9.32491	-1.99803	0	
1.8040	-9.32491	-2.93382	0	
1.8047	-2.90395	-3.23732	0	
1.8053	2.58129	-4.14781	0	
1.8060	7.77614	-3.23732	0	
1.8067	14.4875	-3.23732	0	
1.8073	20.5858	-4.75481	0	
1.8080	22.1023	-1.99803	0	
1.8087	19.0693	1.97274	0	
1.8093	16.2944	1.03695	0	
1.8100	15.1006	-0.784038	0	
1.8107	9.29265	-1.08754	0	
1.8113	1.06478	0.733455	0	
1.8120	-1.71011	5.31123	0	
1.8127	-1.71011	5.31123	0	
1.8133	-5.06578	0.126458	0	
1.8140	-8.42146	-0.177041	0	
1.8147	-9.61531	1.03695	0	
1.8153	-11.1641	0.429956	0	
1.8160	-16.9397	2.27624	0	
1.8167	-27.9425	5.91822	0	
1.8173	-34.9442	5.91822	0	
1.8180	-29.7816	5.00773	0	
1.8187	-21.5215	4.40073	0	
1.8193	-19.7146	1.64395	0	
1.8200	-16.6493	-0.480539	0	
1.8207	-6.87269	-0.784038	0	
1.8213	-1.71011	-0.480539	0	
1.8220	-2.61356	0.733455	0	
1.8227	-0.774387	1.03695	0	
1.8233	2.58129	-1.08754	0	
1.8240	4.42046	-1.08754	0	
1.8247	6.22736	-1.08754	0	
1.8253	7.77614	-4.75481	0	
1.8260	11.1318	-5.36181	0	
1.8267	20.5858	-0.480539	0	
1.8273	28.8137	0.126458	0	
1.8280	29.1363	-1.99803	0	
1.8287	27.2971	-0.480539	0	
1.8293	25.1676	-0.177041	0	
1.8300	19.6823	-1.08754	0	
1.8307	15.1006	0.733455	0	
1.8313	12.6483	-0.177041	0	
1.8320	7.16308	-2.60503	0	
1.8327	1.06478	-0.177041	0	
1.8333	-2.90395	0.126458	0	
1.8340	-5.06578	-1.99803	0	
1.8347	-5.96923	1.03695	0	
1.8353	-9.93797	4.40073	0	
1.8360	-21.2311	2.57974	0	
1.8367	-29.7816	1.03695	0	
1.8373	-31.2981	-0.177041	0	
1.8380	-31.9112	-0.177041	0	
1.8387	-30.6851	3.18674	0	
1.8393	-23.6833	1.64395	0	
1.8400	-15.7459	-5.36181	0	
1.8407	-10.551	-7.51159	0	
1.8413	-6.58229	-5.66531	0	
1.8420	-3.83967	-7.51159	0	
1.8427	-1.71011	-7.51159	0	
1.8433	1.96823	-4.75481	0	
1.8440	5.61431	-3.54082	0	
1.8447	8.06653	-3.54082	0	
1.8453	10.8092	-4.14781	0	
1.8460	16.9075	-5.36181	0	
1.8467	26.6841	-3.54082	0	
1.8473	32.7824	-1.08754	0	
1.8480	33.3954	-0.784038	0	
1.8487	30.0398	-0.784038	0	
1.8493	23.038	-0.177041	0	
1.8500	14.7779	0.733455	0	
1.8507	8.67959	2.57974	0	
1.8513	4.71086	2.57974	0	
1.8520	2.58129	3.18674	0	
1.8527	-1.09705	6.22172	0	
1.8533	-6.87269	6.55051	0	
1.8540	-11.1641	2.88324	0	
1.8547	-11.1641	1.64395	0	
1.8553	-12.6806	1.03695	0	
1.8560	-20.2954	0.429956	0	
1.8567	-28.5555	2.27624	0	
1.8573	-30.6851	4.09723	0	
1.8580	-26.7164	3.49023	0	
1.8587	-23.0703	1.97274	0	
1.8593	-19.1016	1.64395	0	
1.8600	-12.6806	2.27624	0	
1.8607	-6.87269	1.97274	0	
1.8613	-3.83967	0.733455	0	
1.8620	-1.09705	-0.480539	0	
1.8627	2.25863	-1.08754	0	
1.8633	3.8074	-1.08754	0	
1.8640	4.71086	-1.08754	0	
1.8647	5.61431	-1.69453	0	
1.8653	7.77614	-1.69453	0	
1.8660	13.2614	-0.480539	0	
1.8667	19.6823	-0.480539	0	
1.8673	23.038	-2.60503	0	
1.8680	23.6188	-4.14781	0	
1.8687	20.8762	-3.54082	0	
1.8693	15.3909	-1.99803	0	
1.8700	12.0353	-1.08754	0	
1.8707	10.8092	0.126458	0	
1.8713	6.22736	1.64395	0	
1.8720	1.64557	0.733455	0	
1.8727	1.96823	1.03695	0	
1.8733	1.06478	4.40073	0	
1.8740	-3.51701	5.31123	0	
1.8747	-4.45273	4.40073	0	
1.8753	-3.83967	7.15751	0	
1.8760	-9.32491	10.1925	0	
1.8767	-14.8102	10.1925	0	
1.8773	-16.6493	7.76451	0	
1.8780	-19.3919	4.40073	0	
1.8787	-20.2954	1.97274	0	
1.8793	-15.7459	0.126458	0	
1.8800	-11.4545	-2.93382	0	
1.8807	-8.42146	-2.93382	0	
1.8813	-2.90395	0.429956	0	
1.8820	1.35518	-0.784038	0	
1.8827	0.742121	-3.84432	0	
1.8833	-1.38744	-2.30153	0	
1.8840	-1.38744	-0.177041	0	
1.8847	1.64557	-1.39104	0	
1.8853	6.22736	-0.177041	0	
1.8860	12.9387	1.03695	0	
1.8867	21.1988	-3.54082	0	
1.8873	25.458	-7.51159	0	
1.8880	22.7154	-6.5758	0	
1.8887	18.1336	-4.75481	0	
1.8893	13.8744	-4.45131	0	
1.8900	8.38919	-3.84432	0	
1.8907	3.48474	-3.54082	0	
1.8913	0.742121	-3.23732	0	
1.8920	-2.90395	-1.08754	0	
1.8927	-6.58229	1.64395	0	
1.8933	-6.58229	3.18674	0	
1.8940	-6.58229	4.09723	0	
1.8947	-8.42146	3.49023	0	
1.8953	-8.0988	1.64395	0	
1.8960	-5.96923	1.64395	0	
1.8967	-8.42146	3.49023	0	
1.8973	-13.9067	4.40073	0	
1.8980	-13.2936	3.49023	0	
1.8987	-10.8414	2.27624	0	
1.8993	-12.971	3.18674	0	
1.9000	-13.2936	4.40073	0	
1.9007	-7.8084	3.49023	0	
1.9013	-5.67884	0.733455	0	
1.9020	-9.93797	-1.08754	0	
1.9027	-12.971	-3.84432	0	
1.9033	-11.7771	-6.2723	0	
1.9040	-7.48574	-5.66531	0	
1.9047	-3.83967	-3.23732	0	
1.9053	-3.83967	-1.99803	0	
1.9060	-0.161331	-4.45131	0	
1.9067	10.8092	-8.42209	0	
1.9073	17.8432	-9.33258	0	
1.9080	16.6171	-5.96881	0	
1.9087	15.7136	-4.75481	0	
1.9093	13.5518	-4.75481	0	
1.9100	6.84042	-1.69453	0	
1.9107	2.87169	2.57974	0	
1.9113	3.19435	1.64395	0	
1.9120	0.129065	0.733455	0	
1.9127	-3.22661	3.49023	0	
1.9133	-2.0005	4.40073	0	
1.9140	-0.483992	3.79373	0	
1.9147	-2.2909	5.31123	0	
1.9153	-4.74312	5.00773	0	
1.9160	-9.93797	2.57974	0	
1.9167	-18.4885	0.733455	0	
1.9173	-22.7476	-0.177041	0	
1.9180	-20.9085	-1.69453	0	
1.9187	-19.3919	-1.69453	0	
1.9193	-18.4885	-1.39104	0	
1.9200	-14.5198	-0.784038	0	
1.9207	-9.03452	1.64395	0	
1.9213	-3.83967	3.79373	0	
1.9220	1.64557	5.00773	0	
1.9227	5.03352	3.79373	0	
1.9233	8.67959	1.34045	0	
1.9240	12.6483	2.57974	0	
1.9247	12.3579	4.70423	0	
1.9253	12.0353	-0.177041	0	
1.9260	21.4892	-6.5758	0	
1.9267	32.7824	-6.8793	0	
1.9273	32.7824	-6.8793	0	
1.9280	27.5875	-7.1828	0	
1.9287	23.9415	-3.84432	0	
1.9293	20.5858	-3.84432	0	
1.9300	16.2944	-6.8793	0	
1.9307	12.3579	-5.05831	0	
1.9313	6.84042	-1.99803	0	
1.9320	1.96823	-3.54082	0	
1.9327	0.129065	-4.45131	0	
1.9333	-2.0005	-3.23732	0	
1.9340	-4.74312	-0.784038	0	
1.9347	-4.74312	0.733455	0	
1.9353	-7.19535	-0.480539	0	
1.9360	-13.9067	-0.177041	0	
1.9367	-19.3919	3.79373	0	
1.9373	-22.1346	3.49023	0	
1.9380	-23.9737	-2.30153	0	
1.9387	-21.2311	-2.93382	0	
1.9393	-15.1328	-0.480539	0	
1.9400	-10.2284	-1.39104	0	
1.9407	-5.06578	-1.39104	0	
1.9413	-0.483992	-1.69453	0	
1.9420	-0.483992	-4.14781	0	
1.9427	0.742121	-4.45131	0	
1.9433	5.32391	-1.39104	0	
1.9440	7.16308	-1.39104	0	
1.9447	4.42046	-3.54082	0	
1.9453	4.42046	-3.23732	0	
1.9460	9.9057	-3.23732	0	
1.9467	14.4875	-3.84432	0	
1.9473	15.1006	-2.93382	0	
1.9480	14.7779	-1.99803	0	
1.9487	15.1006	-3.54082	0	
1.9493	10.8092	-2.93382	0	
1.9500	3.48474	1.03695	0	
1.9507	1.64557	2.27624	0	
1.9513	0.451726	-0.177041	0	
1.9520	-5.35618	-0.177041	0	
1.9527	-8.42146	0.126458	0	
1.9533	-5.96923	-1.08754	0	
1.9540	-5.67884	-1.08754	0	
1.9547	-8.42146	0.733455	0	
1.9553	-11.1641	2.88324	0	
1.9560	-17.2624	5.31123	0	
1.9567	-26.7164	7.15751	0	
1.9573	-30.3947	7.76451	0	
1.9580	-27.3294	7.15751	0	
1.9587	-23.0703	5.91822	0	
1.9593	-18.7789	3.79373	0	
1.9600	-13.9067	3.79373	0	
1.9607	-11.7771	2.88324	0	
1.9613	-11.1641	-0.784038	0	
1.9620	-8.71186	-2.30153	0	
1.9627	-4.74312	-1.39104	0	
1.9633	-0.161331	-1.69453	0	
1.9640	3.48474	-1.99803	0	
1.9647	4.71086	-1.99803	0	
1.9653	5.93697	-3.54082	0	
1.9660	12.6483	-5.05831	0	
1.9667	20.5858	-5.05831	0	
1.9673	23.6188	-4.45131	0	
1.9680	23.6188	-4.75481	0	
1.9687	22.1023	-5.05831	0	
1.9693	17.2301	-5.05831	0	
1.9700	12.9387	-3.84432	0	
1.9707	11.7449	-1.69453	0	
1.9713	8.38919	0.733455	0	
1.9720	2.58129	-0.177041	0	
1.9727	1.06478	-1.69453	0	
1.9733	0.742121	0.733455	0	
1.9740	-2.61356	3.49023	0	
1.9747	-2.90395	0.429956	0	
1.9753	-3.51701	-1.39104	0	
1.9760	-12.3902	1.34045	0	
1.9767	-21.2311	2.88324	0	
1.9773	-23.0703	3.49023	0	
1.9780	-23.0703	5.31123	0	
1.9787	-19.7146	5.61472	0	
1.9793	-12.0675	4.40073	0	
1.9800	-8.42146	4.09723	0	
1.9807	-7.19535	2.88324	0	
1.9813	0.451726	0.733455	0	
1.9820	7.16308	-0.480539	0	
1.9827	7.77614	-2.30153	0	
1.9833	10.1961	-5.05831	0	
1.9840	12.9387	-6.5758	0	
1.9847	11.7449	-5.66531	0	
1.9853	16.9075	-4.45131	0	
1.9860	29.1363	-4.75481	0	
1.9867	37.3642	-7.1828	0	
1.9873	39.2034	-10.8501	0	
1.9880	35.525	-13.3034	0	
1.9887	27.2971	-12.3929	0	
1.9893	19.3597	-8.72559	0	
1.9900	13.5518	-5.36181	0	
1.9907	3.48474	-2.30153	0	
1.9913	-8.0988	-0.480539	0	
1.9920	-14.5198	-0.480539	0	
1.9927	-14.8102	0.126458	0	
1.9933	-12.6806	2.27624	0	
1.9940	-10.8414	3.49023	0	
1.9947	-11.4545	3.18674	0	
1.9953	-14.1971	2.27624	0	
1.9960	-18.4885	2.27624	0	
1.9967	-24.5868	3.49023	0	
1.9973	-27.6198	2.88324	0	
1.9980	-22.4572	2.57974	0	
1.9987	-14.8102	5.31123	0	
1.9993	-12.971	5.61472	0	
2.0000	-13.9067	1.64395	0	
2.0007	-10.2284	0.126458	0	
2.0013	-5.96923	0.429956	0	
2.0020	-3.22661	-1.08754	0	
2.0027	-0.161331	-0.480539	0	
2.0033	2.87169	0.733455	0	
2.0040	4.71086	-1.08754	0	
2.0047	6.55002	-3.23732	0	
2.0053	10.8092	-2.93382	0	
2.0060	19.3597	-2.60503	0	
2.0067	27.0068	-2.93382	0	
2.0073	28.2006	-3.54082	0	
2.0080	24.8449	-3.84432	0	
2.0087	20.5858	-2.30153	0	
2.0093	15.1006	-1.69453	0	
2.0100	9.29265	-3.54082	0	
2.0107	4.71086	-2.93382	0	
2.0113	0.451726	0.126458	0	
2.0120	-3.83967	0.733455	0	
2.0127	-7.19535	0.126458	0	
2.0133	-9.32491	1.64395	0	
2.0140	-10.2284	0.733455	0	
2.0147	-10.2284	-1.08754	0	
2.0153	-9.61531	1.64395	0	
2.0160	-13.9067	3.79373	0	
2.0167	-23.9737	2.88324	0	
2.0173	-31.5885	2.57974	0	
2.0180	-30.6851	2.57974	0	
2.0187	-23.9737	0.126458	0	
2.0193	-16.6493	-1.69453	0	
2.0200	-12.971	-0.480539	0	
2.0207	-11.1641	0.126458	0	
2.0213	-5.06578	-1.08754	0	
2.0220	0.742121	-2.30153	0	
2.0227	1.64557	-1.69453	0	
2.0233	3.48474	-0.784038	0	
2.0240	7.16308	-1.69453	0	
2.0247	7.45348	-2.93382	0	
2.0253	9.29265	-2.60503	0	
2.0260	16.6171	-1.99803	0	
2.0267	23.3284	-0.784038	0	
2.0273	27.5875	-0.177041	0	
2.0280	28.8137	-0.784038	0	
2.0287	23.038	0.429956	0	
2.0293	16.6171	2.27624	0	
2.0300	15.7136	1.64395	0	
2.0307	13.5518	2.57974	0	
2.0313	5.93697	6.22172	0	
2.0320	1.96823	6.22172	0	
2.0327	2.58129	3.49023	0	
2.0333	1.06478	2.27624	0	
2.0340	-1.71011	0.733455	0	
2.0347	-4.45273	-0.177041	0	
2.0353	-9.32491	1.64395	0	
2.0360	-16.0363	4.09723	0	
2.0367	-21.2311	5.00773	0	
2.0373	-22.4572	5.31123	0	
2.0380	-19.1016	6.55051	0	
2.0387	-13.9067	6.85401	0	
2.0393	-9.61531	5.31123	0	
2.0400	-6.58229	4.09723	0	
2.0407	-2.90395	4.70423	0	
2.0413	-1.38744	5.61472	0	
2.0420	-2.90395	3.49023	0	
2.0427	-3.51701	-1.08754	0	
2.0433	1.35518	-3.23732	0	
2.0440	5.93697	-1.99803	0	
2.0447	4.42046	-0.784038	0	
2.0453	4.42046	-2.60503	0	
2.0460	13.5518	-6.5758	0	
2.0467	22.7154	-8.42209	0	
2.0473	24.5545	-6.2723	0	
2.0480	23.6188	-3.54082	0	
2.0487	21.8119	-1.99803	0	
2.0493	16.6171	-1.08754	0	
2.0500	11.7449	0.126458	0	
2.0507	8.96998	1.64395	0	
2.0513	5.03352	3.49023	0	
2.0520	-0.161331	3.79373	0	
2.0527	-4.13006	2.27624	0	
2.0533	-5.96923	2.57974	0	
2.0540	-6.58229	3.49023	0	
2.0547	-6.58229	1.64395	0	
2.0553	-10.551	1.64395	0	
2.0560	-20.2954	4.70423	0	
2.0567	-28.2329	4.40073	0	
2.0573	-28.8459	0.733455	0	
2.0580	-27.9425	-1.08754	0	
2.0587	-26.426	-0.784038	0	
2.0593	-19.3919	1.03695	0	
2.0600	-12.971	1.97274	0	
2.0607	-11.1641	-1.08754	0	
2.0613	-6.87269	-1.08754	0	
2.0620	-2.90395	1.64395	0	
2.0627	-5.06578	-1.08754	0	
2.0633	-3.51701	-2.93382	0	
2.0640	5.32391	1.34045	0	
2.0647	11.4222	0.733455	0	
2.0653	13.5518	-5.36181	0	
2.0660	18.4562	-5.05831	0	
2.0667	23.038	-2.30153	0	
2.0673	25.458	-4.75481	0	
2.0680	27.5875	-5.96881	0	
2.0687	24.5545	-1.39104	0	
2.0693	15.7136	-0.177041	0	
2.0700	10.1961	-3.84432	0	
2.0707	8.96998	-5.66531	0	
2.0713	6.22736	-2.60503	0	
2.0720	2.87169	-1.08754	0	
2.0727	1.35518	-2.60503	0	
2.0733	-2.2909	-1.39104	0	
2.0740	-2.2909	0.733455	0	
2.0747	5.03352	-0.177041	0	
2.0753	6.55002	0.126458	0	
2.0760	-3.83967	2.57974	0	
2.0767	-13.2936	1.64395	0	
2.0773	-16.0363	-0.177041	0	
2.0780	-19.3919	2.57974	0	
2.0787	-20.6181	6.22172	0	
2.0793	-15.7459	5.00773	0	
2.0800	-13.584	2.57974	0	
2.0807	-17.8754	2.27624	0	
2.0813	-18.4885	1.97274	0	
2.0820	-13.9067	0.429956	0	
2.0827	-10.2284	-1.08754	0	
2.0833	-6.25963	-1.99803	0	
2.0840	-2.0005	-1.08754	0	
2.0847	-0.774387	-1.08754	0	
2.0853	2.58129	-3.23732	0	
2.0860	12.0353	-4.45131	0	
2.0867	17.5205	-5.05831	0	
2.0873	15.3909	-7.81509	0	
2.0880	15.7136	-7.51159	0	
2.0887	16.9075	-3.84432	0	
2.0893	12.3579	-3.23732	0	
2.0900	5.61431	-3.84432	0	
2.0907	1.06478	-0.177041	0	
2.0913	-0.774387	1.34045	0	
2.0920	-2.0005	0.126458	0	
2.0927	-5.67884	1.03695	0	
2.0933	-6.58229	0.429956	0	
2.0940	-2.90395	-1.69453	0	
2.0947	-4.74312	2.57974	0	
2.0953	-12.6806	7.76451	0	
2.0960	-17.5528	7.46101	0	
2.0967	-21.5215	6.22172	0	
2.0973	-26.7164	5.31123	0	
2.0980	-26.426	4.70423	0	
2.0987	-23.0703	4.70423	0	
2.0993	-21.2311	2.88324	0	
2.1000	-14.8102	1.03695	0	
2.1007	-5.06578	1.64395	0	
2.1013	-1.09705	1.64395	0	
2.1020	-1.09705	-0.177041	0	
2.1027	-1.09705	1.64395	0	
2.1033	0.129065	3.49023	0	
2.1040	1.96823	1.34045	0	
2.1047	5.03352	-0.177041	0	
2.1053	9.9057	0.733455	0	
2.1060	15.7136	0.733455	0	
2.1067	19.9727	-0.784038	0	
2.1073	23.6188	-2.93382	0	
2.1080	25.458	-2.60503	0	
2.1087	23.9415	1.34045	0	
2.1093	18.7466	3.18674	0	
2.1100	12.9387	-0.480539	0	
2.1107	7.16308	-1.99803	0	
2.1113	1.64557	0.733455	0	
2.1120	-0.483992	2.88324	0	
2.1127	-1.09705	2.27624	0	
2.1133	-3.22661	1.64395	0	
2.1140	-4.74312	2.57974	0	
2.1147	-4.13006	4.09723	0	
2.1153	-7.48574	5.31123	0	
2.1160	-14.8102	3.49023	0	
2.1167	-20.2954	1.03695	0	
2.1173	-22.4572	-1.08754	0	
2.1180	-22.7476	-2.93382	0	
2.1187	-22.1346	-2.93382	0	
2.1193	-20.9085	-0.177041	0	
2.1200	-16.6493	-1.08754	0	
2.1207	-9.32491	-3.84432	0	
2.1213	-4.74312	-2.93382	0	
2.1220	-1.71011	-1.08754	0	
2.1227	3.48474	-2.93382	0	
2.1233	7.16308	-2.60503	0	
2.1240	8.38919	-0.480539	0	
2.1247	12.3579	-2.60503	0	
2.1253	18.1336	-7.51159	0	
2.1260	24.2319	-10.2431	0	
2.1267	29.4267	-8.72559	0	
2.1273	29.1363	-5.66531	0	
2.1280	24.5545	-3.84432	0	
2.1287	21.4892	-3.54082	0	
2.1293	16.9075	-2.93382	0	
2.1300	10.1961	-1.08754	0	
2.1307	6.22736	1.64395	0	
2.1313	1.06478	0.733455	0	
2.1320	-8.0988	-2.60503	0	
2.1327	-12.0675	-1.99803	0	
2.1333	-10.2284	2.57974	0	
2.1340	-9.03452	3.49023	0	
2.1347	-9.32491	1.97274	0	
2.1353	-13.584	1.97274	0	
2.1360	-21.2311	1.97274	0	
2.1367	-25.8129	2.88324	0	
2.1373	-26.7164	4.40073	0	
2.1380	-23.9737	3.18674	0	
2.1387	-18.1658	-0.177041	0	
2.1393	-13.9067	-1.08754	0	
2.1400	-12.6806	-1.99803	0	
2.1407	-8.0988	-4.75481	0	
2.1413	-0.483992	-5.66531	0	
2.1420	2.87169	-3.84432	0	
2.1427	5.32391	-3.84432	0	
2.1433	8.96998	-6.8793	0	
2.1440	9.9057	-5.96881	0	
2.1447	8.06653	-1.99803	0	
2.1453	9.9057	-2.93382	0	
2.1460	16.6171	-7.1828	0	
2.1467	20.8762	-6.8793	0	
2.1473	21.8119	-5.36181	0	
2.1480	23.038	-5.36181	0	
2.1487	19.9727	-3.84432	0	
2.1493	12.3579	-3.23732	0	
2.1500	8.38919	-3.54082	0	
2.1507	6.84042	-1.99803	0	
2.1513	2.87169	-1.39104	0	
2.1520	3.48474	-1.99803	0	
2.1527	8.06653	0.429956	0	
2.1533	5.93697	1.64395	0	
2.1540	1.35518	0.733455	0	
2.1547	-1.38744	2.27624	0	
2.1553	-8.0988	5.00773	0	
2.1560	-20.2954	5.31123	0	
2.1567	-30.072	5.91822	0	
2.1573	-36.7834	5.31123	0	
2.1580	-44.1078	4.09723	0	
2.1587	-49.0123	6.85401	0	
2.1593	-45.947	7.76451	0	
2.1600	-35.5573	3.49023	0	
2.1607	-24.5868	1.97274	0	
2.1613	-14.1971	4.40073	0	
2.1620	-4.74312	2.88324	0	
2.1627	2.58129	-0.480539	0	
2.1633	7.45348	-1.08754	0	
2.1640	10.8092	-0.480539	0	
2.1647	10.8092	0.733455	0	
2.1653	10.8092	-0.480539	0	
2.1660	16.6171	-5.96881	0	
2.1667	23.9415	-9.33258	0	
2.1673	24.5545	-6.5758	0	
2.1680	21.1988	-3.54082	0	
2.1687	19.9727	-0.784038	0	
2.1693	18.4562	2.57974	0	
2.1700	15.3909	3.49023	0	
2.1707	12.0353	4.09723	0	
2.1713	9.58304	5.61472	0	
2.1720	6.22736	5.00773	0	
2.1727	4.0978	1.97274	0	
2.1733	2.58129	2.57974	0	
2.1740	0.742121	4.40073	0	
2.1747	-2.90395	4.40073	0	
2.1753	-8.0988	6.22172	0	
2.1760	-16.0363	9.282	0	
2.1767	-22.7476	7.76451	0	
2.1773	-23.0703	5.91822	0	
2.1780	-19.3919	5.61472	0	
2.1787	-15.1328	2.88324	0	
2.1793	-12.3902	0.733455	0	
2.1800	-12.0675	2.27624	0	
2.1807	-10.2284	1.97274	0	
2.1813	-3.51701	-0.177041	0	
2.1820	1.64557	-1.08754	0	
2.1827	2.87169	-2.93382	0	
2.1833	6.55002	-3.84432	0	
2.1840	10.1961	-2.93382	0	
2.1847	9.29265	-3.84432	0	
2.1853	10.1961	-3.84432	0	
2.1860	18.4562	-2.30153	0	
2.1867	26.071	-4.45131	0	
2.1873	28.8137	-5.66531	0	
2.1880	28.5233	-4.14781	0	
2.1887	24.2319	-5.96881	0	
2.1893	17.8432	-6.2723	0	
2.1900	13.2614	-0.784038	0	
2.1907	8.96998	0.733455	0	
2.1913	3.48474	-1.08754	0	
2.1920	0.129065	0.733455	0	
2.1927	-2.2909	0.429956	0	
2.1933	-5.06578	-1.99803	0	
2.1940	-5.67884	-0.177041	0	
2.1947	-5.67884	1.97274	0	
2.1953	-11.7771	3.49023	0	
2.1960	-20.2954	7.15751	0	
2.1967	-24.8772	6.85401	0	
2.1973	-24.8772	1.97274	0	
2.1980	-23.0703	-0.177041	0	
2.1987	-18.7789	-1.99803	0	
2.1993	-12.3902	-3.84432	0	
2.2000	-6.58229	-2.93382	0	
2.2007	-3.51701	-3.23732	0	
2.2013	-0.483992	-4.75481	0	
2.2020	3.48474	-1.99803	0	
2.2027	5.32391	0.429956	0	
2.2033	6.22736	-2.60503	0	
2.2040	7.45348	-4.45131	0	
2.2047	7.77614	-1.99803	0	
2.2053	10.5188	-0.480539	0	
2.2060	19.0693	-2.60503	0	
2.2067	22.7154	-4.75481	0	
2.2073	16.004	-5.36181	0	
2.2080	9.9057	-5.66531	0	
2.2087	10.8092	-5.66531	0	
2.2093	13.2614	-4.45131	0	
2.2100	13.5518	-2.93382	0	
2.2107	9.9057	-1.69453	0	
2.2113	5.61431	-1.69453	0	
2.2120	6.22736	-5.05831	0	
2.2127	6.55002	-8.72559	0	
2.2133	2.87169	-6.5758	0	
2.2140	1.64557	-3.84432	0	
2.2147	2.58129	-3.84432	0	
2.2153	-1.09705	-0.784038	0	
2.2160	-10.8414	2.27624	0	
2.2167	-18.1658	1.64395	0	
2.2173	-18.7789	2.27624	0	
2.2180	-17.2624	3.49023	0	
2.2187	-16.6493	2.27624	0	
2.2193	-17.5528	0.733455	0	
2.2200	-18.4885	0.733455	0	
2.2207	-15.7459	0.733455	0	
2.2213	-8.42146	0.733455	0	
2.2220	-4.74312	-0.177041	0	
2.2227	-6.58229	-1.99803	0	
2.2233	-3.51701	-2.93382	0	
2.2240	1.64557	-2.30153	0	
2.2247	1.96823	-2.30153	0	
2.2253	5.61431	-0.784038	0	
2.2260	15.3909	-0.177041	0	
2.2267	21.1988	-1.99803	0	
2.2273	21.4892	-1.08754	0	
2.2280	19.6823	4.09723	0	
2.2287	18.7466	4.70423	0	
2.2293	21.8119	0.733455	0	
2.2300	23.6188	1.03695	0	
2.2307	18.7466	2.88324	0	
2.2313	10.8092	2.57974	0	
2.2320	5.32391	2.57974	0	
2.2327	0.129065	2.57974	0	
2.2333	-7.19535	1.64395	0	
2.2340	-13.9067	0.126458	0	
2.2347	-18.7789	0.126458	0	
2.2353	-25.8129	2.57974	0	
2.2360	-35.2669	5.61472	0	
2.2367	-39.526	5.91822	0	
2.2373	-36.7834	4.40073	0	
2.2380	-33.7504	2.57974	0	
2.2387	-29.7816	0.429956	0	
2.2393	-22.1346	0.126458	0	
2.2400	-16.0363	1.03695	0	
2.2407	-12.6806	-1.39104	0	
2.2413	-7.48574	-3.84432	0	
2.2420	-2.90395	-3.23732	0	
2.2427	-1.38744	-4.45131	0	
2.2433	0.742121	-6.5758	0	
2.2440	1.96823	-5.66531	0	
2.2447	2.58129	-4.75481	0	
2.2453	7.16308	-4.45131	0	
2.2460	16.004	-3.84432	0	
2.2467	22.7154	-4.75481	0	
2.2473	24.5545	-5.05831	0	
2.2480	24.2319	-3.84432	0	
2.2487	21.8119	-1.99803	0	
2.2493	15.1006	1.03695	0	
2.2500	8.67959	3.18674	0	
2.2507	7.77614	3.18674	0	
2.2513	7.16308	3.49023	0	
2.2520	3.48474	2.88324	0	
2.2527	1.64557	0.733455	0	
2.2533	-0.483992	0.733455	0	
2.2540	-5.35618	2.27624	0	
2.2547	-9.93797	-0.177041	0	
2.2553	-12.971	-0.480539	0	
2.2560	-19.3919	2.88324	0	
2.2567	-27.3294	4.09723	0	
2.2573	-29.1686	4.09723	0	
2.2580	-23.3607	5.91822	0	
2.2587	-18.1658	4.70423	0	
2.2593	-17.5528	1.03695	0	
2.2600	-16.9397	1.03695	0	
2.2607	-11.4545	1.97274	0	
2.2613	-4.74312	1.34045	0	
2.2620	-0.161331	2.57974	0	
2.2627	2.25863	4.40073	0	
2.2633	3.48474	4.09723	0	
2.2640	2.58129	3.49023	0	
2.2647	2.58129	3.18674	0	
2.2653	7.16308	-0.784038	0	
2.2660	17.2301	-4.45131	0	
2.2667	26.3937	-4.45131	0	
2.2673	29.1363	-4.14781	0	
2.2680	24.8449	-5.96881	0	
2.2687	17.5205	-7.1828	0	
2.2693	12.6483	-6.5758	0	
2.2700	10.5188	-5.66531	0	
2.2707	7.45348	-4.45131	0	
2.2713	3.8074	-2.30153	0	
2.2720	2.25863	0.733455	0	
2.2727	0.129065	-0.177041	0	
2.2733	-2.90395	-1.99803	0	
2.2740	-5.67884	-0.177041	0	
2.2747	-5.67884	3.79373	0	
2.2753	-6.58229	4.40073	0	
2.2760	-12.3902	4.40073	0	
2.2767	-19.3919	5.31123	0	
2.2773	-20.2954	3.79373	0	
2.2780	-20.9085	2.88324	0	
2.2787	-20.6181	4.09723	0	
2.2793	-12.6806	2.57974	0	
2.2800	-5.67884	-1.08754	0	
2.2807	-5.67884	-1.99803	0	
2.2813	-2.0005	-1.08754	0	
2.2820	2.58129	-2.93382	0	
2.2827	-0.774387	-2.93382	0	
2.2833	-2.0005	1.03695	0	
2.2840	2.25863	3.49023	0	
2.2847	3.8074	0.733455	0	
2.2853	8.96998	-1.69453	0	
2.2860	18.1336	-2.93382	0	
2.2867	23.3284	-3.54082	0	
2.2873	27.0068	-3.23732	0	
2.2880	30.6528	-4.14781	0	
2.2887	25.7806	-4.75481	0	
2.2893	15.3909	-1.99803	0	
2.2900	9.58304	0.126458	0	
2.2907	8.96998	-0.177041	0	
2.2913	6.84042	2.27624	0	
2.2920	2.58129	2.88324	0	
2.2927	-0.774387	-0.480539	0	
2.2933	-2.90395	0.126458	0	
2.2940	-4.45273	4.40073	0	
2.2947	-5.06578	3.49023	0	
2.2953	-6.25963	-0.177041	0	
2.2960	-12.0675	0.126458	0	
2.2967	-19.7146	2.57974	0	
2.2973	-22.7476	3.79373	0	
2.2980	-21.8442	2.57974	0	
2.2987	-18.7789	-0.177041	0	
2.2993	-15.7459	-1.39104	0	
2.3000	-12.971	-1.08754	0	
2.3007	-8.42146	-1.39104	0	
2.3013	-4.45273	-3.84432	0	
2.3020	-2.0005	-6.2723	0	
2.3027	2.58129	-4.14781	0	
2.3033	5.93697	0.126458	0	
2.3040	4.71086	1.64395	0	
2.3047	4.42046	0.733455	0	
2.3053	8.96998	-1.99803	0	
2.3060	15.7136	-5.05831	0	
2.3067	23.6188	-4.45131	0	
2.3073	27.9102	-1.08754	0	
2.3080	24.8449	-1.39104	0	
2.3087	20.8762	-2.30153	0	
2.3093	17.5205	0.126458	0	
2.3100	12.0353	1.97274	0	
2.3107	9.58304	2.27624	0	
2.3113	7.77614	1.97274	0	
2.3120	1.35518	0.429956	0	
2.3127	-3.22661	-1.08754	0	
2.3133	-2.90395	-0.784038	0	
2.3140	-3.83967	-0.177041	0	
2.3147	-4.74312	1.03695	0	
2.3153	-5.67884	1.34045	0	
2.3160	-13.584	-0.177041	0	
2.3167	-21.8442	-0.177041	0	
2.3173	-22.7476	1.64395	0	
2.3180	-21.2311	3.49023	0	
2.3187	-18.7789	4.09723	0	
2.3193	-12.3902	2.88324	0	
2.3200	-8.42146	1.64395	0	
2.3207	-8.71186	2.57974	0	
2.3213	-6.87269	2.27624	0	
2.3220	-2.90395	-0.784038	0	
2.3227	0.742121	-1.99803	0	
2.3233	5.03352	-1.39104	0	
2.3240	7.45348	-1.39104	0	
2.3247	7.16308	-2.30153	0	
2.3253	11.7449	-2.93382	0	
2.3260	19.9727	-2.93382	0	
2.3267	25.1676	-2.93382	0	
2.3273	27.2971	-3.54082	0	
2.3280	31.8789	-1.99803	0	
2.3287	34.912	-1.69453	0	
2.3293	31.8789	-2.30153	0	
2.3300	25.1676	-1.99803	0	
2.3307	19.0693	-0.480539	0	
2.3313	13.5518	1.03695	0	
2.3320	6.22736	3.18674	0	
2.3327	-2.61356	1.97274	0	
2.3333	-9.93797	-1.39104	0	
2.3340	-15.4232	-0.784038	0	
2.3347	-21.2311	2.88324	0	
2.3353	-27.6198	4.70423	0	
2.3360	-33.4277	6.22172	0	
2.3367	-38.3322	8.068	0	
2.3373	-40.1391	6.22172	0	
2.3380	-39.2356	3.49023	0	
2.3387	-34.0408	3.18674	0	
2.3393	-24.8772	2.57974	0	
2.3400	-17.5528	0.429956	0	
2.3407	-13.584	-1.08754	0	
2.3413	-9.32491	-1.39104	0	
2.3420	-5.67884	-3.54082	0	
2.3427	-2.90395	-5.05831	0	
2.3433	0.742121	-3.54082	0	
2.3440	3.19435	-2.30153	0	
2.3447	5.32391	-5.05831	0	
2.3453	12.0353	-7.51159	0	
2.3460	19.9727	-6.8793	0	
2.3467	25.458	-7.51159	0	
2.3473	29.1363	-9.33258	0	
2.3480	25.1676	-9.33258	0	
2.3487	16.004	-7.81509	0	
2.3493	11.4222	-5.96881	0	
2.3500	10.1961	-3.23732	0	
2.3507	7.16308	-0.784038	0	
2.3513	4.42046	-0.784038	0	
2.3520	1.64557	-0.480539	0	
2.3527	-5.35618	1.97274	0	
2.3533	-11.1641	2.27624	0	
2.3540	-14.8102	-0.177041	0	
2.3547	-16.9397	-0.480539	0	
2.3553	-14.5198	-0.177041	0	
2.3560	-12.6806	-0.177041	0	
2.3567	-18.4885	1.97274	0	
2.3573	-23.9737	4.09723	0	
2.3580	-22.1346	1.64395	0	
2.3587	-18.1658	0.733455	0	
2.3593	-13.9067	3.49023	0	
2.3600	-9.32491	3.79373	0	
2.3607	-5.67884	3.18674	0	
2.3613	-0.483992	4.40073	0	
2.3620	5.32391	3.79373	0	
2.3627	7.16308	2.57974	0	
2.3633	8.06653	2.27624	0	
2.3640	11.4222	1.03695	0	
2.3647	13.5518	-0.480539	0	
2.3653	15.3909	-0.480539	0	
2.3660	20.2631	-1.69453	0	
2.3667	24.8449	-3.84432	0	
2.3673	25.458	-3.84432	0	
2.3680	21.8119	-2.93382	0	
2.3687	12.6483	-2.30153	0	
2.3693	2.87169	-1.39104	0	
2.3700	-0.774387	0.429956	0	
2.3707	-2.90395	3.49023	0	
2.3713	-4.74312	5.00773	0	
2.3720	0.742121	3.49023	0	
2.3727	7.45348	-1.08754	0	
2.3733	7.16308	-6.5758	0	
2.3740	5.03352	-9.33258	0	
2.3747	5.32391	-6.5758	0	
2.3753	1.06478	-3.23732	0	
2.3760	-9.93797	-2.30153	0	
2.3767	-20.005	-0.784038	0	
2.3773	-23.3607	0.733455	0	
2.3780	-20.2954	-0.784038	0	
2.3787	-16.0363	-0.784038	0	
2.3793	-11.7771	0.733455	0	
2.3800	-6.25963	-0.177041	0	
2.3807	-2.90395	-1.08754	0	
2.3813	-1.38744	-0.480539	0	
2.3820	3.48474	-0.480539	0	
2.3827	8.06653	-1.99803	0	
2.3833	7.16308	-5.66531	0	
2.3840	6.84042	-7.81509	0	
2.3847	10.5188	-3.84432	0	
2.3853	14.4875	-0.177041	0	
2.3860	20.8762	-3.23732	0	
2.3867	28.8137	-5.66531	0	
2.3873	30.3624	-3.23732	0	
2.3880	26.6841	0.733455	0	
2.3887	23.6188	1.64395	0	
2.3893	18.1336	-1.69453	0	
2.3900	11.1318	-3.84432	0	
2.3907	7.45348	-0.177041	0	
2.3913	5.03352	1.64395	0	
2.3920	0.451726	0.126458	0	
2.3927	-2.0005	2.57974	0	
2.3933	-2.0005	5.61472	0	
2.3940	-2.0005	3.79373	0	
2.3947	-3.83967	2.88324	0	
2.3953	-9.32491	4.09723	0	
2.3960	-18.7789	3.49023	0	
2.3967	-24.8772	4.70423	0	
2.3973	-24.8772	5.91822	0	
2.3980	-22.7476	3.49023	0	
2.3987	-20.9085	2.57974	0	
2.3993	-18.4885	3.18674	0	
2.4000	-15.4232	1.64395	0	
2.4007	-10.8414	1.64395	0	
2.4013	-4.74312	3.49023	0	
2.4020	-0.161331	1.97274	0	
2.4027	3.48474	0.429956	0	
2.4033	8.06653	1.64395	0	
2.4040	8.06653	1.34045	0	
2.4047	7.45348	0.126458	0	
2.4053	12.3579	-0.177041	0	
2.4060	19.0693	-3.84432	0	
2.4067	21.8119	-7.51159	0	
2.4073	21.4892	-7.1828	0	
2.4080	19.0693	-4.75481	0	
2.4087	12.6483	-1.08754	0	
2.4093	7.16308	3.49023	0	
2.4100	5.32391	2.27624	0	
2.4107	2.58129	-1.69453	0	
2.4113	-1.09705	-0.177041	0	
2.4120	-3.83967	2.88324	0	
2.4127	-6.25963	1.64395	0	
2.4133	-8.0988	-1.08754	0	
2.4140	-9.32491	-2.93382	0	
2.4147	-12.0675	-3.54082	0	
2.4153	-16.3589	-0.480539	0	
2.4160	-22.4572	2.88324	0	
2.4167	-28.8459	1.64395	0	
2.4173	-31.2981	-2.30153	0	
2.4180	-30.3947	-1.99803	0	
2.4187	-29.459	-0.177041	0	
2.4193	-26.7164	-0.177041	0	
2.4200	-20.2954	-0.784038	0	
2.4207	-13.584	1.97274	0	
2.4213	-10.551	3.18674	0	
2.4220	-6.58229	-0.480539	0	
2.4227	2.58129	-1.99803	0	
2.4233	12.0353	0.126458	0	
2.4240	16.6171	-0.784038	0	
2.4247	18.4562	-3.84432	0	
2.4253	22.1023	-5.05831	0	
2.4260	26.3937	-5.66531	0	
2.4267	27.2971	-6.8793	0	
2.4273	25.7806	-6.8793	0	
2.4280	21.8119	-6.2723	0	
2.4287	13.2614	-5.05831	0	
2.4293	2.25863	-2.93382	0	
2.4300	-3.51701	-0.177041	0	
2.4307	-1.09705	2.27624	0	
2.4313	-0.483992	3.49023	0	
2.4320	-6.87269	1.64395	0	
2.4327	-11.7771	1.64395	0	
2.4333	-9.93797	4.09723	0	
2.4340	-6.58229	4.40073	0	
2.4347	-6.87269	4.40073	0	
2.4353	-13.584	8.068	0	
2.4360	-23.0703	8.9785	0	
2.4367	-27.039	7.15751	0	
2.4373	-23.9737	7.76451	0	
2.4380	-20.9085	7.46101	0	
2.4387	-18.4885	6.55051	0	
2.4393	-13.9067	7.15751	0	
2.4400	-8.0988	3.49023	0	
2.4407	-0.161331	-2.93382	0	
2.4413	5.03352	-3.23732	0	
2.4420	5.32391	-0.177041	0	
2.4427	5.61431	-1.39104	0	
2.4433	6.55002	-3.23732	0	
2.4440	5.61431	-3.54082	0	
2.4447	7.45348	-3.84432	0	
2.4453	14.4875	-2.60503	0	
2.4460	22.7154	-2.93382	0	
2.4467	29.1363	-4.75481	0	
2.4473	27.9102	-3.84432	0	
2.4480	20.8762	-2.30153	0	
2.4487	16.004	-3.84432	0	
2.4493	12.6483	-3.23732	0	
2.4500	8.38919	-1.08754	0	
2.4507	8.38919	-1.99803	0	
2.4513	9.29265	-1.69453	0	
2.4520	6.22736	0.126458	0	
2.4527	3.19435	-1.08754	0	
2.4533	0.129065	-2.30153	0	
2.4540	-4.74312	-1.08754	0	
2.4547	-8.0988	-1.99803	0	
2.4553	-12.971	-3.84432	0	
2.4560	-21.2311	-1.08754	0	
2.4567	-27.6198	2.27624	0	
2.4573	-29.459	2.57974	0	
2.4580	-31.5885	2.57974	0	
2.4587	-30.3947	1.34045	0	
2.4593	-23.9737	-2.30153	0	
2.4600	-15.7459	-3.84432	0	
2.4607	-9.32491	-2.30153	0	
2.4613	-5.67884	-3.23732	0	
2.4620	-4.13006	-6.5758	0	
2.4627	-2.0005	-5.66531	0	
2.4633	2.25863	-3.54082	0	
2.4640	5.32391	-2.93382	0	
2.4647	6.55002	-1.69453	0	
2.4653	10.5188	-1.39104	0	
2.4660	19.9727	-5.96881	0	
2.4667	26.3937	-8.42209	0	
2.4673	27.0068	-6.5758	0	
2.4680	27.9102	-5.66531	0	
2.4687	25.458	-4.75481	0	
2.4693	17.8432	-1.99803	0	
2.4700	11.7449	-1.99803	0	
2.4707	6.22736	-3.54082	0	
2.4713	0.742121	-1.08754	0	
2.4720	1.06478	0.126458	0	
2.4727	0.742121	-1.08754	0	
2.4733	-5.67884	-1.99803	0	
2.4740	-7.48574	-2.30153	0	
2.4747	-5.35618	-1.08754	0	
2.4753	-12.0675	2.27624	0	
2.4760	-23.9737	3.49023	0	
2.4767	-29.1686	4.40073	0	
2.4773	-29.7816	5.61472	0	
2.4780	-28.2329	2.57974	0	
2.4787	-22.7476	-1.99803	0	
2.4793	-17.5528	-1.08754	0	
2.4800	-14.5198	1.34045	0	
2.4807	-7.8084	0.126458	0	
2.4813	0.742121	-1.39104	0	
2.4820	3.8074	-2.30153	0	
2.4827	4.42046	-4.45131	0	
2.4833	9.58304	-8.42209	0	
2.4840	13.5518	-10.2431	0	
2.4847	10.8092	-8.42209	0	
2.4853	9.9057	-7.81509	0	
2.4860	16.9075	-10.2431	0	
2.4867	23.038	-10.8501	0	
2.4873	24.5545	-7.1828	0	
2.4880	23.6188	-4.14781	0	
2.4887	20.5858	-3.23732	0	
2.4893	15.3909	-2.93382	0	
2.4900	10.8092	-1.99803	0	
2.4907	8.06653	0.429956	0	
2.4913	7.45348	1.34045	0	
2.4920	5.32391	-0.784038	0	
2.4927	0.129065	1.03695	0	
2.4933	-2.0005	5.31123	0	
2.4940	-1.38744	4.40073	0	
2.4947	-2.90395	4.09723	0	
2.4953	-8.42146	5.31123	0	
2.4960	-19.3919	2.88324	0	
2.4967	-31.5885	2.57974	0	
2.4973	-34.0408	8.068	0	
2.4980	-30.3947	8.068	0	
2.4987	-27.6198	1.97274	0	
2.4993	-21.8442	1.34045	0	
2.5000	-14.1971	4.09723	0	
2.5007	-10.8414	3.18674	0	
2.5013	-6.58229	1.03695	0	
2.5020	-2.61356	1.03695	0	
2.5027	-2.90395	2.27624	0	
2.5033	-1.09705	2.88324	0	
2.5040	2.25863	1.97274	0	
2.5047	-0.161331	0.733455	0	
2.5053	1.06478	-1.08754	0	
2.5060	8.96998	-2.93382	0	
2.5067	12.6483	-1.39104	0	
2.5073	11.1318	-0.177041	0	
2.5080	10.8092	-3.84432	0	
2.5087	15.3909	-4.14781	0	
2.5093	26.6841	1.97274	0	
2.5100	35.525	4.40073	0	
2.5107	33.7181	0.429956	0	
2.5113	29.4267	1.34045	0	
2.5120	27.0068	7.76451	0	
2.5127	19.3597	8.9785	0	
2.5133	8.06653	6.85401	0	
2.5140	1.35518	8.068	0	
2.5147	-5.67884	10.7995	0	
2.5153	-18.1658	9.5855	0	
2.5160	-28.8459	7.15751	0	
2.5167	-31.2981	8.068	0	
2.5173	-30.072	8.3715	0	
2.5180	-30.3947	5.61472	0	
2.5187	-27.6198	2.57974	0	
2.5193	-21.2311	1.64395	0	
2.5200	-15.4232	1.64395	0	
2.5207	-10.2284	1.64395	0	
2.5213	-4.13006	-0.480539	0	
2.5220	0.129065	-2.60503	0	
2.5227	3.19435	-1.69453	0	
2.5233	5.32391	-1.39104	0	
2.5240	2.58129	-3.84432	0	
2.5247	-0.161331	-4.75481	0	
2.5253	7.77614	-4.75481	0	
2.5260	22.1023	-5.66531	0	
2.5267	26.6841	-4.75481	0	
2.5273	21.8119	-1.99803	0	
2.5280	18.1336	-0.177041	0	
2.5287	15.3909	1.64395	0	
2.5293	10.5188	1.97274	0	
2.5300	7.77614	0.126458	0	
2.5307	6.84042	-0.177041	0	
2.5313	4.0978	1.64395	0	
2.5320	1.64557	3.18674	0	
2.5327	0.129065	3.49023	0	
2.5333	-2.0005	2.57974	0	
2.5340	-3.83967	0.429956	0	
2.5347	-6.58229	-0.480539	0	
2.5353	-12.0675	1.64395	0	
2.5360	-18.7789	5.31123	0	
2.5367	-23.6833	6.85401	0	
2.5373	-25.1998	4.40073	0	
2.5380	-23.3607	1.34045	0	
2.5387	-18.7789	0.429956	0	
2.5393	-12.971	0.429956	0	
2.5400	-8.42146	0.429956	0	
2.5407	-5.06578	1.34045	0	
2.5413	-1.38744	1.64395	0	
2.5420	0.129065	0.429956	0	
2.5427	-0.774387	-1.39104	0	
2.5433	0.742121	-2.93382	0	
2.5440	3.19435	-2.60503	0	
2.5447	2.58129	-1.99803	0	
2.5453	5.32391	-3.54082	0	
2.5460	16.2944	-6.5758	0	
2.5467	23.6188	-7.51159	0	
2.5473	20.8762	-4.45131	0	
2.5480	19.0693	-1.39104	0	
2.5487	18.1336	-1.99803	0	
2.5493	12.6483	-4.75481	0	
2.5500	7.16308	-4.14781	0	
2.5507	4.71086	-2.60503	0	
2.5513	0.742121	-4.45131	0	
2.5520	-4.45273	-6.2723	0	
2.5527	-8.42146	-2.93382	0	
2.5533	-11.1641	-0.480539	0	
2.5540	-10.551	-1.99803	0	
2.5547	-10.2284	0.126458	0	
2.5553	-16.3589	3.49023	0	
2.5560	-25.8129	0.429956	0	
2.5567	-30.6851	-2.60503	0	
2.5573	-29.459	1.64395	0	
2.5580	-25.1998	5.00773	0	
2.5587	-21.2311	2.57974	0	
2.5593	-16.6493	1.64395	0	
2.5600	-10.8414	4.70423	0	
2.5607	-4.45273	3.49023	0	
2.5613	0.451726	-1.99803	0	
2.5620	2.58129	-5.96881	0	
2.5627	3.48474	-7.81509	0	
2.5633	5.03352	-7.51159	0	
2.5640	8.96998	-5.36181	0	
2.5647	16.2944	-5.36181	0	
2.5653	28.5233	-7.51159	0	
2.5660	39.2034	-7.81509	0	
2.5667	43.4625	-6.5758	0	
2.5673	42.559	-5.66531	0	
2.5680	37.6868	-3.23732	0	
2.5687	28.8137	-1.69453	0	
2.5693	19.3597	-4.14781	0	
2.5700	10.1961	-3.84432	0	
2.5707	-1.09705	2.27624	0	
2.5713	-12.971	2.88324	0	
2.5720	-19.7146	-1.39104	0	
2.5727	-19.3919	-1.08754	0	
2.5733	-15.4232	3.18674	0	
2.5740	-14.8102	4.09723	0	
2.5747	-17.5528	2.88324	0	
2.5753	-20.2954	2.88324	0	
2.5760	-23.9737	3.49023	0	
2.5767	-30.072	5.31123	0	
2.5773	-33.4277	7.15751	0	
2.5780	-31.0078	6.55051	0	
2.5787	-23.0703	5.00773	0	
2.5793	-15.7459	3.79373	0	
2.5800	-12.0675	3.49023	0	
2.5807	-8.42146	1.97274	0	
2.5813	-3.83967	-1.99803	0	
2.5820	-2.2909	-3.23732	0	
2.5827	-0.161331	-1.08754	0	
2.5833	4.71086	-1.08754	0	
2.5840	6.55002	-3.54082	0	
2.5847	7.16308	-3.84432	0	
2.5853	13.8744	-4.14781	0	
2.5860	21.8119	-5.66531	0	
2.5867	24.8449	-5.05831	0	
2.5873	24.5545	-5.36181	0	
2.5880	22.7154	-6.5758	0	
2.5887	19.0693	-4.45131	0	
2.5893	16.9075	-0.177041	0	
2.5900	15.7136	1.03695	0	
2.5907	12.3579	2.57974	0	
2.5913	8.06653	4.70423	0	
2.5920	3.8074	5.31123	0	
2.5927	-2.90395	5.00773	0	
2.5933	-11.1641	5.00773	0	
2.5940	-13.2936	5.61472	0	
2.5947	-12.6806	5.91822	0	
2.5953	-16.3589	5.31123	0	
2.5960	-24.5868	6.85401	0	
2.5967	-32.2016	8.068	0	
2.5973	-34.9442	5.61472	0	
2.5980	-32.8147	4.09723	0	
2.5987	-28.2329	5.31123	0	
2.5993	-20.6181	4.09723	0	
2.6000	-9.93797	0.733455	0	
2.6007	1.64557	1.64395	0	
2.6013	10.8092	2.27624	0	
2.6020	18.4562	-2.30153	0	
2.6027	22.7154	-7.51159	0	
2.6033	23.6188	-8.11859	0	
2.6040	20.8762	-6.2723	0	
2.6047	16.004	-5.36181	0	
2.6053	16.2944	-5.66531	0	
2.6060	24.2319	-4.45131	0	
2.6067	30.6528	-2.93382	0	
2.6073	31.5563	-4.14781	0	
2.6080	28.5233	-5.66531	0	
2.6087	20.8762	-3.84432	0	
2.6093	12.0353	-4.75481	0	
2.6100	8.67959	-7.51159	0	
2.6107	8.06653	-4.45131	0	
2.6113	5.61431	0.733455	0	
2.6120	4.42046	2.27624	0	
2.6127	1.35518	3.18674	0	
2.6133	-4.13006	3.49023	0	
2.6140	-6.58229	1.34045	0	
2.6147	-7.48574	-1.39104	0	
2.6153	-12.971	-1.99803	0	
2.6160	-19.3919	-0.784038	0	
2.6167	-22.1346	2.57974	0	
2.6173	-21.8442	3.18674	0	
2.6180	-20.9085	1.64395	0	
2.6187	-19.1016	2.57974	0	
2.6193	-16.6493	4.09723	0	
2.6200	-12.971	2.27624	0	
2.6207	-7.48574	1.64395	0	
2.6213	-2.61356	2.27624	0	
2.6220	-0.161331	0.733455	0	
2.6227	0.451726	-0.784038	0	
2.6233	1.64557	1.64395	0	
2.6240	4.42046	4.09723	0	
2.6247	5.61431	1.97274	0	
2.6253	8.06653	-1.39104	0	
2.6260	16.6171	-1.39104	0	
2.6267	24.5545	-1.99803	0	
2.6273	23.6188	-4.75481	0	
2.6280	17.8432	-3.84432	0	
2.6287	15.1006	-2.30153	0	
2.6293	12.9387	-4.45131	0	
2.6300	6.84042	-4.45131	0	
2.6307	1.64557	-1.08754	0	
2.6313	1.35518	-0.177041	0	
2.6320	-0.161331	1.64395	0	
2.6327	-5.67884	3.79373	0	
2.6333	-8.42146	4.40073	0	
2.6340	-8.42146	5.61472	0	
2.6347	-6.58229	6.22172	0	
2.6353	-2.61356	2.57974	0	
2.6360	-2.0005	1.64395	0	
2.6367	-7.48574	5.31123	0	
2.6373	-10.8414	4.70423	0	
2.6380	-9.32491	2.57974	0	
2.6387	-8.0988	3.18674	0	
2.6393	-5.67884	2.27624	0	
2.6400	-1.09705	0.733455	0	
2.6407	-1.71011	-0.177041	0	
2.6413	-8.0988	-1.99803	0	
2.6420	-12.0675	-3.84432	0	
2.6427	-10.551	-2.93382	0	
2.6433	-6.87269	-1.08754	0	
2.6440	-5.67884	-1.39104	0	
2.6447	-6.87269	-2.30153	0	
2.6453	-3.83967	-2.93382	0	
2.6460	6.22736	-5.36181	0	
2.6467	15.7136	-8.42209	0	
2.6473	19.0693	-6.8793	0	
2.6480	16.2944	-4.75481	0	
2.6487	12.3579	-6.5758	0	
2.6493	8.96998	-5.66531	0	
2.6500	6.22736	-1.08754	0	
2.6507	3.19435	-0.480539	0	
2.6513	2.87169	-3.54082	0	
2.6520	3.19435	-2.93382	0	
2.6527	-2.0005	-0.177041	0	
2.6533	-8.42146	1.34045	0	
2.6540	-9.32491	2.57974	0	
2.6547	-8.42146	4.40073	0	
2.6553	-12.6806	5.61472	0	
2.6560	-20.6181	5.31123	0	
2.6567	-28.5555	2.27624	0	
2.6573	-28.8459	0.429956	0	
2.6580	-21.8442	2.57974	0	
2.6587	-15.7459	4.09723	0	
2.6593	-12.971	2.27624	0	
2.6600	-8.42146	0.429956	0	
2.6607	-1.09705	-0.480539	0	
2.6613	2.58129	-3.23732	0	
2.6620	2.25863	-7.1828	0	
2.6627	2.58129	-5.66531	0	
2.6633	6.84042	-0.784038	0	
2.6640	9.9057	-1.08754	0	
2.6647	9.29265	-3.84432	0	
2.6653	12.6483	-3.23732	0	
2.6660	21.1988	-3.54082	0	
2.6667	26.071	-3.84432	0	
2.6673	25.458	-1.99803	0	
2.6680	22.7154	-1.39104	0	
2.6687	17.8432	-0.784038	0	
2.6693	13.2614	1.97274	0	
2.6700	9.9057	1.03695	0	
2.6707	4.42046	0.733455	0	
2.6713	0.451726	5.91822	0	
2.6720	0.742121	6.85401	0	
2.6727	-0.483992	2.27624	0	
2.6733	-3.83967	1.64395	0	
2.6740	-2.90395	0.733455	0	
2.6747	-2.2909	-3.54082	0	
2.6753	-10.2284	-1.69453	0	
2.6760	-19.1016	2.88324	0	
2.6767	-20.6181	1.64395	0	
2.6773	-20.2954	-1.39104	0	
2.6780	-21.2311	-1.08754	0	
2.6787	-18.4885	-1.99803	0	
2.6793	-14.1971	-4.14781	0	
2.6800	-12.0675	-4.45131	0	
2.6807	-6.87269	-1.39104	0	
2.6813	-1.09705	0.733455	0	
2.6820	-0.774387	-0.177041	0	
2.6827	0.129065	-1.08754	0	
2.6833	5.93697	-1.69453	0	
2.6840	8.96998	-2.93382	0	
2.6847	8.06653	-3.84432	0	
2.6853	13.5518	-4.14781	0	
2.6860	23.9415	-3.84432	0	
2.6867	27.9102	-2.30153	0	
2.6873	24.5545	-1.08754	0	
2.6880	22.1023	-0.480539	0	
2.6887	22.1023	-1.99803	0	
2.6893	18.1336	-4.75481	0	
2.6900	11.7449	-3.84432	0	
2.6907	8.06653	0.733455	0	
2.6913	6.22736	1.64395	0	
2.6920	3.8074	1.64395	0	
2.6927	0.742121	5.00773	0	
2.6933	-2.90395	5.31123	0	
2.6940	-6.87269	1.97274	0	
2.6947	-9.93797	1.64395	0	
2.6953	-14.1971	2.27624	0	
2.6960	-20.6181	1.03695	0	
2.6967	-24.5868	1.34045	0	
2.6973	-24.2641	1.64395	0	
2.6980	-22.1346	-0.177041	0	
2.6987	-18.1658	-1.08754	0	
2.6993	-12.971	0.733455	0	
2.7000	-9.93797	1.64395	0	
2.7007	-6.58229	1.34045	0	
2.7013	-1.71011	1.03695	0	
2.7020	0.742121	-0.177041	0	
2.7027	1.06478	-2.60503	0	
2.7033	3.19435	-3.54082	0	
2.7040	5.61431	-2.93382	0	
2.7047	6.22736	-3.23732	0	
2.7053	10.1961	-3.84432	0	
2.7060	18.1336	-4.14781	0	
2.7067	23.3284	-4.75481	0	
2.7073	20.2631	-6.2723	0	
2.7080	15.3909	-7.1828	0	
2.7087	13.5518	-5.96881	0	
2.7093	12.0353	-3.84432	0	
2.7100	5.32391	-3.23732	0	
2.7107	0.129065	-2.93382	0	
2.7113	-1.38744	-1.39104	0	
2.7120	-3.51701	0.429956	0	
2.7127	-5.67884	1.64395	0	
2.7133	-5.35618	3.49023	0	
2.7140	-5.67884	3.79373	0	
2.7147	-8.71186	1.64395	0	
2.7153	-13.9067	1.64395	0	
2.7160	-22.4572	5.61472	0	
2.7167	-28.2329	8.3715	0	
2.7173	-24.8772	7.76451	0	
2.7180	-20.005	6.85401	0	
2.7187	-17.5528	7.15751	0	
2.7193	-14.1971	7.76451	0	
2.7200	-10.8414	6.22172	0	
2.7207	-7.48574	1.97274	0	
2.7213	-2.90395	-1.99803	0	
2.7220	-0.774387	-1.99803	0	
2.7227	0.742121	0.733455	0	
2.7233	5.32391	1.34045	0	
2.7240	7.77614	-1.39104	0	
2.7247	6.22736	-4.14781	0	
2.7253	10.5188	-4.45131	0	
2.7260	20.8762	-4.14781	0	
2.7267	25.458	-5.66531	0	
2.7273	23.6188	-6.5758	0	
2.7280	22.425	-4.75481	0	
2.7287	18.1336	-3.84432	0	
2.7293	10.5188	-3.84432	0	
2.7300	5.61431	-3.54082	0	
2.7307	4.0978	-2.60503	0	
2.7313	1.64557	1.03695	0	
2.7320	-2.0005	4.40073	0	
2.7327	-5.67884	2.27624	0	
2.7333	-8.71186	1.34045	0	
2.7340	-9.61531	4.70423	0	
2.7347	-12.0675	4.40073	0	
2.7353	-19.1016	3.49023	0	
2.7360	-25.8129	6.55051	0	
2.7367	-27.9425	7.15751	0	
2.7373	-26.7164	4.70423	0	
2.7380	-21.8442	6.22172	0	
2.7387	-16.6493	8.675	0	
2.7393	-14.5198	6.85401	0	
2.7400	-10.551	3.49023	0	
2.7407	-4.13006	1.97274	0	
2.7413	-2.0005	2.57974	0	
2.7420	-1.71011	1.64395	0	
2.7427	2.58129	-1.39104	0	
2.7433	7.16308	-2.60503	0	
2.7440	9.58304	-3.23732	0	
2.7447	11.7449	-5.05831	0	
2.7453	17.5205	-3.84432	0	
2.7460	26.071	-0.784038	0	
2.7467	30.6528	-1.99803	0	
2.7473	29.1363	-3.84432	0	
2.7480	27.0068	-3.84432	0	
2.7487	23.038	-2.30153	0	
2.7493	17.2301	0.733455	0	
2.7500	13.5518	2.57974	0	
2.7507	9.9057	0.126458	0	
2.7513	6.22736	-0.784038	0	
2.7520	6.22736	-1.69453	0	
2.7527	5.32391	-4.75481	0	
2.7533	-2.0005	-3.54082	0	
2.7540	-5.35618	0.733455	0	
2.7547	-4.74312	-1.08754	0	
2.7553	-12.3902	-2.30153	0	
2.7560	-23.9737	0.733455	0	
2.7567	-26.426	2.57974	0	
2.7573	-24.2641	2.57974	0	
2.7580	-22.1346	2.57974	0	
2.7587	-17.5528	2.57974	0	
2.7593	-15.4232	1.03695	0	
2.7600	-14.5198	-0.784038	0	
2.7607	-8.0988	-0.784038	0	
2.7613	-0.483992	2.57974	0	
2.7620	1.96823	2.88324	0	
2.7627	2.87169	-0.177041	0	
2.7633	5.32391	0.126458	0	
2.7640	8.06653	1.64395	0	
2.7647	12.3579	-0.177041	0	
2.7653	16.2944	-1.39104	0	
2.7660	20.5858	-1.99803	0	
2.7667	26.6841	-4.45131	0	
2.7673	30.6528	-6.5758	0	
2.7680	27.5875	-5.36181	0	
2.7687	21.8119	-3.23732	0	
2.7693	15.7136	-0.784038	0	
2.7700	9.9057	0.429956	0	
2.7707	5.32391	0.126458	0	
2.7713	2.58129	-0.784038	0	
2.7720	1.06478	-1.69453	0	
2.7727	-1.09705	-1.08754	0	
2.7733	-7.8084	0.733455	0	
2.7740	-15.7459	1.97274	0	
2.7747	-19.7146	1.64395	0	
2.7753	-23.9737	1.64395	0	
2.7760	-31.5885	3.49023	0	
2.7767	-34.6538	5.31123	0	
2.7773	-30.072	5.31123	0	
2.7780	-27.3294	5.00773	0	
2.7787	-25.8129	5.31123	0	
2.7793	-19.3919	3.18674	0	
2.7800	-13.2936	-1.39104	0	
2.7807	-10.2284	-3.84432	0	
2.7813	-5.96923	-3.84432	0	
2.7820	-2.2909	-4.75481	0	
2.7827	-1.09705	-6.8793	0	
2.7833	2.25863	-8.42209	0	
2.7840	5.03352	-6.5758	0	
2.7847	5.93697	-2.93382	0	
2.7853	11.4222	-2.30153	0	
2.7860	18.7466	-5.36181	0	
2.7867	20.8762	-6.5758	0	
2.7873	21.8119	-3.84432	0	
2.7880	22.7154	-2.93382	0	
2.7887	20.8762	-4.14781	0	
2.7893	16.004	-4.75481	0	
2.7900	7.77614	-3.54082	0	
2.7907	-1.09705	-2.30153	0	
2.7913	-4.45273	-1.39104	0	
2.7920	-3.83967	0.733455	0	
2.7927	-5.06578	3.79373	0	
2.7933	-6.58229	6.22172	0	
2.7940	-7.48574	6.22172	0	
2.7947	-10.8414	4.40073	0	
2.7953	-15.7459	4.70423	0	
2.7960	-21.8442	5.31123	0	
2.7967	-25.4902	4.70423	0	
2.7973	-25.8129	4.70423	0	
2.7980	-25.8129	6.22172	0	
2.7987	-23.3607	6.55051	0	
2.7993	-17.5528	3.49023	0	
2.8000	-12.971	0.126458	0	
2.8007	-9.03452	-0.784038	0	
2.8013	-5.67884	-1.39104	0	
2.8020	-4.45273	-2.93382	0	
2.8027	-1.38744	-1.69453	0	
2.8033	5.32391	-0.177041	0	
2.8040	8.96998	-2.30153	0	
2.8047	11.4222	-4.14781	0	
2.8053	18.1336	-3.84432	0	
2.8060	24.8449	-7.1828	0	
2.8067	27.5875	-10.2431	0	
2.8073	32.7824	-5.36181	0	
2.8080	37.3642	-1.99803	0	
2.8087	33.7181	-4.75481	0	
2.8093	25.7806	-4.75481	0	
2.8100	19.0693	-1.99803	0	
2.8107	11.4222	-1.69453	0	
2.8113	2.58129	-1.08754	0	
2.8120	-3.22661	-0.177041	0	
2.8127	-9.32491	-1.99803	0	
2.8133	-18.4885	-3.84432	0	
2.8140	-25.8129	-4.14781	0	
2.8147	-26.1033	-4.75481	0	
2.8153	-29.1686	-1.99803	0	
2.8160	-38.913	1.03695	0	
2.8167	-42.5913	-0.177041	0	
2.8173	-34.9442	0.733455	0	
2.8180	-29.459	2.27624	0	
2.8187	-26.1033	-1.08754	0	
2.8193	-19.7146	-2.93382	0	
2.8200	-14.8102	0.126458	0	
2.8207	-11.7771	-0.177041	0	
2.8213	-6.58229	-3.54082	0	
2.8220	-2.90395	-1.99803	0	
2.8227	0.742121	0.733455	0	
2.8233	5.32391	-1.08754	0	
2.8240	4.71086	-2.93382	0	
2.8247	3.8074	-1.69453	0	
2.8253	12.9387	-1.99803	0	
2.8260	22.7154	-4.75481	0	
2.8267	23.6188	-4.75481	0	
2.8273	23.6188	-1.69453	0	
2.8280	24.2319	0.126458	0	
2.8287	19.6823	1.03695	0	
2.8293	12.3579	1.97274	0	
2.8300	7.16308	0.733455	0	
2.8307	3.48474	-0.480539	0	
2.8313	1.06478	2.57974	0	
2.8320	1.06478	5.91822	0	
2.8327	0.451726	6.22172	0	
2.8333	-2.90395	4.70423	0	
2.8340	-5.06578	1.64395	0	
2.8347	-5.67884	-0.480539	0	
2.8353	-11.4545	0.126458	0	
2.8360	-20.2954	1.64395	0	
2.8367	-23.6833	1.64395	0	
2.8373	-20.9085	1.64395	0	
2.8380	-19.1016	0.733455	0	
2.8387	-18.1658	-2.30153	0	
2.8393	-14.5198	-3.84432	0	
2.8400	-7.19535	-1.99803	0	
2.8407	-1.09705	-1.08754	0	
2.8413	1.06478	-3.54082	0	
2.8420	2.58129	-4.14781	0	
2.8427	7.77614	-3.54082	0	
2.8433	12.0353	-2.60503	0	
2.8440	12.6483	-1.08754	0	
2.8447	12.6483	-3.23732	0	
2.8453	18.1336	-7.51159	0	
2.8460	25.1676	-6.2723	0	
2.8467	28.5233	-2.30153	0	
2.8473	27.5875	-3.84432	0	
2.8480	24.5545	-6.8793	0	
2.8487	20.8762	-5.05831	0	
2.8493	19.6823	-4.45131	0	
2.8500	17.8432	-6.2723	0	
2.8507	11.1318	-4.75481	0	
2.8513	6.22736	-0.177041	0	
2.8520	7.77614	2.57974	0	
2.8527	7.16308	1.64395	0	
2.8533	1.96823	-1.08754	0	
2.8540	-0.161331	-1.08754	0	
2.8547	-1.38744	2.57974	0	
2.8553	-8.42146	5.31123	0	
2.8560	-16.6493	4.40073	0	
2.8567	-20.005	3.49023	0	
2.8573	-20.2954	4.09723	0	
2.8580	-20.9085	4.09723	0	
2.8587	-19.1016	3.49023	0	
2.8593	-16.3589	3.79373	0	
2.8600	-15.7459	3.49023	0	
2.8607	-13.2936	2.57974	0	
2.8613	-8.0988	3.18674	0	
2.8620	-5.06578	4.40073	0	
2.8627	-4.13006	3.49023	0	
2.8633	-1.71011	4.09723	0	
2.8640	0.451726	6.55051	0	
2.8647	2.87169	5.61472	0	
2.8653	11.1318	1.03695	0	
2.8660	22.425	-3.84432	0	
2.8667	30.3624	-6.5758	0	
2.8673	30.0398	-7.51159	0	
2.8680	21.8119	-5.66531	0	
2.8687	13.8744	-3.84432	0	
2.8693	10.5188	-1.69453	0	
2.8700	8.67959	0.126458	0	
2.8707	6.22736	0.733455	0	
2.8713	4.42046	2.57974	0	
2.8720	1.96823	4.40073	0	
2.8727	-1.71011	2.57974	0	
2.8733	-4.74312	1.03695	0	
2.8740	-6.58229	2.57974	0	
2.8747	-9.32491	2.57974	0	
2.8753	-16.3589	3.49023	0	
2.8760	-25.8129	5.00773	0	
2.8767	-31.2981	3.18674	0	
2.8773	-29.1686	2.57974	0	
2.8780	-24.5868	4.40073	0	
2.8787	-22.1346	1.64395	0	
2.8793	-19.3919	-0.784038	0	
2.8800	-12.3902	1.97274	0	
2.8807	-4.74312	0.733455	0	
2.8813	0.742121	-3.84432	0	
2.8820	3.48474	-2.93382	0	
2.8827	4.0978	-0.177041	0	
2.8833	3.48474	-1.99803	0	
2.8840	5.32391	-3.54082	0	
2.8847	9.9057	-1.99803	0	
2.8853	16.004	-1.08754	0	
2.8860	24.2319	-1.08754	0	
2.8867	29.1363	-2.93382	0	
2.8873	26.6841	-3.54082	0	
2.8880	23.6188	-1.39104	0	
2.8887	20.8762	1.03695	0	
2.8893	14.4875	1.03695	0	
2.8900	9.29265	-0.480539	0	
2.8907	7.16308	-0.784038	0	
2.8913	3.48474	0.733455	0	
2.8920	-2.2909	0.733455	0	
2.8927	-5.35618	-1.08754	0	
2.8933	-4.74312	0.429956	0	
2.8940	-4.74312	2.88324	0	
2.8947	-6.58229	2.57974	0	
2.8953	-10.2284	2.57974	0	
2.8960	-15.4232	4.40073	0	
2.8967	-19.3919	5.31123	0	
2.8973	-18.4885	4.70423	0	
2.8980	-15.7459	1.64395	0	
2.8987	-15.4232	-2.93382	0	
2.8993	-13.584	-3.54082	0	
2.9000	-8.42146	-2.30153	0	
2.9007	-5.35618	-4.14781	0	
2.9013	-5.67884	-5.66531	0	
2.9020	-7.48574	-3.84432	0	
2.9027	-7.48574	-4.14781	0	
2.9033	-2.61356	-5.36181	0	
2.9040	0.451726	-4.14781	0	
2.9047	2.58129	-3.23732	0	
2.9053	19.6823	-3.23732	0	
2.9060	45.3017	-3.84432	0	
2.9067	49.8834	-5.36181	0	
2.9073	37.0738	-5.36181	0	
2.9080	30.3624	-2.93382	0	
2.9087	27.2971	-1.99803	0	
2.9093	18.1336	-1.39104	0	
2.9100	8.96998	1.03695	0	
2.9107	2.58129	2.27624	0	
2.9113	-6.25963	2.88324	0	
2.9120	-15.7459	3.79373	0	
2.9127	-20.6181	2.57974	0	
2.9133	-21.2311	1.34045	0	
2.9140	-20.9085	3.49023	0	
2.9147	-23.0703	5.31123	0	
2.9153	-28.5555	6.22172	0	
2.9160	-33.1373	6.22172	0	
2.9167	-32.2016	4.40073	0	
2.9173	-29.459	1.34045	0	
2.9180	-28.2329	-0.480539	0	
2.9187	-23.9737	0.429956	0	
2.9193	-16.6493	0.733455	0	
2.9200	-11.1641	-1.08754	0	
2.9207	-5.67884	-0.480539	0	
2.9213	-2.61356	2.57974	0	
2.9220	-3.51701	1.64395	0	
2.9227	-2.61356	-0.784038	0	
2.9233	2.87169	0.126458	0	
2.9240	5.32391	-1.08754	0	
2.9247	6.22736	-4.14781	0	
2.9253	12.6483	-3.84432	0	
2.9260	19.9727	-4.14781	0	
2.9267	22.7154	-5.96881	0	
2.9273	25.7806	-3.54082	0	
2.9280	26.6841	-1.08754	0	
2.9287	19.9727	-1.69453	0	
2.9293	13.8744	1.03695	0	
2.9300	13.8744	2.57974	0	
2.9307	11.7449	-1.08754	0	
2.9313	6.84042	-0.177041	0	
2.9320	5.32391	4.09723	0	
2.9327	4.42046	4.09723	0	
2.9333	-0.161331	2.57974	0	
2.9340	-2.2909	2.57974	0	
2.9347	-1.71011	0.429956	0	
2.9353	-9.32491	0.429956	0	
2.9360	-20.6181	4.70423	0	
2.9367	-24.2641	8.068	0	
2.9373	-24.2641	7.15751	0	
2.9380	-25.8129	5.00773	0	
2.9387	-22.7476	4.40073	0	
2.9393	-16.3589	3.49023	0	
2.9400	-12.6806	0.429956	0	
2.9407	-8.42146	-1.39104	0	
2.9413	-2.0005	0.126458	0	
2.9420	0.451726	1.64395	0	
2.9427	0.742121	1.34045	0	
2.9433	2.58129	1.03695	0	
2.9440	5.03352	-1.39104	0	
2.9447	9.29265	-5.05831	0	
2.9453	16.2944	-6.2723	0	
2.9460	22.7154	-6.2723	0	
2.9467	26.071	-6.5758	0	
2.9473	23.6188	-4.14781	0	
2.9480	18.4562	-1.08754	0	
2.9487	16.2944	-0.177041	0	
