0.0007	-43.7569	13.4687	0	
0.0013	-38.5449	11.9464	0	
0.0020	-33.6863	13.4687	0	
0.0027	-25.4414	13.1708	0	
0.0033	-15.9892	6.75088	0	
0.0040	-9.24608	-1.45607	0	
0.0047	-4.97639	-5.42718	0	
0.0053	-0.117784	-4.53368	0	
0.0060	5.38864	-2.08483	0	
0.0067	8.45103	-1.45607	0	
0.0073	11.484	-3.60709	0	
0.0080	22.1729	-5.7581	0	
0.0087	36.8076	-9.10045	0	
0.0093	45.0525	-10.6227	0	
0.0100	46.5837	-8.80261	0	
0.0107	44.7581	-7.28036	0	
0.0113	37.7499	-7.57819	0	
0.0120	29.505	-5.7581	0	
0.0127	25.5298	-3.90492	0	
0.0133	20.3473	-4.53368	0	
0.0140	12.3968	-2.38266	0	
0.0147	8.12712	4.03729	0	
0.0153	4.18135	5.55955	0	
0.0160	-1.94344	1.58844	0	
0.0167	-5.88922	0.0661851	0	
0.0173	-9.86444	1.88627	0	
0.0180	-23.9102	3.40853	0	
0.0187	-40.989	4.93079	0	
0.0193	-48.3211	7.37963	0	
0.0200	-49.2339	8.30623	0	
0.0207	-48.0266	8.30623	0	
0.0213	-41.3129	5.85738	0	
0.0220	-32.1551	3.70636	0	
0.0227	-26.6487	5.55955	0	
0.0233	-21.7607	5.22862	0	
0.0240	-15.6653	-0.860406	0	
0.0247	-10.7773	-3.30925	0	
0.0253	-4.68193	-1.15824	0	
0.0260	2.03178	-1.787	0	
0.0267	4.47581	-2.6805	0	
0.0273	7.2143	-3.01142	0	
0.0280	20.6417	-6.05593	0	
0.0287	39.87	-10.6227	0	
0.0293	49.6461	-12.7737	0	
0.0300	49.0278	-11.5493	0	
0.0307	46.8782	-8.17386	0	
0.0313	42.314	-6.35377	0	
0.0320	35.6003	-6.35377	0	
0.0327	31.3307	-5.42718	0	
0.0333	25.8242	-3.90492	0	
0.0340	14.8408	-3.60709	0	
0.0347	6.91983	-1.787	0	
0.0353	4.77027	0.0661851	0	
0.0360	2.32624	-0.26474	0	
0.0367	-1.03061	-0.26474	0	
0.0373	-7.42042	0.661851	0	
0.0380	-21.7607	1.88627	0	
0.0387	-38.2505	2.81287	0	
0.0393	-46.4954	5.55955	0	
0.0400	-48.3211	7.9753	0	
0.0407	-47.1138	7.9753	0	
0.0413	-41.3129	6.45304	0	
0.0420	-32.4496	4.93079	0	
0.0427	-24.8231	3.1107	0	
0.0433	-19.0222	0.364018	0	
0.0440	-11.6901	-0.562573	0	
0.0447	-4.68193	0.661851	0	
0.0453	-1.03061	1.88627	0	
0.0460	1.11895	0.959683	0	
0.0467	2.94461	-2.6805	0	
0.0473	7.83266	-5.12934	0	
0.0480	20.9656	-6.05593	0	
0.0487	37.1315	-7.57819	0	
0.0493	44.7581	-10.3249	0	
0.0500	45.0525	-9.39828	0	
0.0507	43.8452	-6.35377	0	
0.0513	39.2517	-6.35377	0	
0.0520	34.982	-7.28036	0	
0.0527	31.3307	-5.12934	0	
0.0533	21.2601	-3.60709	0	
0.0540	11.1895	-4.83151	0	
0.0547	9.36386	-4.53368	0	
0.0553	7.2143	-3.01142	0	
0.0560	2.03178	-2.08483	0	
0.0567	-1.03061	-0.562573	0	
0.0573	-7.12596	1.88627	0	
0.0580	-21.4662	4.03729	0	
0.0587	-37.3377	7.9753	0	
0.0593	-47.7027	11.6486	0	
0.0600	-49.2339	11.6486	0	
0.0607	-45.5826	10.1263	0	
0.0613	-41.9018	8.90189	0	
0.0620	-35.8065	6.45304	0	
0.0627	-28.1799	3.70636	0	
0.0633	-22.7029	2.81287	0	
0.0640	-16.2837	3.70636	0	
0.0647	-8.33325	4.33512	0	
0.0653	-5.88922	1.58844	0	
0.0660	-4.06356	-2.08483	0	
0.0667	0.824491	-2.38266	0	
0.0673	7.2143	-1.787	0	
0.0680	20.3473	-4.53368	0	
0.0687	37.426	-7.57819	0	
0.0693	46.5837	-8.80261	0	
0.0700	48.1149	-10.027	0	
0.0707	45.9654	-9.39828	0	
0.0713	38.6627	-6.6516	0	
0.0720	29.505	-4.53368	0	
0.0727	23.9986	-3.60709	0	
0.0733	18.8161	-1.45607	0	
0.0740	12.3968	0.959683	0	
0.0747	5.38864	2.81287	0	
0.0753	-0.706706	2.81287	0	
0.0760	-3.47464	0.959683	0	
0.0767	-4.68193	-0.860406	0	
0.0773	-10.7773	0.959683	0	
0.0780	-22.379	3.70636	0	
0.0787	-37.3377	3.1107	0	
0.0793	-48.6155	1.29061	0	
0.0800	-50.7651	0.959683	0	
0.0807	-48.0266	1.88627	0	
0.0813	-44.3458	1.88627	0	
0.0820	-36.7193	0.959683	0	
0.0827	-27.2671	0.0661851	0	
0.0833	-20.5534	2.18411	0	
0.0840	-13.5452	3.1107	0	
0.0847	-6.21313	0.0661851	0	
0.0853	-2.53236	-2.6805	0	
0.0860	0.824491	-0.860406	0	
0.0867	4.18135	-0.860406	0	
0.0873	11.1895	-3.30925	0	
0.0880	25.8242	-6.05593	0	
0.0887	40.4884	-8.17386	0	
0.0893	45.9654	-8.80261	0	
0.0900	47.4966	-8.17386	0	
0.0907	46.8782	-8.50478	0	
0.0913	40.4884	-7.87602	0	
0.0920	31.3307	-5.7581	0	
0.0927	23.9986	-3.90492	0	
0.0933	17.6088	0.0661851	0	
0.0940	12.1023	4.03729	0	
0.0947	9.03995	2.81287	0	
0.0953	5.38864	0.959683	0	
0.0960	0.824491	1.88627	0	
0.0967	-0.412245	0.959683	0	
0.0973	-5.88922	0.0661851	0	
0.0980	-23.6158	2.81287	0	
0.0987	-42.5202	5.55955	0	
0.0993	-50.7651	7.37963	0	
0.1000	-53.2091	8.60406	0	
0.1007	-52.2963	8.30623	0	
0.1013	-45.5826	5.85738	0	
0.1020	-37.6321	3.70636	0	
0.1027	-30.3295	2.81287	0	
0.1033	-19.6406	1.29061	0	
0.1040	-10.7773	1.29061	0	
0.1047	-8.03879	4.63295	0	
0.1053	-3.7691	5.85738	0	
0.1060	1.73732	0.364018	0	
0.1067	3.23907	-3.60709	0	
0.1073	8.74549	-2.6805	0	
0.1080	22.4674	-2.6805	0	
0.1087	36.5132	-4.83151	0	
0.1093	45.3764	-6.6516	0	
0.1100	49.3222	-8.80261	0	
0.1107	46.5837	-8.17386	0	
0.1113	39.5756	-5.12934	0	
0.1120	32.2435	-3.60709	0	
0.1127	24.3225	-2.6805	0	
0.1133	15.7537	-0.860406	0	
0.1140	10.5712	-1.45607	0	
0.1147	7.83266	0.0661851	0	
0.1153	4.47581	4.03729	0	
0.1160	0.500584	2.18411	0	
0.1167	-4.97639	-0.562573	0	
0.1173	-14.7525	3.70636	0	
0.1180	-28.1799	7.67747	0	
0.1187	-42.8441	9.19972	0	
0.1193	-53.8275	10.1263	0	
0.1200	-57.4788	7.0818	0	
0.1207	-55.9476	4.03729	0	
0.1213	-50.4706	7.37963	0	
0.1220	-40.6945	7.9753	0	
0.1227	-30.6239	3.70636	0	
0.1233	-23.2919	2.48194	0	
0.1240	-16.2837	0.959683	0	
0.1247	-8.95162	-1.15824	0	
0.1253	-1.94344	0.959683	0	
0.1260	2.94461	0.959683	0	
0.1267	4.77027	-3.60709	0	
0.1273	10.2767	-4.53368	0	
0.1280	28.2683	-5.42718	0	
0.1287	46.8782	-10.027	0	
0.1293	53.2974	-8.80261	0	
0.1300	55.447	-3.90492	0	
0.1307	55.7415	-3.90492	0	
0.1313	48.7333	-4.83151	0	
0.1320	40.4884	-3.60709	0	
0.1327	33.1563	-3.01142	0	
0.1333	23.9986	-2.38266	0	
0.1340	17.6088	-1.45607	0	
0.1347	15.1647	-2.6805	0	
0.1353	7.5382	-1.787	0	
0.1360	0.206123	1.88627	0	
0.1367	-1.94344	3.70636	0	
0.1373	-9.56998	2.81287	0	
0.1380	-26.6487	4.33512	0	
0.1387	-41.3129	7.9753	0	
0.1393	-47.1138	11.3507	0	
0.1400	-48.3211	11.9464	0	
0.1407	-47.1138	10.4241	0	
0.1413	-42.2257	9.49756	0	
0.1420	-35.1881	7.37963	0	
0.1427	-27.5616	2.81287	0	
0.1433	-19.935	-0.26474	0	
0.1440	-13.2213	0.959683	0	
0.1447	-8.65715	2.48194	0	
0.1453	-3.47464	1.58844	0	
0.1460	2.03178	0.661851	0	
0.1467	5.38864	1.29061	0	
0.1473	12.7207	-0.562573	0	
0.1480	27.6793	-3.60709	0	
0.1487	42.9324	-3.01142	0	
0.1493	50.8534	-3.30925	0	
0.1500	52.3846	-6.35377	0	
0.1507	49.6461	-6.35377	0	
0.1513	45.0525	-3.60709	0	
0.1520	40.1645	-3.90492	0	
0.1527	33.1563	-4.53368	0	
0.1533	23.0857	-2.38266	0	
0.1540	13.928	-1.15824	0	
0.1547	8.45103	-0.26474	0	
0.1553	4.47581	1.58844	0	
0.1560	-1.94344	1.88627	0	
0.1567	-8.03879	3.40853	0	
0.1573	-14.458	7.37963	0	
0.1580	-28.4744	8.30623	0	
0.1587	-47.1138	9.19972	0	
0.1593	-56.8604	12.5752	0	
0.1600	-58.0972	11.3507	0	
0.1607	-56.566	7.37963	0	
0.1613	-50.4706	6.15521	0	
0.1620	-40.0761	5.55955	0	
0.1627	-30.0056	3.40853	0	
0.1633	-20.8478	2.18411	0	
0.1640	-12.9268	-0.860406	0	
0.1647	-8.65715	-3.60709	0	
0.1653	-4.68193	-3.60709	0	
0.1660	0.824491	-0.860406	0	
0.1667	4.77027	-1.787	0	
0.1673	12.1023	-3.60709	0	
0.1680	27.061	-6.05593	0	
0.1687	42.314	-9.39828	0	
0.1693	50.8534	-13.3694	0	
0.1700	54.5342	-13.6672	0	
0.1707	51.7662	-10.027	0	
0.1713	42.9324	-8.17386	0	
0.1720	35.3059	-8.50478	0	
0.1727	30.4178	-7.87602	0	
0.1733	23.9986	-5.7581	0	
0.1740	17.2849	-4.20275	0	
0.1747	13.6335	-1.787	0	
0.1753	8.74549	-0.26474	0	
0.1760	2.65015	0.0661851	0	
0.1767	-0.706706	1.88627	0	
0.1773	-6.21313	4.63295	0	
0.1780	-22.0846	5.55955	0	
0.1787	-39.4872	7.37963	0	
0.1793	-45.877	9.49756	0	
0.1800	-46.2009	9.19972	0	
0.1807	-45.5826	7.67747	0	
0.1813	-39.4872	7.9753	0	
0.1820	-30.9184	6.75088	0	
0.1827	-25.7359	3.70636	0	
0.1833	-19.6406	3.40853	0	
0.1840	-10.7773	4.63295	0	
0.1847	-7.12596	3.1107	0	
0.1853	-3.7691	-0.860406	0	
0.1860	1.73732	-1.787	0	
0.1867	2.94461	0.661851	0	
0.1873	7.5382	0.959683	0	
0.1880	24.9114	-2.6805	0	
0.1887	42.314	-5.7581	0	
0.1893	46.8782	-6.94943	0	
0.1900	45.6709	-8.17386	0	
0.1907	45.0525	-10.027	0	
0.1913	40.1645	-10.027	0	
0.1920	31.949	-6.35377	0	
0.1927	25.2353	-2.08483	0	
0.1933	18.8161	-1.787	0	
0.1940	10.8951	-2.6805	0	
0.1947	4.18135	-2.38266	0	
0.1953	-1.32507	-0.26474	0	
0.1960	-6.50759	0.661851	0	
0.1967	-9.24608	0.959683	0	
0.1973	-14.458	2.48194	0	
0.1980	-28.1799	5.22862	0	
0.1987	-42.2257	7.0818	0	
0.1993	-49.2339	7.37963	0	
0.2000	-51.3834	8.30623	0	
0.2007	-49.2339	8.30623	0	
0.2013	-42.5202	5.22862	0	
0.2020	-36.4248	2.48194	0	
0.2027	-31.5368	3.40853	0	
0.2033	-23.9102	4.33512	0	
0.2040	-15.047	2.81287	0	
0.2047	-7.12596	0.364018	0	
0.2053	-2.2379	-1.787	0	
0.2060	-0.117784	-2.6805	0	
0.2067	2.94461	-1.787	0	
0.2073	11.8079	-1.787	0	
0.2080	26.1481	-5.7581	0	
0.2087	42.314	-10.027	0	
0.2093	50.2351	-10.9205	0	
0.2100	48.7333	-10.3249	0	
0.2107	45.0525	-10.6227	0	
0.2113	41.1068	-10.027	0	
0.2120	34.0691	-8.17386	0	
0.2127	27.061	-4.53368	0	
0.2133	20.0233	-2.38266	0	
0.2140	12.3968	-2.6805	0	
0.2147	6.91983	-3.30925	0	
0.2153	2.94461	-1.15824	0	
0.2160	-1.61954	-0.26474	0	
0.2167	-5.3003	-0.860406	0	
0.2173	-13.2213	1.88627	0	
0.2180	-27.5616	4.93079	0	
0.2187	-41.3129	4.33512	0	
0.2193	-50.1467	3.70636	0	
0.2200	-52.9146	5.55955	0	
0.2207	-47.4082	6.15521	0	
0.2213	-38.8689	6.45304	0	
0.2220	-33.9808	7.37963	0	
0.2227	-28.1799	5.85738	0	
0.2233	-18.1094	2.48194	0	
0.2240	-11.6901	-0.26474	0	
0.2247	-10.1884	-1.787	0	
0.2253	-7.12596	-2.38266	0	
0.2260	-3.47464	-2.6805	0	
0.2267	-1.03061	-3.30925	0	
0.2273	6.30147	-3.90492	0	
0.2280	20.0233	-6.6516	0	
0.2287	34.0691	-10.027	0	
0.2293	44.1397	-10.9205	0	
0.2300	46.5837	-7.87602	0	
0.2307	41.4012	-5.42718	0	
0.2313	34.393	-6.35377	0	
0.2320	29.1811	-6.05593	0	
0.2327	22.1729	-3.60709	0	
0.2333	14.8408	-1.787	0	
0.2340	11.1895	-1.787	0	
0.2347	9.36386	-1.787	0	
0.2353	2.65015	-0.562573	0	
0.2360	-5.59476	2.48194	0	
0.2367	-8.03879	4.93079	0	
0.2373	-10.4828	4.93079	0	
0.2380	-22.9974	5.85738	0	
0.2387	-40.0761	11.0529	0	
0.2393	-50.4706	14.3953	0	
0.2400	-50.7651	12.873	0	
0.2407	-46.2009	11.3507	0	
0.2413	-40.989	10.4241	0	
0.2420	-34.2753	7.37963	0	
0.2427	-23.9102	4.93079	0	
0.2433	-13.5452	4.33512	0	
0.2440	-7.12596	4.33512	0	
0.2447	-1.32507	4.33512	0	
0.2453	4.77027	2.48194	0	
0.2460	6.59593	0.0661851	0	
0.2467	7.83266	0.0661851	0	
0.2473	16.9904	-1.787	0	
0.2480	32.5379	-6.35377	0	
0.2487	45.3764	-9.39828	0	
0.2493	50.8534	-10.6227	0	
0.2500	51.4718	-10.9205	0	
0.2507	49.0278	-8.50478	0	
0.2513	44.4636	-7.28036	0	
0.2520	36.8076	-9.10045	0	
0.2527	26.4426	-7.87602	0	
0.2533	16.6665	-3.60709	0	
0.2540	10.5712	-2.08483	0	
0.2547	6.59593	-3.30925	0	
0.2553	1.11895	-1.787	0	
0.2560	-2.53236	0.364018	0	
0.2567	-3.47464	0.959683	0	
0.2573	-12.014	3.1107	0	
0.2580	-32.7735	6.45304	0	
0.2587	-48.3211	7.9753	0	
0.2593	-51.0595	8.60406	0	
0.2600	-50.4706	9.19972	0	
0.2607	-51.0595	8.90189	0	
0.2613	-46.4954	7.37963	0	
0.2620	-39.1633	4.93079	0	
0.2627	-31.2423	2.48194	0	
0.2633	-21.4662	1.88627	0	
0.2640	-14.458	2.81287	0	
0.2647	-10.7773	0.364018	0	
0.2653	-4.68193	-3.60709	0	
0.2660	2.03178	-3.30925	0	
0.2667	4.47581	-1.787	0	
0.2673	10.8951	-3.60709	0	
0.2680	26.4426	-5.7581	0	
0.2687	42.0196	-9.10045	0	
0.2693	49.6461	-11.2515	0	
0.2700	51.1773	-10.3249	0	
0.2707	47.8205	-9.69611	0	
0.2713	38.9572	-9.10045	0	
0.2720	31.3307	-5.12934	0	
0.2727	26.4426	-1.787	0	
0.2733	17.9032	-2.6805	0	
0.2740	7.2143	-1.45607	0	
0.2747	2.94461	3.40853	0	
0.2753	2.03178	5.55955	0	
0.2760	-1.94344	6.45304	0	
0.2767	-6.21313	7.37963	0	
0.2773	-13.2213	5.55955	0	
0.2780	-28.1799	5.22862	0	
0.2787	-42.2257	8.30623	0	
0.2793	-46.2009	8.90189	0	
0.2800	-46.4954	6.75088	0	
0.2807	-48.3211	6.15521	0	
0.2813	-43.1385	5.85738	0	
0.2820	-31.2423	5.55955	0	
0.2827	-23.6158	5.22862	0	
0.2833	-20.8478	2.18411	0	
0.2840	-16.5782	0.0661851	0	
0.2847	-9.56998	0.364018	0	
0.2853	-3.15073	-0.562573	0	
0.2860	1.73732	-0.860406	0	
0.2867	5.6831	0.364018	0	
0.2873	13.0152	-2.08483	0	
0.2880	27.6793	-6.35377	0	
0.2887	43.2269	-6.05593	0	
0.2893	49.3222	-5.42718	0	
0.2900	48.7333	-8.50478	0	
0.2907	47.2021	-10.9205	0	
0.2913	40.7829	-8.80261	0	
0.2920	31.3307	-4.83151	0	
0.2927	25.2353	-4.53368	0	
0.2933	19.7289	-5.42718	0	
0.2940	11.8079	-3.60709	0	
0.2947	7.83266	-1.787	0	
0.2953	4.77027	0.0661851	0	
0.2960	-0.706706	3.40853	0	
0.2967	-4.38747	4.63295	0	
0.2973	-12.3085	2.81287	0	
0.2980	-30.0056	2.81287	0	
0.2987	-44.9642	7.9753	0	
0.2993	-49.2339	12.2442	0	
0.3000	-50.1467	11.9464	0	
0.3007	-47.7027	8.60406	0	
0.3013	-39.4872	6.75088	0	
0.3020	-31.8312	6.45304	0	
0.3027	-26.0598	4.63295	0	
0.3033	-19.0222	1.88627	0	
0.3040	-12.9268	1.29061	0	
0.3047	-7.12596	1.58844	0	
0.3053	0.824491	0.959683	0	
0.3060	4.18135	-0.860406	0	
0.3067	7.2143	-2.6805	0	
0.3073	16.9904	-3.01142	0	
0.3080	29.505	-4.53368	0	
0.3087	38.9572	-7.57819	0	
0.3093	47.4966	-7.28036	0	
0.3100	49.9406	-6.05593	0	
0.3107	43.2269	-5.42718	0	
0.3113	34.982	-3.01142	0	
0.3120	29.7995	-0.860406	0	
0.3127	22.4674	-0.562573	0	
0.3133	13.928	-0.860406	0	
0.3140	9.03995	-1.787	0	
0.3147	5.6831	-0.562573	0	
0.3153	1.11895	2.81287	0	
0.3160	-1.61954	0.0661851	0	
0.3167	-4.06356	-4.83151	0	
0.3173	-12.6029	-2.08483	0	
0.3180	-27.8855	3.1107	0	
0.3187	-40.4001	2.81287	0	
0.3193	-45.2587	4.93079	0	
0.3200	-46.2009	8.60406	0	
0.3207	-45.5826	5.85738	0	
0.3213	-40.6945	3.70636	0	
0.3220	-31.5368	4.63295	0	
0.3227	-22.379	1.88627	0	
0.3233	-14.7525	0.0661851	0	
0.3240	-8.95162	2.48194	0	
0.3247	-4.97639	2.18411	0	
0.3253	-1.61954	-0.860406	0	
0.3260	2.32624	-3.60709	0	
0.3267	5.38864	-5.42718	0	
0.3273	11.484	-6.05593	0	
0.3280	25.8242	-6.05593	0	
0.3287	41.4012	-9.10045	0	
0.3293	47.4966	-10.6227	0	
0.3300	46.8782	-7.28036	0	
0.3307	45.9654	-4.53368	0	
0.3313	40.7829	-6.35377	0	
0.3320	33.7747	-6.6516	0	
0.3327	27.6793	-3.90492	0	
0.3333	19.7289	-2.6805	0	
0.3340	11.1895	-3.60709	0	
0.3347	7.5382	-2.6805	0	
0.3353	4.18135	1.29061	0	
0.3360	-0.706706	1.58844	0	
0.3367	-5.3003	0.0661851	0	
0.3373	-13.5452	1.58844	0	
0.3380	-30.6239	4.03729	0	
0.3387	-45.877	5.85738	0	
0.3393	-51.3834	6.75088	0	
0.3400	-50.4706	5.55955	0	
0.3407	-46.4954	5.85738	0	
0.3413	-40.4001	7.37963	0	
0.3420	-34.2753	4.93079	0	
0.3427	-27.2671	1.58844	0	
0.3433	-18.4038	0.0661851	0	
0.3440	-12.6029	-1.45607	0	
0.3447	-9.86444	-2.08483	0	
0.3453	-4.38747	-1.787	0	
0.3460	1.41341	-5.12934	0	
0.3467	2.94461	-8.17386	0	
0.3473	10.5712	-6.35377	0	
0.3480	28.5922	-6.6516	0	
0.3487	42.314	-10.3249	0	
0.3493	46.2893	-11.5493	0	
0.3500	49.3222	-12.145	0	
0.3507	47.4966	-12.145	0	
0.3513	37.426	-9.10045	0	
0.3520	28.2683	-6.35377	0	
0.3527	20.6417	-7.28036	0	
0.3533	12.7207	-5.12934	0	
0.3540	9.95278	-0.562573	0	
0.3547	8.45103	0.0661851	0	
0.3553	1.11895	-1.15824	0	
0.3560	-4.38747	0.0661851	0	
0.3567	-7.12596	2.81287	0	
0.3573	-16.9021	4.63295	0	
0.3580	-31.2423	6.75088	0	
0.3587	-45.5826	8.30623	0	
0.3593	-56.566	7.67747	0	
0.3600	-56.2715	8.60406	0	
0.3607	-48.0266	10.722	0	
0.3613	-41.9018	9.19972	0	
0.3620	-35.1881	7.0818	0	
0.3627	-26.3543	7.37963	0	
0.3633	-19.935	7.0818	0	
0.3640	-14.1341	3.40853	0	
0.3647	-6.8315	1.58844	0	
0.3653	-2.2379	2.18411	0	
0.3660	0.824491	0.959683	0	
0.3667	4.77027	-1.15824	0	
0.3673	13.0152	-2.38266	0	
0.3680	29.1811	-2.6805	0	
0.3687	46.2893	-5.42718	0	
0.3693	52.6791	-8.50478	0	
0.3700	51.1773	-9.10045	0	
0.3707	49.9406	-6.35377	0	
0.3713	45.0525	-4.83151	0	
0.3720	34.982	-6.94943	0	
0.3727	26.7371	-7.28036	0	
0.3733	20.6417	-2.6805	0	
0.3740	12.1023	0.364018	0	
0.3747	3.85744	-1.787	0	
0.3753	-0.412245	-1.15824	0	
0.3760	-4.38747	1.88627	0	
0.3767	-7.42042	2.18411	0	
0.3773	-12.3085	2.81287	0	
0.3780	-26.6487	3.1107	0	
0.3787	-43.1385	0.959683	0	
0.3793	-48.0266	4.03729	0	
0.3800	-46.2009	10.1263	0	
0.3807	-45.5826	8.90189	0	
0.3813	-40.989	5.55955	0	
0.3820	-33.068	7.37963	0	
0.3827	-26.3543	5.85738	0	
0.3833	-18.1094	2.48194	0	
0.3840	-10.4828	3.1107	0	
0.3847	-5.3003	3.40853	0	
0.3853	0.206123	0.959683	0	
0.3860	3.56298	-0.26474	0	
0.3867	4.18135	-1.45607	0	
0.3873	13.0152	-4.53368	0	
0.3880	31.3307	-7.57819	0	
0.3887	45.6709	-9.10045	0	
0.3893	50.559	-10.9205	0	
0.3900	51.4718	-9.10045	0	
0.3907	48.7333	-4.53368	0	
0.3913	43.2269	-4.53368	0	
0.3920	36.2187	-6.6516	0	
0.3927	26.7371	-3.60709	0	
0.3933	18.5216	1.58844	0	
0.3940	15.7537	2.48194	0	
0.3947	13.928	0.959683	0	
0.3953	6.91983	1.88627	0	
0.3960	0.824491	3.40853	0	
0.3967	-1.32507	2.81287	0	
0.3973	-8.03879	3.70636	0	
0.3980	-25.1175	6.45304	0	
0.3987	-40.0761	7.0818	0	
0.3993	-45.5826	3.1107	0	
0.4000	-47.4082	2.18411	0	
0.4007	-47.4082	5.85738	0	
0.4013	-42.8441	6.75088	0	
0.4020	-36.4248	4.63295	0	
0.4027	-29.4167	2.81287	0	
0.4033	-19.6406	0.661851	0	
0.4040	-11.3956	-0.26474	0	
0.4047	-8.03879	1.88627	0	
0.4053	-2.85627	1.58844	0	
0.4060	2.94461	-2.6805	0	
0.4067	5.6831	-4.53368	0	
0.4073	13.0152	-3.60709	0	
0.4080	28.2683	-5.42718	0	
0.4087	41.6957	-9.10045	0	
0.4093	49.3222	-8.80261	0	
0.4100	50.559	-9.10045	0	
0.4107	45.0525	-11.8471	0	
0.4113	37.426	-10.9205	0	
0.4120	30.4178	-5.7581	0	
0.4127	22.7913	-3.60709	0	
0.4133	16.0776	-3.60709	0	
0.4140	11.1895	-3.01142	0	
0.4147	3.56298	-2.38266	0	
0.4153	-4.38747	-0.860406	0	
0.4160	-6.8315	1.88627	0	
0.4167	-7.12596	2.48194	0	
0.4173	-15.3709	2.48194	0	
0.4180	-31.8312	5.55955	0	
0.4187	-46.7899	6.45304	0	
0.4193	-52.9146	6.15521	0	
0.4200	-51.9724	8.30623	0	
0.4207	-47.4082	7.37963	0	
0.4213	-40.4001	2.81287	0	
0.4220	-32.1551	3.1107	0	
0.4227	-24.8231	4.63295	0	
0.4233	-17.8149	-0.860406	0	
0.4240	-10.4828	-3.30925	0	
0.4247	-5.59476	0.959683	0	
0.4253	-1.94344	0.0661851	0	
0.4260	4.18135	-3.90492	0	
0.4267	10.8951	-3.60709	0	
0.4273	16.9904	-5.12934	0	
0.4280	29.505	-8.17386	0	
0.4287	45.3764	-5.7581	0	
0.4293	52.3846	-4.20275	0	
0.4300	51.4718	-9.39828	0	
0.4307	48.7333	-10.3249	0	
0.4313	42.314	-3.90492	0	
0.4320	33.1563	-1.45607	0	
0.4327	27.061	-2.6805	0	
0.4333	20.3473	-2.6805	0	
0.4340	13.6335	-1.15824	0	
0.4347	9.95278	1.29061	0	
0.4353	5.38864	3.70636	0	
0.4360	0.206123	3.70636	0	
0.4367	-3.47464	3.40853	0	
0.4373	-11.1012	3.70636	0	
0.4380	-26.6487	3.1107	0	
0.4387	-40.6945	3.1107	0	
0.4393	-47.4082	4.63295	0	
0.4400	-49.2339	3.1107	0	
0.4407	-47.4082	1.88627	0	
0.4413	-41.3129	3.70636	0	
0.4420	-33.068	3.40853	0	
0.4427	-25.1175	1.29061	0	
0.4433	-17.491	2.18411	0	
0.4440	-11.6901	1.88627	0	
0.4447	-8.65715	-0.26474	0	
0.4453	-5.59476	0.959683	0	
0.4460	-1.61954	0.959683	0	
0.4467	2.03178	-1.15824	0	
0.4473	11.1895	-2.08483	0	
0.4480	29.505	-6.35377	0	
0.4487	44.1397	-11.5493	0	
0.4493	49.6461	-10.027	0	
0.4500	52.0902	-8.17386	0	
0.4507	48.4094	-9.10045	0	
0.4513	38.6627	-7.28036	0	
0.4520	31.6251	-5.42718	0	
0.4527	24.3225	-5.7581	0	
0.4533	13.928	-3.60709	0	
0.4540	11.484	-2.6805	0	
0.4547	11.8079	-4.20275	0	
0.4553	2.65015	-2.6805	0	
0.4560	-5.3003	-0.562573	0	
0.4567	-7.12596	-0.860406	0	
0.4573	-17.491	2.18411	0	
0.4580	-34.8936	7.67747	0	
0.4587	-44.9642	7.37963	0	
0.4593	-48.3211	7.67747	0	
0.4600	-48.9394	11.0529	0	
0.4607	-44.0514	9.49756	0	
0.4613	-36.4248	5.55955	0	
0.4620	-30.3295	5.55955	0	
0.4627	-24.5286	4.63295	0	
0.4633	-17.1965	2.81287	0	
0.4640	-10.1884	3.1107	0	
0.4647	-4.68193	1.58844	0	
0.4653	1.11895	-1.787	0	
0.4660	6.30147	0.0661851	0	
0.4667	9.36386	1.58844	0	
0.4673	16.372	-3.60709	0	
0.4680	32.2435	-7.57819	0	
0.4687	46.2893	-7.28036	0	
0.4693	50.559	-6.94943	0	
0.4700	48.7333	-6.35377	0	
0.4707	44.1397	-4.83151	0	
0.4713	35.8948	-3.60709	0	
0.4720	27.9738	-1.787	0	
0.4727	21.5545	-2.08483	0	
0.4733	13.3096	-4.53368	0	
0.4740	4.47581	-2.08483	0	
0.4747	-1.32507	2.48194	0	
0.4753	-3.7691	1.88627	0	
0.4760	-4.38747	-1.15824	0	
0.4767	-6.21313	-1.15824	0	
0.4773	-15.9892	0.661851	0	
0.4780	-31.8312	4.63295	0	
0.4787	-44.6697	8.90189	0	
0.4793	-50.4706	9.19972	0	
0.4800	-50.4706	7.37963	0	
0.4807	-44.6697	7.37963	0	
0.4813	-37.3377	8.30623	0	
0.4820	-30.6239	6.75088	0	
0.4827	-23.9102	3.40853	0	
0.4833	-18.1094	3.40853	0	
0.4840	-12.6029	3.70636	0	
0.4847	-6.50759	0.661851	0	
0.4853	-1.03061	-0.562573	0	
0.4860	2.03178	3.40853	0	
0.4867	3.85744	4.03729	0	
0.4873	12.3968	0.0661851	0	
0.4880	29.7995	-3.30925	0	
0.4887	46.2893	-5.42718	0	
0.4893	52.0902	-7.28036	0	
0.4900	52.3846	-6.94943	0	
0.4907	52.0902	-7.28036	0	
0.4913	45.6709	-8.17386	0	
0.4920	34.393	-6.94943	0	
0.4927	25.8242	-6.05593	0	
0.4933	17.2849	-6.6516	0	
0.4940	9.36386	-4.53368	0	
0.4947	6.007	-1.15824	0	
0.4953	1.41341	-1.45607	0	
0.4960	-5.3003	-2.08483	0	
0.4967	-6.8315	0.364018	0	
0.4973	-11.3956	3.70636	0	
0.4980	-27.2671	6.15521	0	
0.4987	-42.5202	7.0818	0	
0.4993	-46.7899	7.0818	0	
0.5000	-47.1138	8.60406	0	
0.5007	-44.6697	10.1263	0	
0.5013	-35.8065	8.90189	0	
0.5020	-26.3543	7.37963	0	
0.5027	-20.5534	7.37963	0	
0.5033	-15.3709	5.85738	0	
0.5040	-8.95162	3.70636	0	
0.5047	-2.53236	2.81287	0	
0.5053	1.41341	2.48194	0	
0.5060	3.23907	0.661851	0	
0.5067	5.38864	-1.45607	0	
0.5073	13.3096	-2.6805	0	
0.5080	29.7995	-4.53368	0	
0.5087	46.2893	-8.17386	0	
0.5093	53.003	-10.027	0	
0.5100	51.1773	-10.3249	0	
0.5107	47.4966	-11.5493	0	
0.5113	42.0196	-11.8471	0	
0.5120	34.0691	-8.17386	0	
0.5127	26.1481	-4.53368	0	
0.5133	18.8161	-4.20275	0	
0.5140	13.3096	-3.60709	0	
0.5147	9.65832	-1.787	0	
0.5153	5.38864	-0.562573	0	
0.5160	-1.32507	-0.860406	0	
0.5167	-7.74433	-0.26474	0	
0.5173	-17.8149	2.81287	0	
0.5180	-34.5992	7.37963	0	
0.5187	-47.1138	10.1263	0	
0.5193	-48.3211	9.82848	0	
0.5200	-47.4082	8.60406	0	
0.5207	-47.7027	9.19972	0	
0.5213	-42.8441	7.67747	0	
0.5220	-33.6863	3.1107	0	
0.5227	-24.5286	0.364018	0	
0.5233	-16.2837	1.58844	0	
0.5240	-12.6029	2.81287	0	
0.5247	-9.56998	2.81287	0	
0.5253	-0.706706	0.0661851	0	
0.5260	4.18135	-3.90492	0	
0.5267	3.85744	-4.83151	0	
0.5273	13.0152	-3.60709	0	
0.5280	30.0939	-6.05593	0	
0.5287	40.1645	-8.80261	0	
0.5293	46.5837	-7.57819	0	
0.5300	51.4718	-7.28036	0	
0.5307	47.4966	-9.10045	0	
0.5313	40.1645	-10.027	0	
0.5320	35.3059	-9.39828	0	
0.5327	28.5922	-7.28036	0	
0.5333	19.4344	-4.53368	0	
0.5340	12.1023	-3.60709	0	
0.5347	6.59593	-3.01142	0	
0.5353	2.32624	-0.860406	0	
0.5360	-0.706706	-0.860406	0	
0.5367	-5.3003	0.959683	0	
0.5373	-15.9892	5.85738	0	
0.5380	-31.2423	6.45304	0	
0.5387	-43.7569	4.93079	0	
0.5393	-49.8523	7.67747	0	
0.5400	-51.0595	9.82848	0	
0.5407	-47.7027	6.45304	0	
0.5413	-40.0761	5.55955	0	
0.5420	-32.1551	6.45304	0	
0.5427	-23.9102	3.1107	0	
0.5433	-15.047	0.0661851	0	
0.5440	-8.95162	1.29061	0	
0.5447	-2.85627	3.1107	0	
0.5453	4.77027	3.70636	0	
0.5460	9.65832	2.81287	0	
0.5467	11.1895	0.0661851	0	
0.5473	20.0233	-2.38266	0	
0.5480	35.8948	-3.60709	0	
0.5487	49.3222	-7.87602	0	
0.5493	55.447	-10.027	0	
0.5500	56.9488	-6.94943	0	
0.5507	54.2103	-5.7581	0	
0.5513	46.8782	-7.28036	0	
0.5520	37.7499	-6.05593	0	
0.5527	29.1811	-3.60709	0	
0.5533	22.1729	-2.08483	0	
0.5540	16.372	-0.26474	0	
0.5547	10.2767	0.661851	0	
0.5553	4.77027	0.959683	0	
0.5560	1.11895	2.18411	0	
0.5567	-3.15073	3.70636	0	
0.5573	-12.3085	5.22862	0	
0.5580	-28.4744	8.30623	0	
0.5587	-43.7569	10.4241	0	
0.5593	-50.1467	9.49756	0	
0.5600	-51.3834	10.4241	0	
0.5607	-47.7027	11.0529	0	
0.5613	-36.4248	6.15521	0	
0.5620	-26.9726	2.18411	0	
0.5627	-24.5286	3.70636	0	
0.5633	-20.2589	4.93079	0	
0.5640	-12.3085	3.70636	0	
0.5647	-6.8315	2.18411	0	
0.5653	-2.2379	-1.15824	0	
0.5660	1.11895	-3.90492	0	
0.5667	3.85744	-3.60709	0	
0.5673	14.8408	-4.20275	0	
0.5680	31.6251	-8.17386	0	
0.5687	42.0196	-9.69611	0	
0.5693	46.8782	-9.39828	0	
0.5700	50.2351	-10.027	0	
0.5707	46.8782	-8.50478	0	
0.5713	38.9572	-6.35377	0	
0.5720	31.949	-6.6516	0	
0.5727	23.9986	-5.12934	0	
0.5733	14.8408	-2.08483	0	
0.5740	8.45103	-3.01142	0	
0.5747	4.18135	-4.53368	0	
0.5753	-0.706706	-1.45607	0	
0.5760	-4.38747	1.88627	0	
0.5767	-5.88922	1.88627	0	
0.5773	-14.7525	2.48194	0	
0.5780	-32.4496	5.85738	0	
0.5787	-47.4082	7.0818	0	
0.5793	-51.9724	5.85738	0	
0.5800	-51.3834	6.75088	0	
0.5807	-48.3211	8.90189	0	
0.5813	-41.3129	7.9753	0	
0.5820	-33.3624	5.55955	0	
0.5827	-26.3543	4.33512	0	
0.5833	-18.7277	3.70636	0	
0.5840	-10.7773	1.88627	0	
0.5847	-4.97639	-1.45607	0	
0.5853	-1.61954	-3.60709	0	
0.5860	0.206123	-3.30925	0	
0.5867	4.18135	-2.6805	0	
0.5873	15.7537	-4.53368	0	
0.5880	30.7123	-7.57819	0	
0.5887	43.8452	-8.80261	0	
0.5893	50.559	-8.17386	0	
0.5900	50.559	-7.87602	0	
0.5907	46.8782	-6.35377	0	
0.5913	40.4884	-3.60709	0	
0.5920	31.3307	-4.20275	0	
0.5927	23.0857	-5.7581	0	
0.5933	18.5216	-3.60709	0	
0.5940	13.0152	-1.45607	0	
0.5947	5.38864	-2.38266	0	
0.5953	0.206123	-2.08483	0	
0.5960	-1.61954	-0.860406	0	
0.5967	-5.59476	-1.787	0	
0.5973	-16.5782	-1.787	0	
0.5980	-32.4496	0.959683	0	
0.5987	-44.6697	4.63295	0	
0.5993	-49.2339	7.37963	0	
0.6000	-49.2339	8.30623	0	
0.6007	-45.877	6.45304	0	
0.6013	-39.1633	2.81287	0	
0.6020	-30.0056	0.959683	0	
0.6027	-20.5534	1.29061	0	
0.6033	-13.5452	2.48194	0	
0.6040	-8.03879	1.88627	0	
0.6047	-1.32507	0.959683	0	
0.6053	3.85744	0.0661851	0	
0.6060	4.77027	-0.860406	0	
0.6067	7.5382	-1.15824	0	
0.6073	18.8161	-2.38266	0	
0.6080	35.8948	-6.35377	0	
0.6087	49.6461	-9.69611	0	
0.6093	55.7415	-10.027	0	
0.6100	54.5342	-10.027	0	
0.6107	48.7333	-9.10045	0	
0.6113	42.314	-6.05593	0	
0.6120	35.8948	-5.42718	0	
0.6127	28.5922	-5.7581	0	
0.6133	20.6417	-3.90492	0	
0.6140	13.928	-1.45607	0	
0.6147	8.45103	1.58844	0	
0.6153	3.23907	2.81287	0	
0.6160	-0.706706	0.959683	0	
0.6167	-6.50759	0.0661851	0	
0.6173	-18.1094	3.70636	0	
0.6180	-32.7735	7.9753	0	
0.6187	-43.7569	11.6486	0	
0.6193	-48.9394	12.873	0	
0.6200	-49.8523	10.1263	0	
0.6207	-46.4954	9.49756	0	
0.6213	-39.1633	11.9464	0	
0.6220	-31.8312	10.1263	0	
0.6227	-26.3543	4.03729	0	
0.6233	-20.8478	0.959683	0	
0.6240	-14.458	0.0661851	0	
0.6247	-7.42042	0.0661851	0	
0.6253	-2.53236	-0.860406	0	
0.6260	0.206123	-2.6805	0	
0.6267	2.32624	-2.6805	0	
0.6273	12.1023	-3.60709	0	
0.6280	31.0362	-7.28036	0	
0.6287	45.9654	-9.39828	0	
0.6293	47.8205	-9.69611	0	
0.6300	46.2893	-12.145	0	
0.6307	44.1397	-11.8471	0	
0.6313	35.3059	-7.57819	0	
0.6320	24.3225	-7.28036	0	
0.6327	17.6088	-7.87602	0	
0.6333	11.8079	-4.20275	0	
0.6340	7.83266	-1.15824	0	
0.6347	7.5382	0.0661851	0	
0.6353	3.85744	1.58844	0	
0.6360	-1.32507	0.959683	0	
0.6367	-4.38747	0.0661851	0	
0.6373	-12.6029	2.81287	0	
0.6380	-30.0056	5.22862	0	
0.6387	-44.3458	7.67747	0	
0.6393	-49.2339	11.6486	0	
0.6400	-50.4706	10.1263	0	
0.6407	-47.7027	4.93079	0	
0.6413	-40.6945	4.03729	0	
0.6420	-33.068	2.81287	0	
0.6427	-26.0598	-0.860406	0	
0.6433	-17.1965	0.959683	0	
0.6440	-9.56998	4.03729	0	
0.6447	-4.38747	0.959683	0	
0.6453	0.206123	-0.562573	0	
0.6460	3.85744	0.959683	0	
0.6467	6.007	-1.787	0	
0.6473	15.1647	-5.12934	0	
0.6480	33.4508	-4.20275	0	
0.6487	48.7333	-4.83151	0	
0.6493	52.0902	-8.50478	0	
0.6500	48.7333	-7.87602	0	
0.6507	44.1397	-5.42718	0	
0.6513	38.9572	-6.35377	0	
0.6520	31.3307	-6.94943	0	
0.6527	22.7913	-2.6805	0	
0.6533	17.6088	-0.26474	0	
0.6540	16.6665	-1.787	0	
0.6547	9.95278	-1.787	0	
0.6553	0.500584	1.29061	0	
0.6560	-0.706706	2.48194	0	
0.6567	-0.412245	2.18411	0	
0.6573	-12.014	3.1107	0	
0.6580	-30.0056	4.33512	0	
0.6587	-41.9018	5.22862	0	
0.6593	-47.4082	6.45304	0	
0.6600	-49.8523	7.0818	0	
0.6607	-45.5826	4.93079	0	
0.6613	-36.4248	1.88627	0	
0.6620	-29.7111	1.58844	0	
0.6627	-24.5286	0.959683	0	
0.6633	-17.8149	-1.787	0	
0.6640	-11.6901	-1.45607	0	
0.6647	-7.74433	1.29061	0	
0.6653	-1.61954	2.18411	0	
0.6660	2.32624	1.58844	0	
0.6667	4.47581	0.959683	0	
0.6673	16.6665	-2.6805	0	
0.6680	35.6003	-7.28036	0	
0.6687	45.9654	-9.10045	0	
0.6693	47.8205	-5.7581	0	
0.6700	47.8205	-4.53368	0	
0.6707	43.2269	-8.50478	0	
0.6713	34.0691	-10.027	0	
0.6720	27.3554	-5.42718	0	
0.6727	21.5545	-3.01142	0	
0.6733	14.2519	-3.01142	0	
0.6740	8.45103	-1.787	0	
0.6747	2.94461	-1.15824	0	
0.6753	-2.53236	0.364018	0	
0.6760	-6.21313	3.40853	0	
0.6767	-10.4828	2.18411	0	
0.6773	-21.7607	1.88627	0	
0.6780	-36.4248	8.90189	0	
0.6787	-48.0266	12.2442	0	
0.6793	-54.7403	7.37963	0	
0.6800	-55.6531	4.33512	0	
0.6807	-52.5907	4.63295	0	
0.6813	-45.877	1.88627	0	
0.6820	-35.512	-0.860406	0	
0.6827	-23.6158	-3.30925	0	
0.6833	-16.5782	-5.42718	0	
0.6840	-13.5452	-5.7581	0	
0.6847	-8.95162	-6.35377	0	
0.6853	-3.47464	-7.87602	0	
0.6860	-0.117784	-6.05593	0	
0.6867	3.85744	-3.90492	0	
0.6873	14.2519	-8.17386	0	
0.6880	31.3307	-13.3694	0	
0.6887	45.9654	-11.8471	0	
0.6893	50.8534	-9.69611	0	
0.6900	47.8205	-11.2515	0	
0.6907	42.314	-10.9205	0	
0.6913	35.8948	-8.80261	0	
0.6920	29.1811	-9.10045	0	
0.6927	23.9986	-9.10045	0	
0.6933	17.6088	-6.35377	0	
0.6940	10.2767	-3.90492	0	
0.6947	5.6831	-2.6805	0	
0.6953	1.73732	-0.26474	0	
0.6960	-2.53236	1.29061	0	
0.6967	-6.21313	2.48194	0	
0.6973	-15.6653	2.81287	0	
0.6980	-33.3624	3.40853	0	
0.6987	-47.4082	8.30623	0	
0.6993	-51.3834	12.5752	0	
0.7000	-51.0595	9.19972	0	
0.7007	-48.9394	5.55955	0	
0.7013	-43.1385	4.93079	0	
0.7020	-36.4248	4.33512	0	
0.7027	-30.0056	3.40853	0	
0.7033	-22.7029	2.81287	0	
0.7040	-17.491	-0.562573	0	
0.7047	-13.2213	-3.60709	0	
0.7053	-6.21313	-3.01142	0	
0.7060	-0.412245	-3.30925	0	
0.7067	2.65015	-6.35377	0	
0.7073	11.1895	-8.80261	0	
0.7080	29.1811	-10.027	0	
0.7087	42.314	-11.8471	0	
0.7093	44.4636	-13.6672	0	
0.7100	44.1397	-12.7737	0	
0.7107	42.0196	-10.3249	0	
0.7113	34.393	-7.57819	0	
0.7120	25.5298	-5.42718	0	
0.7127	19.4344	-4.53368	0	
0.7133	14.8408	-3.90492	0	
0.7140	8.74549	-3.30925	0	
0.7147	0.500584	-1.45607	0	
0.7153	-6.21313	0.364018	0	
0.7160	-7.12596	0.959683	0	
0.7167	-9.24608	2.81287	0	
0.7173	-22.0846	7.37963	0	
0.7180	-40.0761	11.3507	0	
0.7187	-52.5907	12.5752	0	
0.7193	-56.2715	12.873	0	
0.7200	-54.7403	11.9464	0	
0.7207	-50.1467	9.49756	0	
0.7213	-43.1385	8.30623	0	
0.7220	-34.8936	7.0818	0	
0.7227	-26.0598	3.40853	0	
0.7233	-18.1094	-0.26474	0	
0.7240	-12.6029	-0.26474	0	
0.7247	-7.42042	1.29061	0	
0.7253	-0.117784	0.364018	0	
0.7260	3.85744	-1.787	0	
0.7267	6.007	-2.38266	0	
0.7273	16.372	-0.860406	0	
0.7280	33.1563	-1.787	0	
0.7287	44.1397	-4.20275	0	
0.7293	49.0278	-5.12934	0	
0.7300	49.0278	-4.53368	0	
0.7307	42.314	-4.53368	0	
0.7313	33.4508	-4.53368	0	
0.7320	27.9738	-4.53368	0	
0.7327	20.6417	-3.30925	0	
0.7333	13.0152	0.661851	0	
0.7340	9.03995	3.40853	0	
0.7347	5.38864	1.58844	0	
0.7353	0.206123	-0.562573	0	
0.7360	-2.85627	-1.15824	0	
0.7367	-6.21313	-2.6805	0	
0.7373	-17.8149	-2.08483	0	
0.7380	-35.512	2.18411	0	
0.7387	-51.3834	5.55955	0	
0.7393	-56.566	6.45304	0	
0.7400	-52.5907	5.55955	0	
0.7407	-46.7899	2.81287	0	
0.7413	-40.989	3.1107	0	
0.7420	-33.6863	6.45304	0	
0.7427	-25.7359	6.15521	0	
0.7433	-18.4038	2.81287	0	
0.7440	-12.6029	1.88627	0	
0.7447	-8.03879	0.959683	0	
0.7453	-1.94344	-1.787	0	
0.7460	2.32624	-2.6805	0	
0.7467	6.59593	-2.38266	0	
0.7473	18.5216	-4.53368	0	
0.7480	35.8948	-8.17386	0	
0.7487	45.0525	-10.027	0	
0.7493	45.6709	-10.6227	0	
0.7500	44.7581	-10.6227	0	
0.7507	41.6957	-10.3249	0	
0.7513	35.3059	-9.10045	0	
0.7520	28.5922	-5.42718	0	
0.7527	21.5545	-2.08483	0	
0.7533	14.8408	-0.860406	0	
0.7540	9.95278	0.0661851	0	
0.7547	5.6831	2.18411	0	
0.7553	0.500584	3.1107	0	
0.7560	-1.61954	3.70636	0	
0.7567	-4.68193	6.15521	0	
0.7573	-16.9021	7.67747	0	
0.7580	-33.3624	7.37963	0	
0.7587	-43.1385	8.30623	0	
0.7593	-48.3211	9.82848	0	
0.7600	-51.0595	9.19972	0	
0.7607	-45.877	7.37963	0	
0.7613	-36.1304	4.93079	0	
0.7620	-28.4744	2.81287	0	
0.7627	-23.2919	2.18411	0	
0.7633	-18.1094	0.959683	0	
0.7640	-12.014	-0.860406	0	
0.7647	-4.68193	-0.860406	0	
0.7653	-0.117784	-1.15824	0	
0.7660	1.11895	-3.90492	0	
0.7667	6.30147	-4.53368	0	
0.7673	19.4344	-2.38266	0	
0.7680	36.2187	-3.60709	0	
0.7687	49.6461	-6.94943	0	
0.7693	53.9158	-7.87602	0	
0.7700	51.1773	-9.10045	0	
0.7707	47.4966	-9.10045	0	
0.7713	42.0196	-5.42718	0	
0.7720	33.4508	-3.60709	0	
0.7727	24.6169	-4.53368	0	
0.7733	16.9904	-2.6805	0	
0.7740	10.8951	-1.15824	0	
0.7747	3.23907	-2.38266	0	
0.7753	-4.38747	-0.860406	0	
0.7760	-6.21313	1.29061	0	
0.7767	-6.50759	2.48194	0	
0.7773	-18.7277	5.85738	0	
0.7780	-37.3377	10.1263	0	
0.7787	-47.7027	10.1263	0	
0.7793	-51.0595	9.49756	0	
0.7800	-52.2963	11.0529	0	
0.7807	-48.0266	10.1263	0	
0.7813	-39.4872	7.37963	0	
0.7820	-32.7735	6.75088	0	
0.7827	-26.3543	5.22862	0	
0.7833	-19.6406	2.48194	0	
0.7840	-15.047	2.81287	0	
0.7847	-8.95162	3.70636	0	
0.7853	-0.412245	1.88627	0	
0.7860	2.03178	-0.26474	0	
0.7867	1.73732	-0.860406	0	
0.7873	12.7207	-1.787	0	
0.7880	30.7123	-5.42718	0	
0.7887	42.6085	-7.87602	0	
0.7893	48.1149	-7.57819	0	
0.7900	47.8205	-8.17386	0	
0.7907	41.1068	-10.6227	0	
0.7913	34.393	-9.39828	0	
0.7920	27.6793	-5.42718	0	
0.7927	17.6088	-4.20275	0	
0.7933	10.2767	-5.42718	0	
0.7940	6.59593	-5.42718	0	
0.7947	0.206123	-3.30925	0	
0.7953	-4.97639	-0.562573	0	
0.7960	-5.59476	-0.562573	0	
0.7967	-10.1884	-1.787	0	
0.7973	-23.6158	0.959683	0	
0.7980	-39.4872	5.55955	0	
0.7987	-49.2339	5.85738	0	
0.7993	-50.1467	4.63295	0	
0.8000	-48.0266	6.45304	0	
0.8007	-44.6697	8.30623	0	
0.8013	-37.3377	5.22862	0	
0.8020	-28.4744	0.661851	0	
0.8027	-20.8478	-0.860406	0	
0.8033	-14.458	-0.860406	0	
0.8040	-8.33325	-1.787	0	
0.8047	-4.38747	-1.787	0	
0.8053	-1.94344	-0.562573	0	
0.8060	0.206123	-1.15824	0	
0.8067	3.85744	-4.53368	0	
0.8073	13.6335	-7.87602	0	
0.8080	26.7371	-8.17386	0	
0.8087	35.8948	-7.28036	0	
0.8093	40.4884	-8.17386	0	
0.8100	42.314	-9.10045	0	
0.8107	39.2517	-6.94943	0	
0.8113	29.7995	-3.90492	0	
0.8120	21.8785	-3.30925	0	
0.8127	17.9032	-2.6805	0	
0.8133	12.1023	-1.45607	0	
0.8140	5.09418	-1.15824	0	
0.8147	-1.61954	-1.15824	0	
0.8153	-9.86444	0.0661851	0	
0.8160	-12.6029	1.88627	0	
0.8167	-12.014	3.40853	0	
0.8173	-24.5286	5.85738	0	
0.8180	-46.7899	9.19972	0	
0.8187	-58.3916	10.1263	0	
0.8193	-57.1843	9.19972	0	
0.8200	-55.3292	9.49756	0	
0.8207	-51.3834	8.60406	0	
0.8213	-43.7569	4.93079	0	
0.8220	-36.7193	2.18411	0	
0.8227	-29.0927	2.48194	0	
0.8233	-21.4662	2.48194	0	
0.8240	-18.1094	1.58844	0	
0.8247	-12.6029	1.58844	0	
0.8253	-4.97639	0.0661851	0	
0.8260	-3.47464	-1.45607	0	
0.8267	0.206123	-1.787	0	
0.8273	14.2519	-3.60709	0	
0.8280	28.5922	-8.17386	0	
0.8287	38.9572	-10.027	0	
0.8293	47.2021	-11.5493	0	
0.8300	45.0525	-11.8471	0	
0.8307	35.3059	-9.69611	0	
0.8313	27.9738	-8.17386	0	
0.8320	22.4674	-7.87602	0	
0.8327	15.7537	-5.12934	0	
0.8333	10.8951	-3.30925	0	
0.8340	6.91983	-3.30925	0	
0.8347	1.41341	-1.787	0	
0.8353	-4.38747	-1.787	0	
0.8360	-6.50759	-2.38266	0	
0.8367	-8.95162	0.959683	0	
0.8373	-19.935	5.22862	0	
0.8380	-35.512	5.85738	0	
0.8387	-45.2587	7.0818	0	
0.8393	-50.1467	7.9753	0	
0.8400	-51.0595	6.45304	0	
0.8407	-42.8441	5.55955	0	
0.8413	-32.7735	4.93079	0	
0.8420	-29.0927	2.18411	0	
0.8427	-22.7029	0.959683	0	
0.8433	-13.5452	2.81287	0	
0.8440	-8.95162	1.88627	0	
0.8447	-5.3003	-1.787	0	
0.8453	-0.412245	-3.60709	0	
0.8460	1.41341	-3.60709	0	
0.8467	4.77027	-3.60709	0	
0.8473	15.4592	-5.42718	0	
0.8480	28.5922	-7.28036	0	
0.8487	40.1645	-7.87602	0	
0.8493	44.4636	-7.28036	0	
0.8500	40.7829	-7.28036	0	
0.8507	36.5132	-4.53368	0	
0.8513	32.5379	0.0661851	0	
0.8520	25.8242	0.364018	0	
0.8527	20.3473	-2.6805	0	
0.8533	16.372	-2.08483	0	
0.8540	8.45103	0.0661851	0	
0.8547	1.73732	0.661851	0	
0.8553	-0.412245	1.88627	0	
0.8560	-2.53236	3.40853	0	
0.8567	-8.65715	4.03729	0	
0.8573	-21.1717	4.93079	0	
0.8580	-38.2505	5.55955	0	
0.8587	-50.1467	5.55955	0	
0.8593	-52.9146	6.75088	0	
0.8600	-53.2091	8.30623	0	
0.8607	-51.0595	7.37963	0	
0.8613	-42.5202	5.55955	0	
0.8620	-31.8312	3.70636	0	
0.8627	-25.1175	2.81287	0	
0.8633	-20.2589	2.81287	0	
0.8640	-15.3709	1.88627	0	
0.8647	-10.4828	0.0661851	0	
0.8653	-5.59476	-0.562573	0	
0.8660	-2.2379	0.0661851	0	
0.8667	3.56298	-1.787	0	
0.8673	16.372	-4.83151	0	
0.8680	33.4508	-5.42718	0	
0.8687	45.6709	-4.53368	0	
0.8693	49.0278	-5.7581	0	
0.8700	47.8205	-6.6516	0	
0.8707	45.0525	-5.12934	0	
0.8713	39.2517	-5.42718	0	
0.8720	30.7123	-6.6516	0	
0.8727	22.4674	-3.60709	0	
0.8733	16.372	-0.860406	0	
0.8740	11.1895	-1.15824	0	
0.8747	6.007	0.0661851	0	
0.8753	1.41341	1.88627	0	
0.8760	-2.2379	0.959683	0	
0.8767	-7.42042	2.81287	0	
0.8773	-19.0222	5.85738	0	
0.8780	-32.7735	5.22862	0	
0.8787	-42.8441	6.45304	0	
0.8793	-46.7899	9.49756	0	
0.8800	-46.4954	7.0818	0	
0.8807	-42.5202	4.63295	0	
0.8813	-35.512	5.85738	0	
0.8820	-26.0598	5.22862	0	
0.8827	-18.1094	3.70636	0	
0.8833	-12.9268	3.70636	0	
0.8840	-8.03879	1.88627	0	
0.8847	-2.53236	0.0661851	0	
0.8853	2.03178	0.0661851	0	
0.8860	6.59593	-4.20275	0	
0.8867	12.1023	-7.28036	0	
0.8873	23.0857	-4.53368	0	
0.8880	39.87	-6.94943	0	
0.8887	51.4718	-13.6672	0	
0.8893	52.3846	-11.2515	0	
0.8900	50.8534	-6.94943	0	
0.8907	47.8205	-8.17386	0	
0.8913	38.6627	-7.28036	0	
0.8920	30.7123	-3.60709	0	
0.8927	26.7371	-2.6805	0	
0.8933	18.8161	-1.15824	0	
0.8940	12.1023	0.959683	0	
0.8947	8.12712	1.58844	0	
0.8953	1.73732	3.40853	0	
0.8960	-1.03061	2.81287	0	
0.8967	-0.117784	-1.787	0	
0.8973	-10.7773	-1.15824	0	
0.8980	-30.9184	4.93079	0	
0.8987	-42.2257	8.30623	0	
0.8993	-45.5826	8.30623	0	
0.9000	-47.7027	7.0818	0	
0.9007	-44.6697	5.55955	0	
0.9013	-35.512	4.03729	0	
0.9020	-29.0927	1.88627	0	
0.9027	-25.7359	0.959683	0	
0.9033	-19.0222	1.88627	0	
0.9040	-10.7773	0.661851	0	
0.9047	-5.59476	-0.860406	0	
0.9053	-1.94344	0.959683	0	
0.9060	2.32624	0.959683	0	
0.9067	6.59593	-2.6805	0	
0.9073	18.5216	-6.05593	0	
0.9080	36.8076	-7.57819	0	
0.9087	46.8782	-7.57819	0	
0.9093	47.2021	-7.28036	0	
0.9100	46.8782	-8.17386	0	
0.9107	43.5213	-9.10045	0	
0.9113	33.7747	-6.94943	0	
0.9120	26.7371	-3.60709	0	
0.9127	21.8785	-2.08483	0	
0.9133	12.7207	-3.01142	0	
0.9140	4.77027	-2.6805	0	
0.9147	1.73732	-0.562573	0	
0.9153	-3.47464	0.0661851	0	
0.9160	-8.03879	0.0661851	0	
0.9167	-11.1012	1.88627	0	
0.9173	-22.9974	3.40853	0	
0.9180	-40.989	3.1107	0	
0.9187	-51.3834	6.45304	0	
0.9193	-54.4164	10.1263	0	
0.9200	-55.0348	8.60406	0	
0.9207	-49.5578	6.15521	0	
0.9213	-40.0761	6.75088	0	
0.9220	-31.8312	6.15521	0	
0.9227	-23.6158	3.1107	0	
0.9233	-14.458	2.18411	0	
0.9240	-11.3956	1.58844	0	
0.9247	-8.95162	-3.01142	0	
0.9253	-1.32507	-6.05593	0	
0.9260	3.85744	-5.12934	0	
0.9267	7.83266	-5.12934	0	
0.9273	20.6417	-7.28036	0	
0.9280	37.1315	-9.69611	0	
0.9287	46.8782	-12.4428	0	
0.9293	50.2351	-12.7737	0	
0.9300	49.3222	-10.027	0	
0.9307	43.2269	-8.80261	0	
0.9313	35.8948	-9.39828	0	
0.9320	30.4178	-6.35377	0	
0.9327	23.9986	-3.60709	0	
0.9333	16.9904	-2.6805	0	
0.9340	11.1895	0.661851	0	
0.9347	6.007	4.63295	0	
0.9353	0.206123	4.63295	0	
0.9360	-5.88922	4.03729	0	
0.9367	-11.6901	4.33512	0	
0.9373	-23.6158	4.63295	0	
0.9380	-40.4001	7.0818	0	
0.9387	-50.7651	9.19972	0	
0.9393	-51.9724	8.30623	0	
0.9400	-50.7651	8.60406	0	
0.9407	-46.7899	11.9464	0	
0.9413	-40.0761	12.5752	0	
0.9420	-33.6863	9.49756	0	
0.9427	-25.4414	6.45304	0	
0.9433	-15.3709	5.55955	0	
0.9440	-9.24608	4.33512	0	
0.9447	-4.06356	1.88627	0	
0.9453	2.03178	0.959683	0	
0.9460	3.56298	0.959683	0	
0.9467	6.59593	-0.562573	0	
0.9473	20.9656	-3.30925	0	
0.9480	38.6627	-3.90492	0	
0.9487	48.7333	-5.42718	0	
0.9493	51.4718	-8.17386	0	
0.9500	48.7333	-7.87602	0	
0.9507	44.4636	-5.42718	0	
0.9513	38.6627	-4.53368	0	
0.9520	29.7995	-3.30925	0	
0.9527	23.0857	-1.45607	0	
0.9533	17.9032	-0.860406	0	
0.9540	9.36386	-0.860406	0	
0.9547	2.03178	0.0661851	0	
0.9553	-0.117784	1.58844	0	
0.9560	-2.53236	2.48194	0	
0.9567	-9.56998	0.959683	0	
0.9573	-21.7607	2.18411	0	
0.9580	-40.4001	8.90189	0	
0.9587	-53.8275	11.3507	0	
0.9593	-55.9476	7.37963	0	
0.9600	-55.9476	6.45304	0	
0.9607	-52.9146	6.15521	0	
0.9613	-41.6073	2.81287	0	
0.9620	-31.5368	1.29061	0	
0.9627	-25.4414	0.959683	0	
0.9633	-17.1965	-0.860406	0	
0.9640	-8.95162	-0.26474	0	
0.9647	-4.06356	-0.26474	0	
0.9653	0.206123	-3.30925	0	
0.9660	3.23907	-3.60709	0	
0.9667	7.83266	-3.01142	0	
0.9673	20.3473	-4.53368	0	
0.9680	37.1315	-4.53368	0	
0.9687	48.4094	-3.60709	0	
0.9693	52.6791	-6.35377	0	
0.9700	51.7662	-9.10045	0	
0.9707	45.3764	-10.027	0	
0.9713	39.2517	-8.17386	0	
0.9720	36.5132	-6.35377	0	
0.9727	30.0939	-5.42718	0	
0.9733	18.8161	-4.83151	0	
0.9740	11.8079	-3.30925	0	
0.9747	7.5382	-1.787	0	
0.9753	2.32624	-0.562573	0	
0.9760	1.11895	0.661851	0	
0.9767	-0.412245	0.959683	0	
0.9773	-15.047	2.81287	0	
0.9780	-33.9808	6.15521	0	
0.9787	-40.989	6.75088	0	
0.9793	-41.6073	7.0818	0	
0.9800	-43.7569	7.9753	0	
0.9807	-40.989	6.45304	0	
0.9813	-32.4496	3.70636	0	
0.9820	-24.5286	1.88627	0	
0.9827	-17.8149	0.959683	0	
0.9833	-9.24608	0.959683	0	
0.9840	-4.06356	1.88627	0	
0.9847	-1.61954	1.58844	0	
0.9853	4.18135	-0.26474	0	
0.9860	9.36386	-1.787	0	
0.9867	10.5712	-3.60709	0	
0.9873	20.3473	-6.94943	0	
0.9880	39.5756	-9.10045	0	
0.9887	50.8534	-6.6516	0	
0.9893	53.003	-5.42718	0	
0.9900	51.7662	-7.87602	0	
0.9907	43.8452	-6.35377	0	
0.9913	34.982	-3.60709	0	
0.9920	30.4178	-5.12934	0	
0.9927	21.5545	-4.83151	0	
0.9933	13.0152	-1.15824	0	
0.9940	10.2767	0.0661851	0	
0.9947	3.85744	0.661851	0	
0.9953	-5.3003	2.81287	0	
0.9960	-7.74433	1.29061	0	
0.9967	-11.6901	0.661851	0	
0.9973	-24.5286	4.93079	0	
0.9980	-38.8689	7.67747	0	
0.9987	-51.6779	7.9753	0	
0.9993	-57.4788	10.722	0	
1.0000	-51.3834	11.0529	0	
1.0007	-41.9018	7.37963	0	
1.0013	-34.8936	5.55955	0	
1.0020	-28.4744	6.45304	0	
1.0027	-22.0846	6.15521	0	
1.0033	-15.3709	3.1107	0	
1.0040	-8.95162	-0.860406	0	
1.0047	-5.88922	-1.15824	0	
1.0053	-1.94344	0.0661851	0	
1.0060	2.94461	-0.860406	0	
1.0067	6.91983	-2.08483	0	
1.0073	19.4344	-2.38266	0	
1.0080	37.1315	-4.83151	0	
1.0087	45.0525	-5.42718	0	
1.0093	45.3764	-4.53368	0	
1.0100	45.9654	-6.05593	0	
1.0107	40.4884	-4.53368	0	
1.0113	31.949	0.364018	0	
1.0120	25.2353	-1.45607	0	
1.0127	18.1977	-3.60709	0	
1.0133	11.484	1.29061	0	
1.0140	7.5382	1.88627	0	
1.0147	1.41341	-2.6805	0	
1.0153	-5.3003	-0.860406	0	
1.0160	-6.8315	3.70636	0	
1.0167	-12.014	5.22862	0	
1.0173	-27.2671	5.55955	0	
1.0180	-44.0514	5.55955	0	
1.0187	-54.7403	6.15521	0	
1.0193	-57.4788	8.30623	0	
1.0200	-55.3292	5.55955	0	
1.0207	-51.0595	0.0661851	0	
1.0213	-43.7569	0.661851	0	
1.0220	-32.7735	2.81287	0	
1.0227	-23.6158	0.0661851	0	
1.0233	-18.1094	-1.787	0	
1.0240	-13.5452	-0.860406	0	
1.0247	-5.88922	-2.08483	0	
1.0253	2.94461	-5.42718	0	
1.0260	7.5382	-6.05593	0	
1.0267	9.65832	-4.53368	0	
1.0273	21.5545	-6.35377	0	
1.0280	41.4012	-11.8471	0	
1.0287	50.559	-13.3694	0	
1.0293	49.3222	-10.027	0	
1.0300	49.0278	-9.10045	0	
1.0307	46.2893	-10.6227	0	
1.0313	36.8076	-7.57819	0	
1.0320	28.8866	-4.20275	0	
1.0327	21.8785	-5.42718	0	
1.0333	12.1023	-6.6516	0	
1.0340	7.2143	-3.60709	0	
1.0347	5.6831	0.0661851	0	
1.0353	-0.706706	0.959683	0	
1.0360	-6.50759	0.0661851	0	
1.0367	-8.95162	0.959683	0	
1.0373	-19.6406	5.55955	0	
1.0380	-36.4248	9.49756	0	
1.0387	-47.4082	8.30623	0	
1.0393	-50.4706	5.22862	0	
1.0400	-48.9394	4.93079	0	
1.0407	-41.9018	5.85738	0	
1.0413	-32.7735	4.03729	0	
1.0420	-24.8231	0.959683	0	
1.0427	-17.8149	0.959683	0	
1.0433	-11.3956	1.88627	0	
1.0440	-5.3003	-0.562573	0	
1.0447	0.824491	-1.787	0	
1.0453	4.47581	-1.15824	0	
1.0460	4.77027	-3.60709	0	
1.0467	9.36386	-6.35377	0	
1.0473	23.0857	-6.35377	0	
1.0480	38.3388	-8.80261	0	
1.0487	48.7333	-11.2515	0	
1.0493	52.3846	-9.39828	0	
1.0500	49.9406	-7.28036	0	
1.0507	42.6085	-6.94943	0	
1.0513	35.8948	-4.53368	0	
1.0520	30.7123	-2.08483	0	
1.0527	23.0857	-0.26474	0	
1.0533	14.5464	2.18411	0	
1.0540	8.74549	5.22862	0	
1.0547	4.47581	8.30623	0	
1.0553	-1.32507	10.1263	0	
1.0560	-6.50759	7.67747	0	
1.0567	-12.014	4.63295	0	
1.0573	-25.1175	7.37963	0	
1.0580	-41.9018	11.9464	0	
1.0587	-50.4706	12.5752	0	
1.0593	-50.7651	11.0529	0	
1.0600	-50.1467	9.82848	0	
1.0607	-46.4954	7.0818	0	
1.0613	-39.1633	4.03729	0	
1.0620	-32.1551	3.70636	0	
1.0627	-25.4414	3.70636	0	
1.0633	-17.1965	2.81287	0	
1.0640	-11.3956	1.29061	0	
1.0647	-6.50759	0.364018	0	
1.0653	-0.412245	-1.787	0	
1.0660	3.85744	-3.60709	0	
1.0667	7.2143	-2.6805	0	
1.0673	18.5216	-1.787	0	
1.0680	36.2187	-4.53368	0	
1.0687	48.1149	-6.94943	0	
1.0693	49.9406	-7.28036	0	
1.0700	46.8782	-6.6516	0	
1.0707	41.6957	-3.90492	0	
1.0713	35.3059	-1.787	0	
1.0720	28.8866	-3.60709	0	
1.0727	22.7913	-4.20275	0	
1.0733	16.372	-0.860406	0	
1.0740	10.2767	1.29061	0	
1.0747	5.38864	0.0661851	0	
1.0753	2.32624	-0.26474	0	
1.0760	-0.117784	0.0661851	0	
1.0767	-7.12596	0.959683	0	
1.0773	-22.7029	4.33512	0	
1.0780	-38.5449	8.90189	0	
1.0787	-46.4954	8.90189	0	
1.0793	-47.1138	4.63295	0	
1.0800	-45.2587	4.93079	0	
1.0807	-40.0761	8.30623	0	
1.0813	-33.6863	5.55955	0	
1.0820	-28.1799	0.0661851	0	
1.0827	-19.935	0.959683	0	
1.0833	-11.6901	3.70636	0	
1.0840	-8.03879	0.661851	0	
1.0847	-2.85627	-4.20275	0	
1.0853	4.18135	-5.42718	0	
1.0860	6.007	-4.53368	0	
1.0867	9.36386	-4.53368	0	
1.0873	25.2353	-9.10045	0	
1.0880	42.314	-14.296	0	
1.0887	50.2351	-14.5938	0	
1.0893	53.5919	-13.0716	0	
1.0900	53.003	-13.0716	0	
1.0907	46.8782	-10.9205	0	
1.0913	40.1645	-8.17386	0	
1.0920	31.949	-6.94943	0	
1.0927	21.5545	-5.12934	0	
1.0933	14.8408	-3.01142	0	
1.0940	9.03995	-2.08483	0	
1.0947	1.11895	-0.860406	0	
1.0953	-2.85627	0.0661851	0	
1.0960	-2.85627	0.0661851	0	
1.0967	-9.86444	0.959683	0	
1.0973	-23.9102	2.81287	0	
1.0980	-37.956	4.03729	0	
1.0987	-48.3211	7.37963	0	
1.0993	-50.7651	11.0529	0	
1.1000	-44.6697	10.1263	0	
1.1007	-38.5449	7.9753	0	
1.1013	-35.8065	7.37963	0	
1.1020	-30.0056	4.93079	0	
1.1027	-21.7607	2.81287	0	
1.1033	-16.2837	4.93079	0	
1.1040	-11.6901	6.45304	0	
1.1047	-4.97639	1.29061	0	
1.1053	-0.706706	-3.30925	0	
1.1060	1.73732	-2.38266	0	
1.1067	8.45103	-2.08483	0	
1.1073	21.5545	-3.60709	0	
1.1080	37.426	-4.53368	0	
1.1087	49.6461	-6.05593	0	
1.1093	52.3846	-5.7581	0	
1.1100	49.0278	-2.6805	0	
1.1107	44.1397	-1.787	0	
1.1113	36.8076	-1.787	0	
1.1120	27.6793	0.0661851	0	
1.1127	21.2601	-0.860406	0	
1.1133	16.6665	-2.08483	0	
1.1140	10.8951	0.364018	0	
1.1147	2.94461	3.40853	0	
1.1153	-2.2379	4.33512	0	
1.1160	-3.47464	4.33512	0	
1.1167	-8.65715	3.70636	0	
1.1173	-25.1175	4.03729	0	
1.1180	-41.6073	6.45304	0	
1.1187	-47.7027	7.37963	0	
1.1193	-49.8523	7.0818	0	
1.1200	-51.3834	8.30623	0	
1.1207	-47.4082	7.0818	0	
1.1213	-38.5449	4.63295	0	
1.1220	-29.4167	5.22862	0	
1.1227	-21.7607	5.55955	0	
1.1233	-15.3709	1.88627	0	
1.1240	-8.95162	-0.562573	0	
1.1247	-2.53236	-0.860406	0	
1.1253	-0.117784	-1.45607	0	
1.1260	1.41341	-2.6805	0	
1.1267	9.65832	-3.90492	0	
1.1273	23.9986	-7.28036	0	
1.1280	37.1315	-11.5493	0	
1.1287	46.8782	-13.6672	0	
1.1293	52.3846	-13.9981	0	
1.1300	50.8534	-14.5938	0	
1.1307	47.2021	-15.1895	0	
1.1313	44.1397	-15.1895	0	
1.1320	34.982	-13.3694	0	
1.1327	23.0857	-8.80261	0	
1.1333	17.9032	-5.7581	0	
1.1340	14.8408	-4.83151	0	
1.1347	7.83266	-2.6805	0	
1.1353	1.41341	-0.26474	0	
1.1360	-3.7691	-2.6805	0	
1.1367	-9.86444	-2.6805	0	
1.1373	-21.1717	2.81287	0	
1.1380	-38.2505	6.15521	0	
1.1387	-49.8523	5.55955	0	
1.1393	-48.6155	7.9753	0	
1.1400	-46.2009	11.0529	0	
1.1407	-42.5202	7.37963	0	
1.1413	-31.5368	3.40853	0	
1.1420	-23.6158	4.63295	0	
1.1427	-20.8478	2.81287	0	
1.1433	-12.014	-2.6805	0	
1.1440	-3.47464	-3.30925	0	
1.1447	-1.61954	-1.15824	0	
1.1453	3.23907	-2.6805	0	
1.1460	8.74549	-3.60709	0	
1.1467	12.1023	-1.787	0	
1.1473	24.3225	-3.01142	0	
1.1480	42.314	-6.05593	0	
1.1487	50.559	-8.50478	0	
1.1493	51.1773	-11.2515	0	
1.1500	50.559	-11.8471	0	
1.1507	44.7581	-7.28036	0	
1.1513	35.6003	-3.90492	0	
1.1520	29.7995	-4.20275	0	
1.1527	26.7371	-2.6805	0	
1.1533	20.3473	-0.860406	0	
1.1540	12.1023	-3.30925	0	
1.1547	7.5382	-4.83151	0	
1.1553	5.38864	-0.860406	0	
1.1560	1.41341	1.88627	0	
1.1567	-5.3003	2.18411	0	
1.1573	-16.2837	6.45304	0	
1.1580	-32.7735	11.6486	0	
1.1587	-44.0514	10.4241	0	
1.1593	-44.6697	9.19972	0	
1.1600	-41.6073	11.0529	0	
1.1607	-37.3377	9.19972	0	
1.1613	-30.6239	5.55955	0	
1.1620	-24.5286	4.63295	0	
1.1627	-19.3461	3.40853	0	
1.1633	-12.3085	1.58844	0	
1.1640	-6.8315	1.29061	0	
1.1647	-1.94344	0.959683	0	
1.1653	3.85744	0.364018	0	
1.1660	6.30147	1.58844	0	
1.1667	9.65832	0.661851	0	
1.1673	25.5298	-3.90492	0	
1.1680	44.7581	-7.28036	0	
1.1687	52.3846	-6.6516	0	
1.1693	53.2974	-6.35377	0	
1.1700	51.4718	-7.28036	0	
1.1707	42.314	-5.7581	0	
1.1713	33.7747	-1.787	0	
1.1720	30.7123	1.29061	0	
1.1727	22.7913	0.661851	0	
1.1733	10.8951	0.959683	0	
1.1740	5.6831	3.70636	0	
1.1747	1.11895	4.03729	0	
1.1753	-8.33325	2.48194	0	
1.1760	-12.6029	2.81287	0	
1.1767	-15.047	4.03729	0	
1.1773	-27.8855	4.93079	0	
1.1780	-44.0514	7.37963	0	
1.1787	-51.3834	8.90189	0	
1.1793	-51.6779	9.19972	0	
1.1800	-48.0266	9.49756	0	
1.1807	-41.9018	7.9753	0	
1.1813	-37.3377	4.63295	0	
1.1820	-31.8312	3.70636	0	
1.1827	-22.7029	3.40853	0	
1.1833	-17.1965	0.959683	0	
1.1840	-13.8397	0.0661851	0	
1.1847	-6.21313	-0.26474	0	
1.1853	-0.412245	-3.01142	0	
1.1860	1.11895	-5.7581	0	
1.1867	7.83266	-6.35377	0	
1.1873	20.3473	-5.7581	0	
1.1880	32.8619	-6.05593	0	
1.1887	44.1397	-8.80261	0	
1.1893	49.6461	-10.3249	0	
1.1900	46.2893	-8.80261	0	
1.1907	40.1645	-8.50478	0	
1.1913	33.1563	-9.39828	0	
1.1920	24.3225	-7.28036	0	
1.1927	18.5216	-3.60709	0	
1.1933	13.3096	-2.6805	0	
1.1940	3.85744	-2.6805	0	
1.1947	-5.3003	-3.01142	0	
1.1953	-9.24608	-5.42718	0	
1.1960	-10.7773	-4.83151	0	
1.1967	-16.2837	-0.562573	0	
1.1973	-27.2671	0.959683	0	
1.1980	-40.0761	0.661851	0	
1.1987	-49.2339	2.81287	0	
1.1993	-52.5907	4.33512	0	
1.2000	-51.0595	2.18411	0	
1.2007	-46.4954	0.959683	0	
1.2013	-40.0761	0.0661851	0	
1.2020	-34.2753	-1.787	0	
1.2027	-28.1799	-0.860406	0	
1.2033	-20.2589	-0.26474	0	
1.2040	-11.3956	-2.38266	0	
1.2047	-5.3003	-3.01142	0	
1.2053	-2.53236	-2.6805	0	
1.2060	-0.706706	-3.60709	0	
1.2067	4.77027	-2.08483	0	
1.2073	19.1105	-2.08483	0	
1.2080	38.6627	-6.94943	0	
1.2087	48.1149	-9.10045	0	
1.2093	45.9654	-6.35377	0	
1.2100	45.6709	-5.7581	0	
1.2107	44.4636	-4.83151	0	
1.2113	34.982	-2.08483	0	
1.2120	25.8242	-1.787	0	
1.2127	21.5545	-2.6805	0	
1.2133	16.0776	-0.562573	0	
1.2140	11.484	1.88627	0	
1.2147	8.45103	0.959683	0	
1.2153	2.94461	-0.26474	0	
1.2160	-2.53236	0.661851	0	
1.2167	-8.95162	2.48194	0	
1.2173	-23.9102	4.03729	0	
1.2180	-40.0761	6.45304	0	
1.2187	-46.7899	8.30623	0	
1.2193	-48.0266	7.37963	0	
1.2200	-46.7899	7.0818	0	
1.2207	-40.4001	7.0818	0	
1.2213	-32.7735	4.03729	0	
1.2220	-26.3543	2.18411	0	
1.2227	-18.4038	3.70636	0	
1.2233	-12.6029	3.70636	0	
1.2240	-7.42042	1.29061	0	
1.2247	-1.03061	-0.562573	0	
1.2253	2.94461	-2.08483	0	
1.2260	3.85744	-3.01142	0	
1.2267	10.8951	-3.90492	0	
1.2273	26.4426	-8.80261	0	
1.2280	43.2269	-13.6672	0	
1.2287	52.6791	-12.4428	0	
1.2293	53.003	-9.10045	0	
1.2300	49.6461	-9.69611	0	
1.2307	45.9654	-10.3249	0	
1.2313	40.4884	-7.57819	0	
1.2320	32.2435	-5.7581	0	
1.2327	24.6169	-6.05593	0	
1.2333	18.5216	-5.12934	0	
1.2340	13.3096	-3.60709	0	
1.2347	9.03995	-2.6805	0	
1.2353	6.59593	0.364018	0	
1.2360	3.85744	2.48194	0	
1.2367	-3.15073	1.88627	0	
1.2373	-17.1965	4.63295	0	
1.2380	-33.3624	9.19972	0	
1.2387	-44.3458	9.19972	0	
1.2393	-47.4082	9.82848	0	
1.2400	-44.3458	13.4687	0	
1.2407	-37.0432	11.9464	0	
1.2413	-28.1799	7.37963	0	
1.2420	-21.1717	8.30623	0	
1.2427	-14.7525	7.37963	0	
1.2433	-8.03879	0.364018	0	
1.2440	-3.47464	-2.08483	0	
1.2447	0.500584	1.88627	0	
1.2453	5.6831	3.70636	0	
1.2460	9.36386	1.58844	0	
1.2467	15.7537	-0.562573	0	
1.2473	30.4178	-3.60709	0	
1.2480	43.8452	-7.57819	0	
1.2487	47.2021	-9.10045	0	
1.2493	48.7333	-9.39828	0	
1.2500	49.6461	-8.50478	0	
1.2507	41.1068	-7.28036	0	
1.2513	30.4178	-6.94943	0	
1.2520	26.1481	-5.42718	0	
1.2527	21.2601	-3.30925	0	
1.2533	14.5464	-5.12934	0	
1.2540	10.8951	-5.7581	0	
1.2547	6.91983	0.0661851	0	
1.2553	2.03178	2.18411	0	
1.2560	-0.412245	-0.26474	0	
1.2567	-5.3003	2.81287	0	
1.2573	-19.6406	7.37963	0	
1.2580	-36.1304	7.9753	0	
1.2587	-44.6697	10.1263	0	
1.2593	-47.1138	12.2442	0	
1.2600	-45.5826	9.19972	0	
1.2607	-38.2505	7.0818	0	
1.2613	-28.4744	8.30623	0	
1.2620	-22.9974	6.45304	0	
1.2627	-18.4038	2.81287	0	
1.2633	-11.1012	1.88627	0	
1.2640	-5.3003	0.364018	0	
1.2647	-0.706706	-1.787	0	
1.2653	5.6831	-2.38266	0	
1.2660	9.36386	-1.45607	0	
1.2667	13.928	-0.562573	0	
1.2673	28.2683	-2.6805	0	
1.2680	45.0525	-7.28036	0	
1.2687	51.1773	-10.027	0	
1.2693	50.559	-10.027	0	
1.2700	48.7333	-10.027	0	
1.2707	44.1397	-9.10045	0	
1.2713	36.8076	-6.05593	0	
1.2720	30.4178	-4.53368	0	
1.2727	24.9114	-4.53368	0	
1.2733	19.4344	-3.30925	0	
1.2740	14.8408	-2.6805	0	
1.2747	9.36386	-0.860406	0	
1.2753	4.77027	1.88627	0	
1.2760	2.94461	1.58844	0	
1.2767	-1.61954	1.58844	0	
1.2773	-16.5782	6.45304	0	
1.2780	-34.5992	10.722	0	
1.2787	-42.5202	11.6486	0	
1.2793	-41.9018	11.0529	0	
1.2800	-40.0761	8.60406	0	
1.2807	-36.1304	6.15521	0	
1.2813	-27.5616	4.63295	0	
1.2820	-20.5534	3.70636	0	
1.2827	-14.458	2.81287	0	
1.2833	-7.12596	2.48194	0	
1.2840	-1.94344	0.0661851	0	
1.2847	0.206123	-3.01142	0	
1.2853	3.56298	-3.01142	0	
1.2860	7.83266	-2.6805	0	
1.2867	13.928	-5.12934	0	
1.2873	26.7371	-8.17386	0	
1.2880	42.314	-8.80261	0	
1.2887	50.559	-6.35377	0	
1.2893	50.8534	-5.12934	0	
1.2900	48.7333	-6.6516	0	
1.2907	45.3764	-5.12934	0	
1.2913	39.2517	0.0661851	0	
1.2920	30.7123	0.364018	0	
1.2927	22.4674	-2.6805	0	
1.2933	15.7537	0.0661851	0	
1.2940	9.36386	4.63295	0	
1.2947	2.94461	3.1107	0	
1.2953	-1.32507	0.959683	0	
1.2960	-4.38747	3.40853	0	
1.2967	-10.7773	5.22862	0	
1.2973	-24.8231	7.0818	0	
1.2980	-39.4872	11.9464	0	
1.2987	-45.877	14.0974	0	
1.2993	-46.2009	9.49756	0	
1.3000	-43.7569	4.63295	0	
1.3007	-37.3377	3.40853	0	
1.3013	-30.0056	4.03729	0	
1.3020	-23.6158	4.63295	0	
1.3027	-15.3709	5.55955	0	
1.3033	-8.95162	4.93079	0	
1.3040	-5.59476	2.81287	0	
1.3047	-0.706706	2.18411	0	
1.3053	4.77027	3.40853	0	
1.3060	7.83266	4.03729	0	
1.3067	14.2519	3.70636	0	
1.3073	28.2683	1.58844	0	
1.3080	42.9324	-3.60709	0	
1.3087	50.2351	-7.28036	0	
1.3093	49.9406	-4.83151	0	
1.3100	47.8205	-1.787	0	
1.3107	44.7581	-2.38266	0	
1.3113	37.7499	-1.15824	0	
1.3120	29.505	2.81287	0	
1.3127	21.5545	4.33512	0	
1.3133	14.2519	3.70636	0	
1.3140	9.65832	4.63295	0	
1.3147	6.007	4.63295	0	
1.3153	0.206123	5.85738	0	
1.3160	-4.68193	11.0529	0	
1.3167	-9.24608	13.7996	0	
1.3173	-21.4662	11.6486	0	
1.3180	-37.3377	11.6486	0	
1.3187	-47.7027	16.8441	0	
1.3193	-50.4706	18.0685	0	
1.3200	-48.3211	13.7996	0	
1.3207	-44.6697	11.3507	0	
1.3213	-38.8689	11.9464	0	
1.3220	-28.1799	11.3507	0	
1.3227	-16.5782	9.19972	0	
1.3233	-12.3085	6.45304	0	
1.3240	-9.86444	5.22862	0	
1.3247	-3.7691	6.75088	0	
1.3253	0.500584	6.45304	0	
1.3260	2.94461	3.40853	0	
1.3267	11.1895	1.88627	0	
1.3273	26.1481	0.959683	0	
1.3280	39.2517	-4.20275	0	
1.3287	47.2021	-7.87602	0	
1.3293	50.2351	-6.35377	0	
1.3300	46.2893	-4.53368	0	
1.3307	37.7499	-3.60709	0	
1.3313	29.1811	-0.860406	0	
1.3320	22.4674	1.29061	0	
1.3327	15.7537	0.959683	0	
1.3333	8.74549	2.81287	0	
1.3340	2.65015	6.45304	0	
1.3347	-2.53236	7.0818	0	
1.3353	-5.3003	5.85738	0	
1.3360	-7.74433	7.37963	0	
1.3367	-16.5782	8.60406	0	
1.3373	-30.9184	8.90189	0	
1.3380	-41.9018	12.5752	0	
1.3387	-46.7899	14.9909	0	
1.3393	-49.2339	9.82848	0	
1.3400	-46.7899	5.22862	0	
1.3407	-37.3377	5.85738	0	
1.3413	-28.7983	4.03729	0	
1.3420	-23.6158	0.0661851	0	
1.3427	-17.1965	-0.860406	0	
1.3433	-8.95162	-2.38266	0	
1.3440	-4.06356	-5.42718	0	
1.3447	0.500584	-6.35377	0	
1.3453	5.38864	-6.35377	0	
1.3460	8.74549	-8.80261	0	
1.3467	15.7537	-11.2515	0	
1.3473	30.4178	-11.5493	0	
1.3480	45.9654	-12.145	0	
1.3487	52.6791	-16.4139	0	
1.3493	52.3846	-17.9362	0	
1.3500	47.8205	-14.5938	0	
1.3507	40.1645	-12.7737	0	
1.3513	30.7123	-13.6672	0	
1.3520	20.0233	-11.8471	0	
1.3527	11.8079	-8.80261	0	
1.3533	7.2143	-7.28036	0	
1.3540	1.11895	-6.05593	0	
1.3547	-5.88922	-5.42718	0	
1.3553	-8.03879	-5.42718	0	
1.3560	-7.74433	-3.30925	0	
1.3567	-13.2213	-1.45607	0	
1.3573	-26.6487	-1.15824	0	
1.3580	-42.2257	0.0661851	0	
1.3587	-51.0595	2.18411	0	
1.3593	-50.1467	1.88627	0	
1.3600	-45.5826	0.959683	0	
1.3607	-40.0761	1.29061	0	
1.3613	-32.7735	0.959683	0	
1.3620	-24.5286	-1.787	0	
1.3627	-15.3709	-2.6805	0	
1.3633	-8.33325	-0.860406	0	
1.3640	-4.68193	-1.787	0	
1.3647	0.206123	-6.05593	0	
1.3653	6.30147	-8.17386	0	
1.3660	9.36386	-9.39828	0	
1.3667	14.5464	-10.3249	0	
1.3673	27.9738	-10.027	0	
1.3680	42.0196	-11.5493	0	
1.3687	48.7333	-13.6672	0	
1.3693	50.2351	-12.7737	0	
1.3700	46.8782	-12.7737	0	
1.3707	38.3388	-13.0716	0	
1.3713	31.0362	-10.3249	0	
1.3720	26.1481	-9.39828	0	
1.3727	18.1977	-10.6227	0	
1.3733	9.65832	-6.94943	0	
1.3740	6.30147	-3.30925	0	
1.3747	2.94461	-3.60709	0	
1.3753	-4.06356	-3.60709	0	
1.3760	-8.95162	-3.60709	0	
1.3767	-13.8397	-3.60709	0	
1.3773	-26.3543	1.88627	0	
1.3780	-43.1385	5.55955	0	
1.3787	-52.9146	3.70636	0	
1.3793	-52.2963	4.33512	0	
1.3800	-49.5578	4.93079	0	
1.3807	-48.3211	1.29061	0	
1.3813	-44.0514	1.58844	0	
1.3820	-35.8065	4.03729	0	
1.3827	-26.3543	1.29061	0	
1.3833	-18.7277	-0.26474	0	
1.3840	-13.8397	1.29061	0	
1.3847	-9.86444	-1.15824	0	
1.3853	-5.88922	-4.53368	0	
1.3860	-1.61954	-5.12934	0	
1.3867	5.6831	-6.94943	0	
1.3873	20.9656	-8.17386	0	
1.3880	38.6627	-8.50478	0	
1.3887	47.2021	-10.9205	0	
1.3893	46.5837	-11.8471	0	
1.3900	43.8452	-10.9205	0	
1.3907	40.4884	-8.80261	0	
1.3913	33.1563	-4.20275	0	
1.3920	23.9986	-2.38266	0	
1.3927	16.9904	-3.60709	0	
1.3933	11.8079	-2.6805	0	
1.3940	6.30147	-1.787	0	
1.3947	1.11895	-2.6805	0	
1.3953	-1.61954	0.0661851	0	
1.3960	-3.47464	2.81287	0	
1.3967	-10.7773	1.88627	0	
1.3973	-26.9726	4.93079	0	
1.3980	-41.9018	10.1263	0	
1.3987	-47.4082	11.0529	0	
1.3993	-45.5826	11.6486	0	
1.4000	-44.0514	11.3507	0	
1.4007	-40.989	7.67747	0	
1.4013	-34.5992	6.75088	0	
1.4020	-27.2671	8.60406	0	
1.4027	-19.935	7.37963	0	
1.4033	-12.6029	5.22862	0	
1.4040	-4.68193	3.40853	0	
1.4047	1.11895	1.88627	0	
1.4053	3.85744	1.88627	0	
1.4060	5.09418	0.0661851	0	
1.4067	11.484	-3.60709	0	
1.4073	27.061	-6.05593	0	
1.4080	44.1397	-10.027	0	
1.4087	52.3846	-13.6672	0	
1.4093	52.3846	-12.145	0	
1.4100	47.8205	-10.3249	0	
1.4107	39.5756	-10.027	0	
1.4113	30.7123	-8.17386	0	
1.4120	23.9986	-7.28036	0	
1.4127	17.6088	-7.28036	0	
1.4133	11.1895	-2.6805	0	
1.4140	6.30147	0.0661851	0	
1.4147	0.500584	-1.787	0	
1.4153	-4.97639	-0.860406	0	
1.4160	-9.86444	3.40853	0	
1.4167	-19.3461	3.70636	0	
1.4173	-36.1304	3.1107	0	
1.4180	-50.7651	5.55955	0	
1.4187	-56.2715	7.67747	0	
1.4193	-56.566	6.15521	0	
1.4200	-54.7403	3.1107	0	
1.4207	-48.3211	2.81287	0	
1.4213	-39.1633	3.1107	0	
1.4220	-33.068	2.18411	0	
1.4227	-25.1175	1.29061	0	
1.4233	-15.6653	0.364018	0	
1.4240	-11.1012	-1.15824	0	
1.4247	-6.8315	-2.08483	0	
1.4253	-0.117784	-3.01142	0	
1.4260	2.03178	-5.42718	0	
1.4267	6.59593	-7.87602	0	
1.4273	22.1729	-9.10045	0	
1.4280	37.1315	-10.3249	0	
1.4287	42.314	-11.5493	0	
1.4293	42.6085	-12.7737	0	
1.4300	40.1645	-13.0716	0	
1.4307	33.1563	-10.6227	0	
1.4313	25.8242	-6.35377	0	
1.4320	16.6665	-3.60709	0	
1.4327	8.45103	-3.01142	0	
1.4333	5.6831	-2.6805	0	
1.4340	2.94461	-1.787	0	
1.4347	-2.53236	-1.787	0	
1.4353	-5.59476	-1.45607	0	
1.4360	-7.12596	0.661851	0	
1.4367	-15.3709	0.959683	0	
1.4373	-32.1551	-0.26474	0	
1.4380	-48.3211	2.48194	0	
1.4387	-56.566	7.9753	0	
1.4393	-55.9476	7.9753	0	
1.4400	-51.6779	4.63295	0	
1.4407	-43.433	4.33512	0	
1.4413	-33.6863	5.55955	0	
1.4420	-27.2671	4.63295	0	
1.4427	-18.4038	3.70636	0	
1.4433	-7.74433	0.364018	0	
1.4440	-3.47464	-2.6805	0	
1.4447	-2.53236	-1.787	0	
1.4453	3.85744	-1.787	0	
1.4460	10.5712	-6.05593	0	
1.4467	16.372	-9.69611	0	
1.4473	29.505	-8.80261	0	
1.4480	45.6709	-8.80261	0	
1.4487	54.2103	-10.9205	0	
1.4493	55.7415	-12.145	0	
1.4500	52.3846	-10.3249	0	
1.4507	44.7581	-7.28036	0	
1.4513	37.7499	-6.6516	0	
1.4520	33.1563	-6.35377	0	
1.4527	27.9738	-3.30925	0	
1.4533	20.0233	0.0661851	0	
1.4540	12.1023	0.661851	0	
1.4547	6.91983	3.70636	0	
1.4553	3.23907	8.90189	0	
1.4560	-0.706706	10.1263	0	
1.4567	-8.33325	8.30623	0	
1.4573	-24.2047	8.30623	0	
1.4580	-40.6945	10.4241	0	
1.4587	-46.4954	12.2442	0	
1.4593	-45.5826	11.6486	0	
1.4600	-45.5826	8.30623	0	
1.4607	-41.9018	7.37963	0	
1.4613	-32.4496	8.30623	0	
1.4620	-24.2047	5.55955	0	
1.4627	-17.491	3.70636	0	
1.4633	-12.6029	4.63295	0	
1.4640	-9.86444	3.1107	0	
1.4647	-5.3003	0.0661851	0	
1.4653	1.41341	-0.860406	0	
1.4660	5.6831	-0.562573	0	
1.4667	13.928	-1.787	0	
1.4673	29.1811	-4.53368	0	
1.4680	42.6085	-7.28036	0	
1.4687	50.559	-6.6516	0	
1.4693	52.3846	-4.53368	0	
1.4700	45.6709	-6.35377	0	
1.4707	38.0444	-7.87602	0	
1.4713	33.7747	-4.53368	0	
1.4720	26.4426	-2.08483	0	
1.4727	17.6088	-1.787	0	
1.4733	14.5464	0.959683	0	
1.4740	11.1895	2.18411	0	
1.4747	2.94461	0.959683	0	
1.4753	-3.15073	0.959683	0	
1.4760	-7.74433	2.18411	0	
1.4767	-17.1965	2.81287	0	
1.4773	-32.7735	4.33512	0	
1.4780	-48.3211	6.15521	0	
1.4787	-54.7403	8.30623	0	
1.4793	-52.9146	11.0529	0	
1.4800	-50.1467	10.722	0	
1.4807	-46.4954	9.49756	0	
1.4813	-37.6321	10.4241	0	
1.4820	-27.2671	8.90189	0	
1.4827	-19.935	5.85738	0	
1.4833	-13.8397	5.22862	0	
1.4840	-8.03879	4.63295	0	
1.4847	-3.47464	1.88627	0	
1.4853	0.824491	-0.860406	0	
1.4860	3.56298	-3.30925	0	
1.4867	10.2767	-3.60709	0	
1.4873	25.5298	-3.30925	0	
1.4880	40.1645	-4.53368	0	
1.4887	44.4636	-7.87602	0	
1.4893	45.0525	-9.10045	0	
1.4900	44.1397	-8.17386	0	
1.4907	36.8076	-6.94943	0	
1.4913	25.2353	-5.42718	0	
1.4920	16.372	-3.60709	0	
1.4927	10.5712	-2.08483	0	
1.4933	6.30147	-3.60709	0	
1.4940	2.03178	-4.53368	0	
1.4947	-2.53236	0.364018	0	
1.4953	-3.7691	4.33512	0	
1.4960	-4.38747	1.88627	0	
1.4967	-12.6029	0.661851	0	
1.4973	-28.1799	1.58844	0	
1.4980	-41.9018	1.88627	0	
1.4987	-47.4082	3.40853	0	
1.4993	-47.4082	4.63295	0	
1.5000	-44.6697	2.81287	0	
1.5007	-38.2505	-0.860406	0	
1.5013	-32.4496	-3.30925	0	
1.5020	-28.1799	-3.60709	0	
1.5027	-20.2589	-2.6805	0	
1.5033	-10.4828	-2.6805	0	
1.5040	-7.12596	-3.60709	0	
1.5047	-5.3003	-3.01142	0	
1.5053	1.73732	-2.08483	0	
1.5060	6.59593	-2.38266	0	
1.5067	12.1023	-2.6805	0	
1.5073	27.061	-6.05593	0	
1.5080	43.2269	-10.6227	0	
1.5087	50.559	-10.027	0	
1.5093	51.1773	-6.35377	0	
1.5100	47.4966	-5.12934	0	
1.5107	40.4884	-5.12934	0	
1.5113	35.3059	-3.30925	0	
1.5120	29.1811	-0.860406	0	
1.5127	19.1105	-0.860406	0	
1.5133	13.0152	-0.860406	0	
1.5140	11.1895	1.88627	0	
1.5147	5.09418	3.70636	0	
1.5153	-1.03061	3.70636	0	
1.5160	-3.47464	5.55955	0	
1.5167	-12.014	8.30623	0	
1.5173	-29.7111	11.0529	0	
1.5180	-42.8441	12.873	0	
1.5187	-47.4082	13.7996	0	
1.5193	-47.7027	12.873	0	
1.5200	-43.7569	9.82848	0	
1.5207	-35.8065	7.37963	0	
1.5213	-29.0927	6.75088	0	
1.5220	-23.9102	4.63295	0	
1.5227	-18.1094	-0.562573	0	
1.5233	-12.6029	-0.562573	0	
1.5240	-8.03879	2.81287	0	
1.5247	-1.94344	-0.26474	0	
1.5253	1.11895	-3.60709	0	
1.5260	2.65015	-0.860406	0	
1.5267	11.1895	-2.08483	0	
1.5273	29.505	-6.6516	0	
1.5280	45.0525	-7.28036	0	
1.5287	49.3222	-7.28036	0	
1.5293	49.0278	-10.027	0	
1.5300	46.8782	-7.28036	0	
1.5307	38.0444	-3.60709	0	
1.5313	28.5922	-4.20275	0	
1.5320	23.9986	-4.53368	0	
1.5327	16.6665	-2.08483	0	
1.5333	8.12712	-1.45607	0	
1.5340	4.77027	-2.38266	0	
1.5347	-0.412245	-1.787	0	
1.5353	-8.03879	0.0661851	0	
1.5360	-10.4828	0.959683	0	
1.5367	-16.9021	0.661851	0	
1.5373	-33.6863	1.88627	0	
1.5380	-47.7027	5.55955	0	
1.5387	-51.9724	7.67747	0	
1.5393	-53.5036	6.75088	0	
1.5400	-51.0595	6.75088	0	
1.5407	-41.9018	7.9753	0	
1.5413	-32.7735	7.37963	0	
1.5420	-25.4414	4.33512	0	
1.5427	-19.935	-0.860406	0	
1.5433	-15.3709	-4.20275	0	
1.5440	-9.86444	-3.01142	0	
1.5447	-4.38747	-0.860406	0	
1.5453	1.73732	-2.38266	0	
1.5460	7.5382	-2.6805	0	
1.5467	15.4592	-2.38266	0	
1.5473	28.8866	-5.42718	0	
1.5480	43.5213	-9.10045	0	
1.5487	48.7333	-8.80261	0	
1.5493	44.4636	-8.80261	0	
1.5500	42.314	-10.027	0	
1.5507	39.5756	-10.027	0	
1.5513	30.7123	-7.28036	0	
1.5520	20.6417	-5.12934	0	
1.5527	15.7537	-6.6516	0	
1.5533	13.0152	-8.17386	0	
1.5540	6.59593	-3.60709	0	
1.5547	-0.706706	0.959683	0	
1.5553	-4.38747	-0.26474	0	
1.5560	-4.68193	0.959683	0	
1.5567	-11.3956	5.55955	0	
1.5573	-28.4744	6.75088	0	
1.5580	-45.5826	7.0818	0	
1.5587	-51.3834	8.60406	0	
1.5593	-48.0266	7.37963	0	
1.5600	-42.8441	6.75088	0	
1.5607	-35.512	9.19972	0	
1.5613	-28.7983	7.67747	0	
1.5620	-23.9102	3.70636	0	
1.5627	-16.2837	3.70636	0	
1.5633	-7.42042	4.63295	0	
1.5640	-5.3003	1.88627	0	
1.5647	-3.15073	0.0661851	0	
1.5653	6.30147	0.959683	0	
1.5660	13.0152	0.959683	0	
1.5667	17.6088	-1.787	0	
1.5673	30.7123	-4.53368	0	
1.5680	45.9654	-6.35377	0	
1.5687	50.8534	-7.87602	0	
1.5693	50.559	-8.50478	0	
1.5700	46.5837	-7.28036	0	
1.5707	40.1645	-6.05593	0	
1.5713	34.393	-6.05593	0	
1.5720	27.3554	-5.42718	0	
1.5727	18.5216	-2.6805	0	
1.5733	13.6335	-1.787	0	
1.5740	7.5382	-5.12934	0	
1.5747	-1.61954	-7.28036	0	
1.5753	-5.3003	-3.01142	0	
1.5760	-6.8315	-0.562573	0	
1.5767	-16.2837	-0.860406	0	
1.5773	-30.9184	2.81287	0	
1.5780	-43.7569	5.55955	0	
1.5787	-50.7651	3.1107	0	
1.5793	-50.7651	2.48194	0	
1.5800	-45.5826	3.70636	0	
1.5807	-39.1633	3.1107	0	
1.5813	-31.8312	3.1107	0	
1.5820	-21.7607	1.88627	0	
1.5827	-11.6901	-2.08483	0	
1.5833	-6.21313	-3.01142	0	
1.5840	-2.53236	-2.6805	0	
1.5847	5.09418	-6.35377	0	
1.5853	12.1023	-8.50478	0	
1.5860	13.6335	-6.94943	0	
1.5867	20.9656	-7.28036	0	
1.5873	39.5756	-9.10045	0	
1.5880	54.5342	-11.5493	0	
1.5887	58.8039	-13.6672	0	
1.5893	58.1855	-11.8471	0	
1.5900	53.003	-8.80261	0	
1.5907	43.8452	-10.027	0	
1.5913	35.8948	-10.027	0	
1.5920	27.6793	-5.12934	0	
1.5927	19.1105	-1.15824	0	
1.5933	14.8408	-0.860406	0	
1.5940	11.1895	-0.860406	0	
1.5947	4.47581	0.0661851	0	
1.5953	1.11895	0.364018	0	
1.5960	-0.706706	0.364018	0	
1.5967	-10.1884	2.18411	0	
1.5973	-25.7359	7.0818	0	
1.5980	-40.0761	11.3507	0	
1.5987	-47.7027	10.4241	0	
1.5993	-47.4082	6.75088	0	
1.6000	-42.8441	6.15521	0	
1.6007	-37.0432	7.67747	0	
1.6013	-29.0927	7.9753	0	
1.6020	-19.935	6.15521	0	
1.6027	-12.9268	5.55955	0	
1.6033	-8.03879	5.85738	0	
1.6040	-2.2379	4.63295	0	
1.6047	2.94461	2.81287	0	
1.6053	4.77027	1.29061	0	
1.6060	6.91983	0.364018	0	
1.6067	15.1647	0.661851	0	
1.6073	27.6793	-0.26474	0	
1.6080	39.2517	-4.53368	0	
1.6087	46.8782	-7.28036	0	
1.6093	49.0278	-5.12934	0	
1.6100	43.2269	-3.01142	0	
1.6107	33.7747	-3.01142	0	
1.6113	27.6793	-1.45607	0	
1.6120	21.8785	0.0661851	0	
1.6127	13.3096	-2.08483	0	
1.6133	7.5382	-3.60709	0	
1.6140	2.65015	-1.787	0	
1.6147	-6.21313	0.959683	0	
1.6153	-12.9268	2.18411	0	
1.6160	-16.9021	1.88627	0	
1.6167	-29.4167	1.88627	0	
1.6173	-51.3834	4.33512	0	
1.6180	-66.931	6.75088	0	
1.6187	-69.9934	6.75088	0	
1.6193	-66.3421	5.85738	0	
1.6200	-60.2173	6.45304	0	
1.6207	-52.5907	5.55955	0	
1.6213	-43.1385	2.18411	0	
1.6220	-32.4496	0.661851	0	
1.6227	-23.2919	0.0661851	0	
1.6233	-18.1094	-0.860406	0	
1.6240	-15.047	-1.45607	0	
1.6247	-10.7773	-1.787	0	
1.6253	-5.3003	-2.6805	0	
1.6260	0.206123	-3.60709	0	
1.6267	6.91983	-5.42718	0	
1.6273	21.8785	-8.17386	0	
1.6280	37.1315	-9.39828	0	
1.6287	42.6085	-9.10045	0	
1.6293	41.4012	-10.6227	0	
1.6300	40.1645	-11.2515	0	
1.6307	34.6875	-9.39828	0	
1.6313	25.8242	-6.35377	0	
1.6320	18.1977	-4.20275	0	
1.6327	10.8951	-3.60709	0	
1.6333	5.09418	-3.60709	0	
1.6340	2.32624	-0.860406	0	
1.6347	-1.61954	1.29061	0	
1.6353	-4.68193	1.88627	0	
1.6360	-6.21313	1.88627	0	
1.6367	-13.8397	2.81287	0	
1.6373	-29.4167	4.33512	0	
1.6380	-42.2257	6.45304	0	
1.6387	-47.4082	7.9753	0	
1.6393	-46.4954	8.90189	0	
1.6400	-41.9018	9.49756	0	
1.6407	-36.4248	9.19972	0	
1.6413	-31.5368	8.30623	0	
1.6420	-25.4414	7.67747	0	
1.6427	-19.0222	6.45304	0	
1.6433	-14.458	5.22862	0	
1.6440	-8.95162	3.70636	0	
1.6447	-2.2379	2.18411	0	
1.6453	1.11895	1.88627	0	
1.6460	2.94461	1.29061	0	
1.6467	13.0152	-2.08483	0	
1.6473	31.0362	-5.42718	0	
1.6480	45.9654	-6.6516	0	
1.6487	51.4718	-6.94943	0	
1.6493	52.3846	-6.35377	0	
1.6500	50.2351	-7.28036	0	
1.6507	42.6085	-7.87602	0	
1.6513	33.7747	-5.12934	0	
1.6520	26.4426	-2.38266	0	
1.6527	19.1105	-1.787	0	
1.6533	13.6335	0.0661851	0	
1.6540	9.65832	1.58844	0	
1.6547	3.85744	1.58844	0	
1.6553	0.206123	4.33512	0	
1.6560	-1.94344	7.37963	0	
1.6567	-14.1341	6.45304	0	
1.6573	-33.6863	5.22862	0	
1.6580	-46.2009	8.30623	0	
1.6587	-50.1467	12.873	0	
1.6593	-51.3834	12.873	0	
1.6600	-46.4954	9.19972	0	
1.6607	-37.3377	7.0818	0	
1.6613	-29.0927	6.45304	0	
1.6620	-23.6158	5.55955	0	
1.6627	-19.0222	4.03729	0	
1.6633	-13.2213	1.29061	0	
1.6640	-5.59476	-0.26474	0	
1.6647	0.500584	0.0661851	0	
1.6653	3.23907	-2.6805	0	
1.6660	6.30147	-5.42718	0	
1.6667	14.8408	-5.42718	0	
1.6673	30.0939	-6.35377	0	
1.6680	45.0525	-9.10045	0	
1.6687	50.8534	-8.80261	0	
1.6693	49.3222	-7.87602	0	
1.6700	46.8782	-9.10045	0	
1.6707	42.314	-8.17386	0	
1.6713	34.982	-4.83151	0	
1.6720	28.5922	-3.60709	0	
1.6727	21.8785	-3.60709	0	
1.6733	14.8408	-2.6805	0	
1.6740	10.2767	-1.45607	0	
1.6747	5.6831	-1.787	0	
1.6753	1.41341	-1.787	0	
1.6760	-1.94344	1.88627	0	
1.6767	-10.7773	4.63295	0	
1.6773	-27.8855	4.33512	0	
1.6780	-41.9018	6.75088	0	
1.6787	-44.9642	9.19972	0	
1.6793	-44.6697	5.85738	0	
1.6800	-42.8441	4.63295	0	
1.6807	-35.8065	7.9753	0	
1.6813	-27.5616	5.22862	0	
1.6820	-19.0222	0.661851	0	
1.6827	-11.1012	2.18411	0	
1.6833	-7.42042	2.18411	0	
1.6840	-2.2379	-3.60709	0	
1.6847	7.2143	-6.35377	0	
1.6853	9.36386	-4.20275	0	
1.6860	7.5382	-3.30925	0	
1.6867	20.3473	-3.60709	0	
1.6873	40.1645	-5.42718	0	
1.6880	50.8534	-8.80261	0	
1.6887	54.5342	-8.80261	0	
1.6893	55.1231	-8.17386	0	
1.6900	49.9406	-10.6227	0	
1.6907	44.4636	-10.6227	0	
1.6913	38.6627	-6.6516	0	
1.6920	27.3554	-4.83151	0	
1.6927	17.9032	-4.83151	0	
1.6933	15.1647	-3.60709	0	
1.6940	11.1895	-1.45607	0	
1.6947	3.56298	0.364018	0	
1.6953	-1.03061	2.18411	0	
1.6960	-5.59476	2.48194	0	
1.6967	-15.3709	2.81287	0	
1.6973	-29.7111	4.63295	0	
1.6980	-44.6697	6.45304	0	
1.6987	-52.2963	6.75088	0	
1.6993	-50.4706	7.67747	0	
1.7000	-44.6697	8.60406	0	
1.7007	-39.4872	6.75088	0	
1.7013	-32.7735	1.88627	0	
1.7020	-23.6158	-2.08483	0	
1.7027	-16.2837	-3.60709	0	
1.7033	-14.7525	-3.30925	0	
1.7040	-12.6029	-3.30925	0	
1.7047	-5.3003	-3.30925	0	
1.7053	-0.412245	-2.08483	0	
1.7060	0.206123	-2.6805	0	
1.7067	9.65832	-6.05593	0	
1.7073	29.1811	-8.17386	0	
1.7080	42.9324	-7.87602	0	
1.7087	46.5837	-8.17386	0	
1.7093	45.9654	-10.027	0	
1.7100	40.4884	-10.9205	0	
1.7107	31.3307	-8.17386	0	
1.7113	26.4426	-5.12934	0	
1.7120	20.9656	-3.60709	0	
1.7127	10.2767	-1.787	0	
1.7133	2.94461	1.29061	0	
1.7140	2.03178	2.48194	0	
1.7147	-1.61954	2.18411	0	
1.7153	-6.8315	4.33512	0	
1.7160	-8.95162	6.75088	0	
1.7167	-15.9892	7.67747	0	
1.7173	-30.9184	10.1263	0	
1.7180	-43.7569	13.1708	0	
1.7187	-47.7027	13.7996	0	
1.7193	-48.3211	12.5752	0	
1.7200	-46.2009	11.6486	0	
1.7207	-40.0761	10.1263	0	
1.7213	-32.1551	9.19972	0	
1.7220	-23.2919	7.67747	0	
1.7227	-13.8397	6.75088	0	
1.7233	-8.95162	7.67747	0	
1.7240	-6.8315	7.9753	0	
1.7247	-1.32507	5.22862	0	
1.7253	4.77027	3.40853	0	
1.7260	9.03995	2.81287	0	
1.7267	18.8161	0.959683	0	
1.7273	34.0691	-2.38266	0	
1.7280	45.0525	-3.90492	0	
1.7287	50.8534	-3.90492	0	
1.7293	53.2974	-3.60709	0	
1.7300	50.8534	-3.60709	0	
1.7307	45.0525	-4.53368	0	
1.7313	38.3388	-5.7581	0	
1.7320	30.0939	-7.57819	0	
1.7327	20.3473	-6.94943	0	
1.7333	12.1023	-3.60709	0	
1.7340	6.91983	-2.6805	0	
1.7347	2.03178	-1.787	0	
1.7353	-3.7691	1.29061	0	
1.7360	-7.42042	2.81287	0	
1.7367	-15.3709	2.81287	0	
1.7373	-32.4496	5.22862	0	
1.7380	-47.4082	8.60406	0	
1.7387	-51.9724	8.90189	0	
1.7393	-50.4706	6.45304	0	
1.7400	-46.2009	5.55955	0	
1.7407	-40.0761	6.45304	0	
1.7413	-35.1881	6.15521	0	
1.7420	-28.4744	4.33512	0	
1.7427	-20.2589	4.03729	0	
1.7433	-15.3709	3.70636	0	
1.7440	-12.9268	1.29061	0	
1.7447	-8.03879	0.0661851	0	
1.7453	-2.53236	-0.860406	0	
1.7460	2.03178	-2.6805	0	
1.7467	10.2767	-4.53368	0	
1.7473	24.9114	-6.05593	0	
1.7480	40.4884	-7.57819	0	
1.7487	47.8205	-6.94943	0	
1.7493	46.2893	-6.94943	0	
1.7500	43.2269	-10.6227	0	
1.7507	37.7499	-11.8471	0	
1.7513	31.3307	-8.17386	0	
1.7520	26.7371	-5.12934	0	
1.7527	20.3473	-3.90492	0	
1.7533	9.95278	-3.60709	0	
1.7540	5.09418	-4.53368	0	
1.7547	4.47581	-4.53368	0	
1.7553	2.03178	-2.6805	0	
1.7560	-0.706706	-2.08483	0	
1.7567	-8.95162	-1.15824	0	
1.7573	-26.3543	3.1107	0	
1.7580	-39.4872	5.85738	0	
1.7587	-41.9018	5.55955	0	
1.7593	-40.6945	4.63295	0	
1.7600	-36.1304	3.70636	0	
1.7607	-29.7111	2.18411	0	
1.7613	-26.9726	0.959683	0	
1.7620	-23.6158	-1.787	0	
1.7627	-15.6653	-4.20275	0	
1.7633	-10.1884	-3.60709	0	
1.7640	-4.06356	-3.60709	0	
1.7647	4.77027	-3.60709	0	
1.7653	7.83266	-2.08483	0	
1.7660	8.74549	-2.6805	0	
1.7667	20.3473	-6.94943	0	
1.7673	38.6627	-10.027	0	
1.7680	53.003	-10.027	0	
1.7687	58.8039	-8.80261	0	
1.7693	55.1231	-7.87602	0	
1.7700	47.8205	-7.57819	0	
1.7707	42.314	-6.35377	0	
1.7713	34.0691	-3.90492	0	
1.7720	23.0857	-3.90492	0	
1.7727	16.9904	-5.42718	0	
1.7733	13.0152	-4.53368	0	
1.7740	6.59593	-3.60709	0	
1.7747	2.03178	-0.26474	0	
1.7753	-1.61954	5.22862	0	
1.7760	-9.86444	5.85738	0	
1.7767	-20.8478	4.63295	0	
1.7773	-33.6863	8.30623	0	
1.7780	-46.2009	12.2442	0	
1.7787	-52.9146	12.2442	0	
1.7793	-51.3834	11.9464	0	
1.7800	-45.5826	11.9464	0	
1.7807	-38.2505	11.0529	0	
1.7813	-32.7735	9.19972	0	
1.7820	-26.3543	5.55955	0	
1.7827	-17.491	3.70636	0	
1.7833	-10.7773	3.70636	0	
1.7840	-7.74433	1.88627	0	
1.7847	-5.3003	1.58844	0	
1.7853	-1.94344	1.88627	0	
1.7860	2.94461	-1.787	0	
1.7867	14.2519	-3.60709	0	
1.7873	29.1811	-3.01142	0	
1.7880	42.9324	-4.53368	0	
1.7887	49.6461	-6.94943	0	
1.7893	48.7333	-6.05593	0	
1.7900	45.0525	-5.42718	0	
1.7907	40.4884	-4.20275	0	
1.7913	32.2435	-0.562573	0	
1.7920	22.7913	1.29061	0	
1.7927	14.8408	0.0661851	0	
1.7933	8.45103	-0.26474	0	
1.7940	2.94461	0.959683	0	
1.7947	-0.706706	4.33512	0	
1.7953	-2.53236	6.15521	0	
1.7960	-5.59476	4.63295	0	
1.7967	-15.6653	6.45304	0	
1.7973	-32.7735	11.0529	0	
1.7980	-45.877	12.2442	0	
1.7987	-49.5578	10.4241	0	
1.7993	-48.6155	11.0529	0	
1.8000	-44.0514	11.9464	0	
1.8007	-35.512	9.19972	0	
1.8013	-28.1799	4.63295	0	
1.8020	-22.379	1.58844	0	
1.8027	-13.8397	0.959683	0	
1.8033	-6.21313	1.58844	0	
1.8040	-0.412245	1.29061	0	
1.8047	4.77027	1.88627	0	
1.8053	7.5382	2.18411	0	
1.8060	8.74549	-0.860406	0	
1.8067	19.4344	-5.12934	0	
1.8073	36.8076	-6.6516	0	
1.8080	47.8205	-7.28036	0	
1.8087	50.2351	-9.10045	0	
1.8093	49.6461	-8.80261	0	
1.8100	45.6709	-4.83151	0	
1.8107	38.6627	-3.90492	0	
1.8113	32.8619	-5.42718	0	
1.8120	27.061	-3.60709	0	
1.8127	18.5216	-0.26474	0	
1.8133	10.8951	0.0661851	0	
1.8140	5.38864	0.364018	0	
1.8147	-0.706706	2.18411	0	
1.8153	-5.3003	1.88627	0	
1.8160	-8.65715	1.29061	0	
1.8167	-19.6406	1.88627	0	
1.8173	-37.6321	4.93079	0	
1.8180	-50.1467	8.30623	0	
1.8187	-53.2091	7.9753	0	
1.8193	-52.5907	5.22862	0	
1.8200	-49.2339	4.93079	0	
1.8207	-43.1385	5.22862	0	
1.8213	-37.3377	2.18411	0	
1.8220	-30.3295	-1.15824	0	
1.8227	-19.935	-2.08483	0	
1.8233	-10.4828	-2.6805	0	
1.8240	-5.59476	-3.60709	0	
1.8247	-2.53236	-5.42718	0	
1.8253	0.206123	-5.7581	0	
1.8260	3.85744	-5.42718	0	
1.8267	15.1647	-7.28036	0	
1.8273	31.6251	-8.80261	0	
1.8280	43.5213	-9.39828	0	
1.8287	48.7333	-12.7737	0	
1.8293	50.559	-14.5938	0	
1.8300	46.2893	-11.5493	0	
1.8307	38.9572	-7.87602	0	
1.8313	33.4508	-6.35377	0	
1.8320	26.7371	-6.05593	0	
1.8327	18.8161	-6.05593	0	
1.8333	13.6335	-6.35377	0	
1.8340	7.83266	-4.53368	0	
1.8347	1.41341	-3.30925	0	
1.8353	-0.117784	-2.6805	0	
1.8360	-3.47464	-1.15824	0	
1.8367	-18.1094	-0.860406	0	
1.8373	-36.7193	-0.562573	0	
1.8380	-47.4082	1.58844	0	
1.8387	-50.1467	2.48194	0	
1.8393	-46.4954	0.959683	0	
1.8400	-40.0761	0.959683	0	
1.8407	-34.5992	1.88627	0	
1.8413	-27.5616	-0.26474	0	
1.8420	-18.1094	-2.08483	0	
1.8427	-11.6901	-2.08483	0	
1.8433	-7.74433	-3.60709	0	
1.8440	-4.06356	-4.83151	0	
1.8447	0.206123	-3.60709	0	
1.8453	3.85744	-3.90492	0	
1.8460	7.83266	-6.05593	0	
1.8467	16.372	-6.05593	0	
1.8473	31.0362	-7.57819	0	
1.8480	43.8452	-12.145	0	
1.8487	46.8782	-13.9981	0	
1.8493	44.1397	-10.9205	0	
1.8500	39.5756	-8.17386	0	
1.8507	32.5379	-7.28036	0	
1.8513	25.2353	-6.35377	0	
1.8520	19.1105	-3.60709	0	
1.8527	11.1895	-1.787	0	
1.8533	3.23907	-4.53368	0	
1.8540	-2.2379	-7.28036	0	
1.8547	-6.50759	-4.83151	0	
1.8553	-11.3956	-0.562573	0	
1.8560	-16.5782	-0.26474	0	
1.8567	-25.4414	-1.45607	0	
1.8573	-39.7817	0.0661851	0	
1.8580	-51.9724	2.81287	0	
1.8587	-55.9476	4.63295	0	
1.8593	-55.3292	6.45304	0	
1.8600	-51.9724	7.0818	0	
1.8607	-42.5202	4.33512	0	
1.8613	-31.8312	-1.15824	0	
1.8620	-25.4414	-5.42718	0	
1.8627	-18.1094	-7.28036	0	
1.8633	-9.56998	-8.17386	0	
1.8640	-4.38747	-9.39828	0	
1.8647	0.824491	-9.10045	0	
1.8653	6.007	-7.28036	0	
1.8660	7.5382	-8.17386	0	
1.8667	15.7537	-10.9205	0	
1.8673	34.982	-13.9981	0	
1.8680	47.8205	-17.6383	0	
1.8687	49.6461	-18.5649	0	
1.8693	48.7333	-17.0427	0	
1.8700	43.2269	-15.5204	0	
1.8707	32.2435	-13.0716	0	
1.8713	23.9986	-9.69611	0	
1.8720	17.9032	-8.50478	0	
1.8727	11.8079	-9.69611	0	
1.8733	7.83266	-9.69611	0	
1.8740	2.65015	-8.17386	0	
1.8747	-2.85627	-4.83151	0	
1.8753	-3.47464	-2.6805	0	
1.8760	-7.12596	-2.38266	0	
1.8767	-20.8478	-1.15824	0	
1.8773	-36.1304	2.18411	0	
1.8780	-46.4954	3.70636	0	
1.8787	-53.5036	2.81287	0	
1.8793	-53.2091	1.88627	0	
1.8800	-44.6697	1.88627	0	
1.8807	-35.1881	1.88627	0	
1.8813	-27.2671	1.29061	0	
1.8820	-20.2589	-0.860406	0	
1.8827	-13.5452	-3.60709	0	
1.8833	-6.8315	-4.53368	0	
1.8840	-2.2379	-4.20275	0	
1.8847	-1.03061	-3.60709	0	
1.8853	0.206123	-4.53368	0	
1.8860	6.59593	-4.53368	0	
1.8867	18.5216	-3.90492	0	
1.8873	31.6251	-4.20275	0	
1.8880	43.2269	-6.35377	0	
1.8887	50.559	-8.50478	0	
1.8893	50.559	-8.80261	0	
1.8900	44.4636	-7.28036	0	
1.8907	36.8076	-4.53368	0	
1.8913	29.7995	-3.01142	0	
1.8920	21.2601	-3.60709	0	
1.8927	13.0152	-3.30925	0	
1.8933	7.5382	0.959683	0	
1.8940	4.18135	5.55955	0	
1.8947	1.41341	5.85738	0	
1.8953	-3.47464	6.45304	0	
1.8960	-11.1012	10.4241	0	
1.8967	-21.7607	12.873	0	
1.8973	-36.1304	13.1708	0	
1.8980	-48.3211	13.7996	0	
1.8987	-51.6779	15.6197	0	
1.8993	-49.5578	17.7376	0	
1.9000	-46.4954	18.6642	0	
1.9007	-38.5449	16.5463	0	
1.9013	-28.7983	14.0974	0	
1.9020	-22.7029	12.5752	0	
1.9027	-16.5782	8.60406	0	
1.9033	-8.65715	6.75088	0	
1.9040	-2.85627	8.60406	0	
1.9047	3.23907	7.67747	0	
1.9053	10.2767	5.55955	0	
1.9060	13.3096	7.37963	0	
1.9067	22.4674	5.55955	0	
1.9073	41.1068	0.0661851	0	
1.9080	53.2974	-1.787	0	
1.9087	53.5919	-1.45607	0	
1.9093	51.4718	-1.787	0	
1.9100	45.9654	0.959683	0	
1.9107	34.0691	2.81287	0	
1.9113	25.8242	2.81287	0	
1.9120	22.7913	5.22862	0	
1.9127	17.6088	6.45304	0	
1.9133	11.1895	3.40853	0	
1.9140	5.6831	2.48194	0	
1.9147	1.41341	4.63295	0	
1.9153	-1.61954	6.75088	0	
1.9160	-6.8315	9.49756	0	
1.9167	-19.935	10.4241	0	
1.9173	-37.0432	10.722	0	
1.9180	-46.7899	13.4687	0	
1.9187	-49.8523	14.6931	0	
1.9193	-49.2339	12.873	0	
1.9200	-44.0514	11.9464	0	
1.9207	-36.1304	13.1708	0	
1.9213	-29.7111	12.5752	0	
1.9220	-24.5286	8.60406	0	
1.9227	-19.6406	4.33512	0	
1.9233	-15.9892	1.88627	0	
1.9240	-11.6901	0.959683	0	
1.9247	-6.21313	0.364018	0	
1.9253	-3.47464	0.364018	0	
1.9260	0.500584	0.0661851	0	
1.9267	13.6335	-2.6805	0	
1.9273	31.3307	-7.28036	0	
1.9280	43.8452	-10.6227	0	
1.9287	48.1149	-11.2515	0	
1.9293	47.2021	-10.027	0	
1.9300	43.5213	-9.10045	0	
1.9307	37.426	-8.50478	0	
1.9313	27.9738	-6.94943	0	
1.9320	19.7289	-4.53368	0	
1.9327	14.2519	-1.787	0	
1.9333	8.74549	-0.860406	0	
1.9340	2.94461	-1.45607	0	
1.9347	-2.2379	0.661851	0	
1.9353	-7.42042	5.55955	0	
1.9360	-10.7773	6.45304	0	
1.9367	-18.1094	5.55955	0	
1.9373	-33.6863	9.19972	0	
1.9380	-46.4954	11.0529	0	
1.9387	-48.3211	10.1263	0	
1.9393	-46.4954	11.9464	0	
1.9400	-44.9642	11.0529	0	
1.9407	-38.2505	6.45304	0	
1.9413	-29.0927	5.55955	0	
1.9420	-22.0846	7.37963	0	
1.9427	-16.9021	4.33512	0	
1.9433	-11.6901	1.29061	0	
1.9440	-6.21313	-0.26474	0	
1.9447	-0.706706	-2.38266	0	
1.9453	2.32624	-2.6805	0	
1.9460	4.77027	-3.60709	0	
1.9467	14.8408	-6.94943	0	
1.9473	31.6251	-7.57819	0	
1.9480	44.1397	-6.35377	0	
1.9487	46.8782	-8.17386	0	
1.9493	44.4636	-8.17386	0	
1.9500	40.4884	-4.53368	0	
1.9507	32.8619	-4.20275	0	
1.9513	23.9986	-5.7581	0	
1.9520	17.6088	-3.60709	0	
1.9527	13.0152	-0.860406	0	
1.9533	8.12712	-0.562573	0	
1.9540	1.41341	1.88627	0	
1.9547	-4.06356	4.33512	0	
1.9553	-6.21313	3.70636	0	
1.9560	-8.95162	4.63295	0	
1.9567	-19.0222	8.30623	0	
1.9573	-35.512	10.4241	0	
1.9580	-48.6155	11.3507	0	
1.9587	-52.9146	12.873	0	
1.9593	-50.4706	12.2442	0	
1.9600	-44.6697	11.0529	0	
1.9607	-36.7193	10.722	0	
1.9613	-28.7983	8.60406	0	
1.9620	-22.0846	5.55955	0	
1.9627	-14.1341	4.33512	0	
1.9633	-5.3003	0.959683	0	
1.9640	-1.03061	-3.30925	0	
1.9647	1.73732	-3.60709	0	
1.9653	7.2143	-3.30925	0	
1.9660	13.6335	-5.42718	0	
1.9667	22.4674	-6.94943	0	
1.9673	35.6003	-9.10045	0	
1.9680	45.9654	-11.8471	0	
1.9687	51.1773	-10.6227	0	
1.9693	53.2974	-8.17386	0	
1.9700	49.6461	-9.10045	0	
1.9707	40.4884	-8.50478	0	
1.9713	31.3307	-5.7581	0	
1.9720	24.9114	-6.35377	0	
1.9727	19.4344	-6.94943	0	
1.9733	14.2519	-3.60709	0	
1.9740	9.65832	-1.787	0	
1.9747	6.59593	-3.01142	0	
1.9753	2.94461	-1.45607	0	
1.9760	-4.38747	1.29061	0	
1.9767	-15.6653	2.48194	0	
1.9773	-31.2423	4.03729	0	
1.9780	-44.3458	5.85738	0	
1.9787	-47.4082	5.22862	0	
1.9793	-45.5826	5.22862	0	
1.9800	-44.3458	5.55955	0	
1.9807	-39.1633	1.88627	0	
1.9813	-28.7983	-0.562573	0	
1.9820	-21.7607	1.88627	0	
1.9827	-17.1965	3.40853	0	
1.9833	-9.86444	0.959683	0	
1.9840	-1.32507	-0.562573	0	
1.9847	4.77027	-0.860406	0	
1.9853	7.5382	0.364018	0	
1.9860	9.36386	0.959683	0	
1.9867	18.8161	-2.38266	0	
1.9873	34.982	-4.53368	0	
1.9880	44.7581	-3.60709	0	
1.9887	45.9654	-4.20275	0	
1.9893	45.9654	-6.94943	0	
1.9900	43.8452	-6.94943	0	
1.9907	36.8076	-4.83151	0	
1.9913	27.9738	-2.08483	0	
1.9920	20.0233	-0.562573	0	
1.9927	13.0152	-1.787	0	
1.9933	8.45103	-1.45607	0	
1.9940	3.85744	0.959683	0	
1.9947	0.206123	0.0661851	0	
1.9953	-1.94344	-0.26474	0	
1.9960	-5.88922	4.63295	0	
1.9967	-18.1094	9.19972	0	
1.9973	-33.9808	10.4241	0	
1.9980	-46.7899	11.6486	0	
1.9987	-51.9724	12.5752	0	
1.9993	-47.4082	13.7996	0	
2.0000	-39.1633	13.7996	0	
2.0007	-33.9808	10.4241	0	
2.0013	-30.0056	7.67747	0	
2.0020	-22.7029	7.0818	0	
2.0027	-15.9892	4.03729	0	
2.0033	-12.3085	1.88627	0	
2.0040	-8.03879	2.48194	0	
2.0047	-1.32507	2.81287	0	
2.0053	2.94461	2.18411	0	
2.0060	4.77027	3.1107	0	
2.0067	13.928	0.959683	0	
2.0073	31.3307	-4.53368	0	
2.0080	43.5213	-6.94943	0	
2.0087	46.8782	-4.83151	0	
2.0093	46.2893	-4.53368	0	
2.0100	41.6957	-4.53368	0	
2.0107	34.982	-0.26474	0	
2.0113	29.7995	2.81287	0	
2.0120	23.9986	0.364018	0	
2.0127	15.1647	0.959683	0	
2.0133	9.36386	5.55955	0	
2.0140	6.007	5.22862	0	
2.0147	1.11895	1.29061	0	
2.0153	-1.61954	0.661851	0	
2.0160	-3.47464	3.1107	0	
2.0167	-16.2837	5.85738	0	
2.0173	-36.4248	8.60406	0	
2.0180	-49.2339	8.90189	0	
2.0187	-51.3834	6.75088	0	
2.0193	-50.1467	7.9753	0	
2.0200	-46.2009	10.722	0	
2.0207	-38.2505	7.37963	0	
2.0213	-30.0056	2.81287	0	
2.0220	-23.2919	1.88627	0	
2.0227	-15.6653	0.959683	0	
2.0233	-6.50759	-1.787	0	
2.0240	-0.117784	0.364018	0	
2.0247	3.23907	1.58844	0	
2.0253	6.59593	-2.38266	0	
2.0260	11.1895	-3.60709	0	
2.0267	20.3473	-1.787	0	
2.0273	34.0691	-3.60709	0	
2.0280	44.7581	-8.17386	0	
2.0287	46.8782	-10.3249	0	
2.0293	43.2269	-8.17386	0	
2.0300	37.426	-3.60709	0	
2.0307	32.5379	-2.38266	0	
2.0313	27.6793	-3.30925	0	
2.0320	18.8161	-1.45607	0	
2.0327	11.8079	0.959683	0	
2.0333	8.74549	0.364018	0	
2.0340	2.94461	1.58844	0	
2.0347	-4.68193	3.70636	0	
2.0353	-6.21313	3.70636	0	
2.0360	-8.95162	2.48194	0	
2.0367	-22.7029	3.70636	0	
2.0373	-37.956	7.0818	0	
2.0380	-46.4954	9.19972	0	
2.0387	-50.4706	10.1263	0	
2.0393	-49.2339	10.1263	0	
2.0400	-41.9018	6.45304	0	
2.0407	-33.9808	1.88627	0	
2.0413	-29.0927	2.48194	0	
2.0420	-23.2919	3.70636	0	
2.0427	-15.3709	-0.26474	0	
2.0433	-9.24608	-3.60709	0	
2.0440	-2.53236	-2.08483	0	
2.0447	6.30147	-1.787	0	
2.0453	11.1895	-4.83151	0	
2.0460	13.928	-6.35377	0	
2.0467	27.061	-8.50478	0	
2.0473	45.9654	-13.0716	0	
2.0480	53.5919	-14.5938	0	
2.0487	53.2974	-11.8471	0	
2.0493	54.2103	-11.8471	0	
2.0500	49.9406	-13.0716	0	
2.0507	39.87	-10.027	0	
2.0513	32.8619	-6.94943	0	
2.0520	25.8242	-5.12934	0	
2.0527	15.7537	-1.45607	0	
2.0533	8.45103	0.0661851	0	
2.0540	4.77027	0.0661851	0	
2.0547	0.500584	2.18411	0	
2.0553	-3.15073	0.959683	0	
2.0560	-8.95162	-2.38266	0	
2.0567	-22.379	3.1107	0	
2.0573	-37.3377	11.0529	0	
2.0580	-46.4954	10.4241	0	
2.0587	-49.2339	8.60406	0	
2.0593	-46.4954	9.19972	0	
2.0600	-39.1633	9.19972	0	
2.0607	-31.2423	9.19972	0	
2.0613	-25.1175	7.37963	0	
2.0620	-18.1094	1.88627	0	
2.0627	-9.86444	0.661851	0	
2.0633	-4.68193	3.70636	0	
2.0640	-1.94344	2.18411	0	
2.0647	2.65015	-2.08483	0	
2.0653	6.007	-3.90492	0	
2.0660	8.45103	-6.35377	0	
2.0667	17.2849	-9.39828	0	
2.0673	31.949	-10.9205	0	
2.0680	42.0196	-11.8471	0	
2.0687	44.1397	-13.6672	0	
2.0693	43.2269	-14.8916	0	
2.0700	38.3388	-16.4139	0	
2.0707	29.505	-16.4139	0	
2.0713	20.9656	-11.8471	0	
2.0720	14.5464	-8.17386	0	
2.0727	8.45103	-6.6516	0	
2.0733	4.18135	-3.60709	0	
2.0740	0.206123	-0.26474	0	
2.0747	-5.59476	-1.787	0	
2.0753	-9.56998	-3.60709	0	
2.0760	-12.6029	0.364018	0	
2.0767	-22.9974	5.55955	0	
2.0773	-39.4872	5.85738	0	
2.0780	-50.1467	4.03729	0	
2.0787	-51.3834	5.55955	0	
2.0793	-48.3211	8.30623	0	
2.0800	-43.433	7.37963	0	
2.0807	-37.6321	5.22862	0	
2.0813	-31.5368	4.03729	0	
2.0820	-22.9974	1.58844	0	
2.0827	-13.8397	0.0661851	0	
2.0833	-8.03879	1.58844	0	
2.0840	-3.47464	0.959683	0	
2.0847	0.500584	-2.6805	0	
2.0853	2.03178	-1.787	0	
2.0860	6.59593	-0.562573	0	
2.0867	20.3473	-5.42718	0	
2.0873	35.3059	-9.10045	0	
2.0880	44.7581	-8.17386	0	
2.0887	48.1149	-10.027	0	
2.0893	45.3764	-12.4428	0	
2.0900	38.3388	-10.3249	0	
2.0907	32.5379	-7.57819	0	
2.0913	28.5922	-7.28036	0	
2.0920	22.1729	-4.83151	0	
2.0927	15.4592	-1.45607	0	
2.0933	11.1895	-0.562573	0	
2.0940	6.30147	0.0661851	0	
2.0947	0.206123	3.40853	0	
2.0953	-4.06356	5.55955	0	
2.0960	-8.03879	5.85738	0	
2.0967	-18.7277	8.90189	0	
2.0973	-34.2753	12.2442	0	
2.0980	-44.6697	11.9464	0	
2.0987	-45.5826	12.2442	0	
2.0993	-42.2257	12.873	0	
2.1000	-38.5449	10.722	0	
2.1007	-33.068	8.90189	0	
2.1013	-25.4414	8.90189	0	
2.1020	-18.1094	6.45304	0	
2.1027	-12.6029	4.33512	0	
2.1033	-7.42042	4.63295	0	
2.1040	-0.117784	2.81287	0	
2.1047	6.30147	-1.15824	0	
2.1053	8.45103	-1.45607	0	
2.1060	14.5464	-0.860406	0	
2.1067	28.5922	-3.01142	0	
2.1073	42.314	-4.53368	0	
2.1080	49.9406	-4.53368	0	
2.1087	52.0902	-6.35377	0	
2.1093	49.6461	-7.28036	0	
2.1100	44.7581	-5.12934	0	
2.1107	39.2517	-3.60709	0	
2.1113	28.5922	-3.90492	0	
2.1120	15.1647	-3.01142	0	
2.1127	9.36386	-0.860406	0	
2.1133	7.5382	0.0661851	0	
2.1140	1.41341	1.29061	0	
2.1147	-4.38747	3.70636	0	
2.1153	-7.12596	4.03729	0	
2.1160	-14.458	2.18411	0	
2.1167	-28.1799	4.63295	0	
2.1173	-40.6945	11.0529	0	
2.1180	-49.2339	13.7996	0	
2.1187	-55.3292	9.19972	0	
2.1193	-55.0348	5.85738	0	
2.1200	-48.9394	5.22862	0	
2.1207	-41.3129	3.1107	0	
2.1213	-33.6863	1.29061	0	
2.1220	-26.0598	2.81287	0	
2.1227	-18.1094	3.40853	0	
2.1233	-11.1012	1.58844	0	
2.1240	-6.21313	0.0661851	0	
2.1247	-3.15073	-1.787	0	
2.1253	0.500584	-3.01142	0	
2.1260	8.12712	-3.01142	0	
2.1267	21.2601	-3.90492	0	
2.1273	35.8948	-7.57819	0	
2.1280	45.6709	-9.39828	0	
2.1287	49.0278	-10.027	0	
2.1293	46.5837	-10.9205	0	
2.1300	39.5756	-8.80261	0	
2.1307	31.949	-5.12934	0	
2.1313	22.7913	-4.83151	0	
2.1320	11.1895	-3.60709	0	
2.1327	3.85744	-0.562573	0	
2.1333	2.65015	-0.26474	0	
2.1340	-1.94344	0.959683	0	
2.1347	-7.74433	4.63295	0	
2.1353	-8.95162	4.03729	0	
2.1360	-13.5452	2.81287	0	
2.1367	-27.2671	7.37963	0	
2.1373	-41.6073	10.1263	0	
2.1380	-49.8523	9.19972	0	
2.1387	-53.2091	10.722	0	
2.1393	-51.6779	12.873	0	
2.1400	-44.6697	12.2442	0	
2.1407	-35.512	11.9464	0	
2.1413	-27.5616	11.3507	0	
2.1420	-21.1717	7.37963	0	
2.1427	-15.047	3.1107	0	
2.1433	-8.33325	0.661851	0	
2.1440	-2.85627	-0.860406	0	
2.1447	1.11895	-2.08483	0	
2.1453	2.94461	-3.90492	0	
2.1460	8.74549	-8.17386	0	
2.1467	23.0857	-11.2515	0	
2.1473	40.4884	-11.8471	0	
2.1480	49.9406	-10.9205	0	
2.1487	50.2351	-10.3249	0	
2.1493	47.4966	-10.6227	0	
2.1500	42.314	-10.027	0	
2.1507	35.3059	-8.80261	0	
2.1513	29.1811	-7.87602	0	
2.1520	22.1729	-5.42718	0	
2.1527	14.8408	-2.6805	0	
2.1533	10.5712	-1.45607	0	
2.1540	6.91983	-0.562573	0	
2.1547	1.11895	1.58844	0	
2.1553	-2.53236	0.959683	0	
2.1560	-6.8315	-1.45607	0	
2.1567	-19.0222	0.661851	0	
2.1573	-35.512	4.63295	0	
2.1580	-45.5826	4.63295	0	
2.1587	-48.0266	2.81287	0	
2.1593	-44.9642	4.63295	0	
2.1600	-38.2505	7.0818	0	
2.1607	-32.4496	6.15521	0	
2.1613	-26.9726	1.88627	0	
2.1620	-18.4038	0.364018	0	
2.1627	-10.7773	2.18411	0	
2.1633	-8.03879	1.58844	0	
2.1640	-4.06356	-0.860406	0	
2.1647	3.85744	-0.26474	0	
2.1653	10.2767	0.0661851	0	
2.1660	16.0776	-3.60709	0	
2.1667	27.061	-6.94943	0	
2.1673	41.4012	-9.10045	0	
2.1680	51.1773	-10.027	0	
2.1687	55.1231	-8.80261	0	
2.1693	54.5342	-8.80261	0	
2.1700	48.7333	-11.2515	0	
2.1707	38.0444	-10.027	0	
2.1713	29.505	-5.42718	0	
2.1720	23.9986	-3.60709	0	
2.1727	17.2849	-3.60709	0	
2.1733	10.5712	-1.787	0	
2.1740	6.30147	-0.26474	0	
2.1747	2.03178	-0.26474	0	
2.1753	-1.94344	0.0661851	0	
2.1760	-7.42042	2.18411	0	
2.1767	-20.8478	5.22862	0	
2.1773	-37.956	6.15521	0	
2.1780	-47.1138	5.55955	0	
2.1787	-48.6155	6.15521	0	
2.1793	-47.4082	6.45304	0	
2.1800	-41.9018	4.33512	0	
2.1807	-33.6863	3.70636	0	
2.1813	-28.7983	2.81287	0	
2.1820	-22.9974	-1.15824	0	
2.1827	-15.3709	-4.83151	0	
2.1833	-10.1884	-5.12934	0	
2.1840	-3.7691	-4.53368	0	
2.1847	4.77027	-5.7581	0	
2.1853	8.45103	-8.17386	0	
2.1860	10.8951	-9.69611	0	
2.1867	23.9986	-10.027	0	
2.1873	40.4884	-10.6227	0	
2.1880	49.0278	-10.3249	0	
2.1887	51.7662	-10.027	0	
2.1893	50.559	-11.8471	0	
2.1900	43.2269	-12.7737	0	
2.1907	34.982	-9.10045	0	
2.1913	31.949	-7.57819	0	
2.1920	27.061	-7.57819	0	
2.1927	17.2849	-5.42718	0	
2.1933	9.36386	-4.20275	0	
2.1940	4.77027	-3.60709	0	
2.1947	2.32624	0.0661851	0	
2.1953	-0.412245	1.88627	0	
2.1960	-8.03879	0.959683	0	
2.1967	-21.7607	4.63295	0	
2.1973	-34.5992	9.49756	0	
2.1980	-43.433	8.60406	0	
2.1987	-49.5578	6.75088	0	
2.1993	-49.2339	9.49756	0	
2.2000	-41.6073	11.0529	0	
2.2007	-34.5992	8.90189	0	
2.2013	-28.1799	6.45304	0	
2.2020	-20.2589	4.63295	0	
2.2027	-15.6653	4.63295	0	
2.2033	-13.2213	6.45304	0	
2.2040	-6.8315	7.67747	0	
2.2047	-1.61954	4.63295	0	
2.2053	-2.2379	0.661851	0	
2.2060	2.03178	0.0661851	0	
2.2067	16.6665	0.364018	0	
2.2073	33.1563	-2.38266	0	
2.2080	40.7829	-4.53368	0	
2.2087	43.2269	-3.60709	0	
2.2093	42.6085	-3.60709	0	
2.2100	37.1315	-8.17386	0	
2.2107	28.2683	-8.17386	0	
2.2113	19.7289	-2.38266	0	
2.2120	13.0152	1.29061	0	
2.2127	7.83266	0.364018	0	
2.2133	2.94461	0.0661851	0	
2.2140	-2.2379	1.58844	0	
2.2147	-6.21313	1.88627	0	
2.2153	-6.21313	0.0661851	0	
2.2160	-10.1884	0.0661851	0	
2.2167	-24.5286	3.70636	0	
2.2173	-42.5202	7.0818	0	
2.2180	-51.9724	8.30623	0	
2.2187	-53.5036	9.49756	0	
2.2193	-52.9146	8.60406	0	
2.2200	-50.1467	4.93079	0	
2.2207	-43.1385	4.33512	0	
2.2213	-35.8065	4.03729	0	
2.2220	-30.9184	-0.26474	0	
2.2227	-25.4414	-2.6805	0	
2.2233	-19.3461	-1.15824	0	
2.2240	-14.458	-2.38266	0	
2.2247	-8.95162	-3.60709	0	
2.2253	-4.06356	-1.787	0	
2.2260	2.03178	-4.20275	0	
2.2267	16.9904	-9.39828	0	
2.2273	36.2187	-9.10045	0	
2.2280	46.5837	-6.6516	0	
2.2287	50.2351	-7.57819	0	
2.2293	50.2351	-7.57819	0	
2.2300	42.6085	-5.12934	0	
2.2307	33.1563	-3.60709	0	
2.2313	27.061	-3.60709	0	
2.2320	19.4344	-3.60709	0	
2.2327	11.8079	-4.83151	0	
2.2333	7.5382	-4.53368	0	
2.2340	3.23907	-4.53368	0	
2.2347	-1.61954	-6.35377	0	
2.2353	-4.68193	-5.42718	0	
2.2360	-9.24608	-1.15824	0	
2.2367	-22.7029	2.48194	0	
2.2373	-40.0761	4.33512	0	
2.2380	-49.8523	4.63295	0	
2.2387	-48.6155	2.81287	0	
2.2393	-44.3458	1.58844	0	
2.2400	-37.956	3.70636	0	
2.2407	-27.8855	3.70636	0	
2.2413	-21.1717	2.48194	0	
2.2420	-15.9892	3.70636	0	
2.2427	-7.12596	1.29061	0	
2.2433	1.11895	-1.787	0	
2.2440	3.85744	0.959683	0	
2.2447	6.59593	-0.562573	0	
2.2453	10.2767	-8.17386	0	
2.2460	15.4592	-6.94943	0	
2.2467	25.8242	-2.6805	0	
2.2473	38.0444	-8.17386	0	
2.2480	46.2893	-12.4428	0	
2.2487	49.6461	-7.57819	0	
2.2493	48.4094	-6.35377	0	
2.2500	43.8452	-6.6516	0	
2.2507	38.6627	-4.53368	0	
2.2513	31.0362	-4.83151	0	
2.2520	21.2601	-5.42718	0	
2.2527	14.5464	-3.30925	0	
2.2533	10.5712	-3.30925	0	
2.2540	6.007	-3.90492	0	
2.2547	1.41341	-0.26474	0	
2.2553	-1.03061	2.81287	0	
2.2560	-5.3003	3.70636	0	
2.2567	-18.1094	6.45304	0	
2.2573	-35.1881	8.60406	0	
2.2580	-44.3458	9.49756	0	
2.2587	-44.0514	11.0529	0	
2.2593	-42.8441	9.82848	0	
2.2600	-40.0761	6.15521	0	
2.2607	-30.6239	5.55955	0	
2.2613	-22.7029	5.22862	0	
2.2620	-18.1094	1.88627	0	
2.2627	-10.7773	0.364018	0	
2.2633	-3.7691	2.18411	0	
2.2640	-0.117784	2.81287	0	
2.2647	5.09418	0.364018	0	
2.2653	9.65832	-1.787	0	
2.2660	14.2519	-2.6805	0	
2.2667	28.5922	-2.6805	0	
2.2673	46.8782	-4.83151	0	
2.2680	54.2103	-6.6516	0	
2.2687	54.2103	-5.42718	0	
2.2693	54.2103	-4.83151	0	
2.2700	50.8534	-6.05593	0	
2.2707	42.314	-3.90492	0	
2.2713	32.2435	-0.860406	0	
2.2720	24.6169	0.364018	0	
2.2727	20.3473	2.81287	0	
2.2733	16.372	4.63295	0	
2.2740	8.74549	2.81287	0	
2.2747	2.32624	3.40853	0	
2.2753	0.206123	6.15521	0	
2.2760	-4.97639	5.55955	0	
2.2767	-19.0222	5.85738	0	
2.2773	-35.1881	9.82848	0	
2.2780	-44.0514	11.0529	0	
2.2787	-46.2009	10.722	0	
2.2793	-44.3458	12.873	0	
2.2800	-37.6321	12.5752	0	
2.2807	-31.5368	8.90189	0	
2.2813	-29.0927	7.0818	0	
2.2820	-22.7029	5.55955	0	
2.2827	-11.6901	3.70636	0	
2.2833	-5.3003	2.81287	0	
2.2840	-2.2379	1.58844	0	
2.2847	3.23907	0.959683	0	
2.2853	8.12712	1.88627	0	
2.2860	12.1023	0.661851	0	
2.2867	23.0857	-5.12934	0	
2.2873	39.2517	-10.9205	0	
2.2880	48.4094	-13.6672	0	
2.2887	48.1149	-13.0716	0	
2.2893	44.1397	-9.10045	0	
2.2900	37.1315	-5.42718	0	
2.2907	29.7995	-3.90492	0	
2.2913	24.9114	-3.30925	0	
2.2920	17.9032	-2.6805	0	
2.2927	7.5382	-3.60709	0	
2.2933	1.11895	-3.90492	0	
2.2940	-2.2379	-0.860406	0	
2.2947	-4.68193	0.959683	0	
2.2953	-4.97639	0.0661851	0	
2.2960	-10.7773	0.364018	0	
2.2967	-27.8855	3.70636	0	
2.2973	-43.7569	6.45304	0	
2.2980	-51.3834	8.30623	0	
2.2987	-53.8275	9.19972	0	
2.2993	-51.6779	7.67747	0	
2.3000	-46.7899	4.63295	0	
2.3007	-40.989	4.33512	0	
2.3013	-33.3624	3.1107	0	
2.3020	-26.0598	-0.26474	0	
2.3027	-20.2589	-1.45607	0	
2.3033	-14.7525	-1.787	0	
2.3040	-10.4828	-4.53368	0	
2.3047	-6.8315	-6.05593	0	
2.3053	-2.53236	-3.60709	0	
2.3060	3.85744	-3.60709	0	
2.3067	17.6088	-7.57819	0	
2.3073	34.0691	-9.10045	0	
2.3080	42.6085	-9.10045	0	
2.3087	43.8452	-11.5493	0	
2.3093	42.314	-11.8471	0	
2.3100	35.6003	-7.87602	0	
2.3107	28.5922	-5.12934	0	
2.3113	25.8242	-5.12934	0	
2.3120	21.5545	-5.7581	0	
2.3127	15.7537	-7.28036	0	
2.3133	13.0152	-8.50478	0	
2.3140	8.12712	-7.87602	0	
2.3147	0.206123	-5.42718	0	
2.3153	-2.53236	-2.6805	0	
2.3160	-5.59476	0.364018	0	
2.3167	-19.0222	2.81287	0	
2.3173	-36.4248	4.33512	0	
2.3180	-44.3458	4.63295	0	
2.3187	-45.5826	4.03729	0	
2.3193	-45.5826	4.63295	0	
2.3200	-43.1385	5.55955	0	
2.3207	-36.7193	4.33512	0	
2.3213	-29.0927	2.81287	0	
2.3220	-21.1717	3.40853	0	
2.3227	-13.5452	2.81287	0	
2.3233	-8.33325	-0.562573	0	
2.3240	-3.7691	-2.38266	0	
2.3247	0.206123	-1.15824	0	
2.3253	2.03178	-1.787	0	
2.3260	5.09418	-5.7581	0	
2.3267	18.5216	-10.3249	0	
2.3273	36.8076	-13.3694	0	
2.3280	45.3764	-13.3694	0	
2.3287	44.7581	-10.9205	0	
2.3293	45.6709	-10.9205	0	
2.3300	44.1397	-12.145	0	
2.3307	34.393	-7.28036	0	
2.3313	24.9114	-2.08483	0	
2.3320	19.4344	-2.6805	0	
2.3327	14.2519	-3.60709	0	
2.3333	9.65832	-0.860406	0	
2.3340	5.38864	0.0661851	0	
2.3347	0.206123	-0.26474	0	
2.3353	-4.38747	1.58844	0	
2.3360	-9.86444	2.18411	0	
2.3367	-22.0846	2.81287	0	
2.3373	-36.4248	6.45304	0	
2.3380	-44.9642	8.60406	0	
2.3387	-47.7027	7.37963	0	
2.3393	-45.5826	6.75088	0	
2.3400	-40.0761	7.37963	0	
2.3407	-34.8936	6.15521	0	
2.3413	-31.8312	4.33512	0	
2.3420	-28.1799	1.88627	0	
2.3427	-22.379	1.58844	0	
2.3433	-15.9892	4.33512	0	
2.3440	-10.1884	5.22862	0	
2.3447	-4.06356	4.33512	0	
2.3453	0.500584	4.33512	0	
2.3460	5.09418	0.959683	0	
2.3467	17.9032	-4.20275	0	
2.3473	34.982	-4.83151	0	
2.3480	44.1397	-4.53368	0	
2.3487	45.0525	-6.94943	0	
2.3493	44.7581	-6.05593	0	
2.3500	40.7829	-2.6805	0	
2.3507	33.1563	-1.787	0	
2.3513	25.5298	0.0661851	0	
2.3520	20.0233	1.58844	0	
2.3527	15.7537	-0.860406	0	
2.3533	9.36386	-1.787	0	
2.3540	1.41341	1.58844	0	
2.3547	-4.06356	2.81287	0	
2.3553	-6.21313	4.03729	0	
2.3560	-12.3085	6.45304	0	
2.3567	-26.3543	7.37963	0	
2.3573	-41.9018	8.30623	0	
2.3580	-49.5578	11.0529	0	
2.3587	-49.2339	11.9464	0	
2.3593	-47.1138	9.19972	0	
2.3600	-45.5826	5.55955	0	
2.3607	-41.6073	4.03729	0	
2.3613	-34.8936	4.63295	0	
2.3620	-25.7359	3.1107	0	
2.3627	-16.5782	-0.562573	0	
2.3633	-11.6901	-0.860406	0	
2.3640	-8.95162	0.0661851	0	
2.3647	-4.38747	-1.787	0	
2.3653	0.206123	-2.08483	0	
2.3660	5.6831	-2.08483	0	
2.3667	19.4344	-6.35377	0	
2.3673	36.2187	-8.50478	0	
2.3680	45.9654	-6.94943	0	
2.3687	47.8205	-7.87602	0	
2.3693	46.2893	-8.17386	0	
2.3700	40.4884	-5.42718	0	
2.3707	31.3307	-3.60709	0	
2.3713	22.1729	-2.6805	0	
2.3720	14.2519	-1.45607	0	
2.3727	8.12712	-1.787	0	
2.3733	2.94461	-1.787	0	
2.3740	-3.7691	-0.26474	0	
2.3747	-7.12596	-2.08483	0	
2.3753	-5.88922	-1.787	0	
2.3760	-11.6901	1.88627	0	
2.3767	-26.6487	2.48194	0	
2.3773	-40.0761	1.88627	0	
2.3780	-47.4082	6.45304	0	
2.3787	-51.0595	8.30623	0	
2.3793	-48.6155	6.75088	0	
2.3800	-40.989	7.37963	0	
2.3807	-33.6863	5.55955	0	
2.3813	-26.0598	0.959683	0	
2.3820	-16.9021	2.18411	0	
2.3827	-9.24608	4.03729	0	
2.3833	-4.68193	0.364018	0	
2.3840	-1.32507	-0.860406	0	
2.3847	2.94461	2.18411	0	
2.3853	6.59593	1.88627	0	
2.3860	11.1895	-1.787	0	
2.3867	24.9114	-6.35377	0	
2.3873	43.2269	-11.8471	0	
2.3880	51.4718	-13.9981	0	
2.3887	50.559	-13.6672	0	
2.3893	49.0278	-14.5938	0	
2.3900	45.9654	-14.296	0	
2.3907	39.5756	-12.145	0	
2.3913	33.7747	-10.9205	0	
2.3920	25.2353	-8.17386	0	
2.3927	16.0776	-6.35377	0	
2.3933	11.484	-7.28036	0	
2.3940	8.45103	-5.7581	0	
2.3947	4.77027	-2.08483	0	
2.3953	0.824491	-0.860406	0	
2.3960	-6.50759	-0.860406	0	
2.3967	-19.6406	0.364018	0	
2.3973	-35.1881	2.81287	0	
2.3980	-45.877	5.55955	0	
2.3987	-46.4954	6.45304	0	
2.3993	-42.8441	6.75088	0	
2.4000	-39.4872	6.45304	0	
2.4007	-33.6863	4.03729	0	
2.4013	-24.5286	0.959683	0	
2.4020	-16.2837	0.959683	0	
2.4027	-8.95162	0.959683	0	
2.4033	-5.59476	-0.860406	0	
2.4040	-2.53236	-1.45607	0	
2.4047	4.18135	-2.38266	0	
2.4053	9.95278	-3.60709	0	
2.4060	13.0152	-3.30925	0	
2.4067	25.2353	-3.01142	0	
2.4073	42.314	-5.7581	0	
2.4080	49.9406	-8.80261	0	
2.4087	51.7662	-8.17386	0	
2.4093	52.6791	-5.7581	0	
2.4100	46.8782	-5.42718	0	
2.4107	36.5132	-4.83151	0	
2.4113	27.6793	-3.30925	0	
2.4120	20.3473	-2.08483	0	
2.4127	13.928	-1.45607	0	
2.4133	9.95278	-0.26474	0	
2.4140	4.77027	0.0661851	0	
2.4147	0.500584	0.661851	0	
2.4153	-2.53236	1.58844	0	
2.4160	-10.7773	2.18411	0	
2.4167	-23.2919	3.70636	0	
2.4173	-34.8936	4.93079	0	
2.4180	-44.3458	4.63295	0	
2.4187	-49.2339	5.55955	0	
2.4193	-46.7899	7.67747	0	
2.4200	-40.989	6.75088	0	
2.4207	-32.7735	4.63295	0	
2.4213	-21.7607	4.33512	0	
2.4220	-12.014	3.70636	0	
2.4227	-8.03879	2.81287	0	
2.4233	-3.47464	3.1107	0	
2.4240	4.77027	1.88627	0	
2.4247	10.2767	-0.562573	0	
2.4253	9.36386	-0.562573	0	
2.4260	11.8079	-1.15824	0	
2.4267	24.9114	-4.83151	0	
2.4273	40.7829	-6.94943	0	
2.4280	49.6461	-5.42718	0	
2.4287	50.2351	-5.42718	0	
2.4293	46.8782	-6.05593	0	
2.4300	41.4012	-4.20275	0	
2.4307	33.1563	-3.60709	0	
2.4313	25.5298	-3.60709	0	
2.4320	19.4344	-0.860406	0	
2.4327	14.8408	0.959683	0	
2.4333	9.03995	0.0661851	0	
2.4340	0.206123	1.88627	0	
2.4347	-6.21313	4.03729	0	
2.4353	-7.12596	3.70636	0	
2.4360	-12.3085	4.63295	0	
2.4367	-29.0927	8.60406	0	
2.4373	-46.4954	10.722	0	
2.4380	-52.9146	10.4241	0	
2.4387	-52.2963	10.4241	0	
2.4393	-49.8523	9.82848	0	
2.4400	-43.7569	7.9753	0	
2.4407	-36.4248	5.55955	0	
2.4413	-29.7111	1.88627	0	
2.4420	-21.1717	-0.26474	0	
2.4427	-14.7525	0.0661851	0	
2.4433	-11.6901	0.364018	0	
2.4440	-6.21313	-0.860406	0	
2.4447	0.206123	0.364018	0	
2.4453	2.94461	2.81287	0	
2.4460	8.12712	0.661851	0	
2.4467	20.9656	-3.30925	0	
2.4473	34.982	-4.83151	0	
2.4480	45.0525	-6.35377	0	
2.4487	47.8205	-8.50478	0	
2.4493	42.314	-9.10045	0	
2.4500	35.6003	-6.6516	0	
2.4507	31.3307	-4.20275	0	
2.4513	25.8242	-3.60709	0	
2.4520	18.8161	-3.60709	0	
2.4527	13.3096	-0.860406	0	
2.4533	8.45103	2.81287	0	
2.4540	3.56298	0.959683	0	
2.4547	-1.32507	-2.38266	0	
2.4553	-8.03879	-2.38266	0	
2.4560	-16.2837	0.0661851	0	
2.4567	-28.4744	3.1107	0	
2.4573	-44.0514	6.45304	0	
2.4580	-51.9724	8.90189	0	
2.4587	-51.3834	9.19972	0	
2.4593	-51.3834	8.60406	0	
2.4600	-47.4082	6.45304	0	
2.4607	-37.3377	4.63295	0	
2.4613	-29.4167	5.55955	0	
2.4620	-22.0846	4.03729	0	
2.4627	-13.2213	-2.08483	0	
2.4633	-8.65715	-5.42718	0	
2.4640	-4.97639	-3.30925	0	
2.4647	2.03178	-2.38266	0	
2.4653	4.18135	-3.60709	0	
2.4660	7.5382	-3.30925	0	
2.4667	23.0857	-3.01142	0	
2.4673	42.314	-5.7581	0	
2.4680	49.6461	-8.17386	0	
2.4687	47.8205	-8.17386	0	
2.4693	43.5213	-8.17386	0	
2.4700	38.0444	-7.87602	0	
2.4707	30.4178	-3.90492	0	
2.4713	21.5545	-0.860406	0	
2.4720	14.2519	-1.45607	0	
2.4727	11.1895	-1.787	0	
2.4733	7.2143	0.661851	0	
2.4740	-0.706706	2.81287	0	
2.4747	-5.3003	3.1107	0	
2.4753	-5.3003	2.48194	0	
2.4760	-11.6901	3.40853	0	
2.4767	-27.8855	7.0818	0	
2.4773	-40.989	9.19972	0	
2.4780	-47.4082	8.30623	0	
2.4787	-50.7651	8.90189	0	
2.4793	-49.2339	9.19972	0	
2.4800	-41.9018	6.45304	0	
2.4807	-34.2753	4.63295	0	
2.4813	-26.3543	3.40853	0	
2.4820	-16.9021	0.959683	0	
2.4827	-9.86444	-1.787	0	
2.4833	-5.88922	-3.30925	0	
2.4840	-0.412245	-4.20275	0	
2.4847	4.18135	-5.7581	0	
2.4853	4.77027	-6.35377	0	
2.4860	12.1023	-6.6516	0	
2.4867	30.4178	-8.50478	0	
2.4873	45.9654	-10.6227	0	
2.4880	50.559	-10.9205	0	
2.4887	50.2351	-11.2515	0	
2.4893	47.2021	-10.9205	0	
2.4900	39.87	-8.17386	0	
2.4907	32.2435	-5.7581	0	
2.4913	25.8242	-5.42718	0	
2.4920	19.4344	-4.20275	0	
2.4927	13.6335	-0.860406	0	
2.4933	9.03995	0.959683	0	
2.4940	3.56298	1.88627	0	
2.4947	0.206123	3.1107	0	
2.4953	-2.53236	4.93079	0	
2.4960	-12.3085	6.45304	0	
2.4967	-27.2671	8.30623	0	
2.4973	-37.6321	10.1263	0	
2.4980	-43.7569	10.722	0	
2.4987	-48.3211	11.0529	0	
2.4993	-45.5826	11.0529	0	
2.5000	-36.7193	7.0818	0	
2.5007	-29.4167	3.40853	0	
2.5013	-22.7029	6.15521	0	
2.5020	-15.047	8.30623	0	
2.5027	-11.3956	3.40853	0	
2.5033	-6.50759	-0.562573	0	
2.5040	2.03178	2.18411	0	
2.5047	6.91983	4.63295	0	
2.5053	8.45103	3.1107	0	
2.5060	15.7537	1.58844	0	
2.5067	29.7995	0.0661851	0	
2.5073	44.1397	-2.38266	0	
2.5080	52.6791	-2.6805	0	
2.5087	52.3846	-2.08483	0	
2.5093	49.0278	-3.60709	0	
2.5100	45.3764	-3.90492	0	
2.5107	38.6627	-2.6805	0	
2.5113	31.0362	-2.6805	0	
2.5120	24.9114	-3.90492	0	
2.5127	18.5216	-1.45607	0	
2.5133	12.1023	1.29061	0	
2.5140	6.91983	-0.26474	0	
2.5147	2.94461	-1.45607	0	
2.5153	-0.117784	0.0661851	0	
2.5160	-8.65715	1.88627	0	
2.5167	-25.1175	4.93079	0	
2.5173	-40.989	7.0818	0	
2.5180	-48.3211	6.15521	0	
2.5187	-48.9394	6.45304	0	
2.5193	-43.1385	8.30623	0	
2.5200	-36.1304	8.30623	0	
2.5207	-30.9184	6.75088	0	
2.5213	-25.1175	2.81287	0	
2.5220	-17.491	-1.787	0	
2.5227	-11.6901	-2.6805	0	
2.5233	-7.12596	-0.562573	0	
2.5240	-3.47464	-1.15824	0	
2.5247	-4.06356	-3.60709	0	
2.5253	-4.97639	-4.83151	0	
2.5260	2.65015	-4.83151	0	
2.5267	19.1105	-5.7581	0	
2.5273	36.2187	-7.87602	0	
2.5280	44.1397	-9.69611	0	
2.5287	42.6085	-10.027	0	
2.5293	37.7499	-8.80261	0	
2.5300	32.5379	-7.57819	0	
2.5307	27.3554	-7.28036	0	
2.5313	21.8785	-6.05593	0	
2.5320	15.1647	-3.60709	0	
2.5327	9.36386	-4.53368	0	
2.5333	5.6831	-4.83151	0	
2.5340	0.500584	-2.08483	0	
2.5347	-4.68193	-0.860406	0	
2.5353	-7.42042	-0.26474	0	
2.5360	-15.047	3.70636	0	
2.5367	-30.0056	5.55955	0	
2.5373	-41.9018	4.33512	0	
2.5380	-46.7899	6.45304	0	
2.5387	-50.4706	8.30623	0	
2.5393	-50.1467	5.55955	0	
2.5400	-41.9018	4.33512	0	
2.5407	-33.9808	5.22862	0	
2.5413	-28.7983	2.81287	0	
2.5420	-22.9974	1.88627	0	
2.5427	-16.5782	3.1107	0	
2.5433	-9.24608	0.959683	0	
2.5440	-3.47464	-0.562573	0	
2.5447	-1.03061	0.959683	0	
2.5453	1.73732	-0.860406	0	
2.5460	8.45103	-4.53368	0	
2.5467	20.3473	-5.42718	0	
2.5473	36.2187	-7.28036	0	
2.5480	49.3222	-11.2515	0	
2.5487	52.0902	-11.8471	0	
2.5493	47.8205	-10.027	0	
2.5500	41.4012	-7.57819	0	
2.5507	34.0691	-4.53368	0	
2.5513	27.9738	-3.01142	0	
2.5520	21.2601	-4.53368	0	
2.5527	14.8408	-2.6805	0	
2.5533	9.65832	2.48194	0	
2.5540	2.94461	2.48194	0	
2.5547	-3.47464	-0.860406	0	
2.5553	-5.3003	0.661851	0	
2.5560	-12.6029	2.81287	0	
2.5567	-32.1551	3.70636	0	
2.5573	-48.9394	5.55955	0	
2.5580	-54.1219	6.45304	0	
2.5587	-56.566	4.93079	0	
2.5593	-55.6531	7.37963	0	
2.5600	-49.5578	8.90189	0	
2.5607	-43.1385	2.81287	0	
2.5613	-35.8065	-1.787	0	
2.5620	-24.8231	0.661851	0	
2.5627	-18.1094	1.29061	0	
2.5633	-14.7525	-0.860406	0	
2.5640	-8.65715	-0.860406	0	
2.5647	-1.94344	-0.562573	0	
2.5653	2.32624	-2.6805	0	
2.5660	9.95278	-4.53368	0	
2.5667	22.7913	-6.05593	0	
2.5673	34.982	-6.35377	0	
2.5680	43.2269	-5.42718	0	
2.5687	45.6709	-6.05593	0	
2.5693	42.0196	-7.57819	0	
2.5700	36.8076	-5.42718	0	
2.5707	32.5379	-3.01142	0	
2.5713	25.8242	-3.30925	0	
2.5720	16.6665	-2.6805	0	
2.5727	10.2767	0.364018	0	
2.5733	8.12712	1.58844	0	
2.5740	3.56298	0.959683	0	
2.5747	-3.15073	0.959683	0	
2.5753	-5.3003	2.18411	0	
2.5760	-9.56998	4.33512	0	
2.5767	-25.4414	6.45304	0	
2.5773	-41.9018	8.60406	0	
2.5780	-46.4954	10.1263	0	
2.5787	-46.4954	9.82848	0	
2.5793	-45.5826	7.37963	0	
2.5800	-39.7817	6.45304	0	
2.5807	-31.8312	5.55955	0	
2.5813	-23.6158	2.48194	0	
2.5820	-13.8397	-0.26474	0	
2.5827	-7.12596	-0.26474	0	
2.5833	-2.53236	-2.08483	0	
2.5840	4.18135	-5.42718	0	
2.5847	8.45103	-6.35377	0	
2.5853	9.36386	-6.35377	0	
2.5860	15.7537	-8.17386	0	
2.5867	29.7995	-9.39828	0	
2.5873	43.8452	-11.5493	0	
2.5880	51.7662	-13.6672	0	
2.5887	52.6791	-12.7737	0	
2.5893	47.2021	-10.9205	0	
2.5900	38.9572	-10.027	0	
2.5907	33.1563	-6.94943	0	
2.5913	28.8866	-3.60709	0	
2.5920	21.2601	-4.53368	0	
2.5927	12.7207	-5.42718	0	
2.5933	9.03995	-2.6805	0	
2.5940	4.77027	0.364018	0	
2.5947	-1.32507	0.0661851	0	
2.5953	-4.97639	-0.562573	0	
2.5960	-11.6901	2.81287	0	
2.5967	-27.2671	6.45304	0	
2.5973	-41.3129	7.0818	0	
2.5980	-47.1138	8.30623	0	
2.5987	-48.9394	8.30623	0	
2.5993	-48.3211	4.33512	0	
2.6000	-41.6073	1.88627	0	
2.6007	-31.8312	2.18411	0	
2.6013	-24.2047	0.959683	0	
2.6020	-17.1965	0.959683	0	
2.6027	-8.95162	2.81287	0	
2.6033	-2.85627	-0.26474	0	
2.6040	0.824491	-4.83151	0	
2.6047	5.38864	-5.12934	0	
2.6053	9.65832	-4.83151	0	
2.6060	15.7537	-7.28036	0	
2.6067	28.5922	-7.87602	0	
2.6073	42.314	-6.94943	0	
2.6080	48.7333	-6.94943	0	
2.6087	49.9406	-6.35377	0	
2.6093	47.8205	-5.7581	0	
2.6100	40.4884	-3.60709	0	
2.6107	34.0691	-0.26474	0	
2.6113	28.2683	0.0661851	0	
2.6120	18.5216	-2.38266	0	
2.6127	10.8951	-3.01142	0	
2.6133	7.2143	-2.6805	0	
2.6140	1.41341	-1.787	0	
2.6147	-4.38747	1.88627	0	
2.6153	-6.21313	4.63295	0	
2.6160	-13.5452	4.63295	0	
2.6167	-28.7983	5.85738	0	
2.6173	-43.433	9.19972	0	
2.6180	-51.0595	8.30623	0	
2.6187	-50.1467	4.93079	0	
2.6193	-44.6697	5.55955	0	
2.6200	-38.5449	5.22862	0	
2.6207	-30.9184	4.03729	0	
2.6213	-22.9974	5.55955	0	
2.6220	-16.2837	5.55955	0	
2.6227	-8.03879	1.88627	0	
2.6233	-0.412245	1.29061	0	
2.6240	3.56298	0.959683	0	
2.6247	6.59593	-2.08483	0	
2.6253	9.36386	-2.6805	0	
2.6260	15.7537	-1.45607	0	
2.6267	31.3307	-3.60709	0	
2.6273	47.8205	-4.83151	0	
2.6280	53.2974	-5.7581	0	
2.6287	52.3846	-8.50478	0	
2.6293	49.3222	-9.39828	0	
2.6300	41.4012	-8.17386	0	
2.6307	32.5379	-6.05593	0	
2.6313	25.2353	-4.20275	0	
2.6320	18.1977	-4.53368	0	
2.6327	13.3096	-5.42718	0	
2.6333	8.74549	-2.6805	0	
2.6340	2.94461	-0.26474	0	
2.6347	1.11895	-1.787	0	
2.6353	0.206123	-0.860406	0	
2.6360	-8.95162	2.81287	0	
2.6367	-24.2047	4.63295	0	
2.6373	-37.6321	6.15521	0	
2.6380	-46.2009	9.19972	0	
2.6387	-49.8523	9.82848	0	
2.6393	-48.3211	7.67747	0	
2.6400	-41.6073	5.85738	0	
2.6407	-33.6863	4.33512	0	
2.6413	-28.1799	4.03729	0	
2.6420	-21.7607	5.55955	0	
2.6427	-13.2213	5.55955	0	
2.6433	-8.95162	3.1107	0	
2.6440	-6.21313	0.959683	0	
2.6447	-0.412245	-1.15824	0	
2.6453	3.85744	-3.01142	0	
2.6460	9.36386	-3.60709	0	
2.6467	25.2353	-4.53368	0	
2.6473	41.1068	-8.17386	0	
2.6480	45.0525	-10.027	0	
2.6487	44.1397	-9.10045	0	
2.6493	43.2269	-6.94943	0	
2.6500	38.3388	-4.53368	0	
2.6507	32.5379	-1.787	0	
2.6513	25.5298	0.0661851	0	
2.6520	16.6665	1.29061	0	
2.6527	12.3968	3.40853	0	
2.6533	10.2767	4.63295	0	
2.6540	2.94461	5.22862	0	
2.6547	-2.85627	4.63295	0	
2.6553	-2.85627	5.55955	0	
2.6560	-10.7773	7.67747	0	
2.6567	-27.2671	9.19972	0	
2.6573	-38.2505	10.722	0	
2.6580	-43.1385	12.873	0	
2.6587	-45.5826	11.9464	0	
2.6593	-42.8441	7.37963	0	
2.6600	-36.4248	7.67747	0	
2.6607	-31.5368	9.49756	0	
2.6613	-25.4414	5.85738	0	
2.6620	-15.9892	1.88627	0	
2.6627	-7.12596	3.40853	0	
2.6633	-3.7691	5.85738	0	
2.6640	-0.706706	4.03729	0	
2.6647	3.85744	0.959683	0	
2.6653	7.5382	-0.860406	0	
2.6660	14.5464	-1.15824	0	
2.6667	28.8866	-2.38266	0	
2.6673	42.314	-4.53368	0	
2.6680	46.8782	-6.94943	0	
2.6687	47.8205	-7.28036	0	
2.6693	45.6709	-5.42718	0	
2.6700	36.8076	-4.20275	0	
2.6707	27.6793	-5.12934	0	
2.6713	22.4674	-5.7581	0	
2.6720	15.7537	-2.38266	0	
2.6727	9.95278	1.29061	0	
2.6733	6.59593	-0.562573	0	
2.6740	1.41341	-3.01142	0	
2.6747	-3.47464	0.0661851	0	
2.6753	-4.38747	3.40853	0	
2.6760	-11.3956	2.48194	0	
2.6767	-28.4744	2.48194	0	
2.6773	-42.8441	5.55955	0	
2.6780	-48.3211	7.37963	0	
2.6787	-49.8523	7.0818	0	
2.6793	-46.7899	7.67747	0	
2.6800	-40.989	8.90189	0	
2.6807	-37.6321	6.45304	0	
2.6813	-32.4496	1.88627	0	
2.6820	-21.7607	0.0661851	0	
2.6827	-12.9268	0.364018	0	
2.6833	-9.56998	0.0661851	0	
2.6840	-5.3003	-1.45607	0	
2.6847	-0.706706	-3.30925	0	
2.6853	2.32624	-3.30925	0	
2.6860	12.1023	-1.787	0	
2.6867	30.4178	-3.01142	0	
2.6873	43.8452	-6.05593	0	
2.6880	47.8205	-8.17386	0	
2.6887	46.2893	-9.69611	0	
2.6893	42.314	-10.027	0	
2.6900	38.0444	-7.28036	0	
2.6907	33.7747	-6.6516	0	
2.6913	24.9114	-8.17386	0	
2.6920	14.8408	-5.7581	0	
2.6927	9.36386	-1.787	0	
2.6933	4.77027	-0.562573	0	
2.6940	-0.706706	-0.860406	0	
2.6947	-4.68193	-0.562573	0	
2.6953	-8.65715	0.364018	0	
2.6960	-18.7277	2.18411	0	
2.6967	-33.9808	4.63295	0	
2.6973	-46.4954	7.67747	0	
2.6980	-51.6779	10.1263	0	
2.6987	-51.0595	8.90189	0	
2.6993	-47.7027	6.45304	0	
2.7000	-43.1385	4.63295	0	
2.7007	-37.0432	2.81287	0	
2.7013	-29.4167	2.48194	0	
2.7020	-23.6158	2.81287	0	
2.7027	-19.0222	-0.860406	0	
2.7033	-11.6901	-5.7581	0	
2.7040	-2.53236	-6.35377	0	
2.7047	2.03178	-5.42718	0	
2.7053	5.09418	-6.05593	0	
2.7060	16.6665	-9.10045	0	
2.7067	32.5379	-12.4428	0	
2.7073	42.6085	-13.6672	0	
2.7080	47.2021	-14.296	0	
2.7087	48.7333	-15.5204	0	
2.7093	45.0525	-13.6672	0	
2.7100	36.2187	-9.10045	0	
2.7107	27.3554	-8.17386	0	
2.7113	21.2601	-8.80261	0	
2.7120	15.4592	-3.60709	0	
2.7127	8.74549	1.58844	0	
2.7133	2.65015	1.88627	0	
2.7140	-1.61954	2.18411	0	
2.7147	-4.38747	5.22862	0	
2.7153	-8.03879	7.37963	0	
2.7160	-17.1965	9.49756	0	
2.7167	-31.8312	12.2442	0	
2.7173	-42.5202	13.1708	0	
2.7180	-45.5826	13.7996	0	
2.7187	-44.9642	14.3953	0	
2.7193	-42.2257	14.0974	0	
2.7200	-37.3377	13.7996	0	
2.7207	-29.4167	12.5752	0	
2.7213	-20.5534	8.90189	0	
2.7220	-14.458	5.55955	0	
2.7227	-10.1884	3.70636	0	
2.7233	-4.38747	2.18411	0	
2.7240	2.03178	1.29061	0	
2.7247	4.77027	-0.26474	0	
2.7253	7.83266	-2.38266	0	
2.7260	16.6665	-3.30925	0	
2.7267	29.505	-5.12934	0	
2.7273	42.6085	-6.94943	0	
2.7280	50.559	-6.94943	0	
2.7287	51.7662	-8.17386	0	
2.7293	47.2021	-8.80261	0	
2.7300	40.1645	-5.7581	0	
2.7307	33.1563	-5.42718	0	
2.7313	27.3554	-6.6516	0	
2.7320	21.8785	-3.60709	0	
2.7327	16.6665	-2.08483	0	
2.7333	10.8951	-3.30925	0	
2.7340	4.18135	-0.860406	0	
2.7347	-0.706706	1.29061	0	
2.7353	-4.97639	0.0661851	0	
2.7360	-13.5452	1.88627	0	
2.7367	-29.4167	4.03729	0	
2.7373	-44.0514	3.70636	0	
2.7380	-48.6155	3.70636	0	
2.7387	-47.7027	4.93079	0	
2.7393	-47.1138	5.22862	0	
2.7400	-42.2257	4.03729	0	
2.7407	-32.7735	2.48194	0	
2.7413	-26.0598	0.0661851	0	
2.7420	-20.2589	-2.38266	0	
2.7427	-13.5452	-3.90492	0	
2.7433	-8.95162	-3.01142	0	
2.7440	-4.06356	-2.08483	0	
2.7447	0.500584	-5.12934	0	
2.7453	2.94461	-9.10045	0	
2.7460	10.2767	-10.9205	0	
2.7467	27.6793	-13.0716	0	
2.7473	40.1645	-15.8182	0	
2.7480	42.9324	-16.4139	0	
2.7487	43.5213	-14.296	0	
2.7493	40.7829	-13.6672	0	
2.7500	32.8619	-14.5938	0	
2.7507	26.7371	-12.7737	0	
2.7513	23.0857	-10.027	0	
2.7520	16.372	-9.69611	0	
2.7527	9.36386	-7.57819	0	
2.7533	6.007	-3.60709	0	
2.7540	2.94461	-2.6805	0	
2.7547	-1.03061	-2.6805	0	
2.7553	-4.38747	0.0661851	0	
2.7560	-12.9268	2.81287	0	
2.7567	-29.0927	5.55955	0	
2.7573	-43.1385	8.30623	0	
2.7580	-48.6155	8.90189	0	
2.7587	-47.4082	7.37963	0	
2.7593	-44.0514	6.45304	0	
2.7600	-40.0761	6.75088	0	
2.7607	-32.4496	7.0818	0	
2.7613	-20.5534	4.93079	0	
2.7620	-12.3085	3.1107	0	
2.7627	-10.1884	4.33512	0	
2.7633	-5.88922	3.70636	0	
2.7640	1.41341	0.661851	0	
2.7647	2.94461	1.29061	0	
2.7653	2.94461	2.48194	0	
2.7660	11.8079	-2.08483	0	
2.7667	28.8866	-7.57819	0	
2.7673	42.6085	-8.17386	0	
2.7680	47.8205	-7.28036	0	
2.7687	48.1149	-7.28036	0	
2.7693	45.9654	-7.28036	0	
2.7700	38.0444	-7.28036	0	
2.7707	29.505	-6.6516	0	
2.7713	23.9986	-4.53368	0	
2.7720	19.7289	-2.6805	0	
2.7727	15.7537	-1.45607	0	
2.7733	12.1023	-1.45607	0	
2.7740	5.38864	-0.860406	0	
2.7747	-0.706706	0.0661851	0	
2.7753	-3.47464	2.48194	0	
2.7760	-11.3956	5.22862	0	
2.7767	-29.0927	6.45304	0	
2.7773	-45.2587	6.75088	0	
2.7780	-50.1467	8.90189	0	
2.7787	-49.5578	10.722	0	
2.7793	-47.1138	7.37963	0	
2.7800	-40.0761	3.70636	0	
2.7807	-30.9184	4.63295	0	
2.7813	-23.6158	4.33512	0	
2.7820	-18.7277	1.29061	0	
2.7827	-14.458	1.88627	0	
2.7833	-10.1884	2.81287	0	
2.7840	-5.59476	-0.860406	0	
2.7847	-0.117784	-2.08483	0	
2.7853	4.77027	-1.45607	0	
2.7860	10.2767	-2.6805	0	
2.7867	23.0857	-5.12934	0	
2.7873	40.4884	-6.05593	0	
2.7880	48.7333	-4.83151	0	
2.7887	46.5837	-3.90492	0	
2.7893	43.2269	-4.53368	0	
2.7900	39.2517	-4.20275	0	
2.7907	30.0939	-1.787	0	
2.7913	21.2601	-0.860406	0	
2.7920	16.6665	-0.860406	0	
2.7927	12.1023	0.0661851	0	
2.7933	6.59593	0.661851	0	
2.7940	1.41341	2.81287	0	
2.7947	-2.53236	5.55955	0	
2.7953	-5.3003	5.22862	0	
2.7960	-13.8397	5.22862	0	
2.7967	-30.6239	7.37963	0	
2.7973	-44.6697	8.60406	0	
2.7980	-50.1467	9.49756	0	
2.7987	-51.0595	9.49756	0	
2.7993	-46.7899	5.85738	0	
2.8000	-39.1633	2.48194	0	
2.8007	-33.9808	2.81287	0	
2.8013	-28.1799	3.70636	0	
2.8020	-19.0222	2.81287	0	
2.8027	-15.047	0.0661851	0	
2.8033	-12.3085	-1.45607	0	
2.8040	-3.47464	0.959683	0	
2.8047	2.94461	1.29061	0	
2.8053	4.47581	-2.38266	0	
2.8060	15.7537	-1.45607	0	
2.8067	33.7747	0.959683	0	
2.8073	43.5213	-2.08483	0	
2.8080	47.8205	-5.12934	0	
2.8087	50.559	-4.20275	0	
2.8093	46.5837	-4.83151	0	
2.8100	38.6627	-6.05593	0	
2.8107	32.5379	-3.60709	0	
2.8113	25.8242	-1.787	0	
2.8120	19.1105	-2.6805	0	
2.8127	12.1023	-2.38266	0	
2.8133	3.56298	-1.15824	0	
2.8140	-1.94344	0.959683	0	
2.8147	-3.15073	2.48194	0	
2.8153	-6.21313	0.959683	0	
2.8160	-17.1965	2.81287	0	
2.8167	-34.2753	10.4241	0	
2.8173	-48.3211	14.0974	0	
2.8180	-52.9146	11.6486	0	
2.8187	-51.9724	11.3507	0	
2.8193	-47.7027	12.873	0	
2.8200	-40.0761	10.722	0	
2.8207	-33.068	8.30623	0	
2.8213	-25.1175	7.9753	0	
2.8220	-13.8397	4.93079	0	
2.8227	-8.03879	-0.860406	0	
2.8233	-5.88922	-4.83151	0	
2.8240	1.41341	-6.05593	0	
2.8247	5.6831	-5.42718	0	
2.8253	3.56298	-4.53368	0	
2.8260	9.36386	-4.53368	0	
2.8267	23.9986	-5.7581	0	
2.8273	37.1315	-8.17386	0	
2.8280	44.1397	-9.10045	0	
2.8287	45.0525	-8.80261	0	
2.8293	39.87	-7.87602	0	
2.8300	35.3059	-6.94943	0	
2.8307	31.949	-6.6516	0	
2.8313	23.9986	-5.42718	0	
2.8320	15.1647	-2.6805	0	
2.8327	10.8951	-1.45607	0	
2.8333	6.59593	-0.562573	0	
2.8340	-0.706706	1.58844	0	
2.8347	-3.47464	2.48194	0	
2.8353	-2.85627	1.88627	0	
2.8360	-11.3956	1.88627	0	
2.8367	-27.8855	1.88627	0	
2.8373	-40.4001	4.03729	0	
2.8380	-46.2009	7.67747	0	
2.8387	-46.2009	8.90189	0	
2.8393	-40.6945	7.37963	0	
2.8400	-35.1881	5.22862	0	
2.8407	-30.3295	3.40853	0	
2.8413	-21.4662	1.88627	0	
2.8420	-12.6029	0.959683	0	
2.8427	-10.4828	-0.860406	0	
2.8433	-8.95162	-1.45607	0	
2.8440	-1.32507	-0.860406	0	
2.8447	6.007	-0.562573	0	
2.8453	7.5382	-0.562573	0	
2.8460	12.1023	-0.860406	0	
2.8467	28.8866	-3.60709	0	
2.8473	45.0525	-6.94943	0	
2.8480	47.4966	-8.80261	0	
2.8487	45.0525	-9.10045	0	
2.8493	44.7581	-9.10045	0	
2.8500	39.87	-6.94943	0	
2.8507	32.2435	-2.6805	0	
2.8513	26.4426	-0.26474	0	
2.8520	18.8161	-0.562573	0	
2.8527	11.484	0.364018	0	
2.8533	6.91983	0.0661851	0	
2.8540	2.32624	-0.860406	0	
2.8547	-1.32507	1.58844	0	
2.8553	-4.38747	5.22862	0	
2.8560	-15.3709	4.63295	0	
2.8567	-32.1551	4.33512	0	
2.8573	-42.5202	7.37963	0	
2.8580	-46.7899	8.60406	0	
2.8587	-49.2339	7.9753	0	
2.8593	-45.5826	6.15521	0	
2.8600	-36.4248	3.40853	0	
2.8607	-29.0927	2.18411	0	
2.8613	-24.2047	2.48194	0	
2.8620	-16.5782	1.29061	0	
2.8627	-9.86444	0.0661851	0	
2.8633	-6.21313	-0.562573	0	
2.8640	-1.61954	-1.787	0	
2.8647	2.94461	-2.6805	0	
2.8653	4.47581	-3.60709	0	
2.8660	11.1895	-4.53368	0	
2.8667	26.7371	-5.42718	0	
2.8673	39.5756	-7.28036	0	
2.8680	43.5213	-8.50478	0	
2.8687	44.1397	-7.87602	0	
2.8693	41.4012	-7.28036	0	
2.8700	35.8948	-7.28036	0	
2.8707	31.3307	-5.42718	0	
2.8713	23.3802	-3.60709	0	
2.8720	13.6335	-4.53368	0	
2.8727	8.12712	-4.53368	0	
2.8733	3.85744	-3.60709	0	
2.8740	-1.61954	-1.15824	0	
2.8747	-5.3003	1.29061	0	
2.8753	-8.95162	0.959683	0	
2.8760	-18.4038	0.0661851	0	
2.8767	-30.0056	4.33512	0	
2.8773	-43.433	9.19972	0	
2.8780	-52.9146	8.60406	0	
2.8787	-51.0595	7.9753	0	
2.8793	-44.0514	10.1263	0	
2.8800	-39.4872	9.49756	0	
2.8807	-31.5368	5.22862	0	
2.8813	-21.7607	4.93079	0	
2.8820	-17.1965	7.67747	0	
2.8827	-11.6901	5.85738	0	
2.8833	-3.7691	1.29061	0	
2.8840	0.206123	0.364018	0	
2.8847	4.77027	0.0661851	0	
2.8853	12.1023	-3.60709	0	
2.8860	18.8161	-5.42718	0	
2.8867	29.7995	-5.42718	0	
2.8873	43.8452	-7.57819	0	
2.8880	49.6461	-7.87602	0	
2.8887	48.7333	-5.12934	0	
2.8893	45.6709	-6.6516	0	
2.8900	39.5756	-10.027	0	
2.8907	30.4178	-6.6516	0	
2.8913	23.3802	-1.15824	0	
2.8920	17.6088	0.364018	0	
2.8927	11.484	1.58844	0	
2.8933	7.5382	4.03729	0	
2.8940	4.77027	4.03729	0	
2.8947	0.824491	2.81287	0	
2.8953	-5.3003	3.40853	0	
2.8960	-13.5452	4.63295	0	
2.8967	-26.6487	7.0818	0	
2.8973	-41.9018	9.49756	0	
2.8980	-51.0595	11.0529	0	
2.8987	-50.1467	12.2442	0	
2.8993	-45.2587	12.2442	0	
2.9000	-40.0761	9.49756	0	
2.9007	-32.7735	7.0818	0	
2.9013	-24.2047	5.55955	0	
2.9020	-18.7277	1.88627	0	
2.9027	-13.8397	-0.860406	0	
2.9033	-6.8315	-0.562573	0	
2.9040	-0.412245	0.0661851	0	
2.9047	2.65015	-0.860406	0	
2.9053	5.6831	-2.6805	0	
2.9060	15.7537	-5.12934	0	
2.9067	33.1563	-7.28036	0	
2.9073	47.8205	-9.10045	0	
2.9080	51.7662	-10.9205	0	
2.9087	50.8534	-11.5493	0	
2.9093	47.4966	-8.50478	0	
2.9100	38.6627	-5.42718	0	
2.9107	29.7995	-4.53368	0	
2.9113	25.2353	-3.90492	0	
2.9120	20.3473	-3.30925	0	
2.9127	14.2519	-1.45607	0	
2.9133	10.5712	0.959683	0	
2.9140	5.6831	4.33512	0	
2.9147	-0.117784	7.37963	0	
2.9153	-4.38747	8.90189	0	
2.9160	-12.6029	7.9753	0	
2.9167	-28.7983	7.37963	0	
2.9173	-44.3458	10.1263	0	
2.9180	-50.7651	12.5752	0	
2.9187	-49.2339	9.82848	0	
2.9193	-44.9642	5.85738	0	
2.9200	-39.7817	4.33512	0	
2.9207	-34.5992	2.81287	0	
2.9213	-27.5616	0.959683	0	
2.9220	-17.8149	-0.860406	0	
2.9227	-9.86444	-4.53368	0	
2.9233	-5.3003	-7.57819	0	
2.9240	1.11895	-8.17386	0	
2.9247	8.12712	-8.80261	0	
2.9253	12.1023	-10.3249	0	
2.9260	17.9032	-10.9205	0	
2.9267	31.6251	-12.145	0	
2.9273	44.7581	-14.8916	0	
2.9280	49.6461	-14.5938	0	
2.9287	50.559	-11.2515	0	
2.9293	46.8782	-10.9205	0	
2.9300	39.5756	-13.0716	0	
2.9307	33.1563	-11.8471	0	
2.9313	25.8242	-7.87602	0	
2.9320	14.2519	-8.17386	0	
2.9327	6.59593	-9.39828	0	
2.9333	6.59593	-5.42718	0	
2.9340	3.56298	-3.30925	0	
2.9347	-2.85627	-4.83151	0	
2.9353	-6.21313	-4.20275	0	
2.9360	-15.3709	-0.26474	0	
2.9367	-35.1881	4.63295	0	
2.9373	-47.7027	10.4241	0	
2.9380	-48.3211	11.0529	0	
2.9387	-48.3211	7.37963	0	
2.9393	-45.877	8.30623	0	
2.9400	-37.3377	10.1263	0	
2.9407	-30.0056	5.85738	0	
2.9413	-26.3543	4.03729	0	
2.9420	-20.8478	4.63295	0	
2.9427	-14.7525	0.959683	0	
2.9433	-7.42042	-2.38266	0	
2.9440	0.824491	0.0661851	0	
2.9447	3.56298	3.1107	0	
2.9453	5.09418	1.88627	0	
2.9460	16.0776	-2.38266	0	
2.9467	32.5379	-6.6516	0	
2.9473	43.2269	-8.80261	0	
2.9480	48.4094	-8.17386	0	
2.9487	49.3222	-7.57819	0	
2.9493	45.6709	-6.35377	0	
2.9500	40.7829	-5.7581	0	
2.9507	34.982	-3.60709	0	
2.9513	27.6793	0.0661851	0	
2.9520	22.1729	0.959683	0	
2.9527	18.1977	0.0661851	0	
2.9533	12.1023	2.81287	0	
2.9540	3.85744	4.63295	0	
2.9547	-0.706706	2.81287	0	
2.9553	-3.47464	4.63295	0	
2.9560	-12.6029	9.82848	0	
2.9567	-30.0056	11.0529	0	
2.9573	-43.7569	9.19972	0	
2.9580	-47.7027	9.82848	0	
2.9587	-47.7027	10.722	0	
2.9593	-42.8441	8.60406	0	
2.9600	-34.5992	5.55955	0	
2.9607	-31.5368	4.63295	0	
2.9613	-26.9726	6.45304	0	
2.9620	-16.5782	5.22862	0	
2.9627	-12.6029	3.70636	0	
2.9633	-12.3085	4.63295	0	
2.9640	-4.38747	3.1107	0	
2.9647	1.11895	-1.15824	0	
2.9653	-1.03061	-2.6805	0	
2.9660	6.91983	-4.20275	0	
2.9667	26.1481	-8.17386	0	
2.9673	37.1315	-9.10045	0	
2.9680	40.1645	-7.28036	0	
2.9687	42.6085	-8.17386	0	
