0.0007	-8.14638	2.1773	0	
0.0013	-3.56067	0.949082	0	
0.0020	2.83235	0.949082	0	
0.0027	7.71478	0.65133	0	
0.0033	11.0866	0.949082	0	
0.0040	20.8515	0.949082	0	
0.0047	35.7955	-2.71698	0	
0.0053	45.2636	-5.76893	0	
0.0060	48.9322	-6.38304	0	
0.0067	46.7742	-5.15482	0	
0.0073	37.3331	-3.62884	0	
0.0080	28.1616	-1.80512	0	
0.0087	23.8996	-0.874644	0	
0.0093	19.3139	-0.874644	0	
0.0100	13.838	0.33497	0	
0.0107	6.79764	2.77281	0	
0.0113	-0.215798	4.00103	0	
0.0120	-4.47781	3.08917	0	
0.0127	-6.60882	1.86094	0	
0.0133	-12.7321	1.24683	0	
0.0140	-23.0904	2.77281	0	
0.0147	-35.6067	5.527	0	
0.0153	-44.7781	7.05298	0	
0.0160	-45.992	5.82476	0	
0.0167	-41.1095	5.22925	0	
0.0173	-34.6895	5.22925	0	
0.0180	-27.9728	4.29878	0	
0.0187	-21.8765	3.38692	0	
0.0193	-16.077	1.86094	0	
0.0200	-9.68394	0.65133	0	
0.0207	-4.47781	1.56319	0	
0.0213	0.0809243	1.86094	0	
0.0220	3.74949	0.0372189	0	
0.0227	6.50092	-1.80512	0	
0.0233	10.7629	-3.92659	0	
0.0240	22.6858	-4.5407	0	
0.0247	36.7126	-4.5407	0	
0.0253	44.0498	-7.2949	0	
0.0260	44.6432	-10.0305	0	
0.0267	44.0498	-8.20676	0	
0.0273	39.7608	-6.38304	0	
0.0280	31.8302	-5.45257	0	
0.0287	24.8168	-3.92659	0	
0.0293	19.0172	-3.62884	0	
0.0300	12.0038	-5.45257	0	
0.0307	5.58377	-4.5407	0	
0.0313	0.998066	-3.62884	0	
0.0320	-3.26395	-3.33109	0	
0.0327	-5.09823	-3.01473	0	
0.0333	-9.98066	-1.48876	0	
0.0340	-21.8765	0.33497	0	
0.0347	-35.9304	1.56319	0	
0.0353	-43.861	2.1773	0	
0.0360	-46.2887	4.61514	0	
0.0367	-44.4544	7.05298	0	
0.0373	-38.3581	6.14112	0	
0.0380	-30.7242	5.527	0	
0.0387	-22.7937	6.43887	0	
0.0393	-15.7802	3.70328	0	
0.0400	-11.1945	0.0372189	0	
0.0407	-6.93251	0.0372189	0	
0.0413	-2.05008	-0.279142	0	
0.0420	-0.215798	0.65133	0	
0.0427	1.61849	6.14112	0	
0.0433	9.25234	7.05298	0	
0.0440	20.8515	1.86094	0	
0.0447	32.1269	0.949082	0	
0.0453	42.8089	1.56319	0	
0.0460	47.0979	-0.279142	0	
0.0467	41.8918	1.86094	0	
0.0473	33.3678	-3.01473	0	
0.0480	27.2445	-21.3264	0	
0.0487	22.0654	-28.6585	0	
0.0493	18.1001	-17.3626	0	
0.0500	13.5144	-10.3468	0	
0.0507	7.71478	-10.0305	0	
0.0513	3.15605	-5.76893	0	
0.0520	-0.215798	-3.33109	0	
0.0527	-4.47781	0.0372189	0	
0.0533	-9.06352	7.35073	0	
0.0540	-19.4488	10.4027	0	
0.0547	-33.7724	7.35073	0	
0.0553	-41.703	0.33497	0	
0.0560	-42.9438	-9.11863	0	
0.0567	-42.3234	-9.43499	0	
0.0573	-39.2752	1.56319	0	
0.0580	-32.5585	5.22925	0	
0.0587	-26.4622	-0.279142	0	
0.0593	-18.208	-1.191	0	
0.0600	-8.14638	0.949082	0	
0.0607	-2.64353	0.33497	0	
0.0613	-1.72638	0.65133	0	
0.0620	-0.215798	0.33497	0	
0.0627	4.07319	-0.874644	0	
0.0633	10.1695	0.33497	0	
0.0640	20.8515	0.65133	0	
0.0647	36.0922	-2.71698	0	
0.0653	46.7742	-7.90901	0	
0.0660	47.0979	-13.6965	0	
0.0667	43.1326	-14.9248	0	
0.0673	39.7608	-10.0305	0	
0.0680	35.1751	-4.5407	0	
0.0687	27.5682	-3.01473	0	
0.0693	18.1001	-1.191	0	
0.0700	10.7629	0.949082	0	
0.0707	8.95562	-0.576893	0	
0.0713	7.41806	-1.80512	0	
0.0720	2.53563	2.77281	0	
0.0727	-1.42966	6.75523	0	
0.0733	-6.31209	6.43887	0	
0.0740	-19.4488	9.19306	0	
0.0747	-33.7724	14.3851	0	
0.0753	-41.1095	13.1569	0	
0.0760	-43.2405	9.80718	0	
0.0767	-41.4063	10.1049	0	
0.0773	-34.0961	6.43887	0	
0.0780	-25.8418	-0.874644	0	
0.0787	-20.0422	-0.874644	0	
0.0793	-14.8631	2.77281	0	
0.0800	-10.2774	-0.874644	0	
0.0807	-6.60882	-5.76893	0	
0.0813	-3.26395	-3.92659	0	
0.0820	0.701344	-3.33109	0	
0.0827	4.07319	-7.2949	0	
0.0833	7.71478	-6.38304	0	
0.0840	18.3968	-1.191	0	
0.0847	33.3678	-0.874644	0	
0.0853	40.3812	-3.62884	0	
0.0860	37.9265	-2.71698	0	
0.0867	36.7126	-1.48876	0	
0.0873	35.4988	-2.71698	0	
0.0880	27.8649	-3.62884	0	
0.0887	18.1001	-3.62884	0	
0.0893	10.4662	-1.80512	0	
0.0900	5.8805	0.949082	0	
0.0907	5.58377	1.86094	0	
0.0913	3.45277	0.949082	0	
0.0920	-4.80151	1.24683	0	
0.0927	-9.06352	3.70328	0	
0.0933	-9.98066	4.29878	0	
0.0940	-20.6627	6.43887	0	
0.0947	-35.0132	10.4027	0	
0.0953	-40.4891	11.9287	0	
0.0960	-42.6201	10.4027	0	
0.0967	-42.9438	9.19306	0	
0.0973	-36.5238	8.2812	0	
0.0980	-29.2137	6.14112	0	
0.0987	-23.7108	3.38692	0	
0.0993	-15.4835	1.86094	0	
0.1000	-9.98066	0.0372189	0	
0.1007	-8.14638	-2.71698	0	
0.1013	-3.56067	-4.85706	0	
0.1020	2.53563	-4.85706	0	
0.1027	5.58377	-3.33109	0	
0.1033	11.0866	-2.40062	0	
0.1040	21.1482	-3.92659	0	
0.1047	31.5335	-7.2949	0	
0.1053	39.4641	-10.0305	0	
0.1060	42.8089	-10.0305	0	
0.1067	40.0575	-6.97854	0	
0.1073	33.9612	-2.71698	0	
0.1080	27.5682	0.33497	0	
0.1087	19.9343	1.86094	0	
0.1093	11.6801	2.77281	0	
0.1100	6.50092	1.24683	0	
0.1107	2.83235	-0.874644	0	
0.1113	-1.72638	-0.874644	0	
0.1120	-7.22923	0.949082	0	
0.1127	-8.7668	0.65133	0	
0.1133	-12.1117	0.33497	0	
0.1140	-24.628	3.38692	0	
0.1147	-39.572	6.43887	0	
0.1153	-45.0748	6.14112	0	
0.1160	-44.4544	4.29878	0	
0.1167	-44.4544	3.70328	0	
0.1173	-40.1924	2.77281	0	
0.1180	-31.0479	1.56319	0	
0.1187	-25.5451	1.86094	0	
0.1193	-20.9594	1.56319	0	
0.1200	-12.1117	-0.874644	0	
0.1207	-6.01537	-2.71698	0	
0.1213	-3.88436	-1.80512	0	
0.1220	0.998066	-1.191	0	
0.1227	4.96336	-2.71698	0	
0.1233	8.3352	-5.45257	0	
0.1240	19.9343	-10.0305	0	
0.1247	34.8784	-12.4869	0	
0.1253	42.8089	-10.3468	0	
0.1260	44.3465	-6.68079	0	
0.1267	41.8918	-5.15482	0	
0.1273	36.0922	-5.45257	0	
0.1280	30.2927	-5.15482	0	
0.1287	22.9825	-4.5407	0	
0.1293	15.6454	-5.45257	0	
0.1300	13.838	-6.68079	0	
0.1307	9.25234	-3.92659	0	
0.1313	-0.836217	1.24683	0	
0.1320	-4.47781	3.70328	0	
0.1327	-3.26395	3.70328	0	
0.1333	-10.6011	5.527	0	
0.1340	-25.5451	10.1049	0	
0.1347	-37.441	14.6828	0	
0.1353	-43.5373	14.0687	0	
0.1360	-44.7781	8.2812	0	
0.1367	-42.9438	0.949082	0	
0.1373	-37.441	-4.5407	0	
0.1380	-27.9728	-6.06668	0	
0.1387	-19.4488	-3.33109	0	
0.1393	-12.7321	0.949082	0	
0.1400	-6.60882	2.47506	0	
0.1407	-4.18109	3.08917	0	
0.1413	-1.72638	4.61514	0	
0.1420	4.36991	4.61514	0	
0.1427	8.63192	2.77281	0	
0.1433	11.0866	1.56319	0	
0.1440	22.9825	-0.874644	0	
0.1447	38.8436	-3.62884	0	
0.1453	45.2636	-1.48876	0	
0.1460	44.3465	0.65133	0	
0.1467	43.7261	-5.15482	0	
0.1473	38.5469	-10.961	0	
0.1480	28.4853	-6.38304	0	
0.1487	22.3621	0.949082	0	
0.1493	19.9343	5.82476	0	
0.1500	14.1348	5.527	0	
0.1507	7.12134	-4.5407	0	
0.1513	1.61849	-19.5027	0	
0.1520	-3.26395	-21.9405	0	
0.1527	-6.01537	-11.8728	0	
0.1533	-8.7668	-5.45257	0	
0.1540	-20.0422	-2.71698	0	
0.1547	-36.2271	2.77281	0	
0.1553	-42.6201	7.96484	0	
0.1560	-42.0267	7.66709	0	
0.1567	-43.2405	3.08917	0	
0.1573	-41.4063	-2.71698	0	
0.1580	-32.2618	-4.85706	0	
0.1587	-24.628	-3.62884	0	
0.1593	-20.0422	-3.62884	0	
0.1600	-14.5664	-4.5407	0	
0.1607	-9.36024	-3.01473	0	
0.1613	-3.56067	0.949082	0	
0.1620	2.53563	1.56319	0	
0.1627	4.66663	-2.40062	0	
0.1633	8.3352	-4.85706	0	
0.1640	20.8515	-6.38304	0	
0.1647	36.7126	-9.11863	0	
0.1653	46.4775	-10.3468	0	
0.1660	50.1461	-7.2949	0	
0.1667	47.3946	-4.5407	0	
0.1673	38.8436	-3.92659	0	
0.1680	31.2098	-1.48876	0	
0.1687	24.5201	0.949082	0	
0.1693	16.8862	-0.874644	0	
0.1700	10.7629	-0.874644	0	
0.1707	6.79764	2.77281	0	
0.1713	2.2389	2.47506	0	
0.1720	-1.72638	0.0372189	0	
0.1727	-4.47781	2.47506	0	
0.1733	-10.8978	4.61514	0	
0.1740	-22.4969	2.1773	0	
0.1747	-36.5238	3.70328	0	
0.1753	-46.6124	7.96484	0	
0.1760	-49.3368	7.35073	0	
0.1767	-47.2058	4.61514	0	
0.1773	-42.0267	5.527	0	
0.1780	-33.7724	5.527	0	
0.1787	-26.1655	3.70328	0	
0.1793	-19.4488	1.86094	0	
0.1800	-12.4084	0.33497	0	
0.1807	-6.60882	-0.576893	0	
0.1813	-2.3468	0.33497	0	
0.1820	3.15605	0.65133	0	
0.1827	6.79764	-0.576893	0	
0.1833	7.71478	-1.80512	0	
0.1840	16.2658	-4.5407	0	
0.1847	32.4506	-8.20676	0	
0.1853	42.5122	-7.90901	0	
0.1860	43.7261	-4.24295	0	
0.1867	43.1326	-3.62884	0	
0.1873	39.1673	-4.85706	0	
0.1880	31.2098	-3.33109	0	
0.1887	24.1964	-0.874644	0	
0.1893	17.1829	-0.874644	0	
0.1900	8.3352	-1.191	0	
0.1907	4.07319	-1.191	0	
0.1913	2.83235	-0.874644	0	
0.1920	-0.51252	-0.279142	0	
0.1927	-2.96722	-0.576893	0	
0.1933	-7.22923	-0.576893	0	
0.1940	-21.2561	2.47506	0	
0.1947	-37.1442	7.35073	0	
0.1953	-44.1577	8.8767	0	
0.1960	-43.5373	7.66709	0	
0.1967	-39.8957	7.66709	0	
0.1973	-34.6895	7.96484	0	
0.1980	-28.89	5.527	0	
0.1987	-21.2561	2.1773	0	
0.1993	-12.7321	1.24683	0	
0.2000	-6.60882	2.77281	0	
0.2007	-2.3468	4.00103	0	
0.2013	1.91521	2.77281	0	
0.2020	6.20419	-1.80512	0	
0.2027	9.54906	-2.71698	0	
0.2033	12.0038	-0.576893	0	
0.2040	20.2311	-2.71698	0	
0.2047	35.1751	-7.2949	0	
0.2053	44.9669	-8.20676	0	
0.2060	45.2636	-9.11863	0	
0.2067	44.9669	-10.0305	0	
0.2073	41.2984	-7.2949	0	
0.2080	33.0441	-5.45257	0	
0.2087	25.1135	-3.92659	0	
0.2093	17.8033	2.1773	0	
0.2100	10.1695	6.43887	0	
0.2107	6.50092	3.70328	0	
0.2113	3.15605	0.949082	0	
0.2120	-2.05008	1.86094	0	
0.2127	-2.96722	3.38692	0	
0.2133	-5.39495	5.22925	0	
0.2140	-17.6145	5.527	0	
0.2147	-31.6414	6.43887	0	
0.2153	-39.572	10.719	0	
0.2160	-43.861	11.9287	0	
0.2167	-44.4544	7.66709	0	
0.2173	-40.1924	4.61514	0	
0.2180	-31.6414	4.00103	0	
0.2187	-21.5798	4.00103	0	
0.2193	-15.4835	4.00103	0	
0.2200	-12.1117	1.86094	0	
0.2207	-4.80151	-1.80512	0	
0.2213	3.15605	-1.80512	0	
0.2220	6.20419	-0.279142	0	
0.2227	7.41806	-1.191	0	
0.2233	13.2176	-1.80512	0	
0.2240	23.8996	-4.24295	0	
0.2247	36.7126	-8.50451	0	
0.2253	44.0498	-8.82088	0	
0.2260	44.0498	-6.38304	0	
0.2267	42.8089	-6.38304	0	
0.2273	39.1673	-4.85706	0	
0.2280	30.9131	-1.191	0	
0.2287	22.3621	0.949082	0	
0.2293	16.2658	3.70328	0	
0.2300	9.84579	8.8767	0	
0.2307	3.74949	8.57895	0	
0.2313	-0.836217	3.38692	0	
0.2320	-4.47781	-0.874644	0	
0.2327	-6.01537	-4.24295	0	
0.2333	-10.8978	-6.38304	0	
0.2340	-24.628	-2.10287	0	
0.2347	-40.1924	5.527	0	
0.2353	-48.4197	9.19306	0	
0.2360	-50.254	7.96484	0	
0.2367	-46.6124	5.82476	0	
0.2373	-38.6548	4.29878	0	
0.2380	-31.0479	1.24683	0	
0.2387	-26.4622	-1.80512	0	
0.2393	-20.6627	-1.80512	0	
0.2400	-13.6492	0.0372189	0	
0.2407	-8.4431	-1.80512	0	
0.2413	-5.71865	-3.62884	0	
0.2420	-2.64353	-3.01473	0	
0.2427	0.0809243	-2.71698	0	
0.2433	1.91521	-3.62884	0	
0.2440	10.4662	-3.62884	0	
0.2447	25.1135	-6.38304	0	
0.2453	35.7955	-9.11863	0	
0.2460	37.9265	-10.0305	0	
0.2467	35.7955	-9.11863	0	
0.2473	29.6992	-7.2949	0	
0.2480	23.2792	-4.85706	0	
0.2487	18.7205	-2.71698	0	
0.2493	11.0866	-0.279142	0	
0.2500	2.53563	2.77281	0	
0.2507	-0.215798	4.29878	0	
0.2513	-1.72638	2.77281	0	
0.2520	-6.31209	0.949082	0	
0.2527	-9.06352	-0.874644	0	
0.2533	-11.1945	-0.576893	0	
0.2540	-22.7937	1.86094	0	
0.2547	-38.6548	5.22925	0	
0.2553	-45.0748	7.05298	0	
0.2560	-42.9438	8.2812	0	
0.2567	-39.572	7.96484	0	
0.2573	-35.0132	4.00103	0	
0.2580	-28.2965	-1.48876	0	
0.2587	-22.7937	-2.71698	0	
0.2593	-17.2908	0.0372189	0	
0.2600	-10.2774	0.949082	0	
0.2607	-3.56067	-2.71698	0	
0.2613	0.0809243	-4.5407	0	
0.2620	1.91521	-2.10287	0	
0.2627	5.28705	0.0372189	0	
0.2633	12.3005	-0.874644	0	
0.2640	23.6029	-1.48876	0	
0.2647	35.7955	0.33497	0	
0.2653	44.0498	3.38692	0	
0.2660	45.2636	4.61514	0	
0.2667	41.2984	0.949082	0	
0.2673	35.7955	0.0372189	0	
0.2680	31.2098	4.29878	0	
0.2687	26.6511	6.14112	0	
0.2693	19.3139	6.43887	0	
0.2700	12.0038	8.2812	0	
0.2707	8.3352	0.65133	0	
0.2713	2.83235	-14.3107	0	
0.2720	-3.56067	-16.7485	0	
0.2727	-4.80151	-8.50451	0	
0.2733	-5.71865	-4.5407	0	
0.2740	-18.5317	-2.71698	0	
0.2747	-35.0132	2.77281	0	
0.2753	-42.9438	4.61514	0	
0.2760	-46.9091	3.38692	0	
0.2767	-46.6124	3.70328	0	
0.2773	-38.6548	2.77281	0	
0.2780	-31.3447	-0.279142	0	
0.2787	-24.9247	-0.874644	0	
0.2793	-15.4835	0.0372189	0	
0.2800	-9.68394	0.0372189	0	
0.2807	-8.14638	-0.874644	0	
0.2813	-0.836217	-2.10287	0	
0.2820	5.58377	-3.62884	0	
0.2827	6.20419	-5.15482	0	
0.2833	11.3833	-6.38304	0	
0.2840	25.4102	-9.43499	0	
0.2847	37.6298	-11.8728	0	
0.2853	43.4294	-11.8728	0	
0.2860	44.6432	-10.961	0	
0.2867	42.2155	-9.11863	0	
0.2873	37.9265	-6.38304	0	
0.2880	33.0441	-5.45257	0	
0.2887	26.3274	-6.97854	0	
0.2893	17.4796	-6.68079	0	
0.2900	9.25234	-4.5407	0	
0.2907	5.58377	-3.01473	0	
0.2913	4.36991	-1.48876	0	
0.2920	0.998066	0.0372189	0	
0.2927	-2.64353	1.56319	0	
0.2933	-8.4431	4.61514	0	
0.2940	-19.7455	8.57895	0	
0.2947	-31.3447	10.4027	0	
0.2953	-38.3581	8.8767	0	
0.2960	-42.9438	7.66709	0	
0.2967	-41.4063	7.35073	0	
0.2973	-33.4757	6.14112	0	
0.2980	-25.5451	6.43887	0	
0.2987	-20.0422	6.75523	0	
0.2993	-13.6492	2.77281	0	
0.3000	-9.06352	-0.874644	0	
0.3007	-5.09823	0.0372189	0	
0.3013	0.998066	-0.576893	0	
0.3020	5.8805	-2.10287	0	
0.3027	8.63192	-1.191	0	
0.3033	14.4315	-1.80512	0	
0.3040	26.3274	-3.62884	0	
0.3047	40.0575	-3.92659	0	
0.3053	47.0979	-5.45257	0	
0.3060	45.8571	-7.59265	0	
0.3067	43.1326	-7.59265	0	
0.3073	38.5469	-5.45257	0	
0.3080	32.1269	-4.5407	0	
0.3087	26.3274	-5.45257	0	
0.3093	19.3139	-6.06668	0	
0.3100	10.7629	-4.5407	0	
0.3107	7.41806	0.949082	0	
0.3113	4.66663	5.527	0	
0.3120	-4.47781	3.70328	0	
0.3127	-9.06352	0.0372189	0	
0.3133	-9.06352	2.47506	0	
0.3140	-24.628	6.75523	0	
0.3147	-45.3715	7.96484	0	
0.3153	-50.254	10.1049	0	
0.3160	-48.4197	14.0687	0	
0.3167	-49.0401	14.6828	0	
0.3173	-42.9438	12.245	0	
0.3180	-35.0132	9.19306	0	
0.3187	-31.3447	4.61514	0	
0.3193	-23.7108	-0.874644	0	
0.3200	-14.8631	-2.71698	0	
0.3207	-13.0288	-1.191	0	
0.3213	-9.06352	-1.80512	0	
0.3220	-1.72638	-2.71698	0	
0.3227	0.404621	-1.191	0	
0.3233	3.74949	-1.191	0	
0.3240	16.5625	-4.5407	0	
0.3247	32.1269	-6.97854	0	
0.3253	40.9747	-7.2949	0	
0.3260	42.2155	-6.97854	0	
0.3267	39.4641	-3.92659	0	
0.3273	36.7126	-3.92659	0	
0.3280	31.5335	-6.97854	0	
0.3287	22.9825	-5.15482	0	
0.3293	16.2658	-2.40062	0	
0.3300	11.0866	-0.874644	0	
0.3307	3.45277	6.43887	0	
0.3313	-1.42966	14.6828	0	
0.3320	-1.72638	12.8591	0	
0.3327	-3.56067	6.14112	0	
0.3333	-10.2774	0.33497	0	
0.3340	-22.7937	-3.62884	0	
0.3347	-37.7377	-1.80512	0	
0.3353	-45.6952	2.77281	0	
0.3360	-44.7781	4.61514	0	
0.3367	-42.9438	7.05298	0	
0.3373	-39.2752	8.2812	0	
0.3380	-30.1308	4.00103	0	
0.3387	-22.7937	0.949082	0	
0.3393	-19.1251	0.33497	0	
0.3400	-12.7321	-1.48876	0	
0.3407	-5.39495	-0.279142	0	
0.3413	-0.836217	2.1773	0	
0.3420	2.83235	0.33497	0	
0.3427	6.50092	-1.191	0	
0.3433	11.0866	-1.80512	0	
0.3440	21.4449	-6.38304	0	
0.3447	35.7955	-8.20676	0	
0.3453	45.5604	-5.15482	0	
0.3460	48.0151	-5.15482	0	
0.3467	45.8571	-6.38304	0	
0.3473	39.7608	-3.33109	0	
0.3480	33.9612	-1.80512	0	
0.3487	28.4853	-2.71698	0	
0.3493	19.3139	0.0372189	0	
0.3500	11.6801	0.949082	0	
0.3507	9.25234	-1.80512	0	
0.3513	4.96336	-1.48876	0	
0.3520	-1.42966	0.949082	0	
0.3527	-3.26395	1.86094	0	
0.3533	-7.22923	4.61514	0	
0.3540	-21.5798	7.05298	0	
0.3547	-35.6067	7.66709	0	
0.3553	-41.1095	8.2812	0	
0.3560	-41.4063	6.14112	0	
0.3567	-39.572	3.70328	0	
0.3573	-34.3928	5.527	0	
0.3580	-29.8071	5.22925	0	
0.3587	-25.2484	2.1773	0	
0.3593	-16.3737	2.77281	0	
0.3600	-9.06352	3.70328	0	
0.3607	-5.39495	1.24683	0	
0.3613	0.0809243	-1.48876	0	
0.3620	5.28705	-3.33109	0	
0.3627	5.8805	-3.62884	0	
0.3633	11.0866	-3.62884	0	
0.3640	25.7339	-6.06668	0	
0.3647	38.5469	-9.43499	0	
0.3653	43.4294	-10.0305	0	
0.3660	46.4775	-10.0305	0	
0.3667	44.9669	-10.961	0	
0.3673	37.9265	-8.20676	0	
0.3680	31.2098	-5.45257	0	
0.3687	24.1964	-7.2949	0	
0.3693	14.1348	-8.82088	0	
0.3700	8.03848	-7.2949	0	
0.3707	6.50092	-3.92659	0	
0.3713	2.2389	-1.48876	0	
0.3720	-2.64353	-0.874644	0	
0.3727	-1.72638	-0.874644	0	
0.3733	-5.09823	1.86094	0	
0.3740	-19.1251	5.527	0	
0.3747	-32.8553	8.8767	0	
0.3753	-38.6548	11.0168	0	
0.3760	-39.2752	10.1049	0	
0.3767	-37.1442	7.35073	0	
0.3773	-32.8553	5.82476	0	
0.3780	-26.759	5.527	0	
0.3787	-19.1251	4.29878	0	
0.3793	-12.7321	1.24683	0	
0.3800	-8.14638	0.33497	0	
0.3807	-3.88436	0.65133	0	
0.3813	-0.836217	-1.48876	0	
0.3820	0.0809243	-3.62884	0	
0.3827	2.2389	-2.71698	0	
0.3833	9.25234	-3.62884	0	
0.3840	22.0654	-7.2949	0	
0.3847	35.1751	-7.59265	0	
0.3853	42.8089	-6.06668	0	
0.3860	42.8089	-7.90901	0	
0.3867	38.5469	-9.73274	0	
0.3873	33.9612	-7.2949	0	
0.3880	26.6511	-4.5407	0	
0.3887	17.4796	-3.62884	0	
0.3893	10.1695	-3.33109	0	
0.3900	5.58377	-2.71698	0	
0.3907	0.404621	-1.48876	0	
0.3913	-4.80151	-0.874644	0	
0.3920	-7.84965	-2.71698	0	
0.3927	-9.68394	-2.71698	0	
0.3933	-14.8631	0.949082	0	
0.3940	-27.6761	4.00103	0	
0.3947	-42.0267	4.61514	0	
0.3953	-49.0401	5.527	0	
0.3960	-47.5025	7.05298	0	
0.3967	-43.861	6.14112	0	
0.3973	-38.9785	4.61514	0	
0.3980	-32.5585	4.61514	0	
0.3987	-25.8418	3.70328	0	
0.3993	-19.4488	2.1773	0	
0.4000	-13.6492	0.33497	0	
0.4007	-8.7668	-1.191	0	
0.4013	-2.64353	-1.191	0	
0.4020	2.83235	-1.191	0	
0.4027	4.66663	-2.71698	0	
0.4033	10.1695	-3.62884	0	
0.4040	23.6029	-5.15482	0	
0.4047	37.6298	-8.20676	0	
0.4053	44.0498	-9.11863	0	
0.4060	45.8571	-6.38304	0	
0.4067	44.6432	-6.68079	0	
0.4073	38.8436	-8.20676	0	
0.4080	31.8302	-5.45257	0	
0.4087	26.6511	-3.01473	0	
0.4093	21.4449	-3.33109	0	
0.4100	14.7282	-1.80512	0	
0.4107	7.41806	-0.279142	0	
0.4113	0.0809243	-0.874644	0	
0.4120	-4.18109	1.86094	0	
0.4127	-4.80151	5.527	0	
0.4133	-10.6011	5.527	0	
0.4140	-25.2484	4.61514	0	
0.4147	-38.3581	6.75523	0	
0.4153	-44.1577	8.2812	0	
0.4160	-46.6124	7.35073	0	
0.4167	-44.4544	5.82476	0	
0.4173	-36.5238	4.29878	0	
0.4180	-30.4275	3.38692	0	
0.4187	-27.3794	4.00103	0	
0.4193	-20.6627	6.14112	0	
0.4200	-13.0288	7.35073	0	
0.4207	-9.06352	6.43887	0	
0.4213	-4.47781	4.29878	0	
0.4220	1.32176	1.86094	0	
0.4227	3.74949	0.0372189	0	
0.4233	8.95562	-0.874644	0	
0.4240	22.0654	-2.71698	0	
0.4247	35.7955	-5.45257	0	
0.4253	42.8089	-6.06668	0	
0.4260	43.4294	-6.06668	0	
0.4267	41.2984	-7.2949	0	
0.4273	36.7126	-5.76893	0	
0.4280	30.2927	-1.80512	0	
0.4287	23.8996	-1.80512	0	
0.4293	17.4796	-3.01473	0	
0.4300	11.0866	-1.80512	0	
0.4307	4.07319	-1.191	0	
0.4313	-1.13294	-0.874644	0	
0.4320	-3.56067	-0.576893	0	
0.4327	-4.80151	-1.48876	0	
0.4333	-10.8978	0.949082	0	
0.4340	-24.3312	5.527	0	
0.4347	-39.2752	5.82476	0	
0.4353	-47.8262	4.91289	0	
0.4360	-48.4197	7.96484	0	
0.4367	-44.1577	8.57895	0	
0.4373	-37.7377	5.22925	0	
0.4380	-29.5104	3.08917	0	
0.4387	-22.4969	1.56319	0	
0.4393	-18.5317	-0.576893	0	
0.4400	-15.1598	0.949082	0	
0.4407	-9.06352	3.70328	0	
0.4413	-1.72638	0.949082	0	
0.4420	2.53563	-0.874644	0	
0.4427	3.45277	1.86094	0	
0.4433	7.41806	2.77281	0	
0.4440	19.3139	0.949082	0	
0.4447	34.2849	0.33497	0	
0.4453	43.4294	-2.71698	0	
0.4460	44.3465	-10.0305	0	
0.4467	42.5122	-13.0824	0	
0.4473	39.4641	-11.2587	0	
0.4480	30.6163	-9.43499	0	
0.4487	22.0654	-3.62884	0	
0.4493	17.1829	4.61514	0	
0.4500	10.4662	3.70328	0	
0.4507	2.83235	1.86094	0	
0.4513	0.0809243	8.2812	0	
0.4520	-2.3468	15.297	0	
0.4527	-6.60882	17.437	0	
0.4533	-10.8978	14.3851	0	
0.4540	-22.7937	2.77281	0	
0.4547	-39.2752	-6.68079	0	
0.4553	-44.4544	-2.40062	0	
0.4560	-42.9438	3.70328	0	
0.4567	-43.861	-4.5407	0	
0.4573	-38.9785	-15.8366	0	
0.4580	-29.5104	-14.6084	0	
0.4587	-23.0904	-6.38304	0	
0.4593	-14.5664	-3.62884	0	
0.4600	-6.60882	-3.92659	0	
0.4607	-5.39495	-2.71698	0	
0.4613	-2.05008	-3.01473	0	
0.4620	4.96336	-5.76893	0	
0.4627	7.41806	-5.45257	0	
0.4633	12.0038	-5.45257	0	
0.4640	26.6511	-10.0305	0	
0.4647	39.7608	-10.961	0	
0.4653	45.8571	-6.68079	0	
0.4660	47.6914	-6.68079	0	
0.4667	43.7261	-7.59265	0	
0.4673	35.7955	-4.5407	0	
0.4680	28.4853	-3.62884	0	
0.4687	21.4449	-3.62884	0	
0.4693	13.2176	2.77281	0	
0.4700	6.79764	4.91289	0	
0.4707	2.2389	2.47506	0	
0.4713	-4.47781	3.70328	0	
0.4720	-9.68394	4.91289	0	
0.4727	-10.8978	3.38692	0	
0.4733	-14.5664	5.22925	0	
0.4740	-26.759	7.35073	0	
0.4747	-39.572	7.05298	0	
0.4753	-45.3715	8.2812	0	
0.4760	-47.2058	10.1049	0	
0.4767	-44.7781	9.19306	0	
0.4773	-36.8205	7.96484	0	
0.4780	-29.5104	6.43887	0	
0.4787	-25.5451	4.61514	0	
0.4793	-17.6145	4.29878	0	
0.4800	-9.36024	1.86094	0	
0.4807	-6.60882	-1.191	0	
0.4813	-1.72638	-1.80512	0	
0.4820	5.8805	-2.71698	0	
0.4827	6.50092	-4.5407	0	
0.4833	8.03848	-3.62884	0	
0.4840	23.2792	-3.92659	0	
0.4847	39.7608	-8.20676	0	
0.4853	44.9669	-8.82088	0	
0.4860	46.7742	-7.59265	0	
0.4867	46.4775	-7.59265	0	
0.4873	38.5469	-5.45257	0	
0.4880	28.7821	-3.01473	0	
0.4887	23.8996	-2.71698	0	
0.4893	18.7205	0.0372189	0	
0.4900	12.9209	2.77281	0	
0.4907	9.25234	2.77281	0	
0.4913	5.28705	4.61514	0	
0.4920	0.404621	5.527	0	
0.4927	-2.64353	1.56319	0	
0.4933	-7.84965	1.86094	0	
0.4940	-20.6627	8.57895	0	
0.4947	-34.6895	10.1049	0	
0.4953	-41.1095	5.82476	0	
0.4960	-41.1095	4.61514	0	
0.4967	-42.0267	6.43887	0	
0.4973	-39.2752	6.43887	0	
0.4980	-30.7242	4.00103	0	
0.4987	-21.2561	1.86094	0	
0.4993	-15.4835	1.86094	0	
0.5000	-9.98066	1.56319	0	
0.5007	-3.56067	0.0372189	0	
0.5013	1.91521	0.65133	0	
0.5020	5.8805	0.949082	0	
0.5027	7.71478	-1.80512	0	
0.5033	10.7629	-3.62884	0	
0.5040	22.9825	-3.33109	0	
0.5047	39.4641	-4.5407	0	
0.5053	48.0151	-5.76893	0	
0.5060	46.7742	-5.76893	0	
0.5067	42.8089	-7.2949	0	
0.5073	38.5469	-7.2949	0	
0.5080	32.4506	-3.62884	0	
0.5087	24.5201	-1.191	0	
0.5093	17.1829	0.0372189	0	
0.5100	14.1348	1.56319	0	
0.5107	12.3005	2.47506	0	
0.5113	6.50092	2.1773	0	
0.5120	0.998066	1.86094	0	
0.5127	0.701344	1.86094	0	
0.5133	-4.47781	2.47506	0	
0.5140	-20.9594	4.91289	0	
0.5147	-36.5238	7.05298	0	
0.5153	-43.861	7.35073	0	
0.5160	-48.4197	7.05298	0	
0.5167	-51.1711	5.22925	0	
0.5173	-46.2887	1.56319	0	
0.5180	-36.5238	0.949082	0	
0.5187	-30.1308	3.38692	0	
0.5193	-27.3794	4.00103	0	
0.5200	-23.0904	3.70328	0	
0.5207	-16.3737	3.08917	0	
0.5213	-9.68394	1.86094	0	
0.5220	-4.47781	2.47506	0	
0.5227	-0.51252	2.77281	0	
0.5233	4.96336	0.0372189	0	
0.5240	15.6454	-3.33109	0	
0.5247	32.1269	-4.24295	0	
0.5253	48.6085	-4.85706	0	
0.5260	58.6971	-4.85706	0	
0.5267	61.4215	-3.92659	0	
0.5273	58.6971	-4.5407	0	
0.5280	50.4428	-4.5407	0	
0.5287	36.7126	-2.71698	0	
0.5293	22.9825	-1.80512	0	
0.5300	16.5625	-1.191	0	
0.5307	13.5144	0.0372189	0	
0.5313	6.50092	0.0372189	0	
0.5320	1.61849	0.33497	0	
0.5327	0.0809243	1.24683	0	
0.5333	-7.22923	2.77281	0	
0.5340	-21.8765	3.70328	0	
0.5347	-34.0961	4.00103	0	
0.5353	-41.4063	4.61514	0	
0.5360	-43.5373	5.527	0	
0.5367	-39.572	6.43887	0	
0.5373	-34.0961	7.35073	0	
0.5380	-27.3794	8.2812	0	
0.5387	-17.9112	8.8767	0	
0.5393	-12.7321	7.35073	0	
0.5400	-11.8149	4.61514	0	
0.5407	-7.22923	0.949082	0	
0.5413	0.701344	-2.10287	0	
0.5420	4.66663	-3.01473	0	
0.5427	7.12134	-3.62884	0	
0.5433	12.5972	-4.5407	0	
0.5440	24.1964	-6.38304	0	
0.5447	38.5469	-7.2949	0	
0.5453	44.3465	-7.2949	0	
0.5460	41.2984	-7.59265	0	
0.5467	37.9265	-8.20676	0	
0.5473	32.4506	-8.20676	0	
0.5480	22.9825	-7.2949	0	
0.5487	14.7282	-5.45257	0	
0.5493	7.41806	-3.01473	0	
0.5500	-1.72638	-1.191	0	
0.5507	-7.22923	-2.10287	0	
0.5513	-11.4912	-3.33109	0	
0.5520	-15.7802	-2.40062	0	
0.5527	-16.9941	-0.576893	0	
0.5533	-21.8765	0.949082	0	
0.5540	-38.0614	0.949082	0	
0.5547	-51.1711	1.24683	0	
0.5553	-50.254	3.70328	0	
0.5560	-44.7781	6.75523	0	
0.5567	-39.2752	8.8767	0	
0.5573	-27.0557	11.0168	0	
0.5580	-13.0288	15.5947	0	
0.5587	-4.80151	19.5585	0	
0.5593	-0.836217	16.8229	0	
0.5600	-3.26395	4.91289	0	
0.5607	-9.68394	-9.73274	0	
0.5613	-7.22923	-17.0462	0	
0.5620	3.15605	-13.3988	0	
0.5627	6.50092	-6.38304	0	
0.5633	4.66663	-3.92659	0	
0.5640	10.4662	-5.76893	0	
0.5647	19.0172	-7.2949	0	
0.5653	22.0654	-7.59265	0	
0.5660	21.4449	-10.6446	0	
0.5667	16.5625	-16.4507	0	
0.5673	2.83235	-15.2225	0	
0.5680	-10.6011	-6.38304	0	
0.5687	-14.2427	-4.5407	0	
0.5693	-17.6145	-7.2949	0	
0.5700	-26.759	-2.10287	0	
0.5707	-26.4622	2.77281	0	
0.5713	-11.1945	-0.874644	0	
0.5720	7.41806	-3.01473	0	
0.5727	28.4853	-1.80512	0	
0.5733	45.8571	-1.80512	0	
0.5740	36.0922	3.08917	0	
0.5747	4.66663	11.9287	0	
0.5753	-15.4835	14.6828	0	
0.5760	-16.9941	12.8591	0	
0.5767	-14.5664	8.2812	0	
0.5773	-11.1945	0.0372189	0	
0.5780	-6.31209	-4.85706	0	
0.5787	-2.05008	-3.62884	0	
0.5793	1.91521	-2.71698	0	
0.5800	4.66663	-1.48876	0	
0.5807	7.41806	0.0372189	0	
0.5813	12.3005	-0.874644	0	
0.5820	15.6454	-2.71698	0	
0.5827	14.7282	-1.48876	0	
0.5833	18.1001	-0.874644	0	
0.5840	30.9131	-3.62884	0	
0.5847	45.2636	-7.59265	0	
0.5853	53.8146	-10.0305	0	
0.5860	53.1942	-7.90901	0	
0.5867	44.3465	-5.76893	0	
0.5873	33.3678	-6.97854	0	
0.5880	23.8996	-7.2949	0	
0.5887	15.9691	-5.45257	0	
0.5893	10.7629	-4.85706	0	
0.5900	9.25234	-5.76893	0	
0.5907	8.3352	-6.06668	0	
0.5913	4.66663	-5.45257	0	
0.5920	1.61849	-3.62884	0	
0.5927	0.0809243	-2.71698	0	
0.5933	-6.31209	-5.15482	0	
0.5940	-20.0422	-3.33109	0	
0.5947	-35.9304	8.8767	0	
0.5953	-48.4197	19.2608	0	
0.5960	-57.5911	20.7867	0	
0.5967	-58.5082	18.6467	0	
0.5973	-51.1711	14.6828	0	
0.5980	-45.6952	9.49082	0	
0.5987	-44.7781	10.1049	0	
0.5993	-41.4063	14.3851	0	
0.6000	-38.6548	13.771	0	
0.6007	-41.1095	5.527	0	
0.6013	-33.7724	-10.3468	0	
0.6020	-14.2427	-24.9925	0	
0.6027	-2.64353	-24.6761	0	
0.6033	4.96336	-12.7847	0	
0.6040	25.7339	-7.90901	0	
0.6047	51.3599	-10.961	0	
0.6053	69.6758	-10.6446	0	
0.6060	83.7027	-6.38304	0	
0.6067	87.9917	-3.62884	0	
0.6073	73.3444	-1.80512	0	
0.6080	51.0632	0.0372189	0	
0.6087	32.7474	0.0372189	0	
0.6093	21.7686	-1.80512	0	
0.6100	16.8862	-3.62884	0	
0.6107	13.5144	-2.71698	0	
0.6113	8.3352	-0.576893	0	
0.6120	4.96336	-0.576893	0	
0.6127	2.83235	-1.80512	0	
0.6133	-5.39495	-1.80512	0	
0.6140	-20.3659	-0.279142	0	
0.6147	-36.5238	7.35073	0	
0.6153	-46.6124	19.2608	0	
0.6160	-45.6952	22.9268	0	
0.6167	-38.3581	15.297	0	
0.6173	-31.3447	4.61514	0	
0.6180	-27.3794	-1.80512	0	
0.6187	-24.628	-0.874644	0	
0.6193	-19.7455	4.61514	0	
0.6200	-13.6492	5.527	0	
0.6207	-9.98066	1.24683	0	
0.6213	-6.31209	-0.279142	0	
0.6220	-0.836217	0.0372189	0	
0.6227	1.91521	-3.01473	0	
0.6233	5.58377	-8.50451	0	
0.6240	16.8862	-12.7847	0	
0.6247	27.8649	-13.6965	0	
0.6253	34.5816	-10.6446	0	
0.6260	38.5469	-7.90901	0	
0.6267	37.6298	-8.20676	0	
0.6273	30.9131	-8.82088	0	
0.6280	24.1964	-7.59265	0	
0.6287	17.4796	-5.45257	0	
0.6293	10.1695	-3.01473	0	
0.6300	5.8805	-1.48876	0	
0.6307	2.83235	-0.576893	0	
0.6313	-2.64353	2.1773	0	
0.6320	-9.06352	4.00103	0	
0.6327	-12.1117	3.38692	0	
0.6333	-14.5664	5.22925	0	
0.6340	-23.7108	9.19306	0	
0.6347	-38.3581	9.19306	0	
0.6353	-49.3368	7.66709	0	
0.6360	-51.1711	9.19306	0	
0.6367	-49.3368	10.719	0	
0.6373	-45.6952	10.4027	0	
0.6380	-36.5238	7.35073	0	
0.6387	-28.2965	2.1773	0	
0.6393	-23.7108	1.24683	0	
0.6400	-18.208	4.91289	0	
0.6407	-10.8978	4.91289	0	
0.6413	-5.09823	0.949082	0	
0.6420	0.998066	-0.279142	0	
0.6427	5.8805	1.24683	0	
0.6433	10.1695	0.65133	0	
0.6440	21.7686	-2.71698	0	
0.6447	37.0094	-6.38304	0	
0.6453	43.1326	-7.2949	0	
0.6460	42.8089	-5.76893	0	
0.6467	41.8918	-4.5407	0	
0.6473	33.9612	-5.76893	0	
0.6480	21.1482	-7.59265	0	
0.6487	11.0866	-7.59265	0	
0.6493	4.36991	-5.15482	0	
0.6500	0.701344	-2.10287	0	
0.6507	-1.13294	-0.874644	0	
0.6513	-4.18109	-1.48876	0	
0.6520	-5.39495	-0.576893	0	
0.6527	-6.60882	1.56319	0	
0.6533	-15.4835	3.70328	0	
0.6540	-29.2137	7.35073	0	
0.6547	-40.1924	11.0168	0	
0.6553	-46.6124	11.0168	0	
0.6560	-45.6952	10.1049	0	
0.6567	-39.2752	8.8767	0	
0.6573	-32.8553	5.527	0	
0.6580	-26.759	2.1773	0	
0.6587	-19.7455	2.47506	0	
0.6593	-13.3255	2.77281	0	
0.6600	-7.22923	2.47506	0	
0.6607	-2.64353	3.70328	0	
0.6613	-0.51252	3.70328	0	
0.6620	0.998066	2.77281	0	
0.6627	-2.05008	2.77281	0	
0.6633	-7.52596	0.0372189	0	
0.6640	-1.72638	-4.85706	0	
0.6647	12.9209	-8.20676	0	
0.6653	19.6106	-7.90901	0	
0.6660	17.1829	-7.2949	0	
0.6667	12.3005	-7.2949	0	
0.6673	4.66663	-5.76893	0	
0.6680	-4.47781	-0.279142	0	
0.6687	-12.4084	6.14112	0	
0.6693	-15.1598	7.96484	0	
0.6700	-4.80151	10.1049	0	
0.6707	16.5625	14.6828	0	
0.6713	40.0575	15.297	0	
0.6720	58.6971	14.0687	0	
0.6727	64.1729	12.245	0	
0.6733	48.6085	2.47506	0	
0.6740	22.6858	-9.43499	0	
0.6747	2.53563	-9.73274	0	
0.6753	-9.98066	-2.71698	0	
0.6760	-20.3659	0.949082	0	
0.6767	-30.7242	1.86094	0	
0.6773	-35.6067	1.86094	0	
0.6780	-29.2137	0.65133	0	
0.6787	-16.6974	1.86094	0	
0.6793	-7.52596	5.22925	0	
0.6800	-2.05008	4.91289	0	
0.6807	0.404621	1.56319	0	
0.6813	2.2389	-0.874644	0	
0.6820	6.50092	-0.874644	0	
0.6827	12.0038	0.33497	0	
0.6833	20.5278	0.33497	0	
0.6840	34.8784	-3.01473	0	
0.6847	47.0979	-7.2949	0	
0.6853	50.4428	-7.59265	0	
0.6860	49.8493	-4.85706	0	
0.6867	46.7742	-5.15482	0	
0.6873	38.8436	-8.82088	0	
0.6880	29.4025	-10.3468	0	
0.6887	21.7686	-7.2949	0	
0.6893	15.3486	-3.62884	0	
0.6900	10.1695	-2.71698	0	
0.6907	5.28705	-2.40062	0	
0.6913	-0.51252	0.0372189	0	
0.6920	-4.47781	2.77281	0	
0.6927	-7.22923	3.70328	0	
0.6933	-16.3737	4.61514	0	
0.6940	-31.3447	8.57895	0	
0.6947	-40.1924	13.1569	0	
0.6953	-41.4063	13.4546	0	
0.6960	-41.4063	10.4027	0	
0.6967	-41.703	7.96484	0	
0.6973	-42.6201	7.05298	0	
0.6980	-42.0267	8.2812	0	
0.6987	-35.0132	8.57895	0	
0.6993	-25.5451	3.38692	0	
0.7000	-23.4141	0.949082	0	
0.7007	-23.4141	8.57895	0	
0.7013	-16.3737	15.9111	0	
0.7020	-9.36024	14.6828	0	
0.7027	-8.4431	10.1049	0	
0.7033	-6.01537	0.0372189	0	
0.7040	3.45277	-16.7485	0	
0.7047	15.6454	-26.5185	0	
0.7053	24.8168	-21.0287	0	
0.7060	31.2098	-14.6084	0	
0.7067	39.4641	-12.1706	0	
0.7073	48.6085	-9.11863	0	
0.7080	52.8975	-8.20676	0	
0.7087	48.0151	-10.0305	0	
0.7093	35.7955	-8.20676	0	
0.7100	22.6858	-3.62884	0	
0.7107	15.0519	-3.01473	0	
0.7113	9.84579	-2.40062	0	
0.7120	1.32176	0.0372189	0	
0.7127	-4.80151	1.56319	0	
0.7133	-9.06352	2.1773	0	
0.7140	-22.7937	4.61514	0	
0.7147	-39.8957	7.66709	0	
0.7153	-46.6124	10.1049	0	
0.7160	-49.0401	9.49082	0	
0.7167	-51.1711	10.1049	0	
0.7173	-43.5373	13.1569	0	
0.7180	-34.6895	9.19306	0	
0.7187	-34.6895	-2.40062	0	
0.7193	-35.31	-7.90901	0	
0.7200	-32.5585	-4.5407	0	
0.7207	-31.6414	1.24683	0	
0.7213	-29.5104	5.527	0	
0.7220	-27.0557	5.527	0	
0.7227	-27.9728	1.24683	0	
0.7233	-22.7937	0.33497	0	
0.7240	-2.64353	1.86094	0	
0.7247	26.3274	-7.2949	0	
0.7253	55.3252	-28.0444	0	
0.7260	83.7027	-38.4099	0	
0.7267	102.019	-26.5185	0	
0.7273	94.7084	-9.11863	0	
0.7280	66.0072	-0.874644	0	
0.7287	41.2984	2.77281	0	
0.7293	29.0788	0.949082	0	
0.7300	21.1482	-11.8728	0	
0.7307	15.3486	-22.8524	0	
0.7313	10.1695	-17.9767	0	
0.7320	3.74949	-6.38304	0	
0.7327	0.404621	-0.874644	0	
0.7333	-6.01537	1.56319	0	
0.7340	-21.8765	3.38692	0	
0.7347	-35.31	2.77281	0	
0.7353	-39.572	3.08917	0	
0.7360	-44.4544	5.22925	0	
0.7367	-45.992	3.38692	0	
0.7373	-37.441	1.56319	0	
0.7380	-28.89	4.61514	0	
0.7387	-23.0904	6.43887	0	
0.7393	-13.6492	4.29878	0	
0.7400	-3.56067	4.61514	0	
0.7407	1.61849	7.96484	0	
0.7413	5.28705	9.19306	0	
0.7420	9.25234	8.2812	0	
0.7427	10.4662	3.70328	0	
0.7433	13.838	-4.24295	0	
0.7440	24.8168	-7.90901	0	
0.7447	37.0094	-5.45257	0	
0.7453	41.8918	-6.38304	0	
0.7460	40.0575	-10.0305	0	
0.7467	34.8784	-7.90901	0	
0.7473	28.4853	-5.15482	0	
0.7480	22.9825	-6.06668	0	
0.7487	16.8862	-5.45257	0	
0.7493	6.50092	-1.48876	0	
0.7500	-3.56067	0.0372189	0	
0.7507	-9.36024	-1.80512	0	
0.7513	-13.9459	-1.48876	0	
0.7520	-17.9112	0.949082	0	
0.7527	-18.5317	2.1773	0	
0.7533	-19.4488	4.91289	0	
0.7540	-29.2137	9.80718	0	
0.7547	-43.861	12.5428	0	
0.7553	-53.0054	12.8591	0	
0.7560	-53.9225	11.9287	0	
0.7567	-53.3021	8.2812	0	
0.7573	-51.1711	4.29878	0	
0.7580	-41.1095	4.29878	0	
0.7587	-23.7108	4.91289	0	
0.7593	-4.80151	3.70328	0	
0.7600	8.3352	2.47506	0	
0.7607	12.3005	0.0372189	0	
0.7613	9.84579	-2.71698	0	
0.7620	6.50092	-0.576893	0	
0.7627	2.83235	3.08917	0	
0.7633	3.45277	2.77281	0	
0.7640	16.8862	-0.874644	0	
0.7647	32.1269	-5.45257	0	
0.7653	31.2098	-12.7847	0	
0.7660	21.1482	-18.5722	0	
0.7667	17.8033	-15.5389	0	
0.7673	14.4315	-5.45257	0	
0.7680	6.20419	0.0372189	0	
0.7687	1.61849	-0.279142	0	
0.7693	1.32176	0.0372189	0	
0.7700	-0.215798	1.24683	0	
0.7707	-0.836217	2.47506	0	
0.7713	0.0809243	6.14112	0	
0.7720	-1.72638	10.719	0	
0.7727	-7.52596	9.19306	0	
0.7733	-17.2908	5.22925	0	
0.7740	-26.4622	10.1049	0	
0.7747	-22.1732	22.3127	0	
0.7753	-6.93251	27.1884	0	
0.7760	0.998066	22.9268	0	
0.7767	-3.56067	22.015	0	
0.7773	-13.3255	17.7348	0	
0.7780	-21.2561	-0.874644	0	
0.7787	-16.6974	-16.7485	0	
0.7793	2.2389	-15.5389	0	
0.7800	16.2658	-10.6446	0	
0.7807	16.5625	-10.0305	0	
0.7813	17.4796	-6.68079	0	
0.7820	26.6511	-4.5407	0	
0.7827	36.0922	-7.59265	0	
0.7833	42.5122	-9.11863	0	
0.7840	49.2289	-9.43499	0	
0.7847	55.6219	-13.6965	0	
0.7853	57.1595	-12.7847	0	
0.7860	51.6567	-3.62884	0	
0.7867	45.2636	1.56319	0	
0.7873	41.5951	2.1773	0	
0.7880	35.7955	1.56319	0	
0.7887	27.5682	-1.80512	0	
0.7893	19.9343	-3.62884	0	
0.7900	12.0038	-3.33109	0	
0.7907	2.83235	-2.71698	0	
0.7913	-5.39495	1.86094	0	
0.7920	-12.1117	8.2812	0	
0.7927	-18.8284	11.0168	0	
0.7933	-23.4141	18.3489	0	
0.7940	-28.2965	25.6624	0	
0.7947	-38.3581	10.4027	0	
0.7953	-50.8744	-14.3107	0	
0.7960	-54.8397	-21.6242	0	
0.7967	-49.3368	-16.4507	0	
0.7973	-43.2405	-9.11863	0	
0.7980	-41.1095	0.0372189	0	
0.7987	-40.1924	0.949082	0	
0.7993	-36.5238	-7.59265	0	
0.8000	-31.9381	-10.0305	0	
0.8007	-28.5932	-5.76893	0	
0.8013	-25.5451	-3.92659	0	
0.8020	-18.5317	-3.62884	0	
0.8027	-6.01537	-4.24295	0	
0.8033	10.7629	-4.85706	0	
0.8040	27.8649	-2.71698	0	
0.8047	38.8436	-2.10287	0	
0.8053	42.8089	-7.2949	0	
0.8060	42.5122	-11.2587	0	
0.8067	38.2502	-9.43499	0	
0.8073	30.2927	-7.59265	0	
0.8080	22.6858	-7.2949	0	
0.8087	16.5625	-6.38304	0	
0.8093	11.3833	-6.38304	0	
0.8100	6.50092	-7.2949	0	
0.8107	0.998066	-4.5407	0	
0.8113	-3.88436	-0.279142	0	
0.8120	-6.01537	3.08917	0	
0.8127	-7.52596	6.75523	0	
0.8133	-14.8631	10.1049	0	
0.8140	-28.2965	14.6828	0	
0.8147	-42.0267	20.1726	0	
0.8153	-48.123	22.015	0	
0.8160	-47.2058	20.1726	0	
0.8167	-44.7781	18.3489	0	
0.8173	-42.0267	14.9806	0	
0.8180	-34.0961	8.8767	0	
0.8187	-22.7937	-0.279142	0	
0.8193	-14.5664	-11.5565	0	
0.8200	-10.2774	-17.6604	0	
0.8207	-6.60882	-13.6965	0	
0.8213	-2.3468	-8.20676	0	
0.8220	0.701344	-7.2949	0	
0.8227	3.74949	-6.06668	0	
0.8233	11.0866	-5.45257	0	
0.8240	22.9825	-8.20676	0	
0.8247	35.4988	-9.11863	0	
0.8253	41.8918	-6.97854	0	
0.8260	41.2984	-7.90901	0	
0.8267	39.4641	-8.20676	0	
0.8273	35.7955	-4.24295	0	
0.8280	26.9478	-2.71698	0	
0.8287	19.3139	-3.62884	0	
0.8293	15.0519	-3.62884	0	
0.8300	10.1695	-1.80512	0	
0.8307	5.58377	-0.874644	0	
0.8313	3.15605	0.949082	0	
0.8320	0.998066	1.56319	0	
0.8327	-1.13294	1.86094	0	
0.8333	-7.84965	3.08917	0	
0.8340	-24.9247	3.70328	0	
0.8347	-42.3234	6.14112	0	
0.8353	-49.0401	12.5428	0	
0.8360	-49.9572	15.297	0	
0.8367	-48.7434	12.8591	0	
0.8373	-43.5373	14.3851	0	
0.8380	-35.9304	16.2088	0	
0.8387	-31.6414	14.0687	0	
0.8393	-30.1308	12.5428	0	
0.8400	-27.6761	9.49082	0	
0.8407	-20.9594	2.77281	0	
0.8413	-13.9459	0.65133	0	
0.8420	-9.06352	5.527	0	
0.8427	-1.72638	10.4027	0	
0.8433	12.9209	7.66709	0	
0.8440	34.5816	-7.2949	0	
0.8447	54.1114	-24.0806	0	
0.8453	59.6142	-26.2021	0	
0.8460	51.6567	-19.1863	0	
0.8467	44.0498	-17.3626	0	
0.8473	40.3812	-16.4507	0	
0.8480	36.7126	-10.961	0	
0.8487	37.0094	-6.68079	0	
0.8493	38.5469	-6.06668	0	
0.8500	33.9612	-5.15482	0	
0.8507	24.1964	-4.85706	0	
0.8513	13.2176	-3.92659	0	
0.8520	4.07319	-0.576893	0	
0.8527	0.0809243	1.86094	0	
0.8533	-5.39495	0.0372189	0	
0.8540	-19.4488	0.0372189	0	
0.8547	-33.4757	4.91289	0	
0.8553	-38.6548	8.57895	0	
0.8560	-38.9785	8.2812	0	
0.8567	-36.5238	7.05298	0	
0.8573	-30.7242	6.14112	0	
0.8580	-24.0075	5.527	0	
0.8587	-17.9112	7.35073	0	
0.8593	-11.8149	7.35073	0	
0.8600	-6.01537	5.22925	0	
0.8607	-1.42966	5.527	0	
0.8613	1.61849	5.22925	0	
0.8620	3.15605	-1.191	0	
0.8627	6.50092	-7.2949	0	
0.8633	12.9209	-8.82088	0	
0.8640	22.3621	-10.0305	0	
0.8647	34.2849	-10.961	0	
0.8653	41.8918	-7.59265	0	
0.8660	40.6779	-3.92659	0	
0.8667	35.7955	-1.80512	0	
0.8673	30.2927	1.56319	0	
0.8680	23.8996	2.1773	0	
0.8687	20.2311	1.86094	0	
0.8693	17.4796	5.527	0	
0.8700	10.4662	2.1773	0	
0.8707	2.83235	-14.3107	0	
0.8713	-1.13294	-24.6761	0	
0.8720	-3.56067	-17.0462	0	
0.8727	-4.47781	-7.2949	0	
0.8733	-9.06352	-3.92659	0	
0.8740	-22.4969	0.33497	0	
0.8747	-36.5238	7.35073	0	
0.8753	-41.1095	11.3332	0	
0.8760	-41.1095	12.5428	0	
0.8767	-38.3581	11.3332	0	
0.8773	-31.9381	8.2812	0	
0.8780	-24.628	9.19306	0	
0.8787	-19.1251	14.6828	0	
0.8793	-13.0288	12.8591	0	
0.8800	-7.22923	-0.279142	0	
0.8807	-3.56067	-9.73274	0	
0.8813	0.0809243	-6.06668	0	
0.8820	4.66663	2.77281	0	
0.8827	8.63192	7.35073	0	
0.8833	12.9209	6.14112	0	
0.8840	21.1482	6.43887	0	
0.8847	33.9612	13.4546	0	
0.8853	43.1326	13.771	0	
0.8860	44.3465	5.527	0	
0.8867	41.8918	3.70328	0	
0.8873	37.9265	3.38692	0	
0.8880	29.9959	-9.43499	0	
0.8887	19.3139	-19.8004	0	
0.8893	9.84579	-17.3626	0	
0.8900	3.45277	-15.5389	0	
0.8907	-1.42966	-12.7847	0	
0.8913	-6.31209	-3.01473	0	
0.8920	-9.98066	1.86094	0	
0.8927	-11.8149	-0.874644	0	
0.8933	-16.3737	0.0372189	0	
0.8940	-26.4622	4.00103	0	
0.8947	-38.0614	4.00103	0	
0.8953	-45.6952	3.38692	0	
0.8960	-46.6124	2.77281	0	
0.8967	-42.3234	2.1773	0	
0.8973	-37.1442	3.38692	0	
0.8980	-31.9381	4.61514	0	
0.8987	-24.628	4.29878	0	
0.8993	-16.6974	3.38692	0	
0.9000	-12.4084	0.33497	0	
0.9007	-10.6011	-3.62884	0	
0.9013	-6.01537	-3.33109	0	
0.9020	-0.51252	0.0372189	0	
0.9027	2.53563	0.949082	0	
0.9033	10.1695	0.949082	0	
0.9040	26.3274	1.24683	0	
0.9047	39.1673	0.65133	0	
0.9053	42.8089	0.33497	0	
0.9060	43.1326	1.86094	0	
0.9067	40.3812	3.38692	0	
0.9073	35.4988	4.29878	0	
0.9080	30.2927	4.00103	0	
0.9087	23.2792	-0.576893	0	
0.9093	14.4315	-6.97854	0	
0.9100	9.54906	-5.45257	0	
0.9107	5.8805	1.86094	0	
0.9113	-0.51252	3.08917	0	
0.9120	-4.47781	-0.874644	0	
0.9127	-6.01537	-2.40062	0	
0.9133	-16.3737	-1.80512	0	
0.9140	-35.9304	0.33497	0	
0.9147	-49.6605	5.82476	0	
0.9153	-52.0883	8.2812	0	
0.9160	-53.3021	6.43887	0	
0.9167	-52.385	6.75523	0	
0.9173	-44.1577	7.35073	0	
0.9180	-35.6067	4.61514	0	
0.9187	-31.0479	2.77281	0	
0.9193	-25.5451	3.08917	0	
0.9200	-19.1251	1.86094	0	
0.9207	-12.7321	-1.80512	0	
0.9213	-0.51252	-3.62884	0	
0.9220	12.0038	-4.5407	0	
0.9227	22.0654	-5.15482	0	
0.9233	35.7955	-3.62884	0	
0.9240	49.2289	-2.40062	0	
0.9247	52.2771	-3.62884	0	
0.9253	49.5257	-3.33109	0	
0.9260	48.9322	0.0372189	0	
0.9267	48.0151	-0.279142	0	
0.9273	44.0498	-5.45257	0	
0.9280	36.0922	-7.2949	0	
0.9287	24.8168	-3.92659	0	
0.9293	16.2658	-3.62884	0	
0.9300	12.0038	-3.62884	0	
0.9307	5.58377	0.0372189	0	
0.9313	-1.72638	2.77281	0	
0.9320	-7.52596	0.33497	0	
0.9327	-13.9459	-1.191	0	
0.9333	-23.4141	1.86094	0	
0.9340	-30.1308	5.527	0	
0.9347	-33.179	6.43887	0	
0.9353	-36.8205	6.14112	0	
0.9360	-40.8128	7.35073	0	
0.9367	-40.4891	7.35073	0	
0.9373	-34.6895	3.70328	0	
0.9380	-25.5451	0.33497	0	
0.9387	-18.208	0.949082	0	
0.9393	-12.4084	1.86094	0	
0.9400	-5.71865	0.33497	0	
0.9407	-1.42966	-1.48876	0	
0.9413	-0.215798	-3.92659	0	
0.9420	2.83235	-6.06668	0	
0.9427	6.50092	-3.62884	0	
0.9433	11.0866	-1.191	0	
0.9440	23.8996	-3.62884	0	
0.9447	38.5469	-7.90901	0	
0.9453	44.0498	-8.50451	0	
0.9460	44.0498	-6.97854	0	
0.9467	40.9747	-4.5407	0	
0.9473	33.0441	-4.24295	0	
0.9480	27.5682	-5.15482	0	
0.9487	24.1964	-2.10287	0	
0.9493	12.9209	0.65133	0	
0.9500	2.2389	-1.80512	0	
0.9507	0.404621	0.65133	0	
0.9513	-0.836217	9.19306	0	
0.9520	-4.80151	10.719	0	
0.9527	-7.22923	6.43887	0	
0.9533	-13.6492	2.77281	0	
0.9540	-28.2965	-1.80512	0	
0.9547	-41.4063	-6.68079	0	
0.9553	-45.3715	-8.82088	0	
0.9560	-43.2405	-5.45257	0	
0.9567	-41.1095	4.29878	0	
0.9573	-37.441	10.1049	0	
0.9580	-29.2137	8.2812	0	
0.9587	-20.0422	9.49082	0	
0.9593	-14.5664	6.43887	0	
0.9600	-9.36024	-9.11863	0	
0.9607	-2.64353	-14.6084	0	
0.9613	1.91521	-4.24295	0	
0.9620	4.66663	-0.874644	0	
0.9627	6.50092	-7.2949	0	
0.9633	11.0866	-9.73274	0	
0.9640	22.6858	-8.20676	0	
0.9647	38.8436	-6.38304	0	
0.9653	47.3946	-2.40062	0	
0.9660	44.9669	3.70328	0	
0.9667	37.9265	8.8767	0	
0.9673	28.4853	3.70328	0	
0.9680	17.4796	-11.8728	0	
0.9687	8.95562	-22.8524	0	
0.9693	2.53563	-19.1863	0	
0.9700	-3.88436	-8.20676	0	
0.9707	-8.14638	0.949082	0	
0.9713	-11.4912	3.38692	0	
0.9720	-16.077	0.949082	0	
0.9727	-19.7455	0.0372189	0	
0.9733	-25.2484	0.949082	0	
0.9740	-33.7724	1.24683	0	
0.9747	-38.0614	4.61514	0	
0.9753	-35.0132	8.57895	0	
0.9760	-31.3447	9.19306	0	
0.9767	-24.9247	9.19306	0	
0.9773	-12.7321	11.6309	0	
0.9780	-5.09823	14.0687	0	
0.9787	-5.09823	14.0687	0	
0.9793	-3.88436	8.8767	0	
0.9800	-1.13294	-1.48876	0	
0.9807	0.0809243	-8.82088	0	
0.9813	3.74949	-6.97854	0	
0.9820	8.3352	-2.10287	0	
0.9827	9.25234	-0.576893	0	
0.9833	15.0519	-1.48876	0	
0.9840	27.5682	-2.71698	0	
0.9847	37.6298	-4.85706	0	
0.9853	44.0498	-6.68079	0	
0.9860	47.0979	-6.97854	0	
0.9867	42.2155	-5.76893	0	
0.9873	32.1269	-3.62884	0	
0.9880	25.1135	-1.48876	0	
0.9887	19.0172	-0.874644	0	
0.9893	10.1695	-0.576893	0	
0.9900	4.96336	2.1773	0	
0.9907	2.83235	4.29878	0	
0.9913	-2.64353	4.00103	0	
0.9920	-8.14638	5.22925	0	
0.9927	-11.1945	8.8767	0	
0.9933	-19.1251	10.4027	0	
0.9940	-32.8553	10.4027	0	
0.9947	-43.5373	12.245	0	
0.9953	-47.8262	13.1569	0	
0.9960	-48.123	11.0168	0	
0.9967	-44.4544	8.2812	0	
0.9973	-37.7377	7.66709	0	
0.9980	-30.1308	8.57895	0	
0.9987	-22.4969	8.2812	0	
0.9993	-16.077	6.43887	0	
1.0000	-11.4912	4.00103	0	
1.0007	-7.84965	2.47506	0	
1.0013	-2.05008	1.86094	0	
1.0020	2.53563	3.38692	0	
1.0027	2.83235	4.00103	0	
1.0033	8.63192	0.0372189	0	
1.0040	23.8996	-4.5407	0	
1.0047	36.0922	-5.76893	0	
1.0053	40.9747	-5.45257	0	
1.0060	43.1326	-4.5407	0	
1.0067	39.7608	-3.62884	0	
1.0073	30.9131	-3.62884	0	
1.0080	24.5201	-3.62884	0	
1.0087	19.9343	-0.874644	0	
1.0093	13.838	1.86094	0	
1.0100	7.71478	4.00103	0	
1.0107	1.61849	5.527	0	
1.0113	-4.18109	5.22925	0	
1.0120	-5.71865	6.43887	0	
1.0127	-6.60882	6.14112	0	
1.0133	-13.6492	2.77281	0	
1.0140	-27.0557	3.08917	0	
1.0147	-39.2752	7.35073	0	
1.0153	-44.7781	6.75523	0	
1.0160	-47.2058	4.00103	0	
1.0167	-45.0748	4.29878	0	
1.0173	-35.6067	3.70328	0	
1.0180	-25.8418	1.86094	0	
1.0187	-20.0422	2.1773	0	
1.0193	-14.2427	2.77281	0	
1.0200	-9.98066	0.949082	0	
1.0207	-6.93251	-1.48876	0	
1.0213	-0.836217	-4.5407	0	
1.0220	3.15605	-5.45257	0	
1.0227	2.83235	-4.24295	0	
1.0233	10.4662	-6.06668	0	
1.0240	25.7339	-9.73274	0	
1.0247	36.4159	-8.20676	0	
1.0253	41.5951	-6.38304	0	
1.0260	44.9669	-6.97854	0	
1.0267	43.1326	-7.2949	0	
1.0273	36.7126	-7.90901	0	
1.0280	30.6163	-9.11863	0	
1.0287	25.1135	-5.45257	0	
1.0293	18.1001	-1.48876	0	
1.0300	12.9209	-3.62884	0	
1.0307	10.1695	-4.5407	0	
1.0313	4.66663	0.0372189	0	
1.0320	-0.215798	3.70328	0	
1.0327	-1.13294	2.77281	0	
1.0333	-7.22923	4.00103	0	
1.0340	-22.7937	8.2812	0	
1.0347	-35.31	9.49082	0	
1.0353	-39.2752	8.8767	0	
1.0360	-40.1924	8.2812	0	
1.0367	-38.6548	6.43887	0	
1.0373	-34.3928	5.527	0	
1.0380	-27.9728	6.14112	0	
1.0387	-20.3659	4.00103	0	
1.0393	-13.6492	-0.279142	0	
1.0400	-9.06352	-3.01473	0	
1.0407	-3.56067	-4.5407	0	
1.0413	1.61849	-4.5407	0	
1.0420	1.91521	-2.10287	0	
1.0427	3.74949	-1.48876	0	
1.0433	12.5972	-2.10287	0	
1.0440	23.8996	-2.40062	0	
1.0447	32.4506	-5.45257	0	
1.0453	38.5469	-9.43499	0	
1.0460	39.4641	-10.3468	0	
1.0467	34.8784	-12.7847	0	
1.0473	28.4853	-14.9248	0	
1.0480	23.2792	-10.6446	0	
1.0487	17.1829	-4.5407	0	
1.0493	10.7629	-2.71698	0	
1.0500	6.50092	-2.40062	0	
1.0507	4.07319	-2.10287	0	
1.0513	0.404621	-0.874644	0	
1.0520	-4.47781	0.0372189	0	
1.0527	-7.84965	-2.10287	0	
1.0533	-13.6492	-3.01473	0	
1.0540	-27.3794	1.86094	0	
1.0547	-40.4891	5.527	0	
1.0553	-45.6952	5.527	0	
1.0560	-45.6952	4.61514	0	
1.0567	-41.4063	4.29878	0	
1.0573	-33.179	4.00103	0	
1.0580	-24.3312	3.38692	0	
1.0587	-17.9112	1.24683	0	
1.0593	-13.0288	-0.874644	0	
1.0600	-8.4431	-2.10287	0	
1.0607	-3.26395	-3.62884	0	
1.0613	2.2389	-3.33109	0	
1.0620	5.28705	-2.40062	0	
1.0627	7.71478	-3.62884	0	
1.0633	11.0866	-5.45257	0	
1.0640	18.3968	-7.59265	0	
1.0647	29.4025	-10.0305	0	
1.0653	36.4159	-9.43499	0	
1.0660	34.8784	-5.45257	0	
1.0667	30.2927	-3.62884	0	
1.0673	25.1135	-2.40062	0	
1.0680	19.3139	2.47506	0	
1.0687	13.2176	8.8767	0	
1.0693	8.3352	11.0168	0	
1.0700	3.74949	5.527	0	
1.0707	-0.836217	-3.92659	0	
1.0713	-4.47781	-10.0305	0	
1.0720	-4.47781	-9.11863	0	
1.0727	0.404621	-6.38304	0	
1.0733	0.998066	-3.92659	0	
1.0740	-5.39495	1.56319	0	
1.0747	-12.7321	5.82476	0	
1.0753	-20.6627	5.527	0	
1.0760	-31.0479	4.00103	0	
1.0767	-36.5238	4.91289	0	
1.0773	-31.6414	7.66709	0	
1.0780	-22.7937	10.4027	0	
1.0787	-15.4835	10.1049	0	
1.0793	-9.36024	3.38692	0	
1.0800	-6.60882	-4.85706	0	
1.0807	-5.09823	-9.11863	0	
1.0813	0.404621	-7.90901	0	
1.0820	5.58377	-4.5407	0	
1.0827	5.58377	-3.62884	0	
1.0833	10.1695	-4.24295	0	
1.0840	25.4102	-4.5407	0	
1.0847	39.4641	-5.45257	0	
1.0853	44.0498	-8.20676	0	
1.0860	44.0498	-9.11863	0	
1.0867	42.2155	-7.59265	0	
1.0873	36.7126	-5.76893	0	
1.0880	29.6992	-3.62884	0	
1.0887	21.1482	-0.874644	0	
1.0893	12.9209	-0.279142	0	
1.0900	9.54906	-0.576893	0	
1.0907	7.71478	0.0372189	0	
1.0913	1.91521	2.47506	0	
1.0920	-3.56067	5.527	0	
1.0927	-5.71865	5.527	0	
1.0933	-12.7321	2.1773	0	
1.0940	-25.8418	3.38692	0	
1.0947	-37.7377	7.96484	0	
1.0953	-44.1577	7.96484	0	
1.0960	-46.9091	5.22925	0	
1.0967	-44.7781	4.61514	0	
1.0973	-37.7377	4.61514	0	
1.0980	-29.8071	2.77281	0	
1.0987	-22.4969	1.56319	0	
1.0993	-15.4835	0.949082	0	
1.1000	-9.36024	1.24683	0	
1.1007	-5.09823	0.33497	0	
1.1013	0.0809243	-2.71698	0	
1.1020	3.74949	-4.85706	0	
1.1027	3.74949	-3.62884	0	
1.1033	7.71478	-3.33109	0	
1.1040	22.9825	-6.38304	0	
1.1047	37.3331	-8.82088	0	
1.1053	40.3812	-7.90901	0	
1.1060	39.1673	-8.20676	0	
1.1067	37.6298	-10.0305	0	
1.1073	30.6163	-7.59265	0	
1.1080	22.0654	-4.5407	0	
1.1087	18.3968	-6.06668	0	
1.1093	13.838	-7.90901	0	
1.1100	6.79764	-6.38304	0	
1.1107	3.45277	-4.5407	0	
1.1113	1.91521	-3.01473	0	
1.1120	-3.26395	-1.48876	0	
1.1127	-7.52596	-0.874644	0	
1.1133	-12.1117	0.65133	0	
1.1140	-23.7108	2.77281	0	
1.1147	-35.9304	3.70328	0	
1.1153	-40.8128	5.22925	0	
1.1160	-42.3234	4.91289	0	
1.1167	-41.1095	1.86094	0	
1.1173	-33.4757	0.949082	0	
1.1180	-24.9247	2.77281	0	
1.1187	-20.9594	-0.279142	0	
1.1193	-16.3737	-5.45257	0	
1.1200	-9.06352	-6.06668	0	
1.1207	-3.56067	-3.62884	0	
1.1213	-0.51252	-2.10287	0	
1.1220	2.2389	-1.48876	0	
1.1227	5.58377	-2.10287	0	
1.1233	12.5972	-4.5407	0	
1.1240	24.8168	-7.2949	0	
1.1247	37.3331	-8.20676	0	
1.1253	43.1326	-6.97854	0	
1.1260	43.4294	-5.45257	0	
1.1267	41.2984	-6.06668	0	
1.1273	33.9612	-6.38304	0	
1.1280	25.7339	-4.85706	0	
1.1287	19.9343	-4.24295	0	
1.1293	14.1348	-2.10287	0	
1.1300	8.3352	2.77281	0	
1.1307	4.66663	4.61514	0	
1.1313	-0.836217	3.70328	0	
1.1320	-7.22923	4.91289	0	
1.1327	-9.68394	6.43887	0	
1.1333	-14.5664	4.91289	0	
1.1340	-27.0557	3.08917	0	
1.1347	-39.2752	-0.279142	0	
1.1353	-45.6952	-3.62884	0	
1.1360	-48.4197	-1.48876	0	
1.1367	-45.6952	5.22925	0	
1.1373	-38.9785	9.49082	0	
1.1380	-29.2137	10.719	0	
1.1387	-19.7455	8.8767	0	
1.1393	-12.4084	6.75523	0	
1.1400	-8.4431	7.35073	0	
1.1407	-5.39495	9.19306	0	
1.1413	-0.836217	14.0687	0	
1.1420	4.36991	17.7348	0	
1.1427	6.50092	4.91289	0	
1.1433	10.4662	-16.4507	0	
1.1440	24.8168	-25.6066	0	
1.1447	39.1673	-26.5185	0	
1.1453	41.2984	-25.6066	0	
1.1460	41.2984	-18.8886	0	
1.1467	42.2155	-12.1706	0	
1.1473	35.7955	-11.8728	0	
1.1480	26.0306	-10.6446	0	
1.1487	21.1482	-6.38304	0	
1.1493	14.4315	-3.92659	0	
1.1500	5.58377	-3.92659	0	
1.1507	2.53563	-3.62884	0	
1.1513	0.0809243	-1.80512	0	
1.1520	-6.60882	1.86094	0	
1.1527	-9.68394	3.70328	0	
1.1533	-11.8149	3.38692	0	
1.1540	-24.0075	2.47506	0	
1.1547	-38.9785	2.77281	0	
1.1553	-46.2887	6.43887	0	
1.1560	-45.992	7.66709	0	
1.1567	-41.1095	4.00103	0	
1.1573	-34.3928	2.77281	0	
1.1580	-29.2137	4.29878	0	
1.1587	-22.7937	2.77281	0	
1.1593	-14.5664	1.86094	0	
1.1600	-9.06352	3.38692	0	
1.1607	-6.93251	1.24683	0	
1.1613	-2.64353	-1.48876	0	
1.1620	0.701344	-1.80512	0	
1.1627	2.83235	-2.71698	0	
1.1633	8.63192	-3.62884	0	
1.1640	20.2311	-3.92659	0	
1.1647	33.9612	-8.20676	0	
1.1653	42.5122	-10.6446	0	
1.1660	41.5951	-5.45257	0	
1.1667	35.1751	-1.80512	0	
1.1673	30.2927	-3.62884	0	
1.1680	25.7339	-5.15482	0	
1.1687	19.6106	-2.71698	0	
1.1693	14.1348	-0.279142	0	
1.1700	10.1695	0.65133	0	
1.1707	5.58377	-0.576893	0	
1.1713	1.61849	-1.80512	0	
1.1720	-0.215798	0.33497	0	
1.1727	-1.72638	5.22925	0	
1.1733	-9.06352	7.66709	0	
1.1740	-24.0075	7.35073	0	
1.1747	-35.6067	6.75523	0	
1.1753	-39.2752	6.75523	0	
1.1760	-42.0267	6.75523	0	
1.1767	-40.4891	6.43887	0	
1.1773	-33.7724	5.527	0	
1.1780	-29.2137	3.38692	0	
1.1787	-24.628	1.86094	0	
1.1793	-13.3255	2.1773	0	
1.1800	-6.93251	1.56319	0	
1.1807	-7.52596	-2.40062	0	
1.1813	-3.56067	-3.92659	0	
1.1820	2.2389	-1.48876	0	
1.1827	3.74949	-0.874644	0	
1.1833	9.54906	-3.62884	0	
1.1840	21.1482	-5.45257	0	
1.1847	32.7474	-6.68079	0	
1.1853	41.2984	-7.90901	0	
1.1860	43.1326	-7.90901	0	
1.1867	37.9265	-7.59265	0	
1.1873	32.1269	-6.38304	0	
1.1880	27.5682	-2.40062	0	
1.1887	21.7686	-1.191	0	
1.1893	15.3486	-3.92659	0	
1.1900	8.63192	-3.62884	0	
1.1907	2.83235	0.0372189	0	
1.1913	-2.3468	1.86094	0	
1.1920	-5.39495	3.38692	0	
1.1927	-6.31209	4.61514	0	
1.1933	-11.1945	4.00103	0	
1.1940	-25.5451	4.61514	0	
1.1947	-39.2752	6.75523	0	
1.1953	-43.861	7.35073	0	
1.1960	-43.5373	6.75523	0	
1.1967	-41.1095	6.14112	0	
1.1973	-35.6067	4.00103	0	
1.1980	-28.89	2.77281	0	
1.1987	-23.4141	3.70328	0	
1.1993	-16.9941	2.77281	0	
1.2000	-9.06352	1.24683	0	
1.2007	-2.3468	1.86094	0	
1.2013	2.2389	0.949082	0	
1.2020	3.45277	-1.191	0	
1.2027	4.07319	-1.80512	0	
1.2033	11.0866	-1.48876	0	
1.2040	26.0306	-2.71698	0	
1.2047	40.3812	-3.92659	0	
1.2053	45.8571	-5.45257	0	
1.2060	44.0498	-7.2949	0	
1.2067	39.1673	-6.06668	0	
1.2073	32.7474	-3.62884	0	
1.2080	26.6511	-1.191	0	
1.2087	20.5278	1.86094	0	
1.2093	13.838	1.86094	0	
1.2100	11.0866	-0.874644	0	
1.2107	8.95562	1.24683	0	
1.2113	3.15605	4.61514	0	
1.2120	-0.836217	1.56319	0	
1.2127	-3.26395	0.33497	0	
1.2133	-11.4912	4.29878	0	
1.2140	-25.2484	4.91289	0	
1.2147	-35.31	5.527	0	
1.2153	-41.1095	9.19306	0	
1.2160	-42.9438	8.2812	0	
1.2167	-39.2752	4.29878	0	
1.2173	-34.0961	2.47506	0	
1.2180	-28.2965	0.949082	0	
1.2187	-20.6627	0.0372189	0	
1.2193	-14.5664	1.86094	0	
1.2200	-9.36024	0.949082	0	
1.2207	-4.47781	-0.279142	0	
1.2213	-0.836217	0.33497	0	
1.2220	4.07319	-2.10287	0	
1.2227	8.63192	-4.5407	0	
1.2233	14.4315	-3.62884	0	
1.2240	27.5682	-3.62884	0	
1.2247	42.2155	-4.24295	0	
1.2253	45.8571	-4.5407	0	
1.2260	43.1326	-7.2949	0	
1.2267	41.5951	-9.11863	0	
1.2273	35.7955	-5.45257	0	
1.2280	26.9478	-2.71698	0	
1.2287	21.1482	-2.71698	0	
1.2293	14.7282	-2.71698	0	
1.2300	7.71478	-2.71698	0	
1.2307	3.15605	-2.10287	0	
1.2313	-1.72638	0.0372189	0	
1.2320	-6.01537	1.86094	0	
1.2327	-6.31209	2.77281	0	
1.2333	-13.0288	3.08917	0	
1.2340	-28.5932	3.70328	0	
1.2347	-40.4891	7.05298	0	
1.2353	-44.1577	11.3332	0	
1.2360	-44.7781	7.96484	0	
1.2367	-40.4891	-1.80512	0	
1.2373	-32.2618	-6.38304	0	
1.2380	-26.1655	-4.5407	0	
1.2387	-20.6627	-2.40062	0	
1.2393	-13.3255	-1.191	0	
1.2400	-8.4431	-1.80512	0	
1.2407	-5.71865	-4.24295	0	
1.2413	-0.215798	-5.45257	0	
1.2420	5.28705	-5.76893	0	
1.2427	7.41806	-5.45257	0	
1.2433	12.9209	-6.38304	0	
1.2440	26.3274	-10.3468	0	
1.2447	39.1673	-14.0129	0	
1.2453	43.1326	-12.1706	0	
1.2460	42.2155	-11.5565	0	
1.2467	40.3812	-12.1706	0	
1.2473	34.5816	-7.90901	0	
1.2480	26.9478	-6.38304	0	
1.2487	21.1482	-9.11863	0	
1.2493	14.4315	-6.06668	0	
1.2500	7.41806	-3.01473	0	
1.2507	2.2389	-4.85706	0	
1.2513	-2.64353	-3.62884	0	
1.2520	-5.09823	-1.48876	0	
1.2527	-5.39495	-2.40062	0	
1.2533	-13.6492	0.949082	0	
1.2540	-30.4275	5.527	0	
1.2547	-41.703	5.22925	0	
1.2553	-45.6952	6.75523	0	
1.2560	-47.5025	9.19306	0	
1.2567	-43.861	7.35073	0	
1.2573	-35.6067	7.35073	0	
1.2580	-28.2965	7.35073	0	
1.2587	-20.6627	3.38692	0	
1.2593	-12.7321	2.47506	0	
1.2600	-9.98066	4.00103	0	
1.2607	-8.14638	0.949082	0	
1.2613	-1.72638	-2.71698	0	
1.2620	3.45277	-2.71698	0	
1.2627	5.58377	-2.40062	0	
1.2633	12.5972	-4.24295	0	
1.2640	26.6511	-7.90901	0	
1.2647	39.1673	-9.11863	0	
1.2653	44.0498	-7.59265	0	
1.2660	44.6432	-8.20676	0	
1.2667	41.2984	-9.11863	0	
1.2673	33.0441	-6.38304	0	
1.2680	26.0306	-4.24295	0	
1.2687	22.9825	-5.45257	0	
1.2693	17.4796	-4.24295	0	
1.2700	9.25234	-2.10287	0	
1.2707	5.28705	-1.48876	0	
1.2713	2.83235	2.1773	0	
1.2720	-3.26395	7.96484	0	
1.2727	-7.52596	9.80718	0	
1.2733	-12.7321	9.49082	0	
1.2740	-26.4622	7.66709	0	
1.2747	-40.4891	0.0372189	0	
1.2753	-46.2887	-6.38304	0	
1.2760	-46.2887	-5.15482	0	
1.2767	-43.861	-0.874644	0	
1.2773	-37.441	1.24683	0	
1.2780	-28.89	1.24683	0	
1.2787	-20.9594	-1.48876	0	
1.2793	-15.7802	-3.01473	0	
1.2800	-11.8149	-1.48876	0	
1.2807	-6.60882	-0.576893	0	
1.2813	0.404621	-2.71698	0	
1.2820	4.96336	-3.62884	0	
1.2827	8.3352	-3.62884	0	
1.2833	15.9691	-4.85706	0	
1.2840	30.2927	-7.2949	0	
1.2847	44.9669	-8.20676	0	
1.2853	51.0632	-7.90901	0	
1.2860	48.0151	-9.11863	0	
1.2867	42.2155	-8.20676	0	
1.2873	36.0922	-3.62884	0	
1.2880	30.6163	-0.874644	0	
1.2887	24.8168	-0.874644	0	
1.2893	17.8033	1.24683	0	
1.2900	10.1695	3.70328	0	
1.2907	4.96336	2.77281	0	
1.2913	1.61849	-0.874644	0	
1.2920	-2.64353	-2.71698	0	
1.2927	-7.22923	0.0372189	0	
1.2933	-14.2427	4.61514	0	
1.2940	-28.2965	8.8767	0	
1.2947	-43.2405	11.9287	0	
1.2953	-48.4197	12.8591	0	
1.2960	-46.6124	11.9287	0	
1.2967	-44.4544	10.719	0	
1.2973	-39.572	8.57895	0	
1.2980	-33.7724	4.61514	0	
1.2987	-29.2137	3.38692	0	
1.2993	-22.4969	4.29878	0	
1.3000	-16.3737	0.949082	0	
1.3007	-11.8149	-1.48876	0	
1.3013	-4.18109	0.0372189	0	
1.3020	3.45277	0.33497	0	
1.3027	5.58377	-0.874644	0	
1.3033	10.7629	-1.80512	0	
1.3040	25.7339	-4.5407	0	
1.3047	39.4641	-8.82088	0	
1.3053	44.9669	-9.11863	0	
1.3060	44.9669	-7.59265	0	
1.3067	41.8918	-7.2949	0	
1.3073	37.3331	-7.90901	0	
1.3080	30.2927	-7.90901	0	
1.3087	21.1482	-8.20676	0	
1.3093	13.2176	-7.59265	0	
1.3100	7.41806	-4.24295	0	
1.3107	1.91521	-1.80512	0	
1.3113	-3.56067	-1.48876	0	
1.3120	-7.22923	-0.576893	0	
1.3127	-9.68394	1.86094	0	
1.3133	-16.9941	4.61514	0	
1.3140	-32.5585	8.2812	0	
1.3147	-45.992	10.4027	0	
1.3153	-49.3368	8.2812	0	
1.3160	-47.8262	5.22925	0	
1.3167	-45.0748	5.527	0	
1.3173	-37.441	6.14112	0	
1.3180	-30.1308	4.61514	0	
1.3187	-25.5451	2.77281	0	
1.3193	-16.3737	1.86094	0	
1.3200	-6.31209	3.38692	0	
1.3207	-1.72638	4.61514	0	
1.3213	1.91521	4.29878	0	
1.3220	4.36991	3.70328	0	
1.3227	5.58377	4.61514	0	
1.3233	12.0038	4.61514	0	
1.3240	25.7339	2.1773	0	
1.3247	37.9265	-1.48876	0	
1.3253	44.6432	-6.38304	0	
1.3260	46.4775	-10.961	0	
1.3267	43.1326	-10.6446	0	
1.3273	35.4988	-5.45257	0	
1.3280	29.4025	-1.80512	0	
1.3287	26.0306	0.0372189	0	
1.3293	21.7686	1.56319	0	
1.3300	15.6454	1.86094	0	
1.3307	9.84579	0.65133	0	
1.3313	3.45277	1.56319	0	
1.3320	-1.13294	3.70328	0	
1.3327	-2.64353	4.61514	0	
1.3333	-6.93251	6.43887	0	
1.3340	-19.7455	8.2812	0	
1.3347	-35.9304	7.35073	0	
1.3353	-44.7781	6.43887	0	
1.3360	-45.6952	9.19306	0	
1.3367	-43.2405	8.2812	0	
1.3373	-38.3581	3.70328	0	
1.3380	-32.5585	4.91289	0	
1.3387	-26.4622	6.43887	0	
1.3393	-18.8284	0.949082	0	
1.3400	-10.8978	0.33497	0	
1.3407	-7.22923	2.77281	0	
1.3413	-3.26395	-2.10287	0	
1.3420	1.91521	-4.24295	0	
1.3427	2.83235	1.24683	0	
1.3433	6.20419	0.0372189	0	
1.3440	22.0654	-4.24295	0	
1.3447	39.4641	-3.62884	0	
1.3453	45.2636	-5.76893	0	
1.3460	42.2155	-7.90901	0	
1.3467	38.5469	-3.33109	0	
1.3473	35.1751	-2.10287	0	
1.3480	28.7821	-3.62884	0	
1.3487	19.3139	-0.874644	0	
1.3493	12.5972	-0.279142	0	
1.3500	8.63192	-2.71698	0	
1.3507	2.83235	0.65133	0	
1.3513	-2.96722	3.08917	0	
1.3520	-4.18109	-0.279142	0	
1.3527	-6.31209	-0.279142	0	
1.3533	-15.4835	4.61514	0	
1.3540	-28.2965	6.14112	0	
1.3547	-40.1924	5.22925	0	
1.3553	-47.8262	7.05298	0	
1.3560	-48.7434	8.8767	0	
1.3567	-42.9438	6.43887	0	
1.3573	-35.6067	2.1773	0	
1.3580	-29.2137	0.33497	0	
1.3587	-22.1732	0.65133	0	
1.3593	-16.077	0.949082	0	
1.3600	-12.4084	-0.874644	0	
1.3607	-7.22923	-3.01473	0	
1.3613	0.404621	-1.191	0	
1.3620	4.07319	1.56319	0	
1.3627	5.58377	-0.874644	0	
1.3633	12.9209	-4.5407	0	
1.3640	26.0306	-5.45257	0	
1.3647	38.8436	-6.38304	0	
1.3653	44.9669	-6.38304	0	
1.3660	43.7261	-3.33109	0	
1.3667	40.3812	1.86094	0	
1.3673	36.4159	3.70328	0	
1.3680	27.5682	1.24683	0	
1.3687	19.6106	-5.45257	0	
1.3693	15.9691	-14.3107	0	
1.3700	10.1695	-16.7485	0	
1.3707	2.83235	-9.43499	0	
1.3713	-0.836217	-2.10287	0	
1.3720	-2.96722	-1.80512	0	
1.3727	-6.01537	-2.10287	0	
1.3733	-11.4912	1.24683	0	
1.3740	-24.3312	2.77281	0	
1.3747	-37.7377	1.86094	0	
1.3753	-42.0267	4.00103	0	
1.3760	-43.2405	7.66709	0	
1.3767	-43.5373	10.1049	0	
1.3773	-36.5238	12.5428	0	
1.3780	-26.1655	13.771	0	
1.3787	-19.1251	10.4027	0	
1.3793	-13.0288	5.22925	0	
1.3800	-7.52596	3.08917	0	
1.3807	-4.47781	3.38692	0	
1.3813	0.0809243	1.86094	0	
1.3820	4.66663	-0.576893	0	
1.3827	6.79764	-0.576893	0	
1.3833	13.5144	0.65133	0	
1.3840	27.5682	-1.191	0	
1.3847	40.3812	-4.24295	0	
1.3853	47.0979	-3.62884	0	
1.3860	47.6914	-2.71698	0	
1.3867	41.2984	-4.85706	0	
1.3873	33.0441	-4.85706	0	
1.3880	29.0788	-0.874644	0	
1.3887	22.6858	0.65133	0	
1.3893	13.2176	-0.874644	0	
1.3900	9.25234	0.65133	0	
1.3907	6.79764	1.56319	0	
1.3913	0.404621	0.33497	0	
1.3920	-5.39495	0.949082	0	
1.3927	-8.4431	1.24683	0	
1.3933	-15.1598	0.0372189	0	
1.3940	-27.9728	2.1773	0	
1.3947	-41.1095	5.527	0	
1.3953	-45.6952	4.91289	0	
1.3960	-44.7781	4.61514	0	
1.3967	-43.861	7.35073	0	
1.3973	-38.3581	6.43887	0	
1.3980	-27.9728	5.527	0	
1.3987	-23.0904	6.43887	0	
1.3993	-19.7455	3.70328	0	
1.4000	-11.1945	-3.62884	0	
1.4007	-5.71865	-8.20676	0	
1.4013	-2.96722	-9.73274	0	
1.4020	2.83235	-9.73274	0	
1.4027	7.41806	-7.90901	0	
1.4033	11.3833	-7.59265	0	
1.4040	24.8168	-10.3468	0	
1.4047	40.0575	-10.961	0	
1.4053	45.8571	-8.82088	0	
1.4060	45.8571	-8.20676	0	
1.4067	42.8089	-7.90901	0	
1.4073	36.4159	-6.06668	0	
1.4080	30.2927	-4.24295	0	
1.4087	24.8168	-4.5407	0	
1.4093	18.3968	-5.45257	0	
1.4100	11.0866	-4.5407	0	
1.4107	5.8805	-3.62884	0	
1.4113	3.45277	-2.40062	0	
1.4120	0.404621	-2.71698	0	
1.4127	-5.09823	-2.71698	0	
1.4133	-12.1117	0.949082	0	
1.4140	-24.0075	4.61514	0	
1.4147	-38.6548	5.82476	0	
1.4153	-46.2887	7.05298	0	
1.4160	-45.6952	7.96484	0	
1.4167	-43.861	6.43887	0	
1.4173	-39.8957	4.00103	0	
1.4180	-31.9381	3.38692	0	
1.4187	-25.2484	5.22925	0	
1.4193	-21.5798	6.75523	0	
1.4200	-17.9112	5.22925	0	
1.4207	-12.7321	2.1773	0	
1.4213	-7.22923	0.33497	0	
1.4220	-3.56067	-0.279142	0	
1.4227	0.404621	-0.874644	0	
1.4233	10.1695	-2.40062	0	
1.4240	23.8996	-3.92659	0	
1.4247	33.6645	-6.06668	0	
1.4253	39.4641	-6.06668	0	
1.4260	43.4294	-5.45257	0	
1.4267	41.5951	-4.5407	0	
1.4273	34.2849	-2.71698	0	
1.4280	27.2445	0.0372189	0	
1.4287	20.2311	1.24683	0	
1.4293	13.5144	0.949082	0	
1.4300	10.4662	0.0372189	0	
1.4307	8.03848	0.0372189	0	
1.4313	0.0809243	2.1773	0	
1.4320	-5.71865	3.70328	0	
1.4327	-6.93251	2.47506	0	
1.4333	-14.5664	3.70328	0	
1.4340	-29.2137	6.75523	0	
1.4347	-40.1924	6.43887	0	
1.4353	-45.6952	6.14112	0	
1.4360	-47.8262	8.2812	0	
1.4367	-42.6201	6.43887	0	
1.4373	-34.3928	2.77281	0	
1.4380	-30.1308	2.47506	0	
1.4387	-25.8418	1.86094	0	
1.4393	-18.208	0.0372189	0	
1.4400	-12.4084	1.24683	0	
1.4407	-9.36024	0.949082	0	
1.4413	-5.39495	-1.48876	0	
1.4420	-1.13294	-1.191	0	
1.4427	2.2389	-1.48876	0	
1.4433	10.4662	-2.10287	0	
1.4440	24.8168	0.33497	0	
1.4447	37.9265	0.65133	0	
1.4453	44.9669	-5.15482	0	
1.4460	45.8571	-10.6446	0	
1.4467	41.2984	-11.5565	0	
1.4473	35.7955	-9.73274	0	
1.4480	31.2098	-6.68079	0	
1.4487	23.2792	-4.85706	0	
1.4493	15.3486	-2.71698	0	
1.4500	11.6801	0.65133	0	
1.4507	8.03848	1.86094	0	
1.4513	2.53563	2.77281	0	
1.4520	-0.836217	4.29878	0	
1.4527	-2.64353	4.29878	0	
1.4533	-9.06352	5.22925	0	
1.4540	-22.7937	6.75523	0	
1.4547	-37.441	6.43887	0	
1.4553	-42.6201	7.05298	0	
1.4560	-40.4891	7.35073	0	
1.4567	-39.2752	1.86094	0	
1.4573	-35.6067	-1.191	0	
1.4580	-27.3794	1.86094	0	
1.4587	-20.0422	2.77281	0	
1.4593	-15.1598	1.86094	0	
1.4600	-9.98066	2.77281	0	
1.4607	-3.56067	3.08917	0	
1.4613	0.998066	-0.279142	0	
1.4620	3.15605	-4.5407	0	
1.4627	4.96336	-5.45257	0	
1.4633	12.5972	-4.24295	0	
1.4640	27.5682	-6.68079	0	
1.4647	41.2984	-10.961	0	
1.4653	46.4775	-11.2587	0	
1.4660	46.4775	-10.0305	0	
1.4667	43.4294	-8.50451	0	
1.4673	36.7126	-4.85706	0	
1.4680	27.5682	-2.71698	0	
1.4687	21.1482	-2.71698	0	
1.4693	16.5625	-0.874644	0	
1.4700	8.95562	-1.80512	0	
1.4707	0.701344	-4.24295	0	
1.4713	-3.88436	-2.10287	0	
1.4720	-5.71865	-0.576893	0	
1.4727	-7.52596	-0.576893	0	
1.4733	-13.9459	3.38692	0	
1.4740	-28.5932	3.70328	0	
1.4747	-42.3234	0.0372189	0	
1.4753	-45.6952	2.47506	0	
1.4760	-45.0748	4.29878	0	
1.4767	-43.861	1.24683	0	
1.4773	-35.31	2.77281	0	
1.4780	-26.4622	2.77281	0	
1.4787	-22.7937	-4.24295	0	
1.4793	-15.7802	-5.45257	0	
1.4800	-5.71865	-1.80512	0	
1.4807	-0.836217	-1.80512	0	
1.4813	1.91521	-3.01473	0	
1.4820	4.96336	-1.80512	0	
1.4827	7.41806	-0.874644	0	
1.4833	15.0519	-0.576893	0	
1.4840	29.4025	-1.191	0	
1.4847	41.2984	-1.80512	0	
1.4853	46.7742	0.949082	0	
1.4860	47.0979	2.77281	0	
1.4867	43.4294	1.24683	0	
1.4873	37.6298	-0.576893	0	
1.4880	29.4025	-4.5407	0	
1.4887	20.5278	-9.43499	0	
1.4893	14.7282	-8.50451	0	
1.4900	11.6801	-3.33109	0	
1.4907	7.41806	0.65133	0	
1.4913	1.32176	0.65133	0	
1.4920	-4.18109	0.949082	0	
1.4927	-7.22923	3.38692	0	
1.4933	-13.6492	5.22925	0	
1.4940	-27.9728	4.29878	0	
1.4947	-39.2752	5.527	0	
1.4953	-42.9438	7.35073	0	
1.4960	-44.7781	5.82476	0	
1.4967	-44.1577	3.70328	0	
1.4973	-35.6067	3.38692	0	
1.4980	-25.5451	3.38692	0	
1.4987	-19.1251	3.38692	0	
1.4993	-12.4084	2.1773	0	
1.5000	-4.18109	0.949082	0	
1.5007	0.0809243	1.56319	0	
1.5013	0.701344	1.24683	0	
1.5020	2.83235	-0.874644	0	
1.5027	8.3352	-0.279142	0	
1.5033	15.3486	0.949082	0	
1.5040	26.3274	-2.40062	0	
1.5047	38.5469	-5.45257	0	
1.5053	43.4294	-5.15482	0	
1.5060	42.2155	-3.33109	0	
1.5067	39.4641	-1.80512	0	
1.5073	36.4159	-2.10287	0	
1.5080	29.6992	-2.71698	0	
1.5087	20.8515	0.0372189	0	
1.5093	13.2176	3.70328	0	
1.5100	9.25234	0.949082	0	
1.5107	5.28705	-1.80512	0	
1.5113	-1.13294	1.86094	0	
1.5120	-5.39495	5.22925	0	
1.5127	-7.84965	4.00103	0	
1.5133	-15.4835	4.00103	0	
1.5140	-29.2137	6.14112	0	
1.5147	-41.1095	7.66709	0	
1.5153	-45.6952	7.35073	0	
1.5160	-45.6952	4.91289	0	
1.5167	-43.5373	4.61514	0	
1.5173	-36.5238	5.22925	0	
1.5180	-27.6761	2.77281	0	
1.5187	-22.7937	-1.191	0	
1.5193	-18.5317	-2.10287	0	
1.5200	-13.3255	-1.80512	0	
1.5207	-7.52596	0.0372189	0	
1.5213	-2.64353	4.61514	0	
1.5220	-0.836217	9.19306	0	
1.5227	0.0809243	11.3332	0	
1.5233	9.54906	8.8767	0	
1.5240	25.7339	-1.80512	0	
1.5247	37.9265	-14.6084	0	
1.5253	43.4294	-17.3626	0	
1.5260	47.0979	-12.1706	0	
1.5267	46.1808	-9.11863	0	
1.5273	39.4641	-9.11863	0	
1.5280	31.2098	-6.68079	0	
1.5287	24.8168	-3.33109	0	
1.5293	19.0172	-1.80512	0	
1.5300	13.5144	-2.71698	0	
1.5307	6.50092	-2.10287	0	
1.5313	0.0809243	-0.279142	0	
1.5320	-2.64353	0.0372189	0	
1.5327	-3.56067	0.33497	0	
1.5333	-10.8978	2.47506	0	
1.5340	-25.5451	4.61514	0	
1.5347	-39.2752	5.527	0	
1.5353	-45.6952	4.91289	0	
1.5360	-45.992	4.00103	0	
1.5367	-42.9438	2.77281	0	
1.5373	-35.6067	1.86094	0	
1.5380	-27.3794	0.949082	0	
1.5387	-20.3659	0.0372189	0	
1.5393	-14.5664	-0.874644	0	
1.5400	-11.8149	-0.874644	0	
1.5407	-9.36024	-1.191	0	
1.5413	-2.05008	-3.62884	0	
1.5420	4.66663	-3.62884	0	
1.5427	6.79764	-0.874644	0	
1.5433	14.1348	-3.33109	0	
1.5440	30.6163	-8.82088	0	
1.5447	43.1326	-9.11863	0	
1.5453	45.8571	-5.45257	0	
1.5460	44.0498	-5.45257	0	
1.5467	40.0575	-7.2949	0	
1.5473	33.9612	-6.97854	0	
1.5480	27.5682	-6.68079	0	
1.5487	20.5278	-5.45257	0	
1.5493	12.5972	-3.01473	0	
1.5500	5.58377	-3.01473	0	
1.5507	0.701344	-2.10287	0	
1.5513	-4.47781	0.949082	0	
1.5520	-9.06352	0.0372189	0	
1.5527	-12.7321	-1.80512	0	
1.5533	-17.9112	2.77281	0	
1.5540	-27.6761	6.14112	0	
1.5547	-41.1095	4.00103	0	
1.5553	-49.9572	3.38692	0	
1.5560	-48.123	4.00103	0	
1.5567	-41.4063	3.70328	0	
1.5573	-36.2271	4.29878	0	
1.5580	-30.1308	3.08917	0	
1.5587	-20.9594	0.33497	0	
1.5593	-13.6492	0.0372189	0	
1.5600	-9.98066	0.0372189	0	
1.5607	-5.39495	-3.01473	0	
1.5613	1.91521	-3.62884	0	
1.5620	5.28705	-2.40062	0	
1.5627	5.58377	-4.24295	0	
1.5633	12.9209	-6.68079	0	
1.5640	28.1616	-7.2949	0	
1.5647	39.4641	-10.0305	0	
1.5653	44.9669	-13.6965	0	
1.5660	46.7742	-10.6446	0	
1.5667	43.1326	-6.38304	0	
1.5673	35.1751	-7.59265	0	
1.5680	30.2927	-8.82088	0	
1.5687	24.5201	-5.45257	0	
1.5693	16.2658	-3.01473	0	
1.5700	12.0038	-2.40062	0	
1.5707	10.4662	-2.10287	0	
1.5713	5.28705	-2.10287	0	
1.5720	0.0809243	-1.191	0	
1.5727	-4.47781	0.949082	0	
1.5733	-13.6492	-0.279142	0	
1.5740	-25.8418	-0.279142	0	
1.5747	-36.5238	4.61514	0	
1.5753	-42.0267	5.527	0	
1.5760	-41.4063	1.86094	0	
1.5767	-36.2271	0.33497	0	
1.5773	-30.1308	0.949082	0	
1.5780	-23.4141	-0.874644	0	
1.5787	-16.3737	-2.40062	0	
1.5793	-11.1945	-1.80512	0	
1.5800	-7.52596	-1.191	0	
1.5807	-4.18109	-2.40062	0	
1.5813	1.32176	-2.40062	0	
1.5820	6.79764	-0.576893	0	
1.5827	10.1695	1.56319	0	
1.5833	15.0519	0.949082	0	
1.5840	27.5682	-2.10287	0	
1.5847	41.2984	-5.15482	0	
1.5853	47.3946	-5.76893	0	
1.5860	45.5604	-5.45257	0	
1.5867	41.2984	-6.38304	0	
1.5873	36.0922	-6.97854	0	
1.5880	29.6992	-4.5407	0	
1.5887	21.1482	-2.71698	0	
1.5893	13.838	-1.48876	0	
1.5900	10.1695	0.65133	0	
1.5907	7.41806	2.1773	0	
1.5913	1.91521	2.77281	0	
1.5920	-2.64353	3.38692	0	
1.5927	-2.64353	4.61514	0	
1.5933	-7.84965	6.43887	0	
1.5940	-24.628	8.57895	0	
1.5947	-41.1095	10.719	0	
1.5953	-46.9091	11.0168	0	
1.5960	-45.6952	9.19306	0	
1.5967	-41.1095	7.35073	0	
1.5973	-32.8553	6.43887	0	
1.5980	-25.2484	5.82476	0	
1.5987	-17.2908	5.527	0	
1.5993	-8.4431	4.29878	0	
1.6000	-1.72638	1.86094	0	
1.6007	2.83235	2.1773	0	
1.6013	6.79764	4.00103	0	
1.6020	7.12134	2.1773	0	
1.6027	8.3352	0.949082	0	
1.6033	18.7205	1.86094	0	
1.6040	34.8784	1.56319	0	
1.6047	44.9669	0.65133	0	
1.6053	48.0151	-0.874644	0	
1.6060	46.1808	-2.71698	0	
1.6067	40.6779	0.65133	0	
1.6073	33.6645	5.527	0	
1.6080	27.5682	5.527	0	
1.6087	20.5278	4.00103	0	
1.6093	13.838	2.77281	0	
1.6100	11.0866	-0.874644	0	
1.6107	7.41806	-3.62884	0	
1.6113	0.0809243	-4.5407	0	
1.6120	-3.26395	-3.01473	0	
1.6127	-2.3468	1.56319	0	
1.6133	-10.8978	4.61514	0	
1.6140	-27.6761	4.61514	0	
1.6147	-39.2752	7.05298	0	
1.6153	-44.1577	8.8767	0	
1.6160	-45.6952	5.527	0	
1.6167	-41.1095	2.77281	0	
1.6173	-33.179	3.08917	0	
1.6180	-25.5451	2.77281	0	
1.6187	-17.9112	2.47506	0	
1.6193	-12.1117	1.56319	0	
1.6200	-9.06352	-0.874644	0	
1.6207	-4.80151	-1.48876	0	
1.6213	0.0809243	0.0372189	0	
1.6220	2.83235	-0.874644	0	
1.6227	4.66663	-3.01473	0	
1.6233	12.0038	-3.62884	0	
1.6240	27.5682	-4.5407	0	
1.6247	41.2984	-5.76893	0	
1.6253	44.6432	-6.06668	0	
1.6260	43.7261	-6.38304	0	
1.6267	41.8918	-6.38304	0	
1.6273	34.5816	-3.62884	0	
1.6280	24.8168	-2.10287	0	
1.6287	18.1001	-2.71698	0	
1.6293	12.3005	-1.80512	0	
1.6300	6.50092	-1.80512	0	
1.6307	1.91521	-2.71698	0	
1.6313	-2.64353	-0.874644	0	
1.6320	-5.39495	-0.874644	0	
1.6327	-7.52596	-4.24295	0	
1.6333	-15.4835	-3.62884	0	
1.6340	-30.1308	0.949082	0	
1.6347	-43.861	2.77281	0	
1.6353	-49.3368	1.86094	0	
1.6360	-45.3715	1.24683	0	
1.6367	-40.4891	0.0372189	0	
1.6373	-36.2271	1.24683	0	
1.6380	-27.6761	3.70328	0	
1.6387	-18.8284	4.00103	0	
1.6393	-16.3737	2.47506	0	
1.6400	-13.6492	-1.80512	0	
1.6407	-6.60882	-5.15482	0	
1.6413	-0.51252	-4.85706	0	
1.6420	2.83235	-4.24295	0	
1.6427	6.50092	-3.33109	0	
1.6433	14.1348	1.56319	0	
1.6440	26.0306	5.527	0	
1.6447	37.6298	6.43887	0	
1.6453	42.8089	10.1049	0	
1.6460	42.8089	14.0687	0	
1.6467	40.3812	15.297	0	
1.6473	33.9612	15.9111	0	
1.6480	25.7339	17.437	0	
1.6487	19.3139	19.5585	0	
1.6493	12.5972	21.0845	0	
1.6500	6.50092	19.5585	0	
1.6507	3.45277	18.3489	0	
1.6513	0.998066	19.2608	0	
1.6520	-3.26395	17.437	0	
1.6527	-7.22923	14.3851	0	
1.6533	-16.077	14.9806	0	
1.6540	-31.0479	16.2088	0	
1.6547	-41.1095	16.2088	0	
1.6553	-44.7781	16.8229	0	
1.6560	-46.2887	15.297	0	
1.6567	-42.0267	11.3332	0	
1.6573	-31.6414	10.1049	0	
1.6580	-24.9247	11.0168	0	
1.6587	-20.9594	9.49082	0	
1.6593	-13.6492	6.14112	0	
1.6600	-7.22923	3.38692	0	
1.6607	-3.56067	1.56319	0	
1.6613	0.404621	-0.576893	0	
1.6620	3.74949	-2.71698	0	
1.6627	6.79764	-2.40062	0	
1.6633	15.0519	-3.01473	0	
1.6640	28.7821	-8.20676	0	
1.6647	40.3812	-12.1706	0	
1.6653	43.7261	-10.961	0	
1.6660	41.8918	-11.2587	0	
1.6667	38.5469	-13.0824	0	
1.6673	32.7474	-11.8728	0	
1.6680	26.3274	-10.0305	0	
1.6687	21.7686	-9.73274	0	
1.6693	15.6454	-9.11863	0	
1.6700	7.41806	-10.0305	0	
1.6707	2.53563	-11.5565	0	
1.6713	-1.13294	-9.11863	0	
1.6720	-5.09823	-5.45257	0	
1.6727	-6.60882	-6.38304	0	
1.6733	-13.6492	-7.2949	0	
1.6740	-31.3447	-6.38304	0	
1.6747	-46.2887	-4.24295	0	
1.6753	-48.7434	-4.5407	0	
1.6760	-45.6952	-7.59265	0	
1.6767	-40.8128	-10.0305	0	
1.6773	-33.7724	-10.0305	0	
1.6780	-29.2137	-10.0305	0	
1.6787	-22.7937	-9.43499	0	
1.6793	-13.0288	-10.0305	0	
1.6800	-5.71865	-14.6084	0	
1.6807	-0.836217	-17.3626	0	
1.6813	4.36991	-15.2225	0	
1.6820	5.28705	-14.9248	0	
1.6827	4.96336	-18.5722	0	
1.6833	15.0519	-21.0287	0	
1.6840	30.6163	-21.0287	0	
1.6847	39.4641	-21.0287	0	
1.6853	43.4294	-20.0982	0	
1.6860	45.5604	-18.8886	0	
1.6867	40.9747	-14.6084	0	
1.6873	32.4506	-10.3468	0	
1.6880	27.2445	-10.961	0	
1.6887	21.4449	-17.0462	0	
1.6893	13.5144	-22.8524	0	
1.6900	8.3352	-23.7643	0	
1.6907	4.66663	-20.0982	0	
1.6913	-1.13294	-15.5389	0	
1.6920	-4.47781	-13.6965	0	
1.6927	-6.31209	-14.6084	0	
1.6933	-14.5664	-13.3988	0	
1.6940	-28.2965	-10.0305	0	
1.6947	-39.2752	-9.11863	0	
1.6953	-45.992	-10.0305	0	
1.6960	-48.123	-10.3468	0	
1.6967	-41.703	-10.961	0	
1.6973	-32.8553	-11.8728	0	
1.6980	-28.5932	-12.1706	0	
1.6987	-22.4969	-17.6604	0	
1.6993	-12.7321	-27.4303	0	
1.7000	-6.31209	-31.3941	0	
1.7007	-1.72638	-29.254	0	
1.7013	4.07319	-28.0444	0	
1.7020	8.3352	-27.7281	0	
1.7027	10.1695	-28.3422	0	
1.7033	16.5625	-31.0964	0	
1.7040	29.4025	-32.6224	0	
1.7047	42.2155	-32.0082	0	
1.7053	47.0979	-30.4823	0	
1.7060	45.8571	-28.3422	0	
1.7067	44.0498	-24.9925	0	
1.7073	40.0575	-21.9405	0	
1.7080	32.4506	-19.1863	0	
1.7087	24.8168	-17.3626	0	
1.7093	19.3139	-16.1344	0	
1.7100	14.7282	-14.6084	0	
1.7107	8.63192	-11.8728	0	
1.7113	2.83235	-10.961	0	
1.7120	0.998066	-10.0305	0	
1.7127	0.0809243	-8.20676	0	
1.7133	-9.98066	-7.90901	0	
1.7140	-26.4622	-8.20676	0	
1.7147	-38.0614	-5.76893	0	
1.7153	-45.3715	-2.71698	0	
1.7160	-48.4197	-1.80512	0	
1.7167	-43.861	-2.71698	0	
1.7173	-36.5238	-1.80512	0	
1.7180	-31.3447	-0.279142	0	
1.7187	-24.3312	0.949082	0	
1.7193	-16.3737	0.949082	0	
1.7200	-11.8149	0.65133	0	
1.7207	-6.60882	3.08917	0	
1.7213	0.0809243	7.35073	0	
1.7220	2.83235	9.49082	0	
1.7227	3.74949	9.80718	0	
1.7233	12.0038	9.19306	0	
1.7240	26.3274	7.66709	0	
1.7247	37.9265	7.35073	0	
1.7253	41.8918	10.1049	0	
1.7260	41.2984	12.8591	0	
1.7267	41.2984	15.9111	0	
1.7273	37.3331	18.0325	0	
1.7280	26.9478	18.3489	0	
1.7287	18.7205	19.2608	0	
1.7293	15.9691	22.6105	0	
1.7300	12.0038	25.0669	0	
1.7307	5.28705	27.5048	0	
1.7313	0.404621	28.4166	0	
1.7320	-1.42966	25.6624	0	
1.7327	-2.64353	25.0669	0	
1.7333	-12.1117	29.0307	0	
1.7340	-31.0479	31.1708	0	
1.7347	-44.1577	32.3804	0	
1.7353	-45.3715	34.8183	0	
1.7360	-43.861	35.4324	0	
1.7367	-41.4063	32.3804	0	
1.7373	-35.31	30.2403	0	
1.7380	-29.5104	28.7144	0	
1.7387	-23.0904	26.8906	0	
1.7393	-14.5664	27.5048	0	
1.7400	-9.06352	27.1884	0	
1.7407	-6.93251	23.5409	0	
1.7413	-2.3468	22.3127	0	
1.7420	1.91521	23.8387	0	
1.7427	4.66663	22.015	0	
1.7433	12.9209	18.3489	0	
1.7440	26.0306	16.8229	0	
1.7447	37.3331	16.5066	0	
1.7453	42.2155	15.297	0	
1.7460	41.8918	14.6828	0	
1.7467	38.8436	16.5066	0	
1.7473	35.7955	18.6467	0	
1.7480	30.9131	17.437	0	
1.7487	22.9825	12.245	0	
1.7493	15.9691	10.1049	0	
1.7500	13.838	12.8591	0	
1.7507	11.6801	14.6828	0	
1.7513	3.74949	14.6828	0	
1.7520	-3.26395	15.5947	0	
1.7527	-5.39495	16.8229	0	
1.7533	-11.4912	14.9806	0	
1.7540	-27.0557	15.297	0	
1.7547	-41.4063	18.6467	0	
1.7553	-44.7781	18.6467	0	
1.7560	-43.2405	16.8229	0	
1.7567	-42.0267	18.0325	0	
1.7573	-37.7377	16.5066	0	
1.7580	-30.1308	12.5428	0	
1.7587	-24.3312	13.771	0	
1.7593	-20.3659	15.297	0	
1.7600	-13.0288	11.6309	0	
1.7607	-4.47781	9.49082	0	
1.7613	-0.836217	9.80718	0	
1.7620	0.701344	7.05298	0	
1.7627	4.36991	5.22925	0	
1.7633	13.2176	6.43887	0	
1.7640	26.3274	5.82476	0	
1.7647	38.5469	3.08917	0	
1.7653	44.6432	0.0372189	0	
1.7660	44.0498	-1.48876	0	
1.7667	41.2984	-0.279142	0	
1.7673	36.7126	-0.576893	0	
1.7680	28.4853	-2.71698	0	
1.7687	19.0172	-1.48876	0	
1.7693	12.0038	2.1773	0	
1.7700	6.50092	3.70328	0	
1.7707	1.91521	3.70328	0	
1.7713	-3.26395	2.47506	0	
1.7720	-9.06352	0.33497	0	
1.7727	-14.8631	0.949082	0	
1.7733	-22.7937	3.08917	0	
1.7740	-35.9304	4.61514	0	
1.7747	-47.5025	6.43887	0	
1.7753	-49.6605	6.75523	0	
1.7760	-46.9091	4.61514	0	
1.7767	-42.9438	2.77281	0	
1.7773	-36.5238	0.949082	0	
1.7780	-29.2137	-1.48876	0	
1.7787	-22.4969	-1.48876	0	
1.7793	-15.1598	-0.874644	0	
1.7800	-9.06352	-3.01473	0	
1.7807	-4.80151	-2.71698	0	
1.7813	0.0809243	-0.279142	0	
1.7820	4.07319	-1.80512	0	
1.7827	5.58377	-3.62884	0	
1.7833	10.7629	-4.85706	0	
1.7840	25.4102	-10.961	0	
1.7847	40.9747	-16.4507	0	
1.7853	46.7742	-15.5389	0	
1.7860	45.8571	-13.0824	0	
1.7867	43.1326	-11.8728	0	
1.7873	36.0922	-10.0305	0	
1.7880	26.6511	-9.73274	0	
1.7887	20.5278	-9.73274	0	
1.7893	14.7282	-7.90901	0	
1.7900	8.03848	-7.2949	0	
1.7907	2.83235	-7.90901	0	
1.7913	-3.88436	-6.06668	0	
1.7920	-9.98066	-6.06668	0	
1.7927	-10.6011	-7.59265	0	
1.7933	-16.3737	-4.85706	0	
1.7940	-32.8553	-1.80512	0	
1.7947	-45.6952	-3.33109	0	
1.7953	-48.4197	-3.62884	0	
1.7960	-48.4197	-0.576893	0	
1.7967	-44.7781	-1.191	0	
1.7973	-35.6067	-4.85706	0	
1.7980	-27.6761	-6.97854	0	
1.7987	-19.7455	-6.06668	0	
1.7993	-9.36024	-4.24295	0	
1.8000	-4.47781	-5.15482	0	
1.8007	-3.56067	-7.90901	0	
1.8013	2.2389	-7.2949	0	
1.8020	9.25234	-7.59265	0	
1.8027	12.0038	-11.8728	0	
1.8033	19.9343	-12.4869	0	
1.8040	35.4988	-9.11863	0	
1.8047	48.3118	-11.2587	0	
1.8053	51.3599	-14.3107	0	
1.8060	48.6085	-11.8728	0	
1.8067	44.9669	-9.11863	0	
1.8073	39.1673	-7.59265	0	
1.8080	29.4025	-7.90901	0	
1.8087	20.2311	-10.961	0	
1.8093	15.9691	-10.0305	0	
1.8100	12.0038	-4.24295	0	
1.8107	4.66663	-2.40062	0	
1.8113	-1.72638	-0.279142	0	
1.8120	-4.18109	6.43887	0	
1.8127	-5.71865	8.2812	0	
1.8133	-13.6492	4.61514	0	
1.8140	-28.2965	2.77281	0	
1.8147	-40.1924	-3.01473	0	
1.8153	-41.703	-8.50451	0	
1.8160	-39.8957	-5.45257	0	
1.8167	-38.9785	-1.48876	0	
1.8173	-33.7724	-2.10287	0	
1.8180	-25.5451	-2.10287	0	
1.8187	-19.1251	-2.40062	0	
1.8193	-12.7321	-4.24295	0	
1.8200	-4.80151	-5.15482	0	
1.8207	-1.13294	-7.2949	0	
1.8213	0.0809243	-8.82088	0	
1.8220	4.07319	-8.50451	0	
1.8227	8.3352	-10.3468	0	
1.8233	14.1348	-11.2587	0	
1.8240	27.8649	-8.82088	0	
1.8247	42.8089	-8.20676	0	
1.8253	47.0979	-10.3468	0	
1.8260	44.9669	-10.0305	0	
1.8267	42.5122	-9.11863	0	
1.8273	35.7955	-8.82088	0	
1.8280	26.0306	-6.68079	0	
1.8287	16.8862	-5.45257	0	
1.8293	9.54906	-4.85706	0	
1.8300	5.58377	-2.71698	0	
1.8307	1.61849	-1.80512	0	
1.8313	-6.31209	-2.40062	0	
1.8320	-9.98066	-2.40062	0	
1.8327	-7.22923	-2.71698	0	
1.8333	-14.5664	-3.01473	0	
1.8340	-32.5585	-0.874644	0	
1.8347	-44.1577	2.1773	0	
1.8353	-48.123	2.47506	0	
1.8360	-50.254	-0.576893	0	
1.8367	-46.9091	-2.71698	0	
1.8373	-38.6548	-2.40062	0	
1.8380	-34.3928	-1.80512	0	
1.8387	-30.4275	-3.01473	0	
1.8393	-20.9594	-4.85706	0	
1.8400	-11.1945	-6.06668	0	
1.8407	-6.31209	-5.45257	0	
1.8413	-2.3468	-5.45257	0	
1.8420	1.32176	-8.50451	0	
1.8427	3.45277	-10.3468	0	
1.8433	12.0038	-8.82088	0	
1.8440	27.8649	-10.961	0	
1.8447	40.3812	-15.5389	0	
1.8453	45.8571	-14.3107	0	
1.8460	47.3946	-12.7847	0	
1.8467	42.8089	-15.5389	0	
1.8473	33.6645	-14.3107	0	
1.8480	26.3274	-9.43499	0	
1.8487	20.2311	-8.82088	0	
1.8493	12.5972	-8.82088	0	
1.8500	6.20419	-6.97854	0	
1.8507	1.91521	-6.38304	0	
1.8513	-2.05008	-5.15482	0	
1.8520	-4.47781	-1.80512	0	
1.8527	-7.22923	-1.191	0	
1.8533	-16.077	-0.279142	0	
1.8540	-31.0479	3.70328	0	
1.8547	-42.0267	4.61514	0	
1.8553	-44.7781	3.70328	0	
1.8560	-44.7781	5.22925	0	
1.8567	-43.2405	6.43887	0	
1.8573	-36.8205	4.61514	0	
1.8580	-27.3794	3.08917	0	
1.8587	-19.1251	1.86094	0	
1.8593	-13.6492	1.86094	0	
1.8600	-10.2774	2.77281	0	
1.8607	-5.71865	1.86094	0	
1.8613	0.701344	-0.576893	0	
1.8620	3.74949	0.949082	0	
1.8627	6.50092	2.47506	0	
1.8633	15.9691	-0.874644	0	
1.8640	30.6163	-4.24295	0	
1.8647	43.7261	-3.62884	0	
1.8653	49.2289	-2.71698	0	
1.8660	45.8571	-2.10287	0	
1.8667	40.0575	-0.576893	0	
1.8673	33.9612	0.0372189	0	
1.8680	25.7339	0.33497	0	
1.8687	19.6106	0.949082	0	
1.8693	17.1829	1.86094	0	
1.8700	13.2176	5.22925	0	
1.8707	6.50092	8.2812	0	
1.8713	0.998066	7.96484	0	
1.8720	-2.3468	8.57895	0	
1.8727	-3.88436	11.9287	0	
1.8733	-10.8978	12.245	0	
1.8740	-26.4622	9.49082	0	
1.8747	-38.9785	9.49082	0	
1.8753	-39.8957	11.0168	0	
1.8760	-38.3581	10.719	0	
1.8767	-37.441	9.80718	0	
1.8773	-32.5585	10.1049	0	
1.8780	-25.8418	7.66709	0	
1.8787	-19.1251	4.00103	0	
1.8793	-9.98066	3.70328	0	
1.8800	-1.72638	4.00103	0	
1.8807	2.2389	0.0372189	0	
1.8813	5.58377	-1.48876	0	
1.8820	10.1695	0.65133	0	
1.8827	11.6801	0.949082	0	
1.8833	16.5625	0.0372189	0	
1.8840	30.2927	-1.191	0	
1.8847	43.1326	-4.24295	0	
1.8853	45.8571	-4.5407	0	
1.8860	43.1326	-2.10287	0	
1.8867	38.8436	-3.01473	0	
1.8873	32.7474	-2.71698	0	
1.8880	26.9478	1.86094	0	
1.8887	22.0654	2.47506	0	
1.8893	15.6454	-0.874644	0	
1.8900	10.1695	-0.576893	0	
1.8907	4.96336	1.56319	0	
1.8913	-0.836217	2.1773	0	
1.8920	-3.26395	2.77281	0	
1.8927	-5.09823	4.61514	0	
1.8933	-15.1598	7.66709	0	
1.8940	-29.8071	9.19306	0	
1.8947	-39.2752	9.49082	0	
1.8953	-44.4544	11.9287	0	
1.8960	-46.6124	13.1569	0	
1.8967	-42.6201	11.9287	0	
1.8973	-35.6067	10.1049	0	
1.8980	-29.2137	5.527	0	
1.8987	-21.8765	-2.10287	0	
1.8993	-15.7802	-5.15482	0	
1.9000	-13.3255	-3.62884	0	
1.9007	-10.2774	-3.33109	0	
1.9013	-5.09823	-2.71698	0	
1.9020	-2.3468	-1.80512	0	
1.9027	-0.836217	-1.191	0	
1.9033	7.41806	-2.10287	0	
1.9040	22.6858	-3.62884	0	
1.9047	34.8784	-4.5407	0	
1.9053	40.3812	-2.71698	0	
1.9060	39.1673	-2.10287	0	
1.9067	34.2849	-2.40062	0	
1.9073	27.5682	-0.576893	0	
1.9080	20.8515	0.33497	0	
1.9087	12.9209	0.0372189	0	
1.9093	5.8805	2.47506	0	
1.9100	1.61849	4.91289	0	
1.9107	-2.96722	3.70328	0	
1.9113	-8.14638	1.86094	0	
1.9120	-9.98066	1.24683	0	
1.9127	-9.68394	2.1773	0	
1.9133	-16.6974	5.82476	0	
1.9140	-29.2137	8.2812	0	
1.9147	-38.6548	9.19306	0	
1.9153	-44.4544	10.719	0	
1.9160	-45.6952	10.1049	0	
1.9167	-40.1924	5.527	0	
1.9173	-33.7724	3.08917	0	
1.9180	-29.5104	4.00103	0	
1.9187	-21.5798	2.77281	0	
1.9193	-12.4084	0.0372189	0	
1.9200	-8.7668	0.0372189	0	
1.9207	-3.88436	-0.279142	0	
1.9213	3.15605	-1.80512	0	
1.9220	4.96336	-1.80512	0	
1.9227	6.50092	-1.80512	0	
1.9233	18.1001	-3.62884	0	
1.9240	34.2849	-3.62884	0	
1.9247	44.0498	-0.874644	0	
1.9253	48.6085	-0.874644	0	
1.9260	50.4428	-3.62884	0	
1.9267	46.1808	-4.24295	0	
1.9273	37.0094	-2.71698	0	
1.9280	31.2098	-0.279142	0	
1.9287	28.1616	1.86094	0	
1.9293	19.3139	2.77281	0	
1.9300	9.54906	2.77281	0	
1.9307	5.8805	3.08917	0	
1.9313	1.91521	5.22925	0	
1.9320	-3.88436	8.2812	0	
1.9327	-6.31209	8.57895	0	
1.9333	-12.4084	7.96484	0	
1.9340	-28.2965	11.6309	0	
1.9347	-40.8128	15.5947	0	
1.9353	-43.861	14.0687	0	
1.9360	-44.1577	10.719	0	
1.9367	-41.703	10.719	0	
1.9373	-36.2271	11.9287	0	
1.9380	-30.1308	10.719	0	
1.9387	-20.9594	8.8767	0	
1.9393	-11.4912	9.80718	0	
1.9400	-6.93251	10.1049	0	
1.9407	-3.56067	7.05298	0	
1.9413	2.83235	4.29878	0	
1.9420	8.03848	3.08917	0	
1.9427	10.1695	1.86094	0	
1.9433	16.2658	1.24683	0	
1.9440	30.2927	0.949082	0	
1.9447	43.1326	0.0372189	0	
1.9453	44.9669	0.0372189	0	
1.9460	39.1673	-0.874644	0	
1.9467	35.1751	-4.24295	0	
1.9473	31.2098	-5.15482	0	
1.9480	25.1135	-3.62884	0	
1.9487	20.2311	-4.85706	0	
1.9493	14.4315	-5.76893	0	
1.9500	7.12134	-4.5407	0	
1.9507	2.83235	-4.24295	0	
1.9513	0.701344	-4.85706	0	
1.9520	-3.26395	-3.33109	0	
1.9527	-6.93251	0.0372189	0	
1.9533	-13.3255	1.24683	0	
1.9540	-27.6761	0.33497	0	
1.9547	-42.0267	1.24683	0	
1.9553	-46.2887	4.61514	0	
1.9560	-44.4544	6.14112	0	
1.9567	-39.8957	4.61514	0	
1.9573	-30.7242	2.77281	0	
1.9580	-23.4141	0.949082	0	
1.9587	-20.3659	-0.279142	0	
1.9593	-14.5664	0.0372189	0	
1.9600	-7.22923	0.0372189	0	
1.9607	-3.56067	-2.71698	0	
1.9613	0.998066	-6.97854	0	
1.9620	6.20419	-8.20676	0	
1.9627	8.3352	-5.76893	0	
1.9633	14.4315	-7.2949	0	
1.9640	31.2098	-12.7847	0	
1.9647	45.2636	-13.6965	0	
1.9653	46.4775	-10.961	0	
1.9660	41.2984	-12.1706	0	
1.9667	37.9265	-12.7847	0	
1.9673	33.6645	-9.73274	0	
1.9680	25.7339	-9.73274	0	
1.9687	18.1001	-11.8728	0	
1.9693	13.2176	-10.0305	0	
1.9700	7.41806	-8.82088	0	
1.9707	0.0809243	-9.43499	0	
1.9713	-4.80151	-8.20676	0	
1.9720	-7.22923	-7.2949	0	
1.9727	-7.84965	-8.50451	0	
1.9733	-13.6492	-7.2949	0	
1.9740	-28.2965	-3.62884	0	
1.9747	-41.703	-2.71698	0	
1.9753	-46.6124	-2.71698	0	
1.9760	-46.2887	-3.01473	0	
1.9767	-42.3234	-3.01473	0	
1.9773	-33.179	-2.40062	0	
1.9780	-24.9247	-3.62884	0	
1.9787	-19.7455	-5.76893	0	
1.9793	-13.0288	-4.5407	0	
1.9800	-6.31209	-0.874644	0	
1.9807	-3.56067	-0.874644	0	
1.9813	-0.836217	-4.24295	0	
1.9820	2.83235	-4.5407	0	
1.9827	5.58377	-2.40062	0	
1.9833	12.9209	-3.62884	0	
1.9840	27.5682	-8.20676	0	
1.9847	39.4641	-9.43499	0	
1.9853	42.5122	-6.06668	0	
1.9860	41.8918	-4.5407	0	
1.9867	40.0575	-6.06668	0	
1.9873	34.8784	-3.92659	0	
1.9880	27.8649	-1.48876	0	
1.9887	21.1482	-2.71698	0	
1.9893	13.5144	-2.71698	0	
1.9900	7.71478	2.47506	0	
1.9907	4.07319	4.91289	0	
1.9913	-1.13294	3.70328	0	
1.9920	-7.52596	3.70328	0	
1.9927	-9.36024	3.70328	0	
1.9933	-13.9459	2.77281	0	
1.9940	-29.2137	3.08917	0	
1.9947	-42.0267	4.29878	0	
1.9953	-42.9438	3.70328	0	
1.9960	-41.1095	4.00103	0	
1.9967	-40.1924	4.61514	0	
1.9973	-32.5585	2.77281	0	
1.9980	-23.0904	0.65133	0	
1.9987	-17.6145	0.65133	0	
1.9993	-12.1117	1.86094	0	
2.0000	-7.22923	0.33497	0	
2.0007	-4.47781	-4.24295	0	
2.0013	0.404621	-6.38304	0	
2.0020	3.74949	-3.92659	0	
2.0027	4.66663	-4.5407	0	
2.0033	13.5144	-8.50451	0	
2.0040	30.6163	-8.20676	0	
2.0047	42.2155	-5.15482	0	
2.0053	44.9669	-4.5407	0	
2.0060	44.0498	-2.40062	0	
2.0067	38.5469	1.24683	0	
2.0073	30.9131	0.949082	0	
2.0080	23.8996	-0.279142	0	
2.0087	17.4796	0.949082	0	
2.0093	12.9209	0.0372189	0	
2.0100	7.71478	-3.62884	0	
2.0107	1.32176	-5.45257	0	
2.0113	-3.88436	-3.62884	0	
2.0120	-5.09823	-0.279142	0	
2.0127	-7.84965	0.949082	0	
2.0133	-17.2908	1.86094	0	
2.0140	-31.9381	3.70328	0	
2.0147	-44.7781	4.61514	0	
2.0153	-48.7434	5.527	0	
2.0160	-45.0748	5.527	0	
2.0167	-40.1924	3.70328	0	
2.0173	-35.9304	1.24683	0	
2.0180	-30.1308	0.65133	0	
2.0187	-23.0904	-0.874644	0	
2.0193	-16.6974	-2.71698	0	
2.0200	-11.8149	-3.62884	0	
2.0207	-7.52596	-4.24295	0	
2.0213	-4.47781	-5.45257	0	
2.0220	-1.72638	-7.2949	0	
2.0227	0.998066	-9.11863	0	
2.0233	8.3352	-9.11863	0	
2.0240	22.6858	-9.73274	0	
2.0247	37.3331	-11.5565	0	
2.0253	43.1326	-10.961	0	
2.0260	40.9747	-10.0305	0	
2.0267	36.7126	-9.73274	0	
2.0273	29.0788	-6.68079	0	
2.0280	18.7205	-3.92659	0	
2.0287	13.5144	-6.38304	0	
2.0293	10.4662	-6.97854	0	
2.0300	4.66663	-2.40062	0	
2.0307	0.0809243	-0.874644	0	
2.0313	-2.3468	-1.48876	0	
2.0320	-6.01537	0.65133	0	
2.0327	-8.4431	1.56319	0	
2.0333	-13.6492	2.47506	0	
2.0340	-27.6761	5.527	0	
2.0347	-40.1924	4.91289	0	
2.0353	-42.3234	2.1773	0	
2.0360	-42.9438	3.70328	0	
2.0367	-42.9438	4.00103	0	
2.0373	-35.31	0.949082	0	
2.0380	-25.5451	0.949082	0	
2.0387	-20.0422	-0.576893	0	
2.0393	-14.2427	-3.62884	0	
2.0400	-7.84965	-1.48876	0	
2.0407	-3.56067	0.0372189	0	
2.0413	0.998066	-4.24295	0	
2.0420	4.36991	-5.76893	0	
2.0427	6.79764	-4.5407	0	
2.0433	15.3486	-6.97854	0	
2.0440	29.4025	-8.50451	0	
2.0447	41.8918	-8.20676	0	
2.0453	49.2289	-9.11863	0	
2.0460	47.0979	-6.38304	0	
2.0467	37.6298	-2.71698	0	
2.0473	32.1269	-3.62884	0	
2.0480	30.6163	-4.5407	0	
2.0487	23.2792	-2.71698	0	
2.0493	13.2176	-1.80512	0	
2.0500	7.12134	0.0372189	0	
2.0507	1.91521	1.24683	0	
2.0513	-5.39495	0.949082	0	
2.0520	-9.98066	1.24683	0	
2.0527	-12.1117	1.56319	0	
2.0533	-18.8284	0.949082	0	
2.0540	-32.8553	4.91289	0	
2.0547	-46.2887	10.1049	0	
2.0553	-51.1711	10.1049	0	
2.0560	-50.254	7.66709	0	
2.0567	-45.3715	6.14112	0	
2.0573	-38.0614	5.527	0	
2.0580	-31.0479	5.527	0	
2.0587	-25.5451	3.70328	0	
2.0593	-20.3659	-0.279142	0	
2.0600	-15.4835	-0.874644	0	
2.0607	-9.06352	0.33497	0	
2.0613	-2.96722	-1.48876	0	
2.0620	-1.42966	-3.33109	0	
2.0627	0.404621	-1.80512	0	
2.0633	11.0866	-1.80512	0	
2.0640	27.8649	-5.45257	0	
2.0647	40.3812	-6.68079	0	
2.0653	44.3465	-3.62884	0	
2.0660	44.0498	-3.62884	0	
2.0667	41.2984	-6.97854	0	
2.0673	33.9612	-6.97854	0	
2.0680	24.8168	-4.24295	0	
2.0687	19.3139	-3.62884	0	
2.0693	14.7282	-3.33109	0	
2.0700	7.71478	-1.80512	0	
2.0707	3.15605	-1.191	0	
2.0713	1.61849	-0.279142	0	
2.0720	-2.3468	1.24683	0	
2.0727	-9.36024	1.86094	0	
2.0733	-19.7455	2.47506	0	
2.0740	-33.7724	5.82476	0	
2.0747	-44.1577	9.80718	0	
2.0753	-46.6124	11.0168	0	
2.0760	-45.6952	10.1049	0	
2.0767	-42.6201	8.57895	0	
2.0773	-34.6895	6.75523	0	
2.0780	-26.4622	6.14112	0	
2.0787	-21.2561	6.14112	0	
2.0793	-17.2908	4.29878	0	
2.0800	-13.3255	3.70328	0	
2.0807	-8.14638	7.35073	0	
2.0813	-2.64353	6.14112	0	
2.0820	-0.215798	0.0372189	0	
2.0827	1.91521	-0.874644	0	
2.0833	12.9209	1.86094	0	
2.0840	30.2927	0.0372189	0	
2.0847	40.3812	-3.33109	0	
2.0853	43.1326	-2.71698	0	
2.0860	44.0498	-1.80512	0	
2.0867	42.2155	-2.10287	0	
2.0873	35.7955	-0.874644	0	
2.0880	28.4853	0.0372189	0	
2.0887	22.3621	-1.191	0	
2.0893	16.2658	-1.80512	0	
2.0900	11.3833	-0.279142	0	
2.0907	7.41806	0.0372189	0	
2.0913	3.15605	-0.874644	0	
2.0920	0.404621	0.65133	0	
2.0927	-2.96722	3.70328	0	
2.0933	-13.0288	4.61514	0	
2.0940	-28.89	4.00103	0	
2.0947	-41.1095	5.22925	0	
2.0953	-45.0748	5.82476	0	
2.0960	-40.8128	5.22925	0	
2.0967	-32.5585	5.22925	0	
2.0973	-25.5451	5.527	0	
2.0980	-20.0422	4.00103	0	
2.0987	-13.0288	0.949082	0	
2.0993	-6.93251	0.0372189	0	
2.1000	-4.47781	0.949082	0	
2.1007	-2.05008	0.65133	0	
2.1013	5.58377	-0.874644	0	
2.1020	12.0038	-1.48876	0	
2.1027	12.9209	-2.40062	0	
2.1033	15.9691	-3.92659	0	
2.1040	27.8649	-5.76893	0	
2.1047	40.3812	-7.2949	0	
2.1053	44.0498	-8.20676	0	
2.1060	41.8918	-8.20676	0	
2.1067	38.8436	-6.38304	0	
2.1073	34.2849	-4.5407	0	
2.1080	27.5682	-6.06668	0	
2.1087	20.2311	-6.38304	0	
2.1093	15.6454	-1.80512	0	
2.1100	12.3005	-0.279142	0	
2.1107	7.12134	-2.40062	0	
2.1113	0.0809243	0.0372189	0	
2.1120	-5.09823	2.47506	0	
2.1127	-8.7668	-2.10287	0	
2.1133	-17.2908	-2.10287	0	
2.1140	-31.0479	3.08917	0	
2.1147	-42.0267	2.47506	0	
2.1153	-45.992	2.77281	0	
2.1160	-44.1577	7.96484	0	
2.1167	-41.4063	6.75523	0	
2.1173	-36.5238	2.1773	0	
2.1180	-27.9728	2.47506	0	
2.1187	-19.1251	1.86094	0	
2.1193	-12.1117	-1.191	0	
2.1200	-6.93251	-2.40062	0	
2.1207	-4.18109	-4.24295	0	
2.1213	-0.836217	-4.24295	0	
2.1220	4.66663	-0.874644	0	
2.1227	9.84579	0.33497	0	
2.1233	17.1829	-1.80512	0	
2.1240	32.1269	-1.80512	0	
2.1247	46.1808	-3.33109	0	
2.1253	50.1461	-6.38304	0	
2.1260	47.3946	-6.38304	0	
2.1267	42.2155	-6.38304	0	
2.1273	36.7126	-9.11863	0	
2.1280	30.2927	-9.73274	0	
2.1287	21.1482	-7.2949	0	
2.1293	10.7629	-5.45257	0	
2.1300	5.28705	-4.5407	0	
2.1307	2.2389	-5.15482	0	
2.1313	-2.3468	-4.85706	0	
2.1320	-3.56067	-2.71698	0	
2.1327	-3.56067	-0.874644	0	
2.1333	-13.6492	1.24683	0	
2.1340	-30.1308	4.61514	0	
2.1347	-41.1095	6.43887	0	
2.1353	-45.0748	7.35073	0	
2.1360	-44.7781	8.57895	0	
2.1367	-41.4063	7.96484	0	
2.1373	-35.9304	5.527	0	
2.1380	-29.2137	4.00103	0	
2.1387	-21.5798	2.77281	0	
2.1393	-13.6492	2.1773	0	
2.1400	-9.68394	4.00103	0	
2.1407	-8.4431	3.70328	0	
2.1413	-2.96722	0.0372189	0	
2.1420	4.66663	-1.80512	0	
2.1427	7.71478	-2.10287	0	
2.1433	13.838	-2.71698	0	
2.1440	29.4025	-2.71698	0	
2.1447	41.8918	-2.71698	0	
2.1453	43.7261	-3.62884	0	
2.1460	42.2155	-3.92659	0	
2.1467	39.4641	-3.33109	0	
2.1473	31.5335	-3.62884	0	
2.1480	23.8996	-4.5407	0	
2.1487	19.0172	-3.33109	0	
2.1493	12.9209	-1.80512	0	
2.1500	6.79764	-1.191	0	
2.1507	2.83235	-0.874644	0	
2.1513	-3.26395	-0.874644	0	
2.1520	-8.7668	-0.874644	0	
2.1527	-9.98066	0.65133	0	
2.1533	-16.3737	3.70328	0	
2.1540	-32.5585	6.75523	0	
2.1547	-45.3715	8.57895	0	
2.1553	-48.123	7.96484	0	
2.1560	-48.4197	5.22925	0	
2.1567	-45.6952	3.70328	0	
2.1573	-35.6067	3.70328	0	
2.1580	-27.6761	2.77281	0	
2.1587	-24.3312	2.77281	0	
2.1593	-15.1598	2.1773	0	
2.1600	-6.60882	0.0372189	0	
2.1607	-5.09823	-2.10287	0	
2.1613	0.0809243	-2.40062	0	
2.1620	6.50092	-1.191	0	
2.1627	7.12134	-0.874644	0	
2.1633	12.9209	-2.10287	0	
2.1640	30.2927	-3.62884	0	
2.1647	43.1326	-5.45257	0	
2.1653	45.8571	-7.90901	0	
2.1660	45.2636	-6.38304	0	
2.1667	43.1326	0.0372189	0	
2.1673	36.7126	1.86094	0	
2.1680	27.8649	-1.80512	0	
2.1687	19.3139	-1.80512	0	
2.1693	12.0038	1.56319	0	
2.1700	6.50092	0.0372189	0	
2.1707	2.83235	-0.279142	0	
2.1713	-2.64353	3.38692	0	
2.1720	-8.14638	3.38692	0	
2.1727	-10.8978	0.949082	0	
2.1733	-16.9941	3.38692	0	
2.1740	-30.4275	6.14112	0	
2.1747	-42.6201	7.05298	0	
2.1753	-46.6124	7.05298	0	
2.1760	-43.5373	3.70328	0	
2.1767	-36.5238	-0.279142	0	
2.1773	-30.1308	-0.279142	0	
2.1780	-25.5451	-1.80512	0	
2.1787	-18.5317	-4.85706	0	
2.1793	-9.06352	-3.62884	0	
2.1800	-1.72638	-2.71698	0	
2.1807	1.91521	-6.06668	0	
2.1813	5.58377	-7.2949	0	
2.1820	9.25234	-5.15482	0	
2.1827	11.0866	-6.38304	0	
2.1833	16.2658	-9.11863	0	
2.1840	29.6992	-10.0305	0	
2.1847	42.5122	-10.961	0	
2.1853	45.8571	-12.7847	0	
2.1860	45.2636	-12.7847	0	
2.1867	44.3465	-10.6446	0	
2.1873	38.2502	-7.2949	0	
2.1880	30.9131	-6.38304	0	
2.1887	25.4102	-5.45257	0	
2.1893	19.3139	-3.62884	0	
2.1900	14.4315	-3.01473	0	
2.1907	11.3833	-3.62884	0	
2.1913	5.58377	-2.71698	0	
2.1920	0.998066	-2.10287	0	
2.1927	-1.42966	-1.191	0	
2.1933	-9.68394	2.47506	0	
2.1940	-24.9247	4.29878	0	
2.1947	-36.5238	4.61514	0	
2.1953	-41.703	7.66709	0	
2.1960	-42.0267	10.1049	0	
2.1967	-38.3581	7.96484	0	
2.1973	-32.8553	4.29878	0	
2.1980	-27.3794	1.56319	0	
2.1987	-20.9594	0.33497	0	
2.1993	-16.077	-0.874644	0	
2.2000	-13.6492	-3.01473	0	
2.2007	-9.36024	-3.01473	0	
2.2013	-3.88436	-1.80512	0	
2.2020	0.998066	-1.80512	0	
2.2027	5.58377	0.65133	0	
2.2033	13.2176	1.86094	0	
2.2040	25.7339	-0.874644	0	
2.2047	38.8436	-1.80512	0	
2.2053	43.7261	0.0372189	0	
2.2060	42.8089	-2.71698	0	
2.2067	41.2984	-5.45257	0	
2.2073	34.8784	-4.5407	0	
2.2080	24.8168	-5.76893	0	
2.2087	18.3968	-7.2949	0	
2.2093	13.2176	-2.71698	0	
2.2100	8.3352	1.86094	0	
2.2107	5.8805	0.0372189	0	
2.2113	2.53563	-1.80512	0	
2.2120	-0.836217	0.33497	0	
2.2127	-0.215798	3.08917	0	
2.2133	-7.84965	4.00103	0	
2.2140	-25.8418	4.91289	0	
2.2147	-37.1442	7.66709	0	
2.2153	-38.3581	10.1049	0	
2.2160	-39.2752	8.2812	0	
2.2167	-35.9304	5.527	0	
2.2173	-27.3794	6.43887	0	
2.2180	-23.7108	6.75523	0	
2.2187	-20.9594	5.527	0	
2.2193	-13.6492	7.66709	0	
2.2200	-7.84965	9.49082	0	
2.2207	-4.18109	6.14112	0	
2.2213	1.61849	2.77281	0	
2.2220	4.96336	0.33497	0	
2.2227	7.12134	-5.45257	0	
2.2233	16.5625	-10.961	0	
2.2240	32.1269	-10.3468	0	
2.2247	43.1326	-7.90901	0	
2.2253	45.8571	-6.38304	0	
2.2260	44.0498	-6.38304	0	
2.2267	39.4641	-5.76893	0	
2.2273	32.7474	-3.62884	0	
2.2280	24.8168	-2.10287	0	
2.2287	16.8862	-2.10287	0	
2.2293	9.84579	-1.80512	0	
2.2300	4.66663	-0.874644	0	
2.2307	0.701344	0.0372189	0	
2.2313	-5.39495	2.77281	0	
2.2320	-9.06352	4.61514	0	
2.2327	-10.8978	3.70328	0	
2.2333	-19.4488	4.91289	0	
2.2340	-35.0132	7.66709	0	
2.2347	-45.6952	8.2812	0	
2.2353	-48.7434	7.35073	0	
2.2360	-46.2887	5.527	0	
2.2367	-38.6548	3.38692	0	
2.2373	-33.7724	3.38692	0	
2.2380	-31.9381	4.91289	0	
2.2387	-23.7108	4.61514	0	
2.2393	-13.0288	3.08917	0	
2.2400	-9.06352	2.77281	0	
2.2407	-5.39495	2.47506	0	
2.2413	0.998066	0.65133	0	
2.2420	4.36991	0.0372189	0	
2.2427	8.03848	1.86094	0	
2.2433	16.8862	3.08917	0	
2.2440	29.9959	0.65133	0	
2.2447	42.5122	-2.71698	0	
2.2453	48.3118	-3.33109	0	
2.2460	45.8571	-2.71698	0	
2.2467	41.5951	-3.62884	0	
2.2473	37.6298	-5.15482	0	
2.2480	29.0788	-3.62884	0	
2.2487	20.2311	-3.62884	0	
2.2493	15.3486	-5.76893	0	
2.2500	9.54906	-5.76893	0	
2.2507	2.53563	-3.62884	0	
2.2513	-1.13294	-2.10287	0	
2.2520	-2.64353	0.0372189	0	
2.2527	-7.22923	0.949082	0	
2.2533	-17.2908	0.65133	0	
2.2540	-30.1308	3.70328	0	
2.2547	-41.1095	6.43887	0	
2.2553	-46.6124	3.70328	0	
2.2560	-45.6952	2.77281	0	
2.2567	-40.1924	4.91289	0	
2.2573	-34.3928	3.08917	0	
2.2580	-26.759	-0.576893	0	
2.2587	-17.2908	-0.874644	0	
2.2593	-12.1117	-2.71698	0	
2.2600	-9.68394	-3.92659	0	
2.2607	-3.26395	-2.71698	0	
2.2613	2.83235	-1.48876	0	
2.2620	4.66663	-1.80512	0	
2.2627	9.25234	-2.10287	0	
2.2633	20.5278	-3.62884	0	
2.2640	33.0441	-5.76893	0	
2.2647	42.2155	-7.2949	0	
2.2653	47.3946	-5.45257	0	
2.2660	47.0979	-1.80512	0	
2.2667	44.0498	-1.191	0	
2.2673	38.2502	-3.92659	0	
2.2680	29.4025	-3.92659	0	
2.2687	22.3621	-1.80512	0	
2.2693	18.7205	-0.576893	0	
2.2700	13.838	2.1773	0	
2.2707	6.50092	4.61514	0	
2.2713	2.83235	3.70328	0	
2.2720	1.61849	2.77281	0	
2.2727	-2.64353	4.61514	0	
2.2733	-13.6492	5.82476	0	
2.2740	-27.6761	7.35073	0	
2.2747	-37.7377	7.66709	0	
2.2753	-41.1095	6.43887	0	
2.2760	-38.9785	6.75523	0	
2.2767	-33.179	6.43887	0	
2.2773	-26.759	3.70328	0	
2.2780	-20.9594	2.77281	0	
2.2787	-13.9459	4.29878	0	
2.2793	-6.01537	3.08917	0	
2.2800	-1.72638	3.08917	0	
2.2807	0.998066	5.527	0	
2.2813	4.96336	3.70328	0	
2.2820	7.71478	0.0372189	0	
2.2827	11.0866	0.0372189	0	
2.2833	21.7686	-0.576893	0	
2.2840	36.4159	-2.71698	0	
2.2847	45.8571	-2.10287	0	
2.2853	48.0151	-1.80512	0	
2.2860	47.0979	-2.71698	0	
2.2867	43.1326	-0.874644	0	
2.2873	35.4988	0.0372189	0	
2.2880	28.1616	-0.874644	0	
2.2887	22.3621	0.949082	0	
2.2893	13.838	3.70328	0	
2.2900	5.58377	2.77281	0	
2.2907	2.83235	1.86094	0	
2.2913	-1.42966	4.00103	0	
2.2920	-8.4431	4.61514	0	
2.2927	-13.6492	2.77281	0	
2.2933	-22.1732	3.70328	0	
2.2940	-38.6548	6.43887	0	
2.2947	-49.3368	5.82476	0	
2.2953	-50.5777	3.70328	0	
2.2960	-50.254	5.527	0	
2.2967	-47.2058	7.05298	0	
2.2973	-38.0614	3.70328	0	
2.2980	-30.4275	2.1773	0	
2.2987	-23.7108	4.29878	0	
2.2993	-14.5664	3.38692	0	
2.3000	-9.68394	0.65133	0	
2.3007	-7.84965	-0.874644	0	
2.3013	-2.3468	-2.71698	0	
2.3020	1.91521	-3.62884	0	
2.3027	3.15605	-2.10287	0	
2.3033	13.838	-1.191	0	
2.3040	31.5335	-3.62884	0	
2.3047	41.2984	-7.2949	0	
2.3053	44.0498	-9.73274	0	
2.3060	44.3465	-8.50451	0	
2.3067	39.4641	-7.2949	0	
2.3073	32.7474	-6.97854	0	
2.3080	27.5682	-5.45257	0	
2.3087	20.2311	-3.62884	0	
2.3093	12.0038	-3.01473	0	
2.3100	8.03848	-0.576893	0	
2.3107	2.83235	2.77281	0	
2.3113	-4.18109	1.56319	0	
2.3120	-5.09823	-0.279142	0	
2.3127	-8.14638	1.86094	0	
2.3133	-22.4969	4.91289	0	
2.3140	-36.8205	6.14112	0	
2.3147	-43.861	9.19306	0	
2.3153	-48.4197	11.9287	0	
2.3160	-50.254	10.4027	0	
2.3167	-45.0748	7.05298	0	
2.3173	-37.7377	6.75523	0	
2.3180	-30.1308	7.05298	0	
2.3187	-22.1732	4.61514	0	
2.3193	-16.3737	1.86094	0	
2.3200	-9.98066	1.24683	0	
2.3207	-2.05008	2.1773	0	
2.3213	1.91521	1.86094	0	
2.3220	0.0809243	0.949082	0	
2.3227	1.91521	0.65133	0	
2.3233	12.0038	-1.80512	0	
2.3240	26.9478	-3.62884	0	
2.3247	38.2502	-3.01473	0	
2.3253	41.5951	-3.62884	0	
2.3260	39.4641	-5.45257	0	
2.3267	34.8784	-4.5407	0	
2.3273	27.5682	-1.48876	0	
2.3280	21.1482	-0.279142	0	
2.3287	15.0519	-0.279142	0	
2.3293	6.50092	-0.279142	0	
2.3300	-0.836217	0.0372189	0	
2.3307	-3.88436	0.0372189	0	
2.3313	-7.22923	-1.191	0	
2.3320	-11.8149	-0.576893	0	
2.3327	-15.4835	1.86094	0	
2.3333	-22.7937	3.08917	0	
2.3340	-36.5238	4.91289	0	
2.3347	-47.8262	8.2812	0	
2.3353	-50.8744	8.57895	0	
2.3360	-49.3368	6.75523	0	
2.3367	-43.861	5.22925	0	
2.3373	-35.6067	2.77281	0	
2.3380	-27.9728	0.0372189	0	
2.3387	-20.0422	-2.71698	0	
2.3393	-12.4084	-3.62884	0	
2.3400	-8.14638	-2.10287	0	
2.3407	-5.39495	-2.71698	0	
2.3413	0.701344	-5.76893	0	
2.3420	6.50092	-6.06668	0	
2.3427	10.4662	-5.45257	0	
2.3433	20.2311	-10.0305	0	
2.3440	36.7126	-12.7847	0	
2.3447	47.0979	-10.6446	0	
2.3453	48.9322	-9.11863	0	
2.3460	47.6914	-9.43499	0	
2.3467	42.2155	-9.11863	0	
2.3473	33.9612	-8.20676	0	
2.3480	28.1616	-8.20676	0	
2.3487	20.8515	-9.43499	0	
2.3493	10.7629	-9.11863	0	
2.3500	5.28705	-5.45257	0	
2.3507	2.83235	-2.40062	0	
2.3513	-2.96722	-3.92659	0	
2.3520	-6.60882	-6.06668	0	
2.3527	-7.52596	-3.62884	0	
2.3533	-16.3737	-0.874644	0	
2.3540	-32.8553	-1.191	0	
2.3547	-44.7781	-0.874644	0	
2.3553	-45.992	2.47506	0	
2.3560	-42.9438	2.77281	0	
2.3567	-39.2752	-0.874644	0	
2.3573	-31.0479	-2.10287	0	
2.3580	-19.7455	-3.62884	0	
2.3587	-13.6492	-10.0305	0	
2.3593	-10.8978	-14.0129	0	
2.3600	-6.01537	-10.961	0	
2.3607	-0.836217	-6.38304	0	
2.3613	0.998066	-6.06668	0	
2.3620	2.83235	-8.50451	0	
2.3627	7.71478	-9.11863	0	
2.3633	19.3139	-7.2949	0	
2.3640	33.9612	-7.90901	0	
2.3647	42.2155	-9.11863	0	
2.3653	43.7261	-9.11863	0	
2.3660	43.7261	-9.73274	0	
2.3667	41.8918	-10.3468	0	
2.3673	36.4159	-8.20676	0	
2.3680	29.4025	-7.59265	0	
2.3687	20.8515	-7.90901	0	
2.3693	13.5144	-4.24295	0	
2.3700	9.54906	-0.576893	0	
2.3707	3.74949	-0.279142	0	
2.3713	-3.56067	-0.874644	0	
2.3720	-5.39495	0.33497	0	
2.3727	-6.31209	3.70328	0	
2.3733	-16.3737	7.66709	0	
2.3740	-33.7724	7.66709	0	
2.3747	-46.2887	6.43887	0	
2.3753	-48.4197	7.35073	0	
2.3760	-45.0748	5.527	0	
2.3767	-40.8128	3.38692	0	
2.3773	-33.179	4.00103	0	
2.3780	-24.628	4.61514	0	
2.3787	-19.1251	4.61514	0	
2.3793	-14.5664	6.43887	0	
2.3800	-8.14638	5.22925	0	
2.3807	-3.56067	0.949082	0	
2.3813	0.998066	0.0372189	0	
2.3820	6.20419	3.70328	0	
2.3827	9.54906	5.527	0	
2.3833	16.2658	1.86094	0	
2.3840	30.9131	-2.10287	0	
2.3847	42.8089	-1.80512	0	
2.3853	45.8571	-0.874644	0	
2.3860	45.8571	-2.71698	0	
2.3867	42.5122	-2.71698	0	
2.3873	33.0441	-0.874644	0	
2.3880	22.9825	-1.80512	0	
2.3887	16.5625	-1.48876	0	
2.3893	12.0038	2.1773	0	
2.3900	8.95562	2.77281	0	
2.3907	5.28705	1.86094	0	
2.3913	-0.215798	3.70328	0	
2.3920	-3.88436	5.22925	0	
2.3927	-6.31209	4.61514	0	
2.3933	-16.9941	4.00103	0	
2.3940	-33.4757	5.527	0	
2.3947	-43.2405	7.05298	0	
2.3953	-45.6952	7.35073	0	
2.3960	-45.6952	7.35073	0	
2.3967	-39.2752	6.43887	0	
2.3973	-29.5104	2.77281	0	
2.3980	-24.628	0.65133	0	
2.3987	-18.8284	1.24683	0	
2.3993	-7.22923	3.08917	0	
2.4000	-2.05008	5.527	0	
2.4007	-2.64353	6.14112	0	
2.4013	2.83235	2.77281	0	
2.4020	7.41806	0.65133	0	
2.4027	7.71478	2.47506	0	
2.4033	17.1829	0.949082	0	
2.4040	35.7955	-4.5407	0	
2.4047	46.4775	-6.38304	0	
2.4053	45.8571	-4.5407	0	
2.4060	43.1326	-4.24295	0	
2.4067	40.9747	-4.5407	0	
2.4073	35.7955	-3.62884	0	
2.4080	28.4853	-3.62884	0	
2.4087	22.9825	-3.01473	0	
2.4093	16.5625	-0.279142	0	
2.4100	9.54906	0.65133	0	
2.4107	4.96336	-0.279142	0	
2.4113	0.998066	1.56319	0	
2.4120	-4.47781	4.29878	0	
2.4127	-7.22923	3.70328	0	
2.4133	-15.7802	4.61514	0	
2.4140	-32.8553	8.57895	0	
2.4147	-42.9438	9.19306	0	
2.4153	-43.5373	7.35073	0	
2.4160	-44.1577	9.19306	0	
2.4167	-40.1924	8.57895	0	
2.4173	-30.1308	3.38692	0	
2.4180	-24.0075	2.77281	0	
2.4187	-20.0422	4.00103	0	
2.4193	-13.6492	0.65133	0	
2.4200	-9.98066	0.0372189	0	
2.4207	-7.22923	4.91289	0	
2.4213	0.0809243	4.91289	0	
2.4220	4.36991	1.86094	0	
2.4227	5.28705	0.949082	0	
2.4233	14.7282	-0.279142	0	
2.4240	32.1269	-3.01473	0	
2.4247	44.3465	-4.24295	0	
2.4253	47.6914	-5.45257	0	
2.4260	45.5604	-6.68079	0	
2.4267	40.3812	-5.45257	0	
2.4273	34.8784	-3.62884	0	
2.4280	28.7821	-3.33109	0	
2.4287	20.2311	-2.71698	0	
2.4293	11.6801	-2.71698	0	
2.4300	8.03848	-1.80512	0	
2.4307	6.20419	0.949082	0	
2.4313	1.32176	2.77281	0	
2.4320	-3.56067	1.86094	0	
2.4327	-6.93251	3.38692	0	
2.4333	-14.8631	6.14112	0	
2.4340	-30.4275	6.75523	0	
2.4347	-43.2405	8.2812	0	
2.4353	-45.992	11.0168	0	
2.4360	-43.861	11.0168	0	
2.4367	-41.1095	7.35073	0	
2.4373	-35.31	4.61514	0	
2.4380	-27.3794	2.47506	0	
2.4387	-20.3659	0.949082	0	
2.4393	-13.9459	0.33497	0	
2.4400	-7.84965	0.33497	0	
2.4407	-2.64353	-1.191	0	
2.4413	0.404621	-3.33109	0	
2.4420	3.45277	-3.33109	0	
2.4427	9.25234	-1.80512	0	
2.4433	19.6106	-2.71698	0	
2.4440	32.4506	-7.2949	0	
2.4447	42.5122	-9.73274	0	
2.4453	44.6432	-6.38304	0	
2.4460	41.2984	-5.15482	0	
2.4467	37.9265	-6.97854	0	
2.4473	32.1269	-6.06668	0	
2.4480	23.8996	-3.62884	0	
2.4487	18.3968	-3.92659	0	
2.4493	12.9209	-5.45257	0	
2.4500	5.28705	-5.45257	0	
2.4507	0.701344	-3.33109	0	
2.4513	-0.836217	-0.576893	0	
2.4520	-4.47781	-0.874644	0	
2.4527	-9.36024	-2.71698	0	
2.4533	-19.1251	1.56319	0	
2.4540	-34.3928	6.75523	0	
2.4547	-45.992	5.527	0	
2.4553	-48.7434	4.61514	0	
2.4560	-46.6124	7.66709	0	
2.4567	-42.0267	6.43887	0	
2.4573	-35.9304	2.1773	0	
2.4580	-29.5104	2.47506	0	
2.4587	-20.9594	2.47506	0	
2.4593	-13.3255	-0.874644	0	
2.4600	-11.1945	-2.71698	0	
2.4607	-8.7668	-3.01473	0	
2.4613	-1.72638	-6.38304	0	
2.4620	2.83235	-8.50451	0	
2.4627	4.66663	-6.38304	0	
2.4633	14.7282	-6.06668	0	
2.4640	33.0441	-8.20676	0	
2.4647	44.3465	-9.11863	0	
2.4653	43.7261	-7.59265	0	
2.4660	40.3812	-6.97854	0	
2.4667	36.0922	-5.76893	0	
2.4673	29.4025	-4.5407	0	
2.4680	22.9825	-5.45257	0	
2.4687	18.7205	-6.38304	0	
2.4693	12.5972	-3.92659	0	
2.4700	8.03848	-1.80512	0	
2.4707	6.20419	-1.48876	0	
2.4713	2.2389	-1.48876	0	
2.4720	-4.47781	0.0372189	0	
2.4727	-10.6011	1.24683	0	
2.4733	-20.3659	2.47506	0	
2.4740	-33.7724	3.08917	0	
2.4747	-43.5373	4.61514	0	
2.4753	-45.3715	7.35073	0	
2.4760	-42.6201	9.80718	0	
2.4767	-36.8205	8.8767	0	
2.4773	-30.4275	5.82476	0	
2.4780	-25.5451	5.82476	0	
2.4787	-19.4488	6.75523	0	
2.4793	-12.1117	4.61514	0	
2.4800	-6.31209	2.1773	0	
2.4807	-1.42966	1.86094	0	
2.4813	1.61849	0.33497	0	
2.4820	1.91521	-0.874644	0	
2.4827	4.36991	0.949082	0	
2.4833	14.7282	0.949082	0	
2.4840	29.6992	-3.62884	0	
2.4847	40.9747	-6.97854	0	
2.4853	42.8089	-6.38304	0	
2.4860	41.2984	-4.85706	0	
2.4867	40.9747	-3.62884	0	
2.4873	36.0922	-4.5407	0	
2.4880	26.6511	-6.38304	0	
2.4887	20.2311	-4.24295	0	
2.4893	16.5625	-1.80512	0	
2.4900	12.0038	-2.71698	0	
2.4907	7.71478	-1.48876	0	
2.4913	3.15605	2.47506	0	
2.4920	-0.51252	1.86094	0	
2.4927	-0.836217	-1.191	0	
2.4933	-8.4431	0.0372189	0	
2.4940	-26.4622	2.77281	0	
2.4947	-39.572	4.91289	0	
2.4953	-42.3234	7.35073	0	
2.4960	-43.861	7.66709	0	
2.4967	-42.0267	7.66709	0	
2.4973	-35.0132	7.96484	0	
2.4980	-29.2137	4.91289	0	
2.4987	-21.8765	2.47506	0	
2.4993	-11.8149	5.22925	0	
2.5000	-7.22923	7.35073	0	
2.5007	-5.71865	4.61514	0	
2.5013	0.0809243	2.47506	0	
2.5020	4.07319	2.77281	0	
2.5027	7.41806	2.1773	0	
2.5033	17.4796	-0.576893	0	
2.5040	31.2098	-3.62884	0	
2.5047	40.9747	-6.68079	0	
2.5053	45.2636	-9.73274	0	
2.5060	44.9669	-11.5565	0	
2.5067	39.4641	-9.43499	0	
2.5073	32.1269	-3.33109	0	
2.5080	28.4853	1.56319	0	
2.5087	23.6029	0.33497	0	
2.5093	14.7282	-1.48876	0	
2.5100	7.41806	0.0372189	0	
2.5107	5.28705	1.56319	0	
2.5113	0.701344	0.949082	0	
2.5120	-6.31209	0.65133	0	
2.5127	-9.98066	1.86094	0	
2.5133	-17.6145	3.70328	0	
2.5140	-32.2618	4.29878	0	
2.5147	-41.703	5.82476	0	
2.5153	-42.6201	8.2812	0	
2.5160	-41.703	9.80718	0	
2.5167	-37.441	8.57895	0	
2.5173	-30.4275	6.14112	0	
2.5180	-24.0075	5.22925	0	
2.5187	-17.2908	5.22925	0	
2.5193	-12.4084	4.61514	0	
2.5200	-12.1117	4.61514	0	
2.5207	-8.4431	4.91289	0	
2.5213	-1.72638	1.56319	0	
2.5220	0.0809243	-1.48876	0	
2.5227	2.53563	0.33497	0	
2.5233	13.838	1.56319	0	
2.5240	30.2927	-0.279142	0	
2.5247	42.8089	-0.874644	0	
2.5253	46.1808	0.0372189	0	
2.5260	41.2984	0.0372189	0	
2.5267	35.7955	0.949082	0	
2.5273	30.2927	2.47506	0	
2.5280	21.1482	1.86094	0	
2.5287	13.5144	0.0372189	0	
2.5293	9.25234	-1.48876	0	
2.5300	3.45277	-2.71698	0	
2.5307	-3.56067	-2.10287	0	
2.5313	-8.14638	0.0372189	0	
2.5320	-9.06352	1.24683	0	
2.5327	-9.36024	0.65133	0	
2.5333	-19.1251	0.65133	0	
2.5340	-36.8205	2.47506	0	
2.5347	-45.992	4.00103	0	
2.5353	-45.0748	4.61514	0	
2.5360	-44.7781	3.08917	0	
2.5367	-41.703	0.949082	0	
2.5373	-32.2618	0.949082	0	
2.5380	-23.7108	0.0372189	0	
2.5387	-17.9112	-3.01473	0	
2.5393	-11.8149	-3.92659	0	
2.5400	-6.60882	-3.62884	0	
2.5407	-2.05008	-5.76893	0	
2.5413	3.15605	-7.2949	0	
2.5420	6.20419	-5.76893	0	
2.5427	9.25234	-5.45257	0	
2.5433	18.3968	-6.97854	0	
2.5440	30.9131	-9.43499	0	
2.5447	39.7608	-10.0305	0	
2.5453	43.1326	-9.11863	0	
2.5460	43.4294	-8.82088	0	
2.5467	40.6779	-8.20676	0	
2.5473	33.0441	-3.62884	0	
2.5480	22.9825	0.0372189	0	
2.5487	16.5625	-2.71698	0	
2.5493	12.3005	-2.40062	0	
2.5500	7.71478	0.65133	0	
2.5507	4.07319	0.0372189	0	
2.5513	0.404621	-0.874644	0	
2.5520	-3.26395	0.65133	0	
2.5527	-6.31209	0.949082	0	
2.5533	-15.7802	1.56319	0	
2.5540	-33.7724	3.70328	0	
2.5547	-45.6952	6.14112	0	
2.5553	-45.992	7.66709	0	
2.5560	-44.7781	7.35073	0	
2.5567	-43.2405	5.22925	0	
2.5573	-34.3928	4.29878	0	
2.5580	-24.628	3.38692	0	
2.5587	-20.6627	0.33497	0	
2.5593	-15.4835	1.24683	0	
2.5600	-7.52596	2.47506	0	
2.5607	-1.13294	-1.80512	0	
2.5613	3.74949	-3.01473	0	
2.5620	6.20419	0.949082	0	
2.5627	6.50092	0.0372189	0	
2.5633	17.1829	-3.92659	0	
2.5640	36.0922	-5.45257	0	
2.5647	46.7742	-5.45257	0	
2.5653	48.0151	-5.45257	0	
2.5660	47.3946	-4.85706	0	
2.5667	41.2984	-4.5407	0	
2.5673	31.2098	-2.71698	0	
2.5680	25.4102	0.0372189	0	
2.5687	21.4449	-0.576893	0	
2.5693	15.0519	-1.191	0	
2.5700	7.71478	0.65133	0	
2.5707	1.32176	0.949082	0	
2.5713	-3.56067	1.24683	0	
2.5720	-5.71865	1.86094	0	
2.5727	-9.68394	1.56319	0	
2.5733	-20.3659	1.24683	0	
2.5740	-35.0132	3.08917	0	
2.5747	-45.3715	4.61514	0	
2.5753	-48.123	6.14112	0	
2.5760	-46.2887	5.82476	0	
2.5767	-42.3234	2.1773	0	
2.5773	-35.9304	-0.874644	0	
2.5780	-27.3794	-0.576893	0	
2.5787	-18.208	-0.279142	0	
2.5793	-10.8978	0.949082	0	
2.5800	-7.22923	3.38692	0	
2.5807	-2.64353	2.47506	0	
2.5813	2.83235	-1.191	0	
2.5820	5.58377	-2.40062	0	
2.5827	7.71478	-1.80512	0	
2.5833	18.3968	-3.92659	0	
2.5840	35.1751	-6.38304	0	
2.5847	46.1808	-5.45257	0	
2.5853	49.5257	-4.85706	0	
2.5860	48.0151	-6.38304	0	
2.5867	42.8089	-5.15482	0	
2.5873	35.1751	-2.71698	0	
2.5880	27.5682	-3.01473	0	
2.5887	20.8515	-3.62884	0	
2.5893	15.0519	-1.48876	0	
2.5900	9.54906	0.0372189	0	
2.5907	3.15605	0.0372189	0	
2.5913	-2.3468	-0.874644	0	
2.5920	-4.80151	-1.48876	0	
2.5927	-8.14638	-0.576893	0	
2.5933	-18.208	1.56319	0	
2.5940	-33.4757	3.08917	0	
2.5947	-45.6952	4.91289	0	
2.5953	-49.3368	7.05298	0	
2.5960	-45.992	4.61514	0	
2.5967	-40.1924	0.949082	0	
2.5973	-34.6895	2.47506	0	
2.5980	-27.3794	5.22925	0	
2.5987	-18.208	2.77281	0	
2.5993	-12.7321	-0.576893	0	
2.6000	-10.8978	-0.279142	0	
2.6007	-3.88436	0.949082	0	
2.6013	5.8805	0.33497	0	
2.6020	8.3352	-1.48876	0	
2.6027	9.25234	-2.71698	0	
2.6033	19.3139	-3.33109	0	
2.6040	33.0441	-4.85706	0	
2.6047	39.7608	-8.20676	0	
2.6053	41.8918	-11.8728	0	
2.6060	42.2155	-12.4869	0	
2.6067	39.4641	-9.43499	0	
2.6073	31.5335	-6.38304	0	
2.6080	22.9825	-3.92659	0	
2.6087	17.4796	-1.191	0	
2.6093	12.3005	0.65133	0	
2.6100	6.20419	0.0372189	0	
2.6107	1.32176	0.0372189	0	
2.6113	-3.26395	2.47506	0	
2.6120	-7.22923	2.77281	0	
2.6127	-9.98066	2.47506	0	
2.6133	-18.208	4.29878	0	
2.6140	-35.0132	7.05298	0	
2.6147	-46.9091	9.49082	0	
2.6153	-48.4197	10.719	0	
2.6160	-48.4197	8.2812	0	
2.6167	-45.992	4.29878	0	
2.6173	-37.7377	3.70328	0	
2.6180	-30.1308	4.29878	0	
2.6187	-22.7937	1.86094	0	
2.6193	-13.6492	0.0372189	0	
2.6200	-8.14638	0.0372189	0	
2.6207	-5.09823	-1.80512	0	
2.6213	2.83235	-4.24295	0	
2.6220	7.41806	-3.92659	0	
2.6227	8.03848	-2.10287	0	
2.6233	19.3139	-2.71698	0	
2.6240	37.3331	-5.45257	0	
2.6247	45.8571	-8.82088	0	
2.6253	47.0979	-8.82088	0	
2.6260	48.6085	-4.85706	0	
2.6267	46.4775	-1.191	0	
2.6273	40.3812	0.0372189	0	
2.6280	31.5335	0.33497	0	
2.6287	21.1482	1.24683	0	
2.6293	14.7282	1.86094	0	
2.6300	10.1695	2.77281	0	
2.6307	1.91521	3.08917	0	
2.6313	-4.80151	2.1773	0	
2.6320	-5.71865	2.1773	0	
2.6327	-10.6011	3.70328	0	
2.6333	-24.628	5.22925	0	
2.6340	-40.8128	6.75523	0	
2.6347	-49.3368	8.2812	0	
2.6353	-50.254	8.57895	0	
2.6360	-49.0401	8.2812	0	
2.6367	-45.3715	6.75523	0	
2.6373	-37.441	4.61514	0	
2.6380	-29.2137	4.00103	0	
2.6387	-22.7937	3.08917	0	
2.6393	-17.2908	0.33497	0	
2.6400	-13.6492	-1.80512	0	
2.6407	-10.8978	-2.71698	0	
2.6413	-5.71865	-3.62884	0	
2.6420	0.0809243	-1.80512	0	
2.6427	7.41806	-0.874644	0	
2.6433	18.3968	-3.62884	0	
2.6440	31.2098	-5.15482	0	
2.6447	43.1326	-4.5407	0	
2.6453	48.6085	-6.97854	0	
2.6460	44.9669	-7.2949	0	
2.6467	40.3812	-3.92659	0	
2.6473	37.9265	-3.01473	0	
2.6480	32.1269	-1.48876	0	
2.6487	22.3621	2.77281	0	
2.6493	14.1348	3.38692	0	
2.6500	9.25234	1.24683	0	
2.6507	6.79764	3.38692	0	
2.6513	3.74949	6.75523	0	
2.6520	-0.215798	6.75523	0	
2.6527	-5.09823	4.91289	0	
2.6533	-14.5664	3.08917	0	
2.6540	-28.2965	3.70328	0	
2.6547	-37.7377	6.43887	0	
2.6553	-42.0267	8.57895	0	
2.6560	-42.9438	7.96484	0	
2.6567	-38.3581	6.14112	0	
2.6573	-30.4275	4.61514	0	
2.6580	-21.8765	1.86094	0	
2.6587	-13.6492	-2.10287	0	
2.6593	-7.52596	-5.45257	0	
2.6600	-3.56067	-5.15482	0	
2.6607	2.53563	-1.80512	0	
2.6613	5.58377	-1.48876	0	
2.6620	6.20419	-3.62884	0	
2.6627	12.0038	-2.71698	0	
2.6633	24.8168	-1.191	0	
2.6640	36.4159	-4.85706	0	
2.6647	43.7261	-9.73274	0	
2.6653	47.6914	-9.73274	0	
2.6660	47.3946	-7.2949	0	
2.6667	43.1326	-7.2949	0	
2.6673	37.6298	-6.38304	0	
2.6680	32.1269	-4.24295	0	
2.6687	23.8996	-3.92659	0	
2.6693	16.2658	-4.24295	0	
2.6700	11.3833	-1.48876	0	
2.6707	6.50092	1.24683	0	
2.6713	1.61849	-0.576893	0	
2.6720	-1.42966	-2.40062	0	
2.6727	-5.39495	0.949082	0	
2.6733	-15.4835	5.22925	0	
2.6740	-31.6414	4.29878	0	
2.6747	-44.1577	2.77281	0	
2.6753	-46.2887	5.22925	0	
2.6760	-42.9438	5.82476	0	
2.6767	-41.1095	2.77281	0	
2.6773	-35.6067	4.00103	0	
2.6780	-26.1655	6.14112	0	
2.6787	-20.9594	2.1773	0	
2.6793	-16.077	-1.191	0	
2.6800	-8.14638	0.0372189	0	
2.6807	-5.09823	-0.874644	0	
2.6813	-4.18109	-2.71698	0	
2.6820	2.83235	-1.80512	0	
2.6827	8.3352	-1.80512	0	
2.6833	13.2176	-3.62884	0	
2.6840	28.4853	-2.71698	0	
2.6847	43.1326	-3.01473	0	
2.6853	42.8089	-6.68079	0	
2.6860	39.4641	-8.20676	0	
2.6867	38.5469	-6.38304	0	
2.6873	31.5335	-4.5407	0	
2.6880	22.0654	-3.62884	0	
2.6887	15.9691	-3.62884	0	
2.6893	10.1695	-4.5407	0	
2.6900	4.96336	-2.71698	0	
2.6907	1.32176	0.0372189	0	
2.6913	-4.47781	-0.279142	0	
2.6920	-9.98066	-0.576893	0	
2.6927	-12.7321	2.77281	0	
2.6933	-20.3659	6.75523	0	
2.6940	-34.6895	8.57895	0	
2.6947	-46.6124	8.2812	0	
2.6953	-49.3368	6.43887	0	
2.6960	-47.8262	4.91289	0	
2.6967	-44.7781	3.70328	0	
2.6973	-37.7377	0.65133	0	
2.6980	-27.9728	-0.874644	0	
2.6987	-20.6627	1.24683	0	
2.6993	-15.7802	2.77281	0	
2.7000	-9.98066	2.1773	0	
2.7007	-3.26395	2.1773	0	
2.7013	1.91521	1.86094	0	
2.7020	4.66663	-0.874644	0	
2.7027	8.3352	-2.71698	0	
2.7033	17.8033	-2.71698	0	
2.7040	33.0441	-3.62884	0	
2.7047	44.6432	-5.76893	0	
2.7053	48.6085	-7.2949	0	
2.7060	46.1808	-7.2949	0	
2.7067	38.5469	-6.68079	0	
2.7073	31.2098	-6.06668	0	
2.7080	27.5682	-5.45257	0	
2.7087	22.0654	-4.5407	0	
2.7093	15.6454	-2.71698	0	
2.7100	11.6801	-0.279142	0	
2.7107	7.12134	-0.874644	0	
2.7113	0.404621	-2.40062	0	
2.7120	-3.56067	-0.279142	0	
2.7127	-7.22923	3.08917	0	
2.7133	-17.9112	2.47506	0	
2.7140	-32.8553	0.949082	0	
2.7147	-45.3715	1.86094	0	
2.7153	-50.254	2.77281	0	
2.7160	-48.4197	2.77281	0	
2.7167	-42.6201	1.86094	0	
2.7173	-35.6067	0.0372189	0	
2.7180	-27.6761	-0.576893	0	
2.7187	-20.0422	1.24683	0	
2.7193	-12.4084	0.0372189	0	
2.7200	-5.39495	-3.01473	0	
2.7207	-0.51252	-3.33109	0	
2.7213	1.91521	-2.71698	0	
2.7220	2.53563	-3.62884	0	
2.7227	7.12134	-3.33109	0	
2.7233	19.9343	-2.71698	0	
2.7240	34.2849	-3.92659	0	
2.7247	43.1326	-3.92659	0	
2.7253	45.8571	-4.5407	0	
2.7260	42.8089	-7.2949	0	
2.7267	35.7955	-8.20676	0	
2.7273	29.4025	-6.38304	0	
2.7280	24.1964	-4.5407	0	
2.7287	17.4796	-3.62884	0	
2.7293	10.4662	-2.71698	0	
2.7300	4.66663	-1.80512	0	
2.7307	0.0809243	0.949082	0	
2.7313	-3.88436	1.56319	0	
2.7320	-6.31209	-1.80512	0	
2.7327	-9.06352	-2.10287	0	
2.7333	-16.9941	2.1773	0	
2.7340	-29.8071	5.527	0	
2.7347	-39.2752	5.82476	0	
2.7353	-41.1095	4.91289	0	
2.7360	-38.3581	1.86094	0	
2.7367	-34.3928	-1.191	0	
2.7373	-26.759	-0.874644	0	
2.7380	-19.4488	-0.874644	0	
2.7387	-14.5664	-1.80512	0	
2.7393	-8.14638	-0.874644	0	
2.7400	-1.42966	-0.279142	0	
2.7407	1.61849	-2.71698	0	
2.7413	3.45277	-5.15482	0	
2.7420	5.58377	-4.85706	0	
2.7427	8.03848	-4.5407	0	
2.7433	16.5625	-6.38304	0	
2.7440	32.1269	-8.20676	0	
2.7447	42.8089	-8.20676	0	
2.7453	44.6432	-9.11863	0	
2.7460	42.5122	-8.50451	0	
2.7467	38.5469	-6.38304	0	
2.7473	33.0441	-5.45257	0	
2.7480	26.0306	-5.15482	0	
2.7487	16.8862	-3.92659	0	
2.7493	7.71478	-3.62884	0	
2.7500	2.2389	-2.40062	0	
2.7507	-2.05008	1.86094	0	
2.7513	-4.47781	3.70328	0	
2.7520	-4.47781	2.77281	0	
2.7527	-9.36024	4.00103	0	
2.7533	-22.7937	4.91289	0	
2.7540	-36.5238	1.86094	0	
2.7547	-45.6952	2.77281	0	
2.7553	-49.6605	6.43887	0	
2.7560	-47.2058	3.70328	0	
2.7567	-41.4063	-0.279142	0	
2.7573	-36.2271	1.86094	0	
2.7580	-28.2965	3.70328	0	
2.7587	-19.7455	1.24683	0	
2.7593	-12.7321	1.86094	0	
2.7600	-7.22923	2.77281	0	
2.7607	-2.96722	-2.40062	0	
2.7613	0.998066	-5.45257	0	
2.7620	3.45277	-3.01473	0	
2.7627	5.58377	-2.10287	0	
2.7633	15.0519	-4.85706	0	
2.7640	31.2098	-7.2949	0	
2.7647	40.3812	-8.20676	0	
2.7653	40.3812	-8.20676	0	
2.7660	39.4641	-7.59265	0	
2.7667	36.7126	-5.76893	0	
2.7673	29.4025	-2.10287	0	
2.7680	22.6858	0.33497	0	
2.7687	15.9691	-0.279142	0	
2.7693	8.3352	-0.874644	0	
2.7700	2.2389	0.949082	0	
2.7707	-1.42966	2.77281	0	
2.7713	-2.96722	1.86094	0	
2.7720	-2.64353	-0.576893	0	
2.7727	-5.71865	0.33497	0	
2.7733	-18.208	5.82476	0	
2.7740	-33.179	9.19306	0	
2.7747	-42.0267	8.57895	0	
2.7753	-44.7781	9.19306	0	
2.7760	-43.2405	8.2812	0	
2.7767	-36.2271	6.43887	0	
2.7773	-25.2484	7.35073	0	
2.7780	-16.9941	7.96484	0	
2.7787	-11.1945	5.527	0	
2.7793	-4.47781	3.70328	0	
2.7800	1.61849	2.1773	0	
2.7807	5.28705	-0.874644	0	
2.7813	9.25234	-2.40062	0	
2.7820	11.3833	-1.80512	0	
2.7827	10.1695	-3.33109	0	
2.7833	15.0519	-4.5407	0	
2.7840	27.2445	-5.15482	0	
2.7847	34.8784	-5.76893	0	
2.7853	35.7955	-4.85706	0	
2.7860	37.3331	-3.62884	0	
2.7867	35.1751	-3.62884	0	
2.7873	28.4853	-2.40062	0	
2.7880	23.2792	0.33497	0	
2.7887	18.3968	1.86094	0	
2.7893	11.6801	2.47506	0	
2.7900	8.03848	2.77281	0	
2.7907	4.66663	1.86094	0	
2.7913	-2.64353	2.1773	0	
2.7920	-7.22923	2.77281	0	
2.7927	-8.7668	0.949082	0	
2.7933	-18.5317	1.56319	0	
2.7940	-35.0132	6.14112	0	
2.7947	-45.0748	7.35073	0	
2.7953	-45.6952	4.61514	0	
2.7960	-44.7781	6.43887	0	
2.7967	-42.6201	8.57895	0	
2.7973	-34.6895	4.61514	0	
2.7980	-26.4622	1.86094	0	
2.7987	-20.9594	3.70328	0	
2.7993	-14.2427	2.77281	0	
2.8000	-7.22923	-0.874644	0	
2.8007	-3.26395	-3.33109	0	
2.8013	0.998066	-1.80512	0	
2.8020	3.74949	0.949082	0	
2.8027	6.20419	-1.80512	0	
2.8033	15.6454	-6.06668	0	
2.8040	30.6163	-5.76893	0	
2.8047	39.4641	-6.06668	0	
2.8053	43.1326	-9.11863	0	
2.8060	44.0498	-6.38304	0	
2.8067	37.6298	-0.874644	0	
2.8073	28.7821	-1.48876	0	
2.8080	23.6029	-3.92659	0	
2.8087	17.4796	-2.71698	0	
2.8093	9.25234	-0.279142	0	
2.8100	5.58377	-0.279142	0	
2.8107	2.53563	-2.71698	0	
2.8113	-3.88436	-3.92659	0	
2.8120	-8.14638	-1.80512	0	
2.8127	-10.8978	0.949082	0	
2.8133	-20.6627	1.56319	0	
2.8140	-34.6895	3.70328	0	
2.8147	-44.1577	7.05298	0	
2.8153	-47.5025	9.80718	0	
2.8160	-45.6952	10.1049	0	
2.8167	-38.9785	7.96484	0	
2.8173	-30.4275	5.22925	0	
2.8180	-24.3312	4.00103	0	
2.8187	-17.9112	2.77281	0	
2.8193	-9.98066	1.86094	0	
2.8200	-5.39495	2.77281	0	
2.8207	-2.3468	1.86094	0	
2.8213	2.83235	-0.576893	0	
2.8220	7.41806	-0.874644	0	
2.8227	10.1695	-1.80512	0	
2.8233	17.8033	-6.06668	0	
2.8240	33.0441	-8.82088	0	
2.8247	43.1326	-7.2949	0	
2.8253	44.0498	-6.97854	0	
2.8260	44.0498	-9.11863	0	
2.8267	42.5122	-8.50451	0	
2.8273	33.9612	-5.45257	0	
2.8280	23.8996	-3.62884	0	
2.8287	19.0172	-2.10287	0	
2.8293	15.0519	-0.874644	0	
2.8300	9.25234	0.0372189	0	
2.8307	4.66663	1.56319	0	
2.8313	0.998066	1.86094	0	
2.8320	-3.56067	1.86094	0	
2.8327	-9.36024	3.38692	0	
2.8333	-20.6627	4.61514	0	
2.8340	-36.2271	4.00103	0	
2.8347	-45.992	4.00103	0	
2.8353	-46.6124	5.82476	0	
2.8360	-44.1577	7.35073	0	
2.8367	-40.1924	7.96484	0	
2.8373	-34.3928	5.527	0	
2.8380	-27.6761	1.86094	0	
2.8387	-20.9594	2.1773	0	
2.8393	-13.6492	2.47506	0	
2.8400	-8.4431	0.65133	0	
2.8407	-4.80151	0.65133	0	
2.8413	1.91521	-0.576893	0	
2.8420	7.71478	-3.33109	0	
2.8427	12.0038	-1.80512	0	
2.8433	21.7686	-0.279142	0	
2.8440	35.1751	-4.24295	0	
2.8447	42.2155	-5.45257	0	
2.8453	44.0498	-2.71698	0	
2.8460	44.0498	-3.33109	0	
2.8467	39.4641	-4.24295	0	
2.8473	31.2098	-0.279142	0	
2.8480	23.8996	3.70328	0	
2.8487	16.5625	0.949082	0	
2.8493	9.25234	-6.38304	0	
2.8500	3.74949	-9.11863	0	
2.8507	0.404621	-4.5407	0	
2.8513	-2.3468	0.33497	0	
2.8520	-4.18109	0.949082	0	
2.8527	-7.52596	0.0372189	0	
2.8533	-17.2908	-0.279142	0	
2.8540	-31.9381	-0.874644	0	
2.8547	-43.5373	1.86094	0	
2.8553	-46.6124	6.75523	0	
2.8560	-44.1577	6.14112	0	
2.8567	-38.3581	0.33497	0	
2.8573	-31.6414	-0.874644	0	
2.8580	-26.1655	1.86094	0	
2.8587	-19.4488	1.86094	0	
2.8593	-11.4912	-0.874644	0	
2.8600	-5.39495	0.0372189	0	
2.8607	-1.42966	0.949082	0	
2.8613	2.83235	-1.80512	0	
2.8620	4.66663	-4.24295	0	
2.8627	6.50092	-3.01473	0	
2.8633	17.4796	-3.62884	0	
2.8640	34.5816	-8.82088	0	
2.8647	43.4294	-10.3468	0	
2.8653	44.3465	-7.90901	0	
2.8660	43.7261	-8.20676	0	
2.8667	39.4641	-9.43499	0	
2.8673	31.8302	-5.45257	0	
2.8680	25.7339	-2.71698	0	
2.8687	18.1001	-4.5407	0	
2.8693	9.54906	-6.38304	0	
2.8700	5.28705	-3.62884	0	
2.8707	2.2389	-0.279142	0	
2.8713	-1.13294	-1.191	0	
2.8720	-2.96722	-3.62884	0	
2.8727	-8.4431	-2.10287	0	
2.8733	-21.8765	0.65133	0	
2.8740	-33.179	1.24683	0	
2.8747	-38.3581	1.56319	0	
2.8753	-41.4063	2.77281	0	
2.8760	-42.0267	2.77281	0	
2.8767	-36.5238	2.77281	0	
2.8773	-28.89	2.77281	0	
2.8780	-22.4969	2.1773	0	
2.8787	-16.3737	2.77281	0	
2.8793	-10.2774	5.527	0	
2.8800	-6.31209	4.91289	0	
2.8807	-2.96722	-0.576893	0	
2.8813	2.83235	-2.40062	0	
2.8820	6.50092	0.33497	0	
2.8827	8.3352	-0.576893	0	
2.8833	17.1829	-3.62884	0	
2.8840	33.9612	-5.76893	0	
2.8847	44.6432	-7.59265	0	
2.8853	43.4294	-9.11863	0	
2.8860	40.0575	-8.20676	0	
2.8867	35.7955	-7.59265	0	
2.8873	27.5682	-5.76893	0	
2.8880	20.8515	-2.71698	0	
2.8887	15.6454	-0.576893	0	
2.8893	8.3352	0.949082	0	
2.8900	3.15605	2.77281	0	
2.8907	-0.215798	3.38692	0	
2.8913	-6.31209	3.08917	0	
2.8920	-9.36024	3.38692	0	
2.8927	-11.1945	2.77281	0	
2.8933	-21.5798	3.38692	0	
2.8940	-36.2271	6.75523	0	
2.8947	-42.3234	9.19306	0	
2.8953	-41.4063	7.35073	0	
2.8960	-38.6548	4.29878	0	
2.8967	-34.0961	4.61514	0	
2.8973	-28.2965	5.22925	0	
2.8980	-23.0904	1.86094	0	
2.8987	-18.208	-2.10287	0	
2.8993	-12.1117	-0.874644	0	
2.9000	-5.39495	2.1773	0	
2.9007	0.998066	1.56319	0	
2.9013	3.74949	-0.874644	0	
2.9020	4.66663	-2.40062	0	
2.9027	8.3352	-3.33109	0	
2.9033	19.6106	-4.5407	0	
2.9040	34.5816	-6.38304	0	
2.9047	44.6432	-6.38304	0	
2.9053	45.8571	-5.15482	0	
2.9060	42.2155	-6.38304	0	
2.9067	37.9265	-6.38304	0	
2.9073	32.7474	-1.48876	0	
2.9080	24.8168	1.86094	0	
2.9087	17.4796	-0.279142	0	
2.9093	12.9209	0.0372189	0	
2.9100	7.71478	2.47506	0	
2.9107	1.91521	1.24683	0	
2.9113	-2.64353	-0.279142	0	
2.9120	-5.39495	0.0372189	0	
2.9127	-10.2774	0.65133	0	
2.9133	-21.8765	2.77281	0	
2.9140	-37.1442	6.75523	0	
2.9147	-44.7781	8.2812	0	
2.9153	-43.861	7.66709	0	
2.9160	-42.3234	5.527	0	
2.9167	-39.572	3.38692	0	
2.9173	-31.0479	3.08917	0	
2.9180	-21.8765	3.70328	0	
2.9187	-14.5664	2.77281	0	
2.9193	-8.14638	2.47506	0	
2.9200	-5.39495	0.65133	0	
2.9207	-4.18109	-1.80512	0	
2.9213	-0.836217	-1.191	0	
2.9220	-0.51252	-1.48876	0	
2.9227	0.998066	-4.24295	0	
2.9233	12.9209	-6.06668	0	
2.9240	30.2927	-7.90901	0	
2.9247	38.5469	-10.6446	0	
2.9253	39.7608	-10.0305	0	
2.9260	40.3812	-8.20676	0	
2.9267	38.5469	-8.20676	0	
2.9273	32.1269	-7.2949	0	
2.9280	23.6029	-6.38304	0	
2.9287	16.5625	-5.45257	0	
2.9293	12.5972	-2.10287	0	
2.9300	8.95562	-0.576893	0	
2.9307	4.07319	-3.62884	0	
2.9313	0.0809243	-3.92659	0	
2.9320	-3.26395	-0.279142	0	
2.9327	-6.93251	-0.874644	0	
2.9333	-14.8631	-1.80512	0	
2.9340	-29.2137	2.77281	0	
2.9347	-41.1095	5.82476	0	
2.9353	-42.9438	5.527	0	
2.9360	-38.3581	8.2812	0	
2.9367	-35.31	8.57895	0	
2.9373	-30.7242	3.38692	0	
2.9380	-22.4969	0.33497	0	
2.9387	-14.8631	2.77281	0	
2.9393	-9.68394	4.91289	0	
2.9400	-4.47781	4.00103	0	
2.9407	0.998066	2.77281	0	
2.9413	6.50092	3.08917	0	
2.9420	8.63192	1.86094	0	
2.9427	10.7629	-3.62884	0	
2.9433	21.1482	-7.2949	0	
2.9440	37.0094	-4.85706	0	
2.9447	47.3946	-3.92659	0	
2.9453	49.8493	-6.97854	0	
2.9460	48.3118	-6.97854	0	
2.9467	42.2155	-4.5407	0	
2.9473	35.7955	-3.62884	0	
2.9480	32.4506	-0.874644	0	
2.9487	26.9478	1.24683	0	
2.9493	17.4796	0.33497	0	
2.9500	11.6801	-0.279142	0	
2.9507	8.3352	0.0372189	0	
2.9513	2.83235	-0.874644	0	
2.9520	-1.42966	-1.191	0	
2.9527	-4.18109	-0.576893	0	
2.9533	-16.3737	-0.874644	0	
2.9540	-33.179	1.56319	0	
2.9547	-42.3234	5.22925	0	
2.9553	-44.7781	4.00103	0	
2.9560	-44.7781	1.86094	0	
2.9567	-39.8957	2.77281	0	
2.9573	-32.8553	1.24683	0	
2.9580	-26.759	-1.48876	0	
2.9587	-19.1251	-1.191	0	
2.9593	-12.1117	-2.10287	0	
2.9600	-8.4431	-3.62884	0	
2.9607	-3.56067	-3.01473	0	
2.9613	2.83235	-3.62884	0	
2.9620	5.58377	-4.5407	0	
