0.0007	-12.7815	2.50484	0	
0.0013	-19.1972	4.0419	0	
0.0020	-29.272	5.8636	0	
0.0027	-28.9713	4.63964	0	
0.0033	-24.0843	1.90709	0	
0.0040	-26.5152	2.50484	0	
0.0047	-27.7433	3.41569	0	
0.0053	-21.3275	0.967778	0	
0.0060	-17.067	-0.227713	0	
0.0067	-14.611	-0.853922	0	
0.0073	-9.12245	-2.67562	0	
0.0080	-6.36566	-2.36252	0	
0.0087	-4.53616	-2.98873	0	
0.0093	-1.5037	-7.25834	0	
0.0100	-1.5037	-9.08004	0	
0.0107	1.25308	-5.72128	0	
0.0113	11.3279	-6.34749	0	
0.0120	17.7437	-9.39314	0	
0.0127	15.8891	-9.70625	0	
0.0133	15.8891	-9.39314	0	
0.0140	17.1171	-7.57144	0	
0.0147	14.0596	-3.89958	0	
0.0153	10.7013	-4.21268	0	
0.0160	8.27035	-6.66059	0	
0.0167	4.61135	-2.98873	0	
0.0173	2.78185	1.28088	0	
0.0180	1.25308	-0.853922	0	
0.0187	-1.5037	-1.76477	0	
0.0193	-3.3332	2.19173	0	
0.0200	-1.80444	4.32654	0	
0.0207	-1.80444	4.0419	0	
0.0213	-8.19517	4.32654	0	
0.0220	-16.1397	6.1767	0	
0.0227	-19.7987	7.9984	0	
0.0233	-21.6282	6.77445	0	
0.0240	-21.929	6.1767	0	
0.0247	-17.3677	8.31151	0	
0.0253	-11.5534	7.6853	0	
0.0260	-9.72393	2.50484	0	
0.0267	-8.82171	0.683138	0	
0.0273	-6.36566	2.50484	0	
0.0280	-3.0074	2.19173	0	
0.0287	1.55382	0.370033	0	
0.0293	3.68407	-1.16703	0	
0.0300	3.68407	-2.67562	0	
0.0307	5.21283	-1.16703	0	
0.0313	11.0271	-1.16703	0	
0.0320	18.0444	-4.21268	0	
0.0327	21.4027	-4.81043	0	
0.0333	20.7761	-3.58647	0	
0.0340	20.1746	-5.12353	0	
0.0347	19.8739	-3.89958	0	
0.0353	15.8891	0.683138	0	
0.0360	13.1574	0.370033	0	
0.0367	13.7589	-1.45167	0	
0.0373	12.2301	0.370033	0	
0.0380	6.44085	0.370033	0	
0.0387	3.08259	-1.76477	0	
0.0393	2.78185	-0.227713	0	
0.0400	1.85456	1.59399	0	
0.0407	-0.877158	1.28088	0	
0.0413	-5.46344	2.81794	0	
0.0420	-10.9519	3.41569	0	
0.0427	-14.611	3.10258	0	
0.0433	-16.4405	5.8636	0	
0.0440	-16.4405	5.8636	0	
0.0447	-14.3102	0.683138	0	
0.0453	-10.6512	-0.227713	0	
0.0460	-6.06492	2.81794	0	
0.0467	-1.1779	2.19173	0	
0.0473	-0.576418	-0.227713	0	
0.0480	-0.877158	-0.540817	0	
0.0487	3.38333	-0.227713	0	
0.0493	7.04233	0.683138	0	
0.0500	4.61135	1.59399	0	
0.0507	6.74159	-1.16703	0	
0.0513	16.5156	-4.21268	0	
0.0520	23.2322	-4.52579	0	
0.0527	24.4351	-3.89958	0	
0.0533	23.5329	-4.81043	0	
0.0540	21.4027	-4.81043	0	
0.0547	19.2474	-3.30183	0	
0.0553	17.1171	-2.07788	0	
0.0560	11.9294	-0.853922	0	
0.0567	7.36813	1.28088	0	
0.0573	6.44085	2.19173	0	
0.0580	4.61135	3.10258	0	
0.0587	-0.576418	6.46134	0	
0.0593	-4.53616	7.08755	0	
0.0600	-4.23542	3.41569	0	
0.0607	-5.46344	2.81794	0	
0.0613	-11.8792	4.95275	0	
0.0620	-18.27	5.26585	0	
0.0627	-19.498	6.1767	0	
0.0633	-17.3677	7.9984	0	
0.0640	-17.067	5.55049	0	
0.0647	-17.067	3.41569	0	
0.0653	-13.3829	4.32654	0	
0.0660	-8.19517	3.41569	0	
0.0667	-5.46344	-2.07788	0	
0.0673	-2.10518	-5.12353	0	
0.0680	3.08259	-5.43664	0	
0.0687	6.44085	-5.43664	0	
0.0693	5.51357	-3.89958	0	
0.0700	3.08259	-1.16703	0	
0.0707	4.91209	-1.45167	0	
0.0713	12.2301	-4.21268	0	
0.0720	19.8739	-6.03438	0	
0.0727	22.9314	-7.57144	0	
0.0733	21.1019	-9.39314	0	
0.0740	18.3451	-8.48229	0	
0.0747	16.8164	-4.81043	0	
0.0753	15.8891	-4.21268	0	
0.0760	15.5884	-4.21268	0	
0.0767	15.2876	-0.227713	0	
0.0773	11.9294	3.41569	0	
0.0780	5.83937	0.683138	0	
0.0787	1.85456	-1.45167	0	
0.0793	-1.80444	-0.227713	0	
0.0800	-8.19517	-1.16703	0	
0.0807	-15.2375	-1.76477	0	
0.0813	-23.7835	2.50484	0	
0.0820	-35.0613	5.26585	0	
0.0827	-40.249	3.72879	0	
0.0833	-36.8908	2.81794	0	
0.0840	-34.7605	3.41569	0	
0.0847	-34.7605	4.32654	0	
0.0853	-30.475	4.0419	0	
0.0860	-25.2872	0.967778	0	
0.0867	-20.0995	-1.45167	0	
0.0873	-13.3829	-0.540817	0	
0.0880	-8.19517	-0.540817	0	
0.0887	-4.53616	-3.30183	0	
0.0893	-0.275678	-3.89958	0	
0.0900	1.55382	-0.853922	0	
0.0907	3.08259	0.967778	0	
0.0913	10.0999	-2.67562	0	
0.0920	17.7437	-6.94523	0	
0.0927	21.7034	-6.66059	0	
0.0933	23.8336	-4.81043	0	
0.0940	23.5329	-4.52579	0	
0.0947	19.8739	-2.98873	0	
0.0953	16.5156	-2.36252	0	
0.0960	14.6861	-3.89958	0	
0.0967	12.8566	-3.30183	0	
0.0973	11.0271	-0.227713	0	
0.0980	8.57109	-0.227713	0	
0.0987	5.51357	-0.227713	0	
0.0993	3.08259	2.81794	0	
0.1000	2.48111	4.0419	0	
0.1007	0.0250617	3.41569	0	
0.1013	-6.36566	3.72879	0	
0.1020	-14.3102	3.72879	0	
0.1027	-20.0995	4.32654	0	
0.1033	-21.0267	5.8636	0	
0.1040	-21.0267	4.0419	0	
0.1047	-21.0267	-1.16703	0	
0.1053	-17.9692	-2.07788	0	
0.1060	-11.5534	0.683138	0	
0.1067	-6.99221	-0.540817	0	
0.1073	-4.86196	-4.81043	0	
0.1080	-3.63394	-8.16919	0	
0.1087	-2.40592	-10.9302	0	
0.1093	0.952343	-12.1542	0	
0.1100	4.61135	-10.304	0	
0.1107	7.04233	-11.5279	0	
0.1113	11.0271	-14.8867	0	
0.1120	18.3451	-13.9759	0	
0.1127	23.2322	-11.2148	0	
0.1133	22.6056	-10.0194	0	
0.1140	20.1746	-7.85608	0	
0.1147	16.8164	-5.12353	0	
0.1153	13.1574	-3.30183	0	
0.1160	10.7013	-1.16703	0	
0.1167	8.27035	-2.07788	0	
0.1173	5.51357	-3.30183	0	
0.1180	2.78185	-0.540817	0	
0.1187	-0.275678	1.90709	0	
0.1193	-1.80444	-0.227713	0	
0.1200	-1.1779	0.0569281	0	
0.1207	-4.23542	4.32654	0	
0.1213	-12.7815	5.8636	0	
0.1220	-21.6282	5.55049	0	
0.1227	-24.6857	6.77445	0	
0.1233	-24.385	5.26585	0	
0.1240	-23.157	3.41569	0	
0.1247	-21.0267	5.26585	0	
0.1253	-17.3677	6.1767	0	
0.1260	-13.7087	4.95275	0	
0.1267	-9.42319	3.72879	0	
0.1273	-5.46344	1.28088	0	
0.1280	-6.36566	-1.16703	0	
0.1287	-7.29295	0.0569281	0	
0.1293	-2.40592	-0.227713	0	
0.1300	1.85456	-3.89958	0	
0.1307	1.25308	-4.52579	0	
0.1313	6.44085	-2.98873	0	
0.1320	17.4179	-5.72128	0	
0.1327	22.6056	-6.66059	0	
0.1333	22.6056	-3.89958	0	
0.1340	22.9314	-3.89958	0	
0.1347	20.1746	-3.89958	0	
0.1353	16.5156	-0.540817	0	
0.1360	16.5156	0.683138	0	
0.1367	14.0596	-0.227713	0	
0.1373	8.27035	-0.227713	0	
0.1380	5.51357	-1.16703	0	
0.1387	5.21283	-0.540817	0	
0.1393	1.55382	2.50484	0	
0.1400	-0.877158	2.19173	0	
0.1407	-0.877158	0.370033	0	
0.1413	-7.29295	3.72879	0	
0.1420	-17.067	7.08755	0	
0.1427	-19.498	4.32654	0	
0.1433	-18.27	2.81794	0	
0.1440	-20.0995	5.55049	0	
0.1447	-19.498	4.95275	0	
0.1453	-13.3829	0.967778	0	
0.1460	-9.12245	0.683138	0	
0.1467	-7.29295	2.81794	0	
0.1473	-3.3332	2.50484	0	
0.1480	1.25308	0.683138	0	
0.1487	3.08259	-0.227713	0	
0.1493	5.21283	-0.227713	0	
0.1500	7.36813	-2.07788	0	
0.1507	8.87183	-4.21268	0	
0.1513	13.4581	-3.58647	0	
0.1520	20.1746	-2.36252	0	
0.1527	22.9314	-4.52579	0	
0.1533	19.8739	-4.81043	0	
0.1540	17.4179	-1.16703	0	
0.1547	17.4179	0.370033	0	
0.1553	18.0444	-1.16703	0	
0.1560	14.3854	-0.227713	0	
0.1567	6.44085	0.683138	0	
0.1573	0.952343	0.683138	0	
0.1580	0.0250617	0.683138	0	
0.1587	-1.5037	1.59399	0	
0.1593	-3.3332	2.19173	0	
0.1600	-2.40592	2.50484	0	
0.1607	-6.69147	0.967778	0	
0.1613	-18.5958	1.59399	0	
0.1620	-26.5152	5.26585	0	
0.1627	-27.7433	4.32654	0	
0.1633	-25.613	2.81794	0	
0.1640	-17.6685	5.26585	0	
0.1647	-8.82171	4.32654	0	
0.1653	-4.53616	0.0569281	0	
0.1660	-2.10518	-0.227713	0	
0.1667	-1.5037	1.28088	0	
0.1673	-3.0074	-0.227713	0	
0.1680	-1.80444	-2.98873	0	
0.1687	0.325802	-3.89958	0	
0.1693	-3.3332	-1.16703	0	
0.1700	-10.9519	0.683138	0	
0.1707	-14.0095	-3.89958	0	
0.1713	-9.42319	-8.48229	0	
0.1720	0.0250617	-8.48229	0	
0.1727	7.36813	-8.16919	0	
0.1733	10.4006	-8.48229	0	
0.1740	11.9294	-6.66059	0	
0.1747	12.2301	-6.03438	0	
0.1753	12.2301	-8.16919	0	
0.1760	13.1574	-7.57144	0	
0.1767	10.0999	-2.98873	0	
0.1773	4.61135	0.683138	0	
0.1780	4.61135	0.683138	0	
0.1787	6.44085	-0.227713	0	
0.1793	3.38333	-0.227713	0	
0.1800	-0.275678	0.683138	0	
0.1807	-3.3332	3.41569	0	
0.1813	-9.12245	4.0419	0	
0.1820	-15.5382	2.50484	0	
0.1827	-19.1972	3.41569	0	
0.1833	-20.0995	5.26585	0	
0.1840	-18.5958	4.32654	0	
0.1847	-17.3677	2.81794	0	
0.1853	-18.5958	1.90709	0	
0.1860	-19.1972	-0.227713	0	
0.1867	-16.4405	-0.227713	0	
0.1873	-13.7087	2.50484	0	
0.1880	-11.5534	2.19173	0	
0.1887	-8.19517	-1.45167	0	
0.1893	-3.63394	-2.67562	0	
0.1900	1.85456	-0.540817	0	
0.1907	5.51357	0.967778	0	
0.1913	7.96961	-1.76477	0	
0.1920	12.5559	-5.43664	0	
0.1927	17.4179	-6.03438	0	
0.1933	19.2474	-5.43664	0	
0.1940	22.0041	-6.34749	0	
0.1947	26.5904	-6.03438	0	
0.1953	23.8336	-4.81043	0	
0.1960	15.5884	-4.81043	0	
0.1967	11.0271	-3.89958	0	
0.1973	9.19763	-2.07788	0	
0.1980	6.44085	-1.16703	0	
0.1987	4.31061	0.0569281	0	
0.1993	0.651603	3.10258	0	
0.2000	-2.40592	3.10258	0	
0.2007	-1.80444	0.967778	0	
0.2013	-6.36566	1.59399	0	
0.2020	-17.6685	4.63964	0	
0.2027	-22.2548	7.08755	0	
0.2033	-18.27	7.9984	0	
0.2040	-15.839	5.55049	0	
0.2047	-14.611	1.28088	0	
0.2053	-11.8792	-1.16703	0	
0.2060	-10.3505	-1.16703	0	
0.2067	-8.19517	0.0569281	0	
0.2073	-5.46344	0.683138	0	
0.2080	-4.53616	-0.227713	0	
0.2087	-3.3332	0.370033	0	
0.2093	0.952343	3.72879	0	
0.2100	4.61135	3.41569	0	
0.2107	8.87183	0.0569281	0	
0.2113	14.3854	-0.227713	0	
0.2120	18.3451	-0.540817	0	
0.2127	22.0041	-3.30183	0	
0.2133	23.8336	-4.21268	0	
0.2140	22.0041	-4.52579	0	
0.2147	18.9466	-4.81043	0	
0.2153	18.0444	-3.30183	0	
0.2160	17.1171	-2.98873	0	
0.2167	13.4581	-2.98873	0	
0.2173	9.49837	-0.227713	0	
0.2180	8.87183	0.683138	0	
0.2187	8.57109	-1.45167	0	
0.2193	4.31061	0.370033	0	
0.2200	0.952343	3.72879	0	
0.2207	-0.877158	4.0419	0	
0.2213	-9.42319	5.26585	0	
0.2220	-18.8965	6.1767	0	
0.2227	-18.5958	6.1767	0	
0.2233	-17.9692	7.9984	0	
0.2240	-20.0995	8.90925	0	
0.2247	-17.9692	5.55049	0	
0.2253	-15.5382	3.41569	0	
0.2260	-14.611	3.41569	0	
0.2267	-8.82171	1.59399	0	
0.2273	-4.23542	0.370033	0	
0.2280	-4.23542	0.683138	0	
0.2287	0.0250617	-1.16703	0	
0.2293	4.61135	-2.98873	0	
0.2300	4.00987	-3.58647	0	
0.2307	5.83937	-4.21268	0	
0.2313	12.2301	-5.72128	0	
0.2320	17.4179	-6.66059	0	
0.2327	19.8739	-6.66059	0	
0.2333	19.2474	-6.66059	0	
0.2340	17.4179	-6.03438	0	
0.2347	15.5884	-5.43664	0	
0.2353	11.3279	-3.58647	0	
0.2360	6.74159	-1.16703	0	
0.2367	5.21283	0.683138	0	
0.2373	3.68407	1.59399	0	
0.2380	0.952343	1.90709	0	
0.2387	-0.576418	2.50484	0	
0.2393	0.325802	3.41569	0	
0.2400	1.85456	3.72879	0	
0.2407	-0.877158	3.41569	0	
0.2413	-8.19517	4.95275	0	
0.2420	-15.5382	7.40066	0	
0.2427	-19.1972	7.9984	0	
0.2433	-19.498	7.08755	0	
0.2440	-20.4253	6.1767	0	
0.2447	-20.4253	4.95275	0	
0.2453	-17.3677	3.72879	0	
0.2460	-14.611	1.59399	0	
0.2467	-14.0095	0.0569281	0	
0.2473	-12.4807	-0.540817	0	
0.2480	-9.42319	-0.227713	0	
0.2487	-6.99221	-0.853922	0	
0.2493	-3.93468	-1.16703	0	
0.2500	-0.877158	-0.853922	0	
0.2507	1.85456	-0.227713	0	
0.2513	7.36813	-1.16703	0	
0.2520	18.3451	-2.36252	0	
0.2527	24.7609	-3.89958	0	
0.2533	25.0617	-4.21268	0	
0.2540	25.0617	-4.81043	0	
0.2547	24.1344	-3.89958	0	
0.2553	19.8739	-2.36252	0	
0.2560	16.2149	-2.98873	0	
0.2567	11.9294	-3.89958	0	
0.2573	6.14011	-2.98873	0	
0.2580	7.04233	0.0569281	0	
0.2587	15.5884	0.683138	0	
0.2593	16.8164	0.370033	0	
0.2600	7.36813	-0.540817	0	
0.2607	0.0250617	-0.227713	0	
0.2613	-4.23542	3.10258	0	
0.2620	-10.9519	5.8636	0	
0.2627	-19.1972	5.26585	0	
0.2633	-25.613	5.8636	0	
0.2640	-31.1015	7.08755	0	
0.2647	-34.1591	4.32654	0	
0.2653	-32.931	1.28088	0	
0.2660	-28.044	3.10258	0	
0.2667	-23.4577	4.32654	0	
0.2673	-20.0995	1.90709	0	
0.2680	-17.3677	0.967778	0	
0.2687	-12.18	1.90709	0	
0.2693	-7.89443	2.19173	0	
0.2700	-8.52097	0.370033	0	
0.2707	-9.12245	-2.36252	0	
0.2713	-1.80444	-3.30183	0	
0.2720	6.74159	-3.58647	0	
0.2727	11.0271	-6.66059	0	
0.2733	12.8566	-9.08004	0	
0.2740	13.7589	-7.25834	0	
0.2747	11.9294	-6.03438	0	
0.2753	8.57109	-6.34749	0	
0.2760	5.51357	-2.98873	0	
0.2767	1.25308	-0.227713	0	
0.2773	-1.5037	-3.30183	0	
0.2780	-2.10518	-4.21268	0	
0.2787	-4.53616	-1.45167	0	
0.2793	-6.36566	-1.45167	0	
0.2800	-5.76418	-2.36252	0	
0.2807	-9.12245	-0.540817	0	
0.2813	-15.2375	0.370033	0	
0.2820	-19.498	1.90709	0	
0.2827	-23.157	4.95275	0	
0.2833	-25.9138	4.95275	0	
0.2840	-22.2548	3.10258	0	
0.2847	-14.611	3.41569	0	
0.2853	-10.0497	2.81794	0	
0.2860	-9.12245	1.59399	0	
0.2867	-8.19517	3.10258	0	
0.2873	-7.59369	3.41569	0	
0.2880	-5.76418	-0.227713	0	
0.2887	-0.576418	-4.21268	0	
0.2893	3.68407	-3.89958	0	
0.2900	5.83937	-2.36252	0	
0.2907	11.3279	-5.12353	0	
0.2913	18.6459	-11.2148	0	
0.2920	24.1344	-13.9759	0	
0.2927	29.3222	-14.289	0	
0.2933	32.0789	-16.1107	0	
0.2940	29.6229	-17.6477	0	
0.2947	25.6631	-15.7976	0	
0.2953	22.0041	-12.7519	0	
0.2960	17.4179	-8.48229	0	
0.2967	12.8566	-6.03438	0	
0.2973	7.66887	-6.03438	0	
0.2980	3.38333	-3.58647	0	
0.2987	3.68407	-0.227713	0	
0.2993	5.51357	-1.16703	0	
0.3000	2.78185	-1.45167	0	
0.3007	-0.877158	2.50484	0	
0.3013	-4.23542	4.63964	0	
0.3020	-10.6512	3.41569	0	
0.3027	-18.5958	4.95275	0	
0.3033	-25.2872	7.40066	0	
0.3040	-28.6455	6.1767	0	
0.3047	-24.0843	3.10258	0	
0.3053	-17.9692	1.28088	0	
0.3060	-18.27	-1.45167	0	
0.3067	-17.6685	-3.30183	0	
0.3073	-13.7087	-2.07788	0	
0.3080	-14.611	-1.16703	0	
0.3087	-15.2375	-1.16703	0	
0.3093	-8.52097	-0.540817	0	
0.3100	-3.3332	-0.227713	0	
0.3107	-1.80444	0.0569281	0	
0.3113	4.00987	-1.16703	0	
0.3120	13.7589	-4.21268	0	
0.3127	23.8336	-5.72128	0	
0.3133	35.1365	-4.21268	0	
0.3140	39.3969	-4.81043	0	
0.3147	32.0789	-5.12353	0	
0.3153	22.9314	-3.89958	0	
0.3160	17.4179	-2.07788	0	
0.3167	12.2301	0.0569281	0	
0.3173	8.57109	3.41569	0	
0.3180	6.14011	4.0419	0	
0.3187	1.55382	3.72879	0	
0.3193	-2.70666	5.26585	0	
0.3200	-4.23542	5.26585	0	
0.3207	-8.52097	5.8636	0	
0.3213	-17.6685	8.31151	0	
0.3220	-25.2872	7.9984	0	
0.3227	-26.816	5.26585	0	
0.3233	-25.9138	5.55049	0	
0.3240	-25.613	7.08755	0	
0.3247	-24.385	6.77445	0	
0.3253	-20.726	4.0419	0	
0.3260	-14.9117	1.28088	0	
0.3267	-6.99221	0.683138	0	
0.3273	-0.576418	0.0569281	0	
0.3280	0.952343	-0.540817	0	
0.3287	1.25308	0.683138	0	
0.3293	4.31061	0.967778	0	
0.3300	8.27035	-0.227713	0	
0.3307	16.2149	0.370033	0	
0.3313	29.6229	-1.16703	0	
0.3320	40.3242	-6.66059	0	
0.3327	39.3969	-7.85608	0	
0.3333	32.9812	-2.07788	0	
0.3340	28.7207	1.59399	0	
0.3347	25.6631	0.0569281	0	
0.3353	19.2474	0.0569281	0	
0.3360	12.8566	4.0419	0	
0.3367	10.0999	5.8636	0	
0.3373	9.19763	3.72879	0	
0.3380	7.04233	1.59399	0	
0.3387	8.27035	2.50484	0	
0.3393	11.9294	3.10258	0	
0.3400	11.6286	0.683138	0	
0.3407	7.36813	-2.07788	0	
0.3413	0.651603	0.0569281	0	
0.3420	-7.29295	2.81794	0	
0.3427	-14.0095	1.59399	0	
0.3433	-18.5958	0.967778	0	
0.3440	-21.3275	4.32654	0	
0.3447	-19.1972	6.1767	0	
0.3453	-14.611	4.32654	0	
0.3460	-12.18	3.41569	0	
0.3467	-8.19517	2.50484	0	
0.3473	-1.1779	-1.45167	0	
0.3480	2.48111	-4.81043	0	
0.3487	1.25308	-5.72128	0	
0.3493	1.85456	-6.03438	0	
0.3500	2.48111	-6.66059	0	
0.3507	1.55382	-8.16919	0	
0.3513	6.74159	-8.48229	0	
0.3520	15.5884	-7.25834	0	
0.3527	18.0444	-7.57144	0	
0.3533	17.7437	-7.85608	0	
0.3540	21.4027	-5.72128	0	
0.3547	20.1746	-6.03438	0	
0.3553	13.7589	-8.16919	0	
0.3560	12.8566	-4.52579	0	
0.3567	12.8566	-1.16703	0	
0.3573	4.00987	-3.30183	0	
0.3580	-2.40592	-3.89958	0	
0.3587	0.0250617	-1.16703	0	
0.3593	0.0250617	1.28088	0	
0.3600	-1.80444	2.50484	0	
0.3607	-0.576418	4.32654	0	
0.3613	-4.86196	6.1767	0	
0.3620	-15.2375	8.90925	0	
0.3627	-20.0995	9.8201	0	
0.3633	-21.3275	6.46134	0	
0.3640	-24.6857	5.55049	0	
0.3647	-23.7835	6.77445	0	
0.3653	-20.4253	3.72879	0	
0.3660	-21.0267	0.683138	0	
0.3667	-21.6282	1.59399	0	
0.3673	-20.4253	2.50484	0	
0.3680	-21.0267	1.90709	0	
0.3687	-15.5382	2.50484	0	
0.3693	-1.5037	2.81794	0	
0.3700	8.27035	1.59399	0	
0.3707	11.9294	1.59399	0	
0.3713	14.0596	2.50484	0	
0.3720	15.5884	1.59399	0	
0.3727	18.0444	-0.540817	0	
0.3733	20.1746	-1.76477	0	
0.3740	19.2474	-2.07788	0	
0.3747	18.6459	-3.30183	0	
0.3753	16.8164	-5.43664	0	
0.3760	9.79911	-6.66059	0	
0.3767	4.31061	-6.34749	0	
0.3773	3.08259	-4.52579	0	
0.3780	0.651603	-3.58647	0	
0.3787	-3.0074	-3.30183	0	
0.3793	-4.23542	-2.07788	0	
0.3800	-4.86196	-1.45167	0	
0.3807	-6.69147	-2.98873	0	
0.3813	-12.18	-2.07788	0	
0.3820	-19.498	0.370033	0	
0.3827	-22.8562	-0.540817	0	
0.3833	-23.4577	-1.16703	0	
0.3840	-24.6857	1.59399	0	
0.3847	-21.929	2.19173	0	
0.3853	-16.7412	0.683138	0	
0.3860	-14.3102	0.0569281	0	
0.3867	-11.8792	-0.540817	0	
0.3873	-8.82171	-1.45167	0	
0.3880	-6.36566	0.0569281	0	
0.3887	-2.40592	0.967778	0	
0.3893	-0.275678	-1.45167	0	
0.3900	-0.576418	-2.67562	0	
0.3907	2.78185	-1.16703	0	
0.3913	9.79911	-2.36252	0	
0.3920	15.8891	-5.72128	0	
0.3927	20.1746	-7.57144	0	
0.3933	22.3049	-6.66059	0	
0.3940	22.3049	-4.21268	0	
0.3947	21.1019	-2.67562	0	
0.3953	17.1171	-2.07788	0	
0.3960	11.9294	-2.07788	0	
0.3967	9.19763	-2.36252	0	
0.3973	7.96961	-3.58647	0	
0.3980	5.21283	-2.98873	0	
0.3987	2.78185	-0.227713	0	
0.3993	0.651603	0.683138	0	
0.4000	-2.40592	-0.227713	0	
0.4007	-5.46344	-0.540817	0	
0.4013	-11.2527	0.0569281	0	
0.4020	-18.5958	2.50484	0	
0.4027	-21.929	4.95275	0	
0.4033	-22.8562	4.63964	0	
0.4040	-27.4425	3.41569	0	
0.4047	-31.1015	1.59399	0	
0.4053	-28.9713	0.370033	0	
0.4060	-25.2872	1.28088	0	
0.4067	-25.613	3.72879	0	
0.4073	-26.5152	4.63964	0	
0.4080	-21.6282	2.81794	0	
0.4087	-12.7815	-0.853922	0	
0.4093	-8.19517	-2.07788	0	
0.4100	-6.99221	-0.853922	0	
0.4107	-3.3332	-0.227713	0	
0.4113	3.68407	-2.07788	0	
0.4120	11.9294	-4.52579	0	
0.4127	21.4027	-8.7954	0	
0.4133	30.2494	-12.1542	0	
0.4140	35.4372	-11.2148	0	
0.4147	37.8682	-8.48229	0	
0.4153	37.5674	-4.81043	0	
0.4160	32.6804	-1.76477	0	
0.4167	25.6631	-0.540817	0	
0.4173	22.0041	-0.227713	0	
0.4180	21.7034	1.59399	0	
0.4187	19.5732	1.90709	0	
0.4193	14.9869	1.90709	0	
0.4200	11.6286	4.32654	0	
0.4207	10.0999	6.1767	0	
0.4213	5.51357	5.26585	0	
0.4220	-5.46344	4.32654	0	
0.4227	-18.27	6.1767	0	
0.4233	-26.2145	8.59615	0	
0.4240	-29.272	9.8201	0	
0.4247	-31.703	7.9984	0	
0.4253	-33.8333	5.26585	0	
0.4260	-30.1742	5.55049	0	
0.4267	-19.498	6.46134	0	
0.4273	-10.6512	2.50484	0	
0.4280	-10.0497	-2.07788	0	
0.4287	-12.18	-1.76477	0	
0.4293	-9.12245	-2.07788	0	
0.4300	-5.76418	-5.72128	0	
0.4307	-3.0074	-9.08004	0	
0.4313	5.51357	-11.2148	0	
0.4320	19.2474	-12.1542	0	
0.4327	33.6077	-11.2148	0	
0.4333	46.715	-9.39314	0	
0.4340	51.3012	-8.48229	0	
0.4347	43.3567	-7.25834	0	
0.4353	33.6077	-5.12353	0	
0.4360	26.2897	-2.67562	0	
0.4367	17.4179	-0.227713	0	
0.4373	11.0271	-0.227713	0	
0.4380	9.79911	0.967778	0	
0.4387	5.51357	4.63964	0	
0.4393	-2.10518	6.1767	0	
0.4400	-8.52097	5.55049	0	
0.4407	-14.3102	6.46134	0	
0.4413	-19.1972	7.40066	0	
0.4420	-21.6282	6.1767	0	
0.4427	-22.2548	7.08755	0	
0.4433	-22.2548	7.08755	0	
0.4440	-19.7987	3.41569	0	
0.4447	-12.7815	1.59399	0	
0.4453	-1.80444	1.28088	0	
0.4460	9.79911	-2.36252	0	
0.4467	15.5884	-2.67562	0	
0.4473	14.6861	2.50484	0	
0.4480	13.7589	2.50484	0	
0.4487	13.7589	0.0569281	0	
0.4493	6.44085	2.19173	0	
0.4500	-4.53616	-0.227713	0	
0.4507	-10.9519	-5.12353	0	
0.4513	-15.839	-5.12353	0	
0.4520	-20.726	-7.25834	0	
0.4527	-11.2527	-11.5279	0	
0.4533	9.79911	-7.57144	0	
0.4540	21.4027	-4.21268	0	
0.4547	18.3451	-6.94523	0	
0.4553	12.5559	-6.34749	0	
0.4560	9.19763	-3.58647	0	
0.4567	6.74159	-3.89958	0	
0.4573	2.78185	-4.52579	0	
0.4580	-2.40592	-4.21268	0	
0.4587	-5.46344	-4.81043	0	
0.4593	-8.19517	-2.98873	0	
0.4600	-10.0497	-1.16703	0	
0.4607	-9.42319	-2.36252	0	
0.4613	-10.9519	0.0569281	0	
0.4620	-21.3275	4.63964	0	
0.4627	-34.4598	4.32654	0	
0.4633	-43.6073	1.59399	0	
0.4640	-44.5346	0.967778	0	
0.4647	-34.7605	2.81794	0	
0.4653	-20.0995	4.63964	0	
0.4660	-10.3505	3.41569	0	
0.4667	-6.99221	0.683138	0	
0.4673	-6.06492	-0.540817	0	
0.4680	-5.46344	-0.227713	0	
0.4687	-4.53616	-0.227713	0	
0.4693	-3.0074	-0.853922	0	
0.4700	0.0250617	-1.16703	0	
0.4707	2.78185	-2.07788	0	
0.4713	3.38333	-3.58647	0	
0.4720	7.36813	-4.21268	0	
0.4727	13.1574	-4.81043	0	
0.4733	13.4581	-5.72128	0	
0.4740	11.9294	-5.43664	0	
0.4747	11.9294	-3.58647	0	
0.4753	4.31061	-3.30183	0	
0.4760	-4.23542	-4.21268	0	
0.4767	-4.53616	-3.89958	0	
0.4773	-6.69147	-3.58647	0	
0.4780	-10.0497	-3.89958	0	
0.4787	-4.86196	-2.98873	0	
0.4793	-3.0074	-1.76477	0	
0.4800	-9.42319	-1.16703	0	
0.4807	-10.9519	1.59399	0	
0.4813	-11.2527	2.81794	0	
0.4820	-18.27	2.19173	0	
0.4827	-23.4577	3.72879	0	
0.4833	-24.385	5.26585	0	
0.4840	-21.3275	3.41569	0	
0.4847	-12.7815	3.41569	0	
0.4853	-4.53616	3.41569	0	
0.4860	2.78185	1.59399	0	
0.4867	14.6861	3.41569	0	
0.4873	21.1019	6.1767	0	
0.4880	18.3451	4.95275	0	
0.4887	18.3451	2.50484	0	
0.4893	18.3451	0.0569281	0	
0.4900	12.5559	-3.89958	0	
0.4907	9.79911	-4.21268	0	
0.4913	11.6286	-3.89958	0	
0.4920	14.3854	-6.03438	0	
0.4927	18.3451	-8.48229	0	
0.4933	17.4179	-8.48229	0	
0.4940	10.0999	-5.12353	0	
0.4947	10.4006	-1.16703	0	
0.4953	18.0444	0.683138	0	
0.4960	16.5156	0.683138	0	
0.4967	9.19763	1.59399	0	
0.4973	7.96961	1.28088	0	
0.4980	8.87183	2.50484	0	
0.4987	2.78185	5.26585	0	
0.4993	-4.23542	3.72879	0	
0.5000	-7.29295	0.683138	0	
0.5007	-10.9519	2.19173	0	
0.5013	-18.27	3.10258	0	
0.5020	-28.6455	2.81794	0	
0.5027	-39.6476	3.72879	0	
0.5033	-44.8353	3.10258	0	
0.5040	-42.0785	3.10258	0	
0.5047	-36.59	4.63964	0	
0.5053	-31.4023	4.0419	0	
0.5060	-26.5152	4.63964	0	
0.5067	-22.2548	5.26585	0	
0.5073	-17.3677	0.370033	0	
0.5080	-10.0497	-3.89958	0	
0.5087	-5.46344	-4.52579	0	
0.5093	-3.3332	-7.85608	0	
0.5100	4.91209	-7.57144	0	
0.5107	17.4179	-1.45167	0	
0.5113	23.5329	-0.853922	0	
0.5120	24.1344	-3.89958	0	
0.5127	24.4351	-2.98873	0	
0.5133	24.7609	-1.45167	0	
0.5140	23.8336	-2.67562	0	
0.5147	23.5329	-3.30183	0	
0.5153	23.8336	-2.98873	0	
0.5160	22.0041	-0.853922	0	
0.5167	15.8891	-1.76477	0	
0.5173	11.3279	-6.03438	0	
0.5180	11.6286	-6.66059	0	
0.5187	14.6861	-2.07788	0	
0.5193	18.6459	-1.45167	0	
0.5200	22.9314	-4.52579	0	
0.5207	20.1746	-2.98873	0	
0.5213	8.27035	0.967778	0	
0.5220	-7.29295	2.50484	0	
0.5227	-19.1972	7.08755	0	
0.5233	-23.157	13.1789	0	
0.5240	-22.5555	14.0897	0	
0.5247	-21.6282	11.3572	0	
0.5253	-18.8965	7.6853	0	
0.5260	-12.7815	2.81794	0	
0.5267	-6.99221	0.683138	0	
0.5273	-3.63394	-1.16703	0	
0.5280	0.0250617	-6.03438	0	
0.5287	1.25308	-7.57144	0	
0.5293	-2.40592	-4.21268	0	
0.5300	-6.36566	-4.21268	0	
0.5307	-4.23542	-5.12353	0	
0.5313	2.48111	-5.72128	0	
0.5320	8.87183	-10.304	0	
0.5327	15.5884	-13.065	0	
0.5333	21.7034	-8.48229	0	
0.5340	21.4027	-5.72128	0	
0.5347	14.6861	-5.72128	0	
0.5353	6.74159	-2.67562	0	
0.5360	3.38333	-1.45167	0	
0.5367	4.61135	-2.98873	0	
0.5373	5.21283	-1.16703	0	
0.5380	4.61135	2.19173	0	
0.5387	7.96961	3.41569	0	
0.5393	11.6286	1.90709	0	
0.5400	8.27035	-0.540817	0	
0.5407	5.51357	-0.227713	0	
0.5413	5.51357	2.50484	0	
0.5420	0.952343	3.10258	0	
0.5427	-3.3332	3.41569	0	
0.5433	-1.1779	5.8636	0	
0.5440	-3.0074	4.95275	0	
0.5447	-11.5534	2.19173	0	
0.5453	-16.4405	3.41569	0	
0.5460	-15.839	3.72879	0	
0.5467	-12.7815	-0.227713	0	
0.5473	-8.19517	-1.76477	0	
0.5480	-4.86196	-0.227713	0	
0.5487	-3.93468	-2.07788	0	
0.5493	-3.3332	-4.81043	0	
0.5500	-3.3332	-2.98873	0	
0.5507	-1.80444	0.683138	0	
0.5513	5.51357	-0.853922	0	
0.5520	12.8566	-5.12353	0	
0.5527	14.6861	-7.57144	0	
0.5533	14.6861	-7.57144	0	
0.5540	17.4179	-5.72128	0	
0.5547	19.8739	-3.89958	0	
0.5553	19.5732	-3.30183	0	
0.5560	15.8891	-2.98873	0	
0.5567	8.27035	-2.36252	0	
0.5573	-0.275678	-2.98873	0	
0.5580	0.0250617	-3.58647	0	
0.5587	12.2301	-0.540817	0	
0.5593	20.1746	2.81794	0	
0.5600	10.0999	4.0419	0	
0.5607	-8.52097	4.63964	0	
0.5613	-22.2548	5.8636	0	
0.5620	-33.8333	6.46134	0	
0.5627	-45.1361	7.6853	0	
0.5633	-44.8353	8.90925	0	
0.5640	-28.044	7.9984	0	
0.5647	-7.29295	6.77445	0	
0.5653	5.21283	4.63964	0	
0.5660	11.6286	-1.16703	0	
0.5667	13.1574	-5.12353	0	
0.5673	9.19763	-3.30183	0	
0.5680	3.68407	-0.540817	0	
0.5687	3.68407	-1.76477	0	
0.5693	7.04233	-2.67562	0	
0.5700	7.36813	-0.853922	0	
0.5707	4.31061	-0.540817	0	
0.5713	7.04233	-2.98873	0	
0.5720	18.0444	-2.98873	0	
0.5727	23.8336	-2.98873	0	
0.5733	20.7761	-6.03438	0	
0.5740	19.8739	-6.66059	0	
0.5747	21.1019	-3.30183	0	
0.5753	17.1171	-3.30183	0	
0.5760	10.7013	-5.72128	0	
0.5767	5.83937	-2.67562	0	
0.5773	2.18037	3.10258	0	
0.5780	-0.275678	5.26585	0	
0.5787	-2.70666	5.55049	0	
0.5793	-5.46344	5.8636	0	
0.5800	-6.36566	4.32654	0	
0.5807	-4.86196	2.19173	0	
0.5813	-6.69147	1.59399	0	
0.5820	-13.3829	3.41569	0	
0.5827	-21.0267	5.26585	0	
0.5833	-24.6857	2.50484	0	
0.5840	-24.9865	-0.227713	0	
0.5847	-26.816	-0.227713	0	
0.5853	-26.816	-1.16703	0	
0.5860	-20.4253	-2.07788	0	
0.5867	-13.0822	1.90709	0	
0.5873	-10.9519	5.26585	0	
0.5880	-12.18	2.50484	0	
0.5887	-12.7815	-0.853922	0	
0.5893	-10.0497	-2.07788	0	
0.5900	-7.29295	-1.16703	0	
0.5907	-5.1627	-0.227713	0	
0.5913	0.0250617	-2.67562	0	
0.5920	7.96961	-5.72128	0	
0.5927	13.7589	-6.94523	0	
0.5933	14.9869	-6.94523	0	
0.5940	12.8566	-6.34749	0	
0.5947	9.49837	-4.81043	0	
0.5953	7.36813	-3.89958	0	
0.5960	6.44085	-2.98873	0	
0.5967	6.44085	0.370033	0	
0.5973	6.44085	2.19173	0	
0.5980	3.38333	1.59399	0	
0.5987	-2.10518	0.683138	0	
0.5993	-7.89443	1.28088	0	
0.6000	-10.0497	1.90709	0	
0.6007	-8.52097	3.41569	0	
0.6013	-7.89443	6.46134	0	
0.6020	-12.7815	9.22236	0	
0.6027	-19.1972	8.90925	0	
0.6033	-21.929	7.08755	0	
0.6040	-22.8562	6.1767	0	
0.6047	-22.8562	4.63964	0	
0.6053	-20.0995	-0.227713	0	
0.6060	-15.5382	-3.89958	0	
0.6067	-10.9519	-3.58647	0	
0.6073	-6.36566	-2.36252	0	
0.6080	-5.1627	-4.81043	0	
0.6087	-6.36566	-7.25834	0	
0.6093	-2.10518	-4.81043	0	
0.6100	3.38333	-1.45167	0	
0.6107	4.61135	-1.76477	0	
0.6113	7.36813	-4.21268	0	
0.6120	16.5156	-7.57144	0	
0.6127	23.8336	-8.48229	0	
0.6133	24.1344	-7.57144	0	
0.6140	22.3049	-7.85608	0	
0.6147	19.2474	-8.7954	0	
0.6153	14.3854	-4.81043	0	
0.6160	10.0999	-0.227713	0	
0.6167	7.36813	-2.36252	0	
0.6173	7.36813	-5.72128	0	
0.6180	9.79911	-3.58647	0	
0.6187	8.57109	-1.16703	0	
0.6193	4.31061	-3.58647	0	
0.6200	0.952343	-4.81043	0	
0.6207	-2.10518	-2.98873	0	
0.6213	-7.29295	0.683138	0	
0.6220	-13.7087	2.50484	0	
0.6227	-18.5958	3.10258	0	
0.6233	-19.1972	5.26585	0	
0.6240	-16.4405	6.46134	0	
0.6247	-13.7087	4.0419	0	
0.6253	-7.59369	2.50484	0	
0.6260	-0.576418	4.32654	0	
0.6267	-0.275678	3.41569	0	
0.6273	-2.10518	0.683138	0	
0.6280	-0.877158	-0.853922	0	
0.6287	-2.70666	-2.67562	0	
0.6293	-6.36566	-2.07788	0	
0.6300	-3.0074	1.59399	0	
0.6307	3.08259	0.0569281	0	
0.6313	4.61135	-5.43664	0	
0.6320	4.61135	-7.57144	0	
0.6327	3.08259	-4.21268	0	
0.6333	-1.80444	-0.853922	0	
0.6340	-5.1627	-1.45167	0	
0.6347	-4.53616	-3.58647	0	
0.6353	-5.46344	-1.45167	0	
0.6360	-4.53616	2.81794	0	
0.6367	7.66887	3.41569	0	
0.6373	23.2322	0.683138	0	
0.6380	27.4927	-1.16703	0	
0.6387	21.4027	0.683138	0	
0.6393	13.7589	3.41569	0	
0.6400	9.79911	4.32654	0	
0.6407	9.79911	4.63964	0	
0.6413	11.9294	4.32654	0	
0.6420	13.1574	3.41569	0	
0.6427	11.3279	5.26585	0	
0.6433	4.61135	7.9984	0	
0.6440	-2.40592	5.8636	0	
0.6447	-6.36566	3.41569	0	
0.6453	-7.29295	4.0419	0	
0.6460	-6.99221	3.41569	0	
0.6467	-4.53616	1.90709	0	
0.6473	-3.63394	4.0419	0	
0.6480	-4.23542	6.46134	0	
0.6487	-5.46344	4.63964	0	
0.6493	-7.89443	0.967778	0	
0.6500	-9.42319	-1.76477	0	
0.6507	-6.99221	-5.72128	0	
0.6513	-2.70666	-8.7954	0	
0.6520	1.85456	-8.16919	0	
0.6527	4.31061	-7.57144	0	
0.6533	4.31061	-9.70625	0	
0.6540	6.44085	-9.08004	0	
0.6547	12.2301	-6.34749	0	
0.6553	15.5884	-5.72128	0	
0.6560	14.6861	-2.98873	0	
0.6567	11.3279	2.81794	0	
0.6573	3.08259	4.32654	0	
0.6580	-5.46344	1.90709	0	
0.6587	-2.70666	1.59399	0	
0.6593	9.19763	1.59399	0	
0.6600	11.6286	-1.16703	0	
0.6607	-0.877158	-2.36252	0	
0.6613	-17.3677	-0.227713	0	
0.6620	-29.272	2.50484	0	
0.6627	-35.6628	3.72879	0	
0.6633	-39.3468	4.32654	0	
0.6640	-44.2088	6.1767	0	
0.6647	-50.9253	4.32654	0	
0.6653	-51.5519	0.0569281	0	
0.6660	-44.2088	0.0569281	0	
0.6667	-33.8333	3.72879	0	
0.6673	-20.4253	4.0419	0	
0.6680	2.48111	0.967778	0	
0.6687	32.0789	-1.76477	0	
0.6693	54.6595	-3.58647	0	
0.6700	55.5868	-3.30183	0	
0.6707	39.9984	-1.16703	0	
0.6713	25.0617	-1.16703	0	
0.6720	22.0041	-3.89958	0	
0.6727	26.2897	-6.94523	0	
0.6733	25.6631	-8.7954	0	
0.6740	21.1019	-6.94523	0	
0.6747	23.5329	-4.21268	0	
0.6753	29.3222	-5.12353	0	
0.6760	27.4927	-6.34749	0	
0.6767	21.4027	-2.98873	0	
0.6773	20.7761	0.0569281	0	
0.6780	18.0444	0.683138	0	
0.6787	10.0999	1.90709	0	
0.6793	6.74159	4.63964	0	
0.6800	7.66887	3.72879	0	
0.6807	4.31061	1.90709	0	
0.6813	-3.63394	4.32654	0	
0.6820	-12.7815	7.6853	0	
0.6827	-20.0995	6.77445	0	
0.6833	-22.8562	3.41569	0	
0.6840	-24.0843	2.81794	0	
0.6847	-28.3447	2.19173	0	
0.6853	-32.0038	-1.16703	0	
0.6860	-28.044	-3.30183	0	
0.6867	-16.7412	-2.67562	0	
0.6873	-7.29295	-1.76477	0	
0.6880	-5.1627	-2.67562	0	
0.6887	-6.06492	-4.81043	0	
0.6893	-6.69147	-6.03438	0	
0.6900	-5.46344	-4.81043	0	
0.6907	-3.0074	-3.58647	0	
0.6913	-0.576418	-3.89958	0	
0.6920	9.19763	-4.52579	0	
0.6927	25.0617	-4.21268	0	
0.6933	30.8509	-6.34749	0	
0.6940	24.4351	-8.7954	0	
0.6947	19.5732	-6.66059	0	
0.6953	18.0444	-3.89958	0	
0.6960	13.1574	-3.30183	0	
0.6967	8.57109	-3.58647	0	
0.6973	6.74159	-2.36252	0	
0.6980	7.04233	-1.16703	0	
0.6987	8.87183	0.683138	0	
0.6993	6.14011	3.41569	0	
0.7000	0.0250617	4.0419	0	
0.7007	-0.877158	4.32654	0	
0.7013	-3.3332	7.6853	0	
0.7020	-14.611	8.31151	0	
0.7027	-23.157	5.8636	0	
0.7033	-23.4577	4.95275	0	
0.7040	-24.385	4.63964	0	
0.7047	-24.385	2.19173	0	
0.7053	-20.0995	1.59399	0	
0.7060	-16.4405	3.72879	0	
0.7067	-13.7087	2.50484	0	
0.7073	-10.3505	-0.853922	0	
0.7080	-7.59369	-1.45167	0	
0.7087	-3.93468	-1.16703	0	
0.7093	-1.80444	-2.07788	0	
0.7100	-2.70666	-2.07788	0	
0.7107	-0.877158	-0.540817	0	
0.7113	4.61135	-0.540817	0	
0.7120	10.7013	-2.07788	0	
0.7127	16.5156	-2.67562	0	
0.7133	21.1019	-2.67562	0	
0.7140	20.1746	-3.89958	0	
0.7147	18.6459	-4.81043	0	
0.7153	17.4179	-4.81043	0	
0.7160	12.2301	-2.98873	0	
0.7167	7.36813	-0.227713	0	
0.7173	5.51357	-0.227713	0	
0.7180	2.78185	-1.45167	0	
0.7187	0.651603	1.28088	0	
0.7193	0.0250617	4.32654	0	
0.7200	-3.63394	2.50484	0	
0.7207	-10.0497	0.967778	0	
0.7213	-17.3677	3.10258	0	
0.7220	-25.613	4.32654	0	
0.7227	-29.272	5.26585	0	
0.7233	-27.4425	6.1767	0	
0.7240	-27.1167	4.0419	0	
0.7247	-26.5152	3.10258	0	
0.7253	-22.5555	5.26585	0	
0.7260	-21.3275	4.63964	0	
0.7267	-20.4253	1.59399	0	
0.7273	-13.7087	-0.227713	0	
0.7280	-8.52097	-2.07788	0	
0.7287	-6.06492	-0.540817	0	
0.7293	1.85456	2.81794	0	
0.7300	11.0271	1.90709	0	
0.7307	11.9294	-2.07788	0	
0.7313	10.4006	-3.89958	0	
0.7320	12.8566	-6.66059	0	
0.7327	16.5156	-10.304	0	
0.7333	19.2474	-12.1542	0	
0.7340	23.2322	-12.4388	0	
0.7347	22.9314	-10.0194	0	
0.7353	17.7437	-5.72128	0	
0.7360	14.6861	-4.21268	0	
0.7367	13.4581	-2.98873	0	
0.7373	7.96961	-1.16703	0	
0.7380	1.85456	-2.98873	0	
0.7387	-0.877158	-3.89958	0	
0.7393	-3.93468	0.370033	0	
0.7400	-6.99221	1.59399	0	
0.7407	-6.69147	-2.98873	0	
0.7413	-7.29295	-3.89958	0	
0.7420	-11.8792	-0.227713	0	
0.7427	-15.839	0.683138	0	
0.7433	-17.3677	0.683138	0	
0.7440	-17.6685	1.59399	0	
0.7447	-15.2375	0.967778	0	
0.7453	-9.12245	0.683138	0	
0.7460	-3.0074	2.50484	0	
0.7467	-0.275678	2.50484	0	
0.7473	1.25308	0.683138	0	
0.7480	4.31061	0.683138	0	
0.7487	5.51357	-0.227713	0	
0.7493	4.61135	-3.58647	0	
0.7500	6.44085	-4.21268	0	
0.7507	7.66887	-3.89958	0	
0.7513	8.57109	-5.72128	0	
0.7520	14.9869	-7.85608	0	
0.7527	21.4027	-7.57144	0	
0.7533	21.1019	-6.66059	0	
0.7540	20.1746	-6.03438	0	
0.7547	21.7034	-3.30183	0	
0.7553	17.7437	-1.45167	0	
0.7560	8.87183	-2.07788	0	
0.7567	1.85456	0.967778	0	
0.7573	-2.10518	4.95275	0	
0.7580	-4.53616	4.0419	0	
0.7587	-7.29295	1.90709	0	
0.7593	-10.9519	1.59399	0	
0.7600	-12.7815	0.370033	0	
0.7607	-10.3505	-0.540817	0	
0.7613	-9.42319	3.10258	0	
0.7620	-15.5382	6.46134	0	
0.7627	-21.929	5.8636	0	
0.7633	-23.157	5.26585	0	
0.7640	-22.8562	7.08755	0	
0.7647	-21.0267	6.1767	0	
0.7653	-15.5382	4.95275	0	
0.7660	-11.5534	4.32654	0	
0.7667	-14.3102	1.28088	0	
0.7673	-19.7987	-0.227713	0	
0.7680	-21.929	4.0419	0	
0.7687	-14.0095	6.1767	0	
0.7693	1.55382	0.683138	0	
0.7700	6.14011	-2.07788	0	
0.7707	-1.80444	0.967778	0	
0.7713	0.952343	1.28088	0	
0.7720	20.1746	-2.36252	0	
0.7727	32.0789	-2.98873	0	
0.7733	28.4199	-3.58647	0	
0.7740	23.8336	-9.08004	0	
0.7747	24.1344	-13.065	0	
0.7753	24.4351	-9.70625	0	
0.7760	22.3049	-3.89958	0	
0.7767	17.4179	-1.45167	0	
0.7773	12.2301	-0.853922	0	
0.7780	8.57109	-1.45167	0	
0.7787	5.21283	-1.16703	0	
0.7793	1.85456	3.10258	0	
0.7800	1.85456	4.95275	0	
0.7807	2.78185	1.28088	0	
0.7813	-3.3332	0.683138	0	
0.7820	-10.9519	4.63964	0	
0.7827	-13.3829	6.46134	0	
0.7833	-14.611	5.8636	0	
0.7840	-18.5958	5.26585	0	
0.7847	-17.6685	2.50484	0	
0.7853	-12.4807	0.683138	0	
0.7860	-8.19517	1.90709	0	
0.7867	-1.80444	1.59399	0	
0.7873	7.36813	-0.540817	0	
0.7880	14.6861	-0.540817	0	
0.7887	16.5156	0.967778	0	
0.7893	13.7589	1.59399	0	
0.7900	9.19763	0.683138	0	
0.7907	5.51357	1.59399	0	
0.7913	5.51357	3.41569	0	
0.7920	7.96961	0.683138	0	
0.7927	9.49837	-3.89958	0	
0.7933	7.04233	-2.36252	0	
0.7940	3.68407	-0.853922	0	
0.7947	2.78185	-1.16703	0	
0.7953	2.78185	2.19173	0	
0.7960	2.78185	2.81794	0	
0.7967	1.55382	-1.16703	0	
0.7973	-1.80444	-2.07788	0	
0.7980	-3.3332	-0.853922	0	
0.7987	-2.10518	-2.36252	0	
0.7993	-3.63394	-1.76477	0	
0.8000	-5.46344	1.59399	0	
0.8007	-4.53616	3.72879	0	
0.8013	-8.19517	6.46134	0	
0.8020	-19.7987	6.1767	0	
0.8027	-27.4425	3.41569	0	
0.8033	-26.2145	7.08755	0	
0.8040	-25.2872	10.7594	0	
0.8047	-24.6857	6.77445	0	
0.8053	-20.726	3.41569	0	
0.8060	-17.9692	4.32654	0	
0.8067	-16.1397	3.41569	0	
0.8073	-10.3505	2.50484	0	
0.8080	-5.76418	1.90709	0	
0.8087	-3.93468	-0.227713	0	
0.8093	1.25308	-1.16703	0	
0.8100	6.14011	-1.45167	0	
0.8107	5.51357	-3.30183	0	
0.8113	8.57109	-3.89958	0	
0.8120	16.2149	-3.89958	0	
0.8127	16.5156	-4.21268	0	
0.8133	11.9294	-4.52579	0	
0.8140	10.0999	-3.89958	0	
0.8147	8.87183	-2.36252	0	
0.8153	5.83937	-1.16703	0	
0.8160	2.18037	-2.98873	0	
0.8167	-2.10518	-6.03438	0	
0.8173	-2.10518	-5.12353	0	
0.8180	4.61135	-2.98873	0	
0.8187	8.27035	-2.07788	0	
0.8193	4.31061	-1.16703	0	
0.8200	-1.5037	-1.16703	0	
0.8207	-8.52097	-1.76477	0	
0.8213	-16.4405	0.370033	0	
0.8220	-22.2548	3.10258	0	
0.8227	-25.613	4.95275	0	
0.8233	-28.3447	5.55049	0	
0.8240	-27.4425	3.10258	0	
0.8247	-23.157	0.0569281	0	
0.8253	-17.9692	0.967778	0	
0.8260	-13.7087	0.683138	0	
0.8267	-10.0497	-2.07788	0	
0.8273	-4.53616	-2.07788	0	
0.8280	2.78185	-1.16703	0	
0.8287	7.36813	-3.30183	0	
0.8293	7.36813	-4.81043	0	
0.8300	6.74159	-4.52579	0	
0.8307	7.36813	-5.43664	0	
0.8313	10.0999	-6.66059	0	
0.8320	16.8164	-6.66059	0	
0.8327	24.1344	-6.34749	0	
0.8333	27.4927	-4.81043	0	
0.8340	26.8912	-4.81043	0	
0.8347	25.6631	-6.94523	0	
0.8353	22.9314	-7.57144	0	
0.8360	16.8164	-6.34749	0	
0.8367	12.5559	-3.89958	0	
0.8373	14.0596	-0.853922	0	
0.8380	14.6861	1.28088	0	
0.8387	8.27035	0.0569281	0	
0.8393	1.85456	-1.16703	0	
0.8400	-1.1779	-2.07788	0	
0.8407	-3.3332	-1.45167	0	
0.8413	-4.86196	1.59399	0	
0.8420	-8.52097	4.32654	0	
0.8427	-15.839	3.41569	0	
0.8433	-21.0267	3.41569	0	
0.8440	-21.3275	6.46134	0	
0.8447	-19.7987	7.6853	0	
0.8453	-15.5382	5.55049	0	
0.8460	-10.3505	2.81794	0	
0.8467	-8.82171	0.683138	0	
0.8473	-6.99221	0.370033	0	
0.8480	-2.40592	0.967778	0	
0.8487	-1.1779	0.370033	0	
0.8493	-0.576418	-0.853922	0	
0.8500	3.38333	-2.98873	0	
0.8507	5.21283	-6.03438	0	
0.8513	4.61135	-9.08004	0	
0.8520	9.49837	-11.5279	0	
0.8527	17.7437	-12.7519	0	
0.8533	21.4027	-11.2148	0	
0.8540	19.2474	-9.70625	0	
0.8547	15.5884	-9.39314	0	
0.8553	12.8566	-5.72128	0	
0.8560	11.9294	-2.07788	0	
0.8567	10.4006	-1.16703	0	
0.8573	8.57109	-1.45167	0	
0.8580	7.04233	-1.16703	0	
0.8587	2.48111	-0.227713	0	
0.8593	-2.70666	2.50484	0	
0.8600	-2.70666	3.10258	0	
0.8607	-2.10518	2.19173	0	
0.8613	-7.29295	5.8636	0	
0.8620	-10.0497	8.90925	0	
0.8627	-5.46344	6.1767	0	
0.8633	-4.53616	4.95275	0	
0.8640	-10.9519	6.1767	0	
0.8647	-13.7087	3.41569	0	
0.8653	-8.19517	-0.540817	0	
0.8660	-4.86196	-1.16703	0	
0.8667	-3.93468	-1.16703	0	
0.8673	0.0250617	-1.45167	0	
0.8680	2.78185	-1.16703	0	
0.8687	1.85456	-2.36252	0	
0.8693	1.85456	-3.89958	0	
0.8700	4.00987	-3.89958	0	
0.8707	5.51357	-2.98873	0	
0.8713	7.36813	-4.21268	0	
0.8720	11.9294	-4.81043	0	
0.8727	20.1746	-3.89958	0	
0.8733	26.8912	-3.89958	0	
0.8740	25.3624	-3.89958	0	
0.8747	22.0041	-3.30183	0	
0.8753	22.0041	-3.89958	0	
0.8760	19.2474	-3.58647	0	
0.8767	13.1574	-0.227713	0	
0.8773	10.0999	0.0569281	0	
0.8780	6.44085	-2.98873	0	
0.8787	1.85456	-3.30183	0	
0.8793	0.651603	-0.853922	0	
0.8800	-0.576418	-0.853922	0	
0.8807	-6.69147	-2.36252	0	
0.8813	-12.7815	-1.16703	0	
0.8820	-13.0822	0.967778	0	
0.8827	-11.5534	2.50484	0	
0.8833	-12.4807	3.41569	0	
0.8840	-15.2375	2.81794	0	
0.8847	-15.5382	0.370033	0	
0.8853	-13.7087	0.683138	0	
0.8860	-13.0822	2.50484	0	
0.8867	-11.8792	-0.540817	0	
0.8873	-10.0497	-3.30183	0	
0.8880	-10.3505	-2.67562	0	
0.8887	-11.8792	-3.89958	0	
0.8893	-10.9519	-5.12353	0	
0.8900	-8.52097	-2.98873	0	
0.8907	-3.0074	-2.07788	0	
0.8913	2.78185	-3.58647	0	
0.8920	4.91209	-3.89958	0	
0.8927	8.27035	-4.81043	0	
0.8933	13.1574	-6.94523	0	
0.8940	13.4581	-6.94523	0	
0.8947	9.49837	-6.03438	0	
0.8953	8.57109	-4.81043	0	
0.8960	9.49837	-2.36252	0	
0.8967	9.19763	-0.227713	0	
0.8973	7.04233	0.683138	0	
0.8980	3.68407	1.28088	0	
0.8987	-0.576418	0.683138	0	
0.8993	-4.23542	-0.227713	0	
0.9000	-6.36566	2.19173	0	
0.9007	-9.12245	3.72879	0	
0.9013	-17.3677	3.41569	0	
0.9020	-25.613	5.26585	0	
0.9027	-25.2872	9.22236	0	
0.9033	-20.4253	10.1332	0	
0.9040	-19.1972	6.1767	0	
0.9047	-18.27	2.50484	0	
0.9053	-16.1397	4.63964	0	
0.9060	-15.2375	7.6853	0	
0.9067	-13.0822	5.55049	0	
0.9073	-13.7087	3.10258	0	
0.9080	-21.6282	0.967778	0	
0.9087	-28.044	-3.58647	0	
0.9093	-29.5728	-5.72128	0	
0.9100	-29.272	-2.98873	0	
0.9107	-23.7835	-0.540817	0	
0.9113	-15.839	-0.540817	0	
0.9120	-11.2527	-1.16703	0	
0.9127	-4.53616	-2.98873	0	
0.9133	3.68407	-4.21268	0	
0.9140	5.51357	-2.98873	0	
0.9147	6.14011	-2.98873	0	
0.9153	10.0999	-2.67562	0	
0.9160	14.3854	-0.227713	0	
0.9167	20.7761	-0.227713	0	
0.9173	33.6077	-0.227713	0	
0.9180	48.2437	1.28088	0	
0.9187	58.3185	0.683138	0	
0.9193	53.7322	-0.227713	0	
0.9200	35.1365	2.81794	0	
0.9207	18.6459	2.50484	0	
0.9213	10.7013	-0.853922	0	
0.9220	3.38333	0.683138	0	
0.9227	-3.63394	2.50484	0	
0.9233	-9.72393	-0.227713	0	
0.9240	-14.9117	-0.853922	0	
0.9247	-15.839	1.28088	0	
0.9253	-14.611	1.59399	0	
0.9260	-14.3102	0.683138	0	
0.9267	-10.9519	-0.540817	0	
0.9273	-4.86196	-2.07788	0	
0.9280	0.952343	-1.16703	0	
0.9287	8.27035	2.19173	0	
0.9293	11.9294	4.0419	0	
0.9300	9.49837	1.90709	0	
0.9307	10.7013	-0.227713	0	
0.9313	15.5884	-1.16703	0	
0.9320	18.0444	-3.58647	0	
0.9327	23.8336	-4.52579	0	
0.9333	29.3222	-3.30183	0	
0.9340	24.7609	-3.89958	0	
0.9347	18.6459	-3.89958	0	
0.9353	17.7437	0.370033	0	
0.9360	12.2301	2.81794	0	
0.9367	3.08259	2.50484	0	
0.9373	-0.576418	3.10258	0	
0.9380	-0.877158	2.50484	0	
0.9387	1.25308	1.59399	0	
0.9393	6.14011	4.32654	0	
0.9400	9.19763	2.50484	0	
0.9407	4.00987	-3.89958	0	
0.9413	-6.99221	-5.72128	0	
0.9420	-17.9692	-2.36252	0	
0.9427	-24.385	1.90709	0	
0.9433	-26.5152	2.50484	0	
0.9440	-26.5152	-0.227713	0	
0.9447	-24.385	-0.540817	0	
0.9453	-21.929	0.0569281	0	
0.9460	-21.0267	-2.98873	0	
0.9467	-18.8965	-3.30183	0	
0.9473	-14.0095	-1.45167	0	
0.9480	-8.82171	-3.89958	0	
0.9487	-4.86196	-5.12353	0	
0.9493	-1.1779	-2.36252	0	
0.9500	2.48111	-2.98873	0	
0.9507	5.21283	-3.30183	0	
0.9513	9.19763	-0.540817	0	
0.9520	14.6861	-3.30183	0	
0.9527	20.1746	-7.57144	0	
0.9533	25.0617	-4.81043	0	
0.9540	28.1192	-2.98873	0	
0.9547	25.0617	-3.89958	0	
0.9553	19.2474	-2.67562	0	
0.9560	15.5884	0.370033	0	
0.9567	12.5559	1.59399	0	
0.9573	8.27035	2.50484	0	
0.9580	4.31061	3.41569	0	
0.9587	0.0250617	3.41569	0	
0.9593	-5.46344	4.0419	0	
0.9600	-6.99221	3.72879	0	
0.9607	-6.06492	1.59399	0	
0.9613	-9.72393	0.370033	0	
0.9620	-16.4405	2.50484	0	
0.9627	-21.3275	7.08755	0	
0.9633	-22.8562	9.53546	0	
0.9640	-23.7835	6.77445	0	
0.9647	-23.157	4.32654	0	
0.9653	-19.7987	6.1767	0	
0.9660	-14.9117	5.8636	0	
0.9667	-12.7815	1.28088	0	
0.9673	-11.8792	-0.853922	0	
0.9680	-8.52097	-1.76477	0	
0.9687	-5.76418	-3.89958	0	
0.9693	-5.1627	-5.12353	0	
0.9700	-1.5037	-4.21268	0	
0.9707	3.68407	-3.30183	0	
0.9713	7.36813	-2.67562	0	
0.9720	12.8566	-5.12353	0	
0.9727	21.1019	-9.70625	0	
0.9733	24.1344	-10.0194	0	
0.9740	22.0041	-7.85608	0	
0.9747	20.1746	-7.25834	0	
0.9753	18.0444	-5.43664	0	
0.9760	12.5559	-1.16703	0	
0.9767	8.27035	1.59399	0	
0.9773	7.96961	1.28088	0	
0.9780	6.44085	0.683138	0	
0.9787	0.952343	0.967778	0	
0.9793	0.325802	1.90709	0	
0.9800	7.04233	1.90709	0	
0.9807	9.79911	2.81794	0	
0.9813	3.68407	4.95275	0	
0.9820	-4.53616	6.46134	0	
0.9827	-13.7087	7.08755	0	
0.9833	-19.7987	8.59615	0	
0.9840	-20.726	7.40066	0	
0.9847	-22.8562	4.0419	0	
0.9853	-28.6455	2.50484	0	
0.9860	-29.8735	2.81794	0	
0.9867	-26.816	1.59399	0	
0.9873	-23.7835	0.0569281	0	
0.9880	-19.1972	0.370033	0	
0.9887	-16.1397	-1.16703	0	
0.9893	-14.611	-3.89958	0	
0.9900	-10.3505	-2.98873	0	
0.9907	-6.36566	-0.227713	0	
0.9913	-4.23542	0.0569281	0	
0.9920	3.38333	0.683138	0	
0.9927	12.5559	1.28088	0	
0.9933	15.8891	-2.98873	0	
0.9940	17.4179	-8.16919	0	
0.9947	18.0444	-8.7954	0	
0.9953	14.6861	-7.25834	0	
0.9960	12.5559	-4.81043	0	
0.9967	9.49837	-1.45167	0	
0.9973	3.38333	-0.853922	0	
0.9980	0.325802	-3.58647	0	
0.9987	-0.275678	-4.81043	0	
0.9993	-2.70666	-4.81043	0	
1.0000	-2.70666	-3.89958	0	
1.0007	-1.80444	-0.853922	0	
1.0013	-7.29295	0.967778	0	
1.0020	-14.611	0.967778	0	
1.0027	-19.7987	2.81794	0	
1.0033	-25.2872	5.26585	0	
1.0040	-29.272	5.26585	0	
1.0047	-25.613	4.32654	0	
1.0053	-18.8965	2.19173	0	
1.0060	-12.4807	-0.853922	0	
1.0067	-7.59369	-1.16703	0	
1.0073	-6.36566	1.28088	0	
1.0080	-7.59369	2.50484	0	
1.0087	-7.59369	0.967778	0	
1.0093	-6.06492	-0.227713	0	
1.0100	-3.3332	0.967778	0	
1.0107	-0.576418	1.90709	0	
1.0113	2.78185	-2.67562	0	
1.0120	10.7013	-7.85608	0	
1.0127	20.7761	-7.57144	0	
1.0133	23.5329	-5.72128	0	
1.0140	18.9466	-6.03438	0	
1.0147	19.2474	-4.81043	0	
1.0153	24.7609	-2.67562	0	
1.0160	24.7609	-1.16703	0	
1.0167	19.5732	0.370033	0	
1.0173	16.5156	-0.227713	0	
1.0180	14.9869	-3.89958	0	
1.0187	9.79911	-3.89958	0	
1.0193	3.68407	-1.16703	0	
1.0200	0.325802	-0.540817	0	
1.0207	-1.1779	1.59399	0	
1.0213	-4.53616	4.95275	0	
1.0220	-11.5534	4.0419	0	
1.0227	-17.067	2.81794	0	
1.0233	-16.4405	4.32654	0	
1.0240	-14.611	5.55049	0	
1.0247	-17.067	4.32654	0	
1.0253	-17.3677	1.28088	0	
1.0260	-11.2527	-1.16703	0	
1.0267	-8.19517	0.0569281	0	
1.0273	-10.9519	1.28088	0	
1.0280	-11.5534	-2.07788	0	
1.0287	-9.72393	-1.16703	0	
1.0293	-11.8792	2.19173	0	
1.0300	-13.3829	-0.540817	0	
1.0307	-6.99221	-2.67562	0	
1.0313	2.48111	1.28088	0	
1.0320	9.49837	-1.16703	0	
1.0327	13.7589	-10.6171	0	
1.0333	13.1574	-14.8867	0	
1.0340	11.0271	-12.1542	0	
1.0347	14.0596	-7.57144	0	
1.0353	22.0041	-3.58647	0	
1.0360	25.3624	-1.16703	0	
1.0367	19.2474	-1.45167	0	
1.0373	9.79911	-1.16703	0	
1.0380	5.21283	0.967778	0	
1.0387	4.00987	3.10258	0	
1.0393	-0.576418	2.81794	0	
1.0400	-5.1627	0.683138	0	
1.0407	-5.46344	0.683138	0	
1.0413	-9.72393	1.59399	0	
1.0420	-16.1397	1.59399	0	
1.0427	-17.3677	0.683138	0	
1.0433	-17.3677	0.0569281	0	
1.0440	-18.27	1.28088	0	
1.0447	-16.7412	2.81794	0	
1.0453	-13.7087	1.28088	0	
1.0460	-10.0497	-1.16703	0	
1.0467	-4.86196	0.683138	0	
1.0473	-2.70666	1.28088	0	
1.0480	-3.63394	-0.540817	0	
1.0487	0.0250617	-0.227713	0	
1.0493	5.51357	1.28088	0	
1.0500	6.44085	1.28088	0	
1.0507	4.61135	0.967778	0	
1.0513	4.31061	1.59399	0	
1.0520	6.44085	1.59399	0	
1.0527	10.0999	-0.227713	0	
1.0533	14.0596	-2.07788	0	
1.0540	16.5156	-1.16703	0	
1.0547	18.6459	1.90709	0	
1.0553	21.7034	0.683138	0	
1.0560	22.9314	-2.67562	0	
1.0567	23.8336	-3.58647	0	
1.0573	25.9639	-3.89958	0	
1.0580	26.8912	-4.52579	0	
1.0587	24.4351	-2.07788	0	
1.0593	20.1746	1.28088	0	
1.0600	14.6861	1.90709	0	
1.0607	9.19763	1.59399	0	
1.0613	2.78185	2.19173	0	
1.0620	-8.19517	4.32654	0	
1.0627	-21.3275	7.08755	0	
1.0633	-28.3447	5.8636	0	
1.0640	-30.1742	2.50484	0	
1.0647	-28.3447	4.0419	0	
1.0653	-22.5555	6.46134	0	
1.0660	-20.4253	5.55049	0	
1.0667	-22.5555	5.26585	0	
1.0673	-17.6685	6.1767	0	
1.0680	-10.3505	3.41569	0	
1.0687	-8.52097	0.683138	0	
1.0693	-5.46344	0.683138	0	
1.0700	-1.80444	-1.76477	0	
1.0707	-1.5037	-4.81043	0	
1.0713	2.78185	-4.81043	0	
1.0720	12.2301	-4.81043	0	
1.0727	16.5156	-6.34749	0	
1.0733	17.7437	-8.7954	0	
1.0740	20.4754	-11.8411	0	
1.0747	20.1746	-10.304	0	
1.0753	17.7437	-4.21268	0	
1.0760	17.1171	-2.67562	0	
1.0767	15.2876	-4.21268	0	
1.0773	12.2301	-2.07788	0	
1.0780	11.6286	0.683138	0	
1.0787	10.0999	1.59399	0	
1.0793	4.61135	2.50484	0	
1.0800	0.952343	0.967778	0	
1.0807	0.651603	-0.540817	0	
1.0813	-2.70666	2.50484	0	
1.0820	-11.5534	5.55049	0	
1.0827	-20.0995	4.32654	0	
1.0833	-24.0843	4.32654	0	
1.0840	-25.2872	5.26585	0	
1.0847	-24.385	4.32654	0	
1.0853	-21.929	3.41569	0	
1.0860	-18.27	1.59399	0	
1.0867	-14.611	-1.16703	0	
1.0873	-12.4807	-1.16703	0	
1.0880	-9.12245	0.370033	0	
1.0887	-5.1627	-2.36252	0	
1.0893	-2.70666	-5.72128	0	
1.0900	-1.1779	-5.12353	0	
1.0907	1.55382	-2.36252	0	
1.0913	5.21283	-2.07788	0	
1.0920	9.19763	-4.81043	0	
1.0927	14.6861	-7.25834	0	
1.0933	19.2474	-6.66059	0	
1.0940	21.7034	-5.72128	0	
1.0947	22.0041	-6.34749	0	
1.0953	21.1019	-6.03438	0	
1.0960	18.0444	-4.52579	0	
1.0967	12.8566	-3.89958	0	
1.0973	9.19763	-2.98873	0	
1.0980	11.0271	-1.16703	0	
1.0987	11.9294	0.0569281	0	
1.0993	6.74159	-0.227713	0	
1.1000	1.85456	-1.16703	0	
1.1007	0.325802	-0.227713	0	
1.1013	-2.40592	1.59399	0	
1.1020	-10.0497	1.59399	0	
1.1027	-18.27	2.81794	0	
1.1033	-24.385	7.6853	0	
1.1040	-27.7433	9.22236	0	
1.1047	-28.6455	4.63964	0	
1.1053	-28.044	2.19173	0	
1.1060	-25.9138	5.8636	0	
1.1067	-22.2548	8.31151	0	
1.1073	-17.3677	7.08755	0	
1.1080	-15.2375	5.26585	0	
1.1087	-13.7087	4.0419	0	
1.1093	-6.99221	1.28088	0	
1.1100	1.85456	-1.76477	0	
1.1107	3.68407	-3.58647	0	
1.1113	4.00987	-4.52579	0	
1.1120	9.19763	-5.72128	0	
1.1127	14.9869	-9.39314	0	
1.1133	18.3451	-11.8411	0	
1.1140	20.1746	-10.0194	0	
1.1147	18.3451	-7.85608	0	
1.1153	15.8891	-8.48229	0	
1.1160	15.2876	-8.7954	0	
1.1167	11.3279	-5.72128	0	
1.1173	6.14011	-2.67562	0	
1.1180	4.61135	-1.45167	0	
1.1187	2.78185	-1.16703	0	
1.1193	-3.63394	1.28088	0	
1.1200	-9.12245	3.41569	0	
1.1207	-9.72393	0.370033	0	
1.1213	-8.19517	-1.16703	0	
1.1220	-11.8792	3.41569	0	
1.1227	-18.5958	5.55049	0	
1.1233	-21.6282	3.72879	0	
1.1240	-20.0995	4.95275	0	
1.1247	-14.9117	7.08755	0	
1.1253	-7.29295	4.0419	0	
1.1260	-3.0074	0.967778	0	
1.1267	-4.53616	0.683138	0	
1.1273	-3.63394	-0.853922	0	
1.1280	-0.877158	-2.07788	0	
1.1287	0.0250617	-0.227713	0	
1.1293	0.952343	-0.227713	0	
1.1300	4.91209	-2.07788	0	
1.1307	5.83937	-2.36252	0	
1.1313	3.68407	-1.76477	0	
1.1320	5.21283	-3.30183	0	
1.1327	9.79911	-5.12353	0	
1.1333	13.7589	-5.43664	0	
1.1340	15.5884	-4.52579	0	
1.1347	15.8891	-2.98873	0	
1.1353	13.1574	-1.16703	0	
1.1360	12.8566	-0.853922	0	
1.1367	17.7437	-1.16703	0	
1.1373	21.4027	-0.227713	0	
1.1380	18.3451	1.28088	0	
1.1387	13.7589	1.90709	0	
1.1393	10.0999	2.50484	0	
1.1400	3.68407	3.10258	0	
1.1407	-2.40592	2.50484	0	
1.1413	-6.99221	2.19173	0	
1.1420	-14.611	4.0419	0	
1.1427	-27.7433	6.1767	0	
1.1433	-38.4195	6.1767	0	
1.1440	-38.4195	6.77445	0	
1.1447	-32.3045	7.6853	0	
1.1453	-28.044	5.26585	0	
1.1460	-25.613	2.19173	0	
1.1467	-20.0995	2.19173	0	
1.1473	-12.4807	1.59399	0	
1.1480	-8.19517	-1.16703	0	
1.1487	-6.06492	-1.76477	0	
1.1493	-1.1779	-0.853922	0	
1.1500	3.38333	-1.16703	0	
1.1507	5.21283	0.370033	0	
1.1513	7.96961	0.683138	0	
1.1520	13.7589	-3.58647	0	
1.1527	20.7761	-6.66059	0	
1.1533	22.9314	-5.72128	0	
1.1540	18.3451	-5.12353	0	
1.1547	15.2876	-4.81043	0	
1.1553	16.8164	-4.21268	0	
1.1560	16.2149	-4.52579	0	
1.1567	10.7013	-3.89958	0	
1.1573	8.27035	-1.45167	0	
1.1580	6.44085	-0.227713	0	
1.1587	1.85456	-0.227713	0	
1.1593	0.0250617	0.683138	0	
1.1600	3.08259	2.81794	0	
1.1607	3.08259	4.32654	0	
1.1613	0.0250617	3.10258	0	
1.1620	-3.0074	2.50484	0	
1.1627	-9.12245	5.26585	0	
1.1633	-14.0095	7.9984	0	
1.1640	-13.0822	7.6853	0	
1.1647	-13.7087	5.26585	0	
1.1653	-14.9117	1.28088	0	
1.1660	-10.6512	-0.227713	0	
1.1667	-3.63394	0.967778	0	
1.1673	-1.80444	1.90709	0	
1.1680	-5.1627	1.59399	0	
1.1687	-7.59369	0.0569281	0	
1.1693	-4.23542	-2.98873	0	
1.1700	1.85456	-3.89958	0	
1.1707	4.31061	-2.07788	0	
1.1713	6.74159	-1.76477	0	
1.1720	13.7589	-3.89958	0	
1.1727	20.4754	-7.57144	0	
1.1733	24.4351	-8.48229	0	
1.1740	26.5904	-6.34749	0	
1.1747	25.6631	-3.89958	0	
1.1753	22.6056	-2.07788	0	
1.1760	19.2474	-0.540817	0	
1.1767	13.7589	-1.16703	0	
1.1773	9.19763	-1.45167	0	
1.1780	10.0999	0.683138	0	
1.1787	8.27035	0.370033	0	
1.1793	2.48111	-0.853922	0	
1.1800	0.325802	0.683138	0	
1.1807	0.952343	-0.227713	0	
1.1813	-3.63394	-2.07788	0	
1.1820	-12.4807	1.90709	0	
1.1827	-19.1972	7.08755	0	
1.1833	-21.929	7.40066	0	
1.1840	-22.2548	5.26585	0	
1.1847	-21.3275	1.59399	0	
1.1853	-20.726	-2.07788	0	
1.1860	-20.0995	-2.98873	0	
1.1867	-18.27	-3.89958	0	
1.1873	-11.8792	-6.03438	0	
1.1880	-5.46344	-5.12353	0	
1.1887	-3.93468	-3.89958	0	
1.1893	-5.1627	-3.30183	0	
1.1900	-0.877158	-3.89958	0	
1.1907	3.68407	-6.34749	0	
1.1913	5.51357	-8.48229	0	
1.1920	11.0271	-7.57144	0	
1.1927	19.2474	-7.57144	0	
1.1933	21.4027	-8.48229	0	
1.1940	20.1746	-7.57144	0	
1.1947	21.1019	-6.94523	0	
1.1953	18.9466	-6.03438	0	
1.1960	13.7589	-3.58647	0	
1.1967	12.8566	-2.07788	0	
1.1973	10.0999	-2.07788	0	
1.1980	3.08259	-1.45167	0	
1.1987	0.952343	-0.853922	0	
1.1993	0.0250617	-0.540817	0	
1.2000	-3.93468	1.59399	0	
1.2007	-6.69147	3.72879	0	
1.2013	-7.59369	2.81794	0	
1.2020	-12.18	0.967778	0	
1.2027	-18.27	2.50484	0	
1.2033	-21.929	3.41569	0	
1.2040	-21.929	2.19173	0	
1.2047	-18.27	1.90709	0	
1.2053	-14.3102	2.81794	0	
1.2060	-12.7815	1.90709	0	
1.2067	-10.0497	0.967778	0	
1.2073	-6.36566	2.50484	0	
1.2080	-3.93468	2.50484	0	
1.2087	-2.40592	1.59399	0	
1.2093	-1.1779	2.50484	0	
1.2100	0.0250617	1.59399	0	
1.2107	3.68407	-0.227713	0	
1.2113	7.66887	0.0569281	0	
1.2120	10.0999	-1.16703	0	
1.2127	15.5884	-4.21268	0	
1.2133	21.4027	-3.30183	0	
1.2140	21.4027	-4.52579	0	
1.2147	20.1746	-10.9302	0	
1.2153	21.4027	-11.8411	0	
1.2160	15.2876	-7.57144	0	
1.2167	4.00987	-7.25834	0	
1.2173	0.325802	-6.34749	0	
1.2180	1.25308	-3.89958	0	
1.2187	-0.576418	-3.30183	0	
1.2193	-2.70666	-1.16703	0	
1.2200	-3.0074	2.19173	0	
1.2207	-4.53616	2.19173	0	
1.2213	-7.89443	2.50484	0	
1.2220	-13.3829	4.95275	0	
1.2227	-16.7412	6.1767	0	
1.2233	-17.3677	6.1767	0	
1.2240	-18.5958	4.32654	0	
1.2247	-18.5958	2.81794	0	
1.2253	-15.839	3.72879	0	
1.2260	-16.7412	3.41569	0	
1.2267	-19.1972	2.50484	0	
1.2273	-17.067	1.59399	0	
1.2280	-13.7087	-0.540817	0	
1.2287	-11.5534	-1.16703	0	
1.2293	-6.36566	1.28088	0	
1.2300	-0.275678	0.683138	0	
1.2307	2.18037	-2.07788	0	
1.2313	5.21283	-4.21268	0	
1.2320	11.9294	-7.25834	0	
1.2327	17.4179	-8.16919	0	
1.2333	19.5732	-6.94523	0	
1.2340	23.2322	-6.66059	0	
1.2347	30.8509	-3.89958	0	
1.2353	35.7379	-1.45167	0	
1.2360	33.6077	-3.30183	0	
1.2367	28.7207	-3.89958	0	
1.2373	22.9314	-2.07788	0	
1.2380	16.5156	-2.36252	0	
1.2387	10.0999	-2.36252	0	
1.2393	2.78185	0.0569281	0	
1.2400	-6.36566	0.683138	0	
1.2407	-14.611	0.683138	0	
1.2413	-19.7987	2.50484	0	
1.2420	-23.7835	4.0419	0	
1.2427	-26.2145	6.1767	0	
1.2433	-25.9138	9.22236	0	
1.2440	-23.7835	9.8201	0	
1.2447	-22.2548	8.90925	0	
1.2453	-20.4253	6.1767	0	
1.2460	-18.27	1.59399	0	
1.2467	-16.7412	0.967778	0	
1.2473	-15.2375	3.72879	0	
1.2480	-10.3505	1.90709	0	
1.2487	-4.53616	-2.36252	0	
1.2493	-3.63394	-4.81043	0	
1.2500	-7.29295	-9.08004	0	
1.2507	-10.0497	-10.304	0	
1.2513	-5.46344	-6.66059	0	
1.2520	2.78185	-5.72128	0	
1.2527	8.57109	-8.16919	0	
1.2533	14.0596	-6.94523	0	
1.2540	19.2474	-6.66059	0	
1.2547	18.6459	-9.39314	0	
1.2553	15.2876	-8.48229	0	
1.2560	15.8891	-5.43664	0	
1.2567	15.5884	-4.81043	0	
1.2573	10.7013	-4.81043	0	
1.2580	6.14011	-4.21268	0	
1.2587	3.38333	-2.98873	0	
1.2593	-0.275678	-0.227713	0	
1.2600	-2.70666	2.81794	0	
1.2607	-2.40592	2.19173	0	
1.2613	-4.53616	0.370033	0	
1.2620	-12.7815	2.50484	0	
1.2627	-21.0267	7.08755	0	
1.2633	-23.4577	7.6853	0	
1.2640	-23.7835	4.32654	0	
1.2647	-24.6857	2.50484	0	
1.2653	-20.0995	1.59399	0	
1.2660	-13.7087	0.683138	0	
1.2667	-12.7815	0.0569281	0	
1.2673	-10.9519	-0.227713	0	
1.2680	-3.93468	-0.540817	0	
1.2687	0.0250617	-1.16703	0	
1.2693	-0.877158	-2.07788	0	
1.2700	0.325802	-1.16703	0	
1.2707	4.31061	1.90709	0	
1.2713	5.51357	2.50484	0	
1.2720	7.96961	0.683138	0	
1.2727	14.9869	-0.227713	0	
1.2733	20.7761	-0.227713	0	
1.2740	21.1019	-0.227713	0	
1.2747	20.7761	1.28088	0	
1.2753	20.1746	4.32654	0	
1.2760	17.1171	6.46134	0	
1.2767	13.7589	4.32654	0	
1.2773	12.8566	1.59399	0	
1.2780	12.2301	3.10258	0	
1.2787	11.0271	5.8636	0	
1.2793	8.27035	5.26585	0	
1.2800	4.61135	1.90709	0	
1.2807	1.25308	-1.16703	0	
1.2813	-2.10518	-1.16703	0	
1.2820	-8.19517	3.41569	0	
1.2827	-15.2375	6.1767	0	
1.2833	-19.7987	4.95275	0	
1.2840	-21.929	5.55049	0	
1.2847	-23.7835	7.40066	0	
1.2853	-22.5555	5.26585	0	
1.2860	-16.4405	0.683138	0	
1.2867	-11.8792	-1.45167	0	
1.2873	-10.3505	-2.36252	0	
1.2880	-6.36566	-2.36252	0	
1.2887	-0.877158	-2.07788	0	
1.2893	1.85456	-2.07788	0	
1.2900	4.91209	-2.36252	0	
1.2907	8.57109	-3.30183	0	
1.2913	10.4006	-5.12353	0	
1.2920	16.5156	-6.66059	0	
1.2927	26.8912	-6.66059	0	
1.2933	32.3797	-7.57144	0	
1.2940	30.5502	-8.48229	0	
1.2947	25.3624	-7.85608	0	
1.2953	17.4179	-5.72128	0	
1.2960	10.7013	-3.30183	0	
1.2967	8.87183	-2.67562	0	
1.2973	10.0999	-2.98873	0	
1.2980	7.96961	-2.07788	0	
1.2987	0.952343	-1.16703	0	
1.2993	-1.1779	-2.07788	0	
1.3000	5.51357	-2.07788	0	
1.3007	10.0999	0.683138	0	
1.3013	7.36813	0.967778	0	
1.3020	1.55382	0.683138	0	
1.3027	-7.59369	2.50484	0	
1.3033	-16.4405	3.10258	0	
1.3040	-18.5958	3.10258	0	
1.3047	-19.1972	4.95275	0	
1.3053	-24.6857	5.26585	0	
1.3060	-28.3447	3.10258	0	
1.3067	-25.613	4.32654	0	
1.3073	-20.0995	5.55049	0	
1.3080	-14.0095	3.41569	0	
1.3087	-8.19517	-0.227713	0	
1.3093	-3.93468	-4.52579	0	
1.3100	-1.80444	-8.48229	0	
1.3107	0.952343	-6.03438	0	
1.3113	4.31061	-3.58647	0	
1.3120	7.04233	-5.43664	0	
1.3127	8.57109	-6.34749	0	
1.3133	12.8566	-4.21268	0	
1.3140	18.6459	-3.89958	0	
1.3147	20.4754	-3.58647	0	
1.3153	17.7437	-2.07788	0	
1.3160	13.7589	-0.853922	0	
1.3167	10.0999	1.59399	0	
1.3173	8.87183	3.41569	0	
1.3180	7.04233	3.41569	0	
1.3187	2.78185	2.81794	0	
1.3193	0.952343	0.967778	0	
1.3200	0.325802	0.0569281	0	
1.3207	-2.70666	1.59399	0	
1.3213	-7.29295	2.50484	0	
1.3220	-11.5534	1.90709	0	
1.3227	-16.4405	3.10258	0	
1.3233	-21.3275	5.55049	0	
1.3240	-21.929	7.9984	0	
1.3247	-20.0995	8.59615	0	
1.3253	-17.3677	6.1767	0	
1.3260	-13.7087	3.41569	0	
1.3267	-11.5534	2.81794	0	
1.3273	-9.12245	2.50484	0	
1.3280	-5.46344	0.967778	0	
1.3287	-3.0074	0.0569281	0	
1.3293	-3.3332	-1.16703	0	
1.3300	-1.80444	-2.67562	0	
1.3307	0.325802	-2.36252	0	
1.3313	2.78185	-2.98873	0	
1.3320	7.04233	-4.81043	0	
1.3327	13.7589	-5.43664	0	
1.3333	21.7034	-4.21268	0	
1.3340	24.1344	-2.98873	0	
1.3347	18.9466	-2.07788	0	
1.3353	15.2876	-2.36252	0	
1.3360	15.8891	-1.76477	0	
1.3367	14.3854	0.0569281	0	
1.3373	10.0999	-0.540817	0	
1.3380	8.27035	-2.07788	0	
1.3387	5.51357	-1.16703	0	
1.3393	1.85456	1.28088	0	
1.3400	0.0250617	1.59399	0	
1.3407	-0.576418	1.59399	0	
1.3413	-2.70666	2.50484	0	
1.3420	-8.19517	3.41569	0	
1.3427	-14.3102	4.0419	0	
1.3433	-18.27	4.32654	0	
1.3440	-20.4253	4.63964	0	
1.3447	-20.0995	4.63964	0	
1.3453	-16.4405	4.63964	0	
1.3460	-13.7087	4.63964	0	
1.3467	-10.0497	4.0419	0	
1.3473	-3.3332	3.41569	0	
1.3480	0.651603	2.81794	0	
1.3487	0.952343	1.28088	0	
1.3493	4.61135	1.59399	0	
1.3500	7.36813	2.81794	0	
1.3507	5.21283	0.683138	0	
1.3513	7.36813	-2.67562	0	
1.3520	15.8891	-2.36252	0	
1.3527	20.4754	-5.12353	0	
1.3533	17.4179	-10.304	0	
1.3540	11.9294	-8.16919	0	
1.3547	9.19763	-3.89958	0	
1.3553	8.57109	-4.81043	0	
1.3560	7.36813	-3.30183	0	
1.3567	5.21283	1.90709	0	
1.3573	2.78185	0.370033	0	
1.3580	-1.1779	-3.89958	0	
1.3587	-3.3332	-1.45167	0	
1.3593	-2.10518	2.19173	0	
1.3600	-1.1779	2.50484	0	
1.3607	-1.80444	1.59399	0	
1.3613	-4.86196	-0.227713	0	
1.3620	-10.0497	-0.853922	0	
1.3627	-15.5382	5.26585	0	
1.3633	-18.27	7.9984	0	
1.3640	-16.1397	3.72879	0	
1.3647	-12.4807	4.32654	0	
1.3653	-11.2527	6.77445	0	
1.3660	-7.29295	2.19173	0	
1.3667	4.91209	-1.16703	0	
1.3673	14.6861	1.59399	0	
1.3680	14.6861	2.50484	0	
1.3687	12.8566	0.683138	0	
1.3693	11.9294	-0.227713	0	
1.3700	6.44085	-3.89958	0	
1.3707	-0.877158	-7.25834	0	
1.3713	-4.23542	-7.57144	0	
1.3720	-6.69147	-10.0194	0	
1.3727	-8.82171	-12.7519	0	
1.3733	-6.36566	-11.2148	0	
1.3740	0.651603	-9.39314	0	
1.3747	6.44085	-8.7954	0	
1.3753	5.21283	-7.57144	0	
1.3760	0.952343	-4.81043	0	
1.3767	2.18037	-2.98873	0	
1.3773	5.83937	-1.16703	0	
1.3780	2.78185	-0.540817	0	
1.3787	-1.5037	-2.36252	0	
1.3793	-1.80444	-2.67562	0	
1.3800	-4.53616	-0.227713	0	
1.3807	-10.0497	-0.853922	0	
1.3813	-11.5534	-2.07788	0	
1.3820	-14.611	2.19173	0	
1.3827	-20.726	6.77445	0	
1.3833	-23.157	6.1767	0	
1.3840	-23.4577	3.10258	0	
1.3847	-23.7835	1.59399	0	
1.3853	-19.498	1.59399	0	
1.3860	-16.4405	0.967778	0	
1.3867	-16.4405	-1.16703	0	
1.3873	-9.72393	-1.45167	0	
1.3880	-3.0074	0.683138	0	
1.3887	-4.86196	1.28088	0	
1.3893	-3.3332	0.370033	0	
1.3900	2.18037	0.683138	0	
1.3907	-0.275678	0.370033	0	
1.3913	-1.80444	-1.16703	0	
1.3920	6.44085	-3.30183	0	
1.3927	14.6861	-6.66059	0	
1.3933	17.7437	-9.08004	0	
1.3940	18.6459	-6.34749	0	
1.3947	20.4754	-3.89958	0	
1.3953	25.0617	-3.89958	0	
1.3960	25.6631	-2.98873	0	
1.3967	18.6459	-1.45167	0	
1.3973	14.6861	-2.98873	0	
1.3980	12.8566	-3.89958	0	
1.3987	8.57109	-0.227713	0	
1.3993	7.96961	1.59399	0	
1.4000	7.36813	-0.540817	0	
1.4007	2.78185	-1.45167	0	
1.4013	0.952343	0.0569281	0	
1.4020	-2.70666	1.90709	0	
1.4027	-13.3829	2.81794	0	
1.4033	-17.6685	2.81794	0	
1.4040	-15.2375	2.50484	0	
1.4047	-17.3677	1.90709	0	
1.4053	-18.27	0.683138	0	
1.4060	-14.0095	-1.76477	0	
1.4067	-10.6512	-2.67562	0	
1.4073	-7.29295	-2.36252	0	
1.4080	-3.3332	-3.89958	0	
1.4087	-2.10518	-4.81043	0	
1.4093	-0.877158	-1.76477	0	
1.4100	0.952343	0.967778	0	
1.4107	-0.576418	0.683138	0	
1.4113	0.0250617	0.0569281	0	
1.4120	5.21283	-1.45167	0	
1.4127	11.9294	-4.21268	0	
1.4133	17.4179	-3.89958	0	
1.4140	21.1019	-0.853922	0	
1.4147	19.8739	-1.16703	0	
1.4153	14.9869	-1.45167	0	
1.4160	11.9294	-0.227713	0	
1.4167	11.6286	-0.227713	0	
1.4173	8.27035	-0.227713	0	
1.4180	2.78185	4.32654	0	
1.4187	0.325802	6.1767	0	
1.4193	0.651603	2.50484	0	
1.4200	-0.877158	1.90709	0	
1.4207	-2.40592	4.32654	0	
1.4213	-3.63394	5.26585	0	
1.4220	-7.29295	6.46134	0	
1.4227	-12.4807	7.6853	0	
1.4233	-14.3102	4.95275	0	
1.4240	-13.0822	1.90709	0	
1.4247	-13.0822	0.967778	0	
1.4253	-14.0095	-0.853922	0	
1.4260	-10.9519	-2.36252	0	
1.4267	-7.29295	-2.07788	0	
1.4273	-6.36566	-2.07788	0	
1.4280	-5.46344	-2.36252	0	
1.4287	-4.23542	-2.07788	0	
1.4293	-4.53616	-3.89958	0	
1.4300	-3.63394	-5.12353	0	
1.4307	-2.10518	-1.45167	0	
1.4313	-2.10518	-0.227713	0	
1.4320	4.31061	-2.98873	0	
1.4327	14.6861	-3.30183	0	
1.4333	18.0444	-2.98873	0	
1.4340	18.6459	-4.81043	0	
1.4347	22.0041	-4.21268	0	
1.4353	20.1746	-2.36252	0	
1.4360	15.5884	-1.16703	0	
1.4367	15.2876	-0.227713	0	
1.4373	13.7589	-2.36252	0	
1.4380	11.9294	-5.43664	0	
1.4387	13.7589	-3.30183	0	
1.4393	10.4006	0.683138	0	
1.4400	1.85456	-0.227713	0	
1.4407	-1.5037	-1.76477	0	
1.4413	-5.1627	0.683138	0	
1.4420	-13.3829	1.90709	0	
1.4427	-15.5382	1.28088	0	
1.4433	-16.4405	-0.227713	0	
1.4440	-26.5152	-0.540817	0	
1.4447	-31.4023	-0.853922	0	
1.4453	-23.7835	-1.16703	0	
1.4460	-17.6685	-0.227713	0	
1.4467	-16.4405	-0.227713	0	
1.4473	-11.8792	-2.07788	0	
1.4480	-6.99221	-2.36252	0	
1.4487	-6.06492	-0.227713	0	
1.4493	-5.46344	0.370033	0	
1.4500	-3.3332	-1.76477	0	
1.4507	2.78185	-2.98873	0	
1.4513	12.8566	-2.98873	0	
1.4520	22.0041	-2.67562	0	
1.4527	26.8912	-4.52579	0	
1.4533	29.9487	-6.66059	0	
1.4540	30.2494	-3.89958	0	
1.4547	27.1919	-2.36252	0	
1.4553	22.6056	-4.21268	0	
1.4560	17.7437	-2.67562	0	
1.4567	11.6286	-0.227713	0	
1.4573	4.00987	-2.67562	0	
1.4580	-3.0074	-0.540817	0	
1.4587	-5.46344	4.63964	0	
1.4593	-2.70666	2.50484	0	
1.4600	-3.0074	-0.227713	0	
1.4607	-7.29295	4.32654	0	
1.4613	-7.89443	6.77445	0	
1.4620	-8.19517	5.55049	0	
1.4627	-18.5958	6.1767	0	
1.4633	-32.0038	6.1767	0	
1.4640	-33.8333	5.55049	0	
1.4647	-29.272	5.26585	0	
1.4653	-29.8735	3.41569	0	
1.4660	-28.9713	4.0419	0	
1.4667	-21.0267	5.55049	0	
1.4673	-14.611	3.10258	0	
1.4680	-13.0822	0.683138	0	
1.4687	-11.2527	1.59399	0	
1.4693	-8.82171	0.967778	0	
1.4700	-5.76418	-2.07788	0	
1.4707	-1.5037	-4.21268	0	
1.4713	2.78185	-5.72128	0	
1.4720	7.36813	-6.03438	0	
1.4727	13.7589	-6.66059	0	
1.4733	18.9466	-8.16919	0	
1.4740	23.8336	-10.304	0	
1.4747	26.5904	-11.2148	0	
1.4753	22.6056	-8.48229	0	
1.4760	14.9869	-3.89958	0	
1.4767	10.0999	-3.30183	0	
1.4773	5.21283	-3.89958	0	
1.4780	-0.877158	-2.07788	0	
1.4787	-2.70666	-1.76477	0	
1.4793	-1.5037	-2.07788	0	
1.4800	-2.40592	1.59399	0	
1.4807	-4.53616	4.32654	0	
1.4813	-5.1627	3.10258	0	
1.4820	-4.53616	3.41569	0	
1.4827	-9.12245	7.08755	0	
1.4833	-17.3677	8.90925	0	
1.4840	-20.0995	7.9984	0	
1.4847	-18.27	5.26585	0	
1.4853	-18.5958	2.81794	0	
1.4860	-16.4405	1.59399	0	
1.4867	-10.9519	1.59399	0	
1.4873	-7.29295	1.28088	0	
1.4880	-5.1627	0.967778	0	
1.4887	-2.40592	1.90709	0	
1.4893	-1.80444	2.81794	0	
1.4900	-0.576418	1.28088	0	
1.4907	1.55382	-0.227713	0	
1.4913	2.78185	-0.227713	0	
1.4920	6.14011	-0.227713	0	
1.4927	12.8566	-2.98873	0	
1.4933	17.4179	-6.66059	0	
1.4940	19.8739	-6.94523	0	
1.4947	22.0041	-4.81043	0	
1.4953	22.3049	-3.58647	0	
1.4960	21.1019	-2.98873	0	
1.4967	17.4179	-0.540817	0	
1.4973	12.5559	-0.853922	0	
1.4980	10.0999	-3.89958	0	
1.4987	9.49837	-3.89958	0	
1.4993	4.91209	-0.853922	0	
1.5000	-0.275678	0.370033	0	
1.5007	-0.275678	0.683138	0	
1.5013	0.0250617	2.50484	0	
1.5020	-6.69147	6.1767	0	
1.5027	-17.6685	8.59615	0	
1.5033	-25.9138	7.08755	0	
1.5040	-26.5152	5.26585	0	
1.5047	-23.157	7.08755	0	
1.5053	-20.0995	9.8201	0	
1.5060	-17.6685	7.9984	0	
1.5067	-14.9117	3.10258	0	
1.5073	-12.7815	-1.45167	0	
1.5080	-10.0497	-1.45167	0	
1.5087	-3.93468	0.683138	0	
1.5093	3.68407	-2.07788	0	
1.5100	8.57109	-7.57144	0	
1.5107	9.19763	-7.57144	0	
1.5113	11.0271	-6.34749	0	
1.5120	16.5156	-8.7954	0	
1.5127	22.9314	-9.39314	0	
1.5133	27.7934	-6.66059	0	
1.5140	28.4199	-6.66059	0	
1.5147	24.4351	-8.48229	0	
1.5153	20.4754	-5.12353	0	
1.5160	18.6459	-1.45167	0	
1.5167	15.2876	-0.853922	0	
1.5173	13.7589	0.0569281	0	
1.5180	15.5884	1.28088	0	
1.5187	12.5559	0.370033	0	
1.5193	3.68407	1.28088	0	
1.5200	-1.80444	2.81794	0	
1.5207	-1.1779	0.967778	0	
1.5213	0.325802	2.50484	0	
1.5220	-2.70666	7.9984	0	
1.5227	-10.0497	7.9984	0	
1.5233	-17.3677	5.26585	0	
1.5240	-19.7987	6.1767	0	
1.5247	-18.27	5.8636	0	
1.5253	-15.5382	3.10258	0	
1.5260	-11.8792	2.50484	0	
1.5267	-10.6512	3.10258	0	
1.5273	-12.4807	4.0419	0	
1.5280	-15.5382	4.63964	0	
1.5287	-14.3102	2.19173	0	
1.5293	-8.82171	-2.07788	0	
1.5300	-3.93468	-1.16703	0	
1.5307	-0.877158	2.50484	0	
1.5313	3.08259	3.41569	0	
1.5320	7.96961	0.967778	0	
1.5327	12.8566	-2.67562	0	
1.5333	18.9466	-5.12353	0	
1.5340	21.7034	-6.03438	0	
1.5347	20.1746	-4.81043	0	
1.5353	18.3451	-2.67562	0	
1.5360	15.8891	-2.07788	0	
1.5367	10.4006	-2.67562	0	
1.5373	4.00987	-0.853922	0	
1.5380	2.18037	1.28088	0	
1.5387	7.36813	0.683138	0	
1.5393	14.9869	0.370033	0	
1.5400	15.5884	-0.227713	0	
1.5407	10.7013	-2.07788	0	
1.5413	7.66887	-2.36252	0	
1.5420	3.08259	-0.853922	0	
1.5427	-7.89443	0.370033	0	
1.5433	-17.3677	1.59399	0	
1.5440	-19.498	4.0419	0	
1.5447	-23.4577	5.26585	0	
1.5453	-31.1015	4.95275	0	
1.5460	-32.0038	2.81794	0	
1.5467	-24.6857	0.967778	0	
1.5473	-18.27	1.59399	0	
1.5480	-16.4405	2.50484	0	
1.5487	-14.0095	-0.227713	0	
1.5493	-9.72393	-2.98873	0	
1.5500	-5.46344	-3.89958	0	
1.5507	-3.3332	-4.81043	0	
1.5513	-3.0074	-5.43664	0	
1.5520	1.25308	-6.66059	0	
1.5527	11.0271	-7.25834	0	
1.5533	17.4179	-5.43664	0	
1.5540	15.5884	-3.89958	0	
1.5547	13.7589	-4.21268	0	
1.5553	14.0596	-4.81043	0	
1.5560	11.6286	-3.89958	0	
1.5567	9.49837	-2.07788	0	
1.5573	11.3279	-1.16703	0	
1.5580	11.0271	0.370033	0	
1.5587	6.74159	1.59399	0	
1.5593	3.68407	1.59399	0	
1.5600	1.85456	1.90709	0	
1.5607	1.55382	3.10258	0	
1.5613	1.85456	3.72879	0	
1.5620	-3.3332	4.63964	0	
1.5627	-11.8792	7.08755	0	
1.5633	-14.611	7.9984	0	
1.5640	-14.3102	6.1767	0	
1.5647	-20.0995	5.26585	0	
1.5653	-24.0843	3.41569	0	
1.5660	-18.5958	2.19173	0	
1.5667	-11.2527	4.63964	0	
1.5673	-8.19517	6.1767	0	
1.5680	-4.53616	3.41569	0	
1.5687	-1.80444	-0.227713	0	
1.5693	-1.5037	-2.07788	0	
1.5700	1.25308	-1.76477	0	
1.5707	6.14011	-1.16703	0	
1.5713	6.74159	-0.540817	0	
1.5720	5.51357	-0.227713	0	
1.5727	8.27035	-0.853922	0	
1.5733	12.2301	-2.67562	0	
1.5740	14.3854	-4.81043	0	
1.5747	14.0596	-5.72128	0	
1.5753	12.8566	-3.89958	0	
1.5760	11.9294	0.370033	0	
1.5767	10.7013	2.81794	0	
1.5773	8.57109	2.50484	0	
1.5780	4.91209	2.81794	0	
1.5787	1.85456	1.59399	0	
1.5793	0.952343	-3.89958	0	
1.5800	2.18037	-5.12353	0	
1.5807	1.85456	-2.36252	0	
1.5813	-0.877158	-2.36252	0	
1.5820	-3.63394	-1.45167	0	
1.5827	-8.82171	4.32654	0	
1.5833	-15.2375	5.8636	0	
1.5840	-18.5958	1.90709	0	
1.5847	-17.9692	0.967778	0	
1.5853	-16.1397	1.59399	0	
1.5860	-12.4807	-0.227713	0	
1.5867	-7.89443	-1.76477	0	
1.5873	-7.29295	-1.16703	0	
1.5880	-9.12245	0.0569281	0	
1.5887	-7.29295	1.28088	0	
1.5893	-3.63394	0.683138	0	
1.5900	-1.5037	-1.45167	0	
1.5907	0.0250617	-1.16703	0	
1.5913	0.651603	-0.227713	0	
1.5920	3.08259	-3.58647	0	
1.5927	11.9294	-6.94523	0	
1.5933	20.1746	-6.66059	0	
1.5940	22.0041	-4.52579	0	
1.5947	22.3049	-3.89958	0	
1.5953	22.3049	-2.36252	0	
1.5960	18.6459	0.0569281	0	
1.5967	15.2876	1.59399	0	
1.5973	14.9869	0.683138	0	
1.5980	12.5559	-1.16703	0	
1.5987	8.27035	0.370033	0	
1.5993	7.04233	3.10258	0	
1.6000	6.14011	1.59399	0	
1.6007	3.68407	-2.67562	0	
1.6013	1.85456	-2.98873	0	
1.6020	-3.63394	-1.16703	0	
1.6027	-13.0822	0.967778	0	
1.6033	-16.1397	1.59399	0	
1.6040	-15.839	0.683138	0	
1.6047	-19.7987	0.370033	0	
1.6053	-20.0995	-0.540817	0	
1.6060	-13.7087	-1.16703	0	
1.6067	-12.7815	-0.540817	0	
1.6073	-14.611	-1.76477	0	
1.6080	-10.0497	-5.72128	0	
1.6087	-4.86196	-6.03438	0	
1.6093	-2.40592	-3.30183	0	
1.6100	2.18037	-2.67562	0	
1.6107	4.31061	-2.07788	0	
1.6113	3.68407	-2.07788	0	
1.6120	7.66887	-3.89958	0	
1.6127	15.5884	-4.81043	0	
1.6133	19.8739	-4.21268	0	
1.6140	20.7761	-4.81043	0	
1.6147	20.4754	-3.89958	0	
1.6153	19.2474	-2.07788	0	
1.6160	17.1171	-2.67562	0	
1.6167	14.6861	-0.853922	0	
1.6173	11.6286	2.50484	0	
1.6180	8.27035	0.0569281	0	
1.6187	4.91209	-1.16703	0	
1.6193	2.78185	2.81794	0	
1.6200	0.325802	3.10258	0	
1.6207	-1.80444	-0.227713	0	
1.6213	-3.3332	0.370033	0	
1.6220	-5.1627	1.59399	0	
1.6227	-6.99221	2.81794	0	
1.6233	-6.36566	7.6853	0	
1.6240	-6.36566	10.4463	0	
1.6247	-9.12245	7.6853	0	
1.6253	-9.12245	6.46134	0	
1.6260	-6.99221	6.1767	0	
1.6267	-9.42319	2.19173	0	
1.6273	-13.7087	1.90709	0	
1.6280	-14.611	6.1767	0	
1.6287	-17.3677	5.26585	0	
1.6293	-21.3275	-0.540817	0	
1.6300	-16.4405	-1.16703	0	
1.6307	-8.19517	1.90709	0	
1.6313	-7.29295	0.967778	0	
1.6320	-4.86196	-3.30183	0	
1.6327	6.44085	-5.72128	0	
1.6333	15.5884	-4.81043	0	
1.6340	16.5156	-2.36252	0	
1.6347	17.1171	0.0569281	0	
1.6353	18.0444	-0.853922	0	
1.6360	14.6861	-2.98873	0	
1.6367	10.7013	-1.45167	0	
1.6373	9.49837	0.370033	0	
1.6380	8.57109	-0.227713	0	
1.6387	5.83937	-0.227713	0	
1.6393	3.68407	1.59399	0	
1.6400	2.48111	1.59399	0	
1.6407	0.0250617	-1.76477	0	
1.6413	-2.70666	-2.07788	0	
1.6420	-6.69147	2.50484	0	
1.6427	-14.611	6.1767	0	
1.6433	-21.6282	6.1767	0	
1.6440	-23.7835	6.46134	0	
1.6447	-22.2548	5.8636	0	
1.6453	-19.498	1.59399	0	
1.6460	-15.5382	0.683138	0	
1.6467	-13.0822	3.41569	0	
1.6473	-12.7815	1.90709	0	
1.6480	-9.72393	0.0569281	0	
1.6487	-3.0074	1.90709	0	
1.6493	2.78185	0.0569281	0	
1.6500	4.00987	-5.72128	0	
1.6507	3.68407	-9.08004	0	
1.6513	5.51357	-8.16919	0	
1.6520	11.9294	-6.66059	0	
1.6527	20.1746	-6.66059	0	
1.6533	25.3624	-7.57144	0	
1.6540	27.1919	-9.08004	0	
1.6547	25.3624	-8.48229	0	
1.6553	19.8739	-6.34749	0	
1.6560	14.3854	-4.81043	0	
1.6567	10.4006	-4.81043	0	
1.6573	6.14011	-5.43664	0	
1.6580	2.78185	-4.52579	0	
1.6587	2.18037	-3.89958	0	
1.6593	1.85456	-3.89958	0	
1.6600	-2.10518	-3.89958	0	
1.6607	-5.1627	-3.30183	0	
1.6613	-4.23542	-2.98873	0	
1.6620	-5.76418	-1.16703	0	
1.6627	-14.611	2.19173	0	
1.6633	-22.5555	4.32654	0	
1.6640	-23.4577	4.32654	0	
1.6647	-21.3275	2.50484	0	
1.6653	-17.9692	-0.227713	0	
1.6660	-14.611	-0.227713	0	
1.6667	-14.611	1.59399	0	
1.6673	-12.7815	1.59399	0	
1.6680	-3.3332	-1.16703	0	
1.6687	1.85456	-2.07788	0	
1.6693	0.651603	-1.45167	0	
1.6700	1.85456	-2.67562	0	
1.6707	1.85456	-2.67562	0	
1.6713	-3.0074	-2.07788	0	
1.6720	-1.80444	-4.81043	0	
1.6727	7.36813	-7.57144	0	
1.6733	14.0596	-7.25834	0	
1.6740	14.6861	-7.57144	0	
1.6747	13.1574	-6.03438	0	
1.6753	12.8566	-2.98873	0	
1.6760	12.8566	-2.67562	0	
1.6767	10.4006	-3.30183	0	
1.6773	6.44085	-2.07788	0	
1.6780	4.00987	-0.227713	0	
1.6787	2.78185	0.683138	0	
1.6793	0.0250617	0.967778	0	
1.6800	-3.63394	1.28088	0	
1.6807	-7.29295	3.72879	0	
1.6813	-8.82171	5.8636	0	
1.6820	-10.6512	4.32654	0	
1.6827	-14.611	5.55049	0	
1.6833	-18.5958	8.90925	0	
1.6840	-20.0995	7.08755	0	
1.6847	-19.1972	3.41569	0	
1.6853	-17.067	4.0419	0	
1.6860	-14.9117	2.19173	0	
1.6867	-12.4807	-3.89958	0	
1.6873	-6.69147	-6.03438	0	
1.6880	-1.1779	-4.52579	0	
1.6887	-1.1779	-4.21268	0	
1.6893	-4.53616	-4.21268	0	
1.6900	-5.46344	-3.89958	0	
1.6907	-5.46344	-4.21268	0	
1.6913	-5.46344	-3.89958	0	
1.6920	-2.10518	-4.81043	0	
1.6927	7.04233	-7.25834	0	
1.6933	14.6861	-8.16919	0	
1.6940	15.5884	-7.85608	0	
1.6947	14.0596	-10.304	0	
1.6953	13.7589	-11.2148	0	
1.6960	13.1574	-6.94523	0	
1.6967	10.4006	-3.89958	0	
1.6973	8.27035	-2.67562	0	
1.6980	8.27035	-0.540817	0	
1.6987	6.74159	1.28088	0	
1.6993	3.38333	2.19173	0	
1.7000	1.55382	2.19173	0	
1.7007	2.78185	0.683138	0	
1.7013	1.55382	-0.227713	0	
1.7020	-5.76418	1.59399	0	
1.7027	-13.7087	6.1767	0	
1.7033	-16.4405	11.3572	0	
1.7040	-16.4405	11.9549	0	
1.7047	-18.5958	6.77445	0	
1.7053	-20.726	3.41569	0	
1.7060	-17.9692	5.55049	0	
1.7067	-11.5534	5.55049	0	
1.7073	-6.36566	3.41569	0	
1.7080	-4.53616	5.8636	0	
1.7087	-4.53616	6.1767	0	
1.7093	-5.46344	2.19173	0	
1.7100	-4.86196	2.19173	0	
1.7107	-2.70666	4.0419	0	
1.7113	3.38333	2.50484	0	
1.7120	16.5156	0.967778	0	
1.7127	29.9487	-1.16703	0	
1.7133	35.7379	-4.81043	0	
1.7140	36.3394	-4.52579	0	
1.7147	34.8107	-3.30183	0	
1.7153	29.3222	-5.72128	0	
1.7160	22.6056	-7.25834	0	
1.7167	15.5884	-6.66059	0	
1.7173	7.36813	-6.03438	0	
1.7180	0.0250617	-2.07788	0	
1.7187	-5.46344	1.59399	0	
1.7193	-10.0497	0.0569281	0	
1.7200	-9.72393	2.50484	0	
1.7207	-8.19517	6.1767	0	
1.7213	-11.5534	2.50484	0	
1.7220	-14.3102	2.50484	0	
1.7227	-15.5382	9.8201	0	
1.7233	-19.498	8.59615	0	
1.7240	-21.3275	1.59399	0	
1.7247	-19.1972	1.28088	0	
1.7253	-17.3677	2.81794	0	
1.7260	-13.7087	1.59399	0	
1.7267	-8.52097	-0.227713	0	
1.7273	-8.19517	-1.76477	0	
1.7280	-9.12245	-1.45167	0	
1.7287	-5.46344	0.967778	0	
1.7293	-1.80444	0.683138	0	
1.7300	-1.1779	-1.76477	0	
1.7307	1.25308	-1.76477	0	
1.7313	5.83937	-0.227713	0	
1.7320	10.0999	-1.76477	0	
1.7327	14.0596	-5.72128	0	
1.7333	19.2474	-7.57144	0	
1.7340	22.0041	-7.57144	0	
1.7347	20.4754	-8.16919	0	
1.7353	15.8891	-7.25834	0	
1.7360	11.0271	-2.67562	0	
1.7367	8.87183	0.0569281	0	
1.7373	7.96961	-0.540817	0	
1.7380	6.14011	-0.227713	0	
1.7387	4.61135	0.683138	0	
1.7393	2.78185	0.683138	0	
1.7400	-0.275678	1.28088	0	
1.7407	-2.10518	0.370033	0	
1.7413	-3.63394	-0.540817	0	
1.7420	-10.3505	2.81794	0	
1.7427	-17.3677	5.8636	0	
1.7433	-19.7987	5.26585	0	
1.7440	-21.0267	7.08755	0	
1.7447	-21.6282	8.59615	0	
1.7453	-18.8965	4.63964	0	
1.7460	-16.1397	0.967778	0	
1.7467	-13.0822	0.683138	0	
1.7473	-9.12245	0.0569281	0	
1.7480	-7.29295	-0.853922	0	
1.7487	-3.0074	-0.853922	0	
1.7493	3.68407	-1.16703	0	
1.7500	4.91209	-2.67562	0	
1.7507	1.85456	-3.89958	0	
1.7513	4.00987	-2.98873	0	
1.7520	11.0271	-2.07788	0	
1.7527	15.5884	-4.81043	0	
1.7533	16.5156	-6.66059	0	
1.7540	17.4179	-4.81043	0	
1.7547	19.5732	-4.81043	0	
1.7553	20.4754	-5.72128	0	
1.7560	17.7437	-2.98873	0	
1.7567	15.5884	0.370033	0	
1.7573	14.3854	-1.16703	0	
1.7580	11.9294	0.683138	0	
1.7587	10.0999	5.55049	0	
1.7593	8.87183	4.95275	0	
1.7600	5.51357	1.28088	0	
1.7607	1.85456	2.19173	0	
1.7613	-0.877158	4.32654	0	
1.7620	-6.36566	4.32654	0	
1.7627	-13.0822	6.1767	0	
1.7633	-16.7412	8.31151	0	
1.7640	-19.498	7.08755	0	
1.7647	-20.0995	6.1767	0	
1.7653	-16.4405	6.46134	0	
1.7660	-13.7087	6.1767	0	
1.7667	-13.7087	5.26585	0	
1.7673	-10.0497	3.41569	0	
1.7680	-3.3332	1.90709	0	
1.7687	-0.275678	2.81794	0	
1.7693	2.18037	4.0419	0	
1.7700	5.83937	3.10258	0	
1.7707	7.36813	2.50484	0	
1.7713	7.36813	0.967778	0	
1.7720	7.66887	-2.07788	0	
1.7727	8.87183	-2.98873	0	
1.7733	13.1574	-1.16703	0	
1.7740	21.4027	-1.76477	0	
1.7747	25.9639	-1.76477	0	
1.7753	22.3049	0.683138	0	
1.7760	14.9869	2.50484	0	
1.7767	8.57109	3.41569	0	
1.7773	4.31061	4.32654	0	
1.7780	2.78185	1.59399	0	
1.7787	3.38333	-0.227713	0	
1.7793	3.68407	3.10258	0	
1.7800	1.55382	5.55049	0	
1.7807	-1.5037	4.32654	0	
1.7813	-4.53616	4.32654	0	
1.7820	-6.36566	4.32654	0	
1.7827	-8.52097	1.90709	0	
1.7833	-12.4807	0.0569281	0	
1.7840	-17.6685	-2.67562	0	
1.7847	-20.726	-6.03438	0	
1.7853	-19.7987	-6.03438	0	
1.7860	-16.4405	-2.98873	0	
1.7867	-13.7087	-0.227713	0	
1.7873	-12.7815	1.28088	0	
1.7880	-10.9519	0.370033	0	
1.7887	-8.19517	-1.76477	0	
1.7893	-6.36566	-2.07788	0	
1.7900	-6.36566	-2.67562	0	
1.7907	-6.99221	-3.89958	0	
1.7913	-2.10518	-3.89958	0	
1.7920	10.0999	-2.36252	0	
1.7927	24.4351	-3.58647	0	
1.7933	32.0789	-5.12353	0	
1.7940	32.3797	-6.03438	0	
1.7947	27.1919	-6.03438	0	
1.7953	20.7761	-5.12353	0	
1.7960	18.3451	-3.89958	0	
1.7967	14.9869	-2.98873	0	
1.7973	4.91209	-1.76477	0	
1.7980	-3.63394	-1.16703	0	
1.7987	-6.36566	-2.07788	0	
1.7993	-7.89443	-0.540817	0	
1.8000	-8.82171	2.19173	0	
1.8007	-9.72393	1.28088	0	
1.8013	-12.7815	-1.16703	0	
1.8020	-14.611	0.683138	0	
1.8027	-15.5382	4.32654	0	
1.8033	-18.8965	4.32654	0	
1.8040	-20.4253	1.59399	0	
1.8047	-18.5958	-0.227713	0	
1.8053	-18.27	-1.45167	0	
1.8060	-17.067	-2.07788	0	
1.8067	-11.8792	-0.540817	0	
1.8073	-8.82171	0.967778	0	
1.8080	-9.12245	-1.16703	0	
1.8087	-7.29295	-5.12353	0	
1.8093	-3.63394	-5.72128	0	
1.8100	-0.877158	-2.98873	0	
1.8107	0.952343	-1.16703	0	
1.8113	2.48111	-1.76477	0	
1.8120	4.61135	-2.67562	0	
1.8127	11.0271	-4.52579	0	
1.8133	17.7437	-8.16919	0	
1.8140	21.1019	-10.304	0	
1.8147	22.0041	-10.6171	0	
1.8153	21.1019	-9.39314	0	
1.8160	18.3451	-8.16919	0	
1.8167	15.5884	-8.16919	0	
1.8173	12.8566	-7.25834	0	
1.8180	8.27035	-5.12353	0	
1.8187	4.91209	-3.89958	0	
1.8193	5.21283	-3.30183	0	
1.8200	3.68407	-1.45167	0	
1.8207	1.55382	-1.16703	0	
1.8213	0.952343	-2.07788	0	
1.8220	-1.80444	-0.227713	0	
1.8227	-10.6512	2.19173	0	
1.8233	-17.6685	2.50484	0	
1.8240	-17.3677	4.0419	0	
1.8247	-15.839	5.55049	0	
1.8253	-16.7412	3.10258	0	
1.8260	-14.0095	-1.16703	0	
1.8267	-10.0497	-1.45167	0	
1.8273	-10.3505	-1.16703	0	
1.8280	-10.9519	-3.89958	0	
1.8287	-7.89443	-6.03438	0	
1.8293	-9.42319	-5.72128	0	
1.8300	-13.0822	-5.72128	0	
1.8307	-9.42319	-4.52579	0	
1.8313	-3.3332	-2.36252	0	
1.8320	2.78185	-3.30183	0	
1.8327	13.1574	-6.34749	0	
1.8333	20.7761	-6.34749	0	
1.8340	19.5732	-6.66059	0	
1.8347	19.2474	-7.85608	0	
1.8353	21.1019	-4.81043	0	
1.8360	19.2474	0.683138	0	
1.8367	15.5884	0.967778	0	
1.8373	11.9294	-1.16703	0	
1.8380	7.96961	-1.16703	0	
1.8387	5.83937	0.967778	0	
1.8393	4.61135	2.19173	0	
1.8400	0.952343	0.683138	0	
1.8407	-1.80444	-0.227713	0	
1.8413	-2.40592	2.50484	0	
1.8420	-5.46344	5.26585	0	
1.8427	-12.18	5.55049	0	
1.8433	-17.3677	6.1767	0	
1.8440	-18.8965	5.55049	0	
1.8447	-20.726	2.50484	0	
1.8453	-21.6282	1.28088	0	
1.8460	-18.5958	2.19173	0	
1.8467	-14.9117	1.59399	0	
1.8473	-14.3102	1.59399	0	
1.8480	-10.9519	1.59399	0	
1.8487	-4.23542	-1.16703	0	
1.8493	-1.5037	-2.67562	0	
1.8500	-3.0074	-0.540817	0	
1.8507	-1.80444	-1.16703	0	
1.8513	1.85456	-3.58647	0	
1.8520	6.44085	-3.89958	0	
1.8527	14.6861	-6.03438	0	
1.8533	22.9314	-8.48229	0	
1.8540	26.2897	-5.43664	0	
1.8547	27.1919	-3.89958	0	
1.8553	25.6631	-4.21268	0	
1.8560	21.1019	-2.07788	0	
1.8567	15.2876	0.0569281	0	
1.8573	8.87183	-1.16703	0	
1.8580	3.08259	-2.07788	0	
1.8587	1.25308	-2.67562	0	
1.8593	-1.1779	-4.21268	0	
1.8600	-5.46344	-4.81043	0	
1.8607	-5.46344	-5.12353	0	
1.8613	-4.86196	-4.52579	0	
1.8620	-10.0497	-2.07788	0	
1.8627	-17.3677	-0.540817	0	
1.8633	-22.2548	2.50484	0	
1.8640	-24.6857	4.63964	0	
1.8647	-23.4577	0.0569281	0	
1.8653	-21.0267	-3.30183	0	
1.8660	-20.0995	0.967778	0	
1.8667	-17.067	2.19173	0	
1.8673	-11.5534	-2.36252	0	
1.8680	-4.53616	-3.89958	0	
1.8687	6.14011	-4.81043	0	
1.8693	17.7437	-8.16919	0	
1.8700	21.4027	-7.25834	0	
1.8707	17.7437	-4.52579	0	
1.8713	14.6861	-4.52579	0	
1.8720	14.6861	-5.72128	0	
1.8727	14.6861	-6.03438	0	
1.8733	14.6861	-6.34749	0	
1.8740	13.7589	-5.43664	0	
1.8747	9.19763	-4.52579	0	
1.8753	1.55382	-4.81043	0	
1.8760	-2.70666	-5.43664	0	
1.8767	-1.80444	-4.81043	0	
1.8773	-3.63394	-3.89958	0	
1.8780	-7.89443	-3.58647	0	
1.8787	-6.36566	-3.58647	0	
1.8793	-1.80444	-1.16703	0	
1.8800	-0.877158	1.90709	0	
1.8807	-1.80444	2.50484	0	
1.8813	-3.93468	0.683138	0	
1.8820	-8.82171	-1.16703	0	
1.8827	-14.0095	-0.540817	0	
1.8833	-18.8965	1.90709	0	
1.8840	-21.0267	3.41569	0	
1.8847	-19.498	4.0419	0	
1.8853	-19.498	5.26585	0	
1.8860	-20.0995	5.26585	0	
1.8867	-14.611	3.10258	0	
1.8873	-8.19517	2.50484	0	
1.8880	-6.69147	2.50484	0	
1.8887	-3.93468	1.59399	0	
1.8893	-3.93468	2.19173	0	
1.8900	-8.52097	1.59399	0	
1.8907	-6.36566	-0.227713	0	
1.8913	0.325802	-1.16703	0	
1.8920	2.48111	-1.45167	0	
1.8927	8.87183	-2.07788	0	
1.8933	20.1746	-2.36252	0	
1.8940	21.1019	-3.89958	0	
1.8947	17.4179	-3.58647	0	
1.8953	19.2474	-2.07788	0	
1.8960	16.5156	-4.52579	0	
1.8967	10.0999	-5.72128	0	
1.8973	8.57109	-2.07788	0	
1.8980	6.44085	-1.16703	0	
1.8987	2.78185	-2.98873	0	
1.8993	2.78185	0.683138	0	
1.9000	2.18037	4.0419	0	
1.9007	-2.40592	1.90709	0	
1.9013	-1.80444	1.59399	0	
1.9020	-0.877158	4.32654	0	
1.9027	-9.12245	5.55049	0	
1.9033	-16.7412	6.1767	0	
1.9040	-19.1972	5.8636	0	
1.9047	-20.4253	4.95275	0	
1.9053	-18.27	5.26585	0	
1.9060	-14.611	6.77445	0	
1.9067	-12.7815	6.77445	0	
1.9073	-8.52097	5.26585	0	
1.9080	-5.1627	2.50484	0	
1.9087	-9.12245	-1.16703	0	
1.9093	-11.2527	-2.98873	0	
1.9100	-6.69147	-3.30183	0	
1.9107	-4.86196	-2.98873	0	
1.9113	-6.36566	-2.36252	0	
1.9120	-3.63394	-3.30183	0	
1.9127	4.31061	-6.03438	0	
1.9133	12.5559	-8.48229	0	
1.9140	17.4179	-7.57144	0	
1.9147	18.0444	-5.72128	0	
1.9153	16.2149	-5.72128	0	
1.9160	14.6861	-4.81043	0	
1.9167	12.5559	-2.67562	0	
1.9173	11.0271	-2.67562	0	
1.9180	9.79911	-4.52579	0	
1.9187	6.44085	-2.98873	0	
1.9193	3.08259	1.90709	0	
1.9200	0.952343	3.41569	0	
1.9207	-1.80444	0.683138	0	
1.9213	-3.0074	-1.16703	0	
1.9220	-3.63394	0.967778	0	
1.9227	-9.72393	4.32654	0	
1.9233	-17.067	4.0419	0	
1.9240	-19.7987	2.50484	0	
1.9247	-20.726	2.50484	0	
1.9253	-20.0995	1.28088	0	
1.9260	-15.839	-0.540817	0	
1.9267	-11.8792	1.28088	0	
1.9273	-9.12245	3.10258	0	
1.9280	-6.06492	1.59399	0	
1.9287	-4.53616	1.28088	0	
1.9293	-3.63394	1.59399	0	
1.9300	0.0250617	-0.540817	0	
1.9307	1.85456	-1.16703	0	
1.9313	2.48111	1.59399	0	
1.9320	7.96961	2.50484	0	
1.9327	14.9869	-1.76477	0	
1.9333	20.1746	-3.89958	0	
1.9340	24.1344	-2.67562	0	
1.9347	24.4351	-2.07788	0	
1.9353	20.1746	-2.98873	0	
1.9360	17.4179	-2.07788	0	
1.9367	15.5884	-0.227713	0	
1.9373	12.8566	0.967778	0	
1.9380	8.57109	1.59399	0	
1.9387	5.51357	2.81794	0	
1.9393	4.00987	2.19173	0	
1.9400	4.91209	0.0569281	0	
1.9407	4.00987	-0.227713	0	
1.9413	3.08259	1.59399	0	
1.9420	4.00987	4.32654	0	
1.9427	0.0250617	6.1767	0	
1.9433	-10.0497	8.31151	0	
1.9440	-14.9117	9.8201	0	
1.9447	-15.5382	9.8201	0	
1.9453	-16.1397	7.6853	0	
1.9460	-13.7087	5.26585	0	
1.9467	-11.5534	4.0419	0	
1.9473	-13.7087	2.50484	0	
1.9480	-14.0095	-0.540817	0	
1.9487	-10.3505	-1.45167	0	
1.9493	-7.59369	-1.16703	0	
1.9500	-3.93468	-2.98873	0	
1.9507	-1.5037	-3.89958	0	
1.9513	-3.63394	-2.36252	0	
1.9520	-2.10518	-2.67562	0	
1.9527	7.04233	-4.81043	0	
1.9533	14.0596	-6.34749	0	
1.9540	16.5156	-6.34749	0	
1.9547	18.3451	-3.89958	0	
1.9553	17.1171	-0.540817	0	
1.9560	13.4581	0.683138	0	
1.9567	11.9294	0.683138	0	
1.9573	8.57109	1.28088	0	
1.9580	5.83937	1.90709	0	
1.9587	11.9294	2.19173	0	
1.9593	18.0444	2.50484	0	
1.9600	14.9869	0.0569281	0	
1.9607	11.0271	-3.58647	0	
1.9613	8.57109	-3.58647	0	
1.9620	1.85456	-0.227713	0	
1.9627	-6.99221	2.19173	0	
1.9633	-15.2375	1.90709	0	
1.9640	-25.2872	1.90709	0	
1.9647	-32.0038	2.81794	0	
1.9653	-32.3045	2.50484	0	
1.9660	-30.475	0.683138	0	
1.9667	-26.5152	-0.227713	0	
1.9673	-20.0995	0.967778	0	
1.9680	-16.4405	2.19173	0	
1.9687	-13.7087	0.683138	0	
1.9693	-8.52097	-1.16703	0	
1.9700	-6.06492	0.0569281	0	
1.9707	-8.52097	2.50484	0	
1.9713	-9.42319	0.683138	0	
1.9720	-4.23542	-2.67562	0	
1.9727	4.61135	-4.52579	0	
1.9733	13.7589	-6.66059	0	
1.9740	18.9466	-6.94523	0	
1.9747	21.1019	-4.81043	0	
1.9753	21.1019	-4.81043	0	
1.9760	16.8164	-4.21268	0	
1.9767	11.9294	-2.67562	0	
1.9773	11.6286	-3.89958	0	
1.9780	9.79911	-3.30183	0	
1.9787	4.91209	-0.227713	0	
1.9793	2.48111	-0.853922	0	
1.9800	0.952343	-2.36252	0	
1.9807	-0.275678	1.59399	0	
1.9813	-1.5037	4.0419	0	
1.9820	-7.59369	2.50484	0	
1.9827	-15.2375	4.0419	0	
1.9833	-16.7412	4.32654	0	
1.9840	-18.5958	2.50484	0	
1.9847	-22.5555	3.41569	0	
1.9853	-20.0995	4.63964	0	
1.9860	-16.1397	2.50484	0	
1.9867	-16.4405	0.967778	0	
1.9873	-11.8792	0.683138	0	
1.9880	-3.3332	0.0569281	0	
1.9887	-2.10518	-0.227713	0	
1.9893	-4.23542	-0.227713	0	
1.9900	-1.1779	0.0569281	0	
1.9907	2.18037	1.28088	0	
1.9913	4.31061	0.683138	0	
1.9920	8.57109	-2.98873	0	
1.9927	13.7589	-5.43664	0	
1.9933	18.9466	-4.52579	0	
1.9940	24.4351	-3.89958	0	
1.9947	26.5904	-4.52579	0	
1.9953	25.3624	-3.89958	0	
1.9960	23.2322	-3.30183	0	
1.9967	17.4179	-3.58647	0	
1.9973	11.6286	-1.45167	0	
1.9980	11.9294	0.683138	0	
1.9987	12.2301	0.370033	0	
1.9993	7.96961	0.683138	0	
2.0000	3.68407	1.90709	0	
2.0007	1.55382	-0.227713	0	
2.0013	-0.877158	-0.853922	0	
2.0020	-2.70666	4.0419	0	
2.0027	-8.52097	6.1767	0	
2.0033	-15.5382	4.95275	0	
2.0040	-15.2375	6.1767	0	
2.0047	-14.3102	7.6853	0	
2.0053	-16.7412	5.26585	0	
2.0060	-14.0095	2.19173	0	
2.0067	-8.19517	1.59399	0	
2.0073	-6.36566	1.90709	0	
2.0080	-3.63394	2.50484	0	
2.0087	3.08259	0.683138	0	
2.0093	7.36813	-4.21268	0	
2.0100	8.27035	-7.25834	0	
2.0107	5.83937	-5.72128	0	
2.0113	2.18037	-4.52579	0	
2.0120	6.14011	-6.34749	0	
2.0127	15.8891	-7.57144	0	
2.0133	19.8739	-5.72128	0	
2.0140	20.1746	-5.72128	0	
2.0147	21.7034	-6.66059	0	
2.0153	18.3451	-3.58647	0	
2.0160	11.9294	-0.227713	0	
2.0167	9.79911	-0.540817	0	
2.0173	8.87183	-1.16703	0	
2.0180	3.68407	-1.76477	0	
2.0187	-1.1779	-3.30183	0	
2.0193	-1.80444	-2.67562	0	
2.0200	0.0250617	-1.16703	0	
2.0207	0.325802	-3.30183	0	
2.0213	-1.1779	-4.52579	0	
2.0220	-5.1627	-1.16703	0	
2.0227	-12.7815	1.59399	0	
2.0233	-18.5958	1.90709	0	
2.0240	-19.7987	3.72879	0	
2.0247	-19.1972	2.81794	0	
2.0253	-18.8965	-0.540817	0	
2.0260	-16.7412	-0.227713	0	
2.0267	-13.3829	1.59399	0	
2.0273	-10.6512	0.683138	0	
2.0280	-9.42319	-0.227713	0	
2.0287	-9.12245	2.19173	0	
2.0293	-8.19517	2.19173	0	
2.0300	-6.69147	-1.16703	0	
2.0307	-6.69147	-2.98873	0	
2.0313	-6.36566	-2.36252	0	
2.0320	-3.63394	-2.36252	0	
2.0327	1.25308	-3.89958	0	
2.0333	7.36813	-5.72128	0	
2.0340	12.8566	-5.43664	0	
2.0347	14.9869	-3.89958	0	
2.0353	15.5884	-3.30183	0	
2.0360	14.0596	-3.89958	0	
2.0367	10.4006	-3.89958	0	
2.0373	7.96961	-2.36252	0	
2.0380	5.21283	0.370033	0	
2.0387	0.0250617	2.19173	0	
2.0393	-3.63394	1.59399	0	
2.0400	-5.46344	-0.540817	0	
2.0407	-5.46344	-1.16703	0	
2.0413	-5.1627	-0.853922	0	
2.0420	-9.12245	0.0569281	0	
2.0427	-15.839	2.50484	0	
2.0433	-19.1972	4.63964	0	
2.0440	-21.6282	4.0419	0	
2.0447	-26.2145	4.0419	0	
2.0453	-24.6857	6.1767	0	
2.0460	-15.839	6.46134	0	
2.0467	-6.06492	3.41569	0	
2.0473	2.18037	1.28088	0	
2.0480	7.04233	3.10258	0	
2.0487	7.66887	3.41569	0	
2.0493	7.36813	-0.853922	0	
2.0500	8.27035	-3.58647	0	
2.0507	9.19763	-3.89958	0	
2.0513	7.36813	-5.72128	0	
2.0520	2.78185	-4.81043	0	
2.0527	1.55382	-3.89958	0	
2.0533	4.91209	-7.57144	0	
2.0540	8.57109	-8.48229	0	
2.0547	9.19763	-4.81043	0	
2.0553	9.19763	-4.81043	0	
2.0560	9.79911	-5.12353	0	
2.0567	11.0271	-2.67562	0	
2.0573	11.0271	-3.89958	0	
2.0580	7.66887	-5.72128	0	
2.0587	2.78185	-3.89958	0	
2.0593	0.0250617	-2.36252	0	
2.0600	-1.80444	-0.853922	0	
2.0607	-2.70666	1.90709	0	
2.0613	-3.3332	0.683138	0	
2.0620	-9.12245	1.59399	0	
2.0627	-19.498	9.22236	0	
2.0633	-25.613	10.1332	0	
2.0640	-25.613	4.0419	0	
2.0647	-24.6857	4.32654	0	
2.0653	-23.7835	5.8636	0	
2.0660	-20.726	2.19173	0	
2.0667	-15.5382	0.683138	0	
2.0673	-11.2527	1.28088	0	
2.0680	-7.29295	-0.227713	0	
2.0687	-3.63394	-0.227713	0	
2.0693	-2.40592	-0.540817	0	
2.0700	-0.275678	-5.12353	0	
2.0707	3.68407	-9.39314	0	
2.0713	4.61135	-7.85608	0	
2.0720	5.21283	-5.72128	0	
2.0727	11.0271	-6.66059	0	
2.0733	16.8164	-7.85608	0	
2.0740	16.8164	-6.03438	0	
2.0747	13.7589	-3.89958	0	
2.0753	11.9294	-4.21268	0	
2.0760	11.6286	-6.34749	0	
2.0767	12.2301	-4.52579	0	
2.0773	10.0999	-1.16703	0	
2.0780	7.96961	0.370033	0	
2.0787	9.19763	1.59399	0	
2.0793	8.27035	2.81794	0	
2.0800	4.31061	3.10258	0	
2.0807	3.38333	3.72879	0	
2.0813	2.78185	4.32654	0	
2.0820	-1.80444	2.81794	0	
2.0827	-7.89443	1.28088	0	
2.0833	-13.0822	3.41569	0	
2.0840	-17.6685	6.1767	0	
2.0847	-17.3677	6.46134	0	
2.0853	-15.5382	5.26585	0	
2.0860	-15.2375	3.41569	0	
2.0867	-13.7087	1.90709	0	
2.0873	-10.0497	1.28088	0	
2.0880	-7.29295	-0.540817	0	
2.0887	-3.0074	-1.16703	0	
2.0893	0.325802	0.370033	0	
2.0900	1.55382	-0.853922	0	
2.0907	4.00987	-1.76477	0	
2.0913	6.14011	0.683138	0	
2.0920	7.96961	0.683138	0	
2.0927	16.5156	-1.45167	0	
2.0933	26.5904	-2.07788	0	
2.0940	29.9487	-4.21268	0	
2.0947	30.2494	-6.34749	0	
2.0953	31.1517	-3.30183	0	
2.0960	28.7207	-1.16703	0	
2.0967	23.8336	-2.36252	0	
2.0973	20.1746	-2.36252	0	
2.0980	13.7589	-1.76477	0	
2.0987	4.61135	-2.07788	0	
2.0993	-5.76418	-1.45167	0	
2.1000	-14.0095	-1.16703	0	
2.1007	-14.611	-1.76477	0	
2.1013	-10.6512	-2.07788	0	
2.1020	-11.2527	-1.16703	0	
2.1027	-16.1397	0.370033	0	
2.1033	-19.498	1.90709	0	
2.1040	-22.2548	3.10258	0	
2.1047	-23.157	4.32654	0	
2.1053	-19.7987	4.63964	0	
2.1060	-14.9117	2.81794	0	
2.1067	-10.9519	1.59399	0	
2.1073	-9.42319	0.967778	0	
2.1080	-10.6512	0.0569281	0	
2.1087	-9.42319	-0.227713	0	
2.1093	-5.46344	-0.227713	0	
2.1100	-2.70666	0.0569281	0	
2.1107	2.48111	1.59399	0	
2.1113	14.6861	0.683138	0	
2.1120	22.3049	-2.07788	0	
2.1127	22.3049	-3.30183	0	
2.1133	24.7609	-4.52579	0	
2.1140	27.4927	-6.34749	0	
2.1147	23.5329	-4.52579	0	
2.1153	17.1171	-3.89958	0	
2.1160	11.9294	-8.48229	0	
2.1167	3.68407	-9.70625	0	
2.1173	-5.46344	-5.72128	0	
2.1180	-10.6512	-4.52579	0	
2.1187	-10.9519	-3.89958	0	
2.1193	-10.3505	0.0569281	0	
2.1200	-9.72393	1.59399	0	
2.1207	-7.89443	0.0569281	0	
2.1213	-6.36566	1.59399	0	
2.1220	-7.59369	2.50484	0	
2.1227	-11.5534	0.683138	0	
2.1233	-16.7412	1.59399	0	
2.1240	-22.8562	4.95275	0	
2.1247	-24.9865	5.26585	0	
2.1253	-22.8562	5.55049	0	
2.1260	-19.1972	6.1767	0	
2.1267	-15.839	3.10258	0	
2.1273	-12.18	0.683138	0	
2.1280	-10.3505	0.967778	0	
2.1287	-9.12245	-0.227713	0	
2.1293	-6.36566	-2.07788	0	
2.1300	-3.3332	-0.853922	0	
2.1307	-0.877158	-0.540817	0	
2.1313	2.18037	-3.58647	0	
2.1320	6.14011	-7.25834	0	
2.1327	12.5559	-10.304	0	
2.1333	18.3451	-10.304	0	
2.1340	20.7761	-8.48229	0	
2.1347	20.1746	-8.48229	0	
2.1353	18.3451	-7.57144	0	
2.1360	15.2876	-4.52579	0	
2.1367	12.5559	-2.67562	0	
2.1373	9.19763	-0.227713	0	
2.1380	6.44085	3.41569	0	
2.1387	5.51357	3.72879	0	
2.1393	5.83937	2.50484	0	
2.1400	4.31061	3.41569	0	
2.1407	2.78185	2.81794	0	
2.1413	0.952343	1.28088	0	
2.1420	-1.5037	3.10258	0	
2.1427	-5.46344	2.81794	0	
2.1433	-13.3829	0.0569281	0	
2.1440	-21.929	0.370033	0	
2.1447	-22.8562	1.59399	0	
2.1453	-21.3275	1.59399	0	
2.1460	-21.929	3.10258	0	
2.1467	-18.8965	5.26585	0	
2.1473	-13.7087	4.95275	0	
2.1480	-12.4807	2.81794	0	
2.1487	-8.82171	0.0569281	0	
2.1493	-2.40592	-2.07788	0	
2.1500	0.952343	-1.76477	0	
2.1507	3.38333	-0.540817	0	
2.1513	2.48111	-2.07788	0	
2.1520	-2.40592	-2.98873	0	
2.1527	2.18037	-3.89958	0	
2.1533	14.6861	-6.66059	0	
2.1540	18.3451	-6.94523	0	
2.1547	18.0444	-4.81043	0	
2.1553	20.1746	-5.12353	0	
2.1560	17.7437	-5.43664	0	
2.1567	12.2301	-0.540817	0	
2.1573	9.19763	3.10258	0	
2.1580	6.74159	1.59399	0	
2.1587	4.61135	2.50484	0	
2.1593	2.78185	6.46134	0	
2.1600	0.0250617	4.32654	0	
2.1607	-3.93468	0.683138	0	
2.1613	-6.69147	2.19173	0	
2.1620	-9.12245	1.59399	0	
2.1627	-14.611	-1.45167	0	
2.1633	-24.6857	1.59399	0	
2.1640	-32.6303	6.77445	0	
2.1647	-31.703	6.1767	0	
2.1653	-30.1742	4.63964	0	
2.1660	-29.272	3.72879	0	
2.1667	-21.929	0.683138	0	
2.1673	-14.3102	-0.853922	0	
2.1680	-12.7815	1.28088	0	
2.1687	-10.3505	1.59399	0	
2.1693	-7.59369	-0.853922	0	
2.1700	-6.06492	-1.16703	0	
2.1707	-1.1779	1.59399	0	
2.1713	2.18037	2.50484	0	
2.1720	3.08259	-0.227713	0	
2.1727	9.79911	-2.07788	0	
2.1733	16.5156	-2.98873	0	
2.1740	15.2876	-3.30183	0	
2.1747	14.9869	-2.67562	0	
2.1753	20.1746	-2.98873	0	
2.1760	25.6631	-6.03438	0	
2.1767	28.1192	-7.85608	0	
2.1773	25.6631	-5.72128	0	
2.1780	20.1746	-3.89958	0	
2.1787	17.1171	-2.98873	0	
2.1793	13.4581	-0.853922	0	
2.1800	5.51357	0.370033	0	
2.1807	0.0250617	0.370033	0	
2.1813	-4.53616	2.50484	0	
2.1820	-15.5382	4.32654	0	
2.1827	-28.9713	4.0419	0	
2.1833	-33.2318	5.8636	0	
2.1840	-29.8735	8.90925	0	
2.1847	-27.4425	8.59615	0	
2.1853	-28.044	5.8636	0	
2.1860	-24.6857	4.95275	0	
2.1867	-16.1397	4.32654	0	
2.1873	-11.5534	2.81794	0	
2.1880	-11.2527	1.90709	0	
2.1887	-9.12245	0.0569281	0	
2.1893	-4.23542	-1.45167	0	
2.1900	-0.877158	-0.227713	0	
2.1907	1.25308	0.370033	0	
2.1913	2.78185	-1.76477	0	
2.1920	4.61135	-2.36252	0	
2.1927	10.4006	-2.67562	0	
2.1933	20.4754	-6.66059	0	
2.1940	26.5904	-11.5279	0	
2.1947	26.5904	-11.5279	0	
2.1953	24.7609	-8.7954	0	
2.1960	22.9314	-6.66059	0	
2.1967	20.1746	-5.72128	0	
2.1973	18.6459	-4.81043	0	
2.1980	15.5884	-3.30183	0	
2.1987	9.19763	-1.16703	0	
2.1993	5.83937	-0.227713	0	
2.2000	7.36813	0.683138	0	
2.2007	8.27035	1.59399	0	
2.2013	6.44085	1.59399	0	
2.2020	3.38333	2.50484	0	
2.2027	-1.5037	4.0419	0	
2.2033	-9.12245	4.0419	0	
2.2040	-14.9117	3.41569	0	
2.2047	-16.1397	3.72879	0	
2.2053	-14.611	3.41569	0	
2.2060	-12.4807	1.59399	0	
2.2067	-9.12245	-0.227713	0	
2.2073	-6.36566	-1.16703	0	
2.2080	-6.69147	-1.16703	0	
2.2087	-6.69147	-2.36252	0	
2.2093	-3.0074	-5.12353	0	
2.2100	-0.576418	-5.72128	0	
2.2107	-0.576418	-2.98873	0	
2.2113	1.85456	-1.76477	0	
2.2120	5.83937	-3.89958	0	
2.2127	11.0271	-5.12353	0	
2.2133	18.3451	-6.66059	0	
2.2140	22.9314	-7.57144	0	
2.2147	21.4027	-6.66059	0	
2.2153	20.1746	-4.21268	0	
2.2160	20.7761	-3.89958	0	
2.2167	17.4179	-3.89958	0	
2.2173	11.0271	-3.89958	0	
2.2180	8.57109	-2.07788	0	
2.2187	8.27035	0.683138	0	
2.2193	6.44085	0.967778	0	
2.2200	4.00987	0.967778	0	
2.2207	2.78185	3.41569	0	
2.2213	2.48111	3.72879	0	
2.2220	-0.576418	1.59399	0	
2.2227	-7.59369	1.59399	0	
2.2233	-15.5382	2.81794	0	
2.2240	-20.726	1.59399	0	
2.2247	-21.929	0.683138	0	
2.2253	-19.498	1.90709	0	
2.2260	-17.6685	1.59399	0	
2.2267	-19.498	0.0569281	0	
2.2273	-19.1972	0.683138	0	
2.2280	-13.3829	1.59399	0	
2.2287	-8.19517	0.0569281	0	
2.2293	-6.99221	-0.540817	0	
2.2300	-3.3332	1.28088	0	
2.2307	0.325802	0.967778	0	
2.2313	1.25308	-1.45167	0	
2.2320	3.08259	-2.07788	0	
2.2327	9.79911	-2.36252	0	
2.2333	18.3451	-4.81043	0	
2.2340	22.9314	-6.34749	0	
2.2347	21.1019	-4.21268	0	
2.2353	18.0444	-3.89958	0	
2.2360	18.3451	-5.12353	0	
2.2367	17.4179	-4.21268	0	
2.2373	13.4581	-1.16703	0	
2.2380	8.87183	-0.227713	0	
2.2387	4.31061	-1.76477	0	
2.2393	0.325802	-0.540817	0	
2.2400	-0.877158	0.683138	0	
2.2407	-0.877158	-1.16703	0	
2.2413	-2.70666	-1.45167	0	
2.2420	-4.86196	0.370033	0	
2.2427	-9.42319	1.59399	0	
2.2433	-15.5382	3.41569	0	
2.2440	-20.0995	5.8636	0	
2.2447	-21.929	5.26585	0	
2.2453	-21.929	2.50484	0	
2.2460	-18.27	0.370033	0	
2.2467	-13.7087	-2.67562	0	
2.2473	-10.6512	-3.89958	0	
2.2480	-9.12245	-1.76477	0	
2.2487	-6.36566	-0.227713	0	
2.2493	-1.5037	-0.540817	0	
2.2500	2.78185	-2.07788	0	
2.2507	1.85456	-3.58647	0	
2.2513	-0.275678	-3.89958	0	
2.2520	1.85456	-3.30183	0	
2.2527	4.61135	-5.72128	0	
2.2533	8.27035	-8.48229	0	
2.2540	14.6861	-8.48229	0	
2.2547	19.2474	-6.66059	0	
2.2553	18.0444	-5.12353	0	
2.2560	14.6861	-2.36252	0	
2.2567	13.1574	-1.16703	0	
2.2573	11.9294	-3.30183	0	
2.2580	8.87183	-3.58647	0	
2.2587	3.08259	-0.540817	0	
2.2593	0.651603	0.967778	0	
2.2600	1.55382	0.967778	0	
2.2607	-1.5037	1.90709	0	
2.2613	-5.76418	4.32654	0	
2.2620	-5.1627	6.1767	0	
2.2627	-7.59369	5.26585	0	
2.2633	-13.0822	4.63964	0	
2.2640	-9.12245	6.46134	0	
2.2647	-0.275678	7.08755	0	
2.2653	2.18037	3.41569	0	
2.2660	3.38333	-0.853922	0	
2.2667	4.61135	-2.36252	0	
2.2673	-0.275678	-2.67562	0	
2.2680	-6.36566	-1.76477	0	
2.2687	-7.29295	-0.540817	0	
2.2693	-9.12245	-1.76477	0	
2.2700	-12.7815	-3.30183	0	
2.2707	-14.611	-2.07788	0	
2.2713	-13.7087	-1.45167	0	
2.2720	-9.12245	-3.30183	0	
2.2727	-2.10518	-4.21268	0	
2.2733	3.68407	-4.52579	0	
2.2740	9.79911	-3.89958	0	
2.2747	13.7589	-3.30183	0	
2.2753	13.1574	-4.52579	0	
2.2760	11.6286	-6.34749	0	
2.2767	11.0271	-2.98873	0	
2.2773	8.87183	0.0569281	0	
2.2780	5.83937	-1.45167	0	
2.2787	3.08259	-0.227713	0	
2.2793	0.952343	4.32654	0	
2.2800	-0.877158	6.1767	0	
2.2807	-3.63394	7.6853	0	
2.2813	-5.46344	8.59615	0	
2.2820	-5.46344	6.1767	0	
2.2827	-7.59369	4.32654	0	
2.2833	-15.5382	4.32654	0	
2.2840	-21.0267	4.32654	0	
2.2847	-19.7987	4.0419	0	
2.2853	-17.3677	3.41569	0	
2.2860	-16.1397	2.50484	0	
2.2867	-12.4807	3.10258	0	
2.2873	-7.29295	3.41569	0	
2.2880	-4.86196	0.967778	0	
2.2887	-6.69147	0.0569281	0	
2.2893	-6.69147	-0.227713	0	
2.2900	0.0250617	-2.67562	0	
2.2907	4.61135	-2.07788	0	
2.2913	1.85456	0.967778	0	
2.2920	1.85456	-0.540817	0	
2.2927	11.9294	-3.89958	0	
2.2933	20.1746	-3.89958	0	
2.2940	20.7761	-4.52579	0	
2.2947	21.4027	-5.72128	0	
2.2953	22.3049	-5.72128	0	
2.2960	19.2474	-5.43664	0	
2.2967	15.5884	-3.58647	0	
2.2973	13.7589	-0.227713	0	
2.2980	10.0999	0.370033	0	
2.2987	5.51357	0.370033	0	
2.2993	5.21283	2.19173	0	
2.3000	6.14011	1.28088	0	
2.3007	2.78185	-1.16703	0	
2.3013	-1.80444	0.683138	0	
2.3020	-3.93468	3.41569	0	
2.3027	-9.42319	4.32654	0	
2.3033	-18.27	6.1767	0	
2.3040	-21.0267	8.59615	0	
2.3047	-21.929	6.1767	0	
2.3053	-24.9865	1.90709	0	
2.3060	-22.8562	1.90709	0	
2.3067	-17.067	1.90709	0	
2.3073	-18.27	-3.89958	0	
2.3080	-18.27	-7.57144	0	
2.3087	-8.52097	-3.89958	0	
2.3093	-3.63394	-1.76477	0	
2.3100	-5.76418	-3.89958	0	
2.3107	-3.63394	-2.36252	0	
2.3113	0.325802	-0.853922	0	
2.3120	2.48111	-2.98873	0	
2.3127	8.57109	-3.89958	0	
2.3133	15.8891	-2.98873	0	
2.3140	19.2474	-3.89958	0	
2.3147	22.3049	-3.30183	0	
2.3153	22.0041	-2.36252	0	
2.3160	17.1171	-3.58647	0	
2.3167	16.2149	-3.58647	0	
2.3173	17.4179	-1.76477	0	
2.3180	13.7589	-0.227713	0	
2.3187	9.19763	1.59399	0	
2.3193	6.74159	2.50484	0	
2.3200	4.61135	2.81794	0	
2.3207	3.68407	3.41569	0	
2.3213	3.08259	3.41569	0	
2.3220	-0.877158	3.72879	0	
2.3227	-6.69147	5.26585	0	
2.3233	-10.9519	3.41569	0	
2.3240	-14.611	1.28088	0	
2.3247	-18.27	2.50484	0	
2.3253	-19.498	2.19173	0	
2.3260	-15.2375	-2.07788	0	
2.3267	-8.52097	-3.58647	0	
2.3273	-5.1627	-1.45167	0	
2.3280	-3.63394	-0.227713	0	
2.3287	-1.80444	-0.853922	0	
2.3293	-0.275678	0.370033	0	
2.3300	-0.877158	1.59399	0	
2.3307	0.952343	0.0569281	0	
2.3313	3.68407	-2.98873	0	
2.3320	4.31061	-4.21268	0	
2.3327	5.21283	-6.34749	0	
2.3333	9.49837	-7.57144	0	
2.3340	14.6861	-4.81043	0	
2.3347	17.7437	-1.16703	0	
2.3353	18.0444	-0.540817	0	
2.3360	16.8164	0.370033	0	
2.3367	16.2149	2.50484	0	
2.3373	15.5884	4.32654	0	
2.3380	10.4006	6.77445	0	
2.3387	4.31061	6.77445	0	
2.3393	7.36813	3.41569	0	
2.3400	17.1171	1.90709	0	
2.3407	20.1746	1.59399	0	
2.3413	15.2876	-1.45167	0	
2.3420	10.0999	-3.58647	0	
2.3427	1.55382	-3.30183	0	
2.3433	-12.4807	-4.81043	0	
2.3440	-21.6282	-5.12353	0	
2.3447	-24.385	-2.07788	0	
2.3453	-29.5728	-1.76477	0	
2.3460	-34.7605	-2.07788	0	
2.3467	-32.0038	0.967778	0	
2.3473	-23.7835	2.50484	0	
2.3480	-17.3677	1.28088	0	
2.3487	-14.3102	-0.227713	0	
2.3493	-12.7815	-3.30183	0	
2.3500	-11.8792	-4.81043	0	
2.3507	-9.12245	-2.67562	0	
2.3513	-4.86196	-1.76477	0	
2.3520	0.325802	-4.81043	0	
2.3527	4.91209	-6.34749	0	
2.3533	8.87183	-5.72128	0	
2.3540	12.2301	-6.66059	0	
2.3547	15.5884	-8.7954	0	
2.3553	18.3451	-8.48229	0	
2.3560	18.3451	-5.72128	0	
2.3567	14.6861	-4.81043	0	
2.3573	11.0271	-4.81043	0	
2.3580	10.0999	-3.89958	0	
2.3587	9.19763	-2.67562	0	
2.3593	7.04233	-1.16703	0	
2.3600	4.00987	0.0569281	0	
2.3607	2.48111	-0.227713	0	
2.3613	2.78185	-0.540817	0	
2.3620	3.68407	0.683138	0	
2.3627	-0.576418	2.81794	0	
2.3633	-10.3505	4.32654	0	
2.3640	-18.27	6.1767	0	
2.3647	-19.7987	7.08755	0	
2.3653	-18.27	4.95275	0	
2.3660	-17.067	3.10258	0	
2.3667	-13.7087	3.41569	0	
2.3673	-8.82171	3.10258	0	
2.3680	-5.76418	1.28088	0	
2.3687	-4.53616	0.370033	0	
2.3693	-3.63394	0.0569281	0	
2.3700	-1.80444	-0.540817	0	
2.3707	2.78185	-1.16703	0	
2.3713	6.74159	-2.07788	0	
2.3720	8.27035	-3.30183	0	
2.3727	11.0271	-3.89958	0	
2.3733	18.3451	-4.81043	0	
2.3740	21.7034	-4.52579	0	
2.3747	19.8739	-2.98873	0	
2.3753	19.2474	-2.98873	0	
2.3760	18.3451	-4.21268	0	
2.3767	12.2301	-3.89958	0	
2.3773	6.44085	-4.21268	0	
2.3780	3.68407	-6.66059	0	
2.3787	0.952343	-4.81043	0	
2.3793	-1.1779	-2.36252	0	
2.3800	-1.80444	-3.30183	0	
2.3807	-3.0074	-3.30183	0	
2.3813	-3.63394	-0.227713	0	
2.3820	-3.93468	2.50484	0	
2.3827	-9.42319	2.50484	0	
2.3833	-18.8965	0.967778	0	
2.3840	-24.0843	-0.227713	0	
2.3847	-22.8562	0.0569281	0	
2.3853	-19.7987	0.683138	0	
2.3860	-20.0995	0.683138	0	
2.3867	-20.726	1.28088	0	
2.3873	-16.1397	-0.227713	0	
2.3880	-10.9519	-1.16703	0	
2.3887	-9.12245	-0.540817	0	
2.3893	-6.69147	-2.07788	0	
2.3900	-3.0074	-3.89958	0	
2.3907	-3.3332	-2.36252	0	
2.3913	-3.63394	-0.540817	0	
2.3920	1.25308	-2.07788	0	
2.3927	7.04233	-3.89958	0	
2.3933	11.0271	-4.81043	0	
2.3940	14.9869	-6.34749	0	
2.3947	17.1171	-6.66059	0	
2.3953	14.6861	-5.43664	0	
2.3960	11.3279	-3.89958	0	
2.3967	8.87183	-1.16703	0	
2.3973	6.44085	1.59399	0	
2.3980	4.31061	2.19173	0	
2.3987	2.78185	0.0569281	0	
2.3993	1.85456	-1.16703	0	
2.4000	0.325802	-0.227713	0	
2.4007	-0.877158	1.90709	0	
2.4013	-2.10518	2.50484	0	
2.4020	-3.0074	2.81794	0	
2.4027	-7.29295	3.72879	0	
2.4033	-15.839	4.32654	0	
2.4040	-22.2548	4.32654	0	
2.4047	-22.8562	2.81794	0	
2.4053	-21.3275	1.90709	0	
2.4060	-20.0995	2.81794	0	
2.4067	-18.27	1.28088	0	
2.4073	-18.5958	-1.16703	0	
2.4080	-17.3677	0.967778	0	
2.4087	-11.8792	3.10258	0	
2.4093	-9.12245	0.0569281	0	
2.4100	-8.82171	-2.07788	0	
2.4107	-4.53616	-0.227713	0	
2.4113	-2.70666	0.683138	0	
2.4120	-2.70666	0.683138	0	
2.4127	3.68407	-0.853922	0	
2.4133	11.0271	-3.89958	0	
2.4140	12.5559	-5.43664	0	
2.4147	11.9294	-3.89958	0	
2.4153	11.9294	-3.30183	0	
2.4160	11.9294	-2.07788	0	
2.4167	11.9294	-0.227713	0	
2.4173	8.27035	1.90709	0	
2.4180	4.31061	4.32654	0	
2.4187	6.44085	3.72879	0	
2.4193	5.83937	0.683138	0	
2.4200	-1.1779	1.28088	0	
2.4207	-2.70666	2.50484	0	
2.4213	-0.576418	1.59399	0	
2.4220	-4.53616	3.41569	0	
2.4227	-10.6512	6.1767	0	
2.4233	-16.4405	5.26585	0	
2.4240	-23.7835	6.77445	0	
2.4247	-25.613	11.9549	0	
2.4253	-20.0995	11.6703	0	
2.4260	-17.3677	7.08755	0	
2.4267	-17.6685	7.08755	0	
2.4273	-15.2375	8.90925	0	
2.4280	-10.3505	7.08755	0	
2.4287	-6.99221	4.32654	0	
2.4293	-6.69147	5.55049	0	
2.4300	-6.06492	7.40066	0	
2.4307	-2.70666	5.26585	0	
2.4313	-2.40592	3.72879	0	
2.4320	-3.3332	4.0419	0	
2.4327	2.78185	-0.853922	0	
2.4333	11.0271	-6.66059	0	
2.4340	13.7589	-4.81043	0	
2.4347	14.0596	-2.07788	0	
2.4353	14.9869	-3.89958	0	
2.4360	16.5156	-2.98873	0	
2.4367	16.8164	-0.227713	0	
2.4373	12.5559	-3.89958	0	
2.4380	7.36813	-7.25834	0	
2.4387	6.14011	-3.89958	0	
2.4393	5.21283	-0.227713	0	
2.4400	1.85456	-0.227713	0	
2.4407	-0.576418	-0.853922	0	
2.4413	-1.80444	-0.227713	0	
2.4420	-1.80444	2.50484	0	
2.4427	-4.86196	5.55049	0	
2.4433	-14.611	6.1767	0	
2.4440	-23.157	7.08755	0	
2.4447	-25.613	8.31151	0	
2.4453	-22.8562	5.8636	0	
2.4460	-14.0095	2.19173	0	
2.4467	-3.63394	0.967778	0	
2.4473	0.651603	2.19173	0	
2.4480	3.08259	2.81794	0	
2.4487	7.04233	1.59399	0	
2.4493	5.21283	-0.227713	0	
2.4500	0.952343	-0.227713	0	
2.4507	1.55382	-0.853922	0	
2.4513	0.952343	-2.07788	0	
2.4520	-5.76418	-2.07788	0	
2.4527	-9.72393	-2.98873	0	
2.4533	-3.63394	-5.72128	0	
2.4540	5.83937	-5.72128	0	
2.4547	9.19763	-4.81043	0	
2.4553	6.44085	-5.72128	0	
2.4560	6.74159	-6.34749	0	
2.4567	7.36813	-3.89958	0	
2.4573	4.00987	-2.07788	0	
2.4580	0.952343	0.0569281	0	
2.4587	0.952343	2.50484	0	
2.4593	-0.576418	2.81794	0	
2.4600	-2.70666	1.59399	0	
2.4607	-4.53616	2.50484	0	
2.4613	-7.29295	1.90709	0	
2.4620	-7.89443	0.683138	0	
2.4627	-10.3505	1.90709	0	
2.4633	-17.3677	4.32654	0	
2.4640	-21.0267	3.41569	0	
2.4647	-20.4253	3.10258	0	
2.4653	-20.726	4.32654	0	
2.4660	-19.1972	2.50484	0	
2.4667	-16.1397	-0.853922	0	
2.4673	-14.9117	-2.07788	0	
2.4680	-12.18	-2.98873	0	
2.4687	-10.0497	-2.98873	0	
2.4693	-12.7815	-2.07788	0	
2.4700	-14.0095	-3.30183	0	
2.4707	-10.0497	-5.12353	0	
2.4713	-5.76418	-4.52579	0	
2.4720	-2.10518	-4.21268	0	
2.4727	1.25308	-7.25834	0	
2.4733	5.21283	-10.304	0	
2.4740	12.5559	-11.2148	0	
2.4747	18.3451	-10.9302	0	
2.4753	17.4179	-7.57144	0	
2.4760	15.5884	-5.43664	0	
2.4767	14.6861	-5.72128	0	
2.4773	12.5559	-4.81043	0	
2.4780	10.4006	-2.98873	0	
2.4787	9.19763	-4.21268	0	
2.4793	8.27035	-7.25834	0	
2.4800	8.27035	-7.85608	0	
2.4807	5.83937	-6.03438	0	
2.4813	4.00987	-3.58647	0	
2.4820	4.00987	-2.07788	0	
2.4827	-2.70666	-1.76477	0	
2.4833	-14.611	-1.16703	0	
2.4840	-19.498	-0.227713	0	
2.4847	-21.0267	1.90709	0	
2.4853	-25.613	3.41569	0	
2.4860	-25.613	2.19173	0	
2.4867	-19.7987	1.28088	0	
2.4873	-16.4405	1.59399	0	
2.4880	-13.0822	-1.16703	0	
2.4887	-7.29295	-4.52579	0	
2.4893	-4.53616	-3.89958	0	
2.4900	-2.70666	-2.67562	0	
2.4907	1.55382	-2.67562	0	
2.4913	4.00987	-1.16703	0	
2.4920	5.83937	0.370033	0	
2.4927	12.2301	-2.07788	0	
2.4933	20.4754	-4.52579	0	
2.4940	23.5329	-4.81043	0	
2.4947	23.2322	-5.43664	0	
2.4953	23.5329	-5.72128	0	
2.4960	20.7761	-3.89958	0	
2.4967	15.5884	-4.81043	0	
2.4973	13.7589	-8.16919	0	
2.4980	13.7589	-8.7954	0	
2.4987	10.7013	-6.94523	0	
2.4993	6.44085	-5.43664	0	
2.5000	4.61135	-3.89958	0	
2.5007	4.61135	-2.67562	0	
2.5013	3.68407	-3.58647	0	
2.5020	1.85456	-1.45167	0	
2.5027	-4.23542	2.50484	0	
2.5033	-10.6512	3.41569	0	
2.5040	-14.3102	1.59399	0	
2.5047	-15.5382	1.59399	0	
2.5053	-14.611	2.50484	0	
2.5060	-11.8792	2.50484	0	
2.5067	-7.89443	0.967778	0	
2.5073	-3.63394	-2.07788	0	
2.5080	-0.877158	-2.98873	0	
2.5087	-1.1779	-1.76477	0	
2.5093	0.325802	-3.30183	0	
2.5100	4.61135	-6.66059	0	
2.5107	7.66887	-8.7954	0	
2.5113	7.96961	-10.304	0	
2.5120	8.27035	-9.39314	0	
2.5127	9.79911	-7.25834	0	
2.5133	14.6861	-7.85608	0	
2.5140	22.0041	-8.7954	0	
2.5147	23.8336	-7.25834	0	
2.5153	20.4754	-5.72128	0	
2.5160	17.4179	-4.81043	0	
2.5167	14.6861	-3.89958	0	
2.5173	11.3279	-4.81043	0	
2.5180	9.19763	-3.89958	0	
2.5187	7.96961	-0.227713	0	
2.5193	6.44085	0.967778	0	
2.5200	5.51357	1.90709	0	
2.5207	4.91209	4.32654	0	
2.5213	4.31061	2.50484	0	
2.5220	2.48111	-0.227713	0	
2.5227	-2.70666	2.50484	0	
2.5233	-10.6512	5.26585	0	
2.5240	-15.839	2.81794	0	
2.5247	-17.067	1.59399	0	
2.5253	-18.27	2.81794	0	
2.5260	-20.4253	2.81794	0	
2.5267	-20.0995	3.41569	0	
2.5273	-15.839	1.90709	0	
2.5280	-10.0497	-2.98873	0	
2.5287	-7.29295	-5.43664	0	
2.5293	-5.76418	-4.81043	0	
2.5300	-2.70666	-6.03438	0	
2.5307	0.325802	-6.66059	0	
2.5313	0.952343	-4.81043	0	
2.5320	2.78185	-5.72128	0	
2.5327	8.27035	-8.48229	0	
2.5333	15.5884	-8.48229	0	
2.5340	23.2322	-6.66059	0	
2.5347	25.9639	-5.43664	0	
2.5353	25.0617	-4.81043	0	
2.5360	27.7934	-4.81043	0	
2.5367	31.4775	-3.89958	0	
2.5373	29.3222	-1.76477	0	
2.5380	24.7609	-2.07788	0	
2.5387	19.5732	-2.98873	0	
2.5393	11.9294	-1.16703	0	
2.5400	5.83937	0.967778	0	
2.5407	1.55382	0.683138	0	
2.5413	-6.69147	1.59399	0	
2.5420	-16.4405	3.41569	0	
2.5427	-24.0843	1.90709	0	
2.5433	-29.5728	1.59399	0	
2.5440	-30.8008	4.32654	0	
2.5447	-28.044	4.32654	0	
2.5453	-28.044	1.59399	0	
2.5460	-26.5152	3.41569	0	
2.5467	-18.27	5.8636	0	
2.5473	-12.18	2.50484	0	
2.5480	-11.8792	0.0569281	0	
2.5487	-8.19517	1.90709	0	
2.5493	-3.0074	0.683138	0	
2.5500	-1.1779	-2.07788	0	
2.5507	0.651603	-0.540817	0	
2.5513	2.78185	3.41569	0	
2.5520	2.78185	3.72879	0	
2.5527	7.04233	0.683138	0	
2.5533	12.8566	-2.98873	0	
2.5540	12.8566	-4.21268	0	
2.5547	14.0596	-4.52579	0	
2.5553	19.2474	-5.12353	0	
2.5560	20.1746	-5.43664	0	
2.5567	15.2876	-4.52579	0	
2.5573	10.0999	-4.81043	0	
2.5580	6.74159	-6.03438	0	
2.5587	5.83937	-4.81043	0	
2.5593	6.44085	-2.36252	0	
2.5600	6.74159	-2.36252	0	
2.5607	7.66887	-2.07788	0	
2.5613	7.36813	0.370033	0	
2.5620	4.00987	0.683138	0	
2.5627	0.0250617	1.90709	0	
2.5633	-3.63394	5.26585	0	
2.5640	-10.0497	6.1767	0	
2.5647	-17.6685	4.63964	0	
2.5653	-22.8562	5.8636	0	
2.5660	-22.8562	6.77445	0	
2.5667	-19.7987	5.26585	0	
2.5673	-16.1397	3.41569	0	
2.5680	-12.7815	2.50484	0	
2.5687	-10.9519	1.90709	0	
2.5693	-10.0497	0.0569281	0	
2.5700	-9.42319	-2.36252	0	
2.5707	-8.19517	-2.67562	0	
2.5713	-4.23542	-2.36252	0	
2.5720	0.325802	-3.89958	0	
2.5727	2.78185	-3.89958	0	
2.5733	8.27035	-3.89958	0	
2.5740	17.1171	-6.03438	0	
2.5747	19.8739	-5.72128	0	
2.5753	14.6861	-2.07788	0	
2.5760	10.4006	0.0569281	0	
2.5767	10.0999	-1.16703	0	
2.5773	10.4006	-0.853922	0	
2.5780	8.57109	1.28088	0	
2.5787	6.44085	3.41569	0	
2.5793	4.61135	4.32654	0	
2.5800	2.18037	4.63964	0	
2.5807	-1.80444	3.41569	0	
2.5813	-3.0074	0.683138	0	
2.5820	-1.5037	-0.540817	0	
2.5827	-4.53616	1.59399	0	
2.5833	-13.0822	5.26585	0	
2.5840	-17.9692	6.1767	0	
2.5847	-17.6685	4.63964	0	
2.5853	-18.27	4.0419	0	
2.5860	-19.1972	3.72879	0	
2.5867	-16.4405	1.28088	0	
2.5873	-9.72393	-1.16703	0	
2.5880	-4.86196	-2.07788	0	
2.5887	-4.23542	-2.67562	0	
2.5893	-3.3332	-2.07788	0	
2.5900	0.651603	-1.16703	0	
2.5907	3.68407	-1.45167	0	
2.5913	3.68407	-0.853922	0	
2.5920	4.00987	-1.45167	0	
2.5927	7.96961	-5.43664	0	
2.5933	15.5884	-6.94523	0	
2.5940	22.6056	-5.43664	0	
2.5947	25.6631	-5.12353	0	
2.5953	26.5904	-3.89958	0	
2.5960	26.2897	-1.45167	0	
2.5967	22.3049	-3.89958	0	
2.5973	15.5884	-5.12353	0	
2.5980	10.0999	-0.853922	0	
2.5987	5.21283	-0.227713	0	
2.5993	-2.70666	-2.07788	0	
2.6000	-9.12245	-0.227713	0	
2.6007	-7.29295	2.50484	0	
2.6013	-2.70666	1.59399	0	
2.6020	-4.53616	-0.540817	0	
2.6027	-8.82171	-1.45167	0	
2.6033	-14.3102	2.50484	0	
2.6040	-21.0267	6.1767	0	
2.6047	-22.8562	2.50484	0	
2.6053	-19.7987	-1.45167	0	
2.6060	-17.9692	2.50484	0	
2.6067	-14.611	5.55049	0	
2.6073	-9.12245	2.81794	0	
2.6080	-6.69147	0.683138	0	
2.6087	-5.1627	2.19173	0	
2.6093	0.0250617	3.41569	0	
2.6100	2.78185	3.41569	0	
2.6107	3.68407	2.50484	0	
2.6113	5.51357	0.967778	0	
2.6120	8.27035	-1.16703	0	
2.6127	14.6861	-4.81043	0	
2.6133	23.2322	-8.7954	0	
2.6140	27.1919	-10.0194	0	
2.6147	25.6631	-8.7954	0	
2.6153	25.3624	-7.57144	0	
2.6160	25.6631	-3.89958	0	
2.6167	24.1344	-0.540817	0	
2.6173	20.1746	-1.76477	0	
2.6180	17.1171	-1.76477	0	
2.6187	16.8164	1.90709	0	
2.6193	15.5884	2.19173	0	
2.6200	10.0999	1.28088	0	
2.6207	8.57109	5.26585	0	
2.6213	12.2301	7.9984	0	
2.6220	14.6861	6.77445	0	
2.6227	11.6286	6.1767	0	
2.6233	2.48111	7.08755	0	
2.6240	-9.12245	8.59615	0	
2.6247	-12.4807	9.8201	0	
2.6253	-8.19517	8.90925	0	
2.6260	-6.36566	8.31151	0	
2.6267	-9.72393	7.6853	0	
2.6273	-14.611	5.55049	0	
2.6280	-19.7987	5.55049	0	
2.6287	-24.385	8.31151	0	
2.6293	-23.7835	7.08755	0	
2.6300	-17.9692	2.81794	0	
2.6307	-14.9117	1.59399	0	
2.6313	-16.1397	-1.16703	0	
2.6320	-12.4807	-5.72128	0	
2.6327	-3.0074	-7.57144	0	
2.6333	5.51357	-8.16919	0	
2.6340	12.8566	-7.25834	0	
2.6347	16.5156	-4.52579	0	
2.6353	12.2301	-3.89958	0	
2.6360	9.79911	-4.81043	0	
2.6367	10.0999	-2.36252	0	
2.6373	4.61135	-0.227713	0	
2.6380	0.651603	-2.67562	0	
2.6387	2.78185	-3.89958	0	
2.6393	0.952343	-0.853922	0	
2.6400	-1.80444	1.59399	0	
2.6407	-0.576418	0.683138	0	
2.6413	-0.576418	-1.16703	0	
2.6420	-2.70666	-0.227713	0	
2.6427	-4.53616	4.0419	0	
2.6433	-13.7087	6.1767	0	
2.6440	-22.2548	5.26585	0	
2.6447	-20.4253	4.32654	0	
2.6453	-18.27	4.32654	0	
2.6460	-18.8965	4.32654	0	
2.6467	-13.7087	4.63964	0	
2.6473	-9.42319	2.50484	0	
2.6480	-10.9519	-0.227713	0	
2.6487	-7.29295	0.683138	0	
2.6493	-0.576418	0.967778	0	
2.6500	0.651603	-2.67562	0	
2.6507	1.85456	-3.89958	0	
2.6513	5.51357	0.0569281	0	
2.6520	9.19763	0.683138	0	
2.6527	13.7589	-2.67562	0	
2.6533	17.7437	-2.07788	0	
2.6540	17.7437	-1.16703	0	
2.6547	17.4179	-2.98873	0	
2.6553	19.2474	-2.98873	0	
2.6560	19.2474	-1.76477	0	
2.6567	18.6459	-1.16703	0	
2.6573	18.6459	0.0569281	0	
2.6580	17.1171	1.59399	0	
2.6587	14.3854	2.19173	0	
2.6593	11.6286	4.0419	0	
2.6600	8.27035	4.0419	0	
2.6607	4.91209	0.0569281	0	
2.6613	3.38333	-0.227713	0	
2.6620	1.85456	3.41569	0	
2.6627	-3.63394	4.32654	0	
2.6633	-11.8792	4.95275	0	
2.6640	-17.6685	7.40066	0	
2.6647	-17.067	7.08755	0	
2.6653	-13.7087	5.55049	0	
2.6660	-14.9117	8.59615	0	
2.6667	-18.27	9.8201	0	
2.6673	-16.7412	6.1767	0	
2.6680	-11.2527	3.72879	0	
2.6687	-6.69147	5.26585	0	
2.6693	-2.70666	7.08755	0	
2.6700	1.25308	6.77445	0	
2.6707	2.18037	4.0419	0	
2.6713	0.0250617	2.50484	0	
2.6720	0.325802	4.32654	0	
2.6727	6.44085	3.41569	0	
2.6733	15.5884	-0.227713	0	
2.6740	19.8739	0.0569281	0	
2.6747	20.1746	3.41569	0	
2.6753	22.0041	2.50484	0	
2.6760	22.0041	-0.853922	0	
2.6767	19.2474	-1.16703	0	
2.6773	17.1171	0.967778	0	
2.6780	14.6861	2.50484	0	
2.6787	9.19763	3.41569	0	
2.6793	4.91209	3.41569	0	
2.6800	2.78185	0.967778	0	
2.6807	-1.80444	-0.227713	0	
2.6813	-2.70666	1.90709	0	
2.6820	0.952343	2.81794	0	
2.6827	-2.10518	2.81794	0	
2.6833	-11.2527	7.40066	0	
2.6840	-16.1397	10.7594	0	
2.6847	-15.5382	6.77445	0	
2.6853	-14.3102	4.32654	0	
2.6860	-12.7815	7.6853	0	
2.6867	-10.6512	7.9984	0	
2.6873	-5.46344	2.50484	0	
2.6880	5.51357	-3.58647	0	
2.6887	14.9869	-6.66059	0	
2.6893	14.6861	-6.03438	0	
2.6900	11.0271	-4.21268	0	
2.6907	9.79911	-5.72128	0	
2.6913	4.61135	-7.85608	0	
2.6920	-3.3332	-6.66059	0	
2.6927	-3.93468	-5.43664	0	
2.6933	0.952343	-5.72128	0	
2.6940	3.68407	-5.43664	0	
2.6947	4.91209	-4.81043	0	
2.6953	6.44085	-5.72128	0	
2.6960	6.44085	-7.85608	0	
2.6967	5.51357	-9.39314	0	
2.6973	4.31061	-8.7954	0	
2.6980	0.651603	-5.72128	0	
2.6987	-3.63394	-3.89958	0	
2.6993	-5.1627	-2.98873	0	
2.7000	-6.06492	-1.16703	0	
2.7007	-7.89443	0.683138	0	
2.7013	-6.99221	-0.853922	0	
2.7020	-6.06492	-2.07788	0	
2.7027	-10.3505	0.0569281	0	
2.7033	-16.4405	3.10258	0	
2.7040	-18.5958	2.50484	0	
2.7047	-19.1972	2.19173	0	
2.7053	-20.0995	2.50484	0	
2.7060	-18.8965	0.967778	0	
2.7067	-19.1972	0.683138	0	
2.7073	-20.4253	0.0569281	0	
2.7080	-14.611	-3.89958	0	
2.7087	-5.76418	-6.34749	0	
2.7093	-3.3332	-2.67562	0	
2.7100	-1.5037	-2.07788	0	
2.7107	3.08259	-3.89958	0	
2.7113	3.38333	-0.227713	0	
2.7120	1.85456	0.0569281	0	
2.7127	7.36813	-5.43664	0	
2.7133	15.2876	-6.66059	0	
2.7140	18.3451	-2.98873	0	
2.7147	21.4027	-2.67562	0	
2.7153	27.1919	-5.12353	0	
2.7160	29.0214	-6.66059	0	
2.7167	25.6631	-6.03438	0	
2.7173	22.9314	-5.43664	0	
2.7180	20.1746	-4.81043	0	
2.7187	16.2149	-2.36252	0	
2.7193	15.5884	0.683138	0	
2.7200	16.8164	0.683138	0	
2.7207	11.9294	0.683138	0	
2.7213	4.31061	1.28088	0	
2.7220	0.325802	1.28088	0	
2.7227	-3.0074	4.63964	0	
2.7233	-8.82171	7.40066	0	
2.7240	-16.1397	5.8636	0	
2.7247	-19.7987	6.1767	0	
2.7253	-18.5958	7.9984	0	
2.7260	-18.5958	4.0419	0	
2.7267	-21.929	1.59399	0	
2.7273	-20.4253	3.72879	0	
2.7280	-14.9117	2.19173	0	
2.7287	-12.7815	-0.853922	0	
2.7293	-10.9519	0.967778	0	
2.7300	-7.29295	2.19173	0	
2.7307	-6.06492	0.0569281	0	
2.7313	-4.53616	-0.227713	0	
2.7320	0.651603	0.0569281	0	
2.7327	4.61135	-0.853922	0	
2.7333	9.19763	-1.76477	0	
2.7340	17.7437	-3.89958	0	
2.7347	24.1344	-5.72128	0	
2.7353	22.9314	-3.89958	0	
2.7360	19.2474	-1.76477	0	
2.7367	17.7437	-2.67562	0	
2.7373	16.5156	-2.98873	0	
2.7380	13.7589	-0.227713	0	
2.7387	11.0271	1.90709	0	
2.7393	11.0271	2.81794	0	
2.7400	10.0999	4.32654	0	
2.7407	4.61135	4.0419	0	
2.7413	2.78185	3.10258	0	
2.7420	2.18037	3.41569	0	
2.7427	-5.76418	4.63964	0	
2.7433	-14.3102	5.8636	0	
2.7440	-16.4405	5.55049	0	
2.7447	-19.498	3.41569	0	
2.7453	-24.6857	2.50484	0	
2.7460	-22.5555	4.32654	0	
2.7467	-17.3677	5.8636	0	
2.7473	-16.7412	3.10258	0	
2.7480	-13.0822	-0.540817	0	
2.7487	-2.70666	-2.98873	0	
2.7493	4.61135	-3.89958	0	
2.7500	7.36813	-2.98873	0	
2.7507	9.19763	-0.853922	0	
2.7513	8.87183	-1.76477	0	
2.7520	5.83937	-3.58647	0	
2.7527	6.44085	-3.89958	0	
2.7533	11.9294	-4.81043	0	
2.7540	14.3854	-5.72128	0	
2.7547	10.4006	-4.21268	0	
2.7553	6.44085	-5.12353	0	
2.7560	4.31061	-7.25834	0	
2.7567	2.78185	-2.98873	0	
2.7573	0.651603	2.50484	0	
2.7580	-1.1779	0.967778	0	
2.7587	0.0250617	0.0569281	0	
2.7593	2.78185	1.59399	0	
2.7600	-0.877158	0.0569281	0	
2.7607	-9.42319	-0.227713	0	
2.7613	-10.3505	3.10258	0	
2.7620	-6.06492	4.0419	0	
2.7627	-9.42319	3.41569	0	
2.7633	-16.4405	4.95275	0	
2.7640	-17.3677	4.32654	0	
2.7647	-18.27	-0.227713	0	
2.7653	-22.8562	-3.30183	0	
2.7660	-21.929	-2.67562	0	
2.7667	-16.4405	-0.853922	0	
2.7673	-12.4807	-1.76477	0	
2.7680	-8.19517	-4.81043	0	
2.7687	-5.1627	-7.57144	0	
2.7693	-4.23542	-9.39314	0	
2.7700	-1.80444	-7.85608	0	
2.7707	2.18037	-3.30183	0	
2.7713	4.00987	-1.16703	0	
2.7720	4.91209	-2.98873	0	
2.7727	7.96961	-3.89958	0	
2.7733	14.9869	-6.94523	0	
2.7740	22.6056	-8.48229	0	
2.7747	25.3624	-5.72128	0	
2.7753	25.0617	-3.58647	0	
2.7760	22.9314	-3.89958	0	
2.7767	17.7437	-2.67562	0	
2.7773	12.8566	-1.76477	0	
2.7780	8.27035	-3.89958	0	
2.7787	1.85456	-4.81043	0	
2.7793	-1.5037	-3.89958	0	
2.7800	-0.576418	-3.89958	0	
2.7807	-2.70666	-3.30183	0	
2.7813	-5.46344	-2.07788	0	
2.7820	-4.53616	-1.76477	0	
2.7827	-9.12245	-0.227713	0	
2.7833	-18.27	3.41569	0	
2.7840	-22.5555	3.10258	0	
2.7847	-21.929	0.0569281	0	
2.7853	-21.6282	-0.227713	0	
2.7860	-19.7987	0.967778	0	
2.7867	-17.9692	-0.853922	0	
2.7873	-18.27	-2.07788	0	
2.7880	-14.0095	-1.16703	0	
2.7887	-6.36566	-2.36252	0	
2.7893	-3.63394	-6.94523	0	
2.7900	-4.53616	-11.2148	0	
2.7907	0.0250617	-10.304	0	
2.7913	3.68407	-5.72128	0	
2.7920	2.78185	-5.12353	0	
2.7927	6.44085	-8.48229	0	
2.7933	16.5156	-8.48229	0	
2.7940	21.1019	-6.34749	0	
2.7947	21.1019	-7.85608	0	
2.7953	23.2322	-8.48229	0	
2.7960	22.3049	-6.66059	0	
2.7967	18.3451	-6.34749	0	
2.7973	19.8739	-5.72128	0	
2.7980	26.5904	-3.89958	0	
2.7987	31.7782	-2.98873	0	
2.7993	32.9812	-2.98873	0	
2.8000	27.4927	-0.853922	0	
2.8007	15.5884	2.50484	0	
2.8013	15.8891	5.26585	0	
2.8020	28.4199	8.31151	0	
2.8027	26.5904	11.0441	0	
2.8033	5.51357	11.6703	0	
2.8040	-11.2527	11.6703	0	
2.8047	-20.726	12.5811	0	
2.8053	-28.9713	13.1789	0	
2.8060	-29.5728	14.0897	0	
2.8067	-21.3275	11.0441	0	
2.8073	-15.839	3.10258	0	
2.8080	-13.0822	-1.45167	0	
2.8087	-6.06492	-2.98873	0	
2.8093	0.651603	-9.08004	0	
2.8100	-3.3332	-13.6628	0	
2.8107	-14.611	-9.70625	0	
2.8113	-23.7835	-6.03438	0	
2.8120	-25.613	-6.34749	0	
2.8127	-16.1397	-4.81043	0	
2.8133	3.08259	-4.81043	0	
2.8140	16.8164	-6.66059	0	
2.8147	18.6459	-5.72128	0	
2.8153	20.7761	-6.03438	0	
2.8160	21.4027	-7.57144	0	
2.8167	12.2301	-4.52579	0	
2.8173	3.38333	-1.45167	0	
2.8180	-1.1779	-1.16703	0	
2.8187	-11.8792	0.683138	0	
2.8193	-20.4253	3.72879	0	
2.8200	-15.5382	2.50484	0	
2.8207	-11.2527	1.28088	0	
2.8213	-15.5382	2.19173	0	
2.8220	-19.1972	3.41569	0	
2.8227	-22.8562	4.0419	0	
2.8233	-27.1167	4.95275	0	
2.8240	-24.6857	4.32654	0	
2.8247	-21.0267	2.19173	0	
2.8253	-21.6282	2.19173	0	
2.8260	-21.929	4.32654	0	
2.8267	-19.498	4.32654	0	
2.8273	-16.7412	2.50484	0	
2.8280	-13.0822	2.19173	0	
2.8287	-12.18	1.59399	0	
2.8293	-12.18	0.0569281	0	
2.8300	-7.89443	0.370033	0	
2.8307	-4.86196	1.59399	0	
2.8313	-5.76418	3.41569	0	
2.8320	-1.1779	3.41569	0	
2.8327	7.04233	2.19173	0	
2.8333	13.7589	3.10258	0	
2.8340	21.4027	3.10258	0	
2.8347	26.5904	-0.227713	0	
2.8353	25.6631	-0.540817	0	
2.8360	23.8336	3.72879	0	
2.8367	21.1019	6.1767	0	
2.8373	18.3451	6.1767	0	
2.8380	16.2149	6.1767	0	
2.8387	10.7013	6.46134	0	
2.8393	3.38333	8.31151	0	
2.8400	2.78185	10.7594	0	
2.8407	2.18037	11.6703	0	
2.8413	-3.3332	12.268	0	
2.8420	-4.23542	11.0441	0	
2.8427	-3.3332	9.53546	0	
2.8433	-10.0497	11.6703	0	
2.8440	-14.611	15.3137	0	
2.8447	-14.611	15.6268	0	
2.8453	-16.4405	16.253	0	
2.8460	-14.0095	16.253	0	
2.8467	-2.10518	11.0441	0	
2.8473	5.83937	4.95275	0	
2.8480	7.04233	5.26585	0	
2.8487	7.36813	7.6853	0	
2.8493	4.61135	4.0419	0	
2.8500	2.48111	-0.853922	0	
2.8507	4.31061	0.683138	0	
2.8513	4.61135	1.90709	0	
2.8520	-0.877158	-0.853922	0	
2.8527	-4.53616	-2.36252	0	
2.8533	-2.70666	-4.21268	0	
2.8540	1.55382	-7.57144	0	
2.8547	5.83937	-5.72128	0	
2.8553	8.57109	-3.30183	0	
2.8560	9.19763	-6.03438	0	
2.8567	9.79911	-8.48229	0	
2.8573	11.0271	-6.94523	0	
2.8580	8.27035	-5.12353	0	
2.8587	2.78185	-3.58647	0	
2.8593	1.25308	-3.89958	0	
2.8600	2.48111	-6.66059	0	
2.8607	0.952343	-6.66059	0	
2.8613	-1.5037	-4.81043	0	
2.8620	-1.5037	-4.81043	0	
2.8627	-2.70666	-3.58647	0	
2.8633	-7.29295	-1.16703	0	
2.8640	-12.18	-1.16703	0	
2.8647	-14.611	-1.16703	0	
2.8653	-13.3829	0.0569281	0	
2.8660	-8.19517	-1.45167	0	
2.8667	-3.63394	-5.12353	0	
2.8673	-3.63394	-7.85608	0	
2.8680	-5.76418	-9.39314	0	
2.8687	-6.69147	-10.304	0	
2.8693	-6.99221	-9.70625	0	
2.8700	-7.89443	-10.0194	0	
2.8707	-7.29295	-11.2148	0	
2.8713	-5.1627	-10.6171	0	
2.8720	-2.40592	-8.7954	0	
2.8727	2.78185	-11.2148	0	
2.8733	11.0271	-15.1998	0	
2.8740	16.8164	-15.7976	0	
2.8747	20.1746	-15.7976	0	
2.8753	23.8336	-14.8867	0	
2.8760	25.9639	-12.4388	0	
2.8767	25.3624	-10.304	0	
2.8773	24.7609	-10.0194	0	
2.8780	22.6056	-7.57144	0	
2.8787	18.9466	-6.03438	0	
2.8793	15.5884	-6.66059	0	
2.8800	6.44085	-6.94523	0	
2.8807	-6.99221	-7.57144	0	
2.8813	-11.8792	-11.2148	0	
2.8820	-9.72393	-13.6628	0	
2.8827	-14.0095	-11.2148	0	
2.8833	-23.7835	-7.25834	0	
2.8840	-30.1742	-4.52579	0	
2.8847	-32.931	-3.89958	0	
2.8853	-33.8333	-5.43664	0	
2.8860	-31.1015	-5.72128	0	
2.8867	-26.5152	-2.36252	0	
2.8873	-21.929	-1.76477	0	
2.8880	-15.5382	-4.81043	0	
2.8887	-7.29295	-4.81043	0	
2.8893	-3.0074	-2.36252	0	
2.8900	-3.0074	-3.89958	0	
2.8907	-1.80444	-6.66059	0	
2.8913	1.25308	-5.72128	0	
2.8920	3.68407	-7.57144	0	
2.8927	9.79911	-10.304	0	
2.8933	21.1019	-8.48229	0	
2.8940	29.3222	-7.25834	0	
2.8947	27.4927	-9.39314	0	
2.8953	22.3049	-7.25834	0	
2.8960	22.6056	-3.89958	0	
2.8967	24.7609	-2.67562	0	
2.8973	22.6056	-0.540817	0	
2.8980	19.2474	0.0569281	0	
2.8987	15.8891	-2.36252	0	
2.8993	8.27035	-1.16703	0	
2.9000	-0.275678	3.41569	0	
2.9007	-3.63394	3.72879	0	
2.9013	-4.53616	3.10258	0	
2.9020	-9.12245	3.72879	0	
2.9027	-16.1397	3.41569	0	
2.9033	-21.929	3.10258	0	
2.9040	-20.4253	3.41569	0	
2.9047	-12.7815	2.81794	0	
2.9053	-10.9519	4.32654	0	
2.9060	-13.3829	5.55049	0	
2.9067	-8.19517	1.59399	0	
2.9073	-2.40592	0.370033	0	
2.9080	-3.0074	3.41569	0	
2.9087	0.952343	1.90709	0	
2.9093	6.44085	-2.07788	0	
2.9100	2.78185	-2.98873	0	
2.9107	-1.80444	-4.81043	0	
2.9113	0.952343	-6.34749	0	
2.9120	2.78185	-3.58647	0	
2.9127	2.78185	-2.67562	0	
2.9133	8.27035	-5.12353	0	
2.9140	13.1574	-4.81043	0	
2.9147	11.0271	-2.98873	0	
2.9153	3.68407	-0.540817	0	
2.9160	-2.10518	1.90709	0	
2.9167	-3.93468	2.19173	0	
2.9173	-5.1627	-1.16703	0	
2.9180	-8.82171	-3.30183	0	
2.9187	-11.5534	-1.16703	0	
2.9193	-9.12245	1.28088	0	
2.9200	-2.70666	1.28088	0	
2.9207	2.78185	2.19173	0	
2.9213	2.78185	3.72879	0	
2.9220	3.38333	1.59399	0	
2.9227	5.51357	-2.07788	0	
2.9233	-3.63394	-2.07788	0	
2.9240	-18.5958	-0.227713	0	
2.9247	-23.7835	2.50484	0	
2.9253	-25.2872	4.32654	0	
2.9260	-29.8735	3.41569	0	
2.9267	-26.5152	1.90709	0	
2.9273	-19.498	3.41569	0	
2.9280	-19.7987	4.0419	0	
2.9287	-17.9692	-0.227713	0	
2.9293	-10.0497	-4.81043	0	
2.9300	-5.76418	-6.34749	0	
2.9307	-1.80444	-6.66059	0	
2.9313	3.68407	-4.81043	0	
2.9320	1.25308	-0.540817	0	
2.9327	-2.70666	0.0569281	0	
2.9333	7.96961	-6.03438	0	
2.9340	23.2322	-10.0194	0	
2.9347	28.4199	-5.72128	0	
2.9353	29.6229	-2.98873	0	
2.9360	31.4775	-3.89958	0	
2.9367	29.9487	-3.89958	0	
2.9373	24.7609	-2.67562	0	
2.9380	17.4179	-3.58647	0	
2.9387	7.96961	-3.58647	0	
2.9393	0.952343	-2.07788	0	
2.9400	-4.23542	-1.16703	0	
2.9407	-11.2527	-1.16703	0	
2.9413	-16.1397	-1.45167	0	
2.9420	-14.9117	-1.16703	0	
2.9427	-17.6685	2.50484	0	
2.9433	-24.6857	6.1767	0	
2.9440	-25.2872	7.08755	0	
2.9447	-21.6282	7.6853	0	
2.9453	-21.6282	7.6853	0	
2.9460	-19.1972	4.32654	0	
2.9467	-14.3102	1.59399	0	
2.9473	-13.0822	3.72879	0	
2.9480	-11.5534	5.26585	0	
