0.0007	8.12302	-0.491191	0	
0.0013	15.458	-1.09933	0	
0.0020	21.2472	-4.74818	0	
0.0027	23.6719	-6.29192	0	
0.0033	23.6719	-3.83597	0	
0.0040	23.975	-3.22783	0	
0.0047	22.1565	-3.83597	0	
0.0053	16.6704	-1.70747	0	
0.0060	12.3967	-0.795262	0	
0.0067	11.7905	-0.795262	0	
0.0073	10.2447	1.96476	0	
0.0080	5.36483	3.48512	0	
0.0087	1.69735	1.35662	0	
0.0093	-0.121239	-0.18712	0	
0.0100	-1.63673	1.66069	0	
0.0107	-6.21351	4.7014	0	
0.0113	-14.7609	6.52583	0	
0.0120	-23.0051	6.22175	0	
0.0127	-26.6726	7.46143	0	
0.0133	-28.1881	11.4143	0	
0.0140	-28.7943	10.8062	0	
0.0147	-27.5819	6.22175	0	
0.0153	-25.7633	5.00547	0	
0.0160	-24.5206	6.22175	0	
0.0167	-20.2469	5.00547	0	
0.0173	-15.064	1.05255	0	
0.0180	-13.2454	-1.70747	0	
0.0187	-11.0934	-2.31562	0	
0.0193	-6.21351	-4.14004	0	
0.0200	-3.78872	-6.90007	0	
0.0207	-1.03053	-5.68378	0	
0.0213	8.42612	-5.05225	0	
0.0220	21.5503	-9.02856	0	
0.0227	28.2487	-9.33263	0	
0.0233	27.3394	-5.35632	0	
0.0240	24.6115	-5.05225	0	
0.0247	21.8534	-5.05225	0	
0.0253	17.2766	-3.83597	0	
0.0260	11.7905	-5.35632	0	
0.0267	8.72922	-5.35632	0	
0.0273	6.91063	-2.31562	0	
0.0280	4.45554	-2.01154	0	
0.0287	0.788054	-2.01154	0	
0.0293	-2.24292	0.421021	0	
0.0300	-2.54602	-0.18712	0	
0.0307	-3.78872	-0.18712	0	
0.0313	-12.3361	3.48512	0	
0.0320	-22.3989	5.61361	0	
0.0327	-25.7633	6.22175	0	
0.0333	-27.2788	7.13397	0	
0.0340	-29.4308	6.8299	0	
0.0347	-25.7633	7.7655	0	
0.0353	-19.3376	7.13397	0	
0.0360	-15.064	1.66069	0	
0.0367	-12.3361	0.11695	0	
0.0373	-9.88099	3.18105	0	
0.0380	-7.75931	1.96476	0	
0.0387	-4.69802	-1.09933	0	
0.0393	-1.03053	-2.31562	0	
0.0400	2.63695	-2.92376	0	
0.0407	8.12302	-2.61969	0	
0.0413	14.5184	-3.22783	0	
0.0420	21.5503	-6.596	0	
0.0427	28.2487	-8.11635	0	
0.0433	31.0069	-5.98785	0	
0.0440	29.1883	-4.14004	0	
0.0447	27.6425	-2.92376	0	
0.0453	25.5208	-1.70747	0	
0.0460	19.3983	-2.92376	0	
0.0467	13.6091	-2.31562	0	
0.0473	11.4874	-0.18712	0	
0.0480	9.94161	0.421021	0	
0.0487	6.30444	-0.491191	0	
0.0493	2.63695	-0.18712	0	
0.0500	2.03076	1.66069	0	
0.0507	-1.93983	2.57291	0	
0.0513	-11.3965	0.725092	0	
0.0520	-19.6407	-2.01154	0	
0.0527	-24.5206	-1.70747	0	
0.0533	-26.9757	1.05255	0	
0.0540	-25.7633	1.66069	0	
0.0547	-22.702	-0.18712	0	
0.0553	-21.1865	-1.4034	0	
0.0560	-18.4284	-0.491191	0	
0.0567	-12.9423	0.421021	0	
0.0573	-9.88099	0.11695	0	
0.0580	-9.27479	-0.18712	0	
0.0587	-6.5166	-0.18712	0	
0.0593	-2.87943	0.421021	0	
0.0600	-0.121239	0.11695	0	
0.0607	2.94005	-1.70747	0	
0.0613	9.94161	-3.83597	0	
0.0620	20.0348	-3.5319	0	
0.0627	27.0363	-2.31562	0	
0.0633	27.6425	-2.92376	0	
0.0640	26.4301	-3.83597	0	
0.0647	24.6115	-2.31562	0	
0.0653	19.3983	1.66069	0	
0.0660	16.3673	1.05255	0	
0.0667	16.0642	-2.92376	0	
0.0673	11.4874	-2.01154	0	
0.0680	5.36483	4.09326	0	
0.0687	2.63695	4.39733	0	
0.0693	1.39425	1.96476	0	
0.0700	0.788054	3.78919	0	
0.0707	-1.63673	5.61361	0	
0.0713	-9.57789	5.30954	0	
0.0720	-19.3376	6.22175	0	
0.0727	-24.5206	7.46143	0	
0.0733	-25.7633	5.61361	0	
0.0740	-23.0051	5.30954	0	
0.0747	-20.2469	6.8299	0	
0.0753	-20.5803	5.30954	0	
0.0760	-19.0345	2.26884	0	
0.0767	-13.5485	1.66069	0	
0.0773	-10.4872	2.87698	0	
0.0780	-8.6686	3.48512	0	
0.0787	-4.39492	2.57291	0	
0.0793	-2.87943	0.11695	0	
0.0800	-2.24292	-2.01154	0	
0.0807	2.63695	-2.92376	0	
0.0813	9.63851	-4.74818	0	
0.0820	16.9735	-6.90007	0	
0.0827	24.3084	-6.29192	0	
0.0833	25.2177	-5.35632	0	
0.0840	20.641	-5.35632	0	
0.0847	18.1859	-3.83597	0	
0.0853	16.9735	-2.01154	0	
0.0860	13.0029	-1.70747	0	
0.0867	9.03232	0.725092	0	
0.0873	5.97103	2.87698	0	
0.0880	2.94005	1.66069	0	
0.0887	-0.121239	-0.795262	0	
0.0893	-2.24292	-2.01154	0	
0.0900	-1.93983	-2.92376	0	
0.0907	-2.87943	-2.31562	0	
0.0913	-11.0934	-0.491191	0	
0.0920	-21.4896	1.66069	0	
0.0927	-24.8237	3.18105	0	
0.0933	-23.6113	2.87698	0	
0.0940	-23.3082	2.87698	0	
0.0947	-23.3082	5.00547	0	
0.0953	-21.1865	5.30954	0	
0.0960	-15.3671	2.57291	0	
0.0967	-9.88099	1.35662	0	
0.0973	-8.9717	0.11695	0	
0.0980	-7.1228	-1.4034	0	
0.0987	-1.33363	0.725092	0	
0.0993	0.788054	4.09326	0	
0.1000	0.788054	1.66069	0	
0.1007	5.36483	-2.01154	0	
0.1013	12.0936	-2.92376	0	
0.1020	16.3673	-5.68378	0	
0.1027	22.1565	-9.02856	0	
0.1033	27.9456	-7.50821	0	
0.1040	27.9456	-5.98785	0	
0.1047	24.6115	-5.68378	0	
0.1053	21.8534	-2.01154	0	
0.1060	19.7317	1.35662	0	
0.1067	15.458	2.57291	0	
0.1073	10.2447	4.7014	0	
0.1080	5.36483	4.09326	0	
0.1087	2.63695	-0.491191	0	
0.1093	-0.121239	-0.795262	0	
0.1100	-2.87943	1.96476	0	
0.1107	-6.5166	2.57291	0	
0.1113	-12.6392	3.18105	0	
0.1120	-19.9438	3.48512	0	
0.1127	-25.7633	2.57291	0	
0.1133	-28.1881	2.87698	0	
0.1140	-26.9757	1.35662	0	
0.1147	-23.6113	-2.01154	0	
0.1153	-18.1253	-1.4034	0	
0.1160	-11.3965	0.11695	0	
0.1167	-6.5166	-2.92376	0	
0.1173	-5.00111	-4.44411	0	
0.1180	-4.69802	-1.09933	0	
0.1187	-1.03053	0.421021	0	
0.1193	3.54625	-1.70747	0	
0.1200	4.15244	-2.01154	0	
0.1207	3.54625	-3.83597	0	
0.1213	7.51683	-7.50821	0	
0.1220	16.0642	-7.20414	0	
0.1227	22.7627	-4.44411	0	
0.1233	25.5208	-4.74818	0	
0.1240	24.6115	-4.74818	0	
0.1247	22.1565	-2.01154	0	
0.1253	19.0952	-2.31562	0	
0.1260	15.1549	-2.92376	0	
0.1267	11.4874	0.11695	0	
0.1273	8.12302	2.57291	0	
0.1280	5.97103	1.66069	0	
0.1287	2.63695	2.26884	0	
0.1293	-0.424337	4.7014	0	
0.1300	-1.93983	5.00547	0	
0.1307	-4.09182	4.09326	0	
0.1313	-13.8516	5.91768	0	
0.1320	-25.4602	8.06957	0	
0.1327	-28.4912	7.13397	0	
0.1333	-28.4912	6.52583	0	
0.1340	-30.6432	6.8299	0	
0.1347	-28.4912	4.39733	0	
0.1353	-20.2469	2.26884	0	
0.1360	-15.064	1.66069	0	
0.1367	-12.9423	1.66069	0	
0.1373	-9.27479	0.421021	0	
0.1380	-5.91041	-0.795262	0	
0.1387	-2.87943	-1.09933	0	
0.1393	-1.33363	-0.18712	0	
0.1400	-1.63673	-0.491191	0	
0.1407	1.69735	-1.09933	0	
0.1413	10.5478	-1.70747	0	
0.1420	18.7921	-5.98785	0	
0.1427	23.0657	-11.1571	0	
0.1433	26.4301	-8.11635	0	
0.1440	28.5821	-4.14004	0	
0.1447	26.7332	-6.29192	0	
0.1453	21.8534	-5.98785	0	
0.1460	16.9735	-2.01154	0	
0.1467	13.6091	-2.01154	0	
0.1473	11.1843	-4.14004	0	
0.1480	8.12302	-3.83597	0	
0.1487	5.36483	-1.09933	0	
0.1493	4.15244	0.11695	0	
0.1500	1.39425	-1.09933	0	
0.1507	-3.78872	-1.09933	0	
0.1513	-10.7903	3.48512	0	
0.1520	-18.7314	5.91768	0	
0.1527	-24.8237	2.87698	0	
0.1533	-26.6726	1.05255	0	
0.1540	-24.8237	1.66069	0	
0.1547	-22.3989	0.725092	0	
0.1553	-22.0958	0.11695	0	
0.1560	-20.2469	0.421021	0	
0.1567	-14.4578	-1.09933	0	
0.1573	-8.9717	-1.09933	0	
0.1580	-6.5166	-0.491191	0	
0.1587	-3.48563	-2.61969	0	
0.1593	-0.424337	-4.14004	0	
0.1600	-0.121239	-4.74818	0	
0.1607	3.84934	-6.596	0	
0.1613	12.3967	-5.98785	0	
0.1620	19.0952	-3.83597	0	
0.1627	24.6115	-6.596	0	
0.1633	28.5821	-8.42042	0	
0.1640	26.4301	-3.5319	0	
0.1647	21.8534	0.421021	0	
0.1653	20.9441	-1.70747	0	
0.1660	19.7317	-3.22783	0	
0.1667	14.5184	-2.01154	0	
0.1673	9.94161	-0.18712	0	
0.1680	8.12302	1.66069	0	
0.1687	6.60753	2.26884	0	
0.1693	3.54625	1.66069	0	
0.1700	1.39425	1.66069	0	
0.1707	-1.63673	0.725092	0	
0.1713	-9.27479	-1.09933	0	
0.1720	-19.0345	-0.18712	0	
0.1727	-23.6113	1.05255	0	
0.1733	-25.1571	1.05255	0	
0.1740	-27.5819	0.725092	0	
0.1747	-24.8237	-0.491191	0	
0.1753	-17.5191	-2.01154	0	
0.1760	-13.8516	-0.18712	0	
0.1767	-14.1547	1.35662	0	
0.1773	-10.1841	-2.01154	0	
0.1780	-3.78872	-3.83597	0	
0.1787	-1.93983	-2.31562	0	
0.1793	-1.93983	-0.491191	0	
0.1800	-0.121239	0.725092	0	
0.1807	2.94005	0.725092	0	
0.1813	10.2447	-3.5319	0	
0.1820	20.3379	-5.98785	0	
0.1827	26.127	-4.44411	0	
0.1833	27.3394	-5.05225	0	
0.1840	26.4301	-7.50821	0	
0.1847	23.6719	-4.74818	0	
0.1853	20.9441	-1.70747	0	
0.1860	19.0952	0.11695	0	
0.1867	13.6091	3.48512	0	
0.1873	7.21373	4.09326	0	
0.1880	4.75864	1.66069	0	
0.1887	2.33385	1.96476	0	
0.1893	-1.63673	3.18105	0	
0.1900	-1.93983	2.57291	0	
0.1907	-4.09182	4.39733	0	
0.1913	-14.7609	5.30954	0	
0.1920	-25.7633	3.48512	0	
0.1927	-30.6432	6.22175	0	
0.1933	-31.2494	9.89399	0	
0.1940	-26.6726	7.13397	0	
0.1947	-19.6407	5.00547	0	
0.1953	-17.216	7.13397	0	
0.1960	-15.6702	7.13397	0	
0.1967	-10.4872	4.09326	0	
0.1973	-5.91041	2.57291	0	
0.1980	-3.78872	2.26884	0	
0.1987	-1.03053	1.96476	0	
0.1993	2.63695	1.96476	0	
0.2000	5.36483	1.05255	0	
0.2007	10.5478	-0.18712	0	
0.2013	16.9735	-0.18712	0	
0.2020	23.3688	0.421021	0	
0.2027	28.2487	-2.01154	0	
0.2033	28.5821	-3.83597	0	
0.2040	24.6115	-0.18712	0	
0.2047	21.8534	2.57291	0	
0.2053	20.3379	-1.70747	0	
0.2060	18.1859	-3.83597	0	
0.2067	16.0642	1.35662	0	
0.2073	11.7905	2.57291	0	
0.2080	6.91063	-1.09933	0	
0.2087	5.66793	-1.09933	0	
0.2093	5.36483	0.725092	0	
0.2100	1.09115	-0.795262	0	
0.2107	-4.69802	-1.09933	0	
0.2113	-9.88099	2.57291	0	
0.2120	-17.5191	6.52583	0	
0.2127	-26.9757	7.13397	0	
0.2133	-31.2494	4.09326	0	
0.2140	-28.4912	2.57291	0	
0.2147	-24.5206	3.78919	0	
0.2153	-21.4896	4.09326	0	
0.2160	-18.4284	2.87698	0	
0.2167	-14.7609	0.421021	0	
0.2173	-12.033	-1.09933	0	
0.2180	-10.1841	1.05255	0	
0.2187	-6.21351	0.421021	0	
0.2193	-1.33363	-4.74818	0	
0.2200	0.788054	-4.44411	0	
0.2207	2.03076	-1.09933	0	
0.2213	8.42612	-5.68378	0	
0.2220	18.1859	-8.72449	0	
0.2227	23.975	-3.83597	0	
0.2233	24.9146	-5.05225	0	
0.2240	23.6719	-8.72449	0	
0.2247	20.3379	-4.44411	0	
0.2253	16.3673	-1.4034	0	
0.2260	14.2153	-2.92376	0	
0.2267	12.0936	-0.491191	0	
0.2273	6.30444	1.66069	0	
0.2280	0.181859	-1.4034	0	
0.2287	-1.03053	-1.4034	0	
0.2293	-1.03053	0.725092	0	
0.2300	-3.48563	-2.01154	0	
0.2307	-7.75931	-3.5319	0	
0.2313	-15.3671	0.421021	0	
0.2320	-25.4602	4.7014	0	
0.2327	-30.3401	5.30954	0	
0.2333	-28.4912	3.48512	0	
0.2340	-26.6726	3.18105	0	
0.2347	-23.9144	4.39733	0	
0.2353	-17.5191	3.78919	0	
0.2360	-13.5485	3.18105	0	
0.2367	-11.7299	5.30954	0	
0.2373	-7.75931	4.39733	0	
0.2380	-3.78872	1.05255	0	
0.2387	-1.03053	0.725092	0	
0.2393	1.69735	-0.491191	0	
0.2400	3.54625	-2.92376	0	
0.2407	6.30444	-2.92376	0	
0.2413	13.306	-3.83597	0	
0.2420	20.9441	-6.90007	0	
0.2427	23.3688	-6.29192	0	
0.2433	21.8534	-5.98785	0	
0.2440	20.641	-7.50821	0	
0.2447	19.0952	-4.44411	0	
0.2453	16.0642	-0.795262	0	
0.2460	12.6998	-2.92376	0	
0.2467	10.5478	-3.22783	0	
0.2473	9.03232	-0.491191	0	
0.2480	8.12302	-0.491191	0	
0.2487	7.51683	-0.491191	0	
0.2493	7.21373	0.725092	0	
0.2500	5.36483	-0.795262	0	
0.2507	1.69735	-1.70747	0	
0.2513	-6.5166	1.96476	0	
0.2520	-15.9733	5.00547	0	
0.2527	-23.0051	4.39733	0	
0.2533	-25.1571	3.48512	0	
0.2540	-24.8237	2.87698	0	
0.2547	-23.9144	2.57291	0	
0.2553	-25.4602	1.66069	0	
0.2560	-25.7633	0.725092	0	
0.2567	-20.8834	-1.09933	0	
0.2573	-13.2454	-1.09933	0	
0.2580	-11.3965	1.96476	0	
0.2587	-12.3361	2.57291	0	
0.2593	-8.9717	-0.18712	0	
0.2600	-3.78872	-0.18712	0	
0.2607	-1.03053	1.96476	0	
0.2613	5.36483	0.421021	0	
0.2620	14.5184	-1.70747	0	
0.2627	20.9441	-0.795262	0	
0.2633	25.2177	-0.18712	0	
0.2640	26.7332	-1.4034	0	
0.2647	24.6115	-2.92376	0	
0.2653	22.4596	-5.68378	0	
0.2660	20.9441	-5.98785	0	
0.2667	16.3673	-2.92376	0	
0.2673	10.8812	0.11695	0	
0.2680	5.66793	1.35662	0	
0.2687	0.484957	0.725092	0	
0.2693	-1.63673	-1.70747	0	
0.2700	-0.121239	-2.92376	0	
0.2707	-3.48563	-0.795262	0	
0.2713	-13.5485	1.96476	0	
0.2720	-22.0958	1.66069	0	
0.2727	-25.1571	0.725092	0	
0.2733	-26.6726	1.35662	0	
0.2740	-29.4308	2.87698	0	
0.2747	-29.0974	3.78919	0	
0.2753	-23.0051	3.48512	0	
0.2760	-16.6098	3.48512	0	
0.2767	-13.8516	4.7014	0	
0.2773	-12.6392	2.57291	0	
0.2780	-9.27479	-1.70747	0	
0.2787	-5.30421	-2.01154	0	
0.2793	-3.18253	-1.09933	0	
0.2800	-1.63673	-4.74818	0	
0.2807	2.63695	-8.72449	0	
0.2813	9.63851	-8.11635	0	
0.2820	17.8828	-8.42042	0	
0.2827	23.975	-9.94077	0	
0.2833	26.127	-9.33263	0	
0.2840	26.127	-9.6367	0	
0.2847	24.6115	-9.6367	0	
0.2853	20.9441	-5.98785	0	
0.2860	16.0642	-2.61969	0	
0.2867	12.3967	-0.491191	0	
0.2873	8.72922	2.57291	0	
0.2880	6.30444	3.48512	0	
0.2887	5.36483	-0.18712	0	
0.2893	4.45554	-0.18712	0	
0.2900	4.45554	4.7014	0	
0.2907	2.33385	7.46143	0	
0.2913	-7.1228	5.91768	0	
0.2920	-17.5191	4.7014	0	
0.2927	-21.1865	5.30954	0	
0.2933	-22.0958	5.30954	0	
0.2940	-21.7927	2.57291	0	
0.2947	-17.8222	1.05255	0	
0.2953	-14.7609	1.05255	0	
0.2960	-13.5485	-0.18712	0	
0.2967	-8.9717	-1.4034	0	
0.2973	-3.78872	-1.4034	0	
0.2980	-3.78872	-2.01154	0	
0.2987	-2.24292	-2.31562	0	
0.2993	3.24315	-1.09933	0	
0.3000	5.97103	-1.09933	0	
0.3007	7.51683	-2.01154	0	
0.3013	15.1549	-2.92376	0	
0.3020	23.3688	-4.74818	0	
0.3027	26.7332	-5.98785	0	
0.3033	27.6425	-3.83597	0	
0.3040	27.6425	-2.01154	0	
0.3047	26.4301	-1.09933	0	
0.3053	22.4596	-1.4034	0	
0.3060	15.458	-2.92376	0	
0.3067	9.03232	-3.83597	0	
0.3073	5.36483	-2.01154	0	
0.3080	3.54625	-0.18712	0	
0.3087	2.03076	0.11695	0	
0.3093	-0.424337	0.11695	0	
0.3100	-3.78872	-1.4034	0	
0.3107	-6.5166	0.421021	0	
0.3113	-12.6392	7.13397	0	
0.3120	-22.0958	8.98178	0	
0.3127	-26.0664	4.39733	0	
0.3133	-23.6113	2.87698	0	
0.3140	-22.3989	5.61361	0	
0.3147	-21.4896	4.39733	0	
0.3153	-18.4284	1.96476	0	
0.3160	-15.6702	2.57291	0	
0.3167	-12.033	2.26884	0	
0.3173	-7.75931	-0.18712	0	
0.3180	-4.69802	-0.18712	0	
0.3187	-1.03053	-0.795262	0	
0.3193	1.69735	-3.83597	0	
0.3200	2.94005	-4.74818	0	
0.3207	8.12302	-4.14004	0	
0.3213	16.3673	-5.68378	0	
0.3220	21.5503	-5.68378	0	
0.3227	26.127	-4.14004	0	
0.3233	29.1883	-5.68378	0	
0.3240	26.127	-6.29192	0	
0.3247	21.8534	-3.83597	0	
0.3253	21.5503	-2.61969	0	
0.3260	19.0952	-1.70747	0	
0.3267	13.6091	-0.18712	0	
0.3273	8.42612	-1.09933	0	
0.3280	3.54625	-1.70747	0	
0.3287	1.39425	2.57291	0	
0.3293	0.788054	5.30954	0	
0.3300	-1.03053	3.78919	0	
0.3307	-4.69802	3.18105	0	
0.3313	-11.3965	4.7014	0	
0.3320	-20.5803	5.00547	0	
0.3327	-25.7633	4.7014	0	
0.3333	-27.2788	6.52583	0	
0.3340	-28.7943	6.52583	0	
0.3347	-24.2175	3.48512	0	
0.3353	-16.6098	1.66069	0	
0.3360	-16.3067	1.66069	0	
0.3367	-16.6098	1.66069	0	
0.3373	-10.4872	-0.18712	0	
0.3380	-6.21351	-2.01154	0	
0.3387	-5.60731	-2.61969	0	
0.3393	-2.87943	-2.31562	0	
0.3400	-0.121239	-4.74818	0	
0.3407	1.69735	-6.596	0	
0.3413	11.4874	-5.05225	0	
0.3420	24.9146	-4.74818	0	
0.3427	29.1883	-7.20414	0	
0.3433	27.6425	-6.596	0	
0.3440	28.2487	-4.74818	0	
0.3447	26.4301	-6.29192	0	
0.3453	20.9441	-4.74818	0	
0.3460	17.2766	-1.09933	0	
0.3467	14.2153	-0.491191	0	
0.3473	9.03232	1.35662	0	
0.3480	4.45554	5.91768	0	
0.3487	0.788054	6.52583	0	
0.3493	-1.03053	4.09326	0	
0.3500	-1.63673	3.48512	0	
0.3507	-6.5166	3.48512	0	
0.3513	-14.7609	5.30954	0	
0.3520	-21.1865	8.06957	0	
0.3527	-25.7633	8.06957	0	
0.3533	-27.885	5.00547	0	
0.3540	-26.0664	4.7014	0	
0.3547	-23.3082	7.13397	0	
0.3553	-21.7927	6.8299	0	
0.3560	-18.4284	5.00547	0	
0.3567	-14.1547	3.78919	0	
0.3573	-11.3965	0.421021	0	
0.3580	-9.27479	-3.22783	0	
0.3587	-7.45621	-2.01154	0	
0.3593	-3.18253	0.725092	0	
0.3600	1.39425	-1.4034	0	
0.3607	4.15244	-4.44411	0	
0.3613	9.94161	-5.68378	0	
0.3620	19.0952	-5.98785	0	
0.3627	23.0657	-4.74818	0	
0.3633	23.6719	-4.44411	0	
0.3640	25.5208	-6.29192	0	
0.3647	23.6719	-5.68378	0	
0.3653	17.2766	-3.5319	0	
0.3660	13.6091	-3.22783	0	
0.3667	10.8812	-2.61969	0	
0.3673	5.97103	-0.795262	0	
0.3680	3.24315	-0.491191	0	
0.3687	1.69735	-0.18712	0	
0.3693	-2.24292	1.96476	0	
0.3700	-3.78872	2.87698	0	
0.3707	-5.60731	3.48512	0	
0.3713	-14.7609	5.30954	0	
0.3720	-23.3082	5.61361	0	
0.3727	-25.4602	4.7014	0	
0.3733	-27.5819	6.22175	0	
0.3740	-29.4308	7.46143	0	
0.3747	-24.5206	5.30954	0	
0.3753	-18.7314	1.66069	0	
0.3760	-15.6702	-1.4034	0	
0.3767	-12.9423	-1.09933	0	
0.3773	-10.1841	-0.491191	0	
0.3780	-8.3655	-2.92376	0	
0.3787	-6.5166	-4.14004	0	
0.3793	-5.30421	-3.83597	0	
0.3800	-2.24292	-4.74818	0	
0.3807	3.84934	-4.14004	0	
0.3813	11.1843	-1.09933	0	
0.3820	20.0348	-3.5319	0	
0.3827	28.2487	-7.81228	0	
0.3833	29.1883	-4.44411	0	
0.3840	25.5208	-1.70747	0	
0.3847	22.7627	-5.05225	0	
0.3853	18.1859	-5.05225	0	
0.3860	10.8812	-2.01154	0	
0.3867	5.36483	-2.92376	0	
0.3873	0.788054	-2.01154	0	
0.3880	-3.78872	0.421021	0	
0.3887	-6.5166	-1.4034	0	
0.3893	-7.45621	-2.61969	0	
0.3900	-8.6686	-0.18712	0	
0.3907	-12.9423	1.35662	0	
0.3913	-21.1865	4.09326	0	
0.3920	-29.0974	6.8299	0	
0.3927	-32.4618	6.22175	0	
0.3933	-33.6742	5.30954	0	
0.3940	-32.7649	5.61361	0	
0.3947	-26.6726	5.30954	0	
0.3953	-15.6702	4.09326	0	
0.3960	-3.18253	0.725092	0	
0.3967	5.97103	-1.70747	0	
0.3973	12.3967	0.725092	0	
0.3980	15.1549	1.05255	0	
0.3987	12.6998	-2.01154	0	
0.3993	9.33541	-0.795262	0	
0.4000	10.8812	2.26884	0	
0.4007	14.8215	-1.09933	0	
0.4013	19.0952	-5.05225	0	
0.4020	27.3394	-5.68378	0	
0.4027	32.2193	-5.68378	0	
0.4033	28.2487	-5.05225	0	
0.4040	23.3688	-4.14004	0	
0.4047	22.7627	-3.22783	0	
0.4053	19.3983	-0.795262	0	
0.4060	12.3967	2.57291	0	
0.4067	9.94161	4.39733	0	
0.4073	9.33541	2.87698	0	
0.4080	5.06173	-0.491191	0	
0.4087	2.03076	-0.18712	0	
0.4093	1.69735	3.48512	0	
0.4100	-0.424337	3.18105	0	
0.4107	-5.30421	1.96476	0	
0.4113	-9.88099	4.39733	0	
0.4120	-15.3671	4.39733	0	
0.4127	-19.6407	3.18105	0	
0.4133	-20.2469	5.61361	0	
0.4140	-18.4284	4.7014	0	
0.4147	-17.216	-0.18712	0	
0.4153	-15.9733	-0.18712	0	
0.4160	-13.8516	1.05255	0	
0.4167	-10.1841	-2.01154	0	
0.4173	-7.45621	-2.92376	0	
0.4180	-5.30421	-2.61969	0	
0.4187	0.788054	-3.83597	0	
0.4193	4.45554	-2.61969	0	
0.4200	2.03076	-1.09933	0	
0.4207	2.63695	-3.83597	0	
0.4213	12.3967	-6.90007	0	
0.4220	22.1565	-7.81228	0	
0.4227	26.4301	-9.33263	0	
0.4233	28.2487	-9.33263	0	
0.4240	29.1883	-5.98785	0	
0.4247	25.5208	-3.22783	0	
0.4253	18.7921	-1.70747	0	
0.4260	14.2153	0.11695	0	
0.4267	10.2447	1.05255	0	
0.4273	5.36483	0.725092	0	
0.4280	3.54625	1.05255	0	
0.4287	2.94005	3.48512	0	
0.4293	-0.424337	4.39733	0	
0.4300	-1.93983	2.57291	0	
0.4307	-3.78872	2.87698	0	
0.4313	-13.5485	6.22175	0	
0.4320	-23.6113	7.13397	0	
0.4327	-25.7633	5.91768	0	
0.4333	-26.3695	5.00547	0	
0.4340	-25.7633	4.7014	0	
0.4347	-22.0958	6.22175	0	
0.4353	-20.2469	6.8299	0	
0.4360	-19.3376	3.78919	0	
0.4367	-14.7609	0.725092	0	
0.4373	-10.4872	-0.18712	0	
0.4380	-8.6686	-2.01154	0	
0.4387	-6.8197	-4.74818	0	
0.4393	-3.78872	-6.90007	0	
0.4400	-1.03053	-7.50821	0	
0.4407	-0.424337	-6.596	0	
0.4413	4.45554	-6.596	0	
0.4420	16.3673	-6.90007	0	
0.4427	24.6115	-3.22783	0	
0.4433	21.8534	-0.795262	0	
0.4440	18.489	-3.83597	0	
0.4447	16.3673	-2.92376	0	
0.4453	10.8812	1.66069	0	
0.4460	6.60753	0.11695	0	
0.4467	6.30444	-0.795262	0	
0.4473	3.84934	3.48512	0	
0.4480	-0.727435	5.00547	0	
0.4487	-4.69802	3.48512	0	
0.4493	-6.8197	2.26884	0	
0.4500	-7.45621	0.725092	0	
0.4507	-9.88099	1.96476	0	
0.4513	-16.9129	6.22175	0	
0.4520	-25.1571	7.13397	0	
0.4527	-29.0974	6.22175	0	
0.4533	-28.7943	7.46143	0	
0.4540	-28.1881	6.22175	0	
0.4547	-26.9757	4.09326	0	
0.4553	-22.0958	3.78919	0	
0.4560	-15.064	3.18105	0	
0.4567	-9.88099	1.05255	0	
0.4573	-7.1228	-1.09933	0	
0.4580	-4.69802	-2.92376	0	
0.4587	-1.03053	-3.5319	0	
0.4593	1.39425	-3.83597	0	
0.4600	0.788054	-5.68378	0	
0.4607	3.24315	-6.596	0	
0.4613	14.5184	-6.596	0	
0.4620	26.127	-6.596	0	
0.4627	27.9456	-7.20414	0	
0.4633	25.5208	-7.50821	0	
0.4640	24.3084	-5.68378	0	
0.4647	21.2472	-3.83597	0	
0.4653	18.1859	-3.83597	0	
0.4660	17.2766	-1.70747	0	
0.4667	13.6091	2.57291	0	
0.4673	9.03232	1.66069	0	
0.4680	7.51683	-1.09933	0	
0.4687	5.36483	1.66069	0	
0.4693	0.788054	2.57291	0	
0.4700	-2.24292	1.66069	0	
0.4707	-5.30421	4.39733	0	
0.4713	-13.2454	4.39733	0	
0.4720	-22.3989	1.96476	0	
0.4727	-28.4912	3.18105	0	
0.4733	-31.2494	5.30954	0	
0.4740	-29.4308	6.22175	0	
0.4747	-23.6113	9.89399	0	
0.4753	-20.2469	8.98178	0	
0.4760	-18.1253	2.57291	0	
0.4767	-13.8516	-0.795262	0	
0.4773	-9.88099	-1.70747	0	
0.4780	-6.8197	-2.92376	0	
0.4787	-1.93983	-1.70747	0	
0.4793	1.09115	-0.491191	0	
0.4800	2.03076	-0.795262	0	
0.4807	6.91063	-0.18712	0	
0.4813	15.7611	-3.22783	0	
0.4820	23.0657	-6.596	0	
0.4827	28.2487	-6.596	0	
0.4833	29.1883	-8.72449	0	
0.4840	24.9146	-9.6367	0	
0.4847	20.9441	-3.22783	0	
0.4853	18.7921	-0.18712	0	
0.4860	15.458	-3.83597	0	
0.4867	11.1843	-2.92376	0	
0.4873	8.42612	0.725092	0	
0.4880	6.91063	0.421021	0	
0.4887	4.75864	0.725092	0	
0.4893	1.39425	2.26884	0	
0.4900	-1.63673	1.35662	0	
0.4907	-4.69802	2.26884	0	
0.4913	-12.3361	5.00547	0	
0.4920	-21.4896	5.30954	0	
0.4927	-26.3695	5.30954	0	
0.4933	-27.2788	5.30954	0	
0.4940	-25.7633	2.87698	0	
0.4947	-20.8834	1.35662	0	
0.4953	-17.5191	2.57291	0	
0.4960	-15.9733	1.66069	0	
0.4967	-12.033	-0.491191	0	
0.4973	-7.1228	-1.70747	0	
0.4980	-5.00111	-3.83597	0	
0.4987	-1.93983	-4.74818	0	
0.4993	0.788054	-2.31562	0	
0.5000	0.181859	-2.92376	0	
0.5007	4.45554	-5.68378	0	
0.5013	16.9735	-3.83597	0	
0.5020	25.5208	-2.92376	0	
0.5027	26.4301	-6.596	0	
0.5033	25.5208	-5.68378	0	
0.5040	24.3084	-0.795262	0	
0.5047	20.641	-1.4034	0	
0.5053	18.1859	-5.05225	0	
0.5060	15.458	-3.83597	0	
0.5067	9.03232	-0.18712	0	
0.5073	4.45554	1.96476	0	
0.5080	5.66793	2.57291	0	
0.5087	4.75864	0.725092	0	
0.5093	-0.121239	-1.4034	0	
0.5100	-2.24292	-2.31562	0	
0.5107	-2.87943	-2.31562	0	
0.5113	-10.4872	0.421021	0	
0.5120	-20.2469	4.09326	0	
0.5127	-23.0051	3.78919	0	
0.5133	-22.3989	2.87698	0	
0.5140	-23.3082	6.22175	0	
0.5147	-21.4896	7.46143	0	
0.5153	-16.9129	4.7014	0	
0.5160	-13.8516	3.18105	0	
0.5167	-11.3965	1.66069	0	
0.5173	-9.27479	-1.4034	0	
0.5180	-9.27479	-0.795262	0	
0.5187	-8.3655	0.11695	0	
0.5193	-5.30421	-2.31562	0	
0.5200	-2.54602	-3.5319	0	
0.5207	3.54625	-1.09933	0	
0.5213	11.7905	-0.795262	0	
0.5220	18.1859	-2.61969	0	
0.5227	24.6115	-4.14004	0	
0.5233	27.3394	-4.74818	0	
0.5240	23.3688	-2.92376	0	
0.5247	19.7317	-1.4034	0	
0.5253	19.0952	-1.09933	0	
0.5260	15.7611	-0.491191	0	
0.5267	11.7905	1.96476	0	
0.5273	10.5478	3.48512	0	
0.5280	8.72922	2.87698	0	
0.5287	7.21373	1.66069	0	
0.5293	6.91063	-1.09933	0	
0.5300	4.15244	-2.92376	0	
0.5307	-1.33363	-0.795262	0	
0.5313	-10.1841	5.00547	0	
0.5320	-20.5803	7.46143	0	
0.5327	-26.6726	5.61361	0	
0.5333	-27.5819	4.09326	0	
0.5340	-27.2788	3.78919	0	
0.5347	-23.9144	2.26884	0	
0.5353	-19.6407	0.725092	0	
0.5360	-18.4284	0.11695	0	
0.5367	-16.6098	-0.491191	0	
0.5373	-11.0934	-1.09933	0	
0.5380	-5.00111	-1.09933	0	
0.5387	-0.121239	-2.01154	0	
0.5393	1.39425	-1.4034	0	
0.5400	1.09115	-0.18712	0	
0.5407	5.06173	-2.31562	0	
0.5413	14.2153	-5.68378	0	
0.5420	22.7627	-3.83597	0	
0.5427	27.0363	-2.61969	0	
0.5433	27.9456	-3.5319	0	
0.5440	26.7332	-2.01154	0	
0.5447	25.2177	0.725092	0	
0.5453	21.2472	0.725092	0	
0.5460	14.8215	1.05255	0	
0.5467	9.33541	0.725092	0	
0.5473	6.30444	-2.31562	0	
0.5480	3.54625	-2.01154	0	
0.5487	2.33385	1.35662	0	
0.5493	0.788054	1.66069	0	
0.5500	-2.87943	0.421021	0	
0.5507	-8.6686	2.87698	0	
0.5513	-17.5191	6.22175	0	
0.5520	-25.4602	7.7655	0	
0.5527	-29.4308	8.06957	0	
0.5533	-29.4308	5.30954	0	
0.5540	-28.1881	1.96476	0	
0.5547	-24.5206	1.96476	0	
0.5553	-20.2469	3.48512	0	
0.5560	-15.6702	2.57291	0	
0.5567	-9.27479	1.35662	0	
0.5573	-4.69802	1.66069	0	
0.5580	-3.48563	-0.18712	0	
0.5587	0.484957	-2.92376	0	
0.5593	5.36483	-3.83597	0	
0.5600	5.66793	-2.92376	0	
0.5607	7.81993	-3.22783	0	
0.5613	17.2766	-4.74818	0	
0.5620	26.127	-7.81228	0	
0.5627	29.1883	-9.02856	0	
0.5633	29.1883	-6.596	0	
0.5640	27.0363	-6.29192	0	
0.5647	23.3688	-7.50821	0	
0.5653	20.0348	-3.83597	0	
0.5660	15.458	0.725092	0	
0.5667	8.72922	-1.70747	0	
0.5673	3.54625	-4.14004	0	
0.5680	0.788054	-1.70747	0	
0.5687	-1.63673	-0.795262	0	
0.5693	-4.09182	-3.5319	0	
0.5700	-5.00111	-4.74818	0	
0.5707	-6.5166	-3.22783	0	
0.5713	-14.7609	0.11695	0	
0.5720	-25.7633	3.18105	0	
0.5727	-29.4308	2.57291	0	
0.5733	-26.0664	1.35662	0	
0.5740	-23.9144	1.66069	0	
0.5747	-21.7927	1.96476	0	
0.5753	-17.8222	2.26884	0	
0.5760	-14.4578	3.78919	0	
0.5767	-11.7299	3.78919	0	
0.5773	-8.9717	1.66069	0	
0.5780	-5.60731	0.725092	0	
0.5787	-0.424337	0.421021	0	
0.5793	1.69735	1.05255	0	
0.5800	1.69735	2.57291	0	
0.5807	7.81993	1.35662	0	
0.5813	19.3983	-1.70747	0	
0.5820	26.7332	-3.83597	0	
0.5827	30.0976	-5.68378	0	
0.5833	31.9162	-3.83597	0	
0.5840	28.2487	-2.01154	0	
0.5847	20.9441	-5.05225	0	
0.5853	16.9735	-6.596	0	
0.5860	14.5184	-3.83597	0	
0.5867	9.94161	-3.83597	0	
0.5873	5.66793	-3.22783	0	
0.5880	5.06173	1.05255	0	
0.5887	2.94005	2.26884	0	
0.5893	-1.33363	2.26884	0	
0.5900	-4.69802	4.39733	0	
0.5907	-8.9717	4.09326	0	
0.5913	-17.5191	3.78919	0	
0.5920	-26.3695	8.37364	0	
0.5927	-30.3401	10.8062	0	
0.5933	-30.9463	8.37364	0	
0.5940	-31.8556	4.7014	0	
0.5947	-31.2494	1.05255	0	
0.5953	-25.4602	-0.18712	0	
0.5960	-18.4284	0.725092	0	
0.5967	-14.4578	0.11695	0	
0.5973	-11.3965	-1.4034	0	
0.5980	-5.00111	-2.31562	0	
0.5987	-0.727435	-2.61969	0	
0.5993	-1.93983	-0.795262	0	
0.6000	-1.93983	-1.09933	0	
0.6007	4.45554	-4.14004	0	
0.6013	14.5184	-5.05225	0	
0.6020	23.3688	-4.14004	0	
0.6027	29.4914	-5.05225	0	
0.6033	30.0976	-3.22783	0	
0.6040	25.2177	-1.09933	0	
0.6047	20.641	-2.92376	0	
0.6053	18.489	-3.22783	0	
0.6060	14.5184	0.725092	0	
0.6067	8.42612	2.57291	0	
0.6073	5.06173	3.48512	0	
0.6080	4.45554	5.00547	0	
0.6087	0.181859	5.00547	0	
0.6093	-6.21351	5.30954	0	
0.6100	-8.6686	4.7014	0	
0.6107	-10.1841	3.18105	0	
0.6113	-16.6098	5.00547	0	
0.6120	-23.6113	8.37364	0	
0.6127	-25.7633	7.13397	0	
0.6133	-23.9144	4.7014	0	
0.6140	-20.2469	3.78919	0	
0.6147	-16.6098	1.66069	0	
0.6153	-13.8516	-1.4034	0	
0.6160	-10.7903	-2.92376	0	
0.6167	-6.21351	-2.92376	0	
0.6173	-3.48563	-5.05225	0	
0.6180	-1.03053	-7.50821	0	
0.6187	3.84934	-5.68378	0	
0.6193	6.91063	-3.83597	0	
0.6200	6.30444	-6.29192	0	
0.6207	9.03232	-9.6367	0	
0.6213	15.7611	-10.5489	0	
0.6220	23.3688	-9.02856	0	
0.6227	28.5821	-5.05225	0	
0.6233	29.4914	-3.22783	0	
0.6240	26.7332	-3.5319	0	
0.6247	23.6719	-0.18712	0	
0.6253	20.641	3.48512	0	
0.6260	17.2766	1.66069	0	
0.6267	14.8215	-0.18712	0	
0.6273	12.6998	0.725092	0	
0.6280	10.2447	1.66069	0	
0.6287	6.60753	4.39733	0	
0.6293	2.63695	4.39733	0	
0.6300	-0.727435	1.66069	0	
0.6307	-5.91041	1.66069	0	
0.6313	-15.9733	4.39733	0	
0.6320	-25.1571	4.09326	0	
0.6327	-29.0974	3.18105	0	
0.6333	-30.3401	2.26884	0	
0.6340	-28.1881	-0.491191	0	
0.6347	-22.0958	-1.09933	0	
0.6353	-17.216	2.57291	0	
0.6360	-14.7609	1.66069	0	
0.6367	-12.033	-3.22783	0	
0.6373	-8.3655	-4.74818	0	
0.6380	-4.09182	-3.83597	0	
0.6387	0.181859	-3.5319	0	
0.6393	0.788054	-2.92376	0	
0.6400	0.788054	-2.01154	0	
0.6407	5.66793	-1.70747	0	
0.6413	14.2153	-2.61969	0	
0.6420	20.0348	-3.5319	0	
0.6427	22.1565	-2.92376	0	
0.6433	22.7627	-1.70747	0	
0.6440	22.4596	-0.491191	0	
0.6447	21.2472	0.421021	0	
0.6453	18.7921	1.66069	0	
0.6460	14.2153	2.26884	0	
0.6467	10.5478	2.87698	0	
0.6473	8.72922	5.61361	0	
0.6480	5.36483	5.30954	0	
0.6487	0.788054	0.421021	0	
0.6493	-1.93983	-2.01154	0	
0.6500	-3.78872	-2.31562	0	
0.6507	-7.45621	-2.92376	0	
0.6513	-13.5485	0.421021	0	
0.6520	-21.7927	3.48512	0	
0.6527	-26.9757	0.725092	0	
0.6533	-26.9757	0.421021	0	
0.6540	-26.0664	3.48512	0	
0.6547	-24.8237	1.66069	0	
0.6553	-20.2469	-0.795262	0	
0.6560	-14.4578	1.66069	0	
0.6567	-9.88099	1.66069	0	
0.6573	-3.48563	-1.4034	0	
0.6580	-0.121239	-1.4034	0	
0.6587	-2.87943	-2.92376	0	
0.6593	-2.54602	-5.05225	0	
0.6600	2.63695	-1.4034	0	
0.6607	5.36483	1.66069	0	
0.6613	10.8812	-3.5319	0	
0.6620	21.5503	-7.50821	0	
0.6627	26.127	-7.20414	0	
0.6633	23.975	-5.68378	0	
0.6640	23.6719	-2.01154	0	
0.6647	21.2472	2.26884	0	
0.6653	16.3673	1.66069	0	
0.6660	14.5184	0.11695	0	
0.6667	12.6998	2.26884	0	
0.6673	8.42612	3.78919	0	
0.6680	4.45554	3.48512	0	
0.6687	0.484957	3.78919	0	
0.6693	-3.78872	1.35662	0	
0.6700	-4.09182	-1.70747	0	
0.6707	-6.8197	1.66069	0	
0.6713	-18.4284	5.30954	0	
0.6720	-30.037	4.39733	0	
0.6727	-32.4618	2.26884	0	
0.6733	-31.2494	1.05255	0	
0.6740	-29.7339	1.66069	0	
0.6747	-25.7633	5.61361	0	
0.6753	-20.5803	8.06957	0	
0.6760	-17.5191	5.00547	0	
0.6767	-14.7609	2.26884	0	
0.6773	-10.4872	2.26884	0	
0.6780	-8.0624	1.66069	0	
0.6787	-5.60731	1.05255	0	
0.6793	-2.54602	1.35662	0	
0.6800	-0.727435	-1.09933	0	
0.6807	3.54625	-4.14004	0	
0.6813	13.306	-5.68378	0	
0.6820	21.8534	-6.29192	0	
0.6827	27.3394	-8.72449	0	
0.6833	30.4007	-10.2448	0	
0.6840	27.6425	-8.72449	0	
0.6847	21.5503	-7.50821	0	
0.6853	18.1859	-6.29192	0	
0.6860	16.0642	-2.31562	0	
0.6867	10.2447	-1.09933	0	
0.6873	3.24315	-3.83597	0	
0.6880	-0.727435	-2.92376	0	
0.6887	-1.33363	0.421021	0	
0.6893	-1.33363	-0.18712	0	
0.6900	-2.54602	0.725092	0	
0.6907	-5.30421	5.00547	0	
0.6913	-12.3361	5.30954	0	
0.6920	-22.0958	2.87698	0	
0.6927	-27.5819	4.09326	0	
0.6933	-26.6726	5.30954	0	
0.6940	-23.3082	5.00547	0	
0.6947	-19.0345	5.30954	0	
0.6953	-14.7609	5.00547	0	
0.6960	-10.4872	4.39733	0	
0.6967	-4.09182	3.18105	0	
0.6973	-0.727435	-0.18712	0	
0.6980	-1.33363	-2.31562	0	
0.6987	0.788054	-1.09933	0	
0.6993	3.84934	-1.09933	0	
0.7000	5.36483	-2.01154	0	
0.7007	11.1843	-2.92376	0	
0.7013	22.7627	-5.05225	0	
0.7020	29.1883	-5.68378	0	
0.7027	29.4914	-4.44411	0	
0.7033	27.3394	-6.596	0	
0.7040	22.7627	-8.42042	0	
0.7047	18.489	-4.74818	0	
0.7053	16.3673	-2.01154	0	
0.7060	13.9122	-0.491191	0	
0.7067	11.7905	1.66069	0	
0.7073	7.51683	1.05255	0	
0.7080	0.484957	0.725092	0	
0.7087	-4.69802	3.48512	0	
0.7093	-4.69802	2.87698	0	
0.7100	-5.60731	0.725092	0	
0.7107	-8.6686	0.725092	0	
0.7113	-14.1547	1.66069	0	
0.7120	-23.9144	1.35662	0	
0.7127	-31.5525	1.05255	0	
0.7133	-30.3401	1.35662	0	
0.7140	-26.6726	1.96476	0	
0.7147	-24.8237	2.26884	0	
0.7153	-21.1865	1.66069	0	
0.7160	-14.4578	1.66069	0	
0.7167	-9.27479	0.421021	0	
0.7173	-6.5166	-2.31562	0	
0.7180	-3.78872	-0.491191	0	
0.7187	-0.424337	3.48512	0	
0.7193	2.33385	4.09326	0	
0.7200	4.15244	3.48512	0	
0.7207	8.12302	1.96476	0	
0.7213	15.7611	-1.09933	0	
0.7220	21.2472	-0.491191	0	
0.7227	22.4596	-0.795262	0	
0.7233	21.8534	-3.5319	0	
0.7240	21.8534	-2.92376	0	
0.7247	21.8534	-0.18712	0	
0.7253	20.0348	-0.491191	0	
0.7260	15.458	-0.18712	0	
0.7267	10.5478	0.725092	0	
0.7273	6.91063	0.11695	0	
0.7280	4.75864	1.05255	0	
0.7287	3.54625	1.66069	0	
0.7293	3.54625	-1.09933	0	
0.7300	0.484957	-2.01154	0	
0.7307	-8.0624	0.11695	0	
0.7313	-17.216	1.35662	0	
0.7320	-23.9144	1.66069	0	
0.7327	-29.4308	2.57291	0	
0.7333	-30.3401	2.57291	0	
0.7340	-26.0664	2.87698	0	
0.7347	-22.0958	2.87698	0	
0.7353	-19.6407	1.05255	0	
0.7360	-14.7609	-0.795262	0	
0.7367	-10.7903	-1.70747	0	
0.7373	-8.0624	-1.09933	0	
0.7380	-3.78872	1.96476	0	
0.7387	0.484957	2.57291	0	
0.7393	2.63695	-2.61969	0	
0.7400	4.75864	-5.68378	0	
0.7407	8.72922	-3.83597	0	
0.7413	16.0642	-3.83597	0	
0.7420	23.975	-6.596	0	
0.7427	27.3394	-5.35632	0	
0.7433	27.3394	-5.05225	0	
0.7440	26.4301	-7.50821	0	
0.7447	23.0657	-5.68378	0	
0.7453	17.2766	-3.83597	0	
0.7460	11.7905	-5.68378	0	
0.7467	7.21373	-6.596	0	
0.7473	3.84934	-5.05225	0	
0.7480	0.484957	-3.5319	0	
0.7487	-4.69802	-0.18712	0	
0.7493	-6.5166	2.26884	0	
0.7500	-5.91041	1.66069	0	
0.7507	-11.0934	3.48512	0	
0.7513	-21.1865	6.8299	0	
0.7520	-27.2788	8.98178	0	
0.7527	-29.4308	8.37364	0	
0.7533	-29.4308	6.8299	0	
0.7540	-28.7943	4.39733	0	
0.7547	-26.0664	2.26884	0	
0.7553	-19.3376	1.05255	0	
0.7560	-12.033	-1.4034	0	
0.7567	-8.3655	-6.90007	0	
0.7573	-6.5166	-11.7652	0	
0.7580	-4.69802	-10.2448	0	
0.7587	-1.63673	-6.596	0	
0.7593	2.33385	-5.68378	0	
0.7600	4.45554	-6.596	0	
0.7607	8.72922	-6.90007	0	
0.7613	18.1859	-7.50821	0	
0.7620	25.2177	-5.68378	0	
0.7627	27.0363	-3.83597	0	
0.7633	29.1883	-3.83597	0	
0.7640	30.0976	-2.92376	0	
0.7647	24.9146	-1.09933	0	
0.7653	18.489	-1.4034	0	
0.7660	14.5184	-1.09933	0	
0.7667	9.33541	-1.09933	0	
0.7673	4.15244	-2.61969	0	
0.7680	3.24315	-1.09933	0	
0.7687	2.33385	1.96476	0	
0.7693	-1.63673	0.725092	0	
0.7700	-3.78872	-0.18712	0	
0.7707	-6.5166	4.39733	0	
0.7713	-14.7609	7.46143	0	
0.7720	-23.0051	7.13397	0	
0.7727	-26.3695	7.46143	0	
0.7733	-28.4912	7.46143	0	
0.7740	-28.4912	4.39733	0	
0.7747	-23.6113	2.26884	0	
0.7753	-18.7314	1.66069	0	
0.7760	-14.4578	0.421021	0	
0.7767	-8.6686	-1.09933	0	
0.7773	-3.78872	-2.01154	0	
0.7780	-0.424337	-2.61969	0	
0.7787	3.84934	-2.31562	0	
0.7793	6.91063	-1.70747	0	
0.7800	8.12302	-1.4034	0	
0.7807	16.0642	-1.4034	0	
0.7813	30.0976	-2.01154	0	
0.7820	39.2512	-3.83597	0	
0.7827	40.7667	-4.74818	0	
0.7833	40.1605	-2.92376	0	
0.7840	36.493	-3.22783	0	
0.7847	31.0069	-3.5319	0	
0.7853	27.3394	0.725092	0	
0.7860	22.1565	3.48512	0	
0.7867	12.0936	0.725092	0	
0.7873	4.45554	0.421021	0	
0.7880	2.03076	3.18105	0	
0.7887	-1.03053	1.96476	0	
0.7893	-4.39492	-1.09933	0	
0.7900	-6.5166	-0.795262	0	
0.7907	-9.88099	3.18105	0	
0.7913	-16.3067	5.91768	0	
0.7920	-23.0051	5.91768	0	
0.7927	-28.1881	4.39733	0	
0.7933	-30.3401	3.48512	0	
0.7940	-28.7943	1.66069	0	
0.7947	-25.4602	-0.795262	0	
0.7953	-22.0958	0.725092	0	
0.7960	-18.4284	2.26884	0	
0.7967	-12.9423	0.421021	0	
0.7973	-9.27479	-0.491191	0	
0.7980	-7.1228	0.725092	0	
0.7987	-2.54602	1.05255	0	
0.7993	2.63695	0.725092	0	
0.8000	5.66793	0.421021	0	
0.8007	9.94161	-0.18712	0	
0.8013	16.3673	0.421021	0	
0.8020	19.7317	0.725092	0	
0.8027	22.1565	-1.09933	0	
0.8033	25.5208	-2.92376	0	
0.8040	24.9146	-1.4034	0	
0.8047	20.0348	-1.09933	0	
0.8053	16.3673	-3.5319	0	
0.8060	13.306	-3.5319	0	
0.8067	7.21373	-0.18712	0	
0.8073	0.484957	-0.18712	0	
0.8080	-4.69802	-4.14004	0	
0.8087	-7.45621	-7.81228	0	
0.8093	-8.0624	-6.29192	0	
0.8100	-8.3655	-3.5319	0	
0.8107	-9.57789	-2.01154	0	
0.8113	-16.9129	1.96476	0	
0.8120	-30.6432	7.46143	0	
0.8127	-39.4937	5.91768	0	
0.8133	-34.0076	0.421021	0	
0.8140	-26.6726	-0.18712	0	
0.8147	-23.0051	1.66069	0	
0.8153	-14.1547	0.725092	0	
0.8160	-2.54602	0.11695	0	
0.8167	3.54625	-0.18712	0	
0.8173	7.21373	-1.09933	0	
0.8180	10.2447	0.421021	0	
0.8187	10.5478	0.725092	0	
0.8193	11.1843	-2.01154	0	
0.8200	12.6998	-2.61969	0	
0.8207	12.0936	-0.18712	0	
0.8213	11.7905	-1.70747	0	
0.8220	15.7611	-5.35632	0	
0.8227	20.0348	-6.596	0	
0.8233	17.8828	-5.35632	0	
0.8240	7.51683	-4.44411	0	
0.8247	-0.424337	-3.5319	0	
0.8253	-1.03053	-2.31562	0	
0.8260	-4.09182	-1.09933	0	
0.8267	-8.3655	0.11695	0	
0.8273	-0.121239	1.66069	0	
0.8280	14.5184	1.35662	0	
0.8287	21.2472	-2.31562	0	
0.8293	18.1859	-3.83597	0	
0.8300	10.8812	-1.70747	0	
0.8307	-0.727435	0.725092	0	
0.8313	-15.6702	0.11695	0	
0.8320	-28.4912	1.35662	0	
0.8327	-31.8556	5.30954	0	
0.8333	-29.4308	6.22175	0	
0.8340	-29.4308	2.87698	0	
0.8347	-28.1881	2.87698	0	
0.8353	-21.1865	4.09326	0	
0.8360	-16.9129	0.725092	0	
0.8367	-14.7609	-2.92376	0	
0.8373	-8.6686	-1.09933	0	
0.8380	-3.78872	1.05255	0	
0.8387	0.181859	-0.18712	0	
0.8393	5.97103	-1.09933	0	
0.8400	7.21373	-0.491191	0	
0.8407	5.36483	-2.61969	0	
0.8413	10.8812	-6.596	0	
0.8420	19.0952	-7.81228	0	
0.8427	23.0657	-5.68378	0	
0.8433	23.975	-4.74818	0	
0.8440	15.1549	-6.596	0	
0.8447	-2.87943	-8.11635	0	
0.8453	-12.9423	-9.33263	0	
0.8460	-12.6392	-8.72449	0	
0.8467	-13.8516	-2.92376	0	
0.8473	-14.1547	2.57291	0	
0.8480	-12.6392	1.96476	0	
0.8487	-15.064	1.05255	0	
0.8493	-15.9733	1.66069	0	
0.8500	-7.45621	0.725092	0	
0.8507	2.03076	2.57291	0	
0.8513	3.54625	7.7655	0	
0.8520	2.63695	8.98178	0	
0.8527	1.09115	5.30954	0	
0.8533	-1.03053	3.78919	0	
0.8540	-1.63673	4.7014	0	
0.8547	-0.121239	3.48512	0	
0.8553	1.39425	0.725092	0	
0.8560	2.94005	0.421021	0	
0.8567	5.06173	-0.795262	0	
0.8573	6.30444	-2.92376	0	
0.8580	9.03232	-2.92376	0	
0.8587	10.2447	-2.31562	0	
0.8593	7.21373	-2.92376	0	
0.8600	5.97103	-1.09933	0	
0.8607	10.8812	-0.491191	0	
0.8613	18.1859	-5.35632	0	
0.8620	25.2177	-7.50821	0	
0.8627	28.8852	-3.83597	0	
0.8633	27.3394	-0.795262	0	
0.8640	26.7332	0.11695	0	
0.8647	28.8852	2.57291	0	
0.8653	26.4301	3.18105	0	
0.8660	20.641	1.05255	0	
0.8667	16.9735	1.66069	0	
0.8673	12.3967	3.48512	0	
0.8680	6.30444	2.87698	0	
0.8687	3.84934	2.57291	0	
0.8693	2.63695	3.48512	0	
0.8700	-1.03053	2.26884	0	
0.8707	-7.1228	1.96476	0	
0.8713	-18.4284	5.30954	0	
0.8720	-30.3401	7.13397	0	
0.8727	-33.068	4.7014	0	
0.8733	-30.9463	3.48512	0	
0.8740	-30.037	3.78919	0	
0.8747	-26.9757	2.57291	0	
0.8753	-21.7927	1.66069	0	
0.8760	-17.8222	2.26884	0	
0.8767	-13.5485	0.725092	0	
0.8773	-9.57789	0.11695	0	
0.8780	-7.75931	1.66069	0	
0.8787	-3.78872	0.725092	0	
0.8793	-0.727435	-2.31562	0	
0.8800	-1.03053	-1.09933	0	
0.8807	5.36483	-0.18712	0	
0.8813	17.5797	-3.83597	0	
0.8820	24.3084	-7.20414	0	
0.8827	25.5208	-9.02856	0	
0.8833	26.7332	-9.33263	0	
0.8840	25.5208	-5.98785	0	
0.8847	21.5503	-4.14004	0	
0.8853	16.9735	-6.29192	0	
0.8860	12.6998	-5.68378	0	
0.8867	9.63851	-2.01154	0	
0.8873	7.21373	0.725092	0	
0.8880	3.54625	0.725092	0	
0.8887	0.181859	-1.4034	0	
0.8893	-1.03053	-3.83597	0	
0.8900	-1.03053	-3.22783	0	
0.8907	-5.60731	0.11695	0	
0.8913	-16.9129	2.87698	0	
0.8920	-26.3695	4.7014	0	
0.8927	-27.885	5.30954	0	
0.8933	-27.5819	3.78919	0	
0.8940	-28.4912	2.57291	0	
0.8947	-24.5206	1.66069	0	
0.8953	-17.5191	-0.18712	0	
0.8960	-12.6392	-0.18712	0	
0.8967	-8.3655	1.35662	0	
0.8973	-7.1228	1.66069	0	
0.8980	-6.5166	1.35662	0	
0.8987	-0.727435	1.35662	0	
0.8993	3.54625	0.725092	0	
0.9000	0.788054	-2.01154	0	
0.9007	2.03076	-4.74818	0	
0.9013	11.7905	-5.35632	0	
0.9020	19.7317	-4.14004	0	
0.9027	21.5503	-3.83597	0	
0.9033	21.8534	-1.09933	0	
0.9040	20.641	1.66069	0	
0.9047	17.8828	0.11695	0	
0.9053	14.5184	-2.61969	0	
0.9060	11.7905	-2.61969	0	
0.9067	9.94161	-2.61969	0	
0.9073	7.21373	-1.09933	0	
0.9080	1.69735	4.09326	0	
0.9087	-2.87943	5.30954	0	
0.9093	-5.30421	3.18105	0	
0.9100	-8.0624	4.39733	0	
0.9107	-11.3965	6.52583	0	
0.9113	-16.3067	6.8299	0	
0.9120	-23.9144	9.28585	0	
0.9127	-29.4308	10.8062	0	
0.9133	-26.6726	7.13397	0	
0.9140	-23.0051	5.30954	0	
0.9147	-23.3082	5.61361	0	
0.9153	-21.1865	1.66069	0	
0.9160	-16.3067	-2.31562	0	
0.9167	-12.9423	-2.01154	0	
0.9173	-8.9717	-1.4034	0	
0.9180	-3.18253	-2.92376	0	
0.9187	0.788054	-3.83597	0	
0.9193	2.63695	-4.44411	0	
0.9200	3.54625	-4.74818	0	
0.9207	5.66793	-2.92376	0	
0.9213	13.6091	-2.01154	0	
0.9220	23.975	-3.83597	0	
0.9227	28.5821	-4.74818	0	
0.9233	27.9456	-4.14004	0	
0.9240	25.5208	-2.92376	0	
0.9247	21.8534	-1.09933	0	
0.9253	20.0348	-1.70747	0	
0.9260	17.2766	-4.14004	0	
0.9267	12.0936	-3.22783	0	
0.9273	9.03232	1.96476	0	
0.9280	6.60753	1.96476	0	
0.9287	1.39425	-1.70747	0	
0.9293	-1.93983	-0.491191	0	
0.9300	-3.78872	2.26884	0	
0.9307	-10.1841	1.96476	0	
0.9313	-19.6407	4.09326	0	
0.9320	-25.4602	8.37364	0	
0.9327	-27.5819	8.98178	0	
0.9333	-28.1881	8.06957	0	
0.9340	-26.3695	6.22175	0	
0.9347	-21.1865	1.66069	0	
0.9353	-14.4578	0.725092	0	
0.9360	-10.1841	5.00547	0	
0.9367	-6.5166	3.78919	0	
0.9373	-1.03053	-1.09933	0	
0.9380	3.54625	-0.795262	0	
0.9387	5.36483	1.05255	0	
0.9393	6.30444	-1.70747	0	
0.9400	8.12302	-2.92376	0	
0.9407	12.0936	-2.01154	0	
0.9413	20.3379	-5.35632	0	
0.9420	30.7038	-8.11635	0	
0.9427	37.0992	-6.596	0	
0.9433	32.2193	-8.42042	0	
0.9440	20.9441	-12.0927	0	
0.9447	16.6704	-9.33263	0	
0.9453	20.0348	-3.5319	0	
0.9460	21.5503	-2.01154	0	
0.9467	22.7627	-1.70747	0	
0.9473	24.9146	1.96476	0	
0.9480	20.3379	4.09326	0	
0.9487	12.0936	1.66069	0	
0.9493	5.97103	-0.491191	0	
0.9500	-2.87943	-0.491191	0	
0.9507	-14.7609	1.66069	0	
0.9513	-23.6113	5.30954	0	
0.9520	-34.3107	6.8299	0	
0.9527	-47.7379	5.00547	0	
0.9533	-50.7689	3.48512	0	
0.9540	-40.0998	3.18105	0	
0.9547	-26.6726	-0.18712	0	
0.9553	-20.8834	-4.74818	0	
0.9560	-20.5803	-5.68378	0	
0.9567	-19.3376	-5.05225	0	
0.9573	-15.064	-4.74818	0	
0.9580	-9.27479	-3.22783	0	
0.9587	-4.69802	-1.09933	0	
0.9593	-4.09182	-2.01154	0	
0.9600	-6.5166	-4.44411	0	
0.9607	-4.69802	-5.05225	0	
0.9613	5.66793	-5.35632	0	
0.9620	16.0642	-6.596	0	
0.9627	17.2766	-7.50821	0	
0.9633	12.3967	-5.68378	0	
0.9640	7.81993	-3.22783	0	
0.9647	3.54625	-1.4034	0	
0.9653	-1.03053	1.05255	0	
0.9660	-5.30421	3.48512	0	
0.9667	-6.5166	3.18105	0	
0.9673	-3.48563	1.05255	0	
0.9680	2.33385	1.05255	0	
0.9687	-0.727435	1.66069	0	
0.9693	-12.9423	1.66069	0	
0.9700	-16.6098	2.26884	0	
0.9707	-15.3671	5.00547	0	
0.9713	-25.7633	7.13397	0	
0.9720	-40.0998	7.13397	0	
0.9727	-41.3122	6.8299	0	
0.9733	-35.8262	6.22175	0	
0.9740	-27.885	5.00547	0	
0.9747	-16.6098	4.7014	0	
0.9753	-4.39492	5.30954	0	
0.9760	7.81993	4.09326	0	
0.9767	18.1859	1.05255	0	
0.9773	22.7627	-2.01154	0	
0.9780	24.6115	-4.74818	0	
0.9787	20.9441	-6.29192	0	
0.9793	11.1843	-4.74818	0	
0.9800	6.30444	-3.83597	0	
0.9807	10.8812	-6.90007	0	
0.9813	20.0348	-11.4611	0	
0.9820	31.0069	-11.7652	0	
0.9827	36.1899	-6.29192	0	
0.9833	31.0069	-4.14004	0	
0.9840	26.4301	-7.20414	0	
0.9847	26.7332	-7.20414	0	
0.9853	26.127	-3.83597	0	
0.9860	23.0657	-2.92376	0	
0.9867	16.6704	-2.92376	0	
0.9873	7.21373	-2.92376	0	
0.9880	2.94005	-2.61969	0	
0.9887	4.75864	-1.09933	0	
0.9893	6.60753	0.421021	0	
0.9900	6.91063	-0.491191	0	
0.9907	2.94005	0.421021	0	
0.9913	-7.1228	4.09326	0	
0.9920	-16.6098	4.7014	0	
0.9927	-21.1865	2.57291	0	
0.9933	-25.1571	2.57291	0	
0.9940	-26.0664	2.57291	0	
0.9947	-21.1865	0.725092	0	
0.9953	-15.6702	1.66069	0	
0.9960	-12.9423	3.48512	0	
0.9967	-10.7903	1.66069	0	
0.9973	-8.3655	-1.09933	0	
0.9980	-5.91041	-3.83597	0	
0.9987	-1.93983	-6.596	0	
0.9993	3.84934	-3.83597	0	
1.0000	7.81993	0.421021	0	
1.0007	10.8812	-1.09933	0	
1.0013	19.0952	-2.31562	0	
1.0020	27.3394	-2.01154	0	
1.0027	30.0976	-3.83597	0	
1.0033	29.1883	-3.83597	0	
1.0040	26.4301	-1.70747	0	
1.0047	22.1565	-0.18712	0	
1.0053	20.0348	1.05255	0	
1.0060	17.2766	1.05255	0	
1.0067	11.1843	-2.31562	0	
1.0073	7.21373	-1.09933	0	
1.0080	5.36483	4.7014	0	
1.0087	1.39425	4.09326	0	
1.0093	-2.24292	0.11695	0	
1.0100	-4.39492	2.26884	0	
1.0107	-10.1841	4.7014	0	
1.0113	-19.3376	5.00547	0	
1.0120	-27.5819	8.06957	0	
1.0127	-32.7649	8.98178	0	
1.0133	-31.2494	4.39733	0	
1.0140	-25.7633	2.57291	0	
1.0147	-22.702	4.09326	0	
1.0153	-20.8834	1.66069	0	
1.0160	-15.6702	1.66069	0	
1.0167	-11.0934	5.91768	0	
1.0173	-8.3655	4.39733	0	
1.0180	-5.60731	1.35662	0	
1.0187	-1.93983	2.26884	0	
1.0193	-1.03053	1.66069	0	
1.0200	-1.63673	-0.18712	0	
1.0207	3.54625	0.725092	0	
1.0213	15.458	-1.09933	0	
1.0220	24.3084	-3.83597	0	
1.0227	25.2177	-2.92376	0	
1.0233	24.9146	-2.92376	0	
1.0240	24.6115	-5.05225	0	
1.0247	20.0348	-3.22783	0	
1.0253	15.7611	-1.09933	0	
1.0260	13.6091	-2.92376	0	
1.0267	8.12302	-2.92376	0	
1.0273	0.788054	-1.09933	0	
1.0280	-1.63673	1.66069	0	
1.0287	-3.78872	4.09326	0	
1.0293	-6.5166	3.18105	0	
1.0300	-6.5166	1.66069	0	
1.0307	-9.88099	6.52583	0	
1.0313	-20.2469	12.3266	0	
1.0320	-27.2788	9.58992	0	
1.0327	-27.2788	3.78919	0	
1.0333	-26.6726	2.57291	0	
1.0340	-22.3989	1.96476	0	
1.0347	-13.5485	-1.09933	0	
1.0353	-9.27479	-1.70747	0	
1.0360	-8.9717	-0.18712	0	
1.0367	-5.30421	0.725092	0	
1.0373	-1.93983	1.35662	0	
1.0380	-2.87943	-1.09933	0	
1.0387	-2.87943	-5.68378	0	
1.0393	-1.93983	-5.68378	0	
1.0400	-2.87943	-3.22783	0	
1.0407	2.33385	-4.44411	0	
1.0413	15.458	-6.596	0	
1.0420	25.2177	-7.50821	0	
1.0427	27.3394	-7.20414	0	
1.0433	27.6425	-4.14004	0	
1.0440	27.9456	-2.92376	0	
1.0447	25.2177	-4.44411	0	
1.0453	20.9441	-3.5319	0	
1.0460	17.2766	-0.18712	0	
1.0467	14.5184	1.05255	0	
1.0473	13.6091	2.57291	0	
1.0480	11.4874	2.26884	0	
1.0487	7.21373	0.11695	0	
1.0493	5.06173	2.57291	0	
1.0500	3.24315	6.8299	0	
1.0507	-3.48563	5.30954	0	
1.0513	-14.1547	1.35662	0	
1.0520	-23.9144	0.421021	0	
1.0527	-28.7943	0.725092	0	
1.0533	-30.3401	0.11695	0	
1.0540	-30.3401	-0.795262	0	
1.0547	-28.1881	1.35662	0	
1.0553	-22.702	2.57291	0	
1.0560	-17.5191	-0.491191	0	
1.0567	-13.8516	-2.31562	0	
1.0573	-10.1841	-1.70747	0	
1.0580	-5.60731	-2.61969	0	
1.0587	0.181859	-2.61969	0	
1.0593	5.06173	-2.61969	0	
1.0600	9.03232	-5.35632	0	
1.0607	16.3673	-5.98785	0	
1.0613	26.127	-5.68378	0	
1.0620	30.7038	-9.6367	0	
1.0627	29.1883	-10.2448	0	
1.0633	26.7332	-4.44411	0	
1.0640	23.0657	-2.31562	0	
1.0647	17.2766	-3.5319	0	
1.0653	9.63851	-2.92376	0	
1.0660	1.09115	-2.61969	0	
1.0667	-7.1228	-2.01154	0	
1.0673	-10.4872	0.11695	0	
1.0680	-7.75931	1.66069	0	
1.0687	-2.54602	1.96476	0	
1.0693	1.09115	-0.491191	0	
1.0700	2.63695	-3.83597	0	
1.0707	-1.93983	-1.09933	0	
1.0713	-15.6702	5.30954	0	
1.0720	-28.1881	5.00547	0	
1.0727	-32.4618	3.18105	0	
1.0733	-32.4618	3.18105	0	
1.0740	-30.037	1.66069	0	
1.0747	-24.8237	-0.18712	0	
1.0753	-21.1865	-1.09933	0	
1.0760	-18.1253	-3.83597	0	
1.0767	-12.3361	-2.92376	0	
1.0773	-6.5166	0.421021	0	
1.0780	-1.63673	2.26884	0	
1.0787	3.84934	4.09326	0	
1.0793	8.12302	3.18105	0	
1.0800	9.94161	-1.09933	0	
1.0807	15.458	-2.01154	0	
1.0813	23.6719	0.11695	0	
1.0820	29.1883	-0.491191	0	
1.0827	31.31	0.11695	0	
1.0833	32.8255	0.725092	0	
1.0840	31.0069	-2.92376	0	
1.0847	26.127	-5.68378	0	
1.0853	22.1565	-5.35632	0	
1.0860	18.1859	-6.596	0	
1.0867	13.6091	-5.98785	0	
1.0873	8.72922	-2.01154	0	
1.0880	0.788054	0.725092	0	
1.0887	-7.1228	2.57291	0	
1.0893	-7.1228	4.09326	0	
1.0900	-6.5166	3.18105	0	
1.0907	-14.7609	3.18105	0	
1.0913	-22.702	5.30954	0	
1.0920	-24.8237	5.61361	0	
1.0927	-26.0664	5.91768	0	
1.0933	-25.1571	8.37364	0	
1.0940	-18.4284	8.98178	0	
1.0947	-12.3361	7.13397	0	
1.0953	-11.3965	7.7655	0	
1.0960	-9.27479	9.28585	0	
1.0967	-3.18253	10.1981	0	
1.0973	-0.121239	9.89399	0	
1.0980	-1.03053	5.30954	0	
1.0987	-1.63673	-1.4034	0	
1.0993	-4.39492	-4.74818	0	
1.1000	-9.27479	-6.29192	0	
1.1007	-3.48563	-10.5489	0	
1.1013	11.1843	-13.3089	0	
1.1020	17.2766	-11.1571	0	
1.1027	13.9122	-9.33263	0	
1.1033	10.8812	-9.33263	0	
1.1040	8.12302	-5.68378	0	
1.1047	7.81993	-2.92376	0	
1.1053	10.5478	-3.83597	0	
1.1060	7.81993	-3.22783	0	
1.1067	0.484957	-1.09933	0	
1.1073	-2.87943	0.421021	0	
1.1080	-2.87943	2.57291	0	
1.1087	-1.63673	3.48512	0	
1.1093	-1.03053	1.66069	0	
1.1100	-5.00111	5.30954	0	
1.1107	-11.3965	12.6306	0	
1.1113	-18.7314	15.0866	0	
1.1120	-28.7943	11.1103	0	
1.1127	-32.7649	7.46143	0	
1.1133	-27.5819	5.91768	0	
1.1140	-24.8237	5.30954	0	
1.1147	-23.3082	4.09326	0	
1.1153	-17.8222	1.35662	0	
1.1160	-14.7609	-0.795262	0	
1.1167	-12.9423	-2.01154	0	
1.1173	-7.1228	-2.31562	0	
1.1180	-5.30421	-1.09933	0	
1.1187	-5.91041	-1.4034	0	
1.1193	0.181859	-5.35632	0	
1.1200	5.97103	-10.2448	0	
1.1207	9.03232	-13.9171	0	
1.1213	16.0642	-15.7415	0	
1.1220	22.7627	-13.9171	0	
1.1227	28.2487	-10.853	0	
1.1233	37.4326	-11.4611	0	
1.1240	41.3729	-15.7415	0	
1.1247	37.0992	-15.7415	0	
1.1253	32.8255	-12.0927	0	
1.1260	26.4301	-13.0049	0	
1.1267	16.3673	-16.0456	0	
1.1273	10.2447	-10.5489	0	
1.1280	8.12302	-0.491191	0	
1.1287	1.09115	2.57291	0	
1.1293	-9.88099	-0.18712	0	
1.1300	-18.7314	0.11695	0	
1.1307	-23.9144	1.66069	0	
1.1313	-27.885	1.35662	0	
1.1320	-32.7649	1.66069	0	
1.1327	-36.4324	4.09326	0	
1.1333	-36.7355	4.39733	0	
1.1340	-33.068	4.09326	0	
1.1347	-26.3695	4.39733	0	
1.1353	-22.0958	4.39733	0	
1.1360	-19.3376	3.48512	0	
1.1367	-12.9423	3.48512	0	
1.1373	-6.8197	2.26884	0	
1.1380	-4.39492	1.96476	0	
1.1387	-0.424337	4.39733	0	
1.1393	2.94005	4.7014	0	
1.1400	3.84934	2.57291	0	
1.1407	9.94161	2.26884	0	
1.1413	21.8534	1.66069	0	
1.1420	28.2487	-1.70747	0	
1.1427	30.0976	-2.31562	0	
1.1433	31.6131	-1.70747	0	
1.1440	31.0069	-1.70747	0	
1.1447	27.3394	-0.795262	0	
1.1453	23.6719	-1.70747	0	
1.1460	20.9441	-3.83597	0	
1.1467	17.2766	-2.92376	0	
1.1473	12.3967	0.725092	0	
1.1480	8.72922	2.57291	0	
1.1487	6.91063	1.35662	0	
1.1493	2.03076	0.725092	0	
1.1500	-4.39492	3.18105	0	
1.1507	-10.4872	6.52583	0	
1.1513	-19.9438	5.91768	0	
1.1520	-28.7943	5.00547	0	
1.1527	-30.9463	6.52583	0	
1.1533	-32.1587	5.00547	0	
1.1540	-34.6138	1.66069	0	
1.1547	-31.2494	1.66069	0	
1.1553	-23.3082	3.18105	0	
1.1560	-16.3067	1.96476	0	
1.1567	-11.0934	0.725092	0	
1.1573	-8.9717	1.66069	0	
1.1580	-7.45621	2.87698	0	
1.1587	-4.39492	2.26884	0	
1.1593	-1.03053	0.725092	0	
1.1600	2.63695	-0.18712	0	
1.1607	10.2447	-0.18712	0	
1.1613	19.0952	0.725092	0	
1.1620	24.6115	0.11695	0	
1.1627	27.3394	-2.01154	0	
1.1633	28.2487	-2.92376	0	
1.1640	27.6425	-2.92376	0	
1.1647	25.5208	-5.05225	0	
1.1653	21.5503	-6.596	0	
1.1660	18.489	-3.83597	0	
1.1667	17.2766	-1.70747	0	
1.1673	13.6091	-1.4034	0	
1.1680	8.72922	-0.491191	0	
1.1687	7.21373	0.725092	0	
1.1693	7.21373	2.57291	0	
1.1700	3.54625	5.30954	0	
1.1707	-2.87943	6.22175	0	
1.1713	-11.7299	5.91768	0	
1.1720	-21.1865	6.52583	0	
1.1727	-26.6726	6.52583	0	
1.1733	-26.0664	4.7014	0	
1.1740	-22.702	1.66069	0	
1.1747	-17.8222	-0.18712	0	
1.1753	-12.3361	0.11695	0	
1.1760	-8.3655	-1.09933	0	
1.1767	-4.09182	-3.83597	0	
1.1773	-0.121239	-3.83597	0	
1.1780	0.181859	-2.31562	0	
1.1787	-1.03053	-2.92376	0	
1.1793	1.69735	-2.01154	0	
1.1800	4.45554	-0.18712	0	
1.1807	6.60753	0.421021	0	
1.1813	14.5184	1.35662	0	
1.1820	21.2472	1.66069	0	
1.1827	18.489	-1.09933	0	
1.1833	17.8828	-2.61969	0	
1.1840	23.6719	-3.22783	0	
1.1847	19.3983	-5.68378	0	
1.1853	5.36483	-7.50821	0	
1.1860	-4.39492	-5.68378	0	
1.1867	-13.5485	-3.83597	0	
1.1873	-21.4896	-2.92376	0	
1.1880	-19.3376	-2.61969	0	
1.1887	-13.8516	-1.70747	0	
1.1893	-11.0934	-0.18712	0	
1.1900	-4.09182	-1.09933	0	
1.1907	-1.63673	-2.31562	0	
1.1913	-10.4872	1.66069	0	
1.1920	-16.6098	6.22175	0	
1.1927	-14.4578	6.52583	0	
1.1933	-12.9423	6.8299	0	
1.1940	-11.3965	7.7655	0	
1.1947	-9.27479	5.00547	0	
1.1953	-11.7299	2.57291	0	
1.1960	-12.9423	3.78919	0	
1.1967	-6.8197	3.18105	0	
1.1973	0.181859	-1.09933	0	
1.1980	2.63695	-2.61969	0	
1.1987	4.15244	-0.795262	0	
1.1993	5.36483	1.66069	0	
1.2000	5.97103	2.57291	0	
1.2007	9.03232	1.66069	0	
1.2013	16.0642	1.66069	0	
1.2020	22.7627	2.26884	0	
1.2027	25.2177	0.11695	0	
1.2033	23.3688	-3.5319	0	
1.2040	20.9441	-3.83597	0	
1.2047	18.1859	-2.92376	0	
1.2053	12.3967	-3.83597	0	
1.2060	6.30444	-3.5319	0	
1.2067	2.33385	0.421021	0	
1.2073	-0.424337	1.05255	0	
1.2080	-1.03053	0.11695	0	
1.2087	-0.727435	2.26884	0	
1.2093	-2.87943	3.48512	0	
1.2100	-6.5166	0.725092	0	
1.2107	-12.033	2.57291	0	
1.2113	-17.8222	8.98178	0	
1.2120	-20.2469	7.7655	0	
1.2127	-18.7314	1.66069	0	
1.2133	-17.5191	-1.09933	0	
1.2140	-16.6098	-3.83597	0	
1.2147	-13.8516	-6.29192	0	
1.2153	-10.7903	-4.14004	0	
1.2160	-7.45621	-4.44411	0	
1.2167	-4.69802	-8.72449	0	
1.2173	-1.63673	-8.72449	0	
1.2180	2.94005	-6.29192	0	
1.2187	7.21373	-5.35632	0	
1.2193	9.03232	-3.83597	0	
1.2200	15.1549	-3.22783	0	
1.2207	27.6425	-5.35632	0	
1.2213	39.2512	-3.5319	0	
1.2220	44.7372	-2.01154	0	
1.2227	42.9187	-4.74818	0	
1.2233	33.1589	-3.83597	0	
1.2240	22.1565	1.05255	0	
1.2247	14.8215	1.35662	0	
1.2253	5.66793	-0.795262	0	
1.2260	-10.4872	-0.795262	0	
1.2267	-24.5206	-1.4034	0	
1.2273	-21.1865	-2.61969	0	
1.2280	-4.69802	-2.61969	0	
1.2287	3.54625	-2.92376	0	
1.2293	0.181859	-2.31562	0	
1.2300	-1.93983	1.66069	0	
1.2307	-4.39492	6.52583	0	
1.2313	-16.9129	8.06957	0	
1.2320	-26.6726	5.30954	0	
1.2327	-23.6113	4.39733	0	
1.2333	-23.6113	7.13397	0	
1.2340	-31.8556	7.13397	0	
1.2347	-33.068	3.78919	0	
1.2353	-25.7633	4.39733	0	
1.2360	-18.4284	5.00547	0	
1.2367	-12.9423	1.66069	0	
1.2373	-10.4872	-1.70747	0	
1.2380	-8.6686	-2.92376	0	
1.2387	-3.18253	-4.44411	0	
1.2393	0.181859	-3.83597	0	
1.2400	1.09115	-2.01154	0	
1.2407	6.91063	-2.61969	0	
1.2413	16.3673	-3.83597	0	
1.2420	23.6719	-4.74818	0	
1.2427	27.3394	-5.35632	0	
1.2433	27.9456	-4.74818	0	
1.2440	25.2177	-3.83597	0	
1.2447	20.0348	-3.22783	0	
1.2453	13.9122	-2.31562	0	
1.2460	9.33541	-1.09933	0	
1.2467	5.66793	-0.18712	0	
1.2473	2.94005	1.96476	0	
1.2480	3.84934	4.39733	0	
1.2487	5.06173	3.78919	0	
1.2493	2.63695	2.26884	0	
1.2500	-2.24292	2.87698	0	
1.2507	-10.1841	4.39733	0	
1.2513	-19.9438	5.61361	0	
1.2520	-24.2175	5.30954	0	
1.2527	-22.702	3.48512	0	
1.2533	-22.0958	2.26884	0	
1.2540	-21.4896	1.05255	0	
1.2547	-19.9438	-0.491191	0	
1.2553	-18.4284	-0.18712	0	
1.2560	-12.033	0.11695	0	
1.2567	-3.18253	-1.09933	0	
1.2573	-1.93983	-2.01154	0	
1.2580	-4.39492	-2.92376	0	
1.2587	-2.87943	-3.5319	0	
1.2593	-2.24292	-2.92376	0	
1.2600	-1.93983	-2.01154	0	
1.2607	2.63695	-4.14004	0	
1.2613	10.8812	-8.11635	0	
1.2620	20.0348	-8.72449	0	
1.2627	24.3084	-6.596	0	
1.2633	19.0952	-4.14004	0	
1.2640	16.3673	-3.83597	0	
1.2647	23.0657	-4.74818	0	
1.2653	25.2177	-5.05225	0	
1.2660	16.6704	-2.01154	0	
1.2667	10.5478	1.66069	0	
1.2673	8.72922	0.725092	0	
1.2680	5.06173	0.725092	0	
1.2687	1.39425	3.18105	0	
1.2693	0.181859	3.48512	0	
1.2700	-1.63673	3.18105	0	
1.2707	-7.1228	7.13397	0	
1.2713	-16.3067	9.28585	0	
1.2720	-24.2175	8.37364	0	
1.2727	-27.5819	8.37364	0	
1.2733	-27.5819	8.06957	0	
1.2740	-26.0664	5.91768	0	
1.2747	-23.0051	4.7014	0	
1.2753	-18.1253	4.39733	0	
1.2760	-12.6392	2.26884	0	
1.2767	-8.9717	-0.18712	0	
1.2773	-7.45621	-0.18712	0	
1.2780	-5.00111	1.66069	0	
1.2787	-1.03053	2.57291	0	
1.2793	3.84934	0.725092	0	
1.2800	7.21373	-1.09933	0	
1.2807	10.5478	-2.92376	0	
1.2813	16.3673	-5.98785	0	
1.2820	25.2177	-7.20414	0	
1.2827	29.1883	-5.35632	0	
1.2833	27.3394	-6.596	0	
1.2840	26.127	-8.42042	0	
1.2847	24.6115	-5.98785	0	
1.2853	20.3379	-3.83597	0	
1.2860	15.7611	-2.92376	0	
1.2867	11.7905	0.725092	0	
1.2873	8.42612	3.18105	0	
1.2880	7.21373	2.26884	0	
1.2887	5.36483	0.11695	0	
1.2893	1.09115	-0.18712	0	
1.2900	-5.30421	-0.18712	0	
1.2907	-14.7609	0.725092	0	
1.2913	-24.8237	3.48512	0	
1.2920	-28.7943	7.46143	0	
1.2927	-28.4912	7.46143	0	
1.2933	-28.1881	4.09326	0	
1.2940	-25.7633	4.39733	0	
1.2947	-21.1865	7.46143	0	
1.2953	-18.4284	6.22175	0	
1.2960	-15.3671	3.18105	0	
1.2967	-10.7903	2.57291	0	
1.2973	-7.75931	3.48512	0	
1.2980	-3.78872	2.26884	0	
1.2987	2.33385	-2.01154	0	
1.2993	4.15244	-5.05225	0	
1.3000	5.36483	-6.596	0	
1.3007	12.6998	-8.11635	0	
1.3013	17.2766	-8.72449	0	
1.3020	12.6998	-8.11635	0	
1.3027	9.94161	-8.42042	0	
1.3033	12.6998	-6.596	0	
1.3040	14.2153	-1.4034	0	
1.3047	16.6704	0.421021	0	
1.3053	21.2472	-2.61969	0	
1.3060	21.8534	-2.92376	0	
1.3067	20.9441	-2.61969	0	
1.3073	22.1565	-5.05225	0	
1.3080	20.0348	-6.29192	0	
1.3087	12.3967	-3.83597	0	
1.3093	3.54625	-3.5319	0	
1.3100	-3.78872	-4.74818	0	
1.3107	-10.7903	-0.491191	0	
1.3113	-20.2469	5.30954	0	
1.3120	-29.4308	6.8299	0	
1.3127	-30.3401	4.7014	0	
1.3133	-28.1881	2.57291	0	
1.3140	-27.5819	1.66069	0	
1.3147	-23.3082	0.725092	0	
1.3153	-20.2469	-1.09933	0	
1.3160	-20.2469	-2.92376	0	
1.3167	-12.9423	-2.01154	0	
1.3173	-1.93983	-2.01154	0	
1.3180	-0.121239	-2.61969	0	
1.3187	-0.424337	-1.70747	0	
1.3193	5.06173	0.421021	0	
1.3200	8.72922	1.35662	0	
1.3207	10.2447	0.11695	0	
1.3213	17.2766	-2.61969	0	
1.3220	26.4301	-4.44411	0	
1.3227	30.7038	-4.44411	0	
1.3233	28.2487	-4.74818	0	
1.3240	23.3688	-5.35632	0	
1.3247	19.0952	-4.74818	0	
1.3253	16.0642	-4.44411	0	
1.3260	12.3967	-5.35632	0	
1.3267	7.21373	-4.14004	0	
1.3273	0.484957	-1.09933	0	
1.3280	-4.69802	1.66069	0	
1.3287	-5.30421	1.66069	0	
1.3293	-5.30421	1.96476	0	
1.3300	-7.1228	2.57291	0	
1.3307	-11.0934	2.57291	0	
1.3313	-18.4284	4.7014	0	
1.3320	-25.1571	9.58992	0	
1.3327	-27.885	10.5021	0	
1.3333	-28.1881	6.8299	0	
1.3340	-26.6726	2.87698	0	
1.3347	-25.7633	0.421021	0	
1.3353	-28.7943	0.11695	0	
1.3360	-28.7943	1.66069	0	
1.3367	-20.2469	0.11695	0	
1.3373	-11.0934	-3.5319	0	
1.3380	-8.0624	-3.5319	0	
1.3387	-3.48563	-2.01154	0	
1.3393	4.15244	-1.70747	0	
1.3400	8.42612	-1.09933	0	
1.3407	10.8812	-1.4034	0	
1.3413	20.0348	-5.68378	0	
1.3420	34.0682	-9.6367	0	
1.3427	41.0698	-9.02856	0	
1.3433	36.493	-5.68378	0	
1.3440	28.8852	-3.83597	0	
1.3447	23.975	-3.83597	0	
1.3453	21.8534	-3.5319	0	
1.3460	19.0952	-1.70747	0	
1.3467	14.2153	-0.491191	0	
1.3473	9.03232	-1.09933	0	
1.3480	5.06173	-1.4034	0	
1.3487	2.03076	-1.70747	0	
1.3493	-0.121239	-1.09933	0	
1.3500	-1.03053	1.66069	0	
1.3507	-3.78872	4.39733	0	
1.3513	-13.2454	6.22175	0	
1.3520	-23.9144	7.13397	0	
1.3527	-26.6726	6.22175	0	
1.3533	-24.5206	4.7014	0	
1.3540	-23.6113	6.22175	0	
1.3547	-19.3376	7.13397	0	
1.3553	-9.27479	5.00547	0	
1.3560	-3.78872	2.57291	0	
1.3567	-4.69802	2.57291	0	
1.3573	-3.48563	3.48512	0	
1.3580	-0.727435	1.96476	0	
1.3587	-1.93983	-1.09933	0	
1.3593	-1.33363	-2.92376	0	
1.3600	5.36483	-1.09933	0	
1.3607	13.306	-1.70747	0	
1.3613	20.641	-5.35632	0	
1.3620	28.2487	-5.05225	0	
1.3627	31.0069	-3.83597	0	
1.3633	28.2487	-5.68378	0	
1.3640	26.127	-3.83597	0	
1.3647	24.3084	1.05255	0	
1.3653	19.7317	-1.09933	0	
1.3660	14.8215	-4.14004	0	
1.3667	9.03232	-1.09933	0	
1.3673	1.09115	1.35662	0	
1.3680	-5.30421	0.11695	0	
1.3687	-8.6686	0.11695	0	
1.3693	-9.27479	0.11695	0	
1.3700	-11.7299	0.725092	0	
1.3707	-20.2469	5.00547	0	
1.3713	-28.7943	6.8299	0	
1.3720	-28.4912	5.91768	0	
1.3727	-21.4896	6.52583	0	
1.3733	-15.9733	4.39733	0	
1.3740	-14.4578	0.11695	0	
1.3747	-13.8516	1.96476	0	
1.3753	-11.0934	5.30954	0	
1.3760	-9.57789	3.78919	0	
1.3767	-10.4872	0.421021	0	
1.3773	-9.57789	-1.4034	0	
1.3780	-9.88099	-1.4034	0	
1.3787	-16.6098	0.11695	0	
1.3793	-20.8834	0.421021	0	
1.3800	-14.1547	-2.01154	0	
1.3807	-4.69802	-4.14004	0	
1.3813	2.33385	-6.596	0	
1.3820	9.03232	-6.90007	0	
1.3827	14.5184	-4.74818	0	
1.3833	16.3673	-3.83597	0	
1.3840	16.3673	-3.83597	0	
1.3847	16.0642	-2.92376	0	
1.3853	11.7905	-3.22783	0	
1.3860	5.36483	-4.14004	0	
1.3867	0.788054	-2.31562	0	
1.3873	0.788054	-0.18712	0	
1.3880	0.788054	-2.01154	0	
1.3887	-1.63673	-1.70747	0	
1.3893	-4.69802	2.57291	0	
1.3900	-7.45621	4.7014	0	
1.3907	-13.2454	1.96476	0	
1.3913	-22.702	-0.795262	0	
1.3920	-28.7943	-0.18712	0	
1.3927	-28.7943	-0.491191	0	
1.3933	-27.5819	-3.83597	0	
1.3940	-25.7633	-4.14004	0	
1.3947	-22.3989	-2.92376	0	
1.3953	-18.4284	-3.83597	0	
1.3960	-12.9423	-2.92376	0	
1.3967	-6.5166	0.725092	0	
1.3973	-1.93983	-0.18712	0	
1.3980	-0.121239	-3.5319	0	
1.3987	1.69735	-2.01154	0	
1.3993	3.24315	-0.18712	0	
1.4000	6.60753	-2.61969	0	
1.4007	13.6091	-2.92376	0	
1.4013	21.8534	-1.70747	0	
1.4020	28.5821	-4.44411	0	
1.4027	35.5837	-7.81228	0	
1.4033	38.0388	-6.596	0	
1.4040	32.8255	-3.5319	0	
1.4047	26.4301	-2.31562	0	
1.4053	24.6115	-2.92376	0	
1.4060	21.5503	-1.09933	0	
1.4067	14.5184	0.725092	0	
1.4073	10.8812	-0.18712	0	
1.4080	9.03232	0.421021	0	
1.4087	2.63695	3.18105	0	
1.4093	-3.18253	3.48512	0	
1.4100	-3.18253	1.96476	0	
1.4107	-7.45621	2.26884	0	
1.4113	-19.3376	2.26884	0	
1.4120	-27.5819	2.87698	0	
1.4127	-26.9757	5.30954	0	
1.4133	-25.7633	3.78919	0	
1.4140	-26.9757	-0.18712	0	
1.4147	-22.702	-0.795262	0	
1.4153	-15.064	-1.09933	0	
1.4160	-12.9423	-2.92376	0	
1.4167	-12.6392	-2.61969	0	
1.4173	-6.8197	-2.01154	0	
1.4180	-1.93983	-3.83597	0	
1.4187	-1.33363	-3.22783	0	
1.4193	0.181859	-1.09933	0	
1.4200	5.06173	-2.92376	0	
1.4207	12.6998	-3.22783	0	
1.4213	22.7627	-0.18712	0	
1.4220	31.31	-0.795262	0	
1.4227	35.5837	-3.5319	0	
1.4233	34.9775	-2.01154	0	
1.4240	30.7038	1.35662	0	
1.4247	25.8239	0.725092	0	
1.4253	22.7627	-0.491191	0	
1.4260	17.2766	0.725092	0	
1.4267	12.3967	2.26884	0	
1.4273	9.94161	2.57291	0	
1.4280	4.45554	2.57291	0	
1.4287	-2.87943	2.57291	0	
1.4293	-4.09182	1.96476	0	
1.4300	-1.63673	1.66069	0	
1.4307	-4.69802	5.00547	0	
1.4313	-12.6392	10.5021	0	
1.4320	-17.5191	11.4143	0	
1.4327	-18.4284	8.06957	0	
1.4333	-20.5803	7.13397	0	
1.4340	-23.0051	6.52583	0	
1.4347	-22.702	4.7014	0	
1.4353	-20.8834	3.78919	0	
1.4360	-19.3376	1.05255	0	
1.4367	-15.3671	-2.61969	0	
1.4373	-9.57789	-0.795262	0	
1.4380	-4.39492	1.96476	0	
1.4387	0.788054	1.05255	0	
1.4393	5.36483	1.66069	0	
1.4400	8.12302	1.96476	0	
1.4407	11.4874	-1.4034	0	
1.4413	19.7317	-2.01154	0	
1.4420	26.4301	-0.795262	0	
1.4427	25.5208	-2.92376	0	
1.4433	22.7627	-3.83597	0	
1.4440	21.5503	-2.01154	0	
1.4447	16.0642	-1.09933	0	
1.4453	8.42612	-0.491191	0	
1.4460	6.60753	-0.491191	0	
1.4467	6.30444	-1.4034	0	
1.4473	0.788054	-1.70747	0	
1.4480	-7.45621	-1.70747	0	
1.4487	-11.3965	-0.18712	0	
1.4493	-10.7903	2.57291	0	
1.4500	-11.0934	2.26884	0	
1.4507	-16.6098	1.96476	0	
1.4513	-23.9144	4.09326	0	
1.4520	-29.0974	4.09326	0	
1.4527	-31.8556	1.66069	0	
1.4533	-28.7943	1.35662	0	
1.4540	-20.8834	0.725092	0	
1.4547	-13.8516	-0.18712	0	
1.4553	-11.7299	1.35662	0	
1.4560	-9.88099	1.66069	0	
1.4567	-4.69802	-1.09933	0	
1.4573	-1.03053	-2.01154	0	
1.4580	-2.87943	-2.31562	0	
1.4587	-4.09182	-5.68378	0	
1.4593	-1.03053	-10.5489	0	
1.4600	1.69735	-10.2448	0	
1.4607	3.54625	-6.29192	0	
1.4613	10.5478	-5.05225	0	
1.4620	18.1859	-6.90007	0	
1.4627	22.4596	-7.50821	0	
1.4633	24.6115	-5.68378	0	
1.4640	24.9146	-4.14004	0	
1.4647	23.0657	-3.83597	0	
1.4653	23.3688	-3.83597	0	
1.4660	22.4596	-2.92376	0	
1.4667	16.6704	-2.01154	0	
1.4673	10.8812	-3.83597	0	
1.4680	4.45554	-3.83597	0	
1.4687	-2.54602	0.11695	0	
1.4693	-5.60731	1.66069	0	
1.4700	-5.91041	-2.01154	0	
1.4707	-12.3361	-1.09933	0	
1.4713	-23.6113	4.09326	0	
1.4720	-29.7339	3.18105	0	
1.4727	-30.3401	-0.18712	0	
1.4733	-30.3401	1.66069	0	
1.4740	-29.4308	1.66069	0	
1.4747	-23.6113	-1.70747	0	
1.4753	-17.5191	-2.61969	0	
1.4760	-15.6702	-1.09933	0	
1.4767	-12.033	-1.70747	0	
1.4773	-6.21351	-4.44411	0	
1.4780	-9.27479	-5.68378	0	
1.4787	-20.8834	-3.83597	0	
1.4793	-25.1571	-2.92376	0	
1.4800	-18.4284	-5.68378	0	
1.4807	-5.60731	-6.29192	0	
1.4813	11.4874	-2.61969	0	
1.4820	27.3394	-1.70747	0	
1.4827	33.462	-3.83597	0	
1.4833	35.5837	-4.74818	0	
1.4840	38.645	-3.83597	0	
1.4847	36.1899	-1.4034	0	
1.4853	26.7332	1.05255	0	
1.4860	18.7921	-0.18712	0	
1.4867	10.8812	-0.18712	0	
1.4873	2.94005	3.48512	0	
1.4880	-0.727435	5.30954	0	
1.4887	-0.121239	4.39733	0	
1.4893	0.181859	4.39733	0	
1.4900	-3.48563	4.39733	0	
1.4907	-12.033	2.87698	0	
1.4913	-20.2469	2.87698	0	
1.4920	-25.1571	5.30954	0	
1.4927	-27.5819	5.91768	0	
1.4933	-27.5819	4.39733	0	
1.4940	-25.4602	4.39733	0	
1.4947	-23.3082	5.91768	0	
1.4953	-19.9438	4.39733	0	
1.4960	-15.6702	1.66069	0	
1.4967	-12.9423	0.725092	0	
1.4973	-10.1841	0.421021	0	
1.4980	-4.69802	-1.09933	0	
1.4987	-0.121239	-1.09933	0	
1.4993	0.484957	0.725092	0	
1.5000	0.788054	-0.18712	0	
1.5007	7.21373	-2.92376	0	
1.5013	19.0952	-5.68378	0	
1.5020	27.0363	-8.42042	0	
1.5027	31.0069	-8.72449	0	
1.5033	33.7651	-5.35632	0	
1.5040	32.5224	-1.70747	0	
1.5047	30.0976	-2.01154	0	
1.5053	28.8852	-3.83597	0	
1.5060	23.6719	-3.5319	0	
1.5067	15.458	-2.01154	0	
1.5073	10.8812	-1.70747	0	
1.5080	4.45554	-0.795262	0	
1.5087	-1.63673	2.57291	0	
1.5093	-0.121239	3.48512	0	
1.5100	-1.03053	1.96476	0	
1.5107	-10.1841	3.48512	0	
1.5113	-19.3376	7.13397	0	
1.5120	-25.7633	7.7655	0	
1.5127	-30.037	6.22175	0	
1.5133	-27.5819	5.00547	0	
1.5140	-23.9144	2.57291	0	
1.5147	-21.4896	0.725092	0	
1.5153	-16.6098	0.725092	0	
1.5160	-12.3361	-0.491191	0	
1.5167	-9.57789	-2.01154	0	
1.5173	-5.30421	-0.18712	0	
1.5180	-1.03053	0.725092	0	
1.5187	1.39425	-1.09933	0	
1.5193	4.45554	-1.4034	0	
1.5200	8.12302	0.11695	0	
1.5207	14.8215	1.66069	0	
1.5213	26.127	1.35662	0	
1.5220	31.9162	-2.31562	0	
1.5227	30.0976	-5.05225	0	
1.5233	28.5821	-1.09933	0	
1.5240	26.4301	3.78919	0	
1.5247	18.489	2.57291	0	
1.5253	12.3967	1.66069	0	
1.5260	11.7905	3.48512	0	
1.5267	9.33541	2.57291	0	
1.5273	5.36483	0.421021	0	
1.5280	4.15244	-0.795262	0	
1.5287	3.24315	-2.61969	0	
1.5293	0.484957	-2.61969	0	
1.5300	-3.18253	0.725092	0	
1.5307	-9.27479	2.57291	0	
1.5313	-17.5191	2.87698	0	
1.5320	-23.9144	4.39733	0	
1.5327	-28.4912	4.39733	0	
1.5333	-28.7943	3.48512	0	
1.5340	-24.2175	2.57291	0	
1.5347	-18.4284	-0.491191	0	
1.5353	-15.064	-2.92376	0	
1.5360	-12.9423	0.11695	0	
1.5367	-9.88099	1.35662	0	
1.5373	-6.5166	-0.491191	0	
1.5380	-3.48563	0.725092	0	
1.5387	-1.93983	2.26884	0	
1.5393	-0.727435	-1.09933	0	
1.5400	0.788054	-1.09933	0	
1.5407	5.06173	4.09326	0	
1.5413	14.5184	2.87698	0	
1.5420	22.7627	-2.92376	0	
1.5427	25.2177	-3.5319	0	
1.5433	29.4914	-1.4034	0	
1.5440	36.7961	-2.01154	0	
1.5447	35.5837	-3.5319	0	
1.5453	27.3394	-3.83597	0	
1.5460	22.4596	-4.74818	0	
1.5467	17.2766	-2.61969	0	
1.5473	10.8812	2.26884	0	
1.5480	6.60753	3.48512	0	
1.5487	1.09115	3.18105	0	
1.5493	-9.27479	6.22175	0	
1.5500	-19.9438	8.98178	0	
1.5507	-27.885	6.52583	0	
1.5513	-33.3711	5.30954	0	
1.5520	-37.0386	7.46143	0	
1.5527	-38.5844	6.8299	0	
1.5533	-36.7355	3.78919	0	
1.5540	-30.3401	3.78919	0	
1.5547	-23.0051	4.39733	0	
1.5553	-19.3376	3.18105	0	
1.5560	-15.9733	1.66069	0	
1.5567	-10.4872	0.11695	0	
1.5573	-7.1228	-2.61969	0	
1.5580	-6.5166	-5.68378	0	
1.5587	-3.78872	-7.20414	0	
1.5593	0.788054	-5.98785	0	
1.5600	3.84934	-5.05225	0	
1.5607	9.63851	-5.68378	0	
1.5613	17.8828	-5.98785	0	
1.5620	22.4596	-6.90007	0	
1.5627	24.3084	-9.33263	0	
1.5633	26.4301	-9.6367	0	
1.5640	25.8239	-6.29192	0	
1.5647	21.5503	-3.83597	0	
1.5653	18.1859	-2.92376	0	
1.5660	16.0642	-2.31562	0	
1.5667	12.3967	-3.22783	0	
1.5673	9.03232	-3.22783	0	
1.5680	6.30444	0.725092	0	
1.5687	2.94005	2.57291	0	
1.5693	0.788054	0.11695	0	
1.5700	-2.87943	0.725092	0	
1.5707	-12.033	3.78919	0	
1.5713	-22.0958	4.39733	0	
1.5720	-25.7633	4.09326	0	
1.5727	-25.1571	4.7014	0	
1.5733	-24.8237	6.22175	0	
1.5740	-23.9144	7.13397	0	
1.5747	-21.1865	4.7014	0	
1.5753	-19.3376	0.725092	0	
1.5760	-20.5803	0.725092	0	
1.5767	-20.5803	0.725092	0	
1.5773	-16.6098	-4.14004	0	
1.5780	-9.27479	-5.05225	0	
1.5787	0.181859	-2.01154	0	
1.5793	7.21373	-2.01154	0	
1.5800	9.33541	-2.92376	0	
1.5807	12.3967	-0.491191	0	
1.5813	21.5503	-1.09933	0	
1.5820	29.1883	-3.83597	0	
1.5827	30.7038	-3.22783	0	
1.5833	27.3394	-2.61969	0	
1.5840	19.7317	-2.61969	0	
1.5847	12.0936	-0.491191	0	
1.5853	8.12302	0.421021	0	
1.5860	1.69735	0.725092	0	
1.5867	-5.60731	2.87698	0	
1.5873	-3.18253	1.96476	0	
1.5880	2.63695	-3.22783	0	
1.5887	2.94005	-4.74818	0	
1.5893	2.63695	-3.22783	0	
1.5900	1.69735	-3.83597	0	
1.5907	-8.9717	-3.83597	0	
1.5913	-21.7927	-1.09933	0	
1.5920	-25.7633	1.05255	0	
1.5927	-25.7633	1.05255	0	
1.5933	-26.9757	0.725092	0	
1.5940	-27.5819	1.35662	0	
1.5947	-23.0051	2.57291	0	
1.5953	-12.9423	1.66069	0	
1.5960	-1.93983	-1.4034	0	
1.5967	2.03076	-4.14004	0	
1.5973	1.39425	-4.74818	0	
1.5980	3.54625	-4.14004	0	
1.5987	7.21373	-2.92376	0	
1.5993	6.91063	-0.491191	0	
1.6000	7.21373	-0.795262	0	
1.6007	12.3967	-5.35632	0	
1.6013	18.1859	-7.50821	0	
1.6020	21.8534	-6.596	0	
1.6027	24.9146	-9.33263	0	
1.6033	25.8239	-10.2448	0	
1.6040	22.7627	-5.35632	0	
1.6047	17.2766	-4.74818	0	
1.6053	13.6091	-6.90007	0	
1.6060	12.0936	-3.22783	0	
1.6067	8.42612	1.66069	0	
1.6073	1.39425	1.05255	0	
1.6080	-6.8197	-1.09933	0	
1.6087	-10.1841	-0.18712	0	
1.6093	-7.45621	1.66069	0	
1.6100	-5.91041	1.66069	0	
1.6107	-12.3361	0.725092	0	
1.6113	-21.1865	2.26884	0	
1.6120	-24.8237	5.30954	0	
1.6127	-26.6726	5.00547	0	
1.6133	-26.6726	4.39733	0	
1.6140	-22.0958	4.7014	0	
1.6147	-17.8222	3.48512	0	
1.6153	-16.6098	1.66069	0	
1.6160	-15.064	0.421021	0	
1.6167	-12.033	-1.70747	0	
1.6173	-10.1841	-0.491191	0	
1.6180	-7.75931	1.66069	0	
1.6187	-3.78872	0.421021	0	
1.6193	-2.54602	1.96476	0	
1.6200	-2.24292	4.09326	0	
1.6207	3.24315	0.725092	0	
1.6213	12.0936	-1.70747	0	
1.6220	17.8828	-0.491191	0	
1.6227	20.9441	-0.18712	0	
1.6233	22.7627	-0.18712	0	
1.6240	22.7627	0.725092	0	
1.6247	21.8534	-0.491191	0	
1.6253	17.2766	-2.31562	0	
1.6260	10.5478	-3.83597	0	
1.6267	8.12302	-5.68378	0	
1.6273	7.81993	-3.22783	0	
1.6280	3.54625	1.05255	0	
1.6287	-1.33363	2.57291	0	
1.6293	-1.93983	2.57291	0	
1.6300	-3.48563	3.48512	0	
1.6307	-10.4872	6.22175	0	
1.6313	-19.0345	8.98178	0	
1.6320	-24.5206	9.28585	0	
1.6327	-27.885	7.13397	0	
1.6333	-28.7943	7.46143	0	
1.6340	-24.8237	6.52583	0	
1.6347	-19.6407	4.39733	0	
1.6353	-15.3671	5.91768	0	
1.6360	-8.3655	5.30954	0	
1.6367	-1.63673	-0.795262	0	
1.6373	-0.121239	-2.61969	0	
1.6380	2.33385	-0.795262	0	
1.6387	6.30444	-4.74818	0	
1.6393	5.36483	-8.42042	0	
1.6400	4.45554	-5.98785	0	
1.6407	14.2153	-6.596	0	
1.6413	23.0657	-10.853	0	
1.6420	25.2177	-10.2448	0	
1.6427	28.5821	-7.81228	0	
1.6433	31.9162	-7.81228	0	
1.6440	25.8239	-6.596	0	
1.6447	19.0952	-3.83597	0	
1.6453	19.0952	-1.70747	0	
1.6460	17.2766	0.11695	0	
1.6467	11.7905	1.35662	0	
1.6473	6.60753	2.26884	0	
1.6480	2.63695	3.48512	0	
1.6487	0.788054	4.39733	0	
1.6493	0.484957	4.09326	0	
1.6500	-5.30421	2.26884	0	
1.6507	-15.6702	2.57291	0	
1.6513	-22.702	6.52583	0	
1.6520	-26.6726	9.28585	0	
1.6527	-28.4912	7.46143	0	
1.6533	-26.9757	5.61361	0	
1.6540	-24.8237	5.61361	0	
1.6547	-20.8834	4.09326	0	
1.6553	-12.033	1.35662	0	
1.6560	-3.78872	0.725092	0	
1.6567	-2.54602	0.421021	0	
1.6573	-1.63673	-0.491191	0	
1.6580	2.63695	-1.4034	0	
1.6587	5.97103	-2.31562	0	
1.6593	5.36483	-2.01154	0	
1.6600	6.60753	-0.795262	0	
1.6607	13.9122	0.11695	0	
1.6613	19.0952	-1.09933	0	
1.6620	18.1859	-3.83597	0	
1.6627	20.3379	-5.98785	0	
1.6633	24.6115	-4.74818	0	
1.6640	21.8534	-3.22783	0	
1.6647	17.8828	-3.5319	0	
1.6653	16.0642	-2.61969	0	
1.6660	11.4874	-0.18712	0	
1.6667	6.60753	0.11695	0	
1.6673	4.45554	1.05255	0	
1.6680	-0.121239	3.78919	0	
1.6687	-3.78872	4.39733	0	
1.6693	-1.93983	1.96476	0	
1.6700	-5.30421	1.35662	0	
1.6707	-15.3671	3.18105	0	
1.6713	-22.3989	7.13397	0	
1.6720	-26.9757	8.37364	0	
1.6727	-30.037	5.00547	0	
1.6733	-29.7339	3.18105	0	
1.6740	-28.4912	4.39733	0	
1.6747	-25.7633	3.18105	0	
1.6753	-18.1253	1.05255	0	
1.6760	-11.3965	1.66069	0	
1.6767	-8.0624	0.725092	0	
1.6773	-3.78872	-1.4034	0	
1.6780	-0.121239	-2.92376	0	
1.6787	2.03076	-4.44411	0	
1.6793	3.54625	-4.44411	0	
1.6800	5.06173	-2.92376	0	
1.6807	9.94161	-4.44411	0	
1.6813	18.489	-6.596	0	
1.6820	24.3084	-4.44411	0	
1.6827	28.5821	-3.22783	0	
1.6833	33.462	-4.74818	0	
1.6840	29.7945	-4.74818	0	
1.6847	19.7317	-2.92376	0	
1.6853	16.6704	-2.01154	0	
1.6860	18.489	-1.4034	0	
1.6867	17.5797	1.35662	0	
1.6873	16.0642	2.57291	0	
1.6880	15.1549	0.11695	0	
1.6887	10.8812	1.66069	0	
1.6893	2.63695	6.52583	0	
1.6900	-5.60731	6.22175	0	
1.6907	-12.3361	5.00547	0	
1.6913	-17.216	9.89399	0	
1.6920	-23.3082	10.8062	0	
1.6927	-30.037	3.48512	0	
1.6933	-31.8556	0.725092	0	
1.6940	-27.5819	3.48512	0	
1.6947	-21.7927	3.18105	0	
1.6953	-15.3671	0.11695	0	
1.6960	-8.3655	-2.01154	0	
1.6967	-2.24292	-2.92376	0	
1.6973	2.63695	-2.61969	0	
1.6980	6.60753	-2.01154	0	
1.6987	9.03232	-1.09933	0	
1.6993	11.1843	-1.09933	0	
1.7000	15.1549	-3.83597	0	
1.7007	19.3983	-5.68378	0	
1.7013	22.1565	-4.14004	0	
1.7020	24.6115	-6.90007	0	
1.7027	27.3394	-9.33263	0	
1.7033	27.9456	-4.74818	0	
1.7040	25.8239	-3.5319	0	
1.7047	21.5503	-7.81228	0	
1.7053	17.5797	-8.11635	0	
1.7060	13.9122	-5.35632	0	
1.7067	8.42612	-5.35632	0	
1.7073	3.24315	-4.14004	0	
1.7080	1.69735	-0.491191	0	
1.7087	1.69735	0.725092	0	
1.7093	0.788054	-1.09933	0	
1.7100	-0.727435	-1.09933	0	
1.7107	-7.45621	1.35662	0	
1.7113	-18.4284	2.87698	0	
1.7120	-24.8237	1.66069	0	
1.7127	-25.1571	1.66069	0	
1.7133	-26.6726	3.48512	0	
1.7140	-28.1881	2.57291	0	
1.7147	-24.5206	-0.18712	0	
1.7153	-17.8222	-0.18712	0	
1.7160	-13.2454	0.725092	0	
1.7167	-9.57789	0.421021	0	
1.7173	-6.8197	0.725092	0	
1.7180	-6.5166	1.96476	0	
1.7187	-3.18253	0.725092	0	
1.7193	3.54625	-0.491191	0	
1.7200	6.91063	0.421021	0	
1.7207	9.03232	-2.01154	0	
1.7213	18.7921	-5.98785	0	
1.7220	28.8852	-3.83597	0	
1.7227	30.7038	-0.491191	0	
1.7233	28.2487	-2.92376	0	
1.7240	26.4301	-1.70747	0	
1.7247	25.5208	2.87698	0	
1.7253	24.6115	3.48512	0	
1.7260	20.0348	5.30954	0	
1.7267	13.6091	8.67771	0	
1.7273	11.7905	6.22175	0	
1.7280	9.94161	3.48512	0	
1.7287	2.63695	5.61361	0	
1.7293	-4.09182	5.61361	0	
1.7300	-7.45621	3.48512	0	
1.7307	-13.8516	5.61361	0	
1.7313	-22.0958	8.67771	0	
1.7320	-23.9144	7.13397	0	
1.7327	-20.5803	4.39733	0	
1.7333	-18.7314	2.57291	0	
1.7340	-17.216	0.11695	0	
1.7347	-15.6702	-2.01154	0	
1.7353	-14.1547	-1.4034	0	
1.7360	-11.3965	-1.09933	0	
1.7367	-12.3361	-2.31562	0	
1.7373	-17.8222	-2.01154	0	
1.7380	-19.3376	-1.09933	0	
1.7387	-15.3671	-2.01154	0	
1.7393	-13.5485	-2.01154	0	
1.7400	-12.9423	-2.01154	0	
1.7407	-5.00111	-4.14004	0	
1.7413	6.91063	-5.68378	0	
1.7420	15.458	-4.74818	0	
1.7427	20.0348	-5.68378	0	
1.7433	20.9441	-5.68378	0	
1.7440	15.458	-5.05225	0	
1.7447	8.12302	-6.596	0	
1.7453	6.91063	-6.29192	0	
1.7460	7.51683	-1.70747	0	
1.7467	5.36483	-0.18712	0	
1.7473	4.15244	-2.92376	0	
1.7480	2.63695	-2.01154	0	
1.7487	-2.24292	-0.795262	0	
1.7493	-6.5166	-2.01154	0	
1.7500	-9.27479	-1.09933	0	
1.7507	-15.6702	1.66069	0	
1.7513	-23.9144	3.48512	0	
1.7520	-28.7943	5.30954	0	
1.7527	-30.037	6.52583	0	
1.7533	-28.4912	4.39733	0	
1.7540	-25.7633	1.66069	0	
1.7547	-21.7927	-0.795262	0	
1.7553	-17.216	-2.31562	0	
1.7560	-13.8516	-1.09933	0	
1.7567	-10.1841	-1.09933	0	
1.7573	-5.00111	-4.44411	0	
1.7580	-2.87943	-5.35632	0	
1.7587	-5.00111	-3.5319	0	
1.7593	-2.87943	-2.01154	0	
1.7600	5.36483	-1.09933	0	
1.7607	12.0936	-3.83597	0	
1.7613	16.6704	-8.11635	0	
1.7620	23.6719	-5.68378	0	
1.7627	29.1883	-1.70747	0	
1.7633	27.3394	-2.61969	0	
1.7640	22.7627	-1.70747	0	
1.7647	19.7317	1.96476	0	
1.7653	16.6704	0.725092	0	
1.7660	11.7905	-0.795262	0	
1.7667	6.60753	2.26884	0	
1.7673	3.24315	2.57291	0	
1.7680	1.09115	0.725092	0	
1.7687	-1.33363	2.26884	0	
1.7693	-2.54602	2.57291	0	
1.7700	-4.69802	-0.18712	0	
1.7707	-15.064	1.35662	0	
1.7713	-27.2788	6.8299	0	
1.7720	-29.4308	9.28585	0	
1.7727	-26.3695	6.8299	0	
1.7733	-25.4602	2.57291	0	
1.7740	-22.0958	1.66069	0	
1.7747	-16.3067	3.48512	0	
1.7753	-15.9733	1.05255	0	
1.7760	-17.216	-2.92376	0	
1.7767	-13.2454	-2.01154	0	
1.7773	-7.75931	-1.09933	0	
1.7780	-2.87943	-3.5319	0	
1.7787	0.788054	-1.09933	0	
1.7793	0.484957	2.57291	0	
1.7800	1.69735	-2.61969	0	
1.7807	9.94161	-9.94077	0	
1.7813	20.641	-9.33263	0	
1.7820	26.127	-6.596	0	
1.7827	28.2487	-7.50821	0	
1.7833	27.3394	-8.42042	0	
1.7840	20.9441	-6.90007	0	
1.7847	16.3673	-3.83597	0	
1.7853	14.5184	-2.31562	0	
1.7860	10.8812	-2.31562	0	
1.7867	7.21373	-0.491191	0	
1.7873	6.30444	1.35662	0	
1.7880	3.24315	0.725092	0	
1.7887	-0.121239	0.725092	0	
1.7893	-0.727435	2.57291	0	
1.7900	-4.69802	2.57291	0	
1.7907	-14.1547	4.39733	0	
1.7913	-22.702	8.37364	0	
1.7920	-27.885	8.98178	0	
1.7927	-31.2494	8.98178	0	
1.7933	-34.0076	9.58992	0	
1.7940	-36.7355	8.06957	0	
1.7947	-35.8262	5.91768	0	
1.7953	-28.7943	4.7014	0	
1.7960	-22.0958	0.725092	0	
1.7967	-18.4284	-2.92376	0	
1.7973	-13.2454	-3.5319	0	
1.7980	-8.3655	-2.92376	0	
1.7987	-5.00111	-1.70747	0	
1.7993	0.788054	-1.4034	0	
1.8000	9.94161	-4.44411	0	
1.8007	20.9441	-8.42042	0	
1.8013	32.2193	-8.72449	0	
1.8020	39.2512	-5.98785	0	
1.8027	38.9481	-3.83597	0	
1.8033	35.5837	-3.22783	0	
1.8040	31.31	-3.83597	0	
1.8047	25.5208	-2.92376	0	
1.8053	20.641	-1.09933	0	
1.8060	13.6091	-1.09933	0	
1.8067	5.06173	-0.491191	0	
1.8073	-0.121239	-0.18712	0	
1.8080	-1.33363	-2.01154	0	
1.8087	-2.87943	-3.22783	0	
1.8093	-2.87943	-3.5319	0	
1.8100	-4.09182	-2.01154	0	
1.8107	-12.3361	3.18105	0	
1.8113	-21.7927	6.52583	0	
1.8120	-24.8237	4.7014	0	
1.8127	-23.9144	2.57291	0	
1.8133	-22.0958	1.66069	0	
1.8140	-20.2469	0.725092	0	
1.8147	-18.4284	3.18105	0	
1.8153	-13.2454	4.7014	0	
1.8160	-7.75931	1.35662	0	
1.8167	-7.1228	-1.09933	0	
1.8173	-9.27479	0.725092	0	
1.8180	-7.75931	3.48512	0	
1.8187	-3.48563	3.18105	0	
1.8193	-3.18253	1.66069	0	
1.8200	-5.00111	0.725092	0	
1.8207	-1.03053	-0.795262	0	
1.8213	9.94161	-3.22783	0	
1.8220	20.9441	-3.83597	0	
1.8227	26.7332	-3.5319	0	
1.8233	26.127	-4.44411	0	
1.8240	22.7627	-5.35632	0	
1.8247	21.2472	-3.22783	0	
1.8253	19.7317	-1.4034	0	
1.8260	14.5184	-0.491191	0	
1.8267	9.94161	-0.18712	0	
1.8273	7.51683	-2.01154	0	
1.8280	4.45554	-2.01154	0	
1.8287	0.484957	2.26884	0	
1.8293	-2.87943	3.48512	0	
1.8300	-6.8197	1.96476	0	
1.8307	-14.4578	5.91768	0	
1.8313	-23.0051	11.1103	0	
1.8320	-27.5819	8.06957	0	
1.8327	-27.5819	1.96476	0	
1.8333	-27.2788	2.57291	0	
1.8340	-24.8237	4.09326	0	
1.8347	-19.6407	1.66069	0	
1.8353	-15.064	-0.491191	0	
1.8360	-12.6392	-0.795262	0	
1.8367	-10.7903	-1.09933	0	
1.8373	-9.27479	-3.22783	0	
1.8380	-5.91041	-3.5319	0	
1.8387	-1.03053	-1.09933	0	
1.8393	2.03076	-1.09933	0	
1.8400	3.54625	-3.83597	0	
1.8407	10.5478	-3.83597	0	
1.8413	20.641	-4.44411	0	
1.8420	25.8239	-9.94077	0	
1.8427	25.5208	-10.2448	0	
1.8433	27.9456	-5.35632	0	
1.8440	34.6744	-6.29192	0	
1.8447	38.3419	-9.33263	0	
1.8453	36.1899	-6.596	0	
1.8460	33.7651	-4.74818	0	
1.8467	28.5821	-3.5319	0	
1.8473	18.1859	0.421021	0	
1.8480	8.42612	1.66069	0	
1.8487	4.15244	0.725092	0	
1.8493	3.54625	1.66069	0	
1.8500	-1.03053	1.96476	0	
1.8507	-16.3067	3.78919	0	
1.8513	-32.7649	7.13397	0	
1.8520	-35.8262	6.22175	0	
1.8527	-30.9463	3.48512	0	
1.8533	-29.4308	4.7014	0	
1.8540	-29.7339	5.61361	0	
1.8547	-26.0664	3.48512	0	
1.8553	-20.2469	1.35662	0	
1.8560	-14.1547	0.421021	0	
1.8567	-10.1841	-1.4034	0	
1.8573	-8.0624	-3.22783	0	
1.8580	-5.00111	-4.14004	0	
1.8587	-1.63673	-4.14004	0	
1.8593	0.484957	-4.74818	0	
1.8600	4.45554	-6.90007	0	
1.8607	12.0936	-9.33263	0	
1.8613	20.3379	-9.02856	0	
1.8620	27.9456	-7.20414	0	
1.8627	31.9162	-4.44411	0	
1.8633	27.3394	-3.5319	0	
1.8640	22.1565	-2.92376	0	
1.8647	20.9441	-0.18712	0	
1.8653	16.9735	2.26884	0	
1.8660	8.72922	1.66069	0	
1.8667	3.54625	1.66069	0	
1.8673	-0.121239	2.87698	0	
1.8680	-4.39492	1.35662	0	
1.8687	-7.75931	0.725092	0	
1.8693	-14.7609	5.30954	0	
1.8700	-26.0664	7.13397	0	
1.8707	-34.0076	5.00547	0	
1.8713	-37.6448	3.18105	0	
1.8720	-39.4937	3.18105	0	
1.8727	-35.5231	2.57291	0	
1.8733	-26.6726	4.09326	0	
1.8740	-19.3376	5.00547	0	
1.8747	-10.7903	2.87698	0	
1.8753	-0.121239	0.725092	0	
1.8760	8.72922	-1.09933	0	
1.8767	13.306	-2.92376	0	
1.8773	12.6998	-1.09933	0	
1.8780	8.72922	-0.18712	0	
1.8787	6.30444	-3.5319	0	
1.8793	5.66793	-5.05225	0	
1.8800	6.60753	-4.74818	0	
1.8807	11.4874	-6.596	0	
1.8813	20.0348	-6.596	0	
1.8820	26.4301	-3.83597	0	
1.8827	27.3394	-3.83597	0	
1.8833	25.2177	-4.44411	0	
1.8840	21.5503	-3.22783	0	
1.8847	18.1859	-3.22783	0	
1.8853	17.2766	-3.22783	0	
1.8860	14.2153	-0.18712	0	
1.8867	9.03232	2.87698	0	
1.8873	6.91063	3.78919	0	
1.8880	6.30444	2.57291	0	
1.8887	3.24315	-0.18712	0	
1.8893	1.39425	1.05255	0	
1.8900	-0.424337	6.22175	0	
1.8907	-8.3655	8.06957	0	
1.8913	-17.5191	7.13397	0	
1.8920	-22.0958	7.13397	0	
1.8927	-23.9144	7.7655	0	
1.8933	-24.5206	6.8299	0	
1.8940	-23.3082	7.7655	0	
1.8947	-21.4896	8.67771	0	
1.8953	-15.6702	5.30954	0	
1.8960	-7.45621	1.35662	0	
1.8967	-3.48563	0.725092	0	
1.8973	-3.18253	0.421021	0	
1.8980	0.181859	-0.18712	0	
1.8987	4.45554	2.26884	0	
1.8993	6.30444	2.57291	0	
1.9000	9.94161	-1.09933	0	
1.9007	20.0348	-3.5319	0	
1.9013	29.4914	-4.44411	0	
1.9020	31.0069	-7.50821	0	
1.9027	27.6425	-5.68378	0	
1.9033	24.3084	-1.4034	0	
1.9040	20.0348	-2.92376	0	
1.9047	13.9122	-5.35632	0	
1.9053	8.12302	-2.61969	0	
1.9060	3.54625	0.421021	0	
1.9067	1.39425	0.421021	0	
1.9073	1.09115	0.725092	0	
1.9080	-1.93983	1.35662	0	
1.9087	-5.60731	0.725092	0	
1.9093	-3.18253	-1.4034	0	
1.9100	-1.63673	-3.5319	0	
1.9107	-9.88099	-2.92376	0	
1.9113	-21.1865	-0.795262	0	
1.9120	-27.885	0.421021	0	
1.9127	-31.2494	0.421021	0	
1.9133	-32.7649	0.421021	0	
1.9140	-29.0974	-0.491191	0	
1.9147	-23.0051	-1.09933	0	
1.9153	-18.4284	-1.09933	0	
1.9160	-14.7609	-0.18712	0	
1.9167	-11.0934	0.725092	0	
1.9173	-8.6686	0.725092	0	
1.9180	-6.5166	-1.09933	0	
1.9187	-1.93983	-2.92376	0	
1.9193	1.69735	-3.83597	0	
1.9200	4.75864	-4.74818	0	
1.9207	12.0936	-5.35632	0	
1.9213	19.7317	-6.596	0	
1.9220	23.6719	-7.81228	0	
1.9227	26.7332	-7.50821	0	
1.9233	27.6425	-5.68378	0	
1.9240	23.3688	-2.61969	0	
1.9247	17.2766	1.05255	0	
1.9253	13.6091	3.18105	0	
1.9260	9.33541	1.96476	0	
1.9267	5.06173	-0.18712	0	
1.9273	2.63695	0.725092	0	
1.9280	0.788054	4.39733	0	
1.9287	-0.424337	5.00547	0	
1.9293	-2.24292	1.66069	0	
1.9300	-8.9717	2.57291	0	
1.9307	-19.0345	6.22175	0	
1.9313	-26.6726	6.52583	0	
1.9320	-30.037	7.46143	0	
1.9327	-31.2494	10.1981	0	
1.9333	-30.9463	8.06957	0	
1.9340	-30.3401	4.39733	0	
1.9347	-27.5819	5.61361	0	
1.9353	-21.7927	4.39733	0	
1.9360	-16.3067	-0.18712	0	
1.9367	-14.7609	-0.18712	0	
1.9373	-12.9423	0.725092	0	
1.9380	-8.3655	-1.70747	0	
1.9387	-3.78872	-1.4034	0	
1.9393	0.788054	0.421021	0	
1.9400	8.72922	0.421021	0	
1.9407	17.5797	-0.18712	0	
1.9413	22.7627	-2.92376	0	
1.9420	24.6115	-5.98785	0	
1.9427	27.0363	-4.74818	0	
1.9433	28.2487	-3.83597	0	
1.9440	24.3084	-5.68378	0	
1.9447	16.6704	-3.83597	0	
1.9453	11.7905	-0.795262	0	
1.9460	7.21373	-0.18712	0	
1.9467	2.63695	1.96476	0	
1.9473	1.69735	2.87698	0	
1.9480	2.94005	-0.491191	0	
1.9487	0.788054	-3.5319	0	
1.9493	-0.424337	-2.01154	0	
1.9500	-1.93983	0.725092	0	
1.9507	-10.7903	2.57291	0	
1.9513	-20.8834	4.09326	0	
1.9520	-25.4602	5.91768	0	
1.9527	-27.5819	5.30954	0	
1.9533	-26.0664	1.66069	0	
1.9540	-18.4284	-1.09933	0	
1.9547	-12.033	-1.09933	0	
1.9553	-9.27479	-0.491191	0	
1.9560	-7.75931	-1.09933	0	
1.9567	-6.8197	-2.01154	0	
1.9573	-3.78872	-2.31562	0	
1.9580	1.39425	-3.83597	0	
1.9587	2.63695	-5.68378	0	
1.9593	3.54625	-5.35632	0	
1.9600	7.21373	-4.74818	0	
1.9607	9.94161	-5.68378	0	
1.9613	14.5184	-5.68378	0	
1.9620	24.9146	-5.35632	0	
1.9627	30.7038	-7.50821	0	
1.9633	27.6425	-6.596	0	
1.9640	25.5208	-0.18712	0	
1.9647	25.5208	0.421021	0	
1.9653	21.8534	-3.5319	0	
1.9660	17.2766	-2.92376	0	
1.9667	13.0029	-0.491191	0	
1.9673	9.03232	-1.09933	0	
1.9680	7.81993	-2.61969	0	
1.9687	7.81993	-4.14004	0	
1.9693	4.15244	-5.05225	0	
1.9700	-4.09182	-1.4034	0	
1.9707	-13.5485	3.48512	0	
1.9713	-19.9438	4.09326	0	
1.9720	-23.3082	4.7014	0	
1.9727	-25.1571	8.06957	0	
1.9733	-25.1571	8.37364	0	
1.9740	-23.9144	4.39733	0	
1.9747	-22.702	2.26884	0	
1.9753	-18.4284	3.78919	0	
1.9760	-12.9423	3.18105	0	
1.9767	-13.2454	-0.795262	0	
1.9773	-14.4578	-1.4034	0	
1.9780	-11.7299	0.725092	0	
1.9787	-9.57789	-1.09933	0	
1.9793	-8.9717	-3.5319	0	
1.9800	-4.09182	-2.31562	0	
1.9807	6.91063	-2.31562	0	
1.9813	18.1859	-3.83597	0	
1.9820	23.3688	-2.61969	0	
1.9827	22.7627	-2.01154	0	
1.9833	22.7627	-2.31562	0	
1.9840	23.3688	-1.09933	0	
1.9847	23.6719	-2.01154	0	
1.9853	23.975	-2.01154	0	
1.9860	20.9441	2.87698	0	
1.9867	14.2153	5.30954	0	
1.9873	9.94161	1.66069	0	
1.9880	9.33541	1.66069	0	
1.9887	7.21373	3.48512	0	
1.9893	2.94005	1.66069	0	
1.9900	-3.18253	1.66069	0	
1.9907	-13.2454	4.39733	0	
1.9913	-23.9144	5.91768	0	
1.9920	-30.9463	5.91768	0	
1.9927	-31.8556	6.52583	0	
1.9933	-28.4912	6.52583	0	
1.9940	-24.2175	4.09326	0	
1.9947	-21.1865	-0.18712	0	
1.9953	-17.5191	-2.92376	0	
1.9960	-12.033	-0.491191	0	
1.9967	-5.91041	1.66069	0	
1.9973	0.484957	0.725092	0	
1.9980	6.30444	-0.18712	0	
1.9987	7.81993	-0.18712	0	
1.9993	5.06173	-2.01154	0	
2.0000	2.94005	-4.74818	0	
2.0007	4.45554	-7.50821	0	
2.0013	10.8812	-6.596	0	
2.0020	21.8534	-7.20414	0	
2.0027	28.8852	-10.853	0	
2.0033	25.8239	-12.0927	0	
2.0040	22.7627	-8.42042	0	
2.0047	22.4596	-7.50821	0	
2.0053	18.489	-8.72449	0	
2.0060	14.5184	-6.29192	0	
2.0067	15.7611	-2.01154	0	
2.0073	15.458	-0.491191	0	
2.0080	9.94161	-1.4034	0	
2.0087	5.36483	-0.795262	0	
2.0093	3.24315	0.725092	0	
2.0100	0.181859	1.66069	0	
2.0107	-7.1228	2.57291	0	
2.0113	-16.3067	5.00547	0	
2.0120	-22.0958	6.22175	0	
2.0127	-24.2175	4.7014	0	
2.0133	-24.8237	4.09326	0	
2.0140	-21.7927	3.48512	0	
2.0147	-16.9129	0.725092	0	
2.0153	-14.4578	-2.92376	0	
2.0160	-12.9423	-2.92376	0	
2.0167	-9.57789	-0.18712	0	
2.0173	-6.5166	-0.18712	0	
2.0180	-5.30421	-2.01154	0	
2.0187	-3.78872	-1.09933	0	
2.0193	-1.93983	-1.09933	0	
2.0200	2.63695	-3.83597	0	
2.0207	11.7905	-4.74818	0	
2.0213	21.2472	-2.92376	0	
2.0220	27.3394	-2.31562	0	
2.0227	32.2193	-1.09933	0	
2.0233	33.7651	0.421021	0	
2.0240	29.1883	-2.01154	0	
2.0247	21.8534	-3.5319	0	
2.0253	17.2766	-1.09933	0	
2.0260	13.6091	-1.09933	0	
2.0267	9.94161	-0.18712	0	
2.0273	7.51683	3.18105	0	
2.0280	4.45554	2.26884	0	
2.0287	-1.03053	-1.09933	0	
2.0293	-5.60731	-0.18712	0	
2.0300	-9.57789	0.421021	0	
2.0307	-17.5191	-0.18712	0	
2.0313	-26.3695	1.96476	0	
2.0320	-31.2494	3.18105	0	
2.0327	-36.7355	0.725092	0	
2.0333	-44.0704	0.725092	0	
2.0340	-44.0704	3.18105	0	
2.0347	-34.9169	1.66069	0	
2.0353	-25.7633	-0.18712	0	
2.0360	-18.4284	0.421021	0	
2.0367	-11.7299	-1.09933	0	
2.0373	-5.00111	-4.44411	0	
2.0380	2.03076	-4.74818	0	
2.0387	9.94161	-2.31562	0	
2.0393	17.5797	-0.18712	0	
2.0400	25.5208	-0.491191	0	
2.0407	30.4007	-2.92376	0	
2.0413	33.7651	-4.14004	0	
2.0420	37.4326	-3.83597	0	
2.0427	36.1899	-3.83597	0	
2.0433	30.0976	-2.61969	0	
2.0440	26.7332	-0.18712	0	
2.0447	25.5208	0.725092	0	
2.0453	20.0348	-2.31562	0	
2.0460	12.6998	-3.83597	0	
2.0467	8.12302	-1.09933	0	
2.0473	6.30444	2.26884	0	
2.0480	6.60753	1.35662	0	
2.0487	5.97103	1.05255	0	
2.0493	1.69735	2.87698	0	
2.0500	-2.87943	2.57291	0	
2.0507	-8.3655	1.35662	0	
2.0513	-18.4284	3.18105	0	
2.0520	-27.5819	4.39733	0	
2.0527	-30.3401	3.18105	0	
2.0533	-31.2494	2.26884	0	
2.0540	-30.9463	1.35662	0	
2.0547	-29.4308	1.05255	0	
2.0553	-26.6726	2.87698	0	
2.0560	-21.7927	3.48512	0	
2.0567	-16.6098	-0.18712	0	
2.0573	-14.4578	-2.61969	0	
2.0580	-8.3655	-1.70747	0	
2.0587	2.63695	-2.92376	0	
2.0593	6.30444	-5.98785	0	
2.0600	6.30444	-6.596	0	
2.0607	15.458	-4.44411	0	
2.0613	28.5821	-5.05225	0	
2.0620	35.5837	-6.90007	0	
2.0627	35.5837	-5.05225	0	
2.0633	31.31	-2.61969	0	
2.0640	27.3394	-1.4034	0	
2.0647	27.0363	0.725092	0	
2.0653	25.5208	1.66069	0	
2.0660	21.5503	1.05255	0	
2.0667	18.1859	2.26884	0	
2.0673	15.1549	1.96476	0	
2.0680	11.1843	0.421021	0	
2.0687	8.72922	3.48512	0	
2.0693	8.12302	5.00547	0	
2.0700	5.06173	1.96476	0	
2.0707	-6.21351	3.48512	0	
2.0713	-22.3989	6.8299	0	
2.0720	-32.1587	2.87698	0	
2.0727	-34.0076	-1.09933	0	
2.0733	-35.22	0.725092	0	
2.0740	-32.7649	0.725092	0	
2.0747	-26.3695	-1.09933	0	
2.0753	-23.3082	-2.31562	0	
2.0760	-20.2469	-2.92376	0	
2.0767	-16.6098	-1.70747	0	
2.0773	-17.216	-0.795262	0	
2.0780	-15.6702	-2.01154	0	
2.0787	-8.3655	-1.09933	0	
2.0793	-6.5166	0.11695	0	
2.0800	-8.3655	-3.83597	0	
2.0807	-1.03053	-6.90007	0	
2.0813	9.03232	-4.44411	0	
2.0820	13.6091	-2.31562	0	
2.0827	19.3983	-2.61969	0	
2.0833	23.975	-2.31562	0	
2.0840	19.7317	-1.70747	0	
2.0847	13.9122	-1.4034	0	
2.0853	12.0936	-1.09933	0	
2.0860	9.03232	-1.09933	0	
2.0867	5.36483	-2.01154	0	
2.0873	5.36483	-2.92376	0	
2.0880	3.54625	-1.4034	0	
2.0887	1.39425	0.11695	0	
2.0893	-0.121239	-0.795262	0	
2.0900	-5.60731	0.725092	0	
2.0907	-15.6702	4.39733	0	
2.0913	-22.0958	4.39733	0	
2.0920	-21.1865	4.09326	0	
2.0927	-17.8222	5.00547	0	
2.0933	-15.6702	3.48512	0	
2.0940	-16.6098	1.66069	0	
2.0947	-16.3067	2.57291	0	
2.0953	-12.6392	2.57291	0	
2.0960	-6.8197	0.11695	0	
2.0967	-1.93983	-0.18712	0	
2.0973	0.788054	-0.491191	0	
2.0980	1.39425	-1.09933	0	
2.0987	2.63695	1.35662	0	
2.0993	5.36483	2.26884	0	
2.1000	9.94161	-0.18712	0	
2.1007	19.3983	-1.4034	0	
2.1013	28.5821	-1.70747	0	
2.1020	31.31	-2.92376	0	
2.1027	29.7945	-3.83597	0	
2.1033	27.3394	-3.83597	0	
2.1040	23.6719	-3.22783	0	
2.1047	20.0348	-3.22783	0	
2.1053	18.1859	-2.01154	0	
2.1060	13.9122	1.96476	0	
2.1067	7.81993	3.18105	0	
2.1073	3.54625	0.725092	0	
2.1080	2.03076	2.87698	0	
2.1087	-0.727435	5.61361	0	
2.1093	-3.78872	1.66069	0	
2.1100	-7.45621	0.725092	0	
2.1107	-16.3067	6.22175	0	
2.1113	-26.6726	8.98178	0	
2.1120	-30.3401	8.98178	0	
2.1127	-28.4912	10.8062	0	
2.1133	-28.1881	10.5021	0	
2.1140	-28.1881	8.37364	0	
2.1147	-25.4602	7.13397	0	
2.1153	-21.1865	4.39733	0	
2.1160	-16.6098	2.87698	0	
2.1167	-12.033	2.87698	0	
2.1173	-8.9717	-0.491191	0	
2.1180	-5.91041	-2.01154	0	
2.1187	-2.87943	1.05255	0	
2.1193	-1.63673	1.05255	0	
2.1200	0.788054	-2.92376	0	
2.1207	9.03232	-3.5319	0	
2.1213	18.489	-2.61969	0	
2.1220	23.6719	-4.14004	0	
2.1227	26.4301	-5.98785	0	
2.1233	24.6115	-4.74818	0	
2.1240	18.7921	-2.92376	0	
2.1247	15.1549	-2.92376	0	
2.1253	12.0936	-3.5319	0	
2.1260	8.12302	-2.61969	0	
2.1267	6.60753	-2.61969	0	
2.1273	7.51683	-3.83597	0	
2.1280	3.84934	-1.4034	0	
2.1287	-0.727435	3.78919	0	
2.1293	-1.03053	3.78919	0	
2.1300	-2.87943	1.66069	0	
2.1307	-11.0934	3.48512	0	
2.1313	-20.2469	4.09326	0	
2.1320	-23.6113	2.57291	0	
2.1327	-24.2175	2.87698	0	
2.1333	-24.8237	3.48512	0	
2.1340	-22.702	1.66069	0	
2.1347	-17.216	-0.491191	0	
2.1353	-11.0934	-1.4034	0	
2.1360	-6.21351	-2.01154	0	
2.1367	-2.87943	-2.92376	0	
2.1373	1.69735	-3.5319	0	
2.1380	5.36483	-2.92376	0	
2.1387	5.66793	-2.01154	0	
2.1393	5.97103	-1.09933	0	
2.1400	10.8812	1.66069	0	
2.1407	17.5797	1.96476	0	
2.1413	22.4596	-0.795262	0	
2.1420	25.5208	-2.61969	0	
2.1427	27.0363	-2.61969	0	
2.1433	25.8239	-2.92376	0	
2.1440	23.6719	-2.61969	0	
2.1447	19.7317	-2.92376	0	
2.1453	13.6091	-4.14004	0	
2.1460	10.2447	-2.92376	0	
2.1467	9.03232	-1.09933	0	
2.1473	6.60753	-2.01154	0	
2.1480	4.45554	-0.795262	0	
2.1487	2.94005	2.57291	0	
2.1493	0.181859	2.57291	0	
2.1500	-4.69802	0.421021	0	
2.1507	-13.5485	1.96476	0	
2.1513	-22.702	5.61361	0	
2.1520	-26.9757	6.22175	0	
2.1527	-27.885	3.78919	0	
2.1533	-28.4912	2.57291	0	
2.1540	-25.7633	2.57291	0	
2.1547	-19.9438	-0.18712	0	
2.1553	-15.064	-2.92376	0	
2.1560	-11.3965	-3.83597	0	
2.1567	-6.8197	-5.98785	0	
2.1573	-4.69802	-6.90007	0	
2.1580	-5.60731	-4.74818	0	
2.1587	-5.60731	-4.14004	0	
2.1593	-1.93983	-5.68378	0	
2.1600	3.54625	-3.83597	0	
2.1607	11.7905	-3.83597	0	
2.1613	20.641	-5.68378	0	
2.1620	27.3394	-6.596	0	
2.1627	29.4914	-5.35632	0	
2.1633	24.9146	-3.5319	0	
2.1640	15.7611	-2.01154	0	
2.1647	10.5478	-2.01154	0	
2.1653	11.1843	-0.795262	0	
2.1660	9.03232	1.05255	0	
2.1667	3.54625	0.725092	0	
2.1673	-0.121239	1.66069	0	
2.1680	-2.54602	2.87698	0	
2.1687	-3.78872	-0.18712	0	
2.1693	-3.18253	-1.09933	0	
2.1700	-5.60731	4.09326	0	
2.1707	-14.7609	6.8299	0	
2.1713	-26.6726	3.48512	0	
2.1720	-34.9169	0.725092	0	
2.1727	-36.4324	0.725092	0	
2.1733	-34.6138	1.35662	0	
2.1740	-32.1587	1.35662	0	
2.1747	-27.885	-0.18712	0	
2.1753	-21.4896	-0.18712	0	
2.1760	-15.3671	-0.18712	0	
2.1767	-9.27479	-1.70747	0	
2.1773	-4.69802	-0.795262	0	
2.1780	-2.87943	0.11695	0	
2.1787	-0.424337	-1.09933	0	
2.1793	2.03076	-0.18712	0	
2.1800	3.24315	2.87698	0	
2.1807	8.42612	0.421021	0	
2.1813	17.5797	-2.31562	0	
2.1820	23.975	-0.18712	0	
2.1827	23.6719	1.66069	0	
2.1833	19.0952	0.725092	0	
2.1840	13.9122	0.725092	0	
2.1847	13.6091	-0.795262	0	
2.1853	13.6091	-2.61969	0	
2.1860	9.03232	-1.4034	0	
2.1867	3.24315	-0.18712	0	
2.1873	3.24315	-0.491191	0	
2.1880	3.54625	-0.18712	0	
2.1887	-1.93983	0.421021	0	
2.1893	-8.9717	0.725092	0	
2.1900	-13.8516	1.05255	0	
2.1907	-19.3376	2.26884	0	
2.1913	-25.7633	5.30954	0	
2.1920	-27.885	8.98178	0	
2.1927	-28.4912	8.98178	0	
2.1933	-28.7943	6.22175	0	
2.1940	-23.9144	5.61361	0	
2.1947	-16.6098	5.30954	0	
2.1953	-12.3361	4.39733	0	
2.1960	-8.3655	2.87698	0	
2.1967	-3.18253	0.421021	0	
2.1973	-0.727435	-0.491191	0	
2.1980	1.39425	1.05255	0	
2.1987	1.09115	-0.491191	0	
2.1993	-3.18253	-4.44411	0	
2.2000	-1.93983	-4.74818	0	
2.2007	8.12302	-4.74818	0	
2.2013	16.9735	-7.50821	0	
2.2020	21.8534	-6.90007	0	
2.2027	25.5208	-5.05225	0	
2.2033	24.9146	-5.68378	0	
2.2040	21.8534	-4.74818	0	
2.2047	20.9441	-1.09933	0	
2.2053	18.1859	-0.18712	0	
2.2060	13.6091	-1.4034	0	
2.2067	13.6091	-1.4034	0	
2.2073	14.5184	-0.18712	0	
2.2080	9.63851	1.66069	0	
2.2087	6.91063	2.57291	0	
2.2093	9.03232	1.35662	0	
2.2100	6.30444	1.35662	0	
2.2107	-3.48563	3.18105	0	
2.2113	-10.7903	4.39733	0	
2.2120	-14.7609	4.7014	0	
2.2127	-19.6407	4.09326	0	
2.2133	-22.3989	2.87698	0	
2.2140	-18.7314	0.421021	0	
2.2147	-14.7609	-1.09933	0	
2.2153	-13.8516	-0.18712	0	
2.2160	-13.8516	-1.09933	0	
2.2167	-13.8516	-4.14004	0	
2.2173	-11.0934	-4.44411	0	
2.2180	-3.48563	-2.01154	0	
2.2187	1.69735	-2.01154	0	
2.2193	-0.727435	-3.22783	0	
2.2200	0.788054	-2.61969	0	
2.2207	10.8812	-2.92376	0	
2.2213	19.0952	-5.35632	0	
2.2220	23.3688	-6.596	0	
2.2227	25.5208	-4.74818	0	
2.2233	26.4301	-5.35632	0	
2.2240	27.3394	-8.11635	0	
2.2247	26.7332	-7.20414	0	
2.2253	23.6719	-4.74818	0	
2.2260	21.8534	-4.74818	0	
2.2267	20.641	-4.14004	0	
2.2273	13.9122	-2.92376	0	
2.2280	7.51683	-4.74818	0	
2.2287	5.36483	-6.90007	0	
2.2293	0.788054	-5.98785	0	
2.2300	-7.1228	-4.14004	0	
2.2307	-15.9733	-1.09933	0	
2.2313	-22.702	2.87698	0	
2.2320	-24.2175	4.09326	0	
2.2327	-23.9144	4.39733	0	
2.2333	-24.8237	4.39733	0	
2.2340	-23.3082	0.725092	0	
2.2347	-19.0345	-1.09933	0	
2.2353	-16.6098	1.66069	0	
2.2360	-14.7609	0.725092	0	
2.2367	-11.0934	-1.09933	0	
2.2373	-9.57789	0.725092	0	
2.2380	-7.45621	-0.18712	0	
2.2387	-4.09182	-1.4034	0	
2.2393	-3.18253	1.96476	0	
2.2400	-1.03053	2.57291	0	
2.2407	7.81993	-0.491191	0	
2.2413	17.2766	-1.09933	0	
2.2420	21.2472	-1.09933	0	
2.2427	23.0657	-3.83597	0	
2.2433	24.3084	-2.92376	0	
2.2440	21.2472	-1.09933	0	
2.2447	17.2766	-1.70747	0	
2.2453	14.5184	-2.01154	0	
2.2460	9.63851	-1.4034	0	
2.2467	5.36483	-1.4034	0	
2.2473	4.45554	-0.491191	0	
2.2480	1.69735	0.421021	0	
2.2487	-3.18253	0.421021	0	
2.2493	-5.60731	0.421021	0	
2.2500	-10.1841	1.05255	0	
2.2507	-19.6407	2.26884	0	
2.2513	-27.2788	2.87698	0	
2.2520	-30.3401	2.26884	0	
2.2527	-32.1587	3.48512	0	
2.2533	-29.4308	6.22175	0	
2.2540	-24.2175	5.61361	0	
2.2547	-23.0051	1.96476	0	
2.2553	-20.2469	2.26884	0	
2.2560	-12.6392	3.48512	0	
2.2567	-8.6686	1.05255	0	
2.2573	-8.0624	0.725092	0	
2.2580	-2.87943	2.87698	0	
2.2587	2.33385	1.66069	0	
2.2593	2.33385	-2.01154	0	
2.2600	6.60753	-3.83597	0	
2.2607	18.489	-5.05225	0	
2.2613	26.7332	-5.68378	0	
2.2620	28.8852	-4.44411	0	
2.2627	31.6131	-3.83597	0	
2.2633	32.8255	-3.83597	0	
2.2640	28.2487	-3.22783	0	
2.2647	22.7627	-3.83597	0	
2.2653	20.641	-2.92376	0	
2.2660	16.9735	0.725092	0	
2.2667	12.3967	1.66069	0	
2.2673	10.2447	-0.18712	0	
2.2680	8.12302	1.05255	0	
2.2687	4.45554	3.18105	0	
2.2693	2.94005	3.18105	0	
2.2700	-0.121239	3.48512	0	
2.2707	-9.27479	3.78919	0	
2.2713	-19.3376	2.57291	0	
2.2720	-24.2175	5.61361	0	
2.2727	-25.7633	9.89399	0	
2.2733	-24.2175	6.8299	0	
2.2740	-21.4896	1.35662	0	
2.2747	-21.1865	0.725092	0	
2.2753	-18.4284	0.725092	0	
2.2760	-12.033	-1.09933	0	
2.2767	-8.3655	-1.09933	0	
2.2773	-6.8197	0.421021	0	
2.2780	-2.87943	-1.09933	0	
2.2787	1.69735	-2.61969	0	
2.2793	2.33385	-2.61969	0	
2.2800	5.97103	-2.92376	0	
2.2807	16.3673	-4.14004	0	
2.2813	26.4301	-6.596	0	
2.2820	29.1883	-7.20414	0	
2.2827	28.5821	-6.29192	0	
2.2833	27.0363	-6.90007	0	
2.2840	23.3688	-7.81228	0	
2.2847	19.3983	-6.596	0	
2.2853	16.6704	-5.35632	0	
2.2860	11.7905	-3.5319	0	
2.2867	4.15244	-0.18712	0	
2.2873	-0.424337	0.725092	0	
2.2880	-1.63673	0.11695	0	
2.2887	-1.93983	1.66069	0	
2.2893	-2.87943	1.66069	0	
2.2900	-6.8197	1.66069	0	
2.2907	-14.7609	3.48512	0	
2.2913	-23.6113	3.18105	0	
2.2920	-29.4308	1.96476	0	
2.2927	-29.7339	5.00547	0	
2.2933	-26.9757	5.61361	0	
2.2940	-24.8237	-0.18712	0	
2.2947	-21.1865	-2.92376	0	
2.2953	-13.8516	-0.18712	0	
2.2960	-8.9717	-1.4034	0	
2.2967	-9.27479	-5.35632	0	
2.2973	-8.0624	-4.74818	0	
2.2980	-2.87943	-3.83597	0	
2.2987	-0.727435	-5.68378	0	
2.2993	-1.63673	-6.596	0	
2.3000	2.63695	-6.596	0	
2.3007	12.6998	-9.02856	0	
2.3013	20.641	-9.33263	0	
2.3020	24.6115	-7.50821	0	
2.3027	26.7332	-8.42042	0	
2.3033	27.0363	-9.33263	0	
2.3040	23.6719	-5.68378	0	
2.3047	18.489	-5.05225	0	
2.3053	14.5184	-6.90007	0	
2.3060	13.306	-4.44411	0	
2.3067	10.2447	-1.09933	0	
2.3073	5.36483	-0.795262	0	
2.3080	2.33385	-0.18712	0	
2.3087	1.39425	0.421021	0	
2.3093	0.484957	1.05255	0	
2.3100	-3.78872	1.96476	0	
2.3107	-12.6392	3.48512	0	
2.3113	-20.5803	5.30954	0	
2.3120	-24.5206	5.30954	0	
2.3127	-25.1571	3.48512	0	
2.3133	-23.3082	3.18105	0	
2.3140	-19.3376	3.78919	0	
2.3147	-16.6098	2.57291	0	
2.3153	-12.9423	2.26884	0	
2.3160	-7.1228	2.87698	0	
2.3167	-3.18253	0.725092	0	
2.3173	-2.24292	-0.491191	0	
2.3180	-1.63673	0.11695	0	
2.3187	0.181859	-2.61969	0	
2.3193	2.94005	-3.83597	0	
2.3200	6.60753	-1.09933	0	
2.3207	13.9122	-1.09933	0	
2.3213	24.3084	-3.83597	0	
2.3220	27.9456	-3.5319	0	
2.3227	23.3688	-2.92376	0	
2.3233	20.0348	-3.83597	0	
2.3240	20.0348	-2.61969	0	
2.3247	20.9441	-2.01154	0	
2.3253	23.975	-1.4034	0	
2.3260	24.6115	2.87698	0	
2.3267	17.5797	4.39733	0	
2.3273	11.1843	2.26884	0	
2.3280	7.81993	3.78919	0	
2.3287	2.63695	6.22175	0	
2.3293	-1.03053	4.39733	0	
2.3300	-4.69802	4.09326	0	
2.3307	-16.3067	7.7655	0	
2.3313	-30.3401	8.98178	0	
2.3320	-37.3417	7.13397	0	
2.3327	-39.1906	5.00547	0	
2.3333	-36.7355	4.7014	0	
2.3340	-32.1587	5.30954	0	
2.3347	-30.9463	4.7014	0	
2.3353	-27.5819	2.87698	0	
2.3360	-17.8222	0.725092	0	
2.3367	-12.033	-1.70747	0	
2.3373	-12.6392	-3.83597	0	
2.3380	-9.27479	-3.22783	0	
2.3387	-2.87943	-2.01154	0	
2.3393	-0.727435	-2.01154	0	
2.3400	2.33385	-3.83597	0	
2.3407	10.8812	-5.35632	0	
2.3413	20.0348	-5.35632	0	
2.3420	24.3084	-4.14004	0	
2.3427	24.9146	-4.14004	0	
2.3433	24.3084	-3.83597	0	
2.3440	22.7627	-2.31562	0	
2.3447	21.5503	-1.09933	0	
2.3453	17.8828	0.421021	0	
2.3460	11.7905	3.48512	0	
2.3467	7.81993	6.22175	0	
2.3473	6.60753	6.22175	0	
2.3480	3.84934	5.61361	0	
2.3487	1.39425	4.7014	0	
2.3493	-0.121239	2.57291	0	
2.3500	-4.69802	1.66069	0	
2.3507	-13.8516	2.87698	0	
2.3513	-21.7927	4.39733	0	
2.3520	-26.0664	5.30954	0	
2.3527	-27.5819	5.91768	0	
2.3533	-26.0664	3.48512	0	
2.3540	-23.3082	1.96476	0	
2.3547	-21.7927	3.48512	0	
2.3553	-18.4284	1.05255	0	
2.3560	-12.9423	-2.61969	0	
2.3567	-9.27479	-1.09933	0	
2.3573	-7.45621	-0.491191	0	
2.3580	-3.48563	-3.5319	0	
2.3587	0.788054	-3.83597	0	
2.3593	2.63695	-3.83597	0	
2.3600	8.12302	-7.50821	0	
2.3607	18.7921	-9.94077	0	
2.3613	26.4301	-10.2448	0	
2.3620	27.9456	-10.5489	0	
2.3627	27.9456	-6.90007	0	
2.3633	24.9146	-3.5319	0	
2.3640	20.0348	-4.74818	0	
2.3647	16.3673	-4.44411	0	
2.3653	13.6091	-1.09933	0	
2.3660	10.8812	0.11695	0	
2.3667	9.94161	1.05255	0	
2.3673	6.91063	1.66069	0	
2.3680	2.03076	0.725092	0	
2.3687	0.181859	1.96476	0	
2.3693	0.788054	2.57291	0	
2.3700	-1.63673	-0.491191	0	
2.3707	-9.27479	-0.18712	0	
2.3713	-19.6407	2.87698	0	
2.3720	-26.0664	2.57291	0	
2.3727	-27.885	1.66069	0	
2.3733	-28.7943	2.26884	0	
2.3740	-26.6726	1.66069	0	
2.3747	-19.9438	3.18105	0	
2.3753	-15.6702	4.39733	0	
2.3760	-15.6702	2.87698	0	
2.3767	-14.7609	3.48512	0	
2.3773	-11.0934	4.09326	0	
2.3780	-7.75931	-0.18712	0	
2.3787	-5.30421	-0.795262	0	
2.3793	-1.33363	2.57291	0	
2.3800	6.30444	0.11695	0	
2.3807	16.3673	-5.05225	0	
2.3813	23.3688	-5.35632	0	
2.3820	27.6425	-4.74818	0	
2.3827	29.4914	-6.90007	0	
2.3833	26.7332	-6.90007	0	
2.3840	23.3688	-6.596	0	
2.3847	20.641	-7.50821	0	
2.3853	15.458	-4.74818	0	
2.3860	9.63851	-1.70747	0	
2.3867	7.21373	-2.01154	0	
2.3873	4.45554	-1.09933	0	
2.3880	0.788054	1.66069	0	
2.3887	-1.33363	1.35662	0	
2.3893	-4.69802	0.725092	0	
2.3900	-11.3965	2.57291	0	
2.3907	-17.5191	3.48512	0	
2.3913	-22.0958	4.39733	0	
2.3920	-26.6726	6.8299	0	
2.3927	-25.7633	5.91768	0	
2.3933	-21.1865	3.48512	0	
2.3940	-18.4284	5.00547	0	
2.3947	-15.6702	6.52583	0	
2.3953	-9.88099	3.18105	0	
2.3960	-6.5166	0.421021	0	
2.3967	-8.3655	0.11695	0	
2.3973	-8.9717	-0.18712	0	
2.3980	-6.8197	-0.18712	0	
2.3987	-7.1228	-0.18712	0	
2.3993	-9.27479	-1.4034	0	
2.4000	-6.8197	-2.92376	0	
2.4007	4.15244	-3.83597	0	
2.4013	15.458	-5.68378	0	
2.4020	20.3379	-5.35632	0	
2.4027	22.7627	-3.83597	0	
2.4033	24.6115	-3.83597	0	
2.4040	23.0657	-3.83597	0	
2.4047	19.7317	-2.92376	0	
2.4053	15.458	-3.83597	0	
2.4060	8.72922	-4.74818	0	
2.4067	4.45554	-3.5319	0	
2.4073	5.06173	-1.4034	0	
2.4080	3.54625	-0.18712	0	
2.4087	0.788054	1.35662	0	
2.4093	0.788054	3.48512	0	
2.4100	-1.93983	3.48512	0	
2.4107	-10.7903	2.87698	0	
2.4113	-19.3376	5.30954	0	
2.4120	-24.2175	8.67771	0	
2.4127	-25.7633	6.22175	0	
2.4133	-24.2175	2.57291	0	
2.4140	-20.8834	4.7014	0	
2.4147	-18.1253	6.22175	0	
2.4153	-14.7609	2.26884	0	
2.4160	-10.1841	-1.09933	0	
2.4167	-5.60731	0.725092	0	
2.4173	-2.24292	2.57291	0	
2.4180	1.39425	0.11695	0	
2.4187	5.06173	-2.92376	0	
2.4193	7.21373	-0.491191	0	
2.4200	9.94161	2.57291	0	
2.4207	17.8828	-1.09933	0	
2.4213	26.4301	-4.14004	0	
2.4220	28.5821	-1.09933	0	
2.4227	28.2487	0.11695	0	
2.4233	27.3394	-2.31562	0	
2.4240	24.3084	-2.61969	0	
2.4247	20.0348	-0.491191	0	
2.4253	16.9735	1.66069	0	
2.4260	12.3967	2.57291	0	
2.4267	8.12302	1.96476	0	
2.4273	6.60753	1.35662	0	
2.4280	3.24315	1.66069	0	
2.4287	-1.33363	1.35662	0	
2.4293	-2.87943	0.725092	0	
2.4300	-6.5166	1.66069	0	
2.4307	-16.3067	3.48512	0	
2.4313	-23.6113	5.30954	0	
2.4320	-24.5206	4.09326	0	
2.4327	-25.1571	3.48512	0	
2.4333	-26.6726	5.00547	0	
2.4340	-22.0958	2.57291	0	
2.4347	-15.6702	-2.01154	0	
2.4353	-13.2454	-0.18712	0	
2.4360	-12.6392	2.57291	0	
2.4367	-5.60731	-2.01154	0	
2.4373	2.63695	-3.83597	0	
2.4380	4.45554	-0.491191	0	
2.4387	4.75864	-1.70747	0	
2.4393	7.51683	-4.14004	0	
2.4400	11.1843	-3.5319	0	
2.4407	16.3673	-4.74818	0	
2.4413	23.975	-7.20414	0	
2.4420	27.9456	-5.68378	0	
2.4427	27.0363	-5.05225	0	
2.4433	25.8239	-5.98785	0	
2.4440	24.3084	-2.31562	0	
2.4447	19.3983	0.725092	0	
2.4453	12.0936	-2.01154	0	
2.4460	6.30444	-3.5319	0	
2.4467	5.66793	-2.01154	0	
2.4473	5.06173	-3.83597	0	
2.4480	0.484957	-4.14004	0	
2.4487	-2.87943	-2.31562	0	
2.4493	-4.39492	-1.70747	0	
2.4500	-10.1841	-0.18712	0	
2.4507	-17.5191	4.39733	0	
2.4513	-23.0051	4.09326	0	
2.4520	-28.4912	1.66069	0	
2.4527	-31.8556	4.39733	0	
2.4533	-31.5525	7.7655	0	
2.4540	-31.5525	5.00547	0	
2.4547	-28.4912	2.26884	0	
2.4553	-21.7927	4.39733	0	
2.4560	-17.8222	5.00547	0	
2.4567	-15.064	-0.18712	0	
2.4573	-9.88099	-3.83597	0	
2.4580	-4.39492	-2.01154	0	
2.4587	0.181859	-0.795262	0	
2.4593	3.54625	-2.92376	0	
2.4600	6.30444	-4.44411	0	
2.4607	13.6091	-5.68378	0	
2.4613	24.6115	-6.90007	0	
2.4620	30.4007	-5.68378	0	
2.4627	31.31	-4.14004	0	
2.4633	30.7038	-5.05225	0	
2.4640	24.9146	-3.83597	0	
2.4647	17.2766	-1.09933	0	
2.4653	14.8215	-0.491191	0	
2.4660	15.1549	-1.09933	0	
2.4667	11.7905	-2.92376	0	
2.4673	7.21373	-4.44411	0	
2.4680	3.54625	-2.92376	0	
2.4687	-0.424337	0.11695	0	
2.4693	-6.5166	1.05255	0	
2.4700	-13.5485	3.48512	0	
2.4707	-19.0345	8.98178	0	
2.4713	-23.9144	10.1981	0	
2.4720	-29.4308	6.52583	0	
2.4727	-32.4618	3.48512	0	
2.4733	-31.8556	1.05255	0	
2.4740	-28.4912	0.11695	0	
2.4747	-22.0958	1.05255	0	
2.4753	-16.9129	1.35662	0	
2.4760	-17.5191	0.11695	0	
2.4767	-17.5191	0.725092	0	
2.4773	-14.1547	0.725092	0	
2.4780	-12.3361	-2.01154	0	
2.4787	-10.1841	-2.61969	0	
2.4793	-5.91041	0.421021	0	
2.4800	-1.03053	1.05255	0	
2.4807	9.03232	-2.01154	0	
2.4813	21.5503	-4.44411	0	
2.4820	24.9146	-3.83597	0	
2.4827	24.6115	-3.5319	0	
2.4833	31.0069	-2.92376	0	
2.4840	33.462	-1.09933	0	
2.4847	26.7332	-0.18712	0	
2.4853	20.9441	-1.09933	0	
2.4860	18.1859	-2.31562	0	
2.4867	13.6091	-2.92376	0	
2.4873	8.12302	-2.61969	0	
2.4880	6.30444	-0.795262	0	
2.4887	4.45554	1.66069	0	
2.4893	0.484957	1.05255	0	
2.4900	-5.00111	1.05255	0	
2.4907	-12.3361	5.61361	0	
2.4913	-20.2469	8.98178	0	
2.4920	-23.9144	6.52583	0	
2.4927	-21.1865	4.39733	0	
2.4933	-19.6407	5.61361	0	
2.4940	-19.9438	5.30954	0	
2.4947	-16.6098	2.87698	0	
2.4953	-12.9423	1.66069	0	
2.4960	-10.1841	1.35662	0	
2.4967	-4.69802	-1.4034	0	
2.4973	-0.424337	-6.29192	0	
2.4980	0.788054	-9.02856	0	
2.4987	5.97103	-8.11635	0	
2.4993	12.6998	-4.74818	0	
2.5000	16.6704	-3.5319	0	
2.5007	23.3688	-5.68378	0	
2.5013	32.8255	-6.29192	0	
2.5020	35.5837	-2.92376	0	
2.5027	33.462	-2.92376	0	
2.5033	33.1589	-5.05225	0	
2.5040	31.9162	-1.4034	0	
2.5047	21.8534	3.18105	0	
2.5053	6.60753	0.725092	0	
2.5060	-0.424337	-2.01154	0	
2.5067	2.03076	-1.09933	0	
2.5073	3.24315	-0.18712	0	
2.5080	-1.03053	0.11695	0	
2.5087	-3.78872	2.57291	0	
2.5093	-4.39492	4.7014	0	
2.5100	-9.88099	5.00547	0	
2.5107	-18.7314	4.7014	0	
2.5113	-24.2175	5.91768	0	
2.5120	-27.2788	7.7655	0	
2.5127	-30.9463	8.37364	0	
2.5133	-29.0974	8.98178	0	
2.5140	-22.702	8.37364	0	
2.5147	-21.1865	5.30954	0	
2.5153	-22.0958	2.87698	0	
2.5160	-15.9733	2.87698	0	
2.5167	-8.3655	4.39733	0	
2.5173	-4.69802	3.48512	0	
2.5180	-1.33363	-1.09933	0	
2.5187	2.33385	-2.01154	0	
2.5193	3.54625	1.35662	0	
2.5200	7.81993	-0.795262	0	
2.5207	17.2766	-7.81228	0	
2.5213	27.9456	-9.33263	0	
2.5220	33.462	-5.98785	0	
2.5227	31.9162	-4.44411	0	
2.5233	27.3394	-2.01154	0	
2.5240	24.6115	1.66069	0	
2.5247	20.9441	1.66069	0	
2.5253	13.306	-1.09933	0	
2.5260	5.97103	-1.70747	0	
2.5267	3.24315	0.11695	0	
2.5273	0.788054	2.57291	0	
2.5280	-4.69802	3.48512	0	
2.5287	-7.75931	1.96476	0	
2.5293	-7.45621	1.05255	0	
2.5300	-10.7903	0.725092	0	
2.5307	-20.5803	-0.795262	0	
2.5313	-27.885	1.66069	0	
2.5320	-26.6726	6.22175	0	
2.5327	-23.6113	4.39733	0	
2.5333	-23.9144	-0.18712	0	
2.5340	-23.3082	-0.18712	0	
2.5347	-19.0345	0.725092	0	
2.5353	-12.6392	-0.491191	0	
2.5360	-7.1228	-0.18712	0	
2.5367	-3.78872	0.11695	0	
2.5373	0.181859	-1.70747	0	
2.5380	6.30444	-1.70747	0	
2.5387	8.12302	-1.4034	0	
2.5393	5.36483	-2.92376	0	
2.5400	10.2447	-3.83597	0	
2.5407	20.3379	-4.74818	0	
2.5413	24.6115	-6.90007	0	
2.5420	26.127	-6.596	0	
2.5427	27.3394	-5.98785	0	
2.5433	22.7627	-6.596	0	
2.5440	16.6704	-4.14004	0	
2.5447	15.7611	-0.18712	0	
2.5453	12.6998	1.05255	0	
2.5460	5.66793	0.11695	0	
2.5467	2.33385	0.725092	0	
2.5473	0.788054	3.48512	0	
2.5480	-0.727435	5.30954	0	
2.5487	1.69735	5.91768	0	
2.5493	1.39425	5.91768	0	
2.5500	-5.91041	6.8299	0	
2.5507	-14.7609	6.8299	0	
2.5513	-21.4896	5.61361	0	
2.5520	-25.4602	4.39733	0	
2.5527	-24.2175	1.66069	0	
2.5533	-22.0958	0.11695	0	
2.5540	-23.6113	1.66069	0	
2.5547	-24.8237	1.66069	0	
2.5553	-21.7927	-0.18712	0	
2.5560	-17.5191	1.66069	0	
2.5567	-14.7609	1.35662	0	
2.5573	-12.033	-3.83597	0	
2.5580	-6.8197	-4.44411	0	
2.5587	-2.87943	-0.18712	0	
2.5593	-1.93983	-0.18712	0	
2.5600	3.84934	-2.31562	0	
2.5607	17.2766	-1.70747	0	
2.5613	27.0363	-1.70747	0	
2.5620	28.8852	-3.83597	0	
2.5627	30.0976	-5.68378	0	
2.5633	29.4914	-5.68378	0	
2.5640	23.6719	-2.92376	0	
2.5647	18.489	-0.795262	0	
2.5653	15.7611	-2.01154	0	
2.5660	12.3967	-1.70747	0	
2.5667	9.03232	2.87698	0	
2.5673	4.15244	4.7014	0	
2.5680	-0.424337	1.35662	0	
2.5687	-1.03053	-0.795262	0	
2.5693	-0.424337	0.725092	0	
2.5700	-5.00111	3.18105	0	
2.5707	-13.8516	3.48512	0	
2.5713	-21.4896	2.87698	0	
2.5720	-23.6113	3.78919	0	
2.5727	-22.3989	3.48512	0	
2.5733	-22.3989	1.35662	0	
2.5740	-21.4896	-0.18712	0	
2.5747	-15.6702	-0.18712	0	
2.5753	-10.4872	1.35662	0	
2.5760	-8.3655	3.18105	0	
2.5767	-7.1228	1.05255	0	
2.5773	-5.00111	-3.5319	0	
2.5780	-0.121239	-2.61969	0	
2.5787	4.75864	1.05255	0	
2.5793	4.15244	-0.18712	0	
2.5800	4.75864	-3.83597	0	
2.5807	13.0029	-4.74818	0	
2.5813	18.7921	-5.35632	0	
2.5820	17.5797	-5.05225	0	
2.5827	20.9441	-2.92376	0	
2.5833	26.4301	-1.70747	0	
2.5840	24.3084	-2.61969	0	
2.5847	20.0348	-2.01154	0	
2.5853	17.8828	0.421021	0	
2.5860	12.6998	1.05255	0	
2.5867	5.66793	-0.795262	0	
2.5873	1.69735	-1.09933	0	
2.5880	-1.93983	1.05255	0	
2.5887	-4.09182	2.57291	0	
2.5893	-5.60731	2.57291	0	
2.5900	-11.0934	2.26884	0	
2.5907	-19.3376	3.18105	0	
2.5913	-23.6113	3.48512	0	
2.5920	-28.1881	3.18105	0	
2.5927	-33.3711	2.87698	0	
2.5933	-30.9463	2.87698	0	
2.5940	-23.6113	0.725092	0	
2.5947	-20.2469	-2.31562	0	
2.5953	-19.0345	-2.61969	0	
2.5960	-17.216	-2.31562	0	
2.5967	-14.7609	-3.5319	0	
2.5973	-11.0934	-2.01154	0	
2.5980	-5.60731	0.725092	0	
2.5987	-1.33363	-1.4034	0	
2.5993	2.33385	-3.22783	0	
2.6000	7.21373	-1.09933	0	
2.6007	14.2153	-2.61969	0	
2.6013	21.2472	-6.596	0	
2.6020	23.6719	-5.68378	0	
2.6027	22.7627	-4.14004	0	
2.6033	23.3688	-6.29192	0	
2.6040	23.0657	-5.05225	0	
2.6047	18.489	-1.09933	0	
2.6053	11.7905	-0.491191	0	
2.6060	5.36483	-1.09933	0	
2.6067	1.69735	0.421021	0	
2.6073	2.03076	3.18105	0	
2.6080	2.03076	4.39733	0	
2.6087	0.181859	3.48512	0	
2.6093	-1.03053	3.78919	0	
2.6100	-4.39492	7.13397	0	
2.6107	-11.7299	7.7655	0	
2.6113	-17.8222	4.09326	0	
2.6120	-21.4896	2.57291	0	
2.6127	-23.6113	5.00547	0	
2.6133	-21.4896	6.22175	0	
2.6140	-17.216	3.48512	0	
2.6147	-11.0934	1.05255	0	
2.6153	-0.727435	2.87698	0	
2.6160	8.12302	4.39733	0	
2.6167	9.94161	0.421021	0	
2.6173	11.7905	-2.92376	0	
2.6180	13.9122	-1.4034	0	
2.6187	11.4874	-1.70747	0	
2.6193	8.42612	-3.5319	0	
2.6200	8.72922	-2.31562	0	
2.6207	9.03232	-2.01154	0	
2.6213	9.33541	-5.05225	0	
2.6220	9.03232	-7.20414	0	
2.6227	9.63851	-5.98785	0	
2.6233	13.6091	-4.44411	0	
2.6240	14.5184	-3.83597	0	
2.6247	8.12302	-2.01154	0	
2.6253	0.788054	0.11695	0	
2.6260	-3.78872	1.05255	0	
2.6267	-6.5166	1.05255	0	
2.6273	-6.5166	2.57291	0	
2.6280	-6.21351	3.78919	0	
2.6287	-8.9717	2.87698	0	
2.6293	-11.3965	4.39733	0	
2.6300	-15.3671	5.61361	0	
2.6307	-24.5206	3.48512	0	
2.6313	-32.1587	2.57291	0	
2.6320	-34.0076	6.22175	0	
2.6327	-33.3711	7.13397	0	
2.6333	-30.3401	1.96476	0	
2.6340	-24.8237	-1.4034	0	
2.6347	-21.1865	1.35662	0	
2.6353	-18.1253	2.57291	0	
2.6360	-12.9423	-1.09933	0	
2.6367	-5.91041	-3.83597	0	
2.6373	-1.93983	-3.5319	0	
2.6380	-0.121239	-3.83597	0	
2.6387	1.69735	-4.44411	0	
2.6393	3.54625	-3.5319	0	
2.6400	9.03232	-2.92376	0	
2.6407	20.0348	-5.35632	0	
2.6413	27.6425	-7.20414	0	
2.6420	28.2487	-5.68378	0	
2.6427	28.5821	-4.74818	0	
2.6433	30.0976	-5.68378	0	
2.6440	26.4301	-3.83597	0	
2.6447	21.8534	-1.09933	0	
2.6453	19.7317	-1.4034	0	
2.6460	15.458	-2.01154	0	
2.6467	11.1843	-0.18712	0	
2.6473	9.33541	2.87698	0	
2.6480	7.51683	5.30954	0	
2.6487	7.21373	5.30954	0	
2.6493	5.97103	1.66069	0	
2.6500	-2.87943	1.05255	0	
2.6507	-15.064	4.39733	0	
2.6513	-19.9438	6.52583	0	
2.6520	-22.0958	6.8299	0	
2.6527	-24.8237	6.22175	0	
2.6533	-20.5803	3.78919	0	
2.6540	-14.7609	2.57291	0	
2.6547	-12.9423	1.96476	0	
2.6553	-8.9717	1.05255	0	
2.6560	-2.24292	1.96476	0	
2.6567	-0.727435	2.87698	0	
2.6573	-1.03053	-0.795262	0	
2.6580	1.09115	-3.83597	0	
2.6587	3.24315	-3.5319	0	
2.6593	3.54625	-3.5319	0	
2.6600	5.36483	-4.74818	0	
2.6607	13.0029	-5.68378	0	
2.6613	21.8534	-6.596	0	
2.6620	23.6719	-7.20414	0	
2.6627	22.4596	-7.20414	0	
2.6633	22.4596	-7.50821	0	
2.6640	19.7317	-7.50821	0	
2.6647	13.9122	-5.98785	0	
2.6653	11.7905	-3.83597	0	
2.6660	10.5478	-1.4034	0	
2.6667	5.36483	-0.491191	0	
2.6673	1.39425	-0.491191	0	
2.6680	0.788054	0.725092	0	
2.6687	1.69735	1.66069	0	
2.6693	0.788054	2.57291	0	
2.6700	-5.00111	5.30954	0	
2.6707	-17.216	5.61361	0	
2.6713	-28.1881	4.7014	0	
2.6720	-30.3401	6.22175	0	
2.6727	-26.0664	5.91768	0	
2.6733	-23.9144	3.48512	0	
2.6740	-23.9144	3.78919	0	
2.6747	-21.1865	5.00547	0	
2.6753	-18.7314	4.09326	0	
2.6760	-20.2469	4.39733	0	
2.6767	-17.216	2.26884	0	
2.6773	-10.1841	-1.09933	0	
2.6780	-8.3655	-0.795262	0	
2.6787	-7.45621	-1.70747	0	
2.6793	-1.93983	-5.68378	0	
2.6800	6.30444	-5.98785	0	
2.6807	15.458	-2.92376	0	
2.6813	23.6719	-0.491191	0	
2.6820	27.3394	-0.18712	0	
2.6827	30.0976	-3.22783	0	
2.6833	32.2193	-6.596	0	
2.6840	29.4914	-3.83597	0	
2.6847	23.975	-0.18712	0	
2.6853	20.9441	-0.491191	0	
2.6860	17.8828	-0.491191	0	
2.6867	12.6998	1.05255	0	
2.6873	6.30444	0.725092	0	
2.6880	0.484957	0.421021	0	
2.6887	-1.93983	-0.18712	0	
2.6893	-1.93983	-2.61969	0	
2.6900	-7.75931	-1.70747	0	
2.6907	-18.4284	3.48512	0	
2.6913	-26.9757	4.39733	0	
2.6920	-28.7943	1.66069	0	
2.6927	-26.0664	2.26884	0	
2.6933	-22.0958	3.48512	0	
2.6940	-18.1253	2.26884	0	
2.6947	-14.7609	0.421021	0	
2.6953	-10.1841	-0.18712	0	
2.6960	-4.69802	-0.491191	0	
2.6967	-2.24292	-1.70747	0	
2.6973	-1.33363	-3.22783	0	
2.6980	1.69735	-3.83597	0	
2.6987	3.24315	-2.31562	0	
2.6993	2.63695	-1.09933	0	
2.7000	7.81993	-0.795262	0	
2.7007	18.7921	-0.795262	0	
2.7013	25.8239	-2.61969	0	
2.7020	29.1883	-6.29192	0	
2.7027	31.0069	-5.05225	0	
2.7033	28.8852	0.11695	0	
2.7040	24.6115	1.96476	0	
2.7047	20.9441	1.35662	0	
2.7053	16.3673	1.66069	0	
2.7060	11.4874	-0.18712	0	
2.7067	9.03232	-2.01154	0	
2.7073	5.06173	1.05255	0	
2.7080	0.788054	3.18105	0	
2.7087	1.39425	0.725092	0	
2.7093	2.33385	1.66069	0	
2.7100	-5.60731	6.22175	0	
2.7107	-18.4284	7.7655	0	
2.7113	-26.9757	7.7655	0	
2.7120	-30.3401	9.58992	0	
2.7127	-31.8556	8.67771	0	
2.7133	-31.2494	4.7014	0	
2.7140	-27.5819	2.87698	0	
2.7147	-21.4896	3.78919	0	
2.7153	-16.3067	3.48512	0	
2.7160	-11.3965	1.35662	0	
2.7167	-7.45621	1.05255	0	
2.7173	-5.91041	2.26884	0	
2.7180	-3.78872	1.35662	0	
2.7187	2.03076	-0.18712	0	
2.7193	7.21373	-0.18712	0	
2.7200	12.3967	-0.795262	0	
2.7207	20.641	-2.92376	0	
2.7213	28.5821	-2.01154	0	
2.7220	31.6131	-0.18712	0	
2.7227	30.0976	-1.70747	0	
2.7233	26.4301	-3.22783	0	
2.7240	22.4596	-1.4034	0	
2.7247	20.9441	-1.09933	0	
2.7253	19.0952	-3.83597	0	
2.7260	11.7905	-1.4034	0	
2.7267	3.24315	2.87698	0	
2.7273	-0.121239	1.96476	0	
2.7280	-0.121239	0.725092	0	
2.7287	-2.24292	3.48512	0	
2.7293	-5.00111	6.22175	0	
2.7300	-7.45621	8.06957	0	
2.7307	-14.1547	9.58992	0	
2.7313	-24.2175	9.89399	0	
2.7320	-27.2788	8.98178	0	
2.7327	-23.0051	6.22175	0	
2.7333	-21.4896	2.57291	0	
2.7340	-21.4896	0.421021	0	
2.7347	-18.1253	1.35662	0	
2.7353	-17.8222	2.26884	0	
2.7360	-18.7314	1.66069	0	
2.7367	-13.8516	-1.09933	0	
2.7373	-8.3655	-4.44411	0	
2.7380	-5.60731	-4.44411	0	
2.7387	-0.727435	-2.01154	0	
2.7393	2.63695	-1.70747	0	
2.7400	6.60753	-2.61969	0	
2.7407	16.0642	-3.83597	0	
2.7413	21.2472	-6.596	0	
2.7420	20.0348	-9.33263	0	
2.7427	22.1565	-8.42042	0	
2.7433	24.3084	-6.29192	0	
2.7440	19.7317	-5.98785	0	
2.7447	15.458	-4.44411	0	
2.7453	12.6998	-0.795262	0	
2.7460	8.12302	-0.491191	0	
2.7467	6.30444	-3.22783	0	
2.7473	6.30444	-2.92376	0	
2.7480	3.54625	-1.70747	0	
2.7487	0.788054	-2.01154	0	
2.7493	-0.121239	-1.4034	0	
2.7500	-5.00111	1.05255	0	
2.7507	-14.7609	3.48512	0	
2.7513	-23.6113	4.7014	0	
2.7520	-28.4912	3.18105	0	
2.7527	-29.0974	1.66069	0	
2.7533	-24.5206	4.09326	0	
2.7540	-15.6702	4.39733	0	
2.7547	-8.9717	-0.491191	0	
2.7553	-5.60731	-2.01154	0	
2.7560	-1.93983	-1.09933	0	
2.7567	2.63695	-2.92376	0	
2.7573	3.54625	-3.5319	0	
2.7580	3.54625	0.11695	0	
2.7587	5.66793	0.725092	0	
2.7593	3.54625	-1.09933	0	
2.7600	-0.121239	-0.18712	0	
2.7607	2.33385	0.725092	0	
2.7613	9.03232	-0.18712	0	
2.7620	14.8215	-1.09933	0	
2.7627	20.0348	-2.92376	0	
2.7633	21.8534	-4.74818	0	
2.7640	19.0952	-5.35632	0	
2.7647	15.458	-8.42042	0	
2.7653	12.0936	-8.72449	0	
2.7660	8.42612	-3.83597	0	
2.7667	5.97103	-1.09933	0	
2.7673	5.36483	-2.01154	0	
2.7680	1.69735	1.35662	0	
2.7687	-4.69802	4.7014	0	
2.7693	-5.60731	2.87698	0	
2.7700	-5.91041	2.87698	0	
2.7707	-16.6098	6.22175	0	
2.7713	-28.4912	7.7655	0	
2.7720	-27.885	8.98178	0	
2.7727	-24.8237	8.98178	0	
2.7733	-26.3695	6.22175	0	
2.7740	-25.1571	3.78919	0	
2.7747	-21.1865	4.7014	0	
2.7753	-18.4284	3.78919	0	
2.7760	-14.1547	1.05255	0	
2.7767	-10.7903	-0.18712	0	
2.7773	-8.6686	-2.01154	0	
2.7780	-4.69802	-5.98785	0	
2.7787	-3.18253	-8.11635	0	
2.7793	-3.48563	-6.90007	0	
2.7800	3.24315	-6.29192	0	
2.7807	13.0029	-6.596	0	
2.7813	16.9735	-5.68378	0	
2.7820	19.0952	-3.22783	0	
2.7827	22.4596	-2.01154	0	
2.7833	20.9441	-3.5319	0	
2.7840	16.9735	-3.5319	0	
2.7847	16.9735	-1.09933	0	
2.7853	16.3673	-3.22783	0	
2.7860	9.63851	-6.596	0	
2.7867	2.63695	-5.68378	0	
2.7873	2.94005	-3.5319	0	
2.7880	4.45554	-3.83597	0	
2.7887	0.484957	-3.5319	0	
2.7893	-2.87943	-0.795262	0	
2.7900	-5.30421	0.725092	0	
2.7907	-12.9423	0.725092	0	
2.7913	-21.1865	1.96476	0	
2.7920	-24.8237	3.78919	0	
2.7927	-25.7633	5.30954	0	
2.7933	-24.8237	5.30954	0	
2.7940	-22.0958	3.48512	0	
2.7947	-16.6098	1.96476	0	
2.7953	-10.1841	2.57291	0	
2.7960	-6.5166	1.96476	0	
2.7967	-5.30421	-1.70747	0	
2.7973	-1.93983	-2.92376	0	
2.7980	2.63695	-0.491191	0	
2.7987	2.63695	-1.4034	0	
2.7993	0.484957	-3.83597	0	
2.8000	2.63695	-3.83597	0	
2.8007	11.7905	-3.83597	0	
2.8013	22.1565	-7.20414	0	
2.8020	27.6425	-8.42042	0	
2.8027	28.2487	-7.50821	0	
2.8033	25.5208	-5.68378	0	
2.8040	20.3379	-4.74818	0	
2.8047	16.3673	-4.74818	0	
2.8053	13.6091	-3.22783	0	
2.8060	11.4874	0.725092	0	
2.8067	10.2447	2.57291	0	
2.8073	6.60753	3.48512	0	
2.8080	2.03076	4.7014	0	
2.8087	2.03076	4.7014	0	
2.8093	1.69735	3.18105	0	
2.8100	-6.5166	3.18105	0	
2.8107	-15.064	4.39733	0	
2.8113	-18.4284	4.39733	0	
2.8120	-21.1865	4.7014	0	
2.8127	-23.9144	5.30954	0	
2.8133	-23.9144	5.30954	0	
2.8140	-21.4896	4.7014	0	
2.8147	-17.5191	2.26884	0	
2.8153	-13.2454	-1.4034	0	
2.8160	-10.4872	-2.01154	0	
2.8167	-8.0624	-0.18712	0	
2.8173	-5.91041	-1.70747	0	
2.8180	-4.69802	-6.596	0	
2.8187	-3.78872	-6.596	0	
2.8193	-0.727435	-2.31562	0	
2.8200	6.30444	-2.92376	0	
2.8207	14.5184	-6.596	0	
2.8213	20.0348	-7.20414	0	
2.8220	24.9146	-5.98785	0	
2.8227	26.7332	-5.35632	0	
2.8233	22.4596	-2.92376	0	
2.8240	18.489	-2.01154	0	
2.8247	16.6704	-3.5319	0	
2.8253	11.4874	-2.01154	0	
2.8260	5.97103	-0.18712	0	
2.8267	4.45554	-2.92376	0	
2.8273	2.63695	-3.83597	0	
2.8280	-0.121239	-1.4034	0	
2.8287	-1.93983	1.05255	0	
2.8293	-2.24292	4.09326	0	
2.8300	-4.39492	6.22175	0	
2.8307	-13.2454	5.91768	0	
2.8313	-24.8237	7.7655	0	
2.8320	-27.5819	9.89399	0	
2.8327	-25.1571	6.22175	0	
2.8333	-23.9144	0.725092	0	
2.8340	-21.1865	-0.795262	0	
2.8347	-17.5191	-1.4034	0	
2.8353	-15.064	-1.4034	0	
2.8360	-10.1841	-1.09933	0	
2.8367	-5.00111	-2.61969	0	
2.8373	-3.78872	-2.31562	0	
2.8380	-0.121239	-1.09933	0	
2.8387	5.06173	-2.92376	0	
2.8393	6.91063	-3.5319	0	
2.8400	10.8812	-1.09933	0	
2.8407	18.7921	-2.31562	0	
2.8413	22.7627	-4.74818	0	
2.8420	23.6719	-4.44411	0	
2.8427	25.5208	-5.68378	0	
2.8433	23.6719	-5.68378	0	
2.8440	19.0952	-2.31562	0	
2.8447	16.6704	-2.92376	0	
2.8453	15.458	-3.5319	0	
2.8460	15.458	1.05255	0	
2.8467	13.9122	2.57291	0	
2.8473	8.12302	1.05255	0	
2.8480	4.45554	1.35662	0	
2.8487	5.36483	0.421021	0	
2.8493	0.788054	-1.70747	0	
2.8500	-7.75931	0.421021	0	
2.8507	-14.4578	3.48512	0	
2.8513	-22.0958	3.78919	0	
2.8520	-26.3695	3.78919	0	
2.8527	-24.5206	5.30954	0	
2.8533	-23.6113	5.30954	0	
2.8540	-21.1865	4.09326	0	
2.8547	-14.4578	4.09326	0	
2.8553	-12.9423	4.39733	0	
2.8560	-12.9423	1.96476	0	
2.8567	-6.8197	-1.09933	0	
2.8573	-2.87943	-1.09933	0	
2.8580	-1.03053	0.421021	0	
2.8587	2.63695	0.725092	0	
2.8593	3.84934	0.725092	0	
2.8600	8.72922	-0.18712	0	
2.8607	19.0952	-2.01154	0	
2.8613	23.6719	-2.92376	0	
2.8620	24.6115	-4.44411	0	
2.8627	27.6425	-4.74818	0	
2.8633	27.3394	-3.83597	0	
2.8640	22.7627	-4.14004	0	
2.8647	20.0348	-4.14004	0	
2.8653	13.0029	-3.5319	0	
2.8660	2.63695	-2.92376	0	
2.8667	-3.18253	-1.09933	0	
2.8673	-6.8197	1.35662	0	
2.8680	-10.1841	0.725092	0	
2.8687	-9.27479	1.66069	0	
2.8693	-9.88099	5.61361	0	
2.8700	-15.6702	5.30954	0	
2.8707	-20.5803	3.48512	0	
2.8713	-23.9144	3.48512	0	
2.8720	-26.3695	1.05255	0	
2.8727	-25.4602	-1.4034	0	
2.8733	-23.6113	0.725092	0	
2.8740	-23.0051	2.57291	0	
2.8747	-19.3376	0.421021	0	
2.8753	-12.6392	-0.18712	0	
2.8760	-9.88099	0.725092	0	
2.8767	-7.1228	-0.18712	0	
2.8773	-1.03053	-2.01154	0	
2.8780	2.63695	-2.01154	0	
2.8787	3.54625	-1.09933	0	
2.8793	7.21373	-0.795262	0	
2.8800	13.306	-3.22783	0	
2.8807	20.0348	-6.596	0	
2.8813	26.7332	-6.90007	0	
2.8820	31.0069	-5.05225	0	
2.8827	30.0976	-4.14004	0	
2.8833	23.3688	-4.14004	0	
2.8840	17.2766	-2.31562	0	
2.8847	18.1859	-0.18712	0	
2.8853	18.1859	-2.01154	0	
2.8860	11.1843	-4.74818	0	
2.8867	6.30444	-4.74818	0	
2.8873	5.06173	-2.92376	0	
2.8880	0.181859	-0.18712	0	
2.8887	-3.78872	3.48512	0	
2.8893	-3.78872	4.7014	0	
2.8900	-7.75931	3.48512	0	
2.8907	-19.3376	4.09326	0	
2.8913	-33.068	5.30954	0	
2.8920	-39.4937	3.48512	0	
2.8927	-35.22	0.725092	0	
2.8933	-27.5819	-0.18712	0	
2.8940	-23.0051	0.725092	0	
2.8947	-16.6098	1.05255	0	
2.8953	-7.1228	-2.31562	0	
2.8960	-1.93983	-6.29192	0	
2.8967	-0.121239	-5.05225	0	
2.8973	3.54625	-3.22783	0	
2.8980	6.60753	-5.05225	0	
2.8987	5.97103	-5.68378	0	
2.8993	7.21373	-3.83597	0	
2.9000	12.3967	-4.44411	0	
2.9007	19.0952	-5.05225	0	
2.9013	25.5208	-4.74818	0	
2.9020	30.0976	-5.05225	0	
2.9027	30.0976	-4.44411	0	
2.9033	25.5208	-2.92376	0	
2.9040	19.7317	-2.01154	0	
2.9047	16.0642	-1.70747	0	
2.9053	14.2153	-1.09933	0	
2.9060	10.2447	-1.70747	0	
2.9067	5.97103	-2.31562	0	
2.9073	3.24315	-2.01154	0	
2.9080	1.39425	-0.18712	0	
2.9087	-1.03053	0.11695	0	
2.9093	-2.54602	-2.01154	0	
2.9100	-5.60731	-0.18712	0	
2.9107	-13.2454	5.61361	0	
2.9113	-23.0051	6.52583	0	
2.9120	-25.7633	4.39733	0	
2.9127	-23.3082	5.00547	0	
2.9133	-23.6113	6.52583	0	
2.9140	-22.702	6.52583	0	
2.9147	-16.6098	6.22175	0	
2.9153	-12.033	4.39733	0	
2.9160	-10.1841	1.35662	0	
2.9167	-6.5166	0.11695	0	
2.9173	-2.87943	-0.491191	0	
2.9180	-0.121239	-1.70747	0	
2.9187	2.33385	-2.31562	0	
2.9193	2.94005	-3.83597	0	
2.9200	6.60753	-4.74818	0	
2.9207	15.458	-6.596	0	
2.9213	22.7627	-10.5489	0	
2.9220	24.9146	-11.4611	0	
2.9227	23.6719	-7.50821	0	
2.9233	20.9441	-5.35632	0	
2.9240	17.2766	-5.35632	0	
2.9247	13.6091	-2.01154	0	
2.9253	11.1843	0.725092	0	
2.9260	9.63851	-1.09933	0	
2.9267	5.36483	-2.31562	0	
2.9273	-1.03053	0.725092	0	
2.9280	-3.78872	4.7014	0	
2.9287	-3.78872	4.09326	0	
2.9293	-5.00111	0.421021	0	
2.9300	-10.7903	1.05255	0	
2.9307	-19.3376	5.91768	0	
2.9313	-26.6726	8.06957	0	
2.9320	-31.5525	7.13397	0	
2.9327	-34.0076	5.61361	0	
2.9333	-28.4912	4.7014	0	
2.9340	-19.6407	5.00547	0	
2.9347	-16.3067	5.00547	0	
2.9353	-12.9423	2.57291	0	
2.9360	-5.60731	1.35662	0	
2.9367	-3.48563	3.18105	0	
2.9373	-3.48563	1.66069	0	
2.9380	0.788054	-3.22783	0	
2.9387	2.63695	-3.5319	0	
2.9393	4.15244	-0.18712	0	
2.9400	12.6998	-2.61969	0	
2.9407	22.1565	-9.6367	0	
2.9413	24.3084	-12.3967	0	
2.9420	24.3084	-9.33263	0	
2.9427	26.4301	-6.596	0	
2.9433	26.7332	-5.68378	0	
2.9440	24.3084	-5.68378	0	
2.9447	19.7317	-4.74818	0	
2.9453	14.5184	-3.83597	0	
2.9460	11.1843	-3.83597	0	
2.9467	9.94161	-4.74818	0	
2.9473	5.97103	-4.74818	0	
2.9480	0.788054	-3.5319	0	
2.9487	-1.03053	-2.92376	0	
2.9493	-1.93983	-2.01154	0	
2.9500	-7.75931	1.66069	0	
2.9507	-16.6098	6.22175	0	
2.9513	-23.9144	5.61361	0	
2.9520	-27.5819	4.09326	0	
2.9527	-25.7633	5.91768	0	
2.9533	-20.8834	6.8299	0	
2.9540	-17.5191	2.57291	0	
2.9547	-13.8516	-0.795262	0	
2.9553	-9.88099	-0.18712	0	
2.9560	-6.5166	-0.18712	0	
2.9567	-3.48563	-2.92376	0	
2.9573	-1.03053	-5.35632	0	
2.9580	0.788054	-3.83597	0	
2.9587	3.54625	-0.795262	0	
2.9593	4.45554	-2.92376	0	
2.9600	6.30444	-8.42042	0	
2.9607	13.6091	-11.1571	0	
2.9613	21.8534	-10.2448	0	
2.9620	22.7627	-9.94077	0	
