0.0007	-4.69888	1.22959	0	
0.0013	0.77882	-3.04725	0	
0.0020	7.1911	-3.34128	0	
0.0027	8.09973	-2.72649	0	
0.0033	9.03431	-4.57088	0	
0.0040	18.484	-5.15894	0	
0.0047	27.6481	-3.95608	0	
0.0053	27.3366	-5.4797	0	
0.0060	24.5847	-7.61813	0	
0.0067	23.9877	-5.15894	0	
0.0073	21.8329	-1.20286	0	
0.0080	17.8869	-2.11169	0	
0.0087	13.6034	-4.86491	0	
0.0093	7.1911	-3.95608	0	
0.0100	5.97095	-0.294033	0	
0.0107	7.81416	0.0267303	0	
0.0113	2.93355	-0.294033	0	
0.0120	-3.79026	-0.588066	0	
0.0127	-3.79026	-1.49689	0	
0.0133	-6.54209	-0.294033	0	
0.0140	-16.3033	3.36801	0	
0.0147	-22.0925	4.27684	0	
0.0153	-22.4041	3.36801	0	
0.0160	-23.0271	2.45918	0	
0.0167	-23.0271	0.935559	0	
0.0173	-21.807	2.16515	0	
0.0180	-19.3667	5.50643	0	
0.0187	-14.7716	5.2124	0	
0.0193	-11.4227	1.55036	0	
0.0200	-11.7342	0.614796	0	
0.0207	-10.2025	0.614796	0	
0.0213	-8.35933	0.614796	0	
0.0220	-7.45071	0.935559	0	
0.0227	-3.79026	0.0267303	0	
0.0233	1.7134	-1.81766	0	
0.0240	8.09973	-2.43245	0	
0.0247	18.1725	-3.34128	0	
0.0253	25.2078	-3.95608	0	
0.0260	24.5847	-2.72649	0	
0.0267	20.0157	-2.11169	0	
0.0273	18.1725	-2.43245	0	
0.0280	16.3552	0.0267303	0	
0.0287	11.7861	2.45918	0	
0.0293	5.97095	0.614796	0	
0.0300	3.53065	-0.588066	0	
0.0307	2.62203	0.320763	0	
0.0313	0.77882	-0.294033	0	
0.0320	-1.03843	0.614796	0	
0.0327	-3.79026	4.27684	0	
0.0333	-10.7996	5.2124	0	
0.0340	-19.9638	3.36801	0	
0.0347	-25.753	3.68878	0	
0.0353	-27.5962	3.68878	0	
0.0360	-30.348	0.614796	0	
0.0367	-31.2566	-1.81766	0	
0.0373	-25.753	-1.81766	0	
0.0380	-18.4321	-2.43245	0	
0.0387	-13.2399	-4.57088	0	
0.0393	-9.29392	-7.29736	0	
0.0400	-7.13918	-7.29736	0	
0.0407	-5.01041	-3.95608	0	
0.0413	-1.94705	-2.11169	0	
0.0420	-0.726899	-3.95608	0	
0.0427	1.09035	-5.77374	0	
0.0433	9.03431	-6.7093	0	
0.0440	18.484	-5.15894	0	
0.0447	23.3646	-3.34128	0	
0.0453	25.5193	-2.72649	0	
0.0460	25.5193	-2.11169	0	
0.0467	23.6761	-1.20286	0	
0.0473	21.8329	-1.20286	0	
0.0480	17.2638	0.320763	0	
0.0487	10.8516	3.07398	0	
0.0493	7.1911	2.45918	0	
0.0500	3.84218	0.320763	0	
0.0507	-0.726899	1.55036	0	
0.0513	-2.88163	3.07398	0	
0.0520	-3.1672	3.36801	0	
0.0527	-7.45071	5.2124	0	
0.0533	-12.0198	6.12123	0	
0.0540	-17.2119	4.27684	0	
0.0547	-23.9357	3.07398	0	
0.0553	-29.1279	2.75322	0	
0.0560	-30.348	2.45918	0	
0.0567	-27.9077	0.935559	0	
0.0573	-21.1839	-2.11169	0	
0.0580	-13.863	-3.63532	0	
0.0587	-10.2025	-1.20286	0	
0.0593	-7.76224	0.0267303	0	
0.0600	-3.1672	-2.72649	0	
0.0607	-0.441331	-4.25011	0	
0.0613	2.3105	-3.04725	0	
0.0620	5.37386	-1.20286	0	
0.0627	5.06233	-1.81766	0	
0.0633	6.87958	-3.04725	0	
0.0640	15.1351	-2.11169	0	
0.0647	21.5474	-1.81766	0	
0.0653	24.5847	-3.04725	0	
0.0660	28.2452	-2.43245	0	
0.0667	26.428	-2.11169	0	
0.0673	18.7955	0.0267303	0	
0.0680	15.1351	3.68878	0	
0.0687	13.9149	2.75322	0	
0.0693	10.54	-1.20286	0	
0.0700	9.03431	0.320763	0	
0.0707	7.1911	4.27684	0	
0.0713	-0.129803	4.59761	0	
0.0720	-5.91903	3.68878	0	
0.0727	-7.45071	1.55036	0	
0.0733	-14.7716	-1.49689	0	
0.0740	-25.753	0.935559	0	
0.0747	-30.348	7.03006	0	
0.0753	-30.348	6.12123	0	
0.0760	-30.0365	1.55036	0	
0.0767	-26.6876	-0.294033	0	
0.0773	-19.6522	-1.20286	0	
0.0780	-12.0198	-2.72649	0	
0.0787	-4.41331	-3.04725	0	
0.0793	0.77882	-1.81766	0	
0.0800	2.62203	-1.81766	0	
0.0807	5.37386	-4.25011	0	
0.0813	9.03431	-5.77374	0	
0.0820	9.03431	-3.95608	0	
0.0827	9.31988	-2.72649	0	
0.0833	16.0437	-5.15894	0	
0.0840	25.2078	-6.7093	0	
0.0847	31.3086	-5.15894	0	
0.0853	34.969	-5.4797	0	
0.0860	35.2805	-8.23292	0	
0.0867	29.7769	-7.91216	0	
0.0873	22.1444	-4.25011	0	
0.0880	16.0437	-2.43245	0	
0.0887	10.8516	-1.49689	0	
0.0893	6.59401	1.22959	0	
0.0900	4.15371	3.36801	0	
0.0907	1.7134	1.55036	0	
0.0913	-1.94705	-1.81766	0	
0.0920	-4.41331	-0.908829	0	
0.0927	-6.54209	2.16515	0	
0.0933	-12.6428	4.27684	0	
0.0940	-20.8724	6.41526	0	
0.0947	-24.5328	8.25965	0	
0.0953	-24.2473	7.35082	0	
0.0960	-25.753	5.2124	0	
0.0967	-25.753	3.68878	0	
0.0973	-19.6522	0.935559	0	
0.0980	-12.9544	-0.294033	0	
0.0987	-12.0198	1.55036	0	
0.0993	-10.2025	2.16515	0	
0.1000	-4.10178	-1.20286	0	
0.1007	-1.03843	-3.34128	0	
0.1013	-3.1672	-1.20286	0	
0.1020	-2.57011	1.55036	0	
0.1027	1.40188	1.55036	0	
0.1033	5.65942	0.614796	0	
0.1040	13.6034	0.935559	0	
0.1047	21.5474	1.84439	0	
0.1053	21.8329	-0.588066	0	
0.1060	18.1725	-3.34128	0	
0.1067	17.2638	-2.72649	0	
0.1073	16.6667	-3.04725	0	
0.1080	13.0063	-4.86491	0	
0.1087	8.72278	-3.95608	0	
0.1093	6.59401	-3.04725	0	
0.1100	5.37386	-5.77374	0	
0.1107	2.62203	-7.00333	0	
0.1113	0.181725	-6.38853	0	
0.1120	-0.129803	-5.4797	0	
0.1127	-2.88163	-3.04725	0	
0.1133	-9.57948	-1.20286	0	
0.1140	-17.835	-1.49689	0	
0.1147	-25.1559	0.0267303	0	
0.1153	-28.5048	0.935559	0	
0.1160	-26.376	-1.81766	0	
0.1167	-23.0271	-2.43245	0	
0.1173	-19.9638	-1.81766	0	
0.1180	-15.3947	-3.04725	0	
0.1187	-9.89101	-3.34128	0	
0.1193	-7.76224	-1.81766	0	
0.1200	-7.76224	-2.43245	0	
0.1207	-5.01041	-2.11169	0	
0.1213	-1.34995	0.935559	0	
0.1220	-1.03843	1.55036	0	
0.1227	1.7134	0.320763	0	
0.1233	10.8516	0.0267303	0	
0.1240	18.1725	-1.20286	0	
0.1247	22.1444	-4.25011	0	
0.1253	27.3366	-5.15894	0	
0.1260	28.5567	-2.72649	0	
0.1267	23.6761	-0.294033	0	
0.1273	18.484	0.935559	0	
0.1280	14.512	1.55036	0	
0.1287	9.94293	2.45918	0	
0.1293	5.65942	3.07398	0	
0.1300	1.40188	2.45918	0	
0.1307	-3.79026	3.68878	0	
0.1313	-5.01041	4.27684	0	
0.1320	-3.79026	2.75322	0	
0.1327	-5.91903	1.84439	0	
0.1333	-15.3947	1.55036	0	
0.1340	-26.9731	-0.294033	0	
0.1347	-27.9077	0.935559	0	
0.1353	-17.5234	6.12123	0	
0.1360	-8.98239	7.35082	0	
0.1367	-6.54209	4.89164	0	
0.1373	-6.85362	3.36801	0	
0.1380	-9.57948	1.22959	0	
0.1387	-10.2025	-3.04725	0	
0.1393	-5.63346	-4.86491	0	
0.1400	-1.03843	-3.95608	0	
0.1407	0.77882	-4.25011	0	
0.1413	3.53065	-6.38853	0	
0.1420	5.65942	-8.52695	0	
0.1427	5.06233	-7.61813	0	
0.1433	8.09973	-3.95608	0	
0.1440	16.6667	-1.49689	0	
0.1447	23.0531	-2.11169	0	
0.1453	22.456	-3.95608	0	
0.1460	20.3272	-5.15894	0	
0.1467	20.9243	-4.25011	0	
0.1473	20.9243	-3.04725	0	
0.1480	16.9523	-5.4797	0	
0.1487	14.2264	-7.29736	0	
0.1493	15.4466	-3.95608	0	
0.1500	14.512	-2.11169	0	
0.1507	5.37386	-4.57088	0	
0.1513	-5.63346	-5.4797	0	
0.1520	-8.35933	-2.72649	0	
0.1527	-6.23056	-0.588066	0	
0.1533	-10.2025	0.320763	0	
0.1540	-19.9638	3.07398	0	
0.1547	-27.9077	4.89164	0	
0.1553	-30.6336	2.45918	0	
0.1560	-31.2566	-1.20286	0	
0.1567	-32.1653	-0.908829	0	
0.1573	-31.8537	0.320763	0	
0.1580	-30.348	-2.11169	0	
0.1587	-26.6876	-3.63532	0	
0.1593	-18.4321	-0.588066	0	
0.1600	-9.29392	1.55036	0	
0.1607	-5.63346	1.55036	0	
0.1613	-4.69888	0.0267303	0	
0.1620	0.181725	-1.81766	0	
0.1627	6.59401	-0.588066	0	
0.1633	13.2919	1.22959	0	
0.1640	22.456	-0.588066	0	
0.1647	31.9057	-0.294033	0	
0.1653	38.3179	1.84439	0	
0.1660	39.8496	-1.20286	0	
0.1667	38.3179	-2.11169	0	
0.1673	33.4373	2.75322	0	
0.1680	25.8049	2.45918	0	
0.1687	18.1725	-1.81766	0	
0.1693	14.2264	-1.20286	0	
0.1700	13.6034	0.0267303	0	
0.1707	10.8516	-0.294033	0	
0.1713	6.59401	0.614796	0	
0.1720	3.21912	1.84439	0	
0.1727	-1.34995	1.55036	0	
0.1733	-8.35933	1.55036	0	
0.1740	-15.0831	2.45918	0	
0.1747	-21.4954	3.36801	0	
0.1753	-23.9357	1.84439	0	
0.1760	-21.1839	-0.294033	0	
0.1767	-19.3667	-1.20286	0	
0.1773	-18.4321	-0.294033	0	
0.1780	-17.2119	0.320763	0	
0.1787	-18.7436	-0.908829	0	
0.1793	-23.0271	-1.20286	0	
0.1800	-27.5962	0.320763	0	
0.1807	-32.7883	-1.20286	0	
0.1813	-33.3854	-4.86491	0	
0.1820	-26.9731	-3.95608	0	
0.1827	-23.3127	0.0267303	0	
0.1833	-19.3667	-2.43245	0	
0.1840	-7.13918	-4.86491	0	
0.1847	1.7134	-3.34128	0	
0.1853	3.53065	-3.95608	0	
0.1860	11.1631	-7.61813	0	
0.1867	17.5754	-10.0506	0	
0.1873	17.8869	-12.189	0	
0.1880	31.3086	-12.8038	0	
0.1887	57.2433	-8.52695	0	
0.1893	63.9671	-2.11169	0	
0.1900	48.7022	2.75322	0	
0.1907	34.346	5.50643	0	
0.1913	25.2078	6.12123	0	
0.1920	13.9149	3.68878	0	
0.1927	2.62203	1.55036	0	
0.1933	-8.35933	3.36801	0	
0.1940	-20.2753	5.8272	0	
0.1947	-28.5048	5.50643	0	
0.1953	-32.7883	5.2124	0	
0.1960	-37.6689	6.41526	0	
0.1967	-39.4862	5.2124	0	
0.1973	-35.5401	2.45918	0	
0.1980	-32.1653	3.07398	0	
0.1987	-29.4134	4.27684	0	
0.1993	-23.0271	1.84439	0	
0.2000	-16.6148	-0.588066	0	
0.2007	-9.57948	-0.294033	0	
0.2013	0.77882	-0.294033	0	
0.2020	9.94293	-1.20286	0	
0.2027	12.3832	-0.908829	0	
0.2033	11.4746	0.935559	0	
0.2040	12.6948	2.16515	0	
0.2047	15.4466	0.935559	0	
0.2053	17.5754	-2.43245	0	
0.2060	21.8329	-6.0945	0	
0.2067	33.1258	-6.7093	0	
0.2073	47.4821	-3.04725	0	
0.2080	49.2993	0.320763	0	
0.2087	34.346	-0.294033	0	
0.2093	17.2638	-0.908829	0	
0.2100	10.2545	0.614796	0	
0.2107	7.81416	2.16515	0	
0.2113	2.62203	3.36801	0	
0.2120	-0.441331	3.36801	0	
0.2127	-0.129803	3.07398	0	
0.2133	-4.69888	4.27684	0	
0.2140	-14.7716	4.89164	0	
0.2147	-21.807	3.36801	0	
0.2153	-22.7156	5.8272	0	
0.2160	-20.2753	11.9217	0	
0.2167	-18.4321	10.6921	0	
0.2173	-17.2119	5.2124	0	
0.2180	-14.1745	4.59761	0	
0.2187	-6.85362	6.41526	0	
0.2193	2.3105	3.36801	0	
0.2200	4.43927	-1.20286	0	
0.2207	-1.94705	-3.95608	0	
0.2213	-6.54209	-3.95608	0	
0.2220	-3.47873	-1.20286	0	
0.2227	-0.129803	-1.20286	0	
0.2233	2.62203	-2.11169	0	
0.2240	10.54	-3.04725	0	
0.2247	19.7041	-5.4797	0	
0.2253	23.9877	-5.4797	0	
0.2260	25.8049	-0.908829	0	
0.2267	26.1164	1.22959	0	
0.2273	21.2358	0.935559	0	
0.2280	13.6034	1.55036	0	
0.2287	6.28248	-0.294033	0	
0.2293	1.99897	-1.20286	0	
0.2300	0.77882	0.935559	0	
0.2307	-0.441331	-1.81766	0	
0.2313	-2.88163	-4.86491	0	
0.2320	-3.1672	-1.81766	0	
0.2327	-4.69888	-0.294033	0	
0.2333	-12.6428	-2.11169	0	
0.2340	-23.0271	0.320763	0	
0.2347	-31.2566	0.614796	0	
0.2353	-37.3574	-2.43245	0	
0.2360	-39.2006	-3.34128	0	
0.2367	-34.6056	-4.57088	0	
0.2373	-26.9731	-5.15894	0	
0.2380	-17.2119	0.320763	0	
0.2387	-8.98239	3.07398	0	
0.2393	-7.45071	-0.294033	0	
0.2400	-7.13918	-0.588066	0	
0.2407	-1.34995	0.614796	0	
0.2413	3.21912	-0.294033	0	
0.2420	2.93355	2.45918	0	
0.2427	2.62203	4.27684	0	
0.2433	2.93355	1.84439	0	
0.2440	5.37386	-0.588066	0	
0.2447	9.94293	-3.95608	0	
0.2453	14.512	-6.0945	0	
0.2460	18.1725	-2.11169	0	
0.2467	19.3926	-0.294033	0	
0.2473	14.512	-3.34128	0	
0.2480	7.81416	-1.81766	0	
0.2487	4.43927	1.55036	0	
0.2493	1.7134	-3.34128	0	
0.2500	-1.94705	-7.61813	0	
0.2507	-5.63346	-4.57088	0	
0.2513	-12.9544	0.0267303	0	
0.2520	-22.4041	0.935559	0	
0.2527	-26.6876	-0.294033	0	
0.2533	-27.2847	1.22959	0	
0.2540	-31.2566	4.59761	0	
0.2547	-30.9451	5.2124	0	
0.2553	-12.9544	2.45918	0	
0.2560	10.8516	1.84439	0	
0.2567	18.1725	3.07398	0	
0.2573	15.4466	2.16515	0	
0.2580	16.3552	1.22959	0	
0.2587	15.1351	2.16515	0	
0.2593	6.28248	0.935559	0	
0.2600	-1.94705	0.320763	0	
0.2607	-5.32194	3.36801	0	
0.2613	-6.23056	4.89164	0	
0.2620	-11.4227	2.45918	0	
0.2627	-19.6522	2.16515	0	
0.2633	-19.3667	1.55036	0	
0.2640	-8.98239	-1.81766	0	
0.2647	-1.34995	-3.04725	0	
0.2653	-0.441331	-3.04725	0	
0.2660	-3.79026	-5.15894	0	
0.2667	-6.54209	-3.95608	0	
0.2673	0.77882	0.0267303	0	
0.2680	16.3552	-0.588066	0	
0.2687	27.3366	-3.63532	0	
0.2693	30.0884	-3.04725	0	
0.2700	33.7489	-1.81766	0	
0.2707	36.5007	-0.294033	0	
0.2713	30.0884	3.07398	0	
0.2720	14.2264	3.68878	0	
0.2727	-3.79026	1.55036	0	
0.2733	-22.0925	-0.908829	0	
0.2740	-37.6689	-5.77374	0	
0.2747	-40.1092	-9.75655	0	
0.2753	-26.376	-4.86491	0	
0.2760	-9.57948	1.55036	0	
0.2767	-4.41331	2.45918	0	
0.2773	-9.89101	0.935559	0	
0.2780	-14.4601	0.614796	0	
0.2787	-10.2025	-1.20286	0	
0.2793	-4.41331	0.0267303	0	
0.2800	-5.91903	4.27684	0	
0.2807	-9.89101	4.27684	0	
0.2813	-9.89101	-0.294033	0	
0.2820	-8.35933	0.320763	0	
0.2827	-1.94705	2.16515	0	
0.2833	19.107	-3.95608	0	
0.2840	52.0511	-10.0506	0	
0.2847	74.3254	-7.61813	0	
0.2853	69.4448	-3.63532	0	
0.2860	52.9598	-2.11169	0	
0.2867	43.8216	-0.294033	0	
0.2873	36.7863	1.84439	0	
0.2880	27.6481	2.45918	0	
0.2887	21.8329	3.98281	0	
0.2893	15.7322	6.41526	0	
0.2900	5.37386	6.12123	0	
0.2907	-0.726899	4.27684	0	
0.2913	-1.94705	4.27684	0	
0.2920	-0.441331	5.50643	0	
0.2927	3.53065	8.55368	0	
0.2933	2.62203	11.0129	0	
0.2940	-8.67086	7.93889	0	
0.2947	-23.3127	2.45918	0	
0.2953	-33.6969	2.75322	0	
0.2960	-35.8257	5.50643	0	
0.2967	-27.5962	3.98281	0	
0.2973	-18.7436	0.320763	0	
0.2980	-22.0925	-2.43245	0	
0.2987	-27.9077	-4.57088	0	
0.2993	-25.753	-5.77374	0	
0.3000	-23.9357	-4.25011	0	
0.3007	-23.0271	-1.20286	0	
0.3013	-15.3947	0.614796	0	
0.3020	-7.45071	-0.588066	0	
0.3027	-8.07377	-3.95608	0	
0.3033	-5.63346	-4.86491	0	
0.3040	6.59401	-6.7093	0	
0.3047	16.6667	-10.6654	0	
0.3053	18.1725	-8.52695	0	
0.3060	21.8329	3.07398	0	
0.3067	28.2452	13.4453	0	
0.3073	27.9596	11.6009	0	
0.3080	23.0531	1.22959	0	
0.3087	19.3926	-8.52695	0	
0.3093	13.6034	-12.8038	0	
0.3100	5.65942	-12.189	0	
0.3107	0.493253	-11.2802	0	
0.3113	-6.85362	-7.91216	0	
0.3120	-15.6802	-3.63532	0	
0.3127	-21.4954	-1.81766	0	
0.3133	-31.5682	-2.11169	0	
0.3140	-48.6503	-2.11169	0	
0.3147	-57.1913	-3.04725	0	
0.3153	-55.0626	-0.588066	0	
0.3160	-57.8144	4.27684	0	
0.3167	-63.9152	2.75322	0	
0.3173	-62.3835	-0.588066	0	
0.3180	-58.4115	1.84439	0	
0.3187	-52.9338	3.98281	0	
0.3193	-36.4488	1.55036	0	
0.3200	-12.0198	1.22959	0	
0.3207	12.6948	0.935559	0	
0.3213	37.7208	-0.588066	0	
0.3220	55.426	0.0267303	0	
0.3227	49.9224	-2.72649	0	
0.3233	32.8402	-8.82099	0	
0.3240	32.5287	-9.14175	0	
0.3247	50.2339	-4.86491	0	
0.3253	60.3066	-3.04725	0	
0.3260	55.7116	-0.294033	0	
0.3267	45.0418	2.45918	0	
0.3273	33.1258	1.55036	0	
0.3280	26.1164	1.84439	0	
0.3287	27.3366	4.89164	0	
0.3293	27.3366	4.89164	0	
0.3300	19.7041	4.59761	0	
0.3307	13.9149	8.25965	0	
0.3313	12.6948	9.78328	0	
0.3320	10.8516	7.03006	0	
0.3327	7.1911	8.25965	0	
0.3333	1.7134	11.6009	0	
0.3340	-6.85362	3.98281	0	
0.3347	-13.863	-8.52695	0	
0.3353	-16.9004	-10.3713	0	
0.3360	-15.3947	-4.86491	0	
0.3367	-12.0198	-2.43245	0	
0.3373	-11.1112	0.614796	0	
0.3380	-12.0198	1.55036	0	
0.3387	-12.6428	-2.43245	0	
0.3393	-16.3033	-3.04725	0	
0.3400	-17.5234	-2.11169	0	
0.3407	-11.4227	-3.34128	0	
0.3413	-4.69888	-2.11169	0	
0.3420	-3.47873	-1.20286	0	
0.3427	-2.25858	-3.95608	0	
0.3433	3.53065	-3.95608	0	
0.3440	13.6034	-3.95608	0	
0.3447	22.1444	-7.00333	0	
0.3453	26.1164	-2.43245	0	
0.3460	27.0251	6.41526	0	
0.3467	25.5193	7.03006	0	
0.3473	19.7041	3.36801	0	
0.3480	16.9523	3.07398	0	
0.3487	21.5474	2.75322	0	
0.3493	20.6128	3.36801	0	
0.3500	10.8516	5.2124	0	
0.3507	3.21912	4.59761	0	
0.3513	-0.129803	1.84439	0	
0.3520	-6.23056	-0.294033	0	
0.3527	-15.6802	-2.11169	0	
0.3533	-26.376	-2.11169	0	
0.3540	-37.0459	0.614796	0	
0.3547	-43.1466	3.36801	0	
0.3553	-44.9898	3.68878	0	
0.3560	-47.1186	3.07398	0	
0.3567	-47.1186	1.84439	0	
0.3573	-41.0178	0.0267303	0	
0.3580	-27.2847	-1.20286	0	
0.3587	-2.88163	-1.20286	0	
0.3593	28.2452	-3.34128	0	
0.3600	45.6388	-5.77374	0	
0.3607	35.5661	-5.77374	0	
0.3613	12.6948	-3.95608	0	
0.3620	1.09035	-3.04725	0	
0.3627	-0.129803	-3.34128	0	
0.3633	-1.34995	-1.81766	0	
0.3640	-1.94705	0.0267303	0	
0.3647	2.93355	-1.81766	0	
0.3653	8.09973	-6.38853	0	
0.3660	7.1911	-9.75655	0	
0.3667	3.84218	-9.75655	0	
0.3673	3.53065	-7.61813	0	
0.3680	7.1911	-6.38853	0	
0.3687	11.1631	-5.77374	0	
0.3693	10.8516	-0.294033	0	
0.3700	9.03431	8.55368	0	
0.3707	9.03431	8.87445	0	
0.3713	3.21912	-0.294033	0	
0.3720	-8.67086	-7.00333	0	
0.3727	-13.863	-5.15894	0	
0.3733	-15.6802	0.614796	0	
0.3740	-26.376	1.84439	0	
0.3747	-34.9171	-1.20286	0	
0.3753	-35.8257	-1.81766	0	
0.3760	-38.266	-0.294033	0	
0.3767	-37.0459	-1.20286	0	
0.3773	-26.6876	-2.43245	0	
0.3780	-18.1465	-1.49689	0	
0.3787	-12.9544	-1.81766	0	
0.3793	-1.94705	-2.11169	0	
0.3800	6.28248	-0.294033	0	
0.3807	0.77882	1.55036	0	
0.3813	-8.98239	0.320763	0	
0.3820	-8.35933	-0.588066	0	
0.3827	1.99897	-0.294033	0	
0.3833	14.512	-1.49689	0	
0.3840	25.8049	-3.63532	0	
0.3847	35.5661	-4.25011	0	
0.3853	41.3813	-3.63532	0	
0.3860	45.6388	0.614796	0	
0.3867	53.8943	4.89164	0	
0.3873	63.344	4.27684	0	
0.3880	66.6929	3.36801	0	
0.3887	59.9951	6.12123	0	
0.3893	41.6928	5.8272	0	
0.3900	16.3552	-1.20286	0	
0.3907	-4.69888	-5.77374	0	
0.3913	-17.5234	-3.95608	0	
0.3920	-21.807	-1.81766	0	
0.3927	-19.3667	0.0267303	0	
0.3933	-23.9357	3.36801	0	
0.3940	-37.6689	7.03006	0	
0.3947	-44.3668	7.93889	0	
0.3953	-42.5495	8.87445	0	
0.3960	-40.4208	10.6921	0	
0.3967	-35.8257	7.93889	0	
0.3973	-28.1933	1.55036	0	
0.3980	-26.6876	1.84439	0	
0.3987	-31.2566	8.87445	0	
0.3993	-33.6969	9.48924	0	
0.4000	-30.0365	2.75322	0	
0.4007	-18.7436	2.75322	0	
0.4013	2.3105	6.12123	0	
0.4020	29.7769	3.36801	0	
0.4027	46.859	4.89164	0	
0.4033	40.1611	12.8305	0	
0.4040	24.8963	14.6749	0	
0.4047	22.7675	14.3542	0	
0.4053	29.4654	22.5871	0	
0.4060	30.0884	26.5699	0	
0.4067	19.7041	17.1074	0	
0.4073	7.1911	7.93889	0	
0.4080	5.97095	3.68878	0	
0.4087	13.2919	-7.00333	0	
0.4093	14.512	-25.0195	0	
0.4100	8.41125	-36.2997	0	
0.4107	3.53065	-33.2524	0	
0.4113	0.77882	-17.9895	0	
0.4120	-1.03843	-3.04725	0	
0.4127	-1.66148	2.16515	0	
0.4133	-7.45071	-1.20286	0	
0.4140	-19.3667	-4.86491	0	
0.4147	-30.0365	-5.77374	0	
0.4153	-33.3854	-3.95608	0	
0.4160	-30.6336	2.16515	0	
0.4167	-25.753	8.55368	0	
0.4173	-22.0925	9.78328	0	
0.4180	-19.6522	10.0773	0	
0.4187	-16.6148	15.263	0	
0.4193	-13.2399	22.5871	0	
0.4200	-10.2025	23.2019	0	
0.4207	-7.76224	16.1985	0	
0.4213	-7.45071	2.45918	0	
0.4220	-8.35933	-15.851	0	
0.4227	-7.76224	-29.5904	0	
0.4233	-3.1672	-29.5904	0	
0.4240	4.15371	-25.3136	0	
0.4247	12.6948	-24.4047	0	
0.4253	19.7041	-20.1279	0	
0.4260	22.1444	-13.0978	0	
0.4267	20.9243	-9.75655	0	
0.4273	19.3926	-7.91216	0	
0.4280	17.2638	-8.23292	0	
0.4287	13.6034	-10.3713	0	
0.4293	9.94293	-7.61813	0	
0.4300	9.03431	-3.63532	0	
0.4307	8.72278	-1.20286	0	
0.4313	5.65942	7.93889	0	
0.4320	1.7134	17.1074	0	
0.4327	-1.03843	15.8778	0	
0.4333	-3.79026	15.263	0	
0.4340	-9.89101	18.925	0	
0.4347	-15.6802	16.1985	0	
0.4353	-19.6522	15.8778	0	
0.4360	-23.9357	18.631	0	
0.4367	-26.376	4.27684	0	
0.4373	-23.3127	-18.6043	0	
0.4380	-19.0551	-24.084	0	
0.4387	-15.6802	-17.6954	0	
0.4393	-10.7996	-13.0978	0	
0.4400	-4.41331	-10.6654	0	
0.4407	-2.25858	-9.43578	0	
0.4413	-5.01041	-8.23292	0	
0.4420	-5.63346	-7.29736	0	
0.4427	1.09035	-10.3713	0	
0.4433	9.94293	-12.189	0	
0.4440	16.3552	-8.52695	0	
0.4447	21.8329	-9.43578	0	
0.4453	25.8049	-11.5742	0	
0.4460	26.1164	-7.00333	0	
0.4467	23.6761	-4.86491	0	
0.4473	21.8329	-7.61813	0	
0.4480	19.107	-5.77374	0	
0.4487	13.9149	-1.81766	0	
0.4493	9.94293	-2.11169	0	
0.4500	8.09973	-1.49689	0	
0.4507	5.06233	0.935559	0	
0.4513	0.77882	1.55036	0	
0.4520	-1.94705	2.16515	0	
0.4527	-2.25858	2.45918	0	
0.4533	-6.23056	0.320763	0	
0.4540	-14.7716	0.320763	0	
0.4547	-22.4041	3.36801	0	
0.4553	-23.3127	3.68878	0	
0.4560	-21.807	1.22959	0	
0.4567	-22.7156	-1.20286	0	
0.4573	-23.9357	-3.34128	0	
0.4580	-21.4954	-3.04725	0	
0.4587	-15.6802	-0.294033	0	
0.4593	-10.2025	0.935559	0	
0.4600	-6.23056	-0.908829	0	
0.4607	-3.79026	-0.588066	0	
0.4613	-2.88163	0.614796	0	
0.4620	-2.88163	0.320763	0	
0.4627	-1.03843	0.320763	0	
0.4633	3.21912	-0.588066	0	
0.4640	8.41125	-3.04725	0	
0.4647	13.0063	-3.04725	0	
0.4653	16.0437	-1.20286	0	
0.4660	17.5754	-2.43245	0	
0.4667	18.1725	-0.294033	0	
0.4673	18.7955	4.89164	0	
0.4680	16.3552	4.27684	0	
0.4687	11.7861	0.614796	0	
0.4693	8.41125	-0.294033	0	
0.4700	8.09973	0.320763	0	
0.4707	8.09973	1.55036	0	
0.4713	6.28248	3.36801	0	
0.4720	6.28248	1.55036	0	
0.4727	4.7508	2.75322	0	
0.4733	-1.03843	7.93889	0	
0.4740	-8.98239	8.55368	0	
0.4747	-15.6802	4.89164	0	
0.4753	-21.1839	5.2124	0	
0.4760	-21.4954	5.2124	0	
0.4767	-17.5234	2.75322	0	
0.4773	-16.3033	2.45918	0	
0.4780	-18.4321	4.27684	0	
0.4787	-19.3667	4.27684	0	
0.4793	-16.6148	3.36801	0	
0.4800	-13.2399	2.45918	0	
0.4807	-12.0198	1.55036	0	
0.4813	-12.0198	-0.908829	0	
0.4820	-11.7342	-3.04725	0	
0.4827	-11.7342	-3.04725	0	
0.4833	-8.35933	-2.11169	0	
0.4840	0.181725	-3.04725	0	
0.4847	7.1911	-3.63532	0	
0.4853	11.4746	-3.34128	0	
0.4860	19.107	-3.63532	0	
0.4867	27.3366	-1.20286	0	
0.4873	30.3999	2.75322	0	
0.4880	27.3366	2.75322	0	
0.4887	21.5474	1.55036	0	
0.4893	15.7322	3.36801	0	
0.4900	12.6948	4.59761	0	
0.4907	8.09973	2.45918	0	
0.4913	2.93355	1.22959	0	
0.4920	5.65942	1.55036	0	
0.4927	16.0437	3.07398	0	
0.4933	23.6761	4.59761	0	
0.4940	21.2358	3.36801	0	
0.4947	8.09973	1.55036	0	
0.4953	-5.32194	2.45918	0	
0.4960	-10.7996	3.68878	0	
0.4967	-12.0198	1.84439	0	
0.4973	-14.4601	-0.294033	0	
0.4980	-14.7716	-1.20286	0	
0.4987	-12.9544	-2.11169	0	
0.4993	-12.0198	-2.43245	0	
0.5000	-9.57948	-1.20286	0	
0.5007	-4.69888	-0.588066	0	
0.5013	0.77882	-1.49689	0	
0.5020	5.06233	-2.11169	0	
0.5027	6.59401	-1.49689	0	
0.5033	9.94293	-0.908829	0	
0.5040	18.1725	-3.04725	0	
0.5047	24.8963	-5.77374	0	
0.5053	25.2078	-7.00333	0	
0.5060	23.3646	-4.57088	0	
0.5067	19.107	-0.294033	0	
0.5073	12.6948	0.614796	0	
0.5080	9.03431	-0.294033	0	
0.5087	6.28248	1.55036	0	
0.5093	3.53065	4.27684	0	
0.5100	2.62203	2.45918	0	
0.5107	-0.129803	0.614796	0	
0.5113	-2.88163	0.935559	0	
0.5120	-1.03843	0.614796	0	
0.5127	0.181725	0.935559	0	
0.5133	-5.63346	3.68878	0	
0.5140	-14.7716	6.41526	0	
0.5147	-23.3127	7.03006	0	
0.5153	-27.2847	4.27684	0	
0.5160	-26.0645	1.55036	0	
0.5167	-23.6242	1.22959	0	
0.5173	-20.5868	1.55036	0	
0.5180	-16.3033	2.16515	0	
0.5187	-11.7342	4.89164	0	
0.5193	-6.23056	4.27684	0	
0.5200	-0.129803	-2.11169	0	
0.5207	4.43927	-3.95608	0	
0.5213	8.41125	-0.294033	0	
0.5220	10.2545	-1.49689	0	
0.5227	8.41125	-3.04725	0	
0.5233	9.31988	-0.294033	0	
0.5240	15.4466	-2.43245	0	
0.5247	20.9243	-6.7093	0	
0.5253	23.9877	-3.04725	0	
0.5260	27.0251	1.22959	0	
0.5267	25.5193	-1.20286	0	
0.5273	20.0157	-2.11169	0	
0.5280	14.512	-0.294033	0	
0.5287	9.94293	0.0267303	0	
0.5293	4.7508	1.22959	0	
0.5300	0.493253	2.75322	0	
0.5307	-1.34995	0.614796	0	
0.5313	-2.88163	-1.20286	0	
0.5320	-4.69888	-0.588066	0	
0.5327	-5.91903	0.614796	0	
0.5333	-9.57948	3.36801	0	
0.5340	-19.3667	6.73603	0	
0.5347	-28.1933	7.35082	0	
0.5353	-29.4134	6.12123	0	
0.5360	-27.5962	6.41526	0	
0.5367	-23.9357	7.03006	0	
0.5373	-14.7716	3.36801	0	
0.5380	-7.13918	-1.20286	0	
0.5387	-5.91903	-2.11169	0	
0.5393	-2.88163	-1.49689	0	
0.5400	1.09035	-2.72649	0	
0.5407	0.77882	-3.04725	0	
0.5413	1.7134	-3.04725	0	
0.5420	6.28248	-3.04725	0	
0.5427	7.1911	-1.20286	0	
0.5433	2.62203	1.55036	0	
0.5440	2.3105	0.614796	0	
0.5447	7.1911	-1.81766	0	
0.5453	10.8516	-2.43245	0	
0.5460	10.8516	-3.34128	0	
0.5467	7.50263	-4.86491	0	
0.5473	1.7134	-2.11169	0	
0.5480	-3.47873	3.07398	0	
0.5487	-3.79026	0.614796	0	
0.5493	-3.47873	-4.25011	0	
0.5500	-5.91903	-3.63532	0	
0.5507	-7.45071	-2.11169	0	
0.5513	-7.13918	-6.7093	0	
0.5520	-9.57948	-11.5742	0	
0.5527	-14.7716	-11.5742	0	
0.5533	-20.5868	-7.91216	0	
0.5540	-28.8163	-3.95608	0	
0.5547	-33.6969	-3.04725	0	
0.5553	-24.2473	-3.04725	0	
0.5560	-8.35933	-1.20286	0	
0.5567	-4.41331	0.614796	0	
0.5573	-10.7996	1.55036	0	
0.5580	-13.5515	2.75322	0	
0.5587	-10.5141	2.45918	0	
0.5593	-9.29392	2.16515	0	
0.5600	-8.35933	2.16515	0	
0.5607	-6.85362	0.935559	0	
0.5613	-5.63346	-1.81766	0	
0.5620	-3.1672	-4.57088	0	
0.5627	1.09035	-5.15894	0	
0.5633	8.09973	-2.72649	0	
0.5640	17.8869	0.320763	0	
0.5647	25.8049	1.55036	0	
0.5653	27.3366	1.84439	0	
0.5660	25.5193	1.55036	0	
0.5667	22.7675	1.22959	0	
0.5673	19.107	1.55036	0	
0.5680	15.7322	-0.588066	0	
0.5687	13.6034	-3.63532	0	
0.5693	9.94293	-3.63532	0	
0.5700	6.28248	-2.43245	0	
0.5707	4.15371	0.320763	0	
0.5713	2.62203	4.59761	0	
0.5720	3.53065	4.59761	0	
0.5727	5.37386	2.45918	0	
0.5733	-1.03843	3.36801	0	
0.5740	-14.7716	6.12123	0	
0.5747	-23.0271	8.55368	0	
0.5753	-23.3127	9.16848	0	
0.5760	-22.0925	7.03006	0	
0.5767	-21.4954	5.2124	0	
0.5773	-18.4321	5.2124	0	
0.5780	-11.4227	2.45918	0	
0.5787	-5.63346	-0.294033	0	
0.5793	-3.47873	0.614796	0	
0.5800	-0.129803	0.614796	0	
0.5807	4.43927	-1.20286	0	
0.5813	5.37386	-1.49689	0	
0.5820	5.06233	0.320763	0	
0.5827	6.28248	0.614796	0	
0.5833	7.81416	-2.43245	0	
0.5840	12.3832	-5.15894	0	
0.5847	20.0157	-5.77374	0	
0.5853	23.3646	-6.7093	0	
0.5860	24.5847	-7.00333	0	
0.5867	29.4654	-3.95608	0	
0.5873	31.9057	-1.20286	0	
0.5880	27.6481	-1.81766	0	
0.5887	21.8329	-2.11169	0	
0.5893	16.6667	-1.20286	0	
0.5900	9.94293	-0.908829	0	
0.5907	1.09035	-2.11169	0	
0.5913	-6.54209	-2.43245	0	
0.5920	-8.35933	0.935559	0	
0.5927	-5.63346	3.36801	0	
0.5933	-10.5141	2.16515	0	
0.5940	-22.7156	1.55036	0	
0.5947	-29.4134	3.07398	0	
0.5953	-31.2566	2.45918	0	
0.5960	-33.6969	1.84439	0	
0.5967	-32.4768	1.22959	0	
0.5973	-27.2847	-2.11169	0	
0.5980	-27.5962	-4.86491	0	
0.5987	-30.348	-6.38853	0	
0.5993	-24.8444	-7.00333	0	
0.6000	-15.3947	-5.15894	0	
0.6007	-14.7716	-4.57088	0	
0.6013	-17.5234	-4.86491	0	
0.6020	-14.7716	-3.34128	0	
0.6027	-13.863	-3.34128	0	
0.6033	-11.1112	-5.77374	0	
0.6040	3.21912	-5.77374	0	
0.6047	20.6128	-5.77374	0	
0.6053	27.3366	-7.00333	0	
0.6060	29.7769	-5.4797	0	
0.6067	30.997	-3.95608	0	
0.6073	26.428	-3.95608	0	
0.6080	22.456	-0.908829	0	
0.6087	22.7675	2.75322	0	
0.6093	19.107	0.935559	0	
0.6100	11.1631	-2.11169	0	
0.6107	7.50263	-2.43245	0	
0.6113	6.59401	-0.588066	0	
0.6120	3.53065	1.84439	0	
0.6127	0.77882	1.84439	0	
0.6133	-3.1672	0.320763	0	
0.6140	-12.6428	2.45918	0	
0.6147	-25.1559	4.89164	0	
0.6153	-33.0998	5.50643	0	
0.6160	-34.0085	6.12123	0	
0.6167	-31.5682	3.98281	0	
0.6173	-28.1933	0.320763	0	
0.6180	-24.8444	2.16515	0	
0.6187	-22.0925	4.59761	0	
0.6193	-17.5234	3.07398	0	
0.6200	-13.5515	4.27684	0	
0.6207	-13.2399	8.55368	0	
0.6213	-14.7716	7.93889	0	
0.6220	-13.5515	7.03006	0	
0.6227	-9.29392	10.6921	0	
0.6233	2.3105	11.6009	0	
0.6240	21.8329	8.87445	0	
0.6247	34.6575	5.8272	0	
0.6253	30.0884	-4.86491	0	
0.6260	21.5474	-20.4219	0	
0.6267	20.0157	-20.4219	0	
0.6273	17.8869	-7.61813	0	
0.6280	14.512	-1.81766	0	
0.6287	16.0437	-1.49689	0	
0.6293	20.0157	-0.294033	0	
0.6300	24.8963	-0.908829	0	
0.6307	33.7489	-1.20286	0	
0.6313	39.2266	1.55036	0	
0.6320	34.6575	3.36801	0	
0.6327	24.5847	4.89164	0	
0.6333	13.0063	5.2124	0	
0.6340	-0.129803	2.45918	0	
0.6347	-11.4227	2.16515	0	
0.6353	-17.835	5.8272	0	
0.6360	-19.3667	4.27684	0	
0.6367	-16.3033	-0.588066	0	
0.6373	-12.6428	-0.294033	0	
0.6380	-10.2025	0.320763	0	
0.6387	-7.13918	-1.20286	0	
0.6393	-4.10178	-1.20286	0	
0.6400	-2.88163	-1.20286	0	
0.6407	-0.129803	-1.49689	0	
0.6413	2.62203	0.320763	0	
0.6420	5.06233	0.614796	0	
0.6427	8.09973	-1.49689	0	
0.6433	11.4746	-1.49689	0	
0.6440	15.4466	-1.81766	0	
0.6447	23.9877	-3.04725	0	
0.6453	31.3086	-1.49689	0	
0.6460	29.4654	-1.20286	0	
0.6467	22.456	-3.95608	0	
0.6473	18.1725	-3.95608	0	
0.6480	16.3552	0.0267303	0	
0.6487	13.9149	1.55036	0	
0.6493	10.8516	0.0267303	0	
0.6500	7.50263	-0.294033	0	
0.6507	4.43927	1.84439	0	
0.6513	-1.34995	4.27684	0	
0.6520	-8.98239	4.89164	0	
0.6527	-12.9544	3.98281	0	
0.6533	-15.6802	3.36801	0	
0.6540	-22.4041	3.98281	0	
0.6547	-30.348	5.8272	0	
0.6553	-34.9171	7.35082	0	
0.6560	-35.8257	7.03006	0	
0.6567	-33.0998	6.12123	0	
0.6573	-26.376	5.8272	0	
0.6580	-19.0551	2.75322	0	
0.6587	-14.7716	-1.81766	0	
0.6593	-12.9544	-4.57088	0	
0.6600	-11.7342	-6.0945	0	
0.6607	-8.35933	-7.61813	0	
0.6613	-4.69888	-9.14175	0	
0.6620	-1.03843	-9.75655	0	
0.6627	1.7134	-8.23292	0	
0.6633	4.7508	-4.86491	0	
0.6640	12.6948	-3.95608	0	
0.6647	22.1444	-5.4797	0	
0.6653	26.428	-6.38853	0	
0.6660	26.428	-6.7093	0	
0.6667	23.6761	-5.77374	0	
0.6673	18.7955	-3.04725	0	
0.6680	16.3552	0.935559	0	
0.6687	15.1351	3.07398	0	
0.6693	8.09973	3.36801	0	
0.6700	1.7134	3.36801	0	
0.6707	0.493253	3.68878	0	
0.6713	-1.94705	2.45918	0	
0.6720	-5.91903	-0.294033	0	
0.6727	-7.13918	-1.81766	0	
0.6733	-10.7996	-0.588066	0	
0.6740	-20.8724	0.614796	0	
0.6747	-27.9077	1.55036	0	
0.6753	-28.8163	3.36801	0	
0.6760	-28.8163	3.36801	0	
0.6767	-27.5962	1.55036	0	
0.6773	-23.6242	1.55036	0	
0.6780	-19.9638	1.55036	0	
0.6787	-18.1465	0.0267303	0	
0.6793	-15.0831	1.22959	0	
0.6800	-8.35933	2.45918	0	
0.6807	-0.129803	0.320763	0	
0.6813	3.53065	-2.72649	0	
0.6820	2.3105	-3.63532	0	
0.6827	2.62203	-3.34128	0	
0.6833	8.41125	-3.95608	0	
0.6840	16.9523	-5.77374	0	
0.6847	23.6761	-8.23292	0	
0.6853	28.2452	-6.7093	0	
0.6860	29.7769	-3.04725	0	
0.6867	26.428	-2.11169	0	
0.6873	20.3272	-3.04725	0	
0.6880	15.7322	-2.11169	0	
0.6887	14.512	-0.294033	0	
0.6893	11.7861	0.614796	0	
0.6900	7.50263	-0.294033	0	
0.6907	3.53065	-0.908829	0	
0.6913	-1.66148	-1.20286	0	
0.6920	-6.85362	-2.11169	0	
0.6927	-7.45071	-3.04725	0	
0.6933	-9.29392	-1.20286	0	
0.6940	-19.0551	1.22959	0	
0.6947	-26.376	0.614796	0	
0.6953	-27.2847	0.320763	0	
0.6960	-28.1933	1.22959	0	
0.6967	-28.1933	-0.588066	0	
0.6973	-24.2473	-2.11169	0	
0.6980	-21.1839	-0.294033	0	
0.6987	-18.7436	-1.81766	0	
0.6993	-13.863	-6.38853	0	
0.7000	-9.29392	-5.15894	0	
0.7007	-7.45071	-2.11169	0	
0.7013	-6.54209	-3.63532	0	
0.7020	-5.63346	-4.86491	0	
0.7027	-1.34995	-3.95608	0	
0.7033	9.63141	-4.57088	0	
0.7040	20.3272	-7.00333	0	
0.7047	24.2732	-6.38853	0	
0.7053	25.8049	-4.86491	0	
0.7060	27.0251	-3.95608	0	
0.7067	25.8049	-3.04725	0	
0.7073	22.7675	-2.11169	0	
0.7080	17.2638	-1.49689	0	
0.7087	10.8516	-0.908829	0	
0.7093	9.94293	-0.294033	0	
0.7100	10.54	-0.588066	0	
0.7107	6.28248	0.614796	0	
0.7113	3.53065	3.98281	0	
0.7120	4.7508	5.8272	0	
0.7127	3.53065	4.89164	0	
0.7133	-1.03843	4.89164	0	
0.7140	-8.67086	5.2124	0	
0.7147	-17.2119	4.27684	0	
0.7153	-20.2753	5.50643	0	
0.7160	-19.3667	8.87445	0	
0.7167	-21.1839	7.03006	0	
0.7173	-20.2753	2.16515	0	
0.7180	-16.6148	0.320763	0	
0.7187	-15.6802	0.0267303	0	
0.7193	-15.6802	-0.588066	0	
0.7200	-10.5141	-0.908829	0	
0.7207	-5.63346	-2.43245	0	
0.7213	-3.79026	-3.04725	0	
0.7220	-0.129803	0.320763	0	
0.7227	4.7508	1.55036	0	
0.7233	8.72278	-0.294033	0	
0.7240	16.3552	0.0267303	0	
0.7247	27.6481	0.935559	0	
0.7253	32.8402	0.614796	0	
0.7260	30.997	0.0267303	0	
0.7267	29.1798	-0.908829	0	
0.7273	25.2078	-1.20286	0	
0.7280	18.1725	1.22959	0	
0.7287	15.1351	3.07398	0	
0.7293	13.0063	2.45918	0	
0.7300	7.1911	1.55036	0	
0.7307	4.7508	0.614796	0	
0.7313	6.28248	1.55036	0	
0.7320	5.37386	5.2124	0	
0.7327	2.93355	5.50643	0	
0.7333	-0.441331	2.45918	0	
0.7340	-9.29392	2.75322	0	
0.7347	-17.5234	5.2124	0	
0.7353	-18.1465	3.68878	0	
0.7360	-15.9918	3.36801	0	
0.7367	-16.6148	4.27684	0	
0.7373	-16.6148	1.55036	0	
0.7380	-13.5515	-2.72649	0	
0.7387	-11.1112	-2.11169	0	
0.7393	-8.67086	-0.294033	0	
0.7400	-3.79026	0.320763	0	
0.7407	0.77882	0.614796	0	
0.7413	2.62203	-0.294033	0	
0.7420	3.84218	-4.57088	0	
0.7427	5.65942	-7.29736	0	
0.7433	9.31988	-6.0945	0	
0.7440	17.8869	-5.77374	0	
0.7447	25.5193	-6.7093	0	
0.7453	24.2732	-6.7093	0	
0.7460	18.1725	-7.00333	0	
0.7467	13.0063	-7.00333	0	
0.7473	9.03431	-5.15894	0	
0.7480	9.03431	-4.86491	0	
0.7487	9.94293	-6.0945	0	
0.7493	6.28248	-4.57088	0	
0.7500	3.53065	-2.11169	0	
0.7507	6.28248	0.320763	0	
0.7513	4.43927	3.07398	0	
0.7520	-2.88163	3.36801	0	
0.7527	-7.45071	1.22959	0	
0.7533	-11.1112	2.45918	0	
0.7540	-18.4321	5.2124	0	
0.7547	-25.1559	7.64486	0	
0.7553	-27.5962	9.16848	0	
0.7560	-28.1933	6.12123	0	
0.7567	-27.2847	3.36801	0	
0.7573	-23.3127	5.50643	0	
0.7580	-19.3667	5.2124	0	
0.7587	-17.5234	-0.294033	0	
0.7593	-13.2399	-1.20286	0	
0.7600	-6.54209	-0.588066	0	
0.7607	-5.32194	-3.95608	0	
0.7613	-6.54209	-5.15894	0	
0.7620	-2.25858	-5.77374	0	
0.7627	1.09035	-9.43578	0	
0.7633	2.93355	-10.3713	0	
0.7640	10.8516	-7.91216	0	
0.7647	18.484	-7.61813	0	
0.7653	20.0157	-7.61813	0	
0.7660	22.456	-5.77374	0	
0.7667	25.5193	-5.15894	0	
0.7673	22.7675	-4.86491	0	
0.7680	16.9523	-3.34128	0	
0.7687	12.6948	-2.72649	0	
0.7693	9.94293	-1.49689	0	
0.7700	9.31988	0.614796	0	
0.7707	8.72278	0.320763	0	
0.7713	5.97095	-1.20286	0	
0.7720	3.21912	-0.908829	0	
0.7727	0.77882	-1.20286	0	
0.7733	-4.69888	-2.11169	0	
0.7740	-12.6428	0.320763	0	
0.7747	-20.5868	0.935559	0	
0.7753	-24.5328	-2.11169	0	
0.7760	-23.3127	-2.72649	0	
0.7767	-21.1839	-0.294033	0	
0.7773	-18.4321	0.320763	0	
0.7780	-15.3947	-0.294033	0	
0.7787	-16.6148	-1.20286	0	
0.7793	-18.4321	-2.11169	0	
0.7800	-12.9544	-1.20286	0	
0.7807	-5.01041	-0.588066	0	
0.7813	-2.57011	-1.81766	0	
0.7820	-2.88163	-0.294033	0	
0.7827	-2.25858	2.45918	0	
0.7833	2.62203	0.614796	0	
0.7840	12.6948	-1.81766	0	
0.7847	19.7041	-0.294033	0	
0.7853	21.5474	0.320763	0	
0.7860	23.3646	-0.908829	0	
0.7867	22.7675	0.614796	0	
0.7873	16.6667	2.45918	0	
0.7880	13.0063	2.75322	0	
0.7887	12.0717	3.68878	0	
0.7893	6.59401	5.2124	0	
0.7900	1.99897	4.89164	0	
0.7907	3.53065	4.27684	0	
0.7913	4.43927	3.68878	0	
0.7920	-1.34995	0.614796	0	
0.7927	-5.32194	-1.20286	0	
0.7933	-7.13918	1.55036	0	
0.7940	-12.9544	5.2124	0	
0.7947	-19.3667	5.50643	0	
0.7953	-21.4954	4.27684	0	
0.7960	-23.3127	2.16515	0	
0.7967	-23.9357	0.614796	0	
0.7973	-20.2753	2.45918	0	
0.7980	-15.6802	3.68878	0	
0.7987	-11.4227	1.55036	0	
0.7993	-6.23056	-0.908829	0	
0.8000	-3.79026	-2.43245	0	
0.8007	-2.88163	-3.63532	0	
0.8013	-0.441331	-3.04725	0	
0.8020	1.7134	-0.294033	0	
0.8027	3.21912	-0.294033	0	
0.8033	7.81416	-3.04725	0	
0.8040	13.2919	-3.95608	0	
0.8047	18.1725	-2.11169	0	
0.8053	22.1444	-2.72649	0	
0.8060	21.8329	-5.15894	0	
0.8067	18.1725	-5.4797	0	
0.8073	14.512	-4.57088	0	
0.8080	11.7861	-4.25011	0	
0.8087	8.72278	-3.04725	0	
0.8093	6.28248	0.0267303	0	
0.8100	2.62203	1.55036	0	
0.8107	-0.129803	1.55036	0	
0.8113	1.40188	2.16515	0	
0.8120	2.3105	3.36801	0	
0.8127	-1.34995	3.98281	0	
0.8133	-6.23056	4.27684	0	
0.8140	-12.0198	5.2124	0	
0.8147	-18.1465	7.93889	0	
0.8153	-19.3667	10.6921	0	
0.8160	-18.4321	10.0773	0	
0.8167	-19.3667	6.73603	0	
0.8173	-16.9004	4.89164	0	
0.8180	-12.0198	4.27684	0	
0.8187	-9.89101	3.36801	0	
0.8193	-8.67086	1.55036	0	
0.8200	-6.54209	1.84439	0	
0.8207	-6.23056	3.36801	0	
0.8213	-4.69888	3.68878	0	
0.8220	0.181725	2.16515	0	
0.8227	2.62203	0.935559	0	
0.8233	4.15371	0.614796	0	
0.8240	10.54	-1.20286	0	
0.8247	18.484	-3.34128	0	
0.8253	19.7041	-4.86491	0	
0.8260	17.2638	-4.86491	0	
0.8267	16.6667	-3.63532	0	
0.8273	14.8235	-4.25011	0	
0.8280	9.03431	-6.7093	0	
0.8287	3.53065	-5.77374	0	
0.8293	-0.129803	-1.49689	0	
0.8300	-6.23056	-0.294033	0	
0.8307	-11.1112	-2.43245	0	
0.8313	-10.7996	-1.81766	0	
0.8320	-9.29392	-0.294033	0	
0.8327	-10.7996	-2.43245	0	
0.8333	-10.2025	-3.95608	0	
0.8340	-3.47873	0.320763	0	
0.8347	2.62203	5.50643	0	
0.8353	-0.129803	6.12123	0	
0.8360	-12.0198	2.16515	0	
0.8367	-17.835	-1.49689	0	
0.8373	-8.07377	0.0267303	0	
0.8380	4.7508	4.27684	0	
0.8387	5.06233	4.89164	0	
0.8393	0.493253	2.45918	0	
0.8400	2.62203	-0.908829	0	
0.8407	7.50263	-4.86491	0	
0.8413	9.94293	-4.57088	0	
0.8420	8.72278	0.935559	0	
0.8427	2.3105	4.27684	0	
0.8433	-2.88163	0.0267303	0	
0.8440	-1.03843	-5.77374	0	
0.8447	4.15371	-8.23292	0	
0.8453	11.4746	-5.4797	0	
0.8460	20.3272	-4.57088	0	
0.8467	22.7675	-7.29736	0	
0.8473	18.1725	-7.61813	0	
0.8480	9.63141	-6.0945	0	
0.8487	-5.63346	-9.14175	0	
0.8493	-22.4041	-11.2802	0	
0.8500	-26.9731	-8.52695	0	
0.8507	-13.5515	-6.38853	0	
0.8513	8.09973	-3.04725	0	
0.8520	23.0531	3.98281	0	
0.8527	27.3366	6.73603	0	
0.8533	25.5193	5.50643	0	
0.8540	15.4466	6.12123	0	
0.8547	-2.88163	3.07398	0	
0.8553	-12.6428	-4.25011	0	
0.8560	-1.03843	-5.4797	0	
0.8567	18.1725	2.16515	0	
0.8573	28.2452	12.5365	0	
0.8580	26.428	20.7694	0	
0.8587	16.3552	21.3842	0	
0.8593	3.21912	12.5365	0	
0.8600	-8.07377	5.2124	0	
0.8607	-16.6148	1.22959	0	
0.8613	-20.2753	-4.86491	0	
0.8620	-13.863	-9.75655	0	
0.8627	-1.94705	-8.52695	0	
0.8633	5.65942	-7.29736	0	
0.8640	9.03431	-5.4797	0	
0.8647	12.3832	-2.11169	0	
0.8653	13.6034	1.55036	0	
0.8660	11.7861	3.07398	0	
0.8667	10.8516	2.75322	0	
0.8673	10.54	-0.294033	0	
0.8680	4.7508	-1.20286	0	
0.8687	-4.41331	0.935559	0	
0.8693	-10.2025	0.320763	0	
0.8700	-12.3313	-1.20286	0	
0.8707	-15.6802	0.935559	0	
0.8713	-19.9638	3.07398	0	
0.8720	-23.0271	3.07398	0	
0.8727	-26.376	3.68878	0	
0.8733	-28.1933	6.73603	0	
0.8740	-31.2566	8.87445	0	
0.8747	-36.7603	4.89164	0	
0.8753	-37.3574	-4.57088	0	
0.8760	-31.8537	-12.8038	0	
0.8767	-27.5962	-15.851	0	
0.8773	-20.2753	-17.6954	0	
0.8780	-6.54209	-15.557	0	
0.8787	6.28248	-8.82099	0	
0.8793	13.6034	-4.86491	0	
0.8800	18.1725	-7.00333	0	
0.8807	18.484	-7.61813	0	
0.8813	15.7322	-4.86491	0	
0.8820	12.6948	-6.0945	0	
0.8827	11.4746	-6.7093	0	
0.8833	15.7322	-2.11169	0	
0.8840	23.6761	-1.81766	0	
0.8847	28.2452	-7.29736	0	
0.8853	30.6855	-7.61813	0	
0.8860	33.1258	-5.15894	0	
0.8867	30.6855	-7.29736	0	
0.8873	23.0531	-6.0945	0	
0.8880	19.107	-2.43245	0	
0.8887	17.5754	-4.86491	0	
0.8893	12.6948	-7.29736	0	
0.8900	5.97095	-3.04725	0	
0.8907	2.93355	0.935559	0	
0.8913	0.493253	2.45918	0	
0.8920	-5.32194	4.89164	0	
0.8927	-9.29392	7.03006	0	
0.8933	-13.5515	8.87445	0	
0.8940	-22.0925	11.3069	0	
0.8947	-30.348	11.6009	0	
0.8953	-33.3854	11.6009	0	
0.8960	-32.7883	12.5365	0	
0.8967	-29.725	11.6009	0	
0.8973	-27.2847	10.6921	0	
0.8980	-25.753	10.6921	0	
0.8987	-21.1839	4.27684	0	
0.8993	-13.863	-3.04725	0	
0.9000	-9.29392	-0.908829	0	
0.9007	-5.63346	3.68878	0	
0.9013	-1.66148	2.45918	0	
0.9020	0.181725	0.320763	0	
0.9027	1.7134	-2.11169	0	
0.9033	5.97095	-5.4797	0	
0.9040	13.9149	-7.29736	0	
0.9047	21.5474	-7.61813	0	
0.9053	25.5193	-5.4797	0	
0.9060	25.8049	-0.908829	0	
0.9067	24.5847	-0.294033	0	
0.9073	20.3272	-2.72649	0	
0.9080	17.2638	0.935559	0	
0.9087	15.4466	3.68878	0	
0.9093	9.94293	0.614796	0	
0.9100	2.93355	2.16515	0	
0.9107	2.3105	7.35082	0	
0.9113	3.84218	6.73603	0	
0.9120	3.53065	4.59761	0	
0.9127	1.99897	5.2124	0	
0.9133	-4.41331	3.98281	0	
0.9140	-12.9544	4.89164	0	
0.9147	-17.2119	8.87445	0	
0.9153	-20.2753	7.93889	0	
0.9160	-23.3127	5.2124	0	
0.9167	-20.2753	5.2124	0	
0.9173	-16.9004	6.73603	0	
0.9180	-19.6522	7.93889	0	
0.9187	-17.835	6.12123	0	
0.9193	-11.4227	-1.49689	0	
0.9200	-12.6428	-7.61813	0	
0.9207	-16.6148	-7.61813	0	
0.9213	-14.7716	-6.38853	0	
0.9220	-10.5141	-8.52695	0	
0.9227	-3.79026	-8.52695	0	
0.9233	9.63141	-6.38853	0	
0.9240	25.5193	-5.77374	0	
0.9247	37.7208	-4.57088	0	
0.9253	41.3813	-2.72649	0	
0.9260	37.7208	-4.86491	0	
0.9267	30.997	-8.52695	0	
0.9273	24.2732	-5.77374	0	
0.9280	18.1725	-2.72649	0	
0.9287	13.2919	-6.38853	0	
0.9293	8.41125	-7.91216	0	
0.9300	4.7508	-2.72649	0	
0.9307	-0.129803	-0.588066	0	
0.9313	-9.29392	-2.43245	0	
0.9320	-13.5515	-0.294033	0	
0.9327	-12.0198	0.614796	0	
0.9333	-19.6522	-2.72649	0	
0.9340	-38.5775	-0.294033	0	
0.9347	-51.4021	5.50643	0	
0.9353	-55.0626	3.68878	0	
0.9360	-54.1539	-1.20286	0	
0.9367	-47.1186	-1.81766	0	
0.9373	-40.7063	-0.908829	0	
0.9380	-38.5775	1.22959	0	
0.9387	-33.6969	3.36801	0	
0.9393	-23.9357	1.55036	0	
0.9400	-15.0831	-1.81766	0	
0.9407	-7.76224	-2.11169	0	
0.9413	-1.66148	-3.04725	0	
0.9420	6.28248	-5.15894	0	
0.9427	17.8869	-7.29736	0	
0.9433	27.9596	-10.0506	0	
0.9440	36.5007	-11.2802	0	
0.9447	43.8216	-7.61813	0	
0.9453	41.0698	-4.57088	0	
0.9460	32.5287	-4.57088	0	
0.9467	31.9057	-3.95608	0	
0.9473	32.5287	-3.04725	0	
0.9480	22.7675	-3.95608	0	
0.9487	11.7861	-4.25011	0	
0.9493	7.50263	-2.72649	0	
0.9500	5.97095	-1.81766	0	
0.9507	3.53065	-1.20286	0	
0.9513	-0.726899	3.07398	0	
0.9520	-2.88163	7.03006	0	
0.9527	-1.66148	7.35082	0	
0.9533	-6.23056	7.93889	0	
0.9540	-15.9918	10.6921	0	
0.9547	-20.8724	12.5365	0	
0.9553	-21.807	12.2157	0	
0.9560	-22.0925	11.6009	0	
0.9567	-17.835	7.93889	0	
0.9573	-11.7342	3.36801	0	
0.9580	-8.67086	3.68878	0	
0.9587	-5.01041	6.12123	0	
0.9593	-0.129803	7.35082	0	
0.9600	1.7134	8.25965	0	
0.9607	-0.129803	5.2124	0	
0.9613	-0.441331	0.614796	0	
0.9620	1.40188	0.614796	0	
0.9627	2.62203	0.0267303	0	
0.9633	5.37386	-4.57088	0	
0.9640	13.2919	-5.77374	0	
0.9647	20.0157	-3.04725	0	
0.9653	19.107	-1.49689	0	
0.9660	18.1725	-0.588066	0	
0.9667	19.107	0.320763	0	
0.9673	15.4466	-0.588066	0	
0.9680	10.54	-0.294033	0	
0.9687	10.8516	0.935559	0	
0.9693	9.63141	-0.908829	0	
0.9700	6.28248	-2.72649	0	
0.9707	7.1911	-0.294033	0	
0.9713	8.09973	1.55036	0	
0.9720	4.43927	0.320763	0	
0.9727	2.3105	-1.20286	0	
0.9733	-1.34995	-0.588066	0	
0.9740	-12.0198	1.22959	0	
0.9747	-22.0925	3.98281	0	
0.9753	-23.9357	4.89164	0	
0.9760	-23.3127	2.45918	0	
0.9767	-21.1839	0.614796	0	
0.9773	-14.4601	2.45918	0	
0.9780	-8.67086	2.75322	0	
0.9787	-6.85362	1.55036	0	
0.9793	-1.94705	1.84439	0	
0.9800	3.53065	1.84439	0	
0.9807	5.37386	0.320763	0	
0.9813	8.09973	-2.11169	0	
0.9820	11.4746	-3.04725	0	
0.9827	9.94293	-1.81766	0	
0.9833	11.7861	-1.20286	0	
0.9840	20.3272	-3.95608	0	
0.9847	23.0531	-6.38853	0	
0.9853	17.5754	-6.7093	0	
0.9860	16.6667	-5.15894	0	
0.9867	19.3926	-3.34128	0	
0.9873	19.3926	-3.34128	0	
0.9880	19.107	-4.57088	0	
0.9887	17.8869	-3.95608	0	
0.9893	11.7861	-3.63532	0	
0.9900	5.37386	-4.57088	0	
0.9907	3.21912	-3.34128	0	
0.9913	-0.129803	-1.20286	0	
0.9920	-6.23056	-2.11169	0	
0.9927	-10.2025	-3.63532	0	
0.9933	-15.0831	-2.11169	0	
0.9940	-25.753	0.614796	0	
0.9947	-34.32	3.36801	0	
0.9953	-35.2286	4.59761	0	
0.9960	-33.0998	3.36801	0	
0.9967	-32.1653	1.22959	0	
0.9973	-29.725	0.614796	0	
0.9980	-21.1839	2.75322	0	
0.9987	-7.13918	4.27684	0	
0.9993	8.72278	1.55036	0	
1.0000	19.107	-0.294033	0	
1.0007	20.0157	2.75322	0	
1.0013	16.6667	3.98281	0	
1.0020	12.0717	1.55036	0	
1.0027	6.87958	1.55036	0	
1.0033	6.59401	2.16515	0	
1.0040	13.0063	-0.294033	0	
1.0047	18.1725	-3.34128	0	
1.0053	19.107	-4.57088	0	
1.0060	18.1725	-4.25011	0	
1.0067	15.4466	-3.95608	0	
1.0073	12.0717	-3.95608	0	
1.0080	10.8516	-4.57088	0	
1.0087	7.1911	-6.38853	0	
1.0093	0.77882	-7.29736	0	
1.0100	-1.66148	-6.7093	0	
1.0107	-1.94705	-6.0945	0	
1.0113	-7.45071	-3.95608	0	
1.0120	-10.2025	-0.294033	0	
1.0127	-8.07377	0.320763	0	
1.0133	-12.0198	-2.11169	0	
1.0140	-21.1839	-0.294033	0	
1.0147	-23.9357	1.55036	0	
1.0153	-23.6242	-0.294033	0	
1.0160	-25.1559	-0.294033	0	
1.0167	-24.8444	1.55036	0	
1.0173	-21.807	0.0267303	0	
1.0180	-19.3667	-1.20286	0	
1.0187	-15.6802	1.84439	0	
1.0193	-11.1112	4.27684	0	
1.0200	-7.13918	0.614796	0	
1.0207	-3.79026	-3.95608	0	
1.0213	-1.34995	-5.77374	0	
1.0220	-1.03843	-8.23292	0	
1.0227	-0.129803	-9.43578	0	
1.0233	2.93355	-6.38853	0	
1.0240	9.03431	-5.15894	0	
1.0247	14.512	-6.7093	0	
1.0253	16.3552	-4.86491	0	
1.0260	17.2638	-2.72649	0	
1.0267	18.7955	-2.11169	0	
1.0273	16.9523	-2.43245	0	
1.0280	12.6948	-3.34128	0	
1.0287	9.94293	-3.04725	0	
1.0293	9.03431	1.55036	0	
1.0300	9.94293	2.45918	0	
1.0307	9.94293	-1.20286	0	
1.0313	6.28248	-0.908829	0	
1.0320	1.7134	1.84439	0	
1.0327	-1.03843	2.45918	0	
1.0333	-2.25858	3.98281	0	
1.0340	-7.13918	6.12123	0	
1.0347	-14.7716	4.59761	0	
1.0353	-20.2753	3.68878	0	
1.0360	-19.3667	5.2124	0	
1.0367	-19.6522	4.59761	0	
1.0373	-23.6242	1.55036	0	
1.0380	-24.8444	0.614796	0	
1.0387	-21.4954	0.320763	0	
1.0393	-18.4321	-1.81766	0	
1.0400	-16.6148	-2.72649	0	
1.0407	-14.4601	-1.20286	0	
1.0413	-12.3313	-1.49689	0	
1.0420	-10.7996	-2.72649	0	
1.0427	-7.45071	-0.908829	0	
1.0433	-1.03843	0.320763	0	
1.0440	7.1911	-2.11169	0	
1.0447	18.484	-3.63532	0	
1.0453	31.9057	-3.34128	0	
1.0460	43.1985	-2.11169	0	
1.0467	50.831	1.84439	0	
1.0473	52.6742	3.68878	0	
1.0480	45.3533	0.935559	0	
1.0487	34.346	1.55036	0	
1.0493	26.1164	3.36801	0	
1.0500	18.7955	1.55036	0	
1.0507	13.6034	2.45918	0	
1.0513	12.6948	4.89164	0	
1.0520	9.03431	4.27684	0	
1.0527	1.99897	4.89164	0	
1.0533	-0.129803	8.55368	0	
1.0540	-5.63346	9.16848	0	
1.0547	-18.4321	7.35082	0	
1.0553	-27.5962	6.12123	0	
1.0560	-27.9077	5.50643	0	
1.0567	-26.9731	5.50643	0	
1.0573	-24.2473	5.2124	0	
1.0580	-16.6148	3.36801	0	
1.0587	-10.2025	2.45918	0	
1.0593	-8.35933	3.36801	0	
1.0600	-7.45071	2.45918	0	
1.0607	-2.88163	0.614796	0	
1.0613	0.77882	-2.11169	0	
1.0620	3.53065	-3.04725	0	
1.0627	6.28248	0.320763	0	
1.0633	10.2545	1.55036	0	
1.0640	17.5754	-1.81766	0	
1.0647	27.3366	-3.04725	0	
1.0653	30.0884	-1.81766	0	
1.0660	22.7675	-2.72649	0	
1.0667	17.5754	-3.04725	0	
1.0673	16.9523	-1.49689	0	
1.0680	13.9149	-2.11169	0	
1.0687	8.72278	-3.95608	0	
1.0693	4.43927	-3.95608	0	
1.0700	-0.129803	-3.04725	0	
1.0707	-4.69888	-2.43245	0	
1.0713	-8.35933	-1.20286	0	
1.0720	-12.3313	1.55036	0	
1.0727	-13.2399	4.27684	0	
1.0733	-13.863	4.27684	0	
1.0740	-20.8724	4.89164	0	
1.0747	-28.5048	7.03006	0	
1.0753	-30.6336	6.12123	0	
1.0760	-30.6336	3.98281	0	
1.0767	-30.6336	4.89164	0	
1.0773	-27.2847	4.27684	0	
1.0780	-22.0925	1.55036	0	
1.0787	-17.5234	1.55036	0	
1.0793	-14.1745	5.2124	0	
1.0800	-12.9544	5.8272	0	
1.0807	-11.1112	1.55036	0	
1.0813	-5.91903	-2.43245	0	
1.0820	-1.94705	-2.43245	0	
1.0827	-0.129803	-0.588066	0	
1.0833	5.06233	-2.11169	0	
1.0840	13.2919	-3.95608	0	
1.0847	18.1725	-3.95608	0	
1.0853	19.3926	-3.63532	0	
1.0860	17.5754	-2.11169	0	
1.0867	14.512	-0.588066	0	
1.0873	12.6948	-3.63532	0	
1.0880	11.7861	-4.86491	0	
1.0887	10.54	-1.49689	0	
1.0893	10.54	0.614796	0	
1.0900	9.31988	-0.294033	0	
1.0907	4.7508	1.22959	0	
1.0913	0.493253	2.45918	0	
1.0920	-1.03843	-0.294033	0	
1.0927	-2.88163	-2.43245	0	
1.0933	-7.76224	-0.588066	0	
1.0940	-16.3033	1.84439	0	
1.0947	-23.3127	0.614796	0	
1.0953	-25.1559	-2.11169	0	
1.0960	-23.3127	-1.49689	0	
1.0967	-21.1839	0.614796	0	
1.0973	-18.4321	0.320763	0	
1.0980	-16.3033	0.0267303	0	
1.0987	-14.7716	1.22959	0	
1.0993	-12.0198	-1.20286	0	
1.1000	-7.45071	-4.86491	0	
1.1007	-3.79026	-3.04725	0	
1.1013	-0.129803	-0.294033	0	
1.1020	5.06233	-0.908829	0	
1.1027	8.72278	-1.49689	0	
1.1033	10.54	-3.63532	0	
1.1040	17.5754	-7.00333	0	
1.1047	27.3366	-6.0945	0	
1.1053	29.1798	-3.63532	0	
1.1060	26.1164	-6.7093	0	
1.1067	25.5193	-9.75655	0	
1.1073	24.2732	-5.4797	0	
1.1080	19.3926	-3.34128	0	
1.1087	14.8235	-6.0945	0	
1.1093	11.7861	-7.61813	0	
1.1100	9.63141	-6.0945	0	
1.1107	7.50263	-3.95608	0	
1.1113	3.53065	-0.588066	0	
1.1120	1.7134	0.320763	0	
1.1127	1.7134	-0.294033	0	
1.1133	-2.25858	0.614796	0	
1.1140	-10.7996	1.55036	0	
1.1147	-16.3033	2.45918	0	
1.1153	-18.7436	4.27684	0	
1.1160	-20.8724	5.2124	0	
1.1167	-19.6522	4.59761	0	
1.1173	-17.5234	4.27684	0	
1.1180	-17.5234	1.84439	0	
1.1187	-15.9918	-0.294033	0	
1.1193	-13.2399	1.55036	0	
1.1200	-12.0198	3.36801	0	
1.1207	-10.2025	0.614796	0	
1.1213	-6.54209	-2.11169	0	
1.1220	-5.01041	-0.294033	0	
1.1227	-4.41331	-0.294033	0	
1.1233	-0.441331	-3.95608	0	
1.1240	5.37386	-7.61813	0	
1.1247	10.8516	-8.23292	0	
1.1253	15.1351	-8.82099	0	
1.1260	15.4466	-7.61813	0	
1.1267	13.0063	-4.86491	0	
1.1273	10.54	-2.11169	0	
1.1280	9.03431	0.614796	0	
1.1287	6.59401	0.614796	0	
1.1293	2.93355	-2.11169	0	
1.1300	0.77882	-0.908829	0	
1.1307	1.7134	3.07398	0	
1.1313	1.7134	0.614796	0	
1.1320	0.493253	-3.04725	0	
1.1327	0.181725	-1.20286	0	
1.1333	-1.03843	0.935559	0	
1.1340	-8.35933	1.55036	0	
1.1347	-17.2119	5.2124	0	
1.1353	-20.2753	7.35082	0	
1.1360	-20.2753	5.2124	0	
1.1367	-19.9638	3.36801	0	
1.1373	-16.6148	3.36801	0	
1.1380	-12.6428	3.98281	0	
1.1387	-10.2025	2.16515	0	
1.1393	-6.54209	0.320763	0	
1.1400	-0.726899	1.55036	0	
1.1407	1.99897	3.07398	0	
1.1413	3.53065	0.0267303	0	
1.1420	5.37386	-2.43245	0	
1.1427	5.37386	-0.294033	0	
1.1433	8.09973	0.0267303	0	
1.1440	16.9523	-3.95608	0	
1.1447	20.3272	-5.77374	0	
1.1453	16.9523	-5.4797	0	
1.1460	17.2638	-6.7093	0	
1.1467	17.8869	-5.77374	0	
1.1473	12.6948	-3.04725	0	
1.1480	9.94293	-3.95608	0	
1.1487	10.8516	-6.38853	0	
1.1493	9.31988	-3.34128	0	
1.1500	6.87958	-1.49689	0	
1.1507	5.37386	-4.25011	0	
1.1513	3.21912	-4.86491	0	
1.1520	2.62203	-2.72649	0	
1.1527	1.7134	-1.49689	0	
1.1533	-4.10178	-1.20286	0	
1.1540	-12.3313	-0.588066	0	
1.1547	-18.7436	-0.294033	0	
1.1553	-23.9357	-1.20286	0	
1.1560	-25.753	-0.588066	0	
1.1567	-22.7156	2.45918	0	
1.1573	-16.6148	3.36801	0	
1.1580	-11.1112	-0.294033	0	
1.1587	-9.29392	-1.20286	0	
1.1593	-8.35933	0.0267303	0	
1.1600	-5.32194	-1.49689	0	
1.1607	-3.47873	-3.95608	0	
1.1613	-0.726899	-5.4797	0	
1.1620	4.15371	-7.00333	0	
1.1627	3.21912	-6.0945	0	
1.1633	-0.441331	-5.77374	0	
1.1640	7.81416	-8.82099	0	
1.1647	22.1444	-7.61813	0	
1.1653	27.0251	-5.15894	0	
1.1660	26.1164	-7.61813	0	
1.1667	25.2078	-7.29736	0	
1.1673	21.2358	-3.95608	0	
1.1680	16.3552	-4.25011	0	
1.1687	13.2919	-3.95608	0	
1.1693	9.94293	-1.20286	0	
1.1700	8.09973	-1.20286	0	
1.1707	4.43927	-1.81766	0	
1.1713	-3.1672	-0.908829	0	
1.1720	-6.54209	-0.294033	0	
1.1727	-4.69888	1.22959	0	
1.1733	-9.29392	2.45918	0	
1.1740	-18.4321	4.27684	0	
1.1747	-23.9357	6.73603	0	
1.1753	-26.6876	7.64486	0	
1.1760	-27.2847	5.8272	0	
1.1767	-23.0271	3.07398	0	
1.1773	-19.0551	1.55036	0	
1.1780	-17.835	2.45918	0	
1.1787	-13.863	3.36801	0	
1.1793	-8.35933	1.55036	0	
1.1800	-6.54209	0.0267303	0	
1.1807	-5.32194	0.0267303	0	
1.1813	-2.25858	-0.294033	0	
1.1820	-0.129803	1.22959	0	
1.1827	1.09035	1.84439	0	
1.1833	5.06233	-3.34128	0	
1.1840	12.0717	-7.61813	0	
1.1847	17.8869	-5.77374	0	
1.1853	21.2358	-3.95608	0	
1.1860	23.0531	-3.63532	0	
1.1867	21.2358	-3.95608	0	
1.1873	17.5754	-3.04725	0	
1.1880	15.7322	-1.49689	0	
1.1887	13.2919	0.614796	0	
1.1893	7.50263	1.22959	0	
1.1900	4.15371	0.614796	0	
1.1907	3.84218	0.320763	0	
1.1913	1.7134	1.22959	0	
1.1920	-0.441331	2.75322	0	
1.1927	0.493253	4.89164	0	
1.1933	-2.88163	7.03006	0	
1.1940	-13.863	8.55368	0	
1.1947	-23.0271	8.87445	0	
1.1953	-24.8444	9.16848	0	
1.1960	-23.9357	7.03006	0	
1.1967	-23.0271	3.68878	0	
1.1973	-20.8724	5.2124	0	
1.1980	-17.5234	7.93889	0	
1.1987	-15.6802	7.64486	0	
1.1993	-14.7716	6.12123	0	
1.2000	-11.1112	4.89164	0	
1.2007	-6.54209	0.935559	0	
1.2013	-3.47873	-0.294033	0	
1.2020	-3.79026	2.45918	0	
1.2027	-1.34995	2.45918	0	
1.2033	6.87958	-1.20286	0	
1.2040	17.2638	-0.908829	0	
1.2047	25.2078	-0.294033	0	
1.2053	29.1798	-3.95608	0	
1.2060	30.0884	-4.57088	0	
1.2067	29.4654	-0.294033	0	
1.2073	29.1798	1.22959	0	
1.2080	26.428	0.614796	0	
1.2087	20.3272	2.45918	0	
1.2093	16.3552	3.07398	0	
1.2100	14.512	3.36801	0	
1.2107	9.94293	3.68878	0	
1.2113	2.93355	3.07398	0	
1.2120	0.181725	2.45918	0	
1.2127	-1.03843	1.84439	0	
1.2133	-4.69888	0.0267303	0	
1.2140	-10.5141	2.75322	0	
1.2147	-19.3667	8.25965	0	
1.2153	-24.8444	7.64486	0	
1.2160	-20.2753	4.59761	0	
1.2167	-12.6428	4.59761	0	
1.2173	-8.67086	3.36801	0	
1.2180	-4.69888	1.22959	0	
1.2187	-1.34995	-0.294033	0	
1.2193	-1.66148	-3.04725	0	
1.2200	-1.66148	-3.34128	0	
1.2207	-0.726899	-0.294033	0	
1.2213	-2.25858	-0.294033	0	
1.2220	-5.63346	-3.04725	0	
1.2227	-8.07377	-3.04725	0	
1.2233	-6.23056	-3.04725	0	
1.2240	2.93355	-3.95608	0	
1.2247	13.6034	-5.15894	0	
1.2253	18.7955	-7.00333	0	
1.2260	21.8329	-7.00333	0	
1.2267	22.7675	-5.15894	0	
1.2273	20.0157	-4.86491	0	
1.2280	18.7955	-4.25011	0	
1.2287	17.5754	-3.04725	0	
1.2293	11.4746	-3.04725	0	
1.2300	7.1911	-3.34128	0	
1.2307	7.81416	-1.20286	0	
1.2313	5.65942	-0.294033	0	
1.2320	-0.129803	-1.20286	0	
1.2327	-7.45071	-1.20286	0	
1.2333	-14.7716	0.0267303	0	
1.2340	-20.5868	1.22959	0	
1.2347	-24.8444	2.16515	0	
1.2353	-28.5048	2.45918	0	
1.2360	-30.348	1.55036	0	
1.2367	-28.5048	0.0267303	0	
1.2373	-22.4041	-0.588066	0	
1.2380	-15.3947	-0.588066	0	
1.2387	-10.5141	-1.81766	0	
1.2393	-5.91903	-3.34128	0	
1.2400	-0.726899	-3.04725	0	
1.2407	1.40188	-2.43245	0	
1.2413	4.15371	-2.11169	0	
1.2420	14.2264	-0.908829	0	
1.2427	24.5847	0.614796	0	
1.2433	29.7769	-0.588066	0	
1.2440	34.969	-5.4797	0	
1.2447	38.941	-9.14175	0	
1.2453	36.5007	-7.61813	0	
1.2460	30.997	-6.7093	0	
1.2467	25.5193	-8.52695	0	
1.2473	20.6128	-6.0945	0	
1.2480	13.0063	-3.63532	0	
1.2487	4.15371	-5.77374	0	
1.2493	-0.726899	-5.15894	0	
1.2500	-2.25858	-1.20286	0	
1.2507	-7.76224	-1.20286	0	
1.2513	-14.4601	-1.49689	0	
1.2520	-15.6802	2.16515	0	
1.2527	-14.7716	4.27684	0	
1.2533	-16.6148	5.8272	0	
1.2540	-23.0271	7.64486	0	
1.2547	-30.0365	4.89164	0	
1.2553	-32.7883	1.84439	0	
1.2560	-33.6969	3.98281	0	
1.2567	-34.32	4.89164	0	
1.2573	-29.4134	2.45918	0	
1.2580	-22.7156	1.84439	0	
1.2587	-20.2753	3.07398	0	
1.2593	-16.6148	1.55036	0	
1.2600	-10.7996	0.614796	0	
1.2607	-7.76224	-0.588066	0	
1.2613	-4.69888	-4.25011	0	
1.2620	-1.94705	-7.61813	0	
1.2627	-1.03843	-4.86491	0	
1.2633	1.40188	-3.34128	0	
1.2640	7.50263	-5.4797	0	
1.2647	15.1351	-4.57088	0	
1.2653	21.2358	-0.908829	0	
1.2660	22.7675	-1.20286	0	
1.2667	21.8329	-2.11169	0	
1.2673	20.0157	-0.294033	0	
1.2680	15.1351	1.22959	0	
1.2687	9.94293	0.0267303	0	
1.2693	10.54	-0.588066	0	
1.2700	10.2545	-0.294033	0	
1.2707	8.09973	0.320763	0	
1.2713	7.1911	0.614796	0	
1.2720	3.21912	0.614796	0	
1.2727	-1.03843	0.935559	0	
1.2733	-1.94705	3.36801	0	
1.2740	-11.1112	7.64486	0	
1.2747	-26.0645	8.25965	0	
1.2753	-30.6336	3.98281	0	
1.2760	-28.5048	0.614796	0	
1.2767	-27.2847	1.55036	0	
1.2773	-23.9357	3.07398	0	
1.2780	-21.1839	3.36801	0	
1.2787	-22.0925	3.07398	0	
1.2793	-23.9357	0.614796	0	
1.2800	-24.8444	-1.49689	0	
1.2807	-18.4321	-3.34128	0	
1.2813	-4.41331	-5.77374	0	
1.2820	4.15371	-8.52695	0	
1.2827	4.43927	-9.43578	0	
1.2833	8.72278	-9.43578	0	
1.2840	18.484	-7.61813	0	
1.2847	28.2452	-5.4797	0	
1.2853	33.7489	-4.86491	0	
1.2860	32.2172	-3.95608	0	
1.2867	29.1798	-2.11169	0	
1.2873	26.428	-1.20286	0	
1.2880	21.5474	-1.81766	0	
1.2887	19.107	-3.95608	0	
1.2893	17.8869	-5.15894	0	
1.2900	12.3832	-3.63532	0	
1.2907	7.50263	-1.81766	0	
1.2913	7.1911	-0.294033	0	
1.2920	4.43927	2.16515	0	
1.2927	-0.441331	1.84439	0	
1.2933	-3.79026	2.16515	0	
1.2940	-8.98239	6.12123	0	
1.2947	-16.6148	7.03006	0	
1.2953	-23.0271	4.27684	0	
1.2960	-25.753	5.8272	0	
1.2967	-24.5328	7.93889	0	
1.2973	-20.8724	6.12123	0	
1.2980	-18.1465	6.73603	0	
1.2987	-15.0831	7.93889	0	
1.2993	-9.57948	4.59761	0	
1.3000	-3.79026	0.935559	0	
1.3007	-0.129803	-0.588066	0	
1.3013	0.77882	-2.43245	0	
1.3020	2.62203	-2.43245	0	
1.3027	5.06233	-0.294033	0	
1.3033	8.09973	-1.20286	0	
1.3040	15.4466	-4.57088	0	
1.3047	24.2732	-6.0945	0	
1.3053	27.0251	-5.4797	0	
1.3060	24.5847	-4.25011	0	
1.3067	26.7395	-3.95608	0	
1.3073	28.2452	-3.63532	0	
1.3080	21.8329	-3.04725	0	
1.3087	12.6948	-1.20286	0	
1.3093	6.28248	0.614796	0	
1.3100	-0.129803	1.22959	0	
1.3107	-3.79026	-0.588066	0	
1.3113	-4.69888	-0.294033	0	
1.3120	-7.13918	2.75322	0	
1.3127	-9.29392	2.16515	0	
1.3133	-9.29392	-0.908829	0	
1.3140	-13.863	1.22959	0	
1.3147	-21.807	5.2124	0	
1.3153	-24.2473	5.50643	0	
1.3160	-23.9357	4.59761	0	
1.3167	-27.2847	3.36801	0	
1.3173	-26.9731	1.84439	0	
1.3180	-20.5868	2.45918	0	
1.3187	-15.0831	2.16515	0	
1.3193	-11.7342	-1.81766	0	
1.3200	-7.76224	-3.04725	0	
1.3207	-4.10178	-0.294033	0	
1.3213	-1.34995	0.614796	0	
1.3220	0.77882	-1.49689	0	
1.3227	2.62203	-2.11169	0	
1.3233	7.1911	-0.294033	0	
1.3240	15.4466	-1.20286	0	
1.3247	21.8329	-3.95608	0	
1.3253	23.9877	-4.86491	0	
1.3260	23.3646	-3.95608	0	
1.3267	21.8329	-3.04725	0	
1.3273	20.0157	-0.294033	0	
1.3280	16.3552	-0.588066	0	
1.3287	9.94293	-3.63532	0	
1.3293	5.65942	-3.04725	0	
1.3300	7.1911	-0.588066	0	
1.3307	11.1631	-1.20286	0	
1.3313	10.8516	-0.588066	0	
1.3320	6.59401	1.55036	0	
1.3327	3.21912	0.614796	0	
1.3333	-0.441331	0.0267303	0	
1.3340	-8.98239	2.75322	0	
1.3347	-17.5234	4.59761	0	
1.3353	-21.1839	2.75322	0	
1.3360	-24.8444	1.55036	0	
1.3367	-29.1279	2.45918	0	
1.3373	-28.1933	2.75322	0	
1.3380	-22.0925	0.935559	0	
1.3387	-16.3033	0.614796	0	
1.3393	-13.5515	1.55036	0	
1.3400	-12.9544	0.614796	0	
1.3407	-12.0198	-2.11169	0	
1.3413	-6.85362	-3.95608	0	
1.3420	-0.726899	-3.95608	0	
1.3427	0.493253	-3.34128	0	
1.3433	1.09035	-5.15894	0	
1.3440	8.09973	-7.61813	0	
1.3447	19.107	-7.00333	0	
1.3453	24.8963	-6.7093	0	
1.3460	23.6761	-7.61813	0	
1.3467	22.7675	-7.00333	0	
1.3473	23.3646	-5.4797	0	
1.3480	20.3272	-4.86491	0	
1.3487	14.8235	-2.43245	0	
1.3493	11.7861	1.84439	0	
1.3500	10.2545	2.16515	0	
1.3507	8.09973	0.0267303	0	
1.3513	3.84218	0.320763	0	
1.3520	-0.129803	2.45918	0	
1.3527	-2.57011	3.98281	0	
1.3533	-6.23056	3.36801	0	
1.3540	-16.3033	3.36801	0	
1.3547	-27.5962	7.03006	0	
1.3553	-30.6336	11.0129	0	
1.3560	-26.9731	9.16848	0	
1.3567	-23.0271	5.50643	0	
1.3573	-21.1839	4.59761	0	
1.3580	-19.3667	4.59761	0	
1.3587	-13.863	4.27684	0	
1.3593	-7.45071	4.27684	0	
1.3600	-6.23056	3.36801	0	
1.3607	-5.01041	1.55036	0	
1.3613	-0.129803	1.22959	0	
1.3620	1.7134	0.614796	0	
1.3627	-0.129803	-1.20286	0	
1.3633	1.99897	-2.43245	0	
1.3640	10.2545	-2.11169	0	
1.3647	18.484	-0.294033	0	
1.3653	23.6761	0.935559	0	
1.3660	25.2078	-0.294033	0	
1.3667	23.6761	-0.588066	0	
1.3673	21.8329	1.55036	0	
1.3680	19.107	1.55036	0	
1.3687	14.2264	0.614796	0	
1.3693	9.94293	-0.294033	0	
1.3700	7.81416	-3.63532	0	
1.3707	4.7508	-7.29736	0	
1.3713	1.40188	-5.77374	0	
1.3720	0.493253	-3.95608	0	
1.3727	0.77882	-4.25011	0	
1.3733	-2.88163	-3.63532	0	
1.3740	-10.5141	-0.294033	0	
1.3747	-17.5234	0.0267303	0	
1.3753	-22.0925	0.0267303	0	
1.3760	-22.4041	3.36801	0	
1.3767	-20.8724	3.68878	0	
1.3773	-17.835	1.22959	0	
1.3780	-14.4601	2.16515	0	
1.3787	-12.3313	1.84439	0	
1.3793	-11.1112	-0.588066	0	
1.3800	-9.57948	0.0267303	0	
1.3807	-8.07377	0.614796	0	
1.3813	-4.69888	-1.20286	0	
1.3820	0.493253	-0.908829	0	
1.3827	1.7134	-1.20286	0	
1.3833	4.15371	-3.95608	0	
1.3840	14.512	-4.86491	0	
1.3847	23.3646	-4.57088	0	
1.3853	23.6761	-4.86491	0	
1.3860	23.9877	-2.72649	0	
1.3867	24.2732	-0.908829	0	
1.3873	18.7955	-2.72649	0	
1.3880	12.6948	-1.49689	0	
1.3887	9.94293	1.22959	0	
1.3893	6.28248	0.320763	0	
1.3900	3.53065	-0.588066	0	
1.3907	2.3105	-0.294033	0	
1.3913	-1.34995	-0.588066	0	
1.3920	-4.41331	0.614796	0	
1.3927	-4.41331	1.55036	0	
1.3933	-6.23056	1.22959	0	
1.3940	-12.3313	2.45918	0	
1.3947	-17.5234	4.27684	0	
1.3953	-20.5868	4.27684	0	
1.3960	-22.4041	3.98281	0	
1.3967	-21.4954	4.27684	0	
1.3973	-16.6148	2.75322	0	
1.3980	-11.4227	2.75322	0	
1.3987	-9.29392	3.36801	0	
1.3993	-6.85362	3.07398	0	
1.4000	-1.94705	3.36801	0	
1.4007	1.40188	2.75322	0	
1.4013	2.3105	0.614796	0	
1.4020	2.62203	1.22959	0	
1.4027	1.7134	2.75322	0	
1.4033	2.3105	-2.11169	0	
1.4040	10.8516	-8.82099	0	
1.4047	20.0157	-9.43578	0	
1.4053	18.484	-8.52695	0	
1.4060	15.1351	-8.52695	0	
1.4067	16.3552	-6.0945	0	
1.4073	16.3552	-2.11169	0	
1.4080	12.6948	0.614796	0	
1.4087	10.8516	2.45918	0	
1.4093	7.50263	1.84439	0	
1.4100	2.62203	0.614796	0	
1.4107	0.493253	0.614796	0	
1.4113	-1.94705	0.935559	0	
1.4120	-5.63346	1.84439	0	
1.4127	-6.85362	0.935559	0	
1.4133	-8.35933	-0.294033	0	
1.4140	-14.7716	1.84439	0	
1.4147	-22.0925	5.2124	0	
1.4153	-24.5328	3.98281	0	
1.4160	-22.7156	2.16515	0	
1.4167	-23.0271	2.45918	0	
1.4173	-25.753	1.22959	0	
1.4180	-23.9357	0.0267303	0	
1.4187	-17.835	1.55036	0	
1.4193	-13.863	0.935559	0	
1.4200	-12.0198	-1.20286	0	
1.4207	-8.07377	0.614796	0	
1.4213	-5.32194	2.16515	0	
1.4220	-3.47873	-1.20286	0	
1.4227	0.77882	-3.63532	0	
1.4233	5.65942	-4.25011	0	
1.4240	13.2919	-6.7093	0	
1.4247	22.7675	-8.52695	0	
1.4253	25.2078	-7.61813	0	
1.4260	21.8329	-6.7093	0	
1.4267	21.2358	-6.0945	0	
1.4273	21.8329	-4.86491	0	
1.4280	20.0157	-4.57088	0	
1.4287	17.8869	-3.95608	0	
1.4293	15.1351	-2.11169	0	
1.4300	10.8516	-2.11169	0	
1.4307	9.03431	-3.63532	0	
1.4313	6.28248	-3.95608	0	
1.4320	2.3105	-2.72649	0	
1.4327	1.09035	0.0267303	0	
1.4333	-1.03843	3.68878	0	
1.4340	-9.57948	4.27684	0	
1.4347	-18.4321	2.16515	0	
1.4353	-20.5868	3.36801	0	
1.4360	-20.2753	6.73603	0	
1.4367	-19.9638	5.2124	0	
1.4373	-18.4321	1.22959	0	
1.4380	-15.0831	-0.294033	0	
1.4387	-10.5141	0.0267303	0	
1.4393	-8.98239	-1.20286	0	
1.4400	-8.35933	-3.34128	0	
1.4407	-3.79026	-3.95608	0	
1.4413	1.7134	-3.95608	0	
1.4420	2.62203	-3.34128	0	
1.4427	3.21912	-3.04725	0	
1.4433	7.81416	-4.25011	0	
1.4440	14.512	-5.77374	0	
1.4447	20.6128	-6.0945	0	
1.4453	23.0531	-5.4797	0	
1.4460	22.7675	-3.95608	0	
1.4467	21.8329	-3.63532	0	
1.4473	22.1444	-3.95608	0	
1.4480	21.5474	-2.11169	0	
1.4487	17.2638	1.22959	0	
1.4493	11.7861	2.16515	0	
1.4500	9.94293	2.16515	0	
1.4507	8.09973	4.59761	0	
1.4513	2.62203	5.2124	0	
1.4520	0.493253	2.45918	0	
1.4527	2.62203	1.22959	0	
1.4533	-2.25858	3.68878	0	
1.4540	-13.863	4.89164	0	
1.4547	-20.2753	4.89164	0	
1.4553	-21.1839	6.73603	0	
1.4560	-23.6242	7.93889	0	
1.4567	-23.0271	5.8272	0	
1.4573	-18.4321	4.59761	0	
1.4580	-14.1745	5.50643	0	
1.4587	-9.89101	2.75322	0	
1.4593	-3.79026	-0.294033	0	
1.4600	-1.03843	1.55036	0	
1.4607	-1.34995	0.935559	0	
1.4613	0.493253	-2.72649	0	
1.4620	2.62203	-3.95608	0	
1.4627	1.7134	-4.25011	0	
1.4633	3.53065	-5.15894	0	
1.4640	9.03431	-3.95608	0	
1.4647	9.94293	-4.86491	0	
1.4653	9.63141	-6.7093	0	
1.4660	13.6034	-4.25011	0	
1.4667	14.512	-3.04725	0	
1.4673	10.8516	-4.86491	0	
1.4680	9.31988	-3.95608	0	
1.4687	8.41125	-0.908829	0	
1.4693	4.43927	-0.588066	0	
1.4700	1.40188	0.320763	0	
1.4707	-0.129803	2.45918	0	
1.4713	-4.10178	3.36801	0	
1.4720	-8.35933	3.68878	0	
1.4727	-8.35933	3.98281	0	
1.4733	-10.5141	3.68878	0	
1.4740	-17.5234	5.2124	0	
1.4747	-23.0271	7.64486	0	
1.4753	-25.1559	8.87445	0	
1.4760	-25.753	8.55368	0	
1.4767	-24.5328	5.8272	0	
1.4773	-21.807	2.16515	0	
1.4780	-17.2119	1.55036	0	
1.4787	-12.0198	2.16515	0	
1.4793	-8.35933	2.16515	0	
1.4800	-6.54209	3.07398	0	
1.4807	-6.54209	2.75322	0	
1.4813	-5.32194	-1.20286	0	
1.4820	-0.129803	-3.95608	0	
1.4827	5.37386	-3.34128	0	
1.4833	9.63141	-2.11169	0	
1.4840	16.3552	-2.11169	0	
1.4847	23.9877	-2.11169	0	
1.4853	26.1164	-1.81766	0	
1.4860	25.2078	-2.43245	0	
1.4867	26.1164	-2.43245	0	
1.4873	24.2732	-2.11169	0	
1.4880	17.2638	-2.43245	0	
1.4887	7.1911	-1.20286	0	
1.4893	-1.66148	2.16515	0	
1.4900	-6.23056	4.27684	0	
1.4907	-6.54209	2.75322	0	
1.4913	-6.54209	0.614796	0	
1.4920	-6.54209	0.0267303	0	
1.4927	-5.32194	-0.294033	0	
1.4933	-7.13918	2.45918	0	
1.4940	-14.1745	7.03006	0	
1.4947	-21.1839	8.87445	0	
1.4953	-23.6242	8.87445	0	
1.4960	-23.0271	7.64486	0	
1.4967	-20.2753	3.36801	0	
1.4973	-16.3033	-0.588066	0	
1.4980	-13.2399	-1.20286	0	
1.4987	-11.1112	-2.43245	0	
1.4993	-6.54209	-3.95608	0	
1.5000	-1.03843	-2.72649	0	
1.5007	1.09035	-1.20286	0	
1.5013	3.53065	-3.34128	0	
1.5020	8.09973	-4.25011	0	
1.5027	9.03431	-3.04725	0	
1.5033	8.09973	-1.49689	0	
1.5040	12.0717	-1.20286	0	
1.5047	20.0157	-1.20286	0	
1.5053	26.428	-3.95608	0	
1.5060	27.9596	-5.77374	0	
1.5067	24.5847	-3.95608	0	
1.5073	19.7041	-2.11169	0	
1.5080	17.2638	-3.63532	0	
1.5087	15.4466	-3.95608	0	
1.5093	10.54	-0.588066	0	
1.5100	6.28248	0.614796	0	
1.5107	4.43927	-0.588066	0	
1.5113	1.40188	-0.294033	0	
1.5120	-3.1672	-0.294033	0	
1.5127	-4.41331	-2.11169	0	
1.5133	-5.63346	-0.294033	0	
1.5140	-11.1112	3.36801	0	
1.5147	-17.5234	4.27684	0	
1.5153	-21.1839	4.27684	0	
1.5160	-21.1839	4.27684	0	
1.5167	-19.3667	2.45918	0	
1.5173	-16.6148	1.55036	0	
1.5180	-12.0198	1.55036	0	
1.5187	-6.85362	-1.20286	0	
1.5193	-3.79026	-3.95608	0	
1.5200	-1.94705	-3.34128	0	
1.5207	0.77882	-1.81766	0	
1.5213	1.99897	-2.72649	0	
1.5220	2.62203	-2.72649	0	
1.5227	3.84218	-1.49689	0	
1.5233	6.28248	-2.11169	0	
1.5240	10.2545	-3.95608	0	
1.5247	16.0437	-5.77374	0	
1.5253	20.3272	-7.61813	0	
1.5260	22.7675	-7.61813	0	
1.5267	22.456	-4.86491	0	
1.5273	19.7041	-2.11169	0	
1.5280	17.5754	-2.72649	0	
1.5287	15.7322	-4.86491	0	
1.5293	11.7861	-5.15894	0	
1.5300	8.09973	-3.34128	0	
1.5307	5.37386	-3.04725	0	
1.5313	1.09035	-3.95608	0	
1.5320	-0.441331	-4.25011	0	
1.5327	0.77882	-3.95608	0	
1.5333	-3.1672	-1.81766	0	
1.5340	-12.6428	1.55036	0	
1.5347	-19.0551	0.935559	0	
1.5353	-22.4041	-0.908829	0	
1.5360	-23.9357	0.320763	0	
1.5367	-22.0925	1.22959	0	
1.5373	-19.3667	0.320763	0	
1.5380	-16.3033	-0.294033	0	
1.5387	-11.4227	-1.20286	0	
1.5393	-6.54209	-0.294033	0	
1.5400	-3.79026	0.935559	0	
1.5407	-2.25858	-1.20286	0	
1.5413	-0.726899	-2.11169	0	
1.5420	2.62203	0.935559	0	
1.5427	5.37386	1.84439	0	
1.5433	6.87958	0.614796	0	
1.5440	12.6948	0.614796	0	
1.5447	23.0531	-2.11169	0	
1.5453	29.4654	-5.77374	0	
1.5460	29.7769	-4.86491	0	
1.5467	29.1798	-1.81766	0	
1.5473	26.7395	-0.588066	0	
1.5480	20.9243	0.614796	0	
1.5487	14.2264	2.45918	0	
1.5493	10.54	2.16515	0	
1.5500	8.72278	0.0267303	0	
1.5507	5.06233	0.935559	0	
1.5513	1.09035	3.36801	0	
1.5520	0.181725	2.45918	0	
1.5527	-1.66148	1.22959	0	
1.5533	-7.45071	0.935559	0	
1.5540	-14.1745	1.55036	0	
1.5547	-20.2753	3.68878	0	
1.5553	-25.1559	7.35082	0	
1.5560	-25.4674	6.12123	0	
1.5567	-23.6242	3.07398	0	
1.5573	-23.9357	3.36801	0	
1.5580	-23.0271	3.36801	0	
1.5587	-19.3667	1.84439	0	
1.5593	-15.0831	2.75322	0	
1.5600	-11.7342	1.84439	0	
1.5607	-8.67086	-2.11169	0	
1.5613	-5.91903	-1.81766	0	
1.5620	-4.41331	1.55036	0	
1.5627	-4.10178	0.614796	0	
1.5633	-1.34995	0.320763	0	
1.5640	7.50263	2.45918	0	
1.5647	17.2638	0.935559	0	
1.5653	20.3272	-2.43245	0	
1.5660	20.3272	-2.11169	0	
1.5667	20.6128	-0.908829	0	
1.5673	18.7955	-1.49689	0	
1.5680	15.1351	-1.20286	0	
1.5687	11.7861	-0.294033	0	
1.5693	6.87958	-0.294033	0	
1.5700	2.93355	-2.11169	0	
1.5707	1.99897	-4.25011	0	
1.5713	-1.03843	-3.34128	0	
1.5720	-6.54209	-0.908829	0	
1.5727	-10.2025	-2.11169	0	
1.5733	-12.0198	-2.11169	0	
1.5740	-16.6148	1.55036	0	
1.5747	-23.3127	3.36801	0	
1.5753	-27.5962	3.36801	0	
1.5760	-26.6876	4.27684	0	
1.5767	-23.0271	3.68878	0	
1.5773	-18.4321	1.55036	0	
1.5780	-12.3313	1.55036	0	
1.5787	-4.69888	1.55036	0	
1.5793	-1.03843	0.320763	0	
1.5800	-2.88163	-2.11169	0	
1.5807	-5.63346	-3.95608	0	
1.5813	-6.23056	-4.86491	0	
1.5820	-5.63346	-3.04725	0	
1.5827	-8.07377	-1.20286	0	
1.5833	-8.67086	-0.294033	0	
1.5840	-0.129803	0.320763	0	
1.5847	11.7861	-0.908829	0	
1.5853	17.2638	-2.72649	0	
1.5860	19.107	-1.81766	0	
1.5867	21.8329	0.320763	0	
1.5873	19.7041	1.22959	0	
1.5880	17.2638	0.0267303	0	
1.5887	21.8329	-2.11169	0	
1.5893	25.5193	-2.11169	0	
1.5900	21.8329	1.22959	0	
1.5907	16.6667	4.59761	0	
1.5913	12.0717	4.89164	0	
1.5920	7.1911	2.75322	0	
1.5927	4.43927	2.45918	0	
1.5933	2.93355	5.50643	0	
1.5940	-4.41331	6.12123	0	
1.5947	-18.4321	3.36801	0	
1.5953	-30.6336	2.45918	0	
1.5960	-36.7603	1.55036	0	
1.5967	-38.266	-3.04725	0	
1.5973	-35.8257	-4.86491	0	
1.5980	-26.6876	-2.43245	0	
1.5987	-17.5234	-1.49689	0	
1.5993	-15.6802	-3.95608	0	
1.6000	-15.6802	-5.4797	0	
1.6007	-11.1112	-4.57088	0	
1.6013	-7.13918	-3.63532	0	
1.6020	-5.63346	-3.04725	0	
1.6027	0.181725	-3.34128	0	
1.6033	6.59401	-3.95608	0	
1.6040	10.8516	-4.86491	0	
1.6047	17.2638	-6.7093	0	
1.6053	25.5193	-7.00333	0	
1.6060	29.7769	-5.4797	0	
1.6067	30.0884	-3.34128	0	
1.6073	27.3366	-2.43245	0	
1.6080	23.6761	-0.588066	0	
1.6087	19.107	2.75322	0	
1.6093	13.0063	3.36801	0	
1.6100	5.97095	0.614796	0	
1.6107	3.53065	1.84439	0	
1.6113	2.62203	6.73603	0	
1.6120	-1.66148	7.03006	0	
1.6127	-4.69888	3.36801	0	
1.6133	-5.91903	3.36801	0	
1.6140	-11.1112	5.50643	0	
1.6147	-16.9004	3.36801	0	
1.6153	-19.9638	0.614796	0	
1.6160	-23.9357	1.55036	0	
1.6167	-26.6876	1.22959	0	
1.6173	-23.9357	-0.294033	0	
1.6180	-19.0551	-0.294033	0	
1.6187	-15.6802	-0.294033	0	
1.6193	-12.6428	-2.11169	0	
1.6200	-8.07377	-2.11169	0	
1.6207	-2.25858	-1.20286	0	
1.6213	1.09035	-0.588066	0	
1.6220	-0.129803	-0.294033	0	
1.6227	-0.129803	-1.20286	0	
1.6233	5.37386	-3.63532	0	
1.6240	13.2919	-3.95608	0	
1.6247	20.0157	-3.34128	0	
1.6253	24.8963	-5.4797	0	
1.6260	26.7395	-6.38853	0	
1.6267	25.5193	-2.11169	0	
1.6273	21.8329	1.55036	0	
1.6280	17.8869	1.55036	0	
1.6287	16.3552	1.55036	0	
1.6293	15.4466	3.36801	0	
1.6300	11.7861	4.27684	0	
1.6307	7.1911	3.68878	0	
1.6313	5.06233	3.68878	0	
1.6320	3.53065	2.45918	0	
1.6327	-1.03843	-0.294033	0	
1.6333	-5.63346	-1.81766	0	
1.6340	-11.1112	-0.294033	0	
1.6347	-16.9004	2.45918	0	
1.6353	-20.2753	2.45918	0	
1.6360	-22.0925	0.320763	0	
1.6367	-22.4041	1.22959	0	
1.6373	-18.1465	3.36801	0	
1.6380	-14.7716	-0.294033	0	
1.6387	-14.7716	-5.15894	0	
1.6393	-11.4227	-5.15894	0	
1.6400	-5.91903	-3.95608	0	
1.6407	-3.79026	-4.57088	0	
1.6413	-2.25858	-4.25011	0	
1.6420	-0.129803	-3.04725	0	
1.6427	-0.726899	-2.72649	0	
1.6433	1.7134	-2.43245	0	
1.6440	10.8516	-2.11169	0	
1.6447	18.7955	-3.95608	0	
1.6453	20.9243	-5.4797	0	
1.6460	19.107	-5.15894	0	
1.6467	17.2638	-4.86491	0	
1.6473	17.2638	-5.15894	0	
1.6480	13.9149	-4.86491	0	
1.6487	6.28248	-3.04725	0	
1.6493	2.62203	-2.43245	0	
1.6500	3.21912	-3.63532	0	
1.6507	1.09035	-4.57088	0	
1.6513	-2.88163	-3.95608	0	
1.6520	-2.88163	-1.49689	0	
1.6527	-3.79026	0.614796	0	
1.6533	-10.2025	2.75322	0	
1.6540	-17.835	3.07398	0	
1.6547	-23.9357	2.16515	0	
1.6553	-28.1933	3.07398	0	
1.6560	-29.4134	4.89164	0	
1.6567	-26.0645	3.36801	0	
1.6573	-21.1839	0.614796	0	
1.6580	-17.2119	2.45918	0	
1.6587	-13.5515	5.50643	0	
1.6593	-10.5141	4.59761	0	
1.6600	-7.45071	2.75322	0	
1.6607	-2.88163	1.22959	0	
1.6613	-0.129803	-0.294033	0	
1.6620	1.99897	-0.908829	0	
1.6627	7.1911	-0.294033	0	
1.6633	11.1631	-0.294033	0	
1.6640	10.8516	-2.11169	0	
1.6647	15.4466	-4.25011	0	
1.6653	23.6761	-5.77374	0	
1.6660	25.2078	-5.15894	0	
1.6667	20.0157	-2.72649	0	
1.6673	14.8235	0.614796	0	
1.6680	13.2919	1.55036	0	
1.6687	14.8235	-0.294033	0	
1.6693	15.4466	0.0267303	0	
1.6700	12.3832	0.614796	0	
1.6707	9.31988	-1.20286	0	
1.6713	8.09973	-3.04725	0	
1.6720	5.37386	-3.95608	0	
1.6727	3.53065	-4.25011	0	
1.6733	-0.441331	-3.34128	0	
1.6740	-9.57948	-1.20286	0	
1.6747	-15.9918	-1.49689	0	
1.6753	-18.1465	-0.588066	0	
1.6760	-22.0925	1.55036	0	
1.6767	-26.0645	0.614796	0	
1.6773	-26.0645	-0.294033	0	
1.6780	-23.9357	-0.908829	0	
1.6787	-19.6522	-3.34128	0	
1.6793	-14.1745	-3.95608	0	
1.6800	-9.29392	-3.34128	0	
1.6807	-5.32194	-4.57088	0	
1.6813	-3.1672	-4.25011	0	
1.6820	-1.94705	-1.81766	0	
1.6827	2.93355	-2.43245	0	
1.6833	9.03431	-3.95608	0	
1.6840	13.6034	-2.72649	0	
1.6847	19.7041	-2.43245	0	
1.6853	25.2078	-0.908829	0	
1.6860	25.5193	0.320763	0	
1.6867	23.9877	-3.95608	0	
1.6873	22.456	-7.61813	0	
1.6880	18.1725	-3.95608	0	
1.6887	13.6034	-0.908829	0	
1.6893	13.0063	-0.294033	0	
1.6900	12.6948	0.0267303	0	
1.6907	9.94293	0.0267303	0	
1.6913	7.1911	0.614796	0	
1.6920	5.65942	2.45918	0	
1.6927	3.21912	2.45918	0	
1.6933	-1.34995	1.84439	0	
1.6940	-9.29392	4.27684	0	
1.6947	-19.0551	6.12123	0	
1.6953	-24.8444	3.36801	0	
1.6960	-23.9357	2.16515	0	
1.6967	-21.1839	3.98281	0	
1.6973	-19.3667	3.07398	0	
1.6980	-15.9918	0.614796	0	
1.6987	-12.3313	0.614796	0	
1.6993	-9.89101	-0.294033	0	
1.7000	-7.45071	-0.294033	0	
1.7007	-5.63346	3.07398	0	
1.7013	-4.69888	3.36801	0	
1.7020	-0.441331	0.614796	0	
1.7027	4.15371	2.16515	0	
1.7033	6.28248	2.45918	0	
1.7040	11.7861	-1.20286	0	
1.7047	21.8329	-1.81766	0	
1.7053	30.997	-3.04725	0	
1.7060	37.4093	-6.0945	0	
1.7067	41.6928	-2.72649	0	
1.7073	38.3179	2.45918	0	
1.7080	30.997	-3.04725	0	
1.7087	27.3366	-6.0945	0	
1.7093	21.8329	-1.49689	0	
1.7100	10.8516	-0.294033	0	
1.7107	3.53065	-3.04725	0	
1.7113	0.77882	-0.588066	0	
1.7120	-9.29392	0.614796	0	
1.7127	-20.2753	-1.20286	0	
1.7133	-23.9357	1.55036	0	
1.7140	-25.753	6.12123	0	
1.7147	-29.1279	4.27684	0	
1.7153	-30.6336	2.45918	0	
1.7160	-32.7883	3.68878	0	
1.7167	-33.3854	3.07398	0	
1.7173	-29.1279	1.55036	0	
1.7180	-24.8444	1.84439	0	
1.7187	-21.807	0.0267303	0	
1.7193	-15.6802	-3.34128	0	
1.7200	-10.7996	-2.72649	0	
1.7207	-11.1112	-0.588066	0	
1.7213	-9.57948	-1.81766	0	
1.7220	-2.88163	-2.43245	0	
1.7227	0.493253	-2.11169	0	
1.7233	1.7134	-3.95608	0	
1.7240	9.94293	-4.86491	0	
1.7247	20.0157	-4.57088	0	
1.7253	20.6128	-3.95608	0	
1.7260	21.5474	-3.95608	0	
1.7267	30.0884	-3.34128	0	
1.7273	34.6575	-1.20286	0	
1.7280	29.4654	-0.294033	0	
1.7287	24.8963	-1.20286	0	
1.7293	21.8329	-1.20286	0	
1.7300	16.0437	-1.20286	0	
1.7307	9.03431	-3.34128	0	
1.7313	2.62203	-2.11169	0	
1.7320	-5.63346	-0.294033	0	
1.7327	-12.6428	-1.81766	0	
1.7333	-20.2753	-0.294033	0	
1.7340	-27.9077	5.2124	0	
1.7347	-30.348	6.12123	0	
1.7353	-29.4134	6.73603	0	
1.7360	-30.348	9.78328	0	
1.7367	-27.9077	8.55368	0	
1.7373	-21.807	4.27684	0	
1.7380	-17.5234	4.27684	0	
1.7387	-15.3947	4.27684	0	
1.7393	-12.3313	4.89164	0	
1.7400	-11.4227	7.03006	0	
1.7407	-11.1112	4.27684	0	
1.7413	-8.07377	0.0267303	0	
1.7420	-4.69888	-0.588066	0	
1.7427	-2.88163	-3.34128	0	
1.7433	0.493253	-8.23292	0	
1.7440	6.87958	-10.3713	0	
1.7447	16.3552	-10.6654	0	
1.7453	24.8963	-11.895	0	
1.7460	26.428	-10.9594	0	
1.7467	21.5474	-7.91216	0	
1.7473	17.5754	-5.77374	0	
1.7480	15.1351	-5.4797	0	
1.7487	10.8516	-5.77374	0	
1.7493	5.37386	-3.34128	0	
1.7500	2.93355	0.320763	0	
1.7507	1.40188	1.55036	0	
1.7513	-1.03843	1.55036	0	
1.7520	-2.57011	0.614796	0	
1.7527	-1.94705	0.320763	0	
1.7533	-2.57011	2.45918	0	
1.7540	-7.45071	3.98281	0	
1.7547	-16.3033	3.07398	0	
1.7553	-24.5328	3.36801	0	
1.7560	-26.6876	4.59761	0	
1.7567	-23.0271	4.27684	0	
1.7573	-17.835	4.27684	0	
1.7580	-14.1745	2.45918	0	
1.7587	-10.2025	0.935559	0	
1.7593	-7.45071	3.36801	0	
1.7600	-8.35933	5.2124	0	
1.7607	-9.89101	2.16515	0	
1.7613	-6.23056	2.45918	0	
1.7620	0.181725	4.27684	0	
1.7627	2.62203	-0.294033	0	
1.7633	3.53065	-4.86491	0	
1.7640	9.94293	-3.04725	0	
1.7647	18.7955	-2.11169	0	
1.7653	23.3646	-3.63532	0	
1.7660	22.7675	-0.588066	0	
1.7667	21.8329	2.16515	0	
1.7673	20.3272	1.55036	0	
1.7680	18.1725	1.55036	0	
1.7687	15.4466	1.55036	0	
1.7693	11.7861	1.55036	0	
1.7700	7.81416	4.27684	0	
1.7707	3.53065	4.27684	0	
1.7713	-0.129803	2.75322	0	
1.7720	-2.25858	5.8272	0	
1.7727	-2.25858	6.73603	0	
1.7733	-5.01041	3.98281	0	
1.7740	-14.7716	5.8272	0	
1.7747	-24.2473	8.87445	0	
1.7753	-27.5962	6.41526	0	
1.7760	-27.2847	3.36801	0	
1.7767	-27.2847	3.07398	0	
1.7773	-23.9357	1.22959	0	
1.7780	-16.9004	-1.49689	0	
1.7787	-10.7996	-2.72649	0	
1.7793	-7.76224	-1.81766	0	
1.7800	-5.01041	0.320763	0	
1.7807	-0.726899	0.614796	0	
1.7813	2.62203	-2.11169	0	
1.7820	4.43927	-4.57088	0	
1.7827	6.28248	-5.77374	0	
1.7833	9.63141	-5.4797	0	
1.7840	15.1351	-4.57088	0	
1.7847	22.7675	-4.86491	0	
1.7853	27.6481	-5.77374	0	
1.7860	26.1164	-5.4797	0	
1.7867	22.456	-3.95608	0	
1.7873	22.1444	-2.43245	0	
1.7880	20.3272	-3.04725	0	
1.7887	13.9149	-3.95608	0	
1.7893	8.72278	-1.49689	0	
1.7900	8.09973	1.22959	0	
1.7907	7.81416	-0.588066	0	
1.7913	3.84218	-1.20286	0	
1.7920	0.181725	1.55036	0	
1.7927	0.181725	2.45918	0	
1.7933	-0.441331	2.16515	0	
1.7940	-7.45071	1.84439	0	
1.7947	-17.5234	1.55036	0	
1.7953	-21.1839	2.75322	0	
1.7960	-20.2753	3.36801	0	
1.7967	-18.7436	0.0267303	0	
1.7973	-16.6148	-2.11169	0	
1.7980	-15.9918	-0.588066	0	
1.7987	-14.4601	-1.20286	0	
1.7993	-9.29392	-3.63532	0	
1.8000	-5.32194	-3.95608	0	
1.8007	-4.10178	-3.04725	0	
1.8013	-1.34995	-3.63532	0	
1.8020	1.99897	-5.15894	0	
1.8027	3.84218	-5.77374	0	
1.8033	8.72278	-5.77374	0	
1.8040	15.1351	-7.00333	0	
1.8047	20.6128	-8.82099	0	
1.8053	26.1164	-7.00333	0	
1.8060	28.2452	-4.25011	0	
1.8067	24.8963	-3.95608	0	
1.8073	20.3272	-3.34128	0	
1.8080	15.4466	-1.20286	0	
1.8087	10.8516	1.55036	0	
1.8093	8.09973	2.16515	0	
1.8100	3.84218	-0.294033	0	
1.8107	0.77882	-1.49689	0	
1.8113	0.181725	2.16515	0	
1.8120	-1.94705	4.27684	0	
1.8127	-5.01041	3.36801	0	
1.8133	-5.91903	3.98281	0	
1.8140	-12.6428	5.8272	0	
1.8147	-22.4041	6.12123	0	
1.8153	-23.3127	5.2124	0	
1.8160	-21.1839	4.89164	0	
1.8167	-23.6242	3.36801	0	
1.8173	-22.0925	0.935559	0	
1.8180	-15.9918	0.0267303	0	
1.8187	-12.9544	1.55036	0	
1.8193	-8.35933	1.55036	0	
1.8200	-4.10178	-0.588066	0	
1.8207	-7.13918	-0.294033	0	
1.8213	-8.35933	0.320763	0	
1.8220	-3.47873	-2.11169	0	
1.8227	-0.129803	-3.04725	0	
1.8233	2.62203	-0.908829	0	
1.8240	10.8516	0.0267303	0	
1.8247	17.2638	-1.49689	0	
1.8253	19.107	-3.34128	0	
1.8260	21.2358	-3.95608	0	
1.8267	23.0531	-1.81766	0	
1.8273	20.6128	-1.20286	0	
1.8280	16.3552	-2.11169	0	
1.8287	12.0717	-1.49689	0	
1.8293	8.09973	0.614796	0	
1.8300	5.65942	-0.294033	0	
1.8307	5.37386	-0.294033	0	
1.8313	2.93355	1.84439	0	
1.8320	-0.129803	2.45918	0	
1.8327	-0.726899	2.16515	0	
1.8333	-3.79026	3.36801	0	
1.8340	-12.3313	4.27684	0	
1.8347	-18.4321	4.59761	0	
1.8353	-20.2753	4.89164	0	
1.8360	-22.7156	5.2124	0	
1.8367	-24.5328	6.73603	0	
1.8373	-22.4041	7.35082	0	
1.8380	-19.6522	4.27684	0	
1.8387	-15.3947	1.84439	0	
1.8393	-8.35933	1.84439	0	
1.8400	-8.35933	0.935559	0	
1.8407	-12.6428	-0.588066	0	
1.8413	-8.67086	-2.11169	0	
1.8420	0.493253	-3.95608	0	
1.8427	2.62203	-4.86491	0	
1.8433	2.62203	-4.86491	0	
1.8440	9.94293	-4.86491	0	
1.8447	19.3926	-4.25011	0	
1.8453	25.2078	-4.86491	0	
1.8460	27.9596	-7.61813	0	
1.8467	27.3366	-6.7093	0	
1.8473	24.5847	-0.908829	0	
1.8480	21.5474	-0.294033	0	
1.8487	17.2638	-4.25011	0	
1.8493	13.9149	-3.34128	0	
1.8500	12.3832	-0.588066	0	
1.8507	8.09973	0.935559	0	
1.8513	2.62203	4.27684	0	
1.8520	-0.726899	5.2124	0	
1.8527	-2.88163	1.55036	0	
1.8533	-9.29392	-0.294033	0	
1.8540	-18.4321	1.22959	0	
1.8547	-26.6876	1.55036	0	
1.8553	-31.2566	1.55036	0	
1.8560	-28.5048	1.84439	0	
1.8567	-22.7156	1.55036	0	
1.8573	-19.6522	1.55036	0	
1.8580	-18.4321	0.614796	0	
1.8587	-15.6802	-2.11169	0	
1.8593	-12.3313	-2.72649	0	
1.8600	-9.29392	-2.11169	0	
1.8607	-7.45071	-3.34128	0	
1.8613	-5.91903	-4.86491	0	
1.8620	-3.47873	-4.86491	0	
1.8627	-1.03843	-2.72649	0	
1.8633	1.7134	-0.588066	0	
1.8640	9.03431	-2.43245	0	
1.8647	17.2638	-3.04725	0	
1.8653	20.0157	-0.294033	0	
1.8660	20.0157	-1.20286	0	
1.8667	20.9243	-3.95608	0	
1.8673	19.3926	-0.908829	0	
1.8680	15.1351	2.16515	0	
1.8687	13.6034	1.22959	0	
1.8693	12.6948	1.55036	0	
1.8700	9.94293	3.68878	0	
1.8707	7.50263	3.98281	0	
1.8713	4.43927	4.59761	0	
1.8720	-0.441331	6.12123	0	
1.8727	-2.57011	5.50643	0	
1.8733	-2.88163	3.98281	0	
1.8740	-8.35933	4.27684	0	
1.8747	-17.5234	7.03006	0	
1.8753	-22.7156	8.25965	0	
1.8760	-21.1839	7.03006	0	
1.8767	-17.2119	5.2124	0	
1.8773	-13.863	3.98281	0	
1.8780	-12.0198	0.614796	0	
1.8787	-9.89101	-3.95608	0	
1.8793	-6.54209	-5.77374	0	
1.8800	-4.69888	-5.77374	0	
1.8807	-4.10178	-5.77374	0	
1.8813	-1.94705	-5.77374	0	
1.8820	-0.441331	-5.15894	0	
1.8827	-4.69888	-4.86491	0	
1.8833	-8.35933	-5.4797	0	
1.8840	-1.03843	-4.86491	0	
1.8847	9.31988	-6.0945	0	
1.8853	13.6034	-7.91216	0	
1.8860	16.3552	-5.77374	0	
1.8867	20.3272	-4.57088	0	
1.8873	20.0157	-9.14175	0	
1.8880	16.0437	-9.14175	0	
1.8887	13.9149	-3.63532	0	
1.8893	12.3832	-4.57088	0	
1.8900	9.03431	-8.52695	0	
1.8907	5.37386	-5.77374	0	
1.8913	2.3105	-2.11169	0	
1.8920	0.181725	-2.11169	0	
1.8927	-1.94705	-1.81766	0	
1.8933	-5.63346	-0.908829	0	
1.8940	-10.7996	1.55036	0	
1.8947	-17.835	5.2124	0	
1.8953	-23.9357	5.8272	0	
1.8960	-25.4674	5.50643	0	
1.8967	-23.6242	6.12123	0	
1.8973	-20.5868	2.75322	0	
1.8980	-17.2119	-0.588066	0	
1.8987	-13.2399	0.0267303	0	
1.8993	-7.45071	0.0267303	0	
1.9000	-3.1672	-1.20286	0	
1.9007	-4.41331	0.935559	0	
1.9013	-5.01041	-0.588066	0	
1.9020	-2.25858	-4.25011	0	
1.9027	-0.726899	-3.04725	0	
1.9033	-0.129803	-2.11169	0	
1.9040	3.53065	-6.0945	0	
1.9047	10.54	-7.29736	0	
1.9053	17.2638	-5.77374	0	
1.9060	20.3272	-5.77374	0	
1.9067	19.3926	-3.95608	0	
1.9073	18.1725	-3.04725	0	
1.9080	17.5754	-3.34128	0	
1.9087	13.9149	-0.294033	0	
1.9093	9.03431	0.614796	0	
1.9100	6.28248	-3.95608	0	
1.9107	4.15371	-3.34128	0	
1.9113	1.99897	1.22959	0	
1.9120	-0.129803	0.935559	0	
1.9127	-1.34995	0.320763	0	
1.9133	-3.47873	0.935559	0	
1.9140	-10.2025	0.614796	0	
1.9147	-17.5234	3.36801	0	
1.9153	-19.6522	5.50643	0	
1.9160	-20.2753	1.84439	0	
1.9167	-21.1839	0.935559	0	
1.9173	-17.835	3.36801	0	
1.9180	-13.5515	-0.294033	0	
1.9187	-12.6428	-4.86491	0	
1.9193	-11.1112	-3.04725	0	
1.9200	-8.07377	-1.20286	0	
1.9207	-6.54209	-2.43245	0	
1.9213	-3.47873	-1.20286	0	
1.9220	1.09035	-0.294033	0	
1.9227	2.62203	-1.20286	0	
1.9233	4.15371	-1.81766	0	
1.9240	11.7861	-3.04725	0	
1.9247	18.1725	-5.4797	0	
1.9253	18.1725	-5.15894	0	
1.9260	18.1725	-5.4797	0	
1.9267	20.9243	-7.00333	0	
1.9273	20.0157	-4.86491	0	
1.9280	14.8235	-1.20286	0	
1.9287	10.8516	-1.20286	0	
1.9293	9.03431	-1.20286	0	
1.9300	8.72278	0.320763	0	
1.9307	8.09973	1.84439	0	
1.9313	5.06233	4.59761	0	
1.9320	1.7134	5.50643	0	
1.9327	-1.03843	1.55036	0	
1.9333	-3.79026	-0.294033	0	
1.9340	-10.7996	3.07398	0	
1.9347	-20.2753	5.2124	0	
1.9353	-24.8444	4.59761	0	
1.9360	-21.807	4.59761	0	
1.9367	-17.5234	6.41526	0	
1.9373	-15.6802	8.55368	0	
1.9380	-14.7716	7.03006	0	
1.9387	-15.6802	4.27684	0	
1.9393	-14.1745	2.45918	0	
1.9400	-7.45071	0.614796	0	
1.9407	-1.34995	-1.20286	0	
1.9413	-0.726899	-1.20286	0	
1.9420	1.7134	-1.20286	0	
1.9427	5.37386	-1.49689	0	
1.9433	5.97095	-2.43245	0	
1.9440	9.31988	-5.77374	0	
1.9447	19.107	-7.00333	0	
1.9453	23.9877	-5.4797	0	
1.9460	21.5474	-5.77374	0	
1.9467	23.0531	-4.86491	0	
1.9473	25.2078	-0.908829	0	
1.9480	20.0157	0.614796	0	
1.9487	14.512	-0.294033	0	
1.9493	13.9149	1.55036	0	
1.9500	13.2919	1.55036	0	
1.9507	10.54	2.45918	0	
1.9513	7.1911	5.2124	0	
1.9520	2.93355	4.59761	0	
1.9527	-0.441331	3.98281	0	
1.9533	-4.69888	5.50643	0	
1.9540	-12.6428	3.68878	0	
1.9547	-20.5868	4.59761	0	
1.9553	-24.8444	10.6921	0	
1.9560	-26.6876	9.16848	0	
1.9567	-26.376	1.84439	0	
1.9573	-24.2473	1.84439	0	
1.9580	-22.0925	3.68878	0	
1.9587	-19.3667	0.935559	0	
1.9593	-14.7716	-1.81766	0	
1.9600	-11.4227	-2.43245	0	
1.9607	-10.2025	-3.04725	0	
1.9613	-6.23056	-3.95608	0	
1.9620	-0.129803	-3.63532	0	
1.9627	0.77882	-1.49689	0	
1.9633	1.7134	-1.20286	0	
1.9640	9.94293	-3.95608	0	
1.9647	19.107	-5.77374	0	
1.9653	22.1444	-7.00333	0	
1.9660	21.8329	-8.23292	0	
1.9667	20.0157	-5.15894	0	
1.9673	18.7955	-1.49689	0	
1.9680	18.484	-1.20286	0	
1.9687	16.6667	-0.588066	0	
1.9693	12.6948	0.0267303	0	
1.9700	8.41125	-1.81766	0	
1.9707	3.53065	-1.20286	0	
1.9713	1.7134	1.55036	0	
1.9720	3.21912	0.935559	0	
1.9727	2.3105	-1.49689	0	
1.9733	-4.69888	-2.72649	0	
1.9740	-13.2399	-2.11169	0	
1.9747	-22.0925	-0.588066	0	
1.9753	-26.6876	2.45918	0	
1.9760	-24.8444	6.12123	0	
1.9767	-23.0271	7.03006	0	
1.9773	-21.807	4.27684	0	
1.9780	-16.9004	1.84439	0	
1.9787	-10.7996	2.45918	0	
1.9793	-8.67086	2.45918	0	
1.9800	-6.54209	0.935559	0	
1.9807	-1.94705	0.320763	0	
1.9813	0.493253	-0.908829	0	
1.9820	1.7134	-3.34128	0	
1.9827	5.97095	-4.25011	0	
1.9833	13.0063	-4.86491	0	
1.9840	20.0157	-7.00333	0	
1.9847	26.428	-6.38853	0	
1.9853	30.997	-4.86491	0	
1.9860	32.2172	-4.57088	0	
1.9867	29.7769	-2.11169	0	
1.9873	23.9877	2.75322	0	
1.9880	17.2638	3.68878	0	
1.9887	14.512	2.45918	0	
1.9893	14.512	4.89164	0	
1.9900	10.54	7.64486	0	
1.9907	5.37386	7.03006	0	
1.9913	5.97095	7.03006	0	
1.9920	8.09973	5.50643	0	
1.9927	5.97095	-0.294033	0	
1.9933	2.3105	-0.294033	0	
1.9940	-1.66148	5.50643	0	
1.9947	-5.32194	5.8272	0	
1.9953	-3.47873	2.45918	0	
1.9960	1.09035	3.36801	0	
1.9967	-0.726899	4.59761	0	
1.9973	-5.01041	3.68878	0	
1.9980	-4.10178	3.68878	0	
1.9987	-2.88163	1.55036	0	
1.9993	-5.32194	-3.95608	0	
2.0000	-8.98239	-5.4797	0	
2.0007	-12.0198	-1.81766	0	
2.0013	-13.863	-2.11169	0	
2.0020	-16.3033	-5.4797	0	
2.0027	-20.2753	-4.86491	0	
2.0033	-16.6148	-1.81766	0	
2.0040	-4.10178	-2.11169	0	
2.0047	3.84218	-3.95608	0	
2.0053	6.28248	-3.34128	0	
2.0060	9.03431	-2.11169	0	
2.0067	9.94293	-1.20286	0	
2.0073	8.09973	-0.294033	0	
2.0080	5.37386	1.55036	0	
2.0087	1.40188	2.16515	0	
2.0093	-1.66148	1.22959	0	
2.0100	-1.03843	-0.908829	0	
2.0107	-1.03843	-2.72649	0	
2.0113	-3.1672	-2.43245	0	
2.0120	-3.79026	-1.20286	0	
2.0127	-4.69888	-2.11169	0	
2.0133	-7.76224	-1.81766	0	
2.0140	-12.0198	1.55036	0	
2.0147	-18.1465	3.36801	0	
2.0153	-23.6242	2.75322	0	
2.0160	-25.1559	5.8272	0	
2.0167	-23.3127	7.35082	0	
2.0173	-20.8724	2.45918	0	
2.0180	-16.9004	-0.908829	0	
2.0187	-11.1112	1.22959	0	
2.0193	-5.63346	0.614796	0	
2.0200	-3.47873	-2.43245	0	
2.0207	-2.25858	-2.11169	0	
2.0213	0.77882	-0.294033	0	
2.0220	4.43927	-0.588066	0	
2.0227	5.06233	-1.49689	0	
2.0233	6.59401	-2.11169	0	
2.0240	12.3832	-3.34128	0	
2.0247	17.8869	-6.0945	0	
2.0253	22.1444	-6.38853	0	
2.0260	27.0251	-3.95608	0	
2.0267	27.3366	-3.34128	0	
2.0273	22.7675	-3.04725	0	
2.0280	20.0157	-1.49689	0	
2.0287	16.9523	-1.20286	0	
2.0293	11.1631	-0.908829	0	
2.0300	9.03431	0.935559	0	
2.0307	11.7861	1.22959	0	
2.0313	8.41125	1.55036	0	
2.0320	-0.726899	3.36801	0	
2.0327	-4.41331	3.36801	0	
2.0333	-2.57011	3.98281	0	
2.0340	-5.01041	6.12123	0	
2.0347	-12.9544	7.03006	0	
2.0353	-18.4321	7.93889	0	
2.0360	-19.3667	8.87445	0	
2.0367	-19.6522	6.12123	0	
2.0373	-18.4321	3.36801	0	
2.0380	-14.7716	3.98281	0	
2.0387	-11.7342	2.16515	0	
2.0393	-9.57948	0.614796	0	
2.0400	-8.67086	1.55036	0	
2.0407	-10.2025	-0.588066	0	
2.0413	-11.4227	-3.95608	0	
2.0420	-10.5141	-2.11169	0	
2.0427	-8.98239	-1.81766	0	
2.0433	-2.88163	-5.77374	0	
2.0440	10.8516	-6.7093	0	
2.0447	21.8329	-5.77374	0	
2.0453	24.5847	-7.61813	0	
2.0460	24.5847	-7.61813	0	
2.0467	23.3646	-5.4797	0	
2.0473	21.2358	-4.86491	0	
2.0480	20.6128	-3.34128	0	
2.0487	15.7322	-0.908829	0	
2.0493	8.09973	-0.294033	0	
2.0500	5.65942	-0.294033	0	
2.0507	5.06233	-0.294033	0	
2.0513	1.40188	0.614796	0	
2.0520	-0.129803	1.22959	0	
2.0527	-1.03843	-0.294033	0	
2.0533	-5.91903	-3.04725	0	
2.0540	-13.863	-2.11169	0	
2.0547	-21.1839	0.320763	0	
2.0553	-25.753	0.614796	0	
2.0560	-27.5962	1.55036	0	
2.0567	-27.2847	2.75322	0	
2.0573	-24.8444	1.55036	0	
2.0580	-19.9638	-0.588066	0	
2.0587	-14.7716	-0.294033	0	
2.0593	-12.6428	-0.908829	0	
2.0600	-10.7996	-2.11169	0	
2.0607	-8.67086	-1.49689	0	
2.0613	-6.85362	-1.81766	0	
2.0620	-4.69888	-3.63532	0	
2.0627	-2.88163	-3.04725	0	
2.0633	0.77882	-1.49689	0	
2.0640	9.03431	-2.72649	0	
2.0647	18.484	-3.34128	0	
2.0653	20.9243	-1.49689	0	
2.0660	20.0157	-0.908829	0	
2.0667	19.107	-3.34128	0	
2.0673	15.4466	-6.0945	0	
2.0680	11.7861	-5.4797	0	
2.0687	13.6034	-3.34128	0	
2.0693	13.0063	-3.63532	0	
2.0700	6.59401	-3.34128	0	
2.0707	2.62203	0.320763	0	
2.0713	2.62203	2.75322	0	
2.0720	1.99897	2.16515	0	
2.0727	0.181725	2.16515	0	
2.0733	-2.88163	4.89164	0	
2.0740	-10.7996	8.55368	0	
2.0747	-19.0551	10.0773	0	
2.0753	-22.0925	7.64486	0	
2.0760	-22.4041	4.89164	0	
2.0767	-23.0271	5.50643	0	
2.0773	-23.0271	5.50643	0	
2.0780	-20.5868	2.45918	0	
2.0787	-15.6802	-0.908829	0	
2.0793	-9.57948	-3.34128	0	
2.0800	-5.01041	-6.38853	0	
2.0807	-2.57011	-6.7093	0	
2.0813	-1.34995	-3.04725	0	
2.0820	-1.94705	-1.20286	0	
2.0827	-2.88163	-3.95608	0	
2.0833	-0.129803	-5.77374	0	
2.0840	8.09973	-5.4797	0	
2.0847	17.2638	-5.77374	0	
2.0853	21.8329	-4.57088	0	
2.0860	23.6761	-2.11169	0	
2.0867	21.2358	-2.72649	0	
2.0873	16.6667	-3.95608	0	
2.0880	13.6034	-2.11169	0	
2.0887	12.3832	-2.11169	0	
2.0893	9.03431	-4.25011	0	
2.0900	6.28248	-4.86491	0	
2.0907	5.97095	-3.95608	0	
2.0913	4.43927	-2.11169	0	
2.0920	-0.129803	0.614796	0	
2.0927	-3.79026	0.614796	0	
2.0933	-7.13918	-0.588066	0	
2.0940	-12.0198	2.16515	0	
2.0947	-20.2753	3.68878	0	
2.0953	-26.9731	0.614796	0	
2.0960	-27.5962	0.614796	0	
2.0967	-24.5328	4.89164	0	
2.0973	-23.0271	3.68878	0	
2.0980	-19.3667	-0.294033	0	
2.0987	-12.6428	0.0267303	0	
2.0993	-10.2025	0.614796	0	
2.1000	-9.57948	-0.908829	0	
2.1007	-4.10178	-0.294033	0	
2.1013	0.181725	0.614796	0	
2.1020	1.40188	-1.49689	0	
2.1027	3.53065	-1.20286	0	
2.1033	5.06233	0.614796	0	
2.1040	8.09973	-1.20286	0	
2.1047	18.1725	-2.11169	0	
2.1053	24.5847	-0.294033	0	
2.1060	21.8329	-0.588066	0	
2.1067	21.5474	-3.04725	0	
2.1073	23.3646	-1.49689	0	
2.1080	18.484	0.0267303	0	
2.1087	12.6948	-1.81766	0	
2.1093	9.63141	-2.43245	0	
2.1100	7.1911	-0.294033	0	
2.1107	5.65942	1.55036	0	
2.1113	4.43927	3.36801	0	
2.1120	2.93355	6.41526	0	
2.1127	4.43927	5.2124	0	
2.1133	3.53065	1.22959	0	
2.1140	-4.69888	1.84439	0	
2.1147	-14.4601	5.2124	0	
2.1153	-17.5234	3.36801	0	
2.1160	-16.9004	-0.294033	0	
2.1167	-16.6148	1.55036	0	
2.1173	-15.6802	3.98281	0	
2.1180	-12.0198	2.16515	0	
2.1187	-7.45071	0.614796	0	
2.1193	-3.1672	2.75322	0	
2.1200	-0.726899	3.98281	0	
2.1207	0.181725	2.45918	0	
2.1213	0.77882	-1.20286	0	
2.1220	0.77882	-4.57088	0	
2.1227	0.493253	-4.57088	0	
2.1233	2.62203	-3.04725	0	
2.1240	9.03431	-4.86491	0	
2.1247	18.7955	-7.61813	0	
2.1253	25.5193	-7.61813	0	
2.1260	25.8049	-8.82099	0	
2.1267	22.456	-9.14175	0	
2.1273	20.6128	-3.04725	0	
2.1280	19.7041	-0.294033	0	
2.1287	17.2638	-3.34128	0	
2.1293	16.0437	-0.908829	0	
2.1300	15.4466	3.98281	0	
2.1307	12.0717	0.320763	0	
2.1313	11.4746	-3.34128	0	
2.1320	13.0063	-1.20286	0	
2.1327	9.31988	-1.20286	0	
2.1333	1.09035	-3.34128	0	
2.1340	-7.76224	-2.11169	0	
2.1347	-18.4321	0.320763	0	
2.1353	-27.5962	1.55036	0	
2.1360	-31.2566	1.84439	0	
2.1367	-31.2566	0.320763	0	
2.1373	-30.348	-1.81766	0	
2.1380	-30.348	-1.81766	0	
2.1387	-29.4134	-1.81766	0	
2.1393	-23.0271	-3.95608	0	
2.1400	-15.3947	-3.95608	0	
2.1407	-12.9544	-1.20286	0	
2.1413	-10.7996	0.614796	0	
2.1420	-4.41331	-0.588066	0	
2.1427	1.7134	-0.294033	0	
2.1433	4.15371	0.935559	0	
2.1440	8.09973	-3.04725	0	
2.1447	14.512	-6.7093	0	
2.1453	18.7955	-5.15894	0	
2.1460	18.7955	-3.34128	0	
2.1467	17.2638	-3.95608	0	
2.1473	15.7322	-2.72649	0	
2.1480	13.6034	0.935559	0	
2.1487	10.8516	1.22959	0	
2.1493	6.59401	-2.11169	0	
2.1500	3.21912	-2.11169	0	
2.1507	2.3105	0.614796	0	
2.1513	0.181725	1.22959	0	
2.1520	-2.88163	0.614796	0	
2.1527	-1.94705	1.22959	0	
2.1533	-1.34995	1.84439	0	
2.1540	-9.89101	3.36801	0	
2.1547	-21.1839	7.35082	0	
2.1553	-24.5328	8.55368	0	
2.1560	-23.0271	7.03006	0	
2.1567	-23.3127	6.41526	0	
2.1573	-20.5868	4.89164	0	
2.1580	-14.1745	2.45918	0	
2.1587	-13.863	2.45918	0	
2.1593	-16.6148	2.45918	0	
2.1600	-12.9544	0.614796	0	
2.1607	-9.29392	-0.294033	0	
2.1613	-9.29392	0.614796	0	
2.1620	-5.63346	1.22959	0	
2.1627	-1.34995	-0.908829	0	
2.1633	-0.726899	-3.04725	0	
2.1640	5.06233	-2.43245	0	
2.1647	15.1351	-2.11169	0	
2.1653	18.484	-3.04725	0	
2.1660	19.3926	-1.81766	0	
2.1667	20.6128	-1.49689	0	
2.1673	16.6667	-3.63532	0	
2.1680	13.0063	-2.72649	0	
2.1687	12.6948	-0.588066	0	
2.1693	7.81416	-1.20286	0	
2.1700	1.99897	-0.294033	0	
2.1707	0.77882	2.75322	0	
2.1713	-1.03843	2.75322	0	
2.1720	-3.79026	0.614796	0	
2.1727	-2.88163	-0.294033	0	
2.1733	-6.54209	1.55036	0	
2.1740	-14.7716	3.68878	0	
2.1747	-19.9638	4.59761	0	
2.1753	-23.0271	5.2124	0	
2.1760	-25.4674	6.12123	0	
2.1767	-23.0271	3.36801	0	
2.1773	-19.3667	0.935559	0	
2.1780	-15.6802	2.45918	0	
2.1787	-9.29392	0.0267303	0	
2.1793	-3.79026	-4.25011	0	
2.1800	-1.34995	-1.81766	0	
2.1807	0.181725	1.55036	0	
2.1813	1.40188	-1.81766	0	
2.1820	3.21912	-2.72649	0	
2.1827	6.28248	0.614796	0	
2.1833	8.09973	0.935559	0	
2.1840	12.3832	-0.294033	0	
2.1847	20.6128	0.0267303	0	
2.1853	25.8049	-0.908829	0	
2.1860	26.428	-0.588066	0	
2.1867	27.0251	0.614796	0	
2.1873	25.2078	-1.20286	0	
2.1880	20.6128	0.320763	0	
2.1887	16.6667	5.8272	0	
2.1893	11.7861	7.64486	0	
2.1900	8.09973	5.2124	0	
2.1907	9.31988	5.2124	0	
2.1913	7.81416	6.12123	0	
2.1920	1.40188	3.68878	0	
2.1927	-1.94705	-0.908829	0	
2.1933	-3.47873	-2.11169	0	
2.1940	-9.89101	2.45918	0	
2.1947	-15.9918	4.89164	0	
2.1953	-18.1465	1.22959	0	
2.1960	-19.9638	-0.588066	0	
2.1967	-20.8724	1.22959	0	
2.1973	-18.1465	0.614796	0	
2.1980	-14.7716	-1.20286	0	
2.1987	-12.6428	-1.49689	0	
2.1993	-9.89101	-0.294033	0	
2.2000	-4.69888	0.320763	0	
2.2007	-0.441331	-1.20286	0	
2.2013	-0.129803	-2.11169	0	
2.2020	0.493253	-1.81766	0	
2.2027	4.43927	-3.04725	0	
2.2033	8.09973	-4.25011	0	
2.2040	11.7861	-4.57088	0	
2.2047	19.3926	-6.7093	0	
2.2053	24.8963	-7.29736	0	
2.2060	24.8963	-3.95608	0	
2.2067	23.9877	-2.11169	0	
2.2073	22.1444	-2.72649	0	
2.2080	17.2638	-0.588066	0	
2.2087	12.6948	0.614796	0	
2.2093	8.09973	-0.908829	0	
2.2100	5.37386	0.614796	0	
2.2107	6.28248	2.45918	0	
2.2113	4.7508	0.935559	0	
2.2120	1.40188	0.614796	0	
2.2127	1.7134	2.75322	0	
2.2133	1.7134	3.98281	0	
2.2140	-5.91903	3.68878	0	
2.2147	-14.7716	4.27684	0	
2.2153	-17.5234	5.8272	0	
2.2160	-16.6148	6.73603	0	
2.2167	-15.9918	5.8272	0	
2.2173	-13.863	2.45918	0	
2.2180	-8.98239	0.614796	0	
2.2187	-5.01041	1.84439	0	
2.2193	-3.79026	2.16515	0	
2.2200	-3.79026	-1.49689	0	
2.2207	-4.69888	-4.86491	0	
2.2213	-4.69888	-5.15894	0	
2.2220	-3.1672	-5.77374	0	
2.2227	-4.10178	-6.0945	0	
2.2233	-4.69888	-3.95608	0	
2.2240	1.40188	-3.04725	0	
2.2247	9.94293	-4.86491	0	
2.2253	15.7322	-4.25011	0	
2.2260	19.7041	-2.72649	0	
2.2267	19.7041	-2.72649	0	
2.2273	16.0437	-2.11169	0	
2.2280	12.3832	-2.43245	0	
2.2287	9.31988	-3.63532	0	
2.2293	9.31988	-1.20286	0	
2.2300	12.6948	-0.588066	0	
2.2307	10.54	-4.86491	0	
2.2313	4.43927	-5.15894	0	
2.2320	2.3105	-1.20286	0	
2.2327	1.7134	-3.95608	0	
2.2333	-2.88163	-6.0945	0	
2.2340	-9.29392	-1.49689	0	
2.2347	-16.3033	1.55036	0	
2.2353	-21.807	0.935559	0	
2.2360	-25.4674	4.89164	0	
2.2367	-28.8163	7.35082	0	
2.2373	-28.1933	1.55036	0	
2.2380	-21.807	-5.77374	0	
2.2387	-16.6148	-7.00333	0	
2.2393	-13.863	-5.4797	0	
2.2400	-10.2025	-4.86491	0	
2.2407	-8.35933	-4.86491	0	
2.2413	-6.23056	-3.95608	0	
2.2420	-0.129803	-2.72649	0	
2.2427	5.37386	-1.20286	0	
2.2433	8.41125	-1.20286	0	
2.2440	12.6948	-3.04725	0	
2.2447	19.107	-5.15894	0	
2.2453	24.8963	-4.86491	0	
2.2460	25.5193	-3.04725	0	
2.2467	22.1444	-2.72649	0	
2.2473	19.107	-6.0945	0	
2.2480	11.7861	-8.82099	0	
2.2487	1.40188	-7.29736	0	
2.2493	-0.129803	-3.95608	0	
2.2500	3.84218	-2.43245	0	
2.2507	1.09035	-1.49689	0	
2.2513	-2.88163	-0.294033	0	
2.2520	-1.94705	0.935559	0	
2.2527	-2.57011	2.45918	0	
2.2533	-6.54209	3.36801	0	
2.2540	-10.2025	3.07398	0	
2.2547	-15.3947	3.36801	0	
2.2553	-19.6522	5.2124	0	
2.2560	-20.8724	4.59761	0	
2.2567	-21.807	2.45918	0	
2.2573	-21.807	3.36801	0	
2.2580	-17.835	4.27684	0	
2.2587	-13.2399	2.45918	0	
2.2593	-11.1112	2.75322	0	
2.2600	-8.98239	4.59761	0	
2.2607	-4.69888	3.36801	0	
2.2613	-1.03843	0.935559	0	
2.2620	2.62203	1.22959	0	
2.2627	3.84218	2.75322	0	
2.2633	4.43927	2.45918	0	
2.2640	10.8516	-0.294033	0	
2.2647	20.3272	-3.04725	0	
2.2653	22.7675	-3.95608	0	
2.2660	20.3272	-3.95608	0	
2.2667	22.456	-2.43245	0	
2.2673	23.3646	-1.20286	0	
2.2680	17.8869	-1.81766	0	
2.2687	9.94293	-1.81766	0	
2.2693	3.53065	-1.20286	0	
2.2700	-0.129803	-2.72649	0	
2.2707	-2.88163	-3.95608	0	
2.2713	-6.54209	-1.49689	0	
2.2720	-7.13918	0.0267303	0	
2.2727	-5.01041	-1.20286	0	
2.2733	-8.98239	-0.908829	0	
2.2740	-16.6148	1.55036	0	
2.2747	-21.1839	2.45918	0	
2.2753	-23.9357	1.22959	0	
2.2760	-25.4674	0.614796	0	
2.2767	-23.0271	0.0267303	0	
2.2773	-21.1839	-1.20286	0	
2.2780	-21.1839	-3.34128	0	
2.2787	-16.9004	-4.86491	0	
2.2793	-11.1112	-4.25011	0	
2.2800	-7.13918	-3.34128	0	
2.2807	-2.57011	-3.95608	0	
2.2813	-0.129803	-3.95608	0	
2.2820	-0.441331	-1.49689	0	
2.2827	1.40188	-2.43245	0	
2.2833	5.06233	-3.95608	0	
2.2840	9.31988	-1.81766	0	
2.2847	15.4466	-3.34128	0	
2.2853	19.7041	-7.61813	0	
2.2860	20.9243	-4.86491	0	
2.2867	21.2358	-0.588066	0	
2.2873	16.9523	-1.81766	0	
2.2880	9.31988	-0.294033	0	
2.2887	7.50263	4.89164	0	
2.2893	7.1911	4.59761	0	
2.2900	3.21912	3.07398	0	
2.2907	2.62203	4.59761	0	
2.2913	5.06233	3.98281	0	
2.2920	1.7134	3.98281	0	
2.2927	-1.66148	6.41526	0	
2.2933	0.77882	6.73603	0	
2.2940	-3.79026	7.03006	0	
2.2947	-15.0831	8.25965	0	
2.2953	-19.3667	7.03006	0	
2.2960	-20.8724	6.41526	0	
2.2967	-24.8444	7.03006	0	
2.2973	-24.2473	3.36801	0	
2.2980	-20.8724	1.55036	0	
2.2987	-19.9638	3.07398	0	
2.2993	-16.6148	1.55036	0	
2.3000	-11.7342	-0.294033	0	
2.3007	-9.29392	2.75322	0	
2.3013	-5.91903	4.27684	0	
2.3020	0.181725	-0.294033	0	
2.3027	3.84218	-4.57088	0	
2.3033	5.65942	-4.57088	0	
2.3040	10.8516	-3.95608	0	
2.3047	18.1725	-4.57088	0	
2.3053	23.3646	-5.15894	0	
2.3060	25.2078	-4.57088	0	
2.3067	26.1164	-4.57088	0	
2.3073	25.2078	-5.77374	0	
2.3080	21.2358	-6.0945	0	
2.3087	18.1725	-4.25011	0	
2.3093	16.9523	-1.49689	0	
2.3100	14.512	-0.908829	0	
2.3107	11.1631	-1.81766	0	
2.3113	9.03431	-0.588066	0	
2.3120	5.65942	1.22959	0	
2.3127	3.84218	3.36801	0	
2.3133	3.53065	6.73603	0	
2.3140	-2.88163	7.93889	0	
2.3147	-14.1745	6.73603	0	
2.3153	-18.7436	5.2124	0	
2.3160	-18.4321	3.07398	0	
2.3167	-18.4321	1.55036	0	
2.3173	-16.6148	2.45918	0	
2.3180	-13.863	1.55036	0	
2.3187	-11.4227	-1.49689	0	
2.3193	-9.89101	-2.43245	0	
2.3200	-8.98239	-2.72649	0	
2.3207	-7.13918	-3.34128	0	
2.3213	-2.88163	-2.11169	0	
2.3220	-0.129803	0.614796	0	
2.3227	1.09035	0.935559	0	
2.3233	4.15371	-1.20286	0	
2.3240	9.63141	-3.34128	0	
2.3247	15.7322	-1.49689	0	
2.3253	20.3272	0.320763	0	
2.3260	20.6128	-1.81766	0	
2.3267	20.0157	-3.04725	0	
2.3273	20.3272	-1.49689	0	
2.3280	17.5754	-1.20286	0	
2.3287	13.0063	-2.11169	0	
2.3293	10.54	-3.34128	0	
2.3300	8.41125	-4.25011	0	
2.3307	5.65942	-3.04725	0	
2.3313	3.53065	0.0267303	0	
2.3320	1.7134	1.84439	0	
2.3327	0.181725	2.45918	0	
2.3333	-0.129803	0.614796	0	
2.3340	-4.69888	-2.43245	0	
2.3347	-15.0831	-2.11169	0	
2.3353	-24.8444	-0.908829	0	
2.3360	-27.5962	-0.908829	0	
2.3367	-24.8444	0.614796	0	
2.3373	-21.4954	0.614796	0	
2.3380	-18.4321	-1.20286	0	
2.3387	-14.7716	-0.294033	0	
2.3393	-12.0198	1.55036	0	
2.3400	-8.98239	-0.294033	0	
2.3407	-5.63346	-1.20286	0	
2.3413	-2.88163	-0.588066	0	
2.3420	-1.66148	-1.81766	0	
2.3427	-0.441331	-2.11169	0	
2.3433	1.99897	-1.20286	0	
2.3440	7.1911	-3.04725	0	
2.3447	14.8235	-4.57088	0	
2.3453	20.9243	-3.95608	0	
2.3460	22.7675	-3.04725	0	
2.3467	20.3272	-4.25011	0	
2.3473	19.107	-5.77374	0	
2.3480	20.0157	-3.95608	0	
2.3487	16.6667	-1.20286	0	
2.3493	9.31988	0.0267303	0	
2.3500	6.28248	1.84439	0	
2.3507	5.37386	3.36801	0	
2.3513	3.21912	1.84439	0	
2.3520	1.09035	-0.294033	0	
2.3527	-0.441331	-0.908829	0	
2.3533	-3.47873	0.0267303	0	
2.3540	-9.29392	2.45918	0	
2.3547	-18.4321	4.27684	0	
2.3553	-26.6876	4.27684	0	
2.3560	-28.1933	4.27684	0	
2.3567	-25.4674	2.75322	0	
2.3573	-23.6242	0.320763	0	
2.3580	-21.807	0.320763	0	
2.3587	-19.0551	1.84439	0	
2.3593	-15.3947	1.55036	0	
2.3600	-11.7342	0.614796	0	
2.3607	-9.29392	-1.20286	0	
2.3613	-6.23056	-3.34128	0	
2.3620	-1.66148	-1.49689	0	
2.3627	-0.129803	2.45918	0	
2.3633	1.7134	2.16515	0	
2.3640	9.03431	-0.294033	0	
2.3647	15.7322	-1.20286	0	
2.3653	19.107	-1.49689	0	
2.3660	23.0531	-3.04725	0	
2.3667	23.6761	-3.63532	0	
2.3673	18.7955	-2.72649	0	
2.3680	15.1351	-2.11169	0	
2.3687	14.2264	-2.11169	0	
2.3693	11.7861	-0.294033	0	
2.3700	8.09973	2.45918	0	
2.3707	5.37386	3.68878	0	
2.3713	3.21912	3.07398	0	
2.3720	-1.03843	2.45918	0	
2.3727	-7.45071	2.45918	0	
2.3733	-9.89101	3.36801	0	
2.3740	-10.2025	2.75322	0	
2.3747	-15.3947	-0.908829	0	
2.3753	-21.1839	-2.11169	0	
2.3760	-21.1839	-0.294033	0	
2.3767	-20.2753	0.935559	0	
2.3773	-22.0925	-0.294033	0	
2.3780	-21.807	-2.72649	0	
2.3787	-19.3667	-4.86491	0	
2.3793	-15.6802	-3.95608	0	
2.3800	-10.2025	-2.43245	0	
2.3807	-5.32194	-3.95608	0	
2.3813	-1.03843	-7.61813	0	
2.3820	2.62203	-7.91216	0	
2.3827	3.53065	-6.7093	0	
2.3833	3.53065	-6.7093	0	
2.3840	8.72278	-6.0945	0	
2.3847	18.484	-4.86491	0	
2.3853	24.8963	-5.4797	0	
2.3860	26.428	-5.77374	0	
2.3867	25.8049	-4.86491	0	
2.3873	21.2358	-4.25011	0	
2.3880	13.9149	-3.95608	0	
2.3887	7.1911	-3.95608	0	
2.3893	3.53065	-3.95608	0	
2.3900	4.43927	-3.95608	0	
2.3907	8.09973	-3.95608	0	
2.3913	8.41125	-3.63532	0	
2.3920	6.28248	-0.294033	0	
2.3927	6.28248	1.84439	0	
2.3933	3.84218	1.55036	0	
2.3940	-3.79026	3.07398	0	
2.3947	-12.0198	5.50643	0	
2.3953	-18.4321	5.2124	0	
2.3960	-23.9357	5.8272	0	
2.3967	-28.5048	8.55368	0	
2.3973	-28.5048	7.35082	0	
2.3980	-23.3127	2.45918	0	
2.3987	-18.7436	0.0267303	0	
2.3993	-15.9918	0.0267303	0	
2.4000	-11.4227	-0.294033	0	
2.4007	-7.13918	-3.04725	0	
2.4013	-4.69888	-3.95608	0	
2.4020	-1.34995	0.0267303	0	
2.4027	1.99897	2.16515	0	
2.4033	4.15371	-3.04725	0	
2.4040	9.03431	-6.7093	0	
2.4047	15.4466	-5.77374	0	
2.4053	17.8869	-6.0945	0	
2.4060	18.1725	-6.38853	0	
2.4067	20.0157	-4.25011	0	
2.4073	20.0157	-2.72649	0	
2.4080	16.3552	-1.81766	0	
2.4087	10.8516	-2.11169	0	
2.4093	6.28248	-4.86491	0	
2.4100	2.62203	-6.38853	0	
2.4107	-1.03843	-2.11169	0	
2.4113	-2.88163	2.16515	0	
2.4120	-1.94705	1.55036	0	
2.4127	-4.10178	1.22959	0	
2.4133	-6.85362	4.59761	0	
2.4140	-9.89101	6.12123	0	
2.4147	-17.5234	4.89164	0	
2.4153	-23.9357	6.12123	0	
2.4160	-23.9357	8.25965	0	
2.4167	-23.6242	7.64486	0	
2.4173	-23.9357	4.59761	0	
2.4180	-21.1839	0.614796	0	
2.4187	-16.6148	-3.63532	0	
2.4193	-10.5141	-5.15894	0	
2.4200	-4.69888	-4.57088	0	
2.4207	-3.79026	-4.86491	0	
2.4213	-4.10178	-5.15894	0	
2.4220	-1.66148	-3.04725	0	
2.4227	1.40188	-3.04725	0	
2.4233	4.7508	-5.15894	0	
2.4240	12.3832	-3.04725	0	
2.4247	19.7041	-1.20286	0	
2.4253	23.6761	-5.15894	0	
2.4260	26.7395	-5.15894	0	
2.4267	28.5567	0.320763	0	
2.4273	28.2452	1.55036	0	
2.4280	24.8963	0.935559	0	
2.4287	20.3272	1.84439	0	
2.4293	14.2264	0.614796	0	
2.4300	2.93355	1.22959	0	
2.4307	-7.45071	4.27684	0	
2.4313	-6.54209	3.07398	0	
2.4320	-3.47873	2.75322	0	
2.4327	-7.13918	5.8272	0	
2.4333	-11.4227	3.98281	0	
2.4340	-14.7716	1.84439	0	
2.4347	-22.0925	5.50643	0	
2.4353	-26.376	5.8272	0	
2.4360	-25.4674	3.07398	0	
2.4367	-26.376	4.27684	0	
2.4373	-25.753	3.36801	0	
2.4380	-20.8724	-0.294033	0	
2.4387	-16.9004	-0.908829	0	
2.4393	-12.6428	-0.588066	0	
2.4400	-5.91903	-1.20286	0	
2.4407	-2.25858	1.22959	0	
2.4413	-0.441331	1.55036	0	
2.4420	2.3105	-3.04725	0	
2.4427	4.43927	-4.25011	0	
2.4433	9.31988	-1.49689	0	
2.4440	18.1725	-1.20286	0	
2.4447	24.5847	-3.95608	0	
2.4453	26.7395	-6.0945	0	
2.4460	27.0251	-6.0945	0	
2.4467	26.7395	-4.86491	0	
2.4473	25.8049	-4.25011	0	
2.4480	24.2732	-2.72649	0	
2.4487	20.0157	1.55036	0	
2.4493	15.1351	5.8272	0	
2.4500	11.7861	7.03006	0	
2.4507	9.63141	6.12123	0	
2.4513	7.1911	6.12123	0	
2.4520	4.43927	7.35082	0	
2.4527	2.62203	8.25965	0	
2.4533	-0.129803	8.55368	0	
2.4540	-8.07377	9.48924	0	
2.4547	-17.5234	9.78328	0	
2.4553	-20.2753	7.03006	0	
2.4560	-19.6522	7.03006	0	
2.4567	-21.807	10.0773	0	
2.4573	-20.2753	10.6921	0	
2.4580	-13.863	8.55368	0	
2.4587	-10.7996	8.25965	0	
2.4593	-10.2025	7.03006	0	
2.4600	-7.45071	4.27684	0	
2.4607	-4.69888	2.45918	0	
2.4613	-2.25858	1.22959	0	
2.4620	2.62203	0.0267303	0	
2.4627	5.97095	-0.294033	0	
2.4633	8.09973	-3.04725	0	
2.4640	11.7861	-7.91216	0	
2.4647	16.3552	-7.91216	0	
2.4653	21.2358	-3.63532	0	
2.4660	24.5847	-2.11169	0	
2.4667	21.8329	-4.57088	0	
2.4673	15.4466	-5.77374	0	
2.4680	9.94293	-4.86491	0	
2.4687	6.59401	-3.95608	0	
2.4693	4.15371	-2.72649	0	
2.4700	1.99897	0.0267303	0	
2.4707	0.181725	1.84439	0	
2.4713	-0.129803	2.75322	0	
2.4720	-1.34995	4.27684	0	
2.4727	-2.88163	5.2124	0	
2.4733	-3.1672	3.98281	0	
2.4740	-7.76224	3.36801	0	
2.4747	-15.6802	3.98281	0	
2.4753	-20.5868	3.98281	0	
2.4760	-23.0271	3.36801	0	
2.4767	-24.2473	2.45918	0	
2.4773	-20.8724	1.84439	0	
2.4780	-17.5234	2.16515	0	
2.4787	-17.5234	0.0267303	0	
2.4793	-12.0198	-4.86491	0	
2.4800	-3.47873	-5.4797	0	
2.4807	-0.129803	-2.11169	0	
2.4813	0.493253	-1.20286	0	
2.4820	1.99897	-3.04725	0	
2.4827	2.3105	-3.95608	0	
2.4833	4.7508	-6.0945	0	
2.4840	14.2264	-7.61813	0	
2.4847	22.456	-7.29736	0	
2.4853	24.2732	-7.61813	0	
2.4860	23.3646	-6.7093	0	
2.4867	21.8329	-6.38853	0	
2.4873	19.7041	-7.91216	0	
2.4880	17.2638	-6.7093	0	
2.4887	13.9149	-3.04725	0	
2.4893	9.03431	-3.34128	0	
2.4900	5.37386	-5.15894	0	
2.4907	1.7134	-3.63532	0	
2.4913	-2.88163	-2.11169	0	
2.4920	-5.01041	-2.43245	0	
2.4927	-3.1672	-1.49689	0	
2.4933	-4.69888	-0.588066	0	
2.4940	-14.4601	-0.588066	0	
2.4947	-23.0271	1.55036	0	
2.4953	-23.6242	3.98281	0	
2.4960	-23.0271	2.45918	0	
2.4967	-23.3127	0.0267303	0	
2.4973	-18.4321	0.614796	0	
2.4980	-9.57948	1.55036	0	
2.4987	-4.69888	-0.294033	0	
2.4993	-3.79026	-0.588066	0	
2.5000	-2.88163	0.935559	0	
2.5007	0.181725	-0.908829	0	
2.5013	3.53065	-3.95608	0	
2.5020	4.43927	-3.04725	0	
2.5027	5.65942	-2.11169	0	
2.5033	4.43927	-3.95608	0	
2.5040	1.99897	-4.86491	0	
2.5047	6.28248	-3.63532	0	
2.5053	16.0437	-2.72649	0	
2.5060	18.7955	-3.34128	0	
2.5067	16.3552	-4.57088	0	
2.5073	16.9523	-3.95608	0	
2.5080	14.512	-1.49689	0	
2.5087	8.41125	-1.20286	0	
2.5093	6.59401	-1.20286	0	
2.5100	8.09973	0.935559	0	
2.5107	5.06233	1.55036	0	
2.5113	0.77882	0.935559	0	
2.5120	-1.66148	2.16515	0	
2.5127	-2.57011	2.75322	0	
2.5133	-3.47873	0.614796	0	
2.5140	-8.35933	-1.20286	0	
2.5147	-19.3667	-1.49689	0	
2.5153	-27.5962	-2.11169	0	
2.5160	-26.376	-1.20286	0	
2.5167	-22.0925	1.22959	0	
2.5173	-20.2753	0.0267303	0	
2.5180	-18.4321	-1.20286	0	
2.5187	-17.5234	-0.294033	0	
2.5193	-14.7716	-1.81766	0	
2.5200	-7.45071	-3.95608	0	
2.5207	-2.88163	-2.11169	0	
2.5213	-1.03843	0.0267303	0	
2.5220	1.99897	-2.11169	0	
2.5227	2.62203	-3.04725	0	
2.5233	1.09035	-2.11169	0	
2.5240	8.41125	-4.57088	0	
2.5247	18.7955	-6.7093	0	
2.5253	19.7041	-4.86491	0	
2.5260	16.9523	-5.15894	0	
2.5267	17.2638	-5.77374	0	
2.5273	15.7322	-2.72649	0	
2.5280	12.0717	-2.11169	0	
2.5287	11.7861	-4.86491	0	
2.5293	9.94293	-3.04725	0	
2.5300	2.62203	0.0267303	0	
2.5307	-2.88163	-3.95608	0	
2.5313	-3.1672	-3.95608	0	
2.5320	-3.47873	1.55036	0	
2.5327	-5.63346	0.320763	0	
2.5333	-6.54209	-3.04725	0	
2.5340	-10.2025	2.45918	0	
2.5347	-19.0551	6.41526	0	
2.5353	-25.753	4.27684	0	
2.5360	-25.4674	3.36801	0	
2.5367	-23.0271	3.36801	0	
2.5373	-22.0925	2.75322	0	
2.5380	-19.3667	4.27684	0	
2.5387	-15.0831	3.98281	0	
2.5393	-12.0198	0.0267303	0	
2.5400	-7.76224	0.320763	0	
2.5407	-2.57011	1.55036	0	
2.5413	-1.34995	0.0267303	0	
2.5420	-2.88163	0.614796	0	
2.5427	-1.34995	2.75322	0	
2.5433	2.3105	1.55036	0	
2.5440	7.50263	0.320763	0	
2.5447	14.512	0.0267303	0	
2.5453	18.484	-2.72649	0	
2.5460	20.0157	-3.63532	0	
2.5467	20.6128	0.0267303	0	
2.5473	17.2638	1.55036	0	
2.5480	12.3832	-0.588066	0	
2.5487	9.94293	0.614796	0	
2.5493	7.50263	4.27684	0	
2.5500	6.28248	3.98281	0	
2.5507	7.1911	3.68878	0	
2.5513	5.97095	7.35082	0	
2.5520	2.93355	7.93889	0	
2.5527	3.53065	5.2124	0	
2.5533	2.3105	5.8272	0	
2.5540	-4.10178	5.50643	0	
2.5547	-9.89101	3.36801	0	
2.5553	-13.863	5.2124	0	
2.5560	-18.1465	5.8272	0	
2.5567	-20.5868	1.22959	0	
2.5573	-21.807	-1.20286	0	
2.5580	-20.8724	-1.20286	0	
2.5587	-16.9004	-2.72649	0	
2.5593	-12.0198	-2.72649	0	
2.5600	-9.29392	-3.34128	0	
2.5607	-9.29392	-5.4797	0	
2.5613	-7.45071	-4.86491	0	
2.5620	-2.88163	-3.34128	0	
2.5627	0.181725	-3.95608	0	
2.5633	1.99897	-3.95608	0	
2.5640	7.50263	-2.43245	0	
2.5647	14.8235	-4.86491	0	
2.5653	18.1725	-6.7093	0	
2.5660	20.3272	-3.63532	0	
2.5667	22.7675	-0.588066	0	
2.5673	20.9243	-0.294033	0	
2.5680	16.0437	0.614796	0	
2.5687	13.6034	1.55036	0	
2.5693	12.3832	0.320763	0	
2.5700	9.94293	-2.43245	0	
2.5707	7.81416	-3.95608	0	
2.5713	5.37386	-3.95608	0	
2.5720	1.40188	-2.11169	0	
2.5727	-1.03843	-0.588066	0	
2.5733	-1.03843	0.0267303	0	
2.5740	-4.69888	0.320763	0	
2.5747	-11.4227	0.935559	0	
2.5753	-16.3033	0.935559	0	
2.5760	-20.2753	-0.294033	0	
2.5767	-21.807	0.0267303	0	
2.5773	-18.7436	1.84439	0	
2.5780	-15.9918	0.614796	0	
2.5787	-14.7716	-1.20286	0	
2.5793	-11.4227	-0.294033	0	
2.5800	-11.1112	-1.49689	0	
2.5807	-12.0198	-4.25011	0	
2.5813	-5.63346	-3.63532	0	
2.5820	2.62203	-1.49689	0	
2.5827	4.43927	-1.20286	0	
2.5833	6.28248	-0.294033	0	
2.5840	13.6034	-1.20286	0	
2.5847	21.5474	-3.63532	0	
2.5853	26.428	-4.57088	0	
2.5860	28.8683	-4.86491	0	
2.5867	27.6481	-3.95608	0	
2.5873	24.5847	-2.11169	0	
2.5880	20.9243	-2.43245	0	
2.5887	15.7322	-5.15894	0	
2.5893	11.4746	-5.77374	0	
2.5900	9.63141	-3.63532	0	
2.5907	8.09973	-1.49689	0	
2.5913	6.28248	-0.294033	0	
2.5920	5.06233	0.0267303	0	
2.5927	2.62203	0.320763	0	
2.5933	-0.129803	1.84439	0	
2.5940	-4.41331	3.68878	0	
2.5947	-12.3313	5.2124	0	
2.5953	-20.5868	6.12123	0	
2.5960	-23.6242	6.12123	0	
2.5967	-22.7156	7.03006	0	
2.5973	-20.2753	7.03006	0	
2.5980	-17.835	3.36801	0	
2.5987	-16.6148	1.22959	0	
2.5993	-14.4601	2.16515	0	
2.6000	-8.98239	1.84439	0	
2.6007	-3.79026	1.55036	0	
2.6013	-1.03843	1.84439	0	
2.6020	1.40188	0.0267303	0	
2.6027	2.62203	-0.294033	0	
2.6033	3.84218	0.935559	0	
2.6040	8.41125	-3.04725	0	
2.6047	15.7322	-7.00333	0	
2.6053	20.3272	-4.86491	0	
2.6060	20.6128	-4.25011	0	
2.6067	19.3926	-6.38853	0	
2.6073	17.8869	-3.95608	0	
2.6080	15.4466	-3.04725	0	
2.6087	12.0717	-3.95608	0	
2.6093	8.41125	-3.04725	0	
2.6100	5.06233	-0.294033	0	
2.6107	3.53065	0.935559	0	
2.6113	2.62203	3.36801	0	
2.6120	-0.129803	3.36801	0	
2.6127	-4.10178	1.55036	0	
2.6133	-6.54209	2.16515	0	
2.6140	-10.2025	2.45918	0	
2.6147	-18.4321	3.36801	0	
2.6153	-25.1559	6.73603	0	
2.6160	-25.4674	5.2124	0	
2.6167	-23.9357	0.614796	0	
2.6173	-23.0271	1.22959	0	
2.6180	-19.3667	1.84439	0	
2.6187	-14.1745	-1.81766	0	
2.6193	-11.1112	-3.63532	0	
2.6200	-7.45071	-3.04725	0	
2.6207	-3.79026	-0.588066	0	
2.6213	-2.88163	1.55036	0	
2.6220	-5.32194	-1.20286	0	
2.6227	-6.54209	-4.25011	0	
2.6233	-1.34995	-3.34128	0	
2.6240	9.03431	-2.72649	0	
2.6247	18.1725	-3.04725	0	
2.6253	23.6761	-0.294033	0	
2.6260	27.6481	0.0267303	0	
2.6267	27.3366	-0.294033	0	
2.6273	21.8329	2.75322	0	
2.6280	16.3552	2.45918	0	
2.6287	14.512	-2.72649	0	
2.6293	13.6034	-3.04725	0	
2.6300	12.0717	-2.43245	0	
2.6307	6.87958	-6.0945	0	
2.6313	0.77882	-3.95608	0	
2.6320	-2.25858	1.84439	0	
2.6327	-3.79026	0.614796	0	
2.6333	-7.45071	-1.49689	0	
2.6340	-13.863	0.614796	0	
2.6347	-21.4954	2.45918	0	
2.6353	-23.9357	3.07398	0	
2.6360	-22.7156	4.27684	0	
2.6367	-23.0271	3.68878	0	
2.6373	-22.0925	3.98281	0	
2.6380	-18.1465	4.27684	0	
2.6387	-15.9918	3.07398	0	
2.6393	-13.863	2.45918	0	
2.6400	-8.67086	2.75322	0	
2.6407	-5.63346	-0.294033	0	
2.6413	-2.88163	-2.11169	0	
2.6420	1.99897	-0.908829	0	
2.6427	5.06233	-0.294033	0	
2.6433	6.87958	-1.20286	0	
2.6440	13.9149	-2.11169	0	
2.6447	22.1444	-3.95608	0	
2.6453	26.7395	-4.86491	0	
2.6460	28.8683	-3.95608	0	
2.6467	27.3366	-3.95608	0	
2.6473	22.1444	-3.04725	0	
2.6480	16.9523	0.935559	0	
2.6487	10.8516	3.07398	0	
2.6493	2.93355	1.22959	0	
2.6500	1.40188	-0.908829	0	
2.6507	4.15371	-0.294033	0	
2.6513	3.53065	-0.294033	0	
2.6520	2.62203	-0.908829	0	
2.6527	3.53065	-0.294033	0	
2.6533	0.493253	0.320763	0	
2.6540	-6.54209	-0.294033	0	
2.6547	-12.3313	0.614796	0	
2.6553	-21.1839	2.45918	0	
2.6560	-31.5682	3.36801	0	
2.6567	-33.0998	4.27684	0	
2.6573	-27.5962	1.84439	0	
2.6580	-23.6242	-1.49689	0	
2.6587	-19.6522	-1.20286	0	
2.6593	-14.7716	-0.294033	0	
2.6600	-11.4227	-2.11169	0	
2.6607	-9.57948	-3.04725	0	
2.6613	-8.67086	-1.49689	0	
2.6620	-7.76224	-0.908829	0	
2.6627	-3.79026	-1.49689	0	
2.6633	1.40188	-1.81766	0	
2.6640	6.59401	-2.72649	0	
2.6647	15.4466	-5.15894	0	
2.6653	22.456	-8.23292	0	
2.6660	23.3646	-7.29736	0	
2.6667	22.7675	-4.25011	0	
2.6673	20.9243	-3.95608	0	
2.6680	16.6667	-3.04725	0	
2.6687	14.512	-0.294033	0	
2.6693	11.1631	0.0267303	0	
2.6700	7.50263	-1.20286	0	
2.6707	7.50263	0.320763	0	
2.6713	4.43927	3.07398	0	
2.6720	-1.34995	3.98281	0	
2.6727	-1.66148	2.45918	0	
2.6733	-2.57011	0.320763	0	
2.6740	-11.7342	0.614796	0	
2.6747	-19.9638	4.27684	0	
2.6753	-23.0271	7.35082	0	
2.6760	-26.376	7.35082	0	
2.6767	-28.1933	5.2124	0	
2.6773	-25.1559	4.27684	0	
2.6780	-21.4954	4.27684	0	
2.6787	-18.4321	3.36801	0	
2.6793	-13.863	1.55036	0	
2.6800	-8.98239	0.614796	0	
2.6807	-5.32194	0.614796	0	
2.6813	-3.47873	-1.20286	0	
2.6820	-2.88163	-0.908829	0	
2.6827	-3.47873	0.320763	0	
2.6833	-3.1672	-0.908829	0	
2.6840	1.99897	-2.43245	0	
2.6847	10.8516	-3.63532	0	
2.6853	18.484	-7.00333	0	
2.6860	23.6761	-9.43578	0	
2.6867	24.5847	-6.7093	0	
2.6873	22.7675	-4.57088	0	
2.6880	21.8329	-4.86491	0	
2.6887	18.1725	-3.95608	0	
2.6893	11.4746	-3.95608	0	
2.6900	9.03431	-6.7093	0	
2.6907	9.94293	-6.7093	0	
2.6913	6.87958	-5.4797	0	
2.6920	1.99897	-4.86491	0	
2.6927	-0.441331	-3.04725	0	
2.6933	-3.79026	0.320763	0	
2.6940	-10.2025	1.55036	0	
2.6947	-17.5234	3.68878	0	
2.6953	-22.0925	5.2124	0	
2.6960	-23.9357	4.27684	0	
2.6967	-23.9357	4.89164	0	
2.6973	-22.0925	4.89164	0	
2.6980	-18.4321	1.55036	0	
2.6987	-14.7716	-0.908829	0	
2.6993	-11.4227	0.0267303	0	
2.7000	-9.29392	0.935559	0	
2.7007	-7.13918	2.45918	0	
2.7013	-1.66148	3.07398	0	
2.7020	2.93355	0.614796	0	
2.7027	4.43927	-0.908829	0	
2.7033	7.1911	-0.294033	0	
2.7040	13.2919	-1.49689	0	
2.7047	17.8869	-3.34128	0	
2.7053	20.9243	-3.95608	0	
2.7060	23.3646	-5.15894	0	
2.7067	21.8329	-4.86491	0	
2.7073	20.0157	-3.04725	0	
2.7080	18.1725	-3.04725	0	
2.7087	13.6034	-4.57088	0	
2.7093	8.09973	-4.25011	0	
2.7100	7.1911	-3.95608	0	
2.7107	5.65942	-3.63532	0	
2.7113	-0.441331	-1.20286	0	
2.7120	-5.63346	-0.294033	0	
2.7127	-2.88163	-1.49689	0	
2.7133	-1.03843	-0.294033	0	
2.7140	-9.89101	1.55036	0	
2.7147	-20.8724	1.55036	0	
2.7153	-23.9357	3.98281	0	
2.7160	-22.4041	6.73603	0	
2.7167	-21.1839	6.12123	0	
2.7173	-17.5234	5.2124	0	
2.7180	-13.5515	5.2124	0	
2.7187	-10.2025	3.68878	0	
2.7193	-4.41331	3.07398	0	
2.7200	0.77882	4.89164	0	
2.7207	1.7134	4.59761	0	
2.7213	2.3105	1.55036	0	
2.7220	5.37386	-0.908829	0	
2.7227	8.09973	-0.908829	0	
2.7233	11.1631	-1.49689	0	
2.7240	17.8869	-4.57088	0	
2.7247	23.6761	-9.43578	0	
2.7253	26.1164	-11.2802	0	
2.7260	25.8049	-9.43578	0	
2.7267	23.6761	-8.52695	0	
2.7273	20.6128	-8.23292	0	
2.7280	20.9243	-4.86491	0	
2.7287	20.6128	-2.72649	0	
2.7293	16.9523	-4.25011	0	
2.7300	13.6034	-3.04725	0	
2.7307	11.1631	3.07398	0	
2.7313	7.50263	5.8272	0	
2.7320	5.06233	3.98281	0	
2.7327	5.37386	1.84439	0	
2.7333	1.99897	2.16515	0	
2.7340	-9.29392	3.98281	0	
2.7347	-22.0925	4.27684	0	
2.7353	-29.4134	3.68878	0	
2.7360	-32.1653	4.27684	0	
2.7367	-32.1653	3.36801	0	
2.7373	-30.0365	0.935559	0	
2.7380	-27.2847	0.0267303	0	
2.7387	-22.7156	0.0267303	0	
2.7393	-17.5234	-2.11169	0	
2.7400	-13.2399	-3.04725	0	
2.7407	-8.07377	-2.11169	0	
2.7413	-2.88163	-3.95608	0	
2.7420	-0.726899	-6.0945	0	
2.7427	1.40188	-3.34128	0	
2.7433	5.37386	-1.20286	0	
2.7440	10.2545	-3.34128	0	
2.7447	17.5754	-3.04725	0	
2.7453	26.1164	-1.49689	0	
2.7460	26.428	-5.15894	0	
2.7467	21.5474	-6.7093	0	
2.7473	20.0157	-2.11169	0	
2.7480	17.5754	-2.72649	0	
2.7487	14.512	-4.57088	0	
2.7493	13.0063	1.22959	0	
2.7500	9.94293	3.36801	0	
2.7507	5.37386	-2.11169	0	
2.7513	2.62203	-0.588066	0	
2.7520	-2.88163	4.59761	0	
2.7527	-8.07377	3.36801	0	
2.7533	-7.45071	1.55036	0	
2.7540	-8.35933	-0.294033	0	
2.7547	-16.6148	-2.11169	0	
2.7553	-23.9357	1.55036	0	
2.7560	-26.6876	4.27684	0	
2.7567	-27.2847	2.45918	0	
2.7573	-25.753	3.36801	0	
2.7580	-23.3127	4.89164	0	
2.7587	-21.807	1.22959	0	
2.7593	-17.835	0.320763	0	
2.7600	-12.9544	3.98281	0	
2.7607	-9.29392	3.07398	0	
2.7613	-5.01041	-0.908829	0	
2.7620	-1.94705	-1.20286	0	
2.7627	-2.88163	-0.294033	0	
2.7633	-0.129803	-1.81766	0	
2.7640	7.81416	-3.63532	0	
2.7647	15.1351	-3.04725	0	
2.7653	20.3272	-1.81766	0	
2.7660	24.5847	-1.49689	0	
2.7667	25.2078	-1.20286	0	
2.7673	21.2358	-0.294033	0	
2.7680	16.9523	-0.294033	0	
2.7687	13.2919	-0.294033	0	
2.7693	10.54	-0.908829	0	
2.7700	7.50263	-0.294033	0	
2.7707	4.43927	2.45918	0	
2.7713	2.62203	3.68878	0	
2.7720	0.181725	2.16515	0	
2.7727	-4.10178	3.36801	0	
2.7733	-8.35933	6.12123	0	
2.7740	-12.9544	6.12123	0	
2.7747	-17.5234	5.2124	0	
2.7753	-18.7436	6.12123	0	
2.7760	-18.1465	5.2124	0	
2.7767	-19.3667	4.27684	0	
2.7773	-19.9638	4.89164	0	
2.7780	-17.2119	3.07398	0	
2.7787	-13.863	0.320763	0	
2.7793	-10.7996	0.0267303	0	
2.7800	-7.45071	0.0267303	0	
2.7807	-5.63346	-1.20286	0	
2.7813	-8.35933	-0.908829	0	
2.7820	-8.98239	2.45918	0	
2.7827	-5.63346	3.36801	0	
2.7833	-1.03843	1.84439	0	
2.7840	6.59401	0.935559	0	
2.7847	16.3552	-1.20286	0	
2.7853	20.6128	-6.0945	0	
2.7860	20.6128	-9.14175	0	
2.7867	20.6128	-7.29736	0	
2.7873	19.107	-5.4797	0	
2.7880	15.4466	-3.95608	0	
2.7887	11.7861	-2.11169	0	
2.7893	7.50263	-2.72649	0	
2.7900	6.28248	-3.04725	0	
2.7907	7.1911	-0.588066	0	
2.7913	4.15371	-1.20286	0	
2.7920	-0.129803	-3.34128	0	
2.7927	-0.129803	-2.11169	0	
2.7933	-0.441331	-1.20286	0	
2.7940	-6.23056	0.614796	0	
2.7947	-14.7716	4.59761	0	
2.7953	-23.3127	4.89164	0	
2.7960	-25.753	1.55036	0	
2.7967	-22.0925	0.935559	0	
2.7973	-19.0551	0.320763	0	
2.7980	-20.2753	-1.49689	0	
2.7987	-20.8724	-0.294033	0	
2.7993	-18.1465	0.0267303	0	
2.8000	-13.2399	-3.34128	0	
2.8007	-8.35933	-4.57088	0	
2.8013	-4.41331	-2.72649	0	
2.8020	-0.129803	-1.20286	0	
2.8027	2.62203	-1.20286	0	
2.8033	4.43927	-2.11169	0	
2.8040	8.09973	-5.4797	0	
2.8047	15.4466	-6.0945	0	
2.8053	22.7675	-3.63532	0	
2.8060	26.7395	-4.25011	0	
2.8067	28.2452	-7.29736	0	
2.8073	26.428	-5.4797	0	
2.8080	21.8329	-2.72649	0	
2.8087	16.9523	-1.81766	0	
2.8093	13.0063	-0.294033	0	
2.8100	9.31988	1.55036	0	
2.8107	7.81416	0.320763	0	
2.8113	7.50263	-1.20286	0	
2.8120	5.97095	-0.588066	0	
2.8127	4.7508	-0.294033	0	
2.8133	3.21912	-1.20286	0	
2.8140	-4.10178	-1.20286	0	
2.8147	-12.9544	1.84439	0	
2.8153	-16.6148	5.2124	0	
2.8160	-20.5868	4.27684	0	
2.8167	-24.8444	0.614796	0	
2.8173	-22.4041	-1.20286	0	
2.8180	-18.7436	-2.11169	0	
2.8187	-17.5234	-3.04725	0	
2.8193	-14.7716	-3.04725	0	
2.8200	-11.1112	-2.11169	0	
2.8207	-10.2025	-1.20286	0	
2.8213	-6.54209	-0.588066	0	
2.8220	-0.129803	-0.294033	0	
2.8227	2.93355	-0.908829	0	
2.8233	4.15371	-1.20286	0	
2.8240	8.09973	-0.294033	0	
2.8247	16.3552	-0.908829	0	
2.8253	24.5847	-3.34128	0	
2.8260	25.5193	-3.63532	0	
2.8267	21.8329	-0.588066	0	
2.8273	20.0157	0.0267303	0	
2.8280	18.1725	-1.20286	0	
2.8287	14.8235	-0.588066	0	
2.8293	11.7861	-0.588066	0	
2.8300	7.1911	-0.588066	0	
2.8307	1.99897	0.0267303	0	
2.8313	-0.129803	-0.588066	0	
2.8320	-1.03843	-0.588066	0	
2.8327	-3.1672	1.84439	0	
2.8333	-5.63346	2.45918	0	
2.8340	-10.7996	2.45918	0	
2.8347	-18.7436	6.12123	0	
2.8353	-21.807	7.64486	0	
2.8360	-18.4321	5.50643	0	
2.8367	-16.6148	5.2124	0	
2.8373	-18.4321	4.27684	0	
2.8380	-18.1465	1.55036	0	
2.8387	-13.5515	1.84439	0	
2.8393	-10.7996	2.45918	0	
2.8400	-11.1112	0.614796	0	
2.8407	-7.45071	-0.294033	0	
2.8413	-1.94705	0.0267303	0	
2.8420	-2.57011	-2.72649	0	
2.8427	-2.88163	-3.95608	0	
2.8433	1.09035	-3.34128	0	
2.8440	6.28248	-3.34128	0	
2.8447	13.9149	-3.04725	0	
2.8453	21.5474	-3.04725	0	
2.8460	21.8329	-6.0945	0	
2.8467	19.107	-6.7093	0	
2.8473	19.3926	-1.81766	0	
2.8480	18.1725	-0.294033	0	
2.8487	14.2264	-4.86491	0	
2.8493	11.7861	-4.86491	0	
2.8500	9.94293	-2.43245	0	
2.8507	5.37386	-3.04725	0	
2.8513	1.09035	-2.11169	0	
2.8520	-0.726899	0.0267303	0	
2.8527	-3.1672	-1.20286	0	
2.8533	-8.07377	-1.20286	0	
2.8540	-11.4227	2.75322	0	
2.8547	-13.863	4.89164	0	
2.8553	-18.7436	2.45918	0	
2.8560	-23.0271	2.75322	0	
2.8567	-23.0271	5.50643	0	
2.8573	-19.6522	5.2124	0	
2.8580	-14.4601	3.36801	0	
2.8587	-10.5141	1.55036	0	
2.8593	-8.07377	-0.294033	0	
2.8600	-4.10178	-0.908829	0	
2.8607	-1.34995	-1.20286	0	
2.8613	-1.94705	-2.72649	0	
2.8620	-1.94705	-1.20286	0	
2.8627	0.181725	1.22959	0	
2.8633	2.62203	1.22959	0	
2.8640	8.41125	1.55036	0	
2.8647	18.1725	0.935559	0	
2.8653	24.8963	-3.63532	0	
2.8660	26.428	-5.4797	0	
2.8667	24.2732	-2.43245	0	
2.8673	22.7675	-0.908829	0	
2.8680	22.1444	-1.49689	0	
2.8687	16.9523	-1.20286	0	
2.8693	10.8516	-1.20286	0	
2.8700	9.63141	0.0267303	0	
2.8707	7.1911	1.55036	0	
2.8713	2.93355	-1.20286	0	
2.8720	1.99897	-5.15894	0	
2.8727	0.181725	-4.86491	0	
2.8733	-4.69888	-3.34128	0	
2.8740	-8.98239	-1.20286	0	
2.8747	-15.6802	3.36801	0	
2.8753	-25.4674	5.8272	0	
2.8760	-27.5962	3.68878	0	
2.8767	-22.7156	2.16515	0	
2.8773	-19.9638	2.75322	0	
2.8780	-17.2119	2.45918	0	
2.8787	-12.0198	1.55036	0	
2.8793	-8.35933	0.614796	0	
2.8800	-5.63346	-1.49689	0	
2.8807	-2.88163	-3.04725	0	
2.8813	-1.94705	-1.49689	0	
2.8820	-0.441331	-0.294033	0	
2.8827	1.7134	-0.294033	0	
2.8833	4.7508	-1.20286	0	
2.8840	10.54	-3.95608	0	
2.8847	16.6667	-7.00333	0	
2.8853	20.0157	-7.00333	0	
2.8860	21.8329	-4.86491	0	
2.8867	21.2358	-4.86491	0	
2.8873	16.9523	-4.25011	0	
2.8880	13.2919	-3.63532	0	
2.8887	12.3832	-5.77374	0	
2.8893	9.94293	-8.52695	0	
2.8900	6.28248	-5.4797	0	
2.8907	4.15371	-2.72649	0	
2.8913	1.09035	-3.04725	0	
2.8920	-2.88163	-1.20286	0	
2.8927	-3.1672	0.320763	0	
2.8933	-2.88163	-1.81766	0	
2.8940	-8.98239	-0.588066	0	
2.8947	-16.9004	4.27684	0	
2.8953	-19.6522	4.59761	0	
2.8960	-19.6522	3.36801	0	
2.8967	-22.0925	5.8272	0	
2.8973	-22.0925	5.2124	0	
2.8980	-16.6148	0.935559	0	
2.8987	-11.4227	0.614796	0	
2.8993	-7.45071	2.45918	0	
2.9000	-3.79026	1.84439	0	
2.9007	-4.69888	0.935559	0	
2.9013	-5.01041	1.55036	0	
2.9020	0.77882	1.22959	0	
2.9027	5.37386	0.320763	0	
2.9033	5.65942	0.614796	0	
2.9040	10.8516	0.320763	0	
2.9047	20.0157	-1.20286	0	
2.9053	25.5193	-2.43245	0	
2.9060	28.5567	-1.20286	0	
2.9067	27.9596	0.614796	0	
2.9073	23.6761	0.614796	0	
2.9080	21.8329	-0.908829	0	
2.9087	18.1725	-1.20286	0	
2.9093	11.7861	-1.49689	0	
2.9100	12.6948	-2.72649	0	
2.9107	15.4466	-3.04725	0	
2.9113	11.4746	0.320763	0	
2.9120	8.09973	3.98281	0	
2.9127	7.81416	4.27684	0	
2.9133	2.3105	3.07398	0	
2.9140	-5.63346	2.45918	0	
2.9147	-12.0198	2.45918	0	
2.9153	-22.0925	3.98281	0	
2.9160	-30.348	7.03006	0	
2.9167	-31.2566	6.41526	0	
2.9173	-28.8163	3.36801	0	
2.9180	-24.8444	1.55036	0	
2.9187	-18.4321	0.320763	0	
2.9193	-14.7716	-1.49689	0	
2.9200	-12.6428	-2.11169	0	
2.9207	-7.76224	-2.43245	0	
2.9213	-4.41331	-2.43245	0	
2.9220	-2.57011	-2.43245	0	
2.9227	1.40188	-3.95608	0	
2.9233	4.43927	-4.57088	0	
2.9240	8.09973	-5.77374	0	
2.9247	15.4466	-8.23292	0	
2.9253	21.8329	-7.91216	0	
2.9260	25.5193	-3.95608	0	
2.9267	25.8049	-2.11169	0	
2.9273	19.7041	-2.11169	0	
2.9280	9.03431	-0.294033	0	
2.9287	3.53065	0.614796	0	
2.9293	3.84218	0.0267303	0	
2.9300	3.53065	2.16515	0	
2.9307	0.181725	5.2124	0	
2.9313	-3.47873	6.12123	0	
2.9320	-4.41331	5.8272	0	
2.9327	-4.69888	4.27684	0	
2.9333	-9.89101	1.84439	0	
2.9340	-19.9638	1.22959	0	
2.9347	-28.1933	3.68878	0	
2.9353	-31.2566	6.12123	0	
2.9360	-31.5682	4.89164	0	
2.9367	-31.2566	3.07398	0	
2.9373	-28.5048	2.45918	0	
2.9380	-23.3127	0.0267303	0	
2.9387	-19.3667	-1.81766	0	
2.9393	-16.6148	-0.588066	0	
2.9400	-13.5515	-0.294033	0	
2.9407	-11.4227	-3.04725	0	
2.9413	-9.29392	-3.04725	0	
2.9420	-5.32194	-1.49689	0	
2.9427	-1.66148	-2.11169	0	
2.9433	0.493253	-0.908829	0	
2.9440	5.97095	0.614796	0	
2.9447	13.2919	-3.63532	0	
2.9453	17.5754	-9.43578	0	
