0.0007	-13.0489	5.28751	0	
0.0013	-10.9145	0.726306	0	
0.0020	-10.6234	-3.86395	0	
0.0027	-7.85844	-3.54437	0	
0.0033	-5.43299	-1.42356	0	
0.0040	-3.58966	-0.203366	0	
0.0047	5.55427	-1.10399	0	
0.0053	18.6759	-3.86395	0	
0.0060	24.788	-4.47405	0	
0.0067	22.9447	-2.93428	0	
0.0073	18.6759	-3.86395	0	
0.0080	16.8568	-5.08414	0	
0.0087	16.2505	-4.15447	0	
0.0093	10.7447	-2.32418	0	
0.0100	5.26321	0.116209	0	
0.0107	5.55427	1.9465	0	
0.0113	4.65685	2.5566	0	
0.0120	1.60079	2.84712	0	
0.0127	0.679124	2.5566	0	
0.0133	-2.37694	0.726306	0	
0.0140	-11.8362	0.116209	0	
0.0147	-17.3177	1.62693	0	
0.0153	-17.3177	1.62693	0	
0.0160	-19.161	1.62693	0	
0.0167	-20.689	2.84712	0	
0.0173	-18.5546	1.01683	0	
0.0180	-17.0266	-0.493888	0	
0.0187	-16.1049	-0.493888	0	
0.0193	-11.2298	-1.71408	0	
0.0200	-5.72405	-2.32418	0	
0.0207	-5.72405	-1.10399	0	
0.0213	-6.03936	-1.42356	0	
0.0220	-2.06163	-2.93428	0	
0.0227	2.49821	-2.64375	0	
0.0233	6.47594	-2.03366	0	
0.0240	11.6664	-3.54437	0	
0.0247	16.2505	-6.30434	0	
0.0253	19.9129	-9.35483	0	
0.0260	25.1033	-9.03525	0	
0.0267	27.2377	-5.69424	0	
0.0273	24.788	-4.76457	0	
0.0280	22.3383	-5.69424	0	
0.0287	18.9912	-3.25385	0	
0.0293	13.4855	0.116209	0	
0.0300	10.7447	1.62693	0	
0.0307	8.92563	2.23702	0	
0.0313	3.41988	1.62693	0	
0.0320	-1.77057	1.62693	0	
0.0327	-2.06163	2.84712	0	
0.0333	-3.2986	2.84712	0	
0.0340	-10.3081	2.5566	0	
0.0347	-19.4521	4.67741	0	
0.0353	-25.5642	6.21718	0	
0.0360	-26.7769	4.67741	0	
0.0367	-25.5642	4.38689	0	
0.0373	-21.2954	5.28751	0	
0.0380	-14.8922	2.5566	0	
0.0387	-11.2298	-1.10399	0	
0.0393	-10.6234	-0.493888	0	
0.0400	-8.17375	0.406732	0	
0.0407	-2.9833	-1.10399	0	
0.0413	0.363817	-0.203366	0	
0.0420	2.49821	2.5566	0	
0.0427	4.02624	2.23702	0	
0.0433	5.26321	-0.203366	0	
0.0440	11.6664	-0.493888	0	
0.0447	20.8103	-1.10399	0	
0.0453	24.1817	-2.93428	0	
0.0460	23.8664	-2.93428	0	
0.0467	26.6071	-2.32418	0	
0.0473	26.3161	-2.64375	0	
0.0480	19.9129	-1.71408	0	
0.0487	15.6199	0.406732	0	
0.0493	13.4855	1.62693	0	
0.0500	8.92563	2.5566	0	
0.0507	6.16063	1.9465	0	
0.0513	5.26321	0.116209	0	
0.0520	2.20715	-0.203366	0	
0.0527	-3.58966	0.116209	0	
0.0533	-7.25208	-0.493888	0	
0.0540	-9.99283	0.406732	0	
0.0547	-15.7896	1.9465	0	
0.0553	-23.1145	1.62693	0	
0.0560	-26.4858	1.3364	0	
0.0567	-23.4298	1.3364	0	
0.0573	-19.7674	-0.813463	0	
0.0580	-17.0266	-1.10399	0	
0.0587	-14.5769	1.9465	0	
0.0593	-11.8362	3.45722	0	
0.0600	-7.85844	0.726306	0	
0.0607	-2.9833	-1.71408	0	
0.0613	0.994432	-2.93428	0	
0.0620	6.16063	-3.54437	0	
0.0627	11.9574	-3.54437	0	
0.0633	11.6664	-4.15447	0	
0.0640	12.5881	-6.30434	0	
0.0647	21.1256	-6.59486	0	
0.0653	27.8441	-5.37467	0	
0.0660	28.1352	-4.76457	0	
0.0667	28.1352	-5.69424	0	
0.0673	27.2377	-4.15447	0	
0.0680	23.8664	-1.42356	0	
0.0687	22.3383	-1.10399	0	
0.0693	18.0696	-2.03366	0	
0.0700	11.3511	-0.203366	0	
0.0707	8.00397	1.62693	0	
0.0713	5.55427	-0.203366	0	
0.0720	-1.16421	-2.03366	0	
0.0727	-5.72405	-1.42356	0	
0.0733	-6.64572	-0.203366	0	
0.0740	-13.0489	1.62693	0	
0.0747	-22.8234	4.38689	0	
0.0753	-26.1705	5.28751	0	
0.0760	-24.0362	4.38689	0	
0.0767	-23.4298	4.38689	0	
0.0773	-22.2171	3.45722	0	
0.0780	-18.2393	3.77679	0	
0.0787	-13.9706	4.38689	0	
0.0793	-12.4425	1.62693	0	
0.0800	-11.5209	-1.10399	0	
0.0807	-9.99283	-0.493888	0	
0.0813	-8.48905	-0.203366	0	
0.0820	-8.17375	-1.71408	0	
0.0827	-7.56739	-0.493888	0	
0.0833	-4.19602	1.3364	0	
0.0840	1.89185	-0.493888	0	
0.0847	8.92563	-3.86395	0	
0.0853	15.6199	-3.86395	0	
0.0860	18.0696	-0.813463	0	
0.0867	15.9352	-1.10399	0	
0.0873	13.1944	-2.32418	0	
0.0880	11.6664	0.406732	0	
0.0887	9.82305	2.23702	0	
0.0893	6.47594	1.62693	0	
0.0900	1.60079	1.9465	0	
0.0907	-0.848905	2.23702	0	
0.0913	-0.242544	1.9465	0	
0.0920	-2.06163	2.5566	0	
0.0927	-6.96102	0.406732	0	
0.0933	-9.38647	-2.32418	0	
0.0940	-12.7578	0.726306	0	
0.0947	-20.689	4.99699	0	
0.0953	-28.3049	5.28751	0	
0.0960	-30.1483	4.38689	0	
0.0967	-26.7769	3.77679	0	
0.0973	-22.2171	1.9465	0	
0.0980	-18.8457	0.726306	0	
0.0987	-14.8922	-1.71408	0	
0.0993	-7.56739	-3.86395	0	
0.1000	-0.533598	-2.03366	0	
0.1007	2.20715	0.726306	0	
0.1013	2.49821	-1.10399	0	
0.1020	4.94791	-2.03366	0	
0.1027	10.4537	-0.203366	0	
0.1033	11.6664	-0.203366	0	
0.1040	13.4855	-2.32418	0	
0.1047	23.8664	-4.76457	0	
0.1053	31.7976	-7.52453	0	
0.1060	29.0568	-6.59486	0	
0.1067	25.1033	-3.86395	0	
0.1073	24.4727	-3.86395	0	
0.1080	22.9447	-2.93428	0	
0.1087	20.2039	1.62693	0	
0.1093	16.2505	2.5566	0	
0.1100	12.8791	0.726306	0	
0.1107	11.9574	2.5566	0	
0.1113	9.21669	3.45722	0	
0.1120	3.41988	-0.203366	0	
0.1127	1.28549	-2.32418	0	
0.1133	0.0727633	-0.493888	0	
0.1140	-6.64572	1.01683	0	
0.1147	-17.0266	1.3364	0	
0.1153	-24.6425	2.5566	0	
0.1160	-28.0139	4.38689	0	
0.1167	-28.6202	4.38689	0	
0.1173	-27.0922	1.3364	0	
0.1180	-22.8234	-1.10399	0	
0.1187	-17.0266	-0.203366	0	
0.1193	-14.5769	-0.203366	0	
0.1200	-15.7896	-3.25385	0	
0.1207	-15.1833	-3.86395	0	
0.1213	-9.70178	-0.203366	0	
0.1220	-5.72405	1.62693	0	
0.1227	-6.03936	-0.203366	0	
0.1233	-6.33041	-0.813463	0	
0.1240	-3.58966	-0.813463	0	
0.1247	0.994432	-3.86395	0	
0.1253	8.00397	-6.59486	0	
0.1260	13.8008	-5.08414	0	
0.1267	11.06	-5.98476	0	
0.1273	4.94791	-9.35483	0	
0.1280	3.41988	-8.42515	0	
0.1287	2.81352	-5.37467	0	
0.1293	0.679124	-4.15447	0	
0.1300	1.60079	-3.86395	0	
0.1307	6.16063	-2.64375	0	
0.1313	8.00397	-0.203366	0	
0.1320	3.73518	4.38689	0	
0.1327	1.60079	5.28751	0	
0.1333	5.86957	3.45722	0	
0.1340	8.00397	3.77679	0	
0.1347	0.363817	4.67741	0	
0.1353	-8.78011	3.45722	0	
0.1360	-13.3642	2.23702	0	
0.1367	-17.0266	1.62693	0	
0.1373	-18.2393	0.726306	0	
0.1380	-13.9706	0.726306	0	
0.1387	-10.3081	-0.203366	0	
0.1393	-8.78011	-0.493888	0	
0.1400	-1.77057	0.726306	0	
0.1407	10.7447	-1.10399	0	
0.1413	18.0696	-3.54437	0	
0.1420	18.9912	-1.10399	0	
0.1427	18.9912	-0.813463	0	
0.1433	17.4632	-3.86395	0	
0.1440	16.2505	-3.86395	0	
0.1447	22.6536	-3.86395	0	
0.1453	29.9785	-4.76457	0	
0.1460	27.5288	-3.86395	0	
0.1467	21.732	-2.93428	0	
0.1473	17.1479	-3.25385	0	
0.1480	9.82305	-2.32418	0	
0.1487	3.41988	-0.813463	0	
0.1493	1.60079	2.5566	0	
0.1500	-0.533598	5.28751	0	
0.1507	-0.848905	3.1667	0	
0.1513	-0.848905	1.3364	0	
0.1520	-3.2986	3.77679	0	
0.1527	-2.9833	3.45722	0	
0.1533	-1.45527	2.5566	0	
0.1540	-8.48905	7.7279	0	
0.1547	-19.7674	10.8074	0	
0.1553	-27.6986	6.5077	0	
0.1560	-30.4393	3.45722	0	
0.1567	-29.2266	3.77679	0	
0.1573	-28.9355	2.5566	0	
0.1580	-31.361	2.5566	0	
0.1587	-25.5642	2.84712	0	
0.1593	-14.2859	0.116209	0	
0.1600	-9.70178	-1.71408	0	
0.1607	-8.17375	-1.10399	0	
0.1613	-3.2986	-2.03366	0	
0.1620	0.0727633	-2.03366	0	
0.1627	2.49821	-0.493888	0	
0.1633	6.47594	-0.203366	0	
0.1640	10.4537	-0.813463	0	
0.1647	14.4071	-1.42356	0	
0.1653	21.4409	-4.76457	0	
0.1660	25.1033	-7.52453	0	
0.1667	22.9447	-5.37467	0	
0.1673	20.2039	-2.32418	0	
0.1680	16.2505	-2.03366	0	
0.1687	11.06	-3.86395	0	
0.1693	8.00397	-5.69424	0	
0.1700	4.02624	-3.86395	0	
0.1707	-0.242544	0.726306	0	
0.1713	-0.242544	2.84712	0	
0.1720	-0.848905	3.77679	0	
0.1727	-4.19602	4.38689	0	
0.1733	-4.51133	4.99699	0	
0.1740	-4.51133	7.43738	0	
0.1747	-11.2298	7.7279	0	
0.1753	-17.633	2.5566	0	
0.1760	-20.689	0.116209	0	
0.1767	-21.2954	2.23702	0	
0.1773	-16.7113	0.116209	0	
0.1780	-10.9145	-3.25385	0	
0.1787	-9.99283	-2.32418	0	
0.1793	-8.48905	-2.03366	0	
0.1800	-3.90497	-2.93428	0	
0.1807	-2.37694	-2.03366	0	
0.1813	-4.82663	-3.54437	0	
0.1820	-3.90497	-5.69424	0	
0.1827	-1.45527	-4.15447	0	
0.1833	-0.848905	-2.93428	0	
0.1840	2.49821	-5.08414	0	
0.1847	9.82305	-5.98476	0	
0.1853	15.3288	-5.69424	0	
0.1860	15.9352	-5.98476	0	
0.1867	16.2505	-5.69424	0	
0.1873	14.4071	-5.37467	0	
0.1880	9.82305	-6.59486	0	
0.1887	8.00397	-6.30434	0	
0.1893	7.0823	-3.86395	0	
0.1900	5.26321	-3.25385	0	
0.1907	4.34154	-3.86395	0	
0.1913	2.49821	-2.03366	0	
0.1920	-2.06163	1.3364	0	
0.1927	-1.45527	1.62693	0	
0.1933	-0.533598	0.726306	0	
0.1940	-6.33041	3.77679	0	
0.1947	-13.9706	7.1178	0	
0.1953	-18.5546	7.43738	0	
0.1960	-24.0362	8.338	0	
0.1967	-26.7769	9.55819	0	
0.1973	-24.3515	6.21718	0	
0.1980	-19.4521	3.77679	0	
0.1987	-12.1515	5.89761	0	
0.1993	-6.64572	5.28751	0	
0.2000	-6.33041	2.5566	0	
0.2007	-7.25208	1.3364	0	
0.2013	-3.90497	-0.493888	0	
0.2020	-1.16421	-2.32418	0	
0.2027	-1.77057	-0.493888	0	
0.2033	-0.242544	0.726306	0	
0.2040	5.26321	-1.42356	0	
0.2047	12.5881	-3.86395	0	
0.2053	19.5976	-5.69424	0	
0.2060	24.4727	-5.69424	0	
0.2067	26.0008	-4.47405	0	
0.2073	23.8664	-3.86395	0	
0.2080	19.5976	-1.10399	0	
0.2087	15.9352	0.406732	0	
0.2093	11.9574	-3.25385	0	
0.2100	7.3976	-3.86395	0	
0.2107	7.0823	1.01683	0	
0.2113	10.1384	1.62693	0	
0.2120	8.92563	-1.10399	0	
0.2127	4.34154	0.726306	0	
0.2133	2.49821	0.116209	0	
0.2140	-2.06163	-2.93428	0	
0.2147	-11.5209	0.116209	0	
0.2153	-19.7674	4.99699	0	
0.2160	-24.3515	4.06732	0	
0.2167	-26.1705	1.9465	0	
0.2173	-25.8795	2.5566	0	
0.2180	-25.8795	2.5566	0	
0.2187	-23.1145	0.726306	0	
0.2193	-14.8922	0.116209	0	
0.2200	-10.3081	-0.203366	0	
0.2207	-12.4425	-0.813463	0	
0.2213	-12.1515	-2.03366	0	
0.2220	-6.64572	-5.69424	0	
0.2227	-2.9833	-7.52453	0	
0.2233	-0.242544	-5.08414	0	
0.2240	7.0823	-5.08414	0	
0.2247	19.9129	-7.52453	0	
0.2253	29.0568	-5.69424	0	
0.2260	29.0568	-2.93428	0	
0.2267	28.1352	-2.93428	0	
0.2273	30.2695	-0.203366	0	
0.2280	29.3721	1.9465	0	
0.2287	25.3944	-0.203366	0	
0.2293	21.1256	-0.493888	0	
0.2300	13.4855	1.3364	0	
0.2307	3.73518	0.116209	0	
0.2313	0.0727633	-0.813463	0	
0.2320	-2.06163	1.62693	0	
0.2327	-5.72405	3.45722	0	
0.2333	-6.64572	4.38689	0	
0.2340	-9.38647	5.89761	0	
0.2347	-17.633	6.82728	0	
0.2353	-22.8234	6.21718	0	
0.2360	-24.0362	5.28751	0	
0.2367	-25.8795	4.67741	0	
0.2373	-23.4298	3.45722	0	
0.2380	-16.7113	2.23702	0	
0.2387	-13.6553	2.5566	0	
0.2393	-11.8362	1.9465	0	
0.2400	-7.25208	-0.203366	0	
0.2407	-4.82663	0.726306	0	
0.2413	-3.90497	0.726306	0	
0.2420	1.60079	-2.93428	0	
0.2427	6.16063	-3.25385	0	
0.2433	7.0823	-0.203366	0	
0.2440	9.82305	-1.10399	0	
0.2447	18.9912	-4.15447	0	
0.2453	28.1352	-4.47405	0	
0.2460	30.9002	-3.86395	0	
0.2467	29.9785	-3.54437	0	
0.2473	25.3944	-3.54437	0	
0.2480	18.6759	-4.47405	0	
0.2487	16.2505	-4.47405	0	
0.2493	15.6199	-3.86395	0	
0.2500	10.1384	-2.64375	0	
0.2507	7.0823	0.116209	0	
0.2513	9.82305	3.1667	0	
0.2520	5.86957	3.77679	0	
0.2527	-2.06163	1.9465	0	
0.2533	-2.66799	-0.203366	0	
0.2540	-2.9833	-1.10399	0	
0.2547	-12.7578	1.3364	0	
0.2553	-24.6425	3.1667	0	
0.2560	-30.4393	1.62693	0	
0.2567	-31.361	-0.203366	0	
0.2573	-28.3049	-0.203366	0	
0.2580	-23.1145	-0.203366	0	
0.2587	-19.4521	-0.493888	0	
0.2593	-16.4203	0.406732	0	
0.2600	-14.2859	-0.203366	0	
0.2607	-10.3081	-2.93428	0	
0.2613	-4.82663	-3.86395	0	
0.2620	-3.58966	-2.64375	0	
0.2627	-4.82663	-2.93428	0	
0.2633	-0.242544	-2.93428	0	
0.2640	12.5881	-2.64375	0	
0.2647	25.7097	-2.93428	0	
0.2653	30.9002	-2.32418	0	
0.2660	29.0568	-2.03366	0	
0.2667	23.8664	-3.86395	0	
0.2673	18.0696	-6.30434	0	
0.2680	13.1944	-5.37467	0	
0.2687	8.00397	-3.25385	0	
0.2693	0.994432	-2.03366	0	
0.2700	-5.43299	-0.813463	0	
0.2707	-9.38647	1.01683	0	
0.2713	-13.6553	2.84712	0	
0.2720	-18.5546	4.99699	0	
0.2727	-21.2954	5.28751	0	
0.2733	-20.0827	2.84712	0	
0.2740	-20.3737	1.62693	0	
0.2747	-23.4298	3.45722	0	
0.2753	-26.7769	4.67741	0	
0.2760	-28.9355	2.84712	0	
0.2767	-28.9355	1.62693	0	
0.2773	-22.5081	2.5566	0	
0.2780	-12.4425	1.62693	0	
0.2787	-6.96102	-0.203366	0	
0.2793	-3.90497	-0.203366	0	
0.2800	0.679124	-0.203366	0	
0.2807	3.41988	-1.71408	0	
0.2813	4.34154	-2.64375	0	
0.2820	5.26321	-3.25385	0	
0.2827	5.86957	-3.86395	0	
0.2833	8.31927	-2.03366	0	
0.2840	13.4855	-0.813463	0	
0.2847	19.9129	-2.64375	0	
0.2853	28.1352	-2.93428	0	
0.2860	33.3256	-2.32418	0	
0.2867	31.7976	-3.86395	0	
0.2873	28.4505	-3.86395	0	
0.2880	25.3944	0.116209	0	
0.2887	20.2039	1.01683	0	
0.2893	14.7224	-2.03366	0	
0.2900	10.4537	-1.10399	0	
0.2907	4.34154	2.84712	0	
0.2913	0.0727633	0.726306	0	
0.2920	-2.06163	-2.93428	0	
0.2927	-4.82663	-1.10399	0	
0.2933	-6.33041	0.406732	0	
0.2940	-8.48905	-1.42356	0	
0.2947	-16.1049	0.726306	0	
0.2953	-24.0362	3.77679	0	
0.2960	-23.4298	3.45722	0	
0.2967	-19.4521	3.1667	0	
0.2973	-18.5546	1.9465	0	
0.2980	-16.7113	0.726306	0	
0.2987	-11.2298	3.45722	0	
0.2993	-6.64572	5.28751	0	
0.3000	-4.82663	2.23702	0	
0.3007	-4.19602	0.726306	0	
0.3013	-2.9833	0.726306	0	
0.3020	0.0727633	-1.10399	0	
0.3027	2.49821	-2.03366	0	
0.3033	3.73518	-2.64375	0	
0.3040	8.61033	-4.15447	0	
0.3047	16.8568	-4.76457	0	
0.3053	21.732	-3.86395	0	
0.3060	21.4409	-4.76457	0	
0.3067	20.2039	-4.76457	0	
0.3073	19.9129	-2.93428	0	
0.3080	18.9912	-1.10399	0	
0.3087	16.2505	-0.203366	0	
0.3093	11.9574	-0.203366	0	
0.3100	7.68866	-1.71408	0	
0.3107	5.55427	-1.10399	0	
0.3113	2.81352	2.23702	0	
0.3120	-1.16421	3.45722	0	
0.3127	-2.37694	1.62693	0	
0.3133	-1.77057	3.1667	0	
0.3140	-6.64572	5.89761	0	
0.3147	-14.2859	5.28751	0	
0.3153	-19.7674	5.60708	0	
0.3160	-23.1145	8.04747	0	
0.3167	-25.5642	6.5077	0	
0.3173	-23.7451	3.77679	0	
0.3180	-17.633	2.84712	0	
0.3187	-12.4425	0.406732	0	
0.3193	-12.1515	-2.03366	0	
0.3200	-11.5209	-2.64375	0	
0.3207	-5.72405	-3.86395	0	
0.3213	-1.45527	-6.30434	0	
0.3220	-2.9833	-6.59486	0	
0.3227	-2.9833	-5.98476	0	
0.3233	0.679124	-3.86395	0	
0.3240	5.26321	-2.03366	0	
0.3247	14.4071	-2.93428	0	
0.3253	23.8664	-3.86395	0	
0.3260	29.0568	-3.86395	0	
0.3267	33.932	-3.86395	0	
0.3273	36.3817	-4.15447	0	
0.3280	29.9785	-2.64375	0	
0.3287	23.5753	-0.203366	0	
0.3293	23.5753	-0.203366	0	
0.3300	19.9129	-1.71408	0	
0.3307	9.82305	-0.493888	0	
0.3313	-0.242544	1.9465	0	
0.3320	-7.85844	1.62693	0	
0.3327	-11.8362	1.62693	0	
0.3333	-13.0489	2.23702	0	
0.3340	-17.0266	1.62693	0	
0.3347	-23.1145	3.45722	0	
0.3353	-25.8795	6.82728	0	
0.3360	-26.7769	4.99699	0	
0.3367	-27.6986	2.5566	0	
0.3373	-25.2731	2.5566	0	
0.3380	-19.7674	0.116209	0	
0.3387	-15.7896	-1.10399	0	
0.3393	-12.7578	0.116209	0	
0.3400	-7.85844	-0.203366	0	
0.3407	-4.82663	-0.813463	0	
0.3413	-2.9833	-0.203366	0	
0.3420	-0.242544	-1.10399	0	
0.3427	0.679124	-1.71408	0	
0.3433	0.994432	-2.03366	0	
0.3440	6.79124	-3.54437	0	
0.3447	15.3288	-2.64375	0	
0.3453	19.9129	-2.03366	0	
0.3460	21.732	-5.69424	0	
0.3467	20.8103	-4.76457	0	
0.3473	14.1161	-0.493888	0	
0.3480	7.68866	-2.03366	0	
0.3487	6.47594	-3.86395	0	
0.3493	6.47594	0.116209	0	
0.3500	3.41988	1.9465	0	
0.3507	-0.242544	-0.203366	0	
0.3513	-1.16421	-0.203366	0	
0.3520	-2.06163	1.62693	0	
0.3527	-4.82663	3.45722	0	
0.3533	-6.03936	3.45722	0	
0.3540	-7.25208	2.5566	0	
0.3547	-13.6553	3.1667	0	
0.3553	-22.2171	3.1667	0	
0.3560	-24.0362	5.28751	0	
0.3567	-21.2954	9.26767	0	
0.3573	-18.5546	6.82728	0	
0.3580	-17.633	1.62693	0	
0.3587	-18.2393	2.23702	0	
0.3593	-15.4986	1.62693	0	
0.3600	-8.48905	-3.25385	0	
0.3607	-3.58966	-4.47405	0	
0.3613	-3.58966	-3.25385	0	
0.3620	-3.90497	-3.86395	0	
0.3627	-3.2986	-1.71408	0	
0.3633	-2.66799	-0.493888	0	
0.3640	2.49821	-3.25385	0	
0.3647	11.06	-3.54437	0	
0.3653	18.3849	-2.64375	0	
0.3660	22.9447	-5.69424	0	
0.3667	25.1033	-6.30434	0	
0.3673	21.732	-2.03366	0	
0.3680	16.2505	0.726306	0	
0.3687	15.3288	-0.203366	0	
0.3693	15.3288	-0.203366	0	
0.3700	9.82305	0.726306	0	
0.3707	3.41988	0.726306	0	
0.3713	2.49821	-1.71408	0	
0.3720	3.41988	-1.42356	0	
0.3727	2.49821	1.01683	0	
0.3733	0.679124	0.726306	0	
0.3740	-3.90497	0.116209	0	
0.3747	-11.2298	3.77679	0	
0.3753	-18.5546	4.99699	0	
0.3760	-21.6107	0.406732	0	
0.3767	-21.6107	0.116209	0	
0.3773	-20.9801	6.21718	0	
0.3780	-19.7674	5.60708	0	
0.3787	-16.1049	0.406732	0	
0.3793	-10.3081	2.5566	0	
0.3800	-5.72405	6.5077	0	
0.3807	-5.43299	2.5566	0	
0.3813	-2.66799	-0.203366	0	
0.3820	3.41988	4.06732	0	
0.3827	4.94791	4.99699	0	
0.3833	4.65685	-0.813463	0	
0.3840	16.5415	-4.15447	0	
0.3847	33.932	-5.69424	0	
0.3853	42.4938	-7.52453	0	
0.3860	41.8874	-6.59486	0	
0.3867	37.5944	-3.54437	0	
0.3873	32.1129	-2.64375	0	
0.3880	27.8441	-3.86395	0	
0.3887	20.8103	-2.93428	0	
0.3893	10.7447	-1.42356	0	
0.3900	4.34154	-3.54437	0	
0.3907	-0.242544	-4.76457	0	
0.3913	-7.56739	-3.86395	0	
0.3920	-11.8362	-2.64375	0	
0.3927	-12.4425	-2.03366	0	
0.3933	-13.3642	-1.10399	0	
0.3940	-15.1833	-2.64375	0	
0.3947	-20.9801	-2.93428	0	
0.3953	-31.361	-0.203366	0	
0.3960	-39.0011	-0.203366	0	
0.3967	-38.6858	-2.64375	0	
0.3973	-32.889	-3.54437	0	
0.3980	-26.4858	-3.86395	0	
0.3987	-22.2171	-2.93428	0	
0.3993	-19.4521	-1.10399	0	
0.4000	-14.5769	-1.71408	0	
0.4007	-8.78011	-2.03366	0	
0.4013	-4.19602	-0.203366	0	
0.4020	-1.45527	-0.813463	0	
0.4027	0.363817	-3.86395	0	
0.4033	3.12882	-4.47405	0	
0.4040	8.92563	-3.54437	0	
0.4047	17.1479	-3.25385	0	
0.4053	26.3161	-3.25385	0	
0.4060	30.9002	-3.54437	0	
0.4067	27.5288	-5.08414	0	
0.4073	22.6536	-6.59486	0	
0.4080	20.8103	-5.37467	0	
0.4087	18.6759	-3.86395	0	
0.4093	14.1161	-2.93428	0	
0.4100	7.68866	-2.64375	0	
0.4107	2.49821	-1.42356	0	
0.4113	0.363817	0.116209	0	
0.4120	1.28549	1.9465	0	
0.4127	1.60079	3.77679	0	
0.4133	0.679124	3.77679	0	
0.4140	-3.90497	0.726306	0	
0.4147	-13.0489	-0.203366	0	
0.4153	-20.3737	3.1667	0	
0.4160	-23.7451	5.28751	0	
0.4167	-25.2731	4.99699	0	
0.4173	-21.2954	5.28751	0	
0.4180	-13.0489	5.28751	0	
0.4187	-9.99283	2.5566	0	
0.4193	-9.99283	1.62693	0	
0.4200	-5.43299	4.06732	0	
0.4207	-4.82663	4.06732	0	
0.4213	-9.70178	1.9465	0	
0.4220	-8.48905	1.62693	0	
0.4227	-4.19602	3.45722	0	
0.4233	-2.9833	3.77679	0	
0.4240	2.81352	1.62693	0	
0.4247	13.8008	-1.10399	0	
0.4253	19.9129	-2.03366	0	
0.4260	22.6536	-1.71408	0	
0.4267	27.8441	-0.813463	0	
0.4273	31.5065	-0.813463	0	
0.4280	32.7192	-1.10399	0	
0.4287	34.5626	-0.203366	0	
0.4293	30.9002	0.406732	0	
0.4300	18.6759	-0.493888	0	
0.4307	7.0823	0.726306	0	
0.4313	3.41988	2.84712	0	
0.4320	2.49821	2.23702	0	
0.4327	-1.45527	1.62693	0	
0.4333	-5.72405	2.84712	0	
0.4340	-10.9145	2.84712	0	
0.4347	-21.9018	3.45722	0	
0.4353	-34.1017	4.38689	0	
0.4360	-37.1578	4.06732	0	
0.4367	-32.598	4.06732	0	
0.4373	-26.7769	5.28751	0	
0.4380	-23.4298	2.84712	0	
0.4387	-20.3737	-0.203366	0	
0.4393	-16.7113	-0.203366	0	
0.4400	-12.1515	-0.203366	0	
0.4407	-7.85844	-2.32418	0	
0.4413	-5.72405	-2.93428	0	
0.4420	-5.11769	-2.03366	0	
0.4427	-2.37694	-1.42356	0	
0.4433	1.60079	-2.03366	0	
0.4440	4.65685	-3.86395	0	
0.4447	9.532	-4.47405	0	
0.4453	17.1479	-2.93428	0	
0.4460	20.2039	-2.03366	0	
0.4467	17.7785	-2.93428	0	
0.4473	17.1479	-2.03366	0	
0.4480	16.2505	-0.493888	0	
0.4487	11.06	-0.203366	0	
0.4493	5.55427	-1.10399	0	
0.4500	2.49821	-1.71408	0	
0.4507	1.28549	-0.203366	0	
0.4513	1.28549	1.62693	0	
0.4520	-0.242544	1.62693	0	
0.4527	-4.82663	1.62693	0	
0.4533	-6.03936	3.77679	0	
0.4540	-4.51133	4.06732	0	
0.4547	-6.33041	4.67741	0	
0.4553	-12.1515	9.26767	0	
0.4560	-15.4986	10.8074	0	
0.4567	-14.8922	7.1178	0	
0.4573	-11.5209	6.21718	0	
0.4580	-6.96102	5.60708	0	
0.4587	-2.06163	1.62693	0	
0.4593	1.60079	1.3364	0	
0.4600	1.89185	4.38689	0	
0.4607	-1.16421	1.62693	0	
0.4613	-3.58966	-2.03366	0	
0.4620	-2.9833	-1.71408	0	
0.4627	-2.06163	-0.813463	0	
0.4633	-2.37694	0.726306	0	
0.4640	0.994432	1.62693	0	
0.4647	9.532	-1.10399	0	
0.4653	16.8568	-2.03366	0	
0.4660	19.9129	-1.10399	0	
0.4667	20.8103	-3.54437	0	
0.4673	18.0696	-4.76457	0	
0.4680	14.7224	-0.813463	0	
0.4687	13.4855	-1.10399	0	
0.4693	10.7447	-5.69424	0	
0.4700	5.26321	-4.76457	0	
0.4707	2.49821	-3.86395	0	
0.4713	-1.16421	-5.98476	0	
0.4720	-6.33041	-3.86395	0	
0.4727	-7.25208	-0.813463	0	
0.4733	-4.82663	-2.32418	0	
0.4740	-7.56739	-0.813463	0	
0.4747	-15.7896	2.84712	0	
0.4753	-21.6107	2.23702	0	
0.4760	-23.7451	2.5566	0	
0.4767	-23.4298	3.77679	0	
0.4773	-20.689	0.726306	0	
0.4780	-17.633	-2.93428	0	
0.4787	-16.4203	-2.93428	0	
0.4793	-12.7578	-2.64375	0	
0.4800	-6.64572	-3.25385	0	
0.4807	-2.9833	-2.93428	0	
0.4813	-1.77057	-2.64375	0	
0.4820	1.60079	-2.03366	0	
0.4827	3.41988	-0.493888	0	
0.4833	4.94791	-0.493888	0	
0.4840	9.532	-2.03366	0	
0.4847	17.7785	-2.93428	0	
0.4853	28.4505	-2.93428	0	
0.4860	39.1224	-4.15447	0	
0.4867	42.7848	-3.25385	0	
0.4873	36.697	1.3364	0	
0.4880	28.1352	3.77679	0	
0.4887	23.5753	1.62693	0	
0.4893	21.732	-0.203366	0	
0.4900	18.9912	0.726306	0	
0.4907	13.1944	0.116209	0	
0.4913	0.679124	-1.10399	0	
0.4920	-14.5769	0.726306	0	
0.4927	-20.9801	2.23702	0	
0.4933	-19.7674	0.406732	0	
0.4940	-21.2954	1.62693	0	
0.4947	-25.5642	7.1178	0	
0.4953	-28.3049	9.87777	0	
0.4960	-31.0699	7.7279	0	
0.4967	-30.4393	7.43738	0	
0.4973	-24.3515	6.82728	0	
0.4980	-20.0827	2.23702	0	
0.4987	-19.161	0.406732	0	
0.4993	-15.1833	2.23702	0	
0.5000	-9.09542	2.5566	0	
0.5007	-5.43299	0.726306	0	
0.5013	-2.9833	0.116209	0	
0.5020	-1.45527	-0.203366	0	
0.5027	0.363817	-0.203366	0	
0.5033	1.89185	-0.203366	0	
0.5040	4.34154	-2.93428	0	
0.5047	12.5881	-6.59486	0	
0.5053	22.9447	-6.91444	0	
0.5060	26.3161	-5.69424	0	
0.5067	24.4727	-6.59486	0	
0.5073	23.26	-7.52453	0	
0.5080	20.5193	-4.76457	0	
0.5087	16.2505	-2.03366	0	
0.5093	12.8791	-0.813463	0	
0.5100	9.21669	0.116209	0	
0.5107	5.55427	1.3364	0	
0.5113	2.49821	2.5566	0	
0.5120	-0.848905	2.23702	0	
0.5127	-2.9833	-0.813463	0	
0.5133	-3.90497	-1.10399	0	
0.5140	-9.70178	3.1667	0	
0.5147	-18.5546	5.28751	0	
0.5153	-24.9578	4.99699	0	
0.5160	-26.7769	6.5077	0	
0.5167	-25.2731	7.1178	0	
0.5173	-23.1145	4.67741	0	
0.5180	-20.689	3.45722	0	
0.5187	-16.4203	3.1667	0	
0.5193	-14.2859	0.726306	0	
0.5200	-16.1049	-0.493888	0	
0.5207	-13.6553	-2.03366	0	
0.5213	-7.85844	-3.86395	0	
0.5220	-3.2986	-2.64375	0	
0.5227	1.60079	-0.813463	0	
0.5233	5.55427	-2.93428	0	
0.5240	9.21669	-3.86395	0	
0.5247	18.3849	-3.54437	0	
0.5253	29.6632	-5.08414	0	
0.5260	33.3256	-6.59486	0	
0.5267	32.1129	-5.37467	0	
0.5273	29.6632	-3.86395	0	
0.5280	22.6536	-2.32418	0	
0.5287	14.7224	-0.203366	0	
0.5293	10.7447	-0.813463	0	
0.5300	8.00397	1.01683	0	
0.5307	4.34154	5.89761	0	
0.5313	1.60079	5.28751	0	
0.5320	-0.848905	-0.203366	0	
0.5327	-3.90497	-0.203366	0	
0.5333	-5.72405	2.23702	0	
0.5340	-7.56739	1.9465	0	
0.5347	-11.5209	2.23702	0	
0.5353	-17.633	3.1667	0	
0.5360	-21.2954	2.23702	0	
0.5367	-22.2171	1.9465	0	
0.5373	-20.0827	2.23702	0	
0.5380	-15.4986	0.726306	0	
0.5387	-10.9145	0.726306	0	
0.5393	-6.64572	2.5566	0	
0.5400	-1.45527	1.62693	0	
0.5407	0.363817	-0.813463	0	
0.5413	-0.848905	-0.493888	0	
0.5420	1.60079	0.726306	0	
0.5427	5.55427	0.406732	0	
0.5433	7.0823	-0.203366	0	
0.5440	8.61033	0.726306	0	
0.5447	15.3288	1.01683	0	
0.5453	22.6536	-0.203366	0	
0.5460	25.7097	-2.64375	0	
0.5467	25.7097	-3.54437	0	
0.5473	26.3161	-2.93428	0	
0.5480	23.5753	-1.10399	0	
0.5487	16.8568	-2.32418	0	
0.5493	11.6664	-3.86395	0	
0.5500	9.21669	-0.203366	0	
0.5507	6.47594	3.1667	0	
0.5513	3.41988	-1.42356	0	
0.5520	0.679124	-4.76457	0	
0.5527	-2.37694	-2.32418	0	
0.5533	-3.2986	-1.71408	0	
0.5540	-6.96102	-3.25385	0	
0.5547	-15.7896	-0.203366	0	
0.5553	-24.0362	1.62693	0	
0.5560	-28.0139	-0.203366	0	
0.5567	-26.7769	-1.10399	0	
0.5573	-20.3737	-2.03366	0	
0.5580	-13.0489	-4.47405	0	
0.5587	-8.78011	-3.54437	0	
0.5593	-5.72405	-0.813463	0	
0.5600	-4.51133	-2.93428	0	
0.5607	-3.2986	-6.30434	0	
0.5613	0.679124	-6.59486	0	
0.5620	2.20715	-3.86395	0	
0.5627	0.679124	-1.42356	0	
0.5633	0.0727633	-0.203366	0	
0.5640	1.89185	-1.10399	0	
0.5647	7.3976	-3.86395	0	
0.5653	15.9352	-4.76457	0	
0.5660	17.1479	-2.32418	0	
0.5667	12.5881	-0.203366	0	
0.5673	10.7447	-1.71408	0	
0.5680	9.82305	-3.25385	0	
0.5687	5.55427	-0.203366	0	
0.5693	2.49821	3.1667	0	
0.5700	0.363817	1.9465	0	
0.5707	-2.9833	-1.10399	0	
0.5713	-3.90497	-2.03366	0	
0.5720	-2.9833	-0.813463	0	
0.5727	-4.19602	0.406732	0	
0.5733	-7.25208	0.406732	0	
0.5740	-11.8362	1.3364	0	
0.5747	-19.4521	3.1667	0	
0.5753	-27.6986	3.45722	0	
0.5760	-31.9674	3.45722	0	
0.5767	-29.833	6.21718	0	
0.5773	-24.0362	7.7279	0	
0.5780	-19.7674	4.06732	0	
0.5787	-17.9483	1.62693	0	
0.5793	-13.6553	2.5566	0	
0.5800	-8.17375	3.45722	0	
0.5807	-5.43299	2.23702	0	
0.5813	-2.06163	1.01683	0	
0.5820	2.49821	-1.10399	0	
0.5827	4.02624	-2.93428	0	
0.5833	2.49821	-2.03366	0	
0.5840	5.26321	-0.813463	0	
0.5847	13.4855	-2.32418	0	
0.5853	21.4409	-3.86395	0	
0.5860	23.8664	-3.86395	0	
0.5867	24.4727	-4.76457	0	
0.5873	25.3944	-5.98476	0	
0.5880	22.3383	-2.93428	0	
0.5887	16.2505	3.45722	0	
0.5893	13.4855	4.99699	0	
0.5900	11.06	0.726306	0	
0.5907	5.26321	-0.493888	0	
0.5913	3.41988	-0.203366	0	
0.5920	5.55427	-1.10399	0	
0.5927	3.41988	-1.42356	0	
0.5933	-0.242544	1.62693	0	
0.5940	-1.77057	3.45722	0	
0.5947	-6.33041	3.77679	0	
0.5953	-14.8922	3.77679	0	
0.5960	-20.3737	3.45722	0	
0.5967	-21.6107	2.84712	0	
0.5973	-18.8457	3.1667	0	
0.5980	-13.0489	4.38689	0	
0.5987	-9.38647	3.77679	0	
0.5993	-8.17375	1.9465	0	
0.6000	-6.03936	1.62693	0	
0.6007	-1.45527	2.23702	0	
0.6013	2.81352	1.62693	0	
0.6020	5.26321	1.62693	0	
0.6027	4.34154	2.5566	0	
0.6033	2.81352	0.726306	0	
0.6040	7.3976	-1.71408	0	
0.6047	16.5415	-1.10399	0	
0.6053	22.6536	0.116209	0	
0.6060	26.3161	-0.203366	0	
0.6067	26.6071	-0.813463	0	
0.6073	21.732	-2.03366	0	
0.6080	16.2505	-2.03366	0	
0.6087	14.1161	-0.493888	0	
0.6093	8.92563	-2.32418	0	
0.6100	1.28549	-5.69424	0	
0.6107	-2.37694	-4.47405	0	
0.6113	-2.9833	-0.203366	0	
0.6120	-4.19602	2.23702	0	
0.6127	-4.51133	1.3364	0	
0.6133	-6.64572	-0.203366	0	
0.6140	-12.4425	-0.203366	0	
0.6147	-19.4521	1.62693	0	
0.6153	-25.5642	2.23702	0	
0.6160	-29.2266	1.9465	0	
0.6167	-29.2266	2.84712	0	
0.6173	-27.4075	4.38689	0	
0.6180	-24.0362	3.77679	0	
0.6187	-17.0266	2.5566	0	
0.6193	-8.17375	1.9465	0	
0.6200	-2.9833	0.726306	0	
0.6207	-1.77057	-1.10399	0	
0.6213	-0.242544	-1.10399	0	
0.6220	4.34154	0.116209	0	
0.6227	8.61033	-1.10399	0	
0.6233	11.06	-2.03366	0	
0.6240	14.7224	-0.203366	0	
0.6247	20.8103	-0.203366	0	
0.6253	25.3944	-2.03366	0	
0.6260	25.1033	-2.32418	0	
0.6267	20.8103	-2.93428	0	
0.6273	16.8568	-3.25385	0	
0.6280	15.3288	-0.813463	0	
0.6287	13.4855	0.726306	0	
0.6293	9.82305	-0.203366	0	
0.6300	5.55427	1.01683	0	
0.6307	2.49821	1.62693	0	
0.6313	-2.9833	0.116209	0	
0.6320	-7.56739	0.726306	0	
0.6327	-5.72405	1.9465	0	
0.6333	-2.66799	1.01683	0	
0.6340	-10.3081	0.726306	0	
0.6347	-23.7451	0.406732	0	
0.6353	-30.1483	-1.42356	0	
0.6360	-29.5419	-0.203366	0	
0.6367	-28.6202	2.5566	0	
0.6373	-25.8795	1.01683	0	
0.6380	-20.9801	-1.10399	0	
0.6387	-17.0266	-0.813463	0	
0.6393	-13.3642	-1.71408	0	
0.6400	-10.3081	-5.08414	0	
0.6407	-9.09542	-5.98476	0	
0.6413	-6.64572	-4.47405	0	
0.6420	-0.848905	-4.15447	0	
0.6427	1.60079	-4.47405	0	
0.6433	1.28549	-3.25385	0	
0.6440	5.86957	-2.64375	0	
0.6447	14.1161	-4.47405	0	
0.6453	19.5976	-6.30434	0	
0.6460	20.8103	-4.76457	0	
0.6467	19.5976	-2.93428	0	
0.6473	19.2823	-3.25385	0	
0.6480	19.9129	-3.86395	0	
0.6487	17.7785	-2.93428	0	
0.6493	15.0135	-1.10399	0	
0.6500	13.1944	-2.03366	0	
0.6507	8.00397	-3.25385	0	
0.6513	2.49821	-3.25385	0	
0.6520	0.679124	-1.42356	0	
0.6527	-2.37694	0.726306	0	
0.6533	-6.64572	1.62693	0	
0.6540	-8.48905	1.9465	0	
0.6547	-13.3642	2.5566	0	
0.6553	-22.5081	1.62693	0	
0.6560	-28.3049	1.62693	0	
0.6567	-28.0139	2.5566	0	
0.6573	-24.9578	1.01683	0	
0.6580	-19.4521	-2.03366	0	
0.6587	-15.7896	-2.03366	0	
0.6593	-12.7578	0.406732	0	
0.6600	-6.96102	1.62693	0	
0.6607	-2.66799	2.23702	0	
0.6613	-2.06163	0.726306	0	
0.6620	0.679124	-1.71408	0	
0.6627	4.65685	-1.10399	0	
0.6633	6.47594	1.01683	0	
0.6640	10.7447	1.3364	0	
0.6647	18.9912	-0.813463	0	
0.6653	24.1817	-3.86395	0	
0.6660	26.6071	-4.47405	0	
0.6667	29.0568	-2.03366	0	
0.6673	25.3944	-1.71408	0	
0.6680	18.9912	-3.54437	0	
0.6687	17.1479	-1.42356	0	
0.6693	15.3288	0.726306	0	
0.6700	8.92563	-0.493888	0	
0.6707	5.26321	-1.71408	0	
0.6713	3.12882	-1.42356	0	
0.6720	-2.37694	-0.203366	0	
0.6727	-5.11769	2.23702	0	
0.6733	-4.51133	3.45722	0	
0.6740	-9.99283	4.06732	0	
0.6747	-19.4521	5.28751	0	
0.6753	-25.2731	3.77679	0	
0.6760	-29.833	2.23702	0	
0.6767	-33.2043	4.06732	0	
0.6773	-29.5419	3.77679	0	
0.6780	-22.5081	1.3364	0	
0.6787	-17.633	1.01683	0	
0.6793	-13.0489	-0.203366	0	
0.6800	-8.48905	-3.25385	0	
0.6807	-7.56739	-2.93428	0	
0.6813	-5.72405	-2.93428	0	
0.6820	-2.37694	-3.86395	0	
0.6827	-2.06163	-2.93428	0	
0.6833	-0.533598	-1.71408	0	
0.6840	8.00397	-4.76457	0	
0.6847	18.9912	-7.52453	0	
0.6853	26.0008	-6.91444	0	
0.6860	29.0568	-6.59486	0	
0.6867	28.4505	-6.91444	0	
0.6873	25.1033	-5.98476	0	
0.6880	21.732	-4.15447	0	
0.6887	18.6759	-2.03366	0	
0.6893	14.4071	-0.493888	0	
0.6900	9.21669	-1.71408	0	
0.6907	6.16063	-2.93428	0	
0.6913	5.26321	-2.03366	0	
0.6920	2.49821	-2.93428	0	
0.6927	-0.848905	-4.47405	0	
0.6933	-2.37694	-3.25385	0	
0.6940	-6.33041	0.116209	0	
0.6947	-14.2859	1.62693	0	
0.6953	-19.7674	2.23702	0	
0.6960	-21.6107	2.23702	0	
0.6967	-23.1145	1.62693	0	
0.6973	-20.9801	0.726306	0	
0.6980	-14.8922	-0.203366	0	
0.6987	-11.2298	-0.203366	0	
0.6993	-9.99283	-1.71408	0	
0.7000	-6.64572	-4.47405	0	
0.7007	-1.45527	-3.86395	0	
0.7013	0.679124	-2.03366	0	
0.7020	2.20715	-4.47405	0	
0.7027	4.65685	-5.98476	0	
0.7033	6.16063	-3.54437	0	
0.7040	7.3976	-2.32418	0	
0.7047	14.1161	-2.93428	0	
0.7053	20.5193	-2.93428	0	
0.7060	21.4409	-3.54437	0	
0.7067	22.3383	-2.93428	0	
0.7073	24.4727	-1.10399	0	
0.7080	22.0473	-2.32418	0	
0.7087	16.5415	-3.54437	0	
0.7093	11.9574	-2.32418	0	
0.7100	7.3976	-3.54437	0	
0.7107	3.73518	-2.93428	0	
0.7113	0.0727633	0.116209	0	
0.7120	-6.33041	0.726306	0	
0.7127	-9.38647	-1.10399	0	
0.7133	-8.78011	-1.10399	0	
0.7140	-13.6553	-0.203366	0	
0.7147	-23.1145	1.3364	0	
0.7153	-27.6986	2.5566	0	
0.7160	-29.5419	1.01683	0	
0.7167	-31.6763	0.726306	0	
0.7173	-28.6202	1.3364	0	
0.7180	-18.8457	0.406732	0	
0.7187	-9.38647	1.62693	0	
0.7193	-4.19602	3.1667	0	
0.7200	-0.242544	1.3364	0	
0.7207	3.12882	-1.10399	0	
0.7213	5.26321	-2.64375	0	
0.7220	7.68866	-5.08414	0	
0.7227	10.7447	-4.76457	0	
0.7233	11.9574	-3.86395	0	
0.7240	13.1944	-5.37467	0	
0.7247	18.9912	-3.86395	0	
0.7253	24.788	-1.71408	0	
0.7260	26.9224	-2.93428	0	
0.7267	27.2377	-2.03366	0	
0.7273	24.4727	-0.203366	0	
0.7280	18.9912	-2.64375	0	
0.7287	17.7785	-3.86395	0	
0.7293	16.5415	-0.493888	0	
0.7300	10.1384	1.62693	0	
0.7307	5.55427	-0.203366	0	
0.7313	5.26321	0.116209	0	
0.7320	1.28549	2.5566	0	
0.7327	-3.90497	2.23702	0	
0.7333	-5.11769	1.62693	0	
0.7340	-6.64572	5.28751	0	
0.7347	-14.8922	9.87777	0	
0.7353	-27.0922	9.55819	0	
0.7360	-33.8107	7.1178	0	
0.7367	-31.361	5.28751	0	
0.7373	-27.6986	1.9465	0	
0.7380	-24.9578	-0.203366	0	
0.7387	-18.5546	0.406732	0	
0.7393	-12.4425	1.62693	0	
0.7400	-9.99283	0.406732	0	
0.7407	-6.96102	-1.10399	0	
0.7413	-2.37694	-0.203366	0	
0.7420	1.28549	-0.203366	0	
0.7427	3.41988	-2.64375	0	
0.7433	3.12882	-2.03366	0	
0.7440	2.49821	2.84712	0	
0.7447	10.4537	3.77679	0	
0.7453	23.26	-0.203366	0	
0.7460	26.3161	0.406732	0	
0.7467	22.6536	1.3364	0	
0.7473	21.732	-2.03366	0	
0.7480	20.2039	-2.03366	0	
0.7487	16.5415	1.9465	0	
0.7493	15.9352	2.84712	0	
0.7500	15.3288	1.9465	0	
0.7507	11.3511	2.23702	0	
0.7513	7.0823	1.62693	0	
0.7520	1.60079	1.62693	0	
0.7527	-6.33041	3.45722	0	
0.7533	-9.99283	6.21718	0	
0.7540	-8.48905	6.21718	0	
0.7547	-11.2298	3.77679	0	
0.7553	-20.0827	2.5566	0	
0.7560	-26.7769	3.45722	0	
0.7567	-24.9578	2.23702	0	
0.7573	-20.3737	-1.10399	0	
0.7580	-18.8457	-0.203366	0	
0.7587	-13.9706	1.01683	0	
0.7593	-3.90497	-2.32418	0	
0.7600	-0.848905	-3.86395	0	
0.7607	-4.82663	-1.42356	0	
0.7613	-3.90497	-0.813463	0	
0.7620	0.0727633	-1.71408	0	
0.7627	0.994432	-1.42356	0	
0.7633	2.49821	-2.03366	0	
0.7640	6.16063	-2.93428	0	
0.7647	11.06	-3.25385	0	
0.7653	19.2823	-4.76457	0	
0.7660	24.4727	-5.69424	0	
0.7667	22.3383	-5.98476	0	
0.7673	19.9129	-6.59486	0	
0.7680	18.9912	-5.69424	0	
0.7687	13.4855	-5.37467	0	
0.7693	8.92563	-6.59486	0	
0.7700	6.47594	-6.30434	0	
0.7707	2.49821	-3.54437	0	
0.7713	-0.242544	-3.86395	0	
0.7720	-0.848905	-5.08414	0	
0.7727	-4.19602	-3.86395	0	
0.7733	-7.85844	-2.32418	0	
0.7740	-9.99283	-1.71408	0	
0.7747	-16.1049	-1.10399	0	
0.7753	-23.1145	-0.493888	0	
0.7760	-24.9578	-0.203366	0	
0.7767	-24.9578	0.406732	0	
0.7773	-23.4298	2.23702	0	
0.7780	-17.633	3.45722	0	
0.7787	-12.1515	3.77679	0	
0.7793	-12.7578	3.45722	0	
0.7800	-13.6553	3.45722	0	
0.7807	-9.38647	2.84712	0	
0.7813	-3.90497	1.9465	0	
0.7820	-2.06163	0.406732	0	
0.7827	-1.16421	-1.10399	0	
0.7833	-0.242544	-0.203366	0	
0.7840	0.0727633	1.9465	0	
0.7847	3.41988	0.116209	0	
0.7853	12.5881	-2.64375	0	
0.7860	18.9912	-1.71408	0	
0.7867	21.732	-0.203366	0	
0.7873	26.9224	-2.03366	0	
0.7880	29.3721	-2.03366	0	
0.7887	25.3944	-0.813463	0	
0.7893	19.9129	0.406732	0	
0.7900	14.4071	1.01683	0	
0.7907	8.00397	0.726306	0	
0.7913	4.94791	0.726306	0	
0.7920	4.02624	4.38689	0	
0.7927	-1.16421	6.21718	0	
0.7933	-9.09542	3.45722	0	
0.7940	-14.8922	3.45722	0	
0.7947	-22.2171	4.67741	0	
0.7953	-33.8107	2.5566	0	
0.7960	-40.8202	2.5566	0	
0.7967	-38.6858	4.38689	0	
0.7973	-33.2043	2.5566	0	
0.7980	-27.4075	0.726306	0	
0.7987	-20.9801	0.116209	0	
0.7993	-15.7896	-1.42356	0	
0.8000	-12.1515	-0.203366	0	
0.8007	-8.17375	1.9465	0	
0.8013	-3.90497	-0.203366	0	
0.8020	-0.848905	-0.203366	0	
0.8027	0.679124	1.9465	0	
0.8033	1.60079	-0.813463	0	
0.8040	5.26321	-4.76457	0	
0.8047	15.6199	-4.76457	0	
0.8053	22.9447	-4.15447	0	
0.8060	22.6536	-3.86395	0	
0.8067	22.3383	-3.54437	0	
0.8073	23.8664	-4.15447	0	
0.8080	22.6536	-4.47405	0	
0.8087	19.9129	-3.54437	0	
0.8093	15.0135	-2.03366	0	
0.8100	8.92563	1.9465	0	
0.8107	5.55427	4.99699	0	
0.8113	5.26321	3.1667	0	
0.8120	4.34154	2.84712	0	
0.8127	2.49821	2.84712	0	
0.8133	-0.242544	-2.03366	0	
0.8140	-8.48905	-2.64375	0	
0.8147	-19.4521	2.5566	0	
0.8153	-25.2731	1.9465	0	
0.8160	-25.2731	-0.493888	0	
0.8167	-24.9578	2.5566	0	
0.8173	-24.3515	4.38689	0	
0.8180	-20.3737	1.9465	0	
0.8187	-14.8922	0.726306	0	
0.8193	-11.5209	-0.813463	0	
0.8200	-8.48905	-1.42356	0	
0.8207	-4.51133	1.01683	0	
0.8213	0.0727633	1.62693	0	
0.8220	5.26321	-1.42356	0	
0.8227	8.00397	-3.86395	0	
0.8233	7.0823	-5.69424	0	
0.8240	9.82305	-5.69424	0	
0.8247	18.9912	-3.86395	0	
0.8253	24.788	-3.86395	0	
0.8260	24.4727	-4.76457	0	
0.8267	23.8664	-2.93428	0	
0.8273	23.5753	-1.42356	0	
0.8280	22.0473	-2.32418	0	
0.8287	18.3849	-1.42356	0	
0.8293	12.8791	0.726306	0	
0.8300	7.0823	1.62693	0	
0.8307	4.02624	0.726306	0	
0.8313	1.89185	0.726306	0	
0.8320	-1.16421	1.62693	0	
0.8327	-3.2986	4.99699	0	
0.8333	-3.58966	6.21718	0	
0.8340	-7.25208	4.06732	0	
0.8347	-15.7896	2.84712	0	
0.8353	-23.1145	6.5077	0	
0.8360	-26.1705	9.55819	0	
0.8367	-26.4858	7.43738	0	
0.8373	-25.2731	4.99699	0	
0.8380	-22.5081	4.67741	0	
0.8387	-16.7113	4.38689	0	
0.8393	-9.09542	3.45722	0	
0.8400	-4.82663	2.5566	0	
0.8407	-4.51133	1.01683	0	
0.8413	-1.16421	0.726306	0	
0.8420	5.26321	0.116209	0	
0.8427	8.61033	-2.32418	0	
0.8433	7.68866	-2.32418	0	
0.8440	10.1384	0.116209	0	
0.8447	19.2823	0.726306	0	
0.8453	28.1352	-0.493888	0	
0.8460	29.3721	-3.25385	0	
0.8467	26.3161	-7.20496	0	
0.8473	24.1817	-7.20496	0	
0.8480	22.0473	-2.93428	0	
0.8487	17.4632	-1.42356	0	
0.8493	11.6664	-3.54437	0	
0.8500	6.16063	-4.76457	0	
0.8507	3.41988	-3.86395	0	
0.8513	3.41988	-0.813463	0	
0.8520	1.60079	2.5566	0	
0.8527	-4.51133	4.38689	0	
0.8533	-6.64572	3.45722	0	
0.8540	-5.11769	3.45722	0	
0.8547	-9.70178	5.28751	0	
0.8553	-20.0827	3.77679	0	
0.8560	-25.8795	0.406732	0	
0.8567	-25.8795	1.01683	0	
0.8573	-23.1145	3.45722	0	
0.8580	-17.0266	2.23702	0	
0.8587	-11.5209	-0.203366	0	
0.8593	-8.17375	-1.10399	0	
0.8600	-2.9833	-1.71408	0	
0.8607	1.28549	-1.42356	0	
0.8613	0.363817	-2.03366	0	
0.8620	-0.533598	-3.86395	0	
0.8627	3.41988	-2.32418	0	
0.8633	8.00397	0.726306	0	
0.8640	12.5881	-0.203366	0	
0.8647	18.9912	-1.10399	0	
0.8653	25.1033	-0.813463	0	
0.8660	28.1352	-2.93428	0	
0.8667	28.1352	-3.86395	0	
0.8673	24.4727	-3.54437	0	
0.8680	18.0696	-5.69424	0	
0.8687	14.1161	-7.20496	0	
0.8693	12.5881	-3.86395	0	
0.8700	8.92563	-1.10399	0	
0.8707	3.41988	-1.71408	0	
0.8713	0.679124	-0.493888	0	
0.8720	-2.66799	0.726306	0	
0.8727	-6.64572	-0.203366	0	
0.8733	-8.48905	-0.203366	0	
0.8740	-11.2298	4.06732	0	
0.8747	-20.3737	8.338	0	
0.8753	-31.361	8.94809	0	
0.8760	-38.3948	6.21718	0	
0.8767	-43.8763	5.28751	0	
0.8773	-46.0107	4.38689	0	
0.8780	-42.6636	2.5566	0	
0.8787	-36.5514	2.23702	0	
0.8793	-26.4858	2.5566	0	
0.8800	-13.0489	1.9465	0	
0.8807	-5.43299	1.3364	0	
0.8813	-3.90497	0.116209	0	
0.8820	-1.16421	-1.71408	0	
0.8827	2.81352	-2.93428	0	
0.8833	4.65685	-3.54437	0	
0.8840	11.06	-4.76457	0	
0.8847	25.1033	-7.20496	0	
0.8853	34.8536	-8.74473	0	
0.8860	33.6409	-8.42515	0	
0.8867	27.8441	-6.59486	0	
0.8873	23.5753	-5.37467	0	
0.8880	17.7785	-3.86395	0	
0.8887	12.2727	-1.10399	0	
0.8893	9.21669	0.726306	0	
0.8900	5.26321	-1.10399	0	
0.8907	0.679124	-1.42356	0	
0.8913	-2.06163	1.62693	0	
0.8920	-4.82663	2.5566	0	
0.8927	-7.25208	-0.493888	0	
0.8933	-5.72405	-1.10399	0	
0.8940	-6.64572	0.726306	0	
0.8947	-17.3177	2.84712	0	
0.8953	-28.3049	4.67741	0	
0.8960	-31.361	4.06732	0	
0.8967	-28.3049	2.5566	0	
0.8973	-23.4298	3.45722	0	
0.8980	-18.8457	1.9465	0	
0.8987	-13.0489	-3.54437	0	
0.8993	-6.64572	-1.10399	0	
0.9000	-2.9833	4.38689	0	
0.9007	-2.06163	0.726306	0	
0.9013	2.49821	-4.15447	0	
0.9020	6.16063	-2.03366	0	
0.9027	4.34154	-1.10399	0	
0.9033	2.81352	-2.93428	0	
0.9040	7.0823	-2.32418	0	
0.9047	12.5881	-2.93428	0	
0.9053	17.7785	-5.37467	0	
0.9060	23.5753	-5.98476	0	
0.9067	24.4727	-4.15447	0	
0.9073	20.8103	-1.10399	0	
0.9080	18.6759	0.726306	0	
0.9087	16.8568	-0.203366	0	
0.9093	13.4855	-0.493888	0	
0.9100	9.82305	1.62693	0	
0.9107	6.47594	1.01683	0	
0.9113	3.12882	0.726306	0	
0.9120	-0.533598	2.5566	0	
0.9127	-5.72405	2.5566	0	
0.9133	-9.09542	0.726306	0	
0.9140	-10.3081	2.23702	0	
0.9147	-17.0266	4.38689	0	
0.9153	-25.5642	3.77679	0	
0.9160	-28.0139	2.5566	0	
0.9167	-27.4075	3.77679	0	
0.9173	-25.8795	4.38689	0	
0.9180	-20.9801	1.62693	0	
0.9187	-15.1833	-0.493888	0	
0.9193	-9.70178	1.62693	0	
0.9200	-2.66799	2.5566	0	
0.9207	1.60079	-0.203366	0	
0.9213	3.41988	0.406732	0	
0.9220	8.00397	1.9465	0	
0.9227	10.4537	-0.203366	0	
0.9233	9.21669	-1.10399	0	
0.9240	11.3511	-1.10399	0	
0.9247	18.9912	-3.86395	0	
0.9253	26.0008	-6.30434	0	
0.9260	28.1352	-4.76457	0	
0.9267	26.9224	-4.15447	0	
0.9273	26.0008	-3.86395	0	
0.9280	25.1033	-2.93428	0	
0.9287	19.9129	-4.15447	0	
0.9293	13.4855	-4.47405	0	
0.9300	10.4537	-2.32418	0	
0.9307	7.0823	-1.42356	0	
0.9313	2.81352	-1.10399	0	
0.9320	0.994432	-0.493888	0	
0.9327	-2.06163	-0.203366	0	
0.9333	-5.72405	2.23702	0	
0.9340	-7.85844	4.67741	0	
0.9347	-13.0489	4.67741	0	
0.9353	-20.9801	6.21718	0	
0.9360	-23.1145	8.94809	0	
0.9367	-20.9801	8.94809	0	
0.9373	-21.9018	7.7279	0	
0.9380	-20.3737	4.38689	0	
0.9387	-13.9706	-0.203366	0	
0.9393	-10.6234	0.406732	0	
0.9400	-9.09542	3.1667	0	
0.9407	-4.82663	-0.813463	0	
0.9413	-0.848905	-4.15447	0	
0.9420	1.28549	-2.32418	0	
0.9427	2.49821	-2.32418	0	
0.9433	2.49821	-2.64375	0	
0.9440	4.02624	0.726306	0	
0.9447	11.6664	-1.42356	0	
0.9453	21.732	-7.20496	0	
0.9460	26.6071	-5.37467	0	
0.9467	25.1033	-0.813463	0	
0.9473	21.4409	-2.93428	0	
0.9480	19.2823	-4.76457	0	
0.9487	18.0696	-2.93428	0	
0.9493	13.4855	-1.71408	0	
0.9500	7.3976	-2.93428	0	
0.9507	4.94791	-2.64375	0	
0.9513	3.41988	-1.71408	0	
0.9520	-1.16421	-1.10399	0	
0.9527	-5.11769	1.3364	0	
0.9533	-5.72405	3.45722	0	
0.9540	-9.38647	3.77679	0	
0.9547	-16.1049	4.67741	0	
0.9553	-22.2171	5.89761	0	
0.9560	-26.7769	6.21718	0	
0.9567	-26.7769	4.99699	0	
0.9573	-21.9018	1.01683	0	
0.9580	-17.3177	-2.32418	0	
0.9587	-14.8922	-2.03366	0	
0.9593	-10.9145	-2.03366	0	
0.9600	-5.72405	-2.93428	0	
0.9607	-2.9833	-0.493888	0	
0.9613	-2.37694	2.23702	0	
0.9620	-1.16421	0.726306	0	
0.9627	3.41988	-1.42356	0	
0.9633	8.92563	-3.25385	0	
0.9640	11.9574	-4.15447	0	
0.9647	17.7785	-3.86395	0	
0.9653	27.2377	-3.86395	0	
0.9660	31.5065	-5.37467	0	
0.9667	28.7658	-4.15447	0	
0.9673	23.5753	-3.86395	0	
0.9680	18.0696	-7.20496	0	
0.9687	11.06	-7.52453	0	
0.9693	4.34154	-3.54437	0	
0.9700	-1.45527	-2.32418	0	
0.9707	-5.11769	-2.32418	0	
0.9713	-7.25208	0.116209	0	
0.9720	-11.2298	1.62693	0	
0.9727	-15.1833	-0.203366	0	
0.9733	-13.9706	-2.03366	0	
0.9740	-13.0489	-3.54437	0	
0.9747	-20.689	-2.03366	0	
0.9753	-28.6202	1.01683	0	
0.9760	-27.4075	1.01683	0	
0.9767	-22.2171	-0.813463	0	
0.9773	-20.689	-0.493888	0	
0.9780	-17.0266	0.726306	0	
0.9787	-10.6234	0.726306	0	
0.9793	-8.17375	0.726306	0	
0.9800	-5.72405	-0.813463	0	
0.9807	2.20715	-3.25385	0	
0.9813	5.26321	-3.25385	0	
0.9820	0.994432	-0.813463	0	
0.9827	-0.848905	1.01683	0	
0.9833	2.49821	1.62693	0	
0.9840	6.16063	0.726306	0	
0.9847	15.3288	-2.93428	0	
0.9853	29.9785	-5.08414	0	
0.9860	37.9097	-3.86395	0	
0.9867	36.3817	-2.32418	0	
0.9873	32.1129	-3.54437	0	
0.9880	26.3161	-2.64375	0	
0.9887	18.0696	-1.10399	0	
0.9893	11.6664	-1.42356	0	
0.9900	7.3976	-1.10399	0	
0.9907	2.20715	0.726306	0	
0.9913	-3.90497	1.9465	0	
0.9920	-9.38647	2.23702	0	
0.9927	-13.6553	1.62693	0	
0.9933	-16.1049	1.62693	0	
0.9940	-20.3737	4.38689	0	
0.9947	-26.4858	6.21718	0	
0.9953	-29.5419	4.38689	0	
0.9960	-31.361	4.67741	0	
0.9967	-35.3387	4.99699	0	
0.9973	-39.0011	2.84712	0	
0.9980	-38.3948	4.06732	0	
0.9987	-33.2043	6.21718	0	
0.9993	-25.2731	3.1667	0	
1.0000	-17.3177	0.406732	0	
1.0007	-11.2298	1.9465	0	
1.0013	-6.03936	1.62693	0	
1.0020	-2.66799	0.116209	0	
1.0027	-0.848905	-0.203366	0	
1.0033	0.679124	-1.10399	0	
1.0040	4.94791	-3.25385	0	
1.0047	13.4855	-5.69424	0	
1.0053	21.732	-9.35483	0	
1.0060	22.3383	-11.7952	0	
1.0067	18.9912	-11.1851	0	
1.0073	17.4632	-7.52453	0	
1.0080	16.5415	-3.25385	0	
1.0087	15.3288	-2.03366	0	
1.0093	13.4855	-2.32418	0	
1.0100	8.61033	-0.203366	0	
1.0107	5.26321	1.62693	0	
1.0113	5.55427	0.726306	0	
1.0120	3.12882	2.23702	0	
1.0127	-2.06163	3.1667	0	
1.0133	-3.2986	0.116209	0	
1.0140	-3.58966	2.23702	0	
1.0147	-10.3081	6.21718	0	
1.0153	-18.5546	3.1667	0	
1.0160	-22.5081	0.726306	0	
1.0167	-23.7451	4.38689	0	
1.0173	-23.4298	4.38689	0	
1.0180	-19.7674	4.06732	0	
1.0187	-14.5769	7.1178	0	
1.0193	-11.8362	6.21718	0	
1.0200	-9.09542	1.62693	0	
1.0207	-5.11769	1.3364	0	
1.0213	-2.06163	2.23702	0	
1.0220	1.60079	0.406732	0	
1.0227	5.55427	-0.493888	0	
1.0233	6.16063	0.726306	0	
1.0240	9.82305	2.5566	0	
1.0247	21.732	4.67741	0	
1.0253	32.4282	2.5566	0	
1.0260	35.7753	-5.69424	0	
1.0267	33.0345	-9.96492	0	
1.0273	26.9224	-5.69424	0	
1.0280	22.6536	-2.03366	0	
1.0287	20.8103	-1.42356	0	
1.0293	16.2505	-2.64375	0	
1.0300	12.5881	-4.15447	0	
1.0307	11.6664	-3.86395	0	
1.0313	5.86957	-0.203366	0	
1.0320	-0.848905	1.3364	0	
1.0327	-0.848905	0.726306	0	
1.0333	-0.242544	2.5566	0	
1.0340	-5.72405	3.45722	0	
1.0347	-12.1515	1.62693	0	
1.0353	-17.9483	2.23702	0	
1.0360	-22.5081	3.45722	0	
1.0367	-24.0362	2.23702	0	
1.0373	-22.2171	1.9465	0	
1.0380	-17.3177	1.9465	0	
1.0387	-12.4425	-2.32418	0	
1.0393	-10.3081	-4.76457	0	
1.0400	-9.09542	-2.64375	0	
1.0407	-7.85844	-2.32418	0	
1.0413	-7.25208	-4.47405	0	
1.0420	-4.82663	-3.25385	0	
1.0427	-2.06163	-1.42356	0	
1.0433	-0.848905	-2.64375	0	
1.0440	3.12882	-2.93428	0	
1.0447	11.6664	-2.93428	0	
1.0453	19.5976	-5.37467	0	
1.0460	25.3944	-5.37467	0	
1.0467	30.9002	-3.54437	0	
1.0473	31.7976	-5.37467	0	
1.0480	27.8441	-6.59486	0	
1.0487	20.5193	-2.93428	0	
1.0493	14.4071	-1.42356	0	
1.0500	11.9574	-2.93428	0	
1.0507	8.00397	-1.10399	0	
1.0513	2.49821	0.116209	0	
1.0520	0.994432	-2.03366	0	
1.0527	-0.533598	-1.42356	0	
1.0533	-4.82663	1.3364	0	
1.0540	-6.64572	1.9465	0	
1.0547	-9.70178	3.45722	0	
1.0553	-19.7674	5.28751	0	
1.0560	-26.4858	3.1667	0	
1.0567	-25.5642	-0.493888	0	
1.0573	-24.0362	1.62693	0	
1.0580	-21.2954	3.45722	0	
1.0587	-15.7896	0.406732	0	
1.0593	-9.38647	-1.42356	0	
1.0600	-2.37694	1.01683	0	
1.0607	1.89185	0.726306	0	
1.0613	1.28549	-0.813463	0	
1.0620	4.34154	1.62693	0	
1.0627	9.82305	3.77679	0	
1.0633	9.21669	1.62693	0	
1.0640	10.7447	-1.42356	0	
1.0647	20.5193	-3.86395	0	
1.0653	26.3161	-4.15447	0	
1.0660	25.3944	-2.93428	0	
1.0667	26.0008	-0.203366	0	
1.0673	22.3383	1.9465	0	
1.0680	14.1161	2.5566	0	
1.0687	10.7447	0.726306	0	
1.0693	9.82305	0.726306	0	
1.0700	4.34154	1.62693	0	
1.0707	-2.06163	-1.10399	0	
1.0713	-4.19602	-3.25385	0	
1.0720	-5.72405	-1.42356	0	
1.0727	-6.64572	-0.203366	0	
1.0733	-5.72405	-0.203366	0	
1.0740	-7.85844	2.23702	0	
1.0747	-16.7113	3.1667	0	
1.0753	-23.4298	0.726306	0	
1.0760	-22.5081	-0.203366	0	
1.0767	-18.5546	1.3364	0	
1.0773	-16.4203	2.5566	0	
1.0780	-14.2859	2.23702	0	
1.0787	-12.4425	1.9465	0	
1.0793	-10.3081	1.9465	0	
1.0800	-6.64572	2.84712	0	
1.0807	-2.37694	2.23702	0	
1.0813	-0.242544	0.406732	0	
1.0820	0.363817	0.116209	0	
1.0827	-2.37694	1.01683	0	
1.0833	-5.72405	-1.71408	0	
1.0840	-2.06163	-5.08414	0	
1.0847	8.61033	-6.30434	0	
1.0853	16.8568	-7.81506	0	
1.0860	20.2039	-9.35483	0	
1.0867	21.4409	-7.52453	0	
1.0873	18.9912	-5.69424	0	
1.0880	14.4071	-5.98476	0	
1.0887	11.9574	-3.86395	0	
1.0893	9.21669	-1.10399	0	
1.0900	4.65685	-0.813463	0	
1.0907	0.679124	1.62693	0	
1.0913	-1.45527	4.38689	0	
1.0920	-3.90497	1.62693	0	
1.0927	-6.33041	0.116209	0	
1.0933	-6.64572	3.45722	0	
1.0940	-8.48905	4.06732	0	
1.0947	-14.2859	3.1667	0	
1.0953	-20.689	6.21718	0	
1.0960	-25.5642	6.5077	0	
1.0967	-26.7769	4.38689	0	
1.0973	-23.4298	4.67741	0	
1.0980	-17.0266	4.67741	0	
1.0987	-12.1515	1.9465	0	
1.0993	-9.70178	1.62693	0	
1.1000	-6.96102	4.38689	0	
1.1007	-1.16421	5.28751	0	
1.1013	3.41988	1.9465	0	
1.1020	2.49821	-2.03366	0	
1.1027	2.49821	-2.64375	0	
1.1033	6.16063	-0.813463	0	
1.1040	9.21669	0.116209	0	
1.1047	13.4855	-1.42356	0	
1.1053	22.3383	-4.15447	0	
1.1060	26.3161	-3.86395	0	
1.1067	22.9447	-2.32418	0	
1.1073	20.2039	-2.93428	0	
1.1080	20.8103	-3.54437	0	
1.1087	19.9129	-2.32418	0	
1.1093	16.2505	-2.64375	0	
1.1100	12.5881	-3.25385	0	
1.1107	10.7447	-1.10399	0	
1.1113	7.3976	0.406732	0	
1.1120	3.73518	-2.32418	0	
1.1127	3.12882	-2.93428	0	
1.1133	1.89185	-1.10399	0	
1.1140	-3.90497	-0.203366	0	
1.1147	-12.1515	1.3364	0	
1.1153	-20.3737	4.38689	0	
1.1160	-26.7769	4.38689	0	
1.1167	-28.0139	2.84712	0	
1.1173	-24.9578	4.67741	0	
1.1180	-20.3737	8.65757	0	
1.1187	-14.8922	8.94809	0	
1.1193	-11.2298	4.38689	0	
1.1200	-10.6234	-0.493888	0	
1.1207	-9.38647	-0.203366	0	
1.1213	-5.72405	1.62693	0	
1.1220	-1.45527	-1.10399	0	
1.1227	0.363817	-2.93428	0	
1.1233	-1.16421	-2.64375	0	
1.1240	0.679124	-4.47405	0	
1.1247	7.68866	-6.59486	0	
1.1253	16.2505	-5.37467	0	
1.1260	21.1256	-5.98476	0	
1.1267	21.4409	-6.59486	0	
1.1273	17.4632	-3.86395	0	
1.1280	12.5881	-1.42356	0	
1.1287	8.61033	-1.42356	0	
1.1293	5.26321	0.726306	0	
1.1300	2.49821	1.01683	0	
1.1307	0.679124	-0.493888	0	
1.1313	-4.19602	1.01683	0	
1.1320	-9.70178	4.67741	0	
1.1327	-13.0489	2.84712	0	
1.1333	-15.4986	-0.813463	0	
1.1340	-17.633	0.726306	0	
1.1347	-18.2393	4.67741	0	
1.1353	-22.2171	7.7279	0	
1.1360	-27.4075	9.26767	0	
1.1367	-26.7769	8.65757	0	
1.1373	-21.6107	4.06732	0	
1.1380	-16.7113	0.116209	0	
1.1387	-11.2298	-0.203366	0	
1.1393	-5.11769	0.726306	0	
1.1400	-2.37694	1.62693	0	
1.1407	-1.16421	2.5566	0	
1.1413	0.679124	0.406732	0	
1.1420	1.60079	-2.93428	0	
1.1427	1.89185	-2.64375	0	
1.1433	3.12882	-2.03366	0	
1.1440	7.68866	-3.86395	0	
1.1447	17.4632	-4.76457	0	
1.1453	27.5288	-3.86395	0	
1.1460	32.7192	-5.08414	0	
1.1467	35.46	-5.98476	0	
1.1473	33.932	-4.76457	0	
1.1480	25.3944	-4.47405	0	
1.1487	16.5415	-4.15447	0	
1.1493	13.8008	-3.25385	0	
1.1500	10.4537	-3.25385	0	
1.1507	4.65685	-3.86395	0	
1.1513	0.0727633	-2.03366	0	
1.1520	-6.03936	1.62693	0	
1.1527	-10.9145	1.9465	0	
1.1533	-10.6234	1.62693	0	
1.1540	-12.1515	4.38689	0	
1.1547	-18.5546	6.21718	0	
1.1553	-22.5081	6.21718	0	
1.1560	-22.5081	7.1178	0	
1.1567	-22.2171	9.87777	0	
1.1573	-20.3737	9.26767	0	
1.1580	-15.4986	7.1178	0	
1.1587	-9.38647	6.21718	0	
1.1593	-5.11769	4.38689	0	
1.1600	-2.06163	0.406732	0	
1.1607	1.60079	-1.71408	0	
1.1613	4.65685	-3.86395	0	
1.1620	6.47594	-6.59486	0	
1.1627	9.82305	-5.08414	0	
1.1633	16.2505	-2.03366	0	
1.1640	20.5193	-2.93428	0	
1.1647	21.4409	-3.86395	0	
1.1653	22.6536	-4.15447	0	
1.1660	24.4727	-5.08414	0	
1.1667	26.6071	-4.15447	0	
1.1673	27.2377	-2.64375	0	
1.1680	22.0473	-2.64375	0	
1.1687	13.4855	-1.10399	0	
1.1693	6.16063	-0.203366	0	
1.1700	-0.848905	-3.54437	0	
1.1707	-8.48905	-3.86395	0	
1.1713	-13.0489	-0.203366	0	
1.1720	-13.9706	-0.203366	0	
1.1727	-13.3642	-2.64375	0	
1.1733	-12.7578	-1.10399	0	
1.1740	-14.8922	0.726306	0	
1.1747	-20.9801	2.23702	0	
1.1753	-27.4075	4.38689	0	
1.1760	-30.4393	5.60708	0	
1.1767	-30.4393	6.82728	0	
1.1773	-28.3049	7.7279	0	
1.1780	-24.3515	4.38689	0	
1.1787	-20.0827	-1.10399	0	
1.1793	-14.8922	-2.93428	0	
1.1800	-11.8362	-3.86395	0	
1.1807	-12.4425	-5.08414	0	
1.1813	-11.2298	-4.76457	0	
1.1820	-6.64572	-3.54437	0	
1.1827	-3.58966	-4.15447	0	
1.1833	-1.16421	-5.08414	0	
1.1840	3.73518	-4.76457	0	
1.1847	9.82305	-5.08414	0	
1.1853	16.2505	-5.37467	0	
1.1860	23.8664	-3.86395	0	
1.1867	26.9224	-2.93428	0	
1.1873	24.4727	-3.86395	0	
1.1880	22.3383	-4.76457	0	
1.1887	19.5976	-3.86395	0	
1.1893	15.9352	-3.86395	0	
1.1900	13.1944	-5.69424	0	
1.1907	11.06	-5.08414	0	
1.1913	8.00397	-3.86395	0	
1.1920	4.02624	-3.54437	0	
1.1927	0.679124	-1.71408	0	
1.1933	-1.16421	1.3364	0	
1.1940	-3.90497	1.9465	0	
1.1947	-10.6234	1.62693	0	
1.1953	-18.8457	3.1667	0	
1.1960	-24.9578	3.1667	0	
1.1967	-27.6986	1.62693	0	
1.1973	-26.4858	2.23702	0	
1.1980	-23.1145	2.5566	0	
1.1987	-19.7674	1.9465	0	
1.1993	-16.1049	1.3364	0	
1.2000	-11.2298	-0.203366	0	
1.2007	-7.56739	-1.71408	0	
1.2013	-4.82663	-1.42356	0	
1.2020	-0.848905	0.726306	0	
1.2027	1.60079	1.01683	0	
1.2033	1.60079	-2.03366	0	
1.2040	6.16063	-5.98476	0	
1.2047	17.1479	-8.13463	0	
1.2053	23.26	-8.13463	0	
1.2060	22.9447	-6.59486	0	
1.2067	24.1817	-6.30434	0	
1.2073	24.4727	-8.13463	0	
1.2080	21.1256	-7.52453	0	
1.2087	18.6759	-1.42356	0	
1.2093	15.9352	1.9465	0	
1.2100	10.1384	-0.203366	0	
1.2107	7.3976	-1.10399	0	
1.2113	7.3976	0.406732	0	
1.2120	2.81352	-0.493888	0	
1.2127	-2.66799	-1.10399	0	
1.2133	-2.9833	0.406732	0	
1.2140	-4.19602	0.726306	0	
1.2147	-12.1515	1.3364	0	
1.2153	-19.7674	4.99699	0	
1.2160	-21.2954	6.82728	0	
1.2167	-20.689	4.67741	0	
1.2173	-19.7674	3.45722	0	
1.2180	-15.1833	4.06732	0	
1.2187	-8.78011	3.45722	0	
1.2193	-5.72405	1.9465	0	
1.2200	-4.19602	1.62693	0	
1.2207	-2.06163	1.62693	0	
1.2213	-0.533598	1.62693	0	
1.2220	0.363817	1.3364	0	
1.2227	0.994432	1.3364	0	
1.2233	0.679124	2.5566	0	
1.2240	3.12882	2.23702	0	
1.2247	10.7447	-0.493888	0	
1.2253	17.7785	-2.03366	0	
1.2260	20.8103	-2.93428	0	
1.2267	22.9447	-2.93428	0	
1.2273	24.1817	0.116209	0	
1.2280	22.0473	3.77679	0	
1.2287	18.6759	1.01683	0	
1.2293	14.4071	-1.42356	0	
1.2300	10.7447	1.62693	0	
1.2307	8.61033	2.23702	0	
1.2313	5.26321	-0.203366	0	
1.2320	2.20715	0.726306	0	
1.2327	0.679124	0.726306	0	
1.2333	-2.06163	-1.10399	0	
1.2340	-7.85844	0.406732	0	
1.2347	-12.1515	2.5566	0	
1.2353	-17.3177	3.45722	0	
1.2360	-24.9578	5.28751	0	
1.2367	-26.7769	3.77679	0	
1.2373	-22.8234	0.726306	0	
1.2380	-20.9801	1.62693	0	
1.2387	-20.689	1.3364	0	
1.2393	-16.4203	-3.54437	0	
1.2400	-9.99283	-3.86395	0	
1.2407	-6.96102	-1.71408	0	
1.2413	-6.64572	-2.03366	0	
1.2420	-2.06163	-2.03366	0	
1.2427	2.81352	-1.10399	0	
1.2433	2.49821	-1.10399	0	
1.2440	3.41988	-2.03366	0	
1.2447	13.4855	-2.32418	0	
1.2453	22.6536	-2.32418	0	
1.2460	23.8664	-2.32418	0	
1.2467	25.3944	-4.15447	0	
1.2473	26.3161	-5.69424	0	
1.2480	21.732	-3.86395	0	
1.2487	16.2505	-3.25385	0	
1.2493	12.2727	-3.86395	0	
1.2500	7.68866	-0.813463	0	
1.2507	2.49821	1.01683	0	
1.2513	-0.533598	-2.03366	0	
1.2520	-2.06163	-2.03366	0	
1.2527	-2.66799	2.84712	0	
1.2533	-2.9833	3.77679	0	
1.2540	-2.66799	2.5566	0	
1.2547	-5.72405	4.38689	0	
1.2553	-13.9706	4.99699	0	
1.2560	-21.9018	2.5566	0	
1.2567	-24.9578	1.62693	0	
1.2573	-23.4298	1.62693	0	
1.2580	-18.5546	-0.203366	0	
1.2587	-16.7113	-1.10399	0	
1.2593	-19.161	-0.203366	0	
1.2600	-16.7113	-0.813463	0	
1.2607	-8.78011	-1.10399	0	
1.2613	-2.9833	-2.64375	0	
1.2620	2.20715	-8.42515	0	
1.2627	5.86957	-10.2554	0	
1.2633	5.26321	-5.98476	0	
1.2640	8.00397	-5.08414	0	
1.2647	16.5415	-9.35483	0	
1.2653	23.8664	-9.64535	0	
1.2660	28.7658	-7.20496	0	
1.2667	29.3721	-8.13463	0	
1.2673	23.5753	-9.03525	0	
1.2680	18.0696	-6.30434	0	
1.2687	16.2505	-4.76457	0	
1.2693	11.6664	-5.98476	0	
1.2700	7.68866	-4.47405	0	
1.2707	4.94791	-2.03366	0	
1.2713	0.679124	-0.493888	0	
1.2720	-2.66799	1.62693	0	
1.2727	-3.2986	4.38689	0	
1.2733	-4.82663	3.1667	0	
1.2740	-8.48905	-0.493888	0	
1.2747	-16.1049	-2.03366	0	
1.2753	-24.9578	-0.203366	0	
1.2760	-26.4858	2.23702	0	
1.2767	-24.9578	2.5566	0	
1.2773	-24.9578	1.01683	0	
1.2780	-22.5081	1.3364	0	
1.2787	-18.2393	3.1667	0	
1.2793	-15.1833	1.9465	0	
1.2800	-9.09542	-1.10399	0	
1.2807	-0.242544	-1.42356	0	
1.2813	5.26321	-0.203366	0	
1.2820	5.55427	-1.10399	0	
1.2827	3.41988	-1.10399	0	
1.2833	4.02624	0.726306	0	
1.2840	8.61033	1.9465	0	
1.2847	16.2505	1.01683	0	
1.2853	24.788	0.116209	0	
1.2860	28.1352	0.726306	0	
1.2867	23.26	1.3364	0	
1.2873	17.1479	-0.203366	0	
1.2880	12.8791	-1.71408	0	
1.2887	7.0823	0.116209	0	
1.2893	3.41988	1.9465	0	
1.2900	3.73518	1.62693	0	
1.2907	2.20715	2.23702	0	
1.2913	-2.9833	3.1667	0	
1.2920	-8.78011	3.1667	0	
1.2927	-12.1515	3.77679	0	
1.2933	-10.3081	4.38689	0	
1.2940	-8.17375	4.99699	0	
1.2947	-14.2859	7.43738	0	
1.2953	-23.4298	10.1683	0	
1.2960	-26.7769	11.7081	0	
1.2967	-24.9578	12.6377	0	
1.2973	-22.5081	10.1683	0	
1.2980	-20.689	5.60708	0	
1.2987	-19.161	3.45722	0	
1.2993	-16.7113	2.5566	0	
1.3000	-12.1515	1.62693	0	
1.3007	-7.56739	2.5566	0	
1.3013	-4.82663	1.3364	0	
1.3020	-3.90497	-1.71408	0	
1.3027	-2.9833	-0.203366	0	
1.3033	-0.533598	1.3364	0	
1.3040	3.12882	-0.203366	0	
1.3047	10.7447	0.406732	0	
1.3053	18.0696	0.116209	0	
1.3060	20.8103	-3.25385	0	
1.3067	20.5193	-2.03366	0	
1.3073	19.5976	2.23702	0	
1.3080	16.8568	1.3364	0	
1.3087	13.4855	-1.10399	0	
1.3093	11.06	-1.10399	0	
1.3100	7.0823	-2.32418	0	
1.3107	3.41988	-2.93428	0	
1.3113	2.20715	0.406732	0	
1.3120	-0.242544	2.23702	0	
1.3127	-2.06163	-0.203366	0	
1.3133	-1.77057	-0.493888	0	
1.3140	-2.9833	1.01683	0	
1.3147	-7.85844	1.62693	0	
1.3153	-15.4986	2.5566	0	
1.3160	-21.9018	4.67741	0	
1.3167	-23.7451	5.28751	0	
1.3173	-21.9018	5.28751	0	
1.3180	-19.161	6.21718	0	
1.3187	-13.9706	5.60708	0	
1.3193	-5.72405	3.45722	0	
1.3200	0.679124	3.45722	0	
1.3207	4.94791	2.5566	0	
1.3213	8.92563	0.406732	0	
1.3220	12.5881	-0.203366	0	
1.3227	15.0135	-1.42356	0	
1.3233	15.3288	-3.86395	0	
1.3240	15.3288	-3.86395	0	
1.3247	17.1479	-4.47405	0	
1.3253	20.5193	-6.91444	0	
1.3260	22.3383	-4.76457	0	
1.3267	18.9912	-2.03366	0	
1.3273	9.82305	-3.86395	0	
1.3280	4.34154	-3.86395	0	
1.3287	7.68866	-0.493888	0	
1.3293	9.532	0.726306	0	
1.3300	5.86957	-0.813463	0	
1.3307	4.02624	1.62693	0	
1.3313	4.02624	4.99699	0	
1.3320	1.89185	4.38689	0	
1.3327	0.363817	2.5566	0	
1.3333	-1.16421	3.77679	0	
1.3340	-6.96102	3.45722	0	
1.3347	-14.8922	1.01683	0	
1.3353	-21.2954	2.23702	0	
1.3360	-28.0139	5.28751	0	
1.3367	-32.598	3.1667	0	
1.3373	-29.833	-0.203366	0	
1.3380	-23.1145	1.62693	0	
1.3387	-19.7674	2.5566	0	
1.3393	-17.3177	-0.813463	0	
1.3400	-10.9145	-1.10399	0	
1.3407	-5.11769	-0.203366	0	
1.3413	-3.90497	-3.86395	0	
1.3420	-2.9833	-6.30434	0	
1.3427	0.679124	-5.98476	0	
1.3433	3.41988	-6.30434	0	
1.3440	5.26321	-5.08414	0	
1.3447	11.06	-4.76457	0	
1.3453	18.9912	-8.13463	0	
1.3460	25.3944	-7.52453	0	
1.3467	29.9785	-3.86395	0	
1.3473	29.6632	-3.25385	0	
1.3480	23.5753	-2.93428	0	
1.3487	19.5976	-2.03366	0	
1.3493	17.4632	-3.25385	0	
1.3500	13.1944	-2.32418	0	
1.3507	9.532	0.726306	0	
1.3513	6.79124	-0.203366	0	
1.3520	-0.242544	-0.813463	0	
1.3527	-7.85844	-0.203366	0	
1.3533	-10.9145	-2.03366	0	
1.3540	-13.9706	-1.10399	0	
1.3547	-18.5546	2.5566	0	
1.3553	-23.4298	2.84712	0	
1.3560	-27.4075	1.62693	0	
1.3567	-27.4075	1.9465	0	
1.3573	-24.6425	1.62693	0	
1.3580	-23.7451	1.62693	0	
1.3587	-21.2954	2.23702	0	
1.3593	-16.7113	1.01683	0	
1.3600	-12.4425	-1.10399	0	
1.3607	-8.78011	-1.42356	0	
1.3613	-5.72405	-0.813463	0	
1.3620	-4.82663	-0.493888	0	
1.3627	-2.9833	-2.03366	0	
1.3633	0.994432	-3.25385	0	
1.3640	4.65685	-2.93428	0	
1.3647	12.2727	-2.03366	0	
1.3653	22.0473	-3.25385	0	
1.3660	25.1033	-4.76457	0	
1.3667	22.6536	-4.47405	0	
1.3673	21.732	-2.93428	0	
1.3680	19.9129	-2.03366	0	
1.3687	15.3288	-2.93428	0	
1.3693	11.6664	-5.08414	0	
1.3700	8.00397	-6.91444	0	
1.3707	4.34154	-3.86395	0	
1.3713	0.679124	-0.203366	0	
1.3720	-6.64572	-2.93428	0	
1.3727	-12.4425	-5.98476	0	
1.3733	-12.4425	-3.86395	0	
1.3740	-13.3642	-1.42356	0	
1.3747	-18.2393	-1.42356	0	
1.3753	-21.2954	1.62693	0	
1.3760	-23.4298	4.38689	0	
1.3767	-24.6425	3.45722	0	
1.3773	-21.9018	1.3364	0	
1.3780	-17.3177	-0.203366	0	
1.3787	-13.0489	-1.71408	0	
1.3793	-6.64572	-2.64375	0	
1.3800	0.0727633	-2.93428	0	
1.3807	1.60079	-2.03366	0	
1.3813	-0.242544	-3.86395	0	
1.3820	0.0727633	-6.59486	0	
1.3827	2.49821	-5.69424	0	
1.3833	4.34154	-3.54437	0	
1.3840	7.0823	-4.15447	0	
1.3847	13.4855	-4.76457	0	
1.3853	20.8103	-3.86395	0	
1.3860	26.6071	-4.76457	0	
1.3867	27.5288	-3.86395	0	
1.3873	23.5753	-2.32418	0	
1.3880	18.6759	-3.86395	0	
1.3887	17.4632	-4.47405	0	
1.3893	16.2505	-2.32418	0	
1.3900	11.6664	-2.03366	0	
1.3907	8.61033	-1.10399	0	
1.3913	6.79124	2.5566	0	
1.3920	4.94791	3.1667	0	
1.3927	4.34154	1.3364	0	
1.3933	2.49821	2.5566	0	
1.3940	-2.06163	3.45722	0	
1.3947	-6.64572	4.38689	0	
1.3953	-11.2298	6.21718	0	
1.3960	-15.7896	5.89761	0	
1.3967	-15.7896	4.38689	0	
1.3973	-13.9706	4.38689	0	
1.3980	-17.0266	2.5566	0	
1.3987	-16.7113	-0.203366	0	
1.3993	-9.70178	-1.42356	0	
1.4000	-3.90497	-0.813463	0	
1.4007	-1.16421	-0.203366	0	
1.4013	0.363817	0.726306	0	
1.4020	-0.848905	0.116209	0	
1.4027	0.0727633	-2.03366	0	
1.4033	4.34154	-2.64375	0	
1.4040	7.0823	-2.32418	0	
1.4047	11.06	-4.15447	0	
1.4053	19.5976	-6.30434	0	
1.4060	25.3944	-5.69424	0	
1.4067	25.1033	-5.08414	0	
1.4073	22.9447	-4.76457	0	
1.4080	19.9129	-1.71408	0	
1.4087	15.9352	2.23702	0	
1.4093	13.4855	1.62693	0	
1.4100	10.4537	0.726306	0	
1.4107	4.02624	1.9465	0	
1.4113	-1.45527	1.62693	0	
1.4120	-3.58966	1.01683	0	
1.4127	-2.9833	2.23702	0	
1.4133	-2.66799	1.9465	0	
1.4140	-5.43299	1.3364	0	
1.4147	-14.2859	3.77679	0	
1.4153	-24.0362	5.89761	0	
1.4160	-27.6986	5.89761	0	
1.4167	-26.7769	5.28751	0	
1.4173	-25.5642	4.38689	0	
1.4180	-23.4298	5.28751	0	
1.4187	-19.7674	8.94809	0	
1.4193	-16.7113	8.04747	0	
1.4200	-14.8922	4.38689	0	
1.4207	-11.2298	4.99699	0	
1.4213	-8.78011	4.38689	0	
1.4220	-9.70178	0.406732	0	
1.4227	-9.99283	-0.813463	0	
1.4233	-6.64572	-0.203366	0	
1.4240	-2.9833	-1.10399	0	
1.4247	3.12882	-0.493888	0	
1.4253	14.4071	-1.42356	0	
1.4260	22.6536	-6.30434	0	
1.4267	23.5753	-6.30434	0	
1.4273	22.0473	-0.203366	0	
1.4280	19.2823	2.5566	0	
1.4287	14.4071	-1.10399	0	
1.4293	10.7447	-2.93428	0	
1.4300	7.3976	-0.203366	0	
1.4307	2.49821	5.60708	0	
1.4313	-2.9833	9.26767	0	
1.4320	-5.11769	8.04747	0	
1.4327	-6.33041	6.21718	0	
1.4333	-8.48905	6.21718	0	
1.4340	-11.8362	4.67741	0	
1.4347	-16.1049	3.45722	0	
1.4353	-24.9578	6.21718	0	
1.4360	-33.2043	9.55819	0	
1.4367	-31.6763	8.94809	0	
1.4373	-25.2731	6.82728	0	
1.4380	-23.1145	3.77679	0	
1.4387	-19.4521	2.5566	0	
1.4393	-13.6553	4.06732	0	
1.4400	-11.2298	4.38689	0	
1.4407	-8.48905	2.5566	0	
1.4413	-2.06163	3.45722	0	
1.4420	1.89185	4.06732	0	
1.4427	3.12882	0.726306	0	
1.4433	5.26321	0.726306	0	
1.4440	8.61033	2.84712	0	
1.4447	14.4071	0.726306	0	
1.4453	21.732	-2.93428	0	
1.4460	24.4727	-2.32418	0	
1.4467	23.8664	-0.203366	0	
1.4473	23.5753	-0.493888	0	
1.4480	20.5193	-2.93428	0	
1.4487	15.6199	-3.25385	0	
1.4493	13.8008	-1.10399	0	
1.4500	11.3511	-1.42356	0	
1.4507	6.16063	-4.15447	0	
1.4513	2.49821	-4.47405	0	
1.4520	0.679124	-3.54437	0	
1.4527	-0.533598	-3.54437	0	
1.4533	-1.16421	-2.03366	0	
1.4540	-1.45527	0.726306	0	
1.4547	-5.43299	1.9465	0	
1.4553	-14.2859	3.77679	0	
1.4560	-22.5081	4.99699	0	
1.4567	-22.8234	2.84712	0	
1.4573	-17.633	1.62693	0	
1.4580	-17.3177	2.5566	0	
1.4587	-18.5546	-0.203366	0	
1.4593	-12.4425	-3.86395	0	
1.4600	-4.19602	-2.93428	0	
1.4607	0.363817	-0.203366	0	
1.4613	3.12882	-0.813463	0	
1.4620	6.16063	-2.93428	0	
1.4627	8.92563	-2.93428	0	
1.4633	10.7447	-1.71408	0	
1.4640	13.1944	-1.10399	0	
1.4647	18.9912	-1.10399	0	
1.4653	26.9224	-2.03366	0	
1.4660	30.2695	-4.76457	0	
1.4667	29.6632	-5.98476	0	
1.4673	29.0568	-4.76457	0	
1.4680	26.0008	-3.86395	0	
1.4687	18.3849	-2.32418	0	
1.4693	12.5881	-1.10399	0	
1.4700	8.92563	-0.203366	0	
1.4707	4.34154	-0.813463	0	
1.4713	1.60079	-1.10399	0	
1.4720	1.28549	0.726306	0	
1.4727	-0.533598	2.5566	0	
1.4733	-2.37694	0.726306	0	
1.4740	-1.45527	-0.813463	0	
1.4747	-3.90497	2.23702	0	
1.4753	-12.1515	3.45722	0	
1.4760	-18.8457	1.62693	0	
1.4767	-20.9801	1.62693	0	
1.4773	-19.7674	1.9465	0	
1.4780	-15.7896	-0.493888	0	
1.4787	-12.4425	-2.93428	0	
1.4793	-11.5209	-3.86395	0	
1.4800	-7.56739	-4.47405	0	
1.4807	-1.16421	-4.76457	0	
1.4813	-0.242544	-6.59486	0	
1.4820	-2.66799	-7.20496	0	
1.4827	-2.66799	-2.93428	0	
1.4833	-1.16421	-1.10399	0	
1.4840	0.994432	-4.47405	0	
1.4847	8.00397	-4.76457	0	
1.4853	17.1479	-3.25385	0	
1.4860	20.8103	-2.64375	0	
1.4867	18.0696	-0.813463	0	
1.4873	15.3288	-0.203366	0	
1.4880	11.06	-3.54437	0	
1.4887	3.41988	-3.86395	0	
1.4893	-1.45527	-1.42356	0	
1.4900	-2.37694	-2.64375	0	
1.4907	-4.82663	-5.37467	0	
1.4913	-8.48905	-5.37467	0	
1.4920	-9.09542	-3.86395	0	
1.4927	-7.85844	-3.25385	0	
1.4933	-7.56739	-2.32418	0	
1.4940	-11.2298	-0.493888	0	
1.4947	-18.8457	1.9465	0	
1.4953	-24.6425	4.38689	0	
1.4960	-26.7769	4.38689	0	
1.4967	-28.9355	2.23702	0	
1.4973	-27.6986	0.726306	0	
1.4980	-22.5081	-0.203366	0	
1.4987	-18.8457	-0.493888	0	
1.4993	-16.4203	0.116209	0	
1.5000	-13.3642	-0.813463	0	
1.5007	-9.70178	-3.86395	0	
1.5013	-5.72405	-2.03366	0	
1.5020	-2.66799	1.9465	0	
1.5027	0.0727633	0.116209	0	
1.5033	6.47594	-3.86395	0	
1.5040	14.1161	-3.86395	0	
1.5047	19.9129	-3.25385	0	
1.5053	29.0568	-4.76457	0	
1.5060	35.46	-4.47405	0	
1.5067	32.4282	-4.76457	0	
1.5073	29.3721	-6.59486	0	
1.5080	29.3721	-4.76457	0	
1.5087	23.26	0.116209	0	
1.5093	14.4071	0.406732	0	
1.5100	8.92563	-2.93428	0	
1.5107	3.73518	-2.03366	0	
1.5113	-0.533598	1.9465	0	
1.5120	-3.2986	0.726306	0	
1.5127	-8.17375	-2.93428	0	
1.5133	-9.70178	-3.86395	0	
1.5140	-8.48905	-1.71408	0	
1.5147	-17.0266	2.84712	0	
1.5153	-29.5419	5.60708	0	
1.5160	-32.2827	4.99699	0	
1.5167	-29.5419	3.1667	0	
1.5173	-26.7769	1.3364	0	
1.5180	-21.6107	0.726306	0	
1.5187	-16.4203	-0.203366	0	
1.5193	-11.8362	-0.203366	0	
1.5200	-6.96102	1.01683	0	
1.5207	-4.82663	3.45722	0	
1.5213	-2.9833	3.45722	0	
1.5220	0.363817	3.1667	0	
1.5227	1.60079	2.5566	0	
1.5233	2.81352	0.116209	0	
1.5240	8.31927	-0.493888	0	
1.5247	15.0135	-1.10399	0	
1.5253	22.9447	-4.76457	0	
1.5260	29.9785	-6.30434	0	
1.5267	29.0568	-3.54437	0	
1.5273	25.3944	-2.93428	0	
1.5280	24.4727	-4.15447	0	
1.5287	20.5193	-3.25385	0	
1.5293	15.3288	-2.03366	0	
1.5300	14.7224	-0.493888	0	
1.5307	13.4855	1.3364	0	
1.5313	8.00397	0.726306	0	
1.5320	2.49821	0.726306	0	
1.5327	-2.9833	2.23702	0	
1.5333	-4.82663	2.23702	0	
1.5340	-4.51133	1.62693	0	
1.5347	-10.3081	2.23702	0	
1.5353	-20.3737	2.84712	0	
1.5360	-25.8795	4.38689	0	
1.5367	-26.1705	5.60708	0	
1.5373	-24.0362	3.77679	0	
1.5380	-19.4521	1.62693	0	
1.5387	-13.9706	0.406732	0	
1.5393	-7.85844	0.406732	0	
1.5400	-2.9833	1.3364	0	
1.5407	-1.77057	-0.203366	0	
1.5413	-0.533598	-4.15447	0	
1.5420	3.73518	-5.37467	0	
1.5427	7.0823	-4.47405	0	
1.5433	8.00397	-6.59486	0	
1.5440	8.00397	-8.42515	0	
1.5447	8.92563	-5.69424	0	
1.5453	14.4071	-3.86395	0	
1.5460	22.9447	-5.08414	0	
1.5467	25.3944	-4.76457	0	
1.5473	22.6536	-3.25385	0	
1.5480	20.2039	-2.03366	0	
1.5487	14.4071	-1.10399	0	
1.5493	8.00397	-1.10399	0	
1.5500	4.34154	-1.10399	0	
1.5507	-2.06163	-1.10399	0	
1.5513	-8.17375	-1.71408	0	
1.5520	-9.70178	-2.03366	0	
1.5527	-10.6234	0.406732	0	
1.5533	-11.2298	2.5566	0	
1.5540	-11.8362	2.5566	0	
1.5547	-17.9483	4.38689	0	
1.5553	-24.9578	8.94809	0	
1.5560	-28.9355	9.55819	0	
1.5567	-34.1017	7.1178	0	
1.5573	-36.8668	4.99699	0	
1.5580	-31.9674	2.23702	0	
1.5587	-26.1705	0.406732	0	
1.5593	-21.9018	2.5566	0	
1.5600	-13.9706	2.23702	0	
1.5607	-7.56739	-3.86395	0	
1.5613	-4.51133	-6.30434	0	
1.5620	1.28549	-5.37467	0	
1.5627	8.92563	-5.69424	0	
1.5633	13.1944	-5.69424	0	
1.5640	17.4632	-5.08414	0	
1.5647	26.0008	-4.76457	0	
1.5653	34.5626	-2.93428	0	
1.5660	36.0664	-2.93428	0	
1.5667	32.7192	-5.69424	0	
1.5673	29.3721	-4.47405	0	
1.5680	25.3944	-0.203366	0	
1.5687	20.5193	-0.493888	0	
1.5693	19.5976	-2.93428	0	
1.5700	21.4409	-3.25385	0	
1.5707	18.6759	-2.32418	0	
1.5713	11.06	-1.10399	0	
1.5720	2.49821	-1.10399	0	
1.5727	-4.51133	-2.03366	0	
1.5733	-7.25208	-1.10399	0	
1.5740	-7.25208	0.406732	0	
1.5747	-14.5769	1.62693	0	
1.5753	-27.6986	3.1667	0	
1.5760	-33.8107	2.84712	0	
1.5767	-31.361	2.23702	0	
1.5773	-30.4393	2.84712	0	
1.5780	-29.833	1.9465	0	
1.5787	-24.0362	0.406732	0	
1.5793	-17.3177	2.5566	0	
1.5800	-12.1515	3.45722	0	
1.5807	-5.11769	0.406732	0	
1.5813	0.994432	0.726306	0	
1.5820	3.73518	2.84712	0	
1.5827	5.55427	1.62693	0	
1.5833	6.79124	-0.813463	0	
1.5840	8.61033	-2.03366	0	
1.5847	14.7224	-3.25385	0	
1.5853	19.9129	-4.76457	0	
1.5860	18.3849	-6.59486	0	
1.5867	18.0696	-7.20496	0	
1.5873	20.8103	-5.08414	0	
1.5880	18.9912	-3.54437	0	
1.5887	12.5881	-3.86395	0	
1.5893	7.68866	-3.86395	0	
1.5900	4.65685	-1.10399	0	
1.5907	3.12882	-0.813463	0	
1.5913	1.60079	-1.10399	0	
1.5920	-2.06163	2.84712	0	
1.5927	-4.19602	6.21718	0	
1.5933	-2.9833	5.60708	0	
1.5940	-5.11769	6.21718	0	
1.5947	-12.1515	8.04747	0	
1.5953	-20.689	6.21718	0	
1.5960	-28.6202	2.84712	0	
1.5967	-31.6763	2.23702	0	
1.5973	-27.6986	3.45722	0	
1.5980	-22.8234	3.1667	0	
1.5987	-19.7674	-0.203366	0	
1.5993	-16.1049	-2.32418	0	
1.6000	-12.1515	-2.93428	0	
1.6007	-8.48905	-4.76457	0	
1.6013	-5.72405	-5.69424	0	
1.6020	-3.90497	-2.93428	0	
1.6027	-1.77057	-3.54437	0	
1.6033	0.994432	-6.30434	0	
1.6040	3.12882	-3.86395	0	
1.6047	8.00397	-2.32418	0	
1.6053	15.9352	-7.20496	0	
1.6060	21.1256	-9.35483	0	
1.6067	21.732	-6.59486	0	
1.6073	19.9129	-4.15447	0	
1.6080	16.2505	-2.32418	0	
1.6087	13.4855	-1.10399	0	
1.6093	13.1944	-3.86395	0	
1.6100	12.2727	-5.37467	0	
1.6107	8.92563	-3.86395	0	
1.6113	5.26321	-2.93428	0	
1.6120	2.49821	-2.03366	0	
1.6127	0.679124	0.406732	0	
1.6133	0.679124	1.3364	0	
1.6140	-0.848905	-0.203366	0	
1.6147	-7.56739	-1.42356	0	
1.6153	-17.3177	-0.203366	0	
1.6160	-23.4298	4.38689	0	
1.6167	-23.4298	6.82728	0	
1.6173	-21.2954	5.28751	0	
1.6180	-19.7674	6.21718	0	
1.6187	-17.0266	8.94809	0	
1.6193	-11.5209	7.1178	0	
1.6200	-5.72405	3.45722	0	
1.6207	-1.77057	1.3364	0	
1.6213	-0.242544	0.116209	0	
1.6220	0.679124	-0.493888	0	
1.6227	2.20715	-1.10399	0	
1.6233	5.55427	-2.03366	0	
1.6240	8.61033	-5.08414	0	
1.6247	12.5881	-9.35483	0	
1.6253	21.1256	-10.8655	0	
1.6260	28.4505	-8.74473	0	
1.6267	27.8441	-6.30434	0	
1.6273	26.0008	-4.15447	0	
1.6280	25.1033	-2.93428	0	
1.6287	19.2823	-3.86395	0	
1.6293	12.5881	-3.86395	0	
1.6300	8.92563	0.406732	0	
1.6307	4.65685	0.726306	0	
1.6313	1.28549	-1.71408	0	
1.6320	-1.16421	2.23702	0	
1.6327	-5.43299	5.89761	0	
1.6333	-6.96102	1.01683	0	
1.6340	-6.03936	-1.10399	0	
1.6347	-12.1515	4.06732	0	
1.6353	-21.6107	5.28751	0	
1.6360	-24.3515	2.84712	0	
1.6367	-24.3515	4.38689	0	
1.6373	-21.9018	4.99699	0	
1.6380	-15.1833	2.23702	0	
1.6387	-11.2298	1.62693	0	
1.6393	-10.6234	2.5566	0	
1.6400	-4.82663	1.62693	0	
1.6407	0.994432	0.726306	0	
1.6413	0.679124	0.406732	0	
1.6420	0.363817	-0.813463	0	
1.6427	4.02624	-0.813463	0	
1.6433	7.0823	-0.493888	0	
1.6440	9.82305	-0.813463	0	
1.6447	15.6199	-0.493888	0	
1.6453	22.6536	-0.493888	0	
1.6460	26.0008	-0.493888	0	
1.6467	27.2377	-0.203366	0	
1.6473	26.3161	-2.03366	0	
1.6480	21.732	-3.86395	0	
1.6487	16.2505	-1.10399	0	
1.6493	9.82305	0.406732	0	
1.6500	1.28549	-0.813463	0	
1.6507	-4.19602	-0.493888	0	
1.6513	-2.06163	-0.203366	0	
1.6520	0.679124	-0.493888	0	
1.6527	-1.16421	1.01683	0	
1.6533	-4.51133	2.5566	0	
1.6540	-6.96102	3.1667	0	
1.6547	-12.1515	5.28751	0	
1.6553	-21.9018	5.60708	0	
1.6560	-30.1483	3.45722	0	
1.6567	-29.5419	3.45722	0	
1.6573	-24.0362	2.84712	0	
1.6580	-20.3737	0.116209	0	
1.6587	-16.1049	-0.203366	0	
1.6593	-11.2298	0.726306	0	
1.6600	-9.99283	0.726306	0	
1.6607	-10.6234	1.62693	0	
1.6613	-9.09542	0.406732	0	
1.6620	-3.2986	-2.64375	0	
1.6627	0.994432	-3.25385	0	
1.6633	1.28549	-1.42356	0	
1.6640	2.49821	-0.493888	0	
1.6647	10.4537	-1.71408	0	
1.6653	20.2039	-2.93428	0	
1.6660	26.6071	-0.813463	0	
1.6667	28.4505	1.62693	0	
1.6673	26.3161	0.116209	0	
1.6680	21.4409	-0.813463	0	
1.6687	16.2505	1.62693	0	
1.6693	13.4855	3.1667	0	
1.6700	11.3511	3.45722	0	
1.6707	7.0823	2.23702	0	
1.6713	4.02624	-0.203366	0	
1.6720	2.49821	-0.203366	0	
1.6727	-1.16421	2.5566	0	
1.6733	-3.90497	2.84712	0	
1.6740	-3.90497	1.62693	0	
1.6747	-10.3081	1.9465	0	
1.6753	-22.5081	1.9465	0	
1.6760	-27.4075	2.23702	0	
1.6767	-26.1705	4.38689	0	
1.6773	-25.8795	5.60708	0	
1.6780	-23.1145	3.45722	0	
1.6787	-17.633	1.62693	0	
1.6793	-15.1833	3.1667	0	
1.6800	-13.6553	4.38689	0	
1.6807	-11.5209	1.62693	0	
1.6813	-11.2298	-1.10399	0	
1.6820	-7.56739	-2.32418	0	
1.6827	0.679124	-2.03366	0	
1.6833	4.65685	-2.03366	0	
1.6840	6.79124	-2.93428	0	
1.6847	16.8568	-4.47405	0	
1.6853	28.7658	-7.20496	0	
1.6860	30.9002	-7.52453	0	
1.6867	29.0568	-3.86395	0	
1.6873	28.4505	-0.203366	0	
1.6880	24.4727	-2.32418	0	
1.6887	17.1479	-5.37467	0	
1.6893	11.9574	-3.86395	0	
1.6900	8.92563	-0.203366	0	
1.6907	5.86957	0.726306	0	
1.6913	0.363817	-1.42356	0	
1.6920	-7.85844	-3.86395	0	
1.6927	-10.6234	-3.54437	0	
1.6933	-6.64572	-1.42356	0	
1.6940	-6.64572	-0.203366	0	
1.6947	-16.1049	1.3364	0	
1.6953	-24.9578	3.1667	0	
1.6960	-28.6202	4.38689	0	
1.6967	-28.6202	3.77679	0	
1.6973	-24.9578	3.45722	0	
1.6980	-20.9801	2.5566	0	
1.6987	-18.5546	1.62693	0	
1.6993	-13.9706	-0.203366	0	
1.7000	-7.56739	-2.03366	0	
1.7007	-4.82663	-3.25385	0	
1.7013	-3.90497	-3.86395	0	
1.7020	2.20715	-5.98476	0	
1.7027	5.86957	-9.03525	0	
1.7033	4.34154	-7.52453	0	
1.7040	8.00397	-3.54437	0	
1.7047	16.8568	-4.15447	0	
1.7053	23.26	-7.81506	0	
1.7060	27.5288	-8.42515	0	
1.7067	31.5065	-7.81506	0	
1.7073	31.7976	-9.03525	0	
1.7080	27.8441	-7.20496	0	
1.7087	21.4409	-4.15447	0	
1.7093	14.4071	-4.76457	0	
1.7100	10.4537	-4.76457	0	
1.7107	8.61033	-0.203366	0	
1.7113	5.26321	2.84712	0	
1.7120	0.679124	1.3364	0	
1.7127	-4.19602	-0.203366	0	
1.7133	-6.33041	1.01683	0	
1.7140	-6.64572	2.84712	0	
1.7147	-11.5209	4.38689	0	
1.7153	-20.0827	6.21718	0	
1.7160	-26.7769	6.82728	0	
1.7167	-29.5419	6.21718	0	
1.7173	-28.6202	7.1178	0	
1.7180	-24.9578	7.7279	0	
1.7187	-21.2954	5.89761	0	
1.7193	-16.1049	4.67741	0	
1.7200	-8.78011	4.06732	0	
1.7207	-5.72405	1.01683	0	
1.7213	-7.25208	1.01683	0	
1.7220	-7.56739	4.38689	0	
1.7227	-6.96102	4.38689	0	
1.7233	-4.82663	3.45722	0	
1.7240	1.60079	4.67741	0	
1.7247	10.7447	3.1667	0	
1.7253	19.9129	-1.42356	0	
1.7260	25.3944	-1.42356	0	
1.7267	27.8441	1.62693	0	
1.7273	32.7192	2.23702	0	
1.7280	37.5944	2.23702	0	
1.7287	36.3817	2.5566	0	
1.7293	31.7976	0.406732	0	
1.7300	24.4727	-2.32418	0	
1.7307	12.8791	-1.71408	0	
1.7313	5.26321	0.726306	0	
1.7320	2.81352	-0.203366	0	
1.7327	-3.58966	-2.64375	0	
1.7333	-11.5209	-3.25385	0	
1.7340	-14.2859	-0.813463	0	
1.7347	-19.7674	1.62693	0	
1.7353	-30.7546	1.9465	0	
1.7360	-36.2604	1.62693	0	
1.7367	-32.889	3.45722	0	
1.7373	-27.6986	5.28751	0	
1.7380	-22.8234	4.38689	0	
1.7387	-16.7113	0.726306	0	
1.7393	-11.2298	-2.03366	0	
1.7400	-6.33041	-2.32418	0	
1.7407	-4.51133	-2.93428	0	
1.7413	-6.96102	-3.86395	0	
1.7420	-6.96102	-2.64375	0	
1.7427	-0.242544	-2.03366	0	
1.7433	4.94791	-2.32418	0	
1.7440	5.26321	-0.203366	0	
1.7447	8.31927	1.3364	0	
1.7453	13.8008	-2.93428	0	
1.7460	16.2505	-7.20496	0	
1.7467	18.0696	-7.52453	0	
1.7473	18.6759	-7.20496	0	
1.7480	13.8008	-5.08414	0	
1.7487	9.532	-1.10399	0	
1.7493	8.31927	0.406732	0	
1.7500	3.41988	-1.10399	0	
1.7507	-1.77057	-0.813463	0	
1.7513	-2.06163	1.01683	0	
1.7520	-2.06163	1.62693	0	
1.7527	-3.90497	0.726306	0	
1.7533	-3.2986	-1.42356	0	
1.7540	-2.9833	-1.42356	0	
1.7547	-9.38647	0.406732	0	
1.7553	-17.9483	1.62693	0	
1.7560	-22.2171	2.5566	0	
1.7567	-23.1145	3.45722	0	
1.7573	-23.1145	2.23702	0	
1.7580	-19.7674	-0.813463	0	
1.7587	-15.1833	-2.03366	0	
1.7593	-13.9706	-2.03366	0	
1.7600	-10.3081	-1.10399	0	
1.7607	-3.58966	-0.203366	0	
1.7613	-2.9833	0.406732	0	
1.7620	-6.64572	0.406732	0	
1.7627	-5.72405	-0.813463	0	
1.7633	-2.66799	-2.03366	0	
1.7640	-0.848905	-2.03366	0	
1.7647	6.16063	-1.71408	0	
1.7653	15.6199	-1.42356	0	
1.7660	18.3849	-2.03366	0	
1.7667	18.6759	-5.37467	0	
1.7673	22.3383	-7.52453	0	
1.7680	22.6536	-4.76457	0	
1.7687	17.4632	-4.76457	0	
1.7693	15.0135	-5.37467	0	
1.7700	12.8791	-0.813463	0	
1.7707	5.55427	1.9465	0	
1.7713	-1.77057	-0.813463	0	
1.7720	-3.58966	0.726306	0	
1.7727	-5.11769	3.45722	0	
1.7733	-9.09542	1.62693	0	
1.7740	-12.4425	3.45722	0	
1.7747	-18.5546	5.28751	0	
1.7753	-27.4075	2.84712	0	
1.7760	-31.0699	4.06732	0	
1.7767	-26.7769	6.21718	0	
1.7773	-20.3737	2.23702	0	
1.7780	-13.3642	-0.813463	0	
1.7787	-8.17375	-0.203366	0	
1.7793	-7.56739	-0.203366	0	
1.7800	-5.43299	-0.203366	0	
1.7807	0.994432	-0.203366	0	
1.7813	5.55427	-2.03366	0	
1.7820	7.0823	-0.203366	0	
1.7827	9.21669	2.23702	0	
1.7833	10.7447	-0.493888	0	
1.7840	10.7447	-3.54437	0	
1.7847	15.0135	-3.54437	0	
1.7853	24.4727	-3.86395	0	
1.7860	31.5065	-5.69424	0	
1.7867	32.4282	-5.69424	0	
1.7873	30.9002	-3.54437	0	
1.7880	30.9002	-1.71408	0	
1.7887	28.4505	-5.37467	0	
1.7893	20.8103	-9.96492	0	
1.7900	13.4855	-7.81506	0	
1.7907	9.532	-5.37467	0	
1.7913	7.68866	-5.08414	0	
1.7920	4.94791	-2.32418	0	
1.7927	1.60079	-0.203366	0	
1.7933	0.0727633	-2.03366	0	
1.7940	-1.45527	-0.813463	0	
1.7947	-7.56739	3.45722	0	
1.7953	-16.4203	4.38689	0	
1.7960	-23.4298	3.77679	0	
1.7967	-26.7769	4.99699	0	
1.7973	-26.7769	5.89761	0	
1.7980	-23.1145	5.60708	0	
1.7987	-19.7674	3.77679	0	
1.7993	-19.161	2.5566	0	
1.8000	-19.7674	3.45722	0	
1.8007	-17.9483	2.84712	0	
1.8013	-14.8922	0.116209	0	
1.8020	-13.9706	-1.10399	0	
1.8027	-11.8362	-0.203366	0	
1.8033	-8.48905	-0.813463	0	
1.8040	-6.33041	-1.42356	0	
1.8047	-0.242544	-1.10399	0	
1.8053	10.7447	-3.86395	0	
1.8060	18.3849	-6.91444	0	
1.8067	21.732	-5.08414	0	
1.8073	23.5753	-2.93428	0	
1.8080	19.9129	-3.25385	0	
1.8087	15.3288	-1.10399	0	
1.8093	13.4855	1.62693	0	
1.8100	8.92563	0.116209	0	
1.8107	3.73518	-0.203366	0	
1.8113	3.12882	1.62693	0	
1.8120	-0.533598	2.5566	0	
1.8127	-6.64572	2.5566	0	
1.8133	-5.72405	4.67741	0	
1.8140	-5.72405	5.89761	0	
1.8147	-13.9706	5.28751	0	
1.8153	-21.2954	4.06732	0	
1.8160	-22.5081	4.06732	0	
1.8167	-23.1145	5.60708	0	
1.8173	-22.5081	5.28751	0	
1.8180	-18.5546	3.45722	0	
1.8187	-13.3642	3.1667	0	
1.8193	-10.3081	0.726306	0	
1.8200	-6.33041	-3.54437	0	
1.8207	-0.533598	-2.32418	0	
1.8213	3.41988	1.9465	0	
1.8220	5.26321	2.84712	0	
1.8227	5.26321	1.62693	0	
1.8233	2.49821	0.726306	0	
1.8240	1.28549	-1.71408	0	
1.8247	8.00397	-3.86395	0	
1.8253	18.3849	-3.54437	0	
1.8260	23.5753	-3.54437	0	
1.8267	26.0008	-3.25385	0	
1.8273	26.6071	-2.03366	0	
1.8280	22.6536	-2.03366	0	
1.8287	17.1479	-2.03366	0	
1.8293	14.4071	2.23702	0	
1.8300	10.4537	5.28751	0	
1.8307	5.26321	3.1667	0	
1.8313	2.49821	1.62693	0	
1.8320	1.28549	2.5566	0	
1.8327	-0.533598	0.726306	0	
1.8333	-3.90497	-3.86395	0	
1.8340	-8.48905	-3.25385	0	
1.8347	-13.0489	-0.203366	0	
1.8353	-18.5546	-0.493888	0	
1.8360	-26.1705	0.726306	0	
1.8367	-29.833	4.06732	0	
1.8373	-28.6202	3.45722	0	
1.8380	-24.9578	1.3364	0	
1.8387	-19.4521	3.45722	0	
1.8393	-13.9706	5.28751	0	
1.8400	-10.6234	3.45722	0	
1.8407	-6.96102	3.45722	0	
1.8413	-2.06163	4.06732	0	
1.8420	-0.242544	0.726306	0	
1.8427	-2.37694	-2.93428	0	
1.8433	-4.51133	-3.86395	0	
1.8440	-3.2986	-3.86395	0	
1.8447	1.89185	-5.69424	0	
1.8453	11.6664	-7.52453	0	
1.8460	22.0473	-7.81506	0	
1.8467	26.0008	-4.76457	0	
1.8473	23.8664	-1.71408	0	
1.8480	22.6536	-2.03366	0	
1.8487	22.9447	-2.64375	0	
1.8493	21.732	-2.32418	0	
1.8500	19.5976	-4.76457	0	
1.8507	16.2505	-8.42515	0	
1.8513	11.06	-8.42515	0	
1.8520	7.68866	-4.76457	0	
1.8527	4.94791	-1.10399	0	
1.8533	1.60079	0.726306	0	
1.8540	-1.16421	2.5566	0	
1.8547	-7.56739	4.38689	0	
1.8553	-18.5546	4.38689	0	
1.8560	-25.2731	3.45722	0	
1.8567	-24.9578	4.38689	0	
1.8573	-24.0362	5.28751	0	
1.8580	-22.2171	5.28751	0	
1.8587	-18.5546	4.99699	0	
1.8593	-13.9706	3.45722	0	
1.8600	-8.48905	2.23702	0	
1.8607	-2.9833	1.62693	0	
1.8613	0.679124	-1.42356	0	
1.8620	3.12882	-3.25385	0	
1.8627	4.65685	-0.203366	0	
1.8633	6.79124	-1.10399	0	
1.8640	11.3511	-7.20496	0	
1.8647	17.1479	-9.96492	0	
1.8653	23.5753	-8.13463	0	
1.8660	29.9785	-8.74473	0	
1.8667	30.9002	-8.13463	0	
1.8673	27.2377	-3.86395	0	
1.8680	24.788	-2.03366	0	
1.8687	22.0473	-4.76457	0	
1.8693	16.2505	-5.37467	0	
1.8700	11.3511	-2.64375	0	
1.8707	6.16063	-1.10399	0	
1.8713	-0.533598	-0.493888	0	
1.8720	-3.58966	0.726306	0	
1.8727	-2.66799	1.3364	0	
1.8733	-2.37694	1.3364	0	
1.8740	-4.51133	1.3364	0	
1.8747	-9.70178	-0.203366	0	
1.8753	-16.7113	0.116209	0	
1.8760	-20.9801	2.23702	0	
1.8767	-23.1145	0.726306	0	
1.8773	-25.5642	-1.10399	0	
1.8780	-23.1145	1.01683	0	
1.8787	-18.2393	1.62693	0	
1.8793	-17.633	-2.93428	0	
1.8800	-18.5546	-3.54437	0	
1.8807	-16.4203	-2.93428	0	
1.8813	-13.9706	-5.69424	0	
1.8820	-10.3081	-6.59486	0	
1.8827	-4.51133	-3.86395	0	
1.8833	-0.242544	-4.76457	0	
1.8840	1.60079	-6.30434	0	
1.8847	6.16063	-3.25385	0	
1.8853	15.3288	-1.71408	0	
1.8860	22.6536	-3.86395	0	
1.8867	23.8664	-4.15447	0	
1.8873	21.4409	-2.93428	0	
1.8880	20.8103	-1.42356	0	
1.8887	19.2823	0.406732	0	
1.8893	13.1944	2.23702	0	
1.8900	6.79124	2.5566	0	
1.8907	5.55427	1.01683	0	
1.8913	3.73518	2.5566	0	
1.8920	-1.16421	6.82728	0	
1.8927	-4.82663	5.60708	0	
1.8933	-5.72405	0.726306	0	
1.8940	-7.25208	0.726306	0	
1.8947	-9.38647	4.38689	0	
1.8953	-15.4986	4.67741	0	
1.8960	-24.3515	5.60708	0	
1.8967	-26.7769	8.04747	0	
1.8973	-22.5081	6.21718	0	
1.8980	-19.7674	3.77679	0	
1.8987	-17.0266	5.60708	0	
1.8993	-12.1515	4.06732	0	
1.9000	-8.48905	-1.10399	0	
1.9007	-5.72405	-1.42356	0	
1.9013	-2.9833	1.3364	0	
1.9020	-0.533598	0.726306	0	
1.9027	1.60079	-2.03366	0	
1.9033	4.02624	-2.64375	0	
1.9040	5.86957	-2.03366	0	
1.9047	11.6664	-2.93428	0	
1.9053	21.732	-5.37467	0	
1.9060	27.2377	-5.69424	0	
1.9067	26.3161	-4.76457	0	
1.9073	28.1352	-6.59486	0	
1.9080	33.6409	-8.13463	0	
1.9087	35.7753	-3.86395	0	
1.9093	31.7976	0.726306	0	
1.9100	23.8664	0.406732	0	
1.9107	14.7224	-0.493888	0	
1.9113	4.94791	0.726306	0	
1.9120	-1.77057	1.62693	0	
1.9127	-3.58966	2.23702	0	
1.9133	-6.96102	2.5566	0	
1.9140	-15.7896	2.23702	0	
1.9147	-26.4858	2.84712	0	
1.9153	-35.3387	4.67741	0	
1.9160	-38.3948	5.89761	0	
1.9167	-34.1017	6.21718	0	
1.9173	-30.1483	4.38689	0	
1.9180	-27.6986	1.62693	0	
1.9187	-21.6107	0.726306	0	
1.9193	-13.0489	-0.203366	0	
1.9200	-8.48905	-3.54437	0	
1.9207	-6.33041	-4.76457	0	
1.9213	-2.9833	-2.03366	0	
1.9220	1.89185	-0.203366	0	
1.9227	6.16063	-2.03366	0	
1.9233	7.0823	-2.03366	0	
1.9240	6.47594	-0.203366	0	
1.9247	9.82305	-0.203366	0	
1.9253	17.1479	-2.64375	0	
1.9260	22.9447	-4.47405	0	
1.9267	22.9447	-4.47405	0	
1.9273	18.9912	-4.15447	0	
1.9280	16.2505	-5.37467	0	
1.9287	14.4071	-4.47405	0	
1.9293	12.2727	-0.203366	0	
1.9300	8.92563	2.5566	0	
1.9307	4.34154	2.5566	0	
1.9313	0.363817	2.5566	0	
1.9320	-3.58966	1.62693	0	
1.9327	-5.72405	-1.10399	0	
1.9333	-5.11769	-0.813463	0	
1.9340	-5.43299	1.9465	0	
1.9347	-13.3642	0.406732	0	
1.9353	-24.0362	-1.42356	0	
1.9360	-26.1705	1.9465	0	
1.9367	-23.7451	4.67741	0	
1.9373	-24.0362	1.3364	0	
1.9380	-23.7451	-2.32418	0	
1.9387	-17.633	-1.42356	0	
1.9393	-9.99283	0.116209	0	
1.9400	-4.82663	-1.42356	0	
1.9407	-0.848905	-3.25385	0	
1.9413	2.81352	-1.42356	0	
1.9420	4.65685	0.406732	0	
1.9427	4.34154	0.406732	0	
1.9433	3.41988	0.726306	0	
1.9440	4.02624	-0.493888	0	
1.9447	8.00397	-3.86395	0	
1.9453	16.8568	-3.25385	0	
1.9460	22.3383	-1.42356	0	
1.9467	20.8103	-2.93428	0	
1.9473	20.2039	-2.93428	0	
1.9480	20.2039	0.406732	0	
1.9487	14.4071	1.62693	0	
1.9493	9.532	3.1667	0	
1.9500	9.532	4.06732	0	
1.9507	7.0823	0.726306	0	
1.9513	2.81352	-1.71408	0	
1.9520	0.679124	0.726306	0	
1.9527	-4.82663	0.116209	0	
1.9533	-10.6234	-2.93428	0	
1.9540	-10.3081	-2.03366	0	
1.9547	-12.4425	1.3364	0	
1.9553	-22.2171	3.1667	0	
1.9560	-28.6202	3.45722	0	
1.9567	-27.6986	1.62693	0	
1.9573	-26.4858	0.726306	0	
1.9580	-24.3515	1.9465	0	
1.9587	-19.4521	2.5566	0	
1.9593	-15.1833	1.62693	0	
1.9600	-12.1515	0.116209	0	
1.9607	-6.64572	-1.71408	0	
1.9613	-3.90497	-1.10399	0	
1.9620	-4.19602	0.406732	0	
1.9627	-0.242544	-1.10399	0	
1.9633	4.34154	-2.93428	0	
1.9640	6.79124	-1.42356	0	
1.9647	13.4855	-1.42356	0	
1.9653	21.732	-3.86395	0	
1.9660	21.732	-4.76457	0	
1.9667	21.1256	-2.64375	0	
1.9673	24.788	-1.71408	0	
1.9680	23.5753	-2.93428	0	
1.9687	19.2823	-2.64375	0	
1.9693	18.6759	-0.493888	0	
1.9700	15.0135	0.116209	0	
1.9707	8.31927	1.3364	0	
1.9713	4.34154	3.1667	0	
1.9720	1.89185	2.5566	0	
1.9727	-2.06163	1.62693	0	
1.9733	-5.43299	2.5566	0	
1.9740	-9.38647	3.45722	0	
1.9747	-14.8922	4.99699	0	
1.9753	-19.4521	7.1178	0	
1.9760	-23.1145	6.5077	0	
1.9767	-26.1705	5.89761	0	
1.9773	-25.5642	7.1178	0	
1.9780	-19.4521	6.82728	0	
1.9787	-13.0489	3.45722	0	
1.9793	-10.9145	0.726306	0	
1.9800	-9.09542	-1.42356	0	
1.9807	-2.9833	-1.10399	0	
1.9813	2.20715	-0.203366	0	
1.9820	1.60079	-2.93428	0	
1.9827	-1.45527	-5.69424	0	
1.9833	-4.82663	-3.86395	0	
1.9840	-5.72405	-2.64375	0	
1.9847	-0.242544	-5.69424	0	
1.9853	7.68866	-5.98476	0	
1.9860	16.2505	-2.03366	0	
1.9867	24.4727	-2.32418	0	
1.9873	25.1033	-5.37467	0	
1.9880	18.9912	-3.86395	0	
1.9887	17.1479	-0.203366	0	
1.9893	18.0696	0.406732	0	
1.9900	17.1479	0.726306	0	
1.9907	17.4632	1.9465	0	
1.9913	16.5415	1.62693	0	
1.9920	11.06	2.23702	0	
1.9927	6.47594	3.45722	0	
1.9933	3.41988	3.77679	0	
1.9940	-1.45527	3.1667	0	
1.9947	-6.03936	2.5566	0	
1.9953	-12.4425	3.45722	0	
1.9960	-24.9578	6.21718	0	
1.9967	-31.9674	5.28751	0	
1.9973	-26.7769	-0.203366	0	
1.9980	-20.9801	-1.71408	0	
1.9987	-20.9801	-0.203366	0	
1.9993	-19.161	-2.03366	0	
2.0000	-13.0489	-2.93428	0	
2.0007	-7.56739	-0.203366	0	
2.0013	-4.19602	1.01683	0	
2.0020	-1.16421	-0.813463	0	
2.0027	3.41988	-2.03366	0	
2.0033	6.16063	-3.54437	0	
2.0040	4.94791	-5.69424	0	
2.0047	9.21669	-6.91444	0	
2.0053	21.4409	-6.59486	0	
2.0060	28.1352	-6.30434	0	
2.0067	26.3161	-5.08414	0	
2.0073	26.3161	-3.86395	0	
2.0080	25.1033	-3.86395	0	
2.0087	20.5193	-4.76457	0	
2.0093	18.9912	-2.93428	0	
2.0100	18.3849	1.9465	0	
2.0107	12.8791	3.77679	0	
2.0113	7.68866	1.01683	0	
2.0120	7.0823	-0.203366	0	
2.0127	6.47594	1.62693	0	
2.0133	2.49821	2.84712	0	
2.0140	-2.06163	2.5566	0	
2.0147	-8.48905	3.1667	0	
2.0153	-17.9483	5.28751	0	
2.0160	-26.4858	8.04747	0	
2.0167	-27.0922	9.87777	0	
2.0173	-24.6425	8.94809	0	
2.0180	-23.1145	5.60708	0	
2.0187	-20.9801	1.62693	0	
2.0193	-18.5546	-0.813463	0	
2.0200	-16.7113	-0.813463	0	
2.0207	-10.6234	0.726306	0	
2.0213	-6.33041	2.5566	0	
2.0220	-6.96102	1.62693	0	
2.0227	-2.37694	0.726306	0	
2.0233	4.65685	3.45722	0	
2.0240	5.26321	3.45722	0	
2.0247	7.0823	-3.86395	0	
2.0253	14.7224	-7.81506	0	
2.0260	19.5976	-4.76457	0	
2.0267	22.0473	-3.25385	0	
2.0273	25.3944	-4.76457	0	
2.0280	22.9447	-5.69424	0	
2.0287	13.8008	-6.30434	0	
2.0293	8.61033	-6.59486	0	
2.0300	7.68866	-3.54437	0	
2.0307	4.34154	-1.42356	0	
2.0313	-0.242544	-2.93428	0	
2.0320	-1.77057	-1.42356	0	
2.0327	-2.66799	2.84712	0	
2.0333	-7.25208	3.45722	0	
2.0340	-10.3081	1.9465	0	
2.0347	-11.2298	2.5566	0	
2.0353	-18.5546	5.28751	0	
2.0360	-28.0139	6.21718	0	
2.0367	-31.361	5.89761	0	
2.0373	-30.4393	5.28751	0	
2.0380	-27.4075	4.38689	0	
2.0387	-21.6107	3.1667	0	
2.0393	-17.9483	1.9465	0	
2.0400	-15.7896	1.3364	0	
2.0407	-10.6234	0.116209	0	
2.0413	-5.72405	-1.42356	0	
2.0420	-2.66799	-2.32418	0	
2.0427	0.994432	-1.10399	0	
2.0433	4.65685	-1.10399	0	
2.0440	8.31927	-3.86395	0	
2.0447	14.7224	-6.30434	0	
2.0453	21.4409	-6.30434	0	
2.0460	26.0008	-7.81506	0	
2.0467	27.8441	-10.2554	0	
2.0473	25.3944	-8.74473	0	
2.0480	20.5193	-4.76457	0	
2.0487	17.1479	-3.25385	0	
2.0493	14.4071	-3.86395	0	
2.0500	11.6664	-5.08414	0	
2.0507	10.7447	-4.15447	0	
2.0513	6.47594	-1.10399	0	
2.0520	0.363817	0.406732	0	
2.0527	-1.16421	-0.493888	0	
2.0533	-0.533598	0.406732	0	
2.0540	-2.9833	3.1667	0	
2.0547	-9.38647	2.5566	0	
2.0553	-18.5546	1.01683	0	
2.0560	-25.8795	1.62693	0	
2.0567	-26.1705	1.9465	0	
2.0573	-24.0362	-0.203366	0	
2.0580	-21.9018	-0.493888	0	
2.0587	-18.8457	-1.42356	0	
2.0593	-15.7896	-2.03366	0	
2.0600	-11.2298	-0.203366	0	
2.0607	-4.82663	-0.493888	0	
2.0613	-2.66799	-3.54437	0	
2.0620	-2.06163	-2.03366	0	
2.0627	2.20715	1.62693	0	
2.0633	3.41988	1.3364	0	
2.0640	3.73518	0.406732	0	
2.0647	10.7447	-0.203366	0	
2.0653	19.9129	-3.25385	0	
2.0660	25.1033	-4.15447	0	
2.0667	29.0568	-3.25385	0	
2.0673	28.1352	-4.15447	0	
2.0680	22.9447	-3.86395	0	
2.0687	20.8103	-2.03366	0	
2.0693	17.7785	-3.54437	0	
2.0700	9.82305	-5.37467	0	
2.0707	4.65685	-3.86395	0	
2.0713	4.65685	-2.64375	0	
2.0720	2.49821	-3.25385	0	
2.0727	-1.16421	-1.71408	0	
2.0733	-3.2986	-0.493888	0	
2.0740	-6.96102	-0.493888	0	
2.0747	-15.7896	1.62693	0	
2.0753	-26.4858	4.06732	0	
2.0760	-30.1483	2.84712	0	
2.0767	-25.5642	2.5566	0	
2.0773	-20.3737	2.5566	0	
2.0780	-15.7896	1.62693	0	
2.0787	-10.3081	2.23702	0	
2.0793	-7.85844	2.5566	0	
2.0800	-5.72405	-0.203366	0	
2.0807	-0.242544	-2.64375	0	
2.0813	3.12882	-0.203366	0	
2.0820	2.81352	0.406732	0	
2.0827	4.34154	-2.03366	0	
2.0833	6.16063	-2.03366	0	
2.0840	7.0823	-2.32418	0	
2.0847	11.06	-4.47405	0	
2.0853	17.1479	-3.86395	0	
2.0860	22.6536	-2.32418	0	
2.0867	25.3944	-3.25385	0	
2.0873	23.8664	-2.93428	0	
2.0880	20.8103	-1.10399	0	
2.0887	18.9912	-1.71408	0	
2.0893	16.2505	-1.10399	0	
2.0900	10.7447	2.23702	0	
2.0907	4.94791	3.45722	0	
2.0913	0.0727633	3.45722	0	
2.0920	-4.19602	5.28751	0	
2.0927	-6.64572	5.60708	0	
2.0933	-7.56739	4.99699	0	
2.0940	-10.3081	6.21718	0	
2.0947	-15.7896	6.5077	0	
2.0953	-23.4298	5.89761	0	
2.0960	-31.6763	5.60708	0	
2.0967	-38.3948	4.06732	0	
2.0973	-41.7419	1.9465	0	
2.0980	-40.5292	0.726306	0	
2.0987	-32.889	-0.493888	0	
2.0993	-22.2171	0.726306	0	
2.1000	-15.7896	3.45722	0	
2.1007	-8.78011	0.406732	0	
2.1013	4.02624	-3.86395	0	
2.1020	15.0135	-1.10399	0	
2.1027	20.5193	0.726306	0	
2.1033	26.6071	-2.03366	0	
2.1040	31.7976	-4.15447	0	
2.1047	32.7192	-4.76457	0	
2.1053	35.7753	-3.86395	0	
2.1060	39.4377	-2.03366	0	
2.1067	36.988	-2.03366	0	
2.1073	29.0568	-3.86395	0	
2.1080	18.6759	-3.86395	0	
2.1087	10.7447	-3.25385	0	
2.1093	8.31927	-3.86395	0	
2.1100	6.16063	-1.42356	0	
2.1107	2.81352	1.3364	0	
2.1113	-0.242544	1.3364	0	
2.1120	-5.43299	1.62693	0	
2.1127	-8.48905	3.1667	0	
2.1133	-5.72405	2.5566	0	
2.1140	-5.11769	1.9465	0	
2.1147	-12.7578	4.06732	0	
2.1153	-21.2954	7.1178	0	
2.1160	-26.1705	8.04747	0	
2.1167	-27.4075	6.82728	0	
2.1173	-26.7769	4.06732	0	
2.1180	-27.4075	1.01683	0	
2.1187	-24.0362	-1.10399	0	
2.1193	-16.4203	-1.10399	0	
2.1200	-12.7578	-0.813463	0	
2.1207	-13.0489	-0.203366	0	
2.1213	-9.38647	0.406732	0	
2.1220	-4.82663	-1.42356	0	
2.1227	-1.16421	-2.93428	0	
2.1233	3.12882	-2.93428	0	
2.1240	4.94791	-3.86395	0	
2.1247	7.68866	-5.37467	0	
2.1253	17.1479	-6.30434	0	
2.1260	22.9447	-7.81506	0	
2.1267	22.6536	-7.81506	0	
2.1273	23.26	-5.08414	0	
2.1280	23.5753	-3.54437	0	
2.1287	22.6536	-3.25385	0	
2.1293	23.5753	-2.03366	0	
2.1300	20.2039	0.116209	0	
2.1307	11.9574	2.84712	0	
2.1313	7.0823	4.38689	0	
2.1320	6.47594	3.45722	0	
2.1327	4.34154	4.38689	0	
2.1333	-1.45527	6.21718	0	
2.1340	-10.3081	3.77679	0	
2.1347	-20.3737	2.84712	0	
2.1353	-31.0699	6.82728	0	
2.1360	-42.0572	7.7279	0	
2.1367	-45.089	4.38689	0	
2.1373	-39.6075	4.67741	0	
2.1380	-34.4171	6.21718	0	
2.1387	-29.833	5.60708	0	
2.1393	-21.9018	5.60708	0	
2.1400	-13.3642	3.77679	0	
2.1407	-7.25208	-0.813463	0	
2.1413	-3.58966	-2.93428	0	
2.1420	-1.45527	-2.03366	0	
2.1427	1.28549	-2.03366	0	
2.1433	3.41988	-3.54437	0	
2.1440	4.34154	-3.86395	0	
2.1447	9.82305	-4.76457	0	
2.1453	18.6759	-5.69424	0	
2.1460	22.6536	-6.30434	0	
2.1467	23.5753	-5.69424	0	
2.1473	24.4727	-5.08414	0	
2.1480	21.1256	-5.08414	0	
2.1487	15.3288	-3.86395	0	
2.1493	11.9574	-1.10399	0	
2.1500	9.21669	0.726306	0	
2.1507	4.94791	-0.203366	0	
2.1513	2.20715	-0.203366	0	
2.1520	0.0727633	1.62693	0	
2.1527	-2.9833	1.01683	0	
2.1533	-5.43299	-1.10399	0	
2.1540	-4.82663	-0.203366	0	
2.1547	-5.72405	1.9465	0	
2.1553	-13.0489	4.06732	0	
2.1560	-21.2954	6.82728	0	
2.1567	-24.3515	7.7279	0	
2.1573	-23.1145	5.28751	0	
2.1580	-18.8457	2.5566	0	
2.1587	-13.9706	1.9465	0	
2.1593	-12.1515	2.5566	0	
2.1600	-10.6234	1.62693	0	
2.1607	-5.72405	-0.203366	0	
2.1613	-1.45527	-1.42356	0	
2.1620	0.0727633	-2.03366	0	
2.1627	3.41988	-2.03366	0	
2.1633	8.92563	0.406732	0	
2.1640	11.9574	2.84712	0	
2.1647	14.4071	0.406732	0	
2.1653	20.5193	-4.76457	0	
2.1660	28.1352	-6.91444	0	
2.1667	30.9002	-6.59486	0	
2.1673	26.6071	-6.30434	0	
2.1680	23.26	-4.15447	0	
2.1687	21.732	-2.64375	0	
2.1693	15.9352	-3.86395	0	
2.1700	9.21669	-2.93428	0	
2.1707	9.82305	0.726306	0	
2.1713	10.1384	1.01683	0	
2.1720	4.34154	-2.32418	0	
2.1727	2.20715	-2.03366	0	
2.1733	5.55427	0.406732	0	
2.1740	4.02624	0.406732	0	
2.1747	-4.82663	-0.203366	0	
2.1753	-13.3642	0.406732	0	
2.1760	-20.3737	1.3364	0	
2.1767	-25.2731	1.01683	0	
2.1773	-25.8795	1.9465	0	
2.1780	-24.9578	3.45722	0	
2.1787	-24.6425	1.62693	0	
2.1793	-20.3737	-2.32418	0	
2.1800	-13.6553	-2.32418	0	
2.1807	-11.5209	-0.203366	0	
2.1813	-10.9145	-3.25385	0	
2.1820	-6.96102	-7.52453	0	
2.1827	-5.11769	-5.98476	0	
2.1833	-6.33041	-4.76457	0	
2.1840	-2.66799	-6.30434	0	
2.1847	4.34154	-6.59486	0	
2.1853	11.6664	-6.59486	0	
2.1860	19.2823	-6.59486	0	
2.1867	25.1033	-5.37467	0	
2.1873	24.1817	-6.30434	0	
2.1880	19.9129	-7.52453	0	
2.1887	15.9352	-5.08414	0	
2.1893	11.3511	-5.08414	0	
2.1900	8.00397	-6.30434	0	
2.1907	4.65685	-2.93428	0	
2.1913	0.363817	0.406732	0	
2.1920	-2.66799	-0.203366	0	
2.1927	-4.19602	1.01683	0	
2.1933	-5.72405	0.116209	0	
2.1940	-4.82663	-1.71408	0	
2.1947	-5.43299	3.1667	0	
2.1953	-13.3642	8.04747	0	
2.1960	-22.2171	5.28751	0	
2.1967	-21.9018	3.77679	0	
2.1973	-17.9483	4.38689	0	
2.1980	-16.4203	1.9465	0	
2.1987	-14.5769	0.726306	0	
2.1993	-10.3081	3.45722	0	
2.2000	-5.11769	4.67741	0	
2.2007	-1.77057	3.45722	0	
2.2013	-0.533598	1.9465	0	
2.2020	2.81352	1.9465	0	
2.2027	7.0823	3.1667	0	
2.2033	3.73518	2.5566	0	
2.2040	-0.242544	0.726306	0	
2.2047	7.0823	-0.203366	0	
2.2053	18.3849	-1.10399	0	
2.2060	22.6536	-5.69424	0	
2.2067	22.6536	-10.2554	0	
2.2073	22.6536	-8.42515	0	
2.2080	19.9129	-4.76457	0	
2.2087	16.2505	-4.76457	0	
2.2093	12.5881	-5.08414	0	
2.2100	8.92563	-3.54437	0	
2.2107	5.55427	-2.93428	0	
2.2113	2.49821	-2.03366	0	
2.2120	-0.242544	1.9465	0	
2.2127	-2.9833	5.60708	0	
2.2133	-4.82663	6.21718	0	
2.2140	-4.82663	4.67741	0	
2.2147	-8.78011	4.38689	0	
2.2153	-19.7674	7.7279	0	
2.2160	-27.0922	9.55819	0	
2.2167	-24.9578	7.1178	0	
2.2173	-23.4298	5.28751	0	
2.2180	-23.7451	5.60708	0	
2.2187	-19.4521	4.06732	0	
2.2193	-13.9706	2.5566	0	
2.2200	-10.3081	1.3364	0	
2.2207	-5.11769	-1.71408	0	
2.2213	-1.16421	-2.93428	0	
2.2220	0.363817	-1.42356	0	
2.2227	2.49821	-2.03366	0	
2.2233	5.55427	-2.64375	0	
2.2240	7.3976	-1.42356	0	
2.2247	11.6664	-2.93428	0	
2.2253	18.9912	-5.98476	0	
2.2260	26.9224	-5.69424	0	
2.2267	31.5065	-2.93428	0	
2.2273	29.0568	-1.10399	0	
2.2280	24.4727	-0.493888	0	
2.2287	21.4409	1.3364	0	
2.2293	14.7224	3.1667	0	
2.2300	5.26321	0.406732	0	
2.2307	1.60079	-3.25385	0	
2.2313	0.0727633	-0.813463	0	
2.2320	-1.45527	3.1667	0	
2.2327	-1.16421	1.3364	0	
2.2333	-2.37694	-1.71408	0	
2.2340	-7.25208	-0.203366	0	
2.2347	-10.9145	4.67741	0	
2.2353	-15.7896	6.5077	0	
2.2360	-25.8795	3.77679	0	
2.2367	-30.1483	2.5566	0	
2.2373	-24.6425	3.1667	0	
2.2380	-19.4521	1.62693	0	
2.2387	-17.9483	-0.203366	0	
2.2393	-15.4986	-0.493888	0	
2.2400	-9.99283	-3.86395	0	
2.2407	-3.58966	-4.76457	0	
2.2413	0.363817	-2.64375	0	
2.2420	0.679124	-2.93428	0	
2.2427	3.41988	-5.08414	0	
2.2433	9.82305	-3.86395	0	
2.2440	9.82305	-2.93428	0	
2.2447	6.47594	-4.76457	0	
2.2453	11.06	-4.76457	0	
2.2460	19.9129	-4.15447	0	
2.2467	22.6536	-3.86395	0	
2.2473	20.5193	-3.86395	0	
2.2480	18.0696	-3.25385	0	
2.2487	12.8791	-0.203366	0	
2.2493	5.26321	3.77679	0	
2.2500	1.60079	4.06732	0	
2.2507	0.679124	1.62693	0	
2.2513	-2.06163	1.9465	0	
2.2520	-5.72405	2.23702	0	
2.2527	-7.56739	1.01683	0	
2.2533	-6.96102	2.23702	0	
2.2540	-5.72405	4.38689	0	
2.2547	-7.85844	4.38689	0	
2.2553	-13.9706	4.99699	0	
2.2560	-20.9801	7.1178	0	
2.2567	-22.2171	7.1178	0	
2.2573	-19.161	6.82728	0	
2.2580	-15.7896	7.1178	0	
2.2587	-12.4425	5.60708	0	
2.2593	-8.48905	2.84712	0	
2.2600	-5.72405	2.23702	0	
2.2607	-6.64572	1.62693	0	
2.2613	-8.48905	-1.10399	0	
2.2620	-5.43299	-2.03366	0	
2.2627	-0.242544	-2.03366	0	
2.2633	1.28549	-2.64375	0	
2.2640	3.12882	-2.32418	0	
2.2647	9.532	-2.32418	0	
2.2653	17.7785	-4.47405	0	
2.2660	22.3383	-6.59486	0	
2.2667	22.6536	-5.69424	0	
2.2673	20.2039	-4.47405	0	
2.2680	15.9352	-5.98476	0	
2.2687	11.3511	-6.91444	0	
2.2693	7.0823	-3.54437	0	
2.2700	3.12882	0.116209	0	
2.2707	0.0727633	-0.203366	0	
2.2713	-1.16421	-1.42356	0	
2.2720	-4.82663	-0.203366	0	
2.2727	-11.2298	1.01683	0	
2.2733	-10.9145	0.726306	0	
2.2740	-8.17375	1.01683	0	
2.2747	-13.6553	0.406732	0	
2.2753	-22.5081	-2.32418	0	
2.2760	-24.6425	-2.93428	0	
2.2767	-22.8234	-0.203366	0	
2.2773	-20.9801	0.726306	0	
2.2780	-15.7896	-1.42356	0	
2.2787	-9.99283	-1.71408	0	
2.2793	-6.64572	-0.203366	0	
2.2800	-2.06163	0.406732	0	
2.2807	2.49821	0.116209	0	
2.2813	3.41988	-1.10399	0	
2.2820	4.65685	-2.03366	0	
2.2827	10.4537	-2.03366	0	
2.2833	13.4855	-3.86395	0	
2.2840	13.4855	-5.69424	0	
2.2847	17.1479	-4.15447	0	
2.2853	23.5753	-2.93428	0	
2.2860	29.0568	-3.86395	0	
2.2867	33.3256	-4.15447	0	
2.2873	34.2473	-2.93428	0	
2.2880	30.2695	-3.54437	0	
2.2887	25.3944	-3.54437	0	
2.2893	18.9912	-2.03366	0	
2.2900	11.3511	-3.25385	0	
2.2907	7.68866	-3.86395	0	
2.2913	4.94791	-0.493888	0	
2.2920	-1.77057	0.726306	0	
2.2927	-6.03936	-0.493888	0	
2.2933	-4.19602	1.9465	0	
2.2940	-3.90497	5.28751	0	
2.2947	-6.96102	4.06732	0	
2.2953	-9.99283	3.1667	0	
2.2960	-14.5769	4.38689	0	
2.2967	-19.161	4.67741	0	
2.2973	-20.3737	3.45722	0	
2.2980	-18.8457	3.45722	0	
2.2987	-15.7896	4.38689	0	
2.2993	-12.7578	4.38689	0	
2.3000	-13.6553	1.3364	0	
2.3007	-16.7113	-0.493888	0	
2.3013	-19.161	1.3364	0	
2.3020	-19.4521	-0.203366	0	
2.3027	-13.3642	-2.93428	0	
2.3033	-4.51133	-1.10399	0	
2.3040	-1.16421	-1.42356	0	
2.3047	2.49821	-7.52453	0	
2.3053	10.7447	-7.20496	0	
2.3060	16.2505	-3.54437	0	
2.3067	21.732	-5.69424	0	
2.3073	30.2695	-6.91444	0	
2.3080	30.9002	-3.86395	0	
2.3087	22.0473	-2.93428	0	
2.3093	15.3288	-1.10399	0	
2.3100	10.7447	2.5566	0	
2.3107	8.00397	2.23702	0	
2.3113	7.3976	0.726306	0	
2.3120	4.34154	2.23702	0	
2.3127	-1.16421	0.726306	0	
2.3133	-2.37694	0.116209	0	
2.3140	-2.06163	1.9465	0	
2.3147	-9.09542	0.726306	0	
2.3153	-19.4521	0.406732	0	
2.3160	-26.1705	5.89761	0	
2.3167	-28.6202	7.1178	0	
2.3173	-31.9674	3.45722	0	
2.3180	-33.4954	2.84712	0	
2.3187	-28.0139	2.5566	0	
2.3193	-18.5546	-0.493888	0	
2.3200	-13.0489	-2.03366	0	
2.3207	-10.9145	-2.93428	0	
2.3213	-7.56739	-3.86395	0	
2.3220	-3.2986	-2.93428	0	
2.3227	-1.16421	-3.86395	0	
2.3233	0.0727633	-5.69424	0	
2.3240	2.49821	-3.86395	0	
2.3247	8.31927	-1.71408	0	
2.3253	15.6199	-2.93428	0	
2.3260	21.732	-3.86395	0	
2.3267	25.1033	-3.54437	0	
2.3273	26.3161	-2.93428	0	
2.3280	23.8664	-2.03366	0	
2.3287	18.9912	-1.71408	0	
2.3293	15.3288	-1.10399	0	
2.3300	12.5881	-0.813463	0	
2.3307	8.92563	-0.493888	0	
2.3313	4.34154	1.62693	0	
2.3320	2.20715	3.45722	0	
2.3327	-0.242544	2.5566	0	
2.3333	-4.51133	-0.203366	0	
2.3340	-7.56739	-2.64375	0	
2.3347	-10.6234	-2.03366	0	
2.3353	-17.9483	3.45722	0	
2.3360	-26.4858	6.21718	0	
2.3367	-28.9355	2.23702	0	
2.3373	-26.7769	1.62693	0	
2.3380	-24.9578	5.28751	0	
2.3387	-22.8234	3.77679	0	
2.3393	-16.7113	0.116209	0	
2.3400	-9.70178	1.01683	0	
2.3407	-6.96102	1.01683	0	
2.3413	-4.82663	-1.10399	0	
2.3420	-0.242544	-1.71408	0	
2.3427	3.73518	-1.10399	0	
2.3433	4.94791	-1.10399	0	
2.3440	5.55427	-2.64375	0	
2.3447	9.82305	-4.15447	0	
2.3453	16.2505	-5.37467	0	
2.3460	22.3383	-5.08414	0	
2.3467	25.3944	-4.15447	0	
2.3473	26.0008	-2.03366	0	
2.3480	23.5753	0.726306	0	
2.3487	19.9129	1.9465	0	
2.3493	16.5415	3.45722	0	
2.3500	13.4855	4.06732	0	
2.3507	9.82305	4.06732	0	
2.3513	6.47594	5.28751	0	
2.3520	4.02624	5.28751	0	
2.3527	2.49821	2.23702	0	
2.3533	0.679124	1.3364	0	
2.3540	-4.82663	4.38689	0	
2.3547	-13.9706	6.21718	0	
2.3553	-22.8234	3.45722	0	
2.3560	-27.0922	1.3364	0	
2.3567	-27.6986	0.726306	0	
2.3573	-27.0922	-0.493888	0	
2.3580	-26.7769	-3.86395	0	
2.3587	-23.7451	-4.47405	0	
2.3593	-18.2393	-3.86395	0	
2.3600	-13.9706	-5.69424	0	
2.3607	-9.99283	-7.20496	0	
2.3613	-4.82663	-4.76457	0	
2.3620	0.994432	-3.25385	0	
2.3627	4.94791	-2.03366	0	
2.3633	7.0823	0.726306	0	
2.3640	8.61033	1.3364	0	
2.3647	12.8791	-1.10399	0	
2.3653	20.2039	-1.71408	0	
2.3660	26.3161	-2.32418	0	
2.3667	28.7658	-3.25385	0	
2.3673	28.1352	-2.03366	0	
2.3680	25.3944	-2.03366	0	
2.3687	21.4409	-2.93428	0	
2.3693	17.1479	-2.32418	0	
2.3700	13.4855	-1.42356	0	
2.3707	9.21669	-2.03366	0	
2.3713	4.02624	-1.10399	0	
2.3720	0.363817	2.5566	0	
2.3727	-0.848905	4.06732	0	
2.3733	-0.533598	2.5566	0	
2.3740	-3.2986	0.726306	0	
2.3747	-10.6234	0.116209	0	
2.3753	-17.633	2.23702	0	
2.3760	-21.2954	4.99699	0	
2.3767	-24.3515	6.21718	0	
2.3773	-24.6425	4.99699	0	
2.3780	-21.2954	3.45722	0	
2.3787	-19.161	3.1667	0	
2.3793	-17.3177	2.84712	0	
2.3800	-11.5209	3.45722	0	
2.3807	-7.56739	3.1667	0	
2.3813	-7.56739	0.726306	0	
2.3820	-6.33041	-1.42356	0	
2.3827	-2.06163	-0.203366	0	
2.3833	0.363817	-0.203366	0	
2.3840	1.89185	-2.93428	0	
2.3847	4.34154	-3.86395	0	
2.3853	11.06	-3.25385	0	
2.3860	19.9129	-3.25385	0	
2.3867	23.5753	-3.86395	0	
2.3873	20.8103	-2.03366	0	
2.3880	18.0696	0.726306	0	
2.3887	15.3288	2.5566	0	
2.3893	11.3511	2.5566	0	
2.3900	9.532	3.45722	0	
2.3907	6.79124	4.99699	0	
2.3913	2.20715	2.84712	0	
2.3920	-0.242544	-1.10399	0	
2.3927	-1.16421	-2.32418	0	
2.3933	-3.2986	-2.93428	0	
2.3940	-4.82663	-2.93428	0	
2.3947	-8.17375	-0.203366	0	
2.3953	-15.7896	3.45722	0	
2.3960	-23.1145	3.77679	0	
2.3967	-25.8795	3.77679	0	
2.3973	-26.7769	4.38689	0	
2.3980	-25.2731	3.77679	0	
2.3987	-19.7674	2.5566	0	
2.3993	-14.8922	2.5566	0	
2.4000	-13.9706	1.62693	0	
2.4007	-12.4425	-0.493888	0	
2.4013	-7.56739	-2.32418	0	
2.4020	-2.37694	-1.71408	0	
2.4027	-1.16421	-0.813463	0	
2.4033	0.679124	-2.03366	0	
2.4040	4.94791	-5.08414	0	
2.4047	10.7447	-7.52453	0	
2.4053	17.1479	-7.52453	0	
2.4060	23.5753	-6.59486	0	
2.4067	27.2377	-6.59486	0	
2.4073	26.0008	-5.69424	0	
2.4080	22.3383	-2.93428	0	
2.4087	18.0696	-1.42356	0	
2.4093	15.6199	-2.93428	0	
2.4100	13.1944	-3.25385	0	
2.4107	8.31927	-1.42356	0	
2.4113	4.34154	0.116209	0	
2.4120	2.81352	2.23702	0	
2.4127	-0.848905	4.38689	0	
2.4133	-3.90497	6.21718	0	
2.4140	-2.06163	6.21718	0	
2.4147	-5.43299	4.38689	0	
2.4153	-17.633	3.1667	0	
2.4160	-23.7451	4.06732	0	
2.4167	-21.6107	3.77679	0	
2.4173	-23.1145	1.01683	0	
2.4180	-22.2171	-0.813463	0	
2.4187	-14.8922	-1.10399	0	
2.4193	-10.3081	-2.03366	0	
2.4200	-6.96102	-3.54437	0	
2.4207	-0.242544	-1.42356	0	
2.4213	2.81352	0.726306	0	
2.4220	3.41988	0.116209	0	
2.4227	5.86957	-0.813463	0	
2.4233	6.79124	0.406732	0	
2.4240	7.0823	0.116209	0	
2.4247	11.3511	-2.64375	0	
2.4253	15.6199	-4.76457	0	
2.4260	18.6759	-5.69424	0	
2.4267	21.732	-5.08414	0	
2.4273	21.732	-3.86395	0	
2.4280	18.0696	-2.93428	0	
2.4287	14.4071	-3.54437	0	
2.4293	12.2727	-2.93428	0	
2.4300	10.1384	-2.93428	0	
2.4307	6.47594	-3.25385	0	
2.4313	3.12882	-2.03366	0	
2.4320	1.28549	0.726306	0	
2.4327	-0.242544	2.84712	0	
2.4333	-1.16421	3.77679	0	
2.4340	-0.533598	2.5566	0	
2.4347	-4.51133	0.726306	0	
2.4353	-13.9706	2.84712	0	
2.4360	-22.2171	6.21718	0	
2.4367	-25.8795	3.1667	0	
2.4373	-24.0362	-0.813463	0	
2.4380	-20.689	0.726306	0	
2.4387	-24.0362	1.62693	0	
2.4393	-28.3049	-1.42356	0	
2.4400	-22.2171	-3.25385	0	
2.4407	-10.3081	-4.47405	0	
2.4413	-4.82663	-5.98476	0	
2.4420	-2.9833	-4.15447	0	
2.4427	1.60079	-1.10399	0	
2.4433	4.34154	-1.71408	0	
2.4440	7.0823	-4.76457	0	
2.4447	12.5881	-3.86395	0	
2.4453	19.5976	0.726306	0	
2.4460	24.4727	1.01683	0	
2.4467	26.0008	-2.32418	0	
2.4473	23.5753	-2.03366	0	
2.4480	19.2823	-1.10399	0	
2.4487	17.1479	-4.15447	0	
2.4493	16.2505	-3.86395	0	
2.4500	11.9574	0.726306	0	
2.4507	5.26321	0.726306	0	
2.4513	2.20715	-0.203366	0	
2.4520	0.679124	1.01683	0	
2.4527	-2.66799	-0.203366	0	
2.4533	-3.58966	-3.25385	0	
2.4540	-2.9833	-2.93428	0	
2.4547	-9.38647	-0.493888	0	
2.4553	-18.8457	2.23702	0	
2.4560	-23.1145	4.38689	0	
2.4567	-24.3515	3.1667	0	
2.4573	-25.2731	0.406732	0	
2.4580	-21.9018	1.01683	0	
2.4587	-17.3177	2.5566	0	
2.4593	-14.8922	2.23702	0	
2.4600	-11.8362	1.9465	0	
2.4607	-7.56739	1.3364	0	
2.4613	-3.90497	-1.10399	0	
2.4620	-0.242544	-2.93428	0	
2.4627	2.81352	-0.493888	0	
2.4633	3.41988	2.5566	0	
2.4640	4.02624	2.84712	0	
2.4647	9.82305	1.3364	0	
2.4653	18.0696	-1.10399	0	
2.4660	22.9447	-2.93428	0	
2.4667	25.3944	-1.42356	0	
2.4673	25.3944	0.726306	0	
2.4680	21.732	0.116209	0	
2.4687	15.9352	0.726306	0	
2.4693	12.5881	1.9465	0	
2.4700	9.82305	-1.10399	0	
2.4707	5.86957	-3.86395	0	
2.4713	2.49821	-1.42356	0	
2.4720	-0.242544	-1.10399	0	
2.4727	-2.9833	-3.25385	0	
2.4733	-3.90497	-1.42356	0	
2.4740	-3.90497	-0.203366	0	
2.4747	-7.56739	-1.42356	0	
2.4753	-14.8922	2.23702	0	
2.4760	-21.2954	8.338	0	
2.4767	-24.9578	8.04747	0	
2.4773	-24.0362	4.38689	0	
2.4780	-20.9801	2.23702	0	
2.4787	-18.8457	1.62693	0	
2.4793	-16.4203	2.5566	0	
2.4800	-11.2298	1.9465	0	
2.4807	-7.25208	-1.10399	0	
2.4813	-5.72405	-2.64375	0	
2.4820	-2.06163	-3.54437	0	
2.4827	2.20715	-3.86395	0	
2.4833	2.81352	-2.03366	0	
2.4840	3.41988	-2.93428	0	
2.4847	5.26321	-6.59486	0	
2.4853	11.6664	-6.59486	0	
2.4860	21.732	-5.37467	0	
2.4867	26.0008	-5.69424	0	
2.4873	24.4727	-2.93428	0	
2.4880	24.1817	-1.10399	0	
2.4887	19.9129	-5.69424	0	
2.4893	12.2727	-6.91444	0	
2.4900	11.3511	-2.93428	0	
2.4907	10.7447	-2.93428	0	
2.4913	3.41988	-4.76457	0	
2.4920	-1.16421	-1.71408	0	
2.4927	-1.16421	2.5566	0	
2.4933	-3.58966	1.62693	0	
2.4940	-6.96102	-1.10399	0	
2.4947	-12.1515	-0.493888	0	
2.4953	-20.3737	3.77679	0	
2.4960	-25.2731	6.21718	0	
2.4967	-26.7769	4.99699	0	
2.4973	-28.6202	4.67741	0	
2.4980	-25.8795	4.99699	0	
2.4987	-19.4521	2.5566	0	
2.4993	-15.4986	0.406732	0	
2.5000	-10.6234	0.406732	0	
2.5007	-4.19602	-1.10399	0	
2.5013	-2.06163	-2.93428	0	
2.5020	-2.06163	-2.93428	0	
2.5027	0.994432	-2.03366	0	
2.5033	4.34154	-0.203366	0	
2.5040	6.47594	1.3364	0	
2.5047	9.532	1.9465	0	
2.5053	16.5415	1.3364	0	
2.5060	24.4727	-0.203366	0	
2.5067	28.4505	-2.03366	0	
2.5073	27.2377	-1.42356	0	
2.5080	24.4727	0.116209	0	
2.5087	20.5193	-0.203366	0	
2.5093	15.0135	-1.71408	0	
2.5100	10.7447	-2.03366	0	
2.5107	8.31927	-1.10399	0	
2.5113	4.65685	1.01683	0	
2.5120	0.679124	2.5566	0	
2.5127	-1.16421	1.3364	0	
2.5133	-0.848905	0.406732	0	
2.5140	-2.06163	3.1667	0	
2.5147	-5.72405	5.28751	0	
2.5153	-11.5209	5.60708	0	
2.5160	-18.5546	6.21718	0	
2.5167	-23.1145	6.5077	0	
2.5173	-21.6107	6.21718	0	
2.5180	-14.8922	6.21718	0	
2.5187	-10.6234	4.38689	0	
2.5193	-8.48905	-0.203366	0	
2.5200	-4.82663	-2.32418	0	
2.5207	-0.533598	-3.25385	0	
2.5213	0.679124	-3.86395	0	
2.5220	1.60079	-1.71408	0	
2.5227	3.41988	-0.813463	0	
2.5233	3.41988	-3.54437	0	
2.5240	1.28549	-3.86395	0	
2.5247	1.28549	-2.64375	0	
2.5253	7.68866	-4.47405	0	
2.5260	18.6759	-7.52453	0	
2.5267	23.5753	-8.42515	0	
2.5273	19.9129	-7.81506	0	
2.5280	17.1479	-6.59486	0	
2.5287	18.0696	-4.15447	0	
2.5293	14.4071	-2.93428	0	
2.5300	7.68866	-1.10399	0	
2.5307	4.34154	0.116209	0	
2.5313	2.49821	-1.42356	0	
2.5320	0.679124	-2.03366	0	
2.5327	-1.16421	-0.493888	0	
2.5333	-3.2986	-0.813463	0	
2.5340	-6.64572	-2.03366	0	
2.5347	-9.99283	-1.10399	0	
2.5353	-17.3177	-0.813463	0	
2.5360	-25.8795	-0.203366	0	
2.5367	-27.4075	1.01683	0	
2.5373	-25.8795	0.116209	0	
2.5380	-25.8795	-1.10399	0	
2.5387	-22.2171	0.726306	0	
2.5393	-17.0266	1.62693	0	
2.5400	-15.7896	0.116209	0	
2.5407	-13.9706	0.726306	0	
2.5413	-9.09542	1.3364	0	
2.5420	-5.43299	-0.493888	0	
2.5427	-2.9833	-1.42356	0	
2.5433	-4.51133	-2.32418	0	
2.5440	-8.48905	-3.86395	0	
2.5447	-4.82663	-2.93428	0	
2.5453	7.0823	-2.64375	0	
2.5460	15.0135	-5.37467	0	
2.5467	17.1479	-5.08414	0	
2.5473	20.8103	-2.93428	0	
2.5480	25.1033	-2.64375	0	
2.5487	22.9447	-2.03366	0	
2.5493	15.3288	-1.71408	0	
2.5500	8.92563	-2.03366	0	
2.5507	8.00397	0.726306	0	
2.5513	6.16063	2.5566	0	
2.5520	0.0727633	-1.10399	0	
2.5527	-4.82663	-2.93428	0	
2.5533	-6.64572	0.726306	0	
2.5540	-8.78011	3.1667	0	
2.5547	-13.3642	2.23702	0	
2.5553	-19.7674	3.1667	0	
2.5560	-26.7769	4.38689	0	
2.5567	-29.5419	4.06732	0	
2.5573	-28.3049	4.99699	0	
2.5580	-25.5642	6.21718	0	
2.5587	-18.5546	4.06732	0	
2.5593	-10.9145	2.5566	0	
2.5600	-8.48905	2.5566	0	
2.5607	-9.70178	-0.203366	0	
2.5613	-8.48905	-2.93428	0	
2.5620	-4.51133	-2.32418	0	
2.5627	0.363817	-2.93428	0	
2.5633	3.41988	-4.76457	0	
2.5640	4.94791	-3.86395	0	
2.5647	9.532	-3.86395	0	
2.5653	19.2823	-5.37467	0	
2.5660	29.0568	-3.86395	0	
2.5667	32.4282	-3.86395	0	
2.5673	29.0568	-5.98476	0	
2.5680	25.3944	-3.54437	0	
2.5687	24.4727	-2.03366	0	
2.5693	20.8103	-5.37467	0	
2.5700	12.2727	-3.86395	0	
2.5707	8.00397	3.1667	0	
2.5713	8.92563	4.38689	0	
2.5720	7.68866	3.45722	0	
2.5727	3.41988	5.28751	0	
2.5733	0.0727633	2.84712	0	
2.5740	-2.37694	-1.10399	0	
2.5747	-6.64572	0.726306	0	
2.5753	-13.0489	4.67741	0	
2.5760	-17.9483	5.28751	0	
2.5767	-19.4521	3.77679	0	
2.5773	-19.4521	2.84712	0	
2.5780	-19.4521	4.06732	0	
2.5787	-16.7113	5.60708	0	
2.5793	-12.7578	4.06732	0	
2.5800	-10.9145	1.9465	0	
2.5807	-9.09542	2.5566	0	
2.5813	-5.11769	1.01683	0	
2.5820	-2.9833	-2.93428	0	
2.5827	-1.77057	-3.54437	0	
2.5833	2.20715	-2.32418	0	
2.5840	6.16063	-2.93428	0	
2.5847	9.82305	-2.93428	0	
2.5853	17.1479	-3.25385	0	
2.5860	25.1033	-5.69424	0	
2.5867	26.6071	-6.30434	0	
2.5873	25.1033	-4.76457	0	
2.5880	23.8664	-4.15447	0	
2.5887	19.9129	-3.25385	0	
2.5893	14.4071	-1.10399	0	
2.5900	11.3511	1.3364	0	
2.5907	8.31927	4.99699	0	
2.5913	2.49821	6.21718	0	
2.5920	-2.06163	4.38689	0	
2.5927	-5.11769	4.67741	0	
2.5933	-5.72405	4.38689	0	
2.5940	-5.72405	1.9465	0	
2.5947	-9.70178	1.3364	0	
2.5953	-17.633	1.62693	0	
2.5960	-23.4298	1.3364	0	
2.5967	-24.6425	1.62693	0	
2.5973	-23.1145	-0.493888	0	
2.5980	-20.689	-3.54437	0	
2.5987	-17.0266	-3.25385	0	
2.5993	-12.1515	-2.03366	0	
2.6000	-8.48905	-2.03366	0	
2.6007	-6.33041	-0.813463	0	
2.6013	-3.58966	-1.71408	0	
2.6020	-1.16421	-4.76457	0	
2.6027	1.28549	-3.86395	0	
2.6033	4.34154	-0.203366	0	
2.6040	5.26321	-0.813463	0	
2.6047	5.26321	-2.93428	0	
2.6053	11.3511	-5.37467	0	
2.6060	20.2039	-6.59486	0	
2.6067	22.0473	-4.76457	0	
2.6073	20.5193	-2.64375	0	
2.6080	20.8103	-2.32418	0	
2.6087	19.2823	-2.93428	0	
2.6093	16.2505	-3.25385	0	
2.6100	13.4855	-2.93428	0	
2.6107	9.532	-1.42356	0	
2.6113	4.34154	0.726306	0	
2.6120	2.49821	2.23702	0	
2.6127	0.679124	2.5566	0	
2.6133	-1.16421	1.3364	0	
2.6140	-2.06163	1.3364	0	
2.6147	-6.64572	1.9465	0	
2.6153	-16.7113	1.62693	0	
2.6160	-24.6425	2.5566	0	
2.6167	-28.3049	3.77679	0	
2.6173	-29.5419	1.62693	0	
2.6180	-25.2731	-0.203366	0	
2.6187	-17.3177	1.62693	0	
2.6193	-13.0489	1.9465	0	
2.6200	-9.38647	-0.813463	0	
2.6207	-3.90497	-0.493888	0	
2.6213	-1.77057	0.406732	0	
2.6220	-0.242544	-1.71408	0	
2.6227	5.26321	-2.03366	0	
2.6233	7.0823	0.726306	0	
2.6240	5.26321	1.3364	0	
2.6247	9.532	-1.10399	0	
2.6253	16.5415	-2.93428	0	
2.6260	20.8103	-3.86395	0	
2.6267	23.5753	-2.93428	0	
2.6273	23.5753	-2.03366	0	
2.6280	20.2039	-1.42356	0	
2.6287	16.5415	0.406732	0	
2.6293	13.4855	1.3364	0	
2.6300	9.82305	-0.493888	0	
2.6307	7.68866	-0.493888	0	
2.6313	4.65685	2.5566	0	
2.6320	1.60079	1.3364	0	
2.6327	0.0727633	-2.64375	0	
2.6333	-0.242544	-1.71408	0	
2.6340	-2.06163	1.62693	0	
2.6347	-6.64572	2.5566	0	
2.6353	-16.4203	5.28751	0	
2.6360	-26.7769	7.1178	0	
2.6367	-30.1483	6.21718	0	
2.6373	-26.7769	4.06732	0	
2.6380	-22.5081	4.06732	0	
2.6387	-21.6107	4.06732	0	
2.6393	-24.0362	1.62693	0	
2.6400	-22.2171	-1.42356	0	
2.6407	-14.5769	-2.64375	0	
2.6413	-10.3081	-1.42356	0	
2.6420	-8.78011	-0.493888	0	
2.6427	-4.19602	-0.203366	0	
2.6433	0.363817	-0.203366	0	
2.6440	0.994432	-1.10399	0	
2.6447	5.26321	-2.03366	0	
2.6453	14.7224	-2.32418	0	
2.6460	21.732	-2.32418	0	
2.6467	22.0473	-3.54437	0	
2.6473	21.732	-3.86395	0	
2.6480	23.5753	-2.93428	0	
2.6487	22.3383	-2.93428	0	
2.6493	16.2505	-4.76457	0	
2.6500	12.5881	-3.86395	0	
2.6507	9.82305	0.406732	0	
2.6513	5.26321	1.3364	0	
2.6520	5.55427	-1.10399	0	
2.6527	6.16063	-1.10399	0	
2.6533	0.363817	-1.10399	0	
2.6540	-3.90497	-0.203366	0	
2.6547	-5.11769	4.38689	0	
2.6553	-13.9706	6.5077	0	
2.6560	-23.1145	3.45722	0	
2.6567	-23.1145	2.5566	0	
2.6573	-22.2171	6.21718	0	
2.6580	-23.4298	6.5077	0	
2.6587	-20.689	4.06732	0	
2.6593	-16.7113	4.06732	0	
2.6600	-13.3642	3.1667	0	
2.6607	-10.6234	-1.42356	0	
2.6613	-13.0489	-3.86395	0	
2.6620	-15.7896	-2.32418	0	
2.6627	-9.38647	-0.203366	0	
2.6633	-2.06163	1.62693	0	
2.6640	-2.66799	2.84712	0	
2.6647	-0.242544	0.116209	0	
2.6653	9.82305	-4.47405	0	
2.6660	18.6759	-6.59486	0	
2.6667	21.732	-5.08414	0	
2.6673	22.3383	-4.47405	0	
2.6680	20.8103	-5.37467	0	
2.6687	18.0696	-5.37467	0	
2.6693	17.1479	-2.93428	0	
2.6700	13.4855	-2.03366	0	
2.6707	7.3976	-2.03366	0	
2.6713	6.47594	-0.493888	0	
2.6720	7.0823	-1.10399	0	
2.6727	2.49821	-2.64375	0	
2.6733	-1.16421	-0.203366	0	
2.6740	0.0727633	1.9465	0	
2.6747	-2.37694	1.9465	0	
2.6753	-10.3081	2.84712	0	
2.6760	-17.3177	4.06732	0	
2.6767	-21.2954	4.38689	0	
2.6773	-22.2171	7.1178	0	
2.6780	-20.3737	8.94809	0	
2.6787	-17.3177	7.43738	0	
2.6793	-13.0489	6.21718	0	
2.6800	-9.38647	5.89761	0	
2.6807	-6.96102	4.38689	0	
2.6813	-4.51133	1.3364	0	
2.6820	-2.37694	-0.813463	0	
2.6827	-1.45527	0.726306	0	
2.6833	0.679124	1.9465	0	
2.6840	3.73518	-0.813463	0	
2.6847	8.31927	-2.93428	0	
2.6853	15.6199	-2.32418	0	
2.6860	22.9447	-2.93428	0	
2.6867	25.3944	-3.86395	0	
2.6873	25.3944	-3.25385	0	
2.6880	25.3944	-2.03366	0	
2.6887	22.6536	-1.10399	0	
2.6893	17.4632	-0.203366	0	
2.6900	13.8008	1.01683	0	
2.6907	10.4537	1.62693	0	
2.6913	6.16063	0.406732	0	
2.6920	2.81352	-1.10399	0	
2.6927	0.679124	0.726306	0	
2.6933	-2.06163	1.01683	0	
2.6940	-3.58966	-0.203366	0	
2.6947	-5.72405	0.726306	0	
2.6953	-12.7578	0.726306	0	
2.6960	-20.9801	0.116209	0	
2.6967	-24.3515	2.84712	0	
2.6973	-22.8234	5.89761	0	
2.6980	-19.4521	3.45722	0	
2.6987	-17.633	0.726306	0	
2.6993	-14.8922	1.3364	0	
2.7000	-8.48905	-0.493888	0	
2.7007	-3.2986	-3.25385	0	
2.7013	-1.77057	-1.71408	0	
2.7020	0.363817	0.406732	0	
2.7027	2.49821	-2.03366	0	
2.7033	2.81352	-3.86395	0	
2.7040	5.26321	-2.32418	0	
2.7047	9.82305	-2.32418	0	
2.7053	15.3288	-4.15447	0	
2.7060	22.3383	-5.37467	0	
2.7067	26.9224	-6.91444	0	
2.7073	23.8664	-9.03525	0	
2.7080	17.7785	-8.13463	0	
2.7087	16.2505	-6.59486	0	
2.7093	16.2505	-6.30434	0	
2.7100	11.6664	-4.47405	0	
2.7107	5.26321	-3.54437	0	
2.7113	3.73518	-4.15447	0	
2.7120	1.28549	-3.25385	0	
2.7127	-6.33041	-0.813463	0	
2.7133	-8.78011	-0.813463	0	
2.7140	-5.43299	-0.493888	0	
2.7147	-7.56739	1.62693	0	
2.7153	-15.7896	3.45722	0	
2.7160	-23.1145	4.38689	0	
2.7167	-26.7769	4.99699	0	
2.7173	-24.9578	2.84712	0	
2.7180	-20.0827	1.01683	0	
2.7187	-17.9483	2.5566	0	
2.7193	-16.7113	2.5566	0	
2.7200	-12.1515	-0.203366	0	
2.7207	-7.56739	-1.42356	0	
2.7213	-6.03936	-0.813463	0	
2.7220	-5.11769	-1.42356	0	
2.7227	-2.06163	-3.25385	0	
2.7233	0.994432	-4.15447	0	
2.7240	2.20715	-4.47405	0	
2.7247	3.73518	-4.47405	0	
2.7253	11.6664	-4.47405	0	
2.7260	21.732	-5.08414	0	
2.7267	25.3944	-5.69424	0	
2.7273	24.4727	-5.69424	0	
2.7280	22.0473	-3.86395	0	
2.7287	17.7785	-1.42356	0	
2.7293	12.5881	-0.813463	0	
2.7300	8.92563	-1.10399	0	
2.7307	4.34154	-0.203366	0	
2.7313	1.28549	1.01683	0	
2.7320	1.89185	1.3364	0	
2.7327	1.89185	-0.493888	0	
2.7333	-0.848905	-2.93428	0	
2.7340	-2.06163	-2.03366	0	
2.7347	-5.72405	1.01683	0	
2.7353	-16.4203	1.9465	0	
2.7360	-24.0362	2.5566	0	
2.7367	-26.4858	3.45722	0	
2.7373	-28.3049	2.5566	0	
2.7380	-26.7769	1.3364	0	
2.7387	-20.3737	1.62693	0	
2.7393	-15.4986	1.9465	0	
2.7400	-11.8362	2.5566	0	
2.7407	-6.33041	1.62693	0	
2.7413	-1.77057	0.406732	0	
2.7420	0.363817	0.406732	0	
2.7427	2.20715	0.726306	0	
2.7433	3.12882	0.406732	0	
2.7440	5.26321	0.726306	0	
2.7447	10.7447	1.62693	0	
2.7453	17.4632	1.01683	0	
2.7460	22.6536	-0.813463	0	
2.7467	24.1817	-2.93428	0	
2.7473	22.6536	-2.03366	0	
2.7480	21.732	1.62693	0	
2.7487	20.8103	1.9465	0	
2.7493	17.1479	1.01683	0	
2.7500	12.2727	1.01683	0	
2.7507	8.92563	1.01683	0	
2.7513	4.34154	2.5566	0	
2.7520	0.994432	2.5566	0	
2.7527	2.20715	-2.03366	0	
2.7533	0.679124	-4.47405	0	
2.7540	-3.90497	-1.10399	0	
2.7547	-6.64572	0.726306	0	
2.7553	-12.1515	-0.203366	0	
2.7560	-20.9801	2.5566	0	
2.7567	-25.8795	6.5077	0	
2.7573	-24.0362	5.89761	0	
2.7580	-20.3737	1.9465	0	
2.7587	-16.7113	0.726306	0	
2.7593	-13.0489	2.5566	0	
2.7600	-9.09542	1.3364	0	
2.7607	-3.58966	-2.64375	0	
2.7613	-1.16421	-2.03366	0	
2.7620	-1.45527	0.406732	0	
2.7627	0.679124	-2.32418	0	
2.7633	1.89185	-4.76457	0	
2.7640	0.994432	-2.64375	0	
2.7647	3.12882	-2.03366	0	
2.7653	10.4537	-6.59486	0	
2.7660	19.2823	-8.13463	0	
2.7667	25.1033	-3.54437	0	
2.7673	23.5753	-1.10399	0	
2.7680	17.7785	-2.03366	0	
2.7687	11.9574	0.406732	0	
2.7693	8.92563	3.45722	0	
2.7700	8.00397	1.3364	0	
2.7707	6.16063	-1.71408	0	
2.7713	2.49821	1.3364	0	
2.7720	-0.242544	4.06732	0	
2.7727	-1.77057	2.5566	0	
2.7733	-2.06163	-0.203366	0	
2.7740	0.0727633	-2.03366	0	
2.7747	-1.16421	-2.64375	0	
2.7753	-12.1515	-1.10399	0	
2.7760	-23.1145	-0.203366	0	
2.7767	-24.0362	1.01683	0	
2.7773	-21.2954	2.5566	0	
2.7780	-20.9801	1.62693	0	
2.7787	-18.5546	-1.10399	0	
2.7793	-13.6553	-1.42356	0	
2.7800	-10.3081	-2.03366	0	
2.7807	-10.6234	-2.03366	0	
2.7813	-9.99283	0.406732	0	
2.7820	-6.64572	0.726306	0	
2.7827	-2.66799	-1.42356	0	
2.7833	-0.533598	-1.10399	0	
2.7840	1.60079	-0.203366	0	
2.7847	6.47594	-1.10399	0	
2.7853	13.4855	-2.03366	0	
2.7860	19.5976	-2.93428	0	
2.7867	24.4727	-3.54437	0	
2.7873	26.6071	-2.93428	0	
2.7880	24.4727	-3.54437	0	
2.7887	18.9912	-4.47405	0	
2.7893	14.4071	-4.47405	0	
2.7900	10.1384	-4.15447	0	
2.7907	3.73518	-3.86395	0	
2.7913	-2.9833	-2.93428	0	
2.7920	-5.72405	-2.64375	0	
2.7927	-6.64572	-2.03366	0	
2.7933	-7.25208	-1.10399	0	
2.7940	-7.56739	0.406732	0	
2.7947	-11.2298	3.1667	0	
2.7953	-19.4521	5.60708	0	
2.7960	-26.1705	6.5077	0	
2.7967	-26.7769	7.1178	0	
2.7973	-25.2731	6.82728	0	
2.7980	-24.0362	6.21718	0	
2.7987	-19.4521	6.21718	0	
2.7993	-12.1515	4.38689	0	
2.8000	-8.48905	2.84712	0	
2.8007	-7.56739	3.45722	0	
2.8013	-3.2986	1.62693	0	
2.8020	2.81352	-0.493888	0	
2.8027	5.26321	1.9465	0	
2.8033	4.34154	3.45722	0	
2.8040	6.47594	0.726306	0	
2.8047	11.6664	1.3364	0	
2.8053	19.2823	1.9465	0	
2.8060	27.8441	-0.813463	0	
2.8067	31.1912	-1.10399	0	
2.8073	29.6632	1.3364	0	
2.8080	27.8441	1.9465	0	
2.8087	23.8664	1.9465	0	
2.8093	16.2505	2.5566	0	
2.8100	10.4537	2.84712	0	
2.8107	7.0823	2.5566	0	
2.8113	2.81352	2.5566	0	
2.8120	0.363817	4.06732	0	
2.8127	-2.06163	7.1178	0	
2.8133	-4.82663	7.7279	0	
2.8140	-4.82663	4.06732	0	
2.8147	-7.56739	0.726306	0	
2.8153	-17.633	0.726306	0	
2.8160	-24.9578	0.406732	0	
2.8167	-26.7769	-0.203366	0	
2.8173	-28.6202	-0.203366	0	
2.8180	-26.7769	-0.813463	0	
2.8187	-21.6107	0.726306	0	
2.8193	-18.5546	1.62693	0	
2.8200	-14.5769	-2.03366	0	
2.8207	-8.48905	-3.86395	0	
2.8213	-6.03936	-0.813463	0	
2.8220	-5.43299	-0.203366	0	
2.8227	0.0727633	-2.93428	0	
2.8233	3.41988	-2.03366	0	
2.8240	2.49821	-1.10399	0	
2.8247	6.16063	-3.86395	0	
2.8253	15.6199	-5.08414	0	
2.8260	22.9447	-4.76457	0	
2.8267	26.6071	-5.69424	0	
2.8273	26.0008	-3.86395	0	
2.8280	21.732	-1.42356	0	
2.8287	19.2823	-2.03366	0	
2.8293	14.7224	-1.71408	0	
2.8300	6.16063	0.726306	0	
2.8307	3.73518	1.01683	0	
2.8313	5.55427	-0.203366	0	
2.8320	1.28549	-0.203366	0	
2.8327	-2.9833	-2.64375	0	
2.8333	-2.06163	-3.86395	0	
2.8340	-5.72405	-0.493888	0	
2.8347	-13.0489	1.3364	0	
2.8353	-18.8457	-2.03366	0	
2.8360	-24.9578	-2.32418	0	
2.8367	-27.6986	0.406732	0	
2.8373	-25.8795	0.116209	0	
2.8380	-24.0362	-0.493888	0	
2.8387	-20.3737	-0.203366	0	
2.8393	-13.9706	-2.03366	0	
2.8400	-10.6234	-4.76457	0	
2.8407	-7.85844	-4.76457	0	
2.8413	-4.19602	-4.76457	0	
2.8420	-2.9833	-4.76457	0	
2.8427	-0.242544	-2.93428	0	
2.8433	4.34154	-2.03366	0	
2.8440	4.94791	-1.42356	0	
2.8447	7.0823	0.116209	0	
2.8453	17.1479	-0.813463	0	
2.8460	26.0008	-3.54437	0	
2.8467	26.0008	-3.86395	0	
2.8473	23.26	-2.32418	0	
2.8480	21.4409	-1.71408	0	
2.8487	16.2505	-0.203366	0	
2.8493	10.4537	1.62693	0	
2.8500	8.31927	1.62693	0	
2.8507	6.79124	-1.10399	0	
2.8513	2.49821	-2.32418	0	
2.8520	-0.533598	-0.493888	0	
2.8527	-1.45527	-0.203366	0	
2.8533	-2.06163	-1.10399	0	
2.8540	-2.9833	1.62693	0	
2.8547	-8.48905	4.67741	0	
2.8553	-18.8457	4.06732	0	
2.8560	-25.2731	3.45722	0	
2.8567	-26.4858	4.38689	0	
2.8573	-26.1705	3.45722	0	
2.8580	-23.1145	3.45722	0	
2.8587	-18.5546	4.38689	0	
2.8593	-16.4203	2.5566	0	
2.8600	-11.2298	0.726306	0	
2.8607	-3.2986	0.726306	0	
2.8613	-0.242544	1.01683	0	
2.8620	0.0727633	1.62693	0	
2.8627	-0.242544	1.62693	0	
2.8633	0.0727633	0.116209	0	
2.8640	2.49821	-0.203366	0	
2.8647	8.00397	0.406732	0	
2.8653	14.4071	0.116209	0	
2.8660	22.0473	-0.203366	0	
2.8667	26.0008	-0.813463	0	
2.8673	23.8664	-1.42356	0	
2.8680	23.8664	-0.493888	0	
2.8687	24.1817	-1.42356	0	
2.8693	18.9912	-3.86395	0	
2.8700	15.0135	-3.86395	0	
2.8707	14.4071	-3.54437	0	
2.8713	10.7447	-3.25385	0	
2.8720	7.0823	-2.93428	0	
2.8727	6.47594	-3.86395	0	
2.8733	3.73518	-4.76457	0	
2.8740	0.363817	-1.10399	0	
2.8747	-1.16421	2.5566	0	
2.8753	-6.64572	2.23702	0	
2.8760	-14.8922	1.62693	0	
2.8767	-19.7674	1.62693	0	
2.8773	-20.0827	1.9465	0	
2.8780	-16.7113	3.45722	0	
2.8787	-13.0489	2.84712	0	
2.8793	-12.1515	1.01683	0	
2.8800	-8.48905	1.3364	0	
2.8807	-1.16421	0.406732	0	
2.8813	0.994432	-1.10399	0	
2.8820	-0.533598	1.01683	0	
2.8827	-2.06163	1.62693	0	
2.8833	-5.11769	-1.42356	0	
2.8840	-4.19602	-2.03366	0	
2.8847	4.34154	-2.93428	0	
2.8853	11.9574	-6.59486	0	
2.8860	16.8568	-7.81506	0	
2.8867	22.3383	-6.59486	0	
2.8873	22.9447	-8.42515	0	
2.8880	18.3849	-9.64535	0	
2.8887	15.6199	-7.20496	0	
2.8893	14.7224	-4.76457	0	
2.8900	12.2727	-4.76457	0	
2.8907	7.3976	-4.76457	0	
2.8913	2.20715	-2.32418	0	
2.8920	0.0727633	0.726306	0	
2.8927	0.679124	1.3364	0	
2.8933	-1.45527	1.62693	0	
2.8940	-6.33041	2.84712	0	
2.8947	-9.09542	3.1667	0	
2.8953	-13.6553	3.45722	0	
2.8960	-23.4298	4.38689	0	
2.8967	-31.6763	2.23702	0	
2.8973	-31.9674	-0.493888	0	
2.8980	-26.4858	-1.10399	0	
2.8987	-18.5546	-0.813463	0	
2.8993	-12.7578	-0.203366	0	
2.9000	-11.2298	-1.10399	0	
2.9007	-9.99283	-4.15447	0	
2.9013	-5.72405	-5.98476	0	
2.9020	-2.9833	-4.76457	0	
2.9027	-3.58966	-4.47405	0	
2.9033	-2.66799	-5.08414	0	
2.9040	-2.06163	-3.86395	0	
2.9047	-0.242544	-2.03366	0	
2.9053	8.31927	-2.93428	0	
2.9060	20.5193	-4.15447	0	
2.9067	24.788	-2.03366	0	
2.9073	23.5753	-0.493888	0	
2.9080	23.5753	-2.64375	0	
2.9087	20.5193	-3.25385	0	
2.9093	11.6664	-2.64375	0	
2.9100	4.02624	-3.54437	0	
2.9107	3.41988	-3.86395	0	
2.9113	3.73518	-2.64375	0	
2.9120	0.0727633	-2.93428	0	
2.9127	-3.2986	-3.86395	0	
2.9133	-6.33041	-3.25385	0	
2.9140	-9.38647	-1.71408	0	
2.9147	-9.70178	-0.203366	0	
2.9153	-13.3642	0.726306	0	
2.9160	-23.4298	1.01683	0	
2.9167	-26.7769	1.9465	0	
2.9173	-22.8234	3.45722	0	
2.9180	-21.2954	4.99699	0	
2.9187	-18.2393	5.28751	0	
2.9193	-12.1515	3.45722	0	
2.9200	-8.48905	1.9465	0	
2.9207	-5.72405	2.5566	0	
2.9213	-2.37694	1.9465	0	
2.9220	-1.16421	1.9465	0	
2.9227	2.81352	5.28751	0	
2.9233	8.31927	4.99699	0	
2.9240	7.0823	-0.203366	0	
2.9247	7.68866	-0.203366	0	
2.9253	16.5415	1.62693	0	
2.9260	24.1817	-1.71408	0	
2.9267	26.3161	-2.93428	0	
2.9273	26.0008	0.726306	0	
2.9280	23.5753	1.62693	0	
2.9287	18.0696	1.3364	0	
2.9293	13.8008	2.23702	0	
2.9300	10.7447	0.726306	0	
2.9307	6.79124	0.116209	0	
2.9313	3.12882	3.45722	0	
2.9320	2.49821	5.28751	0	
2.9327	1.60079	3.1667	0	
2.9333	-2.37694	3.45722	0	
2.9340	-5.43299	3.77679	0	
2.9347	-6.96102	3.45722	0	
2.9353	-15.4986	6.5077	0	
2.9360	-24.9578	8.94809	0	
2.9367	-26.1705	5.60708	0	
2.9373	-24.0362	1.62693	0	
2.9380	-22.5081	1.62693	0	
2.9387	-17.9483	1.62693	0	
2.9393	-13.9706	2.5566	0	
2.9400	-13.9706	3.45722	0	
2.9407	-9.99283	1.62693	0	
2.9413	-2.06163	1.3364	0	
2.9420	-0.242544	2.84712	0	
2.9427	-0.533598	0.726306	0	
2.9433	3.12882	-2.93428	0	
2.9440	7.68866	-2.93428	0	
2.9447	10.1384	-2.03366	0	
2.9453	16.2505	-1.10399	0	
2.9460	24.1817	-2.03366	0	
2.9467	27.2377	-5.69424	0	
2.9473	26.0008	-6.30434	0	
2.9480	24.788	-2.64375	0	
2.9487	21.4409	-2.03366	0	
