0.0007	-11.5127	-2.28278	0	
0.0013	-10.5936	1.08078	0	
0.0020	-8.75527	1.68683	0	
0.0027	-9.37842	2.90903	0	
0.0033	-13.3354	8.10084	0	
0.0040	-18.8347	10.5351	0	
0.0047	-19.7539	9.62606	0	
0.0053	-15.1737	9.00991	0	
0.0060	-13.943	6.57562	0	
0.0067	-17.9156	3.51508	0	
0.0073	-20.6574	3.21205	0	
0.0080	-19.1307	1.38381	0	
0.0087	-17.308	-4.11102	0	
0.0093	-17.9156	-7.46449	0	
0.0100	-18.8347	-5.03019	0	
0.0107	-15.1737	0.161613	0	
0.0113	-10.282	2.90903	0	
0.0120	-10.282	1.08078	0	
0.0127	-9.37842	-1.06058	0	
0.0133	-3.87911	-1.36361	0	
0.0140	-1.43325	-0.757559	0	
0.0147	-4.19069	1.68683	0	
0.0153	-3.87911	3.21205	0	
0.0160	-0.218103	-0.141411	0	
0.0167	1.30862	-2.88883	0	
0.0173	-1.43325	-2.28278	0	
0.0180	-5.09426	-1.96965	0	
0.0187	-6.93255	-1.36361	0	
0.0193	-9.06684	1.38381	0	
0.0200	-8.75527	2.606	0	
0.0207	-5.09426	4.13122	0	
0.0213	-9.67442	6.87864	0	
0.0220	-21.265	7.18166	0	
0.0227	-18.8347	5.65644	0	
0.0233	-8.75527	8.70688	0	
0.0240	-10.282	13.5856	0	
0.0247	-13.3354	13.2825	0	
0.0253	-8.45927	6.57562	0	
0.0260	-8.1477	-1.96965	0	
0.0267	-14.2546	-7.16146	0	
0.0273	-15.1737	-6.85844	0	
0.0280	-12.4163	-3.808	0	
0.0287	-6.93255	-1.66663	0	
0.0293	0.0934726	0.464636	0	
0.0300	0.701045	1.98986	0	
0.0307	-6.01341	-0.757559	0	
0.0313	-10.8896	-2.5858	0	
0.0320	-8.45927	1.08078	0	
0.0327	-6.01341	3.21205	0	
0.0333	-5.40583	0.161613	0	
0.0340	0.389469	0.464636	0	
0.0347	7.71149	3.51508	0	
0.0353	5.2812	1.98986	0	
0.0360	7.10392	1.38381	0	
0.0367	19.6137	4.13122	0	
0.0373	20.8444	1.08078	0	
0.0380	10.7649	-5.03019	0	
0.0387	11.6841	-5.03019	0	
0.0393	16.8718	-1.36361	0	
0.0400	11.3881	1.98986	0	
0.0407	1.62019	2.30298	0	
0.0413	-6.01341	0.76766	0	
0.0420	-8.1477	-2.28278	0	
0.0427	-1.43325	-3.808	0	
0.0433	4.67363	-2.28278	0	
0.0440	4.96963	-0.444435	0	
0.0447	7.41549	0.161613	0	
0.0453	8.33464	2.90903	0	
0.0460	0.389469	5.95947	0	
0.0467	-6.93255	6.87864	0	
0.0473	-9.37842	10.5351	0	
0.0480	-13.0394	12.3735	0	
0.0487	-17.308	8.40386	0	
0.0493	-14.5662	5.0403	0	
0.0500	-3.87911	3.8282	0	
0.0507	7.41549	-1.96965	0	
0.0513	11.3881	-5.63624	0	
0.0520	8.94221	-2.28278	0	
0.0527	6.80792	-2.28278	0	
0.0533	4.96963	-6.85844	0	
0.0540	4.67363	-5.33322	0	
0.0547	6.20035	-1.36361	0	
0.0553	3.44291	-0.444435	0	
0.0560	-3.27154	-0.141411	0	
0.0567	-4.19069	1.08078	0	
0.0573	-0.514099	2.30298	0	
0.0580	1.30862	1.38381	0	
0.0587	1.30862	-4.71707	0	
0.0593	-1.13725	-6.85844	0	
0.0600	-6.93255	0.76766	0	
0.0607	-11.2011	6.26249	0	
0.0613	-11.5127	3.8282	0	
0.0620	-13.647	2.30298	0	
0.0627	-16.9964	0.464636	0	
0.0633	-16.9964	-4.11102	0	
0.0640	-17.604	-3.808	0	
0.0647	-20.6574	0.464636	0	
0.0653	-23.7109	1.38381	0	
0.0660	-24.3185	4.13122	0	
0.0667	-20.6574	7.78771	0	
0.0673	-16.9964	5.0403	0	
0.0680	-16.9964	5.95947	0	
0.0687	-17.604	11.4543	0	
0.0693	-18.8347	7.78771	0	
0.0700	-21.8882	0.76766	0	
0.0707	-20.3615	1.98986	0	
0.0713	-15.7813	3.21205	0	
0.0720	-18.8347	3.21205	0	
0.0727	-21.8882	6.26249	0	
0.0733	-16.9964	4.43425	0	
0.0740	-13.0394	-2.28278	0	
0.0747	-11.8087	-1.36361	0	
0.0753	-7.8517	1.68683	0	
0.0760	-5.40583	-1.06058	0	
0.0767	-6.62098	-2.28278	0	
0.0773	-6.01341	-1.36361	0	
0.0780	-5.09426	-2.28278	0	
0.0787	-6.01341	-2.28278	0	
0.0793	-6.93255	-0.141411	0	
0.0800	-8.75527	0.464636	0	
0.0807	-10.5936	0.161613	0	
0.0813	-12.4163	-0.141411	0	
0.0820	-16.9964	-0.444435	0	
0.0827	-21.5766	1.68683	0	
0.0833	-14.2546	3.21205	0	
0.0840	-2.04082	2.30298	0	
0.0847	-2.66397	2.606	0	
0.0853	-9.67442	6.26249	0	
0.0860	-7.8517	8.70688	0	
0.0867	-5.09426	9.62606	0	
0.0873	-6.93255	9.00991	0	
0.0880	-6.01341	5.35342	0	
0.0887	-5.70183	0.76766	0	
0.0893	-11.2011	0.161613	0	
0.0900	-13.3354	1.38381	0	
0.0907	-16.7004	-1.96965	0	
0.0913	-27.9795	-7.16146	0	
0.0920	-35.3171	-9.30283	0	
0.0927	-33.4788	-7.76751	0	
0.0933	-24.3185	-5.33322	0	
0.0940	-4.19069	-2.28278	0	
0.0947	11.9957	1.68683	0	
0.0953	5.88878	2.606	0	
0.0960	-2.35239	0.76766	0	
0.0967	-1.74482	-0.444435	0	
0.0973	-6.93255	0.464636	0	
0.0980	-16.3889	1.68683	0	
0.0987	-18.8347	3.8282	0	
0.0993	-16.3889	4.73727	0	
0.1000	-13.0394	2.30298	0	
0.1007	-9.67442	-0.444435	0	
0.1013	-9.98599	-1.06058	0	
0.1020	-11.2011	-1.66663	0	
0.1027	-9.67442	-1.66663	0	
0.1033	-4.48669	0.161613	0	
0.1040	-1.43325	2.30298	0	
0.1047	-7.8517	4.13122	0	
0.1053	-16.9964	5.95947	0	
0.1060	-16.7004	4.73727	0	
0.1067	-15.1737	2.90903	0	
0.1073	-17.9156	2.606	0	
0.1080	-15.7813	1.38381	0	
0.1087	-10.8896	-0.141411	0	
0.1093	-12.4163	1.68683	0	
0.1100	-15.1737	2.90903	0	
0.1107	-12.1203	1.98986	0	
0.1113	-9.67442	1.38381	0	
0.1120	-7.8517	-0.141411	0	
0.1127	-2.35239	-2.5858	0	
0.1133	2.22776	-2.28278	0	
0.1140	-0.825675	-0.757559	0	
0.1147	-1.13725	0.464636	0	
0.1153	7.71149	2.30298	0	
0.1160	12.2916	3.21205	0	
0.1167	5.88878	1.38381	0	
0.1173	-1.74482	-2.28278	0	
0.1180	-6.32498	-5.93927	0	
0.1187	-9.06684	-3.50498	0	
0.1193	-8.75527	1.38381	0	
0.1200	-8.45927	1.68683	0	
0.1207	-13.647	-0.444435	0	
0.1213	-17.604	-0.141411	0	
0.1220	-14.2546	0.464636	0	
0.1227	-14.5662	3.21205	0	
0.1233	-21.5766	7.78771	0	
0.1240	-25.2376	7.18166	0	
0.1247	-25.2376	1.38381	0	
0.1253	-28.6026	-1.06058	0	
0.1260	-28.6026	-0.444435	0	
0.1267	-20.0499	-1.36361	0	
0.1273	-10.282	-1.36361	0	
0.1280	-4.48669	1.98986	0	
0.1287	-6.01341	4.73727	0	
0.1293	-18.5232	4.73727	0	
0.1300	-30.1293	3.8282	0	
0.1307	-24.9416	5.0403	0	
0.1313	-12.4163	6.26249	0	
0.1320	-6.93255	6.26249	0	
0.1327	-6.32498	4.13122	0	
0.1333	-6.62098	0.464636	0	
0.1340	-8.1477	-0.444435	0	
0.1347	-6.32498	2.30298	0	
0.1353	-3.27154	2.30298	0	
0.1360	-6.93255	-1.36361	0	
0.1367	-11.8087	-0.444435	0	
0.1373	-11.2011	3.21205	0	
0.1380	-9.98599	3.51508	0	
0.1387	-10.282	3.8282	0	
0.1393	-9.67442	2.90903	0	
0.1400	-10.5936	-0.444435	0	
0.1407	-10.5936	-0.444435	0	
0.1413	-7.8517	0.464636	0	
0.1420	-9.67442	-1.36361	0	
0.1427	-19.1307	0.464636	0	
0.1433	-26.4683	5.0403	0	
0.1440	-28.8986	5.0403	0	
0.1447	-29.8178	3.21205	0	
0.1453	-28.291	2.30298	0	
0.1460	-24.0225	1.68683	0	
0.1467	-21.8882	3.8282	0	
0.1473	-20.969	5.95947	0	
0.1480	-16.9964	2.90903	0	
0.1487	-10.5936	0.464636	0	
0.1493	-4.19069	-1.36361	0	
0.1500	0.0934726	-4.11102	0	
0.1507	-0.825675	-1.36361	0	
0.1513	-2.35239	5.0403	0	
0.1520	0.701045	2.90903	0	
0.1527	-0.514099	-4.41405	0	
0.1533	-8.45927	-5.63624	0	
0.1540	-13.0394	-2.28278	0	
0.1547	-10.5936	-1.66663	0	
0.1553	-8.1477	-3.50498	0	
0.1560	-9.06684	-2.28278	0	
0.1567	-9.98599	1.68683	0	
0.1573	-5.40583	3.21205	0	
0.1580	0.389469	1.68683	0	
0.1587	-4.19069	4.13122	0	
0.1593	-8.45927	7.78771	0	
0.1600	1.30862	5.95947	0	
0.1607	7.41549	3.8282	0	
0.1613	-2.04082	4.73727	0	
0.1620	-8.1477	7.48469	0	
0.1627	-10.282	8.40386	0	
0.1633	-16.9964	4.73727	0	
0.1640	-18.2272	0.464636	0	
0.1647	-13.943	1.98986	0	
0.1653	-15.1737	5.0403	0	
0.1660	-17.308	3.21205	0	
0.1667	-15.7813	0.76766	0	
0.1673	-16.0773	2.606	0	
0.1680	-16.7004	1.68683	0	
0.1687	-16.0773	-4.71707	0	
0.1693	-16.7004	-8.98971	0	
0.1700	-13.943	-6.55541	0	
0.1707	-10.8896	-3.19185	0	
0.1713	-11.5127	-2.28278	0	
0.1720	-9.98599	-1.96965	0	
0.1727	-7.54012	-0.444435	0	
0.1733	-9.67442	0.161613	0	
0.1740	-10.282	0.161613	0	
0.1747	-6.93255	0.76766	0	
0.1753	-2.04082	1.08078	0	
0.1760	3.44291	0.464636	0	
0.1767	5.2812	-0.141411	0	
0.1773	0.701045	0.161613	0	
0.1780	-3.27154	0.464636	0	
0.1787	-2.04082	0.464636	0	
0.1793	2.22776	1.68683	0	
0.1800	5.5772	3.51508	0	
0.1807	4.96963	4.43425	0	
0.1813	0.389469	4.13122	0	
0.1820	-5.70183	4.13122	0	
0.1827	-10.5936	4.13122	0	
0.1833	-13.3354	4.43425	0	
0.1840	-18.8347	7.48469	0	
0.1847	-31.6561	9.62606	0	
0.1853	-45.381	7.18166	0	
0.1860	-50.2571	3.8282	0	
0.1867	-40.1932	3.21205	0	
0.1873	-14.2546	4.73727	0	
0.1880	6.20035	1.38381	0	
0.1887	1.62019	-6.85844	0	
0.1893	-7.54012	-10.8281	0	
0.1900	-4.19069	-7.16146	0	
0.1907	-3.27154	-3.19185	0	
0.1913	-9.67442	-0.141411	0	
0.1920	-8.75527	3.51508	0	
0.1927	-4.79826	1.98986	0	
0.1933	-8.45927	-1.06058	0	
0.1940	-7.8517	2.30298	0	
0.1947	5.5772	5.0403	0	
0.1953	16.2642	3.21205	0	
0.1960	11.3881	4.43425	0	
0.1967	0.389469	5.95947	0	
0.1973	-6.93255	2.90903	0	
0.1980	-14.5662	1.08078	0	
0.1987	-20.3615	-0.141411	0	
0.1993	-21.5766	-6.55541	0	
0.2000	-25.2376	-12.6563	0	
0.2007	-29.5062	-9.60585	0	
0.2013	-28.8986	-2.88883	0	
0.2020	-25.2376	-0.444435	0	
0.2027	-24.63	0.464636	0	
0.2033	-26.4683	3.8282	0	
0.2040	-27.0759	4.73727	0	
0.2047	-24.3185	1.98986	0	
0.2053	-18.8347	0.464636	0	
0.2060	-15.1737	-0.444435	0	
0.2067	-15.4697	-1.96965	0	
0.2073	-15.4697	-1.36361	0	
0.2080	-12.7279	-1.36361	0	
0.2087	-11.5127	-2.88883	0	
0.2093	-13.0394	-0.757559	0	
0.2100	-13.3354	4.73727	0	
0.2107	-12.7279	5.35342	0	
0.2113	-12.4163	0.464636	0	
0.2120	-9.98599	-2.28278	0	
0.2127	-6.62098	-0.444435	0	
0.2133	-5.09426	0.76766	0	
0.2140	-2.95997	-1.36361	0	
0.2147	2.83534	-1.96965	0	
0.2153	4.05048	0.76766	0	
0.2160	-6.01341	2.30298	0	
0.2167	-17.9156	4.13122	0	
0.2173	-22.7917	6.26249	0	
0.2180	-24.3185	4.43425	0	
0.2187	-24.3185	3.51508	0	
0.2193	-22.1842	6.26249	0	
0.2200	-24.63	3.21205	0	
0.2207	-26.4683	-3.19185	0	
0.2213	-14.5662	-4.11102	0	
0.2220	-4.19069	-2.28278	0	
0.2227	-8.1477	-1.36361	0	
0.2233	-15.4697	1.68683	0	
0.2240	-19.7539	3.51508	0	
0.2247	-22.7917	4.13122	0	
0.2253	-19.7539	7.78771	0	
0.2260	-19.7539	7.48469	0	
0.2267	-23.7109	2.90903	0	
0.2273	-15.1737	5.65644	0	
0.2280	-3.27154	11.4543	0	
0.2287	-5.09426	8.70688	0	
0.2293	-6.32498	4.43425	0	
0.2300	-0.218103	5.0403	0	
0.2307	1.30862	3.21205	0	
0.2313	-0.825675	-1.36361	0	
0.2320	-2.66397	-2.28278	0	
0.2327	-5.09426	-0.444435	0	
0.2333	-5.09426	-1.36361	0	
0.2340	-5.09426	-3.19185	0	
0.2347	-9.37842	-1.06058	0	
0.2353	-10.8896	3.51508	0	
0.2360	-9.37842	2.90903	0	
0.2367	-9.67442	-1.36361	0	
0.2373	-7.8517	-0.444435	0	
0.2380	-3.56754	2.30298	0	
0.2387	-3.27154	-1.06058	0	
0.2393	-6.62098	-3.50498	0	
0.2400	-9.06684	-1.36361	0	
0.2407	-10.282	0.464636	0	
0.2413	-7.8517	1.38381	0	
0.2420	-7.22855	3.21205	0	
0.2427	-14.2546	3.21205	0	
0.2433	-20.3615	3.51508	0	
0.2440	-19.7539	5.95947	0	
0.2447	-16.7004	5.95947	0	
0.2453	-14.2546	2.30298	0	
0.2460	-13.943	-2.28278	0	
0.2467	-13.3354	-6.85844	0	
0.2473	-6.01341	-5.03019	0	
0.2480	6.20035	0.464636	0	
0.2487	9.23821	1.98986	0	
0.2493	1.62019	-1.06058	0	
0.2500	-4.19069	-2.28278	0	
0.2507	-3.27154	-5.33322	0	
0.2513	-0.218103	-6.85844	0	
0.2520	2.22776	-3.50498	0	
0.2527	5.2812	-0.444435	0	
0.2533	6.80792	-1.66663	0	
0.2540	4.05048	-2.28278	0	
0.2547	3.14691	-1.36361	0	
0.2553	6.49635	-1.06058	0	
0.2560	7.71149	-0.757559	0	
0.2567	5.88878	0.161613	0	
0.2573	3.44291	1.38381	0	
0.2580	0.389469	0.76766	0	
0.2587	1.62019	1.68683	0	
0.2593	9.86136	5.95947	0	
0.2600	14.1299	8.40386	0	
0.2607	9.54979	5.0403	0	
0.2613	4.05048	-0.757559	0	
0.2620	-0.218103	-2.5858	0	
0.2627	-2.35239	-0.444435	0	
0.2633	0.389469	3.21205	0	
0.2640	-1.43325	5.0403	0	
0.2647	-14.2546	5.0403	0	
0.2653	-27.0759	5.0403	0	
0.2660	-29.2102	4.13122	0	
0.2667	-27.9795	4.13122	0	
0.2673	-30.7369	6.57562	0	
0.2680	-32.5596	6.87864	0	
0.2687	-29.5062	6.26249	0	
0.2693	-28.291	5.65644	0	
0.2700	-30.7369	0.464636	0	
0.2707	-29.2102	-7.46449	0	
0.2713	-23.1033	-8.68668	0	
0.2720	-14.5662	-3.19185	0	
0.2727	-4.48669	1.08078	0	
0.2733	-0.825675	0.76766	0	
0.2740	-4.19069	-1.36361	0	
0.2747	-3.27154	-1.36361	0	
0.2753	0.701045	2.30298	0	
0.2760	-2.35239	2.30298	0	
0.2767	-7.8517	0.161613	0	
0.2773	-6.93255	1.38381	0	
0.2780	-3.27154	4.13122	0	
0.2787	-2.95997	2.90903	0	
0.2793	-3.87911	1.38381	0	
0.2800	-0.514099	1.38381	0	
0.2807	-2.66397	0.161613	0	
0.2813	-10.5936	-1.36361	0	
0.2820	-2.66397	1.68683	0	
0.2827	17.791	7.18166	0	
0.2833	14.1299	11.4543	0	
0.2840	-8.1477	13.2825	0	
0.2847	-20.3615	13.5856	0	
0.2853	-26.1568	11.4543	0	
0.2860	-32.5596	8.70688	0	
0.2867	-24.9416	8.70688	0	
0.2873	-11.5127	6.87864	0	
0.2880	-10.5936	-1.36361	0	
0.2887	-14.5662	-11.7371	0	
0.2893	-13.0394	-16.3128	0	
0.2900	-10.282	-15.1007	0	
0.2907	-9.37842	-12.3533	0	
0.2913	-11.2011	-7.76751	0	
0.2920	-15.1737	-2.5858	0	
0.2927	-13.3354	-1.06058	0	
0.2933	-6.62098	-1.96965	0	
0.2940	-4.19069	-2.28278	0	
0.2947	-4.48669	-1.06058	0	
0.2953	-1.43325	1.98986	0	
0.2960	4.96963	5.0403	0	
0.2967	14.4259	6.26249	0	
0.2973	19.6137	5.65644	0	
0.2980	14.1299	4.13122	0	
0.2987	6.49635	0.464636	0	
0.2993	5.88878	-2.28278	0	
0.3000	6.80792	-2.5858	0	
0.3007	4.96963	-2.28278	0	
0.3013	3.75448	0.464636	0	
0.3020	1.30862	3.21205	0	
0.3027	-2.95997	0.76766	0	
0.3033	-4.48669	-3.50498	0	
0.3040	-7.8517	-3.19185	0	
0.3047	-17.604	-1.66663	0	
0.3053	-24.63	-0.444435	0	
0.3060	-25.8452	2.30298	0	
0.3067	-25.5492	3.21205	0	
0.3073	-24.3185	1.38381	0	
0.3080	-20.3615	2.90903	0	
0.3087	-18.8347	4.43425	0	
0.3093	-19.7539	2.606	0	
0.3100	-19.1307	2.90903	0	
0.3107	-16.0773	5.0403	0	
0.3113	-14.2546	3.8282	0	
0.3120	-14.5662	4.43425	0	
0.3127	-13.0394	6.57562	0	
0.3133	-9.67442	4.13122	0	
0.3140	-8.1477	2.30298	0	
0.3147	-11.5127	5.0403	0	
0.3153	-14.2546	3.51508	0	
0.3160	-13.3354	-1.36361	0	
0.3167	-12.4163	-1.36361	0	
0.3173	-14.2546	1.98986	0	
0.3180	-14.5662	5.65644	0	
0.3187	-14.2546	9.62606	0	
0.3193	-18.2272	7.18166	0	
0.3200	-20.6574	0.161613	0	
0.3207	-16.0773	-1.36361	0	
0.3213	-12.4163	1.38381	0	
0.3220	-14.8621	3.21205	0	
0.3227	-17.604	5.35342	0	
0.3233	-19.4423	3.8282	0	
0.3240	-22.1842	0.161613	0	
0.3247	-22.4957	1.68683	0	
0.3253	-20.3615	4.13122	0	
0.3260	-18.5232	1.98986	0	
0.3267	-19.4423	0.464636	0	
0.3273	-21.265	1.08078	0	
0.3280	-18.2272	1.68683	0	
0.3287	-12.4163	4.73727	0	
0.3293	-12.4163	5.95947	0	
0.3300	-15.1737	1.98986	0	
0.3307	-7.54012	-0.444435	0	
0.3313	4.96963	0.76766	0	
0.3320	6.80792	1.08078	0	
0.3327	0.389469	1.38381	0	
0.3333	-2.35239	3.21205	0	
0.3340	-4.19069	3.21205	0	
0.3347	-10.282	2.30298	0	
0.3353	-10.282	2.30298	0	
0.3360	-0.514099	2.606	0	
0.3367	3.14691	1.38381	0	
0.3373	-4.79826	-1.66663	0	
0.3380	-9.06684	-2.88883	0	
0.3387	-9.06684	-2.28278	0	
0.3393	-11.8087	-1.36361	0	
0.3400	-14.2546	-0.757559	0	
0.3407	-15.1737	-1.06058	0	
0.3413	-15.1737	-2.28278	0	
0.3420	-12.4163	-1.36361	0	
0.3427	-10.5936	0.464636	0	
0.3433	-12.4163	-0.444435	0	
0.3440	-13.0394	-0.444435	0	
0.3447	-14.2546	1.68683	0	
0.3453	-21.265	1.38381	0	
0.3460	-27.9795	0.161613	0	
0.3467	-28.6026	1.38381	0	
0.3473	-26.4683	1.98986	0	
0.3480	-23.7109	0.464636	0	
0.3487	-20.6574	0.464636	0	
0.3493	-20.3615	2.30298	0	
0.3500	-19.1307	2.606	0	
0.3507	-8.45927	0.161613	0	
0.3513	9.86136	-0.757559	0	
0.3520	22.0595	0.464636	0	
0.3527	24.1938	0.76766	0	
0.3533	22.6671	1.68683	0	
0.3540	19.0061	2.90903	0	
0.3547	12.2916	1.38381	0	
0.3553	6.80792	0.464636	0	
0.3560	-0.514099	3.8282	0	
0.3567	-14.8621	4.43425	0	
0.3573	-28.291	1.08078	0	
0.3580	-28.6026	-0.444435	0	
0.3587	-21.5766	1.98986	0	
0.3593	-18.8347	3.51508	0	
0.3600	-16.9964	4.43425	0	
0.3607	-12.7279	5.65644	0	
0.3613	-13.3354	3.8282	0	
0.3620	-17.9156	0.464636	0	
0.3627	-18.8347	0.76766	0	
0.3633	-17.308	4.13122	0	
0.3640	-20.3615	3.51508	0	
0.3647	-23.1033	1.38381	0	
0.3653	-21.5766	0.76766	0	
0.3660	-19.4423	-1.36361	0	
0.3667	-17.604	-2.28278	0	
0.3673	-16.0773	3.21205	0	
0.3680	-16.9964	6.87864	0	
0.3687	-18.5232	4.13122	0	
0.3693	-15.1737	3.8282	0	
0.3700	-9.06684	5.65644	0	
0.3707	-9.06684	5.0403	0	
0.3713	-9.67442	5.0403	0	
0.3720	0.389469	3.21205	0	
0.3727	12.2916	-1.36361	0	
0.3733	10.7649	-1.96965	0	
0.3740	1.01262	1.08078	0	
0.3747	-4.79826	1.38381	0	
0.3753	-2.95997	1.38381	0	
0.3760	0.389469	2.30298	0	
0.3767	-1.74482	0.464636	0	
0.3773	-4.19069	-0.444435	0	
0.3780	-1.43325	0.464636	0	
0.3787	-4.19069	-1.36361	0	
0.3793	-8.75527	-3.19185	0	
0.3800	-1.43325	-5.33322	0	
0.3807	5.5772	-7.76751	0	
0.3813	-1.43325	-5.03019	0	
0.3820	-9.37842	1.38381	0	
0.3827	-14.2546	2.30298	0	
0.3833	-19.1307	-0.141411	0	
0.3840	-19.7539	1.98986	0	
0.3847	-20.6574	3.21205	0	
0.3853	-24.9416	1.08078	0	
0.3860	-17.9156	1.38381	0	
0.3867	-2.66397	3.8282	0	
0.3873	6.80792	2.30298	0	
0.3880	12.6032	2.30298	0	
0.3887	14.4259	4.13122	0	
0.3893	5.88878	0.161613	0	
0.3900	-3.87911	-2.28278	0	
0.3907	-7.22855	2.606	0	
0.3913	-8.1477	5.65644	0	
0.3920	-4.79826	4.13122	0	
0.3927	2.22776	5.95947	0	
0.3933	3.75448	6.87864	0	
0.3940	1.30862	5.95947	0	
0.3947	2.52376	9.00991	0	
0.3953	4.05048	10.8483	0	
0.3960	3.44291	9.62606	0	
0.3967	3.44291	11.4543	0	
0.3973	0.389469	6.87864	0	
0.3980	-5.40583	-4.41405	0	
0.3987	-3.27154	-6.85844	0	
0.3993	4.05048	-1.96965	0	
0.4000	2.83534	-3.19185	0	
0.4007	-4.79826	-3.19185	0	
0.4013	-9.06684	-2.28278	0	
0.4020	-12.7279	-8.08063	0	
0.4027	-16.0773	-12.9593	0	
0.4033	-16.0773	-7.76751	0	
0.4040	-18.2272	-1.96965	0	
0.4047	-21.5766	3.21205	0	
0.4053	-19.4423	6.26249	0	
0.4060	-17.308	2.606	0	
0.4067	-20.0499	0.464636	0	
0.4073	-19.7539	6.26249	0	
0.4080	-19.7539	7.78771	0	
0.4087	-24.3185	2.606	0	
0.4093	-22.7917	0.464636	0	
0.4100	-14.2546	-0.141411	0	
0.4107	-12.1203	-1.06058	0	
0.4113	-16.0773	1.68683	0	
0.4120	-14.8621	3.51508	0	
0.4127	-9.67442	-0.444435	0	
0.4133	-4.48669	-4.41405	0	
0.4140	-0.825675	-5.93927	0	
0.4147	-0.514099	-5.63624	0	
0.4153	-3.27154	-2.88883	0	
0.4160	-4.79826	-0.444435	0	
0.4167	-4.19069	-1.36361	0	
0.4173	-6.01341	-3.19185	0	
0.4180	-9.67442	-4.71707	0	
0.4187	-10.8896	-5.03019	0	
0.4193	-9.37842	-3.50498	0	
0.4200	-10.5936	-2.28278	0	
0.4207	-13.3354	-2.28278	0	
0.4213	-15.7813	-1.36361	0	
0.4220	-17.9156	-0.757559	0	
0.4227	-17.9156	-0.141411	0	
0.4233	-17.9156	1.38381	0	
0.4240	-20.0499	3.8282	0	
0.4247	-21.5766	5.65644	0	
0.4253	-22.1842	7.78771	0	
0.4260	-22.7917	9.62606	0	
0.4267	-20.969	7.78771	0	
0.4273	-19.7539	2.90903	0	
0.4280	-19.4423	1.68683	0	
0.4287	-9.98599	5.0403	0	
0.4293	1.62019	5.0403	0	
0.4300	-2.04082	2.30298	0	
0.4307	-13.943	1.68683	0	
0.4313	-18.8347	1.98986	0	
0.4320	-20.6574	1.68683	0	
0.4327	-21.8882	2.90903	0	
0.4333	-15.1737	1.38381	0	
0.4340	-3.27154	-2.88883	0	
0.4347	3.44291	-1.36361	0	
0.4353	4.05048	4.13122	0	
0.4360	4.96963	4.13122	0	
0.4367	11.9957	3.21205	0	
0.4373	19.9252	5.35342	0	
0.4380	22.3711	4.13122	0	
0.4387	19.6137	1.38381	0	
0.4393	12.2916	0.464636	0	
0.4400	-3.87911	-1.06058	0	
0.4407	-20.6574	-2.28278	0	
0.4413	-25.8452	0.464636	0	
0.4420	-21.5766	-0.757559	0	
0.4427	-18.5232	-4.71707	0	
0.4433	-16.0773	-3.19185	0	
0.4440	-11.2011	-1.06058	0	
0.4447	-11.5127	-4.11102	0	
0.4453	-19.1307	-4.41405	0	
0.4460	-16.0773	1.08078	0	
0.4467	4.96963	5.0403	0	
0.4473	19.6137	6.87864	0	
0.4480	11.0765	7.78771	0	
0.4487	-4.48669	7.78771	0	
0.4493	-10.5936	7.48469	0	
0.4500	-14.2546	5.95947	0	
0.4507	-18.5232	2.90903	0	
0.4513	-16.0773	1.68683	0	
0.4520	-12.4163	3.21205	0	
0.4527	-17.9156	1.98986	0	
0.4533	-18.2272	-0.444435	0	
0.4540	-4.19069	-2.88883	0	
0.4547	5.2812	-5.63624	0	
0.4553	2.22776	-3.50498	0	
0.4560	0.389469	1.38381	0	
0.4567	0.389469	0.76766	0	
0.4573	-2.95997	-1.36361	0	
0.4580	-4.19069	0.76766	0	
0.4587	-5.40583	1.38381	0	
0.4593	-8.45927	-1.36361	0	
0.4600	-6.93255	-2.28278	0	
0.4607	-3.87911	0.161613	0	
0.4613	-6.93255	1.38381	0	
0.4620	-11.2011	0.464636	0	
0.4627	-11.5127	0.76766	0	
0.4633	-13.943	2.606	0	
0.4640	-20.6574	3.21205	0	
0.4647	-24.3185	2.90903	0	
0.4653	-20.6574	6.87864	0	
0.4660	-17.308	9.31293	0	
0.4667	-16.3889	5.0403	0	
0.4673	-7.54012	1.68683	0	
0.4680	4.05048	0.464636	0	
0.4687	1.01262	-3.50498	0	
0.4693	-8.75527	-2.5858	0	
0.4700	-10.8896	3.21205	0	
0.4707	-11.5127	2.30298	0	
0.4713	-11.5127	-0.141411	0	
0.4720	-6.62098	1.98986	0	
0.4727	-4.79826	3.51508	0	
0.4733	-5.70183	7.18166	0	
0.4740	1.30862	14.8078	0	
0.4747	6.20035	15.1108	0	
0.4753	-3.27154	9.31293	0	
0.4760	-11.5127	6.57562	0	
0.4767	-7.8517	4.73727	0	
0.4773	-5.09426	-0.757559	0	
0.4780	-7.22855	-9.60585	0	
0.4787	-8.75527	-19.3733	0	
0.4793	-8.75527	-19.0602	0	
0.4800	-14.8621	-8.38366	0	
0.4807	-24.3185	-1.36361	0	
0.4813	-25.5492	0.464636	0	
0.4820	-21.5766	4.13122	0	
0.4827	-24.63	5.0403	0	
0.4833	-30.4253	1.98986	0	
0.4840	-27.9795	1.08078	0	
0.4847	-18.8347	1.38381	0	
0.4853	-9.67442	0.161613	0	
0.4860	-6.93255	0.76766	0	
0.4867	-13.3354	4.13122	0	
0.4873	-21.265	5.0403	0	
0.4880	-21.5766	5.0403	0	
0.4887	-18.8347	5.65644	0	
0.4893	-17.604	4.13122	0	
0.4900	-16.0773	3.51508	0	
0.4907	-16.3889	6.57562	0	
0.4913	-18.2272	8.70688	0	
0.4920	-18.8347	7.78771	0	
0.4927	-19.1307	6.57562	0	
0.4933	-19.7539	3.51508	0	
0.4940	-17.9156	-1.36361	0	
0.4947	-14.2546	-5.63624	0	
0.4953	-13.3354	-8.38366	0	
0.4960	-13.943	-8.68668	0	
0.4967	-10.5936	-5.93927	0	
0.4973	-6.01341	-2.28278	0	
0.4980	-5.09426	-0.444435	0	
0.4987	-6.93255	-0.444435	0	
0.4993	-9.67442	-0.141411	0	
0.5000	-11.8087	1.98986	0	
0.5007	-11.5127	1.98986	0	
0.5013	-13.0394	0.464636	0	
0.5020	-17.9156	0.76766	0	
0.5027	-19.4423	2.90903	0	
0.5033	-19.1307	2.30298	0	
0.5040	-22.7917	0.76766	0	
0.5047	-24.63	0.76766	0	
0.5053	-23.7109	1.38381	0	
0.5060	-26.7643	1.38381	0	
0.5067	-29.5062	1.38381	0	
0.5073	-27.0759	0.76766	0	
0.5080	-22.1842	-0.444435	0	
0.5087	-10.5936	1.38381	0	
0.5093	3.75448	5.95947	0	
0.5100	4.36206	6.26249	0	
0.5107	-6.93255	3.21205	0	
0.5113	-13.3354	4.13122	0	
0.5120	-11.2011	4.73727	0	
0.5127	-6.93255	3.21205	0	
0.5133	-1.43325	2.90903	0	
0.5140	2.83534	1.68683	0	
0.5147	4.36206	-0.444435	0	
0.5153	3.14691	0.161613	0	
0.5160	-0.218103	1.08078	0	
0.5167	-0.514099	2.30298	0	
0.5173	3.44291	6.87864	0	
0.5180	2.22776	6.26249	0	
0.5187	-6.01341	0.464636	0	
0.5193	-9.06684	1.38381	0	
0.5200	-8.45927	4.73727	0	
0.5207	-11.5127	3.51508	0	
0.5213	-16.3889	5.0403	0	
0.5220	-18.5232	6.87864	0	
0.5227	-19.7539	1.38381	0	
0.5233	-20.3615	-0.757559	0	
0.5240	-19.7539	2.606	0	
0.5247	-19.7539	2.30298	0	
0.5253	-13.3354	1.08078	0	
0.5260	-3.87911	3.21205	0	
0.5267	0.389469	1.38381	0	
0.5273	-0.825675	-1.66663	0	
0.5280	-2.35239	1.68683	0	
0.5287	0.0934726	6.87864	0	
0.5293	8.63064	7.78771	0	
0.5300	10.4689	8.10084	0	
0.5307	-8.1477	9.00991	0	
0.5313	-27.9795	5.0403	0	
0.5320	-28.8986	0.161613	0	
0.5327	-22.7917	-1.36361	0	
0.5333	-17.308	-0.757559	0	
0.5340	-9.37842	-0.444435	0	
0.5347	-8.1477	-0.757559	0	
0.5353	-11.8087	-0.444435	0	
0.5360	-10.5936	2.30298	0	
0.5367	-13.0394	2.30298	0	
0.5373	-18.8347	0.464636	0	
0.5380	-9.67442	0.464636	0	
0.5387	2.83534	-0.444435	0	
0.5393	0.389469	-1.96965	0	
0.5400	-3.87911	0.76766	0	
0.5407	1.30862	4.13122	0	
0.5413	3.14691	1.98986	0	
0.5420	-2.35239	-0.141411	0	
0.5427	-6.01341	0.464636	0	
0.5433	-6.32498	0.76766	0	
0.5440	-6.62098	1.38381	0	
0.5447	-9.06684	1.68683	0	
0.5453	-13.0394	0.76766	0	
0.5460	-14.2546	0.76766	0	
0.5467	-14.8621	1.68683	0	
0.5473	-16.3889	2.30298	0	
0.5480	-15.1737	3.21205	0	
0.5487	-12.4163	4.13122	0	
0.5493	-10.282	1.98986	0	
0.5500	-4.79826	1.38381	0	
0.5507	1.01262	3.21205	0	
0.5513	-1.43325	4.13122	0	
0.5520	-5.40583	0.76766	0	
0.5527	-2.35239	-2.5858	0	
0.5533	4.05048	-1.66663	0	
0.5540	7.41549	1.38381	0	
0.5547	10.1574	1.08078	0	
0.5553	13.5224	-0.444435	0	
0.5560	14.1299	1.08078	0	
0.5567	11.3881	1.38381	0	
0.5573	8.02307	-1.66663	0	
0.5580	3.14691	-3.19185	0	
0.5587	-5.09426	-1.66663	0	
0.5593	-10.8896	4.13122	0	
0.5600	-13.3354	8.10084	0	
0.5607	-18.5232	5.95947	0	
0.5613	-24.3185	4.13122	0	
0.5620	-23.4149	6.87864	0	
0.5627	-20.969	5.35342	0	
0.5633	-22.4957	-1.96965	0	
0.5640	-23.7109	-6.55541	0	
0.5647	-23.4149	-7.76751	0	
0.5653	-22.1842	-6.24229	0	
0.5660	-16.9964	-1.06058	0	
0.5667	-13.3354	3.8282	0	
0.5673	-13.943	1.68683	0	
0.5680	-10.5936	-1.36361	0	
0.5687	-4.48669	-0.757559	0	
0.5693	-3.27154	0.464636	0	
0.5700	-6.62098	-1.06058	0	
0.5707	-10.5936	-4.41405	0	
0.5713	-13.0394	-6.85844	0	
0.5720	-10.5936	-7.76751	0	
0.5727	-7.8517	-7.46449	0	
0.5733	-6.01341	-4.41405	0	
0.5740	-3.27154	-1.66663	0	
0.5747	-4.48669	-1.36361	0	
0.5753	-5.09426	-0.141411	0	
0.5760	5.88878	3.8282	0	
0.5767	14.7375	5.0403	0	
0.5773	5.2812	4.43425	0	
0.5780	-7.22855	4.13122	0	
0.5787	-9.98599	1.98986	0	
0.5793	-10.282	0.161613	0	
0.5800	-12.1203	2.30298	0	
0.5807	-12.4163	3.21205	0	
0.5813	-13.0394	1.98986	0	
0.5820	-16.0773	1.68683	0	
0.5827	-17.604	1.38381	0	
0.5833	-18.5232	-0.757559	0	
0.5840	-25.5492	-3.50498	0	
0.5847	-29.8178	-7.76751	0	
0.5853	-18.2272	-6.85844	0	
0.5860	-6.93255	0.76766	0	
0.5867	-11.5127	2.90903	0	
0.5873	-16.3889	0.161613	0	
0.5880	-8.45927	3.21205	0	
0.5887	-0.514099	5.0403	0	
0.5893	-6.32498	-0.141411	0	
0.5900	-17.9156	1.38381	0	
0.5907	-21.5766	8.70688	0	
0.5913	-19.4423	7.48469	0	
0.5920	-20.6574	1.38381	0	
0.5927	-16.7004	-0.757559	0	
0.5933	-2.66397	-4.11102	0	
0.5940	4.67363	-8.68668	0	
0.5947	-0.825675	-7.16146	0	
0.5953	-5.70183	-2.28278	0	
0.5960	-11.5127	-1.36361	0	
0.5967	-24.3185	-3.50498	0	
0.5973	-30.7369	-4.41405	0	
0.5980	-25.2376	-4.41405	0	
0.5987	-19.7539	-5.03019	0	
0.5993	-19.1307	-2.5858	0	
0.6000	-20.0499	1.38381	0	
0.6007	-20.6574	2.606	0	
0.6013	-19.7539	2.30298	0	
0.6020	-16.9964	2.606	0	
0.6027	-17.9156	2.30298	0	
0.6033	-22.4957	3.51508	0	
0.6040	-25.8452	6.87864	0	
0.6047	-25.2376	3.8282	0	
0.6053	-23.4149	-0.141411	0	
0.6060	-20.969	2.606	0	
0.6067	-17.9156	4.73727	0	
0.6073	-15.1737	2.90903	0	
0.6080	-16.3889	3.8282	0	
0.6087	-19.1307	4.13122	0	
0.6093	-16.0773	-1.06058	0	
0.6100	-11.8087	-2.28278	0	
0.6107	-16.3889	2.90903	0	
0.6113	-22.4957	5.35342	0	
0.6120	-20.6574	3.21205	0	
0.6127	-17.604	1.38381	0	
0.6133	-17.308	2.30298	0	
0.6140	-14.2546	3.21205	0	
0.6147	-11.5127	2.30298	0	
0.6153	-13.647	2.606	0	
0.6160	-18.8347	4.13122	0	
0.6167	-22.4957	1.98986	0	
0.6173	-21.5766	-1.36361	0	
0.6180	-17.9156	1.08078	0	
0.6187	-17.604	5.0403	0	
0.6193	-18.8347	4.13122	0	
0.6200	-20.6574	1.98986	0	
0.6207	-24.9416	2.30298	0	
0.6213	-22.1842	4.13122	0	
0.6220	-8.1477	4.13122	0	
0.6227	0.701045	1.38381	0	
0.6233	1.91619	0.464636	0	
0.6240	4.05048	4.43425	0	
0.6247	3.75448	6.57562	0	
0.6253	0.389469	3.51508	0	
0.6260	0.389469	2.30298	0	
0.6267	-0.218103	3.21205	0	
0.6273	-2.95997	2.30298	0	
0.6280	-6.01341	2.90903	0	
0.6287	-14.8621	5.0403	0	
0.6293	-27.0759	4.43425	0	
0.6300	-29.2102	1.08078	0	
0.6307	-22.4957	0.76766	0	
0.6313	-14.2546	2.90903	0	
0.6320	-7.8517	2.30298	0	
0.6327	-4.79826	0.464636	0	
0.6333	-1.74482	1.38381	0	
0.6340	2.22776	0.76766	0	
0.6347	4.96963	-2.5858	0	
0.6353	4.96963	-2.28278	0	
0.6360	3.44291	0.464636	0	
0.6367	3.44291	-0.444435	0	
0.6373	5.88878	-1.36361	0	
0.6380	4.96963	3.21205	0	
0.6387	1.30862	8.10084	0	
0.6393	1.91619	7.18166	0	
0.6400	2.22776	4.73727	0	
0.6407	-2.95997	3.21205	0	
0.6413	-3.56754	0.76766	0	
0.6420	-0.514099	-0.444435	0	
0.6427	-4.19069	3.21205	0	
0.6433	-12.4163	5.35342	0	
0.6440	-15.7813	3.8282	0	
0.6447	-14.5662	2.90903	0	
0.6453	-13.3354	3.21205	0	
0.6460	-14.5662	1.68683	0	
0.6467	-14.5662	0.76766	0	
0.6473	-13.0394	2.30298	0	
0.6480	-16.0773	2.90903	0	
0.6487	-21.5766	1.38381	0	
0.6493	-20.0499	2.30298	0	
0.6500	-14.8621	4.13122	0	
0.6507	-12.1203	2.90903	0	
0.6513	-10.282	2.30298	0	
0.6520	-11.2011	2.606	0	
0.6527	-13.0394	1.08078	0	
0.6533	-6.93255	0.161613	0	
0.6540	3.44291	1.98986	0	
0.6547	8.63064	1.08078	0	
0.6553	9.86136	-1.66663	0	
0.6560	4.67363	-2.28278	0	
0.6567	-2.66397	-1.36361	0	
0.6573	3.75448	1.08078	0	
0.6580	16.5758	4.43425	0	
0.6587	12.8992	3.8282	0	
0.6593	1.30862	0.464636	0	
0.6600	-2.66397	-1.36361	0	
0.6607	-6.32498	-1.36361	0	
0.6613	-6.62098	0.464636	0	
0.6620	3.14691	4.13122	0	
0.6627	5.2812	5.95947	0	
0.6633	-8.75527	5.35342	0	
0.6640	-22.7917	4.13122	0	
0.6647	-28.8986	3.21205	0	
0.6653	-30.7369	6.87864	0	
0.6660	-27.3719	7.78771	0	
0.6667	-21.5766	-0.141411	0	
0.6673	-21.5766	-4.11102	0	
0.6680	-25.5492	-1.06058	0	
0.6687	-25.5492	-2.5858	0	
0.6693	-23.1033	-7.16146	0	
0.6700	-20.6574	-4.11102	0	
0.6707	-17.9156	-0.757559	0	
0.6713	-13.943	-1.36361	0	
0.6720	-11.5127	1.38381	0	
0.6727	-11.5127	2.30298	0	
0.6733	-12.4163	-1.36361	0	
0.6740	-14.8621	-3.19185	0	
0.6747	-15.1737	-0.757559	0	
0.6753	-10.5936	1.38381	0	
0.6760	-6.93255	3.21205	0	
0.6767	-7.54012	3.21205	0	
0.6773	-8.75527	-0.444435	0	
0.6780	-9.06684	-3.19185	0	
0.6787	-13.0394	-2.28278	0	
0.6793	-14.8621	-1.66663	0	
0.6800	-11.5127	-1.66663	0	
0.6807	-10.5936	2.90903	0	
0.6813	-10.5936	8.40386	0	
0.6820	-9.67442	5.95947	0	
0.6827	-9.67442	0.76766	0	
0.6833	-6.93255	0.464636	0	
0.6840	-1.13725	1.98986	0	
0.6847	-2.95997	3.51508	0	
0.6853	-9.06684	5.95947	0	
0.6860	-13.3354	6.57562	0	
0.6867	-21.8882	4.13122	0	
0.6873	-28.8986	0.464636	0	
0.6880	-19.7539	-2.88883	0	
0.6887	-6.93255	-2.28278	0	
0.6893	-7.22855	2.606	0	
0.6900	-11.2011	5.0403	0	
0.6907	-11.2011	0.464636	0	
0.6913	-12.4163	-2.5858	0	
0.6920	-12.4163	-2.28278	0	
0.6927	-7.8517	-1.66663	0	
0.6933	-2.66397	-1.66663	0	
0.6940	-0.514099	-1.36361	0	
0.6947	-1.43325	-1.36361	0	
0.6953	-2.04082	-0.141411	0	
0.6960	0.389469	4.73727	0	
0.6967	1.62019	6.26249	0	
0.6973	-0.514099	-1.36361	0	
0.6980	-3.56754	-9.90888	0	
0.6987	-3.56754	-9.30283	0	
0.6993	-1.43325	-2.5858	0	
0.7000	-4.48669	0.161613	0	
0.7007	-11.8087	-0.444435	0	
0.7013	-13.647	-0.444435	0	
0.7020	-15.4697	0.76766	0	
0.7027	-23.4149	1.38381	0	
0.7033	-19.1307	0.161613	0	
0.7040	0.0934726	-1.36361	0	
0.7047	8.63064	1.38381	0	
0.7053	2.83534	4.13122	0	
0.7060	-0.825675	2.606	0	
0.7067	-0.218103	1.38381	0	
0.7073	-0.514099	4.13122	0	
0.7080	-4.19069	5.0403	0	
0.7087	-13.3354	2.30298	0	
0.7093	-21.5766	1.98986	0	
0.7100	-17.9156	1.38381	0	
0.7107	-7.8517	-1.66663	0	
0.7113	-4.19069	-0.444435	0	
0.7120	-6.32498	4.73727	0	
0.7127	-6.93255	5.65644	0	
0.7133	-6.93255	3.21205	0	
0.7140	-10.8896	2.30298	0	
0.7147	-14.5662	2.30298	0	
0.7153	-11.8087	3.21205	0	
0.7160	-12.1203	4.13122	0	
0.7167	-18.5232	2.30298	0	
0.7173	-20.3615	1.38381	0	
0.7180	-16.9964	3.21205	0	
0.7187	-17.9156	3.8282	0	
0.7193	-20.6574	1.38381	0	
0.7200	-20.6574	0.161613	0	
0.7207	-20.3615	-1.36361	0	
0.7213	-19.4423	-2.88883	0	
0.7220	-19.7539	-1.96965	0	
0.7227	-24.63	0.161613	0	
0.7233	-27.0759	0.464636	0	
0.7240	-22.4957	0.464636	0	
0.7247	-22.4957	1.38381	0	
0.7253	-24.3185	2.90903	0	
0.7260	-10.8896	3.21205	0	
0.7267	6.20035	3.21205	0	
0.7273	4.67363	3.21205	0	
0.7280	-6.93255	1.38381	0	
0.7287	-9.98599	-1.36361	0	
0.7293	-9.37842	-0.444435	0	
0.7300	-10.5936	3.21205	0	
0.7307	-11.5127	2.90903	0	
0.7313	-13.3354	0.76766	0	
0.7320	-13.0394	1.98986	0	
0.7327	-5.09426	5.35342	0	
0.7333	4.67363	5.35342	0	
0.7340	6.20035	2.30298	0	
0.7347	3.14691	-0.444435	0	
0.7353	1.62019	-0.444435	0	
0.7360	2.22776	1.68683	0	
0.7367	3.14691	1.68683	0	
0.7373	2.83534	0.464636	0	
0.7380	3.44291	1.38381	0	
0.7387	4.05048	2.30298	0	
0.7393	1.30862	1.68683	0	
0.7400	-3.87911	3.21205	0	
0.7407	-6.93255	3.8282	0	
0.7413	-10.8896	1.08078	0	
0.7420	-16.3889	0.76766	0	
0.7427	-17.9156	3.21205	0	
0.7433	-17.604	2.30298	0	
0.7440	-17.604	0.464636	0	
0.7447	-16.9964	1.38381	0	
0.7453	-21.8882	0.161613	0	
0.7460	-24.3185	-2.88883	0	
0.7467	-10.8896	-1.66663	0	
0.7473	1.30862	3.21205	0	
0.7480	-4.48669	5.65644	0	
0.7487	-12.7279	5.0403	0	
0.7493	-13.3354	1.38381	0	
0.7500	-12.7279	-3.19185	0	
0.7507	-8.1477	-4.11102	0	
0.7513	-4.19069	-1.06058	0	
0.7520	-7.54012	-0.757559	0	
0.7527	-6.93255	-3.19185	0	
0.7533	2.22776	-2.5858	0	
0.7540	8.63064	0.464636	0	
0.7547	8.94221	3.8282	0	
0.7553	7.10392	4.73727	0	
0.7560	3.44291	0.464636	0	
0.7567	0.389469	-3.50498	0	
0.7573	-3.56754	-2.28278	0	
0.7580	-5.70183	-0.757559	0	
0.7587	-2.35239	-2.28278	0	
0.7593	1.30862	-1.36361	0	
0.7600	1.30862	-0.444435	0	
0.7607	1.01262	-2.28278	0	
0.7613	-3.27154	0.161613	0	
0.7620	-10.5936	4.43425	0	
0.7627	-11.5127	3.21205	0	
0.7633	-9.98599	3.8282	0	
0.7640	-11.8087	7.78771	0	
0.7647	-13.647	4.43425	0	
0.7653	-17.604	-2.28278	0	
0.7660	-26.4683	-3.19185	0	
0.7667	-33.4788	-0.444435	0	
0.7673	-32.2636	1.38381	0	
0.7680	-24.9416	2.90903	0	
0.7687	-19.7539	3.21205	0	
0.7693	-21.265	3.21205	0	
0.7700	-20.3615	4.13122	0	
0.7707	-11.5127	3.8282	0	
0.7713	-5.70183	0.464636	0	
0.7720	-6.93255	-1.36361	0	
0.7727	-8.75527	0.161613	0	
0.7733	-11.2011	0.464636	0	
0.7740	-11.5127	-2.5858	0	
0.7747	-8.75527	-2.88883	0	
0.7753	-6.93255	0.76766	0	
0.7760	-6.93255	1.98986	0	
0.7767	-4.48669	1.38381	0	
0.7773	-5.09426	2.30298	0	
0.7780	-13.647	4.13122	0	
0.7787	-14.8621	4.43425	0	
0.7793	-2.66397	4.13122	0	
0.7800	1.30862	2.30298	0	
0.7807	-11.5127	2.30298	0	
0.7813	-19.7539	3.21205	0	
0.7820	-16.7004	0.76766	0	
0.7827	-15.7813	-2.5858	0	
0.7833	-16.9964	-5.33322	0	
0.7840	-18.2272	-8.08063	0	
0.7847	-24.0225	-6.85844	0	
0.7853	-26.1568	-2.28278	0	
0.7860	-20.6574	0.464636	0	
0.7867	-17.604	0.76766	0	
0.7873	-17.9156	2.90903	0	
0.7880	-14.5662	5.0403	0	
0.7887	-12.7279	5.95947	0	
0.7893	-13.0394	5.0403	0	
0.7900	-9.37842	3.51508	0	
0.7907	-4.79826	3.21205	0	
0.7913	-3.87911	2.90903	0	
0.7920	-5.09426	-1.66663	0	
0.7927	-7.8517	-8.68668	0	
0.7933	-9.67442	-10.5149	0	
0.7940	-7.8517	-4.11102	0	
0.7947	-4.19069	1.08078	0	
0.7953	-2.66397	1.38381	0	
0.7960	-4.19069	1.08078	0	
0.7967	-6.01341	0.76766	0	
0.7973	-7.54012	0.76766	0	
0.7980	-8.75527	2.30298	0	
0.7987	-6.62098	0.464636	0	
0.7993	-5.70183	-4.41405	0	
0.8000	-11.2011	-3.19185	0	
0.8007	-14.2546	-0.444435	0	
0.8013	-13.943	-3.19185	0	
0.8020	-18.8347	-2.28278	0	
0.8027	-11.5127	4.43425	0	
0.8033	12.6032	6.87864	0	
0.8040	21.452	6.26249	0	
0.8047	10.1574	7.18166	0	
0.8053	4.96963	7.48469	0	
0.8060	3.44291	6.57562	0	
0.8067	-4.48669	5.0403	0	
0.8073	-8.75527	3.8282	0	
0.8080	-13.3354	5.95947	0	
0.8087	-26.4683	8.40386	0	
0.8093	-38.3549	5.95947	0	
0.8100	-41.7199	3.21205	0	
0.8107	-36.2206	1.68683	0	
0.8113	-23.7109	-1.36361	0	
0.8120	-12.1203	-0.141411	0	
0.8127	-4.19069	2.90903	0	
0.8133	3.14691	0.464636	0	
0.8140	2.22776	-1.36361	0	
0.8147	-3.56754	1.08078	0	
0.8153	1.30862	3.21205	0	
0.8160	11.9957	3.8282	0	
0.8167	11.0765	3.21205	0	
0.8173	2.52376	1.38381	0	
0.8180	0.0934726	1.38381	0	
0.8187	1.01262	1.38381	0	
0.8193	-0.514099	-1.66663	0	
0.8200	-0.514099	0.464636	0	
0.8207	1.30862	5.95947	0	
0.8213	-2.35239	5.0403	0	
0.8220	-8.75527	2.30298	0	
0.8227	-9.37842	4.43425	0	
0.8233	-5.40583	3.51508	0	
0.8240	-5.40583	0.161613	0	
0.8247	-7.8517	1.08078	0	
0.8253	-8.1477	1.68683	0	
0.8260	-4.19069	0.464636	0	
0.8267	0.701045	3.21205	0	
0.8273	0.389469	5.95947	0	
0.8280	-6.62098	3.51508	0	
0.8287	-12.4163	3.51508	0	
0.8293	-12.7279	4.73727	0	
0.8300	-13.3354	0.76766	0	
0.8307	-18.5232	-0.444435	0	
0.8313	-17.9156	4.13122	0	
0.8320	-6.01341	3.51508	0	
0.8327	2.83534	-0.444435	0	
0.8333	2.22776	0.464636	0	
0.8340	6.20035	1.98986	0	
0.8347	14.1299	0.161613	0	
0.8353	13.2108	0.464636	0	
0.8360	7.71149	-0.141411	0	
0.8367	6.49635	-2.5858	0	
0.8373	5.5772	-2.28278	0	
0.8380	4.05048	-0.141411	0	
0.8387	2.52376	2.606	0	
0.8393	-3.27154	6.26249	0	
0.8400	-9.67442	4.73727	0	
0.8407	-12.7279	-2.28278	0	
0.8413	-16.9964	-2.5858	0	
0.8420	-20.6574	0.464636	0	
0.8427	-16.9964	0.161613	0	
0.8433	-15.4697	1.08078	0	
0.8440	-17.9156	2.30298	0	
0.8447	-14.8621	-1.66663	0	
0.8453	-8.45927	-2.5858	0	
0.8460	-9.67442	1.08078	0	
0.8467	-13.943	-0.444435	0	
0.8473	-12.1203	-3.19185	0	
0.8480	-7.8517	0.161613	0	
0.8487	-8.1477	1.08078	0	
0.8493	-9.37842	-2.28278	0	
0.8500	-6.93255	-0.757559	0	
0.8507	-6.32498	1.38381	0	
0.8513	-7.8517	-0.444435	0	
0.8520	-6.93255	0.76766	0	
0.8527	-5.09426	4.43425	0	
0.8533	-3.87911	3.21205	0	
0.8540	-2.66397	0.161613	0	
0.8547	-2.04082	-0.141411	0	
0.8553	2.52376	1.68683	0	
0.8560	10.7649	3.21205	0	
0.8567	11.3881	2.606	0	
0.8573	3.75448	-1.06058	0	
0.8580	-1.43325	-4.11102	0	
0.8587	-2.95997	-2.28278	0	
0.8593	-3.87911	1.38381	0	
0.8600	-2.35239	1.98986	0	
0.8607	0.0934726	4.13122	0	
0.8613	-0.514099	8.10084	0	
0.8620	-2.95997	5.35342	0	
0.8627	-5.40583	-1.36361	0	
0.8633	-7.8517	-0.757559	0	
0.8640	-11.5127	4.43425	0	
0.8647	-15.1737	5.95947	0	
0.8653	-15.7813	5.65644	0	
0.8660	-15.7813	4.73727	0	
0.8667	-16.3889	1.68683	0	
0.8673	-12.7279	-0.444435	0	
0.8680	-10.282	-1.96965	0	
0.8687	-14.2546	-2.5858	0	
0.8693	-10.8896	0.464636	0	
0.8700	0.0934726	2.30298	0	
0.8707	2.22776	-1.36361	0	
0.8713	-3.27154	-5.33322	0	
0.8720	-6.01341	-5.03019	0	
0.8727	-5.09426	-3.19185	0	
0.8733	4.36206	-0.141411	0	
0.8740	19.6137	4.13122	0	
0.8747	20.5328	5.35342	0	
0.8753	5.88878	5.35342	0	
0.8760	-2.04082	5.0403	0	
0.8767	0.701045	2.30298	0	
0.8773	1.30862	-0.141411	0	
0.8780	-2.95997	1.08078	0	
0.8787	-5.09426	0.464636	0	
0.8793	-7.8517	-2.5858	0	
0.8800	-14.8621	-2.88883	0	
0.8807	-17.604	0.464636	0	
0.8813	-9.67442	2.30298	0	
0.8820	-4.19069	3.8282	0	
0.8827	-7.54012	5.0403	0	
0.8833	-13.3354	5.0403	0	
0.8840	-17.308	5.0403	0	
0.8847	-19.1307	4.43425	0	
0.8853	-16.3889	1.98986	0	
0.8860	-16.0773	3.21205	0	
0.8867	-27.0759	6.87864	0	
0.8873	-40.8008	6.57562	0	
0.8880	-42.9351	5.65644	0	
0.8887	-35.9246	8.70688	0	
0.8893	-27.3719	9.31293	0	
0.8900	-21.5766	4.13122	0	
0.8907	-20.969	1.68683	0	
0.8913	-24.3185	2.90903	0	
0.8920	-27.0759	-0.444435	0	
0.8927	-26.1568	-8.68668	0	
0.8933	-23.1033	-11.7371	0	
0.8940	-19.1307	-6.85844	0	
0.8947	-15.7813	-2.28278	0	
0.8953	-16.9964	-3.19185	0	
0.8960	-17.9156	-5.33322	0	
0.8967	-10.5936	-5.03019	0	
0.8973	-2.35239	-1.06058	0	
0.8980	-4.19069	5.0403	0	
0.8987	-2.95997	5.65644	0	
0.8993	7.71149	1.68683	0	
0.9000	5.5772	2.30298	0	
0.9007	-9.37842	5.95947	0	
0.9013	-14.8621	7.78771	0	
0.9020	-21.8882	6.26249	0	
0.9027	-40.1932	2.30298	0	
0.9033	-41.7199	-1.36361	0	
0.9040	-25.5492	-0.757559	0	
0.9047	-23.4149	-1.36361	0	
0.9053	-34.3979	-3.808	0	
0.9060	-35.3171	-5.33322	0	
0.9067	-30.1293	-4.11102	0	
0.9073	-27.9795	-2.28278	0	
0.9080	-26.4683	0.76766	0	
0.9087	-25.2376	1.38381	0	
0.9093	-24.3185	-1.96965	0	
0.9100	-21.5766	-3.19185	0	
0.9107	-16.0773	-0.444435	0	
0.9113	-11.5127	2.30298	0	
0.9120	-10.5936	0.76766	0	
0.9127	-9.67442	-1.36361	0	
0.9133	-6.93255	-0.757559	0	
0.9140	-5.40583	1.38381	0	
0.9147	-6.93255	1.38381	0	
0.9153	-7.22855	-0.757559	0	
0.9160	-8.45927	-2.28278	0	
0.9167	-13.0394	-3.19185	0	
0.9173	-16.0773	-3.19185	0	
0.9180	-14.8621	-2.28278	0	
0.9187	-14.8621	-1.36361	0	
0.9193	-16.0773	-0.141411	0	
0.9200	-15.1737	0.464636	0	
0.9207	-15.1737	1.38381	0	
0.9213	-17.604	1.38381	0	
0.9220	-20.6574	0.161613	0	
0.9227	-23.1033	-0.444435	0	
0.9233	-24.63	2.90903	0	
0.9240	-25.5492	6.57562	0	
0.9247	-26.7643	6.26249	0	
0.9253	-26.7643	5.0403	0	
0.9260	-23.4149	2.606	0	
0.9267	-18.5232	-3.19185	0	
0.9273	-14.8621	-5.93927	0	
0.9280	-13.943	-1.36361	0	
0.9287	-13.943	0.161613	0	
0.9293	-12.7279	-1.36361	0	
0.9300	-12.1203	1.68683	0	
0.9307	-13.0394	5.35342	0	
0.9313	-12.1203	3.21205	0	
0.9320	-10.8896	-1.06058	0	
0.9327	-10.5936	-2.28278	0	
0.9333	-6.93255	-2.28278	0	
0.9340	-2.95997	-1.66663	0	
0.9347	-3.56754	-1.36361	0	
0.9353	-2.04082	-0.444435	0	
0.9360	1.30862	0.464636	0	
0.9367	-0.514099	-0.444435	0	
0.9373	-4.48669	-2.5858	0	
0.9380	-6.93255	-1.36361	0	
0.9387	-9.67442	2.30298	0	
0.9393	-15.1737	2.30298	0	
0.9400	-19.4423	0.464636	0	
0.9407	-17.308	1.68683	0	
0.9413	-11.2011	4.43425	0	
0.9420	-8.75527	4.43425	0	
0.9427	-6.62098	2.90903	0	
0.9433	-3.56754	2.90903	0	
0.9440	-9.06684	2.606	0	
0.9447	-13.943	2.30298	0	
0.9453	-4.19069	4.13122	0	
0.9460	6.80792	6.26249	0	
0.9467	4.96963	7.78771	0	
0.9473	-2.35239	9.62606	0	
0.9480	-6.01341	7.18166	0	
0.9487	-3.27154	1.38381	0	
0.9493	-0.825675	1.98986	0	
0.9500	-2.04082	5.0403	0	
0.9507	0.389469	2.30298	0	
0.9513	4.67363	0.464636	0	
0.9520	2.83534	3.21205	0	
0.9527	1.30862	1.08078	0	
0.9533	3.75448	-4.41405	0	
0.9540	1.30862	-5.03019	0	
0.9547	-3.56754	-1.36361	0	
0.9553	-3.27154	2.606	0	
0.9560	1.01262	4.43425	0	
0.9567	5.88878	4.73727	0	
0.9573	5.5772	4.13122	0	
0.9580	-4.19069	1.38381	0	
0.9587	-13.647	0.76766	0	
0.9593	-14.5662	5.0403	0	
0.9600	-11.8087	5.95947	0	
0.9607	-13.3354	0.464636	0	
0.9613	-17.9156	-1.06058	0	
0.9620	-20.6574	1.38381	0	
0.9627	-21.8882	0.76766	0	
0.9633	-24.63	2.30298	0	
0.9640	-27.0759	6.57562	0	
0.9647	-25.5492	5.95947	0	
0.9653	-24.3185	3.21205	0	
0.9660	-25.5492	4.13122	0	
0.9667	-24.9416	5.65644	0	
0.9673	-24.3185	5.0403	0	
0.9680	-25.5492	5.65644	0	
0.9687	-23.7109	5.95947	0	
0.9693	-21.265	4.73727	0	
0.9700	-21.5766	4.13122	0	
0.9707	-18.5232	5.95947	0	
0.9713	-14.8621	5.95947	0	
0.9720	-16.0773	2.30298	0	
0.9727	-14.2546	-0.444435	0	
0.9733	-6.32498	0.464636	0	
0.9740	-1.13725	0.76766	0	
0.9747	0.389469	-1.06058	0	
0.9753	1.30862	-1.06058	0	
0.9760	0.389469	-0.141411	0	
0.9767	-1.43325	-0.444435	0	
0.9773	-6.01341	0.161613	0	
0.9780	-13.0394	2.90903	0	
0.9787	-16.9964	5.0403	0	
0.9793	-17.308	4.73727	0	
0.9800	-20.6574	1.38381	0	
0.9807	-24.63	-3.19185	0	
0.9813	-27.6835	-5.63624	0	
0.9820	-31.0329	-4.11102	0	
0.9827	-31.9521	-2.28278	0	
0.9833	-30.7369	-0.141411	0	
0.9840	-31.0329	2.606	0	
0.9847	-30.7369	2.606	0	
0.9853	-28.291	2.30298	0	
0.9860	-26.7643	2.30298	0	
0.9867	-22.4957	0.464636	0	
0.9873	-16.7004	2.30298	0	
0.9880	-16.0773	6.57562	0	
0.9887	-17.9156	-0.141411	0	
0.9893	-16.9964	-9.90888	0	
0.9900	-16.7004	-6.85844	0	
0.9907	-17.604	-0.444435	0	
0.9913	-14.8621	-1.36361	0	
0.9920	-9.06684	-2.5858	0	
0.9927	-4.19069	-2.28278	0	
0.9933	0.0934726	-4.11102	0	
0.9940	1.30862	-5.03019	0	
0.9947	-0.514099	-2.28278	0	
0.9953	-3.56754	-1.36361	0	
0.9960	-5.09426	-2.28278	0	
0.9967	-4.48669	-3.50498	0	
0.9973	-3.87911	-2.28278	0	
0.9980	-3.87911	-0.141411	0	
0.9987	-3.27154	-1.06058	0	
0.9993	-2.35239	-1.36361	0	
1.0000	-4.19069	-0.141411	0	
1.0007	-6.32498	0.464636	0	
1.0013	-7.8517	0.464636	0	
1.0020	-14.2546	1.38381	0	
1.0027	-20.6574	2.606	0	
1.0033	-20.3615	4.13122	0	
1.0040	-18.2272	3.21205	0	
1.0047	-20.969	0.464636	0	
1.0053	-17.9156	1.38381	0	
1.0060	-3.87911	6.26249	0	
1.0067	7.41549	9.92908	0	
1.0073	5.88878	10.8483	0	
1.0080	-0.825675	7.78771	0	
1.0087	-6.01341	5.0403	0	
1.0093	-11.2011	5.65644	0	
1.0100	-20.6574	6.26249	0	
1.0107	-27.0759	7.78771	0	
1.0113	-24.9416	11.7573	0	
1.0120	-16.0773	9.62606	0	
1.0127	-5.09426	1.98986	0	
1.0133	7.10392	-2.28278	0	
1.0140	10.4689	-7.46449	0	
1.0147	1.30862	-15.1007	0	
1.0153	-6.93255	-14.4845	0	
1.0160	-3.27154	-6.55541	0	
1.0167	-0.514099	-1.96965	0	
1.0173	-5.09426	-0.444435	0	
1.0180	-8.75527	-1.06058	0	
1.0187	-9.06684	-3.808	0	
1.0193	-9.98599	-3.19185	0	
1.0200	-9.67442	-0.444435	0	
1.0207	-9.06684	-0.141411	0	
1.0213	-10.5936	-1.36361	0	
1.0220	-13.3354	-0.141411	0	
1.0227	-16.3889	1.38381	0	
1.0233	-21.5766	-0.141411	0	
1.0240	-26.1568	-1.66663	0	
1.0247	-27.0759	1.38381	0	
1.0253	-26.4683	5.95947	0	
1.0260	-25.8452	4.13122	0	
1.0267	-25.5492	1.38381	0	
1.0273	-26.1568	5.65644	0	
1.0280	-24.3185	8.70688	0	
1.0287	-20.6574	5.95947	0	
1.0293	-20.0499	4.73727	0	
1.0300	-20.969	6.26249	0	
1.0307	-18.5232	3.21205	0	
1.0313	-15.1737	-0.444435	0	
1.0320	-13.943	-0.444435	0	
1.0327	-11.5127	-2.28278	0	
1.0333	-9.37842	-1.66663	0	
1.0340	-10.5936	3.21205	0	
1.0347	-11.2011	4.13122	0	
1.0353	-9.98599	1.38381	0	
1.0360	-9.98599	3.21205	0	
1.0367	-10.5936	4.73727	0	
1.0373	-9.37842	2.606	0	
1.0380	-6.93255	1.68683	0	
1.0387	-4.19069	1.38381	0	
1.0393	-3.27154	1.08078	0	
1.0400	-2.95997	3.21205	0	
1.0407	-2.95997	3.51508	0	
1.0413	-4.79826	1.38381	0	
1.0420	-8.1477	2.30298	0	
1.0427	-11.5127	2.606	0	
1.0433	-14.5662	1.08078	0	
1.0440	-16.9964	3.21205	0	
1.0447	-15.1737	5.95947	0	
1.0453	-12.1203	3.21205	0	
1.0460	-12.1203	0.464636	0	
1.0467	-10.5936	0.76766	0	
1.0473	-6.32498	2.30298	0	
1.0480	-5.09426	5.0403	0	
1.0487	-4.19069	5.95947	0	
1.0493	-0.218103	3.21205	0	
1.0500	1.62019	4.13122	0	
1.0507	-1.13725	7.48469	0	
1.0513	-2.95997	4.43425	0	
1.0520	-1.74482	-1.36361	0	
1.0527	-0.514099	-1.36361	0	
1.0533	0.389469	1.38381	0	
1.0540	3.75448	3.8282	0	
1.0547	6.80792	9.62606	0	
1.0553	7.41549	13.2825	0	
1.0560	4.96963	9.62606	0	
1.0567	4.05048	5.0403	0	
1.0573	5.5772	3.51508	0	
1.0580	4.96963	3.21205	0	
1.0587	0.0934726	4.13122	0	
1.0593	-2.04082	4.13122	0	
1.0600	0.701045	-1.36361	0	
1.0607	-1.43325	-5.93927	0	
1.0613	-7.8517	-5.93927	0	
1.0620	-6.93255	-5.93927	0	
1.0627	-1.43325	-7.16146	0	
1.0633	-3.27154	-5.93927	0	
1.0640	-8.75527	-3.50498	0	
1.0647	-13.0394	-1.36361	0	
1.0653	-18.5232	1.98986	0	
1.0660	-21.5766	3.51508	0	
1.0667	-18.5232	2.606	0	
1.0673	-13.0394	0.76766	0	
1.0680	-10.5936	-1.36361	0	
1.0687	-11.5127	-2.88883	0	
1.0693	-9.37842	-2.88883	0	
1.0700	-1.43325	-2.28278	0	
1.0707	4.36206	-1.66663	0	
1.0713	5.88878	0.464636	0	
1.0720	5.88878	2.606	0	
1.0727	1.01262	1.98986	0	
1.0733	-0.825675	-0.757559	0	
1.0740	13.2108	-0.444435	0	
1.0747	24.5054	1.38381	0	
1.0753	16.8718	0.464636	0	
1.0760	8.02307	0.76766	0	
1.0767	8.94221	4.43425	0	
1.0773	8.63064	3.21205	0	
1.0780	6.80792	-3.19185	0	
1.0787	6.20035	-3.19185	0	
1.0793	4.96963	1.38381	0	
1.0800	2.22776	2.30298	0	
1.0807	-0.514099	1.08078	0	
1.0813	0.0934726	1.68683	0	
1.0820	4.05048	3.8282	0	
1.0827	4.36206	4.13122	0	
1.0833	-2.04082	0.161613	0	
1.0840	-9.67442	-1.66663	0	
1.0847	-15.1737	3.21205	0	
1.0853	-17.604	4.73727	0	
1.0860	-19.1307	-0.444435	0	
1.0867	-17.9156	-1.36361	0	
1.0873	-10.5936	1.68683	0	
1.0880	-2.35239	-0.757559	0	
1.0887	0.701045	-2.28278	0	
1.0893	0.389469	3.8282	0	
1.0900	-6.01341	6.87864	0	
1.0907	-6.01341	5.65644	0	
1.0913	13.8184	7.18166	0	
1.0920	26.9513	9.62606	0	
1.0927	8.63064	8.10084	0	
1.0933	-15.1737	5.65644	0	
1.0940	-20.6574	3.8282	0	
1.0947	-16.3889	1.38381	0	
1.0953	-10.282	1.38381	0	
1.0960	-6.01341	2.90903	0	
1.0967	-8.1477	-2.88883	0	
1.0973	-9.37842	-12.3533	0	
1.0980	-5.09426	-12.3533	0	
1.0987	-3.87911	-5.93927	0	
1.0993	-4.79826	-3.19185	0	
1.1000	-3.27154	-1.06058	0	
1.1007	-4.19069	1.68683	0	
1.1013	-8.45927	0.76766	0	
1.1020	-11.2011	0.161613	0	
1.1027	-14.2546	3.21205	0	
1.1033	-16.0773	1.98986	0	
1.1040	-14.8621	-2.28278	0	
1.1047	-14.5662	-1.36361	0	
1.1053	-16.0773	0.76766	0	
1.1060	-14.2546	-1.36361	0	
1.1067	-10.8896	-0.757559	0	
1.1073	-9.37842	3.21205	0	
1.1080	-9.06684	4.13122	0	
1.1087	-10.8896	2.606	0	
1.1093	-13.3354	0.76766	0	
1.1100	-11.8087	-3.19185	0	
1.1107	-10.5936	-5.03019	0	
1.1113	-9.98599	-1.36361	0	
1.1120	-4.19069	1.38381	0	
1.1127	5.2812	-0.757559	0	
1.1133	8.33464	-1.06058	0	
1.1140	5.88878	1.38381	0	
1.1147	1.62019	2.30298	0	
1.1153	-2.35239	2.90903	0	
1.1160	-2.35239	4.13122	0	
1.1167	2.22776	3.8282	0	
1.1173	1.91619	3.21205	0	
1.1180	-2.95997	2.606	0	
1.1187	-4.48669	-2.88883	0	
1.1193	-3.87911	-8.98971	0	
1.1200	-6.01341	-7.76751	0	
1.1207	-6.93255	-2.28278	0	
1.1213	-6.93255	0.464636	0	
1.1220	-15.7813	0.464636	0	
1.1227	-27.6835	-0.444435	0	
1.1233	-30.1293	-1.36361	0	
1.1240	-28.8986	-3.19185	0	
1.1247	-28.8986	-2.28278	0	
1.1253	-25.2376	0.76766	0	
1.1260	-22.1842	1.08078	0	
1.1267	-23.4149	0.464636	0	
1.1273	-22.4957	2.30298	0	
1.1280	-20.6574	4.13122	0	
1.1287	-20.969	2.30298	0	
1.1293	-19.4423	1.08078	0	
1.1300	-16.3889	1.38381	0	
1.1307	-15.1737	1.98986	0	
1.1313	-12.7279	1.08078	0	
1.1320	-12.1203	0.76766	0	
1.1327	-13.0394	2.606	0	
1.1333	-11.2011	1.98986	0	
1.1340	-10.5936	-1.36361	0	
1.1347	-12.4163	-0.757559	0	
1.1353	-10.5936	-0.444435	0	
1.1360	-8.75527	-2.28278	0	
1.1367	-12.7279	0.464636	0	
1.1373	-14.5662	6.87864	0	
1.1380	-13.3354	7.18166	0	
1.1387	-17.604	4.13122	0	
1.1393	-19.7539	3.51508	0	
1.1400	-13.0394	4.13122	0	
1.1407	-10.8896	5.35342	0	
1.1413	-16.7004	6.26249	0	
1.1420	-18.5232	4.13122	0	
1.1427	-20.0499	2.30298	0	
1.1433	-24.63	3.21205	0	
1.1440	-23.1033	4.13122	0	
1.1447	-20.6574	3.51508	0	
1.1453	-24.3185	3.8282	0	
1.1460	-23.1033	3.51508	0	
1.1467	-19.1307	1.68683	0	
1.1473	-19.7539	0.161613	0	
1.1480	-18.5232	0.464636	0	
1.1487	-20.6574	1.68683	0	
1.1493	-28.6026	5.35342	0	
1.1500	-24.63	9.31293	0	
1.1507	-14.2546	6.57562	0	
1.1513	-19.4423	0.161613	0	
1.1520	-27.6835	-1.36361	0	
1.1527	-28.8986	-0.444435	0	
1.1533	-27.9795	-1.66663	0	
1.1540	-15.7813	-0.444435	0	
1.1547	-3.87911	2.606	0	
1.1553	-7.8517	2.606	0	
1.1560	-0.825675	4.73727	0	
1.1567	23.8978	8.10084	0	
1.1573	26.3281	6.87864	0	
1.1580	8.63064	3.8282	0	
1.1587	2.22776	2.606	0	
1.1593	-1.43325	1.38381	0	
1.1600	-8.75527	2.30298	0	
1.1607	-6.93255	5.0403	0	
1.1613	-5.09426	4.13122	0	
1.1620	-10.5936	1.08078	0	
1.1627	-11.5127	0.76766	0	
1.1633	-10.8896	2.30298	0	
1.1640	-16.9964	2.606	0	
1.1647	-20.0499	2.30298	0	
1.1653	-16.7004	2.30298	0	
1.1660	-15.1737	2.30298	0	
1.1667	-16.7004	1.38381	0	
1.1673	-18.8347	1.08078	0	
1.1680	-19.1307	1.38381	0	
1.1687	-16.0773	0.76766	0	
1.1693	-13.647	0.161613	0	
1.1700	-15.1737	0.161613	0	
1.1707	-16.0773	-0.444435	0	
1.1713	-15.1737	-0.757559	0	
1.1720	-13.647	-0.141411	0	
1.1727	-5.09426	-1.36361	0	
1.1733	8.63064	-3.808	0	
1.1740	15.3451	-5.03019	0	
1.1747	17.4794	-4.71707	0	
1.1753	21.7635	-3.50498	0	
1.1760	19.3177	-1.36361	0	
1.1767	7.10392	1.08078	0	
1.1773	-2.35239	2.606	0	
1.1780	-11.8087	5.95947	0	
1.1787	-29.8178	6.57562	0	
1.1793	-43.2467	1.98986	0	
1.1800	-39.8817	-2.28278	0	
1.1807	-32.2636	-3.808	0	
1.1813	-30.1293	-4.71707	0	
1.1820	-28.8986	-2.28278	0	
1.1827	-27.0759	0.464636	0	
1.1833	-27.3719	-1.36361	0	
1.1840	-27.0759	-1.96965	0	
1.1847	-25.8452	2.30298	0	
1.1853	-21.8882	4.13122	0	
1.1860	-17.604	1.38381	0	
1.1867	-17.9156	-1.36361	0	
1.1873	-18.8347	-1.96965	0	
1.1880	-16.0773	0.76766	0	
1.1887	-14.8621	4.13122	0	
1.1893	-14.2546	3.8282	0	
1.1900	-10.5936	2.30298	0	
1.1907	-8.75527	2.606	0	
1.1913	-8.75527	2.606	0	
1.1920	-3.87911	4.73727	0	
1.1927	0.0934726	8.40386	0	
1.1933	-0.218103	7.18166	0	
1.1940	1.62019	3.51508	0	
1.1947	2.22776	4.13122	0	
1.1953	-2.35239	4.73727	0	
1.1960	-5.40583	-1.96965	0	
1.1967	-9.37842	-9.60585	0	
1.1973	-16.0773	-9.60585	0	
1.1980	-15.7813	-2.88883	0	
1.1987	-10.8896	1.68683	0	
1.1993	-13.3354	1.38381	0	
1.2000	-16.0773	-0.757559	0	
1.2007	-12.7279	-0.757559	0	
1.2013	-10.5936	0.464636	0	
1.2020	-12.1203	1.38381	0	
1.2027	-12.4163	1.08078	0	
1.2033	-12.7279	2.606	0	
1.2040	-12.4163	5.95947	0	
1.2047	-11.5127	7.48469	0	
1.2053	-13.943	6.87864	0	
1.2060	-15.4697	5.65644	0	
1.2067	-11.5127	5.0403	0	
1.2073	-10.5936	6.26249	0	
1.2080	-16.0773	6.57562	0	
1.2087	-18.8347	0.464636	0	
1.2093	-16.0773	-7.16146	0	
1.2100	-14.2546	-9.30283	0	
1.2107	-10.5936	-7.76751	0	
1.2113	-2.66397	-7.76751	0	
1.2120	1.30862	-7.46449	0	
1.2127	-1.13725	-4.11102	0	
1.2133	-2.35239	-0.444435	0	
1.2140	-1.74482	-0.444435	0	
1.2147	-1.13725	0.161613	0	
1.2153	-0.514099	2.90903	0	
1.2160	-1.43325	3.51508	0	
1.2167	-4.19069	2.30298	0	
1.2173	-4.19069	2.606	0	
1.2180	-2.66397	2.606	0	
1.2187	-4.19069	0.464636	0	
1.2193	-5.70183	0.464636	0	
1.2200	-6.01341	3.8282	0	
1.2207	-7.22855	8.10084	0	
1.2213	-7.54012	9.92908	0	
1.2220	-8.75527	5.65644	0	
1.2227	-14.8621	1.08078	0	
1.2233	-18.8347	1.98986	0	
1.2240	-17.9156	4.43425	0	
1.2247	-18.8347	4.43425	0	
1.2253	-20.3615	3.51508	0	
1.2260	-19.7539	0.76766	0	
1.2267	-18.5232	-1.36361	0	
1.2273	-16.0773	0.464636	0	
1.2280	-16.9964	1.38381	0	
1.2287	-19.7539	0.464636	0	
1.2293	-7.22855	0.76766	0	
1.2300	13.2108	3.51508	0	
1.2307	15.6567	6.26249	0	
1.2313	4.67363	6.57562	0	
1.2320	-1.74482	4.13122	0	
1.2327	-2.35239	3.8282	0	
1.2333	3.75448	5.0403	0	
1.2340	12.8992	3.8282	0	
1.2347	10.7649	1.98986	0	
1.2353	0.389469	1.98986	0	
1.2360	-11.5127	0.464636	0	
1.2367	-26.1568	-1.66663	0	
1.2373	-29.8178	-2.28278	0	
1.2380	-18.5232	-5.03019	0	
1.2387	-18.8347	-5.93927	0	
1.2393	-31.6561	-1.36361	0	
1.2400	-29.8178	4.13122	0	
1.2407	-20.0499	4.13122	0	
1.2413	-25.5492	3.21205	0	
1.2420	-32.5596	4.13122	0	
1.2427	-27.0759	3.8282	0	
1.2433	-25.2376	1.98986	0	
1.2440	-34.3979	2.30298	0	
1.2447	-42.0315	2.30298	0	
1.2453	-38.9781	-1.66663	0	
1.2460	-32.5596	-4.11102	0	
1.2467	-31.3445	-1.96965	0	
1.2473	-29.5062	0.464636	0	
1.2480	-22.4957	-0.444435	0	
1.2487	-15.1737	-1.66663	0	
1.2493	-6.32498	0.161613	0	
1.2500	5.5772	2.30298	0	
1.2507	14.1299	0.464636	0	
1.2513	23.2903	-2.88883	0	
1.2520	40.3802	-2.88883	0	
1.2527	54.1051	-2.28278	0	
1.2533	59.2928	-2.88883	0	
1.2540	65.3997	-0.757559	0	
1.2547	73.6408	2.30298	0	
1.2553	76.9903	-0.141411	0	
1.2560	75.4636	-3.19185	0	
1.2567	68.7491	-1.36361	0	
1.2573	59.2928	0.76766	0	
1.2580	55.0242	1.08078	0	
1.2587	55.6318	2.606	0	
1.2593	56.2394	3.51508	0	
1.2600	55.6318	1.68683	0	
1.2607	51.3632	1.68683	0	
1.2613	41.8913	2.90903	0	
1.2620	32.435	2.606	0	
1.2627	26.0321	3.8282	0	
1.2633	19.6137	6.57562	0	
1.2640	10.1574	5.95947	0	
1.2647	-1.13725	4.13122	0	
1.2653	-11.5127	5.65644	0	
1.2660	-20.6574	5.65644	0	
1.2667	-29.5062	5.0403	0	
1.2673	-37.1398	5.35342	0	
1.2680	-41.7199	0.464636	0	
1.2687	-45.6925	-7.76751	0	
1.2693	-49.3535	-9.60585	0	
1.2700	-49.042	-8.08063	0	
1.2707	-46.3001	-7.46449	0	
1.2713	-47.5152	-5.33322	0	
1.2720	-51.1763	-3.50498	0	
1.2727	-54.8373	-2.5858	0	
1.2733	-61.8633	1.38381	0	
1.2740	-69.7929	4.13122	0	
1.2747	-70.712	0.464636	0	
1.2753	-67.347	-0.444435	0	
1.2760	-68.2662	3.21205	0	
1.2767	-68.8737	2.90903	0	
1.2773	-62.4709	1.68683	0	
1.2780	-58.8099	3.21205	0	
1.2787	-65.5243	3.51508	0	
1.2793	-68.8737	3.21205	0	
1.2800	-63.9976	2.30298	0	
1.2807	-62.7824	1.38381	0	
1.2813	-63.39	2.90903	0	
1.2820	-58.4983	5.65644	0	
1.2827	-56.9716	5.35342	0	
1.2833	-61.8633	3.21205	0	
1.2840	-60.6482	0.464636	0	
1.2847	-52.703	-0.444435	0	
1.2853	-46.5961	1.38381	0	
1.2860	-41.7199	3.21205	0	
1.2867	-36.8438	2.30298	0	
1.2873	-33.7904	1.68683	0	
1.2880	-28.8986	3.21205	0	
1.2887	-21.5766	4.13122	0	
1.2893	-17.604	2.606	0	
1.2900	-15.1737	0.464636	0	
1.2907	-9.67442	0.464636	0	
1.2913	-3.27154	2.30298	0	
1.2920	2.22776	3.21205	0	
1.2927	3.14691	2.30298	0	
1.2933	-0.825675	-0.757559	0	
1.2940	-1.43325	-2.28278	0	
1.2947	4.05048	0.76766	0	
1.2953	5.88878	4.73727	0	
1.2960	5.88878	3.8282	0	
1.2967	9.54979	1.68683	0	
1.2973	9.23821	1.68683	0	
1.2980	4.05048	1.98986	0	
1.2987	3.44291	1.68683	0	
1.2993	5.5772	1.98986	0	
1.3000	6.49635	1.68683	0	
1.3007	9.23821	1.38381	0	
1.3013	6.49635	1.38381	0	
1.3020	-1.13725	2.606	0	
1.3027	4.05048	4.43425	0	
1.3033	15.9527	5.0403	0	
1.3040	12.8992	3.21205	0	
1.3047	2.22776	2.30298	0	
1.3053	4.05048	1.98986	0	
1.3060	9.23821	1.38381	0	
1.3067	11.0765	1.38381	0	
1.3073	14.7375	2.30298	0	
1.3080	15.3451	2.606	0	
1.3087	12.8992	1.38381	0	
1.3093	16.8718	0.464636	0	
1.3100	22.3711	-1.06058	0	
1.3107	20.8444	-1.36361	0	
1.3113	22.6671	-1.06058	0	
1.3120	28.1664	-1.36361	0	
1.3127	29.0856	-1.66663	0	
1.3133	32.435	-2.5858	0	
1.3140	42.2029	-3.19185	0	
1.3147	46.783	-2.28278	0	
1.3153	41.5953	-1.96965	0	
1.3160	31.5159	-2.88883	0	
1.3167	22.9787	-0.444435	0	
1.3173	19.3177	1.68683	0	
1.3180	15.9527	-1.06058	0	
1.3187	12.8992	-1.66663	0	
1.3193	15.9527	1.38381	0	
1.3200	15.9527	1.38381	0	
1.3207	5.5772	1.38381	0	
1.3213	-4.19069	4.13122	0	
1.3220	-7.54012	5.35342	0	
1.3227	-7.8517	5.0403	0	
1.3233	-9.67442	3.21205	0	
1.3240	-17.9156	-1.96965	0	
1.3247	-27.3719	-2.5858	0	
1.3253	-25.2376	2.30298	0	
1.3260	-22.1842	3.21205	0	
1.3267	-29.5062	-2.28278	0	
1.3273	-38.0589	-7.76751	0	
1.3280	-41.7199	-8.08063	0	
1.3287	-42.0315	-4.41405	0	
1.3293	-37.7474	-1.06058	0	
1.3300	-33.4788	1.98986	0	
1.3307	-35.6131	5.65644	0	
1.3313	-38.9781	6.87864	0	
1.3320	-38.6665	6.26249	0	
1.3327	-37.7474	4.43425	0	
1.3333	-37.1398	0.76766	0	
1.3340	-33.7904	-1.36361	0	
1.3347	-27.0759	0.464636	0	
1.3353	-21.5766	1.38381	0	
1.3360	-20.0499	-0.141411	0	
1.3367	-19.1307	-1.36361	0	
1.3373	-18.8347	-1.06058	0	
1.3380	-21.5766	1.68683	0	
1.3387	-22.4957	5.35342	0	
1.3393	-18.8347	6.87864	0	
1.3400	-16.0773	6.26249	0	
1.3407	-14.2546	4.73727	0	
1.3413	-15.4697	1.98986	0	
1.3420	-24.3185	3.21205	0	
1.3427	-30.1293	6.26249	0	
1.3433	-27.3719	4.13122	0	
1.3440	-26.1568	0.464636	0	
1.3447	-28.291	-0.444435	0	
1.3453	-25.8452	-2.28278	0	
1.3460	-20.3615	-4.41405	0	
1.3467	-17.9156	-3.808	0	
1.3473	-16.3889	-0.444435	0	
1.3480	-12.7279	0.76766	0	
1.3487	-9.98599	-1.36361	0	
1.3493	-7.8517	-2.28278	0	
1.3500	-6.32498	0.76766	0	
1.3507	-7.8517	1.38381	0	
1.3513	-7.54012	-0.141411	0	
1.3520	2.22776	2.606	0	
1.3527	12.8992	6.87864	0	
1.3533	15.0491	6.26249	0	
1.3540	12.8992	4.43425	0	
1.3547	9.23821	3.8282	0	
1.3553	4.67363	1.68683	0	
1.3560	1.62019	0.161613	0	
1.3567	-3.56754	1.68683	0	
1.3573	-16.3889	3.21205	0	
1.3580	-30.7369	0.76766	0	
1.3587	-36.2206	-2.28278	0	
1.3593	-31.0329	0.464636	0	
1.3600	-19.7539	6.26249	0	
1.3607	-11.5127	5.95947	0	
1.3613	-8.75527	3.21205	0	
1.3620	-7.8517	3.21205	0	
1.3627	-6.93255	4.43425	0	
1.3633	-6.32498	5.65644	0	
1.3640	-8.45927	7.18166	0	
1.3647	-12.7279	5.95947	0	
1.3653	-9.06684	1.68683	0	
1.3660	0.0934726	-0.757559	0	
1.3667	2.52376	1.38381	0	
1.3673	0.0934726	4.13122	0	
1.3680	1.30862	5.0403	0	
1.3687	3.14691	4.13122	0	
1.3693	1.30862	0.76766	0	
1.3700	-1.13725	-4.71707	0	
1.3707	-0.218103	-9.60585	0	
1.3713	5.88878	-7.76751	0	
1.3720	9.23821	-2.88883	0	
1.3727	5.2812	-2.28278	0	
1.3733	8.63064	-2.28278	0	
1.3740	21.452	-0.444435	0	
1.3747	24.1938	-0.444435	0	
1.3753	16.8718	-2.88883	0	
1.3760	11.0765	-2.28278	0	
1.3767	7.41549	-0.444435	0	
1.3773	2.22776	-1.36361	0	
1.3780	-2.66397	-0.444435	0	
1.3787	-6.01341	3.21205	0	
1.3793	-9.06684	2.30298	0	
1.3800	-13.647	-0.757559	0	
1.3807	-18.5232	-0.444435	0	
1.3813	-20.969	1.68683	0	
1.3820	-23.4149	3.21205	0	
1.3827	-27.3719	4.73727	0	
1.3833	-31.3445	6.87864	0	
1.3840	-34.3979	7.78771	0	
1.3847	-37.1398	5.95947	0	
1.3853	-38.0589	5.0403	0	
1.3860	-37.1398	7.18166	0	
1.3867	-31.6561	8.70688	0	
1.3873	-24.3185	5.95947	0	
1.3880	-25.5492	1.98986	0	
1.3887	-32.5596	0.161613	0	
1.3893	-32.8712	-2.28278	0	
1.3900	-28.8986	-4.41405	0	
1.3907	-30.7369	-2.88883	0	
1.3913	-31.0329	-2.5858	0	
1.3920	-24.63	-4.41405	0	
1.3927	-19.4423	-2.28278	0	
1.3933	-17.308	0.464636	0	
1.3940	-12.7279	-0.141411	0	
1.3947	-9.98599	0.464636	0	
1.3953	-15.7813	2.30298	0	
1.3960	-21.5766	1.68683	0	
1.3967	-19.7539	1.38381	0	
1.3973	-16.7004	1.98986	0	
1.3980	-18.5232	2.90903	0	
1.3987	-20.6574	4.13122	0	
1.3993	-21.5766	2.30298	0	
1.4000	-21.265	-0.757559	0	
1.4007	-20.3615	1.38381	0	
1.4013	-20.0499	4.43425	0	
1.4020	-21.265	3.21205	0	
1.4027	-21.8882	3.21205	0	
1.4033	-20.0499	4.73727	0	
1.4040	-17.9156	2.30298	0	
1.4047	-16.7004	-1.36361	0	
1.4053	-14.5662	-2.28278	0	
1.4060	-9.67442	-1.66663	0	
1.4067	-5.09426	-1.36361	0	
1.4073	-2.95997	-0.757559	0	
1.4080	-2.95997	0.464636	0	
1.4087	-3.87911	2.30298	0	
1.4093	-4.19069	0.464636	0	
1.4100	-2.35239	-1.36361	0	
1.4107	4.67363	0.161613	0	
1.4113	15.0491	0.76766	0	
1.4120	20.2368	-0.141411	0	
1.4127	17.791	1.38381	0	
1.4133	14.7375	2.90903	0	
1.4140	8.94221	2.606	0	
1.4147	-0.218103	1.98986	0	
1.4153	-0.514099	1.08078	0	
1.4160	10.7649	1.38381	0	
1.4167	15.9527	2.30298	0	
1.4173	8.63064	-0.444435	0	
1.4180	1.62019	-2.28278	0	
1.4187	3.14691	0.464636	0	
1.4193	5.5772	1.68683	0	
1.4200	2.52376	-0.444435	0	
1.4207	-3.87911	-0.141411	0	
1.4213	-9.06684	1.98986	0	
1.4220	-9.67442	3.8282	0	
1.4227	-7.8517	6.87864	0	
1.4233	-11.8087	6.87864	0	
1.4240	-13.0394	4.13122	0	
1.4247	3.44291	4.43425	0	
1.4253	20.2368	6.57562	0	
1.4260	13.8184	6.26249	0	
1.4267	-0.514099	4.73727	0	
1.4273	-4.48669	0.464636	0	
1.4280	-6.32498	-6.24229	0	
1.4287	-10.5936	-10.5149	0	
1.4293	-9.37842	-7.16146	0	
1.4300	-6.01341	-1.36361	0	
1.4307	-6.93255	1.68683	0	
1.4313	-10.5936	0.464636	0	
1.4320	-11.8087	1.38381	0	
1.4327	-9.06684	4.73727	0	
1.4333	-7.8517	4.43425	0	
1.4340	-12.4163	1.68683	0	
1.4347	-16.3889	2.90903	0	
1.4353	-16.0773	4.13122	0	
1.4360	-15.1737	-1.06058	0	
1.4367	-15.1737	-4.71707	0	
1.4373	-13.3354	-2.28278	0	
1.4380	-11.2011	0.464636	0	
1.4387	-11.2011	0.464636	0	
1.4393	-12.7279	0.76766	0	
1.4400	-15.1737	4.43425	0	
1.4407	-12.1203	7.48469	0	
1.4413	-5.40583	8.10084	0	
1.4420	-5.09426	9.31293	0	
1.4427	-8.45927	8.70688	0	
1.4433	-9.67442	5.0403	0	
1.4440	-20.6574	5.0403	0	
1.4447	-39.2741	7.78771	0	
1.4453	-44.4618	5.95947	0	
1.4460	-38.0589	1.38381	0	
1.4467	-33.1672	-0.444435	0	
1.4473	-26.4683	-2.88883	0	
1.4480	-18.8347	-6.85844	0	
1.4487	-16.3889	-7.76751	0	
1.4493	-14.2546	-5.93927	0	
1.4500	-12.1203	-2.28278	0	
1.4507	-11.2011	1.98986	0	
1.4513	-3.87911	2.90903	0	
1.4520	2.83534	0.464636	0	
1.4527	-0.514099	-2.5858	0	
1.4533	-2.04082	-4.11102	0	
1.4540	2.22776	-2.28278	0	
1.4547	2.83534	-1.66663	0	
1.4553	1.91619	-4.11102	0	
1.4560	3.14691	-3.19185	0	
1.4567	2.22776	0.464636	0	
1.4573	1.30862	0.76766	0	
1.4580	2.22776	1.98986	0	
1.4587	0.701045	4.73727	0	
1.4593	-2.95997	2.90903	0	
1.4600	-2.95997	1.38381	0	
1.4607	0.0934726	4.43425	0	
1.4613	-0.514099	4.13122	0	
1.4620	-3.27154	-0.444435	0	
1.4627	-2.35239	-0.444435	0	
1.4633	-1.43325	1.98986	0	
1.4640	-5.40583	2.90903	0	
1.4647	-8.1477	2.30298	0	
1.4653	-7.8517	0.161613	0	
1.4660	-8.1477	-1.36361	0	
1.4667	-9.98599	1.98986	0	
1.4673	-10.8896	4.43425	0	
1.4680	-11.2011	2.90903	0	
1.4687	-11.2011	1.08078	0	
1.4693	-11.5127	-0.757559	0	
1.4700	-11.2011	-1.36361	0	
1.4707	-9.67442	2.606	0	
1.4713	-8.45927	5.95947	0	
1.4720	-9.67442	4.43425	0	
1.4727	-9.67442	3.51508	0	
1.4733	-5.09426	3.51508	0	
1.4740	2.22776	1.68683	0	
1.4747	4.67363	1.68683	0	
1.4753	-0.514099	2.90903	0	
1.4760	-3.87911	1.38381	0	
1.4767	-2.35239	1.68683	0	
1.4773	-5.09426	4.13122	0	
1.4780	-9.37842	3.51508	0	
1.4787	-10.5936	2.30298	0	
1.4793	-13.3354	4.13122	0	
1.4800	-16.7004	3.8282	0	
1.4807	-15.4697	-0.444435	0	
1.4813	-17.9156	-2.88883	0	
1.4820	-25.2376	-1.36361	0	
1.4827	-29.2102	1.98986	0	
1.4833	-32.5596	3.51508	0	
1.4840	-35.3171	2.30298	0	
1.4847	-30.7369	1.68683	0	
1.4853	-28.8986	3.51508	0	
1.4860	-33.1672	6.57562	0	
1.4867	-27.0759	8.70688	0	
1.4873	-17.604	8.10084	0	
1.4880	-19.7539	5.95947	0	
1.4887	-24.3185	3.8282	0	
1.4893	-24.63	3.21205	0	
1.4900	-28.8986	3.21205	0	
1.4907	-31.6561	3.21205	0	
1.4913	-26.1568	1.98986	0	
1.4920	-18.2272	1.98986	0	
1.4927	-12.1203	2.30298	0	
1.4933	-11.5127	1.08078	0	
1.4940	-16.9964	1.68683	0	
1.4947	-19.4423	5.65644	0	
1.4953	-16.3889	5.0403	0	
1.4960	-16.3889	-1.36361	0	
1.4967	-14.8621	-5.93927	0	
1.4973	-9.67442	-5.93927	0	
1.4980	-6.93255	-3.19185	0	
1.4987	-6.01341	-0.757559	0	
1.4993	-5.09426	1.08078	0	
1.5000	-8.75527	1.68683	0	
1.5007	-13.0394	-0.141411	0	
1.5013	-12.7279	-1.96965	0	
1.5020	-12.4163	-0.444435	0	
1.5027	-14.8621	1.38381	0	
1.5033	-18.8347	0.161613	0	
1.5040	-20.3615	-1.36361	0	
1.5047	-15.4697	-2.28278	0	
1.5053	-12.4163	-2.28278	0	
1.5060	-13.3354	-0.757559	0	
1.5067	-3.87911	1.98986	0	
1.5073	9.54979	3.51508	0	
1.5080	8.33464	2.90903	0	
1.5087	1.30862	0.464636	0	
1.5093	2.22776	0.464636	0	
1.5100	4.05048	2.30298	0	
1.5107	4.96963	1.98986	0	
1.5113	6.20035	0.76766	0	
1.5120	5.5772	2.30298	0	
1.5127	4.05048	2.30298	0	
1.5133	4.96963	-1.66663	0	
1.5140	7.71149	-5.33322	0	
1.5147	8.63064	-5.63624	0	
1.5153	5.88878	-2.28278	0	
1.5160	3.44291	1.68683	0	
1.5167	3.75448	2.30298	0	
1.5173	3.75448	-1.96965	0	
1.5180	2.52376	-4.41405	0	
1.5187	1.30862	-3.19185	0	
1.5193	-1.43325	-1.36361	0	
1.5200	-3.87911	-1.96965	0	
1.5207	-6.93255	-2.28278	0	
1.5213	-12.1203	-1.06058	0	
1.5220	-16.0773	2.90903	0	
1.5227	-24.9416	6.87864	0	
1.5233	-36.2206	6.87864	0	
1.5240	-29.2102	4.13122	0	
1.5247	-11.8087	5.95947	0	
1.5253	-7.54012	8.70688	0	
1.5260	-4.48669	7.18166	0	
1.5267	3.14691	4.73727	0	
1.5273	-0.825675	0.464636	0	
1.5280	-4.79826	-6.55541	0	
1.5287	4.05048	-10.2119	0	
1.5293	4.67363	-5.63624	0	
1.5300	-5.09426	-2.28278	0	
1.5307	-7.8517	-3.19185	0	
1.5313	-8.1477	-1.96965	0	
1.5320	-9.67442	2.30298	0	
1.5327	-6.62098	3.21205	0	
1.5333	-4.19069	0.76766	0	
1.5340	-3.56754	-0.141411	0	
1.5347	-0.514099	1.38381	0	
1.5353	-0.514099	1.08078	0	
1.5360	-5.09426	-2.28278	0	
1.5367	-6.62098	-4.11102	0	
1.5373	-6.93255	-2.28278	0	
1.5380	-11.5127	-0.757559	0	
1.5387	-16.7004	0.464636	0	
1.5393	-21.265	4.13122	0	
1.5400	-24.63	5.95947	0	
1.5407	-22.7917	3.51508	0	
1.5413	-20.0499	0.76766	0	
1.5420	-23.4149	0.464636	0	
1.5427	-24.9416	1.38381	0	
1.5433	-16.9964	2.30298	0	
1.5440	-10.5936	2.90903	0	
1.5447	-12.1203	1.68683	0	
1.5453	-13.3354	0.464636	0	
1.5460	-13.3354	1.38381	0	
1.5467	-15.4697	4.43425	0	
1.5473	-16.3889	6.26249	0	
1.5480	-20.6574	6.26249	0	
1.5487	-31.9521	5.95947	0	
1.5493	-39.8817	4.43425	0	
1.5500	-34.6939	4.13122	0	
1.5507	-24.3185	6.26249	0	
1.5513	-18.8347	4.73727	0	
1.5520	-17.604	0.464636	0	
1.5527	-12.1203	1.38381	0	
1.5533	-0.825675	0.76766	0	
1.5540	4.36206	-8.08063	0	
1.5547	-0.514099	-14.1815	0	
1.5553	-3.27154	-9.90888	0	
1.5560	-0.514099	-5.03019	0	
1.5567	0.389469	-3.808	0	
1.5573	0.0934726	-2.28278	0	
1.5580	-1.43325	-2.28278	0	
1.5587	-2.95997	-3.19185	0	
1.5593	-2.35239	-0.444435	0	
1.5600	-1.43325	5.0403	0	
1.5607	-2.66397	7.18166	0	
1.5613	-3.56754	5.0403	0	
1.5620	-2.66397	1.38381	0	
1.5627	-3.27154	-0.757559	0	
1.5633	-6.62098	-0.757559	0	
1.5640	-8.1477	-0.757559	0	
1.5647	-8.1477	-1.06058	0	
1.5653	-11.5127	0.464636	0	
1.5660	-17.9156	3.8282	0	
1.5667	-17.308	6.87864	0	
1.5673	-10.5936	7.48469	0	
1.5680	-7.8517	4.43425	0	
1.5687	-9.37842	1.08078	0	
1.5693	-9.98599	0.76766	0	
1.5700	-9.37842	4.43425	0	
1.5707	-6.93255	7.48469	0	
1.5713	-4.48669	7.78771	0	
1.5720	-2.35239	5.95947	0	
1.5727	2.22776	1.98986	0	
1.5733	4.96963	-2.88883	0	
1.5740	1.91619	-5.03019	0	
1.5747	-1.13725	-3.19185	0	
1.5753	-2.04082	-1.06058	0	
1.5760	-5.70183	0.76766	0	
1.5767	-6.93255	1.08078	0	
1.5773	-2.35239	0.161613	0	
1.5780	1.30862	1.08078	0	
1.5787	1.30862	2.30298	0	
1.5793	-4.79826	1.08078	0	
1.5800	-13.3354	1.38381	0	
1.5807	-15.1737	4.13122	0	
1.5813	-11.5127	2.90903	0	
1.5820	-16.0773	-0.757559	0	
1.5827	-22.7917	0.76766	0	
1.5833	-22.1842	4.73727	0	
1.5840	-21.265	5.95947	0	
1.5847	-22.7917	7.18166	0	
1.5853	-22.4957	9.00991	0	
1.5860	-22.4957	9.31293	0	
1.5867	-24.0225	8.70688	0	
1.5873	-21.8882	7.48469	0	
1.5880	-16.9964	5.65644	0	
1.5887	-15.4697	3.51508	0	
1.5893	-16.3889	0.76766	0	
1.5900	-16.3889	-3.808	0	
1.5907	-13.3354	-8.08063	0	
1.5913	-7.8517	-8.38366	0	
1.5920	-4.19069	-4.41405	0	
1.5927	-2.95997	0.464636	0	
1.5933	-0.825675	1.38381	0	
1.5940	1.01262	-1.66663	0	
1.5947	0.701045	-2.28278	0	
1.5953	0.389469	-0.141411	0	
1.5960	-0.514099	1.98986	0	
1.5967	-2.04082	3.21205	0	
1.5973	-0.825675	5.0403	0	
1.5980	-0.514099	5.0403	0	
1.5987	-4.79826	3.21205	0	
1.5993	-2.35239	1.38381	0	
1.6000	6.80792	1.08078	0	
1.6007	7.10392	3.21205	0	
1.6013	0.389469	4.13122	0	
1.6020	-4.48669	3.21205	0	
1.6027	-11.5127	2.606	0	
1.6033	-18.5232	3.21205	0	
1.6040	-16.0773	2.30298	0	
1.6047	-11.5127	0.464636	0	
1.6053	-12.4163	-0.757559	0	
1.6060	-14.2546	-0.141411	0	
1.6067	-14.8621	0.76766	0	
1.6073	-14.2546	-0.757559	0	
1.6080	-12.7279	-1.96965	0	
1.6087	-14.5662	-0.141411	0	
1.6093	-13.943	1.98986	0	
1.6100	-2.35239	3.21205	0	
1.6107	7.71149	3.51508	0	
1.6113	6.49635	2.606	0	
1.6120	7.71149	1.38381	0	
1.6127	14.7375	3.21205	0	
1.6133	15.9527	4.13122	0	
1.6140	11.3881	2.30298	0	
1.6147	6.80792	0.161613	0	
1.6153	3.44291	0.464636	0	
1.6160	2.22776	2.30298	0	
1.6167	0.389469	2.606	0	
1.6173	-2.35239	0.464636	0	
1.6180	-2.95997	-1.36361	0	
1.6187	-4.48669	-1.36361	0	
1.6193	-5.09426	0.161613	0	
1.6200	-0.514099	1.38381	0	
1.6207	-0.514099	-0.444435	0	
1.6213	-6.93255	-2.88883	0	
1.6220	-9.67442	-1.06058	0	
1.6227	-11.2011	1.38381	0	
1.6233	-16.9964	0.161613	0	
1.6240	-20.6574	0.76766	0	
1.6247	-21.8882	4.13122	0	
1.6253	-24.0225	2.90903	0	
1.6260	-22.4957	-0.444435	0	
1.6267	-22.4957	-1.66663	0	
1.6273	-25.5492	-2.28278	0	
1.6280	-24.3185	-0.444435	0	
1.6287	-22.4957	5.35342	0	
1.6293	-21.5766	7.78771	0	
1.6300	-16.0773	4.13122	0	
1.6307	-13.3354	3.21205	0	
1.6313	-14.2546	5.95947	0	
1.6320	-10.5936	5.0403	0	
1.6327	-8.75527	4.43425	0	
1.6333	-7.8517	6.26249	0	
1.6340	-1.13725	4.43425	0	
1.6347	1.62019	-2.28278	0	
1.6353	-4.48669	-7.16146	0	
1.6360	-6.62098	-8.68668	0	
1.6367	-6.01341	-6.24229	0	
1.6373	-6.62098	-1.06058	0	
1.6380	-8.1477	2.606	0	
1.6387	-18.2272	2.30298	0	
1.6393	-29.8178	1.08078	0	
1.6400	-26.4683	1.38381	0	
1.6407	-19.7539	1.68683	0	
1.6413	-19.7539	-1.36361	0	
1.6420	-18.5232	-5.63624	0	
1.6427	-17.308	-5.63624	0	
1.6433	-22.1842	-2.28278	0	
1.6440	-23.4149	-1.06058	0	
1.6447	-18.2272	-1.96965	0	
1.6453	-15.1737	-3.19185	0	
1.6460	-14.5662	-1.96965	0	
1.6467	-12.4163	3.8282	0	
1.6473	-6.93255	7.78771	0	
1.6480	-0.514099	7.18166	0	
1.6487	1.62019	6.26249	0	
1.6493	1.01262	7.18166	0	
1.6500	1.91619	7.48469	0	
1.6507	4.67363	5.95947	0	
1.6513	5.88878	3.21205	0	
1.6520	4.05048	0.464636	0	
1.6527	1.30862	-1.36361	0	
1.6533	0.389469	-3.19185	0	
1.6540	1.30862	-6.55541	0	
1.6547	0.389469	-8.38366	0	
1.6553	-2.35239	-6.85844	0	
1.6560	-3.56754	-5.03019	0	
1.6567	-2.66397	-4.11102	0	
1.6573	-2.35239	-2.28278	0	
1.6580	-0.514099	0.464636	0	
1.6587	-0.825675	0.464636	0	
1.6593	-7.54012	-0.444435	0	
1.6600	-8.1477	1.98986	0	
1.6607	6.49635	3.8282	0	
1.6613	18.3985	4.13122	0	
1.6620	12.6032	5.95947	0	
1.6627	-1.43325	5.65644	0	
1.6633	-14.5662	0.464636	0	
1.6640	-24.3185	-2.28278	0	
1.6647	-26.7643	-1.36361	0	
1.6653	-26.1568	-0.141411	0	
1.6660	-26.1568	2.30298	0	
1.6667	-22.7917	3.8282	0	
1.6673	-20.0499	3.8282	0	
1.6680	-22.4957	4.13122	0	
1.6687	-22.4957	4.43425	0	
1.6693	-16.7004	5.0403	0	
1.6700	-13.3354	6.26249	0	
1.6707	-14.2546	5.65644	0	
1.6713	-14.8621	3.51508	0	
1.6720	-13.943	4.13122	0	
1.6727	-10.282	4.43425	0	
1.6733	-6.62098	2.30298	0	
1.6740	-12.4163	2.30298	0	
1.6747	-22.7917	3.21205	0	
1.6753	-18.2272	1.98986	0	
1.6760	-2.95997	2.30298	0	
1.6767	1.01262	2.30298	0	
1.6773	-7.54012	-1.96965	0	
1.6780	-15.1737	-3.50498	0	
1.6787	-16.9964	-2.5858	0	
1.6793	-17.308	-4.11102	0	
1.6800	-16.0773	-2.88883	0	
1.6807	-16.0773	1.38381	0	
1.6813	-18.5232	1.98986	0	
1.6820	-21.265	1.08078	0	
1.6827	-21.265	1.08078	0	
1.6833	-20.969	0.161613	0	
1.6840	-21.8882	3.21205	0	
1.6847	-18.8347	9.62606	0	
1.6853	-15.4697	6.87864	0	
1.6860	-17.604	-3.50498	0	
1.6867	-19.4423	-5.63624	0	
1.6873	-19.7539	0.76766	0	
1.6880	-21.265	5.0403	0	
1.6887	-17.604	5.0403	0	
1.6893	-13.3354	5.35342	0	
1.6900	-16.0773	6.57562	0	
1.6907	-12.4163	9.92908	0	
1.6913	-0.514099	12.6765	0	
1.6920	1.01262	9.00991	0	
1.6927	-2.66397	2.90903	0	
1.6933	0.701045	1.68683	0	
1.6940	1.91619	2.30298	0	
1.6947	1.30862	1.38381	0	
1.6953	7.41549	1.08078	0	
1.6960	8.33464	1.08078	0	
1.6967	1.91619	0.464636	0	
1.6973	0.389469	1.08078	0	
1.6980	2.83534	1.68683	0	
1.6987	1.01262	0.464636	0	
1.6993	-1.13725	-2.28278	0	
1.7000	0.701045	-6.55541	0	
1.7007	2.83534	-8.68668	0	
1.7013	-5.09426	-4.71707	0	
1.7020	-19.1307	0.76766	0	
1.7027	-26.1568	4.43425	0	
1.7033	-25.8452	6.87864	0	
1.7040	-27.3719	5.65644	0	
1.7047	-29.8178	1.38381	0	
1.7053	-28.6026	0.464636	0	
1.7060	-27.6835	1.98986	0	
1.7067	-26.4683	1.38381	0	
1.7073	-22.4957	2.30298	0	
1.7080	-15.7813	3.51508	0	
1.7087	-10.282	2.30298	0	
1.7093	-8.45927	1.68683	0	
1.7100	-8.75527	0.464636	0	
1.7107	-9.06684	-1.36361	0	
1.7113	-6.01341	1.08078	0	
1.7120	3.14691	4.13122	0	
1.7127	4.67363	1.38381	0	
1.7133	-12.1203	-2.5858	0	
1.7140	-27.6835	-3.19185	0	
1.7147	-25.8452	-2.28278	0	
1.7153	-19.1307	-1.36361	0	
1.7160	-15.1737	0.464636	0	
1.7167	-12.4163	-0.444435	0	
1.7173	-13.0394	-1.66663	0	
1.7180	-16.7004	0.464636	0	
1.7187	-19.4423	2.30298	0	
1.7193	-19.4423	0.76766	0	
1.7200	-17.9156	0.161613	0	
1.7207	-16.9964	2.90903	0	
1.7213	-16.7004	6.26249	0	
1.7220	-16.9964	7.78771	0	
1.7227	-21.5766	6.87864	0	
1.7233	-26.1568	3.21205	0	
1.7240	-23.7109	2.30298	0	
1.7247	-20.3615	5.0403	0	
1.7253	-20.6574	6.87864	0	
1.7260	-20.0499	5.35342	0	
1.7267	-16.3889	2.606	0	
1.7273	-8.75527	1.38381	0	
1.7280	0.389469	3.8282	0	
1.7287	5.88878	5.95947	0	
1.7293	4.96963	3.8282	0	
1.7300	-0.825675	4.43425	0	
1.7307	-8.1477	9.31293	0	
1.7313	-15.7813	5.0403	0	
1.7320	-20.6574	-5.63624	0	
1.7327	-16.3889	-8.68668	0	
1.7333	-3.27154	-4.11102	0	
1.7340	4.36206	0.464636	0	
1.7347	-0.514099	2.90903	0	
1.7353	-6.01341	0.76766	0	
1.7360	-5.09426	-1.36361	0	
1.7367	-6.93255	-0.444435	0	
1.7373	-14.5662	0.76766	0	
1.7380	-12.7279	2.606	0	
1.7387	-2.35239	2.30298	0	
1.7393	-5.09426	-4.11102	0	
1.7400	-16.0773	-7.76751	0	
1.7407	-7.54012	-2.28278	0	
1.7413	10.4689	5.0403	0	
1.7420	8.63064	7.78771	0	
1.7427	-4.19069	6.87864	0	
1.7433	-9.06684	5.35342	0	
1.7440	-9.67442	3.21205	0	
1.7447	-11.2011	2.30298	0	
1.7453	-10.282	4.13122	0	
1.7460	-9.06684	5.95947	0	
1.7467	-10.282	2.90903	0	
1.7473	-12.4163	-1.36361	0	
1.7480	-13.0394	-0.757559	0	
1.7487	-11.8087	-0.444435	0	
1.7493	-11.5127	-3.50498	0	
1.7500	-12.4163	-5.33322	0	
1.7507	-11.5127	-3.50498	0	
1.7513	-9.37842	-1.36361	0	
1.7520	-6.32498	-1.96965	0	
1.7527	-1.74482	-4.71707	0	
1.7533	0.0934726	-5.33322	0	
1.7540	-2.04082	-3.19185	0	
1.7547	-3.27154	-3.808	0	
1.7553	-2.04082	-5.03019	0	
1.7560	0.0934726	-2.88883	0	
1.7567	-1.43325	-0.757559	0	
1.7573	-6.01341	-1.36361	0	
1.7580	-8.75527	-0.444435	0	
1.7587	-7.54012	1.68683	0	
1.7593	-7.22855	1.68683	0	
1.7600	-9.98599	0.464636	0	
1.7607	-11.5127	1.08078	0	
1.7613	-13.943	1.98986	0	
1.7620	-19.7539	1.68683	0	
1.7627	-23.7109	2.30298	0	
1.7633	-22.4957	3.8282	0	
1.7640	-21.265	3.21205	0	
1.7647	-21.5766	1.38381	0	
1.7653	-21.5766	1.68683	0	
1.7660	-21.5766	3.21205	0	
1.7667	-21.5766	3.21205	0	
1.7673	-20.3615	3.21205	0	
1.7680	-18.8347	3.51508	0	
1.7687	-17.9156	3.8282	0	
1.7693	-16.7004	4.13122	0	
1.7700	-16.7004	4.73727	0	
1.7707	-17.9156	4.13122	0	
1.7713	-15.7813	4.43425	0	
1.7720	-10.8896	5.35342	0	
1.7727	-6.01341	1.38381	0	
1.7733	-5.70183	-3.50498	0	
1.7740	-13.943	-1.36361	0	
1.7747	-18.8347	3.51508	0	
1.7753	-8.75527	5.35342	0	
1.7760	-1.43325	7.18166	0	
1.7767	-8.45927	8.40386	0	
1.7773	-15.7813	5.65644	0	
1.7780	-15.1737	3.21205	0	
1.7787	-14.2546	4.43425	0	
1.7793	-13.0394	5.0403	0	
1.7800	-8.1477	5.0403	0	
1.7807	-5.09426	5.35342	0	
1.7813	-3.56754	3.21205	0	
1.7820	-2.95997	1.98986	0	
1.7827	-5.09426	1.98986	0	
1.7833	-8.75527	-4.11102	0	
1.7840	-12.7279	-12.3533	0	
1.7847	-17.308	-10.2119	0	
1.7853	-18.2272	-3.19185	0	
1.7860	-15.7813	-3.808	0	
1.7867	-13.3354	-6.24229	0	
1.7873	-12.4163	-4.11102	0	
1.7880	-13.0394	-1.36361	0	
1.7887	-13.3354	0.464636	0	
1.7893	-9.67442	3.21205	0	
1.7900	-5.70183	5.0403	0	
1.7907	-5.09426	3.21205	0	
1.7913	-4.19069	-0.757559	0	
1.7920	-0.514099	-2.88883	0	
1.7927	2.22776	-1.36361	0	
1.7933	1.30862	-0.444435	0	
1.7940	-0.514099	-3.19185	0	
1.7947	-0.218103	-4.11102	0	
1.7953	1.01262	0.161613	0	
1.7960	-0.514099	3.21205	0	
1.7967	-4.19069	1.68683	0	
1.7973	-8.45927	-0.444435	0	
1.7980	-9.06684	-1.36361	0	
1.7987	-7.22855	1.38381	0	
1.7993	-8.45927	3.51508	0	
1.8000	-9.67442	2.30298	0	
1.8007	-6.93255	1.08078	0	
1.8013	-5.09426	0.464636	0	
1.8020	-8.75527	-0.141411	0	
1.8027	-15.1737	0.76766	0	
1.8033	-19.7539	2.30298	0	
1.8040	-19.7539	1.08078	0	
1.8047	-17.308	0.464636	0	
1.8053	-17.308	0.464636	0	
1.8060	-15.7813	-1.06058	0	
1.8067	-13.0394	-0.141411	0	
1.8073	-13.3354	3.21205	0	
1.8080	-12.7279	2.30298	0	
1.8087	-11.2011	-0.141411	0	
1.8093	-14.2546	2.30298	0	
1.8100	-14.2546	5.0403	0	
1.8107	-5.09426	3.51508	0	
1.8113	4.36206	4.43425	0	
1.8120	5.88878	7.18166	0	
1.8127	2.22776	6.57562	0	
1.8133	-1.13725	5.95947	0	
1.8140	-0.825675	7.78771	0	
1.8147	-3.56754	6.57562	0	
1.8153	-10.8896	4.13122	0	
1.8160	-10.5936	5.0403	0	
1.8167	-3.87911	4.73727	0	
1.8173	-5.09426	2.606	0	
1.8180	-10.5936	3.21205	0	
1.8187	-8.1477	3.21205	0	
1.8193	-2.66397	-0.444435	0	
1.8200	-2.35239	-2.28278	0	
1.8207	-8.1477	-0.444435	0	
1.8213	-13.943	1.38381	0	
1.8220	-12.7279	2.606	0	
1.8227	-10.5936	6.26249	0	
1.8233	-15.4697	6.87864	0	
1.8240	-22.4957	1.38381	0	
1.8247	-24.63	-5.93927	0	
1.8253	-22.4957	-8.38366	0	
1.8260	-19.4423	-5.93927	0	
1.8267	-18.8347	-2.28278	0	
1.8273	-18.2272	-0.444435	0	
1.8280	-14.2546	-3.50498	0	
1.8287	-13.3354	-8.68668	0	
1.8293	-17.308	-8.08063	0	
1.8300	-17.9156	-3.808	0	
1.8307	-13.943	-1.66663	0	
1.8313	-11.2011	-0.757559	0	
1.8320	-8.45927	1.08078	0	
1.8327	-3.87911	1.38381	0	
1.8333	-2.04082	-0.444435	0	
1.8340	-3.56754	-2.28278	0	
1.8347	-4.79826	-2.88883	0	
1.8353	-5.70183	-1.96965	0	
1.8360	-6.93255	-1.36361	0	
1.8367	-6.32498	-1.66663	0	
1.8373	-5.09426	0.161613	0	
1.8380	-6.93255	2.30298	0	
1.8387	-7.8517	0.76766	0	
1.8393	-6.01341	-1.96965	0	
1.8400	-7.8517	-0.141411	0	
1.8407	-11.2011	3.21205	0	
1.8413	-10.5936	2.90903	0	
1.8420	-13.0394	1.38381	0	
1.8427	-17.9156	2.606	0	
1.8433	-17.604	4.43425	0	
1.8440	-16.9964	4.13122	0	
1.8447	-20.6574	2.30298	0	
1.8453	-20.969	-0.444435	0	
1.8460	-17.9156	-3.19185	0	
1.8467	-18.5232	-3.50498	0	
1.8473	-20.0499	-0.141411	0	
1.8480	-18.8347	3.51508	0	
1.8487	-18.8347	3.21205	0	
1.8493	-19.1307	2.606	0	
1.8500	-15.1737	4.13122	0	
1.8507	-8.75527	3.21205	0	
1.8513	-5.09426	0.464636	0	
1.8520	-5.70183	1.38381	0	
1.8527	-6.32498	2.30298	0	
1.8533	-5.70183	-0.444435	0	
1.8540	-5.09426	0.464636	0	
1.8547	-6.93255	4.13122	0	
1.8553	-6.93255	3.8282	0	
1.8560	-3.56754	3.21205	0	
1.8567	-2.95997	2.606	0	
1.8573	-7.8517	-0.444435	0	
1.8580	-4.79826	-0.444435	0	
1.8587	7.41549	2.90903	0	
1.8593	5.2812	3.21205	0	
1.8600	-7.8517	1.98986	0	
1.8607	-10.8896	2.30298	0	
1.8613	-7.54012	0.464636	0	
1.8620	-10.282	1.68683	0	
1.8627	-13.647	4.73727	0	
1.8633	-12.7279	1.68683	0	
1.8640	-12.1203	-1.36361	0	
1.8647	-13.3354	2.30298	0	
1.8653	-13.0394	3.8282	0	
1.8660	-9.37842	1.38381	0	
1.8667	-6.93255	1.38381	0	
1.8673	-10.5936	2.606	0	
1.8680	-13.647	3.21205	0	
1.8687	-11.5127	4.73727	0	
1.8693	-10.282	2.30298	0	
1.8700	-11.2011	-0.757559	0	
1.8707	-11.5127	-0.141411	0	
1.8713	-13.647	-1.06058	0	
1.8720	-16.0773	-2.88883	0	
1.8727	-13.647	-1.96965	0	
1.8733	-8.75527	-2.28278	0	
1.8740	-6.01341	-2.88883	0	
1.8747	-5.09426	0.464636	0	
1.8753	-7.54012	1.98986	0	
1.8760	-9.67442	-0.444435	0	
1.8767	-7.54012	1.38381	0	
1.8773	-5.09426	5.65644	0	
1.8780	-2.66397	5.35342	0	
1.8787	2.83534	2.90903	0	
1.8793	4.05048	1.98986	0	
1.8800	-0.514099	3.21205	0	
1.8807	-1.43325	6.57562	0	
1.8813	-2.66397	6.87864	0	
1.8820	-12.4163	3.21205	0	
1.8827	-20.3615	1.68683	0	
1.8833	-19.7539	2.30298	0	
1.8840	-18.5232	2.606	0	
1.8847	-19.4423	4.13122	0	
1.8853	-19.4423	3.8282	0	
1.8860	-16.0773	0.464636	0	
1.8867	-12.4163	-0.444435	0	
1.8873	-16.0773	1.38381	0	
1.8880	-21.265	1.38381	0	
1.8887	-11.8087	2.606	0	
1.8893	4.05048	6.26249	0	
1.8900	7.10392	5.35342	0	
1.8907	-2.35239	2.30298	0	
1.8913	-9.67442	4.13122	0	
1.8920	-7.8517	6.57562	0	
1.8927	-1.13725	5.0403	0	
1.8933	0.0934726	3.51508	0	
1.8940	-0.514099	5.35342	0	
1.8947	2.52376	5.0403	0	
1.8953	4.05048	0.161613	0	
1.8960	4.36206	-1.96965	0	
1.8967	6.80792	1.38381	0	
1.8973	3.14691	3.21205	0	
1.8980	-2.95997	1.08078	0	
1.8987	1.91619	2.30298	0	
1.8993	8.94221	5.95947	0	
1.9000	10.7649	5.65644	0	
1.9007	12.2916	2.606	0	
1.9013	4.96963	-0.444435	0	
1.9020	-9.06684	-5.33322	0	
1.9027	-15.4697	-6.85844	0	
1.9033	-16.9964	-0.757559	0	
1.9040	-22.4957	1.38381	0	
1.9047	-22.7917	-1.36361	0	
1.9053	-16.9964	0.161613	0	
1.9060	-14.5662	5.0403	0	
1.9067	-15.7813	5.65644	0	
1.9073	-17.604	2.30298	0	
1.9080	-18.5232	-0.444435	0	
1.9087	-13.3354	0.161613	0	
1.9093	-6.01341	0.464636	0	
1.9100	-4.19069	-1.06058	0	
1.9107	-6.32498	-0.757559	0	
1.9113	-9.06684	0.464636	0	
1.9120	-10.5936	-1.96965	0	
1.9127	-8.45927	-1.36361	0	
1.9133	-7.8517	3.21205	0	
1.9140	-9.67442	2.606	0	
1.9147	-3.27154	-1.06058	0	
1.9153	8.63064	-1.36361	0	
1.9160	14.4259	-1.06058	0	
1.9167	15.3451	-1.06058	0	
1.9173	13.2108	0.76766	0	
1.9180	4.36206	2.606	0	
1.9187	-4.48669	2.30298	0	
1.9193	-9.67442	0.464636	0	
1.9200	-21.5766	-1.96965	0	
1.9207	-36.8438	-2.88883	0	
1.9213	-38.9781	-2.28278	0	
1.9220	-34.3979	-1.06058	0	
1.9227	-35.3171	1.38381	0	
1.9233	-34.3979	1.98986	0	
1.9240	-28.8986	1.98986	0	
1.9247	-26.7643	2.90903	0	
1.9253	-27.0759	1.68683	0	
1.9260	-23.1033	-1.06058	0	
1.9267	-18.2272	0.76766	0	
1.9273	-16.9964	4.13122	0	
1.9280	-14.5662	3.51508	0	
1.9287	-9.98599	4.43425	0	
1.9293	-9.37842	7.78771	0	
1.9300	-8.75527	6.26249	0	
1.9307	-6.93255	2.606	0	
1.9313	-7.8517	5.35342	0	
1.9320	-12.7279	8.70688	0	
1.9327	-12.4163	2.30298	0	
1.9333	-10.5936	-7.76751	0	
1.9340	-14.5662	-11.4341	0	
1.9347	-16.9964	-9.30283	0	
1.9353	-12.4163	-5.93927	0	
1.9360	-8.75527	-2.28278	0	
1.9367	-9.06684	-2.28278	0	
1.9373	-11.2011	-3.50498	0	
1.9380	-13.3354	-1.36361	0	
1.9387	-13.3354	-0.757559	0	
1.9393	-11.2011	-1.36361	0	
1.9400	-11.2011	2.30298	0	
1.9407	-14.8621	2.90903	0	
1.9413	-17.9156	-0.141411	0	
1.9420	-20.0499	4.13122	0	
1.9427	-22.4957	6.87864	0	
1.9433	-24.3185	1.38381	0	
1.9440	-22.4957	2.30298	0	
1.9447	-17.9156	9.00991	0	
1.9453	-16.3889	6.87864	0	
1.9460	-19.4423	2.30298	0	
1.9467	-19.7539	0.76766	0	
1.9473	-16.9964	-2.28278	0	
1.9480	-16.7004	-5.03019	0	
1.9487	-16.3889	-2.28278	0	
1.9493	-15.4697	1.68683	0	
1.9500	-15.1737	1.68683	0	
1.9507	-14.2546	-2.28278	0	
1.9513	-13.0394	-4.41405	0	
1.9520	-9.37842	-1.36361	0	
1.9527	0.0934726	1.38381	0	
1.9533	3.44291	2.30298	0	
1.9540	-4.48669	2.606	0	
1.9547	-7.8517	0.464636	0	
1.9553	-6.93255	-1.96965	0	
1.9560	-13.3354	-0.444435	0	
1.9567	-10.5936	0.464636	0	
1.9573	4.67363	-0.141411	0	
1.9580	7.71149	3.51508	0	
1.9587	-2.35239	6.87864	0	
1.9593	-9.06684	4.13122	0	
1.9600	-12.4163	2.30298	0	
1.9607	-6.32498	5.95947	0	
1.9613	7.41549	8.70688	0	
1.9620	3.75448	5.95947	0	
1.9627	-13.3354	-1.36361	0	
1.9633	-19.7539	-5.93927	0	
1.9640	-19.4423	-3.808	0	
1.9647	-21.5766	1.38381	0	
1.9653	-23.7109	2.606	0	
1.9660	-28.8986	-0.444435	0	
1.9667	-29.8178	-1.96965	0	
1.9673	-16.3889	0.464636	0	
1.9680	-4.19069	3.21205	0	
1.9687	-4.19069	2.606	0	
1.9693	-6.93255	2.30298	0	
1.9700	-7.8517	1.38381	0	
1.9707	-6.93255	-1.06058	0	
1.9713	-0.514099	-1.06058	0	
1.9720	5.5772	2.30298	0	
1.9727	9.54979	3.51508	0	
1.9733	13.2108	4.43425	0	
1.9740	8.94221	7.18166	0	
1.9747	5.5772	5.95947	0	
1.9753	12.6032	0.464636	0	
1.9760	15.9527	-2.28278	0	
1.9767	9.23821	-1.36361	0	
1.9773	4.05048	1.08078	0	
1.9780	-0.514099	2.90903	0	
1.9787	-7.8517	1.38381	0	
1.9793	-9.98599	-0.444435	0	
1.9800	-10.8896	1.08078	0	
1.9807	-11.5127	1.68683	0	
1.9813	-6.93255	2.30298	0	
1.9820	-6.93255	5.35342	0	
1.9827	-12.7279	6.57562	0	
1.9833	-13.647	4.13122	0	
1.9840	-12.1203	3.8282	0	
1.9847	-13.943	4.43425	0	
1.9853	-8.75527	4.13122	0	
1.9860	0.0934726	4.73727	0	
1.9867	0.701045	5.35342	0	
1.9873	0.0934726	2.606	0	
1.9880	4.05048	0.161613	0	
1.9887	4.67363	1.68683	0	
1.9893	1.91619	3.21205	0	
1.9900	0.701045	2.30298	0	
1.9907	-6.01341	-0.444435	0	
1.9913	-17.9156	-3.19185	0	
1.9920	-21.5766	-4.41405	0	
1.9927	-16.7004	-4.11102	0	
1.9933	-9.98599	-2.28278	0	
1.9940	-4.19069	-0.757559	0	
1.9947	-1.43325	0.464636	0	
1.9953	-3.27154	-0.757559	0	
1.9960	-5.09426	-0.757559	0	
1.9967	-6.01341	0.464636	0	
1.9973	-6.01341	-0.141411	0	
1.9980	-4.19069	-1.36361	0	
1.9987	-3.27154	-0.444435	0	
1.9993	-5.09426	0.464636	0	
2.0000	-6.93255	2.606	0	
2.0007	-7.54012	6.87864	0	
2.0013	-9.37842	7.48469	0	
2.0020	-12.4163	4.43425	0	
2.0027	-13.3354	3.21205	0	
2.0033	-12.4163	3.21205	0	
2.0040	-16.0773	1.98986	0	
2.0047	-22.7917	1.68683	0	
2.0053	-22.7917	-0.444435	0	
2.0060	-16.0773	-6.85844	0	
2.0067	-13.3354	-12.3533	0	
2.0073	-15.1737	-9.60585	0	
2.0080	-16.3889	-3.50498	0	
2.0087	-15.1737	-3.19185	0	
2.0093	-14.2546	-4.11102	0	
2.0100	-12.7279	-1.36361	0	
2.0107	-11.5127	0.464636	0	
2.0113	-9.37842	-0.444435	0	
2.0120	-6.32498	1.08078	0	
2.0127	-4.79826	2.30298	0	
2.0133	-4.19069	1.98986	0	
2.0140	-2.35239	2.30298	0	
2.0147	-1.13725	2.30298	0	
2.0153	-3.56754	0.464636	0	
2.0160	-6.93255	2.30298	0	
2.0167	-7.8517	4.43425	0	
2.0173	-9.98599	3.51508	0	
2.0180	-13.647	2.606	0	
2.0187	-13.647	3.8282	0	
2.0193	-13.943	4.73727	0	
2.0200	-18.8347	5.65644	0	
2.0207	-20.969	6.87864	0	
2.0213	-18.8347	8.10084	0	
2.0220	-19.7539	9.00991	0	
2.0227	-21.8882	8.10084	0	
2.0233	-20.3615	5.65644	0	
2.0240	-17.604	5.0403	0	
2.0247	-16.0773	2.30298	0	
2.0253	-18.2272	-6.55541	0	
2.0260	-23.4149	-13.2623	0	
2.0267	-24.0225	-9.60585	0	
2.0273	-19.7539	-3.50498	0	
2.0280	-20.3615	-0.757559	0	
2.0287	-22.4957	1.38381	0	
2.0293	-20.3615	1.38381	0	
2.0300	-20.3615	0.464636	0	
2.0307	-23.4149	3.8282	0	
2.0313	-20.969	7.18166	0	
2.0320	-13.3354	2.606	0	
2.0327	-9.06684	-1.36361	0	
2.0333	-9.98599	1.98986	0	
2.0340	-11.5127	2.606	0	
2.0347	-11.8087	-2.28278	0	
2.0353	-11.8087	-3.19185	0	
2.0360	-11.5127	0.464636	0	
2.0367	-10.282	1.38381	0	
2.0373	-11.5127	0.464636	0	
2.0380	-14.2546	0.76766	0	
2.0387	-13.943	1.98986	0	
2.0393	-13.3354	2.30298	0	
2.0400	-16.0773	0.76766	0	
2.0407	-19.1307	-0.444435	0	
2.0413	-23.1033	1.68683	0	
2.0420	-26.4683	3.21205	0	
2.0427	-26.4683	2.606	0	
2.0433	-27.9795	2.606	0	
2.0440	-32.5596	3.21205	0	
2.0447	-26.7643	4.13122	0	
2.0453	-9.67442	7.78771	0	
2.0460	0.701045	10.2321	0	
2.0467	-1.74482	9.31293	0	
2.0473	-5.40583	7.78771	0	
2.0480	-6.01341	5.95947	0	
2.0487	-9.37842	4.13122	0	
2.0493	-13.943	6.26249	0	
2.0500	-13.3354	7.78771	0	
2.0507	-10.282	3.21205	0	
2.0513	-8.75527	1.08078	0	
2.0520	-5.40583	2.90903	0	
2.0527	0.701045	2.606	0	
2.0533	3.14691	0.161613	0	
2.0540	3.14691	-2.5858	0	
2.0547	6.20035	-5.03019	0	
2.0553	8.33464	-4.71707	0	
2.0560	5.5772	-2.88883	0	
2.0567	2.22776	-3.19185	0	
2.0573	-2.35239	-2.28278	0	
2.0580	-9.67442	1.38381	0	
2.0587	-12.1203	1.38381	0	
2.0593	-8.45927	0.76766	0	
2.0600	-7.8517	4.13122	0	
2.0607	-9.98599	3.21205	0	
2.0613	-11.5127	-1.66663	0	
2.0620	-15.7813	-0.444435	0	
2.0627	-18.2272	4.13122	0	
2.0633	-13.943	4.13122	0	
2.0640	-11.5127	2.606	0	
2.0647	-14.2546	1.38381	0	
2.0653	-14.2546	-1.06058	0	
2.0660	-13.943	0.161613	0	
2.0667	-18.2272	4.13122	0	
2.0673	-19.7539	3.21205	0	
2.0680	-13.647	1.68683	0	
2.0687	-2.95997	3.8282	0	
2.0693	4.05048	3.51508	0	
2.0700	-1.13725	1.38381	0	
2.0707	-9.67442	1.98986	0	
2.0713	-4.48669	0.76766	0	
2.0720	12.6032	-2.88883	0	
2.0727	22.6671	-4.71707	0	
2.0733	19.0061	-5.93927	0	
2.0740	10.1574	-5.63624	0	
2.0747	4.05048	-2.28278	0	
2.0753	1.62019	-1.06058	0	
2.0760	-0.514099	-1.36361	0	
2.0767	-1.43325	-0.757559	0	
2.0773	-0.218103	-1.36361	0	
2.0780	-1.43325	-2.28278	0	
2.0787	-7.8517	-0.141411	0	
2.0793	-10.282	2.30298	0	
2.0800	-3.87911	2.30298	0	
2.0807	-2.04082	2.30298	0	
2.0813	-7.22855	1.38381	0	
2.0820	-6.32498	0.464636	0	
2.0827	0.701045	2.606	0	
2.0833	1.30862	4.13122	0	
2.0840	-0.825675	1.38381	0	
2.0847	-0.514099	-0.444435	0	
2.0853	-2.35239	1.68683	0	
2.0860	-6.01341	5.0403	0	
2.0867	-9.37842	5.35342	0	
2.0873	-18.5232	3.51508	0	
2.0880	-32.5596	3.21205	0	
2.0887	-38.6665	4.73727	0	
2.0893	-33.4788	6.87864	0	
2.0900	-27.6835	8.70688	0	
2.0907	-24.0225	7.18166	0	
2.0913	-16.3889	2.606	0	
2.0920	-9.98599	-0.444435	0	
2.0927	-8.45927	-1.66663	0	
2.0933	-6.32498	-4.41405	0	
2.0940	-4.19069	-7.46449	0	
2.0947	-5.09426	-8.38366	0	
2.0953	-3.87911	-7.16146	0	
2.0960	-0.514099	-4.71707	0	
2.0967	-1.43325	-2.28278	0	
2.0973	-5.40583	-1.36361	0	
2.0980	-8.1477	-1.66663	0	
2.0987	-9.67442	-1.36361	0	
2.0993	-9.37842	0.76766	0	
2.1000	-9.37842	2.30298	0	
2.1007	-11.5127	-0.444435	0	
2.1013	-12.7279	-1.36361	0	
2.1020	-13.3354	2.30298	0	
2.1027	-14.5662	3.21205	0	
2.1033	-16.9964	0.464636	0	
2.1040	-18.8347	0.464636	0	
2.1047	-17.9156	2.606	0	
2.1053	-15.7813	5.0403	0	
2.1060	-13.0394	8.70688	0	
2.1067	-8.75527	9.92908	0	
2.1073	-6.01341	7.78771	0	
2.1080	-7.54012	6.26249	0	
2.1087	-9.37842	6.26249	0	
2.1093	-7.54012	5.0403	0	
2.1100	-8.1477	2.30298	0	
2.1107	-11.5127	-0.757559	0	
2.1113	-10.5936	-5.03019	0	
2.1120	-6.01341	-10.5149	0	
2.1127	-3.27154	-12.0401	0	
2.1133	-1.74482	-7.16146	0	
2.1140	0.389469	-2.5858	0	
2.1147	0.0934726	-0.757559	0	
2.1153	-3.27154	1.68683	0	
2.1160	-6.01341	1.68683	0	
2.1167	-5.70183	-1.06058	0	
2.1173	-6.62098	-0.444435	0	
2.1180	-9.06684	1.68683	0	
2.1187	-8.75527	2.30298	0	
2.1193	-9.67442	1.98986	0	
2.1200	-15.1737	0.464636	0	
2.1207	-12.7279	-0.444435	0	
2.1213	-1.43325	5.0403	0	
2.1220	0.701045	9.62606	0	
2.1227	-10.282	8.40386	0	
2.1233	-17.604	8.10084	0	
2.1240	-16.0773	9.31293	0	
2.1247	-18.2272	7.18166	0	
2.1253	-25.2376	6.26249	0	
2.1260	-22.4957	6.87864	0	
2.1267	-7.8517	4.73727	0	
2.1273	-2.66397	0.76766	0	
2.1280	-10.8896	-4.71707	0	
2.1287	-14.5662	-9.90888	0	
2.1293	-10.282	-6.85844	0	
2.1300	-8.75527	0.161613	0	
2.1307	-8.75527	1.38381	0	
2.1313	-6.93255	-0.444435	0	
2.1320	-6.93255	0.464636	0	
2.1327	-6.32498	0.464636	0	
2.1333	-2.35239	-2.88883	0	
2.1340	0.701045	-4.41405	0	
2.1347	1.91619	-1.96965	0	
2.1353	1.30862	0.464636	0	
2.1360	-2.04082	1.38381	0	
2.1367	-4.48669	1.38381	0	
2.1373	-4.19069	0.76766	0	
2.1380	-4.19069	-0.444435	0	
2.1387	-4.19069	-0.757559	0	
2.1393	-4.48669	-0.141411	0	
2.1400	-5.70183	0.76766	0	
2.1407	-6.93255	1.08078	0	
2.1413	-9.67442	0.464636	0	
2.1420	-15.7813	3.51508	0	
2.1427	-20.6574	8.10084	0	
2.1433	-23.1033	6.87864	0	
2.1440	-26.4683	2.90903	0	
2.1447	-27.9795	3.8282	0	
2.1453	-26.1568	5.95947	0	
2.1460	-25.5492	4.13122	0	
2.1467	-24.9416	3.21205	0	
2.1473	-22.4957	4.43425	0	
2.1480	-24.0225	5.0403	0	
2.1487	-28.6026	6.87864	0	
2.1493	-27.6835	5.65644	0	
2.1500	-21.5766	0.464636	0	
2.1507	-12.4163	0.464636	0	
2.1513	2.83534	3.21205	0	
2.1520	13.2108	1.98986	0	
2.1527	8.63064	2.606	0	
2.1533	4.05048	6.26249	0	
2.1540	5.88878	5.95947	0	
2.1547	-0.218103	3.8282	0	
2.1553	-12.1203	5.0403	0	
2.1560	-12.1203	5.35342	0	
2.1567	-6.32498	0.76766	0	
2.1573	-9.37842	-7.16146	0	
2.1580	-13.943	-13.2623	0	
2.1587	-10.5936	-11.4341	0	
2.1593	-6.93255	-6.24229	0	
2.1600	-6.32498	-2.88883	0	
2.1607	-8.75527	0.161613	0	
2.1613	-13.0394	3.21205	0	
2.1620	-15.4697	3.21205	0	
2.1627	-17.308	1.38381	0	
2.1633	-20.6574	0.161613	0	
2.1640	-23.4149	-2.28278	0	
2.1647	-24.0225	-2.28278	0	
2.1653	-22.4957	1.38381	0	
2.1660	-18.2272	2.606	0	
2.1667	-16.0773	-0.444435	0	
2.1673	-16.7004	-1.36361	0	
2.1680	-16.0773	0.76766	0	
2.1687	-15.1737	1.68683	0	
2.1693	-16.0773	1.38381	0	
2.1700	-15.7813	3.21205	0	
2.1707	-13.3354	5.35342	0	
2.1713	-12.4163	6.57562	0	
2.1720	-9.67442	8.40386	0	
2.1727	-4.19069	6.87864	0	
2.1733	-2.95997	1.38381	0	
2.1740	-6.01341	-0.444435	0	
2.1747	-6.01341	-0.444435	0	
2.1753	-3.27154	-2.88883	0	
2.1760	-1.74482	-1.36361	0	
2.1767	-0.514099	3.21205	0	
2.1773	-0.218103	1.08078	0	
2.1780	-1.74482	-2.28278	0	
2.1787	-4.19069	0.464636	0	
2.1793	-6.93255	2.30298	0	
2.1800	-10.5936	-0.141411	0	
2.1807	-13.943	0.161613	0	
2.1813	-14.8621	1.68683	0	
2.1820	-15.7813	0.76766	0	
2.1827	-14.2546	0.161613	0	
2.1833	-6.93255	3.21205	0	
2.1840	-2.04082	6.57562	0	
2.1847	-7.22855	5.65644	0	
2.1853	-12.4163	3.21205	0	
2.1860	-11.5127	2.90903	0	
2.1867	-14.2546	0.464636	0	
2.1873	-17.308	-2.88883	0	
2.1880	-10.8896	-0.141411	0	
2.1887	-3.87911	3.21205	0	
2.1893	-3.27154	0.161613	0	
2.1900	1.62019	0.161613	0	
2.1907	12.2916	3.21205	0	
2.1913	14.4259	0.161613	0	
2.1920	11.3881	-4.11102	0	
2.1927	9.54979	-1.66663	0	
2.1933	6.49635	1.38381	0	
2.1940	7.41549	1.68683	0	
2.1947	11.3881	5.35342	0	
2.1953	-2.35239	6.57562	0	
2.1960	-27.3719	1.68683	0	
2.1967	-27.0759	1.38381	0	
2.1973	-6.62098	5.65644	0	
2.1980	-0.514099	5.0403	0	
2.1987	-6.01341	2.606	0	
2.1993	-2.95997	2.90903	0	
2.2000	0.701045	1.08078	0	
2.2007	-2.04082	-2.28278	0	
2.2013	-3.87911	-1.36361	0	
2.2020	-6.01341	2.30298	0	
2.2027	-11.8087	1.98986	0	
2.2033	-15.1737	1.38381	0	
2.2040	-15.1737	4.13122	0	
2.2047	-16.0773	5.65644	0	
2.2053	-18.5232	4.43425	0	
2.2060	-18.8347	3.21205	0	
2.2067	-16.7004	1.08078	0	
2.2073	-13.0394	-1.66663	0	
2.2080	-10.5936	-1.36361	0	
2.2087	-8.75527	-1.66663	0	
2.2093	-6.32498	-2.28278	0	
2.2100	-4.79826	-0.444435	0	
2.2107	-6.01341	0.464636	0	
2.2113	-6.32498	-1.06058	0	
2.2120	-2.95997	0.464636	0	
2.2127	0.389469	0.161613	0	
2.2133	-0.514099	-3.19185	0	
2.2140	-0.825675	-1.06058	0	
2.2147	0.389469	4.73727	0	
2.2153	0.0934726	5.0403	0	
2.2160	1.91619	3.8282	0	
2.2167	4.36206	2.90903	0	
2.2173	-0.514099	1.38381	0	
2.2180	-5.70183	1.98986	0	
2.2187	-6.62098	3.8282	0	
2.2193	-10.282	2.90903	0	
2.2200	-14.5662	1.08078	0	
2.2207	-13.647	-3.19185	0	
2.2213	-14.2546	-8.98971	0	
2.2220	-17.9156	-7.46449	0	
2.2227	-25.2376	-1.96965	0	
2.2233	-33.1672	-2.28278	0	
2.2240	-27.3719	-1.36361	0	
2.2247	-13.0394	5.0403	0	
2.2253	-13.943	6.87864	0	
2.2260	-22.1842	2.90903	0	
2.2267	-19.1307	2.606	0	
2.2273	-16.7004	2.90903	0	
2.2280	-17.9156	-0.444435	0	
2.2287	-13.647	-1.36361	0	
2.2293	-12.7279	1.38381	0	
2.2300	-16.7004	1.38381	0	
2.2307	-14.5662	-0.444435	0	
2.2313	-11.5127	-0.444435	0	
2.2320	-11.5127	0.161613	0	
2.2327	-9.67442	-0.141411	0	
2.2333	-8.1477	-1.36361	0	
2.2340	-9.67442	-2.28278	0	
2.2347	-9.67442	-1.06058	0	
2.2353	-11.2011	-0.444435	0	
2.2360	-10.282	-1.66663	0	
2.2367	-2.35239	-1.36361	0	
2.2373	1.30862	2.606	0	
2.2380	-4.79826	4.13122	0	
2.2387	-8.45927	1.38381	0	
2.2393	-7.54012	-0.444435	0	
2.2400	-8.1477	0.464636	0	
2.2407	-9.67442	1.08078	0	
2.2413	-12.4163	0.76766	0	
2.2420	-18.8347	1.38381	0	
2.2427	-24.0225	3.21205	0	
2.2433	-24.9416	4.43425	0	
2.2440	-23.4149	4.43425	0	
2.2447	-20.6574	4.43425	0	
2.2453	-19.7539	3.8282	0	
2.2460	-19.7539	-0.141411	0	
2.2467	-16.9964	-4.41405	0	
2.2473	-13.647	-5.03019	0	
2.2480	-11.2011	-3.19185	0	
2.2487	-6.62098	-3.19185	0	
2.2493	-6.32498	-2.28278	0	
2.2500	-12.1203	1.68683	0	
2.2507	-8.75527	4.13122	0	
2.2513	2.83534	3.21205	0	
2.2520	5.2812	2.30298	0	
2.2527	-0.514099	2.30298	0	
2.2533	-3.27154	4.13122	0	
2.2540	-6.93255	5.95947	0	
2.2547	-11.2011	3.51508	0	
2.2553	-8.75527	-2.5858	0	
2.2560	-2.66397	-7.46449	0	
2.2567	0.701045	-7.46449	0	
2.2573	-0.825675	-5.03019	0	
2.2580	-5.40583	-2.28278	0	
2.2587	-9.37842	-0.141411	0	
2.2593	-9.98599	0.161613	0	
2.2600	-9.98599	-1.96965	0	
2.2607	-10.8896	-1.36361	0	
2.2613	-12.7279	1.68683	0	
2.2620	-13.647	1.38381	0	
2.2627	-11.5127	-2.28278	0	
2.2633	-9.67442	-2.28278	0	
2.2640	-10.8896	1.38381	0	
2.2647	-10.8896	4.43425	0	
2.2653	-10.8896	2.30298	0	
2.2660	-15.1737	-2.28278	0	
2.2667	-16.0773	-2.28278	0	
2.2673	-11.2011	1.98986	0	
2.2680	-9.06684	2.90903	0	
2.2687	-9.98599	-0.444435	0	
2.2693	-10.5936	-1.36361	0	
2.2700	-15.1737	1.08078	0	
2.2707	-17.9156	2.30298	0	
2.2713	-10.5936	1.68683	0	
2.2720	-3.27154	3.51508	0	
2.2727	-1.43325	5.0403	0	
2.2733	1.91619	1.68683	0	
2.2740	4.96963	0.464636	0	
2.2747	1.01262	3.51508	0	
2.2753	-5.70183	2.30298	0	
2.2760	-7.54012	-1.36361	0	
2.2767	-7.54012	0.76766	0	
2.2773	-10.282	4.13122	0	
2.2780	-12.4163	4.73727	0	
2.2787	-9.67442	5.0403	0	
2.2793	-10.5936	3.8282	0	
2.2800	-17.604	3.21205	0	
2.2807	-18.5232	8.10084	0	
2.2813	-9.67442	11.7573	0	
2.2820	-0.514099	10.5351	0	
2.2827	5.2812	11.4543	0	
2.2833	4.36206	10.5351	0	
2.2840	-2.04082	3.51508	0	
2.2847	-1.43325	0.161613	0	
2.2853	5.2812	0.464636	0	
2.2860	1.91619	0.464636	0	
2.2867	-8.45927	1.98986	0	
2.2873	-16.9964	0.464636	0	
2.2880	-28.291	-3.50498	0	
2.2887	-39.2741	-5.93927	0	
2.2893	-37.7474	-6.24229	0	
2.2900	-29.2102	-5.03019	0	
2.2907	-24.3185	-0.757559	0	
2.2913	-19.4423	0.464636	0	
2.2920	-13.647	-0.757559	0	
2.2927	-10.5936	-1.06058	0	
2.2933	-8.75527	-2.28278	0	
2.2940	-7.8517	-2.5858	0	
2.2947	-8.45927	1.68683	0	
2.2953	-8.45927	4.13122	0	
2.2960	-6.93255	-0.141411	0	
2.2967	-6.62098	-3.808	0	
2.2973	-9.06684	-4.71707	0	
2.2980	-10.5936	-2.88883	0	
2.2987	-10.5936	0.161613	0	
2.2993	-11.8087	0.76766	0	
2.3000	-15.7813	-0.444435	0	
2.3007	-19.1307	-0.444435	0	
2.3013	-19.7539	-0.141411	0	
2.3020	-20.6574	-0.141411	0	
2.3027	-22.7917	0.464636	0	
2.3033	-23.4149	2.30298	0	
2.3040	-22.4957	3.51508	0	
2.3047	-22.7917	2.30298	0	
2.3053	-22.4957	1.38381	0	
2.3060	-23.4149	2.90903	0	
2.3067	-23.4149	2.90903	0	
2.3073	-18.2272	1.38381	0	
2.3080	-12.4163	2.30298	0	
2.3087	-14.2546	3.51508	0	
2.3093	-16.3889	2.606	0	
2.3100	-13.3354	1.98986	0	
2.3107	-12.7279	0.161613	0	
2.3113	-12.7279	-2.28278	0	
2.3120	-7.54012	-2.28278	0	
2.3127	-5.40583	-0.444435	0	
2.3133	-6.93255	0.464636	0	
2.3140	-4.19069	2.30298	0	
2.3147	-0.514099	3.51508	0	
2.3153	-2.95997	2.606	0	
2.3160	-7.8517	1.68683	0	
2.3167	-11.5127	1.68683	0	
2.3173	-11.2011	2.30298	0	
2.3180	-9.67442	1.38381	0	
2.3187	-9.98599	-1.66663	0	
2.3193	-8.1477	-1.96965	0	
2.3200	-7.22855	-1.06058	0	
2.3207	-12.4163	-2.28278	0	
2.3213	-13.3354	-0.444435	0	
2.3220	-6.01341	4.13122	0	
2.3227	-5.40583	1.68683	0	
2.3233	-12.1203	-2.88883	0	
2.3240	-14.5662	-0.444435	0	
2.3247	-14.2546	3.21205	0	
2.3253	-14.8621	3.51508	0	
2.3260	-15.1737	5.95947	0	
2.3267	-13.943	7.18166	0	
2.3273	-7.8517	5.65644	0	
2.3280	-3.27154	6.26249	0	
2.3287	-5.09426	7.48469	0	
2.3293	-4.19069	5.0403	0	
2.3300	3.75448	2.90903	0	
2.3307	5.5772	0.464636	0	
2.3313	0.389469	-5.03019	0	
2.3320	-2.04082	-8.68668	0	
2.3327	-2.04082	-6.24229	0	
2.3333	-3.87911	-2.28278	0	
2.3340	-5.09426	-1.36361	0	
2.3347	-4.48669	-0.444435	0	
2.3353	-1.74482	2.30298	0	
2.3360	1.30862	3.21205	0	
2.3367	0.389469	1.38381	0	
2.3373	-4.19069	0.464636	0	
2.3380	-8.75527	1.98986	0	
2.3387	-8.75527	2.90903	0	
2.3393	-4.19069	2.30298	0	
2.3400	-3.27154	-0.141411	0	
2.3407	-6.62098	-2.28278	0	
2.3413	-6.93255	-2.28278	0	
2.3420	-11.5127	-0.757559	0	
2.3427	-19.7539	1.98986	0	
2.3433	-16.9964	7.18166	0	
2.3440	-6.01341	11.4543	0	
2.3447	-5.40583	10.5351	0	
2.3453	-13.943	5.95947	0	
2.3460	-18.2272	4.13122	0	
2.3467	-17.604	5.95947	0	
2.3473	-16.3889	7.78771	0	
2.3480	-16.7004	7.48469	0	
2.3487	-18.2272	3.51508	0	
2.3493	-17.308	-0.757559	0	
2.3500	-13.3354	-0.757559	0	
2.3507	-10.5936	1.08078	0	
2.3513	-11.2011	1.38381	0	
2.3520	-13.0394	3.21205	0	
2.3527	-14.2546	5.35342	0	
2.3533	-14.2546	1.38381	0	
2.3540	-13.647	-6.24229	0	
2.3547	-12.4163	-9.30283	0	
2.3553	-9.37842	-6.85844	0	
2.3560	-8.75527	-3.50498	0	
2.3567	-12.4163	-2.28278	0	
2.3573	-11.8087	-1.66663	0	
2.3580	-6.93255	0.464636	0	
2.3587	-8.1477	0.464636	0	
2.3593	-13.943	0.464636	0	
2.3600	-10.8896	2.90903	0	
2.3607	-2.66397	4.13122	0	
2.3613	-4.48669	4.13122	0	
2.3620	-14.2546	6.26249	0	
2.3627	-19.1307	9.31293	0	
2.3633	-18.5232	9.62606	0	
2.3640	-19.4423	8.70688	0	
2.3647	-19.7539	7.18166	0	
2.3653	-16.9964	4.73727	0	
2.3660	-16.3889	2.90903	0	
2.3667	-22.1842	1.38381	0	
2.3673	-25.5492	-0.757559	0	
2.3680	-20.6574	-2.88883	0	
2.3687	-15.7813	-5.03019	0	
2.3693	-13.3354	-4.11102	0	
2.3700	-8.75527	-0.444435	0	
2.3707	-7.54012	2.606	0	
2.3713	-12.1203	2.30298	0	
2.3720	-10.5936	-0.444435	0	
2.3727	-1.74482	-0.757559	0	
2.3733	2.52376	1.38381	0	
2.3740	-0.825675	1.98986	0	
2.3747	-6.93255	0.161613	0	
2.3753	-10.5936	0.464636	0	
2.3760	-10.8896	3.21205	0	
2.3767	-13.0394	5.35342	0	
2.3773	-14.2546	5.0403	0	
2.3780	-11.8087	2.30298	0	
2.3787	-11.8087	2.606	0	
2.3793	-12.7279	5.65644	0	
2.3800	-4.79826	1.68683	0	
2.3807	1.01262	-5.03019	0	
2.3813	-6.01341	-3.808	0	
2.3820	-11.5127	1.38381	0	
2.3827	-10.282	3.21205	0	
2.3833	-11.5127	3.51508	0	
2.3840	-19.4423	4.43425	0	
2.3847	-31.3445	4.43425	0	
2.3853	-46.3001	5.65644	0	
2.3860	-56.9716	5.65644	0	
2.3867	-55.1488	2.606	0	
2.3873	-45.9885	-0.757559	0	
2.3880	-38.9781	-1.96965	0	
2.3887	-32.5596	-0.757559	0	
2.3893	-21.265	1.08078	0	
2.3900	-9.67442	0.76766	0	
2.3907	-1.74482	-1.06058	0	
2.3913	4.96963	-1.66663	0	
2.3920	6.20035	-0.444435	0	
2.3927	-1.43325	-0.444435	0	
2.3933	-3.56754	-2.28278	0	
2.3940	3.75448	-2.28278	0	
2.3947	3.44291	-0.141411	0	
2.3953	-5.40583	0.464636	0	
2.3960	-8.1477	-0.141411	0	
2.3967	-7.8517	-0.444435	0	
2.3973	-10.5936	-0.444435	0	
2.3980	-9.98599	1.98986	0	
2.3987	-6.93255	4.13122	0	
2.3993	-8.45927	2.30298	0	
2.4000	-11.2011	1.68683	0	
2.4007	-10.282	2.30298	0	
2.4013	-10.5936	2.30298	0	
2.4020	-13.3354	3.21205	0	
2.4027	-14.8621	5.0403	0	
2.4033	-16.7004	3.51508	0	
2.4040	-19.1307	2.606	0	
2.4047	-19.7539	3.21205	0	
2.4053	-13.647	2.606	0	
2.4060	-3.87911	3.21205	0	
2.4067	3.14691	4.43425	0	
2.4073	1.30862	2.90903	0	
2.4080	-6.32498	2.30298	0	
2.4087	-13.3354	5.0403	0	
2.4093	-15.1737	6.57562	0	
2.4100	-13.3354	6.26249	0	
2.4107	-9.67442	3.21205	0	
2.4113	-5.09426	-2.28278	0	
2.4120	-0.218103	-4.11102	0	
2.4127	0.389469	-1.36361	0	
2.4133	-1.13725	0.464636	0	
2.4140	1.91619	0.464636	0	
2.4147	4.96963	-0.444435	0	
2.4153	3.44291	-0.757559	0	
2.4160	2.52376	1.38381	0	
2.4167	5.88878	1.98986	0	
2.4173	5.88878	-2.28278	0	
2.4180	0.0934726	-3.808	0	
2.4187	-4.79826	-0.444435	0	
2.4193	-4.19069	1.98986	0	
2.4200	-1.43325	1.68683	0	
2.4207	-2.35239	0.464636	0	
2.4213	-9.06684	0.161613	0	
2.4220	-16.9964	2.606	0	
2.4227	-19.4423	3.21205	0	
2.4233	-17.9156	0.464636	0	
2.4240	-17.9156	1.38381	0	
2.4247	-18.8347	3.8282	0	
2.4253	-19.1307	1.38381	0	
2.4260	-16.9964	-1.96965	0	
2.4267	-11.8087	0.76766	0	
2.4273	-8.1477	5.95947	0	
2.4280	-10.5936	7.48469	0	
2.4287	-15.1737	5.0403	0	
2.4293	-15.4697	4.43425	0	
2.4300	-12.7279	5.65644	0	
2.4307	-10.8896	5.35342	0	
2.4313	-10.5936	4.43425	0	
2.4320	-8.1477	3.8282	0	
2.4327	-3.56754	-0.757559	0	
2.4333	-0.514099	-8.68668	0	
2.4340	0.701045	-11.4341	0	
2.4347	2.52376	-6.85844	0	
2.4353	2.83534	-2.88883	0	
2.4360	3.44291	-2.28278	0	
2.4367	10.4689	-1.06058	0	
2.4373	14.7375	1.38381	0	
2.4380	6.80792	2.90903	0	
2.4387	-5.09426	3.51508	0	
2.4393	-10.5936	2.30298	0	
2.4400	-13.3354	0.464636	0	
2.4407	-18.2272	1.98986	0	
2.4413	-18.8347	2.30298	0	
2.4420	-12.7279	-2.88883	0	
2.4427	-9.37842	-5.33322	0	
2.4433	-12.4163	-0.757559	0	
2.4440	-11.5127	1.98986	0	
2.4447	-8.45927	-1.36361	0	
2.4453	-12.4163	-1.96965	0	
2.4460	-15.1737	2.30298	0	
2.4467	-11.2011	4.13122	0	
2.4473	-9.67442	3.21205	0	
2.4480	-12.4163	3.21205	0	
2.4487	-14.2546	5.95947	0	
2.4493	-16.0773	8.70688	0	
2.4500	-15.1737	7.78771	0	
2.4507	-9.06684	3.51508	0	
2.4513	-4.19069	2.30298	0	
2.4520	-1.74482	3.8282	0	
2.4527	0.0934726	-1.96965	0	
2.4533	-0.514099	-10.8281	0	
2.4540	-1.13725	-10.5149	0	
2.4547	1.01262	-5.03019	0	
2.4553	-1.43325	-4.11102	0	
2.4560	-4.79826	-3.50498	0	
2.4567	1.30862	0.464636	0	
2.4573	8.63064	3.51508	0	
2.4580	8.94221	4.13122	0	
2.4587	7.71149	4.13122	0	
2.4593	5.88878	4.13122	0	
2.4600	0.701045	3.21205	0	
2.4607	-1.43325	3.21205	0	
2.4613	-4.19069	3.51508	0	
2.4620	-21.5766	3.21205	0	
2.4627	-43.5582	1.08078	0	
2.4633	-47.8268	-2.28278	0	
2.4640	-38.0589	-3.19185	0	
2.4647	-30.1293	-1.36361	0	
2.4653	-25.8452	1.08078	0	
2.4660	-20.969	2.90903	0	
2.4667	-17.9156	2.30298	0	
2.4673	-14.8621	0.464636	0	
2.4680	-10.5936	1.38381	0	
2.4687	-10.5936	2.90903	0	
2.4693	-12.4163	1.98986	0	
2.4700	-9.67442	2.30298	0	
2.4707	-7.54012	3.21205	0	
2.4713	-7.54012	2.606	0	
2.4720	-3.56754	3.21205	0	
2.4727	1.01262	6.87864	0	
2.4733	2.22776	9.92908	0	
2.4740	4.96963	9.31293	0	
2.4747	7.41549	4.73727	0	
2.4753	5.2812	-0.757559	0	
2.4760	5.88878	-2.28278	0	
2.4767	8.94221	-0.444435	0	
2.4773	5.88878	-1.36361	0	
2.4780	0.389469	-4.41405	0	
2.4787	-1.43325	-8.08063	0	
2.4793	-0.825675	-9.90888	0	
2.4800	-5.09426	-7.76751	0	
2.4807	-11.2011	-2.5858	0	
2.4813	-5.09426	2.606	0	
2.4820	7.10392	4.73727	0	
2.4827	2.22776	2.30298	0	
2.4833	-11.5127	2.30298	0	
2.4840	-8.1477	6.57562	0	
2.4847	2.22776	8.10084	0	
2.4853	1.62019	5.65644	0	
2.4860	-5.70183	4.13122	0	
2.4867	-11.5127	1.38381	0	
2.4873	-17.308	-2.5858	0	
2.4880	-20.3615	-4.71707	0	
2.4887	-17.604	-5.03019	0	
2.4893	-11.8087	-2.88883	0	
2.4900	-6.93255	1.38381	0	
2.4907	-6.32498	2.30298	0	
2.4913	-7.22855	-0.757559	0	
2.4920	-6.01341	-0.757559	0	
2.4927	-3.56754	0.464636	0	
2.4933	-3.56754	-0.444435	0	
2.4940	-2.04082	1.38381	0	
2.4947	-0.218103	2.30298	0	
2.4953	-2.66397	-1.36361	0	
2.4960	-5.09426	-1.66663	0	
2.4967	-5.40583	2.606	0	
2.4973	-8.1477	3.8282	0	
2.4980	-10.5936	1.98986	0	
2.4987	-9.98599	2.30298	0	
2.4993	-9.98599	1.68683	0	
2.5000	-11.5127	0.161613	0	
2.5007	-11.2011	-0.444435	0	
2.5013	-10.5936	-0.141411	0	
2.5020	-13.0394	0.464636	0	
2.5027	-17.308	1.68683	0	
2.5033	-22.1842	2.30298	0	
2.5040	-23.4149	0.76766	0	
2.5047	-19.7539	-0.444435	0	
2.5053	-18.2272	2.30298	0	
2.5060	-23.4149	5.0403	0	
2.5067	-26.1568	0.76766	0	
2.5073	-23.4149	-1.96965	0	
2.5080	-20.0499	1.98986	0	
2.5087	-17.9156	3.21205	0	
2.5093	-15.1737	-0.141411	0	
2.5100	-12.4163	1.08078	0	
2.5107	-9.98599	2.90903	0	
2.5113	-9.37842	0.464636	0	
2.5120	-9.67442	0.464636	0	
2.5127	-7.54012	1.38381	0	
2.5133	-7.22855	-2.28278	0	
2.5140	-9.67442	-2.28278	0	
2.5147	-2.66397	1.98986	0	
2.5153	5.5772	2.30298	0	
2.5160	-2.04082	0.464636	0	
2.5167	-6.93255	2.30298	0	
2.5173	5.88878	5.0403	0	
2.5180	10.4689	4.73727	0	
2.5187	-3.27154	3.21205	0	
2.5193	-8.75527	1.98986	0	
2.5200	-2.35239	1.98986	0	
2.5207	-0.514099	1.68683	0	
2.5213	-4.19069	-2.28278	0	
2.5220	-8.75527	-4.11102	0	
2.5227	-16.0773	0.76766	0	
2.5233	-19.4423	4.73727	0	
2.5240	-19.7539	4.73727	0	
2.5247	-24.3185	7.78771	0	
2.5253	-26.1568	9.31293	0	
2.5260	-18.8347	6.57562	0	
2.5267	-13.943	7.18166	0	
2.5273	-14.8621	9.62606	0	
2.5280	-12.1203	7.78771	0	
2.5287	-6.93255	6.87864	0	
2.5293	-8.1477	6.57562	0	
2.5300	-10.5936	0.464636	0	
2.5307	-8.45927	-5.03019	0	
2.5313	-8.1477	-5.03019	0	
2.5320	-7.8517	-5.03019	0	
2.5327	-2.04082	-5.33322	0	
2.5333	-2.66397	-6.24229	0	
2.5340	-9.98599	-7.76751	0	
2.5347	-9.67442	-5.93927	0	
2.5353	-8.75527	-3.808	0	
2.5360	-16.9964	-5.93927	0	
2.5367	-15.1737	-4.41405	0	
2.5373	0.701045	1.38381	0	
2.5380	7.10392	1.38381	0	
2.5387	0.701045	-1.66663	0	
2.5393	-5.09426	-0.444435	0	
2.5400	-9.37842	-0.444435	0	
2.5407	-10.5936	-1.66663	0	
2.5413	-8.75527	0.161613	0	
2.5420	-12.4163	2.90903	0	
2.5427	-15.7813	5.65644	0	
2.5433	-15.1737	7.78771	0	
2.5440	-19.4423	5.65644	0	
2.5447	-22.4957	0.464636	0	
2.5453	-17.308	-1.06058	0	
2.5460	-14.5662	1.08078	0	
2.5467	-13.943	4.13122	0	
2.5473	-9.06684	6.87864	0	
2.5480	-7.8517	7.78771	0	
2.5487	-9.67442	7.18166	0	
2.5493	-5.09426	3.8282	0	
2.5500	0.389469	-0.141411	0	
2.5507	2.22776	-0.141411	0	
2.5513	5.88878	0.464636	0	
2.5520	5.5772	-0.444435	0	
2.5527	1.30862	0.464636	0	
2.5533	4.05048	2.30298	0	
2.5540	8.33464	1.38381	0	
2.5547	7.41549	3.21205	0	
2.5553	4.96963	5.0403	0	
2.5560	1.91619	2.90903	0	
2.5567	-2.35239	-0.444435	0	
2.5573	-4.19069	-0.757559	0	
2.5580	-6.93255	-1.06058	0	
2.5587	-9.67442	-1.96965	0	
2.5593	-8.75527	-0.757559	0	
2.5600	-11.5127	1.08078	0	
2.5607	-20.3615	1.08078	0	
2.5613	-24.3185	0.161613	0	
2.5620	-22.4957	1.98986	0	
2.5627	-22.4957	4.13122	0	
2.5633	-20.0499	2.30298	0	
2.5640	-7.54012	0.161613	0	
2.5647	5.2812	1.08078	0	
2.5653	6.20035	2.606	0	
2.5660	-2.04082	3.51508	0	
2.5667	-9.37842	5.95947	0	
2.5673	-11.5127	8.70688	0	
2.5680	-12.7279	7.48469	0	
2.5687	-19.7539	3.51508	0	
2.5693	-30.4253	1.38381	0	
2.5700	-34.3979	1.98986	0	
2.5707	-27.3719	1.08078	0	
2.5713	-18.2272	-1.66663	0	
2.5720	-12.4163	-2.28278	0	
2.5727	-7.8517	0.76766	0	
2.5733	-5.09426	5.0403	0	
2.5740	-2.35239	5.35342	0	
2.5747	-1.43325	2.90903	0	
2.5753	-6.32498	2.30298	0	
2.5760	-12.4163	4.13122	0	
2.5767	-9.98599	4.73727	0	
2.5773	-0.514099	2.90903	0	
2.5780	2.83534	1.68683	0	
2.5787	-3.27154	2.90903	0	
2.5793	-9.98599	4.13122	0	
2.5800	-15.1737	4.73727	0	
2.5807	-21.5766	4.13122	0	
2.5813	-26.4683	3.51508	0	
2.5820	-26.7643	3.21205	0	
2.5827	-25.2376	2.30298	0	
2.5833	-24.63	1.38381	0	
2.5840	-28.291	-1.36361	0	
2.5847	-31.0329	-4.11102	0	
2.5853	-25.2376	-5.93927	0	
2.5860	-20.0499	-5.63624	0	
2.5867	-26.1568	-3.19185	0	
2.5873	-26.1568	0.464636	0	
2.5880	-8.75527	2.90903	0	
2.5887	0.389469	1.98986	0	
2.5893	-6.32498	0.161613	0	
2.5900	-8.75527	0.76766	0	
2.5907	-5.09426	2.30298	0	
2.5913	-5.09426	1.38381	0	
2.5920	-5.09426	-1.06058	0	
2.5927	-3.56754	-3.808	0	
2.5933	-4.79826	-5.03019	0	
2.5940	-4.79826	-2.28278	0	
2.5947	-3.27154	0.161613	0	
2.5953	-4.19069	-0.444435	0	
2.5960	-5.40583	0.464636	0	
2.5967	-6.93255	3.51508	0	
2.5973	-10.5936	2.90903	0	
2.5980	-8.75527	0.161613	0	
2.5987	-4.19069	-1.06058	0	
2.5993	-5.09426	-2.28278	0	
2.6000	-6.32498	-4.41405	0	
2.6007	-5.09426	-4.11102	0	
2.6013	-8.75527	0.464636	0	
2.6020	-16.3889	8.70688	0	
2.6027	-19.4423	12.3735	0	
2.6033	-19.4423	8.70688	0	
2.6040	-22.1842	4.73727	0	
2.6047	-25.5492	2.30298	0	
2.6053	-24.63	-5.03019	0	
2.6060	-21.265	-9.60585	0	
2.6067	-20.6574	-2.28278	0	
2.6073	-18.5232	3.51508	0	
2.6080	-13.3354	1.68683	0	
2.6087	-10.5936	1.38381	0	
2.6093	-10.8896	3.21205	0	
2.6100	-12.7279	2.30298	0	
2.6107	-17.308	1.98986	0	
2.6113	-13.647	2.30298	0	
2.6120	0.701045	0.76766	0	
2.6127	6.49635	-0.141411	0	
2.6133	0.0934726	1.38381	0	
2.6140	-1.13725	1.38381	0	
2.6147	2.22776	-0.757559	0	
2.6153	-1.13725	-2.5858	0	
2.6160	-6.32498	-3.19185	0	
2.6167	-8.75527	-2.28278	0	
2.6173	-7.8517	-0.757559	0	
2.6180	-5.09426	1.08078	0	
2.6187	-7.54012	4.13122	0	
2.6193	-13.3354	6.87864	0	
2.6200	-6.62098	10.2321	0	
2.6207	6.20035	14.2017	0	
2.6213	1.62019	13.2825	0	
2.6220	-12.4163	7.78771	0	
2.6227	-16.0773	6.26249	0	
2.6233	-14.2546	7.48469	0	
2.6240	-16.9964	4.73727	0	
2.6247	-20.969	-2.28278	0	
2.6253	-21.265	-9.60585	0	
2.6260	-17.9156	-12.3533	0	
2.6267	-15.1737	-9.30283	0	
2.6273	-14.5662	-5.33322	0	
2.6280	-15.4697	-3.50498	0	
2.6287	-14.5662	-1.36361	0	
2.6293	-12.4163	0.464636	0	
2.6300	-11.5127	-1.06058	0	
2.6307	-10.5936	-2.5858	0	
2.6313	-7.8517	-1.66663	0	
2.6320	-3.27154	-0.141411	0	
2.6327	-0.514099	-1.06058	0	
2.6333	-1.74482	-1.36361	0	
2.6340	-5.09426	1.08078	0	
2.6347	-6.93255	1.68683	0	
2.6353	-6.93255	-0.444435	0	
2.6360	-6.01341	-1.06058	0	
2.6367	-4.79826	0.76766	0	
2.6373	-2.35239	2.90903	0	
2.6380	-1.43325	4.13122	0	
2.6387	-4.19069	3.21205	0	
2.6393	-8.1477	0.161613	0	
2.6400	-12.1203	0.161613	0	
2.6407	-13.943	3.8282	0	
2.6413	-12.4163	4.13122	0	
2.6420	-11.2011	1.38381	0	
2.6427	-11.2011	0.464636	0	
2.6433	-10.8896	0.76766	0	
2.6440	-9.98599	1.08078	0	
2.6447	-12.1203	2.30298	0	
2.6453	-20.6574	2.30298	0	
2.6460	-28.8986	2.90903	0	
2.6467	-24.3185	7.18166	0	
2.6473	-14.8621	10.2321	0	
2.6480	-14.2546	8.70688	0	
2.6487	-13.647	8.10084	0	
2.6493	-6.32498	7.78771	0	
2.6500	-2.95997	2.30298	0	
2.6507	-0.514099	-1.36361	0	
2.6513	7.71149	-0.444435	0	
2.6520	7.71149	-1.36361	0	
2.6527	1.30862	-2.28278	0	
2.6533	-0.514099	1.38381	0	
2.6540	-12.1203	1.98986	0	
2.6547	-29.8178	-0.444435	0	
2.6553	-20.0499	0.464636	0	
2.6560	7.41549	0.76766	0	
2.6567	12.2916	-1.06058	0	
2.6573	-1.13725	0.161613	0	
2.6580	-8.75527	0.464636	0	
2.6587	-13.0394	-1.36361	0	
2.6593	-16.9964	1.38381	0	
2.6600	-14.8621	2.606	0	
2.6607	-10.8896	-0.444435	0	
2.6613	-12.1203	1.08078	0	
2.6620	-15.7813	5.0403	0	
2.6627	-16.0773	2.90903	0	
2.6633	-14.8621	2.30298	0	
2.6640	-16.3889	7.48469	0	
2.6647	-18.5232	8.70688	0	
2.6653	-15.7813	3.8282	0	
2.6660	-12.7279	1.08078	0	
2.6667	-13.943	1.38381	0	
2.6673	-15.7813	-0.444435	0	
2.6680	-13.3354	-1.36361	0	
2.6687	-8.75527	0.464636	0	
2.6693	-8.1477	4.13122	0	
2.6700	-10.282	7.78771	0	
2.6707	-7.8517	7.48469	0	
2.6713	-4.48669	0.161613	0	
2.6720	-5.09426	-5.03019	0	
2.6727	-5.09426	-2.88883	0	
2.6733	-4.48669	-1.06058	0	
2.6740	-5.09426	-4.11102	0	
2.6747	-3.87911	-5.33322	0	
2.6753	-3.27154	-4.11102	0	
2.6760	-5.09426	-3.808	0	
2.6767	-5.09426	-2.5858	0	
2.6773	-4.48669	-1.36361	0	
2.6780	-7.8517	-0.444435	0	
2.6787	-8.45927	0.161613	0	
2.6793	-6.32498	1.38381	0	
2.6800	-7.22855	3.21205	0	
2.6807	-9.37842	4.43425	0	
2.6813	-11.5127	3.51508	0	
2.6820	-16.0773	2.606	0	
2.6827	-16.9964	5.0403	0	
2.6833	-14.2546	6.57562	0	
2.6840	-16.3889	5.35342	0	
2.6847	-20.969	2.90903	0	
2.6853	-22.1842	0.161613	0	
2.6860	-21.8882	-0.444435	0	
2.6867	-20.0499	1.38381	0	
2.6873	-16.9964	2.90903	0	
2.6880	-17.9156	2.90903	0	
2.6887	-20.0499	1.68683	0	
2.6893	-18.8347	0.464636	0	
2.6900	-16.3889	1.98986	0	
2.6907	-12.7279	5.0403	0	
2.6913	-9.67442	5.95947	0	
2.6920	-14.2546	4.43425	0	
2.6927	-18.8347	5.0403	0	
2.6933	-9.67442	8.10084	0	
2.6940	2.22776	10.5351	0	
2.6947	-0.218103	9.62606	0	
2.6953	-5.40583	7.78771	0	
2.6960	-2.35239	7.48469	0	
2.6967	0.389469	5.95947	0	
2.6973	-2.66397	7.18166	0	
2.6980	-5.70183	9.92908	0	
2.6987	-9.37842	5.95947	0	
2.6993	-13.943	-3.50498	0	
2.7000	-14.5662	-5.93927	0	
2.7007	-13.3354	-2.28278	0	
2.7013	-14.2546	-3.50498	0	
2.7020	-16.0773	-9.60585	0	
2.7027	-16.9964	-12.9593	0	
2.7033	-16.3889	-12.0401	0	
2.7040	-14.2546	-8.68668	0	
2.7047	-12.4163	-5.03019	0	
2.7053	-12.1203	-2.28278	0	
2.7060	-11.5127	0.76766	0	
2.7067	-11.5127	3.51508	0	
2.7073	-14.8621	1.68683	0	
2.7080	-18.5232	-0.444435	0	
2.7087	-20.6574	2.30298	0	
2.7093	-20.6574	7.78771	0	
2.7100	-17.604	9.31293	0	
2.7107	-16.0773	3.21205	0	
2.7113	-15.7813	-2.88883	0	
2.7120	-10.5936	-2.88883	0	
2.7127	-3.27154	-1.36361	0	
2.7133	1.30862	-1.66663	0	
2.7140	8.63064	-0.444435	0	
2.7147	17.791	0.161613	0	
2.7153	16.2642	-2.28278	0	
2.7160	5.2812	-3.19185	0	
2.7167	-0.514099	-2.28278	0	
2.7173	1.30862	-2.28278	0	
2.7180	7.71149	-1.06058	0	
2.7187	14.1299	0.76766	0	
2.7193	15.3451	0.464636	0	
2.7200	12.2916	2.30298	0	
2.7207	8.02307	3.21205	0	
2.7213	-2.66397	-0.141411	0	
2.7220	-18.2272	-0.141411	0	
2.7227	-22.4957	5.95947	0	
2.7233	-20.0499	7.78771	0	
2.7240	-27.9795	3.51508	0	
2.7247	-34.0863	1.38381	0	
2.7253	-25.2376	1.38381	0	
2.7260	-16.9964	-0.141411	0	
2.7267	-14.8621	-1.96965	0	
2.7273	-6.62098	-1.06058	0	
2.7280	0.389469	1.68683	0	
2.7287	-5.09426	3.21205	0	
2.7293	-13.943	4.43425	0	
2.7300	-19.4423	5.95947	0	
2.7307	-22.7917	5.65644	0	
2.7313	-24.3185	2.90903	0	
2.7320	-22.1842	1.68683	0	
2.7327	-13.3354	1.68683	0	
2.7333	-4.19069	2.90903	0	
2.7340	-5.09426	5.0403	0	
2.7347	-10.5936	3.8282	0	
2.7353	-10.5936	-0.141411	0	
2.7360	-10.8896	-0.757559	0	
2.7367	-10.282	-0.444435	0	
2.7373	-5.09426	-1.06058	0	
2.7380	-4.19069	-0.757559	0	
2.7387	-7.8517	-0.141411	0	
2.7393	-7.8517	-0.444435	0	
2.7400	-6.01341	0.464636	0	
2.7407	-7.54012	1.68683	0	
2.7413	-8.75527	0.464636	0	
2.7420	-10.5936	-2.28278	0	
2.7427	-10.8896	-1.96965	0	
2.7433	-8.75527	1.38381	0	
2.7440	-9.67442	2.30298	0	
2.7447	-14.2546	0.464636	0	
2.7453	-15.1737	-0.141411	0	
2.7460	-15.4697	1.38381	0	
2.7467	-16.0773	4.13122	0	
2.7473	-13.0394	6.87864	0	
2.7480	-10.8896	5.95947	0	
2.7487	-11.5127	1.98986	0	
2.7493	-8.75527	1.68683	0	
2.7500	-6.01341	2.30298	0	
2.7507	-5.09426	-0.141411	0	
2.7513	-2.66397	-2.28278	0	
2.7520	1.30862	-2.28278	0	
2.7527	3.14691	-2.88883	0	
2.7533	4.05048	-4.11102	0	
2.7540	4.96963	-3.50498	0	
2.7547	4.96963	-1.66663	0	
2.7553	4.96963	1.08078	0	
2.7560	3.44291	3.21205	0	
2.7567	1.30862	2.30298	0	
2.7573	0.0934726	-0.444435	0	
2.7580	-3.56754	0.76766	0	
2.7587	-8.1477	5.95947	0	
2.7593	-10.8896	3.51508	0	
2.7600	-9.67442	-3.808	0	
2.7607	-6.93255	-3.19185	0	
2.7613	-7.22855	4.13122	0	
2.7620	-12.4163	7.48469	0	
2.7627	-18.8347	3.8282	0	
2.7633	-21.8882	-0.444435	0	
2.7640	-22.1842	-0.757559	0	
2.7647	-22.1842	1.38381	0	
2.7653	-20.6574	2.30298	0	
2.7660	-15.1737	3.51508	0	
2.7667	-11.5127	2.30298	0	
2.7673	-15.1737	-2.28278	0	
2.7680	-20.3615	-3.19185	0	
2.7687	-26.7643	1.38381	0	
2.7693	-33.4788	2.90903	0	
2.7700	-23.4149	1.08078	0	
2.7707	0.701045	1.68683	0	
2.7713	8.63064	2.606	0	
2.7720	-1.13725	1.38381	0	
2.7727	-2.35239	1.38381	0	
2.7733	2.22776	2.90903	0	
2.7740	-0.514099	3.51508	0	
2.7747	-2.95997	3.21205	0	
2.7753	-4.19069	1.38381	0	
2.7760	-9.98599	0.464636	0	
2.7767	-14.2546	1.98986	0	
2.7773	-11.2011	3.51508	0	
2.7780	-5.40583	4.13122	0	
2.7787	-3.27154	5.35342	0	
2.7793	-8.45927	6.26249	0	
2.7800	-15.1737	5.95947	0	
2.7807	-15.7813	6.26249	0	
2.7813	-17.308	7.78771	0	
2.7820	-22.4957	8.70688	0	
2.7827	-22.1842	7.18166	0	
2.7833	-21.5766	5.0403	0	
2.7840	-20.3615	5.95947	0	
2.7847	-9.98599	6.87864	0	
2.7853	-6.93255	-2.28278	0	
2.7860	-19.7539	-14.1815	0	
2.7867	-17.9156	-12.9593	0	
2.7873	2.22776	-5.33322	0	
2.7880	3.75448	-3.50498	0	
2.7887	-9.67442	-1.96965	0	
2.7893	-13.647	2.606	0	
2.7900	-14.5662	2.30298	0	
2.7907	-16.9964	-0.444435	0	
2.7913	-10.282	-0.141411	0	
2.7920	-2.95997	0.464636	0	
2.7927	-1.13725	0.161613	0	
2.7933	0.389469	0.464636	0	
2.7940	0.0934726	0.464636	0	
2.7947	-2.66397	1.98986	0	
2.7953	-4.19069	4.43425	0	
2.7960	-7.8517	4.13122	0	
2.7967	-13.3354	2.606	0	
2.7973	-13.647	1.38381	0	
2.7980	-12.1203	-0.141411	0	
2.7987	-12.4163	-0.141411	0	
2.7993	-14.2546	2.606	0	
2.8000	-16.9964	3.51508	0	
2.8007	-17.604	2.30298	0	
2.8013	-16.9964	2.606	0	
2.8020	-19.7539	1.68683	0	
2.8027	-23.4149	-1.06058	0	
2.8033	-22.4957	-0.757559	0	
2.8040	-20.0499	1.38381	0	
2.8047	-18.8347	2.606	0	
2.8053	-17.9156	2.90903	0	
2.8060	-16.9964	2.90903	0	
2.8067	-15.4697	2.90903	0	
2.8073	-13.647	2.90903	0	
2.8080	-11.5127	1.98986	0	
2.8087	-9.67442	0.76766	0	
2.8093	-10.5936	0.464636	0	
2.8100	-10.8896	-1.36361	0	
2.8107	-8.75527	-1.66663	0	
2.8113	-6.01341	0.464636	0	
2.8120	-3.87911	-0.444435	0	
2.8127	-3.27154	-3.50498	0	
2.8133	-4.19069	-1.36361	0	
2.8140	-3.27154	1.98986	0	
2.8147	-1.43325	-0.444435	0	
2.8153	-3.27154	-2.28278	0	
2.8160	-5.70183	-0.444435	0	
2.8167	-2.95997	0.464636	0	
2.8173	-2.04082	-0.141411	0	
2.8180	-5.09426	0.464636	0	
2.8187	-7.8517	1.08078	0	
2.8193	-9.67442	1.08078	0	
2.8200	-10.8896	0.161613	0	
2.8207	-11.5127	-1.66663	0	
2.8213	-12.7279	-1.66663	0	
2.8220	-14.2546	-1.36361	0	
2.8227	-13.943	-3.19185	0	
2.8233	-13.943	-3.19185	0	
2.8240	-15.1737	1.08078	0	
2.8247	-14.5662	2.606	0	
2.8253	-14.2546	1.38381	0	
2.8260	-13.647	3.21205	0	
2.8267	-9.67442	3.51508	0	
2.8273	-1.43325	0.161613	0	
2.8280	3.44291	-0.444435	0	
2.8287	0.701045	2.90903	0	
2.8293	-3.27154	5.0403	0	
2.8300	-4.48669	4.73727	0	
2.8307	-8.75527	2.606	0	
2.8313	-15.1737	-1.66663	0	
2.8320	-13.3354	-5.03019	0	
2.8327	-4.19069	-3.50498	0	
2.8333	4.96963	-1.36361	0	
2.8340	12.2916	-2.5858	0	
2.8347	12.6032	-5.03019	0	
2.8353	5.88878	-6.24229	0	
2.8360	2.22776	-6.24229	0	
2.8367	4.05048	-3.19185	0	
2.8373	7.71149	1.38381	0	
2.8380	5.88878	1.38381	0	
2.8387	-6.93255	-1.36361	0	
2.8393	-24.63	-2.5858	0	
2.8400	-34.0863	-2.28278	0	
2.8407	-33.4788	0.464636	0	
2.8413	-29.8178	2.90903	0	
2.8420	-23.7109	1.98986	0	
2.8427	-19.7539	0.76766	0	
2.8433	-23.7109	1.98986	0	
2.8440	-28.8986	2.606	0	
2.8447	-27.6835	1.68683	0	
2.8453	-23.4149	0.76766	0	
2.8460	-21.8882	1.38381	0	
2.8467	-18.8347	4.73727	0	
2.8473	-13.647	5.65644	0	
2.8480	-10.8896	2.30298	0	
2.8487	-10.5936	1.38381	0	
2.8493	-7.54012	2.90903	0	
2.8500	-2.35239	2.606	0	
2.8507	2.22776	1.38381	0	
2.8513	2.83534	0.464636	0	
2.8520	-0.514099	-1.36361	0	
2.8527	-2.35239	-1.06058	0	
2.8533	2.52376	2.90903	0	
2.8540	5.88878	4.43425	0	
2.8547	4.67363	2.606	0	
2.8553	5.5772	1.38381	0	
2.8560	5.88878	2.90903	0	
2.8567	-0.825675	5.0403	0	
2.8573	-7.54012	5.95947	0	
2.8580	-8.75527	2.90903	0	
2.8587	-8.75527	-1.66663	0	
2.8593	-9.67442	-2.88883	0	
2.8600	-10.5936	-1.36361	0	
2.8607	-13.3354	-1.06058	0	
2.8613	-19.4423	-0.444435	0	
2.8620	-18.8347	4.13122	0	
2.8627	-9.37842	7.18166	0	
2.8633	-5.40583	5.95947	0	
2.8640	-10.5936	6.57562	0	
2.8647	-12.7279	7.48469	0	
2.8653	-9.67442	4.43425	0	
2.8660	-8.75527	2.90903	0	
2.8667	-8.45927	2.30298	0	
2.8673	-6.62098	-0.141411	0	
2.8680	-6.93255	-1.06058	0	
2.8687	-10.5936	-0.757559	0	
2.8693	-14.8621	-1.36361	0	
2.8700	-16.9964	1.08078	0	
2.8707	-13.3354	4.13122	0	
2.8713	-6.93255	1.98986	0	
2.8720	-5.09426	0.76766	0	
2.8727	-3.87911	1.98986	0	
2.8733	-0.825675	-0.141411	0	
2.8740	-1.43325	-0.757559	0	
2.8747	-4.48669	2.90903	0	
2.8753	-5.40583	3.21205	0	
2.8760	-6.62098	0.464636	0	
2.8767	-8.45927	-0.141411	0	
2.8773	-9.06684	0.464636	0	
2.8780	-10.8896	1.08078	0	
2.8787	-13.3354	3.21205	0	
2.8793	-16.3889	3.21205	0	
2.8800	-21.8882	-0.444435	0	
2.8807	-19.7539	-0.444435	0	
2.8813	-6.62098	3.8282	0	
2.8820	-4.19069	5.35342	0	
2.8827	-19.1307	2.606	0	
2.8833	-26.7643	0.464636	0	
2.8840	-18.5232	2.30298	0	
2.8847	-11.2011	5.35342	0	
2.8853	-9.98599	5.35342	0	
2.8860	-10.282	2.90903	0	
2.8867	-12.4163	2.30298	0	
2.8873	-15.4697	4.13122	0	
2.8880	-15.7813	5.65644	0	
2.8887	-13.943	5.65644	0	
2.8893	-14.8621	5.0403	0	
2.8900	-16.9964	3.8282	0	
2.8907	-14.8621	3.21205	0	
2.8913	-11.5127	4.43425	0	
2.8920	-11.8087	2.606	0	
2.8927	-7.8517	-2.5858	0	
2.8933	-0.218103	-7.76751	0	
2.8940	-1.13725	-9.60585	0	
2.8947	-3.87911	-8.38366	0	
2.8953	2.52376	-3.19185	0	
2.8960	6.20035	0.161613	0	
2.8967	-1.43325	-1.06058	0	
2.8973	-7.8517	-0.444435	0	
2.8980	-8.75527	5.0403	0	
2.8987	-9.67442	7.18166	0	
2.8993	-9.67442	2.30298	0	
2.9000	-8.75527	-0.444435	0	
2.9007	-9.67442	-0.141411	0	
2.9013	-13.3354	0.464636	0	
2.9020	-18.2272	2.30298	0	
2.9027	-19.7539	0.464636	0	
2.9033	-16.9964	-3.19185	0	
2.9040	-16.3889	-1.36361	0	
2.9047	-17.308	1.98986	0	
2.9053	-15.1737	1.38381	0	
2.9060	-16.9964	4.13122	0	
2.9067	-22.1842	9.00991	0	
2.9073	-19.1307	7.78771	0	
2.9080	-9.06684	6.26249	0	
2.9087	-2.66397	7.18166	0	
2.9093	-3.87911	4.43425	0	
2.9100	-10.8896	1.38381	0	
2.9107	-16.0773	-0.444435	0	
2.9113	-13.943	-7.16146	0	
2.9120	-11.2011	-11.4341	0	
2.9127	-9.98599	-6.85844	0	
2.9133	-4.79826	-3.50498	0	
2.9140	-1.13725	-4.11102	0	
2.9147	-6.01341	-1.06058	0	
2.9153	-9.98599	3.51508	0	
2.9160	-8.75527	3.8282	0	
2.9167	-10.5936	2.90903	0	
2.9173	-14.2546	3.21205	0	
2.9180	-12.7279	1.98986	0	
2.9187	-13.0394	-0.757559	0	
2.9193	-19.1307	-0.444435	0	
2.9200	-20.6574	2.606	0	
2.9207	-17.308	2.90903	0	
2.9213	-21.5766	0.161613	0	
2.9220	-27.0759	0.464636	0	
2.9227	-23.7109	2.90903	0	
2.9233	-17.9156	3.21205	0	
2.9240	-15.1737	1.98986	0	
2.9247	-10.282	3.21205	0	
2.9253	-9.67442	3.8282	0	
2.9260	-16.9964	2.606	0	
2.9267	-20.969	3.51508	0	
2.9273	-19.7539	5.0403	0	
2.9280	-20.0499	4.13122	0	
2.9287	-18.8347	3.21205	0	
2.9293	-15.4697	2.90903	0	
2.9300	-13.943	0.464636	0	
2.9307	-8.75527	-1.06058	0	
2.9313	2.22776	-1.36361	0	
2.9320	9.54979	-1.66663	0	
2.9327	8.02307	-1.36361	0	
2.9333	3.44291	-1.06058	0	
2.9340	0.389469	1.08078	0	
2.9347	-0.514099	4.43425	0	
2.9353	-0.218103	3.21205	0	
2.9360	-5.70183	-1.36361	0	
2.9367	-20.6574	1.38381	0	
2.9373	-32.2636	5.95947	0	
2.9380	-24.63	2.30298	0	
2.9387	-9.67442	-1.96965	0	
2.9393	-6.93255	-1.66663	0	
2.9400	-9.98599	-1.06058	0	
2.9407	-9.06684	0.161613	0	
2.9413	-9.98599	1.98986	0	
2.9420	-11.5127	1.68683	0	
2.9427	-8.75527	3.8282	0	
2.9433	-9.67442	9.31293	0	
2.9440	-15.1737	8.70688	0	
