0.0007	22.3118	-9.32073	0	
0.0013	5.52582	-5.95274	0	
0.0020	-3.02356	-1.684	0	
0.0027	-0.271078	-0.469953	0	
0.0033	0.938346	-1.39028	0	
0.0040	-2.10607	-0.156651	0	
0.0047	-2.71078	1.66442	0	
0.0053	1.85584	3.79879	0	
0.0060	4.60832	2.89804	0	
0.0067	2.77333	-1.9973	0	
0.0073	1.25113	-2.91762	0	
0.0080	1.54306	1.05739	0	
0.0087	0.938346	1.97772	0	
0.0093	-0.896642	1.66442	0	
0.0100	-3.94105	3.79879	0	
0.0107	-8.21574	6.24646	0	
0.0113	-11.2602	5.32613	0	
0.0120	-12.1777	2.58474	0	
0.0127	-13.0951	0.744092	0	
0.0133	-10.9682	1.66442	0	
0.0140	-4.85855	2.27144	0	
0.0147	0.646416	0.744092	0	
0.0153	4.29554	0.744092	0	
0.0160	7.36081	2.58474	0	
0.0167	7.04802	2.58474	0	
0.0173	7.96552	-0.469953	0	
0.0180	11.6146	-4.42539	0	
0.0187	9.17494	-4.42539	0	
0.0193	3.08612	-0.763674	0	
0.0200	5.21304	1.66442	0	
0.0207	11.6146	0.744092	0	
0.0213	12.5321	0.13707	0	
0.0220	11.6146	0.13707	0	
0.0227	11.3227	0.744092	0	
0.0233	9.80051	0.744092	0	
0.0240	9.48772	-0.156651	0	
0.0247	8.57023	-1.39028	0	
0.0253	5.52582	-2.60432	0	
0.0260	6.13053	0.450372	0	
0.0267	7.36081	4.42539	0	
0.0273	5.21304	1.05739	0	
0.0280	1.85584	-1.39028	0	
0.0287	-2.10607	2.58474	0	
0.0293	-5.77604	1.66442	0	
0.0300	-4.85855	-4.13167	0	
0.0307	-2.41885	-1.07698	0	
0.0313	-2.10607	4.11209	0	
0.0320	-1.50135	1.66442	0	
0.0327	0.0208521	2.27144	0	
0.0333	1.85584	5.93316	0	
0.0340	3.69083	2.58474	0	
0.0347	4.29554	-0.156651	0	
0.0353	5.52582	2.58474	0	
0.0360	8.88301	2.27144	0	
0.0367	10.0924	-1.07698	0	
0.0373	9.17494	-1.684	0	
0.0380	11.9274	-0.763674	0	
0.0387	16.2021	-1.07698	0	
0.0393	17.1196	-2.29102	0	
0.0400	18.329	-4.13167	0	
0.0407	18.9546	-3.52465	0	
0.0413	16.8068	0.13707	0	
0.0420	16.2021	1.66442	0	
0.0427	14.9718	-0.156651	0	
0.0433	11.0099	-2.91762	0	
0.0440	10.718	-2.91762	0	
0.0447	11.6146	-1.9973	0	
0.0453	7.65274	-3.81837	0	
0.0460	6.13053	-3.81837	0	
0.0467	4.29554	-1.07698	0	
0.0473	-4.54577	-1.684	0	
0.0480	-6.98547	-2.91762	0	
0.0487	4.29554	2.27144	0	
0.0493	8.25745	6.24646	0	
0.0500	0.333634	2.58474	0	
0.0507	-3.94105	-0.156651	0	
0.0513	-3.02356	-0.763674	0	
0.0520	-3.62827	-5.05199	0	
0.0527	-2.71078	-8.40041	0	
0.0533	-3.94105	-4.13167	0	
0.0540	-9.42517	0.744092	0	
0.0547	-9.73795	2.89804	0	
0.0553	-3.94105	3.19176	0	
0.0560	0.0208521	2.58474	0	
0.0567	0.333634	0.744092	0	
0.0573	-0.271078	0.13707	0	
0.0580	-1.18857	1.3707	0	
0.0587	-0.896642	1.66442	0	
0.0593	0.646416	0.744092	0	
0.0600	1.54306	-0.156651	0	
0.0607	2.16862	-1.9973	0	
0.0613	4.29554	-4.13167	0	
0.0620	6.44331	-3.52465	0	
0.0627	7.04802	-1.684	0	
0.0633	7.36081	-2.29102	0	
0.0640	7.04802	-1.39028	0	
0.0647	4.29554	1.05739	0	
0.0653	2.16862	1.66442	0	
0.0660	-1.18857	2.58474	0	
0.0667	-5.46326	4.42539	0	
0.0673	-5.46326	2.58474	0	
0.0680	-4.54577	2.58474	0	
0.0687	-9.42517	4.42539	0	
0.0693	-15.5348	3.50507	0	
0.0700	-18.5793	1.97772	0	
0.0707	-18.5793	4.42539	0	
0.0713	-15.8476	4.11209	0	
0.0720	-13.4079	0.450372	0	
0.0727	-11.2602	-1.684	0	
0.0733	-4.85855	-2.91762	0	
0.0740	-3.02356	-3.52465	0	
0.0747	-9.42517	-1.684	0	
0.0753	-5.46326	0.744092	0	
0.0760	8.88301	3.50507	0	
0.0767	11.6146	7.4605	0	
0.0773	6.13053	8.08711	0	
0.0780	7.96552	5.63944	0	
0.0787	8.88301	4.42539	0	
0.0793	2.16862	4.42539	0	
0.0800	-4.25384	6.24646	0	
0.0807	-4.25384	8.08711	0	
0.0813	0.333634	6.24646	0	
0.0820	3.08612	3.19176	0	
0.0827	-0.271078	-0.156651	0	
0.0833	-4.85855	-4.42539	0	
0.0840	-3.33634	-7.48009	0	
0.0847	-0.58386	-8.08711	0	
0.0853	0.938346	-8.08711	0	
0.0860	2.46055	-6.57934	0	
0.0867	1.54306	-4.73869	0	
0.0873	-3.02356	-6.26604	0	
0.0880	-5.46326	-7.48009	0	
0.0887	-3.02356	-4.73869	0	
0.0893	-2.71078	-1.39028	0	
0.0900	-6.06797	0.450372	0	
0.0907	-7.90296	2.27144	0	
0.0913	-7.29825	2.58474	0	
0.0920	-5.77604	1.05739	0	
0.0927	-4.54577	-1.9973	0	
0.0933	-4.25384	-4.42539	0	
0.0940	-6.69354	-2.60432	0	
0.0947	-8.21574	1.66442	0	
0.0953	-5.77604	-0.156651	0	
0.0960	-3.02356	-4.13167	0	
0.0967	-3.94105	-2.60432	0	
0.0973	-6.98547	1.3707	0	
0.0980	-5.17133	0.744092	0	
0.0987	4.29554	0.13707	0	
0.0993	11.0099	1.3707	0	
0.1000	10.718	2.58474	0	
0.1007	10.718	1.66442	0	
0.1013	11.3227	-2.91762	0	
0.1020	6.13053	-6.87306	0	
0.1027	4.29554	-6.26604	0	
0.1033	8.88301	-4.42539	0	
0.1040	5.81775	-2.29102	0	
0.1047	-0.896642	1.66442	0	
0.1053	1.25113	2.89804	0	
0.1060	6.13053	-0.156651	0	
0.1067	6.44331	-0.469953	0	
0.1073	3.37805	1.05739	0	
0.1080	-3.94105	-0.763674	0	
0.1087	-12.7824	-1.39028	0	
0.1093	-14.9301	0.450372	0	
0.1100	-18.2873	0.13707	0	
0.1107	-28.6508	-1.07698	0	
0.1113	-28.0461	-1.07698	0	
0.1120	-15.5348	-2.29102	0	
0.1127	-11.2602	-2.29102	0	
0.1133	-14.0126	-0.156651	0	
0.1140	-6.69354	0.744092	0	
0.1147	4.60832	-1.684	0	
0.1153	3.69083	-3.81837	0	
0.1160	-5.77604	-2.29102	0	
0.1167	-7.61103	1.66442	0	
0.1173	4.29554	2.89804	0	
0.1180	11.6146	2.58474	0	
0.1187	6.13053	4.11209	0	
0.1193	9.17494	4.11209	0	
0.1200	27.1912	4.42539	0	
0.1207	34.1975	7.16678	0	
0.1213	24.7515	7.4605	0	
0.1220	20.7687	4.42539	0	
0.1227	23.5212	4.71911	0	
0.1233	21.6862	4.71911	0	
0.1240	15.2846	2.89804	0	
0.1247	7.96552	3.50507	0	
0.1253	-3.62827	2.58474	0	
0.1260	-17.0571	-5.95274	0	
0.1267	-24.6889	-12.9825	0	
0.1273	-21.3317	-11.1418	0	
0.1280	-15.8476	-6.87306	0	
0.1287	-16.7651	-4.13167	0	
0.1293	-21.0398	-2.91762	0	
0.1300	-21.6445	-1.9973	0	
0.1307	-20.4142	1.05739	0	
0.1313	-17.9745	3.79879	0	
0.1320	-15.5348	1.66442	0	
0.1327	-13.4079	-1.07698	0	
0.1333	-12.1777	1.3707	0	
0.1340	-11.5729	2.58474	0	
0.1347	-9.42517	0.450372	0	
0.1353	-3.94105	-0.763674	0	
0.1360	0.646416	-0.156651	0	
0.1367	3.08612	-0.763674	0	
0.1373	9.80051	-0.156651	0	
0.1380	14.9718	-0.469953	0	
0.1387	13.7624	-3.52465	0	
0.1393	17.1196	-3.81837	0	
0.1400	25.0434	-0.156651	0	
0.1407	23.2293	1.97772	0	
0.1413	13.4496	1.66442	0	
0.1420	8.25745	1.97772	0	
0.1427	8.57023	0.744092	0	
0.1433	9.80051	-1.9973	0	
0.1440	10.4052	-3.21135	0	
0.1447	7.96552	-5.34572	0	
0.1453	7.04802	-3.81837	0	
0.1460	11.0099	2.58474	0	
0.1467	11.3227	4.11209	0	
0.1473	3.08612	-1.07698	0	
0.1480	-4.25384	-3.81837	0	
0.1487	-5.77604	-4.13167	0	
0.1493	-6.69354	-3.81837	0	
0.1500	-9.13324	-0.469953	0	
0.1507	-7.61103	1.66442	0	
0.1513	-5.46326	-0.156651	0	
0.1520	-5.17133	-1.07698	0	
0.1527	-4.85855	0.744092	0	
0.1533	-4.25384	2.27144	0	
0.1540	-4.85855	3.50507	0	
0.1547	-4.25384	4.71911	0	
0.1553	-2.71078	4.71911	0	
0.1560	-2.10607	3.19176	0	
0.1567	-1.81414	1.66442	0	
0.1573	0.333634	-1.39028	0	
0.1580	4.29554	-4.73869	0	
0.1587	9.48772	-4.73869	0	
0.1593	12.5321	-2.60432	0	
0.1600	13.4496	-3.52465	0	
0.1607	13.7624	-5.05199	0	
0.1613	12.5321	-3.52465	0	
0.1620	8.88301	-1.07698	0	
0.1627	7.04802	-1.07698	0	
0.1633	7.65274	-3.21135	0	
0.1640	4.29554	-5.34572	0	
0.1647	0.646416	-3.81837	0	
0.1653	0.938346	1.05739	0	
0.1660	0.0208521	3.50507	0	
0.1667	-3.33634	3.50507	0	
0.1673	-2.10607	4.42539	0	
0.1680	-2.10607	3.50507	0	
0.1687	-6.69354	2.89804	0	
0.1693	-10.0507	5.63944	0	
0.1700	-11.2602	6.24646	0	
0.1707	-13.0951	2.27144	0	
0.1713	-10.3427	-0.156651	0	
0.1720	-7.29825	-1.07698	0	
0.1727	-8.52853	-3.81837	0	
0.1733	-4.85855	-5.95274	0	
0.1740	-0.271078	-7.79339	0	
0.1747	-0.896642	-8.40041	0	
0.1753	-0.271078	-4.42539	0	
0.1760	2.16862	1.05739	0	
0.1767	1.54306	4.42539	0	
0.1773	3.08612	4.71911	0	
0.1780	4.29554	4.42539	0	
0.1787	-1.18857	5.03241	0	
0.1793	-3.02356	6.55976	0	
0.1800	1.54306	4.71911	0	
0.1807	0.938346	0.744092	0	
0.1813	-1.18857	0.13707	0	
0.1820	-0.58386	-0.469953	0	
0.1827	-5.46326	-5.65902	0	
0.1833	-8.52853	-7.18636	0	
0.1840	2.46055	-2.60432	0	
0.1847	12.2402	-0.469953	0	
0.1853	8.88301	-1.684	0	
0.1860	2.46055	0.450372	0	
0.1867	-2.10607	1.66442	0	
0.1873	-5.77604	-0.156651	0	
0.1880	-6.06797	-0.469953	0	
0.1887	-5.46326	1.66442	0	
0.1893	-8.82046	3.50507	0	
0.1900	-11.2602	4.11209	0	
0.1907	-10.3427	3.19176	0	
0.1913	-11.8857	1.66442	0	
0.1920	-13.4079	1.66442	0	
0.1927	-10.9682	0.744092	0	
0.1933	-8.21574	-0.469953	0	
0.1940	-5.46326	-0.156651	0	
0.1947	-0.271078	-2.29102	0	
0.1953	2.46055	-5.05199	0	
0.1960	2.16862	-5.65902	0	
0.1967	1.85584	-6.57934	0	
0.1973	0.0208521	-5.34572	0	
0.1980	-2.10607	1.3707	0	
0.1987	1.85584	4.42539	0	
0.1993	8.57023	2.58474	0	
0.2000	10.718	3.79879	0	
0.2007	12.2402	5.63944	0	
0.2013	12.8449	4.42539	0	
0.2020	10.0924	1.97772	0	
0.2027	8.25745	1.05739	0	
0.2033	8.25745	1.66442	0	
0.2040	5.52582	1.66442	0	
0.2047	2.46055	-1.07698	0	
0.2053	1.54306	-2.60432	0	
0.2060	-0.58386	-3.21135	0	
0.2067	-2.41885	-6.57934	0	
0.2073	0.646416	-6.87306	0	
0.2080	5.52582	-1.39028	0	
0.2087	7.36081	0.744092	0	
0.2093	2.46055	-0.763674	0	
0.2100	-10.0507	-0.156651	0	
0.2107	-21.3317	0.450372	0	
0.2113	-19.4968	-1.9973	0	
0.2120	-9.73795	-2.91762	0	
0.2127	-5.46326	-1.9973	0	
0.2133	-6.38076	-0.156651	0	
0.2140	-4.25384	0.450372	0	
0.2147	-1.18857	-2.60432	0	
0.2153	-3.62827	-3.81837	0	
0.2160	-6.98547	-0.156651	0	
0.2167	-5.17133	1.3707	0	
0.2173	-0.896642	-1.07698	0	
0.2180	3.08612	-1.07698	0	
0.2187	7.36081	-0.156651	0	
0.2193	7.96552	-1.07698	0	
0.2200	6.44331	-0.156651	0	
0.2207	8.25745	0.744092	0	
0.2213	8.88301	-2.60432	0	
0.2220	5.21304	-2.60432	0	
0.2227	4.90025	0.744092	0	
0.2233	6.13053	1.05739	0	
0.2240	3.69083	1.3707	0	
0.2247	0.646416	2.58474	0	
0.2253	-1.50135	-0.156651	0	
0.2260	-3.02356	-3.21135	0	
0.2267	-3.62827	-1.684	0	
0.2273	-5.46326	-0.156651	0	
0.2280	-5.46326	-0.763674	0	
0.2287	1.54306	-1.07698	0	
0.2293	6.73524	0.13707	0	
0.2300	2.46055	-0.156651	0	
0.2307	-4.85855	-2.91762	0	
0.2313	-8.52853	-5.34572	0	
0.2320	-10.0507	-3.81837	0	
0.2327	-7.90296	-1.684	0	
0.2333	-3.02356	-1.684	0	
0.2340	-1.18857	-0.763674	0	
0.2347	-3.02356	-1.07698	0	
0.2353	-4.85855	-2.29102	0	
0.2360	-2.41885	1.66442	0	
0.2367	1.25113	4.42539	0	
0.2373	3.37805	1.05739	0	
0.2380	5.21304	-1.07698	0	
0.2387	7.36081	-1.07698	0	
0.2393	9.48772	-2.29102	0	
0.2400	11.3227	-1.9973	0	
0.2407	12.5321	-1.07698	0	
0.2413	11.9274	-1.9973	0	
0.2420	13.4496	0.450372	0	
0.2427	16.2021	4.42539	0	
0.2433	11.6146	4.42539	0	
0.2440	0.333634	2.58474	0	
0.2447	-6.69354	2.27144	0	
0.2453	-6.06797	1.66442	0	
0.2460	-6.98547	0.744092	0	
0.2467	-11.2602	0.744092	0	
0.2473	-10.9682	1.05739	0	
0.2480	-8.21574	-1.684	0	
0.2487	-8.82046	-3.52465	0	
0.2493	-7.29825	0.13707	0	
0.2500	0.646416	4.11209	0	
0.2507	4.60832	3.50507	0	
0.2513	-1.81414	2.27144	0	
0.2520	-14.0126	0.744092	0	
0.2527	-19.8095	0.450372	0	
0.2533	-11.5729	4.11209	0	
0.2540	0.0208521	3.79879	0	
0.2547	0.333634	-5.05199	0	
0.2553	-4.85855	-10.5348	0	
0.2560	-3.02356	-8.08711	0	
0.2567	0.646416	-5.65902	0	
0.2573	0.646416	-3.81837	0	
0.2580	1.54306	-1.07698	0	
0.2587	2.46055	-0.156651	0	
0.2593	4.90025	-2.91762	0	
0.2600	12.8449	-5.65902	0	
0.2607	17.1196	-5.95274	0	
0.2613	12.8449	-3.21135	0	
0.2620	10.0924	-1.684	0	
0.2627	11.9274	-1.9973	0	
0.2633	12.8449	-1.9973	0	
0.2640	8.25745	-1.9973	0	
0.2647	-3.02356	-0.156651	0	
0.2653	-11.8857	4.11209	0	
0.2660	-9.42517	4.11209	0	
0.2667	-7.29825	0.744092	0	
0.2673	-9.13324	-0.156651	0	
0.2680	0.333634	0.744092	0	
0.2687	11.6146	3.19176	0	
0.2693	6.44331	5.63944	0	
0.2700	-1.18857	6.24646	0	
0.2707	-2.10607	6.24646	0	
0.2713	-9.42517	6.24646	0	
0.2720	-21.9365	2.58474	0	
0.2727	-28.6508	-1.9973	0	
0.2733	-29.2764	-2.29102	0	
0.2740	-21.0398	-1.9973	0	
0.2747	-9.13324	-3.52465	0	
0.2753	-4.54577	-3.81837	0	
0.2760	-3.02356	-2.91762	0	
0.2767	1.85584	-2.60432	0	
0.2773	4.90025	-1.9973	0	
0.2780	7.36081	-1.684	0	
0.2787	9.80051	-2.91762	0	
0.2793	7.36081	-3.81837	0	
0.2800	5.21304	-2.91762	0	
0.2807	3.37805	-2.60432	0	
0.2813	-4.25384	-1.684	0	
0.2820	-9.13324	0.450372	0	
0.2827	-2.71078	2.27144	0	
0.2833	7.96552	3.19176	0	
0.2840	13.1577	3.50507	0	
0.2847	8.25745	4.71911	0	
0.2853	-1.18857	4.71911	0	
0.2860	-1.81414	2.58474	0	
0.2867	-0.271078	2.27144	0	
0.2873	-9.42517	5.32613	0	
0.2880	-17.9745	7.4605	0	
0.2887	-17.0571	6.55976	0	
0.2893	-17.3698	5.63944	0	
0.2900	-19.4968	6.24646	0	
0.2907	-17.6826	5.03241	0	
0.2913	-14.0126	0.13707	0	
0.2920	-12.1777	-3.21135	0	
0.2927	-10.3427	-1.07698	0	
0.2933	-7.29825	1.66442	0	
0.2940	-1.81414	-1.39028	0	
0.2947	4.90025	-3.81837	0	
0.2953	8.57023	-1.9973	0	
0.2960	6.13053	-1.07698	0	
0.2967	1.85584	-1.9973	0	
0.2973	5.21304	0.13707	0	
0.2980	13.4496	3.79879	0	
0.2987	13.7624	2.27144	0	
0.2993	10.718	-2.91762	0	
0.3000	11.6146	-3.81837	0	
0.3007	11.9274	-1.9973	0	
0.3013	13.4496	-1.39028	0	
0.3020	17.1196	-1.9973	0	
0.3027	15.2846	-1.39028	0	
0.3033	11.9274	-0.156651	0	
0.3040	13.4496	-1.07698	0	
0.3047	13.4496	-2.91762	0	
0.3053	10.718	-1.07698	0	
0.3060	10.718	1.66442	0	
0.3067	9.17494	-0.763674	0	
0.3073	5.81775	-1.9973	0	
0.3080	4.60832	2.58474	0	
0.3087	2.46055	3.79879	0	
0.3093	-1.18857	-1.9973	0	
0.3100	-3.02356	-3.21135	0	
0.3107	-4.25384	1.05739	0	
0.3113	-5.17133	3.19176	0	
0.3120	-4.85855	4.11209	0	
0.3127	-4.85855	5.03241	0	
0.3133	-6.06797	2.58474	0	
0.3140	-5.77604	0.744092	0	
0.3147	-3.02356	2.27144	0	
0.3153	2.16862	2.58474	0	
0.3160	5.52582	2.58474	0	
0.3167	5.81775	1.97772	0	
0.3173	4.90025	-0.469953	0	
0.3180	4.60832	-1.07698	0	
0.3187	6.13053	0.13707	0	
0.3193	10.4052	-1.39028	0	
0.3200	12.5321	-2.60432	0	
0.3207	8.88301	-3.21135	0	
0.3213	6.73524	-4.73869	0	
0.3220	11.9274	-2.60432	0	
0.3227	14.6799	2.58474	0	
0.3233	9.80051	2.89804	0	
0.3240	5.21304	1.66442	0	
0.3247	4.29554	2.27144	0	
0.3253	2.46055	1.05739	0	
0.3260	1.25113	0.13707	0	
0.3267	2.77333	2.27144	0	
0.3273	4.60832	2.58474	0	
0.3280	1.25113	-0.156651	0	
0.3287	-6.69354	-1.07698	0	
0.3293	-12.1777	-0.156651	0	
0.3300	-13.6999	0.450372	0	
0.3307	-13.4079	1.05739	0	
0.3313	-13.4079	-0.156651	0	
0.3320	-12.7824	-1.07698	0	
0.3327	-9.73795	-1.07698	0	
0.3333	-4.25384	-1.684	0	
0.3340	-0.896642	-3.21135	0	
0.3347	-1.18857	-2.91762	0	
0.3353	-0.58386	-1.9973	0	
0.3360	0.646416	-2.60432	0	
0.3367	1.54306	-1.07698	0	
0.3373	3.37805	1.66442	0	
0.3380	7.36081	1.66442	0	
0.3387	10.718	-0.156651	0	
0.3393	11.6146	-0.469953	0	
0.3400	9.48772	-0.156651	0	
0.3407	6.13053	1.3707	0	
0.3413	4.29554	2.27144	0	
0.3420	2.46055	0.450372	0	
0.3427	1.54306	-1.684	0	
0.3433	3.69083	0.13707	0	
0.3440	7.04802	0.744092	0	
0.3447	6.44331	-0.156651	0	
0.3453	3.37805	1.05739	0	
0.3460	1.25113	2.58474	0	
0.3467	0.0208521	0.744092	0	
0.3473	-1.18857	-0.469953	0	
0.3480	-2.10607	1.05739	0	
0.3487	-3.02356	2.58474	0	
0.3493	-6.38076	0.744092	0	
0.3500	-7.61103	-4.73869	0	
0.3507	-4.54577	-9.32073	0	
0.3513	-3.62827	-8.08711	0	
0.3520	-6.38076	-5.05199	0	
0.3527	-7.61103	-2.60432	0	
0.3533	-7.29825	-1.07698	0	
0.3540	-3.33634	-3.52465	0	
0.3547	-1.50135	-5.65902	0	
0.3553	-10.3427	-4.13167	0	
0.3560	-12.7824	-2.29102	0	
0.3567	2.46055	-0.156651	0	
0.3573	11.6146	1.3707	0	
0.3580	5.21304	0.13707	0	
0.3587	5.21304	-0.469953	0	
0.3593	5.81775	-0.156651	0	
0.3600	-1.18857	-1.9973	0	
0.3607	3.08612	-0.156651	0	
0.3613	15.2846	5.03241	0	
0.3620	13.4496	2.58474	0	
0.3627	6.44331	-0.469953	0	
0.3633	5.52582	2.89804	0	
0.3640	3.37805	1.97772	0	
0.3647	1.54306	-2.91762	0	
0.3653	2.46055	-1.07698	0	
0.3660	-1.18857	2.27144	0	
0.3667	-4.54577	1.3707	0	
0.3673	-3.02356	0.450372	0	
0.3680	-3.33634	-0.156651	0	
0.3687	-6.38076	-0.156651	0	
0.3693	-8.21574	3.19176	0	
0.3700	-10.3427	4.42539	0	
0.3707	-12.7824	2.58474	0	
0.3713	-11.8857	3.19176	0	
0.3720	-10.0507	4.42539	0	
0.3727	-10.3427	1.97772	0	
0.3733	-9.13324	0.13707	0	
0.3740	-4.54577	1.3707	0	
0.3747	-2.41885	2.58474	0	
0.3753	-5.17133	1.66442	0	
0.3760	-6.06797	-1.07698	0	
0.3767	-2.41885	-3.81837	0	
0.3773	0.938346	-6.87306	0	
0.3780	2.46055	-8.71371	0	
0.3787	1.54306	-5.65902	0	
0.3793	0.646416	-1.07698	0	
0.3800	2.46055	-0.763674	0	
0.3807	7.96552	-3.21135	0	
0.3813	10.0924	-3.81837	0	
0.3820	7.65274	-2.29102	0	
0.3827	5.81775	-1.684	0	
0.3833	6.44331	-1.684	0	
0.3840	6.13053	-1.39028	0	
0.3847	4.29554	-0.156651	0	
0.3853	4.29554	1.3707	0	
0.3860	5.52582	3.19176	0	
0.3867	3.37805	5.32613	0	
0.3873	-1.81414	5.32613	0	
0.3880	-4.85855	4.42539	0	
0.3887	-7.61103	2.27144	0	
0.3893	-11.2602	1.05739	0	
0.3900	-4.85855	5.32613	0	
0.3907	7.96552	8.98785	0	
0.3913	7.04802	1.97772	0	
0.3920	-5.46326	-7.79339	0	
0.3927	-10.6554	-7.48009	0	
0.3933	-12.4904	-1.39028	0	
0.3940	-21.3317	1.05739	0	
0.3947	-24.6889	-1.07698	0	
0.3953	-17.9745	-6.26604	0	
0.3960	-18.2873	-8.40041	0	
0.3967	-18.892	-4.73869	0	
0.3973	-4.25384	-3.81837	0	
0.3980	11.3227	-7.48009	0	
0.3987	10.4052	-7.18636	0	
0.3993	2.77333	-3.21135	0	
0.4000	2.46055	-1.9973	0	
0.4007	6.73524	-1.9973	0	
0.4013	7.96552	1.66442	0	
0.4020	3.37805	4.42539	0	
0.4027	0.646416	3.50507	0	
0.4033	4.29554	-0.469953	0	
0.4040	7.36081	-3.81837	0	
0.4047	3.37805	-5.34572	0	
0.4053	-0.58386	-5.65902	0	
0.4060	-1.18857	-2.91762	0	
0.4067	0.646416	0.13707	0	
0.4073	2.46055	-0.156651	0	
0.4080	0.646416	-1.07698	0	
0.4087	-1.18857	-1.9973	0	
0.4093	-1.81414	-3.21135	0	
0.4100	-4.25384	-0.763674	0	
0.4107	-8.52853	3.50507	0	
0.4113	-11.2602	2.89804	0	
0.4120	-12.4904	1.66442	0	
0.4127	-13.4079	2.58474	0	
0.4133	-14.3254	2.58474	0	
0.4140	-13.6999	1.3707	0	
0.4147	-8.82046	0.13707	0	
0.4153	-1.81414	-2.91762	0	
0.4160	1.25113	-5.95274	0	
0.4167	0.0208521	-6.26604	0	
0.4173	-0.271078	-2.91762	0	
0.4180	1.25113	0.13707	0	
0.4187	4.60832	-0.156651	0	
0.4193	12.5321	-1.9973	0	
0.4200	20.7687	-1.39028	0	
0.4207	22.3118	0.450372	0	
0.4213	18.6418	0.744092	0	
0.4220	15.2846	-0.156651	0	
0.4227	12.8449	-2.29102	0	
0.4233	9.48772	-2.60432	0	
0.4240	2.46055	1.3707	0	
0.4247	-4.54577	4.71911	0	
0.4253	-3.94105	3.50507	0	
0.4260	-3.02356	0.450372	0	
0.4267	-9.42517	-1.684	0	
0.4273	-13.0951	-1.07698	0	
0.4280	-10.3427	1.3707	0	
0.4287	-11.2602	1.3707	0	
0.4293	-14.3254	-0.469953	0	
0.4300	-10.3427	-1.9973	0	
0.4307	-4.25384	-4.13167	0	
0.4313	-1.81414	-5.65902	0	
0.4320	-2.41885	-4.73869	0	
0.4327	-5.46326	-3.81837	0	
0.4333	-6.98547	-3.52465	0	
0.4340	-6.98547	-1.9973	0	
0.4347	-6.69354	-0.763674	0	
0.4353	-3.62827	0.450372	0	
0.4360	0.0208521	1.66442	0	
0.4367	-1.81414	0.744092	0	
0.4373	-3.94105	-0.156651	0	
0.4380	1.85584	1.05739	0	
0.4387	9.80051	0.13707	0	
0.4393	9.80051	-1.684	0	
0.4400	8.57023	0.744092	0	
0.4407	14.3671	3.79879	0	
0.4413	19.8721	2.27144	0	
0.4420	18.0371	0.13707	0	
0.4427	13.1577	1.05739	0	
0.4433	7.96552	0.450372	0	
0.4440	1.85584	-1.9973	0	
0.4447	0.333634	-0.469953	0	
0.4453	0.938346	1.97772	0	
0.4460	-3.94105	0.450372	0	
0.4467	-9.13324	-0.763674	0	
0.4473	-7.29825	0.13707	0	
0.4480	-4.25384	-1.07698	0	
0.4487	-6.98547	-2.60432	0	
0.4493	-9.42517	-0.469953	0	
0.4500	-8.52853	0.744092	0	
0.4507	-6.69354	-0.156651	0	
0.4513	-4.85855	-0.156651	0	
0.4520	-4.25384	1.3707	0	
0.4527	-4.25384	1.97772	0	
0.4533	-2.71078	1.66442	0	
0.4540	-1.18857	1.66442	0	
0.4547	-2.71078	1.66442	0	
0.4553	-3.02356	1.66442	0	
0.4560	0.646416	3.19176	0	
0.4567	2.46055	3.50507	0	
0.4573	-0.271078	-0.763674	0	
0.4580	-1.50135	-2.91762	0	
0.4587	3.37805	1.3707	0	
0.4593	7.65274	3.19176	0	
0.4600	6.13053	-2.91762	0	
0.4607	5.81775	-5.65902	0	
0.4613	7.96552	-3.21135	0	
0.4620	7.96552	-1.9973	0	
0.4627	5.21304	-2.29102	0	
0.4633	3.08612	-1.39028	0	
0.4640	0.333634	-0.763674	0	
0.4647	-2.10607	-0.156651	0	
0.4653	-1.81414	0.450372	0	
0.4660	-3.02356	1.3707	0	
0.4667	-5.77604	3.19176	0	
0.4673	-6.38076	2.27144	0	
0.4680	-6.69354	-1.9973	0	
0.4687	-8.52853	-3.21135	0	
0.4693	-10.6554	-1.39028	0	
0.4700	-13.0951	-1.07698	0	
0.4707	-14.3254	-0.469953	0	
0.4713	-10.3427	1.3707	0	
0.4720	-3.62827	1.66442	0	
0.4727	-2.10607	0.744092	0	
0.4733	-5.77604	2.27144	0	
0.4740	-6.69354	5.63944	0	
0.4747	-3.02356	6.24646	0	
0.4753	-1.81414	3.19176	0	
0.4760	-2.41885	0.13707	0	
0.4767	-0.896642	0.13707	0	
0.4773	2.16862	0.450372	0	
0.4780	3.37805	-3.81837	0	
0.4787	3.08612	-9.00743	0	
0.4793	2.46055	-7.79339	0	
0.4800	2.77333	-3.81837	0	
0.4807	4.29554	-3.21135	0	
0.4813	5.21304	-4.13167	0	
0.4820	4.90025	-3.81837	0	
0.4827	5.52582	-3.81837	0	
0.4833	6.13053	-2.91762	0	
0.4840	4.90025	-0.469953	0	
0.4847	1.54306	-0.156651	0	
0.4853	-3.02356	0.744092	0	
0.4860	-3.94105	1.66442	0	
0.4867	-2.10607	-1.07698	0	
0.4873	-3.02356	-2.91762	0	
0.4880	-6.69354	-0.156651	0	
0.4887	-7.61103	0.744092	0	
0.4893	-8.52853	0.450372	0	
0.4900	-11.5729	1.05739	0	
0.4907	-13.0951	1.05739	0	
0.4913	-9.73795	1.3707	0	
0.4920	-7.29825	1.3707	0	
0.4927	-6.69354	-1.39028	0	
0.4933	-5.46326	-3.52465	0	
0.4940	-3.33634	-3.52465	0	
0.4947	-3.94105	-3.81837	0	
0.4953	-3.94105	-2.29102	0	
0.4960	2.46055	0.450372	0	
0.4967	11.6146	-0.469953	0	
0.4973	13.7624	-0.763674	0	
0.4980	10.4052	1.66442	0	
0.4987	7.04802	1.97772	0	
0.4993	5.21304	1.66442	0	
0.5000	4.60832	1.97772	0	
0.5007	0.938346	0.744092	0	
0.5013	-7.61103	1.05739	0	
0.5020	-9.73795	4.11209	0	
0.5027	-5.46326	1.97772	0	
0.5033	-7.29825	-1.9973	0	
0.5040	-12.1777	-0.469953	0	
0.5047	-10.6554	1.3707	0	
0.5053	-6.98547	1.05739	0	
0.5060	-3.94105	4.42539	0	
0.5067	2.46055	6.55976	0	
0.5073	9.80051	5.32613	0	
0.5080	13.4496	7.4605	0	
0.5087	8.88301	8.08711	0	
0.5093	-3.94105	-2.29102	0	
0.5100	-10.9682	-12.3754	0	
0.5107	-3.62827	-11.7488	0	
0.5113	1.85584	-7.48009	0	
0.5120	-3.02356	-3.52465	0	
0.5127	-6.98547	-0.156651	0	
0.5133	-5.77604	-1.07698	0	
0.5140	-3.62827	-2.60432	0	
0.5147	-1.81414	-2.60432	0	
0.5153	-0.58386	-4.73869	0	
0.5160	0.0208521	-6.57934	0	
0.5167	2.46055	-2.91762	0	
0.5173	4.29554	0.744092	0	
0.5180	4.29554	0.450372	0	
0.5187	6.73524	-1.684	0	
0.5193	9.17494	-3.21135	0	
0.5200	9.80051	-3.81837	0	
0.5207	10.4052	-2.60432	0	
0.5213	10.718	0.744092	0	
0.5220	7.96552	2.58474	0	
0.5227	4.90025	-0.156651	0	
0.5233	4.29554	-3.81837	0	
0.5240	5.81775	-1.9973	0	
0.5247	7.96552	-0.469953	0	
0.5253	7.04802	-1.9973	0	
0.5260	4.00361	-2.29102	0	
0.5267	4.60832	-0.763674	0	
0.5273	5.21304	-0.156651	0	
0.5280	-2.41885	1.66442	0	
0.5287	-10.3427	3.79879	0	
0.5293	-11.2602	2.58474	0	
0.5300	-13.0951	1.3707	0	
0.5307	-16.7651	2.27144	0	
0.5313	-15.8476	2.89804	0	
0.5320	-12.7824	2.58474	0	
0.5327	-10.3427	1.66442	0	
0.5333	-8.21574	1.05739	0	
0.5340	-8.21574	1.05739	0	
0.5347	-5.77604	0.744092	0	
0.5353	-0.271078	0.744092	0	
0.5360	-1.18857	1.3707	0	
0.5367	-2.10607	1.66442	0	
0.5373	4.29554	1.05739	0	
0.5380	9.80051	0.744092	0	
0.5387	10.718	0.13707	0	
0.5393	14.3671	1.3707	0	
0.5400	15.8893	4.11209	0	
0.5407	12.5321	4.42539	0	
0.5413	12.8449	2.27144	0	
0.5420	16.2021	-0.469953	0	
0.5427	12.8449	-1.9973	0	
0.5433	5.52582	-1.07698	0	
0.5440	-0.271078	2.58474	0	
0.5447	-3.62827	2.27144	0	
0.5453	-3.33634	-0.156651	0	
0.5460	0.938346	-0.469953	0	
0.5467	6.44331	-0.156651	0	
0.5473	9.17494	1.3707	0	
0.5480	7.65274	5.03241	0	
0.5487	3.69083	7.16678	0	
0.5493	-0.58386	5.93316	0	
0.5500	-4.54577	2.58474	0	
0.5507	-8.21574	-1.07698	0	
0.5513	-15.5348	-1.9973	0	
0.5520	-25.0017	-1.684	0	
0.5527	-31.4033	-3.81837	0	
0.5533	-29.5683	-5.05199	0	
0.5540	-19.2048	-1.9973	0	
0.5547	-7.29825	0.450372	0	
0.5553	-3.02356	-0.763674	0	
0.5560	-3.62827	-0.763674	0	
0.5567	-1.81414	1.66442	0	
0.5573	0.333634	2.27144	0	
0.5580	2.46055	1.3707	0	
0.5587	7.96552	1.66442	0	
0.5593	11.9274	2.89804	0	
0.5600	10.718	3.19176	0	
0.5607	10.0924	1.66442	0	
0.5613	11.3227	-1.39028	0	
0.5620	9.80051	-3.21135	0	
0.5627	10.4052	-0.469953	0	
0.5633	11.6146	1.66442	0	
0.5640	7.96552	1.66442	0	
0.5647	4.29554	3.50507	0	
0.5653	5.81775	5.63944	0	
0.5660	5.21304	4.71911	0	
0.5667	0.333634	4.71911	0	
0.5673	-3.02356	4.42539	0	
0.5680	-6.69354	0.13707	0	
0.5687	-10.3427	-2.91762	0	
0.5693	-9.42517	-4.42539	0	
0.5700	-5.77604	-6.57934	0	
0.5707	-3.33634	-5.95274	0	
0.5713	-2.10607	-3.81837	0	
0.5720	-5.17133	-5.34572	0	
0.5727	-5.77604	-5.05199	0	
0.5733	4.29554	-1.07698	0	
0.5740	12.5321	0.450372	0	
0.5747	7.65274	-1.07698	0	
0.5753	1.54306	0.450372	0	
0.5760	2.46055	1.66442	0	
0.5767	2.46055	0.450372	0	
0.5773	2.46055	-0.469953	0	
0.5780	7.65274	0.450372	0	
0.5787	10.4052	0.450372	0	
0.5793	7.96552	-0.763674	0	
0.5800	11.6146	-1.07698	0	
0.5807	21.0815	0.13707	0	
0.5813	25.9609	3.50507	0	
0.5820	24.4387	7.16678	0	
0.5827	14.0543	4.42539	0	
0.5833	-3.33634	-1.07698	0	
0.5840	-7.90296	-0.469953	0	
0.5847	0.938346	1.66442	0	
0.5853	-2.10607	-0.156651	0	
0.5860	-10.3427	-1.07698	0	
0.5867	-5.77604	1.05739	0	
0.5873	-5.46326	1.66442	0	
0.5880	-16.7651	3.79879	0	
0.5887	-14.6174	5.03241	0	
0.5893	-2.71078	0.450372	0	
0.5900	-3.02356	-3.81837	0	
0.5907	-8.82046	-3.81837	0	
0.5913	-7.61103	-8.08711	0	
0.5920	-5.17133	-13.2762	0	
0.5927	-4.85855	-9.00743	0	
0.5933	-3.62827	-3.21135	0	
0.5940	-0.58386	-2.29102	0	
0.5947	0.646416	-0.156651	0	
0.5953	0.333634	1.05739	0	
0.5960	2.46055	-1.9973	0	
0.5967	3.69083	-2.91762	0	
0.5973	0.938346	0.450372	0	
0.5980	1.54306	-0.156651	0	
0.5987	7.96552	-2.91762	0	
0.5993	10.718	-5.34572	0	
0.6000	11.0099	-6.57934	0	
0.6007	12.5321	-4.42539	0	
0.6013	7.65274	-1.684	0	
0.6020	2.16862	-0.469953	0	
0.6027	3.37805	-0.469953	0	
0.6033	4.90025	-1.07698	0	
0.6040	4.29554	-2.60432	0	
0.6047	5.21304	-2.29102	0	
0.6053	1.25113	-0.763674	0	
0.6060	-4.85855	-0.763674	0	
0.6067	-1.50135	0.744092	0	
0.6073	0.646416	2.89804	0	
0.6080	-5.77604	1.97772	0	
0.6087	-6.69354	-0.763674	0	
0.6093	-5.46326	-0.156651	0	
0.6100	-10.9682	1.97772	0	
0.6107	-11.5729	2.89804	0	
0.6113	-7.61103	3.79879	0	
0.6120	-10.3427	4.11209	0	
0.6127	-12.1777	1.97772	0	
0.6133	-6.06797	0.744092	0	
0.6140	-3.02356	2.27144	0	
0.6147	-3.02356	3.50507	0	
0.6153	-0.58386	2.27144	0	
0.6160	-0.271078	1.05739	0	
0.6167	-0.58386	1.3707	0	
0.6173	2.46055	1.05739	0	
0.6180	5.81775	-1.07698	0	
0.6187	6.13053	-1.9973	0	
0.6193	6.73524	-0.763674	0	
0.6200	9.48772	0.13707	0	
0.6207	11.6146	-0.156651	0	
0.6213	11.0099	-1.07698	0	
0.6220	10.0924	-0.156651	0	
0.6227	9.80051	0.744092	0	
0.6233	8.88301	0.744092	0	
0.6240	6.44331	1.66442	0	
0.6247	3.69083	2.58474	0	
0.6253	-0.896642	0.744092	0	
0.6260	-6.38076	-1.9973	0	
0.6267	-10.0507	-1.07698	0	
0.6273	-10.6554	0.744092	0	
0.6280	-10.3427	1.3707	0	
0.6287	-10.9682	1.66442	0	
0.6293	-12.1777	0.744092	0	
0.6300	-10.3427	0.744092	0	
0.6307	-6.69354	2.58474	0	
0.6313	-5.46326	3.19176	0	
0.6320	-4.54577	1.97772	0	
0.6327	-1.18857	0.450372	0	
0.6333	0.333634	-0.156651	0	
0.6340	-0.896642	0.744092	0	
0.6347	-0.271078	1.97772	0	
0.6353	1.54306	1.3707	0	
0.6360	4.00361	-0.156651	0	
0.6367	6.44331	-1.9973	0	
0.6373	8.57023	-4.42539	0	
0.6380	10.0924	-4.73869	0	
0.6387	10.718	-2.60432	0	
0.6393	8.57023	-3.81837	0	
0.6400	6.44331	-5.95274	0	
0.6407	9.80051	-3.81837	0	
0.6413	10.718	-2.91762	0	
0.6420	5.52582	-4.73869	0	
0.6427	4.90025	-4.13167	0	
0.6433	11.6146	-1.07698	0	
0.6440	16.8068	-0.156651	0	
0.6447	14.6799	-0.763674	0	
0.6453	9.48772	-0.763674	0	
0.6460	5.21304	-1.07698	0	
0.6467	2.46055	-1.9973	0	
0.6473	-0.58386	-2.29102	0	
0.6480	-3.33634	-1.07698	0	
0.6487	-4.85855	0.13707	0	
0.6493	-6.69354	0.13707	0	
0.6500	-7.61103	0.744092	0	
0.6507	-6.38076	1.66442	0	
0.6513	-6.69354	1.05739	0	
0.6520	-8.52853	0.450372	0	
0.6527	-6.38076	2.58474	0	
0.6533	-2.71078	4.11209	0	
0.6540	-1.18857	1.66442	0	
0.6547	-1.18857	-1.07698	0	
0.6553	-1.81414	-1.9973	0	
0.6560	-0.271078	-1.9973	0	
0.6567	2.46055	-0.156651	0	
0.6573	2.46055	2.58474	0	
0.6580	1.54306	2.58474	0	
0.6587	4.60832	-0.156651	0	
0.6593	4.60832	-0.469953	0	
0.6600	2.16862	0.744092	0	
0.6607	3.69083	0.450372	0	
0.6613	4.29554	0.450372	0	
0.6620	0.938346	0.744092	0	
0.6627	1.54306	-0.156651	0	
0.6633	4.00361	0.744092	0	
0.6640	3.08612	4.42539	0	
0.6647	1.54306	4.11209	0	
0.6653	1.25113	0.450372	0	
0.6660	0.0208521	0.13707	0	
0.6667	-4.85855	1.66442	0	
0.6673	-12.1777	0.744092	0	
0.6680	-7.61103	2.58474	0	
0.6687	8.88301	5.63944	0	
0.6693	13.4496	7.4605	0	
0.6700	-0.271078	8.38083	0	
0.6707	-12.7824	6.85348	0	
0.6713	-16.7651	-1.07698	0	
0.6720	-18.5793	-7.79339	0	
0.6727	-19.2048	-5.65902	0	
0.6733	-18.5793	-0.469953	0	
0.6740	-16.7651	0.744092	0	
0.6747	-17.0571	-0.156651	0	
0.6753	-22.2492	-1.9973	0	
0.6760	-22.2492	-5.34572	0	
0.6767	-10.3427	-8.40041	0	
0.6773	-1.18857	-6.57934	0	
0.6780	-3.62827	-1.07698	0	
0.6787	-2.10607	3.19176	0	
0.6793	10.718	2.89804	0	
0.6800	19.5593	-0.156651	0	
0.6807	13.7624	-1.684	0	
0.6813	2.77333	-1.9973	0	
0.6820	-2.41885	-3.52465	0	
0.6827	-0.58386	-4.42539	0	
0.6833	2.46055	-4.13167	0	
0.6840	3.37805	-5.65902	0	
0.6847	1.54306	-5.65902	0	
0.6853	-0.896642	-2.91762	0	
0.6860	-3.62827	-3.81837	0	
0.6867	-5.77604	-8.40041	0	
0.6873	-4.54577	-5.34572	0	
0.6880	-3.33634	-0.763674	0	
0.6887	-5.77604	-2.91762	0	
0.6893	-8.21574	-4.73869	0	
0.6900	-10.3427	-1.9973	0	
0.6907	-13.6999	-1.684	0	
0.6913	-13.6999	-1.39028	0	
0.6920	-9.42517	1.66442	0	
0.6927	-8.21574	1.97772	0	
0.6933	-8.52853	1.66442	0	
0.6940	-4.85855	3.50507	0	
0.6947	-1.81414	2.89804	0	
0.6953	-1.18857	-0.763674	0	
0.6960	0.646416	-1.9973	0	
0.6967	2.46055	-2.60432	0	
0.6973	2.16862	-1.07698	0	
0.6980	2.46055	2.27144	0	
0.6987	1.54306	1.66442	0	
0.6993	-0.271078	-1.684	0	
0.7000	2.46055	-2.29102	0	
0.7007	8.88301	-2.29102	0	
0.7013	11.6146	-1.07698	0	
0.7020	10.4052	1.97772	0	
0.7027	10.0924	0.744092	0	
0.7033	7.96552	-0.469953	0	
0.7040	2.46055	4.42539	0	
0.7047	4.29554	8.08711	0	
0.7053	15.2846	6.24646	0	
0.7060	21.6862	5.32613	0	
0.7067	18.9546	5.03241	0	
0.7073	16.5149	5.03241	0	
0.7080	13.4496	6.85348	0	
0.7087	6.13053	7.16678	0	
0.7093	1.54306	7.16678	0	
0.7100	-3.62827	5.63944	0	
0.7107	-18.5793	-0.469953	0	
0.7113	-34.7605	-6.26604	0	
0.7120	-42.3924	-7.18636	0	
0.7127	-42.7052	-9.61446	0	
0.7133	-35.678	-13.5895	0	
0.7140	-21.3317	-9.61446	0	
0.7147	-7.90296	-3.21135	0	
0.7153	-2.10607	-0.156651	0	
0.7160	-3.02356	2.27144	0	
0.7167	-4.54577	3.50507	0	
0.7173	-2.71078	1.66442	0	
0.7180	1.85584	-0.469953	0	
0.7187	4.90025	-1.9973	0	
0.7193	4.90025	-3.81837	0	
0.7200	4.60832	-3.81837	0	
0.7207	7.96552	-1.9973	0	
0.7213	8.88301	-3.81837	0	
0.7220	5.81775	-4.73869	0	
0.7227	6.44331	-1.9973	0	
0.7233	4.90025	-0.763674	0	
0.7240	-5.77604	-3.21135	0	
0.7247	-4.85855	-1.07698	0	
0.7253	12.5321	4.42539	0	
0.7260	18.9546	5.32613	0	
0.7267	10.0924	2.89804	0	
0.7273	4.90025	0.744092	0	
0.7280	1.25113	0.744092	0	
0.7287	-6.38076	1.97772	0	
0.7293	-9.73795	-0.156651	0	
0.7300	-8.52853	-2.91762	0	
0.7307	-8.21574	0.450372	0	
0.7313	-7.61103	1.3707	0	
0.7320	-6.06797	-2.91762	0	
0.7327	-4.54577	-1.9973	0	
0.7333	-2.41885	1.97772	0	
0.7340	-2.10607	-1.07698	0	
0.7347	-2.41885	-4.42539	0	
0.7353	-1.81414	-1.39028	0	
0.7360	-2.71078	2.89804	0	
0.7367	-4.25384	3.50507	0	
0.7373	-2.10607	1.66442	0	
0.7380	1.54306	0.13707	0	
0.7387	3.37805	-0.763674	0	
0.7393	6.73524	-0.763674	0	
0.7400	10.718	1.05739	0	
0.7407	12.5321	1.97772	0	
0.7413	12.5321	0.450372	0	
0.7420	12.5321	1.3707	0	
0.7427	13.4496	3.50507	0	
0.7433	12.8449	0.744092	0	
0.7440	7.65274	-1.07698	0	
0.7447	-1.50135	3.50507	0	
0.7453	-4.85855	5.32613	0	
0.7460	3.37805	0.13707	0	
0.7467	7.96552	-4.42539	0	
0.7473	-2.41885	-6.57934	0	
0.7480	-13.0951	-2.60432	0	
0.7487	-11.5729	3.50507	0	
0.7493	-9.42517	1.05739	0	
0.7500	-13.6999	-3.21135	0	
0.7507	-12.4904	-1.07698	0	
0.7513	-5.77604	0.450372	0	
0.7520	-3.94105	-2.91762	0	
0.7527	-5.17133	-3.21135	0	
0.7533	-3.94105	-0.763674	0	
0.7540	-1.18857	-0.156651	0	
0.7547	0.646416	-0.469953	0	
0.7553	1.25113	-1.07698	0	
0.7560	0.938346	-0.763674	0	
0.7567	1.25113	-0.469953	0	
0.7573	3.37805	-2.60432	0	
0.7580	6.13053	-4.42539	0	
0.7587	5.52582	-2.91762	0	
0.7593	3.69083	-1.684	0	
0.7600	7.04802	-3.81837	0	
0.7607	11.3227	-4.73869	0	
0.7613	10.718	-2.91762	0	
0.7620	8.57023	-1.684	0	
0.7627	7.96552	-1.07698	0	
0.7633	6.73524	1.05739	0	
0.7640	7.36081	3.19176	0	
0.7647	7.96552	1.97772	0	
0.7653	2.77333	-0.156651	0	
0.7660	-2.10607	-1.07698	0	
0.7667	1.25113	-1.9973	0	
0.7673	3.08612	-3.81837	0	
0.7680	-1.50135	-3.81837	0	
0.7687	-3.94105	-1.9973	0	
0.7693	-3.02356	0.744092	0	
0.7700	-6.69354	4.71911	0	
0.7707	-11.2602	5.93316	0	
0.7713	-10.6554	3.19176	0	
0.7720	-8.21574	2.58474	0	
0.7727	-5.17133	4.71911	0	
0.7733	-2.10607	3.79879	0	
0.7740	-0.58386	-1.07698	0	
0.7747	0.333634	-3.81837	0	
0.7753	0.333634	-3.52465	0	
0.7760	-1.18857	-0.156651	0	
0.7767	-3.02356	2.58474	0	
0.7773	-2.41885	2.58474	0	
0.7780	0.0208521	1.97772	0	
0.7787	4.60832	3.19176	0	
0.7793	9.17494	1.3707	0	
0.7800	14.0543	-3.21135	0	
0.7807	20.7687	-3.81837	0	
0.7813	24.1259	-1.39028	0	
0.7820	17.1196	-1.39028	0	
0.7827	5.52582	-2.60432	0	
0.7833	-0.896642	-1.07698	0	
0.7840	-1.81414	1.97772	0	
0.7847	-6.06797	1.3707	0	
0.7853	-12.1777	-1.9973	0	
0.7860	-4.54577	0.13707	0	
0.7867	11.3227	3.79879	0	
0.7873	10.718	2.58474	0	
0.7880	-3.94105	3.19176	0	
0.7887	-9.73795	6.24646	0	
0.7893	-6.98547	4.42539	0	
0.7900	-8.52853	1.66442	0	
0.7907	-11.5729	2.27144	0	
0.7913	-10.3427	-0.156651	0	
0.7920	-8.21574	-0.469953	0	
0.7927	-8.52853	4.71911	0	
0.7933	-7.61103	3.79879	0	
0.7940	-2.71078	-3.21135	0	
0.7947	-1.18857	-6.57934	0	
0.7953	-4.85855	-6.26604	0	
0.7960	-6.38076	-5.05199	0	
0.7967	-6.98547	-1.9973	0	
0.7973	-7.90296	-1.07698	0	
0.7980	-3.94105	-2.91762	0	
0.7987	-3.02356	-3.52465	0	
0.7993	-8.52853	-1.9973	0	
0.8000	-0.271078	1.05739	0	
0.8007	19.8721	5.63944	0	
0.8013	22.9165	7.16678	0	
0.8020	11.9274	5.63944	0	
0.8027	7.36081	3.79879	0	
0.8033	4.29554	1.66442	0	
0.8040	-1.18857	1.66442	0	
0.8047	-0.271078	1.66442	0	
0.8053	1.85584	-0.763674	0	
0.8060	-1.18857	-3.81837	0	
0.8067	-4.85855	-3.81837	0	
0.8073	-5.77604	-1.9973	0	
0.8080	-4.54577	-1.684	0	
0.8087	-1.81414	-1.07698	0	
0.8093	-0.271078	-1.07698	0	
0.8100	-1.81414	-0.469953	0	
0.8107	-4.54577	0.450372	0	
0.8113	-5.17133	1.66442	0	
0.8120	-5.77604	1.3707	0	
0.8127	-8.82046	0.13707	0	
0.8133	-11.5729	1.3707	0	
0.8140	-11.8857	1.66442	0	
0.8147	-13.4079	-0.763674	0	
0.8153	-13.0951	-1.39028	0	
0.8160	-7.61103	1.66442	0	
0.8167	-3.94105	2.58474	0	
0.8173	-1.50135	0.744092	0	
0.8180	5.21304	0.744092	0	
0.8187	11.3227	-0.156651	0	
0.8193	9.17494	-3.21135	0	
0.8200	5.52582	-2.60432	0	
0.8207	5.21304	-1.9973	0	
0.8213	4.60832	-4.42539	0	
0.8220	4.90025	-5.34572	0	
0.8227	8.57023	-2.60432	0	
0.8233	10.0924	-0.763674	0	
0.8240	7.36081	1.05739	0	
0.8247	5.21304	3.79879	0	
0.8253	4.29554	4.11209	0	
0.8260	4.29554	3.50507	0	
0.8267	5.81775	4.42539	0	
0.8273	4.00361	4.71911	0	
0.8280	-3.02356	6.24646	0	
0.8287	-9.42517	7.16678	0	
0.8293	-11.2602	2.58474	0	
0.8300	-11.8857	-4.73869	0	
0.8307	-12.4904	-9.61446	0	
0.8313	-10.9682	-9.92776	0	
0.8320	-7.29825	-5.95274	0	
0.8327	-3.02356	-3.52465	0	
0.8333	-0.271078	-3.81837	0	
0.8340	-0.271078	-3.21135	0	
0.8347	0.646416	-0.156651	0	
0.8353	2.46055	0.450372	0	
0.8360	4.60832	0.13707	0	
0.8367	4.29554	0.744092	0	
0.8373	4.00361	0.13707	0	
0.8380	7.36081	0.13707	0	
0.8387	11.6146	1.3707	0	
0.8393	12.5321	0.450372	0	
0.8400	10.718	-0.763674	0	
0.8407	10.0924	-0.763674	0	
0.8413	8.57023	-1.39028	0	
0.8420	7.04802	-3.81837	0	
0.8427	7.65274	-5.65902	0	
0.8433	7.04802	-6.26604	0	
0.8440	5.52582	-5.65902	0	
0.8447	4.29554	-5.65902	0	
0.8453	2.46055	-5.65902	0	
0.8460	0.0208521	-1.9973	0	
0.8467	-2.10607	1.66442	0	
0.8473	-3.62827	0.744092	0	
0.8480	-3.94105	-2.91762	0	
0.8487	-5.77604	-3.52465	0	
0.8493	-10.3427	-1.9973	0	
0.8500	-12.1777	-1.07698	0	
0.8507	-10.6554	-0.469953	0	
0.8513	-10.6554	0.744092	0	
0.8520	-9.13324	1.97772	0	
0.8527	-3.62827	4.71911	0	
0.8533	-1.18857	6.85348	0	
0.8540	-2.41885	4.42539	0	
0.8547	-0.271078	1.66442	0	
0.8553	2.16862	3.19176	0	
0.8560	1.54306	4.42539	0	
0.8567	2.46055	3.19176	0	
0.8573	3.69083	3.50507	0	
0.8580	0.646416	3.19176	0	
0.8587	-0.271078	-0.469953	0	
0.8593	4.29554	-5.65902	0	
0.8600	9.80051	-10.2411	0	
0.8607	10.718	-10.8481	0	
0.8613	2.16862	-6.57934	0	
0.8620	-9.42517	-1.9973	0	
0.8627	-6.69354	0.450372	0	
0.8633	4.29554	-0.469953	0	
0.8640	6.13053	-1.9973	0	
0.8647	0.333634	-1.684	0	
0.8653	-1.18857	-1.684	0	
0.8660	-0.896642	-3.52465	0	
0.8667	-2.10607	-3.21135	0	
0.8673	-3.02356	-1.9973	0	
0.8680	-5.17133	-2.29102	0	
0.8687	-8.52853	-1.9973	0	
0.8693	-9.42517	-0.156651	0	
0.8700	-10.3427	-0.469953	0	
0.8707	-14.3254	-0.763674	0	
0.8713	-15.5348	0.744092	0	
0.8720	-9.73795	0.13707	0	
0.8727	-4.25384	-0.763674	0	
0.8733	-6.38076	0.744092	0	
0.8740	-8.52853	1.66442	0	
0.8747	-3.02356	1.97772	0	
0.8753	3.37805	1.97772	0	
0.8760	1.54306	0.744092	0	
0.8767	-2.10607	-0.156651	0	
0.8773	-0.896642	0.744092	0	
0.8780	2.46055	0.744092	0	
0.8787	5.21304	1.3707	0	
0.8793	7.04802	2.27144	0	
0.8800	7.36081	1.66442	0	
0.8807	6.13053	0.744092	0	
0.8813	4.29554	-1.07698	0	
0.8820	1.54306	-2.60432	0	
0.8827	1.85584	-1.684	0	
0.8833	4.29554	-1.07698	0	
0.8840	4.29554	-3.52465	0	
0.8847	4.00361	-1.684	0	
0.8853	4.60832	2.58474	0	
0.8860	9.17494	2.58474	0	
0.8867	21.6862	1.05739	0	
0.8873	30.5484	2.58474	0	
0.8880	18.329	4.11209	0	
0.8887	-3.94105	5.32613	0	
0.8893	-17.6826	7.16678	0	
0.8900	-21.6445	4.71911	0	
0.8907	-23.1667	1.97772	0	
0.8913	-21.9365	4.42539	0	
0.8920	-18.5793	6.24646	0	
0.8927	-12.1777	3.79879	0	
0.8933	-5.17133	0.744092	0	
0.8940	-3.62827	0.744092	0	
0.8947	-4.85855	1.97772	0	
0.8953	-2.71078	1.3707	0	
0.8960	1.25113	-1.07698	0	
0.8967	1.25113	-2.91762	0	
0.8973	1.54306	-3.81837	0	
0.8980	5.52582	-5.95274	0	
0.8987	7.04802	-5.95274	0	
0.8993	4.29554	-2.29102	0	
0.9000	6.44331	-1.9973	0	
0.9007	11.9274	-4.73869	0	
0.9013	10.0924	-3.81837	0	
0.9020	7.04802	-0.763674	0	
0.9027	8.57023	0.744092	0	
0.9033	6.13053	1.66442	0	
0.9040	2.46055	1.66442	0	
0.9047	5.21304	-1.07698	0	
0.9053	6.13053	-1.9973	0	
0.9060	2.77333	-0.156651	0	
0.9067	2.46055	0.744092	0	
0.9073	2.46055	-1.07698	0	
0.9080	-1.81414	-1.9973	0	
0.9087	-3.94105	-1.684	0	
0.9093	-3.94105	-0.469953	0	
0.9100	-5.77604	0.13707	0	
0.9107	-8.52853	0.13707	0	
0.9113	-9.42517	0.450372	0	
0.9120	-6.69354	-0.156651	0	
0.9127	-4.85855	-1.684	0	
0.9133	-5.46326	-2.91762	0	
0.9140	-5.77604	-1.9973	0	
0.9147	-3.94105	-0.763674	0	
0.9153	-2.10607	0.13707	0	
0.9160	-0.271078	0.450372	0	
0.9167	1.25113	0.744092	0	
0.9173	2.46055	0.744092	0	
0.9180	4.29554	-0.156651	0	
0.9187	6.13053	1.3707	0	
0.9193	9.48772	1.97772	0	
0.9200	16.2021	-1.07698	0	
0.9207	20.164	-2.60432	0	
0.9213	17.7243	-1.9973	0	
0.9220	17.4115	-3.52465	0	
0.9227	18.9546	-1.9973	0	
0.9233	14.3671	3.50507	0	
0.9240	8.57023	4.11209	0	
0.9247	5.21304	2.58474	0	
0.9253	-1.18857	4.42539	0	
0.9260	-10.6554	1.05739	0	
0.9267	-15.8476	-6.87306	0	
0.9273	-17.0571	-8.40041	0	
0.9280	-15.8476	-4.73869	0	
0.9287	-12.1777	-3.52465	0	
0.9293	-9.73795	-1.684	0	
0.9300	-9.13324	-0.156651	0	
0.9307	-9.42517	-1.684	0	
0.9313	-11.2602	-1.9973	0	
0.9320	-12.1777	-0.156651	0	
0.9327	-8.52853	-0.156651	0	
0.9333	-4.85855	1.3707	0	
0.9340	-3.02356	3.19176	0	
0.9347	-0.58386	0.450372	0	
0.9353	1.25113	-2.29102	0	
0.9360	-1.18857	0.744092	0	
0.9367	-2.41885	4.42539	0	
0.9373	2.16862	3.50507	0	
0.9380	6.13053	2.58474	0	
0.9387	5.21304	3.79879	0	
0.9393	7.36081	5.63944	0	
0.9400	7.96552	2.58474	0	
0.9407	-1.18857	-4.42539	0	
0.9413	-3.62827	-6.87306	0	
0.9420	14.0543	-1.9973	0	
0.9427	27.1912	-0.156651	0	
0.9433	17.1196	-4.73869	0	
0.9440	5.21304	-7.18636	0	
0.9447	4.90025	-4.42539	0	
0.9453	4.60832	-2.91762	0	
0.9460	2.46055	-1.9973	0	
0.9467	3.08612	-0.763674	0	
0.9473	2.46055	0.744092	0	
0.9480	1.54306	3.50507	0	
0.9487	1.54306	6.55976	0	
0.9493	0.646416	6.24646	0	
0.9500	-3.62827	3.19176	0	
0.9507	-6.69354	4.71911	0	
0.9513	-8.21574	7.16678	0	
0.9520	-8.82046	2.58474	0	
0.9527	-9.42517	-1.07698	0	
0.9533	-10.9682	1.05739	0	
0.9540	-11.5729	-1.07698	0	
0.9547	-11.2602	-8.08711	0	
0.9553	-12.7824	-9.32073	0	
0.9560	-12.1777	-5.95274	0	
0.9567	-10.3427	-4.13167	0	
0.9573	-14.0126	-1.39028	0	
0.9580	-12.4904	-1.07698	0	
0.9587	4.60832	-3.81837	0	
0.9593	15.2846	-0.469953	0	
0.9600	10.718	4.71911	0	
0.9607	12.5321	3.50507	0	
0.9613	21.6862	1.05739	0	
0.9620	20.164	2.27144	0	
0.9627	15.2846	1.97772	0	
0.9633	13.1577	0.744092	0	
0.9640	7.36081	0.13707	0	
0.9647	1.54306	-0.469953	0	
0.9653	1.25113	0.13707	0	
0.9660	2.46055	-0.156651	0	
0.9667	2.16862	-1.684	0	
0.9673	-1.81414	-0.156651	0	
0.9680	-7.61103	1.97772	0	
0.9687	-9.73795	0.744092	0	
0.9693	-10.6554	0.450372	0	
0.9700	-14.0126	2.58474	0	
0.9707	-15.8476	2.27144	0	
0.9713	-13.6999	1.66442	0	
0.9720	-11.8857	3.50507	0	
0.9727	-6.69354	4.42539	0	
0.9733	2.46055	3.50507	0	
0.9740	5.81775	3.50507	0	
0.9747	0.646416	3.50507	0	
0.9753	-4.25384	1.97772	0	
0.9760	-6.69354	-0.156651	0	
0.9767	-9.73795	-1.9973	0	
0.9773	-10.3427	-1.9973	0	
0.9780	-7.61103	-2.29102	0	
0.9787	-4.25384	-3.81837	0	
0.9793	0.646416	-2.91762	0	
0.9800	5.21304	0.744092	0	
0.9807	4.90025	1.66442	0	
0.9813	3.08612	2.27144	0	
0.9820	4.90025	5.03241	0	
0.9827	6.73524	6.85348	0	
0.9833	5.81775	7.77381	0	
0.9840	5.21304	8.69413	0	
0.9847	5.81775	7.4605	0	
0.9853	4.29554	6.24646	0	
0.9860	1.54306	3.79879	0	
0.9867	-0.896642	-2.91762	0	
0.9873	-3.62827	-7.79339	0	
0.9880	-7.90296	-9.32073	0	
0.9887	-13.0951	-11.1418	0	
0.9893	-16.7651	-9.61446	0	
0.9900	-15.8476	-5.65902	0	
0.9907	-14.6174	-6.57934	0	
0.9913	-15.8476	-8.40041	0	
0.9920	-16.4523	-5.34572	0	
0.9927	-13.0951	-4.42539	0	
0.9933	-9.42517	-5.65902	0	
0.9940	-5.17133	-4.73869	0	
0.9947	-1.81414	-4.13167	0	
0.9953	-2.71078	-5.65902	0	
0.9960	-2.41885	-3.81837	0	
0.9967	1.25113	-1.684	0	
0.9973	1.54306	-2.91762	0	
0.9980	1.54306	-3.81837	0	
0.9987	7.04802	-1.07698	0	
0.9993	11.3227	0.450372	0	
1.0000	11.0099	-1.07698	0	
1.0007	11.0099	-2.29102	0	
1.0013	10.4052	-1.684	0	
1.0020	8.88301	-1.684	0	
1.0027	8.88301	-1.9973	0	
1.0033	5.81775	-1.07698	0	
1.0040	2.46055	-1.39028	0	
1.0047	2.46055	-1.07698	0	
1.0053	0.646416	2.89804	0	
1.0060	-2.10607	6.55976	0	
1.0067	2.46055	5.03241	0	
1.0073	3.08612	0.744092	0	
1.0080	-4.25384	-1.07698	0	
1.0087	-5.77604	0.744092	0	
1.0093	-5.17133	4.11209	0	
1.0100	-12.7824	4.71911	0	
1.0107	-17.0571	2.27144	0	
1.0113	-10.3427	0.450372	0	
1.0120	-3.94105	0.744092	0	
1.0127	-1.81414	0.13707	0	
1.0133	1.54306	-1.684	0	
1.0140	3.69083	-2.60432	0	
1.0147	0.0208521	-0.156651	0	
1.0153	-5.77604	4.42539	0	
1.0160	-4.54577	4.42539	0	
1.0167	5.21304	-0.156651	0	
1.0173	10.718	-1.9973	0	
1.0180	8.57023	-1.9973	0	
1.0187	9.17494	-3.81837	0	
1.0193	13.4496	-3.81837	0	
1.0200	13.1577	-1.07698	0	
1.0207	10.718	1.05739	0	
1.0213	7.96552	2.27144	0	
1.0220	1.54306	1.97772	0	
1.0227	-3.62827	-0.156651	0	
1.0233	-2.10607	-1.07698	0	
1.0240	-1.18857	-0.156651	0	
1.0247	-3.94105	-1.07698	0	
1.0253	-5.17133	0.13707	0	
1.0260	-3.62827	3.79879	0	
1.0267	-3.02356	2.58474	0	
1.0273	-4.85855	-2.60432	0	
1.0280	-7.90296	-3.81837	0	
1.0287	-7.61103	-0.156651	0	
1.0293	-6.98547	3.19176	0	
1.0300	-12.7824	1.97772	0	
1.0307	-16.1396	-1.9973	0	
1.0313	-7.61103	-3.52465	0	
1.0320	0.646416	-3.81837	0	
1.0327	-2.41885	-3.81837	0	
1.0333	-4.25384	-1.07698	0	
1.0340	-2.10607	1.66442	0	
1.0347	-2.71078	0.744092	0	
1.0353	0.646416	0.450372	0	
1.0360	11.3227	3.19176	0	
1.0367	15.2846	2.58474	0	
1.0373	12.5321	-1.39028	0	
1.0380	12.5321	-1.9973	0	
1.0387	13.1577	-0.156651	0	
1.0393	13.1577	-1.07698	0	
1.0400	13.7624	-2.60432	0	
1.0407	8.88301	-1.9973	0	
1.0413	-2.41885	-1.07698	0	
1.0420	-12.1777	-1.39028	0	
1.0427	-15.8476	-1.684	0	
1.0433	-13.0951	-2.60432	0	
1.0440	-6.38076	-3.52465	0	
1.0447	0.0208521	-1.684	0	
1.0453	0.938346	-0.156651	0	
1.0460	-3.94105	-2.60432	0	
1.0467	-5.46326	-2.91762	0	
1.0473	3.37805	1.66442	0	
1.0480	7.04802	5.32613	0	
1.0487	-2.10607	5.32613	0	
1.0493	-4.25384	2.89804	0	
1.0500	3.08612	-0.156651	0	
1.0507	2.46055	0.744092	0	
1.0513	-5.17133	1.97772	0	
1.0520	-10.3427	-1.9973	0	
1.0527	-13.4079	-4.73869	0	
1.0533	-13.6999	-3.21135	0	
1.0540	-14.0126	-0.763674	0	
1.0547	-16.7651	0.744092	0	
1.0553	-9.42517	1.3707	0	
1.0560	5.21304	0.744092	0	
1.0567	8.57023	1.97772	0	
1.0573	3.37805	2.58474	0	
1.0580	3.37805	-1.39028	0	
1.0587	6.13053	-3.52465	0	
1.0593	5.52582	-1.07698	0	
1.0600	4.60832	0.744092	0	
1.0607	5.52582	2.27144	0	
1.0613	8.57023	3.79879	0	
1.0620	10.0924	0.744092	0	
1.0627	8.88301	-2.29102	0	
1.0633	8.88301	-0.156651	0	
1.0640	7.04802	1.05739	0	
1.0647	-0.271078	0.744092	0	
1.0653	-6.69354	1.66442	0	
1.0660	-7.61103	0.744092	0	
1.0667	-5.17133	-3.81837	0	
1.0673	-3.33634	-7.48009	0	
1.0680	-3.94105	-8.40041	0	
1.0687	-4.85855	-6.26604	0	
1.0693	-5.17133	-0.156651	0	
1.0700	-8.52853	2.58474	0	
1.0707	-10.0507	0.744092	0	
1.0713	-5.77604	-0.469953	0	
1.0720	-3.02356	0.13707	0	
1.0727	-3.94105	2.58474	0	
1.0733	-5.17133	4.42539	0	
1.0740	-6.06797	2.58474	0	
1.0747	-3.94105	-0.469953	0	
1.0753	-0.271078	-1.07698	0	
1.0760	-1.18857	-1.07698	0	
1.0767	-1.18857	-1.07698	0	
1.0773	4.29554	0.13707	0	
1.0780	7.96552	-0.156651	0	
1.0787	9.17494	-0.156651	0	
1.0793	12.5321	0.744092	0	
1.0800	14.0543	-1.07698	0	
1.0807	11.6146	-2.91762	0	
1.0813	10.718	-0.469953	0	
1.0820	9.48772	1.3707	0	
1.0827	5.52582	-0.156651	0	
1.0833	1.54306	1.05739	0	
1.0840	-0.271078	1.66442	0	
1.0847	0.646416	-2.91762	0	
1.0853	2.16862	-6.87306	0	
1.0860	0.0208521	-4.73869	0	
1.0867	-1.81414	-1.07698	0	
1.0873	-0.58386	-0.156651	0	
1.0880	-2.10607	-1.39028	0	
1.0887	-7.29825	-0.156651	0	
1.0893	-8.52853	3.79879	0	
1.0900	-4.25384	6.24646	0	
1.0907	-1.50135	6.55976	0	
1.0913	-1.50135	7.16678	0	
1.0920	2.16862	8.08711	0	
1.0927	7.96552	7.16678	0	
1.0933	9.17494	5.93316	0	
1.0940	5.21304	5.32613	0	
1.0947	2.46055	5.63944	0	
1.0953	2.16862	3.50507	0	
1.0960	0.333634	-2.60432	0	
1.0967	-2.10607	-7.79339	0	
1.0973	-2.41885	-10.2411	0	
1.0980	-5.17133	-10.2411	0	
1.0987	-8.21574	-9.61446	0	
1.0993	-4.85855	-9.32073	0	
1.1000	-0.271078	-8.40041	0	
1.1007	0.938346	-5.65902	0	
1.1013	4.29554	-2.60432	0	
1.1020	5.21304	-1.07698	0	
1.1027	0.646416	-1.07698	0	
1.1033	4.60832	-1.07698	0	
1.1040	18.0371	-2.29102	0	
1.1047	21.0815	-4.73869	0	
1.1053	15.5974	-5.05199	0	
1.1060	14.0543	-2.91762	0	
1.1067	14.3671	-2.60432	0	
1.1073	12.5321	-3.81837	0	
1.1080	5.21304	-2.60432	0	
1.1087	-10.3427	1.3707	0	
1.1093	-22.8539	2.58474	0	
1.1100	-29.5683	1.66442	0	
1.1107	-37.8049	1.66442	0	
1.1113	-35.9908	0.744092	0	
1.1120	-19.4968	-0.156651	0	
1.1127	-9.13324	0.450372	0	
1.1133	-10.3427	0.450372	0	
1.1140	-10.3427	-0.763674	0	
1.1147	-7.29825	-0.156651	0	
1.1153	-6.06797	0.13707	0	
1.1160	-4.85855	-0.763674	0	
1.1167	-4.54577	-0.763674	0	
1.1173	-4.25384	0.13707	0	
1.1180	0.333634	0.744092	0	
1.1187	7.04802	0.744092	0	
1.1193	10.4052	1.3707	0	
1.1200	11.0099	1.3707	0	
1.1207	10.4052	2.89804	0	
1.1213	7.65274	3.50507	0	
1.1220	6.13053	0.13707	0	
1.1227	6.73524	-3.81837	0	
1.1233	6.13053	-4.42539	0	
1.1240	6.13053	-1.07698	0	
1.1247	6.13053	2.27144	0	
1.1253	1.54306	2.58474	0	
1.1260	-3.62827	0.744092	0	
1.1267	-3.02356	-0.763674	0	
1.1273	-3.02356	-1.39028	0	
1.1280	-6.38076	-1.9973	0	
1.1287	-7.61103	-0.469953	0	
1.1293	-6.06797	1.97772	0	
1.1300	-6.38076	3.19176	0	
1.1307	-7.61103	1.66442	0	
1.1313	-9.42517	0.744092	0	
1.1320	-8.52853	2.58474	0	
1.1327	-3.02356	3.79879	0	
1.1333	2.46055	1.05739	0	
1.1340	3.69083	-1.07698	0	
1.1347	4.90025	0.744092	0	
1.1353	7.65274	1.3707	0	
1.1360	9.80051	-0.469953	0	
1.1367	8.88301	-0.156651	0	
1.1373	7.96552	-0.763674	0	
1.1380	8.25745	-3.21135	0	
1.1387	8.88301	-3.81837	0	
1.1393	9.80051	-0.763674	0	
1.1400	13.7624	3.50507	0	
1.1407	15.5974	5.32613	0	
1.1413	13.1577	3.19176	0	
1.1420	10.718	1.97772	0	
1.1427	8.88301	3.50507	0	
1.1433	8.25745	-1.684	0	
1.1440	9.80051	-9.92776	0	
1.1447	7.96552	-9.32073	0	
1.1453	2.46055	-4.73869	0	
1.1460	3.69083	-5.34572	0	
1.1467	12.5321	-6.26604	0	
1.1473	16.8068	-2.91762	0	
1.1480	12.2402	-1.07698	0	
1.1487	2.46055	-3.81837	0	
1.1493	-9.13324	-4.73869	0	
1.1500	-16.1396	-1.9973	0	
1.1507	-16.7651	0.744092	0	
1.1513	-15.8476	0.744092	0	
1.1520	-13.0951	1.05739	0	
1.1527	-5.17133	2.89804	0	
1.1533	-2.41885	3.79879	0	
1.1540	-6.98547	3.50507	0	
1.1547	-7.61103	2.58474	0	
1.1553	-4.85855	2.58474	0	
1.1560	-5.77604	3.50507	0	
1.1567	-1.81414	1.66442	0	
1.1573	6.44331	-2.91762	0	
1.1580	9.80051	-6.57934	0	
1.1587	8.88301	-8.40041	0	
1.1593	7.65274	-7.48009	0	
1.1600	5.21304	-2.91762	0	
1.1607	4.60832	0.744092	0	
1.1613	6.73524	-0.156651	0	
1.1620	7.04802	0.744092	0	
1.1627	9.48772	1.66442	0	
1.1633	13.4496	-0.763674	0	
1.1640	10.0924	-1.9973	0	
1.1647	4.29554	-1.9973	0	
1.1653	3.37805	-2.29102	0	
1.1660	2.77333	-1.684	0	
1.1667	-0.271078	-0.469953	0	
1.1673	-6.38076	-0.469953	0	
1.1680	-15.8476	1.3707	0	
1.1687	-18.892	2.58474	0	
1.1693	-15.2221	1.3707	0	
1.1700	-15.2221	1.66442	0	
1.1707	-15.2221	3.50507	0	
1.1713	-10.9682	3.50507	0	
1.1720	-10.3427	3.50507	0	
1.1727	-9.42517	2.58474	0	
1.1733	-5.77604	0.13707	0	
1.1740	-10.0507	-1.07698	0	
1.1747	-10.3427	-0.763674	0	
1.1753	1.54306	-0.156651	0	
1.1760	2.16862	1.66442	0	
1.1767	-9.42517	1.66442	0	
1.1773	-4.25384	0.13707	0	
1.1780	11.3227	1.05739	0	
1.1787	15.5974	2.58474	0	
1.1793	13.4496	1.97772	0	
1.1800	10.718	1.3707	0	
1.1807	6.44331	0.13707	0	
1.1813	5.21304	-1.39028	0	
1.1820	6.13053	-1.07698	0	
1.1827	5.81775	-0.763674	0	
1.1833	4.29554	-0.156651	0	
1.1840	1.54306	3.50507	0	
1.1847	-0.271078	5.32613	0	
1.1853	0.646416	3.19176	0	
1.1860	1.54306	2.89804	0	
1.1867	2.46055	3.50507	0	
1.1873	2.16862	2.27144	0	
1.1880	-3.33634	2.58474	0	
1.1887	-9.13324	3.50507	0	
1.1893	-8.82046	1.66442	0	
1.1900	-8.52853	1.05739	0	
1.1907	-10.3427	-0.469953	0	
1.1913	-9.73795	-6.57934	0	
1.1920	-7.90296	-10.2411	0	
1.1927	-7.90296	-6.87306	0	
1.1933	-6.69354	-3.81837	0	
1.1940	-2.71078	-3.52465	0	
1.1947	-0.896642	-3.81837	0	
1.1953	-3.94105	-1.39028	0	
1.1960	-5.77604	2.27144	0	
1.1967	-2.10607	2.58474	0	
1.1973	1.25113	0.13707	0	
1.1980	2.77333	-1.07698	0	
1.1987	6.13053	-1.07698	0	
1.1993	8.25745	-0.156651	0	
1.2000	7.36081	0.744092	0	
1.2007	7.04802	0.13707	0	
1.2013	8.88301	-0.469953	0	
1.2020	8.57023	1.05739	0	
1.2027	6.44331	2.58474	0	
1.2033	6.44331	2.58474	0	
1.2040	6.13053	2.58474	0	
1.2047	4.00361	1.97772	0	
1.2053	3.69083	0.744092	0	
1.2060	3.37805	-0.156651	0	
1.2067	-2.10607	-1.07698	0	
1.2073	-6.98547	-0.156651	0	
1.2080	-6.98547	1.66442	0	
1.2087	-11.2602	2.58474	0	
1.2093	-16.7651	0.744092	0	
1.2100	-14.0126	-1.9973	0	
1.2107	-9.13324	-1.39028	0	
1.2113	-7.61103	1.97772	0	
1.2120	-6.69354	4.11209	0	
1.2127	-6.69354	5.32613	0	
1.2133	-6.98547	4.71911	0	
1.2140	-3.94105	1.3707	0	
1.2147	-2.71078	-0.156651	0	
1.2153	-5.46326	3.79879	0	
1.2160	-5.46326	5.32613	0	
1.2167	-3.02356	-0.763674	0	
1.2173	-0.271078	-7.18636	0	
1.2180	5.21304	-7.79339	0	
1.2187	7.36081	-4.13167	0	
1.2193	5.21304	-3.81837	0	
1.2200	6.13053	-6.26604	0	
1.2207	8.57023	-4.73869	0	
1.2213	8.88301	-0.469953	0	
1.2220	9.80051	-0.156651	0	
1.2227	9.48772	0.13707	0	
1.2233	7.04802	1.3707	0	
1.2240	5.52582	0.744092	0	
1.2247	3.37805	0.744092	0	
1.2253	-0.271078	1.05739	0	
1.2260	-2.10607	0.13707	0	
1.2267	-1.81414	0.744092	0	
1.2273	-2.10607	1.05739	0	
1.2280	-2.71078	-0.763674	0	
1.2287	-3.94105	-1.07698	0	
1.2293	-5.77604	-0.763674	0	
1.2300	-8.82046	-1.9973	0	
1.2307	-10.3427	-2.91762	0	
1.2313	-6.38076	-2.91762	0	
1.2320	-3.33634	-1.39028	0	
1.2327	-5.77604	1.66442	0	
1.2333	-8.82046	2.58474	0	
1.2340	-9.42517	1.05739	0	
1.2347	-9.13324	1.97772	0	
1.2353	-5.17133	2.89804	0	
1.2360	0.0208521	1.66442	0	
1.2367	3.69083	0.13707	0	
1.2373	7.04802	-0.156651	0	
1.2380	7.04802	0.450372	0	
1.2387	4.29554	1.05739	0	
1.2393	7.65274	-1.07698	0	
1.2400	11.3227	-3.52465	0	
1.2407	9.17494	-1.9973	0	
1.2413	7.96552	-1.07698	0	
1.2420	8.88301	-3.52465	0	
1.2427	6.73524	-4.42539	0	
1.2433	7.04802	-2.91762	0	
1.2440	7.65274	-1.684	0	
1.2447	2.77333	-2.60432	0	
1.2453	0.0208521	-2.60432	0	
1.2460	0.646416	0.13707	0	
1.2467	-5.17133	2.89804	0	
1.2473	-14.9301	3.50507	0	
1.2480	-12.7824	2.58474	0	
1.2487	0.646416	3.79879	0	
1.2493	4.29554	7.4605	0	
1.2500	-7.61103	8.69413	0	
1.2507	-18.892	5.63944	0	
1.2513	-14.6174	7.77381	0	
1.2520	-3.94105	13.2566	0	
1.2527	-4.85855	8.69413	0	
1.2533	-13.4079	-2.29102	0	
1.2540	-13.0951	-4.13167	0	
1.2547	-6.06797	-0.469953	0	
1.2553	-3.94105	0.13707	0	
1.2560	-5.17133	-0.156651	0	
1.2567	-3.33634	-1.07698	0	
1.2573	0.938346	-5.34572	0	
1.2580	5.81775	-8.71371	0	
1.2587	11.0099	-6.57934	0	
1.2593	12.2402	-2.91762	0	
1.2600	8.25745	-1.39028	0	
1.2607	4.90025	-1.9973	0	
1.2613	4.00361	-2.29102	0	
1.2620	2.46055	-2.60432	0	
1.2627	0.938346	-3.21135	0	
1.2633	1.54306	-2.91762	0	
1.2640	3.37805	-1.9973	0	
1.2647	3.37805	-2.91762	0	
1.2653	0.938346	-5.05199	0	
1.2660	-1.18857	-3.81837	0	
1.2667	-1.50135	-0.469953	0	
1.2673	-2.41885	-0.156651	0	
1.2680	-4.85855	0.744092	0	
1.2687	-7.90296	2.27144	0	
1.2693	-8.82046	-0.156651	0	
1.2700	-7.61103	-1.39028	0	
1.2707	-6.38076	3.50507	0	
1.2713	-5.77604	5.03241	0	
1.2720	-6.69354	1.05739	0	
1.2727	-7.90296	-0.156651	0	
1.2733	-6.38076	0.13707	0	
1.2740	-3.02356	-1.07698	0	
1.2747	-2.10607	-1.07698	0	
1.2753	-3.02356	0.744092	0	
1.2760	-3.02356	-0.156651	0	
1.2767	-3.02356	-2.29102	0	
1.2773	-2.10607	-2.91762	0	
1.2780	3.37805	-2.60432	0	
1.2787	7.04802	-3.81837	0	
1.2793	5.52582	-3.21135	0	
1.2800	4.60832	0.744092	0	
1.2807	6.13053	1.66442	0	
1.2813	6.13053	-1.684	0	
1.2820	6.13053	-0.763674	0	
1.2827	7.04802	1.66442	0	
1.2833	5.81775	0.13707	0	
1.2840	2.77333	-0.156651	0	
1.2847	1.25113	0.744092	0	
1.2853	-1.18857	0.13707	0	
1.2860	-3.94105	1.97772	0	
1.2867	-3.62827	3.50507	0	
1.2873	0.0208521	-1.684	0	
1.2880	0.646416	-4.13167	0	
1.2887	-5.46326	-0.156651	0	
1.2893	-11.2602	0.744092	0	
1.2900	-10.6554	-0.763674	0	
1.2907	-10.0507	2.58474	0	
1.2913	-11.2602	4.42539	0	
1.2920	-11.2602	-0.156651	0	
1.2927	-9.73795	-4.13167	0	
1.2933	-7.61103	-5.65902	0	
1.2940	-3.02356	-5.34572	0	
1.2947	2.46055	-3.21135	0	
1.2953	9.80051	-0.469953	0	
1.2960	16.2021	-0.469953	0	
1.2967	15.8893	-1.07698	0	
1.2973	15.2846	-1.39028	0	
1.2980	20.4768	-1.39028	0	
1.2987	20.7687	-1.07698	0	
1.2993	17.1196	-2.91762	0	
1.3000	19.5593	-2.91762	0	
1.3007	16.2021	-0.469953	0	
1.3013	1.85584	-0.763674	0	
1.3020	-8.21574	-3.81837	0	
1.3027	-9.73795	-3.81837	0	
1.3033	-9.13324	-3.21135	0	
1.3040	-4.54577	-3.21135	0	
1.3047	-3.33634	-0.763674	0	
1.3053	-7.61103	1.05739	0	
1.3060	-1.18857	0.450372	0	
1.3067	10.718	2.58474	0	
1.3073	8.25745	2.89804	0	
1.3080	-1.81414	-1.39028	0	
1.3087	-5.77604	-1.9973	0	
1.3093	-7.29825	1.66442	0	
1.3100	-10.3427	3.50507	0	
1.3107	-11.5729	3.50507	0	
1.3113	-12.1777	1.97772	0	
1.3120	-13.4079	-1.07698	0	
1.3127	-15.5348	-1.07698	0	
1.3133	-15.5348	-1.684	0	
1.3140	-11.8857	-3.81837	0	
1.3147	-8.52853	-1.9973	0	
1.3153	-6.69354	0.744092	0	
1.3160	-4.25384	-1.07698	0	
1.3167	-1.81414	0.450372	0	
1.3173	2.16862	4.11209	0	
1.3180	4.29554	1.3707	0	
1.3187	2.46055	-3.81837	0	
1.3193	1.25113	-4.73869	0	
1.3200	5.81775	-4.42539	0	
1.3207	11.6146	-5.05199	0	
1.3213	10.718	-6.57934	0	
1.3220	6.73524	-6.57934	0	
1.3227	6.13053	-4.73869	0	
1.3233	7.36081	-3.81837	0	
1.3240	6.44331	-4.13167	0	
1.3247	2.46055	-3.52465	0	
1.3253	-3.02356	-1.684	0	
1.3260	-6.69354	-0.763674	0	
1.3267	-0.58386	1.05739	0	
1.3273	8.57023	4.11209	0	
1.3280	3.37805	5.32613	0	
1.3287	-11.8857	3.50507	0	
1.3293	-14.3254	0.13707	0	
1.3300	-1.50135	-0.156651	0	
1.3307	8.88301	2.58474	0	
1.3313	7.96552	3.50507	0	
1.3320	1.25113	0.744092	0	
1.3327	-2.41885	0.13707	0	
1.3333	-2.41885	0.13707	0	
1.3340	-6.69354	-0.469953	0	
1.3347	-14.9301	1.66442	0	
1.3353	-16.1396	5.93316	0	
1.3360	-10.3427	5.32613	0	
1.3367	-4.54577	-0.156651	0	
1.3373	-2.10607	-4.13167	0	
1.3380	-2.71078	-4.13167	0	
1.3387	-1.50135	0.13707	0	
1.3393	2.46055	5.32613	0	
1.3400	4.90025	6.55976	0	
1.3407	4.90025	5.93316	0	
1.3413	5.52582	5.63944	0	
1.3420	6.13053	3.79879	0	
1.3427	4.60832	1.3707	0	
1.3433	2.77333	0.450372	0	
1.3440	2.46055	-1.39028	0	
1.3447	2.46055	-3.81837	0	
1.3453	2.46055	-3.81837	0	
1.3460	1.54306	-4.13167	0	
1.3467	-0.271078	-6.87306	0	
1.3473	-0.896642	-6.87306	0	
1.3480	-3.02356	-3.52465	0	
1.3487	-6.69354	-1.39028	0	
1.3493	-9.42517	0.744092	0	
1.3500	-9.42517	4.42539	0	
1.3507	-10.9682	4.71911	0	
1.3513	-12.7824	3.50507	0	
1.3520	-9.42517	4.71911	0	
1.3527	-4.85855	4.71911	0	
1.3533	-5.17133	2.58474	0	
1.3540	-5.77604	1.05739	0	
1.3547	-4.54577	-2.29102	0	
1.3553	-4.25384	-8.08711	0	
1.3560	-3.02356	-9.61446	0	
1.3567	2.46055	-5.34572	0	
1.3573	8.88301	-1.39028	0	
1.3580	12.5321	-0.156651	0	
1.3587	15.2846	-1.07698	0	
1.3593	19.2465	-2.60432	0	
1.3600	22.3118	-3.81837	0	
1.3607	18.329	-2.60432	0	
1.3613	11.6146	-0.156651	0	
1.3620	5.21304	1.66442	0	
1.3627	-4.25384	3.50507	0	
1.3633	-15.8476	4.11209	0	
1.3640	-17.0571	0.744092	0	
1.3647	-10.9682	-3.81837	0	
1.3653	-6.69354	-3.81837	0	
1.3660	-6.06797	-0.469953	0	
1.3667	-6.06797	2.58474	0	
1.3673	-5.17133	3.50507	0	
1.3680	-4.85855	2.89804	0	
1.3687	-8.82046	2.89804	0	
1.3693	-14.0126	3.50507	0	
1.3700	-13.6999	1.66442	0	
1.3707	-9.42517	-2.91762	0	
1.3713	-6.69354	-2.60432	0	
1.3720	-7.61103	0.744092	0	
1.3727	-10.3427	1.97772	0	
1.3733	-9.13324	1.97772	0	
1.3740	-1.18857	3.50507	0	
1.3747	5.21304	2.89804	0	
1.3753	6.44331	-0.469953	0	
1.3760	6.13053	-1.9973	0	
1.3767	5.52582	-0.156651	0	
1.3773	5.52582	1.05739	0	
1.3780	8.88301	0.744092	0	
1.3787	14.0543	-0.156651	0	
1.3793	18.0371	-0.156651	0	
1.3800	18.9546	-1.07698	0	
1.3807	13.7624	-2.29102	0	
1.3813	8.88301	-1.07698	0	
1.3820	10.4052	0.13707	0	
1.3827	10.4052	-0.156651	0	
1.3833	4.60832	0.744092	0	
1.3840	2.46055	2.89804	0	
1.3847	4.90025	4.42539	0	
1.3853	4.60832	5.32613	0	
1.3860	4.29554	5.93316	0	
1.3867	4.90025	3.19176	0	
1.3873	1.54306	-0.156651	0	
1.3880	-3.94105	-0.156651	0	
1.3887	-4.85855	0.744092	0	
1.3893	-4.85855	1.66442	0	
1.3900	-5.77604	4.11209	0	
1.3907	-4.54577	4.42539	0	
1.3913	-5.17133	1.66442	0	
1.3920	-9.73795	0.450372	0	
1.3927	-10.3427	1.3707	0	
1.3933	-3.94105	1.3707	0	
1.3940	2.46055	0.450372	0	
1.3947	3.37805	-0.156651	0	
1.3953	2.46055	0.744092	0	
1.3960	4.00361	1.05739	0	
1.3967	7.04802	-1.684	0	
1.3973	9.17494	-6.87306	0	
1.3980	11.6146	-9.00743	0	
1.3987	10.718	-5.95274	0	
1.3993	7.36081	-5.34572	0	
1.4000	10.718	-6.87306	0	
1.4007	13.4496	-5.05199	0	
1.4013	6.73524	-2.91762	0	
1.4020	3.37805	-2.29102	0	
1.4027	10.0924	2.27144	0	
1.4033	10.0924	7.16678	0	
1.4040	2.46055	5.32613	0	
1.4047	-0.896642	1.3707	0	
1.4053	-3.02356	-2.60432	0	
1.4060	-6.06797	-5.65902	0	
1.4067	-5.77604	-3.52465	0	
1.4073	-6.06797	0.13707	0	
1.4080	-8.21574	-0.156651	0	
1.4087	-7.61103	1.3707	0	
1.4093	-10.3427	3.79879	0	
1.4100	-15.8476	0.744092	0	
1.4107	-10.6554	-0.763674	0	
1.4113	0.646416	4.42539	0	
1.4120	4.00361	4.42539	0	
1.4127	4.29554	-1.9973	0	
1.4133	8.25745	-3.81837	0	
1.4140	10.718	-1.684	0	
1.4147	5.81775	-1.9973	0	
1.4153	-1.81414	-2.91762	0	
1.4160	-7.29825	-1.07698	0	
1.4167	-8.52853	0.744092	0	
1.4173	-6.06797	1.66442	0	
1.4180	-0.271078	1.66442	0	
1.4187	7.04802	0.13707	0	
1.4193	10.0924	-0.763674	0	
1.4200	8.88301	0.744092	0	
1.4207	8.57023	1.3707	0	
1.4213	8.88301	0.450372	0	
1.4220	7.65274	-0.469953	0	
1.4227	6.73524	-2.91762	0	
1.4233	6.13053	-3.52465	0	
1.4240	4.29554	0.450372	0	
1.4247	2.46055	2.89804	0	
1.4253	1.54306	1.66442	0	
1.4260	-0.58386	1.97772	0	
1.4267	-3.62827	3.19176	0	
1.4273	-3.94105	1.3707	0	
1.4280	-3.33634	-1.07698	0	
1.4287	-6.69354	-0.156651	0	
1.4293	-10.6554	1.05739	0	
1.4300	-12.4904	-1.07698	0	
1.4307	-12.7824	-4.73869	0	
1.4313	-12.1777	-5.95274	0	
1.4320	-11.8857	-3.81837	0	
1.4327	-13.0951	-1.07698	0	
1.4333	-12.1777	-0.469953	0	
1.4340	-6.38076	-0.763674	0	
1.4347	-1.81414	0.450372	0	
1.4353	-2.10607	1.3707	0	
1.4360	-1.81414	-0.469953	0	
1.4367	1.85584	-2.91762	0	
1.4373	4.29554	-3.21135	0	
1.4380	5.52582	-2.60432	0	
1.4387	7.04802	-3.81837	0	
1.4393	7.96552	-4.73869	0	
1.4400	8.88301	-2.29102	0	
1.4407	9.48772	1.66442	0	
1.4413	5.81775	1.97772	0	
1.4420	0.646416	0.744092	0	
1.4427	-0.58386	1.3707	0	
1.4433	0.646416	-0.469953	0	
1.4440	1.54306	-1.39028	0	
1.4447	2.46055	2.58474	0	
1.4453	2.46055	2.89804	0	
1.4460	-2.71078	-3.21135	0	
1.4467	-9.42517	-4.42539	0	
1.4473	-11.5729	-1.39028	0	
1.4480	-11.5729	-2.29102	0	
1.4487	-13.4079	-3.81837	0	
1.4493	-14.9301	-2.29102	0	
1.4500	-14.3254	-2.60432	0	
1.4507	-12.4904	-3.81837	0	
1.4513	-10.3427	-3.21135	0	
1.4520	-8.52853	-1.684	0	
1.4527	-6.69354	0.450372	0	
1.4533	-3.33634	2.58474	0	
1.4540	-3.62827	0.450372	0	
1.4547	-6.38076	-1.07698	0	
1.4553	-3.02356	0.744092	0	
1.4560	0.938346	-0.469953	0	
1.4567	-1.18857	-3.52465	0	
1.4573	-0.271078	-2.91762	0	
1.4580	4.90025	-3.21135	0	
1.4587	5.21304	-6.57934	0	
1.4593	6.73524	-8.08711	0	
1.4600	11.6146	-7.79339	0	
1.4607	10.4052	-8.08711	0	
1.4613	6.44331	-5.05199	0	
1.4620	8.57023	-2.29102	0	
1.4627	7.96552	-2.91762	0	
1.4633	2.77333	-2.60432	0	
1.4640	2.46055	0.744092	0	
1.4647	3.37805	0.450372	0	
1.4653	1.54306	-2.29102	0	
1.4660	0.0208521	-0.763674	0	
1.4667	-1.81414	2.89804	0	
1.4673	-3.62827	3.79879	0	
1.4680	-4.54577	2.89804	0	
1.4687	-6.69354	2.27144	0	
1.4693	-8.52853	0.744092	0	
1.4700	-6.06797	-0.156651	0	
1.4707	-2.10607	1.66442	0	
1.4713	-2.10607	4.71911	0	
1.4720	-3.02356	3.19176	0	
1.4727	-3.62827	0.744092	0	
1.4733	-3.94105	-0.763674	0	
1.4740	-4.25384	-4.42539	0	
1.4747	-3.02356	-6.57934	0	
1.4753	-0.896642	-1.39028	0	
1.4760	0.646416	3.50507	0	
1.4767	-0.271078	1.3707	0	
1.4773	-5.77604	-1.39028	0	
1.4780	-10.6554	-1.39028	0	
1.4787	-5.77604	-0.156651	0	
1.4793	10.0924	4.42539	0	
1.4800	22.3118	5.32613	0	
1.4807	21.6862	-1.9973	0	
1.4813	17.1196	-6.57934	0	
1.4820	14.6799	-3.81837	0	
1.4827	11.6146	-3.52465	0	
1.4833	7.96552	-5.65902	0	
1.4840	4.29554	-2.60432	0	
1.4847	-0.896642	0.744092	0	
1.4853	-2.41885	-2.60432	0	
1.4860	3.69083	-5.34572	0	
1.4867	11.3227	-3.52465	0	
1.4873	14.0543	-1.39028	0	
1.4880	11.3227	-2.91762	0	
1.4887	4.90025	-3.21135	0	
1.4893	2.16862	-1.07698	0	
1.4900	1.54306	-0.156651	0	
1.4907	-4.85855	-1.39028	0	
1.4913	-15.8476	-1.07698	0	
1.4920	-24.397	-1.39028	0	
1.4927	-29.5683	-3.81837	0	
1.4933	-26.5239	-2.60432	0	
1.4940	-15.8476	1.05739	0	
1.4947	-9.42517	0.744092	0	
1.4953	-5.77604	0.744092	0	
1.4960	2.16862	3.50507	0	
1.4967	8.88301	4.11209	0	
1.4973	8.25745	2.89804	0	
1.4980	6.13053	1.3707	0	
1.4987	8.25745	-1.07698	0	
1.4993	12.5321	-0.469953	0	
1.5000	13.4496	-0.156651	0	
1.5007	9.80051	-2.91762	0	
1.5013	7.36081	-3.21135	0	
1.5020	8.25745	-0.763674	0	
1.5027	8.88301	-0.156651	0	
1.5033	6.13053	1.66442	0	
1.5040	3.08612	0.744092	0	
1.5047	2.16862	-4.73869	0	
1.5053	0.938346	-2.91762	0	
1.5060	0.646416	4.11209	0	
1.5067	2.46055	2.58474	0	
1.5073	0.0208521	-0.156651	0	
1.5080	-6.98547	4.42539	0	
1.5087	-8.82046	5.03241	0	
1.5093	-6.69354	0.744092	0	
1.5100	-7.61103	1.3707	0	
1.5107	-8.52853	1.97772	0	
1.5113	-8.82046	0.744092	0	
1.5120	-10.9682	2.58474	0	
1.5127	-4.85855	3.50507	0	
1.5133	5.21304	0.450372	0	
1.5140	2.46055	-1.07698	0	
1.5147	-4.85855	-0.156651	0	
1.5153	-6.06797	1.66442	0	
1.5160	-9.42517	6.24646	0	
1.5167	-14.0126	8.38083	0	
1.5173	-10.0507	3.79879	0	
1.5180	-4.85855	-0.763674	0	
1.5187	-1.18857	0.744092	0	
1.5193	5.21304	2.89804	0	
1.5200	7.96552	0.744092	0	
1.5207	7.65274	-1.9973	0	
1.5213	10.718	-2.91762	0	
1.5220	11.0099	-4.13167	0	
1.5227	5.52582	-3.52465	0	
1.5233	2.46055	0.13707	0	
1.5240	4.00361	1.66442	0	
1.5247	4.90025	-0.763674	0	
1.5253	5.21304	-2.91762	0	
1.5260	3.37805	-1.684	0	
1.5267	-0.271078	-0.156651	0	
1.5273	-3.02356	0.13707	0	
1.5280	-4.25384	1.66442	0	
1.5287	-5.77604	2.89804	0	
1.5293	-7.61103	2.27144	0	
1.5300	-9.42517	1.66442	0	
1.5307	-10.0507	0.744092	0	
1.5313	-8.52853	0.450372	0	
1.5320	-7.90296	1.97772	0	
1.5327	-7.29825	2.89804	0	
1.5333	-3.94105	0.744092	0	
1.5340	-1.50135	-2.91762	0	
1.5347	-1.81414	-5.95274	0	
1.5353	-3.02356	-7.48009	0	
1.5360	-3.33634	-3.81837	0	
1.5367	0.0208521	-1.39028	0	
1.5373	4.29554	-2.91762	0	
1.5380	4.29554	-3.52465	0	
1.5387	4.00361	-1.9973	0	
1.5393	8.25745	-1.9973	0	
1.5400	10.4052	-1.39028	0	
1.5407	8.57023	-1.39028	0	
1.5413	9.17494	-2.29102	0	
1.5420	9.80051	-1.9973	0	
1.5427	6.73524	-1.9973	0	
1.5433	3.69083	-2.91762	0	
1.5440	2.46055	-2.29102	0	
1.5447	1.25113	-1.07698	0	
1.5453	0.646416	-0.469953	0	
1.5460	0.938346	1.66442	0	
1.5467	2.46055	5.32613	0	
1.5473	5.21304	7.16678	0	
1.5480	4.29554	6.85348	0	
1.5487	-0.271078	5.93316	0	
1.5493	-5.17133	7.16678	0	
1.5500	-15.2221	7.4605	0	
1.5507	-21.6445	2.89804	0	
1.5513	-7.61103	-1.07698	0	
1.5520	12.5321	-0.156651	0	
1.5527	11.0099	-1.9973	0	
1.5533	-2.10607	-8.08711	0	
1.5540	-5.46326	-9.92776	0	
1.5547	-4.85855	-9.00743	0	
1.5553	-6.98547	-9.32073	0	
1.5560	-4.85855	-9.00743	0	
1.5567	0.646416	-6.57934	0	
1.5573	3.69083	-4.13167	0	
1.5580	5.21304	-2.29102	0	
1.5587	6.13053	-2.29102	0	
1.5593	6.13053	-2.91762	0	
1.5600	6.73524	-0.763674	0	
1.5607	5.21304	-0.156651	0	
1.5613	2.46055	-1.9973	0	
1.5620	2.46055	-1.39028	0	
1.5627	2.77333	-0.469953	0	
1.5633	1.54306	-1.39028	0	
1.5640	0.646416	1.3707	0	
1.5647	-1.81414	4.42539	0	
1.5653	-5.77604	1.66442	0	
1.5660	-5.77604	-0.156651	0	
1.5667	-6.38076	1.66442	0	
1.5673	-8.82046	0.450372	0	
1.5680	-8.52853	-1.39028	0	
1.5687	-9.42517	0.450372	0	
1.5693	-12.7824	0.450372	0	
1.5700	-11.8857	0.13707	0	
1.5707	-11.2602	2.58474	0	
1.5713	-14.3254	3.50507	0	
1.5720	-12.7824	2.58474	0	
1.5727	-9.42517	3.19176	0	
1.5733	-10.3427	3.19176	0	
1.5740	-9.13324	2.89804	0	
1.5747	-7.90296	1.97772	0	
1.5753	-8.82046	-1.9973	0	
1.5760	-5.46326	-3.81837	0	
1.5767	-0.271078	0.450372	0	
1.5773	1.54306	2.58474	0	
1.5780	2.46055	2.58474	0	
1.5787	3.37805	4.71911	0	
1.5793	3.69083	3.79879	0	
1.5800	6.13053	-0.156651	0	
1.5807	7.04802	-1.39028	0	
1.5813	7.04802	-1.07698	0	
1.5820	9.48772	-0.156651	0	
1.5827	6.44331	2.89804	0	
1.5833	-0.271078	3.19176	0	
1.5840	-0.271078	1.3707	0	
1.5847	2.77333	0.744092	0	
1.5853	1.54306	-0.156651	0	
1.5860	0.646416	-0.469953	0	
1.5867	2.16862	-0.156651	0	
1.5873	-0.271078	-0.156651	0	
1.5880	-4.85855	0.13707	0	
1.5887	-5.17133	0.450372	0	
1.5893	-4.85855	-1.9973	0	
1.5900	-8.82046	-3.81837	0	
1.5907	-11.2602	-1.684	0	
1.5913	-6.69354	0.744092	0	
1.5920	-3.33634	1.97772	0	
1.5927	-5.46326	3.19176	0	
1.5933	-5.17133	1.66442	0	
1.5940	-1.81414	-1.07698	0	
1.5947	-2.10607	-1.9973	0	
1.5953	-3.94105	-2.91762	0	
1.5960	-3.94105	-5.65902	0	
1.5967	-2.10607	-5.05199	0	
1.5973	2.16862	-2.29102	0	
1.5980	6.13053	-1.39028	0	
1.5987	6.44331	-1.9973	0	
1.5993	6.44331	-1.07698	0	
1.6000	7.65274	-1.07698	0	
1.6007	7.04802	-1.9973	0	
1.6013	6.13053	-2.91762	0	
1.6020	6.73524	-0.763674	0	
1.6027	6.44331	1.97772	0	
1.6033	7.96552	0.744092	0	
1.6040	8.88301	-2.60432	0	
1.6047	3.69083	-1.9973	0	
1.6053	-0.896642	1.66442	0	
1.6060	0.646416	3.19176	0	
1.6067	2.46055	2.58474	0	
1.6073	0.938346	1.97772	0	
1.6080	-1.81414	1.05739	0	
1.6087	-5.77604	-0.156651	0	
1.6093	-9.42517	-0.156651	0	
1.6100	-9.42517	1.66442	0	
1.6107	-9.13324	3.79879	0	
1.6113	-7.61103	2.58474	0	
1.6120	-5.17133	-0.156651	0	
1.6127	-4.85855	0.744092	0	
1.6133	-5.17133	1.66442	0	
1.6140	-0.271078	-0.469953	0	
1.6147	7.04802	0.13707	0	
1.6153	13.4496	3.50507	0	
1.6160	18.0371	4.11209	0	
1.6167	16.2021	4.42539	0	
1.6173	9.48772	6.24646	0	
1.6180	5.52582	4.11209	0	
1.6187	3.37805	1.05739	0	
1.6193	1.54306	2.58474	0	
1.6200	1.54306	4.42539	0	
1.6207	-4.54577	2.58474	0	
1.6213	-18.5793	-0.156651	0	
1.6220	-25.0017	-2.29102	0	
1.6227	-16.1396	-3.81837	0	
1.6233	-0.58386	-3.81837	0	
1.6240	10.718	-1.39028	0	
1.6247	12.5321	-0.763674	0	
1.6253	6.13053	-1.684	0	
1.6260	1.25113	-1.9973	0	
1.6267	-0.271078	-4.42539	0	
1.6273	-1.18857	-9.32073	0	
1.6280	-0.896642	-10.2411	0	
1.6287	-1.50135	-4.73869	0	
1.6293	-3.94105	-0.763674	0	
1.6300	-5.17133	-0.469953	0	
1.6307	-6.98547	1.66442	0	
1.6313	-8.21574	4.42539	0	
1.6320	-4.85855	2.89804	0	
1.6327	-2.41885	-0.469953	0	
1.6333	-4.54577	-3.81837	0	
1.6340	-4.85855	-7.48009	0	
1.6347	-1.81414	-7.18636	0	
1.6353	-1.18857	-1.9973	0	
1.6360	-3.33634	0.450372	0	
1.6367	-3.94105	-1.07698	0	
1.6373	-0.271078	-0.156651	0	
1.6380	6.73524	-0.156651	0	
1.6387	11.9274	-3.52465	0	
1.6393	12.5321	-5.05199	0	
1.6400	11.3227	-3.21135	0	
1.6407	11.3227	-1.07698	0	
1.6413	14.6799	-0.156651	0	
1.6420	18.329	-0.156651	0	
1.6427	16.2021	0.744092	0	
1.6433	11.6146	1.97772	0	
1.6440	9.48772	2.27144	0	
1.6447	7.04802	0.13707	0	
1.6453	2.46055	-1.07698	0	
1.6460	-0.271078	-0.156651	0	
1.6467	-1.18857	0.744092	0	
1.6473	-2.10607	0.13707	0	
1.6480	-3.02356	0.744092	0	
1.6487	-5.46326	3.50507	0	
1.6493	-8.82046	4.71911	0	
1.6500	-8.52853	3.50507	0	
1.6507	-5.46326	3.50507	0	
1.6513	-3.62827	4.71911	0	
1.6520	-3.02356	4.11209	0	
1.6527	-2.71078	3.19176	0	
1.6533	-2.10607	1.66442	0	
1.6540	0.0208521	-2.91762	0	
1.6547	0.646416	-6.57934	0	
1.6553	-3.02356	-5.65902	0	
1.6560	-3.62827	-3.81837	0	
1.6567	1.85584	-3.21135	0	
1.6573	4.90025	-3.52465	0	
1.6580	4.60832	-3.52465	0	
1.6587	6.13053	-2.29102	0	
1.6593	7.65274	-2.60432	0	
1.6600	5.52582	-3.21135	0	
1.6607	3.37805	-2.91762	0	
1.6613	4.60832	-3.81837	0	
1.6620	6.13053	-5.65902	0	
1.6627	6.13053	-5.65902	0	
1.6633	7.65274	-2.91762	0	
1.6640	9.17494	-1.39028	0	
1.6647	6.73524	-0.156651	0	
1.6653	3.37805	0.744092	0	
1.6660	3.37805	0.744092	0	
1.6667	1.54306	0.744092	0	
1.6673	-5.17133	1.3707	0	
1.6680	-10.3427	2.58474	0	
1.6687	-8.52853	3.19176	0	
1.6693	-6.06797	2.27144	0	
1.6700	-8.21574	1.66442	0	
1.6707	-9.73795	2.27144	0	
1.6713	-6.98547	0.744092	0	
1.6720	-3.02356	-2.29102	0	
1.6727	-2.71078	-2.91762	0	
1.6733	-3.33634	-1.9973	0	
1.6740	-3.62827	-0.763674	0	
1.6747	-3.62827	1.3707	0	
1.6753	-2.71078	1.3707	0	
1.6760	-1.18857	-0.156651	0	
1.6767	-0.271078	0.450372	0	
1.6773	2.16862	-1.39028	0	
1.6780	4.60832	-5.34572	0	
1.6787	5.21304	-3.52465	0	
1.6793	7.04802	2.27144	0	
1.6800	11.0099	2.27144	0	
1.6807	10.718	-0.763674	0	
1.6813	6.44331	-1.07698	0	
1.6820	5.52582	-0.469953	0	
1.6827	6.13053	0.13707	0	
1.6833	4.60832	0.744092	0	
1.6840	2.46055	-1.07698	0	
1.6847	0.938346	-1.9973	0	
1.6853	-1.50135	0.450372	0	
1.6860	-4.85855	1.3707	0	
1.6867	-6.69354	1.66442	0	
1.6873	-5.77604	4.42539	0	
1.6880	-5.77604	5.03241	0	
1.6887	-8.82046	1.05739	0	
1.6893	-10.3427	-1.07698	0	
1.6900	-9.73795	-1.07698	0	
1.6907	-11.2602	-0.156651	0	
1.6913	-13.4079	3.50507	0	
1.6920	-12.4904	6.24646	0	
1.6927	-11.2602	4.42539	0	
1.6933	-9.42517	3.19176	0	
1.6940	-4.85855	2.89804	0	
1.6947	-2.10607	-0.763674	0	
1.6953	-5.17133	-1.39028	0	
1.6960	-6.69354	1.97772	0	
1.6967	-3.62827	0.450372	0	
1.6973	0.333634	-3.81837	0	
1.6980	7.96552	-1.07698	0	
1.6987	19.5593	3.19176	0	
1.6993	22.9165	1.05739	0	
1.7000	15.2846	-0.763674	0	
1.7007	7.04802	0.744092	0	
1.7013	5.21304	1.05739	0	
1.7020	10.718	1.97772	0	
1.7027	17.7243	4.11209	0	
1.7033	14.3671	3.50507	0	
1.7040	5.52582	0.744092	0	
1.7047	3.37805	-2.29102	0	
1.7053	0.0208521	-3.81837	0	
1.7060	-11.5729	-0.469953	0	
1.7067	-14.9301	3.50507	0	
1.7073	-6.69354	3.79879	0	
1.7080	-5.17133	1.3707	0	
1.7087	-11.8857	-1.9973	0	
1.7093	-15.8476	-4.73869	0	
1.7100	-17.6826	-1.9973	0	
1.7107	-14.6174	1.66442	0	
1.7113	-5.46326	1.3707	0	
1.7120	-0.271078	0.744092	0	
1.7127	-3.94105	2.89804	0	
1.7133	-5.77604	1.05739	0	
1.7140	-3.94105	-1.9973	0	
1.7147	-4.54577	0.744092	0	
1.7153	-6.06797	3.50507	0	
1.7160	-5.77604	-0.763674	0	
1.7167	-4.85855	-5.65902	0	
1.7173	-2.41885	-5.65902	0	
1.7180	2.16862	-4.13167	0	
1.7187	4.29554	-4.73869	0	
1.7193	6.44331	-3.81837	0	
1.7200	9.48772	-0.763674	0	
1.7207	7.96552	-0.156651	0	
1.7213	4.29554	-3.21135	0	
1.7220	3.08612	-3.81837	0	
1.7227	2.77333	-0.469953	0	
1.7233	0.938346	1.66442	0	
1.7240	-0.58386	0.450372	0	
1.7247	1.54306	-0.763674	0	
1.7253	4.90025	0.13707	0	
1.7260	2.77333	1.05739	0	
1.7267	-3.02356	-0.156651	0	
1.7273	-6.69354	-0.156651	0	
1.7280	-6.69354	2.27144	0	
1.7287	-6.69354	3.50507	0	
1.7293	-6.06797	1.97772	0	
1.7300	-6.69354	2.58474	0	
1.7307	-8.52853	3.79879	0	
1.7313	-8.52853	1.66442	0	
1.7320	-7.29825	-0.156651	0	
1.7327	-7.29825	0.744092	0	
1.7333	-7.61103	1.66442	0	
1.7340	-5.17133	0.744092	0	
1.7347	-2.10607	0.744092	0	
1.7353	-0.271078	0.13707	0	
1.7360	1.54306	-0.469953	0	
1.7367	2.46055	-0.469953	0	
1.7373	1.85584	-0.469953	0	
1.7380	4.29554	0.744092	0	
1.7387	10.718	3.19176	0	
1.7393	12.8449	2.27144	0	
1.7400	10.718	-0.156651	0	
1.7407	8.88301	0.13707	0	
1.7413	6.73524	1.97772	0	
1.7420	5.81775	1.66442	0	
1.7427	6.44331	-0.469953	0	
1.7433	5.21304	-1.9973	0	
1.7440	3.08612	-0.469953	0	
1.7447	3.08612	1.05739	0	
1.7453	0.646416	-1.07698	0	
1.7460	-4.85855	-2.60432	0	
1.7467	-6.69354	1.66442	0	
1.7473	-4.25384	4.11209	0	
1.7480	-4.25384	1.3707	0	
1.7487	-7.90296	-0.156651	0	
1.7493	-11.2602	0.13707	0	
1.7500	-8.52853	-0.156651	0	
1.7507	-1.18857	-0.156651	0	
1.7513	4.00361	1.66442	0	
1.7520	6.44331	2.27144	0	
1.7527	8.88301	1.3707	0	
1.7533	9.17494	1.97772	0	
1.7540	7.36081	1.66442	0	
1.7547	5.21304	-0.156651	0	
1.7553	1.25113	1.05739	0	
1.7560	-8.82046	2.89804	0	
1.7567	-19.4968	-3.21135	0	
1.7573	-21.3317	-10.8481	0	
1.7580	-13.0951	-9.32073	0	
1.7587	-3.94105	-5.05199	0	
1.7593	1.54306	-6.57934	0	
1.7600	5.21304	-7.48009	0	
1.7607	6.44331	-3.81837	0	
1.7613	4.60832	-1.9973	0	
1.7620	2.46055	-2.91762	0	
1.7627	2.16862	-0.763674	0	
1.7633	0.0208521	0.744092	0	
1.7640	-1.50135	-0.763674	0	
1.7647	-0.58386	0.13707	0	
1.7653	-1.18857	3.19176	0	
1.7660	-3.62827	1.97772	0	
1.7667	-3.02356	-1.07698	0	
1.7673	-1.18857	-1.07698	0	
1.7680	-4.85855	-0.156651	0	
1.7687	-8.82046	-0.763674	0	
1.7693	-7.90296	-0.763674	0	
1.7700	-7.90296	1.66442	0	
1.7707	-9.42517	2.89804	0	
1.7713	-6.38076	1.66442	0	
1.7720	-2.71078	0.744092	0	
1.7727	-4.25384	1.05739	0	
1.7733	-6.98547	-0.763674	0	
1.7740	-7.61103	-3.81837	0	
1.7747	-3.33634	-5.65902	0	
1.7753	2.46055	-4.42539	0	
1.7760	3.69083	0.450372	0	
1.7767	3.37805	4.71911	0	
1.7773	4.29554	0.744092	0	
1.7780	-1.50135	-6.57934	0	
1.7787	-4.85855	-7.79339	0	
1.7793	7.04802	-4.73869	0	
1.7800	17.1196	-3.81837	0	
1.7807	11.0099	-2.91762	0	
1.7813	4.60832	-1.39028	0	
1.7820	7.36081	-0.469953	0	
1.7827	14.6799	-0.763674	0	
1.7833	20.7687	-2.91762	0	
1.7840	16.5149	-3.81837	0	
1.7847	5.52582	-0.156651	0	
1.7853	1.85584	2.58474	0	
1.7860	2.46055	1.97772	0	
1.7867	-1.18857	3.50507	0	
1.7873	-4.25384	4.11209	0	
1.7880	-4.85855	0.744092	0	
1.7887	-5.77604	-1.39028	0	
1.7893	-8.52853	-0.156651	0	
1.7900	-11.2602	2.58474	0	
1.7907	-11.5729	3.19176	0	
1.7913	-9.13324	1.3707	0	
1.7920	-7.61103	1.97772	0	
1.7927	-5.77604	5.32613	0	
1.7933	-2.71078	5.63944	0	
1.7940	-3.02356	1.66442	0	
1.7947	-7.61103	-1.9973	0	
1.7953	-6.38076	-2.91762	0	
1.7960	-1.18857	-0.763674	0	
1.7967	1.25113	0.13707	0	
1.7973	4.29554	-1.07698	0	
1.7980	11.6146	0.13707	0	
1.7987	14.0543	1.66442	0	
1.7993	11.0099	1.66442	0	
1.8000	11.3227	2.27144	0	
1.8007	11.6146	1.66442	0	
1.8013	7.96552	-1.07698	0	
1.8020	6.13053	0.13707	0	
1.8027	5.52582	0.744092	0	
1.8033	2.46055	-3.81837	0	
1.8040	2.16862	-2.91762	0	
1.8047	8.25745	-0.469953	0	
1.8053	11.9274	-4.13167	0	
1.8060	7.96552	-5.95274	0	
1.8067	2.16862	-3.52465	0	
1.8073	-3.94105	-4.42539	0	
1.8080	-9.13324	-3.81837	0	
1.8087	-11.2602	-0.763674	0	
1.8093	-11.2602	-3.52465	0	
1.8100	-11.2602	-5.34572	0	
1.8107	-11.8857	-1.9973	0	
1.8113	-10.6554	-1.07698	0	
1.8120	-7.61103	-0.469953	0	
1.8127	-6.06797	1.97772	0	
1.8133	-6.69354	0.13707	0	
1.8140	-6.69354	-1.684	0	
1.8147	-5.17133	0.744092	0	
1.8153	-3.02356	-0.156651	0	
1.8160	-1.18857	-1.39028	0	
1.8167	0.0208521	2.27144	0	
1.8173	1.25113	3.50507	0	
1.8180	3.08612	1.05739	0	
1.8187	6.13053	2.27144	0	
1.8193	7.36081	1.05739	0	
1.8200	7.36081	-4.73869	0	
1.8207	7.04802	-7.48009	0	
1.8213	7.04802	-5.65902	0	
1.8220	7.04802	-5.65902	0	
1.8227	6.73524	-4.13167	0	
1.8233	5.21304	-1.9973	0	
1.8240	3.69083	-2.29102	0	
1.8247	3.08612	-3.81837	0	
1.8253	2.46055	-1.39028	0	
1.8260	0.938346	2.89804	0	
1.8267	-1.18857	4.42539	0	
1.8273	-5.17133	3.19176	0	
1.8280	-9.42517	3.50507	0	
1.8287	-10.9682	4.11209	0	
1.8293	-10.6554	1.3707	0	
1.8300	-10.3427	-1.39028	0	
1.8307	-10.0507	0.13707	0	
1.8313	-7.90296	2.58474	0	
1.8320	-6.06797	0.450372	0	
1.8327	-5.17133	-3.21135	0	
1.8333	-3.94105	-3.81837	0	
1.8340	-3.02356	-2.29102	0	
1.8347	-3.02356	-0.763674	0	
1.8353	-2.71078	2.58474	0	
1.8360	-0.271078	5.32613	0	
1.8367	1.54306	3.50507	0	
1.8373	3.37805	0.450372	0	
1.8380	6.13053	0.744092	0	
1.8387	7.36081	1.97772	0	
1.8393	9.17494	-0.469953	0	
1.8400	11.6146	-4.73869	0	
1.8407	7.96552	-7.18636	0	
1.8413	2.16862	-3.81837	0	
1.8420	4.29554	2.27144	0	
1.8427	11.6146	4.11209	0	
1.8433	11.6146	1.05739	0	
1.8440	6.44331	0.13707	0	
1.8447	1.54306	1.97772	0	
1.8453	-4.25384	1.66442	0	
1.8460	-6.98547	0.450372	0	
1.8467	-4.54577	1.66442	0	
1.8473	-4.85855	1.3707	0	
1.8480	-11.2602	-2.29102	0	
1.8487	-11.2602	-3.81837	0	
1.8493	-3.62827	0.450372	0	
1.8500	0.646416	6.24646	0	
1.8507	-3.94105	7.16678	0	
1.8513	-10.0507	5.93316	0	
1.8520	-8.82046	4.71911	0	
1.8527	-5.77604	1.05739	0	
1.8533	-9.42517	-1.07698	0	
1.8540	-16.1396	0.744092	0	
1.8547	-13.4079	-1.9973	0	
1.8553	-4.25384	-8.71371	0	
1.8560	0.0208521	-9.32073	0	
1.8567	0.333634	-5.05199	0	
1.8573	1.85584	-3.21135	0	
1.8580	4.90025	-1.39028	0	
1.8587	7.04802	0.13707	0	
1.8593	7.36081	-0.763674	0	
1.8600	7.65274	-1.07698	0	
1.8607	7.65274	-1.9973	0	
1.8613	7.04802	-3.81837	0	
1.8620	7.96552	-2.91762	0	
1.8627	7.96552	0.744092	0	
1.8633	5.81775	-1.07698	0	
1.8640	6.13053	-2.91762	0	
1.8647	6.73524	-1.07698	0	
1.8653	1.54306	-0.763674	0	
1.8660	-2.71078	-2.91762	0	
1.8667	-0.58386	-1.9973	0	
1.8673	-1.18857	0.450372	0	
1.8680	-5.17133	1.66442	0	
1.8687	-7.90296	2.27144	0	
1.8693	-10.6554	2.58474	0	
1.8700	-11.8857	2.58474	0	
1.8707	-8.82046	2.58474	0	
1.8713	-7.90296	1.66442	0	
1.8720	-9.13324	1.97772	0	
1.8727	-6.69354	2.27144	0	
1.8733	-3.02356	0.744092	0	
1.8740	-2.41885	-0.763674	0	
1.8747	-3.02356	-0.469953	0	
1.8753	-1.18857	-0.469953	0	
1.8760	3.37805	0.744092	0	
1.8767	5.52582	4.11209	0	
1.8773	3.37805	2.58474	0	
1.8780	3.69083	-1.39028	0	
1.8787	7.36081	-0.763674	0	
1.8793	9.80051	2.58474	0	
1.8800	11.6146	3.19176	0	
1.8807	13.4496	3.19176	0	
1.8813	12.5321	4.11209	0	
1.8820	11.6146	3.50507	0	
1.8827	8.25745	1.66442	0	
1.8833	3.37805	2.27144	0	
1.8840	-0.271078	2.58474	0	
1.8847	-4.85855	1.05739	0	
1.8853	-9.42517	1.66442	0	
1.8860	-7.61103	0.744092	0	
1.8867	-3.94105	-5.65902	0	
1.8873	-5.46326	-9.61446	0	
1.8880	-12.1777	-5.65902	0	
1.8887	-22.2492	-2.60432	0	
1.8893	-26.5239	-2.29102	0	
1.8900	-16.7651	-1.07698	0	
1.8907	-6.98547	-1.39028	0	
1.8913	-6.69354	-1.9973	0	
1.8920	-4.85855	2.27144	0	
1.8927	4.29554	2.58474	0	
1.8933	9.80051	-2.91762	0	
1.8940	7.96552	-1.9973	0	
1.8947	0.938346	2.89804	0	
1.8953	-6.38076	1.66442	0	
1.8960	-7.61103	0.13707	0	
1.8967	-5.77604	1.97772	0	
1.8973	-4.85855	-0.469953	0	
1.8980	-1.18857	-4.13167	0	
1.8987	6.44331	-4.42539	0	
1.8993	9.17494	-5.65902	0	
1.9000	5.81775	-5.65902	0	
1.9007	4.60832	-1.39028	0	
1.9013	8.25745	-1.07698	0	
1.9020	11.6146	-5.05199	0	
1.9027	11.0099	-5.34572	0	
1.9033	8.88301	-2.91762	0	
1.9040	5.21304	-3.52465	0	
1.9047	1.54306	-2.91762	0	
1.9053	0.646416	0.744092	0	
1.9060	0.646416	1.05739	0	
1.9067	-3.02356	-1.39028	0	
1.9073	-5.17133	-2.29102	0	
1.9080	-5.17133	-1.07698	0	
1.9087	-9.42517	-1.07698	0	
1.9093	-11.8857	-2.29102	0	
1.9100	-4.85855	-1.684	0	
1.9107	1.25113	1.3707	0	
1.9113	-1.18857	1.97772	0	
1.9120	-2.71078	0.13707	0	
1.9127	1.54306	2.58474	0	
1.9133	4.29554	6.24646	0	
1.9140	3.37805	2.89804	0	
1.9147	2.46055	-2.60432	0	
1.9153	1.54306	-1.39028	0	
1.9160	-8.82046	-0.156651	0	
1.9167	-21.9365	-2.91762	0	
1.9173	-19.8095	-1.39028	0	
1.9180	-4.85855	1.97772	0	
1.9187	5.21304	2.89804	0	
1.9193	5.81775	4.42539	0	
1.9200	4.90025	3.50507	0	
1.9207	7.65274	-3.21135	0	
1.9213	12.8449	-6.87306	0	
1.9220	14.0543	-3.52465	0	
1.9227	8.88301	-1.9973	0	
1.9233	2.46055	-5.34572	0	
1.9240	-0.58386	-5.95274	0	
1.9247	-0.896642	-2.29102	0	
1.9253	-3.02356	1.05739	0	
1.9260	-5.77604	0.744092	0	
1.9267	-3.02356	-1.9973	0	
1.9273	-2.10607	-0.763674	0	
1.9280	-8.52853	2.89804	0	
1.9287	-11.2602	3.19176	0	
1.9293	-9.13324	1.66442	0	
1.9300	-9.73795	0.744092	0	
1.9307	-10.3427	-0.156651	0	
1.9313	-7.90296	2.27144	0	
1.9320	-6.69354	4.71911	0	
1.9327	-5.77604	1.66442	0	
1.9333	-5.77604	-0.156651	0	
1.9340	-7.61103	2.58474	0	
1.9347	-7.61103	1.05739	0	
1.9353	-4.25384	0.450372	0	
1.9360	-2.41885	4.11209	0	
1.9367	-1.18857	0.744092	0	
1.9373	0.646416	-3.81837	0	
1.9380	3.08612	-0.156651	0	
1.9387	7.96552	1.3707	0	
1.9393	11.6146	-2.60432	0	
1.9400	11.6146	-1.07698	0	
1.9407	10.0924	0.450372	0	
1.9413	10.0924	-3.52465	0	
1.9420	8.88301	-1.9973	0	
1.9427	6.44331	4.42539	0	
1.9433	5.21304	4.42539	0	
1.9440	4.60832	0.450372	0	
1.9447	4.29554	-0.156651	0	
1.9453	7.04802	1.3707	0	
1.9460	7.96552	0.744092	0	
1.9467	1.25113	-1.684	0	
1.9473	-4.25384	-1.684	0	
1.9480	-3.62827	1.05739	0	
1.9487	-7.29825	4.42539	0	
1.9493	-12.7824	7.16678	0	
1.9500	-12.1777	8.98785	0	
1.9507	-12.1777	10.2215	0	
1.9513	-11.2602	13.5699	0	
1.9520	-4.54577	14.4902	0	
1.9527	-0.271078	9.59487	0	
1.9533	-2.71078	3.79879	0	
1.9540	-5.46326	2.27144	0	
1.9547	-8.82046	2.27144	0	
1.9553	-10.9682	3.50507	0	
1.9560	-8.82046	1.05739	0	
1.9567	-2.41885	-7.79339	0	
1.9573	9.17494	-15.1168	0	
1.9580	20.164	-14.8035	0	
1.9587	18.6418	-11.4551	0	
1.9593	10.4052	-8.40041	0	
1.9600	6.44331	-7.48009	0	
1.9607	5.52582	-8.71371	0	
1.9613	4.60832	-8.71371	0	
1.9620	3.37805	-5.95274	0	
1.9627	1.54306	-6.57934	0	
1.9633	4.29554	-8.40041	0	
1.9640	9.48772	-4.73869	0	
1.9647	8.88301	2.58474	0	
1.9653	5.21304	5.93316	0	
1.9660	4.60832	2.58474	0	
1.9667	2.46055	-1.07698	0	
1.9673	-2.10607	-1.9973	0	
1.9680	-5.46326	-1.684	0	
1.9687	-7.61103	-0.156651	0	
1.9693	-10.6554	2.27144	0	
1.9700	-10.0507	3.19176	0	
1.9707	-6.69354	1.3707	0	
1.9713	-6.98547	-1.39028	0	
1.9720	-8.52853	-3.52465	0	
1.9727	-6.06797	-3.21135	0	
1.9733	-2.10607	-1.9973	0	
1.9740	0.333634	-2.60432	0	
1.9747	1.85584	-1.9973	0	
1.9753	3.37805	0.450372	0	
1.9760	4.60832	1.66442	0	
1.9767	5.21304	-0.763674	0	
1.9773	4.29554	-3.81837	0	
1.9780	4.90025	-4.73869	0	
1.9787	7.96552	-2.60432	0	
1.9793	10.718	0.744092	0	
1.9800	10.0924	2.58474	0	
1.9807	6.73524	2.89804	0	
1.9813	4.29554	3.50507	0	
1.9820	5.52582	1.97772	0	
1.9827	7.96552	-0.156651	0	
1.9833	8.25745	-1.684	0	
1.9840	5.21304	-2.29102	0	
1.9847	1.54306	-1.9973	0	
1.9853	-0.271078	-2.29102	0	
1.9860	-1.18857	-1.9973	0	
1.9867	-1.50135	1.05739	0	
1.9873	-1.50135	2.27144	0	
1.9880	-3.02356	0.13707	0	
1.9887	-8.52853	0.744092	0	
1.9893	-12.1777	2.27144	0	
1.9900	-12.4904	1.66442	0	
1.9907	-12.4904	1.66442	0	
1.9913	-13.0951	2.58474	0	
1.9920	-12.1777	1.05739	0	
1.9927	-7.61103	0.13707	0	
1.9933	-3.33634	-0.469953	0	
1.9940	-6.69354	-2.91762	0	
1.9947	-10.9682	-3.52465	0	
1.9953	0.646416	-1.07698	0	
1.9960	18.0371	0.744092	0	
1.9967	21.6862	-0.156651	0	
1.9973	18.9546	-1.07698	0	
1.9980	21.999	-0.763674	0	
1.9987	22.6037	1.05739	0	
1.9993	18.9546	1.05739	0	
2.0000	18.9546	0.744092	0	
2.0007	18.329	2.27144	0	
2.0013	8.88301	3.50507	0	
2.0020	-3.94105	2.27144	0	
2.0027	-10.9682	-0.156651	0	
2.0033	-11.2602	-2.60432	0	
2.0040	-9.13324	-2.60432	0	
2.0047	-6.69354	-0.469953	0	
2.0053	-5.77604	-1.07698	0	
2.0060	-4.85855	-2.91762	0	
2.0067	-4.85855	-1.9973	0	
2.0073	-6.98547	0.744092	0	
2.0080	-10.9682	2.27144	0	
2.0087	-11.8857	1.97772	0	
2.0093	-10.6554	1.05739	0	
2.0100	-11.8857	2.27144	0	
2.0107	-11.5729	3.50507	0	
2.0113	-8.21574	0.744092	0	
2.0120	-6.69354	-1.07698	0	
2.0127	-6.69354	1.05739	0	
2.0133	-2.10607	-0.156651	0	
2.0140	1.85584	-4.13167	0	
2.0147	2.46055	-3.81837	0	
2.0153	2.46055	-0.469953	0	
2.0160	3.37805	-0.156651	0	
2.0167	4.00361	-1.07698	0	
2.0173	4.60832	-0.469953	0	
2.0180	4.90025	-1.07698	0	
2.0187	4.60832	-1.9973	0	
2.0193	6.13053	-1.39028	0	
2.0200	9.80051	-0.763674	0	
2.0207	10.718	-1.07698	0	
2.0213	7.36081	-1.9973	0	
2.0220	4.29554	-1.9973	0	
2.0227	6.13053	-0.469953	0	
2.0233	8.25745	0.13707	0	
2.0240	6.13053	-0.763674	0	
2.0247	3.37805	-1.39028	0	
2.0253	5.21304	-1.39028	0	
2.0260	7.04802	-1.39028	0	
2.0267	4.00361	-0.763674	0	
2.0273	1.54306	-0.156651	0	
2.0280	-1.18857	0.450372	0	
2.0287	-6.06797	1.97772	0	
2.0293	-9.13324	4.42539	0	
2.0300	-10.0507	5.32613	0	
2.0307	-13.0951	2.58474	0	
2.0313	-15.5348	-0.156651	0	
2.0320	-13.0951	-1.684	0	
2.0327	-8.82046	-1.684	0	
2.0333	-6.38076	-1.07698	0	
2.0340	-4.54577	-0.469953	0	
2.0347	-3.02356	-1.9973	0	
2.0353	-1.18857	-2.29102	0	
2.0360	-1.18857	0.744092	0	
2.0367	-1.50135	2.58474	0	
2.0373	1.54306	-0.156651	0	
2.0380	4.29554	-2.91762	0	
2.0387	5.21304	-4.42539	0	
2.0393	7.65274	-6.57934	0	
2.0400	9.80051	-7.18636	0	
2.0407	10.0924	-4.73869	0	
2.0413	9.80051	-2.91762	0	
2.0420	8.25745	-1.39028	0	
2.0427	6.13053	-1.39028	0	
2.0433	5.81775	-2.91762	0	
2.0440	5.81775	-0.156651	0	
2.0447	2.77333	3.50507	0	
2.0453	-0.271078	-0.156651	0	
2.0460	-1.18857	-1.07698	0	
2.0467	-2.10607	2.89804	0	
2.0473	-2.41885	1.66442	0	
2.0480	-3.02356	-1.684	0	
2.0487	-3.62827	1.66442	0	
2.0493	-3.02356	2.27144	0	
2.0500	-3.02356	-1.9973	0	
2.0507	-4.54577	-0.469953	0	
2.0513	-5.46326	2.89804	0	
2.0520	-4.85855	4.42539	0	
2.0527	-4.25384	4.42539	0	
2.0533	-2.10607	1.3707	0	
2.0540	0.333634	0.13707	0	
2.0547	-1.50135	4.11209	0	
2.0553	-3.02356	2.27144	0	
2.0560	0.0208521	-3.21135	0	
2.0567	3.69083	-1.9973	0	
2.0573	5.81775	-0.156651	0	
2.0580	5.21304	-0.156651	0	
2.0587	5.21304	4.42539	0	
2.0593	9.80051	8.38083	0	
2.0600	14.9718	7.16678	0	
2.0607	14.3671	5.93316	0	
2.0613	11.9274	2.89804	0	
2.0620	7.04802	-1.07698	0	
2.0627	-5.46326	2.58474	0	
2.0633	-12.4904	7.16678	0	
2.0640	-0.58386	1.05739	0	
2.0647	12.5321	-10.2411	0	
2.0653	10.718	-14.8035	0	
2.0660	4.90025	-12.0621	0	
2.0667	3.69083	-5.65902	0	
2.0673	0.333634	-1.9973	0	
2.0680	-6.69354	-0.763674	0	
2.0687	-7.61103	0.13707	0	
2.0693	0.0208521	0.13707	0	
2.0700	4.60832	-1.07698	0	
2.0707	-1.18857	-2.60432	0	
2.0713	-8.52853	-3.81837	0	
2.0720	-11.8857	-4.73869	0	
2.0727	-18.5793	-2.91762	0	
2.0733	-23.1667	-1.07698	0	
2.0740	-13.0951	1.05739	0	
2.0747	0.333634	4.42539	0	
2.0753	2.46055	4.42539	0	
2.0760	0.646416	1.05739	0	
2.0767	1.25113	0.450372	0	
2.0773	4.00361	0.744092	0	
2.0780	7.04802	1.05739	0	
2.0787	9.48772	4.11209	0	
2.0793	10.4052	5.63944	0	
2.0800	10.718	2.89804	0	
2.0807	9.80051	-1.07698	0	
2.0813	7.04802	-3.81837	0	
2.0820	3.69083	-5.05199	0	
2.0827	0.938346	-3.52465	0	
2.0833	-0.271078	-1.9973	0	
2.0840	-0.271078	-1.9973	0	
2.0847	-1.18857	-1.9973	0	
2.0853	-3.02356	-1.684	0	
2.0860	-3.62827	-1.07698	0	
2.0867	-3.02356	0.744092	0	
2.0873	-4.25384	1.66442	0	
2.0880	-6.98547	0.450372	0	
2.0887	-6.98547	-0.156651	0	
2.0893	-6.06797	-1.07698	0	
2.0900	-7.61103	-1.39028	0	
2.0907	-8.82046	-1.07698	0	
2.0913	-6.98547	-1.684	0	
2.0920	-6.38076	-1.07698	0	
2.0927	-5.77604	0.450372	0	
2.0933	-3.33634	0.744092	0	
2.0940	-3.33634	2.27144	0	
2.0947	-6.69354	5.32613	0	
2.0953	-6.69354	6.24646	0	
2.0960	-3.02356	2.58474	0	
2.0967	-0.58386	-0.469953	0	
2.0973	-0.58386	-0.763674	0	
2.0980	1.54306	0.744092	0	
2.0987	5.21304	1.97772	0	
2.0993	7.65274	1.97772	0	
2.1000	7.36081	-0.469953	0	
2.1007	6.44331	-1.9973	0	
2.1013	3.69083	0.450372	0	
2.1020	1.25113	1.3707	0	
2.1027	0.646416	-2.29102	0	
2.1033	0.646416	-3.81837	0	
2.1040	2.16862	-1.07698	0	
2.1047	4.29554	-1.07698	0	
2.1053	2.46055	-1.9973	0	
2.1060	-1.81414	-1.9973	0	
2.1067	-1.18857	-3.52465	0	
2.1073	-1.50135	-4.73869	0	
2.1080	-7.61103	-1.07698	0	
2.1087	-9.73795	1.97772	0	
2.1093	-7.29825	0.450372	0	
2.1100	-8.52853	-0.763674	0	
2.1107	-10.0507	1.3707	0	
2.1113	-7.61103	3.50507	0	
2.1120	-7.29825	2.27144	0	
2.1127	-7.61103	-0.763674	0	
2.1133	-7.29825	0.744092	0	
2.1140	-6.69354	2.58474	0	
2.1147	-3.02356	0.744092	0	
2.1153	0.0208521	-1.07698	0	
2.1160	-3.02356	-1.39028	0	
2.1167	-2.10607	-3.52465	0	
2.1173	6.13053	-3.81837	0	
2.1180	10.718	-0.763674	0	
2.1187	9.80051	1.66442	0	
2.1193	10.4052	1.3707	0	
2.1200	9.17494	0.13707	0	
2.1207	7.96552	-0.469953	0	
2.1213	7.96552	-0.469953	0	
2.1220	5.81775	-0.469953	0	
2.1227	4.29554	0.450372	0	
2.1233	5.52582	1.66442	0	
2.1240	4.29554	-1.9973	0	
2.1247	1.25113	-4.42539	0	
2.1253	0.938346	-1.07698	0	
2.1260	0.646416	1.3707	0	
2.1267	-2.41885	-1.07698	0	
2.1273	-5.46326	-0.156651	0	
2.1280	-7.29825	1.66442	0	
2.1287	-7.90296	0.744092	0	
2.1293	-8.52853	1.66442	0	
2.1300	-9.73795	2.58474	0	
2.1307	-9.73795	1.3707	0	
2.1313	-7.61103	1.3707	0	
2.1320	-6.38076	1.66442	0	
2.1327	-3.33634	-1.07698	0	
2.1333	0.938346	-3.81837	0	
2.1340	1.85584	-4.13167	0	
2.1347	0.646416	-2.29102	0	
2.1353	-0.271078	1.66442	0	
2.1360	-3.02356	2.58474	0	
2.1367	-4.25384	0.450372	0	
2.1373	-1.81414	1.05739	0	
2.1380	1.54306	0.744092	0	
2.1387	3.69083	-1.684	0	
2.1393	5.52582	-2.29102	0	
2.1400	6.13053	-2.91762	0	
2.1407	7.65274	-4.42539	0	
2.1413	7.65274	-3.21135	0	
2.1420	5.81775	0.744092	0	
2.1427	5.21304	2.27144	0	
2.1433	4.90025	0.744092	0	
2.1440	1.25113	-0.469953	0	
2.1447	-0.58386	1.05739	0	
2.1453	-2.10607	2.58474	0	
2.1460	-7.61103	1.66442	0	
2.1467	-9.13324	1.66442	0	
2.1473	-7.61103	1.97772	0	
2.1480	-14.9301	-0.156651	0	
2.1487	-18.2873	0.744092	0	
2.1493	-6.06797	4.11209	0	
2.1500	2.46055	4.42539	0	
2.1507	-2.41885	4.11209	0	
2.1513	-5.17133	5.32613	0	
2.1520	-1.81414	4.11209	0	
2.1527	-1.50135	2.27144	0	
2.1533	-3.94105	1.66442	0	
2.1540	-4.54577	-1.9973	0	
2.1547	-2.71078	-6.57934	0	
2.1553	-1.18857	-9.00743	0	
2.1560	-0.896642	-9.00743	0	
2.1567	0.646416	-5.95274	0	
2.1573	2.46055	-1.684	0	
2.1580	3.08612	-1.39028	0	
2.1587	4.60832	-4.42539	0	
2.1593	5.21304	-3.52465	0	
2.1600	3.69083	-0.156651	0	
2.1607	4.60832	-1.39028	0	
2.1613	7.04802	-3.81837	0	
2.1620	4.60832	-1.9973	0	
2.1627	3.37805	0.450372	0	
2.1633	11.6146	-0.156651	0	
2.1640	18.6418	-1.07698	0	
2.1647	13.7624	-1.9973	0	
2.1653	9.48772	-1.9973	0	
2.1660	16.2021	0.744092	0	
2.1667	21.6862	2.89804	0	
2.1673	14.0543	1.05739	0	
2.1680	2.16862	1.05739	0	
2.1687	-8.82046	4.42539	0	
2.1693	-19.4968	5.63944	0	
2.1700	-21.3317	2.58474	0	
2.1707	-13.6999	-0.469953	0	
2.1713	-10.3427	-1.07698	0	
2.1720	-12.1777	-0.469953	0	
2.1727	-12.7824	0.13707	0	
2.1733	-16.4523	1.97772	0	
2.1740	-21.3317	4.42539	0	
2.1747	-20.4142	3.50507	0	
2.1753	-15.8476	0.744092	0	
2.1760	-13.4079	-1.07698	0	
2.1767	-10.6554	-2.29102	0	
2.1773	-7.90296	-2.91762	0	
2.1780	-4.25384	-0.156651	0	
2.1787	1.54306	0.744092	0	
2.1793	5.21304	0.13707	0	
2.1800	4.90025	-0.469953	0	
2.1807	5.81775	-2.60432	0	
2.1813	7.96552	-2.91762	0	
2.1820	7.04802	0.450372	0	
2.1827	5.52582	1.05739	0	
2.1833	5.21304	-1.684	0	
2.1840	2.46055	0.450372	0	
2.1847	-0.896642	3.50507	0	
2.1853	2.77333	2.58474	0	
2.1860	7.96552	3.19176	0	
2.1867	4.60832	2.27144	0	
2.1873	-3.02356	-0.469953	0	
2.1880	-7.29825	2.89804	0	
2.1887	-7.29825	7.4605	0	
2.1893	-7.61103	2.58474	0	
2.1900	-9.42517	-2.29102	0	
2.1907	-10.6554	-1.684	0	
2.1913	-10.6554	-1.684	0	
2.1920	-12.1777	-0.763674	0	
2.1927	-13.6999	2.58474	0	
2.1933	-9.73795	1.97772	0	
2.1940	-3.94105	0.744092	0	
2.1947	-2.41885	5.03241	0	
2.1953	-0.58386	5.93316	0	
2.1960	2.46055	0.450372	0	
2.1967	1.25113	-1.9973	0	
2.1973	1.25113	-1.684	0	
2.1980	6.13053	-3.52465	0	
2.1987	7.96552	-3.81837	0	
2.1993	7.96552	-1.684	0	
2.2000	12.8449	-1.39028	0	
2.2007	16.2021	-1.07698	0	
2.2013	12.5321	-0.763674	0	
2.2020	9.17494	-2.91762	0	
2.2027	9.17494	-4.73869	0	
2.2033	7.36081	-3.81837	0	
2.2040	4.29554	-3.81837	0	
2.2047	2.77333	-5.05199	0	
2.2053	2.46055	-2.91762	0	
2.2060	1.85584	-0.156651	0	
2.2067	-0.271078	-1.07698	0	
2.2073	-3.02356	-2.60432	0	
2.2080	-4.54577	-1.07698	0	
2.2087	-4.85855	-0.469953	0	
2.2093	-5.77604	0.13707	0	
2.2100	-7.29825	2.27144	0	
2.2107	-7.61103	1.66442	0	
2.2113	-7.61103	-1.07698	0	
2.2120	-9.42517	-1.9973	0	
2.2127	-11.2602	-0.763674	0	
2.2133	-7.29825	-0.469953	0	
2.2140	-2.10607	-1.684	0	
2.2147	-2.10607	-3.21135	0	
2.2153	-2.41885	-3.21135	0	
2.2160	1.54306	-1.07698	0	
2.2167	3.69083	-0.156651	0	
2.2173	3.69083	0.13707	0	
2.2180	7.04802	0.13707	0	
2.2187	11.3227	-2.29102	0	
2.2193	11.9274	-5.65902	0	
2.2200	10.4052	-4.73869	0	
2.2207	9.80051	-0.156651	0	
2.2213	8.57023	0.450372	0	
2.2220	5.52582	-1.9973	0	
2.2227	3.37805	-1.9973	0	
2.2233	4.29554	1.05739	0	
2.2240	4.60832	1.66442	0	
2.2247	3.37805	0.13707	0	
2.2253	1.54306	0.744092	0	
2.2260	-0.896642	1.05739	0	
2.2267	-2.10607	-1.07698	0	
2.2273	-3.02356	0.450372	0	
2.2280	-9.42517	2.58474	0	
2.2287	-16.4523	-0.763674	0	
2.2293	-9.42517	-2.91762	0	
2.2300	2.46055	0.13707	0	
2.2307	1.85584	0.744092	0	
2.2313	-7.29825	0.744092	0	
2.2320	-7.90296	3.79879	0	
2.2327	-2.71078	3.50507	0	
2.2333	-1.81414	-1.39028	0	
2.2340	-5.17133	-1.684	0	
2.2347	-5.17133	0.744092	0	
2.2353	-0.58386	-0.156651	0	
2.2360	1.25113	-0.763674	0	
2.2367	-1.18857	1.66442	0	
2.2373	0.938346	4.11209	0	
2.2380	6.13053	2.89804	0	
2.2387	7.04802	-0.469953	0	
2.2393	5.81775	-1.684	0	
2.2400	7.04802	0.13707	0	
2.2407	7.96552	0.450372	0	
2.2413	6.73524	-1.07698	0	
2.2420	6.13053	-0.763674	0	
2.2427	6.13053	-0.156651	0	
2.2433	4.60832	-0.469953	0	
2.2440	2.46055	0.744092	0	
2.2447	0.938346	0.13707	0	
2.2453	-0.58386	-2.29102	0	
2.2460	-1.50135	-1.07698	0	
2.2467	-1.18857	2.27144	0	
2.2473	-1.50135	0.744092	0	
2.2480	-5.17133	-1.07698	0	
2.2487	-7.90296	1.66442	0	
2.2493	-8.21574	3.50507	0	
2.2500	-9.42517	1.97772	0	
2.2507	-10.3427	2.58474	0	
2.2513	-8.52853	3.79879	0	
2.2520	-5.77604	2.89804	0	
2.2527	-4.25384	1.66442	0	
2.2533	-1.50135	0.744092	0	
2.2540	1.54306	-0.156651	0	
2.2547	4.29554	-2.91762	0	
2.2553	5.52582	-5.95274	0	
2.2560	3.37805	-6.57934	0	
2.2567	0.646416	-2.60432	0	
2.2573	-0.271078	1.66442	0	
2.2580	0.646416	2.58474	0	
2.2587	-0.271078	-1.684	0	
2.2593	-1.81414	-9.61446	0	
2.2600	0.333634	-14.5098	0	
2.2607	6.13053	-11.1418	0	
2.2613	10.718	-5.95274	0	
2.2620	11.0099	-4.13167	0	
2.2627	9.80051	-1.9973	0	
2.2633	7.65274	1.66442	0	
2.2640	4.29554	0.13707	0	
2.2647	1.54306	-3.52465	0	
2.2653	0.0208521	-0.763674	0	
2.2660	-1.18857	4.11209	0	
2.2667	-1.18857	3.19176	0	
2.2673	-2.10607	1.05739	0	
2.2680	-6.69354	2.89804	0	
2.2687	-9.42517	2.89804	0	
2.2693	-8.52853	-0.469953	0	
2.2700	-7.29825	-1.07698	0	
2.2707	-5.77604	1.05739	0	
2.2713	-3.94105	0.744092	0	
2.2720	-6.06797	-0.156651	0	
2.2727	-7.90296	-0.469953	0	
2.2733	-5.77604	-2.60432	0	
2.2740	-4.85855	-5.65902	0	
2.2747	-4.85855	-7.48009	0	
2.2753	-1.18857	-5.65902	0	
2.2760	0.0208521	-3.81837	0	
2.2767	-2.10607	-2.91762	0	
2.2773	0.938346	-2.91762	0	
2.2780	7.04802	-3.21135	0	
2.2787	7.96552	-2.91762	0	
2.2793	8.88301	-0.763674	0	
2.2800	10.718	1.05739	0	
2.2807	6.73524	-0.763674	0	
2.2813	3.37805	-1.9973	0	
2.2820	7.04802	1.66442	0	
2.2827	7.96552	3.50507	0	
2.2833	5.21304	-0.156651	0	
2.2840	4.29554	-1.684	0	
2.2847	2.46055	0.744092	0	
2.2853	-2.10607	-0.469953	0	
2.2860	-4.25384	-1.9973	0	
2.2867	-5.17133	0.450372	0	
2.2873	-8.52853	1.66442	0	
2.2880	-10.6554	1.3707	0	
2.2887	-10.3427	2.58474	0	
2.2893	-12.1777	1.97772	0	
2.2900	-13.4079	-1.07698	0	
2.2907	-7.61103	-0.763674	0	
2.2913	2.77333	1.66442	0	
2.2920	5.52582	3.19176	0	
2.2927	2.77333	3.50507	0	
2.2933	4.29554	0.744092	0	
2.2940	3.69083	-1.9973	0	
2.2947	0.0208521	-0.469953	0	
2.2953	7.04802	3.50507	0	
2.2960	18.0371	4.42539	0	
2.2967	17.1196	2.58474	0	
2.2973	11.6146	0.450372	0	
2.2980	8.57023	-1.07698	0	
2.2987	2.46055	-2.29102	0	
2.2993	-2.10607	-1.07698	0	
2.3000	-2.10607	0.13707	0	
2.3007	-2.71078	-0.763674	0	
2.3013	1.54306	-1.39028	0	
2.3020	6.13053	-0.156651	0	
2.3027	-1.81414	-0.156651	0	
2.3033	-6.69354	-0.763674	0	
2.3040	7.65274	1.3707	0	
2.3047	16.8068	1.66442	0	
2.3053	8.88301	-0.763674	0	
2.3060	4.29554	-1.07698	0	
2.3067	3.69083	-0.763674	0	
2.3073	-1.81414	-1.9973	0	
2.3080	-4.85855	0.13707	0	
2.3087	-4.85855	4.42539	0	
2.3093	-9.42517	4.11209	0	
2.3100	-10.9682	0.13707	0	
2.3107	-7.61103	-2.29102	0	
2.3113	-7.90296	-2.91762	0	
2.3120	-6.69354	-1.07698	0	
2.3127	0.938346	3.19176	0	
2.3133	4.29554	3.19176	0	
2.3140	2.46055	-0.469953	0	
2.3147	4.00361	-0.469953	0	
2.3153	6.44331	1.05739	0	
2.3160	8.57023	-1.39028	0	
2.3167	11.3227	-4.73869	0	
2.3173	8.88301	-5.05199	0	
2.3180	1.25113	-4.73869	0	
2.3187	-4.85855	-5.34572	0	
2.3193	-9.13324	-4.42539	0	
2.3200	-10.9682	-3.52465	0	
2.3207	-6.69354	-1.9973	0	
2.3213	-0.58386	-0.469953	0	
2.3220	3.37805	0.13707	0	
2.3227	4.29554	1.66442	0	
2.3233	2.46055	3.79879	0	
2.3240	-0.896642	2.58474	0	
2.3247	-1.18857	1.3707	0	
2.3253	-2.41885	3.19176	0	
2.3260	-3.02356	4.71911	0	
2.3267	0.646416	5.63944	0	
2.3273	-0.271078	5.93316	0	
2.3280	-7.29825	-0.763674	0	
2.3287	-9.13324	-9.32073	0	
2.3293	-9.42517	-8.71371	0	
2.3300	-12.4904	-3.81837	0	
2.3307	-10.6554	-3.81837	0	
2.3313	-5.46326	-3.81837	0	
2.3320	-5.77604	-0.469953	0	
2.3327	-6.38076	0.744092	0	
2.3333	-5.77604	1.66442	0	
2.3340	-7.61103	3.19176	0	
2.3347	-6.69354	-0.156651	0	
2.3353	-1.50135	-5.05199	0	
2.3360	-1.18857	-5.95274	0	
2.3367	-3.02356	-5.65902	0	
2.3373	-0.271078	-5.65902	0	
2.3380	4.90025	-4.73869	0	
2.3387	7.96552	-3.81837	0	
2.3393	9.17494	-3.52465	0	
2.3400	9.80051	-2.91762	0	
2.3407	9.17494	-1.9973	0	
2.3413	9.48772	-1.07698	0	
2.3420	10.0924	-0.156651	0	
2.3427	9.17494	-0.156651	0	
2.3433	7.04802	0.744092	0	
2.3440	5.21304	1.3707	0	
2.3447	2.77333	-0.763674	0	
2.3453	-0.271078	-1.07698	0	
2.3460	-1.18857	0.744092	0	
2.3467	-0.58386	-0.156651	0	
2.3473	-1.81414	-3.21135	0	
2.3480	-6.06797	-2.29102	0	
2.3487	-9.42517	0.450372	0	
2.3493	-10.3427	1.66442	0	
2.3500	-11.2602	2.89804	0	
2.3507	-13.4079	4.42539	0	
2.3513	-12.1777	2.58474	0	
2.3520	-6.06797	-0.469953	0	
2.3527	-1.18857	0.13707	0	
2.3533	-1.81414	2.27144	0	
2.3540	-5.46326	2.27144	0	
2.3547	-7.90296	0.744092	0	
2.3553	-3.94105	0.744092	0	
2.3560	3.37805	1.66442	0	
2.3567	6.13053	4.11209	0	
2.3573	4.29554	5.32613	0	
2.3580	5.52582	3.79879	0	
2.3587	10.0924	1.66442	0	
2.3593	11.6146	-0.156651	0	
2.3600	10.718	-1.07698	0	
2.3607	11.6146	-0.763674	0	
2.3613	12.2402	0.744092	0	
2.3620	11.6146	1.05739	0	
2.3627	10.4052	0.744092	0	
2.3633	6.44331	2.58474	0	
2.3640	0.938346	4.42539	0	
2.3647	-1.50135	1.97772	0	
2.3653	-1.50135	-2.91762	0	
2.3660	-2.10607	-3.52465	0	
2.3667	-2.71078	-1.07698	0	
2.3673	-3.94105	0.744092	0	
2.3680	-7.61103	2.58474	0	
2.3687	-11.2602	2.58474	0	
2.3693	-11.8857	-2.60432	0	
2.3700	-8.52853	-5.34572	0	
2.3707	-4.85855	-2.29102	0	
2.3713	-4.25384	-1.07698	0	
2.3720	-6.69354	-2.29102	0	
2.3727	-6.98547	1.66442	0	
2.3733	-5.77604	5.63944	0	
2.3740	-8.21574	2.58474	0	
2.3747	-10.3427	-0.763674	0	
2.3753	-6.98547	0.450372	0	
2.3760	-2.71078	0.744092	0	
2.3767	-1.18857	1.3707	0	
2.3773	0.938346	1.66442	0	
2.3780	4.90025	-1.39028	0	
2.3787	7.96552	-3.81837	0	
2.3793	7.96552	-1.684	0	
2.3800	5.21304	-1.07698	0	
2.3807	2.46055	-0.156651	0	
2.3813	0.938346	2.89804	0	
2.3820	0.938346	1.66442	0	
2.3827	2.46055	-0.156651	0	
2.3833	4.00361	1.66442	0	
2.3840	2.16862	1.05739	0	
2.3847	-1.18857	-1.684	0	
2.3853	-0.896642	-1.07698	0	
2.3860	0.646416	-0.156651	0	
2.3867	-1.50135	-0.156651	0	
2.3873	-5.17133	0.450372	0	
2.3880	-5.77604	-1.9973	0	
2.3887	-4.85855	-2.29102	0	
2.3893	-7.61103	2.58474	0	
2.3900	-10.6554	3.19176	0	
2.3907	-9.42517	-0.156651	0	
2.3913	-8.52853	1.97772	0	
2.3920	-10.3427	3.50507	0	
2.3927	-10.3427	-0.156651	0	
2.3933	-8.52853	0.13707	0	
2.3940	-8.52853	1.66442	0	
2.3947	-11.2602	-0.156651	0	
2.3953	-9.13324	0.744092	0	
2.3960	2.46055	2.58474	0	
2.3967	12.5321	0.744092	0	
2.3973	9.80051	0.450372	0	
2.3980	6.13053	0.450372	0	
2.3987	9.80051	-2.60432	0	
2.3993	9.48772	-2.91762	0	
2.4000	4.29554	0.13707	0	
2.4007	5.21304	0.744092	0	
2.4013	9.48772	0.13707	0	
2.4020	7.96552	1.66442	0	
2.4027	4.60832	0.13707	0	
2.4033	3.37805	-1.9973	0	
2.4040	2.77333	0.450372	0	
2.4047	1.54306	2.27144	0	
2.4053	0.646416	-0.469953	0	
2.4060	-0.271078	-0.469953	0	
2.4067	-0.271078	2.58474	0	
2.4073	-0.896642	1.66442	0	
2.4080	-3.62827	-0.156651	0	
2.4087	-6.38076	2.58474	0	
2.4093	-8.82046	2.58474	0	
2.4100	-13.0951	-2.91762	0	
2.4107	-13.4079	-4.73869	0	
2.4113	-3.33634	-3.21135	0	
2.4120	6.13053	-3.52465	0	
2.4127	5.52582	-3.21135	0	
2.4133	2.16862	-0.469953	0	
2.4140	-1.18857	-0.156651	0	
2.4147	-9.42517	-0.156651	0	
2.4153	-15.8476	2.58474	0	
2.4160	-13.4079	1.66442	0	
2.4167	-10.6554	-2.29102	0	
2.4173	-6.69354	-1.9973	0	
2.4180	3.37805	-1.684	0	
2.4187	7.96552	-5.05199	0	
2.4193	6.73524	-4.73869	0	
2.4200	11.9274	-1.07698	0	
2.4207	15.8893	-1.684	0	
2.4213	10.0924	-3.81837	0	
2.4220	6.13053	-2.91762	0	
2.4227	7.96552	-1.9973	0	
2.4233	6.73524	-2.29102	0	
2.4240	4.60832	-2.91762	0	
2.4247	4.90025	-3.81837	0	
2.4253	3.37805	-3.81837	0	
2.4260	0.938346	-0.763674	0	
2.4267	1.25113	1.97772	0	
2.4273	0.333634	2.27144	0	
2.4280	-4.54577	3.79879	0	
2.4287	-9.42517	5.93316	0	
2.4293	-12.7824	6.24646	0	
2.4300	-15.8476	6.24646	0	
2.4307	-18.892	4.42539	0	
2.4313	-18.892	1.97772	0	
2.4320	-16.7651	0.13707	0	
2.4327	-14.9301	-2.60432	0	
2.4333	-12.4904	-5.05199	0	
2.4340	-7.29825	-2.91762	0	
2.4347	-3.02356	0.744092	0	
2.4353	-2.41885	0.450372	0	
2.4360	-2.10607	0.744092	0	
2.4367	-1.50135	2.27144	0	
2.4373	-0.271078	1.3707	0	
2.4380	3.08612	-1.07698	0	
2.4387	6.13053	-2.60432	0	
2.4393	7.04802	-1.9973	0	
2.4400	6.44331	-0.469953	0	
2.4407	5.21304	-1.9973	0	
2.4413	4.90025	-3.81837	0	
2.4420	5.81775	-1.39028	0	
2.4427	5.21304	-1.684	0	
2.4433	2.46055	-5.34572	0	
2.4440	1.25113	-3.81837	0	
2.4447	1.54306	-1.07698	0	
2.4453	2.46055	-2.91762	0	
2.4460	2.16862	-3.21135	0	
2.4467	0.0208521	-1.9973	0	
2.4473	0.0208521	-2.91762	0	
2.4480	3.37805	-1.39028	0	
2.4487	6.13053	1.66442	0	
2.4493	5.81775	0.450372	0	
2.4500	2.77333	-1.39028	0	
2.4507	0.0208521	-0.156651	0	
2.4513	1.54306	0.744092	0	
2.4520	0.646416	1.66442	0	
2.4527	-10.3427	2.58474	0	
2.4533	-19.8095	2.27144	0	
2.4540	-17.3698	2.58474	0	
2.4547	-14.0126	2.89804	0	
2.4553	-14.6174	-0.763674	0	
2.4560	-10.3427	-2.91762	0	
2.4567	-4.25384	0.13707	0	
2.4573	0.0208521	1.66442	0	
2.4580	4.60832	0.450372	0	
2.4587	7.96552	0.450372	0	
2.4593	9.17494	-0.156651	0	
2.4600	10.4052	-1.9973	0	
2.4607	10.4052	-2.29102	0	
2.4613	9.17494	-3.52465	0	
2.4620	7.96552	-4.42539	0	
2.4627	7.04802	-1.9973	0	
2.4633	7.36081	1.3707	0	
2.4640	8.25745	1.66442	0	
2.4647	6.73524	1.66442	0	
2.4653	4.90025	2.58474	0	
2.4660	2.77333	4.42539	0	
2.4667	-0.896642	3.79879	0	
2.4673	-3.02356	1.05739	0	
2.4680	-6.06797	1.66442	0	
2.4687	-13.0951	5.32613	0	
2.4693	-15.8476	3.79879	0	
2.4700	-13.6999	-2.91762	0	
2.4707	-14.0126	-5.05199	0	
2.4713	-13.6999	-3.52465	0	
2.4720	-10.6554	-1.39028	0	
2.4727	-10.3427	0.450372	0	
2.4733	-8.82046	0.744092	0	
2.4740	-3.33634	-1.07698	0	
2.4747	-2.10607	-2.29102	0	
2.4753	-3.94105	-0.156651	0	
2.4760	-2.10607	2.58474	0	
2.4767	2.46055	-0.156651	0	
2.4773	5.21304	-3.81837	0	
2.4780	6.73524	-2.29102	0	
2.4787	8.25745	0.13707	0	
2.4793	9.80051	-1.684	0	
2.4800	10.718	-1.07698	0	
2.4807	9.48772	1.3707	0	
2.4813	6.44331	0.450372	0	
2.4820	5.21304	-0.156651	0	
2.4827	5.52582	0.744092	0	
2.4833	4.29554	-0.156651	0	
2.4840	1.85584	-0.156651	0	
2.4847	1.85584	1.66442	0	
2.4853	3.08612	1.66442	0	
2.4860	1.85584	0.744092	0	
2.4867	0.646416	0.744092	0	
2.4873	0.646416	0.13707	0	
2.4880	-3.94105	-0.156651	0	
2.4887	-8.82046	0.744092	0	
2.4893	-7.61103	1.05739	0	
2.4900	-7.61103	1.05739	0	
2.4907	-11.5729	0.450372	0	
2.4913	-9.42517	1.05739	0	
2.4920	-2.71078	3.50507	0	
2.4927	-1.81414	4.42539	0	
2.4933	-2.71078	1.3707	0	
2.4940	-2.71078	-2.91762	0	
2.4947	-4.25384	-5.65902	0	
2.4953	-3.02356	-4.73869	0	
2.4960	0.646416	-1.684	0	
2.4967	2.16862	-0.156651	0	
2.4973	4.00361	-1.07698	0	
2.4980	6.44331	-0.156651	0	
2.4987	6.13053	-0.156651	0	
2.4993	7.04802	-1.9973	0	
2.5000	9.48772	-2.29102	0	
2.5007	8.88301	-2.29102	0	
2.5013	7.65274	-2.60432	0	
2.5020	6.44331	-0.156651	0	
2.5027	4.00361	1.66442	0	
2.5033	4.00361	1.97772	0	
2.5040	4.60832	4.42539	0	
2.5047	1.25113	5.32613	0	
2.5053	0.333634	5.03241	0	
2.5060	3.37805	8.98785	0	
2.5067	-0.271078	11.1222	0	
2.5073	-8.52853	6.24646	0	
2.5080	-11.5729	2.58474	0	
2.5087	-9.42517	1.66442	0	
2.5093	-5.77604	-3.81837	0	
2.5100	4.00361	-11.1418	0	
2.5107	13.7624	-13.5895	0	
2.5113	11.6146	-12.3754	0	
2.5120	4.90025	-12.0621	0	
2.5127	3.08612	-12.6692	0	
2.5133	-0.58386	-9.61446	0	
2.5140	-6.69354	-3.81837	0	
2.5147	-5.46326	-2.29102	0	
2.5153	-0.896642	-3.21135	0	
2.5160	0.333634	-1.07698	0	
2.5167	4.00361	1.66442	0	
2.5173	7.96552	1.66442	0	
2.5180	6.73524	0.450372	0	
2.5187	4.29554	-1.684	0	
2.5193	3.37805	-3.81837	0	
2.5200	2.16862	-3.21135	0	
2.5207	4.60832	-1.9973	0	
2.5213	7.96552	-0.469953	0	
2.5220	6.73524	0.744092	0	
2.5227	6.44331	-0.469953	0	
2.5233	7.04802	-0.156651	0	
2.5240	3.69083	2.58474	0	
2.5247	2.46055	1.66442	0	
2.5253	3.69083	-0.156651	0	
2.5260	1.54306	0.13707	0	
2.5267	-0.896642	-1.07698	0	
2.5273	-2.10607	-1.9973	0	
2.5280	-5.77604	0.450372	0	
2.5287	-6.69354	2.89804	0	
2.5293	-7.90296	4.42539	0	
2.5300	-12.1777	3.79879	0	
2.5307	-11.2602	1.3707	0	
2.5313	-7.29825	1.05739	0	
2.5320	-11.2602	1.97772	0	
2.5327	-8.82046	1.66442	0	
2.5333	6.44331	3.19176	0	
2.5340	11.0099	4.42539	0	
2.5347	0.333634	2.89804	0	
2.5353	-4.85855	2.58474	0	
2.5360	-2.41885	1.3707	0	
2.5367	0.0208521	-1.9973	0	
2.5373	3.69083	-0.469953	0	
2.5380	2.46055	1.66442	0	
2.5387	-1.81414	1.05739	0	
2.5393	6.44331	3.50507	0	
2.5400	19.5593	5.32613	0	
2.5407	15.2846	1.66442	0	
2.5413	5.21304	0.744092	0	
2.5420	6.13053	2.27144	0	
2.5427	7.65274	0.744092	0	
2.5433	4.29554	1.66442	0	
2.5440	5.21304	3.50507	0	
2.5447	7.65274	0.744092	0	
2.5453	4.60832	0.450372	0	
2.5460	3.37805	3.50507	0	
2.5467	5.21304	2.58474	0	
2.5473	-1.18857	0.450372	0	
2.5480	-11.8857	1.97772	0	
2.5487	-14.0126	3.79879	0	
2.5493	-12.1777	5.03241	0	
2.5500	-14.9301	6.85348	0	
2.5507	-16.7651	5.32613	0	
2.5513	-12.7824	0.13707	0	
2.5520	-6.69354	-2.91762	0	
2.5527	-4.85855	-1.39028	0	
2.5533	-6.38076	0.450372	0	
2.5540	-5.77604	0.450372	0	
2.5547	-2.41885	1.3707	0	
2.5553	-2.10607	1.66442	0	
2.5560	-1.50135	-1.684	0	
2.5567	2.46055	-2.29102	0	
2.5573	3.69083	0.13707	0	
2.5580	2.77333	0.744092	0	
2.5587	6.44331	1.66442	0	
2.5593	10.4052	4.42539	0	
2.5600	9.48772	4.11209	0	
2.5607	8.88301	1.66442	0	
2.5613	9.48772	-0.156651	0	
2.5620	8.57023	-2.91762	0	
2.5627	7.96552	-5.65902	0	
2.5633	7.04802	-8.40041	0	
2.5640	3.37805	-9.61446	0	
2.5647	-0.896642	-8.40041	0	
2.5653	-2.71078	-6.26604	0	
2.5660	-0.896642	-3.81837	0	
2.5667	0.646416	-0.156651	0	
2.5673	-2.10607	-0.469953	0	
2.5680	-6.69354	-4.73869	0	
2.5687	-8.21574	-5.05199	0	
2.5693	-8.21574	-3.81837	0	
2.5700	-9.42517	-4.73869	0	
2.5707	-10.9682	-2.60432	0	
2.5713	-10.0507	0.450372	0	
2.5720	-8.52853	-0.469953	0	
2.5727	-9.42517	0.13707	0	
2.5733	-11.2602	2.27144	0	
2.5740	-8.52853	-0.156651	0	
2.5747	-3.94105	-1.39028	0	
2.5753	-3.62827	1.3707	0	
2.5760	-4.54577	0.744092	0	
2.5767	-2.10607	-1.39028	0	
2.5773	1.25113	-0.156651	0	
2.5780	4.90025	-0.156651	0	
2.5787	9.80051	-3.52465	0	
2.5793	13.1577	-4.42539	0	
2.5800	14.3671	-3.81837	0	
2.5807	15.2846	-5.65902	0	
2.5813	14.3671	-6.26604	0	
2.5820	10.4052	-4.13167	0	
2.5827	9.48772	-3.81837	0	
2.5833	8.88301	-3.21135	0	
2.5840	2.77333	-1.9973	0	
2.5847	-2.41885	-1.9973	0	
2.5853	-0.58386	-1.9973	0	
2.5860	1.54306	-0.469953	0	
2.5867	-0.271078	0.13707	0	
2.5873	-3.02356	-0.763674	0	
2.5880	-5.77604	-1.07698	0	
2.5887	-8.52853	1.3707	0	
2.5893	-8.52853	4.42539	0	
2.5900	-8.21574	3.50507	0	
2.5907	-8.52853	0.744092	0	
2.5913	-8.82046	0.450372	0	
2.5920	-9.42517	0.744092	0	
2.5927	-9.13324	0.450372	0	
2.5933	-6.98547	2.89804	0	
2.5940	-5.46326	4.71911	0	
2.5947	-5.77604	2.58474	0	
2.5953	-3.33634	0.744092	0	
2.5960	0.938346	1.66442	0	
2.5967	3.37805	1.3707	0	
2.5973	6.73524	-1.07698	0	
2.5980	11.6146	-2.91762	0	
2.5987	14.3671	-1.9973	0	
2.5993	14.0543	-0.156651	0	
2.6000	13.4496	-0.469953	0	
2.6007	11.0099	0.13707	0	
2.6013	7.04802	1.66442	0	
2.6020	3.08612	-1.07698	0	
2.6027	0.646416	-4.73869	0	
2.6033	-0.896642	-3.81837	0	
2.6040	-0.896642	-0.763674	0	
2.6047	-0.896642	1.66442	0	
2.6053	-0.271078	3.19176	0	
2.6060	0.646416	1.05739	0	
2.6067	-0.271078	-1.07698	0	
2.6073	-0.896642	-0.469953	0	
2.6080	0.0208521	-1.9973	0	
2.6087	-1.18857	-3.81837	0	
2.6093	-5.77604	-0.469953	0	
2.6100	-10.6554	3.19176	0	
2.6107	-14.6174	3.50507	0	
2.6113	-15.8476	3.50507	0	
2.6120	-13.0951	3.19176	0	
2.6127	-11.2602	0.450372	0	
2.6133	-10.3427	-0.156651	0	
2.6140	-7.61103	1.97772	0	
2.6147	-4.54577	1.05739	0	
2.6153	-2.71078	-1.684	0	
2.6160	-1.18857	-1.39028	0	
2.6167	-1.18857	1.3707	0	
2.6173	-0.58386	3.50507	0	
2.6180	3.08612	4.42539	0	
2.6187	7.04802	3.50507	0	
2.6193	7.04802	1.66442	0	
2.6200	6.73524	1.66442	0	
2.6207	7.96552	2.89804	0	
2.6213	7.96552	2.27144	0	
2.6220	4.29554	0.450372	0	
2.6227	1.85584	-1.07698	0	
2.6233	3.37805	-4.42539	0	
2.6240	3.08612	-6.26604	0	
2.6247	1.85584	-4.73869	0	
2.6253	3.08612	-2.91762	0	
2.6260	-0.896642	-2.60432	0	
2.6267	-10.3427	-3.81837	0	
2.6273	-8.21574	-3.52465	0	
2.6280	3.37805	3.19176	0	
2.6287	4.29554	8.98785	0	
2.6293	-2.71078	4.71911	0	
2.6300	-5.77604	-0.763674	0	
2.6307	-6.06797	-0.156651	0	
2.6313	-6.38076	0.13707	0	
2.6320	-5.77604	-1.07698	0	
2.6327	-5.77604	-1.684	0	
2.6333	-4.85855	-4.42539	0	
2.6340	-2.71078	-6.57934	0	
2.6347	-2.10607	-3.21135	0	
2.6353	-1.18857	-1.9973	0	
2.6360	-0.271078	-3.81837	0	
2.6367	-3.62827	-1.684	0	
2.6373	-5.77604	0.744092	0	
2.6380	0.646416	-1.9973	0	
2.6387	7.04802	-3.81837	0	
2.6393	7.04802	-2.60432	0	
2.6400	7.96552	-2.29102	0	
2.6407	8.57023	-0.469953	0	
2.6413	6.44331	0.450372	0	
2.6420	7.96552	-2.29102	0	
2.6427	10.718	-2.60432	0	
2.6433	5.21304	-0.469953	0	
2.6440	2.46055	-1.39028	0	
2.6447	9.17494	0.13707	0	
2.6453	12.5321	4.42539	0	
2.6460	9.48772	2.58474	0	
2.6467	5.21304	-1.07698	0	
2.6473	-3.33634	-1.07698	0	
2.6480	-12.4904	-1.9973	0	
2.6487	-13.0951	-1.39028	0	
2.6493	-13.4079	0.450372	0	
2.6500	-16.7651	-0.763674	0	
2.6507	-14.0126	-0.156651	0	
2.6513	-12.7824	3.19176	0	
2.6520	-17.6826	1.3707	0	
2.6527	-14.9301	-1.07698	0	
2.6533	-5.46326	1.66442	0	
2.6540	-2.10607	1.66442	0	
2.6547	-2.71078	-1.9973	0	
2.6553	-2.71078	-1.684	0	
2.6560	-5.17133	-0.156651	0	
2.6567	-6.69354	-0.469953	0	
2.6573	-1.18857	0.450372	0	
2.6580	5.52582	0.450372	0	
2.6587	7.04802	-1.9973	0	
2.6593	7.04802	-1.684	0	
2.6600	12.2402	1.05739	0	
2.6607	14.3671	0.450372	0	
2.6613	10.4052	-1.684	0	
2.6620	9.48772	-1.07698	0	
2.6627	12.2402	-0.156651	0	
2.6633	7.65274	0.744092	0	
2.6640	4.29554	2.27144	0	
2.6647	11.6146	1.05739	0	
2.6653	16.2021	-2.29102	0	
2.6660	11.6146	-2.91762	0	
2.6667	7.04802	-0.763674	0	
2.6673	5.52582	1.05739	0	
2.6680	4.29554	2.89804	0	
2.6687	3.08612	2.58474	0	
2.6693	-2.10607	0.450372	0	
2.6700	-11.8857	0.13707	0	
2.6707	-21.6445	-0.156651	0	
2.6713	-26.5239	-1.9973	0	
2.6720	-22.2492	-1.07698	0	
2.6727	-11.8857	0.450372	0	
2.6733	-8.52853	0.13707	0	
2.6740	-13.0951	1.66442	0	
2.6747	-13.6999	3.79879	0	
2.6753	-10.9682	2.58474	0	
2.6760	-11.8857	-0.156651	0	
2.6767	-10.9682	-1.39028	0	
2.6773	-3.33634	-0.156651	0	
2.6780	3.08612	1.3707	0	
2.6787	3.37805	0.13707	0	
2.6793	3.37805	-0.469953	0	
2.6800	4.90025	-0.156651	0	
2.6807	4.29554	-1.684	0	
2.6813	3.69083	-1.9973	0	
2.6820	7.36081	-1.39028	0	
2.6827	9.80051	-3.81837	0	
2.6833	7.65274	-4.42539	0	
2.6840	3.69083	-0.763674	0	
2.6847	1.54306	-0.763674	0	
2.6853	1.85584	-2.29102	0	
2.6860	3.69083	0.450372	0	
2.6867	4.29554	1.05739	0	
2.6873	0.646416	-1.07698	0	
2.6880	-3.02356	-0.156651	0	
2.6887	-3.94105	-0.156651	0	
2.6893	-3.94105	-1.39028	0	
2.6900	-6.38076	1.3707	0	
2.6907	-7.61103	5.03241	0	
2.6913	-5.46326	4.42539	0	
2.6920	-4.25384	4.42539	0	
2.6927	-4.85855	5.03241	0	
2.6933	-3.62827	2.89804	0	
2.6940	-2.41885	2.58474	0	
2.6947	-2.41885	2.58474	0	
2.6953	-2.10607	-1.39028	0	
2.6960	-0.58386	-5.34572	0	
2.6967	2.46055	-5.05199	0	
2.6973	4.90025	-2.91762	0	
2.6980	2.46055	-0.156651	0	
2.6987	2.16862	0.744092	0	
2.6993	7.04802	-1.9973	0	
2.7000	5.81775	-2.91762	0	
2.7007	1.25113	-1.07698	0	
2.7013	8.88301	0.13707	0	
2.7020	20.7687	2.89804	0	
2.7027	18.9546	6.24646	0	
2.7033	9.17494	6.24646	0	
2.7040	4.90025	3.50507	0	
2.7047	4.90025	0.744092	0	
2.7053	4.29554	-0.156651	0	
2.7060	2.46055	2.27144	0	
2.7067	-0.271078	2.89804	0	
2.7073	-5.46326	-2.60432	0	
2.7080	-10.9682	-6.57934	0	
2.7087	-13.6999	-4.73869	0	
2.7093	-12.1777	-2.91762	0	
2.7100	-8.82046	-1.9973	0	
2.7107	-7.61103	-0.469953	0	
2.7113	-7.90296	-1.39028	0	
2.7120	-7.61103	-1.9973	0	
2.7127	-5.77604	0.744092	0	
2.7133	-5.77604	2.89804	0	
2.7140	-7.61103	1.97772	0	
2.7147	-6.98547	0.450372	0	
2.7153	-5.46326	-1.9973	0	
2.7160	-5.46326	-4.42539	0	
2.7167	-3.02356	-5.34572	0	
2.7173	0.938346	-3.21135	0	
2.7180	2.46055	-0.469953	0	
2.7187	5.21304	-2.60432	0	
2.7193	7.96552	-5.65902	0	
2.7200	7.96552	-4.73869	0	
2.7207	8.88301	-3.81837	0	
2.7213	11.3227	-5.65902	0	
2.7220	8.57023	-4.13167	0	
2.7227	4.90025	-1.39028	0	
2.7233	5.81775	-1.684	0	
2.7240	4.60832	-2.60432	0	
2.7247	0.646416	-2.91762	0	
2.7253	0.0208521	-2.60432	0	
2.7260	2.46055	-1.07698	0	
2.7267	1.85584	-1.07698	0	
2.7273	-1.50135	-2.29102	0	
2.7280	-5.77604	-2.29102	0	
2.7287	-8.82046	-1.9973	0	
2.7293	-8.82046	-0.469953	0	
2.7300	-9.13324	2.58474	0	
2.7307	-10.0507	2.27144	0	
2.7313	-10.3427	-1.07698	0	
2.7320	-11.2602	-0.763674	0	
2.7327	-10.3427	0.13707	0	
2.7333	-5.77604	-0.469953	0	
2.7340	-2.10607	2.27144	0	
2.7347	-2.10607	4.42539	0	
2.7353	-1.50135	1.97772	0	
2.7360	0.333634	1.05739	0	
2.7367	1.54306	1.97772	0	
2.7373	3.08612	1.05739	0	
2.7380	6.44331	-0.156651	0	
2.7387	8.88301	-1.9973	0	
2.7393	9.80051	-3.21135	0	
2.7400	10.0924	-1.684	0	
2.7407	9.17494	-0.469953	0	
2.7413	6.73524	-1.9973	0	
2.7420	6.13053	-2.91762	0	
2.7427	6.13053	-1.39028	0	
2.7433	4.60832	-0.156651	0	
2.7440	3.37805	0.13707	0	
2.7447	2.46055	-1.39028	0	
2.7453	0.646416	-1.39028	0	
2.7460	-1.18857	0.450372	0	
2.7467	-3.02356	-0.156651	0	
2.7473	-7.61103	0.13707	0	
2.7480	-10.6554	3.50507	0	
2.7487	-9.73795	4.11209	0	
2.7493	-5.77604	2.27144	0	
2.7500	1.25113	3.19176	0	
2.7507	3.37805	2.58474	0	
2.7513	-3.02356	-1.07698	0	
2.7520	-7.61103	-1.9973	0	
2.7527	-9.42517	-1.9973	0	
2.7533	-12.4904	-2.60432	0	
2.7540	-11.8857	0.13707	0	
2.7547	-7.90296	1.66442	0	
2.7553	-6.38076	-0.156651	0	
2.7560	-3.02356	1.66442	0	
2.7567	1.25113	5.03241	0	
2.7573	2.77333	1.66442	0	
2.7580	5.52582	-3.81837	0	
2.7587	9.80051	-4.73869	0	
2.7593	11.0099	-3.81837	0	
2.7600	11.6146	-3.21135	0	
2.7607	10.718	-2.29102	0	
2.7613	7.96552	-1.9973	0	
2.7620	6.13053	-1.07698	0	
2.7627	4.29554	0.744092	0	
2.7633	3.37805	-0.469953	0	
2.7640	3.37805	-2.29102	0	
2.7647	1.85584	-1.9973	0	
2.7653	-0.271078	-1.684	0	
2.7660	-1.81414	-0.156651	0	
2.7667	-4.85855	2.89804	0	
2.7673	-4.54577	2.58474	0	
2.7680	0.938346	0.13707	0	
2.7687	-1.81414	0.450372	0	
2.7693	-10.9682	1.3707	0	
2.7700	-11.2602	1.3707	0	
2.7707	-6.98547	3.79879	0	
2.7713	-6.69354	5.32613	0	
2.7720	-4.54577	2.58474	0	
2.7727	-1.50135	-0.469953	0	
2.7733	-3.62827	-0.469953	0	
2.7740	-5.77604	1.66442	0	
2.7747	-4.54577	3.79879	0	
2.7753	-3.94105	2.58474	0	
2.7760	-3.02356	-1.07698	0	
2.7767	1.25113	-3.21135	0	
2.7773	4.29554	-1.9973	0	
2.7780	7.04802	-0.156651	0	
2.7787	10.4052	-1.07698	0	
2.7793	10.0924	-3.81837	0	
2.7800	7.04802	-3.81837	0	
2.7807	10.4052	0.450372	0	
2.7813	18.329	4.42539	0	
2.7820	18.9546	5.03241	0	
2.7827	13.4496	5.32613	0	
2.7833	8.25745	3.79879	0	
2.7840	2.77333	3.19176	0	
2.7847	-2.10607	2.89804	0	
2.7853	-2.41885	-2.60432	0	
2.7860	-5.77604	-8.71371	0	
2.7867	-14.0126	-8.40041	0	
2.7873	-14.0126	-6.26604	0	
2.7880	-8.52853	-5.05199	0	
2.7887	-8.82046	-1.684	0	
2.7893	-9.42517	0.450372	0	
2.7900	-7.29825	-2.29102	0	
2.7907	-11.2602	-2.60432	0	
2.7913	-14.6174	-1.07698	0	
2.7920	-8.82046	-1.9973	0	
2.7927	-5.17133	-1.684	0	
2.7933	-8.52853	0.450372	0	
2.7940	-9.42517	-0.469953	0	
2.7947	-6.38076	-2.29102	0	
2.7953	-3.94105	-1.39028	0	
2.7960	-1.18857	-1.684	0	
2.7967	1.25113	-3.81837	0	
2.7973	3.69083	-2.29102	0	
2.7980	5.81775	0.13707	0	
2.7987	6.73524	-1.07698	0	
2.7993	8.88301	-3.81837	0	
2.8000	11.3227	-3.81837	0	
2.8007	9.17494	-4.73869	0	
2.8013	6.44331	-8.40041	0	
2.8020	5.52582	-7.48009	0	
2.8027	4.29554	-2.29102	0	
2.8033	4.60832	-0.156651	0	
2.8040	5.21304	-1.07698	0	
2.8047	1.54306	0.450372	0	
2.8053	-1.50135	1.66442	0	
2.8060	0.0208521	-1.07698	0	
2.8067	1.54306	-1.684	0	
2.8073	-1.18857	0.744092	0	
2.8080	-5.46326	2.27144	0	
2.8087	-7.61103	2.58474	0	
2.8093	-8.52853	2.89804	0	
2.8100	-10.0507	1.66442	0	
2.8107	-10.3427	0.13707	0	
2.8113	-7.29825	-0.156651	0	
2.8120	-5.46326	0.450372	0	
2.8127	-5.77604	2.27144	0	
2.8133	0.0208521	3.79879	0	
2.8140	8.88301	2.27144	0	
2.8147	12.5321	-1.684	0	
2.8153	14.0543	-2.91762	0	
2.8160	16.5149	-1.9973	0	
2.8167	16.2021	-1.684	0	
2.8173	13.7624	-0.469953	0	
2.8180	12.8449	0.13707	0	
2.8187	6.73524	-3.52465	0	
2.8193	-7.61103	-7.48009	0	
2.8200	-17.6826	-5.95274	0	
2.8207	-14.9301	-2.60432	0	
2.8213	-9.13324	-1.9973	0	
2.8220	-5.77604	-1.684	0	
2.8227	-1.50135	-1.07698	0	
2.8233	0.938346	-1.07698	0	
2.8240	-1.18857	-1.07698	0	
2.8247	-1.50135	0.13707	0	
2.8253	1.25113	2.58474	0	
2.8260	0.333634	4.11209	0	
2.8267	-2.10607	3.50507	0	
2.8273	-2.71078	3.50507	0	
2.8280	-6.38076	3.79879	0	
2.8287	-13.4079	2.58474	0	
2.8293	-17.6826	-0.156651	0	
2.8300	-15.8476	-3.81837	0	
2.8307	-11.2602	-4.42539	0	
2.8313	-9.73795	0.13707	0	
2.8320	-10.0507	4.42539	0	
2.8327	-7.61103	2.58474	0	
2.8333	-5.77604	-0.469953	0	
2.8340	-5.46326	-0.469953	0	
2.8347	-2.10607	-1.9973	0	
2.8353	1.85584	-3.81837	0	
2.8360	2.46055	-2.91762	0	
2.8367	3.69083	-3.52465	0	
2.8373	5.52582	-3.52465	0	
2.8380	6.44331	0.450372	0	
2.8387	9.48772	1.66442	0	
2.8393	11.6146	-2.29102	0	
2.8400	9.80051	-2.29102	0	
2.8407	7.96552	0.450372	0	
2.8413	6.73524	-0.156651	0	
2.8420	5.52582	-0.469953	0	
2.8427	7.65274	2.89804	0	
2.8433	9.80051	4.42539	0	
2.8440	7.36081	2.58474	0	
2.8447	4.29554	0.450372	0	
2.8453	2.46055	-1.07698	0	
2.8460	-0.271078	-1.07698	0	
2.8467	-0.271078	-0.469953	0	
2.8473	1.54306	-1.07698	0	
2.8480	-1.18857	0.744092	0	
2.8487	-5.77604	3.79879	0	
2.8493	-7.29825	4.11209	0	
2.8500	-10.6554	2.58474	0	
2.8507	-14.9301	2.58474	0	
2.8513	-10.9682	2.58474	0	
2.8520	-4.85855	3.50507	0	
2.8527	-4.25384	4.42539	0	
2.8533	-3.94105	1.66442	0	
2.8540	-3.02356	-1.9973	0	
2.8547	-4.54577	-1.07698	0	
2.8553	0.333634	1.3707	0	
2.8560	7.96552	1.66442	0	
2.8567	9.80051	1.66442	0	
2.8573	7.04802	0.744092	0	
2.8580	2.16862	-1.07698	0	
2.8587	-3.33634	-0.156651	0	
2.8593	3.08612	4.11209	0	
2.8600	14.0543	6.24646	0	
2.8607	10.4052	4.71911	0	
2.8613	3.69083	3.50507	0	
2.8620	7.65274	2.89804	0	
2.8627	10.0924	1.66442	0	
2.8633	5.52582	-0.156651	0	
2.8640	-0.271078	-0.156651	0	
2.8647	-6.06797	1.3707	0	
2.8653	-8.52853	3.19176	0	
2.8660	-10.0507	0.744092	0	
2.8667	-15.2221	-3.81837	0	
2.8673	-11.5729	-4.73869	0	
2.8680	1.54306	-0.469953	0	
2.8687	1.85584	1.66442	0	
2.8693	-7.29825	-1.39028	0	
2.8700	-7.29825	-2.91762	0	
2.8707	-4.85855	-1.9973	0	
2.8713	-10.6554	-2.91762	0	
2.8720	-14.0126	-1.9973	0	
2.8727	-9.13324	-0.763674	0	
2.8733	-3.33634	-2.91762	0	
2.8740	0.333634	-3.81837	0	
2.8747	0.938346	-1.9973	0	
2.8753	-0.58386	-1.9973	0	
2.8760	0.0208521	-3.81837	0	
2.8767	3.37805	-3.21135	0	
2.8773	7.04802	-2.91762	0	
2.8780	10.718	-3.52465	0	
2.8787	13.1577	-2.91762	0	
2.8793	11.6146	-1.9973	0	
2.8800	8.88301	-1.684	0	
2.8807	7.96552	0.13707	0	
2.8813	9.48772	1.66442	0	
2.8820	9.17494	1.66442	0	
2.8827	6.44331	2.27144	0	
2.8833	3.69083	-0.469953	0	
2.8840	2.46055	-3.81837	0	
2.8847	1.54306	-1.9973	0	
2.8853	-0.271078	0.744092	0	
2.8860	-2.10607	-0.763674	0	
2.8867	-3.33634	-1.9973	0	
2.8873	-4.25384	-1.07698	0	
2.8880	-5.77604	-2.60432	0	
2.8887	-7.61103	-3.21135	0	
2.8893	-10.0507	-1.684	0	
2.8900	-11.2602	-0.763674	0	
2.8907	-10.3427	0.744092	0	
2.8913	-9.13324	2.58474	0	
2.8920	-6.06797	0.450372	0	
2.8927	-1.18857	-1.684	0	
2.8933	-2.71078	-0.763674	0	
2.8940	-7.61103	-1.07698	0	
2.8947	-5.17133	-1.684	0	
2.8953	0.333634	-0.156651	0	
2.8960	0.333634	-1.684	0	
2.8967	0.646416	-3.81837	0	
2.8973	4.29554	-3.81837	0	
2.8980	5.52582	-5.05199	0	
2.8987	6.44331	-4.73869	0	
2.8993	9.17494	-1.9973	0	
2.9000	9.80051	-2.60432	0	
2.9007	7.04802	-3.52465	0	
2.9013	5.21304	-0.156651	0	
2.9020	7.04802	0.450372	0	
2.9027	8.57023	-1.07698	0	
2.9033	6.44331	0.744092	0	
2.9040	4.29554	0.744092	0	
2.9047	2.46055	-1.684	0	
2.9053	-2.10607	1.97772	0	
2.9060	-5.77604	5.63944	0	
2.9067	-5.77604	1.97772	0	
2.9073	-6.69354	-1.9973	0	
2.9080	-9.42517	-0.156651	0	
2.9087	-10.6554	2.58474	0	
2.9093	-10.9682	2.89804	0	
2.9100	-10.3427	1.97772	0	
2.9107	-8.21574	1.66442	0	
2.9113	-6.98547	1.97772	0	
2.9120	-7.61103	1.97772	0	
2.9127	-6.38076	1.66442	0	
2.9133	-2.10607	0.744092	0	
2.9140	-0.271078	-1.684	0	
2.9147	-3.94105	-1.684	0	
2.9153	-5.46326	0.13707	0	
2.9160	-1.18857	-1.07698	0	
2.9167	1.54306	-1.9973	0	
2.9173	0.938346	1.05739	0	
2.9180	2.46055	1.3707	0	
2.9187	6.73524	-1.9973	0	
2.9193	11.6146	-2.91762	0	
2.9200	12.5321	-1.9973	0	
2.9207	9.80051	0.13707	0	
2.9213	7.65274	1.66442	0	
2.9220	6.44331	-0.156651	0	
2.9227	4.29554	-3.52465	0	
2.9233	4.29554	-3.81837	0	
2.9240	4.29554	-2.29102	0	
2.9247	1.25113	-1.07698	0	
2.9253	0.938346	-0.156651	0	
2.9260	3.37805	-1.07698	0	
2.9267	2.46055	-1.684	0	
2.9273	-2.10607	1.05739	0	
2.9280	-5.17133	1.97772	0	
2.9287	-8.21574	-0.156651	0	
2.9293	-10.0507	-0.763674	0	
2.9300	-9.42517	-1.07698	0	
2.9307	-7.29825	-2.91762	0	
2.9313	-5.77604	-1.684	0	
2.9320	-6.06797	1.66442	0	
2.9327	-6.38076	1.66442	0	
2.9333	-5.77604	2.27144	0	
2.9340	-6.69354	5.03241	0	
2.9347	-6.38076	3.50507	0	
2.9353	-1.18857	-0.469953	0	
2.9360	3.08612	1.05739	0	
2.9367	2.46055	3.50507	0	
2.9373	2.16862	2.58474	0	
2.9380	4.00361	1.66442	0	
2.9387	6.13053	0.13707	0	
2.9393	7.96552	-2.91762	0	
2.9400	10.4052	-2.91762	0	
2.9407	10.4052	-1.9973	0	
2.9413	6.73524	-3.81837	0	
2.9420	4.90025	-3.81837	0	
