0.0007	3.11307	-0.0773606	0	
0.0013	7.3839	2.6612	0	
0.0020	9.82805	2.6612	0	
0.0027	8.00137	0.526052	0	
0.0033	0.0643197	2.6612	0	
0.0040	-12.4523	3.58953	0	
0.0047	-20.3765	-0.990215	0	
0.0053	-18.2411	-1.90307	0	
0.0060	-13.0569	0.835494	0	
0.0067	-8.78607	1.14494	0	
0.0073	-0.244415	0.526052	0	
0.0080	8.60598	-1.90307	0	
0.0087	8.91471	-3.74425	0	
0.0093	3.73054	-0.680773	0	
0.0100	1.891	0.835494	0	
0.0107	4.64388	-1.6091	0	
0.0113	6.17469	-0.990215	0	
0.0120	3.11307	-0.990215	0	
0.0127	-2.0711	-3.74425	0	
0.0133	-5.73732	-1.29966	0	
0.0140	-7.564	2.6612	0	
0.0147	-6.95939	1.14494	0	
0.0153	-5.11985	1.74835	0	
0.0160	-3.89778	3.8835	0	
0.0167	-3.6019	2.6612	0	
0.0173	-5.42858	0.835494	0	
0.0180	-8.47734	0.835494	0	
0.0187	-9.39068	-0.0773606	0	
0.0193	-8.47734	0.232082	0	
0.0200	-7.564	2.05779	0	
0.0207	-8.47734	2.6612	0	
0.0213	-10.3169	3.58953	0	
0.0220	-9.09481	2.97065	0	
0.0227	-4.82398	0.526052	0	
0.0233	-4.51524	1.74835	0	
0.0240	-8.1686	4.81183	0	
0.0247	-7.564	2.6612	0	
0.0253	-2.98444	-0.0773606	0	
0.0260	-0.84902	1.74835	0	
0.0267	-0.244415	2.05779	0	
0.0273	0.681789	1.14494	0	
0.0280	2.50847	1.74835	0	
0.0287	7.69264	-0.0773606	0	
0.0293	11.6676	-2.52195	0	
0.0300	9.82805	0.835494	0	
0.0307	10.1368	2.97065	0	
0.0313	14.4076	1.14494	0	
0.0320	13.4943	0.232082	0	
0.0327	5.86596	0.526052	0	
0.0333	0.681789	0.526052	0	
0.0340	-3.6019	2.05779	0	
0.0347	-7.87273	0.526052	0	
0.0353	-6.34192	-2.52195	0	
0.0360	-0.84902	-1.29966	0	
0.0367	0.681789	-0.0773606	0	
0.0373	-0.244415	-1.6091	0	
0.0380	0.373054	-0.680773	0	
0.0387	0.0643197	-0.386803	0	
0.0393	-1.46649	-1.6091	0	
0.0400	-2.0711	1.74835	0	
0.0407	-1.15775	4.50238	0	
0.0413	-0.244415	2.05779	0	
0.0420	0.681789	1.74835	0	
0.0427	2.19973	1.74835	0	
0.0433	2.19973	-1.6091	0	
0.0440	-0.244415	-1.90307	0	
0.0447	0.0643197	2.97065	0	
0.0453	4.33515	4.50238	0	
0.0460	5.24849	1.45438	0	
0.0467	3.73054	0.232082	0	
0.0473	5.55722	0.835494	0	
0.0480	4.02641	0.232082	0	
0.0487	0.0643197	-0.680773	0	
0.0493	3.11307	0.232082	0	
0.0500	8.91471	0.526052	0	
0.0507	8.91471	-0.0773606	0	
0.0513	9.51932	0.526052	0	
0.0520	12.2722	1.14494	0	
0.0527	12.5809	-0.386803	0	
0.0533	11.0501	-2.52195	0	
0.0540	8.91471	-3.74425	0	
0.0547	8.31011	-3.43481	0	
0.0553	9.82805	0.232082	0	
0.0560	9.82805	4.50238	0	
0.0567	6.17469	5.41524	0	
0.0573	2.19973	4.81183	0	
0.0580	0.373054	3.58953	0	
0.0587	-0.244415	1.14494	0	
0.0593	-4.51524	0.835494	0	
0.0600	-9.69941	3.58953	0	
0.0607	-6.34192	3.58953	0	
0.0613	-4.82398	1.74835	0	
0.0620	-18.2411	2.6612	0	
0.0627	-26.4869	-0.0773606	0	
0.0633	-16.1057	-7.39567	0	
0.0640	-7.87273	-9.23685	0	
0.0647	-6.95939	-6.48282	0	
0.0653	-0.244415	-4.65711	0	
0.0660	3.42181	0.835494	0	
0.0667	-3.29317	4.50238	0	
0.0673	-5.73732	-1.90307	0	
0.0680	0.681789	-6.48282	0	
0.0687	-4.51524	-3.12537	0	
0.0693	-18.2411	0.835494	0	
0.0700	-15.5011	3.28009	0	
0.0707	0.97766	6.32809	0	
0.0713	6.17469	5.41524	0	
0.0720	4.33515	-0.386803	0	
0.0727	7.3839	-3.74425	0	
0.0733	9.82805	-2.21251	0	
0.0740	11.6676	0.232082	0	
0.0747	11.6676	0.526052	0	
0.0753	3.11307	0.526052	0	
0.0760	0.681789	0.835494	0	
0.0767	6.47056	-0.990215	0	
0.0773	-6.03319	-4.03822	0	
0.0780	-29.8444	-4.96655	0	
0.0787	-30.7577	-2.52195	0	
0.0793	-20.0806	2.05779	0	
0.0800	-18.5498	4.50238	0	
0.0807	-14.5877	3.58953	0	
0.0813	-5.73732	2.97065	0	
0.0820	2.19973	2.97065	0	
0.0827	11.0501	2.36723	0	
0.0833	14.0989	1.45438	0	
0.0840	4.95262	-0.680773	0	
0.0847	-1.46649	-3.12537	0	
0.0853	0.373054	-3.74425	0	
0.0860	-0.244415	-4.65711	0	
0.0867	0.681789	-8.324	0	
0.0873	11.0501	-8.92741	0	
0.0880	15.321	-6.48282	0	
0.0887	7.69264	-4.65711	0	
0.0893	7.08803	-2.21251	0	
0.0900	12.2722	-1.29966	0	
0.0907	8.91471	-3.74425	0	
0.0913	11.0501	-5.26052	0	
0.0920	26.3068	-2.21251	0	
0.0927	29.973	2.36723	0	
0.0933	15.9384	5.41524	0	
0.0940	4.64388	6.01865	0	
0.0947	0.681789	2.05779	0	
0.0953	-1.15775	-2.8314	0	
0.0960	1.59513	-3.12537	0	
0.0967	3.42181	-2.52195	0	
0.0973	-0.540286	-3.74425	0	
0.0980	-11.2302	-0.386803	0	
0.0987	-23.734	8.16928	0	
0.0993	-24.0427	11.8207	0	
0.1000	-8.47734	10.3044	0	
0.1007	3.42181	9.08213	0	
0.1013	2.50847	7.55039	0	
0.1020	-2.6757	7.24095	0	
0.1027	-5.73732	9.3761	0	
0.1033	-4.82398	8.16928	0	
0.1040	-2.0711	5.1058	0	
0.1047	-6.65066	2.6612	0	
0.1053	-18.5498	-3.74425	0	
0.1060	-26.4869	-9.84026	0	
0.1067	-27.7089	-10.4591	0	
0.1073	-23.1294	-10.1497	0	
0.1080	-12.1436	-9.23685	0	
0.1087	-0.84902	-3.12537	0	
0.1093	3.11307	-0.990215	0	
0.1100	2.50847	-5.26052	0	
0.1107	0.681789	-4.65711	0	
0.1113	0.0643197	-1.90307	0	
0.1120	1.891	-3.12537	0	
0.1127	2.50847	-3.74425	0	
0.1133	1.59513	-1.29966	0	
0.1140	1.28639	-0.990215	0	
0.1147	2.19973	-0.386803	0	
0.1153	2.19973	2.05779	0	
0.1160	-0.244415	1.45438	0	
0.1167	-5.42858	-0.0773606	0	
0.1173	-7.564	1.74835	0	
0.1180	-5.73732	2.6612	0	
0.1187	-5.73732	1.74835	0	
0.1193	-9.69941	1.74835	0	
0.1200	-9.39068	2.6612	0	
0.1207	-7.25526	1.14494	0	
0.1213	-14.5877	-1.6091	0	
0.1220	-26.4869	-0.990215	0	
0.1227	-24.3514	2.6612	0	
0.1233	-10.6128	2.6612	0	
0.1240	-2.0711	1.45438	0	
0.1247	1.59513	2.97065	0	
0.1253	6.17469	4.19294	0	
0.1260	6.47056	3.8835	0	
0.1267	3.73054	4.50238	0	
0.1273	6.17469	3.28009	0	
0.1280	8.00137	2.05779	0	
0.1287	4.33515	5.41524	0	
0.1293	-0.244415	8.16928	0	
0.1300	-3.29317	4.50238	0	
0.1307	-3.89778	0.835494	0	
0.1313	1.59513	1.14494	0	
0.1320	7.08803	0.232082	0	
0.1327	9.22345	-1.6091	0	
0.1333	12.2722	-0.990215	0	
0.1340	16.2343	-0.0773606	0	
0.1347	15.321	1.74835	0	
0.1353	8.91471	5.72468	0	
0.1360	1.59513	7.85983	0	
0.1367	0.373054	2.97065	0	
0.1373	4.33515	-1.90307	0	
0.1380	3.42181	0.835494	0	
0.1387	-3.89778	5.41524	0	
0.1393	-4.20651	3.58953	0	
0.1400	2.19973	-0.990215	0	
0.1407	2.19973	-1.90307	0	
0.1413	-5.73732	-0.0773606	0	
0.1420	-11.2302	0.835494	0	
0.1427	-9.39068	1.74835	0	
0.1433	-3.29317	1.74835	0	
0.1440	1.28639	-0.0773606	0	
0.1447	3.73054	-2.8314	0	
0.1453	6.7793	-2.8314	0	
0.1460	10.1368	-1.6091	0	
0.1467	12.5809	-2.52195	0	
0.1473	13.1855	-2.21251	0	
0.1480	11.6676	0.232082	0	
0.1487	12.5809	1.74835	0	
0.1493	15.321	1.14494	0	
0.1500	15.321	-0.0773606	0	
0.1507	12.8768	-1.6091	0	
0.1513	12.5809	-3.43481	0	
0.1520	14.7164	-4.65711	0	
0.1527	15.321	-4.03822	0	
0.1533	12.5809	-2.8314	0	
0.1540	9.22345	-0.990215	0	
0.1547	8.00137	-0.680773	0	
0.1553	6.17469	-1.6091	0	
0.1560	4.02641	-2.8314	0	
0.1567	2.50847	-2.52195	0	
0.1573	-0.244415	-0.990215	0	
0.1580	-4.82398	-0.0773606	0	
0.1587	-5.42858	0.526052	0	
0.1593	-5.73732	-0.0773606	0	
0.1600	-9.09481	-0.0773606	0	
0.1607	-9.39068	2.05779	0	
0.1613	-6.95939	2.6612	0	
0.1620	-6.95939	0.526052	0	
0.1627	-6.03319	-0.680773	0	
0.1633	-1.15775	-0.386803	0	
0.1640	2.50847	-1.6091	0	
0.1647	1.59513	-2.8314	0	
0.1653	-0.244415	-4.34766	0	
0.1660	-0.540286	-5.56996	0	
0.1667	-0.244415	-5.8794	0	
0.1673	0.97766	-5.56996	0	
0.1680	3.42181	-4.34766	0	
0.1687	7.69264	-2.52195	0	
0.1693	10.7414	-2.21251	0	
0.1700	11.9635	-3.43481	0	
0.1707	13.4943	-4.03822	0	
0.1713	15.9384	-5.56996	0	
0.1720	17.4564	-5.56996	0	
0.1727	12.2722	-2.8314	0	
0.1733	0.373054	-1.29966	0	
0.1740	-6.65066	-2.21251	0	
0.1747	-2.37983	-2.8314	0	
0.1753	-0.244415	-2.52195	0	
0.1760	-5.73732	-2.8314	0	
0.1767	-9.69941	-3.43481	0	
0.1773	-8.47734	-2.52195	0	
0.1780	-7.87273	-0.0773606	0	
0.1787	-11.2302	1.74835	0	
0.1793	-15.8098	0.835494	0	
0.1800	-17.3277	-0.990215	0	
0.1807	-12.4523	0.526052	0	
0.1813	-4.82398	3.58953	0	
0.1820	-3.89778	3.8835	0	
0.1827	-11.5261	-0.0773606	0	
0.1833	-17.3277	-2.21251	0	
0.1840	-12.1436	-1.29966	0	
0.1847	-4.20651	-3.43481	0	
0.1853	-2.0711	-9.23685	0	
0.1860	-2.98444	-9.84026	0	
0.1867	-5.73732	-4.03822	0	
0.1873	-8.1686	-1.90307	0	
0.1880	-2.98444	-2.8314	0	
0.1887	2.19973	-1.29966	0	
0.1893	1.28639	-1.90307	0	
0.1900	1.59513	-2.8314	0	
0.1907	4.33515	0.232082	0	
0.1913	3.42181	2.05779	0	
0.1920	2.50847	-0.386803	0	
0.1927	3.73054	-0.386803	0	
0.1933	2.50847	0.835494	0	
0.1940	0.681789	-0.0773606	0	
0.1947	1.59513	1.74835	0	
0.1953	0.97766	4.81183	0	
0.1960	-1.15775	2.6612	0	
0.1967	-2.0711	0.232082	0	
0.1973	-1.46649	1.14494	0	
0.1980	-2.0711	1.14494	0	
0.1987	-4.20651	-0.0773606	0	
0.1993	-5.73732	-0.990215	0	
0.2000	-5.11985	-2.8314	0	
0.2007	-4.51524	-1.6091	0	
0.2013	-5.42858	2.36723	0	
0.2020	-6.03319	2.36723	0	
0.2027	-5.73732	-0.386803	0	
0.2033	-5.42858	0.835494	0	
0.2040	-3.89778	2.97065	0	
0.2047	-1.46649	1.74835	0	
0.2053	1.28639	-0.0773606	0	
0.2060	2.8172	-0.680773	0	
0.2067	4.33515	-0.386803	0	
0.2073	8.31011	2.6612	0	
0.2080	13.803	4.50238	0	
0.2087	17.1605	1.74835	0	
0.2093	18.9872	-0.680773	0	
0.2100	22.3447	0.835494	0	
0.2107	22.9493	0.835494	0	
0.2113	15.6297	1.74835	0	
0.2120	4.95262	5.41524	0	
0.2127	1.59513	6.01865	0	
0.2133	3.42181	1.14494	0	
0.2140	1.28639	-1.90307	0	
0.2147	-2.0711	0.526052	0	
0.2153	-0.540286	3.58953	0	
0.2160	-2.6757	2.05779	0	
0.2167	-6.65066	-0.0773606	0	
0.2173	-4.20651	0.526052	0	
0.2180	-1.76236	0.526052	0	
0.2187	-4.20651	0.526052	0	
0.2193	-6.03319	2.6612	0	
0.2200	-5.73732	2.6612	0	
0.2207	-5.11985	-0.680773	0	
0.2213	-4.51524	0.835494	0	
0.2220	-3.89778	2.97065	0	
0.2227	-2.98444	0.835494	0	
0.2233	-1.15775	-0.0773606	0	
0.2240	-1.15775	1.14494	0	
0.2247	-0.244415	-0.990215	0	
0.2253	2.50847	-1.29966	0	
0.2260	1.59513	0.835494	0	
0.2267	0.681789	0.835494	0	
0.2273	4.33515	0.835494	0	
0.2280	6.7793	4.50238	0	
0.2287	7.3839	6.01865	0	
0.2293	11.0501	2.6612	0	
0.2300	13.4943	-0.0773606	0	
0.2307	11.0501	1.14494	0	
0.2313	9.82805	2.97065	0	
0.2320	7.08803	1.74835	0	
0.2327	1.28639	0.232082	0	
0.2333	-0.540286	0.232082	0	
0.2340	0.97766	-0.386803	0	
0.2347	-1.15775	-2.21251	0	
0.2353	-4.82398	-3.12537	0	
0.2360	-6.03319	-4.65711	0	
0.2367	-8.1686	-7.70511	0	
0.2373	-9.69941	-8.61797	0	
0.2380	-10.6128	-7.39567	0	
0.2387	-12.1436	-5.26052	0	
0.2393	-11.8348	-2.8314	0	
0.2400	-9.39068	-3.43481	0	
0.2407	-8.47734	-5.56996	0	
0.2413	-7.25526	-5.26052	0	
0.2420	-2.37983	-4.65711	0	
0.2427	-0.244415	-7.1017	0	
0.2433	-1.15775	-7.70511	0	
0.2440	-1.15775	-5.26052	0	
0.2447	0.0643197	-4.03822	0	
0.2453	0.0643197	-2.52195	0	
0.2460	-1.15775	1.74835	0	
0.2467	-2.0711	2.6612	0	
0.2473	-0.244415	2.05779	0	
0.2480	2.50847	5.41524	0	
0.2487	1.28639	12.7335	0	
0.2493	-3.29317	19.1545	0	
0.2500	-3.29317	19.7579	0	
0.2507	-1.15775	9.99498	0	
0.2513	-0.244415	-0.386803	0	
0.2520	0.373054	-1.29966	0	
0.2527	-1.76236	-0.0773606	0	
0.2533	-5.11985	-4.03822	0	
0.2540	-6.03319	-6.79226	0	
0.2547	-6.65066	-5.56996	0	
0.2553	-9.39068	-6.79226	0	
0.2560	-10.0081	-7.39567	0	
0.2567	-6.95939	-2.8314	0	
0.2573	-5.42858	0.835494	0	
0.2580	-7.25526	0.232082	0	
0.2587	-8.47734	2.36723	0	
0.2593	-6.95939	3.8835	0	
0.2600	-5.73732	-0.680773	0	
0.2607	-8.47734	-6.48282	0	
0.2613	-9.09481	-7.70511	0	
0.2620	-2.6757	-4.96655	0	
0.2627	1.59513	-1.6091	0	
0.2633	-1.15775	-0.990215	0	
0.2640	-2.37983	-0.0773606	0	
0.2647	-0.540286	2.97065	0	
0.2653	-1.46649	3.58953	0	
0.2660	-3.29317	0.835494	0	
0.2667	-1.76236	0.835494	0	
0.2673	-0.540286	2.05779	0	
0.2680	0.681789	1.45438	0	
0.2687	5.86596	0.835494	0	
0.2693	13.4943	0.835494	0	
0.2700	16.543	0.835494	0	
0.2707	15.321	0.835494	0	
0.2713	11.6676	0.526052	0	
0.2720	5.24849	-1.6091	0	
0.2727	0.97766	-2.8314	0	
0.2733	-0.540286	-2.8314	0	
0.2740	-1.76236	-3.12537	0	
0.2747	-2.98444	-3.74425	0	
0.2753	-2.0711	-4.65711	0	
0.2760	-1.46649	-3.74425	0	
0.2767	-2.98444	-0.990215	0	
0.2773	-3.89778	-0.0773606	0	
0.2780	-4.20651	0.232082	0	
0.2787	-5.73732	1.74835	0	
0.2793	-7.564	1.14494	0	
0.2800	-8.78607	-1.90307	0	
0.2807	-8.47734	-1.90307	0	
0.2813	-5.42858	-0.680773	0	
0.2820	-2.37983	-0.680773	0	
0.2827	-1.76236	-0.386803	0	
0.2833	-0.540286	-0.0773606	0	
0.2840	1.891	-0.680773	0	
0.2847	3.42181	-0.990215	0	
0.2853	2.50847	-0.990215	0	
0.2860	0.681789	-0.990215	0	
0.2867	-0.540286	-1.6091	0	
0.2873	-0.540286	-2.8314	0	
0.2880	-0.244415	-3.43481	0	
0.2887	2.19973	-2.8314	0	
0.2893	6.7793	-2.8314	0	
0.2900	8.60598	-2.52195	0	
0.2907	9.22345	-3.12537	0	
0.2913	12.5809	-5.26052	0	
0.2920	15.321	-6.18884	0	
0.2927	14.7164	-4.65711	0	
0.2933	16.2343	-4.65711	0	
0.2940	15.9384	-6.48282	0	
0.2947	8.00137	-6.48282	0	
0.2953	1.891	-4.65711	0	
0.2960	5.86596	-0.990215	0	
0.2967	7.08803	3.28009	0	
0.2973	-5.73732	7.24095	0	
0.2980	-18.5498	7.55039	0	
0.2987	-16.7231	1.74835	0	
0.2993	-11.5261	-4.65711	0	
0.3000	-13.6615	-5.56996	0	
0.3007	-15.5011	-2.8314	0	
0.3013	-11.2302	-1.6091	0	
0.3020	-9.39068	-0.990215	0	
0.3027	-12.7482	2.05779	0	
0.3033	-12.7482	2.97065	0	
0.3040	-10.3169	0.835494	0	
0.3047	-8.78607	0.835494	0	
0.3053	-5.73732	2.36723	0	
0.3060	-2.98444	0.835494	0	
0.3067	-2.37983	-1.29966	0	
0.3073	-1.15775	-0.990215	0	
0.3080	0.373054	-0.990215	0	
0.3087	1.891	0.835494	0	
0.3093	4.02641	2.97065	0	
0.3100	4.33515	-1.29966	0	
0.3107	5.55722	-7.39567	0	
0.3113	6.17469	-5.8794	0	
0.3120	-3.29317	-2.8314	0	
0.3127	-9.39068	-1.90307	0	
0.3133	6.17469	0.835494	0	
0.3140	18.6784	2.6612	0	
0.3147	5.86596	0.835494	0	
0.3153	-4.20651	1.14494	0	
0.3160	0.681789	2.6612	0	
0.3167	1.59513	-0.0773606	0	
0.3173	-2.0711	-3.74425	0	
0.3180	-2.37983	-2.21251	0	
0.3187	0.0643197	2.6612	0	
0.3193	9.51932	6.32809	0	
0.3200	17.1605	6.01865	0	
0.3207	6.7793	4.81183	0	
0.3213	-14.8836	5.41524	0	
0.3220	-32.2885	2.6612	0	
0.3227	-40.2127	-2.8314	0	
0.3233	-40.2127	-4.03822	0	
0.3240	-39.2993	0.835494	0	
0.3247	-32.8931	4.81183	0	
0.3253	-14.5877	4.50238	0	
0.3260	-3.89778	0.232082	0	
0.3267	-6.65066	-4.96655	0	
0.3273	2.50847	-6.79226	0	
0.3280	22.9493	-2.8314	0	
0.3287	34.5526	2.05779	0	
0.3293	40.0455	1.14494	0	
0.3300	32.713	-1.90307	0	
0.3307	5.24849	-1.29966	0	
0.3313	-13.0569	-0.0773606	0	
0.3320	-10.9215	-2.52195	0	
0.3327	-10.3169	-5.26052	0	
0.3333	-9.39068	-7.39567	0	
0.3340	-0.244415	-12.2849	0	
0.3347	1.59513	-17.174	0	
0.3353	-3.89778	-15.6423	0	
0.3360	-3.29317	-10.7531	0	
0.3367	-0.540286	-6.79226	0	
0.3373	1.59513	-2.21251	0	
0.3380	2.50847	0.835494	0	
0.3387	-3.89778	-1.29966	0	
0.3393	-10.3169	-2.21251	0	
0.3400	-3.6019	1.74835	0	
0.3407	5.24849	1.14494	0	
0.3413	2.50847	-1.29966	0	
0.3420	-7.25526	2.6612	0	
0.3427	-16.1057	6.32809	0	
0.3433	-18.5498	2.6612	0	
0.3440	-10.9215	-0.990215	0	
0.3447	0.681789	0.232082	0	
0.3453	6.17469	1.74835	0	
0.3460	7.08803	2.6612	0	
0.3467	8.00137	3.58953	0	
0.3473	10.4455	4.19294	0	
0.3480	13.4943	6.32809	0	
0.3487	18.3697	7.24095	0	
0.3493	25.3934	3.8835	0	
0.3500	29.973	1.74835	0	
0.3507	28.7509	4.19294	0	
0.3513	26.0109	6.32809	0	
0.3520	25.3934	5.1058	0	
0.3527	26.0109	5.41524	0	
0.3533	27.2201	6.32809	0	
0.3540	28.1463	6.01865	0	
0.3547	25.7022	5.41524	0	
0.3553	21.1226	4.50238	0	
0.3560	13.803	3.58953	0	
0.3567	5.24849	5.72468	0	
0.3573	2.8172	6.32809	0	
0.3580	8.91471	4.50238	0	
0.3587	14.4076	3.58953	0	
0.3593	14.4076	3.28009	0	
0.3600	11.6676	1.14494	0	
0.3607	10.1368	0.526052	0	
0.3613	8.60598	1.74835	0	
0.3620	5.24849	2.6612	0	
0.3627	3.42181	3.28009	0	
0.3633	7.3839	5.72468	0	
0.3640	14.0989	7.24095	0	
0.3647	18.3697	5.72468	0	
0.3653	18.9872	4.50238	0	
0.3660	15.0251	5.41524	0	
0.3667	8.31011	6.94698	0	
0.3673	4.33515	9.08213	0	
0.3680	2.8172	8.46325	0	
0.3687	3.42181	4.81183	0	
0.3693	3.42181	3.8835	0	
0.3700	2.50847	4.50238	0	
0.3707	2.50847	1.74835	0	
0.3713	-0.244415	-1.6091	0	
0.3720	-7.564	-2.8314	0	
0.3727	-7.564	-5.56996	0	
0.3733	-2.98444	-10.4591	0	
0.3740	-10.9215	-11.0626	0	
0.3747	-21.3027	-7.39567	0	
0.3753	-13.9702	-3.12537	0	
0.3760	-5.42858	-0.0773606	0	
0.3767	-13.9702	0.835494	0	
0.3773	-23.1294	1.14494	0	
0.3780	-24.0427	3.28009	0	
0.3787	-25.8694	4.81183	0	
0.3793	-25.5735	1.45438	0	
0.3800	-14.5877	-2.21251	0	
0.3807	-7.564	4.19294	0	
0.3813	-14.5877	14.5747	0	
0.3820	-18.5498	17.3133	0	
0.3827	-1.15775	15.797	0	
0.3833	21.7272	17.0193	0	
0.3840	17.4564	16.091	0	
0.3847	-8.47734	11.8207	0	
0.3853	-13.6615	9.08213	0	
0.3860	16.2343	7.55039	0	
0.3867	44.0076	1.74835	0	
0.3873	33.0217	-8.92741	0	
0.3880	0.97766	-17.468	0	
0.3887	-7.564	-15.9517	0	
0.3893	10.1368	-8.92741	0	
0.3900	20.8139	-1.6091	0	
0.3907	13.803	6.01865	0	
0.3913	7.08803	9.99498	0	
0.3920	1.891	9.68554	0	
0.3927	-3.6019	9.08213	0	
0.3933	0.0643197	7.24095	0	
0.3940	5.24849	2.05779	0	
0.3947	3.42181	1.14494	0	
0.3953	1.891	-0.0773606	0	
0.3960	1.891	-8.324	0	
0.3967	-3.29317	-16.5552	0	
0.3973	-7.564	-18.3809	0	
0.3980	-7.564	-17.468	0	
0.3987	-11.2302	-12.5943	0	
0.3993	-21.5986	-7.70511	0	
0.4000	-27.4002	-10.1497	0	
0.4007	-28.931	-14.1106	0	
0.4013	-34.4239	-16.5552	0	
0.4020	-28.6223	-18.3809	0	
0.4027	-0.84902	-15.6423	0	
0.4033	12.5809	-10.1497	0	
0.4040	-7.25526	-6.48282	0	
0.4047	-15.8098	-3.74425	0	
0.4053	1.891	-8.324	0	
0.4060	13.803	-18.0869	0	
0.4067	14.7164	-18.0869	0	
0.4073	8.60598	-13.1977	0	
0.4080	-10.0081	-11.6814	0	
0.4087	-24.0427	-7.39567	0	
0.4093	-27.0915	-7.39567	0	
0.4100	-36.2506	-18.6903	0	
0.4107	-40.5214	-22.0478	0	
0.4113	-26.7956	-14.7295	0	
0.4120	-16.1057	-12.2849	0	
0.4127	-7.564	-9.53082	0	
0.4133	14.4076	0.835494	0	
0.4140	31.1951	6.63754	0	
0.4147	25.7022	5.1058	0	
0.4153	11.6676	9.08213	0	
0.4160	0.0643197	11.2173	0	
0.4167	-12.7482	3.28009	0	
0.4173	-22.216	-2.52195	0	
0.4180	-13.9702	2.36723	0	
0.4187	7.08803	4.50238	0	
0.4193	11.3589	-1.90307	0	
0.4200	-9.69941	-4.03822	0	
0.4207	-32.2885	4.50238	0	
0.4213	-42.3481	11.5113	0	
0.4220	-40.2127	9.99498	0	
0.4227	-29.2269	9.3761	0	
0.4233	-17.6365	12.7335	0	
0.4240	-10.6128	12.7335	0	
0.4247	-5.42858	9.68554	0	
0.4253	-1.15775	7.85983	0	
0.4260	7.69264	7.55039	0	
0.4267	19.9005	8.16928	0	
0.4273	24.7888	10.9078	0	
0.4280	27.2201	14.2653	0	
0.4287	35.1572	14.5747	0	
0.4293	39.1321	11.8207	0	
0.4300	31.7997	5.72468	0	
0.4307	8.91471	1.74835	0	
0.4313	-27.7089	2.36723	0	
0.4320	-50.5939	2.6612	0	
0.4327	-43.2743	2.36723	0	
0.4333	-33.2018	4.50238	0	
0.4340	-29.8444	2.6612	0	
0.4347	-15.8098	-3.43481	0	
0.4353	-3.89778	-3.74425	0	
0.4360	-5.11985	3.28009	0	
0.4367	-3.6019	10.9078	0	
0.4373	0.681789	17.3133	0	
0.4380	-0.244415	19.7579	0	
0.4387	-2.98444	14.2653	0	
0.4393	-13.3656	6.32809	0	
0.4400	-23.1294	5.41524	0	
0.4407	-7.25526	11.5113	0	
0.4413	18.0738	10.5984	0	
0.4420	18.3697	-3.74425	0	
0.4427	2.50847	-19.6032	0	
0.4433	-8.1686	-24.4924	0	
0.4440	-13.9702	-22.3572	0	
0.4447	-13.6615	-17.7775	0	
0.4453	-8.78607	-12.5943	0	
0.4460	-9.69941	-10.4591	0	
0.4467	-11.5261	-8.01455	0	
0.4473	-5.73732	-1.29966	0	
0.4480	-0.244415	0.835494	0	
0.4487	-2.0711	-3.74425	0	
0.4493	-5.11985	-4.65711	0	
0.4500	-4.82398	-1.29966	0	
0.4507	-1.46649	0.526052	0	
0.4513	2.50847	0.232082	0	
0.4520	3.73054	-0.0773606	0	
0.4527	2.50847	-0.0773606	0	
0.4533	1.891	2.6612	0	
0.4540	3.42181	5.41524	0	
0.4547	2.19973	4.19294	0	
0.4553	-2.37983	1.74835	0	
0.4560	-2.98444	1.45438	0	
0.4567	-0.540286	2.6612	0	
0.4573	0.0643197	2.97065	0	
0.4580	3.42181	0.835494	0	
0.4587	10.1368	-2.21251	0	
0.4593	7.69264	-1.90307	0	
0.4600	-2.98444	0.526052	0	
0.4607	-5.11985	1.74835	0	
0.4613	2.50847	0.835494	0	
0.4620	7.69264	-0.680773	0	
0.4627	7.3839	-1.90307	0	
0.4633	8.00137	-1.90307	0	
0.4640	11.0501	-2.8314	0	
0.4647	11.6676	-3.12537	0	
0.4653	8.91471	-0.0773606	0	
0.4660	4.64388	2.6612	0	
0.4667	-1.15775	2.6612	0	
0.4673	-6.95939	3.58953	0	
0.4680	-9.39068	4.19294	0	
0.4687	-7.25526	0.835494	0	
0.4693	-3.6019	-3.74425	0	
0.4700	0.681789	-5.26052	0	
0.4707	6.47056	-5.26052	0	
0.4713	13.1855	-2.8314	0	
0.4720	17.1605	-0.990215	0	
0.4727	15.6297	-1.6091	0	
0.4733	11.6676	0.835494	0	
0.4740	9.82805	5.72468	0	
0.4747	14.4076	6.32809	0	
0.4753	22.3447	5.41524	0	
0.4760	21.1226	8.16928	0	
0.4767	10.7414	9.3761	0	
0.4773	0.681789	7.55039	0	
0.4780	-8.1686	6.01865	0	
0.4787	-19.4631	2.05779	0	
0.4793	-34.4239	-8.01455	0	
0.4800	-53.3468	-20.2221	0	
0.4807	-61.8884	-27.5404	0	
0.4813	-47.2364	-30.2944	0	
0.4820	-31.9798	-32.739	0	
0.4827	-37.4727	-34.8741	0	
0.4833	-42.3481	-31.8107	0	
0.4840	-23.734	-24.8018	0	
0.4847	4.33515	-21.7383	0	
0.4853	21.4313	-24.8018	0	
0.4860	26.3068	-26.6275	0	
0.4867	24.7888	-23.8889	0	
0.4873	19.5918	-20.8255	0	
0.4880	14.0989	-23.5795	0	
0.4887	10.4455	-25.7147	0	
0.4893	7.69264	-22.3572	0	
0.4900	4.95262	-20.2221	0	
0.4907	0.97766	-22.0478	0	
0.4913	-5.11985	-21.7383	0	
0.4920	-11.5261	-17.468	0	
0.4927	-13.0569	-12.8883	0	
0.4933	-8.47734	-11.9754	0	
0.4940	-6.65066	-17.174	0	
0.4947	-10.9215	-20.2221	0	
0.4953	-4.82398	-13.1977	0	
0.4960	15.321	-3.74425	0	
0.4967	25.3934	-2.8314	0	
0.4973	15.321	-8.324	0	
0.4980	3.73054	-12.5943	0	
0.4987	0.97766	-10.4591	0	
0.4993	2.8172	-4.65711	0	
0.5000	4.33515	-1.90307	0	
0.5007	3.42181	-1.90307	0	
0.5013	4.33515	1.74835	0	
0.5020	6.47056	7.85983	0	
0.5027	1.891	7.24095	0	
0.5033	-1.46649	5.1058	0	
0.5040	10.7414	11.2173	0	
0.5047	26.9242	17.0193	0	
0.5053	26.3068	15.4876	0	
0.5060	15.321	16.091	0	
0.5067	11.9635	20.0673	0	
0.5073	15.321	18.5356	0	
0.5080	13.803	16.7099	0	
0.5087	15.321	20.0673	0	
0.5093	31.1951	20.6707	0	
0.5100	45.2296	20.0673	0	
0.5107	38.2059	22.8059	0	
0.5113	25.3934	19.4484	0	
0.5120	17.4564	11.2173	0	
0.5127	3.73054	9.3761	0	
0.5133	-9.69941	11.5113	0	
0.5140	-7.564	12.7335	0	
0.5147	-2.37983	14.8687	0	
0.5153	-9.69941	12.4396	0	
0.5160	-15.8098	8.16928	0	
0.5167	-10.3169	12.1301	0	
0.5173	-2.98444	17.9322	0	
0.5180	-2.98444	19.7579	0	
0.5187	-10.0081	25.5599	0	
0.5193	-16.7231	29.5208	0	
0.5200	-17.3277	25.5599	0	
0.5207	-15.8098	23.7187	0	
0.5213	-13.6615	23.7187	0	
0.5220	-2.98444	15.4876	0	
0.5227	6.17469	12.4396	0	
0.5233	0.373054	19.4484	0	
0.5240	-4.20651	22.5119	0	
0.5247	7.08803	20.0673	0	
0.5253	16.543	20.0673	0	
0.5260	11.3589	17.6227	0	
0.5267	4.02641	13.3524	0	
0.5273	0.0643197	11.8207	0	
0.5280	-4.51524	11.5113	0	
0.5287	-5.11985	13.043	0	
0.5293	-2.6757	16.4004	0	
0.5300	-1.76236	15.4876	0	
0.5307	0.681789	13.6619	0	
0.5313	3.42181	16.7099	0	
0.5320	0.97766	17.3133	0	
0.5327	-2.98444	13.043	0	
0.5333	-3.6019	10.9078	0	
0.5340	-4.51524	11.5113	0	
0.5347	-5.73732	11.2173	0	
0.5353	-4.82398	10.5984	0	
0.5360	-5.11985	9.99498	0	
0.5367	-7.87273	9.99498	0	
0.5373	-10.9215	10.9078	0	
0.5380	-13.0569	9.99498	0	
0.5387	-13.6615	7.55039	0	
0.5393	-13.0569	6.63754	0	
0.5400	-13.0569	7.55039	0	
0.5407	-13.9702	7.85983	0	
0.5413	-13.0569	5.41524	0	
0.5420	-10.3169	1.45438	0	
0.5427	-9.39068	1.74835	0	
0.5433	-12.1436	4.50238	0	
0.5440	-14.279	3.58953	0	
0.5447	-10.0081	-1.29966	0	
0.5453	-5.11985	-4.65711	0	
0.5460	-5.11985	-6.48282	0	
0.5467	-5.73732	-5.56996	0	
0.5473	-3.89778	-2.8314	0	
0.5480	-0.84902	-3.12537	0	
0.5487	1.59513	-5.8794	0	
0.5493	2.50847	-6.48282	0	
0.5500	4.33515	-5.26052	0	
0.5507	8.31011	-6.48282	0	
0.5513	8.00137	-6.79226	0	
0.5520	4.33515	-6.48282	0	
0.5527	6.17469	-8.324	0	
0.5533	8.91471	-9.53082	0	
0.5540	6.7793	-8.61797	0	
0.5547	3.73054	-8.01455	0	
0.5553	4.33515	-8.324	0	
0.5560	6.17469	-8.01455	0	
0.5567	7.69264	-8.324	0	
0.5573	7.3839	-9.23685	0	
0.5580	4.33515	-8.61797	0	
0.5587	2.50847	-8.324	0	
0.5593	4.33515	-9.23685	0	
0.5600	5.24849	-11.0626	0	
0.5607	4.02641	-11.6814	0	
0.5613	5.24849	-9.23685	0	
0.5620	7.08803	-7.1017	0	
0.5627	8.00137	-8.324	0	
0.5633	13.1855	-8.61797	0	
0.5640	18.9872	-7.1017	0	
0.5647	16.2343	-8.61797	0	
0.5653	12.2722	-12.2849	0	
0.5660	15.321	-11.9754	0	
0.5667	18.9872	-9.84026	0	
0.5673	20.8139	-10.4591	0	
0.5680	18.9872	-13.8166	0	
0.5687	9.51932	-14.7295	0	
0.5693	2.50847	-12.2849	0	
0.5700	7.69264	-10.1497	0	
0.5707	13.4943	-9.23685	0	
0.5713	10.1368	-8.324	0	
0.5720	7.08803	-9.53082	0	
0.5727	9.82805	-10.7531	0	
0.5733	11.6676	-11.0626	0	
0.5740	8.91471	-12.8883	0	
0.5747	4.33515	-13.1977	0	
0.5753	3.73054	-9.23685	0	
0.5760	8.60598	-8.324	0	
0.5767	10.4455	-11.6814	0	
0.5773	6.17469	-9.23685	0	
0.5780	1.59513	-3.74425	0	
0.5787	-2.98444	-0.0773606	0	
0.5793	-7.87273	-0.0773606	0	
0.5800	-8.47734	-5.8794	0	
0.5807	-5.42858	-12.2849	0	
0.5813	-3.6019	-13.1977	0	
0.5820	-0.540286	-15.0389	0	
0.5827	1.59513	-17.7775	0	
0.5833	-0.84902	-11.9754	0	
0.5840	-2.0711	-4.65711	0	
0.5847	-0.84902	-3.74425	0	
0.5853	-1.76236	-3.74425	0	
0.5860	-2.98444	-4.65711	0	
0.5867	-1.76236	-8.61797	0	
0.5873	-0.84902	-8.324	0	
0.5880	0.97766	-6.48282	0	
0.5887	5.86596	-8.92741	0	
0.5893	8.00137	-9.53082	0	
0.5900	4.95262	-8.61797	0	
0.5907	3.11307	-10.1497	0	
0.5913	1.59513	-8.324	0	
0.5920	-2.98444	-4.34766	0	
0.5927	-1.76236	-5.26052	0	
0.5933	4.33515	-6.48282	0	
0.5940	5.55722	-4.34766	0	
0.5947	-0.84902	-3.12537	0	
0.5953	-9.09481	-0.990215	0	
0.5960	-12.4523	2.6612	0	
0.5967	-10.6128	3.58953	0	
0.5973	-10.3169	2.97065	0	
0.5980	-13.0569	4.50238	0	
0.5987	-14.5877	4.81183	0	
0.5993	-13.9702	2.05779	0	
0.6000	-14.279	-0.0773606	0	
0.6007	-13.9702	1.74835	0	
0.6013	-13.9702	4.50238	0	
0.6020	-17.3277	5.41524	0	
0.6027	-18.2411	5.41524	0	
0.6033	-12.7482	6.01865	0	
0.6040	-8.1686	5.41524	0	
0.6047	-8.1686	3.58953	0	
0.6053	-6.95939	1.74835	0	
0.6060	-3.89778	1.74835	0	
0.6067	-1.46649	2.6612	0	
0.6073	2.19973	1.45438	0	
0.6080	5.55722	-0.990215	0	
0.6087	3.42181	-0.990215	0	
0.6093	-0.84902	0.835494	0	
0.6100	-0.244415	3.58953	0	
0.6107	1.59513	6.01865	0	
0.6113	-2.6757	5.41524	0	
0.6120	-6.03319	2.6612	0	
0.6127	-2.37983	3.58953	0	
0.6133	1.59513	6.32809	0	
0.6140	0.373054	3.8835	0	
0.6147	-1.15775	0.232082	0	
0.6153	1.59513	0.835494	0	
0.6160	0.0643197	1.14494	0	
0.6167	-5.11985	-0.386803	0	
0.6173	-6.03319	-0.990215	0	
0.6180	-5.42858	-2.21251	0	
0.6187	-7.564	-3.74425	0	
0.6193	-9.39068	-2.52195	0	
0.6200	-8.47734	2.36723	0	
0.6207	-7.25526	4.19294	0	
0.6213	-6.95939	2.05779	0	
0.6220	-9.09481	3.28009	0	
0.6227	-13.3656	8.16928	0	
0.6233	-16.7231	8.16928	0	
0.6240	-18.5498	5.1058	0	
0.6247	-15.8098	2.6612	0	
0.6253	-6.65066	-2.52195	0	
0.6260	-0.244415	-6.18884	0	
0.6267	0.0643197	-3.43481	0	
0.6273	-1.46649	-2.8314	0	
0.6280	-1.15775	-6.48282	0	
0.6287	0.681789	-4.65711	0	
0.6293	2.50847	0.526052	0	
0.6300	4.33515	-0.386803	0	
0.6307	5.86596	-3.74425	0	
0.6313	4.64388	-2.8314	0	
0.6320	-0.244415	-0.0773606	0	
0.6327	-2.98444	1.74835	0	
0.6333	-0.540286	2.05779	0	
0.6340	0.373054	3.58953	0	
0.6347	-0.540286	4.50238	0	
0.6353	0.0643197	2.05779	0	
0.6360	1.59513	-0.990215	0	
0.6367	2.8172	0.526052	0	
0.6373	3.42181	1.74835	0	
0.6380	-1.46649	0.835494	0	
0.6387	-10.0081	2.05779	0	
0.6393	-13.3656	4.19294	0	
0.6400	-9.39068	2.36723	0	
0.6407	-5.73732	-0.0773606	0	
0.6413	-7.87273	0.232082	0	
0.6420	-7.564	1.14494	0	
0.6427	-3.6019	2.6612	0	
0.6433	-4.51524	5.41524	0	
0.6440	-6.65066	7.55039	0	
0.6447	-2.98444	9.3761	0	
0.6453	-2.0711	10.5984	0	
0.6460	-2.0711	7.24095	0	
0.6467	4.33515	3.58953	0	
0.6473	6.47056	4.50238	0	
0.6480	4.33515	4.19294	0	
0.6487	4.95262	-0.386803	0	
0.6493	-2.0711	-0.990215	0	
0.6500	-8.47734	0.835494	0	
0.6507	9.82805	-1.90307	0	
0.6513	29.0597	-5.8794	0	
0.6520	21.4313	-7.70511	0	
0.6527	10.4455	-9.23685	0	
0.6533	11.0501	-9.23685	0	
0.6540	9.51932	-7.1017	0	
0.6547	9.82805	-7.1017	0	
0.6553	14.4076	-6.48282	0	
0.6560	13.4943	-3.74425	0	
0.6567	10.7414	-2.52195	0	
0.6573	10.7414	-3.74425	0	
0.6580	5.24849	-2.8314	0	
0.6587	-1.15775	-0.0773606	0	
0.6593	-2.0711	0.835494	0	
0.6600	-0.540286	-0.0773606	0	
0.6607	-1.76236	0.835494	0	
0.6613	-5.42858	3.58953	0	
0.6620	-9.39068	4.19294	0	
0.6627	-11.8348	2.6612	0	
0.6633	-9.69941	0.232082	0	
0.6640	-4.82398	-2.8314	0	
0.6647	-3.89778	-4.03822	0	
0.6653	-2.37983	-4.03822	0	
0.6660	7.08803	-3.74425	0	
0.6667	9.82805	-2.21251	0	
0.6673	3.42181	1.45438	0	
0.6680	15.321	6.32809	0	
0.6687	38.8234	9.99498	0	
0.6693	35.4659	11.2173	0	
0.6700	12.5809	8.77269	0	
0.6707	3.42181	3.58953	0	
0.6713	4.64388	-2.21251	0	
0.6720	0.97766	-3.74425	0	
0.6727	-3.89778	-0.680773	0	
0.6733	-2.6757	-2.52195	0	
0.6740	3.42181	-9.23685	0	
0.6747	7.08803	-8.324	0	
0.6753	4.02641	-2.21251	0	
0.6760	0.681789	-1.90307	0	
0.6767	1.891	-1.6091	0	
0.6773	2.50847	1.45438	0	
0.6780	0.0643197	-0.386803	0	
0.6787	-1.15775	-4.65711	0	
0.6793	-2.98444	-1.90307	0	
0.6800	-5.11985	2.97065	0	
0.6807	-3.89778	5.1058	0	
0.6813	-0.84902	6.32809	0	
0.6820	-2.0711	6.32809	0	
0.6827	-3.89778	3.58953	0	
0.6833	-3.6019	1.74835	0	
0.6840	-4.51524	2.6612	0	
0.6847	-5.73732	3.28009	0	
0.6853	-3.29317	0.526052	0	
0.6860	0.681789	-3.43481	0	
0.6867	3.42181	-5.8794	0	
0.6873	6.17469	-9.23685	0	
0.6880	8.00137	-9.23685	0	
0.6887	13.4943	-2.52195	0	
0.6893	27.2201	2.36723	0	
0.6900	37.2926	-0.990215	0	
0.6907	33.6392	-2.52195	0	
0.6913	28.1463	1.14494	0	
0.6920	24.1714	0.835494	0	
0.6927	11.0501	-0.0773606	0	
0.6933	-2.98444	1.74835	0	
0.6940	-1.15775	0.835494	0	
0.6947	9.82805	-0.680773	0	
0.6953	17.1605	1.74835	0	
0.6960	17.7651	0.835494	0	
0.6967	11.0501	-3.12537	0	
0.6973	1.891	-0.386803	0	
0.6980	-0.540286	2.05779	0	
0.6987	0.373054	0.835494	0	
0.6993	-2.37983	4.81183	0	
0.7000	-3.89778	8.16928	0	
0.7007	-1.15775	4.50238	0	
0.7013	-1.76236	3.28009	0	
0.7020	-7.25526	7.24095	0	
0.7027	-12.1436	9.99498	0	
0.7033	-11.5261	12.7335	0	
0.7040	-8.78607	13.6619	0	
0.7047	-10.6128	9.99498	0	
0.7053	-13.6615	10.3044	0	
0.7060	-10.3169	12.1301	0	
0.7067	-4.82398	6.01865	0	
0.7073	-1.15775	-1.29966	0	
0.7080	3.42181	-1.90307	0	
0.7087	8.00137	-1.90307	0	
0.7093	8.91471	-2.8314	0	
0.7100	8.91471	-0.680773	0	
0.7107	8.91471	-0.0773606	0	
0.7113	6.47056	-0.990215	0	
0.7120	3.73054	1.14494	0	
0.7127	2.8172	4.81183	0	
0.7133	0.681789	4.50238	0	
0.7140	-4.82398	2.6612	0	
0.7147	-7.25526	1.74835	0	
0.7153	-4.82398	2.05779	0	
0.7160	-3.89778	2.97065	0	
0.7167	-6.34192	3.28009	0	
0.7173	-6.34192	1.74835	0	
0.7180	-4.82398	-0.0773606	0	
0.7187	-3.6019	0.232082	0	
0.7193	-1.46649	0.232082	0	
0.7200	-0.244415	-0.0773606	0	
0.7207	-0.540286	2.36723	0	
0.7213	-2.98444	4.81183	0	
0.7220	-4.82398	3.58953	0	
0.7227	1.891	3.28009	0	
0.7233	13.4943	5.41524	0	
0.7240	18.0738	4.50238	0	
0.7247	16.2343	4.50238	0	
0.7253	13.4943	6.32809	0	
0.7260	11.0501	3.28009	0	
0.7267	12.5809	2.36723	0	
0.7273	8.60598	8.16928	0	
0.7280	-6.65066	9.08213	0	
0.7287	-17.6365	4.50238	0	
0.7293	-19.4631	3.28009	0	
0.7300	-18.2411	1.74835	0	
0.7307	-6.03319	-1.29966	0	
0.7313	11.6676	2.05779	0	
0.7320	11.6676	5.41524	0	
0.7327	1.59513	0.835494	0	
0.7333	3.42181	-4.96655	0	
0.7340	9.82805	-6.18884	0	
0.7347	11.3589	-5.56996	0	
0.7353	10.4455	-1.29966	0	
0.7360	8.60598	3.8835	0	
0.7367	6.7793	3.58953	0	
0.7373	3.73054	2.05779	0	
0.7380	-4.82398	5.41524	0	
0.7387	-16.4144	8.46325	0	
0.7393	-20.6852	4.81183	0	
0.7400	-17.6365	-0.386803	0	
0.7407	-13.0569	-0.0773606	0	
0.7413	-10.3169	2.6612	0	
0.7420	-6.34192	0.835494	0	
0.7427	-0.244415	-3.43481	0	
0.7433	0.97766	-2.21251	0	
0.7440	-1.46649	0.526052	0	
0.7447	-0.244415	0.526052	0	
0.7453	0.0643197	1.74835	0	
0.7460	-3.29317	2.6612	0	
0.7467	-1.15775	0.232082	0	
0.7473	5.86596	-0.386803	0	
0.7480	7.69264	1.14494	0	
0.7487	6.17469	-0.680773	0	
0.7493	6.17469	-2.8314	0	
0.7500	4.33515	-0.0773606	0	
0.7507	-2.0711	3.58953	0	
0.7513	-8.47734	2.97065	0	
0.7520	-7.564	0.526052	0	
0.7527	-1.76236	-1.90307	0	
0.7533	-1.76236	-3.74425	0	
0.7540	-4.51524	-3.12537	0	
0.7547	-2.0711	-0.386803	0	
0.7553	0.681789	0.835494	0	
0.7560	6.17469	-0.0773606	0	
0.7567	19.2959	1.14494	0	
0.7573	18.9872	6.01865	0	
0.7580	-2.0711	9.08213	0	
0.7587	-17.3277	3.58953	0	
0.7593	-17.6365	-6.48282	0	
0.7600	-15.8098	-11.6814	0	
0.7607	-10.3169	-11.6814	0	
0.7613	-0.540286	-9.84026	0	
0.7620	2.50847	-6.18884	0	
0.7627	1.28639	-2.21251	0	
0.7633	1.59513	-1.29966	0	
0.7640	-2.6757	-2.8314	0	
0.7647	-7.564	-3.43481	0	
0.7653	-5.42858	-1.29966	0	
0.7660	-4.20651	1.14494	0	
0.7667	-7.25526	1.74835	0	
0.7673	-5.73732	-0.0773606	0	
0.7680	-2.0711	-1.90307	0	
0.7687	-6.03319	-2.8314	0	
0.7693	-10.3169	-3.74425	0	
0.7700	-4.51524	-3.74425	0	
0.7707	5.24849	-0.990215	0	
0.7713	7.08803	0.835494	0	
0.7720	1.891	-1.6091	0	
0.7727	2.19973	-3.74425	0	
0.7733	11.6676	-2.8314	0	
0.7740	18.6784	0.232082	0	
0.7747	12.5809	3.28009	0	
0.7753	-0.244415	4.50238	0	
0.7760	-11.2302	4.19294	0	
0.7767	-13.6615	5.41524	0	
0.7773	-11.2302	6.01865	0	
0.7780	-10.3169	4.19294	0	
0.7787	-10.9215	3.8835	0	
0.7793	-8.1686	3.28009	0	
0.7800	-5.11985	-0.680773	0	
0.7807	-6.34192	-1.90307	0	
0.7813	-11.2302	0.526052	0	
0.7820	-14.279	-1.29966	0	
0.7827	-13.0569	-7.39567	0	
0.7833	-10.9215	-11.6814	0	
0.7840	-10.3169	-9.53082	0	
0.7847	-6.65066	-7.1017	0	
0.7853	-1.46649	-10.4591	0	
0.7860	1.59513	-13.8166	0	
0.7867	2.50847	-9.23685	0	
0.7873	2.50847	-3.74425	0	
0.7880	-2.0711	-4.96655	0	
0.7887	-4.82398	-7.39567	0	
0.7893	1.59513	-8.324	0	
0.7900	10.7414	-9.23685	0	
0.7907	9.82805	-8.01455	0	
0.7913	1.59513	-3.74425	0	
0.7920	-2.98444	-0.386803	0	
0.7927	-0.84902	-0.386803	0	
0.7933	2.8172	-1.29966	0	
0.7940	5.24849	-2.21251	0	
0.7947	5.24849	-3.12537	0	
0.7953	4.33515	-2.8314	0	
0.7960	2.50847	-1.29966	0	
0.7967	0.681789	-0.680773	0	
0.7973	0.681789	-0.386803	0	
0.7980	1.891	-0.0773606	0	
0.7987	-1.15775	-0.386803	0	
0.7993	-7.25526	0.835494	0	
0.8000	-7.87273	2.05779	0	
0.8007	-5.42858	-0.0773606	0	
0.8013	-6.65066	-2.21251	0	
0.8020	-9.39068	-1.6091	0	
0.8027	-7.25526	-2.21251	0	
0.8033	-3.6019	-3.12537	0	
0.8040	-2.0711	-2.21251	0	
0.8047	-1.46649	-1.90307	0	
0.8053	-0.84902	-1.29966	0	
0.8060	0.373054	-0.0773606	0	
0.8067	1.59513	-3.43481	0	
0.8073	2.50847	-5.56996	0	
0.8080	2.50847	-1.29966	0	
0.8087	4.33515	0.835494	0	
0.8093	7.08803	-2.52195	0	
0.8100	8.00137	-0.990215	0	
0.8107	7.3839	2.05779	0	
0.8113	6.47056	1.14494	0	
0.8120	6.17469	-0.0773606	0	
0.8127	6.7793	-0.0773606	0	
0.8133	6.7793	-1.90307	0	
0.8140	5.24849	-2.21251	0	
0.8147	3.42181	-0.0773606	0	
0.8153	2.50847	1.74835	0	
0.8160	3.42181	2.36723	0	
0.8167	4.33515	4.50238	0	
0.8173	0.373054	6.01865	0	
0.8180	-7.564	2.97065	0	
0.8187	-15.5011	-4.03822	0	
0.8193	-18.5498	-7.70511	0	
0.8200	-13.0569	-3.74425	0	
0.8207	-5.73732	-1.29966	0	
0.8213	-3.89778	-4.34766	0	
0.8220	-2.98444	-6.48282	0	
0.8227	-0.244415	-4.34766	0	
0.8233	-0.84902	-0.990215	0	
0.8240	-2.98444	2.6612	0	
0.8247	-2.0711	2.6612	0	
0.8253	-1.76236	-1.29966	0	
0.8260	-0.244415	-1.90307	0	
0.8267	8.00137	2.36723	0	
0.8273	17.1605	3.28009	0	
0.8280	20.8139	-0.990215	0	
0.8287	21.7272	-4.03822	0	
0.8293	18.9872	-2.52195	0	
0.8300	11.0501	1.45438	0	
0.8307	8.31011	2.36723	0	
0.8313	5.55722	-0.0773606	0	
0.8320	-8.78607	-1.90307	0	
0.8327	-22.8206	-2.8314	0	
0.8333	-27.4002	-4.65711	0	
0.8340	-30.449	-4.96655	0	
0.8347	-23.1294	-1.90307	0	
0.8353	-2.0711	2.6612	0	
0.8360	6.7793	6.32809	0	
0.8367	-2.98444	7.24095	0	
0.8373	-10.0081	2.97065	0	
0.8380	-10.3169	-1.90307	0	
0.8387	-10.0081	-0.990215	0	
0.8393	-6.65066	2.6612	0	
0.8400	-5.11985	2.6612	0	
0.8407	-8.47734	-0.990215	0	
0.8413	-9.39068	-2.52195	0	
0.8420	-4.20651	-0.386803	0	
0.8427	3.11307	2.05779	0	
0.8433	7.08803	2.05779	0	
0.8440	4.33515	1.74835	0	
0.8447	-0.244415	2.36723	0	
0.8453	-0.244415	1.14494	0	
0.8460	-2.0711	-0.0773606	0	
0.8467	-6.95939	1.45438	0	
0.8473	-4.51524	0.835494	0	
0.8480	2.50847	-2.52195	0	
0.8487	4.95262	-1.90307	0	
0.8493	6.7793	0.232082	0	
0.8500	4.64388	-2.8314	0	
0.8507	-5.42858	-4.34766	0	
0.8513	-9.09481	-1.6091	0	
0.8520	-0.244415	0.835494	0	
0.8527	8.60598	0.526052	0	
0.8533	18.0738	0.835494	0	
0.8540	27.2201	2.6612	0	
0.8547	22.6534	4.19294	0	
0.8553	11.3589	1.74835	0	
0.8560	6.7793	-0.680773	0	
0.8567	0.681789	0.835494	0	
0.8573	-7.25526	2.6612	0	
0.8580	-9.39068	2.97065	0	
0.8587	-11.5261	3.58953	0	
0.8593	-13.0569	2.05779	0	
0.8600	-6.65066	-1.6091	0	
0.8607	0.0643197	-1.6091	0	
0.8613	1.59513	-0.386803	0	
0.8620	-2.37983	-2.52195	0	
0.8627	-11.2302	-1.6091	0	
0.8633	-17.3277	2.6612	0	
0.8640	-21.3027	1.74835	0	
0.8647	-27.7089	-0.990215	0	
0.8653	-23.1294	1.14494	0	
0.8660	-3.89778	3.28009	0	
0.8667	6.7793	1.14494	0	
0.8673	4.95262	-0.386803	0	
0.8680	5.24849	0.835494	0	
0.8687	4.95262	2.6612	0	
0.8693	-0.244415	4.50238	0	
0.8700	-1.15775	4.50238	0	
0.8707	4.02641	1.74835	0	
0.8713	7.3839	-3.12537	0	
0.8720	7.3839	-6.48282	0	
0.8727	3.11307	-6.79226	0	
0.8733	-3.29317	-4.96655	0	
0.8740	-5.73732	-4.03822	0	
0.8747	-3.6019	-3.74425	0	
0.8753	-3.29317	-0.990215	0	
0.8760	-4.51524	1.45438	0	
0.8767	-3.29317	0.526052	0	
0.8773	-2.0711	-1.29966	0	
0.8780	-3.6019	-1.90307	0	
0.8787	-4.20651	0.835494	0	
0.8793	-2.0711	3.8835	0	
0.8800	0.681789	5.1058	0	
0.8807	1.59513	3.8835	0	
0.8813	2.19973	2.6612	0	
0.8820	3.42181	0.526052	0	
0.8827	3.42181	-1.90307	0	
0.8833	-0.244415	-1.29966	0	
0.8840	-2.98444	1.74835	0	
0.8847	-2.0711	1.74835	0	
0.8853	-2.0711	-2.8314	0	
0.8860	-2.0711	-8.01455	0	
0.8867	2.50847	-9.53082	0	
0.8873	6.17469	-7.39567	0	
0.8880	6.47056	-4.03822	0	
0.8887	8.91471	-2.21251	0	
0.8893	11.6676	-1.90307	0	
0.8900	10.7414	-0.990215	0	
0.8907	11.0501	-0.680773	0	
0.8913	12.5809	-1.90307	0	
0.8920	8.91471	-1.90307	0	
0.8927	6.17469	-0.680773	0	
0.8933	8.00137	-1.6091	0	
0.8940	7.69264	-1.90307	0	
0.8947	4.02641	-0.0773606	0	
0.8953	0.681789	0.526052	0	
0.8960	-1.15775	0.835494	0	
0.8967	-1.76236	1.14494	0	
0.8973	-2.0711	0.526052	0	
0.8980	-2.98444	1.45438	0	
0.8987	-2.98444	5.72468	0	
0.8993	-2.37983	9.3761	0	
0.9000	-6.34192	10.3044	0	
0.9007	-12.1436	7.24095	0	
0.9013	-13.3656	-0.680773	0	
0.9020	-12.1436	-7.39567	0	
0.9027	-12.7482	-5.8794	0	
0.9033	-13.9702	-1.90307	0	
0.9040	-9.39068	-0.386803	0	
0.9047	-2.37983	0.835494	0	
0.9053	-1.76236	1.45438	0	
0.9060	-6.65066	-1.90307	0	
0.9067	-6.03319	-4.65711	0	
0.9073	-0.244415	-3.74425	0	
0.9080	3.11307	-2.52195	0	
0.9087	3.42181	-2.8314	0	
0.9093	3.73054	-0.0773606	0	
0.9100	3.11307	2.36723	0	
0.9107	3.42181	3.58953	0	
0.9113	4.64388	4.50238	0	
0.9120	1.891	2.6612	0	
0.9127	-3.89778	-1.6091	0	
0.9133	-3.89778	-1.90307	0	
0.9140	-0.540286	-0.680773	0	
0.9147	-4.82398	-2.21251	0	
0.9153	-11.2302	-3.43481	0	
0.9160	-3.89778	-1.29966	0	
0.9167	10.7414	0.526052	0	
0.9173	12.5809	1.14494	0	
0.9180	0.681789	1.74835	0	
0.9187	-6.65066	2.05779	0	
0.9193	-5.42858	2.6612	0	
0.9200	-4.82398	2.05779	0	
0.9207	-6.95939	-0.0773606	0	
0.9213	-8.47734	1.45438	0	
0.9220	-8.47734	2.6612	0	
0.9227	-6.03319	-1.29966	0	
0.9233	1.59513	-2.8314	0	
0.9240	7.08803	1.74835	0	
0.9247	5.24849	2.6612	0	
0.9253	1.59513	-1.29966	0	
0.9260	2.19973	-3.74425	0	
0.9267	0.97766	-3.43481	0	
0.9273	-1.76236	-1.6091	0	
0.9280	1.59513	-0.386803	0	
0.9287	4.33515	-2.52195	0	
0.9293	2.19973	-3.74425	0	
0.9300	2.50847	-1.90307	0	
0.9307	6.7793	-0.0773606	0	
0.9313	7.08803	-0.680773	0	
0.9320	3.73054	-0.386803	0	
0.9327	2.19973	0.835494	0	
0.9333	-0.244415	1.14494	0	
0.9340	-2.98444	1.74835	0	
0.9347	-3.89778	1.45438	0	
0.9353	-4.51524	-0.386803	0	
0.9360	-4.82398	-0.386803	0	
0.9367	-4.20651	3.28009	0	
0.9373	-2.98444	5.1058	0	
0.9380	-1.15775	4.19294	0	
0.9387	-0.244415	3.58953	0	
0.9393	-2.0711	1.45438	0	
0.9400	-1.15775	-1.29966	0	
0.9407	2.8172	-0.990215	0	
0.9413	3.42181	-1.29966	0	
0.9420	-0.540286	-3.74425	0	
0.9427	-5.11985	-3.12537	0	
0.9433	-7.564	-1.6091	0	
0.9440	-5.42858	-2.8314	0	
0.9447	-2.37983	-2.21251	0	
0.9453	-2.37983	-2.8314	0	
0.9460	-1.15775	-4.65711	0	
0.9467	2.8172	-2.8314	0	
0.9473	4.33515	-0.386803	0	
0.9480	2.50847	-0.990215	0	
0.9487	3.42181	-1.29966	0	
0.9493	7.08803	-1.6091	0	
0.9500	10.7414	-3.12537	0	
0.9507	10.4455	-2.8314	0	
0.9513	7.08803	-3.12537	0	
0.9520	6.17469	-4.96655	0	
0.9527	6.17469	-3.74425	0	
0.9533	2.50847	-2.21251	0	
0.9540	-0.244415	-2.8314	0	
0.9547	3.42181	0.232082	0	
0.9553	7.3839	0.526052	0	
0.9560	7.08803	-6.18884	0	
0.9567	4.33515	-7.1017	0	
0.9573	0.373054	0.232082	0	
0.9580	-4.20651	2.36723	0	
0.9587	-6.65066	-0.990215	0	
0.9593	-8.1686	-2.21251	0	
0.9600	-8.78607	-1.90307	0	
0.9607	-8.47734	-1.6091	0	
0.9613	-8.47734	-0.0773606	0	
0.9620	-6.95939	-0.0773606	0	
0.9627	-4.82398	-0.990215	0	
0.9633	-5.11985	-0.0773606	0	
0.9640	-5.11985	1.14494	0	
0.9647	-1.15775	0.232082	0	
0.9653	1.59513	-1.90307	0	
0.9660	0.0643197	-1.29966	0	
0.9667	-0.84902	2.05779	0	
0.9673	1.59513	3.58953	0	
0.9680	5.24849	1.45438	0	
0.9687	8.00137	-0.386803	0	
0.9693	8.60598	-0.990215	0	
0.9700	8.00137	-2.21251	0	
0.9707	5.55722	-0.680773	0	
0.9713	3.73054	4.19294	0	
0.9720	3.73054	4.19294	0	
0.9727	3.11307	1.45438	0	
0.9733	1.891	3.28009	0	
0.9740	1.59513	4.50238	0	
0.9747	-2.37983	0.835494	0	
0.9753	-5.73732	-0.0773606	0	
0.9760	3.42181	2.05779	0	
0.9767	11.3589	-0.990215	0	
0.9773	2.19973	-4.96655	0	
0.9780	-6.34192	-4.03822	0	
0.9787	-0.244415	-3.74425	0	
0.9793	1.59513	-3.12537	0	
0.9800	-6.34192	2.36723	0	
0.9807	-5.73732	5.72468	0	
0.9813	-0.84902	2.36723	0	
0.9820	-8.47734	0.526052	0	
0.9827	-19.4631	2.6612	0	
0.9833	-21.3027	2.36723	0	
0.9840	-17.3277	-0.680773	0	
0.9847	-11.2302	-0.990215	0	
0.9853	-8.47734	0.232082	0	
0.9860	-11.2302	-0.0773606	0	
0.9867	-2.98444	-1.90307	0	
0.9873	18.9872	-0.990215	0	
0.9880	26.0109	2.05779	0	
0.9887	13.4943	0.835494	0	
0.9893	7.3839	-2.52195	0	
0.9900	9.82805	-1.29966	0	
0.9907	8.91471	0.835494	0	
0.9913	8.91471	-1.90307	0	
0.9920	13.803	-4.65711	0	
0.9927	15.9384	-0.990215	0	
0.9933	13.803	3.28009	0	
0.9940	11.0501	0.835494	0	
0.9947	8.91471	-2.21251	0	
0.9953	7.69264	-0.680773	0	
0.9960	4.33515	-3.43481	0	
0.9967	-1.15775	-11.9754	0	
0.9973	-6.65066	-12.8883	0	
0.9980	-8.47734	-5.26052	0	
0.9987	-7.564	-0.680773	0	
0.9993	-6.34192	-0.0773606	0	
1.0000	-6.65066	1.74835	0	
1.0007	-8.1686	1.45438	0	
1.0013	-8.78607	-0.680773	0	
1.0020	-6.95939	-1.6091	0	
1.0027	-4.51524	-0.990215	0	
1.0033	-6.03319	0.526052	0	
1.0040	-10.3169	2.05779	0	
1.0047	-10.3169	0.232082	0	
1.0053	-6.03319	-2.21251	0	
1.0060	-2.0711	-0.680773	0	
1.0067	-0.84902	-0.0773606	0	
1.0073	-0.84902	-3.43481	0	
1.0080	4.33515	-2.8314	0	
1.0087	11.6676	1.74835	0	
1.0093	11.9635	0.526052	0	
1.0100	10.7414	-2.21251	0	
1.0107	14.4076	-0.0773606	0	
1.0113	12.2722	0.835494	0	
1.0120	2.50847	-2.52195	0	
1.0127	-4.51524	-2.8314	0	
1.0133	-7.564	-0.990215	0	
1.0140	-11.2302	-1.90307	0	
1.0147	-14.8836	-1.90307	0	
1.0153	-15.1923	1.45438	0	
1.0160	-12.7482	3.58953	0	
1.0167	-13.9702	2.6612	0	
1.0173	-17.6365	-0.990215	0	
1.0180	-7.25526	-0.990215	0	
1.0187	9.51932	4.81183	0	
1.0193	6.17469	6.01865	0	
1.0200	-7.25526	1.74835	0	
1.0207	-8.1686	1.45438	0	
1.0213	-5.42858	2.05779	0	
1.0220	-5.73732	0.835494	0	
1.0227	-2.98444	0.232082	0	
1.0233	-0.540286	-1.29966	0	
1.0240	-1.76236	-1.6091	0	
1.0247	0.681789	3.28009	0	
1.0253	6.17469	4.81183	0	
1.0260	11.3589	0.232082	0	
1.0267	11.9635	-2.52195	0	
1.0273	6.17469	-1.90307	0	
1.0280	2.50847	-1.6091	0	
1.0287	4.02641	1.74835	0	
1.0293	4.33515	7.24095	0	
1.0300	3.73054	6.94698	0	
1.0307	2.50847	0.835494	0	
1.0313	-0.540286	-2.52195	0	
1.0320	3.73054	-0.0773606	0	
1.0327	15.321	0.835494	0	
1.0333	13.803	-1.6091	0	
1.0340	2.8172	-6.48282	0	
1.0347	0.373054	-12.5943	0	
1.0353	0.681789	-12.2849	0	
1.0360	-3.89778	-4.96655	0	
1.0367	-6.65066	-2.8314	0	
1.0373	-6.65066	-4.34766	0	
1.0380	-6.95939	-0.990215	0	
1.0387	-5.73732	1.74835	0	
1.0393	-4.51524	-0.990215	0	
1.0400	-5.42858	-0.990215	0	
1.0407	-7.564	0.835494	0	
1.0413	-9.39068	-1.29966	0	
1.0420	-10.3169	-1.90307	0	
1.0427	-9.09481	-0.0773606	0	
1.0433	-6.65066	-0.386803	0	
1.0440	-1.76236	0.526052	0	
1.0447	3.42181	2.6612	0	
1.0453	3.42181	0.232082	0	
1.0460	0.373054	-0.680773	0	
1.0467	0.373054	3.8835	0	
1.0473	2.50847	3.58953	0	
1.0480	4.95262	-2.8314	0	
1.0487	7.3839	-5.26052	0	
1.0493	10.7414	-2.8314	0	
1.0500	16.2343	-2.21251	0	
1.0507	21.1226	-2.8314	0	
1.0513	18.9872	-3.12537	0	
1.0520	14.0989	-3.74425	0	
1.0527	13.4943	-4.03822	0	
1.0533	10.4455	-2.52195	0	
1.0540	5.24849	-0.680773	0	
1.0547	3.11307	-0.0773606	0	
1.0553	-5.73732	0.526052	0	
1.0560	-21.5986	0.526052	0	
1.0567	-27.4002	-1.29966	0	
1.0573	-28.0048	-3.74425	0	
1.0580	-31.3623	-2.21251	0	
1.0587	-25.5735	0.835494	0	
1.0593	-17.6365	-0.990215	0	
1.0600	-18.8585	-3.12537	0	
1.0607	-8.78607	-0.990215	0	
1.0613	11.0501	1.45438	0	
1.0620	9.22345	0.835494	0	
1.0627	-7.25526	2.05779	0	
1.0633	-9.69941	2.97065	0	
1.0640	-4.51524	3.28009	0	
1.0647	-2.6757	6.32809	0	
1.0653	2.50847	8.77269	0	
1.0660	8.00137	6.94698	0	
1.0667	8.00137	4.50238	0	
1.0673	7.3839	5.41524	0	
1.0680	8.91471	5.1058	0	
1.0687	8.60598	1.45438	0	
1.0693	7.69264	-0.0773606	0	
1.0700	7.3839	0.835494	0	
1.0707	6.17469	-3.74425	0	
1.0713	5.24849	-10.4591	0	
1.0720	6.7793	-10.7531	0	
1.0727	9.51932	-6.48282	0	
1.0733	9.82805	-4.96655	0	
1.0740	8.00137	-4.03822	0	
1.0747	3.73054	-1.6091	0	
1.0753	-1.15775	-0.386803	0	
1.0760	-2.37983	-0.990215	0	
1.0767	2.50847	-0.386803	0	
1.0773	6.47056	-0.0773606	0	
1.0780	4.64388	-1.29966	0	
1.0787	0.681789	-1.90307	0	
1.0793	-2.37983	-1.6091	0	
1.0800	-6.34192	0.835494	0	
1.0807	-11.8348	3.58953	0	
1.0813	-12.1436	3.28009	0	
1.0820	-5.11985	0.835494	0	
1.0827	1.59513	0.526052	0	
1.0833	3.73054	0.835494	0	
1.0840	5.86596	-1.6091	0	
1.0847	7.08803	-1.6091	0	
1.0853	7.08803	0.835494	0	
1.0860	8.00137	1.74835	0	
1.0867	6.47056	1.74835	0	
1.0873	1.891	3.8835	0	
1.0880	-0.540286	5.41524	0	
1.0887	-1.15775	3.58953	0	
1.0893	-2.98444	1.74835	0	
1.0900	-0.540286	0.232082	0	
1.0907	4.95262	-0.990215	0	
1.0913	3.42181	0.526052	0	
1.0920	0.681789	1.74835	0	
1.0927	3.42181	-0.386803	0	
1.0933	3.73054	-1.90307	0	
1.0940	-1.46649	-0.386803	0	
1.0947	-0.84902	0.835494	0	
1.0953	0.681789	1.74835	0	
1.0960	-4.20651	2.6612	0	
1.0967	-5.73732	1.14494	0	
1.0973	-3.6019	-0.0773606	0	
1.0980	-7.564	3.8835	0	
1.0987	-10.0081	6.32809	0	
1.0993	-8.1686	3.58953	0	
1.1000	-8.47734	2.36723	0	
1.1007	-8.47734	5.1058	0	
1.1013	-9.69941	6.63754	0	
1.1020	-12.7482	3.58953	0	
1.1027	-8.1686	-2.8314	0	
1.1033	-4.82398	-7.1017	0	
1.1040	-9.39068	-7.1017	0	
1.1047	1.28639	-4.65711	0	
1.1053	19.9005	-1.29966	0	
1.1060	16.2343	1.74835	0	
1.1067	4.95262	1.14494	0	
1.1073	9.82805	-0.990215	0	
1.1080	15.0251	-1.90307	0	
1.1087	10.7414	-1.6091	0	
1.1093	7.08803	1.74835	0	
1.1100	5.55722	5.1058	0	
1.1107	5.55722	5.41524	0	
1.1113	8.60598	5.41524	0	
1.1120	9.82805	2.6612	0	
1.1127	8.31011	-2.8314	0	
1.1133	6.47056	-3.43481	0	
1.1140	4.95262	-1.90307	0	
1.1147	5.86596	-4.65711	0	
1.1153	4.02641	-5.56996	0	
1.1160	-5.73732	-3.74425	0	
1.1167	-10.9215	-3.43481	0	
1.1173	-6.03319	-1.6091	0	
1.1180	-3.89778	0.835494	0	
1.1187	-6.03319	-1.6091	0	
1.1193	-4.51524	-2.8314	0	
1.1200	-4.82398	-0.0773606	0	
1.1207	-7.564	1.45438	0	
1.1213	-4.51524	1.74835	0	
1.1220	-0.244415	0.835494	0	
1.1227	-3.89778	-0.990215	0	
1.1233	-9.39068	-1.29966	0	
1.1240	-12.1436	-1.90307	0	
1.1247	-13.0569	-2.8314	0	
1.1253	-10.9215	1.14494	0	
1.1260	-3.29317	3.58953	0	
1.1267	4.02641	-0.990215	0	
1.1273	5.55722	-5.56996	0	
1.1280	2.19973	-7.39567	0	
1.1287	3.73054	-6.79226	0	
1.1293	15.321	-3.74425	0	
1.1300	23.5667	-1.90307	0	
1.1307	24.4801	-1.6091	0	
1.1313	22.6534	1.74835	0	
1.1320	15.321	0.835494	0	
1.1327	11.9635	-6.18884	0	
1.1333	23.5667	-4.34766	0	
1.1340	23.5667	7.24095	0	
1.1347	-4.51524	8.16928	0	
1.1353	-29.8444	-3.43481	0	
1.1360	-38.0773	-9.84026	0	
1.1367	-42.0522	-6.79226	0	
1.1373	-31.3623	-4.65711	0	
1.1380	-8.1686	-5.26052	0	
1.1387	-2.37983	-1.90307	0	
1.1393	-14.5877	2.36723	0	
1.1400	-18.5498	0.526052	0	
1.1407	-13.6615	-2.52195	0	
1.1413	-12.7482	0.232082	0	
1.1420	-17.6365	2.97065	0	
1.1427	-19.4631	0.526052	0	
1.1433	-6.65066	-1.6091	0	
1.1440	10.4455	-0.0773606	0	
1.1447	11.6676	0.232082	0	
1.1453	4.33515	-0.0773606	0	
1.1460	2.50847	2.05779	0	
1.1467	2.19973	6.32809	0	
1.1473	0.373054	6.01865	0	
1.1480	0.97766	-1.6091	0	
1.1487	2.19973	-6.48282	0	
1.1493	3.73054	-3.74425	0	
1.1500	7.08803	-1.90307	0	
1.1507	7.3839	-3.43481	0	
1.1513	5.55722	-3.12537	0	
1.1520	5.55722	-2.52195	0	
1.1527	8.00137	-4.65711	0	
1.1533	11.3589	-6.79226	0	
1.1540	13.1855	-6.48282	0	
1.1547	10.7414	-4.03822	0	
1.1553	8.31011	-0.990215	0	
1.1560	7.3839	0.232082	0	
1.1567	3.42181	0.835494	0	
1.1573	-5.42858	3.28009	0	
1.1580	-12.4523	3.58953	0	
1.1587	-13.3656	0.835494	0	
1.1593	-11.5261	0.835494	0	
1.1600	-10.3169	1.74835	0	
1.1607	-6.65066	2.05779	0	
1.1613	-2.98444	2.6612	0	
1.1620	-5.42858	4.19294	0	
1.1627	-7.564	3.58953	0	
1.1633	-1.46649	0.835494	0	
1.1640	3.73054	-2.21251	0	
1.1647	-0.244415	-1.6091	0	
1.1653	-10.0081	1.45438	0	
1.1660	-15.1923	2.6612	0	
1.1667	-11.8348	4.50238	0	
1.1673	-3.6019	5.41524	0	
1.1680	-0.244415	3.58953	0	
1.1687	-3.89778	2.6612	0	
1.1693	-4.51524	-0.386803	0	
1.1700	1.59513	-8.92741	0	
1.1707	5.24849	-13.1977	0	
1.1713	4.33515	-8.01455	0	
1.1720	3.42181	-3.12537	0	
1.1727	3.42181	-1.6091	0	
1.1733	1.59513	-0.0773606	0	
1.1740	0.0643197	0.526052	0	
1.1747	-0.244415	2.05779	0	
1.1753	-1.15775	3.28009	0	
1.1760	-2.37983	-0.386803	0	
1.1767	-3.29317	-2.8314	0	
1.1773	-5.11985	-0.0773606	0	
1.1780	-6.65066	1.14494	0	
1.1787	-6.65066	0.232082	0	
1.1793	-6.65066	2.36723	0	
1.1800	-6.34192	3.58953	0	
1.1807	-4.51524	1.74835	0	
1.1813	-3.89778	1.74835	0	
1.1820	-3.89778	1.74835	0	
1.1827	-1.15775	0.232082	0	
1.1833	2.19973	1.14494	0	
1.1840	2.8172	3.58953	0	
1.1847	3.42181	2.6612	0	
1.1853	5.24849	0.835494	0	
1.1860	6.17469	1.14494	0	
1.1867	4.33515	1.45438	0	
1.1873	3.11307	-0.0773606	0	
1.1880	4.64388	-0.990215	0	
1.1887	7.3839	-0.0773606	0	
1.1893	7.69264	2.36723	0	
1.1900	6.17469	2.05779	0	
1.1907	5.55722	-1.6091	0	
1.1913	5.86596	-1.90307	0	
1.1920	6.47056	1.74835	0	
1.1927	8.60598	-0.0773606	0	
1.1933	8.91471	-3.43481	0	
1.1940	4.33515	-0.990215	0	
1.1947	-1.15775	-0.680773	0	
1.1953	-2.6757	-3.74425	0	
1.1960	-0.84902	-1.6091	0	
1.1967	0.373054	1.74835	0	
1.1973	-0.84902	-1.29966	0	
1.1980	-2.98444	-3.43481	0	
1.1987	-4.20651	-1.29966	0	
1.1993	-4.82398	-0.0773606	0	
1.2000	-3.89778	1.14494	0	
1.2007	0.97766	1.14494	0	
1.2013	4.02641	-1.90307	0	
1.2020	-3.6019	-2.21251	0	
1.2027	-13.0569	0.835494	0	
1.2033	-9.69941	2.05779	0	
1.2040	-2.0711	1.14494	0	
1.2047	-2.0711	2.05779	0	
1.2053	-3.89778	1.74835	0	
1.2060	-1.76236	-0.990215	0	
1.2067	-0.244415	-1.29966	0	
1.2073	-0.84902	0.526052	0	
1.2080	2.50847	0.232082	0	
1.2087	6.7793	-0.990215	0	
1.2093	6.7793	-0.990215	0	
1.2100	5.24849	-0.0773606	0	
1.2107	7.08803	1.74835	0	
1.2113	8.91471	2.6612	0	
1.2120	6.17469	0.526052	0	
1.2127	2.50847	-1.90307	0	
1.2133	1.28639	-1.90307	0	
1.2140	0.681789	-0.386803	0	
1.2147	0.373054	-0.0773606	0	
1.2153	0.0643197	-0.0773606	0	
1.2160	0.681789	0.232082	0	
1.2167	0.97766	-0.386803	0	
1.2173	-0.244415	-0.0773606	0	
1.2180	-3.89778	-0.0773606	0	
1.2187	-8.1686	-0.990215	0	
1.2193	-9.39068	-0.990215	0	
1.2200	-7.564	0.526052	0	
1.2207	-7.564	0.835494	0	
1.2213	-8.47734	-0.680773	0	
1.2220	-9.39068	-0.990215	0	
1.2227	-9.69941	-0.0773606	0	
1.2233	-7.564	-0.0773606	0	
1.2240	-4.82398	-0.386803	0	
1.2247	-4.82398	-0.0773606	0	
1.2253	-5.11985	0.526052	0	
1.2260	-3.89778	-0.990215	0	
1.2267	-3.6019	-2.21251	0	
1.2273	-0.84902	-0.990215	0	
1.2280	4.33515	-0.990215	0	
1.2287	7.08803	-2.8314	0	
1.2293	6.47056	-2.21251	0	
1.2300	5.55722	-1.6091	0	
1.2307	4.95262	-2.21251	0	
1.2313	6.17469	-1.90307	0	
1.2320	5.86596	-0.680773	0	
1.2327	2.50847	-0.0773606	0	
1.2333	1.59513	0.232082	0	
1.2340	2.50847	1.45438	0	
1.2347	-0.84902	2.6612	0	
1.2353	-3.6019	2.97065	0	
1.2360	-1.15775	2.05779	0	
1.2367	-1.15775	1.74835	0	
1.2373	-6.34192	3.58953	0	
1.2380	-8.47734	3.8835	0	
1.2387	-6.65066	2.05779	0	
1.2393	-4.82398	0.835494	0	
1.2400	-3.89778	1.14494	0	
1.2407	-4.51524	1.45438	0	
1.2413	-5.73732	0.526052	0	
1.2420	-6.65066	-0.990215	0	
1.2427	-6.65066	-0.386803	0	
1.2433	-4.82398	1.74835	0	
1.2440	-0.244415	1.74835	0	
1.2447	1.28639	-0.680773	0	
1.2453	-2.98444	-1.6091	0	
1.2460	-2.0711	-0.990215	0	
1.2467	5.86596	-0.990215	0	
1.2473	8.91471	-1.6091	0	
1.2480	7.08803	-2.8314	0	
1.2487	7.3839	-2.8314	0	
1.2493	8.00137	-0.990215	0	
1.2500	7.3839	0.232082	0	
1.2507	6.7793	-0.990215	0	
1.2513	3.73054	-3.12537	0	
1.2520	2.19973	-2.8314	0	
1.2527	4.02641	-0.0773606	0	
1.2533	4.02641	1.45438	0	
1.2540	2.50847	-0.990215	0	
1.2547	4.02641	-2.21251	0	
1.2553	1.28639	-0.386803	0	
1.2560	-6.95939	1.74835	0	
1.2567	-8.78607	2.6612	0	
1.2573	-5.73732	2.6612	0	
1.2580	-6.34192	1.74835	0	
1.2587	-7.87273	0.835494	0	
1.2593	-6.65066	2.05779	0	
1.2600	-1.76236	3.58953	0	
1.2607	2.50847	-0.0773606	0	
1.2613	-0.84902	-5.56996	0	
1.2620	-8.1686	-3.74425	0	
1.2627	-9.09481	2.05779	0	
1.2633	-8.1686	2.6612	0	
1.2640	-11.8348	0.232082	0	
1.2647	-12.1436	-0.0773606	0	
1.2653	-7.87273	-0.0773606	0	
1.2660	-6.34192	-1.29966	0	
1.2667	-4.82398	-3.43481	0	
1.2673	-1.15775	-3.74425	0	
1.2680	0.0643197	-0.990215	0	
1.2687	1.891	-0.386803	0	
1.2693	5.24849	-3.43481	0	
1.2700	6.47056	-3.12537	0	
1.2707	6.7793	0.835494	0	
1.2713	7.3839	-0.386803	0	
1.2720	5.24849	-5.26052	0	
1.2727	3.11307	-4.03822	0	
1.2733	4.33515	-0.386803	0	
1.2740	5.24849	-0.386803	0	
1.2747	3.42181	-1.6091	0	
1.2753	2.50847	-0.680773	0	
1.2760	0.681789	-0.680773	0	
1.2767	-2.0711	-0.680773	0	
1.2773	-4.51524	1.14494	0	
1.2780	-5.73732	2.05779	0	
1.2787	-7.564	1.74835	0	
1.2793	-8.47734	1.74835	0	
1.2800	-6.65066	2.6612	0	
1.2807	-6.34192	3.58953	0	
1.2813	-6.95939	4.50238	0	
1.2820	-4.51524	4.50238	0	
1.2827	0.0643197	3.58953	0	
1.2833	1.28639	2.05779	0	
1.2840	-0.84902	2.36723	0	
1.2847	-2.98444	3.28009	0	
1.2853	-2.0711	2.6612	0	
1.2860	-0.244415	-0.0773606	0	
1.2867	-1.76236	-2.8314	0	
1.2873	-1.15775	-3.74425	0	
1.2880	6.47056	-3.74425	0	
1.2887	8.91471	-3.74425	0	
1.2893	0.681789	-4.03822	0	
1.2900	0.97766	-3.12537	0	
1.2907	16.2343	0.526052	0	
1.2913	21.1226	3.58953	0	
1.2920	8.60598	2.36723	0	
1.2927	-2.37983	-0.0773606	0	
1.2933	-5.73732	-1.6091	0	
1.2940	-4.51524	-3.12537	0	
1.2947	1.28639	-3.12537	0	
1.2953	2.50847	0.232082	0	
1.2960	-2.98444	0.835494	0	
1.2967	-5.73732	-2.52195	0	
1.2973	-4.20651	-1.6091	0	
1.2980	-5.11985	3.58953	0	
1.2987	-5.73732	4.50238	0	
1.2993	-4.82398	1.45438	0	
1.3000	-6.03319	0.835494	0	
1.3007	-6.65066	-0.0773606	0	
1.3013	-3.89778	-1.6091	0	
1.3020	-2.98444	-1.90307	0	
1.3027	-2.37983	-1.90307	0	
1.3033	-0.540286	-2.21251	0	
1.3040	-1.15775	-2.8314	0	
1.3047	-1.46649	-2.8314	0	
1.3053	2.19973	-2.52195	0	
1.3060	2.8172	-0.990215	0	
1.3067	0.681789	0.232082	0	
1.3073	2.19973	0.835494	0	
1.3080	6.17469	0.835494	0	
1.3087	8.91471	0.835494	0	
1.3093	11.9635	1.14494	0	
1.3100	13.4943	0.835494	0	
1.3107	11.6676	-1.29966	0	
1.3113	10.7414	-2.8314	0	
1.3120	9.22345	-2.21251	0	
1.3127	3.11307	-0.990215	0	
1.3133	-0.244415	0.232082	0	
1.3140	0.681789	1.14494	0	
1.3147	-0.84902	2.05779	0	
1.3153	-2.98444	1.74835	0	
1.3160	-1.46649	-1.6091	0	
1.3167	-1.46649	-4.03822	0	
1.3173	-4.20651	-1.90307	0	
1.3180	-6.34192	-0.0773606	0	
1.3187	-7.25526	-1.6091	0	
1.3193	-7.25526	-0.990215	0	
1.3200	-6.34192	1.74835	0	
1.3207	-7.564	1.14494	0	
1.3213	-8.78607	-0.680773	0	
1.3220	-5.73732	-1.6091	0	
1.3227	-2.6757	-2.21251	0	
1.3233	-2.6757	-2.21251	0	
1.3240	-2.98444	-0.990215	0	
1.3247	-0.540286	0.835494	0	
1.3253	2.19973	1.74835	0	
1.3260	4.95262	-0.0773606	0	
1.3267	8.31011	-1.29966	0	
1.3273	9.82805	0.526052	0	
1.3280	9.51932	0.835494	0	
1.3287	8.31011	-0.990215	0	
1.3293	6.7793	-1.29966	0	
1.3300	6.47056	-0.990215	0	
1.3307	8.60598	-0.990215	0	
1.3313	8.60598	0.835494	0	
1.3320	6.7793	0.835494	0	
1.3327	8.00137	-0.0773606	0	
1.3333	8.60598	-0.0773606	0	
1.3340	5.55722	1.14494	0	
1.3347	3.42181	3.28009	0	
1.3353	2.19973	6.01865	0	
1.3360	-0.244415	4.50238	0	
1.3367	0.373054	2.05779	0	
1.3373	-2.0711	4.50238	0	
1.3380	-7.87273	6.63754	0	
1.3387	-7.87273	3.28009	0	
1.3393	-6.65066	-0.990215	0	
1.3400	-10.9215	-2.8314	0	
1.3407	-10.3169	-3.43481	0	
1.3413	-3.89778	-2.21251	0	
1.3420	-4.51524	-0.680773	0	
1.3427	-6.65066	-1.90307	0	
1.3433	-2.98444	-3.43481	0	
1.3440	-1.15775	-2.8314	0	
1.3447	0.0643197	-2.8314	0	
1.3453	2.19973	-2.8314	0	
1.3460	-0.84902	-0.0773606	0	
1.3467	-2.6757	0.232082	0	
1.3473	3.73054	-2.21251	0	
1.3480	8.60598	-0.386803	0	
1.3487	8.00137	2.05779	0	
1.3493	9.22345	-0.0773606	0	
1.3500	9.22345	0.232082	0	
1.3507	5.55722	4.19294	0	
1.3513	4.33515	3.58953	0	
1.3520	6.17469	0.232082	0	
1.3527	5.24849	-0.0773606	0	
1.3533	2.50847	-0.990215	0	
1.3540	1.891	-1.90307	0	
1.3547	1.59513	1.45438	0	
1.3553	-0.244415	2.6612	0	
1.3560	-1.76236	-0.680773	0	
1.3567	-1.46649	-1.90307	0	
1.3573	-2.0711	0.232082	0	
1.3580	-4.51524	0.232082	0	
1.3587	-6.95939	-2.52195	0	
1.3593	-7.564	-3.74425	0	
1.3600	-6.03319	-1.90307	0	
1.3607	-5.42858	-0.680773	0	
1.3613	-6.03319	-0.990215	0	
1.3620	-6.34192	-0.680773	0	
1.3627	-4.51524	0.835494	0	
1.3633	-2.37983	2.6612	0	
1.3640	-2.98444	3.58953	0	
1.3647	-2.98444	2.6612	0	
1.3653	-0.244415	1.45438	0	
1.3660	2.50847	1.14494	0	
1.3667	1.59513	1.14494	0	
1.3673	-0.84902	2.6612	0	
1.3680	-0.540286	5.41524	0	
1.3687	1.59513	3.58953	0	
1.3693	3.11307	-2.52195	0	
1.3700	2.50847	-3.12537	0	
1.3707	-0.540286	-0.680773	0	
1.3713	0.97766	-2.21251	0	
1.3720	6.7793	-4.65711	0	
1.3727	7.69264	-5.26052	0	
1.3733	4.33515	-4.65711	0	
1.3740	3.42181	-0.990215	0	
1.3747	2.50847	1.74835	0	
1.3753	2.50847	-1.90307	0	
1.3760	5.24849	-3.74425	0	
1.3767	4.33515	-0.0773606	0	
1.3773	-6.03319	3.58953	0	
1.3780	-13.9702	2.36723	0	
1.3787	-13.6615	0.232082	0	
1.3793	-14.8836	-1.29966	0	
1.3800	-19.4631	-1.90307	0	
1.3807	-18.8585	-0.990215	0	
1.3813	-13.9702	0.232082	0	
1.3820	-11.2302	-0.386803	0	
1.3827	-10.3169	-0.990215	0	
1.3833	-8.1686	0.835494	0	
1.3840	-4.82398	2.36723	0	
1.3847	-3.6019	-0.386803	0	
1.3853	-4.20651	-3.74425	0	
1.3860	-3.29317	-2.52195	0	
1.3867	-0.84902	-0.0773606	0	
1.3873	1.891	-1.29966	0	
1.3880	5.24849	-1.90307	0	
1.3887	9.51932	-1.6091	0	
1.3893	10.4455	-3.74425	0	
1.3900	7.08803	-4.96655	0	
1.3907	5.24849	-3.74425	0	
1.3913	8.60598	-1.90307	0	
1.3920	10.1368	-1.6091	0	
1.3927	6.7793	-2.8314	0	
1.3933	3.42181	-1.90307	0	
1.3940	1.59513	1.45438	0	
1.3947	-0.540286	1.45438	0	
1.3953	-0.244415	-0.680773	0	
1.3960	2.8172	-0.0773606	0	
1.3967	2.50847	0.835494	0	
1.3973	-1.15775	1.14494	0	
1.3980	-2.98444	3.28009	0	
1.3987	-3.6019	2.97065	0	
1.3993	-4.82398	-0.0773606	0	
1.4000	-6.34192	0.835494	0	
1.4007	-6.34192	3.58953	0	
1.4013	-5.73732	2.36723	0	
1.4020	-4.82398	-1.6091	0	
1.4027	-3.89778	-3.74425	0	
1.4033	-3.89778	-4.03822	0	
1.4040	-3.89778	-0.386803	0	
1.4047	-1.15775	2.6612	0	
1.4053	2.8172	1.14494	0	
1.4060	3.42181	-0.0773606	0	
1.4067	1.891	-0.0773606	0	
1.4073	0.0643197	-0.990215	0	
1.4080	-1.15775	-2.52195	0	
1.4087	0.681789	-3.43481	0	
1.4093	4.33515	-3.74425	0	
1.4100	6.17469	-2.52195	0	
1.4107	4.33515	-1.90307	0	
1.4113	2.50847	-1.29966	0	
1.4120	0.97766	2.6612	0	
1.4127	1.891	2.36723	0	
1.4133	2.8172	-3.12537	0	
1.4140	1.891	-2.52195	0	
1.4147	0.373054	1.14494	0	
1.4153	-0.540286	-0.680773	0	
1.4160	-1.15775	1.14494	0	
1.4167	0.681789	6.94698	0	
1.4173	2.50847	5.41524	0	
1.4180	0.681789	2.05779	0	
1.4187	0.97766	2.6612	0	
1.4193	3.42181	1.45438	0	
1.4200	0.0643197	-1.29966	0	
1.4207	-5.11985	-1.29966	0	
1.4213	-3.89778	0.526052	0	
1.4220	0.681789	0.835494	0	
1.4227	4.02641	-2.21251	0	
1.4233	3.11307	-4.65711	0	
1.4240	1.59513	-4.03822	0	
1.4247	3.42181	-3.43481	0	
1.4253	5.86596	-2.8314	0	
1.4260	3.42181	-1.29966	0	
1.4267	3.42181	-1.29966	0	
1.4273	4.95262	-2.8314	0	
1.4280	-1.15775	-1.90307	0	
1.4287	-6.65066	-2.52195	0	
1.4293	-3.6019	-4.65711	0	
1.4300	-1.15775	-5.8794	0	
1.4307	-2.0711	-5.56996	0	
1.4313	-0.540286	-4.34766	0	
1.4320	0.681789	-3.74425	0	
1.4327	-0.540286	-4.65711	0	
1.4333	-2.98444	-4.34766	0	
1.4340	-3.89778	-2.8314	0	
1.4347	-1.15775	-3.12537	0	
1.4353	-2.37983	-3.74425	0	
1.4360	-3.89778	-1.6091	0	
1.4367	4.64388	1.45438	0	
1.4373	6.47056	-0.0773606	0	
1.4380	-10.9215	-3.74425	0	
1.4387	-17.019	-4.34766	0	
1.4393	-1.46649	-1.29966	0	
1.4400	3.11307	2.36723	0	
1.4407	-7.25526	5.41524	0	
1.4413	-10.3169	6.32809	0	
1.4420	-6.65066	3.58953	0	
1.4427	-6.34192	2.36723	0	
1.4433	-4.51524	4.19294	0	
1.4440	-1.15775	3.28009	0	
1.4447	1.59513	1.74835	0	
1.4453	4.33515	2.6612	0	
1.4460	6.17469	0.835494	0	
1.4467	3.11307	-2.8314	0	
1.4473	-3.89778	-0.990215	0	
1.4480	-7.564	3.58953	0	
1.4487	-1.15775	4.19294	0	
1.4493	5.86596	3.28009	0	
1.4500	7.3839	1.74835	0	
1.4507	8.00137	-0.990215	0	
1.4513	8.00137	-2.52195	0	
1.4520	4.33515	-0.386803	0	
1.4527	2.50847	-0.0773606	0	
1.4533	2.50847	-1.29966	0	
1.4540	3.42181	-0.0773606	0	
1.4547	5.24849	1.74835	0	
1.4553	3.73054	1.14494	0	
1.4560	-0.540286	1.74835	0	
1.4567	-1.76236	3.28009	0	
1.4573	-1.15775	1.74835	0	
1.4580	-3.6019	2.6612	0	
1.4587	-7.564	5.41524	0	
1.4593	-10.3169	3.28009	0	
1.4600	-8.47734	-0.0773606	0	
1.4607	-4.20651	1.74835	0	
1.4613	-2.98444	1.74835	0	
1.4620	-2.98444	-1.90307	0	
1.4627	-2.0711	-0.386803	0	
1.4633	-3.89778	2.6612	0	
1.4640	-3.89778	1.45438	0	
1.4647	1.28639	-0.990215	0	
1.4653	3.42181	-0.680773	0	
1.4660	2.19973	-0.386803	0	
1.4667	3.42181	-0.990215	0	
1.4673	4.33515	-0.386803	0	
1.4680	4.02641	1.14494	0	
1.4687	6.7793	2.6612	0	
1.4693	8.60598	2.05779	0	
1.4700	8.60598	0.835494	0	
1.4707	9.82805	-1.90307	0	
1.4713	8.91471	-3.74425	0	
1.4720	4.95262	-2.21251	0	
1.4727	1.28639	-0.0773606	0	
1.4733	-0.540286	-1.29966	0	
1.4740	0.373054	-0.990215	0	
1.4747	1.891	2.6612	0	
1.4753	1.59513	4.50238	0	
1.4760	0.97766	2.36723	0	
1.4767	1.891	-0.0773606	0	
1.4773	1.28639	-0.990215	0	
1.4780	-0.244415	-0.990215	0	
1.4787	-3.6019	-0.990215	0	
1.4793	-8.1686	-0.0773606	0	
1.4800	-6.95939	2.36723	0	
1.4807	-4.82398	1.74835	0	
1.4813	-8.47734	-1.6091	0	
1.4820	-9.39068	-1.90307	0	
1.4827	-6.34192	1.45438	0	
1.4833	-6.65066	2.05779	0	
1.4840	-5.11985	0.835494	0	
1.4847	-2.0711	0.232082	0	
1.4853	-8.78607	-0.990215	0	
1.4860	-10.3169	-0.680773	0	
1.4867	8.31011	3.28009	0	
1.4873	23.5667	7.85983	0	
1.4880	18.6784	9.08213	0	
1.4887	12.5809	8.16928	0	
1.4893	12.2722	3.58953	0	
1.4900	4.33515	-3.74425	0	
1.4907	-3.89778	-6.48282	0	
1.4913	2.19973	-1.90307	0	
1.4920	13.4943	1.74835	0	
1.4927	13.1855	0.526052	0	
1.4933	2.8172	-0.386803	0	
1.4940	-3.6019	-0.680773	0	
1.4947	-1.76236	-2.8314	0	
1.4953	3.11307	-2.8314	0	
1.4960	5.55722	-0.990215	0	
1.4967	3.42181	-0.0773606	0	
1.4973	-1.46649	-1.29966	0	
1.4980	-6.65066	-0.990215	0	
1.4987	-9.09481	2.6612	0	
1.4993	-9.69941	4.81183	0	
1.5000	-11.2302	1.14494	0	
1.5007	-11.5261	-1.90307	0	
1.5013	-9.39068	0.526052	0	
1.5020	-6.65066	2.05779	0	
1.5027	-4.82398	0.232082	0	
1.5033	-3.6019	-0.386803	0	
1.5040	-2.98444	-0.990215	0	
1.5047	-4.20651	-2.21251	0	
1.5053	0.373054	-0.680773	0	
1.5060	10.7414	2.6612	0	
1.5067	16.543	5.41524	0	
1.5073	15.6297	6.32809	0	
1.5080	15.6297	2.36723	0	
1.5087	10.7414	-3.74425	0	
1.5093	-1.76236	-3.74425	0	
1.5100	-8.1686	-0.0773606	0	
1.5107	-4.82398	0.232082	0	
1.5113	-3.89778	-1.90307	0	
1.5120	-3.29317	-3.43481	0	
1.5127	1.28639	-3.74425	0	
1.5133	2.8172	-2.8314	0	
1.5140	0.0643197	-2.8314	0	
1.5147	-2.0711	-3.74425	0	
1.5153	-2.0711	-3.43481	0	
1.5160	-1.76236	-2.52195	0	
1.5167	-0.84902	-0.990215	0	
1.5173	-2.0711	1.14494	0	
1.5180	-4.82398	2.05779	0	
1.5187	-4.82398	2.6612	0	
1.5193	-5.73732	3.8835	0	
1.5200	-6.65066	2.97065	0	
1.5207	-4.51524	0.526052	0	
1.5213	-2.0711	-0.990215	0	
1.5220	-2.0711	-2.8314	0	
1.5227	-2.0711	-4.96655	0	
1.5233	-2.0711	-6.48282	0	
1.5240	-4.51524	-6.48282	0	
1.5247	-6.34192	-5.26052	0	
1.5253	-4.51524	-3.74425	0	
1.5260	-1.46649	-3.12537	0	
1.5267	0.681789	-2.52195	0	
1.5273	3.73054	-0.990215	0	
1.5280	7.08803	-0.680773	0	
1.5287	8.91471	0.232082	0	
1.5293	9.51932	1.74835	0	
1.5300	9.51932	0.526052	0	
1.5307	6.7793	-2.21251	0	
1.5313	5.24849	-2.8314	0	
1.5320	8.00137	1.14494	0	
1.5327	8.91471	5.72468	0	
1.5333	4.33515	6.32809	0	
1.5340	0.0643197	2.97065	0	
1.5347	-2.0711	2.36723	0	
1.5353	-2.98444	1.14494	0	
1.5360	-3.89778	-3.12537	0	
1.5367	-4.82398	-2.52195	0	
1.5373	-5.73732	3.58953	0	
1.5380	-4.51524	5.41524	0	
1.5387	2.8172	6.01865	0	
1.5393	8.31011	8.46325	0	
1.5400	2.50847	8.16928	0	
1.5407	-2.0711	5.41524	0	
1.5413	4.33515	3.28009	0	
1.5420	6.47056	-1.6091	0	
1.5427	1.28639	-2.52195	0	
1.5433	-1.46649	4.50238	0	
1.5440	-13.6615	7.55039	0	
1.5447	-34.1152	0.835494	0	
1.5453	-31.3623	-3.74425	0	
1.5460	-10.3169	-1.29966	0	
1.5467	-0.84902	-0.680773	0	
1.5473	-2.98444	-5.56996	0	
1.5480	-8.1686	-9.84026	0	
1.5487	-11.2302	-8.324	0	
1.5493	-2.98444	-7.70511	0	
1.5500	8.31011	-10.4591	0	
1.5507	10.1368	-10.1497	0	
1.5513	14.4076	-7.1017	0	
1.5520	21.1226	-7.39567	0	
1.5527	17.7651	-7.39567	0	
1.5533	9.82805	-4.96655	0	
1.5540	7.3839	-3.43481	0	
1.5547	7.69264	0.232082	0	
1.5553	7.3839	7.55039	0	
1.5560	3.11307	9.08213	0	
1.5567	-5.73732	3.58953	0	
1.5573	-10.3169	0.835494	0	
1.5580	-8.78607	1.74835	0	
1.5587	-8.47734	-0.0773606	0	
1.5593	-12.4523	-0.990215	0	
1.5600	-15.5011	2.6612	0	
1.5607	-11.8348	4.50238	0	
1.5613	-6.95939	2.97065	0	
1.5620	-8.1686	2.6612	0	
1.5627	-9.39068	2.6612	0	
1.5633	-7.25526	2.05779	0	
1.5640	-4.82398	0.232082	0	
1.5647	-2.37983	-1.90307	0	
1.5653	-0.244415	-0.386803	0	
1.5660	-0.540286	3.58953	0	
1.5667	-0.540286	2.6612	0	
1.5673	2.50847	-3.12537	0	
1.5680	6.17469	-5.8794	0	
1.5687	9.51932	-7.1017	0	
1.5693	8.91471	-7.70511	0	
1.5700	4.02641	-3.74425	0	
1.5707	1.891	2.36723	0	
1.5713	3.11307	-0.990215	0	
1.5720	-0.540286	-11.372	0	
1.5727	-6.34192	-16.5552	0	
1.5733	-2.37983	-11.9754	0	
1.5740	8.91471	-6.48282	0	
1.5747	15.6297	-3.74425	0	
1.5753	12.5809	-0.0773606	0	
1.5760	5.24849	1.74835	0	
1.5767	0.681789	0.835494	0	
1.5773	-2.98444	-0.680773	0	
1.5780	-8.47734	-0.680773	0	
1.5787	-9.39068	-0.0773606	0	
1.5793	-6.95939	1.74835	0	
1.5800	-11.2302	4.50238	0	
1.5807	-16.7231	5.1058	0	
1.5813	-8.47734	3.58953	0	
1.5820	2.8172	0.835494	0	
1.5827	1.59513	-2.21251	0	
1.5833	-3.29317	-3.74425	0	
1.5840	-2.0711	-0.0773606	0	
1.5847	-1.76236	4.50238	0	
1.5853	-3.29317	2.36723	0	
1.5860	-1.46649	-0.0773606	0	
1.5867	2.50847	2.6612	0	
1.5873	8.00137	3.58953	0	
1.5880	10.7414	0.835494	0	
1.5887	8.91471	0.232082	0	
1.5893	6.47056	-0.0773606	0	
1.5900	7.69264	-2.8314	0	
1.5907	7.3839	-2.52195	0	
1.5913	5.55722	0.526052	0	
1.5920	5.24849	1.74835	0	
1.5927	5.24849	0.232082	0	
1.5933	4.02641	-1.6091	0	
1.5940	2.50847	-0.386803	0	
1.5947	0.97766	3.58953	0	
1.5953	-0.244415	4.81183	0	
1.5960	0.373054	2.6612	0	
1.5967	0.681789	3.58953	0	
1.5973	-2.0711	4.50238	0	
1.5980	-6.03319	1.74835	0	
1.5987	-7.25526	0.232082	0	
1.5993	-6.34192	2.97065	0	
1.6000	-10.3169	3.8835	0	
1.6007	-13.9702	2.6612	0	
1.6013	-12.4523	2.05779	0	
1.6020	-16.7231	-0.0773606	0	
1.6027	-23.734	-1.90307	0	
1.6033	-11.8348	0.526052	0	
1.6040	12.5809	3.28009	0	
1.6047	22.9493	1.74835	0	
1.6053	23.5667	0.835494	0	
1.6060	28.1463	3.58953	0	
1.6067	28.7509	4.81183	0	
1.6073	20.8139	3.8835	0	
1.6080	13.4943	2.97065	0	
1.6087	12.5809	1.74835	0	
1.6093	14.4076	-0.990215	0	
1.6100	12.2722	-3.43481	0	
1.6107	0.97766	-2.52195	0	
1.6113	-9.39068	-0.680773	0	
1.6120	-10.9215	-1.90307	0	
1.6127	-12.7482	-3.43481	0	
1.6133	-18.8585	-0.0773606	0	
1.6140	-18.8585	1.74835	0	
1.6147	-11.2302	-1.29966	0	
1.6153	-4.82398	-1.90307	0	
1.6160	-2.0711	-0.386803	0	
1.6167	-1.15775	-2.21251	0	
1.6173	-1.15775	-4.96655	0	
1.6180	0.373054	-4.65711	0	
1.6187	1.59513	-1.29966	0	
1.6193	-0.84902	-0.386803	0	
1.6200	-3.89778	-3.74425	0	
1.6207	-10.3169	-5.8794	0	
1.6213	-23.4381	-4.96655	0	
1.6220	-33.8064	-5.26052	0	
1.6227	-28.6223	-4.65711	0	
1.6233	-10.9215	0.526052	0	
1.6240	5.55722	3.58953	0	
1.6247	12.2722	0.232082	0	
1.6253	10.1368	-3.43481	0	
1.6260	6.7793	-3.74425	0	
1.6267	5.24849	-1.29966	0	
1.6273	8.31011	3.8835	0	
1.6280	16.2343	7.85983	0	
1.6287	20.518	3.8835	0	
1.6293	15.321	-5.8794	0	
1.6300	11.3589	-9.23685	0	
1.6307	11.0501	-4.34766	0	
1.6313	6.47056	-2.21251	0	
1.6320	2.50847	-3.74425	0	
1.6327	1.891	-1.90307	0	
1.6333	-2.37983	1.45438	0	
1.6340	-8.1686	1.45438	0	
1.6347	-6.65066	1.45438	0	
1.6353	-6.34192	2.05779	0	
1.6360	-9.39068	0.526052	0	
1.6367	-6.65066	-1.29966	0	
1.6373	-2.0711	-0.680773	0	
1.6380	-2.0711	2.05779	0	
1.6387	-2.98444	3.58953	0	
1.6393	-6.03319	0.526052	0	
1.6400	-7.564	-0.680773	0	
1.6407	-1.15775	5.41524	0	
1.6413	1.891	8.46325	0	
1.6420	-4.82398	3.8835	0	
1.6427	-3.29317	0.526052	0	
1.6433	5.24849	-0.680773	0	
1.6440	5.24849	-6.18884	0	
1.6447	1.28639	-11.372	0	
1.6453	-0.244415	-10.7531	0	
1.6460	-5.11985	-8.01455	0	
1.6467	-11.2302	-4.65711	0	
1.6473	-13.0569	-0.680773	0	
1.6480	-12.1436	-0.0773606	0	
1.6487	-9.39068	-2.8314	0	
1.6493	-5.73732	-1.90307	0	
1.6500	-5.73732	0.232082	0	
1.6507	-5.42858	-1.6091	0	
1.6513	0.0643197	-2.8314	0	
1.6520	3.42181	-0.0773606	0	
1.6527	2.8172	0.526052	0	
1.6533	10.7414	-0.0773606	0	
1.6540	26.6155	1.45438	0	
1.6547	26.9242	1.14494	0	
1.6553	12.8768	-2.52195	0	
1.6560	4.95262	-2.8314	0	
1.6567	-0.244415	-0.0773606	0	
1.6573	-4.82398	-0.0773606	0	
1.6580	3.11307	-1.29966	0	
1.6587	11.6676	0.835494	0	
1.6593	5.24849	4.50238	0	
1.6600	-4.82398	4.50238	0	
1.6607	-6.65066	1.14494	0	
1.6613	0.373054	1.74835	0	
1.6620	9.82805	6.94698	0	
1.6627	11.3589	8.16928	0	
1.6633	8.31011	6.32809	0	
1.6640	9.82805	8.77269	0	
1.6647	7.08803	10.9078	0	
1.6653	0.97766	2.6612	0	
1.6660	-2.0711	-7.39567	0	
1.6667	-10.3169	-5.56996	0	
1.6673	-16.1057	3.28009	0	
1.6680	-3.89778	2.05779	0	
1.6687	8.00137	-8.01455	0	
1.6693	8.91471	-11.9754	0	
1.6700	13.1855	-7.39567	0	
1.6707	16.2343	-3.43481	0	
1.6713	8.60598	-2.52195	0	
1.6720	3.42181	-2.52195	0	
1.6727	-0.540286	-1.6091	0	
1.6733	-8.1686	-0.0773606	0	
1.6740	-6.03319	-3.12537	0	
1.6747	0.681789	-10.1497	0	
1.6753	-2.0711	-10.1497	0	
1.6760	-7.87273	-4.96655	0	
1.6767	-11.5261	-4.34766	0	
1.6773	-16.7231	-5.8794	0	
1.6780	-17.9452	-5.56996	0	
1.6787	-14.8836	-6.18884	0	
1.6793	-15.8098	-6.48282	0	
1.6800	-18.5498	-4.65711	0	
1.6807	-14.8836	-0.680773	0	
1.6813	-2.6757	3.58953	0	
1.6820	9.51932	1.74835	0	
1.6827	9.82805	-2.52195	0	
1.6833	-4.82398	-0.990215	0	
1.6840	-18.5498	2.05779	0	
1.6847	-20.0806	0.835494	0	
1.6853	-17.6365	1.14494	0	
1.6860	-15.5011	2.36723	0	
1.6867	-10.6128	-1.29966	0	
1.6873	-4.82398	-4.65711	0	
1.6880	3.73054	-2.21251	0	
1.6887	13.4943	0.835494	0	
1.6893	15.6297	0.835494	0	
1.6900	13.803	-0.0773606	0	
1.6907	15.321	-0.680773	0	
1.6913	14.4076	-1.29966	0	
1.6920	9.51932	-0.386803	0	
1.6927	6.17469	0.835494	0	
1.6933	2.50847	2.6612	0	
1.6940	-1.15775	4.50238	0	
1.6947	-1.76236	4.50238	0	
1.6953	-4.20651	1.14494	0	
1.6960	-3.89778	-0.680773	0	
1.6967	2.50847	2.05779	0	
1.6973	-1.15775	4.50238	0	
1.6980	-12.1436	3.8835	0	
1.6987	-13.0569	3.58953	0	
1.6993	-10.6128	3.8835	0	
1.7000	-11.5261	2.97065	0	
1.7007	-10.0081	2.05779	0	
1.7013	-8.78607	2.6612	0	
1.7020	-8.47734	1.74835	0	
1.7027	-2.37983	2.36723	0	
1.7033	2.19973	6.01865	0	
1.7040	0.681789	7.85983	0	
1.7047	1.891	5.41524	0	
1.7053	2.50847	5.41524	0	
1.7060	-2.0711	8.16928	0	
1.7067	-2.98444	7.24095	0	
1.7073	-0.244415	4.81183	0	
1.7080	-1.15775	6.01865	0	
1.7087	0.0643197	5.41524	0	
1.7093	4.33515	0.526052	0	
1.7100	6.7793	-4.03822	0	
1.7107	8.60598	-8.01455	0	
1.7113	10.4455	-9.23685	0	
1.7120	6.17469	-5.8794	0	
1.7127	3.42181	-3.12537	0	
1.7133	11.3589	-2.8314	0	
1.7140	17.4564	-1.90307	0	
1.7147	10.7414	0.835494	0	
1.7153	4.02641	3.8835	0	
1.7160	5.55722	5.72468	0	
1.7167	7.08803	1.74835	0	
1.7173	5.86596	-5.56996	0	
1.7180	5.24849	-8.61797	0	
1.7187	3.11307	-5.8794	0	
1.7193	-0.244415	-3.74425	0	
1.7200	-4.51524	-2.8314	0	
1.7207	-8.1686	0.526052	0	
1.7213	-3.6019	4.81183	0	
1.7220	4.33515	5.72468	0	
1.7227	-1.46649	2.05779	0	
1.7233	-13.3656	-0.990215	0	
1.7240	-12.7482	-1.6091	0	
1.7247	-9.39068	-0.990215	0	
1.7253	-5.73732	1.74835	0	
1.7260	9.51932	3.8835	0	
1.7267	22.6534	2.97065	0	
1.7273	15.321	2.6612	0	
1.7280	5.24849	3.58953	0	
1.7287	5.24849	1.14494	0	
1.7293	4.33515	-0.680773	0	
1.7300	2.19973	-0.680773	0	
1.7307	2.50847	-1.29966	0	
1.7313	-0.244415	-1.6091	0	
1.7320	-4.82398	-0.990215	0	
1.7327	-0.84902	-2.52195	0	
1.7333	5.55722	-4.03822	0	
1.7340	5.24849	-2.8314	0	
1.7347	3.42181	-0.386803	0	
1.7353	1.59513	-0.0773606	0	
1.7360	-5.11985	-0.386803	0	
1.7367	-6.65066	-0.0773606	0	
1.7373	-6.34192	-0.0773606	0	
1.7380	-14.279	-2.8314	0	
1.7387	-14.5877	-3.74425	0	
1.7393	4.95262	-0.0773606	0	
1.7400	16.8518	3.58953	0	
1.7407	8.60598	3.8835	0	
1.7413	1.28639	2.36723	0	
1.7420	1.891	-0.990215	0	
1.7427	2.50847	-3.43481	0	
1.7433	1.891	-0.990215	0	
1.7440	1.59513	1.45438	0	
1.7447	-0.244415	-0.680773	0	
1.7453	-3.29317	-1.6091	0	
1.7460	-4.82398	1.74835	0	
1.7467	-3.6019	4.50238	0	
1.7473	-0.540286	2.6612	0	
1.7480	2.50847	-0.680773	0	
1.7487	7.08803	0.232082	0	
1.7493	10.4455	3.28009	0	
1.7500	8.60598	3.28009	0	
1.7507	8.00137	-0.0773606	0	
1.7513	9.22345	-2.8314	0	
1.7520	6.7793	-2.8314	0	
1.7527	3.42181	-1.90307	0	
1.7533	3.73054	-1.6091	0	
1.7540	2.50847	-0.680773	0	
1.7547	-2.6757	-0.680773	0	
1.7553	-4.82398	-5.8794	0	
1.7560	-2.98444	-9.84026	0	
1.7567	-5.42858	-4.65711	0	
1.7573	-11.2302	-0.0773606	0	
1.7580	-10.0081	-3.43481	0	
1.7587	-1.15775	-7.39567	0	
1.7593	4.33515	-7.39567	0	
1.7600	3.73054	-7.70511	0	
1.7607	3.11307	-6.48282	0	
1.7613	1.28639	-3.12537	0	
1.7620	-3.29317	-1.6091	0	
1.7627	-5.42858	-3.74425	0	
1.7633	-2.98444	-4.65711	0	
1.7640	2.50847	-0.990215	0	
1.7647	5.55722	3.58953	0	
1.7653	-2.6757	2.97065	0	
1.7660	-18.2411	1.74835	0	
1.7667	-23.1294	0.835494	0	
1.7673	-16.4144	-1.90307	0	
1.7680	-3.89778	-2.8314	0	
1.7687	12.5809	-0.0773606	0	
1.7693	22.6534	-0.0773606	0	
1.7700	19.9005	-1.29966	0	
1.7707	13.4943	-0.990215	0	
1.7713	8.91471	-0.990215	0	
1.7720	6.47056	-2.8314	0	
1.7727	6.7793	-3.43481	0	
1.7733	-0.244415	-1.90307	0	
1.7740	-17.6365	1.14494	0	
1.7747	-27.4002	2.97065	0	
1.7753	-23.1294	1.45438	0	
1.7760	-19.1673	1.45438	0	
1.7767	-17.6365	3.28009	0	
1.7773	-11.8348	2.36723	0	
1.7780	-8.78607	1.74835	0	
1.7787	-12.1436	3.28009	0	
1.7793	-13.9702	3.28009	0	
1.7800	-14.279	1.74835	0	
1.7807	-18.2411	2.6612	0	
1.7813	-16.7231	2.97065	0	
1.7820	-10.0081	0.835494	0	
1.7827	-11.5261	-1.6091	0	
1.7833	-13.9702	-4.65711	0	
1.7840	-10.6128	-7.39567	0	
1.7847	-13.3656	-7.1017	0	
1.7853	-12.4523	-3.74425	0	
1.7860	7.08803	1.45438	0	
1.7867	23.5667	5.72468	0	
1.7873	21.4313	4.19294	0	
1.7880	19.2959	1.45438	0	
1.7887	20.518	4.50238	0	
1.7893	15.321	6.94698	0	
1.7900	12.5809	2.36723	0	
1.7907	13.4943	-1.90307	0	
1.7913	8.00137	-0.0773606	0	
1.7920	2.50847	2.6612	0	
1.7927	1.891	2.6612	0	
1.7933	3.42181	1.14494	0	
1.7940	4.33515	-0.0773606	0	
1.7947	1.59513	-1.6091	0	
1.7953	-1.46649	-1.90307	0	
1.7960	5.86596	-0.990215	0	
1.7967	12.5809	-0.0773606	0	
1.7973	4.33515	0.526052	0	
1.7980	-4.20651	0.835494	0	
1.7987	-1.46649	0.232082	0	
1.7993	-0.244415	-0.990215	0	
1.8000	-3.6019	-0.990215	0	
1.8007	-4.82398	0.835494	0	
1.8013	-6.34192	2.36723	0	
1.8020	-6.95939	3.58953	0	
1.8027	-3.89778	4.50238	0	
1.8033	-4.20651	2.97065	0	
1.8040	-5.11985	2.05779	0	
1.8047	-2.0711	2.6612	0	
1.8053	-2.6757	2.36723	0	
1.8060	-2.0711	2.6612	0	
1.8067	5.55722	3.58953	0	
1.8073	9.82805	2.36723	0	
1.8080	7.69264	-0.386803	0	
1.8087	10.1368	-0.386803	0	
1.8093	12.8768	0.526052	0	
1.8100	9.51932	-0.0773606	0	
1.8107	6.7793	0.526052	0	
1.8113	6.17469	1.14494	0	
1.8120	4.33515	-0.0773606	0	
1.8127	5.24849	-0.990215	0	
1.8133	6.7793	-2.52195	0	
1.8140	4.95262	-3.43481	0	
1.8147	4.64388	-1.90307	0	
1.8153	4.95262	-0.0773606	0	
1.8160	0.0643197	-0.990215	0	
1.8167	-4.82398	-0.680773	0	
1.8173	-5.42858	1.14494	0	
1.8180	-8.78607	0.835494	0	
1.8187	-13.3656	-0.386803	0	
1.8193	-12.7482	0.835494	0	
1.8200	-9.39068	0.835494	0	
1.8207	-8.47734	-1.90307	0	
1.8213	-10.3169	-1.90307	0	
1.8220	-11.5261	0.526052	0	
1.8227	-9.69941	2.36723	0	
1.8233	-7.87273	1.74835	0	
1.8240	-9.39068	-0.0773606	0	
1.8247	-6.95939	-0.386803	0	
1.8253	2.8172	-0.0773606	0	
1.8260	10.4455	-1.6091	0	
1.8267	8.31011	-2.8314	0	
1.8273	5.24849	-1.29966	0	
1.8280	4.02641	0.232082	0	
1.8287	-2.0711	-0.386803	0	
1.8293	-6.34192	-1.29966	0	
1.8300	5.55722	0.232082	0	
1.8307	21.1226	2.6612	0	
1.8313	19.9005	1.45438	0	
1.8320	10.7414	-2.21251	0	
1.8327	8.91471	-2.8314	0	
1.8333	8.31011	-3.43481	0	
1.8340	4.02641	-5.56996	0	
1.8347	1.28639	-3.74425	0	
1.8353	-0.244415	-0.0773606	0	
1.8360	-0.84902	-0.386803	0	
1.8367	-0.244415	-0.680773	0	
1.8373	-2.0711	1.74835	0	
1.8380	-4.82398	3.28009	0	
1.8387	-7.87273	4.50238	0	
1.8393	-10.9215	6.01865	0	
1.8400	-11.2302	2.6612	0	
1.8407	-7.564	-0.386803	0	
1.8413	-3.29317	2.05779	0	
1.8420	-1.76236	4.19294	0	
1.8427	-3.6019	2.05779	0	
1.8433	-7.25526	0.232082	0	
1.8440	-7.564	0.835494	0	
1.8447	-2.98444	1.45438	0	
1.8453	0.373054	-0.0773606	0	
1.8460	-1.15775	-3.74425	0	
1.8467	-3.29317	-4.65711	0	
1.8473	-2.6757	-3.74425	0	
1.8480	-1.46649	-3.43481	0	
1.8487	0.97766	-4.03822	0	
1.8493	7.08803	-4.34766	0	
1.8500	11.6676	-5.56996	0	
1.8507	11.6676	-4.96655	0	
1.8513	10.7414	-1.90307	0	
1.8520	10.7414	-0.0773606	0	
1.8527	6.7793	0.835494	0	
1.8533	-1.46649	0.835494	0	
1.8540	-7.564	0.835494	0	
1.8547	-7.25526	0.835494	0	
1.8553	-4.51524	0.526052	0	
1.8560	-2.6757	-3.12537	0	
1.8567	-3.6019	-3.43481	0	
1.8573	-5.73732	0.835494	0	
1.8580	-7.564	1.45438	0	
1.8587	-10.3169	0.835494	0	
1.8593	-12.7482	3.58953	0	
1.8600	-12.1436	4.50238	0	
1.8607	-9.39068	2.97065	0	
1.8613	-6.65066	4.19294	0	
1.8620	-6.34192	3.28009	0	
1.8627	-6.65066	0.232082	0	
1.8633	-6.34192	0.526052	0	
1.8640	-4.82398	0.526052	0	
1.8647	-2.98444	0.835494	0	
1.8653	1.59513	3.8835	0	
1.8660	4.95262	4.19294	0	
1.8667	5.24849	0.835494	0	
1.8673	5.86596	-0.990215	0	
1.8680	6.7793	-0.990215	0	
1.8687	4.33515	-0.0773606	0	
1.8693	0.373054	0.835494	0	
1.8700	-0.84902	-0.0773606	0	
1.8707	0.97766	0.835494	0	
1.8713	1.59513	2.97065	0	
1.8720	0.0643197	1.14494	0	
1.8727	-0.84902	-2.21251	0	
1.8733	-6.34192	-2.8314	0	
1.8740	-11.5261	-1.90307	0	
1.8747	-0.84902	-0.386803	0	
1.8753	15.6297	3.28009	0	
1.8760	12.5809	6.32809	0	
1.8767	0.681789	7.24095	0	
1.8773	-3.89778	8.16928	0	
1.8780	-8.47734	10.5984	0	
1.8787	-13.0569	11.5113	0	
1.8793	-13.0569	7.24095	0	
1.8800	-13.9702	2.6612	0	
1.8807	-6.65066	4.50238	0	
1.8813	8.91471	4.81183	0	
1.8820	10.7414	-1.90307	0	
1.8827	3.42181	-8.01455	0	
1.8833	4.33515	-9.23685	0	
1.8840	3.11307	-9.23685	0	
1.8847	-2.98444	-8.324	0	
1.8853	-1.76236	-8.324	0	
1.8860	0.97766	-10.1497	0	
1.8867	-0.540286	-9.23685	0	
1.8873	0.373054	-4.96655	0	
1.8880	2.50847	-0.680773	0	
1.8887	6.17469	-0.386803	0	
1.8893	16.8518	-5.26052	0	
1.8900	22.6534	-8.324	0	
1.8907	20.2093	-5.56996	0	
1.8913	21.7272	-3.43481	0	
1.8920	24.1714	-3.74425	0	
1.8927	18.0738	-2.8314	0	
1.8933	10.1368	-0.990215	0	
1.8940	3.42181	-0.0773606	0	
1.8947	-11.2302	-0.386803	0	
1.8953	-29.5356	-2.21251	0	
1.8960	-35.0285	-2.52195	0	
1.8967	-25.8694	-2.8314	0	
1.8973	-17.3277	-6.18884	0	
1.8980	-15.8098	-7.1017	0	
1.8987	-14.8836	-3.12537	0	
1.8993	-13.3656	-0.990215	0	
1.9000	-10.6128	-1.29966	0	
1.9007	-2.98444	0.232082	0	
1.9013	3.42181	1.45438	0	
1.9020	2.50847	-0.386803	0	
1.9027	2.8172	-1.90307	0	
1.9033	9.82805	-2.8314	0	
1.9040	14.4076	-2.21251	0	
1.9047	12.2722	-0.0773606	0	
1.9053	8.91471	2.6612	0	
1.9060	6.47056	3.58953	0	
1.9067	6.17469	2.05779	0	
1.9073	8.00137	1.74835	0	
1.9080	5.86596	3.8835	0	
1.9087	-0.84902	4.81183	0	
1.9093	-3.29317	2.6612	0	
1.9100	-1.76236	-0.0773606	0	
1.9107	-3.89778	-1.90307	0	
1.9113	-5.73732	-2.21251	0	
1.9120	0.0643197	-0.990215	0	
1.9127	5.55722	1.45438	0	
1.9133	5.55722	1.14494	0	
1.9140	3.42181	0.232082	0	
1.9147	0.97766	1.45438	0	
1.9153	-0.84902	2.05779	0	
1.9160	-2.37983	1.45438	0	
1.9167	-5.73732	2.05779	0	
1.9173	-8.47734	3.58953	0	
1.9180	-8.1686	3.58953	0	
1.9187	-7.564	2.6612	0	
1.9193	-11.5261	3.58953	0	
1.9200	-14.8836	3.8835	0	
1.9207	-12.4523	3.28009	0	
1.9213	-6.65066	2.97065	0	
1.9220	-3.89778	3.28009	0	
1.9227	-5.42858	2.97065	0	
1.9233	-4.82398	2.36723	0	
1.9240	0.0643197	0.835494	0	
1.9247	3.73054	-0.990215	0	
1.9253	2.50847	-3.12537	0	
1.9260	0.0643197	-3.74425	0	
1.9267	-0.244415	-2.52195	0	
1.9273	1.59513	-0.0773606	0	
1.9280	4.02641	0.526052	0	
1.9287	6.7793	-0.990215	0	
1.9293	7.69264	-2.52195	0	
1.9300	6.7793	-1.6091	0	
1.9307	6.47056	0.835494	0	
1.9313	7.08803	0.835494	0	
1.9320	6.17469	-2.21251	0	
1.9327	4.95262	-2.52195	0	
1.9333	3.11307	-0.0773606	0	
1.9340	0.681789	1.45438	0	
1.9347	0.681789	1.45438	0	
1.9353	4.33515	2.6612	0	
1.9360	5.55722	3.28009	0	
1.9367	2.19973	2.6612	0	
1.9373	-0.84902	2.97065	0	
1.9380	-2.0711	3.28009	0	
1.9387	-4.20651	1.74835	0	
1.9393	-5.73732	1.74835	0	
1.9400	-8.1686	3.58953	0	
1.9407	-11.2302	3.58953	0	
1.9413	-9.39068	3.58953	0	
1.9420	-6.95939	3.58953	0	
1.9427	-8.47734	1.14494	0	
1.9433	-7.564	0.232082	0	
1.9440	-7.564	0.835494	0	
1.9447	-12.1436	-2.8314	0	
1.9453	-6.65066	-4.65711	0	
1.9460	9.82805	-1.29966	0	
1.9467	13.4943	0.526052	0	
1.9473	7.08803	-0.990215	0	
1.9480	8.91471	0.835494	0	
1.9487	12.5809	2.05779	0	
1.9493	9.82805	-0.990215	0	
1.9500	9.82805	-2.8314	0	
1.9507	10.1368	-0.990215	0	
1.9513	6.7793	-0.0773606	0	
1.9520	5.24849	-0.386803	0	
1.9527	6.17469	-0.680773	0	
1.9533	3.73054	-0.990215	0	
1.9540	2.19973	-0.990215	0	
1.9547	3.11307	-0.0773606	0	
1.9553	0.373054	0.232082	0	
1.9560	-6.34192	-0.0773606	0	
1.9567	-6.95939	2.05779	0	
1.9573	-4.20651	2.97065	0	
1.9580	-6.95939	0.526052	0	
1.9587	-9.39068	-0.386803	0	
1.9593	-8.47734	0.232082	0	
1.9600	-10.3169	-0.990215	0	
1.9607	-10.9215	-0.0773606	0	
1.9613	-9.09481	2.6612	0	
1.9620	-15.8098	-0.680773	0	
1.9627	-16.4144	-3.43481	0	
1.9633	4.33515	1.14494	0	
1.9640	18.9872	2.97065	0	
1.9647	9.51932	0.232082	0	
1.9653	1.28639	1.45438	0	
1.9660	5.86596	2.36723	0	
1.9667	8.60598	-1.90307	0	
1.9673	7.08803	-3.74425	0	
1.9680	8.00137	-2.8314	0	
1.9687	9.22345	-3.74425	0	
1.9693	5.86596	-2.8314	0	
1.9700	1.891	1.45438	0	
1.9707	1.59513	4.50238	0	
1.9713	2.19973	4.50238	0	
1.9720	1.59513	-0.680773	0	
1.9727	1.59513	-4.96655	0	
1.9733	1.891	-4.65711	0	
1.9740	0.681789	-3.74425	0	
1.9747	-0.244415	-5.8794	0	
1.9753	0.681789	-7.70511	0	
1.9760	1.891	-6.79226	0	
1.9767	2.50847	-3.74425	0	
1.9773	0.373054	-0.386803	0	
1.9780	-5.73732	-0.680773	0	
1.9787	-10.3169	-2.8314	0	
1.9793	-11.8348	-0.680773	0	
1.9800	-13.9702	2.97065	0	
1.9807	-13.9702	5.41524	0	
1.9813	-11.8348	7.24095	0	
1.9820	-10.9215	6.63754	0	
1.9827	-11.5261	4.50238	0	
1.9833	-12.1436	4.19294	0	
1.9840	-6.65066	3.28009	0	
1.9847	3.73054	-0.386803	0	
1.9853	6.7793	-0.0773606	0	
1.9860	3.11307	0.232082	0	
1.9867	4.02641	-6.48282	0	
1.9873	6.17469	-12.8883	0	
1.9880	3.42181	-11.9754	0	
1.9887	4.33515	-11.0626	0	
1.9893	8.00137	-14.1106	0	
1.9900	6.47056	-12.5943	0	
1.9907	4.02641	-6.48282	0	
1.9913	4.02641	-2.21251	0	
1.9920	4.95262	-1.90307	0	
1.9927	7.69264	-2.8314	0	
1.9933	11.0501	-2.8314	0	
1.9940	9.82805	-2.21251	0	
1.9947	2.19973	-2.52195	0	
1.9953	-5.73732	-2.8314	0	
1.9960	-3.89778	-1.90307	0	
1.9967	3.42181	0.232082	0	
1.9973	2.19973	0.232082	0	
1.9980	-4.82398	-0.990215	0	
1.9987	-7.87273	-0.990215	0	
1.9993	-9.39068	0.835494	0	
2.0000	-9.09481	2.05779	0	
2.0007	-4.82398	4.50238	0	
2.0013	-5.73732	8.46325	0	
2.0020	-10.9215	10.3044	0	
2.0027	-8.78607	8.16928	0	
2.0033	-5.73732	6.32809	0	
2.0040	-9.09481	6.32809	0	
2.0047	-12.1436	6.01865	0	
2.0053	-11.2302	1.45438	0	
2.0060	-10.6128	-5.26052	0	
2.0067	-8.78607	-8.01455	0	
2.0073	-5.73732	-6.18884	0	
2.0080	-2.6757	-5.8794	0	
2.0087	2.50847	-8.324	0	
2.0093	7.69264	-8.92741	0	
2.0100	11.0501	-6.48282	0	
2.0107	11.3589	-5.8794	0	
2.0113	8.00137	-7.39567	0	
2.0120	8.00137	-4.34766	0	
2.0127	14.7164	2.97065	0	
2.0133	17.1605	6.94698	0	
2.0140	11.6676	4.81183	0	
2.0147	6.7793	2.6612	0	
2.0153	3.73054	1.74835	0	
2.0160	5.55722	2.05779	0	
2.0167	14.0989	2.6612	0	
2.0173	17.1605	2.97065	0	
2.0180	11.0501	3.58953	0	
2.0187	7.3839	5.72468	0	
2.0193	6.17469	5.1058	0	
2.0200	1.891	-0.0773606	0	
2.0207	-3.29317	-4.34766	0	
2.0213	-10.0081	-4.03822	0	
2.0220	-21.9073	-1.6091	0	
2.0227	-32.8931	-0.680773	0	
2.0233	-31.3623	-1.90307	0	
2.0240	-17.6365	-1.90307	0	
2.0247	-6.95939	-1.29966	0	
2.0253	-4.51524	-2.21251	0	
2.0260	-2.98444	-2.21251	0	
2.0267	-7.564	-1.90307	0	
2.0273	-13.9702	-1.90307	0	
2.0280	-3.89778	1.14494	0	
2.0287	16.543	6.94698	0	
2.0293	18.9872	8.77269	0	
2.0300	7.08803	7.55039	0	
2.0307	1.891	6.94698	0	
2.0313	1.59513	4.50238	0	
2.0320	-0.84902	2.05779	0	
2.0327	-4.82398	2.05779	0	
2.0333	-6.03319	2.05779	0	
2.0340	-4.51524	0.835494	0	
2.0347	-3.29317	0.232082	0	
2.0353	0.681789	0.526052	0	
2.0360	6.7793	0.232082	0	
2.0367	4.33515	-1.6091	0	
2.0373	-0.84902	-3.43481	0	
2.0380	4.02641	-1.90307	0	
2.0387	7.08803	2.6612	0	
2.0393	-2.0711	5.41524	0	
2.0400	-10.0081	4.50238	0	
2.0407	-9.09481	3.58953	0	
2.0413	-7.564	5.1058	0	
2.0420	-5.73732	6.32809	0	
2.0427	-2.37983	5.72468	0	
2.0433	-0.244415	4.19294	0	
2.0440	0.373054	1.74835	0	
2.0447	-0.84902	-0.680773	0	
2.0453	-1.15775	-0.386803	0	
2.0460	1.59513	0.835494	0	
2.0467	3.73054	1.14494	0	
2.0473	6.7793	2.6612	0	
2.0480	10.7414	3.28009	0	
2.0487	11.6676	1.45438	0	
2.0493	9.22345	-0.0773606	0	
2.0500	6.17469	-0.680773	0	
2.0507	2.50847	-2.52195	0	
2.0513	2.50847	-3.74425	0	
2.0520	3.42181	-5.8794	0	
2.0527	-1.15775	-11.0626	0	
2.0533	-2.6757	-13.1977	0	
2.0540	7.08803	-10.7531	0	
2.0547	14.7164	-8.324	0	
2.0553	10.7414	-6.18884	0	
2.0560	4.64388	-2.8314	0	
2.0567	5.24849	-0.990215	0	
2.0573	6.7793	-0.990215	0	
2.0580	3.11307	-0.386803	0	
2.0587	-2.37983	-0.680773	0	
2.0593	-2.98444	-0.680773	0	
2.0600	0.373054	2.6612	0	
2.0607	1.59513	4.50238	0	
2.0613	2.19973	1.45438	0	
2.0620	3.42181	-0.990215	0	
2.0627	1.891	0.526052	0	
2.0633	-2.98444	2.97065	0	
2.0640	-6.03319	3.28009	0	
2.0647	-7.564	0.835494	0	
2.0653	-8.78607	-3.74425	0	
2.0660	-8.1686	-4.96655	0	
2.0667	-4.51524	-0.680773	0	
2.0673	0.97766	-0.0773606	0	
2.0680	5.24849	-4.96655	0	
2.0687	4.02641	-5.8794	0	
2.0693	-3.89778	-2.8314	0	
2.0700	-10.0081	-0.990215	0	
2.0707	-7.564	0.835494	0	
2.0713	-1.15775	2.97065	0	
2.0720	2.50847	2.6612	0	
2.0727	4.64388	1.74835	0	
2.0733	3.73054	1.74835	0	
2.0740	0.97766	1.14494	0	
2.0747	0.373054	-0.0773606	0	
2.0753	0.97766	-0.680773	0	
2.0760	-0.84902	0.526052	0	
2.0767	-3.29317	1.14494	0	
2.0773	-3.29317	-0.990215	0	
2.0780	-2.98444	-0.990215	0	
2.0787	-4.20651	3.58953	0	
2.0793	-8.1686	5.1058	0	
2.0800	-12.4523	0.835494	0	
2.0807	-13.6615	-0.0773606	0	
2.0813	-10.9215	3.58953	0	
2.0820	-6.65066	3.58953	0	
2.0827	-2.98444	-0.0773606	0	
2.0833	-5.73732	-1.29966	0	
2.0840	-10.6128	1.45438	0	
2.0847	-9.09481	1.45438	0	
2.0853	-6.03319	-2.8314	0	
2.0860	-6.95939	-3.74425	0	
2.0867	-1.76236	-1.29966	0	
2.0873	6.17469	-0.680773	0	
2.0880	4.64388	-1.29966	0	
2.0887	1.891	-1.6091	0	
2.0893	7.08803	-1.6091	0	
2.0900	9.82805	0.835494	0	
2.0907	8.00137	2.6612	0	
2.0913	6.7793	-0.990215	0	
2.0920	4.33515	-3.74425	0	
2.0927	2.19973	-3.12537	0	
2.0933	4.33515	-3.74425	0	
2.0940	3.42181	-1.90307	0	
2.0947	-2.0711	2.6612	0	
2.0953	2.50847	2.6612	0	
2.0960	15.6297	2.36723	0	
2.0967	18.3697	5.72468	0	
2.0973	5.24849	4.50238	0	
2.0980	-9.39068	0.835494	0	
2.0987	-12.7482	2.6612	0	
2.0993	-8.47734	3.28009	0	
2.1000	-5.11985	1.14494	0	
2.1007	-4.20651	1.74835	0	
2.1013	-4.82398	1.14494	0	
2.1020	-4.20651	-0.680773	0	
2.1027	-4.82398	-0.0773606	0	
2.1033	-7.25526	-1.29966	0	
2.1040	-2.6757	-4.65711	0	
2.1047	8.60598	-4.03822	0	
2.1053	12.2722	-2.21251	0	
2.1060	7.08803	-0.990215	0	
2.1067	5.55722	-0.0773606	0	
2.1073	7.3839	0.526052	0	
2.1080	7.08803	0.835494	0	
2.1087	7.3839	-0.990215	0	
2.1093	6.47056	-5.8794	0	
2.1100	3.42181	-7.39567	0	
2.1107	4.33515	-5.56996	0	
2.1113	7.69264	-5.56996	0	
2.1120	5.86596	-7.1017	0	
2.1127	2.50847	-6.79226	0	
2.1133	2.19973	-5.56996	0	
2.1140	1.59513	-2.8314	0	
2.1147	-0.244415	-0.680773	0	
2.1153	-0.244415	-1.29966	0	
2.1160	-0.244415	-2.21251	0	
2.1167	-2.6757	-1.90307	0	
2.1173	-6.95939	0.232082	0	
2.1180	-9.39068	3.28009	0	
2.1187	-9.39068	3.28009	0	
2.1193	-9.39068	1.14494	0	
2.1200	-8.78607	2.05779	0	
2.1207	-6.34192	1.74835	0	
2.1213	-3.89778	-1.29966	0	
2.1220	-4.51524	-1.90307	0	
2.1227	-5.73732	-0.990215	0	
2.1233	-4.20651	-1.6091	0	
2.1240	-2.37983	-0.990215	0	
2.1247	-2.98444	1.74835	0	
2.1253	-3.89778	1.74835	0	
2.1260	-1.15775	-0.680773	0	
2.1267	2.50847	-2.52195	0	
2.1273	3.42181	-3.43481	0	
2.1280	4.64388	-3.12537	0	
2.1287	8.91471	-1.6091	0	
2.1293	11.6676	-1.6091	0	
2.1300	11.3589	-2.52195	0	
2.1307	10.7414	-2.21251	0	
2.1313	10.4455	-1.90307	0	
2.1320	6.17469	-0.680773	0	
2.1327	-0.540286	1.45438	0	
2.1333	-6.95939	1.45438	0	
2.1340	-10.0081	-0.0773606	0	
2.1347	-9.69941	1.14494	0	
2.1353	-8.47734	3.58953	0	
2.1360	-3.89778	4.50238	0	
2.1367	0.681789	4.81183	0	
2.1373	-2.98444	3.28009	0	
2.1380	-7.87273	2.36723	0	
2.1387	0.97766	3.58953	0	
2.1393	11.9635	2.6612	0	
2.1400	9.51932	-0.386803	0	
2.1407	2.50847	0.232082	0	
2.1413	2.50847	-1.90307	0	
2.1420	2.50847	-8.01455	0	
2.1427	-5.11985	-8.01455	0	
2.1433	-14.5877	-2.8314	0	
2.1440	-10.9215	-2.52195	0	
2.1447	0.97766	-4.96655	0	
2.1453	1.891	-4.96655	0	
2.1460	-5.73732	-3.43481	0	
2.1467	-3.6019	-1.90307	0	
2.1473	2.19973	-1.29966	0	
2.1480	2.50847	-2.52195	0	
2.1487	11.3589	-4.34766	0	
2.1493	25.3934	-4.65711	0	
2.1500	26.9242	-2.8314	0	
2.1507	18.6784	0.232082	0	
2.1513	15.0251	3.28009	0	
2.1520	15.6297	5.41524	0	
2.1527	14.4076	4.19294	0	
2.1533	7.08803	-0.990215	0	
2.1540	-4.82398	-3.43481	0	
2.1547	-17.019	-0.680773	0	
2.1553	-25.8694	0.835494	0	
2.1560	-27.7089	1.45438	0	
2.1567	-23.1294	2.36723	0	
2.1573	-18.5498	0.835494	0	
2.1580	-16.1057	-0.990215	0	
2.1587	-17.6365	-0.680773	0	
2.1593	-27.4002	-2.52195	0	
2.1600	-30.7577	-1.90307	0	
2.1607	-13.9702	5.1058	0	
2.1613	2.50847	8.77269	0	
2.1620	2.8172	3.8835	0	
2.1627	1.28639	0.232082	0	
2.1633	4.33515	0.835494	0	
2.1640	3.73054	-0.0773606	0	
2.1647	2.50847	-0.990215	0	
2.1653	4.64388	-0.0773606	0	
2.1660	5.55722	2.97065	0	
2.1667	4.64388	5.41524	0	
2.1673	2.8172	4.50238	0	
2.1680	0.681789	1.74835	0	
2.1687	2.50847	1.45438	0	
2.1693	6.47056	3.8835	0	
2.1700	6.17469	6.01865	0	
2.1707	4.02641	4.81183	0	
2.1713	6.17469	1.74835	0	
2.1720	10.4455	-1.90307	0	
2.1727	12.2722	-5.8794	0	
2.1733	8.31011	-8.92741	0	
2.1740	-1.15775	-7.1017	0	
2.1747	-7.564	-3.74425	0	
2.1753	-5.73732	-2.8314	0	
2.1760	-2.98444	-0.990215	0	
2.1767	-4.51524	2.6612	0	
2.1773	-7.25526	2.6612	0	
2.1780	-9.39068	-1.6091	0	
2.1787	-10.3169	-2.8314	0	
2.1793	-8.78607	-0.0773606	0	
2.1800	-9.39068	0.526052	0	
2.1807	-10.6128	-1.90307	0	
2.1813	-7.564	-2.52195	0	
2.1820	-4.20651	-1.6091	0	
2.1827	-1.46649	-0.680773	0	
2.1833	0.0643197	-0.990215	0	
2.1840	-2.6757	-2.21251	0	
2.1847	-5.11985	-1.6091	0	
2.1853	-2.98444	0.835494	0	
2.1860	-2.37983	0.835494	0	
2.1867	-2.98444	0.835494	0	
2.1873	-0.244415	3.28009	0	
2.1880	1.891	3.28009	0	
2.1887	2.50847	-0.0773606	0	
2.1893	5.24849	0.232082	0	
2.1900	6.47056	1.45438	0	
2.1907	7.08803	-0.990215	0	
2.1913	8.60598	-1.29966	0	
2.1920	5.86596	2.36723	0	
2.1927	1.891	3.8835	0	
2.1933	2.50847	1.74835	0	
2.1940	4.64388	0.835494	0	
2.1947	4.02641	2.36723	0	
2.1953	2.8172	3.58953	0	
2.1960	2.50847	3.8835	0	
2.1967	2.19973	2.6612	0	
2.1973	-0.244415	2.6612	0	
2.1980	-4.20651	4.50238	0	
2.1987	-7.564	3.58953	0	
2.1993	-10.0081	1.45438	0	
2.2000	-7.564	2.36723	0	
2.2007	0.681789	0.835494	0	
2.2013	4.95262	-6.18884	0	
2.2020	2.50847	-7.1017	0	
2.2027	-0.244415	2.05779	0	
2.2033	-3.29317	6.63754	0	
2.2040	-2.98444	1.74835	0	
2.2047	3.42181	-3.12537	0	
2.2053	0.97766	-3.43481	0	
2.2060	-13.9702	-0.680773	0	
2.2067	-18.5498	2.05779	0	
2.2073	-12.7482	0.232082	0	
2.2080	-9.39068	-3.12537	0	
2.2087	-4.82398	-2.21251	0	
2.2093	1.891	-1.29966	0	
2.2100	5.86596	-3.74425	0	
2.2107	9.22345	-3.12537	0	
2.2113	6.47056	-0.990215	0	
2.2120	-2.0711	-2.21251	0	
2.2127	-2.6757	-3.74425	0	
2.2133	2.8172	-3.43481	0	
2.2140	3.11307	-2.8314	0	
2.2147	0.0643197	-0.680773	0	
2.2153	-5.73732	0.526052	0	
2.2160	-10.6128	-0.990215	0	
2.2167	-1.46649	-0.680773	0	
2.2173	12.2722	0.232082	0	
2.2180	8.91471	-1.90307	0	
2.2187	-4.51524	-1.6091	0	
2.2193	-11.2302	3.58953	0	
2.2200	-11.5261	6.32809	0	
2.2207	-12.1436	6.32809	0	
2.2213	-11.5261	5.41524	0	
2.2220	-8.47734	3.58953	0	
2.2227	-4.20651	1.74835	0	
2.2233	-1.76236	2.05779	0	
2.2240	1.59513	1.45438	0	
2.2247	7.69264	-0.990215	0	
2.2253	9.82805	-4.34766	0	
2.2260	6.47056	-9.84026	0	
2.2267	2.8172	-11.9754	0	
2.2273	1.59513	-5.8794	0	
2.2280	3.11307	-2.52195	0	
2.2287	9.22345	-5.56996	0	
2.2293	12.8768	-4.65711	0	
2.2300	11.3589	-0.680773	0	
2.2307	9.22345	-1.90307	0	
2.2313	8.00137	-2.8314	0	
2.2320	8.91471	-0.990215	0	
2.2327	11.0501	-2.52195	0	
2.2333	11.6676	-2.21251	0	
2.2340	8.00137	-0.0773606	0	
2.2347	1.28639	-1.29966	0	
2.2353	-3.6019	-1.29966	0	
2.2360	1.59513	0.835494	0	
2.2367	13.803	0.526052	0	
2.2373	19.5918	0.835494	0	
2.2380	10.7414	0.835494	0	
2.2387	-3.89778	-3.74425	0	
2.2393	-8.78607	-4.03822	0	
2.2400	-2.0711	1.45438	0	
2.2407	-1.46649	1.74835	0	
2.2413	-13.9702	-0.990215	0	
2.2420	-25.2648	-0.680773	0	
2.2427	-22.216	-0.0773606	0	
2.2433	-10.9215	-0.680773	0	
2.2440	-4.51524	-0.386803	0	
2.2447	-5.42858	-1.6091	0	
2.2453	-6.03319	-1.90307	0	
2.2460	-4.82398	-1.6091	0	
2.2467	-2.37983	-0.990215	0	
2.2473	5.24849	0.835494	0	
2.2480	9.82805	2.36723	0	
2.2487	3.73054	1.74835	0	
2.2493	-2.37983	2.6612	0	
2.2500	0.681789	3.8835	0	
2.2507	4.64388	1.14494	0	
2.2513	4.33515	-1.90307	0	
2.2520	3.11307	-2.8314	0	
2.2527	2.50847	-1.90307	0	
2.2533	2.50847	-0.386803	0	
2.2540	0.373054	-0.680773	0	
2.2547	-2.98444	-1.90307	0	
2.2553	-3.89778	-1.6091	0	
2.2560	-1.76236	-1.90307	0	
2.2567	0.0643197	-2.8314	0	
2.2573	-2.6757	-2.52195	0	
2.2580	-8.47734	-1.90307	0	
2.2587	-10.3169	-2.8314	0	
2.2593	-7.25526	-1.29966	0	
2.2600	-7.564	0.232082	0	
2.2607	-10.3169	-0.0773606	0	
2.2613	-8.78607	0.835494	0	
2.2620	-4.82398	1.45438	0	
2.2627	-2.6757	0.835494	0	
2.2633	0.681789	0.835494	0	
2.2640	1.59513	-0.0773606	0	
2.2647	-2.0711	-2.52195	0	
2.2653	-3.89778	-1.90307	0	
2.2660	-1.15775	0.526052	0	
2.2667	-0.540286	-0.0773606	0	
2.2673	-0.540286	-1.90307	0	
2.2680	4.02641	-1.90307	0	
2.2687	8.91471	-2.52195	0	
2.2693	9.22345	-2.52195	0	
2.2700	8.91471	-0.990215	0	
2.2707	8.91471	-1.29966	0	
2.2713	7.69264	-1.90307	0	
2.2720	7.69264	-1.29966	0	
2.2727	8.91471	-1.90307	0	
2.2733	8.91471	-3.74425	0	
2.2740	8.60598	-2.8314	0	
2.2747	8.60598	-0.680773	0	
2.2753	5.24849	-0.386803	0	
2.2760	2.19973	-0.990215	0	
2.2767	2.19973	1.74835	0	
2.2773	1.59513	3.58953	0	
2.2780	0.681789	0.835494	0	
2.2787	0.97766	1.14494	0	
2.2793	-3.89778	6.32809	0	
2.2800	-13.9702	7.55039	0	
2.2807	-20.3765	4.50238	0	
2.2813	-22.5119	3.58953	0	
2.2820	-20.994	4.19294	0	
2.2827	-13.3656	2.05779	0	
2.2833	-7.25526	0.232082	0	
2.2840	-4.82398	0.526052	0	
2.2847	1.59513	1.14494	0	
2.2853	5.55722	-0.0773606	0	
2.2860	0.373054	-1.6091	0	
2.2867	-4.82398	-0.680773	0	
2.2873	-2.37983	1.45438	0	
2.2880	3.42181	0.835494	0	
2.2887	7.08803	0.526052	0	
2.2893	5.55722	2.6612	0	
2.2900	6.17469	4.50238	0	
2.2907	8.00137	1.74835	0	
2.2913	-0.244415	-2.52195	0	
2.2920	-7.564	-2.52195	0	
2.2927	3.11307	-0.386803	0	
2.2933	15.6297	-2.52195	0	
2.2940	10.1368	-6.79226	0	
2.2947	-2.37983	-5.56996	0	
2.2953	-10.3169	-0.0773606	0	
2.2960	-7.87273	-0.680773	0	
2.2967	2.50847	-4.03822	0	
2.2973	6.17469	-2.52195	0	
2.2980	-0.540286	1.14494	0	
2.2987	-3.89778	0.835494	0	
2.2993	-2.98444	-0.0773606	0	
2.3000	-5.42858	-0.680773	0	
2.3007	-5.73732	-2.8314	0	
2.3013	-3.89778	-2.21251	0	
2.3020	-5.42858	1.74835	0	
2.3027	-8.47734	4.50238	0	
2.3033	-11.5261	3.28009	0	
2.3040	-16.1057	0.835494	0	
2.3047	-14.8836	-1.29966	0	
2.3053	-5.73732	-1.29966	0	
2.3060	0.373054	-0.0773606	0	
2.3067	1.28639	0.835494	0	
2.3073	2.8172	-0.0773606	0	
2.3080	7.08803	-2.8314	0	
2.3087	11.6676	-2.52195	0	
2.3093	13.1855	0.835494	0	
2.3100	11.0501	0.526052	0	
2.3107	8.00137	-0.990215	0	
2.3113	5.24849	0.232082	0	
2.3120	2.50847	-0.0773606	0	
2.3127	2.50847	-1.6091	0	
2.3133	1.59513	-0.990215	0	
2.3140	-5.11985	0.835494	0	
2.3147	-1.15775	1.74835	0	
2.3153	17.1605	2.6612	0	
2.3160	22.6534	3.28009	0	
2.3167	9.82805	5.41524	0	
2.3173	0.97766	8.77269	0	
2.3180	-1.15775	9.99498	0	
2.3187	-2.98444	8.16928	0	
2.3193	-2.0711	4.50238	0	
2.3200	-4.82398	2.05779	0	
2.3207	-13.6615	4.50238	0	
2.3213	-19.7719	9.08213	0	
2.3220	-20.6852	9.99498	0	
2.3227	-17.6365	8.16928	0	
2.3233	-13.3656	2.97065	0	
2.3240	-13.0569	-4.34766	0	
2.3247	-9.39068	-6.79226	0	
2.3253	3.42181	-4.65711	0	
2.3260	10.7414	-3.74425	0	
2.3267	8.00137	-2.8314	0	
2.3273	8.60598	0.835494	0	
2.3280	12.5809	3.58953	0	
2.3287	12.5809	-0.0773606	0	
2.3293	10.7414	-5.8794	0	
2.3300	6.17469	-7.70511	0	
2.3307	1.891	-3.74425	0	
2.3313	3.42181	0.835494	0	
2.3320	3.42181	1.14494	0	
2.3327	1.891	1.74835	0	
2.3333	8.60598	4.50238	0	
2.3340	14.0989	3.8835	0	
2.3347	8.00137	-0.680773	0	
2.3353	3.42181	-3.43481	0	
2.3360	6.17469	-3.74425	0	
2.3367	5.24849	-4.96655	0	
2.3373	0.0643197	-6.48282	0	
2.3380	-6.03319	-3.74425	0	
2.3387	-10.3169	1.74835	0	
2.3393	-9.69941	4.50238	0	
2.3400	-7.87273	3.28009	0	
2.3407	-5.11985	1.14494	0	
2.3413	3.73054	1.74835	0	
2.3420	11.0501	4.81183	0	
2.3427	8.60598	5.41524	0	
2.3433	6.17469	2.97065	0	
2.3440	7.69264	1.45438	0	
2.3447	6.17469	1.74835	0	
2.3453	1.59513	2.97065	0	
2.3460	-5.11985	1.74835	0	
2.3467	-15.1923	-1.90307	0	
2.3473	-21.5986	-0.990215	0	
2.3480	-16.7231	1.74835	0	
2.3487	-6.03319	-0.0773606	0	
2.3493	2.50847	-2.8314	0	
2.3500	5.24849	-1.90307	0	
2.3507	4.33515	-1.6091	0	
2.3513	4.33515	-1.29966	0	
2.3520	6.47056	1.74835	0	
2.3527	8.00137	1.74835	0	
2.3533	6.47056	-0.386803	0	
2.3540	2.50847	-1.29966	0	
2.3547	-1.76236	-1.29966	0	
2.3553	-4.82398	0.232082	0	
2.3560	-5.11985	2.6612	0	
2.3567	-3.89778	1.45438	0	
2.3573	-3.89778	-0.386803	0	
2.3580	-5.42858	1.14494	0	
2.3587	-7.564	-0.0773606	0	
2.3593	-10.3169	-2.8314	0	
2.3600	-11.2302	-0.0773606	0	
2.3607	-7.87273	1.74835	0	
2.3613	-5.42858	-0.386803	0	
2.3620	-4.82398	-0.990215	0	
2.3627	-4.82398	-0.990215	0	
2.3633	-2.37983	-1.29966	0	
2.3640	2.50847	-0.0773606	0	
2.3647	5.86596	0.526052	0	
2.3653	3.73054	-0.386803	0	
2.3660	0.373054	-0.0773606	0	
2.3667	0.0643197	0.526052	0	
2.3673	2.50847	-1.29966	0	
2.3680	5.24849	-2.8314	0	
2.3687	8.60598	-3.74425	0	
2.3693	12.5809	-4.34766	0	
2.3700	13.803	-5.56996	0	
2.3707	5.55722	-6.18884	0	
2.3713	-3.29317	-2.8314	0	
2.3720	-1.46649	1.74835	0	
2.3727	3.42181	0.835494	0	
2.3733	1.59513	-2.8314	0	
2.3740	-1.15775	-3.12537	0	
2.3747	0.681789	-2.8314	0	
2.3753	2.50847	-1.90307	0	
2.3760	2.50847	-0.0773606	0	
2.3767	1.59513	-1.90307	0	
2.3773	1.28639	-8.324	0	
2.3780	-1.15775	-10.1497	0	
2.3787	-4.82398	-4.96655	0	
2.3793	-6.34192	-1.90307	0	
2.3800	-6.95939	-2.8314	0	
2.3807	-8.47734	-3.12537	0	
2.3813	-9.39068	-0.990215	0	
2.3820	-6.95939	-0.990215	0	
2.3827	-4.51524	-3.43481	0	
2.3833	-4.20651	-2.8314	0	
2.3840	-4.82398	-1.29966	0	
2.3847	-4.82398	-1.90307	0	
2.3853	-6.65066	-1.90307	0	
2.3860	-8.1686	-1.90307	0	
2.3867	-3.89778	-3.74425	0	
2.3873	-2.6757	-6.18884	0	
2.3880	-6.95939	-6.18884	0	
2.3887	4.33515	-4.65711	0	
2.3893	30.8863	-0.0773606	0	
2.3900	40.6501	5.72468	0	
2.3907	29.973	5.41524	0	
2.3913	22.9493	1.45438	0	
2.3920	18.9872	0.232082	0	
2.3927	12.5809	0.232082	0	
2.3933	7.3839	-0.0773606	0	
2.3940	0.97766	1.14494	0	
2.3947	-6.03319	2.05779	0	
2.3953	-3.29317	1.14494	0	
2.3960	2.8172	-0.386803	0	
2.3967	0.681789	-1.90307	0	
2.3973	-7.564	-1.6091	0	
2.3980	-13.9702	2.05779	0	
2.3987	-17.019	4.50238	0	
2.3993	-14.5877	6.01865	0	
2.4000	-9.09481	8.77269	0	
2.4007	-4.82398	9.99498	0	
2.4013	-2.6757	8.46325	0	
2.4020	-2.0711	8.16928	0	
2.4027	-2.37983	8.16928	0	
2.4033	-3.6019	7.55039	0	
2.4040	-4.51524	9.08213	0	
2.4047	-5.73732	6.94698	0	
2.4053	-10.3169	-3.74425	0	
2.4060	-13.0569	-12.5943	0	
2.4067	-4.82398	-14.7295	0	
2.4073	5.24849	-14.7295	0	
2.4080	8.00137	-13.8166	0	
2.4087	12.5809	-11.0626	0	
2.4093	13.803	-11.6814	0	
2.4100	-0.244415	-11.0626	0	
2.4107	-10.9215	-4.65711	0	
2.4113	2.50847	0.835494	0	
2.4120	16.8518	-0.990215	0	
2.4127	11.6676	-2.52195	0	
2.4133	6.17469	-0.386803	0	
2.4140	8.60598	-0.680773	0	
2.4147	6.47056	-1.6091	0	
2.4153	2.50847	-0.386803	0	
2.4160	4.33515	-0.0773606	0	
2.4167	3.42181	1.45438	0	
2.4173	-2.98444	4.19294	0	
2.4180	-5.42858	1.74835	0	
2.4187	-5.42858	-1.29966	0	
2.4193	-12.1436	1.74835	0	
2.4200	-18.2411	3.58953	0	
2.4207	-16.7231	1.74835	0	
2.4213	-14.279	1.14494	0	
2.4220	-14.5877	0.835494	0	
2.4227	-11.5261	-0.990215	0	
2.4233	-4.82398	-0.990215	0	
2.4240	-2.98444	-0.0773606	0	
2.4247	-4.82398	0.835494	0	
2.4253	-3.29317	2.97065	0	
2.4260	0.373054	3.8835	0	
2.4267	1.59513	2.97065	0	
2.4273	2.50847	4.19294	0	
2.4280	5.24849	4.50238	0	
2.4287	5.55722	1.74835	0	
2.4293	3.42181	1.45438	0	
2.4300	2.8172	3.58953	0	
2.4307	3.73054	0.232082	0	
2.4313	3.73054	-4.65711	0	
2.4320	2.50847	-6.48282	0	
2.4327	0.681789	-5.56996	0	
2.4333	-0.540286	-2.21251	0	
2.4340	-1.76236	2.6612	0	
2.4347	-4.51524	2.36723	0	
2.4353	-5.73732	0.835494	0	
2.4360	-3.89778	3.28009	0	
2.4367	-3.6019	2.6612	0	
2.4373	-3.89778	3.8835	0	
2.4380	-2.0711	9.08213	0	
2.4387	-2.6757	4.81183	0	
2.4393	-6.65066	-4.03822	0	
2.4400	-9.69941	-2.8314	0	
2.4407	-11.8348	2.36723	0	
2.4413	-13.6615	1.74835	0	
2.4420	-11.8348	2.36723	0	
2.4427	-8.47734	3.58953	0	
2.4433	-8.1686	2.05779	0	
2.4440	-7.564	1.45438	0	
2.4447	-2.37983	2.05779	0	
2.4453	3.42181	1.74835	0	
2.4460	5.24849	2.6612	0	
2.4467	3.73054	2.6612	0	
2.4473	3.11307	0.835494	0	
2.4480	5.24849	-1.90307	0	
2.4487	9.51932	-4.65711	0	
2.4493	11.6676	-5.26052	0	
2.4500	12.2722	-6.48282	0	
2.4507	13.1855	-9.23685	0	
2.4513	13.1855	-10.1497	0	
2.4520	11.6676	-7.39567	0	
2.4527	8.60598	-5.56996	0	
2.4533	3.73054	-4.65711	0	
2.4540	-0.540286	-2.21251	0	
2.4547	-1.76236	-0.990215	0	
2.4553	-0.244415	-1.29966	0	
2.4560	1.59513	-1.6091	0	
2.4567	1.28639	-2.52195	0	
2.4573	-2.98444	-3.43481	0	
2.4580	-8.1686	-1.6091	0	
2.4587	-9.39068	2.36723	0	
2.4593	-9.39068	4.50238	0	
2.4600	-9.39068	2.6612	0	
2.4607	-7.564	-0.0773606	0	
2.4613	-5.73732	-0.386803	0	
2.4620	-5.42858	1.14494	0	
2.4627	-4.20651	0.835494	0	
2.4633	-2.0711	-0.0773606	0	
2.4640	0.373054	0.835494	0	
2.4647	2.8172	1.74835	0	
2.4653	2.50847	2.05779	0	
2.4660	-0.244415	0.835494	0	
2.4667	0.681789	-1.29966	0	
2.4673	4.64388	-0.680773	0	
2.4680	6.7793	1.74835	0	
2.4687	7.3839	0.232082	0	
2.4693	7.69264	-1.90307	0	
2.4700	4.64388	0.232082	0	
2.4707	2.50847	2.36723	0	
2.4713	3.42181	-0.0773606	0	
2.4720	0.373054	-1.6091	0	
2.4727	-0.540286	-0.990215	0	
2.4733	2.50847	-0.386803	0	
2.4740	-5.11985	-0.990215	0	
2.4747	-15.8098	-1.90307	0	
2.4753	-2.98444	-0.990215	0	
2.4760	15.0251	1.74835	0	
2.4767	10.4455	2.36723	0	
2.4773	-0.244415	1.74835	0	
2.4780	-4.51524	1.45438	0	
2.4787	-13.3656	0.835494	0	
2.4793	-20.0806	0.232082	0	
2.4800	-14.279	0.835494	0	
2.4807	-10.3169	0.835494	0	
2.4813	-13.3656	-0.386803	0	
2.4820	-11.2302	-1.90307	0	
2.4827	-4.51524	-4.65711	0	
2.4833	-5.42858	-5.56996	0	
2.4840	-7.25526	-1.6091	0	
2.4847	1.59513	2.97065	0	
2.4853	8.91471	2.6612	0	
2.4860	8.31011	-0.0773606	0	
2.4867	9.51932	-1.6091	0	
2.4873	9.51932	-0.0773606	0	
2.4880	1.59513	1.45438	0	
2.4887	4.64388	1.45438	0	
2.4893	21.1226	1.45438	0	
2.4900	24.1714	0.835494	0	
2.4907	13.803	-0.990215	0	
2.4913	9.82805	-1.29966	0	
2.4920	10.4455	-0.386803	0	
2.4927	11.0501	-2.52195	0	
2.4933	13.1855	-3.74425	0	
2.4940	10.7414	-0.990215	0	
2.4947	5.24849	0.835494	0	
2.4953	5.24849	1.14494	0	
2.4960	5.24849	2.97065	0	
2.4967	-2.0711	2.97065	0	
2.4973	-11.8348	0.835494	0	
2.4980	-15.8098	1.14494	0	
2.4987	-16.1057	1.74835	0	
2.4993	-18.2411	2.05779	0	
2.5000	-19.1673	4.19294	0	
2.5007	-14.5877	3.58953	0	
2.5013	-10.3169	0.526052	0	
2.5020	-8.47734	1.14494	0	
2.5027	-4.82398	1.74835	0	
2.5033	-2.0711	-1.90307	0	
2.5040	-1.15775	-3.43481	0	
2.5047	1.28639	-0.680773	0	
2.5053	1.891	-0.990215	0	
2.5060	-0.244415	-2.52195	0	
2.5067	1.59513	-1.29966	0	
2.5073	4.33515	-0.990215	0	
2.5080	4.33515	-2.52195	0	
2.5087	6.17469	-1.29966	0	
2.5093	8.00137	1.45438	0	
2.5100	7.08803	2.05779	0	
2.5107	8.00137	1.74835	0	
2.5113	10.1368	2.6612	0	
2.5120	6.47056	3.8835	0	
2.5127	0.681789	3.58953	0	
2.5133	-0.540286	0.835494	0	
2.5140	1.59513	-1.90307	0	
2.5147	1.891	-3.74425	0	
2.5153	0.373054	-2.8314	0	
2.5160	-0.540286	0.835494	0	
2.5167	-1.46649	0.526052	0	
2.5173	-5.11985	-2.8314	0	
2.5180	-8.47734	-2.21251	0	
2.5187	-8.47734	-0.990215	0	
2.5193	-8.47734	-3.74425	0	
2.5200	-10.3169	-3.74425	0	
2.5207	-10.3169	0.835494	0	
2.5213	-7.564	0.835494	0	
2.5220	-2.37983	-3.12537	0	
2.5227	0.681789	-1.29966	0	
2.5233	-2.37983	3.58953	0	
2.5240	-7.564	5.41524	0	
2.5247	-8.47734	6.32809	0	
2.5253	-2.6757	6.01865	0	
2.5260	6.17469	2.05779	0	
2.5267	11.0501	-0.990215	0	
2.5273	8.00137	1.45438	0	
2.5280	4.33515	2.05779	0	
2.5287	4.95262	-3.74425	0	
2.5293	7.08803	-7.39567	0	
2.5300	9.51932	-6.79226	0	
2.5307	10.4455	-6.18884	0	
2.5313	7.3839	-4.96655	0	
2.5320	4.02641	-2.8314	0	
2.5327	-2.0711	-3.74425	0	
2.5333	-8.47734	-2.8314	0	
2.5340	-4.20651	1.45438	0	
2.5347	3.42181	-0.386803	0	
2.5353	0.681789	-7.1017	0	
2.5360	-2.37983	-6.18884	0	
2.5367	4.33515	-1.29966	0	
2.5373	9.22345	-1.6091	0	
2.5380	4.64388	-3.74425	0	
2.5387	-1.15775	-3.12537	0	
2.5393	-6.65066	0.232082	0	
2.5400	-13.9702	4.19294	0	
2.5407	-16.7231	3.8835	0	
2.5413	-10.0081	1.74835	0	
2.5420	-3.29317	2.36723	0	
2.5427	-1.15775	0.526052	0	
2.5433	7.08803	-4.03822	0	
2.5440	17.7651	-4.65711	0	
2.5447	18.3697	-4.03822	0	
2.5453	15.9384	-5.8794	0	
2.5460	13.4943	-4.96655	0	
2.5467	3.11307	-2.8314	0	
2.5473	-7.564	-3.12537	0	
2.5480	-6.95939	-2.8314	0	
2.5487	-2.98444	-1.90307	0	
2.5493	-2.0711	-2.21251	0	
2.5500	-2.6757	-0.990215	0	
2.5507	-4.82398	-0.0773606	0	
2.5513	-5.11985	-2.8314	0	
2.5520	-3.89778	-4.03822	0	
2.5527	-4.20651	-3.74425	0	
2.5533	-4.20651	-1.90307	0	
2.5540	-2.98444	-0.386803	0	
2.5547	-3.6019	-0.990215	0	
2.5553	-3.89778	-1.90307	0	
2.5560	-2.0711	1.74835	0	
2.5567	-2.0711	4.19294	0	
2.5573	-4.20651	2.36723	0	
2.5580	-7.25526	0.526052	0	
2.5587	-9.39068	1.14494	0	
2.5593	-11.5261	1.45438	0	
2.5600	-12.1436	-0.0773606	0	
2.5607	-8.78607	-0.0773606	0	
2.5613	-2.0711	1.74835	0	
2.5620	2.50847	4.19294	0	
2.5627	2.19973	3.8835	0	
2.5633	-1.76236	1.74835	0	
2.5640	-2.98444	0.526052	0	
2.5647	-0.244415	2.6612	0	
2.5653	0.97766	3.58953	0	
2.5660	-1.76236	-0.680773	0	
2.5667	-0.84902	-3.74425	0	
2.5673	5.24849	-0.990215	0	
2.5680	8.91471	-0.680773	0	
2.5687	8.31011	-4.03822	0	
2.5693	6.17469	-3.43481	0	
2.5700	5.55722	-0.0773606	0	
2.5707	6.17469	-0.0773606	0	
2.5713	4.33515	-0.990215	0	
2.5720	2.50847	-1.6091	0	
2.5727	2.19973	-2.52195	0	
2.5733	-4.20651	-1.90307	0	
2.5740	-5.73732	-0.990215	0	
2.5747	8.31011	0.232082	0	
2.5753	16.543	1.74835	0	
2.5760	6.17469	1.14494	0	
2.5767	-1.15775	-0.990215	0	
2.5773	-2.0711	-0.386803	0	
2.5780	-6.65066	1.74835	0	
2.5787	-8.47734	0.835494	0	
2.5793	-6.65066	-0.0773606	0	
2.5800	-6.65066	2.05779	0	
2.5807	-3.89778	2.97065	0	
2.5813	-0.540286	1.45438	0	
2.5820	-0.84902	0.232082	0	
2.5827	0.681789	0.835494	0	
2.5833	0.681789	0.835494	0	
2.5840	-2.6757	-0.0773606	0	
2.5847	-2.0711	-0.0773606	0	
2.5853	0.681789	1.45438	0	
2.5860	-2.0711	1.74835	0	
2.5867	-2.0711	0.835494	0	
2.5873	4.02641	-0.0773606	0	
2.5880	11.6676	-4.65711	0	
2.5887	15.321	-7.39567	0	
2.5893	8.91471	-3.12537	0	
2.5900	-1.46649	-1.29966	0	
2.5907	-2.98444	-5.56996	0	
2.5913	2.50847	-4.34766	0	
2.5920	2.50847	-1.90307	0	
2.5927	1.28639	-3.74425	0	
2.5933	2.50847	-2.8314	0	
2.5940	3.73054	1.74835	0	
2.5947	3.42181	0.835494	0	
2.5953	0.0643197	-1.29966	0	
2.5960	-3.6019	-0.680773	0	
2.5967	-5.11985	-1.29966	0	
2.5973	-5.73732	-0.0773606	0	
2.5980	-5.11985	2.6612	0	
2.5987	-4.51524	0.835494	0	
2.5993	-8.47734	-0.386803	0	
2.6000	-13.9702	2.36723	0	
2.6007	-13.0569	4.81183	0	
2.6013	-10.3169	4.19294	0	
2.6020	-8.1686	2.97065	0	
2.6027	-4.20651	3.8835	0	
2.6033	-5.73732	5.72468	0	
2.6040	-11.2302	3.58953	0	
2.6047	-9.39068	1.74835	0	
2.6053	-5.73732	5.41524	0	
2.6060	-7.564	9.08213	0	
2.6067	-6.65066	6.94698	0	
2.6073	-3.89778	3.58953	0	
2.6080	0.681789	0.835494	0	
2.6087	21.7272	2.36723	0	
2.6093	42.7855	8.16928	0	
2.6100	34.8613	8.16928	0	
2.6107	14.4076	-0.990215	0	
2.6113	9.22345	-10.1497	0	
2.6120	8.91471	-12.8883	0	
2.6127	4.33515	-11.6814	0	
2.6133	3.11307	-12.2849	0	
2.6140	2.8172	-14.7295	0	
2.6147	1.59513	-11.9754	0	
2.6153	1.59513	-5.8794	0	
2.6160	-0.244415	-3.74425	0	
2.6167	-2.98444	-2.8314	0	
2.6173	-2.37983	0.835494	0	
2.6180	-1.76236	0.526052	0	
2.6187	-3.89778	-1.90307	0	
2.6193	-7.564	1.14494	0	
2.6200	-13.0569	5.41524	0	
2.6207	-17.6365	6.01865	0	
2.6213	-19.4631	4.50238	0	
2.6220	-18.5498	1.74835	0	
2.6227	-10.3169	1.45438	0	
2.6233	6.17469	4.81183	0	
2.6240	15.9384	5.41524	0	
2.6247	8.31011	2.97065	0	
2.6253	-2.98444	3.58953	0	
2.6260	-8.47734	3.58953	0	
2.6267	-9.39068	0.232082	0	
2.6273	-5.73732	0.835494	0	
2.6280	1.59513	1.45438	0	
2.6287	8.91471	-4.65711	0	
2.6293	14.7164	-8.324	0	
2.6300	19.5918	-4.96655	0	
2.6307	25.0847	-4.34766	0	
2.6313	28.7509	-4.34766	0	
2.6320	23.5667	-0.386803	0	
2.6327	12.5809	1.74835	0	
2.6333	5.24849	0.835494	0	
2.6340	0.373054	0.835494	0	
2.6347	-7.564	-0.990215	0	
2.6353	-17.6365	-3.74425	0	
2.6360	-27.0915	-1.90307	0	
2.6367	-31.3623	-0.0773606	0	
2.6373	-28.3135	-2.21251	0	
2.6380	-22.5119	-3.74425	0	
2.6387	-14.5877	-0.990215	0	
2.6393	-6.03319	2.05779	0	
2.6400	-5.42858	2.6612	0	
2.6407	-11.2302	2.6612	0	
2.6413	-12.7482	3.28009	0	
2.6420	-10.3169	3.28009	0	
2.6427	-10.0081	1.14494	0	
2.6433	-9.69941	-0.680773	0	
2.6440	-6.95939	-0.0773606	0	
2.6447	-3.89778	1.14494	0	
2.6453	-2.37983	2.6612	0	
2.6460	-2.6757	1.74835	0	
2.6467	-1.15775	-0.990215	0	
2.6473	3.42181	-1.29966	0	
2.6480	4.95262	1.45438	0	
2.6487	5.24849	1.74835	0	
2.6493	5.55722	-0.990215	0	
2.6500	-0.84902	-3.12537	0	
2.6507	-5.11985	-2.21251	0	
2.6513	8.00137	0.526052	0	
2.6520	19.9005	1.14494	0	
2.6527	13.4943	-0.386803	0	
2.6533	6.17469	-0.680773	0	
2.6540	6.7793	-0.0773606	0	
2.6547	2.50847	-1.6091	0	
2.6553	-1.15775	-1.90307	0	
2.6560	2.8172	1.14494	0	
2.6567	5.86596	5.1058	0	
2.6573	3.11307	5.1058	0	
2.6580	-0.244415	1.74835	0	
2.6587	-2.98444	-0.0773606	0	
2.6593	-3.89778	0.526052	0	
2.6600	-2.98444	0.835494	0	
2.6607	-3.89778	1.45438	0	
2.6613	-3.89778	2.6612	0	
2.6620	-2.0711	2.6612	0	
2.6627	-0.84902	-0.0773606	0	
2.6633	-1.76236	-1.90307	0	
2.6640	-4.51524	-0.990215	0	
2.6647	-5.42858	0.232082	0	
2.6653	-2.6757	-0.0773606	0	
2.6660	-3.6019	-1.6091	0	
2.6667	-6.34192	-1.90307	0	
2.6673	-2.0711	-0.386803	0	
2.6680	2.50847	0.835494	0	
2.6687	3.11307	0.526052	0	
2.6693	9.82805	0.526052	0	
2.6700	18.6784	-0.0773606	0	
2.6707	17.1605	-2.21251	0	
2.6713	11.9635	-3.74425	0	
2.6720	9.82805	-1.6091	0	
2.6727	6.47056	-0.0773606	0	
2.6733	4.64388	0.835494	0	
2.6740	5.24849	1.74835	0	
2.6747	2.19973	1.14494	0	
2.6753	-0.540286	-1.29966	0	
2.6760	1.59513	-3.12537	0	
2.6767	2.50847	-2.21251	0	
2.6773	0.0643197	-0.0773606	0	
2.6780	-0.84902	-1.29966	0	
2.6787	-3.6019	-4.65711	0	
2.6793	-8.47734	-4.96655	0	
2.6800	-9.39068	-0.990215	0	
2.6807	-7.564	-0.0773606	0	
2.6813	-6.34192	-2.52195	0	
2.6820	-3.29317	-0.990215	0	
2.6827	-1.15775	3.28009	0	
2.6833	-2.98444	5.1058	0	
2.6840	-3.29317	4.81183	0	
2.6847	-4.20651	2.97065	0	
2.6853	-6.65066	-0.680773	0	
2.6860	-3.89778	-2.8314	0	
2.6867	0.681789	-1.29966	0	
2.6873	-2.37983	0.835494	0	
2.6880	-6.03319	0.526052	0	
2.6887	-4.82398	-1.90307	0	
2.6893	-0.540286	-3.12537	0	
2.6900	10.7414	-1.29966	0	
2.6907	25.0847	1.14494	0	
2.6913	25.7022	1.74835	0	
2.6920	17.1605	0.835494	0	
2.6927	11.9635	-0.680773	0	
2.6933	9.82805	-1.29966	0	
2.6940	5.86596	1.14494	0	
2.6947	0.681789	6.32809	0	
2.6953	-3.89778	8.16928	0	
2.6960	-3.89778	5.72468	0	
2.6967	-2.98444	4.19294	0	
2.6973	-7.564	6.63754	0	
2.6980	-12.7482	8.77269	0	
2.6987	-17.019	6.63754	0	
2.6993	-18.5498	4.50238	0	
2.7000	-10.9215	3.58953	0	
2.7007	-2.37983	-2.8314	0	
2.7013	-4.51524	-12.8883	0	
2.7020	-9.09481	-15.0389	0	
2.7027	-11.2302	-7.70511	0	
2.7033	-15.5011	-2.52195	0	
2.7040	-16.7231	-3.74425	0	
2.7047	-10.9215	-4.65711	0	
2.7053	-8.47734	-2.8314	0	
2.7060	-7.87273	-1.6091	0	
2.7067	-2.0711	-0.386803	0	
2.7073	3.42181	0.835494	0	
2.7080	7.69264	-1.90307	0	
2.7087	14.4076	-5.8794	0	
2.7093	18.6784	-7.39567	0	
2.7100	15.321	-9.23685	0	
2.7107	10.7414	-8.324	0	
2.7113	8.91471	-2.52195	0	
2.7120	7.69264	1.74835	0	
2.7127	6.47056	1.74835	0	
2.7133	4.95262	2.6612	0	
2.7140	4.33515	1.74835	0	
2.7147	5.55722	-0.990215	0	
2.7153	6.17469	0.526052	0	
2.7160	4.95262	2.05779	0	
2.7167	3.11307	-0.386803	0	
2.7173	-1.15775	-0.990215	0	
2.7180	-6.65066	1.14494	0	
2.7187	-6.95939	-0.0773606	0	
2.7193	-6.03319	-2.52195	0	
2.7200	-7.564	-2.52195	0	
2.7207	-6.65066	-1.90307	0	
2.7213	-5.11985	-1.29966	0	
2.7220	-7.87273	0.835494	0	
2.7227	-10.0081	1.74835	0	
2.7233	-6.65066	1.74835	0	
2.7240	-3.29317	2.36723	0	
2.7247	-2.37983	3.28009	0	
2.7253	-1.46649	1.14494	0	
2.7260	0.373054	-0.386803	0	
2.7267	2.50847	1.14494	0	
2.7273	3.42181	1.45438	0	
2.7280	5.24849	-2.52195	0	
2.7287	8.60598	-4.34766	0	
2.7293	5.55722	-1.90307	0	
2.7300	-6.65066	1.74835	0	
2.7307	-9.39068	3.58953	0	
2.7313	4.95262	3.28009	0	
2.7320	16.2343	3.58953	0	
2.7327	11.6676	4.50238	0	
2.7333	3.42181	3.28009	0	
2.7340	0.0643197	1.45438	0	
2.7347	-2.6757	1.14494	0	
2.7353	-3.29317	0.835494	0	
2.7360	-2.37983	0.232082	0	
2.7367	-4.82398	0.526052	0	
2.7373	-8.78607	0.835494	0	
2.7380	-10.3169	0.835494	0	
2.7387	-10.6128	1.14494	0	
2.7393	-11.5261	1.14494	0	
2.7400	-9.69941	-0.680773	0	
2.7407	-5.73732	-2.21251	0	
2.7413	-4.51524	-1.29966	0	
2.7420	-2.6757	1.45438	0	
2.7427	3.42181	3.8835	0	
2.7433	5.24849	3.58953	0	
2.7440	0.0643197	0.835494	0	
2.7447	-3.89778	-1.29966	0	
2.7453	-2.98444	-0.990215	0	
2.7460	-2.0711	-0.990215	0	
2.7467	-3.89778	-1.29966	0	
2.7473	-5.11985	0.835494	0	
2.7480	0.0643197	1.74835	0	
2.7487	10.7414	-0.0773606	0	
2.7493	19.9005	1.74835	0	
2.7500	21.4313	4.50238	0	
2.7507	16.2343	2.36723	0	
2.7513	5.86596	1.14494	0	
2.7520	-3.29317	2.6612	0	
2.7527	-5.11985	1.14494	0	
2.7533	0.681789	-0.680773	0	
2.7540	3.11307	0.835494	0	
2.7547	-1.46649	-0.680773	0	
2.7553	-3.89778	-4.96655	0	
2.7560	0.681789	-7.39567	0	
2.7567	-0.244415	-6.79226	0	
2.7573	-8.1686	-2.8314	0	
2.7580	-10.3169	1.14494	0	
2.7587	-7.564	0.526052	0	
2.7593	-8.1686	-1.29966	0	
2.7600	-12.7482	-0.386803	0	
2.7607	-14.5877	-0.990215	0	
2.7613	-11.8348	-2.8314	0	
2.7620	-10.9215	-2.21251	0	
2.7627	-14.8836	-0.386803	0	
2.7633	-17.6365	0.835494	0	
2.7640	-18.5498	0.835494	0	
2.7647	-19.7719	0.835494	0	
2.7653	-10.6128	2.97065	0	
2.7660	9.82805	6.63754	0	
2.7667	22.9493	5.72468	0	
2.7673	25.3934	1.74835	0	
2.7680	30.8863	0.835494	0	
2.7687	35.4659	-0.0773606	0	
2.7693	33.3305	-2.21251	0	
2.7700	30.5776	-1.90307	0	
2.7707	29.973	-0.386803	0	
2.7713	25.0847	-2.21251	0	
2.7720	11.6676	-2.8314	0	
2.7727	-6.34192	-0.990215	0	
2.7733	-17.019	-2.21251	0	
2.7740	-14.8836	-4.03822	0	
2.7747	-10.3169	-3.12537	0	
2.7753	-12.4523	-2.52195	0	
2.7760	-12.1436	-2.8314	0	
2.7767	-9.69941	-0.990215	0	
2.7773	-13.3656	-0.0773606	0	
2.7780	-15.8098	-0.0773606	0	
2.7787	-12.4523	0.835494	0	
2.7793	-14.8836	-0.386803	0	
2.7800	-19.1673	-3.12537	0	
2.7807	-13.6615	-1.90307	0	
2.7813	-8.47734	0.835494	0	
2.7820	-8.1686	0.526052	0	
2.7827	-5.11985	0.232082	0	
2.7833	-5.11985	0.835494	0	
2.7840	-6.34192	2.6612	0	
2.7847	0.373054	5.41524	0	
2.7853	3.42181	6.01865	0	
2.7860	-2.0711	4.19294	0	
2.7867	-1.76236	3.28009	0	
2.7873	4.33515	-0.680773	0	
2.7880	6.17469	-8.61797	0	
2.7887	4.33515	-10.1497	0	
2.7893	0.373054	-4.03822	0	
2.7900	-2.0711	-1.29966	0	
2.7907	4.64388	-3.74425	0	
2.7913	13.1855	-4.65711	0	
2.7920	11.9635	-6.18884	0	
2.7927	7.3839	-8.324	0	
2.7933	6.17469	-6.48282	0	
2.7940	4.33515	-3.43481	0	
2.7947	1.891	-2.52195	0	
2.7953	1.59513	-4.65711	0	
2.7960	4.64388	-6.48282	0	
2.7967	5.24849	-4.65711	0	
2.7973	-0.244415	-0.990215	0	
2.7980	-6.65066	-0.0773606	0	
2.7987	-8.47734	-0.990215	0	
2.7993	-9.09481	-0.680773	0	
2.8000	-7.564	-0.0773606	0	
2.8007	-3.6019	-1.29966	0	
2.8013	-4.20651	-3.12537	0	
2.8020	-11.2302	-2.8314	0	
2.8027	-17.019	-0.990215	0	
2.8033	-20.994	-1.6091	0	
2.8040	-24.9561	-3.74425	0	
2.8047	-20.994	-3.43481	0	
2.8053	-14.279	-0.0773606	0	
2.8060	-14.8836	0.526052	0	
2.8067	-7.25526	-0.680773	0	
2.8073	18.9872	-0.0773606	0	
2.8080	36.3792	1.45438	0	
2.8087	30.2817	2.6612	0	
2.8093	18.6784	3.8835	0	
2.8100	11.6676	4.50238	0	
2.8107	7.3839	3.58953	0	
2.8113	7.69264	2.05779	0	
2.8120	5.55722	1.45438	0	
2.8127	-0.244415	1.45438	0	
2.8133	-0.540286	1.14494	0	
2.8140	-0.244415	-1.6091	0	
2.8147	-2.0711	-4.34766	0	
2.8153	2.8172	-1.6091	0	
2.8160	13.1855	3.58953	0	
2.8167	14.7164	1.74835	0	
2.8173	5.86596	-3.74425	0	
2.8180	-4.82398	-3.74425	0	
2.8187	-9.39068	-0.990215	0	
2.8193	-9.69941	-0.386803	0	
2.8200	-11.2302	-1.29966	0	
2.8207	-8.1686	-1.6091	0	
2.8213	2.8172	-0.386803	0	
2.8220	9.82805	2.36723	0	
2.8227	8.91471	3.28009	0	
2.8233	9.82805	0.835494	0	
2.8240	8.91471	-0.990215	0	
2.8247	5.24849	0.232082	0	
2.8253	4.02641	1.45438	0	
2.8260	-1.15775	0.835494	0	
2.8267	-14.8836	-0.680773	0	
2.8273	-22.8206	-2.8314	0	
2.8280	-17.6365	-3.12537	0	
2.8287	-7.564	-1.6091	0	
2.8293	-0.540286	1.45438	0	
2.8300	2.19973	3.8835	0	
2.8307	3.42181	2.36723	0	
2.8313	6.17469	-0.990215	0	
2.8320	9.82805	0.835494	0	
2.8327	9.51932	4.50238	0	
2.8333	2.50847	2.05779	0	
2.8340	-3.89778	-0.990215	0	
2.8347	-1.15775	-0.990215	0	
2.8353	3.42181	-1.6091	0	
2.8360	2.19973	-3.74425	0	
2.8367	-1.15775	-3.74425	0	
2.8373	-1.46649	-0.990215	0	
2.8380	-3.6019	0.526052	0	
2.8387	-6.95939	-0.0773606	0	
2.8393	-8.1686	0.526052	0	
2.8400	-7.564	1.45438	0	
2.8407	-6.65066	-0.0773606	0	
2.8413	-3.89778	-1.29966	0	
2.8420	-1.76236	-0.990215	0	
2.8427	-3.89778	-1.90307	0	
2.8433	-8.1686	-2.52195	0	
2.8440	-7.25526	0.835494	0	
2.8447	-3.29317	0.835494	0	
2.8453	-2.98444	-2.52195	0	
2.8460	-6.03319	-1.29966	0	
2.8467	-5.73732	2.05779	0	
2.8473	2.19973	1.45438	0	
2.8480	15.321	2.36723	0	
2.8487	19.5918	7.24095	0	
2.8493	8.00137	9.3761	0	
2.8500	-2.0711	9.99498	0	
2.8507	1.59513	12.4396	0	
2.8513	6.17469	15.4876	0	
2.8520	-4.82398	16.4004	0	
2.8527	-24.9561	16.4004	0	
2.8533	-26.7956	11.8207	0	
2.8540	-5.42858	1.14494	0	
2.8547	1.59513	-11.9754	0	
2.8553	-13.0569	-19.3092	0	
2.8560	-2.0711	-13.5072	0	
2.8567	36.3792	-4.65711	0	
2.8573	45.5384	-7.39567	0	
2.8580	18.9872	-18.0869	0	
2.8587	2.19973	-22.0478	0	
2.8593	1.28639	-18.0869	0	
2.8600	-0.84902	-12.8883	0	
2.8607	-2.98444	-7.70511	0	
2.8613	-2.6757	-2.8314	0	
2.8620	-2.0711	-1.6091	0	
2.8627	-0.244415	-3.12537	0	
2.8633	0.681789	-1.6091	0	
2.8640	1.59513	2.6612	0	
2.8647	2.8172	2.97065	0	
2.8653	0.0643197	-0.680773	0	
2.8660	-6.03319	-2.52195	0	
2.8667	-5.11985	-1.6091	0	
2.8673	3.42181	-0.0773606	0	
2.8680	12.2722	0.835494	0	
2.8687	16.2343	0.526052	0	
2.8693	18.0738	-0.386803	0	
2.8700	20.518	-0.386803	0	
2.8707	18.9872	-1.90307	0	
2.8713	11.3589	-2.21251	0	
2.8720	1.891	2.05779	0	
2.8727	-10.6128	2.97065	0	
2.8733	-23.1294	-3.12537	0	
2.8740	-20.994	-5.56996	0	
2.8747	-7.25526	-2.8314	0	
2.8753	-2.37983	-0.680773	0	
2.8760	-5.42858	4.50238	0	
2.8767	-3.89778	8.46325	0	
2.8773	-4.82398	1.74835	0	
2.8780	-10.9215	-4.65711	0	
2.8787	-10.0081	-1.90307	0	
2.8793	-5.42858	1.74835	0	
2.8800	-7.25526	2.6612	0	
2.8807	-10.6128	3.58953	0	
2.8813	-13.0569	2.05779	0	
2.8820	-17.019	0.835494	0	
2.8827	-17.6365	2.36723	0	
2.8833	-14.279	1.14494	0	
2.8840	-11.2302	-0.0773606	0	
2.8847	-7.87273	3.58953	0	
2.8853	-4.51524	2.97065	0	
2.8860	-2.0711	-2.21251	0	
2.8867	0.681789	-0.990215	0	
2.8873	2.50847	4.19294	0	
2.8880	3.11307	3.28009	0	
2.8887	3.73054	0.526052	0	
2.8893	3.73054	2.36723	0	
2.8900	2.19973	2.6612	0	
2.8907	2.50847	0.232082	0	
2.8913	4.95262	0.835494	0	
2.8920	5.55722	3.58953	0	
2.8927	5.24849	1.74835	0	
2.8933	5.24849	-0.990215	0	
2.8940	3.73054	1.14494	0	
2.8947	0.681789	3.28009	0	
2.8953	-2.37983	2.36723	0	
2.8960	-3.6019	2.6612	0	
2.8967	-3.29317	2.6612	0	
2.8973	-4.82398	-0.990215	0	
2.8980	-7.87273	-2.52195	0	
2.8987	-9.39068	-0.680773	0	
2.8993	-8.47734	-0.0773606	0	
2.9000	-6.65066	0.835494	0	
2.9007	-5.11985	3.28009	0	
2.9013	-5.42858	1.74835	0	
2.9020	-5.42858	-0.990215	0	
2.9027	-2.6757	0.232082	0	
2.9033	-1.15775	2.6612	0	
2.9040	-3.89778	2.97065	0	
2.9047	-5.42858	3.28009	0	
2.9053	-3.89778	1.74835	0	
2.9060	-3.6019	-1.6091	0	
2.9067	-2.98444	-0.990215	0	
2.9073	0.681789	0.835494	0	
2.9080	4.95262	-0.680773	0	
2.9087	5.24849	-1.6091	0	
2.9093	4.02641	-0.386803	0	
2.9100	5.24849	-0.990215	0	
2.9107	10.1368	-2.21251	0	
2.9113	12.8768	-1.90307	0	
2.9120	11.6676	-2.52195	0	
2.9127	10.7414	-2.8314	0	
2.9133	10.4455	-2.21251	0	
2.9140	6.47056	-0.680773	0	
2.9147	2.50847	0.835494	0	
2.9153	0.681789	0.835494	0	
2.9160	-1.46649	-0.0773606	0	
2.9167	-3.89778	-0.0773606	0	
2.9173	-3.89778	-0.0773606	0	
2.9180	-2.37983	-1.29966	0	
2.9187	-0.244415	-2.21251	0	
2.9193	1.59513	-1.29966	0	
2.9200	-0.244415	2.05779	0	
2.9207	-3.29317	4.81183	0	
2.9213	-4.82398	4.19294	0	
2.9220	-3.89778	3.58953	0	
2.9227	-1.15775	4.50238	0	
2.9233	0.0643197	3.28009	0	
2.9240	-2.98444	-0.990215	0	
2.9247	-3.89778	-4.34766	0	
2.9253	-2.0711	-4.65711	0	
2.9260	-4.51524	-0.990215	0	
2.9267	-8.1686	0.232082	0	
2.9273	-6.65066	-4.65711	0	
2.9280	-4.20651	-10.4591	0	
2.9287	0.0643197	-12.5943	0	
2.9293	1.59513	-12.8883	0	
2.9300	-6.65066	-12.2849	0	
2.9307	-4.51524	-8.324	0	
2.9313	19.2959	-1.29966	0	
2.9320	32.713	1.74835	0	
2.9327	20.2093	-1.29966	0	
2.9333	8.60598	-3.43481	0	
2.9340	9.22345	-1.6091	0	
2.9347	9.22345	-1.29966	0	
2.9353	8.00137	-2.8314	0	
2.9360	7.3839	-2.21251	0	
2.9367	3.73054	-0.386803	0	
2.9373	0.681789	1.45438	0	
2.9380	0.681789	2.6612	0	
2.9387	0.373054	2.97065	0	
2.9393	-1.46649	3.28009	0	
2.9400	-1.15775	1.74835	0	
2.9407	-3.6019	0.526052	0	
2.9413	-11.2302	0.835494	0	
2.9420	-18.2411	1.45438	0	
2.9427	-19.4631	0.835494	0	
2.9433	-16.1057	-0.386803	0	
