0.0007	-15.8426	7.51757	0	
0.0013	-7.6036	8.74052	0	
0.0020	7.05292	7.21782	0	
0.0027	18.6383	3.8607	0	
0.0033	27.4916	0.803313	0	
0.0040	29.9484	-1.94234	0	
0.0047	25.0559	-4.37626	0	
0.0053	18.3418	-6.51043	0	
0.0060	7.66714	-5.91094	0	
0.0067	-5.14672	-2.85356	0	
0.0073	-11.2677	-1.01913	0	
0.0080	-11.5642	-2.24208	0	
0.0087	-14.9107	-4.68799	0	
0.0093	-23.1497	-2.85356	0	
0.0100	-29.5672	1.72652	0	
0.0107	-25.9031	1.72652	0	
0.0113	-13.9999	-3.76478	0	
0.0120	-4.23599	-7.43364	0	
0.0127	1.56732	-5.29947	0	
0.0133	4.29953	-2.24208	0	
0.0140	1.86383	-1.01913	0	
0.0147	-0.889557	0.203826	0	
0.0153	1.24962	0.803313	0	
0.0160	6.14218	-0.407651	0	
0.0167	6.4387	-1.01913	0	
0.0173	-0.889557	-1.33086	0	
0.0180	-4.55369	-3.46504	0	
0.0187	4.00301	-2.85356	0	
0.0193	10.717	2.02627	0	
0.0200	9.19209	3.8607	0	
0.0207	8.28135	2.94948	0	
0.0213	6.14218	3.24922	0	
0.0220	2.16035	3.56095	0	
0.0227	3.09227	5.08365	0	
0.0233	4.91374	6.60635	0	
0.0240	2.47805	2.63774	0	
0.0247	3.38879	1.11505	0	
0.0253	4.00301	7.21782	0	
0.0260	-1.4826	9.66373	0	
0.0267	-5.76094	5.38339	0	
0.0273	-5.14672	5.38339	0	
0.0280	-2.71103	5.69513	0	
0.0287	-1.80029	-0.719384	0	
0.0293	-3.02873	-4.37626	0	
0.0300	-0.275339	-1.01913	0	
0.0307	6.14218	3.24922	0	
0.0313	5.23144	3.56095	0	
0.0320	1.56732	1.72652	0	
0.0327	7.05292	0.503569	0	
0.0333	11.6278	0.803313	0	
0.0340	8.87439	1.41479	0	
0.0347	11.0136	0.803313	0	
0.0353	14.3812	-0.407651	0	
0.0360	11.9455	-1.01913	0	
0.0367	11.0136	-0.407651	0	
0.0373	10.717	-1.01913	0	
0.0380	6.4387	-1.94234	0	
0.0387	3.38879	0.803313	0	
0.0393	5.23144	3.8607	0	
0.0400	11.9455	3.8607	0	
0.0407	24.7593	3.24922	0	
0.0413	33.9091	0.803313	0	
0.0420	28.1058	-2.85356	0	
0.0427	13.767	-1.6306	0	
0.0433	4.00301	0.503569	0	
0.0440	-3.02873	-0.107908	0	
0.0447	-11.8608	1.72652	0	
0.0453	-17.9818	4.47217	0	
0.0460	-15.8426	4.16044	0	
0.0467	-13.7034	5.99487	0	
0.0473	-18.8925	6.91808	0	
0.0480	-21.6247	0.203826	0	
0.0487	-15.5249	-3.76478	0	
0.0493	-9.74277	-1.33086	0	
0.0500	-8.19663	1.11505	0	
0.0507	-5.76094	1.72652	0	
0.0513	-4.55369	2.02627	0	
0.0520	-7.6036	0.503569	0	
0.0527	-11.2677	-2.24208	0	
0.0533	-10.3358	-1.94234	0	
0.0540	-3.32525	-0.107908	0	
0.0547	1.56732	0.803313	0	
0.0553	0.0423599	1.72652	0	
0.0560	-1.18608	1.11505	0	
0.0567	0.953097	-1.94234	0	
0.0573	2.47805	-3.76478	0	
0.0580	4.29953	-3.76478	0	
0.0587	7.96365	-3.46504	0	
0.0593	7.96365	-2.24208	0	
0.0600	4.61723	0.803313	0	
0.0607	2.47805	1.41479	0	
0.0613	-2.09681	-1.01913	0	
0.0620	-5.76094	-0.407651	0	
0.0627	-4.8502	0.803313	0	
0.0633	-6.37516	-1.01913	0	
0.0640	-12.475	-1.94234	0	
0.0647	-15.2284	0.803313	0	
0.0653	-13.3857	1.72652	0	
0.0660	-11.2677	-1.94234	0	
0.0667	-7.6036	-4.68799	0	
0.0673	-5.76094	-4.37626	0	
0.0680	-6.67168	-1.94234	0	
0.0687	-6.07864	0.203826	0	
0.0693	-3.02873	2.63774	0	
0.0700	-2.09681	2.94948	0	
0.0707	-3.93947	-0.107908	0	
0.0713	-6.67168	-1.01913	0	
0.0720	-10.95	2.338	0	
0.0727	-14.9107	2.63774	0	
0.0733	-13.3857	-1.01913	0	
0.0740	-5.76094	-3.76478	0	
0.0747	-0.275339	-5.59921	0	
0.0753	1.24962	-4.68799	0	
0.0760	4.29953	-4.07651	0	
0.0767	9.80631	-5.59921	0	
0.0773	10.717	-4.68799	0	
0.0780	6.4387	-0.719384	0	
0.0787	2.47805	0.203826	0	
0.0793	1.24962	-1.94234	0	
0.0800	0.635398	-2.55381	0	
0.0807	0.0423599	-3.46504	0	
0.0813	0.635398	-3.76478	0	
0.0820	0.953097	-1.94234	0	
0.0827	-0.889557	-1.6306	0	
0.0833	-2.41451	-1.94234	0	
0.0840	-2.09681	0.203826	0	
0.0847	-3.02873	0.203826	0	
0.0853	-4.8502	-3.76478	0	
0.0860	-5.14672	-4.98773	0	
0.0867	-4.55369	-2.55381	0	
0.0873	-3.93947	-1.6306	0	
0.0880	-1.80029	-1.94234	0	
0.0887	-0.275339	-1.94234	0	
0.0893	-1.4826	-2.55381	0	
0.0900	-2.71103	-2.24208	0	
0.0907	-2.41451	-0.107908	0	
0.0913	-2.09681	1.11505	0	
0.0920	-2.41451	-0.107908	0	
0.0927	-1.80029	-1.6306	0	
0.0933	-0.275339	-0.719384	0	
0.0940	-0.275339	1.11505	0	
0.0947	-0.275339	2.02627	0	
0.0953	2.47805	1.41479	0	
0.0960	4.00301	-1.6306	0	
0.0967	2.77457	-4.07651	0	
0.0973	3.09227	-3.76478	0	
0.0980	4.00301	-3.1533	0	
0.0987	1.86383	-4.68799	0	
0.0993	-1.4826	-4.98773	0	
0.1000	-3.02873	-3.46504	0	
0.1007	-5.76094	-3.76478	0	
0.1013	-11.8608	-6.82216	0	
0.1020	-15.2284	-7.73338	0	
0.1027	-14.3176	-6.51043	0	
0.1033	-14.6142	-6.21069	0	
0.1040	-16.7533	-5.59921	0	
0.1047	-15.8426	-1.33086	0	
0.1053	-12.475	3.56095	0	
0.1060	-9.42507	5.08365	0	
0.1067	-3.62177	3.24922	0	
0.1073	2.77457	2.63774	0	
0.1080	7.05292	2.94948	0	
0.1087	11.0136	1.41479	0	
0.1093	15.9061	-1.6306	0	
0.1100	20.1845	-1.94234	0	
0.1107	25.6701	0.803313	0	
0.1113	32.3841	1.41479	0	
0.1120	35.434	-1.94234	0	
0.1127	36.3448	-4.07651	0	
0.1133	39.7124	-3.76478	0	
0.1140	43.673	-3.76478	0	
0.1147	45.4945	-2.55381	0	
0.1153	46.7229	-1.01913	0	
0.1160	50.6836	-2.85356	0	
0.1167	54.9619	-5.59921	0	
0.1173	55.2796	-4.68799	0	
0.1180	53.1405	-1.6306	0	
0.1187	51.912	-1.01913	0	
0.1193	50.3871	-3.1533	0	
0.1200	48.5656	-3.46504	0	
0.1207	47.0406	-2.85356	0	
0.1213	42.7623	-2.24208	0	
0.1220	36.3448	-1.01913	0	
0.1227	31.7699	1.72652	0	
0.1233	28.1058	3.8607	0	
0.1240	24.1451	5.69513	0	
0.1247	20.7775	5.69513	0	
0.1253	13.767	4.47217	0	
0.1260	6.14218	7.51757	0	
0.1267	7.34944	12.4094	0	
0.1273	11.3313	11.7979	0	
0.1280	7.96365	7.8293	0	
0.1287	5.23144	5.69513	0	
0.1293	7.05292	1.72652	0	
0.1300	9.19209	-4.68799	0	
0.1307	14.3812	-4.98773	0	
0.1313	20.1845	0.803313	0	
0.1320	17.4311	2.338	0	
0.1327	8.87439	-2.55381	0	
0.1333	4.29953	-3.76478	0	
0.1340	2.47805	0.203826	0	
0.1347	0.635398	2.338	0	
0.1353	-1.18608	1.11505	0	
0.1360	-2.09681	5.08365	0	
0.1367	-4.8502	12.0976	0	
0.1373	-11.2677	15.155	0	
0.1380	-17.6641	16.0663	0	
0.1387	-22.8531	17.2892	0	
0.1393	-31.0921	14.5436	0	
0.1400	-39.6488	8.12904	0	
0.1407	-35.667	4.16044	0	
0.1413	-23.4674	3.24922	0	
0.1420	-19.5067	5.08365	0	
0.1427	-24.0816	7.8293	0	
0.1433	-29.2707	7.8293	0	
0.1440	-36.2812	5.08365	0	
0.1447	-46.9559	4.16044	0	
0.1453	-55.5126	5.38339	0	
0.1460	-60.7017	8.12904	0	
0.1467	-60.384	9.352	0	
0.1473	-55.1949	9.05225	0	
0.1480	-49.7093	10.2752	0	
0.1487	-43.6095	13.6203	0	
0.1493	-38.4204	15.155	0	
0.1500	-39.6488	15.155	0	
0.1507	-40.8561	16.378	0	
0.1513	-33.5278	16.0663	0	
0.1520	-29.5672	13.6203	0	
0.1527	-33.2313	13.6203	0	
0.1533	-31.7064	11.7979	0	
0.1540	-27.7457	3.24922	0	
0.1547	-34.4598	-3.76478	0	
0.1553	-40.5596	-3.76478	0	
0.1560	-30.4779	-1.94234	0	
0.1567	-12.1785	-0.107908	0	
0.1573	-3.02873	3.8607	0	
0.1580	-9.42507	2.94948	0	
0.1587	-22.5566	-3.76478	0	
0.1593	-32.6171	-5.29947	0	
0.1600	-40.2419	1.41479	0	
0.1607	-39.6488	6.91808	0	
0.1613	-30.7956	7.8293	0	
0.1620	-28.953	7.21782	0	
0.1627	-38.7169	6.3066	0	
0.1633	-47.8878	4.77192	0	
0.1640	-49.7093	3.24922	0	
0.1647	-42.381	-0.107908	0	
0.1653	-28.6564	-0.719384	0	
0.1660	-19.189	5.08365	0	
0.1667	-13.3857	8.12904	0	
0.1673	-6.07864	1.41479	0	
0.1680	-7.2859	-7.43364	0	
0.1687	-21.0317	-7.43364	0	
0.1693	-33.2313	-0.107908	0	
0.1700	-35.667	4.47217	0	
0.1707	-32.3206	1.72652	0	
0.1713	-31.4098	-0.407651	0	
0.1720	-36.8954	3.24922	0	
0.1727	-41.4703	2.63774	0	
0.1733	-36.2812	-3.76478	0	
0.1740	-17.9818	-4.07651	0	
0.1747	0.635398	-1.01913	0	
0.1753	4.29953	-3.1533	0	
0.1760	-0.889557	-4.68799	0	
0.1767	-3.02873	-1.6306	0	
0.1773	-5.14672	-0.719384	0	
0.1780	-6.37516	-3.46504	0	
0.1787	-1.4826	-6.82216	0	
0.1793	0.953097	-8.34486	0	
0.1800	-1.18608	-5.29947	0	
0.1807	0.635398	-1.33086	0	
0.1813	2.77457	-1.01913	0	
0.1820	-1.18608	-3.76478	0	
0.1827	-3.02873	-6.21069	0	
0.1833	-1.18608	-5.91094	0	
0.1840	0.635398	-3.46504	0	
0.1847	0.953097	-5.59921	0	
0.1853	-3.02873	-10.1793	0	
0.1860	-9.12855	-7.12191	0	
0.1867	-9.12855	-2.24208	0	
0.1873	-6.07864	-3.46504	0	
0.1880	-6.37516	-3.76478	0	
0.1887	-7.6036	-1.94234	0	
0.1893	-4.55369	-3.1533	0	
0.1900	4.61723	-3.76478	0	
0.1907	9.19209	-4.07651	0	
0.1913	4.29953	-7.43364	0	
0.1920	9.48861	-6.51043	0	
0.1927	32.0664	-2.55381	0	
0.1933	43.9695	-3.46504	0	
0.1940	36.0482	-5.59921	0	
0.1947	32.6806	-4.68799	0	
0.1953	35.7305	-3.46504	0	
0.1960	27.4916	-2.55381	0	
0.1967	13.4704	-3.1533	0	
0.1973	9.80631	-4.68799	0	
0.1980	11.9455	-5.29947	0	
0.1987	8.57787	-8.65659	0	
0.1993	2.47805	-15.3708	0	
0.2000	3.68531	-15.9703	0	
0.2007	11.6278	-12.0137	0	
0.2013	16.8169	-9.86756	0	
0.2020	16.5203	-7.43364	0	
0.2027	16.5203	-6.51043	0	
0.2033	17.1134	-8.95634	0	
0.2040	17.1134	-5.91094	0	
0.2047	18.0453	-2.24208	0	
0.2053	16.8169	-4.68799	0	
0.2060	11.6278	-5.59921	0	
0.2067	15.2919	-2.24208	0	
0.2073	31.7699	-3.46504	0	
0.2080	38.7805	-4.07651	0	
0.2087	29.3342	-1.01913	0	
0.2093	22.006	-0.107908	0	
0.2100	18.956	-2.85356	0	
0.2107	11.3313	-5.91094	0	
0.2113	7.05292	-8.65659	0	
0.2120	9.48861	-7.43364	0	
0.2127	11.0136	-2.24208	0	
0.2133	15.2919	-0.719384	0	
0.2140	21.7094	-2.85356	0	
0.2147	21.7094	-2.85356	0	
0.2153	16.8169	-1.01913	0	
0.2160	16.2026	-1.01913	0	
0.2167	21.3917	-1.33086	0	
0.2173	29.0165	-1.01913	0	
0.2180	32.0664	-1.01913	0	
0.2187	28.4235	-0.107908	0	
0.2193	24.1451	2.338	0	
0.2200	22.6202	2.94948	0	
0.2207	21.0952	1.11505	0	
0.2213	19.2526	-0.107908	0	
0.2220	18.0453	0.503569	0	
0.2227	17.1134	1.41479	0	
0.2233	16.2026	1.41479	0	
0.2240	14.3812	-0.107908	0	
0.2247	11.6278	0.503569	0	
0.2253	10.717	3.56095	0	
0.2260	10.717	3.24922	0	
0.2267	9.19209	0.203826	0	
0.2273	8.28135	1.72652	0	
0.2280	8.87439	3.56095	0	
0.2287	7.96365	2.94948	0	
0.2293	4.91374	4.47217	0	
0.2300	3.38879	4.16044	0	
0.2307	7.05292	-1.01913	0	
0.2313	11.9455	-2.55381	0	
0.2320	11.6278	-1.6306	0	
0.2327	7.05292	-1.01913	0	
0.2333	7.34944	3.56095	0	
0.2340	15.9061	7.21782	0	
0.2347	21.3917	3.56095	0	
0.2353	16.5203	0.803313	0	
0.2360	9.80631	2.02627	0	
0.2367	9.48861	1.72652	0	
0.2373	10.1028	3.56095	0	
0.2380	7.96365	5.69513	0	
0.2387	6.14218	1.72652	0	
0.2393	6.7564	-0.407651	0	
0.2400	5.23144	1.11505	0	
0.2407	2.16035	-4.68799	0	
0.2413	2.77457	-11.702	0	
0.2420	4.91374	-8.65659	0	
0.2427	2.16035	-4.68799	0	
0.2433	0.953097	-4.68799	0	
0.2440	6.14218	-0.719384	0	
0.2447	8.57787	3.56095	0	
0.2453	7.05292	2.338	0	
0.2460	9.80631	-1.01913	0	
0.2467	11.0136	-2.85356	0	
0.2473	5.82448	-3.46504	0	
0.2480	1.56732	-2.55381	0	
0.2487	0.635398	-1.6306	0	
0.2493	0.338879	-1.94234	0	
0.2500	1.56732	-1.94234	0	
0.2507	2.77457	-0.719384	0	
0.2513	3.38879	1.72652	0	
0.2520	5.52796	0.803313	0	
0.2527	6.14218	-3.46504	0	
0.2533	4.29953	-3.46504	0	
0.2540	4.91374	-1.01913	0	
0.2547	6.14218	-1.6306	0	
0.2553	6.14218	2.63774	0	
0.2560	6.14218	7.21782	0	
0.2567	3.68531	-1.94234	0	
0.2573	3.09227	-11.702	0	
0.2580	9.48861	-9.25608	0	
0.2587	15.2919	-5.91094	0	
0.2593	12.5385	-6.51043	0	
0.2600	8.57787	-2.55381	0	
0.2607	7.66714	2.63774	0	
0.2613	8.28135	3.56095	0	
0.2620	8.87439	5.69513	0	
0.2627	7.05292	9.05225	0	
0.2633	-2.09681	9.05225	0	
0.2640	-17.0498	8.44078	0	
0.2647	-28.953	8.44078	0	
0.2653	-34.4598	6.91808	0	
0.2660	-34.7563	3.56095	0	
0.2667	-26.5173	4.16044	0	
0.2673	-13.9999	8.12904	0	
0.2680	-12.7927	5.38339	0	
0.2687	-22.8531	-5.29947	0	
0.2693	-24.3781	-13.5364	0	
0.2700	-17.6641	-15.9703	0	
0.2707	-16.4568	-15.6706	0	
0.2713	-6.67168	-12.0137	0	
0.2720	17.1134	-6.82216	0	
0.2727	27.4916	-3.76478	0	
0.2733	14.3812	-4.98773	0	
0.2740	1.24962	-10.1793	0	
0.2747	-3.02873	-10.7908	0	
0.2753	-5.46442	-4.68799	0	
0.2760	-4.8502	-1.01913	0	
0.2767	-2.41451	-1.94234	0	
0.2773	-5.76094	-1.33086	0	
0.2780	-10.6535	-1.01913	0	
0.2787	-11.2677	-2.24208	0	
0.2793	-8.51433	-1.94234	0	
0.2800	-4.8502	-2.85356	0	
0.2807	-2.09681	-3.76478	0	
0.2813	-1.80029	-1.01913	0	
0.2820	-5.46442	2.94948	0	
0.2827	-9.42507	3.56095	0	
0.2833	-6.67168	1.72652	0	
0.2840	0.0423599	-0.107908	0	
0.2847	1.24962	-1.6306	0	
0.2853	-2.71103	-1.01913	0	
0.2860	-4.8502	-1.01913	0	
0.2867	-5.14672	-0.107908	0	
0.2873	-5.14672	3.24922	0	
0.2880	-5.76094	4.16044	0	
0.2887	-7.6036	2.94948	0	
0.2893	-11.5642	3.8607	0	
0.2900	-18.8925	5.38339	0	
0.2907	-26.2208	4.16044	0	
0.2913	-26.2208	2.94948	0	
0.2920	-20.714	2.63774	0	
0.2927	-17.3675	1.11505	0	
0.2933	-13.3857	0.803313	0	
0.2940	-6.67168	3.56095	0	
0.2947	-2.41451	2.63774	0	
0.2953	-3.02873	-2.24208	0	
0.2960	-3.93947	-2.85356	0	
0.2967	-1.18608	1.72652	0	
0.2973	8.57787	5.38339	0	
0.2980	16.8169	7.51757	0	
0.2987	11.6278	8.12904	0	
0.2993	2.77457	6.3066	0	
0.3000	6.7564	7.21782	0	
0.3007	15.2919	11.7979	0	
0.3013	12.5385	13.9321	0	
0.3020	3.38879	13.6203	0	
0.3027	0.338879	13.9321	0	
0.3033	4.91374	11.7979	0	
0.3040	8.28135	4.47217	0	
0.3047	3.38879	-1.33086	0	
0.3053	-1.80029	-3.76478	0	
0.3060	-0.571858	-5.91094	0	
0.3067	-6.67168	-10.479	0	
0.3073	-22.2389	-15.0591	0	
0.3080	-24.9923	-18.1165	0	
0.3087	-13.0892	-19.3275	0	
0.3093	-6.98938	-17.505	0	
0.3100	-4.23599	-11.702	0	
0.3107	2.47805	-6.51043	0	
0.3113	4.00301	-3.76478	0	
0.3120	3.38879	-2.85356	0	
0.3127	8.57787	-3.46504	0	
0.3133	8.57787	-3.76478	0	
0.3140	4.00301	-3.46504	0	
0.3147	7.05292	-1.94234	0	
0.3153	7.66714	1.11505	0	
0.3160	-4.8502	4.47217	0	
0.3167	-11.8608	6.3066	0	
0.3173	-5.76094	6.91808	0	
0.3180	0.0423599	5.08365	0	
0.3187	1.56732	0.503569	0	
0.3193	-0.889557	-0.107908	0	
0.3200	-10.95	5.08365	0	
0.3207	-19.5067	5.38339	0	
0.3213	-17.6641	-0.107908	0	
0.3220	-14.9107	-1.6306	0	
0.3227	-17.3675	-1.01913	0	
0.3233	-17.6641	-3.76478	0	
0.3240	-15.8426	-4.68799	0	
0.3247	-13.0892	-1.01913	0	
0.3253	-8.81085	0.203826	0	
0.3260	-6.98938	-0.107908	0	
0.3267	-7.2859	1.41479	0	
0.3273	-4.55369	1.11505	0	
0.3280	-4.55369	-2.85356	0	
0.3287	-9.12855	-5.59921	0	
0.3293	-8.51433	-3.76478	0	
0.3300	-3.02873	-0.107908	0	
0.3307	0.338879	0.803313	0	
0.3313	1.56732	-1.01913	0	
0.3320	-4.8502	-1.6306	0	
0.3327	-15.5249	-1.01913	0	
0.3333	-13.3857	1.11505	0	
0.3340	-2.41451	4.47217	0	
0.3347	0.635398	5.99487	0	
0.3353	1.24962	5.38339	0	
0.3360	3.38879	3.24922	0	
0.3367	-0.889557	-0.107908	0	
0.3373	-5.46442	-2.85356	0	
0.3380	-2.09681	-2.85356	0	
0.3387	-2.71103	-4.98773	0	
0.3393	-6.67168	-8.34486	0	
0.3400	-0.275339	-6.82216	0	
0.3407	9.80631	-3.76478	0	
0.3413	6.7564	-2.85356	0	
0.3420	-5.46442	-1.6306	0	
0.3427	-9.74277	1.72652	0	
0.3433	-2.09681	2.94948	0	
0.3440	4.91374	2.63774	0	
0.3447	2.47805	2.63774	0	
0.3453	-4.8502	3.24922	0	
0.3460	-7.2859	1.11505	0	
0.3467	-4.55369	-0.719384	0	
0.3473	-4.23599	2.338	0	
0.3480	-6.37516	6.91808	0	
0.3487	-4.23599	5.08365	0	
0.3493	-2.09681	-0.107908	0	
0.3500	-3.93947	-1.01913	0	
0.3507	-3.02873	0.803313	0	
0.3513	1.24962	0.803313	0	
0.3520	1.56732	0.803313	0	
0.3527	-0.275339	0.203826	0	
0.3533	1.24962	-1.01913	0	
0.3540	3.09227	-0.407651	0	
0.3547	4.29953	1.72652	0	
0.3553	7.05292	2.63774	0	
0.3560	8.87439	3.56095	0	
0.3567	9.48861	4.47217	0	
0.3573	8.87439	2.338	0	
0.3580	7.34944	-0.407651	0	
0.3587	7.05292	-1.01913	0	
0.3593	7.05292	-1.6306	0	
0.3600	3.68531	-2.85356	0	
0.3607	1.24962	-3.76478	0	
0.3613	1.56732	-3.46504	0	
0.3620	1.56732	-1.94234	0	
0.3627	0.0423599	0.803313	0	
0.3633	0.635398	1.72652	0	
0.3640	2.47805	0.803313	0	
0.3647	-0.571858	-0.407651	0	
0.3653	-4.55369	-0.107908	0	
0.3660	-3.93947	1.11505	0	
0.3667	-3.93947	2.338	0	
0.3673	-7.2859	2.94948	0	
0.3680	-5.46442	1.72652	0	
0.3687	-2.41451	-1.01913	0	
0.3693	-1.4826	-1.6306	0	
0.3700	6.14218	1.11505	0	
0.3707	16.2026	2.63774	0	
0.3713	15.5884	1.41479	0	
0.3720	12.5385	0.203826	0	
0.3727	12.8562	0.203826	0	
0.3733	10.717	1.11505	0	
0.3740	11.3313	1.72652	0	
0.3747	14.3812	1.41479	0	
0.3753	7.66714	-1.01913	0	
0.3760	-3.62177	-3.76478	0	
0.3767	-7.6036	-4.68799	0	
0.3773	-5.76094	-3.1533	0	
0.3780	-0.275339	-0.407651	0	
0.3787	6.14218	-0.407651	0	
0.3793	8.28135	-2.85356	0	
0.3800	6.14218	-3.76478	0	
0.3807	2.77457	-2.55381	0	
0.3813	-1.80029	-1.01913	0	
0.3820	-5.76094	-1.33086	0	
0.3827	-7.90012	-1.94234	0	
0.3833	-9.42507	-1.94234	0	
0.3840	-7.90012	-2.55381	0	
0.3847	-4.8502	-4.68799	0	
0.3853	-5.76094	-6.51043	0	
0.3860	-7.90012	-4.68799	0	
0.3867	-5.76094	-1.6306	0	
0.3873	-3.02873	-1.94234	0	
0.3880	-3.93947	-5.29947	0	
0.3887	-5.46442	-4.98773	0	
0.3893	-4.55369	-1.6306	0	
0.3900	-3.02873	-2.55381	0	
0.3907	-2.09681	-6.51043	0	
0.3913	-3.62177	-3.76478	0	
0.3920	-5.76094	1.72652	0	
0.3927	-3.93947	1.11505	0	
0.3933	0.953097	-0.407651	0	
0.3940	2.47805	1.11505	0	
0.3947	2.77457	0.803313	0	
0.3953	4.61723	-0.107908	0	
0.3960	3.38879	1.72652	0	
0.3967	2.77457	2.63774	0	
0.3973	6.4387	2.63774	0	
0.3980	7.34944	2.63774	0	
0.3987	4.00301	0.203826	0	
0.3993	4.91374	-1.01913	0	
0.4000	6.14218	2.63774	0	
0.4007	3.38879	4.16044	0	
0.4013	4.00301	1.11505	0	
0.4020	5.52796	-0.107908	0	
0.4027	2.47805	0.203826	0	
0.4033	0.953097	-0.407651	0	
0.4040	2.77457	-1.6306	0	
0.4047	2.16035	-1.94234	0	
0.4053	0.0423599	-1.33086	0	
0.4060	2.16035	0.203826	0	
0.4067	7.05292	2.338	0	
0.4073	11.0136	4.47217	0	
0.4080	10.3993	5.38339	0	
0.4087	9.80631	4.77192	0	
0.4093	11.6278	5.99487	0	
0.4100	6.14218	8.44078	0	
0.4107	-9.12855	9.96347	0	
0.4113	-17.3675	8.12904	0	
0.4120	-14.9107	2.338	0	
0.4127	-9.42507	-2.85356	0	
0.4133	0.338879	-1.33086	0	
0.4140	7.96365	0.803313	0	
0.4147	6.14218	-2.24208	0	
0.4153	5.52796	-2.55381	0	
0.4160	11.0136	2.63774	0	
0.4167	9.80631	3.56095	0	
0.4173	4.29953	-2.24208	0	
0.4180	5.23144	-5.59921	0	
0.4187	6.14218	-5.59921	0	
0.4193	4.29953	-3.76478	0	
0.4200	7.05292	-2.24208	0	
0.4207	9.19209	-3.46504	0	
0.4213	6.4387	-3.1533	0	
0.4220	6.14218	-0.407651	0	
0.4227	7.66714	0.203826	0	
0.4233	6.14218	0.503569	0	
0.4240	3.38879	1.11505	0	
0.4247	-1.4826	-0.107908	0	
0.4253	-11.2677	-1.01913	0	
0.4260	-16.1391	0.203826	0	
0.4267	-12.7927	0.803313	0	
0.4273	-10.3358	0.803313	0	
0.4280	-11.2677	4.16044	0	
0.4287	-8.51433	5.69513	0	
0.4293	-5.76094	2.338	0	
0.4300	-5.76094	-0.407651	0	
0.4307	-0.275339	-1.01913	0	
0.4313	9.80631	-1.33086	0	
0.4320	12.8562	-1.94234	0	
0.4327	9.48861	-1.94234	0	
0.4333	6.4387	-0.719384	0	
0.4340	2.77457	0.503569	0	
0.4347	-1.80029	0.503569	0	
0.4353	-5.76094	-0.107908	0	
0.4360	-11.2677	1.72652	0	
0.4367	-10.95	2.94948	0	
0.4373	2.77457	3.56095	0	
0.4380	13.4704	4.16044	0	
0.4387	7.05292	3.24922	0	
0.4393	-0.275339	0.203826	0	
0.4400	-0.275339	-0.719384	0	
0.4407	-1.18608	-1.01913	0	
0.4413	-3.93947	-1.6306	0	
0.4420	-3.02873	1.11505	0	
0.4427	-1.4826	2.02627	0	
0.4433	-2.09681	-2.55381	0	
0.4440	-3.93947	-1.33086	0	
0.4447	-7.2859	4.16044	0	
0.4453	-9.74277	0.803313	0	
0.4460	-11.2677	-2.85356	0	
0.4467	-11.2677	0.803313	0	
0.4473	-8.19663	1.72652	0	
0.4480	-5.46442	1.41479	0	
0.4487	-7.6036	2.94948	0	
0.4493	-8.81085	-0.107908	0	
0.4500	-6.07864	-1.94234	0	
0.4507	-2.09681	2.63774	0	
0.4513	0.635398	3.56095	0	
0.4520	4.61723	2.02627	0	
0.4527	8.87439	2.63774	0	
0.4533	9.80631	1.11505	0	
0.4540	9.80631	-1.01913	0	
0.4547	11.0136	-1.6306	0	
0.4553	8.87439	-3.1533	0	
0.4560	4.29953	-2.85356	0	
0.4567	4.29953	-0.107908	0	
0.4573	4.00301	-1.01913	0	
0.4580	1.56732	-1.33086	0	
0.4587	-0.275339	1.72652	0	
0.4593	-6.07864	0.803313	0	
0.4600	-11.5642	-1.33086	0	
0.4607	-4.8502	-1.01913	0	
0.4613	3.38879	-1.01913	0	
0.4620	1.86383	-0.107908	0	
0.4627	2.16035	0.803313	0	
0.4633	6.14218	0.203826	0	
0.4640	2.77457	0.803313	0	
0.4647	-3.62177	0.803313	0	
0.4653	-5.46442	-0.407651	0	
0.4660	-6.37516	2.02627	0	
0.4667	-6.37516	4.16044	0	
0.4673	-6.67168	0.203826	0	
0.4680	-9.74277	-2.85356	0	
0.4687	-9.42507	-1.94234	0	
0.4693	-4.8502	-1.01913	0	
0.4700	-3.93947	-0.719384	0	
0.4707	-3.02873	-0.107908	0	
0.4713	0.338879	-2.24208	0	
0.4720	0.635398	-3.76478	0	
0.4727	1.86383	-2.55381	0	
0.4733	6.14218	-1.33086	0	
0.4740	4.00301	-0.107908	0	
0.4747	-2.71103	3.56095	0	
0.4753	-1.18608	3.56095	0	
0.4760	5.52796	-1.94234	0	
0.4767	8.57787	-4.07651	0	
0.4773	7.05292	-1.01913	0	
0.4780	4.29953	0.203826	0	
0.4787	0.953097	-0.407651	0	
0.4793	-1.4826	-0.407651	0	
0.4800	-2.09681	-3.46504	0	
0.4807	-1.18608	-8.65659	0	
0.4813	0.635398	-10.1793	0	
0.4820	0.0423599	-7.43364	0	
0.4827	-1.4826	-5.91094	0	
0.4833	-0.571858	-3.76478	0	
0.4840	-0.571858	-0.107908	0	
0.4847	-5.46442	-0.107908	0	
0.4853	-8.51433	-3.46504	0	
0.4860	-7.90012	-3.46504	0	
0.4867	-8.51433	0.203826	0	
0.4873	-7.6036	2.63774	0	
0.4880	-3.32525	2.63774	0	
0.4887	-2.71103	-1.01913	0	
0.4893	-7.6036	-5.59921	0	
0.4900	-9.12855	-4.68799	0	
0.4907	-5.76094	0.203826	0	
0.4913	-6.37516	1.11505	0	
0.4920	-6.98938	-0.107908	0	
0.4927	-1.18608	-0.407651	0	
0.4933	3.09227	-1.33086	0	
0.4940	-2.41451	-1.6306	0	
0.4947	-3.02873	-1.33086	0	
0.4953	10.717	-1.01913	0	
0.4960	19.5703	0.503569	0	
0.4967	14.3812	0.803313	0	
0.4973	11.3313	-2.55381	0	
0.4980	13.1527	-3.1533	0	
0.4987	10.3993	0.803313	0	
0.4993	5.23144	3.8607	0	
0.5000	3.38879	3.56095	0	
0.5007	1.56732	3.8607	0	
0.5013	0.0423599	3.24922	0	
0.5020	2.16035	-0.719384	0	
0.5027	0.338879	-4.07651	0	
0.5033	-10.95	-2.85356	0	
0.5040	-22.2389	2.02627	0	
0.5047	-22.2389	2.94948	0	
0.5053	-14.9107	0.203826	0	
0.5060	-11.2677	1.41479	0	
0.5067	-10.3358	3.56095	0	
0.5073	-9.12855	0.803313	0	
0.5080	-6.67168	-1.01913	0	
0.5087	-6.37516	1.41479	0	
0.5093	-9.12855	2.63774	0	
0.5100	-10.0393	2.338	0	
0.5107	-8.19663	3.56095	0	
0.5113	-9.12855	3.56095	0	
0.5120	-9.42507	0.803313	0	
0.5127	-3.02873	-2.55381	0	
0.5133	0.0423599	-7.12191	0	
0.5140	-2.09681	-9.25608	0	
0.5147	6.14218	-4.68799	0	
0.5153	20.7775	-1.33086	0	
0.5160	21.7094	-2.85356	0	
0.5167	13.4704	-3.46504	0	
0.5173	7.96365	-1.94234	0	
0.5180	1.86383	-2.24208	0	
0.5187	-1.18608	-2.55381	0	
0.5193	3.09227	-1.01913	0	
0.5200	4.61723	0.503569	0	
0.5207	4.29953	0.803313	0	
0.5213	7.96365	-0.107908	0	
0.5220	5.82448	-0.719384	0	
0.5227	0.635398	1.41479	0	
0.5233	1.56732	2.338	0	
0.5240	1.56732	-1.33086	0	
0.5247	-0.275339	-4.68799	0	
0.5253	6.14218	-4.07651	0	
0.5260	12.5385	-1.01913	0	
0.5267	6.14218	2.02627	0	
0.5273	-3.93947	2.94948	0	
0.5280	-12.1785	2.02627	0	
0.5287	-16.1391	2.338	0	
0.5293	-10.95	2.63774	0	
0.5300	-3.02873	1.72652	0	
0.5307	-2.09681	3.8607	0	
0.5313	-3.93947	8.44078	0	
0.5320	-3.02873	8.74052	0	
0.5327	0.0423599	4.16044	0	
0.5333	5.23144	-0.407651	0	
0.5340	4.61723	-2.24208	0	
0.5347	-3.02873	-3.1533	0	
0.5353	-9.42507	-4.07651	0	
0.5360	-10.95	-3.76478	0	
0.5367	-9.42507	-1.01913	0	
0.5373	-3.93947	-1.01913	0	
0.5380	3.38879	-2.85356	0	
0.5387	5.23144	-0.407651	0	
0.5393	1.24962	1.41479	0	
0.5400	-3.02873	-1.01913	0	
0.5407	-2.09681	-3.76478	0	
0.5413	-0.275339	-2.85356	0	
0.5420	-0.889557	-1.94234	0	
0.5427	-2.41451	-1.01913	0	
0.5433	-3.02873	-0.107908	0	
0.5440	-3.32525	0.803313	0	
0.5447	-3.62177	1.72652	0	
0.5453	-4.8502	3.24922	0	
0.5460	-5.76094	1.72652	0	
0.5467	-5.46442	-1.94234	0	
0.5473	-6.67168	-1.01913	0	
0.5480	-7.6036	5.99487	0	
0.5487	-3.93947	8.44078	0	
0.5493	-0.275339	4.16044	0	
0.5500	-1.18608	2.338	0	
0.5507	-1.4826	4.16044	0	
0.5513	0.338879	0.803313	0	
0.5520	1.86383	-4.68799	0	
0.5527	2.47805	-4.37626	0	
0.5533	1.24962	-1.01913	0	
0.5540	0.338879	-0.107908	0	
0.5547	3.09227	-1.33086	0	
0.5553	3.38879	-3.76478	0	
0.5560	-1.80029	-3.76478	0	
0.5567	-1.80029	-1.33086	0	
0.5573	3.09227	0.203826	0	
0.5580	4.29953	-0.407651	0	
0.5587	4.61723	0.803313	0	
0.5593	6.4387	2.94948	0	
0.5600	5.52796	2.63774	0	
0.5607	4.91374	1.11505	0	
0.5613	7.05292	-1.6306	0	
0.5620	6.4387	-3.46504	0	
0.5627	5.23144	-1.01913	0	
0.5633	5.52796	1.41479	0	
0.5640	1.56732	-0.407651	0	
0.5647	-6.07864	-1.01913	0	
0.5653	-6.98938	-0.107908	0	
0.5660	-1.80029	-0.719384	0	
0.5667	2.16035	-1.01913	0	
0.5673	2.47805	0.803313	0	
0.5680	-1.18608	3.56095	0	
0.5687	-5.14672	7.8293	0	
0.5693	-2.09681	10.8747	0	
0.5700	4.29953	7.21782	0	
0.5707	0.953097	1.11505	0	
0.5713	-6.67168	-1.33086	0	
0.5720	-3.62177	0.203826	0	
0.5727	4.29953	2.63774	0	
0.5733	4.91374	1.72652	0	
0.5740	2.47805	-0.407651	0	
0.5747	0.635398	-0.719384	0	
0.5753	-5.14672	0.803313	0	
0.5760	-9.42507	2.338	0	
0.5767	-6.67168	2.94948	0	
0.5773	-3.02873	2.02627	0	
0.5780	-2.09681	1.72652	0	
0.5787	0.338879	2.63774	0	
0.5793	2.77457	3.56095	0	
0.5800	4.29953	2.63774	0	
0.5807	4.29953	0.803313	0	
0.5813	-0.571858	-0.107908	0	
0.5820	-7.6036	3.8607	0	
0.5827	-7.2859	5.99487	0	
0.5833	-3.02873	0.803313	0	
0.5840	-6.98938	-3.76478	0	
0.5847	-17.0498	-1.6306	0	
0.5853	-21.6247	3.8607	0	
0.5860	-18.8925	4.16044	0	
0.5867	-13.7034	-5.91094	0	
0.5873	-10.3358	-17.8048	0	
0.5880	-10.95	-17.505	0	
0.5887	-7.6036	-8.65659	0	
0.5893	4.91374	-1.94234	0	
0.5900	14.0635	0.803313	0	
0.5907	8.87439	0.503569	0	
0.5913	1.24962	-1.94234	0	
0.5920	-1.4826	-2.55381	0	
0.5927	-3.62177	-1.94234	0	
0.5933	0.0423599	-3.1533	0	
0.5940	12.5385	-4.68799	0	
0.5947	20.1845	-3.76478	0	
0.5953	15.5884	-1.94234	0	
0.5960	11.6278	-0.719384	0	
0.5967	12.242	1.72652	0	
0.5973	8.57787	4.47217	0	
0.5980	4.61723	4.47217	0	
0.5987	7.34944	0.803313	0	
0.5993	9.80631	-0.719384	0	
0.6000	6.7564	0.203826	0	
0.6007	1.86383	-0.107908	0	
0.6013	-0.275339	-0.719384	0	
0.6020	1.24962	0.203826	0	
0.6027	2.77457	0.803313	0	
0.6033	2.16035	-0.719384	0	
0.6040	1.56732	-1.01913	0	
0.6047	4.00301	2.02627	0	
0.6053	3.09227	3.56095	0	
0.6060	-4.55369	3.56095	0	
0.6067	-10.95	5.69513	0	
0.6073	-10.3358	5.38339	0	
0.6080	-6.98938	-0.719384	0	
0.6087	-5.76094	-3.46504	0	
0.6093	-5.76094	-2.24208	0	
0.6100	-3.93947	-2.85356	0	
0.6107	-1.80029	-2.55381	0	
0.6113	0.0423599	-0.407651	0	
0.6120	1.86383	-1.94234	0	
0.6127	4.29953	-2.55381	0	
0.6133	7.96365	0.803313	0	
0.6140	9.19209	1.11505	0	
0.6147	8.57787	-1.33086	0	
0.6153	7.96365	-0.107908	0	
0.6160	5.52796	1.41479	0	
0.6167	1.86383	-0.719384	0	
0.6173	2.16035	-1.6306	0	
0.6180	2.47805	0.503569	0	
0.6187	-3.02873	2.02627	0	
0.6193	-5.14672	1.72652	0	
0.6200	-1.18608	-0.407651	0	
0.6207	-2.09681	-2.55381	0	
0.6213	-5.46442	-2.85356	0	
0.6220	-5.14672	-1.94234	0	
0.6227	-5.76094	-2.55381	0	
0.6233	-6.07864	-3.46504	0	
0.6240	-3.62177	-2.55381	0	
0.6247	-5.46442	-2.85356	0	
0.6253	-11.2677	-4.07651	0	
0.6260	-12.1785	-1.94234	0	
0.6267	-10.6535	1.41479	0	
0.6273	-10.3358	1.72652	0	
0.6280	-11.8608	1.11505	0	
0.6287	-12.1785	0.803313	0	
0.6293	-9.12855	1.72652	0	
0.6300	-5.14672	3.8607	0	
0.6307	-6.07864	2.338	0	
0.6313	-6.37516	-1.94234	0	
0.6320	-3.02873	-3.46504	0	
0.6327	0.0423599	-3.76478	0	
0.6333	4.91374	-3.76478	0	
0.6340	11.6278	-1.01913	0	
0.6347	13.4704	1.11505	0	
0.6353	12.5385	-1.6306	0	
0.6360	15.5884	-3.46504	0	
0.6367	18.3418	-1.6306	0	
0.6373	16.8169	-0.719384	0	
0.6380	14.3812	-2.55381	0	
0.6387	10.717	-1.94234	0	
0.6393	6.7564	2.63774	0	
0.6400	2.16035	2.63774	0	
0.6407	-5.14672	-2.85356	0	
0.6413	-10.95	-5.59921	0	
0.6420	-10.3358	-4.68799	0	
0.6427	-9.42507	-5.59921	0	
0.6433	-13.0892	-4.68799	0	
0.6440	-14.3176	-1.01913	0	
0.6447	-10.6535	1.72652	0	
0.6453	-8.19663	3.56095	0	
0.6460	-9.42507	3.56095	0	
0.6467	-11.8608	0.503569	0	
0.6473	-13.3857	0.503569	0	
0.6480	-10.3358	2.63774	0	
0.6487	-6.67168	-0.107908	0	
0.6493	-7.6036	-3.76478	0	
0.6500	-8.51433	-3.46504	0	
0.6507	-5.14672	-2.85356	0	
0.6513	-2.09681	-2.85356	0	
0.6520	-0.275339	-2.24208	0	
0.6527	3.38879	-1.01913	0	
0.6533	4.29953	0.503569	0	
0.6540	3.38879	1.72652	0	
0.6547	4.29953	1.41479	0	
0.6553	5.23144	2.94948	0	
0.6560	6.4387	3.8607	0	
0.6567	9.80631	0.803313	0	
0.6573	12.242	-2.24208	0	
0.6580	13.4704	-2.55381	0	
0.6587	16.5203	-1.94234	0	
0.6593	19.8668	-0.107908	0	
0.6600	20.1845	1.41479	0	
0.6607	16.5203	-1.94234	0	
0.6613	13.767	-2.55381	0	
0.6620	17.1134	2.94948	0	
0.6627	21.0952	5.38339	0	
0.6633	17.4311	1.11505	0	
0.6640	2.16035	-0.719384	0	
0.6647	-22.2389	0.803313	0	
0.6653	-40.5596	0.803313	0	
0.6660	-38.7169	-1.33086	0	
0.6667	-23.1497	-1.94234	0	
0.6673	-7.6036	-1.01913	0	
0.6680	-3.02873	-0.107908	0	
0.6687	-10.95	1.11505	0	
0.6693	-13.9999	1.72652	0	
0.6700	-6.37516	2.63774	0	
0.6707	-3.62177	4.47217	0	
0.6713	-8.19663	3.56095	0	
0.6720	-9.42507	0.203826	0	
0.6727	-8.51433	0.803313	0	
0.6733	-2.09681	6.3066	0	
0.6740	8.87439	8.12904	0	
0.6747	10.717	3.56095	0	
0.6753	4.91374	0.503569	0	
0.6760	7.05292	-1.01913	0	
0.6767	11.6278	-4.37626	0	
0.6773	10.3993	-5.29947	0	
0.6780	9.48861	-1.94234	0	
0.6787	11.3313	0.503569	0	
0.6793	10.717	-0.107908	0	
0.6800	8.87439	-1.33086	0	
0.6807	6.7564	-1.94234	0	
0.6813	4.91374	-1.94234	0	
0.6820	3.09227	-3.46504	0	
0.6827	2.77457	-5.59921	0	
0.6833	3.68531	-5.59921	0	
0.6840	0.635398	-3.46504	0	
0.6847	-4.55369	-0.719384	0	
0.6853	-4.55369	0.803313	0	
0.6860	-3.32525	-1.01913	0	
0.6867	-4.55369	-2.24208	0	
0.6873	-4.23599	-0.107908	0	
0.6880	-3.93947	1.11505	0	
0.6887	-4.55369	0.803313	0	
0.6893	1.24962	-1.01913	0	
0.6900	11.9455	-4.68799	0	
0.6907	16.2026	-7.43364	0	
0.6913	7.34944	-3.76478	0	
0.6920	-7.90012	0.503569	0	
0.6927	-18.2783	0.803313	0	
0.6933	-15.8426	0.803313	0	
0.6940	-5.76094	0.203826	0	
0.6947	2.47805	-2.24208	0	
0.6953	5.82448	-2.85356	0	
0.6960	6.14218	-1.94234	0	
0.6967	5.23144	-1.94234	0	
0.6973	6.7564	-3.1533	0	
0.6980	7.96365	-3.76478	0	
0.6987	7.05292	-1.94234	0	
0.6993	4.29953	1.72652	0	
0.7000	3.68531	2.02627	0	
0.7007	5.23144	-0.719384	0	
0.7013	3.38879	-1.33086	0	
0.7020	0.338879	1.11505	0	
0.7027	-0.275339	3.8607	0	
0.7033	0.635398	5.38339	0	
0.7040	-2.41451	5.38339	0	
0.7047	-7.90012	2.63774	0	
0.7053	-11.5642	-1.94234	0	
0.7060	-11.2677	-2.85356	0	
0.7067	-7.2859	0.503569	0	
0.7073	-2.41451	2.338	0	
0.7080	-0.275339	2.02627	0	
0.7087	-1.18608	4.47217	0	
0.7093	-2.09681	5.99487	0	
0.7100	-2.41451	2.63774	0	
0.7107	-2.09681	1.11505	0	
0.7113	1.24962	2.63774	0	
0.7120	6.14218	-1.94234	0	
0.7127	7.05292	-6.82216	0	
0.7133	2.16035	-2.85356	0	
0.7140	-0.889557	0.803313	0	
0.7147	-1.80029	-0.719384	0	
0.7153	-5.46442	-0.719384	0	
0.7160	-6.37516	0.803313	0	
0.7167	0.953097	-1.6306	0	
0.7173	6.4387	-4.37626	0	
0.7180	5.23144	-4.37626	0	
0.7187	4.29953	-2.85356	0	
0.7193	3.09227	0.203826	0	
0.7200	-0.571858	2.63774	0	
0.7207	-1.18608	3.56095	0	
0.7213	3.38879	4.16044	0	
0.7220	7.05292	2.63774	0	
0.7227	6.14218	0.803313	0	
0.7233	2.47805	0.803313	0	
0.7240	-1.4826	0.803313	0	
0.7247	-0.889557	0.203826	0	
0.7253	3.09227	1.72652	0	
0.7260	2.77457	0.203826	0	
0.7267	-0.571858	-3.76478	0	
0.7273	-2.41451	-3.1533	0	
0.7280	-4.8502	1.41479	0	
0.7287	-7.2859	2.63774	0	
0.7293	-5.76094	2.63774	0	
0.7300	-3.02873	2.63774	0	
0.7307	-2.41451	1.72652	0	
0.7313	0.0423599	1.72652	0	
0.7320	3.38879	0.503569	0	
0.7327	2.77457	-1.94234	0	
0.7333	2.47805	-2.24208	0	
0.7340	5.23144	-1.6306	0	
0.7347	6.4387	-3.46504	0	
0.7353	5.23144	-3.46504	0	
0.7360	6.4387	-1.01913	0	
0.7367	7.05292	-0.107908	0	
0.7373	4.00301	-0.407651	0	
0.7380	2.47805	-0.719384	0	
0.7387	4.91374	-0.407651	0	
0.7393	4.91374	1.72652	0	
0.7400	3.09227	3.56095	0	
0.7407	1.56732	2.338	0	
0.7413	-0.275339	3.56095	0	
0.7420	1.56732	5.38339	0	
0.7427	4.00301	2.94948	0	
0.7433	2.47805	-1.33086	0	
0.7440	1.24962	-3.46504	0	
0.7447	3.38879	-3.76478	0	
0.7453	0.953097	-2.24208	0	
0.7460	-3.93947	-1.01913	0	
0.7467	-5.14672	-1.94234	0	
0.7473	-6.37516	-1.01913	0	
0.7480	-10.0393	1.11505	0	
0.7487	-10.3358	0.503569	0	
0.7493	-7.6036	0.503569	0	
0.7500	-5.46442	2.338	0	
0.7507	-4.55369	2.338	0	
0.7513	-3.93947	1.11505	0	
0.7520	-3.02873	1.11505	0	
0.7527	-2.09681	0.503569	0	
0.7533	-1.18608	-0.407651	0	
0.7540	0.635398	-0.107908	0	
0.7547	2.47805	-0.107908	0	
0.7553	3.68531	-0.719384	0	
0.7560	6.4387	-1.94234	0	
0.7567	9.80631	-4.07651	0	
0.7573	8.87439	-5.59921	0	
0.7580	6.14218	-4.07651	0	
0.7587	7.05292	-3.46504	0	
0.7593	4.91374	-2.55381	0	
0.7600	-3.62177	-1.33086	0	
0.7607	-8.19663	-2.24208	0	
0.7613	-6.07864	-1.94234	0	
0.7620	-3.62177	1.72652	0	
0.7627	-4.23599	3.56095	0	
0.7633	-9.12855	-1.33086	0	
0.7640	-9.42507	-4.07651	0	
0.7647	-0.571858	-1.6306	0	
0.7653	2.47805	0.503569	0	
0.7660	-8.19663	-0.719384	0	
0.7667	-15.2284	0.803313	0	
0.7673	-12.7927	2.63774	0	
0.7680	-9.74277	-0.107908	0	
0.7687	-6.37516	-1.94234	0	
0.7693	-2.41451	0.803313	0	
0.7700	-2.71103	2.02627	0	
0.7707	-3.93947	0.503569	0	
0.7713	-5.46442	1.72652	0	
0.7720	-7.90012	2.94948	0	
0.7727	-6.67168	2.338	0	
0.7733	-2.09681	3.56095	0	
0.7740	0.953097	4.16044	0	
0.7747	4.91374	0.803313	0	
0.7753	9.80631	-3.76478	0	
0.7760	7.05292	-3.1533	0	
0.7767	0.338879	1.41479	0	
0.7773	-2.09681	2.94948	0	
0.7780	0.338879	0.503569	0	
0.7787	2.47805	-0.719384	0	
0.7793	2.47805	-0.719384	0	
0.7800	2.47805	-3.76478	0	
0.7807	2.47805	-5.59921	0	
0.7813	3.68531	-3.1533	0	
0.7820	2.16035	-2.85356	0	
0.7827	-1.18608	-4.07651	0	
0.7833	-0.571858	-2.55381	0	
0.7840	3.09227	-1.01913	0	
0.7847	7.96365	-0.407651	0	
0.7853	14.0635	2.63774	0	
0.7860	16.5203	5.38339	0	
0.7867	11.0136	7.21782	0	
0.7873	2.47805	5.08365	0	
0.7880	-2.09681	-1.6306	0	
0.7887	-2.41451	-4.68799	0	
0.7893	-8.51433	-1.33086	0	
0.7900	-28.0422	-1.01913	0	
0.7907	-43.6095	-4.68799	0	
0.7913	-33.8455	-3.76478	0	
0.7920	-12.475	-0.407651	0	
0.7927	-3.62177	-0.107908	0	
0.7933	-2.71103	-1.01913	0	
0.7940	0.635398	-2.85356	0	
0.7947	2.16035	-3.76478	0	
0.7953	1.56732	-2.24208	0	
0.7960	2.47805	0.503569	0	
0.7967	3.38879	2.338	0	
0.7973	2.47805	4.16044	0	
0.7980	0.635398	5.38339	0	
0.7987	-0.275339	6.60635	0	
0.7993	-1.18608	6.60635	0	
0.8000	-1.4826	2.02627	0	
0.8007	1.56732	-1.01913	0	
0.8013	2.47805	1.72652	0	
0.8020	-1.80029	1.72652	0	
0.8027	-2.09681	-2.85356	0	
0.8033	5.82448	-3.46504	0	
0.8040	10.3993	-1.01913	0	
0.8047	6.14218	-0.107908	0	
0.8053	-1.18608	1.11505	0	
0.8060	-9.42507	1.72652	0	
0.8067	-18.8925	-1.94234	0	
0.8073	-28.953	-8.34486	0	
0.8080	-32.6171	-12.0137	0	
0.8087	-22.2389	-9.56781	0	
0.8093	-9.74277	-4.37626	0	
0.8100	-9.74277	-1.01913	0	
0.8107	-7.90012	2.94948	0	
0.8113	4.29953	6.3066	0	
0.8120	10.1028	4.77192	0	
0.8127	5.82448	3.56095	0	
0.8133	4.61723	3.56095	0	
0.8140	8.57787	0.203826	0	
0.8147	13.4704	-2.85356	0	
0.8153	16.5203	-2.24208	0	
0.8160	14.3812	-1.01913	0	
0.8167	11.0136	-1.6306	0	
0.8173	12.5385	-2.85356	0	
0.8180	13.4704	-3.1533	0	
0.8187	11.6278	-1.94234	0	
0.8193	9.80631	-1.94234	0	
0.8200	8.28135	-2.24208	0	
0.8207	7.66714	0.803313	0	
0.8213	7.05292	3.56095	0	
0.8220	4.29953	1.11505	0	
0.8227	0.953097	-1.01913	0	
0.8233	0.635398	-1.01913	0	
0.8240	0.338879	-0.719384	0	
0.8247	-3.93947	-0.107908	0	
0.8253	-8.51433	0.803313	0	
0.8260	-8.51433	1.11505	0	
0.8267	-5.76094	0.503569	0	
0.8273	-5.46442	-0.107908	0	
0.8280	-6.67168	-0.407651	0	
0.8287	-8.19663	-1.6306	0	
0.8293	-10.0393	-2.55381	0	
0.8300	-10.3358	-0.719384	0	
0.8307	-6.98938	0.803313	0	
0.8313	-3.93947	0.803313	0	
0.8320	-2.09681	2.338	0	
0.8327	0.0423599	4.47217	0	
0.8333	1.56732	4.47217	0	
0.8340	3.38879	3.56095	0	
0.8347	5.82448	3.8607	0	
0.8353	7.34944	3.56095	0	
0.8360	8.87439	2.63774	0	
0.8367	10.717	0.203826	0	
0.8373	9.80631	-0.719384	0	
0.8380	7.05292	1.11505	0	
0.8387	5.23144	3.56095	0	
0.8393	3.68531	2.63774	0	
0.8400	1.56732	0.803313	0	
0.8407	1.24962	1.11505	0	
0.8413	2.47805	3.24922	0	
0.8420	2.16035	3.24922	0	
0.8427	0.635398	-0.107908	0	
0.8433	2.77457	-0.719384	0	
0.8440	5.82448	2.338	0	
0.8447	2.77457	2.63774	0	
0.8453	-1.18608	-1.01913	0	
0.8460	-3.32525	-2.85356	0	
0.8467	-5.76094	-1.01913	0	
0.8473	-6.37516	1.72652	0	
0.8480	-2.09681	2.63774	0	
0.8487	1.86383	1.41479	0	
0.8493	3.68531	-0.107908	0	
0.8500	3.68531	-1.01913	0	
0.8507	-0.275339	1.11505	0	
0.8513	-3.02873	2.94948	0	
0.8520	-0.571858	0.503569	0	
0.8527	-1.4826	-1.6306	0	
0.8533	-6.07864	0.803313	0	
0.8540	-3.93947	1.72652	0	
0.8547	1.86383	-1.01913	0	
0.8553	5.23144	-1.94234	0	
0.8560	7.05292	-1.01913	0	
0.8567	7.05292	-0.407651	0	
0.8573	7.96365	-0.107908	0	
0.8580	9.19209	-1.6306	0	
0.8587	7.34944	-1.33086	0	
0.8593	6.7564	1.41479	0	
0.8600	10.717	0.803313	0	
0.8607	11.6278	-1.6306	0	
0.8613	8.28135	-0.107908	0	
0.8620	5.82448	1.72652	0	
0.8627	3.09227	0.803313	0	
0.8633	0.635398	0.503569	0	
0.8640	1.86383	1.41479	0	
0.8647	1.24962	2.02627	0	
0.8653	-4.23599	2.94948	0	
0.8660	-7.90012	4.47217	0	
0.8667	-8.51433	4.16044	0	
0.8673	-8.51433	0.503569	0	
0.8680	-6.98938	-2.55381	0	
0.8687	-4.8502	-1.94234	0	
0.8693	-2.41451	-0.719384	0	
0.8700	0.635398	-0.107908	0	
0.8707	0.635398	0.803313	0	
0.8713	0.635398	2.63774	0	
0.8720	3.38879	3.24922	0	
0.8727	2.77457	0.803313	0	
0.8733	0.338879	-2.55381	0	
0.8740	4.00301	-2.24208	0	
0.8747	6.7564	-0.107908	0	
0.8753	2.77457	-0.107908	0	
0.8760	4.61723	-1.94234	0	
0.8767	14.3812	-4.98773	0	
0.8773	18.956	-7.73338	0	
0.8780	15.9061	-6.82216	0	
0.8787	7.05292	-4.68799	0	
0.8793	-1.18608	-5.29947	0	
0.8800	-1.4826	-3.76478	0	
0.8807	1.86383	-1.01913	0	
0.8813	2.47805	-1.33086	0	
0.8820	7.05292	-2.85356	0	
0.8827	16.2026	-1.01913	0	
0.8833	18.0453	2.02627	0	
0.8840	7.66714	4.47217	0	
0.8847	-2.71103	5.08365	0	
0.8853	-4.8502	1.41479	0	
0.8860	-4.8502	-1.33086	0	
0.8867	-10.6535	2.63774	0	
0.8873	-24.6958	8.12904	0	
0.8880	-37.8062	9.05225	0	
0.8887	-35.9847	8.44078	0	
0.8893	-19.189	5.38339	0	
0.8900	-8.19663	-0.107908	0	
0.8907	-8.51433	-1.94234	0	
0.8913	-4.8502	-0.719384	0	
0.8920	2.47805	-0.107908	0	
0.8927	1.56732	2.94948	0	
0.8933	-0.275339	5.08365	0	
0.8940	3.09227	-1.01913	0	
0.8947	5.52796	-9.25608	0	
0.8953	8.57787	-14.7594	0	
0.8960	14.3812	-16.2821	0	
0.8967	11.6278	-11.702	0	
0.8973	-1.18608	-6.51043	0	
0.8980	-8.81085	-5.29947	0	
0.8987	-6.67168	-1.94234	0	
0.8993	-3.62177	2.338	0	
0.9000	-6.98938	0.803313	0	
0.9007	-13.0892	-1.33086	0	
0.9013	-11.2677	-1.01913	0	
0.9020	0.0423599	-0.107908	0	
0.9027	6.4387	2.94948	0	
0.9033	2.47805	1.41479	0	
0.9040	-2.41451	-3.76478	0	
0.9047	-3.32525	-3.46504	0	
0.9053	-3.93947	-0.107908	0	
0.9060	-6.37516	-3.1533	0	
0.9067	-8.51433	-4.37626	0	
0.9073	-10.6535	-1.01913	0	
0.9080	-13.7034	-0.407651	0	
0.9087	-16.7533	-1.6306	0	
0.9093	-17.6641	-1.33086	0	
0.9100	-17.6641	-1.01913	0	
0.9107	-18.5748	-0.407651	0	
0.9113	-14.6142	0.803313	0	
0.9120	-3.93947	-0.107908	0	
0.9127	5.23144	-0.107908	0	
0.9133	10.717	1.72652	0	
0.9140	16.2026	1.72652	0	
0.9147	21.7094	0.803313	0	
0.9153	24.1451	1.72652	0	
0.9160	22.9167	3.8607	0	
0.9167	20.481	6.3066	0	
0.9173	16.8169	8.12904	0	
0.9180	12.5385	6.60635	0	
0.9187	9.48861	5.08365	0	
0.9193	9.19209	5.38339	0	
0.9200	7.96365	6.3066	0	
0.9207	4.61723	4.47217	0	
0.9213	3.38879	1.41479	0	
0.9220	3.38879	-1.6306	0	
0.9227	-0.571858	-4.07651	0	
0.9233	0.338879	-9.86756	0	
0.9240	11.6278	-14.4476	0	
0.9247	15.9061	-11.702	0	
0.9253	4.61723	-5.59921	0	
0.9260	-5.76094	-1.6306	0	
0.9267	-8.19663	2.63774	0	
0.9273	-11.8608	4.47217	0	
0.9280	-14.9107	2.63774	0	
0.9287	-10.95	1.72652	0	
0.9293	-8.51433	1.72652	0	
0.9300	-12.7927	-0.107908	0	
0.9307	-14.3176	-0.107908	0	
0.9313	-11.2677	-3.76478	0	
0.9320	-8.51433	-12.0137	0	
0.9327	-4.55369	-14.7594	0	
0.9333	1.56732	-9.86756	0	
0.9340	2.47805	-5.91094	0	
0.9347	-1.18608	-4.68799	0	
0.9353	-3.02873	-3.1533	0	
0.9360	-2.09681	-1.94234	0	
0.9367	-1.4826	-1.33086	0	
0.9373	-0.889557	-1.33086	0	
0.9380	-0.571858	-0.407651	0	
0.9387	-1.18608	0.803313	0	
0.9393	-0.889557	-0.107908	0	
0.9400	0.635398	-0.107908	0	
0.9407	1.24962	1.72652	0	
0.9413	2.47805	0.803313	0	
0.9420	3.68531	-1.33086	0	
0.9427	2.47805	-1.33086	0	
0.9433	3.38879	-2.24208	0	
0.9440	4.00301	-3.46504	0	
0.9447	0.635398	-1.01913	0	
0.9453	-1.4826	2.63774	0	
0.9460	0.635398	3.56095	0	
0.9467	-0.275339	3.24922	0	
0.9473	-2.09681	1.72652	0	
0.9480	0.0423599	0.203826	0	
0.9487	1.24962	-0.107908	0	
0.9493	-1.18608	1.11505	0	
0.9500	-3.93947	4.16044	0	
0.9507	-8.81085	4.47217	0	
0.9513	-10.0393	2.338	0	
0.9520	6.14218	3.56095	0	
0.9527	21.7094	5.69513	0	
0.9533	15.5884	4.77192	0	
0.9540	4.61723	4.47217	0	
0.9547	3.09227	3.8607	0	
0.9553	-3.02873	-0.107908	0	
0.9560	-4.8502	-1.01913	0	
0.9567	13.767	5.38339	0	
0.9573	26.5808	11.7979	0	
0.9580	20.481	13.9321	0	
0.9587	19.2526	11.7979	0	
0.9593	21.7094	5.69513	0	
0.9600	11.0136	1.72652	0	
0.9607	3.38879	4.16044	0	
0.9613	6.14218	7.51757	0	
0.9620	-3.02873	6.91808	0	
0.9627	-22.5566	2.63774	0	
0.9633	-30.1814	-4.07651	0	
0.9640	-26.5173	-8.95634	0	
0.9647	-21.0317	-6.82216	0	
0.9653	-13.9999	-2.85356	0	
0.9660	-9.74277	-1.33086	0	
0.9667	-13.0892	1.41479	0	
0.9673	-17.0498	5.38339	0	
0.9680	-17.9818	4.77192	0	
0.9687	-17.3675	-0.407651	0	
0.9693	-15.5249	-3.46504	0	
0.9700	-13.9999	-5.29947	0	
0.9707	-9.12855	-9.56781	0	
0.9713	2.16035	-12.0137	0	
0.9720	11.0136	-9.86756	0	
0.9727	8.87439	-8.04512	0	
0.9733	1.56732	-7.73338	0	
0.9740	-1.18608	-6.51043	0	
0.9747	2.47805	-3.76478	0	
0.9753	7.96365	-1.01913	0	
0.9760	11.6278	-0.107908	0	
0.9767	11.9455	-1.6306	0	
0.9773	11.3313	-3.76478	0	
0.9780	9.80631	-4.37626	0	
0.9787	8.28135	-4.37626	0	
0.9793	7.66714	-2.85356	0	
0.9800	5.52796	0.803313	0	
0.9807	2.47805	3.24922	0	
0.9813	3.68531	2.63774	0	
0.9820	4.61723	2.94948	0	
0.9827	-1.18608	3.56095	0	
0.9833	-4.23599	2.338	0	
0.9840	0.635398	1.41479	0	
0.9847	0.635398	1.11505	0	
0.9853	-2.41451	-0.719384	0	
0.9860	-1.18608	-0.107908	0	
0.9867	-6.67168	2.63774	0	
0.9873	-15.5249	1.72652	0	
0.9880	-9.42507	1.72652	0	
0.9887	1.86383	3.8607	0	
0.9893	1.56732	3.56095	0	
0.9900	0.0423599	2.94948	0	
0.9907	1.86383	3.8607	0	
0.9913	0.953097	4.16044	0	
0.9920	2.47805	3.56095	0	
0.9927	5.52796	1.72652	0	
0.9933	4.91374	0.203826	0	
0.9940	6.14218	1.11505	0	
0.9947	8.87439	1.11505	0	
0.9953	7.66714	-1.01913	0	
0.9960	6.14218	0.803313	0	
0.9967	6.4387	3.24922	0	
0.9973	2.77457	0.503569	0	
0.9980	-2.09681	0.503569	0	
0.9987	-4.23599	4.16044	0	
0.9993	-3.02873	1.72652	0	
1.0000	0.338879	-1.01913	0	
1.0007	1.56732	1.41479	0	
1.0013	-0.275339	1.72652	0	
1.0020	-1.18608	0.503569	0	
1.0027	-0.571858	2.02627	0	
1.0033	0.953097	2.94948	0	
1.0040	4.00301	0.803313	0	
1.0047	3.09227	-0.107908	0	
1.0053	-2.09681	2.02627	0	
1.0060	-4.23599	2.94948	0	
1.0067	-4.55369	1.72652	0	
1.0073	-7.2859	2.02627	0	
1.0080	-8.51433	3.56095	0	
1.0087	-5.76094	2.338	0	
1.0093	-5.46442	-0.407651	0	
1.0100	-6.37516	-0.107908	0	
1.0107	-4.8502	1.72652	0	
1.0113	-2.71103	2.94948	0	
1.0120	-2.09681	2.338	0	
1.0127	-0.571858	-0.719384	0	
1.0133	2.16035	-2.24208	0	
1.0140	3.68531	-0.719384	0	
1.0147	6.14218	-0.107908	0	
1.0153	7.05292	-1.01913	0	
1.0160	4.91374	-0.719384	0	
1.0167	3.38879	-1.33086	0	
1.0173	5.23144	-3.46504	0	
1.0180	4.29953	-2.85356	0	
1.0187	1.56732	-1.01913	0	
1.0193	-1.18608	-1.01913	0	
1.0200	-2.71103	-1.01913	0	
1.0207	-2.09681	-1.94234	0	
1.0213	-0.889557	-3.1533	0	
1.0220	0.338879	-1.94234	0	
1.0227	3.68531	0.803313	0	
1.0233	5.82448	1.11505	0	
1.0240	2.16035	-0.719384	0	
1.0247	-1.18608	-1.01913	0	
1.0253	-3.93947	-1.01913	0	
1.0260	-12.7927	-2.55381	0	
1.0267	-19.5067	-4.68799	0	
1.0273	-19.189	-5.59921	0	
1.0280	-21.3282	-2.85356	0	
1.0287	-21.3282	1.11505	0	
1.0293	-12.1785	1.41479	0	
1.0300	-5.46442	0.503569	0	
1.0307	-6.37516	0.803313	0	
1.0313	-4.55369	1.72652	0	
1.0320	-2.71103	1.72652	0	
1.0327	-4.55369	0.503569	0	
1.0333	0.635398	-3.1533	0	
1.0340	9.80631	-5.29947	0	
1.0347	7.96365	-4.37626	0	
1.0353	0.635398	-4.07651	0	
1.0360	-0.275339	-4.68799	0	
1.0367	-4.8502	-4.68799	0	
1.0373	-13.7034	-2.85356	0	
1.0380	-9.42507	0.203826	0	
1.0387	4.29953	0.803313	0	
1.0393	10.3993	-2.85356	0	
1.0400	8.87439	-3.76478	0	
1.0407	6.4387	-0.719384	0	
1.0413	2.16035	-2.55381	0	
1.0420	-1.4826	-8.34486	0	
1.0427	-0.275339	-8.04512	0	
1.0433	0.635398	-4.07651	0	
1.0440	-2.09681	-4.37626	0	
1.0447	-8.51433	-5.59921	0	
1.0453	-13.0892	-3.76478	0	
1.0460	-11.5642	-2.24208	0	
1.0467	-9.12855	-2.85356	0	
1.0473	-9.74277	-3.76478	0	
1.0480	-8.19663	-3.76478	0	
1.0487	0.635398	-1.01913	0	
1.0493	8.87439	2.63774	0	
1.0500	8.57787	0.803313	0	
1.0507	6.14218	-1.33086	0	
1.0513	11.3313	-1.33086	0	
1.0520	16.2026	-1.6306	0	
1.0527	11.6278	-0.407651	0	
1.0533	5.23144	2.338	0	
1.0540	9.48861	0.503569	0	
1.0547	18.956	-1.94234	0	
1.0553	22.3025	0.803313	0	
1.0560	14.3812	1.72652	0	
1.0567	-0.571858	0.203826	0	
1.0573	-9.74277	-0.107908	0	
1.0580	-5.76094	-0.407651	0	
1.0587	4.91374	-1.01913	0	
1.0593	10.3993	0.203826	0	
1.0600	5.52796	-0.407651	0	
1.0607	-2.71103	-2.24208	0	
1.0613	-7.90012	-0.107908	0	
1.0620	-14.9107	0.803313	0	
1.0627	-22.2389	-2.85356	0	
1.0633	-21.3282	-2.55381	0	
1.0640	-17.0498	1.72652	0	
1.0647	-17.6641	0.503569	0	
1.0653	-18.5748	-1.6306	0	
1.0660	-18.2783	1.72652	0	
1.0667	-17.0498	4.16044	0	
1.0673	-14.3176	2.02627	0	
1.0680	-13.0892	1.41479	0	
1.0687	-11.2677	2.02627	0	
1.0693	-3.02873	2.63774	0	
1.0700	3.09227	5.08365	0	
1.0707	1.24962	5.38339	0	
1.0713	-0.275339	-1.94234	0	
1.0720	0.635398	-7.73338	0	
1.0727	0.338879	-5.59921	0	
1.0733	2.47805	-3.76478	0	
1.0740	6.14218	-4.98773	0	
1.0747	6.14218	-5.59921	0	
1.0753	6.7564	-4.68799	0	
1.0760	6.4387	-4.37626	0	
1.0767	1.86383	-3.76478	0	
1.0773	0.338879	-2.55381	0	
1.0780	2.47805	-1.6306	0	
1.0787	1.56732	-1.94234	0	
1.0793	0.635398	-3.76478	0	
1.0800	3.38879	-3.46504	0	
1.0807	2.47805	-1.94234	0	
1.0813	2.47805	-1.94234	0	
1.0820	6.14218	-1.6306	0	
1.0827	5.52796	1.41479	0	
1.0833	0.635398	3.56095	0	
1.0840	-1.80029	4.16044	0	
1.0847	-4.8502	2.338	0	
1.0853	-7.6036	-1.94234	0	
1.0860	-4.55369	-4.68799	0	
1.0867	-4.8502	-8.04512	0	
1.0873	-10.95	-12.9249	0	
1.0880	-12.475	-12.3135	0	
1.0887	-10.3358	-4.68799	0	
1.0893	-7.2859	1.41479	0	
1.0900	-3.02873	7.51757	0	
1.0907	-2.41451	15.7665	0	
1.0913	-7.90012	17.9007	0	
1.0920	-7.90012	14.5436	0	
1.0927	0.953097	14.2318	0	
1.0933	10.717	16.378	0	
1.0940	16.2026	15.7665	0	
1.0947	14.6777	11.1864	0	
1.0953	11.6278	6.3066	0	
1.0960	15.5884	7.21782	0	
1.0967	20.7775	7.21782	0	
1.0973	15.5884	-5.59921	0	
1.0980	6.14218	-22.3848	0	
1.0987	2.47805	-26.0417	0	
1.0993	5.23144	-18.728	0	
1.1000	11.6278	-9.25608	0	
1.1007	15.2919	-0.107908	0	
1.1013	12.8562	6.3066	0	
1.1020	7.96365	9.05225	0	
1.1027	4.29953	9.352	0	
1.1033	-1.18608	7.8293	0	
1.1040	-9.42507	7.21782	0	
1.1047	-13.9999	6.3066	0	
1.1053	-11.2677	2.338	0	
1.1060	-9.42507	-4.98773	0	
1.1067	-10.6535	-12.9249	0	
1.1073	-8.81085	-17.505	0	
1.1080	-5.14672	-14.7594	0	
1.1087	-5.76094	-9.56781	0	
1.1093	-7.6036	-9.86756	0	
1.1100	-5.46442	-8.65659	0	
1.1107	-3.32525	-2.85356	0	
1.1113	-3.02873	-2.24208	0	
1.1120	-3.93947	-3.76478	0	
1.1127	-5.46442	-1.01913	0	
1.1133	-4.55369	0.803313	0	
1.1140	-0.275339	-0.407651	0	
1.1147	4.00301	0.503569	0	
1.1153	6.14218	0.503569	0	
1.1160	5.23144	0.803313	0	
1.1167	5.23144	4.47217	0	
1.1173	7.66714	5.38339	0	
1.1180	6.4387	3.56095	0	
1.1187	6.7564	4.16044	0	
1.1193	14.6777	5.08365	0	
1.1200	18.956	4.47217	0	
1.1207	16.5203	4.16044	0	
1.1213	21.7094	2.63774	0	
1.1220	27.4916	1.72652	0	
1.1227	19.8668	1.72652	0	
1.1233	7.05292	-1.01913	0	
1.1240	-3.02873	-2.55381	0	
1.1247	-22.2389	-0.407651	0	
1.1253	-42.381	0.803313	0	
1.1260	-45.1344	-0.107908	0	
1.1267	-32.6171	-1.33086	0	
1.1273	-20.0998	-2.85356	0	
1.1280	-15.2284	-0.719384	0	
1.1287	-15.5249	3.56095	0	
1.1293	-14.3176	4.77192	0	
1.1300	-11.2677	3.24922	0	
1.1307	-8.51433	2.63774	0	
1.1313	-2.71103	3.56095	0	
1.1320	5.23144	5.08365	0	
1.1327	6.4387	4.47217	0	
1.1333	4.29953	3.56095	0	
1.1340	5.52796	2.94948	0	
1.1347	6.4387	2.63774	0	
1.1353	4.61723	1.41479	0	
1.1360	4.91374	-0.719384	0	
1.1367	5.52796	-4.07651	0	
1.1373	4.61723	-4.98773	0	
1.1380	4.29953	-1.01913	0	
1.1387	4.29953	2.02627	0	
1.1393	4.29953	2.94948	0	
1.1400	3.68531	3.8607	0	
1.1407	-1.80029	2.02627	0	
1.1413	-3.93947	-0.407651	0	
1.1420	4.61723	0.803313	0	
1.1427	10.717	2.02627	0	
1.1433	7.34944	0.803313	0	
1.1440	5.52796	2.338	0	
1.1447	5.23144	4.47217	0	
1.1453	1.56732	1.11505	0	
1.1460	-0.275339	-0.407651	0	
1.1467	2.47805	2.63774	0	
1.1473	7.66714	2.63774	0	
1.1480	14.3812	0.503569	0	
1.1487	14.3812	1.72652	0	
1.1493	5.23144	3.24922	0	
1.1500	-1.4826	3.24922	0	
1.1507	-4.55369	5.38339	0	
1.1513	-8.81085	3.24922	0	
1.1520	-10.6535	-3.76478	0	
1.1527	-6.67168	-6.21069	0	
1.1533	-1.4826	-2.85356	0	
1.1540	-0.889557	-1.33086	0	
1.1547	-3.02873	-0.407651	0	
1.1553	-2.71103	1.41479	0	
1.1560	2.47805	0.503569	0	
1.1567	7.34944	-2.85356	0	
1.1573	11.0136	-5.59921	0	
1.1580	14.9954	-5.29947	0	
1.1587	15.5884	-2.85356	0	
1.1593	9.80631	-1.33086	0	
1.1600	3.68531	-1.94234	0	
1.1607	2.47805	-1.6306	0	
1.1613	0.0423599	-3.46504	0	
1.1620	-3.32525	-7.73338	0	
1.1627	-1.4826	-8.65659	0	
1.1633	0.635398	-5.59921	0	
1.1640	-3.02873	-3.76478	0	
1.1647	-3.62177	-3.1533	0	
1.1653	-5.14672	-1.94234	0	
1.1660	-15.5249	-1.6306	0	
1.1667	-15.8426	-0.407651	0	
1.1673	2.47805	2.63774	0	
1.1680	12.5385	2.02627	0	
1.1687	4.29953	-0.107908	0	
1.1693	-1.18608	1.41479	0	
1.1700	-1.18608	2.63774	0	
1.1707	-1.4826	1.11505	0	
1.1713	-0.275339	1.72652	0	
1.1720	0.635398	2.338	0	
1.1727	0.338879	0.503569	0	
1.1733	0.635398	0.203826	0	
1.1740	-1.80029	0.203826	0	
1.1747	-2.09681	-2.55381	0	
1.1753	9.48861	-3.76478	0	
1.1760	19.8668	-2.85356	0	
1.1767	16.5203	-3.76478	0	
1.1773	11.3313	-1.94234	0	
1.1780	14.9954	1.41479	0	
1.1787	17.4311	0.203826	0	
1.1793	12.5385	-1.6306	0	
1.1800	4.61723	1.11505	0	
1.1807	-0.275339	2.63774	0	
1.1813	-0.275339	2.02627	0	
1.1820	1.56732	4.16044	0	
1.1827	-0.571858	5.08365	0	
1.1833	-3.32525	2.338	0	
1.1840	-2.71103	3.24922	0	
1.1847	-2.09681	6.60635	0	
1.1853	-4.8502	2.63774	0	
1.1860	-8.51433	-1.94234	0	
1.1867	-11.2677	1.72652	0	
1.1873	-12.1785	2.338	0	
1.1880	-9.42507	-3.46504	0	
1.1887	-7.6036	-4.37626	0	
1.1893	-6.67168	-1.94234	0	
1.1900	-1.18608	-1.6306	0	
1.1907	7.96365	-1.01913	0	
1.1913	12.5385	-0.407651	0	
1.1920	7.34944	-0.719384	0	
1.1927	-0.889557	1.72652	0	
1.1933	-5.76094	3.8607	0	
1.1940	-9.74277	1.72652	0	
1.1947	-16.4568	1.41479	0	
1.1953	-14.9107	3.24922	0	
1.1960	-2.09681	2.02627	0	
1.1967	5.82448	1.72652	0	
1.1973	7.05292	3.56095	0	
1.1980	12.5385	4.47217	0	
1.1987	13.767	6.3066	0	
1.1993	7.05292	6.3066	0	
1.2000	4.29953	0.203826	0	
1.2007	4.91374	-4.68799	0	
1.2013	2.77457	-3.76478	0	
1.2020	1.56732	-4.07651	0	
1.2027	-2.71103	-6.51043	0	
1.2033	-8.81085	-7.12191	0	
1.2040	-7.6036	-8.95634	0	
1.2047	-8.51433	-12.0137	0	
1.2053	-15.8426	-12.0137	0	
1.2060	-10.0393	-8.04512	0	
1.2067	4.61723	-3.1533	0	
1.2073	5.23144	-1.33086	0	
1.2080	-0.889557	-2.55381	0	
1.2087	-0.571858	-2.85356	0	
1.2093	-0.275339	-1.01913	0	
1.2100	-1.80029	0.803313	0	
1.2107	-1.18608	2.02627	0	
1.2113	0.0423599	2.63774	0	
1.2120	0.953097	2.63774	0	
1.2127	2.47805	3.24922	0	
1.2133	2.77457	1.11505	0	
1.2140	3.38879	-3.76478	0	
1.2147	4.91374	-5.91094	0	
1.2153	5.82448	-3.76478	0	
1.2160	7.05292	-2.55381	0	
1.2167	5.82448	-1.94234	0	
1.2173	3.38879	-0.407651	0	
1.2180	3.68531	-0.107908	0	
1.2187	5.23144	-0.107908	0	
1.2193	3.09227	-0.107908	0	
1.2200	-0.275339	-1.33086	0	
1.2207	0.338879	-2.55381	0	
1.2213	1.56732	-1.94234	0	
1.2220	0.338879	-0.407651	0	
1.2227	0.635398	0.503569	0	
1.2233	3.09227	1.72652	0	
1.2240	1.24962	1.72652	0	
1.2247	-5.46442	-1.94234	0	
1.2253	-9.42507	-5.29947	0	
1.2260	-11.2677	-3.76478	0	
1.2267	-13.9999	-1.6306	0	
1.2273	-14.9107	-0.107908	0	
1.2280	-13.9999	2.02627	0	
1.2287	-11.5642	2.338	0	
1.2293	-6.67168	-1.33086	0	
1.2300	-3.62177	-2.85356	0	
1.2307	-3.62177	-1.33086	0	
1.2313	-1.80029	-0.407651	0	
1.2320	0.635398	-0.107908	0	
1.2327	0.635398	0.803313	0	
1.2333	0.635398	2.02627	0	
1.2340	2.47805	2.63774	0	
1.2347	6.7564	-0.107908	0	
1.2353	14.3812	-2.85356	0	
1.2360	18.956	0.803313	0	
1.2367	20.1845	3.56095	0	
1.2373	18.956	-1.01913	0	
1.2380	11.6278	-4.68799	0	
1.2387	7.96365	-2.24208	0	
1.2393	16.5203	2.63774	0	
1.2400	16.5203	3.56095	0	
1.2407	-1.80029	1.72652	0	
1.2413	-16.7533	1.72652	0	
1.2420	-20.4175	1.11505	0	
1.2427	-20.714	-2.55381	0	
1.2433	-15.8426	-3.76478	0	
1.2440	-7.2859	-0.107908	0	
1.2447	-5.76094	0.803313	0	
1.2453	-8.81085	-1.33086	0	
1.2460	-10.95	-1.94234	0	
1.2467	-11.8608	-1.33086	0	
1.2473	-10.6535	-0.107908	0	
1.2480	-9.12855	2.63774	0	
1.2487	-7.90012	2.338	0	
1.2493	-5.46442	-0.107908	0	
1.2500	-5.14672	0.203826	0	
1.2507	-6.67168	1.72652	0	
1.2513	-3.32525	2.02627	0	
1.2520	-1.4826	3.8607	0	
1.2527	-4.8502	6.3066	0	
1.2533	-3.62177	6.60635	0	
1.2540	1.24962	4.47217	0	
1.2547	2.47805	2.63774	0	
1.2553	4.00301	1.72652	0	
1.2560	3.38879	1.72652	0	
1.2567	-2.09681	0.803313	0	
1.2573	-1.4826	-0.107908	0	
1.2580	5.52796	1.41479	0	
1.2587	9.80631	2.63774	0	
1.2593	9.48861	1.41479	0	
1.2600	4.91374	-1.01913	0	
1.2607	0.338879	-3.1533	0	
1.2613	2.47805	-3.76478	0	
1.2620	5.82448	-1.01913	0	
1.2627	4.00301	2.63774	0	
1.2633	1.86383	2.63774	0	
1.2640	0.635398	0.203826	0	
1.2647	-2.41451	-0.719384	0	
1.2653	-3.02873	-2.24208	0	
1.2660	-3.02873	-6.51043	0	
1.2667	-7.6036	-8.34486	0	
1.2673	-12.1785	-4.98773	0	
1.2680	-13.0892	-1.94234	0	
1.2687	-10.0393	-1.94234	0	
1.2693	-8.51433	-1.01913	0	
1.2700	-11.2677	0.803313	0	
1.2707	-9.42507	1.41479	0	
1.2713	-3.93947	0.503569	0	
1.2720	-0.889557	-0.407651	0	
1.2727	2.16035	-0.107908	0	
1.2733	2.16035	0.503569	0	
1.2740	-2.41451	1.11505	0	
1.2747	6.14218	2.63774	0	
1.2753	23.8274	2.02627	0	
1.2760	20.7775	-0.107908	0	
1.2767	3.38879	-1.33086	0	
1.2773	-3.93947	-1.94234	0	
1.2780	-8.51433	-3.76478	0	
1.2787	-15.8426	-3.76478	0	
1.2793	-14.3176	2.338	0	
1.2800	-3.02873	8.12904	0	
1.2807	10.717	9.96347	0	
1.2813	16.2026	9.05225	0	
1.2820	7.66714	8.74052	0	
1.2827	0.338879	8.12904	0	
1.2833	0.0423599	6.60635	0	
1.2840	-7.6036	1.72652	0	
1.2847	-14.9107	-4.07651	0	
1.2853	-8.51433	-7.43364	0	
1.2860	-3.02873	-10.1793	0	
1.2867	-6.67168	-12.0137	0	
1.2873	-4.55369	-9.25608	0	
1.2880	2.47805	-9.25608	0	
1.2887	2.47805	-14.4476	0	
1.2893	-0.275339	-15.6706	0	
1.2900	-3.93947	-9.86756	0	
1.2907	-10.6535	-6.51043	0	
1.2913	-14.3176	-4.98773	0	
1.2920	-11.2677	-1.94234	0	
1.2927	-7.6036	-0.107908	0	
1.2933	-3.32525	-0.719384	0	
1.2940	3.09227	-1.6306	0	
1.2947	6.14218	-2.85356	0	
1.2953	6.14218	-1.94234	0	
1.2960	5.52796	0.803313	0	
1.2967	5.23144	0.803313	0	
1.2973	7.96365	-1.6306	0	
1.2980	11.0136	-2.55381	0	
1.2987	6.4387	-3.46504	0	
1.2993	0.953097	-3.76478	0	
1.3000	2.47805	-1.01913	0	
1.3007	4.29953	1.72652	0	
1.3013	1.86383	0.503569	0	
1.3020	-0.275339	-0.407651	0	
1.3027	-0.571858	0.803313	0	
1.3033	-1.80029	1.41479	0	
1.3040	-5.76094	3.8607	0	
1.3047	-13.7034	7.21782	0	
1.3053	-16.1391	6.3066	0	
1.3060	-7.6036	3.56095	0	
1.3067	0.338879	1.72652	0	
1.3073	-1.4826	0.203826	0	
1.3080	-5.14672	-0.719384	0	
1.3087	-4.55369	-1.01913	0	
1.3093	-3.93947	-2.24208	0	
1.3100	-4.8502	-2.85356	0	
1.3107	-6.67168	-0.107908	0	
1.3113	-8.51433	3.24922	0	
1.3120	-8.51433	4.77192	0	
1.3127	-6.37516	5.99487	0	
1.3133	-3.02873	4.47217	0	
1.3140	2.47805	0.203826	0	
1.3147	7.05292	0.203826	0	
1.3153	8.87439	6.3066	0	
1.3160	14.6777	8.12904	0	
1.3167	28.4235	4.47217	0	
1.3173	39.3947	2.94948	0	
1.3180	37.5732	3.56095	0	
1.3187	27.195	2.02627	0	
1.3193	16.5203	0.803313	0	
1.3200	7.34944	2.63774	0	
1.3207	-0.275339	6.3066	0	
1.3213	-5.46442	9.352	0	
1.3220	-6.98938	12.7091	0	
1.3227	-9.12855	13.9321	0	
1.3233	-12.475	12.4094	0	
1.3240	-17.6641	9.96347	0	
1.3247	-22.2389	8.44078	0	
1.3253	-20.0998	6.91808	0	
1.3260	-10.95	4.77192	0	
1.3267	-8.81085	-0.107908	0	
1.3273	-14.3176	-11.0905	0	
1.3280	-15.8426	-22.0851	0	
1.3287	-15.8426	-25.742	0	
1.3293	-17.6641	-21.1619	0	
1.3300	-13.9999	-11.4022	0	
1.3307	-7.6036	-2.85356	0	
1.3313	-7.2859	-2.85356	0	
1.3320	-7.6036	-5.29947	0	
1.3327	-5.46442	-2.24208	0	
1.3333	-3.62177	0.203826	0	
1.3340	-1.80029	-1.94234	0	
1.3347	1.56732	-2.85356	0	
1.3353	3.38879	-3.76478	0	
1.3360	6.14218	-4.68799	0	
1.3367	9.80631	-3.1533	0	
1.3373	8.87439	-1.94234	0	
1.3380	6.7564	-4.07651	0	
1.3387	6.4387	-3.76478	0	
1.3393	7.05292	-1.6306	0	
1.3400	6.4387	-2.85356	0	
1.3407	5.23144	-2.85356	0	
1.3413	3.38879	-0.107908	0	
1.3420	0.635398	0.803313	0	
1.3427	-2.09681	1.41479	0	
1.3433	-3.93947	2.63774	0	
1.3440	-5.14672	1.41479	0	
1.3447	-6.98938	-0.407651	0	
1.3453	-9.42507	-0.107908	0	
1.3460	-9.42507	1.11505	0	
1.3467	-7.6036	2.63774	0	
1.3473	-5.76094	3.8607	0	
1.3480	-1.80029	3.56095	0	
1.3487	1.86383	3.24922	0	
1.3493	-0.571858	3.24922	0	
1.3500	-3.02873	2.02627	0	
1.3507	0.953097	1.11505	0	
1.3513	1.56732	1.41479	0	
1.3520	-3.32525	0.803313	0	
1.3527	-3.02873	-0.107908	0	
1.3533	1.56732	-0.407651	0	
1.3540	4.00301	0.503569	0	
1.3547	6.14218	2.63774	0	
1.3553	7.66714	4.77192	0	
1.3560	6.14218	2.63774	0	
1.3567	5.52796	-2.55381	0	
1.3573	7.34944	-4.68799	0	
1.3580	8.57787	-2.85356	0	
1.3587	9.19209	-1.01913	0	
1.3593	8.57787	-2.24208	0	
1.3600	4.61723	-3.76478	0	
1.3607	-2.41451	-3.1533	0	
1.3613	-5.76094	-1.6306	0	
1.3620	-3.93947	0.203826	0	
1.3627	-11.8608	0.203826	0	
1.3633	-23.4674	-0.719384	0	
1.3640	-9.12855	1.72652	0	
1.3647	20.1845	6.3066	0	
1.3653	20.481	6.91808	0	
1.3660	-0.889557	6.3066	0	
1.3667	-5.46442	7.21782	0	
1.3673	2.16035	6.3066	0	
1.3680	0.338879	5.08365	0	
1.3687	-2.09681	5.38339	0	
1.3693	1.24962	5.99487	0	
1.3700	1.86383	6.3066	0	
1.3707	-1.18608	6.3066	0	
1.3713	-2.71103	1.72652	0	
1.3720	-2.41451	-5.91094	0	
1.3727	-2.09681	-8.34486	0	
1.3733	0.338879	-6.51043	0	
1.3740	4.00301	-7.43364	0	
1.3747	8.28135	-8.34486	0	
1.3753	12.8562	-5.59921	0	
1.3760	17.1134	-3.76478	0	
1.3767	20.1845	-2.85356	0	
1.3773	21.7094	-1.01913	0	
1.3780	15.2919	-1.01913	0	
1.3787	4.00301	-2.85356	0	
1.3793	-0.275339	0.803313	0	
1.3800	1.56732	3.8607	0	
1.3807	-3.02873	-0.107908	0	
1.3813	-7.6036	-3.76478	0	
1.3820	-6.07864	-3.46504	0	
1.3827	-7.2859	-3.46504	0	
1.3833	-10.3358	-2.55381	0	
1.3840	-2.09681	1.72652	0	
1.3847	8.28135	3.24922	0	
1.3853	5.52796	1.72652	0	
1.3860	-5.76094	2.94948	0	
1.3867	-13.9999	3.8607	0	
1.3873	-15.8426	2.02627	0	
1.3880	-13.0892	1.72652	0	
1.3887	-7.2859	0.803313	0	
1.3893	-3.32525	-1.01913	0	
1.3900	-4.23599	1.11505	0	
1.3907	-9.12855	5.69513	0	
1.3913	-10.6535	5.38339	0	
1.3920	-4.23599	2.02627	0	
1.3927	3.09227	-0.407651	0	
1.3933	3.68531	-0.719384	0	
1.3940	2.47805	1.72652	0	
1.3947	4.61723	3.56095	0	
1.3953	4.91374	2.94948	0	
1.3960	2.16035	3.56095	0	
1.3967	1.86383	3.8607	0	
1.3973	2.47805	0.803313	0	
1.3980	3.38879	-1.33086	0	
1.3987	7.96365	-0.107908	0	
1.3993	11.6278	0.203826	0	
1.4000	8.87439	-0.719384	0	
1.4007	5.52796	-3.1533	0	
1.4013	3.38879	-8.34486	0	
1.4020	1.24962	-11.4022	0	
1.4027	1.24962	-8.34486	0	
1.4033	4.29953	-3.76478	0	
1.4040	5.23144	0.803313	0	
1.4047	2.47805	3.56095	0	
1.4053	-2.09681	1.72652	0	
1.4060	-5.76094	-1.01913	0	
1.4067	-6.67168	1.11505	0	
1.4073	-6.37516	4.47217	0	
1.4080	-11.8608	4.16044	0	
1.4087	-24.6958	3.56095	0	
1.4093	-30.4779	3.8607	0	
1.4100	-22.2389	2.94948	0	
1.4107	-13.0892	-0.107908	0	
1.4113	-11.2677	-1.94234	0	
1.4120	-6.67168	0.503569	0	
1.4127	1.86383	-0.107908	0	
1.4133	3.09227	-7.73338	0	
1.4140	2.16035	-11.0905	0	
1.4147	5.23144	-6.21069	0	
1.4153	6.4387	-6.21069	0	
1.4160	4.91374	-10.479	0	
1.4167	7.66714	-10.1793	0	
1.4173	8.87439	-8.04512	0	
1.4180	5.52796	-8.95634	0	
1.4187	4.29953	-9.25608	0	
1.4193	1.24962	-7.43364	0	
1.4200	-8.51433	-5.29947	0	
1.4207	-10.3358	-3.76478	0	
1.4213	0.635398	-3.1533	0	
1.4220	5.82448	-0.407651	0	
1.4227	-1.18608	2.02627	0	
1.4233	-6.67168	0.803313	0	
1.4240	-4.8502	-0.107908	0	
1.4247	-3.02873	0.803313	0	
1.4253	-3.62177	3.24922	0	
1.4260	-3.32525	5.99487	0	
1.4267	-3.93947	5.38339	0	
1.4273	-5.46442	1.11505	0	
1.4280	-3.93947	-0.407651	0	
1.4287	-0.275339	1.11505	0	
1.4293	0.0423599	2.94948	0	
1.4300	-1.80029	3.56095	0	
1.4307	-2.09681	3.24922	0	
1.4313	-1.18608	1.72652	0	
1.4320	-0.889557	1.72652	0	
1.4327	-1.18608	3.8607	0	
1.4333	-0.275339	5.08365	0	
1.4340	2.47805	1.41479	0	
1.4347	6.14218	-2.85356	0	
1.4353	9.80631	-1.94234	0	
1.4360	11.3313	-0.107908	0	
1.4367	8.87439	-1.01913	0	
1.4373	7.05292	1.72652	0	
1.4380	7.05292	4.16044	0	
1.4387	4.91374	2.02627	0	
1.4393	3.38879	1.41479	0	
1.4400	4.91374	2.63774	0	
1.4407	2.47805	1.72652	0	
1.4413	-1.4826	1.72652	0	
1.4420	1.56732	2.63774	0	
1.4427	9.19209	1.41479	0	
1.4433	12.5385	-0.107908	0	
1.4440	6.14218	-1.33086	0	
1.4447	-8.51433	-1.01913	0	
1.4453	-15.8426	3.8607	0	
1.4460	-8.19663	7.8293	0	
1.4467	-0.275339	6.60635	0	
1.4473	0.635398	6.3066	0	
1.4480	3.09227	5.38339	0	
1.4487	4.00301	2.338	0	
1.4493	-4.23599	0.503569	0	
1.4500	-11.8608	-2.85356	0	
1.4507	-9.74277	-8.95634	0	
1.4513	-3.93947	-11.0905	0	
1.4520	-1.80029	-9.25608	0	
1.4527	-4.8502	-8.34486	0	
1.4533	-6.07864	-4.37626	0	
1.4540	-1.18608	-0.407651	0	
1.4547	4.29953	0.803313	0	
1.4553	7.96365	-0.107908	0	
1.4560	11.6278	-2.24208	0	
1.4567	10.717	-4.37626	0	
1.4573	7.96365	-3.1533	0	
1.4580	13.4704	-1.01913	0	
1.4587	20.1845	-1.01913	0	
1.4593	17.1134	-0.107908	0	
1.4600	11.9455	1.72652	0	
1.4607	10.1028	1.72652	0	
1.4613	6.7564	1.41479	0	
1.4620	5.23144	1.72652	0	
1.4627	6.7564	2.338	0	
1.4633	4.61723	2.94948	0	
1.4640	0.338879	3.56095	0	
1.4647	-1.80029	3.8607	0	
1.4653	-3.93947	2.63774	0	
1.4660	-5.76094	0.503569	0	
1.4667	-4.23599	0.503569	0	
1.4673	-3.32525	2.63774	0	
1.4680	-2.09681	2.63774	0	
1.4687	2.47805	1.72652	0	
1.4693	3.68531	-0.107908	0	
1.4700	-0.275339	-2.85356	0	
1.4707	-5.14672	-3.76478	0	
1.4713	-10.0393	-1.94234	0	
1.4720	-11.5642	0.803313	0	
1.4727	-3.32525	4.16044	0	
1.4733	4.91374	5.38339	0	
1.4740	3.68531	2.94948	0	
1.4747	2.16035	2.338	0	
1.4753	3.38879	3.56095	0	
1.4760	-0.275339	2.02627	0	
1.4767	-3.62177	0.803313	0	
1.4773	2.47805	2.63774	0	
1.4780	8.87439	3.56095	0	
1.4787	6.7564	1.72652	0	
1.4793	2.47805	0.803313	0	
1.4800	2.47805	0.803313	0	
1.4807	3.38879	1.11505	0	
1.4813	0.338879	2.02627	0	
1.4820	-4.55369	2.338	0	
1.4827	-8.81085	-1.94234	0	
1.4833	-13.0892	-6.51043	0	
1.4840	-13.9999	-4.98773	0	
1.4847	-10.6535	-1.94234	0	
1.4853	-7.90012	-2.85356	0	
1.4860	-7.90012	-1.01913	0	
1.4867	-7.90012	3.56095	0	
1.4873	-6.67168	0.203826	0	
1.4880	-6.07864	-6.51043	0	
1.4887	-5.76094	-6.82216	0	
1.4893	-5.76094	-3.76478	0	
1.4900	-6.67168	-2.85356	0	
1.4907	-7.6036	-1.94234	0	
1.4913	-6.07864	-1.94234	0	
1.4920	-1.80029	-2.55381	0	
1.4927	2.47805	-1.01913	0	
1.4933	3.38879	-0.107908	0	
1.4940	2.47805	-1.6306	0	
1.4947	2.47805	-2.55381	0	
1.4953	3.38879	-1.94234	0	
1.4960	5.23144	-1.6306	0	
1.4967	6.14218	-1.94234	0	
1.4973	5.82448	-1.01913	0	
1.4980	9.19209	0.503569	0	
1.4987	13.767	2.02627	0	
1.4993	13.1527	3.24922	0	
1.5000	11.3313	2.63774	0	
1.5007	11.3313	1.41479	0	
1.5013	10.3993	0.803313	0	
1.5020	10.3993	-1.6306	0	
1.5027	8.28135	-3.76478	0	
1.5033	-3.02873	-1.94234	0	
1.5040	-18.5748	-0.107908	0	
1.5047	-26.8138	-1.6306	0	
1.5053	-24.0816	1.11505	0	
1.5060	-13.9999	5.99487	0	
1.5067	-5.76094	6.3066	0	
1.5073	-3.62177	6.60635	0	
1.5080	-2.09681	8.44078	0	
1.5087	1.86383	7.21782	0	
1.5093	1.86383	5.38339	0	
1.5100	-3.93947	7.21782	0	
1.5107	-10.0393	7.8293	0	
1.5113	-11.2677	3.56095	0	
1.5120	-4.8502	-3.46504	0	
1.5127	2.16035	-9.56781	0	
1.5133	2.77457	-10.479	0	
1.5140	5.23144	-7.43364	0	
1.5147	9.48861	-5.29947	0	
1.5153	9.48861	-4.98773	0	
1.5160	8.57787	-5.59921	0	
1.5167	10.3993	-4.37626	0	
1.5173	8.57787	-1.01913	0	
1.5180	1.56732	1.11505	0	
1.5187	-3.93947	1.41479	0	
1.5193	-2.41451	0.503569	0	
1.5200	0.635398	-3.1533	0	
1.5207	-5.46442	-5.29947	0	
1.5213	-13.9999	-1.94234	0	
1.5220	-5.46442	2.63774	0	
1.5227	10.3993	2.94948	0	
1.5233	7.96365	0.803313	0	
1.5240	-3.93947	-1.33086	0	
1.5247	-4.23599	-1.01913	0	
1.5253	1.56732	1.72652	0	
1.5260	1.56732	0.203826	0	
1.5267	-1.4826	-3.46504	0	
1.5273	-3.02873	-2.24208	0	
1.5280	-4.8502	-1.01913	0	
1.5287	-5.76094	-2.24208	0	
1.5293	-4.8502	-2.85356	0	
1.5300	-3.62177	-1.33086	0	
1.5307	-2.41451	-0.407651	0	
1.5313	0.953097	-0.407651	0	
1.5320	4.29953	-1.01913	0	
1.5327	2.47805	-0.719384	0	
1.5333	1.24962	-0.107908	0	
1.5340	5.23144	-1.01913	0	
1.5347	7.34944	-0.407651	0	
1.5353	5.82448	2.02627	0	
1.5360	7.66714	0.803313	0	
1.5367	9.80631	-2.85356	0	
1.5373	7.66714	-3.76478	0	
1.5380	6.4387	-3.1533	0	
1.5387	7.05292	-2.55381	0	
1.5393	6.14218	-1.01913	0	
1.5400	5.23144	0.503569	0	
1.5407	4.61723	-0.107908	0	
1.5413	2.47805	-1.01913	0	
1.5420	-0.571858	-0.107908	0	
1.5427	-3.02873	1.72652	0	
1.5433	-3.93947	1.11505	0	
1.5440	-4.23599	-0.407651	0	
1.5447	-7.90012	-0.107908	0	
1.5453	-11.2677	2.338	0	
1.5460	-10.6535	2.63774	0	
1.5467	-8.81085	1.41479	0	
1.5473	-8.51433	1.41479	0	
1.5480	-7.90012	1.41479	0	
1.5487	-7.2859	-1.01913	0	
1.5493	-7.2859	-1.6306	0	
1.5500	-5.76094	0.203826	0	
1.5507	-2.71103	0.803313	0	
1.5513	0.338879	-0.107908	0	
1.5520	0.635398	0.203826	0	
1.5527	-0.571858	-0.107908	0	
1.5533	1.56732	-1.01913	0	
1.5540	6.14218	1.72652	0	
1.5547	7.66714	4.16044	0	
1.5553	6.14218	0.803313	0	
1.5560	7.05292	-0.719384	0	
1.5567	9.19209	2.02627	0	
1.5573	8.87439	2.338	0	
1.5580	7.66714	-0.107908	0	
1.5587	5.23144	0.803313	0	
1.5593	2.77457	0.503569	0	
1.5600	3.38879	-3.1533	0	
1.5607	5.23144	-3.76478	0	
1.5613	6.14218	-1.94234	0	
1.5620	9.48861	-1.6306	0	
1.5627	14.0635	-1.01913	0	
1.5633	10.717	1.72652	0	
1.5640	2.47805	3.56095	0	
1.5647	-4.55369	3.56095	0	
1.5653	-11.2677	2.338	0	
1.5660	-15.5249	1.41479	0	
1.5667	-16.1391	3.24922	0	
1.5673	-17.3675	0.803313	0	
1.5680	-15.8426	-8.04512	0	
1.5687	-10.3358	-10.1793	0	
1.5693	-8.19663	-4.68799	0	
1.5700	-10.0393	-4.37626	0	
1.5707	-8.51433	-4.68799	0	
1.5713	-5.46442	-0.407651	0	
1.5720	-3.02873	-0.407651	0	
1.5727	-2.09681	-2.85356	0	
1.5733	-2.09681	-0.719384	0	
1.5740	-0.275339	-1.33086	0	
1.5747	3.38879	-3.76478	0	
1.5753	4.61723	0.803313	0	
1.5760	4.29953	3.8607	0	
1.5767	5.23144	-1.6306	0	
1.5773	5.82448	-3.76478	0	
1.5780	5.82448	-0.407651	0	
1.5787	6.14218	-1.94234	0	
1.5793	4.00301	-4.07651	0	
1.5800	-0.571858	-2.55381	0	
1.5807	-3.93947	-1.01913	0	
1.5813	-5.46442	-0.719384	0	
1.5820	-5.14672	2.02627	0	
1.5827	-2.09681	5.38339	0	
1.5833	-0.275339	5.69513	0	
1.5840	-4.55369	2.63774	0	
1.5847	-9.12855	0.803313	0	
1.5853	-4.8502	2.338	0	
1.5860	1.86383	3.56095	0	
1.5867	0.0423599	2.63774	0	
1.5873	-8.51433	-1.33086	0	
1.5880	-11.8608	-6.51043	0	
1.5887	-9.42507	-10.1793	0	
1.5893	-8.51433	-8.34486	0	
1.5900	-8.19663	-4.07651	0	
1.5907	-5.46442	-0.719384	0	
1.5913	-4.8502	1.41479	0	
1.5920	-4.23599	0.803313	0	
1.5927	4.29953	-0.407651	0	
1.5933	10.717	-1.6306	0	
1.5940	5.23144	-3.1533	0	
1.5947	1.86383	-4.68799	0	
1.5953	7.34944	-3.1533	0	
1.5960	8.28135	-0.719384	0	
1.5967	-1.18608	-0.719384	0	
1.5973	-8.51433	-1.94234	0	
1.5980	-6.67168	-1.94234	0	
1.5987	-8.81085	-1.94234	0	
1.5993	-17.3675	-1.01913	0	
1.6000	-9.42507	2.94948	0	
1.6007	15.2919	5.38339	0	
1.6013	22.9167	2.94948	0	
1.6020	11.6278	0.803313	0	
1.6027	8.87439	2.338	0	
1.6033	9.80631	2.63774	0	
1.6040	1.86383	2.02627	0	
1.6047	1.56732	2.63774	0	
1.6053	7.34944	3.56095	0	
1.6060	1.86383	5.38339	0	
1.6067	-4.23599	6.3066	0	
1.6073	-2.41451	3.56095	0	
1.6080	-3.93947	1.72652	0	
1.6087	-5.46442	2.94948	0	
1.6093	-2.09681	2.02627	0	
1.6100	-2.71103	1.11505	0	
1.6107	-3.02873	3.56095	0	
1.6113	5.82448	5.08365	0	
1.6120	13.4704	6.3066	0	
1.6127	13.4704	8.12904	0	
1.6133	14.0635	5.38339	0	
1.6140	16.2026	-0.107908	0	
1.6147	16.8169	-1.6306	0	
1.6153	15.9061	-1.33086	0	
1.6160	10.717	-1.01913	0	
1.6167	1.86383	2.338	0	
1.6173	-6.67168	2.63774	0	
1.6180	-14.9107	-5.59921	0	
1.6187	-20.4175	-11.0905	0	
1.6193	-16.1391	-5.59921	0	
1.6200	-7.2859	-1.01913	0	
1.6207	-5.76094	-3.76478	0	
1.6213	-8.51433	-5.59921	0	
1.6220	-7.6036	-2.24208	0	
1.6227	-3.93947	-0.407651	0	
1.6233	-2.09681	-1.01913	0	
1.6240	-2.71103	-1.33086	0	
1.6247	-5.46442	0.203826	0	
1.6253	-8.51433	1.41479	0	
1.6260	-8.81085	-0.719384	0	
1.6267	-8.81085	-1.94234	0	
1.6273	-9.42507	0.803313	0	
1.6280	-8.51433	1.41479	0	
1.6287	-6.98938	-0.107908	0	
1.6293	-7.2859	0.503569	0	
1.6300	-4.8502	-0.407651	0	
1.6307	-1.4826	-3.76478	0	
1.6313	-1.4826	-3.76478	0	
1.6320	-2.41451	-2.24208	0	
1.6327	-0.571858	-3.46504	0	
1.6333	2.47805	-1.94234	0	
1.6340	5.23144	1.41479	0	
1.6347	4.29953	1.41479	0	
1.6353	0.338879	-0.107908	0	
1.6360	2.77457	-0.407651	0	
1.6367	11.0136	-0.107908	0	
1.6373	11.3313	0.503569	0	
1.6380	5.23144	-0.107908	0	
1.6387	4.00301	-1.01913	0	
1.6393	4.61723	-0.407651	0	
1.6400	2.47805	-0.107908	0	
1.6407	1.56732	0.203826	0	
1.6413	3.09227	2.63774	0	
1.6420	4.61723	2.94948	0	
1.6427	2.16035	0.803313	0	
1.6433	-2.71103	1.72652	0	
1.6440	-5.76094	2.02627	0	
1.6447	-6.67168	-0.107908	0	
1.6453	-5.46442	0.803313	0	
1.6460	-4.8502	2.63774	0	
1.6467	-6.67168	-0.407651	0	
1.6473	-5.76094	-3.76478	0	
1.6480	-3.62177	-2.85356	0	
1.6487	-7.90012	-1.01913	0	
1.6493	-12.1785	1.41479	0	
1.6500	-7.6036	2.94948	0	
1.6507	-4.8502	2.63774	0	
1.6513	-5.76094	2.02627	0	
1.6520	-1.4826	2.338	0	
1.6527	4.00301	-0.107908	0	
1.6533	5.23144	-2.85356	0	
1.6540	12.242	-3.76478	0	
1.6547	20.7775	-4.68799	0	
1.6553	19.2526	-4.98773	0	
1.6560	15.9061	-7.43364	0	
1.6567	18.3418	-9.56781	0	
1.6573	17.1134	-6.21069	0	
1.6580	7.96365	-3.1533	0	
1.6587	-2.09681	-4.37626	0	
1.6593	-8.51433	-4.37626	0	
1.6600	-10.3358	-1.6306	0	
1.6607	-10.3358	-0.107908	0	
1.6613	-7.90012	1.72652	0	
1.6620	-2.09681	5.69513	0	
1.6627	0.953097	5.99487	0	
1.6633	-3.62177	2.338	0	
1.6640	-8.51433	0.503569	0	
1.6647	-10.0393	0.503569	0	
1.6653	-11.2677	-1.01913	0	
1.6660	-10.3358	-2.85356	0	
1.6667	-8.81085	-1.94234	0	
1.6673	-9.42507	0.803313	0	
1.6680	-9.42507	1.72652	0	
1.6687	-6.37516	-0.107908	0	
1.6693	-3.62177	-2.55381	0	
1.6700	-5.14672	-4.68799	0	
1.6707	-9.42507	-5.59921	0	
1.6713	-4.8502	-3.76478	0	
1.6720	8.28135	-0.107908	0	
1.6727	11.0136	2.63774	0	
1.6733	3.38879	1.41479	0	
1.6740	4.29953	-0.107908	0	
1.6747	10.717	-0.107908	0	
1.6753	9.80631	-1.01913	0	
1.6760	8.87439	-2.85356	0	
1.6767	10.717	-2.24208	0	
1.6773	8.87439	0.803313	0	
1.6780	6.4387	5.08365	0	
1.6787	4.00301	8.44078	0	
1.6793	0.0423599	7.21782	0	
1.6800	-0.571858	1.72652	0	
1.6807	2.16035	-1.01913	0	
1.6813	3.68531	-0.107908	0	
1.6820	3.09227	-0.719384	0	
1.6827	-3.93947	-1.94234	0	
1.6833	-10.6535	-4.68799	0	
1.6840	-4.55369	-9.25608	0	
1.6847	4.61723	-7.73338	0	
1.6853	7.34944	-1.94234	0	
1.6860	13.4704	0.203826	0	
1.6867	21.0952	-0.407651	0	
1.6873	18.956	-0.107908	0	
1.6880	11.9455	-0.407651	0	
1.6887	4.91374	-2.85356	0	
1.6893	-3.93947	-1.94234	0	
1.6900	-7.2859	3.56095	0	
1.6907	-7.6036	7.8293	0	
1.6913	-9.12855	6.3066	0	
1.6920	-6.67168	1.72652	0	
1.6927	-4.55369	1.11505	0	
1.6933	-8.51433	1.11505	0	
1.6940	-8.51433	-1.6306	0	
1.6947	-7.2859	-1.94234	0	
1.6953	-9.42507	1.72652	0	
1.6960	-1.80029	3.56095	0	
1.6967	9.80631	0.803313	0	
1.6973	7.05292	-2.85356	0	
1.6980	2.47805	-2.85356	0	
1.6987	9.80631	-0.107908	0	
1.6993	13.1527	1.11505	0	
1.7000	9.48861	0.803313	0	
1.7007	7.96365	0.803313	0	
1.7013	6.14218	-0.407651	0	
1.7020	5.52796	-2.85356	0	
1.7027	7.05292	-2.85356	0	
1.7033	-0.889557	-1.33086	0	
1.7040	-17.6641	-0.719384	0	
1.7047	-30.4779	-1.01913	0	
1.7053	-33.8455	0.203826	0	
1.7060	-28.0422	3.56095	0	
1.7067	-17.6641	4.16044	0	
1.7073	-11.2677	2.02627	0	
1.7080	-8.51433	1.41479	0	
1.7087	-6.37516	0.503569	0	
1.7093	-4.55369	-2.85356	0	
1.7100	2.47805	-3.1533	0	
1.7107	10.717	2.02627	0	
1.7113	7.05292	4.47217	0	
1.7120	-1.80029	0.803313	0	
1.7127	-1.18608	-3.76478	0	
1.7133	2.16035	-6.51043	0	
1.7140	1.56732	-6.82216	0	
1.7147	4.91374	-3.76478	0	
1.7153	8.87439	-1.01913	0	
1.7160	7.96365	-0.107908	0	
1.7167	9.80631	0.203826	0	
1.7173	13.4704	0.503569	0	
1.7180	8.87439	-1.33086	0	
1.7187	3.38879	-1.94234	0	
1.7193	2.77457	-0.107908	0	
1.7200	2.47805	-0.107908	0	
1.7207	0.953097	-1.94234	0	
1.7213	2.47805	-0.407651	0	
1.7220	3.38879	1.72652	0	
1.7227	1.86383	-0.107908	0	
1.7233	-2.09681	-1.94234	0	
1.7240	-5.46442	-0.107908	0	
1.7247	-6.98938	2.338	0	
1.7253	-6.07864	3.24922	0	
1.7260	-5.46442	2.63774	0	
1.7267	-7.6036	1.72652	0	
1.7273	-11.8608	3.56095	0	
1.7280	-11.2677	5.38339	0	
1.7287	-4.8502	2.338	0	
1.7293	-2.09681	-0.407651	0	
1.7300	-3.62177	0.803313	0	
1.7307	-3.02873	1.72652	0	
1.7313	-1.18608	0.803313	0	
1.7320	-1.18608	0.503569	0	
1.7327	-0.889557	0.803313	0	
1.7333	1.56732	1.72652	0	
1.7340	4.29953	2.02627	0	
1.7347	7.34944	0.503569	0	
1.7353	9.80631	-0.107908	0	
1.7360	10.1028	0.803313	0	
1.7367	9.80631	0.803313	0	
1.7373	8.57787	2.02627	0	
1.7380	4.29953	2.63774	0	
1.7387	0.635398	-2.55381	0	
1.7393	-0.571858	-5.59921	0	
1.7400	-0.275339	-2.24208	0	
1.7407	1.56732	-1.6306	0	
1.7413	3.68531	-3.46504	0	
1.7420	2.16035	-1.01913	0	
1.7427	-0.889557	0.503569	0	
1.7433	0.0423599	-2.85356	0	
1.7440	0.0423599	-3.46504	0	
1.7447	-3.93947	-0.407651	0	
1.7453	-6.37516	0.803313	0	
1.7460	-6.07864	0.803313	0	
1.7467	-5.14672	0.203826	0	
1.7473	-5.14672	-2.55381	0	
1.7480	-8.19663	-3.46504	0	
1.7487	-10.3358	-0.107908	0	
1.7493	-1.80029	2.94948	0	
1.7500	8.57787	-0.107908	0	
1.7507	4.29953	-5.59921	0	
1.7513	-4.55369	-5.29947	0	
1.7520	-0.889557	-0.107908	0	
1.7527	8.28135	2.338	0	
1.7533	7.34944	1.41479	0	
1.7540	1.86383	2.338	0	
1.7547	3.09227	2.338	0	
1.7553	8.57787	-0.107908	0	
1.7560	9.48861	0.803313	0	
1.7567	6.14218	4.16044	0	
1.7573	4.29953	1.72652	0	
1.7580	4.29953	-1.94234	0	
1.7587	4.29953	-1.33086	0	
1.7593	3.38879	-1.01913	0	
1.7600	1.86383	-1.6306	0	
1.7607	1.56732	-0.107908	0	
1.7613	2.47805	-0.107908	0	
1.7620	1.86383	-1.33086	0	
1.7627	-1.4826	-1.6306	0	
1.7633	-3.93947	-1.94234	0	
1.7640	-7.2859	0.803313	0	
1.7647	-11.2677	5.08365	0	
1.7653	-10.6535	2.63774	0	
1.7660	-7.90012	-3.76478	0	
1.7667	-6.67168	-3.1533	0	
1.7673	-5.76094	-1.01913	0	
1.7680	-5.76094	-3.1533	0	
1.7687	-4.8502	-2.85356	0	
1.7693	-2.41451	-1.01913	0	
1.7700	-4.23599	-4.07651	0	
1.7707	-8.19663	-5.59921	0	
1.7713	-5.14672	-1.33086	0	
1.7720	-0.275339	1.11505	0	
1.7727	-1.4826	-1.01913	0	
1.7733	-0.275339	-1.94234	0	
1.7740	5.23144	0.203826	0	
1.7747	7.96365	0.803313	0	
1.7753	6.4387	-1.01913	0	
1.7760	6.14218	-2.55381	0	
1.7767	6.14218	-1.01913	0	
1.7773	6.14218	0.503569	0	
1.7780	6.14218	-1.01913	0	
1.7787	3.68531	-4.07651	0	
1.7793	0.635398	-4.07651	0	
1.7800	0.635398	-2.55381	0	
1.7807	0.635398	-1.94234	0	
1.7813	-0.571858	-0.719384	0	
1.7820	-1.18608	1.11505	0	
1.7827	-2.41451	-0.107908	0	
1.7833	-3.62177	-1.01913	0	
1.7840	-0.571858	-0.107908	0	
1.7847	-0.275339	-0.107908	0	
1.7853	-5.76094	-0.719384	0	
1.7860	-6.37516	-0.107908	0	
1.7867	-3.02873	1.11505	0	
1.7873	-6.07864	3.24922	0	
1.7880	-10.3358	4.77192	0	
1.7887	-7.2859	3.8607	0	
1.7893	-5.46442	2.63774	0	
1.7900	-8.51433	3.8607	0	
1.7907	-8.51433	4.77192	0	
1.7913	-4.55369	5.38339	0	
1.7920	-1.18608	5.69513	0	
1.7927	1.56732	3.24922	0	
1.7933	4.61723	-1.33086	0	
1.7940	10.1028	-3.76478	0	
1.7947	14.0635	-4.07651	0	
1.7953	13.4704	-3.76478	0	
1.7960	11.6278	-1.6306	0	
1.7967	11.6278	-0.107908	0	
1.7973	10.3993	-0.719384	0	
1.7980	7.96365	-0.407651	0	
1.7987	6.7564	-0.719384	0	
1.7993	4.29953	-1.6306	0	
1.8000	1.24962	0.203826	0	
1.8007	1.24962	1.72652	0	
1.8013	2.47805	-1.01913	0	
1.8020	-0.275339	-3.46504	0	
1.8027	-5.14672	-2.85356	0	
1.8033	-7.2859	-2.85356	0	
1.8040	-7.6036	-0.719384	0	
1.8047	-9.42507	1.72652	0	
1.8053	-9.12855	-0.107908	0	
1.8060	-6.67168	-1.94234	0	
1.8067	-4.8502	1.41479	0	
1.8073	-4.8502	2.63774	0	
1.8080	-4.55369	-1.94234	0	
1.8087	-3.93947	-3.76478	0	
1.8093	-3.02873	-1.33086	0	
1.8100	-2.09681	0.803313	0	
1.8107	-1.4826	1.72652	0	
1.8113	-1.80029	2.338	0	
1.8120	-2.09681	2.63774	0	
1.8127	-1.4826	2.338	0	
1.8133	1.86383	1.11505	0	
1.8140	5.82448	1.41479	0	
1.8147	6.14218	1.11505	0	
1.8153	3.38879	-0.107908	0	
1.8160	3.09227	-0.107908	0	
1.8167	4.29953	-0.107908	0	
1.8173	3.09227	0.803313	0	
1.8180	1.56732	2.63774	0	
1.8187	3.38879	-0.107908	0	
1.8193	2.47805	-5.59921	0	
1.8200	-0.275339	-4.68799	0	
1.8207	-0.275339	-1.94234	0	
1.8213	-0.889557	-3.76478	0	
1.8220	-3.62177	-3.76478	0	
1.8227	-4.8502	0.803313	0	
1.8233	-6.37516	2.338	0	
1.8240	-6.67168	0.803313	0	
1.8247	-3.32525	-1.01913	0	
1.8253	-3.93947	-2.24208	0	
1.8260	-7.90012	-0.719384	0	
1.8267	-6.67168	0.803313	0	
1.8273	-4.23599	-1.6306	0	
1.8280	-6.98938	-2.24208	0	
1.8287	-7.2859	1.72652	0	
1.8293	-4.23599	2.63774	0	
1.8300	-5.14672	1.41479	0	
1.8307	-4.8502	1.72652	0	
1.8313	2.47805	2.02627	0	
1.8320	5.82448	0.803313	0	
1.8327	2.47805	-0.107908	0	
1.8333	2.47805	-1.01913	0	
1.8340	4.29953	-2.24208	0	
1.8347	3.09227	-3.76478	0	
1.8353	4.61723	-2.24208	0	
1.8360	7.96365	0.503569	0	
1.8367	6.7564	-0.107908	0	
1.8373	5.52796	-4.07651	0	
1.8380	5.52796	-5.59921	0	
1.8387	2.47805	-5.59921	0	
1.8393	6.14218	-4.68799	0	
1.8400	19.8668	-2.55381	0	
1.8407	23.2344	-0.719384	0	
1.8413	11.9455	-1.01913	0	
1.8420	1.56732	0.803313	0	
1.8427	-6.98938	3.56095	0	
1.8433	-13.0892	0.803313	0	
1.8440	-13.9999	-4.07651	0	
1.8447	-16.1391	-3.46504	0	
1.8453	-16.7533	0.203826	0	
1.8460	-10.95	0.803313	0	
1.8467	-9.74277	1.11505	0	
1.8473	-13.9999	2.63774	0	
1.8480	-11.5642	0.803313	0	
1.8487	-6.67168	-1.94234	0	
1.8493	-6.07864	-1.94234	0	
1.8500	-3.32525	-3.76478	0	
1.8507	2.77457	-6.51043	0	
1.8513	10.717	-4.98773	0	
1.8520	18.6383	-1.33086	0	
1.8527	20.7775	1.41479	0	
1.8533	18.3418	3.24922	0	
1.8540	17.1134	1.72652	0	
1.8547	16.2026	-0.107908	0	
1.8553	14.0635	0.803313	0	
1.8560	14.0635	2.63774	0	
1.8567	9.48861	1.41479	0	
1.8573	-4.8502	-0.407651	0	
1.8580	-18.2783	-1.01913	0	
1.8587	-20.4175	-1.01913	0	
1.8593	-14.9107	-1.33086	0	
1.8600	-8.51433	-1.94234	0	
1.8607	-4.8502	-0.107908	0	
1.8613	-3.93947	2.63774	0	
1.8620	-3.32525	1.41479	0	
1.8627	-3.62177	0.203826	0	
1.8633	-8.51433	2.63774	0	
1.8640	-14.9107	3.24922	0	
1.8647	-15.2284	-0.107908	0	
1.8653	-13.0892	-0.719384	0	
1.8660	-12.475	-0.719384	0	
1.8667	-9.74277	-3.1533	0	
1.8673	-8.19663	-3.76478	0	
1.8680	-10.0393	-1.01913	0	
1.8687	-9.12855	-0.107908	0	
1.8693	-8.51433	-1.01913	0	
1.8700	-12.1785	-0.107908	0	
1.8707	-7.2859	1.11505	0	
1.8713	4.29953	1.72652	0	
1.8720	5.52796	3.56095	0	
1.8727	1.24962	5.38339	0	
1.8733	2.77457	3.8607	0	
1.8740	7.34944	1.72652	0	
1.8747	10.1028	1.72652	0	
1.8753	10.717	2.94948	0	
1.8760	9.80631	5.08365	0	
1.8767	8.28135	5.08365	0	
1.8773	5.52796	1.11505	0	
1.8780	0.338879	-1.01913	0	
1.8787	-3.32525	2.02627	0	
1.8793	-5.46442	1.72652	0	
1.8800	-9.42507	-6.21069	0	
1.8807	-10.6535	-11.4022	0	
1.8813	-3.32525	-8.95634	0	
1.8820	7.66714	-4.07651	0	
1.8827	10.717	-1.94234	0	
1.8833	0.635398	-0.719384	0	
1.8840	-10.0393	0.803313	0	
1.8847	-13.7034	1.11505	0	
1.8853	-20.4175	-1.01913	0	
1.8860	-22.2389	-1.94234	0	
1.8867	-6.67168	0.803313	0	
1.8873	5.23144	2.338	0	
1.8880	3.68531	1.72652	0	
1.8887	5.82448	2.63774	0	
1.8893	11.3313	3.24922	0	
1.8900	9.19209	0.503569	0	
1.8907	6.4387	-2.85356	0	
1.8913	8.57787	-3.1533	0	
1.8920	9.80631	-1.33086	0	
1.8927	8.28135	-0.107908	0	
1.8933	6.14218	0.503569	0	
1.8940	7.96365	2.94948	0	
1.8947	13.767	3.56095	0	
1.8953	12.8562	-0.719384	0	
1.8960	7.05292	-2.24208	0	
1.8967	7.66714	0.203826	0	
1.8973	10.1028	1.72652	0	
1.8980	8.87439	2.63774	0	
1.8987	8.57787	3.56095	0	
1.8993	6.4387	1.72652	0	
1.9000	-1.18608	0.203826	0	
1.9007	-4.8502	1.11505	0	
1.9013	-3.62177	0.203826	0	
1.9020	-5.76094	-1.94234	0	
1.9027	-8.81085	-2.55381	0	
1.9033	-10.0393	-3.76478	0	
1.9040	-11.2677	-8.95634	0	
1.9047	-12.7927	-13.2247	0	
1.9053	-12.1785	-12.0137	0	
1.9060	-10.3358	-6.51043	0	
1.9067	-6.67168	-2.85356	0	
1.9073	-6.37516	-2.55381	0	
1.9080	-8.51433	-2.85356	0	
1.9087	-8.51433	-1.6306	0	
1.9093	-10.3358	-0.719384	0	
1.9100	-11.2677	0.803313	0	
1.9107	-2.09681	2.63774	0	
1.9113	8.57787	5.08365	0	
1.9120	6.7564	6.3066	0	
1.9127	0.635398	5.69513	0	
1.9133	1.56732	2.63774	0	
1.9140	5.23144	-0.407651	0	
1.9147	7.96365	-1.94234	0	
1.9153	10.1028	-1.33086	0	
1.9160	8.28135	-0.107908	0	
1.9167	2.47805	0.803313	0	
1.9173	-1.18608	-1.01913	0	
1.9180	0.635398	-4.07651	0	
1.9187	4.29953	-5.91094	0	
1.9193	7.34944	-4.37626	0	
1.9200	12.242	-1.94234	0	
1.9207	12.5385	-1.6306	0	
1.9213	6.14218	-1.01913	0	
1.9220	6.14218	2.338	0	
1.9227	14.3812	5.08365	0	
1.9233	11.6278	4.47217	0	
1.9240	0.0423599	4.47217	0	
1.9247	-8.19663	6.60635	0	
1.9253	-18.2783	8.74052	0	
1.9260	-31.4098	9.352	0	
1.9267	-31.7064	7.8293	0	
1.9273	-17.6641	4.77192	0	
1.9280	-4.55369	3.56095	0	
1.9287	0.338879	3.56095	0	
1.9293	-0.275339	1.72652	0	
1.9300	-4.8502	0.503569	0	
1.9307	-12.1785	0.803313	0	
1.9313	-17.0498	-1.6306	0	
1.9320	-14.9107	-5.59921	0	
1.9327	-5.46442	-8.04512	0	
1.9333	5.23144	-9.56781	0	
1.9340	9.80631	-11.0905	0	
1.9347	5.23144	-9.86756	0	
1.9353	0.953097	-5.91094	0	
1.9360	3.38879	-3.76478	0	
1.9367	7.05292	-2.85356	0	
1.9373	7.05292	-2.24208	0	
1.9380	6.4387	-2.85356	0	
1.9387	5.23144	-3.1533	0	
1.9393	4.61723	-1.01913	0	
1.9400	6.7564	-0.407651	0	
1.9407	6.14218	-1.94234	0	
1.9413	-0.275339	-2.85356	0	
1.9420	-3.02873	-1.94234	0	
1.9427	-0.571858	2.02627	0	
1.9433	-1.18608	6.3066	0	
1.9440	-6.67168	5.38339	0	
1.9447	-13.3857	0.803313	0	
1.9453	-14.9107	-0.407651	0	
1.9460	-10.0393	0.803313	0	
1.9467	-11.8608	0.203826	0	
1.9473	-17.9818	-0.107908	0	
1.9480	-5.46442	1.72652	0	
1.9487	18.956	4.77192	0	
1.9493	21.7094	4.47217	0	
1.9500	6.14218	1.72652	0	
1.9507	-1.80029	2.94948	0	
1.9513	-1.4826	6.60635	0	
1.9520	-3.62177	5.69513	0	
1.9527	-5.76094	2.02627	0	
1.9533	-2.09681	0.803313	0	
1.9540	5.23144	0.803313	0	
1.9547	8.28135	1.11505	0	
1.9553	4.91374	1.72652	0	
1.9560	2.16035	2.94948	0	
1.9567	2.47805	2.63774	0	
1.9573	5.52796	0.803313	0	
1.9580	9.80631	-1.33086	0	
1.9587	8.87439	-1.6306	0	
1.9593	7.05292	-1.01913	0	
1.9600	13.767	-0.107908	0	
1.9607	21.7094	1.11505	0	
1.9613	20.481	1.11505	0	
1.9620	14.6777	1.11505	0	
1.9627	8.87439	2.338	0	
1.9633	-0.571858	0.803313	0	
1.9640	-10.6535	-1.33086	0	
1.9647	-15.8426	0.803313	0	
1.9653	-17.0498	4.77192	0	
1.9660	-17.6641	6.3066	0	
1.9667	-17.6641	6.91808	0	
1.9673	-16.4568	7.51757	0	
1.9680	-12.475	8.44078	0	
1.9687	-6.07864	10.8747	0	
1.9693	-3.62177	11.7979	0	
1.9700	-10.0393	7.51757	0	
1.9707	-13.9999	0.503569	0	
1.9713	-9.42507	-3.76478	0	
1.9720	-5.46442	-3.46504	0	
1.9727	-4.8502	-1.94234	0	
1.9733	-0.571858	-5.59921	0	
1.9740	3.68531	-11.0905	0	
1.9747	5.23144	-10.479	0	
1.9753	7.05292	-6.82216	0	
1.9760	7.96365	-5.91094	0	
1.9767	12.5385	-2.85356	0	
1.9773	21.3917	3.24922	0	
1.9780	22.3025	4.47217	0	
1.9787	13.1527	2.338	0	
1.9793	7.96365	-0.407651	0	
1.9800	7.96365	-4.37626	0	
1.9807	6.7564	-5.91094	0	
1.9813	4.61723	-1.6306	0	
1.9820	1.86383	0.803313	0	
1.9827	-2.09681	-1.01913	0	
1.9833	-4.55369	-0.107908	0	
1.9840	-5.76094	2.02627	0	
1.9847	-6.37516	1.41479	0	
1.9853	-6.67168	1.72652	0	
1.9860	-7.90012	2.63774	0	
1.9867	-8.19663	1.72652	0	
1.9873	-6.98938	1.72652	0	
1.9880	-6.67168	0.503569	0	
1.9887	-6.07864	-3.1533	0	
1.9893	-4.8502	-2.85356	0	
1.9900	-4.8502	-1.33086	0	
1.9907	-3.93947	-3.76478	0	
1.9913	-1.80029	-4.07651	0	
1.9920	-1.80029	0.503569	0	
1.9927	-2.41451	1.72652	0	
1.9933	-1.18608	1.11505	0	
1.9940	0.0423599	1.72652	0	
1.9947	1.24962	-1.01913	0	
1.9953	2.47805	-3.76478	0	
1.9960	3.09227	-0.719384	0	
1.9967	3.09227	1.41479	0	
1.9973	5.23144	-0.407651	0	
1.9980	7.96365	-1.01913	0	
1.9987	8.87439	-1.01913	0	
1.9993	9.48861	-1.33086	0	
2.0000	9.48861	-1.01913	0	
2.0007	5.23144	-1.94234	0	
2.0013	-0.889557	-2.85356	0	
2.0020	-1.18608	-1.94234	0	
2.0027	-1.18608	-1.6306	0	
2.0033	-4.8502	-2.55381	0	
2.0040	-3.32525	-1.33086	0	
2.0047	1.86383	0.503569	0	
2.0053	0.0423599	0.503569	0	
2.0060	1.56732	1.11505	0	
2.0067	11.6278	2.338	0	
2.0073	14.6777	1.41479	0	
2.0080	9.48861	-0.107908	0	
2.0087	7.05292	0.203826	0	
2.0093	2.16035	2.63774	0	
2.0100	-7.2859	4.47217	0	
2.0107	-12.1785	2.94948	0	
2.0113	-10.6535	-0.719384	0	
2.0120	-7.6036	-1.94234	0	
2.0127	-2.09681	-0.719384	0	
2.0133	4.00301	0.203826	0	
2.0140	7.05292	0.503569	0	
2.0147	5.52796	-0.107908	0	
2.0153	3.38879	-1.01913	0	
2.0160	4.29953	-1.6306	0	
2.0167	1.56732	-1.94234	0	
2.0173	-5.46442	-1.94234	0	
2.0180	-6.37516	-1.01913	0	
2.0187	-0.275339	-1.94234	0	
2.0193	1.86383	-4.07651	0	
2.0200	0.338879	-3.76478	0	
2.0207	0.635398	-1.94234	0	
2.0213	-0.275339	-0.407651	0	
2.0220	-1.4826	0.203826	0	
2.0227	-0.889557	-0.719384	0	
2.0233	-2.09681	-0.107908	0	
2.0240	-5.76094	2.94948	0	
2.0247	-7.6036	3.8607	0	
2.0253	-10.3358	0.803313	0	
2.0260	-13.9999	-1.94234	0	
2.0267	-11.8608	-3.46504	0	
2.0273	-7.6036	-3.76478	0	
2.0280	-6.67168	-1.94234	0	
2.0287	-5.46442	0.203826	0	
2.0293	-3.62177	1.41479	0	
2.0300	-3.93947	0.503569	0	
2.0307	-3.93947	-0.719384	0	
2.0313	-3.02873	0.203826	0	
2.0320	-0.275339	0.503569	0	
2.0327	10.717	-1.01913	0	
2.0333	21.0952	0.803313	0	
2.0340	17.4311	6.3066	0	
2.0347	9.80631	9.05225	0	
2.0353	9.80631	10.2752	0	
2.0360	6.7564	10.2752	0	
2.0367	-0.275339	7.21782	0	
2.0373	2.47805	6.3066	0	
2.0380	7.96365	6.3066	0	
2.0387	3.38879	2.63774	0	
2.0393	-5.14672	0.803313	0	
2.0400	-11.2677	-0.107908	0	
2.0407	-14.3176	-10.479	0	
2.0413	-12.1785	-22.6846	0	
2.0420	-6.67168	-21.1619	0	
2.0427	-0.889557	-13.2247	0	
2.0433	2.77457	-8.95634	0	
2.0440	-1.80029	-5.59921	0	
2.0447	-7.2859	-2.55381	0	
2.0453	-2.09681	-1.01913	0	
2.0460	-4.55369	-0.107908	0	
2.0467	-19.8032	-0.719384	0	
2.0473	-21.3282	-0.407651	0	
2.0480	-9.74277	0.803313	0	
2.0487	-5.76094	-0.407651	0	
2.0493	-1.4826	0.203826	0	
2.0500	7.05292	3.24922	0	
2.0507	4.29953	-0.407651	0	
2.0513	-1.80029	-4.68799	0	
2.0520	-0.275339	-0.407651	0	
2.0527	0.0423599	2.338	0	
2.0533	-0.571858	-1.33086	0	
2.0540	4.91374	-2.24208	0	
2.0547	10.1028	-1.01913	0	
2.0553	11.3313	-2.55381	0	
2.0560	11.0136	-1.94234	0	
2.0567	7.96365	-1.01913	0	
2.0573	5.23144	-1.01913	0	
2.0580	5.52796	2.338	0	
2.0587	4.29953	3.56095	0	
2.0593	1.56732	-1.01913	0	
2.0600	-0.275339	-1.94234	0	
2.0607	-1.4826	1.72652	0	
2.0613	-3.62177	0.203826	0	
2.0620	-4.8502	-3.1533	0	
2.0627	-6.37516	-4.07651	0	
2.0633	-8.19663	-6.51043	0	
2.0640	-8.19663	-8.95634	0	
2.0647	-3.62177	-5.91094	0	
2.0653	0.338879	-2.85356	0	
2.0660	-2.09681	-2.85356	0	
2.0667	-5.14672	-1.6306	0	
2.0673	-3.93947	2.02627	0	
2.0680	0.635398	2.338	0	
2.0687	4.29953	-0.107908	0	
2.0693	3.09227	-1.6306	0	
2.0700	-0.275339	-1.6306	0	
2.0707	-1.18608	-1.94234	0	
2.0713	0.635398	-3.46504	0	
2.0720	2.47805	-2.24208	0	
2.0727	3.09227	0.803313	0	
2.0733	2.47805	2.338	0	
2.0740	2.77457	-0.407651	0	
2.0747	6.4387	-2.55381	0	
2.0753	9.19209	-1.01913	0	
2.0760	11.0136	-1.01913	0	
2.0767	15.2919	-3.76478	0	
2.0773	15.2919	-3.76478	0	
2.0780	8.87439	-1.01913	0	
2.0787	4.29953	1.41479	0	
2.0793	2.77457	2.94948	0	
2.0800	1.86383	2.63774	0	
2.0807	0.953097	2.02627	0	
2.0813	0.338879	3.24922	0	
2.0820	0.338879	2.94948	0	
2.0827	1.24962	1.41479	0	
2.0833	-1.18608	2.02627	0	
2.0840	-5.14672	2.63774	0	
2.0847	-5.76094	1.72652	0	
2.0853	-8.51433	2.63774	0	
2.0860	-15.8426	2.338	0	
2.0867	-17.9818	-0.719384	0	
2.0873	-12.1785	-1.6306	0	
2.0880	-6.07864	-1.94234	0	
2.0887	-3.93947	-5.29947	0	
2.0893	-3.32525	-5.91094	0	
2.0900	-3.02873	-2.85356	0	
2.0907	-1.4826	-1.01913	0	
2.0913	-1.18608	-1.01913	0	
2.0920	-3.02873	1.11505	0	
2.0927	-3.32525	2.63774	0	
2.0933	0.635398	-0.107908	0	
2.0940	3.09227	-3.76478	0	
2.0947	2.47805	-3.76478	0	
2.0953	1.86383	-3.76478	0	
2.0960	3.38879	-6.51043	0	
2.0967	5.52796	-6.21069	0	
2.0973	7.05292	-1.01913	0	
2.0980	11.6278	1.41479	0	
2.0987	17.1134	-0.107908	0	
2.0993	16.8169	0.203826	0	
2.1000	13.1527	1.72652	0	
2.1007	11.6278	1.72652	0	
2.1013	10.1028	2.63774	0	
2.1020	6.7564	3.24922	0	
2.1027	4.29953	2.63774	0	
2.1033	-3.62177	-0.107908	0	
2.1040	-21.6247	-3.76478	0	
2.1047	-36.8954	-4.68799	0	
2.1053	-38.4204	-2.85356	0	
2.1060	-32.0029	-1.6306	0	
2.1067	-24.9923	-0.719384	0	
2.1073	-17.6641	1.11505	0	
2.1080	-10.3358	1.72652	0	
2.1087	-8.19663	2.63774	0	
2.1093	-9.42507	2.63774	0	
2.1100	-5.76094	-0.407651	0	
2.1107	-0.275339	-3.46504	0	
2.1113	1.86383	-2.24208	0	
2.1120	0.953097	-0.107908	0	
2.1127	0.338879	0.203826	0	
2.1133	2.47805	-2.55381	0	
2.1140	6.14218	-6.82216	0	
2.1147	8.87439	-5.91094	0	
2.1153	11.9455	-1.33086	0	
2.1160	12.242	-1.94234	0	
2.1167	1.24962	-2.55381	0	
2.1173	-7.6036	2.338	0	
2.1180	1.86383	1.41479	0	
2.1187	10.717	-4.98773	0	
2.1193	4.61723	-4.07651	0	
2.1200	0.0423599	-0.719384	0	
2.1207	0.0423599	-2.85356	0	
2.1213	-3.93947	-2.85356	0	
2.1220	-2.09681	1.11505	0	
2.1227	4.91374	2.338	0	
2.1233	4.00301	3.56095	0	
2.1240	0.338879	6.3066	0	
2.1247	-1.18608	5.69513	0	
2.1253	-8.19663	4.47217	0	
2.1260	-16.1391	6.3066	0	
2.1267	-14.9107	5.99487	0	
2.1273	-3.62177	4.47217	0	
2.1280	8.87439	5.08365	0	
2.1287	10.1028	4.47217	0	
2.1293	1.86383	3.24922	0	
2.1300	-2.41451	2.338	0	
2.1307	-6.67168	-1.6306	0	
2.1313	-12.1785	-6.21069	0	
2.1320	-3.02873	-5.29947	0	
2.1327	12.5385	-0.719384	0	
2.1333	13.1527	2.63774	0	
2.1340	8.87439	1.72652	0	
2.1347	11.0136	-0.107908	0	
2.1353	11.3313	0.203826	0	
2.1360	9.80631	0.803313	0	
2.1367	9.19209	-0.407651	0	
2.1373	4.00301	-0.107908	0	
2.1380	-2.09681	1.72652	0	
2.1387	-3.93947	0.803313	0	
2.1393	-3.93947	-0.407651	0	
2.1400	1.56732	0.203826	0	
2.1407	8.28135	0.803313	0	
2.1413	4.29953	2.63774	0	
2.1420	-4.23599	4.16044	0	
2.1427	-5.46442	3.8607	0	
2.1433	-3.02873	5.08365	0	
2.1440	-4.8502	5.08365	0	
2.1447	-6.67168	3.24922	0	
2.1453	-2.09681	6.3066	0	
2.1460	4.29953	10.575	0	
2.1467	4.91374	9.05225	0	
2.1473	2.47805	9.05225	0	
2.1480	1.24962	11.1864	0	
2.1487	-3.93947	8.12904	0	
2.1493	-12.1785	5.38339	0	
2.1500	-14.9107	5.38339	0	
2.1507	-10.3358	4.47217	0	
2.1513	-0.889557	4.77192	0	
2.1520	6.14218	3.24922	0	
2.1527	7.66714	-5.59921	0	
2.1533	7.34944	-10.7908	0	
2.1540	7.96365	-8.95634	0	
2.1547	4.61723	-11.702	0	
2.1553	1.56732	-17.1933	0	
2.1560	2.47805	-15.6706	0	
2.1567	4.00301	-12.9249	0	
2.1573	4.00301	-12.9249	0	
2.1580	2.47805	-7.73338	0	
2.1587	0.635398	2.63774	0	
2.1593	-0.275339	7.51757	0	
2.1600	2.47805	3.24922	0	
2.1607	5.23144	1.72652	0	
2.1613	6.4387	5.08365	0	
2.1620	6.7564	3.56095	0	
2.1627	4.00301	1.41479	0	
2.1633	-3.32525	3.8607	0	
2.1640	-9.42507	2.63774	0	
2.1647	-9.42507	-5.91094	0	
2.1653	-8.51433	-13.5364	0	
2.1660	-9.42507	-12.6132	0	
2.1667	-9.42507	-6.51043	0	
2.1673	-9.12855	-3.1533	0	
2.1680	-8.51433	-5.59921	0	
2.1687	-6.98938	-7.12191	0	
2.1693	-6.67168	-3.76478	0	
2.1700	-6.98938	-1.33086	0	
2.1707	-4.8502	-1.01913	0	
2.1713	-1.80029	-0.407651	0	
2.1720	1.56732	-1.33086	0	
2.1727	7.05292	-3.76478	0	
2.1733	13.4704	-3.76478	0	
2.1740	17.4311	-2.24208	0	
2.1747	16.8169	-2.85356	0	
2.1753	13.4704	-2.85356	0	
2.1760	13.4704	-0.407651	0	
2.1767	17.1134	1.11505	0	
2.1773	17.7276	-0.407651	0	
2.1780	15.2919	-1.33086	0	
2.1787	8.28135	-0.107908	0	
2.1793	-6.67168	0.503569	0	
2.1800	-22.2389	-1.01913	0	
2.1807	-28.6564	-2.85356	0	
2.1813	-27.1315	-3.76478	0	
2.1820	-19.5067	-2.24208	0	
2.1827	-10.3358	1.11505	0	
2.1833	-5.46442	2.02627	0	
2.1840	-0.275339	1.72652	0	
2.1847	6.7564	2.338	0	
2.1853	6.14218	4.16044	0	
2.1860	0.338879	5.99487	0	
2.1867	-3.02873	5.38339	0	
2.1873	-6.67168	1.72652	0	
2.1880	-10.3358	0.203826	0	
2.1887	-8.19663	1.41479	0	
2.1893	-3.93947	2.02627	0	
2.1900	-5.46442	1.41479	0	
2.1907	-7.6036	1.72652	0	
2.1913	-3.93947	4.77192	0	
2.1920	-0.275339	6.91808	0	
2.1927	-1.4826	3.56095	0	
2.1933	-2.09681	-0.719384	0	
2.1940	3.09227	-1.94234	0	
2.1947	8.57787	-1.94234	0	
2.1953	10.1028	-2.85356	0	
2.1960	8.87439	-3.46504	0	
2.1967	7.66714	-4.68799	0	
2.1973	5.23144	-4.07651	0	
2.1980	1.86383	-0.107908	0	
2.1987	-0.275339	3.56095	0	
2.1993	1.86383	3.24922	0	
2.2000	2.47805	1.72652	0	
2.2007	-1.18608	1.11505	0	
2.2013	-3.32525	0.503569	0	
2.2020	-2.71103	0.203826	0	
2.2027	-3.62177	0.803313	0	
2.2033	-4.8502	1.11505	0	
2.2040	-4.8502	3.56095	0	
2.2047	-6.07864	5.08365	0	
2.2053	-6.67168	2.94948	0	
2.2060	-5.46442	0.803313	0	
2.2067	-4.8502	2.02627	0	
2.2073	-4.8502	3.56095	0	
2.2080	-3.32525	2.63774	0	
2.2087	-2.41451	0.803313	0	
2.2093	-3.02873	1.41479	0	
2.2100	-2.09681	1.72652	0	
2.2107	1.24962	0.803313	0	
2.2113	3.38879	0.803313	0	
2.2120	5.23144	1.72652	0	
2.2127	7.34944	0.803313	0	
2.2133	8.28135	-0.107908	0	
2.2140	8.87439	-0.107908	0	
2.2147	11.0136	0.203826	0	
2.2153	12.5385	0.803313	0	
2.2160	12.5385	1.41479	0	
2.2167	11.6278	0.803313	0	
2.2173	10.1028	-0.107908	0	
2.2180	8.57787	-0.719384	0	
2.2187	7.34944	-1.01913	0	
2.2193	4.29953	1.72652	0	
2.2200	1.56732	4.16044	0	
2.2207	1.56732	0.503569	0	
2.2213	1.56732	-2.55381	0	
2.2220	-1.18608	-0.107908	0	
2.2227	-3.02873	0.503569	0	
2.2233	-3.02873	-1.94234	0	
2.2240	-6.67168	-0.107908	0	
2.2247	-10.0393	2.63774	0	
2.2253	-8.81085	2.63774	0	
2.2260	-8.51433	3.24922	0	
2.2267	-7.90012	2.94948	0	
2.2273	-3.62177	1.72652	0	
2.2280	-3.62177	2.338	0	
2.2287	-5.76094	2.02627	0	
2.2293	0.635398	1.41479	0	
2.2300	8.28135	4.16044	0	
2.2307	8.57787	6.3066	0	
2.2313	6.4387	3.8607	0	
2.2320	2.16035	3.56095	0	
2.2327	-3.62177	7.21782	0	
2.2333	-3.62177	8.12904	0	
2.2340	-3.32525	5.69513	0	
2.2347	-4.8502	3.24922	0	
2.2353	-0.571858	-0.407651	0	
2.2360	3.68531	-3.46504	0	
2.2367	4.29953	-4.37626	0	
2.2373	11.6278	-10.7908	0	
2.2380	18.956	-20.2507	0	
2.2387	13.1527	-19.0277	0	
2.2393	6.4387	-9.86756	0	
2.2400	5.52796	-5.59921	0	
2.2407	1.56732	-4.37626	0	
2.2413	-2.71103	-1.33086	0	
2.2420	-1.18608	-0.107908	0	
2.2427	-1.4826	-1.94234	0	
2.2433	-3.02873	-1.6306	0	
2.2440	-3.62177	1.72652	0	
2.2447	-6.07864	3.24922	0	
2.2453	-8.81085	0.503569	0	
2.2460	-9.74277	-1.94234	0	
2.2467	-11.2677	-2.55381	0	
2.2473	-10.3358	-2.85356	0	
2.2480	-7.6036	-1.01913	0	
2.2487	-8.51433	1.41479	0	
2.2493	-8.81085	0.203826	0	
2.2500	-5.76094	-1.01913	0	
2.2507	-5.14672	0.503569	0	
2.2513	-6.67168	-0.719384	0	
2.2520	-3.93947	-2.85356	0	
2.2527	1.56732	-1.94234	0	
2.2533	1.86383	-1.33086	0	
2.2540	-2.71103	-2.24208	0	
2.2547	-1.18608	-2.24208	0	
2.2553	8.87439	-3.76478	0	
2.2560	10.717	-4.98773	0	
2.2567	2.16035	-3.46504	0	
2.2573	3.38879	0.203826	0	
2.2580	11.6278	0.803313	0	
2.2587	8.87439	-1.6306	0	
2.2593	5.23144	-2.24208	0	
2.2600	10.3993	0.803313	0	
2.2607	12.5385	1.72652	0	
2.2613	5.52796	-0.407651	0	
2.2620	-1.4826	-0.719384	0	
2.2627	-5.46442	1.11505	0	
2.2633	-4.23599	1.41479	0	
2.2640	-0.275339	0.803313	0	
2.2647	-1.4826	-0.107908	0	
2.2653	-7.6036	-0.407651	0	
2.2660	-11.8608	1.41479	0	
2.2667	-13.3857	2.338	0	
2.2673	-13.0892	0.503569	0	
2.2680	-10.0393	-0.107908	0	
2.2687	-7.6036	-0.719384	0	
2.2693	-3.93947	-2.55381	0	
2.2700	5.82448	-0.107908	0	
2.2707	13.4704	4.47217	0	
2.2713	11.6278	4.47217	0	
2.2720	8.57787	4.77192	0	
2.2727	9.80631	6.3066	0	
2.2733	8.28135	5.38339	0	
2.2740	3.38879	5.38339	0	
2.2747	-3.93947	5.38339	0	
2.2753	-11.2677	0.203826	0	
2.2760	-8.51433	-4.68799	0	
2.2767	3.09227	-6.51043	0	
2.2773	8.28135	-7.73338	0	
2.2780	5.23144	-7.12191	0	
2.2787	7.05292	-5.59921	0	
2.2793	9.80631	-6.51043	0	
2.2800	1.86383	-7.43364	0	
2.2807	-10.0393	-5.59921	0	
2.2813	-15.8426	-2.85356	0	
2.2820	-16.7533	-1.94234	0	
2.2827	-15.5249	-2.85356	0	
2.2833	-14.6142	-2.85356	0	
2.2840	-15.8426	-2.55381	0	
2.2847	-17.0498	-6.51043	0	
2.2853	-14.6142	-8.95634	0	
2.2860	-10.3358	-2.85356	0	
2.2867	-9.12855	1.11505	0	
2.2873	-9.42507	-0.719384	0	
2.2880	-6.67168	0.503569	0	
2.2887	-3.93947	1.11505	0	
2.2893	-3.93947	-1.33086	0	
2.2900	-2.09681	-1.01913	0	
2.2907	0.635398	0.503569	0	
2.2913	-1.18608	-0.107908	0	
2.2920	-3.02873	1.11505	0	
2.2927	0.338879	0.803313	0	
2.2933	4.29953	-2.55381	0	
2.2940	6.14218	-2.85356	0	
2.2947	8.57787	-1.33086	0	
2.2953	8.87439	-1.33086	0	
2.2960	9.48861	-1.33086	0	
2.2967	11.9455	-1.33086	0	
2.2973	10.717	-1.6306	0	
2.2980	4.29953	-1.01913	0	
2.2987	1.24962	-1.94234	0	
2.2993	0.338879	-3.46504	0	
2.3000	-3.02873	-2.24208	0	
2.3007	-3.93947	-1.33086	0	
2.3013	2.77457	-2.24208	0	
2.3020	11.3313	-2.24208	0	
2.3027	11.0136	-1.94234	0	
2.3033	0.635398	-0.719384	0	
2.3040	-10.3358	1.41479	0	
2.3047	-14.6142	2.63774	0	
2.3053	-16.1391	2.94948	0	
2.3060	-18.5748	4.47217	0	
2.3067	-13.7034	5.99487	0	
2.3073	-5.76094	6.91808	0	
2.3080	-6.67168	9.05225	0	
2.3087	-12.1785	7.8293	0	
2.3093	-9.74277	2.63774	0	
2.3100	-5.76094	1.72652	0	
2.3107	-4.8502	4.77192	0	
2.3113	-1.18608	2.63774	0	
2.3120	3.68531	-2.24208	0	
2.3127	4.61723	-1.94234	0	
2.3133	5.52796	-2.24208	0	
2.3140	7.66714	-6.51043	0	
2.3147	7.05292	-8.34486	0	
2.3153	6.14218	-5.91094	0	
2.3160	8.28135	-2.85356	0	
2.3167	8.87439	-1.01913	0	
2.3173	6.4387	-0.407651	0	
2.3180	4.29953	-2.55381	0	
2.3187	2.47805	-4.68799	0	
2.3193	2.47805	-4.07651	0	
2.3200	4.29953	-1.94234	0	
2.3207	5.52796	1.41479	0	
2.3213	3.38879	3.56095	0	
2.3220	0.0423599	2.63774	0	
2.3227	-2.09681	-0.719384	0	
2.3233	-3.62177	-2.85356	0	
2.3240	-4.55369	-1.6306	0	
2.3247	-3.02873	1.41479	0	
2.3253	-1.18608	4.47217	0	
2.3260	-2.09681	6.3066	0	
2.3267	-5.46442	5.38339	0	
2.3273	-5.76094	2.63774	0	
2.3280	-3.62177	-0.107908	0	
2.3287	-2.09681	-0.719384	0	
2.3293	-0.889557	-1.94234	0	
2.3300	-0.275339	-2.85356	0	
2.3307	-0.275339	-1.94234	0	
2.3313	0.635398	0.203826	0	
2.3320	2.47805	0.803313	0	
2.3327	2.77457	1.11505	0	
2.3333	4.91374	0.803313	0	
2.3340	7.66714	0.503569	0	
2.3347	7.34944	0.803313	0	
2.3353	6.14218	0.503569	0	
2.3360	7.05292	-0.719384	0	
2.3367	7.96365	-0.107908	0	
2.3373	6.7564	1.41479	0	
2.3380	1.56732	-1.01913	0	
2.3387	-2.09681	-3.1533	0	
2.3393	4.91374	-2.24208	0	
2.3400	18.0453	-2.55381	0	
2.3407	21.7094	-4.68799	0	
2.3413	13.4704	-3.76478	0	
2.3420	5.23144	-1.01913	0	
2.3427	0.635398	0.203826	0	
2.3433	-5.76094	1.72652	0	
2.3440	-12.1785	4.16044	0	
2.3447	-13.7034	3.24922	0	
2.3453	-13.7034	2.338	0	
2.3460	-13.7034	2.63774	0	
2.3467	-10.3358	0.203826	0	
2.3473	-7.90012	-1.01913	0	
2.3480	-9.74277	3.24922	0	
2.3487	-9.12855	3.56095	0	
2.3493	-3.93947	-2.85356	0	
2.3500	-2.09681	-4.98773	0	
2.3507	-1.80029	-1.94234	0	
2.3513	-0.275339	0.503569	0	
2.3520	1.56732	1.41479	0	
2.3527	1.86383	1.72652	0	
2.3533	1.86383	-1.6306	0	
2.3540	5.52796	-2.85356	0	
2.3547	8.57787	-0.719384	0	
2.3553	4.29953	-1.01913	0	
2.3560	4.61723	-3.46504	0	
2.3567	15.2919	-1.94234	0	
2.3573	17.7276	1.72652	0	
2.3580	7.96365	2.63774	0	
2.3587	1.86383	2.338	0	
2.3593	1.86383	2.63774	0	
2.3600	1.86383	2.94948	0	
2.3607	0.635398	0.203826	0	
2.3613	-3.62177	-1.94234	0	
2.3620	-4.23599	0.803313	0	
2.3627	1.56732	3.24922	0	
2.3633	0.635398	2.338	0	
2.3640	-7.6036	2.02627	0	
2.3647	-7.2859	0.203826	0	
2.3653	-0.571858	-3.1533	0	
2.3660	3.38879	-1.94234	0	
2.3667	4.91374	1.11505	0	
2.3673	1.56732	0.503569	0	
2.3680	-9.42507	-0.407651	0	
2.3687	-21.9424	-0.719384	0	
2.3693	-26.8138	-1.94234	0	
2.3700	-18.5748	-1.01913	0	
2.3707	-6.07864	-0.719384	0	
2.3713	-3.93947	-4.68799	0	
2.3720	-3.02873	-4.37626	0	
2.3727	7.96365	0.203826	0	
2.3733	14.3812	-0.107908	0	
2.3740	9.48861	-0.719384	0	
2.3747	6.14218	2.63774	0	
2.3753	4.61723	-0.407651	0	
2.3760	2.47805	-7.43364	0	
2.3767	5.23144	-8.65659	0	
2.3773	7.66714	-5.91094	0	
2.3780	3.38879	-3.76478	0	
2.3787	2.47805	-0.407651	0	
2.3793	4.61723	1.11505	0	
2.3800	3.68531	0.803313	0	
2.3807	3.09227	2.63774	0	
2.3813	4.00301	3.56095	0	
2.3820	2.47805	1.41479	0	
2.3827	-0.275339	0.803313	0	
2.3833	-2.09681	0.803313	0	
2.3840	-4.23599	-0.407651	0	
2.3847	-6.07864	-0.719384	0	
2.3853	-6.07864	0.203826	0	
2.3860	-4.8502	0.803313	0	
2.3867	-3.32525	0.803313	0	
2.3873	-3.93947	1.41479	0	
2.3880	-5.46442	3.56095	0	
2.3887	-3.93947	5.38339	0	
2.3893	-3.62177	6.3066	0	
2.3900	-6.67168	6.91808	0	
2.3907	-7.6036	6.3066	0	
2.3913	-4.23599	3.56095	0	
2.3920	-2.41451	0.803313	0	
2.3927	-1.4826	0.503569	0	
2.3933	0.953097	1.72652	0	
2.3940	2.16035	1.11505	0	
2.3947	2.16035	-1.33086	0	
2.3953	2.47805	-1.94234	0	
2.3960	3.09227	-2.85356	0	
2.3967	2.16035	-7.73338	0	
2.3973	0.338879	-11.702	0	
2.3980	-0.275339	-8.04512	0	
2.3987	0.635398	-4.68799	0	
2.3993	0.0423599	-3.76478	0	
2.4000	-2.09681	-1.33086	0	
2.4007	-1.80029	-0.407651	0	
2.4013	1.56732	-1.01913	0	
2.4020	4.91374	1.72652	0	
2.4027	3.68531	1.72652	0	
2.4033	-2.71103	-1.01913	0	
2.4040	-7.6036	-0.407651	0	
2.4047	-6.98938	0.203826	0	
2.4053	-9.74277	-1.01913	0	
2.4060	-13.7034	1.72652	0	
2.4067	-8.81085	4.47217	0	
2.4073	-5.14672	1.72652	0	
2.4080	-6.98938	-0.407651	0	
2.4087	2.47805	0.503569	0	
2.4093	22.006	-0.107908	0	
2.4100	29.0165	-0.107908	0	
2.4107	21.7094	2.02627	0	
2.4113	14.9954	2.338	0	
2.4120	6.7564	0.203826	0	
2.4127	-3.93947	-0.107908	0	
2.4133	-8.51433	1.72652	0	
2.4140	-3.93947	3.56095	0	
2.4147	0.0423599	4.16044	0	
2.4153	-1.18608	2.94948	0	
2.4160	-1.18608	0.203826	0	
2.4167	3.38879	-3.46504	0	
2.4173	5.82448	-3.76478	0	
2.4180	2.77457	-1.94234	0	
2.4187	0.635398	-3.46504	0	
2.4193	1.56732	-5.59921	0	
2.4200	3.09227	-5.29947	0	
2.4207	2.47805	-3.76478	0	
2.4213	-0.275339	-2.24208	0	
2.4220	-1.80029	-1.01913	0	
2.4227	-1.4826	-0.107908	0	
2.4233	-3.93947	1.72652	0	
2.4240	-7.90012	2.63774	0	
2.4247	-9.12855	1.41479	0	
2.4253	-8.51433	1.41479	0	
2.4260	-8.81085	1.41479	0	
2.4267	-9.74277	0.803313	0	
2.4273	-10.0393	1.72652	0	
2.4280	-7.2859	-1.01913	0	
2.4287	-4.8502	-6.21069	0	
2.4293	-6.07864	-6.51043	0	
2.4300	-6.67168	-3.1533	0	
2.4307	-3.93947	-2.55381	0	
2.4313	-1.80029	-1.6306	0	
2.4320	-0.571858	-0.407651	0	
2.4327	0.953097	-1.01913	0	
2.4333	2.47805	-1.01913	0	
2.4340	5.23144	0.803313	0	
2.4347	10.1028	0.203826	0	
2.4353	14.3812	-1.01913	0	
2.4360	16.2026	-1.33086	0	
2.4367	13.767	-1.01913	0	
2.4373	8.87439	1.41479	0	
2.4380	6.14218	4.47217	0	
2.4387	5.23144	6.3066	0	
2.4393	3.09227	4.77192	0	
2.4400	2.16035	1.11505	0	
2.4407	1.56732	-0.719384	0	
2.4413	-2.09681	3.56095	0	
2.4420	-6.37516	6.91808	0	
2.4427	-8.51433	4.47217	0	
2.4433	-10.3358	1.72652	0	
2.4440	-13.0892	2.02627	0	
2.4447	-15.5249	2.63774	0	
2.4453	-15.5249	-0.107908	0	
2.4460	-12.475	-3.1533	0	
2.4467	-9.42507	-3.76478	0	
2.4473	-9.42507	-1.94234	0	
2.4480	-7.90012	-0.719384	0	
2.4487	-4.8502	-0.719384	0	
2.4493	-4.8502	-1.01913	0	
2.4500	-4.8502	-2.55381	0	
2.4507	-1.4826	-1.94234	0	
2.4513	0.0423599	0.803313	0	
2.4520	-1.80029	3.56095	0	
2.4527	0.0423599	2.94948	0	
2.4533	3.68531	1.11505	0	
2.4540	7.05292	0.503569	0	
2.4547	15.2919	1.72652	0	
2.4553	22.9167	2.338	0	
2.4560	21.0952	1.72652	0	
2.4567	16.2026	2.02627	0	
2.4573	14.0635	1.72652	0	
2.4580	12.5385	-0.407651	0	
2.4587	9.80631	-0.107908	0	
2.4593	3.38879	3.56095	0	
2.4600	-8.19663	2.63774	0	
2.4607	-16.1391	-1.33086	0	
2.4613	-19.189	-0.719384	0	
2.4620	-18.8925	-0.107908	0	
2.4627	-13.3857	-4.07651	0	
2.4633	-8.81085	-5.59921	0	
2.4640	-9.42507	-2.55381	0	
2.4647	-8.81085	-1.01913	0	
2.4653	-6.67168	-1.6306	0	
2.4660	-7.6036	-1.6306	0	
2.4667	-6.37516	1.72652	0	
2.4673	-4.8502	4.47217	0	
2.4680	-6.67168	0.803313	0	
2.4687	-3.93947	-3.76478	0	
2.4693	2.47805	-0.719384	0	
2.4700	2.77457	3.24922	0	
2.4707	-1.18608	0.803313	0	
2.4713	-5.76094	1.41479	0	
2.4720	-4.8502	5.69513	0	
2.4727	4.61723	2.94948	0	
2.4733	13.4704	-4.07651	0	
2.4740	12.242	-3.76478	0	
2.4747	11.6278	1.41479	0	
2.4753	15.9061	0.803313	0	
2.4760	13.4704	-1.94234	0	
2.4767	4.91374	1.72652	0	
2.4773	0.338879	2.63774	0	
2.4780	0.635398	-4.68799	0	
2.4787	1.56732	-7.73338	0	
2.4793	1.86383	-3.76478	0	
2.4800	0.0423599	-4.37626	0	
2.4807	-5.46442	-3.76478	0	
2.4813	-7.2859	1.41479	0	
2.4820	-1.18608	-1.33086	0	
2.4827	1.56732	-10.7908	0	
2.4833	-2.09681	-12.9249	0	
2.4840	1.56732	-9.56781	0	
2.4847	5.23144	-7.43364	0	
2.4853	0.635398	-4.68799	0	
2.4860	-1.18608	-1.94234	0	
2.4867	4.29953	-0.407651	0	
2.4873	2.16035	0.203826	0	
2.4880	-3.62177	0.203826	0	
2.4887	-2.09681	-0.719384	0	
2.4893	0.0423599	-1.94234	0	
2.4900	-2.09681	-1.94234	0	
2.4907	-3.02873	-1.33086	0	
2.4913	-0.275339	-3.76478	0	
2.4920	2.47805	-4.98773	0	
2.4927	1.56732	-1.94234	0	
2.4933	-1.4826	0.803313	0	
2.4940	-3.62177	-1.01913	0	
2.4947	-4.8502	-1.94234	0	
2.4953	-5.76094	-1.01913	0	
2.4960	-4.8502	-0.719384	0	
2.4967	-4.8502	0.503569	0	
2.4973	-6.98938	0.503569	0	
2.4980	-4.23599	-1.6306	0	
2.4987	4.29953	-0.719384	0	
2.4993	14.0635	2.338	0	
2.5000	20.1845	2.63774	0	
2.5007	17.7276	1.11505	0	
2.5013	9.19209	-1.01913	0	
2.5020	4.00301	-1.94234	0	
2.5027	2.47805	-1.01913	0	
2.5033	0.338879	-2.24208	0	
2.5040	-2.09681	-3.76478	0	
2.5047	-4.55369	-1.01913	0	
2.5053	-6.67168	2.338	0	
2.5060	-7.2859	2.63774	0	
2.5067	-6.98938	3.8607	0	
2.5073	-7.90012	4.77192	0	
2.5080	-7.90012	2.338	0	
2.5087	-4.8502	1.72652	0	
2.5093	-1.18608	3.56095	0	
2.5100	-1.18608	3.56095	0	
2.5107	-2.09681	1.41479	0	
2.5113	-1.18608	0.803313	0	
2.5120	-0.275339	-0.107908	0	
2.5127	0.338879	-3.46504	0	
2.5133	3.38879	-5.91094	0	
2.5140	6.14218	-4.98773	0	
2.5147	5.23144	-2.85356	0	
2.5153	8.87439	-3.46504	0	
2.5160	18.0453	-3.46504	0	
2.5167	20.7775	-0.407651	0	
2.5173	13.4704	-0.107908	0	
2.5180	4.61723	-2.55381	0	
2.5187	-0.275339	-0.107908	0	
2.5193	-4.23599	3.24922	0	
2.5200	-9.12855	1.72652	0	
2.5207	-10.0393	0.803313	0	
2.5213	-6.67168	2.94948	0	
2.5220	-4.55369	3.56095	0	
2.5227	-5.14672	1.72652	0	
2.5233	-8.81085	1.41479	0	
2.5240	-12.7927	2.94948	0	
2.5247	-9.42507	3.56095	0	
2.5253	-4.23599	1.41479	0	
2.5260	-7.6036	0.203826	0	
2.5267	-11.2677	1.11505	0	
2.5273	-9.12855	-0.107908	0	
2.5280	-7.6036	-2.24208	0	
2.5287	-5.76094	-1.6306	0	
2.5293	-1.4826	-1.01913	0	
2.5300	-1.4826	-1.01913	0	
2.5307	-2.09681	2.338	0	
2.5313	2.47805	4.47217	0	
2.5320	4.29953	1.72652	0	
2.5327	2.16035	-1.94234	0	
2.5333	5.23144	-2.55381	0	
2.5340	8.87439	-1.94234	0	
2.5347	6.4387	-1.94234	0	
2.5353	4.61723	-0.107908	0	
2.5360	5.23144	2.63774	0	
2.5367	5.52796	3.56095	0	
2.5373	6.7564	3.24922	0	
2.5380	7.66714	2.94948	0	
2.5387	5.52796	2.02627	0	
2.5393	3.09227	4.47217	0	
2.5400	2.47805	7.8293	0	
2.5407	2.47805	5.69513	0	
2.5413	2.47805	2.63774	0	
2.5420	0.635398	1.72652	0	
2.5427	-2.41451	-4.07651	0	
2.5433	-5.14672	-9.86756	0	
2.5440	-8.19663	-5.59921	0	
2.5447	-9.74277	-0.719384	0	
2.5453	-9.42507	-0.107908	0	
2.5460	-8.81085	-0.407651	0	
2.5467	-8.19663	-3.1533	0	
2.5473	-6.37516	-5.29947	0	
2.5480	-5.46442	-3.46504	0	
2.5487	-6.67168	-1.94234	0	
2.5493	-6.67168	-2.55381	0	
2.5500	-4.8502	-1.6306	0	
2.5507	-2.71103	-0.719384	0	
2.5513	-1.80029	0.203826	0	
2.5520	-1.18608	2.63774	0	
2.5527	-0.275339	1.72652	0	
2.5533	0.338879	0.803313	0	
2.5540	1.56732	3.8607	0	
2.5547	4.61723	3.56095	0	
2.5553	7.34944	-0.407651	0	
2.5560	6.4387	1.11505	0	
2.5567	5.82448	4.77192	0	
2.5573	6.4387	2.338	0	
2.5580	9.80631	0.803313	0	
2.5587	16.5203	4.47217	0	
2.5593	21.7094	5.38339	0	
2.5600	20.1845	2.63774	0	
2.5607	17.7276	-0.107908	0	
2.5613	14.3812	-3.46504	0	
2.5620	7.96365	-5.59921	0	
2.5627	-0.275339	-4.68799	0	
2.5633	-16.7533	-3.76478	0	
2.5640	-38.7169	-3.76478	0	
2.5647	-41.4703	-3.76478	0	
2.5653	-22.2389	-3.1533	0	
2.5660	-8.81085	-2.55381	0	
2.5667	-6.67168	-1.33086	0	
2.5673	-5.76094	-1.6306	0	
2.5680	-9.42507	-3.46504	0	
2.5687	-12.7927	-3.76478	0	
2.5693	-6.67168	-3.1533	0	
2.5700	-2.09681	-0.719384	0	
2.5707	-4.8502	0.503569	0	
2.5713	-4.55369	-1.94234	0	
2.5720	-1.18608	-2.24208	0	
2.5727	-1.4826	-1.01913	0	
2.5733	-2.09681	-3.76478	0	
2.5740	3.38879	-4.98773	0	
2.5747	10.3993	-0.107908	0	
2.5753	12.242	0.503569	0	
2.5760	9.48861	-3.46504	0	
2.5767	11.0136	-3.1533	0	
2.5773	18.0453	-1.94234	0	
2.5780	20.7775	-3.1533	0	
2.5787	14.6777	-2.55381	0	
2.5793	5.23144	-0.407651	0	
2.5800	0.0423599	0.803313	0	
2.5807	-2.71103	2.94948	0	
2.5813	-7.6036	4.16044	0	
2.5820	-8.51433	2.63774	0	
2.5827	-1.4826	2.63774	0	
2.5833	-0.571858	3.56095	0	
2.5840	-9.74277	3.56095	0	
2.5847	-12.475	2.02627	0	
2.5853	-6.98938	-0.107908	0	
2.5860	-5.14672	-0.107908	0	
2.5867	-5.76094	1.72652	0	
2.5873	-3.93947	1.72652	0	
2.5880	-3.93947	0.803313	0	
2.5887	-5.46442	0.203826	0	
2.5893	-5.46442	0.203826	0	
2.5900	-3.93947	1.72652	0	
2.5907	-1.18608	2.02627	0	
2.5913	0.953097	-0.107908	0	
2.5920	2.47805	-1.01913	0	
2.5927	4.61723	0.803313	0	
2.5933	6.14218	0.803313	0	
2.5940	5.23144	1.72652	0	
2.5947	7.05292	3.24922	0	
2.5953	9.19209	1.41479	0	
2.5960	5.23144	0.203826	0	
2.5967	0.953097	1.72652	0	
2.5973	4.00301	-0.107908	0	
2.5980	7.05292	-4.07651	0	
2.5987	4.29953	-4.98773	0	
2.5993	1.24962	-4.37626	0	
2.6000	-1.4826	-2.85356	0	
2.6007	-6.67168	1.72652	0	
2.6013	-6.07864	4.16044	0	
2.6020	3.38879	1.72652	0	
2.6027	8.87439	0.803313	0	
2.6033	4.29953	2.94948	0	
2.6040	-0.275339	2.94948	0	
2.6047	-4.23599	1.72652	0	
2.6053	-10.0393	1.41479	0	
2.6060	-10.6535	-0.719384	0	
2.6067	-6.98938	-3.76478	0	
2.6073	-7.6036	-4.68799	0	
2.6080	-9.12855	-4.68799	0	
2.6087	-6.37516	-3.76478	0	
2.6093	-4.8502	-2.55381	0	
2.6100	-0.889557	-2.85356	0	
2.6107	9.19209	-1.33086	0	
2.6113	13.1527	3.24922	0	
2.6120	7.96365	3.24922	0	
2.6127	4.00301	-1.01913	0	
2.6133	1.56732	-1.94234	0	
2.6140	-0.275339	-1.33086	0	
2.6147	2.47805	-1.01913	0	
2.6153	4.29953	1.72652	0	
2.6160	2.16035	2.63774	0	
2.6167	4.61723	-0.407651	0	
2.6173	7.96365	-1.01913	0	
2.6180	2.47805	1.41479	0	
2.6187	-3.02873	0.803313	0	
2.6193	-1.18608	-0.719384	0	
2.6200	0.338879	0.503569	0	
2.6207	-0.571858	0.803313	0	
2.6213	-0.275339	-0.407651	0	
2.6220	-0.889557	-0.107908	0	
2.6227	-3.93947	1.41479	0	
2.6233	-5.76094	2.63774	0	
2.6240	-7.2859	1.72652	0	
2.6247	-9.42507	0.803313	0	
2.6253	-9.42507	1.41479	0	
2.6260	-6.37516	3.24922	0	
2.6267	-4.23599	3.56095	0	
2.6273	-5.46442	3.56095	0	
2.6280	-7.6036	2.63774	0	
2.6287	-7.90012	-0.107908	0	
2.6293	-5.46442	-1.6306	0	
2.6300	-2.09681	-0.107908	0	
2.6307	-0.275339	-0.107908	0	
2.6313	0.338879	-1.01913	0	
2.6320	0.635398	0.803313	0	
2.6327	2.47805	2.338	0	
2.6333	5.23144	-1.94234	0	
2.6340	7.96365	-4.68799	0	
2.6347	8.57787	-1.01913	0	
2.6353	7.66714	2.63774	0	
2.6360	6.7564	1.72652	0	
2.6367	4.91374	0.803313	0	
2.6373	3.09227	1.72652	0	
2.6380	3.68531	1.11505	0	
2.6387	2.77457	1.11505	0	
2.6393	-0.889557	2.02627	0	
2.6400	-3.62177	2.63774	0	
2.6407	-5.76094	1.72652	0	
2.6413	-7.90012	1.72652	0	
2.6420	-3.02873	2.338	0	
2.6427	4.91374	1.41479	0	
2.6433	0.0423599	-1.94234	0	
2.6440	-13.0892	-4.68799	0	
2.6447	-8.81085	-4.68799	0	
2.6453	7.34944	-3.76478	0	
2.6460	9.48861	-1.94234	0	
2.6467	-0.275339	1.41479	0	
2.6473	-2.09681	3.56095	0	
2.6480	1.56732	2.338	0	
2.6487	-0.275339	-0.107908	0	
2.6493	-2.71103	0.803313	0	
2.6500	-1.18608	2.94948	0	
2.6507	1.86383	0.203826	0	
2.6513	4.29953	-2.55381	0	
2.6520	3.38879	0.803313	0	
2.6527	2.47805	1.72652	0	
2.6533	5.52796	-3.76478	0	
2.6540	8.28135	-7.43364	0	
2.6547	7.34944	-4.68799	0	
2.6553	7.96365	-3.76478	0	
2.6560	8.87439	-3.76478	0	
2.6567	5.23144	-1.6306	0	
2.6573	2.47805	0.503569	0	
2.6580	4.00301	-0.107908	0	
2.6587	3.38879	0.503569	0	
2.6593	0.635398	0.803313	0	
2.6600	0.953097	0.203826	0	
2.6607	-0.275339	0.503569	0	
2.6613	-3.62177	1.41479	0	
2.6620	-3.62177	0.503569	0	
2.6627	-2.71103	-1.01913	0	
2.6633	-4.23599	-1.01913	0	
2.6640	-6.37516	-2.55381	0	
2.6647	-9.42507	-2.85356	0	
2.6653	-12.1785	0.803313	0	
2.6660	-10.95	3.56095	0	
2.6667	-8.51433	2.63774	0	
2.6673	-7.2859	2.02627	0	
2.6680	-6.07864	3.24922	0	
2.6687	-6.67168	0.203826	0	
2.6693	-4.8502	-3.76478	0	
2.6700	3.38879	-3.76478	0	
2.6707	11.6278	-3.1533	0	
2.6713	14.6777	-2.24208	0	
2.6720	15.2919	-0.407651	0	
2.6727	15.9061	-0.107908	0	
2.6733	15.5884	-0.107908	0	
2.6740	16.2026	1.72652	0	
2.6747	16.2026	2.63774	0	
2.6753	10.717	-1.01913	0	
2.6760	-1.80029	-5.59921	0	
2.6767	-14.9107	-8.34486	0	
2.6773	-17.9818	-6.82216	0	
2.6780	-11.2677	-2.85356	0	
2.6787	-4.8502	-1.94234	0	
2.6793	-3.62177	-5.29947	0	
2.6800	-6.37516	-5.59921	0	
2.6807	-6.67168	-1.94234	0	
2.6813	-4.23599	0.803313	0	
2.6820	-3.62177	-0.407651	0	
2.6827	-6.07864	-1.01913	0	
2.6833	-8.19663	0.803313	0	
2.6840	-10.3358	2.63774	0	
2.6847	-13.0892	1.72652	0	
2.6853	-11.8608	0.503569	0	
2.6860	-8.51433	0.203826	0	
2.6867	-8.51433	0.503569	0	
2.6873	-7.90012	1.11505	0	
2.6880	-5.14672	2.63774	0	
2.6887	-4.8502	2.63774	0	
2.6893	-4.23599	-0.107908	0	
2.6900	-2.09681	-2.55381	0	
2.6907	-2.09681	-1.6306	0	
2.6913	-2.41451	-0.107908	0	
2.6920	-0.275339	-0.407651	0	
2.6927	4.29953	2.02627	0	
2.6933	10.1028	4.77192	0	
2.6940	14.3812	2.63774	0	
2.6947	12.5385	1.72652	0	
2.6953	9.48861	4.77192	0	
2.6960	9.19209	3.24922	0	
2.6967	8.87439	-2.24208	0	
2.6973	7.05292	-4.68799	0	
2.6980	4.91374	-6.82216	0	
2.6987	2.77457	-8.34486	0	
2.6993	1.56732	-5.29947	0	
2.7000	0.338879	-3.46504	0	
2.7007	-0.889557	-5.29947	0	
2.7013	0.635398	-4.37626	0	
2.7020	2.77457	-1.01913	0	
2.7027	2.47805	0.803313	0	
2.7033	-0.275339	0.803313	0	
2.7040	-4.8502	-0.107908	0	
2.7047	-9.12855	-1.01913	0	
2.7053	-10.6535	-0.719384	0	
2.7060	-11.2677	1.41479	0	
2.7067	-9.74277	3.8607	0	
2.7073	-4.55369	5.08365	0	
2.7080	-0.889557	4.47217	0	
2.7087	-1.80029	5.38339	0	
2.7093	-0.889557	6.60635	0	
2.7100	2.47805	4.77192	0	
2.7107	2.47805	2.63774	0	
2.7113	0.0423599	1.11505	0	
2.7120	-0.275339	-3.76478	0	
2.7127	2.16035	-5.91094	0	
2.7133	4.61723	-1.33086	0	
2.7140	6.14218	2.338	0	
2.7147	11.6278	-0.107908	0	
2.7153	18.0453	-4.07651	0	
2.7160	17.1134	-6.21069	0	
2.7167	12.5385	-4.68799	0	
2.7173	7.96365	-3.1533	0	
2.7180	-3.32525	-3.76478	0	
2.7187	-10.0393	-1.94234	0	
2.7193	1.56732	4.47217	0	
2.7200	12.8562	5.38339	0	
2.7207	9.80631	1.41479	0	
2.7213	4.29953	0.803313	0	
2.7220	1.86383	3.56095	0	
2.7227	-5.76094	3.56095	0	
2.7233	-16.7533	0.803313	0	
2.7240	-24.9923	0.803313	0	
2.7247	-19.8032	4.47217	0	
2.7253	-1.4826	5.38339	0	
2.7260	4.29953	-2.55381	0	
2.7267	-8.81085	-11.4022	0	
2.7273	-15.2284	-12.0137	0	
2.7280	-7.6036	-6.51043	0	
2.7287	-5.76094	-2.85356	0	
2.7293	-9.42507	-1.6306	0	
2.7300	-7.90012	-2.85356	0	
2.7307	-3.93947	-4.98773	0	
2.7313	-2.09681	-4.98773	0	
2.7320	1.24962	-1.94234	0	
2.7327	5.82448	-1.01913	0	
2.7333	8.57787	-2.85356	0	
2.7340	6.14218	-0.107908	0	
2.7347	3.68531	3.24922	0	
2.7353	6.14218	-0.107908	0	
2.7360	8.87439	-2.85356	0	
2.7367	7.34944	-1.01913	0	
2.7373	6.14218	-1.33086	0	
2.7380	5.82448	-3.1533	0	
2.7387	4.29953	-1.94234	0	
2.7393	2.77457	-0.719384	0	
2.7400	0.635398	-1.6306	0	
2.7407	-3.32525	-0.107908	0	
2.7413	-4.23599	2.338	0	
2.7420	-1.80029	1.72652	0	
2.7427	-2.41451	1.72652	0	
2.7433	-6.37516	2.338	0	
2.7440	-6.67168	1.41479	0	
2.7447	-4.8502	1.11505	0	
2.7453	-5.76094	3.24922	0	
2.7460	-7.90012	3.56095	0	
2.7467	-6.67168	0.803313	0	
2.7473	-5.46442	0.503569	0	
2.7480	-6.67168	2.338	0	
2.7487	-5.46442	1.41479	0	
2.7493	-1.18608	-0.107908	0	
2.7500	-0.571858	0.803313	0	
2.7507	-1.4826	2.338	0	
2.7513	1.24962	2.63774	0	
2.7520	2.77457	2.94948	0	
2.7527	1.86383	3.56095	0	
2.7533	2.47805	5.08365	0	
2.7540	6.7564	4.47217	0	
2.7547	9.80631	0.503569	0	
2.7553	7.34944	-2.24208	0	
2.7560	4.29953	-2.85356	0	
2.7567	5.23144	-2.85356	0	
2.7573	5.23144	0.803313	0	
2.7580	1.56732	5.08365	0	
2.7587	3.38879	1.72652	0	
2.7593	10.717	-1.01913	0	
2.7600	11.0136	3.8607	0	
2.7607	6.7564	4.47217	0	
2.7613	7.34944	1.72652	0	
2.7620	8.87439	5.08365	0	
2.7627	7.34944	7.51757	0	
2.7633	3.09227	2.63774	0	
2.7640	-7.6036	-1.33086	0	
2.7647	-19.5067	-3.76478	0	
2.7653	-22.5566	-6.51043	0	
2.7660	-22.5566	-4.07651	0	
2.7667	-22.2389	2.02627	0	
2.7673	-15.8426	4.16044	0	
2.7680	-9.42507	2.02627	0	
2.7687	-8.51433	-0.407651	0	
2.7693	-5.76094	-1.6306	0	
2.7700	-3.02873	0.203826	0	
2.7707	-3.02873	2.02627	0	
2.7713	-0.571858	1.11505	0	
2.7720	1.86383	0.803313	0	
2.7727	1.56732	2.338	0	
2.7733	3.68531	2.63774	0	
2.7740	5.52796	1.41479	0	
2.7747	4.61723	2.63774	0	
2.7753	7.05292	2.94948	0	
2.7760	10.717	-0.107908	0	
2.7767	10.1028	-2.85356	0	
2.7773	8.87439	-1.6306	0	
2.7780	7.66714	0.503569	0	
2.7787	4.61723	-0.407651	0	
2.7793	1.86383	-2.24208	0	
2.7800	0.635398	-1.33086	0	
2.7807	1.56732	0.503569	0	
2.7813	2.16035	-0.407651	0	
2.7820	0.953097	-1.94234	0	
2.7827	-0.275339	-1.6306	0	
2.7833	-2.41451	-2.55381	0	
2.7840	-7.90012	-3.46504	0	
2.7847	-9.42507	-1.01913	0	
2.7853	-7.6036	0.503569	0	
2.7860	-8.19663	-1.01913	0	
2.7867	-6.98938	-1.01913	0	
2.7873	-3.02873	0.803313	0	
2.7880	-4.23599	-0.407651	0	
2.7887	-4.23599	-2.24208	0	
2.7893	-2.41451	-2.55381	0	
2.7900	-9.12855	-1.6306	0	
2.7907	-12.1785	0.203826	0	
2.7913	-1.18608	-0.719384	0	
2.7920	6.4387	-4.68799	0	
2.7927	6.4387	-7.12191	0	
2.7933	14.0635	-4.68799	0	
2.7940	25.3524	-3.76478	0	
2.7947	29.9484	-5.59921	0	
2.7953	26.5808	-5.91094	0	
2.7960	18.0453	-3.76478	0	
2.7967	10.1028	-2.24208	0	
2.7973	5.52796	-0.719384	0	
2.7980	2.47805	2.02627	0	
2.7987	1.24962	2.63774	0	
2.7993	0.635398	1.72652	0	
2.8000	-0.275339	2.338	0	
2.8007	2.47805	3.56095	0	
2.8013	6.4387	4.16044	0	
2.8020	2.47805	4.47217	0	
2.8027	-2.71103	2.63774	0	
2.8033	-2.41451	2.02627	0	
2.8040	-4.8502	6.60635	0	
2.8047	-12.1785	9.05225	0	
2.8053	-16.7533	6.3066	0	
2.8060	-17.6641	2.02627	0	
2.8067	-14.9107	-3.76478	0	
2.8073	-12.1785	-6.82216	0	
2.8080	-8.81085	-0.107908	0	
2.8087	0.953097	6.3066	0	
2.8093	9.80631	0.803313	0	
2.8100	5.52796	-7.43364	0	
2.8107	-1.18608	-8.65659	0	
2.8113	1.56732	-7.43364	0	
2.8120	5.23144	-5.59921	0	
2.8127	3.68531	-1.94234	0	
2.8133	4.29953	-0.107908	0	
2.8140	6.7564	-1.94234	0	
2.8147	7.05292	-1.33086	0	
2.8153	6.14218	1.41479	0	
2.8160	7.05292	2.338	0	
2.8167	8.87439	1.11505	0	
2.8173	7.05292	0.503569	0	
2.8180	2.47805	0.803313	0	
2.8187	0.953097	2.63774	0	
2.8193	0.953097	3.56095	0	
2.8200	-1.4826	-1.94234	0	
2.8207	-2.41451	-6.51043	0	
2.8213	-2.09681	-6.51043	0	
2.8220	-6.67168	-5.29947	0	
2.8227	-11.2677	-3.76478	0	
2.8233	-9.74277	-0.719384	0	
2.8240	-8.51433	-0.407651	0	
2.8247	-11.2677	-2.55381	0	
2.8253	-10.3358	-1.01913	0	
2.8260	-1.18608	0.503569	0	
2.8267	3.68531	-1.6306	0	
2.8273	-0.275339	-1.94234	0	
2.8280	-5.76094	-0.407651	0	
2.8287	-9.42507	0.503569	0	
2.8293	-12.7927	1.72652	0	
2.8300	-14.9107	1.41479	0	
2.8307	-13.0892	-0.719384	0	
2.8313	-6.67168	-0.407651	0	
2.8320	1.56732	2.02627	0	
2.8327	7.34944	2.338	0	
2.8333	7.66714	-1.33086	0	
2.8340	5.52796	-5.59921	0	
2.8347	6.14218	-8.65659	0	
2.8353	6.14218	-7.12191	0	
2.8360	4.29953	-3.1533	0	
2.8367	6.14218	-1.01913	0	
2.8373	11.6278	-0.407651	0	
2.8380	13.4704	0.503569	0	
2.8387	10.717	1.11505	0	
2.8393	9.80631	-0.107908	0	
2.8400	8.87439	-3.46504	0	
2.8407	8.87439	-3.76478	0	
2.8413	11.0136	0.503569	0	
2.8420	8.28135	2.94948	0	
2.8427	-5.76094	1.11505	0	
2.8433	-22.8531	0.803313	0	
2.8440	-30.4779	2.02627	0	
2.8447	-28.6564	-0.107908	0	
2.8453	-21.3282	-2.85356	0	
2.8460	-14.6142	-3.1533	0	
2.8467	-11.2677	-3.1533	0	
2.8473	-9.42507	-2.55381	0	
2.8480	-6.67168	-1.33086	0	
2.8487	-3.93947	-2.85356	0	
2.8493	-1.4826	-2.85356	0	
2.8500	-0.889557	0.803313	0	
2.8507	-1.80029	0.803313	0	
2.8513	-0.571858	-1.94234	0	
2.8520	2.16035	-0.107908	0	
2.8527	2.16035	1.41479	0	
2.8533	3.09227	-0.407651	0	
2.8540	9.80631	-2.24208	0	
2.8547	14.9954	-1.94234	0	
2.8553	11.9455	-0.107908	0	
2.8560	8.87439	2.338	0	
2.8567	9.48861	1.72652	0	
2.8573	7.66714	-0.107908	0	
2.8580	5.23144	0.503569	0	
2.8587	6.4387	0.803313	0	
2.8593	6.4387	-1.01913	0	
2.8600	2.47805	-2.55381	0	
2.8607	1.24962	-3.76478	0	
2.8613	3.38879	-3.76478	0	
2.8620	2.77457	-1.94234	0	
2.8627	-1.4826	-0.107908	0	
2.8633	-5.46442	-0.719384	0	
2.8640	-8.19663	-0.407651	0	
2.8647	-13.3857	1.11505	0	
2.8653	-16.7533	2.63774	0	
2.8660	-13.7034	3.56095	0	
2.8667	-12.7927	2.63774	0	
2.8673	-15.2284	1.11505	0	
2.8680	-7.2859	2.63774	0	
2.8687	5.52796	5.99487	0	
2.8693	6.14218	5.99487	0	
2.8700	1.56732	4.16044	0	
2.8707	1.24962	2.94948	0	
2.8713	-0.275339	1.41479	0	
2.8720	-1.80029	0.503569	0	
2.8727	0.635398	2.63774	0	
2.8733	2.47805	4.47217	0	
2.8740	4.61723	2.94948	0	
2.8747	6.7564	1.41479	0	
2.8753	5.23144	2.94948	0	
2.8760	3.38879	4.47217	0	
2.8767	2.77457	2.338	0	
2.8773	1.56732	-0.107908	0	
2.8780	2.16035	1.41479	0	
2.8787	3.38879	2.63774	0	
2.8793	1.56732	-0.107908	0	
2.8800	0.338879	-2.55381	0	
2.8807	3.38879	-1.6306	0	
2.8813	4.29953	-1.01913	0	
2.8820	0.635398	-1.94234	0	
2.8827	-3.62177	-0.407651	0	
2.8833	-5.14672	0.503569	0	
2.8840	-6.67168	-1.01913	0	
2.8847	-8.81085	-0.107908	0	
2.8853	-7.6036	0.203826	0	
2.8860	-4.23599	-3.76478	0	
2.8867	-5.76094	-4.68799	0	
2.8873	-6.98938	-1.01913	0	
2.8880	-3.32525	-1.01913	0	
2.8887	-0.275339	-2.85356	0	
2.8893	-0.275339	-0.107908	0	
2.8900	0.338879	1.72652	0	
2.8907	0.953097	-0.107908	0	
2.8913	0.338879	-0.407651	0	
2.8920	1.24962	-1.01913	0	
2.8927	3.09227	-2.55381	0	
2.8933	7.96365	-1.33086	0	
2.8940	13.4704	2.94948	0	
2.8947	10.717	7.51757	0	
2.8953	4.61723	8.44078	0	
2.8960	6.4387	5.38339	0	
2.8967	10.3993	5.38339	0	
2.8973	6.14218	7.21782	0	
2.8980	2.47805	3.24922	0	
2.8987	3.09227	-0.719384	0	
2.8993	0.635398	-0.407651	0	
2.9000	-2.09681	-4.37626	0	
2.9007	-1.18608	-10.1793	0	
2.9013	-2.09681	-8.65659	0	
2.9020	-1.4826	-5.29947	0	
2.9027	-1.4826	-4.68799	0	
2.9033	-8.51433	-2.85356	0	
2.9040	-13.7034	-2.85356	0	
2.9047	-10.3358	-5.91094	0	
2.9053	-10.3358	-6.51043	0	
2.9060	-13.0892	-3.76478	0	
2.9067	-10.95	-1.33086	0	
2.9073	-10.3358	-0.719384	0	
2.9080	-11.2677	-1.33086	0	
2.9087	-5.76094	-0.107908	0	
2.9093	-3.02873	1.72652	0	
2.9100	-6.07864	0.503569	0	
2.9107	-3.02873	-2.24208	0	
2.9113	0.338879	-1.94234	0	
2.9120	-4.23599	-0.719384	0	
2.9127	-3.32525	-0.407651	0	
2.9133	5.23144	-0.719384	0	
2.9140	8.28135	-0.719384	0	
2.9147	6.14218	1.11505	0	
2.9153	5.23144	3.24922	0	
2.9160	3.09227	2.63774	0	
2.9167	0.0423599	1.72652	0	
2.9173	-1.18608	1.11505	0	
2.9180	-0.275339	0.203826	0	
2.9187	-0.275339	0.203826	0	
2.9193	-1.18608	1.72652	0	
2.9200	-0.275339	1.72652	0	
2.9207	1.86383	1.11505	0	
2.9213	2.16035	-0.719384	0	
2.9220	1.86383	-1.6306	0	
2.9227	2.47805	2.338	0	
2.9233	-2.09681	3.56095	0	
2.9240	-5.76094	-2.55381	0	
2.9247	-1.18608	-4.68799	0	
2.9253	1.56732	-1.94234	0	
2.9260	-2.09681	-1.6306	0	
2.9267	-2.09681	-1.6306	0	
2.9273	1.56732	1.41479	0	
2.9280	0.635398	3.56095	0	
2.9287	-2.41451	4.47217	0	
2.9293	-4.55369	3.8607	0	
2.9300	-6.07864	0.803313	0	
2.9307	-2.41451	1.11505	0	
2.9313	4.00301	3.8607	0	
2.9320	4.61723	2.02627	0	
2.9327	2.77457	0.203826	0	
2.9333	2.47805	2.63774	0	
2.9340	0.953097	2.94948	0	
2.9347	4.29953	0.203826	0	
2.9353	16.5203	-1.94234	0	
2.9360	24.4416	-3.46504	0	
2.9367	22.3025	-3.76478	0	
2.9373	15.5884	-3.1533	0	
2.9380	6.14218	-2.24208	0	
2.9387	-3.02873	-0.719384	0	
2.9393	-5.76094	1.41479	0	
2.9400	-4.8502	2.63774	0	
2.9407	-2.71103	1.41479	0	
2.9413	-0.275339	-2.55381	0	
2.9420	-3.02873	-4.68799	0	
2.9427	-7.90012	-1.6306	0	
2.9433	-4.55369	2.63774	0	
2.9440	-2.09681	3.8607	0	
2.9447	-13.0892	3.56095	0	
2.9453	-20.4175	3.24922	0	
2.9460	-8.51433	1.72652	0	
2.9467	5.52796	-1.01913	0	
2.9473	4.00301	-3.76478	0	
