0.0007	-15.6536	-3.96899	0	
0.0013	-16.2613	0	0	
0.0020	-4.6702	1.83321	0	
0.0027	3.56736	-3.66642	0	
0.0033	4.49014	-3.66642	0	
0.0040	8.14753	-1.83321	0	
0.0047	10.8934	-3.66642	0	
0.0053	10.8934	-3.06128	0	
0.0060	12.4239	-0.605137	0	
0.0067	6.93215	-4.57412	0	
0.0073	-5.58173	-7.33283	0	
0.0080	-8.63143	-5.49963	0	
0.0087	-5.58173	-3.96899	0	
0.0093	-7.11221	-3.66642	0	
0.0100	-4.06251	-0.907705	0	
0.0107	1.44045	1.22807	0	
0.0113	-0.697717	1.83321	0	
0.0120	-2.53204	1.83321	0	
0.0127	-0.697717	1.22807	0	
0.0133	-1.92435	-1.83321	0	
0.0140	-1.92435	-4.57412	0	
0.0147	-0.090028	-3.66642	0	
0.0153	-0.393872	-1.83321	0	
0.0160	-0.090028	-2.13578	0	
0.0167	1.12535	-0.907705	0	
0.0173	1.74429	1.83321	0	
0.0180	3.56736	1.83321	0	
0.0187	4.49014	0.907705	0	
0.0193	8.75522	-0.907705	0	
0.0200	18.5233	-4.57412	0	
0.0207	9.67801	-6.40733	0	
0.0213	-19.3223	-5.80219	0	
0.0220	-25.7255	-4.57412	0	
0.0227	-5.88558	-1.83321	0	
0.0233	2.35198	0.605137	0	
0.0240	-0.697717	-0.907705	0	
0.0247	3.26351	-1.83321	0	
0.0253	6.00937	-1.22807	0	
0.0260	2.95967	-2.43835	0	
0.0267	2.65582	-2.43835	0	
0.0273	3.8712	-1.53064	0	
0.0280	4.1863	-2.74091	0	
0.0287	5.09783	-3.36385	0	
0.0293	4.1863	-1.83321	0	
0.0300	2.65582	-2.74091	0	
0.0307	2.04814	-1.53064	0	
0.0313	2.04814	2.43835	0	
0.0320	1.44045	3.66642	0	
0.0327	-1.00156	3.36385	0	
0.0333	-4.6702	2.74091	0	
0.0340	-4.6702	-0.302568	0	
0.0347	-1.6205	-0.907705	0	
0.0353	-2.22819	2.74091	0	
0.0360	-5.88558	2.74091	0	
0.0367	-7.7199	1.22807	0	
0.0373	-10.1619	4.57412	0	
0.0380	-13.2116	7.01247	0	
0.0387	-12.6039	6.40733	0	
0.0393	-11.9962	6.40733	0	
0.0400	-13.2116	4.87669	0	
0.0407	-11.0734	4.27155	0	
0.0413	-5.58173	5.49963	0	
0.0420	-4.97405	4.57412	0	
0.0427	-11.0734	4.57412	0	
0.0433	-19.0072	7.31504	0	
0.0440	-22.0681	3.36385	0	
0.0447	-18.3995	-6.7099	0	
0.0453	-12.6039	-11.907	0	
0.0460	-8.32759	-11.284	0	
0.0467	-4.06251	-6.7099	0	
0.0473	0.821505	-0.907705	0	
0.0480	3.8712	-0.302568	0	
0.0487	2.04814	-2.43835	0	
0.0493	-3.75867	0.302568	0	
0.0500	-4.06251	2.74091	0	
0.0507	-0.090028	0.302568	0	
0.0513	-1.31666	-1.83321	0	
0.0520	-1.92435	-1.83321	0	
0.0527	3.26351	-2.43835	0	
0.0533	4.79399	-3.06128	0	
0.0540	2.65582	-1.83321	0	
0.0547	3.56736	1.22807	0	
0.0553	2.65582	1.53064	0	
0.0560	-2.83588	-0.605137	0	
0.0567	-2.83588	1.83321	0	
0.0573	1.74429	5.17926	0	
0.0580	1.74429	2.74091	0	
0.0587	0.821505	0.302568	0	
0.0593	0.821505	1.83321	0	
0.0600	-0.090028	2.13578	0	
0.0607	1.74429	1.83321	0	
0.0613	4.1863	1.83321	0	
0.0620	2.65582	-0.302568	0	
0.0627	2.35198	-0.907705	0	
0.0633	5.40168	2.13578	0	
0.0640	6.62831	3.36385	0	
0.0647	6.31321	1.83321	0	
0.0653	8.75522	0.907705	0	
0.0660	11.8162	-0.907705	0	
0.0667	13.0315	-2.13578	0	
0.0673	11.8162	-1.83321	0	
0.0680	7.84369	-1.53064	0	
0.0687	6.62831	-0.907705	0	
0.0693	10.5895	-1.83321	0	
0.0700	9.37416	-6.10476	0	
0.0707	1.74429	-8.84568	0	
0.0713	-3.75867	-5.49963	0	
0.0720	-2.83588	-3.06128	0	
0.0727	2.65582	-0.907705	0	
0.0733	9.05906	3.36385	0	
0.0740	9.98185	3.66642	0	
0.0747	6.00937	-0.605137	0	
0.0753	4.79399	-1.83321	0	
0.0760	3.56736	-1.22807	0	
0.0767	-1.00156	-2.43835	0	
0.0773	-2.83588	-2.13578	0	
0.0780	-1.00156	-0.605137	0	
0.0787	-0.393872	0	0	
0.0793	-0.697717	0.605137	0	
0.0800	-1.6205	0.605137	0	
0.0807	-4.06251	0	0	
0.0813	-3.75867	0.907705	0	
0.0820	0.213816	1.53064	0	
0.0827	1.74429	2.74091	0	
0.0833	1.44045	3.96899	0	
0.0840	3.56736	0.907705	0	
0.0847	9.05906	-3.96899	0	
0.0853	14.8659	-3.66642	0	
0.0860	17.3079	-1.53064	0	
0.0867	15.4736	-1.83321	0	
0.0873	13.9431	-1.53064	0	
0.0880	11.8162	-0.302568	0	
0.0887	6.62831	0	0	
0.0893	5.70552	0.907705	0	
0.0900	4.79399	0.302568	0	
0.0907	-2.83588	-0.302568	0	
0.0913	-6.80836	1.53064	0	
0.0920	-3.75867	1.22807	0	
0.0927	-5.58173	-2.43835	0	
0.0933	-8.32759	-2.74091	0	
0.0940	-6.50452	0.302568	0	
0.0947	-7.41605	-0.605137	0	
0.0953	-6.80836	-2.13578	0	
0.0960	-1.92435	-0.605137	0	
0.0967	-1.92435	0	0	
0.0973	-2.83588	-2.74091	0	
0.0980	3.8712	-2.74091	0	
0.0987	8.75522	-0.907705	0	
0.0993	5.40168	0.302568	0	
0.1000	-1.92435	0.605137	0	
0.1007	-13.8193	-0.907705	0	
0.1013	-22.6758	-3.66642	0	
0.1020	-17.4879	-3.66642	0	
0.1027	-7.7199	-1.83321	0	
0.1033	-3.75867	-2.43835	0	
0.1040	-0.697717	-2.74091	0	
0.1047	4.79399	-0.907705	0	
0.1053	7.84369	-2.74091	0	
0.1060	7.53984	-3.96899	0	
0.1067	8.14753	-1.22807	0	
0.1073	11.5011	0.907705	0	
0.1080	16.3851	0.302568	0	
0.1087	17.3079	1.83321	0	
0.1093	9.67801	1.83321	0	
0.1100	0.821505	-0.302568	0	
0.1107	1.12535	-0.302568	0	
0.1113	0.821505	0	0	
0.1120	-8.94653	-0.302568	0	
0.1127	-13.8193	1.53064	0	
0.1133	-7.11221	1.53064	0	
0.1140	-3.44357	-0.907705	0	
0.1147	-6.18942	1.83321	0	
0.1153	-6.50452	5.80219	0	
0.1160	-6.18942	3.36385	0	
0.1167	-8.63143	-0.605137	0	
0.1173	-9.25037	0	0	
0.1180	-6.50452	2.13578	0	
0.1187	-3.13973	3.96899	0	
0.1193	-2.53204	2.74091	0	
0.1200	-6.18942	-2.13578	0	
0.1207	-10.4658	-2.74091	0	
0.1213	-9.55422	1.22807	0	
0.1220	-5.27789	2.43835	0	
0.1227	-2.53204	0.302568	0	
0.1233	-1.00156	-0.302568	0	
0.1240	-0.090028	0	0	
0.1247	0.517661	1.83321	0	
0.1253	1.12535	3.66642	0	
0.1260	2.35198	2.43835	0	
0.1267	2.65582	0	0	
0.1273	4.1863	0.302568	0	
0.1280	4.79399	0	0	
0.1287	1.74429	-1.83321	0	
0.1293	-1.92435	-1.53064	0	
0.1300	-1.31666	-0.302568	0	
0.1307	-1.00156	-0.907705	0	
0.1313	-1.6205	-0.605137	0	
0.1320	1.74429	0.605137	0	
0.1327	1.74429	1.22807	0	
0.1333	-4.97405	3.04348	0	
0.1340	-11.0734	4.87669	0	
0.1347	-12.9078	2.43835	0	
0.1353	-13.8193	-1.53064	0	
0.1360	-9.85806	-1.22807	0	
0.1367	-4.36636	0	0	
0.1373	-4.6702	-1.22807	0	
0.1380	-3.75867	0	0	
0.1387	-0.090028	3.36385	0	
0.1393	-0.697717	2.74091	0	
0.1400	6.31321	-0.605137	0	
0.1407	17.6117	-1.83321	0	
0.1413	3.8712	-2.74091	0	
0.1420	-25.7255	-3.36385	0	
0.1427	-29.698	-0.605137	0	
0.1433	-13.5154	0.907705	0	
0.1440	-4.6702	-1.53064	0	
0.1447	-0.090028	-2.74091	0	
0.1453	4.49014	-0.302568	0	
0.1460	2.95967	1.83321	0	
0.1467	0.821505	1.53064	0	
0.1473	3.56736	0.302568	0	
0.1480	5.09783	-0.302568	0	
0.1487	3.8712	-0.907705	0	
0.1493	4.49014	-0.907705	0	
0.1500	6.00937	0	0	
0.1507	5.70552	0.907705	0	
0.1513	3.8712	0.605137	0	
0.1520	1.12535	-1.22807	0	
0.1527	-1.00156	-1.83321	0	
0.1533	-1.31666	0	0	
0.1540	-1.92435	2.74091	0	
0.1547	-3.75867	3.66642	0	
0.1553	-4.06251	3.04348	0	
0.1560	-1.92435	1.22807	0	
0.1567	0.517661	-0.605137	0	
0.1573	-1.00156	0.302568	0	
0.1580	-4.36636	1.83321	0	
0.1587	-4.6702	-0.605137	0	
0.1593	-2.83588	-3.36385	0	
0.1600	-3.44357	-0.605137	0	
0.1607	-3.75867	2.13578	0	
0.1613	-1.31666	0	0	
0.1620	0.517661	-0.605137	0	
0.1627	0.213816	1.22807	0	
0.1633	1.74429	1.83321	0	
0.1640	3.8712	2.43835	0	
0.1647	5.40168	1.83321	0	
0.1653	8.14753	-2.43835	0	
0.1660	9.98185	-4.27155	0	
0.1667	8.45138	-1.83321	0	
0.1673	8.14753	-1.22807	0	
0.1680	9.05906	-5.19706	0	
0.1687	8.45138	-7.01247	0	
0.1693	8.45138	-4.57412	0	
0.1700	9.05906	-3.66642	0	
0.1707	7.53984	-3.66642	0	
0.1713	3.56736	-3.66642	0	
0.1720	-2.53204	-0.605137	0	
0.1727	-6.18942	3.04348	0	
0.1733	-5.88558	2.13578	0	
0.1740	-8.32759	-3.66642	0	
0.1747	-8.32759	-4.57412	0	
0.1753	2.65582	0	0	
0.1760	12.12	3.66642	0	
0.1767	8.14753	6.10476	0	
0.1773	0.821505	8.24054	0	
0.1780	-0.090028	5.49963	0	
0.1787	0.517661	1.83321	0	
0.1793	0.517661	2.43835	0	
0.1800	0.821505	1.22807	0	
0.1807	-0.393872	-1.22807	0	
0.1813	-0.090028	0.605137	0	
0.1820	2.65582	0	0	
0.1827	5.40168	-3.66642	0	
0.1833	5.40168	-3.66642	0	
0.1840	5.09783	-1.53064	0	
0.1847	5.40168	-3.06128	0	
0.1853	5.40168	-2.43835	0	
0.1860	4.49014	0.302568	0	
0.1867	7.236	0.302568	0	
0.1873	10.8934	-1.53064	0	
0.1880	8.45138	-3.36385	0	
0.1887	3.8712	-3.66642	0	
0.1893	5.09783	-0.907705	0	
0.1900	6.00937	2.13578	0	
0.1907	3.56736	1.83321	0	
0.1913	3.56736	0.907705	0	
0.1920	3.56736	2.43835	0	
0.1927	2.65582	2.74091	0	
0.1933	3.56736	-1.53064	0	
0.1940	5.40168	-4.27155	0	
0.1947	2.95967	-1.83321	0	
0.1953	-1.00156	0.907705	0	
0.1960	-2.53204	0	0	
0.1967	0.821505	-0.605137	0	
0.1973	7.236	-1.22807	0	
0.1980	11.1972	-2.74091	0	
0.1987	12.12	-0.605137	0	
0.1993	13.3354	2.74091	0	
0.2000	11.8162	1.83321	0	
0.2007	-0.090028	1.22807	0	
0.2013	-22.9796	5.49963	0	
0.2020	-37.9355	6.7099	0	
0.2027	-32.14	0.907705	0	
0.2033	-17.7918	-4.57412	0	
0.2040	-11.9962	-2.74091	0	
0.2047	-8.63143	2.43835	0	
0.2053	-3.44357	3.36385	0	
0.2060	0.517661	-0.302568	0	
0.2067	4.49014	-2.74091	0	
0.2073	7.236	-1.53064	0	
0.2080	3.56736	1.83321	0	
0.2087	1.12535	3.66642	0	
0.2093	4.49014	1.83321	0	
0.2100	5.40168	-2.13578	0	
0.2107	2.65582	-3.06128	0	
0.2113	3.56736	-0.907705	0	
0.2120	6.62831	0	0	
0.2127	7.53984	-1.22807	0	
0.2133	4.79399	-0.302568	0	
0.2140	2.35198	1.83321	0	
0.2147	2.95967	1.53064	0	
0.2153	1.74429	2.13578	0	
0.2160	-3.75867	4.57412	0	
0.2167	-5.27789	1.83321	0	
0.2173	-3.75867	-1.83321	0	
0.2180	-5.27789	2.13578	0	
0.2187	-6.50452	4.57412	0	
0.2193	-9.85806	0	0	
0.2200	-19.0072	-1.83321	0	
0.2207	-23.8912	0.302568	0	
0.2213	-18.7033	0.302568	0	
0.2220	-12.6039	0	0	
0.2227	-10.4658	0	0	
0.2233	-9.55422	-1.83321	0	
0.2240	-6.18942	-3.36385	0	
0.2247	-1.00156	-3.66642	0	
0.2253	-0.090028	-2.74091	0	
0.2260	-1.6205	-0.907705	0	
0.2267	1.12535	-3.66642	0	
0.2273	5.09783	-3.96899	0	
0.2280	4.49014	-1.83321	0	
0.2287	2.95967	-3.66642	0	
0.2293	3.8712	-5.49963	0	
0.2300	2.35198	-1.22807	0	
0.2307	-1.00156	0.302568	0	
0.2313	-1.00156	-2.43835	0	
0.2320	1.12535	-0.907705	0	
0.2327	2.35198	0.605137	0	
0.2333	2.35198	-0.302568	0	
0.2340	0.517661	1.83321	0	
0.2347	-0.090028	2.74091	0	
0.2353	1.74429	-0.605137	0	
0.2360	2.65582	-1.83321	0	
0.2367	0.213816	0.605137	0	
0.2373	-3.44357	0.605137	0	
0.2380	-4.36636	-2.74091	0	
0.2387	-1.92435	-3.06128	0	
0.2393	-2.22819	0.302568	0	
0.2400	-5.58173	1.53064	0	
0.2407	-3.75867	0	0	
0.2413	0.821505	-0.605137	0	
0.2420	3.56736	-2.74091	0	
0.2427	10.8934	-3.66642	0	
0.2433	13.6392	0.605137	0	
0.2440	-4.6702	0.907705	0	
0.2447	-23.5873	-2.74091	0	
0.2453	-15.0459	-0.302568	0	
0.2460	0.821505	2.13578	0	
0.2467	2.65582	-0.302568	0	
0.2473	3.56736	1.22807	0	
0.2480	7.236	3.36385	0	
0.2487	5.70552	-1.83321	0	
0.2493	3.56736	-3.66642	0	
0.2500	3.56736	0	0	
0.2507	1.12535	2.13578	0	
0.2513	-2.22819	3.36385	0	
0.2520	-2.53204	6.10476	0	
0.2527	0.821505	5.80219	0	
0.2533	3.56736	4.87669	0	
0.2540	-0.090028	5.80219	0	
0.2547	-4.6702	5.17926	0	
0.2553	-2.53204	2.43835	0	
0.2560	0.213816	0.605137	0	
0.2567	-2.83588	-0.907705	0	
0.2573	-4.97405	-3.36385	0	
0.2580	-2.83588	-3.66642	0	
0.2587	-1.00156	-0.302568	0	
0.2593	-0.697717	1.83321	0	
0.2600	-1.92435	-2.43835	0	
0.2607	-4.6702	-5.49963	0	
0.2613	-3.75867	-3.06128	0	
0.2620	0.821505	-0.907705	0	
0.2627	0.821505	-1.22807	0	
0.2633	-2.22819	-1.83321	0	
0.2640	-0.393872	-2.43835	0	
0.2647	4.1863	-1.83321	0	
0.2653	6.62831	0.302568	0	
0.2660	6.93215	1.22807	0	
0.2667	6.00937	2.13578	0	
0.2673	7.53984	1.22807	0	
0.2680	11.8162	-3.66642	0	
0.2687	12.4239	-4.57412	0	
0.2693	9.37416	0.907705	0	
0.2700	8.14753	-0.605137	0	
0.2707	5.40168	-5.49963	0	
0.2713	2.65582	-3.06128	0	
0.2720	2.65582	0.907705	0	
0.2727	-0.697717	-1.83321	0	
0.2733	-6.50452	-3.96899	0	
0.2740	-1.00156	-0.302568	0	
0.2747	9.05906	5.49963	0	
0.2753	5.70552	7.93797	0	
0.2760	-3.13973	3.36385	0	
0.2767	-4.6702	-0.605137	0	
0.2773	-2.83588	2.13578	0	
0.2780	-1.31666	4.57412	0	
0.2787	1.44045	2.13578	0	
0.2793	1.74429	1.83321	0	
0.2800	1.44045	3.66642	0	
0.2807	5.09783	2.74091	0	
0.2813	7.236	1.53064	0	
0.2820	4.49014	2.74091	0	
0.2827	0.821505	2.43835	0	
0.2833	-1.31666	1.83321	0	
0.2840	-2.53204	3.36385	0	
0.2847	-0.697717	3.04348	0	
0.2853	2.95967	0	0	
0.2860	5.09783	-1.53064	0	
0.2867	5.40168	0.605137	0	
0.2873	5.40168	2.74091	0	
0.2880	2.35198	2.13578	0	
0.2887	-5.27789	0	0	
0.2893	-10.1619	-0.907705	0	
0.2900	-8.32759	0	0	
0.2907	-2.83588	0	0	
0.2913	2.65582	-2.13578	0	
0.2920	4.49014	-2.74091	0	
0.2927	3.56736	-2.43835	0	
0.2933	3.56736	-2.13578	0	
0.2940	3.56736	-0.302568	0	
0.2947	0.821505	1.83321	0	
0.2953	-3.13973	1.83321	0	
0.2960	-3.44357	1.22807	0	
0.2967	-1.00156	0.302568	0	
0.2973	0.213816	-1.83321	0	
0.2980	1.12535	-1.83321	0	
0.2987	3.56736	-0.907705	0	
0.2993	1.74429	-3.36385	0	
0.3000	-9.25037	-5.49963	0	
0.3007	-16.8802	-4.27155	0	
0.3013	-11.9962	-2.43835	0	
0.3020	-4.36636	-0.605137	0	
0.3027	-1.92435	0.302568	0	
0.3033	-0.393872	-1.83321	0	
0.3040	2.65582	-2.13578	0	
0.3047	6.31321	0.907705	0	
0.3053	8.75522	-0.605137	0	
0.3060	9.05906	-4.27155	0	
0.3067	8.75522	-3.66642	0	
0.3073	8.14753	-2.74091	0	
0.3080	6.93215	-3.66642	0	
0.3087	8.14753	-2.13578	0	
0.3093	9.98185	0.302568	0	
0.3100	7.53984	-1.53064	0	
0.3107	5.70552	-3.06128	0	
0.3113	6.62831	-1.53064	0	
0.3120	3.8712	-0.302568	0	
0.3127	-0.697717	-0.302568	0	
0.3133	-1.6205	0.907705	0	
0.3140	-1.92435	0.907705	0	
0.3147	-2.83588	-0.907705	0	
0.3153	-3.13973	0	0	
0.3160	-5.88558	3.36385	0	
0.3167	-7.7199	4.87669	0	
0.3173	-4.6702	2.13578	0	
0.3180	-2.22819	-2.74091	0	
0.3187	-2.83588	-3.66642	0	
0.3193	-0.393872	-0.907705	0	
0.3200	-0.697717	-1.53064	0	
0.3207	-7.41605	-5.80219	0	
0.3213	-8.63143	-5.49963	0	
0.3220	-2.83588	-2.43835	0	
0.3227	-2.53204	-3.66642	0	
0.3233	-4.36636	-3.96899	0	
0.3240	-1.31666	0	0	
0.3247	-0.393872	2.43835	0	
0.3253	-2.83588	0.907705	0	
0.3260	-2.53204	-0.907705	0	
0.3267	-3.75867	-1.53064	0	
0.3273	-9.25037	0.605137	0	
0.3280	-10.4658	1.83321	0	
0.3287	-5.58173	-0.605137	0	
0.3293	-3.13973	-1.83321	0	
0.3300	-5.58173	-0.907705	0	
0.3307	-9.55422	-1.83321	0	
0.3313	-13.8193	-1.53064	0	
0.3320	-13.8193	-0.907705	0	
0.3327	-8.94653	-2.74091	0	
0.3333	-6.50452	-2.74091	0	
0.3340	-8.02374	0.605137	0	
0.3347	-8.63143	0.907705	0	
0.3353	-8.32759	0.302568	0	
0.3360	-10.4658	1.22807	0	
0.3367	-12.6039	-0.605137	0	
0.3373	-11.9962	-0.907705	0	
0.3380	-11.9962	3.66642	0	
0.3387	-11.9962	4.27155	0	
0.3393	-9.55422	-0.907705	0	
0.3400	-5.58173	-2.43835	0	
0.3407	-2.22819	-0.302568	0	
0.3413	-1.00156	-0.907705	0	
0.3420	-0.090028	-2.43835	0	
0.3427	2.95967	-1.83321	0	
0.3433	5.40168	0	0	
0.3440	3.8712	1.83321	0	
0.3447	4.49014	0	0	
0.3453	11.1972	-0.907705	0	
0.3460	16.0812	1.22807	0	
0.3467	16.0812	2.74091	0	
0.3473	18.5233	2.43835	0	
0.3480	21.573	2.13578	0	
0.3487	18.2194	1.83321	0	
0.3493	11.5011	0.605137	0	
0.3500	3.8712	0	0	
0.3507	-7.41605	-1.53064	0	
0.3513	-16.5651	-2.74091	0	
0.3520	-15.3498	-1.53064	0	
0.3527	-10.1619	0.302568	0	
0.3533	-7.11221	-0.302568	0	
0.3540	-4.36636	-1.83321	0	
0.3547	-3.75867	-1.53064	0	
0.3553	-6.18942	-0.605137	0	
0.3560	-6.18942	0	0	
0.3567	-3.75867	0.907705	0	
0.3573	-3.13973	1.83321	0	
0.3580	-0.090028	0.302568	0	
0.3587	5.40168	-0.605137	0	
0.3593	3.56736	2.74091	0	
0.3600	-0.090028	3.96899	0	
0.3607	5.40168	1.83321	0	
0.3613	3.56736	3.66642	0	
0.3620	-14.4382	7.31504	0	
0.3627	-19.3223	5.49963	0	
0.3633	-1.31666	1.53064	0	
0.3640	11.1972	0.907705	0	
0.3647	10.5895	0.302568	0	
0.3653	10.5895	-1.83321	0	
0.3660	10.5895	-3.06128	0	
0.3667	8.75522	-4.87669	0	
0.3673	10.2857	-7.33283	0	
0.3680	9.05906	-7.01247	0	
0.3687	2.95967	-5.49963	0	
0.3693	4.49014	-3.66642	0	
0.3700	13.0315	0.605137	0	
0.3707	15.7774	4.27155	0	
0.3713	12.7277	2.43835	0	
0.3720	8.45138	0	0	
0.3727	3.8712	-0.907705	0	
0.3733	2.65582	-2.13578	0	
0.3740	7.236	0.605137	0	
0.3747	10.8934	6.40733	0	
0.3753	7.53984	6.40733	0	
0.3760	2.35198	2.43835	0	
0.3767	0.821505	1.83321	0	
0.3773	1.12535	1.83321	0	
0.3780	0.821505	0.605137	0	
0.3787	2.65582	1.53064	0	
0.3793	6.00937	3.04348	0	
0.3800	6.31321	3.66642	0	
0.3807	4.79399	3.66642	0	
0.3813	4.49014	0.907705	0	
0.3820	3.56736	-0.907705	0	
0.3827	5.09783	2.74091	0	
0.3833	8.75522	5.17926	0	
0.3840	7.236	2.43835	0	
0.3847	2.65582	-0.605137	0	
0.3853	2.65582	-0.907705	0	
0.3860	6.00937	-0.605137	0	
0.3867	6.93215	-0.907705	0	
0.3873	6.31321	-0.907705	0	
0.3880	4.1863	-0.907705	0	
0.3887	2.65582	-2.74091	0	
0.3893	3.56736	-3.66642	0	
0.3900	6.00937	-1.53064	0	
0.3907	8.14753	1.22807	0	
0.3913	7.84369	1.83321	0	
0.3920	4.1863	1.83321	0	
0.3927	3.56736	2.74091	0	
0.3933	6.93215	2.74091	0	
0.3940	6.93215	5.49963	0	
0.3947	5.40168	9.14825	0	
0.3953	2.35198	7.01247	0	
0.3960	-11.9962	2.74091	0	
0.3967	-28.4713	1.83321	0	
0.3973	-28.1675	1.53064	0	
0.3980	-19.9299	-0.605137	0	
0.3987	-17.4879	-1.83321	0	
0.3993	-15.0459	-1.22807	0	
0.4000	-8.32759	0.302568	0	
0.4007	-3.44357	1.83321	0	
0.4013	-1.92435	0.907705	0	
0.4020	-4.06251	-0.907705	0	
0.4027	-6.80836	-0.302568	0	
0.4033	-4.36636	0	0	
0.4040	1.74429	-2.74091	0	
0.4047	4.49014	-4.87669	0	
0.4053	4.49014	-2.74091	0	
0.4060	5.70552	0	0	
0.4067	7.236	-1.53064	0	
0.4073	6.31321	-1.83321	0	
0.4080	2.95967	0.907705	0	
0.4087	2.35198	1.83321	0	
0.4093	2.65582	-0.907705	0	
0.4100	1.74429	-2.43835	0	
0.4107	0.821505	-1.53064	0	
0.4113	1.12535	0.302568	0	
0.4120	-0.697717	0.907705	0	
0.4127	-3.75867	0.302568	0	
0.4133	-4.06251	0	0	
0.4140	-2.53204	0.605137	0	
0.4147	-2.83588	0.907705	0	
0.4153	-5.27789	0.302568	0	
0.4160	-5.88558	0.605137	0	
0.4167	-5.27789	1.83321	0	
0.4173	-4.6702	1.22807	0	
0.4180	-5.27789	0	0	
0.4187	-8.94653	0.302568	0	
0.4193	-14.7421	1.22807	0	
0.4200	-15.0459	-0.605137	0	
0.4207	-10.1619	-1.83321	0	
0.4213	-7.7199	0.605137	0	
0.4220	-8.94653	1.83321	0	
0.4227	-9.25037	0.907705	0	
0.4233	-7.41605	1.53064	0	
0.4240	-3.75867	1.83321	0	
0.4247	-0.697717	0	0	
0.4253	-1.00156	0.605137	0	
0.4260	-1.31666	1.83321	0	
0.4267	2.65582	-1.83321	0	
0.4273	4.79399	-3.96899	0	
0.4280	4.49014	-1.83321	0	
0.4287	4.49014	-0.302568	0	
0.4293	3.26351	0	0	
0.4300	2.65582	1.83321	0	
0.4307	4.1863	-0.907705	0	
0.4313	5.70552	-4.57412	0	
0.4320	3.56736	-1.22807	0	
0.4327	-1.00156	0.907705	0	
0.4333	-5.58173	-3.96899	0	
0.4340	-7.41605	-4.87669	0	
0.4347	-6.50452	0	0	
0.4353	-2.83588	2.13578	0	
0.4360	0.821505	1.83321	0	
0.4367	2.65582	2.74091	0	
0.4373	1.74429	1.83321	0	
0.4380	-1.6205	-0.907705	0	
0.4387	-2.53204	0.302568	0	
0.4393	1.74429	2.43835	0	
0.4400	2.65582	1.83321	0	
0.4407	-7.41605	0.302568	0	
0.4413	-14.7421	0	0	
0.4420	-8.63143	-0.302568	0	
0.4427	-1.6205	-1.83321	0	
0.4433	-3.75867	-2.13578	0	
0.4440	-7.41605	-1.22807	0	
0.4447	-6.50452	-2.43835	0	
0.4453	-1.92435	-5.49963	0	
0.4460	4.49014	-9.46861	0	
0.4467	5.09783	-12.2095	0	
0.4473	-0.393872	-10.6789	0	
0.4480	3.26351	-4.57412	0	
0.4487	14.562	-0.605137	0	
0.4493	14.8659	-1.53064	0	
0.4500	7.53984	-3.06128	0	
0.4507	5.40168	-2.74091	0	
0.4513	3.8712	-0.302568	0	
0.4520	1.12535	0.907705	0	
0.4527	1.44045	-2.13578	0	
0.4533	2.65582	-5.19706	0	
0.4540	0.821505	-6.10476	0	
0.4547	-2.53204	-5.49963	0	
0.4553	-1.92435	-3.36385	0	
0.4560	2.35198	-0.605137	0	
0.4567	1.74429	-0.907705	0	
0.4573	-2.22819	-0.605137	0	
0.4580	-0.090028	1.53064	0	
0.4587	5.09783	0.907705	0	
0.4593	3.56736	-1.83321	0	
0.4600	2.04814	-1.83321	0	
0.4607	3.56736	0	0	
0.4613	3.56736	1.83321	0	
0.4620	3.56736	1.53064	0	
0.4627	2.95967	-1.83321	0	
0.4633	0.213816	-3.36385	0	
0.4640	1.74429	-0.605137	0	
0.4647	6.31321	0	0	
0.4653	3.56736	0.302568	0	
0.4660	-1.00156	3.36385	0	
0.4667	2.65582	4.27155	0	
0.4673	7.84369	1.22807	0	
0.4680	7.84369	-0.605137	0	
0.4687	5.09783	-0.605137	0	
0.4693	2.35198	-0.605137	0	
0.4700	-0.090028	-0.605137	0	
0.4707	-0.393872	-2.74091	0	
0.4713	-0.697717	-4.57412	0	
0.4720	-0.090028	-3.66642	0	
0.4727	0.517661	-0.605137	0	
0.4733	-1.00156	2.43835	0	
0.4740	0.821505	4.57412	0	
0.4747	4.1863	3.04348	0	
0.4753	2.65582	0	0	
0.4760	0.821505	1.22807	0	
0.4767	2.65582	3.36385	0	
0.4773	-2.83588	1.53064	0	
0.4780	-8.32759	1.53064	0	
0.4787	0.213816	4.57412	0	
0.4793	8.14753	4.87669	0	
0.4800	2.04814	4.27155	0	
0.4807	-2.83588	3.96899	0	
0.4813	1.12535	-0.605137	0	
0.4820	2.04814	-6.40733	0	
0.4827	0.213816	-5.80219	0	
0.4833	1.74429	-2.43835	0	
0.4840	6.62831	-0.302568	0	
0.4847	11.8162	0	0	
0.4853	16.6889	-0.605137	0	
0.4860	23.7111	-1.83321	0	
0.4867	25.8493	-2.74091	0	
0.4873	15.4736	-1.22807	0	
0.4880	9.98185	2.13578	0	
0.4887	19.1309	2.74091	0	
0.4893	17.3079	-1.83321	0	
0.4900	-6.50452	-4.57412	0	
0.4907	-26.9409	-2.43835	0	
0.4913	-30.9134	-1.83321	0	
0.4920	-26.0293	-2.74091	0	
0.4927	-18.3995	1.22807	0	
0.4933	-14.4382	3.36385	0	
0.4940	-14.1344	0.907705	0	
0.4947	-13.2116	0.907705	0	
0.4953	-14.7421	3.66642	0	
0.4960	-16.5651	1.83321	0	
0.4967	-12.9078	-0.907705	0	
0.4973	-7.7199	-1.22807	0	
0.4980	-4.6702	-0.302568	0	
0.4987	-2.53204	1.53064	0	
0.4993	-4.06251	1.83321	0	
0.5000	-6.50452	1.22807	0	
0.5007	-3.75867	0.907705	0	
0.5013	-1.6205	0.605137	0	
0.5020	-2.53204	0.302568	0	
0.5027	-4.36636	1.83321	0	
0.5033	-4.97405	2.74091	0	
0.5040	-1.6205	1.83321	0	
0.5047	3.26351	0.302568	0	
0.5053	3.56736	-2.13578	0	
0.5060	2.65582	-2.74091	0	
0.5067	3.56736	0	0	
0.5073	3.26351	0.302568	0	
0.5080	3.56736	0	0	
0.5087	5.70552	2.13578	0	
0.5093	6.62831	3.66642	0	
0.5100	7.53984	2.74091	0	
0.5107	9.05906	0.302568	0	
0.5113	9.67801	-1.83321	0	
0.5120	9.05906	-0.605137	0	
0.5127	6.62831	1.83321	0	
0.5133	1.74429	0.605137	0	
0.5140	-4.36636	-0.302568	0	
0.5147	-11.0734	2.74091	0	
0.5153	-15.3498	3.96899	0	
0.5160	-8.63143	3.66642	0	
0.5167	0.517661	2.74091	0	
0.5173	0.821505	-2.74091	0	
0.5180	-0.697717	-5.49963	0	
0.5187	0.517661	-2.13578	0	
0.5193	-1.00156	-0.605137	0	
0.5200	-1.92435	-1.22807	0	
0.5207	-1.00156	0.907705	0	
0.5213	-1.6205	0.302568	0	
0.5220	-0.697717	-3.06128	0	
0.5227	3.56736	-1.83321	0	
0.5233	5.40168	-0.907705	0	
0.5240	5.40168	-3.66642	0	
0.5247	10.5895	-3.66642	0	
0.5253	15.4736	-1.22807	0	
0.5260	12.7277	-1.53064	0	
0.5267	6.62831	-1.53064	0	
0.5273	2.65582	-0.605137	0	
0.5280	1.74429	-0.907705	0	
0.5287	2.04814	-0.907705	0	
0.5293	2.35198	0	0	
0.5300	2.35198	0.907705	0	
0.5307	2.65582	0.907705	0	
0.5313	2.04814	0.605137	0	
0.5320	2.95967	1.22807	0	
0.5327	4.49014	1.83321	0	
0.5333	1.74429	0	0	
0.5340	-2.22819	-0.302568	0	
0.5347	-2.83588	2.13578	0	
0.5353	-4.36636	1.83321	0	
0.5360	-7.41605	-0.605137	0	
0.5367	-7.41605	0.907705	0	
0.5373	-6.80836	3.96899	0	
0.5380	-7.7199	3.04348	0	
0.5387	-8.63143	2.13578	0	
0.5393	-9.25037	2.74091	0	
0.5400	-6.18942	1.83321	0	
0.5407	-0.697717	0.302568	0	
0.5413	1.44045	1.22807	0	
0.5420	1.74429	0.907705	0	
0.5427	3.56736	-2.74091	0	
0.5433	4.79399	-3.06128	0	
0.5440	4.79399	-0.907705	0	
0.5447	6.31321	-0.907705	0	
0.5453	1.74429	1.22807	0	
0.5460	-6.80836	4.27155	0	
0.5467	-6.50452	0.907705	0	
0.5473	-1.31666	-3.06128	0	
0.5480	-3.44357	-2.13578	0	
0.5487	-7.41605	-3.06128	0	
0.5493	-4.06251	-1.83321	0	
0.5500	1.74429	2.13578	0	
0.5507	0.517661	-0.302568	0	
0.5513	-9.55422	-5.49963	0	
0.5520	-17.4879	-1.83321	0	
0.5527	-14.7421	2.74091	0	
0.5533	-9.25037	1.22807	0	
0.5540	-7.41605	1.83321	0	
0.5547	-6.50452	3.04348	0	
0.5553	-8.32759	1.22807	0	
0.5560	-10.1619	1.53064	0	
0.5567	-9.25037	2.74091	0	
0.5573	-7.7199	2.43835	0	
0.5580	-8.32759	3.04348	0	
0.5587	-7.11221	3.66642	0	
0.5593	-4.6702	0.907705	0	
0.5600	-3.75867	-0.907705	0	
0.5607	-3.75867	0	0	
0.5613	-5.27789	0.907705	0	
0.5620	-4.97405	0.302568	0	
0.5627	-3.44357	0	0	
0.5633	-2.83588	0.907705	0	
0.5640	-0.090028	0.907705	0	
0.5647	5.40168	-2.43835	0	
0.5653	9.05906	-4.27155	0	
0.5660	9.67801	-3.06128	0	
0.5667	9.98185	-3.06128	0	
0.5673	10.5895	-2.74091	0	
0.5680	14.562	0	0	
0.5687	15.4736	-1.22807	0	
0.5693	2.65582	-4.57412	0	
0.5700	-13.8193	-2.13578	0	
0.5707	-13.8193	0	0	
0.5713	-4.06251	-3.36385	0	
0.5720	2.35198	-3.06128	0	
0.5727	4.49014	0.302568	0	
0.5733	5.40168	0.302568	0	
0.5740	2.65582	0	0	
0.5747	-0.090028	1.83321	0	
0.5753	2.95967	1.83321	0	
0.5760	6.93215	1.83321	0	
0.5767	4.1863	4.57412	0	
0.5773	5.70552	3.96899	0	
0.5780	13.6392	-0.907705	0	
0.5787	4.49014	-2.13578	0	
0.5793	-18.3995	0.605137	0	
0.5800	-21.1453	1.22807	0	
0.5807	-6.50452	0.302568	0	
0.5813	-1.31666	0	0	
0.5820	-1.6205	-1.53064	0	
0.5827	-0.697717	-1.53064	0	
0.5833	-3.75867	1.22807	0	
0.5840	0.821505	0	0	
0.5847	14.562	-3.66642	0	
0.5853	18.8271	-1.83321	0	
0.5860	15.4736	1.22807	0	
0.5867	14.8659	0	0	
0.5873	12.7277	-0.907705	0	
0.5880	11.8162	-0.907705	0	
0.5887	15.4736	-3.06128	0	
0.5893	10.8934	-1.22807	0	
0.5900	2.65582	5.17926	0	
0.5907	4.49014	3.96899	0	
0.5913	7.53984	0	0	
0.5920	6.31321	0.907705	0	
0.5927	8.14753	0.907705	0	
0.5933	9.98185	-2.74091	0	
0.5940	7.236	-1.22807	0	
0.5947	4.1863	0	0	
0.5953	2.04814	-3.06128	0	
0.5960	0.517661	-3.66642	0	
0.5967	1.44045	-0.907705	0	
0.5973	2.04814	0.907705	0	
0.5980	0.517661	1.83321	0	
0.5987	-1.6205	2.43835	0	
0.5993	-3.13973	3.66642	0	
0.6000	-2.83588	5.17926	0	
0.6007	1.74429	3.36385	0	
0.6013	5.40168	-1.53064	0	
0.6020	5.40168	-2.13578	0	
0.6027	5.40168	0	0	
0.6033	6.31321	0.605137	0	
0.6040	3.26351	-0.302568	0	
0.6047	2.65582	-1.83321	0	
0.6053	9.67801	-3.66642	0	
0.6060	13.6392	-5.49963	0	
0.6067	9.67801	-6.10476	0	
0.6073	10.2857	-4.27155	0	
0.6080	9.98185	-1.83321	0	
0.6087	2.65582	-1.83321	0	
0.6093	4.49014	-0.302568	0	
0.6100	13.6392	4.57412	0	
0.6107	9.37416	6.40733	0	
0.6113	2.35198	2.74091	0	
0.6120	3.56736	0.907705	0	
0.6127	-0.697717	1.53064	0	
0.6133	-9.55422	2.74091	0	
0.6140	-8.32759	3.96899	0	
0.6147	-6.50452	-0.302568	0	
0.6153	-12.3001	-7.33283	0	
0.6160	-11.9962	-7.6354	0	
0.6167	-5.88558	-3.36385	0	
0.6173	-6.80836	-1.83321	0	
0.6180	-9.25037	0	0	
0.6187	-5.58173	1.83321	0	
0.6193	-6.18942	-0.302568	0	
0.6200	-11.0734	-1.22807	0	
0.6207	-8.94653	2.74091	0	
0.6213	-6.18942	4.87669	0	
0.6220	-10.1619	-0.302568	0	
0.6227	-11.9962	-5.49963	0	
0.6233	-9.25037	-5.49963	0	
0.6240	-8.63143	-3.06128	0	
0.6247	-7.41605	-1.53064	0	
0.6253	-3.75867	-0.907705	0	
0.6260	-2.22819	-1.83321	0	
0.6267	-1.92435	-3.66642	0	
0.6273	-1.31666	-3.36385	0	
0.6280	-2.83588	-0.907705	0	
0.6287	-4.6702	-0.907705	0	
0.6293	-3.44357	-1.22807	0	
0.6300	-2.53204	-0.302568	0	
0.6307	-2.22819	-0.907705	0	
0.6313	-2.53204	-1.83321	0	
0.6320	-2.83588	-1.22807	0	
0.6327	-2.83588	0.907705	0	
0.6333	-2.83588	2.43835	0	
0.6340	-4.97405	2.13578	0	
0.6347	-7.41605	0.907705	0	
0.6353	-8.02374	1.53064	0	
0.6360	-7.41605	3.04348	0	
0.6367	-6.18942	2.74091	0	
0.6373	-4.97405	2.74091	0	
0.6380	-6.18942	3.66642	0	
0.6387	-5.58173	3.04348	0	
0.6393	-1.92435	2.74091	0	
0.6400	-4.36636	2.74091	0	
0.6407	-15.9575	-1.22807	0	
0.6413	-25.4216	-5.19706	0	
0.6420	-22.3719	-3.06128	0	
0.6427	-13.2116	-1.53064	0	
0.6433	-8.32759	-4.27155	0	
0.6440	-7.11221	-3.36385	0	
0.6447	-5.88558	1.83321	0	
0.6453	-4.6702	1.83321	0	
0.6460	-3.44357	-1.83321	0	
0.6467	-0.697717	-0.907705	0	
0.6473	2.35198	2.13578	0	
0.6480	2.04814	0.907705	0	
0.6487	0.821505	-1.22807	0	
0.6493	-0.090028	0.302568	0	
0.6500	-1.92435	2.74091	0	
0.6507	-1.6205	2.43835	0	
0.6513	0.821505	0.907705	0	
0.6520	2.04814	-0.907705	0	
0.6527	2.04814	-2.74091	0	
0.6533	2.65582	-2.43835	0	
0.6540	3.26351	-0.302568	0	
0.6547	4.49014	2.13578	0	
0.6553	3.26351	4.87669	0	
0.6560	2.35198	5.49963	0	
0.6567	4.49014	2.13578	0	
0.6573	0.821505	-1.22807	0	
0.6580	-13.8193	-1.83321	0	
0.6587	-22.0681	-0.907705	0	
0.6593	-15.9575	0	0	
0.6600	-8.02374	-1.83321	0	
0.6607	-4.36636	-2.74091	0	
0.6613	-1.92435	0	0	
0.6620	-1.00156	1.53064	0	
0.6627	-0.393872	-0.302568	0	
0.6633	1.44045	-1.83321	0	
0.6640	1.74429	-2.74091	0	
0.6647	2.95967	-1.83321	0	
0.6653	5.40168	1.83321	0	
0.6660	4.79399	1.83321	0	
0.6667	4.49014	-0.907705	0	
0.6673	6.93215	-1.83321	0	
0.6680	7.53984	-3.36385	0	
0.6687	5.40168	-3.66642	0	
0.6693	5.40168	-2.13578	0	
0.6700	5.40168	-1.83321	0	
0.6707	2.65582	-2.74091	0	
0.6713	-0.393872	0	0	
0.6720	-0.090028	0.907705	0	
0.6727	2.65582	0.907705	0	
0.6733	2.04814	3.66642	0	
0.6740	-1.92435	2.74091	0	
0.6747	-3.75867	-3.06128	0	
0.6753	-1.31666	-3.36385	0	
0.6760	0.213816	0.907705	0	
0.6767	0.213816	1.83321	0	
0.6773	-0.090028	1.83321	0	
0.6780	-5.58173	2.74091	0	
0.6787	-12.6039	3.66642	0	
0.6793	-10.1619	4.57412	0	
0.6800	-3.75867	2.74091	0	
0.6807	-4.36636	0	0	
0.6813	-5.27789	-0.907705	0	
0.6820	-1.00156	-1.83321	0	
0.6827	3.26351	-1.83321	0	
0.6833	8.14753	0	0	
0.6840	12.7277	-0.302568	0	
0.6847	13.6392	-3.66642	0	
0.6853	17.004	-3.06128	0	
0.6860	17.3079	-1.22807	0	
0.6867	5.40168	-2.43835	0	
0.6873	-1.6205	-1.83321	0	
0.6880	9.05906	0	0	
0.6887	17.9156	-0.302568	0	
0.6893	14.562	-0.302568	0	
0.6900	12.7277	0.907705	0	
0.6907	17.6117	0.907705	0	
0.6913	17.3079	3.04348	0	
0.6920	12.4239	5.49963	0	
0.6927	17.3079	4.27155	0	
0.6933	26.7608	1.53064	0	
0.6940	13.3354	0.302568	0	
0.6947	-19.3223	0.302568	0	
0.6953	-32.4438	1.53064	0	
0.6960	-19.3223	2.74091	0	
0.6967	-5.58173	0.302568	0	
0.6973	1.12535	-2.43835	0	
0.6980	4.1863	-3.06128	0	
0.6987	1.12535	-3.36385	0	
0.6993	-1.00156	-3.06128	0	
0.7000	3.56736	-0.907705	0	
0.7007	2.95967	0.907705	0	
0.7013	-3.13973	0.302568	0	
0.7020	-2.22819	-1.22807	0	
0.7027	3.8712	-1.53064	0	
0.7033	5.40168	-0.302568	0	
0.7040	4.49014	0	0	
0.7047	5.40168	0	0	
0.7053	7.236	0.302568	0	
0.7060	8.14753	0	0	
0.7067	8.45138	-0.605137	0	
0.7073	9.05906	-0.907705	0	
0.7080	9.67801	-0.605137	0	
0.7087	9.67801	0.302568	0	
0.7093	7.84369	0.907705	0	
0.7100	6.62831	-1.53064	0	
0.7107	6.62831	-3.66642	0	
0.7113	4.1863	-0.907705	0	
0.7120	0.821505	2.43835	0	
0.7127	1.74429	2.43835	0	
0.7133	2.04814	2.74091	0	
0.7140	-3.44357	2.74091	0	
0.7147	-5.58173	0	0	
0.7153	-0.090028	-0.605137	0	
0.7160	0.517661	3.04348	0	
0.7167	-5.88558	4.87669	0	
0.7173	-6.18942	2.43835	0	
0.7180	-2.53204	1.83321	0	
0.7187	-3.75867	4.27155	0	
0.7193	-4.6702	3.96899	0	
0.7200	-1.92435	2.43835	0	
0.7207	-1.92435	2.13578	0	
0.7213	-1.6205	2.13578	0	
0.7220	1.44045	1.83321	0	
0.7227	-1.00156	1.83321	0	
0.7233	-5.27789	1.53064	0	
0.7240	-1.00156	1.53064	0	
0.7247	2.95967	2.74091	0	
0.7253	-1.00156	3.04348	0	
0.7260	-1.31666	-1.22807	0	
0.7267	4.49014	-6.40733	0	
0.7273	5.09783	-7.33283	0	
0.7280	2.65582	-6.10476	0	
0.7287	6.93215	-3.66642	0	
0.7293	10.5895	0.302568	0	
0.7300	5.40168	1.83321	0	
0.7307	-2.83588	0.907705	0	
0.7313	-3.75867	0	0	
0.7320	2.35198	-0.907705	0	
0.7327	4.49014	-2.43835	0	
0.7333	-1.6205	-1.83321	0	
0.7340	-9.25037	-0.605137	0	
0.7347	-11.3773	-0.907705	0	
0.7353	-10.1619	0.907705	0	
0.7360	-7.41605	4.57412	0	
0.7367	-6.50452	3.96899	0	
0.7373	-9.85806	1.53064	0	
0.7380	-11.0734	0	0	
0.7387	-5.88558	-0.907705	0	
0.7393	-1.6205	-1.83321	0	
0.7400	-1.00156	-0.302568	0	
0.7407	0.821505	1.83321	0	
0.7413	0.517661	1.22807	0	
0.7420	-6.80836	-1.53064	0	
0.7427	-13.8193	-1.22807	0	
0.7433	-12.9078	1.83321	0	
0.7440	-4.97405	0.907705	0	
0.7447	5.09783	-4.27155	0	
0.7453	9.67801	-6.40733	0	
0.7460	8.45138	-4.27155	0	
0.7467	10.5895	-2.43835	0	
0.7473	16.3851	-1.83321	0	
0.7480	17.3079	-0.907705	0	
0.7487	12.4239	0.302568	0	
0.7493	4.1863	0.907705	0	
0.7500	-0.090028	0.907705	0	
0.7507	3.56736	-2.13578	0	
0.7513	4.1863	-5.49963	0	
0.7520	-3.75867	-1.83321	0	
0.7527	-9.25037	2.74091	0	
0.7533	-11.0734	-3.36385	0	
0.7540	-18.0956	-11.284	0	
0.7547	-22.0681	-7.93797	0	
0.7553	-14.4382	-0.907705	0	
0.7560	-8.94653	0	0	
0.7567	-12.9078	0	0	
0.7573	-14.7421	-1.83321	0	
0.7580	-9.55422	-4.27155	0	
0.7587	-4.97405	-3.06128	0	
0.7593	-6.50452	0.302568	0	
0.7600	-8.63143	0.907705	0	
0.7607	-3.75867	0.605137	0	
0.7613	4.1863	0	0	
0.7620	7.236	-1.53064	0	
0.7627	5.09783	-2.74091	0	
0.7633	5.09783	-2.74091	0	
0.7640	7.236	-2.43835	0	
0.7647	7.84369	-0.302568	0	
0.7653	7.84369	0.907705	0	
0.7660	9.67801	-0.302568	0	
0.7667	10.8934	-0.907705	0	
0.7673	10.8934	-1.53064	0	
0.7680	11.1972	-2.13578	0	
0.7687	10.8934	-2.13578	0	
0.7693	8.14753	-1.83321	0	
0.7700	6.62831	-0.302568	0	
0.7707	5.70552	1.53064	0	
0.7713	2.65582	0.907705	0	
0.7720	1.44045	1.53064	0	
0.7727	1.44045	3.04348	0	
0.7733	0.213816	1.53064	0	
0.7740	0.821505	-0.907705	0	
0.7747	0.517661	-0.302568	0	
0.7753	-3.13973	0.302568	0	
0.7760	-1.92435	-0.907705	0	
0.7767	-0.697717	-1.83321	0	
0.7773	-7.7199	-1.83321	0	
0.7780	-7.41605	0	0	
0.7787	6.00937	3.36385	0	
0.7793	8.45138	4.57412	0	
0.7800	0.821505	2.74091	0	
0.7807	2.65582	0	0	
0.7813	7.53984	-1.53064	0	
0.7820	5.40168	-1.53064	0	
0.7827	6.00937	-0.907705	0	
0.7833	7.84369	-0.605137	0	
0.7840	2.65582	0.302568	0	
0.7847	-2.83588	1.83321	0	
0.7853	-2.83588	2.13578	0	
0.7860	3.56736	1.22807	0	
0.7867	13.0315	1.83321	0	
0.7873	15.4736	3.96899	0	
0.7880	13.6392	3.96899	0	
0.7887	15.1697	1.22807	0	
0.7893	13.6392	2.13578	0	
0.7900	12.12	6.10476	0	
0.7907	15.7774	3.66642	0	
0.7913	4.1863	-3.66642	0	
0.7920	-22.0681	-10.0737	0	
0.7927	-26.637	-10.9815	0	
0.7933	-11.3773	-7.33283	0	
0.7940	-9.25037	-4.57412	0	
0.7947	-14.1344	-7.33283	0	
0.7953	-8.94653	-7.33283	0	
0.7960	-4.06251	-1.83321	0	
0.7967	-5.88558	0	0	
0.7973	-6.50452	-0.605137	0	
0.7980	-6.50452	0.302568	0	
0.7987	-9.55422	0	0	
0.7993	-9.25037	-0.605137	0	
0.8000	-4.6702	1.53064	0	
0.8007	-2.53204	0.907705	0	
0.8013	-2.83588	-0.907705	0	
0.8020	-1.92435	0	0	
0.8027	-0.697717	0.907705	0	
0.8033	0.517661	0.907705	0	
0.8040	3.26351	-0.302568	0	
0.8047	5.40168	-2.74091	0	
0.8053	3.8712	-1.83321	0	
0.8060	2.95967	1.53064	0	
0.8067	3.56736	1.53064	0	
0.8073	2.65582	0	0	
0.8080	0.821505	0.907705	0	
0.8087	1.12535	0.907705	0	
0.8093	2.35198	-0.605137	0	
0.8100	3.56736	-1.53064	0	
0.8107	4.1863	-1.53064	0	
0.8113	2.04814	-0.605137	0	
0.8120	0.821505	0.302568	0	
0.8127	2.35198	-0.302568	0	
0.8133	1.74429	-2.43835	0	
0.8140	1.74429	-2.74091	0	
0.8147	2.65582	0.302568	0	
0.8153	-1.31666	2.74091	0	
0.8160	-6.50452	0.605137	0	
0.8167	-3.44357	-3.36385	0	
0.8173	-3.75867	-3.06128	0	
0.8180	-13.5154	-0.907705	0	
0.8187	-15.9575	0.605137	0	
0.8193	-7.41605	-0.302568	0	
0.8200	-1.00156	-2.74091	0	
0.8207	3.26351	-3.66642	0	
0.8213	6.62831	-2.74091	0	
0.8220	6.31321	-3.06128	0	
0.8227	6.31321	-2.74091	0	
0.8233	1.12535	0.907705	0	
0.8240	-17.4879	3.36385	0	
0.8247	-28.1675	2.43835	0	
0.8253	-15.3498	0.605137	0	
0.8260	-2.53204	-0.907705	0	
0.8267	-1.92435	-0.907705	0	
0.8273	-0.393872	2.13578	0	
0.8280	2.65582	0.907705	0	
0.8287	4.49014	-3.66642	0	
0.8293	8.75522	-3.66642	0	
0.8300	8.14753	-0.605137	0	
0.8307	1.74429	0	0	
0.8313	2.65582	-0.605137	0	
0.8320	7.236	-0.605137	0	
0.8327	2.65582	-0.907705	0	
0.8333	-4.06251	1.83321	0	
0.8340	-6.50452	5.49963	0	
0.8347	-7.41605	4.27155	0	
0.8353	-4.36636	1.83321	0	
0.8360	2.35198	2.13578	0	
0.8367	4.49014	1.22807	0	
0.8373	2.65582	-0.907705	0	
0.8380	0.821505	1.83321	0	
0.8387	2.04814	4.57412	0	
0.8393	4.49014	3.04348	0	
0.8400	6.31321	2.13578	0	
0.8407	7.236	1.53064	0	
0.8413	6.00937	-2.13578	0	
0.8420	-3.75867	-3.96899	0	
0.8427	-16.5651	-3.06128	0	
0.8433	-15.9575	-1.83321	0	
0.8440	-4.6702	-0.907705	0	
0.8447	-0.090028	-1.83321	0	
0.8453	-0.090028	-3.66642	0	
0.8460	2.35198	-1.83321	0	
0.8467	4.49014	0	0	
0.8473	3.56736	-1.22807	0	
0.8480	3.56736	0.907705	0	
0.8487	5.09783	5.49963	0	
0.8493	5.40168	1.83321	0	
0.8500	3.56736	-2.74091	0	
0.8507	2.04814	-1.53064	0	
0.8513	3.56736	0	0	
0.8520	3.56736	0	0	
0.8527	-0.393872	2.13578	0	
0.8533	-2.83588	2.74091	0	
0.8540	-1.92435	1.53064	0	
0.8547	-3.75867	0	0	
0.8553	-5.88558	-1.83321	0	
0.8560	-4.36636	-0.907705	0	
0.8567	-4.97405	0.907705	0	
0.8573	-8.32759	-0.907705	0	
0.8580	-6.50452	-1.83321	0	
0.8587	-4.06251	0.605137	0	
0.8593	-5.58173	1.22807	0	
0.8600	-3.13973	0.302568	0	
0.8607	2.35198	1.83321	0	
0.8613	0.821505	3.66642	0	
0.8620	-3.13973	3.04348	0	
0.8627	0.821505	1.83321	0	
0.8633	4.49014	1.83321	0	
0.8640	2.04814	1.83321	0	
0.8647	2.35198	0.907705	0	
0.8653	7.84369	-0.605137	0	
0.8660	8.14753	-2.43835	0	
0.8667	5.40168	0.302568	0	
0.8673	8.14753	4.27155	0	
0.8680	8.75522	0.907705	0	
0.8687	4.49014	-3.66642	0	
0.8693	3.56736	-0.907705	0	
0.8700	4.1863	0.907705	0	
0.8707	2.65582	-2.43835	0	
0.8713	2.35198	-0.605137	0	
0.8720	0.821505	1.83321	0	
0.8727	-1.31666	-1.53064	0	
0.8733	-2.83588	-0.907705	0	
0.8740	-9.55422	2.43835	0	
0.8747	-11.3773	2.43835	0	
0.8753	0.517661	4.57412	0	
0.8760	6.31321	6.10476	0	
0.8767	-1.6205	0.907705	0	
0.8773	-4.06251	-1.22807	0	
0.8780	-1.31666	2.43835	0	
0.8787	-3.75867	3.96899	0	
0.8793	-3.13973	3.96899	0	
0.8800	-0.090028	3.96899	0	
0.8807	-3.75867	1.53064	0	
0.8813	-6.18942	0.302568	0	
0.8820	-1.6205	1.83321	0	
0.8827	2.65582	0.907705	0	
0.8833	5.40168	0	0	
0.8840	5.40168	1.53064	0	
0.8847	4.1863	0.907705	0	
0.8853	6.62831	1.53064	0	
0.8860	10.5895	2.74091	0	
0.8867	9.05906	0.907705	0	
0.8873	6.62831	-1.83321	0	
0.8880	8.14753	-1.53064	0	
0.8887	10.5895	-1.22807	0	
0.8893	9.67801	-1.83321	0	
0.8900	7.53984	-4.87669	0	
0.8907	9.05906	-9.46861	0	
0.8913	9.98185	-9.77118	0	
0.8920	5.40168	-6.10476	0	
0.8927	-0.697717	-3.66642	0	
0.8933	-2.83588	-1.53064	0	
0.8940	-3.75867	-0.907705	0	
0.8947	-5.27789	-3.96899	0	
0.8953	-4.97405	-7.01247	0	
0.8960	-4.6702	-4.27155	0	
0.8967	-8.32759	0	0	
0.8973	-11.9962	1.53064	0	
0.8980	-10.1619	0	0	
0.8987	-6.50452	0	0	
0.8993	-6.50452	3.04348	0	
0.9000	-5.88558	3.66642	0	
0.9007	-2.83588	0.907705	0	
0.9013	-2.53204	-1.22807	0	
0.9020	-1.92435	-1.22807	0	
0.9027	5.40168	-0.605137	0	
0.9033	12.4239	-0.302568	0	
0.9040	12.7277	-1.53064	0	
0.9047	11.1972	-1.22807	0	
0.9053	10.2857	-0.302568	0	
0.9060	9.98185	-1.83321	0	
0.9067	8.14753	-3.06128	0	
0.9073	3.26351	-0.907705	0	
0.9080	0.213816	-0.907705	0	
0.9087	2.65582	-3.36385	0	
0.9093	3.8712	-3.06128	0	
0.9100	2.65582	0	0	
0.9107	1.74429	0.907705	0	
0.9113	1.12535	0.907705	0	
0.9120	0.213816	1.83321	0	
0.9127	1.44045	1.53064	0	
0.9133	1.74429	-0.302568	0	
0.9140	-2.83588	0.302568	0	
0.9147	-7.41605	2.74091	0	
0.9153	-8.32759	1.83321	0	
0.9160	-5.27789	-0.907705	0	
0.9167	-1.92435	-1.22807	0	
0.9173	-4.6702	-0.302568	0	
0.9180	-8.63143	0	0	
0.9187	-7.11221	1.83321	0	
0.9193	-6.50452	3.96899	0	
0.9200	-10.1619	3.66642	0	
0.9207	-10.7696	1.83321	0	
0.9213	-7.11221	2.74091	0	
0.9220	-8.32759	3.36385	0	
0.9227	-10.4658	0.907705	0	
0.9233	-7.11221	0.907705	0	
0.9240	-5.58173	3.04348	0	
0.9247	-5.88558	1.83321	0	
0.9253	0.821505	-1.83321	0	
0.9260	8.75522	-2.74091	0	
0.9267	7.236	-1.83321	0	
0.9273	1.74429	-0.605137	0	
0.9280	1.12535	2.43835	0	
0.9287	2.95967	1.53064	0	
0.9293	2.65582	-2.74091	0	
0.9300	1.74429	-2.13578	0	
0.9307	0.517661	0.302568	0	
0.9313	-0.697717	0	0	
0.9320	-1.92435	-0.605137	0	
0.9327	-2.83588	-1.22807	0	
0.9333	-3.13973	-3.06128	0	
0.9340	-4.6702	-2.74091	0	
0.9347	-5.58173	-0.907705	0	
0.9353	-4.06251	-1.22807	0	
0.9360	-2.83588	-0.302568	0	
0.9367	-5.27789	2.74091	0	
0.9373	-8.02374	3.36385	0	
0.9380	-6.50452	0.907705	0	
0.9387	-6.18942	0	0	
0.9393	-8.02374	0.302568	0	
0.9400	-8.63143	0.302568	0	
0.9407	-9.55422	0.302568	0	
0.9413	-10.1619	-0.907705	0	
0.9420	-8.32759	-0.907705	0	
0.9427	-5.88558	-0.302568	0	
0.9433	-3.75867	-0.605137	0	
0.9440	-0.090028	0	0	
0.9447	2.04814	1.83321	0	
0.9453	4.79399	0.302568	0	
0.9460	10.8934	-1.83321	0	
0.9467	15.4736	0	0	
0.9473	16.3851	0.605137	0	
0.9480	12.7277	-2.43835	0	
0.9487	6.93215	-0.302568	0	
0.9493	10.2857	4.87669	0	
0.9500	19.7499	4.87669	0	
0.9507	13.3354	4.27155	0	
0.9513	-6.50452	6.40733	0	
0.9520	-19.3223	3.96899	0	
0.9527	-23.8912	-2.74091	0	
0.9533	-21.1453	-5.49963	0	
0.9540	-8.63143	-3.96899	0	
0.9547	-1.92435	-2.43835	0	
0.9553	-8.32759	-0.302568	0	
0.9560	-11.0734	1.83321	0	
0.9567	-6.80836	1.83321	0	
0.9573	-5.58173	0.302568	0	
0.9580	-7.41605	0.907705	0	
0.9587	-6.80836	2.13578	0	
0.9593	-4.97405	0.907705	0	
0.9600	-4.6702	-0.605137	0	
0.9607	-4.06251	-0.302568	0	
0.9613	0.517661	0.907705	0	
0.9620	6.00937	3.04348	0	
0.9627	6.62831	4.57412	0	
0.9633	6.00937	4.57412	0	
0.9640	9.37416	3.66642	0	
0.9647	11.8162	2.74091	0	
0.9653	11.8162	0.302568	0	
0.9660	10.5895	-3.06128	0	
0.9667	5.40168	-3.66642	0	
0.9673	-1.92435	-0.907705	0	
0.9680	-2.83588	0.907705	0	
0.9687	2.65582	1.22807	0	
0.9693	6.00937	0.907705	0	
0.9700	6.62831	0.302568	0	
0.9707	6.62831	1.22807	0	
0.9713	2.35198	3.36385	0	
0.9720	-2.83588	3.04348	0	
0.9727	-2.83588	0	0	
0.9733	-1.6205	-2.74091	0	
0.9740	-3.44357	-5.49963	0	
0.9747	-4.6702	-6.7099	0	
0.9753	-4.36636	-3.96899	0	
0.9760	-3.44357	-2.43835	0	
0.9767	-0.697717	-2.13578	0	
0.9773	1.12535	1.53064	0	
0.9780	0.213816	2.74091	0	
0.9787	0.213816	-1.83321	0	
0.9793	0.213816	-3.36385	0	
0.9800	-3.13973	0	0	
0.9807	-5.27789	0.605137	0	
0.9813	-2.83588	-0.302568	0	
0.9820	-0.697717	-1.22807	0	
0.9827	0.517661	-3.06128	0	
0.9833	2.04814	-0.907705	0	
0.9840	2.35198	2.74091	0	
0.9847	2.35198	-0.302568	0	
0.9853	5.40168	-5.49963	0	
0.9860	9.05906	-4.57412	0	
0.9867	9.67801	-0.302568	0	
0.9873	8.75522	1.83321	0	
0.9880	7.236	-0.302568	0	
0.9887	5.09783	-3.06128	0	
0.9893	4.49014	-2.43835	0	
0.9900	4.49014	-0.907705	0	
0.9907	2.95967	-2.13578	0	
0.9913	0.821505	-2.74091	0	
0.9920	-0.090028	-0.907705	0	
0.9927	-1.6205	0.605137	0	
0.9933	-4.36636	0	0	
0.9940	-4.6702	-0.302568	0	
0.9947	-3.75867	-1.83321	0	
0.9953	-7.11221	-3.06128	0	
0.9960	-11.6924	-0.907705	0	
0.9967	-10.7696	0.907705	0	
0.9973	-7.11221	-0.907705	0	
0.9980	-6.50452	-1.22807	0	
0.9987	-8.02374	1.83321	0	
0.9993	-7.41605	1.53064	0	
1.0000	-6.80836	-1.22807	0	
1.0007	-6.80836	1.22807	0	
1.0013	-6.50452	4.57412	0	
1.0020	-6.50452	1.53064	0	
1.0027	-6.50452	0	0	
1.0033	-4.6702	2.74091	0	
1.0040	-3.13973	2.13578	0	
1.0047	-2.83588	-1.22807	0	
1.0053	-1.92435	-3.06128	0	
1.0060	2.65582	-5.19706	0	
1.0067	6.93215	-6.40733	0	
1.0073	7.53984	-4.87669	0	
1.0080	5.40168	-3.96899	0	
1.0087	4.49014	-3.06128	0	
1.0093	3.26351	-0.302568	0	
1.0100	2.35198	-1.53064	0	
1.0107	2.65582	-4.27155	0	
1.0113	1.74429	-2.74091	0	
1.0120	-2.22819	-1.83321	0	
1.0127	-0.697717	-3.96899	0	
1.0133	3.8712	-2.43835	0	
1.0140	2.65582	1.22807	0	
1.0147	-1.6205	-0.302568	0	
1.0153	-3.75867	-2.13578	0	
1.0160	-6.18942	0	0	
1.0167	-8.02374	1.83321	0	
1.0173	-6.50452	2.74091	0	
1.0180	-4.97405	3.66642	0	
1.0187	-5.58173	4.27155	0	
1.0193	-3.44357	2.43835	0	
1.0200	0.821505	-1.22807	0	
1.0207	2.65582	-5.19706	0	
1.0213	3.26351	-6.40733	0	
1.0220	5.40168	-5.49963	0	
1.0227	6.00937	-2.74091	0	
1.0233	5.09783	-0.907705	0	
1.0240	6.31321	-1.22807	0	
1.0247	7.236	-1.83321	0	
1.0253	6.00937	0	0	
1.0260	9.05906	0.907705	0	
1.0267	13.3354	0.302568	0	
1.0273	12.4239	0	0	
1.0280	13.3354	-0.907705	0	
1.0287	17.9156	-0.907705	0	
1.0293	14.8659	1.53064	0	
1.0300	5.09783	2.74091	0	
1.0307	-0.393872	1.22807	0	
1.0313	-3.13973	1.83321	0	
1.0320	-6.50452	2.74091	0	
1.0327	-7.41605	2.74091	0	
1.0333	-5.58173	4.27155	0	
1.0340	-5.58173	6.40733	0	
1.0347	-6.50452	5.17926	0	
1.0353	-6.50452	2.13578	0	
1.0360	-7.41605	2.13578	0	
1.0367	-11.9962	3.36385	0	
1.0373	-15.6536	2.13578	0	
1.0380	-12.9078	-1.22807	0	
1.0387	-6.18942	-4.57412	0	
1.0393	-2.83588	-3.66642	0	
1.0400	1.44045	0.907705	0	
1.0407	11.5011	2.74091	0	
1.0413	15.1697	0.907705	0	
1.0420	6.31321	0	0	
1.0427	-1.6205	0	0	
1.0433	0.821505	-0.907705	0	
1.0440	8.45138	0.302568	0	
1.0447	14.8659	2.74091	0	
1.0453	16.3851	2.74091	0	
1.0460	13.6392	0.907705	0	
1.0467	11.1972	1.22807	0	
1.0473	10.8934	0.907705	0	
1.0480	9.98185	-1.83321	0	
1.0487	7.236	-2.74091	0	
1.0493	7.53984	0	0	
1.0500	10.2857	1.83321	0	
1.0507	9.37416	0.907705	0	
1.0513	6.31321	1.22807	0	
1.0520	3.26351	3.36385	0	
1.0527	0.821505	2.74091	0	
1.0533	0.821505	0.907705	0	
1.0540	2.65582	0.302568	0	
1.0547	1.12535	0.605137	0	
1.0553	-2.83588	1.22807	0	
1.0560	-4.6702	2.13578	0	
1.0567	-4.06251	1.83321	0	
1.0573	-1.31666	0.605137	0	
1.0580	-0.090028	1.53064	0	
1.0587	-2.83588	3.66642	0	
1.0593	-3.75867	3.36385	0	
1.0600	0.517661	-0.605137	0	
1.0607	2.04814	-5.49963	0	
1.0613	-0.090028	-6.7099	0	
1.0620	2.04814	-4.57412	0	
1.0627	5.70552	-3.06128	0	
1.0633	5.40168	-1.22807	0	
1.0640	1.44045	0.605137	0	
1.0647	-4.06251	-1.53064	0	
1.0653	-6.50452	-5.19706	0	
1.0660	-0.697717	-4.57412	0	
1.0667	6.31321	-2.43835	0	
1.0673	8.14753	-2.13578	0	
1.0680	7.53984	-1.53064	0	
1.0687	6.62831	-0.907705	0	
1.0693	5.09783	-2.43835	0	
1.0700	3.56736	-3.66642	0	
1.0707	2.04814	-2.43835	0	
1.0713	0.821505	-1.53064	0	
1.0720	1.74429	-1.53064	0	
1.0727	-0.393872	0	0	
1.0733	-5.27789	1.83321	0	
1.0740	-6.50452	1.83321	0	
1.0747	-5.58173	0.605137	0	
1.0753	-8.32759	-2.13578	0	
1.0760	-10.1619	-2.74091	0	
1.0767	-8.94653	-0.907705	0	
1.0773	-8.94653	0	0	
1.0780	-8.32759	0.302568	0	
1.0787	-6.80836	2.74091	0	
1.0793	-6.50452	3.96899	0	
1.0800	-6.80836	3.96899	0	
1.0807	-3.44357	2.43835	0	
1.0813	0.213816	-0.907705	0	
1.0820	-0.393872	-2.43835	0	
1.0827	-2.83588	0	0	
1.0833	-1.92435	1.22807	0	
1.0840	0.517661	0	0	
1.0847	1.12535	0.605137	0	
1.0853	1.74429	1.83321	0	
1.0860	2.65582	0.302568	0	
1.0867	2.65582	-1.83321	0	
1.0873	0.821505	-1.83321	0	
1.0880	-0.090028	0.605137	0	
1.0887	-1.6205	2.74091	0	
1.0893	-4.36636	4.57412	0	
1.0900	-4.97405	4.87669	0	
1.0907	-3.75867	4.57412	0	
1.0913	-4.36636	4.27155	0	
1.0920	-5.88558	5.17926	0	
1.0927	-5.58173	6.40733	0	
1.0933	-4.36636	5.17926	0	
1.0940	-1.92435	0.907705	0	
1.0947	2.95967	-2.43835	0	
1.0953	7.236	-3.66642	0	
1.0960	5.40168	-5.49963	0	
1.0967	-4.6702	-3.96899	0	
1.0973	-15.6536	0.605137	0	
1.0980	-16.5651	0.605137	0	
1.0987	-11.0734	-2.43835	0	
1.0993	-11.9962	-0.302568	0	
1.1000	-16.5651	2.74091	0	
1.1007	-14.1344	1.83321	0	
1.1013	-8.32759	0.302568	0	
1.1020	-4.97405	-1.83321	0	
1.1027	-1.00156	-3.66642	0	
1.1033	3.26351	-1.83321	0	
1.1040	2.65582	0.605137	0	
1.1047	-0.697717	0	0	
1.1053	-3.13973	-1.83321	0	
1.1060	-4.06251	-3.06128	0	
1.1067	-4.6702	-3.66642	0	
1.1073	-3.75867	-2.74091	0	
1.1080	-1.00156	-1.83321	0	
1.1087	1.12535	-2.13578	0	
1.1093	0.517661	-2.43835	0	
1.1100	-1.92435	-2.13578	0	
1.1107	-4.06251	-2.43835	0	
1.1113	-2.83588	-0.907705	0	
1.1120	0.821505	1.83321	0	
1.1127	1.74429	1.83321	0	
1.1133	-1.92435	1.22807	0	
1.1140	-5.58173	0.907705	0	
1.1147	-4.6702	-1.22807	0	
1.1153	-1.00156	-3.66642	0	
1.1160	1.12535	-3.66642	0	
1.1167	1.44045	-3.66642	0	
1.1173	0.821505	-3.36385	0	
1.1180	0.821505	-1.83321	0	
1.1187	-0.090028	-2.43835	0	
1.1193	-1.00156	-4.57412	0	
1.1200	0.517661	-4.57412	0	
1.1207	2.04814	-1.83321	0	
1.1213	1.74429	1.22807	0	
1.1220	0.821505	1.83321	0	
1.1227	1.12535	0	0	
1.1233	2.35198	-0.907705	0	
1.1240	5.70552	-0.605137	0	
1.1247	7.53984	-1.53064	0	
1.1253	5.40168	-2.74091	0	
1.1260	4.79399	-1.22807	0	
1.1267	9.05906	-0.302568	0	
1.1273	9.05906	-2.13578	0	
1.1280	4.49014	-1.22807	0	
1.1287	2.35198	1.53064	0	
1.1293	2.35198	-0.907705	0	
1.1300	4.1863	-3.66642	0	
1.1307	4.79399	-3.36385	0	
1.1313	0.517661	-3.66642	0	
1.1320	-0.393872	-2.74091	0	
1.1327	7.84369	1.83321	0	
1.1333	11.1972	3.66642	0	
1.1340	4.1863	2.74091	0	
1.1347	0.821505	4.27155	0	
1.1353	1.74429	4.87669	0	
1.1360	0.213816	2.74091	0	
1.1367	-1.92435	3.96899	0	
1.1373	-1.92435	5.17926	0	
1.1380	-2.83588	0.907705	0	
1.1387	-2.53204	-0.302568	0	
1.1393	-0.393872	3.66642	0	
1.1400	1.74429	3.04348	0	
1.1407	2.35198	-1.83321	0	
1.1413	1.74429	-2.74091	0	
1.1420	1.74429	-1.83321	0	
1.1427	1.74429	-1.83321	0	
1.1433	0.821505	-1.83321	0	
1.1440	1.12535	-1.83321	0	
1.1447	2.95967	-1.83321	0	
1.1453	3.8712	-0.302568	0	
1.1460	3.8712	0	0	
1.1467	0.517661	0.605137	0	
1.1473	-4.06251	1.22807	0	
1.1480	1.44045	0	0	
1.1487	11.1972	0	0	
1.1493	9.98185	1.83321	0	
1.1500	2.65582	1.83321	0	
1.1507	2.65582	1.83321	0	
1.1513	5.09783	4.57412	0	
1.1520	3.8712	3.04348	0	
1.1527	1.74429	0	0	
1.1533	-1.31666	1.53064	0	
1.1540	-4.6702	2.74091	0	
1.1547	-3.75867	0.605137	0	
1.1553	-2.22819	-1.83321	0	
1.1560	-4.6702	-5.49963	0	
1.1567	-5.58173	-8.84568	0	
1.1573	-2.83588	-6.7099	0	
1.1580	-2.53204	-4.57412	0	
1.1587	-4.06251	-5.19706	0	
1.1593	-1.92435	-4.57412	0	
1.1600	1.44045	-2.74091	0	
1.1607	0.213816	-1.53064	0	
1.1613	-1.92435	-1.53064	0	
1.1620	-1.00156	-2.43835	0	
1.1627	-0.697717	-2.74091	0	
1.1633	-2.22819	-2.43835	0	
1.1640	-2.22819	-3.36385	0	
1.1647	1.12535	-3.66642	0	
1.1653	4.49014	-2.43835	0	
1.1660	5.40168	-1.53064	0	
1.1667	6.31321	-0.605137	0	
1.1673	7.236	-0.605137	0	
1.1680	6.62831	-1.53064	0	
1.1687	6.31321	-0.907705	0	
1.1693	6.93215	2.13578	0	
1.1700	7.236	4.27155	0	
1.1707	7.84369	3.96899	0	
1.1713	7.84369	3.36385	0	
1.1720	5.70552	2.74091	0	
1.1727	5.70552	0.605137	0	
1.1733	6.00937	-1.83321	0	
1.1740	-1.00156	-0.907705	0	
1.1747	-12.6039	1.22807	0	
1.1753	-14.7421	0.302568	0	
1.1760	-6.18942	-0.907705	0	
1.1767	1.44045	-1.83321	0	
1.1773	-0.090028	-2.13578	0	
1.1780	-5.27789	1.22807	0	
1.1787	-6.50452	3.96899	0	
1.1793	-5.88558	1.22807	0	
1.1800	-8.02374	0	0	
1.1807	-8.02374	2.43835	0	
1.1813	-6.50452	1.83321	0	
1.1820	-11.6924	1.53064	0	
1.1827	-16.2613	2.74091	0	
1.1833	-10.1619	-0.302568	0	
1.1840	-1.92435	-3.66642	0	
1.1847	-0.697717	-3.06128	0	
1.1853	0.517661	-2.74091	0	
1.1860	3.26351	-1.83321	0	
1.1867	2.65582	0.605137	0	
1.1873	-1.31666	1.53064	0	
1.1880	-3.44357	2.74091	0	
1.1887	-2.83588	3.66642	0	
1.1893	-1.00156	0.907705	0	
1.1900	0.821505	0.907705	0	
1.1907	2.65582	4.87669	0	
1.1913	2.04814	3.04348	0	
1.1920	0.821505	-1.53064	0	
1.1927	3.26351	-0.302568	0	
1.1933	4.79399	0.605137	0	
1.1940	2.65582	-1.83321	0	
1.1947	-0.090028	-1.83321	0	
1.1953	-9.55422	-1.22807	0	
1.1960	-22.9796	-3.36385	0	
1.1967	-23.5873	-3.96899	0	
1.1973	-11.9962	-3.66642	0	
1.1980	-5.58173	-1.22807	0	
1.1987	-5.27789	2.74091	0	
1.1993	-3.44357	2.74091	0	
1.2000	-1.6205	-1.83321	0	
1.2007	-2.83588	-1.83321	0	
1.2013	-4.06251	1.53064	0	
1.2020	-1.92435	0.907705	0	
1.2027	0.821505	-0.605137	0	
1.2033	-1.00156	-1.22807	0	
1.2040	-6.80836	-2.74091	0	
1.2047	-10.1619	-3.36385	0	
1.2053	-5.27789	-3.36385	0	
1.2060	5.40168	-1.83321	0	
1.2067	12.12	2.43835	0	
1.2073	9.05906	5.17926	0	
1.2080	4.79399	3.04348	0	
1.2087	3.56736	2.43835	0	
1.2093	1.44045	3.66642	0	
1.2100	-0.090028	2.74091	0	
1.2107	0.821505	1.22807	0	
1.2113	2.04814	-0.605137	0	
1.2120	3.56736	-1.83321	0	
1.2127	4.49014	0.907705	0	
1.2133	2.65582	2.74091	0	
1.2140	3.56736	0	0	
1.2147	3.56736	0.302568	0	
1.2153	-1.31666	4.57412	0	
1.2160	-2.22819	4.27155	0	
1.2167	2.35198	0.907705	0	
1.2173	1.74429	0.907705	0	
1.2180	-0.393872	1.53064	0	
1.2187	1.12535	1.53064	0	
1.2193	-0.697717	2.43835	0	
1.2200	-4.06251	3.66642	0	
1.2207	-2.83588	3.66642	0	
1.2213	-2.83588	2.74091	0	
1.2220	-4.6702	1.53064	0	
1.2227	-1.92435	0	0	
1.2233	1.44045	-0.302568	0	
1.2240	0.517661	0	0	
1.2247	2.35198	0.302568	0	
1.2253	7.236	0	0	
1.2260	9.67801	-0.302568	0	
1.2267	9.98185	-1.83321	0	
1.2273	9.05906	-3.66642	0	
1.2280	8.14753	-4.87669	0	
1.2287	6.00937	-6.40733	0	
1.2293	5.09783	-5.49963	0	
1.2300	7.53984	-1.22807	0	
1.2307	9.98185	-0.907705	0	
1.2313	7.236	-4.27155	0	
1.2320	3.8712	-3.66642	0	
1.2327	3.56736	-1.53064	0	
1.2333	1.74429	-1.83321	0	
1.2340	-1.6205	-0.907705	0	
1.2347	-2.53204	-0.302568	0	
1.2353	-3.75867	-2.74091	0	
1.2360	-5.58173	-2.74091	0	
1.2367	-3.13973	1.22807	0	
1.2373	-0.697717	3.36385	0	
1.2380	-2.53204	2.74091	0	
1.2387	-5.58173	1.83321	0	
1.2393	-5.58173	-0.907705	0	
1.2400	-1.92435	-1.83321	0	
1.2407	2.65582	-1.83321	0	
1.2413	4.1863	-3.66642	0	
1.2420	3.8712	-3.66642	0	
1.2427	6.31321	1.22807	0	
1.2433	8.14753	1.83321	0	
1.2440	7.53984	-2.13578	0	
1.2447	9.05906	-3.96899	0	
1.2453	11.1972	-5.49963	0	
1.2460	8.45138	-5.49963	0	
1.2467	0.821505	-2.43835	0	
1.2473	-2.53204	-3.36385	0	
1.2480	1.44045	-8.54311	0	
1.2487	2.65582	-9.14825	0	
1.2493	-0.393872	-5.19706	0	
1.2500	-0.090028	-1.83321	0	
1.2507	0.213816	-0.605137	0	
1.2513	-3.44357	-3.36385	0	
1.2520	-2.83588	-5.49963	0	
1.2527	0.821505	-2.43835	0	
1.2533	-2.83588	0	0	
1.2540	-6.80836	-0.302568	0	
1.2547	-3.13973	1.22807	0	
1.2553	-2.22819	2.74091	0	
1.2560	-7.41605	2.43835	0	
1.2567	-10.7696	2.43835	0	
1.2573	-10.1619	1.53064	0	
1.2580	-10.1619	0	0	
1.2587	-8.63143	0	0	
1.2593	-6.18942	-3.06128	0	
1.2600	-4.97405	-8.24054	0	
1.2607	-4.06251	-8.24054	0	
1.2613	-2.53204	-3.96899	0	
1.2620	-1.92435	-1.22807	0	
1.2627	-2.53204	-0.907705	0	
1.2633	-4.06251	-0.302568	0	
1.2640	-6.18942	0.302568	0	
1.2647	-3.75867	-1.83321	0	
1.2653	2.35198	-3.96899	0	
1.2660	3.56736	-3.06128	0	
1.2667	3.8712	-1.53064	0	
1.2673	8.14753	-1.53064	0	
1.2680	9.98185	-1.53064	0	
1.2687	6.00937	-1.22807	0	
1.2693	-0.090028	0.907705	0	
1.2700	-7.11221	5.17926	0	
1.2707	-11.0734	3.66642	0	
1.2713	-9.25037	-0.605137	0	
1.2720	-7.41605	0	0	
1.2727	-8.32759	1.53064	0	
1.2733	-3.44357	0.302568	0	
1.2740	1.74429	0.907705	0	
1.2747	-0.697717	2.13578	0	
1.2753	-2.53204	0.907705	0	
1.2760	-0.697717	0.907705	0	
1.2767	-0.697717	0.907705	0	
1.2773	-0.090028	0.907705	0	
1.2780	-1.92435	3.66642	0	
1.2787	-12.9078	4.87669	0	
1.2793	-19.9299	1.83321	0	
1.2800	-12.3001	0.907705	0	
1.2807	-5.58173	3.36385	0	
1.2813	-7.7199	2.13578	0	
1.2820	-5.88558	-0.302568	0	
1.2827	-0.697717	0.907705	0	
1.2833	0.213816	2.43835	0	
1.2840	1.12535	0.907705	0	
1.2847	3.56736	-0.302568	0	
1.2853	4.49014	-1.53064	0	
1.2860	4.79399	-1.83321	0	
1.2867	4.49014	-0.302568	0	
1.2873	3.8712	-0.907705	0	
1.2880	5.40168	-1.83321	0	
1.2887	5.40168	0.907705	0	
1.2893	3.56736	1.22807	0	
1.2900	5.40168	-0.907705	0	
1.2907	8.45138	1.83321	0	
1.2913	8.75522	5.17926	0	
1.2920	8.75522	4.27155	0	
1.2927	7.236	2.43835	0	
1.2933	5.09783	0.907705	0	
1.2940	5.40168	0	0	
1.2947	-0.393872	1.83321	0	
1.2953	-13.8193	2.74091	0	
1.2960	-17.4879	-0.907705	0	
1.2967	-11.9962	-2.13578	0	
1.2973	-10.1619	0.605137	0	
1.2980	-10.1619	0.907705	0	
1.2987	-7.41605	0	0	
1.2993	-6.50452	1.22807	0	
1.3000	-7.7199	0.605137	0	
1.3007	-6.18942	-1.83321	0	
1.3013	-0.697717	-0.907705	0	
1.3020	4.1863	0.605137	0	
1.3027	3.8712	0.907705	0	
1.3033	-0.090028	3.36385	0	
1.3040	-1.00156	4.57412	0	
1.3047	3.8712	0	0	
1.3053	8.45138	-2.74091	0	
1.3060	7.84369	-0.907705	0	
1.3067	8.75522	-2.13578	0	
1.3073	13.6392	-3.06128	0	
1.3080	14.2469	0	0	
1.3087	10.8934	-0.302568	0	
1.3093	10.8934	-2.74091	0	
1.3100	8.75522	-0.907705	0	
1.3107	4.49014	1.53064	0	
1.3113	6.62831	1.53064	0	
1.3120	9.67801	2.13578	0	
1.3127	8.75522	2.43835	0	
1.3133	5.70552	0	0	
1.3140	-3.44357	-2.43835	0	
1.3147	-15.3498	-0.907705	0	
1.3153	-14.1344	1.83321	0	
1.3160	-4.6702	0.605137	0	
1.3167	-0.090028	-2.13578	0	
1.3173	-1.00156	0	0	
1.3180	-4.06251	2.74091	0	
1.3187	-6.80836	1.53064	0	
1.3193	-6.80836	0.302568	0	
1.3200	-5.27789	0	0	
1.3207	-1.00156	-2.43835	0	
1.3213	4.49014	-2.74091	0	
1.3220	4.79399	0.605137	0	
1.3227	2.65582	0.302568	0	
1.3233	5.40168	-1.83321	0	
1.3240	9.05906	0	0	
1.3247	7.53984	3.36385	0	
1.3253	7.53984	1.83321	0	
1.3260	9.05906	-1.83321	0	
1.3267	9.05906	-2.74091	0	
1.3273	9.67801	-2.13578	0	
1.3280	10.5895	-2.13578	0	
1.3287	9.98185	-0.302568	0	
1.3293	7.236	1.22807	0	
1.3300	4.1863	0.302568	0	
1.3307	2.04814	-0.907705	0	
1.3313	1.74429	-0.605137	0	
1.3320	1.44045	0	0	
1.3327	2.65582	-0.605137	0	
1.3333	6.93215	-1.83321	0	
1.3340	5.40168	-0.907705	0	
1.3347	-2.22819	2.74091	0	
1.3353	-4.6702	3.66642	0	
1.3360	-1.31666	1.83321	0	
1.3367	-2.22819	2.43835	0	
1.3373	-4.36636	3.96899	0	
1.3380	-2.83588	2.74091	0	
1.3387	-3.75867	1.83321	0	
1.3393	-5.58173	0.605137	0	
1.3400	-4.06251	-2.74091	0	
1.3407	-2.83588	-4.27155	0	
1.3413	-3.13973	-3.36385	0	
1.3420	-2.83588	-2.74091	0	
1.3427	-3.44357	-1.22807	0	
1.3433	-2.22819	0.907705	0	
1.3440	4.1863	0.907705	0	
1.3447	8.14753	0.907705	0	
1.3453	7.236	0	0	
1.3460	6.31321	-3.66642	0	
1.3467	4.79399	-3.06128	0	
1.3473	1.74429	0.907705	0	
1.3480	2.04814	-1.83321	0	
1.3487	4.49014	-6.40733	0	
1.3493	3.56736	-6.40733	0	
1.3500	1.74429	-5.49963	0	
1.3507	3.56736	-2.74091	0	
1.3513	4.79399	1.53064	0	
1.3520	1.12535	1.22807	0	
1.3527	-1.92435	0	0	
1.3533	-1.31666	2.74091	0	
1.3540	-2.53204	2.13578	0	
1.3547	-3.75867	0.907705	0	
1.3553	-2.83588	2.74091	0	
1.3560	-4.97405	2.74091	0	
1.3567	-8.94653	0.907705	0	
1.3573	-7.7199	2.43835	0	
1.3580	-6.80836	3.96899	0	
1.3587	-7.41605	3.36385	0	
1.3593	-4.6702	1.53064	0	
1.3600	-2.53204	-1.83321	0	
1.3607	-6.80836	-3.66642	0	
1.3613	-9.55422	-2.74091	0	
1.3620	-5.88558	-2.74091	0	
1.3627	-0.393872	-3.36385	0	
1.3633	3.56736	-0.605137	0	
1.3640	6.00937	3.66642	0	
1.3647	6.31321	3.36385	0	
1.3653	7.236	0.605137	0	
1.3660	7.84369	0.302568	0	
1.3667	6.00937	1.83321	0	
1.3673	2.35198	2.74091	0	
1.3680	-1.31666	2.74091	0	
1.3687	-3.13973	0.907705	0	
1.3693	-1.6205	-3.06128	0	
1.3700	-0.090028	-3.66642	0	
1.3707	-1.6205	-0.907705	0	
1.3713	-2.83588	0.302568	0	
1.3720	-3.13973	1.22807	0	
1.3727	-4.6702	2.74091	0	
1.3733	-5.27789	1.22807	0	
1.3740	-3.13973	0	0	
1.3747	-2.83588	0.907705	0	
1.3753	-7.41605	1.22807	0	
1.3760	-11.0734	2.74091	0	
1.3767	-8.32759	5.49963	0	
1.3773	-5.27789	3.66642	0	
1.3780	-5.27789	0.907705	0	
1.3787	-4.6702	1.83321	0	
1.3793	-3.75867	1.83321	0	
1.3800	-2.53204	-1.83321	0	
1.3807	0.213816	-3.06128	0	
1.3813	0.821505	-0.605137	0	
1.3820	-2.83588	0.907705	0	
1.3827	-4.06251	-0.907705	0	
1.3833	-1.00156	-1.53064	0	
1.3840	0.821505	0.605137	0	
1.3847	2.65582	0	0	
1.3853	5.40168	-2.74091	0	
1.3860	5.09783	-2.43835	0	
1.3867	4.49014	-0.907705	0	
1.3873	5.40168	-1.53064	0	
1.3880	6.00937	-0.907705	0	
1.3887	5.40168	-1.83321	0	
1.3893	4.49014	-3.66642	0	
1.3900	2.95967	-2.13578	0	
1.3907	2.95967	1.53064	0	
1.3913	2.65582	0	0	
1.3920	1.74429	-1.83321	0	
1.3927	5.40168	-1.22807	0	
1.3933	7.236	-0.907705	0	
1.3940	-0.697717	0	0	
1.3947	-11.0734	3.66642	0	
1.3953	-13.2116	3.36385	0	
1.3960	-12.6039	-0.605137	0	
1.3967	-13.2116	-1.22807	0	
1.3973	-10.4658	0.907705	0	
1.3980	-7.11221	0.605137	0	
1.3987	-8.63143	-0.302568	0	
1.3993	-10.1619	1.22807	0	
1.4000	-6.80836	2.43835	0	
1.4007	-3.75867	1.22807	0	
1.4013	-1.31666	0.302568	0	
1.4020	2.65582	-1.53064	0	
1.4027	4.49014	-4.87669	0	
1.4033	3.56736	-5.19706	0	
1.4040	4.49014	-2.43835	0	
1.4047	6.62831	-3.96899	0	
1.4053	7.236	-7.33283	0	
1.4060	8.75522	-3.66642	0	
1.4067	10.8934	-0.907705	0	
1.4073	10.2857	-3.06128	0	
1.4080	6.93215	-2.74091	0	
1.4087	5.09783	-0.907705	0	
1.4093	6.31321	-3.66642	0	
1.4100	8.14753	-4.57412	0	
1.4107	8.14753	-2.43835	0	
1.4113	6.31321	-3.66642	0	
1.4120	3.26351	-5.49963	0	
1.4127	2.35198	-4.57412	0	
1.4133	1.74429	-2.43835	0	
1.4140	-2.53204	-0.907705	0	
1.4147	-6.80836	-0.605137	0	
1.4153	-5.27789	1.83321	0	
1.4160	-1.92435	6.7099	0	
1.4167	-1.92435	7.6354	0	
1.4173	-4.06251	3.04348	0	
1.4180	-7.11221	0.907705	0	
1.4187	-8.63143	2.13578	0	
1.4193	-5.88558	1.83321	0	
1.4200	-1.92435	2.43835	0	
1.4207	0.821505	3.66642	0	
1.4213	2.65582	0	0	
1.4220	2.95967	-2.43835	0	
1.4227	3.26351	2.13578	0	
1.4233	2.65582	5.17926	0	
1.4240	1.74429	1.22807	0	
1.4247	4.49014	0	0	
1.4253	11.5011	3.04348	0	
1.4260	15.4736	0.907705	0	
1.4267	12.7277	-1.83321	0	
1.4273	4.49014	-1.22807	0	
1.4280	-4.6702	-4.57412	0	
1.4287	-6.50452	-9.14825	0	
1.4293	-1.31666	-5.80219	0	
1.4300	-0.090028	-1.83321	0	
1.4307	-2.83588	-0.907705	0	
1.4313	-1.92435	0.605137	0	
1.4320	2.65582	0.302568	0	
1.4327	4.49014	-1.83321	0	
1.4333	2.35198	0	0	
1.4340	-1.00156	2.43835	0	
1.4347	-4.6702	0.302568	0	
1.4353	-8.32759	-0.907705	0	
1.4360	-8.02374	1.22807	0	
1.4367	-5.58173	1.53064	0	
1.4373	-7.41605	0.302568	0	
1.4380	-9.25037	2.13578	0	
1.4387	-7.11221	3.36385	0	
1.4393	-6.80836	0.907705	0	
1.4400	-7.41605	-0.302568	0	
1.4407	-1.92435	1.53064	0	
1.4413	3.8712	2.43835	0	
1.4420	2.95967	2.43835	0	
1.4427	1.74429	1.83321	0	
1.4433	2.65582	-0.907705	0	
1.4440	4.49014	-1.22807	0	
1.4447	6.00937	1.83321	0	
1.4453	6.93215	3.36385	0	
1.4460	6.93215	1.83321	0	
1.4467	6.00937	-0.907705	0	
1.4473	6.00937	-3.96899	0	
1.4480	7.236	-3.96899	0	
1.4487	8.14753	0	0	
1.4493	7.236	2.43835	0	
1.4500	6.00937	2.13578	0	
1.4507	6.62831	2.43835	0	
1.4513	6.62831	2.43835	0	
1.4520	1.44045	1.53064	0	
1.4527	-5.88558	1.22807	0	
1.4533	-7.11221	0.907705	0	
1.4540	-4.6702	-1.22807	0	
1.4547	-5.58173	-1.83321	0	
1.4553	-7.7199	0	0	
1.4560	-9.55422	0.907705	0	
1.4567	-9.85806	1.83321	0	
1.4573	-5.27789	3.66642	0	
1.4580	-2.22819	2.43835	0	
1.4587	-6.18942	0	0	
1.4593	-11.6924	1.22807	0	
1.4600	-15.0459	1.83321	0	
1.4607	-18.3995	0.907705	0	
1.4613	-15.9575	1.83321	0	
1.4620	-7.41605	1.22807	0	
1.4627	-1.6205	0	0	
1.4633	1.74429	0.605137	0	
1.4640	9.98185	-0.605137	0	
1.4647	15.7774	-3.06128	0	
1.4653	10.8934	-1.83321	0	
1.4660	2.95967	-0.302568	0	
1.4667	-0.090028	-0.907705	0	
1.4673	-0.393872	-1.83321	0	
1.4680	1.44045	-0.907705	0	
1.4687	4.79399	0	0	
1.4693	3.8712	1.22807	0	
1.4700	-2.83588	0.907705	0	
1.4707	-6.50452	-0.907705	0	
1.4713	-4.06251	-1.53064	0	
1.4720	-2.22819	-0.907705	0	
1.4727	-2.53204	-1.22807	0	
1.4733	-2.22819	-2.74091	0	
1.4740	-1.6205	-2.13578	0	
1.4747	-1.31666	0.605137	0	
1.4753	-1.6205	1.53064	0	
1.4760	-2.83588	-1.83321	0	
1.4767	-4.6702	-3.66642	0	
1.4773	-4.97405	-0.907705	0	
1.4780	-3.44357	0.907705	0	
1.4787	-3.75867	-0.907705	0	
1.4793	-5.58173	-0.302568	0	
1.4800	-5.88558	2.13578	0	
1.4807	-7.41605	0	0	
1.4813	-6.50452	-2.74091	0	
1.4820	3.8712	0.302568	0	
1.4827	12.12	4.27155	0	
1.4833	6.93215	3.66642	0	
1.4840	0.821505	1.83321	0	
1.4847	1.44045	-0.605137	0	
1.4853	2.65582	-2.74091	0	
1.4860	3.26351	-1.83321	0	
1.4867	5.70552	0	0	
1.4873	6.00937	-0.302568	0	
1.4880	3.8712	-0.907705	0	
1.4887	2.65582	1.22807	0	
1.4893	0.517661	1.83321	0	
1.4900	1.12535	-1.53064	0	
1.4907	5.09783	-4.27155	0	
1.4913	6.00937	-3.96899	0	
1.4920	2.65582	-2.13578	0	
1.4927	1.74429	-1.53064	0	
1.4933	2.65582	-2.43835	0	
1.4940	0.213816	-1.83321	0	
1.4947	-5.58173	0.605137	0	
1.4953	-5.27789	1.83321	0	
1.4960	-1.6205	0.302568	0	
1.4967	-2.53204	-1.22807	0	
1.4973	-4.97405	-1.83321	0	
1.4980	-3.13973	-1.53064	0	
1.4987	-0.697717	0	0	
1.4993	-0.393872	0.907705	0	
1.5000	0.821505	1.83321	0	
1.5007	2.35198	1.22807	0	
1.5013	2.95967	0.302568	0	
1.5020	4.49014	0.907705	0	
1.5027	2.95967	0.907705	0	
1.5033	1.74429	-0.605137	0	
1.5040	5.40168	-0.907705	0	
1.5047	8.75522	-0.302568	0	
1.5053	5.70552	0	0	
1.5060	3.56736	1.83321	0	
1.5067	4.49014	3.36385	0	
1.5073	4.79399	2.43835	0	
1.5080	5.40168	2.43835	0	
1.5087	4.1863	3.04348	0	
1.5093	-1.31666	1.83321	0	
1.5100	-1.92435	0	0	
1.5107	6.00937	-2.13578	0	
1.5113	9.67801	-4.27155	0	
1.5120	6.62831	-2.74091	0	
1.5127	4.49014	0.302568	0	
1.5133	2.65582	0.907705	0	
1.5140	-1.00156	0.907705	0	
1.5147	-2.22819	-0.907705	0	
1.5153	-1.6205	-2.74091	0	
1.5160	-2.22819	0	0	
1.5167	-2.83588	1.83321	0	
1.5173	-3.13973	0.302568	0	
1.5180	-3.13973	1.22807	0	
1.5187	-3.44357	2.43835	0	
1.5193	-4.36636	1.53064	0	
1.5200	-4.06251	2.43835	0	
1.5207	-1.92435	3.66642	0	
1.5213	-0.697717	3.04348	0	
1.5220	-0.090028	3.04348	0	
1.5227	1.74429	2.74091	0	
1.5233	2.35198	2.13578	0	
1.5240	1.12535	3.04348	0	
1.5247	2.35198	2.74091	0	
1.5253	5.09783	0.605137	0	
1.5260	6.31321	0.302568	0	
1.5267	5.70552	-0.605137	0	
1.5273	3.56736	-3.66642	0	
1.5280	3.26351	-4.27155	0	
1.5287	4.49014	-3.66642	0	
1.5293	3.56736	-3.66642	0	
1.5300	1.74429	-3.06128	0	
1.5307	1.74429	-3.66642	0	
1.5313	1.74429	-4.87669	0	
1.5320	0.213816	-3.36385	0	
1.5327	-1.6205	0	0	
1.5333	-4.06251	0.907705	0	
1.5340	-5.58173	0.605137	0	
1.5347	-5.58173	0.907705	0	
1.5353	-6.50452	1.83321	0	
1.5360	-7.41605	1.53064	0	
1.5367	-5.88558	0.605137	0	
1.5373	-4.6702	0.907705	0	
1.5380	-4.06251	2.74091	0	
1.5387	-1.92435	2.13578	0	
1.5393	0.517661	0.302568	0	
1.5400	-0.393872	0.907705	0	
1.5407	-2.83588	2.13578	0	
1.5413	-3.44357	1.22807	0	
1.5420	-1.6205	-1.53064	0	
1.5427	-0.090028	-2.74091	0	
1.5433	1.12535	-2.74091	0	
1.5440	3.56736	-3.06128	0	
1.5447	5.40168	-2.43835	0	
1.5453	3.26351	0	0	
1.5460	1.74429	0.907705	0	
1.5467	4.1863	-1.53064	0	
1.5473	5.70552	-2.43835	0	
1.5480	5.40168	-1.22807	0	
1.5487	6.31321	-1.22807	0	
1.5493	7.236	-0.302568	0	
1.5500	8.45138	2.13578	0	
1.5507	11.8162	1.83321	0	
1.5513	13.6392	0	0	
1.5520	13.3354	1.83321	0	
1.5527	10.8934	1.83321	0	
1.5533	-1.00156	0	0	
1.5540	-20.8415	1.83321	0	
1.5547	-29.3829	4.57412	0	
1.5553	-22.6758	2.74091	0	
1.5560	-16.2613	2.13578	0	
1.5567	-15.0459	4.27155	0	
1.5573	-12.3001	3.66642	0	
1.5580	-8.63143	2.74091	0	
1.5587	-7.11221	2.43835	0	
1.5593	-6.50452	1.83321	0	
1.5600	-6.18942	0	0	
1.5607	-5.27789	-2.13578	0	
1.5613	-1.6205	-3.66642	0	
1.5620	1.44045	-0.907705	0	
1.5627	1.74429	0.907705	0	
1.5633	2.65582	-1.53064	0	
1.5640	3.56736	-2.74091	0	
1.5647	3.8712	-2.74091	0	
1.5653	5.40168	-2.74091	0	
1.5660	5.40168	-0.302568	0	
1.5667	3.56736	1.53064	0	
1.5673	3.56736	-0.907705	0	
1.5680	4.49014	-0.907705	0	
1.5687	0.213816	2.13578	0	
1.5693	-2.83588	1.83321	0	
1.5700	0.213816	-0.302568	0	
1.5707	1.74429	-1.53064	0	
1.5713	-2.83588	-1.22807	0	
1.5720	-7.7199	0.605137	0	
1.5727	-7.41605	1.53064	0	
1.5733	-1.92435	-0.302568	0	
1.5740	0.517661	-2.74091	0	
1.5747	-2.53204	-4.57412	0	
1.5753	-6.18942	-3.66642	0	
1.5760	-10.1619	-0.302568	0	
1.5767	-10.7696	1.83321	0	
1.5773	-4.06251	0.907705	0	
1.5780	-1.92435	1.22807	0	
1.5787	-8.63143	0.907705	0	
1.5793	-8.32759	-1.22807	0	
1.5800	-2.53204	-2.43835	0	
1.5807	-3.75867	-1.83321	0	
1.5813	-3.44357	-2.74091	0	
1.5820	3.56736	-4.57412	0	
1.5827	4.49014	-3.66642	0	
1.5833	1.74429	-1.83321	0	
1.5840	4.79399	-1.83321	0	
1.5847	9.37416	-1.53064	0	
1.5853	10.2857	0.907705	0	
1.5860	10.5895	1.53064	0	
1.5867	12.4239	-0.605137	0	
1.5873	16.3851	-1.83321	0	
1.5880	20.9653	-2.74091	0	
1.5887	20.3576	-2.13578	0	
1.5893	13.0315	1.53064	0	
1.5900	8.14753	2.43835	0	
1.5907	7.84369	-1.83321	0	
1.5913	6.62831	-4.57412	0	
1.5920	4.49014	-1.83321	0	
1.5927	4.49014	0.907705	0	
1.5933	3.56736	-1.22807	0	
1.5940	-0.393872	-3.96899	0	
1.5947	-2.83588	-3.66642	0	
1.5953	-2.22819	-1.83321	0	
1.5960	-1.00156	-1.53064	0	
1.5967	-0.393872	0	0	
1.5973	-1.6205	2.74091	0	
1.5980	-3.75867	1.83321	0	
1.5987	-4.06251	0	0	
1.5993	-3.44357	0.907705	0	
1.6000	-3.44357	2.74091	0	
1.6007	-3.13973	1.22807	0	
1.6013	-2.83588	0	0	
1.6020	-2.53204	0.907705	0	
1.6027	-0.393872	0.907705	0	
1.6033	1.74429	-0.302568	0	
1.6040	2.65582	-0.907705	0	
1.6047	3.8712	-0.907705	0	
1.6053	5.70552	-1.22807	0	
1.6060	6.93215	-0.907705	0	
1.6067	9.05906	-0.907705	0	
1.6073	9.05906	-1.83321	0	
1.6080	6.00937	-2.74091	0	
1.6087	4.49014	-1.83321	0	
1.6093	4.49014	-0.907705	0	
1.6100	2.95967	0.907705	0	
1.6107	2.04814	3.96899	0	
1.6113	0.517661	6.10476	0	
1.6120	-1.31666	5.49963	0	
1.6127	-0.393872	4.27155	0	
1.6133	-0.393872	1.83321	0	
1.6140	-3.44357	1.53064	0	
1.6147	-3.75867	3.04348	0	
1.6153	-3.13973	3.66642	0	
1.6160	-5.58173	3.04348	0	
1.6167	-7.41605	3.04348	0	
1.6173	-10.1619	0	0	
1.6180	-18.3995	-4.57412	0	
1.6187	-22.3719	-4.57412	0	
1.6193	-16.8802	-2.74091	0	
1.6200	-11.0734	-4.87669	0	
1.6207	-8.32759	-6.7099	0	
1.6213	-6.50452	-3.66642	0	
1.6220	-4.6702	-1.22807	0	
1.6227	-2.83588	-2.13578	0	
1.6233	-2.83588	-2.74091	0	
1.6240	-2.22819	-1.83321	0	
1.6247	2.65582	-0.302568	0	
1.6253	4.1863	0.605137	0	
1.6260	-1.92435	-0.605137	0	
1.6267	-2.83588	-2.43835	0	
1.6273	3.56736	-2.74091	0	
1.6280	6.31321	-3.96899	0	
1.6287	3.8712	-4.57412	0	
1.6293	3.56736	-3.66642	0	
1.6300	3.56736	-3.66642	0	
1.6307	1.44045	-2.74091	0	
1.6313	-0.090028	-0.907705	0	
1.6320	-0.090028	-0.605137	0	
1.6327	0.821505	0.302568	0	
1.6333	0.213816	1.83321	0	
1.6340	-1.92435	0.605137	0	
1.6347	-5.58173	-1.53064	0	
1.6353	-7.41605	-0.302568	0	
1.6360	-7.41605	1.53064	0	
1.6367	-6.80836	2.43835	0	
1.6373	-7.41605	3.04348	0	
1.6380	-5.58173	1.53064	0	
1.6387	-1.6205	-0.605137	0	
1.6393	-1.6205	0	0	
1.6400	-3.75867	-0.907705	0	
1.6407	-1.92435	-1.83321	0	
1.6413	-0.090028	0.302568	0	
1.6420	-0.393872	1.83321	0	
1.6427	0.213816	1.22807	0	
1.6433	2.35198	2.13578	0	
1.6440	4.1863	2.13578	0	
1.6447	6.31321	0.605137	0	
1.6453	7.84369	0.605137	0	
1.6460	9.67801	0.907705	0	
1.6467	9.37416	-0.302568	0	
1.6473	6.31321	0.302568	0	
1.6480	7.236	1.83321	0	
1.6487	9.98185	0	0	
1.6493	5.09783	-2.13578	0	
1.6500	-0.090028	-3.66642	0	
1.6507	2.65582	-4.87669	0	
1.6513	2.65582	-4.27155	0	
1.6520	-2.83588	-1.83321	0	
1.6527	-1.31666	1.53064	0	
1.6533	4.1863	4.57412	0	
1.6540	1.74429	5.17926	0	
1.6547	-3.44357	2.74091	0	
1.6553	-4.6702	3.66642	0	
1.6560	-6.50452	4.57412	0	
1.6567	-7.7199	1.83321	0	
1.6573	-5.27789	2.43835	0	
1.6580	-5.58173	5.17926	0	
1.6587	-6.50452	3.04348	0	
1.6593	-4.06251	0.907705	0	
1.6600	-4.97405	3.66642	0	
1.6607	-9.85806	4.27155	0	
1.6613	-8.63143	2.74091	0	
1.6620	-1.92435	1.83321	0	
1.6627	0.517661	1.22807	0	
1.6633	-2.53204	2.74091	0	
1.6640	-1.92435	3.36385	0	
1.6647	2.95967	0	0	
1.6653	4.79399	-2.13578	0	
1.6660	2.35198	-0.302568	0	
1.6667	2.95967	0.907705	0	
1.6673	6.31321	1.22807	0	
1.6680	4.1863	1.53064	0	
1.6687	1.12535	0.907705	0	
1.6693	1.74429	-0.302568	0	
1.6700	1.74429	-0.907705	0	
1.6707	0.517661	-1.22807	0	
1.6713	0.821505	-0.907705	0	
1.6720	1.74429	-2.74091	0	
1.6727	-1.92435	-5.19706	0	
1.6733	-5.27789	-3.66642	0	
1.6740	-4.6702	-1.83321	0	
1.6747	-4.36636	-2.13578	0	
1.6753	-7.41605	0	0	
1.6760	-9.25037	5.49963	0	
1.6767	-9.85806	6.10476	0	
1.6773	-10.4658	2.13578	0	
1.6780	-8.63143	0	0	
1.6787	-6.18942	1.22807	0	
1.6793	-4.6702	3.66642	0	
1.6800	-1.92435	2.13578	0	
1.6807	0.821505	-2.43835	0	
1.6813	3.56736	-2.74091	0	
1.6820	8.14753	0.605137	0	
1.6827	10.2857	1.53064	0	
1.6833	8.45138	-0.302568	0	
1.6840	7.53984	-0.907705	0	
1.6847	9.37416	-0.907705	0	
1.6853	9.98185	-0.302568	0	
1.6860	9.67801	0.907705	0	
1.6867	11.1972	0.302568	0	
1.6873	13.0315	-1.83321	0	
1.6880	11.5011	-3.06128	0	
1.6887	6.31321	-5.49963	0	
1.6893	3.56736	-7.33283	0	
1.6900	4.49014	-6.10476	0	
1.6907	6.31321	-3.96899	0	
1.6913	5.70552	-3.66642	0	
1.6920	3.56736	-2.74091	0	
1.6927	3.56736	-1.22807	0	
1.6933	4.49014	-3.06128	0	
1.6940	3.26351	-3.06128	0	
1.6947	1.12535	0.302568	0	
1.6953	-0.090028	0.907705	0	
1.6960	-1.6205	-0.302568	0	
1.6967	-1.00156	0.907705	0	
1.6973	4.49014	2.43835	0	
1.6980	3.8712	1.53064	0	
1.6987	-7.41605	0.907705	0	
1.6993	-14.7421	1.22807	0	
1.7000	-9.55422	0.907705	0	
1.7007	-3.75867	0.302568	0	
1.7013	-3.13973	0	0	
1.7020	-1.6205	-0.302568	0	
1.7027	-0.090028	-1.22807	0	
1.7033	-3.75867	-3.66642	0	
1.7040	-4.6702	-4.57412	0	
1.7047	1.74429	-3.96899	0	
1.7053	4.49014	-3.96899	0	
1.7060	3.56736	-3.66642	0	
1.7067	7.84369	-0.907705	0	
1.7073	11.8162	0	0	
1.7080	8.14753	-1.83321	0	
1.7087	2.95967	-1.22807	0	
1.7093	0.821505	2.43835	0	
1.7100	0.517661	5.80219	0	
1.7107	1.12535	6.7099	0	
1.7113	-0.393872	5.49963	0	
1.7120	-4.36636	4.87669	0	
1.7127	-4.6702	4.57412	0	
1.7133	-3.75867	0.605137	0	
1.7140	-5.58173	-3.66642	0	
1.7147	-5.58173	-5.49963	0	
1.7153	-5.58173	-5.49963	0	
1.7160	-8.32759	-2.74091	0	
1.7167	-9.25037	1.83321	0	
1.7173	-7.41605	1.83321	0	
1.7180	-7.11221	-1.83321	0	
1.7187	-5.58173	-1.83321	0	
1.7193	-3.44357	0	0	
1.7200	-4.06251	0.605137	0	
1.7207	-5.58173	0	0	
1.7213	-2.22819	-1.22807	0	
1.7220	3.56736	-2.13578	0	
1.7227	6.00937	-0.907705	0	
1.7233	4.49014	0	0	
1.7240	6.00937	-2.74091	0	
1.7247	3.8712	-2.74091	0	
1.7253	-6.50452	-1.53064	0	
1.7260	-11.9962	-2.43835	0	
1.7267	-5.58173	-2.43835	0	
1.7273	-0.090028	0	0	
1.7280	-0.393872	0	0	
1.7287	-1.00156	-2.74091	0	
1.7293	-0.393872	-1.53064	0	
1.7300	-1.00156	0.907705	0	
1.7307	-1.6205	-0.302568	0	
1.7313	-3.13973	-1.53064	0	
1.7320	-4.6702	-0.302568	0	
1.7327	-4.36636	0.605137	0	
1.7333	-3.75867	0	0	
1.7340	-6.80836	0	0	
1.7347	-13.2116	0.605137	0	
1.7353	-16.8802	0.907705	0	
1.7360	-13.5154	0.605137	0	
1.7367	-8.32759	0.907705	0	
1.7373	-6.80836	0.907705	0	
1.7380	-4.36636	-0.302568	0	
1.7387	0.213816	-0.302568	0	
1.7393	0.517661	1.83321	0	
1.7400	-1.92435	2.13578	0	
1.7407	-2.22819	0.907705	0	
1.7413	-3.13973	2.13578	0	
1.7420	-4.6702	2.74091	0	
1.7427	-0.090028	0.907705	0	
1.7433	6.31321	-0.605137	0	
1.7440	6.31321	-0.907705	0	
1.7447	4.79399	-1.53064	0	
1.7453	6.31321	-0.907705	0	
1.7460	6.00937	-0.907705	0	
1.7467	5.40168	-0.907705	0	
1.7473	6.93215	-0.302568	0	
1.7480	7.53984	-0.302568	0	
1.7487	9.05906	1.22807	0	
1.7493	11.1972	2.74091	0	
1.7500	7.84369	-1.83321	0	
1.7507	6.62831	-6.40733	0	
1.7513	14.2469	-1.83321	0	
1.7520	17.004	4.27155	0	
1.7527	9.67801	2.74091	0	
1.7533	3.56736	1.22807	0	
1.7540	0.517661	1.22807	0	
1.7547	-3.44357	-0.907705	0	
1.7553	-4.36636	-0.907705	0	
1.7560	-3.75867	2.43835	0	
1.7567	-5.27789	1.83321	0	
1.7573	-5.58173	-0.605137	0	
1.7580	-3.44357	0.605137	0	
1.7587	-1.00156	3.04348	0	
1.7593	2.65582	3.66642	0	
1.7600	4.1863	1.22807	0	
1.7607	3.26351	0.907705	0	
1.7613	2.65582	3.36385	0	
1.7620	1.74429	3.66642	0	
1.7627	-1.00156	0.907705	0	
1.7633	-0.090028	1.53064	0	
1.7640	3.56736	2.43835	0	
1.7647	5.09783	-0.907705	0	
1.7653	5.09783	-3.06128	0	
1.7660	7.236	-0.907705	0	
1.7667	7.236	-1.22807	0	
1.7673	5.40168	-3.36385	0	
1.7680	7.53984	-1.53064	0	
1.7687	7.84369	1.22807	0	
1.7693	4.1863	0.907705	0	
1.7700	4.79399	-0.605137	0	
1.7707	7.84369	0	0	
1.7713	5.40168	2.43835	0	
1.7720	2.65582	4.57412	0	
1.7727	3.56736	2.74091	0	
1.7733	0.821505	-2.13578	0	
1.7740	-7.41605	-3.66642	0	
1.7747	-13.5154	-3.06128	0	
1.7753	-12.3001	-1.83321	0	
1.7760	-9.25037	-0.907705	0	
1.7767	-8.63143	-1.22807	0	
1.7773	-9.25037	-1.83321	0	
1.7780	-10.1619	-1.83321	0	
1.7787	-5.88558	-1.22807	0	
1.7793	4.49014	1.83321	0	
1.7800	10.8934	5.80219	0	
1.7807	7.236	4.87669	0	
1.7813	4.1863	1.83321	0	
1.7820	2.95967	2.13578	0	
1.7827	-0.090028	1.83321	0	
1.7833	2.65582	-1.83321	0	
1.7840	9.05906	-2.13578	0	
1.7847	8.14753	-0.302568	0	
1.7853	6.93215	-0.605137	0	
1.7860	9.67801	-0.302568	0	
1.7867	9.37416	-0.605137	0	
1.7873	8.75522	-2.43835	0	
1.7880	8.14753	-1.83321	0	
1.7887	4.49014	-0.907705	0	
1.7893	9.98185	-3.66642	0	
1.7900	19.1309	-8.24054	0	
1.7907	13.6392	-10.9815	0	
1.7913	6.31321	-7.01247	0	
1.7920	9.98185	0.302568	0	
1.7927	9.05906	1.83321	0	
1.7933	-1.00156	-1.22807	0	
1.7940	-8.32759	-0.302568	0	
1.7947	-11.6924	0.302568	0	
1.7953	-14.1344	-2.74091	0	
1.7960	-12.9078	-1.53064	0	
1.7967	-12.6039	3.96899	0	
1.7973	-10.7696	3.96899	0	
1.7980	-5.88558	0.302568	0	
1.7987	-4.6702	0.605137	0	
1.7993	-5.27789	2.43835	0	
1.8000	-2.83588	1.83321	0	
1.8007	-1.6205	1.83321	0	
1.8013	-3.44357	2.13578	0	
1.8020	-2.83588	0	0	
1.8027	-1.6205	0	0	
1.8033	-3.44357	2.74091	0	
1.8040	-6.80836	2.43835	0	
1.8047	-7.41605	0.907705	0	
1.8053	-3.44357	0.907705	0	
1.8060	0.821505	-0.907705	0	
1.8067	2.35198	-4.57412	0	
1.8073	5.09783	-7.01247	0	
1.8080	5.40168	-8.24054	0	
1.8087	1.44045	-6.7099	0	
1.8093	2.65582	-2.43835	0	
1.8100	6.93215	-0.302568	0	
1.8107	3.8712	-0.907705	0	
1.8113	-1.6205	-0.605137	0	
1.8120	-3.75867	0	0	
1.8127	-6.50452	0	0	
1.8133	-5.27789	0	0	
1.8140	1.12535	-0.605137	0	
1.8147	3.26351	-1.83321	0	
1.8153	4.49014	-0.302568	0	
1.8160	8.45138	3.36385	0	
1.8167	8.14753	3.66642	0	
1.8173	4.79399	1.83321	0	
1.8180	4.49014	4.57412	0	
1.8187	9.37416	7.31504	0	
1.8193	23.1034	6.10476	0	
1.8200	32.8715	7.01247	0	
1.8207	20.6614	10.0737	0	
1.8213	-1.00156	8.24054	0	
1.8220	-11.0734	5.80219	0	
1.8227	-16.2613	8.84568	0	
1.8233	-20.2338	11.907	0	
1.8240	-16.2613	10.0737	0	
1.8247	-11.0734	5.80219	0	
1.8253	-13.2116	2.43835	0	
1.8260	-11.3773	-1.83321	0	
1.8267	-7.41605	-8.84568	0	
1.8273	-14.7421	-14.3453	0	
1.8280	-19.3223	-10.0737	0	
1.8287	-11.9962	-1.83321	0	
1.8293	-9.85806	0.907705	0	
1.8300	-10.1619	3.66642	0	
1.8307	1.74429	5.17926	0	
1.8313	7.53984	-4.27155	0	
1.8320	-2.83588	-16.4811	0	
1.8327	-4.36636	-17.0862	0	
1.8333	8.75522	-10.6789	0	
1.8340	13.6392	-5.49963	0	
1.8347	7.53984	-3.66642	0	
1.8353	2.65582	-7.33283	0	
1.8360	-1.92435	-8.54311	0	
1.8367	-3.13973	-2.74091	0	
1.8373	6.62831	5.80219	0	
1.8380	15.4736	13.7402	0	
1.8387	6.93215	17.3888	0	
1.8393	-10.4658	13.7402	0	
1.8400	-20.2338	8.84568	0	
1.8407	-20.8415	7.93797	0	
1.8413	-17.4879	4.27155	0	
1.8420	-8.32759	0	0	
1.8427	0.821505	2.74091	0	
1.8433	2.95967	1.22807	0	
1.8440	1.44045	-11.907	0	
1.8447	2.04814	-22.8884	0	
1.8453	3.56736	-22.5858	0	
1.8460	5.40168	-18.9194	0	
1.8467	8.75522	-13.1172	0	
1.8473	9.98185	-6.40733	0	
1.8480	7.236	-3.06128	0	
1.8487	7.236	-1.83321	0	
1.8493	9.37416	-1.22807	0	
1.8500	8.14753	-3.36385	0	
1.8507	3.26351	-3.96899	0	
1.8513	-2.83588	-1.83321	0	
1.8520	-5.58173	-0.302568	0	
1.8527	-2.22819	-0.907705	0	
1.8533	-0.090028	-0.605137	0	
1.8540	-5.27789	-0.907705	0	
1.8547	-8.32759	-0.907705	0	
1.8553	-5.27789	0	0	
1.8560	-6.80836	0.907705	0	
1.8567	-10.1619	3.96899	0	
1.8573	-7.11221	5.80219	0	
1.8580	-4.36636	1.83321	0	
1.8587	-5.58173	-0.907705	0	
1.8593	-3.75867	2.13578	0	
1.8600	-1.92435	3.66642	0	
1.8607	-3.75867	1.22807	0	
1.8613	-3.75867	1.22807	0	
1.8620	-2.83588	2.74091	0	
1.8627	-4.06251	2.13578	0	
1.8633	-3.44357	0	0	
1.8640	2.65582	-2.13578	0	
1.8647	7.236	-3.06128	0	
1.8653	8.14753	-2.43835	0	
1.8660	9.67801	-1.83321	0	
1.8667	11.8162	-1.53064	0	
1.8673	9.98185	-1.53064	0	
1.8680	8.14753	-2.43835	0	
1.8687	9.67801	-2.43835	0	
1.8693	9.05906	-0.907705	0	
1.8700	6.93215	-0.605137	0	
1.8707	7.53984	-1.83321	0	
1.8713	7.236	-1.83321	0	
1.8720	3.26351	-1.83321	0	
1.8727	-0.090028	-0.907705	0	
1.8733	-4.97405	1.22807	0	
1.8740	-12.3001	1.83321	0	
1.8747	-15.0459	2.13578	0	
1.8753	-12.9078	4.27155	0	
1.8760	-9.25037	2.74091	0	
1.8767	-4.97405	-1.22807	0	
1.8773	-3.13973	0	0	
1.8780	-4.36636	3.96899	0	
1.8787	-4.97405	3.66642	0	
1.8793	-5.88558	1.22807	0	
1.8800	-5.58173	0.907705	0	
1.8807	-0.697717	1.83321	0	
1.8813	2.35198	1.53064	0	
1.8820	0.517661	0.605137	0	
1.8827	0.821505	0.605137	0	
1.8833	2.95967	1.22807	0	
1.8840	4.49014	0	0	
1.8847	4.49014	1.83321	0	
1.8853	1.44045	7.01247	0	
1.8860	-1.92435	5.49963	0	
1.8867	-1.00156	-1.22807	0	
1.8873	1.12535	-1.83321	0	
1.8880	2.35198	2.74091	0	
1.8887	4.49014	3.36385	0	
1.8893	4.49014	2.13578	0	
1.8900	1.44045	2.13578	0	
1.8907	-0.393872	1.83321	0	
1.8913	-0.090028	0.907705	0	
1.8920	-0.090028	0.907705	0	
1.8927	-1.6205	1.83321	0	
1.8933	-3.75867	2.43835	0	
1.8940	-5.27789	0.907705	0	
1.8947	-6.50452	0.907705	0	
1.8953	-9.25037	3.66642	0	
1.8960	-11.6924	6.7099	0	
1.8967	-10.4658	7.93797	0	
1.8973	-8.32759	5.49963	0	
1.8980	-7.7199	0.907705	0	
1.8987	-7.41605	0.907705	0	
1.8993	-6.80836	2.74091	0	
1.9000	-5.58173	2.13578	0	
1.9007	-3.75867	0.907705	0	
1.9013	-3.13973	-0.907705	0	
1.9020	-2.53204	-2.74091	0	
1.9027	-2.53204	0	0	
1.9033	-1.92435	1.83321	0	
1.9040	1.74429	-2.13578	0	
1.9047	3.56736	-2.74091	0	
1.9053	1.74429	0	0	
1.9060	3.26351	-0.907705	0	
1.9067	5.40168	-0.605137	0	
1.9073	3.26351	1.53064	0	
1.9080	5.40168	0.605137	0	
1.9087	12.4239	0.907705	0	
1.9093	10.8934	2.74091	0	
1.9100	4.49014	0.605137	0	
1.9107	3.8712	-1.83321	0	
1.9113	3.8712	-1.83321	0	
1.9120	0.213816	-0.907705	0	
1.9127	-1.92435	-0.605137	0	
1.9133	-1.31666	0.302568	0	
1.9140	-1.00156	1.83321	0	
1.9147	-2.83588	3.36385	0	
1.9153	-5.27789	1.83321	0	
1.9160	-6.18942	-1.22807	0	
1.9167	-5.88558	-0.907705	0	
1.9173	-4.97405	0	0	
1.9180	-3.75867	-1.83321	0	
1.9187	-2.22819	-1.83321	0	
1.9193	-1.6205	-0.907705	0	
1.9200	-1.00156	-0.907705	0	
1.9207	-0.697717	-1.83321	0	
1.9213	-1.92435	-2.13578	0	
1.9220	-1.92435	-2.74091	0	
1.9227	2.35198	-1.83321	0	
1.9233	9.05906	-0.605137	0	
1.9240	11.1972	-0.907705	0	
1.9247	8.14753	-0.907705	0	
1.9253	6.93215	0.907705	0	
1.9260	8.14753	1.22807	0	
1.9267	9.05906	-3.06128	0	
1.9273	9.67801	-6.10476	0	
1.9280	9.37416	-3.66642	0	
1.9287	8.14753	-0.907705	0	
1.9293	8.14753	0	0	
1.9300	8.45138	0	0	
1.9307	7.236	-0.302568	0	
1.9313	4.79399	-1.53064	0	
1.9320	3.56736	-0.605137	0	
1.9327	4.79399	0.907705	0	
1.9333	3.8712	0	0	
1.9340	1.12535	-2.74091	0	
1.9347	2.35198	-4.27155	0	
1.9353	-1.92435	-3.66642	0	
1.9360	-18.0956	-1.22807	0	
1.9367	-24.814	0.605137	0	
1.9373	-9.55422	1.22807	0	
1.9380	7.236	2.13578	0	
1.9387	10.2857	3.04348	0	
1.9393	4.49014	3.96899	0	
1.9400	-4.97405	6.10476	0	
1.9407	-11.0734	7.01247	0	
1.9413	-7.41605	3.96899	0	
1.9420	-3.44357	0.605137	0	
1.9427	-4.36636	0.907705	0	
1.9433	-3.75867	4.57412	0	
1.9440	-0.090028	6.40733	0	
1.9447	2.04814	3.66642	0	
1.9453	2.65582	0.605137	0	
1.9460	2.95967	1.83321	0	
1.9467	3.8712	1.83321	0	
1.9473	5.09783	-2.74091	0	
1.9480	6.31321	-7.33283	0	
1.9487	7.84369	-11.907	0	
1.9493	9.05906	-16.1785	0	
1.9500	6.31321	-11.907	0	
1.9507	0.821505	-4.57412	0	
1.9513	-2.83588	-2.74091	0	
1.9520	-4.6702	-1.83321	0	
1.9527	-5.58173	0.907705	0	
1.9533	-4.06251	2.43835	0	
1.9540	-3.75867	2.74091	0	
1.9547	-8.94653	2.74091	0	
1.9553	-12.9078	0.907705	0	
1.9560	-8.63143	-2.13578	0	
1.9567	-1.31666	-4.57412	0	
1.9573	1.12535	-4.87669	0	
1.9580	0.213816	-3.66642	0	
1.9587	0.821505	-4.57412	0	
1.9593	2.35198	-5.49963	0	
1.9600	2.95967	-3.66642	0	
1.9607	2.95967	-3.66642	0	
1.9613	3.26351	-4.57412	0	
1.9620	2.35198	-1.83321	0	
1.9627	-1.31666	0.605137	0	
1.9633	-2.83588	-2.43835	0	
1.9640	0.821505	-2.74091	0	
1.9647	4.79399	0	0	
1.9653	5.70552	-1.22807	0	
1.9660	5.40168	-2.74091	0	
1.9667	6.00937	-0.605137	0	
1.9673	7.53984	0	0	
1.9680	8.14753	-2.43835	0	
1.9687	6.31321	-1.83321	0	
1.9693	4.49014	0	0	
1.9700	4.49014	-0.907705	0	
1.9707	4.1863	-1.53064	0	
1.9713	0.821505	0.907705	0	
1.9720	-1.92435	2.43835	0	
1.9727	-2.22819	0.907705	0	
1.9733	-2.83588	0	0	
1.9740	-4.36636	2.74091	0	
1.9747	-5.88558	3.04348	0	
1.9753	-8.94653	0	0	
1.9760	-11.9962	0.302568	0	
1.9767	-11.3773	4.57412	0	
1.9773	-9.25037	4.57412	0	
1.9780	-8.32759	2.43835	0	
1.9787	-6.50452	1.83321	0	
1.9793	-4.97405	0.907705	0	
1.9800	-4.97405	-0.605137	0	
1.9807	-4.06251	0	0	
1.9813	-3.44357	-1.22807	0	
1.9820	-4.36636	-1.83321	0	
1.9827	-2.53204	2.74091	0	
1.9833	-0.090028	5.49963	0	
1.9840	1.12535	3.04348	0	
1.9847	7.84369	2.74091	0	
1.9853	18.2194	3.66642	0	
1.9860	20.9653	1.22807	0	
1.9867	15.4736	0	0	
1.9873	8.45138	2.43835	0	
1.9880	2.65582	5.49963	0	
1.9887	-4.36636	5.80219	0	
1.9893	-15.3498	3.36385	0	
1.9900	-22.0681	-0.302568	0	
1.9907	-16.8802	-3.36385	0	
1.9913	-8.02374	-3.96899	0	
1.9920	-2.83588	-3.66642	0	
1.9927	-1.31666	-3.96899	0	
1.9933	-3.44357	-3.96899	0	
1.9940	-4.97405	-3.06128	0	
1.9947	-2.53204	-3.36385	0	
1.9953	-2.83588	-4.57412	0	
1.9960	-5.27789	-3.36385	0	
1.9967	-3.13973	-0.907705	0	
1.9973	-0.697717	-1.22807	0	
1.9980	-0.393872	-1.83321	0	
1.9987	1.12535	-0.302568	0	
1.9993	2.65582	0	0	
2.0000	2.65582	-0.907705	0	
2.0007	1.74429	-0.907705	0	
2.0013	-5.27789	-3.66642	0	
2.0020	-9.55422	-7.33283	0	
2.0027	-4.6702	-5.49963	0	
2.0033	0.821505	-1.83321	0	
2.0040	6.31321	0	0	
2.0047	15.4736	2.13578	0	
2.0053	15.4736	5.49963	0	
2.0060	6.31321	5.17926	0	
2.0067	8.45138	0	0	
2.0073	16.0812	-1.22807	0	
2.0080	16.6889	1.53064	0	
2.0087	16.3851	2.74091	0	
2.0093	15.4736	2.13578	0	
2.0100	7.53984	2.74091	0	
2.0107	-1.92435	3.04348	0	
2.0113	-7.11221	2.74091	0	
2.0120	-6.18942	1.22807	0	
2.0127	-1.31666	-2.74091	0	
2.0133	-1.92435	-6.40733	0	
2.0140	-8.94653	-6.7099	0	
2.0147	-12.3001	-4.27155	0	
2.0153	-10.7696	-2.13578	0	
2.0160	-9.25037	-0.907705	0	
2.0167	-6.50452	0.302568	0	
2.0173	-2.22819	0	0	
2.0180	-0.697717	-3.66642	0	
2.0187	-4.6702	-5.49963	0	
2.0193	-8.32759	-1.22807	0	
2.0200	-8.32759	2.43835	0	
2.0207	-7.7199	-0.907705	0	
2.0213	-6.50452	-3.66642	0	
2.0220	-2.53204	-0.907705	0	
2.0227	-1.6205	0.605137	0	
2.0233	-2.83588	-1.83321	0	
2.0240	0.517661	-2.74091	0	
2.0247	5.70552	-1.53064	0	
2.0253	7.84369	-0.907705	0	
2.0260	7.236	0	0	
2.0267	4.1863	0.907705	0	
2.0273	0.517661	-0.907705	0	
2.0280	1.44045	-2.74091	0	
2.0287	3.56736	-3.06128	0	
2.0293	2.65582	-1.83321	0	
2.0300	1.12535	0.907705	0	
2.0307	1.12535	3.36385	0	
2.0313	5.09783	3.36385	0	
2.0320	11.5011	2.13578	0	
2.0327	9.98185	1.83321	0	
2.0333	0.821505	2.74091	0	
2.0340	-1.6205	4.87669	0	
2.0347	1.74429	5.49963	0	
2.0353	-1.00156	2.74091	0	
2.0360	-4.6702	1.83321	0	
2.0367	-4.97405	2.43835	0	
2.0373	-4.36636	-0.302568	0	
2.0380	-1.00156	-4.57412	0	
2.0387	2.65582	-3.96899	0	
2.0393	1.74429	-0.907705	0	
2.0400	2.04814	-0.605137	0	
2.0407	1.44045	-2.43835	0	
2.0413	-9.25037	-1.83321	0	
2.0420	-15.6536	0	0	
2.0427	-5.58173	-0.907705	0	
2.0433	2.95967	-2.74091	0	
2.0440	1.74429	-1.83321	0	
2.0447	0.821505	-0.605137	0	
2.0453	2.65582	0.302568	0	
2.0460	2.65582	0.907705	0	
2.0467	3.8712	0.605137	0	
2.0473	4.79399	1.53064	0	
2.0480	0.821505	2.74091	0	
2.0487	-4.6702	0.605137	0	
2.0493	-5.58173	-0.907705	0	
2.0500	-0.090028	0	0	
2.0507	7.236	-0.907705	0	
2.0513	8.75522	-1.83321	0	
2.0520	5.40168	1.22807	0	
2.0527	4.49014	2.13578	0	
2.0533	3.56736	0.907705	0	
2.0540	-1.92435	3.66642	0	
2.0547	-6.18942	5.17926	0	
2.0553	-8.32759	2.74091	0	
2.0560	-11.9962	2.74091	0	
2.0567	-12.9078	6.40733	0	
2.0573	-8.02374	5.80219	0	
2.0580	-4.97405	2.74091	0	
2.0587	-6.50452	1.22807	0	
2.0593	-5.88558	0.907705	0	
2.0600	-3.44357	0.907705	0	
2.0607	-2.22819	2.13578	0	
2.0613	-0.697717	4.57412	0	
2.0620	1.44045	6.7099	0	
2.0627	-0.697717	5.49963	0	
2.0633	-3.44357	2.74091	0	
2.0640	-0.090028	3.66642	0	
2.0647	5.70552	5.49963	0	
2.0653	7.236	3.04348	0	
2.0660	6.93215	1.22807	0	
2.0667	7.236	1.83321	0	
2.0673	6.93215	-0.907705	0	
2.0680	6.93215	-3.96899	0	
2.0687	6.31321	-0.907705	0	
2.0693	2.65582	2.74091	0	
2.0700	-1.31666	0.605137	0	
2.0707	-4.97405	-3.66642	0	
2.0713	-5.58173	-3.96899	0	
2.0720	-3.13973	-1.83321	0	
2.0727	-4.06251	0.302568	0	
2.0733	-5.27789	-0.605137	0	
2.0740	4.1863	-3.06128	0	
2.0747	12.4239	-3.66642	0	
2.0753	5.09783	-1.83321	0	
2.0760	2.65582	-0.302568	0	
2.0767	11.8162	1.83321	0	
2.0773	12.4239	4.27155	0	
2.0780	2.95967	4.57412	0	
2.0787	0.517661	3.66642	0	
2.0793	-2.83588	3.66642	0	
2.0800	-15.9575	3.66642	0	
2.0807	-27.5598	0.907705	0	
2.0813	-29.079	-1.53064	0	
2.0820	-23.8912	-1.53064	0	
2.0827	-16.8802	-0.907705	0	
2.0833	-11.0734	-0.907705	0	
2.0840	-6.50452	1.22807	0	
2.0847	-2.53204	3.04348	0	
2.0853	-1.00156	0.605137	0	
2.0860	0.821505	-3.36385	0	
2.0867	6.00937	-3.66642	0	
2.0873	9.37416	-0.907705	0	
2.0880	9.05906	1.22807	0	
2.0887	6.93215	0.302568	0	
2.0893	4.79399	-0.605137	0	
2.0900	5.09783	0.907705	0	
2.0907	4.49014	1.83321	0	
2.0913	-4.36636	-0.907705	0	
2.0920	-13.8193	-2.13578	0	
2.0927	-11.0734	-1.53064	0	
2.0933	-4.6702	-3.06128	0	
2.0940	-4.97405	-4.57412	0	
2.0947	-5.27789	-2.74091	0	
2.0953	-3.44357	-0.302568	0	
2.0960	-4.36636	-1.83321	0	
2.0967	-6.80836	-2.43835	0	
2.0973	-11.3773	-0.302568	0	
2.0980	-14.7421	1.22807	0	
2.0987	-7.11221	0.605137	0	
2.0993	6.00937	-1.22807	0	
2.1000	8.75522	-3.66642	0	
2.1007	2.65582	-3.66642	0	
2.1013	-0.697717	-2.74091	0	
2.1020	-2.53204	-1.83321	0	
2.1027	-5.27789	-0.907705	0	
2.1033	-5.88558	-0.907705	0	
2.1040	-3.13973	-1.83321	0	
2.1047	0.821505	-0.907705	0	
2.1053	3.26351	0.907705	0	
2.1060	5.09783	0	0	
2.1067	5.40168	-0.302568	0	
2.1073	4.49014	1.53064	0	
2.1080	5.09783	0.907705	0	
2.1087	6.31321	-0.605137	0	
2.1093	5.70552	0.605137	0	
2.1100	3.26351	1.83321	0	
2.1107	2.65582	2.43835	0	
2.1113	2.65582	3.66642	0	
2.1120	1.74429	3.66642	0	
2.1127	2.04814	2.13578	0	
2.1133	2.35198	1.83321	0	
2.1140	-4.06251	0.605137	0	
2.1147	-12.3001	-0.907705	0	
2.1153	-10.1619	-2.43835	0	
2.1160	-3.13973	-3.96899	0	
2.1167	-4.97405	-3.66642	0	
2.1173	-10.4658	-0.302568	0	
2.1180	-10.1619	0.302568	0	
2.1187	-6.50452	-0.907705	0	
2.1193	-2.83588	0	0	
2.1200	-0.090028	0.302568	0	
2.1207	-1.00156	-1.53064	0	
2.1213	-1.00156	-3.96899	0	
2.1220	3.8712	-4.57412	0	
2.1227	7.236	-3.66642	0	
2.1233	6.31321	-2.13578	0	
2.1240	6.31321	-0.907705	0	
2.1247	6.31321	-0.605137	0	
2.1253	5.09783	-1.22807	0	
2.1260	7.236	-0.907705	0	
2.1267	9.37416	-0.907705	0	
2.1273	8.14753	-3.66642	0	
2.1280	9.05906	-3.66642	0	
2.1287	11.8162	0.907705	0	
2.1293	7.236	1.53064	0	
2.1300	1.74429	-2.74091	0	
2.1307	5.70552	-2.13578	0	
2.1313	13.0315	0.605137	0	
2.1320	13.0315	-0.302568	0	
2.1327	8.75522	0.907705	0	
2.1333	4.1863	4.87669	0	
2.1340	0.821505	3.96899	0	
2.1347	1.12535	1.22807	0	
2.1353	3.26351	2.43835	0	
2.1360	2.04814	3.36385	0	
2.1367	-0.090028	1.53064	0	
2.1373	1.74429	0.907705	0	
2.1380	2.04814	1.83321	0	
2.1387	-1.00156	2.74091	0	
2.1393	-1.00156	2.13578	0	
2.1400	1.74429	2.43835	0	
2.1407	0.821505	3.66642	0	
2.1413	-1.6205	2.74091	0	
2.1420	-0.090028	-1.53064	0	
2.1427	4.79399	-4.27155	0	
2.1433	8.14753	-4.57412	0	
2.1440	7.236	-2.74091	0	
2.1447	7.53984	0.302568	0	
2.1453	11.8162	-1.53064	0	
2.1460	13.6392	-4.57412	0	
2.1467	9.67801	-1.22807	0	
2.1473	6.62831	2.74091	0	
2.1480	6.31321	-0.907705	0	
2.1487	5.40168	-2.74091	0	
2.1493	6.31321	1.83321	0	
2.1500	9.05906	2.13578	0	
2.1507	9.67801	-2.13578	0	
2.1513	8.45138	-1.22807	0	
2.1520	8.14753	0.302568	0	
2.1527	8.75522	-2.13578	0	
2.1533	7.84369	-1.83321	0	
2.1540	-0.090028	0.302568	0	
2.1547	-12.9078	0.605137	0	
2.1553	-19.3223	1.83321	0	
2.1560	-19.3223	0.907705	0	
2.1567	-18.3995	-3.96899	0	
2.1573	-11.9962	-2.43835	0	
2.1580	-0.393872	4.87669	0	
2.1587	2.95967	3.96899	0	
2.1593	-3.13973	-2.13578	0	
2.1600	-5.88558	-2.74091	0	
2.1607	-1.00156	-1.53064	0	
2.1613	0.517661	-2.74091	0	
2.1620	-1.31666	-3.66642	0	
2.1627	2.65582	0	0	
2.1633	6.31321	4.87669	0	
2.1640	3.8712	4.57412	0	
2.1647	4.79399	-0.907705	0	
2.1653	9.05906	-2.74091	0	
2.1660	6.62831	0	0	
2.1667	2.65582	0.302568	0	
2.1673	3.56736	-1.22807	0	
2.1680	3.8712	-2.13578	0	
2.1687	3.56736	-3.66642	0	
2.1693	4.49014	-7.6354	0	
2.1700	2.35198	-9.46861	0	
2.1707	0.213816	-8.24054	0	
2.1713	0.821505	-4.87669	0	
2.1720	1.12535	-1.83321	0	
2.1727	2.65582	-2.43835	0	
2.1733	4.49014	-3.96899	0	
2.1740	-0.697717	-1.83321	0	
2.1747	-7.41605	1.53064	0	
2.1753	-8.32759	0.907705	0	
2.1760	-7.7199	1.22807	0	
2.1767	-7.41605	2.74091	0	
2.1773	-5.27789	1.53064	0	
2.1780	-4.36636	0.302568	0	
2.1787	-6.50452	-0.302568	0	
2.1793	-4.97405	-1.83321	0	
2.1800	3.8712	-0.605137	0	
2.1807	12.12	2.43835	0	
2.1813	9.37416	2.43835	0	
2.1820	-0.090028	1.83321	0	
2.1827	-5.88558	0.302568	0	
2.1833	-4.97405	-1.22807	0	
2.1840	-0.090028	2.74091	0	
2.1847	6.93215	7.93797	0	
2.1853	12.7277	5.49963	0	
2.1860	12.7277	3.36385	0	
2.1867	7.53984	5.49963	0	
2.1873	1.12535	3.66642	0	
2.1880	-3.75867	-0.907705	0	
2.1887	-5.27789	-0.907705	0	
2.1893	-5.58173	1.53064	0	
2.1900	-6.50452	1.53064	0	
2.1907	-6.18942	-2.13578	0	
2.1913	-3.75867	-7.6354	0	
2.1920	-5.88558	-7.6354	0	
2.1927	-10.1619	0.605137	0	
2.1933	-8.63143	4.57412	0	
2.1940	-6.50452	-0.302568	0	
2.1947	-10.1619	-0.907705	0	
2.1953	-10.4658	3.66642	0	
2.1960	-4.06251	0.907705	0	
2.1967	-1.00156	-3.96899	0	
2.1973	-2.53204	-1.83321	0	
2.1980	-2.22819	0	0	
2.1987	-0.090028	-3.66642	0	
2.1993	-0.393872	-3.06128	0	
2.2000	-3.13973	0.907705	0	
2.2007	-4.6702	0.302568	0	
2.2013	-2.22819	0	0	
2.2020	-0.090028	2.43835	0	
2.2027	-0.697717	1.83321	0	
2.2033	-0.090028	0.302568	0	
2.2040	4.1863	0	0	
2.2047	6.31321	-1.83321	0	
2.2053	3.8712	-1.22807	0	
2.2060	3.26351	1.83321	0	
2.2067	4.79399	1.83321	0	
2.2073	2.65582	2.13578	0	
2.2080	-1.31666	5.49963	0	
2.2087	-0.090028	3.36385	0	
2.2093	1.44045	-0.302568	0	
2.2100	-1.92435	2.74091	0	
2.2107	-2.53204	2.43835	0	
2.2113	0.517661	-2.13578	0	
2.2120	-0.393872	0.907705	0	
2.2127	-2.22819	5.49963	0	
2.2133	-1.31666	0.605137	0	
2.2140	-2.53204	-4.27155	0	
2.2147	-3.75867	-3.66642	0	
2.2153	-1.00156	-1.83321	0	
2.2160	-2.83588	1.83321	0	
2.2167	-9.25037	4.87669	0	
2.2173	-1.31666	5.17926	0	
2.2180	15.7774	7.6354	0	
2.2187	18.8271	10.3763	0	
2.2193	10.8934	8.24054	0	
2.2200	8.45138	6.40733	0	
2.2207	7.84369	6.40733	0	
2.2213	5.09783	5.17926	0	
2.2220	5.09783	3.36385	0	
2.2227	2.04814	-0.907705	0	
2.2233	-6.50452	-8.24054	0	
2.2240	-12.6039	-12.8147	0	
2.2247	-14.7421	-9.77118	0	
2.2253	-14.1344	-4.57412	0	
2.2260	-8.94653	-3.66642	0	
2.2267	-3.44357	-5.49963	0	
2.2273	-0.393872	-6.40733	0	
2.2280	2.65582	-3.66642	0	
2.2287	2.65582	-0.907705	0	
2.2293	-0.697717	-0.907705	0	
2.2300	-1.6205	-1.53064	0	
2.2307	-1.92435	-0.605137	0	
2.2313	-4.06251	1.22807	0	
2.2320	-3.75867	0.907705	0	
2.2327	-2.83588	-1.83321	0	
2.2333	-4.6702	-0.907705	0	
2.2340	-5.27789	1.83321	0	
2.2347	-5.27789	-0.605137	0	
2.2353	-7.41605	-1.83321	0	
2.2360	-8.32759	1.22807	0	
2.2367	-8.02374	0.302568	0	
2.2373	-9.25037	-3.36385	0	
2.2380	-4.97405	0.302568	0	
2.2387	3.56736	5.80219	0	
2.2393	4.49014	4.57412	0	
2.2400	-0.090028	1.22807	0	
2.2407	-1.6205	0	0	
2.2413	-2.83588	-1.53064	0	
2.2420	-2.22819	0	0	
2.2427	5.40168	4.27155	0	
2.2433	10.2857	5.17926	0	
2.2440	6.31321	2.43835	0	
2.2447	6.31321	2.43835	0	
2.2453	10.8934	4.57412	0	
2.2460	8.14753	2.13578	0	
2.2467	4.79399	-0.907705	0	
2.2473	10.5895	0.302568	0	
2.2480	15.1697	-0.302568	0	
2.2487	11.8162	-3.66642	0	
2.2493	8.14753	-2.74091	0	
2.2500	6.93215	0.907705	0	
2.2507	4.49014	-0.605137	0	
2.2513	2.95967	-2.13578	0	
2.2520	0.213816	-0.907705	0	
2.2527	-3.75867	-1.83321	0	
2.2533	-2.83588	-3.36385	0	
2.2540	-0.697717	-1.83321	0	
2.2547	-1.31666	-1.83321	0	
2.2553	-0.697717	-3.96899	0	
2.2560	0.821505	-3.66642	0	
2.2567	0.517661	1.83321	0	
2.2573	1.44045	6.7099	0	
2.2580	0.517661	6.10476	0	
2.2587	-3.75867	1.83321	0	
2.2593	-4.6702	0.907705	0	
2.2600	-4.6702	3.04348	0	
2.2607	-5.88558	2.13578	0	
2.2613	8.14753	0.605137	0	
2.2620	30.7333	3.96899	0	
2.2627	36.225	7.31504	0	
2.2633	30.7333	4.57412	0	
2.2640	28.5951	-1.22807	0	
2.2647	16.3851	-4.87669	0	
2.2653	-3.75867	-4.27155	0	
2.2660	-8.02374	-1.83321	0	
2.2667	-7.41605	0	0	
2.2673	-15.6536	2.74091	0	
2.2680	-10.1619	7.31504	0	
2.2687	8.14753	3.96899	0	
2.2693	6.31321	-7.01247	0	
2.2700	-9.85806	-15.5734	0	
2.2707	-10.1619	-14.6479	0	
2.2713	-2.53204	-9.14825	0	
2.2720	-2.83588	-4.57412	0	
2.2727	-3.44357	-4.27155	0	
2.2733	-1.00156	-3.06128	0	
2.2740	-2.53204	0	0	
2.2747	-4.06251	-0.907705	0	
2.2753	-4.6702	-2.74091	0	
2.2760	-5.88558	-0.302568	0	
2.2767	-5.58173	0	0	
2.2773	-5.27789	-2.74091	0	
2.2780	-7.41605	-1.83321	0	
2.2787	-5.88558	-1.53064	0	
2.2793	-1.92435	-2.74091	0	
2.2800	-1.92435	-0.302568	0	
2.2807	-1.92435	0.907705	0	
2.2813	-0.090028	-1.53064	0	
2.2820	-1.31666	-1.83321	0	
2.2827	-1.00156	0	0	
2.2833	3.56736	1.83321	0	
2.2840	4.1863	3.66642	0	
2.2847	3.56736	1.83321	0	
2.2853	8.14753	-0.907705	0	
2.2860	9.67801	0.605137	0	
2.2867	5.40168	1.22807	0	
2.2873	4.49014	0	0	
2.2880	5.40168	1.53064	0	
2.2887	4.49014	2.74091	0	
2.2893	2.65582	0.302568	0	
2.2900	-4.6702	-1.83321	0	
2.2907	-10.7696	1.53064	0	
2.2913	1.12535	7.6354	0	
2.2920	17.004	10.3763	0	
2.2927	14.2469	6.40733	0	
2.2933	5.09783	2.43835	0	
2.2940	4.49014	2.74091	0	
2.2947	3.56736	2.43835	0	
2.2953	-0.090028	0	0	
2.2960	-1.92435	0	0	
2.2967	-8.02374	0.907705	0	
2.2973	-17.7918	0.302568	0	
2.2980	-23.2835	0	0	
2.2987	-24.5101	-2.13578	0	
2.2993	-25.1178	-5.80219	0	
2.3000	-22.3719	-6.7099	0	
2.3007	-16.2613	-5.49963	0	
2.3013	-9.25037	-5.49963	0	
2.3020	-4.6702	-4.87669	0	
2.3027	-3.44357	-2.13578	0	
2.3033	-1.31666	-0.907705	0	
2.3040	1.74429	-1.22807	0	
2.3047	1.12535	-0.907705	0	
2.3053	0.213816	-1.83321	0	
2.3060	2.65582	-1.83321	0	
2.3067	3.8712	1.53064	0	
2.3073	4.49014	3.04348	0	
2.3080	6.31321	0.605137	0	
2.3087	2.95967	2.74091	0	
2.3093	-1.92435	6.40733	0	
2.3100	-0.393872	2.74091	0	
2.3107	-0.697717	-1.53064	0	
2.3113	-4.97405	-0.907705	0	
2.3120	-2.83588	-3.66642	0	
2.3127	0.821505	-8.24054	0	
2.3133	-1.00156	-5.49963	0	
2.3140	-4.6702	-1.53064	0	
2.3147	-6.50452	-0.907705	0	
2.3153	-8.94653	0	0	
2.3160	-11.9962	0.605137	0	
2.3167	-14.1344	0	0	
2.3173	-14.4382	0.907705	0	
2.3180	-10.4658	1.83321	0	
2.3187	-5.58173	0.907705	0	
2.3193	-2.83588	0	0	
2.3200	-1.92435	1.83321	0	
2.3207	-2.53204	1.83321	0	
2.3213	-2.22819	-0.302568	0	
2.3220	-0.090028	-2.13578	0	
2.3227	2.35198	-0.605137	0	
2.3233	1.44045	2.13578	0	
2.3240	-3.13973	2.74091	0	
2.3247	-6.18942	1.83321	0	
2.3253	-3.75867	0	0	
2.3260	-5.27789	-2.74091	0	
2.3267	-11.0734	-3.36385	0	
2.3273	-8.02374	-3.06128	0	
2.3280	5.09783	-3.96899	0	
2.3287	12.12	-3.66642	0	
2.3293	9.37416	0	0	
2.3300	3.56736	1.83321	0	
2.3307	-1.92435	0.605137	0	
2.3313	-4.6702	1.83321	0	
2.3320	-4.06251	3.96899	0	
2.3327	-0.090028	6.10476	0	
2.3333	6.31321	10.0737	0	
2.3340	4.79399	11.907	0	
2.3347	-8.02374	8.24054	0	
2.3353	-12.6039	7.31504	0	
2.3360	-1.00156	9.77118	0	
2.3367	3.56736	4.87669	0	
2.3373	-4.36636	-3.96899	0	
2.3380	-1.92435	-5.49963	0	
2.3387	14.8659	0	0	
2.3393	27.3798	3.96899	0	
2.3400	25.5454	4.57412	0	
2.3407	13.6392	5.17926	0	
2.3413	-1.00156	6.40733	0	
2.3420	-9.55422	5.80219	0	
2.3427	-11.9962	4.27155	0	
2.3433	-17.7918	2.74091	0	
2.3440	-16.5651	2.74091	0	
2.3447	0.213816	4.87669	0	
2.3453	9.67801	8.24054	0	
2.3460	1.74429	7.6354	0	
2.3467	0.517661	4.57412	0	
2.3473	10.8934	3.66642	0	
2.3480	11.8162	3.66642	0	
2.3487	3.8712	3.66642	0	
2.3493	-1.92435	4.57412	0	
2.3500	-8.32759	4.57412	0	
2.3507	-15.0459	-2.13578	0	
2.3513	-19.3223	-14.3453	0	
2.3520	-24.5101	-25.3268	0	
2.3527	-24.814	-27.16	0	
2.3533	-17.7918	-19.8449	0	
2.3540	-13.5154	-12.2095	0	
2.3547	-16.5651	-10.6789	0	
2.3553	-18.0956	-10.0737	0	
2.3560	-14.7421	-7.6354	0	
2.3567	-14.7421	-5.49963	0	
2.3573	-19.3223	-4.57412	0	
2.3580	-17.1841	-3.36385	0	
2.3587	-1.00156	-0.907705	0	
2.3593	16.3851	0.605137	0	
2.3600	20.6614	0	0	
2.3607	12.7277	-2.13578	0	
2.3613	3.26351	-3.66642	0	
2.3620	-6.50452	-5.19706	0	
2.3627	-17.7918	-5.49963	0	
2.3633	-21.1453	-3.06128	0	
2.3640	-8.63143	0	0	
2.3647	3.26351	1.53064	0	
2.3653	-2.22819	3.66642	0	
2.3660	-13.2116	2.74091	0	
2.3667	-13.2116	-3.06128	0	
2.3673	-7.7199	-5.49963	0	
2.3680	-3.75867	-3.66642	0	
2.3687	-1.31666	-1.83321	0	
2.3693	-1.00156	1.53064	0	
2.3700	1.12535	4.87669	0	
2.3707	7.53984	3.04348	0	
2.3713	14.562	2.43835	0	
2.3720	17.3079	5.17926	0	
2.3727	15.7774	2.74091	0	
2.3733	9.98185	-1.83321	0	
2.3740	4.49014	-0.605137	0	
2.3747	-1.00156	0.605137	0	
2.3753	-7.11221	0.605137	0	
2.3760	-5.27789	6.10476	0	
2.3767	4.49014	12.2095	0	
2.3773	9.05906	10.0737	0	
2.3780	5.70552	3.04348	0	
2.3787	5.09783	-0.907705	0	
2.3793	6.31321	0	0	
2.3800	3.8712	0.907705	0	
2.3807	5.09783	-0.907705	0	
2.3813	9.98185	-0.302568	0	
2.3820	7.53984	2.13578	0	
2.3827	3.56736	0.605137	0	
2.3833	5.09783	-2.13578	0	
2.3840	1.74429	-1.53064	0	
2.3847	-1.92435	-1.83321	0	
2.3853	7.236	-1.83321	0	
2.3860	19.1309	3.04348	0	
2.3867	17.9156	6.10476	0	
2.3873	13.9431	4.27155	0	
2.3880	13.0315	3.04348	0	
2.3887	11.1972	2.74091	0	
2.3893	10.8934	1.22807	0	
2.3900	12.12	1.83321	0	
2.3907	10.2857	1.22807	0	
2.3913	7.53984	-1.22807	0	
2.3920	5.40168	-2.13578	0	
2.3927	2.65582	-0.907705	0	
2.3933	-0.090028	0.907705	0	
2.3940	-1.92435	2.43835	0	
2.3947	-1.6205	2.74091	0	
2.3953	2.04814	1.53064	0	
2.3960	4.49014	2.13578	0	
2.3967	2.65582	3.96899	0	
2.3973	-1.00156	3.66642	0	
2.3980	-4.06251	0.907705	0	
2.3987	-2.53204	-0.302568	0	
2.3993	2.65582	2.74091	0	
2.4000	5.09783	5.17926	0	
2.4007	2.04814	1.83321	0	
2.4013	0.821505	-1.83321	0	
2.4020	2.95967	-1.53064	0	
2.4027	7.236	-3.66642	0	
2.4033	11.1972	-7.33283	0	
2.4040	10.8934	-5.49963	0	
2.4047	9.98185	-3.36385	0	
2.4053	11.5011	-4.27155	0	
2.4060	10.8934	-3.66642	0	
2.4067	7.53984	-0.605137	0	
2.4073	7.236	0	0	
2.4080	9.37416	0	0	
2.4087	10.8934	0	0	
2.4093	9.98185	0.302568	0	
2.4100	6.31321	1.22807	0	
2.4107	3.26351	0	0	
2.4113	3.56736	-1.53064	0	
2.4120	4.1863	1.22807	0	
2.4127	2.95967	3.36385	0	
2.4133	2.04814	0.907705	0	
2.4140	0.821505	0.907705	0	
2.4147	-1.00156	3.04348	0	
2.4153	-3.44357	-0.605137	0	
2.4160	-4.06251	-5.49963	0	
2.4167	-3.75867	-5.19706	0	
2.4173	-4.97405	-3.66642	0	
2.4180	-4.06251	-3.06128	0	
2.4187	-0.090028	-0.907705	0	
2.4193	-0.090028	-1.22807	0	
2.4200	0.821505	-2.43835	0	
2.4207	10.5895	1.22807	0	
2.4213	15.4736	4.57412	0	
2.4220	4.79399	3.04348	0	
2.4227	-3.13973	2.74091	0	
2.4233	-0.090028	2.43835	0	
2.4240	4.79399	0	0	
2.4247	9.05906	-0.302568	0	
2.4253	11.1972	-0.907705	0	
2.4260	7.84369	-2.13578	0	
2.4267	4.49014	0	0	
2.4273	5.40168	-0.907705	0	
2.4280	2.65582	-6.10476	0	
2.4287	-5.58173	-3.66642	0	
2.4293	-6.50452	2.74091	0	
2.4300	0.213816	2.74091	0	
2.4307	4.79399	0.907705	0	
2.4313	5.09783	2.13578	0	
2.4320	3.8712	1.83321	0	
2.4327	2.65582	2.13578	0	
2.4333	0.517661	2.74091	0	
2.4340	-4.06251	-1.53064	0	
2.4347	-7.7199	-3.36385	0	
2.4353	-8.02374	0	0	
2.4360	-6.50452	-0.907705	0	
2.4367	-7.41605	-2.74091	0	
2.4373	-8.32759	0	0	
2.4380	-6.50452	1.22807	0	
2.4387	-3.44357	0	0	
2.4393	-1.92435	0	0	
2.4400	-1.00156	0	0	
2.4407	-1.6205	-0.907705	0	
2.4413	-3.13973	-3.66642	0	
2.4420	-1.31666	-8.24054	0	
2.4427	6.93215	-7.01247	0	
2.4433	13.3354	-2.43835	0	
2.4440	14.8659	-4.27155	0	
2.4447	25.2416	-6.10476	0	
2.4453	42.9433	-0.907705	0	
2.4460	46.2969	0.907705	0	
2.4467	31.0371	-1.22807	0	
2.4473	12.4239	2.43835	0	
2.4480	-5.27789	4.57412	0	
2.4487	-24.5101	0.907705	0	
2.4493	-37.6317	-0.907705	0	
2.4500	-34.5707	-2.74091	0	
2.4507	-19.6261	-3.36385	0	
2.4513	-12.3001	1.83321	0	
2.4520	-18.3995	3.96899	0	
2.4527	-22.0681	-0.907705	0	
2.4533	-18.3995	-4.57412	0	
2.4540	-16.5651	-5.80219	0	
2.4547	-16.2613	-4.87669	0	
2.4553	-15.6536	0	0	
2.4560	-17.4879	1.53064	0	
2.4567	-17.4879	-1.83321	0	
2.4573	-14.7421	-1.22807	0	
2.4580	-15.6536	0.907705	0	
2.4587	-14.1344	0.605137	0	
2.4593	-8.32759	1.83321	0	
2.4600	-8.32759	4.27155	0	
2.4607	-10.1619	3.36385	0	
2.4613	-5.58173	1.83321	0	
2.4620	-4.6702	2.13578	0	
2.4627	-8.32759	1.83321	0	
2.4633	-7.41605	1.83321	0	
2.4640	-3.44357	2.13578	0	
2.4647	-1.31666	1.83321	0	
2.4653	-1.31666	0.907705	0	
2.4660	-1.6205	-1.83321	0	
2.4667	-1.00156	-6.40733	0	
2.4673	-0.697717	-10.0737	0	
2.4680	-1.31666	-8.54311	0	
2.4687	-1.00156	-3.66642	0	
2.4693	-1.92435	-0.302568	0	
2.4700	-4.97405	0	0	
2.4707	-3.75867	-0.302568	0	
2.4713	0.213816	-0.605137	0	
2.4720	-0.393872	-1.22807	0	
2.4727	-5.58173	-3.06128	0	
2.4733	-8.94653	-2.74091	0	
2.4740	-8.02374	1.22807	0	
2.4747	-9.25037	6.10476	0	
2.4753	-14.7421	7.31504	0	
2.4760	-13.8193	4.57412	0	
2.4767	-4.97405	3.66642	0	
2.4773	-1.92435	6.7099	0	
2.4780	-4.97405	7.31504	0	
2.4787	-7.7199	4.57412	0	
2.4793	-9.85806	4.27155	0	
2.4800	-8.32759	3.36385	0	
2.4807	-1.31666	-0.907705	0	
2.4813	1.44045	-3.66642	0	
2.4820	0.821505	-4.57412	0	
2.4827	7.236	-3.36385	0	
2.4833	17.3079	0.302568	0	
2.4840	19.1309	0.907705	0	
2.4847	14.8659	-2.43835	0	
2.4853	9.05906	-0.907705	0	
2.4860	5.09783	1.53064	0	
2.4867	4.49014	-0.907705	0	
2.4873	4.1863	-2.74091	0	
2.4880	2.65582	-0.907705	0	
2.4887	2.04814	-1.22807	0	
2.4893	3.56736	-2.43835	0	
2.4900	6.62831	-0.302568	0	
2.4907	5.40168	0.907705	0	
2.4913	-0.090028	0	0	
2.4920	-0.090028	0.605137	0	
2.4927	2.65582	2.43835	0	
2.4933	-0.090028	3.66642	0	
2.4940	-3.13973	3.66642	0	
2.4947	-1.00156	2.43835	0	
2.4953	-1.00156	0.907705	0	
2.4960	-4.6702	0.605137	0	
2.4967	-4.97405	0.907705	0	
2.4973	-2.22819	0	0	
2.4980	-1.6205	-3.06128	0	
2.4987	-5.88558	-5.49963	0	
2.4993	-8.94653	-4.57412	0	
2.5000	0.517661	0.605137	0	
2.5007	15.7774	4.87669	0	
2.5013	20.0537	5.49963	0	
2.5020	14.562	5.49963	0	
2.5027	11.8162	6.7099	0	
2.5033	12.7277	5.80219	0	
2.5040	13.9431	4.57412	0	
2.5047	16.3851	6.10476	0	
2.5053	17.004	5.49963	0	
2.5060	10.8934	3.36385	0	
2.5067	3.26351	3.96899	0	
2.5073	2.04814	4.87669	0	
2.5080	3.8712	0.605137	0	
2.5087	2.65582	-5.19706	0	
2.5093	-0.393872	-8.24054	0	
2.5100	0.517661	-8.84568	0	
2.5107	2.65582	-8.24054	0	
2.5113	1.74429	-5.19706	0	
2.5120	0.821505	-2.74091	0	
2.5127	2.04814	-2.74091	0	
2.5133	2.65582	-3.96899	0	
2.5140	0.213816	-3.66642	0	
2.5147	-1.6205	-0.605137	0	
2.5153	-1.92435	1.22807	0	
2.5160	-3.13973	0	0	
2.5167	-5.27789	-0.302568	0	
2.5173	-6.18942	0.302568	0	
2.5180	-6.50452	-1.53064	0	
2.5187	-5.58173	-3.06128	0	
2.5193	-1.6205	-0.907705	0	
2.5200	1.74429	0	0	
2.5207	0.213816	-1.83321	0	
2.5213	-1.00156	-0.907705	0	
2.5220	1.44045	0.302568	0	
2.5227	2.35198	-0.302568	0	
2.5233	1.44045	-0.907705	0	
2.5240	2.65582	-2.13578	0	
2.5247	4.49014	-3.66642	0	
2.5253	5.70552	-1.83321	0	
2.5260	7.53984	0	0	
2.5267	7.236	-0.907705	0	
2.5273	5.40168	0	0	
2.5280	6.31321	1.53064	0	
2.5287	7.236	0.907705	0	
2.5293	4.79399	0.605137	0	
2.5300	3.26351	1.53064	0	
2.5307	3.26351	2.74091	0	
2.5313	-0.090028	4.27155	0	
2.5320	-4.36636	4.57412	0	
2.5327	-2.83588	3.04348	0	
2.5333	-1.00156	4.27155	0	
2.5340	-5.27789	4.57412	0	
2.5347	-8.63143	-0.907705	0	
2.5353	-7.41605	-5.19706	0	
2.5360	-9.85806	-2.13578	0	
2.5367	-11.0734	-0.907705	0	
2.5373	-6.18942	-4.87669	0	
2.5380	-4.6702	-6.40733	0	
2.5387	-8.02374	-4.57412	0	
2.5393	-6.80836	-3.66642	0	
2.5400	-5.27789	-2.43835	0	
2.5407	-4.6702	0	0	
2.5413	-1.00156	-0.605137	0	
2.5420	0.213816	-1.22807	0	
2.5427	1.12535	-1.83321	0	
2.5433	3.26351	-4.57412	0	
2.5440	2.65582	-4.27155	0	
2.5447	8.45138	0.907705	0	
2.5453	24.3188	4.27155	0	
2.5460	27.3798	3.66642	0	
2.5467	16.0812	3.66642	0	
2.5473	12.4239	3.04348	0	
2.5480	12.7277	-0.605137	0	
2.5487	7.236	-2.74091	0	
2.5493	3.56736	-1.83321	0	
2.5500	3.56736	-0.907705	0	
2.5507	-1.00156	-2.43835	0	
2.5513	-11.3773	-4.87669	0	
2.5520	-18.3995	-5.49963	0	
2.5527	-12.3001	-2.74091	0	
2.5533	0.517661	-0.605137	0	
2.5540	2.65582	-1.83321	0	
2.5547	-1.92435	-3.06128	0	
2.5553	-1.31666	-1.83321	0	
2.5560	-3.13973	-0.907705	0	
2.5567	-14.7421	-0.907705	0	
2.5573	-25.7255	0.605137	0	
2.5580	-26.9409	0	0	
2.5587	-22.3719	-3.06128	0	
2.5593	-21.1453	-4.27155	0	
2.5600	-23.8912	-4.57412	0	
2.5607	-16.5651	-3.66642	0	
2.5613	1.74429	2.13578	0	
2.5620	12.12	7.01247	0	
2.5627	8.45138	4.57412	0	
2.5633	3.26351	1.83321	0	
2.5640	2.65582	0.907705	0	
2.5647	3.56736	-3.96899	0	
2.5653	5.70552	-7.33283	0	
2.5660	6.31321	-4.27155	0	
2.5667	5.09783	-1.83321	0	
2.5673	5.40168	0	0	
2.5680	7.236	1.83321	0	
2.5687	9.05906	0	0	
2.5693	8.14753	-1.83321	0	
2.5700	6.93215	0.605137	0	
2.5707	6.31321	0.302568	0	
2.5713	6.31321	-2.43835	0	
2.5720	5.40168	-1.83321	0	
2.5727	1.12535	0.605137	0	
2.5733	-2.83588	2.43835	0	
2.5740	-2.53204	3.36385	0	
2.5747	-1.6205	0.605137	0	
2.5753	-4.06251	-1.83321	0	
2.5760	-4.6702	-0.605137	0	
2.5767	-1.00156	0	0	
2.5773	0.213816	0.302568	0	
2.5780	-1.6205	5.49963	0	
2.5787	-0.090028	7.31504	0	
2.5793	1.44045	3.04348	0	
2.5800	-2.53204	3.96899	0	
2.5807	-4.36636	6.40733	0	
2.5813	-1.00156	2.43835	0	
2.5820	-2.53204	-1.53064	0	
2.5827	-5.27789	0	0	
2.5833	2.35198	2.13578	0	
2.5840	12.4239	3.04348	0	
2.5847	13.3354	0.907705	0	
2.5853	10.8934	-6.40733	0	
2.5860	9.67801	-10.9815	0	
2.5867	7.236	-8.24054	0	
2.5873	6.31321	-5.49963	0	
2.5880	8.45138	-4.27155	0	
2.5887	7.84369	-1.83321	0	
2.5893	5.09783	0	0	
2.5900	3.8712	-1.83321	0	
2.5907	2.65582	-2.74091	0	
2.5913	0.821505	0.605137	0	
2.5920	-0.393872	3.04348	0	
2.5927	-2.22819	0.907705	0	
2.5933	-3.75867	0.605137	0	
2.5940	-5.58173	2.43835	0	
2.5947	-9.25037	1.22807	0	
2.5953	-11.6924	0.302568	0	
2.5960	-11.0734	1.83321	0	
2.5967	-10.1619	1.22807	0	
2.5973	-7.11221	0.907705	0	
2.5980	-1.00156	4.57412	0	
2.5987	0.821505	5.49963	0	
2.5993	-1.92435	2.74091	0	
2.6000	-3.13973	0.907705	0	
2.6007	-3.44357	0.907705	0	
2.6013	-3.44357	0	0	
2.6020	-0.697717	0	0	
2.6027	2.35198	-2.13578	0	
2.6033	2.65582	-3.06128	0	
2.6040	2.35198	-0.907705	0	
2.6047	4.1863	-0.302568	0	
2.6053	6.00937	-1.22807	0	
2.6060	4.49014	0.302568	0	
2.6067	1.74429	2.43835	0	
2.6073	2.65582	1.83321	0	
2.6080	3.26351	0	0	
2.6087	-1.00156	0	0	
2.6093	-4.97405	3.04348	0	
2.6100	-4.36636	4.57412	0	
2.6107	-3.13973	2.13578	0	
2.6113	-2.83588	0	0	
2.6120	-1.31666	-1.83321	0	
2.6127	-1.6205	-5.49963	0	
2.6133	-4.06251	-5.49963	0	
2.6140	-6.18942	-0.907705	0	
2.6147	-8.02374	0.907705	0	
2.6153	-10.7696	0	0	
2.6160	-12.9078	1.83321	0	
2.6167	-12.9078	4.57412	0	
2.6173	-12.9078	5.49963	0	
2.6180	-11.9962	4.57412	0	
2.6187	-11.0734	1.83321	0	
2.6193	-10.1619	1.53064	0	
2.6200	-6.80836	2.74091	0	
2.6207	-1.00156	1.53064	0	
2.6213	2.04814	-0.302568	0	
2.6220	-0.090028	0	0	
2.6227	-1.92435	0.907705	0	
2.6233	-0.090028	-1.83321	0	
2.6240	2.65582	-5.80219	0	
2.6247	3.56736	-7.33283	0	
2.6253	2.65582	-6.10476	0	
2.6260	4.1863	-5.49963	0	
2.6267	6.31321	-4.57412	0	
2.6273	4.79399	-2.74091	0	
2.6280	1.74429	-1.83321	0	
2.6287	1.44045	-1.53064	0	
2.6293	0.821505	-0.605137	0	
2.6300	-1.00156	-2.13578	0	
2.6307	1.12535	-3.06128	0	
2.6313	2.95967	-0.605137	0	
2.6320	0.517661	0.907705	0	
2.6327	0.517661	0.302568	0	
2.6333	6.62831	1.22807	0	
2.6340	7.53984	2.43835	0	
2.6347	2.65582	1.83321	0	
2.6353	3.56736	0.907705	0	
2.6360	6.00937	0.907705	0	
2.6367	-0.090028	3.96899	0	
2.6373	-5.27789	6.40733	0	
2.6380	-4.06251	2.43835	0	
2.6387	-4.06251	-1.83321	0	
2.6393	-2.53204	-0.907705	0	
2.6400	-1.92435	-0.605137	0	
2.6407	-13.8193	0.302568	0	
2.6413	-24.195	4.87669	0	
2.6420	-21.1453	5.17926	0	
2.6427	-18.7033	-0.907705	0	
2.6433	-19.9299	-5.19706	0	
2.6440	-14.1344	-4.87669	0	
2.6447	-7.11221	-3.66642	0	
2.6453	-3.75867	-2.43835	0	
2.6460	-0.090028	-1.83321	0	
2.6467	0.821505	-1.22807	0	
2.6473	-1.00156	0	0	
2.6480	-0.393872	0.907705	0	
2.6487	-0.090028	0	0	
2.6493	0.517661	-1.53064	0	
2.6500	1.44045	-0.605137	0	
2.6507	-1.92435	1.83321	0	
2.6513	-1.92435	2.13578	0	
2.6520	9.37416	-0.907705	0	
2.6527	19.1309	-4.87669	0	
2.6533	16.3851	-5.49963	0	
2.6540	7.53984	-0.907705	0	
2.6547	0.517661	1.53064	0	
2.6553	-4.06251	-0.302568	0	
2.6560	-5.88558	0.302568	0	
2.6567	-2.53204	2.74091	0	
2.6573	4.79399	0.907705	0	
2.6580	6.31321	0	0	
2.6587	0.821505	0.907705	0	
2.6593	-1.6205	-0.302568	0	
2.6600	0.821505	0.302568	0	
2.6607	2.95967	2.13578	0	
2.6613	5.70552	1.53064	0	
2.6620	6.31321	1.83321	0	
2.6627	5.40168	2.74091	0	
2.6633	7.236	1.83321	0	
2.6640	7.53984	2.43835	0	
2.6647	6.31321	1.83321	0	
2.6653	14.562	0.605137	0	
2.6660	29.2028	2.74091	0	
2.6667	32.8715	2.43835	0	
2.6673	22.7996	-2.74091	0	
2.6680	10.8934	-1.53064	0	
2.6687	6.31321	3.04348	0	
2.6693	6.00937	-0.302568	0	
2.6700	2.65582	-3.96899	0	
2.6707	-1.92435	-3.36385	0	
2.6713	-2.83588	-3.66642	0	
2.6720	-3.13973	-3.66642	0	
2.6727	-6.50452	0.605137	0	
2.6733	-9.25037	0.907705	0	
2.6740	-10.4658	0.907705	0	
2.6747	-11.6924	5.49963	0	
2.6753	-11.0734	5.49963	0	
2.6760	-8.63143	-0.605137	0	
2.6767	-6.18942	-0.907705	0	
2.6773	-4.36636	0.907705	0	
2.6780	-3.75867	-0.907705	0	
2.6787	-4.36636	-0.907705	0	
2.6793	-3.75867	0.907705	0	
2.6800	-2.53204	-0.907705	0	
2.6807	-1.6205	-2.74091	0	
2.6813	-0.090028	-1.22807	0	
2.6820	1.44045	0	0	
2.6827	0.821505	0.605137	0	
2.6833	0.517661	0.907705	0	
2.6840	2.95967	-0.302568	0	
2.6847	6.31321	-0.907705	0	
2.6853	5.70552	2.13578	0	
2.6860	2.65582	5.49963	0	
2.6867	1.44045	5.80219	0	
2.6873	4.49014	3.66642	0	
2.6880	9.05906	0.302568	0	
2.6887	11.8162	-1.83321	0	
2.6893	9.37416	-0.605137	0	
2.6900	3.56736	3.36385	0	
2.6907	0.517661	3.96899	0	
2.6913	1.44045	-0.605137	0	
2.6920	0.213816	-5.80219	0	
2.6927	-4.97405	-9.14825	0	
2.6933	-8.02374	-9.14825	0	
2.6940	-9.85806	-5.49963	0	
2.6947	-14.4382	-1.83321	0	
2.6953	-16.8802	-2.13578	0	
2.6960	-14.4382	-3.66642	0	
2.6967	-11.9962	-2.74091	0	
2.6973	-10.1619	0.605137	0	
2.6980	-1.92435	5.49963	0	
2.6987	9.05906	8.54311	0	
2.6993	11.5011	7.31504	0	
2.7000	3.56736	5.17926	0	
2.7007	-0.393872	3.04348	0	
2.7013	2.65582	1.22807	0	
2.7020	3.26351	1.83321	0	
2.7027	1.74429	1.53064	0	
2.7033	6.62831	-4.57412	0	
2.7040	13.3354	-9.14825	0	
2.7047	10.8934	-8.24054	0	
2.7053	4.79399	-9.77118	0	
2.7060	4.49014	-13.4198	0	
2.7067	5.40168	-10.3763	0	
2.7073	-0.090028	-4.57412	0	
2.7080	-5.58173	-2.74091	0	
2.7087	-3.75867	-1.83321	0	
2.7093	-2.83588	-0.907705	0	
2.7100	-6.80836	-0.302568	0	
2.7107	-6.50452	-0.907705	0	
2.7113	-4.36636	-2.74091	0	
2.7120	-6.50452	-3.06128	0	
2.7127	-3.75867	0	0	
2.7133	6.00937	2.74091	0	
2.7140	6.31321	3.36385	0	
2.7147	-3.13973	3.66642	0	
2.7153	-7.41605	2.43835	0	
2.7160	-5.27789	-0.605137	0	
2.7167	-4.97405	0	0	
2.7173	-5.88558	0.605137	0	
2.7180	-5.27789	-1.22807	0	
2.7187	-5.27789	-0.907705	0	
2.7193	-5.27789	1.22807	0	
2.7200	-2.83588	1.53064	0	
2.7207	-1.00156	3.96899	0	
2.7213	-1.31666	6.40733	0	
2.7220	0.213816	1.83321	0	
2.7227	2.65582	-1.83321	0	
2.7233	1.44045	0.605137	0	
2.7240	2.04814	1.83321	0	
2.7247	8.75522	0.605137	0	
2.7253	13.3354	0	0	
2.7260	11.5011	-0.907705	0	
2.7267	9.37416	-0.605137	0	
2.7273	9.37416	0.907705	0	
2.7280	8.14753	0.907705	0	
2.7287	3.8712	1.53064	0	
2.7293	-1.00156	2.43835	0	
2.7300	-2.83588	1.22807	0	
2.7307	-1.92435	1.53064	0	
2.7313	-4.6702	3.66642	0	
2.7320	-10.1619	1.53064	0	
2.7327	-10.4658	-1.83321	0	
2.7333	-7.41605	-0.907705	0	
2.7340	-4.36636	1.83321	0	
2.7347	-3.13973	3.96899	0	
2.7353	-4.97405	3.66642	0	
2.7360	-8.32759	0.907705	0	
2.7367	-9.25037	0	0	
2.7373	-8.32759	0	0	
2.7380	-6.50452	0	0	
2.7387	-4.6702	1.53064	0	
2.7393	-3.75867	2.74091	0	
2.7400	-3.13973	0.907705	0	
2.7407	-2.53204	-0.605137	0	
2.7413	-1.00156	0	0	
2.7420	5.70552	0.907705	0	
2.7427	17.004	0.302568	0	
2.7433	20.9653	-2.43835	0	
2.7440	16.6889	-4.57412	0	
2.7447	14.8659	-2.13578	0	
2.7453	15.1697	1.83321	0	
2.7460	13.3354	0.605137	0	
2.7467	10.8934	-1.83321	0	
2.7473	5.40168	-1.83321	0	
2.7480	-5.58173	-2.74091	0	
2.7487	-17.1841	-3.36385	0	
2.7493	-20.2338	-1.53064	0	
2.7500	-15.6536	-1.22807	0	
2.7507	-9.25037	-2.74091	0	
2.7513	-4.06251	-1.83321	0	
2.7520	-2.83588	0.302568	0	
2.7527	-5.88558	0	0	
2.7533	-7.41605	-0.907705	0	
2.7540	-7.11221	-0.302568	0	
2.7547	-8.32759	-0.605137	0	
2.7553	-8.94653	-1.53064	0	
2.7560	-5.27789	-1.53064	0	
2.7567	-4.97405	-0.907705	0	
2.7573	-7.41605	0	0	
2.7580	-5.58173	0.907705	0	
2.7587	-2.83588	0.907705	0	
2.7593	-1.31666	0	0	
2.7600	2.65582	0	0	
2.7607	4.49014	0.907705	0	
2.7613	1.74429	0.907705	0	
2.7620	-1.92435	0.907705	0	
2.7627	-2.22819	0.907705	0	
2.7633	1.12535	-0.302568	0	
2.7640	2.65582	-2.13578	0	
2.7647	-0.090028	-0.907705	0	
2.7653	-0.697717	0.907705	0	
2.7660	3.56736	0	0	
2.7667	2.65582	-0.605137	0	
2.7673	-1.6205	1.53064	0	
2.7680	5.09783	0	0	
2.7687	14.2469	-5.19706	0	
2.7693	11.5011	-4.57412	0	
2.7700	4.49014	-1.53064	0	
2.7707	2.65582	-2.13578	0	
2.7713	1.12535	-2.74091	0	
2.7720	-1.6205	0.907705	0	
2.7727	-2.22819	3.04348	0	
2.7733	-1.92435	1.83321	0	
2.7740	-1.6205	1.22807	0	
2.7747	-0.393872	0.907705	0	
2.7753	-0.393872	-1.83321	0	
2.7760	-2.22819	-2.74091	0	
2.7767	-2.83588	-0.907705	0	
2.7773	-4.06251	-0.605137	0	
2.7780	-5.58173	-2.43835	0	
2.7787	0.517661	-2.43835	0	
2.7793	10.8934	-0.302568	0	
2.7800	11.8162	0.302568	0	
2.7807	2.35198	-0.302568	0	
2.7813	-3.13973	0	0	
2.7820	-0.090028	0.907705	0	
2.7827	3.56736	0.605137	0	
2.7833	5.09783	0	0	
2.7840	6.93215	1.22807	0	
2.7847	7.84369	3.04348	0	
2.7853	5.09783	2.74091	0	
2.7860	-3.44357	1.22807	0	
2.7867	-9.85806	0.907705	0	
2.7873	-1.31666	3.66642	0	
2.7880	9.67801	6.10476	0	
2.7887	10.2857	4.57412	0	
2.7893	12.7277	1.83321	0	
2.7900	20.6614	2.74091	0	
2.7907	18.2194	4.57412	0	
2.7913	9.05906	3.66642	0	
2.7920	3.26351	4.57412	0	
2.7927	-2.22819	8.24054	0	
2.7933	-6.80836	6.10476	0	
2.7940	-9.25037	1.22807	0	
2.7947	-12.6039	2.43835	0	
2.7953	-14.4382	3.66642	0	
2.7960	-15.0459	-4.27155	0	
2.7967	-19.0072	-14.9504	0	
2.7973	-18.0956	-17.3888	0	
2.7980	-10.4658	-12.2095	0	
2.7987	-7.41605	-6.40733	0	
2.7993	-6.18942	-3.66642	0	
2.8000	-1.31666	-3.66642	0	
2.8007	-0.697717	-3.96899	0	
2.8013	-4.6702	-2.74091	0	
2.8020	-7.11221	0	0	
2.8027	-3.44357	0.302568	0	
2.8033	5.40168	-2.13578	0	
2.8040	11.5011	-2.13578	0	
2.8047	5.70552	0.907705	0	
2.8053	-1.31666	3.04348	0	
2.8060	1.12535	3.04348	0	
2.8067	6.00937	3.66642	0	
2.8073	5.09783	3.66642	0	
2.8080	2.35198	2.74091	0	
2.8087	0.821505	3.66642	0	
2.8093	-1.92435	2.13578	0	
2.8100	-2.83588	-2.74091	0	
2.8107	1.74429	-3.66642	0	
2.8113	8.45138	0.302568	0	
2.8120	12.4239	0	0	
2.8127	10.5895	-4.57412	0	
2.8133	3.56736	-4.87669	0	
2.8140	-1.6205	-1.22807	0	
2.8147	-1.31666	-0.907705	0	
2.8153	-1.31666	-1.83321	0	
2.8160	-4.06251	-0.907705	0	
2.8167	-4.36636	0.605137	0	
2.8173	-3.75867	0.605137	0	
2.8180	-2.83588	1.53064	0	
2.8187	0.213816	1.83321	0	
2.8193	2.04814	0.302568	0	
2.8200	0.213816	-0.302568	0	
2.8207	-1.31666	-0.302568	0	
2.8213	-0.090028	0	0	
2.8220	0.517661	0.302568	0	
2.8227	-0.090028	-0.907705	0	
2.8233	2.04814	-1.83321	0	
2.8240	4.49014	1.22807	0	
2.8247	1.12535	2.13578	0	
2.8253	-1.31666	-2.74091	0	
2.8260	9.05906	-1.83321	0	
2.8267	18.2194	2.74091	0	
2.8273	11.1972	-0.907705	0	
2.8280	5.09783	-5.80219	0	
2.8287	7.53984	-2.74091	0	
2.8293	6.31321	-0.907705	0	
2.8300	2.65582	-3.66642	0	
2.8307	2.65582	-3.66642	0	
2.8313	0.517661	0	0	
2.8320	-0.090028	1.53064	0	
2.8327	2.65582	2.13578	0	
2.8333	0.821505	4.87669	0	
2.8340	-4.97405	5.49963	0	
2.8347	-6.50452	3.66642	0	
2.8353	-6.50452	1.83321	0	
2.8360	-3.75867	0.907705	0	
2.8367	3.8712	0.605137	0	
2.8373	7.236	2.74091	0	
2.8380	5.40168	3.96899	0	
2.8387	6.31321	1.83321	0	
2.8393	4.49014	0.302568	0	
2.8400	-0.090028	0.302568	0	
2.8407	-0.393872	-0.907705	0	
2.8413	-4.6702	-2.43835	0	
2.8420	-16.2613	-1.22807	0	
2.8427	-20.2338	-0.302568	0	
2.8433	-13.5154	-1.22807	0	
2.8440	-9.25037	-2.43835	0	
2.8447	-7.41605	-2.74091	0	
2.8453	-2.22819	-2.13578	0	
2.8460	0.821505	-2.43835	0	
2.8467	-1.92435	-2.43835	0	
2.8473	-4.6702	0.302568	0	
2.8480	-3.75867	1.83321	0	
2.8487	-1.6205	-0.605137	0	
2.8493	-0.090028	-0.605137	0	
2.8500	1.44045	2.13578	0	
2.8507	0.821505	1.22807	0	
2.8513	-1.31666	0	0	
2.8520	-1.00156	1.53064	0	
2.8527	0.213816	-0.907705	0	
2.8533	-1.00156	-5.19706	0	
2.8540	-2.83588	-3.66642	0	
2.8547	-6.50452	0	0	
2.8553	-8.63143	0	0	
2.8560	-6.50452	-0.907705	0	
2.8567	-4.06251	-1.53064	0	
2.8573	-3.75867	-1.83321	0	
2.8580	-3.44357	0	0	
2.8587	-7.41605	1.83321	0	
2.8593	-10.1619	0	0	
2.8600	1.74429	0.907705	0	
2.8607	12.7277	5.80219	0	
2.8613	6.00937	7.01247	0	
2.8620	-0.090028	3.66642	0	
2.8627	2.04814	3.04348	0	
2.8633	-1.92435	3.96899	0	
2.8640	-6.80836	1.53064	0	
2.8647	2.65582	-1.83321	0	
2.8653	12.7277	-3.96899	0	
2.8660	10.8934	-5.49963	0	
2.8667	4.79399	-2.13578	0	
2.8673	2.65582	1.53064	0	
2.8680	5.09783	-1.22807	0	
2.8687	8.14753	-4.57412	0	
2.8693	10.2857	-5.49963	0	
2.8700	14.562	-8.24054	0	
2.8707	18.2194	-10.9815	0	
2.8713	14.562	-7.93797	0	
2.8720	6.00937	-4.27155	0	
2.8727	0.517661	-3.96899	0	
2.8733	-4.6702	-2.13578	0	
2.8740	-11.0734	0.605137	0	
2.8747	-13.5154	0	0	
2.8753	-10.7696	-0.907705	0	
2.8760	-8.02374	0.605137	0	
2.8767	-6.50452	1.53064	0	
2.8773	-7.41605	2.13578	0	
2.8780	-9.85806	5.17926	0	
2.8787	-6.50452	6.40733	0	
2.8793	-0.393872	3.66642	0	
2.8800	-0.697717	1.22807	0	
2.8807	-0.090028	0	0	
2.8813	5.09783	-2.74091	0	
2.8820	7.236	-3.96899	0	
2.8827	6.31321	-3.66642	0	
2.8833	5.70552	-3.06128	0	
2.8840	3.56736	-2.13578	0	
2.8847	3.8712	-0.907705	0	
2.8853	8.14753	-0.302568	0	
2.8860	10.2857	0.605137	0	
2.8867	10.2857	1.83321	0	
2.8873	10.5895	1.83321	0	
2.8880	12.12	0.907705	0	
2.8887	19.1309	0.907705	0	
2.8893	25.5454	1.22807	0	
2.8900	22.1919	1.22807	0	
2.8907	15.7774	0.605137	0	
2.8913	5.40168	0	0	
2.8920	-10.7696	-0.605137	0	
2.8927	-19.3223	-2.13578	0	
2.8933	-11.3773	-3.06128	0	
2.8940	2.95967	-0.907705	0	
2.8947	14.562	1.83321	0	
2.8953	13.6392	3.66642	0	
2.8960	0.517661	5.17926	0	
2.8967	-10.7696	1.53064	0	
2.8973	-15.3498	-2.43835	0	
2.8980	-18.7033	0.907705	0	
2.8987	-15.6536	4.87669	0	
2.8993	-7.41605	2.74091	0	
2.9000	-5.58173	0	0	
2.9007	-9.25037	-3.06128	0	
2.9013	-10.4658	-7.6354	0	
2.9020	-10.1619	-8.24054	0	
2.9027	-5.58173	-3.66642	0	
2.9033	3.8712	-0.302568	0	
2.9040	11.1972	-0.302568	0	
2.9047	15.4736	0	0	
2.9053	20.6614	2.74091	0	
2.9060	20.9653	1.83321	0	
2.9067	15.4736	-4.87669	0	
2.9073	13.0315	-8.24054	0	
2.9080	14.562	-5.19706	0	
2.9087	12.4239	-4.87669	0	
2.9093	5.09783	-5.80219	0	
2.9100	-2.83588	0.302568	0	
2.9107	-8.32759	6.40733	0	
2.9113	-11.0734	4.87669	0	
2.9120	-14.4382	2.13578	0	
2.9127	-16.8802	1.22807	0	
2.9133	-17.1841	0	0	
2.9140	-15.9575	0.302568	0	
2.9147	-12.9078	2.13578	0	
2.9153	-8.94653	3.66642	0	
2.9160	-8.32759	4.87669	0	
2.9167	-8.63143	3.96899	0	
2.9173	-5.88558	0.302568	0	
2.9180	-4.6702	-0.302568	0	
2.9187	-5.58173	1.22807	0	
2.9193	-6.50452	0.302568	0	
2.9200	-7.41605	-1.22807	0	
2.9207	-5.58173	-1.22807	0	
2.9213	-0.090028	-0.907705	0	
2.9220	1.44045	0.605137	0	
2.9227	-0.697717	1.53064	0	
2.9233	2.65582	0	0	
2.9240	7.236	0	0	
2.9247	6.31321	1.83321	0	
2.9253	4.49014	1.22807	0	
2.9260	2.95967	-0.907705	0	
2.9267	2.35198	-2.74091	0	
2.9273	2.95967	-2.74091	0	
2.9280	2.65582	-1.22807	0	
2.9287	1.12535	0	0	
2.9293	0.821505	0	0	
2.9300	0.213816	-0.907705	0	
2.9307	-0.090028	-1.83321	0	
2.9313	2.65582	-1.83321	0	
2.9320	6.31321	0	0	
2.9327	4.1863	0	0	
2.9333	-1.31666	-1.22807	0	
2.9340	-6.50452	2.74091	0	
2.9347	-8.32759	4.27155	0	
2.9353	-8.94653	0.907705	0	
2.9360	-9.85806	0.605137	0	
2.9367	-8.32759	2.74091	0	
2.9373	-7.11221	2.74091	0	
2.9380	-8.63143	3.66642	0	
2.9387	-9.25037	3.66642	0	
2.9393	-7.41605	2.74091	0	
2.9400	-5.88558	3.36385	0	
2.9407	-3.13973	1.53064	0	
2.9413	-0.090028	-2.13578	0	
2.9420	0.213816	-3.96899	0	
2.9427	-0.090028	-7.33283	0	
2.9433	-1.00156	-8.24054	0	
2.9440	-4.06251	-2.74091	0	
2.9447	-2.83588	-0.907705	0	
2.9453	5.70552	-2.43835	0	
2.9460	14.2469	2.43835	0	
2.9467	17.3079	4.57412	0	
2.9473	14.2469	0.302568	0	
2.9480	8.14753	-0.302568	0	
2.9487	5.40168	0.907705	0	
2.9493	4.79399	0.302568	0	
2.9500	0.821505	2.74091	0	
2.9507	-4.6702	3.36385	0	
2.9513	-5.58173	0	0	
2.9520	-1.92435	0	0	
2.9527	2.04814	0.907705	0	
2.9533	0.821505	-0.907705	0	
2.9540	-2.53204	0.907705	0	
2.9547	-3.13973	4.57412	0	
2.9553	-2.53204	2.13578	0	
2.9560	-1.00156	-1.83321	0	
2.9567	1.44045	-0.907705	0	
2.9573	-0.393872	1.53064	0	
2.9580	-5.88558	1.22807	0	
2.9587	-8.32759	0.605137	0	
2.9593	-7.41605	1.53064	0	
2.9600	-6.50452	1.83321	0	
2.9607	-5.88558	1.53064	0	
2.9613	-3.75867	1.83321	0	
2.9620	-1.00156	1.83321	0	
2.9627	-0.090028	1.22807	0	
2.9633	0.821505	0.302568	0	
2.9640	4.1863	-0.907705	0	
2.9647	6.31321	-1.53064	0	
2.9653	4.49014	-0.605137	0	
2.9660	7.53984	-0.907705	0	
2.9667	15.4736	-2.74091	0	
2.9673	15.7774	-3.06128	0	
2.9680	8.75522	-3.66642	0	
2.9687	3.26351	-4.87669	0	
2.9693	-0.090028	-3.06128	0	
2.9700	-4.06251	0	0	
2.9707	-5.88558	-3.66642	0	
2.9713	-3.75867	-6.40733	0	
2.9720	-0.090028	-1.53064	0	
2.9727	2.35198	2.43835	0	
2.9733	2.65582	1.53064	0	
2.9740	2.65582	3.66642	0	
2.9747	1.44045	6.40733	0	
2.9753	-1.00156	5.80219	0	
2.9760	2.65582	5.49963	0	
2.9767	8.45138	4.27155	0	
2.9773	5.40168	0	0	
2.9780	-0.090028	-1.83321	0	
2.9787	-1.00156	0.605137	0	
2.9793	-3.44357	2.13578	0	
2.9800	-10.7696	0.605137	0	
2.9807	-15.9575	-3.06128	0	
2.9813	-16.8802	-7.33283	0	
2.9820	-14.4382	-12.2095	0	
2.9827	-9.25037	-13.7402	0	
2.9833	-3.75867	-10.0737	0	
