0.0007	2.01744	-0.162888	0	
0.0013	2.63697	-1.07041	0	
0.0020	2.63697	-1.07041	0	
0.0027	2.63697	-3.21122	0	
0.0033	0.794269	-3.81623	0	
0.0040	-3.78072	-3.51373	0	
0.0047	-4.68619	-8.40037	0	
0.0053	-3.16119	-12.6587	0	
0.0060	-2.55755	-9.9129	0	
0.0067	-0.41302	-5.65454	0	
0.0073	0.794269	-4.11874	0	
0.0080	-1.93802	-3.21122	0	
0.0087	-1.93802	-0.465394	0	
0.0093	1.71562	4.72375	0	
0.0100	2.63697	10.8204	0	
0.0107	0.794269	13.5662	0	
0.0113	-0.111198	9.9129	0	
0.0120	2.63697	3.51373	0	
0.0127	4.46379	-0.465394	0	
0.0133	3.54244	-1.37291	0	
0.0140	1.71562	-3.81623	0	
0.0147	2.63697	-3.21122	0	
0.0153	4.46379	2.88545	0	
0.0160	4.46379	5.02626	0	
0.0167	3.24062	1.67542	0	
0.0173	2.63697	3.21122	0	
0.0180	2.63697	5.95705	0	
0.0187	2.63697	2.58294	0	
0.0193	2.63697	-1.67542	0	
0.0200	1.71562	-1.37291	0	
0.0207	-1.63619	-2.28043	0	
0.0213	-4.68619	-3.81623	0	
0.0220	-2.85937	-2.28043	0	
0.0227	-0.111198	1.07041	0	
0.0233	-1.03255	1.37291	0	
0.0240	-0.41302	-1.67542	0	
0.0247	1.11198	-4.42125	0	
0.0253	-0.41302	-6.56206	0	
0.0260	-1.33437	-7.16707	0	
0.0267	1.71562	-4.72375	0	
0.0273	2.63697	-1.67542	0	
0.0280	0.794269	0.767901	0	
0.0287	-0.111198	2.58294	0	
0.0293	-0.730727	4.42125	0	
0.0300	-0.111198	7.16707	0	
0.0307	2.01744	7.77209	0	
0.0313	2.63697	5.32877	0	
0.0320	1.71562	3.81623	0	
0.0327	2.63697	2.28043	0	
0.0333	1.71562	-2.90871	0	
0.0340	-1.93802	-5.65454	0	
0.0347	-2.85937	-4.72375	0	
0.0353	0.492447	-7.79536	0	
0.0360	3.54244	-12.0537	0	
0.0367	1.11198	-9.00538	0	
0.0373	-3.78072	-5.95705	0	
0.0380	-4.68619	-9.61039	0	
0.0387	-1.93802	-12.3562	0	
0.0393	1.11198	-8.70287	0	
0.0400	1.71562	0.139618	0	
0.0407	-0.730727	11.7512	0	
0.0413	-3.78072	17.8479	0	
0.0420	-4.68619	13.5662	0	
0.0427	-4.08254	5.32877	0	
0.0433	-4.38436	-0.162888	0	
0.0440	-4.08254	-1.07041	0	
0.0447	-2.25572	1.67542	0	
0.0453	0.190625	2.58294	0	
0.0460	1.71562	0.767901	0	
0.0467	-0.111198	1.37291	0	
0.0473	-2.55755	4.42125	0	
0.0480	-1.63619	4.72375	0	
0.0487	1.11198	3.21122	0	
0.0493	1.71562	1.97793	0	
0.0500	0.190625	2.88545	0	
0.0507	-1.03255	5.95705	0	
0.0513	-1.03255	5.32877	0	
0.0520	-0.111198	-0.162888	0	
0.0527	-0.41302	-3.51373	0	
0.0533	-0.41302	-3.51373	0	
0.0540	0.190625	-4.11874	0	
0.0547	-0.41302	-4.11874	0	
0.0553	-1.63619	-5.65454	0	
0.0560	-1.03255	-10.5412	0	
0.0567	-0.111198	-9.30789	0	
0.0573	0.190625	-3.81623	0	
0.0580	-0.730727	-3.51373	0	
0.0587	-1.93802	-3.51373	0	
0.0593	-0.111198	7.16707	0	
0.0600	1.11198	15.4046	0	
0.0607	-2.55755	10.8204	0	
0.0613	-4.68619	3.21122	0	
0.0620	-1.03255	1.67542	0	
0.0627	0.190625	0.139618	0	
0.0633	-0.111198	-3.81623	0	
0.0640	0.794269	-4.72375	0	
0.0647	2.01744	-2.60621	0	
0.0653	4.46379	0.767901	0	
0.0660	9.96013	4.72375	0	
0.0667	10.5638	6.86457	0	
0.0673	5.98879	5.63127	0	
0.0680	4.46379	4.72375	0	
0.0687	6.29061	7.46958	0	
0.0693	5.68697	10.2154	0	
0.0700	4.76561	8.40037	0	
0.0707	3.86015	5.02626	0	
0.0713	-0.111198	5.32877	0	
0.0720	-5.00389	4.42125	0	
0.0727	-11.1039	-2.60621	0	
0.0733	-18.427	-11.4487	0	
0.0740	-21.1752	-19.9887	0	
0.0747	-19.3325	-22.1295	0	
0.0753	-19.3325	-12.9612	0	
0.0760	-18.7289	-3.81623	0	
0.0767	-13.852	-4.72375	0	
0.0773	-8.95935	-3.81623	0	
0.0780	-6.52889	7.16707	0	
0.0787	-3.78072	16.3353	0	
0.0793	-1.63619	17.8479	0	
0.0800	-0.41302	16.3353	0	
0.0807	1.4138	8.70287	0	
0.0813	2.63697	-6.25955	0	
0.0820	3.24062	-16.3353	0	
0.0827	5.38514	-16.6378	0	
0.0833	10.262	-14.7995	0	
0.0840	12.0888	-13.892	0	
0.0847	8.13331	-8.40037	0	
0.0853	4.16197	0.767901	0	
0.0860	5.38514	6.86457	0	
0.0867	7.21196	10.8204	0	
0.0873	7.21196	14.497	0	
0.0880	9.03878	16.0096	0	
0.0887	10.8656	19.0812	0	
0.0893	10.262	21.827	0	
0.0900	9.03878	16.9404	0	
0.0907	8.73696	9.00538	0	
0.0913	8.13331	6.86457	0	
0.0920	8.13331	6.25955	0	
0.0927	7.51378	3.51373	0	
0.0933	6.91014	1.67542	0	
0.0940	5.98879	1.97793	0	
0.0947	3.24062	-0.767901	0	
0.0953	0.794269	-3.51373	0	
0.0960	-0.111198	0.139618	0	
0.0967	-1.03255	3.51373	0	
0.0973	0.190625	-2.28043	0	
0.0980	3.24062	-9.30789	0	
0.0987	2.63697	-9.30789	0	
0.0993	-1.33437	-9.00538	0	
0.1000	-2.55755	-9.30789	0	
0.1007	-4.08254	-4.72375	0	
0.1013	-7.43436	-1.97793	0	
0.1020	-8.05389	-3.81623	0	
0.1027	-6.83071	-4.11874	0	
0.1033	-5.00389	-0.767901	0	
0.1040	-3.16119	2.28043	0	
0.1047	-3.78072	1.97793	0	
0.1053	-4.68619	-0.162888	0	
0.1060	-3.16119	-1.07041	0	
0.1067	-3.16119	-0.465394	0	
0.1073	-3.78072	-1.07041	0	
0.1080	-1.93802	-1.07041	0	
0.1087	-1.93802	0.465394	0	
0.1093	-3.78072	-0.162888	0	
0.1100	-2.55755	-0.465394	0	
0.1107	-2.85937	1.07041	0	
0.1113	-4.68619	-1.07041	0	
0.1120	-2.55755	-7.46958	0	
0.1127	0.492447	-8.40037	0	
0.1133	0.190625	-3.81623	0	
0.1140	-1.93802	-0.162888	0	
0.1147	-3.78072	0.767901	0	
0.1153	-4.38436	0.139618	0	
0.1160	-1.93802	-1.07041	0	
0.1167	-0.730727	-2.90871	0	
0.1173	-2.85937	-3.81623	0	
0.1180	-5.60754	-2.90871	0	
0.1187	-4.68619	-3.51373	0	
0.1193	-2.25572	-3.81623	0	
0.1200	-2.85937	-2.28043	0	
0.1207	-5.30572	-1.97793	0	
0.1213	-5.00389	-4.72375	0	
0.1220	-4.68619	-4.42125	0	
0.1227	-5.60754	-1.97793	0	
0.1233	-5.30572	-3.81623	0	
0.1240	-3.78072	-5.35204	0	
0.1247	-1.93802	-3.81623	0	
0.1253	0.794269	-3.51373	0	
0.1260	0.794269	-3.81623	0	
0.1267	-0.41302	-1.07041	0	
0.1273	-0.111198	0.767901	0	
0.1280	1.11198	-2.60621	0	
0.1287	1.4138	-2.90871	0	
0.1293	2.33515	1.07041	0	
0.1300	5.06744	0.767901	0	
0.1307	7.81561	-1.97793	0	
0.1313	7.81561	-0.465394	0	
0.1320	4.46379	0.767901	0	
0.1327	1.4138	-1.07041	0	
0.1333	1.71562	-1.67542	0	
0.1340	2.63697	-1.97793	0	
0.1347	2.01744	-4.72375	0	
0.1353	-0.111198	-7.16707	0	
0.1360	-0.41302	-5.95705	0	
0.1367	1.11198	-4.72375	0	
0.1373	0.190625	-7.79536	0	
0.1380	-1.93802	-8.40037	0	
0.1387	-0.730727	-1.37291	0	
0.1393	0.794269	5.95705	0	
0.1400	-2.85937	3.81623	0	
0.1407	-4.68619	-1.07041	0	
0.1413	-1.63619	-2.60621	0	
0.1420	-1.93802	-3.81623	0	
0.1427	-3.78072	-5.35204	0	
0.1433	-3.78072	-3.21122	0	
0.1440	-5.00389	-1.07041	0	
0.1447	-5.90936	-1.67542	0	
0.1453	-3.78072	-2.28043	0	
0.1460	-3.78072	-1.37291	0	
0.1467	-6.52889	0.767901	0	
0.1473	-6.21118	4.11874	0	
0.1480	-3.78072	6.25955	0	
0.1487	-2.85937	3.51373	0	
0.1493	-2.85937	0.465394	0	
0.1500	-1.93802	1.67542	0	
0.1507	0.794269	2.58294	0	
0.1513	3.54244	1.37291	0	
0.1520	3.24062	1.67542	0	
0.1527	0.794269	2.28043	0	
0.1533	-1.03255	0.465394	0	
0.1540	1.11198	-0.767901	0	
0.1547	4.16197	-0.465394	0	
0.1553	2.01744	-0.465394	0	
0.1560	-2.55755	1.07041	0	
0.1567	-1.33437	1.67542	0	
0.1573	1.71562	-1.07041	0	
0.1580	0.794269	0.139618	0	
0.1587	0.794269	6.56206	0	
0.1593	2.93879	7.46958	0	
0.1600	3.86015	4.42125	0	
0.1607	2.93879	5.02626	0	
0.1613	2.63697	3.51373	0	
0.1620	2.93879	-1.07041	0	
0.1627	2.01744	-2.28043	0	
0.1633	0.492447	-0.162888	0	
0.1640	0.190625	0.139618	0	
0.1647	2.33515	-0.162888	0	
0.1653	3.54244	-0.767901	0	
0.1660	4.46379	-3.81623	0	
0.1667	5.38514	-9.00538	0	
0.1673	3.24062	-15.102	0	
0.1680	1.71562	-21.222	0	
0.1687	2.63697	-23.037	0	
0.1693	2.63697	-17.5454	0	
0.1700	-1.03255	-10.8437	0	
0.1707	-2.55755	-9.30789	0	
0.1713	-1.33437	-9.30789	0	
0.1720	1.71562	1.97793	0	
0.1727	7.21196	23.037	0	
0.1733	9.96013	37.3712	0	
0.1740	6.29061	35.2536	0	
0.1747	2.63697	24.5728	0	
0.1753	2.93879	16.6378	0	
0.1760	3.54244	11.4487	0	
0.1767	2.93879	5.32877	0	
0.1773	2.63697	1.97793	0	
0.1780	1.4138	3.81623	0	
0.1787	0.794269	4.72375	0	
0.1793	0.794269	2.88545	0	
0.1800	0.794269	0.767901	0	
0.1807	-0.41302	-1.67542	0	
0.1813	-1.03255	-0.767901	0	
0.1820	-0.730727	1.97793	0	
0.1827	-0.41302	-1.07041	0	
0.1833	-1.03255	-2.90871	0	
0.1840	-1.93802	3.51373	0	
0.1847	-0.41302	4.72375	0	
0.1853	1.11198	-0.767901	0	
0.1860	-0.730727	0.139618	0	
0.1867	-1.03255	2.58294	0	
0.1873	1.71562	-0.465394	0	
0.1880	1.4138	-0.465394	0	
0.1887	-1.03255	1.67542	0	
0.1893	1.11198	0.767901	0	
0.1900	3.54244	0.767901	0	
0.1907	1.71562	0.465394	0	
0.1913	-0.730727	-1.37291	0	
0.1920	0.794269	-0.465394	0	
0.1927	2.63697	0.767901	0	
0.1933	1.71562	-0.465394	0	
0.1940	0.492447	-1.37291	0	
0.1947	0.190625	-2.60621	0	
0.1953	-0.111198	-2.90871	0	
0.1960	-0.111198	-1.07041	0	
0.1967	-0.730727	-2.90871	0	
0.1973	-4.08254	-5.35204	0	
0.1980	-8.95935	-1.37291	0	
0.1987	-13.2325	2.28043	0	
0.1993	-17.5057	-1.07041	0	
0.2000	-19.3325	-4.72375	0	
0.2007	-16.2825	-5.35204	0	
0.2013	-12.9307	-5.04953	0	
0.2020	-12.3271	-3.81623	0	
0.2027	-11.4057	-1.97793	0	
0.2033	-7.43436	-3.21122	0	
0.2040	-4.38436	-4.42125	0	
0.2047	-6.21118	-3.51373	0	
0.2053	-7.73618	-1.97793	0	
0.2060	-4.68619	-1.97793	0	
0.2067	-2.25572	-3.81623	0	
0.2073	-2.85937	-3.81623	0	
0.2080	-1.03255	-3.21122	0	
0.2087	3.24062	-2.90871	0	
0.2093	5.06744	-3.81623	0	
0.2100	6.29061	-4.42125	0	
0.2107	8.13331	-4.42125	0	
0.2113	6.59243	-0.162888	0	
0.2120	6.29061	9.61039	0	
0.2127	9.96013	13.892	0	
0.2133	9.96013	8.40037	0	
0.2140	8.13331	4.72375	0	
0.2147	8.73696	5.32877	0	
0.2153	7.21196	4.11874	0	
0.2160	2.93879	2.58294	0	
0.2167	3.24062	2.28043	0	
0.2173	5.06744	-1.37291	0	
0.2180	4.16197	-3.81623	0	
0.2187	5.06744	-2.90871	0	
0.2193	6.59243	-2.28043	0	
0.2200	5.38514	-1.07041	0	
0.2207	3.86015	1.67542	0	
0.2213	2.63697	-0.162888	0	
0.2220	0.190625	-3.81623	0	
0.2227	-1.93802	-2.28043	0	
0.2233	-3.16119	0.139618	0	
0.2240	-3.46301	-2.90871	0	
0.2247	-3.46301	-5.04953	0	
0.2253	-4.68619	-1.97793	0	
0.2260	-5.00389	-1.07041	0	
0.2267	-2.55755	-2.60621	0	
0.2273	-3.78072	-1.07041	0	
0.2280	-7.13253	0.139618	0	
0.2287	-5.60754	-2.90871	0	
0.2293	-2.55755	-2.90871	0	
0.2300	-1.03255	-0.465394	0	
0.2307	1.11198	-1.97793	0	
0.2313	3.24062	-4.72375	0	
0.2320	3.54244	-3.81623	0	
0.2327	2.63697	-2.60621	0	
0.2333	0.794269	-3.51373	0	
0.2340	0.794269	-2.90871	0	
0.2347	2.63697	-0.767901	0	
0.2353	3.54244	-0.162888	0	
0.2360	3.86015	-2.28043	0	
0.2367	4.46379	-4.72375	0	
0.2373	3.86015	-5.35204	0	
0.2380	3.24062	-2.90871	0	
0.2387	3.24062	-1.07041	0	
0.2393	2.63697	-1.97793	0	
0.2400	0.492447	-4.72375	0	
0.2407	-1.63619	-7.16707	0	
0.2413	-0.41302	-9.30789	0	
0.2420	1.71562	-11.1462	0	
0.2427	-1.33437	-10.2154	0	
0.2433	-6.83071	-8.40037	0	
0.2440	-7.43436	-11.4487	0	
0.2447	-5.60754	-19.9887	0	
0.2453	-4.08254	-23.3395	0	
0.2460	-1.03255	-16.6378	0	
0.2467	-1.63619	-5.65454	0	
0.2473	-5.60754	1.07041	0	
0.2480	-5.60754	0.465394	0	
0.2487	-3.16119	0.767901	0	
0.2493	-2.55755	8.07459	0	
0.2500	-1.33437	11.4487	0	
0.2507	0.492447	8.07459	0	
0.2513	-0.41302	10.8204	0	
0.2520	-1.03255	15.102	0	
0.2527	0.794269	10.8204	0	
0.2533	2.01744	8.07459	0	
0.2540	1.4138	9.00538	0	
0.2547	-0.111198	4.42125	0	
0.2553	-0.41302	0.465394	0	
0.2560	0.794269	2.88545	0	
0.2567	0.794269	2.88545	0	
0.2573	-1.03255	1.67542	0	
0.2580	-3.46301	1.67542	0	
0.2587	-4.08254	-1.07041	0	
0.2593	-5.00389	-2.60621	0	
0.2600	-7.13253	0.465394	0	
0.2607	-6.21118	1.07041	0	
0.2613	-2.55755	-0.465394	0	
0.2620	-1.03255	-1.67542	0	
0.2627	-1.93802	-3.81623	0	
0.2633	-1.63619	-4.72375	0	
0.2640	-1.63619	-2.28043	0	
0.2647	-1.93802	-1.67542	0	
0.2653	-0.111198	-0.465394	0	
0.2660	2.01744	3.21122	0	
0.2667	3.54244	4.42125	0	
0.2673	4.76561	1.07041	0	
0.2680	3.86015	-0.767901	0	
0.2687	1.71562	-0.162888	0	
0.2693	1.11198	1.37291	0	
0.2700	1.4138	1.07041	0	
0.2707	2.63697	0.767901	0	
0.2713	3.54244	1.67542	0	
0.2720	3.24062	1.97793	0	
0.2727	3.54244	0.465394	0	
0.2733	5.38514	-1.07041	0	
0.2740	2.63697	-2.90871	0	
0.2747	-3.46301	-4.11874	0	
0.2753	-3.78072	-3.21122	0	
0.2760	-1.63619	-2.60621	0	
0.2767	-1.93802	-4.72375	0	
0.2773	0.492447	-5.04953	0	
0.2780	4.46379	-1.97793	0	
0.2787	2.63697	0.139618	0	
0.2793	-2.25572	0.465394	0	
0.2800	-4.38436	1.67542	0	
0.2807	-4.68619	2.28043	0	
0.2813	-3.78072	1.67542	0	
0.2820	-3.16119	0.767901	0	
0.2827	-5.90936	0.139618	0	
0.2833	-9.8807	-0.162888	0	
0.2840	-11.1039	-0.162888	0	
0.2847	-10.4843	0.139618	0	
0.2853	-12.3271	0.767901	0	
0.2860	-12.6289	2.28043	0	
0.2867	-9.26117	5.32877	0	
0.2873	-6.83071	7.77209	0	
0.2880	-6.21118	8.07459	0	
0.2887	-5.60754	6.86457	0	
0.2893	-3.78072	4.42125	0	
0.2900	-1.03255	2.58294	0	
0.2907	1.11198	2.28043	0	
0.2913	1.71562	2.88545	0	
0.2920	2.63697	3.21122	0	
0.2927	5.38514	3.51373	0	
0.2933	6.29061	2.88545	0	
0.2940	5.98879	1.07041	0	
0.2947	6.29061	-0.162888	0	
0.2953	5.38514	-0.162888	0	
0.2960	3.24062	1.67542	0	
0.2967	2.93879	3.51373	0	
0.2973	3.86015	1.67542	0	
0.2980	3.86015	-1.07041	0	
0.2987	4.46379	-0.465394	0	
0.2993	4.16197	-0.767901	0	
0.3000	0.794269	-1.67542	0	
0.3007	-1.33437	-0.162888	0	
0.3013	0.794269	-4.42125	0	
0.3020	2.33515	-16.3353	0	
0.3027	-0.41302	-23.037	0	
0.3033	-1.63619	-22.432	0	
0.3040	1.4138	-18.7787	0	
0.3047	2.63697	-9.30789	0	
0.3053	-1.03255	-1.37291	0	
0.3060	-5.90936	-1.07041	0	
0.3067	-5.90936	5.02626	0	
0.3073	-4.08254	17.2429	0	
0.3080	-3.46301	21.827	0	
0.3087	-2.55755	20.2912	0	
0.3093	-0.730727	19.0812	0	
0.3100	0.794269	11.7512	0	
0.3107	3.24062	0.767901	0	
0.3113	5.98879	-3.51373	0	
0.3120	6.29061	-2.90871	0	
0.3127	4.46379	-3.81623	0	
0.3133	6.91014	-3.81623	0	
0.3140	10.8656	-1.97793	0	
0.3147	8.43514	-1.97793	0	
0.3153	3.86015	-5.35204	0	
0.3160	5.06744	-4.72375	0	
0.3167	7.21196	1.67542	0	
0.3173	3.54244	8.07459	0	
0.3180	1.11198	12.9612	0	
0.3187	2.93879	14.497	0	
0.3193	2.63697	6.56206	0	
0.3200	-0.41302	-4.11874	0	
0.3207	-1.93802	-6.56206	0	
0.3213	-1.63619	-3.81623	0	
0.3220	-1.63619	-1.97793	0	
0.3227	-1.93802	1.07041	0	
0.3233	-3.16119	3.21122	0	
0.3240	-3.78072	1.97793	0	
0.3247	-2.55755	2.88545	0	
0.3253	-1.93802	6.86457	0	
0.3260	-1.03255	8.07459	0	
0.3267	2.33515	5.63127	0	
0.3273	2.63697	0.139618	0	
0.3280	-0.730727	-2.90871	0	
0.3287	-0.730727	-0.162888	0	
0.3293	2.63697	-0.162888	0	
0.3300	3.54244	-8.09786	0	
0.3307	1.71562	-10.5412	0	
0.3313	2.33515	-1.37291	0	
0.3320	4.76561	6.86457	0	
0.3327	7.21196	5.32877	0	
0.3333	7.81561	0.139618	0	
0.3340	5.38514	0.465394	0	
0.3347	2.93879	8.40037	0	
0.3353	2.63697	16.0096	0	
0.3360	2.93879	16.6378	0	
0.3367	1.71562	13.5662	0	
0.3373	0.190625	7.16707	0	
0.3380	-0.111198	-2.28043	0	
0.3387	-0.111198	-6.25955	0	
0.3393	-1.03255	-3.81623	0	
0.3400	-3.16119	-4.11874	0	
0.3407	-5.60754	-6.86457	0	
0.3413	-5.30572	-5.65454	0	
0.3420	-4.68619	-3.21122	0	
0.3427	-7.73618	-2.90871	0	
0.3433	-10.1825	-2.28043	0	
0.3440	-8.65753	0.139618	0	
0.3447	-7.13253	3.81623	0	
0.3453	-6.21118	5.63127	0	
0.3460	-2.55755	2.58294	0	
0.3467	1.71562	-1.97793	0	
0.3473	2.33515	-3.81623	0	
0.3480	0.492447	-2.60621	0	
0.3487	-1.03255	-3.21122	0	
0.3493	-1.03255	-6.86457	0	
0.3500	-1.03255	-8.40037	0	
0.3507	-1.03255	-4.72375	0	
0.3513	-1.03255	-2.60621	0	
0.3520	-2.25572	-6.25955	0	
0.3527	-5.00389	-5.95705	0	
0.3533	-4.08254	0.767901	0	
0.3540	0.190625	1.97793	0	
0.3547	1.4138	-3.81623	0	
0.3553	-1.03255	-6.86457	0	
0.3560	-0.730727	-4.11874	0	
0.3567	0.794269	2.88545	0	
0.3573	-0.41302	9.9129	0	
0.3580	-1.93802	8.07459	0	
0.3587	-2.85937	2.28043	0	
0.3593	-5.90936	0.767901	0	
0.3600	-7.43436	0.465394	0	
0.3607	-6.21118	-3.21122	0	
0.3613	-5.60754	-6.56206	0	
0.3620	-6.52889	-6.56206	0	
0.3627	-6.52889	-5.35204	0	
0.3633	-5.00389	-2.60621	0	
0.3640	-2.55755	-1.37291	0	
0.3647	0.492447	-1.67542	0	
0.3653	1.4138	-1.07041	0	
0.3660	-1.63619	-2.90871	0	
0.3667	-4.38436	-5.65454	0	
0.3673	-3.46301	-3.81623	0	
0.3680	-2.25572	-1.67542	0	
0.3687	-2.25572	-2.90871	0	
0.3693	-0.730727	-1.97793	0	
0.3700	1.11198	0.767901	0	
0.3707	1.4138	-1.67542	0	
0.3713	2.63697	-2.90871	0	
0.3720	5.06744	0.139618	0	
0.3727	4.16197	0.767901	0	
0.3733	1.4138	-1.67542	0	
0.3740	0.492447	-1.07041	0	
0.3747	1.11198	-0.767901	0	
0.3753	0.190625	-2.90871	0	
0.3760	-1.33437	-3.81623	0	
0.3767	-1.93802	-4.11874	0	
0.3773	-3.78072	-5.35204	0	
0.3780	-5.60754	-6.25955	0	
0.3787	-5.00389	-6.86457	0	
0.3793	-6.52889	-6.56206	0	
0.3800	-9.8807	-5.65454	0	
0.3807	-7.43436	-6.25955	0	
0.3813	-5.60754	-6.56206	0	
0.3820	-7.13253	-3.81623	0	
0.3827	-5.60754	-0.162888	0	
0.3833	-2.85937	-0.162888	0	
0.3840	-3.78072	-2.28043	0	
0.3847	-4.08254	-1.67542	0	
0.3853	-4.68619	-1.37291	0	
0.3860	-5.90936	-2.28043	0	
0.3867	-2.55755	-1.37291	0	
0.3873	0.492447	-0.465394	0	
0.3880	-1.33437	-1.67542	0	
0.3887	-1.93802	-1.07041	0	
0.3893	1.11198	-0.767901	0	
0.3900	4.76561	-4.72375	0	
0.3907	7.51378	-8.40037	0	
0.3913	7.21196	-7.79536	0	
0.3920	8.13331	-6.86457	0	
0.3927	11.7869	-5.04953	0	
0.3933	9.65831	-1.07041	0	
0.3940	4.46379	0.767901	0	
0.3947	4.46379	1.07041	0	
0.3953	3.24062	4.42125	0	
0.3960	1.11198	6.25955	0	
0.3967	3.24062	3.51373	0	
0.3973	4.46379	1.07041	0	
0.3980	2.63697	-0.162888	0	
0.3987	2.63697	-1.67542	0	
0.3993	1.71562	-1.37291	0	
0.4000	-0.111198	-2.90871	0	
0.4007	-0.730727	-9.9129	0	
0.4013	-2.85937	-15.102	0	
0.4020	-2.85937	-13.287	0	
0.4027	1.11198	-9.30789	0	
0.4033	-0.111198	-6.56206	0	
0.4040	-2.85937	-3.51373	0	
0.4047	0.794269	3.21122	0	
0.4053	2.63697	11.1462	0	
0.4060	-1.63619	14.7995	0	
0.4067	-2.85937	13.892	0	
0.4073	-1.03255	13.5662	0	
0.4080	-2.25572	12.3562	0	
0.4087	-2.85937	8.07459	0	
0.4093	-1.03255	4.42125	0	
0.4100	-1.03255	3.21122	0	
0.4107	-1.93802	2.58294	0	
0.4113	1.11198	2.28043	0	
0.4120	3.86015	1.67542	0	
0.4127	3.54244	2.28043	0	
0.4133	2.63697	4.42125	0	
0.4140	2.63697	4.42125	0	
0.4147	2.33515	2.28043	0	
0.4153	0.190625	1.37291	0	
0.4160	-1.63619	1.97793	0	
0.4167	-2.55755	1.07041	0	
0.4173	-2.85937	-0.465394	0	
0.4180	-2.85937	-0.465394	0	
0.4187	-2.25572	1.37291	0	
0.4193	-1.33437	1.97793	0	
0.4200	-1.93802	0.767901	0	
0.4207	-2.25572	0.139618	0	
0.4213	0.190625	-0.465394	0	
0.4220	1.71562	-8.40037	0	
0.4227	-1.33437	-21.5245	0	
0.4233	-3.46301	-29.157	0	
0.4240	-2.85937	-28.8312	0	
0.4247	-2.55755	-24.8753	0	
0.4253	-1.93802	-20.5937	0	
0.4260	-1.93802	-14.1945	0	
0.4267	-2.55755	-4.11874	0	
0.4273	-0.730727	5.63127	0	
0.4280	1.71562	14.497	0	
0.4287	2.63697	25.7828	0	
0.4293	5.38514	34.6253	0	
0.4300	8.43514	33.1128	0	
0.4307	7.21196	25.7828	0	
0.4313	5.38514	18.1504	0	
0.4320	3.86015	9.61039	0	
0.4327	1.71562	3.81623	0	
0.4333	1.71562	5.63127	0	
0.4340	4.76561	9.9129	0	
0.4347	6.29061	9.00538	0	
0.4353	5.38514	6.25955	0	
0.4360	4.16197	8.07459	0	
0.4367	0.794269	10.8204	0	
0.4373	-1.93802	7.46958	0	
0.4380	-2.85937	1.67542	0	
0.4387	-3.78072	1.97793	0	
0.4393	-5.00389	3.51373	0	
0.4400	-5.90936	-0.162888	0	
0.4407	-8.05389	-2.90871	0	
0.4413	-8.95935	-1.97793	0	
0.4420	-7.73618	-1.07041	0	
0.4427	-7.73618	-2.90871	0	
0.4433	-8.35571	-3.81623	0	
0.4440	-7.73618	-4.72375	0	
0.4447	-4.08254	-6.56206	0	
0.4453	-0.111198	-6.25955	0	
0.4460	0.794269	-3.51373	0	
0.4467	-2.55755	-1.97793	0	
0.4473	-5.60754	-3.21122	0	
0.4480	-3.46301	-3.81623	0	
0.4487	0.190625	-3.81623	0	
0.4493	-0.41302	-4.11874	0	
0.4500	-1.33437	-4.42125	0	
0.4507	1.71562	-2.60621	0	
0.4513	3.54244	-1.07041	0	
0.4520	2.93879	-3.81623	0	
0.4527	3.54244	-6.25955	0	
0.4533	3.24062	-4.72375	0	
0.4540	2.63697	-7.46958	0	
0.4547	4.46379	-13.287	0	
0.4553	6.29061	-12.0537	0	
0.4560	5.38514	-7.46958	0	
0.4567	5.38514	-8.40037	0	
0.4573	4.46379	-8.09786	0	
0.4580	2.63697	-2.90871	0	
0.4587	3.86015	1.07041	0	
0.4593	4.46379	2.58294	0	
0.4600	2.63697	4.42125	0	
0.4607	2.63697	5.32877	0	
0.4613	2.01744	2.88545	0	
0.4620	-0.730727	-1.07041	0	
0.4627	-0.111198	-1.97793	0	
0.4633	0.794269	0.767901	0	
0.4640	-2.85937	0.139618	0	
0.4647	-2.85937	-1.37291	0	
0.4653	0.794269	1.07041	0	
0.4660	1.11198	1.67542	0	
0.4667	-0.730727	-2.90871	0	
0.4673	-1.93802	-3.81623	0	
0.4680	-5.60754	-1.97793	0	
0.4687	-7.43436	-1.67542	0	
0.4693	-5.90936	-2.60621	0	
0.4700	-6.21118	-2.60621	0	
0.4707	-6.52889	0.767901	0	
0.4713	-2.55755	7.16707	0	
0.4720	0.794269	7.77209	0	
0.4727	2.01744	3.21122	0	
0.4733	2.93879	1.97793	0	
0.4740	2.01744	2.88545	0	
0.4747	-0.111198	-0.162888	0	
0.4753	-0.111198	-0.767901	0	
0.4760	0.794269	2.28043	0	
0.4767	1.71562	1.67542	0	
0.4773	2.33515	-0.767901	0	
0.4780	0.794269	0.465394	0	
0.4787	-1.03255	0.465394	0	
0.4793	-1.33437	-1.07041	0	
0.4800	-3.16119	1.97793	0	
0.4807	-4.68619	2.58294	0	
0.4813	-2.85937	-2.60621	0	
0.4820	-2.25572	-4.42125	0	
0.4827	-4.38436	-1.97793	0	
0.4833	-5.00389	-5.04953	0	
0.4840	-4.68619	-11.1462	0	
0.4847	-5.60754	-12.9612	0	
0.4853	-4.68619	-11.7512	0	
0.4860	-2.25572	-10.5412	0	
0.4867	-3.46301	-7.79536	0	
0.4873	-5.30572	-5.35204	0	
0.4880	-1.63619	-1.97793	0	
0.4887	2.93879	6.56206	0	
0.4893	2.63697	14.1945	0	
0.4900	1.11198	12.6587	0	
0.4907	2.01744	6.25955	0	
0.4913	2.63697	0.767901	0	
0.4920	4.46379	-4.11874	0	
0.4927	6.59243	-8.40037	0	
0.4933	4.46379	-7.46958	0	
0.4940	1.11198	-4.72375	0	
0.4947	0.794269	-6.56206	0	
0.4953	0.794269	-7.46958	0	
0.4960	-0.111198	-3.81623	0	
0.4967	0.794269	1.07041	0	
0.4973	-0.730727	6.86457	0	
0.4980	-2.85937	10.8204	0	
0.4987	-1.33437	5.02626	0	
0.4993	1.11198	-3.51373	0	
0.5000	1.11198	-2.90871	0	
0.5007	2.01744	-1.67542	0	
0.5013	3.24062	-4.72375	0	
0.5020	2.93879	-2.90871	0	
0.5027	2.33515	1.67542	0	
0.5033	1.4138	4.11874	0	
0.5040	1.71562	7.16707	0	
0.5047	1.71562	9.00538	0	
0.5053	-0.111198	4.42125	0	
0.5060	-0.111198	1.07041	0	
0.5067	2.33515	2.88545	0	
0.5073	0.794269	3.51373	0	
0.5080	-0.41302	2.58294	0	
0.5087	1.71562	3.21122	0	
0.5093	0.794269	0.139618	0	
0.5100	-1.33437	-3.81623	0	
0.5107	2.63697	-2.90871	0	
0.5113	5.38514	-1.67542	0	
0.5120	2.93879	-1.97793	0	
0.5127	1.4138	-0.162888	0	
0.5133	0.492447	-0.767901	0	
0.5140	-1.03255	-3.81623	0	
0.5147	-0.111198	-1.37291	0	
0.5153	2.63697	5.02626	0	
0.5160	1.11198	5.95705	0	
0.5167	-1.93802	1.07041	0	
0.5173	-2.85937	-2.90871	0	
0.5180	-3.78072	-1.97793	0	
0.5187	-5.30572	0.767901	0	
0.5193	-4.68619	-1.97793	0	
0.5200	-4.68619	-6.86457	0	
0.5207	-8.65753	-6.56206	0	
0.5213	-10.1825	-5.04953	0	
0.5220	-5.30572	-5.04953	0	
0.5227	-3.78072	-2.60621	0	
0.5233	-6.52889	-4.11874	0	
0.5240	-6.21118	-9.30789	0	
0.5247	-4.38436	-3.81623	0	
0.5253	-3.46301	5.95705	0	
0.5260	-1.03255	5.63127	0	
0.5267	1.71562	2.28043	0	
0.5273	4.46379	1.07041	0	
0.5280	4.76561	-1.97793	0	
0.5287	-0.111198	-3.81623	0	
0.5293	-1.93802	-2.90871	0	
0.5300	4.46379	-3.81623	0	
0.5307	6.59243	-3.81623	0	
0.5313	3.24062	1.37291	0	
0.5320	3.54244	3.81623	0	
0.5327	4.46379	2.58294	0	
0.5333	2.63697	4.42125	0	
0.5340	3.24062	7.77209	0	
0.5347	2.93879	7.77209	0	
0.5353	0.190625	4.42125	0	
0.5360	-0.41302	1.67542	0	
0.5367	-1.03255	0.767901	0	
0.5373	-2.85937	-1.37291	0	
0.5380	-2.85937	-5.04953	0	
0.5387	-1.03255	-5.04953	0	
0.5393	-0.111198	-1.97793	0	
0.5400	-1.03255	-2.60621	0	
0.5407	-3.78072	-5.04953	0	
0.5413	-3.78072	-5.04953	0	
0.5420	-1.33437	-5.04953	0	
0.5427	-2.85937	-5.95705	0	
0.5433	-2.85937	-5.04953	0	
0.5440	1.71562	-5.65454	0	
0.5447	1.71562	-7.79536	0	
0.5453	0.794269	-6.86457	0	
0.5460	3.54244	-4.72375	0	
0.5467	2.93879	-6.25955	0	
0.5473	-0.111198	-7.16707	0	
0.5480	4.16197	-1.07041	0	
0.5487	9.96013	9.00538	0	
0.5493	9.03878	11.4487	0	
0.5500	7.21196	4.11874	0	
0.5507	7.81561	-0.767901	0	
0.5513	9.96013	0.767901	0	
0.5520	10.5638	-1.07041	0	
0.5527	5.06744	-6.56206	0	
0.5533	-4.38436	-8.09786	0	
0.5540	-8.65753	-7.46958	0	
0.5547	-6.21118	-10.2154	0	
0.5553	-3.46301	-14.1945	0	
0.5560	-4.38436	-12.9612	0	
0.5567	-4.38436	-4.72375	0	
0.5573	-3.16119	5.32877	0	
0.5580	-5.00389	10.8204	0	
0.5587	-6.21118	12.3562	0	
0.5593	-3.16119	15.4046	0	
0.5600	-3.78072	17.2429	0	
0.5607	-5.60754	14.1945	0	
0.5613	-1.63619	9.9129	0	
0.5620	-1.03255	7.16707	0	
0.5627	-5.30572	2.88545	0	
0.5633	-3.78072	-0.767901	0	
0.5640	-1.93802	-0.162888	0	
0.5647	-4.68619	2.88545	0	
0.5653	-1.93802	4.42125	0	
0.5660	1.71562	4.42125	0	
0.5667	-1.33437	4.11874	0	
0.5673	-2.85937	2.58294	0	
0.5680	-1.33437	1.67542	0	
0.5687	-1.03255	3.51373	0	
0.5693	2.93879	4.42125	0	
0.5700	7.81561	4.42125	0	
0.5707	7.21196	3.81623	0	
0.5713	5.98879	2.58294	0	
0.5720	3.86015	1.07041	0	
0.5727	0.794269	0.767901	0	
0.5733	2.33515	-0.465394	0	
0.5740	5.06744	-1.67542	0	
0.5747	4.16197	0.465394	0	
0.5753	3.54244	1.37291	0	
0.5760	4.16197	-0.767901	0	
0.5767	2.33515	-1.07041	0	
0.5773	0.794269	0.139618	0	
0.5780	1.71562	-0.162888	0	
0.5787	1.71562	-2.60621	0	
0.5793	-0.41302	-4.72375	0	
0.5800	-4.68619	-5.65454	0	
0.5807	-6.21118	-5.65454	0	
0.5813	-5.60754	-6.56206	0	
0.5820	-7.43436	-6.56206	0	
0.5827	-6.83071	-4.72375	0	
0.5833	-2.85937	-4.72375	0	
0.5840	-2.85937	-3.81623	0	
0.5847	-5.60754	-1.37291	0	
0.5853	-2.55755	-1.67542	0	
0.5860	1.11198	-3.81623	0	
0.5867	1.4138	-1.97793	0	
0.5873	2.63697	0.139618	0	
0.5880	4.46379	-1.07041	0	
0.5887	4.46379	-1.97793	0	
0.5893	5.68697	-1.37291	0	
0.5900	6.59243	-1.07041	0	
0.5907	5.38514	-0.162888	0	
0.5913	2.93879	1.37291	0	
0.5920	2.93879	1.67542	0	
0.5927	4.46379	2.58294	0	
0.5933	4.46379	4.11874	0	
0.5940	2.63697	3.81623	0	
0.5947	-0.111198	3.51373	0	
0.5953	-4.38436	2.88545	0	
0.5960	-7.13253	-0.162888	0	
0.5967	-5.90936	0.139618	0	
0.5973	-5.60754	1.97793	0	
0.5980	-7.43436	-4.72375	0	
0.5987	-8.65753	-14.497	0	
0.5993	-10.1825	-10.8437	0	
0.6000	-11.1039	-5.95705	0	
0.6007	-8.35571	-12.0537	0	
0.6013	-6.21118	-12.3562	0	
0.6020	-7.43436	-5.04953	0	
0.6027	-6.52889	-6.86457	0	
0.6033	-5.30572	-9.30789	0	
0.6040	-6.21118	0.139618	0	
0.6047	-5.60754	10.2154	0	
0.6053	-3.78072	10.8204	0	
0.6060	-4.38436	6.25955	0	
0.6067	-4.08254	0.767901	0	
0.6073	-1.93802	-1.97793	0	
0.6080	-1.63619	-2.90871	0	
0.6087	-1.93802	-4.11874	0	
0.6093	0.794269	0.465394	0	
0.6100	3.24062	6.56206	0	
0.6107	3.54244	6.25955	0	
0.6113	4.16197	9.30789	0	
0.6120	6.59243	16.3353	0	
0.6127	9.03878	12.0537	0	
0.6133	8.13331	4.42125	0	
0.6140	7.21196	5.63127	0	
0.6147	10.262	4.42125	0	
0.6153	11.7869	-1.07041	0	
0.6160	7.21196	-1.97793	0	
0.6167	3.54244	-2.28043	0	
0.6173	2.63697	-5.65454	0	
0.6180	-0.41302	-8.40037	0	
0.6187	-3.16119	-12.0537	0	
0.6193	-3.46301	-15.7303	0	
0.6200	-3.46301	-13.892	0	
0.6207	-3.16119	-9.61039	0	
0.6213	-3.78072	-9.61039	0	
0.6220	-5.90936	-6.56206	0	
0.6227	-4.68619	7.16707	0	
0.6233	-1.93802	21.1987	0	
0.6240	-4.08254	26.6904	0	
0.6247	-7.73618	27.3186	0	
0.6253	-7.43436	18.4529	0	
0.6260	-4.08254	2.88545	0	
0.6267	-1.33437	-1.67542	0	
0.6273	-0.41302	2.58294	0	
0.6280	-0.41302	1.37291	0	
0.6287	1.11198	0.767901	0	
0.6293	2.63697	3.81623	0	
0.6300	3.86015	0.767901	0	
0.6307	5.38514	-1.07041	0	
0.6313	4.46379	2.58294	0	
0.6320	1.4138	0.139618	0	
0.6327	0.794269	-3.81623	0	
0.6333	2.01744	-1.67542	0	
0.6340	1.71562	-1.37291	0	
0.6347	1.71562	-3.81623	0	
0.6353	1.71562	-1.97793	0	
0.6360	1.71562	-1.37291	0	
0.6367	2.63697	-3.81623	0	
0.6373	4.16197	-4.11874	0	
0.6380	2.63697	-3.81623	0	
0.6387	-0.111198	-4.42125	0	
0.6393	0.794269	-5.04953	0	
0.6400	2.33515	-5.95705	0	
0.6407	1.11198	-6.86457	0	
0.6413	-0.41302	-6.56206	0	
0.6420	-1.03255	-7.79536	0	
0.6427	-1.03255	-10.5412	0	
0.6433	-0.111198	-10.2154	0	
0.6440	-1.03255	-6.56206	0	
0.6447	-3.78072	-4.72375	0	
0.6453	-3.46301	-3.81623	0	
0.6460	-1.93802	-3.21122	0	
0.6467	-1.33437	-1.97793	0	
0.6473	1.71562	2.88545	0	
0.6480	3.86015	7.16707	0	
0.6487	0.794269	4.72375	0	
0.6493	-2.25572	2.58294	0	
0.6500	-2.85937	3.81623	0	
0.6507	-4.68619	3.51373	0	
0.6513	-5.60754	2.58294	0	
0.6520	-3.78072	3.21122	0	
0.6527	-1.03255	3.21122	0	
0.6533	2.63697	2.28043	0	
0.6540	3.54244	1.07041	0	
0.6547	0.492447	0.767901	0	
0.6553	-0.41302	2.58294	0	
0.6560	-0.41302	2.58294	0	
0.6567	-4.08254	-1.37291	0	
0.6573	-4.68619	-1.97793	0	
0.6580	-2.55755	0.465394	0	
0.6587	-5.60754	-0.767901	0	
0.6593	-5.30572	-1.97793	0	
0.6600	1.4138	-0.465394	0	
0.6607	2.01744	-2.90871	0	
0.6613	-1.93802	-6.56206	0	
0.6620	-1.03255	-5.65454	0	
0.6627	-0.730727	-3.21122	0	
0.6633	-2.85937	-2.90871	0	
0.6640	-2.85937	-5.65454	0	
0.6647	-2.85937	-9.30789	0	
0.6653	-4.08254	-11.1462	0	
0.6660	-2.55755	-8.40037	0	
0.6667	-2.85937	-6.56206	0	
0.6673	-6.52889	-5.95705	0	
0.6680	-4.68619	-2.90871	0	
0.6687	-0.41302	1.97793	0	
0.6693	-0.111198	5.02626	0	
0.6700	0.794269	7.77209	0	
0.6707	4.16197	10.5179	0	
0.6713	4.46379	8.70287	0	
0.6720	4.16197	5.02626	0	
0.6727	6.59243	5.02626	0	
0.6733	7.51378	4.42125	0	
0.6740	5.38514	2.58294	0	
0.6747	4.46379	5.32877	0	
0.6753	4.16197	8.07459	0	
0.6760	2.63697	3.81623	0	
0.6767	2.01744	0.767901	0	
0.6773	2.63697	3.81623	0	
0.6780	0.794269	5.32877	0	
0.6787	-2.25572	2.58294	0	
0.6793	-3.78072	0.767901	0	
0.6800	-5.30572	0.139618	0	
0.6807	-6.52889	0.139618	0	
0.6813	-6.52889	1.67542	0	
0.6820	-4.38436	-0.767901	0	
0.6827	-1.63619	-4.72375	0	
0.6833	-1.03255	-2.90871	0	
0.6840	-2.85937	-1.07041	0	
0.6847	-2.85937	-5.95705	0	
0.6853	0.492447	-8.40037	0	
0.6860	2.01744	-4.72375	0	
0.6867	-0.111198	-5.04953	0	
0.6873	-0.111198	-6.86457	0	
0.6880	2.63697	-5.04953	0	
0.6887	2.93879	-3.21122	0	
0.6893	2.63697	3.51373	0	
0.6900	4.46379	14.7995	0	
0.6907	4.16197	17.2429	0	
0.6913	1.71562	13.5662	0	
0.6920	2.63697	10.8204	0	
0.6927	5.38514	5.95705	0	
0.6933	4.46379	1.07041	0	
0.6940	4.46379	0.767901	0	
0.6947	7.21196	0.767901	0	
0.6953	7.81561	0.767901	0	
0.6960	6.59243	3.21122	0	
0.6967	5.38514	2.58294	0	
0.6973	2.63697	-0.162888	0	
0.6980	-0.730727	-0.162888	0	
0.6987	-0.730727	2.58294	0	
0.6993	-1.03255	3.81623	0	
0.7000	-3.46301	1.67542	0	
0.7007	-4.68619	-1.97793	0	
0.7013	-5.60754	-3.21122	0	
0.7020	-6.52889	-5.35204	0	
0.7027	-5.00389	-8.40037	0	
0.7033	-1.93802	-5.95705	0	
0.7040	-1.03255	-5.35204	0	
0.7047	-2.55755	-10.5412	0	
0.7053	-5.00389	-7.46958	0	
0.7060	-5.30572	3.81623	0	
0.7067	-4.38436	6.25955	0	
0.7073	-3.78072	4.42125	0	
0.7080	-1.33437	7.16707	0	
0.7087	0.492447	2.58294	0	
0.7093	0.794269	-8.70287	0	
0.7100	2.93879	-10.2154	0	
0.7107	5.38514	-4.42125	0	
0.7113	4.16197	-2.90871	0	
0.7120	3.54244	-2.90871	0	
0.7127	5.38514	-0.465394	0	
0.7133	4.46379	3.51373	0	
0.7140	3.24062	9.61039	0	
0.7147	2.63697	12.9612	0	
0.7153	0.794269	9.9129	0	
0.7160	0.190625	4.11874	0	
0.7167	0.190625	-0.465394	0	
0.7173	-1.03255	-4.11874	0	
0.7180	-0.730727	-4.72375	0	
0.7187	-0.111198	-3.51373	0	
0.7193	-2.85937	-3.81623	0	
0.7200	-6.52889	-5.65454	0	
0.7207	-5.90936	-4.72375	0	
0.7213	-5.60754	-3.21122	0	
0.7220	-6.83071	-2.28043	0	
0.7227	-6.21118	-3.21122	0	
0.7233	-3.78072	-4.42125	0	
0.7240	-3.46301	-2.90871	0	
0.7247	-3.78072	1.67542	0	
0.7253	-1.93802	3.51373	0	
0.7260	-1.03255	2.58294	0	
0.7267	-1.93802	0.767901	0	
0.7273	-1.03255	-1.67542	0	
0.7280	-0.41302	-2.60621	0	
0.7287	-1.93802	-0.465394	0	
0.7293	-1.03255	2.28043	0	
0.7300	2.33515	2.58294	0	
0.7307	2.33515	2.58294	0	
0.7313	0.794269	2.88545	0	
0.7320	-0.730727	1.07041	0	
0.7327	-1.03255	-2.60621	0	
0.7333	0.794269	-4.11874	0	
0.7340	2.63697	-1.97793	0	
0.7347	3.24062	0.465394	0	
0.7353	3.54244	-1.37291	0	
0.7360	3.24062	-3.51373	0	
0.7367	0.794269	-0.465394	0	
0.7373	-0.41302	1.97793	0	
0.7380	-0.111198	-1.07041	0	
0.7387	-0.41302	-4.11874	0	
0.7393	-1.63619	-3.81623	0	
0.7400	-2.25572	-4.72375	0	
0.7407	-2.25572	-5.04953	0	
0.7413	-3.16119	-2.90871	0	
0.7420	-4.68619	-2.90871	0	
0.7427	-4.68619	-3.51373	0	
0.7433	-4.68619	-1.97793	0	
0.7440	-3.78072	-1.67542	0	
0.7447	-1.03255	-4.72375	0	
0.7453	0.492447	-4.72375	0	
0.7460	0.794269	-0.767901	0	
0.7467	2.33515	-0.767901	0	
0.7473	1.4138	-5.65454	0	
0.7480	-1.63619	-8.40037	0	
0.7487	-0.41302	-7.79536	0	
0.7493	2.63697	-6.86457	0	
0.7500	2.63697	-3.51373	0	
0.7507	3.54244	1.97793	0	
0.7513	4.16197	4.42125	0	
0.7520	2.63697	5.63127	0	
0.7527	2.63697	8.70287	0	
0.7533	2.63697	9.9129	0	
0.7540	1.71562	7.16707	0	
0.7547	3.54244	3.51373	0	
0.7553	6.29061	3.51373	0	
0.7560	7.51378	3.51373	0	
0.7567	10.8656	-1.07041	0	
0.7573	9.3406	-5.65454	0	
0.7580	4.46379	-5.95705	0	
0.7587	7.21196	-7.16707	0	
0.7593	10.8656	-9.30789	0	
0.7600	5.98879	-6.25955	0	
0.7607	1.71562	-4.11874	0	
0.7613	1.4138	-6.56206	0	
0.7620	-2.25572	-5.95705	0	
0.7627	-5.60754	-1.97793	0	
0.7633	-3.78072	3.21122	0	
0.7640	-4.68619	11.7512	0	
0.7647	-7.13253	15.4046	0	
0.7653	-3.78072	9.9129	0	
0.7660	0.794269	4.11874	0	
0.7667	1.11198	4.42125	0	
0.7673	-0.730727	4.42125	0	
0.7680	-1.03255	1.07041	0	
0.7687	-0.730727	-1.97793	0	
0.7693	-0.111198	-3.51373	0	
0.7700	-0.730727	-3.21122	0	
0.7707	-1.63619	-1.07041	0	
0.7713	-0.730727	2.58294	0	
0.7720	2.33515	4.42125	0	
0.7727	4.46379	5.32877	0	
0.7733	2.63697	3.81623	0	
0.7740	-1.03255	0.465394	0	
0.7747	-2.55755	-1.07041	0	
0.7753	-1.03255	-0.162888	0	
0.7760	-1.03255	-1.07041	0	
0.7767	-4.08254	-2.60621	0	
0.7773	-5.90936	-0.162888	0	
0.7780	-4.68619	-0.162888	0	
0.7787	-5.60754	-3.21122	0	
0.7793	-9.57888	-2.90871	0	
0.7800	-8.65753	-5.35204	0	
0.7807	-5.60754	-15.102	0	
0.7813	-6.52889	-19.9887	0	
0.7820	-7.43436	-15.7303	0	
0.7827	-6.21118	-10.5412	0	
0.7833	-4.08254	-5.95705	0	
0.7840	-2.55755	-3.81623	0	
0.7847	-2.85937	-3.81623	0	
0.7853	-3.16119	1.37291	0	
0.7860	0.794269	6.25955	0	
0.7867	4.46379	4.42125	0	
0.7873	3.54244	0.767901	0	
0.7880	2.63697	-0.767901	0	
0.7887	2.63697	-3.51373	0	
0.7893	0.794269	-3.51373	0	
0.7900	1.71562	0.465394	0	
0.7907	2.63697	-0.162888	0	
0.7913	0.190625	-1.07041	0	
0.7920	0.794269	4.42125	0	
0.7927	2.63697	8.40037	0	
0.7933	-0.111198	5.02626	0	
0.7940	-0.111198	1.97793	0	
0.7947	4.46379	0.767901	0	
0.7953	3.54244	-1.97793	0	
0.7960	-1.03255	-1.07041	0	
0.7967	-0.41302	3.51373	0	
0.7973	-0.111198	1.67542	0	
0.7980	-2.25572	-0.465394	0	
0.7987	-3.78072	5.95705	0	
0.7993	-4.38436	9.61039	0	
0.8000	-3.78072	3.51373	0	
0.8007	-1.63619	-0.162888	0	
0.8013	-1.03255	1.97793	0	
0.8020	-1.93802	2.28043	0	
0.8027	-1.63619	2.88545	0	
0.8033	-1.33437	5.32877	0	
0.8040	-2.55755	3.21122	0	
0.8047	-1.93802	-1.67542	0	
0.8053	-1.63619	-3.51373	0	
0.8060	-3.78072	-1.97793	0	
0.8067	-4.68619	1.97793	0	
0.8073	-1.93802	5.32877	0	
0.8080	0.190625	2.58294	0	
0.8087	0.492447	-1.97793	0	
0.8093	0.492447	-1.97793	0	
0.8100	-0.41302	0.139618	0	
0.8107	-1.93802	1.07041	0	
0.8113	-1.03255	-0.162888	0	
0.8120	1.4138	-1.97793	0	
0.8127	2.33515	-1.07041	0	
0.8133	0.794269	-1.37291	0	
0.8140	-1.03255	-2.60621	0	
0.8147	-2.25572	2.28043	0	
0.8153	-1.33437	8.70287	0	
0.8160	-0.111198	4.42125	0	
0.8167	-1.03255	-3.81623	0	
0.8173	-2.85937	-4.72375	0	
0.8180	-1.93802	-4.72375	0	
0.8187	-0.730727	-7.79536	0	
0.8193	-2.25572	-8.40037	0	
0.8200	-4.38436	-6.25955	0	
0.8207	-4.38436	-4.11874	0	
0.8213	-5.60754	-1.07041	0	
0.8220	-7.73618	3.81623	0	
0.8227	-6.83071	5.63127	0	
0.8233	-4.08254	1.97793	0	
0.8240	-1.03255	0.767901	0	
0.8247	2.63697	3.21122	0	
0.8253	4.16197	-1.97793	0	
0.8260	2.63697	-11.1462	0	
0.8267	-0.111198	-8.70287	0	
0.8273	-1.03255	-0.465394	0	
0.8280	-0.111198	-1.97793	0	
0.8287	2.63697	-5.95705	0	
0.8293	5.38514	-3.21122	0	
0.8300	6.29061	3.51373	0	
0.8307	4.46379	11.4487	0	
0.8313	1.71562	16.6378	0	
0.8320	-0.111198	13.5662	0	
0.8327	0.190625	6.25955	0	
0.8333	3.54244	2.28043	0	
0.8340	6.29061	-0.162888	0	
0.8347	6.29061	-1.97793	0	
0.8353	5.68697	-1.97793	0	
0.8360	5.06744	-2.28043	0	
0.8367	3.24062	-4.72375	0	
0.8373	2.63697	-8.09786	0	
0.8380	2.33515	-6.56206	0	
0.8387	1.4138	-1.37291	0	
0.8393	2.63697	-0.162888	0	
0.8400	2.63697	-0.162888	0	
0.8407	-2.55755	3.81623	0	
0.8413	-3.78072	5.32877	0	
0.8420	0.190625	1.67542	0	
0.8427	0.492447	-0.465394	0	
0.8433	-0.730727	-0.465394	0	
0.8440	0.492447	-1.67542	0	
0.8447	0.492447	-1.97793	0	
0.8453	-0.111198	-2.28043	0	
0.8460	0.492447	-1.97793	0	
0.8467	-1.03255	-0.162888	0	
0.8473	-3.16119	-0.162888	0	
0.8480	-2.55755	-1.97793	0	
0.8487	-1.33437	-1.07041	0	
0.8493	-1.03255	1.07041	0	
0.8500	-0.111198	1.67542	0	
0.8507	-0.111198	1.07041	0	
0.8513	-0.111198	1.67542	0	
0.8520	-0.730727	2.58294	0	
0.8527	-4.38436	1.67542	0	
0.8533	-5.60754	-1.67542	0	
0.8540	-2.85937	-3.81623	0	
0.8547	-3.46301	-1.97793	0	
0.8553	-5.60754	0.139618	0	
0.8560	-1.93802	-2.28043	0	
0.8567	2.63697	-4.72375	0	
0.8573	2.63697	-3.51373	0	
0.8580	2.01744	-0.162888	0	
0.8587	2.63697	0.139618	0	
0.8593	2.33515	-1.97793	0	
0.8600	0.794269	-3.21122	0	
0.8607	0.492447	-4.11874	0	
0.8613	-0.111198	-7.16707	0	
0.8620	-1.63619	-7.46958	0	
0.8627	-3.16119	-4.72375	0	
0.8633	-3.46301	-5.95705	0	
0.8640	-3.78072	-12.9612	0	
0.8647	-3.78072	-16.6378	0	
0.8653	-1.93802	-13.892	0	
0.8660	-1.03255	-9.30789	0	
0.8667	-3.16119	-7.16707	0	
0.8673	-2.25572	-6.56206	0	
0.8680	-1.03255	-1.07041	0	
0.8687	-4.68619	9.9129	0	
0.8693	-4.68619	15.4046	0	
0.8700	1.11198	12.6587	0	
0.8707	2.63697	10.8204	0	
0.8713	0.794269	9.9129	0	
0.8720	2.63697	5.32877	0	
0.8727	2.93879	2.58294	0	
0.8733	-0.111198	3.51373	0	
0.8740	-0.41302	3.51373	0	
0.8747	1.71562	5.32877	0	
0.8753	0.794269	6.86457	0	
0.8760	-2.55755	2.58294	0	
0.8767	-4.38436	-1.97793	0	
0.8773	-3.78072	-0.162888	0	
0.8780	-0.730727	2.58294	0	
0.8787	1.71562	0.767901	0	
0.8793	-0.111198	-4.42125	0	
0.8800	-4.08254	-5.65454	0	
0.8807	-4.38436	-2.90871	0	
0.8813	-1.03255	-3.51373	0	
0.8820	-0.111198	-5.04953	0	
0.8827	-2.25572	-3.81623	0	
0.8833	-2.85937	-3.21122	0	
0.8840	-2.25572	-2.90871	0	
0.8847	-1.93802	2.58294	0	
0.8853	-0.111198	5.63127	0	
0.8860	1.71562	-0.465394	0	
0.8867	1.11198	-6.25955	0	
0.8873	0.794269	-7.46958	0	
0.8880	-0.41302	-10.8437	0	
0.8887	-2.85937	-13.892	0	
0.8893	-2.85937	-10.2154	0	
0.8900	-0.730727	-3.81623	0	
0.8907	-0.111198	-2.28043	0	
0.8913	-0.111198	-2.90871	0	
0.8920	1.71562	2.58294	0	
0.8927	1.71562	11.1462	0	
0.8933	0.190625	17.2429	0	
0.8940	2.01744	20.8962	0	
0.8947	3.24062	19.0812	0	
0.8953	-0.111198	10.5179	0	
0.8960	-3.78072	5.95705	0	
0.8967	-2.55755	8.07459	0	
0.8973	-0.111198	7.16707	0	
0.8980	0.190625	1.67542	0	
0.8987	-0.111198	-1.37291	0	
0.8993	-2.55755	-1.67542	0	
0.9000	-5.60754	-1.07041	0	
0.9007	-5.60754	-3.81623	0	
0.9013	-3.16119	-6.56206	0	
0.9020	-3.16119	-0.162888	0	
0.9027	-4.68619	11.4487	0	
0.9033	-2.85937	11.7512	0	
0.9040	-1.03255	5.02626	0	
0.9047	-1.93802	2.58294	0	
0.9053	-0.111198	2.28043	0	
0.9060	3.54244	3.21122	0	
0.9067	2.63697	5.32877	0	
0.9073	-0.730727	3.81623	0	
0.9080	0.794269	2.58294	0	
0.9087	0.492447	5.02626	0	
0.9093	-2.85937	4.42125	0	
0.9100	-1.03255	1.07041	0	
0.9107	4.16197	1.97793	0	
0.9113	5.38514	4.42125	0	
0.9120	3.54244	4.42125	0	
0.9127	2.63697	4.42125	0	
0.9133	2.63697	3.51373	0	
0.9140	1.71562	1.37291	0	
0.9147	2.01744	-1.07041	0	
0.9153	2.63697	-2.90871	0	
0.9160	1.71562	-1.97793	0	
0.9167	-0.111198	1.07041	0	
0.9173	0.492447	0.767901	0	
0.9180	-1.33437	-2.90871	0	
0.9187	-4.68619	-4.11874	0	
0.9193	-2.85937	-4.11874	0	
0.9200	-1.63619	-3.81623	0	
0.9207	-2.25572	-4.42125	0	
0.9213	0.794269	-5.04953	0	
0.9220	3.24062	-5.35204	0	
0.9227	-0.730727	-4.42125	0	
0.9233	-3.46301	-4.72375	0	
0.9240	-1.33437	-3.51373	0	
0.9247	-0.41302	1.37291	0	
0.9253	-0.111198	2.88545	0	
0.9260	1.71562	0.139618	0	
0.9267	1.71562	0.139618	0	
0.9273	2.63697	1.07041	0	
0.9280	4.46379	-1.07041	0	
0.9287	3.54244	-0.767901	0	
0.9293	1.71562	2.58294	0	
0.9300	2.33515	2.58294	0	
0.9307	3.54244	-1.67542	0	
0.9313	3.86015	-3.21122	0	
0.9320	2.63697	0.465394	0	
0.9327	0.190625	2.58294	0	
0.9333	0.492447	1.67542	0	
0.9340	3.54244	1.97793	0	
0.9347	2.93879	2.28043	0	
0.9353	-0.111198	-0.465394	0	
0.9360	-1.03255	0.767901	0	
0.9367	-2.55755	3.51373	0	
0.9373	-5.00389	-2.28043	0	
0.9380	-3.78072	-11.1462	0	
0.9387	-2.85937	-13.892	0	
0.9393	-6.52889	-15.102	0	
0.9400	-9.26117	-14.7995	0	
0.9407	-9.26117	-9.61039	0	
0.9413	-11.1039	-6.56206	0	
0.9420	-11.1039	-5.65454	0	
0.9427	-7.73618	1.97793	0	
0.9433	-8.05389	12.0537	0	
0.9440	-9.26117	15.102	0	
0.9447	-4.08254	12.6587	0	
0.9453	-0.111198	7.16707	0	
0.9460	-1.03255	2.28043	0	
0.9467	-0.730727	1.37291	0	
0.9473	1.71562	2.28043	0	
0.9480	1.71562	1.97793	0	
0.9487	2.33515	1.97793	0	
0.9493	3.86015	3.51373	0	
0.9500	4.46379	4.42125	0	
0.9507	6.91014	3.51373	0	
0.9513	11.1833	2.58294	0	
0.9520	9.03878	2.58294	0	
0.9527	5.38514	1.67542	0	
0.9533	7.21196	-0.162888	0	
0.9540	7.81561	-0.767901	0	
0.9547	4.16197	-1.97793	0	
0.9553	3.86015	-5.35204	0	
0.9560	5.38514	-6.25955	0	
0.9567	2.93879	-3.51373	0	
0.9573	1.71562	-1.67542	0	
0.9580	0.794269	-1.37291	0	
0.9587	-2.25572	-0.767901	0	
0.9593	-4.08254	0.767901	0	
0.9600	-4.38436	1.97793	0	
0.9607	-6.52889	0.767901	0	
0.9613	-7.73618	-2.90871	0	
0.9620	-6.52889	-3.81623	0	
0.9627	-5.60754	-1.97793	0	
0.9633	-6.52889	-2.60621	0	
0.9640	-7.73618	-3.81623	0	
0.9647	-7.43436	-1.37291	0	
0.9653	-3.46301	-0.162888	0	
0.9660	0.794269	-1.37291	0	
0.9667	0.492447	-1.07041	0	
0.9673	-1.33437	-0.465394	0	
0.9680	-0.41302	-2.60621	0	
0.9687	1.71562	-1.97793	0	
0.9693	2.93879	0.465394	0	
0.9700	2.93879	-2.60621	0	
0.9707	0.794269	-6.56206	0	
0.9713	-0.730727	-6.56206	0	
0.9720	0.190625	-8.40037	0	
0.9727	0.794269	-10.8437	0	
0.9733	0.794269	-7.46958	0	
0.9740	1.11198	-5.65454	0	
0.9747	1.11198	-8.40037	0	
0.9753	0.794269	-7.46958	0	
0.9760	1.11198	-2.90871	0	
0.9767	1.71562	6.25955	0	
0.9773	0.794269	18.1504	0	
0.9780	-1.03255	17.2429	0	
0.9787	-1.93802	3.81623	0	
0.9793	-1.63619	-3.21122	0	
0.9800	-0.111198	-3.81623	0	
0.9807	0.190625	-6.56206	0	
0.9813	-1.03255	-4.11874	0	
0.9820	-2.55755	0.767901	0	
0.9827	-3.78072	-1.37291	0	
0.9833	-1.63619	-2.90871	0	
0.9840	2.01744	3.51373	0	
0.9847	2.63697	7.77209	0	
0.9853	1.71562	5.32877	0	
0.9860	0.492447	4.42125	0	
0.9867	-0.730727	5.02626	0	
0.9873	-1.63619	1.67542	0	
0.9880	-2.25572	-1.97793	0	
0.9887	-2.55755	-1.07041	0	
0.9893	0.492447	1.37291	0	
0.9900	4.46379	0.767901	0	
0.9907	4.76561	-1.07041	0	
0.9913	4.76561	-0.767901	0	
0.9920	8.13331	-0.465394	0	
0.9927	8.13331	-1.37291	0	
0.9933	3.86015	-2.60621	0	
0.9940	4.16197	-3.21122	0	
0.9947	5.38514	-3.51373	0	
0.9953	2.33515	-2.90871	0	
0.9960	-1.63619	-3.51373	0	
0.9967	-1.03255	-3.81623	0	
0.9973	-0.111198	-2.90871	0	
0.9980	-2.25572	-1.37291	0	
0.9987	-5.30572	-3.81623	0	
0.9993	-5.90936	-4.72375	0	
1.0000	-5.30572	1.07041	0	
1.0007	-4.68619	4.42125	0	
1.0013	-4.08254	0.767901	0	
1.0020	-4.38436	-1.07041	0	
1.0027	-5.60754	0.139618	0	
1.0033	-7.13253	-0.465394	0	
1.0040	-8.95935	-2.90871	0	
1.0047	-9.8807	-3.81623	0	
1.0053	-7.43436	-2.90871	0	
1.0060	-4.68619	-2.90871	0	
1.0067	-2.55755	-4.72375	0	
1.0073	0.794269	-3.81623	0	
1.0080	3.24062	-0.162888	0	
1.0087	2.93879	0.767901	0	
1.0093	1.71562	-0.162888	0	
1.0100	2.33515	-1.07041	0	
1.0107	3.24062	-2.90871	0	
1.0113	3.54244	-1.97793	0	
1.0120	3.54244	-1.67542	0	
1.0127	3.24062	-5.04953	0	
1.0133	2.01744	-4.42125	0	
1.0140	1.71562	1.67542	0	
1.0147	2.63697	1.97793	0	
1.0153	1.11198	-1.07041	0	
1.0160	-0.730727	0.767901	0	
1.0167	-0.111198	3.51373	0	
1.0173	-1.93802	5.32877	0	
1.0180	-6.21118	7.77209	0	
1.0187	-5.00389	7.46958	0	
1.0193	-0.730727	5.32877	0	
1.0200	-1.33437	4.72375	0	
1.0207	-2.85937	2.58294	0	
1.0213	-1.03255	-0.465394	0	
1.0220	-1.33437	0.465394	0	
1.0227	-2.85937	1.67542	0	
1.0233	-1.63619	0.767901	0	
1.0240	-1.93802	0.139618	0	
1.0247	-2.85937	0.767901	0	
1.0253	0.794269	1.97793	0	
1.0260	3.24062	2.58294	0	
1.0267	1.11198	1.67542	0	
1.0273	0.492447	0.767901	0	
1.0280	2.63697	0.139618	0	
1.0287	4.46379	0.767901	0	
1.0293	5.68697	1.97793	0	
1.0300	6.91014	0.767901	0	
1.0307	4.76561	-0.465394	0	
1.0313	3.24062	2.58294	0	
1.0320	5.38514	5.32877	0	
1.0327	7.21196	-0.465394	0	
1.0333	5.68697	-7.46958	0	
1.0340	1.71562	-8.40037	0	
1.0347	0.492447	-6.56206	0	
1.0353	2.01744	-5.35204	0	
1.0360	-0.111198	-3.81623	0	
1.0367	-3.78072	-0.162888	0	
1.0373	-2.25572	6.25955	0	
1.0380	0.190625	13.5662	0	
1.0387	-1.63619	14.7995	0	
1.0393	-3.46301	9.30789	0	
1.0400	-3.78072	5.32877	0	
1.0407	-4.38436	2.58294	0	
1.0413	-2.55755	-2.60621	0	
1.0420	0.190625	-5.04953	0	
1.0427	0.794269	-3.81623	0	
1.0433	1.71562	-5.65454	0	
1.0440	1.71562	-6.56206	0	
1.0447	-1.03255	-3.51373	0	
1.0453	-1.03255	-2.28043	0	
1.0460	0.794269	-5.65454	0	
1.0467	2.63697	-6.25955	0	
1.0473	5.06744	-1.07041	0	
1.0480	5.38514	9.9129	0	
1.0487	3.54244	17.8479	0	
1.0493	5.38514	14.1945	0	
1.0500	8.13331	6.56206	0	
1.0507	7.21196	5.32877	0	
1.0513	7.81561	5.63127	0	
1.0520	10.8656	5.63127	0	
1.0527	7.51378	6.86457	0	
1.0533	3.54244	4.42125	0	
1.0540	5.38514	-0.162888	0	
1.0547	4.46379	-1.67542	0	
1.0553	0.794269	-3.21122	0	
1.0560	1.11198	-7.16707	0	
1.0567	1.4138	-8.70287	0	
1.0573	-1.03255	-8.70287	0	
1.0580	-0.111198	-8.40037	0	
1.0587	-0.111198	-6.56206	0	
1.0593	-4.38436	-6.56206	0	
1.0600	-5.60754	-6.86457	0	
1.0607	-5.30572	-3.21122	0	
1.0613	-8.35571	-0.162888	0	
1.0620	-9.26117	-0.767901	0	
1.0627	-7.13253	-0.162888	0	
1.0633	-6.52889	-0.162888	0	
1.0640	-5.60754	-2.60621	0	
1.0647	-3.78072	-1.07041	0	
1.0653	-5.90936	0.139618	0	
1.0660	-8.95935	-3.81623	0	
1.0667	-8.95935	-5.35204	0	
1.0673	-6.52889	-3.81623	0	
1.0680	-4.38436	-5.65454	0	
1.0687	-3.78072	-2.60621	0	
1.0693	-2.25572	7.16707	0	
1.0700	0.794269	7.46958	0	
1.0707	1.4138	1.07041	0	
1.0713	0.794269	0.767901	0	
1.0720	1.11198	0.767901	0	
1.0727	-0.730727	-1.37291	0	
1.0733	-2.25572	0.767901	0	
1.0740	-0.111198	1.97793	0	
1.0747	1.4138	-1.07041	0	
1.0753	1.71562	-2.60621	0	
1.0760	1.71562	-1.37291	0	
1.0767	-0.730727	-2.90871	0	
1.0773	-1.33437	-3.51373	0	
1.0780	1.4138	-1.97793	0	
1.0787	0.190625	-0.767901	0	
1.0793	-3.78072	-0.465394	0	
1.0800	-2.85937	-2.28043	0	
1.0807	-0.41302	-4.72375	0	
1.0813	-1.93802	-5.95705	0	
1.0820	-2.85937	-5.65454	0	
1.0827	-2.85937	-3.81623	0	
1.0833	-4.68619	-2.60621	0	
1.0840	-4.68619	-4.11874	0	
1.0847	-2.85937	-7.16707	0	
1.0853	-1.33437	-7.46958	0	
1.0860	0.794269	-6.25955	0	
1.0867	2.01744	-3.81623	0	
1.0873	0.190625	-0.162888	0	
1.0880	-0.730727	2.28043	0	
1.0887	1.71562	2.58294	0	
1.0893	1.71562	1.97793	0	
1.0900	0.190625	1.07041	0	
1.0907	1.71562	1.67542	0	
1.0913	2.01744	2.58294	0	
1.0920	-1.33437	1.67542	0	
1.0927	-1.93802	-0.162888	0	
1.0933	0.190625	-1.97793	0	
1.0940	-1.03255	-3.51373	0	
1.0947	-3.46301	-2.90871	0	
1.0953	-2.85937	-1.97793	0	
1.0960	-1.93802	-3.21122	0	
1.0967	-4.38436	-5.35204	0	
1.0973	-6.21118	-5.65454	0	
1.0980	-3.78072	-3.81623	0	
1.0987	0.190625	-2.90871	0	
1.0993	0.190625	-3.21122	0	
1.1000	-1.93802	-2.28043	0	
1.1007	-2.55755	-1.07041	0	
1.1013	-2.55755	-2.90871	0	
1.1020	-0.41302	-4.72375	0	
1.1027	4.16197	-3.81623	0	
1.1033	5.68697	-1.97793	0	
1.1040	5.68697	0.767901	0	
1.1047	8.43514	2.28043	0	
1.1053	10.262	-0.162888	0	
1.1060	8.13331	-2.90871	0	
1.1067	5.68697	-1.37291	0	
1.1073	5.38514	-0.162888	0	
1.1080	6.29061	-0.162888	0	
1.1087	6.29061	1.37291	0	
1.1093	5.06744	2.88545	0	
1.1100	5.38514	2.58294	0	
1.1107	4.16197	1.67542	0	
1.1113	0.190625	2.58294	0	
1.1120	-1.63619	3.51373	0	
1.1127	0.190625	2.88545	0	
1.1133	1.4138	1.37291	0	
1.1140	0.794269	0.767901	0	
1.1147	-1.63619	0.767901	0	
1.1153	-3.46301	-0.162888	0	
1.1160	-2.55755	0.465394	0	
1.1167	-2.85937	2.58294	0	
1.1173	-5.00389	1.67542	0	
1.1180	-4.38436	-1.97793	0	
1.1187	-3.16119	-1.07041	0	
1.1193	-5.60754	1.67542	0	
1.1200	-6.52889	1.37291	0	
1.1207	-6.21118	-0.162888	0	
1.1213	-5.00389	-1.67542	0	
1.1220	-2.25572	-4.42125	0	
1.1227	-1.03255	-5.04953	0	
1.1233	-1.93802	-4.11874	0	
1.1240	0.794269	-6.56206	0	
1.1247	2.93879	-9.61039	0	
1.1253	1.11198	-7.46958	0	
1.1260	-1.33437	-5.35204	0	
1.1267	-2.55755	-5.65454	0	
1.1273	-3.16119	-5.04953	0	
1.1280	-2.25572	-0.162888	0	
1.1287	-0.41302	8.40037	0	
1.1293	2.63697	14.497	0	
1.1300	5.38514	13.5662	0	
1.1307	4.46379	9.9129	0	
1.1313	4.46379	9.30789	0	
1.1320	7.21196	6.86457	0	
1.1327	5.38514	4.42125	0	
1.1333	0.492447	5.95705	0	
1.1340	0.492447	4.42125	0	
1.1347	2.01744	-0.162888	0	
1.1353	0.492447	-0.465394	0	
1.1360	0.190625	-1.07041	0	
1.1367	-0.111198	-5.65454	0	
1.1373	-3.78072	-5.04953	0	
1.1380	-5.30572	-1.37291	0	
1.1387	-2.25572	-1.97793	0	
1.1393	2.01744	-0.162888	0	
1.1400	2.63697	5.02626	0	
1.1407	-1.03255	7.16707	0	
1.1413	-3.78072	8.07459	0	
1.1420	-0.730727	5.32877	0	
1.1427	-0.41302	-2.90871	0	
1.1433	-3.78072	-6.25955	0	
1.1440	-2.85937	-1.67542	0	
1.1447	-0.111198	0.767901	0	
1.1453	-1.33437	2.28043	0	
1.1460	-2.25572	6.56206	0	
1.1467	-1.63619	9.61039	0	
1.1473	-2.85937	10.8204	0	
1.1480	-4.38436	10.5179	0	
1.1487	-2.85937	6.25955	0	
1.1493	-1.93802	2.58294	0	
1.1500	-2.85937	4.11874	0	
1.1507	-0.730727	4.42125	0	
1.1513	2.63697	2.88545	0	
1.1520	2.93879	4.42125	0	
1.1527	2.63697	5.02626	0	
1.1533	4.46379	2.28043	0	
1.1540	3.54244	0.767901	0	
1.1547	-0.41302	0.139618	0	
1.1553	-1.93802	-2.90871	0	
1.1560	-2.25572	-4.11874	0	
1.1567	-4.68619	-3.81623	0	
1.1573	-3.16119	-4.11874	0	
1.1580	3.24062	-5.65454	0	
1.1587	6.59243	-5.65454	0	
1.1593	2.93879	-5.35204	0	
1.1600	-1.33437	-6.56206	0	
1.1607	-2.25572	-9.00538	0	
1.1613	-1.03255	-10.2154	0	
1.1620	-1.93802	-7.46958	0	
1.1627	-5.30572	-3.21122	0	
1.1633	-6.52889	-3.51373	0	
1.1640	-5.00389	-3.21122	0	
1.1647	-3.78072	1.67542	0	
1.1653	-3.46301	3.21122	0	
1.1660	-3.78072	-0.465394	0	
1.1667	-3.78072	-1.07041	0	
1.1673	-2.85937	-0.465394	0	
1.1680	-2.85937	-3.51373	0	
1.1687	-5.60754	-5.04953	0	
1.1693	-7.43436	-3.81623	0	
1.1700	-5.60754	-3.81623	0	
1.1707	-3.16119	-1.07041	0	
1.1713	-1.03255	5.32877	0	
1.1720	1.11198	5.63127	0	
1.1727	1.4138	1.67542	0	
1.1733	2.33515	1.37291	0	
1.1740	4.46379	2.28043	0	
1.1747	3.24062	1.37291	0	
1.1753	2.63697	1.97793	0	
1.1760	6.59243	2.28043	0	
1.1767	7.81561	-1.07041	0	
1.1773	3.54244	-2.28043	0	
1.1780	0.794269	-0.767901	0	
1.1787	0.794269	-0.162888	0	
1.1793	0.190625	-1.07041	0	
1.1800	0.794269	-2.60621	0	
1.1807	2.01744	-3.21122	0	
1.1813	2.01744	-1.97793	0	
1.1820	1.71562	-1.67542	0	
1.1827	0.190625	-2.90871	0	
1.1833	-1.93802	-2.28043	0	
1.1840	-2.55755	-0.465394	0	
1.1847	-1.93802	-0.162888	0	
1.1853	-1.93802	-0.767901	0	
1.1860	-1.03255	-0.162888	0	
1.1867	2.33515	1.97793	0	
1.1873	2.63697	2.88545	0	
1.1880	1.4138	1.67542	0	
1.1887	1.71562	2.28043	0	
1.1893	3.54244	2.28043	0	
1.1900	3.54244	-0.162888	0	
1.1907	2.93879	-0.465394	0	
1.1913	2.63697	1.07041	0	
1.1920	2.63697	-0.465394	0	
1.1927	2.63697	-2.60621	0	
1.1933	2.63697	-1.97793	0	
1.1940	2.33515	-3.21122	0	
1.1947	1.4138	-4.72375	0	
1.1953	-0.111198	-2.60621	0	
1.1960	-0.730727	0.465394	0	
1.1967	-0.41302	-1.07041	0	
1.1973	-1.03255	-5.04953	0	
1.1980	-3.78072	-5.35204	0	
1.1987	-4.68619	-3.81623	0	
1.1993	-3.16119	-5.65454	0	
1.2000	-2.85937	-7.46958	0	
1.2007	-5.60754	-6.25955	0	
1.2013	-7.13253	-5.35204	0	
1.2020	-4.68619	-6.25955	0	
1.2027	-4.68619	-4.72375	0	
1.2033	-4.68619	1.07041	0	
1.2040	-1.63619	9.9129	0	
1.2047	1.4138	15.102	0	
1.2053	1.4138	13.5662	0	
1.2060	1.4138	9.61039	0	
1.2067	0.492447	7.16707	0	
1.2073	-0.111198	3.81623	0	
1.2080	2.63697	1.07041	0	
1.2087	5.06744	1.67542	0	
1.2093	3.54244	4.42125	0	
1.2100	2.63697	7.16707	0	
1.2107	1.11198	6.86457	0	
1.2113	-3.16119	4.11874	0	
1.2120	-5.90936	3.21122	0	
1.2127	-5.30572	3.21122	0	
1.2133	-5.60754	2.58294	0	
1.2140	-4.68619	0.767901	0	
1.2147	-0.41302	-0.767901	0	
1.2153	2.63697	0.767901	0	
1.2160	2.63697	0.139618	0	
1.2167	4.16197	-3.81623	0	
1.2173	5.38514	-2.28043	0	
1.2180	4.46379	3.21122	0	
1.2187	2.33515	0.767901	0	
1.2193	-0.111198	-2.28043	0	
1.2200	-1.63619	1.67542	0	
1.2207	-0.730727	3.81623	0	
1.2213	-0.111198	1.67542	0	
1.2220	-2.85937	1.37291	0	
1.2227	-4.68619	0.465394	0	
1.2233	-2.85937	-1.67542	0	
1.2240	-1.03255	-0.465394	0	
1.2247	-1.93802	-0.465394	0	
1.2253	-3.16119	-2.90871	0	
1.2260	-3.16119	-2.90871	0	
1.2267	-4.08254	-0.162888	0	
1.2273	-5.00389	1.67542	0	
1.2280	-2.85937	1.67542	0	
1.2287	-1.93802	0.767901	0	
1.2293	-3.78072	2.28043	0	
1.2300	-2.85937	4.11874	0	
1.2307	-0.111198	3.21122	0	
1.2313	0.794269	1.67542	0	
1.2320	2.63697	2.58294	0	
1.2327	4.46379	3.51373	0	
1.2333	2.63697	2.88545	0	
1.2340	2.01744	-0.767901	0	
1.2347	4.16197	-2.60621	0	
1.2353	3.86015	-0.465394	0	
1.2360	1.71562	0.139618	0	
1.2367	2.01744	-0.465394	0	
1.2373	2.63697	1.37291	0	
1.2380	2.63697	2.58294	0	
1.2387	2.01744	-1.07041	0	
1.2393	0.190625	-6.56206	0	
1.2400	-1.03255	-10.2154	0	
1.2407	-1.03255	-11.1462	0	
1.2413	-1.63619	-11.7512	0	
1.2420	-1.03255	-16.3353	0	
1.2427	0.794269	-19.3837	0	
1.2433	0.190625	-18.4762	0	
1.2440	1.71562	-17.2429	0	
1.2447	5.38514	-10.5412	0	
1.2453	3.54244	-2.90871	0	
1.2460	-1.03255	-4.72375	0	
1.2467	-0.41302	-3.51373	0	
1.2473	2.33515	13.5662	0	
1.2480	4.16197	25.1778	0	
1.2487	6.29061	18.1504	0	
1.2493	6.29061	9.9129	0	
1.2500	5.38514	5.32877	0	
1.2507	6.91014	-0.162888	0	
1.2513	7.21196	-3.21122	0	
1.2520	5.68697	-2.90871	0	
1.2527	5.98879	-0.465394	0	
1.2533	6.91014	1.97793	0	
1.2540	5.38514	0.465394	0	
1.2547	2.33515	-1.97793	0	
1.2553	-0.111198	-0.465394	0	
1.2560	1.71562	0.139618	0	
1.2567	2.33515	-1.97793	0	
1.2573	-1.03255	-2.90871	0	
1.2580	-2.85937	-3.51373	0	
1.2587	-1.93802	-4.11874	0	
1.2593	-4.38436	-2.28043	0	
1.2600	-4.68619	-1.37291	0	
1.2607	-2.85937	-4.72375	0	
1.2613	-5.90936	-6.56206	0	
1.2620	-9.57888	-4.11874	0	
1.2627	-6.83071	-4.72375	0	
1.2633	-5.30572	-7.46958	0	
1.2640	-6.52889	-7.16707	0	
1.2647	-6.52889	-5.35204	0	
1.2653	-6.52889	-4.42125	0	
1.2660	-4.68619	-3.21122	0	
1.2667	0.190625	-1.07041	0	
1.2673	-0.111198	-0.162888	0	
1.2680	-3.16119	-0.767901	0	
1.2687	-1.03255	-0.767901	0	
1.2693	-1.03255	-0.767901	0	
1.2700	-5.90936	-1.37291	0	
1.2707	-7.43436	-1.07041	0	
1.2713	-6.52889	2.28043	0	
1.2720	-5.60754	4.42125	0	
1.2727	-2.85937	2.28043	0	
1.2733	-2.25572	-1.97793	0	
1.2740	-6.52889	-2.90871	0	
1.2747	-7.13253	-3.21122	0	
1.2753	-3.78072	-4.42125	0	
1.2760	-2.85937	-4.72375	0	
1.2767	-2.25572	-5.65454	0	
1.2773	-0.111198	-7.46958	0	
1.2780	0.492447	-7.16707	0	
1.2787	-0.730727	-5.65454	0	
1.2793	-1.03255	-5.35204	0	
1.2800	-1.93802	-3.81623	0	
1.2807	-4.68619	-2.90871	0	
1.2813	-4.08254	-3.51373	0	
1.2820	-2.25572	-1.07041	0	
1.2827	-3.16119	2.88545	0	
1.2833	-2.55755	4.11874	0	
1.2840	0.794269	3.51373	0	
1.2847	0.190625	2.58294	0	
1.2853	-1.33437	-1.07041	0	
1.2860	2.01744	-3.21122	0	
1.2867	4.16197	-1.07041	0	
1.2873	3.54244	-0.767901	0	
1.2880	5.68697	-3.21122	0	
1.2887	6.91014	-3.21122	0	
1.2893	4.16197	-2.90871	0	
1.2900	5.06744	-5.04953	0	
1.2907	7.21196	-5.04953	0	
1.2913	3.54244	-0.767901	0	
1.2920	0.492447	0.465394	0	
1.2927	2.93879	-1.07041	0	
1.2933	4.46379	1.37291	0	
1.2940	2.01744	3.51373	0	
1.2947	2.33515	2.58294	0	
1.2953	4.16197	2.88545	0	
1.2960	4.16197	3.81623	0	
1.2967	3.54244	5.32877	0	
1.2973	1.71562	9.9129	0	
1.2980	-1.93802	13.892	0	
1.2987	-4.68619	10.5179	0	
1.2993	-5.30572	3.81623	0	
1.3000	-4.68619	0.139618	0	
1.3007	-1.63619	-0.465394	0	
1.3013	-1.03255	-0.465394	0	
1.3020	-5.60754	-1.67542	0	
1.3027	-7.13253	-1.67542	0	
1.3033	-5.90936	-0.162888	0	
1.3040	-7.43436	0.767901	0	
1.3047	-6.83071	0.767901	0	
1.3053	-3.46301	1.67542	0	
1.3060	-2.25572	0.767901	0	
1.3067	-1.93802	-0.162888	0	
1.3073	-1.63619	1.67542	0	
1.3080	-3.46301	4.42125	0	
1.3087	-3.16119	4.72375	0	
1.3093	0.794269	4.11874	0	
1.3100	1.71562	2.88545	0	
1.3107	-0.111198	1.67542	0	
1.3113	2.33515	2.28043	0	
1.3120	4.46379	4.42125	0	
1.3127	3.86015	3.51373	0	
1.3133	3.54244	-0.162888	0	
1.3140	2.63697	-1.67542	0	
1.3147	0.190625	-1.37291	0	
1.3153	0.492447	-4.11874	0	
1.3160	0.492447	-5.35204	0	
1.3167	0.190625	-2.90871	0	
1.3173	2.63697	-5.65454	0	
1.3180	2.93879	-10.2154	0	
1.3187	0.492447	-8.40037	0	
1.3193	-0.111198	-9.9129	0	
1.3200	-1.93802	-12.6587	0	
1.3207	-7.13253	-4.72375	0	
1.3213	-8.35571	-0.162888	0	
1.3220	-6.83071	-4.11874	0	
1.3227	-8.35571	1.97793	0	
1.3233	-7.43436	13.5662	0	
1.3240	-3.46301	8.07459	0	
1.3247	-2.25572	-5.35204	0	
1.3253	-1.33437	-9.00538	0	
1.3260	1.11198	-7.16707	0	
1.3267	2.63697	-4.42125	0	
1.3273	3.54244	-2.28043	0	
1.3280	2.63697	-2.28043	0	
1.3287	-0.111198	0.465394	0	
1.3293	1.71562	8.40037	0	
1.3300	3.54244	14.7995	0	
1.3307	1.71562	18.1504	0	
1.3313	3.54244	17.2429	0	
1.3320	7.21196	9.9129	0	
1.3327	5.38514	3.81623	0	
1.3333	3.24062	3.51373	0	
1.3340	5.68697	3.51373	0	
1.3347	5.98879	2.58294	0	
1.3353	3.54244	2.58294	0	
1.3360	4.46379	0.139618	0	
1.3367	4.46379	-1.97793	0	
1.3373	2.63697	-0.162888	0	
1.3380	3.86015	-0.465394	0	
1.3387	7.81561	-1.97793	0	
1.3393	8.13331	-0.162888	0	
1.3400	5.38514	-0.162888	0	
1.3407	3.24062	-3.51373	0	
1.3413	1.71562	-4.72375	0	
1.3420	0.492447	-3.81623	0	
1.3427	-1.33437	-2.60621	0	
1.3433	-1.33437	-2.28043	0	
1.3440	-0.111198	-2.90871	0	
1.3447	-0.730727	-1.67542	0	
1.3453	-0.41302	-1.37291	0	
1.3460	1.71562	-4.72375	0	
1.3467	0.190625	-4.11874	0	
1.3473	-4.68619	0.465394	0	
1.3480	-4.08254	0.767901	0	
1.3487	0.794269	-1.67542	0	
1.3493	1.71562	-0.162888	0	
1.3500	-1.03255	1.67542	0	
1.3507	-2.25572	1.67542	0	
1.3513	-1.03255	2.58294	0	
1.3520	-1.33437	2.58294	0	
1.3527	-3.78072	-0.465394	0	
1.3533	-3.46301	-2.60621	0	
1.3540	-1.93802	0.767901	0	
1.3547	-2.55755	4.72375	0	
1.3553	-1.33437	3.51373	0	
1.3560	1.4138	-0.767901	0	
1.3567	1.11198	-2.90871	0	
1.3573	0.794269	-1.97793	0	
1.3580	1.4138	-1.07041	0	
1.3587	0.794269	-1.37291	0	
1.3593	-0.111198	-2.90871	0	
1.3600	-2.55755	-2.90871	0	
1.3607	-7.73618	-1.67542	0	
1.3613	-6.83071	-1.97793	0	
1.3620	-0.730727	-1.97793	0	
1.3627	0.190625	-1.07041	0	
1.3633	-2.55755	-1.07041	0	
1.3640	-2.55755	-1.37291	0	
1.3647	-2.25572	-0.767901	0	
1.3653	-5.30572	-0.767901	0	
1.3660	-7.73618	-1.07041	0	
1.3667	-7.43436	-1.07041	0	
1.3673	-3.78072	-0.162888	0	
1.3680	-1.33437	1.07041	0	
1.3687	-1.93802	2.28043	0	
1.3693	-1.63619	-0.162888	0	
1.3700	-0.41302	-1.97793	0	
1.3707	-1.03255	0.465394	0	
1.3713	-1.93802	3.21122	0	
1.3720	-1.63619	1.37291	0	
1.3727	-0.111198	-0.162888	0	
1.3733	0.794269	-1.07041	0	
1.3740	1.11198	-2.28043	0	
1.3747	-0.111198	-2.60621	0	
1.3753	-0.41302	-2.60621	0	
1.3760	1.71562	-4.42125	0	
1.3767	3.24062	-5.35204	0	
1.3773	2.63697	-4.72375	0	
1.3780	1.4138	-5.04953	0	
1.3787	0.190625	-2.90871	0	
1.3793	-1.33437	1.37291	0	
1.3800	-2.85937	1.67542	0	
1.3807	-2.85937	0.767901	0	
1.3813	-2.85937	1.07041	0	
1.3820	-4.38436	1.07041	0	
1.3827	-5.30572	1.97793	0	
1.3833	-4.38436	4.42125	0	
1.3840	-3.46301	3.51373	0	
1.3847	-3.16119	-0.162888	0	
1.3853	-3.78072	0.139618	0	
1.3860	-5.00389	2.88545	0	
1.3867	-5.30572	1.97793	0	
1.3873	-4.38436	2.28043	0	
1.3880	-3.16119	3.81623	0	
1.3887	-1.33437	0.139618	0	
1.3893	0.794269	-2.90871	0	
1.3900	1.71562	-0.162888	0	
1.3907	1.4138	1.97793	0	
1.3913	1.11198	0.767901	0	
1.3920	0.794269	1.67542	0	
1.3927	0.794269	2.58294	0	
1.3933	0.794269	0.767901	0	
1.3940	1.4138	-1.97793	0	
1.3947	1.4138	-3.81623	0	
1.3953	0.190625	-3.81623	0	
1.3960	-0.41302	-4.72375	0	
1.3967	-0.111198	-9.9129	0	
1.3973	-0.41302	-9.61039	0	
1.3980	-1.03255	-0.465394	0	
1.3987	-2.85937	2.58294	0	
1.3993	-3.46301	-2.90871	0	
1.4000	-1.03255	-3.81623	0	
1.4007	0.190625	0.465394	0	
1.4013	-2.85937	6.86457	0	
1.4020	-3.16119	15.102	0	
1.4027	-0.111198	15.4046	0	
1.4033	1.71562	6.56206	0	
1.4040	2.01744	2.58294	0	
1.4047	0.794269	2.58294	0	
1.4053	-1.93802	-1.07041	0	
1.4060	-0.730727	-4.42125	0	
1.4067	1.71562	-4.72375	0	
1.4073	1.11198	-5.65454	0	
1.4080	0.794269	-6.56206	0	
1.4087	2.63697	-4.11874	0	
1.4093	2.63697	-0.465394	0	
1.4100	3.24062	1.67542	0	
1.4107	3.24062	2.58294	0	
1.4113	1.71562	6.25955	0	
1.4120	2.63697	10.2154	0	
1.4127	3.24062	9.9129	0	
1.4133	0.794269	6.25955	0	
1.4140	-1.93802	3.21122	0	
1.4147	-2.85937	1.67542	0	
1.4153	-2.85937	2.88545	0	
1.4160	-1.63619	3.21122	0	
1.4167	-1.63619	1.67542	0	
1.4173	-2.85937	-0.162888	0	
1.4180	-3.46301	-2.90871	0	
1.4187	-4.68619	-5.04953	0	
1.4193	-6.21118	-3.81623	0	
1.4200	-4.08254	-2.90871	0	
1.4207	-2.55755	-3.81623	0	
1.4213	-2.85937	-4.42125	0	
1.4220	-0.730727	-3.81623	0	
1.4227	1.71562	-3.81623	0	
1.4233	2.63697	-3.21122	0	
1.4240	3.86015	-2.28043	0	
1.4247	5.06744	-1.37291	0	
1.4253	3.86015	0.139618	0	
1.4260	3.54244	-0.162888	0	
1.4267	4.46379	-1.07041	0	
1.4273	4.16197	-0.767901	0	
1.4280	2.63697	-1.97793	0	
1.4287	3.86015	-2.28043	0	
1.4293	7.21196	-1.07041	0	
1.4300	8.43514	-0.465394	0	
1.4307	6.91014	-0.162888	0	
1.4313	4.76561	2.58294	0	
1.4320	4.16197	4.11874	0	
1.4327	4.76561	2.28043	0	
1.4333	3.54244	-1.07041	0	
1.4340	0.492447	-1.07041	0	
1.4347	-1.93802	1.67542	0	
1.4353	-2.25572	1.37291	0	
1.4360	-4.38436	-1.07041	0	
1.4367	-7.43436	-1.07041	0	
1.4373	-8.05389	-3.81623	0	
1.4380	-8.35571	-10.5412	0	
1.4387	-12.0093	-14.1945	0	
1.4393	-14.7575	-13.287	0	
1.4400	-13.852	-10.8437	0	
1.4407	-11.4057	-9.30789	0	
1.4413	-10.1825	-9.9129	0	
1.4420	-7.73618	-6.25955	0	
1.4427	-2.85937	2.88545	0	
1.4433	-1.03255	8.07459	0	
1.4440	-1.33437	11.1462	0	
1.4447	1.4138	16.9404	0	
1.4453	4.46379	14.497	0	
1.4460	5.06744	4.72375	0	
1.4467	6.29061	0.767901	0	
1.4473	8.13331	0.767901	0	
1.4480	5.68697	-0.162888	0	
1.4487	4.46379	1.37291	0	
1.4493	6.59243	3.51373	0	
1.4500	7.81561	2.88545	0	
1.4507	7.21196	4.42125	0	
1.4513	7.51378	5.95705	0	
1.4520	6.29061	4.42125	0	
1.4527	4.16197	3.21122	0	
1.4533	2.93879	3.51373	0	
1.4540	2.93879	1.07041	0	
1.4547	2.93879	-1.97793	0	
1.4553	3.24062	-2.90871	0	
1.4560	3.54244	-3.21122	0	
1.4567	3.24062	-2.28043	0	
1.4573	1.71562	-1.07041	0	
1.4580	0.190625	-1.07041	0	
1.4587	0.190625	-1.97793	0	
1.4593	0.492447	-1.97793	0	
1.4600	-0.111198	-1.37291	0	
1.4607	-1.33437	-2.90871	0	
1.4613	-1.33437	-4.72375	0	
1.4620	0.794269	-3.81623	0	
1.4627	0.492447	-2.90871	0	
1.4633	-1.93802	-3.21122	0	
1.4640	-0.730727	-3.81623	0	
1.4647	2.01744	-2.90871	0	
1.4653	0.190625	-0.767901	0	
1.4660	-3.46301	-0.162888	0	
1.4667	-4.38436	-2.60621	0	
1.4673	-5.60754	-3.81623	0	
1.4680	-5.90936	-2.28043	0	
1.4687	-4.08254	-2.60621	0	
1.4693	-5.30572	-5.65454	0	
1.4700	-7.43436	-6.56206	0	
1.4707	-5.60754	-7.79536	0	
1.4713	-3.46301	-12.9612	0	
1.4720	-5.00389	-14.7995	0	
1.4727	-6.83071	-12.0537	0	
1.4733	-6.21118	-9.9129	0	
1.4740	-5.00389	-5.35204	0	
1.4747	-3.46301	-0.465394	0	
1.4753	-1.03255	-1.07041	0	
1.4760	2.01744	1.67542	0	
1.4767	4.76561	10.5179	0	
1.4773	5.38514	12.3562	0	
1.4780	2.93879	5.63127	0	
1.4787	2.01744	1.07041	0	
1.4793	3.86015	-0.767901	0	
1.4800	6.59243	-0.767901	0	
1.4807	6.29061	0.767901	0	
1.4813	3.54244	0.139618	0	
1.4820	2.63697	-1.97793	0	
1.4827	2.63697	-1.97793	0	
1.4833	-0.111198	-3.51373	0	
1.4840	-1.63619	-7.16707	0	
1.4847	-0.111198	-7.79536	0	
1.4853	-0.730727	-5.04953	0	
1.4860	-1.93802	-1.67542	0	
1.4867	-0.111198	1.67542	0	
1.4873	-0.730727	2.28043	0	
1.4880	-2.55755	0.465394	0	
1.4887	0.794269	1.67542	0	
1.4893	4.16197	4.11874	0	
1.4900	3.54244	3.81623	0	
1.4907	3.24062	2.58294	0	
1.4913	2.93879	2.58294	0	
1.4920	-0.111198	3.21122	0	
1.4927	-2.55755	2.88545	0	
1.4933	-0.730727	2.58294	0	
1.4940	2.63697	1.37291	0	
1.4947	2.93879	1.07041	0	
1.4953	-1.93802	1.67542	0	
1.4960	-5.30572	1.67542	0	
1.4967	-3.46301	-0.162888	0	
1.4973	-3.78072	-2.28043	0	
1.4980	-6.52889	-2.28043	0	
1.4987	-6.21118	-1.07041	0	
1.4993	-5.60754	-2.90871	0	
1.5000	-7.73618	-7.79536	0	
1.5007	-8.65753	-9.30789	0	
1.5013	-7.73618	-7.79536	0	
1.5020	-7.43436	-8.70287	0	
1.5027	-7.13253	-10.8437	0	
1.5033	-6.83071	-8.40037	0	
1.5040	-6.52889	-3.81623	0	
1.5047	-4.08254	-1.67542	0	
1.5053	-1.33437	0.767901	0	
1.5060	-0.730727	4.11874	0	
1.5067	-0.111198	5.32877	0	
1.5073	1.4138	4.11874	0	
1.5080	1.11198	3.81623	0	
1.5087	0.190625	3.81623	0	
1.5093	0.794269	2.88545	0	
1.5100	3.24062	2.88545	0	
1.5107	5.98879	3.21122	0	
1.5113	5.98879	2.58294	0	
1.5120	2.63697	3.21122	0	
1.5127	0.794269	4.42125	0	
1.5133	1.71562	4.11874	0	
1.5140	1.4138	0.767901	0	
1.5147	-0.111198	-2.60621	0	
1.5153	-0.730727	-3.51373	0	
1.5160	-1.63619	-1.07041	0	
1.5167	-4.08254	0.465394	0	
1.5173	-5.60754	-1.67542	0	
1.5180	-6.52889	-3.81623	0	
1.5187	-6.52889	-1.97793	0	
1.5193	-5.60754	-0.465394	0	
1.5200	-5.60754	-2.28043	0	
1.5207	-4.68619	-3.81623	0	
1.5213	-3.46301	-2.60621	0	
1.5220	-4.68619	-2.90871	0	
1.5227	-3.46301	-5.04953	0	
1.5233	0.794269	-3.81623	0	
1.5240	0.492447	-2.90871	0	
1.5247	-2.25572	-3.81623	0	
1.5253	0.794269	-3.81623	0	
1.5260	3.86015	-3.21122	0	
1.5267	3.54244	-4.42125	0	
1.5273	5.06744	-2.90871	0	
1.5280	5.68697	3.81623	0	
1.5287	2.63697	6.56206	0	
1.5293	1.4138	4.11874	0	
1.5300	3.86015	1.67542	0	
1.5307	4.46379	1.67542	0	
1.5313	3.54244	2.28043	0	
1.5320	5.68697	3.21122	0	
1.5327	7.21196	2.58294	0	
1.5333	5.98879	0.767901	0	
1.5340	3.86015	0.767901	0	
1.5347	1.71562	0.767901	0	
1.5353	0.190625	-1.07041	0	
1.5360	-0.111198	-0.767901	0	
1.5367	-2.25572	0.465394	0	
1.5373	-5.60754	-1.97793	0	
1.5380	-6.21118	-3.51373	0	
1.5387	-4.68619	-1.67542	0	
1.5393	-4.68619	-1.67542	0	
1.5400	-5.60754	-2.90871	0	
1.5407	-8.05389	-3.21122	0	
1.5413	-9.26117	-4.42125	0	
1.5420	-7.73618	-5.65454	0	
1.5427	-5.60754	-3.51373	0	
1.5433	-3.78072	-2.60621	0	
1.5440	-2.85937	-7.16707	0	
1.5447	-3.46301	-12.3562	0	
1.5453	-2.25572	-12.9612	0	
1.5460	1.71562	-10.2154	0	
1.5467	3.54244	-7.16707	0	
1.5473	3.24062	-4.72375	0	
1.5480	4.46379	-3.51373	0	
1.5487	5.98879	-1.37291	0	
1.5493	5.06744	3.51373	0	
1.5500	2.63697	10.2154	0	
1.5507	2.33515	15.102	0	
1.5513	4.76561	12.6587	0	
1.5520	5.38514	1.67542	0	
1.5527	2.63697	-7.16707	0	
1.5533	3.86015	-8.40037	0	
1.5540	6.91014	-10.2154	0	
1.5547	2.93879	-13.5895	0	
1.5553	-1.03255	-8.09786	0	
1.5560	2.63697	0.465394	0	
1.5567	4.46379	1.67542	0	
1.5573	2.33515	1.97793	0	
1.5580	0.794269	5.32877	0	
1.5587	-0.730727	9.00538	0	
1.5593	-4.38436	14.497	0	
1.5600	-3.78072	18.7554	0	
1.5607	-3.78072	13.892	0	
1.5613	-8.35571	6.25955	0	
1.5620	-9.57888	2.58294	0	
1.5627	-6.52889	0.767901	0	
1.5633	-5.90936	1.37291	0	
1.5640	-5.60754	1.67542	0	
1.5647	-4.68619	1.07041	0	
1.5653	-5.30572	2.28043	0	
1.5660	-4.38436	3.21122	0	
1.5667	-3.16119	1.67542	0	
1.5673	-5.30572	1.37291	0	
1.5680	-4.38436	1.97793	0	
1.5687	-0.41302	1.67542	0	
1.5693	-0.111198	1.37291	0	
1.5700	-1.33437	0.139618	0	
1.5707	-1.93802	-0.162888	0	
1.5713	-3.16119	2.88545	0	
1.5720	-1.93802	3.81623	0	
1.5727	2.01744	2.28043	0	
1.5733	2.93879	3.51373	0	
1.5740	3.24062	3.51373	0	
1.5747	3.54244	2.58294	0	
1.5753	1.71562	4.72375	0	
1.5760	1.4138	3.21122	0	
1.5767	5.38514	-1.97793	0	
1.5773	5.68697	-0.162888	0	
1.5780	0.794269	1.97793	0	
1.5787	-3.78072	-5.35204	0	
1.5793	-5.00389	-9.61039	0	
1.5800	-5.30572	-5.65454	0	
1.5807	-6.21118	-4.72375	0	
1.5813	-6.52889	-6.56206	0	
1.5820	-5.60754	-4.42125	0	
1.5827	-4.38436	-3.51373	0	
1.5833	-4.68619	-3.81623	0	
1.5840	-4.38436	-1.07041	0	
1.5847	-2.55755	1.07041	0	
1.5853	-1.93802	2.28043	0	
1.5860	-0.730727	4.11874	0	
1.5867	1.4138	3.51373	0	
1.5873	2.63697	-1.07041	0	
1.5880	3.54244	-5.35204	0	
1.5887	2.93879	-6.56206	0	
1.5893	3.24062	-3.81623	0	
1.5900	4.46379	-1.07041	0	
1.5907	3.86015	-2.90871	0	
1.5913	2.33515	-3.21122	0	
1.5920	3.54244	0.139618	0	
1.5927	5.98879	1.07041	0	
1.5933	4.46379	2.58294	0	
1.5940	2.93879	8.40037	0	
1.5947	3.54244	8.40037	0	
1.5953	3.86015	4.11874	0	
1.5960	3.54244	5.32877	0	
1.5967	2.63697	7.77209	0	
1.5973	0.492447	3.81623	0	
1.5980	-1.03255	0.767901	0	
1.5987	-1.33437	-0.767901	0	
1.5993	-2.85937	-2.90871	0	
1.6000	-4.68619	-3.51373	0	
1.6007	-5.30572	-2.28043	0	
1.6013	-5.30572	-3.21122	0	
1.6020	-5.00389	-3.81623	0	
1.6027	-5.00389	-2.60621	0	
1.6033	-5.90936	-2.60621	0	
1.6040	-5.00389	-2.28043	0	
1.6047	-2.55755	0.767901	0	
1.6053	-1.93802	3.51373	0	
1.6060	-1.93802	1.67542	0	
1.6067	-0.41302	-1.07041	0	
1.6073	-1.93802	0.139618	0	
1.6080	-4.68619	0.465394	0	
1.6087	-4.68619	-1.97793	0	
1.6093	-4.68619	-1.37291	0	
1.6100	-3.78072	1.07041	0	
1.6107	-0.41302	-1.37291	0	
1.6113	2.33515	-4.72375	0	
1.6120	3.24062	-3.51373	0	
1.6127	4.16197	-2.60621	0	
1.6133	2.93879	-5.65454	0	
1.6140	2.63697	-8.40037	0	
1.6147	3.54244	-5.65454	0	
1.6153	2.33515	-1.07041	0	
1.6160	1.4138	-1.97793	0	
1.6167	5.38514	-4.72375	0	
1.6173	8.13331	-1.07041	0	
1.6180	5.98879	5.02626	0	
1.6187	3.86015	9.61039	0	
1.6193	2.63697	13.5662	0	
1.6200	0.492447	10.8204	0	
1.6207	-0.111198	-2.90871	0	
1.6213	-0.111198	-13.892	0	
1.6220	-1.93802	-14.7995	0	
1.6227	-2.85937	-12.0537	0	
1.6233	-1.93802	-10.5412	0	
1.6240	-0.730727	-8.09786	0	
1.6247	-1.63619	-3.51373	0	
1.6253	-2.55755	1.97793	0	
1.6260	-1.03255	5.63127	0	
1.6267	1.71562	9.9129	0	
1.6273	2.63697	12.9612	0	
1.6280	2.63697	9.9129	0	
1.6287	2.63697	4.42125	0	
1.6293	1.71562	4.42125	0	
1.6300	2.63697	5.32877	0	
1.6307	4.46379	6.25955	0	
1.6313	4.76561	10.8204	0	
1.6320	3.24062	12.6587	0	
1.6327	2.63697	9.00538	0	
1.6333	3.86015	5.32877	0	
1.6340	4.46379	2.88545	0	
1.6347	2.93879	0.767901	0	
1.6353	1.11198	0.767901	0	
1.6360	-1.93802	0.767901	0	
1.6367	-4.68619	-0.162888	0	
1.6373	-5.00389	1.07041	0	
1.6380	-2.55755	2.28043	0	
1.6387	-0.111198	-0.162888	0	
1.6393	-2.25572	-2.28043	0	
1.6400	-6.52889	-2.90871	0	
1.6407	-8.05389	-2.90871	0	
1.6413	-8.35571	-3.51373	0	
1.6420	-8.95935	-5.65454	0	
1.6427	-8.35571	-8.09786	0	
1.6433	-7.13253	-5.65454	0	
1.6440	-5.30572	-0.162888	0	
1.6447	-0.730727	0.139618	0	
1.6453	1.11198	-1.97793	0	
1.6460	-1.03255	-1.07041	0	
1.6467	1.71562	0.465394	0	
1.6473	6.59243	0.139618	0	
1.6480	6.59243	1.07041	0	
1.6487	6.29061	2.88545	0	
1.6493	9.3406	3.21122	0	
1.6500	9.96013	2.58294	0	
1.6507	9.03878	1.67542	0	
1.6513	8.13331	-0.162888	0	
1.6520	4.46379	-0.767901	0	
1.6527	0.794269	0.139618	0	
1.6533	0.794269	0.767901	0	
1.6540	1.71562	1.07041	0	
1.6547	-0.111198	0.767901	0	
1.6553	-2.25572	0.465394	0	
1.6560	-1.03255	-1.07041	0	
1.6567	-0.41302	-2.60621	0	
1.6573	-3.78072	-3.81623	0	
1.6580	-4.68619	-4.11874	0	
1.6587	-1.93802	-5.65454	0	
1.6593	-3.16119	-9.30789	0	
1.6600	-6.21118	-13.892	0	
1.6607	-5.00389	-13.892	0	
1.6613	-4.08254	-11.7512	0	
1.6620	-5.00389	-10.5412	0	
1.6627	-4.38436	-6.56206	0	
1.6633	-3.46301	-0.162888	0	
1.6640	-3.78072	0.767901	0	
1.6647	-2.25572	0.767901	0	
1.6653	-0.730727	4.42125	0	
1.6660	-1.63619	4.42125	0	
1.6667	-2.85937	0.767901	0	
1.6673	-3.46301	1.67542	0	
1.6680	-4.08254	4.42125	0	
1.6687	-3.78072	3.21122	0	
1.6693	-4.38436	-0.162888	0	
1.6700	-6.52889	-2.90871	0	
1.6707	-5.60754	-1.67542	0	
1.6713	-1.93802	1.07041	0	
1.6720	-2.55755	0.139618	0	
1.6727	-4.68619	-0.162888	0	
1.6733	-3.16119	5.32877	0	
1.6740	-1.63619	9.00538	0	
1.6747	-2.55755	5.32877	0	
1.6753	-1.93802	1.37291	0	
1.6760	-0.730727	2.58294	0	
1.6767	-1.03255	5.32877	0	
1.6773	-1.03255	2.58294	0	
1.6780	0.794269	-1.97793	0	
1.6787	1.11198	-1.97793	0	
1.6793	-0.41302	-1.37291	0	
1.6800	-3.16119	-4.72375	0	
1.6807	-4.38436	-5.65454	0	
1.6813	-1.93802	-2.60621	0	
1.6820	0.794269	-1.37291	0	
1.6827	2.01744	-1.97793	0	
1.6833	1.71562	-1.07041	0	
1.6840	0.190625	-1.07041	0	
1.6847	-1.93802	-3.81623	0	
1.6853	-2.55755	-6.25955	0	
1.6860	-1.33437	-6.25955	0	
1.6867	-0.111198	-7.16707	0	
1.6873	1.11198	-9.30789	0	
1.6880	2.93879	-9.30789	0	
1.6887	5.38514	-9.30789	0	
1.6893	4.16197	-15.102	0	
1.6900	2.93879	-17.8479	0	
1.6907	4.76561	-12.6587	0	
1.6913	3.54244	-4.72375	0	
1.6920	-0.730727	4.11874	0	
1.6927	0.794269	13.5662	0	
1.6933	3.54244	17.5454	0	
1.6940	1.4138	21.1987	0	
1.6947	-1.03255	26.0854	0	
1.6953	0.492447	21.827	0	
1.6960	0.794269	10.8204	0	
1.6967	-0.111198	6.25955	0	
1.6973	0.492447	5.32877	0	
1.6980	1.4138	2.28043	0	
1.6987	2.63697	2.28043	0	
1.6993	2.33515	4.11874	0	
1.7000	0.794269	1.97793	0	
1.7007	0.190625	0.767901	0	
1.7013	-0.111198	1.97793	0	
1.7020	-1.33437	0.139618	0	
1.7027	-1.03255	-1.67542	0	
1.7033	0.794269	-0.162888	0	
1.7040	-0.730727	0.465394	0	
1.7047	-1.03255	-1.07041	0	
1.7053	1.71562	-0.767901	0	
1.7060	2.63697	1.07041	0	
1.7067	-0.111198	2.28043	0	
1.7073	-1.33437	1.97793	0	
1.7080	-1.03255	-0.162888	0	
1.7087	-1.33437	-1.07041	0	
1.7093	-1.03255	0.465394	0	
1.7100	-1.03255	1.37291	0	
1.7107	-0.730727	1.97793	0	
1.7113	1.11198	2.58294	0	
1.7120	0.794269	1.67542	0	
1.7127	-1.93802	2.58294	0	
1.7133	-1.93802	0.767901	0	
1.7140	-0.730727	-8.70287	0	
1.7147	-2.85937	-14.7995	0	
1.7153	-3.78072	-11.1462	0	
1.7160	-1.03255	-10.5412	0	
1.7167	1.71562	-10.8437	0	
1.7173	2.63697	-5.65454	0	
1.7180	2.63697	-7.16707	0	
1.7187	2.01744	-12.0537	0	
1.7193	1.11198	-4.72375	0	
1.7200	2.63697	4.72375	0	
1.7207	4.76561	4.42125	0	
1.7213	4.76561	6.25955	0	
1.7220	4.46379	10.8204	0	
1.7227	5.38514	7.77209	0	
1.7233	5.98879	1.97793	0	
1.7240	4.76561	-1.07041	0	
1.7247	3.54244	-1.97793	0	
1.7253	3.54244	1.37291	0	
1.7260	4.16197	1.67542	0	
1.7267	3.54244	-2.28043	0	
1.7273	-0.111198	-0.465394	0	
1.7280	-5.90936	1.67542	0	
1.7287	-8.05389	-6.56206	0	
1.7293	-5.60754	-11.7512	0	
1.7300	-4.08254	-7.79536	0	
1.7307	-3.16119	-5.65454	0	
1.7313	-0.111198	-3.51373	0	
1.7320	0.190625	2.58294	0	
1.7327	-4.08254	4.11874	0	
1.7333	-5.60754	1.37291	0	
1.7340	-1.93802	0.139618	0	
1.7347	1.4138	0.139618	0	
1.7353	2.63697	-0.162888	0	
1.7360	2.63697	-1.97793	0	
1.7367	3.24062	-6.56206	0	
1.7373	2.93879	-8.40037	0	
1.7380	1.71562	-4.11874	0	
1.7387	-0.730727	-1.97793	0	
1.7393	-0.730727	-3.81623	0	
1.7400	0.794269	-4.72375	0	
1.7407	1.71562	-0.767901	0	
1.7413	1.71562	7.16707	0	
1.7420	-0.730727	12.6587	0	
1.7427	-1.03255	12.0537	0	
1.7433	2.63697	9.00538	0	
1.7440	5.06744	4.11874	0	
1.7447	3.54244	1.07041	0	
1.7453	4.46379	1.67542	0	
1.7460	7.51378	2.28043	0	
1.7467	7.21196	1.67542	0	
1.7473	7.21196	2.58294	0	
1.7480	9.3406	2.28043	0	
1.7487	9.96013	1.07041	0	
1.7493	9.03878	1.67542	0	
1.7500	10.262	1.67542	0	
1.7507	9.3406	1.67542	0	
1.7513	6.91014	1.67542	0	
1.7520	8.13331	0.139618	0	
1.7527	9.3406	-1.97793	0	
1.7533	5.38514	-0.767901	0	
1.7540	4.16197	0.465394	0	
1.7547	6.29061	0.139618	0	
1.7553	3.54244	0.465394	0	
1.7560	-0.730727	-1.37291	0	
1.7567	0.794269	-4.11874	0	
1.7573	1.11198	-4.42125	0	
1.7580	-3.46301	-6.56206	0	
1.7587	-4.38436	-12.0537	0	
1.7593	-2.25572	-15.7303	0	
1.7600	-2.85937	-12.6587	0	
1.7607	-3.16119	-7.46958	0	
1.7613	-2.55755	-5.65454	0	
1.7620	-5.90936	-5.65454	0	
1.7627	-11.1039	-0.465394	0	
1.7633	-13.852	7.16707	0	
1.7640	-13.5343	12.3562	0	
1.7647	-12.0093	15.102	0	
1.7653	-11.1039	11.7512	0	
1.7660	-11.1039	2.88545	0	
1.7667	-10.8021	-1.37291	0	
1.7673	-10.4843	0.139618	0	
1.7680	-12.0093	-1.07041	0	
1.7687	-12.9307	-1.97793	0	
1.7693	-13.5343	0.767901	0	
1.7700	-14.1539	1.07041	0	
1.7707	-12.3271	-0.767901	0	
1.7713	-9.8807	0.465394	0	
1.7720	-10.1825	2.58294	0	
1.7727	-11.1039	2.88545	0	
1.7733	-10.4843	1.67542	0	
1.7740	-11.4057	1.67542	0	
1.7747	-13.852	2.28043	0	
1.7753	-15.6789	1.37291	0	
1.7760	-17.5057	-1.07041	0	
1.7767	-19.3325	-0.465394	0	
1.7773	-19.6502	1.67542	0	
1.7780	-16.6002	1.07041	0	
1.7787	-14.7575	-1.07041	0	
1.7793	-15.377	-1.97793	0	
1.7800	-13.2325	-3.21122	0	
1.7807	-10.1825	-4.72375	0	
1.7813	-11.1039	-5.65454	0	
1.7820	-12.0093	-4.72375	0	
1.7827	-8.35571	-3.81623	0	
1.7833	-4.68619	-3.81623	0	
1.7840	-5.30572	-1.97793	0	
1.7847	-6.21118	2.88545	0	
1.7853	-2.85937	3.51373	0	
1.7860	-0.41302	-1.07041	0	
1.7867	-0.111198	-1.67542	0	
1.7873	1.71562	0.767901	0	
1.7880	3.54244	0.139618	0	
1.7887	3.54244	-1.07041	0	
1.7893	5.98879	-0.162888	0	
1.7900	9.65831	-1.37291	0	
1.7907	9.3406	-3.21122	0	
1.7913	9.03878	-2.90871	0	
1.7920	11.7869	-1.97793	0	
1.7927	12.3906	-2.60621	0	
1.7933	10.5638	-2.60621	0	
1.7940	10.8656	-1.97793	0	
1.7947	13.3119	-1.37291	0	
1.7953	13.0101	-1.97793	0	
1.7960	12.7083	-2.28043	0	
1.7967	14.5351	-3.51373	0	
1.7973	14.5351	-3.81623	0	
1.7980	11.7869	-1.97793	0	
1.7987	12.3906	-1.07041	0	
1.7993	16.0601	-2.60621	0	
1.8000	15.7583	-2.90871	0	
1.8007	13.6138	-1.07041	0	
1.8013	15.1388	-2.28043	0	
1.8020	15.4565	-3.81623	0	
1.8027	12.0888	-4.72375	0	
1.8033	10.8656	-7.46958	0	
1.8040	10.8656	-9.30789	0	
1.8047	9.65831	-9.9129	0	
1.8053	10.5638	-15.7303	0	
1.8060	11.7869	-20.5937	0	
1.8067	10.8656	-16.3353	0	
1.8073	10.8656	-11.1462	0	
1.8080	13.6138	-7.46958	0	
1.8087	13.3119	-2.28043	0	
1.8093	10.8656	-0.162888	0	
1.8100	10.8656	4.11874	0	
1.8107	12.3906	19.0812	0	
1.8113	12.3906	28.2262	0	
1.8120	12.3906	20.8962	0	
1.8127	12.0888	12.9612	0	
1.8133	11.7869	9.9129	0	
1.8140	11.7869	5.02626	0	
1.8147	8.43514	2.58294	0	
1.8153	4.16197	4.42125	0	
1.8160	3.86015	6.56206	0	
1.8167	3.24062	9.30789	0	
1.8173	-1.03255	9.00538	0	
1.8180	-3.78072	3.51373	0	
1.8187	-5.90936	0.139618	0	
1.8193	-10.1825	-0.465394	0	
1.8200	-10.1825	-0.767901	0	
1.8207	-6.83071	0.139618	0	
1.8213	-10.1825	1.07041	0	
1.8220	-14.4557	1.37291	0	
1.8227	-11.7075	1.37291	0	
1.8233	-9.26117	0.767901	0	
1.8240	-10.1825	1.37291	0	
1.8247	-11.1039	1.97793	0	
1.8253	-11.1039	-0.162888	0	
1.8260	-10.4843	-1.67542	0	
1.8267	-7.43436	0.465394	0	
1.8273	-5.60754	-0.162888	0	
1.8280	-7.13253	-2.90871	0	
1.8287	-8.65753	-1.97793	0	
1.8293	-7.73618	-1.07041	0	
1.8300	-3.78072	-3.81623	0	
1.8307	-1.93802	-3.21122	0	
1.8313	-3.78072	2.28043	0	
1.8320	-4.08254	3.21122	0	
1.8327	-5.00389	-0.162888	0	
1.8333	-10.4843	-1.07041	0	
1.8340	-12.9307	0.139618	0	
1.8347	-11.4057	-1.07041	0	
1.8353	-13.852	-1.37291	0	
1.8360	-15.0752	-1.67542	0	
1.8367	-11.1039	-3.21122	0	
1.8373	-12.0093	-2.28043	0	
1.8380	-16.2825	-0.162888	0	
1.8387	-15.6789	-1.67542	0	
1.8393	-13.5343	-3.51373	0	
1.8400	-14.1539	-3.21122	0	
1.8407	-14.1539	-5.95705	0	
1.8413	-13.2325	-7.79536	0	
1.8420	-12.0093	-5.35204	0	
1.8427	-10.4843	-5.65454	0	
1.8433	-12.3271	-7.79536	0	
1.8440	-16.902	-2.28043	0	
1.8447	-15.6789	5.32877	0	
1.8453	-8.65753	4.42125	0	
1.8460	-5.60754	-0.162888	0	
1.8467	-5.30572	-0.162888	0	
1.8473	-1.93802	2.88545	0	
1.8480	1.4138	3.51373	0	
1.8487	1.71562	0.465394	0	
1.8493	2.63697	-1.07041	0	
1.8500	5.06744	1.67542	0	
1.8507	7.81561	3.51373	0	
1.8513	12.3906	1.97793	0	
1.8520	16.0601	-1.07041	0	
1.8527	15.4565	-3.81623	0	
1.8533	14.5351	-9.00538	0	
1.8540	15.7583	-9.30789	0	
1.8547	16.6638	-2.60621	0	
1.8553	16.6638	1.67542	0	
1.8560	14.5351	-1.07041	0	
1.8567	10.5638	1.67542	0	
1.8573	9.3406	9.9129	0	
1.8580	11.7869	14.1945	0	
1.8587	11.1833	12.6587	0	
1.8593	8.13331	8.70287	0	
1.8600	7.21196	2.58294	0	
1.8607	6.59243	-2.28043	0	
1.8613	5.38514	-3.81623	0	
1.8620	5.68697	-3.81623	0	
1.8627	7.51378	-3.21122	0	
1.8633	8.43514	-2.28043	0	
1.8640	8.13331	-3.51373	0	
1.8647	8.13331	-3.81623	0	
1.8653	9.96013	-1.07041	0	
1.8660	12.7083	1.37291	0	
1.8667	14.5351	1.97793	0	
1.8673	11.7869	2.58294	0	
1.8680	8.13331	1.97793	0	
1.8687	6.91014	1.07041	0	
1.8693	9.03878	1.37291	0	
1.8700	11.7869	1.67542	0	
1.8707	11.4851	2.28043	0	
1.8713	8.13331	2.58294	0	
1.8720	6.29061	0.767901	0	
1.8727	3.86015	-1.97793	0	
1.8733	-0.41302	-2.28043	0	
1.8740	-3.46301	-1.07041	0	
1.8747	-2.25572	-0.465394	0	
1.8753	-2.55755	-1.37291	0	
1.8760	-5.60754	-1.67542	0	
1.8767	-6.52889	-0.162888	0	
1.8773	-4.38436	-1.07041	0	
1.8780	-3.78072	-4.42125	0	
1.8787	-5.90936	-3.81623	0	
1.8793	-7.43436	-0.162888	0	
1.8800	-8.95935	-0.465394	0	
1.8807	-12.3271	-3.81623	0	
1.8813	-13.5343	-3.81623	0	
1.8820	-11.7075	-1.97793	0	
1.8827	-12.0093	-1.67542	0	
1.8833	-13.852	-1.67542	0	
1.8840	-15.6789	-1.97793	0	
1.8847	-18.427	-3.81623	0	
1.8853	-19.952	-4.72375	0	
1.8860	-16.6002	-1.37291	0	
1.8867	-13.852	-0.162888	0	
1.8873	-15.6789	-2.28043	0	
1.8880	-15.6789	-1.97793	0	
1.8887	-13.2325	-2.28043	0	
1.8893	-13.2325	-6.25955	0	
1.8900	-12.9307	-8.09786	0	
1.8907	-12.0093	-7.79536	0	
1.8913	-13.2325	-9.30789	0	
1.8920	-13.2325	-9.00538	0	
1.8927	-8.95935	-7.46958	0	
1.8933	-4.08254	-6.56206	0	
1.8940	-3.46301	-3.51373	0	
1.8947	-5.60754	2.28043	0	
1.8953	-7.73618	5.63127	0	
1.8960	-8.05389	4.42125	0	
1.8967	-6.52889	0.767901	0	
1.8973	-4.68619	3.51373	0	
1.8980	-3.16119	12.0537	0	
1.8987	-2.25572	12.6587	0	
1.8993	-1.93802	4.72375	0	
1.9000	-3.78072	0.139618	0	
1.9007	-6.21118	-1.07041	0	
1.9013	-5.60754	-2.60621	0	
1.9020	-2.85937	-1.67542	0	
1.9027	-3.78072	-1.97793	0	
1.9033	-4.08254	-0.465394	0	
1.9040	-1.03255	5.95705	0	
1.9047	-1.63619	5.95705	0	
1.9053	-5.90936	-0.162888	0	
1.9060	-5.60754	0.465394	0	
1.9067	-1.03255	3.51373	0	
1.9073	1.71562	1.67542	0	
1.9080	4.46379	0.767901	0	
1.9087	6.91014	0.139618	0	
1.9093	7.21196	-1.37291	0	
1.9100	9.03878	1.37291	0	
1.9107	13.0101	2.28043	0	
1.9113	17.2833	-1.67542	0	
1.9120	20.0315	-0.162888	0	
1.9127	20.0315	5.95705	0	
1.9133	18.5065	7.46958	0	
1.9140	18.8083	5.32877	0	
1.9147	20.3333	5.32877	0	
1.9153	19.4119	5.95705	0	
1.9160	16.3619	3.51373	0	
1.9167	13.6138	-1.37291	0	
1.9173	12.3906	-2.90871	0	
1.9180	10.8656	1.37291	0	
1.9187	9.3406	5.32877	0	
1.9193	8.43514	5.32877	0	
1.9200	6.29061	1.67542	0	
1.9207	2.93879	-1.07041	0	
1.9213	2.63697	-1.67542	0	
1.9220	3.54244	-2.60621	0	
1.9227	2.33515	-3.81623	0	
1.9233	0.794269	-3.81623	0	
1.9240	1.71562	-1.37291	0	
1.9247	-0.111198	0.465394	0	
1.9253	-4.08254	-0.162888	0	
1.9260	-4.38436	-1.07041	0	
1.9267	-1.63619	-0.162888	0	
1.9273	1.4138	0.767901	0	
1.9280	2.01744	-0.162888	0	
1.9287	-1.03255	1.07041	0	
1.9293	-2.85937	1.97793	0	
1.9300	-2.55755	-1.07041	0	
1.9307	-3.78072	-2.28043	0	
1.9313	-4.38436	-1.97793	0	
1.9320	-1.93802	-3.81623	0	
1.9327	-0.111198	-3.81623	0	
1.9333	-0.41302	-1.07041	0	
1.9340	-1.93802	-6.25955	0	
1.9347	-5.60754	-16.0328	0	
1.9353	-7.13253	-15.7303	0	
1.9360	-5.30572	-6.56206	0	
1.9367	-4.08254	-1.67542	0	
1.9373	-5.60754	-3.81623	0	
1.9380	-7.43436	-4.11874	0	
1.9387	-8.35571	0.767901	0	
1.9393	-8.35571	6.25955	0	
1.9400	-8.35571	9.9129	0	
1.9407	-8.95935	11.7512	0	
1.9413	-6.52889	6.56206	0	
1.9420	-5.90936	-1.97793	0	
1.9427	-8.65753	-4.42125	0	
1.9433	-5.30572	-3.51373	0	
1.9440	1.4138	-4.11874	0	
1.9447	-0.111198	-6.25955	0	
1.9453	-5.90936	-9.61039	0	
1.9460	-8.05389	-11.1462	0	
1.9467	-8.35571	-5.65454	0	
1.9473	-6.83071	-1.07041	0	
1.9480	-5.00389	-2.60621	0	
1.9487	-5.30572	-3.81623	0	
1.9493	-4.68619	-1.97793	0	
1.9500	-1.93802	3.51373	0	
1.9507	-0.111198	12.3562	0	
1.9513	2.93879	18.1504	0	
1.9520	7.21196	13.892	0	
1.9527	8.13331	8.07459	0	
1.9533	7.21196	5.32877	0	
1.9540	6.29061	4.42125	0	
1.9547	4.46379	4.42125	0	
1.9553	2.63697	4.42125	0	
1.9560	1.71562	2.58294	0	
1.9567	0.794269	1.37291	0	
1.9573	1.71562	0.767901	0	
1.9580	3.54244	-1.97793	0	
1.9587	2.01744	-2.28043	0	
1.9593	0.190625	-1.07041	0	
1.9600	1.71562	-1.97793	0	
1.9607	2.01744	-2.60621	0	
1.9613	-1.63619	-1.07041	0	
1.9620	-2.25572	-1.67542	0	
1.9627	0.794269	-3.21122	0	
1.9633	0.190625	-1.97793	0	
1.9640	-2.85937	0.465394	0	
1.9647	-1.03255	1.97793	0	
1.9653	1.11198	1.07041	0	
1.9660	0.190625	-1.97793	0	
1.9667	0.794269	-3.81623	0	
1.9673	3.24062	-3.81623	0	
1.9680	3.54244	-5.35204	0	
1.9687	2.01744	-6.56206	0	
1.9693	2.63697	-5.04953	0	
1.9700	5.38514	-3.51373	0	
1.9707	6.59243	-0.162888	0	
1.9713	5.38514	3.51373	0	
1.9720	4.46379	3.51373	0	
1.9727	4.46379	2.58294	0	
1.9733	4.16197	5.02626	0	
1.9740	4.16197	4.72375	0	
1.9747	4.16197	0.767901	0	
1.9753	1.71562	0.767901	0	
1.9760	-1.63619	2.88545	0	
1.9767	-4.38436	1.67542	0	
1.9773	-7.73618	-1.07041	0	
1.9780	-8.05389	-0.162888	0	
1.9787	-3.78072	1.67542	0	
1.9793	-3.16119	1.67542	0	
1.9800	-7.43436	0.767901	0	
1.9807	-8.95935	-0.162888	0	
1.9813	-6.83071	-0.162888	0	
1.9820	-7.43436	0.767901	0	
1.9827	-8.05389	-0.767901	0	
1.9833	-5.60754	-2.90871	0	
1.9840	-4.68619	-3.81623	0	
1.9847	-6.83071	-2.90871	0	
1.9853	-5.90936	-0.767901	0	
1.9860	-2.55755	1.97793	0	
1.9867	-1.93802	2.88545	0	
1.9873	-2.85937	2.28043	0	
1.9880	-1.63619	1.37291	0	
1.9887	-0.41302	0.767901	0	
1.9893	-0.111198	0.465394	0	
1.9900	-0.41302	-0.162888	0	
1.9907	-1.93802	-0.162888	0	
1.9913	-1.93802	1.37291	0	
1.9920	-0.111198	0.139618	0	
1.9927	-1.93802	-2.90871	0	
1.9933	-5.90936	-6.56206	0	
1.9940	-4.08254	-7.46958	0	
1.9947	-0.111198	-3.81623	0	
1.9953	-1.93802	1.67542	0	
1.9960	-4.68619	0.767901	0	
1.9967	-3.46301	-2.60621	0	
1.9973	-4.68619	-1.07041	0	
1.9980	-8.95935	0.767901	0	
1.9987	-10.4843	1.07041	0	
1.9993	-8.95935	2.58294	0	
2.0000	-6.83071	2.28043	0	
2.0007	-5.00389	-1.07041	0	
2.0013	-4.68619	-1.67542	0	
2.0020	-4.68619	0.139618	0	
2.0027	-1.93802	-0.162888	0	
2.0033	-1.33437	-1.37291	0	
2.0040	-3.78072	-1.67542	0	
2.0047	-2.85937	-0.767901	0	
2.0053	0.190625	-0.162888	0	
2.0060	-2.85937	0.767901	0	
2.0067	-5.60754	1.37291	0	
2.0073	0.190625	1.37291	0	
2.0080	4.46379	0.767901	0	
2.0087	2.63697	0.767901	0	
2.0093	2.63697	1.37291	0	
2.0100	5.68697	2.58294	0	
2.0107	6.59243	3.81623	0	
2.0113	5.68697	1.67542	0	
2.0120	6.59243	-1.67542	0	
2.0127	7.21196	3.21122	0	
2.0133	7.81561	7.77209	0	
2.0140	9.03878	4.11874	0	
2.0147	8.13331	4.11874	0	
2.0153	5.38514	9.9129	0	
2.0160	5.68697	6.56206	0	
2.0167	8.73696	-0.465394	0	
2.0173	7.81561	-0.465394	0	
2.0180	3.86015	0.465394	0	
2.0187	2.33515	-0.465394	0	
2.0193	2.33515	1.67542	0	
2.0200	2.63697	3.21122	0	
2.0207	3.54244	1.97793	0	
2.0213	3.54244	2.28043	0	
2.0220	2.63697	-0.767901	0	
2.0227	1.71562	-8.09786	0	
2.0233	-0.41302	-12.0537	0	
2.0240	-1.33437	-12.9612	0	
2.0247	-1.93802	-13.5895	0	
2.0253	-3.78072	-12.3562	0	
2.0260	-5.30572	-12.0537	0	
2.0267	-5.00389	-12.3562	0	
2.0273	-2.85937	-6.56206	0	
2.0280	-0.41302	3.51373	0	
2.0287	1.11198	9.30789	0	
2.0293	1.71562	8.40037	0	
2.0300	3.54244	4.42125	0	
2.0307	4.76561	0.139618	0	
2.0313	2.63697	1.67542	0	
2.0320	1.4138	9.9129	0	
2.0327	2.33515	14.7995	0	
2.0333	-0.111198	9.9129	0	
2.0340	-3.78072	4.11874	0	
2.0347	-4.38436	3.51373	0	
2.0353	-5.00389	2.28043	0	
2.0360	-5.90936	-2.28043	0	
2.0367	-6.52889	-3.21122	0	
2.0373	-9.26117	-2.28043	0	
2.0380	-10.8021	-4.72375	0	
2.0387	-8.35571	-8.40037	0	
2.0393	-7.13253	-9.9129	0	
2.0400	-9.26117	-11.7512	0	
2.0407	-10.4843	-13.892	0	
2.0413	-9.8807	-11.4487	0	
2.0420	-7.43436	-6.86457	0	
2.0427	-5.60754	-5.35204	0	
2.0433	-4.38436	-4.72375	0	
2.0440	-1.93802	-1.07041	0	
2.0447	-1.03255	3.81623	0	
2.0453	-1.63619	5.32877	0	
2.0460	-0.111198	3.51373	0	
2.0467	0.794269	0.767901	0	
2.0473	-0.111198	0.139618	0	
2.0480	2.33515	0.767901	0	
2.0487	5.38514	-0.162888	0	
2.0493	5.06744	-0.162888	0	
2.0500	6.59243	1.67542	0	
2.0507	10.8656	3.51373	0	
2.0513	8.13331	3.81623	0	
2.0520	3.54244	3.51373	0	
2.0527	5.38514	1.37291	0	
2.0533	6.59243	-1.97793	0	
2.0540	2.63697	-1.97793	0	
2.0547	0.794269	-2.90871	0	
2.0553	2.63697	-4.72375	0	
2.0560	3.24062	-4.42125	0	
2.0567	0.794269	-3.81623	0	
2.0573	0.492447	-4.72375	0	
2.0580	0.794269	-5.04953	0	
2.0587	-1.93802	-6.25955	0	
2.0593	-5.60754	-7.79536	0	
2.0600	-6.21118	-6.56206	0	
2.0607	-5.90936	-6.56206	0	
2.0613	-5.00389	-8.40037	0	
2.0620	-3.78072	-3.21122	0	
2.0627	-3.78072	5.63127	0	
2.0633	-3.16119	5.95705	0	
2.0640	-1.03255	1.67542	0	
2.0647	0.794269	1.07041	0	
2.0653	2.33515	1.67542	0	
2.0660	3.24062	0.465394	0	
2.0667	2.63697	-2.28043	0	
2.0673	1.4138	-3.51373	0	
2.0680	1.11198	-0.162888	0	
2.0687	2.63697	0.767901	0	
2.0693	6.29061	-2.90871	0	
2.0700	7.81561	-1.67542	0	
2.0707	5.68697	0.767901	0	
2.0713	6.29061	-3.51373	0	
2.0720	9.3406	-6.86457	0	
2.0727	8.13331	-7.79536	0	
2.0733	5.98879	-8.40037	0	
2.0740	6.29061	-4.11874	0	
2.0747	4.16197	-0.162888	0	
2.0753	1.71562	-1.37291	0	
2.0760	3.54244	0.465394	0	
2.0767	2.01744	5.02626	0	
2.0773	-3.78072	3.81623	0	
2.0780	-4.08254	4.42125	0	
2.0787	-1.03255	7.46958	0	
2.0793	-1.93802	3.21122	0	
2.0800	-3.78072	-2.60621	0	
2.0807	-4.38436	-5.35204	0	
2.0813	-4.68619	-12.0537	0	
2.0820	-3.78072	-13.5895	0	
2.0827	-3.46301	-5.35204	0	
2.0833	-6.83071	-4.42125	0	
2.0840	-10.4843	-7.16707	0	
2.0847	-9.26117	0.767901	0	
2.0853	-5.00389	7.16707	0	
2.0860	-3.78072	7.16707	0	
2.0867	-5.60754	11.7512	0	
2.0873	-5.60754	12.9612	0	
2.0880	-2.25572	4.42125	0	
2.0887	-2.25572	2.28043	0	
2.0893	-4.38436	7.16707	0	
2.0900	-3.16119	5.02626	0	
2.0907	0.794269	2.58294	0	
2.0913	3.24062	6.25955	0	
2.0920	1.71562	8.70287	0	
2.0927	-2.85937	8.07459	0	
2.0933	-3.78072	8.07459	0	
2.0940	-1.03255	7.77209	0	
2.0947	-0.41302	6.56206	0	
2.0953	-0.730727	5.32877	0	
2.0960	-0.111198	3.51373	0	
2.0967	-0.111198	1.67542	0	
2.0973	-0.111198	-0.767901	0	
2.0980	0.190625	-0.465394	0	
2.0987	-1.33437	1.67542	0	
2.0993	-1.93802	-1.37291	0	
2.1000	-1.03255	-8.70287	0	
2.1007	-3.16119	-11.1462	0	
2.1013	-5.30572	-9.00538	0	
2.1020	-3.78072	-8.09786	0	
2.1027	-1.93802	-5.95705	0	
2.1033	-2.55755	-4.72375	0	
2.1040	-3.16119	-2.90871	0	
2.1047	-1.33437	5.02626	0	
2.1053	3.54244	10.8204	0	
2.1060	5.38514	6.86457	0	
2.1067	1.4138	1.07041	0	
2.1073	1.11198	-2.28043	0	
2.1080	6.29061	-6.56206	0	
2.1087	6.29061	-5.04953	0	
2.1093	3.86015	2.28043	0	
2.1100	5.98879	4.42125	0	
2.1107	8.13331	2.58294	0	
2.1113	5.38514	7.16707	0	
2.1120	3.24062	10.8204	0	
2.1127	5.38514	8.07459	0	
2.1133	8.13331	5.32877	0	
2.1140	8.13331	3.81623	0	
2.1147	5.98879	1.07041	0	
2.1153	5.38514	0.139618	0	
2.1160	5.68697	0.767901	0	
2.1167	6.29061	-0.465394	0	
2.1173	7.21196	-1.37291	0	
2.1180	7.21196	-0.767901	0	
2.1187	4.46379	-0.162888	0	
2.1193	0.190625	1.07041	0	
2.1200	-2.25572	1.67542	0	
2.1207	-1.93802	-0.767901	0	
2.1213	-1.03255	-2.60621	0	
2.1220	-1.33437	-1.37291	0	
2.1227	-2.85937	-1.67542	0	
2.1233	-4.68619	-3.81623	0	
2.1240	-5.60754	-3.51373	0	
2.1247	-5.90936	-1.07041	0	
2.1253	-5.00389	-2.60621	0	
2.1260	-2.55755	-4.42125	0	
2.1267	-1.33437	-2.60621	0	
2.1273	-3.16119	-0.465394	0	
2.1280	-3.46301	-0.465394	0	
2.1287	-1.93802	-0.162888	0	
2.1293	-3.78072	-0.162888	0	
2.1300	-4.68619	-1.67542	0	
2.1307	-0.111198	-1.37291	0	
2.1313	2.93879	0.767901	0	
2.1320	2.33515	1.07041	0	
2.1327	2.93879	0.767901	0	
2.1333	3.24062	0.465394	0	
2.1340	-0.730727	-1.07041	0	
2.1347	-2.25572	-2.28043	0	
2.1353	-0.730727	-2.60621	0	
2.1360	-1.03255	-1.97793	0	
2.1367	-1.93802	-1.37291	0	
2.1373	-1.63619	-1.67542	0	
2.1380	-1.33437	-1.97793	0	
2.1387	-1.33437	-0.465394	0	
2.1393	-1.03255	-0.767901	0	
2.1400	-3.16119	-3.21122	0	
2.1407	-5.60754	-5.35204	0	
2.1413	-4.08254	-6.86457	0	
2.1420	-2.55755	-7.16707	0	
2.1427	-5.60754	-6.25955	0	
2.1433	-8.95935	-7.16707	0	
2.1440	-7.13253	-8.40037	0	
2.1447	-3.78072	-7.46958	0	
2.1453	-2.85937	-9.30789	0	
2.1460	-3.78072	-11.1462	0	
2.1467	-4.68619	-5.04953	0	
2.1473	-3.78072	1.37291	0	
2.1480	-0.41302	1.37291	0	
2.1487	-0.111198	-1.07041	0	
2.1493	-1.63619	-1.67542	0	
2.1500	0.190625	5.32877	0	
2.1507	2.63697	17.2429	0	
2.1513	2.63697	20.5937	0	
2.1520	2.33515	12.9612	0	
2.1527	2.63697	8.40037	0	
2.1533	1.71562	7.77209	0	
2.1540	1.4138	4.42125	0	
2.1547	2.63697	2.88545	0	
2.1553	2.01744	3.81623	0	
2.1560	2.01744	2.58294	0	
2.1567	2.63697	-0.162888	0	
2.1573	1.4138	-1.07041	0	
2.1580	2.63697	-1.97793	0	
2.1587	6.29061	-2.90871	0	
2.1593	7.21196	-2.60621	0	
2.1600	3.54244	-3.81623	0	
2.1607	0.492447	-8.70287	0	
2.1613	-2.25572	-9.30789	0	
2.1620	-2.55755	-1.07041	0	
2.1627	2.63697	4.72375	0	
2.1633	7.21196	1.97793	0	
2.1640	4.76561	-1.37291	0	
2.1647	0.794269	-3.21122	0	
2.1653	0.492447	-3.81623	0	
2.1660	1.11198	-0.162888	0	
2.1667	1.11198	4.42125	0	
2.1673	2.33515	1.67542	0	
2.1680	3.54244	-1.97793	0	
2.1687	4.46379	1.07041	0	
2.1693	5.38514	2.58294	0	
2.1700	7.21196	-1.07041	0	
2.1707	7.21196	-6.25955	0	
2.1713	4.46379	-10.2154	0	
2.1720	2.63697	-9.61039	0	
2.1727	3.86015	-5.65454	0	
2.1733	3.54244	-5.35204	0	
2.1740	-0.111198	-6.56206	0	
2.1747	-1.93802	-2.60621	0	
2.1753	-1.93802	1.37291	0	
2.1760	-4.68619	4.11874	0	
2.1767	-5.90936	11.4487	0	
2.1773	-1.03255	13.892	0	
2.1780	1.4138	3.51373	0	
2.1787	-1.03255	-4.72375	0	
2.1793	-1.03255	-3.81623	0	
2.1800	-0.111198	-5.04953	0	
2.1807	-3.16119	-9.9129	0	
2.1813	-4.68619	-11.1462	0	
2.1820	-3.16119	-8.40037	0	
2.1827	-1.93802	-4.11874	0	
2.1833	-2.85937	-2.90871	0	
2.1840	-5.90936	-2.90871	0	
2.1847	-7.13253	1.37291	0	
2.1853	-5.00389	4.42125	0	
2.1860	-4.68619	0.465394	0	
2.1867	-5.60754	0.767901	0	
2.1873	-4.08254	9.9129	0	
2.1880	-3.16119	12.3562	0	
2.1887	-4.68619	5.95705	0	
2.1893	-3.78072	1.37291	0	
2.1900	-4.08254	0.139618	0	
2.1907	-6.21118	-0.767901	0	
2.1913	-3.78072	0.767901	0	
2.1920	0.492447	4.42125	0	
2.1927	-1.03255	6.25955	0	
2.1933	-1.33437	5.02626	0	
2.1940	1.71562	3.81623	0	
2.1947	1.71562	3.51373	0	
2.1953	0.492447	1.07041	0	
2.1960	3.54244	-0.162888	0	
2.1967	3.54244	1.67542	0	
2.1973	1.4138	0.767901	0	
2.1980	2.63697	-1.97793	0	
2.1987	0.794269	-1.07041	0	
2.1993	-5.60754	-0.162888	0	
2.2000	-7.43436	-0.767901	0	
2.2007	-5.90936	-1.07041	0	
2.2013	-8.65753	-3.81623	0	
2.2020	-9.26117	-5.65454	0	
2.2027	-6.21118	-3.51373	0	
2.2033	-4.68619	-4.42125	0	
2.2040	-4.38436	-9.30789	0	
2.2047	-4.08254	-10.2154	0	
2.2053	-3.46301	-10.5412	0	
2.2060	-1.33437	-12.0537	0	
2.2067	-1.03255	-5.95705	0	
2.2073	-2.25572	0.767901	0	
2.2080	0.794269	-1.67542	0	
2.2087	5.06744	-6.56206	0	
2.2093	6.29061	-5.04953	0	
2.2100	6.29061	4.42125	0	
2.2107	6.59243	16.0096	0	
2.2113	6.29061	17.2429	0	
2.2120	6.59243	8.07459	0	
2.2127	6.29061	2.88545	0	
2.2133	6.29061	4.72375	0	
2.2140	8.13331	6.25955	0	
2.2147	8.13331	6.25955	0	
2.2153	7.21196	9.00538	0	
2.2160	7.81561	9.30789	0	
2.2167	6.29061	3.51373	0	
2.2173	3.54244	-1.97793	0	
2.2180	4.46379	-0.162888	0	
2.2187	2.63697	0.767901	0	
2.2193	-2.55755	-3.21122	0	
2.2200	-3.46301	-3.81623	0	
2.2207	-1.63619	-3.21122	0	
2.2213	-2.85937	-5.04953	0	
2.2220	-2.25572	-4.11874	0	
2.2227	0.794269	-1.07041	0	
2.2233	1.71562	-1.37291	0	
2.2240	-1.03255	-1.97793	0	
2.2247	-3.78072	-0.767901	0	
2.2253	-3.46301	-0.767901	0	
2.2260	-1.93802	2.88545	0	
2.2267	-4.08254	7.16707	0	
2.2273	-7.13253	4.42125	0	
2.2280	-5.30572	1.37291	0	
2.2287	-2.25572	2.88545	0	
2.2293	-2.55755	2.28043	0	
2.2300	-1.93802	-0.162888	0	
2.2307	-0.111198	0.139618	0	
2.2313	-0.111198	1.67542	0	
2.2320	0.492447	2.58294	0	
2.2327	2.33515	-0.767901	0	
2.2333	3.86015	-5.65454	0	
2.2340	5.98879	-5.95705	0	
2.2347	5.06744	-4.11874	0	
2.2353	2.01744	-6.86457	0	
2.2360	1.11198	-7.16707	0	
2.2367	0.492447	0.465394	0	
2.2373	-2.85937	5.32877	0	
2.2380	-5.60754	2.88545	0	
2.2387	-6.21118	-0.767901	0	
2.2393	-6.52889	-2.60621	0	
2.2400	-4.38436	-5.04953	0	
2.2407	-2.85937	-6.56206	0	
2.2413	-3.46301	-4.72375	0	
2.2420	-3.78072	-3.81623	0	
2.2427	-2.85937	-6.25955	0	
2.2433	-2.55755	-6.25955	0	
2.2440	-1.93802	-4.42125	0	
2.2447	-3.16119	-7.46958	0	
2.2453	-3.78072	-13.287	0	
2.2460	-1.03255	-12.9612	0	
2.2467	1.71562	-8.09786	0	
2.2473	1.4138	-4.72375	0	
2.2480	-0.41302	-4.11874	0	
2.2487	-2.55755	-3.21122	0	
2.2493	-3.78072	1.37291	0	
2.2500	-2.55755	8.07459	0	
2.2507	0.190625	12.6587	0	
2.2513	2.01744	12.6587	0	
2.2520	0.794269	7.16707	0	
2.2527	-2.85937	1.07041	0	
2.2533	-6.52889	-1.07041	0	
2.2540	-8.95935	-0.465394	0	
2.2547	-9.26117	0.767901	0	
2.2553	-4.68619	2.88545	0	
2.2560	-1.03255	1.67542	0	
2.2567	-1.63619	-2.60621	0	
2.2573	-0.41302	-2.90871	0	
2.2580	1.71562	0.767901	0	
2.2587	0.190625	1.37291	0	
2.2593	-0.111198	-1.07041	0	
2.2600	2.63697	-3.81623	0	
2.2607	1.11198	-6.56206	0	
2.2613	-1.33437	-8.40037	0	
2.2620	1.71562	-7.46958	0	
2.2627	2.93879	-6.86457	0	
2.2633	1.11198	-5.65454	0	
2.2640	2.63697	-2.28043	0	
2.2647	5.06744	-1.07041	0	
2.2653	3.54244	-0.767901	0	
2.2660	3.54244	4.11874	0	
2.2667	5.38514	7.46958	0	
2.2673	3.24062	5.02626	0	
2.2680	1.71562	2.58294	0	
2.2687	2.63697	1.67542	0	
2.2693	1.11198	-0.767901	0	
2.2700	-0.730727	-1.07041	0	
2.2707	1.4138	0.767901	0	
2.2713	1.71562	-0.162888	0	
2.2720	-0.730727	-2.28043	0	
2.2727	-0.41302	-2.60621	0	
2.2733	-0.111198	-1.67542	0	
2.2740	-1.03255	0.465394	0	
2.2747	1.71562	3.21122	0	
2.2753	2.63697	5.02626	0	
2.2760	-0.41302	6.25955	0	
2.2767	-0.111198	4.42125	0	
2.2773	2.63697	0.465394	0	
2.2780	1.71562	-0.162888	0	
2.2787	0.794269	1.37291	0	
2.2793	0.492447	1.07041	0	
2.2800	-1.33437	1.37291	0	
2.2807	-1.03255	0.465394	0	
2.2813	-0.111198	-2.60621	0	
2.2820	-3.78072	-1.37291	0	
2.2827	-5.60754	1.67542	0	
2.2833	-3.78072	0.465394	0	
2.2840	-3.16119	-0.162888	0	
2.2847	-2.85937	-0.162888	0	
2.2853	-1.93802	-4.11874	0	
2.2860	-3.16119	-7.46958	0	
2.2867	-3.46301	-7.79536	0	
2.2873	-0.111198	-9.30789	0	
2.2880	2.01744	-6.86457	0	
2.2887	2.63697	-2.60621	0	
2.2893	2.63697	-3.51373	0	
2.2900	3.24062	-5.65454	0	
2.2907	2.63697	-2.90871	0	
2.2913	1.71562	3.51373	0	
2.2920	1.11198	12.6587	0	
2.2927	1.11198	18.4529	0	
2.2933	1.71562	14.497	0	
2.2940	2.33515	7.46958	0	
2.2947	-0.111198	1.97793	0	
2.2953	-2.85937	-1.97793	0	
2.2960	-2.85937	-2.60621	0	
2.2967	-3.78072	-1.97793	0	
2.2973	-6.83071	-1.67542	0	
2.2980	-6.52889	0.767901	0	
2.2987	-4.68619	1.07041	0	
2.2993	-6.21118	-2.90871	0	
2.3000	-6.83071	-3.81623	0	
2.3007	-6.21118	-1.07041	0	
2.3013	-7.13253	2.58294	0	
2.3020	-7.13253	5.95705	0	
2.3027	-6.52889	5.02626	0	
2.3033	-7.13253	2.28043	0	
2.3040	-7.13253	2.88545	0	
2.3047	-6.52889	1.67542	0	
2.3053	-5.30572	-7.16707	0	
2.3060	-1.33437	-13.892	0	
2.3067	1.71562	-11.1462	0	
2.3073	0.794269	-5.04953	0	
2.3080	0.190625	-1.67542	0	
2.3087	0.794269	-1.97793	0	
2.3093	3.54244	-2.28043	0	
2.3100	9.96013	2.88545	0	
2.3107	13.9315	11.4487	0	
2.3113	10.262	15.102	0	
2.3120	7.21196	13.5662	0	
2.3127	9.65831	9.9129	0	
2.3133	9.96013	2.58294	0	
2.3140	5.68697	-2.90871	0	
2.3147	2.63697	3.21122	0	
2.3153	3.24062	10.2154	0	
2.3160	3.54244	6.56206	0	
2.3167	0.794269	-0.767901	0	
2.3173	-1.93802	-2.28043	0	
2.3180	-2.85937	-1.37291	0	
2.3187	-2.25572	-1.67542	0	
2.3193	-2.25572	-2.28043	0	
2.3200	-1.63619	-2.60621	0	
2.3207	-1.03255	-1.97793	0	
2.3213	-1.93802	0.139618	0	
2.3220	-2.85937	0.767901	0	
2.3227	-1.93802	-0.465394	0	
2.3233	-0.730727	-0.465394	0	
2.3240	-1.63619	1.37291	0	
2.3247	-3.46301	1.07041	0	
2.3253	-4.38436	-1.67542	0	
2.3260	-4.08254	-3.51373	0	
2.3267	-2.55755	-3.81623	0	
2.3273	-1.03255	-3.81623	0	
2.3280	-1.63619	-4.72375	0	
2.3287	-2.85937	-6.56206	0	
2.3293	-2.25572	-6.25955	0	
2.3300	-0.730727	-1.97793	0	
2.3307	1.11198	0.767901	0	
2.3313	2.01744	0.139618	0	
2.3320	1.11198	3.21122	0	
2.3327	1.11198	9.00538	0	
2.3333	1.71562	9.9129	0	
2.3340	-1.03255	6.86457	0	
2.3347	-2.85937	6.56206	0	
2.3353	-1.03255	5.02626	0	
2.3360	-0.41302	-1.07041	0	
2.3367	-1.63619	-3.81623	0	
2.3373	-0.41302	-2.90871	0	
2.3380	-0.111198	-5.65454	0	
2.3387	-2.25572	-9.61039	0	
2.3393	-2.25572	-7.16707	0	
2.3400	-2.85937	-3.81623	0	
2.3407	-4.68619	-3.81623	0	
2.3413	-3.16119	-5.65454	0	
2.3420	-2.25572	-3.51373	0	
2.3427	-4.68619	5.02626	0	
2.3433	-4.08254	14.497	0	
2.3440	-1.03255	16.3353	0	
2.3447	-0.111198	10.8204	0	
2.3453	0.190625	7.46958	0	
2.3460	2.01744	6.25955	0	
2.3467	1.4138	4.11874	0	
2.3473	-1.03255	1.67542	0	
2.3480	-1.33437	1.97793	0	
2.3487	1.71562	4.72375	0	
2.3493	6.29061	6.25955	0	
2.3500	7.21196	2.58294	0	
2.3507	2.01744	-0.767901	0	
2.3513	-2.25572	1.67542	0	
2.3520	-0.730727	3.81623	0	
2.3527	2.01744	1.37291	0	
2.3533	2.01744	-1.07041	0	
2.3540	1.71562	-0.767901	0	
2.3547	1.71562	-1.37291	0	
2.3553	1.4138	-1.97793	0	
2.3560	-1.03255	-1.07041	0	
2.3567	-2.55755	-1.07041	0	
2.3573	-2.85937	-2.60621	0	
2.3580	-5.00389	-3.51373	0	
2.3587	-8.05389	-3.51373	0	
2.3593	-7.13253	-5.35204	0	
2.3600	-5.60754	-6.56206	0	
2.3607	-6.52889	-3.81623	0	
2.3613	-4.68619	-2.60621	0	
2.3620	0.794269	-4.11874	0	
2.3627	2.63697	-4.11874	0	
2.3633	-0.730727	-1.97793	0	
2.3640	-2.55755	-1.07041	0	
2.3647	-0.41302	-2.60621	0	
2.3653	0.492447	-3.81623	0	
2.3660	-1.63619	-3.81623	0	
2.3667	-1.93802	-1.97793	0	
2.3673	1.71562	0.465394	0	
2.3680	2.63697	-0.162888	0	
2.3687	0.794269	-2.60621	0	
2.3693	0.492447	-2.90871	0	
2.3700	-0.111198	-2.60621	0	
2.3707	-1.33437	-3.21122	0	
2.3713	-0.111198	-3.81623	0	
2.3720	1.11198	-3.81623	0	
2.3727	0.794269	-4.72375	0	
2.3733	2.33515	-7.16707	0	
2.3740	3.54244	-7.79536	0	
2.3747	1.71562	-3.81623	0	
2.3753	1.11198	2.28043	0	
2.3760	3.54244	4.42125	0	
2.3767	4.46379	-1.07041	0	
2.3773	2.63697	-5.65454	0	
2.3780	2.01744	-2.90871	0	
2.3787	2.63697	-0.162888	0	
2.3793	2.63697	-3.51373	0	
2.3800	2.01744	-4.11874	0	
2.3807	1.4138	-3.21122	0	
2.3813	0.794269	-4.72375	0	
2.3820	-0.41302	-5.65454	0	
2.3827	-1.03255	-4.42125	0	
2.3833	-1.93802	-5.04953	0	
2.3840	-3.78072	-1.67542	0	
2.3847	-3.46301	6.25955	0	
2.3853	-1.93802	5.32877	0	
2.3860	-1.03255	-1.97793	0	
2.3867	-1.33437	-6.56206	0	
2.3873	-1.93802	-9.30789	0	
2.3880	-1.93802	-9.30789	0	
2.3887	-0.111198	-3.81623	0	
2.3893	0.794269	0.139618	0	
2.3900	1.11198	0.139618	0	
2.3907	2.63697	3.51373	0	
2.3913	2.93879	10.2154	0	
2.3920	2.01744	14.497	0	
2.3927	3.24062	14.497	0	
2.3933	7.21196	11.7512	0	
2.3940	9.03878	8.70287	0	
2.3947	9.3406	4.72375	0	
2.3953	8.43514	-0.162888	0	
2.3960	7.21196	-1.07041	0	
2.3967	7.21196	0.767901	0	
2.3973	6.29061	-0.767901	0	
2.3980	3.54244	-1.97793	0	
2.3987	1.4138	0.767901	0	
2.3993	-0.111198	-1.07041	0	
2.4000	-1.93802	-5.04953	0	
2.4007	-3.16119	-3.81623	0	
2.4013	-3.46301	-1.97793	0	
2.4020	-4.68619	-3.51373	0	
2.4027	-6.21118	-1.97793	0	
2.4033	-6.83071	-0.162888	0	
2.4040	-5.90936	-4.72375	0	
2.4047	-3.78072	-7.79536	0	
2.4053	-2.85937	-4.72375	0	
2.4060	-1.93802	-4.11874	0	
2.4067	-0.111198	-5.65454	0	
2.4073	0.794269	-2.90871	0	
2.4080	0.190625	-0.767901	0	
2.4087	-1.03255	-2.90871	0	
2.4093	-2.55755	-2.28043	0	
2.4100	-1.63619	-0.465394	0	
2.4107	1.4138	-3.21122	0	
2.4113	2.63697	-1.67542	0	
2.4120	1.11198	5.02626	0	
2.4127	-0.41302	3.81623	0	
2.4133	-1.03255	-2.90871	0	
2.4140	0.492447	-3.81623	0	
2.4147	1.4138	1.67542	0	
2.4153	0.794269	10.2154	0	
2.4160	-0.111198	18.1504	0	
2.4167	-0.111198	16.0096	0	
2.4173	0.794269	8.07459	0	
2.4180	2.63697	4.42125	0	
2.4187	2.63697	3.51373	0	
2.4193	2.01744	0.139618	0	
2.4200	3.54244	-1.07041	0	
2.4207	5.38514	0.767901	0	
2.4213	2.63697	1.67542	0	
2.4220	0.492447	-0.162888	0	
2.4227	0.794269	-2.28043	0	
2.4233	0.794269	-3.21122	0	
2.4240	0.794269	-4.42125	0	
2.4247	2.63697	-6.25955	0	
2.4253	2.93879	-5.35204	0	
2.4260	-0.111198	-1.07041	0	
2.4267	-1.03255	1.97793	0	
2.4273	1.4138	0.767901	0	
2.4280	1.71562	-1.37291	0	
2.4287	2.33515	0.767901	0	
2.4293	4.16197	4.11874	0	
2.4300	3.24062	5.02626	0	
2.4307	1.11198	4.42125	0	
2.4313	1.71562	2.88545	0	
2.4320	0.794269	1.37291	0	
2.4327	-1.93802	2.58294	0	
2.4333	-0.111198	3.51373	0	
2.4340	1.71562	0.767901	0	
2.4347	-0.111198	0.767901	0	
2.4353	0.190625	3.51373	0	
2.4360	1.4138	2.28043	0	
2.4367	-1.03255	-0.162888	0	
2.4373	-2.25572	-0.767901	0	
2.4380	-1.63619	-1.97793	0	
2.4387	-3.16119	-2.60621	0	
2.4393	-4.38436	-1.67542	0	
2.4400	-2.55755	-2.90871	0	
2.4407	-1.03255	-3.81623	0	
2.4413	-1.93802	-2.60621	0	
2.4420	-5.00389	-2.60621	0	
2.4427	-5.90936	-2.60621	0	
2.4433	-4.08254	-2.90871	0	
2.4440	-3.78072	-4.42125	0	
2.4447	-4.68619	-2.90871	0	
2.4453	-1.93802	-0.465394	0	
2.4460	-0.41302	-3.51373	0	
2.4467	-4.38436	-3.51373	0	
2.4473	-5.00389	0.767901	0	
2.4480	-1.03255	-0.465394	0	
2.4487	0.794269	-3.81623	0	
2.4493	1.11198	-4.11874	0	
2.4500	2.93879	-3.21122	0	
2.4507	3.24062	-1.67542	0	
2.4513	3.24062	-1.07041	0	
2.4520	6.29061	-2.28043	0	
2.4527	7.81561	-3.81623	0	
2.4533	4.46379	-9.30789	0	
2.4540	2.01744	-18.1504	0	
2.4547	2.63697	-23.037	0	
2.4553	2.63697	-20.5937	0	
2.4560	0.190625	-15.7303	0	
2.4567	-0.730727	-12.9612	0	
2.4573	0.492447	-12.0537	0	
2.4580	-0.41302	-4.72375	0	
2.4587	-1.33437	9.9129	0	
2.4593	0.190625	19.6862	0	
2.4600	1.11198	19.6862	0	
2.4607	-1.03255	16.6378	0	
2.4613	-1.93802	14.1945	0	
2.4620	-1.63619	11.1462	0	
2.4627	-2.55755	8.40037	0	
2.4633	-4.38436	4.72375	0	
2.4640	-5.00389	0.767901	0	
2.4647	-7.13253	-1.37291	0	
2.4653	-9.57888	-3.81623	0	
2.4660	-8.65753	-5.04953	0	
2.4667	-5.00389	-1.97793	0	
2.4673	-3.78072	2.58294	0	
2.4680	-3.78072	3.81623	0	
2.4687	-4.08254	4.11874	0	
2.4693	-5.60754	5.32877	0	
2.4700	-4.68619	3.81623	0	
2.4707	-1.93802	-0.465394	0	
2.4713	-2.85937	-0.162888	0	
2.4720	-4.68619	4.11874	0	
2.4727	-1.93802	2.58294	0	
2.4733	-1.03255	-0.767901	0	
2.4740	-2.85937	0.767901	0	
2.4747	-1.63619	3.51373	0	
2.4753	0.190625	7.46958	0	
2.4760	0.794269	12.0537	0	
2.4767	-0.111198	11.1462	0	
2.4773	-1.63619	5.95705	0	
2.4780	-1.63619	4.42125	0	
2.4787	1.11198	4.11874	0	
2.4793	1.4138	2.58294	0	
2.4800	-1.93802	1.67542	0	
2.4807	-3.78072	-0.465394	0	
2.4813	-2.85937	-2.28043	0	
2.4820	-1.03255	-0.465394	0	
2.4827	-0.730727	-0.162888	0	
2.4833	-3.78072	-2.28043	0	
2.4840	-5.90936	-0.767901	0	
2.4847	-5.00389	1.07041	0	
2.4853	-2.85937	-1.07041	0	
2.4860	0.794269	-2.28043	0	
2.4867	3.54244	-2.60621	0	
2.4873	3.54244	-2.90871	0	
2.4880	2.63697	-2.28043	0	
2.4887	3.54244	-3.51373	0	
2.4893	4.46379	-4.42125	0	
2.4900	2.63697	-1.97793	0	
2.4907	-0.41302	1.37291	0	
2.4913	-0.111198	2.28043	0	
2.4920	2.63697	1.07041	0	
2.4927	2.63697	-0.465394	0	
2.4933	-0.111198	-0.162888	0	
2.4940	-1.03255	1.67542	0	
2.4947	-1.63619	0.767901	0	
2.4953	-3.78072	0.767901	0	
2.4960	-5.30572	1.67542	0	
2.4967	-6.21118	-1.37291	0	
2.4973	-6.83071	-3.81623	0	
2.4980	-4.08254	-2.60621	0	
2.4987	-1.33437	-4.42125	0	
2.4993	-2.85937	-7.46958	0	
2.5000	-4.08254	-5.65454	0	
2.5007	-2.85937	-3.81623	0	
2.5013	-3.46301	-4.42125	0	
2.5020	-6.52889	-4.42125	0	
2.5027	-8.05389	-4.72375	0	
2.5033	-6.83071	-4.72375	0	
2.5040	-3.78072	-2.90871	0	
2.5047	-1.03255	-1.67542	0	
2.5053	-0.111198	-1.97793	0	
2.5060	0.794269	-2.90871	0	
2.5067	2.01744	-4.11874	0	
2.5073	2.93879	-2.28043	0	
2.5080	3.24062	0.767901	0	
2.5087	2.63697	-0.767901	0	
2.5093	1.71562	-1.07041	0	
2.5100	1.71562	4.11874	0	
2.5107	3.54244	6.25955	0	
2.5113	5.38514	2.58294	0	
2.5120	6.29061	1.67542	0	
2.5127	5.38514	2.58294	0	
2.5133	4.46379	0.767901	0	
2.5140	6.59243	-0.162888	0	
2.5147	8.43514	0.465394	0	
2.5153	7.21196	0.139618	0	
2.5160	4.46379	-0.767901	0	
2.5167	2.33515	-1.67542	0	
2.5173	0.794269	-2.60621	0	
2.5180	-0.41302	-3.81623	0	
2.5187	-1.93802	-4.42125	0	
2.5193	-2.85937	-1.67542	0	
2.5200	-2.85937	0.465394	0	
2.5207	-2.25572	-2.60621	0	
2.5213	-1.63619	-4.42125	0	
2.5220	-2.85937	-2.90871	0	
2.5227	-4.38436	-2.90871	0	
2.5233	-2.85937	-4.72375	0	
2.5240	-1.33437	-5.35204	0	
2.5247	-3.46301	-7.16707	0	
2.5253	-4.68619	-8.40037	0	
2.5260	-2.55755	-5.35204	0	
2.5267	-0.111198	-3.81623	0	
2.5273	-1.03255	-7.79536	0	
2.5280	-2.55755	-11.1462	0	
2.5287	-2.55755	-11.1462	0	
2.5293	-1.93802	-9.9129	0	
2.5300	-2.85937	-4.72375	0	
2.5307	-2.85937	4.42125	0	
2.5313	-1.03255	9.30789	0	
2.5320	-2.55755	9.00538	0	
2.5327	-3.16119	11.1462	0	
2.5333	1.11198	12.3562	0	
2.5340	2.63697	4.42125	0	
2.5347	-0.730727	-5.35204	0	
2.5353	-0.111198	-10.2154	0	
2.5360	2.33515	-12.9612	0	
2.5367	0.190625	-12.6587	0	
2.5373	0.190625	-7.46958	0	
2.5380	4.46379	-4.72375	0	
2.5387	5.38514	-4.42125	0	
2.5393	1.11198	0.139618	0	
2.5400	-1.03255	5.32877	0	
2.5407	-1.03255	4.72375	0	
2.5413	-0.111198	7.16707	0	
2.5420	2.01744	12.6587	0	
2.5427	3.54244	9.9129	0	
2.5433	2.63697	1.67542	0	
2.5440	2.63697	-1.07041	0	
2.5447	3.24062	-0.162888	0	
2.5453	3.54244	-1.07041	0	
2.5460	3.54244	-1.37291	0	
2.5467	4.76561	0.767901	0	
2.5473	5.68697	0.465394	0	
2.5480	3.86015	-3.81623	0	
2.5487	1.4138	-4.42125	0	
2.5493	0.794269	-3.51373	0	
2.5500	1.71562	-8.40037	0	
2.5507	2.01744	-11.1462	0	
2.5513	1.4138	-1.37291	0	
2.5520	-0.111198	4.72375	0	
2.5527	-1.03255	-1.07041	0	
2.5533	-0.111198	-3.81623	0	
2.5540	-0.111198	1.07041	0	
2.5547	-3.46301	8.40037	0	
2.5553	-4.68619	15.102	0	
2.5560	-2.85937	13.892	0	
2.5567	-4.38436	6.25955	0	
2.5573	-7.43436	3.51373	0	
2.5580	-6.52889	2.88545	0	
2.5587	-3.16119	-0.162888	0	
2.5593	-1.03255	-1.07041	0	
2.5600	-0.41302	-0.162888	0	
2.5607	-1.93802	-1.67542	0	
2.5613	-1.33437	-1.37291	0	
2.5620	0.794269	-0.465394	0	
2.5627	0.794269	-2.60621	0	
2.5633	-1.93802	-3.81623	0	
2.5640	-2.55755	-3.21122	0	
2.5647	0.492447	-2.60621	0	
2.5653	0.794269	-1.67542	0	
2.5660	-2.25572	0.139618	0	
2.5667	-1.03255	1.07041	0	
2.5673	3.24062	2.28043	0	
2.5680	0.794269	2.88545	0	
2.5687	-2.25572	1.37291	0	
2.5693	2.33515	0.465394	0	
2.5700	4.76561	2.58294	0	
2.5707	2.33515	1.67542	0	
2.5713	2.63697	-3.51373	0	
2.5720	2.93879	-4.11874	0	
2.5727	0.794269	-1.97793	0	
2.5733	2.33515	-1.67542	0	
2.5740	4.16197	-0.465394	0	
2.5747	-0.111198	1.07041	0	
2.5753	-3.16119	-1.67542	0	
2.5760	-2.25572	-2.90871	0	
2.5767	-2.55755	0.767901	0	
2.5773	-2.85937	2.88545	0	
2.5780	-3.78072	0.767901	0	
2.5787	-5.60754	-1.37291	0	
2.5793	-4.68619	-2.60621	0	
2.5800	-2.25572	-3.81623	0	
2.5807	-2.55755	-4.42125	0	
2.5813	-4.38436	-4.72375	0	
2.5820	-7.43436	-2.90871	0	
2.5827	-10.1825	-1.07041	0	
2.5833	-8.35571	-1.37291	0	
2.5840	-5.60754	-0.767901	0	
2.5847	-6.21118	0.139618	0	
2.5853	-5.00389	-1.07041	0	
2.5860	-2.55755	-0.465394	0	
2.5867	-2.85937	1.67542	0	
2.5873	-2.25572	-1.07041	0	
2.5880	0.794269	-6.56206	0	
2.5887	-0.111198	-7.46958	0	
2.5893	-1.93802	-5.65454	0	
2.5900	0.190625	-2.90871	0	
2.5907	2.33515	0.465394	0	
2.5913	2.63697	3.51373	0	
2.5920	4.16197	6.56206	0	
2.5927	3.24062	9.00538	0	
2.5933	0.794269	9.9129	0	
2.5940	2.93879	7.77209	0	
2.5947	5.38514	-0.465394	0	
2.5953	3.54244	-8.40037	0	
2.5960	3.86015	-7.46958	0	
2.5967	5.06744	-2.28043	0	
2.5973	2.93879	-1.97793	0	
2.5980	2.63697	-2.90871	0	
2.5987	3.86015	-0.162888	0	
2.5993	1.4138	7.46958	0	
2.6000	-0.111198	16.6378	0	
2.6007	1.4138	18.1504	0	
2.6013	-0.111198	9.9129	0	
2.6020	-3.78072	2.28043	0	
2.6027	-3.78072	0.767901	0	
2.6033	-1.63619	-0.767901	0	
2.6040	-0.41302	-4.72375	0	
2.6047	-0.730727	-6.56206	0	
2.6053	0.190625	-3.51373	0	
2.6060	2.01744	-1.67542	0	
2.6067	2.33515	-3.51373	0	
2.6073	1.11198	-3.81623	0	
2.6080	1.11198	-2.28043	0	
2.6087	1.11198	-0.162888	0	
2.6093	0.794269	5.95705	0	
2.6100	0.190625	11.7512	0	
2.6107	0.794269	9.61039	0	
2.6113	2.33515	4.42125	0	
2.6120	2.63697	3.51373	0	
2.6127	0.794269	4.42125	0	
2.6133	-2.85937	3.21122	0	
2.6140	-3.46301	0.465394	0	
2.6147	-1.93802	-0.162888	0	
2.6153	-1.03255	2.28043	0	
2.6160	-2.55755	2.58294	0	
2.6167	-3.78072	-0.465394	0	
2.6173	-2.85937	-2.28043	0	
2.6180	-2.55755	-1.07041	0	
2.6187	-2.55755	-0.162888	0	
2.6193	-1.03255	-0.767901	0	
2.6200	-0.111198	-2.28043	0	
2.6207	-1.03255	-3.81623	0	
2.6213	-0.111198	-1.97793	0	
2.6220	1.71562	-0.162888	0	
2.6227	0.794269	-2.90871	0	
2.6233	-0.111198	-4.11874	0	
2.6240	1.71562	-0.465394	0	
2.6247	2.33515	0.767901	0	
2.6253	0.794269	-1.07041	0	
2.6260	-0.730727	-0.767901	0	
2.6267	0.190625	0.767901	0	
2.6273	3.54244	-1.07041	0	
2.6280	6.29061	-4.72375	0	
2.6287	4.46379	-4.11874	0	
2.6293	1.4138	-0.162888	0	
2.6300	-0.111198	0.465394	0	
2.6307	1.11198	-2.90871	0	
2.6313	2.93879	-3.21122	0	
2.6320	2.33515	-1.37291	0	
2.6327	-0.111198	-1.07041	0	
2.6333	0.794269	0.767901	0	
2.6340	2.63697	1.97793	0	
2.6347	2.63697	-1.07041	0	
2.6353	0.492447	-2.90871	0	
2.6360	-2.85937	-0.767901	0	
2.6367	-2.85937	-0.767901	0	
2.6373	1.71562	-0.465394	0	
2.6380	1.71562	1.07041	0	
2.6387	-2.85937	-0.162888	0	
2.6393	-0.730727	-1.97793	0	
2.6400	2.01744	-3.81623	0	
2.6407	-1.03255	-6.25955	0	
2.6413	-1.93802	-6.25955	0	
2.6420	0.794269	-5.35204	0	
2.6427	-0.111198	-7.16707	0	
2.6433	-1.33437	-6.86457	0	
2.6440	-1.33437	-5.65454	0	
2.6447	-4.08254	-7.79536	0	
2.6453	-3.78072	-6.56206	0	
2.6460	1.71562	-0.162888	0	
2.6467	2.63697	3.51373	0	
2.6473	-0.111198	1.97793	0	
2.6480	0.794269	-1.67542	0	
2.6487	1.4138	-4.11874	0	
2.6493	-0.111198	-1.07041	0	
2.6500	2.63697	2.28043	0	
2.6507	4.16197	-0.767901	0	
2.6513	1.11198	-2.60621	0	
2.6520	-0.111198	-1.07041	0	
2.6527	1.11198	-1.97793	0	
2.6533	0.794269	-1.97793	0	
2.6540	1.71562	0.767901	0	
2.6547	3.54244	-0.162888	0	
2.6553	2.01744	-2.90871	0	
2.6560	-0.41302	-1.97793	0	
2.6567	-1.03255	-1.67542	0	
2.6573	-0.111198	-2.90871	0	
2.6580	0.794269	-3.21122	0	
2.6587	-1.33437	-3.51373	0	
2.6593	-4.68619	-3.51373	0	
2.6600	-5.60754	-2.60621	0	
2.6607	-6.52889	-3.81623	0	
2.6613	-8.05389	-5.65454	0	
2.6620	-5.60754	-4.11874	0	
2.6627	-2.55755	-0.465394	0	
2.6633	-1.93802	0.767901	0	
2.6640	-1.03255	-0.767901	0	
2.6647	0.492447	-1.07041	0	
2.6653	1.11198	1.37291	0	
2.6660	3.54244	1.97793	0	
2.6667	4.46379	-1.07041	0	
2.6673	0.794269	-1.97793	0	
2.6680	-0.730727	0.767901	0	
2.6687	3.24062	1.97793	0	
2.6693	3.54244	-0.465394	0	
2.6700	0.794269	-1.07041	0	
2.6707	2.01744	0.139618	0	
2.6713	3.86015	0.139618	0	
2.6720	1.71562	1.07041	0	
2.6727	0.794269	1.97793	0	
2.6733	2.01744	-0.162888	0	
2.6740	0.190625	-1.07041	0	
2.6747	-3.78072	0.767901	0	
2.6753	-6.52889	-1.37291	0	
2.6760	-6.52889	-8.40037	0	
2.6767	-5.60754	-14.7995	0	
2.6773	-4.68619	-14.497	0	
2.6780	-3.78072	-9.9129	0	
2.6787	-4.08254	-6.56206	0	
2.6793	-5.90936	-3.81623	0	
2.6800	-6.52889	1.07041	0	
2.6807	-5.90936	6.25955	0	
2.6813	-5.60754	9.00538	0	
2.6820	-3.46301	8.70287	0	
2.6827	-3.78072	2.88545	0	
2.6833	-7.43436	-4.72375	0	
2.6840	-6.52889	-6.56206	0	
2.6847	-1.33437	-6.86457	0	
2.6853	-1.33437	-10.2154	0	
2.6860	-2.85937	-9.61039	0	
2.6867	-0.730727	-2.90871	0	
2.6873	-1.33437	5.02626	0	
2.6880	-2.85937	14.497	0	
2.6887	-0.730727	21.827	0	
2.6893	0.190625	20.5937	0	
2.6900	-0.730727	15.4046	0	
2.6907	-1.03255	14.497	0	
2.6913	-1.03255	13.5662	0	
2.6920	2.63697	12.3562	0	
2.6927	6.91014	13.5662	0	
2.6933	5.38514	14.1945	0	
2.6940	1.71562	11.4487	0	
2.6947	2.63697	8.07459	0	
2.6953	2.93879	6.86457	0	
2.6960	0.492447	6.25955	0	
2.6967	-0.111198	5.02626	0	
2.6973	0.794269	4.42125	0	
2.6980	0.794269	3.81623	0	
2.6987	1.71562	2.28043	0	
2.6993	2.01744	1.37291	0	
2.7000	1.71562	2.58294	0	
2.7007	2.01744	2.88545	0	
2.7013	2.33515	0.465394	0	
2.7020	1.4138	-1.97793	0	
2.7027	-1.33437	-1.97793	0	
2.7033	-5.60754	-1.97793	0	
2.7040	-6.52889	-1.07041	0	
2.7047	-3.16119	0.139618	0	
2.7053	-0.730727	0.767901	0	
2.7060	-0.41302	0.767901	0	
2.7067	-0.111198	1.37291	0	
2.7073	1.71562	0.767901	0	
2.7080	3.54244	-0.162888	0	
2.7087	3.54244	0.465394	0	
2.7093	2.63697	0.767901	0	
2.7100	3.54244	0.465394	0	
2.7107	5.68697	0.139618	0	
2.7113	5.38514	-0.767901	0	
2.7120	4.76561	-3.51373	0	
2.7127	4.46379	-4.72375	0	
2.7133	1.71562	-4.72375	0	
2.7140	-0.111198	-5.95705	0	
2.7147	-1.33437	-5.65454	0	
2.7153	-4.68619	-1.97793	0	
2.7160	-5.60754	-0.162888	0	
2.7167	-1.63619	-3.81623	0	
2.7173	0.794269	-3.81623	0	
2.7180	-1.03255	1.67542	0	
2.7187	-3.46301	0.465394	0	
2.7193	-3.78072	-5.35204	0	
2.7200	-3.78072	-6.25955	0	
2.7207	-5.60754	-5.65454	0	
2.7213	-6.83071	-7.16707	0	
2.7220	-6.21118	-5.65454	0	
2.7227	-3.46301	-4.72375	0	
2.7233	-0.111198	-6.86457	0	
2.7240	0.492447	-5.95705	0	
2.7247	0.492447	-3.51373	0	
2.7253	2.93879	-3.21122	0	
2.7260	3.24062	-2.90871	0	
2.7267	-1.93802	-2.28043	0	
2.7273	-2.85937	-4.11874	0	
2.7280	1.71562	-6.25955	0	
2.7287	-0.41302	-4.72375	0	
2.7293	-3.78072	-0.767901	0	
2.7300	1.11198	3.51373	0	
2.7307	4.76561	1.97793	0	
2.7313	3.54244	-2.28043	0	
2.7320	3.24062	-1.97793	0	
2.7327	2.63697	1.67542	0	
2.7333	1.71562	-0.162888	0	
2.7340	3.86015	-3.81623	0	
2.7347	4.46379	-1.97793	0	
2.7353	1.71562	0.767901	0	
2.7360	-0.111198	-1.37291	0	
2.7367	-1.93802	-4.42125	0	
2.7373	-2.25572	-3.81623	0	
2.7380	0.794269	-2.90871	0	
2.7387	-0.111198	-4.42125	0	
2.7393	-4.08254	-4.72375	0	
2.7400	-3.16119	-3.81623	0	
2.7407	-0.41302	-4.11874	0	
2.7413	-1.93802	-5.65454	0	
2.7420	-3.78072	-8.40037	0	
2.7427	-3.16119	-13.892	0	
2.7433	-4.08254	-16.6378	0	
2.7440	-5.60754	-12.6587	0	
2.7447	-5.90936	-8.40037	0	
2.7453	-5.60754	-8.40037	0	
2.7460	-4.08254	-7.46958	0	
2.7467	-1.03255	-1.07041	0	
2.7473	1.4138	6.25955	0	
2.7480	2.93879	9.00538	0	
2.7487	4.16197	9.00538	0	
2.7493	4.46379	6.25955	0	
2.7500	5.38514	0.767901	0	
2.7507	4.46379	-0.162888	0	
2.7513	1.4138	3.51373	0	
2.7520	1.4138	1.67542	0	
2.7527	3.86015	-2.90871	0	
2.7533	2.33515	-1.37291	0	
2.7540	0.794269	-1.97793	0	
2.7547	3.86015	-7.46958	0	
2.7553	2.93879	-6.86457	0	
2.7560	-0.730727	-1.97793	0	
2.7567	0.190625	0.465394	0	
2.7573	-0.730727	8.40037	0	
2.7580	-3.78072	21.827	0	
2.7587	-0.111198	24.247	0	
2.7593	2.63697	15.4046	0	
2.7600	-1.03255	7.77209	0	
2.7607	-2.85937	2.58294	0	
2.7613	-0.111198	0.465394	0	
2.7620	0.794269	3.51373	0	
2.7627	0.794269	3.81623	0	
2.7633	1.71562	-1.07041	0	
2.7640	1.11198	-0.465394	0	
2.7647	-0.730727	2.58294	0	
2.7653	0.794269	1.67542	0	
2.7660	2.93879	2.58294	0	
2.7667	4.46379	4.42125	0	
2.7673	5.38514	2.58294	0	
2.7680	5.68697	2.58294	0	
2.7687	4.76561	3.81623	0	
2.7693	3.24062	0.767901	0	
2.7700	2.63697	1.07041	0	
2.7707	3.54244	5.32877	0	
2.7713	2.63697	2.88545	0	
2.7720	0.794269	-0.162888	0	
2.7727	1.11198	4.11874	0	
2.7733	2.93879	6.56206	0	
2.7740	1.4138	2.58294	0	
2.7747	-1.03255	-0.465394	0	
2.7753	1.11198	0.139618	0	
2.7760	2.93879	-0.465394	0	
2.7767	1.71562	-2.90871	0	
2.7773	1.71562	-2.60621	0	
2.7780	1.4138	0.465394	0	
2.7787	0.794269	1.67542	0	
2.7793	2.63697	0.465394	0	
2.7800	2.63697	-0.767901	0	
2.7807	-2.25572	-0.767901	0	
2.7813	-3.16119	-1.97793	0	
2.7820	-1.93802	-2.90871	0	
2.7827	-5.60754	-1.37291	0	
2.7833	-9.26117	0.139618	0	
2.7840	-7.43436	-1.07041	0	
2.7847	-5.60754	-1.97793	0	
2.7853	-4.68619	-2.28043	0	
2.7860	-2.25572	-3.81623	0	
2.7867	-1.33437	-5.65454	0	
2.7873	-3.16119	-3.81623	0	
2.7880	-4.38436	-1.97793	0	
2.7887	-4.08254	-2.90871	0	
2.7893	-2.55755	-3.21122	0	
2.7900	-0.111198	-1.07041	0	
2.7907	0.794269	-1.37291	0	
2.7913	0.190625	-3.81623	0	
2.7920	0.190625	-4.72375	0	
2.7927	1.71562	-3.51373	0	
2.7933	2.63697	-1.97793	0	
2.7940	3.24062	-1.37291	0	
2.7947	3.24062	-2.28043	0	
2.7953	2.33515	-3.81623	0	
2.7960	-0.111198	-3.21122	0	
2.7967	-2.55755	0.139618	0	
2.7973	-3.78072	1.97793	0	
2.7980	-4.08254	0.465394	0	
2.7987	-4.08254	-1.67542	0	
2.7993	-3.46301	-1.97793	0	
2.8000	-2.55755	-1.97793	0	
2.8007	-3.46301	-2.60621	0	
2.8013	-5.60754	-3.51373	0	
2.8020	-6.83071	-2.90871	0	
2.8027	-5.60754	-0.465394	0	
2.8033	-4.68619	0.139618	0	
2.8040	-4.68619	-1.07041	0	
2.8047	-3.78072	-0.767901	0	
2.8053	-1.63619	-0.162888	0	
2.8060	-2.25572	-0.162888	0	
2.8067	-4.38436	1.67542	0	
2.8073	-3.16119	2.58294	0	
2.8080	-0.41302	1.67542	0	
2.8087	1.4138	2.58294	0	
2.8093	2.63697	3.21122	0	
2.8100	2.63697	1.07041	0	
2.8107	2.63697	1.37291	0	
2.8113	3.86015	3.51373	0	
2.8120	3.86015	1.97793	0	
2.8127	2.63697	0.767901	0	
2.8133	2.93879	2.88545	0	
2.8140	1.71562	0.767901	0	
2.8147	-3.78072	-3.21122	0	
2.8153	-5.30572	-1.97793	0	
2.8160	-1.03255	-1.07041	0	
2.8167	1.71562	-4.42125	0	
2.8173	0.794269	-5.65454	0	
2.8180	0.190625	-4.72375	0	
2.8187	-0.111198	-7.79536	0	
2.8193	-1.03255	-10.2154	0	
2.8200	-4.68619	-9.30789	0	
2.8207	-8.05389	-17.5454	0	
2.8213	-6.52889	-28.2262	0	
2.8220	-5.00389	-24.8753	0	
2.8227	-4.68619	-16.3353	0	
2.8233	-1.33437	-15.4046	0	
2.8240	-1.33437	-15.102	0	
2.8247	-6.21118	-8.09786	0	
2.8253	-6.21118	5.32877	0	
2.8260	-1.93802	24.8753	0	
2.8267	-1.03255	40.4428	0	
2.8273	-0.111198	38.6045	0	
2.8280	3.24062	25.1778	0	
2.8287	4.46379	14.497	0	
2.8293	4.16197	10.2154	0	
2.8300	3.54244	9.30789	0	
2.8307	3.24062	9.00538	0	
2.8313	4.46379	9.30789	0	
2.8320	5.38514	9.9129	0	
2.8327	4.16197	7.46958	0	
2.8333	3.54244	4.11874	0	
2.8340	2.63697	3.51373	0	
2.8347	0.794269	4.42125	0	
2.8353	2.93879	3.21122	0	
2.8360	5.98879	1.07041	0	
2.8367	3.86015	1.07041	0	
2.8373	-1.33437	1.67542	0	
2.8380	-4.08254	1.67542	0	
2.8387	-3.78072	0.139618	0	
2.8393	-3.46301	-1.97793	0	
2.8400	-6.52889	-1.97793	0	
2.8407	-8.65753	-0.162888	0	
2.8413	-6.52889	-0.767901	0	
2.8420	-3.78072	-3.81623	0	
2.8427	-2.25572	-3.81623	0	
2.8433	-1.93802	-1.97793	0	
2.8440	-4.38436	-1.97793	0	
2.8447	-5.90936	-2.90871	0	
2.8453	-4.38436	-2.90871	0	
2.8460	-4.08254	-2.90871	0	
2.8467	-5.60754	-4.11874	0	
2.8473	-3.78072	-4.42125	0	
2.8480	-1.63619	-1.07041	0	
2.8487	-0.730727	2.58294	0	
2.8493	0.794269	2.88545	0	
2.8500	2.63697	1.67542	0	
2.8507	2.33515	0.139618	0	
2.8513	1.4138	-1.07041	0	
2.8520	2.01744	-1.67542	0	
2.8527	4.16197	-0.767901	0	
2.8533	6.59243	-2.28043	0	
2.8540	5.06744	-7.79536	0	
2.8547	2.63697	-8.70287	0	
2.8553	5.98879	-2.28043	0	
2.8560	9.03878	-0.162888	0	
2.8567	6.91014	-3.81623	0	
2.8573	4.46379	-3.81623	0	
2.8580	3.24062	-3.81623	0	
2.8587	0.492447	-7.46958	0	
2.8593	-0.111198	-3.81623	0	
2.8600	0.190625	6.25955	0	
2.8607	-1.93802	5.32877	0	
2.8613	-2.55755	-1.97793	0	
2.8620	-1.93802	-2.90871	0	
2.8627	-3.46301	-2.90871	0	
2.8633	-4.38436	-3.81623	0	
2.8640	-3.78072	-3.51373	0	
2.8647	-3.46301	-1.97793	0	
2.8653	-3.46301	-1.37291	0	
2.8660	-4.38436	-2.28043	0	
2.8667	-6.52889	-5.35204	0	
2.8673	-5.90936	-4.72375	0	
2.8680	-3.46301	0.767901	0	
2.8687	-2.25572	1.07041	0	
2.8693	-1.93802	-3.81623	0	
2.8700	-1.63619	-3.81623	0	
2.8707	-0.41302	1.67542	0	
2.8713	1.11198	2.58294	0	
2.8720	0.794269	-1.07041	0	
2.8727	2.63697	-1.07041	0	
2.8733	6.59243	1.67542	0	
2.8740	4.46379	1.67542	0	
2.8747	-0.111198	1.07041	0	
2.8753	1.71562	-0.767901	0	
2.8760	2.63697	-3.81623	0	
2.8767	-2.25572	-3.51373	0	
2.8773	-4.68619	-1.07041	0	
2.8780	-3.78072	-3.81623	0	
2.8787	-2.85937	-5.95705	0	
2.8793	0.794269	-2.90871	0	
2.8800	3.54244	-1.37291	0	
2.8807	2.93879	-3.51373	0	
2.8813	1.71562	-5.04953	0	
2.8820	-0.111198	-6.86457	0	
2.8827	-1.63619	-7.16707	0	
2.8833	-1.03255	-8.09786	0	
2.8840	-0.111198	-12.0537	0	
2.8847	0.492447	-12.9612	0	
2.8853	2.63697	-8.40037	0	
2.8860	1.4138	-6.25955	0	
2.8867	-2.85937	-6.86457	0	
2.8873	-0.111198	-5.04953	0	
2.8880	4.46379	-1.07041	0	
2.8887	2.33515	7.16707	0	
2.8893	-1.93802	16.6378	0	
2.8900	-1.93802	16.3353	0	
2.8907	-0.41302	8.70287	0	
2.8913	0.190625	4.72375	0	
2.8920	0.492447	3.51373	0	
2.8927	1.4138	1.67542	0	
2.8933	2.63697	2.58294	0	
2.8940	1.71562	3.21122	0	
2.8947	1.71562	0.465394	0	
2.8953	2.01744	0.139618	0	
2.8960	-1.03255	0.767901	0	
2.8967	-4.38436	-1.07041	0	
2.8973	-3.78072	-2.28043	0	
2.8980	-3.78072	-1.07041	0	
2.8987	-5.90936	-0.162888	0	
2.8993	-6.21118	0.139618	0	
2.9000	-6.21118	-1.37291	0	
2.9007	-6.21118	-2.90871	0	
2.9013	-5.30572	0.465394	0	
2.9020	-5.90936	0.767901	0	
2.9027	-5.90936	-9.9129	0	
2.9033	-2.85937	-20.2912	0	
2.9040	-4.08254	-21.5245	0	
2.9047	-8.65753	-19.6862	0	
2.9053	-8.65753	-17.2429	0	
2.9060	-6.83071	-11.7512	0	
2.9067	-8.35571	-4.42125	0	
2.9073	-6.21118	4.42125	0	
2.9080	0.492447	15.4046	0	
2.9087	2.93879	21.1987	0	
2.9093	2.93879	18.4529	0	
2.9100	4.76561	10.5179	0	
2.9107	6.91014	2.58294	0	
2.9113	6.91014	0.767901	0	
2.9120	5.38514	4.42125	0	
2.9127	2.63697	5.95705	0	
2.9133	0.794269	1.67542	0	
2.9140	2.93879	0.465394	0	
2.9147	6.29061	5.32877	0	
2.9153	5.38514	10.2154	0	
2.9160	3.54244	10.2154	0	
2.9167	5.06744	7.16707	0	
2.9173	7.21196	3.81623	0	
2.9180	5.98879	1.67542	0	
2.9187	3.54244	0.465394	0	
2.9193	2.01744	-1.37291	0	
2.9200	0.190625	-1.07041	0	
2.9207	-0.730727	0.767901	0	
2.9213	-1.03255	-0.767901	0	
2.9220	-1.93802	-2.90871	0	
2.9227	-4.08254	-3.51373	0	
