0.0007	-0.902166	-0.905788	0	
0.0013	-5.48978	-0.615252	0	
0.0020	-6.41114	-2.75154	0	
0.0027	-1.20929	-2.75154	0	
0.0033	-1.51641	-0.905788	0	
0.0040	-4.56842	-1.82867	0	
0.0047	-1.20929	-3.65733	0	
0.0053	2.43777	-1.52104	0	
0.0060	0.921361	3.05917	0	
0.0067	-0.30712	5.79363	0	
0.0073	0.30712	3.65733	0	
0.0080	0	0.307626	0	
0.0087	-0.614241	-0.615252	0	
0.0093	0	-2.44392	0	
0.0100	0	-3.34971	0	
0.0107	-0.902166	-1.21341	0	
0.0113	0.30712	-0.615252	0	
0.0120	2.13065	-2.44392	0	
0.0127	0.30712	-2.13629	0	
0.0133	-1.51641	-2.75154	0	
0.0140	0.921361	-6.7165	0	
0.0147	3.05201	-10.0662	0	
0.0153	2.74489	-11.8949	0	
0.0160	0.921361	-11.8949	0	
0.0167	-0.902166	-7.62229	0	
0.0173	-0.614241	-3.65733	0	
0.0180	1.22848	-1.82867	0	
0.0187	0.614241	1.2305	0	
0.0193	-2.13065	3.65733	0	
0.0200	-2.74489	2.75154	0	
0.0207	-1.20929	5.19546	0	
0.0213	-0.902166	11.6043	0	
0.0220	-1.51641	11.912	0	
0.0227	-2.43777	5.50309	0	
0.0233	-4.2613	-0.615252	0	
0.0240	-4.2613	-3.65733	0	
0.0247	-2.74489	-5.486	0	
0.0253	-3.05201	-4.58021	0	
0.0260	-2.13065	-1.52104	0	
0.0267	0.921361	0.922878	0	
0.0273	1.5356	-0.307626	0	
0.0280	0	-2.75154	0	
0.0287	-0.902166	-4.27259	0	
0.0293	-0.30712	-3.65733	0	
0.0300	2.43777	-0.905788	0	
0.0307	4.58761	1.82867	0	
0.0313	3.05201	1.82867	0	
0.0320	2.74489	0.307626	0	
0.0327	3.66625	1.82867	0	
0.0333	2.74489	3.05917	0	
0.0340	2.74489	1.52104	0	
0.0347	4.89473	1.82867	0	
0.0353	4.58761	3.3668	0	
0.0360	2.74489	0.922878	0	
0.0367	3.66625	-0.615252	0	
0.0373	2.74489	0.922878	0	
0.0380	1.84272	0.922878	0	
0.0387	2.74489	-0.905788	0	
0.0393	2.43777	-0.615252	0	
0.0400	0.614241	-0.615252	0	
0.0407	-0.614241	-2.13629	0	
0.0413	-1.82353	-2.75154	0	
0.0420	-2.74489	-2.75154	0	
0.0427	-1.51641	-2.75154	0	
0.0433	-2.13065	-2.13629	0	
0.0440	-5.18266	-2.13629	0	
0.0447	-5.7969	-1.82867	0	
0.0453	-3.05201	-0.307626	0	
0.0460	-0.902166	0.307626	0	
0.0467	-0.902166	-0.905788	0	
0.0473	-0.902166	0.307626	0	
0.0480	0.614241	3.65733	0	
0.0487	0.30712	3.05917	0	
0.0493	0.30712	0.922878	0	
0.0500	2.74489	0	0	
0.0507	3.66625	-1.21341	0	
0.0513	3.05201	-2.75154	0	
0.0520	4.58761	-1.21341	0	
0.0527	4.28049	0.922878	0	
0.0533	2.74489	-0.615252	0	
0.0540	4.58761	-3.04208	0	
0.0547	5.48978	-0.905788	0	
0.0553	3.35913	2.44392	0	
0.0560	3.66625	0.922878	0	
0.0567	4.58761	-1.52104	0	
0.0573	4.28049	-1.21341	0	
0.0580	4.58761	0	0	
0.0587	2.13065	0	0	
0.0593	-3.35913	-0.905788	0	
0.0600	-4.2613	-3.34971	0	
0.0607	-2.74489	-4.58021	0	
0.0613	-2.74489	-4.58021	0	
0.0620	-1.82353	-4.88784	0	
0.0627	-2.43777	-2.75154	0	
0.0633	-4.2613	2.75154	0	
0.0640	-1.82353	4.58021	0	
0.0647	0.614241	1.52104	0	
0.0653	-0.614241	0.307626	0	
0.0660	0	2.75154	0	
0.0667	0.30712	2.75154	0	
0.0673	-1.82353	-0.307626	0	
0.0680	-1.82353	-0.905788	0	
0.0687	-0.30712	-0.615252	0	
0.0693	-0.902166	-3.65733	0	
0.0700	-0.30712	-4.58021	0	
0.0707	1.84272	-0.905788	0	
0.0713	-0.30712	0.922878	0	
0.0720	-1.82353	1.2305	0	
0.0727	0.921361	5.19546	0	
0.0733	1.5356	8.23754	0	
0.0740	0.614241	4.88784	0	
0.0747	3.35913	1.82867	0	
0.0753	3.35913	4.88784	0	
0.0760	-1.20929	5.50309	0	
0.0767	-1.82353	0.922878	0	
0.0773	0.921361	-0.905788	0	
0.0780	0.921361	-1.21341	0	
0.0787	0.921361	-3.96496	0	
0.0793	0.921361	-3.34971	0	
0.0800	-0.902166	0.615252	0	
0.0807	-2.43777	-2.44392	0	
0.0813	-2.13065	-4.88784	0	
0.0820	-2.13065	-2.75154	0	
0.0827	-2.13065	-3.96496	0	
0.0833	-2.74489	-5.17837	0	
0.0840	-2.74489	-0.307626	0	
0.0847	-0.614241	-0.307626	0	
0.0853	-0.614241	-6.10125	0	
0.0860	-2.43777	-7.31467	0	
0.0867	0.614241	-6.7165	0	
0.0873	2.74489	-6.7165	0	
0.0880	0	-3.65733	0	
0.0887	0	-1.82867	0	
0.0893	3.66625	-1.52104	0	
0.0900	2.74489	-1.21341	0	
0.0907	0	-1.82867	0	
0.0913	2.43777	-0.307626	0	
0.0920	3.66625	3.65733	0	
0.0927	1.84272	4.58021	0	
0.0933	0.614241	4.58021	0	
0.0940	-0.614241	6.10125	0	
0.0947	-0.30712	6.10125	0	
0.0953	1.84272	6.40888	0	
0.0960	1.84272	7.33176	0	
0.0967	0.921361	2.75154	0	
0.0973	2.43777	-1.82867	0	
0.0980	2.74489	-0.615252	0	
0.0987	-0.902166	0.922878	0	
0.0993	-3.35913	0	0	
0.1000	-3.05201	0.615252	0	
0.1007	-2.13065	0.307626	0	
0.1013	-1.51641	-0.307626	0	
0.1020	-1.20929	2.75154	0	
0.1027	-2.13065	6.40888	0	
0.1033	-1.51641	5.79363	0	
0.1040	1.22848	1.2305	0	
0.1047	0.921361	-1.82867	0	
0.1053	-2.74489	-2.13629	0	
0.1060	-3.66625	-0.615252	0	
0.1067	-0.614241	0.922878	0	
0.1073	1.5356	0.615252	0	
0.1080	1.5356	-1.82867	0	
0.1087	1.84272	-2.44392	0	
0.1093	0.921361	0	0	
0.1100	0.30712	1.2305	0	
0.1107	0	0.307626	0	
0.1113	-1.82353	-0.307626	0	
0.1120	-1.51641	0	0	
0.1127	1.84272	0.922878	0	
0.1133	2.74489	0.922878	0	
0.1140	0.921361	0.615252	0	
0.1147	-1.20929	0	0	
0.1153	-1.51641	-0.307626	0	
0.1160	0	-1.82867	0	
0.1167	0.30712	-3.34971	0	
0.1173	-1.20929	-2.75154	0	
0.1180	-1.82353	0.307626	0	
0.1187	-1.20929	0	0	
0.1193	-4.2613	-3.65733	0	
0.1200	-5.7969	-4.27259	0	
0.1207	-3.66625	-0.905788	0	
0.1213	-2.13065	-0.615252	0	
0.1220	-1.82353	-3.04208	0	
0.1227	-0.902166	-5.17837	0	
0.1233	-2.43777	-5.486	0	
0.1240	-3.95418	-4.27259	0	
0.1247	-1.20929	-3.65733	0	
0.1253	1.84272	-3.04208	0	
0.1260	0.921361	-0.615252	0	
0.1267	-0.30712	0.307626	0	
0.1273	-0.30712	-2.44392	0	
0.1280	-0.30712	-4.88784	0	
0.1287	-0.902166	-4.27259	0	
0.1293	-0.902166	-1.21341	0	
0.1300	0.921361	0	0	
0.1307	0.921361	-2.44392	0	
0.1313	-0.614241	-1.52104	0	
0.1320	2.43777	3.65733	0	
0.1327	4.58761	4.27259	0	
0.1333	2.74489	0	0	
0.1340	1.84272	-1.52104	0	
0.1347	0	-0.905788	0	
0.1353	-2.43777	-0.615252	0	
0.1360	-1.20929	0.307626	0	
0.1367	-0.30712	0.307626	0	
0.1373	-3.35913	-0.905788	0	
0.1380	-3.05201	-0.905788	0	
0.1387	0	0	0	
0.1393	-0.614241	0.922878	0	
0.1400	-0.30712	2.44392	0	
0.1407	0.614241	2.75154	0	
0.1413	-0.902166	1.82867	0	
0.1420	-1.82353	1.2305	0	
0.1427	-1.51641	1.52104	0	
0.1433	-3.66625	-0.307626	0	
0.1440	-4.2613	-5.17837	0	
0.1447	-3.35913	-9.45096	0	
0.1453	-3.95418	-10.0662	0	
0.1460	-3.05201	-8.23754	0	
0.1467	0.614241	-2.44392	0	
0.1473	1.5356	4.58021	0	
0.1480	-0.30712	4.88784	0	
0.1487	-0.902166	0.922878	0	
0.1493	-0.614241	0.922878	0	
0.1500	-1.51641	1.82867	0	
0.1507	-2.43777	-1.21341	0	
0.1513	-1.51641	-1.21341	0	
0.1520	-0.30712	2.75154	0	
0.1527	-1.51641	3.05917	0	
0.1533	-1.20929	0.615252	0	
0.1540	0.921361	0.307626	0	
0.1547	-0.614241	1.82867	0	
0.1553	-4.56842	2.75154	0	
0.1560	-3.35913	3.05917	0	
0.1567	-0.30712	1.52104	0	
0.1573	0.614241	-1.82867	0	
0.1580	1.84272	-4.27259	0	
0.1587	1.5356	-5.486	0	
0.1593	0	-6.7165	0	
0.1600	2.13065	-7.31467	0	
0.1607	4.58761	-4.58021	0	
0.1613	2.43777	0.615252	0	
0.1620	1.22848	2.75154	0	
0.1627	2.74489	1.2305	0	
0.1633	1.84272	3.05917	0	
0.1640	0.614241	10.6815	0	
0.1647	2.74489	17.398	0	
0.1653	2.74489	16.4751	0	
0.1660	1.22848	10.9891	0	
0.1667	3.05201	7.02413	0	
0.1673	5.7969	5.79363	0	
0.1680	4.58761	5.50309	0	
0.1687	2.74489	6.10125	0	
0.1693	3.97337	6.10125	0	
0.1700	6.41114	3.96496	0	
0.1707	4.89473	3.05917	0	
0.1713	2.43777	4.88784	0	
0.1720	2.74489	4.58021	0	
0.1727	2.74489	2.13629	0	
0.1733	0.614241	1.52104	0	
0.1740	0.921361	1.82867	0	
0.1747	2.13065	0.922878	0	
0.1753	1.5356	1.2305	0	
0.1760	2.13065	1.2305	0	
0.1767	2.74489	0.922878	0	
0.1773	0	1.2305	0	
0.1780	-2.74489	0.922878	0	
0.1787	-0.902166	-1.52104	0	
0.1793	-0.30712	-3.34971	0	
0.1800	-1.51641	-3.96496	0	
0.1807	-3.05201	-3.65733	0	
0.1813	-4.2613	-1.82867	0	
0.1820	-2.74489	-2.75154	0	
0.1827	0	-5.17837	0	
0.1833	-1.82353	-3.04208	0	
0.1840	-2.43777	0.615252	0	
0.1847	0.921361	0	0	
0.1853	1.22848	0	0	
0.1860	-1.82353	4.27259	0	
0.1867	-0.902166	5.50309	0	
0.1873	1.84272	2.75154	0	
0.1880	1.22848	-0.905788	0	
0.1887	0.921361	-3.34971	0	
0.1893	1.22848	-2.75154	0	
0.1900	1.5356	-0.905788	0	
0.1907	0.921361	-0.615252	0	
0.1913	-1.82353	-1.82867	0	
0.1920	-3.95418	-1.82867	0	
0.1927	-2.43777	-1.82867	0	
0.1933	0	-3.65733	0	
0.1940	-0.902166	-3.34971	0	
0.1947	-2.43777	0.615252	0	
0.1953	0	0.922878	0	
0.1960	0.921361	-3.04208	0	
0.1967	-3.66625	-2.44392	0	
0.1973	-5.48978	0.922878	0	
0.1980	-2.13065	-2.13629	0	
0.1987	-0.902166	-5.79363	0	
0.1993	-3.66625	-2.44392	0	
0.2000	-3.66625	2.13629	0	
0.2007	-1.82353	1.82867	0	
0.2013	-2.43777	2.13629	0	
0.2020	-3.05201	2.13629	0	
0.2027	-2.13065	-0.905788	0	
0.2033	-2.13065	-3.65733	0	
0.2040	-1.82353	-2.75154	0	
0.2047	-0.30712	-1.82867	0	
0.2053	0.921361	-1.82867	0	
0.2060	1.5356	-2.75154	0	
0.2067	2.13065	-2.75154	0	
0.2073	1.22848	0	0	
0.2080	0	2.13629	0	
0.2087	0	1.82867	0	
0.2093	-0.614241	0.922878	0	
0.2100	-1.20929	1.52104	0	
0.2107	1.84272	1.82867	0	
0.2113	3.66625	1.52104	0	
0.2120	3.35913	1.2305	0	
0.2127	3.05201	0.922878	0	
0.2133	1.84272	-0.615252	0	
0.2140	-0.902166	0	0	
0.2147	0.614241	1.2305	0	
0.2153	2.74489	-1.82867	0	
0.2160	-0.30712	-5.17837	0	
0.2167	-3.95418	-3.65733	0	
0.2173	-3.05201	-0.905788	0	
0.2180	-2.43777	-2.44392	0	
0.2187	-4.2613	-3.65733	0	
0.2193	-4.56842	-2.44392	0	
0.2200	-2.74489	-1.21341	0	
0.2207	-2.13065	-1.21341	0	
0.2213	-4.56842	-2.13629	0	
0.2220	-5.7969	-2.75154	0	
0.2227	-5.18266	-2.75154	0	
0.2233	-4.87554	-3.65733	0	
0.2240	-4.56842	-5.486	0	
0.2247	-1.82353	-3.65733	0	
0.2253	0.614241	0	0	
0.2260	0.921361	0.307626	0	
0.2267	1.84272	-1.82867	0	
0.2273	3.35913	-3.65733	0	
0.2280	4.58761	-5.486	0	
0.2287	5.48978	-6.40888	0	
0.2293	3.97337	-5.17837	0	
0.2300	2.74489	-4.88784	0	
0.2307	3.66625	-6.40888	0	
0.2313	4.89473	-3.34971	0	
0.2320	4.58761	2.44392	0	
0.2327	4.58761	3.3668	0	
0.2333	3.66625	3.05917	0	
0.2340	1.22848	7.63938	0	
0.2347	0.30712	10.9891	0	
0.2353	0.921361	8.8528	0	
0.2360	0.614241	5.50309	0	
0.2367	-1.51641	3.65733	0	
0.2373	-1.82353	2.75154	0	
0.2380	-1.20929	1.52104	0	
0.2387	-1.82353	-1.82867	0	
0.2393	-2.13065	-3.65733	0	
0.2400	-0.902166	-2.75154	0	
0.2407	-1.20929	-2.75154	0	
0.2413	-3.95418	-4.88784	0	
0.2420	-2.74489	-4.27259	0	
0.2427	0.921361	-1.52104	0	
0.2433	0	1.52104	0	
0.2440	-1.20929	4.27259	0	
0.2447	0.921361	4.58021	0	
0.2453	0	2.75154	0	
0.2460	-3.95418	3.65733	0	
0.2467	-4.56842	3.96496	0	
0.2473	-3.66625	2.75154	0	
0.2480	-3.35913	3.05917	0	
0.2487	-2.13065	2.44392	0	
0.2493	-0.614241	-1.21341	0	
0.2500	1.22848	-2.75154	0	
0.2507	3.05201	-3.65733	0	
0.2513	3.35913	-9.16042	0	
0.2520	2.74489	-9.45096	0	
0.2527	3.66625	-3.04208	0	
0.2533	3.66625	-0.615252	0	
0.2540	1.84272	-2.75154	0	
0.2547	1.84272	-2.44392	0	
0.2553	2.74489	-0.307626	0	
0.2560	2.74489	1.82867	0	
0.2567	1.84272	4.88784	0	
0.2573	0.921361	3.05917	0	
0.2580	0.921361	-3.04208	0	
0.2587	2.13065	-3.65733	0	
0.2593	2.13065	-1.52104	0	
0.2600	0.614241	-2.75154	0	
0.2607	0.921361	-3.04208	0	
0.2613	1.22848	-2.75154	0	
0.2620	-0.30712	-5.486	0	
0.2627	0.614241	-4.58021	0	
0.2633	3.97337	0.307626	0	
0.2640	2.74489	0	0	
0.2647	-2.74489	-3.65733	0	
0.2653	-2.43777	-3.65733	0	
0.2660	-0.30712	-1.82867	0	
0.2667	-0.902166	0.307626	0	
0.2673	0	1.52104	0	
0.2680	0.921361	0.615252	0	
0.2687	0	0.922878	0	
0.2693	0.921361	3.05917	0	
0.2700	2.13065	5.19546	0	
0.2707	1.5356	5.50309	0	
0.2713	1.22848	3.65733	0	
0.2720	1.22848	0.922878	0	
0.2727	-0.902166	-0.615252	0	
0.2733	-1.82353	-1.21341	0	
0.2740	-1.51641	-3.65733	0	
0.2747	-3.95418	-4.58021	0	
0.2753	-6.10402	-3.65733	0	
0.2760	-4.56842	-2.75154	0	
0.2767	-3.66625	-3.34971	0	
0.2773	-6.10402	-5.17837	0	
0.2780	-7.3133	-5.79363	0	
0.2787	-6.41114	-3.65733	0	
0.2793	-6.41114	-1.82867	0	
0.2800	-6.41114	-1.21341	0	
0.2807	-4.87554	1.82867	0	
0.2813	-2.74489	3.96496	0	
0.2820	-0.30712	1.82867	0	
0.2827	1.22848	1.2305	0	
0.2833	0.614241	2.75154	0	
0.2840	-0.614241	0	0	
0.2847	-0.614241	-0.615252	0	
0.2853	-0.902166	3.3668	0	
0.2860	-1.51641	3.3668	0	
0.2867	0	0.307626	0	
0.2873	1.22848	0	0	
0.2880	0.30712	-1.21341	0	
0.2887	0.614241	-2.13629	0	
0.2893	1.84272	1.52104	0	
0.2900	1.84272	3.65733	0	
0.2907	2.74489	1.82867	0	
0.2913	3.05201	1.52104	0	
0.2920	1.84272	1.2305	0	
0.2927	1.5356	-0.615252	0	
0.2933	2.43777	-1.21341	0	
0.2940	2.43777	-3.65733	0	
0.2947	2.13065	-8.23754	0	
0.2953	1.5356	-9.75858	0	
0.2960	-0.614241	-8.23754	0	
0.2967	0	-7.31467	0	
0.2973	0.921361	-7.02413	0	
0.2980	-0.902166	-7.02413	0	
0.2987	-0.614241	-5.486	0	
0.2993	2.43777	-1.21341	0	
0.3000	0.921361	1.52104	0	
0.3007	-3.05201	2.75154	0	
0.3013	-1.82353	6.40888	0	
0.3020	0.921361	7.33176	0	
0.3027	0.921361	2.44392	0	
0.3033	-0.614241	0.922878	0	
0.3040	-0.30712	2.13629	0	
0.3047	0.921361	0	0	
0.3053	0	0	0	
0.3060	-0.902166	3.65733	0	
0.3067	0.30712	2.44392	0	
0.3073	0.614241	-1.21341	0	
0.3080	-1.51641	1.82867	0	
0.3087	-0.902166	4.88784	0	
0.3093	0.921361	3.05917	0	
0.3100	0.614241	2.13629	0	
0.3107	1.5356	1.52104	0	
0.3113	3.35913	-0.905788	0	
0.3120	3.66625	0.307626	0	
0.3127	4.58761	1.82867	0	
0.3133	5.48978	-1.82867	0	
0.3140	3.05201	-3.04208	0	
0.3147	0	0	0	
0.3153	-2.43777	0.307626	0	
0.3160	-5.48978	-0.905788	0	
0.3167	-7.00618	-0.615252	0	
0.3173	-4.87554	-2.75154	0	
0.3180	-2.74489	-3.96496	0	
0.3187	-2.74489	-2.44392	0	
0.3193	-2.74489	-3.04208	0	
0.3200	-2.74489	-2.75154	0	
0.3207	-4.2613	1.52104	0	
0.3213	-4.87554	-0.307626	0	
0.3220	-2.43777	-6.40888	0	
0.3227	-0.30712	-6.40888	0	
0.3233	-1.82353	-4.58021	0	
0.3240	-2.74489	-3.96496	0	
0.3247	-2.13065	3.65733	0	
0.3253	-2.13065	11.2967	0	
0.3260	-1.82353	8.23754	0	
0.3267	-1.51641	4.58021	0	
0.3273	-2.13065	6.7165	0	
0.3280	-1.82353	6.7165	0	
0.3287	0.614241	3.65733	0	
0.3293	0.614241	2.75154	0	
0.3300	0	3.05917	0	
0.3307	0.614241	3.3668	0	
0.3313	0.614241	3.65733	0	
0.3320	0.921361	2.75154	0	
0.3327	2.74489	1.82867	0	
0.3333	2.74489	0.922878	0	
0.3340	1.22848	0	0	
0.3347	1.84272	1.82867	0	
0.3353	1.5356	3.05917	0	
0.3360	-0.902166	0.922878	0	
0.3367	-2.43777	1.2305	0	
0.3373	-2.43777	4.27259	0	
0.3380	-0.902166	3.05917	0	
0.3387	1.5356	1.2305	0	
0.3393	0.614241	1.52104	0	
0.3400	-3.66625	-0.905788	0	
0.3407	-2.74489	-1.82867	0	
0.3413	0	2.13629	0	
0.3420	-0.902166	3.96496	0	
0.3427	-2.13065	1.52104	0	
0.3433	-1.51641	-0.615252	0	
0.3440	-3.35913	-0.905788	0	
0.3447	-3.66625	-1.52104	0	
0.3453	-0.30712	-1.52104	0	
0.3460	0	-0.307626	0	
0.3467	-1.51641	1.52104	0	
0.3473	0.921361	0.922878	0	
0.3480	2.74489	-0.905788	0	
0.3487	3.05201	1.2305	0	
0.3493	5.48978	3.3668	0	
0.3500	6.71826	1.52104	0	
0.3507	6.10402	0	0	
0.3513	6.41114	0.922878	0	
0.3520	6.41114	0.922878	0	
0.3527	4.28049	2.13629	0	
0.3533	2.74489	2.44392	0	
0.3540	2.74489	0	0	
0.3547	1.84272	1.52104	0	
0.3553	1.22848	4.58021	0	
0.3560	1.22848	3.65733	0	
0.3567	0.921361	2.13629	0	
0.3573	0.921361	2.13629	0	
0.3580	1.84272	-0.615252	0	
0.3587	0.614241	-4.27259	0	
0.3593	-2.13065	-7.31467	0	
0.3600	-2.74489	-10.9891	0	
0.3607	-3.35913	-10.3738	0	
0.3613	-5.48978	-6.7165	0	
0.3620	-5.48978	-7.31467	0	
0.3627	-2.43777	-9.16042	0	
0.3633	-1.82353	-4.58021	0	
0.3640	-3.35913	3.3668	0	
0.3647	-4.56842	4.58021	0	
0.3653	-4.2613	-0.307626	0	
0.3660	-2.74489	-3.65733	0	
0.3667	-3.35913	-2.13629	0	
0.3673	-4.56842	0.307626	0	
0.3680	-2.43777	0.922878	0	
0.3687	0.614241	0	0	
0.3693	0.30712	0	0	
0.3700	0	1.82867	0	
0.3707	0.921361	2.75154	0	
0.3713	1.84272	0.922878	0	
0.3720	2.74489	-0.307626	0	
0.3727	2.13065	-1.21341	0	
0.3733	0	-2.75154	0	
0.3740	1.22848	-1.21341	0	
0.3747	0.921361	0.615252	0	
0.3753	-2.13065	0	0	
0.3760	-1.51641	1.82867	0	
0.3767	0.921361	3.3668	0	
0.3773	0	0	0	
0.3780	-0.30712	-4.88784	0	
0.3787	0	-7.92992	0	
0.3793	-1.20929	-10.9891	0	
0.3800	-0.614241	-12.2025	0	
0.3807	0.921361	-10.9891	0	
0.3813	-1.20929	-9.16042	0	
0.3820	-1.82353	-3.96496	0	
0.3827	0.30712	0.922878	0	
0.3833	0.614241	0	0	
0.3840	-0.902166	1.82867	0	
0.3847	-0.30712	8.23754	0	
0.3853	-0.614241	7.92992	0	
0.3860	-0.614241	3.3668	0	
0.3867	1.84272	6.40888	0	
0.3873	0.921361	10.6815	0	
0.3880	-2.13065	7.63938	0	
0.3887	-0.902166	4.27259	0	
0.3893	1.22848	2.44392	0	
0.3900	-0.902166	0.922878	0	
0.3907	0.614241	2.13629	0	
0.3913	5.18266	2.13629	0	
0.3920	4.28049	-0.307626	0	
0.3927	0	1.2305	0	
0.3933	-1.82353	4.88784	0	
0.3940	-0.614241	5.50309	0	
0.3947	0.921361	5.19546	0	
0.3953	0.921361	4.88784	0	
0.3960	-3.66625	1.82867	0	
0.3967	-6.41114	0.615252	0	
0.3973	-5.18266	0.615252	0	
0.3980	-4.2613	-0.905788	0	
0.3987	-5.48978	-1.21341	0	
0.3993	-5.7969	0.615252	0	
0.4000	-5.48978	1.2305	0	
0.4007	-4.87554	-0.905788	0	
0.4013	-5.48978	-2.44392	0	
0.4020	-5.48978	-2.13629	0	
0.4027	-2.74489	-0.905788	0	
0.4033	-1.82353	-1.21341	0	
0.4040	-3.05201	-1.21341	0	
0.4047	-0.30712	1.2305	0	
0.4053	2.74489	0.922878	0	
0.4060	1.22848	-2.75154	0	
0.4067	0	-3.65733	0	
0.4073	1.84272	-2.75154	0	
0.4080	3.05201	-3.96496	0	
0.4087	6.10402	-3.65733	0	
0.4093	6.71826	-1.52104	0	
0.4100	2.74489	-1.82867	0	
0.4107	1.84272	-1.21341	0	
0.4113	2.74489	4.58021	0	
0.4120	0.921361	7.92992	0	
0.4127	1.84272	3.65733	0	
0.4133	3.97337	-0.905788	0	
0.4140	0.921361	-1.52104	0	
0.4147	-1.82353	-2.75154	0	
0.4153	0	-3.34971	0	
0.4160	-0.902166	-1.21341	0	
0.4167	-2.13065	-0.615252	0	
0.4173	1.84272	-3.34971	0	
0.4180	3.66625	-3.96496	0	
0.4187	1.22848	-2.44392	0	
0.4193	0	-3.65733	0	
0.4200	-0.902166	-6.7165	0	
0.4207	-2.43777	-5.486	0	
0.4213	-1.82353	-0.307626	0	
0.4220	-1.20929	0.922878	0	
0.4227	-3.35913	-2.13629	0	
0.4233	-3.05201	-1.52104	0	
0.4240	0	0	0	
0.4247	1.5356	-3.34971	0	
0.4253	1.84272	-4.58021	0	
0.4260	2.13065	-2.44392	0	
0.4267	2.74489	-2.44392	0	
0.4273	3.97337	-3.96496	0	
0.4280	2.74489	-3.34971	0	
0.4287	0	-1.82867	0	
0.4293	0.30712	-2.13629	0	
0.4300	1.84272	-1.82867	0	
0.4307	1.22848	-1.21341	0	
0.4313	0.921361	-0.615252	0	
0.4320	2.43777	2.44392	0	
0.4327	3.66625	3.96496	0	
0.4333	3.66625	2.13629	0	
0.4340	1.84272	0.922878	0	
0.4347	-0.614241	0.922878	0	
0.4353	-1.51641	0	0	
0.4360	-0.30712	1.82867	0	
0.4367	0.921361	2.75154	0	
0.4373	-1.51641	-1.52104	0	
0.4380	-5.7969	-3.96496	0	
0.4387	-6.10402	-0.307626	0	
0.4393	-5.48978	0	0	
0.4400	-7.00618	-3.96496	0	
0.4407	-5.18266	-3.04208	0	
0.4413	-4.2613	1.2305	0	
0.4420	-8.23467	0.615252	0	
0.4427	-7.92755	-1.82867	0	
0.4433	-3.66625	-1.52104	0	
0.4440	-4.56842	-1.82867	0	
0.4447	-5.18266	-1.52104	0	
0.4453	-2.43777	0	0	
0.4460	-2.13065	-1.52104	0	
0.4467	-2.13065	-2.75154	0	
0.4473	-0.902166	0	0	
0.4480	-2.74489	0.615252	0	
0.4487	-4.56842	-4.58021	0	
0.4493	-2.13065	-9.16042	0	
0.4500	0.921361	-9.45096	0	
0.4507	2.74489	-8.23754	0	
0.4513	3.66625	-8.8528	0	
0.4520	1.5356	-9.16042	0	
0.4527	0.30712	-2.75154	0	
0.4533	2.13065	5.50309	0	
0.4540	2.74489	5.50309	0	
0.4547	2.13065	5.50309	0	
0.4553	4.28049	10.9891	0	
0.4560	4.28049	12.2025	0	
0.4567	0.921361	8.23754	0	
0.4573	-0.902166	7.33176	0	
0.4580	-1.51641	6.40888	0	
0.4587	-3.05201	2.75154	0	
0.4593	-3.05201	1.82867	0	
0.4600	-1.82353	2.13629	0	
0.4607	-1.82353	0	0	
0.4613	-2.13065	-1.82867	0	
0.4620	-3.66625	0	0	
0.4627	-5.48978	1.52104	0	
0.4633	-2.13065	0	0	
0.4640	0.614241	-1.52104	0	
0.4647	-2.43777	0.922878	0	
0.4653	-3.05201	3.05917	0	
0.4660	1.84272	0.922878	0	
0.4667	2.74489	-1.52104	0	
0.4673	0	-0.307626	0	
0.4680	1.84272	1.82867	0	
0.4687	5.48978	4.58021	0	
0.4693	4.58761	7.33176	0	
0.4700	3.97337	5.79363	0	
0.4707	4.89473	4.58021	0	
0.4713	3.66625	3.96496	0	
0.4720	2.74489	1.82867	0	
0.4727	4.28049	-0.307626	0	
0.4733	5.48978	-2.13629	0	
0.4740	4.28049	-4.88784	0	
0.4747	3.05201	-5.486	0	
0.4753	2.13065	-3.65733	0	
0.4760	0.614241	-4.58021	0	
0.4767	2.43777	-3.65733	0	
0.4773	6.41114	0.615252	0	
0.4780	5.48978	3.65733	0	
0.4787	0.614241	5.79363	0	
0.4793	-1.51641	5.50309	0	
0.4800	0	2.75154	0	
0.4807	-0.902166	2.75154	0	
0.4813	-2.74489	2.44392	0	
0.4820	-1.82353	-2.75154	0	
0.4827	-1.82353	-3.04208	0	
0.4833	-2.74489	0.615252	0	
0.4840	-0.614241	-0.615252	0	
0.4847	0.614241	-2.13629	0	
0.4853	-0.902166	-1.21341	0	
0.4860	-0.902166	-3.65733	0	
0.4867	0.921361	-5.79363	0	
0.4873	0	-4.58021	0	
0.4880	0.30712	-4.58021	0	
0.4887	0.921361	-4.27259	0	
0.4893	-0.614241	0.307626	0	
0.4900	0.614241	6.40888	0	
0.4907	2.74489	9.16042	0	
0.4913	0	5.50309	0	
0.4920	-0.902166	0.922878	0	
0.4927	2.74489	2.13629	0	
0.4933	1.84272	3.65733	0	
0.4940	-0.902166	-0.615252	0	
0.4947	0.30712	-1.82867	0	
0.4953	0.614241	0	0	
0.4960	-1.82353	-3.04208	0	
0.4967	-2.43777	-4.88784	0	
0.4973	-1.82353	-2.13629	0	
0.4980	-0.614241	-1.21341	0	
0.4987	-1.51641	-2.75154	0	
0.4993	-5.18266	-1.82867	0	
0.5000	-3.66625	0	0	
0.5007	1.84272	0.615252	0	
0.5013	1.84272	2.13629	0	
0.5020	0.921361	3.65733	0	
0.5027	2.74489	1.52104	0	
0.5033	1.84272	-2.13629	0	
0.5040	-0.902166	-2.13629	0	
0.5047	0.30712	-0.905788	0	
0.5053	0.614241	-1.82867	0	
0.5060	-2.74489	-1.21341	0	
0.5067	-3.66625	1.52104	0	
0.5073	-0.902166	0.922878	0	
0.5080	1.22848	-0.905788	0	
0.5087	1.84272	0	0	
0.5093	1.22848	0.307626	0	
0.5100	1.22848	-1.21341	0	
0.5107	2.74489	-1.21341	0	
0.5113	3.05201	-0.905788	0	
0.5120	0.921361	-1.82867	0	
0.5127	-0.902166	-1.52104	0	
0.5133	-0.902166	-1.21341	0	
0.5140	0.30712	-3.65733	0	
0.5147	0.614241	-4.88784	0	
0.5153	-0.614241	-2.75154	0	
0.5160	-0.902166	0.922878	0	
0.5167	-1.20929	-0.307626	0	
0.5173	-2.43777	-4.27259	0	
0.5180	-2.13065	-4.58021	0	
0.5187	-2.13065	-2.75154	0	
0.5193	-3.35913	-3.04208	0	
0.5200	-3.05201	-3.34971	0	
0.5207	-3.66625	-1.21341	0	
0.5213	-6.10402	-1.82867	0	
0.5220	-4.56842	-5.17837	0	
0.5227	-0.614241	-5.486	0	
0.5233	-0.902166	-3.65733	0	
0.5240	-2.74489	-3.65733	0	
0.5247	-3.66625	-4.58021	0	
0.5253	-3.66625	-1.21341	0	
0.5260	-3.05201	4.27259	0	
0.5267	-3.05201	5.19546	0	
0.5273	-3.95418	3.05917	0	
0.5280	-2.74489	6.40888	0	
0.5287	0	11.2967	0	
0.5293	0.921361	8.23754	0	
0.5300	1.22848	1.82867	0	
0.5307	1.84272	-0.307626	0	
0.5313	1.5356	0.307626	0	
0.5320	1.84272	0.307626	0	
0.5327	2.74489	0	0	
0.5333	3.05201	1.82867	0	
0.5340	3.66625	2.75154	0	
0.5347	3.66625	0	0	
0.5353	2.74489	-0.905788	0	
0.5360	2.74489	3.65733	0	
0.5367	3.05201	6.10125	0	
0.5373	3.35913	3.96496	0	
0.5380	2.74489	3.65733	0	
0.5387	2.74489	2.13629	0	
0.5393	1.22848	-1.21341	0	
0.5400	0	-0.307626	0	
0.5407	2.43777	1.2305	0	
0.5413	3.05201	-1.82867	0	
0.5420	-0.902166	-1.52104	0	
0.5427	-3.05201	2.75154	0	
0.5433	-0.30712	3.3668	0	
0.5440	-1.82353	0.922878	0	
0.5447	-5.48978	0.615252	0	
0.5453	-3.95418	-0.307626	0	
0.5460	-1.82353	-1.21341	0	
0.5467	-1.82353	0.922878	0	
0.5473	-0.614241	2.75154	0	
0.5480	-0.902166	1.2305	0	
0.5487	-3.35913	-0.905788	0	
0.5493	-1.20929	-0.615252	0	
0.5500	2.13065	0.922878	0	
0.5507	1.84272	0.615252	0	
0.5513	2.13065	-0.615252	0	
0.5520	3.97337	0.922878	0	
0.5527	3.66625	2.75154	0	
0.5533	3.35913	1.82867	0	
0.5540	3.97337	-0.307626	0	
0.5547	1.84272	0.615252	0	
0.5553	-0.614241	1.2305	0	
0.5560	0.614241	-2.75154	0	
0.5567	1.84272	-6.40888	0	
0.5573	-0.902166	-6.10125	0	
0.5580	-4.2613	-3.65733	0	
0.5587	-3.95418	-3.65733	0	
0.5593	-2.43777	-5.79363	0	
0.5600	-2.74489	-6.10125	0	
0.5607	-2.74489	0.615252	0	
0.5613	-1.82353	9.77568	0	
0.5620	-2.43777	11.912	0	
0.5627	-2.74489	7.33176	0	
0.5633	0	5.50309	0	
0.5640	1.84272	5.50309	0	
0.5647	0	3.3668	0	
0.5653	-0.614241	2.13629	0	
0.5660	1.22848	5.19546	0	
0.5667	-1.20929	5.79363	0	
0.5673	-3.66625	3.05917	0	
0.5680	-0.30712	2.75154	0	
0.5687	2.13065	5.19546	0	
0.5693	-1.20929	4.58021	0	
0.5700	-1.51641	1.82867	0	
0.5707	2.74489	0.922878	0	
0.5713	3.66625	2.13629	0	
0.5720	1.84272	2.75154	0	
0.5727	1.84272	2.44392	0	
0.5733	0.921361	1.82867	0	
0.5740	-3.66625	0.922878	0	
0.5747	-4.87554	0	0	
0.5753	-2.13065	1.2305	0	
0.5760	-0.902166	1.82867	0	
0.5767	-2.13065	0.922878	0	
0.5773	-3.05201	0.922878	0	
0.5780	-3.05201	0	0	
0.5787	-2.13065	-3.04208	0	
0.5793	-0.614241	-2.44392	0	
0.5800	-1.20929	-0.615252	0	
0.5807	-3.05201	-4.27259	0	
0.5813	-3.66625	-6.40888	0	
0.5820	-3.05201	-4.27259	0	
0.5827	-3.35913	-4.88784	0	
0.5833	-3.05201	-5.79363	0	
0.5840	-3.35913	-2.75154	0	
0.5847	-3.66625	-1.52104	0	
0.5853	-2.74489	-1.21341	0	
0.5860	-0.902166	3.05917	0	
0.5867	0.30712	6.7165	0	
0.5873	1.5356	6.10125	0	
0.5880	2.43777	4.88784	0	
0.5887	3.66625	4.58021	0	
0.5893	6.41114	3.65733	0	
0.5900	6.41114	4.27259	0	
0.5907	2.74489	6.40888	0	
0.5913	-0.902166	3.65733	0	
0.5920	-1.51641	-3.34971	0	
0.5927	0	-8.23754	0	
0.5933	2.13065	-8.54517	0	
0.5940	2.13065	-6.7165	0	
0.5947	0.30712	-3.65733	0	
0.5953	-0.30712	-3.65733	0	
0.5960	0.614241	-6.10125	0	
0.5967	0.614241	-4.88784	0	
0.5973	0	-1.82867	0	
0.5980	-1.51641	-5.17837	0	
0.5987	-3.66625	-9.16042	0	
0.5993	-3.95418	-7.31467	0	
0.6000	-2.13065	-7.62229	0	
0.6007	-1.20929	-9.16042	0	
0.6013	-1.82353	-8.23754	0	
0.6020	-1.82353	-6.40888	0	
0.6027	-2.13065	-3.65733	0	
0.6033	-2.74489	1.82867	0	
0.6040	-1.51641	2.75154	0	
0.6047	0	1.82867	0	
0.6053	0	3.3668	0	
0.6060	1.84272	3.05917	0	
0.6067	3.66625	1.2305	0	
0.6073	1.5356	0.307626	0	
0.6080	-0.902166	-1.82867	0	
0.6087	0	-1.52104	0	
0.6093	1.84272	1.52104	0	
0.6100	3.35913	1.82867	0	
0.6107	4.58761	0.307626	0	
0.6113	3.97337	0	0	
0.6120	3.35913	-1.21341	0	
0.6127	3.66625	-2.13629	0	
0.6133	2.43777	-1.52104	0	
0.6140	2.43777	-1.82867	0	
0.6147	4.58761	-0.905788	0	
0.6153	4.89473	0.922878	0	
0.6160	3.35913	0	0	
0.6167	2.43777	-2.13629	0	
0.6173	1.22848	-3.04208	0	
0.6180	1.22848	-2.13629	0	
0.6187	2.43777	0.307626	0	
0.6193	0.30712	-0.307626	0	
0.6200	-2.43777	-3.65733	0	
0.6207	-2.13065	-3.65733	0	
0.6213	-2.74489	-1.52104	0	
0.6220	-7.00618	-3.04208	0	
0.6227	-9.46315	-3.65733	0	
0.6233	-6.41114	-3.65733	0	
0.6240	-4.56842	-6.40888	0	
0.6247	-6.41114	-7.31467	0	
0.6253	-6.41114	-3.65733	0	
0.6260	-3.35913	-1.82867	0	
0.6267	-1.82353	-0.615252	0	
0.6273	-1.82353	0.615252	0	
0.6280	-0.614241	0	0	
0.6287	0.921361	0	0	
0.6293	-0.30712	-0.307626	0	
0.6300	-1.82353	0.307626	0	
0.6307	-0.30712	2.13629	0	
0.6313	2.43777	2.44392	0	
0.6320	2.43777	0.307626	0	
0.6327	1.84272	-1.52104	0	
0.6333	2.74489	-2.44392	0	
0.6340	3.05201	-2.75154	0	
0.6347	0.921361	-3.04208	0	
0.6353	0.921361	-4.88784	0	
0.6360	0.921361	-4.58021	0	
0.6367	-0.614241	-1.52104	0	
0.6373	-0.902166	-1.82867	0	
0.6380	0	-3.96496	0	
0.6387	-1.82353	-3.04208	0	
0.6393	-4.2613	1.82867	0	
0.6400	-3.05201	5.50309	0	
0.6407	-1.82353	4.88784	0	
0.6413	-1.51641	0.922878	0	
0.6420	-0.902166	-0.905788	0	
0.6427	-2.13065	0	0	
0.6433	-4.2613	-0.615252	0	
0.6440	-2.74489	-0.615252	0	
0.6447	-1.20929	0.615252	0	
0.6453	-3.35913	-0.905788	0	
0.6460	-4.87554	-2.13629	0	
0.6467	-3.95418	0.922878	0	
0.6473	-2.74489	3.05917	0	
0.6480	0.30712	2.75154	0	
0.6487	4.58761	0.307626	0	
0.6493	2.74489	-2.75154	0	
0.6500	-0.614241	-2.13629	0	
0.6507	2.13065	1.82867	0	
0.6513	5.48978	2.44392	0	
0.6520	3.35913	2.13629	0	
0.6527	2.74489	3.05917	0	
0.6533	5.48978	1.82867	0	
0.6540	3.97337	1.82867	0	
0.6547	1.22848	3.65733	0	
0.6553	2.74489	1.82867	0	
0.6560	3.97337	2.13629	0	
0.6567	2.74489	4.27259	0	
0.6573	1.84272	0.307626	0	
0.6580	1.84272	-2.44392	0	
0.6587	-1.20929	0	0	
0.6593	-4.56842	-2.75154	0	
0.6600	-4.56842	-5.486	0	
0.6607	-1.82353	-2.44392	0	
0.6613	-2.13065	-1.82867	0	
0.6620	-5.48978	-0.905788	0	
0.6627	-5.48978	5.79363	0	
0.6633	-2.13065	6.40888	0	
0.6640	-2.13065	1.52104	0	
0.6647	-3.66625	1.82867	0	
0.6653	-1.20929	2.75154	0	
0.6660	0.30712	0.922878	0	
0.6667	-0.902166	1.82867	0	
0.6673	-0.902166	0.922878	0	
0.6680	0	-0.905788	0	
0.6687	0.30712	0.615252	0	
0.6693	3.35913	2.44392	0	
0.6700	6.41114	2.44392	0	
0.6707	6.41114	3.3668	0	
0.6713	6.71826	2.75154	0	
0.6720	7.02538	0.922878	0	
0.6727	4.58761	1.52104	0	
0.6733	2.74489	1.2305	0	
0.6740	2.74489	-1.21341	0	
0.6747	0.921361	-0.615252	0	
0.6753	-0.30712	2.44392	0	
0.6760	1.84272	-0.307626	0	
0.6767	5.18266	-6.40888	0	
0.6773	5.48978	-7.92992	0	
0.6780	3.66625	-5.79363	0	
0.6787	1.22848	-8.23754	0	
0.6793	0	-10.9891	0	
0.6800	-0.614241	-8.23754	0	
0.6807	-0.902166	-6.40888	0	
0.6813	-2.13065	-8.54517	0	
0.6820	-3.66625	-5.486	0	
0.6827	-3.05201	3.3668	0	
0.6833	-0.614241	7.33176	0	
0.6840	0.614241	4.58021	0	
0.6847	-0.30712	3.96496	0	
0.6853	-0.902166	7.33176	0	
0.6860	0	9.77568	0	
0.6867	0.921361	10.6815	0	
0.6873	1.5356	10.0662	0	
0.6880	2.13065	6.40888	0	
0.6887	2.74489	3.65733	0	
0.6893	2.13065	2.75154	0	
0.6900	-1.20929	2.44392	0	
0.6907	-3.05201	1.2305	0	
0.6913	-1.51641	1.52104	0	
0.6920	0	0.922878	0	
0.6927	0	0	0	
0.6933	0.614241	0.922878	0	
0.6940	1.84272	0.615252	0	
0.6947	2.74489	-1.52104	0	
0.6953	3.35913	-1.82867	0	
0.6960	3.35913	-1.21341	0	
0.6967	3.66625	-3.04208	0	
0.6973	3.97337	-3.65733	0	
0.6980	2.74489	-2.75154	0	
0.6987	1.5356	-3.65733	0	
0.6993	0.921361	-4.88784	0	
0.7000	0	-3.65733	0	
0.7007	-2.74489	-4.58021	0	
0.7013	-3.05201	-6.7165	0	
0.7020	-0.614241	-3.96496	0	
0.7027	1.84272	-1.82867	0	
0.7033	1.22848	-3.65733	0	
0.7040	0	-3.34971	0	
0.7047	-0.30712	-0.615252	0	
0.7053	-1.82353	0.307626	0	
0.7060	-2.43777	1.82867	0	
0.7067	-0.902166	3.3668	0	
0.7073	0.614241	0.922878	0	
0.7080	0.614241	0	0	
0.7087	1.84272	2.75154	0	
0.7093	3.66625	1.52104	0	
0.7100	3.66625	-0.307626	0	
0.7107	2.13065	1.2305	0	
0.7113	0.921361	3.3668	0	
0.7120	0.614241	3.3668	0	
0.7127	1.5356	1.2305	0	
0.7133	1.84272	-3.04208	0	
0.7140	0.614241	-3.96496	0	
0.7147	-0.614241	-0.905788	0	
0.7153	1.84272	-0.615252	0	
0.7160	2.13065	-3.34971	0	
0.7167	-1.51641	-3.34971	0	
0.7173	-2.74489	-0.905788	0	
0.7180	-2.13065	-0.615252	0	
0.7187	-3.66625	-2.44392	0	
0.7193	-4.56842	-1.82867	0	
0.7200	-3.95418	2.13629	0	
0.7207	-5.18266	3.65733	0	
0.7213	-6.10402	1.52104	0	
0.7220	-3.66625	1.2305	0	
0.7227	-2.74489	3.05917	0	
0.7233	-3.66625	2.13629	0	
0.7240	-2.43777	1.2305	0	
0.7247	-0.614241	2.75154	0	
0.7253	-0.902166	2.75154	0	
0.7260	-0.902166	0.922878	0	
0.7267	0	0.922878	0	
0.7273	-1.82353	-2.13629	0	
0.7280	-4.2613	-9.16042	0	
0.7287	-3.66625	-11.8949	0	
0.7293	-3.05201	-6.40888	0	
0.7300	-3.95418	-1.52104	0	
0.7307	-2.74489	-0.307626	0	
0.7313	-0.902166	0	0	
0.7320	-1.82353	-0.307626	0	
0.7327	-2.43777	-0.307626	0	
0.7333	-1.51641	1.52104	0	
0.7340	-0.902166	2.75154	0	
0.7347	0	2.13629	0	
0.7353	0.614241	0.922878	0	
0.7360	1.22848	0.307626	0	
0.7367	1.84272	-0.905788	0	
0.7373	-0.30712	-2.44392	0	
0.7380	-3.35913	-2.44392	0	
0.7387	-2.74489	-1.52104	0	
0.7393	0	-0.307626	0	
0.7400	0.30712	-0.307626	0	
0.7407	0.921361	-0.615252	0	
0.7413	1.84272	-0.615252	0	
0.7420	-1.20929	0	0	
0.7427	-5.48978	-0.307626	0	
0.7433	-3.66625	-2.44392	0	
0.7440	0.30712	-3.96496	0	
0.7447	-0.902166	-3.65733	0	
0.7453	-1.20929	-3.65733	0	
0.7460	2.13065	-3.65733	0	
0.7467	3.05201	-3.04208	0	
0.7473	1.84272	-0.905788	0	
0.7480	2.13065	0.307626	0	
0.7487	2.74489	-0.615252	0	
0.7493	2.74489	-0.905788	0	
0.7500	3.35913	0	0	
0.7507	3.66625	0	0	
0.7513	2.13065	-1.52104	0	
0.7520	0.921361	-2.75154	0	
0.7527	0	-4.58021	0	
0.7533	-0.614241	-6.7165	0	
0.7540	0.30712	-4.58021	0	
0.7547	0.614241	-0.615252	0	
0.7553	-0.614241	-0.905788	0	
0.7560	0.921361	-2.75154	0	
0.7567	2.74489	0.922878	0	
0.7573	1.84272	3.65733	0	
0.7580	1.22848	1.52104	0	
0.7587	1.84272	0.307626	0	
0.7593	0.614241	2.13629	0	
0.7600	0	1.2305	0	
0.7607	1.5356	-0.615252	0	
0.7613	-0.30712	-0.307626	0	
0.7620	-2.43777	0	0	
0.7627	-1.82353	-0.905788	0	
0.7633	-2.13065	0.307626	0	
0.7640	-3.35913	1.52104	0	
0.7647	-1.82353	0.922878	0	
0.7653	-0.902166	0.615252	0	
0.7660	-1.82353	0.307626	0	
0.7667	-2.43777	0	0	
0.7673	-0.614241	0.307626	0	
0.7680	1.5356	1.82867	0	
0.7687	0	3.3668	0	
0.7693	-1.51641	2.75154	0	
0.7700	0	1.2305	0	
0.7707	1.5356	2.13629	0	
0.7713	1.84272	2.75154	0	
0.7720	5.48978	0.922878	0	
0.7727	7.63962	2.75154	0	
0.7733	3.66625	6.40888	0	
0.7740	0.921361	1.82867	0	
0.7747	1.5356	-4.27259	0	
0.7753	-0.30712	-2.75154	0	
0.7760	-2.74489	-0.905788	0	
0.7767	-1.82353	-2.13629	0	
0.7773	-0.30712	-2.75154	0	
0.7780	-0.614241	-3.65733	0	
0.7787	-1.82353	-2.75154	0	
0.7793	-2.13065	1.82867	0	
0.7800	-0.614241	3.65733	0	
0.7807	-1.82353	4.58021	0	
0.7813	-4.87554	7.33176	0	
0.7820	-3.66625	6.40888	0	
0.7827	-1.20929	2.13629	0	
0.7833	-0.902166	3.65733	0	
0.7840	0.921361	6.7165	0	
0.7847	2.74489	7.33176	0	
0.7853	-0.30712	6.40888	0	
0.7860	-2.13065	4.58021	0	
0.7867	-0.902166	1.52104	0	
0.7873	-1.20929	0.922878	0	
0.7880	-1.82353	1.82867	0	
0.7887	-0.902166	1.82867	0	
0.7893	-1.51641	2.13629	0	
0.7900	-2.13065	3.65733	0	
0.7907	-0.614241	5.50309	0	
0.7913	-0.30712	3.65733	0	
0.7920	-2.13065	0.307626	0	
0.7927	-0.902166	0.615252	0	
0.7933	2.74489	2.75154	0	
0.7940	2.74489	1.82867	0	
0.7947	0	0.615252	0	
0.7953	0	1.2305	0	
0.7960	0.30712	1.2305	0	
0.7967	-2.74489	-0.905788	0	
0.7973	-2.74489	-2.75154	0	
0.7980	-1.20929	-3.34971	0	
0.7987	-3.66625	-2.44392	0	
0.7993	-3.95418	-2.13629	0	
0.8000	-0.902166	-3.34971	0	
0.8007	-2.13065	-3.65733	0	
0.8013	-4.2613	-3.65733	0	
0.8020	-2.13065	-4.58021	0	
0.8027	-3.66625	-4.58021	0	
0.8033	-6.41114	-3.65733	0	
0.8040	-2.74489	-2.75154	0	
0.8047	0.614241	-2.75154	0	
0.8053	0.921361	-3.65733	0	
0.8060	2.74489	-3.34971	0	
0.8067	2.74489	-2.44392	0	
0.8073	-0.30712	-1.21341	0	
0.8080	-0.902166	-0.905788	0	
0.8087	2.13065	-0.905788	0	
0.8093	4.58761	-1.82867	0	
0.8100	4.58761	-1.82867	0	
0.8107	1.5356	-1.21341	0	
0.8113	0.921361	-1.82867	0	
0.8120	3.97337	-1.82867	0	
0.8127	3.05201	-2.13629	0	
0.8133	0	-1.52104	0	
0.8140	1.84272	-0.905788	0	
0.8147	3.66625	-1.82867	0	
0.8153	0.921361	-2.75154	0	
0.8160	-0.30712	-0.905788	0	
0.8167	0	2.75154	0	
0.8173	-1.82353	3.65733	0	
0.8180	-0.614241	1.82867	0	
0.8187	1.22848	-1.52104	0	
0.8193	-0.30712	-3.34971	0	
0.8200	-1.20929	-3.04208	0	
0.8207	0.30712	-2.44392	0	
0.8213	0	-3.04208	0	
0.8220	-0.902166	-2.44392	0	
0.8227	-1.82353	0	0	
0.8233	-3.66625	0.307626	0	
0.8240	-3.35913	-1.82867	0	
0.8247	0.614241	-3.65733	0	
0.8253	1.84272	-7.31467	0	
0.8260	-0.902166	-11.8949	0	
0.8267	-3.66625	-10.9891	0	
0.8273	-3.05201	-6.10125	0	
0.8280	-0.30712	-4.58021	0	
0.8287	-0.614241	-2.75154	0	
0.8293	-2.74489	3.3668	0	
0.8300	-1.20929	5.50309	0	
0.8307	-0.30712	4.88784	0	
0.8313	-1.20929	7.33176	0	
0.8320	1.5356	8.54517	0	
0.8327	3.66625	7.33176	0	
0.8333	0.921361	5.79363	0	
0.8340	-1.82353	2.75154	0	
0.8347	-1.20929	-1.82867	0	
0.8353	-1.20929	-3.04208	0	
0.8360	-0.614241	-3.65733	0	
0.8367	1.5356	-4.88784	0	
0.8373	2.74489	-0.905788	0	
0.8380	2.13065	4.58021	0	
0.8387	0.921361	3.65733	0	
0.8393	0.921361	-0.905788	0	
0.8400	2.74489	-2.75154	0	
0.8407	2.13065	-2.44392	0	
0.8413	-0.902166	-2.13629	0	
0.8420	-3.35913	-1.82867	0	
0.8427	-3.35913	-0.905788	0	
0.8433	-2.13065	0.307626	0	
0.8440	-2.43777	1.82867	0	
0.8447	-2.74489	1.82867	0	
0.8453	-1.20929	-1.21341	0	
0.8460	0	-3.65733	0	
0.8467	-2.13065	-0.905788	0	
0.8473	-1.82353	4.58021	0	
0.8480	0.921361	6.40888	0	
0.8487	1.84272	5.19546	0	
0.8493	1.22848	3.96496	0	
0.8500	0.921361	2.75154	0	
0.8507	1.84272	1.82867	0	
0.8513	3.97337	2.75154	0	
0.8520	4.58761	5.50309	0	
0.8527	3.66625	4.58021	0	
0.8533	3.66625	-2.44392	0	
0.8540	1.5356	-5.486	0	
0.8547	-1.20929	0.615252	0	
0.8553	1.5356	5.50309	0	
0.8560	2.13065	3.05917	0	
0.8567	-3.66625	0.615252	0	
0.8573	-4.87554	-1.52104	0	
0.8580	-1.20929	-3.65733	0	
0.8587	-1.20929	-3.04208	0	
0.8593	-3.05201	-3.04208	0	
0.8600	-3.66625	-4.88784	0	
0.8607	-3.05201	-4.58021	0	
0.8613	-1.51641	-3.34971	0	
0.8620	-0.614241	-3.96496	0	
0.8627	-1.51641	-4.88784	0	
0.8633	-2.13065	-2.13629	0	
0.8640	-3.95418	2.75154	0	
0.8647	-5.7969	6.10125	0	
0.8653	-4.56842	6.10125	0	
0.8660	-2.74489	3.65733	0	
0.8667	-2.43777	3.05917	0	
0.8673	-0.30712	3.65733	0	
0.8680	0.614241	1.2305	0	
0.8687	0	-3.65733	0	
0.8693	1.22848	-9.16042	0	
0.8700	2.43777	-11.5873	0	
0.8707	1.84272	-6.7165	0	
0.8713	2.74489	-1.82867	0	
0.8720	3.05201	-2.75154	0	
0.8727	2.43777	-3.65733	0	
0.8733	1.84272	-1.52104	0	
0.8740	2.43777	-2.75154	0	
0.8747	3.97337	-3.65733	0	
0.8753	3.35913	-1.21341	0	
0.8760	0	-2.13629	0	
0.8767	-0.30712	-4.58021	0	
0.8773	2.43777	-2.75154	0	
0.8780	3.05201	-2.13629	0	
0.8787	2.13065	-5.486	0	
0.8793	1.22848	-3.96496	0	
0.8800	0.921361	0	0	
0.8807	0.921361	-1.82867	0	
0.8813	0	-3.96496	0	
0.8820	-0.902166	-2.75154	0	
0.8827	-1.20929	-2.13629	0	
0.8833	-1.51641	-1.82867	0	
0.8840	0	0	0	
0.8847	1.22848	-0.307626	0	
0.8853	-0.614241	-1.82867	0	
0.8860	-2.74489	0.922878	0	
0.8867	-1.20929	4.27259	0	
0.8873	-0.614241	2.75154	0	
0.8880	-0.614241	0	0	
0.8887	0	0.307626	0	
0.8893	-0.614241	0.922878	0	
0.8900	-0.902166	-1.82867	0	
0.8907	0	-4.27259	0	
0.8913	-2.13065	-3.04208	0	
0.8920	-3.35913	-0.905788	0	
0.8927	-1.51641	0	0	
0.8933	-1.51641	2.44392	0	
0.8940	-3.95418	3.3668	0	
0.8947	-4.56842	0.922878	0	
0.8953	-3.05201	0.922878	0	
0.8960	-0.902166	4.58021	0	
0.8967	-0.902166	6.10125	0	
0.8973	-2.74489	3.65733	0	
0.8980	-2.43777	2.75154	0	
0.8987	-0.614241	4.27259	0	
0.8993	-1.82353	3.3668	0	
0.9000	-3.35913	0	0	
0.9007	-1.82353	-0.905788	0	
0.9013	-1.82353	0	0	
0.9020	-3.35913	-2.44392	0	
0.9027	-3.05201	-4.27259	0	
0.9033	-2.74489	-2.44392	0	
0.9040	-3.66625	-1.21341	0	
0.9047	-3.35913	-1.82867	0	
0.9053	-3.05201	0.922878	0	
0.9060	-3.66625	3.3668	0	
0.9067	-3.66625	2.44392	0	
0.9073	-0.902166	3.65733	0	
0.9080	2.43777	4.58021	0	
0.9087	4.28049	1.2305	0	
0.9093	4.58761	0	0	
0.9100	4.89473	2.13629	0	
0.9107	5.7969	1.2305	0	
0.9113	5.48978	0.922878	0	
0.9120	4.89473	7.33176	0	
0.9127	6.71826	12.5101	0	
0.9133	6.71826	10.0662	0	
0.9140	4.58761	7.33176	0	
0.9147	3.97337	7.33176	0	
0.9153	3.66625	7.63938	0	
0.9160	0.614241	6.40888	0	
0.9167	0.614241	4.58021	0	
0.9173	3.66625	3.05917	0	
0.9180	2.43777	1.52104	0	
0.9187	-0.30712	0	0	
0.9193	1.84272	0	0	
0.9200	2.74489	0.922878	0	
0.9207	0	0.922878	0	
0.9213	-0.30712	-0.615252	0	
0.9220	0.30712	-0.615252	0	
0.9227	-3.05201	1.82867	0	
0.9233	-4.56842	2.13629	0	
0.9240	-1.82353	0.922878	0	
0.9247	-1.20929	0.922878	0	
0.9253	-2.74489	1.2305	0	
0.9260	-1.20929	0.615252	0	
0.9267	0.30712	0.922878	0	
0.9273	-0.902166	2.75154	0	
0.9280	-1.20929	3.05917	0	
0.9287	-0.614241	1.52104	0	
0.9293	-0.30712	0	0	
0.9300	-0.614241	0.307626	0	
0.9307	-1.51641	2.13629	0	
0.9313	-2.74489	1.82867	0	
0.9320	-2.13065	0.922878	0	
0.9327	-1.82353	1.52104	0	
0.9333	-2.74489	1.52104	0	
0.9340	-2.74489	0.922878	0	
0.9347	-0.902166	1.2305	0	
0.9353	-0.902166	0	0	
0.9360	-2.13065	-3.34971	0	
0.9367	-3.35913	-3.65733	0	
0.9373	-5.48978	-2.75154	0	
0.9380	-5.18266	-3.65733	0	
0.9387	-2.13065	-2.44392	0	
0.9393	-0.902166	-0.905788	0	
0.9400	-2.13065	-3.65733	0	
0.9407	-2.74489	-5.486	0	
0.9413	-1.82353	-3.04208	0	
0.9420	-1.20929	-2.44392	0	
0.9427	-1.20929	-2.75154	0	
0.9433	-1.82353	-0.307626	0	
0.9440	-3.05201	0	0	
0.9447	-2.43777	-3.65733	0	
0.9453	0.921361	-4.88784	0	
0.9460	2.74489	-3.04208	0	
0.9467	2.13065	-2.75154	0	
0.9473	1.22848	-3.96496	0	
0.9480	-0.30712	-4.58021	0	
0.9487	-1.82353	-3.65733	0	
0.9493	0.30712	-1.82867	0	
0.9500	2.74489	0	0	
0.9507	2.74489	0.615252	0	
0.9513	3.05201	0	0	
0.9520	4.28049	-1.21341	0	
0.9527	2.13065	-2.44392	0	
0.9533	0.921361	-2.44392	0	
0.9540	2.74489	-0.615252	0	
0.9547	0.614241	1.82867	0	
0.9553	-1.51641	2.75154	0	
0.9560	0.921361	1.52104	0	
0.9567	1.84272	-1.52104	0	
0.9573	-0.902166	-4.27259	0	
0.9580	-0.902166	-3.65733	0	
0.9587	-0.902166	-1.82867	0	
0.9593	-3.05201	-2.13629	0	
0.9600	-2.13065	-3.65733	0	
0.9607	-1.51641	-2.44392	0	
0.9613	-2.43777	-0.615252	0	
0.9620	-0.30712	-1.82867	0	
0.9627	0.30712	-0.905788	0	
0.9633	-2.74489	2.75154	0	
0.9640	-0.902166	2.75154	0	
0.9647	1.5356	-0.615252	0	
0.9653	-2.13065	-0.615252	0	
0.9660	-3.05201	0	0	
0.9667	1.22848	-3.65733	0	
0.9673	0	-6.7165	0	
0.9680	-3.05201	-7.02413	0	
0.9687	0.30712	-7.31467	0	
0.9693	3.66625	-6.40888	0	
0.9700	3.35913	-4.27259	0	
0.9707	2.74489	-3.65733	0	
0.9713	1.84272	-0.615252	0	
0.9720	0.614241	3.96496	0	
0.9727	0.921361	3.65733	0	
0.9733	1.84272	2.75154	0	
0.9740	1.22848	6.40888	0	
0.9747	-0.30712	7.92992	0	
0.9753	0	5.50309	0	
0.9760	3.66625	2.75154	0	
0.9767	5.18266	-0.615252	0	
0.9773	3.97337	-4.27259	0	
0.9780	3.05201	-6.40888	0	
0.9787	1.22848	-7.92992	0	
0.9793	-2.43777	-7.31467	0	
0.9800	-4.56842	-3.96496	0	
0.9807	-4.56842	-3.96496	0	
0.9813	-3.05201	-3.65733	0	
0.9820	-1.20929	4.27259	0	
0.9827	-1.82353	10.9891	0	
0.9833	-3.35913	8.54517	0	
0.9840	-2.13065	3.65733	0	
0.9847	0.921361	0.307626	0	
0.9853	3.66625	-1.52104	0	
0.9860	4.58761	-2.44392	0	
0.9867	3.35913	-3.65733	0	
0.9873	3.66625	-4.58021	0	
0.9880	6.41114	-3.96496	0	
0.9887	6.41114	-3.65733	0	
0.9893	4.58761	-1.82867	0	
0.9900	3.66625	0.307626	0	
0.9907	3.66625	-1.21341	0	
0.9913	3.35913	-4.58021	0	
0.9920	1.84272	-3.65733	0	
0.9927	0	-0.615252	0	
0.9933	0	0.922878	0	
0.9940	1.84272	0	0	
0.9947	2.74489	-2.13629	0	
0.9953	2.13065	-3.04208	0	
0.9960	-2.43777	-1.52104	0	
0.9967	-7.92755	-0.905788	0	
0.9973	-9.15603	-3.65733	0	
0.9980	-8.23467	-5.79363	0	
0.9987	-7.92755	-2.75154	0	
0.9993	-6.71826	0	0	
1.0000	-5.7969	-2.75154	0	
1.0007	-5.7969	-3.96496	0	
1.0013	-4.56842	-2.75154	0	
1.0020	-2.74489	-3.04208	0	
1.0027	-2.74489	-4.58021	0	
1.0033	-1.82353	-5.17837	0	
1.0040	1.84272	-4.27259	0	
1.0047	3.05201	-2.13629	0	
1.0053	2.13065	-1.21341	0	
1.0060	2.74489	-3.65733	0	
1.0067	3.66625	-4.58021	0	
1.0073	2.43777	-3.96496	0	
1.0080	2.13065	-4.58021	0	
1.0087	3.66625	-3.65733	0	
1.0093	4.89473	-0.615252	0	
1.0100	5.48978	-0.905788	0	
1.0107	5.7969	-1.82867	0	
1.0113	3.66625	0	0	
1.0120	1.84272	1.52104	0	
1.0127	2.13065	0.307626	0	
1.0133	1.84272	-0.905788	0	
1.0140	2.74489	-1.52104	0	
1.0147	5.18266	-2.44392	0	
1.0153	3.97337	-2.75154	0	
1.0160	-1.20929	-2.44392	0	
1.0167	-1.82353	-0.307626	0	
1.0173	0.921361	1.82867	0	
1.0180	0	2.13629	0	
1.0187	-3.05201	-0.615252	0	
1.0193	-2.74489	-2.75154	0	
1.0200	-1.82353	-2.75154	0	
1.0207	-2.74489	-2.13629	0	
1.0213	-4.2613	-2.13629	0	
1.0220	-5.48978	-0.905788	0	
1.0227	-4.56842	0.922878	0	
1.0233	-0.614241	1.2305	0	
1.0240	0	1.2305	0	
1.0247	-3.05201	1.82867	0	
1.0253	-2.74489	1.82867	0	
1.0260	0.921361	0	0	
1.0267	0.921361	-0.905788	0	
1.0273	-0.902166	3.05917	0	
1.0280	-0.30712	8.23754	0	
1.0287	0.921361	9.46805	0	
1.0293	2.13065	7.92992	0	
1.0300	3.35913	7.92992	0	
1.0307	2.74489	9.16042	0	
1.0313	0.921361	7.63938	0	
1.0320	0.614241	3.05917	0	
1.0327	1.22848	0	0	
1.0333	1.5356	-0.307626	0	
1.0340	-0.30712	-2.75154	0	
1.0347	-3.05201	-6.40888	0	
1.0353	-1.51641	-6.40888	0	
1.0360	0.921361	-4.88784	0	
1.0367	-0.902166	-4.58021	0	
1.0373	-0.902166	-2.75154	0	
1.0380	2.74489	-2.44392	0	
1.0387	0	-5.17837	0	
1.0393	-5.18266	-5.17837	0	
1.0400	-4.56842	-3.65733	0	
1.0407	-2.13065	-7.31467	0	
1.0413	-2.74489	-8.54517	0	
1.0420	-2.43777	-5.486	0	
1.0427	-1.82353	-2.75154	0	
1.0433	-1.51641	3.05917	0	
1.0440	1.22848	8.23754	0	
1.0447	0.921361	4.88784	0	
1.0453	-2.13065	0.922878	0	
1.0460	-3.05201	6.40888	0	
1.0467	-3.66625	11.2967	0	
1.0473	-4.56842	9.16042	0	
1.0480	0	9.16042	0	
1.0487	3.05201	10.9891	0	
1.0493	0.30712	7.63938	0	
1.0500	0.921361	5.19546	0	
1.0507	5.48978	7.92992	0	
1.0513	4.89473	7.92992	0	
1.0520	2.13065	4.88784	0	
1.0527	2.13065	5.79363	0	
1.0533	1.5356	5.50309	0	
1.0540	0.921361	1.82867	0	
1.0547	1.84272	0.922878	0	
1.0553	0	1.82867	0	
1.0560	-2.13065	0	0	
1.0567	-0.614241	-0.905788	0	
1.0573	0	-0.905788	0	
1.0580	-1.82353	-2.13629	0	
1.0587	-2.13065	-2.13629	0	
1.0593	-3.66625	-0.905788	0	
1.0600	-5.7969	-1.82867	0	
1.0607	-6.10402	-3.04208	0	
1.0613	-4.87554	-3.65733	0	
1.0620	-3.66625	-5.486	0	
1.0627	-2.74489	-7.31467	0	
1.0633	-4.56842	-5.79363	0	
1.0640	-3.66625	-1.21341	0	
1.0647	2.43777	1.2305	0	
1.0653	3.97337	-0.905788	0	
1.0660	0.921361	-2.44392	0	
1.0667	0.921361	-1.82867	0	
1.0673	2.74489	-0.905788	0	
1.0680	2.43777	2.44392	0	
1.0687	1.22848	6.40888	0	
1.0693	1.84272	7.63938	0	
1.0700	3.05201	7.02413	0	
1.0707	4.58761	5.79363	0	
1.0713	5.18266	2.75154	0	
1.0720	4.58761	0.922878	0	
1.0727	4.58761	1.82867	0	
1.0733	3.66625	1.82867	0	
1.0740	1.22848	0	0	
1.0747	0.614241	-0.905788	0	
1.0753	2.74489	-1.52104	0	
1.0760	2.74489	-1.82867	0	
1.0767	0.921361	0.307626	0	
1.0773	1.84272	1.2305	0	
1.0780	1.84272	-1.52104	0	
1.0787	0.30712	-2.75154	0	
1.0793	0.921361	0	0	
1.0800	-0.614241	1.52104	0	
1.0807	-5.48978	0	0	
1.0813	-5.48978	-1.82867	0	
1.0820	0	-2.75154	0	
1.0827	1.22848	-2.44392	0	
1.0833	-1.82353	-1.21341	0	
1.0840	-2.74489	-1.21341	0	
1.0847	0	-1.82867	0	
1.0853	2.74489	-1.82867	0	
1.0860	2.74489	-0.615252	0	
1.0867	1.5356	-0.615252	0	
1.0873	1.22848	-2.75154	0	
1.0880	2.74489	-4.58021	0	
1.0887	4.58761	-3.65733	0	
1.0893	4.28049	-0.905788	0	
1.0900	2.74489	-0.905788	0	
1.0907	3.66625	-0.905788	0	
1.0913	6.10402	0.307626	0	
1.0920	4.89473	2.44392	0	
1.0927	2.74489	2.75154	0	
1.0933	3.35913	-0.615252	0	
1.0940	3.05201	0	0	
1.0947	0	6.7165	0	
1.0953	-2.43777	9.16042	0	
1.0960	-2.43777	4.88784	0	
1.0967	-0.614241	3.96496	0	
1.0973	0.30712	2.75154	0	
1.0980	-1.82353	-1.82867	0	
1.0987	-4.2613	-2.75154	0	
1.0993	-3.95418	-2.13629	0	
1.1000	-4.56842	-5.486	0	
1.1007	-6.41114	-5.486	0	
1.1013	-5.48978	-1.82867	0	
1.1020	-2.74489	-3.65733	0	
1.1027	-1.20929	-3.65733	0	
1.1033	-1.82353	1.2305	0	
1.1040	-3.05201	2.13629	0	
1.1047	-2.74489	-0.307626	0	
1.1053	-0.902166	0	0	
1.1060	-0.902166	0	0	
1.1067	-0.614241	-1.21341	0	
1.1073	2.13065	-2.75154	0	
1.1080	2.74489	-4.58021	0	
1.1087	2.13065	-2.75154	0	
1.1093	2.74489	1.82867	0	
1.1100	2.13065	0.922878	0	
1.1107	0.30712	-0.905788	0	
1.1113	0.30712	2.13629	0	
1.1120	1.84272	2.13629	0	
1.1127	1.84272	-2.44392	0	
1.1133	0	-2.44392	0	
1.1140	-0.30712	0.922878	0	
1.1147	0	-0.307626	0	
1.1153	-1.82353	-3.34971	0	
1.1160	-4.87554	-2.13629	0	
1.1167	-3.95418	1.2305	0	
1.1173	-2.74489	0.922878	0	
1.1180	-5.18266	-1.52104	0	
1.1187	-7.3133	-0.307626	0	
1.1193	-8.23467	2.13629	0	
1.1200	-9.77027	0.307626	0	
1.1207	-8.23467	-3.65733	0	
1.1213	-4.87554	-4.27259	0	
1.1220	-4.56842	-1.52104	0	
1.1227	-6.41114	0	0	
1.1233	-7.3133	-1.82867	0	
1.1240	-6.71826	-1.52104	0	
1.1247	-4.56842	0.922878	0	
1.1253	-2.43777	-0.905788	0	
1.1260	-1.20929	-3.65733	0	
1.1267	0.614241	-4.88784	0	
1.1273	-0.30712	-5.17837	0	
1.1280	-3.66625	-2.75154	0	
1.1287	-2.74489	1.82867	0	
1.1293	-0.30712	3.96496	0	
1.1300	-0.30712	7.33176	0	
1.1307	-0.30712	10.9891	0	
1.1313	-0.30712	9.46805	0	
1.1320	0	9.46805	0	
1.1327	2.43777	14.6464	0	
1.1333	2.74489	13.7406	0	
1.1340	0.30712	6.7165	0	
1.1347	2.43777	2.44392	0	
1.1353	5.48978	-0.905788	0	
1.1360	3.66625	-4.88784	0	
1.1367	1.84272	-7.02413	0	
1.1373	2.43777	-7.31467	0	
1.1380	1.84272	-6.40888	0	
1.1387	0.614241	-5.17837	0	
1.1393	-2.13065	-4.58021	0	
1.1400	-4.56842	-1.52104	0	
1.1407	-1.82353	2.75154	0	
1.1413	1.22848	0.922878	0	
1.1420	-0.30712	-2.44392	0	
1.1427	-0.902166	-1.82867	0	
1.1433	0	-0.905788	0	
1.1440	-2.74489	-0.905788	0	
1.1447	-4.56842	0	0	
1.1453	-3.05201	-0.615252	0	
1.1460	-2.74489	-3.04208	0	
1.1467	-0.902166	-2.44392	0	
1.1473	1.5356	-0.615252	0	
1.1480	0.30712	-1.21341	0	
1.1487	-1.20929	-4.27259	0	
1.1493	1.84272	-5.79363	0	
1.1500	4.58761	-2.13629	0	
1.1507	3.97337	3.65733	0	
1.1513	3.66625	3.65733	0	
1.1520	3.35913	1.52104	0	
1.1527	3.35913	2.13629	0	
1.1533	6.10402	1.52104	0	
1.1540	6.41114	-2.13629	0	
1.1547	1.5356	-2.75154	0	
1.1553	-2.13065	0	0	
1.1560	-1.51641	-0.615252	0	
1.1567	-1.82353	-3.65733	0	
1.1573	-1.82353	-3.65733	0	
1.1580	0.614241	0	0	
1.1587	0.30712	1.82867	0	
1.1593	-2.74489	0.922878	0	
1.1600	-3.66625	0.307626	0	
1.1607	-3.66625	-1.82867	0	
1.1613	-5.18266	-4.88784	0	
1.1620	-5.18266	-4.88784	0	
1.1627	-3.05201	-1.82867	0	
1.1633	-1.82353	0.307626	0	
1.1640	-0.902166	-0.307626	0	
1.1647	0.921361	-1.82867	0	
1.1653	1.84272	-1.52104	0	
1.1660	0.921361	-1.52104	0	
1.1667	0.921361	-1.82867	0	
1.1673	1.5356	0	0	
1.1680	0	0.615252	0	
1.1687	-2.43777	-1.82867	0	
1.1693	0	-1.52104	0	
1.1700	3.66625	0	0	
1.1707	4.28049	-3.65733	0	
1.1713	4.58761	-5.79363	0	
1.1720	7.02538	-1.82867	0	
1.1727	6.71826	0	0	
1.1733	4.58761	-0.615252	0	
1.1740	4.28049	1.82867	0	
1.1747	3.05201	3.3668	0	
1.1753	2.13065	0.922878	0	
1.1760	3.05201	-0.905788	0	
1.1767	0.614241	-3.96496	0	
1.1773	-3.66625	-8.23754	0	
1.1780	-2.13065	-7.31467	0	
1.1787	-0.614241	-3.65733	0	
1.1793	-3.66625	-4.27259	0	
1.1800	-4.87554	-4.88784	0	
1.1807	-4.2613	-2.75154	0	
1.1813	-7.3133	-1.21341	0	
1.1820	-8.84891	-3.34971	0	
1.1827	-5.18266	-3.96496	0	
1.1833	-2.74489	-0.905788	0	
1.1840	-2.13065	2.75154	0	
1.1847	0.921361	3.3668	0	
1.1853	3.66625	3.65733	0	
1.1860	3.97337	4.58021	0	
1.1867	3.05201	4.58021	0	
1.1873	2.74489	3.65733	0	
1.1880	2.74489	2.75154	0	
1.1887	3.35913	0.615252	0	
1.1893	4.58761	-0.307626	0	
1.1900	4.28049	0.922878	0	
1.1907	3.35913	-0.307626	0	
1.1913	3.35913	-1.82867	0	
1.1920	3.35913	0.922878	0	
1.1927	0.921361	3.65733	0	
1.1933	-2.74489	2.13629	0	
1.1940	-1.82353	0	0	
1.1947	-0.614241	2.13629	0	
1.1953	-2.74489	5.50309	0	
1.1960	-3.66625	5.19546	0	
1.1967	-3.05201	1.82867	0	
1.1973	-3.95418	-0.615252	0	
1.1980	-3.66625	-2.75154	0	
1.1987	-1.82353	-6.40888	0	
1.1993	-4.2613	-7.02413	0	
1.2000	-5.48978	-3.96496	0	
1.2007	-2.13065	-3.34971	0	
1.2013	-1.51641	-1.82867	0	
1.2020	-4.87554	2.75154	0	
1.2027	-5.7969	5.50309	0	
1.2033	-5.18266	6.40888	0	
1.2040	-5.18266	9.16042	0	
1.2047	-3.66625	11.912	0	
1.2053	-0.30712	11.2967	0	
1.2060	0.614241	8.8528	0	
1.2067	-1.82353	5.79363	0	
1.2073	-0.902166	2.75154	0	
1.2080	3.66625	0.922878	0	
1.2087	4.28049	0.615252	0	
1.2093	1.5356	2.44392	0	
1.2100	1.84272	5.19546	0	
1.2107	1.84272	3.65733	0	
1.2113	-0.30712	-0.615252	0	
1.2120	0.614241	0.922878	0	
1.2127	1.84272	7.33176	0	
1.2133	0.30712	6.7165	0	
1.2140	1.22848	2.44392	0	
1.2147	3.66625	1.2305	0	
1.2153	3.05201	0.307626	0	
1.2160	0.921361	-0.307626	0	
1.2167	0	1.52104	0	
1.2173	-1.20929	1.2305	0	
1.2180	-1.20929	-1.21341	0	
1.2187	-0.902166	-0.905788	0	
1.2193	-0.902166	-1.21341	0	
1.2200	-0.30712	-1.52104	0	
1.2207	-1.51641	1.2305	0	
1.2213	-4.2613	0	0	
1.2220	-4.2613	-6.10125	0	
1.2227	-3.95418	-6.40888	0	
1.2233	-4.56842	-3.96496	0	
1.2240	-3.05201	-5.486	0	
1.2247	-1.20929	-4.27259	0	
1.2253	-0.614241	0	0	
1.2260	0	-1.82867	0	
1.2267	-0.30712	-3.96496	0	
1.2273	0.614241	-0.307626	0	
1.2280	5.18266	0	0	
1.2287	8.54179	-6.40888	0	
1.2293	7.3325	-8.8528	0	
1.2300	5.7969	-6.10125	0	
1.2307	5.7969	-5.486	0	
1.2313	7.3325	-5.486	0	
1.2320	9.15603	-3.65733	0	
1.2327	6.41114	-6.10125	0	
1.2333	1.5356	-7.02413	0	
1.2340	0.614241	-0.615252	0	
1.2347	3.05201	3.3668	0	
1.2353	3.35913	-0.905788	0	
1.2360	1.84272	-0.905788	0	
1.2367	0	3.05917	0	
1.2373	-0.614241	0.922878	0	
1.2380	0.30712	-1.52104	0	
1.2387	0.921361	1.52104	0	
1.2393	-1.20929	-0.307626	0	
1.2400	-2.74489	-4.88784	0	
1.2407	-2.13065	-2.75154	0	
1.2413	-0.902166	-0.307626	0	
1.2420	-1.82353	-3.65733	0	
1.2427	-2.74489	-3.65733	0	
1.2433	-0.902166	-1.82867	0	
1.2440	3.35913	-2.44392	0	
1.2447	4.28049	0	0	
1.2453	3.35913	3.65733	0	
1.2460	5.7969	2.44392	0	
1.2467	7.94674	3.65733	0	
1.2473	3.66625	8.23754	0	
1.2480	-0.30712	6.10125	0	
1.2487	0.30712	1.2305	0	
1.2493	1.5356	0.922878	0	
1.2500	1.22848	-1.21341	0	
1.2507	2.43777	-6.40888	0	
1.2513	2.74489	-7.62229	0	
1.2520	1.22848	-5.17837	0	
1.2527	0.614241	-2.75154	0	
1.2533	1.84272	1.52104	0	
1.2540	-0.30712	3.65733	0	
1.2547	-2.74489	1.2305	0	
1.2553	-0.30712	-0.905788	0	
1.2560	2.74489	-1.21341	0	
1.2567	0.921361	-2.75154	0	
1.2573	-0.902166	-3.04208	0	
1.2580	-2.13065	-1.82867	0	
1.2587	-4.56842	-3.96496	0	
1.2593	-4.56842	-8.54517	0	
1.2600	-2.74489	-7.92992	0	
1.2607	-2.74489	-3.65733	0	
1.2613	-4.2613	-2.75154	0	
1.2620	-3.35913	-3.34971	0	
1.2627	0	-1.21341	0	
1.2633	0	1.2305	0	
1.2640	-2.74489	2.13629	0	
1.2647	-2.74489	2.75154	0	
1.2653	0	2.75154	0	
1.2660	0	2.75154	0	
1.2667	-0.614241	2.75154	0	
1.2673	0	1.52104	0	
1.2680	-1.51641	0.615252	0	
1.2687	-1.82353	1.82867	0	
1.2693	0.921361	0.922878	0	
1.2700	0.921361	-2.75154	0	
1.2707	-1.82353	-4.27259	0	
1.2713	-1.82353	-3.34971	0	
1.2720	0.921361	-3.65733	0	
1.2727	2.13065	-4.27259	0	
1.2733	-0.30712	-1.82867	0	
1.2740	-4.2613	0	0	
1.2747	-5.18266	-0.905788	0	
1.2753	-3.66625	1.52104	0	
1.2760	-3.05201	6.7165	0	
1.2767	-3.66625	7.33176	0	
1.2773	-3.95418	4.27259	0	
1.2780	-4.87554	2.13629	0	
1.2787	-6.71826	-0.615252	0	
1.2793	-7.3133	-4.27259	0	
1.2800	-8.23467	-4.88784	0	
1.2807	-9.46315	-4.58021	0	
1.2813	-8.84891	-4.58021	0	
1.2820	-6.41114	-2.75154	0	
1.2827	-5.7969	-0.905788	0	
1.2833	-4.56842	-2.44392	0	
1.2840	-0.614241	-3.34971	0	
1.2847	2.43777	0.922878	0	
1.2853	3.05201	4.58021	0	
1.2860	3.66625	3.05917	0	
1.2867	3.35913	1.52104	0	
1.2873	3.66625	2.75154	0	
1.2880	7.3325	3.05917	0	
1.2887	9.77027	2.13629	0	
1.2893	7.3325	1.82867	0	
1.2900	7.02538	0	0	
1.2907	7.3325	-0.615252	0	
1.2913	4.28049	0.615252	0	
1.2920	1.84272	-0.905788	0	
1.2927	2.74489	-1.82867	0	
1.2933	3.05201	0.922878	0	
1.2940	2.74489	0	0	
1.2947	3.97337	-4.27259	0	
1.2953	3.66625	-0.905788	0	
1.2960	-0.30712	7.33176	0	
1.2967	-2.13065	8.23754	0	
1.2973	-0.30712	4.58021	0	
1.2980	-0.30712	4.27259	0	
1.2987	-2.43777	6.10125	0	
1.2993	-2.43777	4.58021	0	
1.3000	-1.51641	0.615252	0	
1.3007	-2.74489	-1.52104	0	
1.3013	-3.66625	0.615252	0	
1.3020	-2.13065	1.82867	0	
1.3027	-3.35913	0.922878	0	
1.3033	-5.18266	-0.307626	0	
1.3040	-1.82353	0	0	
1.3047	0.614241	0.615252	0	
1.3053	-4.2613	0.615252	0	
1.3060	-5.18266	0.922878	0	
1.3067	0.614241	0.922878	0	
1.3073	1.84272	1.2305	0	
1.3080	0	1.82867	0	
1.3087	2.74489	3.05917	0	
1.3093	4.89473	4.58021	0	
1.3100	2.74489	4.58021	0	
1.3107	1.84272	3.3668	0	
1.3113	1.84272	4.27259	0	
1.3120	0	4.27259	0	
1.3127	-0.902166	1.82867	0	
1.3133	-1.20929	0.922878	0	
1.3140	-1.51641	1.52104	0	
1.3147	0.614241	0.615252	0	
1.3153	-0.30712	0.307626	0	
1.3160	-5.18266	0.615252	0	
1.3167	-4.87554	-0.905788	0	
1.3173	0	-0.905788	0	
1.3180	0	0.922878	0	
1.3187	-2.43777	0	0	
1.3193	-2.43777	-2.75154	0	
1.3200	-2.13065	-3.96496	0	
1.3207	-2.43777	-3.96496	0	
1.3213	-1.82353	-3.65733	0	
1.3220	-1.82353	-2.13629	0	
1.3227	-1.82353	-0.905788	0	
1.3233	-0.902166	-1.82867	0	
1.3240	-2.43777	-3.04208	0	
1.3247	-2.43777	-3.65733	0	
1.3253	0.921361	-3.65733	0	
1.3260	1.5356	-1.21341	0	
1.3267	-1.51641	-0.615252	0	
1.3273	-1.51641	-3.65733	0	
1.3280	0	-5.17837	0	
1.3287	0.30712	-3.04208	0	
1.3293	1.84272	0	0	
1.3300	2.13065	0.922878	0	
1.3307	-0.614241	0	0	
1.3313	-0.902166	-3.04208	0	
1.3320	0.921361	-4.58021	0	
1.3327	-0.614241	-4.27259	0	
1.3333	-2.13065	-3.65733	0	
1.3340	-2.13065	-2.75154	0	
1.3347	-3.66625	-1.82867	0	
1.3353	-3.66625	-0.905788	0	
1.3360	-1.20929	0	0	
1.3367	0	-1.52104	0	
1.3373	0.30712	-2.13629	0	
1.3380	-0.902166	0.922878	0	
1.3387	-3.66625	3.65733	0	
1.3393	-5.18266	2.44392	0	
1.3400	-3.95418	0.615252	0	
1.3407	-2.74489	-0.905788	0	
1.3413	-1.51641	-1.82867	0	
1.3420	-0.614241	-1.82867	0	
1.3427	-0.614241	-2.75154	0	
1.3433	-0.30712	-2.75154	0	
1.3440	-0.614241	-0.905788	0	
1.3447	-0.30712	-0.905788	0	
1.3453	2.13065	-3.96496	0	
1.3460	3.66625	-3.65733	0	
1.3467	2.43777	-0.307626	0	
1.3473	1.5356	-1.82867	0	
1.3480	1.5356	-7.31467	0	
1.3487	2.43777	-8.23754	0	
1.3493	4.58761	-3.65733	0	
1.3500	4.28049	-1.82867	0	
1.3507	1.84272	-2.44392	0	
1.3513	3.35913	2.75154	0	
1.3520	5.18266	7.92992	0	
1.3527	1.84272	4.58021	0	
1.3533	0.921361	1.52104	0	
1.3540	3.66625	6.40888	0	
1.3547	3.66625	10.3738	0	
1.3553	0.921361	7.02413	0	
1.3560	0.614241	3.3668	0	
1.3567	0.921361	2.44392	0	
1.3573	0	0.922878	0	
1.3580	-2.43777	0	0	
1.3587	-4.56842	3.3668	0	
1.3593	-2.43777	7.02413	0	
1.3600	1.22848	6.40888	0	
1.3607	0.30712	3.3668	0	
1.3613	-2.43777	2.13629	0	
1.3620	-3.35913	2.13629	0	
1.3627	-3.35913	-1.21341	0	
1.3633	-2.13065	-7.02413	0	
1.3640	0	-10.0662	0	
1.3647	-0.902166	-10.0662	0	
1.3653	-0.902166	-9.16042	0	
1.3660	1.84272	-7.62229	0	
1.3667	1.5356	-3.65733	0	
1.3673	-0.902166	1.82867	0	
1.3680	-0.614241	5.19546	0	
1.3687	0.921361	2.75154	0	
1.3693	0.614241	-0.307626	0	
1.3700	1.22848	0.922878	0	
1.3707	1.84272	0.922878	0	
1.3713	0.921361	-2.44392	0	
1.3720	2.13065	-2.75154	0	
1.3727	3.66625	0.922878	0	
1.3733	2.74489	1.2305	0	
1.3740	0.921361	-1.52104	0	
1.3747	1.22848	-0.905788	0	
1.3753	1.84272	0.922878	0	
1.3760	1.84272	-1.82867	0	
1.3767	0.921361	-3.65733	0	
1.3773	0.30712	-2.75154	0	
1.3780	0.30712	-1.82867	0	
1.3787	0.614241	-2.75154	0	
1.3793	0.30712	-3.34971	0	
1.3800	0	-4.27259	0	
1.3807	-0.902166	-5.79363	0	
1.3813	-2.13065	-5.486	0	
1.3820	-2.13065	-4.27259	0	
1.3827	-1.20929	-3.65733	0	
1.3833	-0.902166	-2.13629	0	
1.3840	0	-0.905788	0	
1.3847	0.614241	0.922878	0	
1.3853	-0.614241	2.44392	0	
1.3860	-2.74489	2.44392	0	
1.3867	-2.13065	1.2305	0	
1.3873	0	-0.905788	0	
1.3880	1.5356	-3.04208	0	
1.3887	2.43777	-3.04208	0	
1.3893	3.97337	-2.13629	0	
1.3900	2.74489	-2.44392	0	
1.3907	-0.614241	-1.82867	0	
1.3913	0	-1.52104	0	
1.3920	2.43777	-1.82867	0	
1.3927	2.13065	-0.905788	0	
1.3933	1.5356	-0.307626	0	
1.3940	0.921361	-0.307626	0	
1.3947	0	3.65733	0	
1.3953	0.921361	4.58021	0	
1.3960	2.74489	0.922878	0	
1.3967	1.84272	2.44392	0	
1.3973	0	3.96496	0	
1.3980	-0.614241	-3.34971	0	
1.3987	-2.74489	-8.54517	0	
1.3993	-4.56842	-7.31467	0	
1.4000	-4.2613	-5.79363	0	
1.4007	-4.56842	-2.13629	0	
1.4013	-4.2613	2.75154	0	
1.4020	-1.82353	2.75154	0	
1.4027	-0.30712	0.922878	0	
1.4033	-1.51641	1.82867	0	
1.4040	-2.13065	2.75154	0	
1.4047	-1.82353	5.79363	0	
1.4053	0	8.23754	0	
1.4060	1.5356	7.02413	0	
1.4067	1.22848	7.33176	0	
1.4073	2.43777	8.54517	0	
1.4080	4.58761	5.50309	0	
1.4087	2.74489	3.3668	0	
1.4093	1.22848	5.79363	0	
1.4100	3.97337	6.10125	0	
1.4107	4.58761	2.75154	0	
1.4113	2.43777	0.615252	0	
1.4120	2.74489	1.82867	0	
1.4127	0.921361	2.75154	0	
1.4133	-1.82353	2.44392	0	
1.4140	1.5356	1.2305	0	
1.4147	2.74489	-0.307626	0	
1.4153	-0.614241	-2.13629	0	
1.4160	-0.30712	-3.04208	0	
1.4167	1.5356	-4.58021	0	
1.4173	-0.614241	-9.75858	0	
1.4180	-1.82353	-11.2967	0	
1.4187	-1.20929	-7.62229	0	
1.4193	-1.82353	-6.10125	0	
1.4200	-2.74489	-5.79363	0	
1.4207	-2.74489	0	0	
1.4213	-1.82353	5.50309	0	
1.4220	-0.902166	3.05917	0	
1.4227	-0.902166	2.75154	0	
1.4233	0	8.54517	0	
1.4240	0.921361	10.6815	0	
1.4247	0.30712	8.23754	0	
1.4253	0.921361	6.40888	0	
1.4260	2.74489	5.19546	0	
1.4267	1.22848	4.58021	0	
1.4273	-1.20929	3.65733	0	
1.4280	0.921361	1.52104	0	
1.4287	4.58761	2.44392	0	
1.4293	4.89473	5.50309	0	
1.4300	3.97337	3.96496	0	
1.4307	5.48978	1.52104	0	
1.4313	4.89473	2.13629	0	
1.4320	1.84272	1.52104	0	
1.4327	1.84272	-1.82867	0	
1.4333	3.97337	-3.96496	0	
1.4340	2.13065	-2.75154	0	
1.4347	0	2.13629	0	
1.4353	2.43777	4.88784	0	
1.4360	2.74489	3.65733	0	
1.4367	0.614241	1.52104	0	
1.4373	0.30712	-1.52104	0	
1.4380	0.30712	-3.96496	0	
1.4387	-0.902166	-3.04208	0	
1.4393	0	-1.82867	0	
1.4400	2.43777	-3.65733	0	
1.4407	3.05201	-4.58021	0	
1.4413	2.74489	-2.75154	0	
1.4420	0.30712	0.922878	0	
1.4427	-1.82353	3.65733	0	
1.4433	-0.30712	2.75154	0	
1.4440	0	0	0	
1.4447	-2.74489	0.922878	0	
1.4453	-1.82353	2.44392	0	
1.4460	0.921361	2.44392	0	
1.4467	-0.902166	2.75154	0	
1.4473	-1.82353	3.3668	0	
1.4480	0	3.65733	0	
1.4487	0.30712	3.65733	0	
1.4493	0.30712	2.13629	0	
1.4500	3.35913	1.52104	0	
1.4507	4.28049	1.82867	0	
1.4513	1.84272	0.922878	0	
1.4520	0.614241	0	0	
1.4527	0.921361	0.615252	0	
1.4533	0.614241	-0.905788	0	
1.4540	0	-2.44392	0	
1.4547	-0.902166	-0.307626	0	
1.4553	-2.13065	0.922878	0	
1.4560	-4.2613	0	0	
1.4567	-5.18266	0	0	
1.4573	-2.13065	0	0	
1.4580	0	-5.17837	0	
1.4587	-2.43777	-8.54517	0	
1.4593	-4.2613	-4.58021	0	
1.4600	-3.95418	-2.13629	0	
1.4607	-5.7969	-5.17837	0	
1.4613	-7.62043	-5.486	0	
1.4620	-7.92755	-3.65733	0	
1.4627	-6.71826	-4.27259	0	
1.4633	-3.66625	-3.65733	0	
1.4640	-1.20929	-1.82867	0	
1.4647	-2.13065	-3.34971	0	
1.4653	-3.35913	-4.27259	0	
1.4660	-1.82353	-3.65733	0	
1.4667	0.30712	-4.58021	0	
1.4673	0.30712	-4.58021	0	
1.4680	-0.902166	-3.96496	0	
1.4687	-0.30712	-5.486	0	
1.4693	1.84272	-3.96496	0	
1.4700	2.43777	0.615252	0	
1.4707	2.13065	-0.307626	0	
1.4713	2.74489	-5.486	0	
1.4720	1.84272	-6.40888	0	
1.4727	-0.30712	-3.96496	0	
1.4733	-2.43777	-1.52104	0	
1.4740	-3.95418	1.52104	0	
1.4747	-3.95418	3.65733	0	
1.4753	-2.74489	2.75154	0	
1.4760	-3.66625	1.2305	0	
1.4767	-4.56842	3.3668	0	
1.4773	-3.35913	6.7165	0	
1.4780	-4.87554	4.88784	0	
1.4787	-6.41114	-1.21341	0	
1.4793	-3.66625	-3.65733	0	
1.4800	-3.05201	-1.82867	0	
1.4807	-5.48978	-0.905788	0	
1.4813	-4.56842	0	0	
1.4820	-3.66625	-0.307626	0	
1.4827	-5.18266	-1.82867	0	
1.4833	-7.00618	-2.75154	0	
1.4840	-7.92755	-0.905788	0	
1.4847	-6.41114	-0.905788	0	
1.4853	-3.95418	-3.65733	0	
1.4860	-3.66625	-5.486	0	
1.4867	-3.95418	-4.27259	0	
1.4873	-1.82353	-2.75154	0	
1.4880	-0.902166	-3.04208	0	
1.4887	-0.902166	-3.96496	0	
1.4893	1.5356	-6.40888	0	
1.4900	2.74489	-8.23754	0	
1.4907	0.921361	-7.31467	0	
1.4913	1.22848	-4.58021	0	
1.4920	2.13065	-4.58021	0	
1.4927	0.921361	-4.27259	0	
1.4933	0	-0.615252	0	
1.4940	0.614241	0.615252	0	
1.4947	1.5356	0	0	
1.4953	3.05201	3.65733	0	
1.4960	3.97337	8.54517	0	
1.4967	4.28049	9.16042	0	
1.4973	6.41114	6.40888	0	
1.4980	5.48978	2.75154	0	
1.4987	3.05201	-0.615252	0	
1.4993	2.74489	-2.13629	0	
1.5000	1.5356	-0.905788	0	
1.5007	0.30712	1.82867	0	
1.5013	2.43777	1.82867	0	
1.5020	1.5356	0	0	
1.5027	-2.43777	-0.307626	0	
1.5033	-1.82353	1.2305	0	
1.5040	0	1.82867	0	
1.5047	0	1.82867	0	
1.5053	1.22848	2.44392	0	
1.5060	1.5356	2.44392	0	
1.5067	-0.614241	2.13629	0	
1.5073	0	2.44392	0	
1.5080	1.5356	1.52104	0	
1.5087	1.84272	0	0	
1.5093	2.74489	1.52104	0	
1.5100	2.43777	1.2305	0	
1.5107	0.921361	-3.34971	0	
1.5113	1.22848	-5.486	0	
1.5120	1.5356	-2.75154	0	
1.5127	1.84272	-0.905788	0	
1.5133	3.35913	-0.307626	0	
1.5140	2.43777	2.13629	0	
1.5147	0	2.75154	0	
1.5153	-0.902166	0.307626	0	
1.5160	-0.902166	-1.21341	0	
1.5167	-0.902166	-1.82867	0	
1.5173	-0.902166	-1.21341	0	
1.5180	-0.902166	-0.905788	0	
1.5187	-0.614241	-2.75154	0	
1.5193	0.30712	-3.96496	0	
1.5200	0.921361	-1.82867	0	
1.5207	0	-0.615252	0	
1.5213	-2.74489	-2.13629	0	
1.5220	-3.05201	-2.75154	0	
1.5227	-0.30712	-1.52104	0	
1.5233	-0.902166	0	0	
1.5240	-1.82353	1.52104	0	
1.5247	0.921361	0.615252	0	
1.5253	0.30712	-1.52104	0	
1.5260	-2.43777	-1.21341	0	
1.5267	0	2.44392	0	
1.5273	1.5356	5.50309	0	
1.5280	-1.51641	3.3668	0	
1.5287	-1.82353	-0.905788	0	
1.5293	-0.902166	-0.905788	0	
1.5300	-1.20929	0	0	
1.5307	-0.30712	-0.615252	0	
1.5313	0	-0.905788	0	
1.5320	0	-0.905788	0	
1.5327	1.22848	-2.13629	0	
1.5333	0	-3.34971	0	
1.5340	-0.30712	-2.44392	0	
1.5347	0.614241	-0.307626	0	
1.5353	-1.82353	1.82867	0	
1.5360	-3.66625	2.13629	0	
1.5367	-1.82353	-0.307626	0	
1.5373	-4.87554	-2.44392	0	
1.5380	-7.92755	-0.905788	0	
1.5387	-4.56842	4.58021	0	
1.5393	-3.66625	6.40888	0	
1.5400	-5.18266	1.52104	0	
1.5407	-2.43777	-2.44392	0	
1.5413	0.30712	-1.82867	0	
1.5420	0	-1.52104	0	
1.5427	1.84272	0	0	
1.5433	1.84272	2.44392	0	
1.5440	0.30712	3.65733	0	
1.5447	1.22848	3.96496	0	
1.5453	2.74489	3.05917	0	
1.5460	2.13065	0.922878	0	
1.5467	1.84272	1.52104	0	
1.5473	2.74489	1.82867	0	
1.5480	2.74489	-0.905788	0	
1.5487	2.13065	-0.307626	0	
1.5493	3.66625	2.44392	0	
1.5500	5.48978	-0.307626	0	
1.5507	3.66625	-3.65733	0	
1.5513	1.84272	-1.52104	0	
1.5520	2.74489	-1.82867	0	
1.5527	2.74489	-6.10125	0	
1.5533	0	-6.10125	0	
1.5540	-1.20929	-1.82867	0	
1.5547	-0.614241	-0.615252	0	
1.5553	0.921361	-3.34971	0	
1.5560	2.74489	-6.10125	0	
1.5567	1.22848	-7.31467	0	
1.5573	-0.614241	-5.486	0	
1.5580	1.5356	-1.82867	0	
1.5587	1.84272	1.82867	0	
1.5593	-2.74489	5.19546	0	
1.5600	-4.56842	7.02413	0	
1.5607	-3.66625	7.33176	0	
1.5613	-4.56842	9.16042	0	
1.5620	-5.48978	8.54517	0	
1.5627	-5.48978	4.27259	0	
1.5633	-5.7969	3.65733	0	
1.5640	-2.74489	4.88784	0	
1.5647	0.921361	0.307626	0	
1.5653	-1.51641	-4.58021	0	
1.5660	-3.66625	-2.13629	0	
1.5667	-0.30712	1.82867	0	
1.5673	1.22848	0.615252	0	
1.5680	0	-1.21341	0	
1.5687	2.13065	-2.13629	0	
1.5693	3.35913	-2.44392	0	
1.5700	2.74489	0	0	
1.5707	5.18266	0.307626	0	
1.5713	5.7969	-3.34971	0	
1.5720	3.66625	-4.27259	0	
1.5727	2.74489	-1.52104	0	
1.5733	0.921361	-1.82867	0	
1.5740	-3.05201	-3.65733	0	
1.5747	0.30712	-3.04208	0	
1.5753	3.97337	-2.75154	0	
1.5760	0	-3.65733	0	
1.5767	-2.13065	-3.34971	0	
1.5773	0.30712	-1.82867	0	
1.5780	-1.82353	-1.21341	0	
1.5787	-4.56842	-1.21341	0	
1.5793	-3.66625	-2.75154	0	
1.5800	-4.2613	-3.34971	0	
1.5807	-5.48978	-1.82867	0	
1.5813	-5.48978	-2.13629	0	
1.5820	-4.56842	-3.65733	0	
1.5827	-2.74489	-1.82867	0	
1.5833	-1.51641	0.307626	0	
1.5840	-3.35913	-0.905788	0	
1.5847	-3.66625	-0.307626	0	
1.5853	-1.51641	1.52104	0	
1.5860	-1.82353	1.2305	0	
1.5867	-2.74489	1.82867	0	
1.5873	-1.82353	3.65733	0	
1.5880	0	3.05917	0	
1.5887	1.84272	0	0	
1.5893	2.74489	-0.615252	0	
1.5900	1.84272	0.307626	0	
1.5907	0	0.922878	0	
1.5913	1.5356	0	0	
1.5920	2.74489	-0.615252	0	
1.5927	0.614241	0	0	
1.5933	-0.614241	0.922878	0	
1.5940	1.84272	0.615252	0	
1.5947	1.84272	0.307626	0	
1.5953	-2.13065	2.75154	0	
1.5960	-1.51641	3.65733	0	
1.5967	2.74489	1.82867	0	
1.5973	3.05201	1.2305	0	
1.5980	1.5356	2.13629	0	
1.5987	1.5356	1.2305	0	
1.5993	0	0.615252	0	
1.6000	-2.74489	0	0	
1.6007	-2.74489	-1.52104	0	
1.6013	-0.30712	-1.21341	0	
1.6020	-1.51641	-0.905788	0	
1.6027	-2.74489	-1.82867	0	
1.6033	-0.30712	0	0	
1.6040	1.5356	0.615252	0	
1.6047	0.614241	-3.65733	0	
1.6053	0	-4.58021	0	
1.6060	0.30712	-1.82867	0	
1.6067	0.30712	-2.44392	0	
1.6073	2.43777	-1.82867	0	
1.6080	3.35913	1.2305	0	
1.6087	1.84272	-0.307626	0	
1.6093	2.74489	-1.82867	0	
1.6100	4.58761	2.44392	0	
1.6107	3.66625	3.65733	0	
1.6113	2.43777	2.75154	0	
1.6120	1.84272	5.19546	0	
1.6127	-0.614241	4.58021	0	
1.6133	-0.902166	0.307626	0	
1.6140	2.13065	-0.905788	0	
1.6147	2.43777	-0.905788	0	
1.6153	0	-4.58021	0	
1.6160	-0.614241	-9.45096	0	
1.6167	0.614241	-11.5873	0	
1.6173	-0.30712	-10.3738	0	
1.6180	-2.74489	-5.17837	0	
1.6187	-3.35913	-0.905788	0	
1.6193	-1.51641	1.82867	0	
1.6200	-0.902166	3.05917	0	
1.6207	-1.20929	0.615252	0	
1.6213	-1.20929	-0.905788	0	
1.6220	-3.35913	4.27259	0	
1.6227	-4.87554	8.23754	0	
1.6233	-5.18266	5.50309	0	
1.6240	-5.48978	2.44392	0	
1.6247	-5.48978	1.52104	0	
1.6253	-4.56842	0	0	
1.6260	-3.95418	0	0	
1.6267	-2.74489	0.307626	0	
1.6273	-1.20929	-0.905788	0	
1.6280	-2.13065	1.82867	0	
1.6287	-1.82353	4.58021	0	
1.6293	0	2.13629	0	
1.6300	0.921361	0.615252	0	
1.6307	3.66625	1.82867	0	
1.6313	5.48978	0	0	
1.6320	2.74489	0	0	
1.6327	1.5356	5.19546	0	
1.6333	1.84272	5.50309	0	
1.6340	2.13065	-0.307626	0	
1.6347	4.28049	-1.82867	0	
1.6353	4.89473	0.922878	0	
1.6360	0.921361	0.922878	0	
1.6367	-1.82353	-0.905788	0	
1.6373	-2.13065	-0.615252	0	
1.6380	-3.05201	-0.307626	0	
1.6387	-2.43777	-1.21341	0	
1.6393	-2.43777	-0.905788	0	
1.6400	-4.56842	0	0	
1.6407	-3.35913	-2.75154	0	
1.6413	-1.51641	-7.31467	0	
1.6420	-3.95418	-8.8528	0	
1.6427	-4.87554	-3.96496	0	
1.6433	-1.82353	-0.905788	0	
1.6440	-0.902166	-3.34971	0	
1.6447	-1.82353	-5.486	0	
1.6453	0	-3.96496	0	
1.6460	0.614241	-2.75154	0	
1.6467	-0.30712	-2.44392	0	
1.6473	-0.614241	-0.307626	0	
1.6480	-1.20929	2.13629	0	
1.6487	0	2.75154	0	
1.6493	3.35913	4.58021	0	
1.6500	3.35913	6.40888	0	
1.6507	-0.614241	4.88784	0	
1.6513	-1.82353	2.75154	0	
1.6520	0.921361	3.3668	0	
1.6527	1.5356	2.44392	0	
1.6533	-0.614241	-0.615252	0	
1.6540	-1.82353	0.307626	0	
1.6547	-1.82353	2.13629	0	
1.6553	-3.05201	0.922878	0	
1.6560	-3.66625	0.307626	0	
1.6567	-2.13065	1.82867	0	
1.6573	-0.902166	0	0	
1.6580	-2.43777	-3.65733	0	
1.6587	-2.74489	-3.65733	0	
1.6593	-1.82353	-1.21341	0	
1.6600	-1.51641	-1.52104	0	
1.6607	0.921361	-2.44392	0	
1.6613	3.66625	-2.75154	0	
1.6620	1.22848	-2.75154	0	
1.6627	0.921361	-1.21341	0	
1.6633	4.58761	-0.307626	0	
1.6640	3.35913	-1.82867	0	
1.6647	0.921361	-1.82867	0	
1.6653	3.66625	-0.307626	0	
1.6660	2.74489	-1.52104	0	
1.6667	-2.13065	-3.65733	0	
1.6673	0.30712	-2.13629	0	
1.6680	2.74489	0	0	
1.6687	1.84272	-1.21341	0	
1.6693	3.66625	-3.96496	0	
1.6700	5.48978	-3.65733	0	
1.6707	3.66625	0	0	
1.6713	3.66625	0.922878	0	
1.6720	4.28049	-0.905788	0	
1.6727	2.74489	0.307626	0	
1.6733	1.5356	4.27259	0	
1.6740	1.5356	4.88784	0	
1.6747	0.921361	3.65733	0	
1.6753	1.22848	2.13629	0	
1.6760	0.614241	0.307626	0	
1.6767	0.614241	0	0	
1.6773	2.43777	0	0	
1.6780	2.13065	0	0	
1.6787	0	2.44392	0	
1.6793	-0.30712	3.96496	0	
1.6800	-1.51641	0.922878	0	
1.6807	-3.66625	0	0	
1.6813	-4.2613	1.82867	0	
1.6820	-2.74489	-1.52104	0	
1.6827	-3.66625	-7.92992	0	
1.6833	-5.48978	-9.45096	0	
1.6840	-4.87554	-9.75858	0	
1.6847	-4.2613	-10.9891	0	
1.6853	-5.48978	-9.16042	0	
1.6860	-4.56842	-3.65733	0	
1.6867	-1.51641	0	0	
1.6873	-0.614241	2.44392	0	
1.6880	-0.30712	7.33176	0	
1.6887	1.5356	14.6464	0	
1.6893	1.22848	16.1675	0	
1.6900	-0.614241	9.46805	0	
1.6907	0.30712	3.05917	0	
1.6913	0.921361	1.82867	0	
1.6920	-0.30712	2.13629	0	
1.6927	-0.614241	1.82867	0	
1.6933	0.30712	-0.307626	0	
1.6940	-0.614241	-1.82867	0	
1.6947	-2.43777	1.2305	0	
1.6953	-3.05201	4.88784	0	
1.6960	-1.51641	2.75154	0	
1.6967	-0.30712	-0.307626	0	
1.6973	-2.13065	-0.905788	0	
1.6980	-2.74489	-2.44392	0	
1.6987	-0.902166	-2.13629	0	
1.6993	-1.20929	-0.615252	0	
1.7000	-4.56842	-0.615252	0	
1.7007	-5.48978	0.922878	0	
1.7013	-3.66625	2.13629	0	
1.7020	-1.82353	-1.21341	0	
1.7027	-1.82353	-2.13629	0	
1.7033	-2.74489	1.82867	0	
1.7040	-0.614241	1.52104	0	
1.7047	1.84272	-0.905788	0	
1.7053	1.22848	0	0	
1.7060	0.921361	-1.82867	0	
1.7067	1.5356	-5.79363	0	
1.7073	1.22848	-5.486	0	
1.7080	0.921361	-3.65733	0	
1.7087	2.13065	-5.486	0	
1.7093	4.28049	-6.7165	0	
1.7100	5.48978	-3.65733	0	
1.7107	6.10402	-2.75154	0	
1.7113	6.41114	-3.96496	0	
1.7120	6.71826	-3.96496	0	
1.7127	5.7969	-1.82867	0	
1.7133	4.58761	-1.21341	0	
1.7140	3.66625	-3.65733	0	
1.7147	0.30712	-6.10125	0	
1.7153	-0.902166	-7.62229	0	
1.7160	1.84272	-7.31467	0	
1.7167	2.43777	-5.79363	0	
1.7173	-1.82353	-5.79363	0	
1.7180	-2.74489	-5.486	0	
1.7187	0.614241	-3.34971	0	
1.7193	0.614241	-0.905788	0	
1.7200	-2.13065	1.52104	0	
1.7207	-1.82353	4.88784	0	
1.7213	-0.614241	5.19546	0	
1.7220	-1.20929	4.27259	0	
1.7227	0	7.33176	0	
1.7233	1.84272	9.16042	0	
1.7240	0.921361	8.23754	0	
1.7247	-0.30712	7.33176	0	
1.7253	0.30712	6.10125	0	
1.7260	0	4.58021	0	
1.7267	-0.902166	6.10125	0	
1.7273	1.22848	6.7165	0	
1.7280	0.614241	4.88784	0	
1.7287	-3.05201	3.3668	0	
1.7293	-2.13065	1.52104	0	
1.7300	0.921361	1.2305	0	
1.7307	0.614241	4.58021	0	
1.7313	0.921361	5.50309	0	
1.7320	1.5356	3.3668	0	
1.7327	-1.20929	2.44392	0	
1.7333	-1.82353	2.75154	0	
1.7340	1.5356	2.13629	0	
1.7347	0.30712	0	0	
1.7353	-5.18266	-2.75154	0	
1.7360	-5.48978	-1.82867	0	
1.7367	-1.82353	0.615252	0	
1.7373	-1.82353	-0.307626	0	
1.7380	-4.56842	-0.615252	0	
1.7387	-5.48978	0	0	
1.7393	-3.66625	-2.75154	0	
1.7400	-2.13065	-3.34971	0	
1.7407	-1.82353	1.82867	0	
1.7413	0	3.05917	0	
1.7420	0	0.615252	0	
1.7427	-2.74489	0.307626	0	
1.7433	-3.05201	0	0	
1.7440	0	-1.21341	0	
1.7447	0	-2.44392	0	
1.7453	-0.902166	-6.40888	0	
1.7460	0.30712	-10.0662	0	
1.7467	2.13065	-9.16042	0	
1.7473	2.74489	-7.31467	0	
1.7480	4.28049	-2.75154	0	
1.7487	5.7969	7.33176	0	
1.7493	6.41114	11.6043	0	
1.7500	4.58761	5.19546	0	
1.7507	1.84272	2.13629	0	
1.7513	1.5356	6.40888	0	
1.7520	2.43777	7.92992	0	
1.7527	1.22848	5.50309	0	
1.7533	-0.614241	3.96496	0	
1.7540	0	3.3668	0	
1.7547	1.84272	3.3668	0	
1.7553	0.614241	1.52104	0	
1.7560	-2.43777	-2.75154	0	
1.7567	-1.82353	-4.58021	0	
1.7573	-0.30712	-4.58021	0	
1.7580	-3.05201	-3.65733	0	
1.7587	-5.48978	-1.82867	0	
1.7593	-4.56842	-1.82867	0	
1.7600	-5.7969	-4.58021	0	
1.7607	-6.10402	-3.96496	0	
1.7613	-3.35913	0	0	
1.7620	-2.74489	2.44392	0	
1.7627	-3.95418	3.05917	0	
1.7633	-2.74489	1.82867	0	
1.7640	-2.13065	-0.905788	0	
1.7647	-2.74489	-2.75154	0	
1.7653	-0.614241	-3.65733	0	
1.7660	2.74489	-1.82867	0	
1.7667	2.43777	0	0	
1.7673	1.22848	-1.21341	0	
1.7680	3.97337	-2.44392	0	
1.7687	7.94674	0.615252	0	
1.7693	6.71826	2.44392	0	
1.7700	3.05201	0	0	
1.7707	1.84272	-2.13629	0	
1.7713	1.84272	0	0	
1.7720	2.43777	5.50309	0	
1.7727	3.05201	9.16042	0	
1.7733	3.05201	7.63938	0	
1.7740	1.22848	4.27259	0	
1.7747	-0.902166	2.44392	0	
1.7753	-1.51641	1.2305	0	
1.7760	-0.902166	-0.307626	0	
1.7767	-1.82353	-3.34971	0	
1.7773	-2.74489	-6.10125	0	
1.7780	-2.43777	-6.40888	0	
1.7787	-2.13065	-5.486	0	
1.7793	-1.20929	-5.79363	0	
1.7800	1.5356	-6.10125	0	
1.7807	0.921361	-5.79363	0	
1.7813	-3.35913	-5.17837	0	
1.7820	-3.66625	-3.65733	0	
1.7827	-0.30712	-3.65733	0	
1.7833	-0.614241	-3.04208	0	
1.7840	-2.43777	0	0	
1.7847	-1.20929	1.2305	0	
1.7853	0.921361	1.82867	0	
1.7860	2.43777	4.27259	0	
1.7867	1.84272	3.96496	0	
1.7873	-0.614241	1.2305	0	
1.7880	-0.614241	1.2305	0	
1.7887	1.5356	0.922878	0	
1.7893	0.921361	-0.905788	0	
1.7900	0.921361	0.922878	0	
1.7907	3.66625	1.52104	0	
1.7913	3.05201	-1.52104	0	
1.7920	0.921361	-0.905788	0	
1.7927	0.921361	0.922878	0	
1.7933	0.614241	-2.75154	0	
1.7940	-0.902166	-5.17837	0	
1.7947	-0.902166	-3.04208	0	
1.7953	-2.74489	-2.13629	0	
1.7960	-5.48978	-3.34971	0	
1.7967	-3.05201	-0.615252	0	
1.7973	-1.20929	3.65733	0	
1.7980	-3.35913	0.922878	0	
1.7987	-3.66625	-5.17837	0	
1.7993	-2.74489	-4.58021	0	
1.8000	-2.13065	0.922878	0	
1.8007	0	1.82867	0	
1.8013	0	-0.615252	0	
1.8020	-1.82353	0	0	
1.8027	0.921361	1.2305	0	
1.8033	1.5356	0.922878	0	
1.8040	-2.43777	0	0	
1.8047	-1.51641	0	0	
1.8053	1.22848	-0.905788	0	
1.8060	-3.35913	-1.82867	0	
1.8067	-8.23467	-2.44392	0	
1.8073	-5.18266	-1.21341	0	
1.8080	-0.902166	0.922878	0	
1.8087	0	1.52104	0	
1.8093	0.30712	0	0	
1.8100	0.30712	-0.905788	0	
1.8107	-0.902166	1.82867	0	
1.8113	-1.82353	3.65733	0	
1.8120	-0.614241	-0.307626	0	
1.8127	0.30712	-1.21341	0	
1.8133	-0.30712	2.44392	0	
1.8140	-0.614241	0.307626	0	
1.8147	1.22848	-3.65733	0	
1.8153	0.921361	0	0	
1.8160	-1.82353	2.13629	0	
1.8167	-2.74489	-2.13629	0	
1.8173	-0.30712	-3.96496	0	
1.8180	3.05201	-4.58021	0	
1.8187	4.58761	-8.23754	0	
1.8193	2.13065	-9.16042	0	
1.8200	-1.51641	-6.10125	0	
1.8207	-2.13065	-4.58021	0	
1.8213	0.30712	-4.88784	0	
1.8220	1.84272	-4.88784	0	
1.8227	0.30712	-2.44392	0	
1.8233	1.22848	-0.307626	0	
1.8240	4.28049	-1.21341	0	
1.8247	3.66625	-1.21341	0	
1.8253	0.30712	0.615252	0	
1.8260	0	-0.615252	0	
1.8267	0.30712	-1.52104	0	
1.8273	-0.614241	2.13629	0	
1.8280	0.614241	3.3668	0	
1.8287	2.43777	0.307626	0	
1.8293	1.5356	0.615252	0	
1.8300	0.921361	2.75154	0	
1.8307	1.5356	2.13629	0	
1.8313	0.921361	0.615252	0	
1.8320	-0.30712	0.922878	0	
1.8327	-0.30712	1.52104	0	
1.8333	0	-0.615252	0	
1.8340	0	-2.13629	0	
1.8347	-1.51641	-0.615252	0	
1.8353	-1.51641	0	0	
1.8360	0.921361	-1.52104	0	
1.8367	2.13065	-2.13629	0	
1.8373	0.614241	-3.04208	0	
1.8380	-1.20929	-4.58021	0	
1.8387	-1.20929	-3.04208	0	
1.8393	-0.902166	0	0	
1.8400	-2.43777	-1.82867	0	
1.8407	-3.95418	-4.27259	0	
1.8413	-2.43777	-3.65733	0	
1.8420	-0.902166	-3.34971	0	
1.8427	-2.74489	-4.88784	0	
1.8433	-4.56842	-4.27259	0	
1.8440	-3.66625	-3.65733	0	
1.8447	-3.05201	-6.40888	0	
1.8453	-3.05201	-5.17837	0	
1.8460	-3.05201	-0.905788	0	
1.8467	-2.74489	0.307626	0	
1.8473	-0.614241	0.307626	0	
1.8480	0.614241	2.13629	0	
1.8487	-0.614241	2.13629	0	
1.8493	0	3.05917	0	
1.8500	2.13065	6.7165	0	
1.8507	2.74489	7.33176	0	
1.8513	3.05201	5.79363	0	
1.8520	1.84272	6.7165	0	
1.8527	-0.30712	5.79363	0	
1.8533	0	3.65733	0	
1.8540	-0.614241	3.65733	0	
1.8547	-1.51641	-1.82867	0	
1.8553	0	-9.75858	0	
1.8560	-0.902166	-9.75858	0	
1.8567	-3.05201	-5.17837	0	
1.8573	-1.20929	-5.79363	0	
1.8580	0	-6.10125	0	
1.8587	-1.82353	-1.82867	0	
1.8593	-1.82353	1.52104	0	
1.8600	-0.30712	2.13629	0	
1.8607	-1.82353	3.05917	0	
1.8613	-3.05201	5.50309	0	
1.8620	-2.74489	8.23754	0	
1.8627	-4.56842	8.23754	0	
1.8633	-5.18266	5.50309	0	
1.8640	-3.05201	4.58021	0	
1.8647	-2.74489	5.50309	0	
1.8653	-5.18266	3.65733	0	
1.8660	-4.87554	0.615252	0	
1.8667	-1.20929	0.922878	0	
1.8673	1.22848	2.75154	0	
1.8680	1.5356	1.82867	0	
1.8687	1.22848	1.2305	0	
1.8693	1.5356	1.52104	0	
1.8700	1.5356	2.13629	0	
1.8707	0.614241	3.3668	0	
1.8713	-1.82353	2.75154	0	
1.8720	-3.35913	0.615252	0	
1.8727	-1.20929	0.922878	0	
1.8733	0.921361	2.75154	0	
1.8740	0.30712	0.922878	0	
1.8747	0.614241	-1.82867	0	
1.8753	1.84272	-0.905788	0	
1.8760	0	0.307626	0	
1.8767	-1.82353	-0.905788	0	
1.8773	0	-1.82867	0	
1.8780	0.30712	-1.52104	0	
1.8787	-1.51641	-0.307626	0	
1.8793	-1.20929	0	0	
1.8800	-0.902166	-0.905788	0	
1.8807	-3.35913	-1.52104	0	
1.8813	-3.35913	-0.905788	0	
1.8820	0	0	0	
1.8827	-0.30712	0.922878	0	
1.8833	-2.43777	-0.615252	0	
1.8840	0	-2.44392	0	
1.8847	1.84272	-1.21341	0	
1.8853	-0.902166	1.82867	0	
1.8860	-0.30712	1.52104	0	
1.8867	2.74489	0.307626	0	
1.8873	1.5356	1.52104	0	
1.8880	-2.13065	1.52104	0	
1.8887	-2.13065	-0.905788	0	
1.8893	-2.74489	-3.34971	0	
1.8900	-4.2613	-3.34971	0	
1.8907	-2.43777	-1.52104	0	
1.8913	-0.614241	-0.905788	0	
1.8920	-1.82353	-1.82867	0	
1.8927	-0.30712	-1.21341	0	
1.8933	3.66625	1.52104	0	
1.8940	3.97337	3.65733	0	
1.8947	2.74489	4.58021	0	
1.8953	3.66625	5.19546	0	
1.8960	6.10402	2.44392	0	
1.8967	6.41114	-1.21341	0	
1.8973	5.7969	-1.82867	0	
1.8980	5.48978	-0.905788	0	
1.8987	4.58761	-0.615252	0	
1.8993	2.74489	0.922878	0	
1.9000	1.84272	0.922878	0	
1.9007	0.614241	-0.615252	0	
1.9013	-0.902166	-0.905788	0	
1.9020	-1.51641	-0.615252	0	
1.9027	-0.614241	-0.905788	0	
1.9033	0	-1.52104	0	
1.9040	0.614241	-0.307626	0	
1.9047	1.84272	2.13629	0	
1.9053	1.5356	3.3668	0	
1.9060	-0.614241	2.13629	0	
1.9067	0	3.05917	0	
1.9073	1.84272	4.58021	0	
1.9080	2.43777	2.75154	0	
1.9087	3.66625	0.922878	0	
1.9093	6.10402	2.75154	0	
1.9100	5.7969	3.65733	0	
1.9107	5.48978	3.96496	0	
1.9113	6.10402	5.79363	0	
1.9120	4.28049	5.19546	0	
1.9127	0.921361	0.922878	0	
1.9133	0.30712	-0.905788	0	
1.9140	1.22848	0	0	
1.9147	1.22848	0	0	
1.9153	0.614241	-1.21341	0	
1.9160	-0.902166	-3.34971	0	
1.9167	-2.43777	-5.486	0	
1.9173	-3.66625	-6.10125	0	
1.9180	-4.56842	-1.82867	0	
1.9187	-4.56842	2.75154	0	
1.9193	-3.95418	-0.307626	0	
1.9200	-5.18266	-8.23754	0	
1.9207	-6.10402	-9.16042	0	
1.9213	-5.7969	-3.34971	0	
1.9220	-6.10402	-2.13629	0	
1.9227	-6.41114	-5.17837	0	
1.9233	-5.18266	-4.27259	0	
1.9240	-2.74489	-2.13629	0	
1.9247	-1.82353	-0.905788	0	
1.9253	-2.74489	2.75154	0	
1.9260	-2.43777	7.02413	0	
1.9267	0.30712	7.63938	0	
1.9273	1.22848	6.10125	0	
1.9280	0.921361	4.58021	0	
1.9287	3.05201	3.3668	0	
1.9293	4.58761	1.82867	0	
1.9300	1.84272	1.2305	0	
1.9307	0	4.27259	0	
1.9313	0.614241	6.7165	0	
1.9320	0.921361	2.75154	0	
1.9327	0.921361	-2.75154	0	
1.9333	0.30712	-4.58021	0	
1.9340	-0.902166	-6.40888	0	
1.9347	-1.51641	-7.31467	0	
1.9353	-1.82353	-3.96496	0	
1.9360	-2.13065	-1.21341	0	
1.9367	-0.614241	-3.34971	0	
1.9373	0.30712	-3.65733	0	
1.9380	-0.30712	1.82867	0	
1.9387	0.921361	6.10125	0	
1.9393	1.84272	3.3668	0	
1.9400	-1.51641	1.82867	0	
1.9407	-3.05201	3.65733	0	
1.9413	0	0.615252	0	
1.9420	2.13065	-2.75154	0	
1.9427	2.13065	-0.905788	0	
1.9433	0.921361	0	0	
1.9440	-0.902166	-0.905788	0	
1.9447	-0.30712	0.922878	0	
1.9453	0.921361	1.2305	0	
1.9460	-0.614241	1.2305	0	
1.9467	-2.74489	5.19546	0	
1.9473	-3.95418	7.33176	0	
1.9480	-3.66625	4.58021	0	
1.9487	-0.902166	2.75154	0	
1.9493	1.22848	2.75154	0	
1.9500	0	1.2305	0	
1.9507	0.921361	0	0	
1.9513	3.97337	-0.615252	0	
1.9520	5.48978	-2.13629	0	
1.9527	4.58761	-2.44392	0	
1.9533	2.13065	-2.44392	0	
1.9540	-1.82353	-4.88784	0	
1.9547	-1.51641	-6.40888	0	
1.9553	1.84272	-2.13629	0	
1.9560	1.84272	1.2305	0	
1.9567	-0.614241	-1.21341	0	
1.9573	-2.74489	-1.82867	0	
1.9580	-3.05201	3.05917	0	
1.9587	-1.20929	4.27259	0	
1.9593	-0.614241	-1.52104	0	
1.9600	-3.95418	-5.486	0	
1.9607	-4.87554	-4.58021	0	
1.9613	-2.43777	-3.65733	0	
1.9620	-1.82353	-4.27259	0	
1.9627	-1.82353	-7.92992	0	
1.9633	0.921361	-12.8178	0	
1.9640	0.614241	-12.2025	0	
1.9647	-1.82353	-6.7165	0	
1.9653	-0.614241	-3.34971	0	
1.9660	2.74489	-2.44392	0	
1.9667	2.43777	-0.615252	0	
1.9673	0	0.922878	0	
1.9680	-0.30712	0.922878	0	
1.9687	-0.30712	-0.615252	0	
1.9693	-1.51641	0.307626	0	
1.9700	-0.614241	4.27259	0	
1.9707	-0.614241	5.50309	0	
1.9713	-3.35913	0	0	
1.9720	-3.05201	-4.58021	0	
1.9727	-0.902166	-6.40888	0	
1.9733	-1.20929	-9.16042	0	
1.9740	0.614241	-12.5101	0	
1.9747	4.28049	-11.2967	0	
1.9753	3.05201	-8.8528	0	
1.9760	2.13065	-5.79363	0	
1.9767	7.02538	-1.52104	0	
1.9773	9.77027	-1.52104	0	
1.9780	9.46315	-7.31467	0	
1.9787	12.5152	-12.2025	0	
1.9793	15.5672	-11.5873	0	
1.9800	16.4885	-7.31467	0	
1.9807	18.6192	-5.17837	0	
1.9813	18.9263	-13.433	0	
1.9820	15.8743	-26.8489	0	
1.9827	14.3387	-31.1215	0	
1.9833	13.7436	-22.884	0	
1.9840	13.1294	-10.6815	0	
1.9847	14.6458	-7.02413	0	
1.9853	17.3907	-15.5693	0	
1.9860	19.5405	-21.3629	0	
1.9867	16.4885	-10.3738	0	
1.9873	5.7969	5.19546	0	
1.9880	-5.48978	17.398	0	
1.9887	-10.9796	28.0794	0	
1.9893	-9.15603	27.7718	0	
1.9900	-2.43777	18.6114	0	
1.9907	-0.30712	22.5763	0	
1.9913	-10.0582	37.5304	0	
1.9920	-21.6712	40.2819	0	
1.9927	-25.3182	32.6596	0	
1.9933	-25.9325	26.2508	0	
1.9940	-21.3641	18.919	0	
1.9947	-8.23467	11.2967	0	
1.9953	3.66625	7.33176	0	
1.9960	9.15603	4.58021	0	
1.9967	13.4365	2.13629	0	
1.9973	15.5672	4.27259	0	
1.9980	11.9009	5.79363	0	
1.9987	3.35913	2.44392	0	
1.9993	-4.56842	-0.905788	0	
2.0000	-10.9796	1.52104	0	
2.0007	-20.7498	3.65733	0	
2.0013	-30.8272	0	0	
2.0020	-30.8272	-4.27259	0	
2.0027	-23.4947	-6.7165	0	
2.0033	-21.3641	-11.5873	0	
2.0040	-22.2662	-14.954	0	
2.0047	-15.5672	-10.3738	0	
2.0053	-3.66625	-7.62229	0	
2.0060	6.10402	-16.7827	0	
2.0067	11.5938	-25.9431	0	
2.0073	13.4365	-29.2928	0	
2.0080	20.1548	-32.9502	0	
2.0087	33.5721	-29.6005	0	
2.0093	40.2904	-11.8949	0	
2.0100	36.317	4.88784	0	
2.0107	33.8792	12.5101	0	
2.0113	32.9579	20.7477	0	
2.0120	26.2396	26.8489	0	
2.0127	12.208	24.1145	0	
2.0133	-15.5672	16.4751	0	
2.0140	-53.0934	7.63938	0	
2.0147	-68.6606	0.615252	0	
2.0153	-54.629	1.52104	0	
2.0160	-43.0352	8.54517	0	
2.0167	-41.1925	15.5693	0	
2.0173	-31.4223	19.8419	0	
2.0180	-20.1356	17.7056	0	
2.0187	-17.3907	9.16042	0	
2.0193	-14.9529	1.82867	0	
2.0200	-10.6724	-4.58021	0	
2.0207	-10.0582	-15.5693	0	
2.0213	-8.23467	-21.6706	0	
2.0220	-3.05201	-23.4992	0	
2.0227	1.5356	-34.1807	0	
2.0233	7.94674	-40.5896	0	
2.0240	21.6712	-29.2928	0	
2.0247	33.265	-26.2508	0	
2.0253	35.3956	-39.6667	0	
2.0260	36.6241	-38.4533	0	
2.0267	43.0352	-17.398	0	
2.0273	47.6037	5.19546	0	
2.0280	47.0086	22.884	0	
2.0287	37.8526	26.2508	0	
2.0293	23.2068	25.6355	0	
2.0300	21.0569	47.9213	0	
2.0307	14.0508	69.5748	0	
2.0313	-34.4743	53.0997	0	
2.0320	-87.894	26.5584	0	
2.0327	-88.7962	20.1495	0	
2.0333	-63.7851	16.7827	0	
2.0340	-54.0148	7.33176	0	
2.0347	-42.421	0	0	
2.0353	-23.8018	-7.02413	0	
2.0360	-14.9529	-10.0662	0	
2.0367	-9.15603	-4.88784	0	
2.0373	-1.20929	-1.82867	0	
2.0380	1.84272	-4.58021	0	
2.0387	1.22848	-5.486	0	
2.0393	-0.902166	1.82867	0	
2.0400	-2.74489	12.5101	0	
2.0407	0	17.0903	0	
2.0413	-0.902166	9.77568	0	
2.0420	-10.0582	-3.96496	0	
2.0427	-11.9009	-15.2617	0	
2.0433	-6.10402	-17.398	0	
2.0440	-4.87554	-8.8528	0	
2.0447	-0.902166	0	0	
2.0453	7.3325	0	0	
2.0460	3.66625	-6.7165	0	
2.0467	-4.87554	-10.9891	0	
2.0473	-1.20929	-7.31467	0	
2.0480	4.28049	2.44392	0	
2.0487	1.84272	8.8528	0	
2.0493	4.58761	3.65733	0	
2.0500	12.8223	-3.04208	0	
2.0507	11.9009	-1.52104	0	
2.0513	6.10402	-0.905788	0	
2.0520	7.94674	-4.58021	0	
2.0527	10.3845	-9.16042	0	
2.0533	6.41114	-13.7235	0	
2.0540	4.58761	-16.7827	0	
2.0547	8.23467	-13.7235	0	
2.0553	10.6916	-8.8528	0	
2.0560	10.6916	1.82867	0	
2.0567	10.0774	20.1495	0	
2.0573	10.0774	25.9431	0	
2.0580	11.9009	10.3738	0	
2.0587	14.6458	-6.40888	0	
2.0593	15.5672	-9.45096	0	
2.0600	15.8743	-4.58021	0	
2.0607	14.0508	-3.04208	0	
2.0613	5.18266	-6.40888	0	
2.0620	-4.87554	-9.75858	0	
2.0627	-5.48978	-8.23754	0	
2.0633	2.74489	-6.40888	0	
2.0640	8.23467	-5.486	0	
2.0647	7.63962	-0.307626	0	
2.0653	3.66625	6.7165	0	
2.0660	0	7.33176	0	
2.0667	0	3.3668	0	
2.0673	4.28049	1.82867	0	
2.0680	8.23467	4.58021	0	
2.0687	7.94674	7.33176	0	
2.0693	0.921361	8.23754	0	
2.0700	-8.23467	15.2617	0	
2.0707	-7.92755	27.4642	0	
2.0713	2.74489	29.2928	0	
2.0720	7.63962	19.2266	0	
2.0727	3.66625	11.2967	0	
2.0733	3.05201	8.8528	0	
2.0740	6.10402	4.88784	0	
2.0747	3.66625	0.922878	0	
2.0753	2.74489	0.922878	0	
2.0760	7.94674	2.44392	0	
2.0767	12.208	1.82867	0	
2.0773	11.2867	-0.905788	0	
2.0780	12.8223	-2.75154	0	
2.0787	13.7436	-2.75154	0	
2.0793	7.02538	-2.75154	0	
2.0800	0	-3.04208	0	
2.0807	0.614241	-0.905788	0	
2.0813	-1.82353	0.922878	0	
2.0820	-11.2867	-1.82867	0	
2.0827	-17.3907	-4.58021	0	
2.0833	-17.0836	-3.34971	0	
2.0840	-10.9796	-1.82867	0	
2.0847	-1.82353	-2.13629	0	
2.0853	3.35913	-2.75154	0	
2.0860	6.10402	-2.75154	0	
2.0867	8.23467	-3.96496	0	
2.0873	2.74489	-5.17837	0	
2.0880	-3.66625	-3.65733	0	
2.0887	3.66625	-2.13629	0	
2.0893	17.1028	-1.82867	0	
2.0900	19.2334	-3.65733	0	
2.0907	10.3845	-7.02413	0	
2.0913	-2.13065	-9.45096	0	
2.0920	-13.1102	-13.433	0	
2.0927	-24.109	-18.919	0	
2.0933	-39.369	-16.4751	0	
2.0940	-45.473	-6.40888	0	
2.0947	-32.0365	-3.65733	0	
2.0953	-15.8743	-9.16042	0	
2.0960	-8.54179	-10.0662	0	
2.0967	-2.13065	-3.34971	0	
2.0973	1.84272	3.65733	0	
2.0980	-2.13065	5.50309	0	
2.0987	-6.41114	2.75154	0	
2.0993	-4.56842	-1.52104	0	
2.1000	-1.82353	-7.02413	0	
2.1007	0.30712	-12.8178	0	
2.1013	-0.902166	-10.0662	0	
2.1020	-5.7969	-0.905788	0	
2.1027	-7.3133	1.2305	0	
2.1033	-4.56842	-3.34971	0	
2.1040	-3.95418	-3.65733	0	
2.1047	-1.82353	0.922878	0	
2.1053	3.97337	6.7165	0	
2.1060	8.54179	10.0662	0	
2.1067	10.9987	8.54517	0	
2.1073	17.3907	6.40888	0	
2.1080	25.3374	7.02413	0	
2.1087	33.5721	5.79363	0	
2.1093	43.6495	4.88784	0	
2.1100	50.6557	5.19546	0	
2.1107	42.421	0	0	
2.1113	20.4427	-8.23754	0	
2.1120	9.15603	-8.54517	0	
2.1127	19.8477	-8.23754	0	
2.1133	30.213	-17.7056	0	
2.1140	25.9517	-26.8489	0	
2.1147	19.5405	-21.6706	0	
2.1153	4.28049	-7.31467	0	
2.1160	-34.7814	-0.615252	0	
2.1167	-67.7392	-3.96496	0	
2.1173	-59.1975	-3.65733	0	
2.1180	-29.2916	4.27259	0	
2.1187	-14.6458	3.65733	0	
2.1193	-14.3387	-3.65733	0	
2.1200	-13.1102	-1.82867	0	
2.1207	-10.0582	3.3668	0	
2.1213	-15.5672	-4.27259	0	
2.1220	-26.5467	-10.6815	0	
2.1227	-24.7232	-0.905788	0	
2.1233	-15.8743	10.6815	0	
2.1240	-16.4693	8.23754	0	
2.1247	-16.7765	0.922878	0	
2.1253	-8.23467	1.2305	0	
2.1260	-3.95418	2.75154	0	
2.1267	-1.82353	-0.905788	0	
2.1273	5.7969	-0.905788	0	
2.1280	4.89473	0.615252	0	
2.1287	0	-7.62229	0	
2.1293	6.41114	-13.433	0	
2.1300	4.89473	-1.82867	0	
2.1307	-14.6458	12.2025	0	
2.1313	-24.109	14.6464	0	
2.1320	-19.5213	12.5101	0	
2.1327	-21.6712	14.6464	0	
2.1333	-19.8285	21.9782	0	
2.1340	-5.7969	27.4642	0	
2.1347	2.74489	24.7126	0	
2.1353	2.13065	21.9782	0	
2.1360	1.5356	21.9782	0	
2.1367	-1.82353	14.0312	0	
2.1373	-5.48978	-0.307626	0	
2.1380	-1.82353	-8.54517	0	
2.1387	3.35913	-10.0662	0	
2.1393	2.13065	-8.23754	0	
2.1400	-0.902166	-10.0662	0	
2.1407	0.30712	-15.5693	0	
2.1413	4.58761	-15.5693	0	
2.1420	6.41114	-12.2025	0	
2.1427	5.18266	-14.6464	0	
2.1433	3.66625	-15.5693	0	
2.1440	2.74489	-9.75858	0	
2.1447	3.97337	-1.82867	0	
2.1453	8.23467	7.33176	0	
2.1460	12.8223	10.6815	0	
2.1467	12.8223	4.27259	0	
2.1473	10.6916	1.82867	0	
2.1480	12.8223	7.92992	0	
2.1487	16.4885	9.16042	0	
2.1493	18.0049	5.79363	0	
2.1500	21.9783	3.65733	0	
2.1507	30.213	0.922878	0	
2.1513	33.8792	-0.307626	0	
2.1520	30.213	0.922878	0	
2.1527	21.9783	0.615252	0	
2.1533	6.10402	1.82867	0	
2.1540	-11.5938	3.05917	0	
2.1547	-18.6192	0.307626	0	
2.1553	-14.6458	-3.04208	0	
2.1560	-7.00618	-5.486	0	
2.1567	0.614241	-5.486	0	
2.1573	4.58761	0.615252	0	
2.1580	4.89473	1.82867	0	
2.1587	6.10402	-7.31467	0	
2.1593	6.71826	-8.8528	0	
2.1600	3.97337	2.75154	0	
2.1607	1.5356	5.50309	0	
2.1613	-0.614241	-5.486	0	
2.1620	-3.66625	-13.7235	0	
2.1627	-7.92755	-12.8178	0	
2.1633	-15.8743	-11.2967	0	
2.1640	-19.2142	-11.5873	0	
2.1647	-4.2613	-6.10125	0	
2.1653	11.2867	3.65733	0	
2.1660	7.3325	8.54517	0	
2.1667	0.30712	6.40888	0	
2.1673	0.921361	1.82867	0	
2.1680	-5.18266	-0.905788	0	
2.1687	-12.5152	2.75154	0	
2.1693	-6.71826	7.33176	0	
2.1700	-1.82353	2.75154	0	
2.1707	-5.48978	-1.52104	0	
2.1713	-7.00618	0.307626	0	
2.1720	-9.15603	-2.75154	0	
2.1727	-16.4693	-10.0662	0	
2.1733	-15.5672	-10.3738	0	
2.1740	-6.71826	-10.0662	0	
2.1747	-5.48978	-16.1675	0	
2.1753	-10.0582	-19.5343	0	
2.1760	-8.23467	-14.3388	0	
2.1767	-6.41114	-7.31467	0	
2.1773	-9.77027	-7.02413	0	
2.1780	-10.3653	-8.8528	0	
2.1787	-5.18266	-5.486	0	
2.1793	-1.20929	0	0	
2.1800	0.921361	6.40888	0	
2.1807	4.89473	14.954	0	
2.1813	6.71826	17.0903	0	
2.1820	7.3325	8.8528	0	
2.1827	9.77027	1.82867	0	
2.1833	7.94674	0.307626	0	
2.1840	5.18266	-1.21341	0	
2.1847	10.6916	-1.52104	0	
2.1853	13.7436	-0.905788	0	
2.1860	9.46315	-1.82867	0	
2.1867	10.0774	-2.75154	0	
2.1873	12.5152	-3.65733	0	
2.1880	10.3845	-5.79363	0	
2.1887	14.6458	-5.17837	0	
2.1893	19.2334	-4.27259	0	
2.1900	11.9009	-10.9891	0	
2.1907	7.3325	-14.954	0	
2.1913	12.8223	-6.7165	0	
2.1920	7.63962	0.307626	0	
2.1927	-3.66625	-2.75154	0	
2.1933	-6.71826	-4.58021	0	
2.1940	-6.41114	-2.13629	0	
2.1947	-3.35913	-0.615252	0	
2.1953	-0.902166	-0.905788	0	
2.1960	-11.9009	0	0	
2.1967	-24.4161	2.75154	0	
2.1973	-19.8285	3.65733	0	
2.1980	-11.5938	0.922878	0	
2.1987	-9.15603	1.82867	0	
2.1993	-4.2613	10.6815	0	
2.2000	1.22848	14.6464	0	
2.2007	0.30712	8.23754	0	
2.2013	-5.7969	5.50309	0	
2.2020	-14.6458	9.16042	0	
2.2027	-16.7765	8.23754	0	
2.2033	-10.0582	4.58021	0	
2.2040	-5.18266	4.58021	0	
2.2047	-4.2613	4.58021	0	
2.2053	-0.902166	2.75154	0	
2.2060	0.921361	2.44392	0	
2.2067	-0.902166	2.13629	0	
2.2073	-1.82353	3.65733	0	
2.2080	-2.43777	6.7165	0	
2.2087	-2.13065	4.58021	0	
2.2093	-1.51641	-0.615252	0	
2.2100	-0.902166	1.82867	0	
2.2107	5.18266	7.02413	0	
2.2113	13.4365	5.50309	0	
2.2120	12.5152	0.307626	0	
2.2127	7.94674	-0.615252	0	
2.2133	6.71826	-0.615252	0	
2.2140	5.48978	-1.52104	0	
2.2147	6.10402	-0.307626	0	
2.2153	10.3845	0	0	
2.2160	10.6916	-3.96496	0	
2.2167	9.15603	-6.40888	0	
2.2173	11.2867	-4.58021	0	
2.2180	9.15603	-3.34971	0	
2.2187	3.66625	-3.65733	0	
2.2193	-0.614241	-2.75154	0	
2.2200	-9.77027	-3.34971	0	
2.2207	-19.2142	-4.58021	0	
2.2213	-15.5672	-3.65733	0	
2.2220	-5.7969	-0.905788	0	
2.2227	-3.95418	0.615252	0	
2.2233	-7.3133	0.307626	0	
2.2240	-8.54179	-2.75154	0	
2.2247	-5.48978	-5.486	0	
2.2253	0.30712	-4.27259	0	
2.2260	6.41114	-3.65733	0	
2.2267	11.9009	-3.65733	0	
2.2273	18.3121	-0.905788	0	
2.2280	21.0569	1.52104	0	
2.2287	18.3121	-0.905788	0	
2.2293	11.2867	-3.65733	0	
2.2300	0	-4.88784	0	
2.2307	-10.0582	-7.31467	0	
2.2313	-9.15603	-8.8528	0	
2.2320	-6.71826	-8.23754	0	
2.2327	-18.0049	-7.31467	0	
2.2333	-23.8018	-1.52104	0	
2.2340	-12.5152	4.27259	0	
2.2347	-7.3133	0	0	
2.2353	-15.8743	-6.40888	0	
2.2360	-14.6458	-4.88784	0	
2.2367	-5.7969	-4.58021	0	
2.2373	-3.66625	-9.75858	0	
2.2380	-1.82353	-10.9891	0	
2.2387	3.05201	-9.45096	0	
2.2393	4.58761	-11.8949	0	
2.2400	4.58761	-15.5693	0	
2.2407	4.58761	-14.0312	0	
2.2413	2.74489	-4.88784	0	
2.2420	2.43777	3.65733	0	
2.2427	2.13065	0.615252	0	
2.2433	1.22848	-4.58021	0	
2.2440	2.13065	0	0	
2.2447	2.74489	7.02413	0	
2.2453	-0.30712	15.2617	0	
2.2460	-1.82353	30.5233	0	
2.2467	0.30712	35.1036	0	
2.2473	3.05201	20.1495	0	
2.2480	3.97337	9.16042	0	
2.2487	2.74489	8.8528	0	
2.2493	4.58761	8.54517	0	
2.2500	7.3325	9.46805	0	
2.2507	3.66625	10.3738	0	
2.2513	-0.902166	5.79363	0	
2.2520	0.614241	0.922878	0	
2.2527	1.84272	-0.615252	0	
2.2533	-0.614241	-3.04208	0	
2.2540	0	-6.10125	0	
2.2547	1.5356	-6.7165	0	
2.2553	0.921361	-1.52104	0	
2.2560	0.921361	7.02413	0	
2.2567	0.921361	8.23754	0	
2.2573	-0.614241	5.79363	0	
2.2580	-4.2613	6.40888	0	
2.2587	-5.48978	3.65733	0	
2.2593	-3.05201	-1.52104	0	
2.2600	-0.902166	3.65733	0	
2.2607	-2.13065	12.8178	0	
2.2613	-2.74489	10.9891	0	
2.2620	0.614241	4.88784	0	
2.2627	4.58761	3.65733	0	
2.2633	4.58761	3.3668	0	
2.2640	-0.902166	2.44392	0	
2.2647	-4.56842	3.3668	0	
2.2653	-1.51641	3.96496	0	
2.2660	-0.30712	0.922878	0	
2.2667	-3.66625	-1.82867	0	
2.2673	-6.71826	-1.21341	0	
2.2680	-8.23467	0.615252	0	
2.2687	-6.71826	0.922878	0	
2.2693	-0.614241	0.922878	0	
2.2700	1.84272	0.922878	0	
2.2707	-2.43777	1.52104	0	
2.2713	-2.43777	1.82867	0	
2.2720	1.84272	1.2305	0	
2.2727	1.84272	-1.82867	0	
2.2733	1.5356	-3.65733	0	
2.2740	2.74489	-3.04208	0	
2.2747	2.43777	-2.75154	0	
2.2753	2.74489	-3.65733	0	
2.2760	3.35913	-2.75154	0	
2.2767	-0.30712	-3.65733	0	
2.2773	-3.05201	-5.486	0	
2.2780	0	-6.40888	0	
2.2787	0.614241	-5.79363	0	
2.2793	-0.614241	-5.486	0	
2.2800	0.30712	-6.40888	0	
2.2807	0.921361	-5.486	0	
2.2813	-0.614241	-3.65733	0	
2.2820	-1.82353	-2.13629	0	
2.2827	-2.43777	-2.44392	0	
2.2833	0.614241	-3.34971	0	
2.2840	2.43777	-3.65733	0	
2.2847	-1.51641	-3.65733	0	
2.2853	-2.74489	-1.21341	0	
2.2860	0.921361	0	0	
2.2867	0.921361	-0.905788	0	
2.2873	-0.902166	-1.82867	0	
2.2880	1.22848	-3.65733	0	
2.2887	3.05201	-4.58021	0	
2.2893	2.74489	-1.52104	0	
2.2900	2.13065	0.615252	0	
2.2907	3.35913	-3.04208	0	
2.2913	4.58761	-3.65733	0	
2.2920	3.66625	-1.21341	0	
2.2927	1.84272	-1.82867	0	
2.2933	3.05201	-3.34971	0	
2.2940	2.74489	-1.82867	0	
2.2947	-1.20929	-0.905788	0	
2.2953	-0.902166	-1.52104	0	
2.2960	1.84272	-1.52104	0	
2.2967	-1.82353	-2.44392	0	
2.2973	-5.18266	-3.34971	0	
2.2980	-1.82353	-3.65733	0	
2.2987	0	-3.65733	0	
2.2993	-1.82353	-2.75154	0	
2.3000	-3.05201	-2.44392	0	
2.3007	-4.2613	-3.65733	0	
2.3013	-3.66625	-2.44392	0	
2.3020	-0.902166	0	0	
2.3027	0.921361	-0.307626	0	
2.3033	0.921361	0	0	
2.3040	1.84272	0.922878	0	
2.3047	1.22848	-0.615252	0	
2.3053	-1.82353	-1.82867	0	
2.3060	-0.614241	-0.905788	0	
2.3067	2.43777	-1.21341	0	
2.3073	2.74489	-2.13629	0	
2.3080	2.43777	0.307626	0	
2.3087	2.74489	2.75154	0	
2.3093	3.97337	3.3668	0	
2.3100	6.71826	3.65733	0	
2.3107	8.54179	3.05917	0	
2.3113	6.71826	0.922878	0	
2.3120	2.74489	0.922878	0	
2.3127	-0.902166	2.75154	0	
2.3133	-2.74489	1.2305	0	
2.3140	-4.56842	-0.307626	0	
2.3147	-4.56842	1.52104	0	
2.3153	-1.82353	1.2305	0	
2.3160	-2.74489	-2.75154	0	
2.3167	-6.71826	-4.27259	0	
2.3173	-7.3133	-2.75154	0	
2.3180	-8.84891	-1.52104	0	
2.3187	-12.208	-0.905788	0	
2.3193	-7.62043	0	0	
2.3200	0.921361	0.307626	0	
2.3207	3.66625	0.307626	0	
2.3213	4.58761	2.44392	0	
2.3220	3.97337	6.40888	0	
2.3227	2.13065	9.16042	0	
2.3233	4.58761	8.23754	0	
2.3240	6.41114	5.50309	0	
2.3247	0.921361	3.65733	0	
2.3253	-2.43777	1.82867	0	
2.3260	-0.902166	-0.615252	0	
2.3267	-1.82353	0	0	
2.3273	-1.51641	3.05917	0	
2.3280	1.5356	4.58021	0	
2.3287	0.921361	3.96496	0	
2.3293	1.5356	6.10125	0	
2.3300	5.18266	9.46805	0	
2.3307	4.89473	9.77568	0	
2.3313	1.84272	7.92992	0	
2.3320	0	6.40888	0	
2.3327	0	3.65733	0	
2.3333	-1.51641	0.922878	0	
2.3340	-3.66625	0.922878	0	
2.3347	-3.05201	0	0	
2.3353	0.921361	-2.44392	0	
2.3360	3.05201	-0.905788	0	
2.3367	2.74489	0.922878	0	
2.3373	6.10402	1.82867	0	
2.3380	10.6916	4.88784	0	
2.3387	9.15603	5.79363	0	
2.3393	5.48978	1.82867	0	
2.3400	6.41114	-0.905788	0	
2.3407	8.23467	-0.905788	0	
2.3413	6.41114	-0.905788	0	
2.3420	2.74489	0.615252	0	
2.3427	-3.66625	0.922878	0	
2.3433	-9.15603	-2.44392	0	
2.3440	-8.54179	-3.34971	0	
2.3447	-10.0582	-2.13629	0	
2.3453	-19.8285	-4.88784	0	
2.3460	-22.8805	-7.92992	0	
2.3467	-11.2867	-5.17837	0	
2.3473	-4.56842	-3.65733	0	
2.3480	-9.46315	-5.486	0	
2.3487	-10.9796	-2.75154	0	
2.3493	-9.15603	1.82867	0	
2.3500	-11.5938	1.82867	0	
2.3507	-10.9796	3.05917	0	
2.3513	-3.66625	9.16042	0	
2.3520	0.614241	10.9891	0	
2.3527	2.43777	8.23754	0	
2.3533	2.13065	6.40888	0	
2.3540	-2.43777	4.27259	0	
2.3547	-5.48978	0.307626	0	
2.3553	-3.95418	-1.21341	0	
2.3560	-2.13065	-0.905788	0	
2.3567	0.614241	-2.44392	0	
2.3573	3.05201	-3.65733	0	
2.3580	-1.20929	-3.65733	0	
2.3587	-7.92755	-2.13629	0	
2.3593	-5.48978	-2.75154	0	
2.3600	0.30712	-5.17837	0	
2.3607	0	-5.17837	0	
2.3613	-2.43777	-2.44392	0	
2.3620	-2.13065	-1.82867	0	
2.3627	-1.82353	-3.65733	0	
2.3633	-2.74489	-4.58021	0	
2.3640	-2.43777	-5.17837	0	
2.3647	-0.614241	-7.02413	0	
2.3653	0.614241	-5.17837	0	
2.3660	1.22848	-0.905788	0	
2.3667	2.43777	-0.905788	0	
2.3673	2.74489	-3.65733	0	
2.3680	2.43777	-2.75154	0	
2.3687	3.05201	-1.21341	0	
2.3693	3.97337	-1.52104	0	
2.3700	2.74489	-0.615252	0	
2.3707	0.921361	0	0	
2.3713	0.921361	-1.82867	0	
2.3720	3.35913	-3.34971	0	
2.3727	5.48978	-3.96496	0	
2.3733	4.58761	-4.58021	0	
2.3740	2.74489	-2.75154	0	
2.3747	3.66625	-2.44392	0	
2.3753	0.614241	-4.58021	0	
2.3760	-4.87554	-4.27259	0	
2.3767	-4.2613	-2.75154	0	
2.3773	-1.82353	-5.17837	0	
2.3780	-6.10402	-7.02413	0	
2.3787	-10.9796	-4.27259	0	
2.3793	-11.9009	-3.34971	0	
2.3800	-11.2867	-5.486	0	
2.3807	-9.77027	-5.79363	0	
2.3813	-8.54179	-3.34971	0	
2.3820	-7.62043	-2.13629	0	
2.3827	-3.95418	-3.65733	0	
2.3833	-0.30712	-5.486	0	
2.3840	0	-6.40888	0	
2.3847	3.05201	-6.40888	0	
2.3853	9.77027	-3.65733	0	
2.3860	12.8223	-1.82867	0	
2.3867	15.26	-3.04208	0	
2.3873	20.1548	-1.82867	0	
2.3880	21.9783	0.922878	0	
2.3887	16.7956	0	0	
2.3893	11.9009	-0.615252	0	
2.3900	9.15603	0.922878	0	
2.3907	6.71826	0	0	
2.3913	4.58761	-0.905788	0	
2.3920	2.13065	-0.905788	0	
2.3927	-0.30712	-1.21341	0	
2.3933	-2.74489	0	0	
2.3940	-3.95418	4.58021	0	
2.3947	-2.74489	4.58021	0	
2.3953	-0.30712	0.922878	0	
2.3960	0	-1.82867	0	
2.3967	0.30712	-2.75154	0	
2.3973	2.74489	-3.04208	0	
2.3980	2.74489	-1.82867	0	
2.3987	1.22848	-0.615252	0	
2.3993	-0.30712	-0.905788	0	
2.4000	-1.82353	-3.34971	0	
2.4007	-1.20929	-4.88784	0	
2.4013	0.921361	-2.44392	0	
2.4020	0	0	0	
2.4027	0	-0.905788	0	
2.4033	2.74489	0.307626	0	
2.4040	3.97337	1.82867	0	
2.4047	2.13065	-1.21341	0	
2.4053	1.84272	-3.04208	0	
2.4060	2.74489	0	0	
2.4067	4.58761	1.82867	0	
2.4073	7.3325	0	0	
2.4080	8.23467	0.615252	0	
2.4087	4.28049	2.44392	0	
2.4093	-2.74489	1.52104	0	
2.4100	-6.71826	0.615252	0	
2.4107	-5.18266	2.44392	0	
2.4113	0	3.65733	0	
2.4120	4.58761	4.58021	0	
2.4127	3.66625	5.50309	0	
2.4133	-1.82353	2.75154	0	
2.4140	-2.43777	-1.21341	0	
2.4147	1.84272	0.615252	0	
2.4153	0.921361	2.75154	0	
2.4160	-4.56842	-1.82867	0	
2.4167	-4.56842	-2.75154	0	
2.4173	-1.51641	0.922878	0	
2.4180	-1.51641	-1.21341	0	
2.4187	-2.74489	-7.31467	0	
2.4193	-4.56842	-7.31467	0	
2.4200	-4.87554	-4.58021	0	
2.4207	-2.74489	-3.65733	0	
2.4213	-2.13065	0.307626	0	
2.4220	-3.05201	5.50309	0	
2.4227	-1.82353	4.58021	0	
2.4233	-0.30712	0.307626	0	
2.4240	0	0.307626	0	
2.4247	1.5356	3.3668	0	
2.4253	1.84272	5.50309	0	
2.4260	0.921361	7.33176	0	
2.4267	0.921361	8.23754	0	
2.4273	0.921361	6.7165	0	
2.4280	0.614241	5.50309	0	
2.4287	1.84272	4.88784	0	
2.4293	0.30712	4.88784	0	
2.4300	-8.23467	3.96496	0	
2.4307	-13.7244	1.2305	0	
2.4313	-7.3133	0.922878	0	
2.4320	1.84272	3.05917	0	
2.4327	4.89473	1.82867	0	
2.4333	4.89473	-0.905788	0	
2.4340	3.97337	0	0	
2.4347	0.614241	0.615252	0	
2.4353	-2.74489	-1.21341	0	
2.4360	-2.13065	-3.65733	0	
2.4367	-1.82353	-7.31467	0	
2.4373	-3.35913	-10.9891	0	
2.4380	-1.82353	-10.9891	0	
2.4387	2.74489	-10.0662	0	
2.4393	3.66625	-8.8528	0	
2.4400	0.921361	-4.58021	0	
2.4407	-2.13065	-1.52104	0	
2.4413	-3.66625	-2.75154	0	
2.4420	-4.56842	-2.44392	0	
2.4427	-2.43777	2.13629	0	
2.4433	2.43777	7.33176	0	
2.4440	5.48978	10.3738	0	
2.4447	7.63962	12.2025	0	
2.4453	10.9987	10.3738	0	
2.4460	9.77027	5.50309	0	
2.4467	4.28049	2.75154	0	
2.4473	2.13065	3.65733	0	
2.4480	3.66625	3.65733	0	
2.4487	4.28049	2.75154	0	
2.4493	3.97337	1.82867	0	
2.4500	3.05201	1.82867	0	
2.4507	1.22848	3.65733	0	
2.4513	-0.902166	4.58021	0	
2.4520	-6.41114	2.75154	0	
2.4527	-14.6458	0.922878	0	
2.4533	-16.4693	0.615252	0	
2.4540	-11.9009	-2.75154	0	
2.4547	-9.15603	-5.486	0	
2.4553	-8.54179	-3.04208	0	
2.4560	-5.7969	0	0	
2.4567	-3.35913	-1.52104	0	
2.4573	-3.35913	-2.75154	0	
2.4580	-1.82353	-2.13629	0	
2.4587	2.43777	-0.307626	0	
2.4593	2.74489	1.82867	0	
2.4600	0.30712	0.922878	0	
2.4607	2.43777	-2.75154	0	
2.4613	4.28049	-2.13629	0	
2.4620	2.13065	0.922878	0	
2.4627	1.84272	-0.615252	0	
2.4633	3.66625	-3.65733	0	
2.4640	1.5356	-5.486	0	
2.4647	0	-8.8528	0	
2.4653	2.74489	-10.0662	0	
2.4660	4.28049	-4.88784	0	
2.4667	0.921361	-1.82867	0	
2.4673	-4.2613	-3.04208	0	
2.4680	-8.54179	-2.75154	0	
2.4687	-8.84891	-1.52104	0	
2.4693	-5.7969	-2.13629	0	
2.4700	-4.2613	-0.307626	0	
2.4707	-2.74489	2.44392	0	
2.4713	0	1.2305	0	
2.4720	1.84272	-1.52104	0	
2.4727	-0.614241	-3.96496	0	
2.4733	-2.74489	-8.23754	0	
2.4740	-3.05201	-9.75858	0	
2.4747	-0.614241	-10.0662	0	
2.4753	0.614241	-10.6815	0	
2.4760	-3.35913	-8.23754	0	
2.4767	-8.84891	-7.31467	0	
2.4773	-8.54179	-10.6815	0	
2.4780	-5.18266	-10.0662	0	
2.4787	-5.48978	-6.7165	0	
2.4793	-7.92755	-8.23754	0	
2.4800	-8.23467	-6.10125	0	
2.4807	-7.00618	0.922878	0	
2.4813	-5.18266	3.65733	0	
2.4820	-3.35913	3.96496	0	
2.4827	-3.35913	7.33176	0	
2.4833	-4.87554	8.23754	0	
2.4840	-3.05201	9.16042	0	
2.4847	-0.614241	11.912	0	
2.4853	-0.614241	11.912	0	
2.4860	1.84272	9.46805	0	
2.4867	7.94674	8.54517	0	
2.4873	10.9987	7.92992	0	
2.4880	9.77027	8.23754	0	
2.4887	10.0774	6.40888	0	
2.4893	8.54179	2.75154	0	
2.4900	3.35913	3.96496	0	
2.4907	0.921361	7.33176	0	
2.4913	3.66625	3.65733	0	
2.4920	6.71826	-0.307626	0	
2.4927	6.41114	0	0	
2.4933	6.41114	0	0	
2.4940	8.84891	-1.52104	0	
2.4947	10.3845	-1.82867	0	
2.4953	10.3845	-3.34971	0	
2.4960	10.0774	-3.34971	0	
2.4967	7.94674	-0.307626	0	
2.4973	3.66625	-0.905788	0	
2.4980	1.84272	-5.17837	0	
2.4987	3.97337	-4.27259	0	
2.4993	5.18266	0	0	
2.5000	-5.48978	0	0	
2.5007	-22.8805	-1.52104	0	
2.5013	-26.2396	0.307626	0	
2.5020	-16.4693	1.2305	0	
2.5027	-11.5938	-1.82867	0	
2.5033	-12.208	-4.88784	0	
2.5040	-9.77027	-6.40888	0	
2.5047	-7.92755	-5.486	0	
2.5053	-7.00618	-3.96496	0	
2.5060	-3.95418	-3.65733	0	
2.5067	-4.2613	-2.13629	0	
2.5073	-4.87554	1.82867	0	
2.5080	0.921361	2.44392	0	
2.5087	6.41114	0	0	
2.5093	6.71826	2.75154	0	
2.5100	6.41114	7.02413	0	
2.5107	7.3325	4.58021	0	
2.5113	8.84891	1.2305	0	
2.5120	12.8223	3.05917	0	
2.5127	12.8223	1.82867	0	
2.5133	7.02538	-2.75154	0	
2.5140	2.74489	2.13629	0	
2.5147	0.614241	10.3738	0	
2.5153	0	9.16042	0	
2.5160	0.921361	5.50309	0	
2.5167	0.614241	6.40888	0	
2.5173	-4.87554	4.27259	0	
2.5180	-9.46315	-0.615252	0	
2.5187	-7.62043	-2.13629	0	
2.5193	-3.66625	-2.44392	0	
2.5200	-3.66625	-1.82867	0	
2.5207	-5.48978	0.922878	0	
2.5213	-3.95418	0.615252	0	
2.5220	-1.82353	-2.75154	0	
2.5227	-2.74489	-2.75154	0	
2.5233	-4.87554	-0.905788	0	
2.5240	-4.56842	-1.21341	0	
2.5247	-3.05201	-0.905788	0	
2.5253	-1.82353	0	0	
2.5260	1.84272	-1.21341	0	
2.5267	4.58761	-3.34971	0	
2.5273	4.58761	-3.96496	0	
2.5280	4.58761	-2.13629	0	
2.5287	5.48978	0	0	
2.5293	6.10402	-1.52104	0	
2.5300	7.94674	-3.96496	0	
2.5307	8.23467	-2.75154	0	
2.5313	5.48978	0.922878	0	
2.5320	5.7969	1.52104	0	
2.5327	10.3845	1.82867	0	
2.5333	10.0774	2.13629	0	
2.5340	6.41114	0.922878	0	
2.5347	5.18266	-0.905788	0	
2.5353	3.66625	0.615252	0	
2.5360	1.5356	4.58021	0	
2.5367	0.30712	3.65733	0	
2.5373	-2.43777	-2.75154	0	
2.5380	-3.95418	-4.27259	0	
2.5387	-0.614241	-2.44392	0	
2.5393	1.84272	-4.27259	0	
2.5400	0.614241	-5.486	0	
2.5407	0.614241	-3.65733	0	
2.5413	2.74489	-4.58021	0	
2.5420	3.35913	-7.62229	0	
2.5427	0.921361	-5.486	0	
2.5433	-1.20929	-3.04208	0	
2.5440	-0.902166	-3.04208	0	
2.5447	-0.902166	-3.04208	0	
2.5453	-2.43777	-5.486	0	
2.5460	-3.66625	-5.486	0	
2.5467	-2.43777	2.44392	0	
2.5473	1.22848	8.23754	0	
2.5480	4.89473	6.10125	0	
2.5487	3.05201	4.58021	0	
2.5493	0.614241	2.44392	0	
2.5500	4.58761	-0.615252	0	
2.5507	8.54179	1.82867	0	
2.5513	5.18266	4.58021	0	
2.5520	3.35913	1.2305	0	
2.5527	5.18266	-0.615252	0	
2.5533	2.74489	-0.307626	0	
2.5540	-0.614241	-2.44392	0	
2.5547	-1.82353	-2.75154	0	
2.5553	-5.48978	-1.82867	0	
2.5560	-7.92755	-4.27259	0	
2.5567	-6.41114	-7.02413	0	
2.5573	-8.54179	-8.8528	0	
2.5580	-10.6724	-12.8178	0	
2.5587	-6.71826	-17.7056	0	
2.5593	-4.87554	-17.7056	0	
2.5600	-7.62043	-11.5873	0	
2.5607	-6.41114	-5.79363	0	
2.5613	-3.66625	-2.75154	0	
2.5620	-4.2613	1.52104	0	
2.5627	-3.66625	5.50309	0	
2.5633	-2.43777	7.92992	0	
2.5640	-3.66625	12.8178	0	
2.5647	-3.66625	17.0903	0	
2.5653	0.921361	13.7406	0	
2.5660	4.58761	5.50309	0	
2.5667	2.74489	-1.52104	0	
2.5673	0.30712	-3.65733	0	
2.5680	1.84272	0.307626	0	
2.5687	3.35913	3.96496	0	
2.5693	2.74489	3.96496	0	
2.5700	3.66625	3.65733	0	
2.5707	5.48978	3.65733	0	
2.5713	5.48978	3.96496	0	
2.5720	3.35913	4.58021	0	
2.5727	0.921361	3.05917	0	
2.5733	-1.51641	1.2305	0	
2.5740	-1.20929	2.75154	0	
2.5747	2.74489	1.82867	0	
2.5753	5.7969	-0.615252	0	
2.5760	4.58761	-0.307626	0	
2.5767	0.30712	-2.13629	0	
2.5773	-1.20929	-5.17837	0	
2.5780	-0.30712	-3.34971	0	
2.5787	-2.43777	-0.905788	0	
2.5793	-5.48978	-2.44392	0	
2.5800	-4.56842	-0.905788	0	
2.5807	-2.13065	4.27259	0	
2.5813	-2.43777	7.33176	0	
2.5820	-1.51641	7.33176	0	
2.5827	0	4.58021	0	
2.5833	-1.51641	0	0	
2.5840	-4.2613	-1.52104	0	
2.5847	-2.74489	-1.82867	0	
2.5853	0.921361	-4.27259	0	
2.5860	0.30712	-4.88784	0	
2.5867	-3.66625	-1.21341	0	
2.5873	-4.56842	1.82867	0	
2.5880	-2.43777	3.96496	0	
2.5887	-0.902166	7.33176	0	
2.5893	-0.30712	10.0662	0	
2.5900	1.22848	10.9891	0	
2.5907	2.74489	9.16042	0	
2.5913	5.18266	5.19546	0	
2.5920	7.02538	2.75154	0	
2.5927	7.94674	2.75154	0	
2.5933	8.23467	0.615252	0	
2.5940	8.23467	-0.905788	0	
2.5947	8.54179	1.82867	0	
2.5953	10.3845	2.13629	0	
2.5960	11.9009	-0.905788	0	
2.5967	13.1294	-1.82867	0	
2.5973	12.5152	-1.82867	0	
2.5980	3.66625	-2.75154	0	
2.5987	-8.54179	-3.65733	0	
2.5993	-13.4173	-3.65733	0	
2.6000	-10.3653	-3.04208	0	
2.6007	-7.3133	-0.615252	0	
2.6013	-6.71826	1.82867	0	
2.6020	-10.9796	2.13629	0	
2.6027	-21.3641	1.82867	0	
2.6033	-32.9579	0.615252	0	
2.6040	-35.7027	0	0	
2.6047	-27.4681	1.52104	0	
2.6053	-18.0049	1.52104	0	
2.6060	-12.8223	0	0	
2.6067	-9.77027	-0.905788	0	
2.6073	-7.3133	-1.82867	0	
2.6080	-3.95418	-1.82867	0	
2.6087	-0.902166	-1.52104	0	
2.6093	0	-4.58021	0	
2.6100	2.43777	-7.31467	0	
2.6107	7.3325	-3.96496	0	
2.6113	7.94674	-3.04208	0	
2.6120	2.74489	-7.31467	0	
2.6127	-1.82353	-5.17837	0	
2.6133	-3.95418	2.75154	0	
2.6140	-6.10402	4.58021	0	
2.6147	-5.18266	1.2305	0	
2.6153	-1.20929	-0.307626	0	
2.6160	1.84272	-1.82867	0	
2.6167	1.84272	-2.13629	0	
2.6173	0.30712	-1.21341	0	
2.6180	0	-3.34971	0	
2.6187	-0.30712	-5.486	0	
2.6193	-1.51641	-4.58021	0	
2.6200	-1.82353	-4.58021	0	
2.6207	-1.82353	-6.40888	0	
2.6213	-2.43777	-6.10125	0	
2.6220	-2.74489	-5.79363	0	
2.6227	-1.82353	-6.7165	0	
2.6233	-0.614241	-6.10125	0	
2.6240	1.84272	-5.486	0	
2.6247	4.58761	-2.13629	0	
2.6253	7.02538	7.02413	0	
2.6260	5.48978	11.912	0	
2.6267	2.13065	6.40888	0	
2.6273	0.921361	1.2305	0	
2.6280	2.74489	-0.307626	0	
2.6287	6.41114	-2.75154	0	
2.6293	11.2867	-2.44392	0	
2.6300	13.4365	-0.905788	0	
2.6307	11.9009	-3.65733	0	
2.6313	11.2867	-3.65733	0	
2.6320	12.8223	0.307626	0	
2.6327	14.0508	-0.905788	0	
2.6333	14.0508	-3.65733	0	
2.6340	10.6916	-1.21341	0	
2.6347	6.71826	-1.52104	0	
2.6353	5.7969	-1.82867	0	
2.6360	4.28049	5.79363	0	
2.6367	-0.902166	11.2967	0	
2.6373	-7.92755	6.40888	0	
2.6380	-16.4693	0.615252	0	
2.6387	-21.3641	-2.44392	0	
2.6393	-17.3907	-3.65733	0	
2.6400	-10.0582	-1.21341	0	
2.6407	-7.00618	-0.905788	0	
2.6413	-6.41114	-3.65733	0	
2.6420	-7.3133	-2.44392	0	
2.6427	-6.41114	-0.905788	0	
2.6433	-1.82353	-1.82867	0	
2.6440	0	0.922878	0	
2.6447	-0.902166	1.82867	0	
2.6453	0	-0.905788	0	
2.6460	0.614241	-0.905788	0	
2.6467	0	1.52104	0	
2.6473	4.89473	-0.615252	0	
2.6480	9.15603	-0.905788	0	
2.6487	6.10402	1.82867	0	
2.6493	4.28049	0.922878	0	
2.6500	5.48978	-1.21341	0	
2.6507	5.7969	0.615252	0	
2.6513	6.41114	3.05917	0	
2.6520	7.63962	2.75154	0	
2.6527	5.18266	0.615252	0	
2.6533	2.74489	-3.65733	0	
2.6540	0.921361	-7.02413	0	
2.6547	1.5356	-5.79363	0	
2.6553	5.48978	-3.04208	0	
2.6560	6.10402	-2.44392	0	
2.6567	0	-0.905788	0	
2.6573	-3.05201	2.75154	0	
2.6580	-2.43777	4.58021	0	
2.6587	-3.05201	7.02413	0	
2.6593	-0.614241	10.0662	0	
2.6600	1.5356	9.16042	0	
2.6607	-1.82353	7.33176	0	
2.6613	-1.82353	7.33176	0	
2.6620	3.97337	5.79363	0	
2.6627	3.05201	2.75154	0	
2.6633	-3.35913	0.922878	0	
2.6640	-6.41114	-1.21341	0	
2.6647	-7.00618	-1.82867	0	
2.6653	-5.48978	0.615252	0	
2.6660	-1.82353	0.922878	0	
2.6667	0.921361	1.52104	0	
2.6673	2.74489	4.27259	0	
2.6680	6.41114	3.65733	0	
2.6687	10.0774	0.922878	0	
2.6693	9.46315	0.615252	0	
2.6700	6.71826	0	0	
2.6707	7.94674	-0.905788	0	
2.6713	10.9987	0.615252	0	
2.6720	8.54179	0.922878	0	
2.6727	-1.51641	-2.13629	0	
2.6733	-13.4173	-3.04208	0	
2.6740	-18.9263	-1.52104	0	
2.6747	-13.7244	-1.82867	0	
2.6753	-7.3133	-2.44392	0	
2.6760	-7.3133	-0.615252	0	
2.6767	-9.77027	-0.615252	0	
2.6773	-10.0582	-3.96496	0	
2.6780	-8.84891	-8.23754	0	
2.6787	-4.2613	-8.54517	0	
2.6793	-1.51641	-8.23754	0	
2.6800	-3.05201	-12.2025	0	
2.6807	-2.43777	-15.5693	0	
2.6813	-0.30712	-12.2025	0	
2.6820	-2.43777	-9.16042	0	
2.6827	-2.43777	-10.3738	0	
2.6833	1.84272	-7.31467	0	
2.6840	2.74489	0	0	
2.6847	2.74489	3.05917	0	
2.6853	6.10402	8.54517	0	
2.6860	8.84891	18.3038	0	
2.6867	6.10402	18.6114	0	
2.6873	-1.82353	9.77568	0	
2.6880	-7.3133	5.50309	0	
2.6887	-3.35913	4.58021	0	
2.6893	1.22848	0.922878	0	
2.6900	0.30712	-0.615252	0	
2.6907	0.921361	2.75154	0	
2.6913	2.74489	3.65733	0	
2.6920	0.921361	1.82867	0	
2.6927	0	0	0	
2.6933	0.921361	-0.307626	0	
2.6940	0	-1.82867	0	
2.6947	-0.902166	-3.34971	0	
2.6953	0	-2.44392	0	
2.6960	0	0.922878	0	
2.6967	0.921361	2.75154	0	
2.6973	2.43777	0.615252	0	
2.6980	2.74489	-3.04208	0	
2.6987	2.74489	-4.88784	0	
2.6993	2.74489	-4.58021	0	
2.7000	1.84272	-3.96496	0	
2.7007	0.921361	-4.58021	0	
2.7013	0.614241	-4.88784	0	
2.7020	0.921361	-5.486	0	
2.7027	1.84272	-6.40888	0	
2.7033	0.30712	-7.02413	0	
2.7040	-3.95418	-8.23754	0	
2.7047	-3.35913	-9.75858	0	
2.7053	-0.30712	-7.31467	0	
2.7060	-2.13065	-3.04208	0	
2.7067	-3.66625	-0.615252	0	
2.7073	-0.902166	4.58021	0	
2.7080	0.30712	9.16042	0	
2.7087	-0.902166	5.19546	0	
2.7093	0	-0.905788	0	
2.7100	2.74489	-0.307626	0	
2.7107	4.58761	0.307626	0	
2.7113	3.97337	-1.82867	0	
2.7120	1.84272	0	0	
2.7127	2.74489	1.82867	0	
2.7133	6.41114	0	0	
2.7140	6.10402	0.922878	0	
2.7147	1.84272	5.79363	0	
2.7153	0.30712	10.0662	0	
2.7160	0.921361	10.0662	0	
2.7167	0.614241	3.96496	0	
2.7173	-2.13065	-0.905788	0	
2.7180	-5.18266	0	0	
2.7187	-6.10402	2.75154	0	
2.7193	-4.2613	3.3668	0	
2.7200	-3.66625	2.44392	0	
2.7207	-5.48978	0.307626	0	
2.7213	-6.41114	-1.52104	0	
2.7220	-4.2613	-1.52104	0	
2.7227	-2.43777	-0.905788	0	
2.7233	-4.56842	0.922878	0	
2.7240	-6.41114	1.82867	0	
2.7247	-2.74489	0.922878	0	
2.7253	2.74489	0.615252	0	
2.7260	4.28049	2.44392	0	
2.7267	4.58761	3.05917	0	
2.7273	6.41114	1.52104	0	
2.7280	8.23467	0.615252	0	
2.7287	7.94674	-0.905788	0	
2.7293	5.7969	-2.13629	0	
2.7300	5.48978	-0.905788	0	
2.7307	7.94674	1.52104	0	
2.7313	9.77027	0.615252	0	
2.7320	8.23467	-1.82867	0	
2.7327	0.921361	-0.905788	0	
2.7333	-11.2867	1.82867	0	
2.7340	-15.8743	0.922878	0	
2.7347	-7.00618	-3.04208	0	
2.7353	1.5356	-7.62229	0	
2.7360	0.921361	-9.16042	0	
2.7367	-1.82353	-7.31467	0	
2.7373	-4.2613	-6.40888	0	
2.7380	-6.71826	-6.7165	0	
2.7387	-4.56842	-4.58021	0	
2.7393	-0.614241	-2.13629	0	
2.7400	-1.20929	-0.905788	0	
2.7407	-0.30712	1.82867	0	
2.7413	4.58761	4.58021	0	
2.7420	4.28049	3.3668	0	
2.7427	0	-0.615252	0	
2.7433	0	0.307626	0	
2.7440	1.5356	3.96496	0	
2.7447	-0.30712	2.75154	0	
2.7453	0	-2.13629	0	
2.7460	1.84272	-1.82867	0	
2.7467	1.84272	2.13629	0	
2.7473	1.84272	2.75154	0	
2.7480	3.66625	1.2305	0	
2.7487	7.3325	2.75154	0	
2.7493	8.54179	4.27259	0	
2.7500	1.84272	3.05917	0	
2.7507	-6.71826	1.82867	0	
2.7513	-6.41114	1.2305	0	
2.7520	-3.05201	0.307626	0	
2.7527	-2.74489	0	0	
2.7533	1.84272	-0.905788	0	
2.7540	9.15603	-1.21341	0	
2.7547	7.02538	-1.82867	0	
2.7553	-3.95418	-3.04208	0	
2.7560	-10.0582	-2.44392	0	
2.7567	-5.18266	0.922878	0	
2.7573	0.30712	1.82867	0	
2.7580	-3.66625	-0.905788	0	
2.7587	-9.15603	-1.52104	0	
2.7593	-6.41114	-1.21341	0	
2.7600	-3.35913	-2.13629	0	
2.7607	-4.87554	-1.21341	0	
2.7613	-5.7969	0.922878	0	
2.7620	-5.48978	1.82867	0	
2.7627	-6.71826	2.13629	0	
2.7633	-6.10402	1.82867	0	
2.7640	-4.56842	0.922878	0	
2.7647	-3.95418	-0.615252	0	
2.7653	0	-1.21341	0	
2.7660	2.74489	-1.21341	0	
2.7667	-2.13065	-2.13629	0	
2.7673	-6.71826	-0.905788	0	
2.7680	-5.18266	4.58021	0	
2.7687	-2.43777	7.63938	0	
2.7693	-0.614241	4.88784	0	
2.7700	0	0.922878	0	
2.7707	-0.902166	-0.905788	0	
2.7713	0.30712	-0.905788	0	
2.7720	2.74489	0.615252	0	
2.7727	3.35913	0.922878	0	
2.7733	3.66625	0	0	
2.7740	3.66625	-0.615252	0	
2.7747	3.05201	0	0	
2.7753	3.66625	0.615252	0	
2.7760	4.58761	0.307626	0	
2.7767	3.66625	-1.82867	0	
2.7773	3.35913	-3.65733	0	
2.7780	2.74489	-3.65733	0	
2.7787	0.30712	-2.75154	0	
2.7793	0.921361	-2.44392	0	
2.7800	0.614241	-2.75154	0	
2.7807	-3.66625	-2.44392	0	
2.7813	-3.35913	-1.52104	0	
2.7820	0.614241	-0.307626	0	
2.7827	-0.902166	0	0	
2.7833	-3.66625	-0.905788	0	
2.7840	0	-1.82867	0	
2.7847	2.74489	-2.13629	0	
2.7853	1.84272	-1.21341	0	
2.7860	0.614241	-0.905788	0	
2.7867	-0.30712	-1.21341	0	
2.7873	-1.20929	0	0	
2.7880	-0.614241	2.44392	0	
2.7887	0.921361	2.44392	0	
2.7893	0.921361	-0.615252	0	
2.7900	-0.902166	-3.34971	0	
2.7907	-1.82353	-3.65733	0	
2.7913	-0.902166	-2.75154	0	
2.7920	-1.51641	-3.65733	0	
2.7927	-1.82353	-8.23754	0	
2.7933	-0.614241	-12.2025	0	
2.7940	-0.614241	-8.8528	0	
2.7947	-1.82353	0	0	
2.7953	-0.614241	7.02413	0	
2.7960	0.30712	6.7165	0	
2.7967	-1.82353	3.05917	0	
2.7973	-3.95418	2.44392	0	
2.7980	-2.74489	3.65733	0	
2.7987	-0.30712	1.82867	0	
2.7993	-3.35913	-0.905788	0	
2.8000	-8.84891	-1.21341	0	
2.8007	-7.62043	-2.75154	0	
2.8013	-2.43777	-7.62229	0	
2.8020	-1.82353	-10.3738	0	
2.8027	-3.95418	-10.0662	0	
2.8033	-3.35913	-13.7235	0	
2.8040	-1.82353	-19.5343	0	
2.8047	-1.82353	-15.8598	0	
2.8053	0	-3.34971	0	
2.8060	2.74489	4.27259	0	
2.8067	4.58761	-0.307626	0	
2.8073	2.74489	-6.40888	0	
2.8080	-2.13065	-4.88784	0	
2.8087	-3.95418	0.922878	0	
2.8093	0.921361	7.02413	0	
2.8100	4.89473	13.7406	0	
2.8107	4.58761	19.5343	0	
2.8113	3.66625	18.3038	0	
2.8120	2.74489	11.2967	0	
2.8127	1.5356	7.33176	0	
2.8133	0.921361	8.23754	0	
2.8140	1.5356	8.8528	0	
2.8147	1.84272	7.33176	0	
2.8153	-1.20929	5.19546	0	
2.8160	-4.2613	0.615252	0	
2.8167	-2.74489	-2.44392	0	
2.8173	-1.82353	1.2305	0	
2.8180	-3.95418	6.10125	0	
2.8187	-1.82353	7.02413	0	
2.8193	1.84272	5.79363	0	
2.8200	-0.902166	3.05917	0	
2.8207	-3.66625	-0.615252	0	
2.8213	-1.51641	-0.307626	0	
2.8220	-0.614241	0.922878	0	
2.8227	-0.614241	-0.307626	0	
2.8233	0.921361	-0.905788	0	
2.8240	-0.902166	1.2305	0	
2.8247	-5.48978	0.922878	0	
2.8253	-6.41114	-2.44392	0	
2.8260	-3.66625	-3.65733	0	
2.8267	-0.902166	-0.905788	0	
2.8273	1.22848	1.2305	0	
2.8280	1.22848	0.615252	0	
2.8287	0	-0.905788	0	
2.8293	-0.614241	0.615252	0	
2.8300	-0.30712	1.82867	0	
2.8307	0	-0.307626	0	
2.8313	0.921361	-2.75154	0	
2.8320	2.74489	-1.52104	0	
2.8327	1.5356	-0.905788	0	
2.8333	0	-3.04208	0	
2.8340	0.921361	-3.65733	0	
2.8347	0.921361	-3.04208	0	
2.8353	-2.43777	-2.75154	0	
2.8360	-3.66625	-4.58021	0	
2.8367	-0.30712	-5.17837	0	
2.8373	2.43777	-2.44392	0	
2.8380	0.921361	0	0	
2.8387	-1.82353	-1.82867	0	
2.8393	-2.43777	-2.75154	0	
2.8400	-2.74489	-0.905788	0	
2.8407	-6.71826	-1.52104	0	
2.8413	-8.23467	-2.75154	0	
2.8420	-4.2613	-1.52104	0	
2.8427	-2.43777	-1.52104	0	
2.8433	-4.2613	-0.905788	0	
2.8440	-2.74489	3.05917	0	
2.8447	-0.902166	3.65733	0	
2.8453	-1.20929	-0.307626	0	
2.8460	1.22848	-2.13629	0	
2.8467	5.48978	0	0	
2.8473	5.48978	3.3668	0	
2.8480	4.28049	5.79363	0	
2.8487	3.97337	3.65733	0	
2.8493	3.66625	0	0	
2.8500	2.74489	0	0	
2.8507	2.74489	1.52104	0	
2.8513	3.05201	1.2305	0	
2.8520	3.97337	0.307626	0	
2.8527	2.74489	-0.307626	0	
2.8533	0	-0.905788	0	
2.8540	0.921361	-2.13629	0	
2.8547	3.66625	-1.82867	0	
2.8553	5.48978	0.922878	0	
2.8560	6.41114	1.52104	0	
2.8567	7.3325	-1.52104	0	
2.8573	6.71826	-3.04208	0	
2.8580	4.89473	-2.75154	0	
2.8587	2.74489	-1.21341	0	
2.8593	0.30712	0.922878	0	
2.8600	0.614241	0.615252	0	
2.8607	0.30712	-2.75154	0	
2.8613	-1.82353	-2.75154	0	
2.8620	-1.82353	-2.13629	0	
2.8627	0	-3.65733	0	
2.8633	0	-5.486	0	
2.8640	0.30712	-5.79363	0	
2.8647	0.30712	-6.10125	0	
2.8653	-2.13065	-2.75154	0	
2.8660	-3.95418	2.44392	0	
2.8667	-2.74489	2.75154	0	
2.8673	-2.13065	0.922878	0	
2.8680	-2.13065	1.82867	0	
2.8687	1.22848	2.75154	0	
2.8693	7.3325	1.82867	0	
2.8700	13.1294	2.13629	0	
2.8707	16.4885	2.75154	0	
2.8713	17.1028	0.615252	0	
2.8720	16.4885	-1.82867	0	
2.8727	14.6458	-2.75154	0	
2.8733	9.15603	-3.65733	0	
2.8740	2.74489	-4.27259	0	
2.8747	-1.20929	-3.65733	0	
2.8753	-4.56842	-3.65733	0	
2.8760	-5.48978	-3.65733	0	
2.8767	-1.51641	-2.13629	0	
2.8773	1.84272	-2.44392	0	
2.8780	-4.56842	-2.44392	0	
2.8787	-18.6192	2.75154	0	
2.8793	-26.2396	7.33176	0	
2.8800	-21.6712	5.19546	0	
2.8807	-14.0316	0.922878	0	
2.8813	-12.5152	0.922878	0	
2.8820	-12.8223	1.2305	0	
2.8827	-10.0582	-0.307626	0	
2.8833	-5.48978	-3.04208	0	
2.8840	-4.2613	-5.486	0	
2.8847	-5.18266	-7.31467	0	
2.8853	-2.74489	-9.16042	0	
2.8860	0.921361	-9.45096	0	
2.8867	0.921361	-5.486	0	
2.8873	-1.82353	-1.52104	0	
2.8880	-1.51641	-1.52104	0	
2.8887	0.30712	2.13629	0	
2.8893	1.84272	8.54517	0	
2.8900	3.35913	6.40888	0	
2.8907	3.97337	0.922878	0	
2.8913	2.43777	4.27259	0	
2.8920	0.614241	8.23754	0	
2.8927	0.921361	6.10125	0	
2.8933	2.74489	3.65733	0	
2.8940	2.74489	1.2305	0	
2.8947	-0.30712	-0.615252	0	
2.8953	-5.7969	2.75154	0	
2.8960	-9.15603	6.40888	0	
2.8967	-7.62043	4.88784	0	
2.8973	-3.05201	2.75154	0	
2.8980	0.921361	1.2305	0	
2.8987	2.74489	-0.307626	0	
2.8993	2.74489	-0.615252	0	
2.9000	1.5356	-0.905788	0	
2.9007	2.74489	-1.21341	0	
2.9013	4.58761	0	0	
2.9020	5.48978	-2.75154	0	
2.9027	7.94674	-7.31467	0	
2.9033	10.3845	-7.31467	0	
2.9040	8.23467	-3.65733	0	
2.9047	4.28049	-1.82867	0	
2.9053	0.30712	-0.307626	0	
2.9060	-7.00618	0.922878	0	
2.9067	-11.2867	-2.13629	0	
2.9073	-8.54179	-3.65733	0	
2.9080	-4.2613	3.65733	0	
2.9087	-0.614241	13.433	0	
2.9093	2.74489	16.4751	0	
2.9100	2.74489	10.6815	0	
2.9107	2.74489	4.58021	0	
2.9113	5.18266	3.65733	0	
2.9120	2.74489	4.58021	0	
2.9127	-1.82353	1.82867	0	
2.9133	0.30712	-1.82867	0	
2.9140	3.97337	-7.31467	0	
2.9147	2.74489	-14.6464	0	
2.9153	0.614241	-15.2617	0	
2.9160	0	-10.9891	0	
2.9167	-0.614241	-12.2025	0	
2.9173	0.921361	-12.8178	0	
2.9180	3.05201	-6.40888	0	
2.9187	1.22848	-2.75154	0	
2.9193	-2.43777	-3.96496	0	
2.9200	-3.05201	-4.58021	0	
2.9207	-2.74489	-2.75154	0	
2.9213	-3.66625	3.65733	0	
2.9220	-2.74489	13.433	0	
2.9227	-0.902166	14.954	0	
2.9233	-2.13065	7.33176	0	
2.9240	-5.18266	3.65733	0	
2.9247	-3.35913	4.58021	0	
2.9253	0.921361	3.05917	0	
2.9260	2.43777	1.2305	0	
2.9267	3.35913	1.52104	0	
2.9273	4.58761	1.52104	0	
2.9280	2.43777	0.922878	0	
2.9287	-0.30712	0.922878	0	
2.9293	-0.30712	0.922878	0	
2.9300	0.921361	0.922878	0	
2.9307	1.84272	0.922878	0	
2.9313	1.22848	2.13629	0	
2.9320	0	2.75154	0	
2.9327	-0.902166	0.307626	0	
2.9333	-0.614241	-1.82867	0	
2.9340	2.13065	-1.52104	0	
2.9347	4.89473	-2.44392	0	
2.9353	5.18266	-3.65733	0	
2.9360	4.58761	-1.82867	0	
2.9367	6.41114	-0.905788	0	
2.9373	6.10402	-2.13629	0	
2.9380	2.43777	-2.44392	0	
2.9387	1.22848	-1.52104	0	
2.9393	1.5356	-0.905788	0	
2.9400	-0.30712	-0.905788	0	
2.9407	-0.30712	-2.13629	0	
2.9413	0.614241	-2.13629	0	
2.9420	-2.74489	-1.21341	0	
2.9427	-6.10402	-0.905788	0	
2.9433	-6.71826	-0.615252	0	
2.9440	-9.77027	-0.615252	0	
2.9447	-11.5938	-2.44392	0	
2.9453	-8.23467	-2.44392	0	
2.9460	-2.74489	0	0	
2.9467	1.5356	-1.82867	0	
2.9473	2.74489	-6.10125	0	
2.9480	-0.30712	-4.58021	0	
2.9487	-0.30712	0.307626	0	
2.9493	2.74489	1.82867	0	
2.9500	0	1.82867	0	
2.9507	-3.66625	2.75154	0	
2.9513	-1.82353	1.2305	0	
2.9520	0.30712	0.922878	0	
2.9527	-0.30712	6.40888	0	
2.9533	0.921361	9.16042	0	
2.9540	1.84272	4.58021	0	
2.9547	0.921361	0.615252	0	
2.9553	0.921361	0.615252	0	
2.9560	-0.30712	-0.905788	0	
2.9567	-2.13065	-2.75154	0	
2.9573	-0.614241	-1.52104	0	
2.9580	0	-1.82867	0	
2.9587	-3.66625	-2.75154	0	
2.9593	-6.10402	0	0	
2.9600	-6.41114	0.307626	0	
2.9607	-5.18266	-3.34971	0	
2.9613	-1.82353	-2.13629	0	
2.9620	0.921361	0	0	
2.9627	0	-2.75154	0	
2.9633	-1.51641	-0.905788	0	
2.9640	-0.30712	1.82867	0	
2.9647	0.30712	-2.44392	0	
2.9653	0	-4.27259	0	
2.9660	-1.20929	-2.13629	0	
2.9667	-2.74489	-3.65733	0	
2.9673	-2.13065	-4.27259	0	
2.9680	-0.614241	-0.307626	0	
2.9687	0	0	0	
2.9693	1.84272	-1.21341	0	
2.9700	2.74489	-1.52104	0	
2.9707	0.921361	-2.75154	0	
2.9713	0.921361	2.75154	0	
2.9720	2.74489	10.0662	0	
2.9727	1.84272	5.50309	0	
2.9733	0	-0.307626	0	
2.9740	2.74489	0.615252	0	
2.9747	3.97337	-0.905788	0	
2.9753	2.74489	-4.27259	0	
2.9760	1.22848	-0.615252	0	
2.9767	0	2.75154	0	
2.9773	-1.82353	0.307626	0	
2.9780	-1.82353	-3.04208	0	
2.9787	-3.66625	-5.79363	0	
2.9793	-8.23467	-6.7165	0	
2.9800	-10.9796	-4.88784	0	
2.9807	-7.92755	-4.88784	0	
2.9813	-2.74489	-5.79363	0	
2.9820	-0.30712	-3.65733	0	
2.9827	-0.902166	0.922878	0	
2.9833	0	5.50309	0	
2.9840	0.30712	7.02413	0	
2.9847	-1.82353	3.3668	0	
2.9853	-3.66625	-0.307626	0	
2.9860	-1.82353	0	0	
2.9867	0	0.922878	0	
2.9873	-0.30712	-0.905788	0	
2.9880	-1.82353	-3.04208	0	
2.9887	-2.74489	-2.75154	0	
2.9893	-2.43777	-0.615252	0	
2.9900	-2.74489	-0.905788	0	
2.9907	-3.05201	-3.34971	0	
2.9913	0.921361	-1.82867	0	
2.9920	5.48978	-0.905788	0	
2.9927	4.58761	-4.88784	0	
2.9933	2.74489	-6.40888	0	
2.9940	6.10402	-4.58021	0	
2.9947	7.3325	-2.75154	0	
2.9953	5.48978	2.44392	0	
2.9960	7.3325	7.33176	0	
2.9967	9.46315	5.50309	0	
2.9973	6.71826	2.13629	0	
2.9980	3.66625	1.52104	0	
2.9987	1.84272	-2.75154	0	
2.9993	-3.66625	-7.31467	0	
3.0000	-6.71826	-8.23754	0	
3.0007	-3.05201	-9.75858	0	
3.0013	-1.51641	-12.8178	0	
3.0020	-4.56842	-13.7235	0	
3.0027	-4.2613	-8.8528	0	
3.0033	-0.902166	-2.75154	0	
3.0040	-3.05201	-1.82867	0	
3.0047	-6.10402	-3.34971	0	
3.0053	-3.35913	2.75154	0	
