0.0007	-8.02064	9.39063	0	
0.0013	-8.32677	5.41855	0	
0.0020	-7.10224	-0.688799	0	
0.0027	-7.71451	-3.74248	0	
0.0033	-7.40837	-3.74248	0	
0.0040	-4.06134	-8.01303	0	
0.0047	-1.91842	-11.3652	0	
0.0053	2.34701	-9.82687	0	
0.0060	9.06148	-6.17623	0	
0.0067	9.97988	-1.6072	0	
0.0073	8.14309	3.9032	0	
0.0080	13.633	4.50016	0	
0.0087	20.3475	-1.28576	0	
0.0093	19.7353	-6.79615	0	
0.0100	17.9189	-8.31151	0	
0.0107	20.0414	-8.31151	0	
0.0113	21.572	-6.17623	0	
0.0120	18.225	2.36488	0	
0.0127	7.2247	10.0105	0	
0.0133	-8.32677	9.09215	0	
0.0140	-18.7148	5.41855	0	
0.0147	-18.4087	5.41855	0	
0.0153	-12.9187	2.68632	0	
0.0160	-7.10224	-3.74248	0	
0.0167	0.81635	-8.01303	0	
0.0173	6.3063	-7.69159	0	
0.0180	4.48992	-4.95935	0	
0.0187	-2.53068	-4.33944	0	
0.0193	-12.9187	-9.22991	0	
0.0200	-23.8986	-11.6637	0	
0.0207	-26.9395	-7.09463	0	
0.0213	-22.0619	-3.42104	0	
0.0220	-19.0209	-2.82408	0	
0.0227	-16.5719	1.76792	0	
0.0233	-11.3881	4.50016	0	
0.0240	-9.24516	1.148	0	
0.0247	-8.6329	-1.6072	0	
0.0253	-2.83682	-2.20416	0	
0.0260	2.65314	-3.42104	0	
0.0267	5.40832	-4.95935	0	
0.0273	7.2247	-8.93143	0	
0.0280	3.87766	-8.93143	0	
0.0287	2.65314	-0.987279	0	
0.0293	10.8983	-2.20416	0	
0.0300	17.0005	-15.6357	0	
0.0307	11.5105	-20.2048	0	
0.0313	6.3063	-16.5541	0	
0.0320	7.53083	-17.771	0	
0.0327	7.83696	-11.0667	0	
0.0333	4.48992	0.849519	0	
0.0340	3.57153	-3.74248	0	
0.0347	5.40832	-16.5541	0	
0.0353	2.95927	-10.7453	0	
0.0360	-3.14295	8.17375	0	
0.0367	-3.14295	18.2302	0	
0.0373	-3.75521	12.7428	0	
0.0380	-19.3271	1.148	0	
0.0387	-33.3479	-4.63792	0	
0.0393	-25.4293	-3.74248	0	
0.0400	-9.24516	-2.82408	0	
0.0407	-1.30616	-4.33944	0	
0.0413	2.65314	-7.69159	0	
0.0420	2.04087	-7.09463	0	
0.0427	-1.91842	4.20168	0	
0.0433	-1.30616	17.9317	0	
0.0440	0.81635	23.7406	0	
0.0447	-1.61229	27.0928	0	
0.0453	-0.102044	31.9832	0	
0.0460	6.3063	27.3913	0	
0.0467	9.06148	14.5796	0	
0.0473	7.2247	8.77071	0	
0.0480	4.48992	8.17375	0	
0.0487	2.34701	4.82159	0	
0.0493	2.65314	3.28328	0	
0.0500	3.2654	3.28328	0	
0.0507	2.34701	0.528079	0	
0.0513	0.81635	-1.28576	0	
0.0520	1.73474	-0.688799	0	
0.0527	1.42861	-2.20416	0	
0.0533	0.204087	-2.82408	0	
0.0540	1.73474	-1.90568	0	
0.0547	2.65314	-5.25783	0	
0.0553	0.81635	-6.47471	0	
0.0560	-0.102044	-4.33944	0	
0.0567	-1.00003	-13.7989	0	
0.0573	-9.55129	-29.3658	0	
0.0580	-15.6535	-33.9348	0	
0.0587	-7.71451	-29.3658	0	
0.0593	-2.83682	-20.8247	0	
0.0600	-8.93903	-11.3652	0	
0.0607	-8.93903	-10.1483	0	
0.0613	-2.53068	-6.47471	0	
0.0620	-2.22455	14.5796	0	
0.0627	-2.22455	32.8787	0	
0.0633	1.73474	24.659	0	
0.0640	4.48992	7.55383	0	
0.0647	7.53083	-0.987279	0	
0.0653	10.8983	-4.04096	0	
0.0660	11.2044	-1.90568	0	
0.0667	11.8167	6.33695	0	
0.0673	14.2453	12.1458	0	
0.0680	13.9392	13.0413	0	
0.0687	12.1228	14.5796	0	
0.0693	9.97988	13.9597	0	
0.0700	7.2247	6.33695	0	
0.0707	3.57153	-1.6072	0	
0.0713	0.81635	-1.90568	0	
0.0720	3.87766	0.2296	0	
0.0727	11.8167	0.849519	0	
0.0733	14.5514	5.12007	0	
0.0740	13.0208	12.7428	0	
0.0747	10.5921	15.498	0	
0.0753	1.73474	10.0105	0	
0.0760	-3.14295	2.36488	0	
0.0767	7.2247	-0.36736	0	
0.0773	16.3882	0.849519	0	
0.0780	13.633	2.68632	0	
0.0787	11.2044	5.41855	0	
0.0793	8.75535	5.41855	0	
0.0800	0.510219	2.9848	0	
0.0807	-5.89813	2.68632	0	
0.0813	-5.89813	3.58176	0	
0.0820	-2.83682	4.82159	0	
0.0827	1.73474	7.55383	0	
0.0833	-0.102044	7.25535	0	
0.0840	-8.6329	1.76792	0	
0.0847	-12.0003	-1.6072	0	
0.0853	-10.1636	-4.63792	0	
0.0860	-12.0003	-11.9621	0	
0.0867	-12.3065	-12.8805	0	
0.0873	-6.51039	-6.47471	0	
0.0880	-1.00003	-4.63792	0	
0.0887	-3.75521	-7.09463	0	
0.0893	-15.6535	-8.01303	0	
0.0900	-22.9802	-8.31151	0	
0.0907	-15.9596	-1.28576	0	
0.0913	-2.53068	12.1458	0	
0.0920	6.91856	11.8244	0	
0.0927	11.2044	-1.90568	0	
0.0933	10.286	-5.55631	0	
0.0940	7.53083	-0.0688799	0	
0.0947	6.3063	-3.12256	0	
0.0953	-2.83682	-8.60999	0	
0.0960	-22.9802	-4.95935	0	
0.0967	-33.3479	-0.688799	0	
0.0973	-24.2048	-3.12256	0	
0.0980	-15.6535	-5.55631	0	
0.0987	-19.3271	-4.63792	0	
0.0993	-20.8373	-2.20416	0	
0.1000	-12.0003	1.148	0	
0.1007	-4.36747	5.41855	0	
0.1013	-2.83682	9.39063	0	
0.1020	-1.00003	10.309	0	
0.1027	2.34701	6.33695	0	
0.1033	4.79605	3.28328	0	
0.1040	5.40832	4.50016	0	
0.1047	5.10219	4.50016	0	
0.1053	4.79605	1.44648	0	
0.1060	3.2654	0.528079	0	
0.1067	-1.00003	2.68632	0	
0.1073	-5.592	2.68632	0	
0.1080	-9.85742	-0.688799	0	
0.1087	-14.1229	-2.20416	0	
0.1093	-11.0819	-2.20416	0	
0.1100	1.73474	-4.33944	0	
0.1107	12.7146	-5.25783	0	
0.1113	19.4291	-3.12256	0	
0.1120	26.7559	-5.25783	0	
0.1127	32.8581	-12.8805	0	
0.1133	34.6949	-15.0158	0	
0.1140	34.6949	-11.0667	0	
0.1147	32.2458	-11.0667	0	
0.1153	27.3681	-14.7173	0	
0.1160	20.9598	-13.202	0	
0.1167	8.75535	-8.31151	0	
0.1173	-8.6329	-6.17623	0	
0.1180	-18.1026	-4.33944	0	
0.1187	-16.2658	2.0664	0	
0.1193	-17.4903	7.25535	0	
0.1200	-24.817	4.50016	0	
0.1207	-23.2864	-1.90568	0	
0.1213	-13.531	-2.82408	0	
0.1220	-11.0819	0.2296	0	
0.1227	-15.9596	-0.36736	0	
0.1233	-12.9187	-0.0688799	0	
0.1240	-1.61229	4.82159	0	
0.1247	1.73474	1.148	0	
0.1253	-3.75521	-9.22991	0	
0.1260	-2.83682	-9.52839	0	
0.1267	0.81635	-5.55631	0	
0.1273	-4.06134	-8.01303	0	
0.1280	-11.0819	-8.93143	0	
0.1287	-11.0819	-10.1483	0	
0.1293	-8.32677	-11.6637	0	
0.1300	-4.06134	1.148	0	
0.1307	-0.102044	16.0949	0	
0.1313	0.81635	12.4443	0	
0.1320	2.65314	9.09215	0	
0.1327	6.61243	16.0949	0	
0.1333	5.40832	11.8244	0	
0.1340	2.34701	-1.6072	0	
0.1347	3.2654	-3.74248	0	
0.1353	6.3063	-0.688799	0	
0.1360	6.3063	-3.12256	0	
0.1367	3.2654	-5.55631	0	
0.1373	1.73474	-3.12256	0	
0.1380	1.73474	-3.74248	0	
0.1387	-2.83682	-8.31151	0	
0.1393	-12.0003	-6.47471	0	
0.1400	-17.4903	2.36488	0	
0.1407	-12.3065	8.77071	0	
0.1413	-3.75521	12.4443	0	
0.1420	0.204087	16.7149	0	
0.1427	0.510219	19.4701	0	
0.1433	0.204087	17.3348	0	
0.1440	0.81635	6.33695	0	
0.1447	2.65314	-10.1483	0	
0.1453	6.00017	-20.2048	0	
0.1460	6.91856	-21.1232	0	
0.1467	6.91856	-17.4725	0	
0.1473	9.97988	-10.4468	0	
0.1480	12.7146	-3.74248	0	
0.1487	12.7146	2.0664	0	
0.1493	12.7146	13.6612	0	
0.1500	11.5105	22.8222	0	
0.1507	8.75535	16.7149	0	
0.1513	6.3063	4.82159	0	
0.1520	6.3063	-2.50264	0	
0.1527	7.83696	-5.55631	0	
0.1533	6.00017	-9.22991	0	
0.1540	0.81635	-11.6637	0	
0.1547	-1.91842	-12.8805	0	
0.1553	-1.91842	-13.5005	0	
0.1560	-4.6736	-8.93143	0	
0.1567	-7.71451	3.28328	0	
0.1573	-9.55129	10.0105	0	
0.1580	-12.3065	6.95687	0	
0.1587	-8.93903	15.1765	0	
0.1593	0.81635	29.5265	0	
0.1600	2.04087	25.5545	0	
0.1607	-4.97973	14.5796	0	
0.1613	-6.81652	13.6612	0	
0.1620	-2.83682	12.7428	0	
0.1627	1.12248	9.09215	0	
0.1633	3.87766	6.95687	0	
0.1640	3.2654	1.76792	0	
0.1647	-0.102044	-0.987279	0	
0.1653	-1.91842	2.68632	0	
0.1660	-3.44908	1.44648	0	
0.1667	-4.36747	-3.12256	0	
0.1673	-0.102044	0.2296	0	
0.1680	4.18379	3.28328	0	
0.1687	1.73474	-4.63792	0	
0.1693	-0.102044	-13.7989	0	
0.1700	1.73474	-12.2836	0	
0.1707	2.04087	-5.87775	0	
0.1713	4.79605	-4.95935	0	
0.1720	12.7146	-6.47471	0	
0.1727	19.123	-4.04096	0	
0.1733	22.7966	-1.90568	0	
0.1740	22.7966	4.20168	0	
0.1747	13.9392	14.2811	0	
0.1753	6.91856	12.1458	0	
0.1760	9.06148	-0.0688799	0	
0.1767	9.67374	-3.74248	0	
0.1773	6.3063	-3.74248	0	
0.1780	1.12248	-5.25783	0	
0.1787	-7.40837	-4.33944	0	
0.1793	-8.02064	-6.17623	0	
0.1800	1.12248	-9.82687	0	
0.1807	-0.693897	-3.12256	0	
0.1813	-10.1636	1.76792	0	
0.1820	-5.28586	-5.87775	0	
0.1827	3.2654	-8.60999	0	
0.1833	1.73474	-1.6072	0	
0.1840	-1.00003	3.58176	0	
0.1847	-4.6736	6.63543	0	
0.1853	-18.4087	5.71703	0	
0.1860	-33.9602	-0.0688799	0	
0.1867	-36.4092	-6.47471	0	
0.1873	-22.9802	-14.1204	0	
0.1880	-4.97973	-15.6357	0	
0.1887	4.79605	-3.74248	0	
0.1893	6.61243	3.58176	0	
0.1900	6.3063	-3.42104	0	
0.1907	4.79605	-6.79615	0	
0.1913	5.40832	-4.63792	0	
0.1920	7.83696	-1.90568	0	
0.1927	5.40832	5.41855	0	
0.1933	-1.61229	8.47223	0	
0.1940	-9.24516	1.76792	0	
0.1947	-16.5719	-1.28576	0	
0.1953	-17.4903	2.0664	0	
0.1960	-13.2249	1.76792	0	
0.1967	-11.6942	-1.90568	0	
0.1973	-8.93903	-3.12256	0	
0.1980	-0.408175	-1.90568	0	
0.1987	1.42861	1.148	0	
0.1993	-6.51039	2.0664	0	
0.2000	-6.81652	-1.6072	0	
0.2007	2.34701	-2.82408	0	
0.2013	7.2247	-1.28576	0	
0.2020	6.00017	-3.74248	0	
0.2027	4.48992	-6.47471	0	
0.2033	5.10219	1.44648	0	
0.2040	6.61243	16.0949	0	
0.2047	2.95927	16.4164	0	
0.2053	-7.71451	-1.90568	0	
0.2060	-13.2249	-17.4725	0	
0.2067	-5.592	-22.96	0	
0.2073	2.65314	-30.5827	0	
0.2080	5.71445	-38.5268	0	
0.2087	7.53083	-41.5805	0	
0.2093	6.91856	-42.7974	0	
0.2100	2.04087	-31.2026	0	
0.2107	-1.91842	1.76792	0	
0.2113	-2.83682	24.3376	0	
0.2120	-3.75521	12.7428	0	
0.2127	-5.28586	0.849519	0	
0.2133	-7.40837	9.68911	0	
0.2140	-9.24516	11.8244	0	
0.2147	-7.10224	0.849519	0	
0.2153	-4.06134	-2.82408	0	
0.2160	-5.89813	-3.42104	0	
0.2167	-7.40837	-3.74248	0	
0.2173	-4.97973	11.8244	0	
0.2180	-3.75521	32.2817	0	
0.2187	-2.83682	35.3354	0	
0.2193	-1.00003	29.228	0	
0.2200	0.510219	26.7943	0	
0.2207	3.57153	23.1207	0	
0.2213	7.53083	15.7965	0	
0.2220	6.61243	9.39063	0	
0.2227	3.57153	6.33695	0	
0.2233	6.61243	6.63543	0	
0.2240	11.2044	6.33695	0	
0.2247	9.06148	3.28328	0	
0.2253	6.91856	0.849519	0	
0.2260	10.5921	-0.0688799	0	
0.2267	11.8167	-0.0688799	0	
0.2273	9.06148	4.20168	0	
0.2280	11.2044	5.41855	0	
0.2287	12.7146	0.528079	0	
0.2293	6.3063	-1.90568	0	
0.2300	2.65314	-0.688799	0	
0.2307	4.79605	-2.82408	0	
0.2313	4.79605	-3.74248	0	
0.2320	-1.00003	-2.82408	0	
0.2327	-11.0819	-6.47471	0	
0.2333	-19.9393	-11.0667	0	
0.2340	-23.5925	-12.8805	0	
0.2347	-25.1232	-16.8526	0	
0.2353	-26.0416	-19.6078	0	
0.2360	-22.0619	-15.3373	0	
0.2367	-15.6535	-10.4468	0	
0.2373	-7.40837	-11.6637	0	
0.2380	2.34701	-8.60999	0	
0.2387	7.83696	3.58176	0	
0.2393	11.8167	15.7965	0	
0.2400	22.1843	18.8501	0	
0.2407	31.0417	12.1458	0	
0.2413	28.2865	3.9032	0	
0.2420	23.1027	2.36488	0	
0.2427	19.4291	4.50016	0	
0.2433	11.8167	3.9032	0	
0.2440	5.40832	1.76792	0	
0.2447	4.48992	0.528079	0	
0.2453	-0.408175	-3.74248	0	
0.2460	-10.1636	-8.60999	0	
0.2467	-14.7351	-10.1483	0	
0.2473	-16.2658	-9.82687	0	
0.2480	-18.7148	-8.93143	0	
0.2487	-14.7351	-5.87775	0	
0.2493	-4.6736	-3.12256	0	
0.2500	1.73474	-1.90568	0	
0.2507	2.95927	-1.90568	0	
0.2513	4.48992	-1.90568	0	
0.2520	2.95927	-1.90568	0	
0.2527	-2.53068	-1.28576	0	
0.2533	-4.97973	-0.0688799	0	
0.2540	1.42861	2.68632	0	
0.2547	6.61243	3.9032	0	
0.2553	0.81635	1.76792	0	
0.2560	-6.20426	-1.90568	0	
0.2567	-0.102044	-3.74248	0	
0.2573	8.14309	-6.47471	0	
0.2580	3.87766	-6.47471	0	
0.2587	-3.14295	-3.12256	0	
0.2593	0.510219	-1.90568	0	
0.2600	1.73474	-3.42104	0	
0.2607	-12.6126	-2.50264	0	
0.2613	-21.1435	0.2296	0	
0.2620	-10.1636	2.0664	0	
0.2627	-0.408175	4.50016	0	
0.2633	-2.83682	5.41855	0	
0.2640	-1.91842	2.68632	0	
0.2647	4.48992	0.849519	0	
0.2653	5.10219	2.0664	0	
0.2660	5.10219	5.41855	0	
0.2667	6.91856	7.85231	0	
0.2673	6.00017	6.03847	0	
0.2680	3.87766	2.36488	0	
0.2687	0.204087	1.148	0	
0.2693	-6.51039	-0.36736	0	
0.2700	-9.24516	-3.12256	0	
0.2707	-6.51039	-1.6072	0	
0.2713	-5.592	-0.0688799	0	
0.2720	-5.592	-3.12256	0	
0.2727	-4.6736	-4.04096	0	
0.2733	-6.81652	-0.987279	0	
0.2740	-8.32677	0.849519	0	
0.2747	-4.6736	0.849519	0	
0.2753	-2.53068	1.44648	0	
0.2760	-3.75521	0.2296	0	
0.2767	-3.75521	-1.90568	0	
0.2773	0.510219	-1.6072	0	
0.2780	6.3063	-2.20416	0	
0.2787	8.75535	-3.74248	0	
0.2793	8.14309	-3.74248	0	
0.2800	10.5921	-2.50264	0	
0.2807	14.8576	-2.82408	0	
0.2813	14.5514	-2.82408	0	
0.2820	14.8576	0.849519	0	
0.2827	16.6944	6.33695	0	
0.2833	9.06148	7.25535	0	
0.2840	-0.693897	5.71703	0	
0.2847	2.34701	9.09215	0	
0.2853	0.81635	12.4443	0	
0.2860	-15.0412	8.47223	0	
0.2867	-19.3271	2.36488	0	
0.2873	-6.20426	1.76792	0	
0.2880	0.81635	3.9032	0	
0.2887	2.04087	3.28328	0	
0.2893	6.91856	-1.6072	0	
0.2900	2.65314	-6.47471	0	
0.2907	-8.32677	-5.55631	0	
0.2913	-7.40837	-0.987279	0	
0.2920	-0.102044	-0.987279	0	
0.2927	-1.30616	-3.74248	0	
0.2933	-2.83682	-0.36736	0	
0.2940	-0.102044	2.36488	0	
0.2947	1.12248	-1.6072	0	
0.2953	1.42861	-2.20416	0	
0.2960	1.73474	1.76792	0	
0.2967	-0.102044	0.528079	0	
0.2973	0.204087	-3.12256	0	
0.2980	1.73474	-3.12256	0	
0.2987	-1.00003	-2.20416	0	
0.2993	-3.44908	-0.0688799	0	
0.3000	-1.00003	1.44648	0	
0.3007	0.204087	-3.74248	0	
0.3013	-2.22455	-8.31151	0	
0.3020	-4.36747	-5.55631	0	
0.3027	-5.592	-4.63792	0	
0.3033	-4.06134	-4.95935	0	
0.3040	1.73474	-0.0688799	0	
0.3047	4.18379	4.50016	0	
0.3053	1.42861	4.50016	0	
0.3060	0.81635	5.12007	0	
0.3067	5.10219	7.25535	0	
0.3073	11.8167	10.906	0	
0.3080	17.3066	14.5796	0	
0.3087	19.4291	10.309	0	
0.3093	18.8373	2.0664	0	
0.3100	16.0821	0.849519	0	
0.3107	6.61243	0.2296	0	
0.3113	0.204087	-2.82408	0	
0.3120	7.2247	1.44648	0	
0.3127	11.2044	5.12007	0	
0.3133	4.18379	-0.987279	0	
0.3140	6.00017	-3.74248	0	
0.3147	13.9392	-1.6072	0	
0.3153	9.06148	-2.50264	0	
0.3160	3.57153	-1.28576	0	
0.3167	11.2044	3.28328	0	
0.3173	16.6944	2.36488	0	
0.3180	17.3066	-0.0688799	0	
0.3187	19.4291	1.44648	0	
0.3193	17.0005	1.76792	0	
0.3200	10.8983	3.58176	0	
0.3207	7.2247	6.03847	0	
0.3213	2.65314	2.0664	0	
0.3220	-1.00003	-0.688799	0	
0.3227	-1.00003	0.849519	0	
0.3233	-1.61229	-0.987279	0	
0.3240	-3.75521	-3.74248	0	
0.3247	-3.44908	-4.33944	0	
0.3253	-2.83682	-4.95935	0	
0.3260	-4.6736	-0.987279	0	
0.3267	-8.02064	6.03847	0	
0.3273	-8.93903	6.63543	0	
0.3280	-5.89813	9.09215	0	
0.3287	-3.75521	17.0133	0	
0.3293	-4.06134	15.498	0	
0.3300	-4.97973	6.95687	0	
0.3307	-7.40837	2.68632	0	
0.3313	-11.0819	1.76792	0	
0.3320	-11.0819	0.528079	0	
0.3327	-7.71451	-1.28576	0	
0.3333	-8.32677	-3.74248	0	
0.3340	-10.1636	-4.95935	0	
0.3347	-8.02064	-3.74248	0	
0.3353	-5.592	-2.82408	0	
0.3360	-5.592	-3.74248	0	
0.3367	-4.6736	-4.63792	0	
0.3373	-3.75521	-5.55631	0	
0.3380	-4.6736	-4.33944	0	
0.3387	-4.6736	-0.688799	0	
0.3393	-3.75521	1.76792	0	
0.3400	-4.97973	1.76792	0	
0.3407	-6.81652	0.528079	0	
0.3413	-6.20426	0.849519	0	
0.3420	-4.36747	3.28328	0	
0.3427	-2.83682	3.9032	0	
0.3433	-3.75521	2.68632	0	
0.3440	-4.6736	2.68632	0	
0.3447	-3.75521	1.76792	0	
0.3453	-3.75521	-0.987279	0	
0.3460	-5.592	0.2296	0	
0.3467	-4.6736	3.9032	0	
0.3473	-1.91842	4.50016	0	
0.3480	-4.06134	2.9848	0	
0.3487	-8.93903	0.849519	0	
0.3493	-8.6329	-0.987279	0	
0.3500	-4.06134	-0.36736	0	
0.3507	-1.61229	-0.0688799	0	
0.3513	-2.83682	-3.42104	0	
0.3520	-3.75521	-5.55631	0	
0.3527	-1.91842	-5.25783	0	
0.3533	-2.22455	-5.55631	0	
0.3540	-4.36747	-7.09463	0	
0.3547	-3.75521	-6.79615	0	
0.3553	-1.91842	-6.47471	0	
0.3560	-2.83682	-6.47471	0	
0.3567	-3.14295	-5.25783	0	
0.3573	-3.75521	-4.63792	0	
0.3580	-7.40837	-5.55631	0	
0.3587	-8.02064	-4.95935	0	
0.3593	-3.14295	-3.74248	0	
0.3600	-1.61229	-3.74248	0	
0.3607	-3.44908	-2.50264	0	
0.3613	-1.91842	-1.6072	0	
0.3620	-0.102044	-5.55631	0	
0.3627	2.65314	-7.39311	0	
0.3633	8.14309	-2.50264	0	
0.3640	9.97988	1.76792	0	
0.3647	4.79605	0.849519	0	
0.3653	1.73474	-0.36736	0	
0.3660	1.42861	-1.6072	0	
0.3667	-0.408175	-2.20416	0	
0.3673	-1.00003	-1.6072	0	
0.3680	-1.00003	-3.74248	0	
0.3687	-3.75521	-5.55631	0	
0.3693	-2.83682	-2.20416	0	
0.3700	1.73474	0.849519	0	
0.3707	1.73474	1.148	0	
0.3713	0.81635	4.50016	0	
0.3720	4.48992	5.41855	0	
0.3727	4.79605	0.2296	0	
0.3733	-2.22455	-3.42104	0	
0.3740	-8.93903	-4.63792	0	
0.3747	-10.4697	-6.47471	0	
0.3753	-10.1636	-5.55631	0	
0.3760	-10.1636	-7.39311	0	
0.3767	-7.10224	-12.8805	0	
0.3773	-1.61229	-11.9621	0	
0.3780	-0.693897	-4.04096	0	
0.3787	-3.44908	-0.688799	0	
0.3793	-1.00003	-2.50264	0	
0.3800	1.42861	-2.82408	0	
0.3807	-1.61229	2.68632	0	
0.3813	-1.00003	11.8244	0	
0.3820	4.18379	17.3348	0	
0.3827	4.48992	13.6612	0	
0.3833	3.87766	7.55383	0	
0.3840	6.3063	4.50016	0	
0.3847	5.40832	3.58176	0	
0.3853	2.65314	3.9032	0	
0.3860	5.10219	3.58176	0	
0.3867	8.14309	2.68632	0	
0.3873	8.75535	1.76792	0	
0.3880	5.71445	0.849519	0	
0.3887	-0.102044	-0.36736	0	
0.3893	0.510219	-0.0688799	0	
0.3900	8.44922	0.528079	0	
0.3907	9.36761	-0.36736	0	
0.3913	3.57153	-1.90568	0	
0.3920	2.65314	-2.82408	0	
0.3927	2.04087	-3.74248	0	
0.3933	-1.61229	-4.63792	0	
0.3940	0.81635	-4.33944	0	
0.3947	4.48992	-3.74248	0	
0.3953	1.73474	-1.90568	0	
0.3960	-1.91842	-0.36736	0	
0.3967	-5.592	-4.63792	0	
0.3973	-12.9187	-13.202	0	
0.3980	-15.6535	-17.4725	0	
0.3987	-9.85742	-17.771	0	
0.3993	-2.22455	-18.3909	0	
0.4000	2.34701	-17.4725	0	
0.4007	4.18379	-13.202	0	
0.4013	3.2654	-9.22991	0	
0.4020	3.87766	-5.55631	0	
0.4027	8.75535	1.148	0	
0.4033	13.3269	11.8244	0	
0.4040	10.8983	18.2302	0	
0.4047	4.48992	15.498	0	
0.4053	1.42861	10.906	0	
0.4060	0.510219	9.39063	0	
0.4067	-3.14295	9.09215	0	
0.4073	-3.75521	7.25535	0	
0.4080	-0.102044	6.03847	0	
0.4087	2.34701	4.50016	0	
0.4093	3.2654	2.68632	0	
0.4100	1.42861	2.36488	0	
0.4107	-4.6736	3.58176	0	
0.4113	-5.89813	2.36488	0	
0.4120	-6.51039	-1.90568	0	
0.4127	-16.5719	-5.87775	0	
0.4133	-19.3271	-8.31151	0	
0.4140	-4.97973	-8.31151	0	
0.4147	3.57153	-6.79615	0	
0.4153	-0.102044	-4.63792	0	
0.4160	-0.102044	-4.95935	0	
0.4167	3.87766	-6.47471	0	
0.4173	6.61243	-4.04096	0	
0.4180	10.5921	-0.987279	0	
0.4187	10.8983	-0.987279	0	
0.4193	3.57153	-0.0688799	0	
0.4200	-0.102044	2.9848	0	
0.4207	-2.53068	4.50016	0	
0.4213	-9.24516	4.50016	0	
0.4220	-12.0003	3.28328	0	
0.4227	-7.40837	1.148	0	
0.4233	-10.1636	-0.0688799	0	
0.4240	-21.1435	-0.0688799	0	
0.4247	-22.0619	-0.0688799	0	
0.4253	-11.0819	1.148	0	
0.4260	-2.53068	2.68632	0	
0.4267	1.42861	3.28328	0	
0.4273	3.87766	5.12007	0	
0.4280	5.71445	3.9032	0	
0.4287	4.18379	-4.33944	0	
0.4293	1.73474	-11.6637	0	
0.4300	4.18379	-12.2836	0	
0.4307	8.14309	-12.8805	0	
0.4313	4.18379	-12.5821	0	
0.4320	-1.91842	-11.6637	0	
0.4327	-1.91842	-16.2557	0	
0.4333	-1.00003	-21.1232	0	
0.4340	-3.44908	-18.3909	0	
0.4347	-4.6736	-11.9621	0	
0.4353	-4.6736	-2.82408	0	
0.4360	-4.36747	11.8244	0	
0.4367	-2.22455	27.3913	0	
0.4373	-1.30616	35.3354	0	
0.4380	-1.00003	32.5802	0	
0.4387	-0.693897	23.4192	0	
0.4393	-3.75521	14.8781	0	
0.4400	-5.89813	9.09215	0	
0.4407	-1.00003	6.03847	0	
0.4413	3.57153	6.33695	0	
0.4420	4.18379	3.9032	0	
0.4427	7.2247	0.528079	0	
0.4433	12.1228	5.41855	0	
0.4440	15.4698	15.1765	0	
0.4447	17.3066	16.0949	0	
0.4453	17.0005	10.309	0	
0.4460	15.4698	4.50016	0	
0.4467	11.2044	0.849519	0	
0.4473	2.65314	1.44648	0	
0.4480	-2.22455	4.82159	0	
0.4487	5.10219	3.9032	0	
0.4493	12.7146	0.528079	0	
0.4500	10.8983	1.76792	0	
0.4507	6.3063	3.58176	0	
0.4513	4.18379	-0.987279	0	
0.4520	-0.408175	-5.87775	0	
0.4527	-5.592	-5.87775	0	
0.4533	-5.89813	-4.04096	0	
0.4540	-3.75521	-5.55631	0	
0.4547	-1.91842	-7.69159	0	
0.4553	-0.408175	-7.09463	0	
0.4560	2.95927	-5.55631	0	
0.4567	5.10219	-8.93143	0	
0.4573	4.79605	-17.4725	0	
0.4580	4.79605	-23.2585	0	
0.4587	3.87766	-22.0416	0	
0.4593	4.48992	-19.2864	0	
0.4600	8.75535	-16.2557	0	
0.4607	6.3063	-9.22991	0	
0.4613	-3.75521	-0.987279	0	
0.4620	-6.20426	8.77071	0	
0.4627	-0.102044	22.8222	0	
0.4633	-1.00003	31.3633	0	
0.4640	-5.89813	27.6897	0	
0.4647	-4.97973	18.8501	0	
0.4653	-3.44908	10.906	0	
0.4660	-2.83682	6.95687	0	
0.4667	-0.102044	6.63543	0	
0.4673	0.81635	6.03847	0	
0.4680	-2.22455	2.9848	0	
0.4687	-2.22455	3.28328	0	
0.4693	-1.00003	3.9032	0	
0.4700	-3.75521	0.849519	0	
0.4707	-8.6329	-1.90568	0	
0.4713	-11.0819	-1.90568	0	
0.4720	-10.1636	-2.20416	0	
0.4727	-10.4697	-1.6072	0	
0.4733	-12.3065	-0.0688799	0	
0.4740	-12.0003	-2.50264	0	
0.4747	-10.4697	-5.55631	0	
0.4753	-13.8167	-4.95935	0	
0.4760	-17.1842	-5.55631	0	
0.4767	-14.7351	-5.87775	0	
0.4773	-13.8167	-2.20416	0	
0.4780	-12.0003	-0.987279	0	
0.4787	-4.6736	-2.82408	0	
0.4793	-3.75521	-2.50264	0	
0.4800	-9.24516	-1.90568	0	
0.4807	-9.24516	-3.74248	0	
0.4813	-6.81652	-3.74248	0	
0.4820	-8.32677	-0.987279	0	
0.4827	-4.36747	1.44648	0	
0.4833	0.204087	1.76792	0	
0.4840	-3.14295	-0.987279	0	
0.4847	-3.14295	-3.74248	0	
0.4853	3.57153	-4.63792	0	
0.4860	4.18379	-2.82408	0	
0.4867	-0.408175	-0.0688799	0	
0.4873	-3.75521	-0.0688799	0	
0.4880	-6.51039	-1.90568	0	
0.4887	-7.71451	-2.20416	0	
0.4893	-9.24516	-0.987279	0	
0.4900	-12.3065	-1.90568	0	
0.4907	-12.9187	-3.12256	0	
0.4913	-7.40837	-2.82408	0	
0.4920	-5.592	-4.33944	0	
0.4927	-9.24516	-5.55631	0	
0.4933	-9.55129	-3.74248	0	
0.4940	-4.6736	-3.74248	0	
0.4947	-3.44908	-5.55631	0	
0.4953	-5.592	-5.87775	0	
0.4960	-4.6736	-4.33944	0	
0.4967	1.42861	-3.74248	0	
0.4973	6.3063	-4.63792	0	
0.4980	7.83696	-5.55631	0	
0.4987	8.44922	-2.50264	0	
0.4993	12.7146	0.528079	0	
0.5000	17.6127	-0.0688799	0	
0.5007	15.4698	-0.987279	0	
0.5013	11.8167	0.2296	0	
0.5020	13.633	1.76792	0	
0.5027	17.3066	2.36488	0	
0.5033	19.123	1.76792	0	
0.5040	13.9392	0.849519	0	
0.5047	1.73474	0.849519	0	
0.5053	-4.36747	0.2296	0	
0.5060	2.65314	-0.987279	0	
0.5067	4.79605	-1.28576	0	
0.5073	-2.83682	-0.0688799	0	
0.5080	-6.51039	3.58176	0	
0.5087	-4.06134	6.33695	0	
0.5093	-4.6736	4.50016	0	
0.5100	-7.10224	0.528079	0	
0.5107	-7.10224	0.849519	0	
0.5113	-4.6736	3.58176	0	
0.5120	-5.28586	2.9848	0	
0.5127	-8.93903	-0.36736	0	
0.5133	-9.24516	-4.04096	0	
0.5140	-5.592	-6.47471	0	
0.5147	-5.89813	-5.25783	0	
0.5153	-7.40837	-1.90568	0	
0.5160	-2.83682	0.528079	0	
0.5167	0.81635	-0.0688799	0	
0.5173	1.42861	-2.20416	0	
0.5180	4.48992	-5.55631	0	
0.5187	7.2247	-7.69159	0	
0.5193	5.10219	-8.01303	0	
0.5200	4.48992	-9.82687	0	
0.5207	9.06148	-10.4468	0	
0.5213	10.8983	-8.31151	0	
0.5220	7.2247	-10.4468	0	
0.5227	3.57153	-12.8805	0	
0.5233	3.2654	-3.74248	0	
0.5240	2.34701	4.50016	0	
0.5247	0.204087	0.528079	0	
0.5253	2.04087	-0.0688799	0	
0.5260	6.3063	8.17375	0	
0.5267	8.14309	11.8244	0	
0.5273	7.2247	8.17375	0	
0.5280	5.71445	3.28328	0	
0.5287	0.81635	-1.28576	0	
0.5293	-6.20426	-1.6072	0	
0.5300	-10.1636	6.03847	0	
0.5307	-9.85742	14.5796	0	
0.5313	-6.51039	12.4443	0	
0.5320	-1.91842	-1.28576	0	
0.5327	2.95927	-14.7173	0	
0.5333	6.3063	-17.4725	0	
0.5340	3.57153	-13.5005	0	
0.5347	-0.102044	-11.9621	0	
0.5353	1.73474	-10.4468	0	
0.5360	4.79605	-6.17623	0	
0.5367	4.48992	-0.987279	0	
0.5373	7.2247	5.41855	0	
0.5380	8.75535	13.3627	0	
0.5387	3.87766	14.8781	0	
0.5393	1.73474	7.25535	0	
0.5400	5.40832	2.68632	0	
0.5407	8.75535	8.77071	0	
0.5413	10.8983	13.9597	0	
0.5420	11.8167	10.6075	0	
0.5427	8.14309	7.25535	0	
0.5433	5.40832	6.63543	0	
0.5440	7.2247	4.50016	0	
0.5447	9.06148	4.50016	0	
0.5453	9.97988	9.09215	0	
0.5460	11.2044	10.906	0	
0.5467	9.36761	6.95687	0	
0.5473	6.3063	3.58176	0	
0.5480	6.3063	3.9032	0	
0.5487	5.40832	3.9032	0	
0.5493	2.95927	2.0664	0	
0.5500	3.2654	0.528079	0	
0.5507	1.73474	-2.82408	0	
0.5513	-2.53068	-7.39311	0	
0.5520	-1.91842	-9.22991	0	
0.5527	1.42861	-7.69159	0	
0.5533	0.204087	-8.93143	0	
0.5540	-1.30616	-11.0667	0	
0.5547	-0.408175	-12.8805	0	
0.5553	-1.30616	-15.0158	0	
0.5560	-1.00003	-9.22991	0	
0.5567	1.73474	7.55383	0	
0.5573	1.73474	18.5517	0	
0.5580	0.510219	11.5259	0	
0.5587	1.73474	-2.50264	0	
0.5593	1.73474	-9.22991	0	
0.5600	1.42861	-9.82687	0	
0.5607	2.04087	-10.1483	0	
0.5613	-5.28586	-9.22991	0	
0.5620	-15.6535	-4.04096	0	
0.5627	-14.429	-1.28576	0	
0.5633	-6.51039	-4.04096	0	
0.5640	-6.51039	-2.82408	0	
0.5647	-9.24516	5.41855	0	
0.5653	-7.40837	10.906	0	
0.5660	-5.592	13.0413	0	
0.5667	-5.89813	15.1765	0	
0.5673	-5.89813	12.7428	0	
0.5680	-7.40837	8.47223	0	
0.5687	-9.24516	8.17375	0	
0.5693	-7.71451	8.17375	0	
0.5700	-3.75521	6.95687	0	
0.5707	-0.102044	4.82159	0	
0.5713	1.73474	2.36488	0	
0.5720	1.73474	1.76792	0	
0.5727	3.57153	2.0664	0	
0.5733	6.61243	-0.0688799	0	
0.5740	6.91856	-1.90568	0	
0.5747	6.61243	1.148	0	
0.5753	8.44922	1.148	0	
0.5760	5.71445	-4.33944	0	
0.5767	0.204087	-4.63792	0	
0.5773	1.12248	-0.0688799	0	
0.5780	2.65314	1.148	0	
0.5787	-4.6736	-0.0688799	0	
0.5793	-10.7758	0.528079	0	
0.5800	-9.24516	1.76792	0	
0.5807	-7.40837	3.28328	0	
0.5813	-6.51039	3.9032	0	
0.5820	-2.53068	2.68632	0	
0.5827	0.510219	4.50016	0	
0.5833	5.71445	7.85231	0	
0.5840	17.0005	6.03847	0	
0.5847	19.4291	2.0664	0	
0.5853	5.40832	1.148	0	
0.5860	-5.89813	-1.28576	0	
0.5867	-4.6736	-4.33944	0	
0.5873	-4.97973	-6.17623	0	
0.5880	-9.24516	-8.31151	0	
0.5887	-8.93903	-9.82687	0	
0.5893	-8.32677	-6.47471	0	
0.5900	-10.1636	-0.987279	0	
0.5907	-6.20426	-0.688799	0	
0.5913	-1.00003	-2.20416	0	
0.5920	-3.14295	4.50016	0	
0.5927	-5.89813	17.0133	0	
0.5933	-5.28586	20.9854	0	
0.5940	-5.28586	14.8781	0	
0.5947	-5.28586	6.63543	0	
0.5953	-4.97973	-1.90568	0	
0.5960	-5.28586	-9.52839	0	
0.5967	-3.14295	-13.5005	0	
0.5973	-1.91842	-14.7173	0	
0.5980	-3.75521	-12.5821	0	
0.5987	-1.61229	-5.87775	0	
0.5993	1.73474	-0.0688799	0	
0.6000	-0.102044	2.36488	0	
0.6007	-0.102044	6.03847	0	
0.6013	2.65314	8.47223	0	
0.6020	4.18379	6.33695	0	
0.6027	6.00017	3.58176	0	
0.6033	8.14309	-0.0688799	0	
0.6040	6.3063	-4.33944	0	
0.6047	5.10219	-3.12256	0	
0.6053	6.00017	3.58176	0	
0.6060	4.48992	3.9032	0	
0.6067	2.65314	1.148	0	
0.6073	3.57153	5.71703	0	
0.6080	5.10219	9.68911	0	
0.6087	5.40832	6.33695	0	
0.6093	5.71445	2.9848	0	
0.6100	6.3063	1.44648	0	
0.6107	6.91856	-0.987279	0	
0.6113	5.40832	-1.28576	0	
0.6120	3.2654	-1.90568	0	
0.6127	0.81635	-5.55631	0	
0.6133	-1.61229	-8.31151	0	
0.6140	-2.53068	-8.01303	0	
0.6147	-1.91842	-8.93143	0	
0.6153	-1.00003	-8.93143	0	
0.6160	-0.102044	-7.69159	0	
0.6167	1.73474	-9.22991	0	
0.6173	2.65314	-9.82687	0	
0.6180	2.65314	-3.74248	0	
0.6187	4.48992	3.58176	0	
0.6193	7.2247	3.9032	0	
0.6200	6.3063	0.2296	0	
0.6207	3.87766	0.528079	0	
0.6213	4.48992	0.849519	0	
0.6220	6.91856	-1.28576	0	
0.6227	6.00017	1.76792	0	
0.6233	4.48992	10.0105	0	
0.6240	4.79605	12.1458	0	
0.6247	4.48992	6.63543	0	
0.6253	1.73474	2.9848	0	
0.6260	-0.693897	4.20168	0	
0.6267	-0.693897	2.9848	0	
0.6273	-1.30616	-1.90568	0	
0.6280	-3.75521	-3.74248	0	
0.6287	-5.592	-3.42104	0	
0.6293	-6.51039	-5.25783	0	
0.6300	-7.10224	-4.33944	0	
0.6307	-6.51039	-0.0688799	0	
0.6313	-5.28586	-2.82408	0	
0.6320	-4.6736	-10.1483	0	
0.6327	-5.89813	-9.82687	0	
0.6333	-7.71451	-2.50264	0	
0.6340	-4.6736	1.148	0	
0.6347	1.42861	-2.82408	0	
0.6353	2.65314	-7.69159	0	
0.6360	2.04087	-7.39311	0	
0.6367	5.40832	-4.95935	0	
0.6373	6.3063	-4.33944	0	
0.6380	1.12248	-2.50264	0	
0.6387	-4.06134	1.148	0	
0.6393	-8.93903	2.68632	0	
0.6400	-14.429	2.36488	0	
0.6407	-13.2249	3.58176	0	
0.6413	-9.24516	3.58176	0	
0.6420	-8.6329	0.849519	0	
0.6427	-5.592	0.528079	0	
0.6433	-1.00003	2.0664	0	
0.6440	-1.30616	0.849519	0	
0.6447	-2.83682	-0.987279	0	
0.6453	-1.00003	0.849519	0	
0.6460	0.81635	0.849519	0	
0.6467	2.65314	-1.90568	0	
0.6473	2.65314	-0.688799	0	
0.6480	-0.102044	3.9032	0	
0.6487	-0.102044	2.9848	0	
0.6493	0.81635	-1.6072	0	
0.6500	-2.83682	-3.74248	0	
0.6507	-4.97973	-4.63792	0	
0.6513	-2.83682	-5.87775	0	
0.6520	-4.06134	-5.87775	0	
0.6527	-6.20426	-5.25783	0	
0.6533	-3.75521	-4.95935	0	
0.6540	-3.44908	-3.74248	0	
0.6547	-7.10224	-3.74248	0	
0.6553	-6.51039	-4.63792	0	
0.6560	-3.75521	-3.74248	0	
0.6567	-4.6736	0.2296	0	
0.6573	-7.40837	0.849519	0	
0.6580	-3.75521	-0.688799	0	
0.6587	1.73474	-0.688799	0	
0.6593	1.42861	-1.28576	0	
0.6600	-0.408175	-3.42104	0	
0.6607	2.34701	-4.33944	0	
0.6613	4.48992	-4.04096	0	
0.6620	4.79605	-3.74248	0	
0.6627	5.40832	-4.04096	0	
0.6633	3.2654	-7.39311	0	
0.6640	0.81635	-10.7453	0	
0.6647	2.65314	-9.52839	0	
0.6653	2.65314	-5.25783	0	
0.6660	0.510219	-2.50264	0	
0.6667	2.65314	0.528079	0	
0.6673	4.18379	3.9032	0	
0.6680	2.04087	6.95687	0	
0.6687	1.73474	10.309	0	
0.6693	1.12248	14.5796	0	
0.6700	-0.102044	14.2811	0	
0.6707	2.65314	8.47223	0	
0.6713	4.48992	4.50016	0	
0.6720	3.2654	5.12007	0	
0.6727	3.57153	5.71703	0	
0.6733	3.57153	3.9032	0	
0.6740	0.81635	-1.28576	0	
0.6747	-1.00003	-4.95935	0	
0.6753	-1.00003	-3.74248	0	
0.6760	-3.14295	-1.28576	0	
0.6767	-4.36747	-0.987279	0	
0.6773	-3.14295	-0.0688799	0	
0.6780	-2.83682	2.36488	0	
0.6787	-1.91842	6.95687	0	
0.6793	1.73474	13.9597	0	
0.6800	2.65314	15.7965	0	
0.6807	-1.00003	10.309	0	
0.6813	-1.61229	5.41855	0	
0.6820	2.95927	3.58176	0	
0.6827	3.87766	2.68632	0	
0.6833	0.510219	1.148	0	
0.6840	0.204087	-0.0688799	0	
0.6847	2.65314	2.0664	0	
0.6853	4.48992	5.41855	0	
0.6860	3.2654	6.03847	0	
0.6867	-0.102044	6.03847	0	
0.6873	-0.102044	5.12007	0	
0.6880	4.48992	2.36488	0	
0.6887	5.40832	2.68632	0	
0.6893	1.73474	4.82159	0	
0.6900	0.510219	2.0664	0	
0.6907	-0.102044	-0.688799	0	
0.6913	-2.22455	-1.90568	0	
0.6920	-1.30616	-4.95935	0	
0.6927	-1.91842	-7.39311	0	
0.6933	-7.40837	-7.39311	0	
0.6940	-4.97973	-6.79615	0	
0.6947	3.87766	-6.17623	0	
0.6953	1.12248	-9.82687	0	
0.6960	-10.4697	-14.7173	0	
0.6967	-13.8167	-11.0667	0	
0.6973	-12.6126	-3.12256	0	
0.6980	-14.429	-0.987279	0	
0.6987	-12.6126	-3.74248	0	
0.6993	-3.44908	-4.63792	0	
0.7000	5.40832	-3.12256	0	
0.7007	9.06148	-3.74248	0	
0.7013	8.14309	-5.55631	0	
0.7020	9.06148	-1.6072	0	
0.7027	12.4289	6.95687	0	
0.7033	13.633	9.09215	0	
0.7040	14.2453	6.03847	0	
0.7047	14.5514	4.20168	0	
0.7053	10.8983	2.36488	0	
0.7060	8.14309	1.148	0	
0.7067	10.8983	2.9848	0	
0.7073	12.4289	3.28328	0	
0.7080	4.79605	-0.36736	0	
0.7087	-5.592	-4.63792	0	
0.7093	-13.531	-7.09463	0	
0.7100	-19.3271	-8.01303	0	
0.7107	-21.7557	-10.1483	0	
0.7113	-17.7964	-11.9621	0	
0.7120	-12.0003	-10.1483	0	
0.7127	-10.1636	-7.39311	0	
0.7133	-11.6942	-6.79615	0	
0.7140	-11.3881	-6.47471	0	
0.7147	-9.24516	-6.47471	0	
0.7153	-3.75521	-6.17623	0	
0.7160	2.34701	-5.87775	0	
0.7167	3.57153	-5.87775	0	
0.7173	2.04087	1.44648	0	
0.7180	0.81635	14.8781	0	
0.7187	3.2654	17.3348	0	
0.7193	10.286	10.0105	0	
0.7200	17.3066	5.71703	0	
0.7207	19.123	3.28328	0	
0.7213	16.0821	-0.688799	0	
0.7220	12.4289	0.528079	0	
0.7227	11.8167	3.28328	0	
0.7233	11.5105	2.9848	0	
0.7240	6.3063	2.9848	0	
0.7247	1.12248	3.58176	0	
0.7253	1.73474	3.28328	0	
0.7260	2.65314	2.9848	0	
0.7267	-3.14295	0.528079	0	
0.7273	-13.8167	-2.82408	0	
0.7280	-24.2048	-4.04096	0	
0.7287	-26.0416	-5.25783	0	
0.7293	-17.4903	-5.55631	0	
0.7300	-10.1636	-4.33944	0	
0.7307	-10.1636	-4.33944	0	
0.7313	-8.93903	-3.74248	0	
0.7320	-4.36747	-1.90568	0	
0.7327	-4.06134	-2.82408	0	
0.7333	-4.97973	-3.74248	0	
0.7340	-2.83682	-2.82408	0	
0.7347	-4.36747	-4.04096	0	
0.7353	-7.71451	-3.12256	0	
0.7360	-5.592	4.50016	0	
0.7367	-1.91842	8.17375	0	
0.7373	-2.53068	3.58176	0	
0.7380	-1.00003	-0.987279	0	
0.7387	3.57153	-0.987279	0	
0.7393	4.48992	-0.36736	0	
0.7400	1.12248	-3.74248	0	
0.7407	0.510219	-7.69159	0	
0.7413	1.42861	-4.63792	0	
0.7420	1.12248	-1.90568	0	
0.7427	0.510219	-4.63792	0	
0.7433	-0.102044	-5.55631	0	
0.7440	-1.00003	-5.25783	0	
0.7447	0.510219	-10.1483	0	
0.7453	2.65314	-9.22991	0	
0.7460	1.12248	-2.82408	0	
0.7467	-1.00003	-0.36736	0	
0.7473	-0.102044	5.41855	0	
0.7480	0.81635	17.0133	0	
0.7487	0.510219	17.3348	0	
0.7493	1.12248	11.2274	0	
0.7500	0.81635	12.7428	0	
0.7507	-2.53068	12.1458	0	
0.7513	-3.44908	7.25535	0	
0.7520	-1.91842	9.09215	0	
0.7527	-1.91842	13.0413	0	
0.7533	-3.44908	8.47223	0	
0.7540	-4.6736	3.58176	0	
0.7547	-5.592	5.41855	0	
0.7553	-5.28586	9.09215	0	
0.7560	-2.53068	7.85231	0	
0.7567	1.12248	-0.36736	0	
0.7573	3.2654	-5.55631	0	
0.7580	4.48992	-0.987279	0	
0.7587	3.57153	2.68632	0	
0.7593	2.34701	-1.28576	0	
0.7600	2.65314	-5.55631	0	
0.7607	3.57153	-5.25783	0	
0.7613	2.95927	-2.82408	0	
0.7620	3.57153	3.58176	0	
0.7627	7.2247	8.77071	0	
0.7633	10.5921	7.85231	0	
0.7640	10.8983	5.41855	0	
0.7647	9.06148	6.33695	0	
0.7653	6.91856	6.63543	0	
0.7660	7.2247	3.9032	0	
0.7667	6.3063	3.58176	0	
0.7673	2.65314	6.03847	0	
0.7680	2.95927	5.41855	0	
0.7687	5.10219	4.50016	0	
0.7693	2.65314	4.20168	0	
0.7700	1.12248	0.849519	0	
0.7707	3.87766	-2.82408	0	
0.7713	3.57153	-2.82408	0	
0.7720	-0.102044	-3.12256	0	
0.7727	-3.44908	-4.33944	0	
0.7733	-5.28586	-5.55631	0	
0.7740	-3.44908	-6.79615	0	
0.7747	1.42861	-7.39311	0	
0.7753	1.42861	-7.39311	0	
0.7760	-3.14295	-7.69159	0	
0.7767	-5.28586	-5.55631	0	
0.7773	-5.592	-2.82408	0	
0.7780	-5.89813	-3.74248	0	
0.7787	-5.89813	-4.95935	0	
0.7793	-6.51039	-1.6072	0	
0.7800	-7.10224	0.2296	0	
0.7807	-6.51039	0.2296	0	
0.7813	-5.28586	3.28328	0	
0.7820	-4.06134	4.50016	0	
0.7827	-2.83682	2.0664	0	
0.7833	-2.83682	1.76792	0	
0.7840	0.204087	0.849519	0	
0.7847	5.71445	-2.20416	0	
0.7853	6.61243	-2.82408	0	
0.7860	3.57153	-3.74248	0	
0.7867	4.18379	-6.17623	0	
0.7873	4.79605	-3.74248	0	
0.7880	2.65314	0.849519	0	
0.7887	2.34701	0.528079	0	
0.7893	1.42861	0.528079	0	
0.7900	-1.91842	2.0664	0	
0.7907	1.12248	-0.688799	0	
0.7913	7.2247	-2.50264	0	
0.7920	5.10219	0.849519	0	
0.7927	-0.102044	3.58176	0	
0.7933	-0.102044	3.9032	0	
0.7940	-1.91842	3.58176	0	
0.7947	-6.20426	3.28328	0	
0.7953	-8.02064	4.20168	0	
0.7960	-7.40837	2.9848	0	
0.7967	-6.51039	-0.36736	0	
0.7973	-5.592	-0.987279	0	
0.7980	-7.10224	-0.36736	0	
0.7987	-6.51039	-2.50264	0	
0.7993	-1.91842	-3.74248	0	
0.8000	2.65314	-4.33944	0	
0.8007	5.71445	-5.55631	0	
0.8013	9.97988	-4.33944	0	
0.8020	9.97988	-1.6072	0	
0.8027	6.3063	-0.987279	0	
0.8033	4.48992	0.2296	0	
0.8040	6.91856	2.0664	0	
0.8047	7.2247	0.528079	0	
0.8053	2.34701	-0.688799	0	
0.8060	-1.91842	-1.90568	0	
0.8067	1.12248	-4.63792	0	
0.8073	3.57153	-3.74248	0	
0.8080	-0.693897	-0.987279	0	
0.8087	-3.14295	-3.74248	0	
0.8093	-1.91842	-5.87775	0	
0.8100	-3.75521	-3.74248	0	
0.8107	-6.20426	-4.04096	0	
0.8113	-4.97973	-6.79615	0	
0.8120	-4.97973	-7.39311	0	
0.8127	-6.51039	-8.01303	0	
0.8133	-6.51039	-7.69159	0	
0.8140	-7.40837	-5.87775	0	
0.8147	-9.24516	-4.04096	0	
0.8153	-8.32677	-0.987279	0	
0.8160	-6.20426	1.148	0	
0.8167	-5.592	-1.90568	0	
0.8173	-6.51039	-4.63792	0	
0.8180	-6.20426	-3.74248	0	
0.8187	-3.44908	-3.42104	0	
0.8193	-0.102044	-0.987279	0	
0.8200	0.81635	2.0664	0	
0.8207	1.42861	-0.688799	0	
0.8213	2.34701	-5.25783	0	
0.8220	2.95927	-6.47471	0	
0.8227	4.18379	-8.31151	0	
0.8233	7.2247	-11.9621	0	
0.8240	9.06148	-12.5821	0	
0.8247	6.91856	-8.31151	0	
0.8253	4.48992	-3.74248	0	
0.8260	4.18379	-2.50264	0	
0.8267	2.04087	0.849519	0	
0.8273	-0.102044	8.77071	0	
0.8280	1.73474	12.7428	0	
0.8287	1.73474	14.2811	0	
0.8293	0.204087	16.7149	0	
0.8300	2.04087	13.3627	0	
0.8307	4.18379	5.12007	0	
0.8313	4.48992	2.68632	0	
0.8320	5.71445	2.68632	0	
0.8327	4.48992	0.528079	0	
0.8333	-0.102044	0.849519	0	
0.8340	1.73474	1.76792	0	
0.8347	5.71445	-2.20416	0	
0.8353	2.65314	-4.04096	0	
0.8360	-4.6736	-1.90568	0	
0.8367	-8.6329	-0.987279	0	
0.8373	-10.7758	-4.04096	0	
0.8380	-9.24516	-6.17623	0	
0.8387	-6.20426	-2.50264	0	
0.8393	-4.6736	2.36488	0	
0.8400	-2.22455	2.0664	0	
0.8407	0.81635	-0.688799	0	
0.8413	0.510219	-1.90568	0	
0.8420	0.81635	-4.33944	0	
0.8427	2.34701	-6.47471	0	
0.8433	0.81635	-5.55631	0	
0.8440	1.12248	-6.47471	0	
0.8447	3.2654	-11.3652	0	
0.8453	0.510219	-12.5821	0	
0.8460	-3.14295	-4.63792	0	
0.8467	-0.102044	2.68632	0	
0.8473	2.95927	-1.90568	0	
0.8480	2.65314	-10.7453	0	
0.8487	2.65314	-4.33944	0	
0.8493	3.57153	13.9597	0	
0.8500	2.65314	23.4192	0	
0.8507	1.73474	19.4701	0	
0.8513	0.510219	13.0413	0	
0.8520	-1.91842	6.33695	0	
0.8527	-3.75521	-0.688799	0	
0.8533	-5.592	-2.82408	0	
0.8540	-5.592	-1.6072	0	
0.8547	-4.6736	-2.82408	0	
0.8553	-5.592	-5.87775	0	
0.8560	-6.51039	-5.55631	0	
0.8567	-3.75521	-3.12256	0	
0.8573	-0.102044	-0.36736	0	
0.8580	-0.408175	1.76792	0	
0.8587	-3.14295	2.36488	0	
0.8593	-3.75521	2.9848	0	
0.8600	1.73474	6.33695	0	
0.8607	7.2247	9.09215	0	
0.8613	6.61243	7.25535	0	
0.8620	5.40832	4.82159	0	
0.8627	11.8167	5.41855	0	
0.8633	17.9189	4.50016	0	
0.8640	16.3882	3.58176	0	
0.8647	16.3882	4.50016	0	
0.8653	20.0414	5.41855	0	
0.8660	16.6944	4.82159	0	
0.8667	6.3063	2.9848	0	
0.8673	-0.102044	-0.688799	0	
0.8680	-2.22455	-1.28576	0	
0.8687	-6.51039	2.0664	0	
0.8693	-10.4697	3.28328	0	
0.8700	-10.1636	1.148	0	
0.8707	-7.40837	0.849519	0	
0.8713	-5.28586	0.528079	0	
0.8720	-2.53068	-0.688799	0	
0.8727	-0.693897	-0.987279	0	
0.8733	-2.22455	-2.20416	0	
0.8740	-3.75521	-4.04096	0	
0.8747	-2.22455	-4.63792	0	
0.8753	-1.91842	-5.25783	0	
0.8760	-3.44908	-4.33944	0	
0.8767	-2.53068	-3.74248	0	
0.8773	2.04087	-3.74248	0	
0.8780	3.57153	-4.04096	0	
0.8787	-2.53068	-3.42104	0	
0.8793	-10.4697	-1.28576	0	
0.8800	-9.24516	2.68632	0	
0.8807	-2.22455	5.41855	0	
0.8813	1.42861	3.58176	0	
0.8820	1.73474	3.58176	0	
0.8827	1.42861	6.33695	0	
0.8833	-0.102044	6.03847	0	
0.8840	-0.102044	4.20168	0	
0.8847	2.04087	3.58176	0	
0.8853	1.73474	1.148	0	
0.8860	0.510219	-0.688799	0	
0.8867	1.12248	-0.0688799	0	
0.8873	1.42861	-0.36736	0	
0.8880	-0.102044	-2.82408	0	
0.8887	-1.91842	-4.63792	0	
0.8893	-2.83682	-5.25783	0	
0.8900	-1.61229	-6.47471	0	
0.8907	-1.00003	-8.31151	0	
0.8913	-2.83682	-9.82687	0	
0.8920	-2.83682	-9.82687	0	
0.8927	-1.00003	-9.22991	0	
0.8933	-2.83682	-8.93143	0	
0.8940	-3.75521	-7.69159	0	
0.8947	-1.30616	-4.95935	0	
0.8953	-2.22455	-0.0688799	0	
0.8960	-5.28586	4.82159	0	
0.8967	-3.44908	6.03847	0	
0.8973	-0.102044	3.58176	0	
0.8980	1.12248	2.36488	0	
0.8987	2.65314	2.0664	0	
0.8993	3.57153	3.28328	0	
0.9000	1.73474	4.82159	0	
0.9007	2.65314	3.58176	0	
0.9013	7.53083	-1.28576	0	
0.9020	10.286	-5.55631	0	
0.9027	9.67374	-6.47471	0	
0.9033	9.06148	-5.25783	0	
0.9040	6.00017	-4.95935	0	
0.9047	1.73474	-3.12256	0	
0.9053	1.73474	-1.28576	0	
0.9060	1.73474	-6.47471	0	
0.9067	-2.83682	-10.1483	0	
0.9073	-6.51039	-2.82408	0	
0.9080	-7.40837	5.12007	0	
0.9087	-8.02064	5.41855	0	
0.9093	-5.89813	7.85231	0	
0.9100	-4.36747	10.309	0	
0.9107	-8.6329	9.39063	0	
0.9113	-10.7758	12.4443	0	
0.9120	-5.28586	14.5796	0	
0.9127	0.510219	9.09215	0	
0.9133	-0.102044	2.0664	0	
0.9140	-5.592	-3.42104	0	
0.9147	-10.1636	-6.79615	0	
0.9153	-8.32677	-1.28576	0	
0.9160	-6.51039	5.71703	0	
0.9167	-11.0819	2.9848	0	
0.9173	-15.6535	-0.0688799	0	
0.9180	-13.8167	1.76792	0	
0.9187	-12.0003	1.148	0	
0.9193	-8.93903	0.528079	0	
0.9200	-3.75521	0.2296	0	
0.9207	-2.83682	-2.82408	0	
0.9213	-4.06134	-3.74248	0	
0.9220	-1.91842	-1.90568	0	
0.9227	0.81635	-4.04096	0	
0.9233	2.34701	-8.31151	0	
0.9240	4.18379	-7.69159	0	
0.9247	4.48992	-4.63792	0	
0.9253	2.34701	-2.50264	0	
0.9260	1.73474	-4.63792	0	
0.9267	3.87766	-9.82687	0	
0.9273	6.00017	-6.47471	0	
0.9280	6.3063	5.41855	0	
0.9287	6.3063	13.0413	0	
0.9293	4.79605	11.2274	0	
0.9300	3.2654	7.25535	0	
0.9307	4.48992	1.76792	0	
0.9313	7.2247	-3.42104	0	
0.9320	6.3063	-4.63792	0	
0.9327	3.57153	-4.95935	0	
0.9333	3.57153	-4.33944	0	
0.9340	3.2654	-3.12256	0	
0.9347	2.34701	-4.33944	0	
0.9353	2.65314	-2.82408	0	
0.9360	2.34701	5.41855	0	
0.9367	2.04087	6.63543	0	
0.9373	2.04087	-3.74248	0	
0.9380	-1.30616	-12.2836	0	
0.9387	-3.44908	-12.2836	0	
0.9393	2.65314	-8.31151	0	
0.9400	6.3063	-2.82408	0	
0.9407	0.510219	0.528079	0	
0.9413	-4.6736	-1.90568	0	
0.9420	-1.91842	-1.6072	0	
0.9427	1.73474	6.33695	0	
0.9433	1.42861	14.2811	0	
0.9440	-0.408175	13.3627	0	
0.9447	-0.102044	6.03847	0	
0.9453	2.04087	2.68632	0	
0.9460	4.18379	2.68632	0	
0.9467	4.79605	0.849519	0	
0.9473	2.65314	-0.0688799	0	
0.9480	-2.22455	5.71703	0	
0.9487	-5.592	9.09215	0	
0.9493	-2.83682	4.20168	0	
0.9500	1.73474	-0.688799	0	
0.9507	3.57153	-0.987279	0	
0.9513	3.2654	-2.50264	0	
0.9520	0.81635	-4.04096	0	
0.9527	-1.00003	-4.63792	0	
0.9533	0.204087	-7.39311	0	
0.9540	2.34701	-11.0667	0	
0.9547	2.65314	-10.4468	0	
0.9553	1.73474	-8.31151	0	
0.9560	-0.102044	-7.69159	0	
0.9567	0.510219	-8.31151	0	
0.9573	4.18379	-9.82687	0	
0.9580	6.3063	-10.1483	0	
0.9587	5.71445	-7.09463	0	
0.9593	5.40832	-1.90568	0	
0.9600	4.48992	0.849519	0	
0.9607	2.65314	-0.0688799	0	
0.9613	2.95927	0.849519	0	
0.9620	5.40832	4.82159	0	
0.9627	5.10219	6.63543	0	
0.9633	4.48992	9.09215	0	
0.9640	7.53083	15.498	0	
0.9647	9.36761	17.9317	0	
0.9653	4.79605	13.9597	0	
0.9660	1.12248	10.906	0	
0.9667	2.04087	7.55383	0	
0.9673	3.57153	3.9032	0	
0.9680	5.40832	3.28328	0	
0.9687	8.14309	0.528079	0	
0.9693	8.14309	-3.74248	0	
0.9700	7.2247	-2.50264	0	
0.9707	6.00017	-2.50264	0	
0.9713	2.65314	-8.93143	0	
0.9720	-1.61229	-8.31151	0	
0.9727	-1.00003	1.148	0	
0.9733	0.510219	4.82159	0	
0.9740	-1.00003	4.82159	0	
0.9747	-2.83682	7.55383	0	
0.9753	-5.28586	5.41855	0	
0.9760	-6.51039	0.528079	0	
0.9767	-3.14295	0.849519	0	
0.9773	-0.102044	4.20168	0	
0.9780	-3.75521	4.82159	0	
0.9787	-7.40837	3.28328	0	
0.9793	-2.83682	0.849519	0	
0.9800	2.65314	-0.0688799	0	
0.9807	2.04087	0.528079	0	
0.9813	0.204087	2.68632	0	
0.9820	1.73474	4.20168	0	
0.9827	4.48992	4.50016	0	
0.9833	5.40832	3.28328	0	
0.9840	3.87766	2.36488	0	
0.9847	2.95927	1.76792	0	
0.9853	5.40832	0.2296	0	
0.9860	8.44922	-0.36736	0	
0.9867	8.75535	0.2296	0	
0.9873	9.06148	-0.0688799	0	
0.9880	8.75535	-2.82408	0	
0.9887	3.57153	-5.25783	0	
0.9893	-4.36747	-5.55631	0	
0.9900	-10.1636	-3.12256	0	
0.9907	-12.0003	-1.90568	0	
0.9913	-9.85742	-5.25783	0	
0.9920	-7.10224	-11.0667	0	
0.9927	-7.40837	-12.8805	0	
0.9933	-7.40837	-11.0667	0	
0.9940	-4.6736	-12.5821	0	
0.9947	-3.44908	-15.6357	0	
0.9953	-4.06134	-13.7989	0	
0.9960	-4.97973	-9.22991	0	
0.9967	-6.81652	-9.22991	0	
0.9973	-6.51039	-11.9621	0	
0.9980	-2.83682	-10.7453	0	
0.9987	-3.44908	-1.90568	0	
0.9993	-7.71451	10.906	0	
1.0000	-6.51039	17.3348	0	
1.0007	-3.75521	11.8244	0	
1.0013	-4.6736	2.9848	0	
1.0020	-2.83682	1.76792	0	
1.0027	0.510219	4.82159	0	
1.0033	-0.102044	4.20168	0	
1.0040	0.81635	1.76792	0	
1.0047	1.73474	0.849519	0	
1.0053	-0.693897	1.76792	0	
1.0060	-1.61229	5.12007	0	
1.0067	-0.408175	7.25535	0	
1.0073	-1.91842	5.71703	0	
1.0080	-3.75521	3.28328	0	
1.0087	-4.06134	0.2296	0	
1.0093	-5.592	-1.90568	0	
1.0100	-5.28586	-0.987279	0	
1.0107	-2.22455	-3.74248	0	
1.0113	-2.22455	-11.9621	0	
1.0120	-3.44908	-12.8805	0	
1.0127	-1.91842	-7.69159	0	
1.0133	-2.83682	-10.1483	0	
1.0140	-7.40837	-14.1204	0	
1.0147	-9.24516	-6.47471	0	
1.0153	-6.51039	5.12007	0	
1.0160	-2.83682	8.77071	0	
1.0167	-1.61229	5.12007	0	
1.0173	-0.693897	2.36488	0	
1.0180	0.510219	3.9032	0	
1.0187	2.04087	4.50016	0	
1.0193	4.18379	1.76792	0	
1.0200	5.40832	2.36488	0	
1.0207	3.57153	4.50016	0	
1.0213	1.73474	2.9848	0	
1.0220	1.73474	2.36488	0	
1.0227	1.73474	3.9032	0	
1.0233	0.510219	2.36488	0	
1.0240	1.73474	1.148	0	
1.0247	6.61243	3.28328	0	
1.0253	9.67374	3.28328	0	
1.0260	7.2247	2.36488	0	
1.0267	5.40832	2.36488	0	
1.0273	3.87766	0.528079	0	
1.0280	0.204087	-0.987279	0	
1.0287	-1.00003	-0.0688799	0	
1.0293	3.2654	-0.987279	0	
1.0300	5.71445	-3.12256	0	
1.0307	4.48992	-4.04096	0	
1.0313	0.81635	-7.39311	0	
1.0320	-4.6736	-11.9621	0	
1.0327	-7.10224	-11.9621	0	
1.0333	-4.6736	-8.60999	0	
1.0340	-4.6736	-6.17623	0	
1.0347	-8.32677	-4.63792	0	
1.0353	-9.55129	-4.33944	0	
1.0360	-7.10224	-4.33944	0	
1.0367	-4.6736	-0.36736	0	
1.0373	-4.06134	2.9848	0	
1.0380	-5.28586	-1.28576	0	
1.0387	-5.89813	-7.09463	0	
1.0393	-5.89813	-5.55631	0	
1.0400	-6.81652	-3.42104	0	
1.0407	-6.51039	-1.6072	0	
1.0413	-5.592	7.55383	0	
1.0420	-6.51039	14.2811	0	
1.0427	-6.51039	9.39063	0	
1.0433	-1.91842	6.03847	0	
1.0440	0.81635	7.25535	0	
1.0447	-0.693897	2.0664	0	
1.0453	-1.30616	-3.42104	0	
1.0460	-1.61229	-2.20416	0	
1.0467	-3.75521	-2.50264	0	
1.0473	-4.6736	-3.74248	0	
1.0480	-4.06134	-3.74248	0	
1.0487	-5.592	-5.55631	0	
1.0493	-6.51039	-5.25783	0	
1.0500	-7.40837	-0.0688799	0	
1.0507	-9.85742	-0.987279	0	
1.0513	-8.32677	-7.69159	0	
1.0520	-2.83682	-5.87775	0	
1.0527	-1.00003	0.849519	0	
1.0533	1.42861	-0.0688799	0	
1.0540	6.3063	-1.90568	0	
1.0547	6.00017	1.76792	0	
1.0553	2.65314	4.82159	0	
1.0560	2.95927	6.33695	0	
1.0567	4.18379	7.55383	0	
1.0573	2.65314	2.9848	0	
1.0580	4.18379	-1.90568	0	
1.0587	6.91856	2.68632	0	
1.0593	4.48992	8.17375	0	
1.0600	0.81635	5.12007	0	
1.0607	1.42861	-1.6072	0	
1.0613	3.2654	-3.12256	0	
1.0620	2.65314	-0.688799	0	
1.0627	3.57153	-1.6072	0	
1.0633	5.40832	-6.79615	0	
1.0640	1.12248	-8.01303	0	
1.0647	-3.75521	-1.90568	0	
1.0653	-0.102044	3.58176	0	
1.0660	4.79605	4.50016	0	
1.0667	7.83696	1.76792	0	
1.0673	10.286	1.148	0	
1.0680	8.44922	10.906	0	
1.0687	3.57153	21.2839	0	
1.0693	1.73474	17.3348	0	
1.0700	2.65314	7.85231	0	
1.0707	5.40832	6.33695	0	
1.0713	8.75535	6.33695	0	
1.0720	7.2247	4.20168	0	
1.0727	2.65314	4.50016	0	
1.0733	-0.102044	4.50016	0	
1.0740	-1.91842	0.849519	0	
1.0747	-3.14295	-2.50264	0	
1.0753	-2.22455	-1.90568	0	
1.0760	-1.00003	0.2296	0	
1.0767	0.510219	-1.6072	0	
1.0773	2.95927	-4.63792	0	
1.0780	3.57153	-2.82408	0	
1.0787	2.65314	1.148	0	
1.0793	2.34701	-0.36736	0	
1.0800	2.95927	-1.90568	0	
1.0807	4.18379	-0.987279	0	
1.0813	2.34701	-4.04096	0	
1.0820	-0.693897	-5.25783	0	
1.0827	0.510219	-1.28576	0	
1.0833	2.34701	-2.20416	0	
1.0840	-0.102044	-5.55631	0	
1.0847	-3.14295	-0.0688799	0	
1.0853	-4.06134	6.63543	0	
1.0860	-2.22455	5.41855	0	
1.0867	2.04087	4.82159	0	
1.0873	2.65314	6.33695	0	
1.0880	-1.30616	4.20168	0	
1.0887	-4.97973	0.849519	0	
1.0893	-6.81652	-3.42104	0	
1.0900	-8.32677	-10.7453	0	
1.0907	-8.32677	-15.6357	0	
1.0913	-9.24516	-13.5005	0	
1.0920	-11.3881	-10.4468	0	
1.0927	-10.1636	-9.82687	0	
1.0933	-6.20426	-8.60999	0	
1.0940	-4.6736	-6.47471	0	
1.0947	-8.32677	-4.33944	0	
1.0953	-12.0003	-2.82408	0	
1.0960	-12.6126	-2.50264	0	
1.0967	-11.3881	-5.55631	0	
1.0973	-12.0003	-10.4468	0	
1.0980	-10.4697	-10.1483	0	
1.0987	-5.28586	-5.55631	0	
1.0993	-3.14295	-0.688799	0	
1.1000	-6.51039	6.63543	0	
1.1007	-8.02064	13.3627	0	
1.1013	-5.28586	13.6612	0	
1.1020	-1.61229	13.0413	0	
1.1027	2.95927	14.5796	0	
1.1033	5.71445	10.906	0	
1.1040	6.00017	3.58176	0	
1.1047	7.2247	-0.0688799	0	
1.1053	9.36761	-1.90568	0	
1.1060	8.75535	-3.42104	0	
1.1067	8.14309	-1.90568	0	
1.1073	9.06148	-0.36736	0	
1.1080	6.91856	0.2296	0	
1.1087	2.65314	-0.688799	0	
1.1093	0.81635	-4.33944	0	
1.1100	-0.102044	-5.55631	0	
1.1107	-3.14295	-2.20416	0	
1.1113	-4.06134	-2.50264	0	
1.1120	-1.91842	-5.55631	0	
1.1127	-1.91842	-4.63792	0	
1.1133	-2.83682	-1.90568	0	
1.1140	-1.00003	-1.90568	0	
1.1147	0.81635	-0.987279	0	
1.1153	1.12248	2.36488	0	
1.1160	4.48992	-0.0688799	0	
1.1167	6.61243	-6.17623	0	
1.1173	1.73474	-7.69159	0	
1.1180	-2.83682	-5.25783	0	
1.1187	-1.00003	-3.74248	0	
1.1193	1.73474	-3.42104	0	
1.1200	0.81635	-4.04096	0	
1.1207	-2.22455	-6.79615	0	
1.1213	-2.83682	-6.79615	0	
1.1220	0.81635	-5.25783	0	
1.1227	1.73474	-4.95935	0	
1.1233	-0.693897	-0.987279	0	
1.1240	-2.83682	5.71703	0	
1.1247	-3.75521	3.9032	0	
1.1253	-4.06134	-2.50264	0	
1.1260	-1.91842	-0.987279	0	
1.1267	-0.102044	3.28328	0	
1.1273	0.510219	3.58176	0	
1.1280	3.57153	1.44648	0	
1.1287	5.10219	-1.28576	0	
1.1293	3.57153	-2.82408	0	
1.1300	3.57153	2.0664	0	
1.1307	3.57153	6.63543	0	
1.1313	2.34701	4.50016	0	
1.1320	5.10219	0.528079	0	
1.1327	7.53083	-1.6072	0	
1.1333	3.87766	-2.82408	0	
1.1340	2.34701	-4.04096	0	
1.1347	1.42861	-6.17623	0	
1.1353	-7.10224	-7.39311	0	
1.1360	-14.7351	-8.31151	0	
1.1367	-11.0819	-7.39311	0	
1.1373	-3.75521	-6.47471	0	
1.1380	1.73474	-8.93143	0	
1.1387	4.48992	-10.4468	0	
1.1393	2.65314	-4.33944	0	
1.1400	-0.408175	2.0664	0	
1.1407	-0.408175	-0.0688799	0	
1.1413	-0.102044	-3.42104	0	
1.1420	0.510219	-0.688799	0	
1.1427	3.87766	5.41855	0	
1.1433	4.18379	12.1458	0	
1.1440	-0.102044	13.9597	0	
1.1447	-0.102044	9.68911	0	
1.1453	3.57153	7.55383	0	
1.1460	4.48992	8.47223	0	
1.1467	3.2654	6.03847	0	
1.1473	4.18379	3.9032	0	
1.1480	6.00017	6.95687	0	
1.1487	6.3063	9.09215	0	
1.1493	5.40832	8.77071	0	
1.1500	4.48992	7.55383	0	
1.1507	5.40832	4.82159	0	
1.1513	5.40832	2.0664	0	
1.1520	3.2654	1.148	0	
1.1527	0.81635	-0.0688799	0	
1.1533	-0.408175	-0.987279	0	
1.1540	-0.693897	0.528079	0	
1.1547	-0.102044	-0.0688799	0	
1.1553	-0.102044	-1.90568	0	
1.1560	0.81635	-2.82408	0	
1.1567	2.65314	-3.12256	0	
1.1573	2.34701	-2.50264	0	
1.1580	0.204087	0.2296	0	
1.1587	0.510219	1.44648	0	
1.1593	0.510219	0.849519	0	
1.1600	-1.00003	1.148	0	
1.1607	-1.30616	0.528079	0	
1.1613	-1.00003	-1.90568	0	
1.1620	-1.00003	-3.12256	0	
1.1627	-0.693897	-2.82408	0	
1.1633	-0.102044	-0.987279	0	
1.1640	-1.61229	0.849519	0	
1.1647	-2.53068	-1.28576	0	
1.1653	-0.102044	-6.17623	0	
1.1660	2.95927	-8.31151	0	
1.1667	2.65314	-9.22991	0	
1.1673	-1.61229	-13.5005	0	
1.1680	-5.592	-13.7989	0	
1.1687	-5.592	-11.9621	0	
1.1693	-5.592	-16.5541	0	
1.1700	-8.32677	-18.0695	0	
1.1707	-7.40837	-6.17623	0	
1.1713	-3.75521	4.82159	0	
1.1720	-4.97973	6.33695	0	
1.1727	-8.32677	8.17375	0	
1.1733	-7.71451	12.7428	0	
1.1740	-6.51039	14.5796	0	
1.1747	-5.592	13.0413	0	
1.1753	-2.53068	9.09215	0	
1.1760	-1.91842	4.20168	0	
1.1767	-5.592	-0.0688799	0	
1.1773	-7.40837	-3.74248	0	
1.1780	-4.6736	-4.63792	0	
1.1787	-3.75521	-2.20416	0	
1.1793	-4.36747	-0.987279	0	
1.1800	-2.53068	-0.987279	0	
1.1807	1.73474	-0.987279	0	
1.1813	3.57153	-2.50264	0	
1.1820	3.57153	-0.688799	0	
1.1827	5.40832	4.50016	0	
1.1833	8.14309	3.58176	0	
1.1840	9.97988	-1.90568	0	
1.1847	10.8983	-3.74248	0	
1.1853	11.5105	-2.82408	0	
1.1860	11.8167	-0.36736	0	
1.1867	11.5105	4.50016	0	
1.1873	8.14309	5.71703	0	
1.1880	2.65314	3.28328	0	
1.1887	-1.00003	2.36488	0	
1.1893	-1.30616	1.44648	0	
1.1900	-1.91842	-0.987279	0	
1.1907	-1.30616	-2.82408	0	
1.1913	-0.102044	-3.74248	0	
1.1920	-2.83682	-5.25783	0	
1.1927	-8.32677	-7.69159	0	
1.1933	-9.85742	-5.87775	0	
1.1940	-6.81652	1.76792	0	
1.1947	-3.44908	6.33695	0	
1.1953	-1.30616	3.58176	0	
1.1960	-1.00003	2.36488	0	
1.1967	-2.83682	4.50016	0	
1.1973	-5.592	3.58176	0	
1.1980	-4.36747	2.36488	0	
1.1987	-1.30616	3.58176	0	
1.1993	-4.97973	2.68632	0	
1.2000	-11.3881	1.148	0	
1.2007	-10.1636	1.76792	0	
1.2013	-6.51039	1.76792	0	
1.2020	-7.40837	0.849519	0	
1.2027	-4.6736	-0.0688799	0	
1.2033	0.81635	-1.90568	0	
1.2040	0.81635	-3.42104	0	
1.2047	-1.30616	-2.20416	0	
1.2053	0.510219	-1.90568	0	
1.2060	1.12248	-3.74248	0	
1.2067	-0.102044	-5.55631	0	
1.2073	1.12248	-8.31151	0	
1.2080	3.57153	-11.9621	0	
1.2087	4.18379	-14.7173	0	
1.2093	2.65314	-16.2557	0	
1.2100	2.65314	-16.5541	0	
1.2107	5.10219	-13.5005	0	
1.2113	3.87766	-10.1483	0	
1.2120	-0.102044	-9.82687	0	
1.2127	0.81635	-8.93143	0	
1.2133	4.79605	-1.90568	0	
1.2140	2.04087	8.17375	0	
1.2147	-3.75521	15.7965	0	
1.2153	-3.44908	17.3348	0	
1.2160	1.73474	14.5796	0	
1.2167	5.10219	11.5259	0	
1.2173	3.87766	10.309	0	
1.2180	3.57153	9.68911	0	
1.2187	5.40832	10.0105	0	
1.2193	4.18379	11.5259	0	
1.2200	1.42861	10.0105	0	
1.2207	0.204087	5.71703	0	
1.2213	-1.61229	4.50016	0	
1.2220	-3.44908	6.33695	0	
1.2227	-1.91842	6.63543	0	
1.2233	0.204087	6.95687	0	
1.2240	-0.102044	7.85231	0	
1.2247	-0.102044	5.41855	0	
1.2253	0.81635	2.36488	0	
1.2260	0.204087	3.58176	0	
1.2267	-2.83682	5.12007	0	
1.2273	-4.6736	0.849519	0	
1.2280	-5.89813	-3.74248	0	
1.2287	-8.6329	-3.42104	0	
1.2293	-10.1636	-2.20416	0	
1.2300	-7.71451	-3.74248	0	
1.2307	-6.51039	-3.74248	0	
1.2313	-9.24516	-2.82408	0	
1.2320	-9.24516	-4.63792	0	
1.2327	-4.6736	-10.1483	0	
1.2333	0.204087	-13.202	0	
1.2340	0.81635	-11.0667	0	
1.2347	-1.00003	-7.09463	0	
1.2353	-1.30616	-6.17623	0	
1.2360	-0.408175	-9.22991	0	
1.2367	-1.30616	-12.8805	0	
1.2373	-1.61229	-11.6637	0	
1.2380	1.12248	-4.95935	0	
1.2387	2.04087	0.849519	0	
1.2393	-0.693897	2.0664	0	
1.2400	-1.91842	1.148	0	
1.2407	-0.102044	5.71703	0	
1.2413	1.73474	16.4164	0	
1.2420	4.48992	20.3655	0	
1.2427	7.53083	12.7428	0	
1.2433	8.14309	4.20168	0	
1.2440	6.91856	3.28328	0	
1.2447	5.40832	4.20168	0	
1.2453	5.40832	1.148	0	
1.2460	5.71445	-2.50264	0	
1.2467	5.40832	-2.82408	0	
1.2473	5.40832	-2.20416	0	
1.2480	6.00017	-1.90568	0	
1.2487	4.48992	-1.90568	0	
1.2493	2.65314	-3.74248	0	
1.2500	4.18379	-6.79615	0	
1.2507	4.48992	-4.63792	0	
1.2513	0.81635	3.58176	0	
1.2520	-0.693897	6.33695	0	
1.2527	-0.408175	0.528079	0	
1.2533	-3.14295	-4.33944	0	
1.2540	-7.71451	-7.09463	0	
1.2547	-8.32677	-9.22991	0	
1.2553	-6.51039	-7.09463	0	
1.2560	-5.592	-2.50264	0	
1.2567	-4.06134	-1.6072	0	
1.2573	-2.22455	-1.90568	0	
1.2580	-2.22455	-0.36736	0	
1.2587	-3.75521	-0.688799	0	
1.2593	-4.36747	-1.90568	0	
1.2600	-4.06134	-0.688799	0	
1.2607	-3.14295	0.2296	0	
1.2613	-2.83682	-2.82408	0	
1.2620	-2.83682	-4.95935	0	
1.2627	-1.00003	-3.74248	0	
1.2633	1.73474	-1.6072	0	
1.2640	1.73474	-2.82408	0	
1.2647	2.65314	-3.12256	0	
1.2653	5.71445	-0.0688799	0	
1.2660	4.18379	1.76792	0	
1.2667	2.34701	0.849519	0	
1.2673	4.18379	0.849519	0	
1.2680	5.40832	0.849519	0	
1.2687	3.57153	1.44648	0	
1.2693	2.65314	2.36488	0	
1.2700	1.12248	2.0664	0	
1.2707	-1.00003	-0.0688799	0	
1.2713	-0.102044	-0.0688799	0	
1.2720	-0.408175	0.849519	0	
1.2727	-2.53068	-0.0688799	0	
1.2733	-4.97973	-1.90568	0	
1.2740	-7.10224	-1.90568	0	
1.2747	-7.40837	-1.90568	0	
1.2753	-6.81652	-1.90568	0	
1.2760	-9.55129	-2.50264	0	
1.2767	-12.3065	-4.63792	0	
1.2773	-11.0819	-8.01303	0	
1.2780	-7.40837	-9.22991	0	
1.2787	-3.75521	-7.39311	0	
1.2793	-0.102044	-8.01303	0	
1.2800	0.510219	-10.7453	0	
1.2807	-2.22455	-10.1483	0	
1.2813	-5.592	-7.69159	0	
1.2820	-7.40837	-6.79615	0	
1.2827	-5.89813	-1.6072	0	
1.2833	0.81635	6.33695	0	
1.2840	6.3063	3.58176	0	
1.2847	3.87766	-3.74248	0	
1.2853	0.81635	-1.6072	0	
1.2860	5.40832	5.71703	0	
1.2867	13.0208	9.09215	0	
1.2873	15.1637	11.2274	0	
1.2880	12.4289	11.5259	0	
1.2887	8.14309	12.4443	0	
1.2893	4.48992	16.7149	0	
1.2900	2.95927	17.0133	0	
1.2907	3.57153	9.39063	0	
1.2913	4.48992	3.58176	0	
1.2920	4.48992	2.9848	0	
1.2927	4.48992	2.68632	0	
1.2933	3.57153	0.849519	0	
1.2940	2.65314	-0.36736	0	
1.2947	2.04087	1.76792	0	
1.2953	2.04087	6.63543	0	
1.2960	2.65314	6.33695	0	
1.2967	3.2654	1.44648	0	
1.2973	1.73474	-0.36736	0	
1.2980	-1.00003	-0.688799	0	
1.2987	-1.91842	-4.33944	0	
1.2993	-3.75521	-8.31151	0	
1.3000	-8.32677	-11.0667	0	
1.3007	-9.24516	-13.5005	0	
1.3013	-7.40837	-13.5005	0	
1.3020	-8.93903	-11.0667	0	
1.3027	-8.32677	-8.93143	0	
1.3033	-4.36747	-1.6072	0	
1.3040	-3.75521	11.8244	0	
1.3047	-2.83682	18.5517	0	
1.3053	-0.102044	17.0133	0	
1.3060	-1.61229	15.498	0	
1.3067	-3.75521	14.8781	0	
1.3073	-1.91842	12.1458	0	
1.3080	0.204087	6.33695	0	
1.3087	3.57153	-1.90568	0	
1.3093	8.14309	-6.17623	0	
1.3100	9.06148	-2.50264	0	
1.3107	8.14309	1.148	0	
1.3113	6.3063	-1.28576	0	
1.3120	4.48992	-2.82408	0	
1.3127	5.71445	-0.36736	0	
1.3133	6.91856	-0.36736	0	
1.3140	4.18379	-3.12256	0	
1.3147	2.04087	-5.55631	0	
1.3153	2.04087	-7.39311	0	
1.3160	1.42861	-7.09463	0	
1.3167	0.204087	-4.33944	0	
1.3173	-1.00003	-2.82408	0	
1.3180	-1.61229	-3.74248	0	
1.3187	-1.91842	-3.74248	0	
1.3193	-3.44908	-2.50264	0	
1.3200	-3.75521	1.76792	0	
1.3207	-0.102044	6.03847	0	
1.3213	2.65314	6.33695	0	
1.3220	2.65314	3.58176	0	
1.3227	2.65314	1.148	0	
1.3233	2.95927	0.849519	0	
1.3240	2.65314	2.68632	0	
1.3247	4.18379	5.12007	0	
1.3253	4.18379	3.58176	0	
1.3260	4.18379	-1.90568	0	
1.3267	6.3063	-2.82408	0	
1.3273	4.79605	1.44648	0	
1.3280	0.81635	1.44648	0	
1.3287	1.73474	-3.74248	0	
1.3293	2.95927	-4.95935	0	
1.3300	-0.408175	-1.28576	0	
1.3307	-2.53068	0.2296	0	
1.3313	-3.44908	-5.87775	0	
1.3320	-7.40837	-13.5005	0	
1.3327	-8.93903	-12.5821	0	
1.3333	-6.20426	-5.55631	0	
1.3340	-7.40837	-3.12256	0	
1.3347	-8.6329	-4.95935	0	
1.3353	-4.97973	-3.74248	0	
1.3360	-2.83682	-0.0688799	0	
1.3367	-3.44908	1.44648	0	
1.3373	-3.75521	3.58176	0	
1.3380	-7.71451	6.03847	0	
1.3387	-12.9187	4.50016	0	
1.3393	-12.0003	1.76792	0	
1.3400	-8.32677	0.849519	0	
1.3407	-5.592	1.44648	0	
1.3413	-3.75521	1.76792	0	
1.3420	-2.53068	2.68632	0	
1.3427	-1.00003	2.36488	0	
1.3433	-0.408175	2.9848	0	
1.3440	-2.83682	4.20168	0	
1.3447	-1.91842	2.36488	0	
1.3453	3.57153	-2.50264	0	
1.3460	5.40832	-4.33944	0	
1.3467	2.65314	-3.42104	0	
1.3473	0.510219	-5.25783	0	
1.3480	-3.75521	-12.8805	0	
1.3487	-9.24516	-15.6357	0	
1.3493	-9.24516	-11.3652	0	
1.3500	-4.6736	-11.0667	0	
1.3507	-1.30616	-12.8805	0	
1.3513	-0.408175	-8.31151	0	
1.3520	-0.408175	-3.74248	0	
1.3527	0.81635	-2.50264	0	
1.3533	3.57153	2.0664	0	
1.3540	4.79605	6.63543	0	
1.3547	3.57153	8.47223	0	
1.3553	2.04087	13.3627	0	
1.3560	-1.91842	15.498	0	
1.3567	-7.10224	8.17375	0	
1.3573	-7.40837	2.0664	0	
1.3580	-4.36747	3.58176	0	
1.3587	-3.44908	4.50016	0	
1.3593	-5.89813	2.36488	0	
1.3600	-8.32677	0.849519	0	
1.3607	-8.32677	-1.90568	0	
1.3613	-3.44908	-3.74248	0	
1.3620	1.12248	-0.0688799	0	
1.3627	1.42861	4.82159	0	
1.3633	1.42861	4.50016	0	
1.3640	3.2654	4.82159	0	
1.3647	5.40832	7.25535	0	
1.3653	8.14309	3.9032	0	
1.3660	9.97988	-3.74248	0	
1.3667	8.75535	-5.55631	0	
1.3673	6.91856	-2.50264	0	
1.3680	6.3063	-3.42104	0	
1.3687	2.65314	-5.87775	0	
1.3693	-1.30616	-4.33944	0	
1.3700	-1.91842	-3.74248	0	
1.3707	-1.00003	-4.63792	0	
1.3713	-2.83682	-1.90568	0	
1.3720	-2.83682	2.68632	0	
1.3727	-1.91842	-0.36736	0	
1.3733	-3.44908	-5.55631	0	
1.3740	-6.51039	-6.47471	0	
1.3747	-6.51039	-7.09463	0	
1.3753	-4.6736	-6.47471	0	
1.3760	-2.53068	-6.17623	0	
1.3767	-1.61229	-7.69159	0	
1.3773	-1.00003	-5.55631	0	
1.3780	1.12248	2.0664	0	
1.3787	3.87766	4.50016	0	
1.3793	6.3063	-0.987279	0	
1.3800	8.44922	-5.87775	0	
1.3807	12.7146	-8.31151	0	
1.3813	16.0821	-9.22991	0	
1.3820	15.776	-6.47471	0	
1.3827	11.2044	-1.90568	0	
1.3833	6.91856	1.44648	0	
1.3840	6.91856	4.50016	0	
1.3847	8.14309	10.0105	0	
1.3853	6.91856	16.4164	0	
1.3860	5.40832	16.4164	0	
1.3867	5.10219	11.5259	0	
1.3873	1.73474	7.25535	0	
1.3880	-1.30616	5.71703	0	
1.3887	0.204087	9.68911	0	
1.3893	0.81635	15.7965	0	
1.3900	-1.61229	13.6612	0	
1.3907	-1.61229	5.41855	0	
1.3913	-1.30616	3.9032	0	
1.3920	-2.53068	5.41855	0	
1.3927	-2.22455	0.849519	0	
1.3933	-3.14295	-2.82408	0	
1.3940	-8.02064	-1.90568	0	
1.3947	-9.24516	-3.42104	0	
1.3953	-4.97973	-6.17623	0	
1.3960	-3.14295	-5.25783	0	
1.3967	-4.97973	-2.50264	0	
1.3973	-4.97973	-1.90568	0	
1.3980	-2.83682	-3.74248	0	
1.3987	-0.102044	-3.12256	0	
1.3993	0.81635	-0.688799	0	
1.4000	1.12248	-0.987279	0	
1.4007	1.12248	-4.33944	0	
1.4013	1.73474	-3.74248	0	
1.4020	3.2654	0.849519	0	
1.4027	3.87766	5.41855	0	
1.4033	3.2654	6.33695	0	
1.4040	3.87766	3.9032	0	
1.4047	4.79605	2.68632	0	
1.4053	3.87766	5.71703	0	
1.4060	5.10219	9.68911	0	
1.4067	5.40832	8.17375	0	
1.4073	-0.102044	3.9032	0	
1.4080	-4.06134	-0.0688799	0	
1.4087	-2.83682	-4.95935	0	
1.4093	-3.75521	-11.9621	0	
1.4100	-5.89813	-14.7173	0	
1.4107	-3.75521	-10.4468	0	
1.4113	-2.22455	-7.09463	0	
1.4120	-5.28586	-6.79615	0	
1.4127	-6.51039	-5.25783	0	
1.4133	-6.51039	-1.90568	0	
1.4140	-6.81652	-1.90568	0	
1.4147	-7.40837	-4.33944	0	
1.4153	-8.6329	-5.55631	0	
1.4160	-9.24516	-3.74248	0	
1.4167	-6.81652	-2.20416	0	
1.4173	-4.6736	-3.74248	0	
1.4180	-3.44908	-4.95935	0	
1.4187	0.204087	-4.63792	0	
1.4193	4.18379	-4.04096	0	
1.4200	8.14309	-3.42104	0	
1.4207	11.8167	-1.6072	0	
1.4213	9.36761	-0.688799	0	
1.4220	5.10219	-0.36736	0	
1.4227	5.40832	0.528079	0	
1.4233	5.40832	1.44648	0	
1.4240	0.204087	1.76792	0	
1.4247	-3.75521	1.76792	0	
1.4253	-2.53068	-0.36736	0	
1.4260	2.65314	-2.82408	0	
1.4267	5.40832	-0.987279	0	
1.4273	1.12248	2.9848	0	
1.4280	-1.91842	2.68632	0	
1.4287	2.34701	1.76792	0	
1.4293	2.95927	3.58176	0	
1.4300	-1.30616	4.50016	0	
1.4307	-2.22455	4.20168	0	
1.4313	-2.53068	3.58176	0	
1.4320	-4.6736	0.528079	0	
1.4327	-4.97973	-1.90568	0	
1.4333	-5.89813	-2.20416	0	
1.4340	-6.81652	-7.39311	0	
1.4347	-3.14295	-12.8805	0	
1.4353	-2.22455	-12.5821	0	
1.4360	-7.40837	-13.5005	0	
1.4367	-10.1636	-17.4725	0	
1.4373	-10.1636	-14.1204	0	
1.4380	-13.531	-5.87775	0	
1.4387	-15.9596	-0.987279	0	
1.4393	-11.6942	2.0664	0	
1.4400	-4.6736	3.58176	0	
1.4407	-1.30616	6.33695	0	
1.4413	-3.14295	17.6333	0	
1.4420	-2.53068	27.0928	0	
1.4427	3.87766	20.067	0	
1.4433	9.06148	8.47223	0	
1.4440	7.53083	6.95687	0	
1.4447	6.91856	6.95687	0	
1.4453	9.97988	2.9848	0	
1.4460	11.8167	2.0664	0	
1.4467	11.5105	4.50016	0	
1.4473	9.97988	3.58176	0	
1.4480	6.3063	1.76792	0	
1.4487	3.57153	2.36488	0	
1.4493	-0.102044	2.68632	0	
1.4500	-5.592	0.849519	0	
1.4507	-8.93903	-1.6072	0	
1.4513	-5.592	-5.55631	0	
1.4520	-1.00003	-10.4468	0	
1.4527	1.73474	-12.8805	0	
1.4533	0.81635	-13.7989	0	
1.4540	-1.61229	-15.3373	0	
1.4547	-2.53068	-14.1204	0	
1.4553	-3.44908	-9.22991	0	
1.4560	-4.6736	-2.82408	0	
1.4567	-4.97973	1.148	0	
1.4573	-5.28586	2.36488	0	
1.4580	-5.592	3.28328	0	
1.4587	-2.22455	6.95687	0	
1.4593	0.510219	9.68911	0	
1.4600	-0.102044	6.33695	0	
1.4607	2.04087	0.849519	0	
1.4613	6.00017	1.76792	0	
1.4620	6.3063	9.09215	0	
1.4627	5.71445	14.8781	0	
1.4633	6.91856	15.7965	0	
1.4640	7.2247	10.906	0	
1.4647	6.61243	5.41855	0	
1.4653	6.3063	4.50016	0	
1.4660	5.10219	5.41855	0	
1.4667	4.18379	3.28328	0	
1.4673	2.65314	0.849519	0	
1.4680	1.73474	-0.36736	0	
1.4687	2.65314	-1.90568	0	
1.4693	3.2654	-1.90568	0	
1.4700	2.65314	0.2296	0	
1.4707	2.95927	-0.987279	0	
1.4713	3.57153	-1.90568	0	
1.4720	3.57153	-0.688799	0	
1.4727	4.79605	-1.90568	0	
1.4733	7.2247	-3.12256	0	
1.4740	6.91856	0.2296	0	
1.4747	3.57153	1.76792	0	
1.4753	1.12248	-1.6072	0	
1.4760	-0.102044	-1.28576	0	
1.4767	-0.693897	2.68632	0	
1.4773	-1.91842	3.9032	0	
1.4780	-2.53068	2.68632	0	
1.4787	-1.30616	1.76792	0	
1.4793	-0.408175	0.849519	0	
1.4800	-0.102044	-0.0688799	0	
1.4807	1.73474	0.2296	0	
1.4813	4.18379	-1.6072	0	
1.4820	3.87766	-2.82408	0	
1.4827	2.65314	0.528079	0	
1.4833	2.65314	0.849519	0	
1.4840	2.65314	-3.42104	0	
1.4847	0.81635	-4.04096	0	
1.4853	-0.693897	-2.20416	0	
1.4860	-2.22455	-1.90568	0	
1.4867	-2.83682	-1.90568	0	
1.4873	-1.91842	-1.6072	0	
1.4880	-1.91842	-2.20416	0	
1.4887	-3.44908	-1.6072	0	
1.4893	-4.06134	-0.987279	0	
1.4900	-3.75521	-1.6072	0	
1.4907	-2.83682	0.849519	0	
1.4913	-1.91842	3.58176	0	
1.4920	-4.36747	-0.987279	0	
1.4927	-6.51039	-5.25783	0	
1.4933	-4.6736	-4.63792	0	
1.4940	-1.91842	-3.74248	0	
1.4947	-3.14295	-3.74248	0	
1.4953	-2.83682	-3.12256	0	
1.4960	-1.61229	-4.33944	0	
1.4967	-2.83682	-4.04096	0	
1.4973	-6.20426	0.2296	0	
1.4980	-8.02064	1.76792	0	
1.4987	-7.40837	-0.0688799	0	
1.4993	-5.592	-0.36736	0	
1.5000	-7.10224	-0.0688799	0	
1.5007	-8.32677	-0.0688799	0	
1.5013	-5.592	-0.0688799	0	
1.5020	-3.75521	0.849519	0	
1.5027	-6.51039	4.20168	0	
1.5033	-8.32677	5.41855	0	
1.5040	-6.51039	3.28328	0	
1.5047	-3.14295	3.28328	0	
1.5053	-1.00003	4.50016	0	
1.5060	-2.83682	-0.0688799	0	
1.5067	-4.6736	-5.55631	0	
1.5073	-1.91842	-6.79615	0	
1.5080	-1.91842	-7.09463	0	
1.5087	-5.28586	-7.09463	0	
1.5093	-3.75521	-5.55631	0	
1.5100	1.73474	-3.74248	0	
1.5107	5.40832	-0.0688799	0	
1.5113	7.53083	5.12007	0	
1.5120	5.71445	4.50016	0	
1.5127	1.42861	0.849519	0	
1.5133	1.73474	2.36488	0	
1.5140	4.48992	7.25535	0	
1.5147	4.18379	8.17375	0	
1.5153	2.65314	5.71703	0	
1.5160	1.12248	5.12007	0	
1.5167	-0.102044	4.50016	0	
1.5173	-0.102044	2.0664	0	
1.5180	0.81635	0.528079	0	
1.5187	0.510219	-1.90568	0	
1.5193	1.73474	-5.55631	0	
1.5200	6.61243	-4.63792	0	
1.5207	10.8983	0.2296	0	
1.5213	7.83696	0.849519	0	
1.5220	0.510219	-0.987279	0	
1.5227	0.510219	0.849519	0	
1.5233	6.91856	0.849519	0	
1.5240	9.06148	-0.987279	0	
1.5247	6.91856	-1.90568	0	
1.5253	6.00017	-5.55631	0	
1.5260	2.65314	-10.7453	0	
1.5267	-1.00003	-7.39311	0	
1.5273	-0.693897	-0.987279	0	
1.5280	1.42861	-0.987279	0	
1.5287	2.04087	-4.33944	0	
1.5293	2.65314	-2.20416	0	
1.5300	2.65314	6.33695	0	
1.5307	0.81635	13.3627	0	
1.5313	-3.14295	11.5259	0	
1.5320	-5.592	3.28328	0	
1.5327	-5.28586	-2.50264	0	
1.5333	-7.40837	-3.42104	0	
1.5340	-9.55129	-2.82408	0	
1.5347	-4.97973	-3.74248	0	
1.5353	-1.61229	-4.33944	0	
1.5360	-5.89813	-3.74248	0	
1.5367	-7.40837	-4.63792	0	
1.5373	-3.75521	-6.17623	0	
1.5380	-2.53068	-4.33944	0	
1.5387	-1.91842	-3.74248	0	
1.5393	-0.693897	-6.17623	0	
1.5400	-0.102044	-6.47471	0	
1.5407	1.73474	-8.31151	0	
1.5413	4.18379	-12.5821	0	
1.5420	5.40832	-7.39311	0	
1.5427	4.79605	1.76792	0	
1.5433	1.73474	2.0664	0	
1.5440	-1.91842	4.20168	0	
1.5447	-1.00003	12.4443	0	
1.5453	1.73474	14.5796	0	
1.5460	3.57153	13.6612	0	
1.5467	4.79605	15.7965	0	
1.5473	3.87766	12.1458	0	
1.5480	1.73474	4.50016	0	
1.5487	1.73474	2.36488	0	
1.5493	1.42861	1.76792	0	
1.5500	-1.30616	-1.90568	0	
1.5507	-1.61229	-3.74248	0	
1.5513	-1.00003	-4.63792	0	
1.5520	-2.53068	-7.09463	0	
1.5527	-2.83682	-8.60999	0	
1.5533	-1.91842	-8.01303	0	
1.5540	-0.408175	-5.55631	0	
1.5547	4.18379	-2.82408	0	
1.5553	7.2247	-0.0688799	0	
1.5560	4.48992	-0.0688799	0	
1.5567	0.510219	-1.6072	0	
1.5573	-4.06134	0.2296	0	
1.5580	-6.51039	4.50016	0	
1.5587	-1.00003	3.9032	0	
1.5593	4.48992	-1.90568	0	
1.5600	0.81635	-3.42104	0	
1.5607	-4.6736	-0.0688799	0	
1.5613	-6.51039	0.849519	0	
1.5620	-6.81652	0.528079	0	
1.5627	-6.81652	0.528079	0	
1.5633	-7.10224	1.76792	0	
1.5640	-6.81652	3.58176	0	
1.5647	-4.6736	4.50016	0	
1.5653	-5.592	2.68632	0	
1.5660	-9.24516	0.528079	0	
1.5667	-6.20426	-2.50264	0	
1.5673	-1.61229	-4.95935	0	
1.5680	-2.83682	-3.74248	0	
1.5687	-3.75521	-2.82408	0	
1.5693	-1.61229	-4.63792	0	
1.5700	-2.22455	-4.63792	0	
1.5707	-2.53068	-2.82408	0	
1.5713	-0.102044	-3.42104	0	
1.5720	1.12248	-1.90568	0	
1.5727	2.04087	-0.0688799	0	
1.5733	1.12248	-2.82408	0	
1.5740	-1.91842	-3.74248	0	
1.5747	-1.00003	-0.987279	0	
1.5753	2.65314	-2.82408	0	
1.5760	2.65314	-4.04096	0	
1.5767	1.42861	0.2296	0	
1.5773	1.73474	3.28328	0	
1.5780	2.65314	3.28328	0	
1.5787	5.10219	1.76792	0	
1.5793	8.44922	-3.42104	0	
1.5800	9.06148	-4.63792	0	
1.5807	10.5921	-0.987279	0	
1.5813	12.7146	-0.36736	0	
1.5820	10.8983	-1.90568	0	
1.5827	9.67374	0.2296	0	
1.5833	11.8167	3.28328	0	
1.5840	9.06148	4.20168	0	
1.5847	2.95927	2.9848	0	
1.5853	2.04087	1.44648	0	
1.5860	1.12248	2.68632	0	
1.5867	-4.06134	2.68632	0	
1.5873	-6.20426	-1.90568	0	
1.5880	-5.28586	-3.74248	0	
1.5887	-6.51039	-0.688799	0	
1.5893	-8.32677	-1.90568	0	
1.5900	-7.40837	-4.63792	0	
1.5907	-6.51039	-3.74248	0	
1.5913	-6.20426	-2.82408	0	
1.5920	-4.6736	-4.95935	0	
1.5927	-3.75521	-7.39311	0	
1.5933	-2.83682	-8.01303	0	
1.5940	0.204087	-8.60999	0	
1.5947	3.57153	-8.01303	0	
1.5953	2.95927	-6.47471	0	
1.5960	2.65314	-7.09463	0	
1.5967	5.71445	-10.1483	0	
1.5973	7.53083	-11.3652	0	
1.5980	6.3063	-8.01303	0	
1.5987	6.3063	-1.90568	0	
1.5993	5.71445	1.148	0	
1.6000	5.40832	-0.987279	0	
1.6007	9.06148	-1.6072	0	
1.6013	11.2044	-0.688799	0	
1.6020	8.44922	-1.28576	0	
1.6027	7.83696	6.33695	0	
1.6033	9.67374	25.5545	0	
1.6040	8.75535	31.6618	0	
1.6047	6.91856	16.4164	0	
1.6053	6.3063	3.58176	0	
1.6060	4.48992	4.50016	0	
1.6067	2.34701	6.03847	0	
1.6073	1.73474	2.68632	0	
1.6080	-0.693897	1.148	0	
1.6087	-7.40837	2.68632	0	
1.6093	-11.3881	3.58176	0	
1.6100	-7.40837	2.68632	0	
1.6107	-3.75521	1.76792	0	
1.6113	-7.40837	1.148	0	
1.6120	-12.6126	-1.90568	0	
1.6127	-13.531	-8.31151	0	
1.6133	-13.2249	-14.1204	0	
1.6140	-13.531	-15.3373	0	
1.6147	-12.9187	-11.6637	0	
1.6153	-12.9187	-8.01303	0	
1.6160	-14.1229	-7.39311	0	
1.6167	-13.8167	-5.25783	0	
1.6173	-13.8167	0.528079	0	
1.6180	-15.0412	5.12007	0	
1.6187	-12.0003	8.77071	0	
1.6193	-2.83682	11.8244	0	
1.6200	2.34701	8.17375	0	
1.6207	0.204087	-0.0688799	0	
1.6213	-1.61229	-2.20416	0	
1.6220	-0.102044	-0.987279	0	
1.6227	-0.408175	-3.42104	0	
1.6233	-1.61229	-4.04096	0	
1.6240	-1.91842	-2.20416	0	
1.6247	-3.75521	-4.33944	0	
1.6253	-6.20426	-7.39311	0	
1.6260	-7.40837	-2.50264	0	
1.6267	-11.0819	3.58176	0	
1.6273	-15.9596	2.36488	0	
1.6280	-17.7964	-0.688799	0	
1.6287	-17.1842	-0.36736	0	
1.6293	-15.0412	1.148	0	
1.6300	-12.9187	1.44648	0	
1.6307	-13.2249	-2.20416	0	
1.6313	-13.8167	-4.63792	0	
1.6320	-12.0003	0.2296	0	
1.6327	-11.0819	5.12007	0	
1.6333	-10.1636	1.76792	0	
1.6340	-7.10224	-1.90568	0	
1.6347	-5.28586	-2.50264	0	
1.6353	-5.592	-2.82408	0	
1.6360	-4.06134	-2.20416	0	
1.6367	-1.91842	-1.28576	0	
1.6373	-1.30616	-3.74248	0	
1.6380	-1.00003	-4.63792	0	
1.6387	-0.408175	-1.90568	0	
1.6393	-0.693897	-0.987279	0	
1.6400	-1.00003	-3.74248	0	
1.6407	0.204087	-3.74248	0	
1.6413	2.95927	0.2296	0	
1.6420	7.2247	1.44648	0	
1.6427	11.5105	-0.0688799	0	
1.6433	13.633	3.28328	0	
1.6440	16.3882	7.25535	0	
1.6447	22.1843	2.68632	0	
1.6453	23.4088	-0.987279	0	
1.6460	17.9189	2.68632	0	
1.6467	16.3882	2.9848	0	
1.6473	19.123	-0.36736	0	
1.6480	18.5311	-0.0688799	0	
1.6487	17.3066	-0.987279	0	
1.6493	16.6944	-3.74248	0	
1.6500	11.8167	-0.688799	0	
1.6507	9.06148	-0.0688799	0	
1.6513	13.0208	-4.63792	0	
1.6520	15.4698	-4.63792	0	
1.6527	12.7146	-2.82408	0	
1.6533	10.286	-4.33944	0	
1.6540	10.5921	-3.74248	0	
1.6547	9.97988	-2.50264	0	
1.6553	4.48992	-3.12256	0	
1.6560	-0.102044	-3.12256	0	
1.6567	3.57153	-2.82408	0	
1.6573	9.06148	-4.33944	0	
1.6580	9.97988	-5.87775	0	
1.6587	11.8167	-7.39311	0	
1.6593	12.7146	-6.47471	0	
1.6600	6.3063	0.528079	0	
1.6607	3.2654	6.33695	0	
1.6613	9.06148	5.41855	0	
1.6620	13.0208	3.58176	0	
1.6627	12.1228	6.33695	0	
1.6633	11.8167	13.3627	0	
1.6640	10.8983	18.5517	0	
1.6647	9.06148	13.6612	0	
1.6653	8.75535	3.9032	0	
1.6660	7.53083	-0.987279	0	
1.6667	4.48992	-2.20416	0	
1.6673	1.73474	-0.987279	0	
1.6680	-1.00003	3.58176	0	
1.6687	-1.91842	3.58176	0	
1.6693	-3.14295	-0.0688799	0	
1.6700	-5.89813	0.849519	0	
1.6707	-7.71451	3.58176	0	
1.6713	-8.6329	2.9848	0	
1.6720	-11.0819	2.36488	0	
1.6727	-13.2249	0.849519	0	
1.6733	-14.429	0.2296	0	
1.6740	-15.0412	3.58176	0	
1.6747	-12.9187	3.28328	0	
1.6753	-8.6329	-2.20416	0	
1.6760	-8.32677	-2.82408	0	
1.6767	-10.1636	-0.36736	0	
1.6773	-8.6329	-2.20416	0	
1.6780	-4.6736	-5.25783	0	
1.6787	-1.91842	-7.39311	0	
1.6793	-1.00003	-8.60999	0	
1.6800	-1.30616	-8.93143	0	
1.6807	-1.61229	-11.0667	0	
1.6813	-0.693897	-13.5005	0	
1.6820	-4.36747	-8.31151	0	
1.6827	-12.0003	-1.6072	0	
1.6833	-13.531	-1.28576	0	
1.6840	-9.24516	1.76792	0	
1.6847	-7.40837	12.7428	0	
1.6853	-6.20426	21.9038	0	
1.6860	-3.44908	21.9038	0	
1.6867	-4.97973	13.6612	0	
1.6873	-7.71451	1.44648	0	
1.6880	-4.97973	-5.25783	0	
1.6887	-2.83682	-4.95935	0	
1.6893	-5.89813	-6.47471	0	
1.6900	-8.32677	-10.1483	0	
1.6907	-6.51039	-12.5821	0	
1.6913	-3.75521	-12.5821	0	
1.6920	-3.75521	-10.7453	0	
1.6927	-7.71451	-7.69159	0	
1.6933	-11.0819	-5.55631	0	
1.6940	-11.3881	-3.12256	0	
1.6947	-11.3881	2.36488	0	
1.6953	-7.71451	9.68911	0	
1.6960	-2.83682	14.5796	0	
1.6967	-5.592	11.8244	0	
1.6973	-10.7758	4.20168	0	
1.6980	-6.81652	1.44648	0	
1.6987	-2.53068	4.50016	0	
1.6993	-4.6736	4.50016	0	
1.7000	-4.06134	2.68632	0	
1.7007	-1.30616	2.68632	0	
1.7013	-2.22455	3.28328	0	
1.7020	-1.61229	3.9032	0	
1.7027	1.42861	5.71703	0	
1.7033	2.65314	6.03847	0	
1.7040	5.71445	4.50016	0	
1.7047	7.83696	5.41855	0	
1.7053	4.79605	6.33695	0	
1.7060	4.48992	2.68632	0	
1.7067	8.14309	-1.90568	0	
1.7073	8.75535	-2.82408	0	
1.7080	6.00017	-3.12256	0	
1.7087	4.48992	-4.63792	0	
1.7093	2.65314	-4.95935	0	
1.7100	2.04087	-3.42104	0	
1.7107	2.65314	1.148	0	
1.7113	4.48992	8.17375	0	
1.7120	5.40832	10.906	0	
1.7127	3.57153	5.12007	0	
1.7133	1.73474	-0.688799	0	
1.7140	3.87766	-0.36736	0	
1.7147	8.14309	0.849519	0	
1.7153	7.2247	-0.0688799	0	
1.7160	3.57153	-1.28576	0	
1.7167	4.79605	-0.987279	0	
1.7173	9.06148	0.2296	0	
1.7180	9.97988	-0.688799	0	
1.7187	6.3063	-2.20416	0	
1.7193	2.95927	-0.688799	0	
1.7200	3.57153	-0.0688799	0	
1.7207	4.18379	-1.90568	0	
1.7213	2.65314	0.528079	0	
1.7220	2.65314	3.58176	0	
1.7227	5.10219	0.2296	0	
1.7233	6.3063	-0.688799	0	
1.7240	2.65314	4.20168	0	
1.7247	0.204087	3.9032	0	
1.7253	2.65314	-0.688799	0	
1.7260	5.40832	-0.0688799	0	
1.7267	5.10219	0.849519	0	
1.7273	3.57153	-2.82408	0	
1.7280	2.95927	-3.12256	0	
1.7287	1.73474	-1.90568	0	
1.7293	-1.00003	-4.04096	0	
1.7300	-2.53068	-5.87775	0	
1.7307	-2.22455	-4.63792	0	
1.7313	-3.75521	-6.17623	0	
1.7320	-6.51039	-9.22991	0	
1.7327	-8.02064	-8.01303	0	
1.7333	-7.10224	-3.74248	0	
1.7340	-6.51039	-1.90568	0	
1.7347	-5.592	-2.82408	0	
1.7353	-4.06134	-3.74248	0	
1.7360	-5.28586	-4.04096	0	
1.7367	-8.32677	-4.63792	0	
1.7373	-10.4697	-7.39311	0	
1.7380	-11.0819	-8.31151	0	
1.7387	-10.4697	-4.33944	0	
1.7393	-10.1636	-1.90568	0	
1.7400	-10.1636	-4.63792	0	
1.7407	-7.10224	-5.87775	0	
1.7413	-2.83682	-0.688799	0	
1.7420	-1.91842	4.50016	0	
1.7427	-1.61229	2.68632	0	
1.7433	1.12248	-0.0688799	0	
1.7440	2.04087	-0.987279	0	
1.7447	0.81635	-5.25783	0	
1.7453	1.73474	-10.1483	0	
1.7460	-0.102044	-8.31151	0	
1.7467	-4.6736	-4.63792	0	
1.7473	-4.6736	-6.47471	0	
1.7480	-3.75521	-8.01303	0	
1.7487	-6.20426	-1.90568	0	
1.7493	-9.55129	7.85231	0	
1.7500	-11.6942	12.7428	0	
1.7507	-11.3881	12.1458	0	
1.7513	-8.32677	10.0105	0	
1.7520	-5.89813	9.09215	0	
1.7527	-7.40837	5.71703	0	
1.7533	-7.40837	-0.688799	0	
1.7540	-2.53068	-4.95935	0	
1.7547	1.12248	-4.63792	0	
1.7553	1.73474	-3.42104	0	
1.7560	3.57153	-4.33944	0	
1.7567	6.61243	-3.74248	0	
1.7573	6.3063	-0.36736	0	
1.7580	6.00017	-0.0688799	0	
1.7587	11.5105	-0.987279	0	
1.7593	17.3066	0.849519	0	
1.7600	17.3066	2.0664	0	
1.7607	15.4698	-0.0688799	0	
1.7613	14.8576	0.2296	0	
1.7620	13.3269	1.76792	0	
1.7627	13.633	0.849519	0	
1.7633	12.4289	2.36488	0	
1.7640	6.3063	6.33695	0	
1.7647	3.57153	6.33695	0	
1.7653	6.3063	6.33695	0	
1.7660	7.2247	8.17375	0	
1.7667	7.53083	6.63543	0	
1.7673	9.97988	2.68632	0	
1.7680	7.53083	-0.0688799	0	
1.7687	4.48992	-1.6072	0	
1.7693	6.61243	-1.90568	0	
1.7700	8.14309	-1.90568	0	
1.7707	6.3063	-5.87775	0	
1.7713	6.00017	-12.8805	0	
1.7720	2.65314	-16.5541	0	
1.7727	-3.75521	-13.7989	0	
1.7733	-3.75521	-8.31151	0	
1.7740	-1.91842	-4.63792	0	
1.7747	-6.51039	-2.20416	0	
1.7753	-9.24516	3.58176	0	
1.7760	-5.592	11.2274	0	
1.7767	-5.592	15.498	0	
1.7773	-8.32677	13.9597	0	
1.7780	-5.89813	8.17375	0	
1.7787	-3.75521	2.0664	0	
1.7793	-5.592	-0.987279	0	
1.7800	-5.89813	-0.36736	0	
1.7807	-3.75521	-0.688799	0	
1.7813	-4.36747	-1.6072	0	
1.7820	-4.06134	1.44648	0	
1.7827	-1.00003	5.41855	0	
1.7833	-0.408175	3.9032	0	
1.7840	-2.83682	0.528079	0	
1.7847	-4.36747	3.58176	0	
1.7853	-5.28586	5.12007	0	
1.7860	-6.51039	-0.0688799	0	
1.7867	-8.93903	-1.28576	0	
1.7873	-9.24516	1.76792	0	
1.7880	-8.6329	1.76792	0	
1.7887	-9.24516	2.9848	0	
1.7893	-9.24516	5.71703	0	
1.7900	-5.89813	2.68632	0	
1.7907	-4.6736	-0.688799	0	
1.7913	-9.24516	-2.20416	0	
1.7920	-12.3065	-8.93143	0	
1.7927	-12.9187	-12.5821	0	
1.7933	-14.1229	-6.79615	0	
1.7940	-12.0003	-4.63792	0	
1.7947	-6.51039	-8.60999	0	
1.7953	-6.81652	-8.01303	0	
1.7960	-8.6329	-3.74248	0	
1.7967	-3.75521	0.2296	0	
1.7973	0.204087	0.849519	0	
1.7980	-1.00003	-3.74248	0	
1.7987	-2.22455	-5.55631	0	
1.7993	0.510219	-2.50264	0	
1.8000	3.57153	0.849519	0	
1.8007	4.79605	3.28328	0	
1.8013	3.2654	4.50016	0	
1.8020	2.65314	-0.0688799	0	
1.8027	5.40832	-2.50264	0	
1.8033	5.71445	2.68632	0	
1.8040	4.79605	8.17375	0	
1.8047	7.2247	8.17375	0	
1.8053	9.67374	6.33695	0	
1.8060	6.91856	2.36488	0	
1.8067	3.57153	-0.36736	0	
1.8073	2.65314	1.44648	0	
1.8080	3.57153	2.36488	0	
1.8087	4.79605	-0.987279	0	
1.8093	5.10219	-1.6072	0	
1.8100	5.71445	-0.0688799	0	
1.8107	8.14309	-1.28576	0	
1.8113	9.06148	-3.74248	0	
1.8120	9.06148	-4.33944	0	
1.8127	11.8167	-4.04096	0	
1.8133	11.8167	-4.95935	0	
1.8140	8.14309	-5.87775	0	
1.8147	8.44922	-3.74248	0	
1.8153	9.97988	-1.90568	0	
1.8160	6.3063	-2.20416	0	
1.8167	3.2654	-4.04096	0	
1.8173	3.87766	-5.87775	0	
1.8180	3.57153	-4.63792	0	
1.8187	3.57153	-0.688799	0	
1.8193	6.00017	-0.36736	0	
1.8200	4.48992	-4.63792	0	
1.8207	2.65314	-0.987279	0	
1.8213	3.87766	8.17375	0	
1.8220	5.10219	6.33695	0	
1.8227	6.3063	-1.90568	0	
1.8233	8.14309	-2.82408	0	
1.8240	6.3063	0.2296	0	
1.8247	2.65314	-0.0688799	0	
1.8253	3.57153	-0.36736	0	
1.8260	3.57153	3.28328	0	
1.8267	2.65314	6.33695	0	
1.8273	6.3063	6.63543	0	
1.8280	9.06148	8.17375	0	
1.8287	3.87766	10.906	0	
1.8293	-2.83682	9.09215	0	
1.8300	-7.10224	4.82159	0	
1.8307	-9.55129	3.58176	0	
1.8313	-10.4697	3.58176	0	
1.8320	-11.6942	2.0664	0	
1.8327	-11.0819	0.849519	0	
1.8333	-6.51039	-0.0688799	0	
1.8340	-4.97973	-2.20416	0	
1.8347	-8.6329	-2.50264	0	
1.8353	-8.32677	-0.987279	0	
1.8360	-4.6736	-1.90568	0	
1.8367	-4.36747	-1.90568	0	
1.8373	-4.36747	-0.688799	0	
1.8380	-3.75521	-2.20416	0	
1.8387	-4.6736	-4.33944	0	
1.8393	-3.75521	-3.42104	0	
1.8400	-2.83682	-1.90568	0	
1.8407	-5.592	-2.20416	0	
1.8413	-5.592	-1.90568	0	
1.8420	-1.91842	-0.0688799	0	
1.8427	-1.61229	2.36488	0	
1.8433	-1.00003	4.50016	0	
1.8440	0.81635	5.12007	0	
1.8447	1.42861	3.58176	0	
1.8453	2.95927	2.9848	0	
1.8460	5.40832	2.68632	0	
1.8467	2.65314	2.68632	0	
1.8473	-1.91842	3.58176	0	
1.8480	-2.53068	4.50016	0	
1.8487	-3.14295	2.36488	0	
1.8493	-4.36747	0.2296	0	
1.8500	-4.36747	0.849519	0	
1.8507	-5.28586	1.148	0	
1.8513	-6.51039	-0.987279	0	
1.8520	-4.6736	-4.63792	0	
1.8527	-1.91842	-8.01303	0	
1.8533	-1.00003	-9.22991	0	
1.8540	1.73474	-7.69159	0	
1.8547	2.65314	-5.55631	0	
1.8553	-1.00003	-3.74248	0	
1.8560	-2.53068	-2.50264	0	
1.8567	-2.22455	-2.20416	0	
1.8573	-4.6736	-0.987279	0	
1.8580	-3.44908	2.36488	0	
1.8587	3.57153	7.25535	0	
1.8593	6.3063	9.09215	0	
1.8600	1.73474	7.25535	0	
1.8607	-1.91842	4.50016	0	
1.8613	-1.00003	4.20168	0	
1.8620	1.73474	3.9032	0	
1.8627	2.95927	0.2296	0	
1.8633	2.65314	-5.25783	0	
1.8640	1.42861	-8.31151	0	
1.8647	3.2654	-7.39311	0	
1.8653	6.00017	-2.82408	0	
1.8660	3.57153	0.849519	0	
1.8667	-3.75521	-0.36736	0	
1.8673	-6.20426	-2.82408	0	
1.8680	-0.102044	-0.987279	0	
1.8687	4.18379	1.76792	0	
1.8693	0.81635	0.849519	0	
1.8700	-0.693897	-1.90568	0	
1.8707	2.65314	-1.6072	0	
1.8713	2.34701	1.44648	0	
1.8720	0.510219	1.148	0	
1.8727	2.65314	-2.50264	0	
1.8733	3.87766	-0.987279	0	
1.8740	-0.102044	8.47223	0	
1.8747	-3.44908	16.7149	0	
1.8753	-3.75521	15.498	0	
1.8760	-1.91842	8.77071	0	
1.8767	-1.00003	4.20168	0	
1.8773	-4.06134	3.58176	0	
1.8780	-7.10224	2.36488	0	
1.8787	-3.75521	-0.987279	0	
1.8793	-0.408175	-0.987279	0	
1.8800	-0.693897	4.20168	0	
1.8807	1.73474	6.03847	0	
1.8813	6.61243	3.58176	0	
1.8820	5.71445	2.68632	0	
1.8827	4.18379	2.9848	0	
1.8833	6.3063	1.76792	0	
1.8840	6.3063	0.528079	0	
1.8847	2.95927	1.44648	0	
1.8853	2.04087	1.76792	0	
1.8860	0.510219	-0.987279	0	
1.8867	-2.53068	-3.74248	0	
1.8873	-2.53068	-2.50264	0	
1.8880	-1.91842	-0.987279	0	
1.8887	-3.44908	-3.74248	0	
1.8893	-4.6736	-5.55631	0	
1.8900	-6.81652	-4.04096	0	
1.8907	-8.32677	-5.55631	0	
1.8913	-4.6736	-7.69159	0	
1.8920	-1.61229	-6.79615	0	
1.8927	-1.91842	-6.47471	0	
1.8933	-0.693897	-6.47471	0	
1.8940	2.04087	-3.12256	0	
1.8947	0.510219	-0.688799	0	
1.8953	-3.44908	-1.28576	0	
1.8960	-4.6736	-2.20416	0	
1.8967	-3.75521	-3.74248	0	
1.8973	-3.75521	-6.79615	0	
1.8980	-5.28586	-7.69159	0	
1.8987	-5.89813	-6.17623	0	
1.8993	-2.22455	-4.95935	0	
1.9000	1.12248	-6.47471	0	
1.9007	1.42861	-7.39311	0	
1.9013	2.04087	-4.95935	0	
1.9020	3.87766	-2.82408	0	
1.9027	4.48992	-1.90568	0	
1.9033	4.79605	0.849519	0	
1.9040	6.3063	2.68632	0	
1.9047	5.40832	-2.50264	0	
1.9053	3.57153	-6.47471	0	
1.9060	5.10219	-3.74248	0	
1.9067	6.3063	-2.82408	0	
1.9073	2.65314	-6.47471	0	
1.9080	-0.693897	-5.25783	0	
1.9087	-0.102044	0.528079	0	
1.9093	0.204087	2.0664	0	
1.9100	-1.00003	-0.0688799	0	
1.9107	-1.30616	0.2296	0	
1.9113	-1.00003	4.50016	0	
1.9120	-1.00003	9.09215	0	
1.9127	-0.408175	6.33695	0	
1.9133	-1.91842	-1.6072	0	
1.9140	-2.53068	-4.63792	0	
1.9147	1.12248	-2.50264	0	
1.9153	2.34701	-1.6072	0	
1.9160	-1.00003	-2.82408	0	
1.9167	-1.30616	-4.04096	0	
1.9173	-0.102044	-4.95935	0	
1.9180	-0.408175	-3.74248	0	
1.9187	-0.102044	-3.74248	0	
1.9193	-0.102044	-8.01303	0	
1.9200	-2.53068	-11.0667	0	
1.9207	-1.61229	-8.01303	0	
1.9213	3.57153	-3.74248	0	
1.9220	5.71445	-2.20416	0	
1.9227	4.48992	-0.36736	0	
1.9233	5.40832	-0.0688799	0	
1.9240	7.53083	0.528079	0	
1.9247	7.2247	3.58176	0	
1.9253	6.91856	3.9032	0	
1.9260	6.3063	0.2296	0	
1.9267	2.95927	-0.987279	0	
1.9273	0.204087	-2.82408	0	
1.9280	1.73474	-6.17623	0	
1.9287	4.48992	-6.17623	0	
1.9293	2.65314	-4.33944	0	
1.9300	-3.44908	-4.95935	0	
1.9307	-6.20426	-3.12256	0	
1.9313	-2.83682	2.68632	0	
1.9320	-1.00003	9.09215	0	
1.9327	-3.75521	15.1765	0	
1.9333	-7.40837	16.7149	0	
1.9340	-8.32677	10.6075	0	
1.9347	-8.02064	3.9032	0	
1.9353	-6.51039	2.68632	0	
1.9360	-4.6736	3.58176	0	
1.9367	-4.97973	3.28328	0	
1.9373	-4.97973	0.849519	0	
1.9380	-3.44908	-3.42104	0	
1.9387	-3.75521	-6.79615	0	
1.9393	-5.28586	-7.69159	0	
1.9400	-4.36747	-5.55631	0	
1.9407	-4.06134	-2.82408	0	
1.9413	-6.81652	-1.28576	0	
1.9420	-5.89813	0.2296	0	
1.9427	-1.00003	5.41855	0	
1.9433	0.510219	11.8244	0	
1.9440	-3.14295	13.6612	0	
1.9447	-5.28586	10.309	0	
1.9453	-4.06134	3.28328	0	
1.9460	-2.53068	-1.28576	0	
1.9467	-2.53068	0.849519	0	
1.9473	-3.44908	3.58176	0	
1.9480	-3.14295	3.58176	0	
1.9487	-2.53068	4.50016	0	
1.9493	-3.75521	5.71703	0	
1.9500	-5.28586	2.36488	0	
1.9507	-3.75521	-1.28576	0	
1.9513	-1.91842	0.849519	0	
1.9520	-2.83682	1.148	0	
1.9527	-4.06134	-3.42104	0	
1.9533	-2.53068	-4.63792	0	
1.9540	-2.83682	-3.12256	0	
1.9547	-3.75521	-4.63792	0	
1.9553	-1.00003	-5.55631	0	
1.9560	-0.102044	-2.50264	0	
1.9567	-0.102044	-1.90568	0	
1.9573	3.87766	-5.55631	0	
1.9580	7.2247	-5.55631	0	
1.9587	4.18379	-1.90568	0	
1.9593	3.87766	-0.0688799	0	
1.9600	5.71445	1.44648	0	
1.9607	4.18379	5.41855	0	
1.9613	4.48992	5.71703	0	
1.9620	6.00017	2.0664	0	
1.9627	2.65314	2.0664	0	
1.9633	-1.00003	8.47223	0	
1.9640	-2.53068	12.1458	0	
1.9647	-7.40837	7.85231	0	
1.9653	-8.93903	4.50016	0	
1.9660	-4.06134	6.33695	0	
1.9667	-1.91842	6.03847	0	
1.9673	0.204087	2.9848	0	
1.9680	4.79605	3.58176	0	
1.9687	5.40832	5.12007	0	
1.9693	4.48992	4.82159	0	
1.9700	9.06148	4.82159	0	
1.9707	13.3269	2.68632	0	
1.9713	13.0208	-3.12256	0	
1.9720	11.8167	-5.87775	0	
1.9727	9.06148	-5.55631	0	
1.9733	4.48992	-5.55631	0	
1.9740	2.34701	-2.82408	0	
1.9747	0.510219	1.148	0	
1.9753	-2.83682	-2.20416	0	
1.9760	-6.51039	-4.95935	0	
1.9767	-7.40837	0.849519	0	
1.9773	-4.97973	2.36488	0	
1.9780	-1.00003	-7.39311	0	
1.9787	0.81635	-13.7989	0	
1.9793	2.04087	-9.52839	0	
1.9800	3.57153	-5.55631	0	
1.9807	2.95927	-7.09463	0	
1.9813	0.510219	-5.55631	0	
1.9820	0.510219	-0.987279	0	
1.9827	1.12248	1.44648	0	
1.9833	-1.30616	1.76792	0	
1.9840	-1.61229	3.58176	0	
1.9847	1.73474	6.33695	0	
1.9853	1.42861	7.25535	0	
1.9860	-1.91842	6.03847	0	
1.9867	-1.00003	2.0664	0	
1.9873	1.73474	1.44648	0	
1.9880	3.57153	2.68632	0	
1.9887	4.79605	-0.36736	0	
1.9893	2.34701	-2.82408	0	
1.9900	-1.91842	-0.688799	0	
1.9907	-1.91842	-0.987279	0	
1.9913	-1.00003	-3.42104	0	
1.9920	-3.44908	-2.20416	0	
1.9927	-7.10224	-1.90568	0	
1.9933	-7.40837	-5.25783	0	
1.9940	-7.71451	-6.47471	0	
1.9947	-8.02064	-3.74248	0	
1.9953	-4.06134	-0.36736	0	
1.9960	0.81635	1.148	0	
1.9967	0.81635	-0.36736	0	
1.9973	0.510219	-1.90568	0	
1.9980	4.48992	-1.28576	0	
1.9987	5.40832	-2.20416	0	
1.9993	-1.00003	-3.12256	0	
2.0000	-4.97973	-2.20416	0	
2.0007	-2.83682	-2.82408	0	
2.0013	-1.91842	-3.74248	0	
2.0020	-2.83682	-3.42104	0	
2.0027	-1.61229	-3.74248	0	
2.0033	0.81635	-2.20416	0	
2.0040	-0.102044	2.0664	0	
2.0047	-1.91842	0.849519	0	
2.0053	-1.91842	-2.82408	0	
2.0060	-1.00003	-0.0688799	0	
2.0067	-1.00003	2.9848	0	
2.0073	-1.00003	2.36488	0	
2.0080	0.81635	4.50016	0	
2.0087	0.510219	5.71703	0	
2.0093	-1.91842	0.849519	0	
2.0100	-2.83682	-3.42104	0	
2.0107	-2.22455	-3.12256	0	
2.0113	-3.14295	-2.82408	0	
2.0120	-3.75521	-4.63792	0	
2.0127	-3.75521	-9.22991	0	
2.0133	-4.97973	-13.202	0	
2.0140	-4.97973	-9.82687	0	
2.0147	-6.20426	-6.17623	0	
2.0153	-8.32677	-10.1483	0	
2.0160	-6.20426	-13.202	0	
2.0167	-1.61229	-5.55631	0	
2.0173	-1.00003	6.33695	0	
2.0180	-1.30616	13.6612	0	
2.0187	0.204087	12.7428	0	
2.0193	2.04087	7.25535	0	
2.0200	5.40832	5.41855	0	
2.0207	7.53083	8.77071	0	
2.0213	6.00017	10.0105	0	
2.0220	4.48992	6.33695	0	
2.0227	6.3063	3.58176	0	
2.0233	7.2247	4.20168	0	
2.0240	6.61243	0.528079	0	
2.0247	6.3063	-6.79615	0	
2.0253	8.14309	-10.7453	0	
2.0260	9.36761	-10.4468	0	
2.0267	8.14309	-8.01303	0	
2.0273	9.67374	-0.987279	0	
2.0280	13.633	6.33695	0	
2.0287	12.1228	7.25535	0	
2.0293	6.3063	7.25535	0	
2.0300	3.57153	10.0105	0	
2.0307	2.65314	11.2274	0	
2.0313	-1.91842	8.17375	0	
2.0320	-6.51039	4.20168	0	
2.0327	-8.32677	1.76792	0	
2.0333	-8.93903	-0.0688799	0	
2.0340	-10.1636	-2.82408	0	
2.0347	-10.1636	-1.28576	0	
2.0353	-9.24516	2.0664	0	
2.0360	-8.93903	1.76792	0	
2.0367	-10.1636	-0.688799	0	
2.0373	-10.1636	-0.987279	0	
2.0380	-7.40837	-0.987279	0	
2.0387	-4.97973	-2.20416	0	
2.0393	-3.75521	-1.90568	0	
2.0400	-0.408175	-1.90568	0	
2.0407	2.65314	-5.55631	0	
2.0413	0.81635	-8.31151	0	
2.0420	-0.408175	-4.95935	0	
2.0427	2.65314	-1.6072	0	
2.0433	5.40832	-2.50264	0	
2.0440	4.18379	-0.0688799	0	
2.0447	2.95927	6.63543	0	
2.0453	2.65314	7.25535	0	
2.0460	0.81635	3.58176	0	
2.0467	-0.408175	3.28328	0	
2.0473	-1.00003	1.76792	0	
2.0480	0.510219	-0.0688799	0	
2.0487	3.57153	-0.688799	0	
2.0493	4.79605	-8.60999	0	
2.0500	3.2654	-17.4725	0	
2.0507	1.73474	-13.202	0	
2.0513	-0.693897	-5.55631	0	
2.0520	-2.83682	-4.63792	0	
2.0527	-2.53068	-3.12256	0	
2.0533	-2.83682	0.849519	0	
2.0540	-3.44908	0.849519	0	
2.0547	-1.00003	0.849519	0	
2.0553	-0.408175	3.58176	0	
2.0560	-2.83682	3.28328	0	
2.0567	-1.91842	0.528079	0	
2.0573	-0.102044	-0.688799	0	
2.0580	-1.91842	-0.987279	0	
2.0587	-2.53068	-2.82408	0	
2.0593	-2.83682	-2.82408	0	
2.0600	-5.592	-0.0688799	0	
2.0607	-6.81652	2.36488	0	
2.0613	-5.592	2.9848	0	
2.0620	-4.6736	3.58176	0	
2.0627	-4.6736	5.41855	0	
2.0633	-5.592	8.17375	0	
2.0640	-4.97973	5.41855	0	
2.0647	-0.102044	-2.20416	0	
2.0653	2.65314	-4.63792	0	
2.0660	-0.102044	-1.6072	0	
2.0667	-0.102044	-1.28576	0	
2.0673	2.65314	-1.28576	0	
2.0680	2.34701	2.9848	0	
2.0687	0.81635	4.50016	0	
2.0693	-0.102044	0.849519	0	
2.0700	-1.00003	-0.0688799	0	
2.0707	1.73474	0.2296	0	
2.0713	5.71445	-1.90568	0	
2.0720	6.3063	-3.74248	0	
2.0727	5.40832	-2.82408	0	
2.0733	5.10219	-1.6072	0	
2.0740	4.79605	-1.28576	0	
2.0747	5.40832	-1.28576	0	
2.0753	4.48992	-0.987279	0	
2.0760	1.73474	-0.688799	0	
2.0767	2.04087	-0.688799	0	
2.0773	2.65314	0.2296	0	
2.0780	0.81635	1.76792	0	
2.0787	2.04087	1.44648	0	
2.0793	5.71445	-0.987279	0	
2.0800	6.91856	-3.42104	0	
2.0807	7.2247	-8.01303	0	
2.0813	6.61243	-16.2557	0	
2.0820	4.18379	-18.6894	0	
2.0827	3.57153	-12.5821	0	
2.0833	3.57153	-9.82687	0	
2.0840	2.65314	-10.4468	0	
2.0847	4.79605	-5.87775	0	
2.0853	6.3063	0.849519	0	
2.0860	2.65314	8.17375	0	
2.0867	1.42861	17.3348	0	
2.0873	3.87766	19.7685	0	
2.0880	2.65314	14.8781	0	
2.0887	0.510219	15.7965	0	
2.0893	-1.00003	17.3348	0	
2.0900	-4.06134	10.0105	0	
2.0907	-4.6736	3.28328	0	
2.0913	-3.14295	2.9848	0	
2.0920	-6.51039	0.849519	0	
2.0927	-10.1636	-2.20416	0	
2.0933	-9.55129	-0.987279	0	
2.0940	-9.24516	2.36488	0	
2.0947	-8.6329	4.20168	0	
2.0953	-6.51039	4.82159	0	
2.0960	-6.51039	4.20168	0	
2.0967	-5.28586	2.36488	0	
2.0973	-1.61229	0.849519	0	
2.0980	-3.14295	-0.36736	0	
2.0987	-5.28586	-1.6072	0	
2.0993	-0.102044	-1.6072	0	
2.1000	3.87766	-1.90568	0	
2.1007	1.73474	-3.42104	0	
2.1013	0.81635	-2.82408	0	
2.1020	2.95927	-0.987279	0	
2.1027	2.04087	-1.28576	0	
2.1033	-0.693897	-0.987279	0	
2.1040	-1.00003	-0.987279	0	
2.1047	0.81635	-3.12256	0	
2.1053	2.65314	-4.04096	0	
2.1060	1.73474	-4.63792	0	
2.1067	-1.61229	-5.87775	0	
2.1073	-2.83682	-1.90568	0	
2.1080	-4.36747	3.58176	0	
2.1087	-7.71451	3.58176	0	
2.1093	-9.55129	5.41855	0	
2.1100	-6.51039	9.39063	0	
2.1107	-2.83682	6.03847	0	
2.1113	-1.91842	0.849519	0	
2.1120	-2.53068	-0.36736	0	
2.1127	-1.91842	-2.82408	0	
2.1133	-2.53068	-5.55631	0	
2.1140	-3.44908	-4.33944	0	
2.1147	-2.83682	-4.63792	0	
2.1153	-0.408175	-5.55631	0	
2.1160	2.04087	-3.74248	0	
2.1167	2.65314	-1.90568	0	
2.1173	1.73474	-2.50264	0	
2.1180	0.81635	-2.82408	0	
2.1187	2.34701	-1.90568	0	
2.1193	3.87766	-0.987279	0	
2.1200	3.57153	-0.987279	0	
2.1207	1.12248	-1.90568	0	
2.1213	-0.102044	-0.987279	0	
2.1220	0.510219	-0.36736	0	
2.1227	-1.91842	-4.33944	0	
2.1233	-5.28586	-8.31151	0	
2.1240	-2.53068	-6.79615	0	
2.1247	0.81635	-4.63792	0	
2.1253	-0.102044	-5.55631	0	
2.1260	-0.102044	-4.63792	0	
2.1267	2.65314	-2.82408	0	
2.1273	3.2654	-1.6072	0	
2.1280	4.48992	0.849519	0	
2.1287	7.2247	4.20168	0	
2.1293	4.48992	4.50016	0	
2.1300	0.204087	0.528079	0	
2.1307	0.81635	-2.50264	0	
2.1313	0.81635	-3.74248	0	
2.1320	-4.6736	-5.87775	0	
2.1327	-8.32677	-10.1483	0	
2.1333	-7.40837	-11.9621	0	
2.1340	-5.89813	-10.1483	0	
2.1347	-3.44908	-7.69159	0	
2.1353	-1.91842	-6.47471	0	
2.1360	-3.75521	-3.42104	0	
2.1367	-4.6736	2.68632	0	
2.1373	-1.61229	3.9032	0	
2.1380	0.81635	0.528079	0	
2.1387	0.81635	-0.0688799	0	
2.1393	0.510219	3.28328	0	
2.1400	1.73474	5.41855	0	
2.1407	2.95927	5.41855	0	
2.1413	4.48992	4.82159	0	
2.1420	4.18379	6.03847	0	
2.1427	2.65314	8.17375	0	
2.1433	1.42861	8.47223	0	
2.1440	1.12248	6.33695	0	
2.1447	1.73474	4.20168	0	
2.1453	0.204087	1.148	0	
2.1460	-1.00003	0.2296	0	
2.1467	-1.30616	2.0664	0	
2.1473	-2.83682	3.28328	0	
2.1480	-4.06134	0.849519	0	
2.1487	-1.00003	-1.28576	0	
2.1493	0.81635	-1.28576	0	
2.1500	-1.91842	0.849519	0	
2.1507	-3.44908	2.0664	0	
2.1513	-1.91842	-0.688799	0	
2.1520	-2.53068	-4.33944	0	
2.1527	-4.06134	-4.33944	0	
2.1533	-2.83682	-3.74248	0	
2.1540	-0.408175	-5.55631	0	
2.1547	0.81635	-5.87775	0	
2.1553	-0.102044	-4.63792	0	
2.1560	-2.83682	-3.74248	0	
2.1567	-2.22455	-3.12256	0	
2.1573	2.95927	-3.74248	0	
2.1580	7.53083	-6.47471	0	
2.1587	7.2247	-6.79615	0	
2.1593	5.10219	-5.87775	0	
2.1600	5.40832	-8.01303	0	
2.1607	8.14309	-11.0667	0	
2.1613	5.40832	-10.1483	0	
2.1620	-1.00003	-9.82687	0	
2.1627	-1.61229	-11.9621	0	
2.1633	5.10219	-11.9621	0	
2.1640	8.75535	-6.47471	0	
2.1647	6.61243	1.44648	0	
2.1653	3.57153	9.68911	0	
2.1660	1.42861	14.5796	0	
2.1667	1.12248	12.7428	0	
2.1673	1.42861	9.09215	0	
2.1680	-1.61229	10.906	0	
2.1687	-5.89813	13.0413	0	
2.1693	-8.6329	10.0105	0	
2.1700	-8.32677	6.33695	0	
2.1707	-4.6736	5.12007	0	
2.1713	-2.53068	3.58176	0	
2.1720	-5.592	2.0664	0	
2.1727	-7.71451	1.76792	0	
2.1733	-4.97973	0.849519	0	
2.1740	-2.53068	0.2296	0	
2.1747	-1.30616	0.528079	0	
2.1753	0.510219	-0.987279	0	
2.1760	1.42861	-3.42104	0	
2.1767	0.204087	-3.42104	0	
2.1773	1.42861	-4.63792	0	
2.1780	2.04087	-8.31151	0	
2.1787	-3.44908	-7.09463	0	
2.1793	-11.6942	-3.12256	0	
2.1800	-13.531	-1.28576	0	
2.1807	-8.32677	-0.987279	0	
2.1813	-1.30616	-0.987279	0	
2.1820	6.00017	-0.987279	0	
2.1827	11.5105	1.76792	0	
2.1833	13.633	2.36488	0	
2.1840	14.5514	-6.17623	0	
2.1847	15.4698	-15.0158	0	
2.1853	13.3269	-12.8805	0	
2.1860	8.75535	-8.60999	0	
2.1867	9.06148	-8.01303	0	
2.1873	11.8167	-3.12256	0	
2.1880	8.14309	4.20168	0	
2.1887	-1.30616	7.25535	0	
2.1893	-8.32677	10.309	0	
2.1900	-10.1636	15.7965	0	
2.1907	-9.24516	15.498	0	
2.1913	-7.40837	9.09215	0	
2.1920	-7.40837	2.68632	0	
2.1927	-9.24516	-0.987279	0	
2.1933	-8.32677	-3.74248	0	
2.1940	-6.51039	-4.63792	0	
2.1947	-5.28586	-4.63792	0	
2.1953	-3.75521	-3.74248	0	
2.1960	0.81635	-0.0688799	0	
2.1967	7.2247	2.68632	0	
2.1973	10.8983	3.58176	0	
2.1980	8.14309	4.50016	0	
2.1987	5.71445	5.71703	0	
2.1993	7.2247	2.68632	0	
2.2000	8.75535	0.2296	0	
2.2007	7.83696	2.36488	0	
2.2013	7.2247	2.36488	0	
2.2020	6.00017	-0.36736	0	
2.2027	3.87766	1.76792	0	
2.2033	5.10219	6.03847	0	
2.2040	8.75535	2.9848	0	
2.2047	6.61243	-3.42104	0	
2.2053	-3.75521	-5.25783	0	
2.2060	-12.0003	-4.63792	0	
2.2067	-13.8167	-7.09463	0	
2.2073	-15.3474	-11.9621	0	
2.2080	-17.1842	-11.6637	0	
2.2087	-13.8167	-6.79615	0	
2.2093	-9.24516	-6.47471	0	
2.2100	-8.32677	-10.1483	0	
2.2107	-9.85742	-8.60999	0	
2.2113	-11.3881	0.2296	0	
2.2120	-10.7758	10.0105	0	
2.2127	-7.10224	12.1458	0	
2.2133	-5.592	6.63543	0	
2.2140	-7.71451	2.9848	0	
2.2147	-7.40837	5.41855	0	
2.2153	-4.6736	7.55383	0	
2.2160	-3.75521	6.63543	0	
2.2167	-4.06134	3.58176	0	
2.2173	-4.06134	-2.50264	0	
2.2180	-2.83682	-5.87775	0	
2.2187	-1.91842	-5.25783	0	
2.2193	-1.91842	-5.25783	0	
2.2200	-1.91842	-1.90568	0	
2.2207	-1.00003	6.63543	0	
2.2213	-0.102044	8.17375	0	
2.2220	-1.61229	0.849519	0	
2.2227	-1.00003	-0.987279	0	
2.2233	1.42861	1.76792	0	
2.2240	1.42861	2.9848	0	
2.2247	-0.102044	7.25535	0	
2.2253	2.04087	9.68911	0	
2.2260	4.48992	4.20168	0	
2.2267	4.18379	0.2296	0	
2.2273	4.48992	2.36488	0	
2.2280	6.3063	3.9032	0	
2.2287	5.40832	4.82159	0	
2.2293	3.57153	4.82159	0	
2.2300	2.65314	1.148	0	
2.2307	0.204087	-0.0688799	0	
2.2313	-1.00003	2.68632	0	
2.2320	-1.00003	2.68632	0	
2.2327	-1.91842	-0.0688799	0	
2.2333	-2.53068	-1.6072	0	
2.2340	-1.30616	-3.74248	0	
2.2347	-0.408175	-4.04096	0	
2.2353	1.73474	-2.82408	0	
2.2360	3.87766	-4.95935	0	
2.2367	3.57153	-8.93143	0	
2.2373	2.04087	-8.60999	0	
2.2380	1.73474	-6.17623	0	
2.2387	0.81635	-5.25783	0	
2.2393	0.204087	-6.17623	0	
2.2400	3.57153	-4.63792	0	
2.2407	8.14309	-0.0688799	0	
2.2413	9.06148	2.36488	0	
2.2420	6.61243	0.528079	0	
2.2427	3.57153	-0.987279	0	
2.2433	2.04087	-2.20416	0	
2.2440	2.65314	-3.12256	0	
2.2447	2.65314	-0.0688799	0	
2.2453	2.65314	0.849519	0	
2.2460	1.73474	-1.28576	0	
2.2467	0.204087	2.68632	0	
2.2473	-2.83682	6.63543	0	
2.2480	-3.75521	3.58176	0	
2.2487	-2.53068	5.41855	0	
2.2493	-0.408175	12.4443	0	
2.2500	-0.102044	11.2274	0	
2.2507	-1.30616	4.82159	0	
2.2513	-2.22455	2.9848	0	
2.2520	-1.00003	1.76792	0	
2.2527	-0.408175	-1.6072	0	
2.2533	-3.14295	-3.12256	0	
2.2540	-4.6736	-2.20416	0	
2.2547	-2.83682	-1.90568	0	
2.2553	-1.91842	-4.04096	0	
2.2560	-3.14295	-5.25783	0	
2.2567	-2.53068	-2.50264	0	
2.2573	-2.53068	-0.987279	0	
2.2580	-2.83682	-0.688799	0	
2.2587	-0.693897	1.76792	0	
2.2593	-0.102044	1.76792	0	
2.2600	-2.83682	-1.6072	0	
2.2607	-1.91842	0.528079	0	
2.2613	2.65314	2.9848	0	
2.2620	3.57153	-2.50264	0	
2.2627	3.57153	-6.47471	0	
2.2633	5.71445	-4.63792	0	
2.2640	8.14309	-4.63792	0	
2.2647	9.36761	-4.63792	0	
2.2653	8.14309	-2.50264	0	
2.2660	5.10219	-3.42104	0	
2.2667	5.71445	-6.47471	0	
2.2673	7.2247	-4.95935	0	
2.2680	4.18379	0.849519	0	
2.2687	2.65314	6.95687	0	
2.2693	3.57153	12.4443	0	
2.2700	2.34701	11.8244	0	
2.2707	-0.102044	5.12007	0	
2.2713	-0.408175	1.76792	0	
2.2720	-2.53068	1.76792	0	
2.2727	-5.592	-0.987279	0	
2.2733	-5.592	-2.82408	0	
2.2740	-2.83682	-0.987279	0	
2.2747	-0.102044	-0.987279	0	
2.2753	0.510219	-1.90568	0	
2.2760	-0.408175	-2.82408	0	
2.2767	-2.83682	-6.47471	0	
2.2773	-4.6736	-9.22991	0	
2.2780	-3.75521	-6.79615	0	
2.2787	-1.91842	-1.90568	0	
2.2793	-1.91842	3.28328	0	
2.2800	-3.44908	5.41855	0	
2.2807	-5.89813	3.28328	0	
2.2813	-6.81652	3.58176	0	
2.2820	-3.14295	10.0105	0	
2.2827	0.81635	17.3348	0	
2.2833	-0.102044	19.7685	0	
2.2840	-1.91842	14.8781	0	
2.2847	-0.693897	6.63543	0	
2.2853	0.81635	2.68632	0	
2.2860	0.81635	2.68632	0	
2.2867	2.65314	2.68632	0	
2.2873	6.00017	1.76792	0	
2.2880	8.14309	0.849519	0	
2.2887	7.2247	-2.20416	0	
2.2893	5.71445	-5.25783	0	
2.2900	5.40832	-5.25783	0	
2.2907	3.57153	-3.74248	0	
2.2913	-0.408175	-5.25783	0	
2.2920	-2.83682	-8.31151	0	
2.2927	-2.83682	-6.17623	0	
2.2933	-4.6736	-2.50264	0	
2.2940	-7.40837	-6.47471	0	
2.2947	-5.89813	-14.4189	0	
2.2953	-2.83682	-14.7173	0	
2.2960	-3.75521	-8.93143	0	
2.2967	-7.40837	-5.55631	0	
2.2973	-12.6126	-6.17623	0	
2.2980	-16.5719	-6.47471	0	
2.2987	-13.531	-5.25783	0	
2.2993	-6.51039	-1.90568	0	
2.3000	-3.75521	6.03847	0	
2.3007	-3.75521	12.7428	0	
2.3013	-3.75521	9.68911	0	
2.3020	-2.83682	5.41855	0	
2.3027	-0.693897	9.09215	0	
2.3033	2.04087	11.8244	0	
2.3040	2.65314	8.17375	0	
2.3047	4.48992	5.41855	0	
2.3053	6.61243	6.03847	0	
2.3060	3.87766	4.50016	0	
2.3067	2.04087	2.9848	0	
2.3073	2.34701	2.9848	0	
2.3080	0.81635	0.849519	0	
2.3087	0.510219	-4.04096	0	
2.3093	0.81635	-7.39311	0	
2.3100	-1.61229	-5.87775	0	
2.3107	-1.61229	-3.74248	0	
2.3113	0.81635	-4.04096	0	
2.3120	-0.102044	-5.55631	0	
2.3127	-1.00003	-7.39311	0	
2.3133	-1.61229	-8.31151	0	
2.3140	-6.81652	-7.39311	0	
2.3147	-8.02064	-6.17623	0	
2.3153	-1.91842	-6.17623	0	
2.3160	-1.00003	-5.55631	0	
2.3167	-5.592	-5.25783	0	
2.3173	-7.40837	-7.39311	0	
2.3180	-7.10224	-10.7453	0	
2.3187	-4.6736	-11.0667	0	
2.3193	-0.102044	-7.39311	0	
2.3200	2.65314	-3.42104	0	
2.3207	5.10219	-1.90568	0	
2.3213	9.97988	-0.0688799	0	
2.3220	13.3269	6.63543	0	
2.3227	11.8167	10.906	0	
2.3233	8.75535	6.95687	0	
2.3240	7.2247	2.9848	0	
2.3247	9.06148	2.9848	0	
2.3253	11.5105	1.148	0	
2.3260	9.97988	-2.50264	0	
2.3267	8.14309	-3.12256	0	
2.3273	8.14309	-1.90568	0	
2.3280	6.61243	-1.6072	0	
2.3287	3.57153	1.44648	0	
2.3293	2.04087	6.03847	0	
2.3300	1.12248	6.03847	0	
2.3307	1.73474	1.44648	0	
2.3313	4.18379	-0.36736	0	
2.3320	3.57153	0.849519	0	
2.3327	-2.22455	-0.0688799	0	
2.3333	-5.592	-3.12256	0	
2.3340	-2.22455	-3.74248	0	
2.3347	0.204087	-3.74248	0	
2.3353	-1.91842	-3.74248	0	
2.3360	-4.97973	-3.42104	0	
2.3367	-6.51039	-3.42104	0	
2.3373	-6.51039	-3.74248	0	
2.3380	-3.75521	-3.12256	0	
2.3387	-0.408175	-2.82408	0	
2.3393	0.510219	-1.28576	0	
2.3400	0.81635	1.76792	0	
2.3407	2.95927	2.68632	0	
2.3413	5.40832	2.68632	0	
2.3420	3.87766	6.63543	0	
2.3427	2.34701	8.17375	0	
2.3433	3.2654	5.71703	0	
2.3440	5.71445	7.25535	0	
2.3447	5.40832	8.77071	0	
2.3453	2.34701	4.20168	0	
2.3460	-1.91842	0.849519	0	
2.3467	-6.20426	0.849519	0	
2.3473	-9.55129	-2.50264	0	
2.3480	-7.40837	-5.55631	0	
2.3487	-0.102044	-3.74248	0	
2.3493	4.18379	-2.50264	0	
2.3500	2.34701	-1.90568	0	
2.3507	1.73474	-0.987279	0	
2.3513	4.18379	-1.90568	0	
2.3520	2.95927	-4.04096	0	
2.3527	-0.408175	-5.87775	0	
2.3533	-1.00003	-5.55631	0	
2.3540	0.81635	-0.987279	0	
2.3547	1.73474	2.36488	0	
2.3553	2.65314	-1.28576	0	
2.3560	0.81635	-2.20416	0	
2.3567	-2.53068	1.148	0	
2.3573	-2.83682	-5.25783	0	
2.3580	-0.102044	-16.8526	0	
2.3587	1.73474	-19.6078	0	
2.3593	-1.00003	-21.7431	0	
2.3600	-3.75521	-22.96	0	
2.3607	-1.61229	-10.4468	0	
2.3613	2.95927	6.63543	0	
2.3620	4.18379	15.498	0	
2.3627	2.34701	21.9038	0	
2.3633	2.04087	27.3913	0	
2.3640	4.48992	28.9296	0	
2.3647	4.79605	27.3913	0	
2.3653	3.87766	21.2839	0	
2.3660	5.40832	12.7428	0	
2.3667	5.71445	9.39063	0	
2.3673	4.48992	6.33695	0	
2.3680	2.34701	2.0664	0	
2.3687	-6.20426	4.82159	0	
2.3693	-18.4087	11.8244	0	
2.3700	-21.7557	14.5796	0	
2.3707	-15.9596	12.4443	0	
2.3713	-10.1636	6.33695	0	
2.3720	-6.51039	1.44648	0	
2.3727	-4.36747	-0.0688799	0	
2.3733	-4.6736	-4.63792	0	
2.3740	-4.06134	-10.1483	0	
2.3747	-5.28586	-8.31151	0	
2.3753	-9.24516	-7.09463	0	
2.3760	-8.32677	-13.202	0	
2.3767	-6.20426	-15.6357	0	
2.3773	-6.81652	-10.4468	0	
2.3780	-4.97973	-6.17623	0	
2.3787	-2.83682	-4.63792	0	
2.3793	-6.51039	-2.20416	0	
2.3800	-9.55129	1.44648	0	
2.3807	-7.40837	5.41855	0	
2.3813	-4.36747	9.68911	0	
2.3820	-2.83682	13.0413	0	
2.3827	-2.83682	11.8244	0	
2.3833	-2.22455	6.03847	0	
2.3840	0.204087	2.68632	0	
2.3847	0.81635	1.76792	0	
2.3853	-0.408175	-0.0688799	0	
2.3860	3.57153	-0.987279	0	
2.3867	6.61243	0.849519	0	
2.3873	3.57153	0.2296	0	
2.3880	1.42861	-1.90568	0	
2.3887	2.65314	-1.28576	0	
2.3893	2.65314	-0.36736	0	
2.3900	3.57153	-1.90568	0	
2.3907	6.00017	-3.74248	0	
2.3913	3.2654	-4.63792	0	
2.3920	-1.00003	-6.17623	0	
2.3927	-0.102044	-6.79615	0	
2.3933	1.73474	-7.09463	0	
2.3940	1.42861	-8.60999	0	
2.3947	1.73474	-10.1483	0	
2.3953	2.65314	-9.22991	0	
2.3960	1.42861	-8.31151	0	
2.3967	-1.30616	-7.69159	0	
2.3973	-3.14295	-8.31151	0	
2.3980	-1.00003	-8.60999	0	
2.3987	2.95927	-6.47471	0	
2.3993	2.34701	-0.987279	0	
2.4000	-1.00003	3.58176	0	
2.4007	-1.30616	2.36488	0	
2.4013	-1.91842	-0.0688799	0	
2.4020	-3.44908	-0.987279	0	
2.4027	-1.61229	-0.987279	0	
2.4033	-0.408175	-0.36736	0	
2.4040	-3.75521	-0.36736	0	
2.4047	-4.97973	-1.28576	0	
2.4053	-2.83682	0.849519	0	
2.4060	-1.00003	3.9032	0	
2.4067	-0.408175	3.28328	0	
2.4073	-1.00003	-0.0688799	0	
2.4080	-3.14295	-0.987279	0	
2.4087	-2.53068	-0.0688799	0	
2.4093	2.04087	0.2296	0	
2.4100	1.42861	-0.36736	0	
2.4107	-4.06134	-1.90568	0	
2.4113	-5.28586	-2.82408	0	
2.4120	-4.36747	-3.12256	0	
2.4127	-5.28586	-4.95935	0	
2.4133	-4.6736	-9.82687	0	
2.4140	-2.83682	-12.2836	0	
2.4147	-1.00003	-12.8805	0	
2.4153	2.95927	-15.3373	0	
2.4160	6.61243	-13.7989	0	
2.4167	4.18379	-5.55631	0	
2.4173	0.81635	-0.987279	0	
2.4180	1.73474	-4.04096	0	
2.4187	3.57153	-7.39311	0	
2.4193	4.18379	-2.50264	0	
2.4200	5.10219	7.55383	0	
2.4207	5.40832	15.1765	0	
2.4213	4.48992	15.1765	0	
2.4220	4.79605	7.55383	0	
2.4227	5.71445	-1.28576	0	
2.4233	3.57153	-6.17623	0	
2.4240	1.73474	-6.47471	0	
2.4247	3.57153	-3.74248	0	
2.4253	3.57153	-0.0688799	0	
2.4260	1.12248	0.528079	0	
2.4267	0.81635	-2.20416	0	
2.4273	-0.693897	-0.36736	0	
2.4280	-4.97973	9.09215	0	
2.4287	-4.36747	14.8781	0	
2.4293	1.73474	6.63543	0	
2.4300	4.79605	-5.25783	0	
2.4307	5.71445	-6.47471	0	
2.4313	6.91856	2.68632	0	
2.4320	6.3063	11.5259	0	
2.4327	6.3063	11.2274	0	
2.4333	7.2247	3.9032	0	
2.4340	5.10219	0.528079	0	
2.4347	2.65314	5.71703	0	
2.4353	1.73474	9.39063	0	
2.4360	-1.61229	6.95687	0	
2.4367	-4.6736	4.50016	0	
2.4373	-3.75521	4.50016	0	
2.4380	-3.75521	0.849519	0	
2.4387	-6.81652	-3.12256	0	
2.4393	-7.40837	-3.42104	0	
2.4400	-3.75521	-3.12256	0	
2.4407	-0.408175	-2.20416	0	
2.4413	2.65314	2.68632	0	
2.4420	5.40832	6.03847	0	
2.4427	7.2247	5.12007	0	
2.4433	7.83696	6.03847	0	
2.4440	7.2247	9.09215	0	
2.4447	6.3063	6.95687	0	
2.4453	6.91856	-0.688799	0	
2.4460	8.14309	-5.87775	0	
2.4467	6.61243	-5.55631	0	
2.4473	2.65314	-2.50264	0	
2.4480	0.510219	-1.90568	0	
2.4487	1.73474	-2.50264	0	
2.4493	4.18379	-0.0688799	0	
2.4500	3.87766	-0.36736	0	
2.4507	2.34701	-6.17623	0	
2.4513	1.42861	-8.93143	0	
2.4520	-1.00003	-6.47471	0	
2.4527	-3.75521	-5.87775	0	
2.4533	-2.83682	-8.01303	0	
2.4540	-1.00003	-8.31151	0	
2.4547	-3.44908	-9.22991	0	
2.4553	-4.6736	-11.9621	0	
2.4560	-3.75521	-15.3373	0	
2.4567	-2.83682	-15.9342	0	
2.4573	1.12248	-14.7173	0	
2.4580	4.79605	-15.9342	0	
2.4587	-0.102044	-12.8805	0	
2.4593	-5.28586	-0.987279	0	
2.4600	-1.00003	6.33695	0	
2.4607	1.73474	1.44648	0	
2.4613	-1.91842	-0.0688799	0	
2.4620	-1.00003	10.309	0	
2.4627	2.65314	20.9854	0	
2.4633	0.81635	18.5517	0	
2.4640	-2.83682	8.17375	0	
2.4647	-3.75521	1.76792	0	
2.4653	-0.408175	1.76792	0	
2.4660	2.95927	1.44648	0	
2.4667	2.95927	1.44648	0	
2.4673	1.73474	0.849519	0	
2.4680	1.12248	-0.0688799	0	
2.4687	-1.91842	3.58176	0	
2.4693	-4.97973	5.41855	0	
2.4700	-7.40837	-1.28576	0	
2.4707	-11.6942	-4.63792	0	
2.4713	-14.7351	3.58176	0	
2.4720	-13.531	8.17375	0	
2.4727	-13.8167	2.0664	0	
2.4733	-15.0412	-2.82408	0	
2.4740	-11.3881	-2.82408	0	
2.4747	-7.40837	-2.82408	0	
2.4753	-6.51039	-3.74248	0	
2.4760	-3.75521	-7.09463	0	
2.4767	1.42861	-8.31151	0	
2.4773	3.57153	-5.55631	0	
2.4780	3.87766	-3.74248	0	
2.4787	4.48992	-4.33944	0	
2.4793	4.79605	-1.28576	0	
2.4800	2.95927	3.9032	0	
2.4807	1.42861	2.68632	0	
2.4813	2.04087	0.2296	0	
2.4820	3.57153	2.9848	0	
2.4827	7.83696	6.33695	0	
2.4833	11.5105	7.85231	0	
2.4840	2.65314	9.68911	0	
2.4847	-15.0412	8.17375	0	
2.4853	-22.0619	3.58176	0	
2.4860	-18.1026	2.68632	0	
2.4867	-15.9596	3.9032	0	
2.4873	-14.429	3.58176	0	
2.4880	-8.6329	5.41855	0	
2.4887	-3.14295	5.71703	0	
2.4893	-1.00003	2.68632	0	
2.4900	-0.102044	2.36488	0	
2.4907	-1.30616	2.36488	0	
2.4913	-2.83682	-2.50264	0	
2.4920	-4.36747	-5.55631	0	
2.4927	-6.51039	-3.74248	0	
2.4933	-6.51039	-2.82408	0	
2.4940	-4.97973	-3.74248	0	
2.4947	-4.6736	-4.63792	0	
2.4953	-5.28586	-1.90568	0	
2.4960	-4.36747	4.82159	0	
2.4967	-3.75521	4.50016	0	
2.4973	-4.6736	-8.60999	0	
2.4980	-4.97973	-18.9879	0	
2.4987	-3.75521	-15.9342	0	
2.4993	-1.00003	-12.5821	0	
2.5000	-0.693897	-14.7173	0	
2.5007	-1.91842	-11.0667	0	
2.5013	-1.00003	-1.90568	0	
2.5020	2.65314	2.0664	0	
2.5027	3.57153	4.50016	0	
2.5033	4.48992	11.8244	0	
2.5040	6.61243	15.498	0	
2.5047	5.71445	11.8244	0	
2.5053	3.57153	10.0105	0	
2.5060	5.10219	10.906	0	
2.5067	7.2247	8.77071	0	
2.5073	6.3063	5.41855	0	
2.5080	5.40832	5.71703	0	
2.5087	6.00017	9.09215	0	
2.5093	6.3063	10.906	0	
2.5100	5.10219	8.77071	0	
2.5107	2.65314	6.33695	0	
2.5113	0.81635	3.58176	0	
2.5120	0.510219	-0.36736	0	
2.5127	0.81635	-0.36736	0	
2.5133	-1.30616	2.9848	0	
2.5140	-4.6736	2.0664	0	
2.5147	-4.06134	0.2296	0	
2.5153	-1.91842	2.0664	0	
2.5160	-0.408175	2.68632	0	
2.5167	2.04087	0.849519	0	
2.5173	3.57153	-0.688799	0	
2.5180	2.65314	-0.688799	0	
2.5187	2.65314	-0.0688799	0	
2.5193	6.91856	-0.0688799	0	
2.5200	10.286	-0.987279	0	
2.5207	11.8167	-0.0688799	0	
2.5213	12.7146	3.58176	0	
2.5220	11.8167	4.82159	0	
2.5227	10.286	2.68632	0	
2.5233	6.3063	2.68632	0	
2.5240	-0.102044	3.28328	0	
2.5247	-1.91842	0.528079	0	
2.5253	2.65314	-0.987279	0	
2.5260	4.79605	1.76792	0	
2.5267	3.57153	2.68632	0	
2.5273	2.04087	0.2296	0	
2.5280	-1.91842	0.2296	0	
2.5287	-4.36747	0.849519	0	
2.5293	-1.00003	-0.36736	0	
2.5300	1.73474	-1.28576	0	
2.5307	0.81635	-2.50264	0	
2.5313	0.204087	-4.63792	0	
2.5320	-0.408175	-8.01303	0	
2.5327	-1.30616	-8.93143	0	
2.5333	-1.00003	-7.39311	0	
2.5340	-2.22455	-6.47471	0	
2.5347	-4.6736	-6.47471	0	
2.5353	-3.44908	-2.82408	0	
2.5360	-1.61229	1.148	0	
2.5367	-2.83682	1.148	0	
2.5373	-2.53068	0.2296	0	
2.5380	-1.30616	1.148	0	
2.5387	-1.91842	-0.0688799	0	
2.5393	-0.102044	-3.74248	0	
2.5400	2.65314	-8.93143	0	
2.5407	0.81635	-11.6637	0	
2.5413	-1.00003	-9.52839	0	
2.5420	-1.00003	-5.55631	0	
2.5427	-0.408175	-3.74248	0	
2.5433	-0.102044	-2.20416	0	
2.5440	-2.83682	0.849519	0	
2.5447	-8.02064	3.58176	0	
2.5453	-7.10224	9.68911	0	
2.5460	-2.83682	17.3348	0	
2.5467	-3.14295	17.9317	0	
2.5473	-2.83682	8.77071	0	
2.5480	-1.00003	-0.987279	0	
2.5487	-2.22455	-4.63792	0	
2.5493	-2.83682	-7.39311	0	
2.5500	-2.83682	-10.1483	0	
2.5507	-4.97973	-9.22991	0	
2.5513	-2.83682	-5.25783	0	
2.5520	3.87766	-3.12256	0	
2.5527	2.95927	-3.12256	0	
2.5533	-1.30616	-3.42104	0	
2.5540	-1.00003	-3.42104	0	
2.5547	-1.61229	-1.90568	0	
2.5553	-5.89813	-1.28576	0	
2.5560	-5.592	-3.74248	0	
2.5567	-3.44908	-3.74248	0	
2.5573	-4.6736	-0.36736	0	
2.5580	-5.28586	1.44648	0	
2.5587	-2.83682	0.849519	0	
2.5593	-0.693897	1.44648	0	
2.5600	2.34701	1.76792	0	
2.5607	4.48992	-0.36736	0	
2.5613	3.2654	0.849519	0	
2.5620	2.65314	3.9032	0	
2.5627	3.87766	2.0664	0	
2.5633	5.40832	-0.36736	0	
2.5640	6.00017	-0.688799	0	
2.5647	6.00017	-7.69159	0	
2.5653	5.40832	-20.2048	0	
2.5660	4.48992	-23.5799	0	
2.5667	3.57153	-18.0695	0	
2.5673	3.57153	-14.4189	0	
2.5680	4.79605	-6.47471	0	
2.5687	2.95927	7.85231	0	
2.5693	1.73474	13.9597	0	
2.5700	3.87766	12.1458	0	
2.5707	4.48992	15.7965	0	
2.5713	0.510219	18.8501	0	
2.5720	-1.91842	12.7428	0	
2.5727	-1.00003	5.71703	0	
2.5733	-1.00003	0.528079	0	
2.5740	-2.22455	-1.90568	0	
2.5747	-3.44908	0.849519	0	
2.5753	-7.10224	1.148	0	
2.5760	-10.1636	-4.33944	0	
2.5767	-8.6329	-4.95935	0	
2.5773	-4.36747	-2.82408	0	
2.5780	-1.61229	-3.12256	0	
2.5787	-0.693897	2.36488	0	
2.5793	0.81635	10.0105	0	
2.5800	3.2654	6.95687	0	
2.5807	3.57153	0.849519	0	
2.5813	4.48992	2.36488	0	
2.5820	7.53083	2.68632	0	
2.5827	8.14309	0.2296	0	
2.5833	4.48992	-0.0688799	0	
2.5840	3.57153	-0.0688799	0	
2.5847	4.48992	-1.90568	0	
2.5853	2.34701	-3.12256	0	
2.5860	1.12248	-2.82408	0	
2.5867	2.65314	-1.90568	0	
2.5873	2.34701	-0.987279	0	
2.5880	0.81635	2.68632	0	
2.5887	-0.693897	3.28328	0	
2.5893	-3.44908	-0.0688799	0	
2.5900	-5.28586	-0.0688799	0	
2.5907	-4.6736	3.58176	0	
2.5913	-3.44908	3.58176	0	
2.5920	-2.22455	0.849519	0	
2.5927	-2.22455	-1.90568	0	
2.5933	-3.14295	-4.04096	0	
2.5940	-2.83682	-4.33944	0	
2.5947	-1.00003	-2.82408	0	
2.5953	0.81635	-1.90568	0	
2.5960	2.65314	-2.50264	0	
2.5967	2.95927	-3.74248	0	
2.5973	2.65314	-4.95935	0	
2.5980	2.95927	-4.33944	0	
2.5987	4.18379	-3.74248	0	
2.5993	2.04087	-4.63792	0	
2.6000	-0.408175	-4.63792	0	
2.6007	1.73474	-3.74248	0	
2.6013	3.57153	-2.82408	0	
2.6020	3.2654	-0.0688799	0	
2.6027	4.18379	2.36488	0	
2.6033	6.91856	2.0664	0	
2.6040	7.2247	2.9848	0	
2.6047	5.71445	3.28328	0	
2.6053	5.40832	0.849519	0	
2.6060	5.10219	-0.0688799	0	
2.6067	4.18379	-0.0688799	0	
2.6073	3.2654	-2.82408	0	
2.6080	0.510219	-3.74248	0	
2.6087	-2.83682	-2.50264	0	
2.6093	-4.36747	-6.47471	0	
2.6100	-6.51039	-11.6637	0	
2.6107	-9.24516	-10.4468	0	
2.6113	-8.6329	-7.09463	0	
2.6120	-6.20426	-8.31151	0	
2.6127	-5.592	-11.3652	0	
2.6133	-5.592	-9.22991	0	
2.6140	-5.592	-4.63792	0	
2.6147	-5.28586	-3.74248	0	
2.6153	-3.75521	-4.63792	0	
2.6160	-2.22455	-0.0688799	0	
2.6167	-3.14295	8.17375	0	
2.6173	-3.75521	12.7428	0	
2.6180	-1.61229	12.7428	0	
2.6187	0.81635	10.6075	0	
2.6193	1.73474	6.33695	0	
2.6200	3.2654	3.58176	0	
2.6207	4.48992	4.50016	0	
2.6213	1.73474	6.33695	0	
2.6220	-2.22455	5.71703	0	
2.6227	-2.83682	3.58176	0	
2.6233	0.510219	1.148	0	
2.6240	4.79605	0.2296	0	
2.6247	5.10219	0.528079	0	
2.6253	2.65314	-0.0688799	0	
2.6260	2.34701	-0.688799	0	
2.6267	3.57153	-0.0688799	0	
2.6273	2.65314	0.528079	0	
2.6280	1.12248	-0.987279	0	
2.6287	0.510219	0.2296	0	
2.6293	-1.61229	2.0664	0	
2.6300	-2.83682	0.849519	0	
2.6307	-2.83682	-0.36736	0	
2.6313	-4.6736	-0.688799	0	
2.6320	-6.81652	-1.90568	0	
2.6327	-6.51039	-1.90568	0	
2.6333	-5.592	0.2296	0	
2.6340	-3.14295	-0.987279	0	
2.6347	-0.102044	-4.33944	0	
2.6353	1.73474	-3.12256	0	
2.6360	2.65314	0.528079	0	
2.6367	3.57153	-0.688799	0	
2.6373	0.510219	-2.82408	0	
2.6380	-3.75521	-0.36736	0	
2.6387	-3.44908	-1.90568	0	
2.6393	-1.30616	-12.2836	0	
2.6400	-1.61229	-20.5262	0	
2.6407	-1.91842	-18.3909	0	
2.6413	-0.408175	-11.3652	0	
2.6420	0.81635	-7.09463	0	
2.6427	-0.102044	-3.74248	0	
2.6433	-0.408175	3.28328	0	
2.6440	2.65314	11.8244	0	
2.6447	5.40832	16.7149	0	
2.6453	5.10219	20.067	0	
2.6460	3.57153	20.6869	0	
2.6467	4.18379	13.3627	0	
2.6473	3.57153	-0.0688799	0	
2.6480	0.81635	-7.69159	0	
2.6487	-1.30616	-6.79615	0	
2.6493	-0.102044	-0.987279	0	
2.6500	1.73474	1.76792	0	
2.6507	0.510219	-0.987279	0	
2.6513	-0.693897	-1.90568	0	
2.6520	-0.102044	2.36488	0	
2.6527	-0.408175	4.82159	0	
2.6533	-2.83682	1.44648	0	
2.6540	-3.14295	-0.987279	0	
2.6547	-1.00003	-0.0688799	0	
2.6553	0.204087	1.44648	0	
2.6560	-0.408175	2.36488	0	
2.6567	0.204087	3.28328	0	
2.6573	1.42861	4.50016	0	
2.6580	1.12248	5.12007	0	
2.6587	0.204087	4.50016	0	
2.6593	-0.102044	2.0664	0	
2.6600	-1.91842	-0.688799	0	
2.6607	-5.592	-1.90568	0	
2.6613	-9.24516	-0.987279	0	
2.6620	-8.6329	0.849519	0	
2.6627	-4.06134	0.849519	0	
2.6633	-1.00003	0.528079	0	
2.6640	-1.00003	1.148	0	
2.6647	2.04087	1.76792	0	
2.6653	4.48992	2.68632	0	
2.6660	3.2654	2.36488	0	
2.6667	5.10219	-0.987279	0	
2.6673	8.14309	-1.6072	0	
2.6680	6.3063	2.9848	0	
2.6687	2.65314	4.50016	0	
2.6693	3.87766	2.68632	0	
2.6700	5.40832	2.36488	0	
2.6707	4.18379	0.2296	0	
2.6713	1.42861	-2.50264	0	
2.6720	-4.36747	-3.12256	0	
2.6727	-8.02064	-4.33944	0	
2.6733	-5.592	-6.17623	0	
2.6740	-1.61229	-4.63792	0	
2.6747	-1.00003	-3.74248	0	
2.6753	-1.91842	-4.33944	0	
2.6760	-3.44908	-3.74248	0	
2.6767	-4.06134	-1.90568	0	
2.6773	-1.61229	-1.90568	0	
2.6780	2.34701	-0.0688799	0	
2.6787	4.18379	2.68632	0	
2.6793	4.48992	3.58176	0	
2.6800	6.00017	3.58176	0	
2.6807	7.2247	3.58176	0	
2.6813	7.2247	0.849519	0	
2.6820	6.91856	-4.63792	0	
2.6827	8.75535	-9.82687	0	
2.6833	12.1228	-9.82687	0	
2.6840	13.0208	-8.31151	0	
2.6847	10.8983	-7.39311	0	
2.6853	9.06148	-4.63792	0	
2.6860	6.61243	-3.42104	0	
2.6867	1.73474	-4.95935	0	
2.6873	-4.6736	-3.12256	0	
2.6880	-9.24516	0.849519	0	
2.6887	-9.24516	0.2296	0	
2.6893	-6.20426	0.849519	0	
2.6900	-3.75521	6.95687	0	
2.6907	-2.83682	11.5259	0	
2.6913	-1.91842	10.0105	0	
2.6920	-3.75521	5.71703	0	
2.6927	-7.40837	1.76792	0	
2.6933	-7.71451	-0.36736	0	
2.6940	-6.20426	-1.28576	0	
2.6947	-7.10224	-3.12256	0	
2.6953	-7.40837	-4.95935	0	
2.6960	-5.592	-6.47471	0	
2.6967	-3.44908	-8.93143	0	
2.6973	-2.83682	-9.22991	0	
2.6980	-2.83682	-5.55631	0	
2.6987	-2.83682	-2.82408	0	
2.6993	-2.83682	-2.50264	0	
2.7000	-2.22455	-1.28576	0	
2.7007	-1.00003	2.0664	0	
2.7013	-0.102044	9.09215	0	
2.7020	1.73474	16.7149	0	
2.7027	2.65314	15.498	0	
2.7033	2.65314	6.63543	0	
2.7040	2.34701	2.68632	0	
2.7047	3.57153	2.36488	0	
2.7053	4.79605	0.849519	0	
2.7060	3.57153	2.0664	0	
2.7067	2.65314	4.50016	0	
2.7073	3.2654	2.68632	0	
2.7080	4.48992	-1.6072	0	
2.7087	2.65314	-2.20416	0	
2.7093	0.510219	-1.28576	0	
2.7100	0.510219	-2.82408	0	
2.7107	0.204087	-3.42104	0	
2.7113	-3.75521	-2.82408	0	
2.7120	-5.28586	-3.74248	0	
2.7127	-1.30616	-7.09463	0	
2.7133	-0.102044	-10.1483	0	
2.7140	-1.30616	-15.6357	0	
2.7147	-1.00003	-22.0416	0	
2.7153	-3.14295	-22.3401	0	
2.7160	-8.32677	-15.3373	0	
2.7167	-10.1636	-6.47471	0	
2.7173	-8.93903	-1.6072	0	
2.7180	-7.40837	1.76792	0	
2.7187	-3.75521	6.95687	0	
2.7193	-0.408175	12.1458	0	
2.7200	0.510219	13.9597	0	
2.7207	1.73474	13.0413	0	
2.7213	3.2654	10.6075	0	
2.7220	3.87766	6.63543	0	
2.7227	4.48992	3.58176	0	
2.7233	5.71445	2.36488	0	
2.7240	7.83696	2.36488	0	
2.7247	9.36761	2.0664	0	
2.7253	7.53083	0.528079	0	
2.7260	5.10219	0.2296	0	
2.7267	8.14309	2.9848	0	
2.7273	13.3269	3.58176	0	
2.7280	12.7146	0.528079	0	
2.7287	9.06148	-1.28576	0	
2.7293	8.44922	-1.28576	0	
2.7300	6.61243	-2.82408	0	
2.7307	1.73474	-5.55631	0	
2.7313	-1.30616	-8.60999	0	
2.7320	-5.592	-9.52839	0	
2.7327	-11.3881	-8.31151	0	
2.7333	-11.0819	-7.09463	0	
2.7340	-6.81652	-5.87775	0	
2.7347	-9.24516	-2.20416	0	
2.7353	-12.6126	5.41855	0	
2.7360	-11.3881	10.906	0	
2.7367	-10.1636	7.55383	0	
2.7373	-8.32677	4.20168	0	
2.7380	-6.20426	5.41855	0	
2.7387	-7.40837	2.0664	0	
2.7393	-8.93903	-5.55631	0	
2.7400	-7.40837	-4.63792	0	
2.7407	-6.20426	2.36488	0	
2.7413	-5.28586	2.68632	0	
2.7420	-2.22455	-2.50264	0	
2.7427	0.204087	-0.36736	0	
2.7433	2.04087	5.71703	0	
2.7440	3.2654	6.33695	0	
2.7447	2.34701	2.68632	0	
2.7453	-1.30616	1.76792	0	
2.7460	-2.83682	-0.0688799	0	
2.7467	-0.408175	-1.28576	0	
2.7473	2.65314	1.44648	0	
2.7480	3.2654	4.82159	0	
2.7487	2.95927	4.50016	0	
2.7493	-1.00003	2.0664	0	
2.7500	-6.51039	-0.36736	0	
2.7507	-4.06134	-1.90568	0	
2.7513	1.12248	-1.28576	0	
2.7520	-0.102044	-3.42104	0	
2.7527	-3.75521	-5.87775	0	
2.7533	-4.6736	-3.74248	0	
2.7540	-4.97973	-0.987279	0	
2.7547	-3.14295	-2.50264	0	
2.7553	-1.00003	-3.74248	0	
2.7560	-4.6736	-2.82408	0	
2.7567	-8.02064	-3.74248	0	
2.7573	-6.20426	-4.33944	0	
2.7580	-4.6736	-3.74248	0	
2.7587	-5.89813	-4.95935	0	
2.7593	-5.89813	-6.47471	0	
2.7600	-4.6736	-4.33944	0	
2.7607	-4.06134	-1.28576	0	
2.7613	-2.83682	-1.28576	0	
2.7620	-1.00003	-1.90568	0	
2.7627	-1.00003	-0.0688799	0	
2.7633	-1.91842	0.2296	0	
2.7640	-2.83682	-0.0688799	0	
2.7647	-3.75521	0.2296	0	
2.7653	-3.14295	-0.36736	0	
2.7660	0.81635	-1.90568	0	
2.7667	5.40832	-2.50264	0	
2.7673	6.3063	-5.55631	0	
2.7680	5.71445	-8.01303	0	
2.7687	6.91856	-6.47471	0	
2.7693	6.61243	-8.31151	0	
2.7700	5.40832	-12.5821	0	
2.7707	6.00017	-8.60999	0	
2.7713	8.44922	-1.90568	0	
2.7720	9.36761	-1.90568	0	
2.7727	8.44922	-2.82408	0	
2.7733	6.00017	-1.6072	0	
2.7740	2.04087	2.68632	0	
2.7747	-1.00003	12.4443	0	
2.7753	-1.00003	19.7685	0	
2.7760	0.510219	17.0133	0	
2.7767	-0.102044	11.8244	0	
2.7773	-0.102044	9.39063	0	
2.7780	1.12248	9.09215	0	
2.7787	-2.22455	9.68911	0	
2.7793	-10.1636	7.55383	0	
2.7800	-10.7758	3.58176	0	
2.7807	-4.06134	5.71703	0	
2.7813	-1.00003	8.17375	0	
2.7820	-2.83682	2.68632	0	
2.7827	-3.75521	-1.6072	0	
2.7833	-4.6736	-0.0688799	0	
2.7840	-4.97973	1.76792	0	
2.7847	-1.91842	1.76792	0	
2.7853	0.81635	1.148	0	
2.7860	-0.102044	-0.36736	0	
2.7867	-1.00003	-3.74248	0	
2.7873	1.73474	-8.01303	0	
2.7880	2.95927	-8.01303	0	
2.7887	0.81635	-3.12256	0	
2.7893	-0.693897	1.44648	0	
2.7900	-0.102044	2.0664	0	
2.7907	0.81635	1.76792	0	
2.7913	-1.30616	0.849519	0	
2.7920	-1.61229	0.849519	0	
2.7927	3.2654	1.76792	0	
2.7933	7.83696	0.2296	0	
2.7940	4.48992	-1.90568	0	
2.7947	-1.00003	-0.36736	0	
2.7953	-2.53068	2.36488	0	
2.7960	-1.30616	2.9848	0	
2.7967	-1.61229	2.36488	0	
2.7973	-1.91842	-0.688799	0	
2.7980	-0.693897	-6.79615	0	
2.7987	1.12248	-11.9621	0	
2.7993	2.65314	-10.1483	0	
2.8000	2.95927	-5.55631	0	
2.8007	1.42861	-2.82408	0	
2.8013	-0.102044	-1.6072	0	
2.8020	-0.408175	-0.987279	0	
2.8027	0.510219	1.148	0	
2.8033	2.04087	7.25535	0	
2.8040	4.18379	12.7428	0	
2.8047	5.10219	11.2274	0	
2.8053	2.65314	3.58176	0	
2.8060	-0.102044	-3.74248	0	
2.8067	-0.102044	-3.74248	0	
2.8073	1.42861	0.849519	0	
2.8080	0.204087	2.0664	0	
2.8087	-2.83682	-0.36736	0	
2.8093	-3.14295	-2.50264	0	
2.8100	-1.30616	-3.74248	0	
2.8107	-2.22455	-6.47471	0	
2.8113	-5.592	-5.87775	0	
2.8120	-6.20426	-4.04096	0	
2.8127	-6.20426	-5.87775	0	
2.8133	-6.81652	-8.93143	0	
2.8140	-5.89813	-9.82687	0	
2.8147	-6.20426	-11.0667	0	
2.8153	-8.32677	-9.22991	0	
2.8160	-5.89813	-4.63792	0	
2.8167	-2.22455	-2.82408	0	
2.8173	-4.06134	-3.42104	0	
2.8180	-6.51039	-2.50264	0	
2.8187	-5.592	-1.28576	0	
2.8193	-3.44908	-1.6072	0	
2.8200	-0.102044	-1.28576	0	
2.8207	2.65314	-2.82408	0	
2.8213	2.65314	-6.79615	0	
2.8220	2.65314	-8.31151	0	
2.8227	1.73474	-6.47471	0	
2.8233	0.81635	-4.33944	0	
2.8240	2.65314	-0.0688799	0	
2.8247	4.18379	3.58176	0	
2.8253	1.73474	1.76792	0	
2.8260	0.81635	1.76792	0	
2.8267	2.34701	9.68911	0	
2.8273	2.95927	13.6612	0	
2.8280	1.73474	8.47223	0	
2.8287	-1.91842	3.58176	0	
2.8293	-3.44908	3.58176	0	
2.8300	1.12248	2.0664	0	
2.8307	3.57153	0.849519	0	
2.8313	0.81635	1.76792	0	
2.8320	-2.83682	-1.28576	0	
2.8327	-5.28586	-4.33944	0	
2.8333	-8.32677	-3.74248	0	
2.8340	-7.10224	-2.82408	0	
2.8347	-3.75521	-3.12256	0	
2.8353	-2.83682	-0.987279	0	
2.8360	-1.91842	-1.28576	0	
2.8367	0.204087	-4.33944	0	
2.8373	0.204087	-4.33944	0	
2.8380	-1.00003	-2.82408	0	
2.8387	-0.102044	-2.50264	0	
2.8393	0.510219	-0.987279	0	
2.8400	-0.102044	-0.688799	0	
2.8407	0.81635	-2.82408	0	
2.8413	2.65314	-2.20416	0	
2.8420	1.73474	2.36488	0	
2.8427	-1.00003	3.58176	0	
2.8433	-0.408175	0.849519	0	
2.8440	1.73474	0.2296	0	
2.8447	2.65314	1.148	0	
2.8453	4.48992	-0.36736	0	
2.8460	7.2247	-3.74248	0	
2.8467	8.14309	-3.74248	0	
2.8473	8.14309	-0.987279	0	
2.8480	8.14309	1.148	0	
2.8487	8.14309	1.148	0	
2.8493	6.91856	-2.20416	0	
2.8500	6.3063	-5.87775	0	
2.8507	7.53083	-9.52839	0	
2.8513	6.91856	-12.8805	0	
2.8520	2.65314	-12.2836	0	
2.8527	-1.00003	-8.31151	0	
2.8533	-1.91842	-7.09463	0	
2.8540	-1.30616	-7.09463	0	
2.8547	0.510219	-4.95935	0	
2.8553	2.65314	-0.0688799	0	
2.8560	2.65314	7.85231	0	
2.8567	2.65314	15.7965	0	
2.8573	1.73474	16.4164	0	
2.8580	-1.30616	10.906	0	
2.8587	-1.91842	6.33695	0	
2.8593	0.81635	3.58176	0	
2.8600	2.65314	1.148	0	
2.8607	2.95927	-0.36736	0	
2.8613	2.65314	0.528079	0	
2.8620	-1.00003	4.20168	0	
2.8627	-2.22455	6.33695	0	
2.8633	1.12248	5.12007	0	
2.8640	1.73474	2.68632	0	
2.8647	-0.693897	0.849519	0	
2.8653	0.204087	-0.0688799	0	
2.8660	0.510219	3.58176	0	
2.8667	-2.53068	7.55383	0	
2.8673	-4.6736	7.25535	0	
2.8680	-5.89813	5.12007	0	
2.8687	-7.10224	3.9032	0	
2.8693	-4.6736	2.9848	0	
2.8700	-1.61229	2.68632	0	
2.8707	-2.83682	0.849519	0	
2.8713	-4.6736	-2.82408	0	
2.8720	-4.36747	-2.82408	0	
2.8727	-2.83682	-1.90568	0	
2.8733	-0.693897	-4.33944	0	
2.8740	-1.00003	-5.87775	0	
2.8747	-1.00003	-2.20416	0	
2.8753	2.65314	0.2296	0	
2.8760	3.2654	-2.82408	0	
2.8767	-3.75521	-8.31151	0	
2.8773	-7.10224	-10.1483	0	
2.8780	0.81635	-4.63792	0	
2.8787	5.40832	1.76792	0	
2.8793	0.204087	4.20168	0	
2.8800	-2.83682	4.82159	0	
2.8807	-1.30616	8.17375	0	
2.8813	-1.91842	12.4443	0	
2.8820	1.12248	12.7428	0	
2.8827	7.2247	7.25535	0	
2.8833	5.40832	3.28328	0	
2.8840	-1.61229	3.9032	0	
2.8847	-1.30616	1.76792	0	
2.8853	0.204087	-1.90568	0	
2.8860	-1.00003	1.148	0	
2.8867	1.73474	6.63543	0	
2.8873	2.65314	7.25535	0	
2.8880	-2.22455	6.33695	0	
2.8887	-3.75521	5.12007	0	
2.8893	-1.30616	2.0664	0	
2.8900	-3.75521	1.148	0	
2.8907	-7.40837	2.0664	0	
2.8913	-8.6329	2.36488	0	
2.8920	-10.4697	1.148	0	
2.8927	-8.6329	-1.28576	0	
2.8933	-5.28586	-2.82408	0	
2.8940	-7.71451	-2.50264	0	
2.8947	-10.1636	-3.74248	0	
2.8953	-7.10224	-5.25783	0	
2.8960	-7.40837	-2.82408	0	
2.8967	-10.1636	-2.20416	0	
2.8973	-6.51039	-3.74248	0	
2.8980	-1.91842	-1.90568	0	
2.8987	-2.83682	0.849519	0	
2.8993	-3.75521	-0.36736	0	
2.9000	0.81635	-0.0688799	0	
2.9007	5.40832	1.44648	0	
2.9013	8.75535	-0.0688799	0	
2.9020	11.8167	1.76792	0	
2.9027	14.5514	5.41855	0	
2.9033	14.5514	3.28328	0	
2.9040	11.2044	-0.36736	0	
2.9047	9.36761	0.2296	0	
2.9053	10.8983	-0.987279	0	
2.9060	10.8983	-3.74248	0	
2.9067	9.06148	-3.42104	0	
2.9073	9.06148	-2.82408	0	
2.9080	6.3063	-3.74248	0	
2.9087	-0.102044	-2.82408	0	
2.9093	-2.83682	-1.90568	0	
2.9100	-1.00003	-0.0688799	0	
2.9107	-1.91842	6.95687	0	
2.9113	-5.592	9.68911	0	
2.9120	-6.20426	1.76792	0	
2.9127	-5.28586	-4.04096	0	
2.9133	-5.592	-1.90568	0	
2.9140	-4.6736	-0.987279	0	
2.9147	-1.30616	-3.74248	0	
2.9153	1.12248	-4.33944	0	
2.9160	0.204087	-2.50264	0	
2.9167	1.42861	-3.42104	0	
2.9173	6.3063	-7.09463	0	
2.9180	7.83696	-7.39311	0	
2.9187	5.10219	-3.74248	0	
2.9193	5.10219	-2.20416	0	
2.9200	4.18379	-2.82408	0	
2.9207	0.510219	-2.82408	0	
2.9213	2.65314	-2.50264	0	
2.9220	6.91856	-3.12256	0	
2.9227	1.73474	-3.74248	0	
2.9233	-5.592	-2.82408	0	
2.9240	-2.83682	-0.987279	0	
2.9247	2.65314	-1.28576	0	
2.9253	0.81635	-2.82408	0	
2.9260	-1.00003	-2.50264	0	
2.9267	-1.00003	-3.12256	0	
2.9273	-3.75521	-5.55631	0	
2.9280	-4.06134	-4.63792	0	
2.9287	-0.693897	-2.82408	0	
2.9293	-0.408175	-6.47471	0	
2.9300	-3.44908	-10.1483	0	
2.9307	-4.6736	-8.31151	0	
2.9313	-4.6736	-8.93143	0	
2.9320	-4.6736	-14.4189	0	
2.9327	-5.28586	-17.1511	0	
2.9333	-5.89813	-18.6894	0	
2.9340	-4.97973	-20.8247	0	
2.9347	-4.06134	-19.2864	0	
2.9353	-4.6736	-14.1204	0	
2.9360	-1.61229	-5.25783	0	
2.9367	4.48992	10.6075	0	
2.9373	5.40832	20.067	0	
2.9380	4.18379	15.1765	0	
2.9387	6.3063	12.4443	0	
2.9393	6.00017	17.0133	0	
2.9400	2.65314	15.498	0	
2.9407	2.95927	8.47223	0	
2.9413	4.48992	6.33695	0	
2.9420	4.48992	6.33695	0	
2.9427	4.48992	5.71703	0	
2.9433	2.65314	3.58176	0	
2.9440	-1.00003	2.68632	0	
2.9447	-1.00003	7.85231	0	
2.9453	1.12248	11.8244	0	
2.9460	-0.102044	2.9848	0	
2.9467	-2.83682	-9.22991	0	
2.9473	-2.22455	-14.7173	0	
2.9480	-1.30616	-14.7173	0	
2.9487	-1.91842	-12.8805	0	
2.9493	-0.408175	-9.22991	0	
2.9500	1.73474	-6.47471	0	
2.9507	0.81635	-1.90568	0	
2.9513	-2.53068	7.25535	0	
2.9520	-2.22455	14.5796	0	
