0.0007	2.49546	0.426462	0	
0.0013	5.5613	5.91929	0	
0.0020	6.15546	6.22634	0	
0.0027	2.49546	3.47993	0	
0.0033	-3.89767	3.47993	0	
0.0040	-5.44247	3.78698	0	
0.0047	-2.37663	6.84045	0	
0.0053	-2.99455	10.8151	0	
0.0060	-3.89767	9.58686	0	
0.0067	-2.06766	4.40109	0	
0.0073	-2.99455	2.26878	0	
0.0080	-3.61247	2.57583	0	
0.0087	-0.855585	3.17288	0	
0.0093	0.974417	3.17288	0	
0.0100	0.974417	2.57583	0	
0.0107	1.28338	2.57583	0	
0.0113	1.59234	1.96172	0	
0.0120	4.32546	0.733514	0	
0.0127	7.98546	0.733514	0	
0.0133	7.98546	2.26878	0	
0.0140	7.39131	3.17288	0	
0.0147	8.29442	2.57583	0	
0.0153	7.08235	2.26878	0	
0.0160	3.42234	2.86582	0	
0.0167	0.665455	1.65467	0	
0.0173	-0.237663	-3.83816	0	
0.0180	-1.78247	-4.75931	0	
0.0187	-5.44247	0.733514	0	
0.0193	-5.44247	3.47993	0	
0.0200	-1.47351	0.733514	0	
0.0207	-1.47351	-1.09174	0	
0.0213	-4.51559	-3.83816	0	
0.0220	-4.82455	-6.58457	0	
0.0227	-4.82455	-3.5311	0	
0.0233	-5.72767	-1.09174	0	
0.0240	-5.13351	-2.62701	0	
0.0247	-4.51559	-2.917	0	
0.0253	-5.44247	-3.83816	0	
0.0260	-7.27248	-5.66341	0	
0.0267	-8.48455	-3.22405	0	
0.0273	-7.58144	-2.31995	0	
0.0280	-3.61247	-4.75931	0	
0.0287	-2.06766	-4.75931	0	
0.0293	-2.37663	-3.83816	0	
0.0300	0.356494	-5.97047	0	
0.0307	3.42234	-6.58457	0	
0.0313	2.49546	-7.19868	0	
0.0320	2.49546	-7.50573	0	
0.0327	7.39131	-4.45226	0	
0.0333	11.3603	-2.917	0	
0.0340	10.4334	-4.45226	0	
0.0347	8.91235	-2.917	0	
0.0353	7.70027	1.96172	0	
0.0360	4.63442	4.70814	0	
0.0367	1.28338	4.09403	0	
0.0373	-1.16455	0.426462	0	
0.0380	-0.237663	-0.477637	0	
0.0387	1.9013	3.47993	0	
0.0393	1.59234	4.40109	0	
0.0400	0.0712988	2.86582	0	
0.0407	-2.37663	3.47993	0	
0.0413	-8.17559	-0.170585	0	
0.0420	-11.8356	-6.89162	0	
0.0427	-10.6235	-7.50573	0	
0.0433	-9.41144	-9.02393	0	
0.0440	-6.34559	-19.4125	0	
0.0447	0.0712988	-24.9054	0	
0.0453	2.1865	-19.4125	0	
0.0460	0.665455	-15.4379	0	
0.0467	0.356494	-13.6127	0	
0.0473	0.665455	-9.94509	0	
0.0480	2.1865	-3.22405	0	
0.0487	4.32546	8.66571	0	
0.0493	4.32546	21.1866	0	
0.0500	4.32546	24.2401	0	
0.0507	5.8465	18.1332	0	
0.0513	4.94338	10.8151	0	
0.0520	2.49546	6.22634	0	
0.0527	0.974417	7.45455	0	
0.0533	1.59234	11.7192	0	
0.0540	3.11338	11.4121	0	
0.0547	3.42234	8.35865	0	
0.0553	2.49546	7.76161	0	
0.0560	3.7313	6.22634	0	
0.0567	4.32546	1.65467	0	
0.0573	0.356494	-0.477637	0	
0.0580	-2.68559	0.733514	0	
0.0587	-2.06766	0.426462	0	
0.0593	-3.89767	-3.5311	0	
0.0600	-7.58144	-6.58457	0	
0.0607	-9.69663	-8.40983	0	
0.0613	-9.41144	-8.71688	0	
0.0620	-7.86663	-8.11983	0	
0.0627	-8.17559	-5.66341	0	
0.0633	-11.5266	0.119409	0	
0.0640	-14.9014	4.40109	0	
0.0647	-15.8046	2.57583	0	
0.0653	-17.0404	0.426462	0	
0.0660	-18.8704	3.78698	0	
0.0667	-17.0404	3.47993	0	
0.0673	-13.0714	-0.170585	0	
0.0680	-12.7625	0.119409	0	
0.0687	-13.0714	-0.78469	0	
0.0693	-7.86663	-5.37342	0	
0.0700	-2.37663	-5.66341	0	
0.0707	0.665455	-5.06637	0	
0.0713	4.32546	-7.50573	0	
0.0720	6.77338	-7.50573	0	
0.0727	4.32546	-8.40983	0	
0.0733	4.32546	-8.40983	0	
0.0740	9.81546	-0.78469	0	
0.0747	11.9544	6.22634	0	
0.0753	11.3603	3.78698	0	
0.0760	12.2634	3.17288	0	
0.0767	13.4755	5.01519	0	
0.0773	13.4755	0.733514	0	
0.0780	11.6455	-1.39879	0	
0.0787	9.81546	2.57583	0	
0.0793	8.91235	1.65467	0	
0.0800	7.39131	-2.0129	0	
0.0807	5.8465	0.426462	0	
0.0813	6.15546	4.09403	0	
0.0820	4.63442	2.26878	0	
0.0827	-0.237663	-0.170585	0	
0.0833	-1.16455	1.04057	0	
0.0840	-0.237663	1.65467	0	
0.0847	-2.68559	-0.477637	0	
0.0853	-4.20663	-2.917	0	
0.0860	-3.89767	-3.22405	0	
0.0867	-4.20663	-3.83816	0	
0.0873	-3.89767	-3.83816	0	
0.0880	-1.78247	-2.0129	0	
0.0887	-0.546624	-2.62701	0	
0.0893	0.665455	-6.27752	0	
0.0900	2.1865	-5.97047	0	
0.0907	2.49546	-1.70585	0	
0.0913	4.32546	-0.78469	0	
0.0920	7.08235	1.34762	0	
0.0927	4.63442	9.27981	0	
0.0933	0.974417	12.0262	0	
0.0940	4.32546	6.5334	0	
0.0947	10.4334	5.32224	0	
0.0953	8.60339	8.35865	0	
0.0960	4.32546	8.06866	0	
0.0967	3.42234	5.32224	0	
0.0973	0.356494	3.78698	0	
0.0980	-4.51559	1.04057	0	
0.0987	-4.82455	-1.39879	0	
0.0993	-2.37663	-2.0129	0	
0.1000	0.0712988	-2.0129	0	
0.1007	1.59234	-0.78469	0	
0.1013	-0.237663	1.65467	0	
0.1020	-2.99455	1.34762	0	
0.1027	-2.06766	-2.31995	0	
0.1033	-1.47351	-3.83816	0	
0.1040	-4.82455	-3.5311	0	
0.1047	-7.58144	-2.62701	0	
0.1053	-7.58144	-3.5311	0	
0.1060	-7.27248	-4.75931	0	
0.1067	-6.34559	-4.75931	0	
0.1073	-5.72767	-2.62701	0	
0.1080	-6.03663	-2.0129	0	
0.1087	-6.96351	-3.5311	0	
0.1093	-7.27248	-2.62701	0	
0.1100	-6.03663	-0.170585	0	
0.1107	-5.13351	-1.09174	0	
0.1113	-5.13351	-3.5311	0	
0.1120	-3.89767	-2.917	0	
0.1127	-2.37663	-1.09174	0	
0.1133	-3.30351	-1.09174	0	
0.1140	-4.51559	-0.477637	0	
0.1147	-2.06766	0.733514	0	
0.1153	1.59234	-0.170585	0	
0.1160	2.49546	-2.917	0	
0.1167	1.59234	-7.50573	0	
0.1173	0.356494	-13.9027	0	
0.1180	-2.68559	-15.745	0	
0.1187	-5.72767	-8.11983	0	
0.1193	-6.03663	-1.39879	0	
0.1200	-3.89767	-1.09174	0	
0.1207	-0.237663	0.426462	0	
0.1213	1.59234	7.1475	0	
0.1220	-1.47351	19.0543	0	
0.1227	-3.89767	28.1977	0	
0.1233	-1.78247	22.7048	0	
0.1240	-1.78247	8.06866	0	
0.1247	-3.89767	-0.170585	0	
0.1253	-2.06766	-2.0129	0	
0.1260	-0.237663	-3.22405	0	
0.1267	-1.16455	-2.62701	0	
0.1273	1.28338	-1.09174	0	
0.1280	3.7313	-2.917	0	
0.1287	3.11338	-3.83816	0	
0.1293	2.80442	-4.45226	0	
0.1300	2.80442	-5.06637	0	
0.1307	2.49546	-1.39879	0	
0.1313	4.63442	4.09403	0	
0.1320	4.63442	5.61224	0	
0.1327	1.28338	4.09403	0	
0.1333	2.49546	1.34762	0	
0.1340	4.63442	0.426462	0	
0.1347	3.11338	3.78698	0	
0.1353	4.0165	6.84045	0	
0.1360	7.08235	3.17288	0	
0.1367	4.63442	-0.477637	0	
0.1373	-0.237663	1.04057	0	
0.1380	-2.68559	1.04057	0	
0.1387	-2.99455	-3.5311	0	
0.1393	0.356494	-5.66341	0	
0.1400	4.63442	-4.45226	0	
0.1407	4.32546	-1.09174	0	
0.1413	1.59234	6.22634	0	
0.1420	2.49546	10.201	0	
0.1427	4.94338	6.22634	0	
0.1433	3.42234	2.57583	0	
0.1440	0.356494	2.86582	0	
0.1447	-0.855585	2.57583	0	
0.1453	-1.16455	1.34762	0	
0.1460	-1.16455	0.733514	0	
0.1467	-0.237663	-0.170585	0	
0.1473	-2.06766	-0.170585	0	
0.1480	-6.96351	0.733514	0	
0.1487	-8.48455	-0.170585	0	
0.1493	-5.72767	-1.70585	0	
0.1500	-2.99455	-3.83816	0	
0.1507	-1.78247	-5.66341	0	
0.1513	-0.237663	-6.58457	0	
0.1520	1.59234	-8.40983	0	
0.1527	1.9013	-8.40983	0	
0.1533	0.665455	-3.83816	0	
0.1540	2.49546	-0.78469	0	
0.1547	8.60339	-2.0129	0	
0.1553	11.3603	-2.62701	0	
0.1560	9.22131	0.426462	0	
0.1567	10.1244	7.1475	0	
0.1573	11.6455	12.9474	0	
0.1580	9.22131	12.6403	0	
0.1587	7.98546	10.8151	0	
0.1593	5.5613	8.66571	0	
0.1600	-2.99455	0.426462	0	
0.1607	-9.41144	-3.83816	0	
0.1613	-6.65455	2.26878	0	
0.1620	-2.37663	5.01519	0	
0.1627	-1.16455	0.426462	0	
0.1633	-1.78247	-2.917	0	
0.1640	-2.99455	-3.83816	0	
0.1647	-2.68559	-3.83816	0	
0.1653	-2.37663	-2.31995	0	
0.1660	-3.30351	-5.66341	0	
0.1667	-2.37663	-13.9027	0	
0.1673	-0.237663	-17.2632	0	
0.1680	-1.16455	-12.9986	0	
0.1687	-2.37663	-8.71688	0	
0.1693	0.974417	-12.0774	0	
0.1700	1.59234	-16.6661	0	
0.1707	-2.06766	-12.6915	0	
0.1713	-2.06766	-3.22405	0	
0.1720	1.28338	0.119409	0	
0.1727	1.28338	-2.917	0	
0.1733	-0.237663	-7.19868	0	
0.1740	1.28338	-10.2521	0	
0.1747	2.49546	-6.58457	0	
0.1753	0.974417	-0.170585	0	
0.1760	-2.68559	2.57583	0	
0.1767	-3.89767	3.47993	0	
0.1773	-1.47351	10.8151	0	
0.1780	0.974417	23.626	0	
0.1787	2.1865	31.5582	0	
0.1793	3.42234	27.8906	0	
0.1800	4.63442	18.1332	0	
0.1807	4.32546	11.1051	0	
0.1813	3.42234	7.45455	0	
0.1820	4.32546	6.84045	0	
0.1827	5.25234	8.97276	0	
0.1833	3.42234	8.06866	0	
0.1840	-2.37663	2.86582	0	
0.1847	-4.82455	-0.78469	0	
0.1853	-2.99455	-1.09174	0	
0.1860	-6.96351	-0.78469	0	
0.1867	-13.9746	-2.0129	0	
0.1873	-12.7625	-2.62701	0	
0.1880	-7.58144	-2.0129	0	
0.1887	-3.89767	-1.39879	0	
0.1893	0.974417	-2.0129	0	
0.1900	2.49546	-2.62701	0	
0.1907	1.59234	-0.477637	0	
0.1913	2.49546	1.34762	0	
0.1920	2.49546	1.34762	0	
0.1927	1.28338	0.119409	0	
0.1933	4.0165	0.119409	0	
0.1940	5.25234	1.65467	0	
0.1947	1.28338	2.57583	0	
0.1953	0.0712988	1.65467	0	
0.1960	3.42234	-0.170585	0	
0.1967	2.80442	-1.39879	0	
0.1973	-1.78247	-1.09174	0	
0.1980	-3.89767	-0.78469	0	
0.1987	-2.06766	-2.0129	0	
0.1993	-2.99455	-3.22405	0	
0.2000	-5.44247	-2.0129	0	
0.2007	-3.89767	-0.78469	0	
0.2013	-2.06766	-1.09174	0	
0.2020	-3.30351	-2.31995	0	
0.2027	-2.37663	-3.83816	0	
0.2033	0.0712988	-5.66341	0	
0.2040	0.0712988	-5.97047	0	
0.2047	-1.16455	-5.06637	0	
0.2053	-1.78247	-3.83816	0	
0.2060	-0.546624	-5.66341	0	
0.2067	2.49546	-8.40983	0	
0.2073	2.49546	-5.06637	0	
0.2080	-1.16455	-2.0129	0	
0.2087	-2.99455	-4.75931	0	
0.2093	-1.16455	-5.97047	0	
0.2100	-2.37663	-3.22405	0	
0.2107	-6.34559	-1.09174	0	
0.2113	-7.58144	-1.70585	0	
0.2120	-5.13351	-2.31995	0	
0.2127	-4.20663	-2.0129	0	
0.2133	-5.72767	-0.170585	0	
0.2140	-2.68559	-0.170585	0	
0.2147	2.80442	-0.170585	0	
0.2153	2.80442	1.65467	0	
0.2160	1.59234	1.04057	0	
0.2167	3.42234	-2.0129	0	
0.2173	2.49546	-1.09174	0	
0.2180	1.28338	1.65467	0	
0.2187	3.11338	0.426462	0	
0.2193	4.32546	-2.917	0	
0.2200	2.1865	-3.22405	0	
0.2207	1.59234	-2.0129	0	
0.2213	1.59234	-2.62701	0	
0.2220	-1.78247	-3.83816	0	
0.2227	-3.89767	-4.14521	0	
0.2233	-2.68559	-3.83816	0	
0.2240	-1.16455	-3.5311	0	
0.2247	-1.78247	-2.0129	0	
0.2253	-2.06766	-0.170585	0	
0.2260	-2.06766	-1.39879	0	
0.2267	-1.16455	-3.22405	0	
0.2273	-1.47351	-2.62701	0	
0.2280	-2.99455	-1.09174	0	
0.2287	-1.78247	-0.170585	0	
0.2293	2.49546	-0.170585	0	
0.2300	2.49546	-1.39879	0	
0.2307	-0.237663	-2.0129	0	
0.2313	1.59234	-2.62701	0	
0.2320	4.63442	-2.917	0	
0.2327	6.77338	-0.170585	0	
0.2333	11.0513	1.65467	0	
0.2340	12.8813	0.733514	0	
0.2347	8.91235	1.96172	0	
0.2353	5.8465	0.426462	0	
0.2360	5.8465	-4.45226	0	
0.2367	4.32546	-4.14521	0	
0.2373	3.42234	-4.75931	0	
0.2380	4.94338	-11.7703	0	
0.2387	3.42234	-12.0774	0	
0.2393	1.28338	-6.27752	0	
0.2400	0.974417	-8.40983	0	
0.2407	0.974417	-11.7703	0	
0.2413	0.356494	-7.50573	0	
0.2420	0.665455	-2.917	0	
0.2427	0.356494	3.78698	0	
0.2433	-0.546624	12.6403	0	
0.2440	-0.237663	11.7192	0	
0.2447	0.665455	3.47993	0	
0.2453	-1.47351	-0.170585	0	
0.2460	-4.20663	0.733514	0	
0.2467	-2.06766	1.65467	0	
0.2473	-0.237663	1.65467	0	
0.2480	-3.30351	-2.31995	0	
0.2487	-3.61247	-7.50573	0	
0.2493	-1.16455	-6.58457	0	
0.2500	-2.06766	-2.62701	0	
0.2507	-2.37663	-2.31995	0	
0.2513	-0.237663	-1.70585	0	
0.2520	-0.546624	5.01519	0	
0.2527	-2.06766	10.201	0	
0.2533	0.665455	10.201	0	
0.2540	2.49546	9.89392	0	
0.2547	-0.855585	8.06866	0	
0.2553	-3.89767	0.733514	0	
0.2560	-2.06766	-5.97047	0	
0.2567	0.665455	-4.75931	0	
0.2573	0.974417	-2.0129	0	
0.2580	0.665455	-2.917	0	
0.2587	0.665455	-2.0129	0	
0.2593	0.974417	2.57583	0	
0.2600	2.80442	2.86582	0	
0.2607	6.15546	0.733514	0	
0.2613	5.25234	3.17288	0	
0.2620	2.49546	5.61224	0	
0.2627	3.11338	5.32224	0	
0.2633	3.42234	6.22634	0	
0.2640	1.28338	4.40109	0	
0.2647	-0.855585	-0.170585	0	
0.2653	-3.89767	-0.477637	0	
0.2660	-8.48455	1.04057	0	
0.2667	-10.3146	-2.62701	0	
0.2673	-8.79352	-4.75931	0	
0.2680	-6.96351	-3.5311	0	
0.2687	-6.65455	-2.917	0	
0.2693	-8.17559	-1.09174	0	
0.2700	-7.86663	2.86582	0	
0.2707	-4.51559	3.17288	0	
0.2713	-3.61247	-0.477637	0	
0.2720	-4.82455	-2.62701	0	
0.2727	-4.82455	-2.917	0	
0.2733	-3.61247	-3.5311	0	
0.2740	-0.546624	-3.83816	0	
0.2747	2.80442	-3.83816	0	
0.2753	1.59234	-5.06637	0	
0.2760	-1.16455	-6.89162	0	
0.2767	0.0712988	-8.40983	0	
0.2773	0.665455	-2.62701	0	
0.2780	0.0712988	8.06866	0	
0.2787	1.59234	10.508	0	
0.2793	1.59234	4.40109	0	
0.2800	0.356494	1.34762	0	
0.2807	1.28338	0.119409	0	
0.2813	2.1865	0.733514	0	
0.2820	-0.237663	3.47993	0	
0.2827	-4.20663	2.57583	0	
0.2833	-6.65455	-1.09174	0	
0.2840	-5.72767	1.65467	0	
0.2847	-6.34559	4.40109	0	
0.2853	-8.79352	0.733514	0	
0.2860	-6.03663	-1.39879	0	
0.2867	-2.06766	1.04057	0	
0.2873	-4.82455	2.57583	0	
0.2880	-8.48455	1.65467	0	
0.2887	-5.44247	-0.170585	0	
0.2893	-2.68559	-2.0129	0	
0.2900	-3.89767	-1.09174	0	
0.2907	-3.30351	1.34762	0	
0.2913	-0.237663	1.65467	0	
0.2920	1.9013	1.34762	0	
0.2927	3.42234	1.65467	0	
0.2933	3.11338	2.26878	0	
0.2940	2.1865	3.78698	0	
0.2947	3.11338	5.32224	0	
0.2953	5.25234	3.47993	0	
0.2960	4.63442	1.65467	0	
0.2967	3.42234	2.57583	0	
0.2973	4.0165	2.57583	0	
0.2980	4.63442	-0.170585	0	
0.2987	2.49546	-1.09174	0	
0.2993	0.0712988	0.733514	0	
0.3000	0.0712988	0.426462	0	
0.3007	0.356494	-1.09174	0	
0.3013	-1.16455	-2.0129	0	
0.3020	-1.16455	-3.83816	0	
0.3027	0.0712988	-3.22405	0	
0.3033	-0.237663	1.34762	0	
0.3040	-0.237663	1.34762	0	
0.3047	-1.47351	-3.83816	0	
0.3053	-5.72767	-8.11983	0	
0.3060	-7.27248	-10.8662	0	
0.3067	-3.89767	-11.1562	0	
0.3073	-2.68559	-8.71688	0	
0.3080	-5.44247	-7.19868	0	
0.3087	-6.34559	-6.27752	0	
0.3093	-5.72767	-3.83816	0	
0.3100	-5.13351	-1.39879	0	
0.3107	-2.99455	2.57583	0	
0.3113	-2.99455	11.1051	0	
0.3120	-4.20663	16.9049	0	
0.3127	-3.89767	13.5615	0	
0.3133	-4.82455	8.66571	0	
0.3140	-6.03663	7.1475	0	
0.3147	-4.51559	6.84045	0	
0.3153	-3.61247	5.32224	0	
0.3160	-4.82455	3.47993	0	
0.3167	-3.61247	1.96172	0	
0.3173	-1.78247	1.34762	0	
0.3180	-3.61247	-1.09174	0	
0.3187	-4.82455	-7.19868	0	
0.3193	-4.20663	-13.9027	0	
0.3200	-3.89767	-16.6661	0	
0.3207	-2.99455	-14.8238	0	
0.3213	-4.51559	-12.6915	0	
0.3220	-7.86663	-13.6127	0	
0.3227	-7.86663	-10.2521	0	
0.3233	-4.82455	0.119409	0	
0.3240	-3.89767	9.58686	0	
0.3247	-2.68559	10.8151	0	
0.3253	0.356494	9.89392	0	
0.3260	2.49546	9.58686	0	
0.3267	2.1865	6.84045	0	
0.3273	2.49546	1.65467	0	
0.3280	7.39131	-1.39879	0	
0.3287	13.1903	-0.477637	0	
0.3293	10.7423	-0.477637	0	
0.3300	6.15546	-2.917	0	
0.3307	7.39131	-2.31995	0	
0.3313	8.91235	0.426462	0	
0.3320	7.08235	-0.170585	0	
0.3327	5.8465	-0.78469	0	
0.3333	6.15546	1.04057	0	
0.3340	7.08235	0.733514	0	
0.3347	7.98546	1.34762	0	
0.3353	6.77338	3.78698	0	
0.3360	4.32546	4.09403	0	
0.3367	3.11338	2.86582	0	
0.3373	2.49546	2.57583	0	
0.3380	4.0165	-0.170585	0	
0.3387	4.32546	-3.5311	0	
0.3393	3.11338	-3.5311	0	
0.3400	5.25234	-2.917	0	
0.3407	7.08235	-2.62701	0	
0.3413	2.49546	-1.09174	0	
0.3420	-0.237663	-1.09174	0	
0.3427	-0.546624	-1.09174	0	
0.3433	-3.61247	-0.477637	0	
0.3440	-6.34559	-1.09174	0	
0.3447	-5.13351	-3.83816	0	
0.3453	-2.99455	-7.50573	0	
0.3460	0.665455	-8.71688	0	
0.3467	2.49546	-7.19868	0	
0.3473	-1.16455	-5.06637	0	
0.3480	-4.51559	-3.83816	0	
0.3487	-5.13351	-4.45226	0	
0.3493	-9.69663	-4.75931	0	
0.3500	-13.9746	-2.0129	0	
0.3507	-11.2414	-1.09174	0	
0.3513	-7.27248	-3.83816	0	
0.3520	-5.72767	-1.70585	0	
0.3527	-3.89767	6.5334	0	
0.3533	-0.855585	10.8151	0	
0.3540	3.42234	9.89392	0	
0.3547	7.70027	7.1475	0	
0.3553	9.22131	2.57583	0	
0.3560	9.22131	0.119409	0	
0.3567	10.7423	2.57583	0	
0.3573	10.7423	3.78698	0	
0.3580	8.29442	2.57583	0	
0.3587	7.98546	0.733514	0	
0.3593	8.29442	-1.09174	0	
0.3600	6.46442	-1.09174	0	
0.3607	6.46442	-1.39879	0	
0.3613	7.98546	-3.5311	0	
0.3620	6.46442	-2.0129	0	
0.3627	5.25234	-0.170585	0	
0.3633	5.5613	-2.31995	0	
0.3640	4.32546	-3.83816	0	
0.3647	2.80442	-3.22405	0	
0.3653	1.9013	-3.83816	0	
0.3660	-3.30351	-3.83816	0	
0.3667	-3.89767	-3.83816	0	
0.3673	2.49546	-3.83816	0	
0.3680	1.59234	-0.170585	0	
0.3687	-7.86663	1.65467	0	
0.3693	-13.0714	-1.09174	0	
0.3700	-14.2835	-1.70585	0	
0.3707	-15.8046	0.733514	0	
0.3713	-13.6656	-1.09174	0	
0.3720	-8.17559	-3.5311	0	
0.3727	-4.51559	-0.477637	0	
0.3733	-2.06766	2.57583	0	
0.3740	1.28338	2.26878	0	
0.3747	2.49546	-0.170585	0	
0.3753	2.49546	-3.83816	0	
0.3760	1.28338	-6.27752	0	
0.3767	0.665455	-5.06637	0	
0.3773	0.665455	-7.81278	0	
0.3780	0.0712988	-13.9027	0	
0.3787	-0.855585	-9.94509	0	
0.3793	-0.855585	-0.78469	0	
0.3800	-0.237663	-1.09174	0	
0.3807	-1.78247	-3.83816	0	
0.3813	-3.89767	-2.917	0	
0.3820	-2.99455	-1.70585	0	
0.3827	-0.237663	3.78698	0	
0.3833	-0.237663	9.89392	0	
0.3840	-0.855585	4.09403	0	
0.3847	-2.06766	-6.58457	0	
0.3853	-6.65455	-10.8662	0	
0.3860	-8.48455	-11.7703	0	
0.3867	-4.82455	-8.11983	0	
0.3873	-3.30351	-1.09174	0	
0.3880	-6.65455	1.65467	0	
0.3887	-7.58144	4.09403	0	
0.3893	-6.03663	10.201	0	
0.3900	-4.82455	14.7726	0	
0.3907	-2.37663	17.8261	0	
0.3913	-0.855585	17.5191	0	
0.3920	-1.78247	9.89392	0	
0.3927	-2.37663	4.40109	0	
0.3933	-0.237663	5.61224	0	
0.3940	1.59234	4.09403	0	
0.3947	2.80442	0.733514	0	
0.3953	5.25234	3.47993	0	
0.3960	5.5613	4.70814	0	
0.3967	3.42234	1.65467	0	
0.3973	2.49546	0.733514	0	
0.3980	3.42234	-0.170585	0	
0.3987	4.32546	-2.31995	0	
0.3993	4.32546	-2.917	0	
0.4000	3.11338	-3.22405	0	
0.4007	2.49546	-3.22405	0	
0.4013	2.49546	-3.83816	0	
0.4020	0.974417	-6.58457	0	
0.4027	-1.16455	-8.40983	0	
0.4033	0.665455	-6.27752	0	
0.4040	3.42234	-5.66341	0	
0.4047	2.49546	-5.37342	0	
0.4053	-0.237663	-2.62701	0	
0.4060	-2.06766	-2.917	0	
0.4067	-2.68559	-5.97047	0	
0.4073	-2.99455	-3.83816	0	
0.4080	-3.89767	0.733514	0	
0.4087	-5.13351	-0.477637	0	
0.4093	-4.82455	-2.917	0	
0.4100	-3.61247	-1.70585	0	
0.4107	-2.68559	-0.170585	0	
0.4113	-2.99455	-0.170585	0	
0.4120	-5.13351	-2.0129	0	
0.4127	-7.58144	-3.22405	0	
0.4133	-6.65455	1.34762	0	
0.4140	-2.06766	7.1475	0	
0.4147	2.49546	8.35865	0	
0.4153	4.0165	9.27981	0	
0.4160	4.32546	8.97276	0	
0.4167	3.42234	2.57583	0	
0.4173	3.11338	-2.31995	0	
0.4180	3.42234	-1.09174	0	
0.4187	4.0165	-0.78469	0	
0.4193	4.94338	-2.62701	0	
0.4200	5.25234	-3.22405	0	
0.4207	3.42234	-4.75931	0	
0.4213	0.0712988	-5.06637	0	
0.4220	-2.68559	0.119409	0	
0.4227	-3.30351	7.1475	0	
0.4233	-3.30351	8.35865	0	
0.4240	-3.61247	3.17288	0	
0.4247	-2.99455	-1.39879	0	
0.4253	0.0712988	-1.70585	0	
0.4260	2.49546	-0.477637	0	
0.4267	1.59234	-0.477637	0	
0.4273	0.665455	0.733514	0	
0.4280	0.665455	1.65467	0	
0.4287	1.59234	3.17288	0	
0.4293	4.0165	8.06866	0	
0.4300	6.15546	12.0262	0	
0.4307	6.77338	10.8151	0	
0.4313	4.32546	8.97276	0	
0.4320	0.665455	7.1475	0	
0.4327	0.0712988	3.17288	0	
0.4333	2.1865	1.65467	0	
0.4340	2.49546	5.32224	0	
0.4347	2.80442	5.61224	0	
0.4353	3.11338	3.47993	0	
0.4360	1.28338	3.47993	0	
0.4367	0.665455	1.34762	0	
0.4373	1.59234	-3.83816	0	
0.4380	1.59234	-4.45226	0	
0.4387	2.49546	-2.0129	0	
0.4393	4.63442	-4.45226	0	
0.4400	2.80442	-5.97047	0	
0.4407	2.49546	0.733514	0	
0.4413	6.46442	5.32224	0	
0.4420	6.77338	2.57583	0	
0.4427	1.59234	0.733514	0	
0.4433	-2.37663	1.04057	0	
0.4440	-3.89767	-0.477637	0	
0.4447	-2.06766	-0.78469	0	
0.4453	1.28338	-0.170585	0	
0.4460	1.59234	-3.83816	0	
0.4467	-1.16455	-9.02393	0	
0.4473	-1.16455	-11.1562	0	
0.4480	-0.237663	-14.8238	0	
0.4487	0.0712988	-20.3166	0	
0.4493	1.59234	-22.449	0	
0.4500	2.1865	-23.0631	0	
0.4507	0.665455	-25.1954	0	
0.4513	0.356494	-20.9307	0	
0.4520	0.665455	-7.50573	0	
0.4527	-1.16455	3.17288	0	
0.4533	-2.06766	11.7192	0	
0.4540	-0.855585	28.1977	0	
0.4547	-0.855585	41.9297	0	
0.4553	-1.47351	39.1833	0	
0.4560	-0.237663	28.1977	0	
0.4567	-0.546624	18.1332	0	
0.4573	-2.37663	8.06866	0	
0.4580	-2.06766	3.78698	0	
0.4587	-0.237663	5.01519	0	
0.4593	0.665455	4.09403	0	
0.4600	0.665455	2.57583	0	
0.4607	1.28338	2.57583	0	
0.4613	0.974417	1.04057	0	
0.4620	0.356494	0.119409	0	
0.4627	-0.237663	1.04057	0	
0.4633	-1.16455	0.426462	0	
0.4640	-2.37663	-1.09174	0	
0.4647	-2.99455	0.119409	0	
0.4653	-2.06766	0.119409	0	
0.4660	-1.16455	-2.917	0	
0.4667	-3.61247	-2.917	0	
0.4673	-6.03663	-0.477637	0	
0.4680	-5.72767	-1.70585	0	
0.4687	-5.72767	-2.917	0	
0.4693	-7.86663	-1.09174	0	
0.4700	-6.65455	-1.39879	0	
0.4707	-2.68559	-3.83816	0	
0.4713	-2.06766	-3.22405	0	
0.4720	-1.78247	-2.31995	0	
0.4727	-0.237663	-3.83816	0	
0.4733	-0.546624	-2.917	0	
0.4740	-1.16455	0.733514	0	
0.4747	1.28338	1.34762	0	
0.4753	3.11338	-0.170585	0	
0.4760	3.11338	-0.477637	0	
0.4767	2.49546	-0.170585	0	
0.4773	2.1865	0.426462	0	
0.4780	0.974417	-2.0129	0	
0.4787	0.665455	-4.75931	0	
0.4793	1.59234	-3.83816	0	
0.4800	3.42234	-3.5311	0	
0.4807	4.0165	-5.97047	0	
0.4813	2.1865	-6.58457	0	
0.4820	-0.237663	-5.66341	0	
0.4827	-1.47351	-8.11983	0	
0.4833	-1.78247	-9.33099	0	
0.4840	-2.68559	-8.11983	0	
0.4847	-3.30351	-7.50573	0	
0.4853	-2.99455	-6.58457	0	
0.4860	-2.68559	-4.45226	0	
0.4867	-3.61247	-5.66341	0	
0.4873	-2.99455	-8.71688	0	
0.4880	-0.546624	-7.81278	0	
0.4887	-2.37663	-5.66341	0	
0.4893	-6.03663	-5.37342	0	
0.4900	-4.20663	-5.06637	0	
0.4907	-2.06766	-4.75931	0	
0.4913	-4.20663	-6.89162	0	
0.4920	-5.72767	-8.11983	0	
0.4927	-2.99455	-8.40983	0	
0.4933	-2.06766	-9.63804	0	
0.4940	-2.99455	-6.58457	0	
0.4947	-0.546624	-0.170585	0	
0.4953	2.49546	-1.70585	0	
0.4960	2.80442	-3.5311	0	
0.4967	4.0165	5.91929	0	
0.4973	5.5613	13.8515	0	
0.4980	4.32546	11.7192	0	
0.4987	3.42234	8.97276	0	
0.4993	3.42234	7.1475	0	
0.5000	1.9013	2.57583	0	
0.5007	-0.546624	2.26878	0	
0.5013	-1.47351	3.47993	0	
0.5020	-0.546624	0.733514	0	
0.5027	0.665455	-2.0129	0	
0.5033	-0.237663	-3.83816	0	
0.5040	-2.99455	-7.19868	0	
0.5047	-2.06766	-8.11983	0	
0.5053	-1.47351	-8.40983	0	
0.5060	-2.99455	-9.02393	0	
0.5067	-2.99455	-3.5311	0	
0.5073	-1.47351	1.04057	0	
0.5080	-3.61247	-2.31995	0	
0.5087	-4.82455	-2.0129	0	
0.5093	-2.99455	5.32224	0	
0.5100	-1.47351	9.58686	0	
0.5107	-1.16455	10.508	0	
0.5113	-0.546624	10.8151	0	
0.5120	-2.68559	5.32224	0	
0.5127	-4.20663	-0.170585	0	
0.5133	-2.06766	0.733514	0	
0.5140	-1.16455	1.65467	0	
0.5147	-2.06766	0.733514	0	
0.5153	-0.855585	0.426462	0	
0.5160	0.665455	-0.78469	0	
0.5167	1.59234	-4.14521	0	
0.5173	2.80442	-6.89162	0	
0.5180	2.49546	-5.06637	0	
0.5187	0.665455	-0.477637	0	
0.5193	1.28338	0.733514	0	
0.5200	3.42234	-0.170585	0	
0.5207	5.25234	3.17288	0	
0.5213	7.98546	7.1475	0	
0.5220	8.60339	7.1475	0	
0.5227	5.25234	4.70814	0	
0.5233	2.49546	1.96172	0	
0.5240	0.665455	-1.09174	0	
0.5247	-3.30351	-2.62701	0	
0.5253	-3.61247	-2.917	0	
0.5260	-0.855585	-2.62701	0	
0.5267	-1.78247	0.426462	0	
0.5273	-3.30351	2.57583	0	
0.5280	-1.78247	-0.170585	0	
0.5287	-0.237663	-0.78469	0	
0.5293	-0.237663	5.32224	0	
0.5300	0.0712988	8.97276	0	
0.5307	0.0712988	5.91929	0	
0.5313	-0.546624	2.86582	0	
0.5320	-0.237663	3.47993	0	
0.5327	1.28338	4.09403	0	
0.5333	0.665455	2.26878	0	
0.5340	0.665455	2.57583	0	
0.5347	3.42234	9.27981	0	
0.5353	5.8465	18.1332	0	
0.5360	5.25234	20.5725	0	
0.5367	4.94338	14.4656	0	
0.5373	4.32546	6.22634	0	
0.5380	1.59234	1.34762	0	
0.5387	0.665455	0.119409	0	
0.5393	2.49546	1.65467	0	
0.5400	-0.237663	1.65467	0	
0.5407	-3.30351	-1.70585	0	
0.5413	-2.06766	-3.22405	0	
0.5420	-2.99455	-3.22405	0	
0.5427	-6.03663	-3.83816	0	
0.5433	-3.89767	-2.0129	0	
0.5440	-2.06766	-1.09174	0	
0.5447	-6.34559	-3.83816	0	
0.5453	-7.86663	-5.66341	0	
0.5460	-4.20663	-6.89162	0	
0.5467	-3.61247	-8.11983	0	
0.5473	-4.51559	-5.97047	0	
0.5480	-2.37663	-2.31995	0	
0.5487	-2.06766	-3.5311	0	
0.5493	-3.89767	-4.75931	0	
0.5500	-1.78247	-2.62701	0	
0.5507	1.59234	-2.917	0	
0.5513	2.49546	-6.58457	0	
0.5520	2.80442	-5.66341	0	
0.5527	3.7313	-2.0129	0	
0.5533	4.0165	-0.170585	0	
0.5540	3.42234	0.733514	0	
0.5547	2.49546	0.733514	0	
0.5553	1.9013	-0.477637	0	
0.5560	0.356494	0.119409	0	
0.5567	-4.20663	1.65467	0	
0.5573	-9.41144	0.426462	0	
0.5580	-8.48455	-1.09174	0	
0.5587	-5.72767	-0.170585	0	
0.5593	-6.96351	-0.477637	0	
0.5600	-7.27248	-2.0129	0	
0.5607	-3.61247	-2.31995	0	
0.5613	-3.61247	-2.62701	0	
0.5620	-6.03663	-3.22405	0	
0.5627	-3.61247	-2.31995	0	
0.5633	0.356494	-2.0129	0	
0.5640	-0.546624	-2.917	0	
0.5647	-2.99455	-2.917	0	
0.5653	-2.99455	-3.22405	0	
0.5660	-2.06766	-6.27752	0	
0.5667	-0.237663	-5.66341	0	
0.5673	2.1865	-2.0129	0	
0.5680	4.0165	-2.0129	0	
0.5687	3.11338	-3.22405	0	
0.5693	0.665455	-0.477637	0	
0.5700	1.28338	-0.78469	0	
0.5707	3.42234	-3.5311	0	
0.5713	0.665455	-1.09174	0	
0.5720	-2.99455	1.34762	0	
0.5727	-0.237663	0.119409	0	
0.5733	2.49546	1.34762	0	
0.5740	-0.237663	2.57583	0	
0.5747	-2.37663	-1.09174	0	
0.5753	-1.78247	-2.62701	0	
0.5760	-1.16455	-0.170585	0	
0.5767	-0.855585	-0.170585	0	
0.5773	-0.237663	-2.0129	0	
0.5780	-0.855585	-2.917	0	
0.5787	-0.237663	-2.917	0	
0.5793	1.9013	-1.09174	0	
0.5800	3.42234	1.65467	0	
0.5807	1.28338	3.47993	0	
0.5813	-2.06766	1.04057	0	
0.5820	-1.16455	-2.31995	0	
0.5827	0.974417	-0.170585	0	
0.5833	-0.546624	3.47993	0	
0.5840	-2.06766	-1.70585	0	
0.5847	-0.237663	-8.40983	0	
0.5853	-0.237663	-9.94509	0	
0.5860	-1.16455	-12.6915	0	
0.5867	0.665455	-15.1309	0	
0.5873	1.59234	-8.71688	0	
0.5880	-0.855585	-4.45226	0	
0.5887	-1.78247	-8.40983	0	
0.5893	0.665455	-2.31995	0	
0.5900	1.59234	13.5615	0	
0.5907	0.356494	17.212	0	
0.5913	1.59234	10.508	0	
0.5920	2.49546	10.8151	0	
0.5927	1.59234	15.3867	0	
0.5933	1.59234	15.0797	0	
0.5940	5.25234	13.5615	0	
0.5947	6.15546	12.6403	0	
0.5953	4.63442	10.8151	0	
0.5960	5.5613	9.27981	0	
0.5967	5.25234	11.4121	0	
0.5973	3.42234	13.5615	0	
0.5980	5.25234	9.89392	0	
0.5987	4.0165	4.40109	0	
0.5993	-1.16455	3.78698	0	
0.6000	-2.06766	4.40109	0	
0.6007	-0.237663	-0.170585	0	
0.6013	-2.37663	-4.45226	0	
0.6020	-3.89767	-4.75931	0	
0.6027	-3.61247	-4.45226	0	
0.6033	-4.51559	-5.37342	0	
0.6040	-4.51559	-7.50573	0	
0.6047	-3.89767	-11.4633	0	
0.6053	-3.89767	-10.2521	0	
0.6060	-2.68559	-4.45226	0	
0.6067	-2.99455	-3.83816	0	
0.6073	-4.82455	-6.58457	0	
0.6080	-3.30351	-5.37342	0	
0.6087	-2.06766	-2.917	0	
0.6093	-3.89767	1.34762	0	
0.6100	-2.06766	10.201	0	
0.6107	0.974417	14.4656	0	
0.6113	-1.16455	8.06866	0	
0.6120	-3.89767	4.40109	0	
0.6127	-2.99455	5.61224	0	
0.6133	-0.855585	-1.09174	0	
0.6140	2.49546	-11.1562	0	
0.6147	5.25234	-10.2521	0	
0.6153	7.39131	-3.22405	0	
0.6160	10.7423	-2.917	0	
0.6167	9.81546	-3.22405	0	
0.6173	5.25234	2.26878	0	
0.6180	5.5613	7.1475	0	
0.6187	9.22131	10.508	0	
0.6193	7.98546	15.3867	0	
0.6200	4.94338	14.4656	0	
0.6207	3.42234	7.76161	0	
0.6213	0.974417	1.34762	0	
0.6220	-0.237663	-2.31995	0	
0.6227	-0.237663	-3.83816	0	
0.6233	-2.37663	-3.5311	0	
0.6240	-4.20663	-3.5311	0	
0.6247	-4.82455	-3.5311	0	
0.6253	-5.72767	-3.5311	0	
0.6260	-4.82455	-5.06637	0	
0.6267	-5.72767	-4.14521	0	
0.6273	-7.58144	-0.170585	0	
0.6280	-6.34559	-2.0129	0	
0.6287	-5.72767	-4.75931	0	
0.6293	-8.79352	-1.70585	0	
0.6300	-7.27248	2.26878	0	
0.6307	-1.78247	2.26878	0	
0.6313	-1.16455	1.04057	0	
0.6320	-2.37663	-2.0129	0	
0.6327	-1.78247	-4.45226	0	
0.6333	-1.16455	-3.83816	0	
0.6340	0.0712988	-2.62701	0	
0.6347	2.1865	-3.5311	0	
0.6353	1.59234	-3.83816	0	
0.6360	0.0712988	-5.37342	0	
0.6367	-0.237663	-5.06637	0	
0.6373	-0.237663	-1.09174	0	
0.6380	0.0712988	1.65467	0	
0.6387	0.356494	0.426462	0	
0.6393	-2.06766	-1.09174	0	
0.6400	-3.89767	-3.5311	0	
0.6407	-2.06766	-5.66341	0	
0.6413	-0.546624	-2.0129	0	
0.6420	0.0712988	3.47993	0	
0.6427	0.974417	2.86582	0	
0.6433	0.0712988	-0.477637	0	
0.6440	-1.47351	-1.70585	0	
0.6447	-2.06766	-1.09174	0	
0.6453	-5.13351	-0.78469	0	
0.6460	-8.48455	-3.22405	0	
0.6467	-7.58144	-7.50573	0	
0.6473	-3.89767	-8.71688	0	
0.6480	-0.237663	-6.27752	0	
0.6487	2.1865	-7.19868	0	
0.6493	2.49546	-10.5592	0	
0.6500	1.59234	-8.40983	0	
0.6507	2.49546	0.119409	0	
0.6513	3.42234	5.32224	0	
0.6520	2.49546	1.96172	0	
0.6527	2.49546	-2.0129	0	
0.6533	3.7313	0.733514	0	
0.6540	3.7313	4.40109	0	
0.6547	5.25234	5.32224	0	
0.6553	6.46442	7.1475	0	
0.6560	6.77338	9.58686	0	
0.6567	8.60339	5.91929	0	
0.6573	7.98546	0.733514	0	
0.6580	1.59234	0.426462	0	
0.6587	-1.47351	0.733514	0	
0.6593	1.59234	-1.39879	0	
0.6600	0.356494	-2.31995	0	
0.6607	-3.61247	-1.39879	0	
0.6613	-2.06766	-2.31995	0	
0.6620	-0.855585	-3.22405	0	
0.6627	-5.72767	-3.5311	0	
0.6633	-7.86663	-4.75931	0	
0.6640	-6.34559	-5.97047	0	
0.6647	-8.48455	-5.97047	0	
0.6653	-12.1446	-7.50573	0	
0.6660	-9.69663	-8.11983	0	
0.6667	-5.72767	-5.06637	0	
0.6673	-6.03663	-3.5311	0	
0.6680	-7.27248	-4.75931	0	
0.6687	-7.86663	-4.45226	0	
0.6693	-9.41144	-2.0129	0	
0.6700	-9.41144	-1.09174	0	
0.6707	-6.65455	-1.70585	0	
0.6713	-3.61247	-0.477637	0	
0.6720	-0.855585	-1.39879	0	
0.6727	0.356494	-4.75931	0	
0.6733	1.59234	-7.50573	0	
0.6740	6.46442	-6.58457	0	
0.6747	11.9544	-3.83816	0	
0.6753	13.7844	1.04057	0	
0.6760	16.5413	1.96172	0	
0.6767	18.3713	-3.5311	0	
0.6773	15.0203	-6.27752	0	
0.6780	11.9544	-0.477637	0	
0.6787	11.6455	9.27981	0	
0.6793	10.7423	15.0797	0	
0.6800	9.22131	10.201	0	
0.6807	7.08235	-2.31995	0	
0.6813	2.1865	-9.33099	0	
0.6820	0.974417	-4.75931	0	
0.6827	6.15546	0.733514	0	
0.6833	7.70027	0.426462	0	
0.6840	2.49546	-1.39879	0	
0.6847	-2.06766	-0.170585	0	
0.6853	-3.89767	4.40109	0	
0.6860	-4.82455	8.06866	0	
0.6867	-3.89767	11.7192	0	
0.6873	-2.37663	12.6403	0	
0.6880	-0.855585	7.76161	0	
0.6887	-1.16455	1.65467	0	
0.6893	-2.99455	3.78698	0	
0.6900	-3.61247	5.32224	0	
0.6907	-2.99455	0.733514	0	
0.6913	-4.51559	0.733514	0	
0.6920	-5.72767	5.32224	0	
0.6927	-4.82455	3.47993	0	
0.6933	-4.20663	-0.170585	0	
0.6940	-2.99455	1.65467	0	
0.6947	-1.78247	2.26878	0	
0.6953	-2.06766	0.426462	0	
0.6960	-2.99455	-0.477637	0	
0.6967	-2.37663	-1.09174	0	
0.6973	-2.99455	-1.09174	0	
0.6980	-3.30351	-1.09174	0	
0.6987	-1.78247	-3.83816	0	
0.6993	-2.06766	-7.81278	0	
0.7000	-4.51559	-6.27752	0	
0.7007	-4.82455	-2.31995	0	
0.7013	-6.34559	-2.0129	0	
0.7020	-8.17559	-3.83816	0	
0.7027	-6.34559	-2.62701	0	
0.7033	-4.51559	-2.0129	0	
0.7040	-4.51559	-4.75931	0	
0.7047	-2.68559	-6.58457	0	
0.7053	-2.06766	-5.37342	0	
0.7060	-2.99455	-5.66341	0	
0.7067	-1.16455	-8.11983	0	
0.7073	-0.855585	-8.71688	0	
0.7080	-4.82455	-6.89162	0	
0.7087	-3.89767	-5.37342	0	
0.7093	0.665455	-4.14521	0	
0.7100	1.59234	-2.917	0	
0.7107	0.665455	-3.22405	0	
0.7113	0.665455	-5.66341	0	
0.7120	0.356494	-7.81278	0	
0.7127	0.356494	-7.50573	0	
0.7133	0.356494	-6.89162	0	
0.7140	0.665455	-4.14521	0	
0.7147	2.80442	-0.170585	0	
0.7153	2.49546	1.04057	0	
0.7160	-1.78247	2.26878	0	
0.7167	-2.37663	6.22634	0	
0.7173	0.665455	5.91929	0	
0.7180	0.665455	1.65467	0	
0.7187	-0.546624	2.26878	0	
0.7193	2.1865	3.47993	0	
0.7200	2.49546	1.34762	0	
0.7207	-1.16455	1.34762	0	
0.7213	-2.99455	3.47993	0	
0.7220	-0.855585	4.40109	0	
0.7227	0.0712988	3.78698	0	
0.7233	-1.78247	1.34762	0	
0.7240	-4.20663	-0.477637	0	
0.7247	-6.03663	2.57583	0	
0.7253	-5.72767	1.96172	0	
0.7260	-5.72767	-2.917	0	
0.7267	-8.48455	-1.39879	0	
0.7273	-9.10248	1.96172	0	
0.7280	-4.82455	-1.39879	0	
0.7287	-3.89767	-4.14521	0	
0.7293	-5.72767	-2.62701	0	
0.7300	-2.99455	-2.917	0	
0.7307	-1.16455	-2.0129	0	
0.7313	-2.06766	1.04057	0	
0.7320	-0.237663	0.733514	0	
0.7327	2.49546	-2.31995	0	
0.7333	2.49546	-3.5311	0	
0.7340	4.32546	-3.5311	0	
0.7347	6.77338	-2.917	0	
0.7353	7.70027	-3.83816	0	
0.7360	9.53027	-7.19868	0	
0.7367	9.81546	-9.94509	0	
0.7373	8.91235	-8.71688	0	
0.7380	10.4334	-5.06637	0	
0.7387	9.81546	-1.39879	0	
0.7393	7.98546	-2.62701	0	
0.7400	10.1244	-3.83816	0	
0.7407	11.3603	2.57583	0	
0.7413	7.08235	9.58686	0	
0.7420	6.15546	6.5334	0	
0.7427	7.70027	2.57583	0	
0.7433	5.5613	4.70814	0	
0.7440	2.1865	6.5334	0	
0.7447	-1.16455	7.1475	0	
0.7453	-3.89767	7.76161	0	
0.7460	-4.82455	6.5334	0	
0.7467	-7.58144	6.22634	0	
0.7473	-10.3146	7.1475	0	
0.7480	-8.79352	7.1475	0	
0.7487	-6.96351	6.22634	0	
0.7493	-8.48455	3.78698	0	
0.7500	-7.58144	0.733514	0	
0.7507	-5.72767	-0.170585	0	
0.7513	-7.27248	-3.83816	0	
0.7520	-6.65455	-11.7703	0	
0.7527	-4.20663	-13.9027	0	
0.7533	-6.03663	-9.02393	0	
0.7540	-8.17559	-6.89162	0	
0.7547	-6.96351	-5.66341	0	
0.7553	-6.65455	0.426462	0	
0.7560	-7.58144	8.06866	0	
0.7567	-5.72767	17.8261	0	
0.7573	-2.68559	27.6006	0	
0.7580	-1.78247	29.1188	0	
0.7587	0.0712988	20.8796	0	
0.7593	3.42234	10.508	0	
0.7600	5.25234	1.65467	0	
0.7607	6.15546	-1.09174	0	
0.7613	7.98546	-1.09174	0	
0.7620	7.70027	-4.45226	0	
0.7627	4.63442	-5.97047	0	
0.7633	5.25234	-3.83816	0	
0.7640	7.70027	-4.14521	0	
0.7647	5.25234	-4.45226	0	
0.7653	1.28338	-0.78469	0	
0.7660	0.665455	-0.78469	0	
0.7667	0.665455	-1.70585	0	
0.7673	0.356494	4.40109	0	
0.7680	0.665455	9.58686	0	
0.7687	0.665455	8.06866	0	
0.7693	0.665455	6.22634	0	
0.7700	0.665455	2.86582	0	
0.7707	0.665455	-1.09174	0	
0.7713	1.59234	-0.170585	0	
0.7720	2.49546	1.65467	0	
0.7727	1.59234	0.119409	0	
0.7733	0.665455	0.119409	0	
0.7740	2.49546	0.733514	0	
0.7747	5.25234	0.426462	0	
0.7753	4.0165	0.733514	0	
0.7760	2.1865	1.04057	0	
0.7767	2.49546	-1.09174	0	
0.7773	3.7313	-5.66341	0	
0.7780	2.49546	-11.1562	0	
0.7787	0.665455	-11.1562	0	
0.7793	-0.237663	-10.2521	0	
0.7800	-0.546624	-11.1562	0	
0.7807	-1.16455	-9.02393	0	
0.7813	-2.99455	-2.917	0	
0.7820	-5.13351	-1.09174	0	
0.7827	-5.72767	-0.170585	0	
0.7833	-6.65455	4.40109	0	
0.7840	-7.58144	5.32224	0	
0.7847	-8.79352	0.733514	0	
0.7853	-9.69663	-3.5311	0	
0.7860	-9.41144	-4.45226	0	
0.7867	-7.58144	-3.83816	0	
0.7873	-9.41144	-2.917	0	
0.7880	-11.2414	-1.09174	0	
0.7887	-7.58144	0.733514	0	
0.7893	-2.37663	0.119409	0	
0.7900	-0.855585	0.426462	0	
0.7907	0.356494	3.17288	0	
0.7913	3.42234	3.17288	0	
0.7920	4.94338	1.04057	0	
0.7927	2.49546	1.65467	0	
0.7933	0.974417	0.733514	0	
0.7940	2.49546	-2.0129	0	
0.7947	6.77338	-1.39879	0	
0.7953	7.70027	0.426462	0	
0.7960	4.63442	-0.477637	0	
0.7967	3.11338	-0.170585	0	
0.7973	3.42234	1.34762	0	
0.7980	1.59234	-0.170585	0	
0.7987	-0.855585	-1.09174	0	
0.7993	0.0712988	1.04057	0	
0.8000	-0.237663	1.65467	0	
0.8007	-1.78247	0.426462	0	
0.8013	-0.546624	0.119409	0	
0.8020	0.356494	-1.70585	0	
0.8027	-2.37663	-4.75931	0	
0.8033	-5.72767	-3.83816	0	
0.8040	-6.65455	-2.62701	0	
0.8047	-5.72767	-6.58457	0	
0.8053	-3.30351	-9.33099	0	
0.8060	0.356494	-5.37342	0	
0.8067	3.42234	-2.917	0	
0.8073	3.42234	-4.14521	0	
0.8080	0.665455	-5.06637	0	
0.8087	1.59234	-4.14521	0	
0.8093	6.15546	-3.83816	0	
0.8100	7.98546	-3.5311	0	
0.8107	5.8465	-3.22405	0	
0.8113	6.15546	1.96172	0	
0.8120	7.98546	9.27981	0	
0.8127	6.46442	8.97276	0	
0.8133	4.32546	2.86582	0	
0.8140	5.25234	0.733514	0	
0.8147	8.91235	-2.917	0	
0.8153	10.7423	-12.3845	0	
0.8160	9.81546	-20.3166	0	
0.8167	9.53027	-20.6237	0	
0.8173	11.0513	-16.052	0	
0.8180	9.53027	-8.40983	0	
0.8187	3.7313	-2.0129	0	
0.8193	0.665455	1.34762	0	
0.8200	0.356494	6.5334	0	
0.8207	-4.82455	14.4656	0	
0.8213	-10.9325	19.9584	0	
0.8220	-10.3146	23.626	0	
0.8227	-8.79352	27.2936	0	
0.8233	-8.79352	25.7583	0	
0.8240	-4.82455	15.0797	0	
0.8247	-2.37663	5.32224	0	
0.8253	-6.34559	4.40109	0	
0.8260	-9.10248	5.32224	0	
0.8267	-8.17559	2.57583	0	
0.8273	-10.3146	3.78698	0	
0.8280	-11.2414	7.45455	0	
0.8287	-7.58144	5.91929	0	
0.8293	-6.65455	2.86582	0	
0.8300	-7.58144	2.57583	0	
0.8307	-3.89767	1.65467	0	
0.8313	-0.237663	0.733514	0	
0.8320	-0.237663	-0.170585	0	
0.8327	-1.16455	-2.917	0	
0.8333	-1.16455	-1.09174	0	
0.8340	-0.237663	2.86582	0	
0.8347	1.59234	0.426462	0	
0.8353	1.9013	-2.0129	0	
0.8360	0.0712988	0.733514	0	
0.8367	-0.237663	0.426462	0	
0.8373	1.59234	-2.917	0	
0.8380	1.28338	-2.0129	0	
0.8387	0.665455	-1.09174	0	
0.8393	1.28338	-2.0129	0	
0.8400	0.974417	-1.39879	0	
0.8407	-0.237663	-2.0129	0	
0.8413	1.28338	-3.5311	0	
0.8420	2.80442	-3.5311	0	
0.8427	1.28338	-4.45226	0	
0.8433	-1.47351	-6.58457	0	
0.8440	-2.99455	-7.19868	0	
0.8447	-4.20663	-5.66341	0	
0.8453	-3.89767	-3.83816	0	
0.8460	-1.47351	-2.62701	0	
0.8467	-0.546624	-3.83816	0	
0.8473	-2.99455	-6.58457	0	
0.8480	-4.82455	-5.66341	0	
0.8487	-2.99455	-1.39879	0	
0.8493	-1.78247	0.426462	0	
0.8500	-2.68559	-2.62701	0	
0.8507	-3.61247	-3.83816	0	
0.8513	-2.68559	-0.170585	0	
0.8520	-1.47351	-0.78469	0	
0.8527	-1.47351	-4.14521	0	
0.8533	-1.16455	-2.917	0	
0.8540	1.59234	0.733514	0	
0.8547	4.63442	1.65467	0	
0.8553	3.7313	4.09403	0	
0.8560	2.49546	8.06866	0	
0.8567	4.32546	5.32224	0	
0.8573	4.32546	1.34762	0	
0.8580	2.1865	5.61224	0	
0.8587	1.28338	9.27981	0	
0.8593	-0.546624	5.61224	0	
0.8600	-3.30351	2.86582	0	
0.8607	-1.16455	3.47993	0	
0.8613	-0.546624	2.57583	0	
0.8620	-5.72767	1.04057	0	
0.8627	-8.48455	0.733514	0	
0.8633	-6.65455	-0.78469	0	
0.8640	-6.96351	-0.170585	0	
0.8647	-7.58144	1.04057	0	
0.8653	-8.48455	-2.917	0	
0.8660	-10.3146	-3.83816	0	
0.8667	-7.58144	-0.170585	0	
0.8673	-3.30351	-0.170585	0	
0.8680	-3.89767	-3.83816	0	
0.8687	-3.61247	-2.917	0	
0.8693	0.665455	0.119409	0	
0.8700	2.80442	0.733514	0	
0.8707	2.1865	-1.09174	0	
0.8713	2.80442	-3.83816	0	
0.8720	6.15546	-4.14521	0	
0.8727	6.77338	0.119409	0	
0.8733	4.63442	4.40109	0	
0.8740	6.46442	4.40109	0	
0.8747	8.29442	3.47993	0	
0.8753	5.25234	4.40109	0	
0.8760	4.32546	6.5334	0	
0.8767	7.08235	5.61224	0	
0.8773	7.70027	2.57583	0	
0.8780	5.5613	2.26878	0	
0.8787	4.32546	4.40109	0	
0.8793	4.0165	1.65467	0	
0.8800	4.32546	-1.70585	0	
0.8807	3.7313	0.426462	0	
0.8813	1.9013	1.34762	0	
0.8820	1.9013	-2.62701	0	
0.8827	2.80442	-5.06637	0	
0.8833	0.665455	-4.75931	0	
0.8840	-2.99455	-5.37342	0	
0.8847	-4.20663	-6.58457	0	
0.8853	-6.03663	-7.50573	0	
0.8860	-6.03663	-7.19868	0	
0.8867	-4.51559	-6.27752	0	
0.8873	-5.13351	-6.58457	0	
0.8880	-4.20663	-9.94509	0	
0.8887	-1.47351	-14.2097	0	
0.8893	-3.89767	-17.5702	0	
0.8900	-6.03663	-18.4914	0	
0.8907	-2.99455	-15.745	0	
0.8913	-2.06766	-10.8662	0	
0.8920	-2.68559	-6.58457	0	
0.8927	0.356494	-3.83816	0	
0.8933	1.28338	2.57583	0	
0.8940	0.356494	18.7473	0	
0.8947	3.11338	31.5582	0	
0.8953	4.0165	25.7583	0	
0.8960	-0.546624	15.0797	0	
0.8967	-2.37663	12.6403	0	
0.8973	-0.237663	8.06866	0	
0.8980	1.59234	0.119409	0	
0.8987	3.7313	0.733514	0	
0.8993	5.5613	4.40109	0	
0.9000	4.94338	1.65467	0	
0.9007	3.7313	-2.31995	0	
0.9013	0.974417	-3.83816	0	
0.9020	-3.30351	-5.97047	0	
0.9027	-3.89767	-7.50573	0	
0.9033	-2.06766	-4.45226	0	
0.9040	-2.37663	-1.09174	0	
0.9047	0.0712988	-1.09174	0	
0.9053	4.32546	-2.62701	0	
0.9060	3.11338	-2.0129	0	
0.9067	-1.16455	-1.09174	0	
0.9073	-0.855585	-2.31995	0	
0.9080	1.59234	-0.78469	0	
0.9087	2.1865	2.57583	0	
0.9093	3.42234	0.119409	0	
0.9100	5.25234	-4.14521	0	
0.9107	3.11338	-3.83816	0	
0.9113	-0.546624	-2.917	0	
0.9120	-1.78247	-5.37342	0	
0.9127	1.59234	-2.917	0	
0.9133	4.94338	3.17288	0	
0.9140	4.63442	3.47993	0	
0.9147	4.32546	2.57583	0	
0.9153	7.39131	8.06866	0	
0.9160	7.98546	11.7192	0	
0.9167	4.32546	7.45455	0	
0.9173	3.7313	2.57583	0	
0.9180	6.46442	0.426462	0	
0.9187	6.46442	-1.39879	0	
0.9193	4.32546	-3.22405	0	
0.9200	3.7313	-3.83816	0	
0.9207	4.32546	-3.83816	0	
0.9213	4.0165	-3.5311	0	
0.9220	1.59234	-2.62701	0	
0.9227	-1.78247	-2.62701	0	
0.9233	-2.06766	-1.39879	0	
0.9240	-0.546624	1.65467	0	
0.9247	-0.855585	0.733514	0	
0.9253	-2.99455	-2.917	0	
0.9260	-6.34559	-1.70585	0	
0.9267	-6.65455	0.426462	0	
0.9273	-5.13351	-2.0129	0	
0.9280	-6.96351	-3.5311	0	
0.9287	-9.41144	-2.62701	0	
0.9293	-5.13351	-2.62701	0	
0.9300	0.0712988	-2.31995	0	
0.9307	-1.78247	-2.31995	0	
0.9313	-2.68559	-3.83816	0	
0.9320	0.0712988	-2.917	0	
0.9327	0.0712988	1.96172	0	
0.9333	0.665455	4.09403	0	
0.9340	2.80442	1.65467	0	
0.9347	2.49546	1.34762	0	
0.9353	1.59234	3.78698	0	
0.9360	3.11338	3.47993	0	
0.9367	1.28338	0.426462	0	
0.9373	-1.78247	0.733514	0	
0.9380	0.974417	2.57583	0	
0.9387	3.42234	-0.170585	0	
0.9393	2.1865	-2.0129	0	
0.9400	0.356494	-0.170585	0	
0.9407	-2.06766	0.426462	0	
0.9413	-5.13351	-2.0129	0	
0.9420	-5.13351	-3.5311	0	
0.9427	-4.51559	-1.70585	0	
0.9433	-6.96351	0.119409	0	
0.9440	-9.41144	-1.39879	0	
0.9447	-9.69663	-3.83816	0	
0.9453	-12.1446	-3.83816	0	
0.9460	-13.6656	-3.83816	0	
0.9467	-12.1446	-4.75931	0	
0.9473	-13.9746	-3.5311	0	
0.9480	-16.7314	-2.62701	0	
0.9487	-12.1446	-4.75931	0	
0.9493	-6.65455	-5.97047	0	
0.9500	-7.27248	-6.58457	0	
0.9507	-7.58144	-5.66341	0	
0.9513	-3.61247	-1.70585	0	
0.9520	0.665455	-0.78469	0	
0.9527	4.0165	-4.45226	0	
0.9533	9.53027	-2.917	0	
0.9540	12.2634	4.40109	0	
0.9547	9.53027	6.5334	0	
0.9553	7.39131	3.78698	0	
0.9560	10.1244	1.04057	0	
0.9567	13.1903	-2.0129	0	
0.9573	11.6455	-2.0129	0	
0.9580	10.1244	0.733514	0	
0.9587	9.53027	1.34762	0	
0.9593	6.77338	0.733514	0	
0.9600	4.32546	3.47993	0	
0.9607	5.25234	6.22634	0	
0.9613	5.25234	4.70814	0	
0.9620	3.42234	3.47993	0	
0.9627	1.59234	1.04057	0	
0.9633	-0.855585	-5.37342	0	
0.9640	-3.30351	-11.7703	0	
0.9647	-5.72767	-14.5168	0	
0.9653	-7.58144	-17.8773	0	
0.9660	-6.96351	-22.159	0	
0.9667	-8.48455	-22.159	0	
0.9673	-13.0714	-16.6661	0	
0.9680	-13.0714	-7.50573	0	
0.9687	-6.65455	-2.62701	0	
0.9693	-4.20663	-3.83816	0	
0.9700	-7.27248	-0.78469	0	
0.9707	-6.96351	11.7192	0	
0.9713	-2.68559	20.2655	0	
0.9720	-0.546624	18.7473	0	
0.9727	-1.16455	13.5615	0	
0.9733	-1.16455	7.1475	0	
0.9740	-0.546624	2.57583	0	
0.9747	-0.237663	5.61224	0	
0.9753	0.356494	9.58686	0	
0.9760	1.28338	7.1475	0	
0.9767	1.28338	4.09403	0	
0.9773	0.0712988	6.22634	0	
0.9780	0.665455	8.66571	0	
0.9787	1.9013	8.06866	0	
0.9793	0.665455	5.01519	0	
0.9800	-2.06766	1.04057	0	
0.9807	-2.37663	-0.170585	0	
0.9813	-2.06766	0.426462	0	
0.9820	-2.99455	-2.62701	0	
0.9827	-6.96351	-6.58457	0	
0.9833	-9.69663	-7.50573	0	
0.9840	-9.10248	-9.63804	0	
0.9847	-7.58144	-11.1562	0	
0.9853	-7.58144	-6.58457	0	
0.9860	-7.27248	-2.0129	0	
0.9867	-5.13351	-0.78469	0	
0.9873	-2.37663	1.65467	0	
0.9880	-0.546624	5.61224	0	
0.9887	-0.237663	6.5334	0	
0.9893	0.974417	3.47993	0	
0.9900	3.42234	0.426462	0	
0.9907	6.46442	-0.78469	0	
0.9913	7.08235	-0.477637	0	
0.9920	5.25234	-0.170585	0	
0.9927	7.08235	3.17288	0	
0.9933	11.9544	7.1475	0	
0.9940	10.7423	5.32224	0	
0.9947	3.42234	5.01519	0	
0.9953	1.59234	11.7192	0	
0.9960	4.32546	13.2544	0	
0.9967	4.32546	7.45455	0	
0.9973	2.80442	6.22634	0	
0.9980	3.42234	7.1475	0	
0.9987	4.0165	2.57583	0	
0.9993	2.49546	0.733514	0	
1.0000	1.59234	3.47993	0	
1.0007	2.1865	1.65467	0	
1.0013	1.28338	-2.31995	0	
1.0020	-1.16455	-2.0129	0	
1.0027	-0.855585	-1.09174	0	
1.0033	0.665455	-2.0129	0	
1.0040	-1.78247	-2.31995	0	
1.0047	-3.61247	-3.5311	0	
1.0053	-4.82455	-5.37342	0	
1.0060	-7.86663	-5.66341	0	
1.0067	-7.27248	-6.58457	0	
1.0073	-4.20663	-7.81278	0	
1.0080	-5.13351	-4.75931	0	
1.0087	-5.72767	-0.78469	0	
1.0093	-3.89767	-1.09174	0	
1.0100	-3.61247	-3.83816	0	
1.0107	-2.06766	-5.97047	0	
1.0113	1.28338	-6.89162	0	
1.0120	1.9013	-5.37342	0	
1.0127	1.9013	-1.09174	0	
1.0133	3.42234	1.65467	0	
1.0140	4.0165	0.119409	0	
1.0147	4.32546	-1.39879	0	
1.0153	4.32546	-0.170585	0	
1.0160	2.49546	1.65467	0	
1.0167	1.9013	4.09403	0	
1.0173	2.1865	5.32224	0	
1.0180	1.28338	4.40109	0	
1.0187	-0.237663	1.34762	0	
1.0193	-1.78247	-1.09174	0	
1.0200	-4.20663	-3.5311	0	
1.0207	-4.51559	-9.33099	0	
1.0213	-2.99455	-14.8238	0	
1.0220	-4.51559	-11.7703	0	
1.0227	-7.27248	-4.14521	0	
1.0233	-7.86663	-4.14521	0	
1.0240	-8.48455	-5.66341	0	
1.0247	-8.17559	0.426462	0	
1.0253	-6.34559	8.06866	0	
1.0260	-6.65455	12.6403	0	
1.0267	-6.65455	14.4656	0	
1.0273	-3.61247	9.27981	0	
1.0280	-1.16455	1.34762	0	
1.0287	-2.06766	0.426462	0	
1.0293	-2.37663	1.65467	0	
1.0300	-1.47351	-0.477637	0	
1.0307	-1.16455	-0.170585	0	
1.0313	-2.37663	0.733514	0	
1.0320	-3.89767	-3.83816	0	
1.0327	-4.51559	-8.71688	0	
1.0333	-3.89767	-10.2521	0	
1.0340	-2.68559	-10.5592	0	
1.0347	-2.06766	-8.40983	0	
1.0353	-2.99455	-3.83816	0	
1.0360	-3.30351	-2.31995	0	
1.0367	-0.237663	-3.83816	0	
1.0373	2.1865	-2.917	0	
1.0380	1.28338	1.65467	0	
1.0387	1.59234	8.97276	0	
1.0393	3.11338	15.3867	0	
1.0400	1.9013	14.1585	0	
1.0407	-1.16455	5.61224	0	
1.0413	1.28338	-0.170585	0	
1.0420	5.25234	-2.917	0	
1.0427	6.15546	-6.27752	0	
1.0433	5.25234	-9.94509	0	
1.0440	3.7313	-12.0774	0	
1.0447	2.1865	-12.3845	0	
1.0453	1.59234	-8.40983	0	
1.0460	2.49546	-5.06637	0	
1.0467	2.1865	-7.50573	0	
1.0473	-0.237663	-5.37342	0	
1.0480	-0.237663	7.76161	0	
1.0487	3.42234	17.212	0	
1.0493	4.94338	16.3079	0	
1.0500	2.80442	13.8515	0	
1.0507	2.49546	11.4121	0	
1.0513	3.42234	7.1475	0	
1.0520	1.59234	5.91929	0	
1.0527	-0.237663	7.1475	0	
1.0533	-0.237663	6.22634	0	
1.0540	-0.237663	5.91929	0	
1.0547	0.665455	6.22634	0	
1.0553	2.49546	4.40109	0	
1.0560	2.80442	1.65467	0	
1.0567	0.665455	-0.170585	0	
1.0573	-2.37663	0.733514	0	
1.0580	-5.72767	-0.170585	0	
1.0587	-7.58144	-3.5311	0	
1.0593	-7.58144	-2.62701	0	
1.0600	-7.58144	-0.170585	0	
1.0607	-6.65455	-2.917	0	
1.0613	-5.72767	-4.75931	0	
1.0620	-6.03663	-2.0129	0	
1.0627	-6.34559	-2.0129	0	
1.0633	-6.65455	-4.14521	0	
1.0640	-7.58144	-3.83816	0	
1.0647	-7.58144	-3.83816	0	
1.0653	-4.82455	-5.37342	0	
1.0660	-2.68559	-4.75931	0	
1.0667	-2.06766	-4.75931	0	
1.0673	-2.68559	-5.66341	0	
1.0680	-2.99455	-4.75931	0	
1.0687	0.665455	-4.14521	0	
1.0693	3.42234	-2.917	0	
1.0700	3.42234	-1.09174	0	
1.0707	5.25234	-2.0129	0	
1.0713	10.7423	-1.09174	0	
1.0720	12.2634	4.40109	0	
1.0727	10.1244	7.1475	0	
1.0733	9.81546	6.22634	0	
1.0740	11.3603	8.35865	0	
1.0747	12.2634	8.66571	0	
1.0753	10.1244	4.09403	0	
1.0760	6.46442	0.733514	0	
1.0767	4.94338	0.119409	0	
1.0773	5.8465	0.426462	0	
1.0780	5.8465	1.04057	0	
1.0787	4.32546	-0.170585	0	
1.0793	1.59234	-2.917	0	
1.0800	0.0712988	-3.22405	0	
1.0807	0.665455	-2.917	0	
1.0813	-0.855585	-3.83816	0	
1.0820	-3.89767	-4.75931	0	
1.0827	-4.51559	-5.06637	0	
1.0833	-3.61247	-4.45226	0	
1.0840	-2.99455	-2.917	0	
1.0847	-3.61247	-2.31995	0	
1.0853	-5.72767	-2.31995	0	
1.0860	-6.65455	-3.83816	0	
1.0867	-4.51559	-5.66341	0	
1.0873	-3.30351	-5.06637	0	
1.0880	-2.99455	-4.45226	0	
1.0887	-0.546624	-6.58457	0	
1.0893	2.1865	-5.97047	0	
1.0900	2.49546	-2.62701	0	
1.0907	2.1865	-2.917	0	
1.0913	1.28338	-2.917	0	
1.0920	-0.237663	0.733514	0	
1.0927	0.0712988	0.733514	0	
1.0933	1.59234	-1.39879	0	
1.0940	2.49546	1.34762	0	
1.0947	4.63442	4.40109	0	
1.0953	4.63442	2.26878	0	
1.0960	0.974417	0.426462	0	
1.0967	-1.78247	0.119409	0	
1.0973	0.356494	-1.09174	0	
1.0980	1.59234	-0.477637	0	
1.0987	-0.855585	2.57583	0	
1.0993	-1.47351	1.65467	0	
1.1000	0.974417	-2.31995	0	
1.1007	-0.237663	-2.62701	0	
1.1013	-5.13351	-1.39879	0	
1.1020	-6.65455	-4.45226	0	
1.1027	-4.82455	-8.71688	0	
1.1033	-4.51559	-9.94509	0	
1.1040	-6.03663	-11.1562	0	
1.1047	-8.79352	-12.6915	0	
1.1053	-9.41144	-10.8662	0	
1.1060	-9.41144	-7.50573	0	
1.1067	-11.2414	-7.81278	0	
1.1073	-10.6235	-8.71688	0	
1.1080	-2.99455	-5.06637	0	
1.1087	0.0712988	3.47993	0	
1.1093	-2.68559	11.4121	0	
1.1100	-1.47351	11.1051	0	
1.1107	1.28338	4.70814	0	
1.1113	-0.237663	4.40109	0	
1.1120	0.0712988	10.8151	0	
1.1127	2.49546	17.212	0	
1.1133	2.49546	19.9584	0	
1.1140	4.94338	17.212	0	
1.1147	8.29442	11.4121	0	
1.1153	8.91235	5.91929	0	
1.1160	9.22131	-0.170585	0	
1.1167	9.53027	-4.75931	0	
1.1173	8.60339	-5.66341	0	
1.1180	9.81546	-6.27752	0	
1.1187	9.81546	-9.02393	0	
1.1193	7.39131	-9.33099	0	
1.1200	7.08235	-9.94509	0	
1.1207	7.39131	-8.40983	0	
1.1213	4.32546	0.733514	0	
1.1220	3.11338	5.32224	0	
1.1227	4.32546	-0.170585	0	
1.1233	4.0165	1.96172	0	
1.1240	3.42234	10.8151	0	
1.1247	3.11338	9.27981	0	
1.1253	0.974417	1.96172	0	
1.1260	0.0712988	0.733514	0	
1.1267	2.49546	0.426462	0	
1.1273	2.49546	-0.477637	0	
1.1280	1.59234	1.96172	0	
1.1287	1.59234	5.32224	0	
1.1293	-2.99455	5.01519	0	
1.1300	-8.48455	2.26878	0	
1.1307	-6.65455	-0.477637	0	
1.1313	-3.89767	-0.477637	0	
1.1320	-4.51559	0.733514	0	
1.1327	-2.99455	1.96172	0	
1.1333	-1.16455	3.78698	0	
1.1340	-1.78247	4.40109	0	
1.1347	2.1865	4.09403	0	
1.1353	7.98546	3.47993	0	
1.1360	6.46442	2.57583	0	
1.1367	4.94338	3.17288	0	
1.1373	6.77338	6.22634	0	
1.1380	4.0165	5.32224	0	
1.1387	0.665455	0.426462	0	
1.1393	0.665455	-0.78469	0	
1.1400	-3.61247	4.40109	0	
1.1407	-11.8356	6.84045	0	
1.1413	-11.2414	2.57583	0	
1.1420	-6.03663	-2.0129	0	
1.1427	-6.34559	-2.917	0	
1.1433	-6.65455	-2.917	0	
1.1440	-2.99455	-3.22405	0	
1.1447	-3.30351	-2.917	0	
1.1453	-6.34559	-2.0129	0	
1.1460	-5.44247	-2.0129	0	
1.1467	-4.20663	-2.917	0	
1.1473	-5.72767	-4.14521	0	
1.1480	-5.13351	-5.06637	0	
1.1487	-2.99455	-3.83816	0	
1.1493	-3.89767	-2.917	0	
1.1500	-3.89767	-3.5311	0	
1.1507	-2.37663	-4.45226	0	
1.1513	-2.06766	-4.45226	0	
1.1520	-2.06766	-4.75931	0	
1.1527	-1.47351	-7.19868	0	
1.1533	-2.37663	-8.71688	0	
1.1540	-2.06766	-7.50573	0	
1.1547	-0.237663	-5.37342	0	
1.1553	0.356494	-4.45226	0	
1.1560	0.665455	-4.14521	0	
1.1567	1.28338	-1.70585	0	
1.1573	0.665455	3.47993	0	
1.1580	0.974417	5.61224	0	
1.1587	1.9013	2.57583	0	
1.1593	1.59234	2.26878	0	
1.1600	1.28338	5.01519	0	
1.1607	2.49546	3.47993	0	
1.1613	2.49546	-1.39879	0	
1.1620	1.59234	-2.31995	0	
1.1627	0.665455	-2.0129	0	
1.1633	0.356494	-2.62701	0	
1.1640	-1.16455	-2.0129	0	
1.1647	-3.89767	-3.83816	0	
1.1653	-5.72767	-11.7703	0	
1.1660	-5.72767	-18.4914	0	
1.1667	-5.72767	-18.1843	0	
1.1673	-6.65455	-13.9027	0	
1.1680	-6.96351	-11.1562	0	
1.1687	-6.65455	-7.50573	0	
1.1693	-6.34559	0.426462	0	
1.1700	-5.72767	7.45455	0	
1.1707	-4.20663	11.1051	0	
1.1713	-2.06766	15.0797	0	
1.1720	-1.16455	19.0543	0	
1.1727	-2.06766	19.0543	0	
1.1733	-1.16455	16.3079	0	
1.1740	0.665455	10.8151	0	
1.1747	0.665455	4.40109	0	
1.1753	0.665455	3.17288	0	
1.1760	1.28338	7.1475	0	
1.1767	1.28338	7.1475	0	
1.1773	0.356494	6.22634	0	
1.1780	-0.237663	8.97276	0	
1.1787	-2.68559	10.8151	0	
1.1793	-2.99455	8.66571	0	
1.1800	-0.237663	2.57583	0	
1.1807	-1.47351	-2.31995	0	
1.1813	-6.65455	-2.917	0	
1.1820	-5.72767	-3.83816	0	
1.1827	-3.30351	-5.97047	0	
1.1833	-6.65455	-2.917	0	
1.1840	-8.48455	0.733514	0	
1.1847	-6.34559	-3.83816	0	
1.1853	-6.65455	-5.37342	0	
1.1860	-8.79352	2.86582	0	
1.1867	-7.58144	8.35865	0	
1.1873	-4.82455	7.1475	0	
1.1880	-5.72767	4.40109	0	
1.1887	-7.58144	1.34762	0	
1.1893	-6.34559	0.119409	0	
1.1900	-2.99455	0.733514	0	
1.1907	-2.06766	-1.39879	0	
1.1913	-3.61247	-2.0129	0	
1.1920	-2.99455	-1.09174	0	
1.1927	-1.47351	-1.39879	0	
1.1933	-0.855585	-0.477637	0	
1.1940	0.356494	0.733514	0	
1.1947	2.49546	-2.0129	0	
1.1953	4.63442	-2.917	0	
1.1960	7.08235	1.34762	0	
1.1967	8.60339	2.57583	0	
1.1973	8.91235	0.733514	0	
1.1980	8.60339	-0.170585	0	
1.1987	7.98546	-1.09174	0	
1.1993	6.77338	-0.477637	0	
1.2000	5.25234	1.65467	0	
1.2007	2.80442	0.426462	0	
1.2013	1.59234	-3.22405	0	
1.2020	1.9013	-3.83816	0	
1.2027	0.356494	-4.45226	0	
1.2033	-2.06766	-6.58457	0	
1.2040	-1.78247	-6.58457	0	
1.2047	-2.06766	-6.27752	0	
1.2053	-6.65455	-8.71688	0	
1.2060	-10.9325	-9.33099	0	
1.2067	-11.2414	-6.58457	0	
1.2073	-12.1446	-4.75931	0	
1.2080	-11.2414	-5.37342	0	
1.2087	-7.58144	-4.75931	0	
1.2093	-4.51559	-3.83816	0	
1.2100	-2.99455	-3.5311	0	
1.2107	0.356494	-2.917	0	
1.2113	3.11338	-2.0129	0	
1.2120	4.0165	-1.39879	0	
1.2127	4.94338	0.733514	0	
1.2133	7.98546	3.17288	0	
1.2140	11.0513	3.47993	0	
1.2147	12.2634	2.86582	0	
1.2153	11.9544	2.86582	0	
1.2160	11.9544	2.57583	0	
1.2167	11.0513	0.733514	0	
1.2173	8.60339	-1.70585	0	
1.2180	6.15546	-1.09174	0	
1.2187	4.32546	3.78698	0	
1.2193	3.7313	8.06866	0	
1.2200	3.42234	5.61224	0	
1.2207	1.28338	3.47993	0	
1.2213	-1.47351	3.78698	0	
1.2220	-1.16455	1.34762	0	
1.2227	-1.16455	-2.0129	0	
1.2233	-2.99455	-1.09174	0	
1.2240	-3.89767	-0.78469	0	
1.2247	-3.89767	-3.22405	0	
1.2253	-2.68559	-3.83816	0	
1.2260	0.0712988	-3.83816	0	
1.2267	1.9013	-5.37342	0	
1.2273	2.1865	-2.0129	0	
1.2280	2.49546	0.733514	0	
1.2287	1.59234	-2.62701	0	
1.2293	-0.546624	-2.917	0	
1.2300	0.665455	0.426462	0	
1.2307	1.28338	-1.39879	0	
1.2313	-0.855585	-3.5311	0	
1.2320	-0.237663	-0.170585	0	
1.2327	1.28338	1.65467	0	
1.2333	-1.78247	-1.39879	0	
1.2340	-2.99455	-2.917	0	
1.2347	-1.16455	-2.62701	0	
1.2353	0.0712988	-2.31995	0	
1.2360	0.665455	-0.477637	0	
1.2367	1.9013	-0.170585	0	
1.2373	1.28338	-4.75931	0	
1.2380	1.59234	-5.06637	0	
1.2387	3.42234	-0.170585	0	
1.2393	2.80442	1.34762	0	
1.2400	-0.237663	-1.70585	0	
1.2407	-2.99455	-2.0129	0	
1.2413	-2.99455	-2.917	0	
1.2420	-2.68559	-5.06637	0	
1.2427	-4.82455	-3.22405	0	
1.2433	-9.41144	0.733514	0	
1.2440	-11.2414	-2.0129	0	
1.2447	-10.3146	-6.58457	0	
1.2453	-7.58144	-3.22405	0	
1.2460	-3.89767	3.17288	0	
1.2467	-2.99455	4.40109	0	
1.2473	-3.30351	1.96172	0	
1.2480	-1.16455	-2.62701	0	
1.2487	1.59234	-10.2521	0	
1.2493	2.49546	-14.8238	0	
1.2500	4.32546	-10.5592	0	
1.2507	5.8465	-3.83816	0	
1.2513	5.25234	-2.0129	0	
1.2520	4.32546	-2.917	0	
1.2527	4.32546	-2.0129	0	
1.2533	5.25234	1.96172	0	
1.2540	6.77338	6.84045	0	
1.2547	7.08235	8.35865	0	
1.2553	6.77338	4.09403	0	
1.2560	6.15546	-3.22405	0	
1.2567	3.42234	-6.58457	0	
1.2573	1.9013	-2.917	0	
1.2580	2.49546	3.17288	0	
1.2587	3.11338	4.09403	0	
1.2593	2.49546	0.733514	0	
1.2600	1.9013	1.96172	0	
1.2607	0.356494	8.35865	0	
1.2613	0.0712988	13.5615	0	
1.2620	-0.237663	13.2544	0	
1.2627	-2.99455	10.508	0	
1.2633	-6.65455	8.97276	0	
1.2640	-7.58144	8.97276	0	
1.2647	-7.58144	6.22634	0	
1.2653	-8.17559	2.57583	0	
1.2660	-10.3146	1.65467	0	
1.2667	-13.3566	1.65467	0	
1.2673	-13.0714	2.86582	0	
1.2680	-7.86663	5.32224	0	
1.2687	-5.44247	4.40109	0	
1.2693	-7.27248	1.34762	0	
1.2700	-8.17559	-0.170585	0	
1.2707	-6.34559	-1.70585	0	
1.2713	-4.82455	-2.917	0	
1.2720	-3.61247	-3.83816	0	
1.2727	-0.855585	-6.58457	0	
1.2733	2.49546	-8.11983	0	
1.2740	4.0165	-4.14521	0	
1.2747	1.9013	-1.39879	0	
1.2753	1.59234	0.733514	0	
1.2760	5.5613	7.76161	0	
1.2767	7.08235	12.0262	0	
1.2773	3.11338	7.76161	0	
1.2780	1.28338	1.65467	0	
1.2787	2.49546	-2.62701	0	
1.2793	3.7313	-5.06637	0	
1.2800	4.63442	-1.70585	0	
1.2807	4.32546	4.40109	0	
1.2813	2.80442	5.32224	0	
1.2820	4.94338	4.40109	0	
1.2827	6.77338	2.26878	0	
1.2833	3.7313	-2.917	0	
1.2840	2.49546	-5.66341	0	
1.2847	4.63442	-5.06637	0	
1.2853	3.7313	-6.89162	0	
1.2860	1.59234	-9.94509	0	
1.2867	1.9013	-9.02393	0	
1.2873	2.80442	-6.58457	0	
1.2880	1.9013	-4.45226	0	
1.2887	1.28338	-1.39879	0	
1.2893	2.49546	1.04057	0	
1.2900	2.80442	1.96172	0	
1.2907	2.49546	3.47993	0	
1.2913	1.59234	5.32224	0	
1.2920	0.665455	5.91929	0	
1.2927	-0.237663	5.61224	0	
1.2933	0.665455	6.5334	0	
1.2940	2.49546	7.1475	0	
1.2947	3.42234	6.84045	0	
1.2953	2.49546	6.84045	0	
1.2960	2.1865	6.84045	0	
1.2967	1.28338	4.70814	0	
1.2973	0.0712988	1.96172	0	
1.2980	-1.47351	1.65467	0	
1.2987	-3.89767	0.733514	0	
1.2993	-3.89767	-2.62701	0	
1.3000	-1.16455	-2.917	0	
1.3007	-0.237663	-2.917	0	
1.3013	-1.78247	-7.19868	0	
1.3020	-3.61247	-10.2521	0	
1.3027	-4.82455	-8.40983	0	
1.3033	-5.72767	-7.19868	0	
1.3040	-5.72767	-6.58457	0	
1.3047	-5.44247	-3.83816	0	
1.3053	-6.03663	-1.09174	0	
1.3060	-5.72767	0.426462	0	
1.3067	-2.68559	1.96172	0	
1.3073	-2.06766	2.26878	0	
1.3080	-5.44247	0.119409	0	
1.3087	-5.72767	-1.39879	0	
1.3093	-1.16455	-1.09174	0	
1.3100	0.0712988	-1.09174	0	
1.3107	-0.237663	-1.09174	0	
1.3113	1.59234	-1.39879	0	
1.3120	0.974417	-1.09174	0	
1.3127	-2.68559	1.34762	0	
1.3133	-0.546624	2.57583	0	
1.3140	4.32546	-1.09174	0	
1.3147	2.49546	-4.14521	0	
1.3153	-0.237663	-2.31995	0	
1.3160	2.49546	0.426462	0	
1.3167	5.25234	-1.70585	0	
1.3173	4.32546	-3.5311	0	
1.3180	4.0165	-3.83816	0	
1.3187	4.32546	-8.71688	0	
1.3193	0.974417	-17.5702	0	
1.3200	-2.99455	-22.449	0	
1.3207	-2.68559	-22.449	0	
1.3213	-2.99455	-19.4125	0	
1.3220	-5.44247	-12.9986	0	
1.3227	-4.82455	-4.75931	0	
1.3233	-2.99455	1.04057	0	
1.3240	-5.44247	8.06866	0	
1.3247	-6.96351	16.615	0	
1.3253	-4.82455	19.9584	0	
1.3260	-4.51559	15.3867	0	
1.3267	-6.34559	5.91929	0	
1.3273	-5.13351	-4.75931	0	
1.3280	-3.61247	-9.33099	0	
1.3287	-3.89767	-4.14521	0	
1.3293	-2.06766	-0.170585	0	
1.3300	-1.47351	-3.83816	0	
1.3307	-2.06766	-4.45226	0	
1.3313	1.59234	1.65467	0	
1.3320	4.32546	9.27981	0	
1.3327	2.49546	14.1585	0	
1.3333	4.32546	15.0797	0	
1.3340	10.7423	10.508	0	
1.3347	11.9544	4.70814	0	
1.3353	8.91235	3.78698	0	
1.3360	8.29442	4.40109	0	
1.3367	8.60339	3.17288	0	
1.3373	8.29442	3.17288	0	
1.3380	8.29442	6.22634	0	
1.3387	7.98546	6.84045	0	
1.3393	6.77338	2.57583	0	
1.3400	4.63442	1.04057	0	
1.3407	1.59234	2.57583	0	
1.3413	0.356494	-0.170585	0	
1.3420	1.28338	-2.917	0	
1.3427	-0.855585	-1.09174	0	
1.3433	-5.13351	0.733514	0	
1.3440	-6.65455	-1.09174	0	
1.3447	-5.72767	-3.83816	0	
1.3453	-6.03663	-4.75931	0	
1.3460	-6.65455	-3.5311	0	
1.3467	-6.34559	-2.62701	0	
1.3473	-5.72767	-5.97047	0	
1.3480	-5.72767	-6.58457	0	
1.3487	-5.44247	1.04057	0	
1.3493	-1.78247	5.01519	0	
1.3500	1.9013	-1.70585	0	
1.3507	-0.237663	-5.37342	0	
1.3513	-3.30351	-3.22405	0	
1.3520	-0.855585	-2.62701	0	
1.3527	3.42234	-2.0129	0	
1.3533	4.94338	2.26878	0	
1.3540	6.46442	3.78698	0	
1.3547	7.70027	0.733514	0	
1.3553	8.60339	-0.170585	0	
1.3560	8.91235	2.57583	0	
1.3567	6.15546	4.40109	0	
1.3573	3.42234	1.65467	0	
1.3580	4.94338	0.733514	0	
1.3587	5.25234	3.17288	0	
1.3593	3.11338	3.47993	0	
1.3600	2.49546	1.34762	0	
1.3607	1.28338	-2.0129	0	
1.3613	-2.99455	-3.83816	0	
1.3620	-6.34559	-2.0129	0	
1.3627	-9.41144	-2.62701	0	
1.3633	-11.2414	-7.50573	0	
1.3640	-8.48455	-4.75931	0	
1.3647	-6.65455	5.32224	0	
1.3653	-9.41144	6.22634	0	
1.3660	-10.3146	-0.78469	0	
1.3667	-7.86663	-2.62701	0	
1.3673	-7.27248	-2.31995	0	
1.3680	-7.86663	-4.75931	0	
1.3687	-6.65455	-4.45226	0	
1.3693	-6.65455	-2.31995	0	
1.3700	-8.48455	-2.917	0	
1.3707	-8.48455	-4.14521	0	
1.3713	-6.65455	-3.83816	0	
1.3720	-5.44247	-4.45226	0	
1.3727	-4.20663	-4.14521	0	
1.3733	-1.78247	-1.39879	0	
1.3740	-0.855585	2.57583	0	
1.3747	0.0712988	3.47993	0	
1.3753	3.11338	1.04057	0	
1.3760	6.15546	-2.0129	0	
1.3767	6.77338	-2.62701	0	
1.3773	6.77338	-1.70585	0	
1.3780	7.08235	-1.09174	0	
1.3787	6.46442	-1.09174	0	
1.3793	4.63442	-1.09174	0	
1.3800	2.80442	-1.09174	0	
1.3807	3.11338	-2.31995	0	
1.3813	3.42234	-3.83816	0	
1.3820	0.665455	-4.45226	0	
1.3827	-1.16455	-3.83816	0	
1.3833	0.665455	-3.5311	0	
1.3840	1.59234	-2.917	0	
1.3847	-0.546624	-2.62701	0	
1.3853	-1.16455	-2.0129	0	
1.3860	0.665455	-0.78469	0	
1.3867	1.59234	0.733514	0	
1.3873	0.356494	0.119409	0	
1.3880	-0.546624	2.57583	0	
1.3887	1.28338	6.84045	0	
1.3893	2.80442	4.40109	0	
1.3900	3.11338	-2.917	0	
1.3907	3.42234	-3.83816	0	
1.3913	2.49546	-1.39879	0	
1.3920	-0.546624	-2.0129	0	
1.3927	-2.68559	-1.39879	0	
1.3933	-2.06766	1.65467	0	
1.3940	-1.47351	3.17288	0	
1.3947	-1.16455	4.40109	0	
1.3953	-0.237663	9.89392	0	
1.3960	1.28338	15.6938	0	
1.3967	2.49546	15.6938	0	
1.3973	2.1865	10.8151	0	
1.3980	1.28338	3.47993	0	
1.3987	2.1865	-5.66341	0	
1.3993	1.9013	-12.9986	0	
1.4000	-0.546624	-12.3845	0	
1.4007	-1.47351	-10.8662	0	
1.4013	0.0712988	-13.6127	0	
1.4020	0.0712988	-12.6915	0	
1.4027	-0.237663	-3.83816	0	
1.4033	0.0712988	5.32224	0	
1.4040	-1.78247	7.76161	0	
1.4047	-3.89767	5.32224	0	
1.4053	-3.61247	3.17288	0	
1.4060	-3.61247	7.45455	0	
1.4067	-4.82455	12.6403	0	
1.4073	-5.13351	10.8151	0	
1.4080	-4.82455	7.45455	0	
1.4087	-6.65455	4.09403	0	
1.4093	-8.17559	-1.09174	0	
1.4100	-6.65455	-1.09174	0	
1.4107	-5.72767	2.57583	0	
1.4113	-7.86663	1.04057	0	
1.4120	-9.41144	-0.78469	0	
1.4127	-8.48455	0.119409	0	
1.4133	-6.96351	-2.917	0	
1.4140	-6.03663	-5.06637	0	
1.4147	-5.13351	-2.31995	0	
1.4153	-3.30351	-2.917	0	
1.4160	-2.06766	-4.14521	0	
1.4167	-2.99455	-1.70585	0	
1.4173	-2.99455	-1.70585	0	
1.4180	0.0712988	-3.83816	0	
1.4187	2.1865	-1.09174	0	
1.4193	1.9013	1.96172	0	
1.4200	3.42234	0.426462	0	
1.4207	6.77338	-1.39879	0	
1.4213	9.81546	-2.0129	0	
1.4220	11.0513	-2.0129	0	
1.4227	9.81546	-1.09174	0	
1.4233	7.08235	-2.62701	0	
1.4240	5.25234	-4.14521	0	
1.4247	4.0165	-3.22405	0	
1.4253	2.1865	-3.22405	0	
1.4260	0.356494	-5.66341	0	
1.4267	-0.237663	-5.06637	0	
1.4273	0.665455	-2.917	0	
1.4280	1.28338	-3.22405	0	
1.4287	1.59234	-4.14521	0	
1.4293	2.1865	-3.83816	0	
1.4300	2.1865	-2.0129	0	
1.4307	0.974417	3.47993	0	
1.4313	1.59234	7.45455	0	
1.4320	3.7313	4.70814	0	
1.4327	5.25234	1.65467	0	
1.4333	6.15546	3.17288	0	
1.4340	7.39131	3.47993	0	
1.4347	7.08235	-1.09174	0	
1.4353	7.39131	-2.917	0	
1.4360	7.70027	-0.78469	0	
1.4367	4.94338	1.04057	0	
1.4373	2.1865	-1.09174	0	
1.4380	1.9013	-3.83816	0	
1.4387	2.49546	-1.09174	0	
1.4393	1.9013	3.47993	0	
1.4400	1.9013	1.65467	0	
1.4407	1.59234	-0.78469	0	
1.4413	-0.546624	0.733514	0	
1.4420	-2.06766	-0.78469	0	
1.4427	-1.47351	-2.917	0	
1.4433	-1.16455	-0.477637	0	
1.4440	-0.546624	-1.09174	0	
1.4447	-0.237663	-4.45226	0	
1.4453	-1.78247	-2.0129	0	
1.4460	-4.51559	1.65467	0	
1.4467	-6.65455	0.733514	0	
1.4473	-7.58144	1.34762	0	
1.4480	-7.27248	1.65467	0	
1.4487	-7.58144	-1.39879	0	
1.4493	-6.34559	-2.31995	0	
1.4500	-3.61247	-1.70585	0	
1.4507	-4.20663	-2.62701	0	
1.4513	-5.72767	-3.22405	0	
1.4520	-3.89767	-3.5311	0	
1.4527	-2.99455	-2.31995	0	
1.4533	-5.72767	0.119409	0	
1.4540	-4.82455	-1.39879	0	
1.4547	-2.99455	-2.917	0	
1.4553	-4.82455	3.78698	0	
1.4560	-5.13351	10.8151	0	
1.4567	-2.68559	7.1475	0	
1.4573	-1.78247	1.34762	0	
1.4580	-1.16455	2.57583	0	
1.4587	-0.237663	6.5334	0	
1.4593	-0.237663	6.5334	0	
1.4600	0.0712988	3.17288	0	
1.4607	0.0712988	1.04057	0	
1.4613	-2.06766	-1.39879	0	
1.4620	-4.20663	-6.27752	0	
1.4627	-4.51559	-8.40983	0	
1.4633	-6.03663	-7.81278	0	
1.4640	-9.41144	-9.94509	0	
1.4647	-9.41144	-9.33099	0	
1.4653	-6.65455	-4.75931	0	
1.4660	-5.44247	-4.75931	0	
1.4667	-5.13351	-6.27752	0	
1.4673	-1.47351	-1.09174	0	
1.4680	1.59234	2.57583	0	
1.4687	1.59234	0.119409	0	
1.4693	1.59234	-0.78469	0	
1.4700	2.49546	1.34762	0	
1.4707	3.11338	2.26878	0	
1.4713	4.0165	1.04057	0	
1.4720	5.25234	-2.0129	0	
1.4727	5.25234	-2.0129	0	
1.4733	4.94338	2.86582	0	
1.4740	7.39131	6.5334	0	
1.4747	10.1244	6.22634	0	
1.4753	8.91235	6.5334	0	
1.4760	4.94338	7.1475	0	
1.4767	3.7313	5.32224	0	
1.4773	4.32546	3.47993	0	
1.4780	1.59234	3.78698	0	
1.4787	-2.68559	2.57583	0	
1.4793	-3.89767	-3.5311	0	
1.4800	-3.61247	-9.02393	0	
1.4807	-2.37663	-10.5592	0	
1.4813	-0.546624	-8.71688	0	
1.4820	-1.16455	-7.50573	0	
1.4827	-4.82455	-9.94509	0	
1.4833	-6.96351	-11.7703	0	
1.4840	-7.86663	-5.37342	0	
1.4847	-9.10248	5.32224	0	
1.4853	-8.79352	8.97276	0	
1.4860	-7.58144	3.78698	0	
1.4867	-6.65455	-2.0129	0	
1.4873	-5.72767	-2.0129	0	
1.4880	-5.72767	4.09403	0	
1.4887	-5.72767	12.6403	0	
1.4893	-2.99455	14.4656	0	
1.4900	1.59234	7.45455	0	
1.4907	2.49546	2.26878	0	
1.4913	1.59234	3.47993	0	
1.4920	2.49546	3.47993	0	
1.4927	2.80442	-0.170585	0	
1.4933	2.49546	-1.09174	0	
1.4940	2.49546	0.426462	0	
1.4947	1.59234	-0.170585	0	
1.4953	0.974417	1.34762	0	
1.4960	1.9013	3.17288	0	
1.4967	1.28338	-1.39879	0	
1.4973	-2.06766	-7.50573	0	
1.4980	-4.82455	-8.40983	0	
1.4987	-4.82455	-9.02393	0	
1.4993	-4.20663	-12.3845	0	
1.5000	-5.72767	-12.3845	0	
1.5007	-6.65455	-4.45226	0	
1.5013	-5.44247	4.09403	0	
1.5020	-4.20663	5.01519	0	
1.5027	-4.82455	-0.170585	0	
1.5033	-5.44247	-3.83816	0	
1.5040	-6.34559	-4.45226	0	
1.5047	-5.13351	-5.37342	0	
1.5053	-2.06766	-7.50573	0	
1.5060	-0.546624	-9.02393	0	
1.5067	0.974417	-7.81278	0	
1.5073	3.42234	-3.83816	0	
1.5080	4.63442	-1.70585	0	
1.5087	4.32546	-2.62701	0	
1.5093	4.32546	-2.0129	0	
1.5100	5.8465	2.86582	0	
1.5107	7.08235	6.22634	0	
1.5113	5.25234	5.32224	0	
1.5120	0.974417	2.26878	0	
1.5127	-0.237663	0.733514	0	
1.5133	2.49546	0.733514	0	
1.5140	5.25234	-0.477637	0	
1.5147	7.70027	-3.22405	0	
1.5153	7.98546	-3.5311	0	
1.5160	4.0165	-1.09174	0	
1.5167	1.9013	-0.477637	0	
1.5173	3.7313	-2.31995	0	
1.5180	2.49546	-2.917	0	
1.5187	-1.16455	-1.70585	0	
1.5193	-0.237663	2.57583	0	
1.5200	0.665455	7.1475	0	
1.5207	-2.06766	5.32224	0	
1.5213	-2.68559	-0.477637	0	
1.5220	-1.78247	-1.09174	0	
1.5227	-2.06766	1.34762	0	
1.5233	-2.37663	-0.170585	0	
1.5240	-3.30351	-2.31995	0	
1.5247	-4.82455	-0.78469	0	
1.5253	-5.44247	-0.477637	0	
1.5260	-5.72767	-2.917	0	
1.5267	-6.65455	-3.5311	0	
1.5273	-5.44247	-2.917	0	
1.5280	-4.82455	-3.83816	0	
1.5287	-7.58144	-2.31995	0	
1.5293	-7.86663	1.96172	0	
1.5300	-3.61247	1.34762	0	
1.5307	-2.06766	-2.31995	0	
1.5313	-5.13351	-1.09174	0	
1.5320	-4.82455	1.65467	0	
1.5327	-1.78247	-0.477637	0	
1.5333	-3.30351	-1.39879	0	
1.5340	-4.20663	2.57583	0	
1.5347	-0.237663	2.57583	0	
1.5353	2.49546	-3.83816	0	
1.5360	0.974417	-5.97047	0	
1.5367	0.665455	-5.97047	0	
1.5373	2.49546	-9.63804	0	
1.5380	3.42234	-8.71688	0	
1.5387	4.94338	1.34762	0	
1.5393	6.15546	7.1475	0	
1.5400	6.15546	4.40109	0	
1.5407	6.46442	5.32224	0	
1.5413	7.08235	8.97276	0	
1.5420	5.8465	9.58686	0	
1.5427	4.63442	8.97276	0	
1.5433	5.25234	7.1475	0	
1.5440	5.25234	3.47993	0	
1.5447	4.63442	2.57583	0	
1.5453	3.7313	1.65467	0	
1.5460	2.49546	-1.09174	0	
1.5467	1.28338	-0.78469	0	
1.5473	-0.237663	2.26878	0	
1.5480	-1.16455	1.65467	0	
1.5487	0.974417	-0.170585	0	
1.5493	2.1865	0.426462	0	
1.5500	-2.06766	0.733514	0	
1.5507	-5.44247	1.04057	0	
1.5513	-2.99455	0.733514	0	
1.5520	-0.237663	1.04057	0	
1.5527	-1.16455	3.47993	0	
1.5533	-3.30351	3.47993	0	
1.5540	-4.51559	-0.477637	0	
1.5547	-3.30351	-3.5311	0	
1.5553	-1.16455	-5.37342	0	
1.5560	2.1865	-8.71688	0	
1.5567	6.77338	-7.81278	0	
1.5573	8.91235	-2.0129	0	
1.5580	7.08235	-1.09174	0	
1.5587	6.46442	-3.83816	0	
1.5593	7.98546	-5.97047	0	
1.5600	7.39131	-9.02393	0	
1.5607	4.32546	-8.11983	0	
1.5613	3.42234	1.65467	0	
1.5620	5.5613	8.97276	0	
1.5627	6.46442	4.40109	0	
1.5633	4.63442	-1.39879	0	
1.5640	2.80442	1.34762	0	
1.5647	-0.237663	6.84045	0	
1.5653	-3.89767	11.7192	0	
1.5660	-2.99455	15.3867	0	
1.5667	-0.237663	12.3333	0	
1.5673	-1.78247	5.32224	0	
1.5680	-2.37663	3.47993	0	
1.5687	-1.47351	4.40109	0	
1.5693	-2.06766	2.86582	0	
1.5700	-1.47351	1.65467	0	
1.5707	1.59234	2.26878	0	
1.5713	1.59234	-0.170585	0	
1.5720	-0.237663	-4.14521	0	
1.5727	-1.16455	-4.75931	0	
1.5733	-1.16455	-4.45226	0	
1.5740	0.665455	-6.58457	0	
1.5747	4.32546	-5.97047	0	
1.5753	5.25234	-2.0129	0	
1.5760	5.25234	-0.477637	0	
1.5767	5.8465	-3.83816	0	
1.5773	4.32546	-5.66341	0	
1.5780	2.49546	-1.09174	0	
1.5787	0.665455	5.61224	0	
1.5793	-0.237663	5.01519	0	
1.5800	-0.237663	-0.170585	0	
1.5807	-0.855585	1.96172	0	
1.5813	-3.30351	6.5334	0	
1.5820	-3.89767	2.86582	0	
1.5827	-2.99455	-1.09174	0	
1.5833	-6.34559	3.78698	0	
1.5840	-10.3146	8.06866	0	
1.5847	-11.8356	6.22634	0	
1.5853	-11.2414	2.86582	0	
1.5860	-8.48455	1.04057	0	
1.5867	-5.44247	-0.477637	0	
1.5873	-4.51559	-2.0129	0	
1.5880	-3.89767	-2.0129	0	
1.5887	-2.99455	-1.70585	0	
1.5893	-3.61247	-3.83816	0	
1.5900	-3.89767	-5.66341	0	
1.5907	-2.37663	-3.83816	0	
1.5913	-0.546624	-2.31995	0	
1.5920	-0.855585	-10.2521	0	
1.5927	-3.61247	-21.5449	0	
1.5933	-5.72767	-21.2378	0	
1.5940	-3.30351	-9.33099	0	
1.5947	0.0712988	0.426462	0	
1.5953	0.356494	0.733514	0	
1.5960	-1.78247	-1.70585	0	
1.5967	-2.06766	-1.70585	0	
1.5973	-0.855585	3.17288	0	
1.5980	0.356494	14.7726	0	
1.5987	-2.06766	23.3189	0	
1.5993	-4.82455	16.9049	0	
1.6000	-3.89767	4.40109	0	
1.6007	-2.99455	-0.170585	0	
1.6013	-4.82455	0.119409	0	
1.6020	-6.96351	-1.09174	0	
1.6027	-7.27248	1.04057	0	
1.6033	-6.34559	6.84045	0	
1.6040	-6.34559	8.06866	0	
1.6047	-7.58144	2.86582	0	
1.6053	-7.86663	-2.62701	0	
1.6060	-5.44247	-2.917	0	
1.6067	-4.20663	-2.0129	0	
1.6073	-4.20663	-4.45226	0	
1.6080	-2.06766	-8.11983	0	
1.6087	0.356494	-7.19868	0	
1.6093	0.0712988	-6.58457	0	
1.6100	-0.237663	-9.33099	0	
1.6107	1.28338	-7.50573	0	
1.6113	3.7313	-2.917	0	
1.6120	6.15546	-3.83816	0	
1.6127	6.77338	-2.917	0	
1.6133	7.39131	4.40109	0	
1.6140	8.91235	-0.477637	0	
1.6147	8.91235	-22.159	0	
1.6153	8.91235	-37.7163	0	
1.6160	9.81546	-35.891	0	
1.6167	7.98546	-29.477	0	
1.6173	5.5613	-25.1954	0	
1.6180	4.94338	-16.3591	0	
1.6187	4.0165	-1.09174	0	
1.6193	3.42234	14.7726	0	
1.6200	4.0165	22.1078	0	
1.6207	2.49546	23.0119	0	
1.6213	1.59234	28.1977	0	
1.6220	2.49546	34.3046	0	
1.6227	1.28338	27.6006	0	
1.6233	-1.47351	18.1332	0	
1.6240	-2.37663	20.5725	0	
1.6247	-4.82455	22.7048	0	
1.6253	-6.96351	13.8515	0	
1.6260	-5.13351	4.70814	0	
1.6267	-4.51559	2.26878	0	
1.6273	-5.72767	1.96172	0	
1.6280	-5.44247	1.96172	0	
1.6287	-5.72767	0.119409	0	
1.6293	-4.82455	-0.78469	0	
1.6300	-0.237663	4.70814	0	
1.6307	1.9013	12.0262	0	
1.6313	1.59234	12.0262	0	
1.6320	3.42234	6.22634	0	
1.6327	4.32546	2.57583	0	
1.6333	2.49546	1.96172	0	
1.6340	1.9013	0.733514	0	
1.6347	4.0165	-1.39879	0	
1.6353	8.29442	-2.62701	0	
1.6360	9.53027	-2.917	0	
1.6367	6.46442	-1.70585	0	
1.6373	5.5613	-0.170585	0	
1.6380	7.08235	-1.09174	0	
1.6387	5.8465	-3.5311	0	
1.6393	6.15546	-2.31995	0	
1.6400	8.91235	-0.170585	0	
1.6407	4.94338	0.426462	0	
1.6413	-0.237663	0.733514	0	
1.6420	0.0712988	-0.170585	0	
1.6427	0.665455	-2.0129	0	
1.6433	-0.855585	-3.22405	0	
1.6440	-1.16455	-4.75931	0	
1.6447	-5.13351	-7.50573	0	
1.6453	-10.3146	-9.94509	0	
1.6460	-9.41144	-10.2521	0	
1.6467	-10.0056	-8.11983	0	
1.6473	-12.4535	-6.58457	0	
1.6480	-10.0056	-8.11983	0	
1.6487	-8.48455	-7.81278	0	
1.6493	-9.69663	-3.83816	0	
1.6500	-6.34559	-2.31995	0	
1.6507	-3.89767	-3.5311	0	
1.6513	-6.65455	-2.917	0	
1.6520	-5.13351	-4.14521	0	
1.6527	-2.06766	-5.37342	0	
1.6533	-3.89767	-0.78469	0	
1.6540	-5.13351	1.65467	0	
1.6547	-5.13351	-2.917	0	
1.6553	-6.34559	-2.62701	0	
1.6560	-4.82455	3.17288	0	
1.6567	-3.89767	2.86582	0	
1.6573	-4.82455	-0.170585	0	
1.6580	-3.61247	-0.477637	0	
1.6587	-0.546624	-1.09174	0	
1.6593	1.59234	-2.0129	0	
1.6600	4.32546	-0.477637	0	
1.6607	5.8465	0.119409	0	
1.6613	4.32546	-1.09174	0	
1.6620	4.63442	-0.78469	0	
1.6627	6.15546	0.119409	0	
1.6633	5.25234	-2.62701	0	
1.6640	4.32546	-4.75931	0	
1.6647	2.49546	-2.62701	0	
1.6653	-0.237663	-0.78469	0	
1.6660	-1.47351	-1.70585	0	
1.6667	0.0712988	-1.09174	0	
1.6673	1.59234	0.426462	0	
1.6680	2.49546	1.04057	0	
1.6687	3.11338	2.86582	0	
1.6693	2.80442	3.78698	0	
1.6700	2.49546	2.57583	0	
1.6707	2.49546	1.04057	0	
1.6713	2.49546	-2.31995	0	
1.6720	0.356494	-4.45226	0	
1.6727	-0.237663	-2.917	0	
1.6733	3.42234	-3.83816	0	
1.6740	6.77338	-6.58457	0	
1.6747	5.25234	-3.83816	0	
1.6753	3.7313	-6.27752	0	
1.6760	3.7313	-16.6661	0	
1.6767	3.42234	-17.2632	0	
1.6773	2.49546	-5.66341	0	
1.6780	1.28338	4.09403	0	
1.6787	-2.99455	10.508	0	
1.6793	-6.65455	14.4656	0	
1.6800	-7.58144	13.2544	0	
1.6807	-6.03663	13.5615	0	
1.6813	-3.61247	17.212	0	
1.6820	-1.16455	13.8515	0	
1.6827	-1.78247	5.91929	0	
1.6833	-3.30351	2.57583	0	
1.6840	-2.37663	0.733514	0	
1.6847	-2.06766	-2.62701	0	
1.6853	-2.99455	-2.917	0	
1.6860	-2.06766	-1.70585	0	
1.6867	0.665455	-3.83816	0	
1.6873	2.49546	-6.27752	0	
1.6880	4.0165	-5.66341	0	
1.6887	4.32546	-3.83816	0	
1.6893	4.0165	-2.62701	0	
1.6900	4.63442	-0.170585	0	
1.6907	4.0165	2.57583	0	
1.6913	1.59234	4.40109	0	
1.6920	0.665455	5.01519	0	
1.6927	0.0712988	3.47993	0	
1.6933	-0.546624	1.34762	0	
1.6940	1.59234	-0.477637	0	
1.6947	4.32546	-0.170585	0	
1.6953	3.42234	1.34762	0	
1.6960	2.49546	0.426462	0	
1.6967	3.42234	-1.09174	0	
1.6973	2.49546	-0.477637	0	
1.6980	-0.237663	-1.09174	0	
1.6987	-0.855585	-4.75931	0	
1.6993	-0.546624	-8.40983	0	
1.7000	-1.78247	-10.8662	0	
1.7007	-2.99455	-13.6127	0	
1.7013	-3.30351	-16.052	0	
1.7020	-1.16455	-18.4914	0	
1.7027	0.974417	-17.5702	0	
1.7033	-1.16455	-8.40983	0	
1.7040	-6.65455	2.57583	0	
1.7047	-9.10248	5.01519	0	
1.7053	-7.58144	5.01519	0	
1.7060	-7.58144	9.89392	0	
1.7067	-7.58144	11.7192	0	
1.7073	-4.82455	8.06866	0	
1.7080	-4.20663	5.32224	0	
1.7087	-5.72767	2.57583	0	
1.7093	-3.89767	-1.09174	0	
1.7100	-1.16455	-0.78469	0	
1.7107	-1.16455	1.34762	0	
1.7113	-1.16455	-0.170585	0	
1.7120	-1.16455	-0.78469	0	
1.7127	-3.61247	3.47993	0	
1.7133	-3.30351	6.22634	0	
1.7140	-1.16455	4.70814	0	
1.7147	-1.16455	1.65467	0	
1.7153	-0.546624	-1.09174	0	
1.7160	1.28338	-0.170585	0	
1.7167	0.0712988	2.57583	0	
1.7173	-0.855585	1.96172	0	
1.7180	0.665455	0.426462	0	
1.7187	1.59234	1.96172	0	
1.7193	1.59234	1.34762	0	
1.7200	2.49546	-0.477637	0	
1.7207	1.59234	1.65467	0	
1.7213	-1.16455	2.26878	0	
1.7220	-0.237663	-2.31995	0	
1.7227	3.11338	-5.66341	0	
1.7233	3.42234	-7.50573	0	
1.7240	3.42234	-10.2521	0	
1.7247	4.32546	-9.63804	0	
1.7253	3.42234	-6.89162	0	
1.7260	1.59234	-6.58457	0	
1.7267	-0.546624	-7.81278	0	
1.7273	-2.37663	-7.50573	0	
1.7280	-2.37663	-2.62701	0	
1.7287	-0.237663	5.91929	0	
1.7293	0.0712988	8.06866	0	
1.7300	-3.61247	3.47993	0	
1.7307	-5.13351	1.34762	0	
1.7313	-1.78247	1.96172	0	
1.7320	1.59234	2.26878	0	
1.7327	1.28338	2.57583	0	
1.7333	-1.16455	1.65467	0	
1.7340	-2.99455	0.426462	0	
1.7347	-1.78247	0.733514	0	
1.7353	-0.237663	1.65467	0	
1.7360	-0.237663	1.96172	0	
1.7367	-1.16455	1.65467	0	
1.7373	-2.06766	0.733514	0	
1.7380	-2.99455	0.733514	0	
1.7387	-1.47351	2.86582	0	
1.7393	1.28338	3.78698	0	
1.7400	0.665455	1.65467	0	
1.7407	0.356494	-1.39879	0	
1.7413	2.49546	-3.83816	0	
1.7420	2.49546	-3.83816	0	
1.7427	-0.237663	-3.5311	0	
1.7433	-0.237663	-5.66341	0	
1.7440	1.59234	-7.50573	0	
1.7447	0.974417	-8.40983	0	
1.7453	-0.855585	-9.94509	0	
1.7460	-1.16455	-9.63804	0	
1.7467	-1.16455	-7.50573	0	
1.7473	-2.68559	-7.81278	0	
1.7480	-3.30351	-9.33099	0	
1.7487	-1.78247	-7.19868	0	
1.7493	0.356494	-4.14521	0	
1.7500	1.59234	-4.14521	0	
1.7507	1.9013	-3.83816	0	
1.7513	1.9013	1.65467	0	
1.7520	4.0165	5.91929	0	
1.7527	6.15546	3.47993	0	
1.7533	4.94338	0.733514	0	
1.7540	4.63442	4.09403	0	
1.7547	7.39131	7.1475	0	
1.7553	7.98546	5.32224	0	
1.7560	8.29442	4.40109	0	
1.7567	9.81546	8.97276	0	
1.7573	8.29442	15.0797	0	
1.7580	4.32546	14.1585	0	
1.7587	2.80442	5.01519	0	
1.7593	1.59234	-2.0129	0	
1.7600	-0.237663	-1.70585	0	
1.7607	-0.546624	-0.477637	0	
1.7613	-2.06766	-0.78469	0	
1.7620	-4.20663	1.96172	0	
1.7627	-5.72767	8.35865	0	
1.7633	-9.41144	13.8515	0	
1.7640	-11.8356	14.7726	0	
1.7647	-9.41144	10.508	0	
1.7653	-8.48455	4.40109	0	
1.7660	-8.79352	0.119409	0	
1.7667	-4.82455	-1.70585	0	
1.7673	-1.16455	-0.477637	0	
1.7680	-1.16455	2.57583	0	
1.7687	-2.37663	3.47993	0	
1.7693	-3.89767	1.34762	0	
1.7700	-3.89767	-1.09174	0	
1.7707	-0.855585	-1.39879	0	
1.7713	2.49546	-0.170585	0	
1.7720	2.49546	1.96172	0	
1.7727	1.59234	0.733514	0	
1.7733	1.59234	-2.31995	0	
1.7740	2.49546	-2.917	0	
1.7747	4.32546	-1.70585	0	
1.7753	6.15546	-2.917	0	
1.7760	6.15546	-2.917	0	
1.7767	4.32546	0.119409	0	
1.7773	4.32546	-0.170585	0	
1.7780	5.8465	-0.477637	0	
1.7787	4.63442	4.70814	0	
1.7793	4.0165	7.76161	0	
1.7800	7.08235	3.47993	0	
1.7807	7.70027	0.733514	0	
1.7813	2.49546	-0.170585	0	
1.7820	-1.16455	-2.31995	0	
1.7827	-2.06766	-1.70585	0	
1.7833	-1.47351	0.426462	0	
1.7840	-1.16455	-2.0129	0	
1.7847	-2.99455	-4.14521	0	
1.7853	-6.03663	-3.22405	0	
1.7860	-5.13351	-2.0129	0	
1.7867	-4.51559	-2.0129	0	
1.7873	-6.34559	-2.0129	0	
1.7880	-5.72767	-0.78469	0	
1.7887	-4.51559	1.34762	0	
1.7893	-5.72767	1.65467	0	
1.7900	-6.34559	1.04057	0	
1.7907	-5.72767	1.96172	0	
1.7913	-5.72767	2.57583	0	
1.7920	-5.72767	0.426462	0	
1.7927	-5.44247	-2.62701	0	
1.7933	-4.82455	-3.5311	0	
1.7940	-1.78247	-0.170585	0	
1.7947	-0.855585	4.40109	0	
1.7953	-2.06766	2.26878	0	
1.7960	0.0712988	-3.22405	0	
1.7967	1.28338	-2.917	0	
1.7973	-1.16455	-1.09174	0	
1.7980	-0.855585	-4.45226	0	
1.7987	0.0712988	-5.66341	0	
1.7993	-3.61247	0.119409	0	
1.8000	-6.96351	5.32224	0	
1.8007	-7.58144	4.40109	0	
1.8013	-6.34559	1.04057	0	
1.8020	-3.89767	0.733514	0	
1.8027	-5.13351	3.47993	0	
1.8033	-8.48455	4.40109	0	
1.8040	-6.65455	1.65467	0	
1.8047	-3.89767	-0.170585	0	
1.8053	-6.65455	-1.09174	0	
1.8060	-7.86663	-2.62701	0	
1.8067	-5.44247	-2.0129	0	
1.8073	-5.72767	-1.09174	0	
1.8080	-5.44247	-3.83816	0	
1.8087	-1.16455	-3.83816	0	
1.8093	-0.855585	-1.39879	0	
1.8100	-5.44247	-3.83816	0	
1.8107	-6.65455	-7.81278	0	
1.8113	-3.61247	-6.27752	0	
1.8120	-1.78247	-4.75931	0	
1.8127	-1.16455	-5.06637	0	
1.8133	1.59234	-3.83816	0	
1.8140	4.0165	-5.66341	0	
1.8147	4.0165	-5.66341	0	
1.8153	3.42234	2.26878	0	
1.8160	4.94338	8.35865	0	
1.8167	5.25234	6.22634	0	
1.8173	3.11338	5.61224	0	
1.8180	1.59234	5.91929	0	
1.8187	0.974417	1.65467	0	
1.8193	-0.237663	-1.39879	0	
1.8200	-1.16455	-0.170585	0	
1.8207	0.665455	-1.70585	0	
1.8213	2.49546	-7.50573	0	
1.8220	0.665455	-14.8238	0	
1.8227	-0.855585	-17.5702	0	
1.8233	-0.237663	-13.6127	0	
1.8240	-1.16455	-9.02393	0	
1.8247	-4.20663	-6.58457	0	
1.8253	-5.13351	-3.83816	0	
1.8260	-3.30351	-0.78469	0	
1.8267	-1.78247	1.96172	0	
1.8273	-0.237663	6.84045	0	
1.8280	0.974417	6.84045	0	
1.8287	1.28338	-3.83816	0	
1.8293	0.665455	-11.1562	0	
1.8300	1.59234	-7.50573	0	
1.8307	5.25234	-4.45226	0	
1.8313	8.29442	-5.06637	0	
1.8320	8.60339	-1.09174	0	
1.8327	7.98546	4.40109	0	
1.8333	8.29442	8.66571	0	
1.8340	8.91235	13.8515	0	
1.8347	7.98546	14.4656	0	
1.8353	5.25234	6.22634	0	
1.8360	2.49546	-0.170585	0	
1.8367	-0.546624	-1.09174	0	
1.8373	-2.99455	-1.70585	0	
1.8380	-0.546624	-0.477637	0	
1.8387	1.59234	2.57583	0	
1.8393	-2.37663	2.57583	0	
1.8400	-5.44247	2.57583	0	
1.8407	-2.99455	5.91929	0	
1.8413	-2.99455	7.45455	0	
1.8420	-5.72767	6.5334	0	
1.8427	-3.30351	6.22634	0	
1.8433	0.356494	4.09403	0	
1.8440	-2.06766	-0.477637	0	
1.8447	-5.13351	-2.917	0	
1.8453	-5.72767	-2.0129	0	
1.8460	-4.82455	-2.31995	0	
1.8467	-2.06766	-3.83816	0	
1.8473	-1.78247	-2.917	0	
1.8480	-2.06766	-1.70585	0	
1.8487	1.28338	-4.14521	0	
1.8493	3.7313	-8.40983	0	
1.8500	2.49546	-7.50573	0	
1.8507	2.1865	-4.75931	0	
1.8513	4.32546	-5.97047	0	
1.8520	4.32546	-7.19868	0	
1.8527	4.32546	-3.83816	0	
1.8533	5.25234	1.04057	0	
1.8540	4.32546	4.40109	0	
1.8547	4.32546	4.40109	0	
1.8553	6.15546	2.57583	0	
1.8560	7.70027	5.32224	0	
1.8567	7.39131	8.97276	0	
1.8573	7.08235	5.91929	0	
1.8580	6.15546	1.04057	0	
1.8587	4.94338	1.04057	0	
1.8593	2.49546	1.65467	0	
1.8600	0.665455	0.426462	0	
1.8607	0.665455	-0.170585	0	
1.8613	0.0712988	-2.0129	0	
1.8620	-0.237663	-3.83816	0	
1.8627	0.665455	-3.5311	0	
1.8633	0.0712988	-6.89162	0	
1.8640	-2.99455	-11.7703	0	
1.8647	-4.51559	-8.40983	0	
1.8653	-3.89767	-4.75931	0	
1.8660	-4.20663	-8.40983	0	
1.8667	-3.61247	-9.94509	0	
1.8673	0.0712988	-4.14521	0	
1.8680	0.665455	-3.5311	0	
1.8687	-1.47351	-7.50573	0	
1.8693	0.974417	-4.45226	0	
1.8700	3.42234	3.47993	0	
1.8707	1.59234	5.91929	0	
1.8713	1.28338	4.09403	0	
1.8720	2.80442	2.86582	0	
1.8727	1.28338	1.65467	0	
1.8733	0.356494	0.119409	0	
1.8740	2.49546	-0.477637	0	
1.8747	1.59234	-1.39879	0	
1.8753	0.356494	-2.62701	0	
1.8760	2.49546	-1.09174	0	
1.8767	4.94338	2.57583	0	
1.8773	4.32546	4.40109	0	
1.8780	2.80442	3.47993	0	
1.8787	2.49546	4.40109	0	
1.8793	3.11338	8.66571	0	
1.8800	0.665455	8.06866	0	
1.8807	-4.51559	2.57583	0	
1.8813	-6.65455	0.733514	0	
1.8820	-5.13351	1.96172	0	
1.8827	-4.82455	1.04057	0	
1.8833	-6.34559	0.426462	0	
1.8840	-8.17559	0.119409	0	
1.8847	-9.41144	-2.0129	0	
1.8853	-8.48455	-3.83816	0	
1.8860	-7.58144	-4.14521	0	
1.8867	-7.58144	-5.66341	0	
1.8873	-8.79352	-7.19868	0	
1.8880	-8.48455	-7.81278	0	
1.8887	-5.72767	-5.97047	0	
1.8893	-4.82455	-3.83816	0	
1.8900	-5.72767	-3.83816	0	
1.8907	-4.82455	-5.97047	0	
1.8913	-0.855585	-5.37342	0	
1.8920	2.80442	-2.0129	0	
1.8927	4.63442	2.86582	0	
1.8933	4.32546	3.17288	0	
1.8940	4.0165	-3.83816	0	
1.8947	3.7313	-5.37342	0	
1.8953	2.49546	2.86582	0	
1.8960	2.49546	6.22634	0	
1.8967	3.11338	0.733514	0	
1.8973	1.59234	-2.0129	0	
1.8980	0.0712988	-2.62701	0	
1.8987	0.665455	-4.75931	0	
1.8993	-0.237663	-6.58457	0	
1.9000	-2.37663	-5.97047	0	
1.9007	-1.78247	-0.477637	0	
1.9013	-1.16455	9.89392	0	
1.9020	-2.99455	11.7192	0	
1.9027	-2.99455	1.96172	0	
1.9033	-1.16455	-7.19868	0	
1.9040	-1.16455	-13.6127	0	
1.9047	-3.89767	-16.3591	0	
1.9053	-4.82455	-12.3845	0	
1.9060	-4.51559	-9.02393	0	
1.9067	-5.44247	-9.63804	0	
1.9073	-5.44247	-5.66341	0	
1.9080	-3.61247	3.47993	0	
1.9087	-3.30351	10.508	0	
1.9093	-3.89767	11.1051	0	
1.9100	-0.546624	6.5334	0	
1.9107	0.974417	1.65467	0	
1.9113	-0.855585	-2.0129	0	
1.9120	-2.06766	-3.22405	0	
1.9127	-2.99455	0.733514	0	
1.9133	-4.82455	5.61224	0	
1.9140	-3.89767	4.40109	0	
1.9147	0.356494	5.01519	0	
1.9153	0.974417	11.1051	0	
1.9160	-1.47351	11.4121	0	
1.9167	-1.78247	7.1475	0	
1.9173	-0.237663	7.1475	0	
1.9180	0.974417	4.40109	0	
1.9187	2.80442	0.733514	0	
1.9193	3.42234	2.57583	0	
1.9200	2.49546	3.47993	0	
1.9207	2.49546	-0.477637	0	
1.9213	3.11338	-2.0129	0	
1.9220	1.59234	-0.477637	0	
1.9227	2.1865	-0.78469	0	
1.9233	4.0165	-3.22405	0	
1.9240	1.9013	-3.83816	0	
1.9247	-1.47351	-0.170585	0	
1.9253	-1.78247	1.65467	0	
1.9260	-1.78247	0.426462	0	
1.9267	-2.06766	0.733514	0	
1.9273	-2.06766	1.65467	0	
1.9280	-2.99455	-1.39879	0	
1.9287	-3.89767	-2.31995	0	
1.9293	-2.68559	-0.170585	0	
1.9300	-2.68559	-1.39879	0	
1.9307	-2.06766	-2.62701	0	
1.9313	0.665455	-1.09174	0	
1.9320	0.665455	-2.0129	0	
1.9327	-1.16455	-2.0129	0	
1.9333	0.974417	0.733514	0	
1.9340	4.94338	2.26878	0	
1.9347	6.15546	2.26878	0	
1.9353	6.77338	3.17288	0	
1.9360	7.98546	2.86582	0	
1.9367	7.98546	3.47993	0	
1.9373	7.70027	6.5334	0	
1.9380	7.08235	6.5334	0	
1.9387	4.0165	1.65467	0	
1.9393	1.28338	-0.170585	0	
1.9400	0.665455	0.119409	0	
1.9407	-0.237663	-0.78469	0	
1.9413	-0.237663	-1.70585	0	
1.9420	0.974417	-3.22405	0	
1.9427	-0.237663	-6.58457	0	
1.9433	-4.20663	-5.97047	0	
1.9440	-4.82455	0.426462	0	
1.9447	-4.82455	4.70814	0	
1.9453	-5.72767	3.17288	0	
1.9460	-4.20663	0.733514	0	
1.9467	-2.06766	0.426462	0	
1.9473	-2.68559	2.26878	0	
1.9480	-0.855585	4.70814	0	
1.9487	3.11338	3.78698	0	
1.9493	3.7313	2.57583	0	
1.9500	2.49546	4.40109	0	
1.9507	2.80442	3.78698	0	
1.9513	2.80442	-1.39879	0	
1.9520	1.9013	-2.0129	0	
1.9527	0.974417	1.34762	0	
1.9533	0.974417	1.96172	0	
1.9540	1.28338	1.96172	0	
1.9547	1.59234	3.17288	0	
1.9553	3.42234	1.34762	0	
1.9560	6.15546	-0.170585	0	
1.9567	6.15546	1.65467	0	
1.9573	3.11338	1.34762	0	
1.9580	1.28338	-0.170585	0	
1.9587	1.59234	0.119409	0	
1.9593	1.59234	-0.78469	0	
1.9600	1.28338	-1.70585	0	
1.9607	1.59234	-1.09174	0	
1.9613	2.49546	-2.31995	0	
1.9620	3.42234	-3.83816	0	
1.9627	3.42234	-0.170585	0	
1.9633	1.9013	3.17288	0	
1.9640	0.356494	1.65467	0	
1.9647	-1.78247	-2.31995	0	
1.9653	-4.82455	-5.66341	0	
1.9660	-6.96351	-7.81278	0	
1.9667	-6.96351	-10.2521	0	
1.9673	-4.82455	-12.6915	0	
1.9680	-2.99455	-10.2521	0	
1.9687	-3.30351	-4.75931	0	
1.9693	-3.61247	-6.58457	0	
1.9700	-2.06766	-11.1562	0	
1.9707	-2.06766	-8.40983	0	
1.9713	-4.20663	-3.83816	0	
1.9720	-3.61247	0.733514	0	
1.9727	-0.855585	7.76161	0	
1.9733	-1.78247	8.06866	0	
1.9740	-3.30351	-1.09174	0	
1.9747	-1.16455	-2.62701	0	
1.9753	2.80442	4.40109	0	
1.9760	4.0165	5.91929	0	
1.9767	4.0165	7.45455	0	
1.9773	6.15546	14.4656	0	
1.9780	7.70027	12.6403	0	
1.9787	4.32546	-0.477637	0	
1.9793	0.974417	-11.4633	0	
1.9800	0.665455	-15.4379	0	
1.9807	-0.855585	-14.8238	0	
1.9813	-2.99455	-9.94509	0	
1.9820	-3.89767	-3.22405	0	
1.9827	-6.03663	2.86582	0	
1.9833	-7.27248	8.06866	0	
1.9840	-4.51559	13.5615	0	
1.9847	-6.03663	19.3614	0	
1.9853	-12.1446	19.3614	0	
1.9860	-13.0714	10.8151	0	
1.9867	-12.1446	2.86582	0	
1.9873	-14.9014	0.733514	0	
1.9880	-15.8046	-2.0129	0	
1.9887	-12.1446	-3.83816	0	
1.9893	-10.6235	-2.62701	0	
1.9900	-10.3146	-2.31995	0	
1.9907	-5.44247	-4.14521	0	
1.9913	0.665455	-4.45226	0	
1.9920	0.356494	-3.5311	0	
1.9927	-2.06766	-3.83816	0	
1.9933	1.59234	-2.917	0	
1.9940	6.15546	0.119409	0	
1.9947	7.70027	1.65467	0	
1.9953	7.98546	0.733514	0	
1.9960	9.81546	0.733514	0	
1.9967	10.7423	4.40109	0	
1.9973	8.91235	7.45455	0	
1.9980	7.08235	7.76161	0	
1.9987	7.08235	5.32224	0	
1.9993	7.98546	2.57583	0	
2.0000	5.5613	2.86582	0	
2.0007	1.59234	4.40109	0	
2.0013	1.9013	3.78698	0	
2.0020	2.49546	2.57583	0	
2.0027	-0.237663	2.57583	0	
2.0033	-2.99455	1.65467	0	
2.0040	-3.61247	0.426462	0	
2.0047	-4.82455	-1.09174	0	
2.0053	-5.13351	-2.62701	0	
2.0060	-4.82455	-2.917	0	
2.0067	-4.51559	-2.31995	0	
2.0073	-3.30351	-1.09174	0	
2.0080	-3.89767	0.733514	0	
2.0087	-6.03663	2.57583	0	
2.0093	-4.82455	3.78698	0	
2.0100	-1.16455	3.47993	0	
2.0107	0.974417	1.96172	0	
2.0113	1.59234	1.65467	0	
2.0120	1.59234	0.733514	0	
2.0127	1.59234	-2.31995	0	
2.0133	0.974417	-3.83816	0	
2.0140	1.59234	-3.83816	0	
2.0147	2.80442	-4.14521	0	
2.0153	3.7313	-3.5311	0	
2.0160	2.49546	-1.09174	0	
2.0167	1.59234	-1.39879	0	
2.0173	2.1865	-3.83816	0	
2.0180	2.49546	-4.14521	0	
2.0187	2.49546	-3.83816	0	
2.0193	2.49546	-3.5311	0	
2.0200	0.974417	-4.14521	0	
2.0207	-0.237663	-6.58457	0	
2.0213	0.356494	-5.37342	0	
2.0220	-1.16455	-0.78469	0	
2.0227	-4.51559	0.733514	0	
2.0233	-4.51559	-2.0129	0	
2.0240	-5.44247	-4.14521	0	
2.0247	-8.48455	-3.83816	0	
2.0253	-8.17559	-1.09174	0	
2.0260	-5.72767	-1.09174	0	
2.0267	-5.72767	-3.83816	0	
2.0273	-5.72767	-4.14521	0	
2.0280	-4.20663	-0.477637	0	
2.0287	-2.68559	-0.477637	0	
2.0293	-1.16455	-2.917	0	
2.0300	0.665455	-2.0129	0	
2.0307	1.59234	-2.917	0	
2.0313	1.59234	-7.50573	0	
2.0320	1.59234	-7.50573	0	
2.0327	4.32546	-2.917	0	
2.0333	7.39131	-0.170585	0	
2.0340	8.29442	-0.477637	0	
2.0347	7.98546	-0.170585	0	
2.0353	8.91235	5.01519	0	
2.0360	9.22131	14.4656	0	
2.0367	4.32546	20.8796	0	
2.0373	1.59234	17.8261	0	
2.0380	4.32546	11.4121	0	
2.0387	4.32546	6.5334	0	
2.0393	-0.237663	3.17288	0	
2.0400	-1.16455	3.17288	0	
2.0407	1.59234	3.17288	0	
2.0413	1.59234	-2.0129	0	
2.0420	0.665455	-5.97047	0	
2.0427	-0.546624	-2.917	0	
2.0433	-3.61247	0.119409	0	
2.0440	-4.82455	-2.917	0	
2.0447	-4.82455	-5.66341	0	
2.0453	-5.13351	-3.83816	0	
2.0460	-3.61247	-1.39879	0	
2.0467	-3.89767	-3.22405	0	
2.0473	-6.34559	-7.19868	0	
2.0480	-4.51559	-9.63804	0	
2.0487	-1.78247	-8.11983	0	
2.0493	-3.89767	-6.58457	0	
2.0500	-4.20663	-8.71688	0	
2.0507	-2.06766	-10.5592	0	
2.0513	-1.16455	-9.02393	0	
2.0520	-0.855585	-8.40983	0	
2.0527	-1.47351	-5.66341	0	
2.0533	-2.99455	1.04057	0	
2.0540	-0.546624	4.70814	0	
2.0547	3.42234	3.78698	0	
2.0553	5.25234	4.70814	0	
2.0560	7.98546	2.57583	0	
2.0567	7.39131	-4.14521	0	
2.0573	4.32546	-7.19868	0	
2.0580	4.94338	-6.58457	0	
2.0587	6.77338	-9.33099	0	
2.0593	4.63442	-9.33099	0	
2.0600	2.80442	-3.83816	0	
2.0607	-0.546624	0.426462	0	
2.0613	-4.82455	4.09403	0	
2.0620	-2.06766	7.76161	0	
2.0627	1.59234	9.58686	0	
2.0633	-2.06766	8.66571	0	
2.0640	-5.13351	2.57583	0	
2.0647	-3.89767	-5.97047	0	
2.0653	-5.44247	-6.58457	0	
2.0660	-6.03663	1.65467	0	
2.0667	-2.99455	5.32224	0	
2.0673	-2.06766	1.04057	0	
2.0680	-2.68559	-3.83816	0	
2.0687	-0.546624	-3.83816	0	
2.0693	0.665455	-2.62701	0	
2.0700	0.0712988	-2.0129	0	
2.0707	0.665455	-2.62701	0	
2.0713	1.9013	-2.917	0	
2.0720	3.42234	-3.83816	0	
2.0727	5.25234	0.119409	0	
2.0733	6.77338	8.06866	0	
2.0740	7.08235	8.97276	0	
2.0747	6.15546	4.70814	0	
2.0753	4.94338	4.09403	0	
2.0760	5.25234	2.86582	0	
2.0767	4.63442	-1.09174	0	
2.0773	3.42234	-1.09174	0	
2.0780	3.7313	1.34762	0	
2.0787	2.49546	1.34762	0	
2.0793	-1.16455	0.733514	0	
2.0800	-1.78247	-1.09174	0	
2.0807	-0.546624	-1.70585	0	
2.0813	-3.89767	0.733514	0	
2.0820	-5.72767	-1.09174	0	
2.0827	-1.47351	-2.917	0	
2.0833	-0.237663	2.57583	0	
2.0840	-4.82455	4.40109	0	
2.0847	-5.13351	-0.170585	0	
2.0853	-2.68559	-0.170585	0	
2.0860	-3.89767	1.65467	0	
2.0867	-5.44247	-0.477637	0	
2.0873	-2.06766	-2.0129	0	
2.0880	-1.16455	-2.0129	0	
2.0887	-4.51559	-3.83816	0	
2.0893	-5.72767	-1.09174	0	
2.0900	-3.89767	2.57583	0	
2.0907	-4.82455	1.04057	0	
2.0913	-6.65455	1.65467	0	
2.0920	-3.89767	4.09403	0	
2.0927	-0.237663	3.47993	0	
2.0933	-2.68559	3.17288	0	
2.0940	-4.20663	3.17288	0	
2.0947	0.0712988	0.119409	0	
2.0953	1.59234	0.733514	0	
2.0960	-1.78247	3.47993	0	
2.0967	1.59234	1.65467	0	
2.0973	6.77338	0.119409	0	
2.0980	4.32546	1.96172	0	
2.0987	3.11338	0.733514	0	
2.0993	7.08235	-0.477637	0	
2.1000	7.39131	1.65467	0	
2.1007	4.32546	0.733514	0	
2.1013	2.49546	-2.0129	0	
2.1020	0.665455	-1.09174	0	
2.1027	-0.855585	-1.09174	0	
2.1033	2.49546	-2.31995	0	
2.1040	2.80442	-3.5311	0	
2.1047	-0.237663	-7.19868	0	
2.1053	-2.06766	-9.33099	0	
2.1060	-2.06766	-6.89162	0	
2.1067	-4.20663	-7.50573	0	
2.1073	-5.72767	-9.63804	0	
2.1080	-4.82455	-5.66341	0	
2.1087	-3.89767	-2.0129	0	
2.1093	-2.99455	-3.83816	0	
2.1100	-2.99455	-3.83816	0	
2.1107	-2.99455	1.65467	0	
2.1113	-3.30351	8.97276	0	
2.1120	-3.89767	16.3079	0	
2.1127	-3.30351	18.1332	0	
2.1133	-2.06766	11.7192	0	
2.1140	0.0712988	5.91929	0	
2.1147	1.28338	4.70814	0	
2.1153	-0.237663	4.40109	0	
2.1160	-2.06766	3.47993	0	
2.1167	0.0712988	4.40109	0	
2.1173	4.32546	3.78698	0	
2.1180	4.63442	2.26878	0	
2.1187	2.49546	2.57583	0	
2.1193	2.49546	4.09403	0	
2.1200	2.80442	2.57583	0	
2.1207	2.49546	-1.70585	0	
2.1213	3.42234	-5.06637	0	
2.1220	1.59234	-5.06637	0	
2.1227	-2.06766	-3.5311	0	
2.1233	-2.37663	-4.75931	0	
2.1240	-1.16455	-5.06637	0	
2.1247	-3.61247	0.733514	0	
2.1253	-4.82455	2.57583	0	
2.1260	-2.99455	-2.0129	0	
2.1267	-5.13351	-0.477637	0	
2.1273	-7.58144	3.17288	0	
2.1280	-5.72767	-1.09174	0	
2.1287	-3.89767	-5.66341	0	
2.1293	-5.13351	-8.40983	0	
2.1300	-5.13351	-16.052	0	
2.1307	-5.72767	-19.4125	0	
2.1313	-8.48455	-11.1562	0	
2.1320	-9.69663	-5.37342	0	
2.1327	-7.58144	-6.89162	0	
2.1333	-4.82455	-4.75931	0	
2.1340	-2.99455	3.47993	0	
2.1347	-1.47351	10.8151	0	
2.1353	1.59234	14.4656	0	
2.1360	4.32546	17.212	0	
2.1367	4.32546	13.2544	0	
2.1373	5.5613	0.733514	0	
2.1380	8.29442	-4.45226	0	
2.1387	8.29442	4.09403	0	
2.1393	7.70027	11.4121	0	
2.1400	10.4334	8.06866	0	
2.1407	11.6455	3.17288	0	
2.1413	9.22131	-0.170585	0	
2.1420	9.22131	-2.62701	0	
2.1427	9.81546	-2.0129	0	
2.1433	5.8465	-1.39879	0	
2.1440	3.11338	-2.31995	0	
2.1447	4.63442	-2.0129	0	
2.1453	4.32546	-1.39879	0	
2.1460	0.665455	-0.170585	0	
2.1467	-1.16455	1.65467	0	
2.1473	0.0712988	1.04057	0	
2.1480	-0.546624	-1.09174	0	
2.1487	-1.78247	2.57583	0	
2.1493	0.356494	5.32224	0	
2.1500	2.49546	3.78698	0	
2.1507	0.665455	3.47993	0	
2.1513	-1.16455	2.86582	0	
2.1520	0.665455	0.119409	0	
2.1527	1.59234	0.733514	0	
2.1533	0.665455	3.78698	0	
2.1540	2.49546	5.32224	0	
2.1547	5.25234	4.40109	0	
2.1553	3.7313	1.65467	0	
2.1560	2.49546	-0.477637	0	
2.1567	4.0165	3.78698	0	
2.1573	2.80442	5.32224	0	
2.1580	0.665455	1.34762	0	
2.1587	0.665455	0.426462	0	
2.1593	2.49546	1.04057	0	
2.1600	2.49546	-1.39879	0	
2.1607	1.28338	-1.39879	0	
2.1613	0.665455	-2.0129	0	
2.1620	0.665455	-6.58457	0	
2.1627	-0.237663	-6.89162	0	
2.1633	-2.37663	-3.83816	0	
2.1640	-5.72767	-4.75931	0	
2.1647	-8.48455	-5.06637	0	
2.1653	-8.17559	-3.83816	0	
2.1660	-3.89767	-6.58457	0	
2.1667	-1.47351	-7.50573	0	
2.1673	-2.68559	-6.58457	0	
2.1680	-1.78247	-8.40983	0	
2.1687	0.665455	-7.50573	0	
2.1693	-0.237663	-2.31995	0	
2.1700	-1.78247	-2.0129	0	
2.1707	-1.16455	-3.83816	0	
2.1713	0.356494	-2.917	0	
2.1720	1.59234	-1.70585	0	
2.1727	2.1865	-1.39879	0	
2.1733	0.0712988	0.426462	0	
2.1740	-1.16455	0.119409	0	
2.1747	0.665455	-1.70585	0	
2.1753	2.49546	1.34762	0	
2.1760	2.49546	6.22634	0	
2.1767	1.28338	4.70814	0	
2.1773	0.356494	-1.09174	0	
2.1780	-1.47351	-2.0129	0	
2.1787	-2.99455	0.426462	0	
2.1793	-2.06766	-0.170585	0	
2.1800	-1.16455	-2.31995	0	
2.1807	-0.855585	-0.78469	0	
2.1813	-1.78247	0.733514	0	
2.1820	-4.51559	-2.31995	0	
2.1827	-5.72767	-5.97047	0	
2.1833	-4.20663	-7.81278	0	
2.1840	-5.44247	-9.33099	0	
2.1847	-8.17559	-12.0774	0	
2.1853	-6.34559	-12.0774	0	
2.1860	-3.89767	-9.02393	0	
2.1867	-5.72767	-6.58457	0	
2.1873	-5.44247	-6.27752	0	
2.1880	-3.30351	-5.66341	0	
2.1887	-2.99455	-2.0129	0	
2.1893	-0.237663	7.1475	0	
2.1900	4.32546	16.615	0	
2.1907	3.42234	17.5191	0	
2.1913	1.59234	10.201	0	
2.1920	3.11338	4.40109	0	
2.1927	3.11338	0.733514	0	
2.1933	1.59234	-3.83816	0	
2.1940	2.1865	-6.58457	0	
2.1947	2.49546	-5.66341	0	
2.1953	3.42234	-5.66341	0	
2.1960	2.80442	-5.06637	0	
2.1967	-0.546624	-2.62701	0	
2.1973	-4.51559	0.733514	0	
2.1980	-4.82455	5.32224	0	
2.1987	-4.82455	9.27981	0	
2.1993	-5.13351	9.58686	0	
2.2000	-4.20663	8.06866	0	
2.2007	-4.82455	8.06866	0	
2.2013	-7.27248	5.01519	0	
2.2020	-9.41144	-0.477637	0	
2.2027	-8.48455	-5.37342	0	
2.2033	-6.65455	-11.1562	0	
2.2040	-6.03663	-15.745	0	
2.2047	-7.86663	-15.4379	0	
2.2053	-8.17559	-11.7703	0	
2.2060	-4.82455	-9.63804	0	
2.2067	-2.68559	-8.40983	0	
2.2073	-2.06766	-5.97047	0	
2.2080	0.665455	-2.0129	0	
2.2087	6.77338	3.47993	0	
2.2093	9.81546	6.22634	0	
2.2100	9.53027	2.57583	0	
2.2107	10.1244	-3.5311	0	
2.2113	12.5724	-5.06637	0	
2.2120	12.5724	-3.5311	0	
2.2127	12.5724	-3.83816	0	
2.2133	14.7113	-3.83816	0	
2.2140	15.3292	-1.39879	0	
2.2147	12.2634	-2.917	0	
2.2153	8.91235	-4.75931	0	
2.2160	7.70027	1.34762	0	
2.2167	6.77338	9.89392	0	
2.2173	4.94338	9.27981	0	
2.2180	4.94338	4.40109	0	
2.2187	5.5613	1.34762	0	
2.2193	2.80442	0.119409	0	
2.2200	-1.16455	0.733514	0	
2.2207	-2.06766	0.426462	0	
2.2213	-0.855585	-1.70585	0	
2.2220	-0.546624	-1.39879	0	
2.2227	-1.78247	-0.170585	0	
2.2233	-3.30351	-1.09174	0	
2.2240	-3.89767	-1.39879	0	
2.2247	-3.30351	-2.62701	0	
2.2253	-2.99455	-3.83816	0	
2.2260	-2.37663	-0.477637	0	
2.2267	-1.47351	1.65467	0	
2.2273	-2.99455	-1.09174	0	
2.2280	-3.89767	0.733514	0	
2.2287	-2.68559	5.61224	0	
2.2293	-0.237663	4.70814	0	
2.2300	1.9013	2.26878	0	
2.2307	3.42234	4.40109	0	
2.2313	1.28338	4.09403	0	
2.2320	-1.78247	0.733514	0	
2.2327	-1.16455	-0.170585	0	
2.2333	1.59234	0.733514	0	
2.2340	2.80442	0.426462	0	
2.2347	1.9013	-0.170585	0	
2.2353	-0.237663	0.733514	0	
2.2360	0.0712988	2.57583	0	
2.2367	2.1865	3.17288	0	
2.2373	1.59234	3.47993	0	
2.2380	-1.16455	3.47993	0	
2.2387	-3.30351	1.04057	0	
2.2393	-4.51559	-2.0129	0	
2.2400	-4.20663	-1.70585	0	
2.2407	-2.06766	-0.170585	0	
2.2413	-1.47351	-1.39879	0	
2.2420	-2.99455	-2.62701	0	
2.2427	-4.82455	-2.917	0	
2.2433	-5.72767	-3.5311	0	
2.2440	-8.48455	-2.917	0	
2.2447	-12.1446	-2.31995	0	
2.2453	-12.7625	-4.14521	0	
2.2460	-10.9325	-4.75931	0	
2.2467	-10.0056	-3.83816	0	
2.2473	-10.3146	-5.06637	0	
2.2480	-10.0056	-5.66341	0	
2.2487	-9.41144	-5.37342	0	
2.2493	-8.48455	-5.66341	0	
2.2500	-7.86663	-3.5311	0	
2.2507	-7.58144	2.57583	0	
2.2513	-6.65455	4.40109	0	
2.2520	-4.82455	0.733514	0	
2.2527	-2.99455	-0.477637	0	
2.2533	-2.99455	-0.170585	0	
2.2540	-2.99455	-1.39879	0	
2.2547	-3.61247	-4.14521	0	
2.2553	-2.68559	-8.40983	0	
2.2560	-0.855585	-10.2521	0	
2.2567	0.0712988	-7.50573	0	
2.2573	0.974417	-4.75931	0	
2.2580	1.59234	-5.06637	0	
2.2587	0.665455	-4.45226	0	
2.2593	0.665455	-0.78469	0	
2.2600	2.1865	5.91929	0	
2.2607	2.49546	9.89392	0	
2.2613	1.59234	5.01519	0	
2.2620	0.356494	-4.14521	0	
2.2627	-3.30351	-7.50573	0	
2.2633	-5.13351	-7.81278	0	
2.2640	-3.30351	-9.02393	0	
2.2647	-2.06766	-4.45226	0	
2.2653	-3.61247	4.40109	0	
2.2660	-4.82455	11.1051	0	
2.2667	-3.89767	19.9584	0	
2.2673	-2.99455	28.5047	0	
2.2680	-2.99455	25.4512	0	
2.2687	-2.99455	17.212	0	
2.2693	-0.237663	14.7726	0	
2.2700	2.1865	12.9474	0	
2.2707	0.974417	8.97276	0	
2.2713	1.59234	8.66571	0	
2.2720	5.25234	8.97276	0	
2.2727	4.32546	5.61224	0	
2.2733	0.356494	4.09403	0	
2.2740	0.356494	5.32224	0	
2.2747	1.59234	4.70814	0	
2.2753	1.59234	3.47993	0	
2.2760	2.49546	3.47993	0	
2.2767	2.49546	3.78698	0	
2.2773	-1.16455	3.47993	0	
2.2780	-2.99455	3.17288	0	
2.2787	1.28338	3.17288	0	
2.2793	3.7313	1.65467	0	
2.2800	0.974417	-0.170585	0	
2.2807	-0.546624	0.733514	0	
2.2813	1.28338	1.65467	0	
2.2820	1.59234	-1.09174	0	
2.2827	1.59234	-3.83816	0	
2.2833	3.7313	-3.22405	0	
2.2840	3.42234	-4.75931	0	
2.2847	1.59234	-9.33099	0	
2.2853	2.1865	-8.40983	0	
2.2860	2.49546	-5.66341	0	
2.2867	1.9013	-8.40983	0	
2.2873	4.0165	-9.33099	0	
2.2880	4.0165	-6.89162	0	
2.2887	-1.16455	-8.11983	0	
2.2893	-2.99455	-7.19868	0	
2.2900	2.1865	-3.22405	0	
2.2907	5.25234	-3.83816	0	
2.2913	6.15546	-3.83816	0	
2.2920	9.81546	5.61224	0	
2.2927	13.1903	12.0262	0	
2.2933	11.6455	7.45455	0	
2.2940	9.81546	-0.170585	0	
2.2947	11.6455	-2.31995	0	
2.2953	10.4334	1.65467	0	
2.2960	4.94338	4.40109	0	
2.2967	3.42234	0.733514	0	
2.2973	5.25234	-0.170585	0	
2.2980	3.7313	4.40109	0	
2.2987	2.49546	6.84045	0	
2.2993	3.11338	6.22634	0	
2.3000	0.356494	4.40109	0	
2.3007	-2.37663	1.65467	0	
2.3013	-1.16455	1.04057	0	
2.3020	0.356494	1.65467	0	
2.3027	0.0712988	0.733514	0	
2.3033	-1.78247	1.65467	0	
2.3040	-5.72767	1.65467	0	
2.3047	-6.96351	-1.70585	0	
2.3053	-4.82455	-2.917	0	
2.3060	-4.82455	-1.39879	0	
2.3067	-4.82455	-2.917	0	
2.3073	-3.61247	-3.5311	0	
2.3080	-6.03663	-2.917	0	
2.3087	-7.86663	-5.37342	0	
2.3093	-6.34559	-5.06637	0	
2.3100	-5.13351	-0.477637	0	
2.3107	-2.99455	0.119409	0	
2.3113	-1.47351	-3.5311	0	
2.3120	-5.72767	-2.917	0	
2.3127	-7.27248	1.96172	0	
2.3133	-2.37663	5.91929	0	
2.3140	-2.06766	5.01519	0	
2.3147	-2.99455	1.65467	0	
2.3153	1.59234	0.426462	0	
2.3160	4.32546	-0.477637	0	
2.3167	2.49546	-2.0129	0	
2.3173	2.49546	-0.78469	0	
2.3180	2.49546	1.04057	0	
2.3187	0.665455	-2.917	0	
2.3193	0.665455	-6.58457	0	
2.3200	2.49546	-3.83816	0	
2.3207	2.1865	-1.09174	0	
2.3213	0.0712988	-3.83816	0	
2.3220	-1.16455	-9.02393	0	
2.3227	-2.68559	-12.3845	0	
2.3233	-4.51559	-15.745	0	
2.3240	-6.34559	-16.9561	0	
2.3247	-7.86663	-12.0774	0	
2.3253	-8.79352	-6.58457	0	
2.3260	-7.86663	-6.58457	0	
2.3267	-6.65455	-7.50573	0	
2.3273	-6.03663	-2.31995	0	
2.3280	-5.72767	8.06866	0	
2.3287	-6.65455	14.7726	0	
2.3293	-6.96351	12.9474	0	
2.3300	-4.82455	8.06866	0	
2.3307	-2.99455	4.70814	0	
2.3313	-2.37663	2.57583	0	
2.3320	-1.16455	1.34762	0	
2.3327	0.974417	0.733514	0	
2.3333	2.49546	-2.0129	0	
2.3340	5.25234	-3.83816	0	
2.3347	7.98546	-1.39879	0	
2.3353	9.22131	-0.170585	0	
2.3360	10.4334	-0.78469	0	
2.3367	11.3603	2.86582	0	
2.3373	8.91235	5.01519	0	
2.3380	5.25234	1.04057	0	
2.3387	4.32546	1.96172	0	
2.3393	3.7313	8.06866	0	
2.3400	1.9013	7.45455	0	
2.3407	2.49546	5.01519	0	
2.3413	4.63442	4.40109	0	
2.3420	3.7313	1.34762	0	
2.3427	-0.546624	-1.09174	0	
2.3433	-2.99455	0.733514	0	
2.3440	-2.99455	-1.09174	0	
2.3447	-3.30351	-3.83816	0	
2.3453	-4.82455	-3.22405	0	
2.3460	-6.65455	-2.62701	0	
2.3467	-7.86663	-1.39879	0	
2.3473	-9.10248	0.733514	0	
2.3480	-10.9325	-2.31995	0	
2.3487	-12.1446	-4.75931	0	
2.3493	-11.2414	-3.83816	0	
2.3500	-10.0056	-7.19868	0	
2.3507	-10.3146	-13.9027	0	
2.3513	-8.48455	-13.3056	0	
2.3520	-3.89767	-10.2521	0	
2.3527	-3.89767	-7.81278	0	
2.3533	-5.13351	-3.83816	0	
2.3540	-1.47351	-1.70585	0	
2.3547	2.80442	1.96172	0	
2.3553	3.42234	11.7192	0	
2.3560	4.32546	17.212	0	
2.3567	6.15546	14.1585	0	
2.3573	6.15546	9.89392	0	
2.3580	7.08235	4.70814	0	
2.3587	7.08235	-2.31995	0	
2.3593	4.63442	-3.5311	0	
2.3600	4.32546	-0.170585	0	
2.3607	8.91235	-0.170585	0	
2.3613	11.6455	-1.39879	0	
2.3620	9.81546	-2.0129	0	
2.3627	8.60339	-1.09174	0	
2.3633	9.81546	-1.09174	0	
2.3640	9.22131	-2.917	0	
2.3647	7.08235	-4.75931	0	
2.3653	4.32546	-3.83816	0	
2.3660	-0.855585	-2.917	0	
2.3667	-2.37663	-2.917	0	
2.3673	0.665455	-2.917	0	
2.3680	0.665455	-3.22405	0	
2.3687	-0.237663	-2.0129	0	
2.3693	1.28338	2.26878	0	
2.3700	0.0712988	4.09403	0	
2.3707	-2.37663	1.65467	0	
2.3713	-1.16455	0.733514	0	
2.3720	-1.47351	4.70814	0	
2.3727	-2.68559	6.22634	0	
2.3733	0.0712988	3.47993	0	
2.3740	0.974417	1.04057	0	
2.3747	-1.16455	0.119409	0	
2.3753	0.974417	0.119409	0	
2.3760	3.42234	1.65467	0	
2.3767	1.59234	-0.170585	0	
2.3773	0.974417	-5.06637	0	
2.3780	2.49546	-3.5311	0	
2.3787	-0.237663	5.01519	0	
2.3793	-4.51559	8.06866	0	
2.3800	-2.06766	4.09403	0	
2.3807	0.665455	-0.170585	0	
2.3813	-0.237663	-2.917	0	
2.3820	0.665455	-2.917	0	
2.3827	1.59234	-0.170585	0	
2.3833	-2.06766	3.17288	0	
2.3840	-3.61247	3.47993	0	
2.3847	-0.855585	1.04057	0	
2.3853	-2.99455	-2.917	0	
2.3860	-8.48455	-5.66341	0	
2.3867	-7.58144	-5.66341	0	
2.3873	-6.65455	-4.75931	0	
2.3880	-10.0056	-4.45226	0	
2.3887	-10.3146	-3.22405	0	
2.3893	-6.96351	-2.917	0	
2.3900	-4.82455	-3.22405	0	
2.3907	-2.06766	1.04057	0	
2.3913	-0.237663	4.40109	0	
2.3920	-1.47351	0.426462	0	
2.3927	-0.855585	-1.09174	0	
2.3933	1.9013	3.47993	0	
2.3940	2.49546	3.47993	0	
2.3947	1.59234	0.733514	0	
2.3953	3.11338	3.17288	0	
2.3960	4.32546	4.40109	0	
2.3967	2.49546	2.57583	0	
2.3973	0.356494	2.26878	0	
2.3980	0.356494	-2.0129	0	
2.3987	0.356494	-9.33099	0	
2.3993	-0.237663	-12.0774	0	
2.4000	-0.237663	-9.94509	0	
2.4007	-1.16455	-5.66341	0	
2.4013	-3.89767	-3.5311	0	
2.4020	-5.72767	-5.37342	0	
2.4027	-6.65455	-5.37342	0	
2.4033	-7.86663	-2.0129	0	
2.4040	-7.86663	2.57583	0	
2.4047	-6.96351	13.2544	0	
2.4053	-6.65455	20.8796	0	
2.4060	-6.34559	11.1051	0	
2.4067	-6.96351	-2.62701	0	
2.4073	-8.17559	-3.83816	0	
2.4080	-6.65455	-3.5311	0	
2.4087	-4.51559	-4.75931	0	
2.4093	-4.20663	-2.0129	0	
2.4100	-2.37663	1.65467	0	
2.4107	2.1865	5.91929	0	
2.4113	4.63442	15.3867	0	
2.4120	6.15546	21.4937	0	
2.4127	6.77338	17.5191	0	
2.4133	5.25234	10.508	0	
2.4140	3.7313	6.22634	0	
2.4147	4.0165	4.40109	0	
2.4153	2.1865	2.57583	0	
2.4160	-1.16455	0.119409	0	
2.4167	-1.47351	-0.78469	0	
2.4173	-1.16455	-0.170585	0	
2.4180	-1.16455	-1.09174	0	
2.4187	0.356494	-0.170585	0	
2.4193	-1.16455	1.34762	0	
2.4200	-7.27248	-2.31995	0	
2.4207	-8.48455	-6.27752	0	
2.4213	-2.99455	-4.75931	0	
2.4220	-0.855585	-4.75931	0	
2.4227	-2.68559	-6.58457	0	
2.4233	-1.16455	-5.06637	0	
2.4240	0.665455	-5.37342	0	
2.4247	0.0712988	-9.33099	0	
2.4253	1.59234	-9.33099	0	
2.4260	4.0165	-6.27752	0	
2.4267	3.7313	-5.97047	0	
2.4273	5.25234	-5.37342	0	
2.4280	8.91235	-5.06637	0	
2.4287	9.53027	-6.58457	0	
2.4293	8.60339	-5.06637	0	
2.4300	9.81546	-2.62701	0	
2.4307	10.7423	-3.83816	0	
2.4313	10.1244	-3.83816	0	
2.4320	9.81546	-0.78469	0	
2.4327	10.7423	-1.09174	0	
2.4333	11.0513	-3.22405	0	
2.4340	10.1244	-2.31995	0	
2.4347	9.22131	-1.09174	0	
2.4353	9.81546	-1.09174	0	
2.4360	11.3603	-1.09174	0	
2.4367	8.91235	-2.62701	0	
2.4373	3.42234	-5.97047	0	
2.4380	1.59234	-5.66341	0	
2.4387	2.49546	-2.917	0	
2.4393	0.665455	-4.75931	0	
2.4400	-2.06766	-6.89162	0	
2.4407	-0.546624	-3.83816	0	
2.4413	-2.06766	-2.62701	0	
2.4420	-5.44247	-2.917	0	
2.4427	-4.51559	0.733514	0	
2.4433	-3.61247	1.65467	0	
2.4440	-7.58144	-3.5311	0	
2.4447	-11.2414	-3.5311	0	
2.4453	-11.8356	-0.78469	0	
2.4460	-11.2414	-3.83816	0	
2.4467	-7.58144	-3.83816	0	
2.4473	-4.82455	1.96172	0	
2.4480	-4.82455	0.426462	0	
2.4487	-5.44247	-4.75931	0	
2.4493	-6.03663	-1.39879	0	
2.4500	-5.13351	4.40109	0	
2.4507	-1.16455	3.17288	0	
2.4513	-0.237663	1.04057	0	
2.4520	-2.37663	1.34762	0	
2.4527	-1.47351	1.65467	0	
2.4533	1.9013	1.96172	0	
2.4540	1.59234	3.17288	0	
2.4547	-0.237663	3.47993	0	
2.4553	1.59234	2.57583	0	
2.4560	2.49546	-0.78469	0	
2.4567	-0.546624	-1.39879	0	
2.4573	-2.99455	2.86582	0	
2.4580	-1.47351	2.86582	0	
2.4587	0.974417	-2.0129	0	
2.4593	1.28338	-2.31995	0	
2.4600	-0.855585	-1.39879	0	
2.4607	-1.16455	-2.917	0	
2.4613	0.0712988	-3.83816	0	
2.4620	-0.237663	-5.66341	0	
2.4627	-1.16455	-8.11983	0	
2.4633	0.356494	-3.83816	0	
2.4640	-1.16455	-0.78469	0	
2.4647	-3.89767	-3.83816	0	
2.4653	-1.47351	-3.83816	0	
2.4660	1.28338	0.733514	0	
2.4667	-1.47351	1.34762	0	
2.4673	-3.30351	-0.78469	0	
2.4680	-2.06766	-2.0129	0	
2.4687	-1.47351	-3.83816	0	
2.4693	0.974417	-4.14521	0	
2.4700	2.1865	-2.62701	0	
2.4707	-1.16455	-2.917	0	
2.4713	-2.99455	-4.75931	0	
2.4720	-0.237663	-5.66341	0	
2.4727	1.9013	-1.39879	0	
2.4733	1.9013	6.84045	0	
2.4740	1.59234	8.35865	0	
2.4747	0.665455	3.47993	0	
2.4753	-0.237663	0.733514	0	
2.4760	-0.237663	-4.14521	0	
2.4767	1.28338	-11.4633	0	
2.4773	2.1865	-11.7703	0	
2.4780	0.974417	-11.4633	0	
2.4787	-0.546624	-17.8773	0	
2.4793	-1.16455	-15.745	0	
2.4800	-2.06766	-2.0129	0	
2.4807	-2.99455	2.86582	0	
2.4813	-3.61247	-2.62701	0	
2.4820	-3.61247	0.733514	0	
2.4827	-2.99455	12.9474	0	
2.4833	-4.51559	20.5725	0	
2.4840	-6.65455	23.626	0	
2.4847	-4.82455	25.1442	0	
2.4853	-3.30351	19.0543	0	
2.4860	-6.65455	8.06866	0	
2.4867	-8.17559	6.22634	0	
2.4873	-6.96351	10.201	0	
2.4880	-8.17559	8.06866	0	
2.4887	-7.58144	5.32224	0	
2.4893	-2.37663	5.32224	0	
2.4900	-0.546624	0.426462	0	
2.4907	0.665455	-5.97047	0	
2.4913	4.0165	-5.66341	0	
2.4920	4.0165	-2.62701	0	
2.4927	2.1865	-2.0129	0	
2.4933	3.42234	-0.477637	0	
2.4940	3.7313	1.96172	0	
2.4947	2.49546	4.70814	0	
2.4953	4.0165	10.8151	0	
2.4960	4.63442	19.0543	0	
2.4967	2.49546	19.6514	0	
2.4973	0.974417	11.7192	0	
2.4980	1.9013	2.86582	0	
2.4987	3.7313	-0.170585	0	
2.4993	4.0165	-1.70585	0	
2.5000	0.665455	-3.83816	0	
2.5007	-2.37663	-4.75931	0	
2.5013	-2.06766	-5.06637	0	
2.5020	-3.61247	-3.5311	0	
2.5027	-7.58144	1.04057	0	
2.5033	-7.27248	0.733514	0	
2.5040	-2.99455	-4.45226	0	
2.5047	-1.16455	-5.37342	0	
2.5053	-2.99455	-2.62701	0	
2.5060	-4.82455	-2.917	0	
2.5067	-3.89767	-3.5311	0	
2.5073	-1.16455	-2.31995	0	
2.5080	-0.237663	-5.37342	0	
2.5087	-0.237663	-7.81278	0	
2.5093	1.59234	-5.37342	0	
2.5100	4.32546	-5.06637	0	
2.5107	5.8465	-6.58457	0	
2.5113	5.8465	-2.31995	0	
2.5120	7.08235	0.733514	0	
2.5127	7.08235	-1.09174	0	
2.5133	5.25234	-1.09174	0	
2.5140	6.15546	0.733514	0	
2.5147	7.98546	-0.170585	0	
2.5153	5.8465	-0.477637	0	
2.5160	4.32546	1.65467	0	
2.5167	5.5613	0.733514	0	
2.5173	2.80442	-2.917	0	
2.5180	-2.06766	-4.75931	0	
2.5187	-2.06766	-3.83816	0	
2.5193	0.665455	-2.31995	0	
2.5200	-0.237663	-1.70585	0	
2.5207	-1.16455	-2.0129	0	
2.5213	-0.546624	-2.62701	0	
2.5220	-1.78247	-2.0129	0	
2.5227	-2.37663	-2.62701	0	
2.5233	-1.47351	-3.83816	0	
2.5240	-1.78247	-3.83816	0	
2.5247	-2.68559	-2.917	0	
2.5253	-2.68559	-3.5311	0	
2.5260	-3.30351	-3.22405	0	
2.5267	-3.30351	-1.09174	0	
2.5273	-3.30351	-2.0129	0	
2.5280	-4.82455	-4.75931	0	
2.5287	-5.72767	-3.5311	0	
2.5293	-4.20663	-0.78469	0	
2.5300	-2.37663	-1.09174	0	
2.5307	-0.546624	-0.170585	0	
2.5313	1.59234	1.96172	0	
2.5320	1.9013	1.04057	0	
2.5327	0.665455	-0.78469	0	
2.5333	0.0712988	0.119409	0	
2.5340	0.665455	2.26878	0	
2.5347	2.49546	1.34762	0	
2.5353	2.49546	-0.78469	0	
2.5360	0.974417	-0.170585	0	
2.5367	-0.237663	0.733514	0	
2.5373	-0.237663	0.119409	0	
2.5380	-0.237663	0.733514	0	
2.5387	-0.237663	1.65467	0	
2.5393	-0.237663	0.119409	0	
2.5400	-0.855585	-3.5311	0	
2.5407	-0.855585	-8.40983	0	
2.5413	-0.855585	-12.0774	0	
2.5420	-0.855585	-12.0774	0	
2.5427	-1.16455	-12.0774	0	
2.5433	-3.61247	-13.6127	0	
2.5440	-6.03663	-13.6127	0	
2.5447	-5.72767	-15.4379	0	
2.5453	-5.13351	-14.8238	0	
2.5460	-5.13351	-2.31995	0	
2.5467	-5.72767	10.8151	0	
2.5473	-5.72767	8.66571	0	
2.5480	-5.13351	2.57583	0	
2.5487	-3.30351	3.47993	0	
2.5493	-1.16455	9.27981	0	
2.5500	-2.06766	18.1332	0	
2.5507	-5.44247	21.1866	0	
2.5513	-4.82455	13.5615	0	
2.5520	-0.855585	8.66571	0	
2.5527	0.0712988	10.8151	0	
2.5533	-0.546624	8.97276	0	
2.5540	-0.237663	5.61224	0	
2.5547	-2.68559	7.1475	0	
2.5553	-3.89767	8.66571	0	
2.5560	1.59234	5.91929	0	
2.5567	3.42234	2.57583	0	
2.5573	0.665455	0.426462	0	
2.5580	2.49546	-0.170585	0	
2.5587	5.5613	2.26878	0	
2.5593	3.7313	4.09403	0	
2.5600	3.11338	3.17288	0	
2.5607	3.7313	2.86582	0	
2.5613	2.1865	2.57583	0	
2.5620	1.28338	-0.170585	0	
2.5627	1.59234	-1.39879	0	
2.5633	0.0712988	-1.09174	0	
2.5640	-1.47351	-5.06637	0	
2.5647	-2.99455	-12.0774	0	
2.5653	-3.61247	-11.4633	0	
2.5660	-1.78247	-5.97047	0	
2.5667	-1.78247	-5.06637	0	
2.5673	-5.13351	-6.27752	0	
2.5680	-5.72767	-2.0129	0	
2.5687	-5.13351	3.17288	0	
2.5693	-5.72767	5.32224	0	
2.5700	-4.82455	7.76161	0	
2.5707	-5.13351	9.27981	0	
2.5713	-7.58144	5.32224	0	
2.5720	-7.86663	0.733514	0	
2.5727	-7.58144	2.86582	0	
2.5733	-7.58144	8.06866	0	
2.5740	-4.20663	7.45455	0	
2.5747	0.356494	5.91929	0	
2.5753	1.28338	8.35865	0	
2.5760	0.974417	8.06866	0	
2.5767	2.49546	2.57583	0	
2.5773	5.25234	1.04057	0	
2.5780	6.77338	3.47993	0	
2.5787	5.25234	2.57583	0	
2.5793	3.11338	1.04057	0	
2.5800	4.0165	2.26878	0	
2.5807	3.42234	1.65467	0	
2.5813	0.974417	-2.31995	0	
2.5820	0.356494	-4.14521	0	
2.5827	0.356494	-3.83816	0	
2.5833	-2.06766	-2.0129	0	
2.5840	-4.51559	-1.70585	0	
2.5847	-5.72767	-2.31995	0	
2.5853	-4.51559	-2.62701	0	
2.5860	-0.237663	-2.0129	0	
2.5867	2.49546	-1.70585	0	
2.5873	-0.237663	-2.62701	0	
2.5880	-0.237663	-3.5311	0	
2.5887	3.42234	-3.5311	0	
2.5893	4.0165	-2.62701	0	
2.5900	2.1865	-1.70585	0	
2.5907	2.80442	-0.170585	0	
2.5913	4.32546	0.733514	0	
2.5920	4.0165	-0.170585	0	
2.5927	3.42234	-2.31995	0	
2.5933	3.7313	-3.83816	0	
2.5940	6.46442	-2.31995	0	
2.5947	8.91235	0.119409	0	
2.5953	7.98546	1.65467	0	
2.5960	9.81546	0.733514	0	
2.5967	12.5724	0.733514	0	
2.5973	8.91235	1.65467	0	
2.5980	4.32546	-1.09174	0	
2.5987	6.77338	-3.83816	0	
2.5993	6.77338	-2.0129	0	
2.6000	1.9013	0.426462	0	
2.6007	0.0712988	-1.39879	0	
2.6013	1.59234	-3.83816	0	
2.6020	1.59234	-4.75931	0	
2.6027	-1.16455	-4.75931	0	
2.6033	-4.82455	-3.22405	0	
2.6040	-5.72767	-1.70585	0	
2.6047	-6.03663	-2.31995	0	
2.6053	-7.58144	-2.917	0	
2.6060	-6.34559	-3.5311	0	
2.6067	-4.20663	-4.75931	0	
2.6073	-5.72767	-3.22405	0	
2.6080	-6.96351	-0.78469	0	
2.6087	-5.13351	-2.62701	0	
2.6093	-3.89767	-3.83816	0	
2.6100	-2.99455	-1.70585	0	
2.6107	-0.237663	0.119409	0	
2.6113	1.59234	1.04057	0	
2.6120	3.42234	3.78698	0	
2.6127	4.32546	6.22634	0	
2.6133	3.42234	6.5334	0	
2.6140	3.7313	4.40109	0	
2.6147	6.46442	1.65467	0	
2.6153	6.77338	-0.170585	0	
2.6160	6.15546	0.733514	0	
2.6167	7.08235	0.426462	0	
2.6173	7.08235	-0.78469	0	
2.6180	6.15546	0.119409	0	
2.6187	4.63442	0.733514	0	
2.6193	2.49546	-2.0129	0	
2.6200	1.59234	-2.31995	0	
2.6207	0.665455	1.65467	0	
2.6213	-1.16455	2.57583	0	
2.6220	-2.06766	0.119409	0	
2.6227	-2.06766	0.733514	0	
2.6233	-3.89767	1.34762	0	
2.6240	-5.72767	-0.78469	0	
2.6247	-5.72767	-2.0129	0	
2.6253	-6.96351	-0.78469	0	
2.6260	-9.41144	1.04057	0	
2.6267	-8.79352	1.65467	0	
2.6273	-7.58144	-0.170585	0	
2.6280	-8.48455	-2.62701	0	
2.6287	-7.86663	-3.5311	0	
2.6293	-6.03663	-1.39879	0	
2.6300	-8.17559	2.26878	0	
2.6307	-10.3146	3.47993	0	
2.6313	-6.03663	1.65467	0	
2.6320	-1.47351	1.65467	0	
2.6327	-2.06766	2.26878	0	
2.6333	-2.37663	-0.477637	0	
2.6340	2.49546	-3.83816	0	
2.6347	5.25234	-5.37342	0	
2.6353	3.42234	-9.33099	0	
2.6360	0.665455	-12.6915	0	
2.6367	-0.855585	-10.2521	0	
2.6373	-0.546624	-5.97047	0	
2.6380	1.59234	-5.37342	0	
2.6387	3.42234	-4.14521	0	
2.6393	4.32546	0.733514	0	
2.6400	4.94338	3.47993	0	
2.6407	2.1865	-0.170585	0	
2.6413	-1.78247	-1.09174	0	
2.6420	-1.78247	2.26878	0	
2.6427	-0.237663	-0.170585	0	
2.6433	-1.78247	-4.14521	0	
2.6440	-2.06766	3.78698	0	
2.6447	0.356494	15.3867	0	
2.6453	-0.855585	14.7726	0	
2.6460	-6.03663	12.3333	0	
2.6467	-6.65455	13.8515	0	
2.6473	-4.20663	10.508	0	
2.6480	-5.44247	1.96172	0	
2.6487	-5.13351	-1.70585	0	
2.6493	-1.16455	-0.78469	0	
2.6500	0.0712988	-0.78469	0	
2.6507	-1.47351	-0.78469	0	
2.6513	-0.237663	0.733514	0	
2.6520	2.49546	2.57583	0	
2.6527	1.9013	3.47993	0	
2.6533	0.974417	2.57583	0	
2.6540	1.59234	1.96172	0	
2.6547	1.59234	1.96172	0	
2.6553	-0.237663	0.426462	0	
2.6560	-3.30351	-2.62701	0	
2.6567	-3.89767	-2.62701	0	
2.6573	-2.68559	-0.78469	0	
2.6580	-1.78247	-2.0129	0	
2.6587	-2.06766	-4.14521	0	
2.6593	-1.16455	-3.83816	0	
2.6600	1.59234	-3.83816	0	
2.6607	2.49546	-3.83816	0	
2.6613	1.59234	-4.14521	0	
2.6620	2.1865	-5.97047	0	
2.6627	3.42234	-6.27752	0	
2.6633	3.11338	-5.06637	0	
2.6640	1.59234	-5.06637	0	
2.6647	-1.47351	-4.75931	0	
2.6653	-3.89767	-4.75931	0	
2.6660	-3.30351	-9.33099	0	
2.6667	-1.78247	-13.3056	0	
2.6673	-1.78247	-12.0774	0	
2.6680	-2.68559	-11.1562	0	
2.6687	-3.30351	-9.63804	0	
2.6693	-1.78247	-6.27752	0	
2.6700	3.11338	-6.89162	0	
2.6707	5.25234	-8.71688	0	
2.6713	2.49546	-3.22405	0	
2.6720	2.80442	2.57583	0	
2.6727	6.15546	1.65467	0	
2.6733	5.25234	1.65467	0	
2.6740	5.5613	4.09403	0	
2.6747	9.81546	3.47993	0	
2.6753	10.7423	1.65467	0	
2.6760	8.29442	1.96172	0	
2.6767	7.98546	2.86582	0	
2.6773	6.46442	5.01519	0	
2.6780	2.49546	6.5334	0	
2.6787	1.59234	4.70814	0	
2.6793	0.665455	1.34762	0	
2.6800	-1.16455	0.733514	0	
2.6807	0.0712988	1.65467	0	
2.6813	2.49546	1.04057	0	
2.6820	-0.237663	-0.170585	0	
2.6827	-4.51559	0.426462	0	
2.6833	-3.89767	1.34762	0	
2.6840	-2.37663	0.733514	0	
2.6847	-4.20663	-0.78469	0	
2.6853	-6.34559	-1.09174	0	
2.6860	-7.58144	-1.70585	0	
2.6867	-8.17559	-2.31995	0	
2.6873	-6.34559	-0.477637	0	
2.6880	-4.51559	0.733514	0	
2.6887	-4.82455	0.119409	0	
2.6893	-4.20663	1.34762	0	
2.6900	-3.89767	0.733514	0	
2.6907	-5.44247	-1.39879	0	
2.6913	-5.13351	-1.09174	0	
2.6920	-3.89767	0.119409	0	
2.6927	-5.72767	-0.170585	0	
2.6933	-6.65455	-1.70585	0	
2.6940	-2.99455	-3.83816	0	
2.6947	-0.855585	-5.66341	0	
2.6953	-0.546624	-6.58457	0	
2.6960	2.49546	-8.11983	0	
2.6967	4.0165	-8.40983	0	
2.6973	1.28338	-3.83816	0	
2.6980	0.0712988	-0.170585	0	
2.6987	0.974417	-0.170585	0	
2.6993	-0.237663	2.57583	0	
2.7000	-1.47351	6.22634	0	
2.7007	-1.16455	5.32224	0	
2.7013	-2.06766	5.01519	0	
2.7020	-3.89767	3.78698	0	
2.7027	-5.13351	-2.0129	0	
2.7033	-4.51559	-5.06637	0	
2.7040	-2.68559	-5.66341	0	
2.7047	-2.06766	-12.9986	0	
2.7053	-3.89767	-15.745	0	
2.7060	-5.44247	-6.27752	0	
2.7067	-5.72767	-2.0129	0	
2.7073	-5.72767	-7.50573	0	
2.7080	-4.82455	-7.81278	0	
2.7087	-1.47351	-1.39879	0	
2.7093	1.9013	6.22634	0	
2.7100	2.80442	14.7726	0	
2.7107	2.49546	18.7473	0	
2.7113	2.49546	12.3333	0	
2.7120	3.11338	1.65467	0	
2.7127	2.80442	-7.19868	0	
2.7133	3.42234	-10.2521	0	
2.7140	4.0165	-4.75931	0	
2.7147	2.80442	0.426462	0	
2.7153	2.80442	-0.78469	0	
2.7160	5.5613	0.119409	0	
2.7167	7.08235	8.97276	0	
2.7173	6.15546	16.0008	0	
2.7180	7.08235	15.3867	0	
2.7187	8.60339	12.6403	0	
2.7193	7.39131	9.58686	0	
2.7200	4.32546	2.26878	0	
2.7207	1.59234	-2.917	0	
2.7213	-1.16455	-0.477637	0	
2.7220	-2.68559	0.733514	0	
2.7227	-4.51559	-1.09174	0	
2.7233	-7.86663	-0.170585	0	
2.7240	-9.41144	1.04057	0	
2.7247	-6.65455	-2.31995	0	
2.7253	-5.72767	-3.5311	0	
2.7260	-9.10248	-2.0129	0	
2.7267	-12.4535	-3.83816	0	
2.7273	-12.1446	-5.97047	0	
2.7280	-10.3146	-6.27752	0	
2.7287	-8.79352	-5.37342	0	
2.7293	-7.27248	-2.62701	0	
2.7300	-2.99455	0.733514	0	
2.7307	0.356494	0.733514	0	
2.7313	0.665455	-1.39879	0	
2.7320	1.28338	-2.62701	0	
2.7327	3.7313	-3.5311	0	
2.7333	4.94338	-3.5311	0	
2.7340	3.11338	-3.83816	0	
2.7347	2.49546	-3.83816	0	
2.7353	4.32546	-3.83816	0	
2.7360	3.42234	-5.66341	0	
2.7367	0.974417	-3.83816	0	
2.7373	2.1865	4.09403	0	
2.7380	5.5613	7.1475	0	
2.7387	6.46442	1.65467	0	
2.7393	4.32546	-2.0129	0	
2.7400	3.11338	-2.917	0	
2.7407	4.63442	-4.75931	0	
2.7413	7.98546	-3.83816	0	
2.7420	7.98546	-1.70585	0	
2.7427	5.5613	-2.0129	0	
2.7433	4.32546	-1.09174	0	
2.7440	4.32546	-1.09174	0	
2.7447	3.11338	-3.83816	0	
2.7453	2.1865	-3.83816	0	
2.7460	1.28338	-2.917	0	
2.7467	0.356494	-3.22405	0	
2.7473	1.59234	1.65467	0	
2.7480	2.1865	7.45455	0	
2.7487	-0.237663	5.32224	0	
2.7493	-1.16455	2.57583	0	
2.7500	-0.237663	5.91929	0	
2.7507	-0.855585	6.22634	0	
2.7513	-0.237663	2.26878	0	
2.7520	1.28338	0.119409	0	
2.7527	-0.237663	0.733514	0	
2.7533	-1.16455	0.426462	0	
2.7540	1.59234	-1.09174	0	
2.7547	2.80442	0.733514	0	
2.7553	1.9013	6.5334	0	
2.7560	1.28338	6.84045	0	
2.7567	0.665455	2.86582	0	
2.7573	0.665455	4.40109	0	
2.7580	1.59234	8.06866	0	
2.7587	-0.237663	8.06866	0	
2.7593	-3.30351	6.5334	0	
2.7600	-3.89767	3.78698	0	
2.7607	-4.51559	1.65467	0	
2.7613	-5.13351	2.57583	0	
2.7620	-3.89767	0.733514	0	
2.7627	-3.30351	-4.45226	0	
2.7633	-5.13351	-7.50573	0	
2.7640	-5.72767	-9.33099	0	
2.7647	-5.44247	-8.11983	0	
2.7653	-6.96351	-2.62701	0	
2.7660	-9.41144	-1.09174	0	
2.7667	-9.41144	-3.22405	0	
2.7673	-6.96351	-0.477637	0	
2.7680	-4.20663	4.40109	0	
2.7687	-3.89767	6.22634	0	
2.7693	-4.82455	5.32224	0	
2.7700	-2.99455	1.65467	0	
2.7707	-0.855585	-2.0129	0	
2.7713	-1.47351	-1.09174	0	
2.7720	-3.89767	0.733514	0	
2.7727	-3.61247	1.65467	0	
2.7733	-1.47351	5.91929	0	
2.7740	-1.78247	8.66571	0	
2.7747	-2.06766	5.61224	0	
2.7753	-0.546624	4.40109	0	
2.7760	1.59234	8.66571	0	
2.7767	3.7313	9.89392	0	
2.7773	4.0165	4.70814	0	
2.7780	1.59234	2.57583	0	
2.7787	0.974417	6.22634	0	
2.7793	2.49546	5.32224	0	
2.7800	-0.237663	-0.170585	0	
2.7807	-5.72767	0.119409	0	
2.7813	-6.65455	1.65467	0	
2.7820	-5.72767	-0.78469	0	
2.7827	-6.34559	-1.09174	0	
2.7833	-6.34559	-1.09174	0	
2.7840	-5.13351	-4.75931	0	
2.7847	-2.68559	-6.89162	0	
2.7853	0.0712988	-6.27752	0	
2.7860	-1.47351	-7.50573	0	
2.7867	-5.13351	-7.50573	0	
2.7873	-4.20663	-3.83816	0	
2.7880	-2.37663	-2.62701	0	
2.7887	-2.99455	-4.14521	0	
2.7893	-1.78247	-4.75931	0	
2.7900	0.665455	-3.22405	0	
2.7907	0.665455	-3.22405	0	
2.7913	1.59234	-5.66341	0	
2.7920	2.1865	-5.66341	0	
2.7927	1.28338	-2.31995	0	
2.7933	2.49546	-1.09174	0	
2.7940	5.5613	-2.917	0	
2.7947	5.8465	-5.66341	0	
2.7953	5.5613	-7.50573	0	
2.7960	5.5613	-2.0129	0	
2.7967	2.49546	8.06866	0	
2.7973	0.356494	9.27981	0	
2.7980	1.28338	2.26878	0	
2.7987	1.28338	1.04057	0	
2.7993	-1.16455	6.22634	0	
2.8000	-1.47351	8.66571	0	
2.8007	-1.78247	10.508	0	
2.8013	-2.06766	10.508	0	
2.8020	-0.237663	4.40109	0	
2.8027	-0.546624	1.04057	0	
2.8033	-2.68559	3.17288	0	
2.8040	-2.06766	1.65467	0	
2.8047	-0.546624	-3.22405	0	
2.8053	-1.16455	-3.83816	0	
2.8060	0.665455	-3.5311	0	
2.8067	3.42234	-3.83816	0	
2.8073	2.49546	-2.917	0	
2.8080	0.974417	-3.5311	0	
2.8087	0.665455	-5.97047	0	
2.8093	-0.237663	-4.75931	0	
2.8100	0.974417	-1.70585	0	
2.8107	4.32546	-2.0129	0	
2.8113	5.25234	-2.917	0	
2.8120	6.15546	-2.0129	0	
2.8127	7.98546	-1.39879	0	
2.8133	6.46442	-0.477637	0	
2.8140	7.08235	0.119409	0	
2.8147	11.0513	-0.170585	0	
2.8153	11.3603	2.26878	0	
2.8160	11.6455	5.32224	0	
2.8167	14.4024	2.57583	0	
2.8173	12.5724	-2.0129	0	
2.8180	7.98546	-1.09174	0	
2.8187	7.98546	-0.170585	0	
2.8193	7.98546	-0.78469	0	
2.8200	6.77338	1.34762	0	
2.8207	8.29442	2.57583	0	
2.8213	6.15546	-0.170585	0	
2.8220	0.356494	-1.39879	0	
2.8227	-0.237663	0.426462	0	
2.8233	1.9013	-0.477637	0	
2.8240	-1.47351	-4.75931	0	
2.8247	-4.82455	-5.66341	0	
2.8253	-2.99455	-0.170585	0	
2.8260	-3.30351	7.1475	0	
2.8267	-7.86663	5.91929	0	
2.8273	-9.69663	-0.170585	0	
2.8280	-6.65455	-2.62701	0	
2.8287	-4.51559	-1.70585	0	
2.8293	-4.82455	-2.31995	0	
2.8300	-4.20663	-3.83816	0	
2.8307	-2.99455	-3.5311	0	
2.8313	-3.89767	-3.83816	0	
2.8320	-3.61247	-5.97047	0	
2.8327	-0.237663	-7.19868	0	
2.8333	1.9013	-4.75931	0	
2.8340	1.59234	-2.917	0	
2.8347	1.28338	-1.70585	0	
2.8353	-0.237663	-2.31995	0	
2.8360	-2.37663	-4.45226	0	
2.8367	-0.237663	-5.06637	0	
2.8373	1.9013	-4.75931	0	
2.8380	-0.546624	-5.66341	0	
2.8387	-2.99455	-4.14521	0	
2.8393	-1.47351	-3.22405	0	
2.8400	0.356494	-6.27752	0	
2.8407	0.0712988	-6.58457	0	
2.8413	-0.546624	-3.22405	0	
2.8420	-1.47351	-3.22405	0	
2.8427	-1.78247	-4.14521	0	
2.8433	-0.855585	0.426462	0	
2.8440	-1.47351	4.09403	0	
2.8447	-3.30351	2.26878	0	
2.8453	-3.30351	-0.170585	0	
2.8460	-3.61247	-0.78469	0	
2.8467	-6.03663	-1.70585	0	
2.8473	-7.58144	-2.0129	0	
2.8480	-6.96351	-0.477637	0	
2.8487	-7.27248	1.65467	0	
2.8493	-5.44247	1.65467	0	
2.8500	-2.06766	0.426462	0	
2.8507	-3.30351	1.04057	0	
2.8513	-4.51559	1.96172	0	
2.8520	0.0712988	0.733514	0	
2.8527	2.80442	-1.09174	0	
2.8533	1.59234	-2.0129	0	
2.8540	3.42234	-2.31995	0	
2.8547	5.8465	-3.22405	0	
2.8553	2.49546	-3.83816	0	
2.8560	0.356494	-2.917	0	
2.8567	3.11338	-1.09174	0	
2.8573	5.25234	-2.31995	0	
2.8580	5.5613	-5.06637	0	
2.8587	5.8465	-4.14521	0	
2.8593	3.11338	1.65467	0	
2.8600	0.0712988	9.27981	0	
2.8607	-0.546624	14.4656	0	
2.8613	-2.06766	14.7726	0	
2.8620	-3.89767	9.89392	0	
2.8627	-2.99455	2.86582	0	
2.8633	-4.20663	-0.170585	0	
2.8640	-7.58144	-0.477637	0	
2.8647	-8.48455	-2.917	0	
2.8653	-7.58144	-4.75931	0	
2.8660	-9.69663	-4.45226	0	
2.8667	-11.2414	-3.83816	0	
2.8673	-10.0056	-4.45226	0	
2.8680	-10.0056	-3.83816	0	
2.8687	-10.6235	-4.14521	0	
2.8693	-9.41144	-1.39879	0	
2.8700	-7.58144	3.47993	0	
2.8707	-5.72767	-0.170585	0	
2.8713	-3.89767	-9.94509	0	
2.8720	-3.30351	-12.9986	0	
2.8727	-1.16455	-9.02393	0	
2.8733	1.28338	-6.58457	0	
2.8740	-0.546624	-4.14521	0	
2.8747	-2.37663	0.733514	0	
2.8753	0.665455	3.47993	0	
2.8760	3.7313	6.5334	0	
2.8767	4.32546	14.4656	0	
2.8773	3.42234	15.3867	0	
2.8780	2.49546	4.70814	0	
2.8787	1.59234	0.733514	0	
2.8793	1.9013	5.91929	0	
2.8800	2.49546	5.32224	0	
2.8807	3.11338	0.733514	0	
2.8813	3.7313	-0.170585	0	
2.8820	1.59234	0.733514	0	
2.8827	0.0712988	1.65467	0	
2.8833	2.1865	2.57583	0	
2.8840	2.49546	0.119409	0	
2.8847	0.665455	-2.31995	0	
2.8853	0.665455	-2.62701	0	
2.8860	0.974417	-3.83816	0	
2.8867	-0.237663	-3.83816	0	
2.8873	-1.16455	-1.39879	0	
2.8880	-1.16455	-2.917	0	
2.8887	-2.06766	-5.06637	0	
2.8893	-5.13351	-4.45226	0	
2.8900	-5.72767	-3.83816	0	
2.8907	-1.16455	-4.14521	0	
2.8913	1.9013	-4.45226	0	
2.8920	0.665455	-1.70585	0	
2.8927	1.28338	3.78698	0	
2.8933	4.0165	5.01519	0	
2.8940	6.15546	1.34762	0	
2.8947	7.70027	2.26878	0	
2.8953	7.70027	5.61224	0	
2.8960	6.15546	3.78698	0	
2.8967	5.25234	0.733514	0	
2.8973	2.49546	-0.170585	0	
2.8980	1.59234	0.426462	0	
2.8987	4.94338	1.96172	0	
2.8993	4.94338	0.733514	0	
2.9000	-0.855585	-4.75931	0	
2.9007	-0.237663	-5.66341	0	
2.9013	5.25234	-2.917	0	
2.9020	4.63442	-3.83816	0	
2.9027	1.59234	-5.37342	0	
2.9033	1.59234	-5.37342	0	
2.9040	-0.237663	-10.5592	0	
2.9047	-4.82455	-14.5168	0	
2.9053	-4.82455	-7.50573	0	
2.9060	-2.68559	-2.0129	0	
2.9067	-3.30351	-5.06637	0	
2.9073	-3.89767	-5.66341	0	
2.9080	-3.89767	-1.09174	0	
2.9087	-4.20663	-0.78469	0	
2.9093	-1.47351	0.733514	0	
2.9100	1.59234	8.06866	0	
2.9107	0.0712988	9.89392	0	
2.9113	-1.47351	6.22634	0	
2.9120	0.665455	6.84045	0	
2.9127	2.80442	6.84045	0	
2.9133	2.49546	2.26878	0	
2.9140	1.9013	2.57583	0	
2.9147	4.0165	5.32224	0	
2.9153	5.25234	3.78698	0	
2.9160	5.25234	4.40109	0	
2.9167	6.15546	6.5334	0	
2.9173	6.15546	4.70814	0	
2.9180	5.25234	5.01519	0	
2.9187	5.8465	9.27981	0	
2.9193	5.25234	8.66571	0	
2.9200	0.665455	5.01519	0	
2.9207	-1.78247	4.40109	0	
2.9213	-0.855585	4.40109	0	
2.9220	-1.16455	1.96172	0	
2.9227	-1.16455	1.04057	0	
2.9233	-0.855585	0.733514	0	
2.9240	-1.16455	-1.09174	0	
2.9247	-1.16455	-3.5311	0	
2.9253	-1.78247	-4.14521	0	
2.9260	-2.99455	-5.37342	0	
2.9267	-3.61247	-6.58457	0	
2.9273	-4.82455	-5.97047	0	
2.9280	-6.96351	-5.37342	0	
2.9287	-5.72767	-3.83816	0	
2.9293	-5.72767	2.26878	0	
2.9300	-6.96351	7.1475	0	
2.9307	-4.82455	5.32224	0	
2.9313	-3.30351	2.57583	0	
2.9320	-5.72767	1.96172	0	
2.9327	-3.89767	-0.78469	0	
2.9333	-0.237663	-4.75931	0	
2.9340	-2.06766	-8.40983	0	
2.9347	-2.99455	-9.94509	0	
2.9353	-2.06766	-8.40983	0	
2.9360	-2.99455	-5.97047	0	
2.9367	-3.89767	-4.75931	0	
2.9373	-3.61247	-3.83816	0	
2.9380	-5.13351	-5.37342	0	
2.9387	-3.30351	-6.27752	0	
2.9393	-0.546624	-0.78469	0	
2.9400	-3.30351	4.70814	0	
2.9407	-5.72767	1.34762	0	
2.9413	-4.20663	-2.62701	0	
2.9420	-7.27248	1.34762	0	
